Deltoid,Bicep,Time
-22.0,-9.0,0.0
-8.0,-13.0,0.001
8.0,-9.0,0.002
24.0,-5.0,0.003
44.0,-5.0,0.004
59.0,-6.0,0.005
59.0,-4.0,0.006
37.0,-3.0,0.007
2.0,-5.0,0.008
-32.0,-2.0,0.009
-44.0,7.0,0.01
-29.0,14.0,0.011
-12.0,12.0,0.012
-11.0,7.0,0.013
-19.0,8.0,0.014
-13.0,8.0,0.015
2.0,-1.0,0.016
11.0,-11.0,0.017
8.0,-15.0,0.018
9.0,-9.0,0.019
14.0,-6.0,0.02
10.0,-11.0,0.021
3.0,-15.0,0.022
6.0,-12.0,0.023
17.0,-8.0,0.024
16.0,-6.0,0.025
4.0,-2.0,0.026
-1.0,1.0,0.027
5.0,4.0,0.028
8.0,3.0,0.029
0.0,3.0,0.03
-4.0,5.0,0.031
0.0,3.0,0.032
2.0,2.0,0.033
1.0,4.0,0.034
1.0,5.0,0.035
6.0,5.0,0.036
9.0,4.0,0.037
6.0,3.0,0.038
0.0,0.0,0.039
-9.0,-4.0,0.04
-18.0,-10.0,0.041
-23.0,-9.0,0.042
-21.0,-6.0,0.043
-15.0,-5.0,0.044
-8.0,-6.0,0.045
3.0,-7.0,0.046
16.0,-7.0,0.047
23.0,-5.0,0.048
20.0,-1.0,0.049
14.0,4.0,0.05
7.0,7.0,0.051
3.0,5.0,0.052
8.0,5.0,0.053
19.0,7.0,0.054
24.0,7.0,0.055
12.0,3.0,0.056
-4.0,0.0,0.057
-11.0,0.0,0.058
-1.0,2.0,0.059
11.0,0.0,0.06
13.0,-11.0,0.061
11.0,-18.0,0.062
12.0,-13.0,0.063
13.0,-4.0,0.064
4.0,4.0,0.065
-10.0,6.0,0.066
-19.0,4.0,0.067
-16.0,4.0,0.068
-5.0,5.0,0.069
7.0,5.0,0.07
10.0,8.0,0.071
3.0,10.0,0.072
-1.0,9.0,0.073
1.0,6.0,0.074
10.0,5.0,0.075
16.0,3.0,0.076
14.0,1.0,0.077
9.0,-3.0,0.078
6.0,-6.0,0.079
5.0,-8.0,0.08
1.0,-12.0,0.081
-4.0,-12.0,0.082
-3.0,-8.0,0.083
0.0,-4.0,0.084
-2.0,-1.0,0.085
-5.0,0.0,0.086
-3.0,0.0,0.087
3.0,0.0,0.088
3.0,0.0,0.089
-1.0,5.0,0.09
0.0,5.0,0.091
6.0,-3.0,0.092
9.0,-29.0,0.093
6.0,-69.0,0.094
8.0,-106.0,0.095
15.0,-96.0,0.096
17.0,-34.0,0.097
5.0,49.0,0.098
-9.0,102.0,0.099
-17.0,105.0,0.1
-17.0,84.0,0.101
-11.0,69.0,0.102
-1.0,54.0,0.103
10.0,29.0,0.104
21.0,12.0,0.105
36.0,12.0,0.106
55.0,15.0,0.107
65.0,7.0,0.108
49.0,0.0,0.109
19.0,3.0,0.11
-2.0,2.0,0.111
-13.0,-11.0,0.112
-31.0,-26.0,0.113
-60.0,-37.0,0.114
-83.0,-60.0,0.115
-88.0,-124.0,0.116
-80.0,-212.0,0.117
-62.0,-282.0,0.118
-33.0,-261.0,0.119
-6.0,-135.0,0.12
3.0,28.0,0.121
3.0,148.0,0.122
14.0,196.0,0.123
31.0,202.0,0.124
36.0,189.0,0.125
27.0,150.0,0.126
21.0,87.0,0.127
23.0,31.0,0.128
21.0,-4.0,0.129
13.0,-25.0,0.13
10.0,-28.0,0.131
11.0,8.0,0.132
2.0,69.0,0.133
-13.0,109.0,0.134
-24.0,109.0,0.135
-20.0,91.0,0.136
-8.0,79.0,0.137
0.0,59.0,0.138
3.0,25.0,0.139
0.0,-8.0,0.14
-4.0,-31.0,0.141
-5.0,-43.0,0.142
0.0,-54.0,0.143
7.0,-58.0,0.144
1.0,-52.0,0.145
-12.0,-47.0,0.146
-15.0,-50.0,0.147
-2.0,-53.0,0.148
14.0,-48.0,0.149
22.0,-38.0,0.15
28.0,-32.0,0.151
33.0,-33.0,0.152
38.0,-37.0,0.153
39.0,-42.0,0.154
34.0,-54.0,0.155
28.0,-69.0,0.156
24.0,-80.0,0.157
25.0,-74.0,0.158
25.0,-45.0,0.159
18.0,-11.0,0.16
7.0,10.0,0.161
6.0,16.0,0.162
13.0,19.0,0.163
17.0,24.0,0.164
11.0,26.0,0.165
1.0,23.0,0.166
-1.0,19.0,0.167
-1.0,18.0,0.168
-4.0,21.0,0.169
-10.0,29.0,0.17
-14.0,37.0,0.171
-18.0,37.0,0.172
-18.0,33.0,0.173
-15.0,30.0,0.174
-8.0,28.0,0.175
-3.0,22.0,0.176
-1.0,11.0,0.177
-3.0,-1.0,0.178
-3.0,-6.0,0.179
-3.0,-8.0,0.18
0.0,-28.0,0.181
4.0,-58.0,0.182
11.0,-80.0,0.183
17.0,-69.0,0.184
18.0,-21.0,0.185
8.0,32.0,0.186
-8.0,60.0,0.187
-18.0,54.0,0.188
-14.0,41.0,0.189
-2.0,34.0,0.19
3.0,25.0,0.191
-4.0,7.0,0.192
-12.0,-7.0,0.193
-9.0,-7.0,0.194
-2.0,-6.0,0.195
-2.0,-10.0,0.196
-2.0,-13.0,0.197
0.0,-13.0,0.198
5.0,-12.0,0.199
7.0,-16.0,0.2
6.0,-21.0,0.201
8.0,-15.0,0.202
15.0,-9.0,0.203
16.0,-6.0,0.204
6.0,-5.0,0.205
-5.0,-1.0,0.206
-8.0,1.0,0.207
-4.0,-2.0,0.208
-1.0,-3.0,0.209
-1.0,0.0,0.21
-1.0,-1.0,0.211
0.0,-5.0,0.212
4.0,-4.0,0.213
9.0,2.0,0.214
11.0,6.0,0.215
13.0,1.0,0.216
12.0,1.0,0.217
10.0,2.0,0.218
9.0,2.0,0.219
4.0,-1.0,0.22
-1.0,-5.0,0.221
-2.0,-3.0,0.222
3.0,-1.0,0.223
5.0,-2.0,0.224
-2.0,1.0,0.225
-14.0,5.0,0.226
-21.0,5.0,0.227
-23.0,0.0,0.228
-19.0,-7.0,0.229
-10.0,-20.0,0.23
2.0,-50.0,0.231
9.0,-94.0,0.232
5.0,-139.0,0.233
2.0,-168.0,0.234
6.0,-164.0,0.235
14.0,-112.0,0.236
17.0,-20.0,0.237
13.0,85.0,0.238
8.0,159.0,0.239
5.0,181.0,0.24
3.0,171.0,0.241
4.0,160.0,0.242
7.0,154.0,0.243
10.0,143.0,0.244
9.0,132.0,0.245
3.0,118.0,0.246
-1.0,104.0,0.247
-6.0,85.0,0.248
-14.0,65.0,0.249
-22.0,44.0,0.25
-26.0,21.0,0.251
-26.0,-6.0,0.252
-22.0,-30.0,0.253
-18.0,-43.0,0.254
-10.0,-48.0,0.255
0.0,-53.0,0.256
8.0,-59.0,0.257
11.0,-66.0,0.258
12.0,-69.0,0.259
12.0,-69.0,0.26
10.0,-70.0,0.261
9.0,-65.0,0.262
11.0,-59.0,0.263
15.0,-56.0,0.264
18.0,-51.0,0.265
16.0,-43.0,0.266
12.0,-38.0,0.267
11.0,-37.0,0.268
12.0,-33.0,0.269
14.0,-24.0,0.27
12.0,-16.0,0.271
11.0,-17.0,0.272
10.0,-24.0,0.273
8.0,-30.0,0.274
9.0,-37.0,0.275
12.0,-56.0,0.276
18.0,-78.0,0.277
22.0,-92.0,0.278
22.0,-76.0,0.279
15.0,-33.0,0.28
3.0,13.0,0.281
-4.0,54.0,0.282
-1.0,78.0,0.283
8.0,91.0,0.284
11.0,92.0,0.285
6.0,86.0,0.286
-1.0,73.0,0.287
-5.0,58.0,0.288
-8.0,48.0,0.289
-12.0,42.0,0.29
-15.0,33.0,0.291
-17.0,18.0,0.292
-17.0,1.0,0.293
-15.0,-7.0,0.294
-14.0,-12.0,0.295
-15.0,-18.0,0.296
-12.0,-24.0,0.297
-6.0,-35.0,0.298
0.0,-58.0,0.299
2.0,-89.0,0.3
-2.0,-114.0,0.301
-3.0,-106.0,0.302
2.0,-59.0,0.303
14.0,4.0,0.304
16.0,63.0,0.305
9.0,102.0,0.306
2.0,117.0,0.307
2.0,109.0,0.308
8.0,86.0,0.309
10.0,59.0,0.31
11.0,36.0,0.311
13.0,18.0,0.312
7.0,6.0,0.313
-7.0,-1.0,0.314
-23.0,-7.0,0.315
-27.0,-15.0,0.316
-15.0,-24.0,0.317
0.0,-31.0,0.318
8.0,-32.0,0.319
12.0,-31.0,0.32
22.0,-32.0,0.321
36.0,-31.0,0.322
37.0,-31.0,0.323
19.0,-26.0,0.324
-5.0,-17.0,0.325
-11.0,-10.0,0.326
1.0,-7.0,0.327
13.0,-7.0,0.328
14.0,-9.0,0.329
10.0,-4.0,0.33
8.0,3.0,0.331
8.0,7.0,0.332
1.0,7.0,0.333
-3.0,6.0,0.334
0.0,7.0,0.335
8.0,5.0,0.336
12.0,1.0,0.337
9.0,-1.0,0.338
8.0,-1.0,0.339
6.0,-4.0,0.34
0.0,-10.0,0.341
-4.0,-10.0,0.342
-2.0,-4.0,0.343
3.0,1.0,0.344
0.0,2.0,0.345
-7.0,4.0,0.346
-9.0,7.0,0.347
-10.0,8.0,0.348
-11.0,8.0,0.349
-11.0,7.0,0.35
-5.0,6.0,0.351
3.0,6.0,0.352
9.0,6.0,0.353
12.0,5.0,0.354
16.0,2.0,0.355
17.0,-3.0,0.356
13.0,-4.0,0.357
6.0,-4.0,0.358
5.0,-8.0,0.359
4.0,-15.0,0.36
1.0,-22.0,0.361
-1.0,-17.0,0.362
3.0,-12.0,0.363
9.0,-11.0,0.364
8.0,-15.0,0.365
2.0,-13.0,0.366
-1.0,-11.0,0.367
0.0,-9.0,0.368
-1.0,1.0,0.369
-1.0,24.0,0.37
1.0,45.0,0.371
8.0,49.0,0.372
8.0,37.0,0.373
2.0,19.0,0.374
-5.0,-2.0,0.375
-8.0,-19.0,0.376
-9.0,-19.0,0.377
-10.0,-5.0,0.378
-10.0,12.0,0.379
-10.0,19.0,0.38
-9.0,12.0,0.381
-6.0,8.0,0.382
2.0,0.0,0.383
12.0,-22.0,0.384
14.0,-52.0,0.385
8.0,-62.0,0.386
0.0,-40.0,0.387
-2.0,-1.0,0.388
-2.0,34.0,0.389
-1.0,54.0,0.39
2.0,58.0,0.391
7.0,50.0,0.392
10.0,28.0,0.393
12.0,5.0,0.394
14.0,-4.0,0.395
17.0,5.0,0.396
17.0,12.0,0.397
12.0,-3.0,0.398
8.0,-49.0,0.399
8.0,-119.0,0.4
11.0,-188.0,0.401
17.0,-214.0,0.402
26.0,-174.0,0.403
38.0,-87.0,0.404
39.0,0.0,0.405
23.0,66.0,0.406
0.0,116.0,0.407
-17.0,153.0,0.408
-22.0,167.0,0.409
-22.0,165.0,0.41
-19.0,161.0,0.411
-12.0,158.0,0.412
-4.0,140.0,0.413
1.0,106.0,0.414
4.0,72.0,0.415
0.0,44.0,0.416
-13.0,20.0,0.417
-30.0,-7.0,0.418
-39.0,-24.0,0.419
-34.0,-34.0,0.42
-29.0,-52.0,0.421
-33.0,-79.0,0.422
-31.0,-106.0,0.423
-10.0,-122.0,0.424
16.0,-122.0,0.425
25.0,-113.0,0.426
20.0,-110.0,0.427
18.0,-124.0,0.428
22.0,-140.0,0.429
22.0,-130.0,0.43
16.0,-88.0,0.431
10.0,-31.0,0.432
12.0,26.0,0.433
15.0,76.0,0.434
16.0,111.0,0.435
18.0,133.0,0.436
21.0,154.0,0.437
18.0,171.0,0.438
9.0,162.0,0.439
-3.0,120.0,0.44
-12.0,67.0,0.441
-19.0,33.0,0.442
-24.0,10.0,0.443
-32.0,-15.0,0.444
-41.0,-33.0,0.445
-41.0,-29.0,0.446
-24.0,-18.0,0.447
1.0,-16.0,0.448
19.0,-19.0,0.449
26.0,-20.0,0.45
34.0,-26.0,0.451
39.0,-38.0,0.452
31.0,-39.0,0.453
11.0,-26.0,0.454
3.0,-19.0,0.455
16.0,-29.0,0.456
29.0,-37.0,0.457
26.0,-37.0,0.458
17.0,-44.0,0.459
16.0,-72.0,0.46
23.0,-108.0,0.461
24.0,-119.0,0.462
21.0,-104.0,0.463
18.0,-78.0,0.464
11.0,-47.0,0.465
1.0,-3.0,0.466
-4.0,55.0,0.467
-4.0,111.0,0.468
-4.0,139.0,0.469
-8.0,132.0,0.47
-10.0,99.0,0.471
-6.0,65.0,0.472
-4.0,39.0,0.473
-7.0,19.0,0.474
-10.0,1.0,0.475
-6.0,-8.0,0.476
2.0,-10.0,0.477
2.0,-13.0,0.478
-1.0,-19.0,0.479
-7.0,-25.0,0.48
-11.0,-29.0,0.481
-11.0,-30.0,0.482
-6.0,-40.0,0.483
0.0,-60.0,0.484
0.0,-77.0,0.485
-6.0,-76.0,0.486
-8.0,-56.0,0.487
0.0,-35.0,0.488
6.0,-14.0,0.489
5.0,15.0,0.49
3.0,52.0,0.491
6.0,79.0,0.492
10.0,84.0,0.493
9.0,73.0,0.494
11.0,58.0,0.495
17.0,42.0,0.496
24.0,25.0,0.497
21.0,6.0,0.498
12.0,-5.0,0.499
2.0,-13.0,0.5
-5.0,-28.0,0.501
-9.0,-51.0,0.502
-10.0,-86.0,0.503
-9.0,-119.0,0.504
-9.0,-122.0,0.505
-11.0,-75.0,0.506
-9.0,-1.0,0.507
-4.0,62.0,0.508
-3.0,103.0,0.509
-6.0,133.0,0.51
-6.0,151.0,0.511
-4.0,139.0,0.512
-4.0,98.0,0.513
-4.0,58.0,0.514
0.0,34.0,0.515
9.0,15.0,0.516
13.0,-3.0,0.517
7.0,-20.0,0.518
-3.0,-25.0,0.519
-12.0,-28.0,0.52
-16.0,-40.0,0.521
-13.0,-46.0,0.522
-3.0,-39.0,0.523
9.0,-25.0,0.524
11.0,-16.0,0.525
6.0,-19.0,0.526
3.0,-25.0,0.527
4.0,-27.0,0.528
7.0,-24.0,0.529
10.0,-20.0,0.53
14.0,-18.0,0.531
14.0,-17.0,0.532
10.0,-15.0,0.533
10.0,-12.0,0.534
16.0,-12.0,0.535
20.0,-13.0,0.536
18.0,-11.0,0.537
11.0,-10.0,0.538
14.0,-9.0,0.539
18.0,-9.0,0.54
15.0,-12.0,0.541
7.0,-13.0,0.542
4.0,-13.0,0.543
3.0,-10.0,0.544
-4.0,-4.0,0.545
-14.0,2.0,0.546
-14.0,4.0,0.547
-7.0,4.0,0.548
-5.0,5.0,0.549
-7.0,8.0,0.55
-5.0,9.0,0.551
-2.0,6.0,0.552
1.0,4.0,0.553
4.0,6.0,0.554
9.0,10.0,0.555
13.0,9.0,0.556
15.0,5.0,0.557
13.0,0.0,0.558
13.0,0.0,0.559
8.0,0.0,0.56
0.0,-5.0,0.561
-4.0,-8.0,0.562
0.0,-10.0,0.563
5.0,-15.0,0.564
2.0,-18.0,0.565
-2.0,-12.0,0.566
-2.0,3.0,0.567
-1.0,17.0,0.568
-3.0,24.0,0.569
-4.0,27.0,0.57
-1.0,28.0,0.571
4.0,26.0,0.572
5.0,17.0,0.573
2.0,10.0,0.574
2.0,7.0,0.575
5.0,1.0,0.576
7.0,-4.0,0.577
7.0,-7.0,0.578
6.0,-6.0,0.579
1.0,-7.0,0.58
-6.0,-16.0,0.581
-11.0,-17.0,0.582
-6.0,-12.0,0.583
4.0,-5.0,0.584
10.0,-2.0,0.585
5.0,0.0,0.586
-1.0,3.0,0.587
-3.0,2.0,0.588
-2.0,0.0,0.589
-2.0,1.0,0.59
-2.0,6.0,0.591
1.0,7.0,0.592
3.0,5.0,0.593
7.0,5.0,0.594
10.0,5.0,0.595
13.0,-1.0,0.596
14.0,-11.0,0.597
12.0,-24.0,0.598
11.0,-32.0,0.599
10.0,-32.0,0.6
4.0,-29.0,0.601
0.0,-24.0,0.602
3.0,-23.0,0.603
9.0,-34.0,0.604
6.0,-50.0,0.605
-3.0,-44.0,0.606
-8.0,-12.0,0.607
-6.0,35.0,0.608
-3.0,74.0,0.609
-4.0,97.0,0.61
-7.0,107.0,0.611
-6.0,103.0,0.612
-5.0,79.0,0.613
-6.0,43.0,0.614
-6.0,14.0,0.615
0.0,3.0,0.616
7.0,0.0,0.617
7.0,-8.0,0.618
4.0,-23.0,0.619
-1.0,-39.0,0.62
-4.0,-60.0,0.621
-7.0,-77.0,0.622
-6.0,-78.0,0.623
0.0,-54.0,0.624
5.0,-16.0,0.625
3.0,11.0,0.626
2.0,20.0,0.627
6.0,20.0,0.628
7.0,20.0,0.629
1.0,19.0,0.63
-2.0,13.0,0.631
1.0,9.0,0.632
11.0,10.0,0.633
14.0,12.0,0.634
12.0,8.0,0.635
9.0,-1.0,0.636
10.0,-5.0,0.637
10.0,-8.0,0.638
8.0,-11.0,0.639
2.0,-15.0,0.64
-3.0,-17.0,0.641
-3.0,-12.0,0.642
5.0,-9.0,0.643
12.0,-12.0,0.644
10.0,-14.0,0.645
3.0,-9.0,0.646
1.0,-5.0,0.647
3.0,-5.0,0.648
-1.0,-7.0,0.649
-5.0,-8.0,0.65
-3.0,-5.0,0.651
3.0,-2.0,0.652
5.0,2.0,0.653
3.0,6.0,0.654
7.0,8.0,0.655
14.0,6.0,0.656
17.0,6.0,0.657
15.0,5.0,0.658
11.0,3.0,0.659
7.0,-1.0,0.66
2.0,-7.0,0.661
0.0,-7.0,0.662
-1.0,-5.0,0.663
1.0,-1.0,0.664
4.0,4.0,0.665
1.0,7.0,0.666
-4.0,6.0,0.667
-8.0,2.0,0.668
-8.0,1.0,0.669
-6.0,4.0,0.67
-5.0,7.0,0.671
-2.0,5.0,0.672
1.0,3.0,0.673
6.0,0.0,0.674
5.0,-1.0,0.675
2.0,-4.0,0.676
4.0,-4.0,0.677
8.0,-3.0,0.678
11.0,-3.0,0.679
3.0,-5.0,0.68
-4.0,-10.0,0.681
-5.0,-9.0,0.682
1.0,-5.0,0.683
10.0,-2.0,0.684
8.0,2.0,0.685
1.0,8.0,0.686
-5.0,9.0,0.687
-7.0,7.0,0.688
-6.0,5.0,0.689
-5.0,4.0,0.69
-4.0,3.0,0.691
-1.0,0.0,0.692
3.0,1.0,0.693
6.0,6.0,0.694
4.0,8.0,0.695
5.0,2.0,0.696
9.0,-4.0,0.697
11.0,-8.0,0.698
8.0,-10.0,0.699
2.0,-11.0,0.7
1.0,-14.0,0.701
1.0,-11.0,0.702
2.0,-6.0,0.703
3.0,-5.0,0.704
5.0,-5.0,0.705
4.0,-2.0,0.706
0.0,0.0,0.707
-3.0,1.0,0.708
-6.0,2.0,0.709
-7.0,10.0,0.71
-5.0,13.0,0.711
-2.0,8.0,0.712
1.0,0.0,0.713
1.0,1.0,0.714
1.0,6.0,0.715
4.0,4.0,0.716
13.0,-2.0,0.717
17.0,-7.0,0.718
15.0,-5.0,0.719
10.0,-4.0,0.72
6.0,-9.0,0.721
4.0,-12.0,0.722
5.0,-8.0,0.723
4.0,0.0,0.724
2.0,6.0,0.725
-2.0,5.0,0.726
-4.0,1.0,0.727
-2.0,1.0,0.728
-2.0,4.0,0.729
-2.0,5.0,0.73
-3.0,2.0,0.731
-1.0,1.0,0.732
2.0,4.0,0.733
5.0,5.0,0.734
7.0,0.0,0.735
7.0,-5.0,0.736
8.0,-2.0,0.737
7.0,1.0,0.738
7.0,0.0,0.739
4.0,-6.0,0.74
-1.0,-12.0,0.741
-7.0,-11.0,0.742
-6.0,-7.0,0.743
1.0,-3.0,0.744
4.0,0.0,0.745
0.0,2.0,0.746
-6.0,3.0,0.747
-5.0,0.0,0.748
-1.0,0.0,0.749
0.0,5.0,0.75
-2.0,9.0,0.751
2.0,8.0,0.752
8.0,-1.0,0.753
10.0,-13.0,0.754
6.0,-22.0,0.755
5.0,-29.0,0.756
11.0,-37.0,0.757
16.0,-44.0,0.758
15.0,-44.0,0.759
10.0,-32.0,0.76
4.0,-14.0,0.761
2.0,-1.0,0.762
8.0,-3.0,0.763
14.0,-11.0,0.764
12.0,-6.0,0.765
3.0,10.0,0.766
-1.0,28.0,0.767
2.0,36.0,0.768
4.0,49.0,0.769
0.0,74.0,0.77
-2.0,95.0,0.771
0.0,93.0,0.772
-2.0,76.0,0.773
-10.0,64.0,0.774
-19.0,59.0,0.775
-18.0,40.0,0.776
-14.0,10.0,0.777
-13.0,-18.0,0.778
-14.0,-33.0,0.779
-14.0,-41.0,0.78
-12.0,-49.0,0.781
-10.0,-46.0,0.782
-5.0,-36.0,0.783
1.0,-30.0,0.784
3.0,-27.0,0.785
2.0,-18.0,0.786
6.0,-7.0,0.787
12.0,-2.0,0.788
11.0,-6.0,0.789
6.0,-8.0,0.79
5.0,-9.0,0.791
9.0,-16.0,0.792
11.0,-25.0,0.793
8.0,-26.0,0.794
6.0,-22.0,0.795
12.0,-19.0,0.796
18.0,-20.0,0.797
18.0,-23.0,0.798
15.0,-19.0,0.799
11.0,-15.0,0.8
8.0,-12.0,0.801
6.0,-9.0,0.802
9.0,-10.0,0.803
13.0,-17.0,0.804
13.0,-24.0,0.805
9.0,-17.0,0.806
4.0,1.0,0.807
1.0,18.0,0.808
-2.0,32.0,0.809
-6.0,43.0,0.81
-7.0,48.0,0.811
-2.0,43.0,0.812
1.0,32.0,0.813
3.0,24.0,0.814
3.0,21.0,0.815
5.0,16.0,0.816
8.0,8.0,0.817
7.0,-2.0,0.818
6.0,-8.0,0.819
5.0,-13.0,0.82
4.0,-23.0,0.821
4.0,-31.0,0.822
6.0,-36.0,0.823
10.0,-40.0,0.824
9.0,-39.0,0.825
2.0,-34.0,0.826
0.0,-29.0,0.827
5.0,-29.0,0.828
6.0,-24.0,0.829
-1.0,-7.0,0.83
-4.0,15.0,0.831
0.0,33.0,0.832
8.0,42.0,0.833
11.0,40.0,0.834
10.0,16.0,0.835
14.0,-38.0,0.836
20.0,-95.0,0.837
20.0,-127.0,0.838
17.0,-114.0,0.839
12.0,-74.0,0.84
5.0,-31.0,0.841
-1.0,21.0,0.842
-5.0,84.0,0.843
-4.0,135.0,0.844
-5.0,152.0,0.845
-10.0,141.0,0.846
-13.0,123.0,0.847
-15.0,109.0,0.848
-16.0,96.0,0.849
-20.0,87.0,0.85
-23.0,74.0,0.851
-25.0,52.0,0.852
-27.0,22.0,0.853
-28.0,0.0,0.854
-24.0,-7.0,0.855
-18.0,-13.0,0.856
-10.0,-24.0,0.857
-10.0,-39.0,0.858
-12.0,-48.0,0.859
-14.0,-55.0,0.86
-12.0,-66.0,0.861
-9.0,-69.0,0.862
-1.0,-61.0,0.863
6.0,-49.0,0.864
8.0,-40.0,0.865
11.0,-35.0,0.866
12.0,-33.0,0.867
12.0,-31.0,0.868
10.0,-27.0,0.869
9.0,-21.0,0.87
10.0,-14.0,0.871
12.0,-13.0,0.872
17.0,-17.0,0.873
22.0,-19.0,0.874
22.0,-18.0,0.875
22.0,-16.0,0.876
28.0,-14.0,0.877
31.0,-13.0,0.878
24.0,-16.0,0.879
12.0,-25.0,0.88
3.0,-34.0,0.881
2.0,-33.0,0.882
8.0,-18.0,0.883
14.0,2.0,0.884
14.0,23.0,0.885
8.0,34.0,0.886
2.0,35.0,0.887
2.0,32.0,0.888
3.0,31.0,0.889
0.0,31.0,0.89
-1.0,27.0,0.891
0.0,19.0,0.892
3.0,15.0,0.893
3.0,13.0,0.894
2.0,9.0,0.895
5.0,1.0,0.896
8.0,-2.0,0.897
9.0,-3.0,0.898
6.0,-3.0,0.899
-1.0,-6.0,0.9
-7.0,-11.0,0.901
-6.0,-10.0,0.902
0.0,-8.0,0.903
6.0,-5.0,0.904
1.0,-1.0,0.905
-8.0,1.0,0.906
-11.0,3.0,0.907
-9.0,2.0,0.908
-9.0,1.0,0.909
-13.0,2.0,0.91
-12.0,2.0,0.911
-6.0,4.0,0.912
-1.0,5.0,0.913
0.0,5.0,0.914
1.0,3.0,0.915
5.0,0.0,0.916
10.0,0.0,0.917
8.0,-1.0,0.918
6.0,-5.0,0.919
3.0,-6.0,0.92
0.0,-8.0,0.921
-2.0,-4.0,0.922
0.0,-1.0,0.923
6.0,-2.0,0.924
7.0,0.0,0.925
4.0,2.0,0.926
-1.0,4.0,0.927
-3.0,0.0,0.928
-1.0,0.0,0.929
0.0,4.0,0.93
1.0,7.0,0.931
0.0,5.0,0.932
0.0,1.0,0.933
1.0,1.0,0.934
4.0,1.0,0.935
6.0,-1.0,0.936
8.0,-2.0,0.937
10.0,-3.0,0.938
12.0,-5.0,0.939
7.0,-8.0,0.94
0.0,-11.0,0.941
-2.0,-9.0,0.942
1.0,-7.0,0.943
4.0,-5.0,0.944
-1.0,-1.0,0.945
-7.0,3.0,0.946
-7.0,2.0,0.947
-2.0,0.0,0.948
0.0,3.0,0.949
-3.0,9.0,0.95
-3.0,9.0,0.951
0.0,4.0,0.952
2.0,0.0,0.953
4.0,1.0,0.954
8.0,3.0,0.955
13.0,2.0,0.956
14.0,0.0,0.957
9.0,-2.0,0.958
5.0,-4.0,0.959
5.0,-8.0,0.96
6.0,-9.0,0.961
5.0,-8.0,0.962
7.0,-5.0,0.963
9.0,-3.0,0.964
4.0,1.0,0.965
-3.0,4.0,0.966
-4.0,3.0,0.967
0.0,0.0,0.968
1.0,-2.0,0.969
-3.0,0.0,0.97
-5.0,0.0,0.971
0.0,1.0,0.972
5.0,4.0,0.973
7.0,5.0,0.974
5.0,3.0,0.975
9.0,0.0,0.976
13.0,1.0,0.977
13.0,-2.0,0.978
11.0,-4.0,0.979
4.0,-8.0,0.98
-2.0,-10.0,0.981
-7.0,-7.0,0.982
-2.0,-4.0,0.983
6.0,-2.0,0.984
5.0,0.0,0.985
-4.0,2.0,0.986
-14.0,2.0,0.987
-15.0,1.0,0.988
-12.0,1.0,0.989
-12.0,5.0,0.99
-9.0,7.0,0.991
-5.0,8.0,0.992
-3.0,5.0,0.993
-2.0,3.0,0.994
2.0,1.0,0.995
11.0,0.0,0.996
17.0,0.0,0.997
19.0,-3.0,0.998
17.0,-6.0,0.999
10.0,-6.0,1.0
2.0,-10.0,1.001
-3.0,-9.0,1.002
2.0,-6.0,1.003
9.0,-3.0,1.004
9.0,1.0,1.005
1.0,4.0,1.006
-3.0,1.0,1.007
-2.0,-4.0,1.008
-4.0,-4.0,1.009
-7.0,1.0,1.01
-4.0,6.0,1.011
2.0,5.0,1.012
4.0,2.0,1.013
3.0,3.0,1.014
8.0,6.0,1.015
16.0,3.0,1.016
18.0,0.0,1.017
12.0,-3.0,1.018
8.0,-3.0,1.019
6.0,-5.0,1.02
2.0,-10.0,1.021
-1.0,-14.0,1.022
2.0,-8.0,1.023
9.0,-4.0,1.024
7.0,-4.0,1.025
-2.0,-2.0,1.026
-9.0,0.0,1.027
-7.0,3.0,1.028
-3.0,4.0,1.029
0.0,5.0,1.03
1.0,5.0,1.031
1.0,6.0,1.032
0.0,7.0,1.033
1.0,8.0,1.034
3.0,6.0,1.035
7.0,4.0,1.036
11.0,0.0,1.037
13.0,-2.0,1.038
12.0,-2.0,1.039
5.0,-4.0,1.04
-2.0,-12.0,1.041
-4.0,-14.0,1.042
-1.0,-9.0,1.043
4.0,0.0,1.044
4.0,1.0,1.045
-1.0,0.0,1.046
-8.0,0.0,1.047
-9.0,0.0,1.048
-5.0,2.0,1.049
-6.0,4.0,1.05
-6.0,6.0,1.051
-4.0,5.0,1.052
3.0,0.0,1.053
5.0,-3.0,1.054
3.0,-3.0,1.055
1.0,-1.0,1.056
5.0,3.0,1.057
12.0,0.0,1.058
13.0,-1.0,1.059
8.0,-4.0,1.06
4.0,-8.0,1.061
2.0,-9.0,1.062
4.0,-7.0,1.063
2.0,-3.0,1.064
-4.0,0.0,1.065
-9.0,3.0,1.066
-8.0,4.0,1.067
-3.0,3.0,1.068
-1.0,2.0,1.069
-4.0,3.0,1.07
-4.0,5.0,1.071
0.0,3.0,1.072
4.0,2.0,1.073
5.0,2.0,1.074
8.0,3.0,1.075
13.0,2.0,1.076
15.0,-1.0,1.077
13.0,-6.0,1.078
11.0,-10.0,1.079
8.0,-10.0,1.08
2.0,-11.0,1.081
-2.0,-8.0,1.082
0.0,-5.0,1.083
7.0,-2.0,1.084
6.0,0.0,1.085
-1.0,0.0,1.086
-5.0,0.0,1.087
-4.0,0.0,1.088
-4.0,4.0,1.089
-6.0,9.0,1.09
-7.0,8.0,1.091
-4.0,3.0,1.092
1.0,1.0,1.093
4.0,3.0,1.094
6.0,3.0,1.095
8.0,-1.0,1.096
10.0,-5.0,1.097
11.0,-7.0,1.098
11.0,-6.0,1.099
8.0,-6.0,1.1
3.0,-9.0,1.101
2.0,-10.0,1.102
9.0,-7.0,1.103
15.0,-3.0,1.104
12.0,3.0,1.105
2.0,7.0,1.106
-3.0,5.0,1.107
-3.0,1.0,1.108
-2.0,1.0,1.109
-2.0,4.0,1.11
-1.0,4.0,1.111
-1.0,0.0,1.112
-3.0,-2.0,1.113
-1.0,0.0,1.114
8.0,2.0,1.115
18.0,0.0,1.116
19.0,0.0,1.117
10.0,-3.0,1.118
2.0,-3.0,1.119
-1.0,-4.0,1.12
-3.0,-9.0,1.121
-4.0,-10.0,1.122
-3.0,-8.0,1.123
2.0,-2.0,1.124
3.0,4.0,1.125
-2.0,2.0,1.126
-8.0,0.0,1.127
-9.0,-1.0,1.128
-4.0,2.0,1.129
1.0,3.0,1.13
2.0,4.0,1.131
-2.0,5.0,1.132
-5.0,5.0,1.133
-4.0,5.0,1.134
5.0,2.0,1.135
14.0,0.0,1.136
17.0,-1.0,1.137
15.0,-2.0,1.138
13.0,-4.0,1.139
8.0,-6.0,1.14
0.0,-10.0,1.141
-4.0,-9.0,1.142
-3.0,-7.0,1.143
3.0,-3.0,1.144
2.0,1.0,1.145
-4.0,3.0,1.146
-9.0,2.0,1.147
-8.0,2.0,1.148
-5.0,6.0,1.149
-4.0,11.0,1.15
-3.0,11.0,1.151
1.0,5.0,1.152
4.0,1.0,1.153
7.0,3.0,1.154
9.0,4.0,1.155
11.0,0.0,1.156
13.0,-7.0,1.157
12.0,-10.0,1.158
11.0,-9.0,1.159
8.0,-8.0,1.16
4.0,-10.0,1.161
3.0,-10.0,1.162
4.0,-8.0,1.163
5.0,-5.0,1.164
1.0,1.0,1.165
-4.0,7.0,1.166
-8.0,7.0,1.167
-5.0,3.0,1.168
-3.0,0.0,1.169
-4.0,0.0,1.17
-3.0,1.0,1.171
0.0,1.0,1.172
3.0,1.0,1.173
4.0,3.0,1.174
7.0,3.0,1.175
12.0,0.0,1.176
15.0,-1.0,1.177
14.0,-1.0,1.178
14.0,1.0,1.179
11.0,-2.0,1.18
5.0,-9.0,1.181
0.0,-13.0,1.182
2.0,-9.0,1.183
7.0,-2.0,1.184
8.0,2.0,1.185
1.0,4.0,1.186
-2.0,5.0,1.187
-3.0,3.0,1.188
-3.0,5.0,1.189
-5.0,9.0,1.19
-4.0,9.0,1.191
0.0,4.0,1.192
2.0,0.0,1.193
0.0,-1.0,1.194
0.0,0.0,1.195
4.0,0.0,1.196
7.0,1.0,1.197
6.0,0.0,1.198
6.0,-3.0,1.199
4.0,-6.0,1.2
2.0,-9.0,1.201
1.0,-11.0,1.202
2.0,-9.0,1.203
2.0,-7.0,1.204
0.0,-5.0,1.205
-3.0,-3.0,1.206
-5.0,1.0,1.207
-8.0,4.0,1.208
-9.0,4.0,1.209
-9.0,4.0,1.21
-7.0,5.0,1.211
-5.0,7.0,1.212
0.0,7.0,1.213
4.0,5.0,1.214
4.0,2.0,1.215
6.0,0.0,1.216
12.0,0.0,1.217
18.0,-1.0,1.218
19.0,-6.0,1.219
10.0,-8.0,1.22
-1.0,-10.0,1.221
-6.0,-9.0,1.222
1.0,-10.0,1.223
10.0,-9.0,1.224
7.0,-2.0,1.225
-2.0,4.0,1.226
-7.0,2.0,1.227
-4.0,-1.0,1.228
-1.0,0.0,1.229
-1.0,5.0,1.23
-1.0,6.0,1.231
1.0,0.0,1.232
2.0,-1.0,1.233
2.0,1.0,1.234
4.0,1.0,1.235
7.0,-1.0,1.236
7.0,0.0,1.237
4.0,-1.0,1.238
4.0,-5.0,1.239
6.0,-10.0,1.24
4.0,-13.0,1.241
-1.0,-11.0,1.242
0.0,-6.0,1.243
6.0,-3.0,1.244
5.0,2.0,1.245
-2.0,7.0,1.246
-4.0,5.0,1.247
-2.0,0.0,1.248
0.0,1.0,1.249
-3.0,6.0,1.25
-3.0,8.0,1.251
3.0,6.0,1.252
10.0,4.0,1.253
9.0,5.0,1.254
5.0,4.0,1.255
6.0,2.0,1.256
12.0,2.0,1.257
14.0,-1.0,1.258
10.0,-5.0,1.259
2.0,-8.0,1.26
-1.0,-8.0,1.261
0.0,-6.0,1.262
5.0,-7.0,1.263
6.0,-10.0,1.264
4.0,-6.0,1.265
0.0,4.0,1.266
-2.0,9.0,1.267
-3.0,6.0,1.268
-6.0,3.0,1.269
-8.0,4.0,1.27
-6.0,5.0,1.271
-1.0,3.0,1.272
1.0,1.0,1.273
3.0,2.0,1.274
6.0,2.0,1.275
13.0,-1.0,1.276
16.0,-2.0,1.277
13.0,-5.0,1.278
7.0,-5.0,1.279
2.0,-9.0,1.28
0.0,-11.0,1.281
-2.0,-9.0,1.282
0.0,-5.0,1.283
3.0,-4.0,1.284
1.0,-4.0,1.285
-1.0,0.0,1.286
-5.0,4.0,1.287
-8.0,3.0,1.288
-6.0,0.0,1.289
-4.0,3.0,1.29
0.0,8.0,1.291
3.0,6.0,1.292
3.0,0.0,1.293
2.0,-2.0,1.294
3.0,0.0,1.295
5.0,0.0,1.296
8.0,-1.0,1.297
9.0,-4.0,1.298
7.0,-4.0,1.299
4.0,-4.0,1.3
1.0,-10.0,1.301
-4.0,-16.0,1.302
-4.0,-15.0,1.303
1.0,-6.0,1.304
3.0,5.0,1.305
-3.0,9.0,1.306
-10.0,6.0,1.307
-7.0,2.0,1.308
0.0,3.0,1.309
0.0,8.0,1.31
-2.0,9.0,1.311
-1.0,7.0,1.312
1.0,5.0,1.313
3.0,5.0,1.314
8.0,3.0,1.315
14.0,-2.0,1.316
16.0,-4.0,1.317
13.0,-7.0,1.318
10.0,-9.0,1.319
9.0,-9.0,1.32
6.0,-11.0,1.321
2.0,-9.0,1.322
4.0,-5.0,1.323
6.0,-2.0,1.324
4.0,0.0,1.325
-2.0,4.0,1.326
-4.0,6.0,1.327
-2.0,6.0,1.328
-2.0,6.0,1.329
-6.0,8.0,1.33
-7.0,7.0,1.331
-1.0,5.0,1.332
4.0,4.0,1.333
6.0,4.0,1.334
7.0,2.0,1.335
9.0,0.0,1.336
10.0,0.0,1.337
7.0,0.0,1.338
7.0,-2.0,1.339
6.0,-5.0,1.34
2.0,-10.0,1.341
-2.0,-11.0,1.342
-1.0,-5.0,1.343
4.0,0.0,1.344
4.0,3.0,1.345
-3.0,5.0,1.346
-9.0,4.0,1.347
-8.0,2.0,1.348
-5.0,1.0,1.349
-4.0,2.0,1.35
-3.0,3.0,1.351
-1.0,4.0,1.352
1.0,3.0,1.353
3.0,1.0,1.354
8.0,0.0,1.355
13.0,-2.0,1.356
14.0,-4.0,1.357
12.0,-7.0,1.358
12.0,-8.0,1.359
6.0,-9.0,1.36
0.0,-10.0,1.361
-5.0,-8.0,1.362
0.0,-7.0,1.363
6.0,-6.0,1.364
5.0,-3.0,1.365
-3.0,2.0,1.366
-5.0,6.0,1.367
-1.0,5.0,1.368
-1.0,4.0,1.369
-7.0,5.0,1.37
-10.0,7.0,1.371
-4.0,5.0,1.372
1.0,1.0,1.373
0.0,0.0,1.374
0.0,1.0,1.375
7.0,0.0,1.376
17.0,-1.0,1.377
20.0,-6.0,1.378
19.0,-9.0,1.379
15.0,-10.0,1.38
8.0,-13.0,1.381
2.0,-10.0,1.382
4.0,-8.0,1.383
9.0,-5.0,1.384
9.0,0.0,1.385
0.0,4.0,1.386
-6.0,3.0,1.387
-6.0,1.0,1.388
-5.0,2.0,1.389
-6.0,4.0,1.39
-8.0,4.0,1.391
-7.0,1.0,1.392
-4.0,0.0,1.393
0.0,2.0,1.394
6.0,2.0,1.395
10.0,-1.0,1.396
11.0,-3.0,1.397
6.0,-4.0,1.398
6.0,-4.0,1.399
6.0,-6.0,1.4
3.0,-10.0,1.401
0.0,-9.0,1.402
2.0,-4.0,1.403
6.0,2.0,1.404
5.0,2.0,1.405
-1.0,2.0,1.406
-7.0,2.0,1.407
-6.0,4.0,1.408
-3.0,6.0,1.409
-4.0,7.0,1.41
-5.0,8.0,1.411
-3.0,6.0,1.412
0.0,5.0,1.413
4.0,3.0,1.414
6.0,1.0,1.415
10.0,0.0,1.416
16.0,2.0,1.417
19.0,0.0,1.418
16.0,-2.0,1.419
7.0,-6.0,1.42
-1.0,-10.0,1.421
-4.0,-9.0,1.422
-3.0,-6.0,1.423
-1.0,-3.0,1.424
-3.0,0.0,1.425
-5.0,4.0,1.426
-6.0,4.0,1.427
-6.0,1.0,1.428
-4.0,1.0,1.429
-2.0,5.0,1.43
5.0,8.0,1.431
8.0,5.0,1.432
3.0,-2.0,1.433
-4.0,-4.0,1.434
-5.0,-4.0,1.435
1.0,-4.0,1.436
8.0,-3.0,1.437
13.0,-3.0,1.438
18.0,-3.0,1.439
17.0,-6.0,1.44
8.0,-13.0,1.441
-3.0,-12.0,1.442
-3.0,-9.0,1.443
2.0,-5.0,1.444
4.0,-1.0,1.445
-3.0,1.0,1.446
-11.0,3.0,1.447
-8.0,4.0,1.448
-3.0,5.0,1.449
-4.0,7.0,1.45
-5.0,7.0,1.451
-4.0,5.0,1.452
1.0,3.0,1.453
5.0,3.0,1.454
7.0,1.0,1.455
10.0,-3.0,1.456
15.0,-2.0,1.457
14.0,-3.0,1.458
11.0,-5.0,1.459
7.0,-8.0,1.46
3.0,-10.0,1.461
2.0,-8.0,1.462
5.0,-4.0,1.463
8.0,-4.0,1.464
6.0,0.0,1.465
-2.0,7.0,1.466
-9.0,8.0,1.467
-10.0,4.0,1.468
-6.0,1.0,1.469
-4.0,5.0,1.47
-3.0,8.0,1.471
-1.0,6.0,1.472
3.0,2.0,1.473
8.0,2.0,1.474
11.0,3.0,1.475
12.0,4.0,1.476
13.0,1.0,1.477
15.0,-5.0,1.478
16.0,-9.0,1.479
12.0,-11.0,1.48
2.0,-13.0,1.481
-4.0,-12.0,1.482
-2.0,-7.0,1.483
3.0,-2.0,1.484
1.0,4.0,1.485
-5.0,4.0,1.486
-6.0,0.0,1.487
-2.0,-3.0,1.488
-1.0,-1.0,1.489
-4.0,4.0,1.49
-5.0,6.0,1.491
-4.0,3.0,1.492
0.0,0.0,1.493
2.0,1.0,1.494
5.0,5.0,1.495
8.0,4.0,1.496
8.0,2.0,1.497
6.0,-1.0,1.498
4.0,-2.0,1.499
0.0,-3.0,1.5
-4.0,-7.0,1.501
-2.0,-9.0,1.502
8.0,-7.0,1.503
17.0,-4.0,1.504
15.0,-3.0,1.505
0.0,-1.0,1.506
-14.0,0.0,1.507
-18.0,0.0,1.508
-13.0,1.0,1.509
-5.0,3.0,1.51
0.0,4.0,1.511
2.0,3.0,1.512
2.0,2.0,1.513
2.0,3.0,1.514
1.0,6.0,1.515
2.0,7.0,1.516
6.0,6.0,1.517
11.0,2.0,1.518
13.0,-1.0,1.519
8.0,-5.0,1.52
1.0,-12.0,1.521
0.0,-13.0,1.522
7.0,-10.0,1.523
15.0,-4.0,1.524
15.0,-1.0,1.525
8.0,-2.0,1.526
0.0,-1.0,1.527
-3.0,1.0,1.528
-3.0,2.0,1.529
-3.0,4.0,1.53
0.0,4.0,1.531
3.0,1.0,1.532
4.0,-4.0,1.533
6.0,-7.0,1.534
9.0,-6.0,1.535
11.0,-3.0,1.536
12.0,-3.0,1.537
9.0,-5.0,1.538
8.0,-8.0,1.539
6.0,-8.0,1.54
0.0,-10.0,1.541
-4.0,-11.0,1.542
-1.0,-9.0,1.543
5.0,-4.0,1.544
4.0,2.0,1.545
-2.0,6.0,1.546
-5.0,5.0,1.547
-5.0,2.0,1.548
-5.0,2.0,1.549
-7.0,5.0,1.55
-5.0,6.0,1.551
0.0,6.0,1.552
6.0,6.0,1.553
7.0,5.0,1.554
6.0,2.0,1.555
5.0,-2.0,1.556
10.0,-3.0,1.557
14.0,-3.0,1.558
16.0,-7.0,1.559
8.0,-12.0,1.56
-1.0,-14.0,1.561
-4.0,-10.0,1.562
0.0,-6.0,1.563
4.0,-6.0,1.564
0.0,-3.0,1.565
-9.0,4.0,1.566
-12.0,8.0,1.567
-8.0,4.0,1.568
-5.0,1.0,1.569
-7.0,5.0,1.57
-8.0,9.0,1.571
-3.0,8.0,1.572
1.0,4.0,1.573
2.0,2.0,1.574
3.0,3.0,1.575
5.0,3.0,1.576
7.0,1.0,1.577
11.0,-4.0,1.578
12.0,-5.0,1.579
9.0,-6.0,1.58
4.0,-7.0,1.581
0.0,-6.0,1.582
4.0,-5.0,1.583
11.0,-2.0,1.584
9.0,1.0,1.585
-1.0,5.0,1.586
-7.0,4.0,1.587
-4.0,2.0,1.588
-1.0,2.0,1.589
-3.0,4.0,1.59
-6.0,6.0,1.591
-3.0,5.0,1.592
3.0,2.0,1.593
3.0,-1.0,1.594
2.0,-2.0,1.595
6.0,-2.0,1.596
11.0,-1.0,1.597
10.0,-2.0,1.598
8.0,-2.0,1.599
4.0,-4.0,1.6
1.0,-9.0,1.601
0.0,-9.0,1.602
3.0,-7.0,1.603
9.0,-5.0,1.604
7.0,-2.0,1.605
0.0,0.0,1.606
-4.0,0.0,1.607
-1.0,0.0,1.608
-1.0,0.0,1.609
-7.0,3.0,1.61
-6.0,5.0,1.611
-1.0,4.0,1.612
0.0,4.0,1.613
0.0,5.0,1.614
1.0,7.0,1.615
7.0,3.0,1.616
11.0,-2.0,1.617
9.0,-6.0,1.618
8.0,-9.0,1.619
8.0,-9.0,1.62
2.0,-13.0,1.621
-4.0,-12.0,1.622
-1.0,-8.0,1.623
5.0,-3.0,1.624
4.0,2.0,1.625
-5.0,3.0,1.626
-8.0,2.0,1.627
-4.0,1.0,1.628
-2.0,3.0,1.629
-4.0,7.0,1.63
-2.0,9.0,1.631
4.0,6.0,1.632
8.0,4.0,1.633
7.0,5.0,1.634
7.0,6.0,1.635
10.0,1.0,1.636
12.0,-1.0,1.637
13.0,-2.0,1.638
13.0,-4.0,1.639
10.0,-9.0,1.64
1.0,-14.0,1.641
-5.0,-11.0,1.642
-4.0,-5.0,1.643
0.0,0.0,1.644
0.0,2.0,1.645
-4.0,4.0,1.646
-3.0,3.0,1.647
5.0,3.0,1.648
8.0,4.0,1.649
6.0,5.0,1.65
3.0,3.0,1.651
4.0,0.0,1.652
3.0,-1.0,1.653
-1.0,0.0,1.654
-2.0,2.0,1.655
3.0,2.0,1.656
11.0,1.0,1.657
16.0,-3.0,1.658
14.0,-7.0,1.659
5.0,-8.0,1.66
-3.0,-11.0,1.661
-6.0,-9.0,1.662
0.0,-5.0,1.663
9.0,1.0,1.664
8.0,4.0,1.665
0.0,2.0,1.666
-5.0,1.0,1.667
-5.0,4.0,1.668
-5.0,7.0,1.669
-5.0,8.0,1.67
-3.0,8.0,1.671
0.0,7.0,1.672
2.0,5.0,1.673
2.0,0.0,1.674
5.0,-3.0,1.675
7.0,-3.0,1.676
9.0,-1.0,1.677
8.0,-3.0,1.678
11.0,-6.0,1.679
11.0,-6.0,1.68
3.0,-9.0,1.681
-4.0,-9.0,1.682
-1.0,-8.0,1.683
8.0,-5.0,1.684
11.0,-2.0,1.685
2.0,-1.0,1.686
-8.0,0.0,1.687
-11.0,1.0,1.688
-13.0,3.0,1.689
-15.0,7.0,1.69
-11.0,10.0,1.691
-1.0,9.0,1.692
5.0,7.0,1.693
5.0,5.0,1.694
6.0,3.0,1.695
10.0,0.0,1.696
16.0,-3.0,1.697
13.0,-7.0,1.698
11.0,-8.0,1.699
11.0,-8.0,1.7
9.0,-9.0,1.701
5.0,-7.0,1.702
2.0,-5.0,1.703
3.0,-4.0,1.704
4.0,-2.0,1.705
0.0,0.0,1.706
-3.0,0.0,1.707
-4.0,0.0,1.708
-5.0,1.0,1.709
-8.0,5.0,1.71
-6.0,8.0,1.711
1.0,6.0,1.712
6.0,2.0,1.713
6.0,0.0,1.714
4.0,1.0,1.715
7.0,0.0,1.716
10.0,0.0,1.717
9.0,-2.0,1.718
4.0,-3.0,1.719
0.0,-6.0,1.72
-2.0,-9.0,1.721
-1.0,-8.0,1.722
4.0,-5.0,1.723
12.0,-3.0,1.724
12.0,-2.0,1.725
2.0,2.0,1.726
-8.0,4.0,1.727
-10.0,5.0,1.728
-7.0,3.0,1.729
-5.0,4.0,1.73
-5.0,4.0,1.731
0.0,5.0,1.732
5.0,3.0,1.733
7.0,1.0,1.734
2.0,-1.0,1.735
3.0,-2.0,1.736
9.0,0.0,1.737
12.0,-1.0,1.738
9.0,-4.0,1.739
6.0,-10.0,1.74
1.0,-14.0,1.741
-3.0,-10.0,1.742
-3.0,-4.0,1.743
-2.0,0.0,1.744
0.0,2.0,1.745
0.0,5.0,1.746
-1.0,8.0,1.747
-4.0,8.0,1.748
-4.0,6.0,1.749
-3.0,5.0,1.75
-1.0,4.0,1.751
1.0,2.0,1.752
7.0,2.0,1.753
13.0,2.0,1.754
11.0,1.0,1.755
10.0,-3.0,1.756
13.0,-2.0,1.757
15.0,-3.0,1.758
11.0,-6.0,1.759
6.0,-10.0,1.76
2.0,-15.0,1.761
-1.0,-9.0,1.762
-1.0,-5.0,1.763
1.0,-3.0,1.764
1.0,-2.0,1.765
-5.0,1.0,1.766
-9.0,4.0,1.767
-6.0,1.0,1.768
-1.0,0.0,1.769
-1.0,3.0,1.77
-5.0,7.0,1.771
-5.0,6.0,1.772
1.0,4.0,1.773
5.0,4.0,1.774
5.0,4.0,1.775
4.0,0.0,1.776
8.0,-5.0,1.777
13.0,-6.0,1.778
16.0,-4.0,1.779
13.0,-3.0,1.78
5.0,-8.0,1.781
1.0,-10.0,1.782
4.0,-7.0,1.783
8.0,-3.0,1.784
5.0,-1.0,1.785
-2.0,0.0,1.786
-6.0,0.0,1.787
-4.0,2.0,1.788
-2.0,3.0,1.789
-5.0,6.0,1.79
-5.0,7.0,1.791
-2.0,5.0,1.792
3.0,2.0,1.793
4.0,1.0,1.794
5.0,1.0,1.795
8.0,2.0,1.796
13.0,2.0,1.797
14.0,-1.0,1.798
9.0,-5.0,1.799
0.0,-6.0,1.8
-4.0,-7.0,1.801
-3.0,-7.0,1.802
2.0,-6.0,1.803
5.0,-4.0,1.804
0.0,-1.0,1.805
-6.0,4.0,1.806
-9.0,6.0,1.807
-5.0,4.0,1.808
-4.0,5.0,1.809
-2.0,7.0,1.81
5.0,6.0,1.811
17.0,0.0,1.812
18.0,-4.0,1.813
7.0,-3.0,1.814
-4.0,0.0,1.815
-4.0,0.0,1.816
4.0,0.0,1.817
10.0,0.0,1.818
9.0,1.0,1.819
3.0,-2.0,1.82
0.0,-10.0,1.821
-2.0,-14.0,1.822
0.0,-11.0,1.823
1.0,-5.0,1.824
1.0,-2.0,1.825
-4.0,0.0,1.826
-9.0,2.0,1.827
-9.0,5.0,1.828
-5.0,7.0,1.829
-1.0,7.0,1.83
1.0,7.0,1.831
0.0,6.0,1.832
-1.0,6.0,1.833
0.0,4.0,1.834
8.0,1.0,1.835
15.0,-1.0,1.836
19.0,-1.0,1.837
16.0,-1.0,1.838
10.0,-4.0,1.839
5.0,-5.0,1.84
1.0,-8.0,1.841
-1.0,-5.0,1.842
1.0,-3.0,1.843
6.0,-2.0,1.844
5.0,-3.0,1.845
-3.0,-3.0,1.846
-9.0,-2.0,1.847
-13.0,-1.0,1.848
-14.0,2.0,1.849
-13.0,4.0,1.85
-6.0,3.0,1.851
2.0,-2.0,1.852
8.0,-4.0,1.853
9.0,-2.0,1.854
11.0,0.0,1.855
13.0,-2.0,1.856
17.0,-2.0,1.857
19.0,-3.0,1.858
18.0,-7.0,1.859
10.0,-11.0,1.86
2.0,-16.0,1.861
0.0,-12.0,1.862
2.0,-4.0,1.863
3.0,1.0,1.864
-2.0,4.0,1.865
-10.0,3.0,1.866
-12.0,1.0,1.867
-10.0,2.0,1.868
-5.0,7.0,1.869
-4.0,11.0,1.87
-2.0,11.0,1.871
0.0,9.0,1.872
1.0,7.0,1.873
3.0,5.0,1.874
8.0,2.0,1.875
13.0,-1.0,1.876
15.0,0.0,1.877
11.0,-2.0,1.878
6.0,-2.0,1.879
1.0,-2.0,1.88
-2.0,-6.0,1.881
-4.0,-9.0,1.882
0.0,-7.0,1.883
3.0,-4.0,1.884
-1.0,-1.0,1.885
-4.0,1.0,1.886
-5.0,0.0,1.887
-5.0,-1.0,1.888
-3.0,0.0,1.889
-2.0,3.0,1.89
-1.0,3.0,1.891
0.0,4.0,1.892
3.0,4.0,1.893
6.0,4.0,1.894
9.0,0.0,1.895
12.0,-3.0,1.896
12.0,-3.0,1.897
13.0,-2.0,1.898
10.0,-5.0,1.899
5.0,-9.0,1.9
3.0,-10.0,1.901
2.0,-7.0,1.902
5.0,-4.0,1.903
9.0,0.0,1.904
8.0,3.0,1.905
4.0,2.0,1.906
-1.0,1.0,1.907
-3.0,1.0,1.908
-4.0,3.0,1.909
-6.0,4.0,1.91
-7.0,4.0,1.911
0.0,5.0,1.912
5.0,5.0,1.913
6.0,4.0,1.914
3.0,0.0,1.915
6.0,-2.0,1.916
12.0,-3.0,1.917
12.0,-5.0,1.918
9.0,-7.0,1.919
3.0,-8.0,1.92
0.0,-11.0,1.921
0.0,-9.0,1.922
2.0,-7.0,1.923
4.0,-5.0,1.924
0.0,-2.0,1.925
-4.0,2.0,1.926
-6.0,5.0,1.927
-5.0,3.0,1.928
-4.0,2.0,1.929
-7.0,4.0,1.93
-6.0,7.0,1.931
-2.0,5.0,1.932
-1.0,5.0,1.933
0.0,5.0,1.934
3.0,2.0,1.935
8.0,-2.0,1.936
11.0,-4.0,1.937
9.0,-3.0,1.938
9.0,-2.0,1.939
10.0,-7.0,1.94
5.0,-14.0,1.941
1.0,-11.0,1.942
2.0,-4.0,1.943
5.0,-2.0,1.944
3.0,-5.0,1.945
-4.0,-2.0,1.946
-8.0,3.0,1.947
-6.0,6.0,1.948
-4.0,2.0,1.949
-6.0,1.0,1.95
-4.0,3.0,1.951
0.0,4.0,1.952
0.0,2.0,1.953
0.0,2.0,1.954
4.0,5.0,1.955
9.0,5.0,1.956
13.0,0.0,1.957
12.0,-5.0,1.958
11.0,-4.0,1.959
8.0,-3.0,1.96
3.0,-8.0,1.961
-1.0,-14.0,1.962
2.0,-13.0,1.963
9.0,-5.0,1.964
6.0,3.0,1.965
-2.0,7.0,1.966
-5.0,5.0,1.967
-4.0,1.0,1.968
-4.0,0.0,1.969
-8.0,2.0,1.97
-7.0,6.0,1.971
-2.0,7.0,1.972
3.0,3.0,1.973
5.0,0.0,1.974
5.0,0.0,1.975
9.0,0.0,1.976
13.0,0.0,1.977
14.0,-2.0,1.978
14.0,-3.0,1.979
9.0,-2.0,1.98
3.0,-4.0,1.981
-2.0,-6.0,1.982
0.0,-8.0,1.983
7.0,-6.0,1.984
8.0,0.0,1.985
1.0,7.0,1.986
-4.0,6.0,1.987
-5.0,0.0,1.988
-2.0,-4.0,1.989
-2.0,0.0,1.99
-3.0,6.0,1.991
-2.0,5.0,1.992
2.0,1.0,1.993
5.0,0.0,1.994
8.0,2.0,1.995
12.0,1.0,1.996
15.0,-2.0,1.997
13.0,-4.0,1.998
9.0,-5.0,1.999
3.0,-6.0,2.0
-2.0,-11.0,2.001
-5.0,-12.0,2.002
-5.0,-9.0,2.003
-1.0,-6.0,2.004
1.0,-2.0,2.005
-3.0,0.0,2.006
-7.0,2.0,2.007
-7.0,1.0,2.008
-4.0,0.0,2.009
-3.0,3.0,2.01
-2.0,8.0,2.011
0.0,9.0,2.012
1.0,7.0,2.013
1.0,5.0,2.014
4.0,3.0,2.015
7.0,1.0,2.016
11.0,0.0,2.017
11.0,-1.0,2.018
10.0,-1.0,2.019
8.0,-3.0,2.02
4.0,-8.0,2.021
1.0,-11.0,2.022
1.0,-9.0,2.023
4.0,-5.0,2.024
1.0,0.0,2.025
-3.0,4.0,2.026
-5.0,6.0,2.027
-2.0,6.0,2.028
0.0,7.0,2.029
-2.0,8.0,2.03
-5.0,6.0,2.031
-2.0,3.0,2.032
2.0,0.0,2.033
4.0,-2.0,2.034
7.0,-3.0,2.035
11.0,-3.0,2.036
14.0,0.0,2.037
13.0,-1.0,2.038
10.0,-3.0,2.039
6.0,-5.0,2.04
2.0,-7.0,2.041
-1.0,-9.0,2.042
2.0,-8.0,2.043
5.0,-6.0,2.044
5.0,-4.0,2.045
4.0,-2.0,2.046
1.0,0.0,2.047
-1.0,2.0,2.048
-3.0,4.0,2.049
-4.0,6.0,2.05
-2.0,6.0,2.051
-1.0,5.0,2.052
0.0,5.0,2.053
1.0,3.0,2.054
3.0,1.0,2.055
6.0,-1.0,2.056
8.0,-2.0,2.057
11.0,-4.0,2.058
8.0,-4.0,2.059
6.0,-5.0,2.06
4.0,-10.0,2.061
0.0,-10.0,2.062
0.0,-6.0,2.063
5.0,0.0,2.064
5.0,4.0,2.065
-2.0,6.0,2.066
-9.0,6.0,2.067
-8.0,5.0,2.068
-4.0,2.0,2.069
-4.0,0.0,2.07
-3.0,-1.0,2.071
1.0,0.0,2.072
4.0,1.0,2.073
4.0,3.0,2.074
5.0,0.0,2.075
9.0,-5.0,2.076
11.0,-5.0,2.077
7.0,-5.0,2.078
4.0,-6.0,2.079
2.0,-7.0,2.08
0.0,-10.0,2.081
-1.0,-7.0,2.082
3.0,-2.0,2.083
8.0,-1.0,2.084
4.0,-1.0,2.085
-4.0,2.0,2.086
-7.0,3.0,2.087
-5.0,4.0,2.088
-3.0,7.0,2.089
-6.0,10.0,2.09
-6.0,10.0,2.091
-3.0,6.0,2.092
1.0,2.0,2.093
3.0,4.0,2.094
6.0,6.0,2.095
8.0,2.0,2.096
11.0,0.0,2.097
10.0,-1.0,2.098
10.0,-1.0,2.099
8.0,-5.0,2.1
3.0,-12.0,2.101
-2.0,-14.0,2.102
0.0,-8.0,2.103
7.0,-2.0,2.104
4.0,2.0,2.105
-7.0,4.0,2.106
-12.0,3.0,2.107
-7.0,1.0,2.108
-2.0,1.0,2.109
-2.0,2.0,2.11
-3.0,3.0,2.111
0.0,0.0,2.112
4.0,0.0,2.113
6.0,1.0,2.114
8.0,1.0,2.115
13.0,-4.0,2.116
15.0,-7.0,2.117
12.0,-7.0,2.118
8.0,-5.0,2.119
7.0,-6.0,2.12
3.0,-10.0,2.121
-3.0,-9.0,2.122
-2.0,-5.0,2.123
8.0,-1.0,2.124
12.0,3.0,2.125
3.0,6.0,2.126
-4.0,8.0,2.127
-1.0,8.0,2.128
4.0,8.0,2.129
3.0,7.0,2.13
-3.0,4.0,2.131
-3.0,2.0,2.132
3.0,3.0,2.133
7.0,4.0,2.134
7.0,3.0,2.135
9.0,-1.0,2.136
12.0,-2.0,2.137
12.0,-4.0,2.138
11.0,-5.0,2.139
6.0,-7.0,2.14
-1.0,-12.0,2.141
-3.0,-11.0,2.142
-2.0,-8.0,2.143
1.0,-4.0,2.144
0.0,0.0,2.145
-6.0,2.0,2.146
-9.0,4.0,2.147
-5.0,4.0,2.148
-5.0,3.0,2.149
-5.0,5.0,2.15
-3.0,6.0,2.151
1.0,4.0,2.152
3.0,0.0,2.153
3.0,-2.0,2.154
5.0,0.0,2.155
8.0,2.0,2.156
10.0,0.0,2.157
7.0,-4.0,2.158
8.0,-7.0,2.159
6.0,-4.0,2.16
0.0,-5.0,2.161
-5.0,-8.0,2.162
-1.0,-10.0,2.163
7.0,-6.0,2.164
6.0,2.0,2.165
-4.0,9.0,2.166
-10.0,9.0,2.167
-8.0,3.0,2.168
-4.0,0.0,2.169
-3.0,1.0,2.17
0.0,2.0,2.171
7.0,2.0,2.172
11.0,2.0,2.173
10.0,3.0,2.174
9.0,3.0,2.175
12.0,1.0,2.176
15.0,-2.0,2.177
14.0,-6.0,2.178
13.0,-8.0,2.179
8.0,-8.0,2.18
0.0,-9.0,2.181
-6.0,-8.0,2.182
-1.0,-6.0,2.183
10.0,-6.0,2.184
10.0,-4.0,2.185
-2.0,0.0,2.186
-10.0,4.0,2.187
-8.0,3.0,2.188
-6.0,2.0,2.189
-9.0,5.0,2.19
-8.0,7.0,2.191
-1.0,6.0,2.192
1.0,4.0,2.193
0.0,4.0,2.194
1.0,3.0,2.195
9.0,-1.0,2.196
11.0,-5.0,2.197
8.0,-5.0,2.198
8.0,-2.0,2.199
7.0,-1.0,2.2
2.0,-5.0,2.201
-1.0,-7.0,2.202
1.0,-5.0,2.203
4.0,-3.0,2.204
3.0,0.0,2.205
2.0,3.0,2.206
0.0,3.0,2.207
-1.0,3.0,2.208
-1.0,4.0,2.209
-1.0,6.0,2.21
-1.0,7.0,2.211
0.0,7.0,2.212
3.0,5.0,2.213
6.0,3.0,2.214
4.0,1.0,2.215
3.0,0.0,2.216
6.0,0.0,2.217
10.0,-1.0,2.218
10.0,-4.0,2.219
6.0,-8.0,2.22
0.0,-13.0,2.221
-6.0,-10.0,2.222
-3.0,-6.0,2.223
6.0,-4.0,2.224
10.0,-2.0,2.225
0.0,1.0,2.226
-6.0,2.0,2.227
-5.0,2.0,2.228
-4.0,5.0,2.229
-6.0,9.0,2.23
-6.0,8.0,2.231
1.0,5.0,2.232
9.0,2.0,2.233
7.0,4.0,2.234
5.0,2.0,2.235
7.0,-4.0,2.236
13.0,-5.0,2.237
13.0,-3.0,2.238
10.0,-2.0,2.239
6.0,-5.0,2.24
1.0,-12.0,2.241
-1.0,-10.0,2.242
1.0,-4.0,2.243
5.0,-2.0,2.244
3.0,-1.0,2.245
-3.0,0.0,2.246
-5.0,4.0,2.247
-3.0,5.0,2.248
-3.0,4.0,2.249
-5.0,5.0,2.25
-4.0,6.0,2.251
0.0,6.0,2.252
4.0,4.0,2.253
5.0,2.0,2.254
6.0,-1.0,2.255
8.0,-3.0,2.256
11.0,-4.0,2.257
12.0,-4.0,2.258
12.0,-7.0,2.259
8.0,-10.0,2.26
1.0,-13.0,2.261
-1.0,-12.0,2.262
4.0,-10.0,2.263
11.0,-9.0,2.264
6.0,-4.0,2.265
-4.0,2.0,2.266
-8.0,6.0,2.267
-4.0,5.0,2.268
-2.0,5.0,2.269
-3.0,6.0,2.27
-3.0,5.0,2.271
0.0,1.0,2.272
0.0,-1.0,2.273
-2.0,-1.0,2.274
2.0,1.0,2.275
11.0,3.0,2.276
16.0,5.0,2.277
15.0,4.0,2.278
11.0,0.0,2.279
8.0,-5.0,2.28
2.0,-9.0,2.281
-3.0,-7.0,2.282
-1.0,-5.0,2.283
6.0,-2.0,2.284
6.0,3.0,2.285
0.0,10.0,2.286
-5.0,11.0,2.287
-4.0,8.0,2.288
-3.0,5.0,2.289
-3.0,7.0,2.29
-3.0,8.0,2.291
0.0,5.0,2.292
4.0,3.0,2.293
5.0,5.0,2.294
4.0,6.0,2.295
4.0,5.0,2.296
8.0,4.0,2.297
9.0,-1.0,2.298
12.0,-9.0,2.299
7.0,-14.0,2.3
2.0,-16.0,2.301
1.0,-13.0,2.302
5.0,-13.0,2.303
9.0,-12.0,2.304
7.0,-9.0,2.305
1.0,-5.0,2.306
-2.0,-2.0,2.307
-1.0,-3.0,2.308
0.0,-2.0,2.309
-2.0,2.0,2.31
-2.0,4.0,2.311
-1.0,5.0,2.312
-1.0,4.0,2.313
-2.0,3.0,2.314
0.0,0.0,2.315
6.0,-4.0,2.316
10.0,-5.0,2.317
7.0,-5.0,2.318
3.0,-6.0,2.319
1.0,-8.0,2.32
-2.0,-11.0,2.321
-5.0,-9.0,2.322
-2.0,-6.0,2.323
6.0,-4.0,2.324
6.0,-2.0,2.325
-5.0,0.0,2.326
-12.0,1.0,2.327
-8.0,1.0,2.328
-3.0,3.0,2.329
-3.0,6.0,2.33
-5.0,7.0,2.331
1.0,4.0,2.332
7.0,0.0,2.333
7.0,-1.0,2.334
4.0,0.0,2.335
7.0,2.0,2.336
12.0,4.0,2.337
15.0,1.0,2.338
12.0,-4.0,2.339
8.0,-6.0,2.34
2.0,-9.0,2.341
0.0,-9.0,2.342
3.0,-6.0,2.343
8.0,-3.0,2.344
5.0,1.0,2.345
-3.0,5.0,2.346
-7.0,3.0,2.347
-3.0,2.0,2.348
-2.0,3.0,2.349
-4.0,4.0,2.35
-3.0,4.0,2.351
1.0,5.0,2.352
5.0,7.0,2.353
5.0,8.0,2.354
7.0,5.0,2.355
12.0,1.0,2.356
11.0,2.0,2.357
5.0,0.0,2.358
3.0,-6.0,2.359
3.0,-11.0,2.36
-1.0,-13.0,2.361
-5.0,-8.0,2.362
0.0,-4.0,2.363
8.0,0.0,2.364
8.0,3.0,2.365
-3.0,4.0,2.366
-8.0,1.0,2.367
-7.0,0.0,2.368
-6.0,1.0,2.369
-6.0,3.0,2.37
-2.0,2.0,2.371
5.0,0.0,2.372
9.0,1.0,2.373
9.0,1.0,2.374
8.0,0.0,2.375
8.0,0.0,2.376
12.0,2.0,2.377
13.0,-1.0,2.378
14.0,-6.0,2.379
12.0,-8.0,2.38
4.0,-8.0,2.381
-1.0,-7.0,2.382
0.0,-8.0,2.383
5.0,-5.0,2.384
5.0,2.0,2.385
0.0,5.0,2.386
-3.0,3.0,2.387
-4.0,1.0,2.388
-5.0,4.0,2.389
-7.0,11.0,2.39
-8.0,11.0,2.391
-4.0,6.0,2.392
0.0,3.0,2.393
3.0,3.0,2.394
8.0,3.0,2.395
13.0,0.0,2.396
16.0,-1.0,2.397
13.0,-1.0,2.398
10.0,-4.0,2.399
8.0,-7.0,2.4
3.0,-10.0,2.401
-1.0,-9.0,2.402
0.0,-4.0,2.403
5.0,-3.0,2.404
3.0,-1.0,2.405
-5.0,1.0,2.406
-8.0,2.0,2.407
-4.0,1.0,2.408
0.0,3.0,2.409
-3.0,9.0,2.41
-5.0,8.0,2.411
0.0,5.0,2.412
5.0,1.0,2.413
3.0,0.0,2.414
2.0,0.0,2.415
5.0,-3.0,2.416
13.0,-5.0,2.417
16.0,-7.0,2.418
14.0,-7.0,2.419
8.0,-9.0,2.42
1.0,-12.0,2.421
0.0,-10.0,2.422
3.0,-5.0,2.423
8.0,-2.0,2.424
6.0,-4.0,2.425
-2.0,-1.0,2.426
-7.0,2.0,2.427
-5.0,2.0,2.428
-3.0,3.0,2.429
-6.0,5.0,2.43
-7.0,7.0,2.431
-1.0,3.0,2.432
5.0,0.0,2.433
6.0,0.0,2.434
5.0,2.0,2.435
6.0,0.0,2.436
7.0,-2.0,2.437
6.0,-4.0,2.438
9.0,-3.0,2.439
8.0,-5.0,2.44
3.0,-8.0,2.441
-3.0,-6.0,2.442
-2.0,-3.0,2.443
4.0,0.0,2.444
4.0,2.0,2.445
-4.0,5.0,2.446
-10.0,3.0,2.447
-7.0,-1.0,2.448
-2.0,-1.0,2.449
-3.0,3.0,2.45
-4.0,3.0,2.451
-1.0,2.0,2.452
2.0,1.0,2.453
2.0,5.0,2.454
2.0,4.0,2.455
9.0,-1.0,2.456
14.0,-3.0,2.457
13.0,-5.0,2.458
8.0,-7.0,2.459
1.0,-9.0,2.46
-1.0,-11.0,2.461
-2.0,-6.0,2.462
1.0,-3.0,2.463
4.0,-4.0,2.464
4.0,-1.0,2.465
0.0,3.0,2.466
-3.0,4.0,2.467
-1.0,1.0,2.468
-1.0,-1.0,2.469
-3.0,3.0,2.47
-2.0,6.0,2.471
3.0,7.0,2.472
7.0,5.0,2.473
8.0,5.0,2.474
8.0,3.0,2.475
9.0,-2.0,2.476
11.0,-3.0,2.477
12.0,-5.0,2.478
10.0,-6.0,2.479
6.0,-7.0,2.48
-1.0,-9.0,2.481
-5.0,-11.0,2.482
0.0,-10.0,2.483
5.0,-8.0,2.484
2.0,-3.0,2.485
0.0,1.0,2.486
0.0,3.0,2.487
0.0,5.0,2.488
-2.0,5.0,2.489
-4.0,4.0,2.49
-2.0,4.0,2.491
0.0,5.0,2.492
1.0,6.0,2.493
4.0,7.0,2.494
9.0,5.0,2.495
13.0,3.0,2.496
11.0,0.0,2.497
9.0,-1.0,2.498
5.0,-2.0,2.499
4.0,-4.0,2.5
1.0,-10.0,2.501
-1.0,-14.0,2.502
2.0,-12.0,2.503
8.0,-5.0,2.504
5.0,1.0,2.505
-5.0,5.0,2.506
-10.0,5.0,2.507
-9.0,5.0,2.508
-8.0,6.0,2.509
-10.0,7.0,2.51
-11.0,4.0,2.511
-8.0,1.0,2.512
-3.0,0.0,2.513
1.0,1.0,2.514
9.0,1.0,2.515
18.0,-1.0,2.516
24.0,-2.0,2.517
23.0,-4.0,2.518
17.0,-5.0,2.519
8.0,-7.0,2.52
0.0,-11.0,2.521
-1.0,-11.0,2.522
6.0,-5.0,2.523
12.0,1.0,2.524
3.0,3.0,2.525
-9.0,3.0,2.526
-11.0,5.0,2.527
-5.0,5.0,2.528
-4.0,5.0,2.529
-7.0,4.0,2.53
-7.0,2.0,2.531
-1.0,1.0,2.532
3.0,0.0,2.533
0.0,0.0,2.534
-1.0,1.0,2.535
4.0,0.0,2.536
13.0,0.0,2.537
14.0,-2.0,2.538
10.0,-5.0,2.539
2.0,-9.0,2.54
0.0,-15.0,2.541
2.0,-14.0,2.542
6.0,-9.0,2.543
7.0,-5.0,2.544
3.0,-2.0,2.545
-3.0,2.0,2.546
-6.0,6.0,2.547
-5.0,6.0,2.548
0.0,6.0,2.549
1.0,8.0,2.55
1.0,11.0,2.551
1.0,10.0,2.552
1.0,6.0,2.553
2.0,3.0,2.554
5.0,2.0,2.555
8.0,-1.0,2.556
12.0,-4.0,2.557
12.0,-4.0,2.558
12.0,-3.0,2.559
9.0,-5.0,2.56
2.0,-12.0,2.561
-2.0,-13.0,2.562
1.0,-9.0,2.563
4.0,-7.0,2.564
4.0,-5.0,2.565
4.0,0.0,2.566
-1.0,4.0,2.567
-6.0,5.0,2.568
-6.0,2.0,2.569
-5.0,3.0,2.57
-2.0,7.0,2.571
0.0,9.0,2.572
4.0,8.0,2.573
7.0,4.0,2.574
8.0,2.0,2.575
9.0,1.0,2.576
9.0,1.0,2.577
10.0,-1.0,2.578
4.0,-3.0,2.579
0.0,-7.0,2.58
-2.0,-11.0,2.581
-2.0,-10.0,2.582
0.0,-7.0,2.583
2.0,-5.0,2.584
2.0,-4.0,2.585
-2.0,0.0,2.586
-5.0,3.0,2.587
-5.0,0.0,2.588
-5.0,0.0,2.589
-6.0,2.0,2.59
-5.0,5.0,2.591
-1.0,2.0,2.592
2.0,-2.0,2.593
3.0,-2.0,2.594
6.0,-1.0,2.595
11.0,-3.0,2.596
13.0,-6.0,2.597
12.0,-6.0,2.598
8.0,-4.0,2.599
4.0,-4.0,2.6
1.0,-8.0,2.601
-1.0,-11.0,2.602
4.0,-5.0,2.603
7.0,-1.0,2.604
3.0,-1.0,2.605
-1.0,0.0,2.606
-4.0,3.0,2.607
-7.0,6.0,2.608
-6.0,4.0,2.609
-4.0,4.0,2.61
-2.0,8.0,2.611
0.0,11.0,2.612
2.0,8.0,2.613
5.0,4.0,2.614
5.0,2.0,2.615
5.0,0.0,2.616
9.0,0.0,2.617
12.0,0.0,2.618
9.0,-1.0,2.619
2.0,-4.0,2.62
0.0,-10.0,2.621
-1.0,-8.0,2.622
1.0,-4.0,2.623
4.0,0.0,2.624
5.0,2.0,2.625
0.0,4.0,2.626
-4.0,4.0,2.627
-4.0,-1.0,2.628
0.0,-3.0,2.629
0.0,1.0,2.63
-1.0,4.0,2.631
2.0,1.0,2.632
7.0,-3.0,2.633
8.0,-3.0,2.634
8.0,2.0,2.635
10.0,0.0,2.636
15.0,-3.0,2.637
13.0,-5.0,2.638
7.0,-5.0,2.639
2.0,-4.0,2.64
1.0,-6.0,2.641
0.0,-8.0,2.642
2.0,-8.0,2.643
4.0,-9.0,2.644
1.0,-4.0,2.645
-1.0,2.0,2.646
-3.0,5.0,2.647
-5.0,2.0,2.648
-5.0,2.0,2.649
-4.0,4.0,2.65
-5.0,6.0,2.651
-5.0,4.0,2.652
-2.0,2.0,2.653
1.0,3.0,2.654
4.0,5.0,2.655
7.0,3.0,2.656
10.0,1.0,2.657
13.0,0.0,2.658
9.0,-1.0,2.659
3.0,-4.0,2.66
0.0,-8.0,2.661
-2.0,-8.0,2.662
0.0,-6.0,2.663
5.0,-5.0,2.664
7.0,-4.0,2.665
1.0,-2.0,2.666
-7.0,0.0,2.667
-8.0,0.0,2.668
-5.0,0.0,2.669
-4.0,0.0,2.67
-3.0,3.0,2.671
0.0,4.0,2.672
5.0,3.0,2.673
7.0,3.0,2.674
6.0,3.0,2.675
7.0,5.0,2.676
13.0,6.0,2.677
17.0,3.0,2.678
15.0,-1.0,2.679
8.0,-5.0,2.68
2.0,-11.0,2.681
1.0,-12.0,2.682
6.0,-7.0,2.683
11.0,0.0,2.684
6.0,4.0,2.685
-2.0,4.0,2.686
-7.0,2.0,2.687
-3.0,0.0,2.688
0.0,1.0,2.689
-1.0,1.0,2.69
-3.0,1.0,2.691
-3.0,0.0,2.692
0.0,1.0,2.693
3.0,3.0,2.694
5.0,1.0,2.695
7.0,-5.0,2.696
10.0,-5.0,2.697
12.0,-1.0,2.698
12.0,3.0,2.699
7.0,0.0,2.7
0.0,-11.0,2.701
-2.0,-12.0,2.702
1.0,-8.0,2.703
5.0,-5.0,2.704
3.0,-4.0,2.705
-4.0,0.0,2.706
-9.0,2.0,2.707
-10.0,3.0,2.708
-8.0,1.0,2.709
-7.0,4.0,2.71
-2.0,5.0,2.711
2.0,3.0,2.712
4.0,1.0,2.713
2.0,5.0,2.714
3.0,4.0,2.715
7.0,-2.0,2.716
11.0,-7.0,2.717
12.0,-5.0,2.718
10.0,-2.0,2.719
8.0,-4.0,2.72
3.0,-10.0,2.721
-1.0,-10.0,2.722
3.0,-6.0,2.723
9.0,-3.0,2.724
8.0,0.0,2.725
0.0,4.0,2.726
-5.0,5.0,2.727
-3.0,2.0,2.728
-2.0,2.0,2.729
-4.0,6.0,2.73
-3.0,7.0,2.731
0.0,3.0,2.732
3.0,3.0,2.733
2.0,5.0,2.734
4.0,4.0,2.735
10.0,0.0,2.736
14.0,0.0,2.737
12.0,-1.0,2.738
6.0,-2.0,2.739
2.0,-7.0,2.74
0.0,-12.0,2.741
0.0,-12.0,2.742
2.0,-9.0,2.743
5.0,-5.0,2.744
2.0,0.0,2.745
-5.0,3.0,2.746
-9.0,0.0,2.747
-7.0,-3.0,2.748
-4.0,0.0,2.749
-3.0,5.0,2.75
-3.0,5.0,2.751
2.0,2.0,2.752
6.0,1.0,2.753
8.0,3.0,2.754
11.0,3.0,2.755
14.0,0.0,2.756
17.0,0.0,2.757
15.0,-2.0,2.758
11.0,-4.0,2.759
6.0,-6.0,2.76
1.0,-7.0,2.761
-1.0,-6.0,2.762
2.0,-7.0,2.763
4.0,-6.0,2.764
-1.0,0.0,2.765
-8.0,3.0,2.766
-10.0,2.0,2.767
-5.0,0.0,2.768
-2.0,3.0,2.769
-2.0,6.0,2.77
-2.0,3.0,2.771
-1.0,-2.0,2.772
0.0,-3.0,2.773
0.0,0.0,2.774
2.0,2.0,2.775
5.0,2.0,2.776
7.0,1.0,2.777
6.0,-1.0,2.778
5.0,-4.0,2.779
1.0,-6.0,2.78
-3.0,-7.0,2.781
-2.0,-6.0,2.782
5.0,-6.0,2.783
11.0,-5.0,2.784
9.0,-1.0,2.785
0.0,4.0,2.786
-3.0,6.0,2.787
-2.0,6.0,2.788
-2.0,7.0,2.789
-3.0,10.0,2.79
-3.0,9.0,2.791
0.0,5.0,2.792
5.0,3.0,2.793
8.0,2.0,2.794
11.0,0.0,2.795
14.0,-2.0,2.796
16.0,-2.0,2.797
14.0,-3.0,2.798
11.0,-7.0,2.799
5.0,-10.0,2.8
-1.0,-14.0,2.801
-4.0,-11.0,2.802
0.0,-7.0,2.803
8.0,-3.0,2.804
8.0,0.0,2.805
-1.0,0.0,2.806
-8.0,1.0,2.807
-5.0,2.0,2.808
-5.0,4.0,2.809
-9.0,5.0,2.81
-10.0,5.0,2.811
-2.0,5.0,2.812
5.0,4.0,2.813
5.0,2.0,2.814
2.0,0.0,2.815
4.0,-2.0,2.816
9.0,-1.0,2.817
10.0,-3.0,2.818
8.0,-3.0,2.819
5.0,-3.0,2.82
1.0,-5.0,2.821
-1.0,-7.0,2.822
2.0,-4.0,2.823
4.0,0.0,2.824
2.0,2.0,2.825
0.0,5.0,2.826
-1.0,4.0,2.827
-3.0,3.0,2.828
-1.0,5.0,2.829
0.0,7.0,2.83
0.0,6.0,2.831
1.0,4.0,2.832
5.0,2.0,2.833
8.0,1.0,2.834
8.0,0.0,2.835
9.0,-2.0,2.836
10.0,-2.0,2.837
12.0,-2.0,2.838
10.0,-4.0,2.839
4.0,-6.0,2.84
-1.0,-9.0,2.841
-3.0,-6.0,2.842
-1.0,-4.0,2.843
2.0,-4.0,2.844
2.0,-4.0,2.845
-3.0,-2.0,2.846
-8.0,-2.0,2.847
-10.0,-4.0,2.848
-9.0,-3.0,2.849
-8.0,3.0,2.85
-4.0,7.0,2.851
2.0,5.0,2.852
6.0,1.0,2.853
8.0,1.0,2.854
10.0,1.0,2.855
12.0,-3.0,2.856
14.0,-4.0,2.857
12.0,-2.0,2.858
10.0,-3.0,2.859
8.0,-7.0,2.86
5.0,-12.0,2.861
2.0,-9.0,2.862
4.0,-6.0,2.863
5.0,-5.0,2.864
0.0,-1.0,2.865
-6.0,5.0,2.866
-7.0,6.0,2.867
-3.0,2.0,2.868
-1.0,0.0,2.869
-3.0,3.0,2.87
-4.0,6.0,2.871
-1.0,4.0,2.872
2.0,4.0,2.873
5.0,6.0,2.874
9.0,5.0,2.875
12.0,1.0,2.876
13.0,0.0,2.877
11.0,0.0,2.878
9.0,-1.0,2.879
4.0,-4.0,2.88
-3.0,-4.0,2.881
-3.0,0.0,2.882
3.0,-3.0,2.883
9.0,-9.0,2.884
3.0,-10.0,2.885
-6.0,-4.0,2.886
-8.0,-1.0,2.887
-6.0,-1.0,2.888
-4.0,0.0,2.889
-3.0,2.0,2.89
-1.0,1.0,2.891
3.0,-1.0,2.892
3.0,1.0,2.893
3.0,7.0,2.894
5.0,7.0,2.895
9.0,0.0,2.896
9.0,-2.0,2.897
8.0,-2.0,2.898
10.0,-4.0,2.899
7.0,-9.0,2.9
0.0,-13.0,2.901
-6.0,-9.0,2.902
-1.0,-3.0,2.903
10.0,0.0,2.904
9.0,0.0,2.905
-3.0,0.0,2.906
-10.0,2.0,2.907
-5.0,3.0,2.908
-2.0,3.0,2.909
-5.0,7.0,2.91
-8.0,8.0,2.911
-3.0,6.0,2.912
3.0,3.0,2.913
4.0,2.0,2.914
5.0,1.0,2.915
11.0,-1.0,2.916
16.0,-2.0,2.917
14.0,-3.0,2.918
10.0,-3.0,2.919
7.0,-5.0,2.92
4.0,-10.0,2.921
0.0,-11.0,2.922
0.0,-8.0,2.923
5.0,-2.0,2.924
6.0,2.0,2.925
-2.0,4.0,2.926
-9.0,5.0,2.927
-5.0,1.0,2.928
0.0,-2.0,2.929
-2.0,-4.0,2.93
-4.0,-3.0,2.931
-3.0,-2.0,2.932
3.0,-4.0,2.933
6.0,-6.0,2.934
8.0,-2.0,2.935
11.0,5.0,2.936
14.0,10.0,2.937
14.0,11.0,2.938
12.0,12.0,2.939
7.0,11.0,2.94
2.0,7.0,2.941
0.0,5.0,2.942
4.0,4.0,2.943
9.0,3.0,2.944
5.0,1.0,2.945
-5.0,-2.0,2.946
-12.0,-5.0,2.947
-11.0,-6.0,2.948
-7.0,-5.0,2.949
-7.0,-3.0,2.95
-6.0,-1.0,2.951
0.0,-2.0,2.952
5.0,-3.0,2.953
5.0,-2.0,2.954
1.0,0.0,2.955
2.0,1.0,2.956
6.0,0.0,2.957
10.0,-3.0,2.958
8.0,-5.0,2.959
3.0,-13.0,2.96
-1.0,-23.0,2.961
-1.0,-24.0,2.962
3.0,-14.0,2.963
7.0,-4.0,2.964
3.0,2.0,2.965
-5.0,7.0,2.966
-9.0,11.0,2.967
-6.0,14.0,2.968
-3.0,14.0,2.969
-3.0,16.0,2.97
-3.0,17.0,2.971
0.0,16.0,2.972
3.0,11.0,2.973
4.0,6.0,2.974
8.0,4.0,2.975
14.0,3.0,2.976
17.0,3.0,2.977
14.0,-2.0,2.978
12.0,-6.0,2.979
11.0,-11.0,2.98
9.0,-17.0,2.981
2.0,-17.0,2.982
1.0,-15.0,2.983
7.0,-11.0,2.984
9.0,-6.0,2.985
0.0,0.0,2.986
-5.0,2.0,2.987
-4.0,0.0,2.988
-1.0,-2.0,2.989
-3.0,0.0,2.99
-3.0,3.0,2.991
1.0,1.0,2.992
6.0,-1.0,2.993
4.0,-2.0,2.994
1.0,-1.0,2.995
6.0,-1.0,2.996
13.0,2.0,2.997
11.0,1.0,2.998
8.0,-1.0,2.999
5.0,-5.0,3.0
2.0,-8.0,3.001
-3.0,-5.0,3.002
-3.0,-3.0,3.003
1.0,-5.0,3.004
4.0,-3.0,3.005
1.0,2.0,3.006
-2.0,3.0,3.007
-3.0,-1.0,3.008
-4.0,0.0,3.009
-7.0,5.0,3.01
-7.0,7.0,3.011
-3.0,1.0,3.012
0.0,-3.0,3.013
0.0,1.0,3.014
3.0,4.0,3.015
9.0,2.0,3.016
15.0,0.0,3.017
14.0,1.0,3.018
13.0,-2.0,3.019
10.0,-7.0,3.02
3.0,-12.0,3.021
-2.0,-11.0,3.022
-2.0,-10.0,3.023
2.0,-9.0,3.024
3.0,-4.0,3.025
-2.0,3.0,3.026
-5.0,6.0,3.027
-5.0,2.0,3.028
-6.0,1.0,3.029
-7.0,4.0,3.03
-5.0,5.0,3.031
0.0,3.0,3.032
0.0,2.0,3.033
0.0,5.0,3.034
4.0,4.0,3.035
12.0,1.0,3.036
16.0,0.0,3.037
14.0,0.0,3.038
9.0,-2.0,3.039
4.0,-4.0,3.04
0.0,-5.0,3.041
0.0,-5.0,3.042
3.0,0.0,3.043
6.0,5.0,3.044
4.0,5.0,3.045
-2.0,4.0,3.046
-4.0,2.0,3.047
-4.0,1.0,3.048
-3.0,2.0,3.049
-6.0,4.0,3.05
-5.0,4.0,3.051
-1.0,3.0,3.052
5.0,3.0,3.053
8.0,2.0,3.054
9.0,0.0,3.055
10.0,-3.0,3.056
11.0,-3.0,3.057
11.0,-3.0,3.058
12.0,-4.0,3.059
5.0,-5.0,3.06
-2.0,-7.0,3.061
-5.0,-8.0,3.062
0.0,-10.0,3.063
6.0,-8.0,3.064
5.0,-3.0,3.065
0.0,2.0,3.066
-4.0,4.0,3.067
-2.0,2.0,3.068
-1.0,3.0,3.069
-1.0,7.0,3.07
0.0,10.0,3.071
2.0,11.0,3.072
1.0,6.0,3.073
2.0,0.0,3.074
7.0,-4.0,3.075
13.0,-5.0,3.076
15.0,-2.0,3.077
9.0,-4.0,3.078
3.0,-10.0,3.079
0.0,-15.0,3.08
-1.0,-13.0,3.081
0.0,-7.0,3.082
3.0,-3.0,3.083
8.0,-3.0,3.084
5.0,-2.0,3.085
-2.0,1.0,3.086
-6.0,2.0,3.087
-5.0,3.0,3.088
-5.0,7.0,3.089
-8.0,10.0,3.09
-5.0,11.0,3.091
1.0,7.0,3.092
2.0,4.0,3.093
-1.0,0.0,3.094
0.0,0.0,3.095
8.0,-1.0,3.096
16.0,0.0,3.097
16.0,-4.0,3.098
12.0,-9.0,3.099
9.0,-10.0,3.1
4.0,-11.0,3.101
0.0,-10.0,3.102
1.0,-10.0,3.103
5.0,-11.0,3.104
4.0,-7.0,3.105
-3.0,-2.0,3.106
-8.0,-2.0,3.107
-8.0,-3.0,3.108
-4.0,1.0,3.109
-3.0,10.0,3.11
-3.0,16.0,3.111
-3.0,18.0,3.112
-1.0,22.0,3.113
2.0,26.0,3.114
7.0,25.0,3.115
8.0,18.0,3.116
10.0,12.0,3.117
10.0,2.0,3.118
8.0,-6.0,3.119
4.0,-13.0,3.12
0.0,-16.0,3.121
0.0,-13.0,3.122
6.0,-10.0,3.123
12.0,-9.0,3.124
9.0,-7.0,3.125
4.0,-4.0,3.126
3.0,-2.0,3.127
4.0,-4.0,3.128
4.0,-13.0,3.129
3.0,-26.0,3.13
4.0,-35.0,3.131
7.0,-30.0,3.132
7.0,-13.0,3.133
2.0,0.0,3.134
-2.0,4.0,3.135
-2.0,7.0,3.136
6.0,16.0,3.137
13.0,23.0,3.138
14.0,23.0,3.139
5.0,18.0,3.14
-3.0,16.0,3.141
-1.0,19.0,3.142
8.0,16.0,3.143
15.0,4.0,3.144
12.0,-6.0,3.145
2.0,-14.0,3.146
-4.0,-18.0,3.147
-7.0,-16.0,3.148
-12.0,-4.0,3.149
-19.0,5.0,3.15
-21.0,-4.0,3.151
-17.0,-25.0,3.152
-12.0,-35.0,3.153
-13.0,-18.0,3.154
-14.0,7.0,3.155
-9.0,20.0,3.156
-1.0,17.0,3.157
8.0,12.0,3.158
14.0,17.0,3.159
16.0,27.0,3.16
15.0,29.0,3.161
14.0,29.0,3.162
16.0,32.0,3.163
19.0,30.0,3.164
19.0,20.0,3.165
14.0,8.0,3.166
6.0,2.0,3.167
-1.0,-1.0,3.168
-7.0,-7.0,3.169
-18.0,-13.0,3.17
-27.0,-17.0,3.171
-26.0,-15.0,3.172
-16.0,-11.0,3.173
1.0,-16.0,3.174
15.0,-39.0,3.175
25.0,-70.0,3.176
32.0,-83.0,3.177
36.0,-77.0,3.178
36.0,-68.0,3.179
25.0,-74.0,3.18
9.0,-79.0,3.181
0.0,-56.0,3.182
5.0,-16.0,3.183
11.0,15.0,3.184
5.0,36.0,3.185
-4.0,61.0,3.186
-4.0,89.0,3.187
3.0,106.0,3.188
6.0,111.0,3.189
3.0,115.0,3.19
0.0,114.0,3.191
-5.0,101.0,3.192
-21.0,78.0,3.193
-38.0,59.0,3.194
-44.0,42.0,3.195
-47.0,19.0,3.196
-55.0,-3.0,3.197
-60.0,-20.0,3.198
-40.0,-29.0,3.199
-4.0,-42.0,3.2
14.0,-56.0,3.201
1.0,-57.0,3.202
-11.0,-49.0,3.203
4.0,-41.0,3.204
27.0,-32.0,3.205
27.0,-25.0,3.206
10.0,-22.0,3.207
0.0,-26.0,3.208
3.0,-30.0,3.209
5.0,-25.0,3.21
4.0,-19.0,3.211
13.0,-22.0,3.212
29.0,-31.0,3.213
42.0,-38.0,3.214
52.0,-43.0,3.215
61.0,-47.0,3.216
61.0,-45.0,3.217
42.0,-40.0,3.218
24.0,-46.0,3.219
14.0,-51.0,3.22
26.0,-50.0,3.221
30.0,-40.0,3.222
12.0,-4.0,3.223
-3.0,22.0,3.224
-9.0,14.0,3.225
-14.0,5.0,3.226
-13.0,-4.0,3.227
-7.0,-19.0,3.228
14.0,-47.0,3.229
29.0,-71.0,3.23
23.0,-85.0,3.231
17.0,-90.0,3.232
11.0,-68.0,3.233
8.0,-36.0,3.234
13.0,25.0,3.235
18.0,84.0,3.236
21.0,129.0,3.237
20.0,167.0,3.238
-1.0,165.0,3.239
-17.0,142.0,3.24
-14.0,107.0,3.241
2.0,80.0,3.242
21.0,82.0,3.243
31.0,114.0,3.244
24.0,155.0,3.245
0.0,167.0,3.246
-30.0,147.0,3.247
-60.0,124.0,3.248
-92.0,111.0,3.249
-112.0,81.0,3.25
-107.0,9.0,3.251
-81.0,-77.0,3.252
-57.0,-136.0,3.253
-43.0,-164.0,3.254
-34.0,-177.0,3.255
-27.0,-173.0,3.256
-23.0,-139.0,3.257
-23.0,-82.0,3.258
-14.0,-26.0,3.259
-3.0,21.0,3.26
7.0,59.0,3.261
21.0,81.0,3.262
49.0,73.0,3.263
70.0,49.0,3.264
72.0,22.0,3.265
68.0,-7.0,3.266
77.0,-37.0,3.267
79.0,-49.0,3.268
46.0,-46.0,3.269
-5.0,-63.0,3.27
-33.0,-119.0,3.271
-28.0,-173.0,3.272
-26.0,-185.0,3.273
-39.0,-182.0,3.274
-45.0,-218.0,3.275
-25.0,-279.0,3.276
11.0,-296.0,3.277
43.0,-234.0,3.278
58.0,-127.0,3.279
60.0,-30.0,3.28
63.0,38.0,3.281
73.0,90.0,3.282
82.0,119.0,3.283
77.0,130.0,3.284
68.0,150.0,3.285
69.0,195.0,3.286
80.0,239.0,3.287
75.0,254.0,3.288
44.0,252.0,3.289
6.0,246.0,3.29
-24.0,226.0,3.291
-55.0,185.0,3.292
-91.0,134.0,3.293
-111.0,39.0,3.294
-98.0,-128.0,3.295
-73.0,-284.0,3.296
-62.0,-274.0,3.297
-76.0,-85.0,3.298
-93.0,83.0,3.299
-97.0,59.0,3.3
-82.0,-78.0,3.301
-51.0,-118.0,3.302
-3.0,-28.0,3.303
58.0,65.0,3.304
116.0,94.0,3.305
153.0,107.0,3.306
165.0,139.0,3.307
148.0,170.0,3.308
105.0,198.0,3.309
46.0,237.0,3.31
-12.0,256.0,3.311
-59.0,202.0,3.312
-94.0,97.0,3.313
-114.0,27.0,3.314
-108.0,9.0,3.315
-74.0,-44.0,3.316
-42.0,-175.0,3.317
-43.0,-308.0,3.318
-72.0,-288.0,3.319
-99.0,-119.0,3.32
-99.0,3.0,3.321
-79.0,-33.0,3.322
-54.0,-115.0,3.323
-30.0,-85.0,3.324
-4.0,18.0,3.325
24.0,66.0,3.326
52.0,51.0,3.327
67.0,65.0,3.328
66.0,106.0,3.329
55.0,94.0,3.33
47.0,33.0,3.331
48.0,-2.0,3.332
53.0,-14.0,3.333
54.0,-71.0,3.334
55.0,-175.0,3.335
55.0,-254.0,3.336
53.0,-281.0,3.337
48.0,-294.0,3.338
49.0,-315.0,3.339
41.0,-323.0,3.34
18.0,-309.0,3.341
-13.0,-285.0,3.342
-33.0,-264.0,3.343
-38.0,-225.0,3.344
-37.0,-136.0,3.345
-30.0,-1.0,3.346
-8.0,132.0,3.347
32.0,213.0,3.348
65.0,252.0,3.349
66.0,304.0,3.35
41.0,384.0,3.351
23.0,439.0,3.352
30.0,427.0,3.353
48.0,374.0,3.354
39.0,322.0,3.355
9.0,260.0,3.356
-12.0,177.0,3.357
-12.0,85.0,3.358
-10.0,28.0,3.359
-31.0,2.0,3.36
-58.0,-33.0,3.361
-59.0,-85.0,3.362
-48.0,-128.0,3.363
-56.0,-160.0,3.364
-83.0,-227.0,3.365
-87.0,-343.0,3.366
-51.0,-417.0,3.367
-12.0,-344.0,3.368
0.0,-145.0,3.369
-8.0,24.0,3.37
-8.0,62.0,3.371
8.0,27.0,3.372
25.0,22.0,3.373
36.0,47.0,3.374
51.0,33.0,3.375
71.0,-24.0,3.376
88.0,-51.0,3.377
94.0,-16.0,3.378
91.0,47.0,3.379
85.0,83.0,3.38
82.0,80.0,3.381
77.0,60.0,3.382
64.0,34.0,3.383
40.0,14.0,3.384
2.0,18.0,3.385
-38.0,48.0,3.386
-60.0,74.0,3.387
-60.0,45.0,3.388
-59.0,-71.0,3.389
-75.0,-244.0,3.39
-94.0,-374.0,3.391
-85.0,-356.0,3.392
-51.0,-198.0,3.393
-17.0,-37.0,3.394
0.0,-5.0,3.395
10.0,-109.0,3.396
28.0,-228.0,3.397
50.0,-241.0,3.398
70.0,-82.0,3.399
82.0,185.0,3.4
94.0,400.0,3.401
102.0,460.0,3.402
90.0,411.0,3.403
56.0,374.0,3.404
13.0,384.0,3.405
-26.0,355.0,3.406
-59.0,228.0,3.407
-91.0,70.0,3.408
-113.0,1.0,3.409
-115.0,46.0,3.41
-96.0,121.0,3.411
-76.0,149.0,3.412
-78.0,136.0,3.413
-92.0,115.0,3.414
-80.0,79.0,3.415
-35.0,24.0,3.416
1.0,-1.0,3.417
-13.0,53.0,3.418
-58.0,137.0,3.419
-80.0,149.0,3.42
-62.0,70.0,3.421
-39.0,-8.0,3.422
-26.0,-61.0,3.423
-2.0,-165.0,3.424
37.0,-345.0,3.425
61.0,-500.0,3.426
67.0,-539.0,3.427
85.0,-478.0,3.428
121.0,-373.0,3.429
142.0,-236.0,3.43
139.0,-89.0,3.431
141.0,2.0,3.432
157.0,30.0,3.433
157.0,60.0,3.434
120.0,129.0,3.435
58.0,181.0,3.436
-5.0,170.0,3.437
-70.0,116.0,3.438
-114.0,61.0,3.439
-121.0,-26.0,3.44
-102.0,-153.0,3.441
-90.0,-229.0,3.442
-90.0,-172.0,3.443
-80.0,-41.0,3.444
-53.0,43.0,3.445
-23.0,61.0,3.446
-6.0,71.0,3.447
0.0,84.0,3.448
4.0,63.0,3.449
10.0,26.0,3.45
16.0,19.0,3.451
28.0,18.0,3.452
49.0,-38.0,3.453
70.0,-129.0,3.454
83.0,-153.0,3.455
77.0,-85.0,3.456
55.0,-16.0,3.457
27.0,-22.0,3.458
-3.0,-67.0,3.459
-23.0,-92.0,3.46
-25.0,-126.0,3.461
-8.0,-230.0,3.462
20.0,-374.0,3.463
39.0,-445.0,3.464
34.0,-396.0,3.465
16.0,-295.0,3.466
2.0,-191.0,3.467
-3.0,-24.0,3.468
-11.0,252.0,3.469
-17.0,546.0,3.47
-4.0,721.0,3.471
26.0,772.0,3.472
43.0,786.0,3.473
36.0,785.0,3.474
22.0,713.0,3.475
14.0,571.0,3.476
3.0,450.0,3.477
-29.0,366.0,3.478
-65.0,277.0,3.479
-86.0,147.0,3.48
-86.0,13.0,3.481
-66.0,-87.0,3.482
-33.0,-191.0,3.483
-9.0,-352.0,3.484
-15.0,-564.0,3.485
-42.0,-754.0,3.486
-58.0,-827.0,3.487
-45.0,-717.0,3.488
-14.0,-460.0,3.489
17.0,-184.0,3.49
42.0,-5.0,3.491
65.0,67.0,3.492
78.0,79.0,3.493
77.0,62.0,3.494
63.0,42.0,3.495
46.0,73.0,3.496
36.0,164.0,3.497
24.0,257.0,3.498
14.0,282.0,3.499
19.0,233.0,3.5
39.0,154.0,3.501
48.0,71.0,3.502
20.0,-8.0,3.503
-32.0,-63.0,3.504
-64.0,-89.0,3.505
-62.0,-126.0,3.506
-37.0,-192.0,3.507
-11.0,-250.0,3.508
5.0,-263.0,3.509
0.0,-244.0,3.51
-23.0,-231.0,3.511
-29.0,-235.0,3.512
13.0,-230.0,3.513
74.0,-171.0,3.514
84.0,-51.0,3.515
28.0,39.0,3.516
-31.0,-18.0,3.517
-50.0,-240.0,3.518
-42.0,-442.0,3.519
-50.0,-431.0,3.52
-71.0,-218.0,3.521
-69.0,24.0,3.522
-34.0,141.0,3.523
8.0,105.0,3.524
31.0,8.0,3.525
33.0,9.0,3.526
26.0,194.0,3.527
28.0,459.0,3.528
40.0,610.0,3.529
47.0,606.0,3.53
32.0,585.0,3.531
11.0,618.0,3.532
11.0,593.0,3.533
37.0,408.0,3.534
51.0,128.0,3.535
36.0,-80.0,3.536
9.0,-113.0,3.537
-22.0,14.0,3.538
-50.0,151.0,3.539
-66.0,89.0,3.54
-55.0,-213.0,3.541
-30.0,-502.0,3.542
-26.0,-488.0,3.543
-34.0,-175.0,3.544
-18.0,167.0,3.545
19.0,341.0,3.546
30.0,361.0,3.547
8.0,310.0,3.548
-2.0,208.0,3.549
21.0,89.0,3.55
31.0,6.0,3.551
3.0,-24.0,3.552
-22.0,-34.0,3.553
-18.0,-29.0,3.554
-5.0,0.0,3.555
-9.0,14.0,3.556
-5.0,-30.0,3.557
20.0,-111.0,3.558
43.0,-165.0,3.559
60.0,-219.0,3.56
57.0,-267.0,3.561
52.0,-300.0,3.562
42.0,-284.0,3.563
19.0,-255.0,3.564
-45.0,-188.0,3.565
-91.0,-134.0,3.566
-82.0,-123.0,3.567
-72.0,-129.0,3.568
-58.0,-185.0,3.569
-44.0,-250.0,3.57
-30.0,-343.0,3.571
-13.0,-387.0,3.572
16.0,-279.0,3.573
41.0,-150.0,3.574
54.0,43.0,3.575
63.0,187.0,3.576
59.0,180.0,3.577
54.0,178.0,3.578
52.0,184.0,3.579
63.0,108.0,3.58
69.0,-61.0,3.581
64.0,-184.0,3.582
60.0,-177.0,3.583
68.0,-99.0,3.584
73.0,-15.0,3.585
49.0,70.0,3.586
13.0,104.0,3.587
-17.0,-37.0,3.588
-47.0,-380.0,3.589
-81.0,-740.0,3.59
-91.0,-855.0,3.591
-52.0,-599.0,3.592
-6.0,-87.0,3.593
-1.0,419.0,3.594
-25.0,721.0,3.595
-29.0,812.0,3.596
-18.0,823.0,3.597
-39.0,842.0,3.598
-98.0,869.0,3.599
-136.0,870.0,3.6
-111.0,834.0,3.601
-47.0,758.0,3.602
20.0,621.0,3.603
87.0,437.0,3.604
146.0,255.0,3.605
162.0,97.0,3.606
114.0,-54.0,3.607
29.0,-201.0,3.608
-58.0,-306.0,3.609
-121.0,-353.0,3.61
-142.0,-373.0,3.611
-106.0,-405.0,3.612
-42.0,-447.0,3.613
1.0,-494.0,3.614
4.0,-576.0,3.615
-14.0,-726.0,3.616
-23.0,-885.0,3.617
-12.0,-948.0,3.618
26.0,-810.0,3.619
64.0,-514.0,3.62
74.0,-226.0,3.621
55.0,-37.0,3.622
44.0,104.0,3.623
56.0,282.0,3.624
59.0,477.0,3.625
31.0,595.0,3.626
2.0,607.0,3.627
18.0,555.0,3.628
71.0,470.0,3.629
117.0,364.0,3.63
123.0,258.0,3.631
87.0,175.0,3.632
34.0,78.0,3.633
-8.0,-137.0,3.634
-29.0,-521.0,3.635
-39.0,-925.0,3.636
-46.0,-1048.0,3.637
-53.0,-714.0,3.638
-60.0,-121.0,3.639
-74.0,309.0,3.64
-79.0,424.0,3.641
-52.0,472.0,3.642
-17.0,626.0,3.643
-20.0,733.0,3.644
-57.0,658.0,3.645
-75.0,555.0,3.646
-45.0,574.0,3.647
5.0,576.0,3.648
45.0,404.0,3.649
78.0,184.0,3.65
104.0,86.0,3.651
98.0,12.0,3.652
45.0,-172.0,3.653
-29.0,-345.0,3.654
-86.0,-322.0,3.655
-103.0,-174.0,3.656
-91.0,-96.0,3.657
-78.0,-120.0,3.658
-73.0,-147.0,3.659
-58.0,-163.0,3.66
-9.0,-222.0,3.661
45.0,-295.0,3.662
66.0,-319.0,3.663
57.0,-305.0,3.664
52.0,-303.0,3.665
57.0,-307.0,3.666
54.0,-322.0,3.667
46.0,-402.0,3.668
45.0,-540.0,3.669
40.0,-590.0,3.67
12.0,-435.0,3.671
-16.0,-171.0,3.672
-10.0,3.0,3.673
33.0,36.0,3.674
76.0,42.0,3.675
93.0,111.0,3.676
84.0,209.0,3.677
56.0,284.0,3.678
27.0,324.0,3.679
12.0,341.0,3.68
9.0,343.0,3.681
1.0,351.0,3.682
-14.0,344.0,3.683
-21.0,261.0,3.684
-19.0,72.0,3.685
-31.0,-129.0,3.686
-70.0,-208.0,3.687
-104.0,-148.0,3.688
-97.0,-63.0,3.689
-59.0,-25.0,3.69
-34.0,-18.0,3.691
-27.0,-41.0,3.692
-22.0,-132.0,3.693
-7.0,-224.0,3.694
5.0,-149.0,3.695
9.0,116.0,3.696
15.0,345.0,3.697
23.0,382.0,3.698
17.0,315.0,3.699
-15.0,331.0,3.7
-43.0,398.0,3.701
-34.0,378.0,3.702
13.0,287.0,3.703
58.0,231.0,3.704
68.0,158.0,3.705
41.0,-49.0,3.706
6.0,-320.0,3.707
-13.0,-466.0,3.708
-19.0,-437.0,3.709
-21.0,-335.0,3.71
-24.0,-204.0,3.711
-28.0,-40.0,3.712
-40.0,72.0,3.713
-55.0,28.0,3.714
-53.0,-125.0,3.715
-11.0,-237.0,3.716
58.0,-232.0,3.717
136.0,-135.0,3.718
191.0,-17.0,3.719
199.0,31.0,3.72
161.0,-38.0,3.721
87.0,-136.0,3.722
3.0,-125.0,3.723
-65.0,3.0,3.724
-103.0,125.0,3.725
-105.0,196.0,3.726
-81.0,292.0,3.727
-48.0,437.0,3.728
-23.0,532.0,3.729
-7.0,507.0,3.73
0.0,404.0,3.731
-13.0,270.0,3.732
-55.0,94.0,3.733
-99.0,-120.0,3.734
-115.0,-315.0,3.735
-103.0,-419.0,3.736
-79.0,-386.0,3.737
-49.0,-211.0,3.738
-9.0,-28.0,3.739
19.0,-33.0,3.74
27.0,-240.0,3.741
33.0,-422.0,3.742
57.0,-432.0,3.743
81.0,-381.0,3.744
72.0,-383.0,3.745
44.0,-329.0,3.746
31.0,-105.0,3.747
43.0,162.0,3.748
53.0,303.0,3.749
49.0,371.0,3.75
39.0,472.0,3.751
33.0,529.0,3.752
32.0,416.0,3.753
37.0,186.0,3.754
51.0,-27.0,3.755
60.0,-197.0,3.756
50.0,-318.0,3.757
18.0,-322.0,3.758
-16.0,-182.0,3.759
-39.0,-28.0,3.76
-54.0,33.0,3.761
-54.0,74.0,3.762
-27.0,172.0,3.763
10.0,259.0,3.764
26.0,252.0,3.765
6.0,182.0,3.766
-16.0,83.0,3.767
-20.0,-80.0,3.768
-23.0,-268.0,3.769
-50.0,-335.0,3.77
-78.0,-220.0,3.771
-73.0,-41.0,3.772
-44.0,72.0,3.773
-29.0,119.0,3.774
-31.0,126.0,3.775
-28.0,64.0,3.776
-12.0,-50.0,3.777
4.0,-145.0,3.778
29.0,-149.0,3.779
75.0,-88.0,3.78
129.0,-34.0,3.781
153.0,-5.0,3.782
136.0,14.0,3.783
97.0,55.0,3.784
59.0,132.0,3.785
23.0,208.0,3.786
-25.0,203.0,3.787
-97.0,107.0,3.788
-186.0,11.0,3.789
-243.0,-26.0,3.79
-207.0,-58.0,3.791
-78.0,-160.0,3.792
54.0,-328.0,3.793
110.0,-537.0,3.794
113.0,-766.0,3.795
119.0,-897.0,3.796
130.0,-767.0,3.797
102.0,-347.0,3.798
55.0,105.0,3.799
46.0,356.0,3.8
65.0,478.0,3.801
58.0,657.0,3.802
32.0,839.0,3.803
44.0,830.0,3.804
86.0,640.0,3.805
83.0,470.0,3.806
20.0,425.0,3.807
-39.0,434.0,3.808
-67.0,398.0,3.809
-99.0,284.0,3.81
-147.0,93.0,3.811
-175.0,-123.0,3.812
-163.0,-252.0,3.813
-139.0,-240.0,3.814
-116.0,-166.0,3.815
-78.0,-146.0,3.816
-31.0,-194.0,3.817
1.0,-278.0,3.818
15.0,-347.0,3.819
24.0,-379.0,3.82
34.0,-364.0,3.821
32.0,-312.0,3.822
20.0,-244.0,3.823
15.0,-155.0,3.824
18.0,-51.0,3.825
18.0,30.0,3.826
16.0,73.0,3.827
16.0,121.0,3.828
20.0,205.0,3.829
25.0,269.0,3.83
37.0,248.0,3.831
55.0,167.0,3.832
71.0,82.0,3.833
84.0,3.0,3.834
96.0,-88.0,3.835
93.0,-161.0,3.836
59.0,-164.0,3.837
1.0,-92.0,3.838
-33.0,4.0,3.839
-31.0,65.0,3.84
-35.0,74.0,3.841
-71.0,54.0,3.842
-97.0,10.0,3.843
-66.0,-87.0,3.844
-9.0,-244.0,3.845
18.0,-372.0,3.846
12.0,-311.0,3.847
15.0,-39.0,3.848
32.0,238.0,3.849
35.0,305.0,3.85
22.0,187.0,3.851
26.0,73.0,3.852
43.0,40.0,3.853
38.0,-3.0,3.854
11.0,-115.0,3.855
1.0,-232.0,3.856
27.0,-298.0,3.857
47.0,-340.0,3.858
28.0,-408.0,3.859
-19.0,-534.0,3.86
-41.0,-659.0,3.861
-29.0,-609.0,3.862
-7.0,-288.0,3.863
14.0,121.0,3.864
44.0,321.0,3.865
81.0,279.0,3.866
97.0,229.0,3.867
78.0,309.0,3.868
45.0,418.0,3.869
28.0,422.0,3.87
33.0,271.0,3.871
44.0,-24.0,3.872
43.0,-286.0,3.873
23.0,-213.0,3.874
-15.0,227.0,3.875
-57.0,636.0,3.876
-91.0,721.0,3.877
-114.0,647.0,3.878
-120.0,671.0,3.879
-105.0,675.0,3.88
-76.0,443.0,3.881
-54.0,175.0,3.882
-54.0,193.0,3.883
-64.0,395.0,3.884
-74.0,441.0,3.885
-84.0,297.0,3.886
-99.0,176.0,3.887
-116.0,124.0,3.888
-133.0,26.0,3.889
-139.0,-90.0,3.89
-118.0,-127.0,3.891
-47.0,-138.0,3.892
54.0,-220.0,3.893
135.0,-314.0,3.894
158.0,-359.0,3.895
137.0,-454.0,3.896
117.0,-658.0,3.897
112.0,-871.0,3.898
110.0,-925.0,3.899
94.0,-817.0,3.9
77.0,-632.0,3.901
75.0,-380.0,3.902
89.0,-90.0,3.903
95.0,125.0,3.904
78.0,210.0,3.905
47.0,240.0,3.906
20.0,262.0,3.907
-1.0,234.0,3.908
-20.0,154.0,3.909
-42.0,105.0,3.91
-64.0,108.0,3.911
-72.0,82.0,3.912
-60.0,0.0,3.913
-29.0,-58.0,3.914
7.0,-54.0,3.915
21.0,-43.0,3.916
0.0,-58.0,3.917
-58.0,-75.0,3.918
-112.0,-68.0,3.919
-128.0,-71.0,3.92
-97.0,-106.0,3.921
-39.0,-137.0,3.922
26.0,-148.0,3.923
85.0,-166.0,3.924
124.0,-206.0,3.925
134.0,-253.0,3.926
115.0,-284.0,3.927
77.0,-287.0,3.928
41.0,-234.0,3.929
29.0,-88.0,3.93
39.0,144.0,3.931
47.0,390.0,3.932
27.0,559.0,3.933
-1.0,599.0,3.934
-10.0,531.0,3.935
1.0,421.0,3.936
7.0,324.0,3.937
-11.0,225.0,3.938
-38.0,120.0,3.939
-53.0,10.0,3.94
-48.0,-87.0,3.941
-40.0,-154.0,3.942
-44.0,-181.0,3.943
-56.0,-153.0,3.944
-57.0,-70.0,3.945
-37.0,31.0,3.946
-9.0,90.0,3.947
4.0,78.0,3.948
4.0,24.0,3.949
9.0,-19.0,3.95
27.0,-20.0,3.951
46.0,-5.0,3.952
53.0,-19.0,3.953
48.0,-65.0,3.954
34.0,-98.0,3.955
6.0,-95.0,3.956
-24.0,-91.0,3.957
-34.0,-138.0,3.958
-11.0,-218.0,3.959
18.0,-257.0,3.96
24.0,-214.0,3.961
19.0,-111.0,3.962
28.0,-12.0,3.963
44.0,29.0,3.964
36.0,-3.0,3.965
12.0,-56.0,3.966
3.0,-37.0,3.967
11.0,67.0,3.968
8.0,134.0,3.969
-4.0,39.0,3.97
-3.0,-162.0,3.971
11.0,-288.0,3.972
14.0,-237.0,3.973
-5.0,-79.0,3.974
-19.0,78.0,3.975
-11.0,203.0,3.976
7.0,311.0,3.977
10.0,436.0,3.978
-2.0,584.0,3.979
-19.0,725.0,3.98
-25.0,796.0,3.981
-23.0,771.0,3.982
-22.0,694.0,3.983
-38.0,615.0,3.984
-73.0,505.0,3.985
-113.0,306.0,3.986
-134.0,37.0,3.987
-131.0,-219.0,3.988
-117.0,-409.0,3.989
-96.0,-540.0,3.99
-63.0,-609.0,3.991
-17.0,-602.0,3.992
28.0,-539.0,3.993
53.0,-471.0,3.994
53.0,-413.0,3.995
53.0,-323.0,3.996
67.0,-202.0,3.997
90.0,-86.0,3.998
100.0,-26.0,3.999
95.0,-18.0,4.0
90.0,-30.0,4.001
85.0,-40.0,4.002
71.0,-55.0,4.003
49.0,-74.0,4.004
31.0,-86.0,4.005
23.0,-91.0,4.006
11.0,-84.0,4.007
-5.0,-64.0,4.008
-12.0,-42.0,4.009
-6.0,-34.0,4.01
-2.0,-40.0,4.011
-7.0,-42.0,4.012
-14.0,-35.0,4.013
-16.0,-24.0,4.014
-12.0,-15.0,4.015
-3.0,-10.0,4.016
0.0,-7.0,4.017
0.0,-15.0,4.018
2.0,-18.0,4.019
10.0,-5.0,4.02
16.0,10.0,4.021
12.0,14.0,4.022
6.0,13.0,4.023
10.0,25.0,4.024
20.0,44.0,4.025
20.0,53.0,4.026
10.0,48.0,4.027
6.0,44.0,4.028
16.0,51.0,4.029
27.0,53.0,4.03
30.0,42.0,4.031
25.0,29.0,4.032
14.0,24.0,4.033
0.0,31.0,4.034
-1.0,40.0,4.035
6.0,40.0,4.036
8.0,33.0,4.037
-10.0,22.0,4.038
-32.0,19.0,4.039
-37.0,26.0,4.04
-29.0,25.0,4.041
-21.0,20.0,4.042
-13.0,15.0,4.043
3.0,16.0,4.044
13.0,19.0,4.045
5.0,21.0,4.046
-7.0,24.0,4.047
-7.0,22.0,4.048
-5.0,17.0,4.049
-14.0,13.0,4.05
-24.0,15.0,4.051
-19.0,16.0,4.052
-7.0,11.0,4.053
-3.0,5.0,4.054
-3.0,7.0,4.055
5.0,10.0,4.056
16.0,10.0,4.057
14.0,4.0,4.058
9.0,0.0,4.059
5.0,-2.0,4.06
3.0,-8.0,4.061
-1.0,-9.0,4.062
-1.0,-9.0,4.063
7.0,-13.0,4.064
8.0,-22.0,4.065
-1.0,-33.0,4.066
-4.0,-44.0,4.067
4.0,-53.0,4.068
11.0,-55.0,4.069
5.0,-35.0,4.07
-2.0,-6.0,4.071
-1.0,10.0,4.072
3.0,6.0,4.073
4.0,-4.0,4.074
4.0,-8.0,4.075
9.0,-12.0,4.076
15.0,-15.0,4.077
16.0,-18.0,4.078
16.0,-16.0,4.079
12.0,-18.0,4.08
4.0,-22.0,4.081
-6.0,2.0,4.082
-14.0,62.0,4.083
-16.0,129.0,4.084
-11.0,160.0,4.085
0.0,146.0,4.086
12.0,110.0,4.087
15.0,75.0,4.088
11.0,38.0,4.089
7.0,-1.0,4.09
7.0,-36.0,4.091
4.0,-62.0,4.092
-2.0,-92.0,4.093
-3.0,-139.0,4.094
1.0,-190.0,4.095
7.0,-203.0,4.096
8.0,-155.0,4.097
8.0,-56.0,4.098
9.0,42.0,4.099
5.0,101.0,4.1
-7.0,113.0,4.101
-12.0,114.0,4.102
-2.0,114.0,4.103
9.0,108.0,4.104
6.0,95.0,4.105
-10.0,92.0,4.106
-22.0,100.0,4.107
-29.0,101.0,4.108
-35.0,84.0,4.109
-38.0,60.0,4.11
-29.0,39.0,4.111
-11.0,12.0,4.112
2.0,-16.0,4.113
3.0,-34.0,4.114
-1.0,-40.0,4.115
-9.0,-50.0,4.116
-15.0,-65.0,4.117
-19.0,-78.0,4.118
-15.0,-76.0,4.119
0.0,-69.0,4.12
22.0,-69.0,4.121
45.0,-74.0,4.122
61.0,-77.0,4.123
60.0,-78.0,4.124
35.0,-68.0,4.125
-1.0,-45.0,4.126
-28.0,-26.0,4.127
-38.0,-22.0,4.128
-35.0,-25.0,4.129
-25.0,-18.0,4.13
-11.0,-7.0,4.131
16.0,-5.0,4.132
58.0,-12.0,4.133
100.0,-12.0,4.134
113.0,-4.0,4.135
84.0,0.0,4.136
43.0,-5.0,4.137
23.0,-11.0,4.138
33.0,-8.0,4.139
33.0,0.0,4.14
6.0,1.0,4.141
-19.0,0.0,4.142
-15.0,0.0,4.143
2.0,3.0,4.144
-1.0,7.0,4.145
-23.0,14.0,4.146
-35.0,21.0,4.147
-35.0,27.0,4.148
-38.0,26.0,4.149
-39.0,23.0,4.15
-29.0,20.0,4.151
-16.0,14.0,4.152
-10.0,6.0,4.153
-9.0,-4.0,4.154
-4.0,-12.0,4.155
1.0,-12.0,4.156
-2.0,-1.0,4.157
-8.0,12.0,4.158
-7.0,23.0,4.159
-3.0,27.0,4.16
-1.0,22.0,4.161
9.0,18.0,4.162
36.0,15.0,4.163
61.0,14.0,4.164
55.0,12.0,4.165
17.0,9.0,4.166
-22.0,8.0,4.167
-39.0,8.0,4.168
-46.0,8.0,4.169
-52.0,8.0,4.17
-49.0,1.0,4.171
-30.0,-8.0,4.172
-2.0,-14.0,4.173
18.0,-17.0,4.174
25.0,-19.0,4.175
27.0,-25.0,4.176
25.0,-35.0,4.177
20.0,-44.0,4.178
15.0,-46.0,4.179
8.0,-40.0,4.18
-1.0,-30.0,4.181
-8.0,-15.0,4.182
-4.0,-1.0,4.183
13.0,0.0,4.184
26.0,-12.0,4.185
26.0,-28.0,4.186
20.0,-28.0,4.187
17.0,-3.0,4.188
13.0,36.0,4.189
2.0,55.0,4.19
-5.0,14.0,4.191
2.0,-91.0,4.192
15.0,-202.0,4.193
17.0,-243.0,4.194
14.0,-212.0,4.195
18.0,-174.0,4.196
31.0,-167.0,4.197
36.0,-144.0,4.198
28.0,-46.0,4.199
13.0,100.0,4.2
0.0,210.0,4.201
-7.0,274.0,4.202
-5.0,345.0,4.203
-3.0,439.0,4.204
-11.0,497.0,4.205
-35.0,462.0,4.206
-62.0,340.0,4.207
-79.0,192.0,4.208
-86.0,70.0,4.209
-81.0,-10.0,4.21
-63.0,-73.0,4.211
-43.0,-150.0,4.212
-34.0,-229.0,4.213
-30.0,-262.0,4.214
-14.0,-234.0,4.215
8.0,-175.0,4.216
16.0,-104.0,4.217
5.0,-9.0,4.218
0.0,102.0,4.219
18.0,179.0,4.22
46.0,189.0,4.221
61.0,159.0,4.222
63.0,122.0,4.223
66.0,86.0,4.224
66.0,37.0,4.225
45.0,-20.0,4.226
8.0,-73.0,4.227
-23.0,-112.0,4.228
-26.0,-133.0,4.229
-10.0,-138.0,4.23
6.0,-143.0,4.231
14.0,-154.0,4.232
16.0,-154.0,4.233
16.0,-132.0,4.234
7.0,-103.0,4.235
-4.0,-91.0,4.236
-5.0,-89.0,4.237
5.0,-81.0,4.238
15.0,-68.0,4.239
16.0,-63.0,4.24
14.0,-66.0,4.241
20.0,-57.0,4.242
27.0,-46.0,4.243
27.0,-45.0,4.244
23.0,-49.0,4.245
23.0,-46.0,4.246
31.0,-34.0,4.247
44.0,-16.0,4.248
48.0,8.0,4.249
37.0,40.0,4.25
16.0,62.0,4.251
5.0,53.0,4.252
11.0,13.0,4.253
13.0,-55.0,4.254
-2.0,-150.0,4.255
-17.0,-259.0,4.256
-8.0,-338.0,4.257
15.0,-355.0,4.258
35.0,-291.0,4.259
39.0,-160.0,4.26
42.0,13.0,4.261
44.0,218.0,4.262
35.0,422.0,4.263
8.0,564.0,4.264
-20.0,602.0,4.265
-35.0,556.0,4.266
-37.0,476.0,4.267
-37.0,386.0,4.268
-45.0,273.0,4.269
-67.0,146.0,4.27
-96.0,31.0,4.271
-117.0,-55.0,4.272
-118.0,-117.0,4.273
-101.0,-141.0,4.274
-78.0,-120.0,4.275
-53.0,-104.0,4.276
-29.0,-150.0,4.277
-11.0,-254.0,4.278
-5.0,-316.0,4.279
-10.0,-264.0,4.28
-15.0,-136.0,4.281
-9.0,-10.0,4.282
6.0,70.0,4.283
32.0,109.0,4.284
59.0,109.0,4.285
74.0,65.0,4.286
74.0,-2.0,4.287
69.0,-45.0,4.288
66.0,-35.0,4.289
58.0,4.0,4.29
38.0,34.0,4.291
13.0,44.0,4.292
-9.0,64.0,4.293
-25.0,116.0,4.294
-27.0,170.0,4.295
-6.0,176.0,4.296
31.0,128.0,4.297
56.0,54.0,4.298
60.0,-5.0,4.299
59.0,-39.0,4.3
39.0,-64.0,4.301
13.0,-81.0,4.302
-25.0,-98.0,4.303
-57.0,-118.0,4.304
-67.0,-134.0,4.305
-74.0,-145.0,4.306
-70.0,-155.0,4.307
-61.0,-164.0,4.308
-36.0,-153.0,4.309
-17.0,-114.0,4.31
-20.0,-73.0,4.311
-19.0,-59.0,4.312
-4.0,-59.0,4.313
15.0,-48.0,4.314
44.0,-31.0,4.315
68.0,-34.0,4.316
76.0,-42.0,4.317
82.0,-19.0,4.318
74.0,33.0,4.319
63.0,57.0,4.32
49.0,-4.0,4.321
39.0,-122.0,4.322
45.0,-215.0,4.323
59.0,-210.0,4.324
47.0,-112.0,4.325
15.0,-17.0,4.326
0.0,-10.0,4.327
16.0,-56.0,4.328
26.0,-38.0,4.329
14.0,80.0,4.33
4.0,199.0,4.331
14.0,223.0,4.332
21.0,191.0,4.333
6.0,199.0,4.334
-8.0,256.0,4.335
-2.0,302.0,4.336
10.0,304.0,4.337
14.0,275.0,4.338
8.0,220.0,4.339
8.0,123.0,4.34
6.0,-3.0,4.341
-10.0,-86.0,4.342
-39.0,-102.0,4.343
-79.0,-121.0,4.344
-127.0,-235.0,4.345
-162.0,-387.0,4.346
-158.0,-412.0,4.347
-124.0,-234.0,4.348
-86.0,1.0,4.349
-53.0,135.0,4.35
-18.0,201.0,4.351
12.0,317.0,4.352
24.0,461.0,4.353
31.0,500.0,4.354
51.0,411.0,4.355
77.0,296.0,4.356
84.0,212.0,4.357
64.0,102.0,4.358
39.0,-38.0,4.359
15.0,-150.0,4.36
-4.0,-211.0,4.361
-27.0,-239.0,4.362
-60.0,-228.0,4.363
-84.0,-153.0,4.364
-76.0,-69.0,4.365
-49.0,-61.0,4.366
33.0,-131.0,4.367
89.0,-178.0,4.368
63.0,-174.0,4.369
35.0,-190.0,4.37
-2.0,-278.0,4.371
-30.0,-390.0,4.372
-30.0,-436.0,4.373
-23.0,-377.0,4.374
0.0,-234.0,4.375
23.0,-71.0,4.376
48.0,47.0,4.377
65.0,124.0,4.378
59.0,192.0,4.379
62.0,253.0,4.38
61.0,265.0,4.381
44.0,228.0,4.382
30.0,194.0,4.383
29.0,183.0,4.384
20.0,159.0,4.385
-3.0,93.0,4.386
-10.0,-5.0,4.387
11.0,-123.0,4.388
29.0,-245.0,4.389
25.0,-309.0,4.39
22.0,-270.0,4.391
41.0,-207.0,4.392
61.0,-229.0,4.393
51.0,-290.0,4.394
18.0,-220.0,4.395
1.0,29.0,4.396
14.0,307.0,4.397
36.0,500.0,4.398
35.0,588.0,4.399
11.0,600.0,4.4
-18.0,514.0,4.401
-36.0,319.0,4.402
-58.0,86.0,4.403
-87.0,-84.0,4.404
-106.0,-143.0,4.405
-92.0,-113.0,4.406
-49.0,-52.0,4.407
1.0,-23.0,4.408
47.0,-54.0,4.409
80.0,-98.0,4.41
64.0,-89.0,4.411
-13.0,-27.0,4.412
-109.0,38.0,4.413
-134.0,72.0,4.414
-74.0,78.0,4.415
-6.0,67.0,4.416
1.0,41.0,4.417
-27.0,-1.0,4.418
-22.0,-44.0,4.419
10.0,-78.0,4.42
17.0,-102.0,4.421
-9.0,-117.0,4.422
-16.0,-133.0,4.423
8.0,-156.0,4.424
15.0,-171.0,4.425
-17.0,-155.0,4.426
-39.0,-112.0,4.427
-17.0,-79.0,4.428
25.0,-73.0,4.429
52.0,-67.0,4.43
60.0,-25.0,4.431
58.0,43.0,4.432
49.0,84.0,4.433
36.0,61.0,4.434
25.0,0.0,4.435
11.0,-46.0,4.436
-7.0,-56.0,4.437
-11.0,-47.0,4.438
14.0,-38.0,4.439
33.0,-32.0,4.44
37.0,-40.0,4.441
39.0,-65.0,4.442
37.0,-91.0,4.443
34.0,-89.0,4.444
31.0,-51.0,4.445
29.0,-6.0,4.446
27.0,30.0,4.447
25.0,73.0,4.448
19.0,136.0,4.449
12.0,195.0,4.45
2.0,221.0,4.451
-8.0,212.0,4.452
-20.0,189.0,4.453
-27.0,154.0,4.454
-15.0,105.0,4.455
-2.0,43.0,4.456
11.0,-16.0,4.457
21.0,-68.0,4.458
13.0,-95.0,4.459
-3.0,-94.0,4.46
-21.0,-86.0,4.461
-31.0,-76.0,4.462
-26.0,-48.0,4.463
-12.0,-4.0,4.464
-1.0,26.0,4.465
-5.0,33.0,4.466
-20.0,41.0,4.467
-34.0,75.0,4.468
-34.0,114.0,4.469
-20.0,132.0,4.47
-2.0,126.0,4.471
7.0,103.0,4.472
7.0,51.0,4.473
11.0,-12.0,4.474
19.0,-37.0,4.475
15.0,-14.0,4.476
-3.0,16.0,4.477
-22.0,9.0,4.478
-22.0,-25.0,4.479
-15.0,-65.0,4.48
-22.0,-110.0,4.481
-47.0,-163.0,4.482
-59.0,-199.0,4.483
-43.0,-184.0,4.484
-15.0,-122.0,4.485
3.0,-50.0,4.486
14.0,2.0,4.487
26.0,33.0,4.488
39.0,54.0,4.489
41.0,67.0,4.49
37.0,64.0,4.491
42.0,42.0,4.492
56.0,13.0,4.493
53.0,6.0,4.494
14.0,36.0,4.495
-37.0,75.0,4.496
-59.0,75.0,4.497
-44.0,25.0,4.498
-24.0,-32.0,4.499
-33.0,-48.0,4.5
-54.0,-29.0,4.501
-46.0,-15.0,4.502
-10.0,-32.0,4.503
18.0,-52.0,4.504
20.0,-53.0,4.505
17.0,-45.0,4.506
26.0,-43.0,4.507
38.0,-42.0,4.508
40.0,-29.0,4.509
41.0,-14.0,4.51
51.0,-9.0,4.511
62.0,-9.0,4.512
63.0,-3.0,4.513
60.0,-1.0,4.514
55.0,-11.0,4.515
38.0,-23.0,4.516
8.0,-16.0,4.517
-24.0,4.0,4.518
-40.0,22.0,4.519
-51.0,28.0,4.52
-47.0,11.0,4.521
-36.0,-27.0,4.522
-9.0,-99.0,4.523
13.0,-204.0,4.524
25.0,-318.0,4.525
34.0,-389.0,4.526
32.0,-358.0,4.527
32.0,-209.0,4.528
37.0,-5.0,4.529
40.0,175.0,4.53
37.0,306.0,4.531
35.0,408.0,4.532
35.0,477.0,4.533
33.0,479.0,4.534
25.0,398.0,4.535
13.0,269.0,4.536
-5.0,148.0,4.537
-27.0,44.0,4.538
-61.0,-17.0,4.539
-96.0,-19.0,4.54
-121.0,23.0,4.541
-127.0,69.0,4.542
-112.0,81.0,4.543
-86.0,46.0,4.544
-62.0,-29.0,4.545
-42.0,-129.0,4.546
-25.0,-230.0,4.547
-8.0,-291.0,4.548
7.0,-272.0,4.549
20.0,-171.0,4.55
32.0,-47.0,4.551
45.0,31.0,4.552
53.0,53.0,4.553
53.0,61.0,4.554
47.0,88.0,4.555
42.0,124.0,4.556
41.0,145.0,4.557
41.0,147.0,4.558
39.0,130.0,4.559
31.0,83.0,4.56
18.0,13.0,4.561
10.0,-43.0,4.562
12.0,-64.0,4.563
11.0,-69.0,4.564
-2.0,-84.0,4.565
-22.0,-99.0,4.566
-26.0,-94.0,4.567
-12.0,-69.0,4.568
1.0,-49.0,4.569
3.0,-41.0,4.57
8.0,-43.0,4.571
29.0,-50.0,4.572
52.0,-61.0,4.573
50.0,-65.0,4.574
23.0,-62.0,4.575
0.0,-60.0,4.576
1.0,-59.0,4.577
14.0,-58.0,4.578
9.0,-45.0,4.579
-26.0,-31.0,4.58
-61.0,-26.0,4.581
-59.0,-21.0,4.582
-27.0,-9.0,4.583
-7.0,5.0,4.584
-16.0,14.0,4.585
-20.0,12.0,4.586
7.0,4.0,4.587
38.0,-1.0,4.588
39.0,-3.0,4.589
21.0,-16.0,4.59
13.0,-60.0,4.591
12.0,-119.0,4.592
7.0,-144.0,4.593
3.0,-114.0,4.594
11.0,-57.0,4.595
21.0,-15.0,4.596
24.0,17.0,4.597
22.0,66.0,4.598
23.0,114.0,4.599
20.0,124.0,4.6
6.0,103.0,4.601
-3.0,113.0,4.602
-1.0,172.0,4.603
-1.0,235.0,4.604
-7.0,254.0,4.605
-13.0,229.0,4.606
-15.0,178.0,4.607
-20.0,109.0,4.608
-28.0,37.0,4.609
-34.0,-16.0,4.61
-30.0,-41.0,4.611
-25.0,-54.0,4.612
-23.0,-67.0,4.613
-20.0,-71.0,4.614
-13.0,-58.0,4.615
-5.0,-44.0,4.616
2.0,-45.0,4.617
12.0,-63.0,4.618
24.0,-85.0,4.619
22.0,-98.0,4.62
11.0,-97.0,4.621
8.0,-78.0,4.622
15.0,-52.0,4.623
22.0,-32.0,4.624
22.0,-25.0,4.625
22.0,-21.0,4.626
24.0,-10.0,4.627
18.0,2.0,4.628
7.0,11.0,4.629
0.0,15.0,4.63
-1.0,13.0,4.631
-7.0,-1.0,4.632
-8.0,-23.0,4.633
10.0,-34.0,4.634
33.0,-21.0,4.635
41.0,6.0,4.636
41.0,13.0,4.637
56.0,-34.0,4.638
86.0,-126.0,4.639
82.0,-203.0,4.64
25.0,-219.0,4.641
-40.0,-171.0,4.642
-66.0,-93.0,4.643
-65.0,-3.0,4.644
-82.0,105.0,4.645
-109.0,207.0,4.646
-101.0,253.0,4.647
-50.0,236.0,4.648
-5.0,205.0,4.649
6.0,191.0,4.65
3.0,162.0,4.651
7.0,92.0,4.652
10.0,23.0,4.653
-4.0,0.0,4.654
-19.0,13.0,4.655
-21.0,17.0,4.656
-8.0,10.0,4.657
-3.0,10.0,4.658
-14.0,10.0,4.659
-34.0,-6.0,4.66
-44.0,-37.0,4.661
-31.0,-49.0,4.662
-3.0,-43.0,4.663
23.0,-41.0,4.664
43.0,-50.0,4.665
70.0,-61.0,4.666
100.0,-64.0,4.667
104.0,-61.0,4.668
57.0,-53.0,4.669
-8.0,-41.0,4.67
-27.0,-32.0,4.671
10.0,-27.0,4.672
40.0,-27.0,4.673
19.0,-31.0,4.674
-19.0,-37.0,4.675
-23.0,-44.0,4.676
2.0,-47.0,4.677
20.0,-57.0,4.678
17.0,-74.0,4.679
13.0,-87.0,4.68
14.0,-90.0,4.681
11.0,-80.0,4.682
7.0,-56.0,4.683
15.0,-8.0,4.684
19.0,57.0,4.685
9.0,115.0,4.686
-5.0,146.0,4.687
-7.0,150.0,4.688
-3.0,143.0,4.689
-7.0,129.0,4.69
-11.0,104.0,4.691
-7.0,70.0,4.692
-3.0,37.0,4.693
-10.0,7.0,4.694
-20.0,-17.0,4.695
-25.0,-28.0,4.696
-24.0,-31.0,4.697
-22.0,-48.0,4.698
-14.0,-81.0,4.699
-5.0,-109.0,4.7
2.0,-108.0,4.701
4.0,-66.0,4.702
9.0,-7.0,4.703
18.0,48.0,4.704
23.0,83.0,4.705
17.0,88.0,4.706
7.0,70.0,4.707
0.0,49.0,4.708
-1.0,36.0,4.709
-1.0,25.0,4.71
0.0,7.0,4.711
0.0,-11.0,4.712
-2.0,-16.0,4.713
-4.0,-12.0,4.714
-3.0,-13.0,4.715
-1.0,-27.0,4.716
-1.0,-38.0,4.717
-4.0,-43.0,4.718
-2.0,-43.0,4.719
1.0,-50.0,4.72
2.0,-66.0,4.721
1.0,-76.0,4.722
5.0,-83.0,4.723
16.0,-102.0,4.724
23.0,-136.0,4.725
18.0,-159.0,4.726
5.0,-145.0,4.727
-2.0,-93.0,4.728
-1.0,-21.0,4.729
6.0,45.0,4.73
15.0,102.0,4.731
19.0,147.0,4.732
21.0,175.0,4.733
26.0,179.0,4.734
33.0,171.0,4.735
35.0,167.0,4.736
24.0,170.0,4.737
-3.0,163.0,4.738
-32.0,138.0,4.739
-55.0,104.0,4.74
-70.0,67.0,4.741
-73.0,36.0,4.742
-60.0,3.0,4.743
-33.0,-19.0,4.744
-15.0,-33.0,4.745
-13.0,-48.0,4.746
-23.0,-71.0,4.747
-33.0,-97.0,4.748
-33.0,-136.0,4.749
-24.0,-210.0,4.75
-15.0,-309.0,4.751
-17.0,-381.0,4.752
-26.0,-381.0,4.753
-31.0,-322.0,4.754
-17.0,-239.0,4.755
16.0,-136.0,4.756
49.0,-8.0,4.757
77.0,133.0,4.758
100.0,234.0,4.759
120.0,270.0,4.76
134.0,265.0,4.761
138.0,274.0,4.762
132.0,311.0,4.763
107.0,361.0,4.764
63.0,386.0,4.765
16.0,360.0,4.766
-12.0,281.0,4.767
-18.0,184.0,4.768
-24.0,101.0,4.769
-45.0,42.0,4.77
-66.0,-10.0,4.771
-73.0,-68.0,4.772
-69.0,-126.0,4.773
-64.0,-171.0,4.774
-59.0,-193.0,4.775
-49.0,-193.0,4.776
-33.0,-175.0,4.777
-23.0,-150.0,4.778
-17.0,-123.0,4.779
-11.0,-102.0,4.78
-7.0,-91.0,4.781
-2.0,-87.0,4.782
2.0,-89.0,4.783
7.0,-93.0,4.784
11.0,-94.0,4.785
13.0,-87.0,4.786
10.0,-69.0,4.787
8.0,-44.0,4.788
10.0,-19.0,4.789
11.0,-2.0,4.79
7.0,11.0,4.791
5.0,26.0,4.792
11.0,38.0,4.793
19.0,42.0,4.794
27.0,41.0,4.795
33.0,41.0,4.796
30.0,39.0,4.797
25.0,21.0,4.798
10.0,-7.0,4.799
-13.0,-26.0,4.8
-37.0,-27.0,4.801
-50.0,-16.0,4.802
-40.0,-6.0,4.803
-20.0,0.0,4.804
-14.0,6.0,4.805
-15.0,6.0,4.806
-8.0,-9.0,4.807
7.0,-38.0,4.808
10.0,-77.0,4.809
-6.0,-142.0,4.81
-19.0,-237.0,4.811
-13.0,-315.0,4.812
8.0,-304.0,4.813
31.0,-176.0,4.814
54.0,12.0,4.815
76.0,188.0,4.816
94.0,313.0,4.817
111.0,395.0,4.818
118.0,417.0,4.819
97.0,358.0,4.82
35.0,245.0,4.821
-41.0,138.0,4.822
-78.0,57.0,4.823
-60.0,-21.0,4.824
-25.0,-104.0,4.825
-20.0,-156.0,4.826
-39.0,-145.0,4.827
-46.0,-87.0,4.828
-27.0,-26.0,4.829
0.0,16.0,4.83
9.0,40.0,4.831
-5.0,57.0,4.832
-26.0,80.0,4.833
-31.0,100.0,4.834
-23.0,92.0,4.835
-21.0,12.0,4.836
-25.0,-150.0,4.837
-26.0,-383.0,4.838
-21.0,-563.0,4.839
-19.0,-575.0,4.84
-22.0,-412.0,4.841
-19.0,-175.0,4.842
0.0,45.0,4.843
20.0,238.0,4.844
25.0,395.0,4.845
23.0,469.0,4.846
32.0,444.0,4.847
49.0,395.0,4.848
51.0,390.0,4.849
31.0,399.0,4.85
0.0,358.0,4.851
-30.0,271.0,4.852
-57.0,179.0,4.853
-79.0,86.0,4.854
-82.0,-13.0,4.855
-60.0,-92.0,4.856
-26.0,-133.0,4.857
-6.0,-171.0,4.858
-3.0,-222.0,4.859
-10.0,-260.0,4.86
-12.0,-250.0,4.861
-14.0,-205.0,4.862
-26.0,-160.0,4.863
-44.0,-129.0,4.864
-55.0,-110.0,4.865
-47.0,-120.0,4.866
-23.0,-162.0,4.867
3.0,-198.0,4.868
23.0,-206.0,4.869
43.0,-203.0,4.87
81.0,-202.0,4.871
143.0,-171.0,4.872
205.0,-80.0,4.873
230.0,37.0,4.874
199.0,132.0,4.875
137.0,194.0,4.876
89.0,232.0,4.877
65.0,234.0,4.878
54.0,203.0,4.879
32.0,170.0,4.88
1.0,135.0,4.881
-17.0,88.0,4.882
-15.0,2.0,4.883
-8.0,-68.0,4.884
-20.0,-93.0,4.885
-50.0,-103.0,4.886
-76.0,-61.0,4.887
-78.0,-25.0,4.888
-61.0,-4.0,4.889
-49.0,15.0,4.89
-50.0,29.0,4.891
-54.0,31.0,4.892
-49.0,-2.0,4.893
-36.0,-27.0,4.894
-20.0,-23.0,4.895
-4.0,-10.0,4.896
10.0,27.0,4.897
19.0,65.0,4.898
23.0,93.0,4.899
16.0,101.0,4.9
-1.0,86.0,4.901
-22.0,63.0,4.902
-22.0,34.0,4.903
6.0,-1.0,4.904
33.0,-31.0,4.905
28.0,-42.0,4.906
-1.0,-40.0,4.907
-29.0,-41.0,4.908
-51.0,-49.0,4.909
-72.0,-54.0,4.91
-85.0,-50.0,4.911
-74.0,-48.0,4.912
-45.0,-46.0,4.913
-16.0,-34.0,4.914
7.0,-21.0,4.915
33.0,-31.0,4.916
55.0,-60.0,4.917
61.0,-87.0,4.918
51.0,-91.0,4.919
31.0,-90.0,4.92
3.0,-107.0,4.921
-24.0,-120.0,4.922
-35.0,-92.0,4.923
-24.0,-17.0,4.924
-7.0,65.0,4.925
-2.0,122.0,4.926
-7.0,151.0,4.927
-10.0,169.0,4.928
-6.0,173.0,4.929
-4.0,151.0,4.93
-4.0,106.0,4.931
3.0,52.0,4.932
34.0,0.0,4.933
75.0,-56.0,4.934
93.0,-146.0,4.935
73.0,-296.0,4.936
43.0,-470.0,4.937
27.0,-598.0,4.938
21.0,-560.0,4.939
4.0,-332.0,4.94
-16.0,-22.0,4.941
-17.0,243.0,4.942
-11.0,410.0,4.943
-25.0,498.0,4.944
-61.0,521.0,4.945
-78.0,493.0,4.946
-55.0,455.0,4.947
-19.0,437.0,4.948
-3.0,420.0,4.949
0.0,369.0,4.95
18.0,278.0,4.951
51.0,175.0,4.952
71.0,84.0,4.953
56.0,4.0,4.954
25.0,-76.0,4.955
7.0,-165.0,4.956
6.0,-244.0,4.957
12.0,-293.0,4.958
5.0,-294.0,4.959
-5.0,-280.0,4.96
-9.0,-221.0,4.961
4.0,-170.0,4.962
30.0,-143.0,4.963
59.0,-134.0,4.964
71.0,-182.0,4.965
53.0,-223.0,4.966
14.0,-243.0,4.967
-28.0,-253.0,4.968
-53.0,-235.0,4.969
-56.0,-224.0,4.97
-42.0,-238.0,4.971
-24.0,-230.0,4.972
-5.0,-154.0,4.973
24.0,-56.0,4.974
53.0,109.0,4.975
62.0,253.0,4.976
48.0,333.0,4.977
24.0,411.0,4.978
1.0,463.0,4.979
-30.0,455.0,4.98
-77.0,396.0,4.981
-114.0,333.0,4.982
-106.0,239.0,4.983
-63.0,73.0,4.984
-27.0,-101.0,4.985
-18.0,-159.0,4.986
-13.0,-99.0,4.987
5.0,-50.0,4.988
22.0,-92.0,4.989
23.0,-163.0,4.99
16.0,-183.0,4.991
8.0,-164.0,4.992
1.0,-150.0,4.993
-9.0,-128.0,4.994
-16.0,-63.0,4.995
-20.0,31.0,4.996
-25.0,114.0,4.997
-31.0,173.0,4.998
-18.0,197.0,4.999
9.0,176.0,5.0
25.0,116.0,5.001
24.0,63.0,5.002
29.0,44.0,5.003
46.0,45.0,5.004
55.0,37.0,5.005
37.0,17.0,5.006
11.0,-11.0,5.007
1.0,-41.0,5.008
19.0,-70.0,5.009
57.0,-93.0,5.01
102.0,-122.0,5.011
121.0,-174.0,5.012
77.0,-227.0,5.013
-13.0,-241.0,5.014
-77.0,-224.0,5.015
-65.0,-236.0,5.016
-12.0,-294.0,5.017
32.0,-344.0,5.018
47.0,-288.0,5.019
53.0,-120.0,5.02
56.0,65.0,5.021
41.0,197.0,5.022
16.0,261.0,5.023
10.0,263.0,5.024
19.0,197.0,5.025
12.0,92.0,5.026
-12.0,30.0,5.027
-33.0,70.0,5.028
-45.0,176.0,5.029
-64.0,247.0,5.03
-95.0,221.0,5.031
-117.0,115.0,5.032
-108.0,-41.0,5.033
-61.0,-278.0,5.034
4.0,-618.0,5.035
49.0,-943.0,5.036
48.0,-1017.0,5.037
23.0,-696.0,5.038
22.0,-142.0,5.039
50.0,314.0,5.04
65.0,514.0,5.041
55.0,593.0,5.042
51.0,692.0,5.043
48.0,776.0,5.044
-3.0,760.0,5.045
-91.0,685.0,5.046
-126.0,627.0,5.047
-58.0,577.0,5.048
40.0,488.0,5.049
80.0,370.0,5.05
68.0,252.0,5.051
39.0,115.0,5.052
-25.0,-68.0,5.053
-138.0,-262.0,5.054
-217.0,-415.0,5.055
-178.0,-521.0,5.056
-73.0,-583.0,5.057
-9.0,-583.0,5.058
-18.0,-485.0,5.059
-21.0,-308.0,5.06
35.0,-130.0,5.061
103.0,-8.0,5.062
120.0,47.0,5.063
89.0,79.0,5.064
53.0,123.0,5.065
40.0,170.0,5.066
48.0,182.0,5.067
59.0,145.0,5.068
62.0,89.0,5.069
54.0,33.0,5.07
43.0,-29.0,5.071
30.0,-100.0,5.072
10.0,-169.0,5.073
-5.0,-249.0,5.074
3.0,-354.0,5.075
32.0,-439.0,5.076
46.0,-430.0,5.077
32.0,-312.0,5.078
12.0,-153.0,5.079
0.0,-10.0,5.08
-6.0,108.0,5.081
-17.0,196.0,5.082
-22.0,224.0,5.083
-22.0,199.0,5.084
-29.0,166.0,5.085
-42.0,146.0,5.086
-39.0,120.0,5.087
-28.0,95.0,5.088
-47.0,106.0,5.089
-90.0,144.0,5.09
-96.0,141.0,5.091
-42.0,61.0,5.092
23.0,-55.0,5.093
48.0,-152.0,5.094
55.0,-203.0,5.095
77.0,-212.0,5.096
97.0,-207.0,5.097
76.0,-237.0,5.098
34.0,-307.0,5.099
22.0,-353.0,5.1
35.0,-295.0,5.101
33.0,-139.0,5.102
10.0,17.0,5.103
3.0,115.0,5.104
13.0,177.0,5.105
-3.0,230.0,5.106
-51.0,263.0,5.107
-93.0,281.0,5.108
-113.0,323.0,5.109
-136.0,389.0,5.11
-168.0,415.0,5.111
-170.0,353.0,5.112
-116.0,232.0,5.113
-34.0,101.0,5.114
30.0,-27.0,5.115
80.0,-164.0,5.116
130.0,-290.0,5.117
178.0,56.0,5.118
198.0,0.0,5.119
188.0,-59.0,5.12
164.0,-120.0,5.121
132.0,-182.0,5.122
83.0,-246.0,5.123
28.0,-310.0,5.124
-8.0,-373.0,5.125
-23.0,-379.0,5.126
-42.0,-215.0,5.127
-78.0,-58.0,5.128
-106.0,82.0,5.129
-96.0,209.0,5.13
-50.0,298.0,5.131
-11.0,365.0,5.132
-20.0,365.0,5.133
-69.0,350.0,5.134
-92.0,296.0,5.135
-41.0,248.0,5.136
36.0,220.0,5.137
50.0,86.0,5.138
-17.0,-27.0,5.139
-78.0,-143.0,5.14
-44.0,-264.0,5.141
52.0,-387.0,5.142
117.0,-514.0,5.143
120.0,-640.0,5.144
109.0,-764.0,5.145
107.0,-776.0,5.146
98.0,-453.0,5.147
66.0,-141.0,5.148
23.0,136.0,5.149
-12.0,388.0,5.15
-21.0,564.0,5.151
-11.0,696.0,5.152
-5.0,695.0,5.153
-34.0,667.0,5.154
-90.0,560.0,5.155
-134.0,465.0,5.156
-143.0,410.0,5.157
-143.0,349.0,5.158
-138.0,292.0,5.159
-107.0,281.0,5.16
-34.0,252.0,5.161
43.0,147.0,5.162
74.0,-7.0,5.163
50.0,-140.0,5.164
1.0,-230.0,5.165
-44.0,-294.0,5.166
-65.0,-357.0,5.167
-55.0,-410.0,5.168
-17.0,-432.0,5.169
22.0,-410.0,5.17
40.0,-367.0,5.171
40.0,-332.0,5.172
35.0,-307.0,5.173
31.0,-276.0,5.174
17.0,-246.0,5.175
-10.0,-226.0,5.176
-23.0,-201.0,5.177
-10.0,-143.0,5.178
11.0,-59.0,5.179
2.0,-1.0,5.18
-26.0,3.0,5.181
-35.0,-19.0,5.182
-10.0,-50.0,5.183
42.0,-101.0,5.184
111.0,-167.0,5.185
180.0,-207.0,5.186
221.0,-172.0,5.187
220.0,-61.0,5.188
202.0,82.0,5.189
178.0,213.0,5.19
122.0,298.0,5.191
35.0,322.0,5.192
-23.0,291.0,5.193
-20.0,234.0,5.194
5.0,181.0,5.195
0.0,132.0,5.196
-23.0,78.0,5.197
-38.0,34.0,5.198
-49.0,35.0,5.199
-79.0,58.0,5.2
-113.0,142.0,5.201
-119.0,207.0,5.202
-102.0,218.0,5.203
-81.0,209.0,5.204
-61.0,138.0,5.205
-45.0,47.0,5.206
-43.0,-98.0,5.207
-57.0,-236.0,5.208
-70.0,-352.0,5.209
-72.0,-417.0,5.21
-78.0,-330.0,5.211
-82.0,-232.0,5.212
-60.0,-100.0,5.213
-10.0,-2.0,5.214
38.0,-14.0,5.215
64.0,-58.0,5.216
80.0,-202.0,5.217
97.0,-310.0,5.218
101.0,-193.0,5.219
77.0,85.0,5.22
48.0,340.0,5.221
48.0,476.0,5.222
72.0,537.0,5.223
81.0,571.0,5.224
48.0,561.0,5.225
-22.0,495.0,5.226
-102.0,430.0,5.227
-151.0,390.0,5.228
-132.0,312.0,5.229
-56.0,155.0,5.23
5.0,-12.0,5.231
5.0,-104.0,5.232
-31.0,-151.0,5.233
-45.0,-266.0,5.234
-41.0,-493.0,5.235
-54.0,-728.0,5.236
-80.0,-822.0,5.237
-73.0,-721.0,5.238
-12.0,-496.0,5.239
53.0,-265.0,5.24
76.0,-67.0,5.241
70.0,133.0,5.242
75.0,327.0,5.243
86.0,454.0,5.244
74.0,496.0,5.245
41.0,488.0,5.246
12.0,445.0,5.247
-15.0,346.0,5.248
-52.0,206.0,5.249
-78.0,90.0,5.25
-59.0,27.0,5.251
-15.0,-29.0,5.252
8.0,-120.0,5.253
16.0,-235.0,5.254
62.0,-344.0,5.255
137.0,-440.0,5.256
167.0,-506.0,5.257
134.0,-178.0,5.258
108.0,-237.0,5.259
87.0,-277.0,5.26
81.0,-261.0,5.261
69.0,-185.0,5.262
38.0,65.0,5.263
14.0,292.0,5.264
16.0,447.0,5.265
12.0,566.0,5.266
-12.0,574.0,5.267
-31.0,563.0,5.268
-34.0,495.0,5.269
-43.0,420.0,5.27
-67.0,328.0,5.271
-84.0,235.0,5.272
-78.0,149.0,5.273
-74.0,66.0,5.274
-78.0,-7.0,5.275
-78.0,-76.0,5.276
-67.0,-128.0,5.277
-51.0,-353.0,5.278
-14.0,-443.0,5.279
31.0,-506.0,5.28
64.0,-480.0,5.281
76.0,-364.0,5.282
84.0,23.0,5.283
85.0,374.0,5.284
65.0,614.0,5.285
32.0,797.0,5.286
10.0,809.0,5.287
3.0,792.0,5.288
-3.0,687.0,5.289
-15.0,572.0,5.29
-27.0,429.0,5.291
-46.0,287.0,5.292
-75.0,153.0,5.293
-96.0,24.0,5.294
-90.0,-89.0,5.295
-68.0,-195.0,5.296
-61.0,-275.0,5.297
-77.0,-351.0,5.298
-85.0,-380.0,5.299
-65.0,-339.0,5.3
-25.0,-260.0,5.301
9.0,-185.0,5.302
25.0,-133.0,5.303
28.0,-114.0,5.304
23.0,-136.0,5.305
10.0,-199.0,5.306
-11.0,-265.0,5.307
-34.0,-304.0,5.308
-39.0,-310.0,5.309
-16.0,-296.0,5.31
32.0,-266.0,5.311
84.0,-220.0,5.312
129.0,-191.0,5.313
170.0,-240.0,5.314
203.0,-381.0,5.315
206.0,-538.0,5.316
162.0,-569.0,5.317
74.0,-397.0,5.318
-18.0,-84.0,5.319
-71.0,217.0,5.32
-66.0,436.0,5.321
-31.0,622.0,5.322
-14.0,795.0,5.323
-33.0,894.0,5.324
-64.0,867.0,5.325
-64.0,737.0,5.326
-30.0,541.0,5.327
7.0,283.0,5.328
22.0,-1.0,5.329
20.0,-213.0,5.33
16.0,-287.0,5.331
15.0,-242.0,5.332
7.0,-135.0,5.333
-11.0,-9.0,5.334
-37.0,86.0,5.335
-58.0,109.0,5.336
-55.0,63.0,5.337
-31.0,-15.0,5.338
-6.0,-76.0,5.339
3.0,-95.0,5.34
7.0,-67.0,5.341
17.0,-6.0,5.342
22.0,35.0,5.343
10.0,17.0,5.344
-14.0,-38.0,5.345
-26.0,-74.0,5.346
-21.0,-69.0,5.347
-11.0,-43.0,5.348
-4.0,-14.0,5.349
-2.0,0.0,5.35
-2.0,-27.0,5.351
0.0,-104.0,5.352
8.0,-162.0,5.353
22.0,-130.0,5.354
34.0,-33.0,5.355
36.0,25.0,5.356
39.0,3.0,5.357
47.0,-56.0,5.358
56.0,-109.0,5.359
50.0,-164.0,5.36
35.0,-224.0,5.361
16.0,-251.0,5.362
0.0,-178.0,5.363
-14.0,-98.0,5.364
-14.0,2.0,5.365
0.0,89.0,5.366
13.0,139.0,5.367
3.0,172.0,5.368
-18.0,147.0,5.369
-37.0,121.0,5.37
-53.0,95.0,5.371
-74.0,74.0,5.372
-85.0,69.0,5.373
-68.0,56.0,5.374
-36.0,22.0,5.375
-20.0,-15.0,5.376
-20.0,-60.0,5.377
-12.0,-100.0,5.378
11.0,-107.0,5.379
27.0,-100.0,5.38
23.0,-104.0,5.381
15.0,-124.0,5.382
20.0,-151.0,5.383
38.0,-168.0,5.384
49.0,-156.0,5.385
44.0,-105.0,5.386
39.0,-24.0,5.387
42.0,54.0,5.388
49.0,99.0,5.389
48.0,108.0,5.39
38.0,94.0,5.391
28.0,68.0,5.392
27.0,52.0,5.393
24.0,69.0,5.394
12.0,119.0,5.395
-5.0,157.0,5.396
-12.0,139.0,5.397
-12.0,76.0,5.398
-14.0,32.0,5.399
-21.0,59.0,5.4
-22.0,128.0,5.401
-13.0,175.0,5.402
-4.0,164.0,5.403
-3.0,104.0,5.404
-7.0,5.0,5.405
-10.0,-125.0,5.406
-12.0,-240.0,5.407
-15.0,-248.0,5.408
-10.0,-119.0,5.409
0.0,50.0,5.41
2.0,131.0,5.411
-3.0,78.0,5.412
-1.0,-96.0,5.413
19.0,-335.0,5.414
45.0,-506.0,5.415
59.0,-431.0,5.416
59.0,-129.0,5.417
42.0,213.0,5.418
15.0,365.0,5.419
-13.0,341.0,5.42
-41.0,318.0,5.421
-58.0,357.0,5.422
-41.0,379.0,5.423
-25.0,362.0,5.424
-12.0,354.0,5.425
-6.0,335.0,5.426
-23.0,221.0,5.427
-41.0,11.0,5.428
-59.0,-217.0,5.429
-72.0,-392.0,5.43
-62.0,-459.0,5.431
-50.0,-365.0,5.432
-32.0,-151.0,5.433
-15.0,29.0,5.434
-4.0,72.0,5.435
4.0,46.0,5.436
4.0,53.0,5.437
10.0,77.0,5.438
34.0,75.0,5.439
44.0,73.0,5.44
35.0,69.0,5.441
30.0,51.0,5.442
35.0,-5.0,5.443
31.0,-55.0,5.444
8.0,-86.0,5.445
-13.0,-120.0,5.446
-17.0,-161.0,5.447
-13.0,-190.0,5.448
-15.0,-182.0,5.449
-17.0,-172.0,5.45
-10.0,-159.0,5.451
2.0,-141.0,5.452
19.0,-109.0,5.453
46.0,-75.0,5.454
80.0,-39.0,5.455
103.0,-6.0,5.456
100.0,11.0,5.457
77.0,14.0,5.458
53.0,-58.0,5.459
29.0,-183.0,5.46
0.0,-322.0,5.461
-23.0,-406.0,5.462
-11.0,-370.0,5.463
35.0,-219.0,5.464
73.0,-44.0,5.465
69.0,81.0,5.466
41.0,172.0,5.467
27.0,262.0,5.468
34.0,324.0,5.469
32.0,328.0,5.47
5.0,307.0,5.471
-29.0,297.0,5.472
-48.0,267.0,5.473
-52.0,169.0,5.474
-44.0,48.0,5.475
-32.0,-8.0,5.476
-25.0,16.0,5.477
-31.0,62.0,5.478
-42.0,85.0,5.479
-51.0,98.0,5.48
-51.0,76.0,5.481
-48.0,72.0,5.482
-36.0,122.0,5.483
-24.0,165.0,5.484
-14.0,181.0,5.485
-10.0,178.0,5.486
-22.0,116.0,5.487
-29.0,40.0,5.488
-23.0,-80.0,5.489
-18.0,-168.0,5.49
-20.0,-158.0,5.491
-20.0,-142.0,5.492
-8.0,-108.0,5.493
4.0,-84.0,5.494
17.0,-89.0,5.495
28.0,-100.0,5.496
33.0,-129.0,5.497
39.0,-171.0,5.498
44.0,-218.0,5.499
39.0,-177.0,5.5
34.0,-89.0,5.501
27.0,-28.0,5.502
13.0,2.0,5.503
-11.0,36.0,5.504
-31.0,69.0,5.505
-30.0,78.0,5.506
-13.0,78.0,5.507
7.0,89.0,5.508
14.0,102.0,5.509
8.0,92.0,5.51
6.0,51.0,5.511
11.0,-30.0,5.512
15.0,-155.0,5.513
11.0,-288.0,5.514
5.0,-356.0,5.515
13.0,-320.0,5.516
27.0,-211.0,5.517
36.0,-66.0,5.518
35.0,81.0,5.519
36.0,201.0,5.52
45.0,260.0,5.521
56.0,248.0,5.522
61.0,191.0,5.523
57.0,129.0,5.524
43.0,84.0,5.525
8.0,55.0,5.526
-36.0,34.0,5.527
-65.0,22.0,5.528
-62.0,27.0,5.529
-43.0,56.0,5.53
-34.0,85.0,5.531
-37.0,90.0,5.532
-32.0,68.0,5.533
-13.0,38.0,5.534
4.0,12.0,5.535
0.0,-7.0,5.536
-16.0,-21.0,5.537
-27.0,-32.0,5.538
-30.0,-51.0,5.539
-30.0,-94.0,5.54
-33.0,-151.0,5.541
-27.0,-198.0,5.542
-6.0,-227.0,5.543
23.0,-231.0,5.544
42.0,-179.0,5.545
44.0,-63.0,5.546
36.0,48.0,5.547
31.0,77.0,5.548
39.0,35.0,5.549
53.0,7.0,5.55
61.0,14.0,5.551
57.0,-2.0,5.552
43.0,-50.0,5.553
30.0,-57.0,5.554
24.0,17.0,5.555
21.0,119.0,5.556
14.0,190.0,5.557
-6.0,239.0,5.558
-27.0,270.0,5.559
-39.0,251.0,5.56
-40.0,169.0,5.561
-46.0,73.0,5.562
-60.0,0.0,5.563
-66.0,-53.0,5.564
-52.0,-75.0,5.565
-31.0,-61.0,5.566
-15.0,-46.0,5.567
-1.0,-88.0,5.568
10.0,-190.0,5.569
14.0,-298.0,5.57
9.0,-357.0,5.571
12.0,-331.0,5.572
26.0,-191.0,5.573
36.0,13.0,5.574
31.0,172.0,5.575
20.0,223.0,5.576
14.0,223.0,5.577
13.0,236.0,5.578
10.0,257.0,5.579
1.0,249.0,5.58
-16.0,234.0,5.581
-33.0,245.0,5.582
-35.0,226.0,5.583
-15.0,129.0,5.584
4.0,-1.0,5.585
5.0,-80.0,5.586
1.0,-96.0,5.587
6.0,-88.0,5.588
-4.0,-82.0,5.589
-46.0,-88.0,5.59
-89.0,-138.0,5.591
-85.0,-229.0,5.592
-45.0,-287.0,5.593
-25.0,-247.0,5.594
-31.0,-127.0,5.595
-16.0,3.0,5.596
30.0,93.0,5.597
59.0,131.0,5.598
43.0,121.0,5.599
20.0,69.0,5.6
34.0,-15.0,5.601
66.0,-112.0,5.602
73.0,-189.0,5.603
57.0,-179.0,5.604
55.0,-66.0,5.605
71.0,63.0,5.606
75.0,102.0,5.607
48.0,55.0,5.608
7.0,9.0,5.609
-21.0,6.0,5.61
-29.0,18.0,5.611
-30.0,37.0,5.612
-30.0,83.0,5.613
-31.0,127.0,5.614
-26.0,97.0,5.615
-17.0,-18.0,5.616
-3.0,-134.0,5.617
15.0,-195.0,5.618
38.0,-209.0,5.619
42.0,-232.0,5.62
17.0,-277.0,5.621
-21.0,-278.0,5.622
-40.0,-174.0,5.623
-28.0,19.0,5.624
-7.0,202.0,5.625
11.0,290.0,5.626
36.0,294.0,5.627
69.0,287.0,5.628
92.0,293.0,5.629
93.0,273.0,5.63
72.0,216.0,5.631
29.0,154.0,5.632
-32.0,93.0,5.633
-79.0,-10.0,5.634
-84.0,-150.0,5.635
-57.0,-252.0,5.636
-39.0,-238.0,5.637
-39.0,-126.0,5.638
-29.0,-8.0,5.639
-22.0,80.0,5.64
-27.0,80.0,5.641
-31.0,78.0,5.642
-29.0,67.0,5.643
-20.0,49.0,5.644
9.0,11.0,5.645
32.0,-27.0,5.646
38.0,-65.0,5.647
46.0,-111.0,5.648
55.0,-182.0,5.649
61.0,-226.0,5.65
59.0,-187.0,5.651
57.0,-157.0,5.652
58.0,-153.0,5.653
52.0,-136.0,5.654
26.0,-84.0,5.655
2.0,3.0,5.656
-19.0,192.0,5.657
-39.0,354.0,5.658
-45.0,354.0,5.659
-38.0,259.0,5.66
-35.0,155.0,5.661
-47.0,71.0,5.662
-58.0,0.0,5.663
-47.0,-45.0,5.664
-20.0,-41.0,5.665
-8.0,-13.0,5.666
-20.0,7.0,5.667
-29.0,28.0,5.668
-23.0,56.0,5.669
-19.0,56.0,5.67
-27.0,20.0,5.671
-29.0,-6.0,5.672
-8.0,-11.0,5.673
24.0,-77.0,5.674
37.0,-243.0,5.675
34.0,-407.0,5.676
32.0,-425.0,5.677
44.0,-289.0,5.678
68.0,-134.0,5.679
83.0,-65.0,5.68
69.0,-33.0,5.681
27.0,85.0,5.682
-5.0,289.0,5.683
7.0,438.0,5.684
32.0,408.0,5.685
14.0,232.0,5.686
-50.0,45.0,5.687
-92.0,-57.0,5.688
-69.0,-74.0,5.689
-13.0,-52.0,5.69
14.0,-31.0,5.691
-2.0,-20.0,5.692
-24.0,12.0,5.693
-22.0,72.0,5.694
1.0,86.0,5.695
33.0,-19.0,5.696
68.0,-162.0,5.697
109.0,-208.0,5.698
133.0,-113.0,5.699
101.0,-8.0,5.7
15.0,-3.0,5.701
-66.0,-38.0,5.702
-95.0,-25.0,5.703
-87.0,9.0,5.704
-89.0,0.0,5.705
-96.0,-37.0,5.706
-67.0,-47.0,5.707
-7.0,-35.0,5.708
30.0,-47.0,5.709
27.0,-88.0,5.71
25.0,-136.0,5.711
46.0,-157.0,5.712
55.0,-118.0,5.713
30.0,0.0,5.714
9.0,175.0,5.715
28.0,345.0,5.716
64.0,461.0,5.717
68.0,508.0,5.718
40.0,473.0,5.719
12.0,364.0,5.72
-13.0,219.0,5.721
-37.0,84.0,5.722
-57.0,-27.0,5.723
-74.0,-111.0,5.724
-82.0,-164.0,5.725
-76.0,-211.0,5.726
-26.0,-303.0,5.727
18.0,-444.0,5.728
48.0,-541.0,5.729
63.0,-475.0,5.73
28.0,-239.0,5.731
0.0,31.0,5.732
-5.0,183.0,5.733
-9.0,184.0,5.734
-10.0,130.0,5.735
-9.0,119.0,5.736
2.0,143.0,5.737
13.0,141.0,5.738
11.0,104.0,5.739
-11.0,52.0,5.74
-41.0,-12.0,5.741
-49.0,-77.0,5.742
-17.0,-92.0,5.743
29.0,-23.0,5.744
42.0,56.0,5.745
7.0,47.0,5.746
-22.0,-30.0,5.747
-2.0,-67.0,5.748
48.0,-39.0,5.749
75.0,-22.0,5.75
60.0,-55.0,5.751
31.0,-102.0,5.752
4.0,-128.0,5.753
-22.0,-150.0,5.754
-37.0,-153.0,5.755
-28.0,-108.0,5.756
-11.0,-35.0,5.757
-9.0,22.0,5.758
-14.0,47.0,5.759
6.0,65.0,5.76
38.0,78.0,5.761
38.0,81.0,5.762
-2.0,84.0,5.763
-20.0,105.0,5.764
30.0,122.0,5.765
101.0,104.0,5.766
103.0,67.0,5.767
22.0,53.0,5.768
-62.0,55.0,5.769
-76.0,45.0,5.77
-39.0,18.0,5.771
-7.0,-2.0,5.772
-2.0,-9.0,5.773
1.0,-20.0,5.774
15.0,-34.0,5.775
21.0,-41.0,5.776
19.0,-48.0,5.777
19.0,-67.0,5.778
22.0,-82.0,5.779
15.0,-76.0,5.78
1.0,-60.0,5.781
-1.0,-49.0,5.782
8.0,-45.0,5.783
12.0,-41.0,5.784
3.0,-46.0,5.785
0.0,-97.0,5.786
6.0,-204.0,5.787
9.0,-305.0,5.788
8.0,-296.0,5.789
8.0,-133.0,5.79
7.0,97.0,5.791
-3.0,273.0,5.792
-14.0,361.0,5.793
-1.0,409.0,5.794
31.0,419.0,5.795
50.0,352.0,5.796
42.0,237.0,5.797
18.0,137.0,5.798
-3.0,92.0,5.799
-26.0,52.0,5.8
-52.0,-22.0,5.801
-59.0,-74.0,5.802
-31.0,-65.0,5.803
11.0,-34.0,5.804
30.0,-37.0,5.805
17.0,-65.0,5.806
-9.0,-84.0,5.807
-37.0,-88.0,5.808
-70.0,-87.0,5.809
-85.0,-87.0,5.81
-62.0,-101.0,5.811
-26.0,-147.0,5.812
-16.0,-215.0,5.813
-29.0,-262.0,5.814
-19.0,-252.0,5.815
28.0,-184.0,5.816
72.0,-87.0,5.817
78.0,13.0,5.818
58.0,71.0,5.819
41.0,68.0,5.82
33.0,43.0,5.821
23.0,58.0,5.822
16.0,116.0,5.823
17.0,168.0,5.824
15.0,188.0,5.825
2.0,186.0,5.826
-5.0,170.0,5.827
-1.0,124.0,5.828
4.0,61.0,5.829
-1.0,21.0,5.83
-3.0,21.0,5.831
3.0,29.0,5.832
6.0,8.0,5.833
-1.0,-32.0,5.834
1.0,-73.0,5.835
25.0,-117.0,5.836
56.0,-172.0,5.837
75.0,-236.0,5.838
75.0,-259.0,5.839
60.0,-192.0,5.84
4.0,-58.0,5.841
-43.0,49.0,5.842
-63.0,32.0,5.843
-70.0,-82.0,5.844
-39.0,-144.0,5.845
-10.0,-45.0,5.846
10.0,158.0,5.847
18.0,310.0,5.848
-11.0,343.0,5.849
-33.0,306.0,5.85
-36.0,249.0,5.851
-40.0,174.0,5.852
-46.0,81.0,5.853
-48.0,5.0,5.854
-38.0,-47.0,5.855
-33.0,-120.0,5.856
-44.0,-212.0,5.857
-49.0,-253.0,5.858
-13.0,-188.0,5.859
23.0,-114.0,5.86
14.0,-14.0,5.861
-17.0,63.0,5.862
0.0,67.0,5.863
70.0,69.0,5.864
115.0,63.0,5.865
83.0,56.0,5.866
17.0,50.0,5.867
-14.0,39.0,5.868
-1.0,14.0,5.869
16.0,-8.0,5.87
16.0,-24.0,5.871
23.0,-38.0,5.872
50.0,-48.0,5.873
77.0,-58.0,5.874
75.0,-67.0,5.875
49.0,-75.0,5.876
30.0,-76.0,5.877
23.0,-79.0,5.878
12.0,-85.0,5.879
-12.0,-84.0,5.88
-40.0,-68.0,5.881
-51.0,-36.0,5.882
-43.0,-1.0,5.883
-23.0,24.0,5.884
-1.0,40.0,5.885
20.0,45.0,5.886
30.0,41.0,5.887
21.0,35.0,5.888
0.0,38.0,5.889
-6.0,51.0,5.89
6.0,66.0,5.891
18.0,73.0,5.892
14.0,68.0,5.893
4.0,54.0,5.894
9.0,37.0,5.895
22.0,24.0,5.896
29.0,15.0,5.897
31.0,3.0,5.898
36.0,-16.0,5.899
40.0,-36.0,5.9
34.0,-51.0,5.901
7.0,-60.0,5.902
-24.0,-67.0,5.903
-48.0,-68.0,5.904
-55.0,-53.0,5.905
-44.0,-31.0,5.906
-26.0,-14.0,5.907
-10.0,-7.0,5.908
1.0,-3.0,5.909
11.0,2.0,5.91
13.0,6.0,5.911
7.0,3.0,5.912
-2.0,-6.0,5.913
-6.0,-22.0,5.914
-3.0,-34.0,5.915
10.0,-16.0,5.916
30.0,27.0,5.917
38.0,62.0,5.918
27.0,61.0,5.919
1.0,40.0,5.92
-17.0,36.0,5.921
-24.0,53.0,5.922
-32.0,59.0,5.923
-37.0,41.0,5.924
-20.0,20.0,5.925
19.0,11.0,5.926
54.0,7.0,5.927
54.0,-7.0,5.928
24.0,-23.0,5.929
-17.0,-31.0,5.93
-50.0,-32.0,5.931
-65.0,-38.0,5.932
-61.0,-51.0,5.933
-41.0,-63.0,5.934
-20.0,-70.0,5.935
-2.0,-66.0,5.936
17.0,-56.0,5.937
33.0,-45.0,5.938
36.0,-33.0,5.939
15.0,-19.0,5.94
-14.0,-9.0,5.941
-23.0,4.0,5.942
5.0,20.0,5.943
40.0,35.0,5.944
40.0,43.0,5.945
3.0,45.0,5.946
-32.0,52.0,5.947
-41.0,66.0,5.948
-34.0,82.0,5.949
-28.0,90.0,5.95
-19.0,88.0,5.951
-4.0,76.0,5.952
2.0,54.0,5.953
-7.0,29.0,5.954
-12.0,7.0,5.955
6.0,-7.0,5.956
37.0,-18.0,5.957
59.0,-40.0,5.958
59.0,-60.0,5.959
38.0,-63.0,5.96
1.0,-53.0,5.961
-37.0,-34.0,5.962
-55.0,-20.0,5.963
-48.0,-16.0,5.964
-36.0,-22.0,5.965
-36.0,-28.0,5.966
-41.0,-32.0,5.967
-41.0,-56.0,5.968
-39.0,-119.0,5.969
-31.0,-210.0,5.97
-20.0,-255.0,5.971
-8.0,-194.0,5.972
-4.0,-47.0,5.973
-4.0,96.0,5.974
-1.0,181.0,5.975
-1.0,219.0,5.976
0.0,243.0,5.977
3.0,237.0,5.978
19.0,185.0,5.979
29.0,112.0,5.98
18.0,67.0,5.981
-15.0,55.0,5.982
-51.0,38.0,5.983
-85.0,0.0,5.984
-116.0,-28.0,5.985
-139.0,-29.0,5.986
-142.0,-18.0,5.987
-127.0,-15.0,5.988
-102.0,-19.0,5.989
-70.0,-27.0,5.99
-36.0,-35.0,5.991
-13.0,-40.0,5.992
-4.0,-44.0,5.993
3.0,-51.0,5.994
17.0,-47.0,5.995
31.0,-14.0,5.996
35.0,37.0,5.997
30.0,68.0,5.998
24.0,61.0,5.999
16.0,42.0,6.0
7.0,35.0,6.001
5.0,29.0,6.002
19.0,2.0,6.003
37.0,-23.0,6.004
27.0,-32.0,6.005
-29.0,-33.0,6.006
-97.0,-30.0,6.007
-113.0,-15.0,6.008
-61.0,9.0,6.009
-1.0,27.0,6.01
11.0,26.0,6.011
-15.0,28.0,6.012
-21.0,33.0,6.013
0.0,32.0,6.014
13.0,20.0,6.015
1.0,13.0,6.016
-10.0,15.0,6.017
-5.0,13.0,6.018
7.0,4.0,6.019
13.0,-1.0,6.02
19.0,-2.0,6.021
28.0,-1.0,6.022
32.0,-1.0,6.023
29.0,7.0,6.024
22.0,26.0,6.025
11.0,36.0,6.026
-3.0,27.0,6.027
-3.0,12.0,6.028
18.0,7.0,6.029
36.0,7.0,6.03
32.0,5.0,6.031
14.0,0.0,6.032
-1.0,-5.0,6.033
-7.0,-9.0,6.034
-5.0,-14.0,6.035
6.0,-20.0,6.036
16.0,-24.0,6.037
11.0,-29.0,6.038
-1.0,-30.0,6.039
2.0,-31.0,6.04
23.0,-27.0,6.041
37.0,-19.0,6.042
44.0,-5.0,6.043
61.0,6.0,6.044
85.0,9.0,6.045
83.0,9.0,6.046
40.0,0.0,6.047
-28.0,-9.0,6.048
-83.0,-12.0,6.049
-88.0,-11.0,6.05
-30.0,2.0,6.051
47.0,13.0,6.052
82.0,16.0,6.053
64.0,17.0,6.054
43.0,11.0,6.055
45.0,5.0,6.056
46.0,1.0,6.057
31.0,-3.0,6.058
21.0,-3.0,6.059
20.0,-10.0,6.06
6.0,-27.0,6.061
-17.0,-37.0,6.062
-4.0,-35.0,6.063
40.0,-27.0,6.064
64.0,-18.0,6.065
41.0,-10.0,6.066
23.0,-8.0,6.067
39.0,-10.0,6.068
54.0,-10.0,6.069
42.0,-2.0,6.07
30.0,5.0,6.071
40.0,3.0,6.072
50.0,-3.0,6.073
46.0,-2.0,6.074
46.0,2.0,6.075
58.0,4.0,6.076
62.0,4.0,6.077
42.0,7.0,6.078
24.0,5.0,6.079
12.0,-4.0,6.08
16.0,-12.0,6.081
24.0,-8.0,6.082
44.0,0.0,6.083
62.0,2.0,6.084
71.0,6.0,6.085
71.0,16.0,6.086
45.0,26.0,6.087
18.0,22.0,6.088
-12.0,5.0,6.089
-35.0,-7.0,6.09
-32.0,-12.0,6.091
-25.0,-10.0,6.092
-7.0,-5.0,6.093
6.0,2.0,6.094
6.0,9.0,6.095
8.0,6.0,6.096
17.0,-5.0,6.097
26.0,-25.0,6.098
30.0,-59.0,6.099
27.0,-114.0,6.1
22.0,-182.0,6.101
26.0,-217.0,6.102
41.0,-170.0,6.103
54.0,-41.0,6.104
45.0,99.0,6.105
27.0,177.0,6.106
24.0,170.0,6.107
35.0,123.0,6.108
36.0,81.0,6.109
24.0,57.0,6.11
17.0,36.0,6.111
18.0,14.0,6.112
14.0,-2.0,6.113
4.0,-11.0,6.114
-1.0,-15.0,6.115
-14.0,-11.0,6.116
-40.0,-4.0,6.117
-71.0,-4.0,6.118
-73.0,-17.0,6.119
-44.0,-39.0,6.12
-15.0,-53.0,6.121
-11.0,-53.0,6.122
-19.0,-42.0,6.123
-24.0,-27.0,6.124
-26.0,-8.0,6.125
-28.0,5.0,6.126
-17.0,4.0,6.127
7.0,-12.0,6.128
28.0,-26.0,6.129
33.0,-25.0,6.13
25.0,-16.0,6.131
12.0,-15.0,6.132
-3.0,-26.0,6.133
-18.0,-43.0,6.134
-22.0,-59.0,6.135
-5.0,-62.0,6.136
27.0,-49.0,6.137
11.0,3.0,6.138
10.0,0.0,6.139
9.0,-5.0,6.14
5.0,-15.0,6.141
3.0,-20.0,6.142
4.0,-8.0,6.143
4.0,7.0,6.144
2.0,24.0,6.145
0.0,36.0,6.146
1.0,30.0,6.147
5.0,25.0,6.148
12.0,25.0,6.149
20.0,25.0,6.15
28.0,22.0,6.151
34.0,19.0,6.152
31.0,18.0,6.153
24.0,16.0,6.154
10.0,11.0,6.155
-5.0,5.0,6.156
-25.0,1.0,6.157
16.0,-13.0,6.158
12.0,-22.0,6.159
7.0,-36.0,6.16
-2.0,-66.0,6.161
-8.0,-81.0,6.162
-5.0,-44.0,6.163
-4.0,-3.0,6.164
-11.0,49.0,6.165
-16.0,84.0,6.166
-12.0,66.0,6.167
-3.0,53.0,6.168
17.0,54.0,6.169
38.0,53.0,6.17
59.0,43.0,6.171
73.0,35.0,6.172
65.0,34.0,6.173
49.0,28.0,6.174
12.0,10.0,6.175
-28.0,-7.0,6.176
-77.0,-19.0,6.177
-126.0,-30.0,6.178
-157.0,-37.0,6.179
-137.0,-36.0,6.18
-85.0,-32.0,6.181
-41.0,-25.0,6.182
-16.0,-14.0,6.183
11.0,-4.0,6.184
47.0,-3.0,6.185
67.0,-20.0,6.186
52.0,-48.0,6.187
24.0,-67.0,6.188
1.0,-64.0,6.189
-15.0,-51.0,6.19
-28.0,-37.0,6.191
-23.0,-13.0,6.192
5.0,31.0,6.193
34.0,80.0,6.194
45.0,104.0,6.195
50.0,92.0,6.196
62.0,67.0,6.197
68.0,43.0,6.198
48.0,34.0,6.199
15.0,29.0,6.2
-5.0,20.0,6.201
-16.0,4.0,6.202
-43.0,-53.0,6.203
-77.0,-202.0,6.204
-76.0,-418.0,6.205
-30.0,-558.0,6.206
7.0,-451.0,6.207
-1.0,-90.0,6.208
-20.0,307.0,6.209
-6.0,511.0,6.21
24.0,497.0,6.211
31.0,409.0,6.212
18.0,345.0,6.213
17.0,279.0,6.214
26.0,190.0,6.215
17.0,126.0,6.216
-10.0,112.0,6.217
-38.0,99.0,6.218
-59.0,48.0,6.219
-87.0,-17.0,6.22
-112.0,-59.0,6.221
-112.0,-72.0,6.222
-85.0,-72.0,6.223
-56.0,-67.0,6.224
-34.0,-63.0,6.225
-15.0,-74.0,6.226
4.0,-88.0,6.227
21.0,-84.0,6.228
33.0,-66.0,6.229
45.0,-60.0,6.23
57.0,-70.0,6.231
59.0,-77.0,6.232
53.0,-73.0,6.233
44.0,-72.0,6.234
36.0,-74.0,6.235
28.0,-69.0,6.236
26.0,-56.0,6.237
35.0,-48.0,6.238
42.0,-47.0,6.239
27.0,-44.0,6.24
-2.0,-36.0,6.241
-16.0,-29.0,6.242
-4.0,-27.0,6.243
8.0,-25.0,6.244
4.0,-16.0,6.245
-1.0,-6.0,6.246
11.0,3.0,6.247
29.0,11.0,6.248
34.0,20.0,6.249
26.0,27.0,6.25
18.0,29.0,6.251
8.0,23.0,6.252
-16.0,11.0,6.253
-44.0,-3.0,6.254
-57.0,-9.0,6.255
-41.0,-6.0,6.256
-10.0,3.0,6.257
15.0,6.0,6.258
24.0,-3.0,6.259
18.0,-26.0,6.26
9.0,-69.0,6.261
7.0,-141.0,6.262
15.0,-258.0,6.263
23.0,-383.0,6.264
26.0,-403.0,6.265
18.0,-221.0,6.266
-2.0,101.0,6.267
-25.0,369.0,6.268
-37.0,451.0,6.269
-29.0,409.0,6.27
0.0,362.0,6.271
37.0,324.0,6.272
62.0,247.0,6.273
56.0,160.0,6.274
26.0,125.0,6.275
-5.0,119.0,6.276
-17.0,82.0,6.277
-23.0,17.0,6.278
-40.0,-19.0,6.279
-74.0,-51.0,6.28
-104.0,-67.0,6.281
-105.0,-77.0,6.282
-70.0,-70.0,6.283
-27.0,-65.0,6.284
0.0,-72.0,6.285
18.0,-76.0,6.286
37.0,-68.0,6.287
52.0,-63.0,6.288
38.0,-73.0,6.289
3.0,-87.0,6.29
-14.0,-107.0,6.291
0.0,-141.0,6.292
15.0,-213.0,6.293
17.0,-262.0,6.294
19.0,-238.0,6.295
32.0,-187.0,6.296
42.0,-56.0,6.297
48.0,74.0,6.298
62.0,186.0,6.299
79.0,250.0,6.3
74.0,248.0,6.301
40.0,191.0,6.302
6.0,104.0,6.303
-16.0,31.0,6.304
-33.0,22.0,6.305
-54.0,76.0,6.306
-71.0,131.0,6.307
-80.0,127.0,6.308
-82.0,78.0,6.309
-75.0,35.0,6.31
-53.0,9.0,6.311
-26.0,-13.0,6.312
-8.0,-33.0,6.313
2.0,-39.0,6.314
15.0,-38.0,6.315
26.0,-55.0,6.316
30.0,-88.0,6.317
29.0,-113.0,6.318
32.0,-104.0,6.319
33.0,-69.0,6.32
21.0,-36.0,6.321
-1.0,-17.0,6.322
-12.0,-7.0,6.323
1.0,-2.0,6.324
21.0,-12.0,6.325
26.0,-48.0,6.326
20.0,-94.0,6.327
19.0,-110.0,6.328
28.0,-82.0,6.329
30.0,-35.0,6.33
22.0,8.0,6.331
13.0,48.0,6.332
11.0,82.0,6.333
3.0,92.0,6.334
-11.0,75.0,6.335
-16.0,58.0,6.336
-8.0,55.0,6.337
-11.0,52.0,6.338
-34.0,42.0,6.339
-46.0,32.0,6.34
-20.0,30.0,6.341
24.0,30.0,6.342
42.0,16.0,6.343
34.0,-13.0,6.344
29.0,-101.0,6.345
36.0,-338.0,6.346
37.0,-728.0,6.347
34.0,-1027.0,6.348
38.0,-881.0,6.349
38.0,-243.0,6.35
17.0,465.0,6.351
-6.0,800.0,6.352
0.0,772.0,6.353
25.0,697.0,6.354
33.0,678.0,6.355
15.0,575.0,6.356
3.0,382.0,6.357
11.0,252.0,6.358
15.0,221.0,6.359
-11.0,169.0,6.36
-59.0,56.0,6.361
-101.0,-29.0,6.362
-115.0,-27.0,6.363
-106.0,-37.0,6.364
-90.0,-83.0,6.365
-80.0,-116.0,6.366
-70.0,-108.0,6.367
-54.0,-110.0,6.368
-34.0,-148.0,6.369
-19.0,-172.0,6.37
-10.0,-154.0,6.371
-2.0,-141.0,6.372
3.0,-147.0,6.373
10.0,-145.0,6.374
21.0,-117.0,6.375
38.0,-98.0,6.376
48.0,-108.0,6.377
47.0,-110.0,6.378
44.0,-85.0,6.379
43.0,-80.0,6.38
40.0,-91.0,6.381
32.0,-75.0,6.382
31.0,-48.0,6.383
39.0,-39.0,6.384
44.0,-40.0,6.385
43.0,-23.0,6.386
46.0,-1.0,6.387
59.0,1.0,6.388
68.0,-1.0,6.389
61.0,12.0,6.39
47.0,27.0,6.391
43.0,22.0,6.392
54.0,14.0,6.393
63.0,22.0,6.394
49.0,30.0,6.395
4.0,20.0,6.396
-67.0,11.0,6.397
-151.0,19.0,6.398
-197.0,29.0,6.399
-186.0,20.0,6.4
-155.0,-3.0,6.401
-156.0,-7.0,6.402
-170.0,6.0,6.403
-128.0,12.0,6.404
-17.0,1.0,6.405
84.0,-12.0,6.406
112.0,-11.0,6.407
103.0,3.0,6.408
126.0,16.0,6.409
180.0,18.0,6.41
214.0,14.0,6.411
211.0,19.0,6.412
182.0,32.0,6.413
128.0,41.0,6.414
52.0,34.0,6.415
-14.0,25.0,6.416
-41.0,28.0,6.417
-43.0,27.0,6.418
-42.0,13.0,6.419
-42.0,-9.0,6.42
-40.0,-25.0,6.421
-40.0,-29.0,6.422
-39.0,-44.0,6.423
-36.0,-82.0,6.424
-33.0,-131.0,6.425
-34.0,-160.0,6.426
-26.0,-144.0,6.427
-5.0,-81.0,6.428
12.0,-12.0,6.429
6.0,25.0,6.43
-12.0,35.0,6.431
-24.0,57.0,6.432
-36.0,108.0,6.433
-48.0,156.0,6.434
-48.0,187.0,6.435
-32.0,205.0,6.436
-19.0,211.0,6.437
-16.0,190.0,6.438
-16.0,145.0,6.439
-15.0,95.0,6.44
-22.0,50.0,6.441
-33.0,-4.0,6.442
-25.0,-97.0,6.443
8.0,-215.0,6.444
37.0,-299.0,6.445
43.0,-285.0,6.446
38.0,-174.0,6.447
37.0,-33.0,6.448
32.0,72.0,6.449
19.0,130.0,6.45
9.0,157.0,6.451
13.0,152.0,6.452
17.0,120.0,6.453
13.0,91.0,6.454
6.0,76.0,6.455
9.0,45.0,6.456
17.0,-16.0,6.457
16.0,-80.0,6.458
1.0,-96.0,6.459
-26.0,-69.0,6.46
-53.0,-40.0,6.461
-63.0,-10.0,6.462
-52.0,34.0,6.463
-34.0,78.0,6.464
-31.0,87.0,6.465
-37.0,61.0,6.466
-35.0,28.0,6.467
-20.0,9.0,6.468
-7.0,1.0,6.469
1.0,-3.0,6.47
16.0,-8.0,6.471
33.0,-20.0,6.472
38.0,-38.0,6.473
32.0,-63.0,6.474
25.0,-117.0,6.475
30.0,-237.0,6.476
48.0,-386.0,6.477
77.0,-472.0,6.478
113.0,-370.0,6.479
121.0,-94.0,6.48
87.0,185.0,6.481
30.0,333.0,6.482
-7.0,357.0,6.483
-20.0,331.0,6.484
-35.0,276.0,6.485
-58.0,180.0,6.486
-55.0,84.0,6.487
-14.0,40.0,6.488
30.0,36.0,6.489
34.0,27.0,6.49
4.0,10.0,6.491
-24.0,10.0,6.492
-37.0,18.0,6.493
-46.0,1.0,6.494
-52.0,-35.0,6.495
-48.0,-62.0,6.496
-37.0,-74.0,6.497
-28.0,-96.0,6.498
-14.0,-130.0,6.499
21.0,-178.0,6.5
57.0,-252.0,6.501
55.0,-327.0,6.502
20.0,-336.0,6.503
-1.0,-238.0,6.504
16.0,-97.0,6.505
38.0,-28.0,6.506
38.0,-43.0,6.507
20.0,-35.0,6.508
-9.0,56.0,6.509
-46.0,161.0,6.51
-62.0,196.0,6.511
-26.0,192.0,6.512
36.0,235.0,6.513
63.0,310.0,6.514
44.0,341.0,6.515
33.0,305.0,6.516
51.0,252.0,6.517
55.0,200.0,6.518
27.0,129.0,6.519
-2.0,34.0,6.52
-1.0,-58.0,6.521
10.0,-122.0,6.522
5.0,-154.0,6.523
0.0,-148.0,6.524
10.0,-115.0,6.525
20.0,-83.0,6.526
9.0,-74.0,6.527
-14.0,-67.0,6.528
-39.0,-50.0,6.529
-60.0,-56.0,6.53
-78.0,-92.0,6.531
-78.0,-113.0,6.532
-51.0,-79.0,6.533
-8.0,-21.0,6.534
27.0,10.0,6.535
36.0,13.0,6.536
17.0,13.0,6.537
-10.0,8.0,6.538
-32.0,-7.0,6.539
-47.0,-17.0,6.54
-72.0,-17.0,6.541
-106.0,-14.0,6.542
-107.0,-22.0,6.543
-43.0,-25.0,6.544
53.0,-9.0,6.545
118.0,15.0,6.546
116.0,37.0,6.547
68.0,70.0,6.548
27.0,119.0,6.549
21.0,154.0,6.55
33.0,144.0,6.551
31.0,99.0,6.552
11.0,55.0,6.553
4.0,21.0,6.554
17.0,-17.0,6.555
24.0,-72.0,6.556
20.0,-125.0,6.557
23.0,-156.0,6.558
32.0,-146.0,6.559
23.0,-105.0,6.56
13.0,-62.0,6.561
28.0,-29.0,6.562
47.0,-6.0,6.563
24.0,2.0,6.564
-23.0,-11.0,6.565
-26.0,-40.0,6.566
30.0,-65.0,6.567
83.0,-66.0,6.568
82.0,-38.0,6.569
44.0,10.0,6.57
-12.0,63.0,6.571
-75.0,96.0,6.572
-120.0,94.0,6.573
-118.0,66.0,6.574
-77.0,30.0,6.575
-43.0,-16.0,6.576
-29.0,-79.0,6.577
-15.0,-158.0,6.578
11.0,-207.0,6.579
37.0,-191.0,6.58
64.0,-128.0,6.581
102.0,-52.0,6.582
127.0,8.0,6.583
89.0,38.0,6.584
-6.0,22.0,6.585
-80.0,-2.0,6.586
-80.0,36.0,6.587
-47.0,156.0,6.588
-52.0,270.0,6.589
-74.0,284.0,6.59
-51.0,215.0,6.591
4.0,145.0,6.592
26.0,106.0,6.593
4.0,75.0,6.594
-3.0,54.0,6.595
19.0,64.0,6.596
22.0,88.0,6.597
-11.0,91.0,6.598
-42.0,70.0,6.599
-41.0,46.0,6.6
-32.0,20.0,6.601
-31.0,-11.0,6.602
-18.0,-37.0,6.603
14.0,-50.0,6.604
35.0,-67.0,6.605
32.0,-109.0,6.606
27.0,-154.0,6.607
27.0,-168.0,6.608
7.0,-171.0,6.609
-30.0,-206.0,6.61
-38.0,-278.0,6.611
9.0,-335.0,6.612
76.0,-313.0,6.613
112.0,-191.0,6.614
110.0,2.0,6.615
76.0,203.0,6.616
31.0,344.0,6.617
-13.0,395.0,6.618
-24.0,350.0,6.619
-7.0,241.0,6.62
0.0,123.0,6.621
-26.0,51.0,6.622
-50.0,29.0,6.623
-46.0,26.0,6.624
-36.0,12.0,6.625
-52.0,-15.0,6.626
-75.0,-51.0,6.627
-57.0,-92.0,6.628
2.0,-126.0,6.629
58.0,-137.0,6.63
84.0,-117.0,6.631
88.0,-76.0,6.632
80.0,-36.0,6.633
57.0,-4.0,6.634
33.0,20.0,6.635
28.0,39.0,6.636
35.0,51.0,6.637
24.0,47.0,6.638
-3.0,32.0,6.639
-19.0,15.0,6.64
-24.0,-1.0,6.641
-57.0,-15.0,6.642
-114.0,-32.0,6.643
-142.0,-45.0,6.644
-105.0,-46.0,6.645
-37.0,-41.0,6.646
5.0,-36.0,6.647
29.0,-30.0,6.648
73.0,-19.0,6.649
122.0,-11.0,6.65
105.0,-12.0,6.651
3.0,-17.0,6.652
-90.0,-23.0,6.653
-75.0,-38.0,6.654
18.0,-70.0,6.655
78.0,-123.0,6.656
65.0,-187.0,6.657
42.0,-266.0,6.658
59.0,-332.0,6.659
86.0,-345.0,6.66
91.0,-269.0,6.661
102.0,-99.0,6.662
132.0,120.0,6.663
123.0,324.0,6.664
26.0,463.0,6.665
-118.0,509.0,6.666
-229.0,465.0,6.667
-260.0,361.0,6.668
-211.0,243.0,6.669
-104.0,160.0,6.67
6.0,130.0,6.671
70.0,133.0,6.672
96.0,130.0,6.673
112.0,94.0,6.674
101.0,35.0,6.675
30.0,-20.0,6.676
-49.0,-54.0,6.677
-77.0,-79.0,6.678
-59.0,-101.0,6.679
-65.0,-124.0,6.68
-94.0,-157.0,6.681
-81.0,-201.0,6.682
-16.0,-244.0,6.683
37.0,-250.0,6.684
52.0,-194.0,6.685
65.0,-102.0,6.686
80.0,-25.0,6.687
61.0,17.0,6.688
16.0,44.0,6.689
-5.0,59.0,6.69
12.0,42.0,6.691
20.0,-2.0,6.692
-1.0,-42.0,6.693
-21.0,-60.0,6.694
-25.0,-64.0,6.695
-32.0,-55.0,6.696
-38.0,-30.0,6.697
-19.0,-5.0,6.698
22.0,-4.0,6.699
34.0,-20.0,6.7
10.0,-14.0,6.701
-2.0,36.0,6.702
25.0,99.0,6.703
56.0,138.0,6.704
55.0,154.0,6.705
41.0,151.0,6.706
47.0,125.0,6.707
63.0,82.0,6.708
54.0,35.0,6.709
8.0,-13.0,6.71
-53.0,-90.0,6.711
-118.0,-196.0,6.712
-172.0,-282.0,6.713
-185.0,-286.0,6.714
-135.0,-194.0,6.715
-47.0,-46.0,6.716
27.0,73.0,6.717
69.0,110.0,6.718
106.0,54.0,6.719
164.0,-49.0,6.72
224.0,-147.0,6.721
249.0,-208.0,6.722
221.0,-213.0,6.723
128.0,-114.0,6.724
-27.0,95.0,6.725
-162.0,326.0,6.726
-174.0,465.0,6.727
-76.0,492.0,6.728
-6.0,463.0,6.729
-37.0,397.0,6.73
-75.0,279.0,6.731
-24.0,135.0,6.732
51.0,27.0,6.733
40.0,-29.0,6.734
-28.0,-72.0,6.735
-51.0,-105.0,6.736
-28.0,-105.0,6.737
-42.0,-87.0,6.738
-120.0,-90.0,6.739
-179.0,-115.0,6.74
-150.0,-125.0,6.741
-73.0,-108.0,6.742
-22.0,-101.0,6.743
-3.0,-115.0,6.744
18.0,-124.0,6.745
45.0,-116.0,6.746
47.0,-112.0,6.747
19.0,-117.0,6.748
-1.0,-112.0,6.749
17.0,-97.0,6.75
50.0,-97.0,6.751
69.0,-124.0,6.752
78.0,-167.0,6.753
98.0,-197.0,6.754
117.0,-189.0,6.755
116.0,-123.0,6.756
108.0,-15.0,6.757
111.0,94.0,6.758
114.0,153.0,6.759
79.0,151.0,6.76
24.0,109.0,6.761
-1.0,57.0,6.762
10.0,10.0,6.763
0.0,-6.0,6.764
-58.0,31.0,6.765
-123.0,95.0,6.766
-156.0,142.0,6.767
-169.0,155.0,6.768
-185.0,152.0,6.769
-183.0,140.0,6.77
-124.0,115.0,6.771
-20.0,74.0,6.772
60.0,37.0,6.773
75.0,12.0,6.774
60.0,-7.0,6.775
91.0,-30.0,6.776
169.0,-45.0,6.777
220.0,-58.0,6.778
181.0,-83.0,6.779
96.0,-131.0,6.78
70.0,-175.0,6.781
107.0,-171.0,6.782
126.0,-116.0,6.783
78.0,-57.0,6.784
12.0,-28.0,6.785
-24.0,-28.0,6.786
-41.0,-30.0,6.787
-65.0,-28.0,6.788
-97.0,-29.0,6.789
-137.0,-25.0,6.79
-190.0,1.0,6.791
-225.0,65.0,6.792
-196.0,151.0,6.793
-119.0,223.0,6.794
-56.0,254.0,6.795
-15.0,237.0,6.796
44.0,191.0,6.797
109.0,121.0,6.798
117.0,57.0,6.799
106.0,15.0,6.8
38.0,-3.0,6.801
-19.0,-18.0,6.802
-45.0,-64.0,6.803
-64.0,-143.0,6.804
-59.0,-222.0,6.805
-39.0,-270.0,6.806
25.0,-278.0,6.807
70.0,-243.0,6.808
60.0,-175.0,6.809
53.0,-86.0,6.81
57.0,0.0,6.811
57.0,65.0,6.812
42.0,103.0,6.813
18.0,100.0,6.814
-33.0,67.0,6.815
-85.0,62.0,6.816
-137.0,127.0,6.817
-165.0,231.0,6.818
-93.0,274.0,6.819
-8.0,204.0,6.82
30.0,101.0,6.821
38.0,77.0,6.822
59.0,135.0,6.823
91.0,189.0,6.824
81.0,169.0,6.825
18.0,63.0,6.826
-43.0,-129.0,6.827
-46.0,-379.0,6.828
-3.0,-575.0,6.829
34.0,-553.0,6.83
46.0,-269.0,6.831
34.0,109.0,6.832
9.0,357.0,6.833
-14.0,420.0,6.834
-9.0,411.0,6.835
27.0,395.0,6.836
47.0,335.0,6.837
16.0,186.0,6.838
-22.0,31.0,6.839
-3.0,-56.0,6.84
61.0,-106.0,6.841
85.0,-174.0,6.842
43.0,-253.0,6.843
2.0,-297.0,6.844
15.0,-310.0,6.845
28.0,-343.0,6.846
-22.0,-426.0,6.847
-115.0,-525.0,6.848
-180.0,-539.0,6.849
-215.0,-372.0,6.85
-261.0,-67.0,6.851
-289.0,191.0,6.852
-210.0,236.0,6.853
-19.0,72.0,6.854
179.0,-168.0,6.855
306.0,-330.0,6.856
374.0,-305.0,6.857
-358.0,-59.0,6.858
-326.0,288.0,6.859
-299.0,548.0,6.86
-292.0,651.0,6.861
-270.0,665.0,6.862
-198.0,628.0,6.863
-125.0,522.0,6.864
-53.0,394.0,6.865
21.0,304.0,6.866
106.0,170.0,6.867
183.0,-123.0,6.868
240.0,-450.0,6.869
280.0,-512.0,6.87
267.0,-230.0,6.871
243.0,133.0,6.872
188.0,330.0,6.873
148.0,369.0,6.874
158.0,361.0,6.875
158.0,316.0,6.876
121.0,223.0,6.877
-220.0,135.0,6.878
-200.0,101.0,6.879
-183.0,65.0,6.88
-179.0,26.0,6.881
-165.0,-13.0,6.882
-120.0,-50.0,6.883
-75.0,-111.0,6.884
-30.0,-240.0,6.885
17.0,-360.0,6.886
70.0,-448.0,6.887
118.0,-524.0,6.888
153.0,-564.0,6.889
178.0,-594.0,6.89
170.0,-597.0,6.891
155.0,-578.0,6.892
121.0,-489.0,6.893
96.0,-399.0,6.894
102.0,-308.0,6.895
102.0,-209.0,6.896
79.0,-83.0,6.897
62.0,43.0,6.898
66.0,158.0,6.899
73.0,268.0,6.9
79.0,382.0,6.901
90.0,464.0,6.902
71.0,479.0,6.903
-32.0,470.0,6.904
-220.0,492.0,6.905
-399.0,509.0,6.906
-457.0,461.0,6.907
-374.0,370.0,6.908
-226.0,298.0,6.909
-88.0,235.0,6.91
57.0,141.0,6.911
244.0,36.0,6.912
403.0,-48.0,6.913
416.0,-122.0,6.914
295.0,-202.0,6.915
196.0,-247.0,6.916
197.0,-229.0,6.917
194.0,-194.0,6.918
96.0,-207.0,6.919
-14.0,-251.0,6.92
-24.0,-260.0,6.921
24.0,-225.0,6.922
31.0,-194.0,6.923
13.0,-202.0,6.924
30.0,-240.0,6.925
33.0,-292.0,6.926
-45.0,-330.0,6.927
-144.0,-304.0,6.928
-164.0,-208.0,6.929
-128.0,-110.0,6.93
-103.0,-61.0,6.931
-66.0,-4.0,6.932
30.0,128.0,6.933
128.0,297.0,6.934
136.0,404.0,6.935
69.0,435.0,6.936
16.0,445.0,6.937
5.0,443.0,6.938
3.0,393.0,6.939
-20.0,310.0,6.94
-65.0,242.0,6.941
-122.0,189.0,6.942
-178.0,104.0,6.943
-216.0,6.0,6.944
-227.0,-46.0,6.945
-210.0,-49.0,6.946
-159.0,-58.0,6.947
-86.0,-86.0,6.948
-28.0,-118.0,6.949
4.0,-188.0,6.95
40.0,-367.0,6.951
96.0,-612.0,6.952
135.0,-743.0,6.953
131.0,-632.0,6.954
120.0,-348.0,6.955
127.0,-71.0,6.956
130.0,95.0,6.957
101.0,184.0,6.958
74.0,236.0,6.959
51.0,272.0,6.96
44.0,262.0,6.961
33.0,276.0,6.962
10.0,360.0,6.963
-12.0,435.0,6.964
-29.0,482.0,6.965
-65.0,507.0,6.966
-155.0,464.0,6.967
-225.0,396.0,6.968
-237.0,256.0,6.969
-212.0,108.0,6.97
-77.0,-58.0,6.971
50.0,-211.0,6.972
150.0,-323.0,6.973
222.0,-411.0,6.974
206.0,-427.0,6.975
161.0,-435.0,6.976
33.0,-421.0,6.977
-62.0,-391.0,6.978
27.0,-298.0,6.979
195.0,-192.0,6.98
275.0,-94.0,6.981
225.0,23.0,6.982
139.0,167.0,6.983
80.0,296.0,6.984
24.0,364.0,6.985
-33.0,357.0,6.986
-52.0,291.0,6.987
-36.0,184.0,6.988
-43.0,53.0,6.989
-91.0,-71.0,6.99
-126.0,-154.0,6.991
-120.0,-181.0,6.992
-102.0,-166.0,6.993
-93.0,-144.0,6.994
-75.0,-147.0,6.995
-41.0,-172.0,6.996
-20.0,-185.0,6.997
-21.0,-154.0,6.998
-21.0,-80.0,6.999
-8.0,-7.0,7.0
2.0,30.0,7.001
2.0,57.0,7.002
8.0,108.0,7.003
16.0,188.0,7.004
8.0,256.0,7.005
-13.0,277.0,7.006
-19.0,252.0,7.007
-9.0,191.0,7.008
-9.0,98.0,7.009
-24.0,-16.0,7.01
-37.0,-104.0,7.011
-39.0,-128.0,7.012
-42.0,-108.0,7.013
-38.0,-93.0,7.014
-20.0,-109.0,7.015
10.0,-147.0,7.016
32.0,-209.0,7.017
42.0,-313.0,7.018
51.0,-404.0,7.019
54.0,-384.0,7.02
36.0,-220.0,7.021
19.0,4.0,7.022
9.0,174.0,7.023
2.0,266.0,7.024
3.0,321.0,7.025
3.0,359.0,7.026
-5.0,363.0,7.027
-11.0,335.0,7.028
-10.0,303.0,7.029
-5.0,276.0,7.03
11.0,224.0,7.031
21.0,112.0,7.032
13.0,-65.0,7.033
7.0,-263.0,7.034
13.0,-382.0,7.035
20.0,-344.0,7.036
24.0,-202.0,7.037
32.0,-97.0,7.038
50.0,-89.0,7.039
61.0,-77.0,7.04
41.0,-55.0,7.041
5.0,-30.0,7.042
-5.0,3.0,7.043
13.0,45.0,7.044
20.0,115.0,7.045
3.0,168.0,7.046
-15.0,166.0,7.047
-20.0,149.0,7.048
-29.0,90.0,7.049
-56.0,28.0,7.05
-77.0,-43.0,7.051
-72.0,-110.0,7.052
-44.0,-163.0,7.053
-20.0,-192.0,7.054
-4.0,-147.0,7.055
1.0,-100.0,7.056
6.0,-50.0,7.057
11.0,2.0,7.058
13.0,54.0,7.059
9.0,79.0,7.06
11.0,62.0,7.061
24.0,42.0,7.062
43.0,58.0,7.063
45.0,80.0,7.064
10.0,60.0,7.065
-44.0,10.0,7.066
-94.0,-10.0,7.067
-133.0,-11.0,7.068
-161.0,-75.0,7.069
-158.0,-232.0,7.07
-103.0,-382.0,7.071
-3.0,-412.0,7.072
106.0,-320.0,7.073
194.0,-211.0,7.074
254.0,-161.0,7.075
281.0,-152.0,7.076
265.0,-108.0,7.077
189.0,23.0,7.078
86.0,208.0,7.079
8.0,368.0,7.08
-17.0,460.0,7.081
-14.0,506.0,7.082
-26.0,521.0,7.083
-60.0,492.0,7.084
-89.0,422.0,7.085
-92.0,340.0,7.086
-71.0,271.0,7.087
-36.0,185.0,7.088
6.0,63.0,7.089
29.0,-69.0,7.09
8.0,-159.0,7.091
-42.0,-197.0,7.092
-74.0,-211.0,7.093
-65.0,-211.0,7.094
-46.0,-183.0,7.095
-42.0,-133.0,7.096
-37.0,-93.0,7.097
-23.0,-76.0,7.098
-8.0,-70.0,7.099
4.0,-55.0,7.1
3.0,-49.0,7.101
3.0,-64.0,7.102
8.0,-88.0,7.103
10.0,-94.0,7.104
1.0,-91.0,7.105
-6.0,-114.0,7.106
-4.0,-166.0,7.107
-3.0,-202.0,7.108
-1.0,-197.0,7.109
1.0,-177.0,7.11
6.0,-169.0,7.111
15.0,-150.0,7.112
37.0,-86.0,7.113
54.0,-8.0,7.114
54.0,32.0,7.115
51.0,28.0,7.116
44.0,24.0,7.117
37.0,19.0,7.118
29.0,-8.0,7.119
28.0,-45.0,7.12
47.0,-109.0,7.121
68.0,-141.0,7.122
51.0,-71.0,7.123
5.0,20.0,7.124
-35.0,176.0,7.125
-52.0,297.0,7.126
-69.0,314.0,7.127
-102.0,321.0,7.128
-129.0,291.0,7.129
-124.0,270.0,7.13
-88.0,278.0,7.131
-42.0,283.0,7.132
0.0,278.0,7.133
30.0,240.0,7.134
41.0,105.0,7.135
31.0,-9.0,7.136
20.0,-65.0,7.137
24.0,-112.0,7.138
22.0,-132.0,7.139
-4.0,-149.0,7.14
-36.0,-153.0,7.141
-31.0,-157.0,7.142
14.0,-181.0,7.143
62.0,-193.0,7.144
79.0,-160.0,7.145
71.0,-110.0,7.146
54.0,-87.0,7.147
35.0,-65.0,7.148
17.0,2.0,7.149
8.0,83.0,7.15
6.0,120.0,7.151
4.0,108.0,7.152
-4.0,73.0,7.153
-11.0,10.0,7.154
-13.0,-85.0,7.155
-11.0,-152.0,7.156
-5.0,-130.0,7.157
11.0,-29.0,7.158
25.0,38.0,7.159
12.0,49.0,7.16
-28.0,35.0,7.161
-61.0,19.0,7.162
-46.0,2.0,7.163
3.0,-8.0,7.164
32.0,-5.0,7.165
19.0,-1.0,7.166
10.0,-7.0,7.167
34.0,-21.0,7.168
55.0,-39.0,7.169
31.0,-67.0,7.17
-5.0,-106.0,7.171
-6.0,-132.0,7.172
20.0,-132.0,7.173
27.0,-128.0,7.174
14.0,-138.0,7.175
8.0,-145.0,7.176
15.0,-109.0,7.177
14.0,1.0,7.178
11.0,113.0,7.179
10.0,213.0,7.18
18.0,271.0,7.181
23.0,322.0,7.182
20.0,356.0,7.183
13.0,361.0,7.184
-8.0,284.0,7.185
-31.0,201.0,7.186
-61.0,108.0,7.187
-81.0,23.0,7.188
-66.0,-46.0,7.189
-57.0,-106.0,7.19
-65.0,-128.0,7.191
-63.0,-144.0,7.192
-29.0,-135.0,7.193
0.0,-117.0,7.194
18.0,-68.0,7.195
28.0,-37.0,7.196
14.0,-68.0,7.197
0.0,21.0,7.198
0.0,101.0,7.199
39.0,172.0,7.2
96.0,213.0,7.201
117.0,249.0,7.202
78.0,273.0,7.203
14.0,277.0,7.204
-23.0,222.0,7.205
-23.0,163.0,7.206
-12.0,97.0,7.207
-10.0,36.0,7.208
-19.0,-13.0,7.209
-23.0,-55.0,7.21
-22.0,-71.0,7.211
-18.0,-82.0,7.212
-13.0,-76.0,7.213
-8.0,-63.0,7.214
-5.0,-28.0,7.215
-3.0,-6.0,7.216
1.0,-28.0,7.217
8.0,-60.0,7.218
12.0,-134.0,7.219
7.0,-249.0,7.22
8.0,-353.0,7.221
19.0,-351.0,7.222
32.0,-214.0,7.223
41.0,-33.0,7.224
49.0,77.0,7.225
58.0,116.0,7.226
59.0,174.0,7.227
41.0,293.0,7.228
18.0,400.0,7.229
1.0,410.0,7.23
-9.0,327.0,7.231
-25.0,212.0,7.232
-47.0,100.0,7.233
-65.0,8.0,7.234
-71.0,-50.0,7.235
-67.0,-81.0,7.236
-54.0,-112.0,7.237
-36.0,-171.0,7.238
-21.0,-203.0,7.239
-9.0,-186.0,7.24
12.0,-143.0,7.241
51.0,-95.0,7.242
87.0,-39.0,7.243
85.0,26.0,7.244
39.0,75.0,7.245
-16.0,97.0,7.246
-43.0,108.0,7.247
-43.0,119.0,7.248
-41.0,111.0,7.249
-40.0,77.0,7.25
-23.0,32.0,7.251
5.0,-18.0,7.252
17.0,-84.0,7.253
-5.0,-149.0,7.254
-36.0,-176.0,7.255
-45.0,-163.0,7.256
-32.0,-139.0,7.257
-21.0,-124.0,7.258
-15.0,-101.0,7.259
-4.0,-75.0,7.26
18.0,-44.0,7.261
38.0,-22.0,7.262
49.0,-31.0,7.263
57.0,-56.0,7.264
53.0,-132.0,7.265
53.0,-197.0,7.266
70.0,-232.0,7.267
83.0,-235.0,7.268
82.0,-139.0,7.269
80.0,-44.0,7.27
74.0,44.0,7.271
59.0,131.0,7.272
15.0,212.0,7.273
-19.0,286.0,7.274
-24.0,338.0,7.275
-22.0,375.0,7.276
0.0,363.0,7.277
18.0,331.0,7.278
8.0,213.0,7.279
-35.0,55.0,7.28
-101.0,-68.0,7.281
-141.0,-102.0,7.282
-126.0,-78.0,7.283
-88.0,-66.0,7.284
-75.0,-78.0,7.285
-79.0,-66.0,7.286
-52.0,-9.0,7.287
6.0,51.0,7.288
46.0,73.0,7.289
35.0,64.0,7.29
8.0,36.0,7.291
14.0,-19.0,7.292
48.0,-92.0,7.293
77.0,-139.0,7.294
81.0,-132.0,7.295
71.0,-96.0,7.296
65.0,-66.0,7.297
55.0,-38.0,7.298
30.0,-3.0,7.299
-15.0,28.0,7.3
-48.0,26.0,7.301
-48.0,-3.0,7.302
-25.0,-41.0,7.303
-8.0,-86.0,7.304
-3.0,-134.0,7.305
7.0,-161.0,7.306
30.0,-140.0,7.307
54.0,-98.0,7.308
69.0,-86.0,7.309
79.0,-92.0,7.31
88.0,-45.0,7.311
88.0,71.0,7.312
76.0,179.0,7.313
54.0,203.0,7.314
15.0,164.0,7.315
-45.0,113.0,7.316
-108.0,76.0,7.317
-157.0,50.0,7.318
-170.0,56.0,7.319
-152.0,88.0,7.32
-123.0,95.0,7.321
-94.0,66.0,7.322
-61.0,36.0,7.323
-13.0,23.0,7.324
45.0,-5.0,7.325
101.0,-67.0,7.326
144.0,-124.0,7.327
165.0,-137.0,7.328
151.0,-121.0,7.329
98.0,-107.0,7.33
19.0,-94.0,7.331
