Deltoid,Bicep,Time
20,-17,0.0
20,27,0.001
11,68,0.002
6,67,0.003
10,30,0.004
16,5,0.005
18,17,0.006
18,35,0.007
20,38,0.008
21,73,0.009
22,192,0.01
25,357,0.011
31,446,0.012
37,394,0.013
35,261,0.014
29,184,0.015
22,185,0.016
14,118,0.017
7,-93,0.018
7,-328,0.019
8,-436,0.02
12,-461,0.021
14,-517,0.022
11,-513,0.023
8,-283,0.024
4,62,0.025
-2,219,0.026
-13,158,0.027
-22,167,0.028
-23,330,0.029
-25,311,0.03
-28,-131,0.031
-30,-733,0.032
-26,-1072,0.033
-22,-1123,0.034
-19,-1028,0.035
-13,-732,0.036
-7,-67,0.037
-1,776,0.038
8,1280,0.039
23,1231,0.04
31,944,0.041
27,769,0.042
22,656,0.043
21,380,0.044
21,-65,0.045
14,-469,0.046
5,-686,0.047
0,-765,0.048
-6,-865,0.049
-16,-1065,0.05
-23,-1227,0.051
-23,-1120,0.052
-20,-753,0.053
-23,-309,0.054
-29,5,0.055
-34,230,0.056
-34,452,0.057
-29,576,0.058
-20,477,0.059
-8,269,0.06
0,178,0.061
4,246,0.062
9,351,0.063
14,437,0.064
14,561,0.065
10,729,0.066
10,859,0.067
13,890,0.068
12,834,0.069
7,718,0.07
-1,545,0.071
-4,315,0.072
-1,51,0.073
11,-261,0.074
23,-545,0.075
24,-692,0.076
19,-662,0.077
20,-516,0.078
29,-343,0.079
36,-172,0.08
30,-9,0.081
18,91,0.082
13,65,0.083
12,-31,0.084
4,-70,0.085
-6,-8,0.086
-11,64,0.087
-9,65,0.088
-7,34,0.089
-10,37,0.09
-11,60,0.091
-7,59,0.092
3,53,0.093
10,97,0.094
16,204,0.095
13,339,0.096
5,452,0.097
3,487,0.098
6,382,0.099
0,146,0.1
-29,-97,0.101
-84,-231,0.102
-146,-264,0.103
-190,-309,0.104
-202,-446,0.105
-176,-657,0.106
-117,-843,0.107
-34,-894,0.108
66,-775,0.109
172,-540,0.11
254,-267,0.111
274,-12,0.112
236,165,0.113
165,227,0.114
112,203,0.115
86,193,0.116
70,241,0.117
52,284,0.118
35,267,0.119
19,236,0.12
-3,239,0.121
-22,242,0.122
-37,213,0.123
-55,183,0.124
-88,174,0.125
-116,135,0.126
-106,38,0.127
-60,-62,0.128
1,-106,0.129
60,-105,0.13
104,-93,0.131
119,-65,0.132
102,-21,0.133
67,9,0.134
43,5,0.135
39,-6,0.136
52,-2,0.137
63,12,0.138
54,18,0.139
13,19,0.14
-40,24,0.141
-68,19,0.142
-65,3,0.143
-60,-5,0.144
-69,0,0.145
-74,4,0.146
-59,0,0.147
-36,-4,0.148
-29,-5,0.149
-42,-10,0.15
-54,-22,0.151
-64,-28,0.152
-72,-21,0.153
-79,-14,0.154
-75,-13,0.155
-67,-12,0.156
-57,-14,0.157
-42,-15,0.158
-18,-15,0.159
6,-9,0.16
19,-6,0.161
22,-8,0.162
19,-11,0.163
13,-12,0.164
-3,-12,0.165
-18,-12,0.166
-19,-10,0.167
-10,-7,0.168
-3,-6,0.169
-2,-5,0.17
0,-1,0.171
11,3,0.172
22,4,0.173
31,-1,0.174
42,-4,0.175
58,-4,0.176
74,-4,0.177
83,-2,0.178
82,2,0.179
79,2,0.18
70,0,0.181
58,-2,0.182
44,-1,0.183
29,3,0.184
13,3,0.185
-6,4,0.186
-27,4,0.187
-40,4,0.188
-39,0,0.189
-30,-5,0.19
-27,-8,0.191
-29,-8,0.192
-28,-5,0.193
-20,1,0.194
-4,7,0.195
7,7,0.196
12,1,0.197
8,-2,0.198
6,0,0.199
6,2,0.2
3,4,0.201
-2,6,0.202
-7,7,0.203
-5,4,0.204
-3,-2,0.205
-2,-4,0.206
-3,0,0.207
-3,5,0.208
-1,5,0.209
0,3,0.21
4,1,0.211
7,1,0.212
7,1,0.213
5,0,0.214
5,-2,0.215
5,-6,0.216
7,-10,0.217
9,-11,0.218
13,-8,0.219
13,-4,0.22
4,0,0.221
-4,1,0.222
-5,0,0.223
-2,-2,0.224
-3,-4,0.225
-9,-9,0.226
-10,-12,0.227
-5,-8,0.228
1,1,0.229
8,9,0.23
13,8,0.231
13,3,0.232
7,7,0.233
0,9,0.234
6,6,0.235
16,-5,0.236
17,-14,0.237
14,-11,0.238
16,-2,0.239
22,5,0.24
22,9,0.241
14,9,0.242
4,7,0.243
3,2,0.244
6,1,0.245
9,8,0.246
7,12,0.247
2,7,0.248
-3,-1,0.249
-5,-5,0.25
-7,-6,0.251
-7,-6,0.252
-6,-6,0.253
-8,-9,0.254
-7,-9,0.255
-9,-7,0.256
-9,-5,0.257
-10,-4,0.258
-11,-3,0.259
-14,-1,0.26
-17,4,0.261
-16,9,0.262
-11,8,0.263
-5,6,0.264
3,3,0.265
15,0,0.266
28,-2,0.267
37,-4,0.268
38,-3,0.269
39,-2,0.27
39,-4,0.271
35,-5,0.272
27,-3,0.273
17,0,0.274
8,0,0.275
-2,-2,0.276
-14,-6,0.277
-22,-7,0.278
-24,-6,0.279
-18,-3,0.28
-10,1,0.281
-10,4,0.282
-15,4,0.283
-21,3,0.284
-25,2,0.285
-26,1,0.286
-29,3,0.287
-33,5,0.288
-31,4,0.289
-18,-2,0.29
3,-6,0.291
25,-4,0.292
38,3,0.293
39,4,0.294
34,2,0.295
28,2,0.296
31,3,0.297
39,4,0.298
43,0,0.299
30,-4,0.3
11,-5,0.301
-2,-3,0.302
-4,1,0.303
-8,2,0.304
-19,0,0.305
-25,-3,0.306
-21,-6,0.307
-13,-3,0.308
-14,0,0.309
-24,0,0.31
-30,-7,0.311
-30,-12,0.312
-22,-6,0.313
-8,6,0.314
8,11,0.315
20,3,0.316
22,-10,0.317
24,-12,0.318
33,-5,0.319
46,-1,0.32
50,-3,0.321
42,-4,0.322
29,1,0.323
20,7,0.324
7,11,0.325
-9,12,0.326
-19,10,0.327
-18,7,0.328
-19,1,0.329
-22,0,0.33
-23,0,0.331
-15,-1,0.332
-9,-4,0.333
-13,-6,0.334
-16,-4,0.335
-12,-6,0.336
-4,-17,0.337
2,-25,0.338
13,-19,0.339
27,-8,0.34
29,-2,0.341
15,-1,0.342
0,-1,0.343
0,3,0.344
5,5,0.345
2,5,0.346
-2,6,0.347
0,7,0.348
4,9,0.349
1,7,0.35
-3,6,0.351
-4,4,0.352
-2,3,0.353
-4,2,0.354
-6,-1,0.355
-5,-6,0.356
-2,-10,0.357
0,-10,0.358
3,-7,0.359
8,-7,0.36
7,-4,0.361
1,3,0.362
-3,8,0.363
0,2,0.364
3,-3,0.365
0,0,0.366
-4,7,0.367
-6,5,0.368
-5,0,0.369
-3,-1,0.37
0,2,0.371
4,2,0.372
10,0,0.373
14,0,0.374
16,1,0.375
11,0,0.376
4,-5,0.377
1,-5,0.378
6,-3,0.379
15,-1,0.38
14,2,0.381
5,5,0.382
0,5,0.383
-1,3,0.384
-4,3,0.385
-8,6,0.386
-11,6,0.387
-8,1,0.388
-8,-3,0.389
-6,-2,0.39
2,0,0.391
16,-2,0.392
28,-2,0.393
29,-6,0.394
21,-10,0.395
9,-10,0.396
0,-10,0.397
0,-6,0.398
3,-4,0.399
3,-4,0.4
-2,-2,0.401
-2,2,0.402
6,5,0.403
14,2,0.404
15,0,0.405
5,2,0.406
-6,2,0.407
-13,1,0.408
-13,3,0.409
-10,6,0.41
-5,7,0.411
-2,1,0.412
0,-5,0.413
1,-10,0.414
7,-7,0.415
15,0,0.416
21,-1,0.417
22,-3,0.418
20,1,0.419
17,8,0.42
11,8,0.421
2,-5,0.422
-5,-16,0.423
-7,-14,0.424
-6,-6,0.425
-5,-1,0.426
-6,0,0.427
-5,5,0.428
-3,10,0.429
0,7,0.43
1,-1,0.431
1,-9,0.432
-1,-10,0.433
-5,-9,0.434
-6,-4,0.435
-6,-3,0.436
-7,-8,0.437
-8,-8,0.438
-5,-3,0.439
3,2,0.44
8,0,0.441
7,-2,0.442
7,3,0.443
10,8,0.444
9,4,0.445
2,-3,0.446
1,-3,0.447
4,2,0.448
5,4,0.449
0,2,0.45
-2,4,0.451
-3,3,0.452
-1,-1,0.453
-2,-6,0.454
-3,-3,0.455
-5,3,0.456
-8,-2,0.457
-9,-6,0.458
0,-7,0.459
13,0,0.46
17,3,0.461
12,5,0.462
9,6,0.463
8,5,0.464
7,1,0.465
3,-3,0.466
3,-4,0.467
5,-5,0.468
2,-6,0.469
-1,-4,0.47
0,-1,0.471
7,1,0.472
9,2,0.473
4,-1,0.474
0,-2,0.475
-4,-1,0.476
-4,-1,0.477
-3,0,0.478
3,2,0.479
8,3,0.48
4,1,0.481
0,0,0.482
-3,-3,0.483
-6,-2,0.484
-6,0,0.485
-4,2,0.486
-2,0,0.487
-1,-1,0.488
0,0,0.489
1,0,0.49
0,-2,0.491
-2,-3,0.492
-2,0,0.493
-3,4,0.494
-5,2,0.495
-11,-1,0.496
-13,-5,0.497
-11,-2,0.498
-2,17,0.499
9,60,0.5
15,122,0.501
15,178,0.502
15,218,0.503
18,240,0.504
18,231,0.505
13,153,0.506
4,-5,0.507
-2,-193,0.508
-6,-333,0.509
-9,-393,0.51
-5,-367,0.511
4,-222,0.512
15,31,0.513
22,310,0.514
23,437,0.515
19,353,0.516
12,205,0.517
6,143,0.518
6,117,0.519
7,-8,0.52
1,-224,0.521
-3,-386,0.522
-2,-438,0.523
2,-443,0.524
-2,-437,0.525
-8,-347,0.526
-5,-137,0.527
5,103,0.528
13,263,0.529
14,339,0.53
17,399,0.531
23,439,0.532
24,386,0.533
15,202,0.534
3,-2,0.535
-5,-99,0.536
-9,-119,0.537
-6,-201,0.538
2,-381,0.539
12,-525,0.54
12,-530,0.541
7,-460,0.542
12,-389,0.543
25,-238,0.544
32,59,0.545
26,355,0.546
15,459,0.547
6,453,0.548
-1,581,0.549
-7,800,0.55
-10,761,0.551
-9,316,0.552
-10,-188,0.553
-15,-480,0.554
-16,-628,0.555
-19,-883,0.556
-24,-1185,0.557
-28,-1228,0.558
-28,-983,0.559
-29,-707,0.56
-29,-504,0.561
-29,-219,0.562
-25,168,0.563
-19,444,0.564
-5,504,0.565
8,507,0.566
20,620,0.567
30,834,0.568
30,1058,0.569
26,1197,0.57
14,1116,0.571
3,768,0.572
-1,351,0.573
-6,4,0.574
-15,-257,0.575
-21,-494,0.576
-23,-614,0.577
-19,-484,0.578
-9,-219,0.579
4,-42,0.58
12,45,0.581
16,183,0.582
19,365,0.583
24,468,0.584
25,481,0.585
18,446,0.586
9,313,0.587
2,58,0.588
0,-173,0.589
-3,-259,0.59
-1,-268,0.591
8,-259,0.592
18,-120,0.593
22,183,0.594
16,643,0.595
6,881,0.596
-2,645,0.597
-5,-30,0.598
0,-857,0.599
8,-1451,0.6
9,-1621,0.601
1,-1516,0.602
-5,-1342,0.603
-4,-1053,0.604
6,-550,0.605
16,-4,0.606
27,390,0.607
41,748,0.608
46,1199,0.609
37,1471,0.61
18,1245,0.611
1,728,0.612
-8,378,0.613
-16,162,0.614
-22,-168,0.615
-27,-552,0.616
-25,-677,0.617
-15,-556,0.618
0,-475,0.619
11,-482,0.62
10,-375,0.621
3,-115,0.622
8,107,0.623
21,170,0.624
25,87,0.625
14,-130,0.626
3,-454,0.627
2,-747,0.628
3,-844,0.629
0,-692,0.63
-1,-351,0.631
2,65,0.632
5,394,0.633
0,561,0.634
-6,590,0.635
-13,592,0.636
-20,607,0.637
-24,592,0.638
-20,530,0.639
-10,473,0.64
-8,440,0.641
-15,391,0.642
-17,312,0.643
-13,242,0.644
-7,198,0.645
-4,157,0.646
-4,110,0.647
-3,74,0.648
-4,49,0.649
-5,20,0.65
-2,-10,0.651
4,-30,0.652
7,-45,0.653
6,-69,0.654
7,-90,0.655
8,-93,0.656
7,-93,0.657
5,-98,0.658
10,-102,0.659
16,-94,0.66
15,-84,0.661
7,-83,0.662
5,-87,0.663
8,-84,0.664
8,-79,0.665
5,-77,0.666
6,-75,0.667
8,-71,0.668
6,-70,0.669
2,-71,0.67
0,-68,0.671
2,-62,0.672
3,-58,0.673
4,-59,0.674
7,-57,0.675
5,-48,0.676
0,-45,0.677
-1,-43,0.678
6,-37,0.679
13,-27,0.68
9,-21,0.681
2,-21,0.682
0,-20,0.683
3,-17,0.684
5,-16,0.685
3,-16,0.686
3,-12,0.687
4,-7,0.688
5,-5,0.689
6,-5,0.69
7,-4,0.691
5,-2,0.692
2,0,0.693
1,-5,0.694
4,-7,0.695
3,-4,0.696
-2,-4,0.697
-3,-4,0.698
4,-4,0.699
11,-3,0.7
9,0,0.701
-1,3,0.702
-5,4,0.703
-4,1,0.704
-1,0,0.705
1,1,0.706
3,2,0.707
10,1,0.708
15,1,0.709
15,2,0.71
12,4,0.711
10,2,0.712
8,1,0.713
6,-1,0.714
2,-1,0.715
-3,-2,0.716
-10,-5,0.717
-9,-4,0.718
-2,0,0.719
5,2,0.72
5,6,0.721
-1,9,0.722
-4,8,0.723
-4,5,0.724
-1,1,0.725
0,2,0.726
0,4,0.727
0,2,0.728
0,1,0.729
-2,2,0.73
-4,4,0.731
-4,3,0.732
0,3,0.733
0,2,0.734
-1,4,0.735
-3,5,0.736
-3,3,0.737
-2,1,0.738
1,2,0.739
6,3,0.74
7,7,0.741
4,9,0.742
2,5,0.743
3,1,0.744
6,1,0.745
2,3,0.746
-1,3,0.747
0,1,0.748
2,1,0.749
0,2,0.75
-3,1,0.751
0,-2,0.752
8,-2,0.753
11,-1,0.754
6,-1,0.755
0,-3,0.756
-2,-6,0.757
-3,-5,0.758
2,-4,0.759
12,-3,0.76
14,-2,0.761
8,1,0.762
1,2,0.763
2,1,0.764
5,0,0.765
3,-2,0.766
-1,-3,0.767
1,-4,0.768
6,-4,0.769
8,-5,0.77
6,-4,0.771
3,-2,0.772
4,2,0.773
3,-1,0.774
2,-4,0.775
-1,-4,0.776
-5,-5,0.777
-7,-5,0.778
-6,-6,0.779
-3,-4,0.78
-1,3,0.781
-2,7,0.782
0,4,0.783
4,-2,0.784
7,-5,0.785
1,-3,0.786
-6,-1,0.787
-11,0,0.788
-17,0,0.789
-27,0,0.79
-39,-1,0.791
-50,-3,0.792
-61,-2,0.793
-78,-2,0.794
-91,-1,0.795
-75,0,0.796
-17,-1,0.797
60,-1,0.798
117,0,0.799
134,1,0.8
113,2,0.801
73,2,0.802
36,3,0.803
16,5,0.804
-1,4,0.805
-31,4,0.806
-66,4,0.807
-72,3,0.808
-45,-2,0.809
-20,-9,0.81
-25,-10,0.811
-37,-7,0.812
-18,-1,0.813
46,-1,0.814
120,-4,0.815
165,-6,0.816
171,-5,0.817
160,-1,0.818
150,0,0.819
139,0,0.82
100,3,0.821
21,5,0.822
-78,5,0.823
-154,2,0.824
-172,0,0.825
-148,0,0.826
-126,-2,0.827
-126,-4,0.828
-101,-6,0.829
-3,-3,0.83
131,-3,0.831
205,-6,0.832
187,-8,0.833
127,-9,0.834
64,-5,0.835
-38,-1,0.836
-180,1,0.837
-260,4,0.838
-190,7,0.839
-42,10,0.84
50,13,0.841
70,14,0.842
97,12,0.843
149,8,0.844
167,3,0.845
133,1,0.846
98,0,0.847
100,1,0.848
120,-1,0.849
110,-5,0.85
46,-10,0.851
-50,-11,0.852
-111,-6,0.853
-103,0,0.854
-50,4,0.855
-5,5,0.856
32,-1,0.857
83,-5,0.858
108,-10,0.859
54,-12,0.86
-45,-10,0.861
-103,-8,0.862
-107,-8,0.863
-106,-6,0.864
-122,0,0.865
-134,10,0.866
-138,13,0.867
-144,8,0.868
-136,4,0.869
-92,3,0.87
-45,2,0.871
-38,-2,0.872
-57,-2,0.873
-56,-2,0.874
-20,-3,0.875
15,-2,0.876
22,0,0.877
12,3,0.878
5,-1,0.879
6,-5,0.88
2,-4,0.881
-4,0,0.882
-4,-1,0.883
11,-5,0.884
29,-1,0.885
32,6,0.886
18,4,0.887
6,-3,0.888
9,-8,0.889
14,-10,0.89
9,-10,0.891
5,-8,0.892
7,-3,0.893
5,0,0.894
-3,-3,0.895
-4,-8,0.896
11,-8,0.897
27,-2,0.898
36,1,0.899
40,2,0.9
51,3,0.901
67,6,0.902
79,6,0.903
82,2,0.904
73,2,0.905
56,6,0.906
35,6,0.907
19,1,0.908
12,-1,0.909
7,0,0.91
1,1,0.911
-4,1,0.912
-5,5,0.913
-6,10,0.914
-8,14,0.915
-16,11,0.916
-23,-1,0.917
-27,-9,0.918
-23,-10,0.919
-18,-3,0.92
-20,2,0.921
-26,2,0.922
-21,-2,0.923
-1,-5,0.924
14,-6,0.925
14,-4,0.926
9,-4,0.927
15,-7,0.928
21,-12,0.929
16,-10,0.93
10,0,0.931
18,6,0.932
29,3,0.933
24,-4,0.934
12,-5,0.935
14,0,0.936
31,-1,0.937
44,-4,0.938
46,-4,0.939
43,0,0.94
40,6,0.941
25,9,0.942
-1,6,0.943
-18,0,0.944
-20,-4,0.945
-19,-2,0.946
-23,2,0.947
-26,5,0.948
-24,6,0.949
-20,6,0.95
-21,3,0.951
-27,-4,0.952
-35,-8,0.953
-44,-7,0.954
-50,-4,0.955
-59,-2,0.956
-77,-5,0.957
-86,-4,0.958
-66,-2,0.959
-36,-1,0.96
25,1,0.961
78,4,0.962
106,4,0.963
128,0,0.964
132,-2,0.965
125,0,0.966
83,4,0.967
46,4,0.968
23,1,0.969
5,0,0.97
2,-2,0.971
-4,-5,0.972
-19,-6,0.973
-33,-6,0.974
-38,-6,0.975
-39,-8,0.976
-41,-13,0.977
-39,-11,0.978
-25,-9,0.979
-12,-3,0.98
-15,4,0.981
-25,10,0.982
-26,11,0.983
-16,7,0.984
-8,5,0.985
-8,6,0.986
-8,7,0.987
-4,3,0.988
-3,2,0.989
-5,5,0.99
-4,6,0.991
-2,2,0.992
-3,0,0.993
-9,0,0.994
-11,0,0.995
-11,-2,0.996
-15,-8,0.997
-14,-7,0.998
0,-5,0.999
18,-2,1.0
25,0,1.001
22,2,1.002
23,1,1.003
28,-1,1.004
27,0,1.005
20,2,1.006
17,0,1.007
20,-4,1.008
17,-5,1.009
10,-2,1.01
7,0,1.011
8,0,1.012
9,2,1.013
2,4,1.014
0,3,1.015
1,2,1.016
0,-2,1.017
-3,-2,1.018
-4,-1,1.019
1,2,1.02
6,8,1.021
1,7,1.022
-3,-5,1.023
-2,-14,1.024
3,-13,1.025
4,-5,1.026
2,-1,1.027
4,-4,1.028
9,-6,1.029
11,-4,1.03
11,-1,1.031
10,-2,1.032
11,1,1.033
7,3,1.034
1,2,1.035
-5,-1,1.036
-8,-7,1.037
-7,-9,1.038
-1,-6,1.039
2,0,1.04
-1,7,1.041
-7,8,1.042
-9,2,1.043
-1,-4,1.044
6,-3,1.045
6,4,1.046
4,6,1.047
6,0,1.048
11,-6,1.049
13,-4,1.05
13,0,1.051
12,1,1.052
8,-1,1.053
-1,-4,1.054
-10,-1,1.055
-15,0,1.056
-14,-3,1.057
-12,-4,1.058
-6,-1,1.059
2,6,1.06
6,11,1.061
4,10,1.062
1,5,1.063
2,-1,1.064
3,-3,1.065
1,-1,1.066
-5,0,1.067
-7,-1,1.068
-4,-3,1.069
0,-4,1.07
2,-4,1.071
6,-3,1.072
12,0,1.073
12,0,1.074
9,-2,1.075
2,-3,1.076
-2,-4,1.077
-1,-2,1.078
1,0,1.079
3,2,1.08
3,2,1.081
2,3,1.082
2,1,1.083
2,-1,1.084
2,-1,1.085
3,0,1.086
2,-1,1.087
0,-4,1.088
-2,-4,1.089
-1,-3,1.09
0,-3,1.091
1,-7,1.092
4,-6,1.093
4,-4,1.094
3,-3,1.095
-1,-5,1.096
-2,-7,1.097
0,-3,1.098
4,0,1.099
9,2,1.1
10,4,1.101
8,6,1.102
4,6,1.103
3,3,1.104
1,3,1.105
1,5,1.106
1,6,1.107
1,3,1.108
1,-1,1.109
0,-1,1.11
0,-1,1.111
0,-3,1.112
2,-3,1.113
3,-2,1.114
3,-3,1.115
0,-5,1.116
-4,-10,1.117
-3,-8,1.118
2,-4,1.119
6,0,1.12
4,1,1.121
3,2,1.122
3,3,1.123
7,0,1.124
7,-4,1.125
3,-4,1.126
1,-1,1.127
2,2,1.128
4,0,1.129
2,-1,1.13
1,-2,1.131
2,-2,1.132
2,-2,1.133
-1,-2,1.134
-4,0,1.135
-4,1,1.136
-5,-1,1.137
-4,-5,1.138
2,-4,1.139
11,1,1.14
13,8,1.141
6,11,1.142
2,6,1.143
4,-1,1.144
8,-3,1.145
7,0,1.146
6,4,1.147
7,1,1.148
7,-3,1.149
5,-2,1.15
3,2,1.151
3,5,1.152
7,7,1.153
4,6,1.154
0,4,1.155
-3,2,1.156
-3,-2,1.157
0,-5,1.158
4,-6,1.159
6,-5,1.16
3,-3,1.161
1,-1,1.162
3,-4,1.163
5,-12,1.164
4,-14,1.165
-1,-9,1.166
-2,-3,1.167
-2,-3,1.168
-1,-4,1.169
-1,-3,1.17
0,-3,1.171
1,-6,1.172
1,-5,1.173
0,0,1.174
-2,2,1.175
-4,0,1.176
-5,-6,1.177
-3,-4,1.178
0,1,1.179
6,1,1.18
8,1,1.181
4,4,1.182
2,6,1.183
4,4,1.184
7,1,1.185
7,1,1.186
2,0,1.187
0,-2,1.188
1,-2,1.189
3,1,1.19
2,3,1.191
-1,1,1.192
-2,-1,1.193
-4,-1,1.194
-12,2,1.195
-20,4,1.196
-23,2,1.197
-18,3,1.198
-9,4,1.199
0,7,1.2
7,12,1.201
13,19,1.202
16,22,1.203
15,12,1.204
11,-3,1.205
5,-14,1.206
2,-18,1.207
0,-22,1.208
-1,-28,1.209
0,-30,1.21
4,-28,1.211
8,-21,1.212
10,-8,1.213
9,18,1.214
16,65,1.215
22,116,1.216
26,142,1.217
29,150,1.218
32,167,1.219
34,202,1.22
29,205,1.221
19,114,1.222
13,-55,1.223
8,-217,1.224
1,-316,1.225
-7,-361,1.226
-11,-359,1.227
-9,-294,1.228
-7,-178,1.229
-8,-81,1.23
-11,-45,1.231
-10,-36,1.232
-8,-8,1.233
-8,28,1.234
-10,43,1.235
-13,43,1.236
-16,52,1.237
-15,68,1.238
-9,70,1.239
-1,72,1.24
4,89,1.241
1,105,1.242
-2,93,1.243
-1,64,1.244
2,48,1.245
1,40,1.246
0,17,1.247
0,-14,1.248
0,-25,1.249
-3,-15,1.25
-4,-8,1.251
-6,-6,1.252
-9,1,1.253
-15,13,1.254
-19,16,1.255
-20,10,1.256
-21,6,1.257
-19,10,1.258
-8,15,1.259
9,18,1.26
21,23,1.261
21,28,1.262
21,25,1.263
26,16,1.264
29,10,1.265
24,9,1.266
17,7,1.267
15,3,1.268
18,2,1.269
23,2,1.27
26,-1,1.271
25,-5,1.272
19,-7,1.273
14,-6,1.274
12,-6,1.275
8,-6,1.276
-1,-6,1.277
-9,-7,1.278
-5,-8,1.279
-2,-8,1.28
-6,-4,1.281
-9,-1,1.282
-11,-2,1.283
-13,-5,1.284
-14,-6,1.285
-15,-6,1.286
-15,-5,1.287
-15,-5,1.288
-13,-5,1.289
-11,-6,1.29
-9,-8,1.291
-5,-6,1.292
0,-2,1.293
4,-1,1.294
5,-4,1.295
7,-7,1.296
10,-7,1.297
13,-8,1.298
18,-8,1.299
23,-6,1.3
19,0,1.301
7,4,1.302
1,4,1.303
7,4,1.304
9,2,1.305
2,2,1.306
-3,7,1.307
0,11,1.308
3,9,1.309
-1,8,1.31
-4,8,1.311
-3,8,1.312
0,10,1.313
0,15,1.314
-1,35,1.315
1,93,1.316
4,184,1.317
10,267,1.318
18,296,1.319
26,267,1.32
23,220,1.321
13,160,1.322
5,32,1.323
3,-190,1.324
3,-431,1.325
1,-579,1.326
0,-598,1.327
0,-535,1.328
-2,-427,1.329
-5,-286,1.33
-7,-146,1.331
-7,-48,1.332
-6,5,1.333
-9,62,1.334
-9,113,1.335
-10,133,1.336
-15,127,1.337
-18,126,1.338
-17,132,1.339
-18,117,1.34
-22,88,1.341
-29,81,1.342
-28,97,1.343
-21,101,1.344
-14,87,1.345
-6,79,1.346
3,85,1.347
17,81,1.348
33,67,1.349
52,57,1.35
67,54,1.351
66,45,1.352
48,33,1.353
26,28,1.354
20,30,1.355
23,28,1.356
24,14,1.357
19,9,1.358
15,16,1.359
15,37,1.36
17,78,1.361
18,139,1.362
19,187,1.363
17,189,1.364
13,159,1.365
12,161,1.366
14,220,1.367
12,274,1.368
3,238,1.369
-6,83,1.37
-12,-141,1.371
-14,-376,1.372
-18,-569,1.373
-23,-682,1.374
-24,-671,1.375
-25,-616,1.376
-26,-430,1.377
-24,-265,1.378
-17,-162,1.379
-10,-63,1.38
-8,21,1.381
-13,91,1.382
-16,115,1.383
-14,138,1.384
-11,160,1.385
-12,179,1.386
-13,186,1.387
-13,193,1.388
-11,199,1.389
-9,199,1.39
-7,177,1.391
-2,165,1.392
4,186,1.393
11,199,1.394
12,154,1.395
7,74,1.396
1,14,1.397
0,-11,1.398
6,-33,1.399
14,-68,1.4
12,-100,1.401
3,-116,1.402
0,-118,1.403
3,-113,1.404
8,-100,1.405
6,-75,1.406
3,-40,1.407
5,-9,1.408
8,3,1.409
6,-2,1.41
4,-4,1.411
5,12,1.412
8,34,1.413
5,45,1.414
1,46,1.415
1,43,1.416
3,39,1.417
4,35,1.418
8,32,1.419
14,31,1.42
16,29,1.421
11,26,1.422
4,22,1.423
4,16,1.424
7,10,1.425
5,6,1.426
2,9,1.427
3,12,1.428
5,13,1.429
4,7,1.43
-1,-2,1.431
-4,-10,1.432
-3,-12,1.433
1,-12,1.434
5,-12,1.435
6,-11,1.436
2,-12,1.437
-1,-5,1.438
2,1,1.439
11,3,1.44
14,-3,1.441
10,-8,1.442
7,-13,1.443
8,-22,1.444
7,-30,1.445
0,-29,1.446
-8,-21,1.447
-11,-10,1.448
-10,-3,1.449
-7,-4,1.45
-3,-12,1.451
0,-22,1.452
4,-18,1.453
6,3,1.454
5,31,1.455
1,50,1.456
-6,40,1.457
-10,29,1.458
-7,14,1.459
-2,2,1.46
-3,-3,1.461
-7,-7,1.462
-10,-8,1.463
-7,-11,1.464
-2,-20,1.465
3,-31,1.466
9,-47,1.467
10,-58,1.468
4,-52,1.469
-6,-43,1.47
-14,-24,1.471
-13,-11,1.472
-7,-15,1.473
-4,-20,1.474
-5,-35,1.475
-3,-59,1.476
3,-79,1.477
12,-77,1.478
19,-55,1.479
25,-33,1.48
29,-16,1.481
27,4,1.482
24,24,1.483
22,29,1.484
18,26,1.485
13,30,1.486
9,35,1.487
9,25,1.488
10,-1,1.489
12,-27,1.49
15,-31,1.491
17,-15,1.492
12,7,1.493
2,27,1.494
-4,46,1.495
-6,66,1.496
-9,82,1.497
-13,87,1.498
-7,70,1.499
2,41,1.5
3,26,1.501
-7,25,1.502
-11,21,1.503
0,2,1.504
11,-17,1.505
11,-17,1.506
3,-4,1.507
2,6,1.508
2,20,1.509
-2,60,1.51
-5,132,1.511
-3,209,1.512
-1,263,1.513
-8,277,1.514
-18,224,1.515
-25,92,1.516
-28,-94,1.517
-24,-267,1.518
-12,-365,1.519
0,-355,1.52
7,-244,1.521
10,-95,1.522
18,5,1.523
30,27,1.524
32,31,1.525
24,79,1.526
19,130,1.527
22,114,1.528
23,56,1.529
20,35,1.53
19,58,1.531
27,56,1.532
36,-5,1.533
42,-92,1.534
46,-159,1.535
41,-220,1.536
20,-314,1.537
-8,-417,1.538
-23,-464,1.539
-21,-408,1.54
-19,-270,1.541
-26,-112,1.542
-33,15,1.543
-33,104,1.544
-38,152,1.545
-47,162,1.546
-46,179,1.547
-27,264,1.548
-4,425,1.549
13,614,1.55
25,792,1.551
34,907,1.552
40,874,1.553
35,623,1.554
27,274,1.555
19,-6,1.556
8,-232,1.557
-4,-542,1.558
-7,-907,1.559
-4,-1100,1.56
-5,-1026,1.561
-15,-849,1.562
-19,-708,1.563
-9,-548,1.564
2,-317,1.565
2,-123,1.566
-6,-47,1.567
-14,7,1.568
-17,157,1.569
-22,352,1.57
-28,473,1.571
-29,482,1.572
-18,418,1.573
-1,349,1.574
20,367,1.575
35,438,1.576
43,664,1.577
46,803,1.578
40,676,1.579
25,508,1.58
3,218,1.581
-15,-59,1.582
-20,-299,1.583
-18,-546,1.584
-22,-816,1.585
-24,-998,1.586
-16,-916,1.587
7,-781,1.588
27,-486,1.589
32,-169,1.59
27,209,1.591
18,504,1.592
13,545,1.593
6,527,1.594
3,319,1.595
-2,117,1.596
-6,-111,1.597
-1,-330,1.598
12,-378,1.599
21,-173,1.6
12,155,1.601
-6,415,1.602
-16,525,1.603
-12,474,1.604
0,275,1.605
13,45,1.606
22,-60,1.607
28,-60,1.608
24,-122,1.609
13,-263,1.61
-2,-306,1.611
-12,-173,1.612
-13,-18,1.613
-9,64,1.614
-6,131,1.615
-12,189,1.616
-21,97,1.617
-24,-150,1.618
-21,-323,1.619
-20,-296,1.62
-25,-226,1.621
-28,-245,1.622
-20,-241,1.623
-1,-101,1.624
18,65,1.625
26,133,1.626
23,175,1.627
19,305,1.628
18,482,1.629
19,589,1.63
16,566,1.631
11,410,1.632
6,177,1.633
-4,-61,1.634
-15,-202,1.635
-21,-268,1.636
-11,-329,1.637
10,-339,1.638
26,-239,1.639
35,-106,1.64
37,-54,1.641
34,-15,1.642
24,151,1.643
10,394,1.644
-1,507,1.645
-3,415,1.646
-4,233,1.647
-5,44,1.648
-5,-201,1.649
-2,-513,1.65
2,-764,1.651
2,-821,1.652
3,-707,1.653
4,-511,1.654
5,-295,1.655
-2,-69,1.656
-12,148,1.657
-13,300,1.658
2,351,1.659
17,360,1.66
18,415,1.661
9,492,1.662
3,497,1.663
9,426,1.664
15,379,1.665
10,340,1.666
0,145,1.667
-9,-246,1.668
-15,-613,1.669
-17,-741,1.67
-16,-652,1.671
-8,-470,1.672
4,-255,1.673
13,-30,1.674
15,84,1.675
8,49,1.676
-2,23,1.677
-8,145,1.678
-4,333,1.679
3,421,1.68
5,371,1.681
0,242,1.682
-6,86,1.683
-10,-59,1.684
-13,-155,1.685
-14,-202,1.686
-13,-213,1.687
-5,-180,1.688
5,-113,1.689
14,-68,1.69
14,-50,1.691
6,8,1.692
0,130,1.693
0,240,1.694
4,228,1.695
9,103,1.696
12,-24,1.697
15,-60,1.698
17,-32,1.699
19,-26,1.7
20,-72,1.701
19,-116,1.702
15,-114,1.703
7,-94,1.704
0,-65,1.705
-8,22,1.706
-12,155,1.707
-13,200,1.708
-14,89,1.709
-10,-52,1.71
-5,-70,1.711
-2,-5,1.712
-3,7,1.713
-7,-38,1.714
-6,-32,1.715
-4,47,1.716
-5,95,1.717
-11,66,1.718
-8,26,1.719
8,34,1.72
27,58,1.721
31,53,1.722
25,18,1.723
19,-22,1.724
18,-44,1.725
15,-7,1.726
9,125,1.727
2,292,1.728
-2,330,1.729
-3,119,1.73
-2,-253,1.731
-1,-544,1.732
3,-581,1.733
2,-397,1.734
-1,-165,1.735
-8,-29,1.736
-12,4,1.737
-8,6,1.738
2,23,1.739
12,68,1.74
14,126,1.741
6,161,1.742
-1,134,1.743
-2,66,1.744
-1,18,1.745
-4,19,1.746
-12,30,1.747
-12,13,1.748
-7,-10,1.749
-2,-12,1.75
0,-3,1.751
5,-7,1.752
9,-16,1.753
9,-8,1.754
6,13,1.755
5,27,1.756
4,32,1.757
2,56,1.758
3,78,1.759
7,27,1.76
5,-108,1.761
-6,-217,1.762
-17,-165,1.763
-19,33,1.764
-16,207,1.765
-13,218,1.766
-9,99,1.767
2,-28,1.768
16,-101,1.769
25,-113,1.77
26,-62,1.771
16,28,1.772
7,89,1.773
10,82,1.774
19,54,1.775
20,63,1.776
10,72,1.777
6,16,1.778
16,-76,1.779
26,-109,1.78
26,-26,1.781
19,106,1.782
14,145,1.783
6,5,1.784
-4,-221,1.785
-11,-326,1.786
-7,-208,1.787
-2,10,1.788
-6,139,1.789
-17,137,1.79
-26,91,1.791
-24,69,1.792
-17,63,1.793
-10,52,1.794
-7,47,1.795
-10,43,1.796
-12,20,1.797
-4,-7,1.798
9,-14,1.799
17,0,1.8
13,10,1.801
4,0,1.802
4,-33,1.803
10,-80,1.804
15,-119,1.805
17,-114,1.806
18,-50,1.807
15,33,1.808
3,74,1.809
-4,50,1.81
-4,5,1.811
0,-8,1.812
0,8,1.813
-7,10,1.814
-14,-27,1.815
-13,-79,1.816
-6,-96,1.817
1,-68,1.818
6,-39,1.819
8,-36,1.82
9,-33,1.821
12,2,1.822
13,47,1.823
10,45,1.824
2,-16,1.825
-6,-77,1.826
-11,-74,1.827
-10,-12,1.828
-4,47,1.829
1,67,1.83
4,65,1.831
8,62,1.832
14,55,1.833
12,28,1.834
3,-8,1.835
-3,-38,1.836
-1,-36,1.837
0,23,1.838
-3,113,1.839
-2,154,1.84
2,98,1.841
2,11,1.842
-2,4,1.843
-3,74,1.844
4,124,1.845
6,107,1.846
-2,72,1.847
-7,50,1.848
-3,-2,1.849
3,-101,1.85
7,-181,1.851
7,-185,1.852
12,-143,1.853
11,-94,1.854
5,-37,1.855
0,21,1.856
-2,37,1.857
-4,-9,1.858
-8,-72,1.859
-5,-103,1.86
3,-110,1.861
11,-104,1.862
12,-52,1.863
13,70,1.864
14,205,1.865
15,249,1.866
15,175,1.867
16,59,1.868
17,-25,1.869
13,-67,1.87
6,-84,1.871
4,-66,1.872
6,-21,1.873
8,19,1.874
2,23,1.875
-4,10,1.876
-7,8,1.877
-5,16,1.878
0,17,1.879
6,16,1.88
9,15,1.881
5,3,1.882
0,-25,1.883
1,-43,1.884
2,-33,1.885
-1,-10,1.886
-6,4,1.887
-6,9,1.888
-3,6,1.889
-1,-7,1.89
-2,-31,1.891
0,-50,1.892
1,-54,1.893
-3,-51,1.894
-10,-49,1.895
-15,-55,1.896
-15,-68,1.897
-11,-69,1.898
2,-42,1.899
22,18,1.9
32,81,1.901
24,112,1.902
8,102,1.903
1,79,1.904
8,60,1.905
11,26,1.906
8,-49,1.907
3,-159,1.908
4,-251,1.909
5,-252,1.91
2,-125,1.911
-3,78,1.912
-5,244,1.913
-6,312,1.914
-8,282,1.915
-12,185,1.916
-18,58,1.917
-20,-31,1.918
-10,-38,1.919
-2,-4,1.92
0,-12,1.921
1,-54,1.922
1,-38,1.923
1,45,1.924
2,91,1.925
3,46,1.926
1,-11,1.927
0,-12,1.928
-2,-7,1.929
-4,-54,1.93
-6,-124,1.931
-9,-150,1.932
-8,-132,1.933
-5,-95,1.934
-2,-62,1.935
1,-40,1.936
6,-32,1.937
12,-12,1.938
17,32,1.939
17,84,1.94
14,113,1.941
15,117,1.942
19,88,1.943
19,10,1.944
14,-97,1.945
6,-152,1.946
3,-102,1.947
0,7,1.948
-6,90,1.949
-12,124,1.95
-11,135,1.951
-8,113,1.952
-6,39,1.953
-4,-69,1.954
1,-119,1.955
6,-74,1.956
6,-6,1.957
5,8,1.958
12,-24,1.959
18,-43,1.96
17,-22,1.961
10,12,1.962
6,28,1.963
9,15,1.964
9,-24,1.965
5,-83,1.966
6,-132,1.967
11,-144,1.968
10,-118,1.969
2,-67,1.97
-3,9,1.971
-4,106,1.972
-1,189,1.973
-3,219,1.974
-9,198,1.975
-15,156,1.976
-17,103,1.977
-15,36,1.978
-10,-37,1.979
-4,-72,1.98
-1,-57,1.981
0,-38,1.982
2,-43,1.983
9,-52,1.984
18,-35,1.985
21,-10,1.986
20,-6,1.987
17,-18,1.988
13,-28,1.989
8,-36,1.99
5,-44,1.991
6,-44,1.992
10,-39,1.993
8,-32,1.994
1,-8,1.995
-6,12,1.996
-11,20,1.997
-8,12,1.998
1,-44,1.999
9,-79,2.0
10,-47,2.001
6,-6,2.002
4,59,2.003
6,116,2.004
4,144,2.005
-3,140,2.006
-7,37,2.007
-7,-43,2.008
-9,-56,2.009
-13,-62,2.01
-13,-44,2.011
-6,-31,2.012
3,-38,2.013
7,-54,2.014
6,-109,2.015
4,-166,2.016
0,-172,2.017
-1,-79,2.018
8,87,2.019
15,223,2.02
9,252,2.021
3,189,2.022
0,98,2.023
-4,10,2.024
-9,-43,2.025
-12,-16,2.026
-8,73,2.027
-3,126,2.028
1,89,2.029
5,23,2.03
10,-5,2.031
15,-17,2.032
16,-48,2.033
17,-67,2.034
13,-45,2.035
15,-34,2.036
17,-56,2.037
18,-68,2.038
19,-46,2.039
20,-29,2.04
14,-26,2.041
3,-23,2.042
0,-25,2.043
4,-34,2.044
4,-61,2.045
-2,-82,2.046
-6,-80,2.047
-5,-70,2.048
-8,-36,2.049
-15,2,2.05
-15,50,2.051
-9,79,2.052
-4,49,2.053
-4,20,2.054
-8,16,2.055
-11,38,2.056
-15,50,2.057
-20,48,2.058
-17,40,2.059
-6,29,2.06
0,20,2.061
-3,20,2.062
-6,24,2.063
-2,8,2.064
5,-29,2.065
5,-60,2.066
1,-57,2.067
2,-28,2.068
4,-11,2.069
2,-14,2.07
-5,-17,2.071
-7,-8,2.072
1,4,2.073
13,4,2.074
19,-3,2.075
17,-12,2.076
13,-25,2.077
16,-28,2.078
21,5,2.079
22,17,2.08
14,-39,2.081
5,-79,2.082
4,-66,2.083
7,-32,2.084
6,63,2.085
0,125,2.086
-3,86,2.087
-1,59,2.088
2,75,2.089
1,85,2.09
-2,79,2.091
-2,70,2.092
0,52,2.093
-1,35,2.094
-2,26,2.095
-3,8,2.096
-7,-21,2.097
-9,-44,2.098
-5,-46,2.099
-1,-29,2.1
-1,-20,2.101
0,-31,2.102
5,-45,2.103
10,-43,2.104
13,-41,2.105
15,-47,2.106
12,-50,2.107
9,-34,2.108
11,-12,2.109
14,-9,2.11
13,-21,2.111
12,-27,2.112
14,-26,2.113
17,-28,2.114
13,-20,2.115
5,2,2.116
-1,13,2.117
-2,-24,2.118
2,-97,2.119
8,-121,2.12
5,-44,2.121
-2,67,2.122
-6,116,2.123
-3,95,2.124
-3,73,2.125
-7,70,2.126
-7,45,2.127
-7,-4,2.128
-10,-15,2.129
-15,21,2.13
-9,48,2.131
6,31,2.132
15,12,2.133
13,13,2.134
6,11,2.135
5,-21,2.136
7,-53,2.137
6,-47,2.138
4,-25,2.139
3,-25,2.14
-2,-49,2.141
-13,-57,2.142
-23,-24,2.143
-23,35,2.144
-14,76,2.145
0,74,2.146
14,45,2.147
22,12,2.148
21,-19,2.149
16,-43,2.15
10,-33,2.151
4,27,2.152
1,97,2.153
-1,116,2.154
1,59,2.155
2,-48,2.156
-2,-159,2.157
-7,-205,2.158
-6,-153,2.159
-1,-48,2.16
0,20,2.161
-1,30,2.162
-2,38,2.163
3,66,2.164
9,65,2.165
9,25,2.166
8,10,2.167
14,46,2.168
20,71,2.169
17,41,2.17
8,1,2.171
3,-2,2.172
5,7,2.173
5,-2,2.174
2,-15,2.175
0,-12,2.176
-2,-10,2.177
-3,-15,2.178
4,-18,2.179
11,-13,2.18
16,-14,2.181
18,-21,2.182
10,-16,2.183
3,-3,2.184
1,-6,2.185
-1,-22,2.186
-3,-28,2.187
-5,-20,2.188
-8,-23,2.189
-9,-49,2.19
-1,-78,2.191
4,-78,2.192
1,-43,2.193
-3,7,2.194
-7,44,2.195
-5,71,2.196
-3,66,2.197
-1,57,2.198
3,35,2.199
11,15,2.2
14,1,2.201
12,3,2.202
7,58,2.203
4,103,2.204
2,116,2.205
0,109,2.206
-3,39,2.207
-3,-26,2.208
0,-78,2.209
1,-113,2.21
-1,-97,2.211
-3,-73,2.212
0,-31,2.213
2,12,2.214
1,33,2.215
-5,0,2.216
-9,-42,2.217
-6,-40,2.218
1,-11,2.219
8,6,2.22
9,19,2.221
4,36,2.222
4,42,2.223
8,24,2.224
12,11,2.225
6,27,2.226
-2,46,2.227
-4,41,2.228
-3,27,2.229
-6,25,2.23
-7,20,2.231
0,-7,2.232
12,-36,2.233
15,-45,2.234
10,-38,2.235
0,-39,2.236
0,-44,2.237
4,-33,2.238
7,-18,2.239
8,-39,2.24
9,-104,2.241
7,-179,2.242
4,-205,2.243
2,-138,2.244
0,5,2.245
-1,144,2.246
-3,203,2.247
-2,187,2.248
-2,151,2.249
-1,115,2.25
1,66,2.251
4,18,2.252
4,8,2.253
1,25,2.254
-3,23,2.255
-5,-6,2.256
-5,-35,2.257
-4,-65,2.258
-2,-111,2.259
1,-130,2.26
-2,-66,2.261
-5,44,2.262
0,97,2.263
15,70,2.264
25,32,2.265
24,18,2.266
17,-3,2.267
14,-41,2.268
13,-49,2.269
9,-12,2.27
4,20,2.271
4,22,2.272
4,23,2.273
0,31,2.274
-4,14,2.275
-5,-29,2.276
-2,-59,2.277
2,-47,2.278
8,-26,2.279
10,-24,2.28
6,-29,2.281
-2,-20,2.282
-5,-9,2.283
-3,-11,2.284
-3,-23,2.285
-4,-31,2.286
-1,-18,2.287
5,18,2.288
8,62,2.289
-1,80,2.29
-11,63,2.291
-12,38,2.292
-6,23,2.293
-3,8,2.294
-5,3,2.295
-4,28,2.296
3,71,2.297
11,78,2.298
13,15,2.299
13,-63,2.3
11,-96,2.301
5,-86,2.302
1,-76,2.303
2,-70,2.304
6,-54,2.305
9,-26,2.306
10,7,2.307
13,46,2.308
13,77,2.309
8,65,2.31
2,12,2.311
0,-32,2.312
1,-31,2.313
0,-12,2.314
-2,-2,2.315
-5,7,2.316
-6,13,2.317
-4,15,2.318
2,-1,2.319
10,-21,2.32
8,-50,2.321
-1,-81,2.322
-5,-115,2.323
-1,-121,2.324
5,-40,2.325
8,22,2.326
7,28,2.327
3,38,2.328
-1,59,2.329
-5,80,2.33
-5,97,2.331
-1,111,2.332
3,110,2.333
4,111,2.334
4,98,2.335
1,42,2.336
-6,-18,2.337
-12,-34,2.338
-8,-18,2.339
3,-8,2.34
11,-10,2.341
6,-18,2.342
0,-30,2.343
0,-45,2.344
3,-53,2.345
1,-58,2.346
4,-61,2.347
11,-54,2.348
11,-36,2.349
0,-16,2.35
-6,-8,2.351
-3,1,2.352
4,15,2.353
4,23,2.354
0,15,2.355
-1,-2,2.356
-1,-21,2.357
-2,-40,2.358
1,-53,2.359
5,-43,2.36
5,-16,2.361
2,-2,2.362
-1,-10,2.363
-1,-15,2.364
-1,5,2.365
-3,39,2.366
1,64,2.367
8,78,2.368
9,85,2.369
4,76,2.37
3,48,2.371
7,8,2.372
9,-20,2.373
4,-31,2.374
2,-17,2.375
6,10,2.376
9,21,2.377
12,-2,2.378
18,-56,2.379
23,-98,2.38
18,-93,2.381
7,-56,2.382
2,-32,2.383
4,-45,2.384
4,-74,2.385
-1,-88,2.386
-5,-69,2.387
-5,-8,2.388
-4,81,2.389
-8,152,2.39
-9,160,2.391
-7,124,2.392
-7,97,2.393
-10,84,2.394
-15,66,2.395
-18,38,2.396
-19,17,2.397
-14,16,2.398
-2,8,2.399
8,-18,2.4
11,-39,2.401
8,-41,2.402
10,-35,2.403
12,-31,2.404
8,-22,2.405
5,-1,2.406
9,16,2.407
16,15,2.408
17,-1,2.409
17,-13,2.41
18,-13,2.411
17,-20,2.412
14,-54,2.413
5,-111,2.414
0,-132,2.415
-6,-89,2.416
-14,-27,2.417
-17,-2,2.418
-6,-9,2.419
3,-18,2.42
8,-21,2.421
12,-25,2.422
9,-7,2.423
7,49,2.424
7,95,2.425
7,81,2.426
7,39,2.427
6,13,2.428
2,-17,2.429
-1,-97,2.43
-1,-169,2.431
-1,-124,2.432
-5,21,2.433
-8,132,2.434
-8,136,2.435
-10,135,2.436
-13,119,2.437
-11,97,2.438
-2,57,2.439
7,24,2.44
9,14,2.441
6,7,2.442
5,7,2.443
8,3,2.444
9,-14,2.445
5,-26,2.446
0,-17,2.447
-4,-12,2.448
-5,-22,2.449
-4,-30,2.45
0,-34,2.451
3,-39,2.452
7,-47,2.453
7,-50,2.454
9,-31,2.455
5,-17,2.456
1,-20,2.457
1,-28,2.458
4,-40,2.459
4,-59,2.46
-3,-62,2.461
-13,-31,2.462
-19,19,2.463
-20,53,2.464
-15,70,2.465
-3,84,2.466
15,84,2.467
25,45,2.468
28,-10,2.469
26,-30,2.47
30,-13,2.471
32,-3,2.472
28,-13,2.473
19,-30,2.474
11,-36,2.475
0,-43,2.476
-9,-48,2.477
-12,-19,2.478
-5,35,2.479
2,68,2.48
2,55,2.481
-2,20,2.482
-3,-11,2.483
-4,-32,2.484
-6,-37,2.485
-7,-17,2.486
-2,15,2.487
4,24,2.488
8,8,2.489
8,-3,2.49
9,-1,2.491
12,-4,2.492
13,-17,2.493
11,-25,2.494
7,-13,2.495
1,9,2.496
-4,14,2.497
-9,5,2.498
-5,-6,2.499
-2,-21,2.5
-2,-45,2.501
-3,-79,2.502
-1,-109,2.503
0,-115,2.504
-2,-84,2.505
-5,-15,2.506
-9,68,2.507
-12,121,2.508
-12,124,2.509
-12,101,2.51
-7,85,2.511
0,79,2.512
11,60,2.513
19,26,2.514
17,2,2.515
5,-1,2.516
1,-5,2.517
5,-20,2.518
13,-40,2.519
18,-61,2.52
14,-85,2.521
7,-106,2.522
3,-102,2.523
4,-51,2.524
3,33,2.525
-2,98,2.526
-9,99,2.527
-11,55,2.528
-5,27,2.529
3,45,2.53
10,72,2.531
13,67,2.532
16,37,2.533
16,6,2.534
9,-2,2.535
-1,3,2.536
-9,3,2.537
-10,-5,2.538
-5,-17,2.539
-1,-22,2.54
3,-17,2.541
5,-8,2.542
9,-6,2.543
6,-9,2.544
3,-17,2.545
0,-29,2.546
-2,-43,2.547
-3,-46,2.548
-2,-34,2.549
-1,-20,2.55
-2,-16,2.551
-7,-17,2.552
-8,-15,2.553
-5,-10,2.554
-5,-4,2.555
-5,-3,2.556
-9,-17,2.557
-11,-36,2.558
-3,-39,2.559
1,-14,2.56
3,22,2.561
4,36,2.562
2,24,2.563
0,15,2.564
-2,20,2.565
-6,24,2.566
-6,11,2.567
-3,0,2.568
9,3,2.569
20,11,2.57
19,6,2.571
18,-3,2.572
18,-2,2.573
-4,1,2.574
-4,1,2.575
-4,0,2.576
-8,-1,2.577
-9,-4,2.578
-3,-4,2.579
1,-2,2.58
3,3,2.581
4,7,2.582
2,3,2.583
0,-1,2.584
-2,-3,2.585
-5,-5,2.586
-5,0,2.587
-3,4,2.588
8,2,2.589
17,1,2.59
16,2,2.591
15,3,2.592
15,-2,2.593
12,-5,2.594
4,-2,2.595
-3,0,2.596
-4,-4,2.597
-3,-8,2.598
-2,-8,2.599
1,-3,2.6
1,2,2.601
-3,6,2.602
-9,7,2.603
-9,5,2.604
-1,3,2.605
7,2,2.606
11,2,2.607
11,0,2.608
7,-3,2.609
2,-3,2.61
-1,-2,2.611
0,-2,2.612
2,0,2.613
-1,0,2.614
-5,1,2.615
-9,-1,2.616
-12,-6,2.617
-14,-6,2.618
-10,-3,2.619
0,1,2.62
7,5,2.621
4,7,2.622
1,5,2.623
4,1,2.624
9,0,2.625
9,0,2.626
8,1,2.627
10,0,2.628
14,-2,2.629
14,-4,2.63
9,-3,2.631
7,-3,2.632
10,0,2.633
13,2,2.634
15,4,2.635
11,2,2.636
6,-2,2.637
0,-3,2.638
1,-3,2.639
5,-3,2.64
4,-2,2.641
0,2,2.642
-5,7,2.643
-3,7,2.644
-3,1,2.645
-3,-4,2.646
-4,-5,2.647
-2,-5,2.648
1,-5,2.649
4,-5,2.65
10,-3,2.651
16,-3,2.652
19,-3,2.653
16,-5,2.654
13,-3,2.655
8,-2,2.656
-1,-5,2.657
-7,-6,2.658
-5,-3,2.659
-4,-2,2.66
-5,-2,2.661
-5,0,2.662
-1,3,2.663
3,2,2.664
3,-1,2.665
2,0,2.666
1,2,2.667
0,-1,2.668
0,-5,2.669
-1,-3,2.67
-2,0,2.671
-3,0,2.672
-1,-1,2.673
0,-1,2.674
-3,-3,2.675
-5,-5,2.676
-4,-6,2.677
-4,-7,2.678
0,-2,2.679
9,2,2.68
12,4,2.681
5,6,2.682
0,6,2.683
3,5,2.684
7,2,2.685
4,0,2.686
0,0,2.687
1,1,2.688
3,2,2.689
1,3,2.69
0,3,2.691
1,1,2.692
10,0,2.693
15,-3,2.694
13,-3,2.695
3,-6,2.696
-6,-7,2.697
-8,-4,2.698
-3,-2,2.699
4,-6,2.7
3,-7,2.701
-2,-3,2.702
-5,1,2.703
-3,-1,2.704
-2,-7,2.705
-2,-6,2.706
0,-4,2.707
1,-3,2.708
-1,-2,2.709
-2,0,2.71
3,1,2.711
14,-1,2.712
18,-2,2.713
13,-1,2.714
8,0,2.715
3,-1,2.716
2,-4,2.717
1,-1,2.718
4,4,2.719
9,5,2.72
7,7,2.721
0,11,2.722
-5,13,2.723
-2,8,2.724
-1,3,2.725
-7,3,2.726
-16,6,2.727
-15,3,2.728
-8,2,2.729
-3,3,2.73
-1,4,2.731
1,1,2.732
5,0,2.733
4,3,2.734
2,6,2.735
2,2,2.736
6,-6,2.737
9,-8,2.738
11,-2,2.739
14,0,2.74
14,0,2.741
7,1,2.742
4,2,2.743
12,2,2.744
24,-1,2.745
26,-1,2.746
20,0,2.747
16,-2,2.748
17,-6,2.749
15,-6,2.75
7,-4,2.751
0,-5,2.752
0,-6,2.753
-2,-6,2.754
-7,-3,2.755
-14,-2,2.756
-19,-6,2.757
-20,-9,2.758
-13,-6,2.759
-3,-3,2.76
0,-2,2.761
-6,0,2.762
-11,1,2.763
-7,3,2.764
-2,1,2.765
-3,0,2.766
-8,1,2.767
-1,2,2.768
10,0,2.769
12,-2,2.77
4,-1,2.771
-1,0,2.772
4,0,2.773
6,2,2.774
5,3,2.775
3,0,2.776
1,-6,2.777
0,-7,2.778
1,-3,2.779
7,3,2.78
10,8,2.781
3,9,2.782
-2,6,2.783
1,1,2.784
7,-2,2.785
6,-7,2.786
0,-13,2.787
-1,-18,2.788
3,-17,2.789
8,-12,2.79
12,-9,2.791
14,-11,2.792
12,-7,2.793
5,0,2.794
1,7,2.795
-2,6,2.796
-8,-1,2.797
-13,-3,2.798
-8,2,2.799
6,4,2.8
14,1,2.801
11,-1,2.802
5,0,2.803
8,3,2.804
15,4,2.805
15,5,2.806
11,6,2.807
10,5,2.808
7,6,2.809
3,11,2.81
0,15,2.811
3,16,2.812
7,15,2.813
5,12,2.814
0,6,2.815
-8,-5,2.816
-10,-18,2.817
-7,-22,2.818
1,-21,2.819
10,-20,2.82
12,-16,2.821
7,-7,2.822
4,1,2.823
5,1,2.824
8,-1,2.825
7,0,2.826
4,2,2.827
1,2,2.828
0,2,2.829
0,3,2.83
3,3,2.831
3,0,2.832
2,0,2.833
0,2,2.834
-1,7,2.835
-5,7,2.836
-12,0,2.837
-15,1,2.838
-8,5,2.839
-3,7,2.84
-7,7,2.841
-17,9,2.842
-17,6,2.843
-5,0,2.844
5,0,2.845
6,6,2.846
5,11,2.847
10,9,2.848
16,10,2.849
17,13,2.85
17,14,2.851
15,12,2.852
12,10,2.853
8,8,2.854
5,4,2.855
1,-3,2.856
-3,-9,2.857
-5,-7,2.858
0,-12,2.859
11,-29,2.86
16,-43,2.861
13,-44,2.862
10,-34,2.863
12,-22,2.864
11,-12,2.865
5,-4,2.866
-1,1,2.867
0,5,2.868
2,5,2.869
-1,3,2.87
-5,0,2.871
-7,-4,2.872
-5,-5,2.873
-4,-2,2.874
-5,2,2.875
-9,3,2.876
-8,3,2.877
-4,7,2.878
1,11,2.879
5,17,2.88
4,24,2.881
1,31,2.882
2,30,2.883
7,25,2.884
8,21,2.885
2,19,2.886
-2,12,2.887
-2,0,2.888
0,-8,2.889
0,-15,2.89
1,-28,2.891
6,-48,2.892
9,-59,2.893
4,-53,2.894
0,-34,2.895
-1,-17,2.896
0,-11,2.897
1,-6,2.898
4,2,2.899
11,9,2.9
13,10,2.901
6,9,2.902
-1,7,2.903
1,8,2.904
9,11,2.905
9,12,2.906
2,11,2.907
-1,8,2.908
1,9,2.909
4,10,2.91
3,9,2.911
1,6,2.912
1,5,2.913
0,5,2.914
-1,4,2.915
-4,1,2.916
-5,-6,2.917
-4,-7,2.918
3,-4,2.919
11,1,2.92
13,5,2.921
5,5,2.922
1,2,2.923
3,0,2.924
3,-1,2.925
0,-2,2.926
-2,-4,2.927
-1,-7,2.928
0,-7,2.929
1,-5,2.93
1,-5,2.931
2,-8,2.932
5,-9,2.933
3,-7,2.934
0,-4,2.935
-4,-6,2.936
-7,-9,2.937
-7,-6,2.938
0,-2,2.939
8,0,2.94
9,1,2.941
1,3,2.942
-1,3,2.943
5,0,2.944
12,1,2.945
10,4,2.946
5,6,2.947
4,3,2.948
7,2,2.949
7,3,2.95
6,6,2.951
5,4,2.952
6,2,2.953
5,0,2.954
4,-3,2.955
0,-3,2.956
-5,-6,2.957
-9,-7,2.958
-4,-9,2.959
6,-9,2.96
8,-5,2.961
1,-2,2.962
-2,-2,2.963
1,-4,2.964
4,-2,2.965
1,0,2.966
0,-1,2.967
2,-5,2.968
4,-3,2.969
4,3,2.97
3,7,2.971
5,5,2.972
8,5,2.973
3,4,2.974
0,3,2.975
-2,0,2.976
-3,-3,2.977
-5,-3,2.978
-2,-2,2.979
6,-1,2.98
9,0,2.981
3,0,2.982
-2,0,2.983
0,-1,2.984
5,-2,2.985
4,-2,2.986
0,-2,2.987
0,-2,2.988
2,-3,2.989
1,-1,2.99
-1,-2,2.991
0,0,2.992
5,3,2.993
4,2,2.994
0,-1,2.995
-4,-4,2.996
-4,-5,2.997
-2,-2,2.998
2,-1,2.999
6,0,3.0
8,5,3.001
5,8,3.002
1,5,3.003
2,-2,3.004
4,-3,3.005
3,0,3.006
4,0,3.007
8,-3,3.008
10,-6,3.009
9,-6,3.01
7,-4,3.011
7,-4,3.012
7,-1,3.013
5,-1,3.014
2,-1,3.015
1,-2,3.016
0,-6,3.017
-2,-6,3.018
1,-4,3.019
9,-1,3.02
9,1,3.021
0,5,3.022
-4,7,3.023
0,3,3.024
5,-1,3.025
1,-2,3.026
-4,0,3.027
-3,1,3.028
0,0,3.029
1,-1,3.03
1,0,3.031
2,0,3.032
5,0,3.033
2,-1,3.034
-2,-1,3.035
-5,-1,3.036
-7,-6,3.037
-6,-7,3.038
2,-3,3.039
9,0,3.04
6,0,3.041
-1,0,3.042
-1,0,3.043
5,2,3.044
5,0,3.045
-1,0,3.046
-1,0,3.047
5,0,3.048
7,0,3.049
1,-3,3.05
-2,-1,3.051
0,0,3.052
3,1,3.053
1,0,3.054
0,-2,3.055
-1,-4,3.056
-3,-6,3.057
-5,-5,3.058
-1,-2,3.059
7,2,3.06
8,5,3.061
1,4,3.062
0,0,3.063
7,-1,3.064
13,0,3.065
13,1,3.066
11,0,3.067
12,-3,3.068
11,-1,3.069
6,2,3.07
3,3,3.071
3,2,3.072
3,3,3.073
-1,3,3.074
-5,0,3.075
-7,-5,3.076
-8,-7,3.077
-8,-4,3.078
-3,-1,3.079
4,-1,3.08
7,1,3.081
2,4,3.082
-1,7,3.083
1,6,3.084
5,2,3.085
7,-1,3.086
6,-1,3.087
7,0,3.088
4,0,3.089
0,-2,3.09
-1,-2,3.091
4,0,3.092
6,3,3.093
3,1,3.094
-2,-4,3.095
-5,-5,3.096
-5,-6,3.097
-4,-4,3.098
1,-5,3.099
8,-4,3.1
7,2,3.101
-1,7,3.102
-4,4,3.103
0,-1,3.104
2,-3,3.105
0,0,3.106
0,3,3.107
4,2,3.108
9,-1,3.109
9,-3,3.11
6,-3,3.111
9,-4,3.112
11,-3,3.113
6,-3,3.114
3,-2,3.115
1,-1,3.116
1,-2,3.117
0,-3,3.118
2,-2,3.119
4,0,3.12
4,6,3.121
4,10,3.122
1,8,3.123
-1,1,3.124
-1,-1,3.125
0,0,3.126
1,0,3.127
3,-1,3.128
3,0,3.129
4,-1,3.13
4,-2,3.131
4,-4,3.132
8,-3,3.133
9,-2,3.134
3,-2,3.135
-4,-2,3.136
-7,-2,3.137
-8,-2,3.138
-4,-1,3.139
4,0,3.14
6,1,3.141
-1,2,3.142
-4,2,3.143
1,1,3.144
9,0,3.145
9,-1,3.146
5,0,3.147
5,2,3.148
6,0,3.149
4,-3,3.15
2,-2,3.151
5,-1,3.152
8,-1,3.153
5,-3,3.154
-1,-5,3.155
-5,-2,3.156
-8,-5,3.157
-7,-4,3.158
-3,-1,3.159
4,2,3.16
5,5,3.161
-1,4,3.162
-5,2,3.163
0,0,3.164
6,-2,3.165
5,-3,3.166
0,0,3.167
-1,2,3.168
4,0,3.169
7,-2,3.17
7,-2,3.171
6,0,3.172
7,0,3.173
8,-2,3.174
6,-2,3.175
-1,-1,3.176
-5,-4,3.177
-3,-6,3.178
3,-1,3.179
10,5,3.18
8,6,3.181
4,2,3.182
2,-3,3.183
7,-4,3.184
11,-3,3.185
10,-1,3.186
7,0,3.187
3,-1,3.188
3,-3,3.189
3,-1,3.19
2,0,3.191
3,-1,3.192
6,-1,3.193
6,-1,3.194
3,2,3.195
-2,0,3.196
-6,-6,3.197
-6,-9,3.198
0,-4,3.199
8,-1,3.2
9,3,3.201
6,5,3.202
1,6,3.203
1,4,3.204
3,0,3.205
5,-3,3.206
5,-3,3.207
3,-5,3.208
0,-5,3.209
-1,-3,3.21
0,0,3.211
2,1,3.212
2,0,3.213
-1,0,3.214
-3,0,3.215
-4,-2,3.216
-2,-6,3.217
-1,-6,3.218
2,-1,3.219
7,2,3.22
10,3,3.221
3,4,3.222
-2,2,3.223
0,-1,3.224
6,-2,3.225
8,0,3.226
5,3,3.227
3,2,3.228
4,0,3.229
5,0,3.23
3,1,3.231
2,2,3.232
5,2,3.233
3,0,3.234
1,0,3.235
-3,1,3.236
-4,0,3.237
-4,0,3.238
-2,-1,3.239
4,-1,3.24
10,0,3.241
7,2,3.242
1,0,3.243
-1,-4,3.244
0,-5,3.245
1,-1,3.246
1,1,3.247
2,-1,3.248
3,-3,3.249
3,0,3.25
2,2,3.251
2,1,3.252
2,0,3.253
2,0,3.254
1,1,3.255
-1,0,3.256
-6,-5,3.257
-10,-6,3.258
-6,-5,3.259
0,-2,3.26
0,0,3.261
-6,4,3.262
-6,5,3.263
6,3,3.264
17,0,3.265
19,1,3.266
16,0,3.267
13,-3,3.268
10,-7,3.269
5,-7,3.27
1,-5,3.271
2,-2,3.272
6,0,3.273
5,-1,3.274
1,-1,3.275
-3,-3,3.276
-3,-5,3.277
-2,-5,3.278
3,-3,3.279
8,1,3.28
6,4,3.281
0,4,3.282
-1,2,3.283
3,1,3.284
7,4,3.285
4,5,3.286
0,0,3.287
2,-6,3.288
5,-8,3.289
1,-3,3.29
-4,2,3.291
-5,1,3.292
0,0,3.293
0,-1,3.294
-1,-1,3.295
-6,-3,3.296
-11,-5,3.297
-12,-2,3.298
-7,0,3.299
-1,0,3.3
2,1,3.301
-1,7,3.302
-1,9,3.303
3,0,3.304
5,-6,3.305
3,-5,3.306
4,0,3.307
8,2,3.308
8,0,3.309
3,-1,3.31
0,0,3.311
0,-1,3.312
-1,-2,3.313
-6,-2,3.314
-6,-2,3.315
-5,-3,3.316
-5,-8,3.317
-6,-7,3.318
-1,-5,3.319
12,-4,3.32
20,-2,3.321
20,1,3.322
18,3,3.323
20,1,3.324
21,0,3.325
16,1,3.326
10,2,3.327
7,0,3.328
1,-4,3.329
-5,-5,3.33
-5,-2,3.331
1,-4,3.332
4,-6,3.333
-4,-5,3.334
-14,-1,3.335
-17,1,3.336
-15,-1,3.337
-14,-3,3.338
-12,0,3.339
-6,3,3.34
0,6,3.341
1,7,3.342
-1,5,3.343
1,2,3.344
7,2,3.345
12,1,3.346
19,1,3.347
29,2,3.348
33,2,3.349
24,1,3.35
14,0,3.351
12,-1,3.352
19,-1,3.353
17,-1,3.354
7,-2,3.355
0,-2,3.356
2,-4,3.357
2,-4,3.358
-2,-4,3.359
-4,-3,3.36
-2,-2,3.361
-2,1,3.362
-8,3,3.363
-9,1,3.364
-4,0,3.365
-2,0,3.366
-5,1,3.367
-10,1,3.368
-9,0,3.369
-9,-1,3.37
-8,-2,3.371
-3,-3,3.372
2,-2,3.373
2,-4,3.374
-3,-6,3.375
-11,-7,3.376
-16,-9,3.377
-14,-9,3.378
-8,-6,3.379
-1,-3,3.38
0,0,3.381
-6,0,3.382
-9,-2,3.383
-3,-4,3.384
8,-2,3.385
16,2,3.386
20,6,3.387
23,3,3.388
22,-1,3.389
19,-1,3.39
18,3,3.391
20,5,3.392
20,8,3.393
15,10,3.394
8,10,3.395
4,7,3.396
1,-3,3.397
-3,-6,3.398
-3,-5,3.399
2,-2,3.4
5,1,3.401
1,3,3.402
-1,5,3.403
2,4,3.404
6,3,3.405
2,4,3.406
-4,4,3.407
-4,0,3.408
-2,-3,3.409
-2,-1,3.41
-2,3,3.411
-1,3,3.412
-2,1,3.413
-9,-1,3.414
-15,-2,3.415
-14,-4,3.416
-10,-9,3.417
-8,-8,3.418
-2,-3,3.419
6,-1,3.42
9,-1,3.421
10,-2,3.422
16,-4,3.423
26,-3,3.424
32,-2,3.425
24,0,3.426
14,-1,3.427
7,-5,3.428
4,-6,3.429
1,-5,3.43
0,-2,3.431
0,-1,3.432
1,1,3.433
1,2,3.434
2,1,3.435
0,-2,3.436
-6,-6,3.437
-11,-3,3.438
-7,0,3.439
1,-1,3.44
3,0,3.441
0,4,3.442
0,2,3.443
4,-4,3.444
4,-8,3.445
0,-3,3.446
-1,4,3.447
3,4,3.448
4,0,3.449
0,0,3.45
-3,3,3.451
-1,3,3.452
1,1,3.453
0,-3,3.454
0,-5,3.455
-1,-4,3.456
-4,-5,3.457
-4,-4,3.458
2,-3,3.459
9,-1,3.46
6,1,3.461
-2,3,3.462
-4,4,3.463
0,2,3.464
4,-2,3.465
4,-1,3.466
3,0,3.467
6,-1,3.468
6,-1,3.469
2,0,3.47
2,3,3.471
4,3,3.472
6,2,3.473
0,1,3.474
-5,1,3.475
-6,-1,3.476
-1,-6,3.477
6,-6,3.478
11,-2,3.479
13,1,3.48
13,2,3.481
14,1,3.482
12,2,3.483
10,2,3.484
6,0,3.485
2,-1,3.486
-2,-1,3.487
-2,-1,3.488
1,-2,3.489
5,-2,3.49
5,-1,3.491
2,-2,3.492
0,-3,3.493
0,-1,3.494
1,2,3.495
-1,2,3.496
-8,-4,3.497
-13,-7,3.498
-8,-5,3.499
-3,0,3.5
-3,1,3.501
-6,3,3.502
-7,4,3.503
0,2,3.504
7,-1,3.505
10,-1,3.506
5,1,3.507
0,-2,3.508
1,-4,3.509
9,-2,3.51
16,3,3.511
14,4,3.512
8,1,3.513
4,-1,3.514
3,0,3.515
0,-1,3.516
-5,-7,3.517
-3,-8,3.518
5,-3,3.519
11,1,3.52
6,0,3.521
-1,-1,3.522
0,0,3.523
5,0,3.524
6,0,3.525
2,0,3.526
1,2,3.527
3,1,3.528
0,0,3.529
-7,-1,3.53
-11,0,3.531
-6,2,3.532
-2,2,3.533
-1,-1,3.534
-1,-3,3.535
0,-4,3.536
1,-7,3.537
5,-8,3.538
15,-4,3.539
26,2,3.54
27,6,3.541
17,7,3.542
7,4,3.543
6,-1,3.544
8,-5,3.545
4,-4,3.546
-2,0,3.547
-2,2,3.548
1,0,3.549
2,-4,3.55
0,-5,3.551
-2,-6,3.552
-2,-2,3.553
-4,0,3.554
-5,2,3.555
-7,2,3.556
-8,-3,3.557
-5,-4,3.558
1,-3,3.559
8,-1,3.56
8,2,3.561
4,5,3.562
1,6,3.563
3,3,3.564
5,0,3.565
6,-1,3.566
8,1,3.567
9,0,3.568
5,-2,3.569
-1,-3,3.57
-5,0,3.571
-3,2,3.572
2,4,3.573
2,2,3.574
-1,0,3.575
-6,-4,3.576
-9,-9,3.577
-5,-9,3.578
2,-5,3.579
7,-1,3.58
4,2,3.581
1,4,3.582
0,4,3.583
1,0,3.584
0,-2,3.585
-1,-1,3.586
0,1,3.587
0,2,3.588
1,1,3.589
2,1,3.59
4,1,3.591
5,-1,3.592
8,-2,3.593
8,-4,3.594
9,-6,3.595
6,-6,3.596
2,-5,3.597
0,-2,3.598
2,0,3.599
4,0,3.6
5,-1,3.601
3,1,3.602
1,3,3.603
2,3,3.604
6,2,3.605
7,2,3.606
2,2,3.607
-3,0,3.608
-3,-2,3.609
-1,-1,3.61
1,0,3.611
2,1,3.612
8,3,3.613
14,2,3.614
16,-1,3.615
9,-5,3.616
0,-9,3.617
-2,-6,3.618
2,-3,3.619
4,-1,3.62
-1,1,3.621
-9,3,3.622
-11,3,3.623
-8,0,3.624
-3,-2,3.625
0,0,3.626
11,0,3.627
25,-1,3.628
35,-2,3.629
31,0,3.63
21,-1,3.631
11,-3,3.632
2,-1,3.633
-5,0,3.634
-11,0,3.635
-15,-1,3.636
-18,-6,3.637
-14,-6,3.638
-3,-5,3.639
8,-4,3.64
8,0,3.641
-2,4,3.642
-5,5,3.643
0,3,3.644
8,0,3.645
3,1,3.646
-3,1,3.647
-1,0,3.648
4,-2,3.649
2,-1,3.65
-2,0,3.651
-3,1,3.652
-1,1,3.653
-1,-3,3.654
-4,-7,3.655
-7,-8,3.656
-5,-7,3.657
-2,-4,3.658
2,0,3.659
5,1,3.66
4,2,3.661
0,4,3.662
-1,2,3.663
3,-1,3.664
5,-1,3.665
4,3,3.666
3,4,3.667
5,1,3.668
7,-1,3.669
4,-1,3.67
-1,0,3.671
-1,-2,3.672
4,-3,3.673
6,-2,3.674
3,0,3.675
-4,-3,3.676
-8,-7,3.677
-4,-6,3.678
3,-2,3.679
9,1,3.68
8,3,3.681
2,3,3.682
0,1,3.683
4,-1,3.684
8,-5,3.685
5,-5,3.686
0,-2,3.687
-3,0,3.688
-4,2,3.689
-5,2,3.69
-3,1,3.691
5,0,3.692
14,0,3.693
12,0,3.694
8,0,3.695
7,-3,3.696
8,-4,3.697
9,-1,3.698
13,0,3.699
22,-1,3.7
25,-3,3.701
14,-1,3.702
-1,1,3.703
-8,0,3.704
-7,0,3.705
-4,1,3.706
-4,2,3.707
-5,0,3.708
-6,-1,3.709
-8,0,3.71
-9,0,3.711
-7,0,3.712
-2,2,3.713
2,1,3.714
6,-1,3.715
11,-5,3.716
12,-7,3.717
6,-2,3.718
-5,0,3.719
-12,-2,3.72
-12,-1,3.721
-5,4,3.722
4,5,3.723
11,1,3.724
12,-3,3.725
7,-1,3.726
-3,5,3.727
-22,8,3.728
-50,4,3.729
-74,0,3.73
-82,-2,3.731
-77,-2,3.732
-74,0,3.733
-69,-1,3.734
-39,-1,3.735
20,-3,3.736
81,-7,3.737
126,-9,3.738
169,-8,3.739
224,-3,3.74
257,1,3.741
233,2,3.742
155,-2,3.743
52,-4,3.744
-62,-2,3.745
-158,3,3.746
-192,3,3.747
-166,0,3.748
-132,0,3.749
-119,3,3.75
-94,2,3.751
-41,-4,3.752
6,-7,3.753
37,-7,3.754
82,-7,3.755
142,-10,3.756
160,-16,3.757
96,-13,3.758
-3,-8,3.759
-77,-3,3.76
-121,0,3.761
-153,10,3.762
-164,23,3.763
-154,31,3.764
-162,28,3.765
-185,19,3.766
-160,7,3.767
-62,-3,3.768
34,-9,3.769
46,-9,3.77
-11,-8,3.771
-45,-7,3.772
-3,-6,3.773
83,-8,3.774
142,-7,3.775
128,-5,3.776
53,-2,3.777
-75,5,3.778
-257,14,3.779
-412,20,3.78
-387,21,3.781
-163,16,3.782
53,8,3.783
85,-1,3.784
46,-7,3.785
138,-9,3.786
312,-8,3.787
345,-7,3.788
201,-7,3.789
32,-10,3.79
-121,-11,3.791
-313,-9,3.792
-435,-3,3.793
-286,-4,3.794
99,-8,3.795
391,-10,3.796
393,-10,3.797
294,-4,3.798
349,3,3.799
526,6,3.8
667,8,3.801
794,11,3.802
1013,15,3.803
1202,19,3.804
1114,20,3.805
752,17,3.806
404,7,3.807
225,-9,3.808
47,-24,3.809
-280,-23,3.81
-636,-3,3.811
-876,22,3.812
-1061,37,3.813
-1343,38,3.814
-1642,34,3.815
-1808,23,3.816
-1859,2,3.817
-1813,-14,3.818
-1439,-17,3.819
-562,-11,3.82
484,-1,3.821
1148,21,3.822
1383,51,3.823
1649,73,3.824
2084,68,3.825
2231,51,3.826
1795,53,3.827
1146,69,3.828
734,74,3.829
429,66,3.83
-63,60,3.831
-558,52,3.832
-686,24,3.833
-539,-27,3.834
-533,-84,3.835
-771,-150,3.836
-942,-233,3.837
-890,-291,3.838
-778,-269,3.839
-720,-189,3.84
-628,-131,3.841
-482,-121,3.842
-412,-77,3.843
-465,104,3.844
-573,443,3.845
-717,829,3.846
-860,1051,3.847
-765,960,3.848
-197,660,3.849
682,422,3.85
1381,302,3.851
1572,56,3.852
1348,-404,3.853
901,-906,3.854
433,-1162,3.855
91,-1203,3.856
-43,-1169,3.857
-77,-987,3.858
-197,-599,3.859
-426,-251,3.86
-584,-179,3.861
-563,-218,3.862
-449,-89,3.863
-323,149,3.864
-149,264,3.865
89,260,3.866
282,279,3.867
323,263,3.868
206,109,3.869
-26,-26,3.87
-295,84,3.871
-435,371,3.872
-347,570,3.873
-105,593,3.874
114,486,3.875
316,234,3.876
633,-179,3.877
1000,-534,3.878
1192,-557,3.879
1153,-283,3.88
1023,15,3.881
805,220,3.882
368,426,3.883
-248,612,3.884
-805,601,3.885
-1161,364,3.886
-1292,65,3.887
-1143,-187,3.888
-753,-414,3.889
-387,-555,3.89
-183,-488,3.891
96,-299,3.892
553,-210,3.893
869,-216,3.894
656,-51,3.895
211,401,3.896
147,852,3.897
442,956,3.898
565,683,3.899
340,242,3.9
73,-204,3.901
-76,-591,3.902
-227,-862,3.903
-367,-1002,3.904
-356,-1054,3.905
-261,-1013,3.906
-258,-806,3.907
-315,-451,3.908
-297,-116,3.909
-225,48,3.91
-151,88,3.911
12,143,3.912
250,242,3.913
355,339,3.914
253,418,3.915
142,528,3.916
8,677,3.917
-185,811,3.918
-553,868,3.919
-825,840,3.92
-807,732,3.921
-709,538,3.922
-375,273,3.923
16,-2,3.924
576,-208,3.925
975,-289,3.926
889,-242,3.927
762,-128,3.928
510,-37,3.929
267,-27,3.93
55,-93,3.931
-134,-189,3.932
-257,-235,3.933
-420,-165,3.934
-774,36,3.935
-1037,288,3.936
-933,492,3.937
-612,627,3.938
-403,707,3.939
-262,720,3.94
132,613,3.941
737,332,3.942
1081,-154,3.943
958,-770,3.944
728,-1276,3.945
719,-1400,3.946
724,-1090,3.947
379,-561,3.948
-215,-65,3.949
-599,283,3.95
-527,473,3.951
-176,486,3.952
124,343,3.953
214,68,3.954
49,-246,3.955
-292,-502,3.956
-605,-636,3.957
-659,-642,3.958
-395,-570,3.959
10,-465,3.96
313,-364,3.961
410,-292,3.962
313,-219,3.963
34,-48,3.964
-360,243,3.965
-630,510,3.966
-567,596,3.967
-279,533,3.968
-18,438,3.969
234,312,3.97
666,108,3.971
1142,-88,3.972
1250,-143,3.973
845,-89,3.974
302,-81,3.975
30,-155,3.976
39,-196,3.977
121,-149,3.978
189,-95,3.979
218,-72,3.98
139,-11,3.981
-32,98,3.982
-181,186,3.983
-310,247,3.984
-534,349,3.985
-799,490,3.986
-903,562,3.987
-795,501,3.988
-613,325,3.989
-407,67,3.99
-122,-215,3.991
151,-391,3.992
247,-387,3.993
204,-267,3.994
225,-118,3.995
333,70,3.996
346,308,3.997
228,490,3.998
146,537,3.999
154,550,4.0
129,622,4.001
53,609,4.002
55,320,4.003
111,-161,4.004
51,-566,4.005
-133,-799,4.006
-251,-962,4.007
-235,-1067,4.008
-227,-982,4.009
-292,-709,4.01
-325,-457,4.011
-277,-365,4.012
-227,-335,4.013
-206,-233,4.014
-151,-78,4.015
-47,58,4.016
54,205,4.017
146,409,4.018
248,579,4.019
259,624,4.02
63,602,4.021
-240,614,4.022
-388,641,4.023
-263,582,4.024
-10,442,4.025
202,324,4.026
369,281,4.027
531,253,4.028
617,150,4.029
502,-37,4.03
201,-227,4.031
-96,-354,4.032
-249,-437,4.033
-365,-552,4.034
-607,-678,4.035
-896,-722,4.036
-891,-664,4.037
-430,-568,4.038
205,-451,4.039
615,-234,4.04
732,80,4.041
737,326,4.042
713,378,4.043
586,328,4.044
319,321,4.045
-25,316,4.046
-321,171,4.047
-364,-79,4.048
-12,-237,4.049
553,-199,4.05
895,-61,4.051
784,41,4.052
428,76,4.053
61,41,4.054
-178,-65,4.055
-252,-189,4.056
-172,-227,4.057
-67,-138,4.058
-94,-6,4.059
-208,85,4.06
-210,137,4.061
-42,183,4.062
172,211,4.063
331,197,4.064
392,161,4.065
278,145,4.066
-20,160,4.067
-330,184,4.068
-470,191,4.069
-474,170,4.07
-462,132,4.071
-441,100,4.072
-370,87,4.073
-286,79,4.074
-252,62,4.075
-238,28,4.076
-195,-21,4.077
-165,-63,4.078
-178,-85,4.079
-182,-79,4.08
-152,-56,4.081
-144,-36,4.082
-180,-29,4.083
-198,-31,4.084
-161,-31,4.085
-114,-17,4.086
-71,5,4.087
18,29,4.088
150,53,4.089
238,73,4.09
227,77,4.091
170,54,4.092
139,19,4.093
134,-7,4.094
117,8,4.095
58,60,4.096
-51,100,4.097
-179,106,4.098
-246,104,4.099
-206,133,4.1
-107,145,4.101
-4,50,4.102
144,-137,4.103
379,-294,4.104
568,-344,4.105
508,-341,4.106
213,-344,4.107
-68,-338,4.108
-182,-312,4.109
-208,-301,4.11
-204,-301,4.111
-37,-239,4.112
334,-110,4.113
748,7,4.114
919,22,4.115
819,-60,4.116
633,-175,4.117
451,-269,4.118
217,-292,4.119
-60,-201,4.12
-257,-20,4.121
-306,156,4.122
-290,248,4.123
-324,265,4.124
-412,267,4.125
-460,288,4.126
-409,306,4.127
-304,288,4.128
-215,235,4.129
-127,183,4.13
6,156,4.131
138,139,4.132
148,110,4.133
4,75,4.134
-143,69,4.135
-152,87,4.136
-70,91,4.137
-47,68,4.138
-103,42,4.139
-140,36,4.14
-113,35,4.141
-76,20,4.142
-62,-5,4.143
-39,-26,4.144
-2,-40,4.145
14,-50,4.146
2,-46,4.147
4,-26,4.148
26,-3,4.149
31,9,4.15
5,13,4.151
-10,13,4.152
-1,0,4.153
5,-26,4.154
-11,-56,4.155
-29,-75,4.156
-36,-81,4.157
-41,-69,4.158
-50,-51,4.159
-43,-35,4.16
-23,-26,4.161
-7,-22,4.162
1,-22,4.163
15,-29,4.164
33,-32,4.165
48,-26,4.166
81,-17,4.167
148,-19,4.168
206,-29,4.169
199,-26,4.17
138,-5,4.171
76,11,4.172
21,14,4.173
-54,14,4.174
-106,25,4.175
-69,37,4.176
18,32,4.177
50,20,4.178
19,13,4.179
31,12,4.18
132,4,4.181
227,-7,4.182
216,-16,4.183
121,-22,4.184
39,-23,4.185
26,-14,4.186
66,-6,4.187
101,-21,4.188
83,-55,4.189
22,-79,4.19
-30,-71,4.191
-51,-43,4.192
-62,-21,4.193
-83,-11,4.194
-90,-4,4.195
-64,1,4.196
-29,-2,4.197
-16,-4,4.198
-14,4,4.199
-22,15,4.2
-49,12,4.201
-85,1,4.202
-94,-1,4.203
-76,12,4.204
-65,30,4.205
-77,40,4.206
-85,38,4.207
-70,25,4.208
-51,9,4.209
-49,1,4.21
-52,2,4.211
-49,8,4.212
-40,15,4.213
-40,16,4.214
-37,18,4.215
-33,21,4.216
-29,20,4.217
-24,18,4.218
-5,15,4.219
27,12,4.22
49,10,4.221
52,10,4.222
49,8,4.223
60,3,4.224
77,2,4.225
75,3,4.226
53,0,4.227
31,-5,4.228
21,-6,4.229
20,0,4.23
13,7,4.231
0,10,4.232
-4,11,4.233
1,12,4.234
7,13,4.235
2,9,4.236
-4,-2,4.237
3,-13,4.238
25,-22,4.239
39,-26,4.24
29,-29,4.241
4,-33,4.242
-3,-39,4.243
9,-42,4.244
17,-38,4.245
0,-26,4.246
-21,-11,4.247
-26,1,4.248
-22,2,4.249
-23,-2,4.25
-26,0,4.251
-17,17,4.252
2,30,4.253
26,23,4.254
51,6,4.255
73,-5,4.256
83,-10,4.257
70,-9,4.258
48,-9,4.259
30,-6,4.26
17,5,4.261
2,14,4.262
-9,10,4.263
-13,-1,4.264
-14,-4,4.265
-16,10,4.266
-14,31,4.267
-5,36,4.268
-2,26,4.269
-11,8,4.27
-19,-7,4.271
-18,-21,4.272
-14,-34,4.273
-17,-41,4.274
-21,-31,4.275
-21,-12,4.276
-15,-3,4.277
-11,-5,4.278
-6,-7,4.279
-1,3,4.28
-2,18,4.281
-6,19,4.282
-7,1,4.283
-1,-9,4.284
4,-2,4.285
2,12,4.286
-1,10,4.287
1,-2,4.288
5,-3,4.289
4,6,4.29
1,10,4.291
2,4,4.292
4,2,4.293
1,7,4.294
-1,10,4.295
-2,3,4.296
-2,-6,4.297
-4,-6,4.298
-1,-2,4.299
8,0,4.3
15,0,4.301
9,1,4.302
3,4,4.303
2,3,4.304
5,1,4.305
4,0,4.306
1,2,4.307
0,1,4.308
1,-3,4.309
3,-4,4.31
2,-3,4.311
0,1,4.312
0,3,4.313
2,1,4.314
6,0,4.315
5,0,4.316
2,-2,4.317
5,-2,4.318
15,-4,4.319
24,-2,4.32
20,2,4.321
8,4,4.322
3,3,4.323
4,0,4.324
1,-2,4.325
-5,-1,4.326
-9,-1,4.327
-9,-4,4.328
-7,-6,4.329
-4,-4,4.33
0,0,4.331
7,0,4.332
11,1,4.333
11,0,4.334
10,0,4.335
7,0,4.336
4,-4,4.337
1,-5,4.338
0,-3,4.339
-2,-3,4.34
-3,-2,4.341
-2,-1,4.342
2,2,4.343
9,1,4.344
13,-4,4.345
11,-4,4.346
11,0,4.347
10,3,4.348
8,0,4.349
1,0,4.35
-3,2,4.351
3,1,4.352
21,-1,4.353
33,-5,4.354
36,-6,4.355
34,-5,4.356
36,-7,4.357
18,-7,4.358
-31,-6,4.359
-85,-4,4.36
-99,-2,4.361
-82,5,4.362
-69,9,4.363
-62,6,4.364
-38,0,4.365
1,-4,4.366
27,-3,4.367
30,0,4.368
36,1,4.369
53,2,4.37
61,0,4.371
57,-5,4.372
53,-5,4.373
43,-4,4.374
16,-1,4.375
-20,-2,4.376
-32,-8,4.377
-19,-8,4.378
5,-5,4.379
26,-1,4.38
39,4,4.381
36,13,4.382
19,18,4.383
3,16,4.384
-3,8,4.385
-23,3,4.386
-71,1,4.387
-123,-1,4.388
-137,-4,4.389
-98,-2,4.39
-14,0,4.391
90,1,4.392
159,-1,4.393
150,-5,4.394
88,-8,4.395
35,-8,4.396
15,-9,4.397
-11,-5,4.398
-48,-3,4.399
-46,-5,4.4
-10,-7,4.401
-11,-7,4.402
-70,-8,4.403
-112,-10,4.404
-80,-10,4.405
-10,-3,4.406
37,8,4.407
56,12,4.408
70,9,4.409
73,3,4.41
62,-2,4.411
45,-7,4.412
33,-5,4.413
11,2,4.414
-8,11,4.415
-7,13,4.416
12,6,4.417
23,1,4.418
25,4,4.419
29,10,4.42
32,17,4.421
20,25,4.422
0,30,4.423
-8,29,4.424
-6,22,4.425
-7,11,4.426
-14,3,4.427
-15,-1,4.428
-14,-4,4.429
-18,-12,4.43
-20,-19,4.431
-14,-22,4.432
-5,-17,4.433
-2,-15,4.434
-5,-17,4.435
-10,-18,4.436
-14,-19,4.437
-17,-17,4.438
-13,-16,4.439
-6,-12,4.44
-3,-5,4.441
-8,1,4.442
-12,-1,4.443
-7,-8,4.444
-4,-9,4.445
-4,-6,4.446
-5,-5,4.447
-2,-7,4.448
0,-5,4.449
0,0,4.45
0,-1,4.451
3,-5,4.452
5,-6,4.453
3,-6,4.454
3,-5,4.455
3,-5,4.456
2,-5,4.457
1,-2,4.458
7,0,4.459
13,1,4.46
14,4,4.461
10,8,4.462
7,6,4.463
7,4,4.464
8,6,4.465
9,10,4.466
11,9,4.467
15,2,4.468
17,0,4.469
15,2,4.47
15,4,4.471
14,2,4.472
15,0,4.473
12,-1,4.474
5,-1,4.475
-6,0,4.476
-14,-1,4.477
-13,-3,4.478
-4,-6,4.479
5,-5,4.48
5,0,4.481
-1,2,4.482
-4,1,4.483
-3,1,4.484
-2,2,4.485
-4,2,4.486
-4,-3,4.487
-1,-5,4.488
1,-2,4.489
0,2,4.49
2,2,4.491
10,1,4.492
18,1,4.493
21,1,4.494
23,1,4.495
21,-1,4.496
16,-4,4.497
12,-3,4.498
12,1,4.499
13,4,4.5
8,4,4.501
-2,5,4.502
-7,6,4.503
-3,2,4.504
0,-1,4.505
1,-1,4.506
0,2,4.507
-2,3,4.508
-4,3,4.509
-6,2,4.51
-6,2,4.511
-4,0,4.512
-3,-3,4.513
-5,-7,4.514
-5,-5,4.515
-6,-1,4.516
-9,-3,4.517
-9,-7,4.518
-2,-8,4.519
5,-5,4.52
4,-1,4.521
-4,2,4.522
-5,3,4.523
1,2,4.524
7,1,4.525
4,1,4.526
0,3,4.527
1,1,4.528
3,-1,4.529
2,-1,4.53
-1,0,4.531
-1,1,4.532
0,0,4.533
-1,-1,4.534
0,1,4.535
1,4,4.536
9,-1,4.537
14,-6,4.538
14,-5,4.539
13,0,4.54
12,4,4.541
9,5,4.542
7,4,4.543
3,3,4.544
1,1,4.545
0,-1,4.546
0,-2,4.547
0,-2,4.548
0,-4,4.549
0,-4,4.55
-2,-2,4.551
-3,-1,4.552
0,-3,4.553
4,-4,4.554
3,-1,4.555
-5,2,4.556
-13,-3,4.557
-8,-6,4.558
4,-4,4.559
13,0,4.56
9,3,4.561
0,1,4.562
-3,-2,4.563
0,-2,4.564
4,0,4.565
3,2,4.566
3,3,4.567
5,0,4.568
10,-1,4.569
10,0,4.57
7,3,4.571
2,6,4.572
0,6,4.573
0,2,4.574
2,0,4.575
0,-2,4.576
-6,-3,4.577
-7,-4,4.578
-1,-2,4.579
9,0,4.58
11,1,4.581
3,2,4.582
-4,0,4.583
-9,-2,4.584
-10,-2,4.585
-10,-2,4.586
-8,0,4.587
-2,1,4.588
5,3,4.589
11,5,4.59
17,3,4.591
21,2,4.592
25,0,4.593
24,0,4.594
21,-1,4.595
17,-2,4.596
9,-4,4.597
6,-6,4.598
12,-6,4.599
16,-3,4.6
8,0,4.601
-5,1,4.602
-11,0,4.603
-4,0,4.604
2,2,4.605
0,1,4.606
-6,-1,4.607
-9,-4,4.608
-10,-5,4.609
-9,-2,4.61
-7,2,4.611
-3,5,4.612
0,7,4.613
0,3,4.614
-2,-1,4.615
-6,-2,4.616
-9,-4,4.617
-9,-5,4.618
-3,-6,4.619
4,-3,4.62
6,3,4.621
-1,7,4.622
-10,3,4.623
-21,-2,4.624
-37,-4,4.625
-60,-1,4.626
-85,1,4.627
-94,0,4.628
-78,-5,4.629
-41,-5,4.63
3,-1,4.631
39,1,4.632
72,0,4.633
112,-2,4.634
158,-1,4.635
183,-2,4.636
166,-7,4.637
118,-6,4.638
70,-1,4.639
42,2,4.64
24,2,4.641
7,1,4.642
-7,2,4.643
-10,0,4.644
-15,-2,4.645
-27,-3,4.646
-42,0,4.647
-44,1,4.648
-39,-1,4.649
-37,-5,4.65
-37,-4,4.651
-34,-1,4.652
-31,5,4.653
-32,7,4.654
-35,8,4.655
-33,8,4.656
-30,5,4.657
-26,3,4.658
-20,2,4.659
-11,2,4.66
-5,3,4.661
-7,3,4.662
-10,0,4.663
-6,-3,4.664
-1,-3,4.665
1,-1,4.666
0,-1,4.667
2,-6,4.668
5,-8,4.669
5,-7,4.67
4,-5,4.671
4,-4,4.672
6,-3,4.673
7,-3,4.674
12,-1,4.675
9,-4,4.676
0,-10,4.677
-12,-10,4.678
-17,-5,4.679
-13,-3,4.68
-10,-3,4.681
-11,-2,4.682
-14,-1,4.683
-16,0,4.684
-13,-2,4.685
-2,-3,4.686
18,-1,4.687
33,-1,4.688
38,0,4.689
37,1,4.69
43,2,4.691
60,-2,4.692
79,-5,4.693
85,-7,4.694
68,-6,4.695
34,-7,4.696
0,-10,4.697
-14,-8,4.698
-7,-5,4.699
-2,-3,4.7
-9,-1,4.701
-19,3,4.702
-21,7,4.703
-16,5,4.704
-13,2,4.705
-15,2,4.706
-17,3,4.707
-16,3,4.708
-14,4,4.709
-13,7,4.71
-15,9,4.711
-15,9,4.712
-11,8,4.713
-10,8,4.714
-10,7,4.715
-13,3,4.716
-14,-3,4.717
-12,-3,4.718
-7,-2,4.719
0,1,4.72
5,4,4.721
6,4,4.722
5,1,4.723
7,-2,4.724
8,-4,4.725
5,-1,4.726
3,0,4.727
3,-1,4.728
6,-2,4.729
5,-1,4.73
3,-1,4.731
0,-1,4.732
0,-1,4.733
0,-1,4.734
-5,-1,4.735
-16,-3,4.736
-32,-7,4.737
-46,-9,4.738
-49,-9,4.739
-37,-6,4.74
-19,-1,4.741
1,3,4.742
27,1,4.743
61,-1,4.744
90,-2,4.745
104,0,4.746
99,0,4.747
84,-4,4.748
61,-6,4.749
33,-6,4.75
9,-4,4.751
-3,-5,4.752
-7,-5,4.753
-15,-5,4.754
-21,-4,4.755
-23,-4,4.756
-24,-6,4.757
-26,-8,4.758
-19,-9,4.759
-3,-7,4.76
11,-2,4.761
6,2,4.762
-7,4,4.763
-13,3,4.764
-12,8,4.765
-15,11,4.766
-17,8,4.767
-14,4,4.768
-11,3,4.769
-15,2,4.77
-21,1,4.771
-22,1,4.772
-20,6,4.773
-17,5,4.774
-10,0,4.775
-4,-4,4.776
-2,-7,4.777
-4,-5,4.778
-4,-4,4.779
4,-3,4.78
14,0,4.781
22,4,4.782
35,4,4.783
46,1,4.784
44,0,4.785
30,-1,4.786
16,-1,4.787
5,-1,4.788
-3,-2,4.789
-15,-1,4.79
-23,0,4.791
-18,1,4.792
-5,2,4.793
3,0,4.794
2,-3,4.795
-2,-2,4.796
-2,-4,4.797
1,-4,4.798
6,-2,4.799
4,1,4.8
-4,3,4.801
-10,3,4.802
-6,3,4.803
4,2,4.804
13,0,4.805
11,-1,4.806
7,-2,4.807
5,-4,4.808
1,-6,4.809
-5,-4,4.81
-11,-1,4.811
-11,0,4.812
-9,-1,4.813
-7,-3,4.814
-6,-3,4.815
-1,-3,4.816
6,-6,4.817
10,-5,4.818
16,0,4.819
24,1,4.82
27,0,4.821
19,0,4.822
7,1,4.823
2,1,4.824
1,-2,4.825
-2,-2,4.826
-8,1,4.827
-10,3,4.828
-10,2,4.829
-21,0,4.83
-38,2,4.831
-41,3,4.832
-24,1,4.833
-3,-4,4.834
3,-2,4.835
-3,0,4.836
-5,-3,4.837
9,-4,4.838
35,-2,4.839
61,3,4.84
74,5,4.841
65,6,4.842
41,4,4.843
21,2,4.844
16,0,4.845
20,0,4.846
18,2,4.847
6,0,4.848
-7,-3,4.849
-11,-5,4.85
-4,-4,4.851
3,0,4.852
3,3,4.853
-9,-1,4.854
-18,-6,4.855
-18,-10,4.856
-11,-10,4.857
-9,-6,4.858
-11,-3,4.859
-12,0,4.86
-15,5,4.861
-16,8,4.862
-14,5,4.863
-8,-2,4.864
-9,-6,4.865
-22,-3,4.866
-44,-2,4.867
-58,-3,4.868
-47,-6,4.869
-10,-4,4.87
33,-1,4.871
59,-2,4.872
67,-2,4.873
63,-2,4.874
57,1,4.875
43,2,4.876
26,-2,4.877
11,-5,4.878
0,-6,4.879
-8,-4,4.88
-16,0,4.881
-24,6,4.882
-30,6,4.883
-25,2,4.884
-10,0,4.885
5,1,4.886
9,0,4.887
0,-2,4.888
-2,-1,4.889
2,4,4.89
10,7,4.891
16,1,4.892
20,-5,4.893
19,-7,4.894
17,-3,4.895
13,-2,4.896
9,-7,4.897
-2,-8,4.898
-10,-2,4.899
-7,2,4.9
-1,4,4.901
-3,3,4.902
-9,3,4.903
-5,0,4.904
7,-5,4.905
14,-4,4.906
13,0,4.907
10,4,4.908
3,3,4.909
-8,3,4.91
-20,6,4.911
-21,6,4.912
-14,3,4.913
-12,-4,4.914
-20,-6,4.915
-30,-5,4.916
-38,-7,4.917
-37,-9,4.918
-21,-7,4.919
2,-3,4.92
18,0,4.921
18,1,4.922
17,1,4.923
22,1,4.924
24,1,4.925
17,4,4.926
6,7,4.927
6,4,4.928
15,3,4.929
32,3,4.93
52,3,4.931
59,0,4.932
46,-2,4.933
25,0,4.934
19,3,4.935
19,4,4.936
-3,-4,4.937
-46,-5,4.938
-72,-2,4.939
-60,-1,4.94
-30,-3,4.941
-5,-4,4.942
19,-2,4.943
48,-3,4.944
67,-4,4.945
64,-4,4.946
51,-1,4.947
42,0,4.948
32,1,4.949
14,2,4.95
0,3,4.951
-2,4,4.952
-5,5,4.953
-18,3,4.954
-21,1,4.955
-9,0,4.956
-5,-2,4.957
-21,-3,4.958
-39,-2,4.959
-41,-2,4.96
-37,-1,4.961
-41,0,4.962
-44,0,4.963
-31,0,4.964
-13,0,4.965
1,2,4.966
17,4,4.967
32,3,4.968
35,2,4.969
24,0,4.97
16,-2,4.971
12,-1,4.972
5,2,4.973
-7,0,4.974
-11,-2,4.975
-2,-5,4.976
8,-5,4.977
17,-2,4.978
31,-1,4.979
44,-1,4.98
37,-1,4.981
13,0,4.982
-4,0,4.983
-5,-2,4.984
-3,-4,4.985
-3,-4,4.986
0,-4,4.987
1,-7,4.988
-15,-7,4.989
-46,-6,4.99
-63,-4,4.991
-51,-3,4.992
-28,-1,4.993
-16,-1,4.994
-10,0,4.995
-6,1,4.996
-3,-1,4.997
0,-3,4.998
9,-4,4.999
17,-1,5.0
8,4,5.001
-15,7,5.002
-27,5,5.003
-13,1,5.004
9,0,5.005
14,2,5.006
7,0,5.007
7,-2,5.008
14,-2,5.009
22,3,5.01
34,7,5.011
47,4,5.012
47,0,5.013
22,-5,5.014
-7,-3,5.015
-16,-1,5.016
7,-2,5.017
41,-1,5.018
57,2,5.019
51,6,5.02
28,6,5.021
2,2,5.022
-17,0,5.023
-25,-2,5.024
-22,-3,5.025
-12,-2,5.026
1,0,5.027
17,0,5.028
25,-1,5.029
21,-1,5.03
11,-2,5.031
6,-2,5.032
11,-2,5.033
11,-3,5.034
-1,-4,5.035
-17,-5,5.036
-23,-10,5.037
-15,-11,5.038
-2,-8,5.039
6,-4,5.04
7,1,5.041
1,5,5.042
-2,6,5.043
-4,7,5.044
-6,12,5.045
-7,17,5.046
-2,12,5.047
10,2,5.048
20,-3,5.049
19,2,5.05
9,4,5.051
1,0,5.052
0,-2,5.053
0,0,5.054
-2,4,5.055
-8,-1,5.056
-9,-9,5.057
-4,-9,5.058
7,-4,5.059
15,-1,5.06
17,-2,5.061
19,1,5.062
24,2,5.063
26,0,5.064
17,-5,5.065
1,-7,5.066
-10,-7,5.067
-12,-8,5.068
-11,-7,5.069
-10,-3,5.07
-6,-4,5.071
-1,-6,5.072
-3,-7,5.073
-12,-3,5.074
-13,1,5.075
-4,2,5.076
0,-2,5.077
-14,-4,5.078
-27,-3,5.079
-22,0,5.08
-14,4,5.081
-16,6,5.082
-20,6,5.083
-3,2,5.084
21,0,5.085
29,1,5.086
28,2,5.087
29,2,5.088
22,0,5.089
-3,-1,5.09
-23,-3,5.091
-17,-4,5.092
-2,0,5.093
-4,1,5.094
-12,-1,5.095
-17,-6,5.096
-14,-9,5.097
-7,-3,5.098
12,3,5.099
30,7,5.1
44,8,5.101
49,6,5.102
24,3,5.103
2,1,5.104
-7,1,5.105
-14,2,5.106
-9,0,5.107
-3,-2,5.108
5,-2,5.109
8,1,5.11
-5,4,5.111
-23,1,5.112
-53,-1,5.113
-82,-4,5.114
-92,-4,5.115
-67,-3,5.116
-29,-6,5.117
3,-8,5.118
41,-7,5.119
91,-3,5.12
127,0,5.121
127,0,5.122
101,-1,5.123
71,-2,5.124
37,-2,5.125
5,0,5.126
-9,1,5.127
-2,3,5.128
5,3,5.129
-4,2,5.13
-14,1,5.131
-11,1,5.132
-3,4,5.133
-6,5,5.134
-14,1,5.135
-17,-5,5.136
-20,-12,5.137
-32,-8,5.138
-45,2,5.139
-49,9,5.14
-42,10,5.141
-25,8,5.142
0,2,5.143
31,0,5.144
56,0,5.145
60,4,5.146
42,6,5.147
16,2,5.148
-1,-2,5.149
-4,-5,5.15
-5,-5,5.151
-8,-4,5.152
-5,-3,5.153
8,-2,5.154
18,-3,5.155
14,-4,5.156
4,-6,5.157
8,-2,5.158
17,-2,5.159
14,-2,5.16
-1,-3,5.161
-8,1,5.162
-1,6,5.163
8,11,5.164
1,22,5.165
-15,29,5.166
-29,22,5.167
-40,-1,5.168
-58,-24,5.169
-85,-38,5.17
-94,-40,5.171
-65,-39,5.172
-18,-28,5.173
18,-10,5.174
30,6,5.175
31,7,5.176
35,-5,5.177
37,-5,5.178
37,3,5.179
40,8,5.18
39,5,5.181
20,5,5.182
-3,9,5.183
-7,9,5.184
7,5,5.185
22,5,5.186
27,8,5.187
31,4,5.188
31,-1,5.189
24,0,5.19
29,6,5.191
66,3,5.192
106,-2,5.193
100,-3,5.194
37,3,5.195
-33,6,5.196
-67,-1,5.197
-67,-5,5.198
-52,0,5.199
-32,5,5.2
-13,5,5.201
-18,1,5.202
-49,-1,5.203
-77,-4,5.204
-73,-5,5.205
-44,-1,5.206
-24,4,5.207
-30,4,5.208
-54,-1,5.209
-72,-6,5.21
-60,-7,5.211
-11,-8,5.212
46,-6,5.213
88,-1,5.214
99,0,5.215
85,-3,5.216
65,-9,5.217
51,-9,5.218
44,0,5.219
32,5,5.22
0,4,5.221
-29,4,5.222
-28,5,5.223
-3,2,5.224
14,-4,5.225
4,-8,5.226
0,-6,5.227
14,0,5.228
19,2,5.229
8,5,5.23
9,10,5.231
36,11,5.232
59,10,5.233
51,6,5.234
27,4,5.235
9,3,5.236
-1,-3,5.237
-15,-7,5.238
-28,-9,5.239
-29,-7,5.24
-26,-2,5.241
-31,1,5.242
-38,0,5.243
-33,-4,5.244
-23,-7,5.245
-21,-8,5.246
-22,-6,5.247
-15,-3,5.248
6,-3,5.249
27,-3,5.25
36,-2,5.251
34,1,5.252
26,8,5.253
17,10,5.254
9,6,5.255
2,0,5.256
-4,-8,5.257
-6,-7,5.258
0,-3,5.259
11,0,5.26
12,0,5.261
0,0,5.262
-6,-1,5.263
6,-3,5.264
24,0,5.265
22,14,5.266
-9,29,5.267
-41,36,5.268
-50,29,5.269
-29,10,5.27
6,-12,5.271
35,-35,5.272
41,-46,5.273
24,-46,5.274
2,-34,5.275
-14,-17,5.276
-15,-7,5.277
-20,-5,5.278
-32,-5,5.279
-35,-3,5.28
-11,2,5.281
11,6,5.282
24,3,5.283
40,3,5.284
60,8,5.285
70,14,5.286
47,12,5.287
22,4,5.288
-10,0,5.289
-33,2,5.29
-31,1,5.291
-29,-1,5.292
-31,1,5.293
-35,8,5.294
-41,12,5.295
-29,13,5.296
1,5,5.297
26,-1,5.298
32,4,5.299
27,8,5.3
22,6,5.301
18,3,5.302
15,0,5.303
18,-3,5.304
19,-3,5.305
6,-3,5.306
-12,-3,5.307
-11,-2,5.308
4,-3,5.309
10,-5,5.31
-3,-5,5.311
-15,-5,5.312
-11,-3,5.313
1,-1,5.314
18,-1,5.315
35,-4,5.316
46,-9,5.317
35,-5,5.318
3,0,5.319
-20,3,5.32
-20,4,5.321
-9,3,5.322
-9,2,5.323
-14,-2,5.324
-4,-5,5.325
18,-6,5.326
30,-5,5.327
25,-3,5.328
19,-2,5.329
19,-2,5.33
17,-3,5.331
5,-4,5.332
-10,-1,5.333
-16,0,5.334
-1,0,5.335
22,-1,5.336
28,-4,5.337
6,-2,5.338
-25,0,5.339
-47,1,5.34
-57,1,5.341
-63,1,5.342
-68,0,5.343
-70,-5,5.344
-67,-8,5.345
-56,-4,5.346
-34,5,5.347
-8,14,5.348
12,16,5.349
23,12,5.35
31,6,5.351
42,-3,5.352
53,-9,5.353
64,-11,5.354
75,-7,5.355
80,-1,5.356
75,-4,5.357
57,-7,5.358
37,-7,5.359
21,-1,5.36
6,4,5.361
-10,4,5.362
-26,3,5.363
-43,4,5.364
-53,6,5.365
-45,3,5.366
-23,0,5.367
-5,4,5.368
3,17,5.369
9,34,5.37
17,35,5.371
19,14,5.372
13,-13,5.373
8,-36,5.374
23,-44,5.375
46,-42,5.376
58,-35,5.377
56,-18,5.378
53,1,5.379
43,10,5.38
6,8,5.381
-49,3,5.382
-84,3,5.383
-75,2,5.384
-46,2,5.385
-33,7,5.386
-41,11,5.387
-45,8,5.388
-31,0,5.389
-3,-2,5.39
19,5,5.391
27,10,5.392
29,11,5.393
29,6,5.394
30,0,5.395
25,-5,5.396
15,-9,5.397
9,-9,5.398
15,-6,5.399
26,-3,5.4
34,-3,5.401
33,-3,5.402
30,-1,5.403
29,0,5.404
20,2,5.405
-6,4,5.406
-34,6,5.407
-42,7,5.408
-28,7,5.409
-17,4,5.41
-21,0,5.411
-24,-3,5.412
-18,-2,5.413
-7,-4,5.414
4,-7,5.415
17,-8,5.416
22,-11,5.417
8,-8,5.418
-11,-5,5.419
-10,-5,5.42
9,-6,5.421
17,-2,5.422
9,3,5.423
4,3,5.424
16,-1,5.425
30,-3,5.426
32,0,5.427
23,4,5.428
6,3,5.429
-14,-1,5.43
-27,-3,5.431
-29,-1,5.432
-25,3,5.433
-29,1,5.434
-29,-1,5.435
-12,-2,5.436
14,-3,5.437
27,-4,5.438
26,-2,5.439
27,-1,5.44
32,-3,5.441
28,-6,5.442
24,-8,5.443
36,2,5.444
53,27,5.445
48,62,5.446
27,90,5.447
19,87,5.448
13,42,5.449
-26,-28,5.45
-96,-89,5.451
-140,-122,5.452
-124,-127,5.453
-73,-110,5.454
-32,-65,5.455
-9,-7,5.456
7,25,5.457
9,21,5.458
-6,9,5.459
-15,17,5.46
-6,33,5.461
-10,33,5.462
-31,21,5.463
-31,16,5.464
18,15,5.465
82,9,5.466
111,2,5.467
98,11,5.468
65,26,5.469
19,27,5.47
-23,14,5.471
-34,1,5.472
-7,1,5.473
30,5,5.474
54,6,5.475
63,3,5.476
67,-4,5.477
64,-4,5.478
47,-4,5.479
32,1,5.48
25,12,5.481
19,29,5.482
11,35,5.483
2,21,5.484
-6,-4,5.485
-20,-22,5.486
-23,-30,5.487
1,-37,5.488
38,-39,5.489
55,-23,5.49
35,0,5.491
-3,10,5.492
-39,3,5.493
-72,-4,5.494
-99,1,5.495
-119,9,5.496
-127,3,5.497
-112,-3,5.498
-66,-4,5.499
-6,-2,5.5
30,-4,5.501
30,-7,5.502
22,-7,5.503
36,-6,5.504
66,-4,5.505
81,5,5.506
67,20,5.507
31,25,5.508
-4,14,5.509
-17,0,5.51
-8,-8,5.511
4,-10,5.512
4,-9,5.513
-8,-9,5.514
-18,-6,5.515
-19,1,5.516
-19,6,5.517
-23,9,5.518
-32,5,5.519
-42,-3,5.52
-44,-5,5.521
-31,0,5.522
-17,0,5.523
-13,-2,5.524
-12,-3,5.525
11,2,5.526
60,6,5.527
102,1,5.528
105,-4,5.529
79,-4,5.53
55,-3,5.531
45,-6,5.532
31,-7,5.533
-1,-3,5.534
-41,3,5.535
-61,0,5.536
-53,-7,5.537
-35,-6,5.538
-21,5,5.539
-13,10,5.54
-3,4,5.541
5,-6,5.542
12,-9,5.543
16,-7,5.544
22,-2,5.545
25,2,5.546
22,3,5.547
14,2,5.548
13,0,5.549
22,-1,5.55
26,-5,5.551
18,-8,5.552
8,-8,5.553
15,-7,5.554
45,-5,5.555
69,-2,5.556
56,4,5.557
9,14,5.558
-38,13,5.559
-65,-1,5.56
-78,-13,5.561
-91,-12,5.562
-96,-3,5.563
-75,2,5.564
-33,1,5.565
4,5,5.566
20,9,5.567
22,4,5.568
24,-9,5.569
25,-15,5.57
26,-9,5.571
26,0,5.572
34,8,5.573
46,8,5.574
58,5,5.575
59,0,5.576
40,-8,5.577
10,-7,5.578
-13,-2,5.579
-20,1,5.58
-23,3,5.581
-40,5,5.582
-59,7,5.583
-61,7,5.584
-40,2,5.585
-11,-1,5.586
7,-3,5.587
15,-4,5.588
18,-3,5.589
22,-1,5.59
20,0,5.591
10,-2,5.592
1,-2,5.593
5,-4,5.594
16,-6,5.595
17,-9,5.596
8,-13,5.597
-2,-13,5.598
3,-7,5.599
23,0,5.6
37,8,5.601
21,16,5.602
-30,19,5.603
-70,15,5.604
-50,9,5.605
17,6,5.606
62,7,5.607
44,6,5.608
7,2,5.609
10,-1,5.61
43,-3,5.611
49,-4,5.612
15,-5,5.613
-25,-9,5.614
-31,-11,5.615
-18,-17,5.616
-22,-23,5.617
-52,-23,5.618
-82,-19,5.619
-92,-22,5.62
-87,-20,5.621
-69,-1,5.622
-31,32,5.623
25,56,5.624
85,52,5.625
132,34,5.626
163,19,5.627
160,13,5.628
100,5,5.629
4,-6,5.63
-68,-10,5.631
-75,-7,5.632
-42,-2,5.633
-14,-6,5.634
-2,-14,5.635
3,-20,5.636
10,-26,5.637
7,-26,5.638
0,-20,5.639
-4,-4,5.64
-4,13,5.641
-2,19,5.642
4,4,5.643
13,-15,5.644
13,-19,5.645
6,-7,5.646
2,2,5.647
7,0,5.648
6,-2,5.649
-2,6,5.65
-2,12,5.651
8,10,5.652
14,9,5.653
4,7,5.654
-8,5,5.655
-12,1,5.656
-11,-8,5.657
-7,-14,5.658
3,-8,5.659
20,-4,5.66
33,-4,5.661
30,-5,5.662
10,-3,5.663
-16,-2,5.664
-42,-2,5.665
-55,-3,5.666
-45,-4,5.667
-15,-4,5.668
26,-1,5.669
64,2,5.67
81,8,5.671
67,12,5.672
30,4,5.673
-3,-3,5.674
-17,-1,5.675
-34,0,5.676
-58,-7,5.677
-71,-10,5.678
-51,-5,5.679
-32,0,5.68
-14,1,5.681
-11,0,5.682
-53,3,5.683
-75,6,5.684
-30,4,5.685
11,0,5.686
40,-3,5.687
57,-8,5.688
38,-14,5.689
23,-15,5.69
20,-3,5.691
15,15,5.692
8,20,5.693
2,6,5.694
8,-6,5.695
16,-5,5.696
23,-3,5.697
30,-12,5.698
36,-27,5.699
37,-22,5.7
33,9,5.701
33,46,5.702
46,60,5.703
57,47,5.704
44,25,5.705
1,8,5.706
-43,3,5.707
-61,2,5.708
-51,-1,5.709
-24,-7,5.71
6,-12,5.711
29,-11,5.712
33,-7,5.713
10,-8,5.714
-10,-10,5.715
-14,-11,5.716
-14,-13,5.717
-28,-13,5.718
-35,-13,5.719
-15,-8,5.72
18,-1,5.721
28,3,5.722
17,0,5.723
7,-8,5.724
7,-10,5.725
5,-8,5.726
9,-8,5.727
35,-13,5.728
86,-18,5.729
124,-14,5.73
119,-5,5.731
68,3,5.732
2,7,5.733
-56,7,5.734
-88,10,5.735
-109,14,5.736
-127,11,5.737
-127,8,5.738
-88,2,5.739
-37,0,5.74
-16,2,5.741
-28,5,5.742
-29,3,5.743
-1,-2,5.744
26,-3,5.745
20,0,5.746
-7,0,5.747
-18,-3,5.748
-3,-6,5.749
20,-8,5.75
42,-14,5.751
62,-25,5.752
78,-30,5.753
81,-27,5.754
74,-14,5.755
53,0,5.756
14,15,5.757
-28,38,5.758
-40,57,5.759
-17,61,5.76
2,45,5.761
-4,20,5.762
-8,3,5.763
12,-4,5.764
27,-3,5.765
9,-2,5.766
-16,-3,5.767
-7,-7,5.768
18,-12,5.769
18,-12,5.77
-2,-10,5.771
-11,-10,5.772
-4,-12,5.773
-2,-16,5.774
-8,-17,5.775
-13,-12,5.776
-8,-8,5.777
-2,-7,5.778
4,-13,5.779
10,-16,5.78
9,-7,5.781
3,5,5.782
4,10,5.783
11,7,5.784
13,5,5.785
8,4,5.786
5,-1,5.787
7,-6,5.788
7,-1,5.789
3,14,5.79
1,18,5.791
0,7,5.792
-2,-2,5.793
-5,-3,5.794
0,0,5.795
13,-4,5.796
38,-15,5.797
73,-17,5.798
101,-9,5.799
92,1,5.8
44,7,5.801
-2,10,5.802
-19,10,5.803
-35,6,5.804
-86,0,5.805
-147,-1,5.806
-158,-1,5.807
-114,-2,5.808
-62,-4,5.809
-27,-4,5.81
13,-1,5.811
68,0,5.812
95,0,5.813
77,-1,5.814
55,-2,5.815
62,0,5.816
63,-1,5.817
0,-3,5.818
-95,-8,5.819
-138,-12,5.82
-106,-9,5.821
-58,-5,5.822
-43,-1,5.823
-35,2,5.824
-1,7,5.825
40,16,5.826
58,23,5.827
59,23,5.828
66,13,5.829
72,-1,5.83
60,-10,5.831
40,-10,5.832
34,-3,5.833
35,-7,5.834
30,-20,5.835
16,-29,5.836
7,-19,5.837
6,8,5.838
4,32,5.839
4,38,5.84
9,31,5.841
11,24,5.842
8,25,5.843
-1,25,5.844
-4,8,5.845
-3,-19,5.846
-1,-42,5.847
1,-43,5.848
2,-33,5.849
0,-26,5.85
-5,-23,5.851
-8,-17,5.852
-9,-9,5.853
-14,-3,5.854
-19,0,5.855
-17,3,5.856
-7,0,5.857
5,-2,5.858
15,-2,5.859
18,2,5.86
12,6,5.861
-1,3,5.862
-7,0,5.863
-2,0,5.864
5,8,5.865
5,13,5.866
0,13,5.867
2,10,5.868
7,8,5.869
4,5,5.87
-2,1,5.871
-3,1,5.872
2,3,5.873
3,0,5.874
-1,-3,5.875
-8,-5,5.876
-11,-9,5.877
-8,-9,5.878
-2,-9,5.879
3,-5,5.88
7,-4,5.881
8,-2,5.882
14,0,5.883
25,1,5.884
30,0,5.885
16,-1,5.886
-6,0,5.887
-11,0,5.888
-3,-2,5.889
-8,-5,5.89
-36,-4,5.891
-50,0,5.892
-22,5,5.893
22,5,5.894
32,7,5.895
5,10,5.896
-19,10,5.897
-30,9,5.898
-45,9,5.899
-58,9,5.9
-40,9,5.901
0,7,5.902
20,5,5.903
13,4,5.904
11,1,5.905
25,-6,5.906
30,-12,5.907
18,-16,5.908
13,-14,5.909
25,-9,5.91
29,-4,5.911
18,-2,5.912
11,0,5.913
18,-1,5.914
22,-3,5.915
9,-4,5.916
-1,-5,5.917
0,-5,5.918
9,-5,5.919
12,-3,5.92
11,7,5.921
7,15,5.922
4,9,5.923
2,-5,5.924
5,-13,5.925
8,-6,5.926
4,0,5.927
-2,-4,5.928
-4,-10,5.929
-1,-6,5.93
0,0,5.931
-2,-1,5.932
-2,-3,5.933
0,-2,5.934
7,3,5.935
9,2,5.936
3,-7,5.937
-3,-11,5.938
-2,-9,5.939
7,-4,5.94
11,1,5.941
7,4,5.942
3,3,5.943
9,0,5.944
13,-1,5.945
10,1,5.946
2,1,5.947
0,-1,5.948
-1,-1,5.949
-5,2,5.95
-11,3,5.951
-8,-2,5.952
0,-5,5.953
9,-8,5.954
10,-8,5.955
4,-8,5.956
-3,-7,5.957
-8,-3,5.958
-9,-2,5.959
-4,-5,5.96
-2,-3,5.961
-7,0,5.962
-9,-1,5.963
-5,-3,5.964
-3,-4,5.965
-4,-2,5.966
-7,-1,5.967
-3,4,5.968
4,16,5.969
5,28,5.97
2,25,5.971
6,12,5.972
12,3,5.973
11,2,5.974
4,1,5.975
-3,-1,5.976
-2,-6,5.977
5,-9,5.978
12,-11,5.979
15,-11,5.98
13,-3,5.981
5,5,5.982
-4,5,5.983
-7,-1,5.984
-4,-3,5.985
0,0,5.986
4,0,5.987
9,-3,5.988
11,-3,5.989
9,0,5.99
7,5,5.991
9,4,5.992
12,4,5.993
8,0,5.994
-2,-1,5.995
-10,-3,5.996
-11,-5,5.997
-8,-6,5.998
-1,-5,5.999
5,-2,6.0
8,3,6.001
9,7,6.002
9,6,6.003
10,1,6.004
9,-1,6.005
5,-2,6.006
1,-2,6.007
0,-2,6.008
-1,0,6.009
-4,2,6.01
-4,2,6.011
0,-3,6.012
7,-5,6.013
9,-5,6.014
6,-3,6.015
0,0,6.016
-4,-3,6.017
-8,-2,6.018
-6,1,6.019
0,4,6.02
4,3,6.021
8,-4,6.022
12,-7,6.023
17,-8,6.024
15,-7,6.025
5,-4,6.026
0,-3,6.027
0,0,6.028
2,1,6.029
1,3,6.03
0,1,6.031
1,0,6.032
0,0,6.033
-7,0,6.034
-18,2,6.035
-27,6,6.036
-31,4,6.037
-26,-2,6.038
-11,-6,6.039
13,-4,6.04
29,1,6.041
33,3,6.042
28,0,6.043
24,-4,6.044
19,-4,6.045
8,-1,6.046
0,1,6.047
0,0,6.048
6,-1,6.049
10,0,6.05
13,2,6.051
17,4,6.052
19,6,6.053
12,6,6.054
0,6,6.055
-9,4,6.056
-12,-3,6.057
-7,-6,6.058
0,-3,6.059
8,-1,6.06
9,0,6.061
5,-2,6.062
0,-4,6.063
-5,-6,6.064
-10,-7,6.065
-14,-6,6.066
-10,-3,6.067
0,-2,6.068
7,-3,6.069
7,-5,6.07
3,-6,6.071
0,-5,6.072
1,-1,6.073
2,0,6.074
1,-1,6.075
-2,0,6.076
-7,-1,6.077
-10,-2,6.078
-3,-2,6.079
7,-1,6.08
10,0,6.081
1,1,6.082
-6,0,6.083
-8,0,6.084
-7,1,6.085
-7,2,6.086
-7,2,6.087
0,0,6.088
12,1,6.089
17,1,6.09
17,0,6.091
18,-4,6.092
18,0,6.093
13,2,6.094
4,5,6.095
-4,3,6.096
-4,-3,6.097
-3,-3,6.098
-1,-4,6.099
1,-5,6.1
0,-6,6.101
-5,-3,6.102
-7,1,6.103
-1,4,6.104
9,5,6.105
14,7,6.106
15,7,6.107
16,4,6.108
16,1,6.109
11,-1,6.11
2,-1,6.111
0,-4,6.112
-1,-4,6.113
-5,-4,6.114
-9,0,6.115
-10,1,6.116
-10,-5,6.117
-9,-7,6.118
0,-4,6.119
16,-1,6.12
22,0,6.121
15,-2,6.122
4,-2,6.123
4,0,6.124
10,-1,6.125
7,-5,6.126
0,-8,6.127
2,-7,6.128
6,-1,6.129
4,4,6.13
-2,4,6.131
-3,1,6.132
-2,1,6.133
-5,1,6.134
-12,0,6.135
-17,-2,6.136
-12,-6,6.137
-2,-3,6.138
8,1,6.139
14,3,6.14
10,4,6.141
0,6,6.142
-2,6,6.143
4,2,6.144
12,-3,6.145
11,-3,6.146
4,2,6.147
-1,0,6.148
-3,-5,6.149
-1,-6,6.15
4,0,6.151
9,5,6.152
13,5,6.153
9,0,6.154
6,-1,6.155
2,0,6.156
-1,-6,6.157
-1,-9,6.158
3,-9,6.159
10,-5,6.16
13,-1,6.161
9,3,6.162
6,2,6.163
7,0,6.164
8,0,6.165
2,3,6.166
-7,6,6.167
-17,6,6.168
-22,4,6.169
-19,4,6.17
-9,4,6.171
6,1,6.172
17,-1,6.173
15,0,6.174
7,0,6.175
0,-3,6.176
0,-13,6.177
3,-16,6.178
8,-11,6.179
13,-4,6.18
14,-1,6.181
10,-3,6.182
9,-3,6.183
16,-1,6.184
25,3,6.185
25,9,6.186
19,13,6.187
14,17,6.188
11,15,6.189
8,9,6.19
1,3,6.191
-3,0,6.192
-3,0,6.193
-7,-1,6.194
-14,-3,6.195
-21,-6,6.196
-26,-10,6.197
-25,-11,6.198
-23,-9,6.199
-21,-6,6.2
-20,-3,6.201
-18,2,6.202
-1,5,6.203
22,2,6.204
38,-3,6.205
32,-6,6.206
16,-10,6.207
7,-12,6.208
11,-11,6.209
17,-6,6.21
12,-1,6.211
3,-1,6.212
0,-2,6.213
3,-2,6.214
6,2,6.215
2,8,6.216
-2,8,6.217
-5,9,6.218
-1,11,6.219
2,10,6.22
0,7,6.221
-4,6,6.222
-4,5,6.223
-2,0,6.224
0,-5,6.225
-1,-3,6.226
-4,5,6.227
-4,6,6.228
-4,-1,6.229
-7,-5,6.23
-9,-4,6.231
-7,-3,6.232
-3,-5,6.233
-1,-11,6.234
-1,-9,6.235
-7,-6,6.236
-17,-7,6.237
-26,-6,6.238
-23,0,6.239
-6,2,6.24
19,0,6.241
37,-2,6.242
47,-2,6.243
47,-3,6.244
36,-4,6.245
23,-6,6.246
18,-3,6.247
20,-2,6.248
20,-2,6.249
16,0,6.25
7,6,6.251
-1,12,6.252
-9,13,6.253
-18,8,6.254
-24,7,6.255
-26,6,6.256
-25,4,6.257
-24,4,6.258
-17,5,6.259
-7,1,6.26
-6,-6,6.261
-12,-12,6.262
-9,-8,6.263
4,-2,6.264
16,-1,6.265
12,-4,6.266
0,-2,6.267
-4,0,6.268
-2,-3,6.269
-2,-8,6.27
-3,-7,6.271
2,-2,6.272
14,5,6.273
20,9,6.274
21,17,6.275
20,28,6.276
19,29,6.277
23,20,6.278
25,9,6.279
22,3,6.28
14,2,6.281
4,0,6.282
1,-3,6.283
2,-5,6.284
-1,-8,6.285
-5,-9,6.286
-5,-7,6.287
-2,-1,6.288
-1,2,6.289
-4,-3,6.29
-6,-12,6.291
-7,-24,6.292
-8,-31,6.293
-12,-37,6.294
-14,-36,6.295
-9,-31,6.296
-2,-29,6.297
4,-26,6.298
5,-17,6.299
5,-6,6.3
1,2,6.301
-2,4,6.302
0,1,6.303
4,0,6.304
7,3,6.305
5,5,6.306
3,6,6.307
5,7,6.308
9,10,6.309
14,13,6.31
17,15,6.311
15,15,6.312
7,19,6.313
-2,23,6.314
-1,22,6.315
3,15,6.316
1,3,6.317
-4,-1,6.318
-4,1,6.319
0,5,6.32
2,7,6.321
-3,6,6.322
-6,5,6.323
-6,2,6.324
-2,0,6.325
-1,1,6.326
2,3,6.327
9,2,6.328
13,-1,6.329
6,-3,6.33
0,-5,6.331
0,-5,6.332
5,-1,6.333
6,1,6.334
0,-1,6.335
-5,-6,6.336
-8,-10,6.337
-9,-3,6.338
-7,4,6.339
-4,5,6.34
-3,0,6.341
-4,-1,6.342
-1,0,6.343
5,0,6.344
10,-4,6.345
9,-5,6.346
10,-7,6.347
16,-9,6.348
16,-10,6.349
8,-8,6.35
-1,-5,6.351
-4,-6,6.352
-3,-5,6.353
-10,-5,6.354
-17,-6,6.355
-17,-7,6.356
-7,-11,6.357
4,-9,6.358
10,-1,6.359
13,8,6.36
13,16,6.361
11,22,6.362
7,18,6.363
9,8,6.364
14,0,6.365
12,-3,6.366
0,-9,6.367
-6,-17,6.368
-6,-20,6.369
1,-15,6.37
9,-7,6.371
17,-1,6.372
25,4,6.373
21,12,6.374
9,21,6.375
-3,20,6.376
-6,6,6.377
-3,-1,6.378
-1,3,6.379
-1,9,6.38
-4,8,6.381
-5,1,6.382
-6,-5,6.383
-3,-10,6.384
1,-14,6.385
5,-14,6.386
7,-9,6.387
8,-6,6.388
9,-7,6.389
8,-7,6.39
6,-6,6.391
3,-5,6.392
0,-4,6.393
-6,-2,6.394
-16,2,6.395
-23,3,6.396
-20,-3,6.397
-12,0,6.398
13,17,6.399
32,43,6.4
26,58,6.401
21,49,6.402
17,24,6.403
12,0,6.404
6,-12,6.405
2,-23,6.406
2,-41,6.407
2,-53,6.408
0,-48,6.409
-2,-37,6.41
0,-28,6.411
3,-19,6.412
4,-6,6.413
3,-3,6.414
-6,-15,6.415
-15,-25,6.416
-17,-31,6.417
-15,-35,6.418
-7,-32,6.419
-1,-23,6.42
-3,2,6.421
-13,25,6.422
-19,35,6.423
-16,43,6.424
-9,44,6.425
2,46,6.426
18,50,6.427
32,54,6.428
36,55,6.429
29,57,6.43
21,58,6.431
13,57,6.432
1,47,6.433
-16,37,6.434
-23,42,6.435
-16,69,6.436
-2,92,6.437
3,91,6.438
3,61,6.439
1,17,6.44
-1,-29,6.441
-7,-68,6.442
-19,-82,6.443
-31,-80,6.444
-39,-95,6.445
-41,-137,6.446
-32,-186,6.447
-15,-220,6.448
1,-237,6.449
6,-231,6.45
5,-192,6.451
20,-130,6.452
51,-68,6.453
76,3,6.454
76,67,6.455
49,107,6.456
16,121,6.457
-10,161,6.458
-17,244,6.459
-3,315,6.46
19,330,6.461
36,330,6.462
50,377,6.463
65,443,6.464
77,454,6.465
75,383,6.466
68,247,6.467
60,68,6.468
47,-123,6.469
22,-296,6.47
-3,-455,6.471
-14,-608,6.472
-17,-707,6.473
-30,-712,6.474
-46,-652,6.475
-51,-597,6.476
-46,-527,6.477
-41,-359,6.478
-32,-123,6.479
-17,48,6.48
-12,100,6.481
-23,98,6.482
-34,89,6.483
-32,39,6.484
-25,-52,6.485
-27,-100,6.486
-26,-31,6.487
-13,128,6.488
-1,303,6.489
0,436,6.49
1,507,6.491
9,545,6.492
16,591,6.493
14,633,6.494
11,584,6.495
9,387,6.496
6,83,6.497
-1,-224,6.498
-4,-464,6.499
0,-587,6.5
-3,-565,6.501
-16,-454,6.502
-24,-354,6.503
-21,-283,6.504
-14,-189,6.505
-7,-79,6.506
-4,-26,6.507
-3,-29,6.508
-5,5,6.509
-7,106,6.51
-4,189,6.511
0,209,6.512
0,215,6.513
-3,230,6.514
0,221,6.515
8,169,6.516
12,130,6.517
9,130,6.518
8,124,6.519
15,88,6.52
17,57,6.521
8,56,6.522
-3,55,6.523
-4,39,6.524
4,26,6.525
15,27,6.526
19,18,6.527
17,-3,6.528
9,-11,6.529
-5,-7,6.53
-15,-10,6.531
-11,-23,6.532
4,-27,6.533
15,-28,6.534
17,-34,6.535
13,-44,6.536
15,-48,6.537
19,-44,6.538
18,-43,6.539
8,-44,6.54
-2,-35,6.541
-4,-25,6.542
-2,-24,6.543
-2,-28,6.544
-7,-26,6.545
-11,-23,6.546
-4,-25,6.547
10,-28,6.548
24,-24,6.549
28,-17,6.55
20,-14,6.551
11,-11,6.552
6,-8,6.553
1,-9,6.554
-7,-10,6.555
-17,-8,6.556
-20,-2,6.557
-13,9,6.558
-4,18,6.559
2,29,6.56
6,43,6.561
6,64,6.562
3,89,6.563
-2,97,6.564
-2,84,6.565
9,63,6.566
26,41,6.567
37,2,6.568
32,-71,6.569
17,-158,6.57
3,-205,6.571
0,-195,6.572
8,-155,6.573
16,-92,6.574
19,4,6.575
14,93,6.576
9,160,6.577
9,186,6.578
12,86,6.579
9,-7,6.58
-6,-82,6.581
-21,-129,6.582
-22,-88,6.583
-6,-86,6.584
10,-202,6.585
8,-281,6.586
0,-250,6.587
-2,-181,6.588
2,-2,6.589
4,156,6.59
-1,250,6.591
-5,277,6.592
-8,102,6.593
-17,-75,6.594
-26,-174,6.595
-35,-132,6.596
-39,-49,6.597
-43,42,6.598
-43,178,6.599
-39,301,6.6
-26,272,6.601
-12,73,6.602
2,-134,6.603
23,-219,6.604
59,-213,6.605
90,-188,6.606
106,-124,6.607
110,3,6.608
80,109,6.609
47,101,6.61
9,18,6.611
-23,-25,6.612
-36,0,6.613
-46,29,6.614
-48,29,6.615
-49,33,6.616
-47,72,6.617
-34,118,6.618
-10,125,6.619
12,96,6.62
24,51,6.621
28,9,6.622
31,-15,6.623
31,3,6.624
28,85,6.625
21,229,6.626
8,418,6.627
-17,607,6.628
-45,706,6.629
-59,604,6.63
-54,270,6.631
-44,-186,6.632
-38,-569,6.633
-27,-818,6.634
-8,-939,6.635
9,-964,6.636
18,-872,6.637
30,-631,6.638
50,-320,6.639
60,-74,6.64
46,61,6.641
20,148,6.642
10,227,6.643
26,265,6.644
56,238,6.645
75,197,6.646
70,199,6.647
48,214,6.648
25,187,6.649
13,131,6.65
5,101,6.651
-5,107,6.652
-14,112,6.653
-18,94,6.654
-23,90,6.655
-32,142,6.656
-39,263,6.657
-34,423,6.658
-19,522,6.659
-7,457,6.66
-9,222,6.661
-17,-62,6.662
-21,-288,6.663
-22,-464,6.664
-28,-607,6.665
-35,-646,6.666
-32,-512,6.667
-17,-282,6.668
-6,-104,6.669
-8,-31,6.67
-12,-14,6.671
-7,-21,6.672
1,-43,6.673
1,-66,6.674
-8,-48,6.675
-19,8,6.676
-29,67,6.677
-35,112,6.678
-30,130,6.679
-18,120,6.68
-3,114,6.681
15,140,6.682
44,178,6.683
71,183,6.684
73,171,6.685
48,194,6.686
21,238,6.687
15,223,6.688
19,141,6.689
10,81,6.69
-19,90,6.691
-51,90,6.692
-65,-3,6.693
-57,-184,6.694
-28,-330,6.695
1,-372,6.696
19,-349,6.697
35,-296,6.698
61,-194,6.699
89,-41,6.7
100,71,6.701
83,59,6.702
57,-25,6.703
36,-62,6.704
30,-21,6.705
31,32,6.706
30,59,6.707
18,72,6.708
-1,73,6.709
-10,67,6.71
-16,102,6.711
-33,218,6.712
-59,371,6.713
-77,490,6.714
-72,496,6.715
-53,313,6.716
-34,-77,6.717
-14,-530,6.718
17,-793,6.719
46,-765,6.72
61,-592,6.721
60,-426,6.722
47,-246,6.723
21,-18,6.724
-11,151,6.725
-32,180,6.726
-38,163,6.727
-35,208,6.728
-29,257,6.729
-18,212,6.73
-7,126,6.731
-9,94,6.732
-22,101,6.733
-30,95,6.734
-23,96,6.735
-11,108,6.736
-4,150,6.737
-4,170,6.738
-4,118,6.739
-4,54,6.74
5,-42,6.741
24,-110,6.742
46,-92,6.743
55,-37,6.744
43,128,6.745
22,235,6.746
12,159,6.747
14,30,6.748
14,-256,6.749
2,-460,6.75
-6,-411,6.751
7,-328,6.752
28,-143,6.753
27,38,6.754
6,162,6.755
-11,178,6.756
-18,124,6.757
-25,71,6.758
-30,15,6.759
-31,-58,6.76
-20,-88,6.761
-12,-30,6.762
-18,39,6.763
-18,37,6.764
0,8,6.765
16,26,6.766
24,64,6.767
27,82,6.768
16,135,6.769
8,270,6.77
13,385,6.771
18,343,6.772
24,174,6.773
28,-12,6.774
19,-136,6.775
-6,-230,6.776
-45,-234,6.777
-83,-214,6.778
-95,-122,6.779
-79,-64,6.78
-47,-112,6.781
-13,-139,6.782
26,-105,6.783
67,-60,6.784
97,14,6.785
107,39,6.786
102,-87,6.787
81,-185,6.788
46,-194,6.789
12,-184,6.79
0,-115,6.791
12,-14,6.792
25,182,6.793
25,358,6.794
17,370,6.795
4,230,6.796
-9,95,6.797
-16,73,6.798
-11,136,6.799
-3,204,6.8
-7,195,6.801
-23,62,6.802
-26,-156,6.803
-18,-341,6.804
-15,-422,6.805
-21,-415,6.806
-21,-331,6.807
-14,-139,6.808
-16,120,6.809
-32,312,6.81
-49,335,6.811
-55,226,6.812
-58,95,6.813
-61,-23,6.814
-58,-107,6.815
-48,-142,6.816
-29,-128,6.817
1,-73,6.818
39,0,6.819
65,82,6.82
69,166,6.821
53,223,6.822
34,209,6.823
3,117,6.824
-44,12,6.825
-88,-38,6.826
-105,-26,6.827
-80,39,6.828
-28,158,6.829
23,238,6.83
51,110,6.831
57,-236,6.832
61,-528,6.833
56,-564,6.834
6,-400,6.835
-94,-234,6.836
-175,-94,6.837
-162,89,6.838
-56,221,6.839
75,175,6.84
185,57,6.841
269,51,6.842
331,132,6.843
359,144,6.844
339,91,6.845
268,82,6.846
154,97,6.847
34,56,6.848
-49,-3,6.849
-86,9,6.85
-98,43,6.851
-97,17,6.852
-81,-28,6.853
-67,-20,6.854
-76,17,6.855
-96,13,6.856
-94,-15,6.857
-66,-9,6.858
-32,9,6.859
9,-5,6.86
57,-21,6.861
79,6,6.862
43,39,6.863
-21,23,6.864
-68,-23,6.865
-86,-48,6.866
-94,-47,6.867
-100,-37,6.868
-95,-16,6.869
-82,9,6.87
-66,13,6.871
-44,-3,6.872
-16,7,6.873
7,78,6.874
16,184,6.875
0,244,6.876
-34,174,6.877
-72,-13,6.878
-74,-174,6.879
-38,-143,6.88
-1,31,6.881
11,133,6.882
22,89,6.883
50,50,6.884
62,57,6.885
25,-91,6.886
-27,-438,6.887
-40,-669,6.888
-14,-562,6.889
11,-332,6.89
19,-226,6.891
28,-133,6.892
42,81,6.893
39,291,6.894
18,311,6.895
-4,245,6.896
-6,232,6.897
5,176,6.898
19,7,6.899
28,-80,6.9
23,22,6.901
-5,125,6.902
-43,87,6.903
-67,51,6.904
-66,120,6.905
-57,183,6.906
-48,182,6.907
-33,223,6.908
-6,316,6.909
24,326,6.91
48,225,6.911
66,92,6.912
74,-65,6.913
81,-289,6.914
102,-448,6.915
141,-451,6.916
167,-423,6.917
145,-445,6.918
81,-383,6.919
23,-185,6.92
7,-52,6.921
18,-81,6.922
28,-70,6.923
26,95,6.924
15,245,6.925
-5,307,6.926
-29,454,6.927
-47,664,6.928
-51,608,6.929
-44,179,6.93
-38,-281,6.931
-35,-479,6.932
-32,-486,6.933
-31,-426,6.934
-33,-266,6.935
-37,-33,6.936
-43,73,6.937
-51,20,6.938
-58,23,6.939
-58,188,6.94
-52,308,6.941
-44,203,6.942
-36,-19,6.943
-32,-156,6.944
-40,-152,6.945
-70,-67,6.946
-113,27,6.947
-138,64,6.948
-116,30,6.949
-45,13,6.95
40,87,6.951
113,212,6.952
165,314,6.953
195,374,6.954
186,347,6.955
133,151,6.956
64,-164,6.957
14,-376,6.958
-11,-362,6.959
-31,-230,6.96
-44,-155,6.961
-34,-172,6.962
-2,-205,6.963
21,-137,6.964
8,103,6.965
-13,395,6.966
-5,453,6.967
27,178,6.968
48,-120,6.969
47,-124,6.97
48,19,6.971
71,-52,6.972
97,-306,6.973
109,-416,6.974
105,-220,6.975
87,26,6.976
60,70,6.977
19,-20,6.978
-26,-70,6.979
-61,-37,6.98
-68,43,6.981
-48,121,6.982
-27,102,6.983
-28,-39,6.984
-43,-150,6.985
-52,-94,6.986
-52,33,6.987
-56,94,6.988
-62,162,6.989
-53,330,6.99
-36,417,6.991
-38,213,6.992
-53,-107,6.993
-58,-232,6.994
-39,-64,6.995
-22,119,6.996
-23,57,6.997
-31,-209,6.998
-24,-450,6.999
-6,-449,7.0
9,-140,7.001
16,304,7.002
13,546,7.003
13,419,7.004
32,98,7.005
70,-157,7.006
101,-284,7.007
99,-311,7.008
63,-191,7.009
20,68,7.01
-2,300,7.011
-6,347,7.012
-8,234,7.013
-16,23,7.014
-21,-210,7.015
-19,-336,7.016
-17,-231,7.017
-26,19,7.018
-42,136,7.019
-46,30,7.02
-35,-74,7.021
-20,8,7.022
-1,160,7.023
21,152,7.024
36,-31,7.025
34,-201,7.026
20,-199,7.027
17,-54,7.028
35,80,7.029
63,85,7.03
80,-2,7.031
73,-52,7.032
45,-22,7.033
5,-26,7.034
-21,-165,7.035
-27,-332,7.036
-22,-286,7.037
-15,17,7.038
-13,306,7.039
-17,293,7.04
-24,49,7.041
-33,-87,7.042
-36,40,7.043
-32,216,7.044
-23,195,7.045
-12,56,7.046
-1,50,7.047
7,218,7.048
6,362,7.049
3,319,7.05
6,98,7.051
15,-184,7.052
20,-353,7.053
13,-248,7.054
-4,99,7.055
-23,346,7.056
-25,160,7.057
-2,-289,7.058
38,-493,7.059
72,-265,7.06
82,10,7.061
70,-48,7.062
48,-311,7.063
28,-383,7.064
13,-131,7.065
-1,248,7.066
-12,499,7.067
-17,467,7.068
-15,174,7.069
-14,-141,7.07
-11,-217,7.071
-7,-98,7.072
-2,-54,7.073
-2,-163,7.074
-11,-217,7.075
-27,-111,7.076
-34,-22,7.077
-24,-64,7.078
-8,-108,7.079
3,-66,7.08
-1,-48,7.081
-15,-98,7.082
-31,-63,7.083
-41,82,7.084
-46,80,7.085
-50,-220,7.086
-50,-510,7.087
-37,-344,7.088
-7,268,7.089
26,836,7.09
50,968,7.091
62,747,7.092
72,485,7.093
74,276,7.094
58,104,7.095
20,-2,7.096
-22,12,7.097
-56,67,7.098
-83,-1,7.099
-104,-207,7.1
-106,-414,7.101
-89,-522,7.102
-69,-522,7.103
-64,-419,7.104
-58,-248,7.105
-22,-87,7.106
49,15,7.107
133,63,7.108
216,7,7.109
286,-183,7.11
331,-325,7.111
329,-204,7.112
281,44,7.113
190,141,7.114
71,100,7.115
-42,230,7.116
-98,508,7.117
-95,499,7.118
-88,84,7.119
-119,-270,7.12
-156,-197,7.121
-142,91,7.122
-86,236,7.123
-40,227,7.124
-23,223,7.125
-12,232,7.126
-7,178,7.127
-20,55,7.128
-33,-111,7.129
-26,-300,7.13
-10,-434,7.131
-17,-488,7.132
-41,-606,7.133
-60,-927,7.134
-60,-1152,7.135
-62,-758,7.136
-70,241,7.137
-65,1106,7.138
-44,1226,7.139
-24,839,7.14
-17,538,7.141
-13,455,7.142
-10,368,7.143
-7,263,7.144
0,256,7.145
17,202,7.146
38,-80,7.147
51,-394,7.148
54,-459,7.149
53,-375,7.15
51,-360,7.151
34,-342,7.152
9,-250,7.153
-13,-274,7.154
-19,-473,7.155
-20,-454,7.156
-21,16,7.157
-21,486,7.158
-8,499,7.159
12,322,7.16
27,369,7.161
31,457,7.162
31,243,7.163
33,-91,7.164
40,-225,7.165
48,-232,7.166
52,-224,7.167
46,-39,7.168
33,263,7.169
22,249,7.17
20,-175,7.171
17,-531,7.172
-1,-541,7.173
-34,-453,7.174
-61,-437,7.175
-67,-266,7.176
-58,123,7.177
-49,394,7.178
-36,411,7.179
-14,484,7.18
19,751,7.181
47,898,7.182
60,716,7.183
61,400,7.184
67,148,7.185
79,-77,7.186
78,-272,7.187
52,-329,7.188
16,-295,7.189
-3,-349,7.19
-4,-536,7.191
-1,-805,7.192
-5,-1142,7.193
-11,-1476,7.194
-10,-1424,7.195
-6,-724,7.196
-4,349,7.197
-3,1252,7.198
-2,1656,7.199
-6,1531,7.2
-14,1039,7.201
-22,519,7.202
-22,280,7.203
-21,245,7.204
-27,68,7.205
-31,-322,7.206
-28,-609,7.207
-21,-549,7.208
-18,-238,7.209
-20,101,7.21
-21,298,7.211
-26,230,7.212
-30,-52,7.213
-17,-325,7.214
17,-300,7.215
42,-21,7.216
35,191,7.217
25,127,7.218
10,-152,7.219
-1,-439,7.22
3,-526,7.221
8,-356,7.222
19,-166,7.223
26,-287,7.224
19,-667,7.225
12,-789,7.226
4,-279,7.227
3,507,7.228
23,789,7.229
36,240,7.23
29,-556,7.231
20,-677,7.232
3,60,7.233
-13,1103,7.234
-22,1532,7.235
-14,1073,7.236
6,215,7.237
18,-485,7.238
6,-840,7.239
-23,-845,7.24
-56,-541,7.241
-79,-126,7.242
-87,180,7.243
-76,392,7.244
-35,619,7.245
23,791,7.246
69,837,7.247
78,902,7.248
63,1033,7.249
58,931,7.25
66,445,7.251
63,-57,7.252
41,-237,7.253
10,-335,7.254
-5,-694,7.255
-10,-1116,7.256
-14,-1100,7.257
-21,-625,7.258
-26,-202,7.259
-26,-232,7.26
-25,-630,7.261
-18,-1035,7.262
0,-1169,7.263
23,-992,7.264
36,-632,7.265
37,-189,7.266
27,322,7.267
11,854,7.268
-9,1251,7.269
-31,1356,7.27
-45,1133,7.271
-43,690,7.272
-30,250,7.273
-18,-160,7.274
-13,-683,7.275
-16,-1416,7.276
-12,-1949,7.277
6,-1599,7.278
35,-299,7.279
56,1119,7.28
58,1796,7.281
45,1706,7.282
29,1407,7.283
20,1267,7.284
14,1128,7.285
3,651,7.286
-7,-219,7.287
-16,-1126,7.288
-23,-1597,7.289
-32,-1505,7.29
-37,-1103,7.291
-35,-600,7.292
-26,-35,7.293
-10,538,7.294
8,741,7.295
15,453,7.296
3,156,7.297
-17,336,7.298
-26,781,7.299
-24,895,7.3
-19,473,7.301
-15,-183,7.302
-5,-707,7.303
7,-866,7.304
11,-613,7.305
6,-236,7.306
18,-112,7.307
51,-92,7.308
87,300,7.309
97,849,7.31
81,672,7.311
57,-294,7.312
38,-887,7.313
16,-426,7.314
-11,269,7.315
-34,127,7.316
-42,-474,7.317
-38,-506,7.318
-37,-114,7.319
-43,-179,7.32
-44,-617,7.321
-25,-523,7.322
8,196,7.323
25,669,7.324
19,519,7.325
17,349,7.326
28,617,7.327
33,950,7.328
22,848,7.329
20,395,7.33
36,-47,7.331
42,-365,7.332
21,-563,7.333
-12,-552,7.334
-20,-391,7.335
-12,-539,7.336
-11,-1212,7.337
-16,-1705,7.338
-11,-1255,7.339
-2,-340,7.34
-6,-52,7.341
-21,-228,7.342
-26,405,7.343
-22,2001,7.344
-19,3037,7.345
-21,2524,7.346
-20,1317,7.347
-17,579,7.348
-9,308,7.349
2,82,7.35
8,-3,7.351
3,85,7.352
-5,-78,7.353
-12,-724,7.354
-14,-1342,7.355
-23,-1437,7.356
-34,-1089,7.357
-32,-535,7.358
-7,55,7.359
21,360,7.36
36,151,7.361
43,-258,7.362
43,-451,7.363
31,-518,7.364
12,-611,7.365
0,-432,7.366
4,139,7.367
6,469,7.368
0,35,7.369
-1,-716,7.37
12,-1104,7.371
24,-1183,7.372
23,-1233,7.373
10,-1006,7.374
-4,-196,7.375
-18,822,7.376
-29,1453,7.377
-28,1706,7.378
-12,1825,7.379
5,1588,7.38
13,716,7.381
14,-395,7.382
17,-978,7.383
20,-787,7.384
21,-216,7.385
29,259,7.386
44,418,7.387
44,296,7.388
23,122,7.389
1,114,7.39
-1,225,7.391
6,226,7.392
5,57,7.393
-11,-213,7.394
-24,-519,7.395
-29,-849,7.396
-29,-1026,7.397
-27,-769,7.398
-20,-93,7.399
-13,557,7.4
-11,743,7.401
-8,508,7.402
2,279,7.403
11,287,7.404
5,336,7.405
-8,197,7.406
-19,-19,7.407
-16,-94,7.408
-4,-94,7.409
10,-207,7.41
21,-373,7.411
24,-389,7.412
22,-291,7.413
21,-276,7.414
23,-347,7.415
22,-277,7.416
21,28,7.417
23,356,7.418
26,444,7.419
22,298,7.42
9,134,7.421
-1,113,7.422
-1,197,7.423
-3,216,7.424
-8,39,7.425
-12,-325,7.426
-11,-720,7.427
-7,-898,7.428
-4,-638,7.429
-1,43,7.43
2,781,7.431
2,1108,7.432
0,934,7.433
0,522,7.434
2,237,7.435
0,131,7.436
-5,6,7.437
-7,-232,7.438
0,-515,7.439
12,-815,7.44
13,-1185,7.441
4,-1455,7.442
-3,-1199,7.443
-5,-272,7.444
-8,794,7.445
-14,1329,7.446
-17,1325,7.447
-14,1265,7.448
-10,1256,7.449
-8,971,7.45
-9,405,7.451
-5,-3,7.452
3,-105,7.453
8,-197,7.454
6,-368,7.455
3,-324,7.456
-3,-40,7.457
-7,50,7.458
1,-201,7.459
9,-388,7.46
15,-267,7.461
17,-140,7.462
1,-259,7.463
-9,-460,7.464
3,-588,7.465
15,-714,7.466
26,-745,7.467
35,-401,7.468
37,225,7.469
36,611,7.47
24,505,7.471
14,203,7.472
16,11,7.473
17,-134,7.474
4,-261,7.475
-12,-192,7.476
-20,78,7.477
-21,213,7.478
-17,24,7.479
-6,-155,7.48
7,31,7.481
13,390,7.482
10,465,7.483
4,221,7.484
-2,45,7.485
-10,134,7.486
-14,261,7.487
-5,211,7.488
11,86,7.489
20,30,7.49
18,-38,7.491
13,-215,7.492
12,-365,7.493
7,-323,7.494
-3,-114,7.495
-19,58,7.496
-28,95,7.497
-30,45,7.498
-27,-68,7.499
-21,-242,7.5
-10,-392,7.501
1,-426,7.502
7,-419,7.503
5,-458,7.504
-1,-423,7.505
-3,-138,7.506
-1,259,7.507
5,437,7.508
7,364,7.509
10,352,7.51
15,538,7.511
21,683,7.512
25,601,7.513
20,383,7.514
13,218,7.515
6,121,7.516
0,47,7.517
-5,26,7.518
-2,9,7.519
0,-107,7.52
-1,-263,7.521
-3,-287,7.522
-3,-193,7.523
-2,-165,7.524
4,-219,7.525
10,-198,7.526
12,-83,7.527
14,-25,7.528
8,-56,7.529
4,-55,7.53
6,-1,7.531
9,3,7.532
9,-48,7.533
9,-90,7.534
6,-112,7.535
11,-163,7.536
12,-194,7.537
3,-112,7.538
-2,24,7.539
6,44,7.54
15,-102,7.541
6,-290,7.542
-8,-344,7.543
-14,-149,7.544
-13,242,7.545
-18,575,7.546
-24,587,7.547
-26,316,7.548
-22,53,7.549
-19,-41,7.55
-16,-57,7.551
-6,-57,7.552
5,23,7.553
11,163,7.554
13,179,7.555
14,29,7.556
15,-77,7.557
14,-13,7.558
16,71,7.559
22,45,7.56
26,7,7.561
19,50,7.562
4,58,7.563
-6,-82,7.564
-8,-285,7.565
-6,-409,7.566
-3,-412,7.567
4,-287,7.568
19,-36,7.569
29,225,7.57
26,320,7.571
15,217,7.572
4,65,7.573
-3,-51,7.574
-5,-115,7.575
-8,-96,7.576
-10,17,7.577
-13,115,7.578
-14,60,7.579
-12,-60,7.58
4,-50,7.581
17,84,7.582
21,157,7.583
25,128,7.584
31,130,7.585
35,200,7.586
28,205,7.587
22,84,7.588
16,-60,7.589
10,-139,7.59
2,-186,7.591
-8,-246,7.592
-26,-310,7.593
-43,-348,7.594
-47,-312,7.595
-46,-212,7.596
-46,73,7.597
-41,301,7.598
-26,355,7.599
-3,378,7.6
13,301,7.601
12,226,7.602
1,159,7.603
-8,81,7.604
-8,-29,7.605
1,-111,7.606
18,-101,7.607
29,-94,7.608
32,-95,7.609
35,-101,7.61
50,-122,7.611
62,-107,7.612
50,18,7.613
15,109,7.614
-9,31,7.615
-6,-66,7.616
5,-91,7.617
10,-73,7.618
14,-43,7.619
14,31,7.62
-10,103,7.621
-49,67,7.622
-58,-62,7.623
-20,-130,7.624
27,-72,7.625
48,3,7.626
46,1,7.627
37,-30,7.628
16,-23,7.629
-27,0,7.63
-81,-6,7.631
-117,-32,7.632
-127,-56,7.633
-116,-80,7.634
-94,-73,7.635
-75,2,7.636
-57,99,7.637
-32,121,7.638
7,59,7.639
44,12,7.64
64,29,7.641
69,46,7.642
70,17,7.643
65,-8,7.644
58,8,7.645
55,28,7.646
59,13,7.647
50,-5,7.648
33,6,7.649
32,24,7.65
55,17,7.651
72,3,7.652
68,2,7.653
47,1,7.654
37,-6,7.655
26,-12,7.656
14,-18,7.657
2,-39,7.658
-6,-82,7.659
-15,-125,7.66
-29,-153,7.661
-37,-181,7.662
-25,-208,7.663
-15,-157,7.664
-12,33,7.665
-12,252,7.666
-21,262,7.667
-26,22,7.668
-14,-166,7.669
2,-17,7.67
30,324,7.671
50,470,7.672
48,339,7.673
37,155,7.674
12,98,7.675
24,88,7.676
61,40,7.677
63,37,7.678
8,71,7.679
-64,-25,7.68
-105,-245,7.681
-105,-327,7.682
-89,-179,7.683
-72,-54,7.684
-59,-124,7.685
-49,-185,7.686
-40,-29,7.687
-22,156,7.688
10,70,7.689
43,-217,7.69
48,-358,7.691
19,-194,7.692
-10,76,7.693
-10,232,7.694
26,198,7.695
83,64,7.696
143,-50,7.697
176,-90,7.698
135,-70,7.699
0,-31,7.7
-156,-1,7.701
-222,4,7.702
-172,-7,7.703
-89,1,7.704
-46,53,7.705
-39,112,7.706
-26,125,7.707
-13,86,7.708
-9,48,7.709
-3,34,7.71
18,18,7.711
38,-6,7.712
46,-13,7.713
50,-5,7.714
61,-3,7.715
64,-22,7.716
51,-43,7.717
34,-45,7.718
34,-45,7.719
42,-53,7.72
33,-51,7.721
12,-25,7.722
0,7,7.723
11,21,7.724
35,9,7.725
56,-7,7.726
64,-4,7.727
53,31,7.728
41,85,7.729
36,109,7.73
36,62,7.731
25,-40,7.732
8,-127,7.733
-6,-151,7.734
-13,-95,7.735
-21,6,7.736
-27,105,7.737
-16,195,7.738
10,282,7.739
31,345,7.74
23,318,7.741
-11,169,7.742
-48,-55,7.743
-73,-284,7.744
-87,-447,7.745
-95,-475,7.746
-89,-353,7.747
-54,-182,7.748
-5,-93,7.749
22,-94,7.75
22,-87,7.751
16,-12,7.752
24,126,7.753
31,333,7.754
12,507,7.755
-31,450,7.756
-66,109,7.757
-71,-257,7.758
-52,-378,7.759
-33,-279,7.76
-21,-140,7.761
-3,3,7.762
31,164,7.763
77,218,7.764
114,73,7.765
121,-96,7.766
95,-89,7.767
48,16,7.768
-1,26,7.769
-44,-24,7.77
-80,18,7.771
-107,118,7.772
-122,127,7.773
-121,46,7.774
-92,6,7.775
-35,45,7.776
51,88,7.777
151,104,7.778
222,79,7.779
215,-22,7.78
125,-164,7.781
20,-224,7.782
-27,-154,7.783
-11,-22,7.784
17,137,7.785
27,287,7.786
29,276,7.787
30,-6,7.788
16,-361,7.789
-8,-471,7.79
-16,-326,7.791
-5,-162,7.792
-8,-70,7.793
-34,36,7.794
-52,131,7.795
-41,109,7.796
-23,30,7.797
-22,57,7.798
-28,139,7.799
-19,114,7.8
-1,19,7.801
11,16,7.802
20,79,7.803
35,69,7.804
46,8,7.805
37,16,7.806
18,65,7.807
11,52,7.808
29,14,7.809
65,51,7.81
88,121,7.811
72,112,7.812
17,39,7.813
-58,-23,7.814
-115,-50,7.815
-135,-69,7.816
-133,-63,7.817
-123,1,7.818
-113,64,7.819
-106,38,7.82
-111,-54,7.821
-113,-122,7.822
-90,-139,7.823
-23,-133,7.824
70,-104,7.825
137,-35,7.826
124,28,7.827
31,19,7.828
-65,-38,7.829
-82,-50,7.83
-28,12,7.831
21,82,7.832
35,109,7.833
65,133,7.834
143,203,7.835
200,275,7.836
170,237,7.837
107,65,7.838
107,-136,7.839
147,-239,7.84
113,-227,7.841
-10,-181,7.842
-111,-174,7.843
-110,-212,7.844
-66,-255,7.845
-63,-251,7.846
-102,-166,7.847
-130,-21,7.848
-129,108,7.849
-112,167,7.85
-91,176,7.851
-67,173,7.852
-44,159,7.853
-22,116,7.854
11,77,7.855
45,83,7.856
69,115,7.857
84,106,7.858
95,17,7.859
96,-114,7.86
80,-189,7.861
66,-152,7.862
67,-40,7.863
67,63,7.864
34,115,7.865
-17,125,7.866
-42,100,7.867
-31,25,7.868
-12,-82,7.869
-11,-151,7.87
-22,-122,7.871
-26,-24,7.872
-20,56,7.873
-6,74,7.874
13,62,7.875
28,66,7.876
33,57,7.877
29,-15,7.878
23,-103,7.879
13,-98,7.88
-1,-3,7.881
-7,44,7.882
6,-23,7.883
33,-115,7.884
50,-145,7.885
50,-132,7.886
40,-92,7.887
25,13,7.888
2,162,7.889
-19,224,7.89
-23,143,7.891
-9,30,7.892
12,-5,7.893
28,-4,7.894
26,-38,7.895
-7,-72,7.896
-47,-37,7.897
-45,23,7.898
2,6,7.899
27,-76,7.9
-19,-114,7.901
-91,-78,7.902
-106,-37,7.903
-58,-20,7.904
-8,19,7.905
5,106,7.906
-1,201,7.907
-12,270,7.908
-35,291,7.909
-72,214,7.91
-95,16,7.911
-88,-205,7.912
-56,-308,7.913
-6,-266,7.914
48,-152,7.915
87,-42,7.916
93,26,7.917
56,35,7.918
-20,-14,7.919
-108,-48,7.92
-151,-1,7.921
-112,72,7.922
-14,79,7.923
82,21,7.924
139,-23,7.925
163,-26,7.926
154,-5,7.927
121,31,7.928
96,73,7.929
113,72,7.93
137,20,7.931
118,-13,7.932
63,25,7.933
22,117,7.934
15,187,7.935
-1,193,7.936
-49,142,7.937
-83,45,7.938
-77,-75,7.939
-65,-174,7.94
-35,-214,7.941
-20,-199,7.942
-48,-144,7.943
-59,-51,7.944
-20,77,7.945
5,188,7.946
-12,209,7.947
-28,119,7.948
-38,-13,7.949
-50,-94,7.95
-63,-114,7.951
-71,-153,7.952
-62,-238,7.953
-36,-289,7.954
27,-247,7.955
52,-204,7.956
63,-158,7.957
90,-105,7.958
103,-29,7.959
64,39,7.96
-2,86,7.961
-42,140,7.962
-61,213,7.963
-90,258,7.964
-116,218,7.965
-107,192,7.966
-66,216,7.967
-19,258,7.968
32,355,7.969
88,362,7.97
127,96,7.971
140,-141,7.972
158,-293,7.973
193,-398,7.974
196,-326,7.975
112,-235,7.976
-17,-166,7.977
-102,-110,7.978
-114,-89,7.979
-93,-124,7.98
-82,-170,7.981
-82,-157,7.982
-79,-98,7.983
-74,-64,7.984
-71,-67,7.985
-73,-38,7.986
-78,47,7.987
-71,129,7.988
-38,156,7.989
26,150,7.99
110,145,7.991
193,137,7.992
243,126,7.993
222,116,7.994
129,111,7.995
19,92,7.996
-35,60,7.997
-38,41,7.998
-33,42,7.999
-36,45,8.0
-39,36,8.001
-48,25,8.002
-68,8,8.003
-65,-15,8.004
-7,-34,8.005
84,-30,8.006
148,-14,8.007
133,-9,8.008
22,-17,8.009
-146,-19,8.01
-259,-8,8.011
-230,18,8.012
-121,58,8.013
-49,103,8.014
-39,137,8.015
-15,160,8.016
49,181,8.017
76,170,8.018
35,70,8.019
-13,-95,8.02
-49,-202,8.021
-114,-173,8.022
-185,-70,8.023
-184,6,8.024
-100,32,8.025
8,50,8.026
130,102,8.027
288,180,8.028
410,190,8.029
373,14,8.03
190,-338,8.031
15,-673,8.032
-41,-810,8.033
-6,-750,8.034
52,-556,8.035
97,-258,8.036
129,73,8.037
144,273,8.038
131,269,8.039
62,201,8.04
-66,210,8.041
-199,239,8.042
-261,193,8.043
-241,132,8.044
-185,145,8.045
-120,169,8.046
-42,116,8.047
30,60,8.048
55,96,8.049
44,159,8.05
33,140,8.051
21,80,8.052
-19,74,8.053
-92,89,8.054
-144,36,8.055
-136,-70,8.056
-80,-127,8.057
-11,-114,8.058
43,-97,8.059
63,-104,8.06
51,-93,8.061
44,-63,8.062
79,-49,8.063
136,-34,8.064
156,32,8.065
99,124,8.066
13,149,8.067
-23,69,8.068
3,-41,8.069
8,-99,8.07
-75,-96,8.071
-185,-73,8.072
-201,-58,8.073
-97,-48,8.074
14,-34,8.075
43,-26,8.076
31,-25,8.077
51,-14,8.078
93,13,8.079
100,38,8.08
69,43,8.081
48,35,8.082
47,34,8.083
34,39,8.084
-5,38,8.085
-42,51,8.086
-56,113,8.087
-36,218,8.088
13,311,8.089
73,354,8.09
115,332,8.091
121,238,8.092
94,88,8.093
31,-102,8.094
-39,-240,8.095
-74,-246,8.096
-56,-115,8.097
-24,63,8.098
-25,154,8.099
-47,102,8.1
-52,-38,8.101
-46,-203,8.102
-61,-399,8.103
-88,-608,8.104
-86,-725,8.105
-51,-675,8.106
-18,-530,8.107
-13,-390,8.108
-22,-232,8.109
-25,-11,8.11
-15,185,8.111
5,243,8.112
31,224,8.113
59,244,8.114
84,305,8.115
83,309,8.116
53,246,8.117
39,206,8.118
105,192,8.119
231,129,8.12
262,35,8.121
92,9,8.122
-171,61,8.123
-306,100,8.124
-282,96,8.125
-269,111,8.126
-312,166,8.127
-236,188,8.128
31,130,8.129
290,31,8.13
375,-50,8.131
384,-93,8.132
446,-88,8.133
462,-26,8.134
279,70,8.135
-30,127,8.136
-245,73,8.137
-317,-65,8.138
-339,-193,8.139
-339,-233,8.14
-265,-190,8.141
-129,-115,8.142
-14,-44,8.143
37,2,8.144
45,8,8.145
38,-22,8.146
39,-41,8.147
73,-18,8.148
133,15,8.149
178,17,8.15
177,8,8.151
123,28,8.152
37,64,8.153
-57,69,8.154
-119,42,8.155
-131,26,8.156
-88,28,8.157
42,34,8.158
242,35,8.159
360,40,8.16
233,42,8.161
-65,28,8.162
-301,6,8.163
-403,2,8.164
-490,16,8.165
-560,33,8.166
-438,60,8.167
-116,99,8.168
132,108,8.169
132,46,8.17
45,-55,8.171
75,-123,8.172
172,-143,8.173
224,-154,8.174
262,-155,8.175
342,-110,8.176
383,-21,8.177
274,52,8.178
93,68,8.179
-11,57,8.18
-39,75,8.181
-81,136,8.182
-145,209,8.183
-151,225,8.184
-82,134,8.185
-17,-21,8.186
-5,-113,8.187
-8,-37,8.188
33,193,8.189
105,458,8.19
143,598,8.191
129,503,8.192
117,244,8.193
123,13,8.194
57,-9,8.195
-150,50,8.196
-390,-147,8.197
-462,-677,8.198
-310,-1219,8.199
-58,-1443,8.2
152,-1362,8.201
261,-1163,8.202
245,-867,8.203
116,-418,8.204
-11,34,8.205
-9,247,8.206
97,248,8.207
155,283,8.208
95,400,8.209
-4,412,8.21
-55,294,8.211
-71,276,8.212
-75,417,8.213
-40,510,8.214
30,417,8.215
47,302,8.216
-56,327,8.217
-194,380,8.218
-223,316,8.219
-139,216,8.22
-57,191,8.221
-34,166,8.222
0,50,8.223
105,-64,8.224
223,-65,8.225
269,3,8.226
228,29,8.227
129,-2,8.228
-2,-48,8.229
-121,-91,8.23
-162,-101,8.231
-104,-51,8.232
-14,29,8.233
39,86,8.234
51,110,8.235
49,108,8.236
1,45,8.237
-52,-84,8.238
-122,-180,8.239
-164,-146,8.24
-115,-28,8.241
-49,37,8.242
66,-3,8.243
135,-108,8.244
65,-213,8.245
-14,-272,8.246
-118,-239,8.247
-185,-117,8.248
-138,23,8.249
-79,103,8.25
13,107,8.251
110,75,8.252
219,49,8.253
262,44,8.254
40,48,8.255
-119,47,8.256
-66,29,8.257
60,18,8.258
112,30,8.259
131,37,8.26
181,28,8.261
171,21,8.262
27,19,8.263
-152,17,8.264
-230,11,8.265
-223,7,8.266
-197,6,8.267
-121,6,8.268
64,11,8.269
269,13,8.27
345,1,8.271
283,-13,8.272
210,-31,8.273
174,-45,8.274
105,-31,8.275
-46,-5,8.276
-189,9,8.277
-217,12,8.278
-154,0,8.279
-112,-19,8.28
-105,-30,8.281
-33,-24,8.282
124,-20,8.283
231,-29,8.284
166,-39,8.285
-17,-30,8.286
-180,-17,8.287
-291,-17,8.288
-383,-20,8.289
-416,-1,8.29
-306,38,8.291
-99,61,8.292
44,54,8.293
61,25,8.294
35,-2,8.295
61,-24,8.296
135,-44,8.297
196,-51,8.298
227,-50,8.299
228,-46,8.3
176,-34,8.301
65,-8,8.302
-41,23,8.303
-62,46,8.304
5,56,8.305
67,60,8.306
37,85,8.307
-68,144,8.308
-146,213,8.309
-134,217,8.31
-78,113,8.311
-53,-37,8.312
-55,-127,8.313
-25,-137,8.314
49,-121,8.315
109,-124,8.316
113,-142,8.317
100,-161,8.318
109,-203,8.319
118,-252,8.32
91,-249,8.321
53,-171,8.322
48,-68,8.323
68,19,8.324
72,89,8.325
40,143,8.326
-3,160,8.327
-21,141,8.328
8,116,8.329
74,107,8.33
127,110,8.331
135,117,8.332
117,120,8.333
86,100,8.334
7,63,8.335
-157,38,8.336
-332,38,8.337
-380,40,8.338
-275,0,8.339
-141,-90,8.34
-84,-190,8.341
-84,-267,8.342
-63,-298,8.343
-14,-273,8.344
34,-202,8.345
92,-113,8.346
169,-35,8.347
229,19,8.348
240,57,8.349
236,81,8.35
250,103,8.351
227,127,8.352
90,144,8.353
-170,138,8.354
-418,107,8.355
-519,80,8.356
-453,67,8.357
-281,64,8.358
-68,53,8.359
109,39,8.36
169,37,8.361
94,48,8.362
-5,52,8.363
-8,36,8.364
67,14,8.365
106,6,8.366
76,12,8.367
47,22,8.368
57,23,8.369
66,17,8.37
53,7,8.371
53,-4,8.372
77,-16,8.373
101,-25,8.374
125,-24,8.375
176,-21,8.376
222,-13,8.377
180,-6,8.378
37,-1,8.379
-123,0,8.38
-213,-13,8.381
-196,-23,8.382
-58,-23,8.383
144,-22,8.384
243,-13,8.385
110,-4,8.386
-157,1,8.387
-319,3,8.388
-285,-9,8.389
-161,-19,8.39
-47,-18,8.391
44,-17,8.392
83,-17,8.393
26,-21,8.394
-56,-29,8.395
-103,-31,8.396
-37,-37,8.397
21,-47,8.398
59,-56,8.399
89,-44,8.4
91,4,8.401
91,75,8.402
83,119,8.403
82,101,8.404
108,37,8.405
104,-20,8.406
5,-43,8.407
-81,-49,8.408
-131,-55,8.409
-156,-46,8.41
-101,-21,8.411
-35,-6,8.412
64,-10,8.413
138,-4,8.414
123,28,8.415
104,46,8.416
27,19,8.417
-142,0,8.418
-280,6,8.419
-257,12,8.42
-116,14,8.421
18,13,8.422
110,-2,8.423
180,-12,8.424
213,-4,8.425
180,3,8.426
101,3,8.427
-4,4,8.428
-129,2,8.429
-224,0,8.43
-230,-8,8.431
-173,-17,8.432
-119,-30,8.433
-43,-44,8.434
113,-50,8.435
287,-32,8.436
332,-4,8.437
223,11,8.438
90,5,8.439
24,0,8.44
7,13,8.441
5,33,8.442
21,36,8.443
32,25,8.444
12,23,8.445
-13,34,8.446
-6,38,8.447
12,24,8.448
5,0,8.449
-3,-10,8.45
12,-7,8.451
41,-2,8.452
57,-6,8.453
64,-18,8.454
56,-22,8.455
-9,-9,8.456
-132,0,8.457
-237,-3,8.458
-248,-14,8.459
-179,-17,8.46
-93,-11,8.461
-33,-8,8.462
-9,-14,8.463
-13,-18,8.464
-20,-14,8.465
-6,-8,8.466
24,0,8.467
41,15,8.468
48,31,8.469
66,29,8.47
87,8,8.471
89,-13,8.472
75,-14,8.473
61,-4,8.474
55,5,8.475
36,8,8.476
-5,9,8.477
-43,13,8.478
-48,11,8.479
-25,1,8.48
-12,-1,8.481
-32,6,8.482
-59,11,8.483
-54,6,8.484
-29,-1,8.485
-36,-4,8.486
-85,-12,8.487
-106,-27,8.488
-48,-30,8.489
45,-16,8.49
90,4,8.491
72,10,8.492
51,5,8.493
49,-6,8.494
43,-14,8.495
18,-20,8.496
0,-23,8.497
4,-15,8.498
6,1,8.499
-13,25,8.5
-36,45,8.501
-32,42,8.502
1,12,8.503
41,-21,8.504
59,-27,8.505
47,-2,8.506
25,25,8.507
31,30,8.508
70,13,8.509
103,-6,8.51
96,-13,8.511
58,-6,8.512
26,8,8.513
4,13,8.514
-8,2,8.515
-19,-15,8.516
-46,-26,8.517
-109,-15,8.518
-167,7,8.519
-135,24,8.52
-3,36,8.521
113,47,8.522
106,46,8.523
23,24,8.524
-4,-2,8.525
46,-11,8.526
95,-1,8.527
96,4,8.528
79,-8,8.529
48,-20,8.53
-31,-16,8.531
-139,-1,8.532
-193,8,8.533
-165,3,8.534
-100,-11,8.535
-33,-32,8.536
56,-48,8.537
167,-37,8.538
226,-5,8.539
185,16,8.54
101,5,8.541
39,-18,8.542
-22,-24,8.543
-122,-23,8.544
-214,-43,8.545
-206,-72,8.546
-102,-70,8.547
1,-38,8.548
51,-18,8.549
83,-19,8.55
129,-15,8.551
155,-8,8.552
125,-27,8.553
54,-79,8.554
-4,-110,8.555
-45,-90,8.556
-99,-55,8.557
-160,-31,8.558
-173,-8,8.559
-112,24,8.56
-19,47,8.561
41,50,8.562
40,53,8.563
-4,65,8.564
-53,66,8.565
-73,49,8.566
-59,36,8.567
-37,41,8.568
-14,48,8.569
32,47,8.57
99,49,8.571
151,62,8.572
148,69,8.573
95,54,8.574
30,36,8.575
-19,35,8.576
-46,38,8.577
-53,36,8.578
-40,25,8.579
-12,13,8.58
27,-2,8.581
51,-23,8.582
42,-37,8.583
15,-24,8.584
0,1,8.585
10,12,8.586
23,0,8.587
34,-11,8.588
55,-7,8.589
84,1,8.59
78,2,8.591
18,3,8.592
-42,8,8.593
-49,9,8.594
-15,0,8.595
-7,-14,8.596
-77,-24,8.597
-127,-19,8.598
-109,-9,8.599
-81,-4,8.6
-19,-4,8.601
27,-7,8.602
27,-7,8.603
27,-3,8.604
23,-1,8.605
18,-5,8.606
11,-12,8.607
7,-13,8.608
16,-7,8.609
24,-1,8.61
32,-2,8.611
34,-10,8.612
20,-19,8.613
8,-24,8.614
16,-18,8.615
30,-12,8.616
32,-6,8.617
14,1,8.618
-10,10,8.619
-21,18,8.62
-16,22,8.621
-8,23,8.622
-18,10,8.623
-39,0,8.624
-55,-2,8.625
-59,-4,8.626
-43,0,8.627
3,5,8.628
74,11,8.629
118,14,8.63
89,4,8.631
15,-4,8.632
-29,-9,8.633
-30,-14,8.634
-32,-23,8.635
-61,-37,8.636
-70,-46,8.637
-30,-31,8.638
12,-8,8.639
3,6,8.64
-26,10,8.641
-17,10,8.642
29,9,8.643
54,5,8.644
34,2,8.645
9,3,8.646
13,1,8.647
32,-6,8.648
35,-13,8.649
23,-7,8.65
20,5,8.651
28,12,8.652
32,11,8.653
21,2,8.654
16,0,8.655
28,14,8.656
43,30,8.657
36,27,8.658
14,0,8.659
-2,-31,8.66
-16,-38,8.661
-50,-28,8.662
-91,-20,8.663
-89,-17,8.664
-39,-10,8.665
1,2,8.666
-1,7,8.667
-11,2,8.668
11,1,8.669
40,4,8.67
33,2,8.671
8,-2,8.672
0,-4,8.673
7,-2,8.674
1,-5,8.675
-12,-7,8.676
-13,-2,8.677
-5,7,8.678
-6,5,8.679
-7,-1,8.68
4,9,8.681
18,33,8.682
20,47,8.683
21,38,8.684
29,25,8.685
25,25,8.686
4,28,8.687
-11,19,8.688
-2,4,8.689
10,-4,8.69
7,-9,8.691
-2,-16,8.692
1,-25,8.693
3,-30,8.694
-6,-27,8.695
-21,-21,8.696
-21,-17,8.697
-10,-13,8.698
0,-12,8.699
2,-20,8.7
0,-25,8.701
-5,-17,8.702
-6,-3,8.703
8,1,8.704
32,-1,8.705
50,-2,8.706
55,5,8.707
48,8,8.708
21,5,8.709
-29,8,8.71
-81,13,8.711
-86,15,8.712
-35,11,8.713
32,9,8.714
63,14,8.715
45,27,8.716
14,41,8.717
-7,57,8.718
-30,62,8.719
-58,48,8.72
-63,26,8.721
-35,9,8.722
-1,-10,8.723
11,-48,8.724
3,-92,8.725
2,-109,8.726
10,-97,8.727
12,-78,8.728
10,-69,8.729
12,-63,8.73
18,-52,8.731
19,-34,8.732
21,-9,8.733
24,19,8.734
27,39,8.735
23,40,8.736
16,28,8.737
12,20,8.738
14,21,8.739
15,25,8.74
10,27,8.741
4,28,8.742
0,26,8.743
0,21,8.744
0,16,8.745
-2,16,8.746
-4,15,8.747
-3,13,8.748
-1,12,8.749
1,12,8.75
4,9,8.751
9,5,8.752
11,5,8.753
4,6,8.754
-2,4,8.755
-6,0,8.756
-7,-4,8.757
-7,-1,8.758
-4,0,8.759
-1,0,8.76
1,1,8.761
-2,2,8.762
-5,0,8.763
-5,-3,8.764
0,-2,8.765
3,0,8.766
6,-1,8.767
9,-4,8.768
10,-3,8.769
5,0,8.77
-1,1,8.771
-5,1,8.772
-5,2,8.773
-2,-1,8.774
-1,-5,8.775
-6,-8,8.776
-13,-9,8.777
-17,-5,8.778
-13,3,8.779
-5,13,8.78
-2,16,8.781
-2,7,8.782
2,-11,8.783
13,-27,8.784
18,-30,8.785
15,-21,8.786
10,-12,8.787
12,-6,8.788
16,2,8.789
13,13,8.79
9,23,8.791
10,24,8.792
10,17,8.793
3,3,8.794
-5,-10,8.795
-7,-22,8.796
-3,-37,8.797
4,-50,8.798
14,-50,8.799
24,-34,8.8
23,-13,8.801
9,-5,8.802
-4,-4,8.803
-4,0,8.804
2,13,8.805
3,17,8.806
2,11,8.807
5,7,8.808
4,10,8.809
-4,13,8.81
-9,13,8.811
-5,13,8.812
2,16,8.813
1,18,8.814
-7,24,8.815
-12,35,8.816
-14,40,8.817
-13,30,8.818
-8,8,8.819
0,-10,8.82
4,-23,8.821
1,-32,8.822
0,-34,8.823
7,-19,8.824
11,11,8.825
6,41,8.826
3,58,8.827
6,73,8.828
10,93,8.829
7,107,8.83
0,101,8.831
-3,74,8.832
-2,34,8.833
-3,-33,8.834
-4,-121,8.835
-3,-200,8.836
-2,-235,8.837
0,-213,8.838
8,-153,8.839
16,-69,8.84
15,26,8.841
8,97,8.842
5,118,8.843
10,103,8.844
15,94,8.845
14,94,8.846
10,64,8.847
8,-2,8.848
4,-57,8.849
-2,-67,8.85
-6,-52,8.851
-11,-54,8.852
-16,-69,8.853
-22,-77,8.854
-22,-77,8.855
-20,-89,8.856
-19,-115,8.857
-23,-122,8.858
-28,-94,8.859
-36,-40,8.86
-51,13,8.861
-78,51,8.862
-106,77,8.863
-136,105,8.864
-163,135,8.865
-174,146,8.866
-144,129,8.867
-59,105,8.868
58,106,8.869
164,123,8.87
244,126,8.871
308,98,8.872
360,53,8.873
379,-1,8.874
345,-49,8.875
268,-82,8.876
181,-101,8.877
98,-108,8.878
31,-109,8.879
-11,-99,8.88
-30,-77,8.881
-45,-55,8.882
-70,-44,8.883
-96,-33,8.884
-106,-15,8.885
-107,1,8.886
-106,13,8.887
-101,30,8.888
-88,54,8.889
-77,79,8.89
-74,88,8.891
-70,86,8.892
-58,80,8.893
-50,65,8.894
-50,35,8.895
-49,-8,8.896
-50,-57,8.897
-48,-89,8.898
-37,-91,8.899
-27,-64,8.9
-21,-35,8.901
-17,-17,8.902
-17,-2,8.903
-16,18,8.904
-14,31,8.905
-12,19,8.906
-12,-7,8.907
-11,-26,8.908
-9,-39,8.909
-8,-50,8.91
-9,-56,8.911
-10,-49,8.912
-7,-27,8.913
-2,9,8.914
3,57,8.915
9,101,8.916
14,129,8.917
15,151,8.918
19,157,8.919
27,152,8.92
30,113,8.921
28,59,8.922
24,-41,8.923
28,-132,8.924
30,-195,8.925
26,-238,8.926
18,-218,8.927
15,-178,8.928
16,-84,8.929
13,-8,8.93
4,13,8.931
-4,31,8.932
-9,29,8.933
-15,31,8.934
-19,46,8.935
-16,58,8.936
-4,59,8.937
10,53,8.938
21,42,8.939
26,26,8.94
21,9,8.941
15,-2,8.942
15,1,8.943
22,19,8.944
26,38,8.945
20,40,8.946
15,25,8.947
19,5,8.948
27,-5,8.949
27,-9,8.95
15,-7,8.951
-6,6,8.952
-24,31,8.953
-30,57,8.954
-19,72,8.955
-3,73,8.956
8,68,8.957
7,66,8.958
3,59,8.959
4,33,8.96
8,-13,8.961
11,-81,8.962
12,-149,8.963
11,-187,8.964
7,-190,8.965
4,-176,8.966
8,-152,8.967
15,-110,8.968
16,-54,8.969
11,-14,8.97
6,0,8.971
10,14,8.972
17,39,8.973
19,60,8.974
17,60,8.975
10,51,8.976
0,49,8.977
-10,59,8.978
-15,68,8.979
-11,75,8.98
-9,75,8.981
-16,59,8.982
-22,32,8.983
-22,22,8.984
-16,34,8.985
-12,45,8.986
-15,39,8.987
-16,31,8.988
-11,35,8.989
-8,35,8.99
-8,12,8.991
-8,-25,8.992
-5,-53,8.993
-2,-75,8.994
-3,-95,8.995
-3,-106,8.996
-1,-98,8.997
3,-69,8.998
5,-34,8.999
7,-2,9.0
10,26,9.001
14,42,9.002
19,41,9.003
26,31,9.004
30,27,9.005
32,28,9.006
30,25,9.007
25,15,9.008
17,10,9.009
3,8,9.01
-9,4,9.011
-17,1,9.012
-18,0,9.013
-17,-3,9.014
-11,-6,9.015
-4,-7,9.016
-3,-8,9.017
-14,-8,9.018
-27,-8,9.019
-34,-3,9.02
-35,6,9.021
-39,14,9.022
-49,20,9.023
-60,25,9.024
-68,27,9.025
-67,23,9.026
-48,12,9.027
-10,2,9.028
35,-3,9.029
75,-4,9.03
107,-1,9.031
132,16,9.032
140,54,9.033
126,102,9.034
108,126,9.035
107,103,9.036
122,44,9.037
137,-13,9.038
135,-66,9.039
112,-130,9.04
73,-198,9.041
21,-227,9.042
-27,-198,9.043
-54,-146,9.044
-57,-101,9.045
-60,-51,9.046
-75,14,9.047
-95,61,9.048
-98,63,9.049
-89,43,9.05
-84,30,9.051
-82,14,9.052
-72,-11,9.053
-54,-26,9.054
-45,-4,9.055
-55,23,9.056
-67,20,9.057
-62,7,9.058
-44,17,9.059
-33,38,9.06
-34,42,9.061
-35,35,9.062
-21,45,9.063
8,63,9.064
38,69,9.065
60,69,9.066
71,66,9.067
71,53,9.068
56,27,9.069
28,13,9.07
5,29,9.071
5,46,9.072
21,41,9.073
24,11,9.074
10,-14,9.075
-1,-26,9.076
-4,-31,9.077
-5,-40,9.078
4,-63,9.079
10,-97,9.08
2,-119,9.081
-12,-116,9.082
-44,-94,9.083
-81,-64,9.084
-130,-31,9.085
-165,5,9.086
-153,33,9.087
-131,43,9.088
-80,43,9.089
-26,44,9.09
37,43,9.091
109,37,9.092
207,33,9.093
289,30,9.094
268,28,9.095
173,25,9.096
70,17,9.097
11,10,9.098
11,10,9.099
49,10,9.1
103,8,9.101
151,6,9.102
171,4,9.103
142,2,9.104
61,-3,9.105
-48,-10,9.106
-144,-18,9.107
-208,-22,9.108
-227,-16,9.109
-207,-8,9.11
-166,1,9.111
-130,9,9.112
-99,11,9.113
-45,11,9.114
39,0,9.115
114,-11,9.116
139,-16,9.117
122,-10,9.118
103,-4,9.119
108,0,9.12
135,8,9.121
158,19,9.122
153,22,9.123
98,13,9.124
11,1,9.125
-60,-6,9.126
-87,-12,9.127
-77,-19,9.128
-62,-21,9.129
-59,-18,9.13
-66,-15,9.131
-74,-15,9.132
-79,-10,9.133
-80,-1,9.134
-76,10,9.135
-74,13,9.136
-74,7,9.137
-66,-1,9.138
-47,0,9.139
-28,7,9.14
-20,17,9.141
-17,20,9.142
-8,11,9.143
5,-1,9.144
15,-5,9.145
12,0,9.146
7,3,9.147
10,0,9.148
14,-5,9.149
11,-3,9.15
1,1,9.151
2,2,9.152
14,-2,9.153
23,-9,9.154
19,-11,9.155
6,-10,9.156
0,-10,9.157
1,-12,9.158
2,-10,9.159
4,-7,9.16
5,-1,9.161
5,10,9.162
-1,26,9.163
-9,37,9.164
-13,31,9.165
-13,6,9.166
-10,-22,9.167
-4,-37,9.168
8,-39,9.169
20,-37,9.17
29,-33,9.171
34,-22,9.172
32,-2,9.173
8,23,9.174
-35,64,9.175
-75,132,9.176
-78,216,9.177
-43,286,9.178
7,292,9.179
59,204,9.18
122,35,9.181
202,-152,9.182
278,-290,9.183
305,-360,9.184
249,-382,9.185
118,-359,9.186
-32,-279,9.187
-133,-156,9.188
-160,-39,9.189
-152,29,9.19
-144,54,9.191
-124,54,9.192
-74,40,9.193
-3,17,9.194
41,9,9.195
51,24,9.196
43,40,9.197
32,46,9.198
15,56,9.199
-7,83,9.2
-38,122,9.201
-87,160,9.202
-143,180,9.203
-163,158,9.204
-116,94,9.205
-30,30,9.206
40,-3,9.207
85,-15,9.208
133,-25,9.209
182,-17,9.21
190,9,9.211
132,17,9.212
53,-14,9.213
7,-51,9.214
9,-59,9.215
8,-68,9.216
-4,-81,9.217
-25,-76,9.218
-69,-17,9.219
-102,26,9.22
-101,17,9.221
-87,5,9.222
-36,-16,9.223
11,-35,9.224
49,-48,9.225
68,-56,9.226
22,-48,9.227
-13,-43,9.228
-21,-48,9.229
-31,-49,9.23
-48,-33,9.231
-62,-15,9.232
-69,5,9.233
-68,25,9.234
-49,54,9.235
-60,77,9.236
-82,72,9.237
-94,58,9.238
-100,55,9.239
-100,67,9.24
-72,74,9.241
-8,65,9.242
73,48,9.243
138,28,9.244
178,14,9.245
191,18,9.246
179,46,9.247
145,88,9.248
103,110,9.249
64,79,9.25
36,-11,9.251
18,-105,9.252
4,-142,9.253
-19,-128,9.254
-37,-104,9.255
-29,-80,9.256
-3,-62,9.257
1,-46,9.258
-27,-34,9.259
-56,-20,9.26
-54,-4,9.261
-37,16,9.262
-27,44,9.263
-27,62,9.264
-25,46,9.265
-27,29,9.266
-32,15,9.267
-35,9,9.268
-32,29,9.269
-32,54,9.27
-53,96,9.271
-95,128,9.272
-131,124,9.273
-130,124,9.274
-73,139,9.275
16,113,9.276
103,-9,9.277
189,-197,9.278
274,-352,9.279
325,-398,9.28
297,-363,9.281
193,-301,9.282
77,-192,9.283
-2,20,9.284
-48,291,9.285
-79,475,9.286
-111,489,9.287
-150,395,9.288
-193,257,9.289
-216,51,9.29
-194,-223,9.291
-145,-442,9.292
-103,-493,9.293
-68,-424,9.294
-9,-352,9.295
81,-305,9.296
172,-231,9.297
229,-121,9.298
252,-25,9.299
256,46,9.3
233,118,9.301
165,181,9.302
65,196,9.303
-23,177,9.304
-64,168,9.305
-76,169,9.306
-97,149,9.307
-123,110,9.308
-125,86,9.309
-93,83,9.31
-60,75,9.311
-55,58,9.312
-66,48,9.313
-70,47,9.314
-58,43,9.315
-43,35,9.316
-36,24,9.317
-37,18,9.318
-45,15,9.319
-49,14,9.32
-42,9,9.321
-23,-1,9.322
-6,-10,9.323
1,-9,9.324
10,-3,9.325
36,-7,9.326
78,-14,9.327
99,-11,9.328
77,-1,9.329
36,-3,9.33
24,-17,9.331
46,-24,9.332
62,-16,9.333
44,-12,9.334
11,-20,9.335
-7,-29,9.336
-11,-34,9.337
-14,-31,9.338
-13,-28,9.339
-6,-25,9.34
-10,-17,9.341
-33,-9,9.342
-60,-5,9.343
-69,-2,9.344
-63,3,9.345
-44,8,9.346
-12,8,9.347
21,3,9.348
13,-2,9.349
-38,-3,9.35
-78,-4,9.351
-53,-5,9.352
15,-4,9.353
86,-7,9.354
132,-10,9.355
152,-13,9.356
152,-14,9.357
128,-15,9.358
93,-16,9.359
59,-17,9.36
23,-17,9.361
-23,-15,9.362
-68,-9,9.363
-102,-2,9.364
-118,6,9.365
-117,12,9.366
-96,12,9.367
-56,11,9.368
-10,9,9.369
33,8,9.37
57,12,9.371
35,15,9.372
-30,15,9.373
-97,13,9.374
-93,4,9.375
-14,-3,9.376
79,-8,9.377
149,-11,9.378
205,-13,9.379
239,-13,9.38
204,-7,9.381
99,-4,9.382
0,-12,9.383
-39,-20,9.384
-45,-18,9.385
-64,-8,9.386
-80,1,9.387
-63,9,9.388
-32,20,9.389
-24,33,9.39
-38,49,9.391
-48,70,9.392
-49,102,9.393
-47,129,9.394
-35,120,9.395
-21,51,9.396
-25,-57,9.397
-45,-146,9.398
-51,-180,9.399
-30,-174,9.4
-14,-160,9.401
-18,-140,9.402
-25,-100,9.403
-12,-51,9.404
9,-10,9.405
23,23,9.406
34,54,9.407
37,70,9.408
18,64,9.409
-16,58,9.41
-28,71,9.411
-16,84,9.412
-12,77,9.413
-25,46,9.414
-17,22,9.415
1,9,9.416
48,-1,9.417
88,-8,9.418
105,-6,9.419
112,2,9.42
86,8,9.421
42,6,9.422
-53,1,9.423
-121,7,9.424
-107,41,9.425
-84,106,9.426
-33,158,9.427
31,139,9.428
133,36,9.429
204,-101,9.43
182,-203,9.431
142,-241,9.432
49,-222,9.433
-29,-158,9.434
-46,-79,9.435
-40,-14,9.436
-37,6,9.437
-26,25,9.438
4,37,9.439
39,46,9.44
50,42,9.441
30,36,9.442
0,26,9.443
-18,15,9.444
-23,4,9.445
-27,1,9.446
-40,25,9.447
-63,43,9.448
-84,42,9.449
-94,41,9.45
-103,40,9.451
-126,43,9.452
-154,61,9.453
-161,85,9.454
-126,108,9.455
-64,84,9.456
-1,15,9.457
51,-17,9.458
102,34,9.459
155,116,9.46
191,152,9.461
186,126,9.462
141,66,9.463
87,-31,9.464
50,-157,9.465
28,-262,9.466
3,-307,9.467
-28,-300,9.468
-48,-267,9.469
-49,-205,9.47
-39,-133,9.471
-25,-84,9.472
-9,-49,9.473
5,15,9.474
10,97,9.475
0,132,9.476
-16,103,9.477
-30,88,9.478
-41,131,9.479
-47,198,9.48
-54,232,9.481
-67,209,9.482
-75,130,9.483
-64,27,9.484
-38,-46,9.485
-4,-56,9.486
37,-33,9.487
83,-21,9.488
114,-32,9.489
96,-61,9.49
42,-101,9.491
-3,-126,9.492
-9,-111,9.493
4,-73,9.494
10,-46,9.495
11,-21,9.496
22,36,9.497
43,113,9.498
55,153,9.499
53,132,9.5
39,64,9.501
15,-15,9.502
-9,-58,9.503
-12,-43,9.504
4,-23,9.505
10,-59,9.506
-6,-101,9.507
-18,-56,9.508
-13,43,9.509
-11,83,9.51
-21,45,9.511
-25,5,9.512
-16,-24,9.513
-9,-105,9.514
-17,-187,9.515
-33,-149,9.516
-43,-3,9.517
-45,100,9.518
-36,70,9.519
-14,-17,9.52
12,-66,9.521
24,-55,9.522
26,31,9.523
36,217,9.524
52,423,9.525
51,459,9.526
28,229,9.527
-1,-112,9.528
-23,-324,9.529
-40,-353,9.53
-47,-318,9.531
-42,-276,9.532
-32,-185,9.533
-25,-52,9.534
-15,6,9.535
6,-46,9.536
18,-77,9.537
4,37,9.538
-21,242,9.539
-24,384,9.54
0,342,9.541
23,85,9.542
34,-274,9.543
51,-464,9.544
77,-283,9.545
92,126,9.546
73,389,9.547
34,317,9.548
12,79,9.549
39,-41,9.55
99,40,9.551
139,169,9.552
123,161,9.553
71,-36,9.554
34,-266,9.555
17,-346,9.556
-9,-263,9.557
-47,-126,9.558
-55,-15,9.559
-26,71,9.56
-11,116,9.561
-36,103,9.562
-64,73,9.563
-63,76,9.564
-54,82,9.565
-65,55,9.566
-74,30,9.567
-59,48,9.568
-44,61,9.569
-47,24,9.57
-49,-10,9.571
-30,21,9.572
-16,86,9.573
-26,100,9.574
-37,42,9.575
-24,-44,9.576
1,-107,9.577
12,-119,9.578
18,-80,9.579
35,-26,9.58
50,2,9.581
43,-13,9.582
25,-96,9.583
14,-245,9.584
7,-328,9.585
-3,-136,9.586
-12,288,9.587
-11,541,9.588
-7,305,9.589
-4,-206,9.59
-1,-489,9.591
2,-374,9.592
-4,-132,9.593
-18,12,9.594
-23,51,9.595
-15,82,9.596
1,120,9.597
19,143,9.598
35,145,9.599
41,156,9.6
30,228,9.601
15,363,9.602
12,415,9.603
19,215,9.604
19,-143,9.605
4,-356,9.606
-8,-302,9.607
-13,-181,9.608
-22,-159,9.609
-41,-128,9.61
-58,36,9.611
-55,223,9.612
-31,238,9.613
11,25,9.614
62,-267,9.615
98,-438,9.616
101,-382,9.617
78,-169,9.618
47,-3,9.619
15,12,9.62
-32,-18,9.621
-86,21,9.622
-112,84,9.623
-85,89,9.624
-23,90,9.625
33,151,9.626
68,189,9.627
110,101,9.628
183,-61,9.629
252,-180,9.63
251,-216,9.631
161,-128,9.632
63,114,9.633
17,448,9.634
12,593,9.635
-20,381,9.636
-89,5,9.637
-129,-197,9.638
-114,-109,9.639
-90,119,9.64
-95,263,9.641
-99,183,9.642
-80,-85,9.643
-74,-325,9.644
-115,-335,9.645
-175,-156,9.646
-201,-11,9.647
-183,4,9.648
-141,-4,9.649
-87,36,9.65
-12,62,9.651
86,20,9.652
188,-35,9.653
265,-55,9.654
275,-46,9.655
213,-11,9.656
137,76,9.657
104,182,9.658
98,177,9.659
52,-10,9.66
-47,-265,9.661
-134,-380,9.662
-159,-276,9.663
-161,-84,9.664
-191,5,9.665
-219,-47,9.666
-207,-120,9.667
-177,-109,9.668
-171,-41,9.669
-155,15,9.67
-60,55,9.671
93,100,9.672
198,130,9.673
224,128,9.674
233,131,9.675
270,172,9.676
299,195,9.677
276,114,9.678
221,-53,9.679
170,-173,9.68
115,-150,9.681
42,-52,9.682
-7,-10,9.683
-5,-50,9.684
22,-78,9.685
27,-31,9.686
-8,27,9.687
-85,22,9.688
-186,-18,9.689
-248,-25,9.69
-216,-3,9.691
-132,-4,9.692
-90,-20,9.693
-101,-9,9.694
-94,39,9.695
-49,72,9.696
-31,60,9.697
-73,33,9.698
-104,9,9.699
-74,-42,9.7
-27,-156,9.701
-14,-293,9.702
-6,-325,9.703
34,-146,9.704
76,148,9.705
82,270,9.706
84,67,9.707
154,-211,9.708
286,-189,9.709
389,101,9.71
365,233,9.711
211,35,9.712
30,-128,9.713
-77,75,9.714
-71,449,9.715
-27,534,9.716
-33,300,9.717
-79,144,9.718
-101,233,9.719
-90,299,9.72
-91,128,9.721
-106,-132,9.722
-103,-253,9.723
-83,-218,9.724
-76,-120,9.725
-78,-25,9.726
-64,-7,9.727
-41,-97,9.728
-39,-179,9.729
-41,-121,9.73
-11,3,9.731
39,36,9.732
52,-10,9.733
-9,-79,9.734
-106,-213,9.735
-175,-392,9.736
-172,-361,9.737
-104,3,9.738
-8,359,9.739
78,333,9.74
130,90,9.741
145,28,9.742
124,158,9.743
73,193,9.744
17,83,9.745
-7,-9,9.746
5,-80,9.747
20,-210,9.748
10,-300,9.749
-4,-214,9.75
7,-65,9.751
28,-33,9.752
31,-72,9.753
19,-39,9.754
