Deltoid,Bicep,Time
19.0,56.0,0.0
19.0,46.0,0.001
15.0,39.0,0.002
17.0,34.0,0.003
21.0,27.0,0.004
15.0,22.0,0.005
-7.0,17.0,0.006
-24.0,3.0,0.007
-25.0,-28.0,0.008
-21.0,-57.0,0.009
-22.0,-54.0,0.01
-21.0,-17.0,0.011
-14.0,22.0,0.012
-5.0,33.0,0.013
-8.0,12.0,0.014
-12.0,-18.0,0.015
-3.0,-38.0,0.016
10.0,-39.0,0.017
13.0,-29.0,0.018
7.0,-9.0,0.019
4.0,16.0,0.02
7.0,36.0,0.021
11.0,47.0,0.022
14.0,45.0,0.023
19.0,38.0,0.024
16.0,35.0,0.025
4.0,33.0,0.026
-6.0,28.0,0.027
-9.0,21.0,0.028
-9.0,17.0,0.029
-14.0,11.0,0.03
-15.0,-7.0,0.031
-6.0,-37.0,0.032
3.0,-67.0,0.033
3.0,-75.0,0.034
-1.0,-52.0,0.035
1.0,-12.0,0.036
6.0,11.0,0.037
3.0,7.0,0.038
-5.0,-4.0,0.039
-11.0,15.0,0.04
-8.0,60.0,0.041
-2.0,85.0,0.042
5.0,61.0,0.043
13.0,16.0,0.044
17.0,-9.0,0.045
15.0,-17.0,0.046
9.0,-36.0,0.047
5.0,-59.0,0.048
1.0,-63.0,0.049
0.0,-40.0,0.05
1.0,-14.0,0.051
6.0,-5.0,0.052
6.0,-10.0,0.053
2.0,-19.0,0.054
3.0,-24.0,0.055
11.0,-15.0,0.056
19.0,0.0,0.057
18.0,6.0,0.058
11.0,-3.0,0.059
0.0,-17.0,0.06
-10.0,-29.0,0.061
-13.0,-42.0,0.062
1.0,-61.0,0.063
19.0,-65.0,0.064
24.0,-41.0,0.065
14.0,-8.0,0.066
4.0,8.0,0.067
3.0,7.0,0.068
4.0,11.0,0.069
2.0,26.0,0.07
2.0,37.0,0.071
5.0,37.0,0.072
6.0,34.0,0.073
0.0,35.0,0.074
-5.0,37.0,0.075
-6.0,35.0,0.076
-5.0,36.0,0.077
-7.0,38.0,0.078
-11.0,38.0,0.079
-12.0,29.0,0.08
-8.0,17.0,0.081
-3.0,16.0,0.082
4.0,25.0,0.083
14.0,35.0,0.084
15.0,48.0,0.085
7.0,58.0,0.086
2.0,54.0,0.087
6.0,29.0,0.088
9.0,0.0,0.089
8.0,-18.0,0.09
8.0,-24.0,0.091
13.0,-25.0,0.092
13.0,-21.0,0.093
5.0,-18.0,0.094
-3.0,-23.0,0.095
-4.0,-45.0,0.096
-3.0,-67.0,0.097
-6.0,-75.0,0.098
-9.0,-68.0,0.099
-10.0,-61.0,0.1
-6.0,-68.0,0.101
-1.0,-70.0,0.102
3.0,-52.0,0.103
7.0,-20.0,0.104
8.0,17.0,0.105
4.0,52.0,0.106
3.0,73.0,0.107
4.0,75.0,0.108
0.0,66.0,0.109
-8.0,48.0,0.11
-15.0,15.0,0.111
-11.0,-28.0,0.112
-2.0,-60.0,0.113
5.0,-64.0,0.114
9.0,-51.0,0.115
14.0,-44.0,0.116
18.0,-38.0,0.117
18.0,-26.0,0.118
13.0,-10.0,0.119
7.0,-5.0,0.12
1.0,-5.0,0.121
-1.0,13.0,0.122
2.0,43.0,0.123
12.0,58.0,0.124
24.0,58.0,0.125
31.0,59.0,0.126
39.0,62.0,0.127
39.0,56.0,0.128
26.0,40.0,0.129
3.0,27.0,0.13
-9.0,21.0,0.131
-4.0,13.0,0.132
-1.0,3.0,0.133
-14.0,-7.0,0.134
-32.0,-11.0,0.135
-41.0,-13.0,0.136
-35.0,-8.0,0.137
-23.0,-1.0,0.138
-14.0,5.0,0.139
-11.0,9.0,0.14
-11.0,7.0,0.141
-6.0,7.0,0.142
8.0,9.0,0.143
24.0,17.0,0.144
33.0,34.0,0.145
29.0,47.0,0.146
17.0,31.0,0.147
0.0,-18.0,0.148
-13.0,-70.0,0.149
-14.0,-103.0,0.15
-8.0,-110.0,0.151
-6.0,-98.0,0.152
-15.0,-73.0,0.153
-23.0,-51.0,0.154
-25.0,-44.0,0.155
-25.0,-46.0,0.156
-21.0,-42.0,0.157
-11.0,-29.0,0.158
0.0,-8.0,0.159
5.0,18.0,0.16
3.0,37.0,0.161
11.0,38.0,0.162
27.0,21.0,0.163
39.0,9.0,0.164
34.0,18.0,0.165
29.0,33.0,0.166
27.0,35.0,0.167
24.0,31.0,0.168
12.0,30.0,0.169
-1.0,34.0,0.17
-7.0,35.0,0.171
-7.0,35.0,0.172
-9.0,38.0,0.173
-9.0,38.0,0.174
-5.0,31.0,0.175
-1.0,15.0,0.176
1.0,0.0,0.177
-4.0,-119.0,0.178
1.0,-52.0,0.179
5.0,6.0,0.18
6.0,33.0,0.181
8.0,37.0,0.182
17.0,35.0,0.183
22.0,29.0,0.184
21.0,19.0,0.185
14.0,11.0,0.186
10.0,10.0,0.187
13.0,10.0,0.188
14.0,7.0,0.189
11.0,6.0,0.19
10.0,15.0,0.191
10.0,23.0,0.192
9.0,26.0,0.193
7.0,29.0,0.194
4.0,34.0,0.195
2.0,38.0,0.196
0.0,40.0,0.197
-3.0,37.0,0.198
-4.0,38.0,0.199
-5.0,37.0,0.2
-7.0,35.0,0.201
-7.0,39.0,0.202
1.0,50.0,0.203
10.0,55.0,0.204
9.0,49.0,0.205
7.0,36.0,0.206
12.0,22.0,0.207
18.0,9.0,0.208
18.0,-5.0,0.209
13.0,-19.0,0.21
10.0,-35.0,0.211
5.0,-52.0,0.212
-4.0,-71.0,0.213
-15.0,-80.0,0.214
-16.0,-70.0,0.215
-7.0,-48.0,0.216
0.0,-30.0,0.217
5.0,-23.0,0.218
0.0,-17.0,0.219
-4.0,-11.0,0.22
-2.0,-3.0,0.221
1.0,4.0,0.222
7.0,10.0,0.223
13.0,16.0,0.224
15.0,16.0,0.225
16.0,19.0,0.226
7.0,29.0,0.227
1.0,37.0,0.228
3.0,34.0,0.229
6.0,27.0,0.23
6.0,13.0,0.231
7.0,0.0,0.232
9.0,-6.0,0.233
12.0,-15.0,0.234
7.0,-28.0,0.235
3.0,-41.0,0.236
1.0,-54.0,0.237
5.0,-64.0,0.238
0.0,-49.0,0.239
-3.0,-22.0,0.24
-1.0,-6.0,0.241
1.0,0.0,0.242
7.0,6.0,0.243
12.0,19.0,0.244
14.0,28.0,0.245
15.0,28.0,0.246
7.0,26.0,0.247
1.0,32.0,0.248
3.0,39.0,0.249
6.0,45.0,0.25
6.0,49.0,0.251
7.0,54.0,0.252
9.0,52.0,0.253
11.0,42.0,0.254
7.0,34.0,0.255
3.0,33.0,0.256
1.0,28.0,0.257
-1.0,7.0,0.258
-7.0,-17.0,0.259
-11.0,-39.0,0.26
-11.0,-61.0,0.261
-9.0,-80.0,0.262
-4.0,-86.0,0.263
3.0,-74.0,0.264
7.0,-47.0,0.265
4.0,-21.0,0.266
2.0,-6.0,0.267
10.0,-4.0,0.268
17.0,-5.0,0.269
16.0,-4.0,0.27
9.0,6.0,0.271
5.0,21.0,0.272
10.0,33.0,0.273
12.0,31.0,0.274
12.0,19.0,0.275
18.0,10.0,0.276
29.0,13.0,0.277
39.0,12.0,0.278
38.0,7.0,0.279
15.0,0.0,0.28
-20.0,-9.0,0.281
-48.0,-19.0,0.282
-50.0,-30.0,0.283
-35.0,-38.0,0.284
-29.0,-33.0,0.285
-39.0,-26.0,0.286
-39.0,-14.0,0.287
-9.0,-4.0,0.288
32.0,-1.0,0.289
47.0,2.0,0.29
26.0,9.0,0.291
-2.0,17.0,0.292
-7.0,25.0,0.293
7.0,28.0,0.294
16.0,14.0,0.295
10.0,-2.0,0.296
7.0,-26.0,0.297
7.0,-47.0,0.298
-7.0,-53.0,0.299
-18.0,-55.0,0.3
-14.0,-50.0,0.301
-7.0,-32.0,0.302
6.0,-14.0,0.303
18.0,-6.0,0.304
19.0,0.0,0.305
23.0,7.0,0.306
23.0,14.0,0.307
19.0,18.0,0.308
16.0,24.0,0.309
12.0,30.0,0.31
9.0,29.0,0.311
7.0,18.0,0.312
11.0,17.0,0.313
12.0,34.0,0.314
6.0,57.0,0.315
-2.0,69.0,0.316
-9.0,67.0,0.317
7.0,53.0,0.318
-2.0,36.0,0.319
-8.0,18.0,0.32
-6.0,-2.0,0.321
-2.0,-17.0,0.322
6.0,-15.0,0.323
13.0,-14.0,0.324
14.0,-15.0,0.325
16.0,-16.0,0.326
16.0,-17.0,0.327
14.0,-16.0,0.328
12.0,-6.0,0.329
10.0,4.0,0.33
8.0,13.0,0.331
7.0,21.0,0.332
9.0,25.0,0.333
10.0,28.0,0.334
6.0,28.0,0.335
1.0,28.0,0.336
-3.0,27.0,0.337
-6.0,24.0,0.338
-8.0,16.0,0.339
-12.0,2.0,0.34
-13.0,-18.0,0.341
-9.0,-41.0,0.342
0.0,-59.0,0.343
12.0,-66.0,0.344
17.0,-61.0,0.345
16.0,-49.0,0.346
14.0,-38.0,0.347
12.0,-31.0,0.348
8.0,-28.0,0.349
0.0,-25.0,0.35
-6.0,-13.0,0.351
-5.0,2.0,0.352
-3.0,6.0,0.353
-4.0,-5.0,0.354
-5.0,-23.0,0.355
-6.0,-28.0,0.356
-5.0,-16.0,0.357
-7.0,-3.0,0.358
-9.0,10.0,0.359
-13.0,24.0,0.36
-12.0,32.0,0.361
-5.0,35.0,0.362
6.0,34.0,0.363
13.0,31.0,0.364
12.0,24.0,0.365
8.0,8.0,0.366
6.0,-7.0,0.367
9.0,-11.0,0.368
12.0,-6.0,0.369
13.0,-4.0,0.37
14.0,-10.0,0.371
13.0,-14.0,0.372
9.0,-10.0,0.373
2.0,1.0,0.374
-1.0,7.0,0.375
-2.0,6.0,0.376
-1.0,6.0,0.377
-6.0,10.0,0.378
-8.0,15.0,0.379
-12.0,20.0,0.38
-12.0,23.0,0.381
-8.0,26.0,0.382
-1.0,27.0,0.383
6.0,29.0,0.384
10.0,30.0,0.385
14.0,29.0,0.386
11.0,18.0,0.387
10.0,7.0,0.388
10.0,0.0,0.389
9.0,-8.0,0.39
9.0,-21.0,0.391
8.0,-35.0,0.392
6.0,-49.0,0.393
3.0,-61.0,0.394
-2.0,-67.0,0.395
-5.0,-69.0,0.396
-3.0,-59.0,0.397
-6.0,-46.0,0.398
-8.0,-32.0,0.399
-11.0,-33.0,0.4
-11.0,-37.0,0.401
-8.0,-24.0,0.402
-1.0,1.0,0.403
6.0,29.0,0.404
10.0,58.0,0.405
13.0,81.0,0.406
11.0,87.0,0.407
10.0,78.0,0.408
10.0,69.0,0.409
9.0,64.0,0.41
9.0,48.0,0.411
8.0,28.0,0.412
6.0,16.0,0.413
3.0,16.0,0.414
-2.0,12.0,0.415
-5.0,-1.0,0.416
-3.0,-8.0,0.417
-1.0,-6.0,0.418
-1.0,-7.0,0.419
-7.0,-24.0,0.42
-11.0,-46.0,0.421
-7.0,-56.0,0.422
5.0,-63.0,0.423
16.0,-72.0,0.424
17.0,-75.0,0.425
9.0,-70.0,0.426
3.0,-62.0,0.427
5.0,-54.0,0.428
10.0,-44.0,0.429
9.0,-26.0,0.43
10.0,-7.0,0.431
11.0,12.0,0.432
11.0,32.0,0.433
9.0,45.0,0.434
4.0,46.0,0.435
2.0,39.0,0.436
0.0,34.0,0.437
-2.0,27.0,0.438
-2.0,18.0,0.439
-3.0,9.0,0.44
-7.0,1.0,0.441
-8.0,-5.0,0.442
-1.0,-3.0,0.443
5.0,2.0,0.444
7.0,19.0,0.445
9.0,30.0,0.446
11.0,18.0,0.447
12.0,9.0,0.448
10.0,10.0,0.449
8.0,12.0,0.45
6.0,12.0,0.451
4.0,11.0,0.452
2.0,11.0,0.453
0.0,9.0,0.454
-1.0,6.0,0.455
-4.0,3.0,0.456
-5.0,3.0,0.457
-6.0,1.0,0.458
-8.0,1.0,0.459
-8.0,3.0,0.46
-7.0,5.0,0.461
-6.0,9.0,0.462
-3.0,10.0,0.463
4.0,10.0,0.464
7.0,13.0,0.465
3.0,15.0,0.466
1.0,11.0,0.467
4.0,8.0,0.468
8.0,9.0,0.469
9.0,7.0,0.47
6.0,-1.0,0.471
4.0,-9.0,0.472
2.0,-11.0,0.473
0.0,-13.0,0.474
-1.0,-19.0,0.475
2.0,-22.0,0.476
6.0,-19.0,0.477
6.0,-18.0,0.478
0.0,-26.0,0.479
-7.0,-29.0,0.48
-11.0,-23.0,0.481
-8.0,-12.0,0.482
0.0,-7.0,0.483
7.0,1.0,0.484
9.0,22.0,0.485
6.0,38.0,0.486
4.0,37.0,0.487
9.0,25.0,0.488
11.0,24.0,0.489
9.0,33.0,0.49
5.0,28.0,0.491
5.0,3.0,0.492
5.0,-20.0,0.493
1.0,-28.0,0.494
-2.0,-35.0,0.495
-3.0,-54.0,0.496
-3.0,-75.0,0.497
-5.0,-85.0,0.498
-6.0,-76.0,0.499
-5.0,-60.0,0.5
-5.0,-45.0,0.501
-3.0,-24.0,0.502
2.0,-2.0,0.503
12.0,9.0,0.504
13.0,7.0,0.505
7.0,5.0,0.506
4.0,14.0,0.507
10.0,30.0,0.508
14.0,40.0,0.509
10.0,48.0,0.51
7.0,53.0,0.511
9.0,54.0,0.512
8.0,50.0,0.513
3.0,41.0,0.514
0.0,31.0,0.515
3.0,20.0,0.516
8.0,11.0,0.517
2.0,5.0,0.518
-5.0,0.0,0.519
-12.0,-7.0,0.52
-14.0,-23.0,0.521
-12.0,-31.0,0.522
-4.0,-26.0,0.523
8.0,-12.0,0.524
13.0,-3.0,0.525
9.0,-3.0,0.526
6.0,-2.0,0.527
12.0,4.0,0.528
16.0,11.0,0.529
13.0,13.0,0.53
6.0,9.0,0.531
7.0,2.0,0.532
7.0,-3.0,0.533
4.0,-6.0,0.534
1.0,-1.0,0.535
1.0,11.0,0.536
2.0,26.0,0.537
-2.0,31.0,0.538
-4.0,27.0,0.539
-4.0,24.0,0.54
-4.0,17.0,0.541
-5.0,6.0,0.542
-3.0,-16.0,0.543
2.0,-39.0,0.544
8.0,-55.0,0.545
7.0,-67.0,0.546
3.0,-76.0,0.547
1.0,-80.0,0.548
2.0,-71.0,0.549
3.0,-48.0,0.55
4.0,-21.0,0.551
4.0,0.0,0.552
4.0,13.0,0.553
3.0,24.0,0.554
4.0,40.0,0.555
3.0,56.0,0.556
2.0,63.0,0.557
-2.0,51.0,0.558
-5.0,33.0,0.559
-9.0,14.0,0.56
-13.0,-9.0,0.561
-11.0,-26.0,0.562
-2.0,-29.0,0.563
6.0,-15.0,0.564
6.0,4.0,0.565
2.0,15.0,0.566
3.0,13.0,0.567
10.0,6.0,0.568
12.0,0.0,0.569
12.0,0.0,0.57
12.0,7.0,0.571
12.0,18.0,0.572
6.0,25.0,0.573
0.0,24.0,0.574
0.0,18.0,0.575
3.0,11.0,0.576
3.0,7.0,0.577
0.0,9.0,0.578
-2.0,19.0,0.579
-4.0,26.0,0.58
-6.0,15.0,0.581
-7.0,-3.0,0.582
0.0,-11.0,0.583
6.0,-7.0,0.584
8.0,-1.0,0.585
9.0,-5.0,0.586
5.0,-14.0,0.587
2.0,-27.0,0.588
2.0,-44.0,0.589
1.0,-63.0,0.59
2.0,-72.0,0.591
3.0,-61.0,0.592
5.0,-35.0,0.593
7.0,-8.0,0.594
3.0,7.0,0.595
-1.0,15.0,0.596
-1.0,20.0,0.597
0.0,24.0,0.598
0.0,27.0,0.599
-5.0,26.0,0.6
-10.0,21.0,0.601
-10.0,20.0,0.602
-1.0,24.0,0.603
9.0,24.0,0.604
12.0,16.0,0.605
5.0,7.0,0.606
0.0,5.0,0.607
1.0,11.0,0.608
4.0,13.0,0.609
4.0,7.0,0.61
4.0,0.0,0.611
5.0,5.0,0.612
5.0,20.0,0.613
5.0,27.0,0.614
7.0,14.0,0.615
7.0,-7.0,0.616
4.0,-19.0,0.617
-2.0,-20.0,0.618
-4.0,-18.0,0.619
-6.0,-20.0,0.62
-6.0,-34.0,0.621
-4.0,-46.0,0.622
1.0,-48.0,0.623
6.0,-49.0,0.624
10.0,-45.0,0.625
12.0,-39.0,0.626
7.0,-28.0,0.627
4.0,-15.0,0.628
8.0,4.0,0.629
12.0,20.0,0.63
12.0,25.0,0.631
10.0,29.0,0.632
5.0,27.0,0.633
1.0,23.0,0.634
0.0,16.0,0.635
-2.0,12.0,0.636
-3.0,16.0,0.637
-6.0,19.0,0.638
-8.0,17.0,0.639
-7.0,14.0,0.64
-5.0,13.0,0.641
-4.0,19.0,0.642
1.0,28.0,0.643
10.0,34.0,0.644
14.0,38.0,0.645
8.0,38.0,0.646
1.0,30.0,0.647
1.0,20.0,0.648
7.0,14.0,0.649
8.0,12.0,0.65
5.0,3.0,0.651
2.0,-11.0,0.652
1.0,-28.0,0.653
-2.0,-37.0,0.654
-8.0,-43.0,0.655
-8.0,-49.0,0.656
-4.0,-53.0,0.657
-3.0,-53.0,0.658
-4.0,-51.0,0.659
-7.0,-42.0,0.66
-7.0,-25.0,0.661
-4.0,-3.0,0.662
4.0,9.0,0.663
11.0,6.0,0.664
12.0,4.0,0.665
8.0,7.0,0.666
4.0,3.0,0.667
5.0,-10.0,0.668
9.0,-18.0,0.669
10.0,-5.0,0.67
12.0,19.0,0.671
12.0,30.0,0.672
9.0,26.0,0.673
8.0,18.0,0.674
10.0,13.0,0.675
12.0,9.0,0.676
8.0,4.0,0.677
-1.0,-1.0,0.678
-6.0,-8.0,0.679
-6.0,-19.0,0.68
-3.0,-28.0,0.681
7.0,-25.0,0.682
29.0,-17.0,0.683
54.0,-17.0,0.684
60.0,-22.0,0.685
40.0,-18.0,0.686
6.0,-4.0,0.687
-26.0,12.0,0.688
-56.0,18.0,0.689
-80.0,19.0,0.69
-83.0,18.0,0.691
-63.0,19.0,0.692
-38.0,20.0,0.693
-23.0,22.0,0.694
-12.0,17.0,0.695
8.0,12.0,0.696
24.0,11.0,0.697
27.0,10.0,0.698
25.0,8.0,0.699
23.0,5.0,0.7
23.0,1.0,0.701
22.0,0.0,0.702
29.0,1.0,0.703
41.0,0.0,0.704
41.0,0.0,0.705
20.0,0.0,0.706
0.0,1.0,0.707
0.0,0.0,0.708
13.0,-1.0,0.709
16.0,0.0,0.71
4.0,-1.0,0.711
-4.0,-5.0,0.712
-3.0,-8.0,0.713
3.0,-6.0,0.714
3.0,-3.0,0.715
-8.0,-1.0,0.716
-18.0,-1.0,0.717
-32.0,-4.0,0.718
-46.0,-3.0,0.719
-45.0,-2.0,0.72
-19.0,-4.0,0.721
23.0,-4.0,0.722
49.0,-3.0,0.723
43.0,-3.0,0.724
27.0,-3.0,0.725
26.0,-1.0,0.726
33.0,0.0,0.727
17.0,0.0,0.728
-26.0,-2.0,0.729
-63.0,-3.0,0.73
-59.0,-8.0,0.731
-29.0,-15.0,0.732
-2.0,-19.0,0.733
11.0,-15.0,0.734
17.0,-7.0,0.735
17.0,-5.0,0.736
6.0,-1.0,0.737
-15.0,6.0,0.738
-22.0,16.0,0.739
-2.0,20.0,0.74
27.0,12.0,0.741
31.0,9.0,0.742
16.0,8.0,0.743
10.0,7.0,0.744
21.0,3.0,0.745
30.0,0.0,0.746
24.0,0.0,0.747
11.0,0.0,0.748
2.0,0.0,0.749
-3.0,-2.0,0.75
-4.0,-4.0,0.751
2.0,-3.0,0.752
17.0,-4.0,0.753
25.0,-5.0,0.754
22.0,-5.0,0.755
17.0,-4.0,0.756
13.0,-2.0,0.757
6.0,-2.0,0.758
-2.0,-1.0,0.759
-9.0,0.0,0.76
-15.0,3.0,0.761
-18.0,7.0,0.762
-11.0,13.0,0.763
-4.0,17.0,0.764
0.0,15.0,0.765
5.0,11.0,0.766
12.0,5.0,0.767
19.0,0.0,0.768
26.0,-2.0,0.769
27.0,-4.0,0.77
8.0,-6.0,0.771
-11.0,-9.0,0.772
-27.0,-9.0,0.773
-39.0,-11.0,0.774
-36.0,-17.0,0.775
-30.0,-23.0,0.776
-15.0,-29.0,0.777
-4.0,-34.0,0.778
-17.0,-28.0,0.779
-27.0,-25.0,0.78
-25.0,-19.0,0.781
-16.0,-3.0,0.782
-1.0,14.0,0.783
22.0,20.0,0.784
46.0,19.0,0.785
56.0,21.0,0.786
52.0,24.0,0.787
51.0,18.0,0.788
59.0,10.0,0.789
69.0,5.0,0.79
59.0,-1.0,0.791
27.0,-15.0,0.792
-2.0,-28.0,0.793
-14.0,-30.0,0.794
-29.0,-28.0,0.795
-72.0,-30.0,0.796
-120.0,-31.0,0.797
-132.0,-26.0,0.798
-96.0,-15.0,0.799
-56.0,-6.0,0.8
-35.0,0.0,0.801
-10.0,10.0,0.802
34.0,16.0,0.803
68.0,16.0,0.804
69.0,21.0,0.805
54.0,29.0,0.806
46.0,32.0,0.807
41.0,26.0,0.808
35.0,18.0,0.809
37.0,17.0,0.81
41.0,15.0,0.811
23.0,17.0,0.812
-16.0,34.0,0.813
-43.0,59.0,0.814
-38.0,70.0,0.815
-19.0,52.0,0.816
-5.0,24.0,0.817
-1.0,-2.0,0.818
-1.0,-19.0,0.819
-5.0,-34.0,0.82
-9.0,-51.0,0.821
-4.0,-57.0,0.822
7.0,-52.0,0.823
17.0,-44.0,0.824
16.0,-37.0,0.825
11.0,-33.0,0.826
13.0,-30.0,0.827
17.0,-25.0,0.828
20.0,-16.0,0.829
21.0,-3.0,0.83
22.0,7.0,0.831
23.0,11.0,0.832
24.0,14.0,0.833
22.0,20.0,0.834
18.0,26.0,0.835
10.0,26.0,0.836
3.0,19.0,0.837
-1.0,9.0,0.838
-8.0,5.0,0.839
-19.0,5.0,0.84
-25.0,1.0,0.841
-20.0,-4.0,0.842
-10.0,-6.0,0.843
-5.0,-2.0,0.844
-8.0,5.0,0.845
-5.0,9.0,0.846
11.0,12.0,0.847
22.0,10.0,0.848
23.0,3.0,0.849
20.0,-3.0,0.85
22.0,-7.0,0.851
17.0,-9.0,0.852
-7.0,-10.0,0.853
-35.0,-6.0,0.854
-41.0,0.0,0.855
-24.0,1.0,0.856
-9.0,-1.0,0.857
-5.0,-3.0,0.858
3.0,0.0,0.859
31.0,5.0,0.86
62.0,0.0,0.861
73.0,-7.0,0.862
57.0,-10.0,0.863
22.0,-9.0,0.864
-21.0,-6.0,0.865
-59.0,2.0,0.866
-84.0,9.0,0.867
-94.0,8.0,0.868
-91.0,2.0,0.869
-71.0,1.0,0.87
-38.0,5.0,0.871
-20.0,6.0,0.872
-22.0,3.0,0.873
-14.0,1.0,0.874
21.0,3.0,0.875
57.0,7.0,0.876
61.0,10.0,0.877
36.0,16.0,0.878
21.0,22.0,0.879
22.0,20.0,0.88
24.0,10.0,0.881
21.0,6.0,0.882
20.0,11.0,0.883
24.0,12.0,0.884
25.0,5.0,0.885
20.0,-7.0,0.886
18.0,-20.0,0.887
17.0,-39.0,0.888
14.0,-57.0,0.889
9.0,-68.0,0.89
9.0,-65.0,0.891
11.0,-59.0,0.892
12.0,-54.0,0.893
15.0,-45.0,0.894
19.0,-29.0,0.895
19.0,-16.0,0.896
13.0,-7.0,0.897
0.0,0.0,0.898
-11.0,12.0,0.899
-21.0,21.0,0.9
-30.0,16.0,0.901
-30.0,12.0,0.902
-15.0,17.0,0.903
5.0,29.0,0.904
18.0,37.0,0.905
18.0,38.0,0.906
17.0,36.0,0.907
30.0,35.0,0.908
45.0,32.0,0.909
40.0,27.0,0.91
13.0,21.0,0.911
-11.0,13.0,0.912
-14.0,11.0,0.913
-9.0,13.0,0.914
-16.0,14.0,0.915
-17.0,8.0,0.916
4.0,3.0,0.917
32.0,-4.0,0.918
33.0,-9.0,0.919
0.0,-12.0,0.92
-33.0,-11.0,0.921
-50.0,0.0,0.922
-64.0,11.0,0.923
-72.0,12.0,0.924
-57.0,8.0,0.925
-24.0,-2.0,0.926
1.0,-13.0,0.927
3.0,-24.0,0.928
1.0,-28.0,0.929
16.0,-27.0,0.93
32.0,-22.0,0.931
32.0,-19.0,0.932
24.0,-17.0,0.933
22.0,-14.0,0.934
26.0,-7.0,0.935
21.0,3.0,0.936
10.0,15.0,0.937
1.0,27.0,0.938
0.0,39.0,0.939
0.0,44.0,0.94
1.0,24.0,0.941
6.0,4.0,0.942
20.0,-15.0,0.943
29.0,-28.0,0.944
21.0,-22.0,0.945
11.0,-17.0,0.946
0.0,-15.0,0.947
-6.0,-13.0,0.948
7.0,-9.0,0.949
17.0,-5.0,0.95
13.0,-7.0,0.951
11.0,-10.0,0.952
17.0,-10.0,0.953
21.0,-11.0,0.954
19.0,-11.0,0.955
18.0,-9.0,0.956
26.0,-2.0,0.957
35.0,4.0,0.958
40.0,9.0,0.959
31.0,10.0,0.96
7.0,8.0,0.961
-24.0,9.0,0.962
-56.0,11.0,0.963
-80.0,13.0,0.964
-90.0,14.0,0.965
-80.0,12.0,0.966
-48.0,7.0,0.967
-3.0,-1.0,0.968
35.0,-11.0,0.969
57.0,-17.0,0.97
69.0,-17.0,0.971
71.0,-11.0,0.972
59.0,0.0,0.973
31.0,14.0,0.974
-9.0,18.0,0.975
-48.0,12.0,0.976
-69.0,12.0,0.977
-65.0,18.0,0.978
-42.0,22.0,0.979
-33.0,15.0,0.98
-44.0,3.0,0.981
-48.0,6.0,0.982
-24.0,11.0,0.983
7.0,4.0,0.984
13.0,-8.0,0.985
1.0,-12.0,0.986
5.0,-13.0,0.987
29.0,-22.0,0.988
48.0,-33.0,0.989
56.0,-28.0,0.99
68.0,-15.0,0.991
81.0,-12.0,0.992
69.0,-21.0,0.993
29.0,-28.0,0.994
-2.0,-33.0,0.995
-7.0,-37.0,0.996
-9.0,-35.0,0.997
-33.0,-25.0,0.998
-56.0,-11.0,0.999
-50.0,-4.0,1.0
-26.0,0.0,1.001
-16.0,12.0,1.002
-15.0,21.0,1.003
2.0,19.0,1.004
31.0,14.0,1.005
41.0,21.0,1.006
24.0,31.0,1.007
4.0,31.0,1.008
3.0,25.0,1.009
8.0,18.0,1.01
3.0,15.0,1.011
-1.0,10.0,1.012
5.0,7.0,1.013
18.0,8.0,1.014
26.0,8.0,1.015
27.0,0.0,1.016
23.0,-6.0,1.017
8.0,-6.0,1.018
-7.0,-4.0,1.019
-12.0,-1.0,1.02
-7.0,0.0,1.021
-7.0,4.0,1.022
-9.0,9.0,1.023
-3.0,10.0,1.024
2.0,12.0,1.025
-8.0,21.0,1.026
-18.0,28.0,1.027
-8.0,26.0,1.028
20.0,18.0,1.029
37.0,12.0,1.03
39.0,5.0,1.031
37.0,-5.0,1.032
27.0,-15.0,1.033
-7.0,-17.0,1.034
-51.0,-11.0,1.035
-63.0,0.0,1.036
-36.0,15.0,1.037
-6.0,24.0,1.038
-4.0,21.0,1.039
-22.0,0.0,1.04
-24.0,-36.0,1.041
-2.0,-63.0,1.042
22.0,-73.0,1.043
25.0,-67.0,1.044
18.0,-55.0,1.045
15.0,-41.0,1.046
21.0,-32.0,1.047
26.0,-27.0,1.048
24.0,-25.0,1.049
19.0,-21.0,1.05
11.0,-17.0,1.051
4.0,-12.0,1.052
4.0,-5.0,1.053
10.0,8.0,1.054
8.0,21.0,1.055
2.0,27.0,1.056
2.0,33.0,1.057
10.0,33.0,1.058
6.0,32.0,1.059
-16.0,27.0,1.06
-34.0,16.0,1.061
-19.0,11.0,1.062
16.0,8.0,1.063
36.0,8.0,1.064
31.0,6.0,1.065
21.0,3.0,1.066
17.0,1.0,1.067
7.0,-1.0,1.068
-8.0,1.0,1.069
-18.0,5.0,1.07
-7.0,8.0,1.071
11.0,4.0,1.072
19.0,-1.0,1.073
18.0,-3.0,1.074
18.0,0.0,1.075
13.0,2.0,1.076
-14.0,5.0,1.077
-64.0,2.0,1.078
-101.0,1.0,1.079
-97.0,2.0,1.08
-75.0,2.0,1.081
-63.0,2.0,1.082
-50.0,3.0,1.083
-12.0,6.0,1.084
31.0,9.0,1.085
43.0,10.0,1.086
28.0,3.0,1.087
30.0,-3.0,1.088
62.0,-2.0,1.089
85.0,1.0,1.09
77.0,0.0,1.091
55.0,1.0,1.092
47.0,8.0,1.093
48.0,15.0,1.094
35.0,12.0,1.095
6.0,5.0,1.096
-16.0,4.0,1.097
-16.0,7.0,1.098
3.0,9.0,1.099
16.0,9.0,1.1
17.0,9.0,1.101
21.0,7.0,1.102
29.0,-6.0,1.103
10.0,-20.0,1.104
-36.0,-25.0,1.105
-72.0,-17.0,1.106
-64.0,-9.0,1.107
-39.0,-10.0,1.108
-27.0,-13.0,1.109
-17.0,-12.0,1.11
16.0,-9.0,1.111
48.0,-10.0,1.112
44.0,-12.0,1.113
22.0,-10.0,1.114
24.0,-6.0,1.115
40.0,0.0,1.116
36.0,7.0,1.117
3.0,11.0,1.118
-28.0,10.0,1.119
-53.0,3.0,1.12
-78.0,-6.0,1.121
-85.0,-8.0,1.122
-46.0,-8.0,1.123
11.0,-5.0,1.124
34.0,0.0,1.125
17.0,4.0,1.126
11.0,3.0,1.127
29.0,-2.0,1.128
33.0,-5.0,1.129
15.0,-5.0,1.13
13.0,-3.0,1.131
44.0,-4.0,1.132
70.0,-5.0,1.133
65.0,1.0,1.134
45.0,5.0,1.135
29.0,0.0,1.136
9.0,-4.0,1.137
-26.0,-5.0,1.138
-53.0,1.0,1.139
-64.0,5.0,1.14
-69.0,0.0,1.141
-67.0,-2.0,1.142
-43.0,0.0,1.143
-13.0,2.0,1.144
-7.0,2.0,1.145
-20.0,0.0,1.146
-17.0,-2.0,1.147
9.0,-3.0,1.148
29.0,-4.0,1.149
38.0,-2.0,1.15
54.0,-1.0,1.151
67.0,0.0,1.152
51.0,4.0,1.153
20.0,9.0,1.154
14.0,12.0,1.155
34.0,14.0,1.156
34.0,16.0,1.157
-4.0,15.0,1.158
-36.0,6.0,1.159
-31.0,-3.0,1.16
-3.0,-11.0,1.161
17.0,-13.0,1.162
26.0,-19.0,1.163
31.0,-24.0,1.164
25.0,-23.0,1.165
-3.0,-18.0,1.166
-39.0,-16.0,1.167
-73.0,-11.0,1.168
-96.0,-1.0,1.169
-94.0,10.0,1.17
-58.0,11.0,1.171
-10.0,4.0,1.172
19.0,-1.0,1.173
28.0,2.0,1.174
35.0,4.0,1.175
43.0,3.0,1.176
37.0,4.0,1.177
19.0,6.0,1.178
5.0,6.0,1.179
0.0,0.0,1.18
-10.0,-8.0,1.181
-20.0,-9.0,1.182
-12.0,-4.0,1.183
20.0,1.0,1.184
49.0,6.0,1.185
63.0,12.0,1.186
64.0,26.0,1.187
55.0,44.0,1.188
35.0,55.0,1.189
18.0,44.0,1.19
19.0,11.0,1.191
27.0,-24.0,1.192
15.0,-40.0,1.193
-11.0,-39.0,1.194
-26.0,-33.0,1.195
-27.0,-30.0,1.196
-22.0,-27.0,1.197
-11.0,-26.0,1.198
18.0,-26.0,1.199
27.0,-25.0,1.2
-18.0,-23.0,1.201
-85.0,-21.0,1.202
-105.0,-16.0,1.203
-73.0,-10.0,1.204
-41.0,-4.0,1.205
-21.0,1.0,1.206
19.0,7.0,1.207
63.0,13.0,1.208
60.0,14.0,1.209
21.0,14.0,1.21
10.0,5.0,1.211
31.0,-1.0,1.212
37.0,3.0,1.213
22.0,7.0,1.214
22.0,11.0,1.215
38.0,14.0,1.216
35.0,12.0,1.217
7.0,10.0,1.218
-7.0,13.0,1.219
-11.0,15.0,1.22
-27.0,12.0,1.221
-50.0,8.0,1.222
-46.0,8.0,1.223
-18.0,19.0,1.224
-3.0,45.0,1.225
-2.0,75.0,1.226
12.0,84.0,1.227
33.0,58.0,1.228
34.0,7.0,1.229
19.0,-38.0,1.23
15.0,-60.0,1.231
22.0,-66.0,1.232
24.0,-66.0,1.233
17.0,-60.0,1.234
17.0,-47.0,1.235
21.0,-31.0,1.236
19.0,-16.0,1.237
5.0,4.0,1.238
-3.0,31.0,1.239
-1.0,43.0,1.24
1.0,29.0,1.241
-1.0,4.0,1.242
3.0,-8.0,1.243
11.0,-10.0,1.244
12.0,-12.0,1.245
-3.0,-15.0,1.246
-20.0,-17.0,1.247
-23.0,-18.0,1.248
-14.0,-21.0,1.249
-7.0,-20.0,1.25
-13.0,-11.0,1.251
-20.0,-6.0,1.252
-12.0,-10.0,1.253
3.0,-14.0,1.254
1.0,-10.0,1.255
-18.0,-3.0,1.256
-31.0,0.0,1.257
-27.0,3.0,1.258
-8.0,11.0,1.259
11.0,17.0,1.26
18.0,16.0,1.261
17.0,16.0,1.262
11.0,20.0,1.263
10.0,23.0,1.264
11.0,20.0,1.265
2.0,17.0,1.266
-14.0,13.0,1.267
-16.0,9.0,1.268
3.0,7.0,1.269
20.0,5.0,1.27
15.0,3.0,1.271
3.0,2.0,1.272
4.0,2.0,1.273
12.0,4.0,1.274
12.0,9.0,1.275
3.0,12.0,1.276
0.0,9.0,1.277
1.0,6.0,1.278
4.0,3.0,1.279
7.0,0.0,1.28
12.0,-7.0,1.281
15.0,-15.0,1.282
19.0,-19.0,1.283
22.0,-21.0,1.284
23.0,-16.0,1.285
11.0,0.0,1.286
-15.0,34.0,1.287
-44.0,71.0,1.288
-60.0,85.0,1.289
-53.0,66.0,1.29
-25.0,30.0,1.291
4.0,1.0,1.292
14.0,-21.0,1.293
5.0,-50.0,1.294
3.0,-80.0,1.295
15.0,-91.0,1.296
23.0,-83.0,1.297
12.0,-75.0,1.298
-1.0,-72.0,1.299
-5.0,-67.0,1.3
-5.0,-59.0,1.301
-9.0,-51.0,1.302
-4.0,-43.0,1.303
15.0,-34.0,1.304
34.0,-21.0,1.305
37.0,-9.0,1.306
35.0,0.0,1.307
40.0,12.0,1.308
49.0,34.0,1.309
49.0,52.0,1.31
45.0,50.0,1.311
47.0,48.0,1.312
51.0,44.0,1.313
45.0,39.0,1.314
26.0,35.0,1.315
-4.0,31.0,1.316
-33.0,29.0,1.317
-55.0,28.0,1.318
-59.0,26.0,1.319
-51.0,21.0,1.32
-45.0,14.0,1.321
-38.0,10.0,1.322
-24.0,10.0,1.323
-12.0,11.0,1.324
-12.0,11.0,1.325
-17.0,9.0,1.326
-12.0,4.0,1.327
1.0,0.0,1.328
6.0,-3.0,1.329
1.0,-5.0,1.33
2.0,-6.0,1.331
13.0,-7.0,1.332
22.0,-7.0,1.333
24.0,-8.0,1.334
19.0,-9.0,1.335
11.0,-7.0,1.336
3.0,-2.0,1.337
1.0,0.0,1.338
6.0,0.0,1.339
6.0,0.0,1.34
-3.0,-3.0,1.341
-15.0,-5.0,1.342
-12.0,-7.0,1.343
4.0,-5.0,1.344
24.0,-1.0,1.345
39.0,0.0,1.346
49.0,-1.0,1.347
45.0,-2.0,1.348
12.0,0.0,1.349
-38.0,5.0,1.35
-71.0,6.0,1.351
-59.0,1.0,1.352
-22.0,-3.0,1.353
0.0,-5.0,1.354
-5.0,-5.0,1.355
-13.0,-3.0,1.356
-6.0,-1.0,1.357
3.0,-5.0,1.358
4.0,-9.0,1.359
0.0,-14.0,1.36
2.0,-12.0,1.361
6.0,-6.0,1.362
7.0,-3.0,1.363
12.0,-5.0,1.364
17.0,-4.0,1.365
19.0,0.0,1.366
18.0,3.0,1.367
26.0,0.0,1.368
39.0,-4.0,1.369
37.0,-4.0,1.37
16.0,-2.0,1.371
-4.0,-3.0,1.372
-7.0,-5.0,1.373
-6.0,-5.0,1.374
-10.0,-4.0,1.375
-11.0,-6.0,1.376
-4.0,-5.0,1.377
4.0,-2.0,1.378
3.0,2.0,1.379
-8.0,2.0,1.38
-17.0,-2.0,1.381
-16.0,1.0,1.382
-8.0,6.0,1.383
0.0,6.0,1.384
1.0,3.0,1.385
-3.0,1.0,1.386
-5.0,3.0,1.387
-2.0,3.0,1.388
1.0,1.0,1.389
4.0,-1.0,1.39
10.0,-1.0,1.391
17.0,0.0,1.392
16.0,0.0,1.393
9.0,-4.0,1.394
6.0,-7.0,1.395
7.0,-7.0,1.396
9.0,-4.0,1.397
3.0,-3.0,1.398
-1.0,-3.0,1.399
-2.0,0.0,1.4
-5.0,2.0,1.401
-11.0,2.0,1.402
-7.0,0.0,1.403
7.0,0.0,1.404
19.0,3.0,1.405
17.0,6.0,1.406
10.0,4.0,1.407
10.0,2.0,1.408
15.0,0.0,1.409
13.0,-1.0,1.41
7.0,-2.0,1.411
5.0,-4.0,1.412
8.0,-7.0,1.413
5.0,-8.0,1.414
0.0,-7.0,1.415
-2.0,-3.0,1.416
-2.0,0.0,1.417
-3.0,-1.0,1.418
-6.0,-2.0,1.419
-9.0,-4.0,1.42
-10.0,-4.0,1.421
-10.0,-2.0,1.422
-3.0,1.0,1.423
3.0,4.0,1.424
7.0,6.0,1.425
9.0,8.0,1.426
4.0,5.0,1.427
0.0,2.0,1.428
3.0,-1.0,1.429
7.0,-4.0,1.43
13.0,-5.0,1.431
17.0,-6.0,1.432
12.0,-6.0,1.433
7.0,-6.0,1.434
5.0,-4.0,1.435
3.0,-3.0,1.436
-1.0,-3.0,1.437
-3.0,-3.0,1.438
-4.0,-1.0,1.439
-9.0,-1.0,1.44
-16.0,-2.0,1.441
-16.0,0.0,1.442
-4.0,0.0,1.443
9.0,1.0,1.444
12.0,2.0,1.445
7.0,5.0,1.446
4.0,7.0,1.447
4.0,4.0,1.448
3.0,2.0,1.449
2.0,1.0,1.45
4.0,-1.0,1.451
10.0,-3.0,1.452
8.0,-6.0,1.453
3.0,-5.0,1.454
0.0,-3.0,1.455
5.0,-3.0,1.456
9.0,0.0,1.457
1.0,1.0,1.458
-10.0,2.0,1.459
-16.0,2.0,1.46
-12.0,-2.0,1.461
-4.0,-4.0,1.462
3.0,-2.0,1.463
8.0,0.0,1.464
9.0,4.0,1.465
7.0,5.0,1.466
11.0,0.0,1.467
17.0,-5.0,1.468
21.0,-5.0,1.469
20.0,-5.0,1.47
18.0,-3.0,1.471
16.0,-2.0,1.472
12.0,-3.0,1.473
3.0,-4.0,1.474
-8.0,-5.0,1.475
-14.0,-6.0,1.476
-9.0,-4.0,1.477
-2.0,-1.0,1.478
-4.0,0.0,1.479
-13.0,0.0,1.48
-16.0,-2.0,1.481
-10.0,0.0,1.482
-4.0,3.0,1.483
-5.0,4.0,1.484
-5.0,5.0,1.485
-1.0,5.0,1.486
3.0,3.0,1.487
2.0,0.0,1.488
0.0,0.0,1.489
1.0,1.0,1.49
10.0,1.0,1.491
18.0,-1.0,1.492
20.0,-3.0,1.493
16.0,-3.0,1.494
10.0,-6.0,1.495
2.0,-7.0,1.496
-2.0,-5.0,1.497
-6.0,-2.0,1.498
-5.0,0.0,1.499
-3.0,2.0,1.5
-1.0,-2.0,1.501
1.0,-4.0,1.502
8.0,0.0,1.503
14.0,3.0,1.504
14.0,4.0,1.505
14.0,5.0,1.506
9.0,5.0,1.507
6.0,3.0,1.508
12.0,-1.0,1.509
17.0,-3.0,1.51
13.0,-1.0,1.511
9.0,0.0,1.512
7.0,-2.0,1.513
3.0,-3.0,1.514
-7.0,0.0,1.515
-16.0,1.0,1.516
-14.0,0.0,1.517
-10.0,-4.0,1.518
-7.0,-4.0,1.519
-12.0,-3.0,1.52
-16.0,-5.0,1.521
-9.0,-6.0,1.522
9.0,-3.0,1.523
27.0,1.0,1.524
31.0,2.0,1.525
21.0,-1.0,1.526
6.0,-3.0,1.527
-2.0,-4.0,1.528
-7.0,-4.0,1.529
-15.0,-5.0,1.53
-23.0,-8.0,1.531
-23.0,-7.0,1.532
-10.0,-3.0,1.533
5.0,0.0,1.534
12.0,-3.0,1.535
6.0,-7.0,1.536
0.0,-5.0,1.537
-2.0,-2.0,1.538
-3.0,0.0,1.539
-4.0,1.0,1.54
-6.0,1.0,1.541
-5.0,0.0,1.542
4.0,1.0,1.543
13.0,3.0,1.544
13.0,4.0,1.545
12.0,5.0,1.546
10.0,3.0,1.547
8.0,1.0,1.548
10.0,0.0,1.549
13.0,-2.0,1.55
18.0,-2.0,1.551
22.0,-3.0,1.552
20.0,-4.0,1.553
16.0,-5.0,1.554
6.0,-6.0,1.555
0.0,-6.0,1.556
4.0,-2.0,1.557
7.0,2.0,1.558
-1.0,6.0,1.559
-16.0,8.0,1.56
-22.0,3.0,1.561
-21.0,0.0,1.562
-17.0,0.0,1.563
-12.0,1.0,1.564
-5.0,3.0,1.565
3.0,4.0,1.566
10.0,3.0,1.567
12.0,0.0,1.568
11.0,-1.0,1.569
13.0,-3.0,1.57
14.0,-1.0,1.571
11.0,0.0,1.572
5.0,1.0,1.573
0.0,1.0,1.574
-3.0,0.0,1.575
-6.0,-1.0,1.576
-7.0,1.0,1.577
8.0,-1.0,1.578
0.0,3.0,1.579
-6.0,5.0,1.58
-4.0,1.0,1.581
-1.0,-2.0,1.582
0.0,2.0,1.583
2.0,6.0,1.584
9.0,7.0,1.585
15.0,8.0,1.586
15.0,2.0,1.587
16.0,-2.0,1.588
16.0,-2.0,1.589
15.0,-3.0,1.59
15.0,-4.0,1.591
15.0,-5.0,1.592
17.0,-1.0,1.593
18.0,2.0,1.594
9.0,2.0,1.595
2.0,3.0,1.596
1.0,1.0,1.597
8.0,-1.0,1.598
-5.0,3.0,1.599
-15.0,5.0,1.6
-11.0,1.0,1.601
-7.0,-2.0,1.602
-5.0,2.0,1.603
-1.0,6.0,1.604
9.0,7.0,1.605
19.0,8.0,1.606
19.0,2.0,1.607
21.0,-2.0,1.608
21.0,-2.0,1.609
19.0,-3.0,1.61
19.0,-4.0,1.611
19.0,-5.0,1.612
23.0,-1.0,1.613
25.0,2.0,1.614
9.0,2.0,1.615
-1.0,3.0,1.616
-3.0,1.0,1.617
8.0,0.0,1.618
1.0,-2.0,1.619
-4.0,-5.0,1.62
-2.0,-8.0,1.621
0.0,-5.0,1.622
1.0,0.0,1.623
3.0,1.0,1.624
9.0,0.0,1.625
14.0,0.0,1.626
14.0,1.0,1.627
15.0,1.0,1.628
15.0,-3.0,1.629
14.0,-6.0,1.63
14.0,-4.0,1.631
14.0,-1.0,1.632
16.0,0.0,1.633
17.0,-1.0,1.634
9.0,-3.0,1.635
3.0,-2.0,1.636
2.0,0.0,1.637
0.0,-2.0,1.638
-3.0,-6.0,1.639
-3.0,-4.0,1.64
0.0,-1.0,1.641
1.0,4.0,1.642
2.0,6.0,1.643
10.0,7.0,1.644
19.0,8.0,1.645
18.0,5.0,1.646
12.0,0.0,1.647
8.0,-1.0,1.648
4.0,3.0,1.649
-6.0,6.0,1.65
-15.0,2.0,1.651
-14.0,-6.0,1.652
-4.0,-9.0,1.653
5.0,-9.0,1.654
7.0,-5.0,1.655
7.0,-1.0,1.656
6.0,1.0,1.657
4.0,1.0,1.658
0.0,1.0,1.659
-5.0,0.0,1.66
-9.0,-3.0,1.661
-10.0,-3.0,1.662
2.0,-3.0,1.663
10.0,0.0,1.664
5.0,2.0,1.665
-1.0,4.0,1.666
-9.0,3.0,1.667
-15.0,2.0,1.668
-16.0,2.0,1.669
-16.0,2.0,1.67
-13.0,-1.0,1.671
-7.0,-7.0,1.672
7.0,-11.0,1.673
18.0,-12.0,1.674
14.0,-10.0,1.675
10.0,-7.0,1.676
4.0,-3.0,1.677
0.0,-2.0,1.678
0.0,-4.0,1.679
2.0,-3.0,1.68
5.0,-2.0,1.681
6.0,5.0,1.682
9.0,10.0,1.683
16.0,9.0,1.684
21.0,6.0,1.685
20.0,3.0,1.686
19.0,-1.0,1.687
18.0,-5.0,1.688
15.0,-8.0,1.689
9.0,-6.0,1.69
4.0,-5.0,1.691
7.0,-5.0,1.692
13.0,-6.0,1.693
19.0,-5.0,1.694
26.0,-2.0,1.695
30.0,-2.0,1.696
25.0,-2.0,1.697
10.0,-4.0,1.698
-2.0,-5.0,1.699
-13.0,-4.0,1.7
-19.0,-4.0,1.701
-26.0,0.0,1.702
-37.0,5.0,1.703
-43.0,12.0,1.704
-30.0,17.0,1.705
-16.0,16.0,1.706
0.0,8.0,1.707
10.0,-2.0,1.708
0.0,-10.0,1.709
-8.0,-9.0,1.71
-12.0,-8.0,1.711
-12.0,-7.0,1.712
1.0,-6.0,1.713
14.0,-5.0,1.714
28.0,-5.0,1.715
36.0,-4.0,1.716
23.0,-1.0,1.717
10.0,2.0,1.718
0.0,0.0,1.719
-12.0,-2.0,1.72
-27.0,-6.0,1.721
-37.0,-5.0,1.722
-27.0,0.0,1.723
-9.0,6.0,1.724
7.0,8.0,1.725
20.0,9.0,1.726
25.0,6.0,1.727
24.0,5.0,1.728
18.0,4.0,1.729
13.0,2.0,1.73
12.0,-2.0,1.731
11.0,-6.0,1.732
12.0,-4.0,1.733
16.0,-1.0,1.734
22.0,-2.0,1.735
26.0,-3.0,1.736
28.0,0.0,1.737
24.0,5.0,1.738
12.0,6.0,1.739
-11.0,0.0,1.74
-33.0,-7.0,1.741
-44.0,-4.0,1.742
-41.0,7.0,1.743
-34.0,13.0,1.744
-27.0,11.0,1.745
-21.0,5.0,1.746
-6.0,-4.0,1.747
11.0,-13.0,1.748
23.0,-17.0,1.749
26.0,-14.0,1.75
22.0,-13.0,1.751
17.0,-13.0,1.752
12.0,-12.0,1.753
11.0,-9.0,1.754
16.0,-8.0,1.755
21.0,-9.0,1.756
21.0,-6.0,1.757
15.0,-4.0,1.758
8.0,0.0,1.759
6.0,-1.0,1.76
9.0,-5.0,1.761
13.0,-3.0,1.762
11.0,-1.0,1.763
1.0,0.0,1.764
-11.0,5.0,1.765
-17.0,10.0,1.766
-16.0,12.0,1.767
-17.0,10.0,1.768
-22.0,8.0,1.769
-23.0,9.0,1.77
-13.0,9.0,1.771
1.0,6.0,1.772
9.0,1.0,1.773
12.0,-3.0,1.774
15.0,-7.0,1.775
17.0,-6.0,1.776
17.0,-2.0,1.777
11.0,0.0,1.778
4.0,0.0,1.779
0.0,-1.0,1.78
4.0,-5.0,1.781
12.0,-8.0,1.782
17.0,-6.0,1.783
16.0,0.0,1.784
11.0,6.0,1.785
12.0,5.0,1.786
14.0,1.0,1.787
12.0,0.0,1.788
0.0,4.0,1.789
-12.0,7.0,1.79
-21.0,3.0,1.791
-20.0,-3.0,1.792
-14.0,-4.0,1.793
-11.0,-1.0,1.794
-15.0,3.0,1.795
-17.0,2.0,1.796
-7.0,0.0,1.797
8.0,-3.0,1.798
17.0,-1.0,1.799
10.0,1.0,1.8
1.0,-1.0,1.801
-1.0,-3.0,1.802
1.0,0.0,1.803
5.0,6.0,1.804
7.0,9.0,1.805
11.0,6.0,1.806
14.0,1.0,1.807
20.0,-3.0,1.808
26.0,-3.0,1.809
29.0,-2.0,1.81
29.0,-1.0,1.811
31.0,-1.0,1.812
32.0,-1.0,1.813
22.0,2.0,1.814
-6.0,8.0,1.815
-40.0,11.0,1.816
-59.0,10.0,1.817
-53.0,3.0,1.818
-26.0,-2.0,1.819
-2.0,-6.0,1.82
2.0,-11.0,1.821
-8.0,-12.0,1.822
-12.0,-8.0,1.823
-3.0,-3.0,1.824
8.0,-1.0,1.825
17.0,-4.0,1.826
29.0,-5.0,1.827
50.0,-4.0,1.828
63.0,-3.0,1.829
52.0,-2.0,1.83
22.0,-2.0,1.831
-7.0,-6.0,1.832
-24.0,-9.0,1.833
-33.0,-9.0,1.834
-37.0,-6.0,1.835
-37.0,-3.0,1.836
-29.0,-1.0,1.837
-17.0,-1.0,1.838
-6.0,0.0,1.839
-5.0,3.0,1.84
-9.0,4.0,1.841
-7.0,4.0,1.842
2.0,2.0,1.843
10.0,3.0,1.844
7.0,7.0,1.845
1.0,9.0,1.846
5.0,8.0,1.847
15.0,0.0,1.848
18.0,-5.0,1.849
15.0,-5.0,1.85
13.0,-4.0,1.851
15.0,-1.0,1.852
14.0,1.0,1.853
12.0,0.0,1.854
16.0,-2.0,1.855
23.0,-3.0,1.856
24.0,0.0,1.857
13.0,-1.0,1.858
-5.0,-4.0,1.859
-21.0,-7.0,1.86
-26.0,-9.0,1.861
-20.0,-3.0,1.862
-7.0,3.0,1.863
7.0,5.0,1.864
8.0,4.0,1.865
-6.0,4.0,1.866
-17.0,3.0,1.867
-8.0,0.0,1.868
12.0,-4.0,1.869
24.0,-6.0,1.87
22.0,-7.0,1.871
17.0,-9.0,1.872
16.0,-9.0,1.873
14.0,-6.0,1.874
6.0,0.0,1.875
0.0,7.0,1.876
3.0,9.0,1.877
14.0,5.0,1.878
22.0,1.0,1.879
21.0,0.0,1.88
6.0,-2.0,1.881
-7.0,-1.0,1.882
-7.0,1.0,1.883
1.0,3.0,1.884
2.0,5.0,1.885
-12.0,5.0,1.886
-25.0,3.0,1.887
-28.0,0.0,1.888
-32.0,-2.0,1.889
-41.0,1.0,1.89
-38.0,6.0,1.891
-15.0,5.0,1.892
12.0,-2.0,1.893
23.0,-9.0,1.894
18.0,-14.0,1.895
16.0,-10.0,1.896
17.0,0.0,1.897
16.0,9.0,1.898
10.0,8.0,1.899
10.0,-6.0,1.9
17.0,-21.0,1.901
19.0,-20.0,1.902
12.0,-8.0,1.903
8.0,1.0,1.904
13.0,3.0,1.905
19.0,4.0,1.906
17.0,6.0,1.907
8.0,7.0,1.908
1.0,6.0,1.909
-4.0,4.0,1.91
-6.0,0.0,1.911
-3.0,-4.0,1.912
3.0,-5.0,1.913
3.0,-4.0,1.914
-5.0,0.0,1.915
-11.0,0.0,1.916
-8.0,-1.0,1.917
-4.0,-5.0,1.918
-5.0,-5.0,1.919
-4.0,-5.0,1.92
5.0,-4.0,1.921
13.0,-2.0,1.922
21.0,1.0,1.923
22.0,5.0,1.924
1.0,9.0,1.925
-15.0,11.0,1.926
-13.0,7.0,1.927
-11.0,3.0,1.928
-9.0,4.0,1.929
-7.0,4.0,1.93
-5.0,1.0,1.931
-2.0,-1.0,1.932
5.0,0.0,1.933
12.0,1.0,1.934
19.0,-3.0,1.935
25.0,-7.0,1.936
26.0,-8.0,1.937
25.0,-8.0,1.938
9.0,-6.0,1.939
-11.0,-6.0,1.94
-22.0,-7.0,1.941
-24.0,-4.0,1.942
-25.0,2.0,1.943
-29.0,8.0,1.944
-33.0,10.0,1.945
-28.0,7.0,1.946
-16.0,3.0,1.947
-2.0,0.0,1.948
8.0,-1.0,1.949
17.0,0.0,1.95
23.0,1.0,1.951
25.0,2.0,1.952
23.0,1.0,1.953
22.0,-2.0,1.954
24.0,-6.0,1.955
22.0,-7.0,1.956
17.0,-5.0,1.957
6.0,-3.0,1.958
0.0,-3.0,1.959
-1.0,-3.0,1.96
-1.0,-3.0,1.961
1.0,-2.0,1.962
6.0,-1.0,1.963
10.0,-2.0,1.964
5.0,0.0,1.965
-4.0,4.0,1.966
-14.0,6.0,1.967
-18.0,3.0,1.968
-14.0,1.0,1.969
-3.0,0.0,1.97
14.0,-1.0,1.971
30.0,-4.0,1.972
35.0,-3.0,1.973
27.0,5.0,1.974
14.0,12.0,1.975
4.0,9.0,1.976
4.0,3.0,1.977
6.0,-5.0,1.978
2.0,-9.0,1.979
-9.0,-8.0,1.98
-23.0,-6.0,1.981
-31.0,-4.0,1.982
-27.0,-3.0,1.983
-14.0,-3.0,1.984
-1.0,-1.0,1.985
0.0,-1.0,1.986
-4.0,-6.0,1.987
-4.0,-9.0,1.988
3.0,-5.0,1.989
11.0,-2.0,1.99
16.0,-3.0,1.991
19.0,-4.0,1.992
21.0,-3.0,1.993
23.0,-1.0,1.994
25.0,-4.0,1.995
32.0,-9.0,1.996
37.0,-7.0,1.997
33.0,0.0,1.998
18.0,8.0,1.999
-14.0,6.0,2.0
-54.0,-1.0,2.001
-78.0,-5.0,2.002
-72.0,-2.0,2.003
-41.0,3.0,2.004
-12.0,8.0,2.005
1.0,8.0,2.006
4.0,4.0,2.007
11.0,0.0,2.008
24.0,1.0,2.009
36.0,3.0,2.01
37.0,6.0,2.011
23.0,8.0,2.012
4.0,9.0,2.013
-3.0,6.0,2.014
6.0,-1.0,2.015
16.0,-6.0,2.016
17.0,-6.0,2.017
15.0,-6.0,2.018
13.0,-8.0,2.019
7.0,-9.0,2.02
0.0,-9.0,2.021
-3.0,-4.0,2.022
-2.0,4.0,2.023
-1.0,10.0,2.024
-8.0,10.0,2.025
-20.0,7.0,2.026
-23.0,2.0,2.027
-18.0,2.0,2.028
-5.0,4.0,2.029
5.0,2.0,2.03
13.0,-3.0,2.031
17.0,-7.0,2.032
20.0,-10.0,2.033
19.0,-12.0,2.034
17.0,-15.0,2.035
15.0,-13.0,2.036
15.0,-9.0,2.037
12.0,-4.0,2.038
1.0,-1.0,2.039
-7.0,0.0,2.04
-10.0,-2.0,2.041
-2.0,-1.0,2.042
7.0,2.0,2.043
12.0,7.0,2.044
9.0,10.0,2.045
3.0,8.0,2.046
-3.0,5.0,2.047
-6.0,3.0,2.048
-6.0,0.0,2.049
-2.0,-2.0,2.05
7.0,-3.0,2.051
14.0,0.0,2.052
13.0,6.0,2.053
6.0,8.0,2.054
2.0,2.0,2.055
2.0,-3.0,2.056
5.0,-7.0,2.057
12.0,-10.0,2.058
24.0,-7.0,2.059
28.0,-5.0,2.06
19.0,-4.0,2.061
-1.0,-3.0,2.062
-12.0,-1.0,2.063
-12.0,1.0,2.064
-11.0,6.0,2.065
-16.0,10.0,2.066
-22.0,10.0,2.067
-19.0,10.0,2.068
-14.0,5.0,2.069
-15.0,0.0,2.07
-20.0,-4.0,2.071
-22.0,-7.0,2.072
-12.0,-7.0,2.073
9.0,-8.0,2.074
27.0,-6.0,2.075
33.0,-4.0,2.076
32.0,0.0,2.077
28.0,3.0,2.078
27.0,2.0,2.079
24.0,-2.0,2.08
14.0,-8.0,2.081
-2.0,-6.0,2.082
-10.0,-3.0,2.083
-10.0,-2.0,2.084
-13.0,0.0,2.085
-22.0,3.0,2.086
-31.0,3.0,2.087
-31.0,-1.0,2.088
-23.0,-5.0,2.089
-10.0,-1.0,2.09
6.0,4.0,2.091
22.0,2.0,2.092
28.0,-4.0,2.093
20.0,-7.0,2.094
6.0,-3.0,2.095
-2.0,2.0,2.096
-2.0,1.0,2.097
1.0,-2.0,2.098
6.0,-2.0,2.099
7.0,3.0,2.1
0.0,2.0,2.101
-4.0,-1.0,2.102
5.0,-6.0,2.103
21.0,-5.0,2.104
24.0,-2.0,2.105
11.0,1.0,2.106
0.0,4.0,2.107
0.0,7.0,2.108
3.0,5.0,2.109
1.0,-1.0,2.11
1.0,-5.0,2.111
7.0,-6.0,2.112
14.0,-4.0,2.113
15.0,-3.0,2.114
13.0,-4.0,2.115
14.0,-2.0,2.116
18.0,2.0,2.117
25.0,0.0,2.118
21.0,-2.0,2.119
1.0,-2.0,2.12
-22.0,-1.0,2.121
-29.0,4.0,2.122
-22.0,8.0,2.123
-20.0,10.0,2.124
-26.0,9.0,2.125
-22.0,8.0,2.126
4.0,3.0,2.127
28.0,-2.0,2.128
26.0,-4.0,2.129
11.0,-2.0,2.13
9.0,-2.0,2.131
18.0,-5.0,2.132
16.0,-8.0,2.133
0.0,-6.0,2.134
-12.0,0.0,2.135
-13.0,2.0,2.136
-9.0,1.0,2.137
-5.0,-4.0,2.138
3.0,-7.0,2.139
10.0,-4.0,2.14
6.0,-3.0,2.141
-2.0,-1.0,2.142
-3.0,-2.0,2.143
5.0,-5.0,2.144
7.0,1.0,2.145
0.0,9.0,2.146
-3.0,9.0,2.147
0.0,2.0,2.148
2.0,-3.0,2.149
-1.0,-1.0,2.15
-2.0,1.0,2.151
5.0,-1.0,2.152
17.0,-5.0,2.153
26.0,-3.0,2.154
30.0,0.0,2.155
25.0,-1.0,2.156
13.0,-2.0,2.157
-4.0,-4.0,2.158
-14.0,-3.0,2.159
-17.0,-2.0,2.16
-10.0,-4.0,2.161
8.0,-4.0,2.162
31.0,-3.0,2.163
37.0,-2.0,2.164
12.0,0.0,2.165
-27.0,4.0,2.166
-46.0,5.0,2.167
-31.0,3.0,2.168
-7.0,2.0,2.169
6.0,6.0,2.17
4.0,10.0,2.171
4.0,6.0,2.172
14.0,-4.0,2.173
24.0,-10.0,2.174
20.0,-10.0,2.175
0.0,-3.0,2.176
-17.0,3.0,2.177
-17.0,0.0,2.178
-1.0,-3.0,2.179
5.0,-4.0,2.18
-9.0,-3.0,2.181
-25.0,-1.0,2.182
-23.0,-1.0,2.183
-10.0,-1.0,2.184
-8.0,6.0,2.185
-17.0,14.0,2.186
-13.0,11.0,2.187
6.0,2.0,2.188
24.0,-1.0,2.189
30.0,2.0,2.19
33.0,1.0,2.191
39.0,-7.0,2.192
41.0,-17.0,2.193
29.0,-20.0,2.194
14.0,-15.0,2.195
4.0,-10.0,2.196
1.0,-5.0,2.197
0.0,-3.0,2.198
0.0,-1.0,2.199
0.0,-1.0,2.2
-3.0,-4.0,2.201
-7.0,-4.0,2.202
-4.0,-2.0,2.203
5.0,2.0,2.204
6.0,7.0,2.205
-1.0,10.0,2.206
-3.0,11.0,2.207
6.0,5.0,2.208
13.0,-1.0,2.209
8.0,-2.0,2.21
1.0,-2.0,2.211
2.0,-4.0,2.212
8.0,-5.0,2.213
8.0,-1.0,2.214
1.0,2.0,2.215
-3.0,-2.0,2.216
-5.0,-6.0,2.217
-6.0,-9.0,2.218
-9.0,-3.0,2.219
-15.0,2.0,2.22
-20.0,0.0,2.221
-23.0,0.0,2.222
-20.0,3.0,2.223
-18.0,5.0,2.224
-23.0,5.0,2.225
-22.0,6.0,2.226
-7.0,4.0,2.227
16.0,1.0,2.228
29.0,-1.0,2.229
23.0,3.0,2.23
15.0,5.0,2.231
21.0,1.0,2.232
41.0,-6.0,2.233
63.0,-8.0,2.234
77.0,-8.0,2.235
73.0,-11.0,2.236
51.0,-11.0,2.237
8.0,-8.0,2.238
-38.0,-1.0,2.239
-68.0,4.0,2.24
-75.0,3.0,2.241
-66.0,8.0,2.242
-52.0,15.0,2.243
-42.0,20.0,2.244
-37.0,18.0,2.245
-34.0,12.0,2.246
-20.0,5.0,2.247
1.0,-1.0,2.248
15.0,-3.0,2.249
10.0,-4.0,2.25
4.0,-6.0,2.251
18.0,-11.0,2.252
41.0,-15.0,2.253
52.0,-15.0,2.254
50.0,-10.0,2.255
47.0,-7.0,2.256
44.0,-5.0,2.257
26.0,-4.0,2.258
2.0,-3.0,2.259
-13.0,-2.0,2.26
-17.0,-2.0,2.261
-18.0,-1.0,2.262
-17.0,2.0,2.263
-4.0,3.0,2.264
8.0,5.0,2.265
3.0,7.0,2.266
-6.0,8.0,2.267
5.0,3.0,2.268
26.0,0.0,2.269
32.0,0.0,2.27
17.0,0.0,2.271
2.0,-3.0,2.272
-2.0,-6.0,2.273
-4.0,-4.0,2.274
-6.0,-2.0,2.275
-3.0,-3.0,2.276
3.0,-3.0,2.277
0.0,-3.0,2.278
-6.0,-1.0,2.279
-9.0,-2.0,2.28
-5.0,-6.0,2.281
-1.0,-6.0,2.282
2.0,-2.0,2.283
6.0,3.0,2.284
10.0,9.0,2.285
6.0,13.0,2.286
4.0,9.0,2.287
9.0,0.0,2.288
11.0,-6.0,2.289
4.0,-3.0,2.29
-1.0,0.0,2.291
1.0,-2.0,2.292
6.0,-6.0,2.293
6.0,-8.0,2.294
5.0,-7.0,2.295
6.0,-7.0,2.296
7.0,-6.0,2.297
2.0,-2.0,2.298
0.0,1.0,2.299
2.0,0.0,2.3
2.0,-5.0,2.301
-5.0,-5.0,2.302
-9.0,-1.0,2.303
-7.0,2.0,2.304
-8.0,6.0,2.305
-15.0,9.0,2.306
-16.0,10.0,2.307
-3.0,7.0,2.308
16.0,2.0,2.309
26.0,0.0,2.31
30.0,-3.0,2.311
26.0,-6.0,2.312
13.0,-3.0,2.313
-6.0,1.0,2.314
-14.0,0.0,2.315
-3.0,-6.0,2.316
9.0,-10.0,2.317
6.0,-9.0,2.318
-7.0,-9.0,2.319
-14.0,-9.0,2.32
-11.0,-10.0,2.321
-7.0,-3.0,2.322
-3.0,4.0,2.323
1.0,7.0,2.324
-2.0,9.0,2.325
-10.0,13.0,2.326
-8.0,12.0,2.327
9.0,6.0,2.328
28.0,0.0,2.329
39.0,-3.0,2.33
54.0,-3.0,2.331
70.0,-4.0,2.332
60.0,-6.0,2.333
13.0,-4.0,2.334
-33.0,-5.0,2.335
-46.0,-8.0,2.336
-41.0,-5.0,2.337
-50.0,0.0,2.338
-62.0,9.0,2.339
-56.0,9.0,2.34
-31.0,2.0,2.341
-11.0,-2.0,2.342
1.0,-1.0,2.343
14.0,2.0,2.344
20.0,5.0,2.345
15.0,5.0,2.346
7.0,3.0,2.347
12.0,0.0,2.348
21.0,-3.0,2.349
21.0,-6.0,2.35
18.0,-6.0,2.351
22.0,-6.0,2.352
27.0,-5.0,2.353
24.0,-3.0,2.354
16.0,-3.0,2.355
13.0,-1.0,2.356
14.0,2.0,2.357
6.0,2.0,2.358
-6.0,-1.0,2.359
-18.0,-8.0,2.36
-24.0,-12.0,2.361
-23.0,-8.0,2.362
-12.0,-1.0,2.363
2.0,3.0,2.364
13.0,3.0,2.365
18.0,3.0,2.366
24.0,4.0,2.367
32.0,3.0,2.368
36.0,0.0,2.369
35.0,-3.0,2.37
36.0,-7.0,2.371
31.0,-8.0,2.372
17.0,-7.0,2.373
0.0,-6.0,2.374
-10.0,-4.0,2.375
-15.0,-4.0,2.376
-24.0,-2.0,2.377
-36.0,-2.0,2.378
-33.0,-1.0,2.379
-18.0,-1.0,2.38
-6.0,-3.0,2.381
-7.0,-1.0,2.382
-6.0,2.0,2.383
0.0,4.0,2.384
-1.0,6.0,2.385
-11.0,8.0,2.386
-14.0,8.0,2.387
-4.0,6.0,2.388
5.0,2.0,2.389
2.0,1.0,2.39
2.0,1.0,2.391
16.0,3.0,2.392
31.0,2.0,2.393
35.0,-2.0,2.394
25.0,-7.0,2.395
15.0,-8.0,2.396
8.0,-2.0,2.397
0.0,2.0,2.398
-5.0,1.0,2.399
-8.0,0.0,2.4
-13.0,-2.0,2.401
-22.0,0.0,2.402
-26.0,0.0,2.403
-18.0,1.0,2.404
-8.0,8.0,2.405
-3.0,11.0,2.406
5.0,6.0,2.407
22.0,-2.0,2.408
38.0,-3.0,2.409
41.0,0.0,2.41
28.0,2.0,2.411
6.0,-1.0,2.412
-16.0,-5.0,2.413
-25.0,-9.0,2.414
-19.0,-12.0,2.415
-10.0,-10.0,2.416
-9.0,-3.0,2.417
-17.0,2.0,2.418
-16.0,0.0,2.419
-6.0,-2.0,2.42
0.0,-4.0,2.421
-5.0,-5.0,2.422
-13.0,-2.0,2.423
-13.0,1.0,2.424
-4.0,5.0,2.425
10.0,7.0,2.426
32.0,-1.0,2.427
48.0,-8.0,2.428
44.0,-8.0,2.429
24.0,-7.0,2.43
9.0,-1.0,2.431
6.0,3.0,2.432
-2.0,3.0,2.433
-25.0,3.0,2.434
-39.0,3.0,2.435
-26.0,3.0,2.436
-2.0,1.0,2.437
8.0,1.0,2.438
7.0,3.0,2.439
10.0,-1.0,2.44
14.0,-10.0,2.441
9.0,-11.0,2.442
3.0,-3.0,2.443
10.0,5.0,2.444
18.0,8.0,2.445
17.0,7.0,2.446
13.0,5.0,2.447
18.0,2.0,2.448
21.0,0.0,2.449
15.0,2.0,2.45
9.0,2.0,2.451
16.0,-4.0,2.452
22.0,-10.0,2.453
14.0,-8.0,2.454
0.0,-2.0,2.455
-2.0,-2.0,2.456
2.0,-4.0,2.457
1.0,-6.0,2.458
-1.0,-3.0,2.459
-3.0,-2.0,2.46
-4.0,-7.0,2.461
-10.0,-6.0,2.462
-9.0,0.0,2.463
2.0,7.0,2.464
13.0,10.0,2.465
10.0,9.0,2.466
5.0,5.0,2.467
9.0,1.0,2.468
10.0,1.0,2.469
6.0,0.0,2.47
0.0,-1.0,2.471
0.0,-5.0,2.472
1.0,-7.0,2.473
-4.0,-6.0,2.474
-14.0,-6.0,2.475
-19.0,-7.0,2.476
-19.0,-6.0,2.477
-18.0,-6.0,2.478
-13.0,-7.0,2.479
-8.0,-8.0,2.48
-6.0,-7.0,2.481
-8.0,-3.0,2.482
-5.0,0.0,2.483
1.0,2.0,2.484
6.0,6.0,2.485
4.0,11.0,2.486
4.0,10.0,2.487
8.0,3.0,2.488
10.0,-2.0,2.489
8.0,-1.0,2.49
11.0,0.0,2.491
18.0,-4.0,2.492
27.0,-7.0,2.493
32.0,-5.0,2.494
42.0,-2.0,2.495
53.0,-3.0,2.496
59.0,-4.0,2.497
54.0,-4.0,2.498
44.0,-3.0,2.499
27.0,-4.0,2.5
-7.0,-4.0,2.501
-51.0,2.0,2.502
-84.0,8.0,2.503
-92.0,6.0,2.504
-84.0,7.0,2.505
-74.0,13.0,2.506
-61.0,14.0,2.507
-35.0,5.0,2.508
-7.0,-1.0,2.509
12.0,3.0,2.51
13.0,6.0,2.511
10.0,-2.0,2.512
9.0,-9.0,2.513
5.0,-5.0,2.514
1.0,-1.0,2.515
9.0,-4.0,2.516
23.0,-7.0,2.517
30.0,-2.0,2.518
23.0,6.0,2.519
12.0,6.0,2.52
6.0,-2.0,2.521
6.0,-6.0,2.522
13.0,-5.0,2.523
25.0,-2.0,2.524
34.0,4.0,2.525
32.0,10.0,2.526
23.0,9.0,2.527
16.0,3.0,2.528
5.0,2.0,2.529
-8.0,2.0,2.53
-13.0,-2.0,2.531
0.0,-8.0,2.532
16.0,-9.0,2.533
20.0,-6.0,2.534
16.0,-4.0,2.535
13.0,-7.0,2.536
8.0,-6.0,2.537
-4.0,-5.0,2.538
-19.0,-6.0,2.539
-28.0,-7.0,2.54
-30.0,-8.0,2.541
-28.0,-2.0,2.542
-21.0,4.0,2.543
-8.0,7.0,2.544
3.0,8.0,2.545
5.0,6.0,2.546
6.0,1.0,2.547
12.0,-2.0,2.548
17.0,-2.0,2.549
17.0,0.0,2.55
15.0,-1.0,2.551
14.0,-6.0,2.552
15.0,-9.0,2.553
13.0,-8.0,2.554
12.0,-6.0,2.555
8.0,-6.0,2.556
-2.0,-4.0,2.557
-13.0,5.0,2.558
-14.0,6.0,2.559
-13.0,6.0,2.56
-5.0,-2.0,2.561
4.0,-7.0,2.562
14.0,-5.0,2.563
22.0,-3.0,2.564
24.0,-1.0,2.565
22.0,2.0,2.566
8.0,4.0,2.567
-2.0,4.0,2.568
3.0,2.0,2.569
8.0,-1.0,2.57
7.0,-4.0,2.571
7.0,-8.0,2.572
11.0,-9.0,2.573
12.0,-11.0,2.574
2.0,-9.0,2.575
-5.0,-8.0,2.576
-5.0,-7.0,2.577
-2.0,8.0,2.578
2.0,10.0,2.579
10.0,10.0,2.58
22.0,-1.0,2.581
29.0,-9.0,2.582
22.0,-6.0,2.583
2.0,-4.0,2.584
-19.0,0.0,2.585
-35.0,4.0,2.586
-46.0,6.0,2.587
-47.0,7.0,2.588
-30.0,4.0,2.589
-1.0,0.0,2.59
25.0,-5.0,2.591
29.0,-10.0,2.592
14.0,-12.0,2.593
-1.0,-15.0,2.594
-3.0,-12.0,2.595
2.0,-11.0,2.596
0.0,-9.0,2.597
-15.0,7.0,2.598
-27.0,8.0,2.599
-31.0,8.0,2.6
-7.0,-1.0,2.601
13.0,-8.0,2.602
18.0,-6.0,2.603
22.0,-4.0,2.604
16.0,0.0,2.605
9.0,3.0,2.606
-1.0,5.0,2.607
-6.0,6.0,2.608
11.0,3.0,2.609
24.0,0.0,2.61
20.0,-5.0,2.611
16.0,-9.0,2.612
12.0,-11.0,2.613
9.0,-13.0,2.614
9.0,-11.0,2.615
10.0,-10.0,2.616
12.0,-8.0,2.617
15.0,-7.0,2.618
9.0,-8.0,2.619
0.0,-8.0,2.62
-6.0,-6.0,2.621
-7.0,0.0,2.622
0.0,4.0,2.623
13.0,4.0,2.624
22.0,2.0,2.625
21.0,5.0,2.626
16.0,10.0,2.627
16.0,11.0,2.628
12.0,6.0,2.629
-7.0,-1.0,2.63
-28.0,-6.0,2.631
-30.0,-6.0,2.632
-15.0,-5.0,2.633
-1.0,-4.0,2.634
0.0,-3.0,2.635
-2.0,-3.0,2.636
1.0,-1.0,2.637
0.0,-2.0,2.638
-1.0,-4.0,2.639
-2.0,-7.0,2.64
-3.0,-8.0,2.641
-5.0,-2.0,2.642
-5.0,6.0,2.643
0.0,12.0,2.644
8.0,13.0,2.645
6.0,12.0,2.646
3.0,3.0,2.647
7.0,-5.0,2.648
14.0,-5.0,2.649
17.0,1.0,2.65
13.0,3.0,2.651
8.0,-2.0,2.652
6.0,-5.0,2.653
4.0,-3.0,2.654
0.0,-3.0,2.655
-1.0,-4.0,2.656
-2.0,-3.0,2.657
0.0,10.0,2.658
3.0,5.0,2.659
1.0,-1.0,2.66
-3.0,-5.0,2.661
-4.0,-8.0,2.662
3.0,-14.0,2.663
13.0,-18.0,2.664
12.0,-16.0,2.665
1.0,-13.0,2.666
-5.0,-7.0,2.667
-2.0,-6.0,2.668
0.0,-8.0,2.669
-2.0,-12.0,2.67
-5.0,-11.0,2.671
-5.0,-9.0,2.672
-8.0,-7.0,2.673
-17.0,-6.0,2.674
-28.0,-2.0,2.675
-30.0,1.0,2.676
-19.0,-1.0,2.677
1.0,12.0,2.678
20.0,6.0,2.679
32.0,0.0,2.68
22.0,-4.0,2.681
16.0,-9.0,2.682
24.0,-15.0,2.683
30.0,-19.0,2.684
30.0,-17.0,2.685
30.0,-14.0,2.686
24.0,-8.0,2.687
20.0,-5.0,2.688
20.0,-9.0,2.689
19.0,-13.0,2.69
18.0,-12.0,2.691
16.0,-10.0,2.692
10.0,-8.0,2.693
5.0,-5.0,2.694
1.0,-1.0,2.695
-3.0,2.0,2.696
-4.0,0.0,2.697
-7.0,-2.0,2.698
-14.0,-3.0,2.699
-15.0,-3.0,2.7
-15.0,-4.0,2.701
-15.0,-2.0,2.702
-12.0,2.0,2.703
-8.0,4.0,2.704
-8.0,5.0,2.705
-12.0,8.0,2.706
-13.0,8.0,2.707
-8.0,6.0,2.708
-1.0,3.0,2.709
0.0,5.0,2.71
1.0,6.0,2.711
2.0,3.0,2.712
3.0,0.0,2.713
1.0,-2.0,2.714
2.0,-2.0,2.715
4.0,-5.0,2.716
5.0,-3.0,2.717
2.0,-1.0,2.718
-1.0,2.0,2.719
-2.0,3.0,2.72
-7.0,0.0,2.721
-10.0,0.0,2.722
-3.0,-1.0,2.723
11.0,-3.0,2.724
16.0,-1.0,2.725
10.0,2.0,2.726
6.0,0.0,2.727
7.0,-4.0,2.728
6.0,-7.0,2.729
-1.0,-3.0,2.73
-8.0,1.0,2.731
-5.0,1.0,2.732
3.0,-2.0,2.733
9.0,-3.0,2.734
10.0,-2.0,2.735
9.0,-2.0,2.736
7.0,-3.0,2.737
5.0,-232.0,2.738
4.0,-195.0,2.739
2.0,-159.0,2.74
0.0,-136.0,2.741
-5.0,-108.0,2.742
-7.0,-71.0,2.743
-6.0,-34.0,2.744
-4.0,-2.0,2.745
-6.0,31.0,2.746
-7.0,71.0,2.747
-4.0,108.0,2.748
2.0,128.0,2.749
5.0,140.0,2.75
3.0,122.0,2.751
3.0,110.0,2.752
9.0,125.0,2.753
17.0,136.0,2.754
22.0,127.0,2.755
22.0,106.0,2.756
14.0,48.0,2.757
5.0,-145.0,2.758
0.0,-121.0,2.759
-4.0,-98.0,2.76
-3.0,-83.0,2.761
-3.0,-65.0,2.762
-8.0,-41.0,2.763
-9.0,-17.0,2.764
2.0,4.0,2.765
14.0,26.0,2.766
26.0,52.0,2.767
31.0,76.0,2.768
16.0,89.0,2.769
3.0,97.0,2.77
-2.0,85.0,2.771
-8.0,77.0,2.772
-16.0,87.0,2.773
-18.0,94.0,2.774
-1.0,88.0,2.775
13.0,75.0,2.776
17.0,37.0,2.777
17.0,4.0,2.778
3.0,-11.0,2.779
-2.0,-20.0,2.78
-6.0,-30.0,2.781
-12.0,-30.0,2.782
-13.0,-27.0,2.783
-6.0,-20.0,2.784
-5.0,-13.0,2.785
-11.0,-5.0,2.786
-8.0,1.0,2.787
8.0,-2.0,2.788
20.0,-12.0,2.789
18.0,-20.0,2.79
7.0,-14.0,2.791
1.0,-3.0,2.792
2.0,7.0,2.793
7.0,8.0,2.794
12.0,10.0,2.795
16.0,16.0,2.796
15.0,21.0,2.797
19.0,15.0,2.798
42.0,5.0,2.799
73.0,-6.0,2.8
80.0,-25.0,2.801
48.0,-41.0,2.802
8.0,-44.0,2.803
-5.0,-25.0,2.804
0.0,4.0,2.805
-12.0,23.0,2.806
-47.0,23.0,2.807
-73.0,17.0,2.808
-56.0,13.0,2.809
-3.0,10.0,2.81
44.0,4.0,2.811
47.0,1.0,2.812
7.0,2.0,2.813
-32.0,-1.0,2.814
-36.0,-8.0,2.815
-27.0,-11.0,2.816
-47.0,-5.0,2.817
-103.0,-306.0,2.818
-139.0,-293.0,2.819
-113.0,-279.0,2.82
-49.0,-264.0,2.821
-4.0,-245.0,2.822
6.0,-212.0,2.823
9.0,-183.0,2.824
21.0,-167.0,2.825
37.0,-153.0,2.826
44.0,-150.0,2.827
42.0,-136.0,2.828
38.0,-92.0,2.829
36.0,-40.0,2.83
30.0,36.0,2.831
20.0,97.0,2.832
12.0,114.0,2.833
10.0,134.0,2.834
18.0,159.0,2.835
30.0,178.0,2.836
43.0,168.0,2.837
47.0,-226.0,2.838
43.0,-218.0,2.839
31.0,-209.0,2.84
23.0,-199.0,2.841
25.0,-187.0,2.842
33.0,-166.0,2.843
40.0,-147.0,2.844
33.0,-137.0,2.845
7.0,-128.0,2.846
-22.0,-126.0,2.847
-25.0,-117.0,2.848
7.0,-89.0,2.849
64.0,-55.0,2.85
126.0,-6.0,2.851
181.0,33.0,2.852
199.0,44.0,2.853
148.0,57.0,2.854
41.0,73.0,2.855
-55.0,85.0,2.856
-101.0,79.0,2.857
-130.0,71.0,2.858
-186.0,62.0,2.859
-233.0,71.0,2.86
-254.0,81.0,2.861
-247.0,86.0,2.862
-154.0,87.0,2.863
-74.0,85.0,2.864
-36.0,77.0,2.865
-3.0,62.0,2.866
17.0,52.0,2.867
33.0,46.0,2.868
38.0,43.0,2.869
43.0,36.0,2.87
49.0,32.0,2.871
60.0,36.0,2.872
81.0,50.0,2.873
91.0,65.0,2.874
67.0,73.0,2.875
50.0,65.0,2.876
58.0,34.0,2.877
70.0,-34.0,2.878
88.0,-66.0,2.879
72.0,-51.0,2.88
17.0,-13.0,2.881
-22.0,7.0,2.882
11.0,-11.0,2.883
59.0,-38.0,2.884
26.0,-44.0,2.885
-81.0,-20.0,2.886
-155.0,22.0,2.887
-143.0,66.0,2.888
-97.0,101.0,2.889
-77.0,127.0,2.89
-67.0,166.0,2.891
-37.0,235.0,2.892
6.0,304.0,2.893
43.0,320.0,2.894
66.0,287.0,2.895
74.0,266.0,2.896
65.0,281.0,2.897
42.0,243.0,2.898
28.0,100.0,2.899
19.0,-49.0,2.9
29.0,-215.0,2.901
34.0,-364.0,2.902
24.0,-460.0,2.903
16.0,-527.0,2.904
11.0,-501.0,2.905
4.0,-448.0,2.906
-5.0,-312.0,2.907
-16.0,-156.0,2.908
-28.0,60.0,2.909
-36.0,229.0,2.91
-34.0,259.0,2.911
-29.0,224.0,2.912
-13.0,-13.0,2.913
18.0,-199.0,2.914
90.0,-227.0,2.915
161.0,-246.0,2.916
227.0,-236.0,2.917
283.0,-240.0,2.918
268.0,-288.0,2.919
194.0,-287.0,2.92
113.0,-218.0,2.921
94.0,-124.0,2.922
153.0,-45.0,2.923
201.0,38.0,2.924
112.0,132.0,2.925
-117.0,167.0,2.926
-314.0,96.0,2.927
-334.0,5.0,2.928
-238.0,18.0,2.929
-200.0,131.0,2.93
-254.0,224.0,2.931
-291.0,234.0,2.932
-244.0,226.0,2.933
-165.0,265.0,2.934
-93.0,335.0,2.935
-8.0,393.0,2.936
76.0,424.0,2.937
87.0,408.0,2.938
23.0,281.0,2.939
-30.0,17.0,2.94
-53.0,-271.0,2.941
-62.0,-419.0,2.942
-26.0,-430.0,2.943
5.0,-452.0,2.944
21.0,-567.0,2.945
27.0,-690.0,2.946
4.0,-722.0,2.947
-22.0,-664.0,2.948
-60.0,-555.0,2.949
-80.0,-402.0,2.95
-44.0,-234.0,2.951
-12.0,-112.0,2.952
8.0,-45.0,2.953
40.0,18.0,2.954
107.0,79.0,2.955
165.0,80.0,2.956
197.0,44.0,2.957
210.0,69.0,2.958
182.0,200.0,2.959
229.0,321.0,2.96
313.0,304.0,2.961
318.0,204.0,2.962
211.0,168.0,2.963
105.0,238.0,2.964
120.0,328.0,2.965
224.0,365.0,2.966
230.0,371.0,2.967
41.0,395.0,2.968
-215.0,434.0,2.969
-334.0,457.0,2.97
-294.0,440.0,2.971
-244.0,369.0,2.972
-254.0,258.0,2.973
-259.0,181.0,2.974
-227.0,233.0,2.975
-210.0,391.0,2.976
-208.0,493.0,2.977
-137.0,425.0,2.978
1.0,264.0,2.979
73.0,163.0,2.98
31.0,125.0,2.981
17.0,35.0,2.982
135.0,-120.0,2.983
271.0,-199.0,2.984
264.0,-153.0,2.985
144.0,-135.0,2.986
57.0,-257.0,2.987
42.0,-397.0,2.988
13.0,-379.0,2.989
-88.0,-225.0,2.99
-227.0,-73.0,2.991
-333.0,28.0,2.992
-366.0,108.0,2.993
-326.0,111.0,2.994
-231.0,-27.0,2.995
-75.0,-229.0,2.996
137.0,-344.0,2.997
348.0,-364.0,2.998
448.0,-371.0,2.999
504.0,-368.0,3.0
426.0,-333.0,3.001
332.0,-289.0,3.002
187.0,-218.0,3.003
33.0,-152.0,3.004
-144.0,-106.0,3.005
-262.0,-79.0,3.006
-198.0,-111.0,3.007
-185.0,-131.0,3.008
-325.0,-117.0,3.009
-403.0,-98.0,3.01
-294.0,-63.0,3.011
-200.0,-24.0,3.012
-150.0,29.0,3.013
-107.0,79.0,3.014
-84.0,117.0,3.015
-53.0,142.0,3.016
2.0,127.0,3.017
38.0,117.0,3.018
12.0,116.0,3.019
9.0,96.0,3.02
43.0,80.0,3.021
66.0,88.0,3.022
64.0,95.0,3.023
72.0,95.0,3.024
98.0,127.0,3.025
119.0,208.0,3.026
125.0,277.0,3.027
134.0,264.0,3.028
146.0,166.0,3.029
141.0,43.0,3.03
114.0,-48.0,3.031
96.0,-99.0,3.032
99.0,-125.0,3.033
108.0,-137.0,3.034
101.0,-133.0,3.035
89.0,-122.0,3.036
74.0,-118.0,3.037
45.0,-118.0,3.038
6.0,-97.0,3.039
-27.0,-53.0,3.04
-44.0,-14.0,3.041
-49.0,7.0,3.042
-49.0,22.0,3.043
-44.0,36.0,3.044
-39.0,30.0,3.045
-36.0,-19.0,3.046
-27.0,-84.0,3.047
-9.0,-110.0,3.048
2.0,-72.0,3.049
-6.0,-3.0,3.05
-15.0,40.0,3.051
3.0,46.0,3.052
46.0,39.0,3.053
84.0,29.0,3.054
96.0,-2.0,3.055
87.0,-54.0,3.056
65.0,-78.0,3.057
22.0,-39.0,3.058
-18.0,33.0,3.059
-34.0,87.0,3.06
-25.0,83.0,3.061
-21.0,87.0,3.062
-32.0,115.0,3.063
-44.0,134.0,3.064
-45.0,126.0,3.065
-46.0,119.0,3.066
-53.0,119.0,3.067
-61.0,118.0,3.068
-63.0,110.0,3.069
-60.0,101.0,3.07
-56.0,93.0,3.071
-49.0,83.0,3.072
-42.0,68.0,3.073
-35.0,50.0,3.074
-32.0,26.0,3.075
-29.0,-6.0,3.076
-25.0,-63.0,3.077
-28.0,-112.0,3.078
-33.0,-113.0,3.079
-38.0,-102.0,3.08
-43.0,-111.0,3.081
-47.0,-117.0,3.082
-45.0,-102.0,3.083
-35.0,-71.0,3.084
-19.0,-47.0,3.085
-2.0,-33.0,3.086
18.0,-25.0,3.087
45.0,-29.0,3.088
77.0,-33.0,3.089
112.0,-28.0,3.09
139.0,-36.0,3.091
157.0,-85.0,3.092
156.0,-145.0,3.093
139.0,-148.0,3.094
105.0,-75.0,3.095
56.0,2.0,3.096
2.0,27.0,3.097
-43.0,27.0,3.098
-72.0,47.0,3.099
-97.0,80.0,3.1
-119.0,82.0,3.101
-115.0,59.0,3.102
-73.0,44.0,3.103
-26.0,39.0,3.104
-12.0,21.0,3.105
-15.0,-7.0,3.106
3.0,-22.0,3.107
38.0,-15.0,3.108
47.0,2.0,3.109
11.0,27.0,3.11
-27.0,49.0,3.111
-16.0,54.0,3.112
51.0,40.0,3.113
128.0,18.0,3.114
169.0,-6.0,3.115
162.0,-43.0,3.116
128.0,-76.0,3.117
71.0,-272.0,3.118
-9.0,-167.0,3.119
-92.0,-76.0,3.12
-128.0,-32.0,3.121
-96.0,15.0,3.122
-45.0,74.0,3.123
-29.0,124.0,3.124
-42.0,140.0,3.125
-25.0,155.0,3.126
33.0,166.0,3.127
78.0,174.0,3.128
67.0,167.0,3.129
30.0,145.0,3.13
10.0,75.0,3.131
-7.0,25.0,3.132
-60.0,35.0,3.133
-134.0,42.0,3.134
-153.0,44.0,3.135
-89.0,48.0,3.136
-7.0,53.0,3.137
15.0,-229.0,3.138
-14.0,-138.0,3.139
-33.0,-60.0,3.14
-15.0,-22.0,3.141
5.0,19.0,3.142
30.0,71.0,3.143
52.0,114.0,3.144
66.0,128.0,3.145
79.0,141.0,3.146
87.0,150.0,3.147
99.0,157.0,3.148
122.0,151.0,3.149
136.0,132.0,3.15
120.0,72.0,3.151
89.0,28.0,3.152
18.0,36.0,3.153
-45.0,42.0,3.154
-86.0,44.0,3.155
-112.0,48.0,3.156
-89.0,53.0,3.157
-86.0,56.0,3.158
-150.0,42.0,3.159
-164.0,39.0,3.16
-118.0,61.0,3.161
-77.0,89.0,3.162
-58.0,101.0,3.163
-22.0,97.0,3.164
17.0,89.0,3.165
7.0,73.0,3.166
-49.0,37.0,3.167
-67.0,-10.0,3.168
11.0,-55.0,3.169
142.0,-89.0,3.17
233.0,-109.0,3.171
232.0,-116.0,3.172
163.0,-114.0,3.173
80.0,-104.0,3.174
5.0,-74.0,3.175
-68.0,-21.0,3.176
-126.0,27.0,3.177
-128.0,39.0,3.178
-63.0,21.0,3.179
6.0,12.0,3.18
20.0,28.0,3.181
0.0,49.0,3.182
0.0,48.0,3.183
15.0,31.0,3.184
10.0,12.0,3.185
-8.0,-1.0,3.186
-8.0,-11.0,3.187
1.0,-23.0,3.188
-3.0,-26.0,3.189
-13.0,-24.0,3.19
-5.0,-25.0,3.191
12.0,-29.0,3.192
13.0,-30.0,3.193
13.0,-34.0,3.194
30.0,-51.0,3.195
50.0,-84.0,3.196
46.0,-106.0,3.197
23.0,-103.0,3.198
7.0,-74.0,3.199
6.0,-43.0,3.2
10.0,-29.0,3.201
10.0,-19.0,3.202
-3.0,-2.0,3.203
-43.0,27.0,3.204
-104.0,60.0,3.205
-131.0,82.0,3.206
-86.0,82.0,3.207
0.0,65.0,3.208
59.0,49.0,3.209
76.0,43.0,3.21
89.0,38.0,3.211
115.0,19.0,3.212
136.0,-2.0,3.213
139.0,-13.0,3.214
138.0,-21.0,3.215
138.0,-44.0,3.216
134.0,-64.0,3.217
125.0,-48.0,3.218
98.0,2.0,3.219
15.0,33.0,3.22
-138.0,21.0,3.221
-296.0,27.0,3.222
-370.0,82.0,3.223
-340.0,131.0,3.224
-248.0,125.0,3.225
-136.0,110.0,3.226
-42.0,157.0,3.227
10.0,240.0,3.228
29.0,275.0,3.229
48.0,234.0,3.23
70.0,162.0,3.231
64.0,84.0,3.232
42.0,-5.0,3.233
53.0,-104.0,3.234
109.0,-185.0,3.235
167.0,-242.0,3.236
191.0,-283.0,3.237
168.0,-313.0,3.238
104.0,-323.0,3.239
23.0,-324.0,3.24
-19.0,-330.0,3.241
-1.0,-327.0,3.242
30.0,-299.0,3.243
14.0,-246.0,3.244
-35.0,-174.0,3.245
-69.0,-74.0,3.246
-69.0,47.0,3.247
-59.0,151.0,3.248
-66.0,209.0,3.249
-88.0,231.0,3.25
-76.0,237.0,3.251
20.0,208.0,3.252
167.0,128.0,3.253
247.0,29.0,3.254
195.0,-37.0,3.255
95.0,-72.0,3.256
60.0,-103.0,3.257
74.0,-140.0,3.258
42.0,-135.0,3.259
-75.0,-57.0,3.26
-204.0,53.0,3.261
-274.0,136.0,3.262
-286.0,162.0,3.263
-278.0,162.0,3.264
-253.0,173.0,3.265
-205.0,193.0,3.266
-149.0,187.0,3.267
-117.0,138.0,3.268
-103.0,74.0,3.269
-67.0,34.0,3.27
17.0,29.0,3.271
136.0,40.0,3.272
237.0,45.0,3.273
272.0,25.0,3.274
233.0,-15.0,3.275
154.0,-43.0,3.276
99.0,-23.0,3.277
101.0,41.0,3.278
143.0,94.0,3.279
178.0,91.0,3.28
170.0,50.0,3.281
105.0,56.0,3.282
2.0,129.0,3.283
-98.0,202.0,3.284
-151.0,189.0,3.285
-148.0,90.0,3.286
-123.0,-28.0,3.287
-103.0,-116.0,3.288
-74.0,-188.0,3.289
-20.0,-271.0,3.29
36.0,-341.0,3.291
61.0,-353.0,3.292
53.0,-303.0,3.293
39.0,-241.0,3.294
24.0,-206.0,3.295
0.0,-188.0,3.296
-23.0,-162.0,3.297
-14.0,-119.0,3.298
32.0,-69.0,3.299
74.0,-17.0,3.3
77.0,23.0,3.301
67.0,43.0,3.302
87.0,45.0,3.303
129.0,51.0,3.304
142.0,69.0,3.305
100.0,77.0,3.306
29.0,57.0,3.307
-36.0,43.0,3.308
-80.0,68.0,3.309
-86.0,113.0,3.31
-31.0,122.0,3.311
64.0,84.0,3.312
127.0,52.0,3.313
90.0,56.0,3.314
-15.0,70.0,3.315
-96.0,56.0,3.316
-98.0,32.0,3.317
-71.0,27.0,3.318
-85.0,44.0,3.319
-138.0,59.0,3.32
-154.0,60.0,3.321
-110.0,65.0,3.322
-65.0,70.0,3.323
-75.0,60.0,3.324
-120.0,41.0,3.325
-142.0,31.0,3.326
-121.0,23.0,3.327
-75.0,-2.0,3.328
-25.0,-42.0,3.329
15.0,-68.0,3.33
37.0,-67.0,3.331
42.0,-49.0,3.332
44.0,-27.0,3.333
52.0,-11.0,3.334
66.0,-5.0,3.335
95.0,-4.0,3.336
150.0,-5.0,3.337
217.0,-21.0,3.338
246.0,-40.0,3.339
191.0,-33.0,3.34
70.0,13.0,3.341
-55.0,88.0,3.342
-138.0,160.0,3.343
-158.0,222.0,3.344
-134.0,266.0,3.345
-94.0,255.0,3.346
-69.0,181.0,3.347
-70.0,85.0,3.348
-70.0,18.0,3.349
-42.0,-29.0,3.35
-4.0,-91.0,3.351
9.0,-158.0,3.352
-3.0,-198.0,3.353
7.0,-220.0,3.354
77.0,-259.0,3.355
183.0,-311.0,3.356
259.0,-342.0,3.357
257.0,-342.0,3.358
183.0,-310.0,3.359
103.0,-233.0,3.36
2.0,-96.0,3.361
-84.0,67.0,3.362
-125.0,178.0,3.363
-153.0,194.0,3.364
-138.0,134.0,3.365
-118.0,59.0,3.366
-82.0,14.0,3.367
-43.0,6.0,3.368
-1.0,10.0,3.369
31.0,8.0,3.37
31.0,11.0,3.371
26.0,40.0,3.372
12.0,85.0,3.373
11.0,109.0,3.374
47.0,110.0,3.375
81.0,111.0,3.376
107.0,125.0,3.377
119.0,133.0,3.378
54.0,132.0,3.379
-28.0,135.0,3.38
-64.0,136.0,3.381
-51.0,120.0,3.382
-58.0,84.0,3.383
-109.0,60.0,3.384
-142.0,60.0,3.385
-107.0,55.0,3.386
-45.0,17.0,3.387
-31.0,-43.0,3.388
-58.0,-92.0,3.389
-58.0,-110.0,3.39
-11.0,-108.0,3.391
40.0,-102.0,3.392
55.0,-100.0,3.393
45.0,-97.0,3.394
38.0,-84.0,3.395
51.0,-68.0,3.396
72.0,-58.0,3.397
79.0,-75.0,3.398
65.0,-118.0,3.399
40.0,-160.0,3.4
31.0,-173.0,3.401
32.0,-156.0,3.402
23.0,-146.0,3.403
7.0,-155.0,3.404
0.0,-150.0,3.405
9.0,-91.0,3.406
22.0,5.0,3.407
40.0,89.0,3.408
66.0,125.0,3.409
92.0,117.0,3.41
103.0,90.0,3.411
96.0,60.0,3.412
74.0,40.0,3.413
25.0,43.0,3.414
-56.0,70.0,3.415
-133.0,110.0,3.416
-159.0,152.0,3.417
-142.0,195.0,3.418
-112.0,248.0,3.419
-76.0,295.0,3.42
-4.0,292.0,3.421
102.0,214.0,3.422
186.0,86.0,3.423
192.0,-36.0,3.424
114.0,-125.0,3.425
-2.0,-198.0,3.426
-111.0,-254.0,3.427
-194.0,-259.0,3.428
-258.0,-192.0,3.429
-306.0,-83.0,3.43
-309.0,15.0,3.431
-235.0,74.0,3.432
-107.0,76.0,3.433
4.0,22.0,3.434
47.0,-49.0,3.435
45.0,-87.0,3.436
49.0,-71.0,3.437
92.0,-28.0,3.438
159.0,10.0,3.439
217.0,47.0,3.44
245.0,79.0,3.441
249.0,100.0,3.442
177.0,87.0,3.443
91.0,68.0,3.444
-34.0,32.0,3.445
-131.0,-2.0,3.446
-137.0,-31.0,3.447
-118.0,-65.0,3.448
-24.0,-113.0,3.449
62.0,-143.0,3.45
128.0,-118.0,3.451
177.0,-93.0,3.452
175.0,-69.0,3.453
143.0,-48.0,3.454
18.0,-35.0,3.455
-81.0,-25.0,3.456
-103.0,-25.0,3.457
-108.0,-22.0,3.458
-60.0,-20.0,3.459
-15.0,-34.0,3.46
46.0,-60.0,3.461
107.0,-70.0,3.462
115.0,-65.0,3.463
59.0,-68.0,3.464
0.0,-69.0,3.465
-5.0,-26.0,3.466
19.0,75.0,3.467
4.0,182.0,3.468
-60.0,235.0,3.469
-109.0,235.0,3.47
-111.0,217.0,3.471
-104.0,190.0,3.472
-125.0,140.0,3.473
-154.0,75.0,3.474
-160.0,26.0,3.475
-150.0,1.0,3.476
-145.0,-25.0,3.477
-128.0,-84.0,3.478
-72.0,-147.0,3.479
8.0,-169.0,3.48
75.0,-148.0,3.481
133.0,-115.0,3.482
202.0,-94.0,3.483
256.0,-68.0,3.484
237.0,-17.0,3.485
159.0,38.0,3.486
99.0,53.0,3.487
102.0,27.0,3.488
127.0,13.0,3.489
106.0,51.0,3.49
14.0,112.0,3.491
-119.0,144.0,3.492
-218.0,140.0,3.493
-221.0,131.0,3.494
-143.0,126.0,3.495
-68.0,106.0,3.496
-39.0,78.0,3.497
-11.0,65.0,3.498
45.0,72.0,3.499
82.0,46.0,3.5
47.0,-48.0,3.501
-12.0,-169.0,3.502
-7.0,-258.0,3.503
55.0,-300.0,3.504
95.0,-317.0,3.505
76.0,-302.0,3.506
27.0,-226.0,3.507
-31.0,-96.0,3.508
-70.0,29.0,3.509
-47.0,88.0,3.51
19.0,88.0,3.511
34.0,98.0,3.512
-49.0,151.0,3.513
-133.0,197.0,3.514
-122.0,175.0,3.515
-59.0,106.0,3.516
-31.0,73.0,3.517
2.0,83.0,3.518
95.0,70.0,3.519
169.0,-12.0,3.52
185.0,-112.0,3.521
198.0,-150.0,3.522
203.0,-136.0,3.523
177.0,-124.0,3.524
56.0,-122.0,3.525
-59.0,-97.0,3.526
-158.0,-42.0,3.527
-232.0,18.0,3.528
-228.0,73.0,3.529
-214.0,140.0,3.53
-174.0,225.0,3.531
-134.0,292.0,3.532
-100.0,294.0,3.533
-62.0,232.0,3.534
-8.0,158.0,3.535
45.0,109.0,3.536
98.0,69.0,3.537
146.0,0.0,3.538
159.0,-84.0,3.539
139.0,-154.0,3.54
86.0,-213.0,3.541
26.0,-273.0,3.542
-21.0,-319.0,3.543
-63.0,-313.0,3.544
-109.0,-254.0,3.545
-127.0,-166.0,3.546
-89.0,-58.0,3.547
-15.0,52.0,3.548
46.0,121.0,3.549
81.0,117.0,3.55
101.0,80.0,3.551
120.0,62.0,3.552
141.0,36.0,3.553
155.0,-56.0,3.554
157.0,-188.0,3.555
153.0,-265.0,3.556
156.0,-249.0,3.557
166.0,-183.0,3.558
179.0,-101.0,3.559
170.0,9.0,3.56
107.0,154.0,3.561
-24.0,279.0,3.562
-173.0,323.0,3.563
-262.0,291.0,3.564
-275.0,222.0,3.565
-279.0,130.0,3.566
-323.0,24.0,3.567
-362.0,-41.0,3.568
-323.0,-18.0,3.569
-204.0,51.0,3.57
-68.0,71.0,3.571
25.0,17.0,3.572
77.0,-34.0,3.573
126.0,-25.0,3.574
196.0,24.0,3.575
250.0,66.0,3.576
227.0,81.0,3.577
136.0,58.0,3.578
79.0,-5.0,3.579
102.0,-82.0,3.58
107.0,-112.0,3.581
26.0,-86.0,3.582
-43.0,-68.0,3.583
13.0,-96.0,3.584
108.0,-135.0,3.585
80.0,-134.0,3.586
-47.0,-99.0,3.587
-112.0,-66.0,3.588
-83.0,-51.0,3.589
-73.0,-52.0,3.59
-116.0,-72.0,3.591
-120.0,-97.0,3.592
-58.0,-98.0,3.593
-2.0,-61.0,3.594
18.0,-11.0,3.595
60.0,27.0,3.596
124.0,51.0,3.597
123.0,93.0,3.598
46.0,174.0,3.599
-10.0,288.0,3.6
-3.0,375.0,3.601
8.0,367.0,3.602
30.0,248.0,3.603
46.0,95.0,3.604
37.0,3.0,3.605
23.0,-22.0,3.606
-5.0,-33.0,3.607
-16.0,-45.0,3.608
25.0,-27.0,3.609
59.0,17.0,3.61
65.0,41.0,3.611
46.0,14.0,3.612
-54.0,-42.0,3.613
-126.0,-97.0,3.614
-115.0,-125.0,3.615
-114.0,-119.0,3.616
-143.0,-106.0,3.617
-174.0,-137.0,3.618
-163.0,-202.0,3.619
-78.0,-223.0,3.62
4.0,-159.0,3.621
24.0,-72.0,3.622
21.0,-45.0,3.623
61.0,-57.0,3.624
136.0,-47.0,3.625
180.0,-16.0,3.626
150.0,2.0,3.627
75.0,29.0,3.628
23.0,87.0,3.629
27.0,132.0,3.63
56.0,100.0,3.631
55.0,21.0,3.632
35.0,-23.0,3.633
45.0,-16.0,3.634
89.0,-9.0,3.635
112.0,-23.0,3.636
84.0,-28.0,3.637
18.0,-9.0,3.638
-34.0,18.0,3.639
-83.0,40.0,3.64
-133.0,70.0,3.641
-176.0,123.0,3.642
-207.0,191.0,3.643
-220.0,269.0,3.644
-179.0,333.0,3.645
-73.0,326.0,3.646
30.0,202.0,3.647
52.0,9.0,3.648
16.0,-144.0,3.649
8.0,-206.0,3.65
39.0,-212.0,3.651
40.0,-210.0,3.652
-5.0,-201.0,3.653
-35.0,-171.0,3.654
0.0,-143.0,3.655
88.0,-140.0,3.656
194.0,-148.0,3.657
303.0,-147.0,3.658
370.0,-127.0,3.659
352.0,-86.0,3.66
260.0,-22.0,3.661
153.0,70.0,3.662
59.0,166.0,3.663
-55.0,231.0,3.664
-206.0,218.0,3.665
-339.0,122.0,3.666
-383.0,5.0,3.667
-341.0,-48.0,3.668
-290.0,-45.0,3.669
-270.0,-63.0,3.67
-238.0,-107.0,3.671
-145.0,-102.0,3.672
-28.0,-33.0,3.673
37.0,10.0,3.674
58.0,-18.0,3.675
90.0,-50.0,3.676
133.0,-26.0,3.677
132.0,18.0,3.678
99.0,55.0,3.679
81.0,109.0,3.68
110.0,193.0,3.681
119.0,249.0,3.682
67.0,246.0,3.683
28.0,225.0,3.684
29.0,204.0,3.685
36.0,139.0,3.686
61.0,23.0,3.687
85.0,-66.0,3.688
105.0,-84.0,3.689
127.0,-77.0,3.69
155.0,-103.0,3.691
151.0,-153.0,3.692
51.0,-184.0,3.693
-41.0,-189.0,3.694
-106.0,-178.0,3.695
-149.0,-170.0,3.696
-123.0,-181.0,3.697
-93.0,-209.0,3.698
-57.0,-212.0,3.699
-56.0,-157.0,3.7
-73.0,-86.0,3.701
-75.0,-46.0,3.702
-52.0,-25.0,3.703
-22.0,20.0,3.704
2.0,82.0,3.705
20.0,118.0,3.706
34.0,130.0,3.707
44.0,148.0,3.708
60.0,160.0,3.709
93.0,132.0,3.71
125.0,84.0,3.711
139.0,66.0,3.712
138.0,74.0,3.713
121.0,72.0,3.714
56.0,65.0,3.715
-73.0,81.0,3.716
-190.0,98.0,3.717
-213.0,70.0,3.718
-162.0,6.0,3.719
-176.0,-34.0,3.72
-263.0,-30.0,3.721
-269.0,-3.0,3.722
-103.0,25.0,3.723
100.0,60.0,3.724
159.0,92.0,3.725
91.0,97.0,3.726
49.0,76.0,3.727
63.0,35.0,3.728
50.0,-36.0,3.729
5.0,-136.0,3.73
31.0,-214.0,3.731
136.0,-216.0,3.732
214.0,-170.0,3.733
219.0,-143.0,3.734
220.0,-147.0,3.735
244.0,-129.0,3.736
227.0,-68.0,3.737
135.0,16.0,3.738
32.0,93.0,3.739
-36.0,148.0,3.74
-107.0,164.0,3.741
-205.0,144.0,3.742
-258.0,111.0,3.743
-208.0,80.0,3.744
-122.0,32.0,3.745
-93.0,-45.0,3.746
-119.0,-91.0,3.747
-139.0,-38.0,3.748
-133.0,78.0,3.749
-117.0,147.0,3.75
-82.0,116.0,3.751
-21.0,30.0,3.752
25.0,-52.0,3.753
16.0,-113.0,3.754
-7.0,-157.0,3.755
12.0,-182.0,3.756
34.0,-193.0,3.757
-7.0,-208.0,3.758
-55.0,-225.0,3.759
-51.0,-219.0,3.76
109.0,-188.0,3.761
229.0,-139.0,3.762
229.0,-89.0,3.763
221.0,-42.0,3.764
193.0,-2.0,3.765
151.0,35.0,3.766
73.0,81.0,3.767
-2.0,132.0,3.768
-66.0,166.0,3.769
-105.0,173.0,3.77
-69.0,172.0,3.771
-33.0,187.0,3.772
4.0,216.0,3.773
36.0,246.0,3.774
56.0,264.0,3.775
71.0,255.0,3.776
71.0,221.0,3.777
71.0,183.0,3.778
61.0,173.0,3.779
17.0,181.0,3.78
-74.0,147.0,3.781
-170.0,56.0,3.782
-191.0,-49.0,3.783
-130.0,-112.0,3.784
-70.0,-120.0,3.785
-62.0,-105.0,3.786
-61.0,-106.0,3.787
-26.0,-142.0,3.788
3.0,-190.0,3.789
-23.0,-200.0,3.79
-70.0,-156.0,3.791
-75.0,-110.0,3.792
-44.0,-122.0,3.793
-33.0,-176.0,3.794
-48.0,-202.0,3.795
-40.0,-180.0,3.796
0.0,-149.0,3.797
54.0,-125.0,3.798
83.0,-87.0,3.799
97.0,-42.0,3.8
112.0,-30.0,3.801
144.0,-38.0,3.802
191.0,-8.0,3.803
216.0,75.0,3.804
159.0,147.0,3.805
34.0,138.0,3.806
-67.0,68.0,3.807
-89.0,12.0,3.808
-78.0,14.0,3.809
-95.0,52.0,3.81
-122.0,91.0,3.811
-112.0,110.0,3.812
-68.0,108.0,3.813
-21.0,83.0,3.814
27.0,36.0,3.815
75.0,-20.0,3.816
92.0,-55.0,3.817
61.0,-71.0,3.818
16.0,-79.0,3.819
7.0,-85.0,3.82
33.0,-83.0,3.821
56.0,-67.0,3.822
47.0,-48.0,3.823
19.0,-26.0,3.824
2.0,11.0,3.825
11.0,59.0,3.826
33.0,89.0,3.827
39.0,96.0,3.828
18.0,107.0,3.829
-12.0,130.0,3.83
-28.0,137.0,3.831
-35.0,115.0,3.832
-46.0,84.0,3.833
-58.0,63.0,3.834
-56.0,42.0,3.835
-38.0,26.0,3.836
-17.0,24.0,3.837
-8.0,32.0,3.838
-5.0,18.0,3.839
1.0,-28.0,3.84
13.0,-71.0,3.841
21.0,-71.0,3.842
14.0,-35.0,3.843
4.0,0.0,3.844
-16.0,18.0,3.845
-34.0,24.0,3.846
-47.0,16.0,3.847
-50.0,-5.0,3.848
-22.0,-40.0,3.849
6.0,-70.0,3.85
34.0,-85.0,3.851
48.0,-93.0,3.852
18.0,-101.0,3.853
-6.0,-104.0,3.854
-15.0,-96.0,3.855
-16.0,-77.0,3.856
5.0,-60.0,3.857
24.0,-46.0,3.858
22.0,-25.0,3.859
17.0,7.0,3.86
39.0,31.0,3.861
81.0,31.0,3.862
114.0,9.0,3.863
117.0,-7.0,3.864
84.0,1.0,3.865
38.0,18.0,3.866
13.0,23.0,3.867
20.0,14.0,3.868
31.0,12.0,3.869
10.0,27.0,3.87
-45.0,46.0,3.871
-107.0,53.0,3.872
-159.0,44.0,3.873
-189.0,27.0,3.874
-181.0,14.0,3.875
-137.0,12.0,3.876
-79.0,18.0,3.877
-5.0,17.0,3.878
63.0,10.0,3.879
106.0,2.0,3.88
92.0,-3.0,3.881
37.0,2.0,3.882
0.0,18.0,3.883
-3.0,38.0,3.884
-9.0,50.0,3.885
-36.0,41.0,3.886
-50.0,14.0,3.887
-24.0,-6.0,3.888
14.0,-10.0,3.889
30.0,-11.0,3.89
28.0,-18.0,3.891
38.0,-29.0,3.892
62.0,-36.0,3.893
90.0,-42.0,3.894
117.0,-44.0,3.895
137.0,-31.0,3.896
137.0,-1.0,3.897
110.0,16.0,3.898
54.0,10.0,3.899
-17.0,3.0,3.9
-82.0,16.0,3.901
-104.0,39.0,3.902
-68.0,35.0,3.903
-9.0,6.0,3.904
18.0,-12.0,3.905
-6.0,-11.0,3.906
-47.0,-17.0,3.907
-63.0,-38.0,3.908
-54.0,-50.0,3.909
-35.0,-43.0,3.91
-16.0,-33.0,3.911
1.0,-38.0,3.912
15.0,-42.0,3.913
16.0,-35.0,3.914
11.0,-24.0,3.915
6.0,-14.0,3.916
5.0,-2.0,3.917
5.0,13.0,3.918
15.0,20.0,3.919
25.0,12.0,3.92
29.0,0.0,3.921
29.0,-2.0,3.922
19.0,6.0,3.923
12.0,18.0,3.924
10.0,30.0,3.925
7.0,33.0,3.926
0.0,23.0,3.927
-7.0,8.0,3.928
-13.0,1.0,3.929
-19.0,5.0,3.93
-24.0,13.0,3.931
-26.0,22.0,3.932
-16.0,25.0,3.933
-6.0,17.0,3.934
6.0,-2.0,3.935
17.0,-17.0,3.936
25.0,-14.0,3.937
28.0,-1.0,3.938
12.0,6.0,3.939
-1.0,0.0,3.94
-2.0,-11.0,3.941
1.0,-9.0,3.942
11.0,-3.0,3.943
22.0,0.0,3.944
19.0,0.0,3.945
2.0,-2.0,3.946
-6.0,-4.0,3.947
0.0,-5.0,3.948
4.0,-2.0,3.949
-4.0,-2.0,3.95
-10.0,-2.0,3.951
-4.0,1.0,3.952
0.0,11.0,3.953
-6.0,14.0,3.954
-11.0,6.0,3.955
-6.0,-3.0,3.956
0.0,0.0,3.957
-3.0,2.0,3.958
-6.0,-1.0,3.959
-1.0,-8.0,3.96
8.0,-12.0,3.961
11.0,-9.0,3.962
11.0,-5.0,3.963
10.0,1.0,3.964
5.0,9.0,3.965
-2.0,13.0,3.966
-4.0,7.0,3.967
-1.0,-3.0,3.968
-1.0,-7.0,3.969
-8.0,-1.0,3.97
-13.0,6.0,3.971
-8.0,5.0,3.972
-2.0,-2.0,3.973
1.0,-10.0,3.974
5.0,-9.0,3.975
11.0,-2.0,3.976
17.0,3.0,3.977
20.0,0.0,3.978
20.0,-3.0,3.979
13.0,-5.0,3.98
9.0,-7.0,3.981
28.0,-6.0,3.982
69.0,-5.0,3.983
96.0,-3.0,3.984
63.0,-3.0,3.985
-19.0,-1.0,3.986
-84.0,2.0,3.987
-84.0,1.0,3.988
-53.0,1.0,3.989
-50.0,8.0,3.99
-76.0,12.0,3.991
-76.0,8.0,3.992
-34.0,2.0,3.993
10.0,3.0,3.994
24.0,4.0,3.995
28.0,-11.0,3.996
45.0,-26.0,3.997
55.0,-26.0,3.998
39.0,-8.0,3.999
18.0,0.0,4.0
29.0,-8.0,4.001
59.0,-12.0,4.002
65.0,-2.0,4.003
32.0,4.0,4.004
-6.0,0.0,4.005
-17.0,-2.0,4.006
-8.0,4.0,4.007
-6.0,8.0,4.008
-19.0,4.0,4.009
-33.0,0.0,4.01
-31.0,-2.0,4.011
-6.0,-4.0,4.012
23.0,0.0,4.013
29.0,8.0,4.014
10.0,10.0,4.015
-9.0,-1.0,4.016
-8.0,-10.0,4.017
2.0,-4.0,4.018
11.0,3.0,4.019
13.0,-3.0,4.02
18.0,-15.0,4.021
22.0,-11.0,4.022
16.0,1.0,4.023
2.0,7.0,4.024
-7.0,4.0,4.025
-8.0,5.0,4.026
-5.0,8.0,4.027
-3.0,4.0,4.028
-6.0,0.0,4.029
-18.0,4.0,4.03
-33.0,10.0,4.031
-52.0,7.0,4.032
-72.0,3.0,4.033
-86.0,4.0,4.034
-67.0,4.0,4.035
-7.0,-3.0,4.036
54.0,-8.0,4.037
82.0,-10.0,4.038
73.0,-10.0,4.039
56.0,-15.0,4.04
60.0,-17.0,4.041
69.0,-6.0,4.042
56.0,7.0,4.043
17.0,13.0,4.044
-22.0,14.0,4.045
-33.0,14.0,4.046
-11.0,12.0,4.047
15.0,6.0,4.048
18.0,3.0,4.049
9.0,8.0,4.05
9.0,10.0,4.051
17.0,3.0,4.052
18.0,-3.0,4.053
2.0,-4.0,4.054
-20.0,0.0,4.055
-37.0,0.0,4.056
-39.0,-1.0,4.057
-21.0,-2.0,4.058
11.0,-4.0,4.059
32.0,-6.0,4.06
21.0,-9.0,4.061
-14.0,-12.0,4.062
-49.0,-12.0,4.063
-63.0,-10.0,4.064
-48.0,-4.0,4.065
-14.0,1.0,4.066
15.0,1.0,4.067
25.0,2.0,4.068
22.0,2.0,4.069
22.0,3.0,4.07
31.0,5.0,4.071
32.0,7.0,4.072
22.0,4.0,4.073
14.0,1.0,4.074
15.0,-3.0,4.075
17.0,-5.0,4.076
13.0,0.0,4.077
2.0,4.0,4.078
-1.0,0.0,4.079
-2.0,-6.0,4.08
-5.0,-10.0,4.081
-7.0,-7.0,4.082
-1.0,-4.0,4.083
10.0,-6.0,4.084
16.0,-9.0,4.085
15.0,-12.0,4.086
14.0,-15.0,4.087
12.0,-13.0,4.088
8.0,-5.0,4.089
1.0,1.0,4.09
-1.0,2.0,4.091
0.0,1.0,4.092
0.0,4.0,4.093
-2.0,3.0,4.094
0.0,-2.0,4.095
11.0,-5.0,4.096
26.0,-4.0,4.097
35.0,-5.0,4.098
35.0,-6.0,4.099
29.0,-5.0,4.1
9.0,-4.0,4.101
-9.0,-5.0,4.102
-23.0,-4.0,4.103
-35.0,2.0,4.104
-39.0,10.0,4.105
-39.0,12.0,4.106
-29.0,7.0,4.107
-20.0,4.0,4.108
-13.0,5.0,4.109
-4.0,7.0,4.11
12.0,5.0,4.111
24.0,2.0,4.112
26.0,2.0,4.113
23.0,4.0,4.114
1.0,6.0,4.115
-15.0,6.0,4.116
-18.0,5.0,4.117
-18.0,2.0,4.118
-6.0,0.0,4.119
6.0,-2.0,4.12
3.0,-4.0,4.121
-12.0,-6.0,4.122
-21.0,-5.0,4.123
-11.0,-4.0,4.124
3.0,-2.0,4.125
12.0,0.0,4.126
21.0,1.0,4.127
41.0,4.0,4.128
59.0,4.0,4.129
57.0,5.0,4.13
34.0,7.0,4.131
6.0,9.0,4.132
-12.0,6.0,4.133
-17.0,3.0,4.134
-15.0,3.0,4.135
-12.0,2.0,4.136
-5.0,2.0,4.137
2.0,0.0,4.138
9.0,-1.0,4.139
7.0,0.0,4.14
-5.0,-4.0,4.141
-18.0,-7.0,4.142
-24.0,-6.0,4.143
-19.0,0.0,4.144
-12.0,1.0,4.145
-5.0,-1.0,4.146
2.0,-2.0,4.147
5.0,3.0,4.148
-4.0,16.0,4.149
-23.0,34.0,4.15
-32.0,49.0,4.151
-22.0,50.0,4.152
-5.0,29.0,4.153
5.0,0.0,4.154
12.0,-18.0,4.155
31.0,-27.0,4.156
57.0,-37.0,4.157
-74.0,-52.0,4.158
-88.0,-56.0,4.159
-79.0,-59.0,4.16
0.0,-58.0,4.161
64.0,-54.0,4.162
70.0,-43.0,4.163
81.0,-31.0,4.164
92.0,-21.0,4.165
92.0,-11.0,4.166
42.0,-1.0,4.167
5.0,9.0,4.168
-6.0,22.0,4.169
-19.0,32.0,4.17
-36.0,36.0,4.171
-36.0,45.0,4.172
13.0,72.0,4.173
64.0,95.0,4.174
127.0,104.0,4.175
176.0,106.0,4.176
179.0,81.0,4.177
-7.0,63.0,4.178
-12.0,96.0,4.179
-9.0,160.0,4.18
20.0,180.0,4.181
44.0,121.0,4.182
46.0,6.0,4.183
50.0,-106.0,4.184
54.0,-177.0,4.185
54.0,-199.0,4.186
36.0,-182.0,4.187
22.0,-148.0,4.188
18.0,-131.0,4.189
13.0,-138.0,4.19
7.0,-145.0,4.191
7.0,-127.0,4.192
25.0,-92.0,4.193
44.0,-70.0,4.194
67.0,-70.0,4.195
85.0,-69.0,4.196
86.0,-56.0,4.197
80.0,-34.0,4.198
50.0,-16.0,4.199
23.0,6.0,4.2
1.0,33.0,4.201
-17.0,53.0,4.202
-30.0,56.0,4.203
-40.0,48.0,4.204
-50.0,48.0,4.205
-53.0,58.0,4.206
-41.0,65.0,4.207
-20.0,62.0,4.208
-5.0,60.0,4.209
-3.0,68.0,4.21
1.0,78.0,4.211
11.0,86.0,4.212
14.0,89.0,4.213
4.0,100.0,4.214
-1.0,123.0,4.215
3.0,151.0,4.216
7.0,168.0,4.217
2.0,152.0,4.218
-2.0,100.0,4.219
2.0,34.0,4.22
11.0,-21.0,4.221
17.0,-50.0,4.222
22.0,-66.0,4.223
24.0,-82.0,4.224
13.0,-103.0,4.225
-13.0,-120.0,4.226
-32.0,-128.0,4.227
-32.0,-127.0,4.228
-19.0,-118.0,4.229
-6.0,-105.0,4.23
8.0,-94.0,4.231
28.0,-88.0,4.232
46.0,-84.0,4.233
53.0,-82.0,4.234
47.0,-84.0,4.235
37.0,-80.0,4.236
25.0,-65.0,4.237
2.0,-41.0,4.238
-29.0,-16.0,4.239
-57.0,8.0,4.24
-70.0,31.0,4.241
-64.0,52.0,4.242
-39.0,66.0,4.243
-3.0,76.0,4.244
30.0,77.0,4.245
41.0,74.0,4.246
26.0,68.0,4.247
-7.0,59.0,4.248
-44.0,52.0,4.249
-64.0,48.0,4.25
-60.0,47.0,4.251
-43.0,48.0,4.252
-32.0,49.0,4.253
-29.0,44.0,4.254
-18.0,32.0,4.255
5.0,21.0,4.256
27.0,14.0,4.257
32.0,9.0,4.258
31.0,4.0,4.259
33.0,0.0,4.26
39.0,-7.0,4.261
44.0,-9.0,4.262
44.0,-7.0,4.263
39.0,0.0,4.264
28.0,7.0,4.265
18.0,6.0,4.266
18.0,-2.0,4.267
28.0,-7.0,4.268
37.0,-8.0,4.269
37.0,-11.0,4.27
24.0,-16.0,4.271
-4.0,-18.0,4.272
-40.0,-12.0,4.273
-63.0,-1.0,4.274
-55.0,11.0,4.275
-35.0,22.0,4.276
-22.0,28.0,4.277
-13.0,23.0,4.278
8.0,13.0,4.279
25.0,4.0,4.28
27.0,-5.0,4.281
30.0,-13.0,4.282
32.0,-18.0,4.283
36.0,-19.0,4.284
40.0,-7.0,4.285
32.0,6.0,4.286
-13.0,20.0,4.287
-50.0,31.0,4.288
-54.0,29.0,4.289
-52.0,24.0,4.29
-33.0,10.0,4.291
-14.0,-4.0,4.292
6.0,-22.0,4.293
20.0,-35.0,4.294
14.0,-33.0,4.295
9.0,-29.0,4.296
10.0,-22.0,4.297
12.0,-16.0,4.298
10.0,-25.0,4.299
0.0,-41.0,4.3
-2.0,-48.0,4.301
3.0,-31.0,4.302
13.0,5.0,4.303
22.0,45.0,4.304
25.0,70.0,4.305
21.0,56.0,4.306
17.0,-2.0,4.307
19.0,-71.0,4.308
22.0,-102.0,4.309
19.0,-99.0,4.31
10.0,-96.0,4.311
4.0,-97.0,4.312
6.0,-79.0,4.313
7.0,-40.0,4.314
4.0,-7.0,4.315
4.0,4.0,4.316
9.0,15.0,4.317
15.0,37.0,4.318
14.0,49.0,4.319
9.0,44.0,4.32
6.0,32.0,4.321
5.0,29.0,4.322
6.0,30.0,4.323
7.0,33.0,4.324
3.0,38.0,4.325
-4.0,42.0,4.326
-11.0,38.0,4.327
-13.0,31.0,4.328
-15.0,38.0,4.329
-21.0,58.0,4.33
-25.0,71.0,4.331
-21.0,56.0,4.332
-12.0,22.0,4.333
-7.0,-13.0,4.334
-9.0,-34.0,4.335
-11.0,-42.0,4.336
-10.0,-42.0,4.337
-11.0,-34.0,4.338
-9.0,-23.0,4.339
-6.0,-16.0,4.34
-1.0,-20.0,4.341
5.0,-21.0,4.342
16.0,-14.0,4.343
27.0,-2.0,4.344
29.0,9.0,4.345
20.0,22.0,4.346
11.0,41.0,4.347
8.0,65.0,4.348
5.0,83.0,4.349
0.0,83.0,4.35
1.0,59.0,4.351
11.0,22.0,4.352
18.0,-11.0,4.353
15.0,-28.0,4.354
7.0,-42.0,4.355
3.0,-65.0,4.356
1.0,-88.0,4.357
0.0,-99.0,4.358
1.0,-91.0,4.359
5.0,-83.0,4.36
6.0,-77.0,4.361
6.0,-68.0,4.362
13.0,-47.0,4.363
22.0,-28.0,4.364
19.0,-16.0,4.365
2.0,-3.0,4.366
-13.0,6.0,4.367
-12.0,16.0,4.368
-8.0,20.0,4.369
-14.0,26.0,4.37
-29.0,41.0,4.371
-38.0,52.0,4.372
-32.0,48.0,4.373
-20.0,43.0,4.374
-7.0,34.0,4.375
4.0,27.0,4.376
13.0,26.0,4.377
12.0,22.0,4.378
6.0,11.0,4.379
-1.0,4.0,4.38
-3.0,-2.0,4.381
1.0,-4.0,4.382
6.0,-4.0,4.383
11.0,3.0,4.384
10.0,17.0,4.385
4.0,24.0,4.386
0.0,17.0,4.387
-2.0,5.0,4.388
-3.0,-1.0,4.389
-6.0,1.0,4.39
-5.0,3.0,4.391
7.0,0.0,4.392
17.0,-3.0,4.393
14.0,7.0,4.394
5.0,27.0,4.395
-2.0,37.0,4.396
-4.0,29.0,4.397
-2.0,1.0,4.398
7.0,-17.0,4.399
17.0,-26.0,4.4
19.0,-35.0,4.401
16.0,-43.0,4.402
24.0,-42.0,4.403
43.0,-30.0,4.404
46.0,-18.0,4.405
23.0,-15.0,4.406
0.0,-13.0,4.407
-2.0,-8.0,4.408
3.0,-3.0,4.409
1.0,0.0,4.41
6.0,5.0,4.411
44.0,10.0,4.412
104.0,9.0,4.413
141.0,6.0,4.414
116.0,6.0,4.415
47.0,7.0,4.416
-18.0,4.0,4.417
-69.0,-1.0,4.418
-108.0,-3.0,4.419
-147.0,0.0,4.42
-173.0,0.0,4.421
-155.0,-1.0,4.422
-89.0,2.0,4.423
-23.0,7.0,4.424
2.0,11.0,4.425
-11.0,13.0,4.426
-21.0,17.0,4.427
-16.0,17.0,4.428
-5.0,12.0,4.429
3.0,5.0,4.43
7.0,0.0,4.431
-5.0,0.0,4.432
-35.0,2.0,4.433
-47.0,0.0,4.434
-3.0,-6.0,4.435
68.0,-12.0,4.436
99.0,-14.0,4.437
81.0,-12.0,4.438
67.0,-5.0,4.439
68.0,3.0,4.44
45.0,11.0,4.441
-10.0,12.0,4.442
-33.0,3.0,4.443
6.0,-12.0,4.444
49.0,-19.0,4.445
46.0,-16.0,4.446
31.0,-13.0,4.447
43.0,-14.0,4.448
57.0,-12.0,4.449
40.0,-6.0,4.45
17.0,-1.0,4.451
15.0,2.0,4.452
18.0,5.0,4.453
1.0,7.0,4.454
-12.0,3.0,4.455
-1.0,-3.0,4.456
16.0,-5.0,4.457
8.0,-4.0,4.458
-7.0,-4.0,4.459
-9.0,-8.0,4.46
-2.0,-12.0,4.461
-3.0,-13.0,4.462
-5.0,-9.0,4.463
0.0,-2.0,4.464
1.0,6.0,4.465
-9.0,9.0,4.466
-19.0,3.0,4.467
-18.0,-4.0,4.468
-11.0,-4.0,4.469
-14.0,1.0,4.47
-18.0,6.0,4.471
-16.0,6.0,4.472
-8.0,3.0,4.473
-6.0,-1.0,4.474
-7.0,-2.0,4.475
-5.0,-1.0,4.476
0.0,1.0,4.477
0.0,-1.0,4.478
-1.0,-3.0,4.479
-2.0,-3.0,4.48
-2.0,-7.0,4.481
-4.0,-8.0,4.482
-5.0,-5.0,4.483
-3.0,2.0,4.484
-2.0,6.0,4.485
-9.0,6.0,4.486
-13.0,5.0,4.487
-7.0,7.0,4.488
4.0,8.0,4.489
9.0,6.0,4.49
6.0,1.0,4.491
7.0,-1.0,4.492
18.0,0.0,4.493
38.0,0.0,4.494
55.0,-2.0,4.495
51.0,-6.0,4.496
19.0,-4.0,4.497
-30.0,-1.0,4.498
-57.0,4.0,4.499
-56.0,7.0,4.5
-52.0,7.0,4.501
-61.0,9.0,4.502
-56.0,10.0,4.503
-12.0,4.0,4.504
37.0,-6.0,4.505
51.0,-12.0,4.506
36.0,-8.0,4.507
21.0,-2.0,4.508
12.0,0.0,4.509
-1.0,0.0,4.51
-2.0,-1.0,4.511
27.0,-3.0,4.512
61.0,-7.0,4.513
62.0,-9.0,4.514
35.0,-8.0,4.515
14.0,-3.0,4.516
8.0,3.0,4.517
1.0,6.0,4.518
-11.0,4.0,4.519
-10.0,-2.0,4.52
1.0,-6.0,4.521
4.0,-1.0,4.522
-4.0,4.0,4.523
-7.0,0.0,4.524
0.0,-3.0,4.525
1.0,-1.0,4.526
-10.0,5.0,4.527
-17.0,6.0,4.528
-9.0,2.0,4.529
-1.0,0.0,4.53
1.0,0.0,4.531
1.0,-1.0,4.532
4.0,-3.0,4.533
6.0,-3.0,4.534
5.0,2.0,4.535
7.0,6.0,4.536
12.0,6.0,4.537
9.0,1.0,4.538
5.0,-1.0,4.539
2.0,-4.0,4.54
3.0,-4.0,4.541
3.0,-4.0,4.542
-3.0,0.0,4.543
-10.0,3.0,4.544
-16.0,7.0,4.545
-18.0,9.0,4.546
-4.0,5.0,4.547
11.0,-1.0,4.548
28.0,-11.0,4.549
38.0,-18.0,4.55
28.0,-15.0,4.551
20.0,-11.0,4.552
22.0,-8.0,4.553
23.0,-5.0,4.554
20.0,-3.0,4.555
8.0,0.0,4.556
-26.0,3.0,4.557
-55.0,6.0,4.558
-48.0,4.0,4.559
-17.0,2.0,4.56
6.0,0.0,4.561
8.0,1.0,4.562
-2.0,4.0,4.563
-11.0,7.0,4.564
-17.0,5.0,4.565
-20.0,-7.0,4.566
-24.0,-20.0,4.567
-37.0,-21.0,4.568
-55.0,-11.0,4.569
-60.0,-1.0,4.57
-40.0,0.0,4.571
-10.0,0.0,4.572
24.0,8.0,4.573
80.0,19.0,4.574
162.0,18.0,4.575
224.0,4.0,4.576
217.0,-10.0,4.577
135.0,-16.0,4.578
35.0,-20.0,4.579
-41.0,-17.0,4.58
-98.0,-14.0,4.581
-164.0,-6.0,4.582
-222.0,4.0,4.583
-223.0,10.0,4.584
-145.0,10.0,4.585
-28.0,2.0,4.586
68.0,-8.0,4.587
111.0,-12.0,4.588
108.0,-9.0,4.589
79.0,-3.0,4.59
52.0,0.0,4.591
47.0,2.0,4.592
50.0,10.0,4.593
28.0,22.0,4.594
-15.0,35.0,4.595
-34.0,43.0,4.596
-16.0,40.0,4.597
-10.0,23.0,4.598
-43.0,10.0,4.599
-73.0,14.0,4.6
-49.0,22.0,4.601
5.0,20.0,4.602
39.0,2.0,4.603
44.0,-16.0,4.604
43.0,-30.0,4.605
43.0,-39.0,4.606
24.0,-40.0,4.607
-3.0,-30.0,4.608
-16.0,-16.0,4.609
-10.0,-11.0,4.61
-3.0,-12.0,4.611
-2.0,-6.0,4.612
-9.0,7.0,4.613
-19.0,20.0,4.614
-20.0,29.0,4.615
-9.0,35.0,4.616
3.0,39.0,4.617
4.0,25.0,4.618
14.0,-3.0,4.619
38.0,-32.0,4.62
50.0,-56.0,4.621
21.0,-63.0,4.622
-21.0,-55.0,4.623
-38.0,-44.0,4.624
-34.0,-35.0,4.625
-34.0,-23.0,4.626
-27.0,0.0,4.627
3.0,25.0,4.628
31.0,38.0,4.629
42.0,33.0,4.63
64.0,21.0,4.631
113.0,6.0,4.632
149.0,-6.0,4.633
155.0,-9.0,4.634
181.0,0.0,4.635
231.0,9.0,4.636
223.0,0.0,4.637
101.0,-23.0,4.638
-35.0,-43.0,4.639
-72.0,-52.0,4.64
-68.0,-50.0,4.641
-173.0,-30.0,4.642
-370.0,4.0,4.643
-463.0,25.0,4.644
-350.0,18.0,4.645
-153.0,5.0,4.646
-47.0,12.0,4.647
-62.0,35.0,4.648
-100.0,47.0,4.649
-74.0,39.0,4.65
32.0,25.0,4.651
198.0,19.0,4.652
344.0,20.0,4.653
370.0,22.0,4.654
257.0,25.0,4.655
123.0,27.0,4.656
77.0,21.0,4.657
63.0,7.0,4.658
-49.0,4.0,4.659
-246.0,17.0,4.66
-347.0,21.0,4.661
-270.0,5.0,4.662
-149.0,-19.0,4.663
-125.0,-31.0,4.664
-154.0,-20.0,4.665
-120.0,0.0,4.666
-28.0,15.0,4.667
38.0,16.0,4.668
62.0,1.0,4.669
92.0,-22.0,4.67
133.0,-33.0,4.671
163.0,-18.0,4.672
190.0,-1.0,4.673
231.0,-18.0,4.674
250.0,-56.0,4.675
202.0,-61.0,4.676
120.0,-20.0,4.677
66.0,16.0,4.678
50.0,10.0,4.679
30.0,3.0,4.68
2.0,-8.0,4.681
-15.0,-20.0,4.682
5.0,-33.0,4.683
11.0,-41.0,4.684
-26.0,-30.0,4.685
-64.0,-18.0,4.686
-103.0,-3.0,4.687
-133.0,11.0,4.688
-133.0,23.0,4.689
-124.0,34.0,4.69
-89.0,40.0,4.691
-46.0,44.0,4.692
22.0,38.0,4.693
87.0,24.0,4.694
141.0,-13.0,4.695
169.0,-39.0,4.696
119.0,-29.0,4.697
61.0,-13.0,4.698
13.0,6.0,4.699
56.0,-8.0,4.7
148.0,-39.0,4.701
167.0,-48.0,4.702
64.0,-33.0,4.703
-71.0,-17.0,4.704
-133.0,-14.0,4.705
-125.0,-7.0,4.706
-113.0,13.0,4.707
-122.0,30.0,4.708
-159.0,32.0,4.709
-242.0,38.0,4.71
-330.0,65.0,4.711
-308.0,86.0,4.712
-134.0,72.0,4.713
68.0,35.0,4.714
178.0,5.0,4.715
233.0,-13.0,4.716
296.0,-32.0,4.717
312.0,-45.0,4.718
206.0,-28.0,4.719
65.0,3.0,4.72
54.0,0.0,4.721
144.0,-31.0,4.722
167.0,-47.0,4.723
73.0,-24.0,4.724
-34.0,6.0,4.725
-120.0,15.0,4.726
-254.0,19.0,4.727
-431.0,40.0,4.728
-516.0,58.0,4.729
-429.0,44.0,4.73
-260.0,6.0,4.731
-114.0,-18.0,4.732
17.0,-19.0,4.733
167.0,-14.0,4.734
273.0,-12.0,4.735
252.0,0.0,4.736
138.0,28.0,4.737
12.0,40.0,4.738
-50.0,21.0,4.739
-37.0,-16.0,4.74
46.0,-41.0,4.741
181.0,-40.0,4.742
301.0,-37.0,4.743
332.0,-46.0,4.744
263.0,-47.0,4.745
142.0,-18.0,4.746
12.0,30.0,4.747
-91.0,61.0,4.748
-119.0,50.0,4.749
-70.0,15.0,4.75
-17.0,-11.0,4.751
-23.0,-12.0,4.752
-56.0,-3.0,4.753
-51.0,-5.0,4.754
-25.0,-15.0,4.755
-44.0,-15.0,4.756
-100.0,2.0,4.757
-138.0,34.0,4.758
-123.0,74.0,4.759
-79.0,114.0,4.76
-39.0,128.0,4.761
-11.0,105.0,4.762
6.0,55.0,4.763
15.0,5.0,4.764
22.0,-32.0,4.765
31.0,-66.0,4.766
46.0,-106.0,4.767
64.0,-146.0,4.768
75.0,-161.0,4.769
60.0,-136.0,4.77
31.0,-83.0,4.771
24.0,-39.0,4.772
54.0,-32.0,4.773
80.0,-48.0,4.774
73.0,-49.0,4.775
63.0,-34.0,4.776
80.0,-28.0,4.777
87.0,-44.0,4.778
29.0,-43.0,4.779
-66.0,2.0,4.78
-84.0,55.0,4.781
24.0,62.0,4.782
151.0,23.0,4.783
149.0,-4.0,4.784
25.0,9.0,4.785
-84.0,35.0,4.786
-110.0,46.0,4.787
-111.0,53.0,4.788
-142.0,75.0,4.789
-161.0,93.0,4.79
-126.0,89.0,4.791
-86.0,90.0,4.792
-85.0,129.0,4.793
-89.0,196.0,4.794
-48.0,235.0,4.795
12.0,196.0,4.796
49.0,96.0,4.797
57.0,-37.0,4.798
66.0,-148.0,4.799
106.0,-225.0,4.8
192.0,-282.0,4.801
285.0,-310.0,4.802
296.0,-277.0,4.803
172.0,-179.0,4.804
-9.0,-63.0,4.805
-117.0,1.0,4.806
-131.0,-7.0,4.807
-133.0,-39.0,4.808
-163.0,-43.0,4.809
-179.0,-10.0,4.81
-150.0,48.0,4.811
-118.0,144.0,4.812
-134.0,274.0,4.813
-165.0,367.0,4.814
-137.0,333.0,4.815
-28.0,196.0,4.816
99.0,70.0,4.817
183.0,-5.0,4.818
192.0,-72.0,4.819
151.0,-168.0,4.82
102.0,-233.0,4.821
48.0,-203.0,4.822
-12.0,-133.0,4.823
-50.0,-113.0,4.824
-23.0,-126.0,4.825
66.0,-96.0,4.826
150.0,-7.0,4.827
164.0,78.0,4.828
111.0,115.0,4.829
40.0,102.0,4.83
-18.0,61.0,4.831
-57.0,20.0,4.832
-69.0,-5.0,4.833
-49.0,-23.0,4.834
-19.0,-30.0,4.835
-8.0,12.0,4.836
-24.0,106.0,4.837
-53.0,147.0,4.838
-78.0,65.0,4.839
-89.0,-11.0,4.84
-97.0,-70.0,4.841
-119.0,-101.0,4.842
-154.0,-47.0,4.843
-162.0,-8.0,4.844
-105.0,-16.0,4.845
-8.0,-35.0,4.846
62.0,-85.0,4.847
76.0,-121.0,4.848
71.0,-107.0,4.849
78.0,-85.0,4.85
83.0,-37.0,4.851
74.0,-4.0,4.852
70.0,-21.0,4.853
92.0,-35.0,4.854
131.0,-37.0,4.855
172.0,-14.0,4.856
212.0,88.0,4.857
233.0,192.0,4.858
204.0,265.0,4.859
116.0,289.0,4.86
13.0,283.0,4.861
-56.0,223.0,4.862
-93.0,85.0,4.863
-129.0,-55.0,4.864
-176.0,-78.0,4.865
-191.0,41.0,4.866
-138.0,209.0,4.867
-58.0,317.0,4.868
-35.0,291.0,4.869
-76.0,115.0,4.87
-83.0,-150.0,4.871
0.0,-360.0,4.872
90.0,-401.0,4.873
93.0,-279.0,4.874
38.0,-88.0,4.875
5.0,71.0,4.876
-10.0,132.0,4.877
-64.0,67.0,4.878
-119.0,-80.0,4.879
-88.0,-224.0,4.88
12.0,-316.0,4.881
66.0,-382.0,4.882
29.0,-454.0,4.883
-27.0,-512.0,4.884
-45.0,-518.0,4.885
-48.0,-461.0,4.886
-54.0,-341.0,4.887
-11.0,-161.0,4.888
124.0,32.0,4.889
295.0,196.0,4.89
391.0,358.0,4.891
354.0,576.0,4.892
205.0,793.0,4.893
4.0,865.0,4.894
-192.0,759.0,4.895
-324.0,620.0,4.896
-341.0,572.0,4.897
-247.0,560.0,4.898
-123.0,473.0,4.899
-56.0,277.0,4.9
-46.0,-14.0,4.901
-22.0,-386.0,4.902
34.0,-767.0,4.903
68.0,-992.0,4.904
51.0,-997.0,4.905
34.0,-916.0,4.906
62.0,-897.0,4.907
106.0,-906.0,4.908
128.0,-811.0,4.909
132.0,-599.0,4.91
125.0,-374.0,4.911
79.0,-208.0,4.912
-15.0,-66.0,4.913
-107.0,110.0,4.914
-133.0,343.0,4.915
-96.0,602.0,4.916
-63.0,807.0,4.917
-72.0,906.0,4.918
-94.0,893.0,4.919
-73.0,811.0,4.92
-8.0,664.0,4.921
42.0,411.0,4.922
37.0,109.0,4.923
2.0,-29.0,4.924
-18.0,103.0,4.925
-18.0,316.0,4.926
-20.0,344.0,4.927
-32.0,180.0,4.928
-40.0,12.0,4.929
-26.0,-92.0,4.93
12.0,-215.0,4.931
60.0,-326.0,4.932
79.0,-270.0,4.933
46.0,-44.0,4.934
-5.0,127.0,4.935
-8.0,84.0,4.936
44.0,-75.0,4.937
85.0,-220.0,4.938
63.0,-306.0,4.939
17.0,-344.0,4.94
30.0,-313.0,4.941
93.0,-208.0,4.942
129.0,-108.0,4.943
107.0,-69.0,4.944
68.0,-59.0,4.945
35.0,-50.0,4.946
-12.0,-77.0,4.947
-69.0,-132.0,4.948
-99.0,-145.0,4.949
-89.0,-112.0,4.95
-73.0,-117.0,4.951
-62.0,-161.0,4.952
-23.0,-113.0,4.953
44.0,90.0,4.954
90.0,357.0,4.955
89.0,566.0,4.956
67.0,654.0,4.957
32.0,544.0,4.958
-23.0,208.0,4.959
-91.0,-162.0,4.96
-137.0,-287.0,4.961
-145.0,-151.0,4.962
-130.0,-4.0,4.963
-96.0,38.0,4.964
-46.0,117.0,4.965
-2.0,307.0,4.966
13.0,447.0,4.967
14.0,382.0,4.968
20.0,163.0,4.969
26.0,-78.0,4.97
16.0,-273.0,4.971
3.0,-378.0,4.972
9.0,-366.0,4.973
26.0,-303.0,4.974
40.0,-282.0,4.975
52.0,-305.0,4.976
59.0,-308.0,4.977
47.0,-280.0,4.978
27.0,-256.0,4.979
15.0,-225.0,4.98
31.0,-151.0,4.981
44.0,-39.0,4.982
49.0,110.0,4.983
49.0,361.0,4.984
33.0,721.0,4.985
16.0,983.0,4.986
0.0,884.0,4.987
-12.0,403.0,4.988
-16.0,-184.0,4.989
-17.0,-576.0,4.99
-9.0,-676.0,4.991
-1.0,-585.0,4.992
7.0,-447.0,4.993
14.0,-336.0,4.994
18.0,-239.0,4.995
25.0,-129.0,4.996
39.0,-37.0,4.997
51.0,-19.0,4.998
48.0,-66.0,4.999
36.0,-93.0,5.0
7.0,-38.0,5.001
-28.0,72.0,5.002
-32.0,178.0,5.003
23.0,265.0,5.004
93.0,336.0,5.005
92.0,375.0,5.006
-5.0,381.0,5.007
-114.0,382.0,5.008
-137.0,379.0,5.009
-66.0,336.0,5.01
14.0,252.0,5.011
35.0,188.0,5.012
8.0,162.0,5.013
-17.0,119.0,5.014
-28.0,19.0,5.015
-53.0,-106.0,5.016
-88.0,-210.0,5.017
-101.0,-312.0,5.018
-64.0,-423.0,5.019
3.0,-499.0,5.02
61.0,-501.0,5.021
96.0,-439.0,5.022
107.0,-371.0,5.023
87.0,-327.0,5.024
29.0,-298.0,5.025
-39.0,-254.0,5.026
-86.0,-165.0,5.027
-105.0,-35.0,5.028
-110.0,88.0,5.029
-103.0,166.0,5.03
-78.0,231.0,5.031
-45.0,311.0,5.032
-19.0,365.0,5.033
-4.0,334.0,5.034
8.0,249.0,5.035
23.0,186.0,5.036
35.0,145.0,5.037
38.0,67.0,5.038
36.0,-33.0,5.039
43.0,-87.0,5.04
64.0,-94.0,5.041
85.0,-105.0,5.042
88.0,-119.0,5.043
74.0,-84.0,5.044
57.0,-25.0,5.045
40.0,-26.0,5.046
19.0,-81.0,5.047
-2.0,-86.0,5.048
-7.0,2.0,5.049
-2.0,92.0,5.05
-8.0,101.0,5.051
-25.0,57.0,5.052
-29.0,30.0,5.053
-12.0,30.0,5.054
7.0,37.0,5.055
17.0,71.0,5.056
27.0,142.0,5.057
43.0,222.0,5.058
58.0,263.0,5.059
59.0,251.0,5.06
49.0,212.0,5.061
33.0,169.0,5.062
0.0,122.0,5.063
-39.0,72.0,5.064
-65.0,19.0,5.065
-63.0,-42.0,5.066
-54.0,-117.0,5.067
-54.0,-196.0,5.068
-58.0,-269.0,5.069
-53.0,-314.0,5.07
-37.0,-298.0,5.071
-14.0,-218.0,5.072
12.0,-117.0,5.073
25.0,-60.0,5.074
21.0,-56.0,5.075
13.0,-64.0,5.076
16.0,-49.0,5.077
21.0,-20.0,5.078
16.0,0.0,5.079
4.0,2.0,5.08
5.0,-6.0,5.081
16.0,-17.0,5.082
26.0,-28.0,5.083
32.0,-35.0,5.084
35.0,-36.0,5.085
28.0,-31.0,5.086
13.0,-13.0,5.087
4.0,16.0,5.088
8.0,45.0,5.089
3.0,55.0,5.09
-16.0,49.0,5.091
-30.0,44.0,5.092
-21.0,49.0,5.093
-5.0,54.0,5.094
-9.0,47.0,5.095
-21.0,31.0,5.096
-17.0,14.0,5.097
0.0,-2.0,5.098
12.0,-3.0,5.099
6.0,23.0,5.1
3.0,61.0,5.101
14.0,94.0,5.102
25.0,102.0,5.103
26.0,97.0,5.104
27.0,87.0,5.105
29.0,74.0,5.106
27.0,58.0,5.107
19.0,38.0,5.108
17.0,19.0,5.109
23.0,2.0,5.11
28.0,-9.0,5.111
21.0,-19.0,5.112
7.0,-38.0,5.113
-6.0,-70.0,5.114
-11.0,-95.0,5.115
-8.0,-102.0,5.116
0.0,-91.0,5.117
3.0,-74.0,5.118
-2.0,-57.0,5.119
-16.0,-35.0,5.12
-24.0,-21.0,5.121
-22.0,-20.0,5.122
-14.0,-25.0,5.123
-11.0,-22.0,5.124
-19.0,-8.0,5.125
-23.0,0.0,5.126
-15.0,1.0,5.127
-2.0,0.0,5.128
0.0,2.0,5.129
-5.0,5.0,5.13
-3.0,6.0,5.131
9.0,8.0,5.132
14.0,12.0,5.133
1.0,14.0,5.134
-6.0,11.0,5.135
0.0,6.0,5.136
6.0,5.0,5.137
2.0,7.0,5.138
-4.0,6.0,5.139
-3.0,1.0,5.14
3.0,-6.0,5.141
8.0,-6.0,5.142
13.0,-1.0,5.143
17.0,3.0,5.144
14.0,4.0,5.145
4.0,6.0,5.146
4.0,7.0,5.147
13.0,3.0,5.148
14.0,-4.0,5.149
0.0,-12.0,5.15
-10.0,-17.0,5.151
-6.0,-13.0,5.152
8.0,3.0,5.153
27.0,24.0,5.154
49.0,31.0,5.155
56.0,24.0,5.156
37.0,13.0,5.157
4.0,9.0,5.158
-15.0,7.0,5.159
-25.0,2.0,5.16
-51.0,-3.0,5.161
-77.0,-1.0,5.162
-63.0,2.0,5.163
-9.0,-2.0,5.164
31.0,-2.0,5.165
27.0,5.0,5.166
9.0,13.0,5.167
2.0,11.0,5.168
-3.0,3.0,5.169
-19.0,-2.0,5.17
-22.0,-1.0,5.171
-2.0,1.0,5.172
19.0,-2.0,5.173
18.0,-6.0,5.174
10.0,-9.0,5.175
16.0,-11.0,5.176
29.0,-8.0,5.177
29.0,-8.0,5.178
21.0,-9.0,5.179
17.0,-15.0,5.18
13.0,-24.0,5.181
7.0,-29.0,5.182
5.0,-34.0,5.183
17.0,-38.0,5.184
26.0,-30.0,5.185
25.0,-11.0,5.186
21.0,2.0,5.187
23.0,1.0,5.188
21.0,-8.0,5.189
14.0,-15.0,5.19
9.0,-12.0,5.191
7.0,-3.0,5.192
-3.0,6.0,5.193
-20.0,8.0,5.194
-25.0,-1.0,5.195
-14.0,-7.0,5.196
2.0,8.0,5.197
10.0,38.0,5.198
20.0,54.0,5.199
35.0,42.0,5.2
41.0,14.0,5.201
21.0,-4.0,5.202
-18.0,-10.0,5.203
-44.0,-13.0,5.204
-37.0,-17.0,5.205
-6.0,-14.0,5.206
13.0,-2.0,5.207
-6.0,21.0,5.208
-38.0,44.0,5.209
-29.0,44.0,5.21
33.0,15.0,5.211
91.0,-15.0,5.212
93.0,-16.0,5.213
56.0,12.0,5.214
28.0,37.0,5.215
18.0,33.0,5.216
-1.0,17.0,5.217
-39.0,8.0,5.218
-68.0,13.0,5.219
-80.0,20.0,5.22
-91.0,15.0,5.221
-102.0,5.0,5.222
-89.0,-7.0,5.223
-43.0,-22.0,5.224
2.0,-42.0,5.225
25.0,-62.0,5.226
28.0,-73.0,5.227
24.0,-69.0,5.228
21.0,-53.0,5.229
23.0,-31.0,5.23
29.0,-5.0,5.231
34.0,22.0,5.232
33.0,49.0,5.233
22.0,61.0,5.234
11.0,44.0,5.235
9.0,7.0,5.236
17.0,-18.0,5.237
28.0,-19.0,5.238
29.0,-12.0,5.239
13.0,-16.0,5.24
-4.0,-31.0,5.241
-3.0,-33.0,5.242
17.0,-21.0,5.243
39.0,-16.0,5.244
51.0,-23.0,5.245
56.0,-19.0,5.246
63.0,6.0,5.247
59.0,32.0,5.248
39.0,34.0,5.249
7.0,9.0,5.25
-30.0,-12.0,5.251
-71.0,-18.0,5.252
-103.0,-16.0,5.253
-99.0,-13.0,5.254
-55.0,-11.0,5.255
-15.0,-2.0,5.256
-13.0,15.0,5.257
-37.0,22.0,5.258
-36.0,12.0,5.259
-3.0,0.0,5.26
24.0,-5.0,5.261
22.0,3.0,5.262
19.0,5.0,5.263
29.0,-1.0,5.264
31.0,-3.0,5.265
16.0,3.0,5.266
3.0,8.0,5.267
5.0,7.0,5.268
6.0,5.0,5.269
-3.0,10.0,5.27
-10.0,12.0,5.271
-5.0,8.0,5.272
-3.0,5.0,5.273
-5.0,5.0,5.274
2.0,5.0,5.275
20.0,3.0,5.276
29.0,0.0,5.277
22.0,-1.0,5.278
22.0,-5.0,5.279
35.0,-10.0,5.28
38.0,-15.0,5.281
11.0,-11.0,5.282
-19.0,-4.0,5.283
-22.0,2.0,5.284
-12.0,9.0,5.285
-17.0,11.0,5.286
-22.0,2.0,5.287
10.0,-11.0,5.288
71.0,-19.0,5.289
97.0,-13.0,5.29
66.0,-3.0,5.291
19.0,4.0,5.292
-7.0,8.0,5.293
-35.0,14.0,5.294
-97.0,26.0,5.295
-150.0,41.0,5.296
-133.0,53.0,5.297
-49.0,56.0,5.298
23.0,50.0,5.299
36.0,42.0,5.3
18.0,31.0,5.301
2.0,19.0,5.302
-22.0,3.0,5.303
-56.0,-14.0,5.304
-62.0,-31.0,5.305
-13.0,-40.0,5.306
50.0,-26.0,5.307
71.0,-16.0,5.308
56.0,-22.0,5.309
39.0,-30.0,5.31
27.0,-46.0,5.311
5.0,-52.0,5.312
-7.0,-26.0,5.313
18.0,-14.0,5.314
59.0,-46.0,5.315
70.0,-65.0,5.316
54.0,-46.0,5.317
37.0,-22.0,5.318
21.0,3.0,5.319
-23.0,14.0,5.32
-73.0,19.0,5.321
-81.0,31.0,5.322
-45.0,56.0,5.323
-11.0,87.0,5.324
1.0,101.0,5.325
7.0,74.0,5.326
16.0,24.0,5.327
16.0,-19.0,5.328
4.0,-41.0,5.329
-7.0,-51.0,5.33
-8.0,-59.0,5.331
0.0,-59.0,5.332
24.0,-57.0,5.333
50.0,-57.0,5.334
59.0,-54.0,5.335
38.0,-42.0,5.336
19.0,-27.0,5.337
14.0,-16.0,5.338
19.0,-5.0,5.339
17.0,12.0,5.34
8.0,20.0,5.341
0.0,19.0,5.342
-3.0,20.0,5.343
-4.0,29.0,5.344
-7.0,38.0,5.345
-11.0,42.0,5.346
-10.0,45.0,5.347
10.0,45.0,5.348
52.0,34.0,5.349
90.0,16.0,5.35
95.0,7.0,5.351
71.0,10.0,5.352
47.0,10.0,5.353
30.0,3.0,5.354
-1.0,2.0,5.355
-55.0,11.0,5.356
-102.0,14.0,5.357
-123.0,6.0,5.358
-112.0,-1.0,5.359
-88.0,2.0,5.36
-65.0,9.0,5.361
-58.0,20.0,5.362
-76.0,27.0,5.363
-93.0,25.0,5.364
-81.0,13.0,5.365
-37.0,-2.0,5.366
9.0,-14.0,5.367
40.0,-25.0,5.368
67.0,-28.0,5.369
90.0,-18.0,5.37
87.0,0.0,5.371
52.0,6.0,5.372
21.0,0.0,5.373
24.0,-8.0,5.374
46.0,-11.0,5.375
47.0,-13.0,5.376
22.0,-14.0,5.377
-9.0,205.0,5.378
-16.0,192.0,5.379
-2.0,152.0,5.38
4.0,34.0,5.381
-10.0,-64.0,5.382
-26.0,-111.0,5.383
-23.0,-155.0,5.384
-8.0,-190.0,5.385
2.0,-217.0,5.386
2.0,-221.0,5.387
13.0,-207.0,5.388
36.0,-141.0,5.389
57.0,-68.0,5.39
60.0,23.0,5.391
60.0,98.0,5.392
67.0,117.0,5.393
67.0,151.0,5.394
45.0,227.0,5.395
3.0,286.0,5.396
-35.0,293.0,5.397
-63.0,232.0,5.398
-78.0,217.0,5.399
-95.0,172.0,5.4
-111.0,37.0,5.401
-103.0,-77.0,5.402
-51.0,-130.0,5.403
19.0,-181.0,5.404
54.0,-221.0,5.405
40.0,-252.0,5.406
19.0,-256.0,5.407
21.0,-240.0,5.408
25.0,-165.0,5.409
14.0,-81.0,5.41
2.0,24.0,5.411
6.0,110.0,5.412
11.0,132.0,5.413
1.0,170.0,5.414
-6.0,257.0,5.415
2.0,325.0,5.416
19.0,333.0,5.417
32.0,322.0,5.418
44.0,252.0,5.419
55.0,191.0,5.42
51.0,128.0,5.421
31.0,56.0,5.422
22.0,-6.0,5.423
31.0,-35.0,5.424
35.0,-64.0,5.425
19.0,-132.0,5.426
-1.0,-178.0,5.427
-17.0,-80.0,5.428
-39.0,154.0,5.429
-69.0,320.0,5.43
-83.0,234.0,5.431
-63.0,-54.0,5.432
-24.0,-330.0,5.433
10.0,-469.0,5.434
34.0,-506.0,5.435
47.0,-489.0,5.436
51.0,-392.0,5.437
46.0,-182.0,5.438
41.0,35.0,5.439
39.0,125.0,5.44
54.0,69.0,5.441
85.0,-9.0,5.442
114.0,-24.0,5.443
108.0,-1.0,5.444
49.0,-3.0,5.445
-40.0,-24.0,5.446
-108.0,-14.0,5.447
-117.0,47.0,5.448
-89.0,120.0,5.449
-82.0,189.0,5.45
-116.0,328.0,5.451
-134.0,596.0,5.452
-80.0,848.0,5.453
16.0,798.0,5.454
60.0,368.0,5.455
24.0,-128.0,5.456
-33.0,-323.0,5.457
-62.0,-222.0,5.458
-67.0,-95.0,5.459
-72.0,-94.0,5.46
-58.0,-101.0,5.461
-13.0,10.0,5.462
25.0,131.0,5.463
15.0,83.0,5.464
-10.0,-136.0,5.465
5.0,-343.0,5.466
53.0,-403.0,5.467
73.0,-394.0,5.468
55.0,-506.0,5.469
45.0,-763.0,5.47
60.0,-948.0,5.471
71.0,-883.0,5.472
59.0,-671.0,5.473
45.0,-525.0,5.474
40.0,-438.0,5.475
32.0,-189.0,5.476
23.0,293.0,5.477
33.0,934.0,5.478
62.0,1416.0,5.479
81.0,1465.0,5.48
78.0,1068.0,5.481
64.0,510.0,5.482
55.0,99.0,5.483
43.0,-109.0,5.484
21.0,-241.0,5.485
-1.0,-315.0,5.486
-18.0,-230.0,5.487
-30.0,-20.0,5.488
-44.0,108.0,5.489
-54.0,28.0,5.49
-62.0,-168.0,5.491
-71.0,-324.0,5.492
-76.0,-378.0,5.493
-67.0,-348.0,5.494
-45.0,-214.0,5.495
-16.0,106.0,5.496
12.0,547.0,5.497
38.0,756.0,5.498
51.0,448.0,5.499
46.0,95.0,5.5
30.0,-393.0,5.501
15.0,-737.0,5.502
1.0,-651.0,5.503
-12.0,-561.0,5.504
-23.0,-462.0,5.505
-32.0,-313.0,5.506
-44.0,-15.0,5.507
-57.0,183.0,5.508
-61.0,79.0,5.509
-49.0,-19.0,5.51
-26.0,-100.0,5.511
2.0,-110.0,5.512
38.0,91.0,5.513
80.0,306.0,5.514
114.0,554.0,5.515
123.0,714.0,5.516
108.0,608.0,5.517
73.0,496.0,5.518
35.0,365.0,5.519
6.0,200.0,5.52
-9.0,26.0,5.521
-17.0,-82.0,5.522
-23.0,-137.0,5.523
-26.0,-156.0,5.524
-27.0,-75.0,5.525
-28.0,140.0,5.526
-31.0,335.0,5.527
-37.0,326.0,5.528
-36.0,153.0,5.529
-27.0,62.0,5.53
-19.0,211.0,5.531
-17.0,504.0,5.532
-19.0,669.0,5.533
-20.0,469.0,5.534
-25.0,-76.0,5.535
-42.0,-663.0,5.536
-61.0,-970.0,5.537
-68.0,-1001.0,5.538
-58.0,-956.0,5.539
-51.0,-945.0,5.54
-51.0,-867.0,5.541
-40.0,-661.0,5.542
-3.0,-448.0,5.543
36.0,-331.0,5.544
50.0,-240.0,5.545
48.0,-100.0,5.546
66.0,46.0,5.547
108.0,143.0,5.548
141.0,226.0,5.549
144.0,325.0,5.55
132.0,400.0,5.551
113.0,425.0,5.552
81.0,423.0,5.553
28.0,396.0,5.554
-24.0,327.0,5.555
-59.0,245.0,5.556
-73.0,205.0,5.557
-72.0,190.0,5.558
-50.0,150.0,5.559
-7.0,85.0,5.56
33.0,36.0,5.561
34.0,21.0,5.562
-10.0,19.0,5.563
-63.0,38.0,5.564
-79.0,82.0,5.565
-44.0,126.0,5.566
-6.0,140.0,5.567
-25.0,164.0,5.568
-104.0,227.0,5.569
-172.0,293.0,5.57
-155.0,305.0,5.571
-74.0,276.0,5.572
-8.0,245.0,5.573
13.0,202.0,5.574
29.0,116.0,5.575
71.0,11.0,5.576
94.0,-67.0,5.577
69.0,-123.0,5.578
23.0,-173.0,5.579
25.0,-223.0,5.58
82.0,-261.0,5.581
116.0,-250.0,5.582
82.0,-163.0,5.583
22.0,-13.0,5.584
-11.0,125.0,5.585
-14.0,193.0,5.586
-14.0,223.0,5.587
-24.0,277.0,5.588
-54.0,333.0,5.589
-98.0,309.0,5.59
-125.0,182.0,5.591
-93.0,19.0,5.592
-8.0,-138.0,5.593
67.0,-311.0,5.594
85.0,-485.0,5.595
51.0,-552.0,5.596
9.0,-449.0,5.597
-8.0,-249.0,5.598
19.0,-133.0,5.599
66.0,-173.0,5.6
95.0,-247.0,5.601
86.0,-209.0,5.602
63.0,-97.0,5.603
55.0,-32.0,5.604
57.0,-36.0,5.605
50.0,-38.0,5.606
32.0,-50.0,5.607
8.0,-192.0,5.608
-28.0,-496.0,5.609
-67.0,-792.0,5.61
-83.0,-856.0,5.611
-61.0,-636.0,5.612
-20.0,-271.0,5.613
14.0,59.0,5.614
32.0,276.0,5.615
34.0,385.0,5.616
30.0,406.0,5.617
11.0,348.0,5.618
-9.0,237.0,5.619
-21.0,104.0,5.62
-22.0,-35.0,5.621
-27.0,-156.0,5.622
-39.0,-214.0,5.623
-49.0,-196.0,5.624
-44.0,-150.0,5.625
-25.0,-104.0,5.626
-6.0,-20.0,5.627
4.0,115.0,5.628
5.0,207.0,5.629
6.0,178.0,5.63
8.0,105.0,5.631
11.0,117.0,5.632
18.0,226.0,5.633
30.0,333.0,5.634
38.0,385.0,5.635
37.0,403.0,5.636
38.0,404.0,5.637
43.0,378.0,5.638
50.0,346.0,5.639
53.0,316.0,5.64
40.0,296.0,5.641
33.0,265.0,5.642
48.0,207.0,5.643
60.0,143.0,5.644
60.0,60.0,5.645
57.0,-18.0,5.646
46.0,-82.0,5.647
35.0,-132.0,5.648
25.0,-144.0,5.649
9.0,-158.0,5.65
-21.0,-180.0,5.651
-47.0,-189.0,5.652
-58.0,-155.0,5.653
-67.0,-115.0,5.654
-69.0,-56.0,5.655
-70.0,-5.0,5.656
-68.0,20.0,5.657
-65.0,37.0,5.658
-55.0,18.0,5.659
-44.0,-12.0,5.66
-28.0,-29.0,5.661
-7.0,-23.0,5.662
16.0,-16.0,5.663
34.0,-27.0,5.664
43.0,-20.0,5.665
47.0,28.0,5.666
46.0,59.0,5.667
35.0,-8.0,5.668
8.0,-147.0,5.669
-25.0,-233.0,5.67
-50.0,-206.0,5.671
-71.0,-135.0,5.672
-94.0,-95.0,5.673
-107.0,-71.0,5.674
-92.0,-29.0,5.675
-60.0,10.0,5.676
-42.0,21.0,5.677
-39.0,29.0,5.678
-23.0,64.0,5.679
6.0,94.0,5.68
26.0,74.0,5.681
27.0,24.0,5.682
31.0,-6.0,5.683
44.0,-2.0,5.684
50.0,9.0,5.685
42.0,18.0,5.686
35.0,28.0,5.687
40.0,37.0,5.688
44.0,38.0,5.689
36.0,28.0,5.69
30.0,17.0,5.691
33.0,12.0,5.692
35.0,12.0,5.693
32.0,12.0,5.694
27.0,13.0,5.695
25.0,13.0,5.696
19.0,15.0,5.697
8.0,12.0,5.698
4.0,5.0,5.699
7.0,-5.0,5.7
10.0,-14.0,5.701
12.0,-17.0,5.702
16.0,-16.0,5.703
22.0,-14.0,5.704
23.0,-10.0,5.705
14.0,-5.0,5.706
2.0,-5.0,5.707
-4.0,-12.0,5.708
-10.0,-17.0,5.709
-14.0,-15.0,5.71
-14.0,-14.0,5.711
-18.0,-14.0,5.712
-31.0,-9.0,5.713
-44.0,0.0,5.714
-43.0,6.0,5.715
-34.0,2.0,5.716
-23.0,-1.0,5.717
-15.0,-3.0,5.718
-6.0,-3.0,5.719
-2.0,-3.0,5.72
-5.0,-3.0,5.721
-7.0,-1.0,5.722
2.0,0.0,5.723
15.0,3.0,5.724
15.0,4.0,5.725
7.0,6.0,5.726
3.0,6.0,5.727
8.0,6.0,5.728
9.0,9.0,5.729
3.0,12.0,5.73
3.0,10.0,5.731
9.0,7.0,5.732
15.0,1.0,5.733
17.0,-7.0,5.734
22.0,-21.0,5.735
27.0,-34.0,5.736
30.0,-43.0,5.737
25.0,-50.0,5.738
20.0,-47.0,5.739
11.0,-40.0,5.74
2.0,-29.0,5.741
0.0,-17.0,5.742
12.0,-8.0,5.743
23.0,-4.0,5.744
21.0,3.0,5.745
6.0,12.0,5.746
-2.0,15.0,5.747
0.0,8.0,5.748
4.0,1.0,5.749
4.0,0.0,5.75
3.0,-2.0,5.751
4.0,-7.0,5.752
6.0,-8.0,5.753
4.0,-4.0,5.754
3.0,0.0,5.755
5.0,-2.0,5.756
6.0,-2.0,5.757
6.0,0.0,5.758
8.0,3.0,5.759
7.0,1.0,5.76
2.0,-6.0,5.761
-2.0,-7.0,5.762
2.0,-6.0,5.763
15.0,-6.0,5.764
20.0,-4.0,5.765
13.0,0.0,5.766
6.0,0.0,5.767
11.0,-4.0,5.768
18.0,-11.0,5.769
14.0,-22.0,5.77
2.0,-29.0,5.771
-7.0,-25.0,5.772
-10.0,-2.0,5.773
-10.0,31.0,5.774
-6.0,51.0,5.775
5.0,46.0,5.776
20.0,35.0,5.777
26.0,22.0,5.778
17.0,8.0,5.779
-4.0,-6.0,5.78
-19.0,-13.0,5.781
-22.0,-8.0,5.782
-9.0,-6.0,5.783
8.0,-12.0,5.784
18.0,-18.0,5.785
23.0,-18.0,5.786
28.0,-18.0,5.787
35.0,-20.0,5.788
38.0,-17.0,5.789
32.0,-10.0,5.79
6.0,-6.0,5.791
-38.0,-9.0,5.792
-82.0,-9.0,5.793
-96.0,1.0,5.794
-73.0,12.0,5.795
-36.0,7.0,5.796
-14.0,-5.0,5.797
-8.0,-16.0,5.798
-2.0,-19.0,5.799
10.0,-20.0,5.8
10.0,-25.0,5.801
-8.0,-11.0,5.802
-22.0,28.0,5.803
-11.0,78.0,5.804
16.0,106.0,5.805
30.0,101.0,5.806
26.0,80.0,5.807
23.0,60.0,5.808
32.0,36.0,5.809
39.0,3.0,5.81
35.0,-27.0,5.811
27.0,-48.0,5.812
23.0,-59.0,5.813
22.0,-70.0,5.814
21.0,-71.0,5.815
26.0,-56.0,5.816
41.0,-36.0,5.817
58.0,-29.0,5.818
70.0,-26.0,5.819
78.0,-23.0,5.82
81.0,-19.0,5.821
68.0,-15.0,5.822
29.0,-19.0,5.823
-24.0,-17.0,5.824
-62.0,3.0,5.825
-66.0,17.0,5.826
-47.0,15.0,5.827
-43.0,17.0,5.828
-70.0,35.0,5.829
-106.0,50.0,5.83
-121.0,58.0,5.831
-116.0,63.0,5.832
-91.0,58.0,5.833
-30.0,47.0,5.834
67.0,18.0,5.835
133.0,-4.0,5.836
109.0,-6.0,5.837
18.0,-7.0,5.838
-40.0,-6.0,5.839
-25.0,-15.0,5.84
13.0,-29.0,5.841
18.0,-34.0,5.842
-12.0,-29.0,5.843
-49.0,-18.0,5.844
-76.0,-11.0,5.845
-81.0,-9.0,5.846
-60.0,-9.0,5.847
-33.0,-4.0,5.848
-13.0,3.0,5.849
19.0,10.0,5.85
58.0,15.0,5.851
59.0,19.0,5.852
13.0,18.0,5.853
-17.0,11.0,5.854
11.0,5.0,5.855
51.0,8.0,5.856
47.0,12.0,5.857
20.0,8.0,5.858
24.0,1.0,5.859
47.0,-1.0,5.86
46.0,-2.0,5.861
35.0,-4.0,5.862
44.0,-13.0,5.863
57.0,-21.0,5.864
33.0,-21.0,5.865
-9.0,-20.0,5.866
-22.0,-21.0,5.867
-7.0,-21.0,5.868
2.0,-15.0,5.869
1.0,-5.0,5.87
10.0,4.0,5.871
25.0,14.0,5.872
33.0,26.0,5.873
45.0,32.0,5.874
66.0,27.0,5.875
75.0,16.0,5.876
59.0,1.0,5.877
20.0,-22.0,5.878
-22.0,-42.0,5.879
-66.0,-27.0,5.88
-98.0,33.0,5.881
-97.0,123.0,5.882
-73.0,190.0,5.883
-72.0,199.0,5.884
-100.0,164.0,5.885
-107.0,112.0,5.886
-68.0,32.0,5.887
-27.0,-88.0,5.888
-28.0,-212.0,5.889
-44.0,-267.0,5.89
-30.0,-250.0,5.891
3.0,-221.0,5.892
16.0,-216.0,5.893
5.0,-194.0,5.894
-2.0,-132.0,5.895
0.0,-78.0,5.896
7.0,-63.0,5.897
29.0,-58.0,5.898
76.0,-17.0,5.899
129.0,46.0,5.9
159.0,91.0,5.901
163.0,116.0,5.902
158.0,127.0,5.903
142.0,116.0,5.904
106.0,85.0,5.905
51.0,61.0,5.906
0.0,56.0,5.907
-18.0,49.0,5.908
8.0,29.0,5.909
65.0,9.0,5.91
115.0,3.0,5.911
126.0,-1.0,5.912
88.0,-3.0,5.913
18.0,11.0,5.914
-77.0,36.0,5.915
-181.0,50.0,5.916
-247.0,54.0,5.917
-245.0,59.0,5.918
-183.0,74.0,5.919
-120.0,82.0,5.92
-80.0,91.0,5.921
-43.0,115.0,5.922
5.0,137.0,5.923
41.0,118.0,5.924
41.0,58.0,5.925
20.0,-2.0,5.926
6.0,-41.0,5.927
-1.0,-73.0,5.928
-10.0,-103.0,5.929
-17.0,-115.0,5.93
-10.0,-97.0,5.931
5.0,-60.0,5.932
15.0,-12.0,5.933
18.0,27.0,5.934
20.0,25.0,5.935
22.0,-19.0,5.936
21.0,-63.0,5.937
13.0,-78.0,5.938
-2.0,-66.0,5.939
-32.0,-40.0,5.94
-67.0,8.0,5.941
-76.0,80.0,5.942
-42.0,138.0,5.943
4.0,151.0,5.944
24.0,125.0,5.945
26.0,75.0,5.946
45.0,8.0,5.947
83.0,-54.0,5.948
102.0,-74.0,5.949
90.0,-67.0,5.95
74.0,-83.0,5.951
65.0,-116.0,5.952
48.0,-88.0,5.953
21.0,46.0,5.954
0.0,223.0,5.955
-5.0,314.0,5.956
-11.0,260.0,5.957
-30.0,85.0,5.958
-52.0,-98.0,5.959
-66.0,-216.0,5.96
-66.0,-289.0,5.961
-60.0,-355.0,5.962
-50.0,-388.0,5.963
-36.0,-307.0,5.964
-11.0,-92.0,5.965
32.0,156.0,5.966
91.0,295.0,5.967
143.0,252.0,5.968
153.0,88.0,5.969
116.0,-55.0,5.97
51.0,-93.0,5.971
-1.0,-68.0,5.972
-26.0,-62.0,5.973
-40.0,-86.0,5.974
-70.0,-97.0,5.975
-110.0,-78.0,5.976
-133.0,-39.0,5.977
-128.0,29.0,5.978
-105.0,145.0,5.979
-74.0,290.0,5.98
-34.0,424.0,5.981
4.0,497.0,5.982
23.0,451.0,5.983
21.0,317.0,5.984
18.0,217.0,5.985
23.0,200.0,5.986
29.0,128.0,5.987
29.0,-118.0,5.988
33.0,-400.0,5.989
43.0,-501.0,5.99
46.0,-452.0,5.991
40.0,-467.0,5.992
32.0,-599.0,5.993
24.0,-696.0,5.994
13.0,-674.0,5.995
-3.0,-593.0,5.996
-12.0,-479.0,5.997
-11.0,-239.0,5.998
-2.0,120.0,5.999
7.0,433.0,6.0
16.0,546.0,6.001
27.0,497.0,6.002
41.0,442.0,6.003
51.0,453.0,6.004
48.0,436.0,6.005
36.0,259.0,6.006
28.0,-41.0,6.007
27.0,-220.0,6.008
24.0,-86.0,6.009
13.0,236.0,6.01
-1.0,427.0,6.011
-11.0,334.0,6.012
-21.0,92.0,6.013
-30.0,-114.0,6.014
-23.0,-246.0,6.015
9.0,-327.0,6.016
52.0,-332.0,6.017
83.0,-209.0,6.018
83.0,11.0,6.019
52.0,203.0,6.02
9.0,235.0,6.021
-24.0,78.0,6.022
-46.0,-181.0,6.023
-67.0,-398.0,6.024
-95.0,-492.0,6.025
-117.0,-478.0,6.026
-115.0,-405.0,6.027
-75.0,-296.0,6.028
-11.0,-184.0,6.029
45.0,-107.0,6.03
63.0,-70.0,6.031
38.0,-33.0,6.032
5.0,20.0,6.033
6.0,78.0,6.034
44.0,141.0,6.035
83.0,223.0,6.036
97.0,298.0,6.037
77.0,344.0,6.038
43.0,420.0,6.039
9.0,613.0,6.04
-16.0,846.0,6.041
-29.0,910.0,6.042
-34.0,705.0,6.043
-42.0,373.0,6.044
-54.0,97.0,6.045
-67.0,-81.0,6.046
-70.0,-173.0,6.047
-59.0,-136.0,6.048
-38.0,-19.0,6.049
-17.0,-36.0,6.05
-7.0,-310.0,6.051
-8.0,-639.0,6.052
-17.0,-760.0,6.053
-35.0,-685.0,6.054
-61.0,-578.0,6.055
-74.0,-440.0,6.056
-54.0,-238.0,6.057
-6.0,-154.0,6.058
40.0,-310.0,6.059
61.0,-371.0,6.06
73.0,-149.0,6.061
91.0,83.0,6.062
106.0,345.0,6.063
103.0,483.0,6.064
92.0,249.0,6.065
87.0,82.0,6.066
82.0,115.0,6.067
58.0,140.0,6.068
23.0,142.0,6.069
-6.0,141.0,6.07
-28.0,128.0,6.071
-48.0,113.0,6.072
-52.0,95.0,6.073
-31.0,79.0,6.074
-7.0,72.0,6.075
-7.0,60.0,6.076
-25.0,36.0,6.077
-40.0,29.0,6.078
-33.0,90.0,6.079
-18.0,163.0,6.08
-9.0,212.0,6.081
-5.0,232.0,6.082
-2.0,215.0,6.083
-1.0,165.0,6.084
1.0,109.0,6.085
7.0,53.0,6.086
15.0,-12.0,6.087
17.0,-60.0,6.088
19.0,-45.0,6.089
24.0,15.0,6.09
31.0,30.0,6.091
28.0,-30.0,6.092
17.0,-79.0,6.093
8.0,-44.0,6.094
8.0,14.0,6.095
3.0,-7.0,6.096
-9.0,-99.0,6.097
-21.0,-199.0,6.098
-28.0,-264.0,6.099
-36.0,-317.0,6.1
-48.0,-368.0,6.101
-54.0,-384.0,6.102
-47.0,-366.0,6.103
-43.0,-350.0,6.104
-45.0,-324.0,6.105
-44.0,-228.0,6.106
-30.0,-47.0,6.107
-13.0,148.0,6.108
2.0,286.0,6.109
22.0,360.0,6.11
44.0,412.0,6.111
50.0,466.0,6.112
39.0,513.0,6.113
37.0,538.0,6.114
56.0,530.0,6.115
68.0,473.0,6.116
55.0,371.0,6.117
38.0,228.0,6.118
43.0,90.0,6.119
41.0,0.0,6.12
-1.0,-55.0,6.121
-67.0,-116.0,6.122
-95.0,-214.0,6.123
-74.0,-321.0,6.124
-44.0,-385.0,6.125
-25.0,-408.0,6.126
0.0,-433.0,6.127
30.0,-453.0,6.128
33.0,-401.0,6.129
-1.0,-257.0,6.13
-32.0,-119.0,6.131
-20.0,-78.0,6.132
22.0,-104.0,6.133
56.0,-98.0,6.134
59.0,-41.0,6.135
43.0,1.0,6.136
29.0,0.0,6.137
21.0,-14.0,6.138
10.0,-13.0,6.139
-15.0,-17.0,6.14
-45.0,-63.0,6.141
-59.0,-138.0,6.142
-51.0,-201.0,6.143
-37.0,-203.0,6.144
-26.0,-127.0,6.145
-13.0,-6.0,6.146
13.0,98.0,6.147
34.0,147.0,6.148
34.0,149.0,6.149
19.0,127.0,6.15
4.0,94.0,6.151
-2.0,73.0,6.152
2.0,96.0,6.153
14.0,160.0,6.154
22.0,212.0,6.155
22.0,223.0,6.156
15.0,220.0,6.157
5.0,225.0,6.158
3.0,221.0,6.159
4.0,184.0,6.16
11.0,126.0,6.161
23.0,71.0,6.162
36.0,0.0,6.163
37.0,-102.0,6.164
23.0,-199.0,6.165
6.0,-250.0,6.166
-6.0,-259.0,6.167
-14.0,-248.0,6.168
-14.0,-208.0,6.169
-3.0,-120.0,6.17
22.0,-12.0,6.171
49.0,61.0,6.172
60.0,86.0,6.173
55.0,96.0,6.174
47.0,117.0,6.175
44.0,136.0,6.176
41.0,137.0,6.177
28.0,125.0,6.178
10.0,113.0,6.179
-7.0,101.0,6.18
-21.0,83.0,6.181
-32.0,71.0,6.182
-37.0,64.0,6.183
-33.0,52.0,6.184
-26.0,30.0,6.185
-23.0,7.0,6.186
-23.0,-5.0,6.187
-24.0,-9.0,6.188
-24.0,-15.0,6.189
-30.0,-31.0,6.19
-35.0,-47.0,6.191
-30.0,-56.0,6.192
-20.0,-49.0,6.193
-11.0,-26.0,6.194
-7.0,12.0,6.195
-7.0,61.0,6.196
-6.0,100.0,6.197
-5.0,117.0,6.198
-3.0,124.0,6.199
-3.0,131.0,6.2
-3.0,117.0,6.201
3.0,71.0,6.202
20.0,19.0,6.203
38.0,-2.0,6.204
47.0,-11.0,6.205
44.0,-58.0,6.206
43.0,-148.0,6.207
41.0,-232.0,6.208
28.0,-282.0,6.209
9.0,-312.0,6.21
0.0,-324.0,6.211
6.0,-300.0,6.212
9.0,-231.0,6.213
3.0,-144.0,6.214
1.0,-63.0,6.215
8.0,-2.0,6.216
7.0,31.0,6.217
-14.0,38.0,6.218
-36.0,45.0,6.219
-44.0,70.0,6.22
-38.0,98.0,6.221
-27.0,109.0,6.222
-12.0,101.0,6.223
1.0,95.0,6.224
2.0,90.0,6.225
-3.0,78.0,6.226
-1.0,58.0,6.227
8.0,40.0,6.228
14.0,24.0,6.229
11.0,10.0,6.23
15.0,5.0,6.231
21.0,1.0,6.232
14.0,-19.0,6.233
-3.0,-60.0,6.234
-14.0,-86.0,6.235
-16.0,-69.0,6.236
-17.0,-32.0,6.237
-14.0,-2.0,6.238
-3.0,21.0,6.239
8.0,55.0,6.24
7.0,89.0,6.241
-1.0,102.0,6.242
0.0,86.0,6.243
4.0,63.0,6.244
1.0,49.0,6.245
-6.0,49.0,6.246
-2.0,55.0,6.247
11.0,61.0,6.248
19.0,53.0,6.249
19.0,33.0,6.25
21.0,14.0,6.251
26.0,12.0,6.252
26.0,13.0,6.253
18.0,4.0,6.254
6.0,-12.0,6.255
-1.0,-29.0,6.256
-3.0,-37.0,6.257
1.0,-44.0,6.258
9.0,-47.0,6.259
10.0,-48.0,6.26
2.0,-51.0,6.261
-4.0,-48.0,6.262
-2.0,-43.0,6.263
3.0,-33.0,6.264
1.0,-22.0,6.265
-3.0,-12.0,6.266
-4.0,-10.0,6.267
-1.0,-11.0,6.268
-4.0,-10.0,6.269
-11.0,-4.0,6.27
-14.0,-1.0,6.271
-8.0,1.0,6.272
-5.0,0.0,6.273
-6.0,4.0,6.274
-8.0,7.0,6.275
-6.0,7.0,6.276
-4.0,5.0,6.277
-7.0,6.0,6.278
-11.0,9.0,6.279
-14.0,9.0,6.28
-15.0,1.0,6.281
-12.0,-3.0,6.282
-1.0,-3.0,6.283
12.0,1.0,6.284
18.0,5.0,6.285
14.0,8.0,6.286
10.0,8.0,6.287
12.0,4.0,6.288
15.0,3.0,6.289
13.0,2.0,6.29
12.0,1.0,6.291
15.0,-3.0,6.292
16.0,-7.0,6.293
12.0,-9.0,6.294
5.0,-8.0,6.295
3.0,-3.0,6.296
5.0,3.0,6.297
4.0,2.0,6.298
5.0,-4.0,6.299
10.0,-7.0,6.3
23.0,-7.0,6.301
33.0,-7.0,6.302
36.0,-10.0,6.303
27.0,-10.0,6.304
11.0,-5.0,6.305
-1.0,4.0,6.306
-2.0,8.0,6.307
0.0,6.0,6.308
-6.0,6.0,6.309
-27.0,5.0,6.31
-49.0,5.0,6.311
-53.0,9.0,6.312
-39.0,14.0,6.313
-18.0,12.0,6.314
0.0,-2.0,6.315
16.0,-18.0,6.316
28.0,-24.0,6.317
38.0,-24.0,6.318
47.0,-22.0,6.319
48.0,-16.0,6.32
33.0,-12.0,6.321
14.0,-10.0,6.322
11.0,-13.0,6.323
28.0,-13.0,6.324
39.0,-8.0,6.325
30.0,-3.0,6.326
20.0,-4.0,6.327
22.0,-10.0,6.328
24.0,-11.0,6.329
15.0,-5.0,6.33
5.0,-2.0,6.331
15.0,-5.0,6.332
26.0,-8.0,6.333
22.0,-5.0,6.334
9.0,-1.0,6.335
3.0,-2.0,6.336
4.0,-2.0,6.337
-7.0,2.0,6.338
-28.0,10.0,6.339
-37.0,12.0,6.34
-30.0,6.0,6.341
-27.0,6.0,6.342
-41.0,13.0,6.343
-59.0,17.0,6.344
-57.0,11.0,6.345
-36.0,0.0,6.346
-15.0,-6.0,6.347
-6.0,-9.0,6.348
-9.0,-13.0,6.349
-7.0,-16.0,6.35
9.0,-14.0,6.351
31.0,-7.0,6.352
37.0,4.0,6.353
24.0,18.0,6.354
11.0,31.0,6.355
15.0,34.0,6.356
28.0,30.0,6.357
27.0,19.0,6.358
13.0,8.0,6.359
1.0,-3.0,6.36
5.0,-12.0,6.361
6.0,-12.0,6.362
-10.0,-1.0,6.363
-26.0,7.0,6.364
-27.0,2.0,6.365
-17.0,-4.0,6.366
-9.0,-1.0,6.367
5.0,2.0,6.368
32.0,-4.0,6.369
56.0,-14.0,6.37
50.0,-17.0,6.371
23.0,-14.0,6.372
4.0,-13.0,6.373
3.0,-12.0,6.374
2.0,-8.0,6.375
-6.0,-3.0,6.376
-8.0,0.0,6.377
-4.0,-3.0,6.378
1.0,-2.0,6.379
5.0,-2.0,6.38
5.0,-8.0,6.381
7.0,-13.0,6.382
19.0,-9.0,6.383
22.0,-5.0,6.384
-1.0,-2.0,6.385
-24.0,0.0,6.386
-45.0,4.0,6.387
-54.0,7.0,6.388
-26.0,7.0,6.389
-3.0,6.0,6.39
0.0,4.0,6.391
1.0,3.0,6.392
0.0,4.0,6.393
0.0,5.0,6.394
13.0,4.0,6.395
31.0,2.0,6.396
67.0,0.0,6.397
101.0,-4.0,6.398
111.0,-9.0,6.399
80.0,-4.0,6.4
8.0,7.0,6.401
-74.0,19.0,6.402
-122.0,20.0,6.403
-110.0,13.0,6.404
-62.0,8.0,6.405
-26.0,4.0,6.406
-11.0,-5.0,6.407
-4.0,-17.0,6.408
-6.0,-21.0,6.409
-23.0,-12.0,6.41
-34.0,0.0,6.411
-14.0,8.0,6.412
24.0,13.0,6.413
51.0,18.0,6.414
60.0,21.0,6.415
51.0,19.0,6.416
20.0,15.0,6.417
-31.0,7.0,6.418
-64.0,-4.0,6.419
-70.0,-19.0,6.42
-78.0,-33.0,6.421
-104.0,-35.0,6.422
-112.0,-23.0,6.423
-76.0,1.0,6.424
-16.0,31.0,6.425
37.0,48.0,6.426
91.0,40.0,6.427
146.0,26.0,6.428
180.0,20.0,6.429
175.0,15.0,6.43
138.0,-7.0,6.431
91.0,-39.0,6.432
51.0,-52.0,6.433
30.0,-47.0,6.434
29.0,-47.0,6.435
24.0,-57.0,6.436
-3.0,-58.0,6.437
-46.0,-45.0,6.438
-79.0,-27.0,6.439
-103.0,-16.0,6.44
-119.0,-4.0,6.441
-114.0,20.0,6.442
-74.0,44.0,6.443
-24.0,71.0,6.444
8.0,118.0,6.445
41.0,189.0,6.446
87.0,243.0,6.447
100.0,231.0,6.448
34.0,141.0,6.449
-66.0,11.0,6.45
-114.0,-104.0,6.451
-87.0,-173.0,6.452
-42.0,-196.0,6.453
-19.0,-193.0,6.454
-7.0,-176.0,6.455
7.0,-145.0,6.456
28.0,-100.0,6.457
70.0,-55.0,6.458
128.0,-15.0,6.459
141.0,33.0,6.46
67.0,98.0,6.461
-32.0,143.0,6.462
-48.0,116.0,6.463
18.0,29.0,6.464
61.0,-55.0,6.465
13.0,-99.0,6.466
-61.0,-122.0,6.467
-84.0,-138.0,6.468
-54.0,-131.0,6.469
-27.0,-96.0,6.47
-20.0,-54.0,6.471
-7.0,-26.0,6.472
30.0,-8.0,6.473
82.0,11.0,6.474
140.0,24.0,6.475
173.0,35.0,6.476
145.0,60.0,6.477
37.0,96.0,6.478
-69.0,110.0,6.479
-89.0,102.0,6.48
-50.0,99.0,6.481
-56.0,120.0,6.482
-124.0,132.0,6.483
-160.0,111.0,6.484
-118.0,71.0,6.485
-63.0,42.0,6.486
-44.0,22.0,6.487
-13.0,-8.0,6.488
61.0,-41.0,6.489
121.0,-54.0,6.49
103.0,-43.0,6.491
46.0,-28.0,6.492
20.0,-18.0,6.493
16.0,-7.0,6.494
-16.0,12.0,6.495
-59.0,32.0,6.496
-68.0,42.0,6.497
-44.0,36.0,6.498
-28.0,23.0,6.499
-30.0,36.0,6.5
-20.0,107.0,6.501
13.0,224.0,6.502
44.0,297.0,6.503
56.0,248.0,6.504
56.0,114.0,6.505
53.0,-1.0,6.506
46.0,-59.0,6.507
47.0,-113.0,6.508
70.0,-180.0,6.509
98.0,-197.0,6.51
99.0,-144.0,6.511
61.0,-111.0,6.512
13.0,-172.0,6.513
-31.0,-269.0,6.514
-71.0,-299.0,6.515
-90.0,-252.0,6.516
-75.0,-185.0,6.517
-57.0,-109.0,6.518
-101.0,-9.0,6.519
-192.0,78.0,6.52
-202.0,84.0,6.521
-46.0,26.0,6.522
178.0,-39.0,6.523
311.0,-93.0,6.524
312.0,-150.0,6.525
259.0,-180.0,6.526
190.0,-138.0,6.527
74.0,-45.0,6.528
-78.0,32.0,6.529
-210.0,72.0,6.53
-287.0,117.0,6.531
-301.0,220.0,6.532
-230.0,416.0,6.533
-83.0,675.0,6.534
53.0,849.0,6.535
104.0,769.0,6.536
102.0,474.0,6.537
99.0,122.0,6.538
78.0,-112.0,6.539
8.0,-264.0,6.54
-45.0,-431.0,6.541
-14.0,-561.0,6.542
30.0,-562.0,6.543
-20.0,-458.0,6.544
-127.0,-330.0,6.545
-164.0,-179.0,6.546
-110.0,-12.0,6.547
-50.0,79.0,6.548
-13.0,43.0,6.549
41.0,-38.0,6.55
103.0,-84.0,6.551
118.0,-130.0,6.552
91.0,-206.0,6.553
82.0,-226.0,6.554
105.0,-129.0,6.555
99.0,-11.0,6.556
45.0,15.0,6.557
-25.0,-12.0,6.558
-55.0,5.0,6.559
-36.0,25.0,6.56
-4.0,48.0,6.561
13.0,63.0,6.562
9.0,51.0,6.563
-1.0,41.0,6.564
-1.0,37.0,6.565
18.0,20.0,6.566
50.0,-33.0,6.567
87.0,-66.0,6.568
124.0,-32.0,6.569
161.0,31.0,6.57
185.0,183.0,6.571
159.0,301.0,6.572
63.0,314.0,6.573
-63.0,315.0,6.574
-151.0,279.0,6.575
-179.0,244.0,6.576
-176.0,218.0,6.577
-166.0,162.0,6.578
-133.0,3.0,6.579
-70.0,-79.0,6.58
-11.0,-24.0,6.581
16.0,52.0,6.582
24.0,22.0,6.583
45.0,-48.0,6.584
73.0,-1.0,6.585
86.0,147.0,6.586
81.0,193.0,6.587
69.0,34.0,6.588
36.0,-203.0,6.589
-37.0,-354.0,6.59
-125.0,-420.0,6.591
-168.0,-473.0,6.592
-134.0,-501.0,6.593
-59.0,-453.0,6.594
-17.0,-360.0,6.595
-34.0,-297.0,6.596
-60.0,-260.0,6.597
-39.0,-175.0,6.598
27.0,-28.0,6.599
64.0,116.0,6.6
43.0,198.0,6.601
24.0,264.0,6.602
57.0,412.0,6.603
106.0,676.0,6.604
111.0,922.0,6.605
81.0,920.0,6.606
58.0,577.0,6.607
43.0,59.0,6.608
21.0,-366.0,6.609
5.0,-579.0,6.61
5.0,-620.0,6.611
-8.0,-522.0,6.612
-55.0,-247.0,6.613
-99.0,202.0,6.614
-102.0,641.0,6.615
-74.0,789.0,6.616
-48.0,533.0,6.617
-34.0,-8.0,6.618
-18.0,-476.0,6.619
-5.0,-664.0,6.62
3.0,-671.0,6.621
13.0,-678.0,6.622
32.0,-691.0,6.623
53.0,-635.0,6.624
66.0,-536.0,6.625
72.0,-471.0,6.626
73.0,-412.0,6.627
68.0,-291.0,6.628
62.0,-127.0,6.629
60.0,-3.0,6.63
64.0,89.0,6.631
80.0,221.0,6.632
99.0,425.0,6.633
96.0,645.0,6.634
57.0,777.0,6.635
3.0,739.0,6.636
-27.0,570.0,6.637
-36.0,380.0,6.638
-40.0,290.0,6.639
-56.0,289.0,6.64
-69.0,315.0,6.641
-72.0,386.0,6.642
-67.0,493.0,6.643
-51.0,506.0,6.644
-20.0,305.0,6.645
13.0,-17.0,6.646
30.0,-254.0,6.647
32.0,-353.0,6.648
25.0,-412.0,6.649
2.0,-475.0,6.65
-39.0,-477.0,6.651
-66.0,-389.0,6.652
-59.0,-264.0,6.653
-40.0,-159.0,6.654
-43.0,-87.0,6.655
-64.0,-59.0,6.656
-71.0,-48.0,6.657
-55.0,6.0,6.658
-29.0,120.0,6.659
-7.0,221.0,6.66
17.0,254.0,6.661
45.0,265.0,6.662
71.0,282.0,6.663
78.0,255.0,6.664
55.0,145.0,6.665
11.0,2.0,6.666
-20.0,-122.0,6.667
-18.0,-227.0,6.668
2.0,-292.0,6.669
16.0,-274.0,6.67
15.0,-201.0,6.671
14.0,-155.0,6.672
17.0,-148.0,6.673
17.0,-119.0,6.674
19.0,-54.0,6.675
21.0,-16.0,6.676
22.0,-33.0,6.677
19.0,-77.0,6.678
20.0,-112.0,6.679
25.0,-122.0,6.68
23.0,-97.0,6.681
10.0,-33.0,6.682
0.0,48.0,6.683
9.0,136.0,6.684
19.0,242.0,6.685
16.0,329.0,6.686
5.0,316.0,6.687
-8.0,207.0,6.688
-30.0,115.0,6.689
-56.0,115.0,6.69
-69.0,140.0,6.691
-60.0,99.0,6.692
-47.0,7.0,6.693
-40.0,-61.0,6.694
-33.0,-93.0,6.695
-18.0,-154.0,6.696
-8.0,-263.0,6.697
-15.0,-402.0,6.698
-24.0,-492.0,6.699
-26.0,-481.0,6.7
-22.0,-384.0,6.701
-18.0,-252.0,6.702
-9.0,-137.0,6.703
6.0,-40.0,6.704
12.0,66.0,6.705
4.0,191.0,6.706
3.0,312.0,6.707
22.0,392.0,6.708
49.0,405.0,6.709
63.0,361.0,6.71
62.0,307.0,6.711
58.0,278.0,6.712
56.0,269.0,6.713
52.0,246.0,6.714
44.0,198.0,6.715
34.0,131.0,6.716
19.0,53.0,6.717
1.0,-48.0,6.718
-5.0,-135.0,6.719
3.0,-174.0,6.72
13.0,-180.0,6.721
17.0,-178.0,6.722
23.0,-168.0,6.723
35.0,-136.0,6.724
36.0,-98.0,6.725
19.0,-78.0,6.726
0.0,-72.0,6.727
-4.0,-65.0,6.728
-1.0,-60.0,6.729
-5.0,-59.0,6.73
-13.0,-36.0,6.731
-13.0,21.0,6.732
-7.0,74.0,6.733
-2.0,82.0,6.734
-1.0,69.0,6.735
0.0,70.0,6.736
3.0,75.0,6.737
4.0,63.0,6.738
4.0,49.0,6.739
6.0,59.0,6.74
6.0,75.0,6.741
4.0,59.0,6.742
5.0,4.0,6.743
5.0,-58.0,6.744
-1.0,-102.0,6.745
-12.0,-129.0,6.746
-17.0,-147.0,6.747
-10.0,-157.0,6.748
-3.0,-151.0,6.749
-2.0,-123.0,6.75
0.0,-79.0,6.751
10.0,-38.0,6.752
16.0,-18.0,6.753
10.0,-10.0,6.754
-4.0,1.0,6.755
-15.0,18.0,6.756
-18.0,27.0,6.757
-21.0,23.0,6.758
-28.0,19.0,6.759
-39.0,14.0,6.76
-51.0,2.0,6.761
-45.0,-2.0,6.762
-18.0,13.0,6.763
14.0,44.0,6.764
24.0,74.0,6.765
14.0,92.0,6.766
5.0,93.0,6.767
8.0,77.0,6.768
8.0,55.0,6.769
-5.0,40.0,6.77
-20.0,36.0,6.771
-21.0,32.0,6.772
-14.0,31.0,6.773
-12.0,32.0,6.774
-10.0,35.0,6.775
0.0,31.0,6.776
18.0,20.0,6.777
32.0,5.0,6.778
37.0,-6.0,6.779
40.0,-14.0,6.78
42.0,-20.0,6.781
43.0,-21.0,6.782
43.0,-25.0,6.783
41.0,-37.0,6.784
35.0,-53.0,6.785
25.0,-58.0,6.786
16.0,-59.0,6.787
11.0,-58.0,6.788
9.0,-56.0,6.789
0.0,-49.0,6.79
-14.0,-40.0,6.791
-21.0,-37.0,6.792
-18.0,-40.0,6.793
-12.0,-39.0,6.794
-10.0,-30.0,6.795
-11.0,-19.0,6.796
-13.0,-9.0,6.797
-19.0,-8.0,6.798
-26.0,-9.0,6.799
-28.0,-10.0,6.8
-21.0,-12.0,6.801
-10.0,-8.0,6.802
1.0,1.0,6.803
9.0,10.0,6.804
13.0,18.0,6.805
11.0,25.0,6.806
7.0,26.0,6.807
12.0,19.0,6.808
16.0,11.0,6.809
11.0,3.0,6.81
2.0,-13.0,6.811
1.0,-43.0,6.812
2.0,-78.0,6.813
-1.0,-81.0,6.814
-5.0,-35.0,6.815
-3.0,31.0,6.816
1.0,73.0,6.817
-2.0,71.0,6.818
-9.0,49.0,6.819
-15.0,36.0,6.82
-14.0,36.0,6.821
-12.0,40.0,6.822
-6.0,40.0,6.823
2.0,39.0,6.824
6.0,41.0,6.825
6.0,50.0,6.826
12.0,61.0,6.827
26.0,68.0,6.828
35.0,67.0,6.829
29.0,54.0,6.83
18.0,34.0,6.831
13.0,11.0,6.832
12.0,-6.0,6.833
7.0,-16.0,6.834
2.0,-18.0,6.835
1.0,-19.0,6.836
0.0,-23.0,6.837
-8.0,-31.0,6.838
-14.0,-34.0,6.839
-20.0,-33.0,6.84
-18.0,-34.0,6.841
-15.0,-33.0,6.842
-7.0,-29.0,6.843
1.0,-23.0,6.844
5.0,-18.0,6.845
10.0,-18.0,6.846
17.0,-18.0,6.847
23.0,-15.0,6.848
23.0,-10.0,6.849
19.0,-6.0,6.85
2.0,-4.0,6.851
-14.0,-2.0,6.852
-27.0,0.0,6.853
-40.0,5.0,6.854
-49.0,9.0,6.855
-54.0,10.0,6.856
-48.0,10.0,6.857
-43.0,10.0,6.858
-39.0,7.0,6.859
-33.0,2.0,6.86
-17.0,-6.0,6.861
8.0,-8.0,6.862
37.0,-6.0,6.863
64.0,-3.0,6.864
78.0,-3.0,6.865
75.0,-4.0,6.866
60.0,-1.0,6.867
47.0,-1.0,6.868
43.0,-3.0,6.869
44.0,-5.0,6.87
32.0,-6.0,6.871
4.0,-8.0,6.872
-24.0,-12.0,6.873
-30.0,-11.0,6.874
-11.0,-7.0,6.875
15.0,-4.0,6.876
28.0,-4.0,6.877
44.0,-4.0,6.878
74.0,-4.0,6.879
97.0,-3.0,6.88
80.0,-2.0,6.881
24.0,4.0,6.882
-26.0,8.0,6.883
-38.0,3.0,6.884
-29.0,-5.0,6.885
-34.0,-8.0,6.886
-56.0,-5.0,6.887
-77.0,-1.0,6.888
-84.0,1.0,6.889
-77.0,6.0,6.89
-55.0,12.0,6.891
-14.0,7.0,6.892
29.0,-4.0,6.893
46.0,-11.0,6.894
35.0,-9.0,6.895
20.0,-7.0,6.896
22.0,-5.0,6.897
27.0,-5.0,6.898
18.0,-4.0,6.899
-2.0,-3.0,6.9
-5.0,-7.0,6.901
14.0,-9.0,6.902
34.0,-7.0,6.903
42.0,-7.0,6.904
38.0,-7.0,6.905
37.0,-6.0,6.906
39.0,-5.0,6.907
33.0,-6.0,6.908
18.0,-5.0,6.909
5.0,-2.0,6.91
0.0,1.0,6.911
-3.0,-1.0,6.912
-9.0,-5.0,6.913
-17.0,-5.0,6.914
-17.0,-2.0,6.915
-8.0,0.0,6.916
2.0,1.0,6.917
6.0,0.0,6.918
6.0,0.0,6.919
9.0,-3.0,6.92
14.0,-10.0,6.921
9.0,-11.0,6.922
-12.0,-6.0,6.923
-31.0,0.0,6.924
-35.0,3.0,6.925
-25.0,5.0,6.926
-15.0,5.0,6.927
-11.0,5.0,6.928
-5.0,5.0,6.929
4.0,2.0,6.93
18.0,-1.0,6.931
29.0,-1.0,6.932
30.0,2.0,6.933
22.0,3.0,6.934
12.0,1.0,6.935
12.0,-4.0,6.936
31.0,-6.0,6.937
53.0,-10.0,6.938
62.0,-14.0,6.939
24.0,-11.0,6.94
-46.0,0.0,6.941
-93.0,18.0,6.942
-77.0,23.0,6.943
-31.0,11.0,6.944
-24.0,3.0,6.945
-63.0,10.0,6.946
-88.0,22.0,6.947
-66.0,18.0,6.948
-38.0,7.0,6.949
-37.0,2.0,6.95
-33.0,7.0,6.951
8.0,10.0,6.952
57.0,3.0,6.953
69.0,-4.0,6.954
47.0,-7.0,6.955
28.0,-8.0,6.956
22.0,-9.0,6.957
12.0,-5.0,6.958
-1.0,0.0,6.959
-9.0,2.0,6.96
-11.0,-2.0,6.961
0.0,-3.0,6.962
20.0,-1.0,6.963
35.0,-2.0,6.964
29.0,-1.0,6.965
16.0,-1.0,6.966
15.0,-6.0,6.967
19.0,-15.0,6.968
10.0,-17.0,6.969
-4.0,-11.0,6.97
-7.0,-4.0,6.971
-5.0,-1.0,6.972
-13.0,10.0,6.973
-19.0,32.0,6.974
-4.0,36.0,6.975
13.0,13.0,6.976
13.0,-14.0,6.977
1.0,-26.0,6.978
7.0,-28.0,6.979
24.0,-42.0,6.98
35.0,-64.0,6.981
35.0,-62.0,6.982
34.0,-39.0,6.983
43.0,-15.0,6.984
61.0,1.0,6.985
77.0,21.0,6.986
64.0,44.0,6.987
12.0,65.0,6.988
-34.0,81.0,6.989
-20.0,86.0,6.99
33.0,70.0,6.991
33.0,40.0,6.992
-49.0,9.0,6.993
-115.0,-9.0,6.994
-73.0,-29.0,6.995
23.0,-51.0,6.996
45.0,-52.0,6.997
-45.0,-26.0,6.998
-149.0,-2.0,6.999
-170.0,-19.0,7.0
-118.0,-63.0,7.001
-65.0,-70.0,7.002
-38.0,-10.0,7.003
-14.0,91.0,7.004
33.0,178.0,7.005
83.0,198.0,7.006
104.0,135.0,7.007
92.0,27.0,7.008
63.0,-51.0,7.009
32.0,-70.0,7.01
-6.0,-74.0,7.011
-42.0,-94.0,7.012
-47.0,-101.0,7.013
-12.0,-76.0,7.014
20.0,-48.0,7.015
17.0,-36.0,7.016
-1.0,-12.0,7.017
0.0,33.0,7.018
19.0,59.0,7.019
19.0,54.0,7.02
5.0,72.0,7.021
8.0,142.0,7.022
33.0,174.0,7.023
54.0,94.0,7.024
50.0,-38.0,7.025
36.0,-112.0,7.026
29.0,-91.0,7.027
31.0,-11.0,7.028
37.0,75.0,7.029
37.0,92.0,7.03
23.0,-21.0,7.031
3.0,-205.0,7.032
3.0,-312.0,7.033
39.0,-286.0,7.034
83.0,-223.0,7.035
95.0,-204.0,7.036
69.0,-195.0,7.037
24.0,-124.0,7.038
-6.0,10.0,7.039
-15.0,143.0,7.04
-23.0,212.0,7.041
-47.0,189.0,7.042
-74.0,90.0,7.043
-83.0,-9.0,7.044
-73.0,-49.0,7.045
-63.0,-38.0,7.046
-64.0,0.0,7.047
-53.0,81.0,7.048
-15.0,196.0,7.049
38.0,262.0,7.05
66.0,210.0,7.051
46.0,88.0,7.052
2.0,-11.0,7.053
-16.0,-69.0,7.054
6.0,-111.0,7.055
21.0,-133.0,7.056
-10.0,-107.0,7.057
-71.0,-17.0,7.058
-85.0,132.0,7.059
-27.0,294.0,7.06
56.0,365.0,7.061
96.0,275.0,7.062
72.0,87.0,7.063
18.0,-55.0,7.064
-24.0,-94.0,7.065
-41.0,-98.0,7.066
-50.0,-108.0,7.067
-77.0,-102.0,7.068
-125.0,-85.0,7.069
-151.0,-102.0,7.07
-120.0,-120.0,7.071
-52.0,-35.0,7.072
3.0,167.0,7.073
32.0,377.0,7.074
56.0,508.0,7.075
79.0,552.0,7.076
80.0,481.0,7.077
62.0,203.0,7.078
44.0,-222.0,7.079
27.0,-584.0,7.08
2.0,-755.0,7.081
-18.0,-808.0,7.082
-8.0,-845.0,7.083
19.0,-815.0,7.084
29.0,-649.0,7.085
25.0,-419.0,7.086
37.0,-240.0,7.087
58.0,-110.0,7.088
60.0,30.0,7.089
40.0,170.0,7.09
35.0,272.0,7.091
50.0,348.0,7.092
56.0,418.0,7.093
49.0,441.0,7.094
47.0,391.0,7.095
48.0,322.0,7.096
39.0,315.0,7.097
15.0,396.0,7.098
-1.0,508.0,7.099
-1.0,549.0,7.1
1.0,446.0,7.101
-4.0,280.0,7.102
-13.0,199.0,7.103
-21.0,221.0,7.104
-29.0,184.0,7.105
-29.0,-44.0,7.106
-15.0,-378.0,7.107
-7.0,-618.0,7.108
-31.0,-686.0,7.109
-76.0,-651.0,7.11
-100.0,-598.0,7.111
-77.0,-542.0,7.112
-31.0,-477.0,7.113
8.0,-402.0,7.114
29.0,-313.0,7.115
30.0,-214.0,7.116
18.0,-103.0,7.117
1.0,73.0,7.118
11.0,374.0,7.119
44.0,738.0,7.12
73.0,939.0,7.121
94.0,798.0,7.122
135.0,401.0,7.123
179.0,34.0,7.124
154.0,-133.0,7.125
50.0,-181.0,7.126
-38.0,-233.0,7.127
-41.0,-273.0,7.128
-15.0,-230.0,7.129
-33.0,-137.0,7.13
-64.0,-84.0,7.131
-54.0,-74.0,7.132
-39.0,-29.0,7.133
-71.0,79.0,7.134
-116.0,207.0,7.135
-113.0,300.0,7.136
-81.0,323.0,7.137
-70.0,262.0,7.138
-66.0,89.0,7.139
-33.0,-138.0,7.14
23.0,-333.0,7.141
50.0,-423.0,7.142
39.0,-404.0,7.143
24.0,-313.0,7.144
20.0,-191.0,7.145
9.0,-53.0,7.146
-15.0,105.0,7.147
-43.0,265.0,7.148
-59.0,376.0,7.149
-46.0,395.0,7.15
-5.0,345.0,7.151
28.0,261.0,7.152
10.0,153.0,7.153
-36.0,28.0,7.154
-51.0,-71.0,7.155
-15.0,-104.0,7.156
19.0,-87.0,7.157
17.0,-68.0,7.158
5.0,-73.0,7.159
13.0,-97.0,7.16
28.0,-141.0,7.161
38.0,-182.0,7.162
52.0,-190.0,7.163
69.0,-153.0,7.164
69.0,-92.0,7.165
47.0,-23.0,7.166
31.0,41.0,7.167
40.0,73.0,7.168
53.0,50.0,7.169
51.0,3.0,7.17
44.0,9.0,7.171
51.0,116.0,7.172
61.0,291.0,7.173
52.0,444.0,7.174
28.0,477.0,7.175
6.0,350.0,7.176
-6.0,169.0,7.177
-16.0,68.0,7.178
-25.0,118.0,7.179
-37.0,200.0,7.18
-46.0,139.0,7.181
-46.0,-43.0,7.182
-34.0,-161.0,7.183
-22.0,-95.0,7.184
-27.0,56.0,7.185
-48.0,84.0,7.186
-65.0,-89.0,7.187
-65.0,-342.0,7.188
-56.0,-498.0,7.189
-48.0,-505.0,7.19
-33.0,-449.0,7.191
-2.0,-420.0,7.192
33.0,-427.0,7.193
51.0,-417.0,7.194
42.0,-359.0,7.195
21.0,-267.0,7.196
5.0,-190.0,7.197
-1.0,-150.0,7.198
9.0,-115.0,7.199
22.0,-41.0,7.2
31.0,62.0,7.201
33.0,134.0,7.202
37.0,145.0,7.203
40.0,144.0,7.204
40.0,175.0,7.205
34.0,214.0,7.206
34.0,220.0,7.207
37.0,202.0,7.208
29.0,183.0,7.209
10.0,142.0,7.21
-2.0,76.0,7.211
0.0,34.0,7.212
6.0,55.0,7.213
2.0,91.0,7.214
-8.0,62.0,7.215
-25.0,-45.0,7.216
-48.0,-153.0,7.217
-71.0,-200.0,7.218
-78.0,-144.0,7.219
-70.0,3.0,7.22
-60.0,177.0,7.221
-51.0,300.0,7.222
-38.0,324.0,7.223
-18.0,283.0,7.224
3.0,256.0,7.225
22.0,288.0,7.226
40.0,353.0,7.227
53.0,402.0,7.228
54.0,407.0,7.229
46.0,369.0,7.23
43.0,273.0,7.231
41.0,105.0,7.232
27.0,-97.0,7.233
0.0,-245.0,7.234
-18.0,-293.0,7.235
-14.0,-291.0,7.236
2.0,-301.0,7.237
15.0,-338.0,7.238
13.0,-369.0,7.239
0.0,-386.0,7.24
-16.0,-389.0,7.241
-32.0,-332.0,7.242
-38.0,-201.0,7.243
-28.0,-66.0,7.244
-9.0,-14.0,7.245
11.0,-22.0,7.246
25.0,-7.0,7.247
28.0,50.0,7.248
16.0,81.0,7.249
-6.0,48.0,7.25
-21.0,-18.0,7.251
-19.0,-68.0,7.252
-14.0,-91.0,7.253
-15.0,-101.0,7.254
-16.0,-106.0,7.255
-4.0,-92.0,7.256
8.0,-43.0,7.257
8.0,49.0,7.258
0.0,147.0,7.259
-2.0,203.0,7.26
7.0,214.0,7.261
23.0,225.0,7.262
42.0,254.0,7.263
54.0,281.0,7.264
48.0,275.0,7.265
27.0,233.0,7.266
13.0,164.0,7.267
12.0,86.0,7.268
15.0,11.0,7.269
10.0,-49.0,7.27
8.0,-83.0,7.271
14.0,-95.0,7.272
14.0,-107.0,7.273
-8.0,-139.0,7.274
-30.0,-170.0,7.275
-34.0,-164.0,7.276
-18.0,-121.0,7.277
-3.0,-87.0,7.278
-3.0,-92.0,7.279
-11.0,-104.0,7.28
-7.0,-80.0,7.281
12.0,-32.0,7.282
31.0,-10.0,7.283
36.0,-26.0,7.284
27.0,-40.0,7.285
23.0,-20.0,7.286
29.0,25.0,7.287
36.0,70.0,7.288
34.0,91.0,7.289
27.0,73.0,7.29
24.0,31.0,7.291
23.0,6.0,7.292
18.0,21.0,7.293
10.0,48.0,7.294
6.0,45.0,7.295
6.0,20.0,7.296
7.0,5.0,7.297
-1.0,4.0,7.298
