Deltoid,Bicep,Time
5,-1,0.0
8,17,0.001
2,-60,0.002
-1,-162,0.003
0,-160,0.004
0,-46,0.005
-3,63,0.006
-4,83,0.007
-4,66,0.008
-4,96,0.009
-5,153,0.01
-4,171,0.011
0,151,0.012
3,138,0.013
2,129,0.014
2,105,0.015
2,72,0.016
3,55,0.017
5,35,0.018
12,-21,0.019
17,-90,0.02
16,-120,0.021
11,-114,0.022
9,-109,0.023
9,-100,0.024
7,-62,0.025
1,-10,0.026
-4,-7,0.027
-10,-92,0.028
-18,-215,0.029
-20,-264,0.03
-11,-146,0.031
-2,94,0.032
1,276,0.033
-1,281,0.034
-2,151,0.035
0,27,0.036
0,-25,0.037
-1,-30,0.038
4,-8,0.039
15,47,0.04
20,95,0.041
15,78,0.042
6,21,0.043
6,-7,0.044
12,-3,0.045
13,-22,0.046
7,-81,0.047
2,-125,0.048
0,-107,0.049
4,-42,0.05
7,23,0.051
6,51,0.052
2,37,0.053
-2,1,0.054
-4,-21,0.055
-6,-30,0.056
-8,-55,0.057
-5,-87,0.058
5,-83,0.059
13,-21,0.06
14,58,0.061
5,98,0.062
0,88,0.063
-2,56,0.064
-2,33,0.065
-2,12,0.066
1,-12,0.067
5,-26,0.068
5,-16,0.069
2,5,0.07
-1,8,0.071
-3,-12,0.072
0,-31,0.073
-1,-35,0.074
-3,-26,0.075
-6,-26,0.076
-9,-37,0.077
-4,-40,0.078
7,-29,0.079
17,-17,0.08
14,-6,0.081
3,1,0.082
-1,16,0.083
2,32,0.084
4,37,0.085
1,29,0.086
0,11,0.087
1,-5,0.088
0,-15,0.089
-3,-19,0.09
-2,-17,0.091
4,-9,0.092
7,6,0.093
1,22,0.094
-1,34,0.095
0,32,0.096
-1,9,0.097
-4,-24,0.098
-1,-61,0.099
10,-103,0.1
13,-146,0.101
5,-173,0.102
-4,-140,0.103
-4,-28,0.104
-3,110,0.105
-6,166,0.106
-10,75,0.107
-6,-92,0.108
1,-164,0.109
5,-59,0.11
6,108,0.111
7,181,0.112
9,161,0.113
11,163,0.114
10,228,0.115
4,246,0.116
1,160,0.117
2,80,0.118
13,97,0.119
20,135,0.12
20,93,0.121
15,6,0.122
12,-30,0.123
9,-26,0.124
2,-48,0.125
-3,-95,0.126
-2,-109,0.127
2,-88,0.128
1,-82,0.129
-1,-93,0.13
0,-92,0.131
3,-72,0.132
10,-60,0.133
12,-63,0.134
13,-62,0.135
8,-56,0.136
2,-61,0.137
1,-66,0.138
9,-61,0.139
16,-47,0.14
6,-39,0.141
-7,-32,0.142
-11,-18,0.143
-6,-2,0.144
-3,6,0.145
-6,15,0.146
-12,28,0.147
-22,29,0.148
-48,14,0.149
-97,-2,0.15
-176,-8,0.151
-275,-16,0.152
-359,-31,0.153
-381,-48,0.154
-290,-49,0.155
-105,-39,0.156
109,-31,0.157
306,-17,0.158
470,9,0.159
571,42,0.16
557,68,0.161
425,87,0.162
243,91,0.163
95,78,0.164
14,53,0.165
-3,35,0.166
16,27,0.167
31,18,0.168
11,7,0.169
-28,4,0.17
-48,12,0.171
-39,19,0.172
-34,13,0.173
-66,1,0.174
-119,-4,0.175
-161,-6,0.176
-166,-13,0.177
-136,-19,0.178
-86,-25,0.179
-62,-35,0.18
-127,-45,0.181
-302,-52,0.182
-508,-56,0.183
-590,-61,0.184
-439,-61,0.185
-113,-48,0.186
191,-27,0.187
336,-10,0.188
376,7,0.189
449,38,0.19
554,67,0.191
553,75,0.192
408,70,0.193
229,63,0.194
145,58,0.195
105,49,0.196
-18,34,0.197
-196,28,0.198
-304,28,0.199
-347,22,0.2
-444,5,0.201
-571,-22,0.202
-531,-54,0.203
-281,-75,0.204
-41,-77,0.205
19,-65,0.206
34,-52,0.207
205,-33,0.208
468,2,0.209
595,55,0.21
529,101,0.211
416,116,0.212
338,104,0.213
194,73,0.214
-80,39,0.215
-378,6,0.216
-512,-26,0.217
-419,-49,0.218
-193,-64,0.219
40,-79,0.22
210,-93,0.221
298,-95,0.222
290,-79,0.223
190,-56,0.224
28,-40,0.225
-158,-30,0.226
-332,-15,0.227
-442,0,0.228
-419,0,0.229
-255,-22,0.23
-63,-46,0.231
42,-48,0.232
88,-23,0.233
208,22,0.234
395,71,0.235
439,117,0.236
190,152,0.237
-166,170,0.238
-256,157,0.239
39,111,0.24
398,53,0.241
412,7,0.242
27,-22,0.243
-436,-51,0.244
-662,-71,0.245
-554,-66,0.246
-170,-34,0.247
342,-5,0.248
725,1,0.249
763,-4,0.25
531,-6,0.251
307,-2,0.252
183,4,0.253
-6,13,0.254
-307,24,0.255
-523,16,0.256
-516,-16,0.257
-406,-49,0.258
-303,-63,0.259
-138,-64,0.26
85,-58,0.261
173,-36,0.262
66,12,0.263
-10,68,0.264
105,95,0.265
249,71,0.266
233,24,0.267
134,-4,0.268
82,-8,0.269
13,-18,0.27
-145,-49,0.271
-260,-75,0.272
-218,-78,0.273
-154,-66,0.274
-263,-59,0.275
-465,-54,0.276
-499,-46,0.277
-310,-29,0.278
-80,-20,0.279
63,-20,0.28
158,-14,0.281
243,4,0.282
279,22,0.283
253,24,0.284
243,16,0.285
326,10,0.286
489,11,0.287
618,19,0.288
579,37,0.289
348,58,0.29
51,62,0.291
-152,35,0.292
-215,4,0.293
-208,-6,0.294
-191,4,0.295
-182,10,0.296
-172,-1,0.297
-162,-11,0.298
-151,-15,0.299
-144,-17,0.3
-147,-18,0.301
-153,-14,0.302
-147,-6,0.303
-149,-10,0.304
-205,-18,0.305
-315,-22,0.306
-390,-21,0.307
-310,-20,0.308
-56,-11,0.309
250,10,0.31
444,29,0.311
456,28,0.312
359,18,0.313
224,15,0.314
100,24,0.315
3,23,0.316
-47,5,0.317
-50,-5,0.318
-44,-1,0.319
-52,4,0.32
-51,3,0.321
-20,1,0.322
16,2,0.323
25,4,0.324
13,4,0.325
2,8,0.326
-2,10,0.327
-13,6,0.328
-24,0,0.329
-25,-2,0.33
-20,-1,0.331
-17,-4,0.332
-13,-6,0.333
-6,-7,0.334
-2,-6,0.335
-10,-4,0.336
-18,-2,0.337
-13,5,0.338
0,15,0.339
9,22,0.34
8,23,0.341
5,22,0.342
5,16,0.343
5,3,0.344
8,-11,0.345
9,-20,0.346
8,-28,0.347
1,-39,0.348
-5,-48,0.349
-10,-45,0.35
-11,-32,0.351
-13,-15,0.352
-15,-2,0.353
-23,5,0.354
-35,6,0.355
-48,5,0.356
-47,2,0.357
-23,7,0.358
21,17,0.359
73,28,0.36
114,33,0.361
131,29,0.362
132,22,0.363
123,17,0.364
105,16,0.365
78,15,0.366
51,11,0.367
33,4,0.368
22,-1,0.369
10,-1,0.37
-3,3,0.371
-10,1,0.372
-14,-5,0.373
-19,-19,0.374
-26,-28,0.375
-37,-30,0.376
-41,-29,0.377
-36,-29,0.378
-24,-27,0.379
-19,-26,0.38
-34,-22,0.381
-60,-13,0.382
-77,-6,0.383
-71,-1,0.384
-51,2,0.385
-27,8,0.386
0,12,0.387
35,12,0.388
64,9,0.389
63,9,0.39
33,9,0.391
1,3,0.392
-5,-3,0.393
9,-4,0.394
16,0,0.395
4,4,0.396
-6,2,0.397
-1,4,0.398
10,8,0.399
10,8,0.4
4,2,0.401
1,-6,0.402
0,-12,0.403
-3,-13,0.404
-17,-3,0.405
-51,10,0.406
-108,12,0.407
-167,0,0.408
-181,-17,0.409
-127,-23,0.41
-42,-16,0.411
14,-8,0.412
30,-4,0.413
58,-3,0.414
147,3,0.415
267,17,0.416
320,36,0.417
237,50,0.418
89,47,0.419
18,29,0.42
65,12,0.421
112,5,0.422
58,3,0.423
-35,-3,0.424
-53,-9,0.425
-11,-10,0.426
-9,-8,0.427
-53,-10,0.428
-65,-11,0.429
-36,-9,0.43
-30,-9,0.431
-56,-9,0.432
-63,-10,0.433
-40,-9,0.434
-33,-7,0.435
-53,-6,0.436
-60,-10,0.437
-46,-12,0.438
-44,-9,0.439
-53,-7,0.44
-50,-7,0.441
-33,-8,0.442
-27,-11,0.443
-26,-14,0.444
-10,-14,0.445
10,-15,0.446
10,-17,0.447
7,-19,0.448
28,-14,0.449
51,-8,0.45
38,-1,0.451
4,3,0.452
-6,-2,0.453
10,-7,0.454
14,-4,0.455
-16,2,0.456
-33,0,0.457
-2,2,0.458
49,12,0.459
70,22,0.46
57,24,0.461
46,16,0.462
47,11,0.463
33,12,0.464
-1,15,0.465
-26,15,0.466
-23,10,0.467
-17,5,0.468
-37,4,0.469
-72,1,0.47
-85,-5,0.471
-86,-14,0.472
-116,-17,0.473
-179,-18,0.474
-187,-17,0.475
-61,-15,0.476
148,-13,0.477
284,-6,0.478
253,2,0.479
135,13,0.48
53,26,0.481
25,35,0.482
-22,33,0.483
-68,23,0.484
-8,15,0.485
155,20,0.486
257,28,0.487
181,28,0.488
29,18,0.489
-37,12,0.49
-15,9,0.491
-16,4,0.492
-63,-3,0.493
-106,-12,0.494
-118,-20,0.495
-147,-28,0.496
-192,-38,0.497
-166,-38,0.498
-21,-24,0.499
154,-2,0.5
215,17,0.501
125,25,0.502
-8,16,0.503
-62,-3,0.504
-33,-13,0.505
12,-6,0.506
34,6,0.507
25,9,0.508
-15,0,0.509
-77,-13,0.51
-103,-20,0.511
-52,-20,0.512
34,-15,0.513
95,-13,0.514
118,-11,0.515
130,-9,0.516
119,-1,0.517
52,8,0.518
-40,7,0.519
-85,-4,0.52
-75,-12,0.521
-65,-8,0.522
-75,0,0.523
-62,0,0.524
-17,-1,0.525
17,3,0.526
21,10,0.527
20,8,0.528
26,-2,0.529
17,-8,0.53
-7,-6,0.531
-23,-3,0.532
-27,-3,0.533
-32,-8,0.534
-43,-9,0.535
-55,-9,0.536
-78,-14,0.537
-125,-16,0.538
-174,-14,0.539
-192,-12,0.54
-171,-15,0.541
-137,-21,0.542
-95,-22,0.543
-27,-19,0.544
71,-14,0.545
168,-8,0.546
252,1,0.547
358,19,0.548
463,40,0.549
444,54,0.55
229,57,0.551
-45,50,0.552
-164,37,0.553
-108,12,0.554
-13,-14,0.555
45,-27,0.556
120,-17,0.557
206,13,0.558
186,39,0.559
36,49,0.56
-107,48,0.561
-155,39,0.562
-164,21,0.563
-191,3,0.564
-184,-3,0.565
-105,-4,0.566
-17,-11,0.567
21,-22,0.568
32,-24,0.569
42,-22,0.57
15,-24,0.571
-69,-30,0.572
-138,-30,0.573
-116,-30,0.574
-17,-36,0.575
51,-40,0.576
28,-34,0.577
-32,-14,0.578
-47,6,0.579
-21,27,0.58
-22,40,0.581
-58,32,0.582
-56,5,0.583
15,-11,0.584
87,-8,0.585
80,-3,0.586
17,-9,0.587
-29,-12,0.588
-41,-1,0.589
-42,10,0.59
-34,3,0.591
-5,-10,0.592
26,-12,0.593
38,-8,0.594
39,-8,0.595
37,-11,0.596
17,-11,0.597
-22,-8,0.598
-25,-10,0.599
35,-15,0.6
89,-10,0.601
58,3,0.602
-33,16,0.603
-90,28,0.604
-91,31,0.605
-93,20,0.606
-110,0,0.607
-92,-16,0.608
-17,-16,0.609
63,-12,0.61
104,-9,0.611
108,-4,0.612
87,5,0.613
30,11,0.614
-28,8,0.615
-20,-1,0.616
72,-7,0.617
163,-2,0.618
174,2,0.619
125,5,0.62
93,11,0.621
92,13,0.622
62,7,0.623
-22,0,0.624
-106,-2,0.625
-141,1,0.626
-138,0,0.627
-125,-8,0.628
-80,-11,0.629
8,-10,0.63
91,-11,0.631
128,-13,0.632
149,-6,0.633
195,8,0.634
230,21,0.635
172,21,0.636
22,8,0.637
-124,-1,0.638
-189,1,0.639
-185,11,0.64
-155,21,0.641
-130,19,0.642
-116,5,0.643
-102,-3,0.644
-64,2,0.645
2,10,0.646
63,6,0.647
83,-6,0.648
58,-9,0.649
-1,-5,0.65
-79,-3,0.651
-133,-3,0.652
-115,-4,0.653
-32,-7,0.654
38,-13,0.655
58,-17,0.656
88,-18,0.657
171,-17,0.658
227,-17,0.659
159,-15,0.66
33,-12,0.661
-2,-6,0.662
60,0,0.663
92,11,0.664
43,18,0.665
-3,17,0.666
4,11,0.667
7,9,0.668
-42,7,0.669
-95,1,0.67
-106,-1,0.671
-100,4,0.672
-103,9,0.673
-94,0,0.674
-63,-12,0.675
-43,-13,0.676
-60,-9,0.677
-76,-6,0.678
-86,-8,0.679
-89,-6,0.68
-70,-1,0.681
-37,-1,0.682
35,-5,0.683
84,-9,0.684
66,-9,0.685
60,-11,0.686
94,-10,0.687
101,-3,0.688
22,6,0.689
-33,7,0.69
-13,4,0.691
11,1,0.692
49,3,0.693
72,3,0.694
45,3,0.695
46,3,0.696
54,2,0.697
28,1,0.698
-14,1,0.699
-25,6,0.7
-6,6,0.701
9,1,0.702
1,-3,0.703
-3,-1,0.704
4,0,0.705
7,0,0.706
-5,-2,0.707
-19,0,0.708
-24,1,0.709
-26,-2,0.71
-29,-6,0.711
-32,-6,0.712
-41,-3,0.713
-65,-3,0.714
-83,-8,0.715
-64,-11,0.716
-14,-13,0.717
6,-14,0.718
-34,-12,0.719
-82,-9,0.72
-58,-5,0.721
29,0,0.722
96,7,0.723
112,13,0.724
138,15,0.725
210,14,0.726
247,15,0.727
171,20,0.728
43,21,0.729
-20,15,0.73
-8,7,0.731
-5,4,0.732
-33,6,0.733
-52,4,0.734
-42,-1,0.735
-40,-6,0.736
-63,-9,0.737
-73,-9,0.738
-51,-9,0.739
-29,-9,0.74
-36,-9,0.741
-58,-5,0.742
-83,-2,0.743
-106,-2,0.744
-119,-2,0.745
-103,-4,0.746
-60,-5,0.747
-11,-7,0.748
44,-8,0.749
112,-4,0.75
171,2,0.751
185,5,0.752
153,5,0.753
105,2,0.754
81,2,0.755
80,5,0.756
74,6,0.757
53,5,0.758
37,2,0.759
33,2,0.76
23,4,0.761
-8,4,0.762
-48,-2,0.763
-70,-9,0.764
-68,-8,0.765
-50,-2,0.766
-30,-1,0.767
-15,-4,0.768
-7,-3,0.769
-14,6,0.77
-32,10,0.771
-43,1,0.772
-30,-8,0.773
-3,-9,0.774
1,-4,0.775
-48,-1,0.776
-115,-7,0.777
-126,-9,0.778
-66,-7,0.779
-5,-5,0.78
4,-2,0.781
-8,4,0.782
12,8,0.783
56,8,0.784
68,6,0.785
35,5,0.786
-1,2,0.787
-5,-4,0.788
16,-9,0.789
31,-6,0.79
26,-2,0.791
14,-1,0.792
9,-1,0.793
9,-2,0.794
6,-2,0.795
0,-3,0.796
-2,-4,0.797
2,-2,0.798
6,0,0.799
1,2,0.8
-17,6,0.801
-52,8,0.802
-95,4,0.803
-125,-2,0.804
-129,-4,0.805
-112,-4,0.806
-77,-6,0.807
-6,-10,0.808
93,-11,0.809
172,-9,0.81
207,-9,0.811
232,-6,0.812
266,6,0.813
255,18,0.814
149,22,0.815
2,23,0.816
-77,9,0.817
-72,0,0.818
-59,3,0.819
-73,6,0.82
-79,10,0.821
-58,14,0.822
-52,18,0.823
-78,19,0.824
-99,7,0.825
-84,-3,0.826
-48,-4,0.827
1,-6,0.828
79,-7,0.829
174,-8,0.83
228,-6,0.831
184,-5,0.832
65,-6,0.833
-82,-10,0.834
-185,-15,0.835
-213,-15,0.836
-190,-13,0.837
-153,-11,0.838
-104,-7,0.839
-30,-2,0.84
54,1,0.841
103,3,0.842
99,4,0.843
71,7,0.844
52,5,0.845
38,0,0.846
12,-6,0.847
-13,-10,0.848
-15,-7,0.849
4,-1,0.85
14,6,0.851
8,8,0.852
5,7,0.853
12,0,0.854
13,-1,0.855
-9,-1,0.856
-33,-5,0.857
-31,-9,0.858
-8,-8,0.859
4,-3,0.86
-9,4,0.861
-24,5,0.862
-12,0,0.863
13,-3,0.864
25,-4,0.865
18,-3,0.866
6,-3,0.867
-1,-5,0.868
3,-5,0.869
19,-4,0.87
40,1,0.871
51,3,0.872
47,3,0.873
36,1,0.874
30,1,0.875
20,1,0.876
3,0,0.877
-11,0,0.878
-10,1,0.879
-2,1,0.88
0,1,0.881
-7,1,0.882
-10,0,0.883
-5,0,0.884
0,-1,0.885
-4,-1,0.886
-22,0,0.887
-53,1,0.888
-71,2,0.889
-56,4,0.89
-8,5,0.891
37,5,0.892
53,5,0.893
45,-2,0.894
40,0,0.895
34,0,0.896
17,-3,0.897
-10,-5,0.898
-24,-2,0.899
-20,0,0.9
-21,0,0.901
-51,-1,0.902
-103,-3,0.903
-129,-5,0.904
-81,-7,0.905
29,-9,0.906
134,-5,0.907
172,0,0.908
150,8,0.909
107,14,0.91
58,16,0.911
3,18,0.912
-31,16,0.913
-32,12,0.914
-34,5,0.915
-96,-2,0.916
-178,-7,0.917
-183,-6,0.918
-94,-8,0.919
-6,-12,0.92
29,-14,0.921
83,-9,0.922
204,-1,0.923
303,6,0.924
273,11,0.925
151,11,0.926
50,7,0.927
0,-1,0.928
-51,-7,0.929
-120,-9,0.93
-169,-12,0.931
-176,-13,0.932
-149,-10,0.933
-78,-5,0.934
21,-2,0.935
85,1,0.936
81,4,0.937
58,6,0.938
61,7,0.939
54,9,0.94
3,20,0.941
-40,28,0.942
-22,18,0.943
10,-3,0.944
-11,-12,0.945
-56,-5,0.946
-68,-1,0.947
-69,-5,0.948
-111,-12,0.949
-153,-11,0.95
-117,-10,0.951
-12,-13,0.952
64,-14,0.953
75,-12,0.954
57,-9,0.955
50,-6,0.956
73,-4,0.957
98,-1,0.958
109,4,0.959
103,12,0.96
77,21,0.961
33,26,0.962
-13,16,0.963
-49,7,0.964
-60,-2,0.965
-45,-9,0.966
-17,-9,0.967
2,-9,0.968
4,-10,0.969
1,-10,0.97
-1,-8,0.971
-4,-7,0.972
-9,-7,0.973
-10,-7,0.974
-10,-5,0.975
-17,-2,0.976
-24,-5,0.977
-22,-4,0.978
-16,-2,0.979
-17,0,0.98
-21,0,0.981
-12,0,0.982
11,-1,0.983
41,-3,0.984
72,-3,0.985
100,-2,0.986
96,4,0.987
31,11,0.988
-78,11,0.989
-163,4,0.99
-155,-7,0.991
-55,-9,0.992
57,-3,0.993
123,-2,0.994
133,-5,0.995
105,-2,0.996
55,5,0.997
-11,13,0.998
-59,11,0.999
-63,5,1.0
-41,3,1.001
-29,3,1.002
-23,4,1.003
-8,7,1.004
5,12,1.005
-2,13,1.006
-22,5,1.007
-32,-1,1.008
-21,0,1.009
8,3,1.01
38,0,1.011
36,-3,1.012
-3,-2,1.013
-52,0,1.014
-56,-1,1.015
-15,-6,1.016
27,-12,1.017
49,-12,1.018
59,-11,1.019
52,-12,1.02
9,-10,1.021
-45,-7,1.022
-49,-3,1.023
18,0,1.024
113,0,1.025
174,-1,1.026
179,-3,1.027
143,-4,1.028
82,0,1.029
-2,8,1.03
-96,14,1.031
-159,20,1.032
-151,23,1.033
-79,18,1.034
-6,10,1.035
9,4,1.036
-8,6,1.037
6,8,1.038
55,10,1.039
74,11,1.04
34,5,1.041
-11,0,1.042
-8,-6,1.043
10,-14,1.044
-14,-24,1.045
-71,-33,1.046
-98,-41,1.047
-70,-44,1.048
-15,-33,1.049
44,-23,1.05
92,-15,1.051
121,-8,1.052
115,-4,1.053
70,0,1.054
-9,2,1.055
-113,3,1.056
-207,7,1.057
-234,15,1.058
-169,18,1.059
-59,11,1.06
11,5,1.061
15,7,1.062
-8,14,1.063
-12,18,1.064
10,12,1.065
48,1,1.066
96,-6,1.067
133,-5,1.068
136,0,1.069
100,5,1.07
51,8,1.071
18,10,1.072
5,13,1.073
4,11,1.074
6,8,1.075
2,5,1.076
-12,0,1.077
-27,-4,1.078
-38,-2,1.079
-48,-1,1.08
-53,0,1.081
-35,2,1.082
11,0,1.083
45,-1,1.084
31,-1,1.085
-12,-2,1.086
-34,-3,1.087
-17,-4,1.088
14,-1,1.089
39,0,1.09
55,-4,1.091
66,-7,1.092
68,-4,1.093
56,-2,1.094
36,-2,1.095
17,-1,1.096
10,-2,1.097
13,-2,1.098
7,-3,1.099
-32,-2,1.1
-93,2,1.101
-123,4,1.102
-84,0,1.103
-7,-8,1.104
43,-13,1.105
50,-13,1.106
43,-10,1.107
40,-7,1.108
27,-6,1.109
1,-5,1.11
-5,0,1.111
18,9,1.112
42,14,1.113
34,13,1.114
4,11,1.115
-19,8,1.116
-20,5,1.117
-10,3,1.118
8,1,1.119
28,0,1.12
33,1,1.121
6,1,1.122
-35,0,1.123
-46,-4,1.124
-10,-9,1.125
32,-14,1.126
35,-13,1.127
1,-12,1.128
-24,-12,1.129
-24,-8,1.13
-16,1,1.131
-20,9,1.132
-42,10,1.133
-98,12,1.134
-169,18,1.135
-193,14,1.136
-108,-4,1.137
44,-12,1.138
150,-7,1.139
147,2,1.14
87,4,1.141
46,1,1.142
42,0,1.143
43,2,1.144
28,3,1.145
2,1,1.146
-15,-4,1.147
-7,-8,1.148
21,-10,1.149
38,-9,1.15
27,-7,1.151
6,-10,1.152
5,-9,1.153
11,-5,1.154
6,0,1.155
1,3,1.156
0,-2,1.157
0,-5,1.158
6,1,1.159
12,7,1.16
12,7,1.161
10,5,1.162
8,3,1.163
7,2,1.164
7,0,1.165
6,-1,1.166
2,-1,1.167
-1,-2,1.168
0,-3,1.169
1,-4,1.17
1,-1,1.171
0,2,1.172
1,2,1.173
2,0,1.174
-2,-1,1.175
-8,-3,1.176
-11,-6,1.177
-11,-5,1.178
-5,-2,1.179
3,2,1.18
6,6,1.181
0,5,1.182
-4,3,1.183
4,1,1.184
17,2,1.185
16,4,1.186
-7,5,1.187
-44,2,1.188
-76,0,1.189
-74,1,1.19
-28,0,1.191
32,-2,1.192
66,-4,1.193
66,-4,1.194
59,0,1.195
52,3,1.196
43,0,1.197
31,-2,1.198
11,-2,1.199
-15,-1,1.2
-59,0,1.201
-93,0,1.202
-95,-5,1.203
-83,-9,1.204
-24,-9,1.205
25,-8,1.206
45,-7,1.207
71,-6,1.208
113,-4,1.209
146,-3,1.21
151,-4,1.211
155,-3,1.212
152,3,1.213
134,12,1.214
47,18,1.215
-57,14,1.216
-120,4,1.217
-134,4,1.218
-127,11,1.219
-133,18,1.22
-173,19,1.221
-237,15,1.222
-270,8,1.223
-206,0,1.224
-41,-6,1.225
127,-7,1.226
206,-8,1.227
194,-8,1.228
149,-8,1.229
102,-6,1.23
50,-3,1.231
7,-2,1.232
-2,-2,1.233
14,-4,1.234
33,-10,1.235
42,-13,1.236
47,-15,1.237
40,-12,1.238
18,-6,1.239
-4,0,1.24
-13,4,1.241
-19,3,1.242
-35,-2,1.243
-47,-3,1.244
-40,-1,1.245
-26,0,1.246
-18,0,1.247
-13,-1,1.248
-8,-2,1.249
-9,-4,1.25
-14,-4,1.251
-14,-1,1.252
-6,0,1.253
-4,-2,1.254
-9,-7,1.255
-12,-6,1.256
-8,-3,1.257
-2,-1,1.258
2,0,1.259
10,-1,1.26
14,1,1.261
4,7,1.262
-19,8,1.263
-50,2,1.264
-76,-3,1.265
-67,-3,1.266
-8,0,1.267
64,-2,1.268
80,-5,1.269
30,-5,1.27
-15,-1,1.271
1,0,1.272
48,1,1.273
69,-1,1.274
58,-3,1.275
46,-4,1.276
43,-3,1.277
26,0,1.278
-2,2,1.279
-9,4,1.28
9,12,1.281
23,18,1.282
16,14,1.283
-4,-2,1.284
-16,-13,1.285
0,-14,1.286
37,-4,1.287
64,3,1.288
56,7,1.289
25,12,1.29
12,15,1.291
20,11,1.292
23,7,1.293
0,4,1.294
-31,3,1.295
-56,-3,1.296
-67,-9,1.297
-68,-4,1.298
-58,2,1.299
-49,-1,1.3
-58,-11,1.301
-79,-13,1.302
-69,-9,1.303
0,-11,1.304
90,-15,1.305
127,-12,1.306
82,-5,1.307
12,-4,1.308
-17,-8,1.309
-7,-7,1.31
-6,-1,1.311
-36,0,1.312
-70,0,1.313
-81,-1,1.314
-48,0,1.315
20,3,1.316
87,3,1.317
113,3,1.318
86,6,1.319
38,7,1.32
7,7,1.321
-1,10,1.322
-6,9,1.323
-20,1,1.324
-27,-1,1.325
-18,4,1.326
0,9,1.327
8,3,1.328
2,-7,1.329
-2,-8,1.33
-2,-5,1.331
-2,-4,1.332
-3,-6,1.333
-4,-6,1.334
0,-4,1.335
0,-3,1.336
-4,-7,1.337
-7,-9,1.338
0,-6,1.339
9,-3,1.34
10,0,1.341
3,3,1.342
-8,6,1.343
-27,6,1.344
-53,3,1.345
-65,0,1.346
-40,-2,1.347
6,-1,1.348
45,-2,1.349
58,-3,1.35
58,-5,1.351
59,-6,1.352
59,-1,1.353
49,6,1.354
33,12,1.355
18,12,1.356
3,4,1.357
-7,-1,1.358
-6,-4,1.359
-1,-2,1.36
-6,1,1.361
-31,4,1.362
-71,4,1.363
-106,0,1.364
-108,-4,1.365
-52,-3,1.366
50,-4,1.367
132,-8,1.368
137,-14,1.369
75,-15,1.37
9,-13,1.371
-28,-9,1.372
-46,-1,1.373
-43,9,1.374
3,15,1.375
69,8,1.376
86,-7,1.377
41,-10,1.378
-10,2,1.379
-29,17,1.38
-43,23,1.381
-75,26,1.382
-82,23,1.383
-32,12,1.384
32,2,1.385
59,-2,1.386
51,1,1.387
38,1,1.388
24,-1,1.389
5,-4,1.39
-9,-5,1.391
-12,-7,1.392
-8,-8,1.393
-6,-8,1.394
-2,-6,1.395
0,-7,1.396
-1,-12,1.397
-8,-12,1.398
-10,-7,1.399
-17,-5,1.4
-48,-3,1.401
-86,0,1.402
-77,-1,1.403
-1,-5,1.404
88,-8,1.405
128,-7,1.406
110,-6,1.407
72,-7,1.408
39,-4,1.409
6,5,1.41
-31,13,1.411
-61,13,1.412
-70,6,1.413
-63,-3,1.414
-60,-6,1.415
-78,-5,1.416
-100,-6,1.417
-91,-6,1.418
-33,-4,1.419
41,-2,1.42
84,1,1.421
93,4,1.422
99,5,1.423
117,4,1.424
121,4,1.425
91,7,1.426
45,8,1.427
7,7,1.428
-15,4,1.429
-19,0,1.43
-15,-5,1.431
-10,-7,1.432
-6,-5,1.433
-8,-5,1.434
-23,-5,1.435
-58,-4,1.436
-93,-8,1.437
-86,-7,1.438
-21,-5,1.439
47,-1,1.44
51,-1,1.441
-1,-4,1.442
-37,-7,1.443
-17,-8,1.444
21,-6,1.445
37,-5,1.446
43,-4,1.447
52,0,1.448
35,4,1.449
-29,4,1.45
-92,0,1.451
-96,-2,1.452
-58,2,1.453
-33,7,1.454
-43,12,1.455
-54,13,1.456
-29,9,1.457
31,6,1.458
105,8,1.459
157,14,1.46
159,16,1.461
123,7,1.462
86,-5,1.463
59,-7,1.464
24,-1,1.465
-17,3,1.466
-29,-2,1.467
-4,-6,1.468
16,-4,1.469
8,-1,1.47
-6,-1,1.471
-14,-2,1.472
-25,-2,1.473
-44,-3,1.474
-46,-6,1.475
-49,-9,1.476
-48,-10,1.477
-46,-11,1.478
-44,-9,1.479
-40,-7,1.48
-32,-2,1.481
-24,2,1.482
-17,3,1.483
-9,5,1.484
3,3,1.485
14,1,1.486
24,-1,1.487
32,-4,1.488
30,-2,1.489
27,-1,1.49
21,-1,1.491
15,-1,1.492
7,-1,1.493
-3,-1,1.494
-23,-2,1.495
-40,-2,1.496
-48,-2,1.497
-33,-2,1.498
18,-3,1.499
74,-2,1.5
93,1,1.501
70,4,1.502
36,3,1.503
8,-2,1.504
-28,0,1.505
-71,5,1.506
-99,6,1.507
-101,3,1.508
-94,2,1.509
-91,4,1.51
-71,1,1.511
-10,-5,1.512
76,-6,1.513
142,-3,1.514
152,0,1.515
143,2,1.516
73,-2,1.517
14,-4,1.518
-15,-2,1.519
-37,0,1.52
-33,0,1.521
-33,1,1.522
-47,2,1.523
-61,2,1.524
-73,-3,1.525
-74,-6,1.526
-42,-3,1.527
-1,0,1.528
68,-4,1.529
128,-6,1.53
160,-4,1.531
174,-1,1.532
134,1,1.533
91,5,1.534
29,7,1.535
-42,8,1.536
-89,3,1.537
-80,-1,1.538
-23,-5,1.539
44,-6,1.54
82,-2,1.541
82,3,1.542
48,3,1.543
-2,1,1.544
-44,3,1.545
-67,4,1.546
-83,1,1.547
-101,-2,1.548
-107,-3,1.549
-84,-1,1.55
-58,-4,1.551
-59,-11,1.552
-74,-12,1.553
-62,-7,1.554
-17,-1,1.555
9,4,1.556
-9,6,1.557
-35,4,1.558
-22,0,1.559
12,-5,1.56
28,-3,1.561
24,3,1.562
31,2,1.563
54,-3,1.564
66,-4,1.565
57,1,1.566
46,4,1.567
44,-1,1.568
39,-6,1.569
24,-8,1.57
8,-8,1.571
4,-7,1.572
12,-4,1.573
15,-5,1.574
-8,-6,1.575
-70,-6,1.576
-147,-6,1.577
-180,-8,1.578
-126,-9,1.579
-8,-6,1.58
93,0,1.581
119,1,1.582
74,-3,1.583
24,-5,1.584
29,2,1.585
82,6,1.586
134,6,1.587
153,3,1.588
147,1,1.589
131,0,1.59
101,0,1.591
58,6,1.592
10,15,1.593
-38,16,1.594
-69,9,1.595
-56,0,1.596
-4,-1,1.597
32,2,1.598
15,0,1.599
-31,-5,1.6
-66,-4,1.601
-88,0,1.602
-106,1,1.603
-99,0,1.604
-64,-1,1.605
-45,-1,1.606
-72,-5,1.607
-93,-6,1.608
-44,-4,1.609
58,-3,1.61
132,-6,1.611
134,-11,1.612
98,-9,1.613
61,-4,1.614
28,0,1.615
-11,0,1.616
-50,-4,1.617
-73,-3,1.618
-77,-2,1.619
-73,-1,1.62
-72,0,1.621
-65,2,1.622
-48,3,1.623
-14,0,1.624
22,-1,1.625
42,-1,1.626
28,-1,1.627
-10,-1,1.628
-39,0,1.629
-35,0,1.63
-17,-3,1.631
-15,-9,1.632
-28,-11,1.633
-37,-7,1.634
-23,7,1.635
0,19,1.636
24,23,1.637
47,23,1.638
64,11,1.639
61,1,1.64
42,1,1.641
36,1,1.642
59,-1,1.643
89,-3,1.644
92,-1,1.645
72,0,1.646
56,-4,1.647
47,-6,1.648
28,-3,1.649
-1,-1,1.65
-17,-5,1.651
-10,-7,1.652
0,-5,1.653
-9,-2,1.654
-20,-4,1.655
-27,-9,1.656
-20,-10,1.657
-15,-8,1.658
-15,-8,1.659
-18,-7,1.66
-27,-3,1.661
-44,1,1.662
-82,-1,1.663
-104,-5,1.664
-72,-4,1.665
-31,-2,1.666
33,-2,1.667
87,-3,1.668
108,-1,1.669
115,2,1.67
76,0,1.671
41,-2,1.672
17,0,1.673
-5,2,1.674
-13,5,1.675
-17,7,1.676
-16,2,1.677
-18,-2,1.678
-20,-5,1.679
-17,-7,1.68
-4,-2,1.681
10,2,1.682
19,4,1.683
21,6,1.684
14,9,1.685
0,11,1.686
-7,9,1.687
-3,7,1.688
1,4,1.689
-9,1,1.69
-24,0,1.691
-26,-2,1.692
-15,-2,1.693
-7,-1,1.694
-14,-2,1.695
-22,-3,1.696
-22,-4,1.697
-19,-1,1.698
-13,2,1.699
-3,1,1.7
10,2,1.701
21,2,1.702
26,1,1.703
16,-3,1.704
-9,-6,1.705
-29,-3,1.706
-22,-2,1.707
6,-4,1.708
19,-6,1.709
5,-6,1.71
-7,-4,1.711
0,-1,1.712
9,1,1.713
-5,-3,1.714
-30,-7,1.715
-33,-7,1.716
-10,-8,1.717
17,-7,1.718
29,-3,1.719
30,0,1.72
38,4,1.721
53,5,1.722
65,1,1.723
61,-1,1.724
44,4,1.725
30,10,1.726
20,6,1.727
-10,-4,1.728
-66,-10,1.729
-110,-6,1.73
-90,1,1.731
0,8,1.732
107,12,1.733
170,9,1.734
156,0,1.735
89,-7,1.736
26,-10,1.737
-6,-5,1.738
-23,2,1.739
-54,8,1.74
-90,12,1.741
-104,13,1.742
-83,6,1.743
-51,-2,1.744
-34,-3,1.745
-40,-1,1.746
-54,-3,1.747
-50,-7,1.748
-17,-8,1.749
22,-1,1.75
38,2,1.751
32,-2,1.752
33,-3,1.753
46,-4,1.754
51,-4,1.755
29,-4,1.756
4,-8,1.757
0,-10,1.758
8,-6,1.759
10,-2,1.76
-2,-2,1.761
-17,-3,1.762
-27,-2,1.763
-30,-1,1.764
-24,0,1.765
-12,1,1.766
-3,0,1.767
2,0,1.768
8,1,1.769
20,3,1.77
37,0,1.771
46,-3,1.772
44,-3,1.773
28,0,1.774
13,1,1.775
5,-3,1.776
5,-8,1.777
4,-6,1.778
0,1,1.779
0,6,1.78
0,5,1.781
-5,4,1.782
-14,4,1.783
-15,2,1.784
-8,1,1.785
-4,2,1.786
-7,3,1.787
-4,0,1.788
7,-4,1.789
17,-3,1.79
22,0,1.791
26,5,1.792
28,6,1.793
21,2,1.794
9,-1,1.795
-8,-2,1.796
-37,-4,1.797
-76,-4,1.798
-95,-3,1.799
-62,-2,1.8
4,-1,1.801
55,2,1.802
67,0,1.803
62,-3,1.804
55,-5,1.805
40,-5,1.806
13,-4,1.807
-4,-8,1.808
-4,-9,1.809
-6,-6,1.81
-30,-3,1.811
-67,-4,1.812
-90,-7,1.813
-99,-7,1.814
-86,-3,1.815
-46,1,1.816
13,3,1.817
62,4,1.818
75,2,1.819
65,2,1.82
67,6,1.821
84,11,1.822
80,10,1.823
39,1,1.824
-5,-5,1.825
-14,-6,1.826
7,-4,1.827
20,-3,1.828
5,1,1.829
-16,7,1.83
-12,8,1.831
16,-1,1.832
41,-9,1.833
48,2,1.834
45,4,1.835
39,4,1.836
23,-6,1.837
-6,-16,1.838
-26,-10,1.839
-19,-4,1.84
1,-4,1.841
3,-2,1.842
-10,-4,1.843
-18,-6,1.844
-15,-6,1.845
-23,-6,1.846
-41,-2,1.847
-44,2,1.848
-35,4,1.849
-33,6,1.85
-40,2,1.851
-38,-2,1.852
-25,-2,1.853
-22,0,1.854
-26,1,1.855
-22,1,1.856
-12,-4,1.857
-20,-9,1.858
-62,-6,1.859
-105,-3,1.86
-92,-3,1.861
1,-2,1.862
126,-3,1.863
197,-4,1.864
183,-4,1.865
128,-4,1.866
82,-2,1.867
39,0,1.868
-21,1,1.869
-71,2,1.87
-72,0,1.871
-35,-2,1.872
-5,-2,1.873
-1,-1,1.874
-1,0,1.875
10,-2,1.876
25,-2,1.877
24,-1,1.878
0,3,1.879
-37,4,1.88
-75,3,1.881
-115,-1,1.882
-149,-8,1.883
-149,-10,1.884
-82,-5,1.885
33,3,1.886
124,9,1.887
132,9,1.888
81,9,1.889
28,10,1.89
15,10,1.891
38,5,1.892
78,-1,1.893
110,-8,1.894
119,-10,1.895
120,-8,1.896
126,-4,1.897
118,2,1.898
63,7,1.899
-23,11,1.9
-88,12,1.901
-103,11,1.902
-78,9,1.903
-36,4,1.904
-5,-1,1.905
-9,-3,1.906
-41,-1,1.907
-58,2,1.908
-36,2,1.909
-7,-2,1.91
-2,-7,1.911
-10,-7,1.912
-9,0,1.913
-9,-4,1.914
-20,-2,1.915
-38,0,1.916
-42,-4,1.917
-30,-6,1.918
-14,-4,1.919
3,-1,1.92
7,2,1.921
-27,7,1.922
-73,4,1.923
-74,2,1.924
-14,0,1.925
48,0,1.926
64,0,1.927
49,0,1.928
46,0,1.929
56,1,1.93
47,1,1.931
18,0,1.932
-5,0,1.933
-9,-5,1.934
1,-3,1.935
6,-1,1.936
1,-5,1.937
-6,-7,1.938
-6,-5,1.939
0,-2,1.94
-4,3,1.941
-23,8,1.942
-41,5,1.943
-27,3,1.944
13,1,1.945
47,0,1.946
52,0,1.947
33,-1,1.948
5,0,1.949
-30,2,1.95
-67,2,1.951
-86,1,1.952
-73,1,1.953
-31,2,1.954
22,1,1.955
67,-1,1.956
88,-1,1.957
83,3,1.958
62,4,1.959
43,0,1.96
27,1,1.961
-4,8,1.962
-46,16,1.963
-60,17,1.964
-13,13,1.965
71,8,1.966
132,0,1.967
141,-8,1.968
121,-10,1.969
105,-3,1.97
87,3,1.971
47,1,1.972
-9,-2,1.973
-74,-3,1.974
-123,-3,1.975
-145,-3,1.976
-126,-9,1.977
-67,-13,1.978
7,-16,1.979
52,-13,1.98
39,-5,1.981
-11,2,1.982
-50,5,1.983
-61,5,1.984
-66,10,1.985
-87,14,1.986
-115,9,1.987
-126,0,1.988
-102,-5,1.989
-45,-6,1.99
31,-3,1.991
92,-2,1.992
116,-2,1.993
105,-5,1.994
80,-6,1.995
47,-7,1.996
8,-7,1.997
-21,-6,1.998
-23,-6,1.999
-9,-5,2.0
3,-2,2.001
10,0,2.002
19,-1,2.003
28,-1,2.004
31,0,2.005
28,3,2.006
27,3,2.007
26,2,2.008
17,3,2.009
10,4,2.01
11,2,2.011
12,1,2.012
4,0,2.013
-5,-2,2.014
-4,-5,2.015
0,-3,2.016
-4,-2,2.017
-11,-2,2.018
-6,-4,2.019
6,-4,2.02
9,0,2.021
3,3,2.022
3,2,2.023
9,-1,2.024
9,-4,2.025
1,-3,2.026
-2,-1,2.027
3,0,2.028
7,2,2.029
6,3,2.03
3,4,2.031
1,3,2.032
-2,1,2.033
-9,-2,2.034
-14,-3,2.035
-20,-1,2.036
-26,-2,2.037
-30,-2,2.038
-24,-3,2.039
-16,-2,2.04
-1,-1,2.041
15,0,2.042
35,-3,2.043
44,-4,2.044
19,1,2.045
0,12,2.046
-3,16,2.047
-12,13,2.048
-37,7,2.049
-50,11,2.05
-24,21,2.051
9,25,2.052
66,17,2.053
102,3,2.054
41,1,2.055
-27,18,2.056
-42,30,2.057
-27,17,2.058
-32,-22,2.059
-43,-47,2.06
-6,-17,2.061
76,55,2.062
124,108,2.063
88,88,2.064
16,8,2.065
-20,-73,2.066
-10,-116,2.067
1,-132,2.068
-20,-138,2.069
-54,-127,2.07
-50,-91,2.071
2,-45,2.072
52,-7,2.073
52,16,2.074
11,30,2.075
-12,37,2.076
-2,23,2.077
6,13,2.078
-6,18,2.079
-13,23,2.08
0,23,2.081
19,24,2.082
29,28,2.083
33,28,2.084
26,18,2.085
6,11,2.086
-10,15,2.087
-8,17,2.088
-6,15,2.089
-19,14,2.09
-34,13,2.091
-37,11,2.092
-33,9,2.093
-39,10,2.094
-41,19,2.095
-19,37,2.096
13,61,2.097
29,76,2.098
25,54,2.099
13,1,2.1
-3,-43,2.101
-21,-58,2.102
-39,-63,2.103
-48,-75,2.104
-32,-74,2.105
21,-51,2.106
91,-25,2.107
124,-12,2.108
102,-4,2.109
60,8,2.11
30,14,2.111
-25,9,2.112
-121,5,2.113
-214,7,2.114
-205,8,2.115
-95,0,2.116
-2,-7,2.117
-1,-5,2.118
-30,-2,2.119
14,1,2.12
121,8,2.121
187,17,2.122
162,16,2.123
109,5,2.124
93,1,2.125
94,9,2.126
61,17,2.127
-3,12,2.128
-43,3,2.129
-38,0,2.13
-19,2,2.131
-16,1,2.132
-23,-1,2.133
-23,-5,2.134
-18,-6,2.135
-18,-6,2.136
-24,-8,2.137
-26,-8,2.138
-18,-6,2.139
-9,-4,2.14
-5,-1,2.141
-6,5,2.142
-9,9,2.143
-10,4,2.144
-10,-3,2.145
-7,-6,2.146
-2,-5,2.147
0,-6,2.148
-2,-7,2.149
-3,-2,2.15
2,9,2.151
4,15,2.152
-8,13,2.153
-23,0,2.154
-3,-14,2.155
72,-25,2.156
168,-31,2.157
221,-28,2.158
195,-12,2.159
98,8,2.16
-39,25,2.161
-176,27,2.162
-256,15,2.163
-241,11,2.164
-153,34,2.165
-57,90,2.166
-1,167,2.167
19,238,2.168
10,246,2.169
-30,145,2.17
-89,-41,2.171
-118,-216,2.172
-87,-299,2.173
-14,-305,2.174
52,-257,2.175
82,-173,2.176
83,-81,2.177
69,-28,2.178
57,-39,2.179
56,-60,2.18
58,-39,2.181
53,5,2.182
36,31,2.183
22,44,2.184
32,77,2.185
75,130,2.186
125,166,2.187
143,159,2.188
104,111,2.189
31,36,2.19
-32,-32,2.191
-62,-62,2.192
-60,-58,2.193
-41,-48,2.194
-21,-39,2.195
-3,-19,2.196
11,-1,2.197
17,9,2.198
11,10,2.199
-5,18,2.2
-17,29,2.201
-15,26,2.202
4,14,2.203
25,11,2.204
25,14,2.205
-2,10,2.206
-39,6,2.207
-56,19,2.208
-44,41,2.209
-28,49,2.21
-19,30,2.211
14,0,2.212
71,-25,2.213
99,-42,2.214
44,-50,2.215
-53,-45,2.216
-98,-39,2.217
-66,-29,2.218
-25,-16,2.219
-26,-2,2.22
-52,5,2.221
-65,4,2.222
-61,0,2.223
-54,0,2.224
-43,0,2.225
-26,-1,2.226
-8,0,2.227
0,5,2.228
-6,10,2.229
-27,22,2.23
-39,47,2.231
-22,67,2.232
18,52,2.233
60,-11,2.234
81,-75,2.235
72,-96,2.236
28,-81,2.237
-36,-56,2.238
-73,-35,2.239
-38,-7,2.24
44,18,2.241
111,21,2.242
140,3,2.243
147,-1,2.244
138,11,2.245
101,26,2.246
48,32,2.247
13,40,2.248
-1,50,2.249
-15,44,2.25
-31,26,2.251
-47,15,2.252
-63,16,2.253
-73,8,2.254
-53,-11,2.255
-11,-24,2.256
3,-28,2.257
-35,-28,2.258
-64,-32,2.259
-29,-28,2.26
35,-12,2.261
72,-3,2.262
100,-7,2.263
153,-9,2.264
187,4,2.265
129,22,2.266
9,20,2.267
-75,1,2.268
-89,-16,2.269
-84,-16,2.27
-97,-7,2.271
-104,-1,2.272
-80,-4,2.273
-47,-11,2.274
-42,-9,2.275
-95,-1,2.276
-203,9,2.277
-312,21,2.278
-332,24,2.279
-210,5,2.28
5,-24,2.281
208,-42,2.282
331,-38,2.283
366,-25,2.284
316,-14,2.285
202,3,2.286
86,35,2.287
33,66,2.288
41,77,2.289
47,62,2.29
9,24,2.291
-48,-23,2.292
-60,-56,2.293
22,-65,2.294
173,-55,2.295
288,-47,2.296
257,-48,2.297
84,-45,2.298
-99,-31,2.299
-180,-14,2.3
-171,9,2.301
-149,47,2.302
-137,95,2.303
-105,146,2.304
-57,193,2.305
-28,221,2.306
-24,210,2.307
-27,173,2.308
-53,158,2.309
-140,171,2.31
-255,135,2.311
-306,1,2.312
-257,-162,2.313
-129,-270,2.314
45,-316,2.315
244,-353,2.316
380,-359,2.317
331,-339,2.318
113,-239,2.319
-99,-149,2.32
-173,-95,2.321
-153,-36,2.322
-133,39,2.323
-116,109,2.324
-83,161,2.325
-60,189,2.326
-47,140,2.327
21,80,2.328
146,-9,2.329
229,-73,2.33
218,-57,2.331
173,-38,2.332
149,-11,2.333
112,25,2.334
49,74,2.335
14,71,2.336
30,35,2.337
39,26,2.338
8,43,2.339
-5,49,2.34
28,48,2.341
46,61,2.342
6,71,2.343
-42,52,2.344
-52,32,2.345
-55,54,2.346
-88,102,2.347
-115,118,2.348
-91,84,2.349
-36,23,2.35
-2,-36,2.351
5,-68,2.352
12,-53,2.353
16,-14,2.354
11,0,2.355
-8,4,2.356
-42,-20,2.357
-83,-26,2.358
-102,25,2.359
-64,56,2.36
4,25,2.361
46,2,2.362
44,10,2.363
52,21,2.364
96,41,2.365
131,40,2.366
112,-25,2.367
53,-65,2.368
0,-27,2.369
-25,0,2.37
-31,-5,2.371
-45,-31,2.372
-100,-121,2.373
-195,-219,2.374
-242,-312,2.375
-157,-315,2.376
28,-248,2.377
194,-162,2.378
273,-61,2.379
277,68,2.38
229,167,2.381
138,166,2.382
33,99,2.383
-36,87,2.384
-56,164,2.385
-41,242,2.386
0,224,2.387
57,96,2.388
89,-76,2.389
73,-201,2.39
40,-234,2.391
40,-203,2.392
72,-157,2.393
102,-104,2.394
87,-35,2.395
-5,29,2.396
-160,59,2.397
-274,75,2.398
-233,99,2.399
-67,115,2.4
54,96,2.401
31,67,2.402
-53,64,2.403
-85,75,2.404
-67,68,2.405
-62,50,2.406
-65,58,2.407
-44,86,2.408
-19,94,2.409
-32,66,2.41
-66,36,2.411
-77,50,2.412
-78,106,2.413
-113,155,2.414
-169,143,2.415
-184,64,2.416
-139,-42,2.417
-77,-143,2.418
-29,-237,2.419
28,-274,2.42
106,-184,2.421
174,28,2.422
217,274,2.423
248,458,2.424
250,479,2.425
184,238,2.426
71,-227,2.427
0,-636,2.428
11,-670,2.429
32,-345,2.43
-30,5,2.431
-146,136,2.432
-180,119,2.433
-44,88,2.434
180,15,2.435
300,-173,2.436
224,-378,2.437
56,-413,2.438
-55,-279,2.439
-105,-142,2.44
-148,-77,2.441
-159,16,2.442
-63,206,2.443
87,391,2.444
172,419,2.445
177,268,2.446
146,47,2.447
45,-114,2.448
-160,-163,2.449
-326,-123,2.45
-254,-21,2.451
0,142,2.452
192,337,2.453
231,476,2.454
224,443,2.455
239,233,2.456
201,-43,2.457
65,-268,2.458
-67,-401,2.459
-121,-424,2.46
-129,-341,2.461
-128,-183,2.462
-103,1,2.463
-62,165,2.464
-54,235,2.465
-76,152,2.466
-74,17,2.467
-48,63,2.468
-42,380,2.469
-59,706,2.47
-63,660,2.471
-65,168,2.472
-88,-418,2.473
-91,-251,2.474
-30,31,2.475
17,271,2.476
25,382,2.477
25,366,2.478
0,-25,2.479
-10,-380,2.48
26,-616,2.481
35,-764,2.482
-40,-648,2.483
-77,-499,2.484
4,-251,2.485
75,22,2.486
113,379,2.487
141,647,2.488
139,647,2.489
133,546,2.49
115,137,2.491
98,-182,2.492
80,-239,2.493
58,-186,2.494
-27,17,2.495
-199,189,2.496
-351,268,2.497
-343,257,2.498
-174,-24,2.499
4,-279,2.5
61,-448,2.501
28,-554,2.502
33,-471,2.503
102,-364,2.504
126,-186,2.505
68,10,2.506
63,266,2.507
205,458,2.508
338,458,2.509
251,386,2.51
20,93,2.511
-71,-137,2.512
38,-178,2.513
119,-196,2.514
-6,-116,2.515
-191,38,2.516
-199,189,2.517
-71,154,2.518
-16,-89,2.519
-72,-300,2.52
-107,-301,2.521
-76,-184,2.522
-55,-102,2.523
-60,-24,2.524
-18,140,2.525
57,356,2.526
80,534,2.527
53,637,2.528
63,624,2.529
102,459,2.53
73,215,2.531
-45,13,2.532
-181,-154,2.533
-370,-401,2.534
-628,-652,2.535
-745,-733,2.536
-433,-637,2.537
215,-493,2.538
700,-319,2.539
724,-33,2.54
529,261,2.541
456,336,2.542
452,184,2.543
285,24,2.544
0,-44,2.545
-166,-113,2.546
-161,-175,2.547
-119,-81,2.548
-96,166,2.549
-32,336,2.55
56,287,2.551
83,142,2.552
52,60,2.553
25,34,2.554
-6,9,2.555
-92,4,2.556
-185,52,2.557
-167,118,2.558
-35,143,2.559
78,122,2.56
76,74,2.561
-9,-3,2.562
-101,-120,2.563
-165,-258,2.564
-193,-378,2.565
-184,-428,2.566
-163,-373,2.567
-146,-241,2.568
-112,-111,2.569
-57,-22,2.57
-31,57,2.571
-54,144,2.572
-49,199,2.573
52,223,2.574
170,315,2.575
177,586,2.576
77,953,2.577
-7,1149,2.578
-12,927,2.579
-17,306,2.58
-116,-441,2.581
-271,-1004,2.582
-326,-1229,2.583
-204,-1144,2.584
-44,-876,2.585
-30,-567,2.586
-85,-296,2.587
72,-10,2.588
459,395,2.589
700,837,2.59
555,1004,2.591
301,677,2.592
288,85,2.593
407,-435,2.594
299,-612,2.595
-23,-451,2.596
-165,-25,2.597
6,569,2.598
165,998,2.599
35,845,2.6
-249,164,2.601
-413,-462,2.602
-404,-634,2.603
-367,-579,2.604
-408,-664,2.605
-475,-806,2.606
-419,-701,2.607
-157,-388,2.608
189,-150,2.609
397,-7,2.61
417,294,2.611
393,779,2.612
408,1093,2.613
350,938,2.614
146,404,2.615
-57,-119,2.616
-91,-339,2.617
-17,-253,2.618
13,-22,2.619
-7,185,2.62
15,197,2.621
66,-85,2.622
63,-512,2.623
14,-741,2.624
-40,-614,2.625
-155,-319,2.626
-375,-78,2.627
-551,99,2.628
-463,252,2.629
-139,306,2.63
136,255,2.631
173,269,2.632
88,442,2.633
84,615,2.634
184,625,2.635
211,596,2.636
75,444,2.637
-74,316,2.638
-40,262,2.639
126,109,2.64
192,-339,2.641
88,-780,2.642
-18,-1201,2.643
-5,-1442,2.644
19,-1141,2.645
-68,-812,2.646
-180,-400,2.647
-160,-19,2.648
-7,263,2.649
157,438,2.65
252,285,2.651
268,202,2.652
210,330,2.653
92,478,2.654
-25,654,2.655
-104,773,2.656
-154,797,2.657
-173,628,2.658
-160,268,2.659
-167,-64,2.66
-236,-149,2.661
-300,-77,2.662
-273,-190,2.663
-215,-613,2.664
-240,-1012,2.665
-304,-979,2.666
-250,-532,2.667
-67,-3,2.668
71,411,2.669
90,695,2.67
136,744,2.671
317,447,2.672
454,43,2.673
287,-105,2.674
-129,132,2.675
-352,406,2.676
-73,301,2.677
430,-193,2.678
631,-745,2.679
453,-1015,2.68
304,-900,2.681
390,-518,2.682
413,-26,2.683
118,616,2.684
-239,1567,2.685
-288,2609,2.686
-101,2902,2.687
-21,1698,2.688
-128,-588,2.689
-200,-2521,2.69
-106,-3100,2.691
58,-2647,2.692
182,-2029,2.693
254,-1454,2.694
250,-814,2.695
134,-213,2.696
-35,154,2.697
-152,467,2.698
-191,967,2.699
-209,1481,2.7
-237,1712,2.701
-256,1672,2.702
-246,1445,2.703
-188,924,2.704
-46,194,2.705
149,-297,2.706
263,-339,2.707
227,-314,2.708
144,-556,2.709
114,-855,2.71
70,-934,2.711
-92,-916,2.712
-288,-954,2.713
-398,-897,2.714
-428,-600,2.715
-482,-237,2.716
-510,5,2.717
-351,240,2.718
-39,546,2.719
191,715,2.72
243,617,2.721
266,470,2.722
347,546,2.723
341,869,2.724
149,1276,2.725
-59,1519,2.726
-41,1265,2.727
200,419,2.728
445,-472,2.729
514,-601,2.73
379,159,2.731
121,1006,2.732
-105,1087,2.733
-193,194,2.734
-154,-1172,2.735
-142,-2339,2.736
-226,-2823,2.737
-266,-2455,2.738
-142,-1465,2.739
14,-396,2.74
23,265,2.741
-61,462,2.742
-68,488,2.743
9,556,2.744
52,590,2.745
42,477,2.746
34,339,2.747
31,385,2.748
42,545,2.749
121,485,2.75
223,48,2.751
199,-492,2.752
86,-746,2.753
99,-645,2.754
300,-362,2.755
383,-28,2.756
97,355,2.757
-340,748,2.758
-547,1073,2.759
-493,1396,2.76
-406,1747,2.761
-338,1751,2.762
-149,908,2.763
138,-636,2.764
296,-1982,2.765
202,-2421,2.766
-20,-2086,2.767
-197,-1497,2.768
-263,-889,2.769
-230,-278,2.77
-140,192,2.771
-74,413,2.772
-83,526,2.773
-114,693,2.774
-25,776,2.775
229,592,2.776
497,279,2.777
560,137,2.778
392,182,2.779
196,212,2.78
150,180,2.781
185,249,2.782
137,599,2.783
-5,1327,2.784
-103,2293,2.785
-101,2851,2.786
-85,2118,2.787
-104,-30,2.788
-113,-2436,2.789
-99,-3659,2.79
-134,-3396,2.791
-258,-2488,2.792
-387,-1745,2.793
-432,-1147,2.794
-364,-545,2.795
-252,-17,2.796
-171,311,2.797
-109,531,2.798
23,757,2.799
235,929,2.8
377,989,2.801
316,1040,2.802
144,1192,2.803
76,1393,2.804
182,1426,2.805
340,1013,2.806
413,54,2.807
361,-1103,2.808
220,-1824,2.809
73,-1794,2.81
-12,-1253,2.811
-91,-541,2.812
-272,200,2.813
-525,941,2.814
-569,1322,2.815
-250,1118,2.816
200,555,2.817
446,-41,2.818
458,-607,2.819
416,-1077,2.82
384,-1166,2.821
286,-775,2.822
136,-266,2.823
50,-7,2.824
47,85,2.825
30,240,2.826
-50,487,2.827
-153,813,2.828
-255,1274,2.829
-381,1598,2.83
-512,1213,2.831
-575,64,2.832
-525,-1010,2.833
-356,-1351,2.834
-99,-974,2.835
165,-400,2.836
313,107,2.837
292,532,2.838
209,653,2.839
187,253,2.84
190,-401,2.841
104,-810,2.842
-55,-779,2.843
-145,-419,2.844
-105,132,2.845
-13,665,2.846
39,825,2.847
42,466,2.848
24,-108,2.849
3,-508,2.85
-6,-683,2.851
3,-765,2.852
31,-706,2.853
64,-336,2.854
71,254,2.855
2,693,2.856
-139,665,2.857
-255,231,2.858
-247,-274,2.859
-148,-538,2.86
-75,-502,2.861
-67,-298,2.862
-68,-43,2.863
-97,231,2.864
-230,490,2.865
-378,700,2.866
-307,961,2.867
17,1465,2.868
287,2203,2.869
264,2752,2.87
118,2440,2.871
139,871,2.872
270,-1366,2.873
242,-3397,2.874
21,-4000,2.875
-103,-3556,2.876
49,-2444,2.877
294,-1451,2.878
384,-642,2.879
324,-11,2.88
268,298,2.881
278,365,2.882
326,537,2.883
391,922,2.884
443,1242,2.885
418,1281,2.886
276,1069,2.887
60,671,2.888
-157,164,2.889
-341,-206,2.89
-489,-250,2.891
-586,-118,2.892
-598,-43,2.893
-476,83,2.894
-259,493,2.895
-112,1038,2.896
-173,1236,2.897
-334,858,2.898
-338,144,2.899
-154,-497,2.9
-8,-815,2.901
-16,-765,2.902
11,-444,2.903
248,0,2.904
533,418,2.905
579,576,2.906
355,237,2.907
92,-490,2.908
-25,-1045,2.909
-8,-957,2.91
32,-370,2.911
20,278,2.912
-47,815,2.913
-143,1302,2.914
-195,1389,2.915
-173,630,2.916
-135,-688,2.917
-156,-1649,2.918
-210,-1776,2.919
-165,-1421,2.92
23,-1026,2.921
203,-563,2.922
186,84,2.923
27,691,2.924
-55,937,2.925
-5,750,2.926
5,291,2.927
-129,-139,2.928
-276,-188,2.929
-290,228,2.93
-197,683,2.931
-64,667,2.932
109,264,2.933
319,-76,2.934
449,32,2.935
433,543,2.936
347,1099,2.937
248,1276,2.938
114,800,2.939
-29,-127,2.94
-82,-862,2.941
-60,-954,2.942
-97,-595,2.943
-210,-283,2.944
-270,-235,2.945
-238,-320,2.946
-228,-354,2.947
-285,-262,2.948
-319,-125,2.949
-293,-164,2.95
-258,-524,2.951
-176,-1010,2.952
25,-1231,2.953
303,-1021,2.954
417,-537,2.955
257,-42,2.956
17,328,2.957
-66,535,2.958
21,582,2.959
120,543,2.96
147,511,2.961
189,487,2.962
341,418,2.963
529,331,2.964
558,287,2.965
372,272,2.966
176,247,2.967
180,263,2.968
310,413,2.969
311,652,2.97
112,749,2.971
-89,481,2.972
-130,-57,2.973
-87,-581,2.974
-129,-704,2.975
-267,-407,2.976
-351,-37,2.977
-312,215,2.978
-254,507,2.979
-282,898,2.98
-350,987,2.981
-329,393,2.982
-201,-586,2.983
-75,-1222,2.984
-42,-1183,2.985
-73,-758,2.986
-98,-310,2.987
-90,11,2.988
-71,80,2.989
-63,-199,2.99
-79,-600,2.991
-113,-719,2.992
-136,-511,2.993
-116,-221,2.994
-43,15,2.995
46,338,2.996
101,719,2.997
120,810,2.998
164,403,2.999
261,-209,3.0
334,-543,3.001
283,-364,3.002
131,227,3.003
11,868,3.004
-12,1077,3.005
11,626,3.006
28,-166,3.007
40,-672,3.008
23,-544,3.009
-55,77,3.01
-128,801,3.011
-91,1240,3.012
19,1127,3.013
79,297,3.014
36,-916,3.015
-37,-1906,3.016
-99,-2230,3.017
-179,-2198,3.018
-268,-1100,3.019
-324,-207,3.02
-353,70,3.021
-346,218,3.022
-221,-27,3.023
39,-88,3.024
280,403,3.025
370,751,3.026
391,669,3.027
486,611,3.028
599,624,3.029
581,627,3.03
430,596,3.031
275,557,3.032
188,495,3.033
117,427,3.034
1,345,3.035
-173,299,3.036
-359,253,3.037
-439,147,3.038
-325,31,3.039
-103,-8,3.04
31,-6,3.041
26,-57,3.042
33,-129,3.043
147,-113,3.044
220,-18,3.045
92,51,3.046
-127,80,3.047
-172,139,3.048
12,204,3.049
169,147,3.05
67,-76,3.051
-206,-347,3.052
-378,-521,3.053
-345,-576,3.054
-223,-527,3.055
-175,-410,3.056
-197,-277,3.057
-172,-152,3.058
-55,23,3.059
64,407,3.06
87,1112,3.061
18,1916,3.062
-60,2166,3.063
-96,1276,3.064
-111,-453,3.065
-137,-1839,3.066
-140,-2022,3.067
-46,-1389,3.068
141,-916,3.069
311,-896,3.07
350,-897,3.071
269,-714,3.072
188,-585,3.073
188,-587,3.074
239,-474,3.075
230,-146,3.076
113,185,3.077
-32,430,3.078
-96,668,3.079
-64,796,3.08
-4,588,3.081
21,154,3.082
-1,-90,3.083
-61,61,3.084
-123,436,3.085
-138,797,3.086
-100,1020,3.087
-66,997,3.088
-77,660,3.089
-101,107,3.09
-88,-434,3.091
-66,-771,3.092
-86,-838,3.093
-143,-694,3.094
-154,-479,3.095
-96,-296,3.096
-29,-102,3.097
-10,180,3.098
-2,447,3.099
52,483,3.1
144,240,3.101
214,-72,3.102
226,-220,3.103
181,-143,3.104
115,75,3.105
95,312,3.106
153,399,3.107
216,215,3.108
158,-146,3.109
-45,-387,3.11
-281,-340,3.111
-416,-158,3.112
-406,-60,3.113
-269,-31,3.114
-91,30,3.115
40,77,3.116
32,78,3.117
27,97,3.118
35,167,3.119
43,233,3.12
54,288,3.121
98,324,3.122
239,300,3.123
369,235,3.124
467,48,3.125
519,-38,3.126
427,175,3.127
289,434,3.128
15,827,3.129
-202,965,3.13
-252,336,3.131
-269,-336,3.132
-182,-1137,3.133
-122,-1718,3.134
-176,-1187,3.135
-248,-90,3.136
-289,876,3.137
-250,1211,3.138
-133,840,3.139
-24,-41,3.14
-4,-1112,3.141
-47,-1886,3.142
-77,-1920,3.143
-83,-1278,3.144
-82,-569,3.145
-25,-248,3.146
114,-118,3.147
225,195,3.148
173,598,3.149
8,733,3.15
-83,613,3.151
-41,607,3.152
3,830,3.153
-60,993,3.154
-164,732,3.155
-150,85,3.156
27,-490,3.157
245,-500,3.158
367,133,3.159
360,964,3.16
249,1336,3.161
51,901,3.162
-177,-112,3.163
-285,-1115,3.164
-174,-1615,3.165
32,-1499,3.166
93,-973,3.167
-44,-374,3.168
-191,8,3.169
-191,85,3.17
-109,50,3.171
-72,182,3.172
-83,473,3.173
-57,669,3.174
36,528,3.175
135,175,3.176
175,-76,3.177
153,-86,3.178
122,54,3.179
119,224,3.18
115,319,3.181
57,238,3.182
-27,12,3.183
-61,-141,3.184
-35,-76,3.185
-17,83,3.186
-24,168,3.187
-2,240,3.188
32,454,3.189
-12,739,3.19
-128,823,3.191
-174,526,3.192
-88,-32,3.193
31,-664,3.194
55,-1029,3.195
5,-938,3.196
-19,-545,3.197
1,-198,3.198
20,-79,3.199
25,-65,3.2
35,11,3.201
49,107,3.202
56,96,3.203
57,-3,3.204
41,-58,3.205
-13,-11,3.206
-93,85,3.207
-145,175,3.208
-140,236,3.209
-96,218,3.21
-40,74,3.211
18,-144,3.212
73,-272,3.213
132,-120,3.214
202,354,3.215
274,816,3.216
304,686,3.217
237,-221,3.218
83,-1296,3.219
-72,-1664,3.22
-137,-1162,3.221
-108,-425,3.222
-52,-20,3.223
-34,110,3.224
-54,242,3.225
-61,394,3.226
-22,476,3.227
38,521,3.228
65,547,3.229
53,497,3.23
23,476,3.231
-11,680,3.232
-67,950,3.233
-136,827,3.234
-190,140,3.235
-167,-603,3.236
-95,-789,3.237
-50,-450,3.238
-52,-105,3.239
-66,-40,3.24
-86,-159,3.241
-117,-330,3.242
-124,-538,3.243
-66,-686,3.244
26,-615,3.245
74,-353,3.246
54,-115,3.247
19,-19,3.248
6,37,3.249
2,166,3.25
-6,323,3.251
-6,394,3.252
40,356,3.253
203,268,3.254
397,205,3.255
481,189,3.256
365,314,3.257
148,406,3.258
13,400,3.259
-23,278,3.26
-91,-187,3.261
-206,-520,3.262
-222,-449,3.263
-91,-350,3.264
33,-168,3.265
29,-28,3.266
-35,-14,3.267
-67,4,3.268
-90,37,3.269
-139,75,3.27
-147,125,3.271
-62,177,3.272
31,230,3.273
35,272,3.274
-15,272,3.275
-9,223,3.276
80,80,3.277
168,-105,3.278
206,-246,3.279
215,-310,3.28
197,-299,3.281
122,-185,3.282
4,9,3.283
-80,147,3.284
-115,109,3.285
-159,-53,3.286
-245,-182,3.287
-321,-151,3.288
-315,69,3.289
-230,384,3.29
-126,570,3.291
-59,441,3.292
-39,110,3.293
-22,-221,3.294
63,-444,3.295
206,-639,3.296
285,-756,3.297
213,-557,3.298
89,-62,3.299
64,318,3.3
110,275,3.301
75,-3,3.302
-56,-147,3.303
-113,-102,3.304
-2,-29,3.305
126,41,3.306
84,163,3.307
-110,259,3.308
-263,192,3.309
-247,6,3.31
-127,-142,3.311
-38,-200,3.312
-6,-209,3.313
56,-157,3.314
187,4,3.315
279,237,3.316
217,407,3.317
58,421,3.318
-28,265,3.319
-1,19,3.32
25,-161,3.321
-8,-160,3.322
-21,-35,3.323
40,60,3.324
106,70,3.325
108,66,3.326
87,105,3.327
88,191,3.328
67,287,3.329
-11,288,3.33
-84,83,3.331
-87,-245,3.332
-59,-405,3.333
-64,-251,3.334
-91,20,3.335
-95,207,3.336
-80,139,3.337
-74,51,3.338
-65,-98,3.339
-24,-217,3.34
25,-249,3.341
44,-286,3.342
38,-341,3.343
34,-373,3.344
18,-334,3.345
-17,-259,3.346
-46,-79,3.347
-42,65,3.348
-20,101,3.349
-12,135,3.35
-14,166,3.351
-8,184,3.352
11,159,3.353
26,145,3.354
27,167,3.355
18,151,3.356
10,104,3.357
10,75,3.358
16,46,3.359
16,5,3.36
3,27,3.361
-12,159,3.362
-16,293,3.363
-9,261,3.364
-5,49,3.365
-8,-188,3.366
-17,-294,3.367
-28,-252,3.368
-36,-145,3.369
-27,-54,3.37
-4,-1,3.371
14,32,3.372
16,67,3.373
11,134,3.374
21,182,3.375
43,142,3.376
57,-12,3.377
52,-181,3.378
41,-242,3.379
35,-176,3.38
47,-74,3.381
81,-12,3.382
107,22,3.383
69,57,3.384
-43,86,3.385
-151,95,3.386
-172,87,3.387
-117,55,3.388
-56,-1,3.389
7,-48,3.39
94,-45,3.391
164,-7,3.392
141,17,3.393
28,9,3.394
-75,-8,3.395
-110,-13,3.396
-115,-14,3.397
-113,-13,3.398
-64,-12,3.399
34,-12,3.4
111,-17,3.401
114,-17,3.402
74,-13,3.403
35,-9,3.404
5,-12,3.405
-2,-14,3.406
33,-10,3.407
81,-5,3.408
89,18,3.409
71,85,3.41
81,188,3.411
101,237,3.412
73,151,3.413
-15,10,3.414
-87,-14,3.415
-94,-26,3.416
-73,-7,3.417
-71,10,3.418
-82,17,3.419
-91,24,3.42
-96,32,3.421
-89,46,3.422
-48,77,3.423
8,111,3.424
38,153,3.425
23,153,3.426
-18,30,3.427
-66,-85,3.428
-110,-185,3.429
-122,-250,3.43
-75,-211,3.431
5,-167,3.432
67,-111,3.433
101,26,3.434
128,-10,3.435
148,-30,3.436
136,1,3.437
87,27,3.438
48,37,3.439
51,49,3.44
65,61,3.441
52,82,3.442
14,130,3.443
-17,183,3.444
-24,247,3.445
-11,248,3.446
9,58,3.447
16,-122,3.448
-8,-276,3.449
-44,-377,3.45
-51,-316,3.451
-21,-248,3.452
11,-162,3.453
19,-81,3.454
12,-26,3.455
1,14,3.456
-9,49,3.457
-22,87,3.458
-24,119,3.459
-11,124,3.46
-1,100,3.461
-7,66,3.462
-18,47,3.463
-19,43,3.464
-15,45,3.465
-17,56,3.466
-19,87,3.467
-13,108,3.468
-6,69,3.469
-5,-24,3.47
-8,-101,3.471
-10,-105,3.472
-15,-65,3.473
-31,-35,3.474
-46,-21,3.475
-46,-6,3.476
-22,12,3.477
11,26,3.478
37,23,3.479
50,21,3.48
53,22,3.481
54,21,3.482
49,15,3.483
36,9,3.484
15,3,3.485
2,-1,3.486
2,-4,3.487
9,-6,3.488
12,-2,3.489
12,0,3.49
18,-1,3.491
30,-5,3.492
28,-14,3.493
-4,-25,3.494
-50,-32,3.495
-81,-30,3.496
-74,-29,3.497
-42,-23,3.498
2,-14,3.499
54,-1,3.5
103,6,3.501
108,2,3.502
50,-3,3.503
-31,4,3.504
-75,19,3.505
-56,30,3.506
-3,27,3.507
46,15,3.508
74,1,3.509
86,-9,3.51
74,-12,3.511
36,-9,3.512
-9,-4,3.513
-45,-6,3.514
-62,-8,3.515
-78,-7,3.516
-113,-12,3.517
-149,-15,3.518
-146,-13,3.519
-93,-5,3.52
-31,0,3.521
-3,1,3.522
-11,4,3.523
-40,13,3.524
-96,17,3.525
-159,9,3.526
-164,-5,3.527
-55,-14,3.528
128,-16,3.529
289,-18,3.53
366,-21,3.531
370,-22,3.532
336,-19,3.533
266,-4,3.534
149,22,3.535
-14,53,3.536
-171,63,3.537
-226,46,3.538
-141,16,3.539
8,3,3.54
96,10,3.541
90,12,3.542
62,0,3.543
66,-8,3.544
59,0,3.545
-4,12,3.546
-82,8,3.547
-103,-2,3.548
-73,-4,3.549
-50,-5,3.55
-59,-13,3.551
-65,-22,3.552
-52,-19,3.553
-37,-14,3.554
-35,-15,3.555
-38,-19,3.556
-36,-16,3.557
-36,-9,3.558
-38,-7,3.559
-35,-6,3.56
-24,1,3.561
-18,9,3.562
-15,6,3.563
-6,-1,3.564
5,-3,3.565
5,-3,3.566
-3,-3,3.567
-6,-5,3.568
-3,0,3.569
-2,7,3.57
-2,6,3.571
5,2,3.572
18,1,3.573
23,-3,3.574
18,-10,3.575
8,-17,3.576
2,-16,3.577
5,-7,3.578
18,-6,3.579
42,-9,3.58
64,-7,3.581
69,-1,3.582
51,4,3.583
22,5,3.584
-3,3,3.585
-18,1,3.586
-25,-2,3.587
-40,1,3.588
-85,8,3.589
-155,16,3.59
-192,15,3.591
-122,7,3.592
30,0,3.593
168,-9,3.594
190,-14,3.595
121,-13,3.596
71,-5,3.597
75,7,3.598
70,17,3.599
8,19,3.6
-55,16,3.601
-50,13,3.602
8,15,3.603
51,15,3.604
43,10,3.605
12,0,3.606
-5,-5,3.607
-9,-5,3.608
-18,-2,3.609
-31,-2,3.61
-27,-1,3.611
1,0,3.612
34,-1,3.613
35,-7,3.614
-12,-15,3.615
-89,-14,3.616
-135,-11,3.617
-106,-8,3.618
-33,-8,3.619
9,-5,3.62
-9,1,3.621
-28,6,3.622
14,3,3.623
97,-6,3.624
142,-10,3.625
122,-9,3.626
94,-7,3.627
113,-11,3.628
149,-14,3.629
125,-9,3.63
28,7,3.631
-60,28,3.632
-79,40,3.633
-61,33,3.634
-63,19,3.635
-89,8,3.636
-85,0,3.637
-35,-3,3.638
10,-5,3.639
7,-2,3.64
-22,2,3.641
-32,2,3.642
-19,0,3.643
-10,-3,3.644
-10,-2,3.645
-9,-4,3.646
-5,-7,3.647
-3,-6,3.648
-1,-2,3.649
5,-4,3.65
13,-13,3.651
13,-19,3.652
5,-12,3.653
2,0,3.654
4,7,3.655
-2,0,3.656
-10,-11,3.657
-8,-12,3.658
3,-7,3.659
12,-1,3.66
13,6,3.661
13,11,3.662
13,10,3.663
13,-3,3.664
14,-17,3.665
16,-19,3.666
16,-12,3.667
10,-6,3.668
4,-6,3.669
2,-5,3.67
3,1,3.671
1,2,3.672
0,0,3.673
2,-6,3.674
7,-7,3.675
3,-5,3.676
-4,-5,3.677
-6,-3,3.678
-1,-1,3.679
4,-2,3.68
3,0,3.681
-3,5,3.682
-5,8,3.683
-2,4,3.684
0,1,3.685
-4,3,3.686
-8,6,3.687
-4,3,3.688
2,0,3.689
-3,3,3.69
-24,4,3.691
-44,-1,3.692
-42,-7,3.693
-15,-9,3.694
22,-8,3.695
38,-7,3.696
27,-5,3.697
3,8,3.698
-16,26,3.699
-20,29,3.7
-16,15,3.701
-3,0,3.702
14,-3,3.703
26,-1,3.704
28,0,3.705
24,-5,3.706
23,-6,3.707
23,-3,3.708
16,8,3.709
-5,19,3.71
-39,20,3.711
-71,9,3.712
-75,-3,3.713
-31,-15,3.714
46,-22,3.715
110,-24,3.716
134,-26,3.717
136,-24,3.718
133,-16,3.719
113,-5,3.72
62,3,3.721
7,6,3.722
-18,3,3.723
-21,1,3.724
-30,2,3.725
-48,2,3.726
-51,-1,3.727
-34,-6,3.728
-24,-7,3.729
-33,-5,3.73
-41,-2,3.731
-37,0,3.732
-27,4,3.733
-25,5,3.734
-26,6,3.735
-28,6,3.736
-30,4,3.737
-29,2,3.738
-21,1,3.739
-8,2,3.74
-4,7,3.741
-8,9,3.742
-10,7,3.743
-3,2,3.744
6,1,3.745
9,4,3.746
9,5,3.747
10,4,3.748
8,3,3.749
8,3,3.75
10,0,3.751
11,-6,3.752
10,-8,3.753
6,-9,3.754
6,-5,3.755
5,-2,3.756
5,-4,3.757
5,-6,3.758
11,-6,3.759
15,-7,3.76
9,-5,3.761
5,-3,3.762
6,0,3.763
7,2,3.764
9,0,3.765
11,-1,3.766
6,2,3.767
2,4,3.768
0,1,3.769
-2,-1,3.77
-6,0,3.771
-8,1,3.772
-6,-2,3.773
-3,-6,3.774
4,-12,3.775
16,-10,3.776
29,-7,3.777
43,-3,3.778
54,0,3.779
53,2,3.78
33,7,3.781
-8,10,3.782
-58,8,3.783
-95,2,3.784
-96,-2,3.785
-61,-2,3.786
-23,0,3.787
-12,0,3.788
-24,-5,3.789
-32,-13,3.79
-29,-16,3.791
-29,-5,3.792
-31,12,3.793
-34,19,3.794
-37,13,3.795
-29,5,3.796
16,-12,3.797
64,-21,3.798
120,-7,3.799
148,5,3.8
92,14,3.801
54,17,3.802
74,1,3.803
77,-10,3.804
29,-3,3.805
-7,1,3.806
-6,-3,3.807
1,-5,3.808
25,-2,3.809
41,2,3.81
34,7,3.811
32,10,3.812
44,8,3.813
43,6,3.814
-15,1,3.815
-54,1,3.816
-42,-1,3.817
-7,-4,3.818
14,-6,3.819
21,-5,3.82
23,-3,3.821
15,-4,3.822
-10,0,3.823
-39,16,3.824
-58,41,3.825
-61,64,3.826
-50,67,3.827
-34,46,3.828
-23,5,3.829
-24,-33,3.83
-25,-56,3.831
-21,-69,3.832
-15,-78,3.833
-14,-84,3.834
-17,-78,3.835
-18,-60,3.836
-18,-45,3.837
-23,-30,3.838
-21,-11,3.839
-1,9,3.84
27,25,3.841
42,30,3.842
33,30,3.843
20,29,3.844
10,26,3.845
1,22,3.846
-8,24,3.847
-17,28,3.848
-19,32,3.849
-19,37,3.85
-15,50,3.851
-9,64,3.852
0,69,3.853
3,65,3.854
8,79,3.855
12,127,3.856
12,158,3.857
12,99,3.858
14,-52,3.859
17,-202,3.86
18,-265,3.861
22,-249,3.862
36,-206,3.863
52,-152,3.864
72,-80,3.865
72,-12,3.866
11,13,3.867
-41,12,3.868
-66,20,3.869
-76,40,3.87
-36,41,3.871
-3,28,3.872
4,26,3.873
9,42,3.874
-3,53,3.875
-43,45,3.876
-117,34,3.877
-183,32,3.878
-168,26,3.879
-45,11,3.88
125,6,3.881
248,16,3.882
282,28,3.883
250,28,3.884
172,23,3.885
59,24,3.886
-53,22,3.887
-106,15,3.888
-87,11,3.889
-45,13,3.89
-16,7,3.891
4,-7,3.892
19,-13,3.893
10,-4,3.894
-9,6,3.895
-11,0,3.896
0,-18,3.897
-6,-26,3.898
-21,-20,3.899
-17,-9,3.9
2,-5,3.901
1,-4,3.902
-17,-5,3.903
-20,-10,3.904
-7,-13,3.905
-3,-12,3.906
-10,-11,3.907
-10,-14,3.908
-3,-13,3.909
-2,-7,3.91
-3,-1,3.911
6,-3,3.912
16,-4,3.913
10,-3,3.914
0,2,3.915
-7,6,3.916
-9,4,3.917
-12,3,3.918
-16,6,3.919
-17,8,3.92
-8,6,3.921
0,5,3.922
5,3,3.923
10,2,3.924
14,2,3.925
16,2,3.926
10,0,3.927
1,-2,3.928
-15,-3,3.929
-33,-4,3.93
-54,-4,3.931
-65,-3,3.932
-47,0,3.933
-27,4,3.934
-13,14,3.935
-9,30,3.936
-6,48,3.937
8,79,3.938
36,108,3.939
65,108,3.94
84,60,3.941
88,-18,3.942
59,-78,3.943
-26,-91,3.944
-133,-74,3.945
-162,-73,3.946
-60,-96,3.947
82,-107,3.948
130,-78,3.949
71,-36,3.95
9,-20,3.951
12,-35,3.952
38,-43,3.953
41,-34,3.954
27,-26,3.955
21,-27,3.956
31,-17,3.957
59,21,3.958
112,53,3.959
162,54,3.96
161,44,3.961
99,47,3.962
34,56,3.963
32,50,3.964
88,32,3.965
115,22,3.966
36,21,3.967
-113,20,3.968
-219,15,3.969
-219,10,3.97
-164,7,3.971
-125,3,3.972
-99,1,3.973
-57,3,3.974
-32,2,3.975
-66,2,3.976
-106,2,3.977
-61,3,3.978
61,4,3.979
142,5,3.98
113,2,3.981
41,-1,3.982
26,-2,3.983
63,-2,3.984
66,0,3.985
3,3,3.986
-65,6,3.987
-73,8,3.988
-34,10,3.989
-9,12,3.99
-19,14,3.991
-39,20,3.992
-43,35,3.993
-50,-6,3.994
-70,-8,3.995
-103,-10,3.996
-177,-8,3.997
-234,-6,3.998
-237,-1,3.999
-180,1,4.0
60,-8,4.001
254,-17,4.002
308,-21,4.003
340,-22,4.004
300,-14,4.005
236,-4,4.006
105,5,4.007
2,14,4.008
-14,21,4.009
-19,28,4.01
14,34,4.011
46,52,4.012
70,100,4.013
87,138,4.014
52,105,4.015
-7,5,4.016
-29,-98,4.017
-27,-143,4.018
-59,-135,4.019
-120,-106,4.02
-149,-70,4.021
-127,-30,4.022
-92,-6,4.023
-66,-4,4.024
-34,-7,4.025
4,1,4.026
35,19,4.027
54,40,4.028
69,69,4.029
75,108,4.03
73,154,4.031
68,202,4.032
59,238,4.033
27,221,4.034
-23,114,4.035
-66,-68,4.036
-88,-252,4.037
-103,-362,4.038
-123,-380,4.039
-136,-325,4.04
-134,-228,4.041
-115,-128,4.042
-70,-55,4.043
4,-14,4.044
74,9,4.045
97,29,4.046
91,46,4.047
109,65,4.048
156,87,4.049
174,108,4.05
117,115,4.051
35,101,4.052
-8,82,4.053
-17,65,4.054
-40,58,4.055
-81,57,4.056
-92,52,4.057
-51,46,4.058
1,35,4.059
33,19,4.06
45,3,4.061
47,-3,4.062
33,4,4.063
4,13,4.064
-15,12,4.065
-18,2,4.066
-21,-3,4.067
-24,3,4.068
-9,12,4.069
22,23,4.07
27,29,4.071
-4,22,4.072
-38,0,4.073
-41,-30,4.074
-17,-46,4.075
6,-57,4.076
26,-50,4.077
41,-41,4.078
37,-25,4.079
31,-12,4.08
24,-8,4.081
19,-2,4.082
20,4,4.083
14,15,4.084
-14,38,4.085
-32,59,4.086
-18,72,4.087
-3,68,4.088
14,12,4.089
26,-35,4.09
18,-55,4.091
10,-70,4.092
8,-66,4.093
1,-61,4.094
-25,-49,4.095
-38,-27,4.096
-26,-8,4.097
-4,9,4.098
8,26,4.099
6,34,4.1
1,29,4.101
0,17,4.102
5,9,4.103
11,5,4.104
9,0,4.105
3,-1,4.106
4,3,4.107
7,7,4.108
4,4,4.109
-7,-5,4.11
-14,-12,4.111
-10,-15,4.112
0,-12,4.113
4,-7,4.114
-3,0,4.115
-35,1,4.116
-107,-9,4.117
-202,-16,4.118
-241,-20,4.119
-159,-23,4.12
17,-29,4.121
188,-31,4.122
282,-26,4.123
297,-15,4.124
263,10,4.125
189,72,4.126
87,160,4.127
-2,208,4.128
-48,158,4.129
-56,26,4.13
-46,-96,4.131
-34,-134,4.132
-27,-116,4.133
-37,-91,4.134
-45,-68,4.135
-39,-44,4.136
-29,-18,4.137
-34,0,4.138
-41,-5,4.139
-31,-7,4.14
-13,6,4.141
-9,14,4.142
-16,8,4.143
-13,4,4.144
-3,8,4.145
-3,9,4.146
-10,0,4.147
-12,-6,4.148
-19,0,4.149
-43,3,4.15
-71,1,4.151
-79,0,4.152
-61,6,4.153
-27,12,4.154
13,8,4.155
53,4,4.156
84,-1,4.157
97,-6,4.158
99,-9,4.159
95,-9,4.16
83,-5,4.161
62,-2,4.162
40,0,4.163
21,3,4.164
5,3,4.165
-6,2,4.166
-13,3,4.167
-18,8,4.168
-26,10,4.169
-38,7,4.17
-55,5,4.171
-76,12,4.172
-87,17,4.173
-69,6,4.174
-18,-6,4.175
34,-13,4.176
55,-14,4.177
55,-14,4.178
61,-12,4.179
75,-4,4.18
68,6,4.181
32,13,4.182
-3,16,4.183
-12,34,4.184
-6,81,4.185
-3,150,4.186
-11,205,4.187
-17,209,4.188
-13,138,4.189
-8,6,4.19
-10,-128,4.191
-14,-207,4.192
-11,-222,4.193
-1,-214,4.194
4,-209,4.195
-1,-189,4.196
-5,-118,4.197
-5,25,4.198
-6,217,4.199
-16,370,4.2
-27,358,4.201
-23,140,4.202
-6,-138,4.203
3,-286,4.204
-1,-283,4.205
-2,-256,4.206
6,-253,4.207
14,-201,4.208
7,-82,4.209
-3,17,4.21
-7,68,4.211
-6,126,4.212
-6,186,4.213
-8,162,4.214
-3,53,4.215
8,-36,4.216
16,-46,4.217
20,-31,4.218
24,-32,4.219
30,-5,4.22
28,65,4.221
18,107,4.222
8,78,4.223
4,22,4.224
4,-7,4.225
2,-11,4.226
-2,-6,4.227
-7,13,4.228
-11,38,4.229
-12,43,4.23
-6,27,4.231
3,17,4.232
9,20,4.233
7,16,4.234
8,10,4.235
10,5,4.236
16,6,4.237
16,8,4.238
-5,8,4.239
-25,7,4.24
-38,5,4.241
-46,2,4.242
-34,0,4.243
-22,-4,4.244
-8,-13,4.245
9,-23,4.246
39,-31,4.247
62,-33,4.248
63,-16,4.249
60,0,4.25
43,9,4.251
30,15,4.252
30,5,4.253
26,-4,4.254
4,-2,4.255
-19,12,4.256
-28,17,4.257
-25,9,4.258
-22,-6,4.259
-22,-12,4.26
-29,-13,4.261
-52,-14,4.262
-85,-15,4.263
-93,-10,4.264
-49,-1,4.265
23,3,4.266
75,-1,4.267
91,-11,4.268
96,-15,4.269
104,-10,4.27
96,-6,4.271
63,-9,4.272
35,-11,4.273
24,-5,4.274
15,12,4.275
-16,19,4.276
-52,8,4.277
-70,-5,4.278
-77,-3,4.279
-77,24,4.28
-53,70,4.281
1,117,4.282
58,149,4.283
87,160,4.284
92,152,4.285
80,116,4.286
40,65,4.287
-24,43,4.288
-89,53,4.289
-142,4,4.29
-183,-163,4.291
-200,-332,4.292
-173,-323,4.293
-110,-104,4.294
-32,140,4.295
52,229,4.296
136,146,4.297
180,-33,4.298
152,-241,4.299
92,-387,4.3
61,-391,4.301
47,-293,4.302
2,-225,4.303
-65,-224,4.304
-94,-196,4.305
-73,-102,4.306
-38,-19,4.307
-5,12,4.308
50,58,4.309
113,151,4.31
123,229,4.311
73,251,4.312
35,255,4.313
44,262,4.314
59,257,4.315
26,271,4.316
-22,375,4.317
-29,511,4.318
-6,461,4.319
-3,116,4.32
-18,-323,4.321
-13,-562,4.322
9,-535,4.323
11,-401,4.324
-11,-279,4.325
-26,-153,4.326
-22,-15,4.327
-18,66,4.328
-20,63,4.329
-14,39,4.33
4,39,4.331
18,40,4.332
24,31,4.333
17,39,4.334
0,72,4.335
-23,89,4.336
-39,72,4.337
-32,57,4.338
-15,59,4.339
-4,56,4.34
-4,46,4.341
-9,62,4.342
-10,95,4.343
-13,90,4.344
-20,20,4.345
-26,-68,4.346
-22,-110,4.347
4,-81,4.348
42,3,4.349
65,100,4.35
59,135,4.351
43,64,4.352
33,-37,4.353
23,-24,4.354
-5,202,4.355
-35,519,4.356
-39,634,4.357
-16,397,4.358
2,-35,4.359
-2,-355,4.36
-9,-428,4.361
-5,-389,4.362
-2,-411,4.363
-8,-475,4.364
-15,-433,4.365
-9,-263,4.366
2,-126,4.367
8,-159,4.368
8,-289,4.369
12,-345,4.37
19,-263,4.371
25,-127,4.372
28,-25,4.373
27,69,4.374
24,252,4.375
19,603,4.376
11,1037,4.377
4,1222,4.378
5,807,4.379
6,-97,4.38
-5,-882,4.381
-23,-1073,4.382
-34,-825,4.383
-42,-568,4.384
-62,-397,4.385
-96,-156,4.386
-136,115,4.387
-186,232,4.388
-226,268,4.389
-171,504,4.39
52,963,4.391
357,1290,4.392
534,1171,4.393
484,551,4.394
305,-262,4.395
144,-863,4.396
8,-1027,4.397
-159,-856,4.398
-307,-610,4.399
-320,-425,4.4
-203,-283,4.401
-85,-193,4.402
-32,-179,4.403
3,-166,4.404
53,-54,4.405
78,105,4.406
54,185,4.407
21,186,4.408
12,208,4.409
15,250,4.41
14,231,4.411
24,169,4.412
37,152,4.413
32,195,4.414
14,271,4.415
7,389,4.416
14,530,4.417
8,562,4.418
-3,369,4.419
0,33,4.42
9,-258,4.421
2,-433,4.422
-9,-512,4.423
-7,-477,4.424
3,-322,4.425
0,-155,4.426
-12,-90,4.427
-11,-89,4.428
-4,-50,4.429
-4,31,4.43
-8,83,4.431
-9,80,4.432
-6,44,4.433
-9,-14,4.434
-13,-64,4.435
-10,-65,4.436
-7,-24,4.437
-11,14,4.438
-16,31,4.439
-13,58,4.44
-7,105,4.441
-2,149,4.442
4,188,4.443
14,229,4.444
20,234,4.445
16,158,4.446
9,45,4.447
7,-22,4.448
3,-47,4.449
-2,-90,4.45
-5,-116,4.451
2,-8,4.452
17,241,4.453
24,428,4.454
24,348,4.455
24,157,4.456
22,-360,4.457
16,-749,4.458
-1,-750,4.459
-23,-644,4.46
-53,-216,4.461
-72,154,4.462
-52,353,4.463
-32,397,4.464
-16,-28,4.465
-1,-378,4.466
10,-500,4.467
21,-542,4.468
30,-343,4.469
38,-154,4.47
37,7,4.471
36,137,4.472
34,171,4.473
32,192,4.474
24,206,4.475
16,280,4.476
16,322,4.477
23,315,4.478
28,327,4.479
21,353,4.48
7,273,4.481
-2,51,4.482
-2,-181,4.483
-2,-270,4.484
-4,-172,4.485
-9,86,4.486
-13,414,4.487
-16,607,4.488
-16,450,4.489
-12,-5,4.49
-10,-408,4.491
-18,-488,4.492
-24,-350,4.493
-19,-230,4.494
-4,-190,4.495
5,-120,4.496
4,-17,4.497
1,-7,4.498
9,-99,4.499
24,-145,4.5
28,-80,4.501
18,-21,4.502
2,-34,4.503
-2,-18,4.504
2,111,4.505
9,254,4.506
15,261,4.507
19,124,4.508
20,-19,4.509
15,-41,4.51
6,70,4.511
6,200,4.512
7,199,4.513
-11,13,4.514
-44,-226,4.515
-70,-358,4.516
-64,-355,4.517
-30,-297,4.518
11,-227,4.519
42,-129,4.52
50,-29,4.521
33,47,4.522
7,171,4.523
-1,402,4.524
19,587,4.525
42,473,4.526
44,61,4.527
41,-318,4.528
56,-398,4.529
75,-249,4.53
62,-72,4.531
17,110,4.532
-8,364,4.533
0,638,4.534
-7,680,4.535
-91,345,4.536
-219,-201,4.537
-281,-637,4.538
-211,-760,4.539
-59,-565,4.54
75,-172,4.541
134,199,4.542
132,277,4.543
107,-38,4.544
79,-482,4.545
46,-643,4.546
11,-426,4.547
-10,-116,4.548
-4,42,4.549
19,107,4.55
29,197,4.551
19,266,4.552
7,246,4.553
12,206,4.554
23,222,4.555
25,267,4.556
18,399,4.557
18,542,4.558
23,719,4.559
21,703,4.56
13,105,4.561
7,-402,4.562
5,-635,4.563
4,-759,4.564
-4,-549,4.565
-17,-357,4.566
-30,-217,4.567
-43,-90,4.568
-50,-4,4.569
-49,69,4.57
-39,102,4.571
-23,128,4.572
-8,130,4.573
4,119,4.574
8,80,4.575
10,76,4.576
16,52,4.577
25,0,4.578
32,-22,4.579
35,5,4.58
32,54,4.581
22,136,4.582
13,274,4.583
4,365,4.584
-4,259,4.585
-10,-4,4.586
-12,-177,4.587
-5,-98,4.588
1,78,4.589
-2,78,4.59
-11,-122,4.591
-10,-258,4.592
3,-170,4.593
18,-23,4.594
31,-88,4.595
38,-303,4.596
32,-322,4.597
13,-68,4.598
-1,105,4.599
1,-33,4.6
-2,-203,4.601
-25,-29,4.602
-45,375,4.603
-38,557,4.604
-12,327,4.605
2,-79,4.606
-4,-376,4.607
-13,-502,4.608
-14,-505,4.609
-16,-402,4.61
-23,-211,4.611
-20,-20,4.612
0,85,4.613
26,112,4.614
37,117,4.615
26,138,4.616
5,172,4.617
-6,237,4.618
6,368,4.619
30,544,4.62
42,626,4.621
31,433,4.622
17,-33,4.623
20,-489,4.624
29,-618,4.625
19,-432,4.626
-3,-244,4.627
3,-232,4.628
46,-226,4.629
84,-48,4.63
69,167,4.631
3,195,4.632
-66,82,4.633
-111,13,4.634
-123,33,4.635
-115,27,4.636
-96,-36,4.637
-68,-49,4.638
-32,3,4.639
0,32,4.64
14,28,4.641
14,79,4.642
13,220,4.643
26,396,4.644
44,577,4.645
60,722,4.646
68,694,4.647
68,370,4.648
57,-154,4.649
38,-609,4.65
25,-794,4.651
21,-705,4.652
18,-465,4.653
2,-181,4.654
-33,-21,4.655
-70,-93,4.656
-78,-306,4.657
-41,-424,4.658
18,-346,4.659
55,-176,4.66
60,3,4.661
50,294,4.662
40,760,4.663
19,1151,4.664
-13,1028,4.665
-39,252,4.666
-40,-729,4.667
-20,-1233,4.668
18,-1006,4.669
60,-443,4.67
69,-83,4.671
28,-26,4.672
-22,-5,4.673
-43,142,4.674
-32,310,4.675
-30,356,4.676
-42,288,4.677
-33,168,4.678
2,15,4.679
27,-116,4.68
23,-135,4.681
19,-52,4.682
37,32,4.683
50,79,4.684
33,120,4.685
6,157,4.686
-4,162,4.687
-10,147,4.688
-34,139,4.689
-65,113,4.69
-67,45,4.691
-31,-24,4.692
9,-42,4.693
32,11,4.694
46,177,4.695
57,452,4.696
62,608,4.697
56,325,4.698
44,-332,4.699
28,-765,4.7
3,-561,4.701
-25,-111,4.702
-43,-82,4.703
-48,-442,4.704
-52,-571,4.705
-56,-243,4.706
-44,109,4.707
-18,179,4.708
1,190,4.709
-3,338,4.71
-20,405,4.711
-29,194,4.712
-17,-75,4.713
10,-159,4.714
34,-68,4.715
40,17,4.716
42,46,4.717
61,72,4.718
87,84,4.719
88,73,4.72
52,129,4.721
7,302,4.722
-17,464,4.723
-23,380,4.724
-26,-43,4.725
-27,-595,4.726
-21,-889,4.727
-12,-710,4.728
-13,-210,4.729
-18,276,4.73
-16,487,4.731
-9,332,4.732
2,-51,4.733
16,-405,4.734
41,-404,4.735
69,-92,4.736
85,145,4.737
78,130,4.738
48,73,4.739
3,146,4.74
-47,191,4.741
-84,66,4.742
-98,-64,4.743
-96,-21,4.744
-90,88,4.745
-72,91,4.746
-38,27,4.747
0,19,4.748
23,70,4.749
26,129,4.75
24,194,4.751
18,238,4.752
10,219,4.753
-2,151,4.754
-5,80,4.755
-6,-73,4.756
-9,-390,4.757
-11,-676,4.758
-3,-640,4.759
13,-284,4.76
17,83,4.761
11,239,4.762
5,185,4.763
10,-2,4.764
15,-195,4.765
20,-219,4.766
25,-68,4.767
29,27,4.768
24,-35,4.769
14,-39,4.77
7,152,4.771
13,314,4.772
29,262,4.773
46,139,4.774
53,159,4.775
45,216,4.776
27,116,4.777
14,-40,4.778
11,-44,4.779
14,77,4.78
11,133,4.781
4,48,4.782
0,-123,4.783
-1,-293,4.784
-3,-324,4.785
-10,-145,4.786
-17,90,4.787
-24,172,4.788
-24,152,4.789
-15,234,4.79
0,373,4.791
10,292,4.792
10,-38,4.793
1,-380,4.794
-14,-450,4.795
-37,-272,4.796
-55,-71,4.797
-53,1,4.798
-38,-57,4.799
-27,-154,4.8
-19,-177,4.801
1,-83,4.802
36,56,4.803
57,137,4.804
54,145,4.805
42,134,4.806
40,126,4.807
36,96,4.808
20,30,4.809
-3,-41,4.81
-16,-78,4.811
-20,-71,4.812
-20,-34,4.813
-22,11,4.814
-18,39,4.815
-9,18,4.816
5,-59,4.817
21,-138,4.818
33,-143,4.819
37,-38,4.82
30,106,4.821
22,174,4.822
24,119,4.823
29,-2,4.824
21,-99,4.825
-3,-119,4.826
-33,-59,4.827
-56,48,4.828
-65,141,4.829
-53,177,4.83
-29,173,4.831
-9,175,4.832
-5,185,4.833
-9,163,4.834
-8,99,4.835
-2,16,4.836
0,-67,4.837
2,-136,4.838
17,-166,4.839
34,-146,4.84
38,-110,4.841
28,-80,4.842
21,-26,4.843
23,63,4.844
21,118,4.845
7,77,4.846
-9,-5,4.847
-21,-34,4.848
-28,-3,4.849
-22,17,4.85
4,-22,4.851
34,-126,4.852
50,-245,4.853
46,-288,4.854
38,-150,4.855
29,100,4.856
17,228,4.857
8,126,4.858
13,-56,4.859
31,-141,4.86
49,-177,4.861
65,-276,4.862
73,-361,4.863
60,-263,4.864
8,-21,4.865
-60,153,4.866
-108,164,4.867
-130,129,4.868
-144,179,4.869
-150,292,4.87
-125,353,4.871
-70,307,4.872
-13,216,4.873
17,138,4.874
26,42,4.875
29,-193,4.876
31,-527,4.877
33,-630,4.878
33,-268,4.879
35,290,4.88
30,538,4.881
17,373,4.882
5,169,4.883
8,170,4.884
15,228,4.885
19,179,4.886
27,119,4.887
40,141,4.888
50,144,4.889
44,52,4.89
32,-48,4.891
27,-86,4.892
29,-119,4.893
25,-184,4.894
14,-218,4.895
-2,-229,4.896
-14,-169,4.897
-19,-109,4.898
-16,-54,4.899
-12,-45,4.9
-14,-179,4.901
-19,-258,4.902
-19,-166,4.903
-12,-128,4.904
-5,-256,4.905
-2,-355,4.906
1,-368,4.907
5,-268,4.908
4,173,4.909
-3,499,4.91
-6,481,4.911
-5,422,4.912
-5,239,4.913
-7,101,4.914
-1,124,4.915
8,88,4.916
7,-28,4.917
-11,-77,4.918
-39,-17,4.919
-69,-31,4.92
-91,-317,4.921
-87,-836,4.922
-48,-1248,4.923
12,-1082,4.924
59,-176,4.925
70,956,4.926
59,1478,4.927
59,1135,4.928
80,520,4.929
101,222,4.93
100,76,4.931
87,-318,4.932
86,-730,4.933
91,-602,4.934
82,154,4.935
50,865,4.936
17,901,4.937
-4,423,4.938
-21,6,4.939
-38,-120,4.94
-45,-216,4.941
-38,-495,4.942
-29,-713,4.943
-23,-480,4.944
-11,155,4.945
3,677,4.946
11,716,4.947
8,447,4.948
7,229,4.949
-2,126,4.95
-31,7,4.951
-65,-128,4.952
-73,-209,4.953
-59,-336,4.954
-50,-559,4.955
-57,-624,4.956
-50,-272,4.957
-17,251,4.958
13,408,4.959
18,87,4.96
10,-321,4.961
7,-517,4.962
0,-525,4.963
-16,-384,4.964
-24,-120,4.965
-17,52,4.966
-7,-40,4.967
-4,-130,4.968
7,131,4.969
25,532,4.97
34,565,4.971
24,234,4.972
13,6,4.973
9,8,4.974
7,-18,4.975
3,-158,4.976
7,-130,4.977
20,141,4.978
22,289,4.979
10,56,4.98
-4,-353,4.981
-7,-616,4.982
-5,-609,4.983
-6,-307,4.984
-6,234,4.985
-3,674,4.986
0,525,4.987
-4,-256,4.988
-13,-1038,4.989
-18,-1088,4.99
-12,-295,4.991
5,749,4.992
22,1325,4.993
26,1217,4.994
20,676,4.995
10,120,4.996
10,-201,4.997
20,-217,4.998
31,74,4.999
35,478,5.0
35,578,5.001
36,170,5.002
32,-378,5.003
13,-553,5.004
-18,-377,5.005
-54,-270,5.006
-99,-305,5.007
-153,-116,5.008
-181,386,5.009
-129,733,5.01
-5,565,5.011
104,145,5.012
130,-86,5.013
102,-123,5.014
95,-196,5.015
119,-335,5.016
134,-392,5.017
129,-394,5.018
119,-499,5.019
92,-641,5.02
23,-605,5.021
-51,-422,5.022
-68,-381,5.023
-30,-556,5.024
0,-626,5.025
-8,-294,5.026
-24,329,5.027
-26,865,5.028
-25,1037,5.029
-34,841,5.03
-57,477,5.031
-89,188,5.032
-108,117,5.033
-88,219,5.034
-31,332,5.035
15,324,5.036
30,180,5.037
47,-52,5.038
97,-341,5.039
141,-640,5.04
126,-864,5.041
59,-921,5.042
-3,-733,5.043
-28,-249,5.044
-30,483,5.045
-27,1232,5.046
-31,1608,5.047
-45,1319,5.048
-58,494,5.049
-55,-306,5.05
-43,-555,5.051
-37,-246,5.052
-32,107,5.053
-12,42,5.054
16,-467,5.055
16,-934,5.056
-16,-816,5.057
-41,-96,5.058
-35,644,5.059
-15,837,5.06
-11,524,5.061
-18,166,5.062
-18,-20,5.063
-16,-203,5.064
-36,-504,5.065
-81,-836,5.066
-122,-1163,5.067
-118,-1452,5.068
-64,-1402,5.069
-12,-749,5.07
-35,177,5.071
-120,755,5.072
-149,900,5.073
-18,991,5.074
200,1110,5.075
359,988,5.076
333,705,5.077
293,682,5.078
209,844,5.079
132,667,5.08
77,174,5.081
35,20,5.082
30,395,5.083
30,679,5.084
48,432,5.085
63,-103,5.086
64,-643,5.087
42,-1237,5.088
-51,-1696,5.089
-127,-1471,5.09
-144,-583,5.091
-170,64,5.092
-223,-128,5.093
-277,-715,5.094
-282,-749,5.095
-181,-58,5.096
-40,651,5.097
51,815,5.098
64,489,5.099
45,10,5.1
54,-318,5.101
105,-244,5.102
166,260,5.103
199,842,5.104
190,1087,5.105
138,939,5.106
61,564,5.107
-2,37,5.108
-20,-512,5.109
-18,-730,5.11
-40,-441,5.111
-88,-11,5.112
-111,108,5.113
-96,-92,5.114
-79,-357,5.115
-80,-620,5.116
-67,-873,5.117
-12,-1019,5.118
47,-837,5.119
59,-543,5.12
18,86,5.121
-39,785,5.122
-76,1688,5.123
-92,2196,5.124
-111,1517,5.125
-149,901,5.126
-190,475,5.127
-186,64,5.128
-110,-305,5.129
20,-681,5.13
163,-1074,5.131
292,-1356,5.132
390,-1306,5.133
433,-1112,5.134
395,-405,5.135
281,70,5.136
153,94,5.137
55,124,5.138
-18,492,5.139
-96,870,5.14
-177,822,5.141
-229,350,5.142
-240,-320,5.143
-231,-923,5.144
-217,-1017,5.145
-192,-366,5.146
-147,397,5.147
-86,264,5.148
-14,-764,5.149
50,-1522,5.15
72,-1097,5.151
43,184,5.152
17,1334,5.153
37,1837,5.154
77,1565,5.155
65,838,5.156
6,328,5.157
-46,488,5.158
-106,985,5.159
-222,1104,5.16
-337,646,5.161
-299,-14,5.162
-83,-584,5.163
150,-1013,5.164
266,-1163,5.165
295,-926,5.166
338,-586,5.167
395,-513,5.168
374,-618,5.169
226,-545,5.17
32,-234,5.171
-56,121,5.172
6,393,5.173
110,511,5.174
108,358,5.175
11,126,5.176
-53,295,5.177
-52,916,5.178
-65,1344,5.179
-84,1129,5.18
-4,624,5.181
172,334,5.182
289,170,5.183
251,-167,5.184
128,-567,5.185
3,-770,5.186
-114,-836,5.187
-208,-921,5.188
-233,-927,5.189
-217,-718,5.19
-216,-443,5.191
-212,-359,5.192
-167,-522,5.193
-129,-852,5.194
-176,-1132,5.195
-248,-1169,5.196
-204,-475,5.197
-64,183,5.198
35,735,5.199
45,1049,5.2
41,645,5.201
60,295,5.202
49,113,5.203
-23,-3,5.204
-131,82,5.205
-239,226,5.206
-296,544,5.207
-231,813,5.208
-52,935,5.209
109,968,5.21
169,731,5.211
216,489,5.212
340,234,5.213
461,20,5.214
416,8,5.215
217,41,5.216
56,-19,5.217
36,-126,5.218
67,-178,5.219
40,-273,5.22
-34,-653,5.221
-98,-1322,5.222
-145,-1865,5.223
-192,-1785,5.224
-212,-1017,5.225
-166,-33,5.226
-98,641,5.227
-91,893,5.228
-131,959,5.229
-97,1011,5.23
43,1019,5.231
135,923,5.232
64,731,5.233
-71,389,5.234
-39,-28,5.235
160,-331,5.236
290,-291,5.237
238,-201,5.238
167,39,5.239
236,215,5.24
334,200,5.241
267,143,5.242
31,-35,5.243
-233,-178,5.244
-428,-213,5.245
-498,-238,5.246
-346,-230,5.247
19,-319,5.248
345,-706,5.249
384,-1066,5.25
248,-1346,5.251
254,-1355,5.252
419,-552,5.253
434,284,5.254
86,1070,5.255
-395,1553,5.256
-596,1738,5.257
-414,1544,5.258
-116,994,5.259
1,396,5.26
-81,33,5.261
-162,-125,5.262
-100,-265,5.263
22,-421,5.264
38,-499,5.265
-33,-531,5.266
-24,-714,5.267
104,-1129,5.268
207,-1495,5.269
176,-1368,5.27
55,-657,5.271
-66,220,5.272
-122,783,5.273
-62,1015,5.274
108,1119,5.275
225,1175,5.276
148,1084,5.277
-41,962,5.278
-141,751,5.279
-145,483,5.28
-224,45,5.281
-411,-309,5.282
-515,-414,5.283
-372,-434,5.284
-74,-195,5.285
131,-5,5.286
123,36,5.287
35,34,5.288
74,-103,5.289
234,-218,5.29
276,-262,5.291
57,-306,5.292
-201,-346,5.293
-196,-394,5.294
82,-438,5.295
298,-421,5.296
247,-383,5.297
133,-347,5.298
172,-355,5.299
234,-508,5.3
115,-833,5.301
-54,-1091,5.302
-36,-902,5.303
77,-152,5.304
69,817,5.305
24,1498,5.306
148,1638,5.307
284,1340,5.308
132,855,5.309
-162,396,5.31
-167,111,5.311
120,52,5.312
260,116,5.313
52,144,5.314
-221,80,5.315
-263,1,5.316
-137,-37,5.317
-38,-79,5.318
5,-158,5.319
43,-219,5.32
86,-228,5.321
121,-293,5.322
104,-532,5.323
-45,-883,5.324
-308,-1113,5.325
-505,-1024,5.326
-509,-595,5.327
-398,16,5.328
-285,579,5.329
-152,928,5.33
36,1015,5.331
232,865,5.332
356,554,5.333
331,122,5.334
153,-264,5.335
24,-439,5.336
44,-365,5.337
78,-131,5.338
155,126,5.339
168,310,5.34
-17,374,5.341
-128,304,5.342
-14,138,5.343
63,-34,5.344
30,-131,5.345
0,-144,5.346
-21,-124,5.347
-35,-116,5.348
-26,-117,5.349
-13,-125,5.35
12,-183,5.351
3,-317,5.352
-109,-453,5.353
-175,-438,5.354
-32,-223,5.355
109,26,5.356
182,378,5.357
256,660,5.358
361,732,5.359
398,722,5.36
262,466,5.361
-55,241,5.362
-398,108,5.363
-517,-9,5.364
-322,-80,5.365
-19,-144,5.366
145,-184,5.367
191,-215,5.368
235,-218,5.369
207,-298,5.37
-2,-608,5.371
-267,-893,5.372
-371,-1097,5.373
-305,-1136,5.374
-222,-425,5.375
-108,447,5.376
55,929,5.377
121,879,5.378
-3,585,5.379
-124,385,5.38
-27,364,5.381
181,406,5.382
231,389,5.383
89,275,5.384
-23,89,5.385
43,-110,5.386
196,-244,5.387
273,-238,5.388
254,-80,5.389
229,134,5.39
215,261,5.391
131,234,5.392
3,126,5.393
-21,8,5.394
91,-92,5.395
55,-192,5.396
-356,-291,5.397
-848,-354,5.398
-866,-361,5.399
-329,-305,5.4
262,-198,5.401
511,-79,5.402
507,3,5.403
431,38,5.404
197,50,5.405
-237,50,5.406
-546,35,5.407
-424,15,5.408
-49,19,5.409
189,46,5.41
222,68,5.411
220,55,5.412
192,11,5.413
26,-68,5.414
-154,-181,5.415
-150,-332,5.416
-46,-481,5.417
-50,-527,5.418
-68,-386,5.419
106,-90,5.42
327,183,5.421
286,269,5.422
48,168,5.423
-78,43,5.424
-91,49,5.425
-237,183,5.426
-461,332,5.427
-448,405,5.428
-153,403,5.429
124,351,5.43
228,249,5.431
272,114,5.432
331,28,5.433
302,40,5.434
140,124,5.435
-31,211,5.436
-86,231,5.437
-51,119,5.438
-23,-169,5.439
-102,-516,5.44
-330,-651,5.441
-569,-441,5.442
-543,-63,5.443
-124,217,5.444
468,343,5.445
874,396,5.446
900,385,5.447
594,267,5.448
162,105,5.449
-141,13,5.45
-174,-37,5.451
-63,-184,5.452
-33,-421,5.453
-163,-607,5.454
-336,-548,5.455
-444,-233,5.456
-445,156,5.457
-310,398,5.458
-79,369,5.459
63,134,5.46
10,-80,5.461
-76,-62,5.462
-5,190,5.463
146,463,5.464
207,536,5.465
218,382,5.466
271,140,5.467
243,-36,5.468
43,-112,5.469
-99,-144,5.47
34,-201,5.471
206,-292,5.472
84,-372,5.473
-246,-407,5.474
-365,-379,5.475
-190,-300,5.476
-51,-216,5.477
-108,-175,5.478
-167,-197,5.479
-99,-224,5.48
-10,-177,5.481
61,-57,5.482
219,66,5.483
449,149,5.484
551,221,5.485
406,297,5.486
119,320,5.487
-147,244,5.488
-315,115,5.489
-395,10,5.49
-425,-48,5.491
-398,-97,5.492
-261,-158,5.493
16,-221,5.494
255,-216,5.495
276,-92,5.496
183,99,5.497
228,235,5.498
387,236,5.499
362,154,5.5
91,71,5.501
-87,-15,5.502
32,-167,5.503
155,-394,5.504
-56,-617,5.505
-408,-713,5.506
-430,-572,5.507
-58,-188,5.508
292,249,5.509
307,478,5.51
89,421,5.511
-137,248,5.512
-304,149,5.513
-436,159,5.514
-484,248,5.515
-438,356,5.516
-359,520,5.517
-239,618,5.518
-14,520,5.519
228,439,5.52
270,407,5.521
91,343,5.522
-55,189,5.523
21,-12,5.524
205,-358,5.525
317,-648,5.526
340,-769,5.527
326,-746,5.528
257,-286,5.529
165,61,5.53
140,72,5.531
140,76,5.532
46,56,5.533
-128,89,5.534
-174,243,5.535
-48,255,5.536
25,210,5.537
-79,209,5.538
-205,193,5.539
-213,103,5.54
-169,-1,5.541
-122,-56,5.542
-4,-91,5.543
158,-128,5.544
202,-143,5.545
104,-147,5.546
33,-206,5.547
68,-312,5.548
97,-332,5.549
69,-178,5.55
76,42,5.551
155,142,5.552
194,83,5.553
110,-28,5.554
-41,-77,5.555
-157,-78,5.556
-195,-102,5.557
-179,-131,5.558
-159,-133,5.559
-164,-126,5.56
-169,-140,5.561
-129,-139,5.562
-73,-88,5.563
-56,-21,5.564
-80,12,5.565
-140,31,5.566
-291,64,5.567
-510,89,5.568
-565,66,5.569
-246,16,5.57
304,-10,5.571
697,1,5.572
767,32,5.573
680,59,5.574
638,79,5.575
588,79,5.576
372,45,5.577
13,-2,5.578
-243,-30,5.579
-206,-19,5.58
39,25,5.581
224,72,5.582
163,96,5.583
-95,77,5.584
-356,18,5.585
-463,-61,5.586
-401,-130,5.587
-284,-158,5.588
-223,-139,5.589
-212,-87,5.59
-152,-33,5.591
-22,-39,5.592
68,-179,5.593
59,-1065,5.594
37,-681,5.595
81,-238,5.596
104,377,5.597
3,769,5.598
-124,481,5.599
-130,198,5.6
-62,-61,5.601
-54,-259,5.602
-84,-264,5.603
-54,-236,5.604
-25,-102,5.605
-103,-79,5.606
-192,-395,5.607
-123,-561,5.608
64,-274,5.609
202,55,5.61
261,511,5.611
301,783,5.612
308,505,5.613
262,-1022,5.614
242,-654,5.615
214,-230,5.616
168,361,5.617
160,736,5.618
269,460,5.619
342,189,5.62
304,-60,5.621
224,-250,5.622
16,-255,5.623
-132,-228,5.624
-96,-99,5.625
-93,-77,5.626
-193,-380,5.627
-254,-539,5.628
-200,-264,5.629
-168,52,5.63
-204,489,5.631
-219,750,5.632
-173,483,5.633
-156,226,5.634
-230,73,5.635
-247,-24,5.636
-236,-139,5.637
-312,-183,5.638
-406,-134,5.639
-360,-123,5.64
-203,-207,5.641
-72,-270,5.642
52,-228,5.643
272,-164,5.644
463,-163,5.645
362,-168,5.646
13,-110,5.647
-165,-45,5.648
130,-47,5.649
673,-81,5.65
962,-75,5.651
770,-27,5.652
348,10,5.653
-55,22,5.654
-204,23,5.655
-266,21,5.656
-350,4,5.657
-410,-15,5.658
-357,-20,5.659
-222,-15,5.66
-134,-32,5.661
-152,-99,5.662
-213,-188,5.663
-268,-210,5.664
-333,-110,5.665
-408,58,5.666
-408,173,5.667
-275,193,5.668
-59,177,5.669
178,184,5.67
445,196,5.671
727,184,5.672
893,160,5.673
789,137,5.674
485,108,5.675
221,50,5.676
79,-93,5.677
-25,-296,5.678
-16,-678,5.679
-11,-866,5.68
-23,-470,5.681
-39,-18,5.682
-71,597,5.683
-105,1001,5.684
-147,767,5.685
-185,564,5.686
-206,451,5.687
-229,324,5.688
-255,158,5.689
-245,43,5.69
-123,81,5.691
-11,54,5.692
71,-167,5.693
138,-346,5.694
129,-285,5.695
83,-182,5.696
31,-195,5.697
4,-234,5.698
1,-199,5.699
-25,-130,5.7
-89,-57,5.701
-112,57,5.702
-15,176,5.703
135,194,5.704
179,125,5.705
79,77,5.706
-31,61,5.707
-61,-8,5.708
-83,-121,5.709
-158,-190,5.71
-190,-219,5.711
-87,-281,5.712
56,-333,5.713
114,-258,5.714
91,-50,5.715
68,133,5.716
52,180,5.717
3,150,5.718
-39,129,5.719
-20,117,5.72
7,91,5.721
-30,64,5.722
-102,47,5.723
-143,21,5.724
-161,-13,5.725
-166,-29,5.726
-99,-30,5.727
73,-42,5.728
255,-54,5.729
311,-39,5.73
221,-11,5.731
93,-13,5.732
36,-39,5.733
49,-51,5.734
44,-32,5.735
-30,-12,5.736
-97,-9,5.737
-48,-10,5.738
73,-16,5.739
107,-43,5.74
16,-80,5.741
-72,-104,5.742
-71,-108,5.743
-59,-90,5.744
-117,-35,5.745
-200,45,5.746
-228,95,5.747
-199,81,5.748
-150,30,5.749
-97,-4,5.75
-26,-6,5.751
93,12,5.752
269,43,5.753
451,70,5.754
496,43,5.755
362,-102,5.756
178,-390,5.757
69,-716,5.758
15,-856,5.759
-29,-629,5.76
-31,-151,5.761
22,249,5.762
48,444,5.763
-4,633,5.764
-61,912,5.765
-60,1004,5.766
-54,689,5.767
-92,228,5.768
-125,11,5.769
-118,6,5.77
-127,-58,5.771
-193,-156,5.772
-260,-86,5.773
-282,108,5.774
-268,193,5.775
-244,164,5.776
-173,208,5.777
-22,312,5.778
180,279,5.779
381,126,5.78
542,53,5.781
595,65,5.782
466,0,5.783
191,-143,5.784
-47,-226,5.785
-110,-235,5.786
-62,-288,5.787
-58,-407,5.788
-116,-529,5.789
-135,-609,5.79
-96,-555,5.791
-81,-260,5.792
-109,146,5.793
-127,396,5.794
-106,328,5.795
-92,147,5.796
-106,84,5.797
-102,87,5.798
-61,12,5.799
-27,-79,5.8
-24,-74,5.801
-32,-27,5.802
-45,-33,5.803
-80,-57,5.804
-110,-51,5.805
-74,-63,5.806
30,-115,5.807
127,-123,5.808
163,-60,5.809
156,-25,5.81
113,-69,5.811
7,-113,5.812
-125,-98,5.813
-175,-65,5.814
-45,-50,5.815
189,-23,5.816
328,25,5.817
289,53,5.818
169,47,5.819
77,46,5.82
3,57,5.821
-85,43,5.822
-145,12,5.823
-133,11,5.824
-85,32,5.825
-64,24,5.826
-74,-10,5.827
-110,-25,5.828
-198,-15,5.829
-297,-10,5.83
-270,-10,5.831
-68,7,5.832
135,25,5.833
180,0,5.834
89,-45,5.835
26,-58,5.836
56,-33,5.837
116,-5,5.838
177,13,5.839
239,47,5.84
230,99,5.841
134,138,5.842
98,154,5.843
219,161,5.844
324,167,5.845
197,147,5.846
-44,52,5.847
-113,-112,5.848
10,-241,5.849
71,-201,5.85
-29,-33,5.851
-133,40,5.852
-132,-80,5.853
-111,-228,5.854
-160,-142,5.855
-236,121,5.856
-252,232,5.857
-206,68,5.858
-126,-136,5.859
-31,-134,5.86
32,39,5.861
29,211,5.862
2,295,5.863
12,280,5.864
50,149,5.865
64,-57,5.866
46,-191,5.867
24,-118,5.868
2,112,5.869
-27,300,5.87
-43,301,5.871
-31,174,5.872
-17,83,5.873
-18,78,5.874
-19,73,5.875
-5,-5,5.876
10,-92,5.877
16,-99,5.878
33,-55,5.879
59,-38,5.88
55,-44,5.881
18,-40,5.882
-2,-46,5.883
13,-80,5.884
23,-98,5.885
3,-70,5.886
-26,-42,5.887
-41,-62,5.888
-56,-97,5.889
-82,-104,5.89
-90,-96,5.891
-63,-96,5.892
-19,-88,5.893
27,-69,5.894
88,-66,5.895
158,-87,5.896
194,-103,5.897
149,-91,5.898
43,-70,5.899
-55,-54,5.9
-89,-32,5.901
-54,-9,5.902
2,-2,5.903
22,-5,5.904
-2,4,5.905
-17,14,5.906
3,3,5.907
11,-15,5.908
-45,-13,5.909
-113,11,5.91
-105,29,5.911
-42,27,5.912
-36,23,5.913
-113,21,5.914
-132,17,5.915
23,13,5.916
275,11,5.917
421,10,5.918
352,10,5.919
116,12,5.92
-139,17,5.921
-244,20,5.922
-145,18,5.923
17,16,5.924
66,18,5.925
30,27,5.926
86,54,5.927
237,75,5.928
275,73,5.929
121,70,5.93
-23,63,5.931
13,57,5.932
116,55,5.933
89,50,5.934
-55,35,5.935
-153,11,5.936
-138,-13,5.937
-100,-17,5.938
-104,-4,5.939
-108,3,5.94
-76,-13,5.941
-42,-44,5.942
-38,-59,5.943
-52,-46,5.944
-64,-18,5.945
-69,0,5.946
-67,-1,5.947
-51,-15,5.948
-23,-31,5.949
-4,-36,5.95
-11,-28,5.951
-30,-12,5.952
-39,4,5.953
-34,11,5.954
-25,11,5.955
-27,8,5.956
-33,6,5.957
-25,8,5.958
-3,6,5.959
16,0,5.96
22,-5,5.961
20,-4,5.962
18,-1,5.963
8,7,5.964
-6,15,5.965
-6,12,5.966
26,-6,5.967
76,-31,5.968
106,-42,5.969
86,-25,5.97
29,0,5.971
-22,12,5.972
-39,4,5.973
-36,-11,5.974
-52,-17,5.975
-104,-17,5.976
-156,-17,5.977
-159,-16,5.978
-97,-9,5.979
-10,7,5.98
72,27,5.981
163,39,5.982
276,45,5.983
355,49,5.984
327,46,5.985
225,32,5.986
165,14,5.987
170,0,5.988
144,-13,5.989
44,-28,5.99
-21,-36,5.991
10,-26,5.992
39,-6,5.993
-42,2,5.994
-164,0,5.995
-201,-6,5.996
-169,-14,5.997
-173,-22,5.998
-210,-21,5.999
-193,0,6.0
-126,29,6.001
-78,19,6.002
-55,-38,6.003
-12,-86,6.004
32,-57,6.005
29,40,6.006
-1,121,6.007
-4,110,6.008
10,7,6.009
2,-127,6.01
-13,-199,6.011
-2,-145,6.012
18,-4,6.013
14,126,6.014
-10,154,6.015
-27,99,6.016
-31,50,6.017
-29,47,6.018
-17,59,6.019
8,65,6.02
29,72,6.021
41,74,6.022
53,49,6.023
69,6,6.024
77,-26,6.025
68,-34,6.026
58,-38,6.027
50,-51,6.028
38,-61,6.029
22,-50,6.03
11,-30,6.031
6,-21,6.032
-1,-24,6.033
-13,-27,6.034
-20,-20,6.035
-25,-12,6.036
-30,-15,6.037
-26,-25,6.038
-10,-30,6.039
2,-25,6.04
-5,-13,6.041
-16,-4,6.042
-4,-8,6.043
24,-25,6.044
37,-39,6.045
23,-33,6.046
2,-12,6.047
-2,-1,6.048
1,-4,6.049
-1,-3,6.05
-5,8,6.051
-2,19,6.052
7,22,6.053
5,20,6.054
-2,23,6.055
-9,26,6.056
-14,16,6.057
-16,7,6.058
-10,6,6.059
3,7,6.06
8,7,6.061
-6,10,6.062
-23,16,6.063
-23,15,6.064
-11,6,6.065
-9,1,6.066
-25,5,6.067
-40,8,6.068
-37,5,6.069
-11,0,6.07
25,-4,6.071
54,-11,6.072
60,-23,6.073
48,-30,6.074
23,-23,6.075
-9,-10,6.076
-32,-13,6.077
-17,-21,6.078
42,-25,6.079
91,-20,6.08
83,-8,6.081
40,5,6.082
13,28,6.083
5,63,6.084
-17,104,6.085
-40,118,6.086
-22,70,6.087
18,-26,6.088
17,-107,6.089
-31,-127,6.09
-63,-100,6.091
-39,-55,6.092
4,9,6.093
32,109,6.094
45,189,6.095
48,148,6.096
35,-18,6.097
11,-143,6.098
-4,-89,6.099
-6,54,6.1
-13,57,6.101
-25,-128,6.102
-24,-285,6.103
-10,-238,6.104
-1,-75,6.105
6,42,6.106
24,145,6.107
48,309,6.108
49,409,6.109
23,251,6.11
-4,-88,6.111
-16,-303,6.112
-19,-258,6.113
-23,-97,6.114
-25,-7,6.115
-23,3,6.116
-23,17,6.117
-25,40,6.118
-16,31,6.119
-2,7,6.12
3,11,6.121
1,21,6.122
10,6,6.123
26,-11,6.124
28,-1,6.125
13,17,6.126
-1,7,6.127
-2,-15,6.128
-4,-19,6.129
-11,-9,6.13
-13,-4,6.131
-4,0,6.132
2,7,6.133
2,5,6.134
-1,-5,6.135
-2,-7,6.136
-4,0,6.137
-7,1,6.138
-4,-8,6.139
4,-8,6.14
4,17,6.141
-2,49,6.142
-6,50,6.143
-1,7,6.144
5,-53,6.145
6,-87,6.146
5,-74,6.147
6,-32,6.148
5,2,6.149
4,14,6.15
8,14,6.151
12,18,6.152
9,22,6.153
-4,20,6.154
-11,19,6.155
-7,24,6.156
-4,30,6.157
-6,36,6.158
0,41,6.159
23,49,6.16
44,72,6.161
44,104,6.162
27,97,6.163
12,13,6.164
5,-108,6.165
0,-163,6.166
-3,-115,6.167
-4,-37,6.168
1,-11,6.169
2,-24,6.17
1,-25,6.171
5,1,6.172
12,44,6.173
10,99,6.174
-1,126,6.175
-13,54,6.176
-18,-107,6.177
-16,-222,6.178
-13,-199,6.179
-9,-96,6.18
-10,-26,6.181
-12,-8,6.182
-10,-5,6.183
-2,-6,6.184
8,-1,6.185
13,61,6.186
13,177,6.187
12,243,6.188
13,165,6.189
12,1,6.19
13,-106,6.191
13,-107,6.192
11,-60,6.193
3,-14,6.194
-2,49,6.195
-8,109,6.196
-11,161,6.197
-12,155,6.198
-7,-26,6.199
-1,-153,6.2
-2,-114,6.201
-5,-55,6.202
2,63,6.203
21,117,6.204
37,-24,6.205
35,-125,6.206
17,-95,6.207
-10,-59,6.208
-41,-1,6.209
-65,35,6.21
-72,9,6.211
-56,-41,6.212
-35,-167,6.213
-25,-248,6.214
-16,-108,6.215
15,59,6.216
65,83,6.217
95,21,6.218
80,27,6.219
38,83,6.22
9,54,6.221
9,-47,6.222
25,-67,6.223
32,40,6.224
27,153,6.225
18,160,6.226
16,81,6.227
18,-12,6.228
22,-76,6.229
21,-83,6.23
13,-38,6.231
3,-1,6.232
2,-11,6.233
0,-37,6.234
-9,-24,6.235
-22,4,6.236
-25,0,6.237
-22,-18,6.238
-20,-9,6.239
-23,23,6.24
-28,40,6.241
-26,38,6.242
-18,36,6.243
-8,28,6.244
-5,4,6.245
-7,-12,6.246
-6,-7,6.247
7,6,6.248
22,9,6.249
28,6,6.25
25,3,6.251
16,-5,6.252
7,-13,6.253
3,-10,6.254
14,0,6.255
25,2,6.256
18,3,6.257
-5,22,6.258
-16,41,6.259
-1,30,6.26
14,-3,6.261
5,-20,6.262
-14,-18,6.263
-18,-13,6.264
-9,-9,6.265
-2,2,6.266
0,18,6.267
3,42,6.268
2,94,6.269
-6,153,6.27
-10,128,6.271
-7,-32,6.272
-3,-224,6.273
-9,-303,6.274
-15,-212,6.275
-14,-44,6.276
-6,133,6.277
-2,359,6.278
1,593,6.279
4,591,6.28
2,155,6.281
-7,-488,6.282
-12,-844,6.283
-7,-704,6.284
0,-343,6.285
1,-117,6.286
-3,-41,6.287
-8,49,6.288
-8,164,6.289
-2,195,6.29
9,169,6.291
21,214,6.292
30,327,6.293
36,380,6.294
38,284,6.295
29,76,6.296
17,-139,6.297
11,-260,6.298
9,-249,6.299
2,-155,6.3
-10,-78,6.301
-17,-50,6.302
-15,-27,6.303
-7,22,6.304
0,93,6.305
9,195,6.306
13,304,6.307
12,287,6.308
10,38,6.309
13,-299,6.31
20,-444,6.311
24,-320,6.312
24,-145,6.313
23,-66,6.314
22,-52,6.315
17,-15,6.316
7,5,6.317
-4,-28,6.318
-15,-51,6.319
-18,-2,6.32
-14,59,6.321
-11,68,6.322
-18,55,6.323
-31,62,6.324
-35,63,6.325
-25,39,6.326
-12,37,6.327
-5,83,6.328
-7,123,6.329
-10,113,6.33
-10,77,6.331
0,60,6.332
22,71,6.333
50,97,6.334
68,99,6.335
58,17,6.336
29,-136,6.337
5,-223,6.338
-7,-135,6.339
-20,42,6.34
-40,108,6.341
-51,11,6.342
-35,-115,6.343
0,-138,6.344
27,-69,6.345
39,14,6.346
42,64,6.347
42,76,6.348
32,70,6.349
19,88,6.35
8,139,6.351
-2,187,6.352
-10,238,6.353
-17,350,6.354
-16,448,6.355
-8,368,6.356
5,-253,6.357
15,-741,6.358
15,-827,6.359
1,-768,6.36
-11,-272,6.361
-8,133,6.362
9,261,6.363
15,328,6.364
7,210,6.365
2,42,6.366
9,-273,6.367
13,-455,6.368
5,-236,6.369
-7,-58,6.37
-19,-5,6.371
-30,44,6.372
-38,80,6.373
-40,113,6.374
-36,124,6.375
-38,152,6.376
-35,212,6.377
-18,235,6.378
15,156,6.379
43,9,6.38
51,-105,6.381
45,-130,6.382
41,-86,6.383
36,-18,6.384
22,58,6.385
2,119,6.386
-12,105,6.387
-16,-6,6.388
-15,-114,6.389
-15,-96,6.39
-6,8,6.391
13,57,6.392
32,18,6.393
36,-24,6.394
28,-15,6.395
19,-28,6.396
13,-97,6.397
1,-127,6.398
-17,-58,6.399
-30,31,6.4
-36,55,6.401
-41,46,6.402
-44,63,6.403
-35,93,6.404
-18,114,6.405
-3,153,6.406
4,189,6.407
15,147,6.408
28,40,6.409
32,14,6.41
23,139,6.411
-2,248,6.412
-45,146,6.413
-111,-172,6.414
-145,-450,6.415
-86,-476,6.416
51,-294,6.417
170,-74,6.418
200,96,6.419
166,257,6.42
114,421,6.421
50,468,6.422
-30,259,6.423
-86,-144,6.424
-83,-440,6.425
-51,-388,6.426
-36,-119,6.427
-40,15,6.428
-37,-99,6.429
-28,-248,6.43
-27,-264,6.431
-18,-231,6.432
22,-226,6.433
70,-149,6.434
91,20,6.435
104,150,6.436
86,162,6.437
68,196,6.438
47,296,6.439
21,341,6.44
-16,222,6.441
-45,118,6.442
-43,62,6.443
-41,28,6.444
-39,62,6.445
-44,73,6.446
-68,10,6.447
-77,-62,6.448
-37,-160,6.449
9,-212,6.45
69,-118,6.451
106,-44,6.452
72,-30,6.453
37,-33,6.454
6,-81,6.455
-21,-104,6.456
-36,-112,6.457
-17,-90,6.458
37,-32,6.459
92,43,6.46
115,90,6.461
86,74,6.462
10,-9,6.463
-87,-112,6.464
-150,-160,6.465
-154,-120,6.466
-129,-33,6.467
-106,47,6.468
-74,140,6.469
-21,294,6.47
16,462,6.471
9,467,6.472
-18,220,6.473
-30,-173,6.474
-35,-380,6.475
-67,-251,6.476
-102,-17,6.477
-78,74,6.478
9,80,6.479
92,162,6.48
122,204,6.481
112,-2,6.482
97,-318,6.483
75,-395,6.484
40,-197,6.485
11,6,6.486
7,118,6.487
18,260,6.488
19,372,6.489
16,227,6.49
21,-91,6.491
29,-217,6.492
20,-86,6.493
-7,-18,6.494
-41,-197,6.495
-72,-355,6.496
-89,-207,6.497
-70,105,6.498
-11,258,6.499
56,183,6.5
98,13,6.501
114,-155,6.502
114,-261,6.503
85,-237,6.504
12,-116,6.505
-65,-24,6.506
-82,15,6.507
-18,98,6.508
55,196,6.509
65,147,6.51
37,-62,6.511
56,-206,6.512
132,-152,6.513
191,-4,6.514
150,71,6.515
32,77,6.516
-70,100,6.517
-113,123,6.518
-124,75,6.519
-137,-8,6.52
-168,-25,6.521
-209,38,6.522
-230,90,6.523
-180,63,6.524
-37,-2,6.525
127,-27,6.526
203,17,6.527
155,76,6.528
56,75,6.529
-6,20,6.53
-13,-15,6.531
-1,8,6.532
6,50,6.533
4,80,6.534
2,129,6.535
1,174,6.536
3,205,6.537
7,182,6.538
16,-7,6.539
24,-159,6.54
25,-203,6.541
26,-183,6.542
21,29,6.543
17,204,6.544
18,266,6.545
16,244,6.546
2,-29,6.547
-8,-240,6.548
-6,-263,6.549
-5,-279,6.55
-6,-270,6.551
-8,-263,6.552
-6,-263,6.553
-6,-242,6.554
-21,-126,6.555
-33,27,6.556
-32,173,6.557
-21,223,6.558
-7,99,6.559
7,-135,6.56
14,-302,6.561
9,-277,6.562
4,-123,6.563
8,12,6.564
10,79,6.565
5,152,6.566
0,275,6.567
7,348,6.568
19,238,6.569
22,-23,6.57
16,-220,6.571
14,-182,6.572
16,2,6.573
17,145,6.574
11,157,6.575
3,144,6.576
-3,168,6.577
-3,138,6.578
3,-12,6.579
12,-155,6.58
11,-153,6.581
4,-73,6.582
-3,-52,6.583
-6,-77,6.584
-15,-48,6.585
-27,21,6.586
-29,45,6.587
-14,33,6.588
-8,57,6.589
-41,103,6.59
-115,105,6.591
-202,77,6.592
-253,77,6.593
-233,83,6.594
-108,55,6.595
93,61,6.596
276,215,6.597
355,434,6.598
342,421,6.599
317,21,6.6
297,-498,6.601
231,-693,6.602
93,-437,6.603
-48,-57,6.604
-108,93,6.605
-90,4,6.606
-59,-112,6.607
-51,-136,6.608
-53,-93,6.609
-46,-2,6.61
-39,128,6.611
-43,211,6.612
-50,181,6.613
-49,89,6.614
-39,54,6.615
-37,66,6.616
-45,0,6.617
-55,-170,6.618
-50,-320,6.619
-39,-323,6.62
-35,-197,6.621
-38,-59,6.622
-36,18,6.623
-27,47,6.624
-22,74,6.625
-17,104,6.626
-7,113,6.627
9,102,6.628
19,100,6.629
20,107,6.63
17,90,6.631
11,47,6.632
2,4,6.633
-8,-46,6.634
-10,-118,6.635
-12,-152,6.636
-6,-71,6.637
2,11,6.638
19,95,6.639
29,138,6.64
16,59,6.641
5,11,6.642
3,63,6.643
5,99,6.644
17,88,6.645
26,69,6.646
23,27,6.647
19,-16,6.648
15,-64,6.649
10,-95,6.65
4,-77,6.651
-2,-55,6.652
-6,-24,6.653
-9,2,6.654
-7,-20,6.655
-5,-85,6.656
-7,-121,6.657
-12,-81,6.658
-10,-17,6.659
-3,33,6.66
0,113,6.661
-1,238,6.662
0,280,6.663
7,120,6.664
14,-152,6.665
17,-297,6.666
16,-200,6.667
12,23,6.668
11,197,6.669
16,231,6.67
21,101,6.671
19,-161,6.672
13,-380,6.673
6,-365,6.674
18,-96,6.675
27,168,6.676
8,202,6.677
-37,93,6.678
-73,20,6.679
-65,-11,6.68
-18,-78,6.681
33,-130,6.682
60,-75,6.683
62,23,6.684
53,43,6.685
41,9,6.686
29,32,6.687
19,115,6.688
11,168,6.689
5,154,6.69
1,111,6.691
1,59,6.692
8,16,6.693
13,4,6.694
9,32,6.695
-5,36,6.696
-18,-17,6.697
-18,-54,6.698
-11,-17,6.699
-4,49,6.7
-5,60,6.701
-7,19,6.702
-8,-20,6.703
-7,-35,6.704
-5,-45,6.705
1,-56,6.706
9,-64,6.707
11,-76,6.708
5,-89,6.709
-4,-95,6.71
-12,-103,6.711
-17,-136,6.712
-18,-170,6.713
-21,-151,6.714
-21,-58,6.715
-20,40,6.716
-16,57,6.717
-13,9,6.718
-12,3,6.719
-5,104,6.72
9,233,6.721
19,248,6.722
18,132,6.723
10,9,6.724
3,-49,6.725
-1,-110,6.726
-19,-229,6.727
-47,-299,6.728
-60,-207,6.729
-37,-44,6.73
8,6,6.731
45,-55,6.732
52,-42,6.733
31,140,6.734
6,341,6.735
-13,359,6.736
-15,206,6.737
-5,53,6.738
-8,-18,6.739
-51,-48,6.74
-110,-76,6.741
-98,-86,6.742
27,-103,6.743
171,-168,6.744
185,-222,6.745
47,-149,6.746
-93,36,6.747
-97,164,6.748
10,152,6.749
106,112,6.75
132,145,6.751
133,191,6.752
154,171,6.753
175,136,6.754
154,166,6.755
87,212,6.756
1,177,6.757
-72,85,6.758
-101,11,6.759
-68,-66,6.76
-9,-209,6.761
12,-377,6.762
-17,-436,6.763
-46,-322,6.764
-44,-117,6.765
-40,22,6.766
-57,3,6.767
-71,-129,6.768
-56,-237,6.769
-39,-204,6.77
-41,-23,6.771
-46,174,6.772
-32,205,6.773
-8,-43,6.774
3,-432,6.775
2,-648,6.776
-3,-493,6.777
-14,-58,6.778
-22,416,6.779
-16,749,6.78
0,828,6.781
1,636,6.782
-6,351,6.783
-2,227,6.784
16,249,6.785
22,160,6.786
14,-101,6.787
11,-253,6.788
19,-111,6.789
21,106,6.79
14,131,6.791
5,16,6.792
1,-23,6.793
-6,46,6.794
-15,101,6.795
-17,52,6.796
-12,-93,6.797
-10,-275,6.798
-6,-374,6.799
5,-277,6.8
15,-53,6.801
15,84,6.802
8,45,6.803
9,-36,6.804
12,-38,6.805
11,-12,6.806
11,-29,6.807
15,-46,6.808
17,-25,6.809
13,-25,6.81
10,-88,6.811
14,-142,6.812
19,-131,6.813
12,-114,6.814
-3,-153,6.815
-26,-224,6.816
-62,-256,6.817
-106,-241,6.818
-131,-222,6.819
-107,-199,6.82
-40,-133,6.821
34,14,6.822
74,248,6.823
71,482,6.824
52,557,6.825
44,394,6.826
21,105,6.827
-53,-119,6.828
-145,-209,6.829
-135,-209,6.83
28,-148,6.831
235,-25,6.832
325,101,6.833
261,173,6.834
150,154,6.835
95,23,6.836
96,-271,6.837
77,-727,6.838
13,-1134,6.839
-51,-1065,6.84
-69,-254,6.841
-47,949,6.842
-25,1719,6.843
-28,1581,6.844
-45,931,6.845
-57,469,6.846
-59,333,6.847
-55,178,6.848
-53,-122,6.849
-63,-341,6.85
-76,-380,6.851
-67,-372,6.852
-26,-362,6.853
25,-258,6.854
63,-99,6.855
95,-34,6.856
107,-67,6.857
106,-98,6.858
66,-215,6.859
19,-555,6.86
-45,-935,6.861
-103,-912,6.862
-139,-332,6.863
-160,422,6.864
-132,841,6.865
-109,804,6.866
-100,574,6.867
-87,402,6.868
-61,293,6.869
-28,178,6.87
28,95,6.871
69,90,6.872
66,92,6.873
50,-8,6.874
-17,-170,6.875
-72,-266,6.876
-58,-255,6.877
18,-196,6.878
87,-131,6.879
89,-53,6.88
43,17,6.881
13,35,6.882
21,-1,6.883
24,-58,6.884
-7,-128,6.885
-45,-206,6.886
-37,-259,6.887
32,-263,6.888
124,-249,6.889
172,-266,6.89
136,-346,6.891
41,-493,6.892
-34,-610,6.893
-44,-484,6.894
10,40,6.895
79,761,6.896
123,1187,6.897
128,1079,6.898
115,684,6.899
99,356,6.9
80,142,6.901
40,-66,6.902
-19,-196,6.903
-66,-99,6.904
-70,117,6.905
-53,161,6.906
-72,-44,6.907
-147,-308,6.908
-228,-493,6.909
-235,-620,6.91
-155,-647,6.911
-48,-401,6.912
24,65,6.913
62,418,6.914
103,430,6.915
138,417,6.916
158,326,6.917
157,259,6.918
95,271,6.919
38,261,6.92
-4,186,6.921
-36,99,6.922
-33,-22,6.923
-42,-120,6.924
-90,-145,6.925
-117,-170,6.926
-82,-192,6.927
-49,-215,6.928
-25,-239,6.929
-6,-269,6.93
-2,-319,6.931
-4,-335,6.932
-26,-245,6.933
-42,-146,6.934
-30,-49,6.935
-7,-1,6.936
16,38,6.937
34,97,6.938
36,158,6.939
4,206,6.94
-42,212,6.941
-66,163,6.942
-60,94,6.943
-34,61,6.944
21,52,6.945
94,11,6.946
117,-61,6.947
33,-112,6.948
-93,-130,6.949
-142,-168,6.95
-79,-258,6.951
15,-387,6.952
62,-522,6.953
70,-626,6.954
87,-577,6.955
115,-271,6.956
116,226,6.957
74,669,6.958
17,822,6.959
-30,682,6.96
-77,475,6.961
-127,400,6.962
-135,414,6.963
-66,346,6.964
30,161,6.965
74,6,6.966
73,-25,6.967
104,-3,6.968
172,-17,6.969
172,-48,6.97
42,-57,6.971
-126,-84,6.972
-202,-188,6.973
-176,-385,6.974
-114,-553,6.975
-60,-516,6.976
5,-192,6.977
82,267,6.978
149,531,6.979
204,411,6.98
246,41,6.981
238,-305,6.982
150,-483,6.983
21,-481,6.984
-78,-301,6.985
-114,28,6.986
-94,386,6.987
-33,626,6.988
46,693,6.989
96,604,6.99
87,397,6.991
37,130,6.992
-6,-101,6.993
-35,-251,6.994
-52,-299,6.995
-65,-304,6.996
-63,-176,6.997
-58,-75,6.998
-44,-57,6.999
-39,-48,7.0
-63,-65,7.001
-85,-82,7.002
-97,-100,7.003
-93,-111,7.004
-37,-95,7.005
2,-38,7.006
-11,137,7.007
-33,256,7.008
-77,206,7.009
-101,141,7.01
-65,31,7.011
-32,-68,7.012
-12,-132,7.013
-8,-207,7.014
-65,-354,7.015
-62,-566,7.016
43,-749,7.017
149,-722,7.018
130,-416,7.019
30,32,7.02
23,411,7.021
153,625,7.022
272,683,7.023
245,593,7.024
137,373,7.025
70,138,7.026
31,17,7.027
-84,20,7.028
-277,50,7.029
-407,42,7.03
-376,7,7.031
-236,-43,7.032
-107,-95,7.033
-11,-116,7.034
81,-65,7.035
155,0,7.036
158,-15,7.037
114,-103,7.038
126,-168,7.039
212,-181,7.04
257,-221,7.041
183,-327,7.042
85,-408,7.043
66,-376,7.044
73,-264,7.045
9,-138,7.046
-102,3,7.047
-156,187,7.048
-128,379,7.049
-73,507,7.05
-36,528,7.051
-27,428,7.052
-27,257,7.053
6,101,7.054
87,87,7.055
146,206,7.056
109,304,7.057
1,271,7.058
-104,136,7.059
-204,-22,7.06
-320,-166,7.061
-372,-291,7.062
-257,-377,7.063
-17,-381,7.064
204,-259,7.065
324,-11,7.066
349,270,7.067
272,443,7.068
95,429,7.069
-82,278,7.07
-124,89,7.071
-5,-74,7.072
162,-185,7.073
253,-278,7.074
239,-383,7.075
206,-465,7.076
116,-414,7.077
14,-180,7.078
-125,89,7.079
-244,218,7.08
-300,218,7.081
-315,209,7.082
-208,193,7.083
-123,83,7.084
-104,-82,7.085
-86,-158,7.086
-75,-120,7.087
-40,-88,7.088
65,-122,7.089
118,-144,7.09
8,-96,7.091
-38,-22,7.092
110,22,7.093
256,37,7.094
248,13,7.095
51,-73,7.096
-82,-182,7.097
-87,-222,7.098
-98,-181,7.099
-101,-108,7.1
61,-6,7.101
294,149,7.102
284,296,7.103
-3,321,7.104
-216,197,7.105
-139,-12,7.106
21,-226,7.107
20,-346,7.108
-83,-269,7.109
-115,-22,7.11
-57,178,7.111
32,166,7.112
105,40,7.113
27,-10,7.114
-242,51,7.115
-419,109,7.116
-314,155,7.117
-158,169,7.118
147,86,7.119
368,-7,7.12
333,-132,7.121
319,-196,7.122
368,-73,7.123
345,51,7.124
103,181,7.125
-84,219,7.126
-109,-20,7.127
-117,-215,7.128
-69,-278,7.129
-65,-240,7.13
-193,102,7.131
-282,404,7.132
-248,581,7.133
-174,707,7.134
17,535,7.135
141,104,7.136
183,-381,7.137
209,-663,7.138
247,-668,7.139
242,-450,7.14
148,-59,7.141
5,393,7.142
-106,668,7.143
-155,629,7.144
-155,419,7.145
-109,281,7.146
-46,249,7.147
-59,190,7.148
-172,64,7.149
-215,-50,7.15
-14,-124,7.151
311,-199,7.152
436,-276,7.153
251,-329,7.154
21,-357,7.155
17,-399,7.156
130,-415,7.157
63,-338,7.158
-187,-199,7.159
-322,-89,7.16
-154,-26,7.161
149,44,7.162
286,134,7.163
147,185,7.164
-120,169,7.165
-306,123,7.166
-326,80,7.167
-243,33,7.168
-138,-18,7.169
-53,-53,7.17
-14,-71,7.171
-19,-98,7.172
-8,-129,7.173
56,-138,7.174
118,-128,7.175
89,-137,7.176
15,-169,7.177
-17,-163,7.178
-40,-96,7.179
-110,-12,7.18
-114,55,7.181
91,111,7.182
375,158,7.183
450,173,7.184
278,139,7.185
55,68,7.186
-121,-19,7.187
-271,-96,7.188
-274,-107,7.189
-14,-13,7.19
270,144,7.191
212,244,7.192
-74,227,7.193
-200,114,7.194
-146,-19,7.195
-394,-142,7.196
-1026,-228,7.197
-1249,-268,7.198
-430,-162,7.199
885,-37,7.2
1605,147,7.201
1462,291,7.202
1074,319,7.203
823,303,7.204
446,157,7.205
-179,43,7.206
-623,27,7.207
-544,6,7.208
-204,-29,7.209
-21,-54,7.21
-9,-48,7.211
17,-36,7.212
33,-10,7.213
-98,3,7.214
-313,-53,7.215
-436,-181,7.216
-436,-313,7.217
-389,-330,7.218
-309,-196,7.219
-207,-6,7.22
-173,121,7.221
-234,163,7.222
-251,166,7.223
-111,156,7.224
96,136,7.225
246,120,7.226
350,126,7.227
432,135,7.228
385,113,7.229
134,57,7.23
-149,-8,7.231
-221,-79,7.232
-69,-153,7.233
142,-209,7.234
243,-189,7.235
192,-83,7.236
50,42,7.237
-112,127,7.238
-228,152,7.239
-261,125,7.24
-253,53,7.241
-301,-46,7.242
-476,-135,7.243
-717,-188,7.244
-793,-184,7.245
-472,-88,7.246
209,104,7.247
938,299,7.248
1393,356,7.249
1419,224,7.25
985,-1,7.251
234,-181,7.252
-407,-260,7.253
-605,-263,7.254
-371,-225,7.255
-119,-178,7.256
-70,-136,7.257
-7,-77,7.258
216,9,7.259
328,92,7.26
88,113,7.261
-240,68,7.262
-234,33,7.263
84,62,7.264
347,112,7.265
375,111,7.266
294,60,7.267
198,24,7.268
48,22,7.269
-155,21,7.27
-306,1,7.271
-383,-15,7.272
-446,-22,7.273
-502,-46,7.274
-460,-74,7.275
-299,-54,7.276
-91,18,7.277
113,75,7.278
295,51,7.279
339,-14,7.28
143,-46,7.281
-174,-40,7.282
-354,-46,7.283
-329,-71,7.284
-277,-61,7.285
-282,-2,7.286
-188,57,7.287
108,69,7.288
429,55,7.289
539,56,7.29
431,71,7.291
242,48,7.292
62,-10,7.293
-88,-68,7.294
-108,-75,7.295
13,-34,7.296
114,4,7.297
75,11,7.298
19,-10,7.299
86,-36,7.3
186,-43,7.301
139,-20,7.302
-39,18,7.303
-198,41,7.304
-267,38,7.305
-227,32,7.306
-9,54,7.307
368,108,7.308
629,160,7.309
471,161,7.31
-30,82,7.311
-472,-44,7.312
-589,-137,7.313
-478,-158,7.314
-326,-139,7.315
-162,-124,7.316
37,-128,7.317
177,-118,7.318
138,-68,7.319
99,-28,7.32
61,-20,7.321
41,0,7.322
79,49,7.323
122,92,7.324
175,109,7.325
185,108,7.326
62,48,7.327
-59,1,7.328
-176,-7,7.329
-237,-14,7.33
-131,-19,7.331
-57,-17,7.332
-77,9,7.333
-85,39,7.334
-20,63,7.335
90,57,7.336
188,35,7.337
221,18,7.338
162,5,7.339
52,-5,7.34
-17,-6,7.341
-6,2,7.342
34,13,7.343
33,23,7.344
-19,39,7.345
-88,60,7.346
-137,67,7.347
-142,37,7.348
-121,-21,7.349
-136,-78,7.35
-227,-126,7.351
-345,-175,7.352
-393,-215,7.353
-327,-220,7.354
-160,-163,7.355
62,-61,7.356
278,40,7.357
411,102,7.358
414,110,7.359
307,76,7.36
185,39,7.361
148,25,7.362
211,31,7.363
278,40,7.364
235,49,7.365
80,51,7.366
-88,27,7.367
-202,-21,7.368
-257,-55,7.369
-241,-37,7.37
-121,14,7.371
76,53,7.372
240,64,7.373
290,65,7.374
200,62,7.375
18,44,7.376
-150,7,7.377
-204,-19,7.378
-162,-27,7.379
-125,-26,7.38
-125,-21,7.381
-93,-15,7.382
-32,-14,7.383
-57,-18,7.384
-191,-18,7.385
-273,-13,7.386
-193,-20,7.387
-45,-39,7.388
49,-46,7.389
118,-22,7.39
223,1,7.391
313,-3,7.392
333,-13,7.393
331,7,7.394
356,63,7.395
331,107,7.396
185,117,7.397
4,111,7.398
-84,50,7.399
-113,-11,7.4
-176,-73,7.401
-239,-112,7.402
-230,-80,7.403
-202,-43,7.404
-230,2,7.405
-234,39,7.406
-115,44,7.407
32,45,7.408
43,29,7.409
-51,4,7.41
-104,-44,7.411
-95,-95,7.412
-79,-155,7.413
-10,-212,7.414
185,-262,7.415
409,-304,7.416
467,-301,7.417
337,-201,7.418
176,-5,7.419
78,225,7.42
-4,406,7.421
-116,479,7.422
-204,441,7.423
-201,339,7.424
-125,236,7.425
-60,169,7.426
-55,132,7.427
-74,103,7.428
-58,65,7.429
-20,21,7.43
-25,-19,7.431
-76,-42,7.432
-103,-54,7.433
-70,-74,7.434
-7,-101,7.435
34,-119,7.436
49,-117,7.437
44,-108,7.438
13,-109,7.439
-25,-118,7.44
-46,-115,7.441
-78,-104,7.442
-162,-101,7.443
-249,-106,7.444
-212,-100,7.445
-14,-70,7.446
221,-31,7.447
349,-2,7.448
327,10,7.449
201,7,7.45
45,-7,7.451
-55,-23,7.452
-54,-24,7.453
-10,-10,7.454
-24,12,7.455
-99,23,7.456
-121,11,7.457
-37,-4,7.458
71,-6,7.459
112,3,7.46
81,6,7.461
25,-9,7.462
-39,-31,7.463
-93,-35,7.464
-102,-19,7.465
-54,-4,7.466
18,2,7.467
74,11,7.468
99,26,7.469
115,26,7.47
162,-15,7.471
238,-97,7.472
255,-178,7.473
126,-208,7.474
-71,-143,7.475
-159,-2,7.476
-93,122,7.477
-16,176,7.478
-1,179,7.479
55,184,7.48
181,196,7.481
193,185,7.482
-31,151,7.483
-306,116,7.484
-376,86,7.485
-243,47,7.486
-103,6,7.487
-43,-11,7.488
-5,-9,7.489
23,-12,7.49
-18,-25,7.491
-100,-34,7.492
-98,-36,7.493
20,-45,7.494
135,-62,7.495
128,-70,7.496
50,-57,7.497
20,-29,7.498
47,-11,7.499
52,-12,7.5
10,-21,7.501
-41,-31,7.502
-109,-39,7.503
-230,-47,7.504
-353,-56,7.505
-354,-60,7.506
-200,-54,7.507
20,-38,7.508
237,-15,7.509
433,10,7.51
533,36,7.511
449,56,7.512
264,64,7.513
138,53,7.514
112,34,7.515
53,16,7.516
-71,5,7.517
-119,-5,7.518
-56,-18,7.519
-43,-32,7.52
-142,-34,7.521
-201,-31,7.522
-128,-27,7.523
-38,-20,7.524
-18,-8,7.525
5,5,7.526
61,11,7.527
58,3,7.528
-10,-13,7.529
-18,-33,7.53
73,-42,7.531
130,-35,7.532
86,-10,7.533
18,17,7.534
4,37,7.535
-8,48,7.536
-56,46,7.537
-87,36,7.538
-63,15,7.539
-38,-7,7.54
-44,-27,7.541
-42,-60,7.542
-17,-126,7.543
-14,-215,7.544
-42,-280,7.545
-62,-269,7.546
-58,-166,7.547
-50,-15,7.548
-39,133,7.549
-8,259,7.55
23,361,7.551
17,412,7.552
-10,385,7.553
-18,288,7.554
3,181,7.555
27,102,7.556
40,35,7.557
53,-20,7.558
56,-51,7.559
36,-63,7.56
6,-78,7.561
-12,-93,7.562
-28,-90,7.563
-54,-75,7.564
-60,-65,7.565
-9,-53,7.566
77,-35,7.567
132,-28,7.568
125,-39,7.569
65,-44,7.57
-33,-24,7.571
-147,-4,7.572
-208,-9,7.573
-175,-36,7.574
-85,-61,7.575
-29,-73,7.576
-21,-71,7.577
18,-44,7.578
115,-7,7.579
205,11,7.58
236,12,7.581
228,12,7.582
193,11,7.583
96,-12,7.584
-51,-55,7.585
-166,-96,7.586
-196,-114,7.587
-177,-104,7.588
-135,-69,7.589
-35,-21,7.59
119,20,7.591
236,50,7.592
258,76,7.593
226,91,7.594
193,90,7.595
145,88,7.596
61,86,7.597
-7,82,7.598
-16,74,7.599
-14,66,7.6
-56,58,7.601
-108,45,7.602
-103,21,7.603
-64,-1,7.604
-61,-13,7.605
-92,-23,7.606
-100,-27,7.607
-76,-32,7.608
-65,-38,7.609
-72,-43,7.61
-69,-44,7.611
-51,-46,7.612
-44,-45,7.613
-51,-44,7.614
-48,-47,7.615
-38,-49,7.616
-39,-46,7.617
-43,-32,7.618
-30,-20,7.619
-9,-12,7.62
1,-3,7.621
0,4,7.622
8,6,7.623
17,8,7.624
15,17,7.625
10,36,7.626
19,48,7.627
33,45,7.628
33,33,7.629
19,23,7.63
7,19,7.631
3,19,7.632
6,19,7.633
15,15,7.634
27,7,7.635
29,0,7.636
16,-5,7.637
7,-6,7.638
16,-6,7.639
29,-5,7.64
28,-3,7.641
19,-1,7.642
16,-3,7.643
22,-12,7.644
23,-18,7.645
21,-18,7.646
20,-16,7.647
18,-14,7.648
9,-12,7.649
0,-6,7.65
-5,0,7.651
-5,4,7.652
-5,5,7.653
-8,7,7.654
-11,7,7.655
-9,2,7.656
-5,-7,7.657
-2,-11,7.658
-3,-7,7.659
-14,-1,7.66
-26,-1,7.661
-26,-3,7.662
-12,-1,7.663
15,1,7.664
41,3,7.665
54,3,7.666
51,6,7.667
42,10,7.668
30,11,7.669
9,5,7.67
-23,1,7.671
-47,6,7.672
-44,14,7.673
-15,19,7.674
15,19,7.675
31,23,7.676
48,26,7.677
70,27,7.678
65,17,7.679
13,3,7.68
-55,-8,7.681
-84,-16,7.682
-58,-26,7.683
-11,-40,7.684
22,-55,7.685
42,-62,7.686
61,-64,7.687
70,-57,7.688
49,-42,7.689
3,-23,7.69
-41,-5,7.691
-60,7,7.692
-55,14,7.693
-45,12,7.694
-38,9,7.695
-41,7,7.696
-44,6,7.697
-27,9,7.698
10,12,7.699
40,13,7.7
39,18,7.701
29,25,7.702
48,29,7.703
81,28,7.704
83,27,7.705
43,23,7.706
9,13,7.707
9,1,7.708
17,0,7.709
-6,6,7.71
-61,10,7.711
-122,4,7.712
-162,-2,7.713
-153,-8,7.714
-86,-10,7.715
0,-10,7.716
50,-10,7.717
68,-7,7.718
102,-2,7.719
147,4,7.72
136,9,7.721
65,10,7.722
15,2,7.723
38,-2,7.724
78,2,7.725
64,9,7.726
16,6,7.727
-4,-3,7.728
4,-7,7.729
0,-8,7.73
-23,-13,7.731
-35,-21,7.732
-31,-24,7.733
-33,-16,7.734
-46,-9,7.735
-56,-8,7.736
-53,-14,7.737
-47,-18,7.738
-38,-16,7.739
-24,-5,7.74
-11,7,7.741
0,11,7.742
12,9,7.743
23,7,7.744
23,11,7.745
12,19,7.746
0,23,7.747
-1,25,7.748
-7,28,7.749
-19,28,7.75
-22,21,7.751
-9,10,7.752
5,5,7.753
1,4,7.754
-4,1,7.755
-8,-4,7.756
1,-9,7.757
11,-11,7.758
21,-18,7.759
26,-23,7.76
16,-16,7.761
8,-2,7.762
10,3,7.763
14,-5,7.764
19,-12,7.765
21,-10,7.766
14,-3,7.767
8,-2,7.768
4,-3,7.769
-1,-1,7.77
-13,2,7.771
-22,-1,7.772
-23,-3,7.773
-23,-6,7.774
-22,-5,7.775
-24,-5,7.776
-25,-7,7.777
-21,-7,7.778
-11,-6,7.779
-1,-8,7.78
10,-6,7.781
28,-2,7.782
50,0,7.783
58,0,7.784
49,2,7.785
43,8,7.786
50,12,7.787
54,11,7.788
36,8,7.789
9,7,7.79
-3,4,7.791
0,0,7.792
3,0,7.793
-5,-2,7.794
-14,-9,7.795
-18,-20,7.796
-19,-38,7.797
-18,-54,7.798
-13,-69,7.799
-5,-67,7.8
-3,-42,7.801
-7,-4,7.802
-9,26,7.803
-8,38,7.804
-8,35,7.805
-8,26,7.806
-8,17,7.807
-6,21,7.808
-6,38,7.809
-6,54,7.81
-1,49,7.811
8,30,7.812
10,21,7.813
1,31,7.814
-9,48,7.815
-17,59,7.816
-21,52,7.817
-20,35,7.818
-12,14,7.819
0,1,7.82
6,-4,7.821
3,-6,7.822
-3,-13,7.823
-5,-25,7.824
-5,-30,7.825
1,-29,7.826
19,-27,7.827
43,-24,7.828
62,-21,7.829
69,-22,7.83
67,-27,7.831
54,-30,7.832
35,-24,7.833
8,-19,7.834
-7,-18,7.835
-9,-20,7.836
-8,-23,7.837
-15,-16,7.838
-17,-7,7.839
-1,-2,7.84
22,-2,7.841
26,-1,7.842
11,3,7.843
-6,5,7.844
-15,4,7.845
-15,3,7.846
-12,5,7.847
-7,6,7.848
-4,5,7.849
-8,5,7.85
-13,5,7.851
-12,5,7.852
-10,3,7.853
-15,-1,7.854
-22,1,7.855
-26,6,7.856
-23,1,7.857
-13,-7,7.858
6,-11,7.859
19,-8,7.86
3,-2,7.861
-47,0,7.862
-92,-3,7.863
-85,-6,7.864
-29,-6,7.865
22,-4,7.866
38,-3,7.867
42,-3,7.868
67,0,7.869
100,7,7.87
99,9,7.871
58,4,7.872
14,-1,7.873
-3,-5,7.874
2,-6,7.875
9,-3,7.876
3,-2,7.877
-4,1,7.878
-7,5,7.879
-5,9,7.88
-2,11,7.881
0,15,7.882
0,12,7.883
0,4,7.884
-2,1,7.885
-3,2,7.886
-6,2,7.887
-6,-1,7.888
-5,-4,7.889
-6,-6,7.89
-5,-6,7.891
0,-7,7.892
5,-6,7.893
2,-6,7.894
-4,-5,7.895
-8,-7,7.896
-7,-11,7.897
-6,-10,7.898
-2,-4,7.899
1,4,7.9
3,9,7.901
0,10,7.902
-4,6,7.903
-3,-2,7.904
2,-6,7.905
4,-4,7.906
-1,2,7.907
-5,7,7.908
-6,9,7.909
-5,9,7.91
-2,10,7.911
2,9,7.912
9,5,7.913
13,-3,7.914
13,-7,7.915
7,-4,7.916
-1,-3,7.917
-3,-2,7.918
1,-6,7.919
9,-7,7.92
11,-5,7.921
6,-3,7.922
5,-5,7.923
9,-8,7.924
11,-8,7.925
7,-2,7.926
2,8,7.927
2,35,7.928
1,76,7.929
2,99,7.93
3,74,7.931
2,23,7.932
-1,10,7.933
-2,52,7.934
7,84,7.935
17,36,7.936
9,-71,7.937
-13,-149,7.938
-22,-175,7.939
-8,-184,7.94
10,-177,7.941
10,-121,7.942
4,-33,7.943
6,32,7.944
13,58,7.945
14,90,7.946
8,165,7.947
4,278,7.948
2,389,7.949
0,401,7.95
-3,211,7.951
2,-137,7.952
7,-440,7.953
3,-569,7.954
-5,-529,7.955
-12,-408,7.956
-14,-260,7.957
-14,-96,7.958
-4,30,7.959
3,80,7.96
4,92,7.961
6,115,7.962
6,136,7.963
6,129,7.964
12,122,7.965
18,145,7.966
23,165,7.967
27,145,7.968
27,108,7.969
27,87,7.97
23,67,7.971
19,33,7.972
16,12,7.973
13,21,7.974
7,39,7.975
-1,33,7.976
-10,6,7.977
-16,-13,7.978
-11,-21,7.979
-4,-5,7.98
-5,44,7.981
-8,105,7.982
-9,115,7.983
-5,36,7.984
-6,-95,7.985
-11,-192,7.986
-14,-214,7.987
-9,-177,7.988
-2,-121,7.989
0,-73,7.99
1,-36,7.991
2,-13,7.992
3,1,7.993
3,12,7.994
2,25,7.995
-3,32,7.996
-8,32,7.997
-13,38,7.998
-11,51,7.999
-7,70,8.0
-6,89,8.001
-6,101,8.002
-5,95,8.003
-1,61,8.004
3,15,8.005
8,-17,8.006
13,-34,8.007
17,-57,8.008
17,-92,8.009
12,-118,8.01
8,-115,8.011
4,-86,8.012
1,-48,8.013
-1,-9,8.014
2,18,8.015
4,17,8.016
1,-6,8.017
0,-20,8.018
11,-11,8.019
24,17,8.02
24,64,8.021
19,136,8.022
17,218,8.023
19,248,8.024
16,174,8.025
6,7,8.026
3,-178,8.027
7,-290,8.028
5,-284,8.029
-8,-178,8.03
-17,-32,8.031
-19,96,8.032
-19,172,8.033
-22,203,8.034
-20,243,8.035
-12,340,8.036
-6,433,8.037
-3,359,8.038
4,28,8.039
12,-418,8.04
8,-721,8.041
1,-754,8.042
4,-601,8.043
16,-396,8.044
17,-202,8.045
5,-37,8.046
-3,76,8.047
0,136,8.048
12,172,8.049
18,193,8.05
22,188,8.051
24,160,8.052
25,138,8.053
21,131,8.054
18,151,8.055
13,202,8.056
0,246,8.057
-12,213,8.058
-12,103,8.059
-2,59,8.06
2,186,8.061
-1,320,8.062
-2,178,8.063
4,-224,8.064
3,-539,8.065
-6,-524,8.066
-15,-324,8.067
-13,-176,8.068
-10,-61,8.069
-13,154,8.07
-15,404,8.071
-12,484,8.072
-6,347,8.073
-4,70,8.074
-4,-209,8.075
-5,-396,8.076
-7,-427,8.077
-8,-322,8.078
-3,-188,8.079
8,-102,8.08
14,-39,8.081
13,37,8.082
15,90,8.083
23,86,8.084
26,64,8.085
22,70,8.086
16,93,8.087
16,116,8.088
13,144,8.089
4,160,8.09
-3,114,8.091
-1,13,8.092
4,-60,8.093
3,-64,8.094
-1,-26,8.095
-4,-4,8.096
-6,-2,8.097
-8,1,8.098
-4,3,8.099
0,-12,8.1
0,-23,8.101
-1,9,8.102
-2,116,8.103
-4,281,8.104
-6,401,8.105
-8,328,8.106
-5,30,8.107
-2,-303,8.108
0,-438,8.109
1,-344,8.11
1,-178,8.111
2,-59,8.112
2,13,8.113
1,43,8.114
3,2,8.115
10,-77,8.116
14,-99,8.117
13,-38,8.118
16,23,8.119
26,42,8.12
29,52,8.121
21,65,8.122
11,46,8.123
9,10,8.124
11,37,8.125
8,155,8.126
5,281,8.127
3,299,8.128
0,150,8.129
-7,-107,8.13
-11,-309,8.131
-8,-330,8.132
-4,-210,8.133
-5,-68,8.134
-9,11,8.135
-10,28,8.136
-10,-3,8.137
-9,-67,8.138
-4,-113,8.139
4,-64,8.14
13,80,8.141
17,260,8.142
15,419,8.143
9,487,8.144
3,351,8.145
0,-28,8.146
2,-468,8.147
6,-679,8.148
7,-556,8.149
4,-256,8.15
-1,18,8.151
-3,186,8.152
1,248,8.153
5,228,8.154
4,219,8.155
-3,303,8.156
-11,340,8.157
-11,94,8.158
-7,-369,8.159
-5,-641,8.16
-6,-511,8.161
-6,-246,8.162
-2,-147,8.163
2,-137,8.164
4,-18,8.165
7,137,8.166
10,159,8.167
14,107,8.168
15,126,8.169
16,190,8.17
19,209,8.171
21,218,8.172
24,251,8.173
22,218,8.174
17,62,8.175
6,-78,8.176
-8,-44,8.177
-16,110,8.178
-11,203,8.179
-2,150,8.18
-2,-6,8.181
-10,-193,8.182
-14,-327,8.183
-9,-330,8.184
-3,-218,8.185
-1,-82,8.186
1,32,8.187
4,138,8.188
6,216,8.189
4,212,8.19
1,177,8.191
4,267,8.192
9,503,8.193
12,675,8.194
9,440,8.195
0,-258,8.196
-5,-980,8.197
-4,-1189,8.198
1,-837,8.199
8,-356,8.2
7,-88,8.201
2,63,8.202
-1,307,8.203
0,543,8.204
2,501,8.205
7,154,8.206
11,-220,8.207
8,-368,8.208
2,-292,8.209
-3,-145,8.21
-1,-39,8.211
0,23,8.212
-1,66,8.213
-6,90,8.214
-10,106,8.215
-13,173,8.216
-15,328,8.217
-13,468,8.218
-2,401,8.219
11,112,8.22
17,-143,8.221
12,-120,8.222
8,84,8.223
7,167,8.224
10,18,8.225
11,-172,8.226
12,-220,8.227
14,-148,8.228
13,10,8.229
10,357,8.23
10,850,8.231
11,1084,8.232
10,718,8.233
0,-153,8.234
-13,-909,8.235
-20,-1172,8.236
-18,-1150,8.237
-14,-1116,8.238
-10,-985,8.239
-8,-607,8.24
-5,-172,8.241
2,67,8.242
8,244,8.243
9,714,8.244
6,1441,8.245
8,1838,8.246
15,1309,8.247
22,-39,8.248
27,-1326,8.249
28,-1702,8.25
29,-1191,8.251
25,-516,8.252
15,-166,8.253
-2,12,8.254
-17,207,8.255
-26,297,8.256
-24,188,8.257
-12,119,8.258
8,257,8.259
25,399,8.26
31,363,8.261
26,320,8.262
25,477,8.263
30,705,8.264
31,721,8.265
21,446,8.266
5,37,8.267
-4,-273,8.268
-8,-342,8.269
-16,-281,8.27
-27,-366,8.271
-37,-633,8.272
-41,-748,8.273
-40,-477,8.274
-35,-62,8.275
-24,120,8.276
-10,122,8.277
4,227,8.278
15,357,8.279
16,223,8.28
8,-96,8.281
-4,-231,8.282
-12,-124,8.283
-12,-60,8.284
-11,-132,8.285
-10,-139,8.286
-7,-18,8.287
3,52,8.288
20,14,8.289
31,67,8.29
24,395,8.291
6,934,8.292
-1,1367,8.293
12,1342,8.294
35,675,8.295
41,-292,8.296
32,-963,8.297
21,-1176,8.298
14,-1241,8.299
-1,-1263,8.3
-24,-988,8.301
-44,-440,8.302
-52,-67,8.303
-49,-45,8.304
-34,-31,8.305
-10,193,8.306
12,436,8.307
23,608,8.308
27,845,8.309
31,977,8.31
36,594,8.311
39,-171,8.312
42,-616,8.313
42,-441,8.314
38,-33,8.315
27,164,8.316
13,239,8.317
-1,394,8.318
-16,425,8.319
-23,54,8.32
-23,-515,8.321
-16,-791,8.322
-11,-573,8.323
-9,-20,8.324
-2,762,8.325
9,1714,8.326
21,2276,8.327
30,1465,8.328
36,-810,8.329
33,-2947,8.33
18,-3198,8.331
-6,-1824,8.332
-26,-645,8.333
-41,-413,8.334
-47,-397,8.335
-44,80,8.336
-32,523,8.337
-9,442,8.338
24,309,8.339
44,564,8.34
47,786,8.341
42,577,8.342
42,304,8.343
48,335,8.344
44,400,8.345
25,236,8.346
10,90,8.347
2,176,8.348
-6,263,8.349
-19,170,8.35
-31,62,8.351
-35,58,8.352
-35,48,8.353
-44,1,8.354
-60,30,8.355
-71,56,8.356
-69,-77,8.357
-61,-184,8.358
-34,31,8.359
-11,354,8.36
0,262,8.361
11,-209,8.362
24,-433,8.363
40,-134,8.364
64,206,8.365
85,100,8.366
97,-292,8.367
95,-520,8.368
52,-436,8.369
10,-170,8.37
-23,139,8.371
-47,334,8.372
-38,252,8.373
-25,-97,8.374
-12,-374,8.375
-20,-276,8.376
-35,117,8.377
-34,517,8.378
-8,727,8.379
17,671,8.38
14,324,8.381
-10,-182,8.382
-25,-565,8.383
-15,-642,8.384
12,-496,8.385
26,-301,8.386
18,-145,8.387
2,-88,8.388
0,-177,8.389
10,-293,8.39
13,-200,8.391
3,105,8.392
-2,302,8.393
1,173,8.394
4,-83,8.395
-1,-97,8.396
-5,152,8.397
3,385,8.398
21,466,8.399
35,509,8.4
42,513,8.401
43,297,8.402
36,-130,8.403
23,-441,8.404
12,-410,8.405
4,-226,8.406
-1,-170,8.407
-6,-218,8.408
-12,-166,8.409
-16,0,8.41
-18,95,8.411
-15,49,8.412
-7,-20,8.413
0,-21,8.414
3,19,8.415
0,82,8.416
-2,260,8.417
4,588,8.418
16,806,8.419
24,547,8.42
22,-192,8.421
9,-900,8.422
-6,-1029,8.423
-11,-581,8.424
-13,-2,8.425
-25,351,8.426
-40,385,8.427
-37,65,8.428
-11,-505,8.429
16,-859,8.43
27,-558,8.431
26,122,8.432
24,465,8.433
23,269,8.434
23,16,8.435
24,85,8.436
26,246,8.437
24,231,8.438
17,175,8.439
8,200,8.44
0,111,8.441
-12,-165,8.442
-25,-327,8.443
-36,-209,8.444
-43,-54,8.445
-42,-30,8.446
-38,69,8.447
-30,358,8.448
-24,563,8.449
-17,436,8.45
5,137,8.451
40,-50,8.452
69,-69,8.453
79,9,8.454
75,122,8.455
61,165,8.456
37,34,8.457
9,-178,8.458
-4,-285,8.459
-4,-281,8.46
-13,-288,8.461
-34,-262,8.462
-48,-61,8.463
-38,210,8.464
-22,267,8.465
-18,64,8.466
-20,-116,8.467
-16,-44,8.468
-2,197,8.469
10,368,8.47
19,319,8.471
29,60,8.472
33,-265,8.473
23,-522,8.474
8,-535,8.475
-6,-235,8.476
-19,231,8.477
-33,516,8.478
-37,311,8.479
-22,-253,8.48
1,-631,8.481
15,-441,8.482
20,65,8.483
33,356,8.484
47,290,8.485
44,149,8.486
25,99,8.487
2,13,8.488
-13,-164,8.489
-20,-246,8.49
-18,-112,8.491
-9,81,8.492
-2,128,8.493
-5,-10,8.494
-10,-261,8.495
-7,-633,8.496
-2,-1195,8.497
-9,-1820,8.498
-25,-1989,8.499
-37,-1103,8.5
-37,698,8.501
-31,2219,8.502
-24,2316,8.503
-29,1274,8.504
-45,430,8.505
-55,412,8.506
-33,573,8.507
25,352,8.508
85,144,8.509
114,390,8.51
112,735,8.511
100,730,8.512
91,584,8.513
87,572,8.514
89,475,8.515
81,36,8.516
31,-402,8.517
-57,-437,8.518
-125,-356,8.519
-124,-694,8.52
-72,-1355,8.521
-12,-1683,8.522
39,-1226,8.523
82,-176,8.524
104,721,8.525
98,632,8.526
79,-545,8.527
62,-1752,8.528
33,-1680,8.529
-14,-300,8.53
-56,1056,8.531
-61,1320,8.532
-44,821,8.533
-36,298,8.534
-43,-37,8.535
-45,-385,8.536
-31,-478,8.537
-15,176,8.538
-7,1167,8.539
-5,1360,8.54
-7,473,8.541
-12,-366,8.542
-17,-113,8.543
-14,821,8.544
-11,1289,8.545
-12,951,8.546
-9,416,8.547
-1,149,8.548
1,3,8.549
-6,-235,8.55
-12,-490,8.551
-6,-706,8.552
-3,-1018,8.553
-14,-1508,8.554
-28,-1852,8.555
-36,-1680,8.556
-39,-1046,8.557
-47,-331,8.558
-48,206,8.559
-35,602,8.56
-19,908,8.561
-12,1000,8.562
-2,746,8.563
23,244,8.564
49,-251,8.565
60,-473,8.566
62,-225,8.567
65,480,8.568
64,1174,8.569
52,1211,8.57
34,509,8.571
21,-267,8.572
10,-555,8.573
-7,-596,8.574
-15,-916,8.575
-5,-1438,8.576
17,-1498,8.577
30,-814,8.578
30,102,8.579
14,630,8.58
-18,675,8.581
-47,494,8.582
-50,329,8.583
-28,328,8.584
-10,469,8.585
-9,499,8.586
-10,308,8.587
1,257,8.588
19,615,8.589
25,919,8.59
17,642,8.591
1,215,8.592
-22,306,8.593
-68,556,8.594
-124,-56,8.595
-166,-1366,8.596
-159,-1882,8.597
-91,-925,8.598
11,393,8.599
102,866,8.6
147,669,8.601
163,571,8.602
174,688,8.603
186,710,8.604
181,629,8.605
156,581,8.606
125,416,8.607
92,-38,8.608
52,-571,8.609
12,-835,8.61
-8,-833,8.611
-8,-869,8.612
-14,-1047,8.613
-40,-1056,8.614
-68,-674,8.615
-90,-385,8.616
-90,-373,8.617
-89,-677,8.618
-90,-1932,8.619
-88,-2707,8.62
-78,-2041,8.621
-68,-905,8.622
-55,1640,8.623
-44,3499,8.624
-41,3290,8.625
-29,2966,8.626
5,2298,8.627
38,1625,8.628
65,943,8.629
81,329,8.63
60,-78,8.631
40,-492,8.632
25,-925,8.633
9,-1207,8.634
-8,-689,8.635
-19,-14,8.636
-22,119,8.637
-22,-91,8.638
-14,-129,8.639
0,-104,8.64
11,-335,8.641
13,-642,8.642
12,-874,8.643
6,-1427,8.644
-14,-2376,8.645
-37,-2808,8.646
-41,-1921,8.647
-24,-209,8.648
-12,1262,8.649
-16,2104,8.65
-20,2432,8.651
-3,2195,8.652
25,1526,8.653
47,838,8.654
57,426,8.655
55,-88,8.656
45,-891,8.657
28,-1324,8.658
14,-899,8.659
7,-213,8.66
-3,-73,8.661
-27,-331,8.662
-53,-304,8.663
-65,156,8.664
-86,656,8.665
-154,917,8.666
-261,918,8.667
-313,722,8.668
-217,498,8.669
-19,412,8.67
138,352,8.671
172,75,8.672
157,-334,8.673
184,-663,8.674
253,-862,8.675
301,-1093,8.676
295,-1268,8.677
248,-1071,8.678
175,-571,8.679
111,-347,8.68
88,-773,8.681
91,-1390,8.682
62,-1274,8.683
-9,-63,8.684
-73,1540,8.685
-118,2475,8.686
-182,2432,8.687
-249,1956,8.688
-244,1544,8.689
-142,1061,8.69
-19,167,8.691
48,-1057,8.692
58,-2049,8.693
31,-2307,8.694
-8,-1518,8.695
-40,-115,8.696
-46,779,8.697
-33,354,8.698
-9,-945,8.699
30,-1795,8.7
77,-1334,8.701
102,104,8.702
90,1513,8.703
71,2133,8.704
65,1889,8.705
51,1264,8.706
12,836,8.707
-35,814,8.708
-62,987,8.709
-67,1061,8.71
-58,913,8.711
-37,559,8.712
-18,101,8.713
-25,-398,8.714
-51,-797,8.715
-69,-1056,8.716
-64,-1159,8.717
-55,-1017,8.718
-56,-660,8.719
-52,-408,8.72
-36,-526,8.721
-24,-806,8.722
-25,-822,8.723
-27,-558,8.724
-7,-416,8.725
30,-581,8.726
51,-752,8.727
34,-624,8.728
-10,-243,8.729
-49,208,8.73
-59,649,8.731
-42,961,8.732
-7,922,8.733
47,405,8.734
109,-298,8.735
148,-681,8.736
144,-471,8.737
104,136,8.738
49,648,8.739
1,714,8.74
-29,388,8.741
-51,5,8.742
-77,-186,8.743
-95,-188,8.744
-85,-107,8.745
-72,0,8.746
-130,92,8.747
-262,105,8.748
-332,22,8.749
-208,-81,8.75
64,-109,8.751
293,-22,8.752
367,126,8.753
334,204,8.754
291,28,8.755
265,-380,8.756
247,-676,8.757
228,-515,8.758
189,-32,8.759
100,282,8.76
-2,208,8.761
-42,67,8.762
-23,218,8.763
-38,535,8.764
-139,606,8.765
-251,309,8.766
-275,-69,8.767
-220,-259,8.768
-160,-311,8.769
-126,-359,8.77
-89,-328,8.771
-44,-32,8.772
-19,444,8.773
-8,862,8.774
26,1008,8.775
71,943,8.776
63,795,8.777
-19,505,8.778
-82,-55,8.779
-32,-811,8.78
88,-1469,8.781
145,-1710,8.782
66,-1370,8.783
-77,-655,8.784
-165,-141,8.785
-130,-229,8.786
0,-529,8.787
136,-202,8.788
183,898,8.789
134,1941,8.79
64,2118,8.791
26,1472,8.792
-13,555,8.793
-92,-419,8.794
-131,-1137,8.795
-124,-1225,8.796
25,-704,8.797
102,-109,8.798
-40,214,8.799
-146,507,8.8
-136,960,8.801
-86,1248,8.802
84,1068,8.803
246,634,8.804
380,276,8.805
474,-6,8.806
440,-273,8.807
362,-400,8.808
152,-363,8.809
-67,-386,8.81
-313,-563,8.811
-442,-698,8.812
-220,-698,8.813
27,-774,8.814
215,-1110,8.815
112,-1564,8.816
-88,-1764,8.817
-177,-1404,8.818
-141,-480,8.819
-71,564,8.82
2,1091,8.821
77,920,8.822
117,552,8.823
90,522,8.824
30,746,8.825
-16,823,8.826
-52,697,8.827
-124,618,8.828
-279,647,8.829
-526,584,8.83
-771,354,8.831
-830,105,8.832
-627,-42,8.833
-233,-130,8.834
31,-193,8.835
290,-223,8.836
530,-237,8.837
738,-265,8.838
847,-300,8.839
876,-312,8.84
663,-316,8.841
450,-344,8.842
238,-412,8.843
47,-558,8.844
-80,-820,8.845
-174,-1098,8.846
-166,-1107,8.847
-141,-638,8.848
-70,164,8.849
-33,867,8.85
-98,1084,8.851
-169,739,8.852
-258,126,8.853
-354,-406,8.854
-471,-488,8.855
-526,-109,8.856
-381,388,8.857
-99,744,8.858
68,1022,8.859
-6,1327,8.86
-169,1467,8.861
-220,1172,8.862
-174,542,8.863
-166,-12,8.864
-189,-254,8.865
-101,-307,8.866
161,-361,8.867
499,-426,8.868
789,-421,8.869
968,-352,8.87
996,-309,8.871
818,-352,8.872
452,-480,8.873
-162,-731,8.874
-618,-1063,8.875
-679,-1281,8.876
-322,-1154,8.877
73,-839,8.878
67,40,8.879
-306,793,8.88
-593,1165,8.881
-529,1409,8.882
-289,1267,8.883
-111,1075,8.884
-11,736,8.885
63,423,8.886
92,189,8.887
84,-37,8.888
57,-238,8.889
-53,-440,8.89
-246,-642,8.891
-289,-770,8.892
-56,-670,8.893
257,-490,8.894
342,-22,8.895
274,368,8.896
321,472,8.897
414,335,8.898
310,141,8.899
104,3,8.9
99,-68,8.901
225,-67,8.902
115,10,8.903
-272,107,8.904
-552,114,8.905
-473,-12,8.906
-214,-206,8.907
-36,-370,8.908
47,-487,8.909
156,-567,8.91
291,-565,8.911
336,-411,8.912
265,-171,8.913
195,35,8.914
230,133,8.915
247,201,8.916
-2,307,8.917
-472,388,8.918
-738,363,8.919
-501,294,8.92
27,275,8.921
407,288,8.922
441,247,8.923
193,112,8.924
-217,-101,8.925
-587,-330,8.926
-643,-463,8.927
-347,-432,8.928
18,-307,8.929
256,-195,8.93
444,-75,8.931
587,144,8.932
503,407,8.933
151,580,8.934
-145,563,8.935
-168,406,8.936
-109,197,8.937
-169,-3,8.938
-217,-160,8.939
-95,-245,8.94
73,-245,8.941
121,-176,8.942
68,-101,8.943
-42,-122,8.944
-255,-263,8.945
-504,-379,8.946
-587,-306,8.947
-437,-81,8.948
-152,137,8.949
215,289,8.95
594,419,8.951
693,492,8.952
356,425,8.953
-130,226,8.954
-177,56,8.955
238,-2,8.956
503,-31,8.957
264,-111,8.958
-139,-198,8.959
-306,-217,8.96
-312,-181,8.961
-344,-154,8.962
-301,-157,8.963
-76,-164,8.964
156,-134,8.965
240,-51,8.966
300,45,8.967
432,84,8.968
446,48,8.969
203,-6,8.97
-80,-32,8.971
-127,-54,8.972
-4,-86,8.973
73,-94,8.974
54,-33,8.975
43,61,8.976
76,118,8.977
72,132,8.978
-28,133,8.979
-211,126,8.98
-386,95,8.981
-384,33,8.982
-119,-54,8.983
208,-137,8.984
272,-159,8.985
36,-84,8.986
-153,41,8.987
-19,131,8.988
275,163,8.989
300,165,8.99
-140,126,8.991
-750,18,8.992
-1032,-95,8.993
-801,-125,8.994
-303,-57,8.995
47,25,8.996
120,66,8.997
124,86,8.998
263,82,8.999
479,24,9.0
583,-38,9.001
512,-32,9.002
393,13,9.003
346,-2,9.004
330,-98,9.005
275,-213,9.006
249,-308,9.007
317,-371,9.008
281,-339,9.009
-85,-163,9.01
-586,69,9.011
-751,198,9.012
-510,183,9.013
-216,108,9.014
-117,64,9.015
-14,53,9.016
246,46,9.017
371,68,9.018
161,158,9.019
-59,309,9.02
43,427,9.021
235,400,9.022
139,223,9.023
-123,22,9.024
-221,-70,9.025
-198,-62,9.026
-272,-58,9.027
-354,-99,9.028
-226,-143,9.029
20,-164,9.03
161,-201,9.031
206,-258,9.032
252,-258,9.033
215,-146,9.034
8,11,9.035
-215,100,9.036
-243,96,9.037
-123,79,9.038
-10,93,9.039
57,98,9.04
56,55,9.041
-108,-7,9.042
-383,-30,9.043
-503,-11,9.044
-337,3,9.045
-83,-13,9.046
48,-43,9.047
112,-57,9.048
240,-48,9.049
389,-39,9.05
451,-43,9.051
428,-54,9.052
358,-53,9.053
209,-41,9.054
13,-34,9.055
-114,-45,9.056
-132,-68,9.057
-126,-75,9.058
-131,-55,9.059
-89,-20,9.06
-14,10,9.061
20,27,9.062
27,37,9.063
83,38,9.064
135,18,9.065
89,-14,9.066
8,-29,9.067
9,-10,9.068
17,14,9.069
-112,6,9.07
-310,-56,9.071
-389,-165,9.072
-356,-265,9.073
-331,-282,9.074
-250,-154,9.075
73,61,9.076
556,225,9.077
801,268,9.078
617,240,9.079
279,222,9.08
124,231,9.081
117,237,9.082
29,221,9.083
-146,183,9.084
-220,132,9.085
-167,80,9.086
-144,38,9.087
-217,-14,9.088
-282,-115,9.089
-288,-265,9.09
-261,-371,9.091
-170,-324,9.092
23,-137,9.093
241,87,9.094
301,211,9.095
191,206,9.096
81,131,9.097
39,47,9.098
-17,-20,9.099
-84,-38,9.1
-48,-5,9.101
77,-13,9.102
122,-153,9.103
36,-347,9.104
-46,-378,9.105
-61,-146,9.106
-109,186,9.107
-233,376,9.108
-291,354,9.109
-152,232,9.11
112,114,9.111
309,16,9.112
336,-42,9.113
215,-29,9.114
56,34,9.115
