Deltoid,Bicep,Time
-36.0,-25.0,0.0
-41.0,-25.0,0.001
-46.0,-24.0,0.002
-47.0,-18.0,0.003
-41.0,-13.0,0.004
-33.0,-5.0,0.005
-28.0,-1.0,0.006
-17.0,0.0,0.007
4.0,-1.0,0.008
23.0,-1.0,0.009
32.0,-2.0,0.01
39.0,-6.0,0.011
47.0,-9.0,0.012
54.0,-8.0,0.013
54.0,-5.0,0.014
50.0,-1.0,0.015
41.0,3.0,0.016
26.0,7.0,0.017
10.0,11.0,0.018
-10.0,16.0,0.019
-28.0,17.0,0.02
-40.0,8.0,0.021
-46.0,0.0,0.022
-32.0,0.0,0.023
-21.0,8.0,0.024
-15.0,12.0,0.025
-7.0,9.0,0.026
9.0,7.0,0.027
24.0,14.0,0.028
32.0,23.0,0.029
38.0,24.0,0.03
41.0,20.0,0.031
46.0,17.0,0.032
54.0,14.0,0.033
57.0,12.0,0.034
41.0,12.0,0.035
26.0,12.0,0.036
15.0,10.0,0.037
2.0,-1.0,0.038
-15.0,-8.0,0.039
-26.0,-2.0,0.04
-33.0,2.0,0.041
-39.0,2.0,0.042
-44.0,-3.0,0.043
-45.0,-6.0,0.044
-38.0,-6.0,0.045
-25.0,-8.0,0.046
-14.0,-12.0,0.047
-4.0,-15.0,0.048
1.0,-13.0,0.049
8.0,-10.0,0.05
12.0,-8.0,0.051
12.0,-9.0,0.052
8.0,-12.0,0.053
9.0,-13.0,0.054
16.0,-14.0,0.055
20.0,-17.0,0.056
19.0,-20.0,0.057
11.0,-23.0,0.058
4.0,-19.0,0.059
-1.0,-13.0,0.06
-13.0,-11.0,0.061
-27.0,-5.0,0.062
-27.0,2.0,0.063
-10.0,10.0,0.064
9.0,16.0,0.065
18.0,19.0,0.066
22.0,13.0,0.067
33.0,3.0,0.068
38.0,-2.0,0.069
27.0,-2.0,0.07
14.0,-2.0,0.071
15.0,-4.0,0.072
26.0,-8.0,0.073
30.0,-10.0,0.074
24.0,-10.0,0.075
16.0,-10.0,0.076
9.0,-8.0,0.077
-11.0,-3.0,0.078
-36.0,-2.0,0.079
-55.0,-6.0,0.08
-60.0,-11.0,0.081
-57.0,-9.0,0.082
-47.0,-5.0,0.083
-31.0,-3.0,0.084
-19.0,0.0,0.085
-16.0,6.0,0.086
-14.0,8.0,0.087
-3.0,6.0,0.088
9.0,4.0,0.089
12.0,9.0,0.09
9.0,13.0,0.091
12.0,12.0,0.092
18.0,10.0,0.093
21.0,10.0,0.094
23.0,13.0,0.095
23.0,18.0,0.096
14.0,21.0,0.097
-5.0,17.0,0.098
-18.0,12.0,0.099
-20.0,9.0,0.1
-17.0,2.0,0.101
-18.0,-3.0,0.102
-15.0,-3.0,0.103
-5.0,4.0,0.104
0.0,10.0,0.105
-2.0,4.0,0.106
3.0,-6.0,0.107
18.0,-9.0,0.108
30.0,-8.0,0.109
34.0,-6.0,0.11
39.0,-8.0,0.111
49.0,-10.0,0.112
55.0,-14.0,0.113
52.0,-18.0,0.114
46.0,-18.0,0.115
38.0,-13.0,0.116
23.0,-10.0,0.117
2.0,-12.0,0.118
-11.0,-15.0,0.119
-17.0,-13.0,0.12
-24.0,-14.0,0.121
-35.0,-15.0,0.122
-42.0,-15.0,0.123
-47.0,-9.0,0.124
-56.0,-2.0,0.125
-66.0,-1.0,0.126
-56.0,-6.0,0.127
-25.0,-8.0,0.128
10.0,-4.0,0.129
39.0,3.0,0.13
60.0,8.0,0.131
70.0,10.0,0.132
69.0,10.0,0.133
55.0,7.0,0.134
43.0,2.0,0.135
30.0,-2.0,0.136
14.0,-1.0,0.137
0.0,0.0,0.138
0.0,1.0,0.139
0.0,4.0,0.14
-15.0,1.0,0.141
-40.0,2.0,0.142
-47.0,9.0,0.143
-33.0,22.0,0.144
-25.0,28.0,0.145
-27.0,18.0,0.146
-18.0,1.0,0.147
6.0,-9.0,0.148
21.0,-6.0,0.149
12.0,2.0,0.15
1.0,7.0,0.151
11.0,8.0,0.152
24.0,9.0,0.153
26.0,8.0,0.154
23.0,2.0,0.155
28.0,-5.0,0.156
31.0,-4.0,0.157
20.0,0.0,0.158
3.0,2.0,0.159
-12.0,1.0,0.16
-24.0,-6.0,0.161
-34.0,-11.0,0.162
-32.0,-9.0,0.163
-22.0,3.0,0.164
-21.0,17.0,0.165
-26.0,20.0,0.166
-23.0,8.0,0.167
-9.0,-4.0,0.168
6.0,-6.0,0.169
14.0,-2.0,0.17
19.0,-3.0,0.171
24.0,-9.0,0.172
26.0,-13.0,0.173
33.0,-10.0,0.174
50.0,-8.0,0.175
61.0,-12.0,0.176
51.0,-17.0,0.177
25.0,-20.0,0.178
10.0,-15.0,0.179
6.0,-5.0,0.18
1.0,3.0,0.181
-9.0,7.0,0.182
-15.0,1.0,0.183
-10.0,-8.0,0.184
-3.0,-14.0,0.185
7.0,-13.0,0.186
16.0,-7.0,0.187
14.0,-2.0,0.188
0.0,0.0,0.189
-5.0,3.0,0.19
1.0,7.0,0.191
15.0,5.0,0.192
21.0,2.0,0.193
24.0,6.0,0.194
28.0,15.0,0.195
25.0,22.0,0.196
15.0,26.0,0.197
-2.0,26.0,0.198
-13.0,23.0,0.199
-23.0,13.0,0.2
-37.0,1.0,0.201
-47.0,0.0,0.202
-37.0,8.0,0.203
-15.0,16.0,0.204
-3.0,17.0,0.205
-13.0,17.0,0.206
-23.0,16.0,0.207
-16.0,15.0,0.208
-3.0,13.0,0.209
4.0,10.0,0.21
14.0,3.0,0.211
30.0,-3.0,0.212
40.0,-5.0,0.213
31.0,2.0,0.214
12.0,8.0,0.215
1.0,1.0,0.216
-2.0,-7.0,0.217
-17.0,-12.0,0.218
-33.0,-13.0,0.219
-46.0,-16.0,0.22
-54.0,-21.0,0.221
-63.0,-18.0,0.222
-64.0,-12.0,0.223
-45.0,-9.0,0.224
-17.0,-7.0,0.225
6.0,-4.0,0.226
26.0,-4.0,0.227
45.0,-7.0,0.228
57.0,-8.0,0.229
55.0,1.0,0.23
54.0,12.0,0.231
61.0,17.0,0.232
65.0,14.0,0.233
53.0,6.0,0.234
35.0,0.0,0.235
20.0,-2.0,0.236
8.0,-1.0,0.237
-10.0,-6.0,0.238
-25.0,-17.0,0.239
-37.0,-27.0,0.24
-47.0,-30.0,0.241
-55.0,-26.0,0.242
-49.0,-21.0,0.243
-33.0,-19.0,0.244
-17.0,-13.0,0.245
-6.0,-7.0,0.246
5.0,-7.0,0.247
19.0,-10.0,0.248
25.0,-13.0,0.249
21.0,-11.0,0.25
22.0,-10.0,0.251
31.0,-8.0,0.252
40.0,-2.0,0.253
40.0,2.0,0.254
31.0,3.0,0.255
17.0,0.0,0.256
-6.0,-2.0,0.257
-33.0,-6.0,0.258
-67.0,-7.0,0.259
-85.0,-7.0,0.26
-80.0,-8.0,0.261
-56.0,-9.0,0.262
-24.0,-11.0,0.263
9.0,-9.0,0.264
35.0,-3.0,0.265
40.0,6.0,0.266
30.0,16.0,0.267
26.0,23.0,0.268
43.0,26.0,0.269
70.0,20.0,0.27
87.0,11.0,0.271
90.0,7.0,0.272
84.0,11.0,0.273
71.0,14.0,0.274
50.0,13.0,0.275
26.0,13.0,0.276
4.0,14.0,0.277
-19.0,8.0,0.278
-38.0,-1.0,0.279
-48.0,-4.0,0.28
-48.0,-3.0,0.281
-49.0,0.0,0.282
-51.0,2.0,0.283
-49.0,5.0,0.284
-41.0,7.0,0.285
-35.0,4.0,0.286
-28.0,-3.0,0.287
-15.0,-6.0,0.288
1.0,1.0,0.289
14.0,10.0,0.29
20.0,14.0,0.291
28.0,15.0,0.292
35.0,15.0,0.293
31.0,14.0,0.294
17.0,8.0,0.295
0.0,1.0,0.296
-12.0,-1.0,0.297
-19.0,2.0,0.298
-11.0,4.0,0.299
1.0,1.0,0.3
5.0,-7.0,0.301
-7.0,-11.0,0.302
-20.0,-10.0,0.303
-21.0,-4.0,0.304
-15.0,2.0,0.305
-9.0,6.0,0.306
0.0,3.0,0.307
18.0,-3.0,0.308
31.0,-6.0,0.309
29.0,-1.0,0.31
21.0,2.0,0.311
17.0,-6.0,0.312
15.0,-20.0,0.313
13.0,-29.0,0.314
13.0,-29.0,0.315
18.0,-23.0,0.316
18.0,-21.0,0.317
4.0,-25.0,0.318
-9.0,-25.0,0.319
-15.0,-21.0,0.32
-20.0,-19.0,0.321
-26.0,-18.0,0.322
-24.0,-17.0,0.323
-6.0,-14.0,0.324
15.0,-10.0,0.325
27.0,-6.0,0.326
33.0,-5.0,0.327
30.0,-4.0,0.328
19.0,-4.0,0.329
4.0,-4.0,0.33
-2.0,-2.0,0.331
6.0,2.0,0.332
19.0,9.0,0.333
28.0,12.0,0.334
32.0,11.0,0.335
30.0,12.0,0.336
23.0,18.0,0.337
2.0,19.0,0.338
-20.0,13.0,0.339
-41.0,5.0,0.34
-56.0,2.0,0.341
-62.0,6.0,0.342
-51.0,6.0,0.343
-30.0,4.0,0.344
-14.0,9.0,0.345
-9.0,18.0,0.346
0.0,23.0,0.347
30.0,23.0,0.348
64.0,27.0,0.349
79.0,31.0,0.35
74.0,24.0,0.351
73.0,7.0,0.352
77.0,-1.0,0.353
65.0,4.0,0.354
31.0,9.0,0.355
-3.0,5.0,0.356
-19.0,5.0,0.357
-31.0,5.0,0.358
-46.0,0.0,0.359
-53.0,-12.0,0.36
-43.0,-19.0,0.361
-25.0,-11.0,0.362
-24.0,0.0,0.363
-29.0,10.0,0.364
-26.0,17.0,0.365
-18.0,25.0,0.366
-5.0,19.0,0.367
12.0,7.0,0.368
25.0,-1.0,0.369
26.0,-1.0,0.37
9.0,-5.0,0.371
-11.0,-19.0,0.372
-18.0,-28.0,0.373
-17.0,-29.0,0.374
-12.0,-30.0,0.375
-2.0,-31.0,0.376
15.0,-28.0,0.377
33.0,-19.0,0.378
51.0,-10.0,0.379
48.0,-8.0,0.38
24.0,-8.0,0.381
-9.0,-1.0,0.382
-32.0,6.0,0.383
-40.0,7.0,0.384
-39.0,3.0,0.385
-29.0,-2.0,0.386
-4.0,-6.0,0.387
24.0,-7.0,0.388
32.0,-3.0,0.389
17.0,4.0,0.39
3.0,3.0,0.391
8.0,-3.0,0.392
21.0,-7.0,0.393
30.0,-7.0,0.394
39.0,-8.0,0.395
43.0,-9.0,0.396
33.0,-4.0,0.397
0.0,5.0,0.398
-25.0,9.0,0.399
-40.0,5.0,0.4
-51.0,-4.0,0.401
-53.0,-8.0,0.402
-43.0,-7.0,0.403
-34.0,-2.0,0.404
-35.0,1.0,0.405
-37.0,2.0,0.406
-24.0,0.0,0.407
-5.0,-1.0,0.408
2.0,2.0,0.409
1.0,7.0,0.41
5.0,12.0,0.411
13.0,14.0,0.412
19.0,13.0,0.413
21.0,10.0,0.414
19.0,12.0,0.415
6.0,16.0,0.416
-9.0,16.0,0.417
-19.0,6.0,0.418
-14.0,-3.0,0.419
-10.0,-6.0,0.42
-15.0,-5.0,0.421
-16.0,-4.0,0.422
-3.0,-6.0,0.423
11.0,-7.0,0.424
12.0,-6.0,0.425
15.0,-6.0,0.426
30.0,-6.0,0.427
50.0,-7.0,0.428
55.0,-8.0,0.429
49.0,-11.0,0.43
48.0,-13.0,0.431
56.0,-13.0,0.432
61.0,-12.0,0.433
57.0,-12.0,0.434
48.0,-12.0,0.435
32.0,-12.0,0.436
14.0,-11.0,0.437
-9.0,-15.0,0.438
-27.0,-17.0,0.439
-41.0,-14.0,0.44
-49.0,-11.0,0.441
-49.0,-10.0,0.442
-41.0,-11.0,0.443
-29.0,-8.0,0.444
-22.0,-2.0,0.445
-18.0,0.0,0.446
-5.0,-4.0,0.447
11.0,-3.0,0.448
21.0,6.0,0.449
19.0,18.0,0.45
13.0,24.0,0.451
16.0,22.0,0.452
23.0,20.0,0.453
21.0,19.0,0.454
7.0,16.0,0.455
-4.0,14.0,0.456
-2.0,14.0,0.457
5.0,11.0,0.458
3.0,8.0,0.459
-10.0,5.0,0.46
-16.0,4.0,0.461
-6.0,7.0,0.462
8.0,9.0,0.463
8.0,9.0,0.464
-2.0,9.0,0.465
-8.0,7.0,0.466
-1.0,2.0,0.467
4.0,0.0,0.468
-1.0,0.0,0.469
-5.0,-3.0,0.47
2.0,-10.0,0.471
24.0,-15.0,0.472
40.0,-11.0,0.473
42.0,-5.0,0.474
29.0,-3.0,0.475
3.0,-5.0,0.476
-26.0,-2.0,0.477
-52.0,4.0,0.478
-65.0,6.0,0.479
-69.0,6.0,0.48
-67.0,4.0,0.481
-61.0,5.0,0.482
-44.0,4.0,0.483
-18.0,3.0,0.484
5.0,7.0,0.485
26.0,15.0,0.486
47.0,19.0,0.487
65.0,16.0,0.488
73.0,11.0,0.489
71.0,5.0,0.49
68.0,-5.0,0.491
72.0,-16.0,0.492
74.0,-22.0,0.493
64.0,-23.0,0.494
44.0,-19.0,0.495
25.0,-15.0,0.496
15.0,-12.0,0.497
3.0,-9.0,0.498
-11.0,-6.0,0.499
-29.0,-2.0,0.5
-45.0,0.0,0.501
-52.0,-1.0,0.502
-43.0,-3.0,0.503
-24.0,-2.0,0.504
-10.0,1.0,0.505
-4.0,6.0,0.506
0.0,7.0,0.507
8.0,4.0,0.508
11.0,-5.0,0.509
0.0,-13.0,0.51
-9.0,-18.0,0.511
5.0,-16.0,0.512
38.0,-15.0,0.513
68.0,-19.0,0.514
78.0,-24.0,0.515
65.0,-23.0,0.516
43.0,-22.0,0.517
14.0,-21.0,0.518
-14.0,-14.0,0.519
-41.0,-4.0,0.52
-63.0,3.0,0.521
-70.0,2.0,0.522
-51.0,-4.0,0.523
-18.0,-3.0,0.524
2.0,7.0,0.525
4.0,19.0,0.526
4.0,26.0,0.527
16.0,28.0,0.528
25.0,24.0,0.529
26.0,16.0,0.53
26.0,8.0,0.531
34.0,6.0,0.532
41.0,9.0,0.533
35.0,8.0,0.534
16.0,1.0,0.535
-5.0,-9.0,0.536
-18.0,-12.0,0.537
-26.0,-10.0,0.538
-33.0,-7.0,0.539
-49.0,-9.0,0.54
-68.0,-15.0,0.541
-79.0,-17.0,0.542
-75.0,-15.0,0.543
-67.0,-11.0,0.544
-69.0,-5.0,0.545
-62.0,0.0,0.546
-26.0,3.0,0.547
27.0,3.0,0.548
68.0,3.0,0.549
84.0,9.0,0.55
91.0,16.0,0.551
94.0,22.0,0.552
80.0,22.0,0.553
49.0,18.0,0.554
22.0,14.0,0.555
8.0,11.0,0.556
0.0,10.0,0.557
-22.0,6.0,0.558
-42.0,2.0,0.559
-47.0,1.0,0.56
-46.0,2.0,0.561
-55.0,9.0,0.562
-71.0,14.0,0.563
-72.0,19.0,0.564
-51.0,23.0,0.565
-22.0,21.0,0.566
-2.0,10.0,0.567
14.0,-2.0,0.568
39.0,-5.0,0.569
70.0,-4.0,0.57
86.0,-5.0,0.571
77.0,-8.0,0.572
60.0,-12.0,0.573
51.0,-13.0,0.574
50.0,-10.0,0.575
41.0,-7.0,0.576
24.0,-7.0,0.577
6.0,-13.0,0.578
-3.0,-11.0,0.579
-9.0,-1.0,0.58
-23.0,4.0,0.581
-43.0,-1.0,0.582
-57.0,-10.0,0.583
-59.0,-7.0,0.584
-53.0,0.0,0.585
-41.0,-3.0,0.586
-19.0,-15.0,0.587
9.0,-16.0,0.588
30.0,-1.0,0.589
36.0,10.0,0.59
42.0,0.0,0.591
59.0,-15.0,0.592
73.0,-12.0,0.593
64.0,0.0,0.594
36.0,-2.0,0.595
11.0,-22.0,0.596
-3.0,-31.0,0.597
-17.0,-22.0,0.598
-31.0,-12.0,0.599
-36.0,-22.0,0.6
-33.0,-43.0,0.601
-36.0,-45.0,0.602
-42.0,-29.0,0.603
-44.0,-13.0,0.604
-36.0,-7.0,0.605
-25.0,0.0,0.606
-11.0,10.0,0.607
12.0,16.0,0.608
36.0,17.0,0.609
46.0,19.0,0.61
47.0,25.0,0.611
50.0,27.0,0.612
47.0,27.0,0.613
29.0,28.0,0.614
-2.0,28.0,0.615
-21.0,19.0,0.616
-27.0,12.0,0.617
-34.0,10.0,0.618
-39.0,12.0,0.619
-33.0,12.0,0.62
-13.0,9.0,0.621
0.0,13.0,0.622
-5.0,18.0,0.623
-18.0,14.0,0.624
-19.0,3.0,0.625
-4.0,-2.0,0.626
14.0,-7.0,0.627
29.0,-16.0,0.628
41.0,-23.0,0.629
46.0,-13.0,0.63
41.0,3.0,0.631
29.0,11.0,0.632
16.0,4.0,0.633
9.0,-5.0,0.634
7.0,-13.0,0.635
7.0,-20.0,0.636
2.0,-22.0,0.637
-5.0,-18.0,0.638
-17.0,-13.0,0.639
-31.0,-12.0,0.64
-45.0,-14.0,0.641
-48.0,-16.0,0.642
-32.0,-18.0,0.643
-9.0,-20.0,0.644
5.0,-15.0,0.645
5.0,-2.0,0.646
6.0,6.0,0.647
14.0,8.0,0.648
22.0,12.0,0.649
29.0,18.0,0.65
42.0,16.0,0.651
58.0,6.0,0.652
59.0,0.0,0.653
40.0,6.0,0.654
14.0,14.0,0.655
-5.0,10.0,0.656
-15.0,2.0,0.657
-21.0,-2.0,0.658
-21.0,1.0,0.659
-19.0,5.0,0.66
-21.0,7.0,0.661
-28.0,13.0,0.662
-38.0,20.0,0.663
-43.0,16.0,0.664
-36.0,6.0,0.665
-20.0,1.0,0.666
-2.0,4.0,0.667
5.0,5.0,0.668
4.0,0.0,0.669
10.0,-3.0,0.67
30.0,-2.0,0.671
54.0,2.0,0.672
66.0,0.0,0.673
66.0,-2.0,0.674
58.0,-2.0,0.675
43.0,0.0,0.676
19.0,-2.0,0.677
-11.0,-6.0,0.678
-30.0,-6.0,0.679
-38.0,-4.0,0.68
-38.0,-5.0,0.681
-39.0,-6.0,0.682
-38.0,-2.0,0.683
-28.0,2.0,0.684
-16.0,5.0,0.685
-2.0,8.0,0.686
10.0,10.0,0.687
21.0,12.0,0.688
29.0,12.0,0.689
35.0,12.0,0.69
39.0,9.0,0.691
44.0,7.0,0.692
42.0,7.0,0.693
32.0,5.0,0.694
20.0,-3.0,0.695
6.0,-13.0,0.696
-7.0,-16.0,0.697
-24.0,-15.0,0.698
-36.0,-14.0,0.699
-42.0,-18.0,0.7
-50.0,-25.0,0.701
-54.0,-24.0,0.702
-43.0,-19.0,0.703
-20.0,-16.0,0.704
0.0,-15.0,0.705
8.0,-11.0,0.706
13.0,-6.0,0.707
24.0,-4.0,0.708
33.0,-3.0,0.709
36.0,1.0,0.71
39.0,7.0,0.711
46.0,7.0,0.712
49.0,2.0,0.713
41.0,3.0,0.714
28.0,11.0,0.715
15.0,17.0,0.716
0.0,17.0,0.717
-20.0,7.0,0.718
-37.0,0.0,0.719
-46.0,-2.0,0.72
-46.0,-5.0,0.721
-48.0,-8.0,0.722
-49.0,-10.0,0.723
-45.0,-4.0,0.724
-38.0,6.0,0.725
-24.0,15.0,0.726
-8.0,14.0,0.727
6.0,0.0,0.728
16.0,-13.0,0.729
23.0,-21.0,0.73
39.0,-18.0,0.731
56.0,-11.0,0.732
60.0,-4.0,0.733
52.0,6.0,0.734
46.0,17.0,0.735
45.0,23.0,0.736
38.0,20.0,0.737
17.0,6.0,0.738
-6.0,-3.0,0.739
-20.0,-7.0,0.74
-25.0,-11.0,0.741
-28.0,-14.0,0.742
-24.0,-15.0,0.743
-16.0,-10.0,0.744
-7.0,-6.0,0.745
-1.0,-6.0,0.746
7.0,-8.0,0.747
18.0,-7.0,0.748
27.0,2.0,0.749
31.0,10.0,0.75
37.0,10.0,0.751
42.0,8.0,0.752
34.0,6.0,0.753
11.0,7.0,0.754
-11.0,8.0,0.755
-20.0,7.0,0.756
-22.0,9.0,0.757
-29.0,10.0,0.758
-37.0,7.0,0.759
-38.0,3.0,0.76
-30.0,2.0,0.761
-26.0,7.0,0.762
-30.0,9.0,0.763
-30.0,0.0,0.764
-17.0,-11.0,0.765
9.0,-17.0,0.766
36.0,-15.0,0.767
54.0,-14.0,0.768
61.0,-11.0,0.769
64.0,-5.0,0.77
63.0,4.0,0.771
57.0,7.0,0.772
48.0,3.0,0.773
42.0,-4.0,0.774
36.0,-2.0,0.775
21.0,6.0,0.776
-1.0,11.0,0.777
-27.0,2.0,0.778
-43.0,-13.0,0.779
-53.0,-20.0,0.78
-58.0,-15.0,0.781
-53.0,-6.0,0.782
-37.0,0.0,0.783
-22.0,0.0,0.784
-20.0,1.0,0.785
-14.0,4.0,0.786
0.0,0.0,0.787
15.0,-10.0,0.788
21.0,-18.0,0.789
30.0,-15.0,0.79
47.0,-8.0,0.791
59.0,0.0,0.792
51.0,2.0,0.793
29.0,5.0,0.794
8.0,9.0,0.795
-8.0,12.0,0.796
-23.0,14.0,0.797
-38.0,8.0,0.798
-45.0,0.0,0.799
-46.0,-6.0,0.8
-45.0,-11.0,0.801
-45.0,-9.0,0.802
-40.0,0.0,0.803
-34.0,11.0,0.804
-30.0,17.0,0.805
-23.0,17.0,0.806
-3.0,14.0,0.807
26.0,10.0,0.808
50.0,7.0,0.809
60.0,4.0,0.81
63.0,2.0,0.811
61.0,1.0,0.812
52.0,0.0,0.813
37.0,-3.0,0.814
19.0,-8.0,0.815
4.0,-13.0,0.816
-7.0,-13.0,0.817
-19.0,-11.0,0.818
-33.0,-9.0,0.819
-40.0,-8.0,0.82
-33.0,-8.0,0.821
-18.0,-2.0,0.822
-9.0,2.0,0.823
-11.0,0.0,0.824
-13.0,-1.0,0.825
-3.0,3.0,0.826
11.0,7.0,0.827
26.0,4.0,0.828
46.0,2.0,0.829
64.0,10.0,0.83
68.0,21.0,0.831
60.0,21.0,0.832
48.0,9.0,0.833
34.0,-3.0,0.834
13.0,-4.0,0.835
-10.0,-4.0,0.836
-19.0,-6.0,0.837
-19.0,-12.0,0.838
-23.0,-15.0,0.839
-30.0,-11.0,0.84
-30.0,-8.0,0.841
-25.0,-3.0,0.842
-28.0,-1.0,0.843
-34.0,-3.0,0.844
-30.0,-6.0,0.845
-15.0,-5.0,0.846
-2.0,-4.0,0.847
6.0,-5.0,0.848
12.0,-11.0,0.849
14.0,-14.0,0.85
5.0,-12.0,0.851
-4.0,-11.0,0.852
-3.0,-8.0,0.853
3.0,-4.0,0.854
2.0,2.0,0.855
-11.0,5.0,0.856
-25.0,9.0,0.857
-41.0,11.0,0.858
-52.0,12.0,0.859
-59.0,8.0,0.86
-60.0,-1.0,0.861
-53.0,-2.0,0.862
-29.0,5.0,0.863
10.0,11.0,0.864
42.0,17.0,0.865
49.0,27.0,0.866
47.0,35.0,0.867
54.0,33.0,0.868
65.0,29.0,0.869
58.0,29.0,0.87
36.0,25.0,0.871
27.0,6.0,0.872
35.0,-15.0,0.873
39.0,-21.0,0.874
30.0,-18.0,0.875
25.0,-21.0,0.876
29.0,-31.0,0.877
18.0,-35.0,0.878
-11.0,-30.0,0.879
-39.0,-24.0,0.88
-46.0,-27.0,0.881
-45.0,-27.0,0.882
-40.0,-20.0,0.883
-28.0,-13.0,0.884
-6.0,-11.0,0.885
11.0,-8.0,0.886
16.0,-6.0,0.887
19.0,-8.0,0.888
27.0,-11.0,0.889
31.0,-10.0,0.89
27.0,-6.0,0.891
25.0,-2.0,0.892
31.0,0.0,0.893
30.0,-2.0,0.894
13.0,-8.0,0.895
-10.0,-16.0,0.896
-24.0,-16.0,0.897
-34.0,-8.0,0.898
-38.0,4.0,0.899
-41.0,10.0,0.9
-43.0,7.0,0.901
-44.0,7.0,0.902
-41.0,12.0,0.903
-26.0,22.0,0.904
-12.0,29.0,0.905
0.0,28.0,0.906
19.0,18.0,0.907
44.0,10.0,0.908
62.0,9.0,0.909
65.0,10.0,0.91
58.0,6.0,0.911
52.0,-2.0,0.912
46.0,-1.0,0.913
33.0,6.0,0.914
19.0,10.0,0.915
10.0,6.0,0.916
8.0,3.0,0.917
1.0,5.0,0.918
-13.0,12.0,0.919
-26.0,14.0,0.92
-30.0,9.0,0.921
-28.0,7.0,0.922
-28.0,9.0,0.923
-31.0,13.0,0.924
-26.0,13.0,0.925
-11.0,9.0,0.926
9.0,3.0,0.927
22.0,-1.0,0.928
25.0,-3.0,0.929
22.0,-4.0,0.93
22.0,-2.0,0.931
24.0,-2.0,0.932
20.0,-5.0,0.933
9.0,-11.0,0.934
-5.0,-16.0,0.935
-18.0,-16.0,0.936
-27.0,-13.0,0.937
-36.0,-15.0,0.938
-43.0,-18.0,0.939
-48.0,-18.0,0.94
-53.0,-17.0,0.941
-57.0,-15.0,0.942
-53.0,-15.0,0.943
-39.0,-13.0,0.944
-21.0,-8.0,0.945
-1.0,-2.0,0.946
20.0,0.0,0.947
40.0,-1.0,0.948
53.0,0.0,0.949
57.0,8.0,0.95
55.0,17.0,0.951
53.0,20.0,0.952
56.0,12.0,0.953
60.0,6.0,0.954
57.0,4.0,0.955
42.0,6.0,0.956
23.0,6.0,0.957
5.0,5.0,0.958
-5.0,8.0,0.959
-12.0,9.0,0.96
-21.0,1.0,0.961
-29.0,-6.0,0.962
-28.0,-9.0,0.963
-15.0,-10.0,0.964
2.0,-12.0,0.965
13.0,-11.0,0.966
16.0,-5.0,0.967
17.0,-2.0,0.968
20.0,-7.0,0.969
28.0,-10.0,0.97
43.0,-3.0,0.971
56.0,6.0,0.972
58.0,7.0,0.973
47.0,2.0,0.974
30.0,0.0,0.975
15.0,1.0,0.976
-1.0,3.0,0.977
-20.0,-1.0,0.978
-35.0,-5.0,0.979
-49.0,-4.0,0.98
-63.0,-7.0,0.981
-68.0,-9.0,0.982
-57.0,-8.0,0.983
-33.0,-3.0,0.984
-12.0,3.0,0.985
-3.0,5.0,0.986
2.0,3.0,0.987
10.0,4.0,0.988
7.0,7.0,0.989
-12.0,10.0,0.99
-31.0,10.0,0.991
-29.0,8.0,0.992
-3.0,5.0,0.993
30.0,1.0,0.994
49.0,-1.0,0.995
53.0,-4.0,0.996
54.0,-2.0,0.997
56.0,1.0,0.998
53.0,2.0,0.999
34.0,4.0,1.0
5.0,4.0,1.001
-14.0,5.0,1.002
-16.0,2.0,1.003
-17.0,-2.0,1.004
-26.0,-4.0,1.005
-32.0,-4.0,1.006
-25.0,-12.0,1.007
-15.0,-22.0,1.008
-15.0,-22.0,1.009
-21.0,-13.0,1.01
-13.0,-7.0,1.011
6.0,-7.0,1.012
22.0,-6.0,1.013
30.0,-1.0,1.014
33.0,5.0,1.015
26.0,8.0,1.016
9.0,14.0,1.017
-14.0,14.0,1.018
-27.0,8.0,1.019
-35.0,-1.0,1.02
-50.0,-3.0,1.021
-64.0,6.0,1.022
-58.0,9.0,1.023
-35.0,7.0,1.024
-12.0,9.0,1.025
0.0,13.0,1.026
10.0,8.0,1.027
19.0,-3.0,1.028
22.0,-3.0,1.029
17.0,3.0,1.03
15.0,-3.0,1.031
24.0,-18.0,1.032
47.0,-28.0,1.033
71.0,-16.0,1.034
80.0,-3.0,1.035
66.0,-1.0,1.036
40.0,-3.0,1.037
9.0,-3.0,1.038
-20.0,0.0,1.039
-52.0,-4.0,1.04
-80.0,-13.0,1.041
-90.0,-16.0,1.042
-73.0,-14.0,1.043
-41.0,-12.0,1.044
-13.0,-11.0,1.045
12.0,-3.0,1.046
40.0,5.0,1.047
61.0,9.0,1.048
65.0,9.0,1.049
54.0,13.0,1.05
43.0,20.0,1.051
40.0,21.0,1.052
36.0,12.0,1.053
25.0,0.0,1.054
12.0,-7.0,1.055
0.0,-8.0,1.056
-4.0,-4.0,1.057
-7.0,2.0,1.058
-16.0,8.0,1.059
-32.0,8.0,1.06
-49.0,-2.0,1.061
-54.0,-9.0,1.062
-42.0,-8.0,1.063
-23.0,0.0,1.064
-10.0,5.0,1.065
-3.0,5.0,1.066
3.0,4.0,1.067
10.0,4.0,1.068
11.0,4.0,1.069
9.0,0.0,1.07
12.0,-6.0,1.071
27.0,-8.0,1.072
42.0,-9.0,1.073
41.0,-10.0,1.074
22.0,-10.0,1.075
-3.0,-9.0,1.076
-13.0,-7.0,1.077
-9.0,-8.0,1.078
-4.0,-9.0,1.079
-12.0,-8.0,1.08
-26.0,-7.0,1.081
-27.0,-1.0,1.082
-15.0,11.0,1.083
-6.0,17.0,1.084
-9.0,13.0,1.085
-7.0,5.0,1.086
8.0,3.0,1.087
23.0,7.0,1.088
23.0,8.0,1.089
19.0,6.0,1.09
22.0,5.0,1.091
33.0,6.0,1.092
35.0,8.0,1.093
24.0,4.0,1.094
7.0,-1.0,1.095
-6.0,-5.0,1.096
-14.0,-7.0,1.097
-21.0,-8.0,1.098
-26.0,-6.0,1.099
-35.0,-5.0,1.1
-44.0,-9.0,1.101
-50.0,-11.0,1.102
-41.0,-9.0,1.103
-25.0,-5.0,1.104
-8.0,-1.0,1.105
2.0,4.0,1.106
14.0,6.0,1.107
26.0,4.0,1.108
32.0,0.0,1.109
32.0,-1.0,1.11
39.0,0.0,1.111
60.0,-3.0,1.112
78.0,-7.0,1.113
76.0,-4.0,1.114
58.0,1.0,1.115
41.0,4.0,1.116
25.0,1.0,1.117
4.0,-6.0,1.118
-15.0,-10.0,1.119
-24.0,-10.0,1.12
-26.0,-12.0,1.121
-29.0,-11.0,1.122
-26.0,-6.0,1.123
-15.0,4.0,1.124
1.0,12.0,1.125
15.0,15.0,1.126
24.0,9.0,1.127
32.0,3.0,1.128
36.0,2.0,1.129
33.0,6.0,1.13
32.0,7.0,1.131
35.0,7.0,1.132
33.0,9.0,1.133
22.0,10.0,1.134
8.0,5.0,1.135
-5.0,-4.0,1.136
-18.0,-8.0,1.137
-33.0,-7.0,1.138
-40.0,-7.0,1.139
-37.0,-12.0,1.14
-36.0,-15.0,1.141
-39.0,-10.0,1.142
-38.0,-4.0,1.143
-28.0,1.0,1.144
-24.0,7.0,1.145
-27.0,11.0,1.146
-26.0,9.0,1.147
-15.0,6.0,1.148
-1.0,9.0,1.149
6.0,13.0,1.15
16.0,11.0,1.151
31.0,4.0,1.152
44.0,1.0,1.153
43.0,0.0,1.154
30.0,-5.0,1.155
15.0,-10.0,1.156
1.0,-4.0,1.157
-11.0,6.0,1.158
-17.0,10.0,1.159
-23.0,3.0,1.16
-33.0,-5.0,1.161
-37.0,-5.0,1.162
-25.0,-3.0,1.163
0.0,-9.0,1.164
17.0,-12.0,1.165
16.0,-10.0,1.166
17.0,-9.0,1.167
32.0,-13.0,1.168
48.0,-12.0,1.169
48.0,-2.0,1.17
43.0,7.0,1.171
48.0,3.0,1.172
56.0,-6.0,1.173
47.0,-10.0,1.174
22.0,-11.0,1.175
0.0,-9.0,1.176
-10.0,-7.0,1.177
-21.0,-7.0,1.178
-39.0,-7.0,1.179
-59.0,-11.0,1.18
-78.0,-15.0,1.181
-97.0,-12.0,1.182
-101.0,-7.0,1.183
-72.0,0.0,1.184
-18.0,10.0,1.185
34.0,18.0,1.186
65.0,20.0,1.187
80.0,18.0,1.188
87.0,19.0,1.189
81.0,22.0,1.19
54.0,19.0,1.191
28.0,9.0,1.192
20.0,2.0,1.193
19.0,-1.0,1.194
5.0,-8.0,1.195
-19.0,-16.0,1.196
-29.0,-17.0,1.197
-30.0,-11.0,1.198
-35.0,-5.0,1.199
-50.0,-5.0,1.2
-59.0,-10.0,1.201
-55.0,-10.0,1.202
-48.0,-2.0,1.203
-43.0,8.0,1.204
-36.0,16.0,1.205
-26.0,20.0,1.206
-22.0,17.0,1.207
-20.0,12.0,1.208
-13.0,9.0,1.209
-1.0,8.0,1.21
8.0,6.0,1.211
12.0,-3.0,1.212
17.0,-13.0,1.213
25.0,-17.0,1.214
37.0,-12.0,1.215
45.0,-4.0,1.216
49.0,4.0,1.217
46.0,5.0,1.218
39.0,6.0,1.219
27.0,7.0,1.22
5.0,5.0,1.221
-22.0,-1.0,1.222
-35.0,-8.0,1.223
-24.0,-11.0,1.224
-5.0,-3.0,1.225
3.0,4.0,1.226
8.0,3.0,1.227
23.0,-4.0,1.228
46.0,-7.0,1.229
58.0,-6.0,1.23
56.0,-8.0,1.231
53.0,-14.0,1.232
56.0,-16.0,1.233
49.0,-11.0,1.234
25.0,-8.0,1.235
-3.0,-14.0,1.236
-11.0,-22.0,1.237
-3.0,-27.0,1.238
1.0,-22.0,1.239
-9.0,-14.0,1.24
-17.0,-8.0,1.241
-9.0,-3.0,1.242
4.0,0.0,1.243
5.0,1.0,1.244
-4.0,3.0,1.245
-5.0,1.0,1.246
6.0,-2.0,1.247
19.0,0.0,1.248
23.0,8.0,1.249
24.0,19.0,1.25
24.0,20.0,1.251
23.0,13.0,1.252
21.0,5.0,1.253
15.0,2.0,1.254
5.0,1.0,1.255
-8.0,0.0,1.256
-21.0,-1.0,1.257
-37.0,0.0,1.258
-54.0,1.0,1.259
-71.0,-1.0,1.26
-79.0,-8.0,1.261
-72.0,-11.0,1.262
-51.0,-7.0,1.263
-23.0,1.0,1.264
1.0,14.0,1.265
12.0,27.0,1.266
15.0,31.0,1.267
19.0,22.0,1.268
26.0,9.0,1.269
33.0,5.0,1.27
36.0,5.0,1.271
37.0,0.0,1.272
37.0,-7.0,1.273
36.0,-7.0,1.274
42.0,1.0,1.275
51.0,8.0,1.276
54.0,10.0,1.277
41.0,8.0,1.278
18.0,8.0,1.279
-7.0,3.0,1.28
-27.0,-5.0,1.281
-42.0,-6.0,1.282
-52.0,-3.0,1.283
-51.0,0.0,1.284
-45.0,2.0,1.285
-36.0,6.0,1.286
-25.0,9.0,1.287
-8.0,8.0,1.288
10.0,2.0,1.289
27.0,0.0,1.29
37.0,-2.0,1.291
40.0,-3.0,1.292
37.0,-5.0,1.293
23.0,-7.0,1.294
2.0,-8.0,1.295
-16.0,-11.0,1.296
-28.0,-11.0,1.297
-40.0,-12.0,1.298
-48.0,-14.0,1.299
-54.0,-19.0,1.3
-57.0,-24.0,1.301
-58.0,-24.0,1.302
-53.0,-23.0,1.303
-34.0,-19.0,1.304
-12.0,-6.0,1.305
1.0,7.0,1.306
0.0,10.0,1.307
4.0,3.0,1.308
20.0,-2.0,1.309
42.0,4.0,1.31
60.0,10.0,1.311
68.0,10.0,1.312
63.0,7.0,1.313
49.0,9.0,1.314
34.0,13.0,1.315
23.0,14.0,1.316
19.0,13.0,1.317
17.0,13.0,1.318
19.0,16.0,1.319
19.0,18.0,1.32
12.0,17.0,1.321
-6.0,19.0,1.322
-22.0,18.0,1.323
-22.0,13.0,1.324
-9.0,10.0,1.325
7.0,7.0,1.326
23.0,2.0,1.327
38.0,-3.0,1.328
48.0,-2.0,1.329
45.0,5.0,1.33
33.0,10.0,1.331
23.0,5.0,1.332
22.0,-1.0,1.333
25.0,-4.0,1.334
15.0,-8.0,1.335
-3.0,-14.0,1.336
-12.0,-14.0,1.337
-11.0,-7.0,1.338
-16.0,4.0,1.339
-36.0,8.0,1.34
-58.0,2.0,1.341
-59.0,-10.0,1.342
-44.0,-18.0,1.343
-35.0,-17.0,1.344
-35.0,-11.0,1.345
-33.0,-6.0,1.346
-22.0,-9.0,1.347
-11.0,-20.0,1.348
-4.0,-26.0,1.349
9.0,-22.0,1.35
30.0,-12.0,1.351
42.0,-7.0,1.352
35.0,-9.0,1.353
16.0,-14.0,1.354
0.0,-15.0,1.355
-5.0,-10.0,1.356
-5.0,-6.0,1.357
-5.0,-10.0,1.358
-4.0,-14.0,1.359
-5.0,-13.0,1.36
-8.0,-10.0,1.361
-10.0,-4.0,1.362
-9.0,-3.0,1.363
-7.0,0.0,1.364
-7.0,5.0,1.365
-5.0,7.0,1.366
2.0,2.0,1.367
14.0,-4.0,1.368
17.0,-4.0,1.369
15.0,0.0,1.37
17.0,-2.0,1.371
29.0,-6.0,1.372
46.0,-1.0,1.373
49.0,10.0,1.374
36.0,19.0,1.375
15.0,22.0,1.376
2.0,26.0,1.377
-2.0,32.0,1.378
-6.0,34.0,1.379
-16.0,29.0,1.38
-21.0,19.0,1.381
-14.0,17.0,1.382
0.0,17.0,1.383
10.0,13.0,1.384
11.0,9.0,1.385
13.0,10.0,1.386
23.0,11.0,1.387
32.0,9.0,1.388
33.0,3.0,1.389
30.0,0.0,1.39
31.0,-2.0,1.391
31.0,-7.0,1.392
23.0,-12.0,1.393
11.0,-15.0,1.394
1.0,-18.0,1.395
-2.0,-23.0,1.396
-1.0,-23.0,1.397
0.0,-17.0,1.398
0.0,-9.0,1.399
-9.0,-7.0,1.4
-25.0,-9.0,1.401
-33.0,-7.0,1.402
-27.0,-3.0,1.403
-14.0,1.0,1.404
-8.0,3.0,1.405
-12.0,4.0,1.406
-15.0,0.0,1.407
-12.0,-5.0,1.408
-7.0,-3.0,1.409
1.0,4.0,1.41
12.0,5.0,1.411
22.0,-1.0,1.412
33.0,-5.0,1.413
37.0,-1.0,1.414
28.0,1.0,1.415
-7.0,-3.0,1.416
-46.0,-8.0,1.417
-64.0,-15.0,1.418
-48.0,-17.0,1.419
-22.0,-17.0,1.42
-13.0,-13.0,1.421
-10.0,-8.0,1.422
6.0,-4.0,1.423
26.0,3.0,1.424
26.0,10.0,1.425
11.0,13.0,1.426
5.0,7.0,1.427
17.0,-2.0,1.428
26.0,-4.0,1.429
27.0,-4.0,1.43
36.0,-7.0,1.431
55.0,-10.0,1.432
68.0,-10.0,1.433
58.0,-2.0,1.434
33.0,2.0,1.435
10.0,1.0,1.436
-6.0,0.0,1.437
-26.0,0.0,1.438
-47.0,1.0,1.439
-62.0,2.0,1.44
-68.0,0.0,1.441
-65.0,1.0,1.442
-56.0,3.0,1.443
-39.0,4.0,1.444
-19.0,6.0,1.445
-1.0,9.0,1.446
10.0,12.0,1.447
15.0,13.0,1.448
18.0,13.0,1.449
24.0,13.0,1.45
36.0,12.0,1.451
41.0,7.0,1.452
37.0,3.0,1.453
33.0,1.0,1.454
32.0,2.0,1.455
29.0,5.0,1.456
21.0,12.0,1.457
0.0,18.0,1.458
-21.0,20.0,1.459
-39.0,13.0,1.46
-53.0,1.0,1.461
-56.0,-6.0,1.462
-45.0,-6.0,1.463
-28.0,-3.0,1.464
-13.0,1.0,1.465
-3.0,0.0,1.466
7.0,-6.0,1.467
21.0,-7.0,1.468
32.0,-5.0,1.469
37.0,0.0,1.47
40.0,-2.0,1.471
36.0,-7.0,1.472
28.0,-8.0,1.473
19.0,-7.0,1.474
8.0,-4.0,1.475
-7.0,0.0,1.476
-18.0,3.0,1.477
-22.0,0.0,1.478
-18.0,-7.0,1.479
-24.0,-9.0,1.48
-37.0,-12.0,1.481
-40.0,-12.0,1.482
-22.0,-12.0,1.483
2.0,-11.0,1.484
15.0,-9.0,1.485
13.0,-11.0,1.486
11.0,-15.0,1.487
18.0,-17.0,1.488
33.0,-13.0,1.489
55.0,-8.0,1.49
75.0,-5.0,1.491
86.0,-5.0,1.492
84.0,-5.0,1.493
76.0,-6.0,1.494
63.0,-11.0,1.495
39.0,-15.0,1.496
8.0,-11.0,1.497
-18.0,-5.0,1.498
-34.0,0.0,1.499
-51.0,2.0,1.5
-70.0,1.0,1.501
-77.0,2.0,1.502
-65.0,6.0,1.503
-47.0,9.0,1.504
-33.0,11.0,1.505
-24.0,9.0,1.506
-14.0,5.0,1.507
-5.0,3.0,1.508
0.0,5.0,1.509
12.0,8.0,1.51
29.0,4.0,1.511
43.0,-3.0,1.512
49.0,-5.0,1.513
47.0,-1.0,1.514
31.0,5.0,1.515
-1.0,5.0,1.516
-31.0,3.0,1.517
-45.0,-3.0,1.518
-41.0,-4.0,1.519
-43.0,0.0,1.52
-52.0,1.0,1.521
-52.0,1.0,1.522
-33.0,-1.0,1.523
-9.0,-1.0,1.524
4.0,4.0,1.525
9.0,10.0,1.526
15.0,12.0,1.527
24.0,10.0,1.528
31.0,6.0,1.529
36.0,4.0,1.53
42.0,2.0,1.531
51.0,0.0,1.532
49.0,0.0,1.533
30.0,0.0,1.534
-4.0,2.0,1.535
-39.0,0.0,1.536
-52.0,-5.0,1.537
-43.0,-15.0,1.538
-23.0,-22.0,1.539
-12.0,-23.0,1.54
-5.0,-22.0,1.541
4.0,-15.0,1.542
17.0,-5.0,1.543
23.0,5.0,1.544
18.0,10.0,1.545
15.0,10.0,1.546
21.0,8.0,1.547
32.0,9.0,1.548
36.0,10.0,1.549
34.0,9.0,1.55
34.0,7.0,1.551
39.0,11.0,1.552
41.0,16.0,1.553
28.0,15.0,1.554
0.0,5.0,1.555
-30.0,-2.0,1.556
-48.0,0.0,1.557
-50.0,3.0,1.558
-45.0,1.0,1.559
-41.0,-4.0,1.56
-37.0,-7.0,1.561
-26.0,-5.0,1.562
-16.0,-3.0,1.563
-11.0,-3.0,1.564
-4.0,-6.0,1.565
29.0,-5.0,1.566
87.0,0.0,1.567
136.0,5.0,1.568
141.0,11.0,1.569
117.0,14.0,1.57
99.0,17.0,1.571
87.0,20.0,1.572
56.0,17.0,1.573
10.0,7.0,1.574
-21.0,-7.0,1.575
-26.0,-16.0,1.576
-30.0,-16.0,1.577
-51.0,-15.0,1.578
-67.0,-21.0,1.579
-65.0,-30.0,1.58
-56.0,-33.0,1.581
-57.0,-27.0,1.582
-56.0,-21.0,1.583
-38.0,-18.0,1.584
-18.0,-13.0,1.585
-11.0,-7.0,1.586
-6.0,-4.0,1.587
7.0,-7.0,1.588
22.0,-7.0,1.589
30.0,0.0,1.59
35.0,8.0,1.591
39.0,14.0,1.592
32.0,16.0,1.593
7.0,15.0,1.594
-21.0,10.0,1.595
-37.0,0.0,1.596
-43.0,-7.0,1.597
-50.0,-8.0,1.598
-55.0,-3.0,1.599
-53.0,0.0,1.6
-46.0,-4.0,1.601
-41.0,-6.0,1.602
-34.0,-6.0,1.603
-19.0,-5.0,1.604
2.0,-1.0,1.605
18.0,0.0,1.606
25.0,-3.0,1.607
32.0,-6.0,1.608
43.0,-3.0,1.609
57.0,2.0,1.61
67.0,2.0,1.611
70.0,-1.0,1.612
65.0,3.0,1.613
52.0,12.0,1.614
31.0,14.0,1.615
6.0,6.0,1.616
-9.0,-2.0,1.617
-20.0,-5.0,1.618
-33.0,-7.0,1.619
-55.0,-8.0,1.62
-69.0,-8.0,1.621
-60.0,-1.0,1.622
-32.0,5.0,1.623
-5.0,10.0,1.624
14.0,15.0,1.625
32.0,18.0,1.626
52.0,14.0,1.627
57.0,10.0,1.628
43.0,11.0,1.629
23.0,17.0,1.63
21.0,18.0,1.631
37.0,15.0,1.632
47.0,14.0,1.633
36.0,13.0,1.634
12.0,12.0,1.635
-4.0,11.0,1.636
-9.0,12.0,1.637
-20.0,7.0,1.638
-41.0,-2.0,1.639
-60.0,-9.0,1.64
-63.0,-12.0,1.641
-52.0,-10.0,1.642
-30.0,-11.0,1.643
-7.0,-11.0,1.644
12.0,-4.0,1.645
16.0,4.0,1.646
9.0,2.0,1.647
7.0,-4.0,1.648
16.0,-4.0,1.649
26.0,-1.0,1.65
31.0,-3.0,1.651
35.0,-11.0,1.652
39.0,-13.0,1.653
35.0,-9.0,1.654
20.0,-8.0,1.655
3.0,-13.0,1.656
-7.0,-20.0,1.657
-20.0,-26.0,1.658
-32.0,-28.0,1.659
-43.0,-28.0,1.66
-51.0,-27.0,1.661
-58.0,-20.0,1.662
-55.0,-13.0,1.663
-33.0,-5.0,1.664
-8.0,7.0,1.665
3.0,21.0,1.666
-2.0,30.0,1.667
0.0,27.0,1.668
17.0,13.0,1.669
39.0,1.0,1.67
57.0,-2.0,1.671
70.0,1.0,1.672
79.0,4.0,1.673
75.0,7.0,1.674
53.0,5.0,1.675
24.0,1.0,1.676
6.0,0.0,1.677
-8.0,-2.0,1.678
-31.0,-6.0,1.679
-59.0,-10.0,1.68
-72.0,-12.0,1.681
-55.0,-8.0,1.682
-18.0,-1.0,1.683
18.0,-1.0,1.684
46.0,0.0,1.685
64.0,3.0,1.686
71.0,5.0,1.687
64.0,8.0,1.688
42.0,12.0,1.689
17.0,20.0,1.69
8.0,19.0,1.691
19.0,7.0,1.692
31.0,-4.0,1.693
29.0,-7.0,1.694
14.0,-6.0,1.695
-3.0,-7.0,1.696
-21.0,-4.0,1.697
-51.0,-2.0,1.698
-80.0,-4.0,1.699
-85.0,-10.0,1.7
-67.0,-12.0,1.701
-48.0,-6.0,1.702
-39.0,-3.0,1.703
-24.0,-5.0,1.704
-1.0,-5.0,1.705
17.0,3.0,1.706
21.0,5.0,1.707
23.0,-1.0,1.708
34.0,-3.0,1.709
43.0,5.0,1.71
38.0,13.0,1.711
24.0,8.0,1.712
9.0,1.0,1.713
-4.0,3.0,1.714
-15.0,11.0,1.715
-22.0,12.0,1.716
-24.0,3.0,1.717
-28.0,-7.0,1.718
-26.0,-11.0,1.719
-18.0,-13.0,1.72
-11.0,-16.0,1.721
-12.0,-15.0,1.722
-10.0,-10.0,1.723
10.0,-8.0,1.724
38.0,-5.0,1.725
46.0,-1.0,1.726
38.0,2.0,1.727
39.0,3.0,1.728
59.0,7.0,1.729
71.0,13.0,1.73
58.0,14.0,1.731
38.0,9.0,1.732
32.0,7.0,1.733
32.0,15.0,1.734
20.0,24.0,1.735
0.0,22.0,1.736
-12.0,12.0,1.737
-23.0,1.0,1.738
-41.0,-4.0,1.739
-64.0,-7.0,1.74
-70.0,-13.0,1.741
-58.0,-15.0,1.742
-39.0,-16.0,1.743
-24.0,-17.0,1.744
-11.0,-17.0,1.745
6.0,-11.0,1.746
21.0,1.0,1.747
26.0,10.0,1.748
23.0,9.0,1.749
17.0,2.0,1.75
17.0,-5.0,1.751
25.0,-4.0,1.752
28.0,-2.0,1.753
17.0,-2.0,1.754
3.0,-3.0,1.755
0.0,-1.0,1.756
2.0,5.0,1.757
-8.0,7.0,1.758
-32.0,7.0,1.759
-56.0,11.0,1.76
-60.0,18.0,1.761
-45.0,23.0,1.762
-19.0,20.0,1.763
4.0,13.0,1.764
17.0,4.0,1.765
21.0,-3.0,1.766
27.0,-3.0,1.767
40.0,8.0,1.768
48.0,18.0,1.769
47.0,15.0,1.77
39.0,1.0,1.771
33.0,-8.0,1.772
22.0,-7.0,1.773
-1.0,-7.0,1.774
-34.0,-14.0,1.775
-68.0,-20.0,1.776
-90.0,-18.0,1.777
-95.0,-18.0,1.778
-85.0,-19.0,1.779
-70.0,-20.0,1.78
-60.0,-17.0,1.781
-47.0,-9.0,1.782
-22.0,-6.0,1.783
9.0,-6.0,1.784
36.0,-6.0,1.785
50.0,-7.0,1.786
61.0,-9.0,1.787
74.0,-8.0,1.788
88.0,0.0,1.789
97.0,9.0,1.79
102.0,10.0,1.791
104.0,7.0,1.792
100.0,6.0,1.793
88.0,9.0,1.794
63.0,9.0,1.795
29.0,4.0,1.796
1.0,3.0,1.797
-17.0,1.0,1.798
-19.0,-2.0,1.799
-13.0,-8.0,1.8
-8.0,-15.0,1.801
-5.0,-15.0,1.802
-2.0,-12.0,1.803
-2.0,-9.0,1.804
-9.0,-10.0,1.805
-16.0,-12.0,1.806
-13.0,-16.0,1.807
-1.0,-18.0,1.808
5.0,-14.0,1.809
0.0,-9.0,1.81
-4.0,-7.0,1.811
1.0,-7.0,1.812
10.0,-9.0,1.813
8.0,-8.0,1.814
-3.0,-5.0,1.815
-17.0,-1.0,1.816
-24.0,2.0,1.817
-37.0,5.0,1.818
-47.0,5.0,1.819
-55.0,2.0,1.82
-56.0,-2.0,1.821
-52.0,2.0,1.822
-39.0,12.0,1.823
-22.0,17.0,1.824
-7.0,10.0,1.825
-1.0,0.0,1.826
1.0,0.0,1.827
3.0,2.0,1.828
5.0,1.0,1.829
9.0,-1.0,1.83
17.0,0.0,1.831
29.0,4.0,1.832
37.0,4.0,1.833
34.0,4.0,1.834
25.0,10.0,1.835
13.0,20.0,1.836
-2.0,25.0,1.837
-20.0,18.0,1.838
-32.0,10.0,1.839
-32.0,6.0,1.84
-26.0,5.0,1.841
-24.0,9.0,1.842
-21.0,13.0,1.843
-8.0,16.0,1.844
9.0,17.0,1.845
16.0,16.0,1.846
19.0,12.0,1.847
28.0,6.0,1.848
42.0,0.0,1.849
43.0,-3.0,1.85
38.0,-4.0,1.851
35.0,-5.0,1.852
33.0,-3.0,1.853
21.0,2.0,1.854
1.0,5.0,1.855
-14.0,-1.0,1.856
-17.0,-7.0,1.857
-21.0,-10.0,1.858
-33.0,-10.0,1.859
-44.0,-11.0,1.86
-48.0,-19.0,1.861
-43.0,-21.0,1.862
-31.0,-11.0,1.863
-14.0,1.0,1.864
4.0,10.0,1.865
17.0,6.0,1.866
28.0,-6.0,1.867
42.0,-16.0,1.868
51.0,-18.0,1.869
47.0,-12.0,1.87
33.0,-10.0,1.871
23.0,-13.0,1.872
15.0,-17.0,1.873
-7.0,-19.0,1.874
-37.0,-21.0,1.875
-60.0,-19.0,1.876
-58.0,-6.0,1.877
-40.0,15.0,1.878
-22.0,29.0,1.879
-6.0,22.0,1.88
17.0,5.0,1.881
41.0,2.0,1.882
52.0,10.0,1.883
42.0,11.0,1.884
25.0,-3.0,1.885
16.0,-16.0,1.886
19.0,-17.0,1.887
25.0,-13.0,1.888
24.0,-13.0,1.889
20.0,-14.0,1.89
19.0,-14.0,1.891
20.0,-14.0,1.892
17.0,-14.0,1.893
2.0,-10.0,1.894
-14.0,-5.0,1.895
-26.0,0.0,1.896
-30.0,0.0,1.897
-32.0,-8.0,1.898
-35.0,-13.0,1.899
-37.0,-13.0,1.9
-35.0,-7.0,1.901
-29.0,4.0,1.902
-18.0,12.0,1.903
-4.0,14.0,1.904
11.0,17.0,1.905
19.0,21.0,1.906
23.0,21.0,1.907
27.0,18.0,1.908
28.0,15.0,1.909
26.0,16.0,1.91
26.0,20.0,1.911
30.0,21.0,1.912
29.0,18.0,1.913
19.0,14.0,1.914
7.0,10.0,1.915
0.0,8.0,1.916
0.0,9.0,1.917
1.0,7.0,1.918
3.0,3.0,1.919
7.0,2.0,1.92
7.0,5.0,1.921
-1.0,9.0,1.922
-8.0,7.0,1.923
-2.0,1.0,1.924
10.0,2.0,1.925
16.0,14.0,1.926
17.0,24.0,1.927
23.0,19.0,1.928
42.0,6.0,1.929
60.0,-3.0,1.93
71.0,-5.0,1.931
64.0,-8.0,1.932
38.0,-11.0,1.933
3.0,-14.0,1.934
-22.0,-15.0,1.935
-28.0,-19.0,1.936
-25.0,-24.0,1.937
-27.0,-26.0,1.938
-31.0,-19.0,1.939
-38.0,-11.0,1.94
-48.0,-10.0,1.941
-63.0,-5.0,1.942
-66.0,7.0,1.943
-49.0,15.0,1.944
-18.0,17.0,1.945
11.0,13.0,1.946
26.0,12.0,1.947
28.0,12.0,1.948
26.0,8.0,1.949
23.0,1.0,1.95
21.0,-4.0,1.951
21.0,-8.0,1.952
29.0,-17.0,1.953
40.0,-26.0,1.954
46.0,-23.0,1.955
41.0,-7.0,1.956
26.0,13.0,1.957
-2.0,22.0,1.958
-33.0,14.0,1.959
-57.0,0.0,1.96
-61.0,-14.0,1.961
-52.0,-19.0,1.962
-39.0,-18.0,1.963
-24.0,-15.0,1.964
-6.0,-16.0,1.965
10.0,-22.0,1.966
16.0,-28.0,1.967
19.0,-31.0,1.968
25.0,-28.0,1.969
34.0,-23.0,1.97
37.0,-19.0,1.971
35.0,-17.0,1.972
29.0,-15.0,1.973
15.0,-15.0,1.974
-3.0,-16.0,1.975
-15.0,-17.0,1.976
-20.0,-9.0,1.977
-21.0,1.0,1.978
-27.0,13.0,1.979
-38.0,23.0,1.98
-52.0,29.0,1.981
-61.0,40.0,1.982
-53.0,56.0,1.983
-24.0,69.0,1.984
6.0,74.0,1.985
20.0,70.0,1.986
25.0,63.0,1.987
39.0,52.0,1.988
58.0,37.0,1.989
62.0,13.0,1.99
55.0,-21.0,1.991
57.0,-58.0,1.992
68.0,-88.0,1.993
62.0,-96.0,1.994
29.0,-93.0,1.995
-8.0,-89.0,1.996
-26.0,-83.0,1.997
-36.0,-67.0,1.998
-48.0,-43.0,1.999
-60.0,-20.0,2.0
-57.0,-6.0,2.001
-40.0,11.0,2.002
-22.0,30.0,2.003
-12.0,39.0,2.004
-7.0,34.0,2.005
-5.0,28.0,2.006
-5.0,30.0,2.007
-7.0,35.0,2.008
-4.0,30.0,2.009
5.0,20.0,2.01
18.0,16.0,2.011
28.0,14.0,2.012
33.0,12.0,2.013
29.0,10.0,2.014
19.0,18.0,2.015
6.0,30.0,2.016
-5.0,35.0,2.017
-20.0,31.0,2.018
-30.0,25.0,2.019
-37.0,23.0,2.02
-39.0,26.0,2.021
-40.0,35.0,2.022
-31.0,49.0,2.023
-6.0,54.0,2.024
30.0,35.0,2.025
60.0,-2.0,2.026
84.0,-38.0,2.027
106.0,-59.0,2.028
122.0,-71.0,2.029
115.0,-83.0,2.03
93.0,-89.0,2.031
78.0,-85.0,2.032
71.0,-72.0,2.033
57.0,-60.0,2.034
35.0,-47.0,2.035
19.0,-30.0,2.036
10.0,-5.0,2.037
-9.0,14.0,2.038
-42.0,25.0,2.039
-71.0,24.0,2.04
-85.0,17.0,2.041
-93.0,20.0,2.042
-94.0,26.0,2.043
-79.0,24.0,2.044
-46.0,14.0,2.045
-14.0,10.0,2.046
7.0,17.0,2.047
30.0,32.0,2.048
47.0,42.0,2.049
41.0,45.0,2.05
21.0,34.0,2.051
14.0,15.0,2.052
27.0,3.0,2.053
34.0,6.0,2.054
17.0,11.0,2.055
-3.0,3.0,2.056
-14.0,-9.0,2.057
-29.0,-15.0,2.058
-54.0,-13.0,2.059
-75.0,-15.0,2.06
-71.0,-24.0,2.061
-51.0,-23.0,2.062
-26.0,-15.0,2.063
1.0,-8.0,2.064
26.0,-9.0,2.065
42.0,-12.0,2.066
42.0,-12.0,2.067
39.0,-8.0,2.068
38.0,-5.0,2.069
37.0,-2.0,2.07
27.0,-2.0,2.071
9.0,-3.0,2.072
-15.0,1.0,2.073
-40.0,5.0,2.074
-57.0,-1.0,2.075
-60.0,-12.0,2.076
-48.0,-15.0,2.077
-35.0,-11.0,2.078
-21.0,-5.0,2.079
-17.0,-2.0,2.08
-24.0,-2.0,2.081
-29.0,2.0,2.082
-14.0,9.0,2.083
26.0,20.0,2.084
63.0,36.0,2.085
78.0,43.0,2.086
80.0,34.0,2.087
92.0,21.0,2.088
108.0,22.0,2.089
103.0,30.0,2.09
77.0,25.0,2.091
47.0,10.0,2.092
31.0,4.0,2.093
20.0,8.0,2.094
2.0,7.0,2.095
-24.0,-4.0,2.096
-47.0,-12.0,2.097
-59.0,-20.0,2.098
-53.0,-28.0,2.099
-46.0,-33.0,2.1
-36.0,-25.0,2.101
-27.0,-15.0,2.102
-25.0,-4.0,2.103
-27.0,4.0,2.104
-40.0,3.0,2.105
-53.0,2.0,2.106
-63.0,2.0,2.107
-62.0,0.0,2.108
-20.0,-13.0,2.109
23.0,-20.0,2.11
73.0,-10.0,2.111
109.0,-3.0,2.112
103.0,-5.0,2.113
79.0,-5.0,2.114
-1.0,4.0,2.115
-73.0,14.0,2.116
-122.0,23.0,2.117
-156.0,26.0,2.118
-126.0,5.0,2.119
-87.0,-8.0,2.12
-56.0,-13.0,2.121
-25.0,-15.0,2.122
10.0,-10.0,2.123
32.0,2.0,2.124
27.0,13.0,2.125
11.0,13.0,2.126
12.0,10.0,2.127
31.0,14.0,2.128
44.0,19.0,2.129
39.0,12.0,2.13
26.0,0.0,2.131
20.0,-2.0,2.132
9.0,7.0,2.133
-19.0,11.0,2.134
-59.0,-2.0,2.135
-104.0,-29.0,2.136
-152.0,-56.0,2.137
-189.0,-70.0,2.138
-163.0,-57.0,2.139
-66.0,-27.0,2.14
31.0,-13.0,2.141
54.0,-25.0,2.142
33.0,-41.0,2.143
58.0,-32.0,2.144
133.0,0.0,2.145
163.0,23.0,2.146
108.0,19.0,2.147
52.0,3.0,2.148
76.0,5.0,2.149
131.0,26.0,2.15
123.0,41.0,2.151
61.0,30.0,2.152
19.0,5.0,2.153
1.0,-4.0,2.154
-59.0,9.0,2.155
-170.0,23.0,2.156
-242.0,18.0,2.157
-204.0,-3.0,2.158
-67.0,-18.0,2.159
88.0,-16.0,2.16
189.0,-3.0,2.161
216.0,10.0,2.162
209.0,13.0,2.163
203.0,14.0,2.164
182.0,33.0,2.165
116.0,70.0,2.166
25.0,91.0,2.167
-36.0,69.0,2.168
-52.0,29.0,2.169
-53.0,15.0,2.17
-52.0,31.0,2.171
-33.0,37.0,2.172
-10.0,19.0,2.173
-15.0,-5.0,2.174
-41.0,-13.0,2.175
-64.0,-16.0,2.176
-90.0,-22.0,2.177
-144.0,-31.0,2.178
-200.0,-38.0,2.179
-218.0,-46.0,2.18
-203.0,-58.0,2.181
-173.0,-60.0,2.182
-104.0,-50.0,2.183
16.0,-41.0,2.184
121.0,-41.0,2.185
145.0,-45.0,2.186
110.0,-41.0,2.187
79.0,-22.0,2.188
53.0,6.0,2.189
6.0,26.0,2.19
-25.0,24.0,2.191
31.0,2.0,2.192
182.0,-15.0,2.193
336.0,-16.0,2.194
388.0,-3.0,2.195
297.0,13.0,2.196
137.0,30.0,2.197
-9.0,40.0,2.198
-77.0,45.0,2.199
-84.0,39.0,2.2
-64.0,12.0,2.201
-7.0,-29.0,2.202
90.0,-63.0,2.203
172.0,-56.0,2.204
172.0,-14.0,2.205
102.0,27.0,2.206
25.0,41.0,2.207
-30.0,36.0,2.208
-64.0,34.0,2.209
-80.0,39.0,2.21
-98.0,40.0,2.211
-162.0,33.0,2.212
-262.0,14.0,2.213
-312.0,-8.0,2.214
-258.0,-23.0,2.215
-154.0,-29.0,2.216
-91.0,-30.0,2.217
-70.0,-29.0,2.218
-41.0,-13.0,2.219
13.0,20.0,2.22
47.0,52.0,2.221
43.0,54.0,2.222
48.0,32.0,2.223
89.0,15.0,2.224
119.0,19.0,2.225
78.0,21.0,2.226
-8.0,-1.0,2.227
-67.0,-33.0,2.228
-81.0,-46.0,2.229
-82.0,-27.0,2.23
-65.0,11.0,2.231
19.0,45.0,2.232
156.0,61.0,2.233
247.0,59.0,2.234
222.0,66.0,2.235
127.0,95.0,2.236
44.0,121.0,2.237
-27.0,112.0,2.238
-110.0,61.0,2.239
-198.0,4.0,2.24
-269.0,-37.0,2.241
-320.0,-69.0,2.242
-315.0,-117.0,2.243
-209.0,-176.0,2.244
-39.0,-217.0,2.245
58.0,-225.0,2.246
13.0,-213.0,2.247
-83.0,-196.0,2.248
-115.0,-177.0,2.249
-73.0,-152.0,2.25
-10.0,-129.0,2.251
81.0,-111.0,2.252
218.0,-71.0,2.253
344.0,16.0,2.254
384.0,125.0,2.255
335.0,190.0,2.256
277.0,179.0,2.257
271.0,126.0,2.258
307.0,110.0,2.259
274.0,138.0,2.26
78.0,139.0,2.261
-206.0,70.0,2.262
-373.0,-20.0,2.263
-323.0,-62.0,2.264
-169.0,-64.0,2.265
-56.0,-85.0,2.266
6.0,-125.0,2.267
79.0,-124.0,2.268
153.0,-54.0,2.269
177.0,32.0,2.27
156.0,74.0,2.271
132.0,59.0,2.272
133.0,22.0,2.273
154.0,0.0,2.274
158.0,12.0,2.275
94.0,44.0,2.276
-27.0,59.0,2.277
-152.0,42.0,2.278
-197.0,19.0,2.279
-169.0,19.0,2.28
-106.0,30.0,2.281
-23.0,39.0,2.282
58.0,58.0,2.283
65.0,94.0,2.284
-40.0,126.0,2.285
-168.0,130.0,2.286
-193.0,117.0,2.287
-107.0,113.0,2.288
1.0,113.0,2.289
67.0,106.0,2.29
118.0,109.0,2.291
186.0,129.0,2.292
231.0,133.0,2.293
195.0,75.0,2.294
99.0,-22.0,2.295
42.0,-103.0,2.296
65.0,-130.0,2.297
100.0,-117.0,2.298
51.0,-87.0,2.299
-64.0,-58.0,2.3
-141.0,-42.0,2.301
-143.0,-29.0,2.302
-130.0,-18.0,2.303
-142.0,-16.0,2.304
-155.0,-22.0,2.305
-167.0,-23.0,2.306
-227.0,-19.0,2.307
-317.0,-28.0,2.308
-310.0,-67.0,2.309
-132.0,-127.0,2.31
88.0,-195.0,2.311
169.0,-274.0,2.312
119.0,-349.0,2.313
104.0,-381.0,2.314
185.0,-343.0,2.315
257.0,-265.0,2.316
256.0,-193.0,2.317
236.0,-123.0,2.318
239.0,-30.0,2.319
192.0,82.0,2.32
70.0,177.0,2.321
-17.0,244.0,2.322
2.0,293.0,2.323
40.0,327.0,2.324
5.0,328.0,2.325
-30.0,289.0,2.326
12.0,217.0,2.327
61.0,112.0,2.328
13.0,-18.0,2.329
-93.0,-137.0,2.33
-143.0,-205.0,2.331
-127.0,-226.0,2.332
-93.0,-230.0,2.333
-21.0,-217.0,2.334
111.0,-169.0,2.335
222.0,-96.0,2.336
214.0,-37.0,2.337
87.0,0.0,2.338
-53.0,39.0,2.339
-137.0,85.0,2.34
-151.0,127.0,2.341
-104.0,173.0,2.342
-31.0,235.0,2.343
-15.0,305.0,2.344
-102.0,343.0,2.345
-225.0,331.0,2.346
-268.0,277.0,2.347
-200.0,197.0,2.348
-79.0,96.0,2.349
47.0,-2.0,2.35
161.0,-63.0,2.351
204.0,-84.0,2.352
97.0,-102.0,2.353
-132.0,-132.0,2.354
-340.0,-154.0,2.355
-438.0,-142.0,2.356
-498.0,-109.0,2.357
-643.0,-75.0,2.358
-827.0,-34.0,2.359
-897.0,39.0,2.36
-802.0,127.0,2.361
-658.0,178.0,2.362
-562.0,155.0,2.363
-494.0,90.0,2.364
-427.0,54.0,2.365
-397.0,67.0,2.366
-406.0,93.0,2.367
-336.0,108.0,2.368
-70.0,125.0,2.369
351.0,129.0,2.37
762.0,61.0,2.371
1027.0,-96.0,2.372
1104.0,-254.0,2.373
1020.0,-327.0,2.374
846.0,-357.0,2.375
685.0,-444.0,2.376
615.0,-563.0,2.377
605.0,-599.0,2.378
573.0,-481.0,2.379
476.0,-304.0,2.38
361.0,-191.0,2.381
303.0,-130.0,2.382
332.0,-49.0,2.383
431.0,51.0,2.384
543.0,121.0,2.385
590.0,182.0,2.386
533.0,312.0,2.387
422.0,503.0,2.388
349.0,644.0,2.389
326.0,648.0,2.39
307.0,543.0,2.391
275.0,426.0,2.392
282.0,346.0,2.393
354.0,288.0,2.394
451.0,222.0,2.395
503.0,158.0,2.396
482.0,116.0,2.397
353.0,70.0,2.398
110.0,-28.0,2.399
-191.0,-202.0,2.4
-394.0,-389.0,2.401
-393.0,-488.0,2.402
-256.0,-465.0,2.403
-161.0,-364.0,2.404
-186.0,-234.0,2.405
-263.0,-105.0,2.406
-332.0,-21.0,2.407
-410.0,-41.0,2.408
-508.0,-159.0,2.409
-570.0,-286.0,2.41
-550.0,-351.0,2.411
-473.0,-365.0,2.412
-391.0,-362.0,2.413
-338.0,-321.0,2.414
-367.0,-212.0,2.415
-523.0,-63.0,2.416
-745.0,64.0,2.417
-918.0,165.0,2.418
-914.0,231.0,2.419
-741.0,227.0,2.42
-496.0,143.0,2.421
-261.0,63.0,2.422
-92.0,70.0,2.423
-26.0,138.0,2.424
-69.0,181.0,2.425
-164.0,163.0,2.426
-259.0,117.0,2.427
-316.0,59.0,2.428
-304.0,-10.0,2.429
-206.0,-40.0,2.43
-73.0,10.0,2.431
9.0,96.0,2.432
31.0,125.0,2.433
40.0,86.0,2.434
28.0,36.0,2.435
-57.0,-6.0,2.436
-154.0,-62.0,2.437
-146.0,-124.0,2.438
-16.0,-121.0,2.439
89.0,-28.0,2.44
68.0,98.0,2.441
7.0,205.0,2.442
18.0,279.0,2.443
71.0,302.0,2.444
104.0,258.0,2.445
168.0,162.0,2.446
351.0,64.0,2.447
588.0,3.0,2.448
697.0,-12.0,2.449
590.0,-3.0,2.45
368.0,-5.0,2.451
175.0,-38.0,2.452
55.0,-65.0,2.453
-8.0,-26.0,2.454
0.0,67.0,2.455
92.0,137.0,2.456
192.0,148.0,2.457
226.0,127.0,2.458
213.0,101.0,2.459
222.0,53.0,2.46
256.0,-30.0,2.461
258.0,-104.0,2.462
242.0,-145.0,2.463
259.0,-179.0,2.464
283.0,-224.0,2.465
248.0,-257.0,2.466
186.0,-255.0,2.467
195.0,-233.0,2.468
265.0,-206.0,2.469
282.0,-154.0,2.47
196.0,-65.0,2.471
95.0,35.0,2.472
93.0,114.0,2.473
175.0,169.0,2.474
206.0,187.0,2.475
57.0,140.0,2.476
-202.0,41.0,2.477
-412.0,-58.0,2.478
-452.0,-105.0,2.479
-395.0,-121.0,2.48
-341.0,-131.0,2.481
-248.0,-85.0,2.482
-91.0,39.0,2.483
-9.0,158.0,2.484
-110.0,182.0,2.485
-263.0,153.0,2.486
-275.0,159.0,2.487
-150.0,195.0,2.488
-12.0,197.0,2.489
97.0,161.0,2.49
195.0,118.0,2.491
235.0,55.0,2.492
188.0,-33.0,2.493
101.0,-80.0,2.494
1.0,-50.0,2.495
-142.0,-27.0,2.496
-279.0,-97.0,2.497
-299.0,-230.0,2.498
-195.0,-300.0,2.499
-126.0,-274.0,2.5
-156.0,-234.0,2.501
-140.0,-221.0,2.502
21.0,-198.0,2.503
210.0,-155.0,2.504
288.0,-150.0,2.505
272.0,-214.0,2.506
196.0,-285.0,2.507
10.0,-286.0,2.508
-243.0,-229.0,2.509
-394.0,-174.0,2.51
-392.0,-127.0,2.511
-397.0,-45.0,2.512
-472.0,76.0,2.513
-432.0,191.0,2.514
-146.0,253.0,2.515
178.0,256.0,2.516
267.0,225.0,2.517
118.0,185.0,2.518
-76.0,160.0,2.519
-233.0,143.0,2.52
-393.0,91.0,2.521
-460.0,-7.0,2.522
-219.0,-96.0,2.523
313.0,-86.0,2.524
773.0,42.0,2.525
872.0,224.0,2.526
711.0,381.0,2.527
558.0,497.0,2.528
461.0,573.0,2.529
288.0,590.0,2.53
28.0,549.0,2.531
-201.0,486.0,2.532
-316.0,414.0,2.533
-276.0,287.0,2.534
-34.0,91.0,2.535
347.0,-114.0,2.536
612.0,-258.0,2.537
586.0,-355.0,2.538
347.0,-401.0,2.539
111.0,-397.0,2.54
-36.0,-398.0,2.541
-137.0,-464.0,2.542
-182.0,-561.0,2.543
-152.0,-567.0,2.544
-121.0,-456.0,2.545
-152.0,-310.0,2.546
-176.0,-160.0,2.547
-117.0,59.0,2.548
-24.0,326.0,2.549
24.0,477.0,2.55
56.0,432.0,2.551
129.0,315.0,2.552
184.0,253.0,2.553
99.0,192.0,2.554
-154.0,26.0,2.555
-429.0,-202.0,2.556
-508.0,-352.0,2.557
-321.0,-390.0,2.558
-47.0,-385.0,2.559
44.0,-411.0,2.56
-65.0,-456.0,2.561
-156.0,-445.0,2.562
-106.0,-348.0,2.563
-42.0,-211.0,2.564
-110.0,-99.0,2.565
-302.0,-25.0,2.566
-583.0,35.0,2.567
-938.0,100.0,2.568
-1164.0,176.0,2.569
-914.0,299.0,2.57
-159.0,496.0,2.571
636.0,703.0,2.572
1020.0,813.0,2.573
1032.0,810.0,2.574
949.0,774.0,2.575
819.0,736.0,2.576
560.0,644.0,2.577
207.0,427.0,2.578
-44.0,161.0,2.579
-187.0,-83.0,2.58
-336.0,-263.0,2.581
-443.0,-432.0,2.582
-338.0,-568.0,2.583
-16.0,-675.0,2.584
341.0,-691.0,2.585
572.0,-690.0,2.586
605.0,-638.0,2.587
442.0,-571.0,2.588
202.0,-463.0,2.589
60.0,-353.0,2.59
-4.0,-236.0,2.591
-183.0,-125.0,2.592
-482.0,-35.0,2.593
-610.0,23.0,2.594
-398.0,-12.0,2.595
-84.0,-53.0,2.596
31.0,-111.0,2.597
-15.0,-139.0,2.598
21.0,-17.0,2.599
204.0,158.0,2.6
357.0,284.0,2.601
358.0,329.0,2.602
259.0,332.0,2.603
148.0,348.0,2.604
36.0,394.0,2.605
-79.0,435.0,2.606
-161.0,434.0,2.607
-185.0,402.0,2.608
-166.0,392.0,2.609
-140.0,422.0,2.61
-105.0,426.0,2.611
-35.0,351.0,2.612
78.0,244.0,2.613
196.0,189.0,2.614
251.0,171.0,2.615
204.0,101.0,2.616
74.0,-38.0,2.617
-135.0,-221.0,2.618
-379.0,-416.0,2.619
-608.0,-627.0,2.62
-773.0,-811.0,2.621
-798.0,-852.0,2.622
-576.0,-690.0,2.623
-85.0,-400.0,2.624
458.0,-138.0,2.625
720.0,2.0,2.626
594.0,55.0,2.627
316.0,108.0,2.628
145.0,192.0,2.629
90.0,264.0,2.63
43.0,305.0,2.631
-2.0,352.0,2.632
-22.0,419.0,2.633
-59.0,448.0,2.634
-124.0,395.0,2.635
-104.0,283.0,2.636
35.0,159.0,2.637
156.0,-14.0,2.638
113.0,-246.0,2.639
-15.0,-478.0,2.64
-53.0,-635.0,2.641
-29.0,-729.0,2.642
-92.0,-808.0,2.643
-224.0,-833.0,2.644
-291.0,-723.0,2.645
-308.0,-505.0,2.646
-358.0,-297.0,2.647
-328.0,-141.0,2.648
-33.0,51.0,2.649
387.0,316.0,2.65
553.0,541.0,2.651
366.0,615.0,2.652
121.0,584.0,2.653
45.0,549.0,2.654
44.0,511.0,2.655
11.0,426.0,2.656
32.0,337.0,2.657
155.0,304.0,2.658
245.0,309.0,2.659
199.0,259.0,2.66
129.0,150.0,2.661
106.0,76.0,2.662
-4.0,85.0,2.663
-251.0,146.0,2.664
-364.0,216.0,2.665
-99.0,264.0,2.666
340.0,232.0,2.667
534.0,125.0,2.668
432.0,56.0,2.669
339.0,110.0,2.67
389.0,213.0,2.671
364.0,244.0,2.672
101.0,226.0,2.673
-229.0,233.0,2.674
-391.0,210.0,2.675
-376.0,49.0,2.676
-312.0,-185.0,2.677
-243.0,-361.0,2.678
-164.0,-425.0,2.679
-92.0,-486.0,2.68
-38.0,-617.0,2.681
3.0,-741.0,2.682
-13.0,-781.0,2.683
-127.0,-764.0,2.684
-250.0,-735.0,2.685
-242.0,-693.0,2.686
-133.0,-621.0,2.687
-92.0,-528.0,2.688
-180.0,-409.0,2.689
-273.0,-263.0,2.69
-264.0,-118.0,2.691
-173.0,-18.0,2.692
-51.0,35.0,2.693
104.0,76.0,2.694
261.0,118.0,2.695
328.0,152.0,2.696
266.0,184.0,2.697
102.0,216.0,2.698
-90.0,235.0,2.699
-257.0,241.0,2.7
-338.0,257.0,2.701
-320.0,293.0,2.702
-308.0,308.0,2.703
-396.0,282.0,2.704
-494.0,260.0,2.705
-386.0,307.0,2.706
-28.0,419.0,2.707
380.0,505.0,2.708
636.0,498.0,2.709
714.0,431.0,2.71
665.0,401.0,2.711
502.0,436.0,2.712
261.0,449.0,2.713
46.0,359.0,2.714
-89.0,196.0,2.715
-212.0,51.0,2.716
-338.0,-29.0,2.717
-368.0,-65.0,2.718
-201.0,-60.0,2.719
52.0,-30.0,2.72
172.0,-22.0,2.721
125.0,-51.0,2.722
81.0,-84.0,2.723
126.0,-104.0,2.724
142.0,-142.0,2.725
28.0,-203.0,2.726
-121.0,-240.0,2.727
-151.0,-232.0,2.728
-56.0,-236.0,2.729
25.0,-280.0,2.73
-4.0,-303.0,2.731
-90.0,-246.0,2.732
-55.0,-132.0,2.733
229.0,-22.0,2.734
650.0,52.0,2.735
883.0,83.0,2.736
741.0,73.0,2.737
346.0,32.0,2.738
44.0,-18.0,2.739
-33.0,-92.0,2.74
-47.0,-199.0,2.741
-109.0,-248.0,2.742
-106.0,-158.0,2.743
49.0,8.0,2.744
203.0,93.0,2.745
164.0,59.0,2.746
-25.0,29.0,2.747
-179.0,71.0,2.748
-227.0,88.0,2.749
-221.0,-9.0,2.75
-184.0,-139.0,2.751
-107.0,-177.0,2.752
-48.0,-158.0,2.753
-88.0,-221.0,2.754
-223.0,-376.0,2.755
-398.0,-489.0,2.756
-571.0,-489.0,2.757
-732.0,-433.0,2.758
-768.0,-365.0,2.759
-569.0,-236.0,2.76
-150.0,-19.0,2.761
323.0,205.0,2.762
640.0,324.0,2.763
658.0,334.0,2.764
401.0,303.0,2.765
52.0,263.0,2.766
-175.0,200.0,2.767
-198.0,120.0,2.768
-89.0,62.0,2.769
19.0,56.0,2.77
40.0,105.0,2.771
-11.0,182.0,2.772
-19.0,232.0,2.773
113.0,235.0,2.774
310.0,229.0,2.775
383.0,246.0,2.776
273.0,265.0,2.777
110.0,243.0,2.778
32.0,184.0,2.779
-30.0,108.0,2.78
-48.0,12.0,2.781
-56.0,-70.0,2.782
-28.0,-67.0,2.783
8.0,42.0,2.784
66.0,152.0,2.785
111.0,157.0,2.786
114.0,83.0,2.787
115.0,26.0,2.788
106.0,0.0,2.789
75.0,-45.0,2.79
-18.0,-95.0,2.791
-131.0,-80.0,2.792
-298.0,4.0,2.793
-428.0,67.0,2.794
-448.0,59.0,2.795
-400.0,42.0,2.796
-146.0,99.0,2.797
98.0,222.0,2.798
222.0,304.0,2.799
197.0,281.0,2.8
135.0,220.0,2.801
147.0,203.0,2.802
221.0,158.0,2.803
296.0,-50.0,2.804
352.0,-382.0,2.805
387.0,-638.0,2.806
334.0,-713.0,2.807
149.0,-689.0,2.808
-63.0,-655.0,2.809
-177.0,-588.0,2.81
-211.0,-466.0,2.811
-244.0,-338.0,2.812
-243.0,-225.0,2.813
-140.0,-76.0,2.814
29.0,110.0,2.815
163.0,254.0,2.816
209.0,314.0,2.817
153.0,333.0,2.818
-1.0,330.0,2.819
-198.0,279.0,2.82
-354.0,189.0,2.821
-439.0,131.0,2.822
-411.0,114.0,2.823
-177.0,60.0,2.824
215.0,-66.0,2.825
482.0,-194.0,2.826
420.0,-232.0,2.827
201.0,-176.0,2.828
84.0,-104.0,2.829
16.0,-88.0,2.83
-178.0,-134.0,2.831
-391.0,-175.0,2.832
-384.0,-141.0,2.833
-212.0,-45.0,2.834
-124.0,33.0,2.835
-136.0,76.0,2.836
-73.0,149.0,2.837
100.0,290.0,2.838
246.0,404.0,2.839
326.0,390.0,2.84
414.0,295.0,2.841
450.0,243.0,2.842
303.0,223.0,2.843
54.0,120.0,2.844
-107.0,-57.0,2.845
-189.0,-170.0,2.846
-322.0,-167.0,2.847
-442.0,-176.0,2.848
-352.0,-254.0,2.849
-92.0,-272.0,2.85
97.0,-115.0,2.851
154.0,125.0,2.852
194.0,282.0,2.853
209.0,313.0,2.854
84.0,270.0,2.855
-85.0,176.0,2.856
-91.0,67.0,2.857
45.0,-16.0,2.858
85.0,-46.0,2.859
-41.0,-47.0,2.86
-164.0,-22.0,2.861
-228.0,60.0,2.862
-327.0,150.0,2.863
-376.0,166.0,2.864
-151.0,146.0,2.865
283.0,211.0,2.866
544.0,344.0,2.867
415.0,408.0,2.868
119.0,351.0,2.869
-4.0,230.0,2.87
131.0,28.0,2.871
357.0,-318.0,2.872
472.0,-712.0,2.873
394.0,-927.0,2.874
182.0,-904.0,2.875
-33.0,-791.0,2.876
-157.0,-704.0,2.877
-212.0,-590.0,2.878
-229.0,-391.0,2.879
-251.0,-149.0,2.88
-308.0,54.0,2.881
-402.0,190.0,2.882
-457.0,246.0,2.883
-388.0,201.0,2.884
-188.0,93.0,2.885
53.0,3.0,2.886
220.0,-46.0,2.887
230.0,-86.0,2.888
98.0,-105.0,2.889
-66.0,-40.0,2.89
-119.0,91.0,2.891
-11.0,176.0,2.892
179.0,161.0,2.893
307.0,139.0,2.894
289.0,217.0,2.895
144.0,375.0,2.896
-44.0,501.0,2.897
-238.0,539.0,2.898
-356.0,492.0,2.899
-305.0,389.0,2.9
-46.0,275.0,2.901
282.0,221.0,2.902
453.0,244.0,2.903
380.0,293.0,2.904
201.0,297.0,2.905
59.0,217.0,2.906
-40.0,53.0,2.907
-141.0,-155.0,2.908
-213.0,-315.0,2.909
-219.0,-363.0,2.91
-190.0,-342.0,2.911
-186.0,-328.0,2.912
-299.0,-295.0,2.913
-628.0,-151.0,2.914
-1044.0,86.0,2.915
-1023.0,265.0,2.916
-231.0,287.0,2.917
1093.0,179.0,2.918
1981.0,43.0,2.919
1870.0,-71.0,2.92
1165.0,-180.0,2.921
510.0,-320.0,2.922
69.0,-518.0,2.923
-248.0,-748.0,2.924
-359.0,-909.0,2.925
-222.0,-929.0,2.926
-101.0,-830.0,2.927
-207.0,-661.0,2.928
-372.0,-421.0,2.929
-372.0,-113.0,2.93
-271.0,172.0,2.931
-227.0,360.0,2.932
-245.0,496.0,2.933
-332.0,633.0,2.934
-570.0,718.0,2.935
-829.0,674.0,2.936
-750.0,554.0,2.937
-153.0,435.0,2.938
591.0,336.0,2.939
960.0,222.0,2.94
867.0,109.0,2.941
602.0,32.0,2.942
361.0,-52.0,2.943
126.0,-192.0,2.944
-82.0,-336.0,2.945
-144.0,-405.0,2.946
-64.0,-392.0,2.947
-8.0,-309.0,2.948
-74.0,-114.0,2.949
-184.0,189.0,2.95
-235.0,466.0,2.951
-232.0,599.0,2.952
-214.0,640.0,2.953
-191.0,697.0,2.954
-198.0,732.0,2.955
-269.0,622.0,2.956
-335.0,386.0,2.957
-261.0,107.0,2.958
-32.0,-141.0,2.959
166.0,-377.0,2.96
173.0,-571.0,2.961
13.0,-613.0,2.962
-174.0,-496.0,2.963
-273.0,-355.0,2.964
-201.0,-277.0,2.965
60.0,-187.0,2.966
364.0,-1.0,2.967
487.0,207.0,2.968
382.0,311.0,2.969
200.0,307.0,2.97
68.0,267.0,2.971
-28.0,212.0,2.972
-98.0,113.0,2.973
-99.0,-1.0,2.974
-62.0,-74.0,2.975
-119.0,-114.0,2.976
-306.0,-159.0,2.977
-516.0,-206.0,2.978
-537.0,-217.0,2.979
-282.0,-224.0,2.98
136.0,-304.0,2.981
501.0,-441.0,2.982
641.0,-540.0,2.983
554.0,-507.0,2.984
380.0,-324.0,2.985
266.0,-61.0,2.986
247.0,151.0,2.987
247.0,232.0,2.988
175.0,242.0,2.989
24.0,277.0,2.99
-142.0,278.0,2.991
-262.0,111.0,2.992
-292.0,-170.0,2.993
-204.0,-337.0,2.994
-39.0,-295.0,2.995
60.0,-206.0,2.996
-4.0,-200.0,2.997
-132.0,-188.0,2.998
-140.0,-74.0,2.999
-126.0,34.0,3.0
-47.0,128.0,3.001
8.0,207.0,3.002
-10.0,239.0,3.003
-17.0,250.0,3.004
16.0,195.0,3.005
43.0,137.0,3.006
49.0,73.0,3.007
55.0,6.0,3.008
63.0,-67.0,3.009
62.0,-115.0,3.01
35.0,-88.0,3.011
17.0,-48.0,3.012
30.0,28.0,3.013
28.0,95.0,3.014
-25.0,135.0,3.015
-61.0,176.0,3.016
-45.0,224.0,3.017
-37.0,264.0,3.018
-60.0,252.0,3.019
-44.0,214.0,3.02
7.0,192.0,3.021
34.0,194.0,3.022
16.0,181.0,3.023
-12.0,142.0,3.024
-33.0,113.0,3.025
-59.0,105.0,3.026
-85.0,81.0,3.027
-89.0,17.0,3.028
-68.0,-40.0,3.029
-33.0,-43.0,3.03
8.0,-12.0,3.031
33.0,1.0,3.032
13.0,-19.0,3.033
-51.0,-57.0,3.034
-110.0,-86.0,3.035
-120.0,-99.0,3.036
-89.0,-101.0,3.037
-53.0,-102.0,3.038
-29.0,-103.0,3.039
-6.0,-93.0,3.04
40.0,-60.0,3.041
89.0,-15.0,3.042
103.0,8.0,3.043
75.0,-7.0,3.044
57.0,-37.0,3.045
83.0,-49.0,3.046
131.0,-35.0,3.047
165.0,-23.0,3.048
169.0,-31.0,3.049
137.0,-45.0,3.05
64.0,-50.0,3.051
1.0,-45.0,3.052
12.0,-42.0,3.053
79.0,-45.0,3.054
110.0,-44.0,3.055
74.0,-26.0,3.056
29.0,5.0,3.057
-2.0,27.0,3.058
-47.0,8.0,3.059
-109.0,-41.0,3.06
-128.0,-73.0,3.061
-89.0,-57.0,3.062
-55.0,-25.0,3.063
-85.0,-25.0,3.064
-160.0,-48.0,3.065
-222.0,-56.0,3.066
-202.0,-48.0,3.067
-49.0,-47.0,3.068
204.0,-55.0,3.069
414.0,-46.0,3.07
467.0,-7.0,3.071
390.0,47.0,3.072
283.0,90.0,3.073
184.0,91.0,3.074
85.0,38.0,3.075
6.0,-29.0,3.076
-33.0,-49.0,3.077
-72.0,-20.0,3.078
-130.0,9.0,3.079
-173.0,6.0,3.08
-163.0,-6.0,3.081
-133.0,-2.0,3.082
-122.0,2.0,3.083
-122.0,-6.0,3.084
-110.0,-7.0,3.085
-94.0,-1.0,3.086
-86.0,-4.0,3.087
-77.0,-15.0,3.088
-57.0,-12.0,3.089
-44.0,1.0,3.09
-43.0,0.0,3.091
-36.0,-12.0,3.092
-22.0,-10.0,3.093
-16.0,3.0,3.094
-23.0,2.0,3.095
-28.0,-9.0,3.096
-32.0,-7.0,3.097
-47.0,2.0,3.098
-55.0,4.0,3.099
-41.0,-5.0,3.1
-13.0,-10.0,3.101
7.0,-2.0,3.102
21.0,1.0,3.103
36.0,-1.0,3.104
45.0,1.0,3.105
39.0,9.0,3.106
37.0,11.0,3.107
47.0,9.0,3.108
53.0,9.0,3.109
40.0,11.0,3.11
24.0,5.0,3.111
18.0,-3.0,3.112
10.0,-4.0,3.113
-13.0,-1.0,3.114
-29.0,-6.0,3.115
-25.0,-12.0,3.116
-7.0,-9.0,3.117
3.0,6.0,3.118
6.0,20.0,3.119
3.0,17.0,3.12
-2.0,-2.0,3.121
-4.0,-15.0,3.122
5.0,-10.0,3.123
20.0,-2.0,3.124
21.0,-2.0,3.125
5.0,-6.0,3.126
-13.0,-7.0,3.127
-24.0,-7.0,3.128
-45.0,-10.0,3.129
-74.0,-19.0,3.13
-82.0,-22.0,3.131
-42.0,-16.0,3.132
28.0,-10.0,3.133
90.0,-9.0,3.134
122.0,-9.0,3.135
126.0,4.0,3.136
105.0,37.0,3.137
55.0,69.0,3.138
-1.0,75.0,3.139
-35.0,51.0,3.14
-46.0,21.0,3.141
-63.0,8.0,3.142
-95.0,2.0,3.143
-112.0,-8.0,3.144
-83.0,-16.0,3.145
-12.0,-13.0,3.146
62.0,-7.0,3.147
105.0,-5.0,3.148
100.0,-1.0,3.149
48.0,7.0,3.15
-10.0,10.0,3.151
-12.0,6.0,3.152
65.0,8.0,3.153
155.0,20.0,3.154
170.0,25.0,3.155
113.0,12.0,3.156
52.0,4.0,3.157
5.0,14.0,3.158
-34.0,20.0,3.159
-62.0,1.0,3.16
-56.0,-28.0,3.161
-36.0,-30.0,3.162
-40.0,-6.0,3.163
-46.0,11.0,3.164
-12.0,12.0,3.165
48.0,9.0,3.166
83.0,4.0,3.167
87.0,-5.0,3.168
82.0,-10.0,3.169
65.0,-7.0,3.17
20.0,-9.0,3.171
-22.0,-21.0,3.172
-18.0,-27.0,3.173
12.0,-15.0,3.174
27.0,1.0,3.175
21.0,9.0,3.176
13.0,15.0,3.177
-9.0,18.0,3.178
-49.0,10.0,3.179
-84.0,-3.0,3.18
-90.0,-4.0,3.181
-82.0,8.0,3.182
-74.0,2.0,3.183
-54.0,-24.0,3.184
-19.0,-34.0,3.185
8.0,-13.0,3.186
14.0,2.0,3.187
25.0,-8.0,3.188
50.0,-24.0,3.189
65.0,-21.0,3.19
51.0,-9.0,3.191
19.0,-9.0,3.192
-21.0,-16.0,3.193
-73.0,-15.0,3.194
-127.0,-12.0,3.195
-154.0,-7.0,3.196
-145.0,1.0,3.197
-110.0,7.0,3.198
-59.0,-1.0,3.199
-3.0,-21.0,3.2
33.0,-29.0,3.201
31.0,-11.0,3.202
13.0,10.0,3.203
15.0,17.0,3.204
46.0,13.0,3.205
86.0,5.0,3.206
126.0,3.0,3.207
160.0,16.0,3.208
164.0,44.0,3.209
127.0,61.0,3.21
74.0,44.0,3.211
43.0,16.0,3.212
37.0,6.0,3.213
33.0,12.0,3.214
20.0,11.0,3.215
14.0,2.0,3.216
13.0,0.0,3.217
2.0,2.0,3.218
-12.0,-4.0,3.219
-23.0,-17.0,3.22
-26.0,-18.0,3.221
-27.0,-5.0,3.222
-26.0,2.0,3.223
-22.0,-2.0,3.224
-20.0,-5.0,3.225
-19.0,-3.0,3.226
-10.0,-8.0,3.227
0.0,-18.0,3.228
-14.0,-17.0,3.229
-57.0,-5.0,3.23
-98.0,-4.0,3.231
-103.0,-16.0,3.232
-73.0,-25.0,3.233
-28.0,-21.0,3.234
23.0,-13.0,3.235
72.0,-9.0,3.236
88.0,-2.0,3.237
50.0,1.0,3.238
-6.0,-3.0,3.239
-21.0,-8.0,3.24
7.0,-13.0,3.241
30.0,-14.0,3.242
32.0,-4.0,3.243
40.0,8.0,3.244
59.0,25.0,3.245
50.0,38.0,3.246
5.0,32.0,3.247
-38.0,25.0,3.248
-48.0,15.0,3.249
-42.0,7.0,3.25
-42.0,1.0,3.251
-43.0,-3.0,3.252
-32.0,-1.0,3.253
-14.0,0.0,3.254
5.0,3.0,3.255
20.0,8.0,3.256
24.0,16.0,3.257
14.0,22.0,3.258
3.0,23.0,3.259
-5.0,19.0,3.26
-31.0,18.0,3.261
-73.0,13.0,3.262
-81.0,0.0,3.263
-24.0,-14.0,3.264
49.0,-14.0,3.265
68.0,-6.0,3.266
36.0,-10.0,3.267
15.0,-25.0,3.268
24.0,-33.0,3.269
36.0,-25.0,3.27
40.0,-13.0,3.271
56.0,-2.0,3.272
85.0,16.0,3.273
97.0,43.0,3.274
75.0,67.0,3.275
40.0,74.0,3.276
20.0,68.0,3.277
13.0,53.0,3.278
9.0,28.0,3.279
-2.0,-11.0,3.28
-12.0,-55.0,3.281
-15.0,-78.0,3.282
-11.0,-74.0,3.283
4.0,-63.0,3.284
50.0,-62.0,3.285
133.0,-68.0,3.286
219.0,-61.0,3.287
248.0,-33.0,3.288
201.0,13.0,3.289
119.0,59.0,3.29
46.0,76.0,3.291
-7.0,54.0,3.292
-47.0,20.0,3.293
-72.0,2.0,3.294
-86.0,-2.0,3.295
-104.0,-22.0,3.296
-124.0,-58.0,3.297
-132.0,-99.0,3.298
-114.0,-125.0,3.299
-82.0,-138.0,3.3
-45.0,-147.0,3.301
-17.0,-135.0,3.302
-11.0,-105.0,3.303
-25.0,-67.0,3.304
-45.0,-24.0,3.305
-51.0,32.0,3.306
-41.0,94.0,3.307
-23.0,139.0,3.308
-8.0,153.0,3.309
-2.0,146.0,3.31
3.0,119.0,3.311
14.0,72.0,3.312
23.0,21.0,3.313
15.0,-10.0,3.314
-9.0,-18.0,3.315
-30.0,-22.0,3.316
-33.0,-27.0,3.317
-30.0,-15.0,3.318
-27.0,14.0,3.319
-27.0,43.0,3.32
-23.0,64.0,3.321
-11.0,94.0,3.322
7.0,147.0,3.323
19.0,182.0,3.324
4.0,160.0,3.325
-32.0,130.0,3.326
-59.0,74.0,3.327
-55.0,17.0,3.328
-34.0,-39.0,3.329
-24.0,-96.0,3.33
-25.0,-157.0,3.331
-22.0,-207.0,3.332
-11.0,-219.0,3.333
-5.0,-225.0,3.334
-7.0,-210.0,3.335
-9.0,-190.0,3.336
-4.0,-158.0,3.337
-1.0,-123.0,3.338
0.0,-70.0,3.339
-6.0,-1.0,3.34
-13.0,65.0,3.341
-16.0,112.0,3.342
-10.0,141.0,3.343
1.0,167.0,3.344
10.0,190.0,3.345
13.0,189.0,3.346
18.0,160.0,3.347
28.0,120.0,3.348
35.0,84.0,3.349
35.0,48.0,3.35
31.0,0.0,3.351
26.0,-51.0,3.352
9.0,-90.0,3.353
-20.0,-115.0,3.354
-42.0,-129.0,3.355
-42.0,-127.0,3.356
-34.0,-110.0,3.357
-42.0,-86.0,3.358
-61.0,-65.0,3.359
-73.0,-45.0,3.36
-69.0,-24.0,3.361
-51.0,-6.0,3.362
-22.0,0.0,3.363
16.0,8.0,3.364
49.0,29.0,3.365
71.0,60.0,3.366
88.0,87.0,3.367
105.0,107.0,3.368
107.0,115.0,3.369
92.0,103.0,3.37
75.0,73.0,3.371
65.0,50.0,3.372
56.0,50.0,3.373
38.0,68.0,3.374
18.0,85.0,3.375
8.0,86.0,3.376
9.0,78.0,3.377
14.0,57.0,3.378
20.0,39.0,3.379
24.0,37.0,3.38
26.0,52.0,3.381
31.0,76.0,3.382
46.0,98.0,3.383
62.0,103.0,3.384
64.0,68.0,3.385
58.0,-25.0,3.386
53.0,-159.0,3.387
51.0,-283.0,3.388
41.0,-353.0,3.389
25.0,-368.0,3.39
16.0,-353.0,3.391
10.0,-319.0,3.392
-4.0,-268.0,3.393
-30.0,-201.0,3.394
-58.0,-124.0,3.395
-74.0,-44.0,3.396
-79.0,28.0,3.397
-81.0,83.0,3.398
-83.0,109.0,3.399
-82.0,115.0,3.4
-77.0,115.0,3.401
-66.0,122.0,3.402
-51.0,131.0,3.403
-38.0,138.0,3.404
-32.0,150.0,3.405
-26.0,169.0,3.406
-12.0,185.0,3.407
12.0,182.0,3.408
30.0,164.0,3.409
32.0,143.0,3.41
24.0,121.0,3.411
19.0,87.0,3.412
17.0,35.0,3.413
15.0,-22.0,3.414
9.0,-68.0,3.415
3.0,-98.0,3.416
-2.0,-114.0,3.417
-9.0,-121.0,3.418
-15.0,-111.0,3.419
-22.0,-84.0,3.42
-23.0,-51.0,3.421
-12.0,-18.0,3.422
6.0,13.0,3.423
20.0,39.0,3.424
18.0,55.0,3.425
7.0,57.0,3.426
0.0,46.0,3.427
3.0,28.0,3.428
14.0,13.0,3.429
26.0,7.0,3.43
35.0,1.0,3.431
37.0,-8.0,3.432
28.0,-13.0,3.433
17.0,-9.0,3.434
11.0,0.0,3.435
13.0,3.0,3.436
16.0,4.0,3.437
10.0,5.0,3.438
2.0,7.0,3.439
0.0,2.0,3.44
9.0,-5.0,3.441
27.0,-4.0,3.442
50.0,6.0,3.443
69.0,19.0,3.444
78.0,41.0,3.445
76.0,71.0,3.446
72.0,93.0,3.447
76.0,93.0,3.448
82.0,79.0,3.449
83.0,60.0,3.45
76.0,32.0,3.451
66.0,-5.0,3.452
54.0,-48.0,3.453
48.0,-83.0,3.454
49.0,-115.0,3.455
58.0,-155.0,3.456
68.0,-199.0,3.457
83.0,-236.0,3.458
106.0,-258.0,3.459
125.0,-260.0,3.46
117.0,-235.0,3.461
87.0,-169.0,3.462
61.0,-82.0,3.463
53.0,-7.0,3.464
44.0,50.0,3.465
19.0,109.0,3.466
0.0,174.0,3.467
5.0,222.0,3.468
18.0,234.0,3.469
17.0,212.0,3.47
12.0,175.0,3.471
13.0,128.0,3.472
13.0,74.0,3.473
2.0,30.0,3.474
-4.0,8.0,3.475
4.0,-1.0,3.476
14.0,-10.0,3.477
5.0,-28.0,3.478
-18.0,-49.0,3.479
-50.0,-73.0,3.48
-86.0,-103.0,3.481
-115.0,-134.0,3.482
-121.0,-166.0,3.483
-108.0,-199.0,3.484
-97.0,-214.0,3.485
-97.0,-189.0,3.486
-92.0,-125.0,3.487
-77.0,-50.0,3.488
-65.0,10.0,3.489
-68.0,56.0,3.49
-78.0,98.0,3.491
-85.0,133.0,3.492
-96.0,157.0,3.493
-111.0,166.0,3.494
-118.0,151.0,3.495
-120.0,117.0,3.496
-121.0,79.0,3.497
-127.0,43.0,3.498
-132.0,18.0,3.499
-129.0,6.0,3.5
-117.0,14.0,3.501
-99.0,57.0,3.502
-72.0,119.0,3.503
-44.0,160.0,3.504
-27.0,163.0,3.505
-23.0,146.0,3.506
-22.0,124.0,3.507
-20.0,91.0,3.508
-19.0,43.0,3.509
-16.0,-8.0,3.51
-12.0,-47.0,3.511
-12.0,-97.0,3.512
-23.0,-181.0,3.513
-42.0,-290.0,3.514
-54.0,-378.0,3.515
-47.0,-410.0,3.516
-26.0,-381.0,3.517
-4.0,-297.0,3.518
6.0,-181.0,3.519
2.0,-70.0,3.52
-5.0,4.0,3.521
-4.0,51.0,3.522
7.0,93.0,3.523
14.0,139.0,3.524
4.0,179.0,3.525
-10.0,202.0,3.526
-11.0,220.0,3.527
-4.0,248.0,3.528
-7.0,288.0,3.529
-21.0,312.0,3.53
-21.0,291.0,3.531
3.0,229.0,3.532
38.0,162.0,3.533
71.0,122.0,3.534
94.0,94.0,3.535
104.0,56.0,3.536
94.0,19.0,3.537
66.0,-1.0,3.538
43.0,-6.0,3.539
25.0,-32.0,3.54
5.0,-96.0,3.541
-10.0,-163.0,3.542
-8.0,-220.0,3.543
-8.0,-275.0,3.544
-36.0,-319.0,3.545
-71.0,-321.0,3.546
-67.0,-280.0,3.547
-16.0,-232.0,3.548
36.0,-196.0,3.549
54.0,-162.0,3.55
50.0,-132.0,3.551
42.0,-120.0,3.552
32.0,-114.0,3.553
9.0,-79.0,3.554
-19.0,-15.0,3.555
-44.0,45.0,3.556
-61.0,84.0,3.557
-80.0,118.0,3.558
-103.0,153.0,3.559
-119.0,173.0,3.56
-107.0,169.0,3.561
-61.0,172.0,3.562
-3.0,200.0,3.563
32.0,234.0,3.564
48.0,237.0,3.565
66.0,195.0,3.566
92.0,118.0,3.567
104.0,32.0,3.568
83.0,-35.0,3.569
43.0,-71.0,3.57
-3.0,-78.0,3.571
-55.0,-74.0,3.572
-115.0,-74.0,3.573
-166.0,-84.0,3.574
-192.0,-94.0,3.575
-199.0,-91.0,3.576
-201.0,-73.0,3.577
-197.0,-45.0,3.578
-175.0,-17.0,3.579
-144.0,-2.0,3.58
-90.0,-4.0,3.581
-39.0,-10.0,3.582
-1.0,-17.0,3.583
32.0,-29.0,3.584
54.0,-57.0,3.585
77.0,-92.0,3.586
99.0,-111.0,3.587
119.0,-95.0,3.588
131.0,-49.0,3.589
135.0,8.0,3.59
113.0,62.0,3.591
91.0,92.0,3.592
71.0,93.0,3.593
57.0,76.0,3.594
66.0,69.0,3.595
75.0,80.0,3.596
80.0,89.0,3.597
83.0,79.0,3.598
71.0,60.0,3.599
61.0,52.0,3.6
66.0,50.0,3.601
91.0,45.0,3.602
120.0,34.0,3.603
142.0,25.0,3.604
154.0,22.0,3.605
161.0,19.0,3.606
168.0,12.0,3.607
170.0,9.0,3.608
164.0,9.0,3.609
150.0,9.0,3.61
131.0,1.0,3.611
110.0,-8.0,3.612
89.0,-15.0,3.613
68.0,-15.0,3.614
50.0,-10.0,3.615
36.0,-5.0,3.616
23.0,-3.0,3.617
4.0,-6.0,3.618
-16.0,-11.0,3.619
-32.0,-12.0,3.62
-33.0,-13.0,3.621
-21.0,-13.0,3.622
-1.0,-17.0,3.623
16.0,-22.0,3.624
25.0,-21.0,3.625
30.0,-20.0,3.626
36.0,-23.0,3.627
43.0,-27.0,3.628
44.0,-27.0,3.629
40.0,-21.0,3.63
24.0,-17.0,3.631
0.0,-14.0,3.632
-22.0,-11.0,3.633
-38.0,-6.0,3.634
-43.0,-1.0,3.635
-48.0,2.0,3.636
-56.0,6.0,3.637
-69.0,6.0,3.638
-76.0,5.0,3.639
-74.0,1.0,3.64
-64.0,-4.0,3.641
-50.0,-10.0,3.642
-23.0,-11.0,3.643
8.0,-12.0,3.644
30.0,-10.0,3.645
35.0,-10.0,3.646
40.0,-10.0,3.647
54.0,-3.0,3.648
66.0,19.0,3.649
66.0,51.0,3.65
48.0,77.0,3.651
19.0,83.0,3.652
-14.0,69.0,3.653
-47.0,49.0,3.654
-68.0,37.0,3.655
-75.0,33.0,3.656
-73.0,30.0,3.657
-74.0,17.0,3.658
-73.0,-5.0,3.659
-69.0,-36.0,3.66
-60.0,-74.0,3.661
-43.0,-104.0,3.662
-21.0,-123.0,3.663
-4.0,-131.0,3.664
-3.0,-133.0,3.665
-4.0,-138.0,3.666
7.0,-144.0,3.667
33.0,-144.0,3.668
51.0,-123.0,3.669
53.0,-77.0,3.67
41.0,-10.0,3.671
24.0,74.0,3.672
11.0,162.0,3.673
5.0,223.0,3.674
8.0,227.0,3.675
12.0,176.0,3.676
9.0,115.0,3.677
5.0,67.0,3.678
5.0,38.0,3.679
0.0,9.0,3.68
-9.0,-27.0,3.681
-3.0,-58.0,3.682
34.0,-87.0,3.683
90.0,-126.0,3.684
138.0,-173.0,3.685
174.0,-200.0,3.686
201.0,-185.0,3.687
213.0,-137.0,3.688
203.0,-82.0,3.689
185.0,-39.0,3.69
174.0,-10.0,3.691
154.0,16.0,3.692
115.0,55.0,3.693
68.0,111.0,3.694
40.0,175.0,3.695
25.0,224.0,3.696
9.0,245.0,3.697
-9.0,228.0,3.698
-10.0,193.0,3.699
3.0,164.0,3.7
15.0,147.0,3.701
23.0,132.0,3.702
36.0,93.0,3.703
44.0,34.0,3.704
29.0,-31.0,3.705
1.0,-99.0,3.706
-21.0,-170.0,3.707
-37.0,-222.0,3.708
-57.0,-224.0,3.709
-79.0,-178.0,3.71
-92.0,-125.0,3.711
-107.0,-95.0,3.712
-136.0,-83.0,3.713
-170.0,-77.0,3.714
-191.0,-81.0,3.715
-205.0,-98.0,3.716
-222.0,-109.0,3.717
-242.0,-106.0,3.718
-250.0,-93.0,3.719
-241.0,-71.0,3.72
-211.0,-38.0,3.721
-148.0,15.0,3.722
-63.0,69.0,3.723
6.0,113.0,3.724
33.0,155.0,3.725
33.0,196.0,3.726
35.0,229.0,3.727
42.0,261.0,3.728
44.0,314.0,3.729
39.0,383.0,3.73
37.0,411.0,3.731
30.0,362.0,3.732
10.0,272.0,3.733
-10.0,196.0,3.734
-20.0,129.0,3.735
-26.0,32.0,3.736
-44.0,-97.0,3.737
-78.0,-261.0,3.738
-108.0,-442.0,3.739
-126.0,-622.0,3.74
-131.0,-758.0,3.741
-129.0,-786.0,3.742
-124.0,-702.0,3.743
-114.0,-538.0,3.744
-95.0,-335.0,3.745
-57.0,-130.0,3.746
-11.0,24.0,3.747
24.0,103.0,3.748
34.0,142.0,3.749
29.0,180.0,3.75
15.0,207.0,3.751
-7.0,199.0,3.752
-30.0,182.0,3.753
-43.0,187.0,3.754
-45.0,206.0,3.755
-50.0,212.0,3.756
-59.0,218.0,3.757
-62.0,229.0,3.758
-55.0,224.0,3.759
-60.0,182.0,3.76
-94.0,126.0,3.761
-158.0,98.0,3.762
-238.0,90.0,3.763
-297.0,68.0,3.764
-293.0,37.0,3.765
-221.0,10.0,3.766
-140.0,-14.0,3.767
-98.0,-46.0,3.768
-79.0,-67.0,3.769
-41.0,-60.0,3.77
0.0,-42.0,3.771
11.0,-33.0,3.772
-3.0,-29.0,3.773
-5.0,-16.0,3.774
2.0,-5.0,3.775
3.0,-4.0,3.776
6.0,-3.0,3.777
22.0,2.0,3.778
44.0,4.0,3.779
62.0,-3.0,3.78
100.0,-7.0,3.781
170.0,6.0,3.782
242.0,19.0,3.783
274.0,15.0,3.784
273.0,3.0,3.785
276.0,0.0,3.786
291.0,9.0,3.787
301.0,16.0,3.788
297.0,20.0,3.789
282.0,18.0,3.79
260.0,12.0,3.791
230.0,5.0,3.792
201.0,3.0,3.793
174.0,-1.0,3.794
145.0,-12.0,3.795
124.0,-27.0,3.796
119.0,-30.0,3.797
116.0,-30.0,3.798
107.0,-33.0,3.799
95.0,-41.0,3.8
102.0,-43.0,3.801
130.0,-34.0,3.802
161.0,-28.0,3.803
175.0,-27.0,3.804
162.0,-25.0,3.805
110.0,-16.0,3.806
43.0,-9.0,3.807
4.0,-3.0,3.808
29.0,5.0,3.809
76.0,16.0,3.81
84.0,15.0,3.811
42.0,-2.0,3.812
-3.0,-25.0,3.813
-18.0,-39.0,3.814
-14.0,-34.0,3.815
-5.0,-14.0,3.816
3.0,10.0,3.817
3.0,16.0,3.818
-11.0,4.0,3.819
-20.0,-4.0,3.82
4.0,8.0,3.821
46.0,27.0,3.822
73.0,25.0,3.823
78.0,7.0,3.824
82.0,3.0,3.825
84.0,7.0,3.826
70.0,-4.0,3.827
50.0,-28.0,3.828
44.0,-33.0,3.829
50.0,-14.0,3.83
39.0,2.0,3.831
4.0,11.0,3.832
-46.0,25.0,3.833
-118.0,39.0,3.834
-208.0,36.0,3.835
-278.0,13.0,3.836
-294.0,-12.0,3.837
-281.0,-35.0,3.838
-282.0,-53.0,3.839
-291.0,-63.0,3.84
-260.0,-58.0,3.841
-190.0,-40.0,3.842
-127.0,-25.0,3.843
-92.0,-14.0,3.844
-62.0,5.0,3.845
-36.0,37.0,3.846
-39.0,63.0,3.847
-62.0,75.0,3.848
-64.0,89.0,3.849
-37.0,116.0,3.85
-22.0,138.0,3.851
-31.0,142.0,3.852
-23.0,126.0,3.853
32.0,104.0,3.854
121.0,86.0,3.855
205.0,77.0,3.856
258.0,77.0,3.857
276.0,68.0,3.858
275.0,57.0,3.859
275.0,57.0,3.86
284.0,51.0,3.861
279.0,13.0,3.862
238.0,-63.0,3.863
165.0,-128.0,3.864
78.0,-150.0,3.865
1.0,-171.0,3.866
-44.0,-241.0,3.867
-50.0,-332.0,3.868
-42.0,-381.0,3.869
-58.0,-372.0,3.87
-93.0,-338.0,3.871
-112.0,-280.0,3.872
-111.0,-174.0,3.873
-112.0,-46.0,3.874
-118.0,42.0,3.875
-111.0,61.0,3.876
-93.0,47.0,3.877
-94.0,40.0,3.878
-116.0,55.0,3.879
-119.0,78.0,3.88
-79.0,122.0,3.881
-18.0,163.0,3.882
33.0,196.0,3.883
72.0,223.0,3.884
98.0,235.0,3.885
102.0,245.0,3.886
84.0,252.0,3.887
65.0,250.0,3.888
43.0,219.0,3.889
-18.0,180.0,3.89
-122.0,115.0,3.891
-207.0,52.0,3.892
-214.0,-2.0,3.893
-164.0,-65.0,3.894
-125.0,-149.0,3.895
-130.0,-228.0,3.896
-165.0,-292.0,3.897
-250.0,-338.0,3.898
-394.0,-309.0,3.899
-522.0,-249.0,3.9
-494.0,-153.0,3.901
-296.0,15.0,3.902
-82.0,245.0,3.903
18.0,456.0,3.904
77.0,562.0,3.905
221.0,567.0,3.906
412.0,538.0,3.907
490.0,514.0,3.908
387.0,466.0,3.909
177.0,339.0,3.91
-68.0,111.0,3.911
-327.0,-180.0,3.912
-605.0,-483.0,3.913
-974.0,-757.0,3.914
-1526.0,-970.0,3.915
-2160.0,-1064.0,3.916
-2510.0,-1000.0,3.917
-2344.0,-783.0,3.918
-1832.0,-509.0,3.919
-1381.0,-278.0,3.92
-1111.0,-124.0,3.921
-805.0,-5.0,3.922
-357.0,100.0,3.923
63.0,171.0,3.924
342.0,190.0,3.925
617.0,172.0,3.926
1028.0,151.0,3.927
1503.0,131.0,3.928
1895.0,93.0,3.929
2159.0,28.0,3.93
2324.0,-43.0,3.931
2425.0,-92.0,3.932
2474.0,-98.0,3.933
2446.0,-47.0,3.934
2290.0,70.0,3.935
2030.0,245.0,3.936
1777.0,441.0,3.937
1536.0,633.0,3.938
1255.0,771.0,3.939
907.0,815.0,3.94
585.0,760.0,3.941
365.0,657.0,3.942
201.0,557.0,3.943
25.0,478.0,3.944
-136.0,394.0,3.945
-237.0,254.0,3.946
-285.0,30.0,3.947
-300.0,-247.0,3.948
-277.0,-504.0,3.949
-236.0,-688.0,3.95
-223.0,-796.0,3.951
-230.0,-849.0,3.952
-211.0,-846.0,3.953
-185.0,-798.0,3.954
-233.0,-733.0,3.955
-368.0,-665.0,3.956
-506.0,-572.0,3.957
-612.0,-407.0,3.958
-693.0,-166.0,3.959
-758.0,118.0,3.96
-779.0,387.0,3.961
-751.0,573.0,3.962
-726.0,630.0,3.963
-747.0,594.0,3.964
-790.0,557.0,3.965
-798.0,556.0,3.966
-744.0,536.0,3.967
-657.0,443.0,3.968
-595.0,315.0,3.969
-589.0,223.0,3.97
-607.0,167.0,3.971
-600.0,93.0,3.972
-564.0,-17.0,3.973
-527.0,-123.0,3.974
-490.0,-186.0,3.975
-430.0,-221.0,3.976
-362.0,-274.0,3.977
-312.0,-378.0,3.978
-274.0,-482.0,3.979
-203.0,-510.0,3.98
-96.0,-431.0,3.981
-18.0,-295.0,3.982
-20.0,-183.0,3.983
-105.0,-118.0,3.984
-279.0,-65.0,3.985
-541.0,1.0,3.986
-765.0,78.0,3.987
-731.0,167.0,3.988
-368.0,269.0,3.989
74.0,351.0,3.99
225.0,370.0,3.991
-54.0,326.0,3.992
-610.0,254.0,3.993
-1299.0,174.0,3.994
-2130.0,72.0,3.995
-3027.0,-46.0,3.996
-3628.0,-143.0,3.997
-3654.0,-203.0,3.998
-3147.0,-220.0,3.999
-2484.0,-203.0,4.0
-1889.0,-159.0,4.001
-1262.0,-88.0,4.002
-533.0,-1.0,4.003
143.0,86.0,4.004
653.0,163.0,4.005
1102.0,209.0,4.006
1596.0,211.0,4.007
2079.0,181.0,4.008
2503.0,141.0,4.009
2941.0,100.0,4.01
3418.0,51.0,4.011
3814.0,8.0,4.012
4000.0,-3.0,4.013
4000.0,20.0,4.014
4000.0,51.0,4.015
4000.0,67.0,4.016
3889.0,73.0,4.017
3622.0,80.0,4.018
3326.0,90.0,4.019
2989.0,115.0,4.02
2624.0,180.0,4.021
2266.0,298.0,4.022
1912.0,418.0,4.023
1541.0,475.0,4.024
1163.0,447.0,4.025
808.0,349.0,4.026
467.0,190.0,4.027
138.0,-31.0,4.028
-128.0,-297.0,4.029
-309.0,-573.0,4.03
-474.0,-824.0,4.031
-688.0,-1007.0,4.032
-902.0,-1050.0,4.033
-1030.0,-917.0,4.034
-1087.0,-668.0,4.035
-1156.0,-411.0,4.036
-1253.0,-210.0,4.037
-1347.0,-39.0,4.038
-1389.0,94.0,4.039
-1366.0,169.0,4.04
-1281.0,188.0,4.041
-1180.0,182.0,4.042
-1139.0,148.0,4.043
-1176.0,82.0,4.044
-1211.0,32.0,4.045
-1154.0,70.0,4.046
-1003.0,188.0,4.047
-822.0,297.0,4.048
-665.0,333.0,4.049
-554.0,302.0,4.05
-480.0,227.0,4.051
-430.0,122.0,4.052
-400.0,21.0,4.053
-402.0,-29.0,4.054
-441.0,-41.0,4.055
-479.0,-63.0,4.056
-488.0,-110.0,4.057
-493.0,-145.0,4.058
-520.0,-119.0,4.059
-541.0,-25.0,4.06
-501.0,109.0,4.061
-419.0,228.0,4.062
-368.0,243.0,4.063
-396.0,103.0,4.064
-490.0,-135.0,4.065
-609.0,-357.0,4.066
-688.0,-499.0,4.067
-666.0,-550.0,4.068
-546.0,-496.0,4.069
-425.0,-326.0,4.07
-386.0,-110.0,4.071
-405.0,47.0,4.072
-426.0,126.0,4.073
-475.0,181.0,4.074
-598.0,227.0,4.075
-742.0,224.0,4.076
-782.0,176.0,4.077
-682.0,133.0,4.078
-530.0,134.0,4.079
-413.0,162.0,4.08
-313.0,190.0,4.081
-180.0,226.0,4.082
-31.0,259.0,4.083
92.0,268.0,4.084
188.0,262.0,4.085
285.0,275.0,4.086
388.0,295.0,4.087
469.0,294.0,4.088
518.0,268.0,4.089
547.0,243.0,4.09
559.0,222.0,4.091
554.0,183.0,4.092
537.0,120.0,4.093
527.0,44.0,4.094
526.0,-32.0,4.095
522.0,-97.0,4.096
511.0,-136.0,4.097
486.0,-155.0,4.098
452.0,-171.0,4.099
417.0,-209.0,4.1
388.0,-277.0,4.101
365.0,-348.0,4.102
341.0,-373.0,4.103
311.0,-293.0,4.104
283.0,-95.0,4.105
260.0,153.0,4.106
245.0,335.0,4.107
238.0,377.0,4.108
237.0,280.0,4.109
232.0,86.0,4.11
210.0,-154.0,4.111
171.0,-370.0,4.112
125.0,-475.0,4.113
77.0,-457.0,4.114
35.0,-391.0,4.115
0.0,-347.0,4.116
-26.0,-312.0,4.117
-59.0,-248.0,4.118
-92.0,-163.0,4.119
-115.0,-100.0,4.12
-119.0,-51.0,4.121
-111.0,37.0,4.122
-99.0,162.0,4.123
-87.0,257.0,4.124
-74.0,276.0,4.125
-70.0,241.0,4.126
-75.0,200.0,4.127
-77.0,176.0,4.128
-69.0,156.0,4.129
-64.0,120.0,4.13
-76.0,54.0,4.131
-96.0,-51.0,4.132
-106.0,-173.0,4.133
-108.0,-261.0,4.134
-118.0,-264.0,4.135
-135.0,-172.0,4.136
-147.0,-45.0,4.137
-151.0,52.0,4.138
-142.0,79.0,4.139
-129.0,53.0,4.14
-113.0,35.0,4.141
-100.0,68.0,4.142
-92.0,136.0,4.143
-84.0,186.0,4.144
-66.0,190.0,4.145
-45.0,167.0,4.146
-25.0,154.0,4.147
-7.0,148.0,4.148
6.0,114.0,4.149
2.0,34.0,4.15
-16.0,-75.0,4.151
-30.0,-173.0,4.152
-35.0,-230.0,4.153
-44.0,-225.0,4.154
-60.0,-151.0,4.155
-67.0,-39.0,4.156
-52.0,54.0,4.157
-28.0,110.0,4.158
-14.0,157.0,4.159
-8.0,217.0,4.16
6.0,265.0,4.161
35.0,273.0,4.162
71.0,248.0,4.163
104.0,223.0,4.164
134.0,206.0,4.165
149.0,200.0,4.166
148.0,211.0,4.167
134.0,236.0,4.168
117.0,220.0,4.169
97.0,111.0,4.17
72.0,-62.0,4.171
46.0,-214.0,4.172
26.0,-315.0,4.173
10.0,-420.0,4.174
-7.0,-572.0,4.175
-21.0,-718.0,4.176
-29.0,-770.0,4.177
-34.0,-706.0,4.178
-32.0,-557.0,4.179
-14.0,-353.0,4.18
14.0,-123.0,4.181
41.0,94.0,4.182
62.0,257.0,4.183
89.0,365.0,4.184
116.0,440.0,4.185
129.0,469.0,4.186
125.0,448.0,4.187
122.0,401.0,4.188
126.0,347.0,4.189
120.0,264.0,4.19
94.0,135.0,4.191
67.0,1.0,4.192
54.0,-72.0,4.193
52.0,-73.0,4.194
47.0,-46.0,4.195
41.0,-32.0,4.196
33.0,-53.0,4.197
11.0,-135.0,4.198
-17.0,-247.0,4.199
-32.0,-330.0,4.2
-3.0,-325.0,4.201
22.0,-288.0,4.202
36.0,-157.0,4.203
38.0,-29.0,4.204
-3.0,87.0,4.205
-46.0,187.0,4.206
-94.0,241.0,4.207
-120.0,284.0,4.208
-81.0,295.0,4.209
-47.0,287.0,4.21
-31.0,221.0,4.211
-17.0,141.0,4.212
-11.0,19.0,4.213
-8.0,-107.0,4.214
-14.0,-247.0,4.215
-21.0,-355.0,4.216
-30.0,-365.0,4.217
-35.0,-353.0,4.218
-36.0,-241.0,4.219
-44.0,-47.0,4.22
-32.0,195.0,4.221
4.0,391.0,4.222
38.0,447.0,4.223
50.0,372.0,4.224
56.0,245.0,4.225
78.0,113.0,4.226
110.0,-44.0,4.227
128.0,-229.0,4.228
126.0,-381.0,4.229
111.0,-433.0,4.23
93.0,-369.0,4.231
70.0,-229.0,4.232
42.0,-77.0,4.233
7.0,32.0,4.234
-29.0,82.0,4.235
-56.0,106.0,4.236
-63.0,142.0,4.237
-58.0,190.0,4.238
-49.0,206.0,4.239
-46.0,171.0,4.24
-38.0,138.0,4.241
-19.0,158.0,4.242
7.0,206.0,4.243
23.0,231.0,4.244
16.0,239.0,4.245
-11.0,255.0,4.246
-41.0,243.0,4.247
-56.0,142.0,4.248
-46.0,-25.0,4.249
-32.0,-173.0,4.25
-35.0,-263.0,4.251
-56.0,-335.0,4.252
-72.0,-417.0,4.253
-80.0,-475.0,4.254
-90.0,-476.0,4.255
-104.0,-415.0,4.256
-100.0,-305.0,4.257
-75.0,-155.0,4.258
-53.0,-15.0,4.259
-47.0,68.0,4.26
-39.0,105.0,4.261
-9.0,137.0,4.262
29.0,157.0,4.263
39.0,152.0,4.264
25.0,137.0,4.265
14.0,138.0,4.266
15.0,140.0,4.267
11.0,121.0,4.268
-6.0,94.0,4.269
-26.0,87.0,4.27
-34.0,85.0,4.271
-34.0,71.0,4.272
-37.0,62.0,4.273
-44.0,75.0,4.274
-48.0,92.0,4.275
-53.0,87.0,4.276
-66.0,66.0,4.277
-90.0,46.0,4.278
-110.0,34.0,4.279
-115.0,19.0,4.28
-97.0,2.0,4.281
-65.0,-13.0,4.282
-29.0,-36.0,4.283
5.0,-60.0,4.284
30.0,-60.0,4.285
45.0,-31.0,4.286
53.0,-2.0,4.287
58.0,12.0,4.288
61.0,26.0,4.289
55.0,55.0,4.29
36.0,71.0,4.291
12.0,54.0,4.292
-3.0,14.0,4.293
-2.0,-10.0,4.294
7.0,0.0,4.295
14.0,42.0,4.296
18.0,92.0,4.297
23.0,129.0,4.298
30.0,122.0,4.299
24.0,48.0,4.3
3.0,-85.0,4.301
-27.0,-241.0,4.302
-52.0,-363.0,4.303
-68.0,-385.0,4.304
-81.0,-294.0,4.305
-108.0,-151.0,4.306
-175.0,-57.0,4.307
-289.0,-42.0,4.308
-406.0,-52.0,4.309
-459.0,-45.0,4.31
-448.0,-37.0,4.311
-475.0,-42.0,4.312
-620.0,-26.0,4.313
-792.0,52.0,4.314
-806.0,162.0,4.315
-629.0,227.0,4.316
-443.0,209.0,4.317
-396.0,128.0,4.318
-464.0,46.0,4.319
-501.0,-11.0,4.32
-438.0,-56.0,4.321
-292.0,-90.0,4.322
-104.0,-103.0,4.323
77.0,-86.0,4.324
183.0,-44.0,4.325
208.0,14.0,4.326
247.0,78.0,4.327
354.0,125.0,4.328
466.0,147.0,4.329
519.0,169.0,4.33
548.0,194.0,4.331
599.0,165.0,4.332
648.0,51.0,4.333
665.0,-55.0,4.334
688.0,-49.0,4.335
759.0,21.0,4.336
841.0,8.0,4.337
894.0,-131.0,4.338
910.0,-267.0,4.339
897.0,-288.0,4.34
872.0,-240.0,4.341
856.0,-213.0,4.342
862.0,-192.0,4.343
855.0,-108.0,4.344
793.0,23.0,4.345
706.0,108.0,4.346
647.0,97.0,4.347
612.0,52.0,4.348
566.0,50.0,4.349
515.0,91.0,4.35
486.0,114.0,4.351
442.0,86.0,4.352
332.0,45.0,4.353
187.0,43.0,4.354
83.0,92.0,4.355
19.0,149.0,4.356
-58.0,160.0,4.357
-160.0,95.0,4.358
-232.0,1.0,4.359
-297.0,-32.0,4.36
-342.0,31.0,4.361
-383.0,115.0,4.362
-413.0,95.0,4.363
-441.0,-34.0,4.364
-461.0,-149.0,4.365
-482.0,-166.0,4.366
-509.0,-129.0,4.367
-526.0,-111.0,4.368
-512.0,-102.0,4.369
-512.0,-46.0,4.37
-556.0,49.0,4.371
-602.0,125.0,4.372
-657.0,140.0,4.373
-693.0,101.0,4.374
-667.0,54.0,4.375
-647.0,39.0,4.376
-643.0,51.0,4.377
-658.0,30.0,4.378
-736.0,-49.0,4.379
-749.0,-114.0,4.38
-679.0,-78.0,4.381
-611.0,14.0,4.382
-602.0,34.0,4.383
-600.0,-27.0,4.384
-551.0,-51.0,4.385
-493.0,5.0,4.386
-471.0,53.0,4.387
-424.0,18.0,4.388
-277.0,-46.0,4.389
-88.0,-74.0,4.39
30.0,-67.0,4.391
77.0,-33.0,4.392
133.0,54.0,4.393
207.0,169.0,4.394
247.0,215.0,4.395
264.0,143.0,4.396
320.0,25.0,4.397
417.0,-73.0,4.398
478.0,-142.0,4.399
477.0,-193.0,4.4
469.0,-201.0,4.401
488.0,-140.0,4.402
502.0,-45.0,4.403
489.0,26.0,4.404
473.0,75.0,4.405
480.0,116.0,4.406
492.0,125.0,4.407
493.0,71.0,4.408
492.0,-6.0,4.409
506.0,-59.0,4.41
529.0,-90.0,4.411
543.0,-121.0,4.412
534.0,-125.0,4.413
508.0,-74.0,4.414
486.0,-6.0,4.415
487.0,20.0,4.416
496.0,22.0,4.417
478.0,47.0,4.418
424.0,93.0,4.419
355.0,107.0,4.42
308.0,76.0,4.421
279.0,47.0,4.422
250.0,37.0,4.423
214.0,20.0,4.424
180.0,-19.0,4.425
144.0,-52.0,4.426
107.0,-59.0,4.427
74.0,-43.0,4.428
52.0,-25.0,4.429
35.0,-18.0,4.43
13.0,-16.0,4.431
-15.0,-9.0,4.432
-50.0,8.0,4.433
-109.0,24.0,4.434
-214.0,21.0,4.435
-364.0,4.0,4.436
-503.0,-2.0,4.437
-592.0,6.0,4.438
-619.0,11.0,4.439
-632.0,6.0,4.44
-682.0,6.0,4.441
-749.0,18.0,4.442
-767.0,26.0,4.443
-709.0,19.0,4.444
-614.0,14.0,4.445
-533.0,18.0,4.446
-475.0,19.0,4.447
-423.0,8.0,4.448
-384.0,-4.0,4.449
-387.0,-8.0,4.45
-438.0,-10.0,4.451
-505.0,-11.0,4.452
-553.0,-10.0,4.453
-589.0,-5.0,4.454
-620.0,-4.0,4.455
-629.0,-6.0,4.456
-611.0,-5.0,4.457
-599.0,-2.0,4.458
-604.0,1.0,4.459
-574.0,4.0,4.46
-447.0,7.0,4.461
-254.0,12.0,4.462
-76.0,20.0,4.463
60.0,26.0,4.464
181.0,25.0,4.465
295.0,20.0,4.466
388.0,4.0,4.467
472.0,-9.0,4.468
567.0,-8.0,4.469
656.0,-7.0,4.47
705.0,-7.0,4.471
729.0,-8.0,4.472
761.0,-8.0,4.473
790.0,-10.0,4.474
789.0,-14.0,4.475
760.0,-14.0,4.476
738.0,3.0,4.477
718.0,21.0,4.478
680.0,21.0,4.479
626.0,-1.0,4.48
585.0,-24.0,4.481
560.0,-29.0,4.482
529.0,-18.0,4.483
482.0,-10.0,4.484
433.0,-9.0,4.485
389.0,-12.0,4.486
341.0,-12.0,4.487
285.0,-9.0,4.488
228.0,-1.0,4.489
179.0,2.0,4.49
134.0,-2.0,4.491
85.0,-5.0,4.492
39.0,-1.0,4.493
0.0,0.0,4.494
-29.0,-5.0,4.495
-50.0,-10.0,4.496
-60.0,-4.0,4.497
-63.0,4.0,4.498
-66.0,7.0,4.499
-76.0,4.0,4.5
-83.0,3.0,4.501
-80.0,8.0,4.502
-68.0,10.0,4.503
-55.0,10.0,4.504
-42.0,16.0,4.505
-31.0,24.0,4.506
-26.0,24.0,4.507
-32.0,13.0,4.508
-51.0,6.0,4.509
-74.0,4.0,4.51
-96.0,0.0,4.511
-111.0,-9.0,4.512
-120.0,-13.0,4.513
-131.0,-8.0,4.514
-144.0,-3.0,4.515
-162.0,-4.0,4.516
-176.0,-14.0,4.517
-186.0,-25.0,4.518
-197.0,-25.0,4.519
-209.0,-24.0,4.52
-205.0,-20.0,4.521
-182.0,-15.0,4.522
-151.0,-13.0,4.523
-114.0,-10.0,4.524
-57.0,-6.0,4.525
31.0,0.0,4.526
128.0,13.0,4.527
192.0,25.0,4.528
216.0,31.0,4.529
229.0,35.0,4.53
250.0,27.0,4.531
287.0,21.0,4.532
345.0,21.0,4.533
424.0,20.0,4.534
500.0,13.0,4.535
543.0,8.0,4.536
545.0,8.0,4.537
517.0,7.0,4.538
484.0,1.0,4.539
476.0,-4.0,4.54
525.0,-4.0,4.541
615.0,0.0,4.542
685.0,0.0,4.543
687.0,-7.0,4.544
634.0,-10.0,4.545
572.0,-7.0,4.546
512.0,-7.0,4.547
431.0,-15.0,4.548
328.0,-27.0,4.549
230.0,-29.0,4.55
148.0,-22.0,4.551
71.0,-13.0,4.552
0.0,-7.0,4.553
-59.0,-4.0,4.554
-107.0,4.0,4.555
-152.0,15.0,4.556
-193.0,28.0,4.557
-239.0,28.0,4.558
-299.0,14.0,4.559
-388.0,-1.0,4.56
-499.0,-8.0,4.561
-632.0,-4.0,4.562
-808.0,-1.0,4.563
-1002.0,-5.0,4.564
-1131.0,-7.0,4.565
-1141.0,-6.0,4.566
-1095.0,-5.0,4.567
-1110.0,-5.0,4.568
-1207.0,-4.0,4.569
-1301.0,-6.0,4.57
-1347.0,-14.0,4.571
-1425.0,-27.0,4.572
-1609.0,-26.0,4.573
-1817.0,-13.0,4.574
-1851.0,0.0,4.575
-1622.0,7.0,4.576
-1296.0,11.0,4.577
-1051.0,10.0,4.578
-934.0,5.0,4.579
-817.0,-1.0,4.58
-616.0,-5.0,4.581
-414.0,-5.0,4.582
-302.0,-8.0,4.583
-242.0,-13.0,4.584
-163.0,-9.0,4.585
-84.0,2.0,4.586
-47.0,8.0,4.587
-26.0,6.0,4.588
25.0,3.0,4.589
93.0,6.0,4.59
156.0,8.0,4.591
223.0,9.0,4.592
306.0,10.0,4.593
385.0,12.0,4.594
446.0,10.0,4.595
496.0,8.0,4.596
547.0,9.0,4.597
585.0,11.0,4.598
611.0,9.0,4.599
636.0,6.0,4.6
652.0,-3.0,4.601
674.0,-12.0,4.602
715.0,-20.0,4.603
768.0,-27.0,4.604
857.0,-28.0,4.605
939.0,-29.0,4.606
995.0,-27.0,4.607
1033.0,-25.0,4.608
1017.0,-22.0,4.609
992.0,-18.0,4.61
941.0,-15.0,4.611
912.0,-11.0,4.612
949.0,-9.0,4.613
987.0,-7.0,4.614
1030.0,-3.0,4.615
1058.0,0.0,4.616
1037.0,-2.0,4.617
1026.0,-4.0,4.618
1034.0,-2.0,4.619
967.0,-5.0,4.62
814.0,-9.0,4.621
657.0,-5.0,4.622
539.0,0.0,4.623
407.0,-1.0,4.624
229.0,-8.0,4.625
78.0,-12.0,4.626
5.0,-3.0,4.627
-49.0,10.0,4.628
-154.0,14.0,4.629
-288.0,7.0,4.63
-398.0,-3.0,4.631
-495.0,-12.0,4.632
-609.0,-17.0,4.633
-728.0,-16.0,4.634
-831.0,-10.0,4.635
-917.0,0.0,4.636
-978.0,12.0,4.637
-990.0,21.0,4.638
-947.0,29.0,4.639
-892.0,28.0,4.64
-859.0,14.0,4.641
-838.0,-2.0,4.642
-815.0,-13.0,4.643
-808.0,-15.0,4.644
-822.0,-9.0,4.645
-831.0,-5.0,4.646
-809.0,-7.0,4.647
-766.0,-12.0,4.648
-711.0,-14.0,4.649
-633.0,-9.0,4.65
-536.0,0.0,4.651
-443.0,11.0,4.652
-369.0,20.0,4.653
-296.0,25.0,4.654
-215.0,21.0,4.655
-138.0,11.0,4.656
-79.0,2.0,4.657
-23.0,22.0,4.658
42.0,13.0,4.659
98.0,5.0,4.66
124.0,3.0,4.661
154.0,0.0,4.662
194.0,-8.0,4.663
231.0,-14.0,4.664
263.0,-7.0,4.665
292.0,-2.0,4.666
313.0,-4.0,4.667
331.0,-6.0,4.668
335.0,-10.0,4.669
338.0,-14.0,4.67
333.0,-19.0,4.671
327.0,-23.0,4.672
321.0,-23.0,4.673
317.0,-21.0,4.674
318.0,-14.0,4.675
314.0,-10.0,4.676
294.0,-16.0,4.677
271.0,16.0,4.678
257.0,9.0,4.679
263.0,3.0,4.68
270.0,1.0,4.681
267.0,-1.0,4.682
260.0,-8.0,4.683
257.0,-13.0,4.684
246.0,-7.0,4.685
224.0,-3.0,4.686
193.0,-4.0,4.687
158.0,-6.0,4.688
120.0,-10.0,4.689
85.0,-13.0,4.69
54.0,-17.0,4.691
22.0,-20.0,4.692
-17.0,-20.0,4.693
-52.0,-18.0,4.694
-74.0,-13.0,4.695
-87.0,-10.0,4.696
-97.0,-14.0,4.697
-102.0,-19.0,4.698
-92.0,-26.0,4.699
-82.0,-25.0,4.7
-73.0,-16.0,4.701
-65.0,-6.0,4.702
-60.0,3.0,4.703
-57.0,10.0,4.704
-62.0,25.0,4.705
-76.0,44.0,4.706
-116.0,57.0,4.707
-164.0,52.0,4.708
-236.0,32.0,4.709
-303.0,12.0,4.71
-355.0,4.0,4.711
-410.0,3.0,4.712
-475.0,-5.0,4.713
-545.0,-23.0,4.714
-625.0,-36.0,4.715
-639.0,-31.0,4.716
-457.0,-15.0,4.717
-240.0,-5.0,4.718
33.0,-3.0,4.719
170.0,-7.0,4.72
208.0,-14.0,4.721
270.0,-20.0,4.722
400.0,-24.0,4.723
542.0,-28.0,4.724
637.0,-35.0,4.725
688.0,-38.0,4.726
689.0,-30.0,4.727
602.0,-17.0,4.728
431.0,-12.0,4.729
243.0,-10.0,4.73
105.0,-2.0,4.731
35.0,15.0,4.732
6.0,31.0,4.733
-26.0,37.0,4.734
-102.0,40.0,4.735
-210.0,46.0,4.736
-303.0,51.0,4.737
-367.0,41.0,4.738
-420.0,24.0,4.739
-470.0,13.0,4.74
-470.0,13.0,4.741
-397.0,20.0,4.742
-302.0,23.0,4.743
-234.0,20.0,4.744
-175.0,18.0,4.745
-99.0,18.0,4.746
-28.0,14.0,4.747
7.0,6.0,4.748
25.0,-3.0,4.749
50.0,-12.0,4.75
64.0,-20.0,4.751
56.0,-23.0,4.752
49.0,-21.0,4.753
60.0,-15.0,4.754
65.0,-15.0,4.755
41.0,-22.0,4.756
13.0,-26.0,4.757
5.0,-24.0,4.758
27.0,-14.0,4.759
65.0,-4.0,4.76
118.0,3.0,4.761
173.0,8.0,4.762
214.0,11.0,4.763
242.0,11.0,4.764
267.0,12.0,4.765
290.0,11.0,4.766
296.0,10.0,4.767
293.0,14.0,4.768
281.0,22.0,4.769
248.0,22.0,4.77
183.0,7.0,4.771
113.0,-15.0,4.772
63.0,-27.0,4.773
17.0,-24.0,4.774
-53.0,-15.0,4.775
-135.0,-11.0,4.776
-190.0,-9.0,4.777
-211.0,-4.0,4.778
-206.0,6.0,4.779
-172.0,10.0,4.78
-103.0,5.0,4.781
-14.0,2.0,4.782
65.0,5.0,4.783
129.0,8.0,4.784
185.0,5.0,4.785
225.0,0.0,4.786
231.0,-3.0,4.787
208.0,-6.0,4.788
182.0,-12.0,4.789
165.0,-16.0,4.79
149.0,-13.0,4.791
130.0,-8.0,4.792
115.0,-7.0,4.793
97.0,-16.0,4.794
75.0,-30.0,4.795
59.0,-38.0,4.796
56.0,-33.0,4.797
61.0,-19.0,4.798
69.0,2.0,4.799
93.0,25.0,4.8
136.0,39.0,4.801
176.0,45.0,4.802
190.0,42.0,4.803
186.0,28.0,4.804
178.0,12.0,4.805
169.0,6.0,4.806
153.0,9.0,4.807
131.0,19.0,4.808
102.0,39.0,4.809
60.0,66.0,4.81
13.0,77.0,4.811
-22.0,53.0,4.812
-37.0,4.0,4.813
-39.0,-33.0,4.814
-42.0,-43.0,4.815
-54.0,-43.0,4.816
-65.0,-52.0,4.817
-68.0,-71.0,4.818
-49.0,-77.0,4.819
-11.0,-69.0,4.82
27.0,-64.0,4.821
52.0,-73.0,4.822
63.0,-85.0,4.823
72.0,-76.0,4.824
81.0,-37.0,4.825
87.0,17.0,4.826
92.0,70.0,4.827
93.0,104.0,4.828
74.0,111.0,4.829
20.0,88.0,4.83
-60.0,52.0,4.831
-131.0,28.0,4.832
-164.0,28.0,4.833
-170.0,35.0,4.834
-174.0,37.0,4.835
-180.0,43.0,4.836
-172.0,57.0,4.837
-142.0,56.0,4.838
-96.0,19.0,4.839
-50.0,-43.0,4.84
-2.0,-90.0,4.841
46.0,-97.0,4.842
79.0,-92.0,4.843
86.0,-113.0,4.844
75.0,-160.0,4.845
61.0,-194.0,4.846
48.0,-184.0,4.847
35.0,-129.0,4.848
18.0,-64.0,4.849
-5.0,-10.0,4.85
-33.0,29.0,4.851
-57.0,63.0,4.852
-62.0,105.0,4.853
-50.0,169.0,4.854
-35.0,263.0,4.855
-26.0,363.0,4.856
-20.0,424.0,4.857
-9.0,404.0,4.858
12.0,310.0,4.859
41.0,184.0,4.86
77.0,62.0,4.861
112.0,-50.0,4.862
137.0,-161.0,4.863
150.0,-257.0,4.864
151.0,-313.0,4.865
144.0,-326.0,4.866
126.0,-316.0,4.867
91.0,-299.0,4.868
36.0,-267.0,4.869
-41.0,-210.0,4.87
-112.0,-143.0,4.871
-154.0,-92.0,4.872
-166.0,-70.0,4.873
-166.0,-68.0,4.874
-167.0,-71.0,4.875
-174.0,-73.0,4.876
-178.0,-80.0,4.877
-179.0,-96.0,4.878
-167.0,-94.0,4.879
-140.0,-44.0,4.88
-106.0,53.0,4.881
-77.0,165.0,4.882
-46.0,239.0,4.883
-3.0,263.0,4.884
46.0,272.0,4.885
89.0,297.0,4.886
120.0,331.0,4.887
130.0,340.0,4.888
112.0,316.0,4.889
61.0,265.0,4.89
-1.0,187.0,4.891
-48.0,76.0,4.892
-68.0,-41.0,4.893
-78.0,-130.0,4.894
-89.0,-181.0,4.895
-99.0,-214.0,4.896
-101.0,-245.0,4.897
-101.0,-274.0,4.898
-89.0,-289.0,4.899
-54.0,-278.0,4.9
2.0,-239.0,4.901
50.0,-174.0,4.902
69.0,-88.0,4.903
74.0,14.0,4.904
83.0,129.0,4.905
99.0,229.0,4.906
111.0,272.0,4.907
117.0,257.0,4.908
110.0,218.0,4.909
91.0,162.0,4.91
73.0,71.0,4.911
71.0,-40.0,4.912
84.0,-115.0,4.913
90.0,-133.0,4.914
81.0,-137.0,4.915
77.0,-132.0,4.916
92.0,-54.0,4.917
121.0,162.0,4.918
151.0,435.0,4.919
176.0,579.0,4.92
186.0,484.0,4.921
189.0,220.0,4.922
171.0,-67.0,4.923
154.0,-289.0,4.924
138.0,-443.0,4.925
115.0,-549.0,4.926
71.0,-599.0,4.927
21.0,-582.0,4.928
-44.0,-515.0,4.929
-124.0,-423.0,4.93
-240.0,-315.0,4.931
-356.0,-197.0,4.932
-471.0,-91.0,4.933
-540.0,-23.0,4.934
-467.0,24.0,4.935
-398.0,94.0,4.936
-343.0,193.0,4.937
-298.0,294.0,4.938
-261.0,348.0,4.939
-178.0,346.0,4.94
-97.0,329.0,4.941
-80.0,355.0,4.942
-106.0,441.0,4.943
-120.0,547.0,4.944
-109.0,587.0,4.945
-79.0,495.0,4.946
-40.0,278.0,4.947
-39.0,33.0,4.948
-125.0,-146.0,4.949
-243.0,-218.0,4.95
-264.0,-200.0,4.951
-152.0,-132.0,4.952
-24.0,-79.0,4.953
20.0,-118.0,4.954
24.0,-267.0,4.955
63.0,-434.0,4.956
115.0,-498.0,4.957
128.0,-421.0,4.958
127.0,-253.0,4.959
160.0,-71.0,4.96
208.0,56.0,4.961
223.0,117.0,4.962
221.0,128.0,4.963
237.0,129.0,4.964
266.0,119.0,4.965
294.0,48.0,4.966
334.0,-97.0,4.967
391.0,-241.0,4.968
429.0,-309.0,4.969
423.0,-299.0,4.97
404.0,-236.0,4.971
409.0,-117.0,4.972
420.0,41.0,4.973
396.0,165.0,4.974
336.0,208.0,4.975
268.0,202.0,4.976
211.0,194.0,4.977
152.0,174.0,4.978
102.0,135.0,4.979
74.0,107.0,4.98
59.0,114.0,4.981
38.0,142.0,4.982
16.0,159.0,4.983
7.0,164.0,4.984
-5.0,150.0,4.985
-47.0,100.0,4.986
-120.0,44.0,4.987
-193.0,29.0,4.988
-241.0,36.0,4.989
-272.0,11.0,4.99
-300.0,-33.0,4.991
-327.0,-16.0,4.992
-354.0,83.0,4.993
-373.0,186.0,4.994
-371.0,218.0,4.995
-344.0,193.0,4.996
-313.0,159.0,4.997
-286.0,110.0,4.998
-255.0,32.0,4.999
-212.0,-71.0,5.0
-164.0,-169.0,5.001
-129.0,-248.0,5.002
-101.0,-316.0,5.003
-75.0,-372.0,5.004
-51.0,-405.0,5.005
-46.0,-415.0,5.006
-59.0,-415.0,5.007
-75.0,-415.0,5.008
-79.0,-402.0,5.009
-72.0,-368.0,5.01
-74.0,-323.0,5.011
-101.0,-274.0,5.012
-153.0,-197.0,5.013
-211.0,-50.0,5.014
-247.0,148.0,5.015
-246.0,309.0,5.016
-221.0,362.0,5.017
-213.0,329.0,5.018
-246.0,282.0,5.019
-292.0,257.0,5.02
-279.0,236.0,5.021
-199.0,221.0,5.022
-133.0,235.0,5.023
-153.0,276.0,5.024
-234.0,306.0,5.025
-302.0,308.0,5.026
-340.0,292.0,5.027
-376.0,262.0,5.028
-385.0,193.0,5.029
-310.0,76.0,5.03
-167.0,-61.0,5.031
-56.0,-185.0,5.032
-34.0,-280.0,5.033
-46.0,-340.0,5.034
-29.0,-348.0,5.035
9.0,-300.0,5.036
42.0,-217.0,5.037
84.0,-108.0,5.038
150.0,11.0,5.039
220.0,119.0,5.04
265.0,194.0,5.041
292.0,254.0,5.042
323.0,268.0,5.043
351.0,254.0,5.044
363.0,152.0,5.045
362.0,47.0,5.046
357.0,-70.0,5.047
342.0,-159.0,5.048
310.0,-165.0,5.049
268.0,-173.0,5.05
231.0,-183.0,5.051
203.0,-160.0,5.052
187.0,-37.0,5.053
181.0,89.0,5.054
182.0,221.0,5.055
185.0,303.0,5.056
196.0,236.0,5.057
214.0,138.0,5.058
224.0,-55.0,5.059
210.0,-221.0,5.06
191.0,-329.0,5.061
191.0,-391.0,5.062
202.0,-411.0,5.063
192.0,-358.0,5.064
160.0,-232.0,5.065
136.0,-80.0,5.066
126.0,56.0,5.067
106.0,160.0,5.068
63.0,222.0,5.069
23.0,224.0,5.07
6.0,187.0,5.071
-3.0,156.0,5.072
-23.0,143.0,5.073
-42.0,110.0,5.074
-53.0,45.0,5.075
-68.0,1.0,5.076
-95.0,18.0,5.077
-122.0,71.0,5.078
-119.0,87.0,5.079
-97.0,28.0,5.08
-79.0,-71.0,5.081
-67.0,-131.0,5.082
-43.0,-126.0,5.083
-11.0,-100.0,5.084
6.0,-99.0,5.085
-7.0,-105.0,5.086
-33.0,-65.0,5.087
-61.0,27.0,5.088
-94.0,104.0,5.089
-122.0,92.0,5.09
-119.0,-11.0,5.091
-79.0,-123.0,5.092
-38.0,-157.0,5.093
-26.0,-107.0,5.094
-39.0,-33.0,5.095
-46.0,14.0,5.096
-43.0,49.0,5.097
-36.0,118.0,5.098
-12.0,226.0,5.099
37.0,306.0,5.1
95.0,268.0,5.101
131.0,117.0,5.102
139.0,-51.0,5.103
137.0,-128.0,5.104
132.0,-115.0,5.105
122.0,-96.0,5.106
101.0,-117.0,5.107
71.0,-131.0,5.108
23.0,-97.0,5.109
-46.0,-40.0,5.11
-111.0,-3.0,5.111
-151.0,10.0,5.112
-164.0,13.0,5.113
-164.0,6.0,5.114
-158.0,-9.0,5.115
-149.0,-11.0,5.116
-137.0,-1.0,5.117
-130.0,0.0,5.118
-116.0,-8.0,5.119
-95.0,-7.0,5.12
-68.0,6.0,5.121
-48.0,18.0,5.122
-37.0,20.0,5.123
-39.0,23.0,5.124
-58.0,31.0,5.125
-83.0,35.0,5.126
-86.0,32.0,5.127
-54.0,30.0,5.128
-4.0,34.0,5.129
30.0,34.0,5.13
39.0,30.0,5.131
43.0,28.0,5.132
59.0,27.0,5.133
84.0,21.0,5.134
103.0,13.0,5.135
110.0,10.0,5.136
114.0,15.0,5.137
116.0,26.0,5.138
120.0,36.0,5.139
127.0,37.0,5.14
134.0,11.0,5.141
134.0,-15.0,5.142
131.0,-44.0,5.143
130.0,-64.0,5.144
136.0,-51.0,5.145
140.0,-41.0,5.146
135.0,-40.0,5.147
123.0,-32.0,5.148
107.0,-4.0,5.149
85.0,20.0,5.15
60.0,30.0,5.151
35.0,33.0,5.152
10.0,13.0,5.153
-30.0,-7.0,5.154
-93.0,-27.0,5.155
-152.0,-40.0,5.156
-169.0,-28.0,5.157
-154.0,-17.0,5.158
-140.0,-18.0,5.159
-122.0,-20.0,5.16
-90.0,-8.0,5.161
-55.0,8.0,5.162
-12.0,4.0,5.163
-9.0,-10.0,5.164
-131.0,-13.0,5.165
-226.0,-2.0,5.166
-240.0,4.0,5.167
-244.0,4.0,5.168
-216.0,9.0,5.169
-184.0,12.0,5.17
-143.0,6.0,5.171
-93.0,-9.0,5.172
-19.0,-13.0,5.173
34.0,-6.0,5.174
27.0,2.0,5.175
6.0,0.0,5.176
-55.0,-3.0,5.177
-108.0,-5.0,5.178
-104.0,-3.0,5.179
-61.0,-1.0,5.18
-47.0,0.0,5.181
-53.0,4.0,5.182
-3.0,5.0,5.183
96.0,12.0,5.184
156.0,34.0,5.185
146.0,51.0,5.186
139.0,41.0,5.187
162.0,8.0,5.188
167.0,-10.0,5.189
137.0,-4.0,5.19
132.0,2.0,5.191
166.0,-4.0,5.192
188.0,-12.0,5.193
184.0,-7.0,5.194
215.0,4.0,5.195
301.0,12.0,5.196
377.0,25.0,5.197
399.0,41.0,5.198
381.0,43.0,5.199
357.0,38.0,5.2
331.0,8.0,5.201
299.0,-18.0,5.202
268.0,-34.0,5.203
245.0,-47.0,5.204
213.0,-53.0,5.205
171.0,-56.0,5.206
143.0,-42.0,5.207
147.0,-31.0,5.208
155.0,-29.0,5.209
143.0,-25.0,5.21
124.0,-14.0,5.211
133.0,-5.0,5.212
176.0,-5.0,5.213
226.0,-4.0,5.214
257.0,-7.0,5.215
266.0,-10.0,5.216
258.0,-11.0,5.217
241.0,-5.0,5.218
225.0,26.0,5.219
204.0,51.0,5.22
171.0,45.0,5.221
123.0,14.0,5.222
83.0,-29.0,5.223
66.0,-53.0,5.224
55.0,-46.0,5.225
27.0,-27.0,5.226
-12.0,-17.0,5.227
-45.0,-5.0,5.228
-74.0,25.0,5.229
-112.0,53.0,5.23
-149.0,44.0,5.231
-167.0,8.0,5.232
-172.0,-12.0,5.233
-179.0,-9.0,5.234
-183.0,-11.0,5.235
-172.0,-20.0,5.236
-163.0,-10.0,5.237
-186.0,14.0,5.238
-232.0,25.0,5.239
-266.0,9.0,5.24
-267.0,-7.0,5.241
-248.0,-3.0,5.242
-217.0,0.0,5.243
-173.0,-2.0,5.244
-128.0,15.0,5.245
-118.0,53.0,5.246
-147.0,68.0,5.247
-184.0,23.0,5.248
-200.0,-39.0,5.249
-195.0,-54.0,5.25
-183.0,-21.0,5.251
-165.0,0.0,5.252
-150.0,-13.0,5.253
-154.0,-28.0,5.254
-172.0,-16.0,5.255
-176.0,0.0,5.256
-155.0,-1.0,5.257
-128.0,-9.0,5.258
-116.0,-7.0,5.259
-113.0,0.0,5.26
-87.0,-4.0,5.261
-24.0,-14.0,5.262
61.0,-19.0,5.263
142.0,-19.0,5.264
192.0,-10.0,5.265
223.0,16.0,5.266
264.0,49.0,5.267
332.0,59.0,5.268
405.0,31.0,5.269
435.0,-9.0,5.27
382.0,-34.0,5.271
230.0,-43.0,5.272
-17.0,-46.0,5.273
-302.0,-37.0,5.274
-529.0,-14.0,5.275
-643.0,7.0,5.276
-701.0,14.0,5.277
-835.0,17.0,5.278
-1129.0,32.0,5.279
-1546.0,45.0,5.28
-1898.0,38.0,5.281
-1978.0,25.0,5.282
-1795.0,21.0,5.283
-1613.0,26.0,5.284
-1617.0,26.0,5.285
-1657.0,18.0,5.286
-1475.0,13.0,5.287
-1105.0,9.0,5.288
-797.0,2.0,5.289
-641.0,-2.0,5.29
-519.0,-1.0,5.291
-387.0,-1.0,5.292
-310.0,-3.0,5.293
-252.0,2.0,5.294
-100.0,16.0,5.295
119.0,24.0,5.296
271.0,23.0,5.297
356.0,20.0,5.298
477.0,24.0,5.299
647.0,22.0,5.3
787.0,8.0,5.301
878.0,-3.0,5.302
980.0,-3.0,5.303
1086.0,3.0,5.304
1143.0,2.0,5.305
1171.0,-7.0,5.306
1241.0,-11.0,5.307
1340.0,-6.0,5.308
1411.0,6.0,5.309
1447.0,19.0,5.31
1463.0,16.0,5.311
1426.0,-4.0,5.312
1311.0,-31.0,5.313
1171.0,-47.0,5.314
1073.0,-47.0,5.315
1019.0,-40.0,5.316
983.0,-32.0,5.317
970.0,-29.0,5.318
986.0,-27.0,5.319
993.0,-24.0,5.32
943.0,-15.0,5.321
855.0,-1.0,5.322
771.0,25.0,5.323
705.0,42.0,5.324
652.0,28.0,5.325
613.0,16.0,5.326
571.0,10.0,5.327
491.0,5.0,5.328
373.0,5.0,5.329
273.0,2.0,5.33
232.0,-6.0,5.331
236.0,-12.0,5.332
246.0,-8.0,5.333
266.0,-3.0,5.334
324.0,-1.0,5.335
425.0,-1.0,5.336
517.0,-7.0,5.337
523.0,-15.0,5.338
445.0,-21.0,5.339
366.0,-24.0,5.34
287.0,-29.0,5.341
195.0,-26.0,5.342
65.0,-11.0,5.343
-67.0,5.0,5.344
-207.0,7.0,5.345
-340.0,0.0,5.346
-449.0,-6.0,5.347
-554.0,-1.0,5.348
-647.0,1.0,5.349
-736.0,-3.0,5.35
-813.0,-6.0,5.351
-880.0,-4.0,5.352
-917.0,2.0,5.353
-952.0,3.0,5.354
-977.0,1.0,5.355
-1001.0,-1.0,5.356
-1019.0,-2.0,5.357
-1028.0,-8.0,5.358
-995.0,-13.0,5.359
-941.0,-16.0,5.36
-864.0,-20.0,5.361
-777.0,-13.0,5.362
-705.0,1.0,5.363
-667.0,17.0,5.364
-654.0,24.0,5.365
-648.0,17.0,5.366
-626.0,5.0,5.367
-578.0,-4.0,5.368
-519.0,-8.0,5.369
-474.0,-8.0,5.37
-443.0,-5.0,5.371
-406.0,-2.0,5.372
-352.0,0.0,5.373
-299.0,3.0,5.374
-262.0,3.0,5.375
-239.0,0.0,5.376
-215.0,-4.0,5.377
-186.0,-8.0,5.378
-148.0,-5.0,5.379
-105.0,0.0,5.38
-63.0,2.0,5.381
-29.0,4.0,5.382
-2.0,8.0,5.383
23.0,13.0,5.384
48.0,19.0,5.385
69.0,18.0,5.386
86.0,9.0,5.387
111.0,-4.0,5.388
152.0,-8.0,5.389
212.0,-5.0,5.39
279.0,-7.0,5.391
325.0,-15.0,5.392
333.0,-16.0,5.393
311.0,-5.0,5.394
285.0,2.0,5.395
266.0,-1.0,5.396
245.0,-4.0,5.397
210.0,0.0,5.398
180.0,7.0,5.399
155.0,11.0,5.4
144.0,1.0,5.401
138.0,-5.0,5.402
147.0,-1.0,5.403
154.0,2.0,5.404
158.0,4.0,5.405
153.0,7.0,5.406
121.0,7.0,5.407
89.0,5.0,5.408
58.0,-4.0,5.409
30.0,-11.0,5.41
12.0,-7.0,5.411
-9.0,-3.0,5.412
-39.0,-3.0,5.413
-70.0,-5.0,5.414
-99.0,-14.0,5.415
-116.0,-19.0,5.416
-98.0,-13.0,5.417
-85.0,-9.0,5.418
-98.0,-19.0,5.419
-101.0,-30.0,5.42
-77.0,-24.0,5.421
-46.0,-6.0,5.422
-27.0,6.0,5.423
-11.0,9.0,5.424
12.0,12.0,5.425
34.0,19.0,5.426
51.0,24.0,5.427
61.0,18.0,5.428
60.0,5.0,5.429
43.0,-8.0,5.43
23.0,-20.0,5.431
16.0,-23.0,5.432
23.0,-18.0,5.433
32.0,-10.0,5.434
38.0,-4.0,5.435
42.0,4.0,5.436
43.0,14.0,5.437
37.0,13.0,5.438
30.0,3.0,5.439
31.0,-7.0,5.44
34.0,-13.0,5.441
26.0,-16.0,5.442
17.0,-17.0,5.443
20.0,-9.0,5.444
38.0,14.0,5.445
48.0,34.0,5.446
45.0,36.0,5.447
37.0,21.0,5.448
34.0,5.0,5.449
33.0,-3.0,5.45
35.0,-6.0,5.451
38.0,-9.0,5.452
34.0,-15.0,5.453
10.0,-22.0,5.454
-17.0,-28.0,5.455
-26.0,-31.0,5.456
-12.0,-23.0,5.457
5.0,-13.0,5.458
13.0,-4.0,5.459
9.0,-4.0,5.46
1.0,-12.0,5.461
-8.0,-18.0,5.462
-26.0,-19.0,5.463
-59.0,-13.0,5.464
-109.0,-9.0,5.465
-166.0,-4.0,5.466
-221.0,-2.0,5.467
-288.0,2.0,5.468
-377.0,9.0,5.469
-475.0,12.0,5.47
-557.0,8.0,5.471
-624.0,-1.0,5.472
-681.0,-8.0,5.473
-698.0,-8.0,5.474
-630.0,-3.0,5.475
-494.0,7.0,5.476
-354.0,23.0,5.477
-212.0,33.0,5.478
-32.0,33.0,5.479
167.0,30.0,5.48
290.0,28.0,5.481
284.0,30.0,5.482
210.0,25.0,5.483
131.0,12.0,5.484
28.0,8.0,5.485
-108.0,13.0,5.486
-195.0,18.0,5.487
-182.0,20.0,5.488
-139.0,29.0,5.489
-139.0,48.0,5.49
-121.0,60.0,5.491
-6.0,44.0,5.492
145.0,13.0,5.493
230.0,-10.0,5.494
266.0,-13.0,5.495
340.0,-7.0,5.496
438.0,0.0,5.497
495.0,7.0,5.498
519.0,18.0,5.499
544.0,24.0,5.5
573.0,13.0,5.501
590.0,5.0,5.502
565.0,5.0,5.503
543.0,4.0,5.504
533.0,-1.0,5.505
513.0,-7.0,5.506
463.0,-15.0,5.507
409.0,-23.0,5.508
343.0,-28.0,5.509
280.0,-30.0,5.51
226.0,-23.0,5.511
175.0,-17.0,5.512
136.0,-17.0,5.513
88.0,-16.0,5.514
17.0,-17.0,5.515
-40.0,-15.0,5.516
-59.0,-5.0,5.517
-79.0,0.0,5.518
-100.0,-12.0,5.519
-107.0,-21.0,5.52
-117.0,-13.0,5.521
-146.0,0.0,5.522
-173.0,6.0,5.523
-172.0,1.0,5.524
-162.0,-4.0,5.525
-175.0,-5.0,5.526
-216.0,-1.0,5.527
-284.0,3.0,5.528
-396.0,7.0,5.529
-536.0,7.0,5.53
-610.0,4.0,5.531
-533.0,3.0,5.532
-349.0,8.0,5.533
-189.0,13.0,5.534
-103.0,23.0,5.535
-15.0,36.0,5.536
115.0,50.0,5.537
249.0,53.0,5.538
316.0,47.0,5.539
345.0,59.0,5.54
405.0,89.0,5.541
476.0,119.0,5.542
512.0,127.0,5.543
518.0,125.0,5.544
535.0,135.0,5.545
555.0,140.0,5.546
541.0,108.0,5.547
503.0,37.0,5.548
468.0,-40.0,5.549
434.0,-100.0,5.55
392.0,-142.0,5.551
369.0,-173.0,5.552
402.0,-192.0,5.553
457.0,-212.0,5.554
475.0,-255.0,5.555
454.0,-315.0,5.556
462.0,-353.0,5.557
538.0,-342.0,5.558
624.0,-286.0,5.559
621.0,-211.0,5.56
519.0,-143.0,5.561
408.0,-76.0,5.562
362.0,-13.0,5.563
356.0,33.0,5.564
337.0,46.0,5.565
307.0,26.0,5.566
295.0,-10.0,5.567
290.0,-30.0,5.568
263.0,-5.0,5.569
213.0,69.0,5.57
148.0,159.0,5.571
82.0,227.0,5.572
57.0,263.0,5.573
102.0,273.0,5.574
155.0,259.0,5.575
113.0,218.0,5.576
-14.0,160.0,5.577
-131.0,96.0,5.578
-177.0,45.0,5.579
-226.0,15.0,5.58
-345.0,3.0,5.581
-471.0,20.0,5.582
-523.0,56.0,5.583
-534.0,91.0,5.584
-582.0,106.0,5.585
-653.0,97.0,5.586
-695.0,76.0,5.587
-720.0,49.0,5.588
-776.0,10.0,5.589
-854.0,-40.0,5.59
-902.0,-102.0,5.591
-909.0,-166.0,5.592
-893.0,-216.0,5.593
-872.0,-234.0,5.594
-874.0,-218.0,5.595
-931.0,-173.0,5.596
-1003.0,-114.0,5.597
-1016.0,-51.0,5.598
-954.0,6.0,5.599
-906.0,60.0,5.6
-915.0,97.0,5.601
-889.0,128.0,5.602
-762.0,144.0,5.603
-612.0,146.0,5.604
-549.0,108.0,5.605
-577.0,66.0,5.606
-668.0,11.0,5.607
-841.0,-42.0,5.608
-1041.0,-91.0,5.609
-1076.0,-122.0,5.61
-843.0,-100.0,5.611
-507.0,-61.0,5.612
-306.0,28.0,5.613
-239.0,109.0,5.614
-128.0,163.0,5.615
84.0,203.0,5.616
275.0,195.0,5.617
391.0,192.0,5.618
497.0,216.0,5.619
650.0,228.0,5.62
801.0,180.0,5.621
883.0,91.0,5.622
921.0,15.0,5.623
959.0,-23.0,5.624
986.0,-54.0,5.625
981.0,-109.0,5.626
976.0,-177.0,5.627
989.0,-239.0,5.628
975.0,-308.0,5.629
900.0,-406.0,5.63
801.0,-514.0,5.631
735.0,-574.0,5.632
701.0,-550.0,5.633
654.0,-438.0,5.634
580.0,-259.0,5.635
513.0,-50.0,5.636
514.0,129.0,5.637
631.0,264.0,5.638
836.0,357.0,5.639
1024.0,425.0,5.64
1116.0,458.0,5.641
1125.0,441.0,5.642
1104.0,370.0,5.643
1063.0,275.0,5.644
986.0,185.0,5.645
911.0,102.0,5.646
866.0,18.0,5.647
801.0,-46.0,5.648
642.0,-54.0,5.649
412.0,4.0,5.65
197.0,83.0,5.651
40.0,133.0,5.652
-76.0,170.0,5.653
-162.0,260.0,5.654
-227.0,403.0,5.655
-312.0,492.0,5.656
-428.0,436.0,5.657
-543.0,244.0,5.658
-591.0,39.0,5.659
-580.0,-125.0,5.66
-574.0,-300.0,5.661
-596.0,-508.0,5.662
-620.0,-670.0,5.663
-630.0,-703.0,5.664
-640.0,-639.0,5.665
-651.0,-568.0,5.666
-654.0,-507.0,5.667
-664.0,-412.0,5.668
-700.0,-268.0,5.669
-748.0,-119.0,5.67
-756.0,-4.0,5.671
-706.0,76.0,5.672
-625.0,124.0,5.673
-549.0,134.0,5.674
-489.0,100.0,5.675
-438.0,25.0,5.676
-400.0,-68.0,5.677
-395.0,-172.0,5.678
-430.0,-230.0,5.679
-461.0,-189.0,5.68
-420.0,-30.0,5.681
-328.0,203.0,5.682
-322.0,406.0,5.683
-491.0,497.0,5.684
-736.0,493.0,5.685
-863.0,467.0,5.686
-808.0,451.0,5.687
-651.0,422.0,5.688
-478.0,384.0,5.689
-304.0,370.0,5.69
-149.0,349.0,5.691
-46.0,248.0,5.692
26.0,70.0,5.693
114.0,-88.0,5.694
194.0,-184.0,5.695
208.0,-255.0,5.696
185.0,-311.0,5.697
202.0,-319.0,5.698
288.0,-299.0,5.699
380.0,-350.0,5.7
430.0,-496.0,5.701
453.0,-602.0,5.702
471.0,-537.0,5.703
478.0,-304.0,5.704
475.0,-10.0,5.705
478.0,250.0,5.706
486.0,407.0,5.707
480.0,443.0,5.708
460.0,413.0,5.709
429.0,379.0,5.71
388.0,328.0,5.711
339.0,213.0,5.712
305.0,66.0,5.713
308.0,-55.0,5.714
335.0,-181.0,5.715
343.0,-361.0,5.716
312.0,-524.0,5.717
251.0,-573.0,5.718
207.0,-493.0,5.719
198.0,-373.0,5.72
209.0,-253.0,5.721
230.0,-92.0,5.722
291.0,84.0,5.723
401.0,180.0,5.724
506.0,172.0,5.725
541.0,152.0,5.726
505.0,191.0,5.727
438.0,253.0,5.728
344.0,272.0,5.729
201.0,228.0,5.73
35.0,147.0,5.731
-95.0,65.0,5.732
-156.0,23.0,5.733
-166.0,45.0,5.734
-147.0,107.0,5.735
-116.0,150.0,5.736
-79.0,134.0,5.737
-28.0,80.0,5.738
56.0,49.0,5.739
150.0,56.0,5.74
189.0,56.0,5.741
148.0,28.0,5.742
77.0,-5.0,5.743
31.0,-21.0,5.744
-3.0,-42.0,5.745
-66.0,-76.0,5.746
-162.0,-81.0,5.747
-246.0,-25.0,5.748
-292.0,44.0,5.749
-313.0,77.0,5.75
-328.0,87.0,5.751
-346.0,109.0,5.752
-366.0,116.0,5.753
-376.0,77.0,5.754
-362.0,23.0,5.755
-334.0,-18.0,5.756
-314.0,-63.0,5.757
-303.0,-141.0,5.758
-282.0,-189.0,5.759
-250.0,-157.0,5.76
-245.0,-81.0,5.761
-312.0,-20.0,5.762
-441.0,39.0,5.763
-562.0,117.0,5.764
-598.0,152.0,5.765
-538.0,74.0,5.766
-436.0,-83.0,5.767
-351.0,-218.0,5.768
-288.0,-282.0,5.769
-226.0,-289.0,5.77
-172.0,-252.0,5.771
-147.0,-178.0,5.772
-150.0,-100.0,5.773
-149.0,-41.0,5.774
-135.0,8.0,5.775
-131.0,60.0,5.776
-143.0,96.0,5.777
-138.0,103.0,5.778
-81.0,99.0,5.779
8.0,90.0,5.78
87.0,43.0,5.781
143.0,-35.0,5.782
196.0,-83.0,5.783
252.0,-52.0,5.784
290.0,18.0,5.785
311.0,71.0,5.786
332.0,119.0,5.787
354.0,204.0,5.788
347.0,301.0,5.789
297.0,326.0,5.79
231.0,227.0,5.791
179.0,23.0,5.792
144.0,-215.0,5.793
121.0,-397.0,5.794
113.0,-413.0,5.795
126.0,-216.0,5.796
145.0,108.0,5.797
155.0,439.0,5.798
161.0,608.0,5.799
172.0,539.0,5.8
191.0,304.0,5.801
206.0,45.0,5.802
211.0,-145.0,5.803
200.0,-255.0,5.804
168.0,-324.0,5.805
121.0,-387.0,5.806
66.0,-427.0,5.807
6.0,-391.0,5.808
-53.0,-256.0,5.809
-99.0,-98.0,5.81
-113.0,-33.0,5.811
-113.0,-96.0,5.812
-120.0,-195.0,5.813
-139.0,-229.0,5.814
-153.0,-192.0,5.815
-156.0,-124.0,5.816
-153.0,-41.0,5.817
-136.0,69.0,5.818
-96.0,177.0,5.819
-54.0,242.0,5.82
-42.0,257.0,5.821
-75.0,263.0,5.822
-137.0,276.0,5.823
-200.0,283.0,5.824
-223.0,275.0,5.825
-179.0,254.0,5.826
-97.0,216.0,5.827
-47.0,151.0,5.828
-46.0,65.0,5.829
-42.0,-4.0,5.83
-7.0,-34.0,5.831
19.0,-48.0,5.832
10.0,-92.0,5.833
0.0,-171.0,5.834
21.0,-235.0,5.835
48.0,-235.0,5.836
63.0,-174.0,5.837
86.0,-68.0,5.838
133.0,87.0,5.839
170.0,286.0,5.84
171.0,446.0,5.841
160.0,445.0,5.842
170.0,266.0,5.843
186.0,67.0,5.844
191.0,0.0,5.845
193.0,33.0,5.846
197.0,7.0,5.847
173.0,-140.0,5.848
115.0,-314.0,5.849
60.0,-396.0,5.85
38.0,-388.0,5.851
33.0,-359.0,5.852
23.0,-344.0,5.853
9.0,-325.0,5.854
4.0,-261.0,5.855
10.0,-117.0,5.856
25.0,78.0,5.857
56.0,252.0,5.858
88.0,300.0,5.859
99.0,213.0,5.86
92.0,87.0,5.861
88.0,-5.0,5.862
99.0,-80.0,5.863
102.0,-169.0,5.864
75.0,-239.0,5.865
22.0,-248.0,5.866
-32.0,-192.0,5.867
-63.0,-102.0,5.868
-68.0,-9.0,5.869
-54.0,62.0,5.87
-45.0,102.0,5.871
-44.0,120.0,5.872
-44.0,133.0,5.873
-36.0,135.0,5.874
-26.0,128.0,5.875
-22.0,127.0,5.876
-19.0,130.0,5.877
-2.0,121.0,5.878
22.0,95.0,5.879
40.0,81.0,5.88
43.0,84.0,5.881
24.0,84.0,5.882
-4.0,72.0,5.883
-14.0,78.0,5.884
17.0,113.0,5.885
74.0,128.0,5.886
110.0,83.0,5.887
101.0,6.0,5.888
79.0,-44.0,5.889
78.0,-52.0,5.89
90.0,-44.0,5.891
88.0,-38.0,5.892
74.0,-34.0,5.893
61.0,-27.0,5.894
41.0,-15.0,5.895
-14.0,3.0,5.896
-104.0,16.0,5.897
-217.0,10.0,5.898
-300.0,-6.0,5.899
-331.0,-11.0,5.9
-323.0,-9.0,5.901
-306.0,-8.0,5.902
-299.0,-7.0,5.903
-310.0,14.0,5.904
-345.0,48.0,5.905
-386.0,48.0,5.906
-395.0,-16.0,5.907
-387.0,-99.0,5.908
-467.0,-130.0,5.909
-683.0,-104.0,5.91
-861.0,-73.0,5.911
-759.0,-70.0,5.912
-413.0,-66.0,5.913
-120.0,-37.0,5.914
-39.0,-1.0,5.915
-6.0,10.0,5.916
131.0,4.0,5.917
272.0,-3.0,5.918
298.0,0.0,5.919
338.0,1.0,5.92
418.0,-3.0,5.921
478.0,-2.0,5.922
478.0,-2.0,5.923
479.0,-4.0,5.924
486.0,-7.0,5.925
485.0,-7.0,5.926
458.0,-6.0,5.927
436.0,-9.0,5.928
429.0,-3.0,5.929
414.0,25.0,5.93
376.0,76.0,5.931
344.0,121.0,5.932
329.0,125.0,5.933
302.0,73.0,5.934
243.0,-3.0,5.935
194.0,-63.0,5.936
175.0,-91.0,5.937
156.0,-107.0,5.938
120.0,-115.0,5.939
82.0,-96.0,5.94
81.0,-47.0,5.941
86.0,5.0,5.942
53.0,31.0,5.943
-12.0,48.0,5.944
-74.0,86.0,5.945
-117.0,132.0,5.946
-136.0,131.0,5.947
-126.0,66.0,5.948
-104.0,-14.0,5.949
-100.0,-60.0,5.95
-114.0,-74.0,5.951
-115.0,-75.0,5.952
-104.0,-63.0,5.953
-109.0,-35.0,5.954
-128.0,-20.0,5.955
-128.0,-43.0,5.956
-97.0,-68.0,5.957
-62.0,-43.0,5.958
-36.0,17.0,5.959
-8.0,45.0,5.96
25.0,17.0,5.961
65.0,-6.0,5.962
123.0,16.0,5.963
177.0,42.0,5.964
219.0,29.0,5.965
245.0,1.0,5.966
217.0,-2.0,5.967
195.0,6.0,5.968
196.0,-7.0,5.969
185.0,-26.0,5.97
132.0,-14.0,5.971
78.0,16.0,5.972
24.0,21.0,5.973
-14.0,2.0,5.974
-3.0,-2.0,5.975
38.0,11.0,5.976
171.0,12.0,5.977
309.0,-6.0,5.978
415.0,-8.0,5.979
417.0,-4.0,5.98
352.0,17.0,5.981
286.0,33.0,5.982
236.0,29.0,5.983
171.0,25.0,5.984
89.0,25.0,5.985
26.0,21.0,5.986
-6.0,4.0,5.987
-42.0,-8.0,5.988
-102.0,-3.0,5.989
-155.0,1.0,5.99
-168.0,3.0,5.991
-158.0,9.0,5.992
-153.0,23.0,5.993
-154.0,33.0,5.994
-153.0,26.0,5.995
-161.0,18.0,5.996
-192.0,8.0,5.997
-240.0,-6.0,5.998
-272.0,-32.0,5.999
-270.0,-45.0,6.0
-254.0,-41.0,6.001
-250.0,-23.0,6.002
-260.0,-6.0,6.003
-266.0,4.0,6.004
-254.0,9.0,6.005
-225.0,19.0,6.006
-184.0,39.0,6.007
-127.0,50.0,6.008
-53.0,28.0,6.009
16.0,-22.0,6.01
63.0,-60.0,6.011
91.0,-54.0,6.012
114.0,-28.0,6.013
133.0,-19.0,6.014
148.0,-36.0,6.015
179.0,-49.0,6.016
246.0,-32.0,6.017
338.0,8.0,6.018
431.0,44.0,6.019
512.0,41.0,6.02
588.0,-2.0,6.021
655.0,-46.0,6.022
690.0,-53.0,6.023
687.0,-28.0,6.024
665.0,-10.0,6.025
650.0,-18.0,6.026
658.0,-28.0,6.027
679.0,-19.0,6.028
687.0,2.0,6.029
680.0,18.0,6.03
694.0,30.0,6.031
746.0,38.0,6.032
776.0,44.0,6.033
727.0,47.0,6.034
621.0,53.0,6.035
519.0,56.0,6.036
422.0,44.0,6.037
235.0,5.0,6.038
-56.0,-35.0,6.039
-349.0,-50.0,6.04
-529.0,-35.0,6.041
-607.0,-6.0,6.042
-694.0,10.0,6.043
-858.0,1.0,6.044
-1055.0,-21.0,6.045
-1217.0,-40.0,6.046
-1366.0,-50.0,6.047
-1598.0,-60.0,6.048
-1966.0,-71.0,6.049
-2406.0,-69.0,6.05
-2778.0,-44.0,6.051
-2973.0,-6.0,6.052
-2995.0,30.0,6.053
-2914.0,49.0,6.054
-2763.0,51.0,6.055
-2522.0,41.0,6.056
-2239.0,31.0,6.057
-1984.0,25.0,6.058
-1823.0,26.0,6.059
-1652.0,23.0,6.06
-1328.0,11.0,6.061
-890.0,6.0,6.062
-505.0,9.0,6.063
-234.0,15.0,6.064
18.0,17.0,6.065
315.0,18.0,6.066
594.0,16.0,6.067
800.0,14.0,6.068
977.0,16.0,6.069
1165.0,23.0,6.07
1332.0,23.0,6.071
1441.0,10.0,6.072
1518.0,-5.0,6.073
1594.0,-3.0,6.074
1653.0,8.0,6.075
1684.0,10.0,6.076
1707.0,2.0,6.077
1725.0,-3.0,6.078
1698.0,2.0,6.079
1603.0,3.0,6.08
1490.0,-10.0,6.081
1408.0,-21.0,6.082
1362.0,-19.0,6.083
1340.0,-11.0,6.084
1375.0,-5.0,6.085
1513.0,3.0,6.086
1737.0,12.0,6.087
1940.0,10.0,6.088
1994.0,0.0,6.089
1856.0,-3.0,6.09
1613.0,4.0,6.091
1387.0,8.0,6.092
1202.0,1.0,6.093
997.0,-1.0,6.094
757.0,7.0,6.095
551.0,10.0,6.096
419.0,4.0,6.097
285.0,-4.0,6.098
103.0,-1.0,6.099
-87.0,5.0,6.1
-225.0,-3.0,6.101
-320.0,-14.0,6.102
-420.0,-18.0,6.103
-531.0,-12.0,6.104
-633.0,-7.0,6.105
-725.0,-6.0,6.106
-810.0,-9.0,6.107
-878.0,-12.0,6.108
-921.0,-12.0,6.109
-956.0,-8.0,6.11
-992.0,-6.0,6.111
-1018.0,-4.0,6.112
-1040.0,-1.0,6.113
-1100.0,0.0,6.114
-1213.0,-5.0,6.115
-1339.0,-12.0,6.116
-1436.0,-12.0,6.117
-1538.0,-7.0,6.118
-1661.0,-6.0,6.119
-1745.0,-12.0,6.12
-1699.0,-20.0,6.121
-1557.0,-13.0,6.122
-1480.0,-1.0,6.123
-1571.0,6.0,6.124
-1745.0,5.0,6.125
-1856.0,7.0,6.126
-1832.0,11.0,6.127
-1688.0,12.0,6.128
-1473.0,9.0,6.129
-1256.0,7.0,6.13
-1077.0,8.0,6.131
-885.0,4.0,6.132
-613.0,-2.0,6.133
-300.0,-10.0,6.134
-44.0,-18.0,6.135
144.0,-20.0,6.136
330.0,-16.0,6.137
548.0,-12.0,6.138
724.0,-10.0,6.139
829.0,-12.0,6.14
924.0,-15.0,6.141
1037.0,-11.0,6.142
1123.0,-6.0,6.143
1165.0,-4.0,6.144
1198.0,-6.0,6.145
1248.0,-7.0,6.146
1296.0,-5.0,6.147
1335.0,-2.0,6.148
1377.0,-1.0,6.149
1425.0,-5.0,6.15
1492.0,-7.0,6.151
1628.0,-3.0,6.152
1848.0,2.0,6.153
2066.0,7.0,6.154
2159.0,8.0,6.155
2091.0,10.0,6.156
1941.0,18.0,6.157
1767.0,25.0,6.158
1620.0,25.0,6.159
1497.0,20.0,6.16
1370.0,21.0,6.161
1203.0,31.0,6.162
1008.0,32.0,6.163
830.0,12.0,6.164
690.0,-7.0,6.165
546.0,-13.0,6.166
358.0,-9.0,6.167
150.0,-9.0,6.168
-29.0,-12.0,6.169
-176.0,-8.0,6.17
-317.0,-1.0,6.171
-456.0,4.0,6.172
-569.0,0.0,6.173
-653.0,-6.0,6.174
-723.0,-12.0,6.175
-783.0,-18.0,6.176
-818.0,-18.0,6.177
-833.0,-14.0,6.178
-840.0,-10.0,6.179
-837.0,-10.0,6.18
-812.0,-17.0,6.181
-780.0,-23.0,6.182
-761.0,-24.0,6.183
-754.0,-19.0,6.184
-738.0,-6.0,6.185
-713.0,9.0,6.186
-695.0,22.0,6.187
-684.0,26.0,6.188
-669.0,25.0,6.189
-649.0,22.0,6.19
-636.0,12.0,6.191
-623.0,3.0,6.192
-593.0,1.0,6.193
-548.0,3.0,6.194
-507.0,2.0,6.195
-477.0,-2.0,6.196
-445.0,-1.0,6.197
-408.0,2.0,6.198
-372.0,1.0,6.199
-335.0,-3.0,6.2
-301.0,-10.0,6.201
-265.0,-10.0,6.202
-223.0,-10.0,6.203
-188.0,-10.0,6.204
-170.0,-9.0,6.205
-157.0,-6.0,6.206
-157.0,-5.0,6.207
-160.0,-6.0,6.208
-170.0,-2.0,6.209
-176.0,0.0,6.21
-167.0,-1.0,6.211
-158.0,-10.0,6.212
-148.0,-18.0,6.213
-141.0,-21.0,6.214
-144.0,-21.0,6.215
-136.0,-18.0,6.216
-94.0,-5.0,6.217
-49.0,17.0,6.218
-13.0,34.0,6.219
-10.0,31.0,6.22
-17.0,8.0,6.221
0.0,-7.0,6.222
53.0,-9.0,6.223
109.0,-6.0,6.224
125.0,-3.0,6.225
105.0,-5.0,6.226
86.0,-11.0,6.227
79.0,-18.0,6.228
57.0,-17.0,6.229
-2.0,-9.0,6.23
-81.0,-5.0,6.231
-163.0,-8.0,6.232
-249.0,-9.0,6.233
-324.0,0.0,6.234
-353.0,12.0,6.235
-321.0,14.0,6.236
-253.0,12.0,6.237
-125.0,15.0,6.238
57.0,21.0,6.239
255.0,24.0,6.24
364.0,19.0,6.241
339.0,20.0,6.242
272.0,21.0,6.243
251.0,15.0,6.244
235.0,10.0,6.245
128.0,10.0,6.246
-75.0,10.0,6.247
-281.0,-2.0,6.248
-370.0,-14.0,6.249
-273.0,-13.0,6.25
-45.0,-6.0,6.251
154.0,-5.0,6.252
204.0,-6.0,6.253
161.0,-2.0,6.254
153.0,7.0,6.255
189.0,9.0,6.256
186.0,11.0,6.257
126.0,14.0,6.258
83.0,16.0,6.259
88.0,6.0,6.26
109.0,-11.0,6.261
141.0,-16.0,6.262
206.0,-10.0,6.263
281.0,-4.0,6.264
315.0,-4.0,6.265
330.0,0.0,6.266
360.0,5.0,6.267
369.0,3.0,6.268
312.0,-5.0,6.269
236.0,-7.0,6.27
218.0,-2.0,6.271
238.0,3.0,6.272
228.0,8.0,6.273
187.0,13.0,6.274
163.0,16.0,6.275
161.0,13.0,6.276
145.0,10.0,6.277
105.0,8.0,6.278
74.0,4.0,6.279
50.0,1.0,6.28
16.0,1.0,6.281
-17.0,2.0,6.282
-20.0,-6.0,6.283
4.0,-19.0,6.284
31.0,-24.0,6.285
55.0,-21.0,6.286
73.0,-26.0,6.287
75.0,-38.0,6.288
64.0,-34.0,6.289
58.0,-15.0,6.29
47.0,0.0,6.291
-2.0,5.0,6.292
-66.0,9.0,6.293
-75.0,11.0,6.294
-19.0,0.0,6.295
38.0,-17.0,6.296
63.0,-21.0,6.297
78.0,-11.0,6.298
79.0,-4.0,6.299
-7.0,-12.0,6.3
-181.0,-19.0,6.301
-304.0,-11.0,6.302
-255.0,-5.0,6.303
-104.0,-9.0,6.304
-13.0,-12.0,6.305
-9.0,-4.0,6.306
5.0,0.0,6.307
68.0,-5.0,6.308
120.0,-1.0,6.309
128.0,24.0,6.31
131.0,42.0,6.311
148.0,32.0,6.312
151.0,9.0,6.313
133.0,10.0,6.314
128.0,36.0,6.315
136.0,53.0,6.316
131.0,53.0,6.317
115.0,44.0,6.318
126.0,47.0,6.319
169.0,54.0,6.32
218.0,45.0,6.321
274.0,30.0,6.322
356.0,16.0,6.323
435.0,9.0,6.324
449.0,-3.0,6.325
404.0,-25.0,6.326
358.0,-51.0,6.327
317.0,-69.0,6.328
237.0,-75.0,6.329
109.0,-70.0,6.33
-11.0,-62.0,6.331
-89.0,-46.0,6.332
-146.0,-13.0,6.333
-199.0,36.0,6.334
-226.0,81.0,6.335
-206.0,93.0,6.336
-170.0,76.0,6.337
-165.0,60.0,6.338
-203.0,69.0,6.339
-253.0,83.0,6.34
-281.0,72.0,6.341
-280.0,47.0,6.342
-253.0,47.0,6.343
-196.0,92.0,6.344
-113.0,155.0,6.345
-35.0,188.0,6.346
-7.0,158.0,6.347
-32.0,71.0,6.348
-76.0,-36.0,6.349
-99.0,-138.0,6.35
-97.0,-240.0,6.351
-93.0,-348.0,6.352
-99.0,-436.0,6.353
-105.0,-468.0,6.354
-96.0,-445.0,6.355
-73.0,-391.0,6.356
-50.0,-315.0,6.357
-31.0,-204.0,6.358
0.0,-76.0,6.359
42.0,29.0,6.36
77.0,103.0,6.361
88.0,165.0,6.362
86.0,230.0,6.363
82.0,290.0,6.364
78.0,337.0,6.365
63.0,359.0,6.366
36.0,352.0,6.367
-5.0,324.0,6.368
-68.0,294.0,6.369
-141.0,266.0,6.37
-190.0,238.0,6.371
-196.0,225.0,6.372
-185.0,249.0,6.373
-176.0,285.0,6.374
-167.0,269.0,6.375
-144.0,162.0,6.376
-110.0,-1.0,6.377
-65.0,-200.0,6.378
-6.0,-397.0,6.379
49.0,-560.0,6.38
62.0,-655.0,6.381
15.0,-657.0,6.382
-43.0,-573.0,6.383
-49.0,-424.0,6.384
-11.0,-247.0,6.385
-3.0,-90.0,6.386
-104.0,33.0,6.387
-313.0,141.0,6.388
-534.0,228.0,6.389
-672.0,256.0,6.39
-719.0,217.0,6.391
-720.0,165.0,6.392
-660.0,131.0,6.393
-503.0,88.0,6.394
-300.0,28.0,6.395
-173.0,21.0,6.396
-132.0,104.0,6.397
-63.0,220.0,6.398
89.0,273.0,6.399
234.0,234.0,6.4
299.0,163.0,6.401
343.0,101.0,6.402
435.0,35.0,6.403
519.0,-51.0,6.404
527.0,-145.0,6.405
496.0,-237.0,6.406
487.0,-344.0,6.407
474.0,-475.0,6.408
420.0,-605.0,6.409
361.0,-667.0,6.41
342.0,-610.0,6.411
336.0,-448.0,6.412
314.0,-250.0,6.413
302.0,-74.0,6.414
328.0,52.0,6.415
369.0,126.0,6.416
395.0,153.0,6.417
409.0,159.0,6.418
412.0,156.0,6.419
392.0,134.0,6.42
375.0,84.0,6.421
410.0,39.0,6.422
481.0,43.0,6.423
525.0,117.0,6.424
537.0,275.0,6.425
573.0,523.0,6.426
628.0,810.0,6.427
609.0,1024.0,6.428
497.0,1083.0,6.429
369.0,992.0,6.43
282.0,810.0,6.431
200.0,593.0,6.432
95.0,374.0,6.433
22.0,160.0,6.434
26.0,-74.0,6.435
65.0,-331.0,6.436
79.0,-546.0,6.437
58.0,-687.0,6.438
16.0,-764.0,6.439
-54.0,-829.0,6.44
-150.0,-877.0,6.441
-235.0,-839.0,6.442
-274.0,-712.0,6.443
-284.0,-571.0,6.444
-307.0,-466.0,6.445
-352.0,-384.0,6.446
-406.0,-295.0,6.447
-455.0,-183.0,6.448
-495.0,-35.0,6.449
-514.0,142.0,6.45
-503.0,284.0,6.451
-479.0,335.0,6.452
-468.0,337.0,6.453
-473.0,369.0,6.454
-470.0,411.0,6.455
-439.0,363.0,6.456
-391.0,203.0,6.457
-330.0,-26.0,6.458
-260.0,-252.0,6.459
-194.0,-454.0,6.46
-150.0,-579.0,6.461
-126.0,-632.0,6.462
-103.0,-466.0,6.463
-69.0,-284.0,6.464
-38.0,-58.0,6.465
-30.0,157.0,6.466
-44.0,343.0,6.467
-68.0,497.0,6.468
-89.0,549.0,6.469
-102.0,584.0,6.47
-108.0,564.0,6.471
-117.0,552.0,6.472
-129.0,568.0,6.473
-127.0,586.0,6.474
-112.0,613.0,6.475
-96.0,644.0,6.476
-82.0,685.0,6.477
-61.0,690.0,6.478
-48.0,523.0,6.479
-84.0,292.0,6.48
-166.0,52.0,6.481
-239.0,-198.0,6.482
-311.0,-426.0,6.483
-499.0,-543.0,6.484
-861.0,-529.0,6.485
-1195.0,-501.0,6.486
-1218.0,-601.0,6.487
-933.0,-818.0,6.488
-671.0,-1000.0,6.489
-652.0,-1008.0,6.49
-713.0,-847.0,6.491
-595.0,-627.0,6.492
-334.0,-424.0,6.493
-154.0,-223.0,6.494
-116.0,-2.0,6.495
-100.0,177.0,6.496
-50.0,232.0,6.497
-11.0,183.0,6.498
21.0,145.0,6.499
118.0,193.0,6.5
285.0,283.0,6.501
436.0,353.0,6.502
532.0,392.0,6.503
611.0,414.0,6.504
684.0,409.0,6.505
719.0,382.0,6.506
715.0,367.0,6.507
708.0,383.0,6.508
706.0,406.0,6.509
693.0,400.0,6.51
675.0,341.0,6.511
680.0,200.0,6.512
707.0,-19.0,6.513
727.0,-228.0,6.514
722.0,-304.0,6.515
698.0,-215.0,6.516
664.0,-71.0,6.517
612.0,36.0,6.518
538.0,98.0,6.519
441.0,173.0,6.52
331.0,254.0,6.521
224.0,261.0,6.522
137.0,142.0,6.523
89.0,-28.0,6.524
81.0,-134.0,6.525
98.0,-172.0,6.526
126.0,-223.0,6.527
162.0,-332.0,6.528
191.0,-442.0,6.529
176.0,-491.0,6.53
113.0,-493.0,6.531
61.0,-488.0,6.532
76.0,-470.0,6.533
127.0,-415.0,6.534
144.0,-341.0,6.535
126.0,-287.0,6.536
132.0,-269.0,6.537
168.0,-276.0,6.538
163.0,-275.0,6.539
77.0,-236.0,6.54
-31.0,-144.0,6.541
-88.0,-9.0,6.542
-100.0,137.0,6.543
-93.0,265.0,6.544
-62.0,366.0,6.545
2.0,433.0,6.546
56.0,457.0,6.547
57.0,433.0,6.548
18.0,357.0,6.549
-29.0,229.0,6.55
-86.0,74.0,6.551
-156.0,-46.0,6.552
-217.0,-73.0,6.553
-254.0,-1.0,6.554
-284.0,116.0,6.555
-324.0,217.0,6.556
-341.0,278.0,6.557
-325.0,309.0,6.558
-290.0,316.0,6.559
-269.0,288.0,6.56
-260.0,205.0,6.561
-243.0,65.0,6.562
-223.0,-125.0,6.563
-210.0,-309.0,6.564
-207.0,-400.0,6.565
-208.0,-350.0,6.566
-222.0,-206.0,6.567
-261.0,-57.0,6.568
-344.0,53.0,6.569
-494.0,135.0,6.57
-691.0,187.0,6.571
-841.0,188.0,6.572
-849.0,143.0,6.573
-719.0,111.0,6.574
-554.0,134.0,6.575
-431.0,204.0,6.576
-346.0,280.0,6.577
-268.0,337.0,6.578
-200.0,344.0,6.579
-141.0,259.0,6.58
-71.0,79.0,6.581
-14.0,-133.0,6.582
-7.0,-321.0,6.583
-22.0,-457.0,6.584
17.0,-526.0,6.585
101.0,-512.0,6.586
115.0,-430.0,6.587
-7.0,-325.0,6.588
-172.0,-228.0,6.589
-238.0,-130.0,6.59
-175.0,-33.0,6.591
-60.0,24.0,6.592
30.0,26.0,6.593
81.0,10.0,6.594
115.0,12.0,6.595
154.0,16.0,6.596
201.0,-2.0,6.597
250.0,-42.0,6.598
283.0,-76.0,6.599
296.0,-103.0,6.6
298.0,-124.0,6.601
303.0,-117.0,6.602
322.0,-58.0,6.603
352.0,55.0,6.604
376.0,214.0,6.605
378.0,400.0,6.606
351.0,572.0,6.607
306.0,642.0,6.608
259.0,541.0,6.609
224.0,303.0,6.61
205.0,59.0,6.611
195.0,-85.0,6.612
187.0,-144.0,6.613
177.0,-223.0,6.614
159.0,-370.0,6.615
130.0,-513.0,6.616
108.0,-545.0,6.617
105.0,-433.0,6.618
128.0,-232.0,6.619
154.0,-16.0,6.62
160.0,165.0,6.621
151.0,286.0,6.622
146.0,302.0,6.623
144.0,179.0,6.624
127.0,-40.0,6.625
94.0,-228.0,6.626
63.0,-249.0,6.627
35.0,-81.0,6.628
5.0,152.0,6.629
-19.0,298.0,6.63
-27.0,300.0,6.631
-30.0,213.0,6.632
-44.0,108.0,6.633
-53.0,12.0,6.634
-41.0,-75.0,6.635
-13.0,-149.0,6.636
-5.0,-189.0,6.637
-30.0,-160.0,6.638
-63.0,-55.0,6.639
-81.0,40.0,6.64
-75.0,6.0,6.641
-52.0,-143.0,6.642
-20.0,-271.0,6.643
1.0,-279.0,6.644
-3.0,-218.0,6.645
-29.0,-166.0,6.646
-58.0,-104.0,6.647
-75.0,6.0,6.648
-77.0,131.0,6.649
-61.0,218.0,6.65
-35.0,266.0,6.651
-21.0,282.0,6.652
-23.0,237.0,6.653
-22.0,129.0,6.654
-9.0,23.0,6.655
3.0,-10.0,6.656
7.0,12.0,6.657
11.0,47.0,6.658
26.0,91.0,6.659
36.0,172.0,6.66
24.0,261.0,6.661
-7.0,263.0,6.662
-42.0,136.0,6.663
-67.0,-1.0,6.664
-76.0,13.0,6.665
-68.0,165.0,6.666
-67.0,251.0,6.667
-101.0,127.0,6.668
-172.0,-111.0,6.669
-244.0,-290.0,6.67
-288.0,-384.0,6.671
-299.0,-477.0,6.672
-286.0,-575.0,6.673
-265.0,-568.0,6.674
-250.0,-414.0,6.675
-234.0,-202.0,6.676
-193.0,-47.0,6.677
-117.0,48.0,6.678
-42.0,110.0,6.679
-6.0,142.0,6.68
17.0,151.0,6.681
77.0,188.0,6.682
172.0,289.0,6.683
238.0,406.0,6.684
239.0,429.0,6.685
208.0,302.0,6.686
173.0,109.0,6.687
116.0,-25.0,6.688
20.0,-66.0,6.689
-71.0,-96.0,6.69
-113.0,-146.0,6.691
-116.0,-134.0,6.692
-117.0,11.0,6.693
-116.0,201.0,6.694
-95.0,263.0,6.695
-82.0,162.0,6.696
-105.0,27.0,6.697
-146.0,-60.0,6.698
-133.0,-132.0,6.699
-61.0,-242.0,6.7
4.0,-337.0,6.701
40.0,-309.0,6.702
79.0,-171.0,6.703
144.0,-50.0,6.704
203.0,-13.0,6.705
240.0,-12.0,6.706
278.0,12.0,6.707
317.0,49.0,6.708
330.0,64.0,6.709
311.0,61.0,6.71
286.0,59.0,6.711
269.0,58.0,6.712
248.0,60.0,6.713
228.0,90.0,6.714
226.0,138.0,6.715
231.0,150.0,6.716
223.0,99.0,6.717
203.0,26.0,6.718
193.0,3.0,6.719
184.0,29.0,6.72
154.0,29.0,6.721
112.0,-27.0,6.722
80.0,-94.0,6.723
54.0,-122.0,6.724
16.0,-119.0,6.725
-18.0,-116.0,6.726
-23.0,-103.0,6.727
-8.0,-63.0,6.728
-11.0,-15.0,6.729
-33.0,10.0,6.73
-43.0,19.0,6.731
-29.0,36.0,6.732
-17.0,48.0,6.733
-24.0,29.0,6.734
-38.0,1.0,6.735
-40.0,16.0,6.736
-28.0,85.0,6.737
-9.0,164.0,6.738
10.0,183.0,6.739
14.0,110.0,6.74
0.0,-27.0,6.741
-16.0,-137.0,6.742
-27.0,-168.0,6.743
-44.0,-150.0,6.744
-77.0,-145.0,6.745
-108.0,-149.0,6.746
-112.0,-113.0,6.747
-94.0,-40.0,6.748
-76.0,12.0,6.749
-59.0,13.0,6.75
-27.0,5.0,6.751
15.0,14.0,6.752
41.0,26.0,6.753
41.0,22.0,6.754
32.0,17.0,6.755
29.0,25.0,6.756
26.0,28.0,6.757
13.0,17.0,6.758
13.0,13.0,6.759
39.0,11.0,6.76
83.0,23.0,6.761
122.0,33.0,6.762
149.0,39.0,6.763
164.0,40.0,6.764
159.0,25.0,6.765
134.0,16.0,6.766
105.0,26.0,6.767
86.0,31.0,6.768
74.0,16.0,6.769
66.0,3.0,6.77
55.0,-5.0,6.771
34.0,-12.0,6.772
0.0,-15.0,6.773
-42.0,-17.0,6.774
-77.0,-14.0,6.775
-102.0,-8.0,6.776
-127.0,6.0,6.777
-164.0,16.0,6.778
-202.0,4.0,6.779
-224.0,-4.0,6.78
-218.0,-6.0,6.781
-182.0,-1.0,6.782
-130.0,4.0,6.783
-85.0,7.0,6.784
-56.0,10.0,6.785
-43.0,18.0,6.786
-33.0,34.0,6.787
-26.0,52.0,6.788
-25.0,60.0,6.789
-27.0,41.0,6.79
-29.0,-1.0,6.791
-39.0,-42.0,6.792
-60.0,-62.0,6.793
-71.0,-57.0,6.794
-58.0,-46.0,6.795
-25.0,-32.0,6.796
4.0,-11.0,6.797
23.0,20.0,6.798
40.0,68.0,6.799
59.0,130.0,6.8
79.0,182.0,6.801
104.0,175.0,6.802
143.0,76.0,6.803
194.0,-70.0,6.804
247.0,-176.0,6.805
293.0,-205.0,6.806
328.0,-202.0,6.807
341.0,-201.0,6.808
331.0,-177.0,6.809
321.0,-108.0,6.81
338.0,-30.0,6.811
383.0,7.0,6.812
412.0,19.0,6.813
408.0,61.0,6.814
390.0,135.0,6.815
380.0,183.0,6.816
379.0,157.0,6.817
373.0,61.0,6.818
365.0,-31.0,6.819
352.0,-56.0,6.82
314.0,-25.0,6.821
221.0,1.0,6.822
41.0,-13.0,6.823
-220.0,-37.0,6.824
-495.0,-27.0,6.825
-684.0,8.0,6.826
-763.0,38.0,6.827
-818.0,54.0,6.828
-917.0,76.0,6.829
-1004.0,96.0,6.83
-1008.0,86.0,6.831
-988.0,47.0,6.832
-1073.0,3.0,6.833
-1277.0,-32.0,6.834
-1501.0,-62.0,6.835
-1670.0,-72.0,6.836
-1779.0,-53.0,6.837
-1875.0,-20.0,6.838
-1954.0,3.0,6.839
-1982.0,12.0,6.84
-1884.0,12.0,6.841
-1618.0,11.0,6.842
-1268.0,4.0,6.843
-979.0,-5.0,6.844
-787.0,-1.0,6.845
-588.0,7.0,6.846
-333.0,9.0,6.847
-112.0,4.0,6.848
5.0,3.0,6.849
88.0,1.0,6.85
237.0,-3.0,6.851
445.0,-7.0,6.852
647.0,-4.0,6.853
816.0,7.0,6.854
963.0,16.0,6.855
1084.0,21.0,6.856
1169.0,19.0,6.857
1242.0,10.0,6.858
1310.0,3.0,6.859
1356.0,6.0,6.86
1385.0,13.0,6.861
1418.0,12.0,6.862
1466.0,-2.0,6.863
1508.0,-18.0,6.864
1513.0,-22.0,6.865
1472.0,-20.0,6.866
1388.0,-22.0,6.867
1289.0,-29.0,6.868
1194.0,-29.0,6.869
1082.0,-15.0,6.87
933.0,5.0,6.871
817.0,18.0,6.872
850.0,18.0,6.873
1020.0,9.0,6.874
1170.0,3.0,6.875
1168.0,0.0,6.876
1076.0,0.0,6.877
999.0,-6.0,6.878
972.0,-6.0,6.879
934.0,7.0,6.88
851.0,27.0,6.881
746.0,42.0,6.882
635.0,36.0,6.883
497.0,15.0,6.884
335.0,-8.0,6.885
171.0,-29.0,6.886
16.0,-52.0,6.887
-136.0,-63.0,6.888
-283.0,-51.0,6.889
-419.0,-18.0,6.89
-545.0,11.0,6.891
-652.0,18.0,6.892
-727.0,15.0,6.893
-774.0,17.0,6.894
-810.0,24.0,6.895
-837.0,16.0,6.896
-850.0,-6.0,6.897
-865.0,-27.0,6.898
-903.0,-32.0,6.899
-958.0,-24.0,6.9
-1004.0,-21.0,6.901
-1053.0,-21.0,6.902
-1155.0,-15.0,6.903
-1311.0,-2.0,6.904
-1441.0,11.0,6.905
-1481.0,16.0,6.906
-1459.0,14.0,6.907
-1426.0,8.0,6.908
-1376.0,4.0,6.909
-1275.0,5.0,6.91
-1147.0,8.0,6.911
-1042.0,6.0,6.912
-964.0,0.0,6.913
-881.0,-4.0,6.914
-783.0,-1.0,6.915
-675.0,5.0,6.916
-563.0,7.0,6.917
-435.0,3.0,6.918
-295.0,-1.0,6.919
-138.0,0.0,6.92
39.0,1.0,6.921
201.0,3.0,6.922
315.0,0.0,6.923
404.0,-5.0,6.924
511.0,-10.0,6.925
625.0,-9.0,6.926
695.0,-4.0,6.927
725.0,-5.0,6.928
756.0,-10.0,6.929
792.0,-12.0,6.93
801.0,-8.0,6.931
787.0,-4.0,6.932
779.0,-5.0,6.933
778.0,-4.0,6.934
763.0,3.0,6.935
738.0,12.0,6.936
721.0,15.0,6.937
716.0,6.0,6.938
728.0,-2.0,6.939
765.0,-8.0,6.94
881.0,-6.0,6.941
983.0,-3.0,6.942
1043.0,6.0,6.943
1090.0,9.0,6.944
1094.0,-4.0,6.945
1108.0,-15.0,6.946
1151.0,-16.0,6.947
1147.0,-16.0,6.948
1001.0,-13.0,6.949
852.0,-11.0,6.95
697.0,-17.0,6.951
549.0,-24.0,6.952
423.0,-32.0,6.953
304.0,-35.0,6.954
205.0,-24.0,6.955
108.0,-15.0,6.956
18.0,-13.0,6.957
-77.0,-10.0,6.958
-176.0,-5.0,6.959
-236.0,1.0,6.96
-275.0,-2.0,6.961
-316.0,-5.0,6.962
-353.0,3.0,6.963
-380.0,15.0,6.964
-427.0,13.0,6.965
-507.0,1.0,6.966
-599.0,-5.0,6.967
