Deltoid,Bicep,Time
-1.0,-2.0,0.0
-2.0,-3.0,0.001
-3.0,-3.0,0.002
0.0,-3.0,0.003
7.0,-1.0,0.004
9.0,0.0,0.005
3.0,0.0,0.006
0.0,-4.0,0.007
3.0,-4.0,0.008
6.0,-3.0,0.009
5.0,0.0,0.01
2.0,-1.0,0.011
2.0,-2.0,0.012
3.0,-3.0,0.013
2.0,-2.0,0.014
2.0,-1.0,0.015
3.0,1.0,0.016
5.0,3.0,0.017
3.0,4.0,0.018
1.0,3.0,0.019
0.0,0.0,0.02
-2.0,-4.0,0.021
-3.0,-4.0,0.022
1.0,-2.0,0.023
5.0,0.0,0.024
3.0,2.0,0.025
2.0,1.0,0.026
1.0,0.0,0.027
0.0,0.0,0.028
2.0,0.0,0.029
5.0,0.0,0.03
5.0,0.0,0.031
4.0,-1.0,0.032
4.0,-1.0,0.033
3.0,0.0,0.034
3.0,3.0,0.035
3.0,4.0,0.036
4.0,6.0,0.037
5.0,3.0,0.038
2.0,1.0,0.039
0.0,0.0,0.04
-2.0,-3.0,0.041
-3.0,-3.0,0.042
1.0,1.0,0.043
10.0,5.0,0.044
12.0,5.0,0.045
5.0,3.0,0.046
0.0,0.0,0.047
2.0,-3.0,0.048
7.0,-1.0,0.049
6.0,0.0,0.05
1.0,1.0,0.051
0.0,0.0,0.052
1.0,-1.0,0.053
2.0,-2.0,0.054
3.0,-3.0,0.055
5.0,-2.0,0.056
7.0,0.0,0.057
4.0,1.0,0.058
0.0,1.0,0.059
-4.0,0.0,0.06
-4.0,-2.0,0.061
-4.0,-3.0,0.062
0.0,-2.0,0.063
4.0,0.0,0.064
5.0,1.0,0.065
0.0,3.0,0.066
1.0,2.0,0.067
5.0,-3.0,0.068
7.0,-6.0,0.069
1.0,-6.0,0.07
-2.0,-4.0,0.071
1.0,-3.0,0.072
5.0,-5.0,0.073
5.0,-6.0,0.074
3.0,-2.0,0.075
5.0,3.0,0.076
7.0,6.0,0.077
5.0,2.0,0.078
0.0,-1.0,0.079
-5.0,0.0,0.08
-8.0,-2.0,0.081
-6.0,-3.0,0.082
-1.0,-4.0,0.083
5.0,-2.0,0.084
7.0,0.0,0.085
5.0,1.0,0.086
6.0,-1.0,0.087
9.0,-4.0,0.088
6.0,-6.0,0.089
0.0,-4.0,0.09
0.0,-1.0,0.091
3.0,0.0,0.092
4.0,0.0,0.093
0.0,0.0,0.094
1.0,2.0,0.095
7.0,3.0,0.096
12.0,6.0,0.097
7.0,6.0,0.098
2.0,5.0,0.099
-2.0,2.0,0.1
-3.0,-1.0,0.101
-4.0,1.0,0.102
1.0,4.0,0.103
5.0,4.0,0.104
5.0,4.0,0.105
4.0,4.0,0.106
2.0,2.0,0.107
0.0,-3.0,0.108
0.0,-7.0,0.109
1.0,-5.0,0.11
1.0,-3.0,0.111
1.0,-4.0,0.112
6.0,-5.0,0.113
9.0,-4.0,0.114
5.0,-3.0,0.115
2.0,0.0,0.116
2.0,1.0,0.117
2.0,-1.0,0.118
-1.0,-2.0,0.119
-7.0,-2.0,0.12
-9.0,-3.0,0.121
-5.0,-3.0,0.122
1.0,-3.0,0.123
8.0,-3.0,0.124
9.0,0.0,0.125
5.0,1.0,0.126
2.0,-1.0,0.127
2.0,-5.0,0.128
1.0,-5.0,0.129
0.0,-3.0,0.13
0.0,-5.0,0.131
1.0,-8.0,0.132
4.0,-4.0,0.133
8.0,2.0,0.134
10.0,4.0,0.135
9.0,0.0,0.136
7.0,0.0,0.137
6.0,2.0,0.138
7.0,5.0,0.139
4.0,1.0,0.14
-1.0,-3.0,0.141
-3.0,0.0,0.142
1.0,2.0,0.143
11.0,3.0,0.144
11.0,3.0,0.145
4.0,4.0,0.146
2.0,2.0,0.147
8.0,-1.0,0.148
10.0,-1.0,0.149
7.0,1.0,0.15
1.0,1.0,0.151
2.0,0.0,0.152
4.0,0.0,0.153
2.0,3.0,0.154
1.0,6.0,0.155
4.0,5.0,0.156
8.0,5.0,0.157
7.0,2.0,0.158
1.0,0.0,0.159
-4.0,-3.0,0.16
-5.0,-7.0,0.161
-4.0,-5.0,0.162
0.0,-1.0,0.163
5.0,1.0,0.164
6.0,3.0,0.165
1.0,3.0,0.166
-3.0,1.0,0.167
0.0,0.0,0.168
4.0,-1.0,0.169
3.0,-2.0,0.17
0.0,-2.0,0.171
0.0,-3.0,0.172
3.0,0.0,0.173
3.0,2.0,0.174
-2.0,4.0,0.175
-5.0,3.0,0.176
-1.0,3.0,0.177
0.0,2.0,0.178
0.0,0.0,0.179
-3.0,0.0,0.18
-8.0,-4.0,0.181
-8.0,-7.0,0.182
-1.0,-6.0,0.183
9.0,-3.0,0.184
12.0,1.0,0.185
6.0,2.0,0.186
1.0,-1.0,0.187
4.0,-5.0,0.188
7.0,-5.0,0.189
5.0,-4.0,0.19
3.0,-2.0,0.191
8.0,-2.0,0.192
9.0,-5.0,0.193
5.0,-7.0,0.194
3.0,-7.0,0.195
7.0,-3.0,0.196
10.0,0.0,0.197
6.0,1.0,0.198
0.0,0.0,0.199
-2.0,-2.0,0.2
-3.0,-4.0,0.201
-3.0,-4.0,0.202
0.0,-4.0,0.203
7.0,-2.0,0.204
7.0,1.0,0.205
0.0,3.0,0.206
-1.0,0.0,0.207
1.0,-3.0,0.208
4.0,-3.0,0.209
1.0,1.0,0.21
-1.0,2.0,0.211
3.0,0.0,0.212
7.0,-1.0,0.213
6.0,0.0,0.214
3.0,2.0,0.215
3.0,4.0,0.216
6.0,5.0,0.217
6.0,4.0,0.218
3.0,1.0,0.219
-1.0,-1.0,0.22
-5.0,-3.0,0.221
-6.0,-1.0,0.222
-1.0,0.0,0.223
7.0,0.0,0.224
7.0,1.0,0.225
1.0,3.0,0.226
0.0,1.0,0.227
4.0,-4.0,0.228
7.0,-7.0,0.229
4.0,-5.0,0.23
2.0,-4.0,0.231
5.0,-3.0,0.232
8.0,-3.0,0.233
4.0,-1.0,0.234
1.0,2.0,0.235
2.0,3.0,0.236
6.0,4.0,0.237
3.0,4.0,0.238
1.0,3.0,0.239
-1.0,0.0,0.24
-1.0,-4.0,0.241
-1.0,-5.0,0.242
4.0,-4.0,0.243
8.0,-3.0,0.244
8.0,1.0,0.245
6.0,4.0,0.246
4.0,2.0,0.247
3.0,-2.0,0.248
3.0,-3.0,0.249
4.0,-1.0,0.25
6.0,-1.0,0.251
8.0,-2.0,0.252
5.0,-1.0,0.253
1.0,1.0,0.254
0.0,0.0,0.255
-3.0,-3.0,0.256
-3.0,-2.0,0.257
-1.0,0.0,0.258
-2.0,3.0,0.259
-4.0,1.0,0.26
-6.0,-3.0,0.261
-5.0,-4.0,0.262
0.0,-3.0,0.263
3.0,-2.0,0.264
2.0,-1.0,0.265
-2.0,3.0,0.266
-1.0,4.0,0.267
4.0,0.0,0.268
7.0,-6.0,0.269
5.0,-4.0,0.27
2.0,0.0,0.271
2.0,1.0,0.272
3.0,0.0,0.273
2.0,-2.0,0.274
1.0,1.0,0.275
0.0,3.0,0.276
1.0,3.0,0.277
0.0,0.0,0.278
0.0,0.0,0.279
-2.0,0.0,0.28
-3.0,-3.0,0.281
-2.0,-3.0,0.282
5.0,0.0,0.283
13.0,0.0,0.284
15.0,-1.0,0.285
8.0,-2.0,0.286
0.0,-1.0,0.287
-4.0,-2.0,0.288
-1.0,-4.0,0.289
4.0,-4.0,0.29
8.0,-1.0,0.291
7.0,0.0,0.292
5.0,-2.0,0.293
1.0,-1.0,0.294
1.0,1.0,0.295
2.0,2.0,0.296
4.0,2.0,0.297
1.0,1.0,0.298
2.0,2.0,0.299
2.0,0.0,0.3
1.0,-5.0,0.301
1.0,-5.0,0.302
2.0,-2.0,0.303
4.0,0.0,0.304
7.0,1.0,0.305
8.0,4.0,0.306
6.0,5.0,0.307
4.0,-1.0,0.308
3.0,-7.0,0.309
1.0,-5.0,0.31
-3.0,0.0,0.311
-6.0,1.0,0.312
-5.0,-1.0,0.313
-3.0,-1.0,0.314
-2.0,3.0,0.315
0.0,3.0,0.316
1.0,2.0,0.317
3.0,1.0,0.318
4.0,2.0,0.319
4.0,3.0,0.32
2.0,-1.0,0.321
1.0,-3.0,0.322
5.0,-1.0,0.323
10.0,0.0,0.324
15.0,0.0,0.325
18.0,0.0,0.326
14.0,0.0,0.327
10.0,0.0,0.328
6.0,-4.0,0.329
0.0,-7.0,0.33
-10.0,-7.0,0.331
-17.0,-5.0,0.332
-13.0,-3.0,0.333
-9.0,0.0,0.334
-6.0,1.0,0.335
-2.0,2.0,0.336
0.0,0.0,0.337
2.0,0.0,0.338
-2.0,1.0,0.339
-6.0,0.0,0.34
-10.0,-5.0,0.341
-10.0,-5.0,0.342
-2.0,-4.0,0.343
8.0,-4.0,0.344
12.0,-2.0,0.345
8.0,4.0,0.346
9.0,6.0,0.347
15.0,4.0,0.348
16.0,0.0,0.349
10.0,1.0,0.35
4.0,3.0,0.351
3.0,2.0,0.352
-2.0,2.0,0.353
-13.0,3.0,0.354
-17.0,5.0,0.355
-10.0,4.0,0.356
0.0,4.0,0.357
2.0,1.0,0.358
2.0,0.0,0.359
5.0,-2.0,0.36
6.0,-4.0,0.361
5.0,-4.0,0.362
7.0,-4.0,0.363
12.0,-6.0,0.364
13.0,-6.0,0.365
6.0,-4.0,0.366
2.0,0.0,0.367
6.0,0.0,0.368
10.0,0.0,0.369
10.0,1.0,0.37
7.0,0.0,0.371
1.0,-4.0,0.372
-2.0,-7.0,0.373
-2.0,-4.0,0.374
0.0,-2.0,0.375
1.0,-2.0,0.376
1.0,-3.0,0.377
7.0,-4.0,0.378
10.0,-3.0,0.379
12.0,-2.0,0.38
11.0,-3.0,0.381
11.0,-3.0,0.382
11.0,-1.0,0.383
10.0,1.0,0.384
11.0,3.0,0.385
14.0,3.0,0.386
18.0,2.0,0.387
18.0,0.0,0.388
7.0,0.0,0.389
-1.0,0.0,0.39
-5.0,-3.0,0.391
-10.0,-3.0,0.392
-19.0,0.0,0.393
-28.0,2.0,0.394
-33.0,2.0,0.395
-31.0,0.0,0.396
-7.0,1.0,0.397
8.0,0.0,0.398
11.0,-1.0,0.399
14.0,-1.0,0.4
13.0,-3.0,0.401
12.0,-2.0,0.402
12.0,-2.0,0.403
11.0,-3.0,0.404
13.0,0.0,0.405
16.0,2.0,0.406
20.0,0.0,0.407
20.0,-2.0,0.408
8.0,-5.0,0.409
-2.0,-3.0,0.41
-6.0,-1.0,0.411
-11.0,-1.0,0.412
-21.0,-1.0,0.413
-31.0,0.0,0.414
-36.0,3.0,0.415
-34.0,4.0,0.416
-8.0,4.0,0.417
19.0,3.0,0.418
35.0,4.0,0.419
22.0,5.0,0.42
-6.0,3.0,0.421
-18.0,3.0,0.422
4.0,4.0,0.423
39.0,4.0,0.424
49.0,3.0,0.425
24.0,-1.0,0.426
-6.0,-5.0,0.427
-17.0,-6.0,0.428
-13.0,-5.0,0.429
-13.0,-3.0,0.43
-17.0,-5.0,0.431
-8.0,-6.0,0.432
11.0,-5.0,0.433
19.0,-2.0,0.434
10.0,0.0,0.435
-9.0,0.0,0.436
-20.0,-1.0,0.437
-25.0,-6.0,0.438
-24.0,-7.0,0.439
-24.0,-5.0,0.44
-19.0,3.0,0.441
-9.0,12.0,0.442
3.0,17.0,0.443
14.0,14.0,0.444
16.0,7.0,0.445
13.0,4.0,0.446
13.0,4.0,0.447
17.0,2.0,0.448
17.0,0.0,0.449
11.0,-5.0,0.45
6.0,-10.0,0.451
7.0,-10.0,0.452
11.0,-5.0,0.453
14.0,2.0,0.454
12.0,5.0,0.455
13.0,4.0,0.456
15.0,7.0,0.457
15.0,8.0,0.458
13.0,2.0,0.459
6.0,-7.0,0.46
-1.0,-14.0,0.461
-3.0,-8.0,0.462
5.0,-6.0,0.463
18.0,-7.0,0.464
22.0,-7.0,0.465
15.0,-2.0,0.466
2.0,-1.0,0.467
-6.0,-6.0,0.468
-11.0,-10.0,0.469
-13.0,-7.0,0.47
-13.0,-2.0,0.471
-10.0,0.0,0.472
-8.0,0.0,0.473
-7.0,4.0,0.474
-3.0,7.0,0.475
6.0,5.0,0.476
17.0,3.0,0.477
22.0,2.0,0.478
18.0,3.0,0.479
10.0,1.0,0.48
2.0,-3.0,0.481
-3.0,-3.0,0.482
-1.0,1.0,0.483
1.0,4.0,0.484
0.0,4.0,0.485
-4.0,2.0,0.486
-4.0,0.0,0.487
-1.0,-3.0,0.488
1.0,-6.0,0.489
2.0,-5.0,0.49
5.0,-3.0,0.491
8.0,-2.0,0.492
8.0,0.0,0.493
8.0,1.0,0.494
11.0,0.0,0.495
9.0,-2.0,0.496
2.0,-5.0,0.497
-6.0,-4.0,0.498
-7.0,-2.0,0.499
-8.0,1.0,0.5
-11.0,0.0,0.501
-11.0,-2.0,0.502
-2.0,0.0,0.503
7.0,2.0,0.504
4.0,4.0,0.505
-2.0,8.0,0.506
-1.0,10.0,0.507
4.0,6.0,0.508
5.0,-2.0,0.509
4.0,-7.0,0.51
6.0,-4.0,0.511
9.0,0.0,0.512
8.0,-1.0,0.513
4.0,-2.0,0.514
3.0,0.0,0.515
3.0,2.0,0.516
2.0,2.0,0.517
3.0,1.0,0.518
6.0,4.0,0.519
4.0,5.0,0.52
-1.0,-1.0,0.521
-2.0,-6.0,0.522
5.0,-4.0,0.523
11.0,1.0,0.524
7.0,1.0,0.525
0.0,-2.0,0.526
-1.0,-3.0,0.527
1.0,0.0,0.528
0.0,0.0,0.529
-1.0,-1.0,0.53
-1.0,0.0,0.531
0.0,0.0,0.532
0.0,-2.0,0.533
-3.0,-4.0,0.534
-3.0,-3.0,0.535
0.0,0.0,0.536
4.0,4.0,0.537
4.0,4.0,0.538
3.0,3.0,0.539
6.0,1.0,0.54
10.0,-2.0,0.541
9.0,-3.0,0.542
6.0,0.0,0.543
8.0,1.0,0.544
12.0,0.0,0.545
12.0,-3.0,0.546
6.0,-5.0,0.547
1.0,-5.0,0.548
1.0,-3.0,0.549
1.0,-4.0,0.55
1.0,-6.0,0.551
2.0,-6.0,0.552
4.0,-5.0,0.553
7.0,-2.0,0.554
5.0,-1.0,0.555
3.0,0.0,0.556
5.0,2.0,0.557
2.0,3.0,0.558
-3.0,2.0,0.559
-8.0,0.0,0.56
-10.0,-1.0,0.561
-9.0,0.0,0.562
-5.0,0.0,0.563
0.0,-2.0,0.564
3.0,0.0,0.565
1.0,7.0,0.566
-2.0,8.0,0.567
0.0,4.0,0.568
4.0,-1.0,0.569
6.0,-1.0,0.57
5.0,0.0,0.571
6.0,-1.0,0.572
5.0,0.0,0.573
2.0,2.0,0.574
2.0,2.0,0.575
5.0,0.0,0.576
8.0,0.0,0.577
3.0,2.0,0.578
-1.0,1.0,0.579
-3.0,-3.0,0.58
-4.0,-7.0,0.581
-4.0,-4.0,0.582
-2.0,-3.0,0.583
4.0,-4.0,0.584
8.0,-5.0,0.585
6.0,-1.0,0.586
2.0,1.0,0.587
4.0,0.0,0.588
6.0,-3.0,0.589
5.0,-4.0,0.59
3.0,-4.0,0.591
4.0,-4.0,0.592
6.0,0.0,0.593
3.0,4.0,0.594
3.0,5.0,0.595
7.0,5.0,0.596
10.0,8.0,0.597
6.0,9.0,0.598
0.0,6.0,0.599
-3.0,2.0,0.6
-2.0,-1.0,0.601
0.0,0.0,0.602
4.0,0.0,0.603
11.0,-1.0,0.604
12.0,-1.0,0.605
5.0,0.0,0.606
1.0,2.0,0.607
3.0,-2.0,0.608
7.0,-4.0,0.609
5.0,-5.0,0.61
3.0,-5.0,0.611
2.0,-2.0,0.612
2.0,0.0,0.613
-1.0,1.0,0.614
-3.0,1.0,0.615
-2.0,-1.0,0.616
2.0,3.0,0.617
2.0,3.0,0.618
2.0,2.0,0.619
0.0,2.0,0.62
-4.0,0.0,0.621
-5.0,0.0,0.622
2.0,-2.0,0.623
8.0,-4.0,0.624
6.0,-2.0,0.625
4.0,0.0,0.626
2.0,1.0,0.627
1.0,0.0,0.628
2.0,-2.0,0.629
3.0,-1.0,0.63
1.0,-1.0,0.631
0.0,-1.0,0.632
0.0,-1.0,0.633
0.0,-2.0,0.634
-1.0,-2.0,0.635
-2.0,-1.0,0.636
1.0,2.0,0.637
4.0,3.0,0.638
2.0,4.0,0.639
0.0,4.0,0.64
-1.0,0.0,0.641
1.0,-4.0,0.642
7.0,-4.0,0.643
11.0,-3.0,0.644
9.0,0.0,0.645
4.0,1.0,0.646
7.0,0.0,0.647
14.0,-3.0,0.648
16.0,-4.0,0.649
10.0,-5.0,0.65
3.0,-5.0,0.651
2.0,-5.0,0.652
1.0,-5.0,0.653
0.0,-5.0,0.654
1.0,-5.0,0.655
3.0,-3.0,0.656
2.0,-1.0,0.657
-2.0,0.0,0.658
-4.0,1.0,0.659
-6.0,1.0,0.66
-8.0,0.0,0.661
-8.0,2.0,0.662
-2.0,2.0,0.663
6.0,1.0,0.664
6.0,2.0,0.665
0.0,5.0,0.666
-2.0,5.0,0.667
3.0,0.0,0.668
8.0,-3.0,0.669
7.0,0.0,0.67
4.0,1.0,0.671
6.0,0.0,0.672
8.0,1.0,0.673
5.0,5.0,0.674
0.0,6.0,0.675
0.0,0.0,0.676
1.0,-4.0,0.677
3.0,-4.0,0.678
1.0,-1.0,0.679
-4.0,-2.0,0.68
-7.0,-6.0,0.681
-5.0,-5.0,0.682
2.0,-1.0,0.683
11.0,0.0,0.684
11.0,0.0,0.685
3.0,0.0,0.686
-1.0,0.0,0.687
4.0,-4.0,0.688
11.0,-5.0,0.689
12.0,-1.0,0.69
8.0,0.0,0.691
6.0,0.0,0.692
9.0,-2.0,0.693
11.0,0.0,0.694
8.0,5.0,0.695
9.0,10.0,0.696
10.0,15.0,0.697
5.0,15.0,0.698
0.0,9.0,0.699
-4.0,0.0,0.7
-5.0,-10.0,0.701
-6.0,-13.0,0.702
-3.0,-15.0,0.703
0.0,-17.0,0.704
-1.0,-13.0,0.705
-3.0,-7.0,0.706
-7.0,-3.0,0.707
-9.0,-6.0,0.708
-4.0,-7.0,0.709
0.0,-4.0,0.71
-2.0,-1.0,0.711
-4.0,-1.0,0.712
0.0,0.0,0.713
3.0,5.0,0.714
1.0,8.0,0.715
0.0,7.0,0.716
2.0,9.0,0.717
5.0,11.0,0.718
5.0,15.0,0.719
2.0,17.0,0.72
0.0,11.0,0.721
-2.0,6.0,0.722
0.0,3.0,0.723
8.0,0.0,0.724
11.0,-2.0,0.725
5.0,-4.0,0.726
1.0,-8.0,0.727
4.0,-10.0,0.728
7.0,-8.0,0.729
7.0,-6.0,0.73
4.0,-5.0,0.731
5.0,-3.0,0.732
6.0,-1.0,0.733
2.0,1.0,0.734
-1.0,1.0,0.735
-2.0,1.0,0.736
1.0,4.0,0.737
3.0,7.0,0.738
2.0,8.0,0.739
-2.0,6.0,0.74
-7.0,0.0,0.741
-6.0,-6.0,0.742
1.0,-10.0,0.743
7.0,-9.0,0.744
4.0,-2.0,0.745
-3.0,2.0,0.746
-4.0,-1.0,0.747
3.0,-5.0,0.748
7.0,-4.0,0.749
3.0,2.0,0.75
2.0,5.0,0.751
5.0,1.0,0.752
5.0,-3.0,0.753
1.0,-4.0,0.754
0.0,-1.0,0.755
5.0,2.0,0.756
8.0,5.0,0.757
6.0,4.0,0.758
1.0,5.0,0.759
-2.0,5.0,0.76
-4.0,1.0,0.761
-2.0,-1.0,0.762
4.0,0.0,0.763
11.0,3.0,0.764
9.0,6.0,0.765
4.0,2.0,0.766
3.0,-3.0,0.767
5.0,-5.0,0.768
6.0,-4.0,0.769
3.0,-2.0,0.77
2.0,-3.0,0.771
2.0,-2.0,0.772
0.0,0.0,0.773
0.0,0.0,0.774
3.0,0.0,0.775
5.0,0.0,0.776
4.0,0.0,0.777
2.0,0.0,0.778
4.0,4.0,0.779
4.0,7.0,0.78
0.0,2.0,0.781
-4.0,-5.0,0.782
0.0,-9.0,0.783
8.0,-7.0,0.784
7.0,-2.0,0.785
1.0,-2.0,0.786
2.0,-7.0,0.787
7.0,-11.0,0.788
9.0,-15.0,0.789
5.0,-13.0,0.79
4.0,-10.0,0.791
9.0,-8.0,0.792
9.0,-10.0,0.793
7.0,-13.0,0.794
7.0,-12.0,0.795
8.0,-9.0,0.796
9.0,-2.0,0.797
5.0,4.0,0.798
1.0,11.0,0.799
-3.0,18.0,0.8
-6.0,20.0,0.801
-6.0,12.0,0.802
0.0,-7.0,0.803
6.0,-28.0,0.804
5.0,-38.0,0.805
-1.0,-29.0,0.806
-6.0,-12.0,0.807
-8.0,0.0,0.808
-9.0,6.0,0.809
-10.0,7.0,0.81
-11.0,9.0,0.811
-12.0,8.0,0.812
-13.0,6.0,0.813
-10.0,4.0,0.814
-5.0,8.0,0.815
0.0,16.0,0.816
4.0,23.0,0.817
6.0,23.0,0.818
7.0,18.0,0.819
7.0,14.0,0.82
2.0,8.0,0.821
0.0,6.0,0.822
6.0,8.0,0.823
13.0,12.0,0.824
14.0,12.0,0.825
11.0,7.0,0.826
11.0,1.0,0.827
15.0,-1.0,0.828
15.0,-5.0,0.829
12.0,-8.0,0.83
9.0,-9.0,0.831
6.0,-6.0,0.832
3.0,-2.0,0.833
0.0,-1.0,0.834
1.0,-3.0,0.835
5.0,-1.0,0.836
2.0,5.0,0.837
-4.0,7.0,0.838
-8.0,5.0,0.839
-8.0,3.0,0.84
-9.0,-2.0,0.841
-12.0,-3.0,0.842
-7.0,-6.0,0.843
4.0,-6.0,0.844
9.0,-5.0,0.845
0.0,-6.0,0.846
-3.0,-6.0,0.847
3.0,-5.0,0.848
13.0,-4.0,0.849
12.0,-2.0,0.85
7.0,-1.0,0.851
6.0,1.0,0.852
10.0,3.0,0.853
10.0,4.0,0.854
6.0,3.0,0.855
6.0,1.0,0.856
8.0,1.0,0.857
6.0,0.0,0.858
6.0,-1.0,0.859
3.0,-1.0,0.86
0.0,-5.0,0.861
-3.0,-5.0,0.862
0.0,-4.0,0.863
10.0,-2.0,0.864
15.0,1.0,0.865
14.0,2.0,0.866
14.0,-3.0,0.867
20.0,-8.0,0.868
22.0,-6.0,0.869
17.0,-2.0,0.87
11.0,-2.0,0.871
16.0,-5.0,0.872
21.0,-2.0,0.873
19.0,4.0,0.874
15.0,6.0,0.875
14.0,0.0,0.876
13.0,-3.0,0.877
3.0,-4.0,0.878
-9.0,-3.0,0.879
-21.0,0.0,0.88
-31.0,3.0,0.881
-44.0,7.0,0.882
-52.0,7.0,0.883
-52.0,6.0,0.884
-46.0,20.0,0.885
-41.0,65.0,0.886
-32.0,139.0,0.887
-17.0,205.0,0.888
-3.0,208.0,0.889
-1.0,121.0,0.89
-3.0,-22.0,0.891
1.0,-148.0,0.892
12.0,-215.0,0.893
17.0,-231.0,0.894
15.0,-218.0,0.895
12.0,-184.0,0.896
11.0,-137.0,0.897
11.0,-88.0,0.898
9.0,-48.0,0.899
2.0,-11.0,0.9
-1.0,16.0,0.901
1.0,30.0,0.902
9.0,29.0,0.903
17.0,36.0,0.904
21.0,63.0,0.905
17.0,96.0,0.906
14.0,115.0,0.907
15.0,118.0,0.908
17.0,93.0,0.909
17.0,37.0,0.91
15.0,-28.0,0.911
17.0,-66.0,0.912
19.0,-71.0,0.913
17.0,-68.0,0.914
15.0,-69.0,0.915
15.0,-61.0,0.916
19.0,-38.0,0.917
25.0,-18.0,0.918
29.0,-8.0,0.919
27.0,2.0,0.92
17.0,16.0,0.921
-2.0,27.0,0.922
-13.0,29.0,0.923
-8.0,32.0,0.924
0.0,33.0,0.925
-4.0,33.0,0.926
-18.0,27.0,0.927
-28.0,23.0,0.928
-25.0,21.0,0.929
-12.0,19.0,0.93
2.0,16.0,0.931
12.0,12.0,0.932
11.0,9.0,0.933
1.0,7.0,0.934
-9.0,8.0,0.935
-13.0,9.0,0.936
-9.0,7.0,0.937
-5.0,5.0,0.938
-2.0,4.0,0.939
1.0,6.0,0.94
4.0,7.0,0.941
8.0,6.0,0.942
12.0,6.0,0.943
14.0,6.0,0.944
10.0,4.0,0.945
6.0,2.0,0.946
4.0,3.0,0.947
4.0,5.0,0.948
9.0,4.0,0.949
15.0,1.0,0.95
20.0,0.0,0.951
25.0,-1.0,0.952
25.0,-1.0,0.953
24.0,0.0,0.954
24.0,2.0,0.955
22.0,3.0,0.956
11.0,0.0,0.957
-3.0,-4.0,0.958
-28.0,-3.0,0.959
-47.0,-1.0,0.96
-57.0,3.0,0.961
-57.0,6.0,0.962
-42.0,6.0,0.963
-16.0,4.0,0.964
2.0,-5.0,0.965
4.0,-13.0,0.966
-2.0,-18.0,0.967
-2.0,-24.0,0.968
1.0,-30.0,0.969
-2.0,-33.0,0.97
-7.0,-27.0,0.971
-7.0,-20.0,0.972
-2.0,-8.0,0.973
-2.0,12.0,0.974
-3.0,57.0,0.975
6.0,96.0,0.976
22.0,119.0,0.977
31.0,128.0,0.978
26.0,63.0,0.979
14.0,-28.0,0.98
5.0,-95.0,0.981
3.0,-94.0,0.982
11.0,-45.0,0.983
14.0,0.0,0.984
1.0,2.0,0.985
-23.0,-40.0,0.986
-36.0,-100.0,0.987
-25.0,-143.0,0.988
-4.0,-146.0,0.989
15.0,-107.0,0.99
25.0,-40.0,0.991
30.0,26.0,0.992
28.0,63.0,0.993
23.0,58.0,0.994
19.0,31.0,0.995
17.0,5.0,0.996
13.0,-8.0,0.997
5.0,-16.0,0.998
0.0,-16.0,0.999
1.0,-14.0,1.0
6.0,-16.0,1.001
8.0,-18.0,1.002
8.0,-14.0,1.003
11.0,0.0,1.004
11.0,16.0,1.005
8.0,28.0,1.006
6.0,32.0,1.007
10.0,32.0,1.008
17.0,29.0,1.009
14.0,28.0,1.01
2.0,37.0,1.011
-9.0,51.0,1.012
-10.0,53.0,1.013
-2.0,36.0,1.014
8.0,13.0,1.015
17.0,0.0,1.016
21.0,0.0,1.017
22.0,12.0,1.018
16.0,26.0,1.019
5.0,36.0,1.02
-5.0,36.0,1.021
-6.0,38.0,1.022
-3.0,43.0,1.023
-1.0,49.0,1.024
-3.0,44.0,1.025
-6.0,25.0,1.026
-6.0,-5.0,1.027
-2.0,-41.0,1.028
0.0,-69.0,1.029
-4.0,-78.0,1.03
-16.0,-74.0,1.031
-25.0,-64.0,1.032
-29.0,-49.0,1.033
-27.0,-20.0,1.034
-25.0,24.0,1.035
-21.0,71.0,1.036
-16.0,94.0,1.037
-9.0,75.0,1.038
-4.0,27.0,1.039
-1.0,-12.0,1.04
1.0,-24.0,1.041
8.0,-24.0,1.042
15.0,-38.0,1.043
19.0,-66.0,1.044
17.0,-88.0,1.045
14.0,-99.0,1.046
11.0,-101.0,1.047
13.0,-95.0,1.048
16.0,-79.0,1.049
13.0,-60.0,1.05
6.0,-41.0,1.051
0.0,-15.0,1.052
-8.0,15.0,1.053
-15.0,34.0,1.054
-17.0,42.0,1.055
-5.0,50.0,1.056
14.0,64.0,1.057
25.0,73.0,1.058
31.0,82.0,1.059
31.0,93.0,1.06
26.0,89.0,1.061
18.0,51.0,1.062
8.0,-12.0,1.063
5.0,-59.0,1.064
5.0,-68.0,1.065
3.0,-56.0,1.066
-4.0,-40.0,1.067
-12.0,-14.0,1.068
-19.0,21.0,1.069
-23.0,45.0,1.07
-22.0,45.0,1.071
-19.0,40.0,1.072
-20.0,45.0,1.073
-22.0,46.0,1.074
-12.0,35.0,1.075
14.0,19.0,1.076
34.0,16.0,1.077
36.0,12.0,1.078
24.0,3.0,1.079
11.0,-9.0,1.08
8.0,-21.0,1.081
14.0,-27.0,1.082
23.0,-32.0,1.083
27.0,-30.0,1.084
20.0,-19.0,1.085
7.0,-4.0,1.086
1.0,11.0,1.087
1.0,24.0,1.088
-4.0,30.0,1.089
-13.0,32.0,1.09
-17.0,33.0,1.091
-11.0,34.0,1.092
-6.0,32.0,1.093
-6.0,26.0,1.094
-5.0,14.0,1.095
1.0,6.0,1.096
8.0,0.0,1.097
11.0,-14.0,1.098
14.0,-41.0,1.099
14.0,-73.0,1.1
15.0,-105.0,1.101
18.0,-116.0,1.102
25.0,-106.0,1.103
23.0,-81.0,1.104
4.0,-58.0,1.105
-18.0,-41.0,1.106
-23.0,-24.0,1.107
-10.0,-10.0,1.108
5.0,-3.0,1.109
8.0,2.0,1.11
7.0,10.0,1.111
13.0,18.0,1.112
21.0,25.0,1.113
19.0,29.0,1.114
1.0,34.0,1.115
-18.0,39.0,1.116
-22.0,37.0,1.117
-8.0,31.0,1.118
13.0,27.0,1.119
21.0,27.0,1.12
21.0,24.0,1.121
24.0,22.0,1.122
32.0,22.0,1.123
32.0,25.0,1.124
6.0,26.0,1.125
-41.0,20.0,1.126
-93.0,12.0,1.127
-130.0,6.0,1.128
-136.0,4.0,1.129
-111.0,4.0,1.13
-71.0,1.0,1.131
-25.0,-3.0,1.132
32.0,-8.0,1.133
84.0,-10.0,1.134
101.0,-13.0,1.135
79.0,-16.0,1.136
53.0,-17.0,1.137
38.0,-14.0,1.138
15.0,-7.0,1.139
-25.0,-3.0,1.14
-43.0,-4.0,1.141
-8.0,-5.0,1.142
43.0,-2.0,1.143
56.0,6.0,1.144
38.0,15.0,1.145
45.0,24.0,1.146
78.0,27.0,1.147
92.0,25.0,1.148
65.0,17.0,1.149
19.0,10.0,1.15
-13.0,2.0,1.151
-30.0,-6.0,1.152
-44.0,-11.0,1.153
-57.0,-12.0,1.154
-63.0,-10.0,1.155
-48.0,-9.0,1.156
-4.0,-5.0,1.157
47.0,0.0,1.158
67.0,7.0,1.159
53.0,6.0,1.16
42.0,-2.0,1.161
33.0,-9.0,1.162
-18.0,-12.0,1.163
-101.0,-13.0,1.164
-131.0,-12.0,1.165
-67.0,-9.0,1.166
16.0,-10.0,1.167
40.0,-14.0,1.168
27.0,-17.0,1.169
27.0,-17.0,1.17
41.0,-19.0,1.171
45.0,-23.0,1.172
50.0,-22.0,1.173
61.0,-14.0,1.174
53.0,-7.0,1.175
19.0,-8.0,1.176
-3.0,-8.0,1.177
-1.0,1.0,1.178
-11.0,13.0,1.179
-60.0,15.0,1.18
-102.0,6.0,1.181
-93.0,9.0,1.182
-53.0,25.0,1.183
-23.0,42.0,1.184
-1.0,44.0,1.185
23.0,31.0,1.186
26.0,11.0,1.187
-11.0,-3.0,1.188
-54.0,-8.0,1.189
-51.0,-7.0,1.19
-5.0,-7.0,1.191
31.0,-11.0,1.192
30.0,-12.0,1.193
15.0,-9.0,1.194
11.0,-8.0,1.195
22.0,-13.0,1.196
34.0,-16.0,1.197
33.0,-14.0,1.198
21.0,-6.0,1.199
4.0,0.0,1.2
-5.0,-1.0,1.201
-2.0,0.0,1.202
8.0,2.0,1.203
19.0,1.0,1.204
22.0,1.0,1.205
17.0,2.0,1.206
9.0,5.0,1.207
8.0,6.0,1.208
13.0,8.0,1.209
15.0,10.0,1.21
11.0,9.0,1.211
10.0,6.0,1.212
12.0,6.0,1.213
14.0,10.0,1.214
12.0,8.0,1.215
10.0,-1.0,1.216
9.0,-8.0,1.217
6.0,-10.0,1.218
0.0,-4.0,1.219
-11.0,-1.0,1.22
-18.0,-4.0,1.221
-16.0,-4.0,1.222
-5.0,-5.0,1.223
5.0,-8.0,1.224
7.0,-10.0,1.225
1.0,-6.0,1.226
0.0,-2.0,1.227
4.0,-4.0,1.228
8.0,-9.0,1.229
9.0,-8.0,1.23
11.0,-5.0,1.231
14.0,-4.0,1.232
13.0,-3.0,1.233
7.0,0.0,1.234
3.0,3.0,1.235
3.0,2.0,1.236
0.0,0.0,1.237
-11.0,1.0,1.238
-19.0,4.0,1.239
-16.0,3.0,1.24
-8.0,-2.0,1.241
-7.0,-4.0,1.242
-6.0,-4.0,1.243
0.0,-4.0,1.244
3.0,-1.0,1.245
-3.0,1.0,1.246
-6.0,0.0,1.247
2.0,-3.0,1.248
12.0,-1.0,1.249
9.0,2.0,1.25
-1.0,0.0,1.251
-4.0,-2.0,1.252
-1.0,0.0,1.253
-2.0,6.0,1.254
-5.0,6.0,1.255
0.0,2.0,1.256
6.0,1.0,1.257
5.0,5.0,1.258
0.0,5.0,1.259
-1.0,3.0,1.26
0.0,-1.0,1.261
1.0,-4.0,1.262
3.0,-4.0,1.263
8.0,-3.0,1.264
11.0,-1.0,1.265
7.0,0.0,1.266
7.0,-1.0,1.267
12.0,-2.0,1.268
15.0,-2.0,1.269
12.0,-2.0,1.27
7.0,-2.0,1.271
8.0,-2.0,1.272
9.0,0.0,1.273
5.0,1.0,1.274
7.0,2.0,1.275
11.0,2.0,1.276
11.0,0.0,1.277
3.0,5.0,1.278
-3.0,5.0,1.279
-5.0,3.0,1.28
-10.0,-1.0,1.281
-13.0,-4.0,1.282
-8.0,-4.0,1.283
5.0,-3.0,1.284
15.0,-1.0,1.285
11.0,0.0,1.286
6.0,-1.0,1.287
9.0,-2.0,1.288
9.0,-2.0,1.289
4.0,-2.0,1.29
-1.0,-2.0,1.291
-2.0,-2.0,1.292
-4.0,0.0,1.293
-9.0,1.0,1.294
-12.0,2.0,1.295
-8.0,2.0,1.296
-5.0,0.0,1.297
-5.0,-1.0,1.298
-4.0,-1.0,1.299
2.0,-2.0,1.3
7.0,-8.0,1.301
7.0,-9.0,1.302
9.0,-6.0,1.303
13.0,-1.0,1.304
12.0,2.0,1.305
6.0,8.0,1.306
2.0,11.0,1.307
9.0,11.0,1.308
13.0,12.0,1.309
8.0,15.0,1.31
3.0,16.0,1.311
8.0,11.0,1.312
19.0,2.0,1.313
21.0,-2.0,1.314
15.0,-1.0,1.315
5.0,-5.0,1.316
-5.0,-13.0,1.317
-14.0,-22.0,1.318
-19.0,-26.0,1.319
-21.0,-27.0,1.32
-26.0,-30.0,1.321
-31.0,-30.0,1.322
-22.0,-23.0,1.323
-1.0,-12.0,1.324
16.0,-5.0,1.325
17.0,-1.0,1.326
14.0,0.0,1.327
16.0,0.0,1.328
15.0,0.0,1.329
4.0,3.0,1.33
0.0,5.0,1.331
11.0,5.0,1.332
24.0,6.0,1.333
23.0,11.0,1.334
16.0,17.0,1.335
11.0,19.0,1.336
10.0,18.0,1.337
-1.0,14.0,1.338
-8.0,11.0,1.339
-7.0,9.0,1.34
-4.0,4.0,1.341
-3.0,4.0,1.342
1.0,4.0,1.343
10.0,3.0,1.344
14.0,3.0,1.345
5.0,7.0,1.346
-3.0,8.0,1.347
-2.0,4.0,1.348
1.0,-2.0,1.349
-2.0,-3.0,1.35
-3.0,2.0,1.351
3.0,4.0,1.352
10.0,2.0,1.353
8.0,-1.0,1.354
3.0,-1.0,1.355
1.0,0.0,1.356
0.0,2.0,1.357
-4.0,-1.0,1.358
-4.0,-3.0,1.359
-5.0,-4.0,1.36
-7.0,-5.0,1.361
-9.0,-5.0,1.362
-3.0,-7.0,1.363
2.0,-8.0,1.364
6.0,-8.0,1.365
9.0,-5.0,1.366
3.0,-4.0,1.367
-1.0,-5.0,1.368
0.0,-4.0,1.369
2.0,-2.0,1.37
3.0,0.0,1.371
4.0,1.0,1.372
5.0,0.0,1.373
6.0,1.0,1.374
4.0,0.0,1.375
2.0,-3.0,1.376
0.0,-2.0,1.377
0.0,-3.0,1.378
2.0,-4.0,1.379
-2.0,-5.0,1.38
-8.0,-7.0,1.381
-10.0,-9.0,1.382
-1.0,-7.0,1.383
7.0,-6.0,1.384
7.0,-6.0,1.385
5.0,-4.0,1.386
6.0,-2.0,1.387
6.0,-1.0,1.388
5.0,-1.0,1.389
6.0,0.0,1.39
9.0,3.0,1.391
6.0,5.0,1.392
-2.0,3.0,1.393
-8.0,2.0,1.394
-9.0,6.0,1.395
-12.0,9.0,1.396
-14.0,8.0,1.397
-9.0,7.0,1.398
3.0,7.0,1.399
11.0,7.0,1.4
7.0,4.0,1.401
4.0,0.0,1.402
11.0,-2.0,1.403
17.0,0.0,1.404
13.0,2.0,1.405
2.0,2.0,1.406
-2.0,-4.0,1.407
0.0,-11.0,1.408
1.0,-12.0,1.409
0.0,-9.0,1.41
2.0,-7.0,1.411
7.0,-7.0,1.412
10.0,-8.0,1.413
11.0,-8.0,1.414
12.0,-7.0,1.415
11.0,-5.0,1.416
9.0,2.0,1.417
4.0,9.0,1.418
0.0,14.0,1.419
-3.0,9.0,1.42
-6.0,1.0,1.421
-5.0,-1.0,1.422
2.0,0.0,1.423
9.0,-3.0,1.424
8.0,-4.0,1.425
3.0,-2.0,1.426
3.0,0.0,1.427
6.0,-3.0,1.428
6.0,-6.0,1.429
4.0,-4.0,1.43
5.0,0.0,1.431
9.0,0.0,1.432
7.0,0.0,1.433
2.0,2.0,1.434
0.0,4.0,1.435
4.0,4.0,1.436
7.0,5.0,1.437
8.0,6.0,1.438
3.0,5.0,1.439
-4.0,3.0,1.44
-11.0,-1.0,1.441
-11.0,-4.0,1.442
-2.0,0.0,1.443
8.0,3.0,1.444
11.0,4.0,1.445
6.0,5.0,1.446
2.0,1.0,1.447
4.0,-2.0,1.448
4.0,-2.0,1.449
0.0,-1.0,1.45
-3.0,2.0,1.451
-7.0,5.0,1.452
-12.0,5.0,1.453
-18.0,6.0,1.454
-19.0,5.0,1.455
-14.0,4.0,1.456
-5.0,2.0,1.457
1.0,1.0,1.458
4.0,4.0,1.459
6.0,2.0,1.46
12.0,-5.0,1.461
18.0,-7.0,1.462
22.0,-7.0,1.463
19.0,-6.0,1.464
8.0,-4.0,1.465
-5.0,-1.0,1.466
-9.0,1.0,1.467
-5.0,4.0,1.468
-1.0,8.0,1.469
-2.0,12.0,1.47
-2.0,10.0,1.471
0.0,7.0,1.472
1.0,5.0,1.473
-2.0,5.0,1.474
-1.0,2.0,1.475
4.0,-4.0,1.476
11.0,-7.0,1.477
10.0,-8.0,1.478
8.0,-12.0,1.479
3.0,-19.0,1.48
0.0,-28.0,1.481
1.0,-33.0,1.482
11.0,-34.0,1.483
18.0,-30.0,1.484
14.0,-19.0,1.485
-1.0,-8.0,1.486
-9.0,-4.0,1.487
-4.0,-2.0,1.488
0.0,1.0,1.489
-1.0,5.0,1.49
0.0,3.0,1.491
9.0,3.0,1.492
11.0,9.0,1.493
1.0,14.0,1.494
-5.0,13.0,1.495
-1.0,11.0,1.496
8.0,13.0,1.497
11.0,14.0,1.498
7.0,11.0,1.499
1.0,6.0,1.5
-4.0,2.0,1.501
-6.0,1.0,1.502
-3.0,1.0,1.503
4.0,3.0,1.504
7.0,8.0,1.505
2.0,10.0,1.506
1.0,5.0,1.507
6.0,0.0,1.508
9.0,2.0,1.509
6.0,4.0,1.51
3.0,2.0,1.511
5.0,-3.0,1.512
7.0,-5.0,1.513
2.0,0.0,1.514
-1.0,4.0,1.515
0.0,2.0,1.516
6.0,2.0,1.517
7.0,-1.0,1.518
2.0,-4.0,1.519
-4.0,-4.0,1.52
-4.0,-2.0,1.521
-2.0,-1.0,1.522
1.0,-4.0,1.523
5.0,-8.0,1.524
7.0,-7.0,1.525
7.0,-5.0,1.526
4.0,-5.0,1.527
3.0,-8.0,1.528
6.0,-5.0,1.529
8.0,-1.0,1.53
7.0,0.0,1.531
3.0,-1.0,1.532
2.0,0.0,1.533
4.0,3.0,1.534
3.0,3.0,1.535
0.0,0.0,1.536
1.0,2.0,1.537
3.0,4.0,1.538
2.0,3.0,1.539
-3.0,-2.0,1.54
-7.0,-8.0,1.541
-4.0,-8.0,1.542
3.0,-6.0,1.543
10.0,-4.0,1.544
8.0,-2.0,1.545
7.0,0.0,1.546
5.0,0.0,1.547
5.0,0.0,1.548
2.0,1.0,1.549
-1.0,0.0,1.55
-1.0,-3.0,1.551
3.0,-5.0,1.552
5.0,-3.0,1.553
5.0,2.0,1.554
3.0,3.0,1.555
0.0,1.0,1.556
-4.0,1.0,1.557
-7.0,0.0,1.558
-8.0,1.0,1.559
-10.0,1.0,1.56
-12.0,-2.0,1.561
-8.0,-1.0,1.562
5.0,-1.0,1.563
22.0,-3.0,1.564
27.0,-1.0,1.565
17.0,2.0,1.566
6.0,2.0,1.567
2.0,-2.0,1.568
4.0,-5.0,1.569
3.0,-3.0,1.57
2.0,0.0,1.571
7.0,2.0,1.572
12.0,1.0,1.573
11.0,3.0,1.574
5.0,5.0,1.575
3.0,4.0,1.576
6.0,2.0,1.577
8.0,-1.0,1.578
5.0,-4.0,1.579
-2.0,-6.0,1.58
-11.0,-10.0,1.581
-14.0,-10.0,1.582
-7.0,-8.0,1.583
3.0,-5.0,1.584
6.0,0.0,1.585
1.0,3.0,1.586
0.0,0.0,1.587
3.0,-5.0,1.588
6.0,-7.0,1.589
5.0,-5.0,1.59
5.0,0.0,1.591
7.0,3.0,1.592
6.0,4.0,1.593
0.0,5.0,1.594
-3.0,5.0,1.595
-3.0,2.0,1.596
-3.0,0.0,1.597
-5.0,1.0,1.598
-6.0,4.0,1.599
-3.0,3.0,1.6
0.0,-4.0,1.601
0.0,-7.0,1.602
4.0,-5.0,1.603
13.0,-1.0,1.604
15.0,1.0,1.605
8.0,2.0,1.606
1.0,2.0,1.607
0.0,-1.0,1.608
3.0,-4.0,1.609
3.0,-2.0,1.61
6.0,2.0,1.611
10.0,3.0,1.612
11.0,0.0,1.613
5.0,2.0,1.614
0.0,4.0,1.615
0.0,4.0,1.616
0.0,3.0,1.617
-2.0,1.0,1.618
-6.0,1.0,1.619
-9.0,0.0,1.62
-9.0,-5.0,1.621
-6.0,-6.0,1.622
0.0,-6.0,1.623
7.0,-6.0,1.624
6.0,-4.0,1.625
1.0,-1.0,1.626
3.0,0.0,1.627
9.0,-3.0,1.628
9.0,-1.0,1.629
2.0,6.0,1.63
0.0,9.0,1.631
4.0,3.0,1.632
4.0,-1.0,1.633
1.0,1.0,1.634
0.0,5.0,1.635
3.0,3.0,1.636
7.0,1.0,1.637
6.0,1.0,1.638
7.0,2.0,1.639
5.0,0.0,1.64
1.0,-6.0,1.641
-3.0,-8.0,1.642
-5.0,-7.0,1.643
-5.0,-5.0,1.644
-8.0,2.0,1.645
-11.0,6.0,1.646
-4.0,4.0,1.647
13.0,-3.0,1.648
27.0,-4.0,1.649
29.0,-1.0,1.65
21.0,-1.0,1.651
9.0,-4.0,1.652
-2.0,-2.0,1.653
-7.0,3.0,1.654
-3.0,5.0,1.655
4.0,0.0,1.656
9.0,-1.0,1.657
6.0,3.0,1.658
1.0,5.0,1.659
-1.0,2.0,1.66
-2.0,-4.0,1.661
-4.0,-7.0,1.662
1.0,-7.0,1.663
8.0,-7.0,1.664
9.0,-8.0,1.665
3.0,-7.0,1.666
-1.0,-6.0,1.667
1.0,-6.0,1.668
3.0,-4.0,1.669
-1.0,3.0,1.67
-8.0,10.0,1.671
-7.0,8.0,1.672
0.0,2.0,1.673
7.0,1.0,1.674
11.0,5.0,1.675
9.0,9.0,1.676
5.0,13.0,1.677
1.0,11.0,1.678
1.0,6.0,1.679
1.0,-1.0,1.68
-3.0,-8.0,1.681
-10.0,-7.0,1.682
-9.0,-5.0,1.683
-3.0,-4.0,1.684
2.0,-3.0,1.685
0.0,2.0,1.686
1.0,1.0,1.687
8.0,-8.0,1.688
11.0,-11.0,1.689
7.0,-3.0,1.69
5.0,4.0,1.691
7.0,2.0,1.692
4.0,-2.0,1.693
-3.0,4.0,1.694
-4.0,10.0,1.695
5.0,8.0,1.696
14.0,2.0,1.697
12.0,0.0,1.698
4.0,1.0,1.699
0.0,-1.0,1.7
-4.0,-8.0,1.701
-11.0,-7.0,1.702
-12.0,-3.0,1.703
-3.0,-6.0,1.704
8.0,-11.0,1.705
9.0,-9.0,1.706
4.0,-1.0,1.707
2.0,2.0,1.708
6.0,0.0,1.709
9.0,-1.0,1.71
8.0,0.0,1.711
3.0,3.0,1.712
-2.0,5.0,1.713
3.0,3.0,1.714
20.0,-1.0,1.715
29.0,-3.0,1.716
19.0,0.0,1.717
-11.0,2.0,1.718
-30.0,-1.0,1.719
-27.0,-5.0,1.72
-13.0,-5.0,1.721
-1.0,0.0,1.722
13.0,2.0,1.723
29.0,-2.0,1.724
38.0,-1.0,1.725
35.0,3.0,1.726
24.0,2.0,1.727
17.0,-6.0,1.728
10.0,-10.0,1.729
4.0,-5.0,1.73
0.0,0.0,1.731
0.0,1.0,1.732
-3.0,4.0,1.733
-9.0,7.0,1.734
-12.0,6.0,1.735
-12.0,-1.0,1.736
-12.0,-7.0,1.737
-16.0,-8.0,1.738
-6.0,-9.0,1.739
16.0,-10.0,1.74
30.0,-12.0,1.741
18.0,-5.0,1.742
-7.0,8.0,1.743
-19.0,15.0,1.744
-21.0,11.0,1.745
-33.0,5.0,1.746
-46.0,2.0,1.747
-35.0,3.0,1.748
-3.0,2.0,1.749
21.0,-1.0,1.75
18.0,-3.0,1.751
12.0,-2.0,1.752
20.0,-2.0,1.753
29.0,-2.0,1.754
21.0,0.0,1.755
6.0,8.0,1.756
2.0,15.0,1.757
4.0,14.0,1.758
1.0,6.0,1.759
-6.0,-4.0,1.76
-10.0,-17.0,1.761
-7.0,-23.0,1.762
-3.0,-22.0,1.763
-5.0,-13.0,1.764
-11.0,-3.0,1.765
-17.0,7.0,1.766
-10.0,13.0,1.767
6.0,17.0,1.768
17.0,20.0,1.769
12.0,21.0,1.77
3.0,14.0,1.771
4.0,0.0,1.772
8.0,-12.0,1.773
0.0,-12.0,1.774
-7.0,-5.0,1.775
5.0,0.0,1.776
29.0,-1.0,1.777
37.0,-3.0,1.778
25.0,-3.0,1.779
17.0,-3.0,1.78
29.0,-9.0,1.781
45.0,-11.0,1.782
44.0,-8.0,1.783
29.0,-5.0,1.784
14.0,-4.0,1.785
6.0,-5.0,1.786
-1.0,-4.0,1.787
-13.0,-4.0,1.788
-33.0,-6.0,1.789
-53.0,-6.0,1.79
-55.0,-2.0,1.791
-40.0,1.0,1.792
-28.0,3.0,1.793
-26.0,3.0,1.794
-16.0,2.0,1.795
10.0,1.0,1.796
34.0,1.0,1.797
33.0,0.0,1.798
12.0,0.0,1.799
-9.0,-3.0,1.8
-13.0,-7.0,1.801
-8.0,-6.0,1.802
-1.0,-1.0,1.803
6.0,1.0,1.804
8.0,1.0,1.805
11.0,2.0,1.806
18.0,3.0,1.807
21.0,4.0,1.808
15.0,5.0,1.809
5.0,7.0,1.81
2.0,6.0,1.811
4.0,1.0,1.812
3.0,-2.0,1.813
0.0,0.0,1.814
1.0,4.0,1.815
5.0,5.0,1.816
8.0,5.0,1.817
4.0,5.0,1.818
0.0,3.0,1.819
-2.0,-1.0,1.82
-4.0,-7.0,1.821
-1.0,-7.0,1.822
6.0,-3.0,1.823
10.0,1.0,1.824
5.0,5.0,1.825
1.0,7.0,1.826
3.0,4.0,1.827
7.0,-1.0,1.828
3.0,-3.0,1.829
-1.0,-1.0,1.83
0.0,0.0,1.831
2.0,-5.0,1.832
1.0,-6.0,1.833
-1.0,-2.0,1.834
3.0,0.0,1.835
9.0,-2.0,1.836
10.0,-3.0,1.837
4.0,-3.0,1.838
0.0,-2.0,1.839
-3.0,-4.0,1.84
-6.0,-8.0,1.841
-7.0,-9.0,1.842
0.0,-11.0,1.843
10.0,-8.0,1.844
12.0,3.0,1.845
4.0,10.0,1.846
0.0,1.0,1.847
4.0,-10.0,1.848
9.0,-10.0,1.849
8.0,1.0,1.85
6.0,4.0,1.851
6.0,-4.0,1.852
3.0,-5.0,1.853
-3.0,3.0,1.854
-8.0,7.0,1.855
-8.0,0.0,1.856
-1.0,-1.0,1.857
-1.0,4.0,1.858
-5.0,4.0,1.859
-12.0,-6.0,1.86
-12.0,-13.0,1.861
-8.0,-7.0,1.862
-1.0,-2.0,1.863
8.0,-4.0,1.864
18.0,-4.0,1.865
29.0,0.0,1.866
34.0,4.0,1.867
25.0,2.0,1.868
1.0,2.0,1.869
-18.0,6.0,1.87
-18.0,7.0,1.871
-9.0,3.0,1.872
-11.0,0.0,1.873
-17.0,1.0,1.874
-10.0,2.0,1.875
5.0,2.0,1.876
11.0,4.0,1.877
5.0,5.0,1.878
13.0,0.0,1.879
28.0,-9.0,1.88
27.0,-18.0,1.881
7.0,-17.0,1.882
-2.0,-15.0,1.883
9.0,-15.0,1.884
16.0,-9.0,1.885
5.0,0.0,1.886
-2.0,10.0,1.887
4.0,14.0,1.888
8.0,13.0,1.889
1.0,12.0,1.89
-2.0,11.0,1.891
3.0,12.0,1.892
4.0,11.0,1.893
-4.0,9.0,1.894
-9.0,4.0,1.895
-2.0,4.0,1.896
2.0,9.0,1.897
-3.0,12.0,1.898
-6.0,10.0,1.899
-3.0,4.0,1.9
-2.0,-2.0,1.901
-4.0,-6.0,1.902
-1.0,-7.0,1.903
6.0,-5.0,1.904
6.0,-4.0,1.905
1.0,-5.0,1.906
3.0,-9.0,1.907
15.0,-10.0,1.908
16.0,-7.0,1.909
4.0,-3.0,1.91
-2.0,-3.0,1.911
5.0,-5.0,1.912
14.0,-7.0,1.913
9.0,-7.0,1.914
-1.0,-4.0,1.915
-4.0,-3.0,1.916
0.0,1.0,1.917
4.0,1.0,1.918
2.0,-2.0,1.919
-2.0,-6.0,1.92
-4.0,-11.0,1.921
-3.0,-11.0,1.922
2.0,-9.0,1.923
9.0,-7.0,1.924
8.0,-9.0,1.925
2.0,-8.0,1.926
0.0,-1.0,1.927
3.0,9.0,1.928
4.0,11.0,1.929
0.0,3.0,1.93
-5.0,-3.0,1.931
-4.0,2.0,1.932
-2.0,12.0,1.933
-3.0,12.0,1.934
-4.0,3.0,1.935
-3.0,-1.0,1.936
-1.0,5.0,1.937
-3.0,8.0,1.938
-6.0,2.0,1.939
-7.0,-2.0,1.94
-3.0,-4.0,1.941
4.0,-3.0,1.942
17.0,-2.0,1.943
27.0,-4.0,1.944
28.0,-1.0,1.945
18.0,0.0,1.946
8.0,-2.0,1.947
7.0,-3.0,1.948
12.0,0.0,1.949
9.0,4.0,1.95
1.0,0.0,1.951
1.0,-3.0,1.952
5.0,0.0,1.953
4.0,3.0,1.954
0.0,1.0,1.955
1.0,0.0,1.956
4.0,2.0,1.957
0.0,3.0,1.958
-5.0,0.0,1.959
-8.0,-5.0,1.96
-5.0,-9.0,1.961
-5.0,-7.0,1.962
-3.0,-4.0,1.963
1.0,-4.0,1.964
4.0,-2.0,1.965
2.0,0.0,1.966
-1.0,0.0,1.967
1.0,-5.0,1.968
2.0,-6.0,1.969
0.0,-1.0,1.97
1.0,4.0,1.971
4.0,4.0,1.972
6.0,4.0,1.973
3.0,6.0,1.974
1.0,8.0,1.975
3.0,8.0,1.976
3.0,4.0,1.977
-2.0,0.0,1.978
-6.0,-1.0,1.979
-8.0,-3.0,1.98
-9.0,-7.0,1.981
-7.0,-8.0,1.982
3.0,-6.0,1.983
16.0,-4.0,1.984
17.0,-3.0,1.985
7.0,-3.0,1.986
2.0,-3.0,1.987
8.0,-1.0,1.988
9.0,1.0,1.989
3.0,2.0,1.99
1.0,3.0,1.991
5.0,2.0,1.992
6.0,0.0,1.993
2.0,-1.0,1.994
3.0,-1.0,1.995
10.0,1.0,1.996
11.0,4.0,1.997
5.0,0.0,1.998
-1.0,-1.0,1.999
-3.0,-2.0,2.0
-7.0,-2.0,2.001
-10.0,-3.0,2.002
-4.0,-5.0,2.003
7.0,-4.0,2.004
8.0,-1.0,2.005
0.0,0.0,2.006
-3.0,-1.0,2.007
1.0,0.0,2.008
4.0,0.0,2.009
1.0,0.0,2.01
-1.0,0.0,2.011
1.0,2.0,2.012
4.0,5.0,2.013
4.0,5.0,2.014
4.0,3.0,2.015
3.0,3.0,2.016
2.0,5.0,2.017
1.0,2.0,2.018
1.0,-1.0,2.019
-1.0,-3.0,2.02
-7.0,-6.0,2.021
-8.0,-7.0,2.022
-1.0,-7.0,2.023
11.0,-7.0,2.024
14.0,-5.0,2.025
11.0,-4.0,2.026
11.0,-2.0,2.027
11.0,-3.0,2.028
9.0,-3.0,2.029
3.0,-2.0,2.03
1.0,-2.0,2.031
2.0,-3.0,2.032
1.0,-2.0,2.033
0.0,0.0,2.034
4.0,3.0,2.035
11.0,3.0,2.036
16.0,2.0,2.037
14.0,-1.0,2.038
11.0,-3.0,2.039
5.0,-4.0,2.04
-6.0,-6.0,2.041
-16.0,-5.0,2.042
-10.0,-3.0,2.043
8.0,0.0,2.044
15.0,0.0,2.045
7.0,-1.0,2.046
0.0,-1.0,2.047
4.0,0.0,2.048
10.0,3.0,2.049
7.0,6.0,2.05
2.0,5.0,2.051
3.0,1.0,2.052
6.0,-1.0,2.053
4.0,1.0,2.054
0.0,3.0,2.055
0.0,3.0,2.056
3.0,4.0,2.057
0.0,6.0,2.058
-8.0,5.0,2.059
-17.0,3.0,2.06
-20.0,-1.0,2.061
-18.0,-3.0,2.062
-8.0,-3.0,2.063
7.0,0.0,2.064
20.0,3.0,2.065
26.0,6.0,2.066
24.0,3.0,2.067
16.0,-1.0,2.068
1.0,-2.0,2.069
-8.0,-2.0,2.07
-7.0,0.0,2.071
1.0,2.0,2.072
4.0,5.0,2.073
1.0,3.0,2.074
-3.0,-1.0,2.075
-6.0,-1.0,2.076
-5.0,2.0,2.077
-7.0,2.0,2.078
-4.0,-3.0,2.079
-2.0,-8.0,2.08
-5.0,-11.0,2.081
-7.0,-7.0,2.082
2.0,-3.0,2.083
12.0,-3.0,2.084
10.0,-2.0,2.085
0.0,-3.0,2.086
0.0,-3.0,2.087
8.0,-6.0,2.088
11.0,-7.0,2.089
4.0,-4.0,2.09
4.0,-1.0,2.091
10.0,1.0,2.092
10.0,3.0,2.093
0.0,7.0,2.094
-4.0,10.0,2.095
0.0,8.0,2.096
7.0,5.0,2.097
6.0,2.0,2.098
2.0,1.0,2.099
-4.0,1.0,2.1
-9.0,-4.0,2.101
-9.0,-8.0,2.102
-2.0,-6.0,2.103
8.0,-3.0,2.104
13.0,-1.0,2.105
9.0,-2.0,2.106
7.0,-5.0,2.107
12.0,-8.0,2.108
14.0,-8.0,2.109
8.0,-4.0,2.11
1.0,0.0,2.111
0.0,0.0,2.112
3.0,-2.0,2.113
4.0,-3.0,2.114
2.0,0.0,2.115
1.0,4.0,2.116
2.0,4.0,2.117
2.0,0.0,2.118
0.0,-4.0,2.119
-2.0,-6.0,2.12
-3.0,-8.0,2.121
-3.0,-7.0,2.122
3.0,-6.0,2.123
11.0,-5.0,2.124
12.0,-3.0,2.125
6.0,0.0,2.126
1.0,1.0,2.127
0.0,0.0,2.128
2.0,-2.0,2.129
0.0,0.0,2.13
-1.0,5.0,2.131
-1.0,4.0,2.132
0.0,2.0,2.133
-1.0,0.0,2.134
0.0,3.0,2.135
0.0,5.0,2.136
3.0,7.0,2.137
1.0,4.0,2.138
-2.0,2.0,2.139
-6.0,0.0,2.14
-6.0,-3.0,2.141
-3.0,-2.0,2.142
4.0,-2.0,2.143
12.0,-3.0,2.144
13.0,-4.0,2.145
12.0,-2.0,2.146
10.0,0.0,2.147
9.0,-1.0,2.148
7.0,-1.0,2.149
3.0,3.0,2.15
0.0,8.0,2.151
1.0,8.0,2.152
5.0,2.0,2.153
6.0,-2.0,2.154
2.0,-3.0,2.155
-2.0,-1.0,2.156
0.0,3.0,2.157
3.0,3.0,2.158
4.0,2.0,2.159
0.0,-2.0,2.16
-2.0,-9.0,2.161
-1.0,-8.0,2.162
5.0,-6.0,2.163
9.0,-5.0,2.164
7.0,-4.0,2.165
2.0,0.0,2.166
1.0,4.0,2.167
4.0,1.0,2.168
7.0,-3.0,2.169
4.0,-1.0,2.17
0.0,4.0,2.171
-2.0,4.0,2.172
0.0,1.0,2.173
-1.0,1.0,2.174
-1.0,4.0,2.175
-1.0,4.0,2.176
-2.0,3.0,2.177
-4.0,1.0,2.178
-6.0,0.0,2.179
-7.0,-4.0,2.18
-7.0,-11.0,2.181
-5.0,-11.0,2.182
1.0,-7.0,2.183
9.0,-6.0,2.184
12.0,-7.0,2.185
6.0,-7.0,2.186
0.0,-5.0,2.187
0.0,-2.0,2.188
7.0,-1.0,2.189
9.0,0.0,2.19
7.0,0.0,2.191
5.0,-1.0,2.192
4.0,-1.0,2.193
2.0,1.0,2.194
2.0,4.0,2.195
5.0,9.0,2.196
10.0,11.0,2.197
9.0,6.0,2.198
2.0,0.0,2.199
-6.0,-4.0,2.2
-9.0,-6.0,2.201
-10.0,-5.0,2.202
-5.0,-5.0,2.203
2.0,-4.0,2.204
8.0,1.0,2.205
5.0,7.0,2.206
2.0,5.0,2.207
4.0,0.0,2.208
10.0,-3.0,2.209
12.0,0.0,2.21
7.0,4.0,2.211
4.0,6.0,2.212
3.0,7.0,2.213
3.0,7.0,2.214
3.0,6.0,2.215
5.0,3.0,2.216
6.0,4.0,2.217
1.0,2.0,2.218
0.0,-1.0,2.219
-2.0,-5.0,2.22
-2.0,-10.0,2.221
-1.0,-9.0,2.222
4.0,-9.0,2.223
7.0,-8.0,2.224
5.0,-6.0,2.225
4.0,-3.0,2.226
5.0,-1.0,2.227
7.0,-3.0,2.228
6.0,-3.0,2.229
5.0,1.0,2.23
7.0,3.0,2.231
8.0,1.0,2.232
6.0,-1.0,2.233
5.0,2.0,2.234
4.0,5.0,2.235
2.0,7.0,2.236
0.0,7.0,2.237
-3.0,7.0,2.238
-5.0,5.0,2.239
-8.0,0.0,2.24
-9.0,-8.0,2.241
-9.0,-8.0,2.242
-3.0,-6.0,2.243
12.0,-2.0,2.244
18.0,0.0,2.245
9.0,0.0,2.246
-2.0,-3.0,2.247
-5.0,-5.0,2.248
-4.0,-2.0,2.249
-2.0,3.0,2.25
0.0,7.0,2.251
1.0,6.0,2.252
2.0,5.0,2.253
0.0,4.0,2.254
-2.0,2.0,2.255
-1.0,0.0,2.256
1.0,2.0,2.257
2.0,4.0,2.258
0.0,0.0,2.259
-3.0,-4.0,2.26
-5.0,-8.0,2.261
-4.0,-7.0,2.262
3.0,-6.0,2.263
9.0,-7.0,2.264
10.0,-5.0,2.265
7.0,-1.0,2.266
8.0,-1.0,2.267
8.0,0.0,2.268
6.0,3.0,2.269
5.0,7.0,2.27
5.0,5.0,2.271
5.0,0.0,2.272
3.0,0.0,2.273
2.0,4.0,2.274
1.0,6.0,2.275
1.0,2.0,2.276
2.0,0.0,2.277
2.0,1.0,2.278
1.0,1.0,2.279
-1.0,-5.0,2.28
-3.0,-10.0,2.281
-1.0,-8.0,2.282
4.0,-3.0,2.283
9.0,-1.0,2.284
11.0,-1.0,2.285
7.0,0.0,2.286
1.0,-1.0,2.287
1.0,-6.0,2.288
5.0,-6.0,2.289
7.0,-1.0,2.29
3.0,5.0,2.291
0.0,5.0,2.292
-1.0,4.0,2.293
0.0,4.0,2.294
0.0,3.0,2.295
0.0,2.0,2.296
4.0,3.0,2.297
7.0,2.0,2.298
3.0,1.0,2.299
-3.0,-1.0,2.3
-4.0,-5.0,2.301
0.0,-5.0,2.302
3.0,-3.0,2.303
3.0,-3.0,2.304
1.0,-3.0,2.305
1.0,-3.0,2.306
3.0,-2.0,2.307
5.0,-5.0,2.308
5.0,-6.0,2.309
4.0,-3.0,2.31
3.0,-2.0,2.311
1.0,-1.0,2.312
1.0,0.0,2.313
3.0,2.0,2.314
5.0,3.0,2.315
7.0,3.0,2.316
5.0,5.0,2.317
1.0,4.0,2.318
-1.0,2.0,2.319
-4.0,-1.0,2.32
-6.0,-5.0,2.321
-6.0,-8.0,2.322
0.0,-5.0,2.323
11.0,-2.0,2.324
14.0,0.0,2.325
8.0,0.0,2.326
2.0,-2.0,2.327
4.0,-5.0,2.328
7.0,-3.0,2.329
6.0,-2.0,2.33
3.0,0.0,2.331
4.0,1.0,2.332
4.0,2.0,2.333
0.0,3.0,2.334
-4.0,2.0,2.335
-5.0,1.0,2.336
-2.0,3.0,2.337
0.0,4.0,2.338
-1.0,3.0,2.339
-3.0,-2.0,2.34
-4.0,-8.0,2.341
-3.0,-5.0,2.342
1.0,1.0,2.343
7.0,1.0,2.344
10.0,0.0,2.345
6.0,0.0,2.346
5.0,1.0,2.347
5.0,-1.0,2.348
5.0,-4.0,2.349
2.0,-4.0,2.35
0.0,0.0,2.351
0.0,2.0,2.352
0.0,3.0,2.353
-1.0,3.0,2.354
2.0,2.0,2.355
7.0,0.0,2.356
10.0,-2.0,2.357
7.0,2.0,2.358
4.0,5.0,2.359
2.0,1.0,2.36
-1.0,-8.0,2.361
-2.0,-10.0,2.362
0.0,-8.0,2.363
8.0,-6.0,2.364
10.0,-5.0,2.365
5.0,-3.0,2.366
0.0,-1.0,2.367
2.0,-1.0,2.368
7.0,0.0,2.369
5.0,1.0,2.37
0.0,2.0,2.371
-1.0,0.0,2.372
2.0,0.0,2.373
2.0,2.0,2.374
0.0,5.0,2.375
-2.0,7.0,2.376
1.0,7.0,2.377
2.0,4.0,2.378
-1.0,0.0,2.379
-5.0,-3.0,2.38
-7.0,-6.0,2.381
-5.0,-7.0,2.382
0.0,-7.0,2.383
6.0,-5.0,2.384
11.0,-1.0,2.385
10.0,-2.0,2.386
10.0,-5.0,2.387
13.0,-7.0,2.388
15.0,-3.0,2.389
12.0,2.0,2.39
8.0,2.0,2.391
7.0,0.0,2.392
6.0,0.0,2.393
2.0,2.0,2.394
-3.0,2.0,2.395
-3.0,1.0,2.396
-2.0,0.0,2.397
-2.0,0.0,2.398
-4.0,-1.0,2.399
-6.0,-4.0,2.4
-4.0,-8.0,2.401
-3.0,-9.0,2.402
-1.0,-8.0,2.403
3.0,-7.0,2.404
4.0,-5.0,2.405
2.0,-2.0,2.406
1.0,0.0,2.407
4.0,-1.0,2.408
6.0,0.0,2.409
3.0,2.0,2.41
-1.0,5.0,2.411
0.0,5.0,2.412
3.0,7.0,2.413
3.0,9.0,2.414
3.0,8.0,2.415
4.0,3.0,2.416
6.0,1.0,2.417
0.0,-1.0,2.418
-4.0,-5.0,2.419
-5.0,-9.0,2.42
-4.0,-13.0,2.421
-5.0,-11.0,2.422
-2.0,-8.0,2.423
5.0,-4.0,2.424
11.0,-2.0,2.425
7.0,0.0,2.426
-1.0,-1.0,2.427
0.0,-1.0,2.428
4.0,1.0,2.429
5.0,5.0,2.43
2.0,4.0,2.431
3.0,0.0,2.432
8.0,-3.0,2.433
7.0,-2.0,2.434
4.0,1.0,2.435
6.0,2.0,2.436
11.0,3.0,2.437
12.0,3.0,2.438
5.0,1.0,2.439
-1.0,0.0,2.44
-7.0,-3.0,2.441
-11.0,-5.0,2.442
-7.0,-5.0,2.443
3.0,-1.0,2.444
12.0,2.0,2.445
10.0,2.0,2.446
4.0,-1.0,2.447
6.0,-4.0,2.448
9.0,-5.0,2.449
6.0,-1.0,2.45
2.0,0.0,2.451
3.0,1.0,2.452
4.0,2.0,2.453
0.0,2.0,2.454
-4.0,1.0,2.455
-2.0,1.0,2.456
2.0,5.0,2.457
3.0,5.0,2.458
-2.0,1.0,2.459
-5.0,-3.0,2.46
-6.0,-6.0,2.461
-5.0,-4.0,2.462
-3.0,-1.0,2.463
1.0,0.0,2.464
4.0,2.0,2.465
2.0,4.0,2.466
2.0,4.0,2.467
9.0,0.0,2.468
13.0,-1.0,2.469
9.0,1.0,2.47
5.0,3.0,2.471
7.0,2.0,2.472
8.0,0.0,2.473
2.0,1.0,2.474
-2.0,2.0,2.475
-2.0,0.0,2.476
1.0,0.0,2.477
3.0,-2.0,2.478
2.0,-2.0,2.479
-2.0,-4.0,2.48
-4.0,-12.0,2.481
-5.0,-12.0,2.482
0.0,-8.0,2.483
6.0,-4.0,2.484
7.0,-3.0,2.485
2.0,-4.0,2.486
0.0,-4.0,2.487
6.0,-3.0,2.488
9.0,-2.0,2.489
5.0,1.0,2.49
3.0,5.0,2.491
5.0,6.0,2.492
7.0,4.0,2.493
5.0,1.0,2.494
4.0,0.0,2.495
6.0,1.0,2.496
5.0,4.0,2.497
0.0,2.0,2.498
-2.0,0.0,2.499
-2.0,-3.0,2.5
-2.0,-5.0,2.501
-3.0,-7.0,2.502
-1.0,-4.0,2.503
6.0,-2.0,2.504
10.0,-2.0,2.505
6.0,-2.0,2.506
2.0,0.0,2.507
4.0,2.0,2.508
6.0,0.0,2.509
2.0,0.0,2.51
-2.0,2.0,2.511
-2.0,4.0,2.512
1.0,2.0,2.513
2.0,1.0,2.514
1.0,3.0,2.515
0.0,6.0,2.516
0.0,5.0,2.517
0.0,3.0,2.518
1.0,2.0,2.519
1.0,-1.0,2.52
-1.0,-7.0,2.521
-1.0,-9.0,2.522
3.0,-7.0,2.523
11.0,-2.0,2.524
11.0,1.0,2.525
6.0,2.0,2.526
3.0,1.0,2.527
4.0,-2.0,2.528
5.0,-1.0,2.529
3.0,1.0,2.53
3.0,1.0,2.531
5.0,0.0,2.532
6.0,3.0,2.533
3.0,8.0,2.534
1.0,9.0,2.535
2.0,5.0,2.536
5.0,4.0,2.537
5.0,4.0,2.538
2.0,3.0,2.539
-4.0,-1.0,2.54
-7.0,-7.0,2.541
-5.0,-6.0,2.542
1.0,-5.0,2.543
6.0,-7.0,2.544
4.0,-6.0,2.545
1.0,-3.0,2.546
1.0,-3.0,2.547
2.0,-6.0,2.548
2.0,-6.0,2.549
0.0,-3.0,2.55
-1.0,0.0,2.551
0.0,1.0,2.552
0.0,3.0,2.553
0.0,6.0,2.554
2.0,5.0,2.555
2.0,1.0,2.556
4.0,0.0,2.557
1.0,0.0,2.558
0.0,-2.0,2.559
-2.0,-6.0,2.56
-6.0,-9.0,2.561
-8.0,-7.0,2.562
-1.0,-6.0,2.563
15.0,-7.0,2.564
24.0,-5.0,2.565
20.0,-1.0,2.566
11.0,0.0,2.567
7.0,-1.0,2.568
10.0,1.0,2.569
12.0,3.0,2.57
7.0,3.0,2.571
3.0,-1.0,2.572
4.0,0.0,2.573
5.0,5.0,2.574
4.0,7.0,2.575
0.0,5.0,2.576
0.0,4.0,2.577
-1.0,1.0,2.578
-3.0,0.0,2.579
-11.0,-2.0,2.58
-17.0,-3.0,2.581
-15.0,-3.0,2.582
-8.0,-1.0,2.583
0.0,0.0,2.584
0.0,0.0,2.585
-2.0,0.0,2.586
-1.0,-1.0,2.587
2.0,-2.0,2.588
4.0,0.0,2.589
4.0,2.0,2.59
1.0,0.0,2.591
1.0,0.0,2.592
0.0,1.0,2.593
0.0,3.0,2.594
4.0,3.0,2.595
6.0,4.0,2.596
6.0,5.0,2.597
1.0,7.0,2.598
-2.0,4.0,2.599
-4.0,-1.0,2.6
-3.0,-8.0,2.601
-1.0,-9.0,2.602
6.0,-9.0,2.603
14.0,-5.0,2.604
18.0,-1.0,2.605
15.0,0.0,2.606
9.0,-1.0,2.607
6.0,-2.0,2.608
4.0,-2.0,2.609
2.0,-3.0,2.61
3.0,-5.0,2.611
3.0,-3.0,2.612
5.0,2.0,2.613
4.0,5.0,2.614
2.0,5.0,2.615
4.0,2.0,2.616
6.0,2.0,2.617
4.0,0.0,2.618
0.0,-3.0,2.619
-5.0,-6.0,2.62
-7.0,-10.0,2.621
-6.0,-8.0,2.622
2.0,-6.0,2.623
13.0,-4.0,2.624
14.0,-2.0,2.625
8.0,0.0,2.626
7.0,-1.0,2.627
13.0,-3.0,2.628
14.0,-1.0,2.629
5.0,2.0,2.63
1.0,3.0,2.631
6.0,1.0,2.632
10.0,1.0,2.633
7.0,3.0,2.634
5.0,3.0,2.635
9.0,0.0,2.636
14.0,-2.0,2.637
8.0,-3.0,2.638
-1.0,-4.0,2.639
-4.0,-6.0,2.64
-4.0,-9.0,2.641
-5.0,-6.0,2.642
-2.0,1.0,2.643
3.0,5.0,2.644
6.0,7.0,2.645
1.0,8.0,2.646
-3.0,9.0,2.647
1.0,5.0,2.648
6.0,2.0,2.649
3.0,3.0,2.65
-1.0,6.0,2.651
0.0,8.0,2.652
1.0,6.0,2.653
-2.0,4.0,2.654
-8.0,4.0,2.655
-9.0,4.0,2.656
-3.0,3.0,2.657
0.0,0.0,2.658
-2.0,-1.0,2.659
-6.0,-3.0,2.66
-8.0,-6.0,2.661
-7.0,-9.0,2.662
0.0,-7.0,2.663
8.0,-5.0,2.664
10.0,-2.0,2.665
1.0,0.0,2.666
-5.0,-1.0,2.667
-3.0,-3.0,2.668
4.0,-2.0,2.669
5.0,0.0,2.67
1.0,1.0,2.671
0.0,4.0,2.672
1.0,4.0,2.673
0.0,4.0,2.674
0.0,5.0,2.675
1.0,6.0,2.676
5.0,3.0,2.677
5.0,0.0,2.678
1.0,-1.0,2.679
-2.0,-6.0,2.68
-5.0,-13.0,2.681
-4.0,-13.0,2.682
1.0,-8.0,2.683
12.0,-4.0,2.684
14.0,-3.0,2.685
9.0,-3.0,2.686
4.0,-2.0,2.687
8.0,-2.0,2.688
12.0,-2.0,2.689
10.0,0.0,2.69
5.0,2.0,2.691
5.0,0.0,2.692
8.0,-1.0,2.693
7.0,1.0,2.694
3.0,5.0,2.695
1.0,3.0,2.696
1.0,0.0,2.697
1.0,0.0,2.698
0.0,1.0,2.699
0.0,0.0,2.7
1.0,-8.0,2.701
0.0,-10.0,2.702
1.0,-8.0,2.703
5.0,-5.0,2.704
8.0,-2.0,2.705
6.0,0.0,2.706
7.0,0.0,2.707
11.0,-1.0,2.708
15.0,-4.0,2.709
8.0,-2.0,2.71
-1.0,-1.0,2.711
-5.0,-2.0,2.712
-3.0,-4.0,2.713
-2.0,0.0,2.714
-2.0,5.0,2.715
-1.0,8.0,2.716
4.0,7.0,2.717
4.0,2.0,2.718
1.0,-1.0,2.719
-3.0,-2.0,2.72
-4.0,-5.0,2.721
-4.0,-6.0,2.722
0.0,-5.0,2.723
6.0,-4.0,2.724
11.0,-3.0,2.725
10.0,-2.0,2.726
8.0,0.0,2.727
8.0,3.0,2.728
7.0,5.0,2.729
4.0,5.0,2.73
2.0,6.0,2.731
3.0,5.0,2.732
4.0,4.0,2.733
3.0,3.0,2.734
2.0,5.0,2.735
3.0,7.0,2.736
5.0,6.0,2.737
5.0,1.0,2.738
4.0,-3.0,2.739
4.0,-5.0,2.74
1.0,-8.0,2.741
-3.0,-7.0,2.742
-3.0,-5.0,2.743
-2.0,-4.0,2.744
-3.0,-3.0,2.745
-11.0,-1.0,2.746
-14.0,2.0,2.747
-7.0,5.0,2.748
1.0,3.0,2.749
5.0,1.0,2.75
5.0,2.0,2.751
8.0,4.0,2.752
9.0,1.0,2.753
5.0,0.0,2.754
0.0,2.0,2.755
-3.0,3.0,2.756
-3.0,0.0,2.757
-3.0,-7.0,2.758
-1.0,-9.0,2.759
1.0,-7.0,2.76
-1.0,-6.0,2.761
-5.0,-4.0,2.762
0.0,-3.0,2.763
16.0,-2.0,2.764
23.0,1.0,2.765
14.0,3.0,2.766
4.0,2.0,2.767
8.0,-2.0,2.768
15.0,-3.0,2.769
8.0,1.0,2.77
-1.0,4.0,2.771
0.0,3.0,2.772
6.0,-1.0,2.773
6.0,-5.0,2.774
3.0,-6.0,2.775
7.0,-4.0,2.776
12.0,0.0,2.777
4.0,2.0,2.778
-7.0,0.0,2.779
-13.0,-2.0,2.78
-13.0,-4.0,2.781
-14.0,-1.0,2.782
-13.0,2.0,2.783
-5.0,3.0,2.784
4.0,5.0,2.785
7.0,8.0,2.786
5.0,3.0,2.787
4.0,-4.0,2.788
8.0,-8.0,2.789
8.0,-4.0,2.79
4.0,0.0,2.791
2.0,-2.0,2.792
4.0,-3.0,2.793
10.0,0.0,2.794
17.0,0.0,2.795
18.0,-3.0,2.796
17.0,-4.0,2.797
15.0,-2.0,2.798
12.0,0.0,2.799
5.0,-1.0,2.8
-4.0,-6.0,2.801
-7.0,-7.0,2.802
0.0,-4.0,2.803
11.0,-2.0,2.804
8.0,3.0,2.805
-5.0,13.0,2.806
-14.0,27.0,2.807
-10.0,35.0,2.808
-3.0,36.0,2.809
-2.0,34.0,2.81
0.0,30.0,2.811
14.0,25.0,2.812
31.0,23.0,2.813
37.0,20.0,2.814
29.0,7.0,2.815
20.0,-16.0,2.816
22.0,-38.0,2.817
23.0,-46.0,2.818
13.0,-36.0,2.819
-10.0,-26.0,2.82
-26.0,-16.0,2.821
-28.0,-7.0,2.822
-21.0,2.0,2.823
-19.0,26.0,2.824
-22.0,94.0,2.825
-24.0,142.0,2.826
-22.0,132.0,2.827
-19.0,95.0,2.828
-14.0,-22.0,2.829
-8.0,-123.0,2.83
-3.0,-171.0,2.831
-4.0,-201.0,2.832
-9.0,-179.0,2.833
-10.0,-155.0,2.834
-4.0,-125.0,2.835
4.0,-98.0,2.836
9.0,-83.0,2.837
6.0,-58.0,2.838
3.0,15.0,2.839
2.0,128.0,2.84
3.0,272.0,2.841
1.0,412.0,2.842
3.0,452.0,2.843
11.0,333.0,2.844
21.0,114.0,2.845
22.0,-75.0,2.846
14.0,-180.0,2.847
6.0,-241.0,2.848
8.0,-287.0,2.849
13.0,-292.0,2.85
16.0,-245.0,2.851
16.0,-186.0,2.852
11.0,-139.0,2.853
0.0,-84.0,2.854
-12.0,-12.0,2.855
-13.0,47.0,2.856
8.0,66.0,2.857
43.0,52.0,2.858
78.0,24.0,2.859
84.0,-6.0,2.86
58.0,-17.0,2.861
24.0,18.0,2.862
11.0,74.0,2.863
16.0,95.0,2.864
10.0,70.0,2.865
-9.0,50.0,2.866
-13.0,106.0,2.867
5.0,260.0,2.868
11.0,454.0,2.869
-15.0,550.0,2.87
-36.0,438.0,2.871
-23.0,146.0,2.872
1.0,-187.0,2.873
-1.0,-447.0,2.874
-25.0,-605.0,2.875
-39.0,-646.0,2.876
-34.0,-559.0,2.877
-23.0,-365.0,2.878
-8.0,-148.0,2.879
0.0,46.0,2.88
-8.0,263.0,2.881
-27.0,534.0,2.882
-36.0,773.0,2.883
-28.0,832.0,2.884
-23.0,631.0,2.885
-30.0,249.0,2.886
-17.0,-121.0,2.887
28.0,-319.0,2.888
55.0,-313.0,2.889
26.0,-178.0,2.89
-31.0,-13.0,2.891
-53.0,83.0,2.892
-32.0,36.0,2.893
-21.0,-144.0,2.894
-45.0,-366.0,2.895
-73.0,-537.0,2.896
-71.0,-623.0,2.897
-40.0,-603.0,2.898
-12.0,-475.0,2.899
7.0,-309.0,2.9
22.0,-34.0,2.901
35.0,188.0,2.902
60.0,256.0,2.903
97.0,227.0,2.904
120.0,-93.0,2.905
103.0,-376.0,2.906
69.0,-546.0,2.907
54.0,-622.0,2.908
64.0,-414.0,2.909
64.0,-178.0,2.91
48.0,139.0,2.911
36.0,386.0,2.912
34.0,420.0,2.913
24.0,457.0,2.914
-2.0,505.0,2.915
-34.0,537.0,2.916
-53.0,521.0,2.917
-41.0,487.0,2.918
1.0,418.0,2.919
38.0,348.0,2.92
21.0,204.0,2.921
-35.0,-46.0,2.922
-58.0,-335.0,2.923
-20.0,-521.0,2.924
19.0,-502.0,2.925
6.0,-340.0,2.926
-14.0,-187.0,2.927
18.0,-113.0,2.928
66.0,-58.0,2.929
53.0,22.0,2.93
-17.0,95.0,2.931
-72.0,184.0,2.932
-80.0,412.0,2.933
-72.0,806.0,2.934
-67.0,1150.0,2.935
-55.0,1184.0,2.936
-39.0,906.0,2.937
-32.0,451.0,2.938
-29.0,38.0,2.939
-21.0,-232.0,2.94
-7.0,-384.0,2.941
10.0,-511.0,2.942
28.0,-698.0,2.943
29.0,-911.0,2.944
-3.0,-1034.0,2.945
-39.0,-971.0,2.946
-22.0,-688.0,2.947
42.0,-182.0,2.948
86.0,455.0,2.949
75.0,948.0,2.95
57.0,1002.0,2.951
74.0,588.0,2.952
94.0,-40.0,2.953
81.0,-609.0,2.954
49.0,-998.0,2.955
31.0,-1175.0,2.956
17.0,-1141.0,2.957
-26.0,-934.0,2.958
-91.0,-626.0,2.959
-153.0,-219.0,2.96
-183.0,323.0,2.961
-178.0,922.0,2.962
-155.0,1363.0,2.963
-139.0,1491.0,2.964
-135.0,1303.0,2.965
-125.0,872.0,2.966
-88.0,268.0,2.967
-38.0,-411.0,2.968
7.0,-1020.0,2.969
46.0,-1411.0,2.97
77.0,-1486.0,2.971
90.0,-1245.0,2.972
87.0,-826.0,2.973
93.0,-438.0,2.974
137.0,-182.0,2.975
225.0,1.0,2.976
322.0,153.0,2.977
385.0,227.0,2.978
369.0,208.0,2.979
289.0,206.0,2.98
199.0,279.0,2.981
129.0,300.0,2.982
57.0,154.0,2.983
-36.0,-16.0,2.984
-136.0,4.0,2.985
-224.0,226.0,2.986
-285.0,521.0,2.987
-300.0,852.0,2.988
-249.0,1217.0,2.989
-158.0,1451.0,2.99
-76.0,1375.0,2.991
-18.0,1053.0,2.992
23.0,707.0,2.993
31.0,398.0,2.994
-4.0,36.0,2.995
-34.0,-367.0,2.996
-18.0,-651.0,2.997
6.0,-793.0,2.998
-17.0,-895.0,2.999
-65.0,-1046.0,3.0
-57.0,-1178.0,3.001
11.0,-1145.0,3.002
67.0,-912.0,3.003
71.0,-568.0,3.004
42.0,-223.0,3.005
0.0,82.0,3.006
-57.0,392.0,3.007
-100.0,755.0,3.008
-88.0,1151.0,3.009
-31.0,1463.0,3.01
12.0,1543.0,3.011
5.0,1352.0,3.012
-40.0,1019.0,3.013
-83.0,678.0,3.014
-97.0,273.0,3.015
-78.0,-314.0,3.016
-38.0,-943.0,3.017
17.0,-1361.0,3.018
79.0,-1501.0,3.019
130.0,-1616.0,3.02
156.0,-1656.0,3.021
148.0,-1571.0,3.022
114.0,-1113.0,3.023
71.0,-673.0,3.024
46.0,-290.0,3.025
65.0,41.0,3.026
122.0,216.0,3.027
159.0,386.0,3.028
111.0,542.0,3.029
-5.0,736.0,3.03
-93.0,1044.0,3.031
-79.0,1377.0,3.032
7.0,1789.0,3.033
62.0,2000.0,3.034
34.0,1606.0,3.035
-32.0,1070.0,3.036
-62.0,104.0,3.037
-61.0,-827.0,3.038
-73.0,-1468.0,3.039
-99.0,-1709.0,3.04
-94.0,-1619.0,3.041
-54.0,-1357.0,3.042
-34.0,-1059.0,3.043
-44.0,-736.0,3.044
-25.0,-364.0,3.045
36.0,-3.0,3.046
56.0,231.0,3.047
-10.0,302.0,3.048
-91.0,273.0,3.049
-87.0,190.0,3.05
-10.0,84.0,3.051
49.0,17.0,3.052
62.0,59.0,3.053
50.0,165.0,3.054
24.0,225.0,3.055
-23.0,222.0,3.056
-53.0,250.0,3.057
-19.0,387.0,3.058
76.0,644.0,3.059
151.0,1021.0,3.06
142.0,1467.0,3.061
71.0,1784.0,3.062
11.0,1711.0,3.063
-7.0,1197.0,3.064
-10.0,429.0,3.065
-13.0,-395.0,3.066
-6.0,-1178.0,3.067
11.0,-1774.0,3.068
10.0,-1958.0,3.069
-22.0,-1654.0,3.07
-54.0,-1063.0,3.071
-52.0,-506.0,3.072
-28.0,-210.0,3.073
-7.0,-212.0,3.074
6.0,-365.0,3.075
21.0,-429.0,3.076
14.0,-272.0,3.077
-45.0,72.0,3.078
-134.0,403.0,3.079
-183.0,550.0,3.08
-144.0,477.0,3.081
-52.0,296.0,3.082
15.0,135.0,3.083
31.0,22.0,3.084
41.0,-128.0,3.085
71.0,-347.0,3.086
79.0,-519.0,3.087
33.0,-517.0,3.088
-20.0,-346.0,3.089
-2.0,-40.0,3.09
68.0,416.0,3.091
100.0,929.0,3.092
76.0,1185.0,3.093
70.0,939.0,3.094
111.0,358.0,3.095
115.0,-139.0,3.096
33.0,-312.0,3.097
-89.0,-173.0,3.098
-146.0,167.0,3.099
-133.0,454.0,3.1
-113.0,582.0,3.101
-98.0,549.0,3.102
-53.0,30.0,3.103
7.0,-444.0,3.104
49.0,-784.0,3.105
77.0,-1111.0,3.106
113.0,-1399.0,3.107
126.0,-1527.0,3.108
86.0,-1177.0,3.109
42.0,-841.0,3.11
51.0,-546.0,3.111
71.0,-247.0,3.112
26.0,65.0,3.113
-54.0,348.0,3.114
-56.0,541.0,3.115
45.0,723.0,3.116
139.0,869.0,3.117
136.0,1006.0,3.118
68.0,1063.0,3.119
12.0,1072.0,3.12
-14.0,1090.0,3.121
-55.0,1069.0,3.122
-107.0,925.0,3.123
-112.0,676.0,3.124
-50.0,362.0,3.125
20.0,-26.0,3.126
41.0,-436.0,3.127
20.0,-711.0,3.128
-2.0,-735.0,3.129
-23.0,-496.0,3.13
-60.0,-20.0,3.131
-95.0,580.0,3.132
-90.0,991.0,3.133
-49.0,861.0,3.134
-27.0,190.0,3.135
-55.0,-679.0,3.136
-94.0,-1416.0,3.137
-103.0,-2000.0,3.138
-85.0,-2244.0,3.139
-72.0,-1900.0,3.14
-57.0,-1047.0,3.141
-10.0,-151.0,3.142
55.0,474.0,3.143
89.0,978.0,3.144
72.0,1543.0,3.145
33.0,1961.0,3.146
14.0,1942.0,3.147
27.0,1555.0,3.148
66.0,1029.0,3.149
105.0,317.0,3.15
104.0,-722.0,3.151
55.0,-1845.0,3.152
2.0,-2530.0,3.153
4.0,-2563.0,3.154
56.0,-2195.0,3.155
104.0,-1717.0,3.156
108.0,-1216.0,3.157
73.0,-622.0,3.158
35.0,-62.0,3.159
15.0,339.0,3.16
10.0,602.0,3.161
15.0,797.0,3.162
33.0,910.0,3.163
60.0,932.0,3.164
79.0,935.0,3.165
70.0,977.0,3.166
33.0,1036.0,3.167
-5.0,1079.0,3.168
-23.0,1121.0,3.169
-30.0,1180.0,3.17
-51.0,1203.0,3.171
-98.0,1095.0,3.172
-154.0,816.0,3.173
-187.0,443.0,3.174
-185.0,173.0,3.175
-159.0,164.0,3.176
-130.0,335.0,3.177
-91.0,478.0,3.178
-28.0,473.0,3.179
43.0,395.0,3.18
85.0,286.0,3.181
90.0,18.0,3.182
91.0,-456.0,3.183
113.0,-954.0,3.184
139.0,-1371.0,3.185
139.0,-1853.0,3.186
113.0,-2400.0,3.187
78.0,-2568.0,3.188
41.0,-1979.0,3.189
2.0,-942.0,3.19
-39.0,-130.0,3.191
-76.0,211.0,3.192
-100.0,335.0,3.193
-101.0,413.0,3.194
-94.0,359.0,3.195
-84.0,190.0,3.196
-59.0,128.0,3.197
-6.0,299.0,3.198
28.0,574.0,3.199
-10.0,740.0,3.2
-83.0,704.0,3.201
-95.0,508.0,3.202
-32.0,268.0,3.203
13.0,110.0,3.204
-9.0,35.0,3.205
-33.0,-85.0,3.206
0.0,-284.0,3.207
55.0,-411.0,3.208
73.0,-345.0,3.209
80.0,-181.0,3.21
134.0,-52.0,3.211
220.0,61.0,3.212
263.0,220.0,3.213
227.0,356.0,3.214
138.0,357.0,3.215
30.0,252.0,3.216
-58.0,164.0,3.217
-108.0,134.0,3.218
-109.0,157.0,3.219
-103.0,286.0,3.22
-126.0,618.0,3.221
-149.0,1101.0,3.222
-116.0,1444.0,3.223
-51.0,1361.0,3.224
-37.0,860.0,3.225
-76.0,214.0,3.226
-74.0,-349.0,3.227
17.0,-764.0,3.228
111.0,-1006.0,3.229
114.0,-1043.0,3.23
55.0,-979.0,3.231
29.0,-1003.0,3.232
58.0,-1118.0,3.233
87.0,-1104.0,3.234
89.0,-855.0,3.235
86.0,-522.0,3.236
92.0,-261.0,3.237
88.0,5.0,3.238
60.0,349.0,3.239
2.0,686.0,3.24
-83.0,899.0,3.241
-169.0,1048.0,3.242
-202.0,1272.0,3.243
-164.0,1597.0,3.244
-98.0,1854.0,3.245
-55.0,1810.0,3.246
-40.0,1380.0,3.247
-34.0,738.0,3.248
-41.0,131.0,3.249
-63.0,-426.0,3.25
-74.0,-1073.0,3.251
-46.0,-1733.0,3.252
-5.0,-2109.0,3.253
14.0,-2153.0,3.254
29.0,-2171.0,3.255
82.0,-2298.0,3.256
160.0,-2252.0,3.257
210.0,-1750.0,3.258
208.0,-967.0,3.259
175.0,-327.0,3.26
129.0,-22.0,3.261
42.0,36.0,3.262
-73.0,-5.0,3.263
-139.0,4.0,3.264
-103.0,211.0,3.265
-23.0,656.0,3.266
3.0,1229.0,3.267
-30.0,1771.0,3.268
-63.0,2088.0,3.269
-68.0,1991.0,3.27
-62.0,1436.0,3.271
-43.0,623.0,3.272
3.0,-179.0,3.273
52.0,-792.0,3.274
72.0,-1075.0,3.275
86.0,-926.0,3.276
124.0,-510.0,3.277
153.0,-128.0,3.278
106.0,3.0,3.279
-11.0,20.0,3.28
-104.0,144.0,3.281
-114.0,351.0,3.282
-62.0,482.0,3.283
-3.0,502.0,3.284
38.0,445.0,3.285
63.0,290.0,3.286
79.0,75.0,3.287
99.0,-37.0,3.288
122.0,17.0,3.289
129.0,99.0,3.29
108.0,98.0,3.291
56.0,122.0,3.292
-39.0,285.0,3.293
-168.0,502.0,3.294
-256.0,652.0,3.295
-239.0,774.0,3.296
-173.0,924.0,3.297
-168.0,1016.0,3.298
-215.0,909.0,3.299
-228.0,658.0,3.3
-134.0,408.0,3.301
-48.0,123.0,3.302
14.0,-375.0,3.303
78.0,-1072.0,3.304
143.0,-1686.0,3.305
186.0,-1976.0,3.306
158.0,-1941.0,3.307
124.0,-1667.0,3.308
78.0,-1203.0,3.309
40.0,-659.0,3.31
30.0,-223.0,3.311
21.0,29.0,3.312
17.0,227.0,3.313
10.0,517.0,3.314
-3.0,855.0,3.315
-11.0,1110.0,3.316
5.0,1286.0,3.317
16.0,1506.0,3.318
5.0,1728.0,3.319
4.0,1644.0,3.32
15.0,1004.0,3.321
14.0,27.0,3.322
7.0,-777.0,3.323
20.0,-1161.0,3.324
39.0,-1288.0,3.325
29.0,-1264.0,3.326
10.0,-912.0,3.327
26.0,-229.0,3.328
76.0,321.0,3.329
99.0,313.0,3.33
64.0,-110.0,3.331
-3.0,-538.0,3.332
-51.0,-796.0,3.333
-57.0,-863.0,3.334
-17.0,-645.0,3.335
55.0,-240.0,3.336
115.0,-42.0,3.337
121.0,-240.0,3.338
65.0,-499.0,3.339
-12.0,-433.0,3.34
-61.0,-177.0,3.341
-67.0,-41.0,3.342
-36.0,18.0,3.343
3.0,147.0,3.344
9.0,167.0,3.345
-45.0,-90.0,3.346
-118.0,-336.0,3.347
-131.0,-210.0,3.348
-57.0,157.0,3.349
46.0,399.0,3.35
103.0,425.0,3.351
92.0,344.0,3.352
43.0,165.0,3.353
-1.0,-71.0,3.354
-23.0,-153.0,3.355
-27.0,13.0,3.356
-29.0,218.0,3.357
-32.0,314.0,3.358
-18.0,384.0,3.359
5.0,494.0,3.36
12.0,527.0,3.361
-12.0,463.0,3.362
-35.0,529.0,3.363
-30.0,825.0,3.364
-5.0,1094.0,3.365
12.0,1051.0,3.366
7.0,709.0,3.367
-21.0,228.0,3.368
-65.0,-278.0,3.369
-88.0,-686.0,3.37
-59.0,-826.0,3.371
-21.0,-692.0,3.372
-39.0,-456.0,3.373
-102.0,-229.0,3.374
-106.0,39.0,3.375
-5.0,374.0,3.376
106.0,697.0,3.377
114.0,997.0,3.378
36.0,1229.0,3.379
-30.0,1215.0,3.38
-66.0,752.0,3.381
-83.0,-113.0,3.382
-42.0,-1071.0,3.383
11.0,-1791.0,3.384
99.0,-2054.0,3.385
156.0,-1737.0,3.386
121.0,-939.0,3.387
86.0,-86.0,3.388
52.0,364.0,3.389
15.0,357.0,3.39
-29.0,155.0,3.391
-52.0,-109.0,3.392
-13.0,-504.0,3.393
22.0,-936.0,3.394
50.0,-1069.0,3.395
71.0,-714.0,3.396
74.0,-104.0,3.397
72.0,-311.0,3.398
38.0,70.0,3.399
-3.0,439.0,3.4
-32.0,764.0,3.401
-52.0,979.0,3.402
-62.0,855.0,3.403
-47.0,589.0,3.404
1.0,-106.0,3.405
59.0,-685.0,3.406
92.0,-914.0,3.407
92.0,-1025.0,3.408
76.0,-781.0,3.409
60.0,-494.0,3.41
45.0,-80.0,3.411
31.0,199.0,3.412
20.0,77.0,3.413
24.0,-60.0,3.414
44.0,-247.0,3.415
68.0,-381.0,3.416
76.0,-350.0,3.417
54.0,-343.0,3.418
-8.0,90.0,3.419
-108.0,507.0,3.42
-198.0,876.0,3.421
-217.0,1119.0,3.422
-155.0,979.0,3.423
-80.0,677.0,3.424
-48.0,-111.0,3.425
-36.0,-767.0,3.426
-12.0,-1026.0,3.427
8.0,-1152.0,3.428
-9.0,-875.0,3.429
-48.0,-550.0,3.43
-70.0,-82.0,3.431
-72.0,236.0,3.432
-64.0,98.0,3.433
-41.0,-58.0,3.434
-5.0,-271.0,3.435
19.0,-422.0,3.436
29.0,-387.0,3.437
49.0,-316.0,3.438
90.0,-87.0,3.439
112.0,173.0,3.44
95.0,316.0,3.441
80.0,267.0,3.442
94.0,99.0,3.443
108.0,-10.0,3.444
86.0,34.0,3.445
47.0,145.0,3.446
33.0,196.0,3.447
37.0,214.0,3.448
20.0,345.0,3.449
-31.0,613.0,3.45
-94.0,862.0,3.451
-132.0,960.0,3.452
-128.0,902.0,3.453
-94.0,716.0,3.454
-69.0,363.0,3.455
-56.0,-147.0,3.456
-34.0,-593.0,3.457
0.0,-718.0,3.458
16.0,-355.0,3.459
-2.0,261.0,3.46
-7.0,608.0,3.461
27.0,351.0,3.462
51.0,-358.0,3.463
23.0,-1071.0,3.464
-7.0,-1436.0,3.465
21.0,-1345.0,3.466
81.0,-869.0,3.467
98.0,-229.0,3.468
78.0,255.0,3.469
71.0,423.0,3.47
70.0,418.0,3.471
25.0,460.0,3.472
-42.0,580.0,3.473
-51.0,681.0,3.474
6.0,718.0,3.475
54.0,663.0,3.476
47.0,449.0,3.477
22.0,0.0,3.478
17.0,-533.0,3.479
7.0,-963.0,3.48
-27.0,-1081.0,3.481
-43.0,-1059.0,3.482
2.0,-617.0,3.483
70.0,-230.0,3.484
91.0,-8.0,3.485
50.0,178.0,3.486
-14.0,262.0,3.487
-76.0,400.0,3.488
-129.0,701.0,3.489
-147.0,936.0,3.49
-105.0,972.0,3.491
-25.0,839.0,3.492
29.0,195.0,3.493
24.0,-374.0,3.494
-10.0,-721.0,3.495
-25.0,-902.0,3.496
-15.0,-583.0,3.497
-1.0,-238.0,3.498
10.0,57.0,3.499
22.0,1.0,3.5
31.0,-296.0,3.501
25.0,-501.0,3.502
9.0,-449.0,3.503
-1.0,-230.0,3.504
3.0,103.0,3.505
15.0,611.0,3.506
28.0,1203.0,3.507
43.0,1565.0,3.508
53.0,1463.0,3.509
46.0,951.0,3.51
30.0,207.0,3.511
21.0,-607.0,3.512
22.0,-1241.0,3.513
18.0,-1377.0,3.514
-1.0,-938.0,3.515
-37.0,-270.0,3.516
-69.0,155.0,3.517
-78.0,202.0,3.518
-45.0,29.0,3.519
-5.0,-138.0,3.52
-1.0,-205.0,3.521
-26.0,-164.0,3.522
-36.0,-38.0,3.523
-16.0,103.0,3.524
-1.0,156.0,3.525
-7.0,83.0,3.526
-6.0,-51.0,3.527
5.0,-159.0,3.528
-3.0,-191.0,3.529
-40.0,-163.0,3.53
-66.0,-155.0,3.531
-52.0,-215.0,3.532
-13.0,-268.0,3.533
26.0,-162.0,3.534
59.0,121.0,3.535
80.0,411.0,3.536
88.0,564.0,3.537
92.0,597.0,3.538
105.0,546.0,3.539
110.0,350.0,3.54
78.0,13.0,3.541
14.0,-280.0,3.542
-51.0,-381.0,3.543
-94.0,-364.0,3.544
-98.0,-347.0,3.545
-59.0,-297.0,3.546
-6.0,-128.0,3.547
16.0,109.0,3.548
4.0,364.0,3.549
5.0,709.0,3.55
35.0,1169.0,3.551
57.0,1534.0,3.552
47.0,1501.0,3.553
31.0,933.0,3.554
26.0,-68.0,3.555
7.0,-1191.0,3.556
-38.0,-1937.0,3.557
-89.0,-1992.0,3.558
-105.0,-1413.0,3.559
-85.0,-730.0,3.56
-46.0,-397.0,3.561
2.0,-342.0,3.562
47.0,-252.0,3.563
71.0,-37.0,3.564
72.0,180.0,3.565
68.0,333.0,3.566
66.0,431.0,3.567
56.0,443.0,3.568
36.0,355.0,3.569
20.0,270.0,3.57
23.0,287.0,3.571
35.0,341.0,3.572
35.0,301.0,3.573
18.0,164.0,3.574
-3.0,40.0,3.575
-10.0,-13.0,3.576
-8.0,-33.0,3.577
-20.0,-52.0,3.578
-49.0,-46.0,3.579
-75.0,-31.0,3.58
-75.0,10.0,3.581
-56.0,48.0,3.582
-31.0,80.0,3.583
-10.0,128.0,3.584
1.0,227.0,3.585
-2.0,378.0,3.586
-14.0,686.0,3.587
-17.0,934.0,3.588
-5.0,1003.0,3.589
5.0,904.0,3.59
10.0,295.0,3.591
18.0,-299.0,3.592
30.0,-851.0,3.593
30.0,-1289.0,3.594
13.0,-1386.0,3.595
1.0,-1363.0,3.596
8.0,-979.0,3.597
16.0,-603.0,3.598
13.0,-354.0,3.599
7.0,-242.0,3.6
-6.0,-147.0,3.601
-15.0,17.0,3.602
-12.0,258.0,3.603
-7.0,478.0,3.604
2.0,487.0,3.605
8.0,212.0,3.606
0.0,-142.0,3.607
-4.0,-300.0,3.608
9.0,-218.0,3.609
15.0,-50.0,3.61
-1.0,100.0,3.611
-12.0,217.0,3.612
-6.0,267.0,3.613
-6.0,225.0,3.614
-24.0,159.0,3.615
-37.0,145.0,3.616
-33.0,163.0,3.617
-23.0,165.0,3.618
0.0,169.0,3.619
14.0,176.0,3.62
12.0,192.0,3.621
0.0,206.0,3.622
2.0,215.0,3.623
19.0,211.0,3.624
19.0,169.0,3.625
-13.0,115.0,3.626
-28.0,28.0,3.627
28.0,-49.0,3.628
110.0,-94.0,3.629
121.0,-122.0,3.63
62.0,-92.0,3.631
30.0,-60.0,3.632
64.0,-20.0,3.633
97.0,12.0,3.634
78.0,22.0,3.635
43.0,30.0,3.636
41.0,31.0,3.637
44.0,23.0,3.638
19.0,-6.0,3.639
-24.0,-14.0,3.64
-48.0,-14.0,3.641
-50.0,-27.0,3.642
-50.0,-47.0,3.643
-47.0,-52.0,3.644
-41.0,-43.0,3.645
-36.0,-31.0,3.646
-30.0,-30.0,3.647
-23.0,-36.0,3.648
-20.0,-35.0,3.649
-35.0,-24.0,3.65
-58.0,-8.0,3.651
-65.0,-2.0,3.652
-48.0,-2.0,3.653
-31.0,-8.0,3.654
-32.0,-13.0,3.655
-43.0,-22.0,3.656
-45.0,-28.0,3.657
-39.0,-28.0,3.658
-24.0,-18.0,3.659
-2.0,-10.0,3.66
18.0,-11.0,3.661
27.0,-18.0,3.662
23.0,-30.0,3.663
20.0,-33.0,3.664
23.0,-26.0,3.665
32.0,-16.0,3.666
37.0,-15.0,3.667
22.0,-22.0,3.668
-8.0,-24.0,3.669
-21.0,-21.0,3.67
8.0,-15.0,3.671
59.0,0.0,3.672
79.0,39.0,3.673
66.0,83.0,3.674
61.0,99.0,3.675
78.0,64.0,3.676
84.0,4.0,3.677
53.0,-56.0,3.678
2.0,-100.0,3.679
-30.0,-127.0,3.68
-35.0,-131.0,3.681
-25.0,-93.0,3.682
-8.0,-21.0,3.683
0.0,59.0,3.684
-9.0,127.0,3.685
-23.0,176.0,3.686
-17.0,183.0,3.687
13.0,126.0,3.688
32.0,15.0,3.689
20.0,-95.0,3.69
-12.0,-161.0,3.691
-34.0,-175.0,3.692
-49.0,-152.0,3.693
-77.0,-107.0,3.694
-112.0,-50.0,3.695
-118.0,0.0,3.696
-83.0,33.0,3.697
-30.0,46.0,3.698
1.0,45.0,3.699
16.0,34.0,3.7
35.0,8.0,3.701
60.0,-19.0,3.702
74.0,-32.0,3.703
80.0,-24.0,3.704
84.0,0.0,3.705
75.0,23.0,3.706
40.0,32.0,3.707
8.0,34.0,3.708
9.0,37.0,3.709
29.0,42.0,3.71
33.0,41.0,3.711
11.0,34.0,3.712
-25.0,28.0,3.713
-65.0,25.0,3.714
-94.0,18.0,3.715
-94.0,9.0,3.716
-63.0,6.0,3.717
-25.0,1.0,3.718
-2.0,-6.0,3.719
0.0,-11.0,3.72
-5.0,-9.0,3.721
-8.0,6.0,3.722
9.0,15.0,3.723
48.0,11.0,3.724
80.0,2.0,3.725
84.0,-4.0,3.726
75.0,-8.0,3.727
71.0,-4.0,3.728
69.0,11.0,3.729
61.0,31.0,3.73
66.0,36.0,3.731
82.0,23.0,3.732
72.0,6.0,3.733
24.0,-1.0,3.734
-17.0,-2.0,3.735
-19.0,-3.0,3.736
-18.0,-5.0,3.737
-44.0,-12.0,3.738
-71.0,-21.0,3.739
-63.0,-29.0,3.74
-39.0,-36.0,3.741
-29.0,-32.0,3.742
-24.0,-18.0,3.743
-1.0,2.0,3.744
13.0,15.0,3.745
-20.0,16.0,3.746
-68.0,6.0,3.747
-85.0,0.0,3.748
-68.0,2.0,3.749
-46.0,8.0,3.75
-28.0,12.0,3.751
-2.0,8.0,3.752
26.0,-5.0,3.753
40.0,-16.0,3.754
35.0,-19.0,3.755
14.0,-10.0,3.756
-9.0,1.0,3.757
-22.0,2.0,3.758
-18.0,-2.0,3.759
-7.0,-9.0,3.76
-5.0,-18.0,3.761
-2.0,-19.0,3.762
6.0,-13.0,3.763
-3.0,-5.0,3.764
-51.0,-3.0,3.765
-102.0,-6.0,3.766
-90.0,-4.0,3.767
-20.0,1.0,3.768
45.0,4.0,3.769
64.0,4.0,3.77
67.0,7.0,3.771
92.0,12.0,3.772
127.0,16.0,3.773
131.0,13.0,3.774
93.0,3.0,3.775
43.0,-6.0,3.776
12.0,-7.0,3.777
4.0,-10.0,3.778
12.0,-11.0,3.779
11.0,-9.0,3.78
-7.0,-2.0,3.781
-27.0,7.0,3.782
-21.0,6.0,3.783
3.0,-3.0,3.784
14.0,-5.0,3.785
-1.0,-3.0,3.786
-19.0,-8.0,3.787
-29.0,-21.0,3.788
-46.0,-28.0,3.789
-77.0,-24.0,3.79
-95.0,-17.0,3.791
-81.0,-13.0,3.792
-49.0,2.0,3.793
-20.0,33.0,3.794
2.0,56.0,3.795
21.0,56.0,3.796
41.0,41.0,3.797
66.0,25.0,3.798
94.0,18.0,3.799
102.0,14.0,3.8
79.0,5.0,3.801
40.0,-1.0,3.802
27.0,0.0,3.803
36.0,5.0,3.804
24.0,10.0,3.805
-24.0,11.0,3.806
-67.0,9.0,3.807
-55.0,3.0,3.808
11.0,-15.0,3.809
75.0,-44.0,3.81
88.0,-68.0,3.811
52.0,-70.0,3.812
5.0,-51.0,3.813
-23.0,-32.0,3.814
-46.0,-27.0,3.815
-76.0,-27.0,3.816
-79.0,-19.0,3.817
-11.0,-3.0,3.818
102.0,13.0,3.819
158.0,25.0,3.82
107.0,22.0,3.821
20.0,16.0,3.822
-26.0,9.0,3.823
-51.0,9.0,3.824
-105.0,15.0,3.825
-148.0,22.0,3.826
-103.0,21.0,3.827
0.0,14.0,3.828
52.0,7.0,3.829
14.0,3.0,3.83
-38.0,0.0,3.831
-43.0,-2.0,3.832
-24.0,-4.0,3.833
-27.0,-3.0,3.834
-41.0,4.0,3.835
-38.0,12.0,3.836
-27.0,12.0,3.837
-40.0,-8.0,3.838
-68.0,-34.0,3.839
-77.0,-45.0,3.84
-44.0,-38.0,3.841
3.0,-25.0,3.842
29.0,-14.0,3.843
28.0,10.0,3.844
23.0,56.0,3.845
31.0,94.0,3.846
47.0,89.0,3.847
53.0,52.0,3.848
37.0,24.0,3.849
10.0,19.0,3.85
-2.0,21.0,3.851
20.0,8.0,3.852
63.0,-7.0,3.853
96.0,-10.0,3.854
100.0,-7.0,3.855
93.0,-8.0,3.856
96.0,-14.0,3.857
98.0,-24.0,3.858
72.0,-28.0,3.859
14.0,-29.0,3.86
-41.0,-31.0,3.861
-64.0,-34.0,3.862
-54.0,-32.0,3.863
-37.0,-27.0,3.864
-32.0,-15.0,3.865
-35.0,-5.0,3.866
-19.0,-3.0,3.867
20.0,-7.0,3.868
49.0,-12.0,3.869
36.0,-14.0,3.87
-5.0,-10.0,3.871
-32.0,-3.0,3.872
-25.0,5.0,3.873
0.0,9.0,3.874
15.0,10.0,3.875
1.0,8.0,3.876
-34.0,8.0,3.877
-66.0,3.0,3.878
-57.0,-4.0,3.879
-18.0,-7.0,3.88
3.0,-6.0,3.881
-8.0,-6.0,3.882
-13.0,-9.0,3.883
16.0,-13.0,3.884
58.0,-9.0,3.885
80.0,0.0,3.886
75.0,5.0,3.887
31.0,4.0,3.888
-64.0,-1.0,3.889
-165.0,-2.0,3.89
-190.0,2.0,3.891
-122.0,13.0,3.892
-35.0,23.0,3.893
13.0,21.0,3.894
49.0,9.0,3.895
108.0,4.0,3.896
158.0,11.0,3.897
146.0,19.0,3.898
91.0,12.0,3.899
49.0,-3.0,3.9
31.0,-17.0,3.901
8.0,-17.0,3.902
-13.0,-10.0,3.903
-11.0,0.0,3.904
-2.0,6.0,3.905
-13.0,4.0,3.906
-26.0,-6.0,3.907
-12.0,-12.0,3.908
8.0,-8.0,3.909
0.0,-4.0,3.91
-18.0,-11.0,3.911
-8.0,-23.0,3.912
15.0,-19.0,3.913
6.0,1.0,3.914
-24.0,22.0,3.915
-39.0,36.0,3.916
-36.0,47.0,3.917
-42.0,53.0,3.918
-54.0,43.0,3.919
-53.0,19.0,3.92
-45.0,-7.0,3.921
-48.0,-15.0,3.922
-37.0,-13.0,3.923
28.0,-12.0,3.924
115.0,-11.0,3.925
144.0,-7.0,3.926
102.0,-4.0,3.927
51.0,-8.0,3.928
17.0,-14.0,3.929
-30.0,-13.0,3.93
-83.0,-9.0,3.931
-73.0,-9.0,3.932
11.0,-12.0,3.933
81.0,-10.0,3.934
83.0,-4.0,3.935
77.0,-3.0,3.936
114.0,-6.0,3.937
132.0,-12.0,3.938
65.0,-12.0,3.939
-44.0,-11.0,3.94
-99.0,-12.0,3.941
-115.0,-16.0,3.942
-159.0,-24.0,3.943
-209.0,-31.0,3.944
-177.0,-31.0,3.945
-74.0,-28.0,3.946
-6.0,-23.0,3.947
-1.0,-11.0,3.948
13.0,14.0,3.949
64.0,48.0,3.95
93.0,67.0,3.951
67.0,57.0,3.952
39.0,34.0,3.953
52.0,22.0,3.954
63.0,23.0,3.955
37.0,22.0,3.956
16.0,13.0,3.957
49.0,-2.0,3.958
122.0,-9.0,3.959
172.0,1.0,3.96
160.0,26.0,3.961
96.0,45.0,3.962
10.0,19.0,3.963
-63.0,-32.0,3.964
-98.0,-57.0,3.965
-99.0,-31.0,3.966
-92.0,4.0,3.967
-90.0,4.0,3.968
-83.0,-17.0,3.969
-62.0,-20.0,3.97
-39.0,-6.0,3.971
-28.0,-7.0,3.972
-24.0,-17.0,3.973
-15.0,-14.0,3.974
-5.0,-5.0,3.975
-1.0,-19.0,3.976
0.0,-55.0,3.977
-1.0,-78.0,3.978
3.0,-60.0,3.979
4.0,-21.0,3.98
2.0,6.0,3.981
3.0,30.0,3.982
12.0,64.0,3.983
22.0,104.0,3.984
22.0,117.0,3.985
15.0,85.0,3.986
8.0,25.0,3.987
13.0,-18.0,3.988
23.0,-22.0,3.989
39.0,-5.0,3.99
50.0,0.0,3.991
54.0,-10.0,3.992
42.0,-19.0,3.993
16.0,-15.0,3.994
-13.0,-10.0,3.995
-29.0,-12.0,3.996
-27.0,-18.0,3.997
-22.0,-20.0,3.998
-20.0,-18.0,3.999
-21.0,-17.0,4.0
-18.0,-17.0,4.001
-11.0,-16.0,4.002
-3.0,-14.0,4.003
5.0,-12.0,4.004
13.0,-9.0,4.005
16.0,-6.0,4.006
13.0,-3.0,4.007
13.0,0.0,4.008
22.0,-1.0,4.009
41.0,0.0,4.01
57.0,7.0,4.011
54.0,12.0,4.012
27.0,9.0,4.013
-12.0,7.0,4.014
-39.0,7.0,4.015
-52.0,6.0,4.016
-51.0,9.0,4.017
-33.0,10.0,4.018
5.0,0.0,4.019
24.0,-12.0,4.02
-6.0,-22.0,4.021
-50.0,-17.0,4.022
-39.0,-7.0,4.023
22.0,-1.0,4.024
54.0,1.0,4.025
27.0,4.0,4.026
3.0,6.0,4.027
22.0,4.0,4.028
38.0,1.0,4.029
3.0,1.0,4.03
-52.0,0.0,4.031
-71.0,-4.0,4.032
-46.0,-6.0,4.033
-9.0,-2.0,4.034
20.0,4.0,4.035
35.0,10.0,4.036
51.0,14.0,4.037
87.0,24.0,4.038
136.0,28.0,4.039
152.0,21.0,4.04
99.0,4.0,4.041
11.0,-6.0,4.042
-50.0,-7.0,4.043
-79.0,-6.0,4.044
-102.0,-6.0,4.045
-122.0,-6.0,4.046
-117.0,-8.0,4.047
-92.0,-9.0,4.048
-61.0,-8.0,4.049
-29.0,-5.0,4.05
8.0,-1.0,4.051
48.0,0.0,4.052
81.0,-1.0,4.053
101.0,-2.0,4.054
90.0,-2.0,4.055
44.0,-2.0,4.056
-1.0,3.0,4.057
-20.0,16.0,4.058
-19.0,31.0,4.059
-30.0,28.0,4.06
-48.0,-1.0,4.061
-43.0,-32.0,4.062
-23.0,-33.0,4.063
-25.0,-1.0,4.064
-48.0,22.0,4.065
-54.0,6.0,4.066
-23.0,-30.0,4.067
31.0,-42.0,4.068
93.0,-20.0,4.069
147.0,3.0,4.07
161.0,3.0,4.071
124.0,-3.0,4.072
74.0,3.0,4.073
46.0,14.0,4.074
26.0,14.0,4.075
-12.0,6.0,4.076
-52.0,0.0,4.077
-81.0,-3.0,4.078
-96.0,-8.0,4.079
-102.0,-13.0,4.08
-82.0,-19.0,4.081
-49.0,-24.0,4.082
-36.0,-31.0,4.083
-42.0,-36.0,4.084
-23.0,-28.0,4.085
20.0,-8.0,4.086
30.0,27.0,4.087
-11.0,58.0,4.088
-31.0,61.0,4.089
11.0,31.0,4.09
67.0,5.0,4.091
74.0,16.0,4.092
54.0,44.0,4.093
58.0,43.0,4.094
74.0,11.0,4.095
59.0,-10.0,4.096
24.0,-5.0,4.097
-1.0,-3.0,4.098
-7.0,-16.0,4.099
-15.0,-27.0,4.1
-29.0,-22.0,4.101
-35.0,-21.0,4.102
-25.0,-29.0,4.103
-16.0,-31.0,4.104
-17.0,-13.0,4.105
-22.0,8.0,4.106
-23.0,8.0,4.107
-20.0,-4.0,4.108
-20.0,-7.0,4.109
-26.0,2.0,4.11
-31.0,17.0,4.111
-30.0,24.0,4.112
-21.0,19.0,4.113
-4.0,9.0,4.114
14.0,10.0,4.115
25.0,18.0,4.116
30.0,24.0,4.117
27.0,7.0,4.118
19.0,-10.0,4.119
11.0,-13.0,4.12
11.0,-11.0,4.121
18.0,-11.0,4.122
28.0,-14.0,4.123
39.0,-12.0,4.124
50.0,-9.0,4.125
47.0,-10.0,4.126
17.0,-12.0,4.127
-37.0,-10.0,4.128
-82.0,-6.0,4.129
-102.0,-5.0,4.13
-108.0,-4.0,4.131
-99.0,-1.0,4.132
-49.0,-1.0,4.133
32.0,-4.0,4.134
84.0,-5.0,4.135
79.0,-3.0,4.136
60.0,1.0,4.137
68.0,-1.0,4.138
84.0,-6.0,4.139
71.0,-10.0,4.14
45.0,-13.0,4.141
38.0,-13.0,4.142
38.0,-11.0,4.143
16.0,-9.0,4.144
-18.0,-7.0,4.145
-28.0,-7.0,4.146
-18.0,-5.0,4.147
-15.0,5.0,4.148
-27.0,18.0,4.149
-39.0,23.0,4.15
-47.0,18.0,4.151
-49.0,12.0,4.152
-45.0,6.0,4.153
-29.0,-7.0,4.154
-11.0,-23.0,4.155
5.0,-17.0,4.156
18.0,20.0,4.157
17.0,55.0,4.158
-1.0,54.0,4.159
-19.0,44.0,4.16
-6.0,9.0,4.161
41.0,-14.0,4.162
85.0,0.0,4.163
104.0,9.0,4.164
110.0,6.0,4.165
111.0,2.0,4.166
81.0,0.0,4.167
-1.0,-2.0,4.168
-95.0,-8.0,4.169
-119.0,-14.0,4.17
-60.0,-16.0,4.171
10.0,-17.0,4.172
31.0,-14.0,4.173
28.0,-11.0,4.174
46.0,-12.0,4.175
60.0,-13.0,4.176
16.0,-14.0,4.177
-91.0,-15.0,4.178
-184.0,-15.0,4.179
-205.0,-15.0,4.18
-163.0,-19.0,4.181
-87.0,-21.0,4.182
5.0,-20.0,4.183
95.0,-13.0,4.184
148.0,3.0,4.185
156.0,22.0,4.186
132.0,28.0,4.187
97.0,15.0,4.188
40.0,3.0,4.189
-41.0,4.0,4.19
-115.0,7.0,4.191
-120.0,5.0,4.192
-36.0,3.0,4.193
65.0,7.0,4.194
91.0,7.0,4.195
62.0,-4.0,4.196
62.0,-12.0,4.197
95.0,-13.0,4.198
79.0,-12.0,4.199
-15.0,-17.0,4.2
-94.0,-20.0,4.201
-93.0,-12.0,4.202
-67.0,-10.0,4.203
-78.0,-21.0,4.204
-94.0,-25.0,4.205
-63.0,-3.0,4.206
13.0,31.0,4.207
91.0,42.0,4.208
140.0,31.0,4.209
127.0,22.0,4.21
59.0,28.0,4.211
-16.0,30.0,4.212
-64.0,18.0,4.213
-100.0,5.0,4.214
-118.0,9.0,4.215
-67.0,25.0,4.216
42.0,29.0,4.217
116.0,16.0,4.218
80.0,-1.0,4.219
2.0,-13.0,4.22
3.0,-27.0,4.221
54.0,-37.0,4.222
47.0,-34.0,4.223
-20.0,-23.0,4.224
-38.0,-20.0,4.225
31.0,-24.0,4.226
94.0,-15.0,4.227
73.0,9.0,4.228
-8.0,24.0,4.229
-93.0,15.0,4.23
-145.0,4.0,4.231
-130.0,15.0,4.232
-46.0,38.0,4.233
27.0,37.0,4.234
9.0,4.0,4.235
-38.0,-32.0,4.236
-8.0,-44.0,4.237
82.0,-31.0,4.238
112.0,-15.0,4.239
65.0,-8.0,4.24
54.0,-2.0,4.241
106.0,22.0,4.242
93.0,60.0,4.243
-24.0,95.0,4.244
-106.0,113.0,4.245
-52.0,105.0,4.246
47.0,67.0,4.247
77.0,2.0,4.248
58.0,-60.0,4.249
50.0,-88.0,4.25
34.0,-82.0,4.251
-32.0,-76.0,4.252
-109.0,-100.0,4.253
-138.0,-130.0,4.254
-118.0,-128.0,4.255
-92.0,-87.0,4.256
-85.0,-40.0,4.257
-97.0,-10.0,4.258
-100.0,7.0,4.259
-58.0,19.0,4.26
18.0,26.0,4.261
67.0,31.0,4.262
59.0,36.0,4.263
41.0,37.0,4.264
51.0,30.0,4.265
49.0,18.0,4.266
5.0,13.0,4.267
-28.0,12.0,4.268
0.0,11.0,4.269
42.0,13.0,4.27
34.0,21.0,4.271
12.0,26.0,4.272
46.0,26.0,4.273
111.0,30.0,4.274
130.0,32.0,4.275
91.0,13.0,4.276
44.0,-10.0,4.277
-12.0,-18.0,4.278
-83.0,-7.0,4.279
-118.0,-5.0,4.28
-60.0,-23.0,4.281
47.0,-29.0,4.282
105.0,-9.0,4.283
102.0,12.0,4.284
91.0,12.0,4.285
71.0,3.0,4.286
8.0,7.0,4.287
-53.0,33.0,4.288
-41.0,79.0,4.289
15.0,138.0,4.29
22.0,189.0,4.291
-23.0,214.0,4.292
-51.0,201.0,4.293
-60.0,137.0,4.294
-92.0,23.0,4.295
-97.0,-108.0,4.296
-10.0,-198.0,4.297
112.0,-232.0,4.298
133.0,-231.0,4.299
48.0,-233.0,4.3
-15.0,-234.0,4.301
-11.0,-200.0,4.302
-17.0,-125.0,4.303
-61.0,-33.0,4.304
-76.0,45.0,4.305
-44.0,86.0,4.306
-32.0,87.0,4.307
-52.0,60.0,4.308
-42.0,33.0,4.309
9.0,13.0,4.31
49.0,-7.0,4.311
49.0,-30.0,4.312
25.0,-37.0,4.313
-24.0,-31.0,4.314
-100.0,-37.0,4.315
-171.0,-59.0,4.316
-192.0,-63.0,4.317
-163.0,-22.0,4.318
-86.0,74.0,4.319
26.0,201.0,4.32
134.0,326.0,4.321
168.0,418.0,4.322
130.0,435.0,4.323
98.0,346.0,4.324
106.0,177.0,4.325
88.0,-9.0,4.326
-1.0,-169.0,4.327
-98.0,-290.0,4.328
-110.0,-365.0,4.329
-41.0,-376.0,4.33
27.0,-332.0,4.331
60.0,-283.0,4.332
92.0,-263.0,4.333
146.0,-253.0,4.334
179.0,-217.0,4.335
150.0,-149.0,4.336
85.0,-75.0,4.337
20.0,-3.0,4.338
-23.0,56.0,4.339
-62.0,84.0,4.34
-108.0,79.0,4.341
-135.0,72.0,4.342
-115.0,89.0,4.343
-58.0,119.0,4.344
-16.0,139.0,4.345
-12.0,136.0,4.346
4.0,114.0,4.347
88.0,88.0,4.348
188.0,76.0,4.349
196.0,80.0,4.35
107.0,89.0,4.351
26.0,86.0,4.352
1.0,79.0,4.353
-23.0,86.0,4.354
-67.0,102.0,4.355
-75.0,94.0,4.356
-36.0,54.0,4.357
-20.0,6.0,4.358
-51.0,-11.0,4.359
-71.0,-9.0,4.36
-50.0,-29.0,4.361
-48.0,-69.0,4.362
-88.0,-90.0,4.363
-92.0,-68.0,4.364
-17.0,-22.0,4.365
51.0,18.0,4.366
40.0,46.0,4.367
-3.0,65.0,4.368
-11.0,64.0,4.369
-4.0,43.0,4.37
-21.0,31.0,4.371
-24.0,60.0,4.372
18.0,119.0,4.373
53.0,172.0,4.374
18.0,201.0,4.375
-47.0,206.0,4.376
-68.0,177.0,4.377
-36.0,90.0,4.378
12.0,-38.0,4.379
55.0,-167.0,4.38
86.0,-273.0,4.381
82.0,-343.0,4.382
32.0,-365.0,4.383
-28.0,-325.0,4.384
-71.0,-247.0,4.385
-123.0,-177.0,4.386
-204.0,-134.0,4.387
-257.0,-98.0,4.388
-220.0,-55.0,4.389
-129.0,-13.0,4.39
-52.0,31.0,4.391
25.0,75.0,4.392
174.0,111.0,4.393
366.0,129.0,4.394
469.0,139.0,4.395
421.0,146.0,4.396
317.0,131.0,4.397
240.0,76.0,4.398
172.0,21.0,4.399
58.0,20.0,4.4
-59.0,68.0,4.401
-104.0,117.0,4.402
-91.0,129.0,4.403
-94.0,108.0,4.404
-121.0,72.0,4.405
-125.0,32.0,4.406
-104.0,-7.0,4.407
-95.0,-41.0,4.408
-92.0,-65.0,4.409
-68.0,-65.0,4.41
-42.0,-34.0,4.411
-52.0,-4.0,4.412
-68.0,-14.0,4.413
-18.0,-65.0,4.414
94.0,-115.0,4.415
180.0,-148.0,4.416
176.0,-191.0,4.417
86.0,-264.0,4.418
-33.0,-321.0,4.419
-137.0,-301.0,4.42
-201.0,-208.0,4.421
-209.0,-88.0,4.422
-162.0,10.0,4.423
-92.0,74.0,4.424
-40.0,107.0,4.425
-22.0,123.0,4.426
-13.0,142.0,4.427
7.0,178.0,4.428
34.0,226.0,4.429
46.0,268.0,4.43
47.0,278.0,4.431
50.0,241.0,4.432
54.0,144.0,4.433
45.0,-9.0,4.434
28.0,-173.0,4.435
16.0,-268.0,4.436
18.0,-254.0,4.437
26.0,-160.0,4.438
42.0,-57.0,4.439
56.0,11.0,4.44
58.0,53.0,4.441
41.0,88.0,4.442
20.0,102.0,4.443
0.0,94.0,4.444
-24.0,98.0,4.445
-52.0,154.0,4.446
-60.0,251.0,4.447
-39.0,326.0,4.448
-12.0,324.0,4.449
-3.0,235.0,4.45
-11.0,102.0,4.451
-10.0,-29.0,4.452
8.0,-135.0,4.453
30.0,-217.0,4.454
43.0,-272.0,4.455
41.0,-294.0,4.456
35.0,-285.0,4.457
37.0,-254.0,4.458
43.0,-199.0,4.459
35.0,-133.0,4.46
10.0,-79.0,4.461
-7.0,-44.0,4.462
3.0,-19.0,4.463
21.0,12.0,4.464
18.0,52.0,4.465
0.0,89.0,4.466
-12.0,110.0,4.467
-8.0,110.0,4.468
-1.0,88.0,4.469
1.0,60.0,4.47
6.0,43.0,4.471
8.0,28.0,4.472
9.0,0.0,4.473
14.0,-33.0,4.474
23.0,-56.0,4.475
21.0,-62.0,4.476
-6.0,-59.0,4.477
-57.0,-47.0,4.478
-97.0,-25.0,4.479
-90.0,-7.0,4.48
-23.0,1.0,4.481
76.0,9.0,4.482
149.0,19.0,4.483
157.0,31.0,4.484
103.0,49.0,4.485
21.0,65.0,4.486
-52.0,69.0,4.487
-79.0,72.0,4.488
-38.0,68.0,4.489
28.0,59.0,4.49
36.0,38.0,4.491
-26.0,16.0,4.492
-71.0,-7.0,4.493
-46.0,-24.0,4.494
-12.0,-22.0,4.495
-28.0,-22.0,4.496
-50.0,-33.0,4.497
-27.0,-45.0,4.498
8.0,-59.0,4.499
-1.0,-70.0,4.5
-32.0,-79.0,4.501
-23.0,-69.0,4.502
18.0,-41.0,4.503
38.0,-4.0,4.504
33.0,33.0,4.505
39.0,70.0,4.506
57.0,93.0,4.507
45.0,89.0,4.508
-7.0,77.0,4.509
-65.0,99.0,4.51
-86.0,161.0,4.511
-64.0,215.0,4.512
-22.0,214.0,4.513
1.0,167.0,4.514
-6.0,109.0,4.515
-23.0,44.0,4.516
-26.0,-29.0,4.517
-19.0,-107.0,4.518
-8.0,-160.0,4.519
4.0,-207.0,4.52
14.0,-236.0,4.521
10.0,-257.0,4.522
0.0,-255.0,4.523
12.0,-240.0,4.524
36.0,-189.0,4.525
39.0,-134.0,4.526
17.0,-69.0,4.527
8.0,-16.0,4.528
22.0,1.0,4.529
28.0,5.0,4.53
17.0,-35.0,4.531
12.0,-69.0,4.532
23.0,-85.0,4.533
32.0,-82.0,4.534
33.0,-23.0,4.535
34.0,22.0,4.536
43.0,28.0,4.537
40.0,37.0,4.538
24.0,59.0,4.539
-1.0,82.0,4.54
-27.0,85.0,4.541
-46.0,86.0,4.542
-43.0,103.0,4.543
-14.0,116.0,4.544
13.0,115.0,4.545
18.0,107.0,4.546
8.0,103.0,4.547
-4.0,94.0,4.548
-19.0,74.0,4.549
-30.0,57.0,4.55
-21.0,48.0,4.551
2.0,40.0,4.552
15.0,27.0,4.553
9.0,23.0,4.554
5.0,31.0,4.555
16.0,34.0,4.556
24.0,27.0,4.557
11.0,14.0,4.558
-7.0,8.0,4.559
-15.0,0.0,4.56
-14.0,-22.0,4.561
-7.0,-49.0,4.562
6.0,-69.0,4.563
23.0,-73.0,4.564
31.0,-53.0,4.565
28.0,-9.0,4.566
18.0,41.0,4.567
5.0,77.0,4.568
-8.0,79.0,4.569
-7.0,46.0,4.57
12.0,-5.0,4.571
31.0,-46.0,4.572
34.0,-54.0,4.573
26.0,-35.0,4.574
19.0,-19.0,4.575
3.0,-16.0,4.576
-22.0,-18.0,4.577
-45.0,-17.0,4.578
-59.0,-18.0,4.579
-79.0,-24.0,4.58
-95.0,-38.0,4.581
-66.0,-46.0,4.582
7.0,-42.0,4.583
55.0,-21.0,4.584
32.0,11.0,4.585
-7.0,37.0,4.586
-1.0,37.0,4.587
26.0,17.0,4.588
33.0,2.0,4.589
56.0,-3.0,4.59
125.0,-11.0,4.591
167.0,-26.0,4.592
109.0,-32.0,4.593
1.0,-20.0,4.594
-63.0,-10.0,4.595
-75.0,-24.0,4.596
-86.0,-54.0,4.597
-100.0,-77.0,4.598
-82.0,-72.0,4.599
-53.0,-42.0,4.6
-35.0,3.0,4.601
-7.0,69.0,4.602
45.0,147.0,4.603
74.0,212.0,4.604
56.0,222.0,4.605
31.0,158.0,4.606
27.0,45.0,4.607
10.0,-59.0,4.608
-33.0,-117.0,4.609
-58.0,-131.0,4.61
-49.0,-129.0,4.611
-40.0,-120.0,4.612
-34.0,-104.0,4.613
7.0,-80.0,4.614
70.0,-54.0,4.615
87.0,-37.0,4.616
53.0,-34.0,4.617
14.0,-43.0,4.618
-11.0,-34.0,4.619
-43.0,6.0,4.62
-72.0,55.0,4.621
-52.0,82.0,4.622
-1.0,71.0,4.623
21.0,35.0,4.624
8.0,-10.0,4.625
0.0,-43.0,4.626
6.0,-37.0,4.627
0.0,0.0,4.628
-6.0,22.0,4.629
9.0,4.0,4.63
28.0,-22.0,4.631
12.0,-32.0,4.632
-15.0,-40.0,4.633
-6.0,-52.0,4.634
29.0,-54.0,4.635
47.0,-29.0,4.636
46.0,-2.0,4.637
39.0,10.0,4.638
22.0,29.0,4.639
-10.0,75.0,4.64
-26.0,128.0,4.641
-8.0,155.0,4.642
26.0,137.0,4.643
52.0,81.0,4.644
73.0,10.0,4.645
82.0,-49.0,4.646
61.0,-72.0,4.647
6.0,-60.0,4.648
-46.0,-38.0,4.649
-78.0,-19.0,4.65
-87.0,-4.0,4.651
-75.0,5.0,4.652
-34.0,11.0,4.653
29.0,15.0,4.654
84.0,20.0,4.655
109.0,22.0,4.656
97.0,18.0,4.657
46.0,10.0,4.658
-16.0,5.0,4.659
-67.0,2.0,4.66
-114.0,-1.0,4.661
-167.0,1.0,4.662
-178.0,7.0,4.663
-93.0,8.0,4.664
34.0,4.0,4.665
88.0,11.0,4.666
57.0,30.0,4.667
45.0,46.0,4.668
88.0,51.0,4.669
96.0,46.0,4.67
28.0,27.0,4.671
-38.0,-14.0,4.672
-39.0,-69.0,4.673
-19.0,-114.0,4.674
-25.0,-131.0,4.675
-25.0,-125.0,4.676
1.0,-105.0,4.677
8.0,-72.0,4.678
-31.0,-31.0,4.679
-61.0,9.0,4.68
-24.0,44.0,4.681
45.0,73.0,4.682
80.0,81.0,4.683
67.0,65.0,4.684
36.0,34.0,4.685
16.0,17.0,4.686
18.0,14.0,4.687
31.0,3.0,4.688
28.0,-17.0,4.689
5.0,-24.0,4.69
-4.0,-13.0,4.691
14.0,0.0,4.692
32.0,1.0,4.693
34.0,8.0,4.694
31.0,23.0,4.695
29.0,27.0,4.696
16.0,12.0,4.697
-8.0,-5.0,4.698
-20.0,-9.0,4.699
-27.0,-13.0,4.7
-51.0,-32.0,4.701
-71.0,-48.0,4.702
-43.0,-46.0,4.703
6.0,-29.0,4.704
14.0,-9.0,4.705
-8.0,17.0,4.706
4.0,46.0,4.707
47.0,62.0,4.708
39.0,51.0,4.709
-22.0,26.0,4.71
-56.0,10.0,4.711
-36.0,15.0,4.712
-28.0,38.0,4.713
-55.0,64.0,4.714
-50.0,77.0,4.715
5.0,65.0,4.716
41.0,37.0,4.717
17.0,0.0,4.718
-15.0,-34.0,4.719
1.0,-63.0,4.72
32.0,-75.0,4.721
28.0,-83.0,4.722
9.0,-77.0,4.723
18.0,-69.0,4.724
39.0,-56.0,4.725
37.0,-44.0,4.726
22.0,-35.0,4.727
25.0,-21.0,4.728
36.0,4.0,4.729
26.0,28.0,4.73
8.0,47.0,4.731
5.0,62.0,4.732
14.0,66.0,4.733
15.0,64.0,4.734
0.0,45.0,4.735
-12.0,25.0,4.736
-7.0,5.0,4.737
8.0,-12.0,4.738
7.0,-21.0,4.739
-23.0,-42.0,4.74
-59.0,-64.0,4.741
-73.0,-68.0,4.742
-54.0,-70.0,4.743
-17.0,-73.0,4.744
28.0,-63.0,4.745
78.0,-37.0,4.746
109.0,-15.0,4.747
97.0,-8.0,4.748
46.0,-2.0,4.749
-2.0,11.0,4.75
-17.0,21.0,4.751
-15.0,21.0,4.752
-28.0,25.0,4.753
-41.0,39.0,4.754
-22.0,51.0,4.755
18.0,50.0,4.756
38.0,44.0,4.757
20.0,38.0,4.758
-10.0,35.0,4.759
-33.0,31.0,4.76
-52.0,28.0,4.761
-65.0,28.0,4.762
-53.0,25.0,4.763
-24.0,15.0,4.764
-3.0,6.0,4.765
5.0,-1.0,4.766
6.0,-12.0,4.767
-1.0,-25.0,4.768
-13.0,-30.0,4.769
-4.0,-23.0,4.77
31.0,-12.0,4.771
56.0,-4.0,4.772
49.0,4.0,4.773
38.0,10.0,4.774
48.0,14.0,4.775
52.0,17.0,4.776
29.0,17.0,4.777
-7.0,16.0,4.778
-28.0,11.0,4.779
-43.0,-1.0,4.78
-54.0,-25.0,4.781
-37.0,-41.0,4.782
-2.0,-35.0,4.783
-2.0,-16.0,4.784
-40.0,-4.0,4.785
-47.0,-5.0,4.786
-2.0,1.0,4.787
29.0,25.0,4.788
4.0,44.0,4.789
-20.0,32.0,4.79
9.0,-5.0,4.791
45.0,-41.0,4.792
35.0,-60.0,4.793
7.0,-66.0,4.794
5.0,-63.0,4.795
24.0,-47.0,4.796
40.0,-18.0,4.797
63.0,-65.0,4.798
92.0,-51.0,4.799
92.0,-36.0,4.8
50.0,-27.0,4.801
-5.0,-17.0,4.802
-37.0,-13.0,4.803
-51.0,-6.0,4.804
-54.0,15.0,4.805
-53.0,36.0,4.806
-58.0,48.0,4.807
-69.0,57.0,4.808
-60.0,57.0,4.809
-18.0,55.0,4.81
16.0,41.0,4.811
17.0,24.0,4.812
8.0,1.0,4.813
15.0,-15.0,4.814
17.0,-25.0,4.815
1.0,-27.0,4.816
-7.0,-8.0,4.817
4.0,-59.0,4.818
17.0,-46.0,4.819
10.0,-33.0,4.82
4.0,-24.0,4.821
15.0,-16.0,4.822
25.0,-11.0,4.823
22.0,-5.0,4.824
14.0,13.0,4.825
15.0,33.0,4.826
13.0,44.0,4.827
8.0,52.0,4.828
6.0,52.0,4.829
10.0,50.0,4.83
11.0,37.0,4.831
10.0,22.0,4.832
14.0,1.0,4.833
20.0,-14.0,4.834
20.0,-22.0,4.835
13.0,-24.0,4.836
3.0,-7.0,4.837
-12.0,-27.0,4.838
-26.0,-21.0,4.839
-31.0,-15.0,4.84
-22.0,-11.0,4.841
-11.0,-7.0,4.842
-4.0,-5.0,4.843
-3.0,-2.0,4.844
-3.0,7.0,4.845
-10.0,16.0,4.846
-18.0,21.0,4.847
-14.0,25.0,4.848
2.0,25.0,4.849
28.0,24.0,4.85
64.0,18.0,4.851
98.0,11.0,4.852
89.0,1.0,4.853
22.0,-6.0,4.854
-66.0,-10.0,4.855
-123.0,-11.0,4.856
-133.0,-3.0,4.857
-97.0,5.0,4.858
-24.0,10.0,4.859
46.0,11.0,4.86
58.0,3.0,4.861
24.0,-5.0,4.862
17.0,-9.0,4.863
53.0,-11.0,4.864
65.0,-14.0,4.865
26.0,-28.0,4.866
-9.0,-51.0,4.867
-1.0,-73.0,4.868
13.0,-72.0,4.869
0.0,-52.0,4.87
-10.0,-26.0,4.871
5.0,-7.0,4.872
18.0,11.0,4.873
8.0,28.0,4.874
2.0,40.0,4.875
10.0,44.0,4.876
10.0,47.0,4.877
-7.0,45.0,4.878
-13.0,40.0,4.879
-1.0,38.0,4.88
6.0,37.0,4.881
-2.0,34.0,4.882
-1.0,24.0,4.883
17.0,18.0,4.884
23.0,24.0,4.885
9.0,25.0,4.886
0.0,10.0,4.887
11.0,-9.0,4.888
21.0,-14.0,4.889
16.0,-13.0,4.89
6.0,-19.0,4.891
0.0,-28.0,4.892
-6.0,-27.0,4.893
-17.0,-19.0,4.894
-27.0,-13.0,4.895
-37.0,-8.0,4.896
-50.0,-3.0,4.897
-52.0,-1.0,4.898
-22.0,-1.0,4.899
21.0,2.0,4.9
42.0,8.0,4.901
35.0,14.0,4.902
27.0,11.0,4.903
24.0,10.0,4.904
12.0,14.0,4.905
-6.0,15.0,4.906
-2.0,7.0,4.907
20.0,-4.0,4.908
25.0,-7.0,4.909
1.0,-12.0,4.91
-22.0,-23.0,4.911
-22.0,-23.0,4.912
-8.0,-8.0,4.913
8.0,8.0,4.914
13.0,12.0,4.915
-14.0,6.0,4.916
-75.0,1.0,4.917
-136.0,-6.0,4.918
-136.0,-15.0,4.919
-71.0,-25.0,4.92
12.0,-27.0,4.921
86.0,-23.0,4.922
140.0,-17.0,4.923
165.0,-8.0,4.924
150.0,5.0,4.925
114.0,16.0,4.926
82.0,18.0,4.927
45.0,14.0,4.928
2.0,9.0,4.929
-22.0,3.0,4.93
-15.0,-5.0,4.931
-6.0,-11.0,4.932
-24.0,-16.0,4.933
-53.0,-18.0,4.934
-64.0,-19.0,4.935
-64.0,-20.0,4.936
-63.0,-23.0,4.937
-55.0,-21.0,4.938
-31.0,-11.0,4.939
1.0,6.0,4.94
29.0,10.0,4.941
41.0,-2.0,4.942
29.0,-7.0,4.943
-2.0,6.0,4.944
-23.0,18.0,4.945
-14.0,4.0,4.946
3.0,-27.0,4.947
6.0,-42.0,4.948
5.0,-34.0,4.949
15.0,-25.0,4.95
22.0,-27.0,4.951
9.0,-30.0,4.952
-8.0,-25.0,4.953
-5.0,-20.0,4.954
3.0,-23.0,4.955
-7.0,-32.0,4.956
-33.0,-42.0,4.957
-62.0,-54.0,4.958
-81.0,-63.0,4.959
-91.0,-66.0,4.96
-83.0,-67.0,4.961
-48.0,-65.0,4.962
0.0,-59.0,4.963
39.0,-46.0,4.964
65.0,-29.0,4.965
82.0,-17.0,4.966
90.0,-11.0,4.967
91.0,-7.0,4.968
90.0,-8.0,4.969
84.0,-17.0,4.97
60.0,-31.0,4.971
33.0,-39.0,4.972
27.0,-39.0,4.973
42.0,-36.0,4.974
49.0,-33.0,4.975
41.0,-30.0,4.976
35.0,-27.0,4.977
31.0,-30.0,4.978
22.0,-38.0,4.979
0.0,-46.0,4.98
-36.0,-52.0,4.981
-107.0,-53.0,4.982
-198.0,-53.0,4.983
-229.0,-51.0,4.984
-145.0,-39.0,4.985
-27.0,-14.0,4.986
4.0,13.0,4.987
-48.0,33.0,4.988
-79.0,39.0,4.989
-39.0,34.0,4.99
24.0,24.0,4.991
76.0,13.0,4.992
118.0,10.0,4.993
141.0,19.0,4.994
136.0,31.0,4.995
136.0,35.0,4.996
151.0,31.0,4.997
116.0,22.0,4.998
0.0,20.0,4.999
-107.0,30.0,5.0
-103.0,55.0,5.001
-22.0,91.0,5.002
27.0,111.0,5.003
20.0,92.0,5.004
9.0,55.0,5.005
14.0,41.0,5.006
11.0,57.0,5.007
0.0,73.0,5.008
-8.0,73.0,5.009
-15.0,76.0,5.01
-27.0,94.0,5.011
-28.0,103.0,5.012
-14.0,90.0,5.013
-5.0,71.0,5.014
-13.0,67.0,5.015
-13.0,80.0,5.016
0.0,99.0,5.017
6.0,111.0,5.018
0.0,117.0,5.019
0.0,110.0,5.02
11.0,93.0,5.021
20.0,82.0,5.022
22.0,76.0,5.023
29.0,64.0,5.024
33.0,48.0,5.025
20.0,39.0,5.026
-2.0,39.0,5.027
-10.0,38.0,5.028
-12.0,31.0,5.029
-23.0,26.0,5.03
-32.0,28.0,5.031
-17.0,30.0,5.032
7.0,28.0,5.033
13.0,26.0,5.034
2.0,27.0,5.035
0.0,26.0,5.036
11.0,24.0,5.037
13.0,16.0,5.038
2.0,10.0,5.039
-8.0,5.0,5.04
-12.0,0.0,5.041
-16.0,-1.0,5.042
-14.0,0.0,5.043
2.0,3.0,5.044
20.0,4.0,5.045
12.0,-4.0,5.046
-33.0,-16.0,5.047
-96.0,-15.0,5.048
-129.0,-3.0,5.049
-99.0,2.0,5.05
-16.0,-9.0,5.051
62.0,-29.0,5.052
107.0,-39.0,5.053
139.0,-40.0,5.054
182.0,-43.0,5.055
204.0,-48.0,5.056
174.0,-47.0,5.057
100.0,-39.0,5.058
27.0,-36.0,5.059
-25.0,-39.0,5.06
-52.0,-44.0,5.061
-40.0,-42.0,5.062
5.0,-38.0,5.063
30.0,-40.0,5.064
8.0,-43.0,5.065
-13.0,-49.0,5.066
11.0,-55.0,5.067
34.0,-62.0,5.068
0.0,-63.0,5.069
-62.0,-56.0,5.07
-72.0,-46.0,5.071
-21.0,-36.0,5.072
34.0,-24.0,5.073
55.0,-10.0,5.074
45.0,4.0,5.075
14.0,4.0,5.076
-29.0,-10.0,5.077
-74.0,-34.0,5.078
-110.0,-50.0,5.079
-150.0,-51.0,5.08
-182.0,-47.0,5.081
-155.0,-43.0,5.082
-58.0,-36.0,5.083
23.0,-23.0,5.084
16.0,-8.0,5.085
-42.0,-2.0,5.086
-58.0,-7.0,5.087
-33.0,-12.0,5.088
-23.0,-9.0,5.089
-18.0,0.0,5.09
31.0,-1.0,5.091
87.0,-20.0,5.092
71.0,-42.0,5.093
3.0,-48.0,5.094
-18.0,-35.0,5.095
22.0,-21.0,5.096
52.0,-16.0,5.097
32.0,-19.0,5.098
14.0,-18.0,5.099
21.0,-9.0,5.1
27.0,11.0,5.101
18.0,41.0,5.102
22.0,62.0,5.103
34.0,63.0,5.104
22.0,40.0,5.105
-7.0,0.0,5.106
-7.0,-46.0,5.107
22.0,-82.0,5.108
29.0,-86.0,5.109
9.0,-57.0,5.11
4.0,-22.0,5.111
25.0,-4.0,5.112
31.0,0.0,5.113
6.0,-3.0,5.114
-10.0,-8.0,5.115
6.0,-17.0,5.116
28.0,-21.0,5.117
15.0,-20.0,5.118
-8.0,-15.0,5.119
-10.0,-16.0,5.12
4.0,-18.0,5.121
8.0,-11.0,5.122
5.0,-2.0,5.123
18.0,2.0,5.124
31.0,9.0,5.125
15.0,25.0,5.126
-20.0,37.0,5.127
-33.0,36.0,5.128
-18.0,30.0,5.129
-7.0,32.0,5.13
-7.0,34.0,5.131
6.0,28.0,5.132
40.0,19.0,5.133
60.0,21.0,5.134
32.0,27.0,5.135
-23.0,23.0,5.136
-57.0,12.0,5.137
-48.0,7.0,5.138
-9.0,12.0,5.139
23.0,15.0,5.14
16.0,5.0,5.141
-28.0,0.0,5.142
-80.0,3.0,5.143
-104.0,10.0,5.144
-89.0,10.0,5.145
-49.0,-4.0,5.146
-13.0,-25.0,5.147
11.0,-36.0,5.148
37.0,-28.0,5.149
92.0,-9.0,5.15
156.0,10.0,5.151
169.0,22.0,5.152
115.0,27.0,5.153
61.0,25.0,5.154
66.0,13.0,5.155
82.0,-2.0,5.156
46.0,-4.0,5.157
-36.0,10.0,5.158
-77.0,40.0,5.159
-66.0,63.0,5.16
-60.0,61.0,5.161
-77.0,34.0,5.162
-70.0,-10.0,5.163
-26.0,-45.0,5.164
13.0,-53.0,5.165
31.0,-36.0,5.166
42.0,-17.0,5.167
39.0,-13.0,5.168
3.0,-27.0,5.169
-37.0,-45.0,5.17
-43.0,-58.0,5.171
-24.0,-61.0,5.172
-4.0,-51.0,5.173
26.0,-34.0,5.174
61.0,-14.0,5.175
52.0,6.0,5.176
-9.0,29.0,5.177
-85.0,47.0,5.178
-124.0,52.0,5.179
-125.0,40.0,5.18
-93.0,22.0,5.181
-9.0,18.0,5.182
78.0,26.0,5.183
77.0,27.0,5.184
-10.0,15.0,5.185
-76.0,-1.0,5.186
-74.0,-6.0,5.187
-67.0,-2.0,5.188
-78.0,4.0,5.189
-45.0,10.0,5.19
40.0,18.0,5.191
93.0,29.0,5.192
93.0,38.0,5.193
123.0,36.0,5.194
179.0,22.0,5.195
152.0,-6.0,5.196
26.0,-40.0,5.197
-99.0,-74.0,5.198
-121.0,-89.0,5.199
-72.0,-78.0,5.2
-24.0,-59.0,5.201
27.0,-40.0,5.202
94.0,-29.0,5.203
139.0,-20.0,5.204
129.0,-10.0,5.205
93.0,0.0,5.206
63.0,11.0,5.207
28.0,17.0,5.208
-13.0,19.0,5.209
-34.0,19.0,5.21
-24.0,20.0,5.211
-16.0,28.0,5.212
-23.0,45.0,5.213
-32.0,63.0,5.214
-31.0,64.0,5.215
-37.0,41.0,5.216
-50.0,15.0,5.217
-59.0,-1.0,5.218
-52.0,-4.0,5.219
-36.0,-8.0,5.22
-15.0,-18.0,5.221
6.0,-15.0,5.222
14.0,-2.0,5.223
2.0,14.0,5.224
-5.0,23.0,5.225
12.0,26.0,5.226
38.0,25.0,5.227
39.0,19.0,5.228
25.0,6.0,5.229
18.0,-4.0,5.23
14.0,-8.0,5.231
-7.0,-6.0,5.232
-29.0,-7.0,5.233
-19.0,-11.0,5.234
10.0,-19.0,5.235
14.0,-26.0,5.236
-8.0,-25.0,5.237
-20.0,-22.0,5.238
-3.0,-21.0,5.239
-2.0,-25.0,5.24
-44.0,-32.0,5.241
-90.0,-31.0,5.242
-83.0,-22.0,5.243
-39.0,-12.0,5.244
-18.0,-2.0,5.245
-35.0,8.0,5.246
-47.0,19.0,5.247
-21.0,27.0,5.248
25.0,37.0,5.249
66.0,75.0,5.25
95.0,152.0,5.251
106.0,240.0,5.252
94.0,271.0,5.253
64.0,198.0,5.254
24.0,60.0,5.255
-22.0,-74.0,5.256
-53.0,-168.0,5.257
-32.0,-240.0,5.258
35.0,-273.0,5.259
94.0,-243.0,5.26
116.0,-175.0,5.261
125.0,-117.0,5.262
127.0,-88.0,5.263
71.0,-56.0,5.264
-37.0,-5.0,5.265
-97.0,26.0,5.266
-49.0,21.0,5.267
26.0,5.0,5.268
23.0,12.0,5.269
-33.0,31.0,5.27
-49.0,40.0,5.271
-21.0,46.0,5.272
-16.0,63.0,5.273
-57.0,76.0,5.274
-95.0,66.0,5.275
-96.0,35.0,5.276
-79.0,2.0,5.277
-70.0,-37.0,5.278
-67.0,-78.0,5.279
-65.0,-99.0,5.28
-45.0,-84.0,5.281
5.0,-38.0,5.282
84.0,17.0,5.283
167.0,74.0,5.284
218.0,123.0,5.285
218.0,137.0,5.286
156.0,95.0,5.287
40.0,26.0,5.288
-97.0,-16.0,5.289
-201.0,-22.0,5.29
-223.0,-21.0,5.291
-144.0,-26.0,5.292
-10.0,-25.0,5.293
80.0,-12.0,5.294
63.0,-9.0,5.295
-11.0,-23.0,5.296
-45.0,-40.0,5.297
-28.0,-47.0,5.298
-18.0,-41.0,5.299
-34.0,-27.0,5.3
-23.0,-1.0,5.301
26.0,34.0,5.302
47.0,63.0,5.303
1.0,64.0,5.304
-64.0,40.0,5.305
-95.0,8.0,5.306
-88.0,-13.0,5.307
-41.0,-14.0,5.308
47.0,11.0,5.309
123.0,55.0,5.31
126.0,84.0,5.311
87.0,74.0,5.312
92.0,36.0,5.313
132.0,1.0,5.314
128.0,-10.0,5.315
76.0,-11.0,5.316
49.0,-13.0,5.317
53.0,-14.0,5.318
18.0,-7.0,5.319
-80.0,-5.0,5.32
-148.0,-19.0,5.321
-127.0,-28.0,5.322
-66.0,-19.0,5.323
-26.0,-5.0,5.324
8.0,-4.0,5.325
56.0,-11.0,5.326
76.0,-16.0,5.327
43.0,-16.0,5.328
-6.0,-18.0,5.329
-28.0,-21.0,5.33
-42.0,-18.0,5.331
-80.0,-10.0,5.332
-122.0,-10.0,5.333
-115.0,-20.0,5.334
-51.0,-32.0,5.335
18.0,-36.0,5.336
55.0,-28.0,5.337
69.0,-12.0,5.338
89.0,5.0,5.339
116.0,21.0,5.34
108.0,31.0,5.341
44.0,52.0,5.342
-16.0,88.0,5.343
-12.0,134.0,5.344
28.0,159.0,5.345
14.0,138.0,5.346
-67.0,80.0,5.347
-118.0,25.0,5.348
-63.0,-12.0,5.349
33.0,-46.0,5.35
60.0,-87.0,5.351
12.0,-107.0,5.352
-22.0,-96.0,5.353
-4.0,-81.0,5.354
30.0,-85.0,5.355
50.0,-91.0,5.356
57.0,-86.0,5.357
51.0,-84.0,5.358
24.0,-98.0,5.359
-2.0,-107.0,5.36
4.0,-92.0,5.361
15.0,-61.0,5.362
-6.0,-37.0,5.363
-31.0,-18.0,5.364
-18.0,1.0,5.365
7.0,15.0,5.366
-1.0,12.0,5.367
-24.0,10.0,5.368
-18.0,24.0,5.369
4.0,47.0,5.37
2.0,57.0,5.371
-20.0,51.0,5.372
-32.0,47.0,5.373
-32.0,53.0,5.374
-41.0,60.0,5.375
-59.0,53.0,5.376
-74.0,43.0,5.377
-79.0,52.0,5.378
-56.0,81.0,5.379
-3.0,95.0,5.38
29.0,73.0,5.381
-6.0,41.0,5.382
-76.0,28.0,5.383
-90.0,26.0,5.384
-23.0,16.0,5.385
60.0,-2.0,5.386
122.0,-11.0,5.387
170.0,-16.0,5.388
183.0,-30.0,5.389
130.0,-47.0,5.39
74.0,-56.0,5.391
116.0,-56.0,5.392
210.0,-56.0,5.393
192.0,-58.0,5.394
28.0,-54.0,5.395
-131.0,-44.0,5.396
-180.0,-38.0,5.397
-174.0,-41.0,5.398
-149.0,-44.0,5.399
-65.0,-43.0,5.4
49.0,-31.0,5.401
63.0,-4.0,5.402
-32.0,17.0,5.403
-81.0,18.0,5.404
-19.0,2.0,5.405
24.0,-4.0,5.406
-24.0,9.0,5.407
-59.0,29.0,5.408
-12.0,50.0,5.409
30.0,74.0,5.41
2.0,83.0,5.411
-27.0,55.0,5.412
-7.0,5.0,5.413
8.0,-17.0,5.414
-19.0,10.0,5.415
-31.0,55.0,5.416
-3.0,77.0,5.417
17.0,69.0,5.418
9.0,51.0,5.419
10.0,32.0,5.42
30.0,10.0,5.421
26.0,9.0,5.422
-5.0,29.0,5.423
-15.0,38.0,5.424
0.0,18.0,5.425
-2.0,-15.0,5.426
-25.0,-23.0,5.427
-30.0,-1.0,5.428
-14.0,32.0,5.429
-2.0,62.0,5.43
6.0,80.0,5.431
32.0,75.0,5.432
60.0,36.0,5.433
54.0,-27.0,5.434
13.0,-95.0,5.435
-27.0,-138.0,5.436
-39.0,-149.0,5.437
-22.0,-137.0,5.438
16.0,-126.0,5.439
58.0,-118.0,5.44
82.0,-99.0,5.441
81.0,-52.0,5.442
61.0,-3.0,5.443
24.0,6.0,5.444
-23.0,-24.0,5.445
-55.0,-58.0,5.446
-52.0,-59.0,5.447
-25.0,-25.0,5.448
-5.0,27.0,5.449
-4.0,70.0,5.45
-12.0,82.0,5.451
-12.0,51.0,5.452
-3.0,-7.0,5.453
5.0,-57.0,5.454
4.0,-86.0,5.455
-4.0,-95.0,5.456
-8.0,-87.0,5.457
-5.0,-68.0,5.458
-5.0,-31.0,5.459
-17.0,12.0,5.46
-20.0,52.0,5.461
2.0,91.0,5.462
33.0,111.0,5.463
35.0,95.0,5.464
14.0,51.0,5.465
0.0,7.0,5.466
0.0,-20.0,5.467
0.0,-37.0,5.468
2.0,-35.0,5.469
22.0,-4.0,5.47
46.0,37.0,5.471
53.0,55.0,5.472
37.0,45.0,5.473
22.0,35.0,5.474
6.0,33.0,5.475
-26.0,25.0,5.476
-59.0,10.0,5.477
-58.0,-2.0,5.478
-24.0,-2.0,5.479
3.0,-3.0,5.48
11.0,-10.0,5.481
21.0,-8.0,5.482
39.0,8.0,5.483
50.0,38.0,5.484
38.0,76.0,5.485
21.0,119.0,5.486
-11.0,159.0,5.487
-30.0,186.0,5.488
-10.0,180.0,5.489
8.0,129.0,5.49
19.0,36.0,5.491
19.0,-66.0,5.492
-14.0,-142.0,5.493
-57.0,-179.0,5.494
-125.0,-190.0,5.495
-169.0,-187.0,5.496
-141.0,-175.0,5.497
-88.0,-156.0,5.498
36.0,-127.0,5.499
108.0,-98.0,5.5
110.0,-69.0,5.501
90.0,-44.0,5.502
82.0,-34.0,5.503
72.0,-15.0,5.504
43.0,29.0,5.505
21.0,67.0,5.506
24.0,88.0,5.507
34.0,95.0,5.508
27.0,57.0,5.509
14.0,25.0,5.51
3.0,9.0,5.511
-13.0,1.0,5.512
-34.0,18.0,5.513
-32.0,31.0,5.514
5.0,28.0,5.515
44.0,24.0,5.516
51.0,20.0,5.517
34.0,21.0,5.518
14.0,36.0,5.519
-9.0,35.0,5.52
-42.0,35.0,5.521
-61.0,70.0,5.522
-38.0,120.0,5.523
12.0,129.0,5.524
47.0,94.0,5.525
37.0,62.0,5.526
-4.0,62.0,5.527
-34.0,64.0,5.528
-31.0,33.0,5.529
-7.0,-19.0,5.53
17.0,-67.0,5.531
30.0,-113.0,5.532
24.0,-170.0,5.533
-5.0,-216.0,5.534
-35.0,-211.0,5.535
-30.0,-147.0,5.536
11.0,-66.0,5.537
40.0,-10.0,5.538
21.0,9.0,5.539
-18.0,3.0,5.54
-24.0,-13.0,5.541
-13.0,-25.0,5.542
-26.0,-23.0,5.543
-54.0,0.0,5.544
-63.0,36.0,5.545
-61.0,66.0,5.546
-64.0,78.0,5.547
-29.0,75.0,5.548
73.0,72.0,5.549
165.0,71.0,5.55
155.0,62.0,5.551
70.0,34.0,5.552
7.0,-11.0,5.553
-11.0,-56.0,5.554
-37.0,-84.0,5.555
-69.0,-88.0,5.556
-56.0,-73.0,5.557
-15.0,-46.0,5.558
-12.0,-11.0,5.559
-48.0,30.0,5.56
-44.0,63.0,5.561
21.0,87.0,5.562
70.0,100.0,5.563
51.0,98.0,5.564
15.0,83.0,5.565
14.0,60.0,5.566
30.0,27.0,5.567
28.0,-10.0,5.568
16.0,-40.0,5.569
20.0,-62.0,5.57
32.0,-84.0,5.571
29.0,-106.0,5.572
7.0,-113.0,5.573
-25.0,-90.0,5.574
-57.0,-49.0,5.575
-72.0,-3.0,5.576
-58.0,47.0,5.577
-26.0,96.0,5.578
-1.0,112.0,5.579
10.0,67.0,5.58
19.0,-15.0,5.581
29.0,-71.0,5.582
28.0,-82.0,5.583
21.0,-74.0,5.584
33.0,-61.0,5.585
57.0,-23.0,5.586
58.0,47.0,5.587
19.0,113.0,5.588
-24.0,136.0,5.589
-45.0,109.0,5.59
-53.0,61.0,5.591
-48.0,23.0,5.592
-7.0,4.0,5.593
50.0,-7.0,5.594
55.0,-34.0,5.595
-4.0,-76.0,5.596
-53.0,-106.0,5.597
-45.0,-113.0,5.598
-18.0,-100.0,5.599
-22.0,-86.0,5.6
-35.0,-77.0,5.601
-16.0,-60.0,5.602
24.0,-30.0,5.603
54.0,3.0,5.604
71.0,23.0,5.605
80.0,31.0,5.606
65.0,35.0,5.607
27.0,48.0,5.608
0.0,63.0,5.609
-5.0,68.0,5.61
-5.0,67.0,5.611
0.0,63.0,5.612
26.0,56.0,5.613
54.0,43.0,5.614
40.0,35.0,5.615
-20.0,39.0,5.616
-83.0,46.0,5.617
-121.0,38.0,5.618
-114.0,17.0,5.619
-68.0,0.0,5.62
-14.0,-4.0,5.621
0.0,3.0,5.622
-17.0,17.0,5.623
-11.0,27.0,5.624
35.0,25.0,5.625
65.0,3.0,5.626
46.0,-29.0,5.627
23.0,-58.0,5.628
35.0,-76.0,5.629
53.0,-90.0,5.63
38.0,-101.0,5.631
10.0,-101.0,5.632
1.0,-83.0,5.633
0.0,-56.0,5.634
-10.0,-31.0,5.635
-13.0,-13.0,5.636
4.0,6.0,5.637
13.0,24.0,5.638
-8.0,35.0,5.639
-35.0,32.0,5.64
-29.0,21.0,5.641
0.0,24.0,5.642
16.0,39.0,5.643
15.0,53.0,5.644
15.0,58.0,5.645
18.0,54.0,5.646
14.0,44.0,5.647
6.0,34.0,5.648
5.0,29.0,5.649
3.0,32.0,5.65
4.0,42.0,5.651
23.0,55.0,5.652
53.0,67.0,5.653
58.0,66.0,5.654
19.0,45.0,5.655
-32.0,0.0,5.656
-59.0,-59.0,5.657
-65.0,-115.0,5.658
-54.0,-137.0,5.659
-29.0,-115.0,5.66
-2.0,-85.0,5.661
9.0,-68.0,5.662
9.0,-59.0,5.663
15.0,-36.0,5.664
24.0,-3.0,5.665
19.0,12.0,5.666
7.0,7.0,5.667
12.0,4.0,5.668
21.0,17.0,5.669
17.0,33.0,5.67
7.0,38.0,5.671
11.0,34.0,5.672
19.0,33.0,5.673
8.0,36.0,5.674
-15.0,33.0,5.675
-24.0,29.0,5.676
-18.0,28.0,5.677
-8.0,21.0,5.678
0.0,0.0,5.679
11.0,-28.0,5.68
14.0,-48.0,5.681
15.0,-49.0,5.682
28.0,-46.0,5.683
51.0,-50.0,5.684
62.0,-51.0,5.685
48.0,-39.0,5.686
25.0,-25.0,5.687
15.0,-18.0,5.688
2.0,-16.0,5.689
-29.0,-6.0,5.69
-69.0,8.0,5.691
-89.0,17.0,5.692
-69.0,22.0,5.693
-20.0,27.0,5.694
24.0,32.0,5.695
31.0,34.0,5.696
4.0,34.0,5.697
-22.0,32.0,5.698
-15.0,25.0,5.699
9.0,13.0,5.7
10.0,4.0,5.701
-22.0,4.0,5.702
-40.0,4.0,5.703
-20.0,-6.0,5.704
7.0,-21.0,5.705
13.0,-30.0,5.706
8.0,-30.0,5.707
15.0,-20.0,5.708
28.0,1.0,5.709
25.0,27.0,5.71
16.0,38.0,5.711
16.0,29.0,5.712
19.0,13.0,5.713
14.0,7.0,5.714
11.0,12.0,5.715
17.0,26.0,5.716
22.0,41.0,5.717
10.0,48.0,5.718
-1.0,41.0,5.719
-3.0,28.0,5.72
-1.0,19.0,5.721
-7.0,23.0,5.722
-9.0,22.0,5.723
1.0,12.0,5.724
8.0,0.0,5.725
-3.0,-6.0,5.726
-17.0,-14.0,5.727
-10.0,-26.0,5.728
1.0,-35.0,5.729
0.0,-40.0,5.73
-6.0,-48.0,5.731
1.0,-58.0,5.732
15.0,-58.0,5.733
17.0,-46.0,5.734
14.0,-30.0,5.735
15.0,-18.0,5.736
9.0,-9.0,5.737
-13.0,-7.0,5.738
-26.0,-11.0,5.739
-14.0,-15.0,5.74
4.0,-12.0,5.741
1.0,-6.0,5.742
-3.0,-7.0,5.743
17.0,-11.0,5.744
32.0,-10.0,5.745
2.0,-3.0,5.746
-47.0,-3.0,5.747
-57.0,-6.0,5.748
-16.0,-2.0,5.749
27.0,8.0,5.75
36.0,13.0,5.751
26.0,12.0,5.752
14.0,11.0,5.753
6.0,12.0,5.754
0.0,12.0,5.755
-6.0,12.0,5.756
-5.0,16.0,5.757
1.0,13.0,5.758
8.0,10.0,5.759
0.0,15.0,5.76
-16.0,25.0,5.761
-19.0,24.0,5.762
-3.0,9.0,5.763
14.0,-2.0,5.764
12.0,4.0,5.765
4.0,15.0,5.766
11.0,12.0,5.767
23.0,4.0,5.768
26.0,3.0,5.769
25.0,4.0,5.77
29.0,-2.0,5.771
30.0,-8.0,5.772
20.0,-4.0,5.773
8.0,4.0,5.774
4.0,5.0,5.775
6.0,4.0,5.776
2.0,11.0,5.777
1.0,14.0,5.778
21.0,10.0,5.779
46.0,5.0,5.78
43.0,3.0,5.781
1.0,2.0,5.782
-47.0,-3.0,5.783
-75.0,-4.0,5.784
-75.0,4.0,5.785
-55.0,10.0,5.786
-20.0,-1.0,5.787
8.0,-21.0,5.788
5.0,-39.0,5.789
-16.0,-49.0,5.79
-21.0,-54.0,5.791
-4.0,-49.0,5.792
6.0,-35.0,5.793
9.0,-22.0,5.794
25.0,-16.0,5.795
47.0,-12.0,5.796
44.0,-4.0,5.797
9.0,3.0,5.798
-15.0,8.0,5.799
-9.0,13.0,5.8
-1.0,15.0,5.801
-2.0,20.0,5.802
13.0,29.0,5.803
42.0,38.0,5.804
47.0,42.0,5.805
17.0,40.0,5.806
-9.0,21.0,5.807
-11.0,4.0,5.808
-9.0,-9.0,5.809
-16.0,-19.0,5.81
-12.0,-22.0,5.811
7.0,-25.0,5.812
18.0,-25.0,5.813
8.0,-24.0,5.814
-2.0,-25.0,5.815
-3.0,-23.0,5.816
-5.0,-12.0,5.817
-9.0,-1.0,5.818
0.0,5.0,5.819
12.0,8.0,5.82
10.0,12.0,5.821
1.0,21.0,5.822
12.0,27.0,5.823
31.0,25.0,5.824
29.0,20.0,5.825
6.0,16.0,5.826
-8.0,15.0,5.827
-2.0,15.0,5.828
3.0,13.0,5.829
0.0,11.0,5.83
3.0,7.0,5.831
8.0,3.0,5.832
-2.0,3.0,5.833
-18.0,8.0,5.834
-7.0,10.0,5.835
27.0,5.0,5.836
42.0,-1.0,5.837
16.0,-9.0,5.838
-21.0,-11.0,5.839
-34.0,-11.0,5.84
-24.0,-17.0,5.841
-17.0,-22.0,5.842
-13.0,-19.0,5.843
1.0,-10.0,5.844
17.0,-2.0,5.845
10.0,1.0,5.846
-11.0,0.0,5.847
-15.0,0.0,5.848
3.0,2.0,5.849
14.0,0.0,5.85
1.0,-8.0,5.851
-11.0,-19.0,5.852
-5.0,-22.0,5.853
10.0,-19.0,5.854
20.0,-12.0,5.855
28.0,-8.0,5.856
37.0,-5.0,5.857
33.0,-3.0,5.858
20.0,-2.0,5.859
10.0,1.0,5.86
10.0,2.0,5.861
-2.0,3.0,5.862
-27.0,4.0,5.863
-45.0,10.0,5.864
-43.0,17.0,5.865
-32.0,19.0,5.866
-23.0,8.0,5.867
-11.0,-4.0,5.868
-3.0,-3.0,5.869
-5.0,6.0,5.87
-8.0,15.0,5.871
5.0,20.0,5.872
22.0,31.0,5.873
32.0,47.0,5.874
37.0,48.0,5.875
42.0,26.0,5.876
33.0,-3.0,5.877
4.0,-26.0,5.878
-17.0,-41.0,5.879
-6.0,-53.0,5.88
19.0,-58.0,5.881
28.0,-48.0,5.882
16.0,-30.0,5.883
-5.0,-19.0,5.884
-26.0,-14.0,5.885
-38.0,-6.0,5.886
-28.0,5.0,5.887
-6.0,11.0,5.888
7.0,11.0,5.889
5.0,13.0,5.89
8.0,18.0,5.891
21.0,24.0,5.892
27.0,27.0,5.893
21.0,30.0,5.894
15.0,32.0,5.895
7.0,29.0,5.896
-4.0,26.0,5.897
-18.0,21.0,5.898
-9.0,21.0,5.899
21.0,22.0,5.9
50.0,21.0,5.901
58.0,16.0,5.902
48.0,-2.0,5.903
26.0,-31.0,5.904
-10.0,-57.0,5.905
-50.0,-66.0,5.906
-70.0,-58.0,5.907
-58.0,-42.0,5.908
-21.0,-25.0,5.909
15.0,-15.0,5.91
26.0,-13.0,5.911
5.0,-10.0,5.912
-32.0,0.0,5.913
-54.0,13.0,5.914
-44.0,22.0,5.915
-16.0,30.0,5.916
9.0,41.0,5.917
22.0,46.0,5.918
24.0,35.0,5.919
16.0,15.0,5.92
10.0,-5.0,5.921
15.0,-12.0,5.922
23.0,-14.0,5.923
25.0,-11.0,5.924
19.0,0.0,5.925
14.0,15.0,5.926
8.0,25.0,5.927
0.0,21.0,5.928
0.0,10.0,5.929
17.0,0.0,5.93
28.0,-3.0,5.931
12.0,-3.0,5.932
-10.0,-5.0,5.933
-8.0,-13.0,5.934
11.0,-21.0,5.935
17.0,-23.0,5.936
6.0,-22.0,5.937
0.0,-16.0,5.938
8.0,-9.0,5.939
7.0,2.0,5.94
-4.0,7.0,5.941
-7.0,10.0,5.942
7.0,11.0,5.943
17.0,13.0,5.944
12.0,15.0,5.945
4.0,13.0,5.946
5.0,6.0,5.947
9.0,-7.0,5.948
9.0,-23.0,5.949
7.0,-33.0,5.95
7.0,-35.0,5.951
1.0,-32.0,5.952
-9.0,-26.0,5.953
-15.0,-15.0,5.954
-8.0,-4.0,5.955
7.0,1.0,5.956
22.0,3.0,5.957
30.0,3.0,5.958
27.0,9.0,5.959
6.0,10.0,5.96
-19.0,4.0,5.961
-32.0,2.0,5.962
-27.0,8.0,5.963
-21.0,13.0,5.964
-24.0,8.0,5.965
-27.0,0.0,5.966
-20.0,-3.0,5.967
-11.0,-6.0,5.968
-14.0,-13.0,5.969
-21.0,-20.0,5.97
-13.0,-27.0,5.971
4.0,-32.0,5.972
6.0,-34.0,5.973
-8.0,-34.0,5.974
-18.0,-31.0,5.975
-9.0,-33.0,5.976
7.0,-34.0,5.977
17.0,-31.0,5.978
21.0,-21.0,5.979
20.0,-14.0,5.98
26.0,-16.0,5.981
45.0,-13.0,5.982
66.0,-2.0,5.983
56.0,9.0,5.984
6.0,9.0,5.985
-38.0,3.0,5.986
-34.0,3.0,5.987
5.0,10.0,5.988
37.0,11.0,5.989
56.0,-3.0,5.99
70.0,-19.0,5.991
58.0,-25.0,5.992
-6.0,-22.0,5.993
-91.0,-24.0,5.994
-130.0,-30.0,5.995
-112.0,-32.0,5.996
-77.0,-31.0,5.997
-57.0,-41.0,5.998
-40.0,-61.0,5.999
-20.0,-72.0,6.0
-5.0,-66.0,6.001
3.0,-46.0,6.002
20.0,-27.0,6.003
37.0,-10.0,6.004
40.0,4.0,6.005
29.0,7.0,6.006
23.0,0.0,6.007
30.0,-3.0,6.008
35.0,-3.0,6.009
30.0,-9.0,6.01
24.0,-22.0,6.011
21.0,-23.0,6.012
17.0,-6.0,6.013
12.0,9.0,6.014
13.0,15.0,6.015
18.0,19.0,6.016
17.0,27.0,6.017
8.0,25.0,6.018
5.0,13.0,6.019
7.0,1.0,6.02
8.0,-2.0,6.021
2.0,0.0,6.022
6.0,-3.0,6.023
19.0,-5.0,6.024
22.0,-1.0,6.025
10.0,1.0,6.026
-1.0,-1.0,6.027
0.0,-2.0,6.028
10.0,2.0,6.029
9.0,6.0,6.03
2.0,8.0,6.031
2.0,8.0,6.032
7.0,11.0,6.033
12.0,12.0,6.034
10.0,12.0,6.035
6.0,12.0,6.036
6.0,14.0,6.037
7.0,15.0,6.038
10.0,20.0,6.039
4.0,24.0,6.04
-3.0,28.0,6.041
-3.0,31.0,6.042
12.0,33.0,6.043
34.0,36.0,6.044
41.0,40.0,6.045
28.0,44.0,6.046
-3.0,43.0,6.047
-49.0,42.0,6.048
-94.0,43.0,6.049
-96.0,45.0,6.05
-37.0,43.0,6.051
28.0,43.0,6.052
36.0,49.0,6.053
-1.0,55.0,6.054
-19.0,54.0,6.055
1.0,52.0,6.056
22.0,49.0,6.057
19.0,46.0,6.058
20.0,39.0,6.059
36.0,32.0,6.06
46.0,20.0,6.061
37.0,11.0,6.062
27.0,6.0,6.063
17.0,12.0,6.064
-6.0,29.0,6.065
-34.0,51.0,6.066
-23.0,70.0,6.067
25.0,76.0,6.068
52.0,63.0,6.069
25.0,30.0,6.07
-15.0,-2.0,6.071
-20.0,-10.0,6.072
-4.0,2.0,6.073
0.0,9.0,6.074
-4.0,3.0,6.075
1.0,2.0,6.076
11.0,11.0,6.077
8.0,14.0,6.078
0.0,5.0,6.079
1.0,-2.0,6.08
12.0,2.0,6.081
20.0,11.0,6.082
24.0,14.0,6.083
21.0,27.0,6.084
4.0,46.0,6.085
-21.0,56.0,6.086
-36.0,43.0,6.087
-35.0,26.0,6.088
-24.0,24.0,6.089
0.0,31.0,6.09
38.0,32.0,6.091
74.0,25.0,6.092
90.0,20.0,6.093
92.0,13.0,6.094
90.0,-5.0,6.095
69.0,-26.0,6.096
20.0,-36.0,6.097
-29.0,-40.0,6.098
-32.0,-43.0,6.099
-7.0,-48.0,6.1
-22.0,-49.0,6.101
-102.0,-46.0,6.102
-165.0,-45.0,6.103
-130.0,-41.0,6.104
-33.0,-29.0,6.105
22.0,-17.0,6.106
10.0,-15.0,6.107
-9.0,-15.0,6.108
0.0,-6.0,6.109
9.0,0.0,6.11
1.0,-10.0,6.111
-1.0,-25.0,6.112
14.0,-26.0,6.113
23.0,-16.0,6.114
19.0,-20.0,6.115
31.0,-34.0,6.116
64.0,-35.0,6.117
97.0,-25.0,6.118
109.0,-16.0,6.119
99.0,-12.0,6.12
67.0,-2.0,6.121
1.0,17.0,6.122
-87.0,16.0,6.123
-162.0,-4.0,6.124
-182.0,-19.0,6.125
-136.0,-17.0,6.126
-53.0,-14.0,6.127
8.0,-23.0,6.128
12.0,-34.0,6.129
-3.0,-32.0,6.13
13.0,-29.0,6.131
43.0,-30.0,6.132
35.0,-30.0,6.133
1.0,-19.0,6.134
-6.0,-7.0,6.135
20.0,-4.0,6.136
34.0,-11.0,6.137
21.0,-32.0,6.138
14.0,-52.0,6.139
21.0,-59.0,6.14
23.0,-51.0,6.141
15.0,-31.0,6.142
19.0,-12.0,6.143
38.0,4.0,6.144
44.0,12.0,6.145
36.0,2.0,6.146
29.0,-20.0,6.147
22.0,-28.0,6.148
3.0,-9.0,6.149
-15.0,16.0,6.15
-10.0,19.0,6.151
16.0,9.0,6.152
34.0,8.0,6.153
29.0,12.0,6.154
11.0,10.0,6.155
-17.0,0.0,6.156
-53.0,-5.0,6.157
-89.0,-10.0,6.158
-100.0,-19.0,6.159
-80.0,-31.0,6.16
-43.0,-41.0,6.161
-7.0,-43.0,6.162
20.0,-43.0,6.163
33.0,-37.0,6.164
37.0,-16.0,6.165
39.0,5.0,6.166
48.0,14.0,6.167
52.0,13.0,6.168
44.0,18.0,6.169
23.0,30.0,6.17
-1.0,28.0,6.171
-26.0,11.0,6.172
-50.0,-6.0,6.173
-57.0,-14.0,6.174
-35.0,-13.0,6.175
0.0,-8.0,6.176
21.0,-2.0,6.177
19.0,2.0,6.178
7.0,4.0,6.179
-4.0,3.0,6.18
-7.0,0.0,6.181
0.0,-1.0,6.182
18.0,2.0,6.183
28.0,6.0,6.184
18.0,9.0,6.185
-5.0,8.0,6.186
-15.0,2.0,6.187
-13.0,-2.0,6.188
-17.0,-5.0,6.189
-29.0,-2.0,6.19
-29.0,8.0,6.191
-11.0,26.0,6.192
10.0,40.0,6.193
30.0,39.0,6.194
62.0,24.0,6.195
92.0,12.0,6.196
88.0,15.0,6.197
37.0,21.0,6.198
-16.0,11.0,6.199
-38.0,-8.0,6.2
-36.0,-20.0,6.201
-29.0,-16.0,6.202
-11.0,-9.0,6.203
21.0,-10.0,6.204
36.0,-15.0,6.205
14.0,-11.0,6.206
-22.0,-4.0,6.207
-35.0,1.0,6.208
-24.0,6.0,6.209
-7.0,11.0,6.21
6.0,10.0,6.211
14.0,4.0,6.212
9.0,6.0,6.213
0.0,17.0,6.214
1.0,20.0,6.215
15.0,10.0,6.216
26.0,1.0,6.217
27.0,0.0,6.218
25.0,0.0,6.219
23.0,-6.0,6.22
15.0,-9.0,6.221
7.0,-3.0,6.222
18.0,0.0,6.223
29.0,-3.0,6.224
2.0,-3.0,6.225
-54.0,5.0,6.226
-79.0,11.0,6.227
-48.0,6.0,6.228
-20.0,-3.0,6.229
-33.0,-5.0,6.23
-51.0,-6.0,6.231
-28.0,-9.0,6.232
7.0,-9.0,6.233
8.0,2.0,6.234
-9.0,11.0,6.235
-2.0,9.0,6.236
30.0,3.0,6.237
59.0,-7.0,6.238
75.0,-14.0,6.239
83.0,-11.0,6.24
65.0,-2.0,6.241
39.0,10.0,6.242
-13.0,14.0,6.243
-53.0,14.0,6.244
-59.0,19.0,6.245
-54.0,17.0,6.246
-14.0,-4.0,6.247
10.0,-38.0,6.248
-18.0,-60.0,6.249
-34.0,-62.0,6.25
-15.0,-58.0,6.251
-2.0,-56.0,6.252
-14.0,-50.0,6.253
-17.0,-36.0,6.254
8.0,-20.0,6.255
22.0,-11.0,6.256
3.0,-7.0,6.257
-16.0,-5.0,6.258
-30.0,1.0,6.259
-52.0,7.0,6.26
-72.0,8.0,6.261
-46.0,13.0,6.262
28.0,26.0,6.263
86.0,39.0,6.264
90.0,49.0,6.265
81.0,55.0,6.266
98.0,44.0,6.267
112.0,38.0,6.268
78.0,46.0,6.269
15.0,47.0,6.27
-26.0,28.0,6.271
-20.0,12.0,6.272
11.0,9.0,6.273
27.0,3.0,6.274
0.0,-6.0,6.275
-52.0,-15.0,6.276
-86.0,-16.0,6.277
-87.0,-19.0,6.278
-73.0,-24.0,6.279
-47.0,-24.0,6.28
22.0,-20.0,6.281
120.0,-16.0,6.282
169.0,-10.0,6.283
141.0,5.0,6.284
103.0,24.0,6.285
94.0,25.0,6.286
63.0,11.0,6.287
-11.0,4.0,6.288
-58.0,10.0,6.289
-32.0,2.0,6.29
0.0,-24.0,6.291
-13.0,-44.0,6.292
-35.0,-39.0,6.293
-39.0,-19.0,6.294
-71.0,-9.0,6.295
-139.0,-1.0,6.296
-160.0,17.0,6.297
-101.0,36.0,6.298
-39.0,32.0,6.299
-37.0,4.0,6.3
-48.0,-21.0,6.301
-16.0,-19.0,6.302
23.0,-7.0,6.303
19.0,-6.0,6.304
1.0,-14.0,6.305
9.0,-11.0,6.306
21.0,12.0,6.307
11.0,40.0,6.308
-5.0,50.0,6.309
-4.0,40.0,6.31
-10.0,18.0,6.311
-40.0,-1.0,6.312
-75.0,-12.0,6.313
-83.0,-9.0,6.314
-61.0,6.0,6.315
-18.0,24.0,6.316
36.0,33.0,6.317
89.0,30.0,6.318
124.0,23.0,6.319
143.0,13.0,6.32
156.0,-6.0,6.321
142.0,-22.0,6.322
83.0,-27.0,6.323
16.0,-26.0,6.324
-7.0,-32.0,6.325
7.0,-45.0,6.326
21.0,-54.0,6.327
33.0,-51.0,6.328
65.0,-44.0,6.329
89.0,-33.0,6.33
50.0,-20.0,6.331
-35.0,-10.0,6.332
-92.0,-11.0,6.333
-86.0,-16.0,6.334
-57.0,-13.0,6.335
-33.0,-5.0,6.336
4.0,-1.0,6.337
57.0,-4.0,6.338
85.0,-4.0,6.339
48.0,4.0,6.34
-33.0,8.0,6.341
-124.0,11.0,6.342
-196.0,15.0,6.343
-207.0,20.0,6.344
-128.0,24.0,6.345
-6.0,28.0,6.346
60.0,31.0,6.347
36.0,25.0,6.348
-15.0,11.0,6.349
-23.0,3.0,6.35
1.0,8.0,6.351
16.0,17.0,6.352
4.0,19.0,6.353
-12.0,18.0,6.354
-4.0,14.0,6.355
41.0,0.0,6.356
103.0,-22.0,6.357
145.0,-40.0,6.358
136.0,-41.0,6.359
97.0,-31.0,6.36
69.0,-23.0,6.361
46.0,-6.0,6.362
7.0,16.0,6.363
-26.0,25.0,6.364
-21.0,4.0,6.365
-1.0,-21.0,6.366
-16.0,-20.0,6.367
-57.0,8.0,6.368
-61.0,33.0,6.369
-14.0,31.0,6.37
32.0,13.0,6.371
35.0,3.0,6.372
9.0,11.0,6.373
-4.0,19.0,6.374
-1.0,20.0,6.375
-15.0,15.0,6.376
-55.0,14.0,6.377
-84.0,6.0,6.378
-41.0,-8.0,6.379
55.0,-14.0,6.38
112.0,-7.0,6.381
95.0,7.0,6.382
78.0,12.0,6.383
106.0,8.0,6.384
95.0,2.0,6.385
-37.0,-8.0,6.386
-201.0,-20.0,6.387
-245.0,-26.0,6.388
-157.0,-22.0,6.389
-66.0,-18.0,6.39
-43.0,-21.0,6.391
-37.0,-19.0,6.392
-13.0,-7.0,6.393
-9.0,8.0,6.394
-45.0,11.0,6.395
-69.0,9.0,6.396
-50.0,12.0,6.397
-8.0,14.0,6.398
23.0,1.0,6.399
44.0,-23.0,6.4
70.0,-35.0,6.401
99.0,-20.0,6.402
130.0,4.0,6.403
155.0,17.0,6.404
152.0,20.0,6.405
112.0,24.0,6.406
74.0,26.0,6.407
73.0,27.0,6.408
78.0,31.0,6.409
52.0,28.0,6.41
10.0,8.0,6.411
-9.0,-16.0,6.412
-16.0,-20.0,6.413
-44.0,-1.0,6.414
-84.0,10.0,6.415
-89.0,-2.0,6.416
-58.0,-17.0,6.417
-28.0,-21.0,6.418
-21.0,-17.0,6.419
-20.0,-10.0,6.42
-12.0,5.0,6.421
-13.0,31.0,6.422
-26.0,41.0,6.423
-34.0,18.0,6.424
-26.0,-17.0,6.425
-18.0,-38.0,6.426
-18.0,-39.0,6.427
-11.0,-32.0,6.428
8.0,-23.0,6.429
18.0,-18.0,6.43
5.0,-17.0,6.431
-10.0,-22.0,6.432
-2.0,-26.0,6.433
33.0,-23.0,6.434
77.0,-13.0,6.435
100.0,1.0,6.436
75.0,14.0,6.437
1.0,12.0,6.438
-68.0,0.0,6.439
-111.0,-7.0,6.44
-73.0,-4.0,6.441
-38.0,7.0,6.442
-12.0,12.0,6.443
12.0,14.0,6.444
31.0,21.0,6.445
41.0,25.0,6.446
22.0,16.0,6.447
8.0,5.0,6.448
8.0,5.0,6.449
8.0,14.0,6.45
15.0,20.0,6.451
24.0,17.0,6.452
38.0,21.0,6.453
46.0,33.0,6.454
32.0,36.0,6.455
25.0,21.0,6.456
38.0,0.0,6.457
47.0,-16.0,6.458
24.0,-19.0,6.459
-11.0,-21.0,6.46
-21.0,-33.0,6.461
-5.0,-39.0,6.462
16.0,-37.0,6.463
24.0,-36.0,6.464
7.0,-42.0,6.465
-44.0,-46.0,6.466
-104.0,-37.0,6.467
-117.0,-17.0,6.468
-72.0,4.0,6.469
-17.0,33.0,6.47
-1.0,76.0,6.471
-14.0,123.0,6.472
-25.0,155.0,6.473
-30.0,155.0,6.474
-41.0,131.0,6.475
-44.0,89.0,6.476
-16.0,35.0,6.477
45.0,-43.0,6.478
97.0,-120.0,6.479
92.0,-168.0,6.48
50.0,-182.0,6.481
26.0,-168.0,6.482
45.0,-147.0,6.483
69.0,-123.0,6.484
54.0,-93.0,6.485
15.0,-55.0,6.486
-5.0,-22.0,6.487
0.0,-4.0,6.488
8.0,6.0,6.489
1.0,14.0,6.49
-9.0,22.0,6.491
-18.0,23.0,6.492
-25.0,19.0,6.493
-25.0,17.0,6.494
-4.0,19.0,6.495
25.0,15.0,6.496
40.0,10.0,6.497
38.0,12.0,6.498
27.0,22.0,6.499
12.0,32.0,6.5
-13.0,37.0,6.501
-36.0,46.0,6.502
-37.0,56.0,6.503
-13.0,52.0,6.504
15.0,38.0,6.505
29.0,26.0,6.506
26.0,27.0,6.507
9.0,31.0,6.508
-20.0,36.0,6.509
-49.0,43.0,6.51
-68.0,61.0,6.511
-65.0,84.0,6.512
-40.0,109.0,6.513
6.0,137.0,6.514
50.0,161.0,6.515
63.0,162.0,6.516
44.0,135.0,6.517
19.0,71.0,6.518
17.0,-13.0,6.519
15.0,-100.0,6.52
16.0,-174.0,6.521
14.0,-213.0,6.522
0.0,-225.0,6.523
-4.0,-223.0,6.524
20.0,-212.0,6.525
38.0,-186.0,6.526
37.0,-139.0,6.527
25.0,-87.0,6.528
-18.0,-46.0,6.529
-46.0,-19.0,6.53
-28.0,1.0,6.531
-18.0,16.0,6.532
-37.0,29.0,6.533
-51.0,57.0,6.534
-46.0,121.0,6.535
-38.0,208.0,6.536
-21.0,264.0,6.537
-7.0,242.0,6.538
-5.0,161.0,6.539
3.0,75.0,6.54
7.0,-26.0,6.541
4.0,-111.0,6.542
11.0,-149.0,6.543
33.0,-171.0,6.544
51.0,-140.0,6.545
51.0,-112.0,6.546
36.0,-97.0,6.547
22.0,-80.0,6.548
7.0,-57.0,6.549
-14.0,-39.0,6.55
-28.0,-37.0,6.551
-17.0,-30.0,6.552
13.0,-8.0,6.553
34.0,15.0,6.554
25.0,41.0,6.555
-6.0,61.0,6.556
-28.0,61.0,6.557
-34.0,60.0,6.558
-24.0,63.0,6.559
-7.0,76.0,6.56
15.0,81.0,6.561
31.0,72.0,6.562
35.0,49.0,6.563
31.0,29.0,6.564
27.0,18.0,6.565
23.0,16.0,6.566
16.0,19.0,6.567
10.0,27.0,6.568
10.0,31.0,6.569
15.0,21.0,6.57
13.0,0.0,6.571
0.0,-19.0,6.572
-7.0,-27.0,6.573
0.0,-26.0,6.574
10.0,-18.0,6.575
0.0,-6.0,6.576
-23.0,-4.0,6.577
-32.0,-22.0,6.578
-19.0,-46.0,6.579
-8.0,-56.0,6.58
-24.0,-50.0,6.581
-42.0,-31.0,6.582
-21.0,-9.0,6.583
36.0,8.0,6.584
89.0,11.0,6.585
99.0,6.0,6.586
66.0,5.0,6.587
11.0,13.0,6.588
-36.0,19.0,6.589
-61.0,15.0,6.59
-62.0,9.0,6.591
-45.0,10.0,6.592
-16.0,11.0,6.593
19.0,3.0,6.594
43.0,-7.0,6.595
47.0,-2.0,6.596
48.0,11.0,6.597
55.0,19.0,6.598
38.0,18.0,6.599
-23.0,26.0,6.6
-89.0,46.0,6.601
-105.0,61.0,6.602
-60.0,50.0,6.603
11.0,17.0,6.604
76.0,-8.0,6.605
100.0,-16.0,6.606
62.0,-23.0,6.607
-11.0,-36.0,6.608
-63.0,-46.0,6.609
-72.0,-47.0,6.61
-70.0,-47.0,6.611
-70.0,-48.0,6.612
-42.0,-35.0,6.613
10.0,-13.0,6.614
31.0,-3.0,6.615
11.0,-11.0,6.616
0.0,-21.0,6.617
17.0,-22.0,6.618
27.0,-10.0,6.619
3.0,6.0,6.62
-10.0,25.0,6.621
21.0,41.0,6.622
65.0,38.0,6.623
73.0,19.0,6.624
47.0,2.0,6.625
26.0,6.0,6.626
27.0,17.0,6.627
40.0,22.0,6.628
37.0,20.0,6.629
3.0,18.0,6.63
-44.0,16.0,6.631
-61.0,2.0,6.632
-37.0,-15.0,6.633
-6.0,-22.0,6.634
2.0,-12.0,6.635
-3.0,5.0,6.636
-5.0,23.0,6.637
1.0,35.0,6.638
15.0,44.0,6.639
27.0,43.0,6.64
25.0,28.0,6.641
-2.0,6.0,6.642
-29.0,-12.0,6.643
-33.0,-24.0,6.644
-23.0,-33.0,6.645
-14.0,-38.0,6.646
3.0,-38.0,6.647
31.0,-31.0,6.648
35.0,-21.0,6.649
0.0,-9.0,6.65
-25.0,5.0,6.651
3.0,20.0,6.652
59.0,22.0,6.653
89.0,7.0,6.654
91.0,-21.0,6.655
82.0,-52.0,6.656
56.0,-73.0,6.657
-18.0,-82.0,6.658
-107.0,-84.0,6.659
-159.0,-83.0,6.66
-151.0,-79.0,6.661
-101.0,-67.0,6.662
-38.0,-43.0,6.663
3.0,-6.0,6.664
12.0,37.0,6.665
4.0,72.0,6.666
-1.0,81.0,6.667
-6.0,66.0,6.668
-11.0,55.0,6.669
8.0,55.0,6.67
58.0,46.0,6.671
97.0,22.0,6.672
85.0,-1.0,6.673
39.0,-13.0,6.674
6.0,-27.0,6.675
5.0,-47.0,6.676
19.0,-49.0,6.677
22.0,-15.0,6.678
14.0,35.0,6.679
5.0,64.0,6.68
13.0,62.0,6.681
30.0,52.0,6.682
40.0,41.0,6.683
27.0,28.0,6.684
-1.0,20.0,6.685
-31.0,21.0,6.686
-48.0,21.0,6.687
-43.0,10.0,6.688
-23.0,-3.0,6.689
-8.0,0.0,6.69
0.0,13.0,6.691
23.0,19.0,6.692
62.0,12.0,6.693
81.0,2.0,6.694
65.0,-5.0,6.695
45.0,-13.0,6.696
48.0,-16.0,6.697
53.0,-17.0,6.698
29.0,-17.0,6.699
-21.0,-16.0,6.7
-66.0,-16.0,6.701
-82.0,-10.0,6.702
-76.0,-5.0,6.703
-74.0,-3.0,6.704
-94.0,0.0,6.705
-109.0,4.0,6.706
-71.0,1.0,6.707
5.0,-11.0,6.708
43.0,-27.0,6.709
20.0,-40.0,6.71
0.0,-48.0,6.711
27.0,-48.0,6.712
44.0,-38.0,6.713
14.0,-21.0,6.714
-18.0,-11.0,6.715
-4.0,-14.0,6.716
20.0,-22.0,6.717
2.0,-31.0,6.718
-32.0,-32.0,6.719
-29.0,-17.0,6.72
7.0,10.0,6.721
30.0,40.0,6.722
28.0,55.0,6.723
26.0,57.0,6.724
34.0,52.0,6.725
40.0,47.0,6.726
42.0,34.0,6.727
44.0,20.0,6.728
36.0,15.0,6.729
5.0,12.0,6.73
-31.0,1.0,6.731
-37.0,-13.0,6.732
-3.0,-21.0,6.733
35.0,-18.0,6.734
36.0,-14.0,6.735
11.0,-16.0,6.736
6.0,-16.0,6.737
39.0,-12.0,6.738
85.0,-10.0,6.739
96.0,-13.0,6.74
56.0,-23.0,6.741
-22.0,-26.0,6.742
-97.0,-22.0,6.743
-129.0,-13.0,6.744
-102.0,-3.0,6.745
-46.0,8.0,6.746
-10.0,18.0,6.747
-8.0,23.0,6.748
-16.0,21.0,6.749
-8.0,17.0,6.75
9.0,12.0,6.751
19.0,1.0,6.752
19.0,-10.0,6.753
16.0,-14.0,6.754
18.0,-4.0,6.755
27.0,8.0,6.756
38.0,12.0,6.757
43.0,8.0,6.758
37.0,7.0,6.759
26.0,9.0,6.76
14.0,15.0,6.761
5.0,30.0,6.762
1.0,44.0,6.763
6.0,43.0,6.764
9.0,30.0,6.765
-12.0,9.0,6.766
-46.0,-5.0,6.767
-63.0,-12.0,6.768
-53.0,-13.0,6.769
-32.0,-12.0,6.77
-19.0,-12.0,6.771
-7.0,-19.0,6.772
7.0,-31.0,6.773
15.0,-40.0,6.774
15.0,-38.0,6.775
15.0,-33.0,6.776
16.0,-31.0,6.777
14.0,-36.0,6.778
1.0,-36.0,6.779
-13.0,-30.0,6.78
-12.0,-27.0,6.781
14.0,-34.0,6.782
59.0,-43.0,6.783
82.0,-36.0,6.784
49.0,-6.0,6.785
-12.0,33.0,6.786
-30.0,63.0,6.787
15.0,70.0,6.788
55.0,61.0,6.789
30.0,47.0,6.79
-30.0,32.0,6.791
-61.0,21.0,6.792
-54.0,18.0,6.793
-39.0,24.0,6.794
-25.0,27.0,6.795
-2.0,18.0,6.796
16.0,7.0,6.797
11.0,0.0,6.798
0.0,-2.0,6.799
10.0,-9.0,6.8
28.0,-19.0,6.801
25.0,-19.0,6.802
7.0,-6.0,6.803
-1.0,3.0,6.804
-6.0,0.0,6.805
-12.0,-11.0,6.806
-7.0,-21.0,6.807
19.0,-27.0,6.808
37.0,-24.0,6.809
29.0,-13.0,6.81
18.0,-2.0,6.811
22.0,-1.0,6.812
18.0,-6.0,6.813
-16.0,-4.0,6.814
-53.0,4.0,6.815
-55.0,6.0,6.816
-19.0,1.0,6.817
22.0,-6.0,6.818
44.0,-7.0,6.819
40.0,-10.0,6.82
9.0,-16.0,6.821
-37.0,-18.0,6.822
-65.0,-14.0,6.823
-50.0,-8.0,6.824
-10.0,3.0,6.825
18.0,15.0,6.826
16.0,18.0,6.827
3.0,6.0,6.828
6.0,-8.0,6.829
21.0,-9.0,6.83
27.0,-3.0,6.831
13.0,-2.0,6.832
-5.0,-3.0,6.833
-4.0,1.0,6.834
11.0,8.0,6.835
22.0,8.0,6.836
20.0,3.0,6.837
12.0,0.0,6.838
7.0,7.0,6.839
4.0,12.0,6.84
-2.0,8.0,6.841
-3.0,2.0,6.842
9.0,4.0,6.843
20.0,15.0,6.844
13.0,24.0,6.845
-5.0,24.0,6.846
-9.0,10.0,6.847
5.0,-3.0,6.848
17.0,-6.0,6.849
14.0,-4.0,6.85
13.0,0.0,6.851
24.0,6.0,6.852
30.0,11.0,6.853
19.0,11.0,6.854
2.0,6.0,6.855
-1.0,-1.0,6.856
-4.0,-6.0,6.857
-19.0,-11.0,6.858
-36.0,-21.0,6.859
-33.0,-33.0,6.86
-17.0,-46.0,6.861
-8.0,-49.0,6.862
-4.0,-34.0,6.863
3.0,-10.0,6.864
7.0,8.0,6.865
2.0,9.0,6.866
1.0,3.0,6.867
22.0,1.0,6.868
45.0,3.0,6.869
45.0,3.0,6.87
32.0,3.0,6.871
23.0,6.0,6.872
10.0,7.0,6.873
-20.0,1.0,6.874
-46.0,-6.0,6.875
-41.0,-5.0,6.876
-24.0,-1.0,6.877
-33.0,-5.0,6.878
-58.0,-14.0,6.879
-60.0,-15.0,6.88
-27.0,-8.0,6.881
7.0,5.0,6.882
21.0,14.0,6.883
32.0,17.0,6.884
49.0,18.0,6.885
50.0,18.0,6.886
21.0,15.0,6.887
-8.0,7.0,6.888
-14.0,-5.0,6.889
1.0,-15.0,6.89
12.0,-17.0,6.891
4.0,-15.0,6.892
-15.0,-14.0,6.893
-20.0,-12.0,6.894
4.0,-8.0,6.895
31.0,-2.0,6.896
20.0,1.0,6.897
-20.0,1.0,6.898
-32.0,8.0,6.899
-34.0,18.0,6.9
-2.0,13.0,6.901
24.0,-1.0,6.902
30.0,-2.0,6.903
32.0,17.0,6.904
19.0,35.0,6.905
9.0,32.0,6.906
13.0,21.0,6.907
16.0,20.0,6.908
16.0,27.0,6.909
14.0,25.0,6.91
10.0,13.0,6.911
7.0,0.0,6.912
8.0,-8.0,6.913
10.0,-15.0,6.914
12.0,-17.0,6.915
13.0,-10.0,6.916
11.0,-3.0,6.917
7.0,-6.0,6.918
4.0,-7.0,6.919
10.0,-9.0,6.92
8.0,-9.0,6.921
0.0,-10.0,6.922
0.0,-10.0,6.923
7.0,-9.0,6.924
4.0,-5.0,6.925
-5.0,-1.0,6.926
0.0,0.0,6.927
21.0,0.0,6.928
35.0,-5.0,6.929
28.0,-9.0,6.93
8.0,-7.0,6.931
-15.0,-4.0,6.932
-32.0,-2.0,6.933
-32.0,-1.0,6.934
-11.0,-5.0,6.935
13.0,-8.0,6.936
17.0,-6.0,6.937
0.0,-5.0,6.938
-13.0,-5.0,6.939
-9.0,0.0,6.94
-4.0,2.0,6.941
-26.0,2.0,6.942
-72.0,-3.0,6.943
-101.0,-6.0,6.944
-75.0,-4.0,6.945
1.0,1.0,6.946
72.0,3.0,6.947
88.0,4.0,6.948
43.0,2.0,6.949
-18.0,1.0,6.95
-43.0,0.0,6.951
-29.0,-3.0,6.952
-10.0,-9.0,6.953
-6.0,-15.0,6.954
-2.0,-15.0,6.955
15.0,-9.0,6.956
30.0,0.0,6.957
27.0,10.0,6.958
18.0,13.0,6.959
13.0,7.0,6.96
7.0,-10.0,6.961
4.0,-16.0,6.962
12.0,-1.0,6.963
26.0,28.0,6.964
30.0,48.0,6.965
20.0,50.0,6.966
14.0,37.0,6.967
17.0,21.0,6.968
15.0,15.0,6.969
6.0,18.0,6.97
6.0,23.0,6.971
19.0,23.0,6.972
24.0,18.0,6.973
4.0,12.0,6.974
-24.0,2.0,6.975
-31.0,-15.0,6.976
-13.0,-37.0,6.977
8.0,-56.0,6.978
9.0,-60.0,6.979
-3.0,-50.0,6.98
2.0,-38.0,6.981
23.0,-29.0,6.982
28.0,-20.0,6.983
7.0,-8.0,6.984
-16.0,2.0,6.985
-23.0,8.0,6.986
-21.0,7.0,6.987
-16.0,5.0,6.988
-3.0,8.0,6.989
14.0,11.0,6.99
18.0,14.0,6.991
11.0,19.0,6.992
12.0,24.0,6.993
18.0,21.0,6.994
15.0,6.0,6.995
2.0,-9.0,6.996
-4.0,-20.0,6.997
-5.0,-27.0,6.998
-11.0,-29.0,6.999
-20.0,-24.0,7.0
-20.0,-15.0,7.001
-5.0,-5.0,7.002
15.0,0.0,7.003
33.0,6.0,7.004
40.0,11.0,7.005
20.0,13.0,7.006
-24.0,9.0,7.007
-57.0,7.0,7.008
-53.0,10.0,7.009
-21.0,14.0,7.01
2.0,11.0,7.011
0.0,5.0,7.012
-6.0,0.0,7.013
1.0,0.0,7.014
13.0,2.0,7.015
13.0,8.0,7.016
10.0,20.0,7.017
12.0,26.0,7.018
16.0,19.0,7.019
7.0,3.0,7.02
0.0,-13.0,7.021
5.0,-20.0,7.022
18.0,-20.0,7.023
19.0,-18.0,7.024
14.0,-6.0,7.025
14.0,15.0,7.026
17.0,39.0,7.027
13.0,47.0,7.028
13.0,33.0,7.029
35.0,8.0,7.03
72.0,-10.0,7.031
93.0,-15.0,7.032
80.0,-19.0,7.033
48.0,-30.0,7.034
7.0,-43.0,7.035
-51.0,-47.0,7.036
-118.0,-39.0,7.037
-153.0,-32.0,7.038
-108.0,-28.0,7.039
-21.0,-25.0,7.04
16.0,-21.0,7.041
-21.0,-17.0,7.042
-60.0,-16.0,7.043
-50.0,-14.0,7.044
-21.0,-9.0,7.045
-10.0,-5.0,7.046
2.0,-6.0,7.047
29.0,-9.0,7.048
44.0,-12.0,7.049
32.0,-16.0,7.05
18.0,-27.0,7.051
20.0,-40.0,7.052
20.0,-40.0,7.053
7.0,-25.0,7.054
-1.0,1.0,7.055
12.0,31.0,7.056
26.0,52.0,7.057
34.0,52.0,7.058
32.0,29.0,7.059
25.0,-1.0,7.06
13.0,-21.0,7.061
10.0,-19.0,7.062
22.0,-15.0,7.063
31.0,-15.0,7.064
21.0,-20.0,7.065
4.0,-28.0,7.066
2.0,-41.0,7.067
9.0,-53.0,7.068
4.0,-54.0,7.069
-7.0,-42.0,7.07
-10.0,-35.0,7.071
-4.0,-34.0,7.072
-2.0,-30.0,7.073
0.0,-24.0,7.074
10.0,-20.0,7.075
17.0,-21.0,7.076
16.0,-18.0,7.077
4.0,-12.0,7.078
5.0,-5.0,7.079
15.0,1.0,7.08
9.0,4.0,7.081
-26.0,5.0,7.082
-60.0,3.0,7.083
-58.0,7.0,7.084
-27.0,14.0,7.085
-2.0,17.0,7.086
-1.0,13.0,7.087
-6.0,10.0,7.088
0.0,12.0,7.089
5.0,9.0,7.09
-3.0,1.0,7.091
-15.0,-1.0,7.092
-10.0,4.0,7.093
10.0,5.0,7.094
25.0,-6.0,7.095
24.0,-20.0,7.096
19.0,-27.0,7.097
15.0,-32.0,7.098
14.0,-31.0,7.099
5.0,-17.0,7.1
-6.0,4.0,7.101
-2.0,19.0,7.102
25.0,17.0,7.103
54.0,8.0,7.104
49.0,7.0,7.105
9.0,10.0,7.106
-30.0,10.0,7.107
-41.0,8.0,7.108
-40.0,13.0,7.109
-49.0,26.0,7.11
-51.0,34.0,7.111
-11.0,33.0,7.112
57.0,25.0,7.113
97.0,15.0,7.114
87.0,13.0,7.115
63.0,16.0,7.116
55.0,19.0,7.117
39.0,18.0,7.118
-8.0,20.0,7.119
-61.0,24.0,7.12
-75.0,20.0,7.121
-49.0,13.0,7.122
-17.0,9.0,7.123
6.0,15.0,7.124
21.0,30.0,7.125
22.0,47.0,7.126
5.0,56.0,7.127
-11.0,57.0,7.128
-4.0,54.0,7.129
12.0,49.0,7.13
14.0,46.0,7.131
7.0,45.0,7.132
6.0,39.0,7.133
11.0,31.0,7.134
10.0,24.0,7.135
7.0,25.0,7.136
15.0,32.0,7.137
19.0,37.0,7.138
10.0,42.0,7.139
-5.0,47.0,7.14
-10.0,48.0,7.141
-5.0,44.0,7.142
4.0,34.0,7.143
10.0,30.0,7.144
13.0,37.0,7.145
9.0,49.0,7.146
2.0,55.0,7.147
1.0,51.0,7.148
3.0,48.0,7.149
5.0,45.0,7.15
2.0,39.0,7.151
3.0,25.0,7.152
7.0,12.0,7.153
11.0,5.0,7.154
10.0,-6.0,7.155
9.0,-24.0,7.156
7.0,-39.0,7.157
-1.0,-42.0,7.158
-9.0,-29.0,7.159
-8.0,-16.0,7.16
-2.0,-11.0,7.161
6.0,-4.0,7.162
16.0,7.0,7.163
23.0,15.0,7.164
18.0,17.0,7.165
7.0,15.0,7.166
0.0,16.0,7.167
-8.0,16.0,7.168
-21.0,9.0,7.169
-20.0,0.0,7.17
15.0,-9.0,7.171
60.0,-11.0,7.172
66.0,-12.0,7.173
26.0,-16.0,7.174
-18.0,-21.0,7.175
-46.0,-25.0,7.176
-64.0,-23.0,7.177
-82.0,-17.0,7.178
-77.0,-11.0,7.179
-37.0,-5.0,7.18
6.0,-4.0,7.181
11.0,-2.0,7.182
-20.0,0.0,7.183
-42.0,-1.0,7.184
-22.0,-3.0,7.185
16.0,-5.0,7.186
33.0,-9.0,7.187
21.0,-17.0,7.188
0.0,-31.0,7.189
-8.0,-47.0,7.19
1.0,-60.0,7.191
40.0,-66.0,7.192
92.0,-62.0,7.193
107.0,-43.0,7.194
55.0,-14.0,7.195
-18.0,13.0,7.196
-37.0,29.0,7.197
-11.0,24.0,7.198
2.0,5.0,7.199
-11.0,-14.0,7.2
-1.0,-25.0,7.201
51.0,-19.0,7.202
89.0,-12.0,7.203
69.0,-22.0,7.204
20.0,-39.0,7.205
-8.0,-46.0,7.206
-15.0,-41.0,7.207
-23.0,-34.0,7.208
-35.0,-29.0,7.209
-37.0,-19.0,7.21
-25.0,-3.0,7.211
-14.0,3.0,7.212
-12.0,-4.0,7.213
-15.0,-17.0,7.214
-12.0,-23.0,7.215
1.0,-18.0,7.216
18.0,-13.0,7.217
23.0,-15.0,7.218
17.0,-15.0,7.219
10.0,-5.0,7.22
-3.0,7.0,7.221
-11.0,11.0,7.222
-4.0,0.0,7.223
1.0,-9.0,7.224
-3.0,-9.0,7.225
-8.0,-5.0,7.226
-16.0,-8.0,7.227
-22.0,-13.0,7.228
-19.0,-12.0,7.229
-17.0,-10.0,7.23
-16.0,-13.0,7.231
-14.0,-13.0,7.232
-12.0,-6.0,7.233
-8.0,0.0,7.234
1.0,-1.0,7.235
9.0,-4.0,7.236
11.0,2.0,7.237
9.0,6.0,7.238
-8.0,4.0,7.239
-18.0,2.0,7.24
-20.0,-3.0,7.241
-22.0,-6.0,7.242
-20.0,-4.0,7.243
-8.0,-2.0,7.244
14.0,-4.0,7.245
35.0,-10.0,7.246
48.0,-24.0,7.247
49.0,-36.0,7.248
40.0,-42.0,7.249
28.0,-43.0,7.25
13.0,-28.0,7.251
-11.0,-16.0,7.252
-33.0,-15.0,7.253
-30.0,-15.0,7.254
-6.0,-21.0,7.255
-15.0,-27.0,7.256
-69.0,-26.0,7.257
-100.0,-20.0,7.258
-32.0,-2.0,7.259
69.0,15.0,7.26
82.0,20.0,7.261
15.0,19.0,7.262
-5.0,25.0,7.263
59.0,32.0,7.264
101.0,29.0,7.265
66.0,16.0,7.266
22.0,9.0,7.267
16.0,12.0,7.268
-8.0,13.0,7.269
-73.0,5.0,7.27
-106.0,1.0,7.271
-69.0,12.0,7.272
-28.0,28.0,7.273
-30.0,34.0,7.274
-28.0,33.0,7.275
12.0,39.0,7.276
47.0,47.0,7.277
42.0,40.0,7.278
39.0,30.0,7.279
66.0,23.0,7.28
86.0,24.0,7.281
68.0,20.0,7.282
35.0,2.0,7.283
18.0,-12.0,7.284
-3.0,-13.0,7.285
-36.0,-12.0,7.286
-49.0,-4.0,7.287
-28.0,6.0,7.288
-4.0,24.0,7.289
-1.0,35.0,7.29
-6.0,25.0,7.291
-5.0,14.0,7.292
-5.0,3.0,7.293
-7.0,-6.0,7.294
-3.0,-9.0,7.295
0.0,-12.0,7.296
-8.0,-11.0,7.297
-25.0,-10.0,7.298
-26.0,-11.0,7.299
-15.0,-20.0,7.3
-11.0,-29.0,7.301
-17.0,-26.0,7.302
-3.0,-19.0,7.303
34.0,-16.0,7.304
69.0,-14.0,7.305
79.0,-7.0,7.306
64.0,1.0,7.307
34.0,6.0,7.308
1.0,6.0,7.309
-26.0,1.0,7.31
-42.0,-1.0,7.311
-42.0,5.0,7.312
-34.0,17.0,7.313
-47.0,27.0,7.314
-88.0,25.0,7.315
-125.0,20.0,7.316
-108.0,22.0,7.317
-31.0,20.0,7.318
54.0,6.0,7.319
123.0,-20.0,7.32
144.0,-45.0,7.321
161.0,-52.0,7.322
163.0,-54.0,7.323
150.0,-58.0,7.324
90.0,-55.0,7.325
25.0,-43.0,7.326
-52.0,-30.0,7.327
-109.0,-23.0,7.328
-105.0,-13.0,7.329
-90.0,5.0,7.33
-42.0,20.0,7.331
-7.0,20.0,7.332
-13.0,10.0,7.333
-19.0,10.0,7.334
-20.0,15.0,7.335
-21.0,18.0,7.336
-23.0,11.0,7.337
-28.0,7.0,7.338
-34.0,13.0,7.339
-26.0,22.0,7.34
-12.0,23.0,7.341
2.0,23.0,7.342
21.0,21.0,7.343
39.0,12.0,7.344
47.0,-3.0,7.345
42.0,-10.0,7.346
43.0,0.0,7.347
56.0,20.0,7.348
54.0,28.0,7.349
14.0,20.0,7.35
-42.0,4.0,7.351
-69.0,-3.0,7.352
-68.0,-3.0,7.353
-62.0,-4.0,7.354
-50.0,-7.0,7.355
-7.0,-8.0,7.356
50.0,1.0,7.357
75.0,9.0,7.358
57.0,9.0,7.359
35.0,9.0,7.36
1.0,8.0,7.361
-31.0,7.0,7.362
-60.0,11.0,7.363
-78.0,11.0,7.364
-62.0,-1.0,7.365
-48.0,-10.0,7.366
-41.0,-8.0,7.367
-25.0,-4.0,7.368
14.0,5.0,7.369
49.0,26.0,7.37
70.0,75.0,7.371
93.0,117.0,7.372
121.0,137.0,7.373
140.0,133.0,7.374
130.0,56.0,7.375
110.0,-19.0,7.376
64.0,-88.0,7.377
12.0,-150.0,7.378
-68.0,-177.0,7.379
-161.0,-184.0,7.38
-218.0,-166.0,7.381
-196.0,-122.0,7.382
-114.0,-78.0,7.383
-40.0,-57.0,7.384
-13.0,-49.0,7.385
-5.0,-31.0,7.386
11.0,-4.0,7.387
33.0,25.0,7.388
57.0,66.0,7.389
99.0,133.0,7.39
143.0,205.0,7.391
145.0,226.0,7.392
96.0,161.0,7.393
30.0,46.0,7.394
-18.0,-58.0,7.395
-31.0,-122.0,7.396
-4.0,-157.0,7.397
52.0,-172.0,7.398
83.0,-147.0,7.399
51.0,-86.0,7.4
-8.0,-34.0,7.401
-48.0,-16.0,7.402
-81.0,-16.0,7.403
-130.0,-11.0,7.404
-144.0,2.0,7.405
-77.0,12.0,7.406
21.0,16.0,7.407
70.0,25.0,7.408
65.0,39.0,7.409
50.0,50.0,7.41
28.0,50.0,7.411
-14.0,36.0,7.412
-47.0,19.0,7.413
-42.0,18.0,7.414
-23.0,33.0,7.415
-22.0,42.0,7.416
-32.0,38.0,7.417
-59.0,26.0,7.418
-99.0,22.0,7.419
-107.0,15.0,7.42
-31.0,1.0,7.421
90.0,-1.0,7.422
153.0,22.0,7.423
124.0,48.0,7.424
76.0,54.0,7.425
55.0,38.0,7.426
38.0,21.0,7.427
8.0,8.0,7.428
-12.0,0.0,7.429
-12.0,-2.0,7.43
-11.0,1.0,7.431
-14.0,5.0,7.432
-10.0,2.0,7.433
-5.0,-6.0,7.434
-8.0,-12.0,7.435
-10.0,-16.0,7.436
-3.0,-21.0,7.437
1.0,-24.0,7.438
0.0,-21.0,7.439
0.0,-20.0,7.44
-1.0,-28.0,7.441
-16.0,-36.0,7.442
-31.0,-39.0,7.443
-14.0,-29.0,7.444
35.0,-6.0,7.445
82.0,30.0,7.446
