Deltoid,Bicep,Time
0.0,-9.0,0.0
-4.0,-11.0,0.001
-6.0,-11.0,0.002
0.0,-8.0,0.003
11.0,-7.0,0.004
12.0,-3.0,0.005
8.0,-1.0,0.006
4.0,-1.0,0.007
9.0,-2.0,0.008
10.0,-5.0,0.009
5.0,-6.0,0.01
2.0,-8.0,0.011
4.0,-10.0,0.012
5.0,-11.0,0.013
2.0,-12.0,0.014
1.0,-13.0,0.015
4.0,-15.0,0.016
7.0,-15.0,0.017
4.0,-15.0,0.018
3.0,-15.0,0.019
1.0,-13.0,0.02
-3.0,-12.0,0.021
-5.0,-8.0,0.022
-1.0,-4.0,0.023
3.0,-2.0,0.024
3.0,1.0,0.025
3.0,7.0,0.026
-1.0,9.0,0.027
-3.0,7.0,0.028
-1.0,4.0,0.029
0.0,4.0,0.03
0.0,5.0,0.031
1.0,3.0,0.032
1.0,1.0,0.033
1.0,1.0,0.034
1.0,1.0,0.035
2.0,-1.0,0.036
5.0,-2.0,0.037
7.0,-5.0,0.038
6.0,-5.0,0.039
1.0,-4.0,0.04
-4.0,-4.0,0.041
-7.0,0.0,0.042
-2.0,5.0,0.043
7.0,9.0,0.044
10.0,9.0,0.045
5.0,8.0,0.046
0.0,9.0,0.047
1.0,11.0,0.048
6.0,10.0,0.049
7.0,8.0,0.05
3.0,4.0,0.051
1.0,3.0,0.052
1.0,3.0,0.053
4.0,5.0,0.054
6.0,5.0,0.055
7.0,4.0,0.056
8.0,4.0,0.057
10.0,2.0,0.058
9.0,-1.0,0.059
2.0,-2.0,0.06
-5.0,-2.0,0.061
-7.0,2.0,0.062
0.0,4.0,0.063
6.0,4.0,0.064
8.0,4.0,0.065
4.0,5.0,0.066
2.0,5.0,0.067
3.0,3.0,0.068
2.0,2.0,0.069
-3.0,1.0,0.07
-6.0,2.0,0.071
-3.0,-1.0,0.072
3.0,-2.0,0.073
3.0,-2.0,0.074
1.0,-1.0,0.075
4.0,-1.0,0.076
10.0,-2.0,0.077
10.0,-4.0,0.078
2.0,-5.0,0.079
-7.0,-6.0,0.08
-8.0,-6.0,0.081
-2.0,-1.0,0.082
2.0,2.0,0.083
4.0,3.0,0.084
3.0,6.0,0.085
4.0,8.0,0.086
5.0,6.0,0.087
5.0,2.0,0.088
4.0,2.0,0.089
3.0,5.0,0.09
3.0,5.0,0.091
1.0,-1.0,0.092
0.0,-2.0,0.093
0.0,1.0,0.094
3.0,1.0,0.095
4.0,-1.0,0.096
5.0,-1.0,0.097
3.0,-1.0,0.098
3.0,1.0,0.099
0.0,-2.0,0.1
-5.0,-5.0,0.101
-6.0,-3.0,0.102
2.0,-1.0,0.103
12.0,-1.0,0.104
13.0,0.0,0.105
5.0,5.0,0.106
-1.0,10.0,0.107
0.0,6.0,0.108
3.0,2.0,0.109
3.0,1.0,0.11
0.0,3.0,0.111
2.0,0.0,0.112
4.0,-5.0,0.113
4.0,-5.0,0.114
1.0,-1.0,0.115
1.0,-1.0,0.116
4.0,-2.0,0.117
6.0,-6.0,0.118
2.0,-5.0,0.119
-4.0,-3.0,0.12
-8.0,-5.0,0.121
-4.0,-3.0,0.122
0.0,0.0,0.123
7.0,6.0,0.124
7.0,9.0,0.125
2.0,8.0,0.126
0.0,5.0,0.127
3.0,0.0,0.128
3.0,-2.0,0.129
0.0,1.0,0.13
-3.0,3.0,0.131
-3.0,1.0,0.132
-3.0,-2.0,0.133
-2.0,-2.0,0.134
2.0,-2.0,0.135
7.0,-4.0,0.136
10.0,-8.0,0.137
7.0,-10.0,0.138
3.0,-8.0,0.139
1.0,-6.0,0.14
-2.0,-8.0,0.141
-2.0,-5.0,0.142
3.0,1.0,0.143
9.0,6.0,0.144
9.0,6.0,0.145
3.0,5.0,0.146
1.0,4.0,0.147
3.0,4.0,0.148
6.0,5.0,0.149
4.0,5.0,0.15
3.0,2.0,0.151
3.0,-3.0,0.152
1.0,-4.0,0.153
0.0,-3.0,0.154
1.0,-3.0,0.155
4.0,-4.0,0.156
6.0,-4.0,0.157
2.0,-4.0,0.158
0.0,-3.0,0.159
-3.0,-4.0,0.16
-5.0,-4.0,0.161
-9.0,-1.0,0.162
-5.0,2.0,0.163
3.0,2.0,0.164
8.0,3.0,0.165
4.0,5.0,0.166
0.0,5.0,0.167
0.0,3.0,0.168
0.0,3.0,0.169
-1.0,4.0,0.17
0.0,3.0,0.171
4.0,-2.0,0.172
6.0,-7.0,0.173
5.0,-8.0,0.174
3.0,-9.0,0.175
5.0,-8.0,0.176
8.0,-5.0,0.177
7.0,-2.0,0.178
5.0,-2.0,0.179
2.0,-5.0,0.18
-2.0,-9.0,0.181
-7.0,-7.0,0.182
-4.0,-3.0,0.183
3.0,0.0,0.184
8.0,4.0,0.185
2.0,10.0,0.186
-3.0,11.0,0.187
-3.0,8.0,0.188
0.0,2.0,0.189
1.0,1.0,0.19
0.0,1.0,0.191
4.0,0.0,0.192
8.0,-2.0,0.193
6.0,-1.0,0.194
3.0,0.0,0.195
3.0,1.0,0.196
7.0,4.0,0.197
6.0,2.0,0.198
2.0,0.0,0.199
-3.0,-2.0,0.2
-4.0,-6.0,0.201
-2.0,-6.0,0.202
5.0,-3.0,0.203
11.0,-1.0,0.204
13.0,3.0,0.205
8.0,7.0,0.206
0.0,7.0,0.207
-1.0,5.0,0.208
1.0,6.0,0.209
2.0,6.0,0.21
3.0,1.0,0.211
6.0,-1.0,0.212
9.0,-3.0,0.213
6.0,-2.0,0.214
1.0,-5.0,0.215
0.0,-8.0,0.216
3.0,-8.0,0.217
6.0,-6.0,0.218
4.0,-6.0,0.219
-1.0,-6.0,0.22
-3.0,-8.0,0.221
-3.0,-6.0,0.222
1.0,-2.0,0.223
6.0,1.0,0.224
6.0,7.0,0.225
2.0,11.0,0.226
1.0,10.0,0.227
2.0,5.0,0.228
4.0,-1.0,0.229
2.0,0.0,0.23
0.0,4.0,0.231
-1.0,5.0,0.232
0.0,0.0,0.233
1.0,-5.0,0.234
4.0,-4.0,0.235
3.0,0.0,0.236
3.0,0.0,0.237
0.0,-5.0,0.238
0.0,-6.0,0.239
-2.0,-4.0,0.24
-5.0,-3.0,0.241
-6.0,-4.0,0.242
-2.0,-3.0,0.243
7.0,0.0,0.244
11.0,5.0,0.245
8.0,4.0,0.246
3.0,2.0,0.247
1.0,2.0,0.248
1.0,3.0,0.249
0.0,0.0,0.25
0.0,-4.0,0.251
2.0,-5.0,0.252
6.0,-3.0,0.253
7.0,-2.0,0.254
5.0,-5.0,0.255
2.0,-4.0,0.256
5.0,1.0,0.257
5.0,0.0,0.258
3.0,-4.0,0.259
0.0,-8.0,0.26
-2.0,-8.0,0.261
-1.0,-4.0,0.262
1.0,-4.0,0.263
5.0,-4.0,0.264
7.0,0.0,0.265
6.0,5.0,0.266
2.0,5.0,0.267
-1.0,1.0,0.268
-3.0,-1.0,0.269
-3.0,2.0,0.27
-3.0,4.0,0.271
-2.0,4.0,0.272
2.0,1.0,0.273
6.0,-4.0,0.274
11.0,-9.0,0.275
13.0,-10.0,0.276
12.0,-4.0,0.277
6.0,-1.0,0.278
2.0,-1.0,0.279
1.0,0.0,0.28
0.0,-1.0,0.281
1.0,-2.0,0.282
4.0,0.0,0.283
10.0,1.0,0.284
11.0,5.0,0.285
4.0,8.0,0.286
0.0,7.0,0.287
1.0,5.0,0.288
3.0,2.0,0.289
2.0,-1.0,0.29
1.0,-1.0,0.291
1.0,-1.0,0.292
2.0,-2.0,0.293
0.0,-4.0,0.294
-2.0,-3.0,0.295
0.0,-2.0,0.296
4.0,-1.0,0.297
3.0,0.0,0.298
0.0,-1.0,0.299
-5.0,-4.0,0.3
-8.0,-8.0,0.301
-7.0,-6.0,0.302
0.0,0.0,0.303
10.0,4.0,0.304
10.0,6.0,0.305
3.0,7.0,0.306
-1.0,6.0,0.307
1.0,4.0,0.308
4.0,2.0,0.309
3.0,2.0,0.31
2.0,2.0,0.311
5.0,0.0,0.312
6.0,-2.0,0.313
5.0,-2.0,0.314
4.0,-1.0,0.315
4.0,-1.0,0.316
4.0,-1.0,0.317
1.0,-1.0,0.318
0.0,0.0,0.319
0.0,0.0,0.32
0.0,-3.0,0.321
1.0,-3.0,0.322
6.0,-2.0,0.323
12.0,0.0,0.324
12.0,3.0,0.325
4.0,7.0,0.326
-1.0,6.0,0.327
0.0,3.0,0.328
3.0,1.0,0.329
4.0,1.0,0.33
2.0,1.0,0.331
0.0,-2.0,0.332
-1.0,-5.0,0.333
-1.0,-4.0,0.334
1.0,-4.0,0.335
6.0,-5.0,0.336
9.0,-5.0,0.337
6.0,-6.0,0.338
0.0,-5.0,0.339
-4.0,-5.0,0.34
-8.0,-7.0,0.341
-6.0,-5.0,0.342
3.0,-2.0,0.343
12.0,1.0,0.344
15.0,2.0,0.345
7.0,1.0,0.346
1.0,0.0,0.347
1.0,0.0,0.348
2.0,2.0,0.349
1.0,4.0,0.35
0.0,1.0,0.351
2.0,-2.0,0.352
4.0,-5.0,0.353
3.0,-5.0,0.354
1.0,-1.0,0.355
1.0,-1.0,0.356
1.0,-1.0,0.357
-1.0,-4.0,0.358
0.0,-5.0,0.359
2.0,-1.0,0.36
1.0,-3.0,0.361
-5.0,-5.0,0.362
-5.0,-2.0,0.363
4.0,4.0,0.364
12.0,9.0,0.365
6.0,7.0,0.366
-3.0,3.0,0.367
-1.0,1.0,0.368
4.0,2.0,0.369
2.0,3.0,0.37
-1.0,1.0,0.371
1.0,-1.0,0.372
6.0,-2.0,0.373
3.0,-3.0,0.374
-1.0,-5.0,0.375
0.0,-6.0,0.376
4.0,-5.0,0.377
0.0,-5.0,0.378
-4.0,-7.0,0.379
-4.0,-7.0,0.38
-1.0,-7.0,0.381
-1.0,-5.0,0.382
1.0,-1.0,0.383
7.0,3.0,0.384
11.0,6.0,0.385
5.0,8.0,0.386
0.0,5.0,0.387
1.0,1.0,0.388
8.0,1.0,0.389
8.0,2.0,0.39
6.0,2.0,0.391
8.0,-1.0,0.392
9.0,-5.0,0.393
8.0,-4.0,0.394
7.0,-4.0,0.395
7.0,-5.0,0.396
7.0,-3.0,0.397
1.0,-5.0,0.398
2.0,-6.0,0.399
4.0,-5.0,0.4
3.0,-5.0,0.401
-1.0,-2.0,0.402
0.0,0.0,0.403
8.0,3.0,0.404
13.0,6.0,0.405
7.0,7.0,0.406
1.0,5.0,0.407
1.0,4.0,0.408
3.0,7.0,0.409
2.0,10.0,0.41
3.0,6.0,0.411
5.0,-1.0,0.412
5.0,-2.0,0.413
1.0,1.0,0.414
-2.0,0.0,0.415
1.0,-4.0,0.416
3.0,-3.0,0.417
0.0,-2.0,0.418
-4.0,0.0,0.419
-8.0,-1.0,0.42
-8.0,-5.0,0.421
-4.0,-4.0,0.422
2.0,-1.0,0.423
7.0,2.0,0.424
6.0,8.0,0.425
0.0,10.0,0.426
-2.0,7.0,0.427
2.0,3.0,0.428
6.0,3.0,0.429
4.0,5.0,0.43
0.0,1.0,0.431
0.0,-2.0,0.432
0.0,-2.0,0.433
-1.0,-1.0,0.434
-2.0,-5.0,0.435
0.0,-11.0,0.436
1.0,-11.0,0.437
4.0,-7.0,0.438
5.0,-5.0,0.439
3.0,-6.0,0.44
0.0,-9.0,0.441
-2.0,-4.0,0.442
0.0,-1.0,0.443
5.0,-3.0,0.444
6.0,0.0,0.445
5.0,5.0,0.446
1.0,5.0,0.447
3.0,0.0,0.448
6.0,-1.0,0.449
6.0,4.0,0.45
4.0,5.0,0.451
3.0,-3.0,0.452
2.0,-9.0,0.453
4.0,-7.0,0.454
6.0,-4.0,0.455
7.0,-4.0,0.456
9.0,-7.0,0.457
5.0,-6.0,0.458
3.0,-4.0,0.459
1.0,-4.0,0.46
0.0,-6.0,0.461
-1.0,-5.0,0.462
4.0,-2.0,0.463
8.0,1.0,0.464
5.0,8.0,0.465
3.0,13.0,0.466
4.0,12.0,0.467
5.0,8.0,0.468
4.0,4.0,0.469
2.0,4.0,0.47
0.0,1.0,0.471
-2.0,-2.0,0.472
0.0,-2.0,0.473
2.0,0.0,0.474
2.0,-2.0,0.475
2.0,-6.0,0.476
4.0,-5.0,0.477
6.0,-4.0,0.478
2.0,-4.0,0.479
-2.0,-5.0,0.48
-4.0,-5.0,0.481
-5.0,-5.0,0.482
0.0,-3.0,0.483
9.0,0.0,0.484
11.0,4.0,0.485
3.0,7.0,0.486
0.0,7.0,0.487
5.0,5.0,0.488
7.0,3.0,0.489
2.0,0.0,0.49
-2.0,-3.0,0.491
1.0,-6.0,0.492
6.0,-5.0,0.493
6.0,-4.0,0.494
2.0,-2.0,0.495
2.0,-1.0,0.496
3.0,-2.0,0.497
2.0,-3.0,0.498
0.0,0.0,0.499
-1.0,-2.0,0.5
-2.0,-8.0,0.501
-3.0,-8.0,0.502
1.0,-5.0,0.503
5.0,0.0,0.504
5.0,4.0,0.505
5.0,6.0,0.506
5.0,6.0,0.507
5.0,4.0,0.508
5.0,4.0,0.509
5.0,5.0,0.51
3.0,4.0,0.511
1.0,1.0,0.512
2.0,-2.0,0.513
3.0,-2.0,0.514
3.0,0.0,0.515
2.0,-1.0,0.516
3.0,-1.0,0.517
5.0,-2.0,0.518
2.0,-1.0,0.519
-1.0,1.0,0.52
-5.0,0.0,0.521
-8.0,-1.0,0.522
-3.0,-2.0,0.523
6.0,0.0,0.524
10.0,5.0,0.525
5.0,8.0,0.526
1.0,7.0,0.527
1.0,4.0,0.528
6.0,4.0,0.529
8.0,4.0,0.53
7.0,1.0,0.531
5.0,-5.0,0.532
1.0,-7.0,0.533
0.0,-5.0,0.534
1.0,-4.0,0.535
3.0,-4.0,0.536
6.0,-5.0,0.537
7.0,-6.0,0.538
7.0,-6.0,0.539
1.0,-5.0,0.54
-3.0,-6.0,0.541
-5.0,-3.0,0.542
0.0,-2.0,0.543
8.0,0.0,0.544
5.0,5.0,0.545
1.0,7.0,0.546
-1.0,4.0,0.547
0.0,0.0,0.548
1.0,2.0,0.549
0.0,7.0,0.55
0.0,7.0,0.551
2.0,0.0,0.552
4.0,-4.0,0.553
5.0,-3.0,0.554
3.0,-1.0,0.555
2.0,-2.0,0.556
3.0,-4.0,0.557
3.0,-5.0,0.558
2.0,-4.0,0.559
0.0,-3.0,0.56
-3.0,-4.0,0.561
-2.0,-4.0,0.562
5.0,-1.0,0.563
9.0,3.0,0.564
4.0,5.0,0.565
-2.0,4.0,0.566
-2.0,4.0,0.567
4.0,5.0,0.568
6.0,4.0,0.569
4.0,3.0,0.57
1.0,1.0,0.571
3.0,1.0,0.572
3.0,-2.0,0.573
1.0,-6.0,0.574
-2.0,-8.0,0.575
0.0,-8.0,0.576
6.0,-7.0,0.577
8.0,-7.0,0.578
5.0,-6.0,0.579
1.0,-3.0,0.58
-2.0,-3.0,0.581
-4.0,-5.0,0.582
1.0,-4.0,0.583
6.0,0.0,0.584
4.0,5.0,0.585
3.0,6.0,0.586
2.0,3.0,0.587
1.0,2.0,0.588
2.0,2.0,0.589
4.0,3.0,0.59
4.0,0.0,0.591
3.0,-2.0,0.592
6.0,-3.0,0.593
8.0,-5.0,0.594
5.0,-6.0,0.595
2.0,-4.0,0.596
5.0,-2.0,0.597
7.0,-2.0,0.598
7.0,-7.0,0.599
0.0,-6.0,0.6
-5.0,-5.0,0.601
-7.0,-3.0,0.602
-3.0,-2.0,0.603
5.0,1.0,0.604
9.0,5.0,0.605
6.0,8.0,0.606
0.0,5.0,0.607
1.0,1.0,0.608
4.0,0.0,0.609
4.0,1.0,0.61
0.0,0.0,0.611
0.0,-2.0,0.612
2.0,-1.0,0.613
5.0,1.0,0.614
6.0,2.0,0.615
5.0,-1.0,0.616
5.0,-2.0,0.617
0.0,-4.0,0.618
-1.0,-2.0,0.619
-3.0,-1.0,0.62
-4.0,-3.0,0.621
-3.0,-4.0,0.622
4.0,-2.0,0.623
9.0,2.0,0.624
6.0,4.0,0.625
3.0,7.0,0.626
2.0,8.0,0.627
1.0,6.0,0.628
3.0,1.0,0.629
4.0,1.0,0.63
2.0,3.0,0.631
1.0,2.0,0.632
2.0,-3.0,0.633
4.0,-6.0,0.634
4.0,-4.0,0.635
3.0,-2.0,0.636
6.0,-2.0,0.637
8.0,-6.0,0.638
3.0,-6.0,0.639
0.0,-5.0,0.64
-2.0,-3.0,0.641
-4.0,0.0,0.642
-1.0,1.0,0.643
5.0,4.0,0.644
10.0,5.0,0.645
5.0,6.0,0.646
2.0,4.0,0.647
5.0,2.0,0.648
6.0,0.0,0.649
2.0,-1.0,0.65
-3.0,0.0,0.651
-3.0,1.0,0.652
-1.0,-3.0,0.653
1.0,-6.0,0.654
1.0,-5.0,0.655
1.0,-4.0,0.656
3.0,-5.0,0.657
1.0,-5.0,0.658
1.0,-3.0,0.659
0.0,-1.0,0.66
-1.0,-6.0,0.661
-1.0,-7.0,0.662
4.0,-2.0,0.663
9.0,5.0,0.664
5.0,11.0,0.665
2.0,13.0,0.666
0.0,13.0,0.667
-1.0,10.0,0.668
0.0,7.0,0.669
2.0,6.0,0.67
2.0,10.0,0.671
2.0,13.0,0.672
2.0,12.0,0.673
3.0,9.0,0.674
3.0,7.0,0.675
3.0,7.0,0.676
2.0,6.0,0.677
0.0,1.0,0.678
3.0,-1.0,0.679
2.0,1.0,0.68
-2.0,0.0,0.681
-9.0,0.0,0.682
-6.0,2.0,0.683
7.0,4.0,0.684
15.0,4.0,0.685
10.0,5.0,0.686
1.0,6.0,0.687
0.0,5.0,0.688
2.0,2.0,0.689
2.0,0.0,0.69
1.0,0.0,0.691
1.0,-2.0,0.692
0.0,-8.0,0.693
0.0,-9.0,0.694
0.0,-8.0,0.695
3.0,-6.0,0.696
2.0,-8.0,0.697
0.0,-11.0,0.698
3.0,-13.0,0.699
4.0,-11.0,0.7
0.0,-13.0,0.701
-4.0,-11.0,0.702
0.0,-7.0,0.703
9.0,-3.0,0.704
9.0,0.0,0.705
1.0,3.0,0.706
0.0,2.0,0.707
6.0,-2.0,0.708
6.0,-6.0,0.709
0.0,-6.0,0.71
-1.0,-4.0,0.711
4.0,-5.0,0.712
8.0,-9.0,0.713
3.0,-12.0,0.714
0.0,-13.0,0.715
2.0,-14.0,0.716
9.0,-16.0,0.717
9.0,-17.0,0.718
3.0,-15.0,0.719
-3.0,-13.0,0.72
-6.0,-15.0,0.721
-5.0,-16.0,0.722
0.0,-13.0,0.723
4.0,-8.0,0.724
3.0,-2.0,0.725
0.0,1.0,0.726
0.0,1.0,0.727
4.0,-3.0,0.728
4.0,-6.0,0.729
2.0,-6.0,0.73
1.0,-7.0,0.731
3.0,-9.0,0.732
6.0,-9.0,0.733
4.0,-6.0,0.734
2.0,-3.0,0.735
3.0,-3.0,0.736
5.0,-3.0,0.737
4.0,-5.0,0.738
3.0,-6.0,0.739
1.0,-6.0,0.74
-3.0,-4.0,0.741
-5.0,1.0,0.742
3.0,4.0,0.743
9.0,4.0,0.744
8.0,8.0,0.745
6.0,10.0,0.746
4.0,8.0,0.747
2.0,4.0,0.748
5.0,3.0,0.749
7.0,5.0,0.75
4.0,2.0,0.751
2.0,-2.0,0.752
3.0,1.0,0.753
4.0,6.0,0.754
3.0,4.0,0.755
1.0,-2.0,0.756
0.0,-1.0,0.757
-3.0,3.0,0.758
-4.0,5.0,0.759
-3.0,0.0,0.76
-3.0,-4.0,0.761
-3.0,-2.0,0.762
1.0,1.0,0.763
7.0,4.0,0.764
7.0,9.0,0.765
0.0,13.0,0.766
-3.0,12.0,0.767
0.0,8.0,0.768
5.0,8.0,0.769
4.0,7.0,0.77
0.0,3.0,0.771
1.0,-2.0,0.772
4.0,-1.0,0.773
3.0,2.0,0.774
1.0,1.0,0.775
2.0,-2.0,0.776
5.0,-1.0,0.777
7.0,0.0,0.778
2.0,-3.0,0.779
-4.0,-5.0,0.78
-7.0,-6.0,0.781
-3.0,-1.0,0.782
5.0,2.0,0.783
10.0,5.0,0.784
11.0,7.0,0.785
6.0,8.0,0.786
2.0,6.0,0.787
1.0,4.0,0.788
2.0,4.0,0.789
4.0,2.0,0.79
6.0,0.0,0.791
4.0,0.0,0.792
1.0,0.0,0.793
0.0,-1.0,0.794
5.0,-3.0,0.795
7.0,-2.0,0.796
6.0,1.0,0.797
2.0,-1.0,0.798
1.0,-2.0,0.799
0.0,0.0,0.8
-6.0,0.0,0.801
-7.0,1.0,0.802
1.0,2.0,0.803
12.0,2.0,0.804
11.0,3.0,0.805
0.0,2.0,0.806
-2.0,4.0,0.807
2.0,8.0,0.808
3.0,9.0,0.809
1.0,5.0,0.81
0.0,0.0,0.811
5.0,0.0,0.812
6.0,0.0,0.813
3.0,-4.0,0.814
1.0,-6.0,0.815
0.0,-5.0,0.816
0.0,-3.0,0.817
0.0,-6.0,0.818
2.0,-7.0,0.819
3.0,-4.0,0.82
-2.0,-2.0,0.821
-5.0,-3.0,0.822
-1.0,-3.0,0.823
3.0,-1.0,0.824
3.0,2.0,0.825
4.0,6.0,0.826
4.0,5.0,0.827
4.0,3.0,0.828
4.0,2.0,0.829
3.0,3.0,0.83
3.0,1.0,0.831
3.0,-4.0,0.832
3.0,-7.0,0.833
3.0,-6.0,0.834
3.0,-4.0,0.835
3.0,-4.0,0.836
3.0,-5.0,0.837
2.0,-4.0,0.838
2.0,-1.0,0.839
1.0,0.0,0.84
-3.0,-3.0,0.841
-4.0,0.0,0.842
1.0,4.0,0.843
9.0,7.0,0.844
9.0,8.0,0.845
2.0,10.0,0.846
-1.0,11.0,0.847
0.0,9.0,0.848
0.0,4.0,0.849
-1.0,1.0,0.85
-1.0,1.0,0.851
6.0,1.0,0.852
9.0,-1.0,0.853
4.0,-2.0,0.854
0.0,-1.0,0.855
1.0,-1.0,0.856
5.0,0.0,0.857
4.0,-3.0,0.858
0.0,-2.0,0.859
-5.0,0.0,0.86
-8.0,0.0,0.861
-7.0,3.0,0.862
-1.0,7.0,0.863
6.0,10.0,0.864
10.0,11.0,0.865
6.0,11.0,0.866
3.0,8.0,0.867
4.0,4.0,0.868
5.0,2.0,0.869
2.0,1.0,0.87
1.0,0.0,0.871
2.0,-4.0,0.872
4.0,-6.0,0.873
4.0,-6.0,0.874
3.0,-5.0,0.875
5.0,-6.0,0.876
7.0,-4.0,0.877
7.0,-4.0,0.878
3.0,-4.0,0.879
-1.0,-4.0,0.88
-5.0,-8.0,0.881
-4.0,-9.0,0.882
0.0,-8.0,0.883
6.0,-2.0,0.884
6.0,3.0,0.885
2.0,4.0,0.886
0.0,0.0,0.887
1.0,-3.0,0.888
1.0,-4.0,0.889
2.0,-2.0,0.89
0.0,-2.0,0.891
1.0,-4.0,0.892
1.0,-5.0,0.893
3.0,-7.0,0.894
3.0,-9.0,0.895
4.0,-10.0,0.896
6.0,-8.0,0.897
3.0,-6.0,0.898
2.0,-6.0,0.899
0.0,-5.0,0.9
-1.0,-6.0,0.901
-3.0,-5.0,0.902
1.0,-4.0,0.903
5.0,-2.0,0.904
5.0,2.0,0.905
5.0,5.0,0.906
3.0,5.0,0.907
2.0,1.0,0.908
2.0,-2.0,0.909
2.0,-3.0,0.91
2.0,-2.0,0.911
3.0,-6.0,0.912
2.0,-7.0,0.913
1.0,-6.0,0.914
2.0,-5.0,0.915
3.0,-7.0,0.916
2.0,-9.0,0.917
3.0,-8.0,0.918
2.0,-5.0,0.919
0.0,-4.0,0.92
-1.0,-7.0,0.921
-3.0,-4.0,0.922
1.0,3.0,0.923
5.0,6.0,0.924
5.0,7.0,0.925
5.0,8.0,0.926
3.0,11.0,0.927
2.0,6.0,0.928
2.0,-1.0,0.929
2.0,-1.0,0.93
2.0,4.0,0.931
3.0,4.0,0.932
2.0,-2.0,0.933
1.0,-6.0,0.934
2.0,-4.0,0.935
3.0,-2.0,0.936
2.0,-1.0,0.937
1.0,-3.0,0.938
1.0,-3.0,0.939
-2.0,-2.0,0.94
-4.0,-2.0,0.941
-1.0,-1.0,0.942
7.0,2.0,0.943
13.0,5.0,0.944
10.0,7.0,0.945
0.0,9.0,0.946
-5.0,7.0,0.947
-1.0,6.0,0.948
2.0,4.0,0.949
2.0,3.0,0.95
2.0,3.0,0.951
5.0,2.0,0.952
7.0,0.0,0.953
3.0,-3.0,0.954
2.0,-3.0,0.955
6.0,-4.0,0.956
10.0,-5.0,0.957
7.0,-5.0,0.958
1.0,-1.0,0.959
-2.0,0.0,0.96
-1.0,-3.0,0.961
-1.0,-2.0,0.962
2.0,2.0,0.963
10.0,4.0,0.964
13.0,5.0,0.965
8.0,6.0,0.966
-1.0,7.0,0.967
-2.0,5.0,0.968
1.0,2.0,0.969
2.0,0.0,0.97
-3.0,-2.0,0.971
-6.0,-5.0,0.972
-3.0,-4.0,0.973
1.0,-2.0,0.974
4.0,-2.0,0.975
6.0,-6.0,0.976
7.0,-7.0,0.977
2.0,-4.0,0.978
-1.0,2.0,0.979
-4.0,5.0,0.98
-5.0,-1.0,0.981
-4.0,-4.0,0.982
1.0,-1.0,0.983
6.0,2.0,0.984
4.0,5.0,0.985
3.0,8.0,0.986
3.0,8.0,0.987
2.0,5.0,0.988
1.0,0.0,0.989
0.0,-2.0,0.99
0.0,0.0,0.991
0.0,1.0,0.992
1.0,0.0,0.993
3.0,-4.0,0.994
2.0,-7.0,0.995
1.0,-8.0,0.996
4.0,-6.0,0.997
7.0,-4.0,0.998
3.0,-3.0,0.999
-1.0,-5.0,1.0
-2.0,-8.0,1.001
-1.0,-7.0,1.002
6.0,-4.0,1.003
12.0,-1.0,1.004
13.0,4.0,1.005
8.0,10.0,1.006
4.0,12.0,1.007
7.0,9.0,1.008
9.0,3.0,1.009
9.0,0.0,1.01
6.0,-3.0,1.011
7.0,-5.0,1.012
8.0,-6.0,1.013
6.0,-3.0,1.014
4.0,-3.0,1.015
3.0,-4.0,1.016
1.0,-5.0,1.017
1.0,-5.0,1.018
3.0,-2.0,1.019
2.0,-3.0,1.02
-2.0,-7.0,1.021
-4.0,-2.0,1.022
0.0,4.0,1.023
8.0,6.0,1.024
9.0,6.0,1.025
4.0,8.0,1.026
2.0,10.0,1.027
4.0,7.0,1.028
2.0,1.0,1.029
-3.0,0.0,1.03
-5.0,1.0,1.031
-1.0,-1.0,1.032
0.0,-3.0,1.033
-1.0,-3.0,1.034
-2.0,-2.0,1.035
1.0,-5.0,1.036
4.0,-5.0,1.037
0.0,-4.0,1.038
-4.0,0.0,1.039
-8.0,-2.0,1.04
-11.0,-6.0,1.041
-10.0,-2.0,1.042
-2.0,4.0,1.043
5.0,5.0,1.044
6.0,5.0,1.045
0.0,8.0,1.046
-1.0,11.0,1.047
3.0,8.0,1.048
6.0,2.0,1.049
3.0,-2.0,1.05
0.0,-2.0,1.051
1.0,-3.0,1.052
3.0,-5.0,1.053
2.0,-5.0,1.054
2.0,-3.0,1.055
7.0,-4.0,1.056
12.0,-6.0,1.057
8.0,-7.0,1.058
2.0,-6.0,1.059
-3.0,-3.0,1.06
-4.0,-3.0,1.061
-5.0,-3.0,1.062
0.0,-1.0,1.063
4.0,-1.0,1.064
5.0,1.0,1.065
6.0,4.0,1.066
4.0,5.0,1.067
3.0,2.0,1.068
4.0,-3.0,1.069
5.0,-5.0,1.07
5.0,-4.0,1.071
4.0,-4.0,1.072
5.0,-7.0,1.073
6.0,-9.0,1.074
6.0,-8.0,1.075
5.0,-6.0,1.076
7.0,-4.0,1.077
9.0,-4.0,1.078
5.0,-1.0,1.079
1.0,1.0,1.08
-3.0,-1.0,1.081
-1.0,-3.0,1.082
4.0,-1.0,1.083
9.0,5.0,1.084
8.0,9.0,1.085
2.0,7.0,1.086
1.0,4.0,1.087
3.0,2.0,1.088
4.0,0.0,1.089
1.0,0.0,1.09
0.0,1.0,1.091
3.0,0.0,1.092
9.0,-4.0,1.093
5.0,-6.0,1.094
0.0,-6.0,1.095
-2.0,-7.0,1.096
3.0,-8.0,1.097
8.0,-8.0,1.098
5.0,-4.0,1.099
-2.0,1.0,1.1
-6.0,-1.0,1.101
-4.0,-2.0,1.102
2.0,0.0,1.103
7.0,2.0,1.104
8.0,1.0,1.105
5.0,2.0,1.106
1.0,4.0,1.107
-1.0,5.0,1.108
-1.0,3.0,1.109
-1.0,2.0,1.11
0.0,0.0,1.111
1.0,-1.0,1.112
1.0,-6.0,1.113
3.0,-5.0,1.114
6.0,0.0,1.115
6.0,1.0,1.116
5.0,1.0,1.117
3.0,-2.0,1.118
4.0,-2.0,1.119
0.0,-3.0,1.12
-7.0,-7.0,1.121
-7.0,-5.0,1.122
2.0,0.0,1.123
13.0,4.0,1.124
7.0,6.0,1.125
-1.0,5.0,1.126
-2.0,3.0,1.127
3.0,2.0,1.128
5.0,4.0,1.129
2.0,6.0,1.13
1.0,2.0,1.131
5.0,-4.0,1.132
7.0,-4.0,1.133
5.0,-1.0,1.134
4.0,0.0,1.135
6.0,-5.0,1.136
7.0,-5.0,1.137
4.0,-3.0,1.138
1.0,-1.0,1.139
-1.0,-3.0,1.14
-2.0,-7.0,1.141
-3.0,-6.0,1.142
2.0,0.0,1.143
7.0,3.0,1.144
5.0,4.0,1.145
3.0,6.0,1.146
1.0,5.0,1.147
-1.0,0.0,1.148
-1.0,-3.0,1.149
0.0,-1.0,1.15
1.0,2.0,1.151
3.0,1.0,1.152
3.0,-2.0,1.153
2.0,-4.0,1.154
3.0,-5.0,1.155
5.0,-4.0,1.156
4.0,0.0,1.157
3.0,0.0,1.158
3.0,0.0,1.159
3.0,-3.0,1.16
1.0,-4.0,1.161
0.0,-1.0,1.162
3.0,2.0,1.163
5.0,4.0,1.164
3.0,4.0,1.165
0.0,5.0,1.166
2.0,4.0,1.167
4.0,2.0,1.168
2.0,3.0,1.169
0.0,5.0,1.17
2.0,5.0,1.171
6.0,2.0,1.172
6.0,-1.0,1.173
3.0,0.0,1.174
3.0,1.0,1.175
4.0,0.0,1.176
3.0,-2.0,1.177
-1.0,-5.0,1.178
-2.0,-5.0,1.179
-3.0,-2.0,1.18
-5.0,-4.0,1.181
-5.0,-4.0,1.182
-2.0,-4.0,1.183
6.0,2.0,1.184
7.0,9.0,1.185
1.0,11.0,1.186
-1.0,7.0,1.187
1.0,2.0,1.188
4.0,0.0,1.189
2.0,-1.0,1.19
2.0,-3.0,1.191
5.0,-2.0,1.192
6.0,-3.0,1.193
3.0,-5.0,1.194
2.0,-7.0,1.195
4.0,-7.0,1.196
6.0,-4.0,1.197
2.0,-3.0,1.198
-1.0,-3.0,1.199
-4.0,-3.0,1.2
-5.0,-6.0,1.201
-7.0,-5.0,1.202
-3.0,-3.0,1.203
6.0,0.0,1.204
9.0,5.0,1.205
6.0,9.0,1.206
3.0,6.0,1.207
3.0,0.0,1.208
3.0,-1.0,1.209
2.0,4.0,1.21
2.0,4.0,1.211
2.0,-5.0,1.212
3.0,-10.0,1.213
5.0,-7.0,1.214
7.0,-1.0,1.215
6.0,-1.0,1.216
3.0,-2.0,1.217
-1.0,-2.0,1.218
-1.0,0.0,1.219
-1.0,0.0,1.22
-5.0,-5.0,1.221
-7.0,-6.0,1.222
0.0,-3.0,1.223
5.0,1.0,1.224
5.0,4.0,1.225
5.0,6.0,1.226
1.0,7.0,1.227
-3.0,5.0,1.228
-1.0,3.0,1.229
0.0,3.0,1.23
1.0,2.0,1.231
3.0,0.0,1.232
4.0,0.0,1.233
5.0,0.0,1.234
9.0,-4.0,1.235
11.0,-8.0,1.236
9.0,-8.0,1.237
5.0,-4.0,1.238
4.0,-1.0,1.239
0.0,-1.0,1.24
-6.0,-5.0,1.241
-9.0,-5.0,1.242
0.0,-3.0,1.243
13.0,0.0,1.244
16.0,3.0,1.245
6.0,5.0,1.246
0.0,6.0,1.247
1.0,4.0,1.248
3.0,2.0,1.249
1.0,0.0,1.25
0.0,-1.0,1.251
2.0,-4.0,1.252
4.0,-6.0,1.253
3.0,-5.0,1.254
4.0,-5.0,1.255
4.0,-5.0,1.256
3.0,-2.0,1.257
3.0,-2.0,1.258
2.0,-3.0,1.259
0.0,-5.0,1.26
-3.0,-9.0,1.261
-4.0,-6.0,1.262
2.0,-1.0,1.263
8.0,4.0,1.264
8.0,6.0,1.265
4.0,4.0,1.266
2.0,1.0,1.267
4.0,1.0,1.268
4.0,2.0,1.269
3.0,2.0,1.27
2.0,-2.0,1.271
0.0,-5.0,1.272
1.0,-6.0,1.273
2.0,-4.0,1.274
5.0,-3.0,1.275
8.0,-3.0,1.276
8.0,-1.0,1.277
5.0,-1.0,1.278
3.0,-1.0,1.279
-2.0,-1.0,1.28
-6.0,-3.0,1.281
-6.0,-1.0,1.282
0.0,2.0,1.283
3.0,6.0,1.284
2.0,12.0,1.285
1.0,12.0,1.286
1.0,8.0,1.287
2.0,0.0,1.288
1.0,-2.0,1.289
-1.0,-1.0,1.29
0.0,-2.0,1.291
2.0,-5.0,1.292
1.0,-3.0,1.293
0.0,-1.0,1.294
0.0,-3.0,1.295
3.0,-6.0,1.296
7.0,-6.0,1.297
5.0,-4.0,1.298
2.0,-4.0,1.299
-1.0,-6.0,1.3
-3.0,-5.0,1.301
-4.0,1.0,1.302
1.0,4.0,1.303
6.0,1.0,1.304
6.0,2.0,1.305
5.0,7.0,1.306
3.0,9.0,1.307
2.0,4.0,1.308
6.0,0.0,1.309
8.0,0.0,1.31
4.0,0.0,1.311
0.0,-4.0,1.312
2.0,-6.0,1.313
4.0,-2.0,1.314
3.0,1.0,1.315
2.0,1.0,1.316
3.0,-1.0,1.317
5.0,-2.0,1.318
0.0,-1.0,1.319
-5.0,-1.0,1.32
-7.0,-5.0,1.321
-5.0,-6.0,1.322
-1.0,-4.0,1.323
7.0,0.0,1.324
11.0,6.0,1.325
5.0,9.0,1.326
-2.0,8.0,1.327
-1.0,3.0,1.328
4.0,-1.0,1.329
6.0,0.0,1.33
3.0,1.0,1.331
2.0,1.0,1.332
3.0,0.0,1.333
3.0,-1.0,1.334
3.0,-3.0,1.335
7.0,-6.0,1.336
10.0,-5.0,1.337
6.0,-4.0,1.338
0.0,-2.0,1.339
-4.0,-3.0,1.34
-4.0,-6.0,1.341
-2.0,-3.0,1.342
0.0,2.0,1.343
4.0,5.0,1.344
6.0,3.0,1.345
4.0,3.0,1.346
0.0,4.0,1.347
2.0,2.0,1.348
6.0,-1.0,1.349
3.0,-3.0,1.35
0.0,-4.0,1.351
0.0,-4.0,1.352
3.0,-3.0,1.353
5.0,-1.0,1.354
5.0,0.0,1.355
6.0,-2.0,1.356
8.0,-3.0,1.357
6.0,-3.0,1.358
4.0,-5.0,1.359
-1.0,-6.0,1.36
-2.0,-8.0,1.361
-3.0,-2.0,1.362
0.0,4.0,1.363
6.0,6.0,1.364
7.0,6.0,1.365
3.0,6.0,1.366
0.0,6.0,1.367
1.0,3.0,1.368
6.0,2.0,1.369
6.0,1.0,1.37
4.0,1.0,1.371
3.0,0.0,1.372
4.0,0.0,1.373
6.0,2.0,1.374
6.0,2.0,1.375
3.0,0.0,1.376
2.0,-1.0,1.377
1.0,-4.0,1.378
2.0,-5.0,1.379
1.0,-2.0,1.38
-4.0,0.0,1.381
-7.0,0.0,1.382
-1.0,-3.0,1.383
4.0,-4.0,1.384
3.0,0.0,1.385
2.0,5.0,1.386
2.0,6.0,1.387
0.0,2.0,1.388
-2.0,1.0,1.389
-4.0,3.0,1.39
0.0,0.0,1.391
4.0,-4.0,1.392
4.0,-5.0,1.393
4.0,-4.0,1.394
3.0,-4.0,1.395
2.0,-6.0,1.396
3.0,-3.0,1.397
6.0,-2.0,1.398
6.0,-2.0,1.399
6.0,-5.0,1.4
1.0,-8.0,1.401
-2.0,-6.0,1.402
-1.0,-2.0,1.403
5.0,2.0,1.404
7.0,5.0,1.405
1.0,7.0,1.406
-3.0,4.0,1.407
0.0,-1.0,1.408
4.0,-3.0,1.409
2.0,-1.0,1.41
2.0,1.0,1.411
6.0,0.0,1.412
9.0,-3.0,1.413
8.0,-3.0,1.414
5.0,-2.0,1.415
5.0,-3.0,1.416
7.0,-3.0,1.417
5.0,-5.0,1.418
0.0,-5.0,1.419
-3.0,-3.0,1.42
-5.0,-3.0,1.421
-5.0,0.0,1.422
-1.0,3.0,1.423
3.0,5.0,1.424
7.0,10.0,1.425
6.0,12.0,1.426
4.0,9.0,1.427
3.0,0.0,1.428
3.0,-5.0,1.429
2.0,-5.0,1.43
0.0,-3.0,1.431
1.0,-4.0,1.432
2.0,-5.0,1.433
0.0,-5.0,1.434
-2.0,-6.0,1.435
0.0,-8.0,1.436
5.0,-8.0,1.437
7.0,-4.0,1.438
6.0,0.0,1.439
0.0,0.0,1.44
-4.0,-3.0,1.441
-5.0,-3.0,1.442
1.0,-1.0,1.443
10.0,1.0,1.444
10.0,4.0,1.445
2.0,8.0,1.446
0.0,9.0,1.447
3.0,5.0,1.448
4.0,0.0,1.449
0.0,0.0,1.45
0.0,1.0,1.451
3.0,0.0,1.452
5.0,-1.0,1.453
4.0,-1.0,1.454
4.0,-2.0,1.455
6.0,-4.0,1.456
9.0,-5.0,1.457
4.0,-4.0,1.458
0.0,-2.0,1.459
-3.0,-3.0,1.46
-4.0,-6.0,1.461
-4.0,-3.0,1.462
-1.0,0.0,1.463
2.0,0.0,1.464
3.0,3.0,1.465
5.0,9.0,1.466
5.0,8.0,1.467
5.0,3.0,1.468
6.0,0.0,1.469
6.0,2.0,1.47
3.0,0.0,1.471
1.0,-6.0,1.472
3.0,-10.0,1.473
5.0,-5.0,1.474
5.0,-1.0,1.475
3.0,-4.0,1.476
1.0,-6.0,1.477
-1.0,-5.0,1.478
-1.0,-1.0,1.479
0.0,-2.0,1.48
-2.0,-7.0,1.481
-5.0,-5.0,1.482
0.0,-2.0,1.483
11.0,1.0,1.484
14.0,3.0,1.485
5.0,4.0,1.486
-3.0,4.0,1.487
-1.0,2.0,1.488
4.0,0.0,1.489
4.0,0.0,1.49
1.0,0.0,1.491
2.0,-1.0,1.492
4.0,-2.0,1.493
3.0,-1.0,1.494
1.0,0.0,1.495
2.0,0.0,1.496
4.0,0.0,1.497
2.0,-2.0,1.498
1.0,-3.0,1.499
0.0,-4.0,1.5
-1.0,-6.0,1.501
-2.0,-3.0,1.502
1.0,4.0,1.503
5.0,8.0,1.504
6.0,8.0,1.505
1.0,7.0,1.506
-2.0,8.0,1.507
-1.0,7.0,1.508
3.0,2.0,1.509
4.0,-2.0,1.51
1.0,-3.0,1.511
1.0,0.0,1.512
3.0,-1.0,1.513
7.0,-5.0,1.514
7.0,-7.0,1.515
4.0,-6.0,1.516
3.0,-5.0,1.517
2.0,-5.0,1.518
0.0,-4.0,1.519
-1.0,-1.0,1.52
-2.0,-4.0,1.521
-2.0,-4.0,1.522
3.0,1.0,1.523
11.0,8.0,1.524
10.0,11.0,1.525
2.0,12.0,1.526
-3.0,10.0,1.527
0.0,7.0,1.528
3.0,2.0,1.529
1.0,2.0,1.53
-1.0,3.0,1.531
2.0,2.0,1.532
8.0,1.0,1.533
9.0,-1.0,1.534
7.0,1.0,1.535
5.0,2.0,1.536
9.0,2.0,1.537
7.0,-1.0,1.538
3.0,-3.0,1.539
0.0,-2.0,1.54
-1.0,-4.0,1.541
-2.0,-5.0,1.542
1.0,-3.0,1.543
4.0,2.0,1.544
4.0,7.0,1.545
5.0,9.0,1.546
3.0,3.0,1.547
2.0,-4.0,1.548
2.0,-2.0,1.549
1.0,3.0,1.55
3.0,1.0,1.551
6.0,-7.0,1.552
5.0,-10.0,1.553
4.0,-4.0,1.554
4.0,-2.0,1.555
2.0,-7.0,1.556
0.0,-9.0,1.557
-1.0,-8.0,1.558
-3.0,-5.0,1.559
-4.0,-2.0,1.56
-5.0,-4.0,1.561
-7.0,-5.0,1.562
-3.0,-2.0,1.563
3.0,1.0,1.564
9.0,3.0,1.565
6.0,6.0,1.566
2.0,5.0,1.567
3.0,4.0,1.568
5.0,3.0,1.569
3.0,1.0,1.57
1.0,0.0,1.571
3.0,-3.0,1.572
7.0,-3.0,1.573
8.0,-3.0,1.574
6.0,-4.0,1.575
4.0,-5.0,1.576
4.0,-5.0,1.577
3.0,-4.0,1.578
1.0,-4.0,1.579
-2.0,-1.0,1.58
-6.0,-3.0,1.581
-8.0,-2.0,1.582
-4.0,-3.0,1.583
3.0,-1.0,1.584
6.0,1.0,1.585
3.0,3.0,1.586
0.0,1.0,1.587
1.0,-1.0,1.588
5.0,-2.0,1.589
6.0,-1.0,1.59
5.0,-3.0,1.591
4.0,-6.0,1.592
3.0,-6.0,1.593
4.0,-4.0,1.594
5.0,-5.0,1.595
9.0,-6.0,1.596
12.0,-5.0,1.597
11.0,-2.0,1.598
9.0,1.0,1.599
3.0,1.0,1.6
-3.0,-3.0,1.601
-6.0,-4.0,1.602
0.0,-2.0,1.603
7.0,0.0,1.604
7.0,3.0,1.605
0.0,4.0,1.606
-3.0,4.0,1.607
1.0,2.0,1.608
4.0,0.0,1.609
4.0,-1.0,1.61
3.0,0.0,1.611
2.0,1.0,1.612
1.0,2.0,1.613
0.0,0.0,1.614
1.0,-1.0,1.615
4.0,0.0,1.616
6.0,3.0,1.617
1.0,1.0,1.618
0.0,0.0,1.619
-2.0,-1.0,1.62
-3.0,-4.0,1.621
-3.0,-6.0,1.622
2.0,-5.0,1.623
8.0,1.0,1.624
6.0,9.0,1.625
4.0,10.0,1.626
2.0,4.0,1.627
1.0,-1.0,1.628
3.0,0.0,1.629
6.0,0.0,1.63
6.0,-2.0,1.631
7.0,-5.0,1.632
7.0,-4.0,1.633
7.0,-2.0,1.634
5.0,-3.0,1.635
4.0,-5.0,1.636
6.0,-3.0,1.637
5.0,0.0,1.638
0.0,-1.0,1.639
-4.0,-3.0,1.64
-5.0,-6.0,1.641
-5.0,-1.0,1.642
-3.0,3.0,1.643
3.0,5.0,1.644
7.0,5.0,1.645
2.0,5.0,1.646
-3.0,5.0,1.647
0.0,3.0,1.648
6.0,1.0,1.649
4.0,0.0,1.65
0.0,-2.0,1.651
0.0,-1.0,1.652
4.0,1.0,1.653
3.0,4.0,1.654
1.0,4.0,1.655
7.0,1.0,1.656
13.0,1.0,1.657
10.0,2.0,1.658
3.0,5.0,1.659
-3.0,8.0,1.66
-7.0,3.0,1.661
-8.0,0.0,1.662
-1.0,0.0,1.663
8.0,3.0,1.664
10.0,8.0,1.665
2.0,9.0,1.666
-2.0,7.0,1.667
2.0,4.0,1.668
8.0,2.0,1.669
4.0,0.0,1.67
0.0,0.0,1.671
1.0,-2.0,1.672
5.0,-2.0,1.673
5.0,-4.0,1.674
2.0,-7.0,1.675
0.0,-8.0,1.676
1.0,-7.0,1.677
-2.0,-7.0,1.678
-3.0,-7.0,1.679
-4.0,-5.0,1.68
-7.0,-5.0,1.681
-8.0,-4.0,1.682
-3.0,-3.0,1.683
5.0,-4.0,1.684
7.0,-2.0,1.685
2.0,0.0,1.686
1.0,0.0,1.687
7.0,-2.0,1.688
11.0,-5.0,1.689
8.0,-4.0,1.69
5.0,-2.0,1.691
7.0,-3.0,1.692
7.0,-3.0,1.693
2.0,-2.0,1.694
0.0,-2.0,1.695
5.0,-5.0,1.696
8.0,-5.0,1.697
3.0,-2.0,1.698
-1.0,2.0,1.699
-4.0,1.0,1.7
-2.0,-5.0,1.701
0.0,-6.0,1.702
6.0,-2.0,1.703
10.0,3.0,1.704
6.0,6.0,1.705
2.0,8.0,1.706
2.0,7.0,1.707
2.0,1.0,1.708
6.0,-2.0,1.709
9.0,-2.0,1.71
7.0,0.0,1.711
5.0,0.0,1.712
4.0,-3.0,1.713
3.0,-3.0,1.714
1.0,-3.0,1.715
0.0,-3.0,1.716
1.0,-3.0,1.717
2.0,-2.0,1.718
-3.0,0.0,1.719
-7.0,-1.0,1.72
-8.0,-5.0,1.721
-6.0,-4.0,1.722
-1.0,-4.0,1.723
5.0,-3.0,1.724
6.0,0.0,1.725
4.0,5.0,1.726
1.0,6.0,1.727
3.0,3.0,1.728
4.0,-1.0,1.729
2.0,-1.0,1.73
3.0,0.0,1.731
6.0,-3.0,1.732
7.0,-6.0,1.733
5.0,-4.0,1.734
6.0,-2.0,1.735
10.0,-4.0,1.736
10.0,-6.0,1.737
5.0,-7.0,1.738
3.0,-6.0,1.739
1.0,-3.0,1.74
0.0,-5.0,1.741
-3.0,-3.0,1.742
-1.0,0.0,1.743
6.0,5.0,1.744
8.0,11.0,1.745
2.0,11.0,1.746
-1.0,6.0,1.747
3.0,0.0,1.748
7.0,-2.0,1.749
5.0,2.0,1.75
1.0,5.0,1.751
1.0,3.0,1.752
5.0,1.0,1.753
4.0,1.0,1.754
1.0,1.0,1.755
1.0,-1.0,1.756
4.0,0.0,1.757
5.0,1.0,1.758
2.0,3.0,1.759
-4.0,4.0,1.76
-10.0,0.0,1.761
-11.0,1.0,1.762
-5.0,5.0,1.763
3.0,8.0,1.764
6.0,9.0,1.765
2.0,8.0,1.766
1.0,4.0,1.767
2.0,-1.0,1.768
2.0,-2.0,1.769
-1.0,2.0,1.77
0.0,5.0,1.771
4.0,0.0,1.772
6.0,-6.0,1.773
5.0,-6.0,1.774
3.0,-1.0,1.775
4.0,1.0,1.776
5.0,-1.0,1.777
3.0,-4.0,1.778
1.0,-1.0,1.779
-1.0,3.0,1.78
-5.0,0.0,1.781
-7.0,-3.0,1.782
0.0,-4.0,1.783
6.0,-2.0,1.784
7.0,0.0,1.785
8.0,1.0,1.786
6.0,3.0,1.787
5.0,1.0,1.788
6.0,0.0,1.789
7.0,-1.0,1.79
5.0,-1.0,1.791
3.0,-2.0,1.792
3.0,-3.0,1.793
4.0,-2.0,1.794
4.0,-2.0,1.795
3.0,-4.0,1.796
4.0,-3.0,1.797
6.0,-3.0,1.798
0.0,-1.0,1.799
-4.0,-1.0,1.8
-4.0,-6.0,1.801
-4.0,-7.0,1.802
-2.0,-4.0,1.803
4.0,1.0,1.804
7.0,5.0,1.805
3.0,6.0,1.806
0.0,4.0,1.807
4.0,0.0,1.808
10.0,0.0,1.809
8.0,2.0,1.81
2.0,1.0,1.811
1.0,-2.0,1.812
5.0,-5.0,1.813
7.0,-6.0,1.814
3.0,-4.0,1.815
3.0,-5.0,1.816
9.0,-4.0,1.817
7.0,-5.0,1.818
3.0,-5.0,1.819
-3.0,-3.0,1.82
-5.0,-4.0,1.821
-5.0,-3.0,1.822
0.0,-2.0,1.823
7.0,0.0,1.824
11.0,7.0,1.825
7.0,11.0,1.826
3.0,10.0,1.827
3.0,4.0,1.828
3.0,0.0,1.829
1.0,0.0,1.83
0.0,-1.0,1.831
2.0,-4.0,1.832
4.0,-4.0,1.833
4.0,-2.0,1.834
4.0,-2.0,1.835
5.0,-3.0,1.836
8.0,-2.0,1.837
4.0,-2.0,1.838
0.0,-2.0,1.839
-2.0,-2.0,1.84
-4.0,-5.0,1.841
-4.0,-4.0,1.842
1.0,-1.0,1.843
10.0,1.0,1.844
12.0,4.0,1.845
3.0,2.0,1.846
-3.0,0.0,1.847
-1.0,-1.0,1.848
2.0,0.0,1.849
2.0,0.0,1.85
1.0,-2.0,1.851
3.0,-3.0,1.852
6.0,-3.0,1.853
4.0,-4.0,1.854
0.0,-6.0,1.855
-1.0,-6.0,1.856
3.0,-2.0,1.857
4.0,0.0,1.858
1.0,-1.0,1.859
-1.0,-2.0,1.86
-4.0,-3.0,1.861
-5.0,-2.0,1.862
0.0,-2.0,1.863
5.0,0.0,1.864
4.0,5.0,1.865
3.0,8.0,1.866
4.0,9.0,1.867
5.0,7.0,1.868
3.0,4.0,1.869
2.0,1.0,1.87
2.0,-1.0,1.871
1.0,-4.0,1.872
3.0,-5.0,1.873
6.0,-3.0,1.874
6.0,-1.0,1.875
7.0,-3.0,1.876
6.0,-4.0,1.877
6.0,-5.0,1.878
6.0,-2.0,1.879
2.0,0.0,1.88
-2.0,-1.0,1.881
-2.0,-2.0,1.882
3.0,0.0,1.883
11.0,3.0,1.884
9.0,4.0,1.885
1.0,6.0,1.886
-4.0,6.0,1.887
-1.0,5.0,1.888
2.0,0.0,1.889
0.0,-4.0,1.89
-4.0,-4.0,1.891
-4.0,-4.0,1.892
1.0,-5.0,1.893
3.0,-6.0,1.894
2.0,-6.0,1.895
2.0,-5.0,1.896
6.0,-6.0,1.897
5.0,-6.0,1.898
3.0,-1.0,1.899
-2.0,1.0,1.9
-7.0,-4.0,1.901
-7.0,-6.0,1.902
0.0,0.0,1.903
10.0,8.0,1.904
12.0,9.0,1.905
4.0,6.0,1.906
0.0,6.0,1.907
1.0,7.0,1.908
4.0,5.0,1.909
3.0,0.0,1.91
2.0,-1.0,1.911
3.0,-2.0,1.912
5.0,-1.0,1.913
3.0,-3.0,1.914
0.0,-4.0,1.915
0.0,-3.0,1.916
2.0,-2.0,1.917
7.0,-1.0,1.918
8.0,0.0,1.919
2.0,-1.0,1.92
-5.0,-6.0,1.921
-4.0,-6.0,1.922
1.0,-2.0,1.923
7.0,3.0,1.924
4.0,4.0,1.925
0.0,6.0,1.926
0.0,8.0,1.927
4.0,5.0,1.928
3.0,0.0,1.929
0.0,-3.0,1.93
2.0,-2.0,1.931
6.0,-2.0,1.932
8.0,-2.0,1.933
5.0,-1.0,1.934
3.0,0.0,1.935
4.0,-2.0,1.936
3.0,-2.0,1.937
2.0,-2.0,1.938
2.0,0.0,1.939
3.0,1.0,1.94
3.0,-1.0,1.941
3.0,-3.0,1.942
8.0,-4.0,1.943
11.0,0.0,1.944
4.0,7.0,1.945
-2.0,12.0,1.946
-3.0,9.0,1.947
-4.0,3.0,1.948
-3.0,1.0,1.949
-1.0,3.0,1.95
0.0,2.0,1.951
2.0,-2.0,1.952
3.0,-4.0,1.953
5.0,-2.0,1.954
4.0,-2.0,1.955
3.0,-6.0,1.956
3.0,-7.0,1.957
2.0,-5.0,1.958
2.0,0.0,1.959
0.0,1.0,1.96
-3.0,-3.0,1.961
-4.0,-2.0,1.962
-1.0,-1.0,1.963
7.0,0.0,1.964
8.0,3.0,1.965
2.0,6.0,1.966
-1.0,5.0,1.967
1.0,0.0,1.968
3.0,-3.0,1.969
1.0,0.0,1.97
1.0,-1.0,1.971
4.0,-4.0,1.972
5.0,-6.0,1.973
2.0,-4.0,1.974
0.0,-2.0,1.975
4.0,-3.0,1.976
9.0,-1.0,1.977
6.0,0.0,1.978
3.0,0.0,1.979
0.0,-1.0,1.98
0.0,-7.0,1.981
-1.0,-7.0,1.982
1.0,-2.0,1.983
7.0,2.0,1.984
9.0,6.0,1.985
3.0,8.0,1.986
0.0,5.0,1.987
2.0,-1.0,1.988
5.0,-3.0,1.989
4.0,-3.0,1.99
3.0,-2.0,1.991
3.0,-3.0,1.992
3.0,-5.0,1.993
0.0,-7.0,1.994
1.0,-9.0,1.995
5.0,-7.0,1.996
10.0,-3.0,1.997
8.0,-2.0,1.998
4.0,-2.0,1.999
-1.0,-3.0,2.0
-3.0,-4.0,2.001
-4.0,-3.0,2.002
2.0,-1.0,2.003
10.0,3.0,2.004
10.0,6.0,2.005
4.0,7.0,2.006
1.0,5.0,2.007
5.0,4.0,2.008
5.0,2.0,2.009
0.0,0.0,2.01
0.0,-3.0,2.011
3.0,-4.0,2.012
3.0,-4.0,2.013
-1.0,-5.0,2.014
-4.0,-6.0,2.015
-1.0,-5.0,2.016
2.0,0.0,2.017
0.0,2.0,2.018
-1.0,3.0,2.019
-3.0,1.0,2.02
-3.0,-2.0,2.021
-2.0,-3.0,2.022
3.0,0.0,2.023
8.0,5.0,2.024
6.0,5.0,2.025
5.0,3.0,2.026
5.0,2.0,2.027
4.0,1.0,2.028
4.0,1.0,2.029
4.0,-1.0,2.03
1.0,0.0,2.031
0.0,0.0,2.032
1.0,-2.0,2.033
4.0,-5.0,2.034
8.0,-6.0,2.035
10.0,-4.0,2.036
6.0,0.0,2.037
1.0,-1.0,2.038
-4.0,-4.0,2.039
-3.0,-6.0,2.04
-3.0,-9.0,2.041
-2.0,-5.0,2.042
1.0,2.0,2.043
7.0,7.0,2.044
6.0,9.0,2.045
1.0,10.0,2.046
-2.0,8.0,2.047
2.0,3.0,2.048
6.0,0.0,2.049
4.0,-1.0,2.05
2.0,-3.0,2.051
3.0,-5.0,2.052
6.0,-5.0,2.053
6.0,-3.0,2.054
3.0,-2.0,2.055
2.0,-4.0,2.056
3.0,-2.0,2.057
5.0,1.0,2.058
7.0,1.0,2.059
2.0,-2.0,2.06
-2.0,-7.0,2.061
-5.0,-3.0,2.062
-1.0,3.0,2.063
6.0,5.0,2.064
6.0,2.0,2.065
2.0,2.0,2.066
0.0,6.0,2.067
3.0,8.0,2.068
4.0,7.0,2.069
1.0,3.0,2.07
-1.0,0.0,2.071
1.0,-3.0,2.072
4.0,-6.0,2.073
4.0,-7.0,2.074
3.0,-5.0,2.075
2.0,-2.0,2.076
4.0,-1.0,2.077
5.0,-4.0,2.078
5.0,-3.0,2.079
3.0,-3.0,2.08
-3.0,-6.0,2.081
-6.0,-7.0,2.082
0.0,-5.0,2.083
9.0,-1.0,2.084
12.0,4.0,2.085
3.0,8.0,2.086
-1.0,4.0,2.087
2.0,-2.0,2.088
6.0,-1.0,2.089
3.0,4.0,2.09
-1.0,5.0,2.091
0.0,0.0,2.092
5.0,-6.0,2.093
5.0,-5.0,2.094
2.0,-2.0,2.095
1.0,-3.0,2.096
4.0,-4.0,2.097
3.0,-6.0,2.098
1.0,-4.0,2.099
-1.0,-2.0,2.1
-3.0,-4.0,2.101
-4.0,-2.0,2.102
1.0,-2.0,2.103
6.0,0.0,2.104
6.0,4.0,2.105
6.0,9.0,2.106
4.0,8.0,2.107
2.0,1.0,2.108
0.0,-2.0,2.109
-1.0,0.0,2.11
-1.0,1.0,2.111
0.0,-2.0,2.112
4.0,-5.0,2.113
6.0,-1.0,2.114
3.0,1.0,2.115
2.0,-1.0,2.116
8.0,-4.0,2.117
13.0,-6.0,2.118
9.0,-4.0,2.119
-1.0,-4.0,2.12
-7.0,-6.0,2.121
-6.0,-3.0,2.122
-1.0,-1.0,2.123
4.0,0.0,2.124
5.0,1.0,2.125
2.0,6.0,2.126
1.0,8.0,2.127
5.0,3.0,2.128
9.0,-2.0,2.129
4.0,-1.0,2.13
-1.0,1.0,2.131
1.0,-1.0,2.132
6.0,-5.0,2.133
6.0,-5.0,2.134
2.0,-3.0,2.135
2.0,-1.0,2.136
5.0,-2.0,2.137
6.0,-2.0,2.138
3.0,-1.0,2.139
-1.0,1.0,2.14
-5.0,-2.0,2.141
-6.0,-1.0,2.142
-2.0,1.0,2.143
7.0,6.0,2.144
9.0,8.0,2.145
2.0,7.0,2.146
-3.0,4.0,2.147
0.0,1.0,2.148
6.0,-1.0,2.149
8.0,-2.0,2.15
3.0,-4.0,2.151
3.0,-5.0,2.152
6.0,-3.0,2.153
5.0,-3.0,2.154
1.0,-3.0,2.155
0.0,-4.0,2.156
3.0,-3.0,2.157
4.0,-7.0,2.158
3.0,-9.0,2.159
-2.0,-8.0,2.16
-4.0,-3.0,2.161
-5.0,2.0,2.162
-1.0,3.0,2.163
4.0,0.0,2.164
6.0,0.0,2.165
2.0,5.0,2.166
1.0,5.0,2.167
5.0,-1.0,2.168
8.0,-3.0,2.169
5.0,0.0,2.17
2.0,1.0,2.171
2.0,-4.0,2.172
2.0,-8.0,2.173
2.0,-4.0,2.174
5.0,-1.0,2.175
7.0,-3.0,2.176
7.0,-6.0,2.177
3.0,-6.0,2.178
2.0,-1.0,2.179
0.0,0.0,2.18
-3.0,-4.0,2.181
-4.0,-4.0,2.182
3.0,0.0,2.183
9.0,2.0,2.184
8.0,3.0,2.185
6.0,6.0,2.186
0.0,7.0,2.187
-3.0,2.0,2.188
1.0,-3.0,2.189
4.0,-2.0,2.19
4.0,0.0,2.191
3.0,0.0,2.192
3.0,-5.0,2.193
2.0,-6.0,2.194
2.0,-3.0,2.195
3.0,-3.0,2.196
3.0,-1.0,2.197
4.0,-2.0,2.198
6.0,-1.0,2.199
2.0,0.0,2.2
-2.0,-1.0,2.201
-4.0,0.0,2.202
0.0,0.0,2.203
7.0,1.0,2.204
9.0,5.0,2.205
1.0,11.0,2.206
-5.0,10.0,2.207
-3.0,3.0,2.208
0.0,2.0,2.209
1.0,6.0,2.21
1.0,9.0,2.211
2.0,7.0,2.212
4.0,4.0,2.213
3.0,5.0,2.214
2.0,6.0,2.215
7.0,3.0,2.216
13.0,2.0,2.217
9.0,2.0,2.218
3.0,0.0,2.219
-1.0,-4.0,2.22
-1.0,-8.0,2.221
-1.0,-6.0,2.222
0.0,0.0,2.223
2.0,3.0,2.224
2.0,4.0,2.225
2.0,2.0,2.226
2.0,-2.0,2.227
3.0,-5.0,2.228
5.0,-4.0,2.229
6.0,0.0,2.23
4.0,0.0,2.231
3.0,-4.0,2.232
3.0,-5.0,2.233
4.0,0.0,2.234
2.0,2.0,2.235
1.0,0.0,2.236
1.0,-3.0,2.237
0.0,-6.0,2.238
0.0,-7.0,2.239
-3.0,-7.0,2.24
-5.0,-8.0,2.241
-6.0,-4.0,2.242
0.0,-1.0,2.243
8.0,1.0,2.244
9.0,4.0,2.245
2.0,7.0,2.246
-3.0,6.0,2.247
0.0,0.0,2.248
5.0,-3.0,2.249
10.0,-2.0,2.25
10.0,0.0,2.251
8.0,-4.0,2.252
7.0,-7.0,2.253
6.0,-5.0,2.254
6.0,-3.0,2.255
7.0,-3.0,2.256
6.0,-3.0,2.257
5.0,-5.0,2.258
2.0,-3.0,2.259
-2.0,0.0,2.26
-7.0,-1.0,2.261
-9.0,1.0,2.262
-2.0,4.0,2.263
4.0,3.0,2.264
6.0,2.0,2.265
8.0,4.0,2.266
6.0,6.0,2.267
4.0,3.0,2.268
3.0,-2.0,2.269
2.0,-4.0,2.27
2.0,-4.0,2.271
3.0,-3.0,2.272
3.0,-3.0,2.273
2.0,-2.0,2.274
2.0,0.0,2.275
1.0,-1.0,2.276
4.0,-2.0,2.277
6.0,-2.0,2.278
1.0,1.0,2.279
-4.0,1.0,2.28
-7.0,-4.0,2.281
-8.0,-5.0,2.282
-1.0,-1.0,2.283
9.0,0.0,2.284
12.0,4.0,2.285
4.0,9.0,2.286
-3.0,10.0,2.287
-3.0,6.0,2.288
1.0,2.0,2.289
1.0,2.0,2.29
0.0,3.0,2.291
1.0,0.0,2.292
4.0,-5.0,2.293
4.0,-6.0,2.294
2.0,-4.0,2.295
2.0,-5.0,2.296
4.0,-6.0,2.297
3.0,-6.0,2.298
2.0,-1.0,2.299
-1.0,1.0,2.3
-2.0,-1.0,2.301
-3.0,-3.0,2.302
1.0,-1.0,2.303
7.0,1.0,2.304
9.0,6.0,2.305
6.0,9.0,2.306
3.0,7.0,2.307
0.0,0.0,2.308
-2.0,-6.0,2.309
-3.0,-3.0,2.31
0.0,0.0,2.311
3.0,-3.0,2.312
4.0,-8.0,2.313
4.0,-7.0,2.314
8.0,-2.0,2.315
10.0,3.0,2.316
10.0,8.0,2.317
7.0,10.0,2.318
4.0,10.0,2.319
0.0,8.0,2.32
-6.0,6.0,2.321
-6.0,9.0,2.322
0.0,12.0,2.323
6.0,12.0,2.324
4.0,13.0,2.325
-1.0,15.0,2.326
0.0,12.0,2.327
5.0,6.0,2.328
5.0,3.0,2.329
2.0,6.0,2.33
0.0,7.0,2.331
1.0,0.0,2.332
3.0,-6.0,2.333
1.0,-3.0,2.334
-2.0,0.0,2.335
-1.0,0.0,2.336
4.0,-1.0,2.337
5.0,-1.0,2.338
1.0,0.0,2.339
-4.0,-1.0,2.34
-8.0,-6.0,2.341
-9.0,-5.0,2.342
-1.0,-3.0,2.343
5.0,-1.0,2.344
6.0,1.0,2.345
7.0,3.0,2.346
3.0,1.0,2.347
0.0,-4.0,2.348
0.0,-8.0,2.349
1.0,-6.0,2.35
3.0,-6.0,2.351
6.0,-10.0,2.352
8.0,-13.0,2.353
10.0,-11.0,2.354
7.0,-9.0,2.355
4.0,-10.0,2.356
6.0,-10.0,2.357
9.0,-6.0,2.358
5.0,-2.0,2.359
0.0,-2.0,2.36
0.0,-9.0,2.361
1.0,-8.0,2.362
5.0,-5.0,2.363
11.0,-2.0,2.364
11.0,-1.0,2.365
5.0,1.0,2.366
2.0,4.0,2.367
5.0,1.0,2.368
9.0,-4.0,2.369
7.0,-4.0,2.37
2.0,-2.0,2.371
1.0,-2.0,2.372
3.0,-5.0,2.373
4.0,-6.0,2.374
4.0,-4.0,2.375
3.0,0.0,2.376
4.0,4.0,2.377
3.0,3.0,2.378
1.0,0.0,2.379
-5.0,-3.0,2.38
-11.0,-5.0,2.381
-13.0,-1.0,2.382
-6.0,3.0,2.383
4.0,4.0,2.384
6.0,6.0,2.385
1.0,9.0,2.386
0.0,8.0,2.387
2.0,3.0,2.388
2.0,-2.0,2.389
-3.0,-3.0,2.39
-3.0,-2.0,2.391
1.0,-4.0,2.392
5.0,-5.0,2.393
4.0,-2.0,2.394
2.0,1.0,2.395
2.0,1.0,2.396
4.0,0.0,2.397
2.0,-3.0,2.398
1.0,-1.0,2.399
-1.0,0.0,2.4
-5.0,-1.0,2.401
-5.0,-2.0,2.402
0.0,-1.0,2.403
11.0,2.0,2.404
14.0,5.0,2.405
6.0,4.0,2.406
0.0,1.0,2.407
2.0,-2.0,2.408
8.0,-3.0,2.409
9.0,-3.0,2.41
5.0,-4.0,2.411
4.0,-5.0,2.412
7.0,-7.0,2.413
6.0,-8.0,2.414
4.0,-10.0,2.415
4.0,-7.0,2.416
4.0,-3.0,2.417
2.0,-3.0,2.418
0.0,-4.0,2.419
-2.0,-3.0,2.42
-5.0,-5.0,2.421
-6.0,-8.0,2.422
0.0,-8.0,2.423
6.0,-3.0,2.424
5.0,6.0,2.425
3.0,8.0,2.426
0.0,4.0,2.427
-1.0,0.0,2.428
2.0,0.0,2.429
5.0,1.0,2.43
4.0,-1.0,2.431
3.0,-4.0,2.432
5.0,-3.0,2.433
7.0,-2.0,2.434
4.0,-2.0,2.435
2.0,-4.0,2.436
2.0,-2.0,2.437
3.0,0.0,2.438
0.0,2.0,2.439
-4.0,2.0,2.44
-5.0,-2.0,2.441
-5.0,-5.0,2.442
1.0,-3.0,2.443
9.0,1.0,2.444
9.0,7.0,2.445
1.0,11.0,2.446
-2.0,8.0,2.447
2.0,0.0,2.448
8.0,-4.0,2.449
8.0,-4.0,2.45
5.0,-2.0,2.451
5.0,-3.0,2.452
4.0,-5.0,2.453
1.0,-4.0,2.454
0.0,-2.0,2.455
3.0,-2.0,2.456
7.0,-1.0,2.457
4.0,0.0,2.458
1.0,3.0,2.459
-2.0,3.0,2.46
-4.0,-3.0,2.461
-4.0,-6.0,2.462
-2.0,-3.0,2.463
3.0,3.0,2.464
5.0,6.0,2.465
3.0,7.0,2.466
2.0,5.0,2.467
3.0,3.0,2.468
4.0,0.0,2.469
3.0,-2.0,2.47
2.0,0.0,2.471
3.0,-1.0,2.472
4.0,-2.0,2.473
4.0,-5.0,2.474
4.0,-7.0,2.475
3.0,-6.0,2.476
4.0,-6.0,2.477
3.0,-5.0,2.478
0.0,-4.0,2.479
-3.0,-3.0,2.48
-5.0,-3.0,2.481
-5.0,-2.0,2.482
0.0,0.0,2.483
6.0,4.0,2.484
9.0,9.0,2.485
6.0,13.0,2.486
3.0,11.0,2.487
2.0,4.0,2.488
2.0,0.0,2.489
4.0,0.0,2.49
5.0,2.0,2.491
6.0,3.0,2.492
5.0,4.0,2.493
2.0,5.0,2.494
1.0,5.0,2.495
1.0,2.0,2.496
3.0,2.0,2.497
2.0,2.0,2.498
1.0,2.0,2.499
0.0,0.0,2.5
-1.0,-3.0,2.501
-2.0,-1.0,2.502
0.0,1.0,2.503
1.0,4.0,2.504
2.0,6.0,2.505
3.0,8.0,2.506
3.0,7.0,2.507
4.0,1.0,2.508
4.0,-2.0,2.509
4.0,-1.0,2.51
1.0,-3.0,2.511
-1.0,-7.0,2.512
0.0,-7.0,2.513
2.0,-4.0,2.514
4.0,-2.0,2.515
6.0,-4.0,2.516
8.0,-6.0,2.517
8.0,-5.0,2.518
3.0,-2.0,2.519
-3.0,-1.0,2.52
-5.0,-5.0,2.521
-6.0,-7.0,2.522
-3.0,-1.0,2.523
5.0,3.0,2.524
11.0,5.0,2.525
8.0,6.0,2.526
2.0,4.0,2.527
0.0,1.0,2.528
0.0,-3.0,2.529
1.0,-5.0,2.53
2.0,-3.0,2.531
7.0,-1.0,2.532
9.0,-3.0,2.533
6.0,-5.0,2.534
0.0,-3.0,2.535
1.0,-2.0,2.536
6.0,-2.0,2.537
7.0,-2.0,2.538
3.0,-2.0,2.539
0.0,-3.0,2.54
-2.0,-7.0,2.541
-2.0,-7.0,2.542
2.0,-4.0,2.543
7.0,2.0,2.544
10.0,4.0,2.545
6.0,2.0,2.546
2.0,0.0,2.547
2.0,-1.0,2.548
1.0,-1.0,2.549
-2.0,-1.0,2.55
-2.0,-1.0,2.551
0.0,-5.0,2.552
2.0,-8.0,2.553
0.0,-7.0,2.554
1.0,-3.0,2.555
5.0,0.0,2.556
6.0,0.0,2.557
2.0,-1.0,2.558
-3.0,-1.0,2.559
-8.0,-2.0,2.56
-9.0,-4.0,2.561
-7.0,-1.0,2.562
0.0,2.0,2.563
7.0,4.0,2.564
5.0,4.0,2.565
0.0,3.0,2.566
2.0,2.0,2.567
7.0,-1.0,2.568
7.0,-3.0,2.569
2.0,-1.0,2.57
3.0,0.0,2.571
7.0,-1.0,2.572
7.0,-3.0,2.573
3.0,-4.0,2.574
0.0,-4.0,2.575
3.0,-6.0,2.576
6.0,-6.0,2.577
3.0,-1.0,2.578
2.0,3.0,2.579
0.0,4.0,2.58
-2.0,-2.0,2.581
-3.0,-3.0,2.582
2.0,-1.0,2.583
7.0,1.0,2.584
5.0,3.0,2.585
3.0,3.0,2.586
3.0,3.0,2.587
3.0,0.0,2.588
3.0,-2.0,2.589
4.0,-1.0,2.59
2.0,0.0,2.591
1.0,-3.0,2.592
2.0,-8.0,2.593
3.0,-7.0,2.594
3.0,-2.0,2.595
2.0,0.0,2.596
3.0,1.0,2.597
2.0,2.0,2.598
1.0,2.0,2.599
-1.0,-2.0,2.6
-5.0,-8.0,2.601
-9.0,-5.0,2.602
-3.0,1.0,2.603
10.0,5.0,2.604
15.0,3.0,2.605
6.0,4.0,2.606
-1.0,7.0,2.607
3.0,6.0,2.608
7.0,1.0,2.609
4.0,0.0,2.61
-1.0,0.0,2.611
-1.0,-3.0,2.612
1.0,-7.0,2.613
2.0,-7.0,2.614
1.0,-4.0,2.615
4.0,-2.0,2.616
5.0,-1.0,2.617
3.0,0.0,2.618
1.0,1.0,2.619
-1.0,2.0,2.62
-3.0,-3.0,2.621
-4.0,-4.0,2.622
0.0,-2.0,2.623
5.0,3.0,2.624
5.0,8.0,2.625
0.0,10.0,2.626
1.0,10.0,2.627
7.0,7.0,2.628
10.0,4.0,2.629
7.0,2.0,2.63
4.0,0.0,2.631
5.0,-1.0,2.632
6.0,2.0,2.633
6.0,4.0,2.634
5.0,0.0,2.635
4.0,-5.0,2.636
4.0,-5.0,2.637
1.0,-3.0,2.638
0.0,-4.0,2.639
-3.0,-8.0,2.64
-7.0,-11.0,2.641
-8.0,-5.0,2.642
0.0,-1.0,2.643
6.0,1.0,2.644
6.0,1.0,2.645
6.0,1.0,2.646
4.0,0.0,2.647
3.0,-2.0,2.648
3.0,-1.0,2.649
2.0,0.0,2.65
4.0,-1.0,2.651
7.0,-6.0,2.652
5.0,-8.0,2.653
4.0,-6.0,2.654
3.0,-4.0,2.655
2.0,-6.0,2.656
5.0,-6.0,2.657
1.0,-5.0,2.658
0.0,-2.0,2.659
-3.0,0.0,2.66
-7.0,-1.0,2.661
-8.0,-2.0,2.662
0.0,0.0,2.663
6.0,2.0,2.664
6.0,2.0,2.665
6.0,2.0,2.666
4.0,2.0,2.667
3.0,1.0,2.668
3.0,2.0,2.669
2.0,3.0,2.67
4.0,1.0,2.671
7.0,-1.0,2.672
5.0,0.0,2.673
4.0,1.0,2.674
3.0,1.0,2.675
2.0,1.0,2.676
5.0,1.0,2.677
8.0,0.0,2.678
2.0,3.0,2.679
-4.0,5.0,2.68
-7.0,5.0,2.681
-4.0,7.0,2.682
1.0,9.0,2.683
6.0,11.0,2.684
9.0,13.0,2.685
7.0,14.0,2.686
5.0,12.0,2.687
4.0,9.0,2.688
5.0,8.0,2.689
1.0,4.0,2.69
-1.0,-1.0,2.691
-3.0,-3.0,2.692
-1.0,-2.0,2.693
0.0,-3.0,2.694
3.0,-7.0,2.695
7.0,-9.0,2.696
11.0,-5.0,2.697
7.0,-2.0,2.698
1.0,-2.0,2.699
-4.0,-5.0,2.7
-8.0,-7.0,2.701
-7.0,-8.0,2.702
0.0,-8.0,2.703
10.0,-5.0,2.704
12.0,-2.0,2.705
5.0,0.0,2.706
-1.0,-3.0,2.707
1.0,-7.0,2.708
7.0,-7.0,2.709
7.0,-6.0,2.71
5.0,-5.0,2.711
3.0,-5.0,2.712
4.0,-4.0,2.713
3.0,-3.0,2.714
2.0,-3.0,2.715
3.0,-4.0,2.716
6.0,-3.0,2.717
4.0,-3.0,2.718
1.0,-3.0,2.719
-1.0,-2.0,2.72
-4.0,-2.0,2.721
-4.0,-3.0,2.722
-1.0,-2.0,2.723
7.0,0.0,2.724
9.0,2.0,2.725
5.0,5.0,2.726
3.0,3.0,2.727
7.0,1.0,2.728
7.0,0.0,2.729
0.0,-2.0,2.73
-2.0,-3.0,2.731
3.0,-4.0,2.732
7.0,-5.0,2.733
6.0,-5.0,2.734
1.0,-3.0,2.735
2.0,-1.0,2.736
5.0,-1.0,2.737
3.0,-1.0,2.738
1.0,-4.0,2.739
0.0,-4.0,2.74
-3.0,-6.0,2.741
-5.0,-3.0,2.742
-1.0,1.0,2.743
3.0,6.0,2.744
3.0,9.0,2.745
3.0,8.0,2.746
1.0,4.0,2.747
0.0,0.0,2.748
0.0,-2.0,2.749
0.0,-3.0,2.75
4.0,-4.0,2.751
6.0,-4.0,2.752
4.0,-2.0,2.753
3.0,-1.0,2.754
7.0,-2.0,2.755
9.0,-1.0,2.756
7.0,2.0,2.757
4.0,1.0,2.758
0.0,0.0,2.759
-3.0,-2.0,2.76
-5.0,-2.0,2.761
-7.0,-2.0,2.762
-1.0,-2.0,2.763
7.0,-1.0,2.764
9.0,3.0,2.765
4.0,6.0,2.766
4.0,3.0,2.767
8.0,1.0,2.768
6.0,1.0,2.769
2.0,1.0,2.77
2.0,0.0,2.771
5.0,-2.0,2.772
6.0,-2.0,2.773
3.0,-2.0,2.774
4.0,-3.0,2.775
7.0,-4.0,2.776
6.0,-2.0,2.777
3.0,0.0,2.778
1.0,-1.0,2.779
-1.0,-1.0,2.78
-5.0,-1.0,2.781
-6.0,3.0,2.782
0.0,3.0,2.783
10.0,3.0,2.784
8.0,4.0,2.785
0.0,7.0,2.786
-2.0,5.0,2.787
3.0,2.0,2.788
7.0,0.0,2.789
5.0,1.0,2.79
0.0,2.0,2.791
0.0,0.0,2.792
1.0,-3.0,2.793
3.0,-6.0,2.794
3.0,-8.0,2.795
3.0,-6.0,2.796
5.0,0.0,2.797
6.0,4.0,2.798
4.0,1.0,2.799
-1.0,-3.0,2.8
-6.0,-5.0,2.801
-5.0,1.0,2.802
5.0,4.0,2.803
13.0,3.0,2.804
8.0,4.0,2.805
-3.0,6.0,2.806
-7.0,5.0,2.807
-1.0,1.0,2.808
4.0,-1.0,2.809
3.0,0.0,2.81
2.0,-2.0,2.811
4.0,-6.0,2.812
5.0,-7.0,2.813
5.0,-4.0,2.814
7.0,-3.0,2.815
9.0,-4.0,2.816
8.0,-4.0,2.817
3.0,-2.0,2.818
1.0,0.0,2.819
0.0,0.0,2.82
-2.0,-2.0,2.821
-4.0,0.0,2.822
0.0,6.0,2.823
4.0,9.0,2.824
6.0,10.0,2.825
7.0,6.0,2.826
4.0,0.0,2.827
2.0,-4.0,2.828
2.0,-4.0,2.829
2.0,-1.0,2.83
2.0,-1.0,2.831
2.0,-5.0,2.832
2.0,-8.0,2.833
1.0,-8.0,2.834
2.0,-6.0,2.835
4.0,-3.0,2.836
4.0,1.0,2.837
2.0,3.0,2.838
0.0,0.0,2.839
-2.0,-4.0,2.84
-3.0,-7.0,2.841
-3.0,-2.0,2.842
0.0,2.0,2.843
3.0,5.0,2.844
3.0,8.0,2.845
1.0,9.0,2.846
1.0,5.0,2.847
3.0,-1.0,2.848
4.0,-4.0,2.849
4.0,-3.0,2.85
4.0,0.0,2.851
6.0,-1.0,2.852
4.0,-2.0,2.853
2.0,-3.0,2.854
3.0,-5.0,2.855
5.0,-6.0,2.856
6.0,-3.0,2.857
5.0,-2.0,2.858
1.0,-1.0,2.859
-2.0,-1.0,2.86
-4.0,0.0,2.861
-2.0,1.0,2.862
1.0,1.0,2.863
7.0,3.0,2.864
8.0,4.0,2.865
3.0,4.0,2.866
-1.0,2.0,2.867
-3.0,0.0,2.868
-3.0,2.0,2.869
-2.0,3.0,2.87
1.0,0.0,2.871
4.0,-3.0,2.872
6.0,-2.0,2.873
5.0,-2.0,2.874
5.0,-4.0,2.875
8.0,-6.0,2.876
8.0,-4.0,2.877
2.0,-3.0,2.878
-4.0,-2.0,2.879
-7.0,0.0,2.88
-7.0,-1.0,2.881
-4.0,0.0,2.882
0.0,0.0,2.883
6.0,2.0,2.884
6.0,4.0,2.885
0.0,5.0,2.886
-1.0,1.0,2.887
3.0,-2.0,2.888
8.0,-4.0,2.889
6.0,-3.0,2.89
3.0,-5.0,2.891
6.0,-8.0,2.892
9.0,-6.0,2.893
8.0,-2.0,2.894
5.0,1.0,2.895
5.0,0.0,2.896
8.0,-3.0,2.897
6.0,-3.0,2.898
1.0,-1.0,2.899
-3.0,1.0,2.9
-5.0,-2.0,2.901
-6.0,-2.0,2.902
0.0,1.0,2.903
5.0,7.0,2.904
5.0,10.0,2.905
4.0,10.0,2.906
2.0,4.0,2.907
1.0,-1.0,2.908
1.0,-2.0,2.909
2.0,-1.0,2.91
2.0,-1.0,2.911
3.0,-2.0,2.912
5.0,0.0,2.913
7.0,0.0,2.914
5.0,-4.0,2.915
4.0,-7.0,2.916
5.0,-4.0,2.917
5.0,-2.0,2.918
3.0,-2.0,2.919
0.0,-2.0,2.92
-3.0,-4.0,2.921
-5.0,-5.0,2.922
-4.0,-1.0,2.923
3.0,2.0,2.924
8.0,4.0,2.925
3.0,6.0,2.926
-2.0,1.0,2.927
0.0,-3.0,2.928
5.0,-1.0,2.929
4.0,0.0,2.93
3.0,0.0,2.931
7.0,0.0,2.932
11.0,-1.0,2.933
10.0,-3.0,2.934
6.0,-3.0,2.935
4.0,-3.0,2.936
4.0,-1.0,2.937
3.0,0.0,2.938
0.0,-2.0,2.939
-2.0,-4.0,2.94
-4.0,-5.0,2.941
-4.0,-2.0,2.942
0.0,0.0,2.943
6.0,3.0,2.944
5.0,8.0,2.945
-2.0,9.0,2.946
-5.0,5.0,2.947
-1.0,0.0,2.948
3.0,-2.0,2.949
2.0,-1.0,2.95
1.0,-1.0,2.951
4.0,0.0,2.952
8.0,-1.0,2.953
7.0,-3.0,2.954
3.0,-5.0,2.955
2.0,-6.0,2.956
4.0,-2.0,2.957
2.0,2.0,2.958
-1.0,2.0,2.959
-5.0,2.0,2.96
-5.0,-2.0,2.961
-5.0,-3.0,2.962
0.0,-1.0,2.963
6.0,3.0,2.964
8.0,5.0,2.965
5.0,5.0,2.966
2.0,3.0,2.967
3.0,1.0,2.968
4.0,-1.0,2.969
3.0,-3.0,2.97
2.0,-3.0,2.971
3.0,-4.0,2.972
3.0,-5.0,2.973
3.0,-7.0,2.974
4.0,-6.0,2.975
6.0,-5.0,2.976
5.0,-1.0,2.977
2.0,-1.0,2.978
2.0,-2.0,2.979
1.0,0.0,2.98
-1.0,-1.0,2.981
-3.0,-1.0,2.982
2.0,0.0,2.983
5.0,2.0,2.984
3.0,4.0,2.985
2.0,3.0,2.986
2.0,2.0,2.987
2.0,1.0,2.988
2.0,2.0,2.989
2.0,2.0,2.99
3.0,3.0,2.991
4.0,1.0,2.992
4.0,0.0,2.993
5.0,-3.0,2.994
6.0,-2.0,2.995
8.0,-3.0,2.996
8.0,-1.0,2.997
7.0,-2.0,2.998
-1.0,-1.0,2.999
-4.0,0.0,3.0
-5.0,-1.0,3.001
-4.0,-2.0,3.002
0.0,0.0,3.003
7.0,1.0,3.004
10.0,1.0,3.005
5.0,0.0,3.006
0.0,2.0,3.007
-3.0,4.0,3.008
-2.0,1.0,3.009
-2.0,-1.0,3.01
-2.0,1.0,3.011
2.0,4.0,3.012
4.0,4.0,3.013
2.0,5.0,3.014
0.0,9.0,3.015
3.0,12.0,3.016
7.0,10.0,3.017
8.0,8.0,3.018
5.0,8.0,3.019
0.0,8.0,3.02
0.0,5.0,3.021
1.0,5.0,3.022
4.0,5.0,3.023
8.0,7.0,3.024
11.0,9.0,3.025
11.0,9.0,3.026
8.0,7.0,3.027
7.0,4.0,3.028
6.0,0.0,3.029
4.0,-3.0,3.03
5.0,-5.0,3.031
7.0,-4.0,3.032
7.0,-3.0,3.033
5.0,-4.0,3.034
1.0,-6.0,3.035
3.0,-8.0,3.036
5.0,-5.0,3.037
1.0,-4.0,3.038
-3.0,-2.0,3.039
-7.0,-4.0,3.04
-9.0,-10.0,3.041
-9.0,-8.0,3.042
-5.0,-4.0,3.043
3.0,-2.0,3.044
9.0,1.0,3.045
6.0,5.0,3.046
1.0,7.0,3.047
2.0,1.0,3.048
7.0,-4.0,3.049
5.0,-4.0,3.05
0.0,-3.0,3.051
0.0,-5.0,3.052
3.0,-8.0,3.053
2.0,-6.0,3.054
-1.0,-3.0,3.055
-1.0,-5.0,3.056
4.0,-9.0,3.057
3.0,-10.0,3.058
-2.0,-9.0,3.059
-7.0,-7.0,3.06
-9.0,-8.0,3.061
-9.0,-7.0,3.062
-1.0,-5.0,3.063
4.0,-5.0,3.064
2.0,-5.0,3.065
1.0,-4.0,3.066
2.0,-5.0,3.067
4.0,-9.0,3.068
5.0,-14.0,3.069
6.0,-14.0,3.07
4.0,-13.0,3.071
3.0,-13.0,3.072
3.0,-17.0,3.073
4.0,-18.0,3.074
5.0,-18.0,3.075
7.0,-14.0,3.076
8.0,-9.0,3.077
9.0,-8.0,3.078
2.0,-6.0,3.079
-4.0,-5.0,3.08
-7.0,-7.0,3.081
-7.0,-9.0,3.082
0.0,-6.0,3.083
6.0,-3.0,3.084
4.0,-3.0,3.085
-1.0,-2.0,3.086
0.0,-3.0,3.087
3.0,-5.0,3.088
4.0,-4.0,3.089
2.0,-2.0,3.09
5.0,0.0,3.091
9.0,1.0,3.092
7.0,1.0,3.093
1.0,0.0,3.094
-1.0,-1.0,3.095
0.0,-2.0,3.096
2.0,0.0,3.097
3.0,2.0,3.098
4.0,4.0,3.099
1.0,6.0,3.1
-4.0,5.0,3.101
-7.0,5.0,3.102
-1.0,5.0,3.103
6.0,4.0,3.104
6.0,6.0,3.105
0.0,9.0,3.106
-1.0,10.0,3.107
2.0,8.0,3.108
3.0,7.0,3.109
1.0,8.0,3.11
2.0,5.0,3.111
5.0,2.0,3.112
6.0,0.0,3.113
4.0,1.0,3.114
5.0,2.0,3.115
6.0,2.0,3.116
7.0,5.0,3.117
3.0,5.0,3.118
3.0,4.0,3.119
3.0,3.0,3.12
-1.0,0.0,3.121
-6.0,0.0,3.122
-4.0,0.0,3.123
3.0,1.0,3.124
6.0,6.0,3.125
2.0,8.0,3.126
0.0,6.0,3.127
4.0,2.0,3.128
8.0,1.0,3.129
4.0,1.0,3.13
1.0,0.0,3.131
2.0,0.0,3.132
5.0,0.0,3.133
5.0,0.0,3.134
4.0,2.0,3.135
6.0,3.0,3.136
5.0,4.0,3.137
2.0,2.0,3.138
0.0,1.0,3.139
-1.0,0.0,3.14
-2.0,-4.0,3.141
-1.0,-4.0,3.142
4.0,0.0,3.143
13.0,5.0,3.144
13.0,9.0,3.145
5.0,10.0,3.146
0.0,8.0,3.147
2.0,5.0,3.148
5.0,2.0,3.149
3.0,2.0,3.15
0.0,3.0,3.151
4.0,1.0,3.152
8.0,-3.0,3.153
6.0,-4.0,3.154
0.0,-4.0,3.155
-1.0,-2.0,3.156
1.0,-1.0,3.157
0.0,-1.0,3.158
-2.0,0.0,3.159
-6.0,0.0,3.16
-6.0,0.0,3.161
-6.0,1.0,3.162
-3.0,3.0,3.163
4.0,4.0,3.164
5.0,4.0,3.165
0.0,6.0,3.166
-2.0,4.0,3.167
0.0,-1.0,3.168
4.0,-3.0,3.169
7.0,-2.0,3.17
8.0,-2.0,3.171
5.0,-4.0,3.172
1.0,-6.0,3.173
-1.0,-7.0,3.174
-1.0,-7.0,3.175
0.0,-6.0,3.176
0.0,-2.0,3.177
-1.0,0.0,3.178
-3.0,0.0,3.179
-7.0,-3.0,3.18
-9.0,-6.0,3.181
-5.0,-1.0,3.182
6.0,4.0,3.183
13.0,6.0,3.184
9.0,6.0,3.185
0.0,5.0,3.186
0.0,3.0,3.187
7.0,0.0,3.188
11.0,-2.0,3.189
7.0,-3.0,3.19
6.0,-3.0,3.191
9.0,-2.0,3.192
10.0,-2.0,3.193
8.0,-3.0,3.194
6.0,-5.0,3.195
7.0,-5.0,3.196
10.0,-1.0,3.197
5.0,0.0,3.198
3.0,-1.0,3.199
2.0,-3.0,3.2
2.0,-8.0,3.201
1.0,-6.0,3.202
-1.0,-1.0,3.203
-3.0,2.0,3.204
0.0,4.0,3.205
2.0,6.0,3.206
4.0,4.0,3.207
5.0,2.0,3.208
4.0,-3.0,3.209
3.0,-5.0,3.21
7.0,-4.0,3.211
9.0,-2.0,3.212
4.0,0.0,3.213
1.0,0.0,3.214
1.0,0.0,3.215
0.0,0.0,3.216
-3.0,2.0,3.217
8.0,1.0,3.218
5.0,0.0,3.219
3.0,-2.0,3.22
1.0,-4.0,3.221
0.0,-7.0,3.222
-4.0,-5.0,3.223
-6.0,-3.0,3.224
-2.0,1.0,3.225
2.0,5.0,3.226
6.0,5.0,3.227
8.0,3.0,3.228
6.0,-1.0,3.229
5.0,-4.0,3.23
11.0,-4.0,3.231
14.0,-5.0,3.232
6.0,-7.0,3.233
0.0,-9.0,3.234
0.0,-9.0,3.235
-2.0,-9.0,3.236
-6.0,-5.0,3.237
-9.0,1.0,3.238
-8.0,0.0,3.239
-4.0,-2.0,3.24
-3.0,-4.0,3.241
-2.0,-6.0,3.242
6.0,-5.0,3.243
15.0,-3.0,3.244
14.0,1.0,3.245
3.0,4.0,3.246
-4.0,4.0,3.247
-4.0,2.0,3.248
-2.0,-1.0,3.249
-5.0,-4.0,3.25
-8.0,-4.0,3.251
-3.0,-5.0,3.252
2.0,-6.0,3.253
4.0,-8.0,3.254
4.0,-8.0,3.255
8.0,-8.0,3.256
13.0,-5.0,3.257
10.0,-2.0,3.258
4.0,1.0,3.259
-3.0,0.0,3.26
-6.0,-4.0,3.261
-5.0,-4.0,3.262
2.0,-2.0,3.263
10.0,0.0,3.264
4.0,1.0,3.265
-10.0,2.0,3.266
-17.0,3.0,3.267
-9.0,2.0,3.268
8.0,1.0,3.269
30.0,0.0,3.27
62.0,-2.0,3.271
94.0,-5.0,3.272
89.0,-5.0,3.273
36.0,-4.0,3.274
-30.0,-5.0,3.275
-66.0,-5.0,3.276
-64.0,-3.0,3.277
-46.0,-3.0,3.278
-20.0,-2.0,3.279
6.0,-1.0,3.28
17.0,-1.0,3.281
1.0,-1.0,3.282
-19.0,0.0,3.283
-19.0,2.0,3.284
1.0,3.0,3.285
23.0,4.0,3.286
43.0,0.0,3.287
53.0,-3.0,3.288
31.0,-5.0,3.289
-22.0,-6.0,3.29
-95.0,-4.0,3.291
-179.0,-1.0,3.292
-244.0,0.0,3.293
-213.0,3.0,3.294
-54.0,5.0,3.295
120.0,9.0,3.296
176.0,13.0,3.297
148.0,16.0,3.298
161.0,12.0,3.299
167.0,4.0,3.3
153.0,-2.0,3.301
129.0,-1.0,3.302
77.0,0.0,3.303
21.0,-3.0,3.304
-44.0,-11.0,3.305
-83.0,-17.0,3.306
-43.0,-24.0,3.307
-15.0,-28.0,3.308
-31.0,-23.0,3.309
-47.0,-11.0,3.31
-63.0,0.0,3.311
-55.0,8.0,3.312
25.0,10.0,3.313
84.0,9.0,3.314
80.0,-1.0,3.315
74.0,-17.0,3.316
60.0,-22.0,3.317
31.0,-3.0,3.318
-53.0,37.0,3.319
-125.0,71.0,3.32
-164.0,83.0,3.321
-145.0,85.0,3.322
-64.0,52.0,3.323
4.0,23.0,3.324
7.0,8.0,3.325
16.0,-6.0,3.326
128.0,-15.0,3.327
270.0,-23.0,3.328
265.0,-27.0,3.329
116.0,-31.0,3.33
15.0,-35.0,3.331
28.0,-39.0,3.332
1.0,-45.0,3.333
-155.0,-51.0,3.334
-295.0,-57.0,3.335
-292.0,-60.0,3.336
-254.0,-46.0,3.337
-310.0,-28.0,3.338
-343.0,0.0,3.339
-165.0,23.0,3.34
138.0,32.0,3.341
282.0,33.0,3.342
189.0,28.0,3.343
79.0,26.0,3.344
117.0,19.0,3.345
200.0,-7.0,3.346
177.0,-37.0,3.347
91.0,-27.0,3.348
61.0,31.0,3.349
90.0,79.0,3.35
90.0,57.0,3.351
50.0,-10.0,3.352
27.0,-54.0,3.353
31.0,-53.0,3.354
19.0,-48.0,3.355
-13.0,-47.0,3.356
-20.0,-16.0,3.357
6.0,66.0,3.358
21.0,148.0,3.359
0.0,167.0,3.36
-28.0,108.0,3.361
-40.0,31.0,3.362
-26.0,-13.0,3.363
1.0,-20.0,3.364
11.0,-15.0,3.365
-28.0,-17.0,3.366
-87.0,-21.0,3.367
-102.0,-20.0,3.368
-66.0,-19.0,3.369
-43.0,-17.0,3.37
-55.0,-3.0,3.371
-43.0,15.0,3.372
4.0,14.0,3.373
23.0,-14.0,3.374
-4.0,-38.0,3.375
-14.0,-37.0,3.376
19.0,-26.0,3.377
38.0,-31.0,3.378
14.0,-41.0,3.379
-5.0,-38.0,3.38
13.0,-29.0,3.381
27.0,-27.0,3.382
14.0,-31.0,3.383
9.0,-27.0,3.384
26.0,-13.0,3.385
31.0,0.0,3.386
14.0,7.0,3.387
9.0,12.0,3.388
19.0,13.0,3.389
16.0,12.0,3.39
-3.0,9.0,3.391
-6.0,2.0,3.392
8.0,-4.0,3.393
10.0,-2.0,3.394
-1.0,8.0,3.395
-2.0,13.0,3.396
8.0,10.0,3.397
5.0,2.0,3.398
-5.0,2.0,3.399
-8.0,3.0,3.4
-4.0,-5.0,3.401
-5.0,-10.0,3.402
-4.0,-6.0,3.403
10.0,5.0,3.404
20.0,7.0,3.405
14.0,5.0,3.406
5.0,3.0,3.407
17.0,1.0,3.408
29.0,-2.0,3.409
24.0,-3.0,3.41
9.0,-2.0,3.411
5.0,-2.0,3.412
11.0,-6.0,3.413
9.0,-3.0,3.414
-5.0,5.0,3.415
-20.0,6.0,3.416
-31.0,2.0,3.417
-43.0,-1.0,3.418
-43.0,2.0,3.419
-25.0,3.0,3.42
-7.0,-3.0,3.421
-6.0,-1.0,3.422
-12.0,4.0,3.423
-5.0,9.0,3.424
11.0,8.0,3.425
14.0,7.0,3.426
3.0,7.0,3.427
2.0,5.0,3.428
13.0,1.0,3.429
18.0,0.0,3.43
12.0,1.0,3.431
11.0,-2.0,3.432
19.0,-5.0,3.433
22.0,-5.0,3.434
18.0,-5.0,3.435
13.0,-7.0,3.436
14.0,-5.0,3.437
13.0,-3.0,3.438
8.0,-1.0,3.439
1.0,-5.0,3.44
-2.0,-10.0,3.441
-5.0,-7.0,3.442
-4.0,0.0,3.443
2.0,1.0,3.444
7.0,0.0,3.445
5.0,2.0,3.446
0.0,2.0,3.447
1.0,0.0,3.448
3.0,-1.0,3.449
0.0,3.0,3.45
-2.0,7.0,3.451
1.0,3.0,3.452
7.0,-3.0,3.453
9.0,-1.0,3.454
9.0,6.0,3.455
12.0,10.0,3.456
16.0,8.0,3.457
15.0,3.0,3.458
13.0,2.0,3.459
12.0,2.0,3.46
10.0,-2.0,3.461
11.0,-5.0,3.462
20.0,-4.0,3.463
31.0,-1.0,3.464
29.0,2.0,3.465
13.0,4.0,3.466
-6.0,1.0,3.467
-22.0,-2.0,3.468
-41.0,-4.0,3.469
-51.0,-3.0,3.47
-31.0,-3.0,3.471
3.0,-5.0,3.472
4.0,-6.0,3.473
-30.0,-4.0,3.474
-50.0,-4.0,3.475
-30.0,-6.0,3.476
-3.0,-5.0,3.477
-3.0,-2.0,3.478
-14.0,0.0,3.479
-11.0,0.0,3.48
-2.0,-1.0,3.481
-1.0,2.0,3.482
2.0,7.0,3.483
17.0,6.0,3.484
25.0,6.0,3.485
15.0,11.0,3.486
6.0,16.0,3.487
13.0,16.0,3.488
18.0,9.0,3.489
12.0,0.0,3.49
7.0,-9.0,3.491
14.0,-16.0,3.492
20.0,-20.0,3.493
16.0,-18.0,3.494
14.0,-15.0,3.495
18.0,-13.0,3.496
17.0,-7.0,3.497
9.0,-3.0,3.498
7.0,-2.0,3.499
11.0,-6.0,3.5
10.0,-12.0,3.501
0.0,-9.0,3.502
0.0,-5.0,3.503
14.0,-1.0,3.504
20.0,4.0,3.505
14.0,7.0,3.506
10.0,7.0,3.507
13.0,5.0,3.508
13.0,5.0,3.509
6.0,9.0,3.51
2.0,11.0,3.511
1.0,7.0,3.512
-7.0,4.0,3.513
-23.0,8.0,3.514
-27.0,10.0,3.515
-15.0,6.0,3.516
2.0,1.0,3.517
8.0,-2.0,3.518
4.0,-3.0,3.519
-1.0,-6.0,3.52
-2.0,-12.0,3.521
0.0,-17.0,3.522
3.0,-14.0,3.523
2.0,-12.0,3.524
-7.0,-10.0,3.525
-15.0,-9.0,3.526
0.0,-9.0,3.527
30.0,-8.0,3.528
43.0,-5.0,3.529
25.0,-1.0,3.53
2.0,0.0,3.531
-8.0,3.0,3.532
-13.0,5.0,3.533
-28.0,8.0,3.534
-39.0,6.0,3.535
-23.0,5.0,3.536
2.0,6.0,3.537
11.0,6.0,3.538
2.0,4.0,3.539
-4.0,0.0,3.54
-1.0,-3.0,3.541
1.0,-4.0,3.542
2.0,-4.0,3.543
4.0,2.0,3.544
7.0,11.0,3.545
8.0,15.0,3.546
2.0,8.0,3.547
-2.0,0.0,3.548
1.0,2.0,3.549
4.0,7.0,3.55
5.0,3.0,3.551
8.0,-3.0,3.552
14.0,-1.0,3.553
19.0,4.0,3.554
17.0,2.0,3.555
13.0,-6.0,3.556
4.0,-8.0,3.557
-4.0,-5.0,3.558
-13.0,-3.0,3.559
-22.0,-1.0,3.56
-25.0,-4.0,3.561
-18.0,-6.0,3.562
-5.0,-3.0,3.563
-2.0,0.0,3.564
-9.0,5.0,3.565
-8.0,9.0,3.566
10.0,5.0,3.567
27.0,1.0,3.568
28.0,-4.0,3.569
21.0,-8.0,3.57
20.0,-10.0,3.571
25.0,-11.0,3.572
24.0,-9.0,3.573
18.0,-8.0,3.574
15.0,-9.0,3.575
14.0,-11.0,3.576
12.0,-11.0,3.577
2.0,-11.0,3.578
-12.0,-6.0,3.579
-27.0,4.0,3.58
-29.0,12.0,3.581
-6.0,8.0,3.582
33.0,-2.0,3.583
69.0,-7.0,3.584
81.0,1.0,3.585
53.0,9.0,3.586
-26.0,8.0,3.587
-114.0,8.0,3.588
-138.0,12.0,3.589
-73.0,12.0,3.59
6.0,3.0,3.591
31.0,-3.0,3.592
0.0,0.0,3.593
-33.0,5.0,3.594
-34.0,1.0,3.595
1.0,-13.0,3.596
54.0,-22.0,3.597
87.0,-25.0,3.598
71.0,-20.0,3.599
28.0,-13.0,3.6
6.0,-10.0,3.601
14.0,-3.0,3.602
16.0,9.0,3.603
5.0,19.0,3.604
1.0,23.0,3.605
8.0,19.0,3.606
10.0,17.0,3.607
9.0,20.0,3.608
15.0,26.0,3.609
19.0,26.0,3.61
5.0,15.0,3.611
-9.0,2.0,3.612
-8.0,-7.0,3.613
-8.0,-6.0,3.614
-30.0,4.0,3.615
-64.0,25.0,3.616
-79.0,43.0,3.617
-65.0,41.0,3.618
-28.0,21.0,3.619
11.0,-3.0,3.62
32.0,-19.0,3.621
33.0,-20.0,3.622
48.0,-16.0,3.623
98.0,-12.0,3.624
137.0,-7.0,3.625
100.0,-3.0,3.626
6.0,-3.0,3.627
-56.0,-9.0,3.628
-46.0,-13.0,3.629
-13.0,-11.0,3.63
-14.0,-10.0,3.631
-39.0,-14.0,3.632
-60.0,-20.0,3.633
-80.0,-21.0,3.634
-95.0,-19.0,3.635
-74.0,-13.0,3.636
-16.0,-4.0,3.637
37.0,0.0,3.638
53.0,-8.0,3.639
70.0,-29.0,3.64
131.0,-44.0,3.641
188.0,-30.0,3.642
162.0,1.0,3.643
71.0,25.0,3.644
-3.0,30.0,3.645
-27.0,20.0,3.646
-34.0,4.0,3.647
-45.0,-11.0,3.648
-37.0,-12.0,3.649
-7.0,1.0,3.65
13.0,12.0,3.651
-1.0,2.0,3.652
-35.0,-13.0,3.653
-75.0,-14.0,3.654
-111.0,-1.0,3.655
-126.0,3.0,3.656
-107.0,-4.0,3.657
-78.0,-13.0,3.658
-71.0,-13.0,3.659
-77.0,-6.0,3.66
-48.0,-2.0,3.661
27.0,7.0,3.662
100.0,11.0,3.663
117.0,4.0,3.664
90.0,-2.0,3.665
61.0,3.0,3.666
45.0,17.0,3.667
21.0,24.0,3.668
-5.0,18.0,3.669
0.0,6.0,3.67
40.0,-8.0,3.671
64.0,-11.0,3.672
40.0,10.0,3.673
-4.0,45.0,3.674
-24.0,55.0,3.675
-23.0,22.0,3.676
-28.0,-20.0,3.677
-45.0,-37.0,3.678
-52.0,-18.0,3.679
-41.0,1.0,3.68
-16.0,-1.0,3.681
12.0,-8.0,3.682
39.0,-3.0,3.683
51.0,10.0,3.684
47.0,14.0,3.685
36.0,8.0,3.686
22.0,-1.0,3.687
-9.0,-5.0,3.688
-57.0,-6.0,3.689
-89.0,-8.0,3.69
-71.0,-11.0,3.691
-17.0,-15.0,3.692
23.0,-17.0,3.693
26.0,-17.0,3.694
29.0,-12.0,3.695
68.0,-2.0,3.696
122.0,8.0,3.697
144.0,10.0,3.698
112.0,5.0,3.699
53.0,0.0,3.7
18.0,-2.0,3.701
21.0,2.0,3.702
33.0,4.0,3.703
19.0,3.0,3.704
-25.0,2.0,3.705
-60.0,5.0,3.706
-55.0,4.0,3.707
-23.0,0.0,3.708
-3.0,2.0,3.709
-7.0,17.0,3.71
-12.0,28.0,3.711
-3.0,22.0,3.712
6.0,0.0,3.713
10.0,-17.0,3.714
10.0,-14.0,3.715
13.0,16.0,3.716
11.0,54.0,3.717
3.0,74.0,3.718
2.0,63.0,3.719
3.0,26.0,3.72
3.0,-13.0,3.721
4.0,-33.0,3.722
0.0,-41.0,3.723
-27.0,-54.0,3.724
-69.0,-76.0,3.725
-78.0,-93.0,3.726
-36.0,-89.0,3.727
5.0,-61.0,3.728
-5.0,-10.0,3.729
-38.0,56.0,3.73
-44.0,121.0,3.731
-24.0,165.0,3.732
-13.0,188.0,3.733
-14.0,194.0,3.734
-7.0,171.0,3.735
-4.0,102.0,3.736
-16.0,9.0,3.737
-31.0,-78.0,3.738
-25.0,-117.0,3.739
3.0,-120.0,3.74
30.0,-130.0,3.741
40.0,-166.0,3.742
38.0,-218.0,3.743
26.0,-258.0,3.744
6.0,-271.0,3.745
-11.0,-237.0,3.746
-15.0,-151.0,3.747
-1.0,-10.0,3.748
18.0,176.0,3.749
26.0,369.0,3.75
22.0,490.0,3.751
25.0,469.0,3.752
48.0,314.0,3.753
69.0,103.0,3.754
60.0,-100.0,3.755
30.0,-273.0,3.756
16.0,-380.0,3.757
23.0,-392.0,3.758
29.0,-299.0,3.759
14.0,-160.0,3.76
2.0,-30.0,3.761
12.0,85.0,3.762
20.0,194.0,3.763
3.0,315.0,3.764
-27.0,480.0,3.765
-44.0,669.0,3.766
-46.0,763.0,3.767
-49.0,647.0,3.768
-50.0,354.0,3.769
-44.0,8.0,3.77
-34.0,-324.0,3.771
-18.0,-631.0,3.772
23.0,-824.0,3.773
90.0,-789.0,3.774
145.0,-554.0,3.775
149.0,-272.0,3.776
112.0,-66.0,3.777
52.0,68.0,3.778
-3.0,152.0,3.779
-39.0,209.0,3.78
-47.0,284.0,3.781
-38.0,398.0,3.782
-41.0,496.0,3.783
-64.0,539.0,3.784
-90.0,586.0,3.785
-111.0,720.0,3.786
-130.0,871.0,3.787
-133.0,825.0,3.788
-103.0,418.0,3.789
-53.0,-276.0,3.79
-22.0,-1016.0,3.791
-18.0,-1611.0,3.792
-16.0,-2028.0,3.793
2.0,-2267.0,3.794
24.0,-2248.0,3.795
39.0,-1925.0,3.796
48.0,-1470.0,3.797
53.0,-1017.0,3.798
55.0,-594.0,3.799
42.0,-160.0,3.8
26.0,303.0,3.801
18.0,685.0,3.802
27.0,822.0,3.803
43.0,956.0,3.804
48.0,1080.0,3.805
33.0,1183.0,3.806
8.0,1224.0,3.807
-22.0,1232.0,3.808
-57.0,1142.0,3.809
-79.0,1015.0,3.81
-62.0,777.0,3.811
-13.0,472.0,3.812
29.0,-29.0,3.813
33.0,-453.0,3.814
19.0,-639.0,3.815
8.0,-710.0,3.816
-2.0,-432.0,3.817
-11.0,-168.0,3.818
6.0,-45.0,3.819
48.0,-46.0,3.82
82.0,-40.0,3.821
96.0,7.0,3.822
128.0,44.0,3.823
179.0,65.0,3.824
188.0,118.0,3.825
124.0,225.0,3.826
42.0,355.0,3.827
14.0,467.0,3.828
17.0,561.0,3.829
-3.0,656.0,3.83
-33.0,730.0,3.831
-34.0,718.0,3.832
-12.0,589.0,3.833
-7.0,391.0,3.834
-28.0,194.0,3.835
-50.0,0.0,3.836
-60.0,-223.0,3.837
-59.0,-542.0,3.838
-32.0,-775.0,3.839
11.0,-879.0,3.84
29.0,-877.0,3.841
-6.0,-784.0,3.842
-69.0,-586.0,3.843
-115.0,-298.0,3.844
-125.0,-18.0,3.845
-82.0,169.0,3.846
5.0,279.0,3.847
80.0,387.0,3.848
91.0,519.0,3.849
60.0,627.0,3.85
53.0,640.0,3.851
67.0,504.0,3.852
53.0,241.0,3.853
7.0,-29.0,3.854
-32.0,-190.0,3.855
-65.0,-255.0,3.856
-121.0,-328.0,3.857
-196.0,717.0,3.858
-230.0,832.0,3.859
-200.0,807.0,3.86
-135.0,353.0,3.861
-64.0,-121.0,3.862
-2.0,-649.0,3.863
37.0,-964.0,3.864
72.0,-639.0,3.865
147.0,-300.0,3.866
247.0,78.0,3.867
291.0,366.0,3.868
241.0,393.0,3.869
156.0,393.0,3.87
84.0,309.0,3.871
-1.0,219.0,3.872
-106.0,114.0,3.873
-173.0,18.0,3.874
-169.0,-46.0,3.875
-152.0,-60.0,3.876
-173.0,79.0,3.877
-192.0,462.0,3.878
-142.0,530.0,3.879
-49.0,515.0,3.88
-4.0,247.0,3.881
-27.0,-33.0,3.882
-41.0,-345.0,3.883
11.0,-531.0,3.884
84.0,-339.0,3.885
97.0,-139.0,3.886
66.0,84.0,3.887
86.0,255.0,3.888
180.0,271.0,3.889
251.0,271.0,3.89
217.0,221.0,3.891
138.0,168.0,3.892
120.0,106.0,3.893
155.0,49.0,3.894
154.0,11.0,3.895
102.0,3.0,3.896
74.0,85.0,3.897
65.0,165.0,3.898
-2.0,198.0,3.899
-78.0,183.0,3.9
-180.0,166.0,3.901
-248.0,177.0,3.902
-213.0,196.0,3.903
-184.0,211.0,3.904
-175.0,219.0,3.905
-148.0,196.0,3.906
-70.0,118.0,3.907
0.0,25.0,3.908
46.0,-8.0,3.909
92.0,23.0,3.91
137.0,56.0,3.911
155.0,52.0,3.912
88.0,44.0,3.913
35.0,56.0,3.914
21.0,104.0,3.915
6.0,244.0,3.916
-13.0,497.0,3.917
-30.0,776.0,3.918
-26.0,860.0,3.919
7.0,647.0,3.92
74.0,254.0,3.921
143.0,-169.0,3.922
155.0,-599.0,3.923
84.0,-984.0,3.924
-25.0,-1158.0,3.925
-106.0,-1023.0,3.926
-159.0,-719.0,3.927
-215.0,-465.0,3.928
-261.0,-328.0,3.929
-252.0,-242.0,3.93
-170.0,-160.0,3.931
-45.0,-55.0,3.932
81.0,142.0,3.933
173.0,447.0,3.934
207.0,723.0,3.935
199.0,809.0,3.936
201.0,710.0,3.937
221.0,-881.0,3.938
200.0,-582.0,3.939
95.0,-315.0,3.94
-22.0,-153.0,3.941
-65.0,-9.0,3.942
-61.0,82.0,3.943
-91.0,160.0,3.944
-134.0,202.0,3.945
-118.0,249.0,3.946
-79.0,310.0,3.947
-126.0,373.0,3.948
-214.0,434.0,3.949
-188.0,540.0,3.95
-57.0,780.0,3.951
-28.0,992.0,3.952
-170.0,1119.0,3.953
-297.0,1116.0,3.954
-265.0,716.0,3.955
-168.0,260.0,3.956
-98.0,-365.0,3.957
29.0,-1308.0,3.958
221.0,-896.0,3.959
350.0,-529.0,3.96
290.0,-305.0,3.961
246.0,-107.0,3.962
254.0,18.0,3.963
242.0,126.0,3.964
171.0,184.0,3.965
121.0,248.0,3.966
139.0,333.0,3.967
129.0,419.0,3.968
34.0,503.0,3.969
-21.0,650.0,3.97
47.0,979.0,3.971
72.0,1271.0,3.972
-31.0,1446.0,3.973
-107.0,1441.0,3.974
-101.0,891.0,3.975
-97.0,263.0,3.976
-103.0,-597.0,3.977
-108.0,-718.0,3.978
-43.0,-462.0,3.979
102.0,-234.0,3.98
173.0,-95.0,3.981
109.0,28.0,3.982
7.0,106.0,3.983
-61.0,173.0,3.984
-126.0,209.0,3.985
-194.0,249.0,3.986
-196.0,302.0,3.987
-108.0,356.0,3.988
-26.0,408.0,3.989
-46.0,499.0,3.99
-126.0,704.0,3.991
-140.0,885.0,3.992
-59.0,994.0,3.993
25.0,991.0,3.994
55.0,649.0,3.995
81.0,259.0,3.996
134.0,-276.0,3.997
149.0,-826.0,3.998
71.0,-1347.0,3.999
-50.0,-1575.0,4.0
-113.0,-1407.0,4.001
-104.0,-989.0,4.002
-65.0,-568.0,4.003
-16.0,-254.0,4.004
47.0,-25.0,4.005
90.0,146.0,4.006
99.0,262.0,4.007
124.0,353.0,4.008
199.0,422.0,4.009
245.0,412.0,4.01
177.0,296.0,4.011
33.0,169.0,4.012
-73.0,122.0,4.013
-116.0,108.0,4.014
-155.0,29.0,4.015
-199.0,-83.0,4.016
-184.0,-106.0,4.017
-89.0,261.0,4.018
9.0,290.0,4.019
37.0,262.0,4.02
23.0,61.0,4.021
25.0,-133.0,4.022
50.0,-310.0,4.023
71.0,-456.0,4.024
68.0,-513.0,4.025
43.0,-448.0,4.026
0.0,-9.0,4.027
-31.0,386.0,4.028
-18.0,647.0,4.029
16.0,778.0,4.03
14.0,515.0,4.031
-30.0,213.0,4.032
-34.0,-196.0,4.033
64.0,-478.0,4.034
218.0,-375.0,4.035
317.0,-316.0,4.036
307.0,-392.0,4.037
194.0,207.0,4.038
22.0,230.0,4.039
-167.0,208.0,4.04
-315.0,47.0,4.041
-354.0,-109.0,4.042
-281.0,-250.0,4.043
-181.0,-367.0,4.044
-136.0,-413.0,4.045
-134.0,-361.0,4.046
-111.0,-9.0,4.047
-71.0,307.0,4.048
-80.0,516.0,4.049
-135.0,621.0,4.05
-143.0,410.0,4.051
-52.0,169.0,4.052
63.0,-159.0,4.053
122.0,-385.0,4.054
135.0,-302.0,4.055
154.0,-255.0,4.056
179.0,-316.0,4.057
172.0,-431.0,4.058
136.0,-659.0,4.059
104.0,-684.0,4.06
87.0,-497.0,4.061
79.0,-240.0,4.062
100.0,-34.0,4.063
117.0,104.0,4.064
117.0,188.0,4.065
112.0,190.0,4.066
97.0,104.0,4.067
51.0,10.0,4.068
-86.0,12.0,4.069
-185.0,100.0,4.07
-165.0,177.0,4.071
-139.0,221.0,4.072
-95.0,329.0,4.073
-47.0,528.0,4.074
6.0,677.0,4.075
60.0,623.0,4.076
112.0,375.0,4.077
148.0,-721.0,4.078
129.0,-578.0,4.079
110.0,-467.0,4.08
63.0,-450.0,4.081
-19.0,-374.0,4.082
-76.0,-127.0,4.083
-76.0,120.0,4.084
-64.0,374.0,4.085
-76.0,598.0,4.086
-86.0,729.0,4.087
-80.0,768.0,4.088
-84.0,523.0,4.089
-95.0,261.0,4.09
-77.0,-47.0,4.091
-29.0,-274.0,4.092
4.0,-256.0,4.093
18.0,-228.0,4.094
56.0,-171.0,4.095
122.0,-78.0,4.096
172.0,123.0,4.097
185.0,-468.0,4.098
164.0,-376.0,4.099
101.0,-305.0,4.1
0.0,-294.0,4.101
-96.0,-245.0,4.102
-141.0,-86.0,4.103
-144.0,72.0,4.104
-126.0,236.0,4.105
-88.0,379.0,4.106
-51.0,464.0,4.107
-64.0,488.0,4.108
-129.0,331.0,4.109
-166.0,163.0,4.11
-121.0,-34.0,4.111
-51.0,-181.0,4.112
-16.0,-169.0,4.113
12.0,-151.0,4.114
85.0,-114.0,4.115
161.0,-55.0,4.116
169.0,74.0,4.117
99.0,-638.0,4.118
39.0,-512.0,4.119
51.0,-414.0,4.12
122.0,-399.0,4.121
203.0,-332.0,4.122
255.0,-114.0,4.123
246.0,105.0,4.124
170.0,329.0,4.125
57.0,526.0,4.126
-38.0,642.0,4.127
-68.0,676.0,4.128
-33.0,460.0,4.129
19.0,229.0,4.13
33.0,-43.0,4.131
-19.0,-244.0,4.132
-128.0,-228.0,4.133
-260.0,-203.0,4.134
-365.0,-153.0,4.135
-370.0,-71.0,4.136
-254.0,107.0,4.137
-61.0,313.0,4.138
95.0,562.0,4.139
154.0,623.0,4.14
129.0,455.0,4.141
55.0,225.0,4.142
-38.0,76.0,4.143
-102.0,-55.0,4.144
-89.0,-287.0,4.145
-9.0,-555.0,4.146
97.0,-681.0,4.147
186.0,-643.0,4.148
205.0,-585.0,4.149
119.0,-572.0,4.15
-30.0,-497.0,4.151
-125.0,-290.0,4.152
-112.0,-48.0,4.153
-64.0,118.0,4.154
-50.0,242.0,4.155
-43.0,390.0,4.156
-13.0,530.0,4.157
4.0,603.0,4.158
-26.0,604.0,4.159
-43.0,562.0,4.16
9.0,428.0,4.161
84.0,144.0,4.162
102.0,-226.0,4.163
75.0,-497.0,4.164
70.0,-548.0,4.165
81.0,-431.0,4.166
74.0,-270.0,4.167
80.0,-123.0,4.168
170.0,-16.0,4.169
316.0,0.0,4.17
389.0,-95.0,4.171
303.0,-207.0,4.172
106.0,-180.0,4.173
-110.0,22.0,4.174
-296.0,282.0,4.175
-406.0,481.0,4.176
-388.0,593.0,4.177
-245.0,-57.0,4.178
-99.0,188.0,4.179
-68.0,397.0,4.18
-115.0,496.0,4.181
-133.0,558.0,4.182
-101.0,507.0,4.183
-58.0,458.0,4.184
-2.0,417.0,4.185
72.0,306.0,4.186
102.0,-13.0,4.187
54.0,-339.0,4.188
16.0,-693.0,4.189
53.0,-899.0,4.19
88.0,-658.0,4.191
47.0,-472.0,4.192
18.0,-452.0,4.193
77.0,-442.0,4.194
120.0,-463.0,4.195
34.0,-437.0,4.196
-87.0,-269.0,4.197
-109.0,-50.0,4.198
-45.0,235.0,4.199
-18.0,478.0,4.2
-48.0,593.0,4.201
-57.0,665.0,4.202
-25.0,606.0,4.203
3.0,549.0,4.204
10.0,501.0,4.205
5.0,372.0,4.206
-3.0,1.0,4.207
2.0,-380.0,4.208
65.0,-792.0,4.209
165.0,-1031.0,4.21
220.0,-751.0,4.211
191.0,-534.0,4.212
134.0,-511.0,4.213
99.0,-499.0,4.214
68.0,-524.0,4.215
34.0,-494.0,4.216
39.0,-298.0,4.217
77.0,-69.0,4.218
68.0,275.0,4.219
-22.0,585.0,4.22
-100.0,761.0,4.221
-68.0,783.0,4.222
24.0,711.0,4.223
72.0,644.0,4.224
71.0,603.0,4.225
68.0,519.0,4.226
45.0,352.0,4.227
-60.0,190.0,4.228
-228.0,125.0,4.229
-369.0,104.0,4.23
-425.0,-3.0,4.231
-385.0,-212.0,4.232
-254.0,-400.0,4.233
-79.0,-449.0,4.234
57.0,-305.0,4.235
125.0,11.0,4.236
179.0,367.0,4.237
242.0,629.0,4.238
236.0,701.0,4.239
103.0,615.0,4.24
-66.0,394.0,4.241
-128.0,-47.0,4.242
-63.0,-691.0,4.243
25.0,-1241.0,4.244
43.0,-1350.0,4.245
-17.0,-992.0,4.246
-96.0,-423.0,4.247
-126.0,142.0,4.248
-94.0,646.0,4.249
-58.0,1028.0,4.25
-56.0,1203.0,4.251
-39.0,1191.0,4.252
55.0,1059.0,4.253
189.0,736.0,4.254
257.0,84.0,4.255
234.0,-752.0,4.256
186.0,-1316.0,4.257
134.0,-1382.0,4.258
70.0,-1104.0,4.259
4.0,-836.0,4.26
-6.0,-684.0,4.261
30.0,-543.0,4.262
33.0,-458.0,4.263
-30.0,-549.0,4.264
-76.0,-667.0,4.265
-24.0,-470.0,4.266
82.0,80.0,4.267
129.0,613.0,4.268
67.0,809.0,4.269
-33.0,719.0,4.27
-91.0,547.0,4.271
-95.0,366.0,4.272
-99.0,186.0,4.273
-127.0,80.0,4.274
-141.0,103.0,4.275
-117.0,196.0,4.276
-78.0,256.0,4.277
-62.0,187.0,4.278
-60.0,-21.0,4.279
-39.0,-211.0,4.28
8.0,-344.0,4.281
68.0,-397.0,4.282
129.0,-210.0,4.283
178.0,-52.0,4.284
191.0,20.0,4.285
169.0,72.0,4.286
148.0,62.0,4.287
142.0,69.0,4.288
102.0,125.0,4.289
-8.0,206.0,4.29
-145.0,361.0,4.291
-219.0,489.0,4.292
-202.0,533.0,4.293
-150.0,580.0,4.294
-125.0,632.0,4.295
-109.0,664.0,4.296
-55.0,638.0,4.297
41.0,588.0,4.298
108.0,414.0,4.299
92.0,186.0,4.3
34.0,53.0,4.301
-6.0,36.0,4.302
-13.0,-91.0,4.303
2.0,-488.0,4.304
35.0,-970.0,4.305
52.0,-1217.0,4.306
17.0,-1130.0,4.307
-37.0,-831.0,4.308
-36.0,-434.0,4.309
20.0,-18.0,4.31
32.0,255.0,4.311
-37.0,243.0,4.312
-103.0,15.0,4.313
-83.0,-186.0,4.314
-8.0,-182.0,4.315
40.0,14.0,4.316
53.0,248.0,4.317
60.0,348.0,4.318
58.0,160.0,4.319
21.0,-299.0,4.32
-38.0,-749.0,4.321
-68.0,-847.0,4.322
-38.0,-531.0,4.323
30.0,-93.0,4.324
96.0,139.0,4.325
134.0,110.0,4.326
140.0,25.0,4.327
118.0,51.0,4.328
77.0,173.0,4.329
50.0,287.0,4.33
59.0,338.0,4.331
74.0,335.0,4.332
39.0,304.0,4.333
-46.0,266.0,4.334
-98.0,221.0,4.335
-80.0,149.0,4.336
-56.0,59.0,4.337
-81.0,-19.0,4.338
-105.0,-26.0,4.339
-61.0,52.0,4.34
5.0,191.0,4.341
11.0,384.0,4.342
-22.0,636.0,4.343
-20.0,911.0,4.344
-1.0,1118.0,4.345
-24.0,1142.0,4.346
-60.0,874.0,4.347
-44.0,266.0,4.348
-18.0,-557.0,4.349
-44.0,-1270.0,4.35
-60.0,-1542.0,4.351
11.0,-1295.0,4.352
98.0,-742.0,4.353
80.0,-199.0,4.354
8.0,124.0,4.355
4.0,189.0,4.356
44.0,106.0,4.357
18.0,-11.0,4.358
-60.0,-124.0,4.359
-73.0,-250.0,4.36
-9.0,-416.0,4.361
29.0,-508.0,4.362
20.0,-373.0,4.363
27.0,-187.0,4.364
56.0,149.0,4.365
42.0,490.0,4.366
7.0,844.0,4.367
32.0,1031.0,4.368
104.0,716.0,4.369
122.0,294.0,4.37
70.0,-446.0,4.371
26.0,-1066.0,4.372
3.0,-1327.0,4.373
-63.0,-1412.0,4.374
-167.0,-966.0,4.375
-214.0,-572.0,4.376
-180.0,-331.0,4.377
-133.0,-124.0,4.378
-102.0,-3.0,4.379
-38.0,142.0,4.38
70.0,271.0,4.381
140.0,420.0,4.382
136.0,616.0,4.383
118.0,776.0,4.384
114.0,797.0,4.385
73.0,696.0,4.386
0.0,524.0,4.387
-31.0,279.0,4.388
-1.0,-7.0,4.389
17.0,-166.0,4.39
-4.0,-81.0,4.391
-1.0,128.0,4.392
42.0,227.0,4.393
60.0,158.0,4.394
21.0,72.0,4.395
-6.0,114.0,4.396
15.0,262.0,4.397
47.0,421.0,4.398
42.0,468.0,4.399
1.0,328.0,4.4
-42.0,26.0,4.401
-66.0,-293.0,4.402
-50.0,-459.0,4.403
8.0,-369.0,4.404
59.0,-71.0,4.405
59.0,264.0,4.406
26.0,476.0,4.407
3.0,544.0,4.408
-17.0,560.0,4.409
-46.0,533.0,4.41
-54.0,345.0,4.411
-16.0,-30.0,4.412
28.0,-407.0,4.413
24.0,-590.0,4.414
-20.0,-616.0,4.415
-48.0,-628.0,4.416
-42.0,-626.0,4.417
-28.0,-475.0,4.418
-49.0,-136.0,4.419
-116.0,242.0,4.42
-174.0,492.0,4.421
-141.0,580.0,4.422
-15.0,532.0,4.423
99.0,291.0,4.424
106.0,-269.0,4.425
36.0,-1096.0,4.426
-15.0,-1791.0,4.427
-9.0,-1875.0,4.428
18.0,-1302.0,4.429
32.0,-571.0,4.43
37.0,-203.0,4.431
49.0,-239.0,4.432
69.0,-360.0,4.433
83.0,-314.0,4.434
63.0,-81.0,4.435
12.0,243.0,4.436
-22.0,514.0,4.437
-5.0,638.0,4.438
41.0,644.0,4.439
56.0,650.0,4.44
32.0,651.0,4.441
18.0,631.0,4.442
44.0,547.0,4.443
83.0,486.0,4.444
96.0,500.0,4.445
76.0,494.0,4.446
40.0,428.0,4.447
3.0,374.0,4.448
-26.0,352.0,4.449
-42.0,309.0,4.45
-55.0,203.0,4.451
-68.0,99.0,4.452
-62.0,2.0,4.453
-22.0,-73.0,4.454
24.0,-83.0,4.455
23.0,-52.0,4.456
-24.0,101.0,4.457
-71.0,246.0,4.458
-69.0,304.0,4.459
-30.0,243.0,4.46
7.0,85.0,4.461
26.0,-139.0,4.462
34.0,-390.0,4.463
30.0,-574.0,4.464
8.0,-606.0,4.465
-19.0,-490.0,4.466
-47.0,-301.0,4.467
-82.0,-128.0,4.468
-121.0,-9.0,4.469
-125.0,64.0,4.47
-78.0,129.0,4.471
-11.0,212.0,4.472
32.0,319.0,4.473
55.0,403.0,4.474
80.0,387.0,4.475
104.0,244.0,4.476
112.0,51.0,4.477
100.0,-159.0,4.478
72.0,-395.0,4.479
23.0,-665.0,4.48
-33.0,-856.0,4.481
-62.0,-800.0,4.482
-48.0,-514.0,4.483
-25.0,-205.0,4.484
-29.0,-28.0,4.485
-43.0,47.0,4.486
-26.0,122.0,4.487
18.0,233.0,4.488
50.0,365.0,4.489
55.0,485.0,4.49
57.0,528.0,4.491
63.0,446.0,4.492
63.0,282.0,4.493
50.0,128.0,4.494
25.0,23.0,4.495
-3.0,-59.0,4.496
-22.0,-126.0,4.497
-25.0,-192.0,4.498
-11.0,-275.0,4.499
-3.0,-375.0,4.5
-6.0,-433.0,4.501
3.0,-397.0,4.502
36.0,-303.0,4.503
59.0,-214.0,4.504
41.0,-135.0,4.505
5.0,-47.0,4.506
-10.0,30.0,4.507
-4.0,70.0,4.508
-14.0,84.0,4.509
-43.0,102.0,4.51
-62.0,131.0,4.511
-58.0,163.0,4.512
-45.0,193.0,4.513
-32.0,210.0,4.514
-18.0,197.0,4.515
-2.0,170.0,4.516
0.0,161.0,4.517
-21.0,162.0,4.518
-38.0,150.0,4.519
-16.0,115.0,4.52
46.0,78.0,4.521
93.0,62.0,4.522
81.0,54.0,4.523
31.0,42.0,4.524
0.0,33.0,4.525
0.0,35.0,4.526
-5.0,42.0,4.527
-24.0,45.0,4.528
-28.0,40.0,4.529
-11.0,37.0,4.53
0.0,37.0,4.531
-8.0,20.0,4.532
-15.0,-38.0,4.533
-7.0,-125.0,4.534
-5.0,-185.0,4.535
-18.0,-169.0,4.536
-23.0,-98.0,4.537
-19.0,-32.0,4.538
-13.0,-11.0,4.539
-13.0,-28.0,4.54
-3.0,-53.0,4.541
13.0,-65.0,4.542
6.0,-53.0,4.543
-29.0,-18.0,4.544
-59.0,13.0,4.545
-48.0,13.0,4.546
-1.0,-6.0,4.547
36.0,-9.0,4.548
41.0,9.0,4.549
39.0,22.0,4.55
68.0,18.0,4.551
128.0,19.0,4.552
170.0,33.0,4.553
150.0,35.0,4.554
83.0,10.0,4.555
13.0,-29.0,4.556
-22.0,-62.0,4.557
-28.0,-82.0,4.558
-23.0,-76.0,4.559
-25.0,-43.0,4.56
-35.0,-6.0,4.561
-40.0,12.0,4.562
-32.0,10.0,4.563
-21.0,5.0,4.564
-18.0,7.0,4.565
-25.0,9.0,4.566
-34.0,8.0,4.567
-41.0,8.0,4.568
-42.0,11.0,4.569
-33.0,18.0,4.57
-16.0,27.0,4.571
0.0,34.0,4.572
7.0,26.0,4.573
11.0,3.0,4.574
15.0,-18.0,4.575
16.0,-22.0,4.576
15.0,-13.0,4.577
10.0,-8.0,4.578
3.0,-6.0,4.579
-13.0,-2.0,4.58
-34.0,2.0,4.581
-39.0,5.0,4.582
-17.0,1.0,4.583
15.0,-3.0,4.584
27.0,-3.0,4.585
16.0,-3.0,4.586
4.0,-9.0,4.587
14.0,-14.0,4.588
29.0,-10.0,4.589
30.0,-2.0,4.59
14.0,6.0,4.591
-1.0,9.0,4.592
-3.0,7.0,4.593
-7.0,2.0,4.594
-31.0,0.0,4.595
-73.0,6.0,4.596
-109.0,12.0,4.597
-126.0,9.0,4.598
-121.0,-2.0,4.599
-106.0,-8.0,4.6
-73.0,-8.0,4.601
-10.0,-5.0,4.602
84.0,-6.0,4.603
177.0,-4.0,4.604
230.0,6.0,4.605
234.0,10.0,4.606
207.0,2.0,4.607
178.0,-4.0,4.608
141.0,0.0,4.609
89.0,9.0,4.61
35.0,6.0,4.611
-1.0,-1.0,4.612
-24.0,-3.0,4.613
-49.0,0.0,4.614
-70.0,1.0,4.615
-74.0,2.0,4.616
-66.0,4.0,4.617
-67.0,4.0,4.618
-78.0,0.0,4.619
-84.0,-7.0,4.62
-75.0,-16.0,4.621
-62.0,-23.0,4.622
-45.0,-22.0,4.623
-14.0,-10.0,4.624
17.0,8.0,4.625
20.0,19.0,4.626
-7.0,15.0,4.627
-30.0,9.0,4.628
-38.0,17.0,4.629
-51.0,31.0,4.63
-78.0,25.0,4.631
-82.0,3.0,4.632
-35.0,-8.0,4.633
24.0,-1.0,4.634
44.0,9.0,4.635
32.0,6.0,4.636
40.0,5.0,4.637
76.0,17.0,4.638
99.0,36.0,4.639
85.0,44.0,4.64
61.0,28.0,4.641
48.0,0.0,4.642
28.0,-31.0,4.643
-8.0,-62.0,4.644
-36.0,-75.0,4.645
-41.0,-69.0,4.646
-44.0,-51.0,4.647
-57.0,-33.0,4.648
-63.0,-14.0,4.649
-48.0,8.0,4.65
-29.0,33.0,4.651
-21.0,51.0,4.652
-8.0,73.0,4.653
19.0,107.0,4.654
39.0,146.0,4.655
35.0,170.0,4.656
24.0,174.0,4.657
26.0,144.0,4.658
40.0,65.0,4.659
47.0,-72.0,4.66
42.0,-228.0,4.661
38.0,-324.0,4.662
45.0,-323.0,4.663
57.0,-255.0,4.664
58.0,-180.0,4.665
33.0,-123.0,4.666
-11.0,-74.0,4.667
-46.0,-24.0,4.668
-43.0,15.0,4.669
-11.0,39.0,4.67
16.0,58.0,4.671
17.0,71.0,4.672
2.0,72.0,4.673
-7.0,66.0,4.674
-10.0,62.0,4.675
-13.0,65.0,4.676
-12.0,66.0,4.677
-11.0,56.0,4.678
-17.0,45.0,4.679
-26.0,38.0,4.68
-24.0,31.0,4.681
-12.0,33.0,4.682
-4.0,48.0,4.683
1.0,69.0,4.684
18.0,65.0,4.685
37.0,37.0,4.686
35.0,18.0,4.687
9.0,26.0,4.688
-9.0,33.0,4.689
-10.0,15.0,4.69
-10.0,-14.0,4.691
-8.0,-21.0,4.692
13.0,-10.0,4.693
30.0,-7.0,4.694
-2.0,-12.0,4.695
-73.0,-14.0,4.696
-109.0,-9.0,4.697
-79.0,-13.0,4.698
-24.0,-19.0,4.699
-7.0,-13.0,4.7
-15.0,-5.0,4.701
8.0,-3.0,4.702
58.0,-7.0,4.703
85.0,-3.0,4.704
61.0,5.0,4.705
23.0,5.0,4.706
11.0,-2.0,4.707
17.0,2.0,4.708
13.0,21.0,4.709
-1.0,34.0,4.71
-3.0,34.0,4.711
3.0,26.0,4.712
1.0,11.0,4.713
-1.0,-14.0,4.714
9.0,-39.0,4.715
18.0,-46.0,4.716
15.0,-30.0,4.717
11.0,-12.0,4.718
26.0,0.0,4.719
45.0,8.0,4.72
44.0,11.0,4.721
30.0,14.0,4.722
29.0,16.0,4.723
47.0,21.0,4.724
67.0,24.0,4.725
72.0,18.0,4.726
50.0,5.0,4.727
1.0,-5.0,4.728
-49.0,-11.0,4.729
-68.0,-21.0,4.73
-61.0,-28.0,4.731
-67.0,-27.0,4.732
-91.0,-24.0,4.733
-93.0,-23.0,4.734
-65.0,-19.0,4.735
-37.0,-9.0,4.736
-30.0,2.0,4.737
-30.0,5.0,4.738
-18.0,2.0,4.739
-8.0,0.0,4.74
-9.0,-5.0,4.741
-5.0,-9.0,4.742
16.0,-12.0,4.743
36.0,-14.0,4.744
38.0,-19.0,4.745
25.0,-29.0,4.746
14.0,-39.0,4.747
2.0,-41.0,4.748
-14.0,-32.0,4.749
-23.0,-15.0,4.75
-10.0,11.0,4.751
23.0,42.0,4.752
55.0,60.0,4.753
69.0,50.0,4.754
56.0,18.0,4.755
37.0,-9.0,4.756
29.0,-12.0,4.757
43.0,-8.0,4.758
68.0,-12.0,4.759
70.0,-19.0,4.76
44.0,-22.0,4.761
20.0,-17.0,4.762
27.0,-16.0,4.763
46.0,-18.0,4.764
29.0,-15.0,4.765
-23.0,-7.0,4.766
-49.0,-9.0,4.767
-24.0,-18.0,4.768
0.0,-24.0,4.769
-31.0,-25.0,4.77
-88.0,-27.0,4.771
-104.0,-37.0,4.772
-77.0,-45.0,4.773
-54.0,-40.0,4.774
-51.0,-18.0,4.775
-38.0,9.0,4.776
-7.0,37.0,4.777
19.0,55.0,4.778
25.0,62.0,4.779
25.0,51.0,4.78
28.0,25.0,4.781
25.0,-1.0,4.782
16.0,-9.0,4.783
14.0,0.0,4.784
20.0,11.0,4.785
20.0,12.0,4.786
14.0,6.0,4.787
13.0,5.0,4.788
13.0,6.0,4.789
2.0,2.0,4.79
-10.0,0.0,4.791
-10.0,4.0,4.792
-2.0,7.0,4.793
7.0,-4.0,4.794
19.0,-23.0,4.795
27.0,-34.0,4.796
22.0,-28.0,4.797
2.0,-15.0,4.798
-10.0,-7.0,4.799
-6.0,-3.0,4.8
1.0,-5.0,4.801
-3.0,-2.0,4.802
-10.0,2.0,4.803
-2.0,5.0,4.804
13.0,10.0,4.805
27.0,11.0,4.806
40.0,11.0,4.807
53.0,9.0,4.808
58.0,8.0,4.809
44.0,5.0,4.81
18.0,3.0,4.811
-9.0,-2.0,4.812
-28.0,-6.0,4.813
-42.0,-8.0,4.814
-44.0,-8.0,4.815
-30.0,-7.0,4.816
-7.0,-3.0,4.817
5.0,4.0,4.818
-2.0,12.0,4.819
-32.0,16.0,4.82
-66.0,10.0,4.821
-79.0,4.0,4.822
-50.0,3.0,4.823
10.0,8.0,4.824
68.0,17.0,4.825
95.0,30.0,4.826
101.0,37.0,4.827
112.0,29.0,4.828
117.0,5.0,4.829
81.0,-17.0,4.83
3.0,-16.0,4.831
-60.0,4.0,4.832
-65.0,15.0,4.833
-31.0,9.0,4.834
-14.0,5.0,4.835
-42.0,15.0,4.836
-87.0,24.0,4.837
-108.0,10.0,4.838
-82.0,-10.0,4.839
-33.0,-19.0,4.84
-13.0,-17.0,4.841
-34.0,-19.0,4.842
-58.0,-28.0,4.843
-39.0,-24.0,4.844
3.0,-9.0,4.845
28.0,0.0,4.846
23.0,-2.0,4.847
12.0,7.0,4.848
6.0,38.0,4.849
-3.0,61.0,4.85
-8.0,39.0,4.851
24.0,-12.0,4.852
111.0,-40.0,4.853
202.0,-28.0,4.854
220.0,-5.0,4.855
143.0,3.0,4.856
47.0,6.0,4.857
-18.0,13.0,4.858
-58.0,20.0,4.859
-103.0,10.0,4.86
-124.0,-7.0,4.861
-78.0,-8.0,4.862
-7.0,-5.0,4.863
2.0,-15.0,4.864
-54.0,-34.0,4.865
-100.0,-46.0,4.866
-84.0,-49.0,4.867
-35.0,-53.0,4.868
9.0,-51.0,4.869
38.0,-23.0,4.87
52.0,25.0,4.871
59.0,70.0,4.872
71.0,93.0,4.873
82.0,81.0,4.874
68.0,41.0,4.875
26.0,-4.0,4.876
-4.0,-22.0,4.877
-8.0,-12.0,4.878
-2.0,4.0,4.879
-16.0,12.0,4.88
-36.0,14.0,4.881
-39.0,16.0,4.882
-27.0,13.0,4.883
-19.0,4.0,4.884
-9.0,2.0,4.885
6.0,9.0,4.886
19.0,6.0,4.887
18.0,-11.0,4.888
13.0,-27.0,4.889
13.0,-28.0,4.89
12.0,-17.0,4.891
0.0,-6.0,4.892
-7.0,3.0,4.893
5.0,2.0,4.894
28.0,-11.0,4.895
36.0,-25.0,4.896
23.0,-21.0,4.897
-7.0,-6.0,4.898
-41.0,2.0,4.899
-76.0,-3.0,4.9
-94.0,-10.0,4.901
-68.0,-9.0,4.902
-3.0,-9.0,4.903
65.0,-12.0,4.904
91.0,-11.0,4.905
79.0,-6.0,4.906
63.0,-5.0,4.907
49.0,-9.0,4.908
23.0,-8.0,4.909
-5.0,3.0,4.91
-8.0,14.0,4.911
3.0,17.0,4.912
0.0,14.0,4.913
-11.0,14.0,4.914
-6.0,13.0,4.915
10.0,11.0,4.916
6.0,11.0,4.917
-15.0,7.0,4.918
-16.0,-5.0,4.919
-1.0,-21.0,4.92
2.0,-31.0,4.921
-12.0,-20.0,4.922
-14.0,0.0,4.923
-1.0,11.0,4.924
-3.0,8.0,4.925
-14.0,-1.0,4.926
-9.0,-3.0,4.927
8.0,10.0,4.928
2.0,26.0,4.929
-22.0,28.0,4.93
-34.0,12.0,4.931
-29.0,-4.0,4.932
-35.0,-6.0,4.933
-44.0,0.0,4.934
-34.0,2.0,4.935
-10.0,-4.0,4.936
17.0,-6.0,4.937
61.0,-2.0,4.938
122.0,1.0,4.939
149.0,0.0,4.94
102.0,-4.0,4.941
32.0,0.0,4.942
11.0,1.0,4.943
27.0,-5.0,4.944
15.0,-9.0,4.945
-28.0,-9.0,4.946
-55.0,-10.0,4.947
-55.0,-19.0,4.948
-61.0,-28.0,4.949
-68.0,-30.0,4.95
-43.0,-20.0,4.951
11.0,-4.0,4.952
67.0,8.0,4.953
110.0,9.0,4.954
142.0,7.0,4.955
147.0,13.0,4.956
105.0,27.0,4.957
13.0,27.0,4.958
-78.0,17.0,4.959
-139.0,24.0,4.96
-168.0,43.0,4.961
-174.0,41.0,4.962
-160.0,5.0,4.963
-126.0,-22.0,4.964
-85.0,-10.0,4.965
-46.0,9.0,4.966
-8.0,0.0,4.967
32.0,-20.0,4.968
61.0,-19.0,4.969
79.0,-7.0,4.97
94.0,-9.0,4.971
109.0,-19.0,4.972
103.0,-16.0,4.973
68.0,-7.0,4.974
31.0,-10.0,4.975
18.0,-25.0,4.976
23.0,-31.0,4.977
21.0,-25.0,4.978
7.0,-1.0,4.979
-7.0,29.0,4.98
-15.0,44.0,4.981
-26.0,30.0,4.982
-44.0,3.0,4.983
-54.0,-10.0,4.984
-36.0,-6.0,4.985
5.0,-5.0,4.986
44.0,-14.0,4.987
54.0,-15.0,4.988
43.0,-4.0,4.989
36.0,3.0,4.99
34.0,2.0,4.991
17.0,1.0,4.992
-6.0,6.0,4.993
-11.0,7.0,4.994
-6.0,2.0,4.995
-34.0,2.0,4.996
-94.0,8.0,4.997
-150.0,5.0,4.998
-153.0,-3.0,4.999
-102.0,-6.0,5.0
-11.0,-2.0,5.001
114.0,2.0,5.002
243.0,0.0,5.003
298.0,-4.0,5.004
216.0,-6.0,5.005
33.0,-7.0,5.006
-138.0,-9.0,5.007
-196.0,-8.0,5.008
-142.0,2.0,5.009
-67.0,19.0,5.01
-42.0,32.0,5.011
-35.0,31.0,5.012
26.0,16.0,5.013
124.0,0.0,5.014
152.0,-2.0,5.015
86.0,3.0,5.016
32.0,2.0,5.017
52.0,-13.0,5.018
84.0,-31.0,5.019
46.0,-44.0,5.02
-25.0,-53.0,5.021
-41.0,-50.0,5.022
-17.0,-29.0,5.023
-24.0,13.0,5.024
-55.0,63.0,5.025
-56.0,97.0,5.026
-31.0,92.0,5.027
-28.0,45.0,5.028
-44.0,-9.0,5.029
-38.0,-32.0,5.03
-14.0,-14.0,5.031
-7.0,17.0,5.032
-17.0,30.0,5.033
-16.0,30.0,5.034
-4.0,27.0,5.035
-3.0,9.0,5.036
-9.0,-19.0,5.037
-4.0,-43.0,5.038
10.0,-32.0,5.039
11.0,-5.0,5.04
1.0,4.0,5.041
-4.0,-1.0,5.042
1.0,-1.0,5.043
4.0,5.0,5.044
-3.0,-2.0,5.045
-17.0,-18.0,5.046
-32.0,-28.0,5.047
-46.0,-27.0,5.048
-49.0,-27.0,5.049
-37.0,-28.0,5.05
-4.0,-23.0,5.051
45.0,-18.0,5.052
77.0,-16.0,5.053
55.0,-17.0,5.054
-1.0,-14.0,5.055
-25.0,-9.0,5.056
-6.0,-8.0,5.057
-12.0,-10.0,5.058
-72.0,-9.0,5.059
-89.0,-8.0,5.06
20.0,-13.0,5.061
127.0,-11.0,5.062
225.0,-3.0,5.063
284.0,5.0,5.064
219.0,7.0,5.065
141.0,3.0,5.066
27.0,-3.0,5.067
-67.0,-9.0,5.068
-101.0,-12.0,5.069
-110.0,-6.0,5.07
-43.0,12.0,5.071
4.0,37.0,5.072
-8.0,63.0,5.073
-31.0,74.0,5.074
-85.0,53.0,5.075
-123.0,4.0,5.076
-111.0,-47.0,5.077
-101.0,-70.0,5.078
-124.0,-46.0,5.079
-154.0,-7.0,5.08
-112.0,72.0,5.081
2.0,126.0,5.082
110.0,103.0,5.083
154.0,73.0,5.084
161.0,25.0,5.085
165.0,-13.0,5.086
160.0,-22.0,5.087
119.0,-29.0,5.088
55.0,-25.0,5.089
6.0,-29.0,5.09
-11.0,-62.0,5.091
-12.0,-91.0,5.092
-16.0,-109.0,5.093
-29.0,-116.0,5.094
-53.0,-85.0,5.095
-79.0,-62.0,5.096
-90.0,-64.0,5.097
-76.0,-63.0,5.098
-51.0,-42.0,5.099
-43.0,-19.0,5.1
-44.0,-6.0,5.101
-20.0,4.0,5.102
31.0,18.0,5.103
77.0,49.0,5.104
91.0,105.0,5.105
80.0,178.0,5.106
47.0,233.0,5.107
-6.0,235.0,5.108
-52.0,190.0,5.109
-57.0,126.0,5.11
-36.0,64.0,5.111
-28.0,1.0,5.112
-20.0,-72.0,5.113
8.0,-151.0,5.114
0.0,-208.0,5.115
-98.0,-209.0,5.116
-202.0,-151.0,5.117
-186.0,-61.0,5.118
-47.0,10.0,5.119
78.0,32.0,5.12
115.0,18.0,5.121
124.0,-12.0,5.122
150.0,-65.0,5.123
136.0,-137.0,5.124
57.0,-180.0,5.125
-12.0,-145.0,5.126
-7.0,-44.0,5.127
25.0,58.0,5.128
-1.0,101.0,5.129
-76.0,85.0,5.13
-114.0,56.0,5.131
-59.0,60.0,5.132
41.0,83.0,5.133
96.0,83.0,5.134
77.0,52.0,5.135
48.0,35.0,5.136
55.0,53.0,5.137
53.0,70.0,5.138
12.0,57.0,5.139
-10.0,33.0,5.14
27.0,28.0,5.141
60.0,35.0,5.142
79.0,27.0,5.143
92.0,3.0,5.144
82.0,-20.0,5.145
64.0,-38.0,5.146
21.0,-50.0,5.147
-18.0,-47.0,5.148
-42.0,-34.0,5.149
-55.0,-26.0,5.15
-34.0,-27.0,5.151
-5.0,-27.0,5.152
44.0,-33.0,5.153
62.0,-49.0,5.154
-18.0,-48.0,5.155
-99.0,6.0,5.156
-183.0,112.0,5.157
-250.0,229.0,5.158
-263.0,306.0,5.159
-254.0,352.0,5.16
-170.0,301.0,5.161
-32.0,237.0,5.162
68.0,138.0,5.163
88.0,12.0,5.164
90.0,-191.0,5.165
113.0,-366.0,5.166
110.0,-456.0,5.167
42.0,-505.0,5.168
-37.0,-427.0,5.169
-49.0,-340.0,5.17
6.0,-226.0,5.171
67.0,-121.0,5.172
92.0,-42.0,5.173
92.0,20.0,5.174
101.0,33.0,5.175
114.0,50.0,5.176
94.0,78.0,5.177
11.0,103.0,5.178
-76.0,112.0,5.179
-106.0,109.0,5.18
-84.0,89.0,5.181
-63.0,66.0,5.182
-15.0,62.0,5.183
111.0,68.0,5.184
244.0,61.0,5.185
237.0,44.0,5.186
103.0,46.0,5.187
6.0,66.0,5.188
16.0,80.0,5.189
19.0,81.0,5.19
-55.0,91.0,5.191
-116.0,107.0,5.192
-90.0,101.0,5.193
-38.0,53.0,5.194
-27.0,-19.0,5.195
-34.0,-90.0,5.196
-22.0,-130.0,5.197
-9.0,-123.0,5.198
-10.0,-71.0,5.199
-8.0,-23.0,5.2
-4.0,-17.0,5.201
-18.0,-24.0,5.202
-35.0,0.0,5.203
-47.0,36.0,5.204
-95.0,41.0,5.205
-173.0,13.0,5.206
-179.0,3.0,5.207
-51.0,33.0,5.208
108.0,62.0,5.209
166.0,46.0,5.21
128.0,-4.0,5.211
87.0,-43.0,5.212
66.0,-39.0,5.213
44.0,-4.0,5.214
41.0,26.0,5.215
67.0,24.0,5.216
73.0,4.0,5.217
24.0,-5.0,5.218
-17.0,17.0,5.219
5.0,66.0,5.22
44.0,108.0,5.221
30.0,117.0,5.222
-5.0,88.0,5.223
-7.0,42.0,5.224
-8.0,-6.0,5.225
-52.0,-74.0,5.226
-88.0,-164.0,5.227
-44.0,-221.0,5.228
42.0,-185.0,5.229
69.0,-71.0,5.23
20.0,38.0,5.231
-43.0,90.0,5.232
-96.0,101.0,5.233
-162.0,88.0,5.234
-215.0,35.0,5.235
-156.0,-51.0,5.236
9.0,-122.0,5.237
161.0,-148.0,5.238
159.0,-125.0,5.239
40.0,-69.0,5.24
-21.0,1.0,5.241
32.0,67.0,5.242
98.0,99.0,5.243
92.0,93.0,5.244
53.0,76.0,5.245
44.0,52.0,5.246
50.0,5.0,5.247
39.0,-61.0,5.248
21.0,-104.0,5.249
16.0,-101.0,5.25
3.0,-74.0,5.251
-28.0,-52.0,5.252
-52.0,-31.0,5.253
-51.0,-2.0,5.254
-40.0,24.0,5.255
-34.0,33.0,5.256
-25.0,22.0,5.257
-10.0,-2.0,5.258
-6.0,-20.0,5.259
-18.0,-11.0,5.26
-24.0,21.0,5.261
0.0,53.0,5.262
46.0,58.0,5.263
77.0,59.0,5.264
69.0,87.0,5.265
30.0,139.0,5.266
-22.0,184.0,5.267
-81.0,218.0,5.268
-125.0,248.0,5.269
-114.0,254.0,5.27
-47.0,191.0,5.271
10.0,51.0,5.272
3.0,-109.0,5.273
-24.0,-232.0,5.274
-4.0,-293.0,5.275
41.0,-291.0,5.276
45.0,-248.0,5.277
10.0,-193.0,5.278
-8.0,-150.0,5.279
0.0,-125.0,5.28
9.0,-111.0,5.281
39.0,-106.0,5.282
112.0,-104.0,5.283
175.0,-87.0,5.284
132.0,-46.0,5.285
-7.0,-4.0,5.286
-126.0,29.0,5.287
-134.0,60.0,5.288
-77.0,95.0,5.289
-50.0,107.0,5.29
-53.0,81.0,5.291
-13.0,50.0,5.292
66.0,50.0,5.293
80.0,66.0,5.294
-1.0,70.0,5.295
-40.0,63.0,5.296
43.0,68.0,5.297
130.0,74.0,5.298
99.0,62.0,5.299
68.0,39.0,5.3
38.0,25.0,5.301
13.0,26.0,5.302
2.0,24.0,5.303
0.0,19.0,5.304
26.0,21.0,5.305
35.0,25.0,5.306
-14.0,8.0,5.307
-42.0,-26.0,5.308
-4.0,-54.0,5.309
18.0,-59.0,5.31
-7.0,-49.0,5.311
-28.0,-44.0,5.312
-32.0,-46.0,5.313
-38.0,-42.0,5.314
-49.0,-25.0,5.315
-49.0,-7.0,5.316
-14.0,0.0,5.317
14.0,7.0,5.318
-7.0,31.0,5.319
-47.0,53.0,5.32
-45.0,71.0,5.321
-35.0,80.0,5.322
-78.0,60.0,5.323
-146.0,35.0,5.324
-153.0,-2.0,5.325
-67.0,-37.0,5.326
74.0,-61.0,5.327
198.0,-80.0,5.328
241.0,-80.0,5.329
194.0,-75.0,5.33
120.0,-60.0,5.331
80.0,-41.0,5.332
58.0,-10.0,5.333
12.0,11.0,5.334
-30.0,1.0,5.335
-29.0,-5.0,5.336
0.0,2.0,5.337
18.0,16.0,5.338
15.0,37.0,5.339
-1.0,38.0,5.34
-46.0,27.0,5.341
-120.0,18.0,5.342
-173.0,26.0,5.343
-168.0,51.0,5.344
-123.0,86.0,5.345
-60.0,109.0,5.346
14.0,112.0,5.347
78.0,105.0,5.348
91.0,94.0,5.349
63.0,55.0,5.35
51.0,-21.0,5.351
61.0,-95.0,5.352
59.0,-122.0,5.353
50.0,-112.0,5.354
75.0,-105.0,5.355
107.0,-113.0,5.356
83.0,-114.0,5.357
-11.0,-107.0,5.358
-105.0,-99.0,5.359
-144.0,-90.0,5.36
-138.0,-77.0,5.361
-108.0,-55.0,5.362
-68.0,-32.0,5.363
-45.0,-6.0,5.364
-46.0,33.0,5.365
-30.0,75.0,5.366
34.0,109.0,5.367
109.0,119.0,5.368
137.0,96.0,5.369
124.0,53.0,5.37
106.0,18.0,5.371
75.0,12.0,5.372
15.0,19.0,5.373
-36.0,21.0,5.374
-42.0,47.0,5.375
-22.0,133.0,5.376
-7.0,243.0,5.377
5.0,308.0,5.378
22.0,282.0,5.379
3.0,183.0,5.38
-51.0,46.0,5.381
-79.0,-110.0,5.382
-47.0,-267.0,5.383
-15.0,-368.0,5.384
-19.0,-369.0,5.385
-12.0,-308.0,5.386
33.0,-254.0,5.387
51.0,-230.0,5.388
5.0,-198.0,5.389
-38.0,-133.0,5.39
-22.0,-60.0,5.391
17.0,-7.0,5.392
21.0,32.0,5.393
5.0,78.0,5.394
6.0,123.0,5.395
24.0,140.0,5.396
32.0,130.0,5.397
26.0,109.0,5.398
9.0,100.0,5.399
-10.0,97.0,5.4
-3.0,86.0,5.401
25.0,72.0,5.402
34.0,62.0,5.403
0.0,53.0,5.404
-40.0,33.0,5.405
-50.0,-4.0,5.406
-32.0,-43.0,5.407
-13.0,-63.0,5.408
0.0,-53.0,5.409
3.0,-32.0,5.41
-4.0,-15.0,5.411
9.0,-3.0,5.412
68.0,8.0,5.413
142.0,13.0,5.414
170.0,13.0,5.415
146.0,27.0,5.416
110.0,58.0,5.417
68.0,81.0,5.418
19.0,76.0,5.419
-21.0,54.0,5.42
-27.0,42.0,5.421
-23.0,57.0,5.422
-50.0,76.0,5.423
-107.0,76.0,5.424
-148.0,53.0,5.425
-130.0,14.0,5.426
-60.0,-35.0,5.427
-7.0,-88.0,5.428
-32.0,-135.0,5.429
-104.0,-158.0,5.43
-121.0,-143.0,5.431
-46.0,-96.0,5.432
57.0,-50.0,5.433
125.0,-32.0,5.434
149.0,-38.0,5.435
119.0,-33.0,5.436
28.0,-4.0,5.437
-76.0,26.0,5.438
-150.0,47.0,5.439
-123.0,62.0,5.44
-55.0,74.0,5.441
-17.0,81.0,5.442
3.0,75.0,5.443
39.0,70.0,5.444
67.0,70.0,5.445
68.0,53.0,5.446
62.0,7.0,5.447
76.0,-34.0,5.448
79.0,-40.0,5.449
44.0,-28.0,5.45
-14.0,-36.0,5.451
-53.0,-70.0,5.452
-62.0,-104.0,5.453
-45.0,-123.0,5.454
-16.0,-125.0,5.455
-11.0,-102.0,5.456
-51.0,-50.0,5.457
-19.0,10.0,5.458
-13.0,79.0,5.459
-7.0,117.0,5.46
-1.0,105.0,5.461
4.0,61.0,5.462
2.0,16.0,5.463
2.0,3.0,5.464
10.0,19.0,5.465
20.0,27.0,5.466
35.0,14.0,5.467
30.0,0.0,5.468
-37.0,0.0,5.469
-91.0,12.0,5.47
-104.0,24.0,5.471
-87.0,31.0,5.472
11.0,32.0,5.473
81.0,21.0,5.474
60.0,3.0,5.475
33.0,-13.0,5.476
-16.0,-28.0,5.477
-24.0,-44.0,5.478
-17.0,-45.0,5.479
-9.0,-24.0,5.48
0.0,-1.0,5.481
7.0,15.0,5.482
5.0,26.0,5.483
5.0,35.0,5.484
15.0,35.0,5.485
28.0,30.0,5.486
48.0,34.0,5.487
41.0,55.0,5.488
-48.0,70.0,5.489
-119.0,55.0,5.49
-135.0,15.0,5.491
-114.0,-24.0,5.492
16.0,-42.0,5.493
108.0,-39.0,5.494
81.0,-31.0,5.495
45.0,-36.0,5.496
-20.0,-57.0,5.497
-63.0,-83.0,5.498
-17.0,-96.0,5.499
3.0,-94.0,5.5
-11.0,-87.0,5.501
-10.0,-72.0,5.502
19.0,-42.0,5.503
37.0,-15.0,5.504
28.0,-9.0,5.505
21.0,-12.0,5.506
23.0,6.0,5.507
25.0,51.0,5.508
26.0,105.0,5.509
35.0,153.0,5.51
42.0,188.0,5.511
32.0,190.0,5.512
10.0,127.0,5.513
2.0,25.0,5.514
4.0,-49.0,5.515
-6.0,-64.0,5.516
-25.0,-51.0,5.517
-33.0,-60.0,5.518
-24.0,-96.0,5.519
-25.0,-132.0,5.52
-36.0,-143.0,5.521
-37.0,-129.0,5.522
-31.0,-103.0,5.523
-29.0,-73.0,5.524
-24.0,-46.0,5.525
5.0,-21.0,5.526
43.0,4.0,5.527
48.0,34.0,5.528
22.0,58.0,5.529
-2.0,66.0,5.53
2.0,52.0,5.531
37.0,26.0,5.532
93.0,8.0,5.533
128.0,8.0,5.534
77.0,23.0,5.535
-69.0,43.0,5.536
-209.0,70.0,5.537
-228.0,104.0,5.538
-92.0,127.0,5.539
96.0,108.0,5.54
202.0,45.0,5.541
178.0,-17.0,5.542
77.0,-41.0,5.543
-22.0,-31.0,5.544
-71.0,-21.0,5.545
-66.0,-23.0,5.546
-33.0,-20.0,5.547
-8.0,-4.0,5.548
-5.0,15.0,5.549
-2.0,23.0,5.55
32.0,20.0,5.551
95.0,13.0,5.552
131.0,-1.0,5.553
98.0,-30.0,5.554
7.0,-65.0,5.555
-99.0,-81.0,5.556
-174.0,-63.0,5.557
-197.0,-13.0,5.558
-128.0,-1.0,5.559
16.0,10.0,5.56
144.0,15.0,5.561
174.0,17.0,5.562
144.0,4.0,5.563
146.0,-18.0,5.564
174.0,-68.0,5.565
127.0,-102.0,5.566
-6.0,-88.0,5.567
-113.0,-63.0,5.568
-131.0,-5.0,5.569
-132.0,36.0,5.57
-166.0,22.0,5.571
-176.0,2.0,5.572
-114.0,-35.0,5.573
-40.0,-65.0,5.574
-25.0,-72.0,5.575
-41.0,-72.0,5.576
-29.0,-53.0,5.577
15.0,7.0,5.578
48.0,37.0,5.579
43.0,64.0,5.58
10.0,77.0,5.581
-16.0,80.0,5.582
-3.0,50.0,5.583
36.0,-3.0,5.584
48.0,-127.0,5.585
12.0,-211.0,5.586
-17.0,-177.0,5.587
9.0,-116.0,5.588
58.0,28.0,5.589
83.0,127.0,5.59
87.0,93.0,5.591
93.0,45.0,5.592
86.0,-47.0,5.593
43.0,-120.0,5.594
-16.0,-136.0,5.595
-59.0,-136.0,5.596
-80.0,-90.0,5.597
-92.0,-45.0,5.598
-75.0,-18.0,5.599
-13.0,-7.0,5.6
64.0,-1.0,5.601
88.0,11.0,5.602
41.0,23.0,5.603
-22.0,36.0,5.604
-35.0,49.0,5.605
-1.0,57.0,5.606
27.0,51.0,5.607
24.0,39.0,5.608
21.0,31.0,5.609
36.0,26.0,5.61
40.0,15.0,5.611
9.0,1.0,5.612
-24.0,-6.0,5.613
-19.0,-4.0,5.614
9.0,7.0,5.615
21.0,24.0,5.616
25.0,37.0,5.617
39.0,33.0,5.618
43.0,18.0,5.619
6.0,16.0,5.62
-30.0,26.0,5.621
3.0,35.0,5.622
86.0,33.0,5.623
103.0,25.0,5.624
5.0,19.0,5.625
-142.0,13.0,5.626
-239.0,3.0,5.627
-236.0,1.0,5.628
-131.0,12.0,5.629
10.0,22.0,5.63
81.0,15.0,5.631
44.0,-5.0,5.632
-5.0,-37.0,5.633
19.0,-74.0,5.634
64.0,-92.0,5.635
44.0,-75.0,5.636
-9.0,-42.0,5.637
-9.0,-24.0,5.638
47.0,-27.0,5.639
93.0,-22.0,5.64
89.0,-4.0,5.641
51.0,12.0,5.642
-9.0,16.0,5.643
-70.0,24.0,5.644
-89.0,43.0,5.645
-47.0,66.0,5.646
9.0,75.0,5.647
59.0,61.0,5.648
131.0,28.0,5.649
206.0,-10.0,5.65
206.0,-36.0,5.651
106.0,-46.0,5.652
-23.0,-52.0,5.653
-112.0,-57.0,5.654
-154.0,-53.0,5.655
-144.0,-33.0,5.656
-79.0,-12.0,5.657
-2.0,-2.0,5.658
14.0,2.0,5.659
-23.0,13.0,5.66
-37.0,20.0,5.661
-12.0,16.0,5.662
0.0,4.0,5.663
-14.0,-13.0,5.664
-12.0,-28.0,5.665
10.0,-36.0,5.666
7.0,-34.0,5.667
-8.0,-12.0,5.668
20.0,30.0,5.669
96.0,70.0,5.67
142.0,74.0,5.671
119.0,31.0,5.672
59.0,-11.0,5.673
0.0,-3.0,5.674
-62.0,46.0,5.675
-119.0,67.0,5.676
-130.0,36.0,5.677
-92.0,-2.0,5.678
-26.0,8.0,5.679
1.0,41.0,5.68
-11.0,44.0,5.681
-26.0,23.0,5.682
-22.0,12.0,5.683
-14.0,0.0,5.684
-5.0,-36.0,5.685
20.0,-74.0,5.686
67.0,-72.0,5.687
96.0,-44.0,5.688
79.0,-41.0,5.689
20.0,-65.0,5.69
-49.0,-82.0,5.691
-105.0,-77.0,5.692
-122.0,-63.0,5.693
-73.0,-40.0,5.694
31.0,-5.0,5.695
122.0,30.0,5.696
130.0,50.0,5.697
40.0,57.0,5.698
-54.0,56.0,5.699
-106.0,41.0,5.7
-102.0,15.0,5.701
-44.0,16.0,5.702
45.0,39.0,5.703
108.0,39.0,5.704
93.0,3.0,5.705
29.0,-24.0,5.706
-20.0,-15.0,5.707
-28.0,5.0,5.708
-9.0,17.0,5.709
17.0,32.0,5.71
19.0,56.0,5.711
-9.0,62.0,5.712
-21.0,39.0,5.713
27.0,8.0,5.714
100.0,-13.0,5.715
106.0,-42.0,5.716
47.0,-65.0,5.717
-10.0,-56.0,5.718
-25.0,-9.0,5.719
-29.0,27.0,5.72
-32.0,16.0,5.721
-16.0,-17.0,5.722
-9.0,-34.0,5.723
-49.0,-32.0,5.724
-85.0,-24.0,5.725
-46.0,-10.0,5.726
19.0,7.0,5.727
23.0,21.0,5.728
-14.0,20.0,5.729
-4.0,9.0,5.73
43.0,-9.0,5.731
49.0,-22.0,5.732
19.0,-22.0,5.733
12.0,-13.0,5.734
20.0,-10.0,5.735
4.0,-20.0,5.736
-11.0,-28.0,5.737
16.0,-23.0,5.738
52.0,-7.0,5.739
28.0,9.0,5.74
-34.0,33.0,5.741
-60.0,72.0,5.742
-32.0,101.0,5.743
16.0,90.0,5.744
80.0,53.0,5.745
154.0,21.0,5.746
184.0,8.0,5.747
118.0,-2.0,5.748
-8.0,-12.0,5.749
-123.0,-10.0,5.75
-200.0,-6.0,5.751
-224.0,-12.0,5.752
-154.0,-24.0,5.753
-17.0,-23.0,5.754
56.0,-13.0,5.755
3.0,-12.0,5.756
-60.0,-19.0,5.757
-17.0,-17.0,5.758
70.0,-6.0,5.759
61.0,-4.0,5.76
-16.0,-19.0,5.761
-31.0,-31.0,5.762
20.0,-30.0,5.763
27.0,-31.0,5.764
-15.0,-44.0,5.765
-6.0,-55.0,5.766
62.0,-49.0,5.767
85.0,-29.0,5.768
38.0,0.0,5.769
-4.0,34.0,5.77
-5.0,70.0,5.771
-16.0,85.0,5.772
-40.0,65.0,5.773
-20.0,25.0,5.774
45.0,0.0,5.775
79.0,11.0,5.776
56.0,35.0,5.777
29.0,34.0,5.778
31.0,15.0,5.779
28.0,0.0,5.78
1.0,-2.0,5.781
-12.0,-4.0,5.782
9.0,-4.0,5.783
29.0,-3.0,5.784
21.0,-7.0,5.785
10.0,-11.0,5.786
12.0,-17.0,5.787
4.0,-21.0,5.788
-20.0,-11.0,5.789
-30.0,-3.0,5.79
-9.0,2.0,5.791
7.0,6.0,5.792
-4.0,6.0,5.793
-6.0,7.0,5.794
46.0,7.0,5.795
126.0,6.0,5.796
155.0,4.0,5.797
79.0,1.0,5.798
-74.0,-3.0,5.799
-210.0,-5.0,5.8
-253.0,-8.0,5.801
-214.0,-6.0,5.802
-145.0,-4.0,5.803
-63.0,-9.0,5.804
28.0,-18.0,5.805
77.0,-24.0,5.806
36.0,-27.0,5.807
-42.0,-24.0,5.808
-54.0,-12.0,5.809
8.0,1.0,5.81
58.0,6.0,5.811
53.0,-1.0,5.812
35.0,-13.0,5.813
38.0,-25.0,5.814
42.0,-36.0,5.815
32.0,-44.0,5.816
29.0,-42.0,5.817
42.0,-33.0,5.818
50.0,-13.0,5.819
45.0,16.0,5.82
32.0,53.0,5.821
16.0,76.0,5.822
-8.0,60.0,5.823
-24.0,1.0,5.824
-20.0,-54.0,5.825
-1.0,-64.0,5.826
21.0,-35.0,5.827
40.0,-19.0,5.828
60.0,-39.0,5.829
66.0,-66.0,5.83
44.0,-69.0,5.831
7.0,-61.0,5.832
-13.0,-64.0,5.833
-4.0,-72.0,5.834
9.0,-69.0,5.835
10.0,-61.0,5.836
3.0,-61.0,5.837
4.0,-67.0,5.838
12.0,-67.0,5.839
12.0,-63.0,5.84
3.0,-70.0,5.841
5.0,-72.0,5.842
35.0,-60.0,5.843
89.0,-39.0,5.844
135.0,-27.0,5.845
124.0,-30.0,5.846
13.0,-34.0,5.847
-171.0,-31.0,5.848
-318.0,-24.0,5.849
-337.0,-17.0,5.85
-254.0,-8.0,5.851
-156.0,0.0,5.852
-61.0,9.0,5.853
70.0,10.0,5.854
196.0,9.0,5.855
203.0,13.0,5.856
97.0,24.0,5.857
-3.0,29.0,5.858
2.0,27.0,5.859
51.0,25.0,5.86
48.0,21.0,5.861
12.0,18.0,5.862
8.0,19.0,5.863
25.0,23.0,5.864
13.0,35.0,5.865
-16.0,44.0,5.866
-18.0,44.0,5.867
0.0,46.0,5.868
6.0,55.0,5.869
5.0,72.0,5.87
19.0,114.0,5.871
37.0,152.0,5.872
38.0,173.0,5.873
32.0,182.0,5.874
33.0,150.0,5.875
36.0,117.0,5.876
33.0,87.0,5.877
26.0,65.0,5.878
22.0,73.0,5.879
11.0,70.0,5.88
-15.0,56.0,5.881
-38.0,64.0,5.882
-39.0,86.0,5.883
-21.0,95.0,5.884
-4.0,77.0,5.885
5.0,41.0,5.886
11.0,4.0,5.887
13.0,-26.0,5.888
15.0,-44.0,5.889
17.0,-42.0,5.89
9.0,-28.0,5.891
-12.0,-19.0,5.892
-31.0,-14.0,5.893
-30.0,-4.0,5.894
-8.0,12.0,5.895
24.0,18.0,5.896
50.0,12.0,5.897
61.0,1.0,5.898
52.0,-6.0,5.899
52.0,-14.0,5.9
95.0,-27.0,5.901
136.0,-34.0,5.902
65.0,-31.0,5.903
-154.0,-25.0,5.904
-386.0,-24.0,5.905
-428.0,-26.0,5.906
-220.0,-26.0,5.907
100.0,-22.0,5.908
309.0,-16.0,5.909
285.0,-13.0,5.91
122.0,-13.0,5.911
19.0,-15.0,5.912
51.0,-11.0,5.913
103.0,-5.0,5.914
67.0,-4.0,5.915
0.0,-15.0,5.916
-15.0,-35.0,5.917
-10.0,-61.0,5.918
-52.0,-78.0,5.919
-99.0,-76.0,5.92
-62.0,-59.0,5.921
33.0,-28.0,5.922
92.0,7.0,5.923
84.0,46.0,5.924
48.0,98.0,5.925
-3.0,168.0,5.926
-72.0,217.0,5.927
-111.0,187.0,5.928
-86.0,84.0,5.929
-46.0,-15.0,5.93
-49.0,-49.0,5.931
-58.0,-46.0,5.932
-17.0,-58.0,5.933
38.0,-86.0,5.934
42.0,-94.0,5.935
14.0,-83.0,5.936
11.0,-78.0,5.937
28.0,-82.0,5.938
21.0,-72.0,5.939
-14.0,-52.0,5.94
-33.0,-50.0,5.941
-26.0,-62.0,5.942
-20.0,-64.0,5.943
-17.0,-53.0,5.944
-1.0,-36.0,5.945
19.0,-10.0,5.946
30.0,30.0,5.947
40.0,63.0,5.948
60.0,55.0,5.949
79.0,16.0,5.95
98.0,-13.0,5.951
140.0,-11.0,5.952
195.0,1.0,5.953
184.0,0.0,5.954
47.0,-7.0,5.955
-149.0,-10.0,5.956
-277.0,-9.0,5.957
-312.0,-14.0,5.958
-274.0,-17.0,5.959
-178.0,-11.0,5.96
-24.0,-6.0,5.961
110.0,-3.0,5.962
130.0,1.0,5.963
58.0,8.0,5.964
15.0,11.0,5.965
44.0,10.0,5.966
77.0,8.0,5.967
71.0,6.0,5.968
57.0,-5.0,5.969
52.0,-25.0,5.97
23.0,-42.0,5.971
-26.0,-41.0,5.972
-59.0,-27.0,5.973
-77.0,-7.0,5.974
-115.0,16.0,5.975
-148.0,37.0,5.976
-113.0,50.0,5.977
7.0,51.0,5.978
131.0,43.0,5.979
179.0,21.0,5.98
162.0,-10.0,5.981
117.0,-24.0,5.982
57.0,-5.0,5.983
-14.0,27.0,5.984
-56.0,37.0,5.985
-39.0,24.0,5.986
1.0,6.0,5.987
19.0,-8.0,5.988
20.0,-25.0,5.989
26.0,-35.0,5.99
22.0,-25.0,5.991
-9.0,-6.0,5.992
-37.0,0.0,5.993
-27.0,-14.0,5.994
-5.0,-32.0,5.995
-6.0,-46.0,5.996
-18.0,-44.0,5.997
-16.0,-26.0,5.998
-3.0,7.0,5.999
-6.0,35.0,6.0
-21.0,35.0,6.001
-21.0,21.0,6.002
-9.0,12.0,6.003
-2.0,18.0,6.004
-5.0,27.0,6.005
-3.0,28.0,6.006
1.0,24.0,6.007
1.0,17.0,6.008
2.0,9.0,6.009
5.0,0.0,6.01
9.0,-2.0,6.011
9.0,-1.0,6.012
14.0,-4.0,6.013
15.0,-9.0,6.014
6.0,-14.0,6.015
-5.0,-9.0,6.016
0.0,0.0,6.017
12.0,-1.0,6.018
18.0,-6.0,6.019
10.0,-5.0,6.02
2.0,0.0,6.021
-2.0,7.0,6.022
-5.0,6.0,6.023
-3.0,0.0,6.024
6.0,-7.0,6.025
7.0,-12.0,6.026
-8.0,-14.0,6.027
-11.0,-14.0,6.028
15.0,-8.0,6.029
50.0,4.0,6.03
65.0,41.0,6.031
56.0,103.0,6.032
37.0,173.0,6.033
4.0,210.0,6.034
-40.0,186.0,6.035
-68.0,103.0,6.036
-54.0,-4.0,6.037
-24.0,-124.0,6.038
-18.0,-231.0,6.039
-42.0,-303.0,6.04
-68.0,-322.0,6.041
-82.0,-283.0,6.042
-83.0,-213.0,6.043
-45.0,-147.0,6.044
42.0,-98.0,6.045
126.0,-59.0,6.046
141.0,-14.0,6.047
87.0,35.0,6.048
15.0,70.0,6.049
-38.0,78.0,6.05
-60.0,68.0,6.051
-30.0,79.0,6.052
33.0,133.0,6.053
50.0,200.0,6.054
-18.0,218.0,6.055
-96.0,154.0,6.056
-102.0,59.0,6.057
-44.0,-8.0,6.058
27.0,-22.0,6.059
84.0,-13.0,6.06
115.0,-18.0,6.061
100.0,-29.0,6.062
65.0,-29.0,6.063
64.0,-23.0,6.064
79.0,-23.0,6.065
43.0,-28.0,6.066
-17.0,-24.0,6.067
-14.0,0.0,6.068
34.0,41.0,6.069
20.0,82.0,6.07
-52.0,92.0,6.071
-74.0,59.0,6.072
-27.0,19.0,6.073
-11.0,2.0,6.074
-49.0,5.0,6.075
-65.0,5.0,6.076
-33.0,6.0,6.077
-13.0,18.0,6.078
-28.0,28.0,6.079
-49.0,12.0,6.08
-59.0,-17.0,6.081
-67.0,-27.0,6.082
-57.0,-26.0,6.083
-22.0,-43.0,6.084
7.0,-70.0,6.085
27.0,-73.0,6.086
74.0,-47.0,6.087
130.0,-25.0,6.088
140.0,-20.0,6.089
129.0,-16.0,6.09
157.0,-5.0,6.091
174.0,-3.0,6.092
95.0,-7.0,6.093
-27.0,-4.0,6.094
-67.0,-2.0,6.095
-32.0,-15.0,6.096
-27.0,-34.0,6.097
-66.0,-38.0,6.098
-66.0,-26.0,6.099
-29.0,-18.0,6.1
-33.0,-21.0,6.101
-80.0,-14.0,6.102
-108.0,0.0,6.103
-122.0,10.0,6.104
-159.0,3.0,6.105
-172.0,-10.0,6.106
-89.0,-1.0,6.107
57.0,48.0,6.108
165.0,114.0,6.109
201.0,140.0,6.11
200.0,101.0,6.111
153.0,49.0,6.112
27.0,36.0,6.113
-138.0,50.0,6.114
-242.0,57.0,6.115
-219.0,68.0,6.116
-107.0,97.0,6.117
46.0,121.0,6.118
202.0,127.0,6.119
331.0,132.0,6.12
362.0,135.0,6.121
215.0,80.0,6.122
-53.0,-62.0,6.123
-244.0,-221.0,6.124
-220.0,-313.0,6.125
-73.0,-334.0,6.126
7.0,-313.0,6.127
-18.0,-235.0,6.128
-39.0,-88.0,6.129
-15.0,60.0,6.13
-14.0,124.0,6.131
-60.0,94.0,6.132
-80.0,29.0,6.133
-39.0,-45.0,6.134
2.0,-130.0,6.135
-8.0,-193.0,6.136
-53.0,-188.0,6.137
-108.0,-120.0,6.138
-142.0,-54.0,6.139
-122.0,-37.0,6.14
59.0,-45.0,6.141
211.0,-11.0,6.142
269.0,61.0,6.143
265.0,116.0,6.144
71.0,126.0,6.145
-71.0,115.0,6.146
-55.0,105.0,6.147
-37.0,94.0,6.148
-18.0,77.0,6.149
6.0,70.0,6.15
47.0,82.0,6.151
80.0,96.0,6.152
89.0,102.0,6.153
77.0,103.0,6.154
0.0,92.0,6.155
-45.0,58.0,6.156
12.0,12.0,6.157
60.0,-28.0,6.158
48.0,-60.0,6.159
11.0,-88.0,6.16
-14.0,-105.0,6.161
-41.0,-108.0,6.162
-66.0,-67.0,6.163
-61.0,-16.0,6.164
-42.0,61.0,6.165
-41.0,118.0,6.166
-47.0,110.0,6.167
-36.0,75.0,6.168
-36.0,-42.0,6.169
-62.0,-121.0,6.17
-61.0,-83.0,6.171
3.0,-48.0,6.172
62.0,-24.0,6.173
48.0,12.0,6.174
11.0,80.0,6.175
28.0,131.0,6.176
75.0,125.0,6.177
89.0,98.0,6.178
66.0,2.0,6.179
19.0,-57.0,6.18
-76.0,-38.0,6.181
-209.0,40.0,6.182
-262.0,108.0,6.183
-148.0,113.0,6.184
47.0,67.0,6.185
143.0,5.0,6.186
89.0,-57.0,6.187
-26.0,-119.0,6.188
-132.0,-173.0,6.189
-212.0,-204.0,6.19
-206.0,-207.0,6.191
-37.0,-188.0,6.192
246.0,-146.0,6.193
454.0,-90.0,6.194
465.0,-33.0,6.195
343.0,9.0,6.196
214.0,30.0,6.197
94.0,26.0,6.198
-24.0,9.0,6.199
-101.0,5.0,6.2
-101.0,21.0,6.201
-61.0,48.0,6.202
-46.0,66.0,6.203
-52.0,71.0,6.204
-43.0,66.0,6.205
-21.0,57.0,6.206
-7.0,45.0,6.207
22.0,43.0,6.208
83.0,51.0,6.209
134.0,57.0,6.21
124.0,45.0,6.211
58.0,22.0,6.212
-45.0,9.0,6.213
-191.0,20.0,6.214
-356.0,44.0,6.215
-431.0,58.0,6.216
-321.0,48.0,6.217
-78.0,20.0,6.218
86.0,11.0,6.219
43.0,46.0,6.22
-82.0,113.0,6.221
-113.0,181.0,6.222
-49.0,213.0,6.223
-7.0,181.0,6.224
5.0,86.0,6.225
60.0,-38.0,6.226
135.0,-135.0,6.227
135.0,-177.0,6.228
71.0,-192.0,6.229
40.0,-221.0,6.23
53.0,-260.0,6.231
35.0,-267.0,6.232
-6.0,-224.0,6.233
-1.0,-158.0,6.234
45.0,-106.0,6.235
54.0,-89.0,6.236
28.0,-97.0,6.237
25.0,-105.0,6.238
48.0,-81.0,6.239
58.0,-30.0,6.24
24.0,14.0,6.241
5.0,41.0,6.242
29.0,63.0,6.243
43.0,84.0,6.244
28.0,82.0,6.245
16.0,56.0,6.246
16.0,42.0,6.247
12.0,58.0,6.248
-4.0,76.0,6.249
-15.0,78.0,6.25
-8.0,75.0,6.251
-4.0,87.0,6.252
-10.0,102.0,6.253
-13.0,111.0,6.254
-7.0,135.0,6.255
-1.0,182.0,6.256
3.0,223.0,6.257
11.0,206.0,6.258
28.0,144.0,6.259
17.0,81.0,6.26
-20.0,12.0,6.261
-43.0,-45.0,6.262
-32.0,-66.0,6.263
-9.0,-85.0,6.264
2.0,-96.0,6.265
21.0,-106.0,6.266
65.0,-112.0,6.267
101.0,-112.0,6.268
79.0,-92.0,6.269
12.0,-77.0,6.27
-44.0,-81.0,6.271
-60.0,-74.0,6.272
-51.0,-32.0,6.273
-33.0,1.0,6.274
-5.0,7.0,6.275
23.0,8.0,6.276
27.0,-13.0,6.277
7.0,-38.0,6.278
3.0,-72.0,6.279
35.0,-99.0,6.28
70.0,-111.0,6.281
68.0,-101.0,6.282
23.0,-77.0,6.283
-36.0,-47.0,6.284
-81.0,-18.0,6.285
-103.0,3.0,6.286
-101.0,23.0,6.287
-88.0,46.0,6.288
-69.0,67.0,6.289
-52.0,72.0,6.29
-46.0,65.0,6.291
-56.0,58.0,6.292
-54.0,59.0,6.293
-4.0,62.0,6.294
71.0,72.0,6.295
104.0,88.0,6.296
84.0,99.0,6.297
53.0,85.0,6.298
40.0,57.0,6.299
12.0,47.0,6.3
-39.0,68.0,6.301
-53.0,122.0,6.302
2.0,193.0,6.303
62.0,246.0,6.304
71.0,228.0,6.305
63.0,115.0,6.306
77.0,-35.0,6.307
74.0,-137.0,6.308
23.0,-167.0,6.309
-41.0,-165.0,6.31
-64.0,-161.0,6.311
-56.0,-154.0,6.312
-41.0,-156.0,6.313
-19.0,-188.0,6.314
3.0,-228.0,6.315
-1.0,-221.0,6.316
-20.0,-160.0,6.317
-15.0,-94.0,6.318
18.0,-63.0,6.319
19.0,-51.0,6.32
-24.0,-22.0,6.321
-52.0,26.0,6.322
-33.0,66.0,6.323
-2.0,92.0,6.324
18.0,118.0,6.325
45.0,151.0,6.326
74.0,176.0,6.327
67.0,161.0,6.328
28.0,94.0,6.329
6.0,1.0,6.33
12.0,-68.0,6.331
5.0,-101.0,6.332
-18.0,-123.0,6.333
-18.0,-142.0,6.334
12.0,-128.0,6.335
34.0,-71.0,6.336
49.0,-14.0,6.337
84.0,15.0,6.338
111.0,41.0,6.339
103.0,90.0,6.34
-14.0,134.0,6.341
-117.0,147.0,6.342
-177.0,140.0,6.343
-210.0,134.0,6.344
-156.0,108.0,6.345
-100.0,46.0,6.346
-37.0,-22.0,6.347
20.0,-60.0,6.348
61.0,-76.0,6.349
90.0,-104.0,6.35
79.0,-133.0,6.351
60.0,-123.0,6.352
21.0,-77.0,6.353
6.0,-35.0,6.354
66.0,-18.0,6.355
112.0,-8.0,6.356
111.0,7.0,6.357
113.0,21.0,6.358
90.0,27.0,6.359
-15.0,33.0,6.36
-124.0,41.0,6.361
-128.0,47.0,6.362
-66.0,50.0,6.363
-40.0,43.0,6.364
-51.0,5.0,6.365
-38.0,-17.0,6.366
-8.0,7.0,6.367
-10.0,32.0,6.368
-16.0,63.0,6.369
32.0,89.0,6.37
107.0,97.0,6.371
135.0,91.0,6.372
111.0,39.0,6.373
79.0,-12.0,6.374
46.0,-58.0,6.375
-13.0,-85.0,6.376
-67.0,-53.0,6.377
-61.0,-29.0,6.378
-11.0,-45.0,6.379
-5.0,-58.0,6.38
-68.0,-50.0,6.381
-129.0,-23.0,6.382
-118.0,10.0,6.383
-58.0,39.0,6.384
-10.0,45.0,6.385
5.0,25.0,6.386
9.0,-8.0,6.387
25.0,-44.0,6.388
53.0,-80.0,6.389
65.0,-97.0,6.39
33.0,-77.0,6.391
-14.0,-36.0,6.392
-9.0,1.0,6.393
52.0,42.0,6.394
85.0,104.0,6.395
26.0,168.0,6.396
-70.0,194.0,6.397
-125.0,183.0,6.398
-92.0,176.0,6.399
-8.0,172.0,6.4
62.0,127.0,6.401
75.0,35.0,6.402
37.0,-69.0,6.403
5.0,-158.0,6.404
18.0,-237.0,6.405
46.0,-291.0,6.406
38.0,-292.0,6.407
4.0,-254.0,6.408
-2.0,-218.0,6.409
27.0,-189.0,6.41
46.0,-140.0,6.411
40.0,-75.0,6.412
41.0,-32.0,6.413
56.0,-16.0,6.414
48.0,3.0,6.415
2.0,46.0,6.416
-38.0,94.0,6.417
-43.0,128.0,6.418
-34.0,134.0,6.419
-42.0,114.0,6.42
-46.0,82.0,6.421
-10.0,69.0,6.422
38.0,84.0,6.423
21.0,101.0,6.424
-59.0,98.0,6.425
-105.0,75.0,6.426
-52.0,52.0,6.427
40.0,40.0,6.428
77.0,36.0,6.429
53.0,32.0,6.43
23.0,23.0,6.431
6.0,10.0,6.432
-19.0,-3.0,6.433
-37.0,-17.0,6.434
-15.0,-31.0,6.435
25.0,-36.0,6.436
32.0,-24.0,6.437
-4.0,2.0,6.438
-18.0,29.0,6.439
11.0,44.0,6.44
38.0,42.0,6.441
17.0,29.0,6.442
-23.0,4.0,6.443
-41.0,-19.0,6.444
-28.0,-22.0,6.445
6.0,-5.0,6.446
47.0,4.0,6.447
56.0,-13.0,6.448
13.0,-40.0,6.449
-29.0,-47.0,6.45
-3.0,-34.0,6.451
59.0,-15.0,6.452
60.0,2.0,6.453
-18.0,22.0,6.454
-87.0,31.0,6.455
-84.0,19.0,6.456
-48.0,0.0,6.457
-23.0,-7.0,6.458
-14.0,0.0,6.459
-10.0,-2.0,6.46
-1.0,-21.0,6.461
25.0,-39.0,6.462
63.0,-50.0,6.463
71.0,-62.0,6.464
27.0,-76.0,6.465
-13.0,-77.0,6.466
-2.0,-56.0,6.467
24.0,-23.0,6.468
13.0,16.0,6.469
-14.0,61.0,6.47
0.0,94.0,6.471
36.0,88.0,6.472
45.0,48.0,6.473
27.0,12.0,6.474
28.0,10.0,6.475
45.0,27.0,6.476
37.0,30.0,6.477
-14.0,7.0,6.478
-66.0,-11.0,6.479
-92.0,-18.0,6.48
-99.0,-23.0,6.481
-96.0,-25.0,6.482
-65.0,-23.0,6.483
-5.0,-14.0,6.484
39.0,-5.0,6.485
33.0,1.0,6.486
2.0,13.0,6.487
-2.0,28.0,6.488
17.0,36.0,6.489
23.0,27.0,6.49
12.0,0.0,6.491
14.0,-36.0,6.492
41.0,-63.0,6.493
68.0,-68.0,6.494
73.0,-53.0,6.495
60.0,-38.0,6.496
44.0,-33.0,6.497
13.0,-30.0,6.498
-27.0,-19.0,6.499
-58.0,-6.0,6.5
-41.0,-7.0,6.501
35.0,-8.0,6.502
116.0,2.0,6.503
124.0,25.0,6.504
48.0,35.0,6.505
-52.0,29.0,6.506
-118.0,18.0,6.507
-146.0,20.0,6.508
-123.0,29.0,6.509
-25.0,32.0,6.51
104.0,29.0,6.511
153.0,29.0,6.512
80.0,28.0,6.513
-31.0,22.0,6.514
-94.0,16.0,6.515
-113.0,23.0,6.516
-102.0,36.0,6.517
-33.0,52.0,6.518
69.0,59.0,6.519
93.0,50.0,6.52
5.0,19.0,6.521
-73.0,-11.0,6.522
-38.0,-25.0,6.523
29.0,-24.0,6.524
17.0,-23.0,6.525
-29.0,-25.0,6.526
-3.0,-16.0,6.527
62.0,-2.0,6.528
57.0,-8.0,6.529
-4.0,-38.0,6.53
-21.0,-63.0,6.531
14.0,-56.0,6.532
28.0,-33.0,6.533
0.0,-17.0,6.534
-4.0,2.0,6.535
38.0,47.0,6.536
72.0,89.0,6.537
63.0,79.0,6.538
25.0,27.0,6.539
-6.0,-5.0,6.54
-11.0,7.0,6.541
7.0,24.0,6.542
23.0,8.0,6.543
-12.0,-11.0,6.544
-96.0,-7.0,6.545
-140.0,2.0,6.546
-70.0,-15.0,6.547
41.0,-40.0,6.548
65.0,-44.0,6.549
2.0,-36.0,6.55
-28.0,-38.0,6.551
13.0,-34.0,6.552
37.0,-19.0,6.553
3.0,-11.0,6.554
-17.0,-19.0,6.555
5.0,-17.0,6.556
5.0,4.0,6.557
-51.0,21.0,6.558
-80.0,10.0,6.559
-23.0,-12.0,6.56
64.0,-22.0,6.561
104.0,-9.0,6.562
101.0,11.0,6.563
81.0,33.0,6.564
35.0,45.0,6.565
-27.0,31.0,6.566
-60.0,-3.0,6.567
-50.0,-20.0,6.568
-23.0,-6.0,6.569
7.0,11.0,6.57
53.0,11.0,6.571
84.0,5.0,6.572
48.0,0.0,6.573
-39.0,-9.0,6.574
-90.0,-27.0,6.575
-48.0,-31.0,6.576
34.0,-15.0,6.577
64.0,1.0,6.578
6.0,0.0,6.579
-75.0,-9.0,6.58
-104.0,-20.0,6.581
-84.0,-28.0,6.582
-60.0,-37.0,6.583
-35.0,-34.0,6.584
1.0,-16.0,6.585
31.0,8.0,6.586
35.0,20.0,6.587
37.0,11.0,6.588
60.0,-13.0,6.589
72.0,-29.0,6.59
43.0,-16.0,6.591
12.0,20.0,6.592
13.0,48.0,6.593
18.0,47.0,6.594
-3.0,31.0,6.595
-18.0,16.0,6.596
6.0,2.0,6.597
52.0,-5.0,6.598
89.0,9.0,6.599
113.0,40.0,6.6
121.0,48.0,6.601
76.0,27.0,6.602
-31.0,6.0,6.603
-144.0,8.0,6.604
-190.0,18.0,6.605
-136.0,14.0,6.606
-12.0,-2.0,6.607
97.0,-15.0,6.608
121.0,-24.0,6.609
72.0,-31.0,6.61
24.0,-35.0,6.611
2.0,-37.0,6.612
-25.0,-38.0,6.613
-49.0,-42.0,6.614
-25.0,-46.0,6.615
10.0,-45.0,6.616
-24.0,-38.0,6.617
-111.0,-33.0,6.618
-113.0,-31.0,6.619
-8.0,-30.0,6.62
55.0,-25.0,6.621
-1.0,0.0,6.622
-56.0,33.0,6.623
-11.0,57.0,6.624
44.0,56.0,6.625
17.0,27.0,6.626
-20.0,-12.0,6.627
16.0,-32.0,6.628
64.0,-26.0,6.629
43.0,-11.0,6.63
7.0,1.0,6.631
23.0,24.0,6.632
46.0,57.0,6.633
17.0,72.0,6.634
-21.0,55.0,6.635
-14.0,35.0,6.636
9.0,35.0,6.637
3.0,36.0,6.638
-2.0,12.0,6.639
21.0,-20.0,6.64
39.0,-32.0,6.641
15.0,-19.0,6.642
-19.0,-13.0,6.643
-15.0,-15.0,6.644
24.0,-8.0,6.645
60.0,2.0,6.646
58.0,-6.0,6.647
7.0,-24.0,6.648
-62.0,-24.0,6.649
-83.0,-9.0,6.65
-36.0,-7.0,6.651
15.0,-16.0,6.652
11.0,-16.0,6.653
-14.0,-3.0,6.654
-7.0,7.0,6.655
20.0,4.0,6.656
24.0,1.0,6.657
15.0,-4.0,6.658
26.0,-9.0,6.659
27.0,-9.0,6.66
-2.0,-2.0,6.661
-26.0,2.0,6.662
-30.0,-10.0,6.663
-27.0,-24.0,6.664
-2.0,-14.0,6.665
15.0,18.0,6.666
9.0,47.0,6.667
2.0,54.0,6.668
-3.0,42.0,6.669
-4.0,25.0,6.67
14.0,12.0,6.671
26.0,5.0,6.672
15.0,2.0,6.673
7.0,-3.0,6.674
12.0,-8.0,6.675
13.0,-10.0,6.676
-4.0,-10.0,6.677
-22.0,-12.0,6.678
-32.0,-10.0,6.679
-22.0,-6.0,6.68
-16.0,3.0,6.681
-33.0,11.0,6.682
-49.0,14.0,6.683
-20.0,17.0,6.684
37.0,20.0,6.685
58.0,23.0,6.686
28.0,24.0,6.687
6.0,22.0,6.688
22.0,5.0,6.689
35.0,-8.0,6.69
19.0,-11.0,6.691
2.0,-17.0,6.692
14.0,-32.0,6.693
23.0,-41.0,6.694
22.0,-31.0,6.695
28.0,-21.0,6.696
38.0,-9.0,6.697
15.0,-1.0,6.698
-35.0,-11.0,6.699
-51.0,-15.0,6.7
5.0,-7.0,6.701
88.0,7.0,6.702
122.0,15.0,6.703
71.0,13.0,6.704
-38.0,10.0,6.705
-139.0,15.0,6.706
-163.0,23.0,6.707
-111.0,18.0,6.708
-48.0,9.0,6.709
-23.0,8.0,6.71
-16.0,10.0,6.711
5.0,3.0,6.712
22.0,-10.0,6.713
16.0,-16.0,6.714
8.0,-9.0,6.715
21.0,1.0,6.716
38.0,12.0,6.717
32.0,22.0,6.718
21.0,28.0,6.719
24.0,29.0,6.72
32.0,17.0,6.721
26.0,2.0,6.722
16.0,-7.0,6.723
14.0,2.0,6.724
10.0,28.0,6.725
-4.0,51.0,6.726
-10.0,49.0,6.727
0.0,29.0,6.728
8.0,9.0,6.729
0.0,-5.0,6.73
-2.0,-16.0,6.731
15.0,-24.0,6.732
34.0,-21.0,6.733
33.0,-13.0,6.734
20.0,-12.0,6.735
9.0,-17.0,6.736
9.0,-16.0,6.737
9.0,-10.0,6.738
11.0,-3.0,6.739
18.0,-1.0,6.74
38.0,-2.0,6.741
73.0,-4.0,6.742
107.0,-10.0,6.743
93.0,-16.0,6.744
-7.0,-21.0,6.745
-151.0,-22.0,6.746
-219.0,-22.0,6.747
-149.0,-14.0,6.748
-33.0,5.0,6.749
-2.0,19.0,6.75
-46.0,16.0,6.751
-51.0,-2.0,6.752
8.0,-10.0,6.753
40.0,-8.0,6.754
10.0,-3.0,6.755
-6.0,-6.0,6.756
29.0,-8.0,6.757
53.0,-8.0,6.758
26.0,-9.0,6.759
-4.0,-17.0,6.76
5.0,-31.0,6.761
18.0,-36.0,6.762
7.0,-25.0,6.763
6.0,1.0,6.764
38.0,39.0,6.765
50.0,58.0,6.766
25.0,44.0,6.767
0.0,15.0,6.768
6.0,0.0,6.769
13.0,9.0,6.77
0.0,17.0,6.771
-6.0,15.0,6.772
9.0,12.0,6.773
20.0,18.0,6.774
15.0,17.0,6.775
11.0,4.0,6.776
19.0,-8.0,6.777
22.0,-14.0,6.778
12.0,-15.0,6.779
1.0,-19.0,6.78
1.0,-22.0,6.781
3.0,-15.0,6.782
0.0,-8.0,6.783
-1.0,-4.0,6.784
1.0,-5.0,6.785
3.0,-3.0,6.786
12.0,-3.0,6.787
34.0,-6.0,6.788
52.0,-5.0,6.789
38.0,3.0,6.79
-8.0,10.0,6.791
-60.0,6.0,6.792
-83.0,-6.0,6.793
-65.0,-12.0,6.794
-29.0,-12.0,6.795
-24.0,-9.0,6.796
-70.0,-10.0,6.797
-125.0,-16.0,6.798
-97.0,-25.0,6.799
18.0,-35.0,6.8
128.0,-49.0,6.801
134.0,-58.0,6.802
41.0,-58.0,6.803
-57.0,-51.0,6.804
-75.0,-48.0,6.805
-7.0,-55.0,6.806
64.0,-72.0,6.807
52.0,-90.0,6.808
-18.0,-96.0,6.809
-45.0,-87.0,6.81
7.0,-65.0,6.811
55.0,-45.0,6.812
39.0,-43.0,6.813
4.0,-62.0,6.814
10.0,-80.0,6.815
32.0,-77.0,6.816
25.0,-54.0,6.817
1.0,-34.0,6.818
-1.0,-30.0,6.819
8.0,-28.0,6.82
-3.0,-37.0,6.821
-18.0,-41.0,6.822
-12.0,-28.0,6.823
3.0,-18.0,6.824
-1.0,-18.0,6.825
-15.0,-18.0,6.826
-15.0,-18.0,6.827
-10.0,-20.0,6.828
-20.0,-28.0,6.829
-37.0,-36.0,6.83
-39.0,-45.0,6.831
-29.0,-51.0,6.832
-21.0,-49.0,6.833
-16.0,-46.0,6.834
-12.0,-42.0,6.835
-12.0,-37.0,6.836
-10.0,-30.0,6.837
4.0,-22.0,6.838
26.0,-14.0,6.839
31.0,-6.0,6.84
20.0,-3.0,6.841
20.0,0.0,6.842
40.0,7.0,6.843
55.0,24.0,6.844
40.0,40.0,6.845
8.0,46.0,6.846
-9.0,45.0,6.847
-13.0,46.0,6.848
-22.0,50.0,6.849
-38.0,58.0,6.85
-44.0,67.0,6.851
-32.0,78.0,6.852
-1.0,89.0,6.853
47.0,93.0,6.854
103.0,90.0,6.855
135.0,86.0,6.856
121.0,89.0,6.857
72.0,96.0,6.858
33.0,103.0,6.859
4.0,102.0,6.86
-36.0,95.0,6.861
-79.0,93.0,6.862
-79.0,100.0,6.863
-34.0,110.0,6.864
8.0,115.0,6.865
8.0,113.0,6.866
-12.0,104.0,6.867
-15.0,86.0,6.868
0.0,67.0,6.869
24.0,53.0,6.87
49.0,45.0,6.871
65.0,35.0,6.872
54.0,27.0,6.873
14.0,23.0,6.874
-34.0,26.0,6.875
-79.0,27.0,6.876
-120.0,28.0,6.877
-139.0,34.0,6.878
-107.0,51.0,6.879
-52.0,67.0,6.88
-30.0,75.0,6.881
-46.0,77.0,6.882
-28.0,63.0,6.883
56.0,52.0,6.884
142.0,48.0,6.885
163.0,38.0,6.886
139.0,15.0,6.887
127.0,-2.0,6.888
127.0,-2.0,6.889
103.0,-5.0,6.89
58.0,-16.0,6.891
17.0,-25.0,6.892
-17.0,-27.0,6.893
-50.0,-26.0,6.894
-67.0,-15.0,6.895
-60.0,-7.0,6.896
-42.0,-8.0,6.897
-33.0,-12.0,6.898
-11.0,-27.0,6.899
37.0,-39.0,6.9
78.0,-35.0,6.901
66.0,-19.0,6.902
15.0,-18.0,6.903
-18.0,-35.0,6.904
-15.0,-35.0,6.905
-7.0,-9.0,6.906
-15.0,13.0,6.907
-22.0,10.0,6.908
-17.0,0.0,6.909
-13.0,-6.0,6.91
-24.0,-20.0,6.911
-47.0,-47.0,6.912
-63.0,-59.0,6.913
-52.0,-45.0,6.914
-8.0,-30.0,6.915
36.0,-27.0,6.916
42.0,-23.0,6.917
-1.0,-8.0,6.918
-45.0,3.0,6.919
-43.0,0.0,6.92
-9.0,-3.0,6.921
25.0,5.0,6.922
55.0,6.0,6.923
88.0,-15.0,6.924
96.0,-41.0,6.925
54.0,-48.0,6.926
-13.0,-40.0,6.927
-58.0,-39.0,6.928
-78.0,-50.0,6.929
-86.0,-66.0,6.93
-63.0,-78.0,6.931
16.0,-77.0,6.932
111.0,-56.0,6.933
151.0,-25.0,6.934
112.0,-6.0,6.935
22.0,-5.0,6.936
-83.0,-7.0,6.937
-188.0,0.0,6.938
-231.0,12.0,6.939
-162.0,19.0,6.94
-36.0,22.0,6.941
34.0,37.0,6.942
13.0,66.0,6.943
-23.0,101.0,6.944
3.0,115.0,6.945
60.0,87.0,6.946
69.0,19.0,6.947
29.0,-57.0,6.948
2.0,-109.0,6.949
17.0,-136.0,6.95
34.0,-151.0,6.951
27.0,-155.0,6.952
19.0,-136.0,6.953
40.0,-95.0,6.954
81.0,-51.0,6.955
107.0,-13.0,6.956
103.0,23.0,6.957
62.0,49.0,6.958
-11.0,58.0,6.959
-97.0,60.0,6.96
-143.0,38.0,6.961
-109.0,24.0,6.962
-20.0,34.0,6.963
43.0,45.0,6.964
40.0,55.0,6.965
6.0,58.0,6.966
-2.0,35.0,6.967
14.0,15.0,6.968
14.0,5.0,6.969
-6.0,-3.0,6.97
-13.0,-2.0,6.971
1.0,-2.0,6.972
17.0,-6.0,6.973
26.0,-8.0,6.974
35.0,-4.0,6.975
39.0,0.0,6.976
33.0,0.0,6.977
26.0,4.0,6.978
40.0,15.0,6.979
57.0,19.0,6.98
36.0,7.0,6.981
-31.0,-5.0,6.982
-101.0,-9.0,6.983
-128.0,-9.0,6.984
-99.0,-9.0,6.985
-40.0,-17.0,6.986
3.0,-29.0,6.987
6.0,-34.0,6.988
-10.0,-29.0,6.989
0.0,-19.0,6.99
26.0,-11.0,6.991
28.0,-4.0,6.992
14.0,5.0,6.993
44.0,5.0,6.994
120.0,-4.0,6.995
146.0,-11.0,6.996
74.0,-4.0,6.997
-34.0,8.0,6.998
-54.0,18.0,6.999
15.0,29.0,7.0
69.0,38.0,7.001
47.0,42.0,7.002
-3.0,32.0,7.003
-25.0,21.0,7.004
-33.0,6.0,7.005
-56.0,-8.0,7.006
-70.0,-17.0,7.007
-43.0,-25.0,7.008
-1.0,-31.0,7.009
4.0,-36.0,7.01
-20.0,-39.0,7.011
-14.0,-38.0,7.012
33.0,-23.0,7.013
65.0,-7.0,7.014
47.0,13.0,7.015
11.0,30.0,7.016
-3.0,38.0,7.017
-11.0,49.0,7.018
-35.0,59.0,7.019
-46.0,46.0,7.02
-18.0,18.0,7.021
14.0,-1.0,7.022
60.0,-3.0,7.023
75.0,-5.0,7.024
-5.0,-16.0,7.025
-68.0,-21.0,7.026
-83.0,-7.0,7.027
-85.0,12.0,7.028
-46.0,23.0,7.029
-16.0,16.0,7.03
-14.0,0.0,7.031
-12.0,-6.0,7.032
-6.0,21.0,7.033
2.0,79.0,7.034
21.0,130.0,7.035
38.0,123.0,7.036
50.0,57.0,7.037
51.0,39.0,7.038
5.0,27.0,7.039
-49.0,8.0,7.04
-106.0,-42.0,7.041
-162.0,-80.0,7.042
-179.0,-85.0,7.043
-108.0,-77.0,7.044
42.0,-27.0,7.045
178.0,33.0,7.046
202.0,115.0,7.047
125.0,167.0,7.048
48.0,120.0,7.049
50.0,71.0,7.05
100.0,14.0,7.051
123.0,-27.0,7.052
92.0,-15.0,7.053
45.0,8.0,7.054
18.0,53.0,7.055
15.0,83.0,7.056
15.0,48.0,7.057
-6.0,26.0,7.058
-29.0,22.0,7.059
-39.0,15.0,7.06
-27.0,-2.0,7.061
-16.0,-15.0,7.062
-21.0,-17.0,7.063
-25.0,-14.0,7.064
-18.0,3.0,7.065
-13.0,24.0,7.066
-23.0,52.0,7.067
-29.0,70.0,7.068
-9.0,54.0,7.069
18.0,37.0,7.07
12.0,17.0,7.071
-24.0,3.0,7.072
-28.0,7.0,7.073
32.0,15.0,7.074
97.0,31.0,7.075
69.0,41.0,7.076
-34.0,29.0,7.077
-114.0,15.0,7.078
-86.0,0.0,7.079
-18.0,-10.0,7.08
-14.0,-20.0,7.081
-50.0,-24.0,7.082
-24.0,-26.0,7.083
54.0,-30.0,7.084
67.0,-35.0,7.085
-33.0,-36.0,7.086
-170.0,-27.0,7.087
-248.0,-17.0,7.088
-218.0,-14.0,7.089
-85.0,-17.0,7.09
75.0,-23.0,7.091
146.0,-27.0,7.092
134.0,-24.0,7.093
162.0,-10.0,7.094
263.0,-1.0,7.095
293.0,-1.0,7.096
186.0,0.0,7.097
58.0,9.0,7.098
41.0,35.0,7.099
69.0,63.0,7.1
27.0,87.0,7.101
-22.0,100.0,7.102
8.0,89.0,7.103
33.0,54.0,7.104
-54.0,11.0,7.105
-170.0,-21.0,7.106
-172.0,-44.0,7.107
-101.0,-67.0,7.108
-90.0,-87.0,7.109
-142.0,-91.0,7.11
-149.0,-75.0,7.111
-95.0,-42.0,7.112
-37.0,-6.0,7.113
6.0,12.0,7.114
50.0,4.0,7.115
71.0,-22.0,7.116
54.0,-47.0,7.117
30.0,-67.0,7.118
28.0,-72.0,7.119
23.0,-56.0,7.12
9.0,-23.0,7.121
6.0,25.0,7.122
42.0,75.0,7.123
45.0,109.0,7.124
-49.0,109.0,7.125
-107.0,69.0,7.126
-52.0,8.0,7.127
4.0,-39.0,7.128
61.0,-62.0,7.129
112.0,-67.0,7.13
147.0,-68.0,7.131
158.0,-58.0,7.132
94.0,-43.0,7.133
25.0,-31.0,7.134
-52.0,-28.0,7.135
-101.0,-17.0,7.136
-59.0,7.0,7.137
-11.0,31.0,7.138
28.0,34.0,7.139
-5.0,15.0,7.14
-54.0,-6.0,7.141
-59.0,-10.0,7.142
-56.0,-2.0,7.143
-81.0,7.0,7.144
-75.0,17.0,7.145
17.0,41.0,7.146
120.0,77.0,7.147
126.0,98.0,7.148
61.0,76.0,7.149
28.0,41.0,7.15
26.0,42.0,7.151
8.0,78.0,7.152
7.0,94.0,7.153
69.0,62.0,7.154
130.0,18.0,7.155
96.0,4.0,7.156
14.0,3.0,7.157
-29.0,-22.0,7.158
-22.0,-60.0,7.159
-36.0,-80.0,7.16
-61.0,-78.0,7.161
-51.0,-76.0,7.162
-26.0,-77.0,7.163
-25.0,-71.0,7.164
-36.0,-62.0,7.165
-30.0,-56.0,7.166
-21.0,-42.0,7.167
-31.0,-10.0,7.168
-40.0,27.0,7.169
-22.0,47.0,7.17
7.0,44.0,7.171
31.0,30.0,7.172
48.0,10.0,7.173
50.0,0.0,7.174
16.0,15.0,7.175
-37.0,53.0,7.176
-60.0,78.0,7.177
-37.0,69.0,7.178
-1.0,38.0,7.179
25.0,10.0,7.18
21.0,-14.0,7.181
10.0,-27.0,7.182
-15.0,-12.0,7.183
-61.0,23.0,7.184
-163.0,35.0,7.185
-209.0,10.0,7.186
-83.0,-14.0,7.187
27.0,-1.0,7.188
89.0,18.0,7.189
120.0,4.0,7.19
57.0,-35.0,7.191
18.0,-66.0,7.192
57.0,-87.0,7.193
76.0,-114.0,7.194
32.0,-129.0,7.195
7.0,-105.0,7.196
42.0,-49.0,7.197
64.0,3.0,7.198
22.0,28.0,7.199
-9.0,33.0,7.2
0.0,21.0,7.201
9.0,-3.0,7.202
7.0,-32.0,7.203
28.0,-36.0,7.204
54.0,-10.0,7.205
37.0,24.0,7.206
-8.0,43.0,7.207
-18.0,51.0,7.208
6.0,65.0,7.209
16.0,83.0,7.21
14.0,96.0,7.211
31.0,104.0,7.212
53.0,116.0,7.213
34.0,129.0,7.214
-17.0,135.0,7.215
-48.0,134.0,7.216
-52.0,131.0,7.217
-57.0,103.0,7.218
-63.0,27.0,7.219
-49.0,-77.0,7.22
-25.0,-163.0,7.221
-18.0,-195.0,7.222
-22.0,-191.0,7.223
-17.0,-170.0,7.224
-6.0,-126.0,7.225
-7.0,-62.0,7.226
-5.0,-30.0,7.227
18.0,-65.0,7.228
40.0,-129.0,7.229
36.0,-150.0,7.23
28.0,-109.0,7.231
39.0,-48.0,7.232
54.0,-13.0,7.233
38.0,-14.0,7.234
1.0,-30.0,7.235
-14.0,-31.0,7.236
3.0,-2.0,7.237
25.0,40.0,7.238
21.0,60.0,7.239
-12.0,52.0,7.24
-39.0,39.0,7.241
-36.0,49.0,7.242
-12.0,70.0,7.243
5.0,78.0,7.244
3.0,71.0,7.245
4.0,61.0,7.246
17.0,49.0,7.247
28.0,35.0,7.248
23.0,30.0,7.249
11.0,39.0,7.25
-2.0,54.0,7.251
-12.0,64.0,7.252
0.0,65.0,7.253
41.0,73.0,7.254
70.0,89.0,7.255
40.0,99.0,7.256
-37.0,84.0,7.257
-97.0,42.0,7.258
-89.0,6.0,7.259
-37.0,-7.0,7.26
8.0,-16.0,7.261
22.0,-35.0,7.262
16.0,-53.0,7.263
9.0,-53.0,7.264
13.0,-42.0,7.265
34.0,-43.0,7.266
58.0,-51.0,7.267
60.0,-42.0,7.268
25.0,-21.0,7.269
-23.0,-6.0,7.27
-52.0,-5.0,7.271
-46.0,0.0,7.272
-36.0,16.0,7.273
-51.0,23.0,7.274
-73.0,8.0,7.275
-60.0,-16.0,7.276
-16.0,-27.0,7.277
16.0,-33.0,7.278
15.0,-45.0,7.279
0.0,-62.0,7.28
6.0,-64.0,7.281
29.0,-44.0,7.282
45.0,-29.0,7.283
45.0,-37.0,7.284
34.0,-54.0,7.285
29.0,-59.0,7.286
44.0,-46.0,7.287
71.0,-27.0,7.288
68.0,-1.0,7.289
20.0,31.0,7.29
-34.0,52.0,7.291
-38.0,49.0,7.292
0.0,36.0,7.293
36.0,33.0,7.294
38.0,35.0,7.295
19.0,30.0,7.296
0.0,23.0,7.297
-23.0,27.0,7.298
-52.0,34.0,7.299
-73.0,23.0,7.3
-58.0,-10.0,7.301
-9.0,-29.0,7.302
31.0,-19.0,7.303
27.0,0.0,7.304
-11.0,12.0,7.305
-34.0,21.0,7.306
-31.0,31.0,7.307
-23.0,39.0,7.308
-17.0,47.0,7.309
4.0,62.0,7.31
31.0,82.0,7.311
37.0,95.0,7.312
20.0,78.0,7.313
10.0,23.0,7.314
31.0,-49.0,7.315
68.0,-102.0,7.316
94.0,-123.0,7.317
94.0,-131.0,7.318
83.0,-142.0,7.319
64.0,-155.0,7.32
24.0,-159.0,7.321
-35.0,-136.0,7.322
-79.0,-94.0,7.323
-77.0,-41.0,7.324
-54.0,3.0,7.325
-63.0,35.0,7.326
-107.0,58.0,7.327
-124.0,75.0,7.328
-82.0,81.0,7.329
-12.0,73.0,7.33
41.0,68.0,7.331
66.0,76.0,7.332
67.0,81.0,7.333
57.0,69.0,7.334
43.0,55.0,7.335
31.0,55.0,7.336
12.0,62.0,7.337
-13.0,53.0,7.338
-23.0,31.0,7.339
-13.0,15.0,7.34
-5.0,6.0,7.341
-5.0,-5.0,7.342
15.0,-27.0,7.343
61.0,-52.0,7.344
82.0,-63.0,7.345
47.0,-62.0,7.346
-3.0,-53.0,7.347
-19.0,-40.0,7.348
-21.0,-28.0,7.349
-34.0,-22.0,7.35
-31.0,-23.0,7.351
22.0,-21.0,7.352
74.0,-10.0,7.353
67.0,6.0,7.354
26.0,19.0,7.355
2.0,37.0,7.356
-11.0,61.0,7.357
-44.0,74.0,7.358
-58.0,62.0,7.359
-32.0,34.0,7.36
-7.0,15.0,7.361
-23.0,10.0,7.362
-28.0,2.0,7.363
20.0,-11.0,7.364
62.0,-12.0,7.365
36.0,-2.0,7.366
-18.0,-2.0,7.367
-29.0,-18.0,7.368
-12.0,-35.0,7.369
-14.0,-42.0,7.37
-20.0,-42.0,7.371
0.0,-34.0,7.372
28.0,-12.0,7.373
24.0,5.0,7.374
-7.0,0.0,7.375
-29.0,-5.0,7.376
-30.0,14.0,7.377
-18.0,39.0,7.378
-2.0,44.0,7.379
4.0,31.0,7.38
2.0,23.0,7.381
3.0,16.0,7.382
15.0,-8.0,7.383
24.0,-37.0,7.384
19.0,-39.0,7.385
8.0,-20.0,7.386
6.0,-20.0,7.387
10.0,-39.0,7.388
8.0,-48.0,7.389
8.0,-37.0,7.39
19.0,-28.0,7.391
28.0,-38.0,7.392
20.0,-49.0,7.393
10.0,-44.0,7.394
12.0,-19.0,7.395
15.0,8.0,7.396
3.0,27.0,7.397
-8.0,38.0,7.398
14.0,54.0,7.399
57.0,74.0,7.4
76.0,81.0,7.401
41.0,68.0,7.402
-21.0,46.0,7.403
-62.0,24.0,7.404
-74.0,4.0,7.405
-85.0,-17.0,7.406
-106.0,-33.0,7.407
-95.0,-31.0,7.408
-27.0,-21.0,7.409
45.0,-13.0,7.41
45.0,-8.0,7.411
-5.0,-5.0,7.412
-16.0,-1.0,7.413
26.0,3.0,7.414
45.0,8.0,7.415
19.0,11.0,7.416
11.0,12.0,7.417
47.0,5.0,7.418
73.0,-4.0,7.419
49.0,-13.0,7.42
3.0,-26.0,7.421
-31.0,-31.0,7.422
-61.0,-25.0,7.423
-73.0,-12.0,7.424
-29.0,2.0,7.425
51.0,21.0,7.426
96.0,37.0,7.427
80.0,35.0,7.428
53.0,13.0,7.429
47.0,-5.0,7.43
34.0,-1.0,7.431
-8.0,10.0,7.432
-59.0,4.0,7.433
-84.0,-5.0,7.434
-76.0,-1.0,7.435
-40.0,3.0,7.436
4.0,-4.0,7.437
27.0,-11.0,7.438
16.0,1.0,7.439
2.0,21.0,7.44
14.0,18.0,7.441
28.0,8.0,7.442
16.0,9.0,7.443
8.0,12.0,7.444
30.0,0.0,7.445
46.0,-21.0,7.446
14.0,-30.0,7.447
-27.0,-25.0,7.448
-17.0,-24.0,7.449
11.0,-26.0,7.45
-19.0,-24.0,7.451
-89.0,-22.0,7.452
-91.0,-27.0,7.453
-7.0,-30.0,7.454
59.0,-23.0,7.455
41.0,-12.0,7.456
1.0,-6.0,7.457
9.0,1.0,7.458
41.0,12.0,7.459
32.0,12.0,7.46
-13.0,-6.0,7.461
-33.0,-17.0,7.462
-19.0,-1.0,7.463
-4.0,19.0,7.464
2.0,22.0,7.465
16.0,10.0,7.466
27.0,1.0,7.467
16.0,-6.0,7.468
-3.0,-17.0,7.469
-10.0,-21.0,7.47
-15.0,-3.0,7.471
-31.0,18.0,7.472
-25.0,23.0,7.473
28.0,19.0,7.474
82.0,24.0,7.475
68.0,29.0,7.476
17.0,19.0,7.477
-13.0,0.0,7.478
2.0,-3.0,7.479
12.0,8.0,7.48
0.0,7.0,7.481
-1.0,-4.0,7.482
17.0,-13.0,7.483
27.0,-15.0,7.484
21.0,-17.0,7.485
25.0,-11.0,7.486
47.0,5.0,7.487
48.0,21.0,7.488
-6.0,15.0,7.489
-89.0,3.0,7.49
-135.0,7.0,7.491
-116.0,21.0,7.492
-70.0,24.0,7.493
-45.0,14.0,7.494
-29.0,9.0,7.495
10.0,17.0,7.496
54.0,29.0,7.497
58.0,27.0,7.498
30.0,12.0,7.499
18.0,-6.0,7.5
25.0,-37.0,7.501
8.0,-55.0,7.502
-34.0,-33.0,7.503
-42.0,-13.0,7.504
-6.0,0.0,7.505
27.0,13.0,7.506
32.0,19.0,7.507
34.0,22.0,7.508
48.0,16.0,7.509
57.0,11.0,7.51
62.0,11.0,7.511
79.0,5.0,7.512
84.0,-19.0,7.513
37.0,-37.0,7.514
-44.0,-36.0,7.515
-97.0,-35.0,7.516
-98.0,-33.0,7.517
-68.0,-27.0,7.518
-24.0,-8.0,7.519
21.0,4.0,7.52
49.0,4.0,7.521
48.0,9.0,7.522
38.0,17.0,7.523
27.0,17.0,7.524
-4.0,8.0,7.525
-53.0,-3.0,7.526
-81.0,-10.0,7.527
-73.0,-13.0,7.528
-53.0,-6.0,7.529
-20.0,5.0,7.53
