Deltoid,Bicep,Time
-6.0,0.0,0.0
-7.0,-5.0,0.001
-4.0,-5.0,0.002
6.0,-2.0,0.003
21.0,0.0,0.004
32.0,0.0,0.005
31.0,0.0,0.006
20.0,0.0,0.007
7.0,-1.0,0.008
-8.0,-2.0,0.009
-22.0,-3.0,0.01
-26.0,-2.0,0.011
-22.0,-3.0,0.012
-15.0,-3.0,0.013
-11.0,-1.0,0.014
-8.0,1.0,0.015
-7.0,1.0,0.016
-7.0,2.0,0.017
-8.0,0.0,0.018
-4.0,-1.0,0.019
-1.0,-3.0,0.02
0.0,-6.0,0.021
4.0,-5.0,0.022
11.0,-3.0,0.023
17.0,0.0,0.024
16.0,2.0,0.025
12.0,2.0,0.026
15.0,2.0,0.027
25.0,3.0,0.028
31.0,3.0,0.029
23.0,1.0,0.03
3.0,0.0,0.031
-9.0,-3.0,0.032
-9.0,-4.0,0.033
-3.0,-3.0,0.034
1.0,-2.0,0.035
0.0,0.0,0.036
-2.0,0.0,0.037
-4.0,-2.0,0.038
-2.0,-3.0,0.039
0.0,-2.0,0.04
-1.0,-3.0,0.041
-4.0,-2.0,0.042
0.0,-2.0,0.043
11.0,1.0,0.044
17.0,3.0,0.045
13.0,1.0,0.046
13.0,-4.0,0.047
22.0,-5.0,0.048
29.0,-1.0,0.049
25.0,3.0,0.05
16.0,4.0,0.051
11.0,-1.0,0.052
8.0,-4.0,0.053
4.0,-3.0,0.054
2.0,-2.0,0.055
3.0,-2.0,0.056
-2.0,-1.0,0.057
-22.0,0.0,0.058
-37.0,5.0,0.059
-35.0,5.0,0.06
-23.0,-1.0,0.061
-20.0,-6.0,0.062
-21.0,-6.0,0.063
-16.0,-4.0,0.064
-3.0,-1.0,0.065
9.0,-1.0,0.066
14.0,-2.0,0.067
14.0,-4.0,0.068
15.0,-3.0,0.069
23.0,0.0,0.07
36.0,0.0,0.071
42.0,-2.0,0.072
31.0,-2.0,0.073
11.0,1.0,0.074
-3.0,5.0,0.075
-10.0,2.0,0.076
-18.0,0.0,0.077
-31.0,-1.0,0.078
-36.0,2.0,0.079
-31.0,2.0,0.08
-19.0,-1.0,0.081
-3.0,-1.0,0.082
14.0,2.0,0.083
23.0,4.0,0.084
20.0,3.0,0.085
14.0,3.0,0.086
11.0,3.0,0.087
8.0,0.0,0.088
-3.0,-4.0,0.089
-16.0,-5.0,0.09
-16.0,-2.0,0.091
-4.0,0.0,0.092
4.0,0.0,0.093
3.0,0.0,0.094
0.0,-1.0,0.095
2.0,-1.0,0.096
7.0,-1.0,0.097
10.0,0.0,0.098
9.0,0.0,0.099
5.0,-2.0,0.1
2.0,-7.0,0.101
4.0,-7.0,0.102
10.0,-3.0,0.103
15.0,0.0,0.104
17.0,3.0,0.105
15.0,3.0,0.106
12.0,2.0,0.107
11.0,-1.0,0.108
10.0,-3.0,0.109
9.0,-4.0,0.11
7.0,-2.0,0.111
3.0,1.0,0.112
1.0,4.0,0.113
2.0,4.0,0.114
5.0,1.0,0.115
4.0,-1.0,0.116
0.0,0.0,0.117
-3.0,1.0,0.118
-4.0,-2.0,0.119
-5.0,-7.0,0.12
-7.0,-10.0,0.121
-8.0,-6.0,0.122
-5.0,-3.0,0.123
-1.0,-3.0,0.124
2.0,-4.0,0.125
4.0,-2.0,0.126
8.0,0.0,0.127
13.0,-3.0,0.128
14.0,-2.0,0.129
13.0,5.0,0.13
13.0,12.0,0.131
15.0,14.0,0.132
14.0,10.0,0.133
10.0,2.0,0.134
9.0,-2.0,0.135
17.0,-4.0,0.136
28.0,-5.0,0.137
27.0,-4.0,0.138
12.0,-1.0,0.139
-14.0,1.0,0.14
-31.0,-2.0,0.141
-29.0,-7.0,0.142
-6.0,-8.0,0.143
18.0,-1.0,0.144
19.0,8.0,0.145
-6.0,10.0,0.146
-28.0,4.0,0.147
-29.0,-3.0,0.148
-23.0,-5.0,0.149
-22.0,-4.0,0.15
-19.0,-6.0,0.151
1.0,-7.0,0.152
28.0,-4.0,0.153
40.0,-1.0,0.154
37.0,-3.0,0.155
27.0,-7.0,0.156
9.0,-4.0,0.157
-19.0,0.0,0.158
-44.0,0.0,0.159
-53.0,-2.0,0.16
-48.0,-4.0,0.161
-42.0,0.0,0.162
-34.0,3.0,0.163
-13.0,2.0,0.164
17.0,-3.0,0.165
37.0,-4.0,0.166
40.0,-3.0,0.167
37.0,-2.0,0.168
33.0,-1.0,0.169
27.0,-1.0,0.17
13.0,0.0,0.171
-6.0,0.0,0.172
-23.0,0.0,0.173
-32.0,0.0,0.174
-27.0,-4.0,0.175
-8.0,-4.0,0.176
18.0,-1.0,0.177
32.0,2.0,0.178
28.0,1.0,0.179
18.0,-2.0,0.18
15.0,-6.0,0.181
18.0,-5.0,0.182
18.0,-1.0,0.183
17.0,3.0,0.184
17.0,4.0,0.185
17.0,3.0,0.186
13.0,1.0,0.187
10.0,0.0,0.188
11.0,1.0,0.189
8.0,1.0,0.19
2.0,-2.0,0.191
2.0,-5.0,0.192
3.0,-5.0,0.193
2.0,-3.0,0.194
0.0,-4.0,0.195
3.0,-6.0,0.196
10.0,-5.0,0.197
4.0,-5.0,0.198
-10.0,-6.0,0.199
-19.0,-7.0,0.2
-13.0,-6.0,0.201
-2.0,2.0,0.202
4.0,6.0,0.203
7.0,0.0,0.204
11.0,-2.0,0.205
12.0,4.0,0.206
12.0,12.0,0.207
14.0,12.0,0.208
20.0,5.0,0.209
21.0,-1.0,0.21
18.0,-5.0,0.211
18.0,-5.0,0.212
17.0,-5.0,0.213
3.0,-5.0,0.214
-22.0,-7.0,0.215
-38.0,-10.0,0.216
-25.0,-6.0,0.217
9.0,0.0,0.218
34.0,7.0,0.219
15.0,8.0,0.22
-32.0,6.0,0.221
-61.0,4.0,0.222
-49.0,0.0,0.223
-31.0,-5.0,0.224
-42.0,-6.0,0.225
-69.0,-5.0,0.226
-63.0,-6.0,0.227
-11.0,-8.0,0.228
45.0,-7.0,0.229
71.0,-2.0,0.23
72.0,-1.0,0.231
66.0,-5.0,0.232
52.0,-4.0,0.233
29.0,1.0,0.234
9.0,3.0,0.235
-2.0,0.0,0.236
-19.0,-3.0,0.237
-51.0,-2.0,0.238
-74.0,-1.0,0.239
-65.0,-3.0,0.24
-28.0,-4.0,0.241
9.0,0.0,0.242
32.0,5.0,0.243
43.0,5.0,0.244
47.0,4.0,0.245
44.0,6.0,0.246
35.0,3.0,0.247
29.0,-1.0,0.248
26.0,-1.0,0.249
22.0,5.0,0.25
12.0,5.0,0.251
-6.0,-2.0,0.252
-23.0,-6.0,0.253
-33.0,-1.0,0.254
-31.0,3.0,0.255
-23.0,0.0,0.256
-18.0,-3.0,0.257
-9.0,-4.0,0.258
6.0,0.0,0.259
17.0,0.0,0.26
14.0,-5.0,0.261
2.0,-6.0,0.262
0.0,-3.0,0.263
11.0,1.0,0.264
19.0,4.0,0.265
18.0,5.0,0.266
15.0,3.0,0.267
18.0,1.0,0.268
24.0,1.0,0.269
31.0,0.0,0.27
35.0,-1.0,0.271
31.0,-3.0,0.272
14.0,-4.0,0.273
-5.0,-2.0,0.274
-17.0,-2.0,0.275
-22.0,-1.0,0.276
-30.0,2.0,0.277
-35.0,3.0,0.278
-23.0,0.0,0.279
-7.0,-5.0,0.28
-2.0,-8.0,0.281
-6.0,-3.0,0.282
-4.0,0.0,0.283
9.0,0.0,0.284
16.0,-1.0,0.285
10.0,0.0,0.286
4.0,2.0,0.287
11.0,0.0,0.288
16.0,-3.0,0.289
11.0,0.0,0.29
2.0,3.0,0.291
3.0,2.0,0.292
12.0,0.0,0.293
16.0,-1.0,0.294
8.0,-1.0,0.295
-1.0,-2.0,0.296
-4.0,-5.0,0.297
-2.0,-5.0,0.298
-1.0,-1.0,0.299
-8.0,4.0,0.3
-18.0,0.0,0.301
-19.0,-6.0,0.302
-6.0,-8.0,0.303
16.0,-6.0,0.304
28.0,0.0,0.305
20.0,1.0,0.306
5.0,1.0,0.307
6.0,0.0,0.308
21.0,-2.0,0.309
30.0,-2.0,0.31
24.0,3.0,0.311
19.0,12.0,0.312
28.0,14.0,0.313
38.0,7.0,0.314
26.0,0.0,0.315
-5.0,0.0,0.316
-32.0,4.0,0.317
-47.0,1.0,0.318
-55.0,-6.0,0.319
-67.0,-8.0,0.32
-71.0,-7.0,0.321
-57.0,-4.0,0.322
-35.0,-4.0,0.323
-25.0,-2.0,0.324
-30.0,1.0,0.325
-23.0,4.0,0.326
13.0,0.0,0.327
60.0,-4.0,0.328
84.0,-6.0,0.329
81.0,-6.0,0.33
65.0,-4.0,0.331
39.0,-4.0,0.332
5.0,-5.0,0.333
-21.0,-6.0,0.334
-32.0,-4.0,0.335
-34.0,-2.0,0.336
-36.0,0.0,0.337
-34.0,-3.0,0.338
-20.0,-4.0,0.339
-8.0,-3.0,0.34
-11.0,-7.0,0.341
-15.0,-7.0,0.342
0.0,-6.0,0.343
26.0,-2.0,0.344
39.0,1.0,0.345
31.0,2.0,0.346
20.0,0.0,0.347
21.0,0.0,0.348
28.0,3.0,0.349
28.0,6.0,0.35
21.0,6.0,0.351
17.0,4.0,0.352
17.0,-1.0,0.353
16.0,-4.0,0.354
15.0,-1.0,0.355
12.0,6.0,0.356
7.0,10.0,0.357
-1.0,5.0,0.358
-7.0,-2.0,0.359
-5.0,-4.0,0.36
9.0,-4.0,0.361
27.0,-3.0,0.362
36.0,-4.0,0.363
34.0,-3.0,0.364
30.0,3.0,0.365
28.0,9.0,0.366
26.0,12.0,0.367
13.0,10.0,0.368
-3.0,5.0,0.369
-14.0,-1.0,0.37
-21.0,-1.0,0.371
-37.0,1.0,0.372
-62.0,-1.0,0.373
-83.0,-7.0,0.374
-86.0,-5.0,0.375
-76.0,2.0,0.376
-60.0,9.0,0.377
-36.0,3.0,0.378
-1.0,-3.0,0.379
37.0,-4.0,0.38
68.0,-8.0,0.381
80.0,-10.0,0.382
63.0,-11.0,0.383
21.0,-6.0,0.384
-18.0,-2.0,0.385
-32.0,-3.0,0.386
-23.0,-6.0,0.387
-16.0,-5.0,0.388
-16.0,-1.0,0.389
-5.0,1.0,0.39
14.0,0.0,0.391
22.0,-4.0,0.392
13.0,-5.0,0.393
2.0,-5.0,0.394
2.0,-4.0,0.395
2.0,-1.0,0.396
0.0,2.0,0.397
1.0,4.0,0.398
10.0,3.0,0.399
16.0,0.0,0.4
21.0,-3.0,0.401
31.0,1.0,0.402
43.0,7.0,0.403
43.0,9.0,0.404
31.0,11.0,0.405
19.0,12.0,0.406
13.0,10.0,0.407
1.0,5.0,0.408
-19.0,1.0,0.409
-31.0,1.0,0.41
-14.0,0.0,0.411
22.0,-3.0,0.412
49.0,-7.0,0.413
50.0,-7.0,0.414
33.0,-7.0,0.415
6.0,-6.0,0.416
-13.0,-4.0,0.417
-20.0,-3.0,0.418
-7.0,-3.0,0.419
10.0,-2.0,0.42
13.0,-4.0,0.421
-6.0,-5.0,0.422
-29.0,-4.0,0.423
-45.0,0.0,0.424
-55.0,2.0,0.425
-61.0,0.0,0.426
-58.0,-2.0,0.427
-45.0,-2.0,0.428
-23.0,0.0,0.429
-5.0,1.0,0.43
0.0,0.0,0.431
-4.0,-2.0,0.432
-4.0,-2.0,0.433
8.0,-2.0,0.434
22.0,-1.0,0.435
31.0,0.0,0.436
38.0,1.0,0.437
46.0,2.0,0.438
39.0,2.0,0.439
16.0,0.0,0.44
-2.0,-6.0,0.441
1.0,-9.0,0.442
16.0,-9.0,0.443
19.0,-3.0,0.444
13.0,2.0,0.445
12.0,7.0,0.446
17.0,6.0,0.447
16.0,2.0,0.448
8.0,0.0,0.449
3.0,0.0,0.45
3.0,0.0,0.451
1.0,1.0,0.452
1.0,4.0,0.453
3.0,6.0,0.454
8.0,5.0,0.455
14.0,0.0,0.456
24.0,-1.0,0.457
33.0,1.0,0.458
32.0,2.0,0.459
25.0,-4.0,0.46
21.0,-13.0,0.461
12.0,-12.0,0.462
-16.0,-7.0,0.463
-52.0,-6.0,0.464
-69.0,-7.0,0.465
-65.0,-5.0,0.466
-55.0,-2.0,0.467
-48.0,-4.0,0.468
-31.0,-6.0,0.469
-7.0,-2.0,0.47
12.0,7.0,0.471
22.0,13.0,0.472
26.0,16.0,0.473
20.0,17.0,0.474
6.0,11.0,0.475
1.0,0.0,0.476
14.0,-4.0,0.477
26.0,-1.0,0.478
29.0,5.0,0.479
19.0,5.0,0.48
19.0,-3.0,0.481
27.0,-7.0,0.482
26.0,-5.0,0.483
12.0,-4.0,0.484
2.0,-1.0,0.485
11.0,1.0,0.486
24.0,-2.0,0.487
20.0,-5.0,0.488
-5.0,-5.0,0.489
-37.0,-3.0,0.49
-57.0,-3.0,0.491
-52.0,-4.0,0.492
-29.0,-2.0,0.493
-7.0,0.0,0.494
4.0,-5.0,0.495
5.0,-8.0,0.496
4.0,-2.0,0.497
7.0,3.0,0.498
15.0,3.0,0.499
21.0,-4.0,0.5
20.0,-8.0,0.501
13.0,-4.0,0.502
12.0,-2.0,0.503
23.0,-2.0,0.504
31.0,1.0,0.505
20.0,7.0,0.506
2.0,10.0,0.507
-5.0,4.0,0.508
0.0,-1.0,0.509
8.0,0.0,0.51
11.0,0.0,0.511
11.0,-1.0,0.512
7.0,-2.0,0.513
0.0,0.0,0.514
-2.0,1.0,0.515
-1.0,0.0,0.516
0.0,0.0,0.517
-3.0,0.0,0.518
-3.0,-1.0,0.519
0.0,-3.0,0.52
1.0,-5.0,0.521
-1.0,-4.0,0.522
2.0,-2.0,0.523
13.0,-2.0,0.524
19.0,-1.0,0.525
12.0,1.0,0.526
3.0,0.0,0.527
3.0,-3.0,0.528
5.0,-4.0,0.529
0.0,-1.0,0.53
-6.0,1.0,0.531
-7.0,2.0,0.532
-5.0,0.0,0.533
-4.0,-2.0,0.534
-5.0,-4.0,0.535
-4.0,-3.0,0.536
-4.0,1.0,0.537
-4.0,6.0,0.538
-7.0,8.0,0.539
-10.0,5.0,0.54
-11.0,-2.0,0.541
-6.0,-6.0,0.542
2.0,-5.0,0.543
10.0,-1.0,0.544
9.0,3.0,0.545
5.0,5.0,0.546
6.0,2.0,0.547
15.0,0.0,0.548
17.0,0.0,0.549
12.0,-1.0,0.55
4.0,-2.0,0.551
3.0,-4.0,0.552
3.0,-4.0,0.553
-2.0,-1.0,0.554
-6.0,0.0,0.555
-5.0,-1.0,0.556
0.0,-1.0,0.557
-2.0,-1.0,0.558
-9.0,-1.0,0.559
-15.0,-3.0,0.56
-11.0,-6.0,0.561
-2.0,-8.0,0.562
4.0,-6.0,0.563
10.0,-3.0,0.564
15.0,0.0,0.565
18.0,1.0,0.566
21.0,0.0,0.567
21.0,-4.0,0.568
18.0,-3.0,0.569
12.0,-1.0,0.57
2.0,0.0,0.571
-6.0,-3.0,0.572
-13.0,-5.0,0.573
-15.0,-1.0,0.574
-13.0,0.0,0.575
-5.0,-2.0,0.576
7.0,-3.0,0.577
10.0,-1.0,0.578
6.0,3.0,0.579
-5.0,2.0,0.58
-16.0,-5.0,0.581
-17.0,-7.0,0.582
-7.0,-4.0,0.583
4.0,0.0,0.584
14.0,4.0,0.585
21.0,5.0,0.586
27.0,2.0,0.587
28.0,-2.0,0.588
18.0,-5.0,0.589
-2.0,-2.0,0.59
-17.0,-1.0,0.591
-18.0,0.0,0.592
-17.0,-2.0,0.593
-18.0,-1.0,0.594
-17.0,0.0,0.595
-6.0,1.0,0.596
4.0,0.0,0.597
5.0,-2.0,0.598
3.0,-5.0,0.599
6.0,-5.0,0.6
12.0,-7.0,0.601
12.0,-5.0,0.602
12.0,-4.0,0.603
14.0,-3.0,0.604
16.0,-1.0,0.605
10.0,4.0,0.606
2.0,5.0,0.607
4.0,2.0,0.608
9.0,0.0,0.609
8.0,0.0,0.61
6.0,-1.0,0.611
4.0,-1.0,0.612
3.0,1.0,0.613
1.0,5.0,0.614
0.0,5.0,0.615
2.0,0.0,0.616
7.0,0.0,0.617
7.0,1.0,0.618
8.0,1.0,0.619
13.0,-4.0,0.62
12.0,-9.0,0.621
3.0,-9.0,0.622
-2.0,-4.0,0.623
-5.0,-2.0,0.624
-15.0,0.0,0.625
-31.0,2.0,0.626
-35.0,1.0,0.627
-14.0,-1.0,0.628
10.0,-1.0,0.629
13.0,0.0,0.63
4.0,2.0,0.631
8.0,-2.0,0.632
23.0,-4.0,0.633
26.0,-2.0,0.634
10.0,1.0,0.635
-4.0,1.0,0.636
-4.0,0.0,0.637
-1.0,-5.0,0.638
-4.0,-7.0,0.639
-9.0,-5.0,0.64
-1.0,-3.0,0.641
14.0,-2.0,0.642
22.0,-4.0,0.643
14.0,-2.0,0.644
1.0,1.0,0.645
-1.0,1.0,0.646
9.0,-3.0,0.647
15.0,-5.0,0.648
9.0,0.0,0.649
-3.0,4.0,0.65
-8.0,5.0,0.651
-7.0,0.0,0.652
-10.0,-2.0,0.653
-10.0,0.0,0.654
-3.0,1.0,0.655
9.0,0.0,0.656
15.0,1.0,0.657
7.0,0.0,0.658
-2.0,0.0,0.659
-11.0,-3.0,0.66
-21.0,-6.0,0.661
-26.0,-5.0,0.662
-14.0,-3.0,0.663
7.0,-3.0,0.664
20.0,-1.0,0.665
20.0,1.0,0.666
18.0,1.0,0.667
17.0,0.0,0.668
12.0,-1.0,0.669
2.0,2.0,0.67
-1.0,1.0,0.671
4.0,-1.0,0.672
5.0,0.0,0.673
1.0,4.0,0.674
-1.0,4.0,0.675
2.0,1.0,0.676
4.0,0.0,0.677
2.0,2.0,0.678
0.0,4.0,0.679
1.0,2.0,0.68
-2.0,-5.0,0.681
-3.0,-8.0,0.682
4.0,-7.0,0.683
15.0,-3.0,0.684
15.0,1.0,0.685
5.0,2.0,0.686
2.0,0.0,0.687
10.0,-2.0,0.688
14.0,-1.0,0.689
9.0,1.0,0.69
7.0,1.0,0.691
9.0,-1.0,0.692
10.0,-1.0,0.693
4.0,0.0,0.694
1.0,1.0,0.695
4.0,1.0,0.696
5.0,3.0,0.697
-3.0,2.0,0.698
-9.0,-2.0,0.699
-8.0,-6.0,0.7
-5.0,-8.0,0.701
-4.0,-4.0,0.702
0.0,-1.0,0.703
7.0,-1.0,0.704
9.0,-1.0,0.705
3.0,2.0,0.706
0.0,2.0,0.707
5.0,-2.0,0.708
9.0,-3.0,0.709
3.0,0.0,0.71
-3.0,4.0,0.711
-1.0,0.0,0.712
4.0,-6.0,0.713
1.0,-4.0,0.714
-4.0,-1.0,0.715
-4.0,-1.0,0.716
1.0,-2.0,0.717
3.0,-2.0,0.718
0.0,0.0,0.719
-7.0,-2.0,0.72
-10.0,-6.0,0.721
-7.0,-6.0,0.722
-1.0,-1.0,0.723
9.0,3.0,0.724
14.0,5.0,0.725
11.0,5.0,0.726
7.0,1.0,0.727
9.0,-2.0,0.728
12.0,-2.0,0.729
10.0,1.0,0.73
6.0,2.0,0.731
5.0,0.0,0.732
6.0,-3.0,0.733
5.0,-2.0,0.734
1.0,-1.0,0.735
-1.0,-1.0,0.736
-1.0,1.0,0.737
-2.0,2.0,0.738
-2.0,0.0,0.739
-6.0,-1.0,0.74
-10.0,-4.0,0.741
-10.0,-6.0,0.742
-4.0,-3.0,0.743
3.0,0.0,0.744
5.0,2.0,0.745
0.0,4.0,0.746
0.0,2.0,0.747
6.0,1.0,0.748
11.0,1.0,0.749
11.0,1.0,0.75
7.0,1.0,0.751
5.0,1.0,0.752
5.0,0.0,0.753
2.0,-1.0,0.754
0.0,0.0,0.755
-1.0,2.0,0.756
0.0,1.0,0.757
-1.0,0.0,0.758
-2.0,-1.0,0.759
-4.0,-2.0,0.76
-5.0,-3.0,0.761
-4.0,-1.0,0.762
4.0,-2.0,0.763
10.0,-3.0,0.764
7.0,-1.0,0.765
5.0,1.0,0.766
6.0,1.0,0.767
7.0,-1.0,0.768
7.0,-2.0,0.769
5.0,0.0,0.77
2.0,1.0,0.771
0.0,0.0,0.772
-1.0,-1.0,0.773
-2.0,-1.0,0.774
-3.0,0.0,0.775
-3.0,0.0,0.776
-1.0,2.0,0.777
3.0,-1.0,0.778
6.0,-6.0,0.779
5.0,-7.0,0.78
-1.0,-8.0,0.781
-6.0,-7.0,0.782
0.0,-6.0,0.783
11.0,-1.0,0.784
13.0,3.0,0.785
6.0,4.0,0.786
1.0,2.0,0.787
4.0,1.0,0.788
9.0,2.0,0.789
7.0,1.0,0.79
2.0,-2.0,0.791
0.0,-3.0,0.792
-1.0,0.0,0.793
0.0,2.0,0.794
0.0,0.0,0.795
0.0,-2.0,0.796
0.0,0.0,0.797
0.0,2.0,0.798
0.0,1.0,0.799
-2.0,-4.0,0.8
-6.0,-8.0,0.801
-6.0,-7.0,0.802
1.0,-3.0,0.803
12.0,0.0,0.804
16.0,1.0,0.805
12.0,2.0,0.806
6.0,0.0,0.807
3.0,-1.0,0.808
5.0,0.0,0.809
8.0,2.0,0.81
9.0,3.0,0.811
7.0,0.0,0.812
3.0,-3.0,0.813
2.0,-3.0,0.814
1.0,-4.0,0.815
-1.0,-5.0,0.816
-3.0,-3.0,0.817
-2.0,-1.0,0.818
-1.0,0.0,0.819
-3.0,2.0,0.82
-5.0,-3.0,0.821
-2.0,-7.0,0.822
9.0,-2.0,0.823
17.0,2.0,0.824
13.0,2.0,0.825
4.0,2.0,0.826
4.0,0.0,0.827
8.0,-1.0,0.828
6.0,-2.0,0.829
0.0,-3.0,0.83
0.0,-4.0,0.831
4.0,-5.0,0.832
5.0,-4.0,0.833
0.0,-3.0,0.834
-1.0,-1.0,0.835
1.0,0.0,0.836
2.0,0.0,0.837
-2.0,0.0,0.838
-2.0,1.0,0.839
-2.0,2.0,0.84
-2.0,1.0,0.841
-2.0,0.0,0.842
3.0,-1.0,0.843
7.0,-1.0,0.844
7.0,1.0,0.845
7.0,3.0,0.846
8.0,2.0,0.847
8.0,3.0,0.848
6.0,4.0,0.849
5.0,5.0,0.85
6.0,2.0,0.851
7.0,0.0,0.852
1.0,1.0,0.853
-3.0,4.0,0.854
-3.0,2.0,0.855
-3.0,-1.0,0.856
-3.0,-2.0,0.857
-2.0,1.0,0.858
-6.0,3.0,0.859
-9.0,0.0,0.86
-11.0,-5.0,0.861
-10.0,-5.0,0.862
-4.0,-3.0,0.863
6.0,-1.0,0.864
10.0,3.0,0.865
5.0,5.0,0.866
2.0,3.0,0.867
3.0,0.0,0.868
4.0,-2.0,0.869
1.0,-2.0,0.87
-2.0,-2.0,0.871
-1.0,-8.0,0.872
1.0,-9.0,0.873
0.0,-6.0,0.874
1.0,-1.0,0.875
5.0,1.0,0.876
12.0,-1.0,0.877
12.0,-5.0,0.878
5.0,-5.0,0.879
-4.0,-2.0,0.88
-9.0,-2.0,0.881
-8.0,-4.0,0.882
-2.0,-6.0,0.883
1.0,-3.0,0.884
-1.0,4.0,0.885
-3.0,6.0,0.886
-1.0,1.0,0.887
4.0,-4.0,0.888
9.0,-2.0,0.889
10.0,2.0,0.89
11.0,4.0,0.891
9.0,2.0,0.892
5.0,1.0,0.893
1.0,0.0,0.894
2.0,-3.0,0.895
5.0,-4.0,0.896
9.0,0.0,0.897
7.0,2.0,0.898
3.0,0.0,0.899
-1.0,-2.0,0.9
-5.0,-3.0,0.901
-7.0,-1.0,0.902
-3.0,-1.0,0.903
4.0,-1.0,0.904
11.0,2.0,0.905
8.0,4.0,0.906
5.0,0.0,0.907
12.0,-5.0,0.908
19.0,-4.0,0.909
18.0,-2.0,0.91
13.0,-2.0,0.911
8.0,-3.0,0.912
6.0,-1.0,0.913
2.0,0.0,0.914
-3.0,-3.0,0.915
-7.0,-5.0,0.916
-6.0,-4.0,0.917
-3.0,-1.0,0.918
1.0,3.0,0.919
0.0,4.0,0.92
-5.0,-1.0,0.921
-8.0,-5.0,0.922
-1.0,-4.0,0.923
12.0,0.0,0.924
15.0,6.0,0.925
8.0,5.0,0.926
5.0,0.0,0.927
10.0,-3.0,0.928
13.0,-1.0,0.929
7.0,1.0,0.93
0.0,0.0,0.931
-2.0,-3.0,0.932
-1.0,-3.0,0.933
-3.0,-4.0,0.934
-3.0,-4.0,0.935
-1.0,-2.0,0.936
0.0,0.0,0.937
-3.0,-2.0,0.938
-7.0,-3.0,0.939
-8.0,-1.0,0.94
-8.0,0.0,0.941
-5.0,2.0,0.942
3.0,-1.0,0.943
10.0,-3.0,0.944
7.0,-1.0,0.945
1.0,2.0,0.946
4.0,3.0,0.947
17.0,-1.0,0.948
23.0,-4.0,0.949
18.0,-3.0,0.95
5.0,0.0,0.951
-2.0,0.0,0.952
-3.0,-2.0,0.953
-2.0,-2.0,0.954
0.0,0.0,0.955
0.0,2.0,0.956
-4.0,5.0,0.957
-8.0,3.0,0.958
-8.0,0.0,0.959
-9.0,-3.0,0.96
-15.0,-6.0,0.961
-22.0,-6.0,0.962
-17.0,-6.0,0.963
0.0,-4.0,0.964
16.0,0.0,0.965
18.0,6.0,0.966
14.0,9.0,0.967
13.0,7.0,0.968
13.0,2.0,0.969
11.0,2.0,0.97
10.0,5.0,0.971
16.0,7.0,0.972
24.0,5.0,0.973
34.0,3.0,0.974
42.0,0.0,0.975
39.0,-2.0,0.976
22.0,-2.0,0.977
-6.0,-3.0,0.978
-30.0,0.0,0.979
-46.0,1.0,0.98
-57.0,-3.0,0.981
-65.0,-4.0,0.982
-59.0,-4.0,0.983
-33.0,-4.0,0.984
0.0,-4.0,0.985
17.0,-4.0,0.986
17.0,-4.0,0.987
16.0,-6.0,0.988
23.0,-8.0,0.989
29.0,-5.0,0.99
27.0,-2.0,0.991
20.0,-3.0,0.992
17.0,-3.0,0.993
16.0,-1.0,0.994
12.0,2.0,0.995
8.0,2.0,0.996
9.0,2.0,0.997
11.0,1.0,0.998
9.0,-1.0,0.999
1.0,-1.0,1.0
-3.0,-3.0,1.001
-2.0,-2.0,1.002
0.0,0.0,1.003
1.0,1.0,1.004
2.0,2.0,1.005
5.0,1.0,1.006
12.0,0.0,1.007
21.0,-1.0,1.008
29.0,0.0,1.009
32.0,2.0,1.01
35.0,3.0,1.011
37.0,0.0,1.012
34.0,-2.0,1.013
20.0,-1.0,1.014
0.0,2.0,1.015
-14.0,3.0,1.016
-20.0,1.0,1.017
-26.0,-6.0,1.018
-38.0,-8.0,1.019
-47.0,-5.0,1.02
-44.0,-6.0,1.021
-37.0,-8.0,1.022
-32.0,-7.0,1.023
-32.0,-1.0,1.024
-26.0,2.0,1.025
-10.0,-1.0,1.026
11.0,-4.0,1.027
23.0,-3.0,1.028
24.0,2.0,1.029
19.0,2.0,1.03
15.0,0.0,1.031
15.0,0.0,1.032
17.0,3.0,1.033
16.0,3.0,1.034
11.0,-2.0,1.035
3.0,-3.0,1.036
2.0,3.0,1.037
6.0,6.0,1.038
12.0,5.0,1.039
15.0,2.0,1.04
18.0,1.0,1.041
27.0,1.0,1.042
36.0,-3.0,1.043
38.0,-4.0,1.044
27.0,3.0,1.045
11.0,8.0,1.046
-5.0,1.0,1.047
-13.0,-5.0,1.048
-7.0,-4.0,1.049
9.0,-1.0,1.05
16.0,-1.0,1.051
2.0,-3.0,1.052
-22.0,-1.0,1.053
-33.0,1.0,1.054
-23.0,-1.0,1.055
-11.0,-6.0,1.056
-8.0,-3.0,1.057
-16.0,0.0,1.058
-17.0,0.0,1.059
-14.0,0.0,1.06
-14.0,-2.0,1.061
-17.0,0.0,1.062
-9.0,-1.0,1.063
5.0,-3.0,1.064
13.0,0.0,1.065
8.0,1.0,1.066
0.0,-1.0,1.067
0.0,-4.0,1.068
0.0,-5.0,1.069
-1.0,-4.0,1.07
1.0,-4.0,1.071
8.0,-4.0,1.072
12.0,-2.0,1.073
12.0,-1.0,1.074
12.0,1.0,1.075
13.0,1.0,1.076
14.0,3.0,1.077
12.0,2.0,1.078
9.0,1.0,1.079
3.0,-1.0,1.08
-5.0,-5.0,1.081
-7.0,-6.0,1.082
1.0,-7.0,1.083
14.0,-5.0,1.084
17.0,-2.0,1.085
11.0,-1.0,1.086
6.0,0.0,1.087
10.0,2.0,1.088
14.0,5.0,1.089
8.0,4.0,1.09
4.0,-2.0,1.091
6.0,-5.0,1.092
11.0,-1.0,1.093
12.0,3.0,1.094
6.0,3.0,1.095
0.0,2.0,1.096
-1.0,5.0,1.097
2.0,5.0,1.098
3.0,3.0,1.099
-3.0,0.0,1.1
-12.0,-4.0,1.101
-11.0,-8.0,1.102
1.0,-8.0,1.103
14.0,-5.0,1.104
14.0,0.0,1.105
7.0,6.0,1.106
4.0,6.0,1.107
4.0,5.0,1.108
5.0,4.0,1.109
11.0,3.0,1.11
25.0,3.0,1.111
35.0,3.0,1.112
28.0,1.0,1.113
11.0,0.0,1.114
-3.0,1.0,1.115
-15.0,3.0,1.116
-24.0,3.0,1.117
-32.0,1.0,1.118
-24.0,0.0,1.119
-7.0,-3.0,1.12
9.0,-8.0,1.121
22.0,-8.0,1.122
31.0,-7.0,1.123
29.0,-5.0,1.124
3.0,0.0,1.125
-30.0,3.0,1.126
-48.0,6.0,1.127
-42.0,3.0,1.128
-30.0,-2.0,1.129
-20.0,-4.0,1.13
-2.0,-5.0,1.131
18.0,-4.0,1.132
22.0,-5.0,1.133
11.0,-5.0,1.134
-2.0,-2.0,1.135
-11.0,-1.0,1.136
-16.0,0.0,1.137
-15.0,-1.0,1.138
-1.0,-2.0,1.139
13.0,-4.0,1.14
10.0,-7.0,1.141
-2.0,-7.0,1.142
-1.0,-4.0,1.143
16.0,-1.0,1.144
25.0,-2.0,1.145
19.0,-5.0,1.146
18.0,-5.0,1.147
25.0,0.0,1.148
25.0,4.0,1.149
10.0,6.0,1.15
-4.0,6.0,1.151
-8.0,3.0,1.152
-8.0,2.0,1.153
-7.0,4.0,1.154
12.0,6.0,1.155
42.0,5.0,1.156
59.0,4.0,1.157
51.0,3.0,1.158
31.0,3.0,1.159
11.0,2.0,1.16
-10.0,-4.0,1.161
-38.0,-7.0,1.162
-63.0,-6.0,1.163
-71.0,-1.0,1.164
-60.0,1.0,1.165
-33.0,2.0,1.166
-3.0,0.0,1.167
15.0,-1.0,1.168
15.0,-1.0,1.169
16.0,0.0,1.17
30.0,0.0,1.171
43.0,-5.0,1.172
33.0,-7.0,1.173
11.0,-7.0,1.174
-1.0,-3.0,1.175
0.0,-1.0,1.176
1.0,-1.0,1.177
-4.0,-2.0,1.178
-8.0,0.0,1.179
-7.0,0.0,1.18
-7.0,-2.0,1.181
-6.0,-4.0,1.182
0.0,-2.0,1.183
9.0,0.0,1.184
14.0,0.0,1.185
10.0,1.0,1.186
4.0,2.0,1.187
4.0,3.0,1.188
10.0,3.0,1.189
15.0,1.0,1.19
13.0,-1.0,1.191
10.0,-4.0,1.192
9.0,-4.0,1.193
6.0,-4.0,1.194
1.0,-2.0,1.195
0.0,-1.0,1.196
12.0,-3.0,1.197
23.0,-4.0,1.198
19.0,-3.0,1.199
-8.0,-3.0,1.2
-25.0,-8.0,1.201
-11.0,-10.0,1.202
20.0,-8.0,1.203
34.0,-2.0,1.204
26.0,5.0,1.205
16.0,8.0,1.206
15.0,7.0,1.207
10.0,6.0,1.208
-8.0,8.0,1.209
-30.0,10.0,1.21
-46.0,6.0,1.211
-54.0,1.0,1.212
-53.0,-1.0,1.213
-34.0,-4.0,1.214
-2.0,-6.0,1.215
25.0,-7.0,1.216
29.0,1.0,1.217
15.0,5.0,1.218
-1.0,2.0,1.219
-14.0,-2.0,1.22
-18.0,-4.0,1.221
-19.0,0.0,1.222
-5.0,3.0,1.223
7.0,1.0,1.224
16.0,1.0,1.225
27.0,2.0,1.226
39.0,2.0,1.227
47.0,-1.0,1.228
40.0,-3.0,1.229
35.0,-3.0,1.23
38.0,-2.0,1.231
36.0,-1.0,1.232
15.0,-1.0,1.233
0.0,0.0,1.234
8.0,-1.0,1.235
12.0,-2.0,1.236
5.0,-3.0,1.237
-3.0,-2.0,1.238
-12.0,-2.0,1.239
-23.0,-2.0,1.24
-38.0,-5.0,1.241
-43.0,-5.0,1.242
-27.0,-1.0,1.243
-8.0,0.0,1.244
-2.0,-1.0,1.245
-9.0,-2.0,1.246
-10.0,-3.0,1.247
1.0,-3.0,1.248
15.0,-5.0,1.249
19.0,-6.0,1.25
18.0,-4.0,1.251
16.0,-1.0,1.252
13.0,-1.0,1.253
8.0,-3.0,1.254
-1.0,-4.0,1.255
-9.0,-2.0,1.256
-13.0,1.0,1.257
-13.0,2.0,1.258
-12.0,3.0,1.259
-13.0,3.0,1.26
-10.0,-1.0,1.261
-2.0,-4.0,1.262
7.0,0.0,1.263
15.0,3.0,1.264
24.0,3.0,1.265
33.0,3.0,1.266
35.0,2.0,1.267
26.0,1.0,1.268
14.0,0.0,1.269
3.0,-1.0,1.27
-2.0,-1.0,1.271
-4.0,-2.0,1.272
0.0,-4.0,1.273
8.0,-6.0,1.274
12.0,-4.0,1.275
2.0,-2.0,1.276
-10.0,0.0,1.277
-17.0,1.0,1.278
-17.0,-1.0,1.279
-20.0,0.0,1.28
-24.0,-1.0,1.281
-26.0,-1.0,1.282
-17.0,-1.0,1.283
-2.0,-1.0,1.284
7.0,0.0,1.285
3.0,0.0,1.286
-2.0,0.0,1.287
1.0,1.0,1.288
12.0,1.0,1.289
17.0,0.0,1.29
17.0,-2.0,1.291
17.0,-3.0,1.292
20.0,-3.0,1.293
20.0,-3.0,1.294
15.0,-4.0,1.295
10.0,-4.0,1.296
11.0,-3.0,1.297
14.0,-5.0,1.298
5.0,-7.0,1.299
-12.0,-7.0,1.3
-27.0,-7.0,1.301
-28.0,-6.0,1.302
-16.0,-5.0,1.303
-1.0,-3.0,1.304
5.0,1.0,1.305
6.0,5.0,1.306
13.0,5.0,1.307
33.0,3.0,1.308
52.0,3.0,1.309
53.0,3.0,1.31
32.0,0.0,1.311
6.0,-3.0,1.312
-8.0,-1.0,1.313
-10.0,4.0,1.314
-18.0,5.0,1.315
-33.0,2.0,1.316
-42.0,0.0,1.317
-29.0,-1.0,1.318
-1.0,-4.0,1.319
13.0,-6.0,1.32
-3.0,-7.0,1.321
-27.0,-3.0,1.322
-28.0,0.0,1.323
-8.0,-2.0,1.324
8.0,-3.0,1.325
6.0,1.0,1.326
0.0,3.0,1.327
3.0,1.0,1.328
6.0,0.0,1.329
5.0,0.0,1.33
14.0,2.0,1.331
28.0,-1.0,1.332
33.0,-2.0,1.333
22.0,0.0,1.334
8.0,1.0,1.335
5.0,1.0,1.336
13.0,2.0,1.337
21.0,2.0,1.338
32.0,2.0,1.339
35.0,-3.0,1.34
28.0,-9.0,1.341
14.0,-7.0,1.342
7.0,-2.0,1.343
7.0,1.0,1.344
0.0,4.0,1.345
-14.0,7.0,1.346
-22.0,4.0,1.347
-25.0,-4.0,1.348
-35.0,-8.0,1.349
-47.0,-4.0,1.35
-45.0,-1.0,1.351
-27.0,-2.0,1.352
-14.0,-4.0,1.353
-10.0,-3.0,1.354
1.0,0.0,1.355
18.0,-1.0,1.356
23.0,0.0,1.357
8.0,1.0,1.358
-2.0,2.0,1.359
7.0,0.0,1.36
21.0,-7.0,1.361
21.0,-8.0,1.362
13.0,-4.0,1.363
13.0,0.0,1.364
13.0,2.0,1.365
10.0,3.0,1.366
15.0,1.0,1.367
29.0,0.0,1.368
31.0,0.0,1.369
11.0,3.0,1.37
-10.0,5.0,1.371
-9.0,4.0,1.372
-1.0,0.0,1.373
-5.0,-4.0,1.374
-22.0,-4.0,1.375
-24.0,-1.0,1.376
-2.0,6.0,1.377
17.0,9.0,1.378
10.0,9.0,1.379
-10.0,6.0,1.38
-19.0,-1.0,1.381
-15.0,-5.0,1.382
-13.0,-3.0,1.383
-14.0,0.0,1.384
-7.0,3.0,1.385
8.0,3.0,1.386
17.0,2.0,1.387
18.0,0.0,1.388
20.0,-3.0,1.389
22.0,-5.0,1.39
15.0,-3.0,1.391
0.0,-2.0,1.392
-4.0,-3.0,1.393
7.0,-4.0,1.394
17.0,-2.0,1.395
17.0,-4.0,1.396
16.0,-8.0,1.397
17.0,-11.0,1.398
13.0,-8.0,1.399
-2.0,-1.0,1.4
-9.0,-3.0,1.401
-2.0,-8.0,1.402
10.0,-5.0,1.403
11.0,3.0,1.404
2.0,6.0,1.405
1.0,3.0,1.406
6.0,1.0,1.407
9.0,5.0,1.408
6.0,6.0,1.409
-1.0,3.0,1.41
-5.0,0.0,1.411
-4.0,0.0,1.412
3.0,0.0,1.413
11.0,-1.0,1.414
21.0,-3.0,1.415
32.0,-2.0,1.416
38.0,-2.0,1.417
25.0,-7.0,1.418
1.0,-9.0,1.419
-18.0,-6.0,1.42
-27.0,-4.0,1.421
-34.0,-4.0,1.422
-40.0,-6.0,1.423
-37.0,-5.0,1.424
-29.0,0.0,1.425
-30.0,10.0,1.426
-38.0,13.0,1.427
-32.0,10.0,1.428
-8.0,1.0,1.429
16.0,-2.0,1.43
25.0,0.0,1.431
22.0,3.0,1.432
19.0,0.0,1.433
19.0,-3.0,1.434
20.0,-1.0,1.435
23.0,1.0,1.436
18.0,1.0,1.437
6.0,-4.0,1.438
-10.0,-8.0,1.439
-21.0,-6.0,1.44
-21.0,-9.0,1.441
-5.0,-10.0,1.442
20.0,-8.0,1.443
36.0,-1.0,1.444
27.0,4.0,1.445
8.0,1.0,1.446
9.0,-5.0,1.447
35.0,-6.0,1.448
50.0,-2.0,1.449
37.0,0.0,1.45
13.0,-3.0,1.451
2.0,-5.0,1.452
0.0,-2.0,1.453
-9.0,-1.0,1.454
-20.0,-1.0,1.455
-17.0,-2.0,1.456
-3.0,3.0,1.457
1.0,9.0,1.458
-4.0,11.0,1.459
-13.0,7.0,1.46
-13.0,-2.0,1.461
-5.0,-2.0,1.462
6.0,0.0,1.463
15.0,-1.0,1.464
19.0,-3.0,1.465
18.0,0.0,1.466
21.0,7.0,1.467
28.0,11.0,1.468
33.0,11.0,1.469
29.0,10.0,1.47
19.0,10.0,1.471
7.0,8.0,1.472
-5.0,1.0,1.473
-16.0,-5.0,1.474
-24.0,-7.0,1.475
-33.0,-4.0,1.476
-43.0,0.0,1.477
-52.0,0.0,1.478
-44.0,-4.0,1.479
-19.0,-9.0,1.48
4.0,-11.0,1.481
13.0,-4.0,1.482
25.0,2.0,1.483
51.0,4.0,1.484
65.0,1.0,1.485
44.0,-1.0,1.486
2.0,-1.0,1.487
-27.0,-1.0,1.488
-41.0,-1.0,1.489
-48.0,-2.0,1.49
-50.0,-3.0,1.491
-39.0,-4.0,1.492
-20.0,-2.0,1.493
-2.0,4.0,1.494
18.0,7.0,1.495
34.0,4.0,1.496
34.0,-1.0,1.497
23.0,-6.0,1.498
22.0,-6.0,1.499
20.0,-5.0,1.5
16.0,-8.0,1.501
10.0,-9.0,1.502
2.0,-8.0,1.503
-3.0,-2.0,1.504
2.0,1.0,1.505
4.0,0.0,1.506
-1.0,-1.0,1.507
-4.0,-2.0,1.508
5.0,0.0,1.509
10.0,1.0,1.51
4.0,1.0,1.511
0.0,0.0,1.512
0.0,0.0,1.513
-4.0,0.0,1.514
-23.0,-1.0,1.515
-34.0,-1.0,1.516
-18.0,3.0,1.517
-3.0,1.0,1.518
-1.0,-2.0,1.519
-15.0,-5.0,1.52
-13.0,-6.0,1.521
6.0,-4.0,1.522
26.0,-3.0,1.523
35.0,-1.0,1.524
37.0,3.0,1.525
39.0,7.0,1.526
37.0,2.0,1.527
26.0,-5.0,1.528
17.0,-2.0,1.529
20.0,3.0,1.53
30.0,3.0,1.531
34.0,-3.0,1.532
24.0,-4.0,1.533
10.0,0.0,1.534
0.0,1.0,1.535
-6.0,-1.0,1.536
-16.0,-3.0,1.537
-30.0,-3.0,1.538
-34.0,-4.0,1.539
-26.0,-6.0,1.54
-16.0,-7.0,1.541
-12.0,-5.0,1.542
-9.0,-5.0,1.543
-2.0,-4.0,1.544
5.0,1.0,1.545
3.0,5.0,1.546
-1.0,1.0,1.547
1.0,-3.0,1.548
7.0,-2.0,1.549
8.0,3.0,1.55
2.0,2.0,1.551
1.0,-3.0,1.552
4.0,-1.0,1.553
10.0,3.0,1.554
15.0,6.0,1.555
25.0,2.0,1.556
32.0,0.0,1.557
26.0,2.0,1.558
5.0,3.0,1.559
-17.0,0.0,1.56
-24.0,-2.0,1.561
-20.0,2.0,1.562
-15.0,3.0,1.563
-13.0,-1.0,1.564
-9.0,-6.0,1.565
1.0,-2.0,1.566
13.0,1.0,1.567
26.0,-3.0,1.568
36.0,-8.0,1.569
32.0,-8.0,1.57
9.0,-4.0,1.571
-15.0,-1.0,1.572
-20.0,-1.0,1.573
-13.0,4.0,1.574
-20.0,10.0,1.575
-39.0,9.0,1.576
-38.0,8.0,1.577
-11.0,7.0,1.578
15.0,8.0,1.579
5.0,2.0,1.58
-19.0,-8.0,1.581
-17.0,-11.0,1.582
12.0,-6.0,1.583
33.0,-3.0,1.584
30.0,-5.0,1.585
22.0,-4.0,1.586
23.0,1.0,1.587
23.0,1.0,1.588
19.0,-4.0,1.589
25.0,-7.0,1.59
42.0,-4.0,1.591
45.0,0.0,1.592
26.0,-2.0,1.593
0.0,-5.0,1.594
-14.0,-4.0,1.595
-15.0,-4.0,1.596
-15.0,-4.0,1.597
-21.0,-5.0,1.598
-25.0,-4.0,1.599
-28.0,0.0,1.6
-28.0,3.0,1.601
-23.0,5.0,1.602
-9.0,2.0,1.603
6.0,-3.0,1.604
12.0,-5.0,1.605
10.0,-3.0,1.606
9.0,-1.0,1.607
14.0,-3.0,1.608
15.0,-5.0,1.609
11.0,-4.0,1.61
5.0,-3.0,1.611
-2.0,-2.0,1.612
-3.0,0.0,1.613
7.0,2.0,1.614
21.0,1.0,1.615
25.0,-2.0,1.616
19.0,-2.0,1.617
14.0,0.0,1.618
18.0,3.0,1.619
22.0,5.0,1.62
16.0,-1.0,1.621
6.0,-4.0,1.622
8.0,-4.0,1.623
12.0,0.0,1.624
0.0,7.0,1.625
-29.0,10.0,1.626
-52.0,5.0,1.627
-50.0,0.0,1.628
-29.0,0.0,1.629
-1.0,1.0,1.63
15.0,3.0,1.631
13.0,0.0,1.632
2.0,-2.0,1.633
-1.0,-4.0,1.634
3.0,-5.0,1.635
5.0,-4.0,1.636
3.0,0.0,1.637
-3.0,0.0,1.638
-10.0,-4.0,1.639
-22.0,-5.0,1.64
-26.0,-5.0,1.641
-3.0,-5.0,1.642
38.0,-6.0,1.643
57.0,-5.0,1.644
34.0,1.0,1.645
1.0,6.0,1.646
-9.0,2.0,1.647
-1.0,-5.0,1.648
1.0,-3.0,1.649
-1.0,3.0,1.65
8.0,2.0,1.651
20.0,-2.0,1.652
12.0,-1.0,1.653
-10.0,4.0,1.654
-22.0,4.0,1.655
-21.0,-1.0,1.656
-18.0,-3.0,1.657
-16.0,-3.0,1.658
-1.0,-1.0,1.659
22.0,-1.0,1.66
35.0,-5.0,1.661
33.0,-2.0,1.662
29.0,2.0,1.663
29.0,5.0,1.664
24.0,4.0,1.665
8.0,0.0,1.666
-9.0,-4.0,1.667
-16.0,-6.0,1.668
-12.0,-4.0,1.669
0.0,0.0,1.67
15.0,3.0,1.671
25.0,4.0,1.672
26.0,1.0,1.673
18.0,-2.0,1.674
8.0,-3.0,1.675
2.0,-2.0,1.676
-1.0,-1.0,1.677
-9.0,-2.0,1.678
-27.0,-3.0,1.679
-50.0,-2.0,1.68
-69.0,-7.0,1.681
-72.0,-9.0,1.682
-56.0,-9.0,1.683
-27.0,-5.0,1.684
0.0,0.0,1.685
19.0,4.0,1.686
33.0,5.0,1.687
47.0,2.0,1.688
56.0,1.0,1.689
48.0,3.0,1.69
32.0,3.0,1.691
19.0,1.0,1.692
16.0,-2.0,1.693
17.0,-3.0,1.694
14.0,-2.0,1.695
11.0,-2.0,1.696
10.0,-1.0,1.697
5.0,-1.0,1.698
4.0,-2.0,1.699
2.0,-3.0,1.7
-1.0,-6.0,1.701
-2.0,-6.0,1.702
3.0,-1.0,1.703
4.0,4.0,1.704
-5.0,6.0,1.705
-14.0,4.0,1.706
-13.0,1.0,1.707
-7.0,0.0,1.708
-12.0,-1.0,1.709
-20.0,0.0,1.71
-12.0,-1.0,1.711
10.0,-1.0,1.712
20.0,-1.0,1.713
14.0,-1.0,1.714
9.0,-2.0,1.715
18.0,1.0,1.716
25.0,5.0,1.717
13.0,4.0,1.718
-7.0,0.0,1.719
-20.0,-5.0,1.72
-19.0,-7.0,1.721
-16.0,-8.0,1.722
-11.0,-7.0,1.723
-4.0,-2.0,1.724
2.0,2.0,1.725
7.0,5.0,1.726
17.0,2.0,1.727
29.0,0.0,1.728
36.0,1.0,1.729
31.0,1.0,1.73
16.0,0.0,1.731
-5.0,1.0,1.732
-25.0,4.0,1.733
-41.0,3.0,1.734
-48.0,0.0,1.735
-51.0,-2.0,1.736
-44.0,0.0,1.737
-24.0,0.0,1.738
6.0,-3.0,1.739
22.0,-6.0,1.74
14.0,-6.0,1.741
4.0,-1.0,1.742
10.0,3.0,1.743
23.0,4.0,1.744
24.0,2.0,1.745
18.0,1.0,1.746
20.0,1.0,1.747
27.0,1.0,1.748
27.0,2.0,1.749
15.0,3.0,1.75
9.0,0.0,1.751
8.0,-4.0,1.752
5.0,-7.0,1.753
2.0,-5.0,1.754
8.0,-1.0,1.755
14.0,0.0,1.756
8.0,0.0,1.757
-2.0,-1.0,1.758
-1.0,-3.0,1.759
6.0,-5.0,1.76
2.0,-10.0,1.761
-5.0,-10.0,1.762
0.0,-6.0,1.763
15.0,-2.0,1.764
8.0,2.0,1.765
-21.0,4.0,1.766
-39.0,3.0,1.767
-27.0,0.0,1.768
-6.0,-4.0,1.769
-1.0,-4.0,1.77
-6.0,-1.0,1.771
-3.0,2.0,1.772
10.0,2.0,1.773
16.0,0.0,1.774
11.0,-1.0,1.775
3.0,1.0,1.776
3.0,5.0,1.777
1.0,5.0,1.778
-1.0,0.0,1.779
-5.0,-2.0,1.78
-5.0,-2.0,1.781
-2.0,1.0,1.782
9.0,1.0,1.783
21.0,-2.0,1.784
26.0,-1.0,1.785
22.0,2.0,1.786
21.0,2.0,1.787
28.0,-4.0,1.788
30.0,-4.0,1.789
21.0,0.0,1.79
2.0,5.0,1.791
-15.0,4.0,1.792
-29.0,2.0,1.793
-38.0,2.0,1.794
-39.0,4.0,1.795
-27.0,3.0,1.796
-8.0,0.0,1.797
5.0,-2.0,1.798
10.0,-2.0,1.799
5.0,-2.0,1.8
2.0,-5.0,1.801
8.0,-6.0,1.802
19.0,-6.0,1.803
31.0,-4.0,1.804
38.0,0.0,1.805
34.0,5.0,1.806
20.0,8.0,1.807
2.0,3.0,1.808
-10.0,0.0,1.809
-17.0,0.0,1.81
-22.0,4.0,1.811
-26.0,3.0,1.812
-24.0,-3.0,1.813
-15.0,-6.0,1.814
-10.0,-2.0,1.815
-12.0,1.0,1.816
-12.0,3.0,1.817
-7.0,-2.0,1.818
1.0,-3.0,1.819
-2.0,-1.0,1.82
-10.0,-5.0,1.821
-11.0,-8.0,1.822
1.0,-8.0,1.823
12.0,-4.0,1.824
4.0,0.0,1.825
-11.0,1.0,1.826
-2.0,-2.0,1.827
27.0,-3.0,1.828
42.0,-3.0,1.829
26.0,0.0,1.83
7.0,2.0,1.831
11.0,4.0,1.832
25.0,4.0,1.833
27.0,5.0,1.834
20.0,5.0,1.835
15.0,3.0,1.836
14.0,3.0,1.837
4.0,0.0,1.838
-4.0,0.0,1.839
-12.0,-4.0,1.84
-19.0,-9.0,1.841
-24.0,-10.0,1.842
-16.0,-5.0,1.843
5.0,-3.0,1.844
23.0,-1.0,1.845
30.0,2.0,1.846
31.0,5.0,1.847
32.0,5.0,1.848
27.0,-1.0,1.849
16.0,-6.0,1.85
2.0,-5.0,1.851
-11.0,-1.0,1.852
-24.0,-1.0,1.853
-30.0,-3.0,1.854
-31.0,-2.0,1.855
-40.0,4.0,1.856
-52.0,7.0,1.857
-50.0,2.0,1.858
-19.0,-5.0,1.859
15.0,-7.0,1.86
23.0,-8.0,1.861
19.0,-7.0,1.862
29.0,-6.0,1.863
51.0,-3.0,1.864
55.0,3.0,1.865
42.0,5.0,1.866
33.0,1.0,1.867
34.0,0.0,1.868
27.0,1.0,1.869
11.0,5.0,1.87
1.0,6.0,1.871
-8.0,4.0,1.872
-22.0,3.0,1.873
-27.0,2.0,1.874
-14.0,1.0,1.875
-3.0,-1.0,1.876
-13.0,-3.0,1.877
-33.0,-3.0,1.878
-36.0,-1.0,1.879
-27.0,-1.0,1.88
-17.0,-5.0,1.881
-2.0,-8.0,1.882
28.0,-6.0,1.883
46.0,-2.0,1.884
31.0,-1.0,1.885
1.0,0.0,1.886
-4.0,0.0,1.887
13.0,1.0,1.888
19.0,2.0,1.889
0.0,1.0,1.89
-23.0,-1.0,1.891
-28.0,-2.0,1.892
-21.0,0.0,1.893
-11.0,4.0,1.894
-5.0,3.0,1.895
-4.0,-1.0,1.896
-1.0,-3.0,1.897
0.0,-1.0,1.898
4.0,2.0,1.899
2.0,0.0,1.9
-2.0,-6.0,1.901
-4.0,-4.0,1.902
4.0,0.0,1.903
19.0,0.0,1.904
27.0,-1.0,1.905
24.0,-1.0,1.906
18.0,2.0,1.907
14.0,1.0,1.908
11.0,-3.0,1.909
5.0,-4.0,1.91
-5.0,-3.0,1.911
-11.0,-1.0,1.912
-8.0,1.0,1.913
0.0,0.0,1.914
0.0,0.0,1.915
-3.0,0.0,1.916
0.0,2.0,1.917
10.0,2.0,1.918
16.0,-2.0,1.919
12.0,-6.0,1.92
9.0,-7.0,1.921
11.0,-1.0,1.922
17.0,3.0,1.923
18.0,2.0,1.924
15.0,2.0,1.925
16.0,6.0,1.926
17.0,8.0,1.927
10.0,3.0,1.928
-5.0,-1.0,1.929
-18.0,-2.0,1.93
-18.0,-1.0,1.931
-8.0,-4.0,1.932
0.0,-6.0,1.933
4.0,-5.0,1.934
5.0,0.0,1.935
2.0,2.0,1.936
-4.0,2.0,1.937
-9.0,-1.0,1.938
-3.0,-7.0,1.939
2.0,-8.0,1.94
-9.0,-8.0,1.941
-31.0,-6.0,1.942
-40.0,-5.0,1.943
-22.0,-3.0,1.944
-4.0,3.0,1.945
-5.0,8.0,1.946
-12.0,4.0,1.947
1.0,-3.0,1.948
25.0,-4.0,1.949
30.0,3.0,1.95
17.0,6.0,1.951
7.0,0.0,1.952
13.0,-6.0,1.953
17.0,-5.0,1.954
13.0,-3.0,1.955
12.0,-4.0,1.956
17.0,-3.0,1.957
18.0,0.0,1.958
9.0,5.0,1.959
0.0,3.0,1.96
-1.0,-6.0,1.961
-1.0,-6.0,1.962
-2.0,0.0,1.963
-2.0,7.0,1.964
0.0,9.0,1.965
-1.0,7.0,1.966
-5.0,3.0,1.967
-8.0,-3.0,1.968
-9.0,-3.0,1.969
-6.0,0.0,1.97
-1.0,0.0,1.971
8.0,-2.0,1.972
16.0,-3.0,1.973
22.0,0.0,1.974
32.0,3.0,1.975
39.0,0.0,1.976
37.0,-3.0,1.977
18.0,-3.0,1.978
-7.0,2.0,1.979
-25.0,3.0,1.98
-33.0,-2.0,1.981
-36.0,-3.0,1.982
-30.0,-3.0,1.983
-17.0,-5.0,1.984
-7.0,-5.0,1.985
-5.0,-2.0,1.986
0.0,2.0,1.987
14.0,0.0,1.988
22.0,-2.0,1.989
19.0,-1.0,1.99
11.0,2.0,1.991
7.0,3.0,1.992
7.0,-1.0,1.993
5.0,-3.0,1.994
7.0,1.0,1.995
9.0,4.0,1.996
7.0,3.0,1.997
6.0,0.0,1.998
12.0,-1.0,1.999
18.0,0.0,2.0
23.0,-3.0,2.001
31.0,-5.0,2.002
38.0,-5.0,2.003
37.0,-4.0,2.004
17.0,1.0,2.005
-3.0,4.0,2.006
-11.0,4.0,2.007
-13.0,1.0,2.008
-25.0,2.0,2.009
-35.0,6.0,2.01
-26.0,7.0,2.011
-3.0,3.0,2.012
7.0,-4.0,2.013
-2.0,-8.0,2.014
-16.0,-7.0,2.015
-25.0,-4.0,2.016
-30.0,-3.0,2.017
-28.0,-6.0,2.018
-15.0,-9.0,2.019
-5.0,-10.0,2.02
-4.0,-11.0,2.021
-1.0,-7.0,2.022
20.0,-1.0,2.023
38.0,5.0,2.024
36.0,7.0,2.025
17.0,5.0,2.026
2.0,2.0,2.027
-11.0,0.0,2.028
-25.0,2.0,2.029
-26.0,4.0,2.03
-2.0,7.0,2.031
22.0,6.0,2.032
23.0,1.0,2.033
21.0,-3.0,2.034
39.0,-5.0,2.035
62.0,-2.0,2.036
60.0,-1.0,2.037
25.0,-5.0,2.038
-8.0,-4.0,2.039
-25.0,-3.0,2.04
-33.0,-3.0,2.041
-38.0,-3.0,2.042
-29.0,-4.0,2.043
-18.0,-5.0,2.044
-20.0,-3.0,2.045
-35.0,-1.0,2.046
-39.0,-2.0,2.047
-24.0,-2.0,2.048
-16.0,0.0,2.049
-17.0,2.0,2.05
-11.0,2.0,2.051
12.0,2.0,2.052
31.0,0.0,2.053
30.0,-1.0,2.054
17.0,-1.0,2.055
8.0,0.0,2.056
13.0,-1.0,2.057
22.0,-1.0,2.058
29.0,0.0,2.059
27.0,3.0,2.06
24.0,-1.0,2.061
26.0,-4.0,2.062
31.0,-5.0,2.063
25.0,0.0,2.064
14.0,6.0,2.065
8.0,6.0,2.066
8.0,2.0,2.067
9.0,-2.0,2.068
2.0,-3.0,2.069
-1.0,-2.0,2.07
2.0,0.0,2.071
7.0,0.0,2.072
9.0,0.0,2.073
3.0,-2.0,2.074
-3.0,-2.0,2.075
-5.0,-3.0,2.076
-1.0,-2.0,2.077
-1.0,-4.0,2.078
-3.0,-5.0,2.079
-9.0,-3.0,2.08
-9.0,-4.0,2.081
3.0,-5.0,2.082
21.0,-4.0,2.083
31.0,-1.0,2.084
24.0,5.0,2.085
5.0,7.0,2.086
-12.0,3.0,2.087
-25.0,0.0,2.088
-35.0,0.0,2.089
-41.0,2.0,2.09
-38.0,3.0,2.091
-25.0,2.0,2.092
-8.0,2.0,2.093
-1.0,2.0,2.094
1.0,0.0,2.095
3.0,0.0,2.096
6.0,1.0,2.097
5.0,-1.0,2.098
3.0,-2.0,2.099
2.0,-4.0,2.1
6.0,-7.0,2.101
5.0,-9.0,2.102
5.0,-5.0,2.103
13.0,-1.0,2.104
22.0,4.0,2.105
20.0,7.0,2.106
10.0,3.0,2.107
6.0,0.0,2.108
10.0,0.0,2.109
7.0,0.0,2.11
-3.0,-1.0,2.111
-8.0,-2.0,2.112
0.0,2.0,2.113
9.0,5.0,2.114
8.0,3.0,2.115
7.0,0.0,2.116
16.0,-1.0,2.117
21.0,-3.0,2.118
11.0,-4.0,2.119
-7.0,-7.0,2.12
-10.0,-10.0,2.121
4.0,-10.0,2.122
16.0,-6.0,2.123
9.0,-1.0,2.124
-10.0,0.0,2.125
-24.0,0.0,2.126
-24.0,-1.0,2.127
-15.0,-1.0,2.128
-3.0,2.0,2.129
8.0,1.0,2.13
19.0,-4.0,2.131
25.0,-7.0,2.132
23.0,-7.0,2.133
14.0,-4.0,2.134
7.0,-3.0,2.135
3.0,-4.0,2.136
3.0,-2.0,2.137
-1.0,1.0,2.138
-9.0,4.0,2.139
-18.0,4.0,2.14
-20.0,0.0,2.141
-11.0,-2.0,2.142
8.0,-3.0,2.143
24.0,-1.0,2.144
37.0,4.0,2.145
46.0,6.0,2.146
44.0,5.0,2.147
26.0,1.0,2.148
0.0,0.0,2.149
-6.0,4.0,2.15
14.0,6.0,2.151
33.0,2.0,2.152
23.0,-2.0,2.153
-6.0,-3.0,2.154
-24.0,0.0,2.155
-27.0,1.0,2.156
-30.0,3.0,2.157
-47.0,1.0,2.158
-65.0,0.0,2.159
-62.0,0.0,2.16
-28.0,-2.0,2.161
12.0,-4.0,2.162
31.0,-6.0,2.163
23.0,-5.0,2.164
13.0,-4.0,2.165
21.0,-2.0,2.166
35.0,-2.0,2.167
35.0,-2.0,2.168
19.0,1.0,2.169
5.0,5.0,2.17
-2.0,6.0,2.171
-6.0,3.0,2.172
-14.0,1.0,2.173
-21.0,3.0,2.174
-28.0,2.0,2.175
-30.0,-3.0,2.176
-24.0,-6.0,2.177
-15.0,-4.0,2.178
-7.0,0.0,2.179
0.0,-1.0,2.18
16.0,-7.0,2.181
29.0,-10.0,2.182
30.0,-7.0,2.183
24.0,-4.0,2.184
23.0,-3.0,2.185
19.0,1.0,2.186
4.0,5.0,2.187
-8.0,2.0,2.188
0.0,-2.0,2.189
17.0,-5.0,2.19
16.0,-4.0,2.191
3.0,-4.0,2.192
1.0,-5.0,2.193
13.0,-4.0,2.194
18.0,-2.0,2.195
9.0,-1.0,2.196
0.0,0.0,2.197
-5.0,3.0,2.198
-4.0,5.0,2.199
-3.0,2.0,2.2
0.0,-2.0,2.201
7.0,-1.0,2.202
11.0,-1.0,2.203
12.0,-2.0,2.204
12.0,-2.0,2.205
8.0,3.0,2.206
7.0,7.0,2.207
11.0,5.0,2.208
19.0,3.0,2.209
26.0,4.0,2.21
34.0,4.0,2.211
47.0,0.0,2.212
52.0,-4.0,2.213
39.0,-3.0,2.214
9.0,-2.0,2.215
-21.0,-6.0,2.216
-42.0,-8.0,2.217
-62.0,-7.0,2.218
-80.0,-4.0,2.219
-86.0,-3.0,2.22
-71.0,-5.0,2.221
-46.0,-2.0,2.222
-18.0,1.0,2.223
7.0,0.0,2.224
28.0,0.0,2.225
36.0,5.0,2.226
30.0,7.0,2.227
21.0,5.0,2.228
17.0,1.0,2.229
16.0,2.0,2.23
12.0,1.0,2.231
11.0,-1.0,2.232
16.0,-4.0,2.233
17.0,-3.0,2.234
7.0,-1.0,2.235
-3.0,-2.0,2.236
-1.0,-2.0,2.237
8.0,-2.0,2.238
4.0,-4.0,2.239
-10.0,-7.0,2.24
-11.0,-11.0,2.241
10.0,-6.0,2.242
29.0,1.0,2.243
26.0,3.0,2.244
7.0,0.0,2.245
-6.0,0.0,2.246
-5.0,3.0,2.247
2.0,6.0,2.248
6.0,5.0,2.249
5.0,5.0,2.25
6.0,5.0,2.251
13.0,3.0,2.252
23.0,-2.0,2.253
30.0,-5.0,2.254
31.0,-5.0,2.255
25.0,-5.0,2.256
18.0,-3.0,2.257
3.0,-3.0,2.258
-6.0,0.0,2.259
-13.0,1.0,2.26
-19.0,-4.0,2.261
-25.0,-6.0,2.262
-25.0,-4.0,2.263
-11.0,1.0,2.264
1.0,3.0,2.265
2.0,4.0,2.266
-7.0,4.0,2.267
-16.0,2.0,2.268
-23.0,1.0,2.269
-31.0,4.0,2.27
-30.0,8.0,2.271
-8.0,5.0,2.272
21.0,0.0,2.273
26.0,-1.0,2.274
14.0,0.0,2.275
10.0,0.0,2.276
24.0,-3.0,2.277
30.0,-6.0,2.278
16.0,-4.0,2.279
-3.0,-3.0,2.28
0.0,-6.0,2.281
16.0,-4.0,2.282
28.0,0.0,2.283
29.0,4.0,2.284
19.0,3.0,2.285
2.0,1.0,2.286
-12.0,-1.0,2.287
-20.0,-6.0,2.288
-29.0,-10.0,2.289
-46.0,-8.0,2.29
-51.0,-2.0,2.291
-26.0,2.0,2.292
15.0,2.0,2.293
38.0,1.0,2.294
34.0,-1.0,2.295
26.0,-3.0,2.296
23.0,0.0,2.297
16.0,4.0,2.298
4.0,3.0,2.299
-3.0,-2.0,2.3
0.0,-8.0,2.301
5.0,-5.0,2.302
2.0,1.0,2.303
4.0,6.0,2.304
12.0,7.0,2.305
18.0,5.0,2.306
15.0,0.0,2.307
14.0,-4.0,2.308
21.0,-6.0,2.309
23.0,-2.0,2.31
8.0,3.0,2.311
-25.0,6.0,2.312
-59.0,5.0,2.313
-74.0,3.0,2.314
-56.0,1.0,2.315
-15.0,-1.0,2.316
23.0,-2.0,2.317
31.0,-5.0,2.318
12.0,-6.0,2.319
-3.0,-7.0,2.32
1.0,-10.0,2.321
2.0,-9.0,2.322
-14.0,-3.0,2.323
-29.0,-1.0,2.324
-15.0,-1.0,2.325
10.0,-4.0,2.326
23.0,-5.0,2.327
26.0,-4.0,2.328
39.0,-1.0,2.329
51.0,3.0,2.33
44.0,2.0,2.331
29.0,0.0,2.332
32.0,-2.0,2.333
45.0,0.0,2.334
37.0,3.0,2.335
5.0,4.0,2.336
-16.0,1.0,2.337
-17.0,-2.0,2.338
-12.0,-1.0,2.339
-21.0,1.0,2.34
-35.0,-2.0,2.341
-35.0,-5.0,2.342
-16.0,-4.0,2.343
0.0,0.0,2.344
3.0,3.0,2.345
-2.0,4.0,2.346
2.0,4.0,2.347
14.0,4.0,2.348
19.0,2.0,2.349
13.0,-1.0,2.35
7.0,-3.0,2.351
7.0,-2.0,2.352
6.0,-1.0,2.353
0.0,-2.0,2.354
-6.0,-2.0,2.355
-6.0,0.0,2.356
-6.0,1.0,2.357
-13.0,-1.0,2.358
-21.0,-2.0,2.359
-23.0,-3.0,2.36
-17.0,-4.0,2.361
-12.0,-4.0,2.362
-2.0,-2.0,2.363
9.0,0.0,2.364
13.0,5.0,2.365
6.0,9.0,2.366
3.0,7.0,2.367
10.0,6.0,2.368
19.0,6.0,2.369
22.0,5.0,2.37
23.0,2.0,2.371
27.0,-1.0,2.372
28.0,-3.0,2.373
22.0,-6.0,2.374
15.0,-5.0,2.375
8.0,-4.0,2.376
-1.0,-4.0,2.377
-13.0,-3.0,2.378
-13.0,-1.0,2.379
-10.0,-1.0,2.38
1.0,-5.0,2.381
7.0,-2.0,2.382
-3.0,0.0,2.383
-13.0,1.0,2.384
-20.0,-1.0,2.385
-22.0,-2.0,2.386
-5.0,-2.0,2.387
8.0,-2.0,2.388
9.0,-3.0,2.389
10.0,0.0,2.39
5.0,3.0,2.391
5.0,0.0,2.392
24.0,-5.0,2.393
35.0,-8.0,2.394
20.0,-6.0,2.395
7.0,-4.0,2.396
3.0,-3.0,2.397
-3.0,-4.0,2.398
-23.0,-3.0,2.399
-50.0,-2.0,2.4
-62.0,-4.0,2.401
-56.0,-3.0,2.402
-38.0,0.0,2.403
-16.0,3.0,2.404
8.0,4.0,2.405
36.0,3.0,2.406
64.0,2.0,2.407
79.0,0.0,2.408
72.0,0.0,2.409
46.0,0.0,2.41
24.0,-1.0,2.411
16.0,-1.0,2.412
6.0,1.0,2.413
-18.0,5.0,2.414
-40.0,5.0,2.415
-33.0,1.0,2.416
-8.0,-3.0,2.417
5.0,-3.0,2.418
1.0,-2.0,2.419
-4.0,-1.0,2.42
1.0,-4.0,2.421
8.0,-6.0,2.422
8.0,-5.0,2.423
13.0,-4.0,2.424
29.0,-1.0,2.425
44.0,1.0,2.426
45.0,2.0,2.427
26.0,2.0,2.428
0.0,1.0,2.429
-26.0,-1.0,2.43
-45.0,-5.0,2.431
-51.0,-6.0,2.432
-46.0,-3.0,2.433
-33.0,1.0,2.434
-22.0,2.0,2.435
-10.0,0.0,2.436
1.0,0.0,2.437
8.0,0.0,2.438
6.0,0.0,2.439
0.0,-1.0,2.44
-3.0,-6.0,2.441
-5.0,-9.0,2.442
-1.0,-8.0,2.443
11.0,-6.0,2.444
23.0,-1.0,2.445
27.0,2.0,2.446
25.0,-1.0,2.447
25.0,-4.0,2.448
26.0,-4.0,2.449
22.0,1.0,2.45
12.0,6.0,2.451
2.0,7.0,2.452
-3.0,6.0,2.453
-7.0,7.0,2.454
-9.0,5.0,2.455
-8.0,0.0,2.456
-5.0,1.0,2.457
-4.0,4.0,2.458
-4.0,6.0,2.459
-6.0,4.0,2.46
-7.0,-4.0,2.461
0.0,-6.0,2.462
11.0,-3.0,2.463
19.0,-1.0,2.464
18.0,3.0,2.465
13.0,8.0,2.466
17.0,7.0,2.467
23.0,2.0,2.468
18.0,-4.0,2.469
2.0,-7.0,2.47
-4.0,-8.0,2.471
2.0,-8.0,2.472
14.0,-7.0,2.473
20.0,-3.0,2.474
26.0,0.0,2.475
25.0,-3.0,2.476
7.0,-4.0,2.477
-32.0,-4.0,2.478
-71.0,-4.0,2.479
-83.0,-5.0,2.48
-74.0,-6.0,2.481
-62.0,0.0,2.482
-51.0,3.0,2.483
-26.0,1.0,2.484
12.0,-1.0,2.485
41.0,1.0,2.486
44.0,2.0,2.487
28.0,-1.0,2.488
22.0,-4.0,2.489
30.0,-4.0,2.49
37.0,-2.0,2.491
32.0,-3.0,2.492
25.0,-2.0,2.493
29.0,0.0,2.494
36.0,-1.0,2.495
32.0,-5.0,2.496
19.0,-4.0,2.497
13.0,-1.0,2.498
16.0,0.0,2.499
6.0,-4.0,2.5
-17.0,-8.0,2.501
-32.0,-2.0,2.502
-22.0,6.0,2.503
-7.0,9.0,2.504
-8.0,7.0,2.505
-16.0,4.0,2.506
-8.0,1.0,2.507
10.0,-2.0,2.508
16.0,-3.0,2.509
10.0,-3.0,2.51
9.0,-1.0,2.511
12.0,0.0,2.512
6.0,1.0,2.513
-12.0,2.0,2.514
-21.0,1.0,2.515
-14.0,0.0,2.516
3.0,0.0,2.517
18.0,-2.0,2.518
27.0,-2.0,2.519
30.0,-1.0,2.52
23.0,-1.0,2.521
7.0,0.0,2.522
-11.0,-1.0,2.523
-21.0,0.0,2.524
-18.0,3.0,2.525
-2.0,8.0,2.526
16.0,6.0,2.527
26.0,0.0,2.528
27.0,-5.0,2.529
26.0,-2.0,2.53
27.0,1.0,2.531
28.0,3.0,2.532
21.0,2.0,2.533
3.0,-2.0,2.534
-21.0,-6.0,2.535
-40.0,-9.0,2.536
-43.0,-6.0,2.537
-40.0,-3.0,2.538
-39.0,0.0,2.539
-38.0,1.0,2.54
-26.0,-1.0,2.541
-5.0,-2.0,2.542
11.0,-5.0,2.543
15.0,-5.0,2.544
11.0,-1.0,2.545
8.0,6.0,2.546
6.0,7.0,2.547
8.0,1.0,2.548
18.0,-4.0,2.549
35.0,-1.0,2.55
48.0,2.0,2.551
46.0,-1.0,2.552
31.0,-5.0,2.553
13.0,-6.0,2.554
-4.0,-1.0,2.555
-21.0,3.0,2.556
-41.0,3.0,2.557
-61.0,-1.0,2.558
-64.0,-3.0,2.559
-45.0,-3.0,2.56
-12.0,-4.0,2.561
17.0,-5.0,2.562
31.0,-4.0,2.563
27.0,-2.0,2.564
15.0,0.0,2.565
5.0,2.0,2.566
4.0,0.0,2.567
9.0,-2.0,2.568
12.0,-4.0,2.569
14.0,-3.0,2.57
16.0,0.0,2.571
16.0,3.0,2.572
14.0,3.0,2.573
12.0,1.0,2.574
11.0,1.0,2.575
9.0,0.0,2.576
6.0,0.0,2.577
0.0,-1.0,2.578
-2.0,-1.0,2.579
-4.0,-1.0,2.58
-4.0,-8.0,2.581
-3.0,-9.0,2.582
0.0,-6.0,2.583
6.0,-1.0,2.584
12.0,1.0,2.585
14.0,4.0,2.586
14.0,5.0,2.587
9.0,3.0,2.588
5.0,0.0,2.589
5.0,-2.0,2.59
7.0,-2.0,2.591
9.0,-1.0,2.592
7.0,1.0,2.593
4.0,7.0,2.594
3.0,9.0,2.595
3.0,4.0,2.596
4.0,0.0,2.597
0.0,-1.0,2.598
-3.0,4.0,2.599
-5.0,5.0,2.6
-6.0,-5.0,2.601
-4.0,-10.0,2.602
4.0,-7.0,2.603
18.0,-2.0,2.604
27.0,-1.0,2.605
22.0,-2.0,2.606
11.0,0.0,2.607
1.0,1.0,2.608
-3.0,-2.0,2.609
-11.0,-3.0,2.61
-23.0,-3.0,2.611
-35.0,-4.0,2.612
-38.0,-5.0,2.613
-28.0,-4.0,2.614
-13.0,-2.0,2.615
-4.0,-1.0,2.616
-6.0,-1.0,2.617
-14.0,0.0,2.618
-13.0,1.0,2.619
-9.0,3.0,2.62
-6.0,-2.0,2.621
-5.0,-6.0,2.622
3.0,-4.0,2.623
18.0,-2.0,2.624
23.0,0.0,2.625
21.0,2.0,2.626
18.0,0.0,2.627
17.0,-1.0,2.628
12.0,-1.0,2.629
6.0,0.0,2.63
8.0,1.0,2.631
15.0,2.0,2.632
20.0,0.0,2.633
20.0,-2.0,2.634
19.0,-2.0,2.635
17.0,-2.0,2.636
12.0,-6.0,2.637
4.0,-8.0,2.638
1.0,-5.0,2.639
0.0,-3.0,2.64
-8.0,-5.0,2.641
-17.0,-6.0,2.642
-16.0,-4.0,2.643
-5.0,0.0,2.644
4.0,3.0,2.645
7.0,5.0,2.646
11.0,4.0,2.647
20.0,2.0,2.648
26.0,1.0,2.649
24.0,5.0,2.65
17.0,8.0,2.651
11.0,6.0,2.652
5.0,1.0,2.653
1.0,0.0,2.654
-4.0,-2.0,2.655
-8.0,-4.0,2.656
-7.0,-5.0,2.657
-9.0,-5.0,2.658
-14.0,-2.0,2.659
-15.0,-2.0,2.66
-11.0,-4.0,2.661
-7.0,0.0,2.662
-9.0,7.0,2.663
-14.0,9.0,2.664
-16.0,5.0,2.665
-10.0,5.0,2.666
3.0,4.0,2.667
23.0,0.0,2.668
39.0,-3.0,2.669
46.0,0.0,2.67
48.0,4.0,2.671
51.0,3.0,2.672
47.0,-3.0,2.673
20.0,-5.0,2.674
-17.0,0.0,2.675
-35.0,3.0,2.676
-29.0,3.0,2.677
-24.0,-3.0,2.678
-41.0,-6.0,2.679
-61.0,-6.0,2.68
-51.0,-9.0,2.681
-13.0,-10.0,2.682
16.0,-9.0,2.683
16.0,-4.0,2.684
-3.0,3.0,2.685
-19.0,9.0,2.686
-26.0,4.0,2.687
-29.0,-2.0,2.688
-25.0,-1.0,2.689
-4.0,4.0,2.69
28.0,4.0,2.691
47.0,-1.0,2.692
37.0,-3.0,2.693
14.0,-4.0,2.694
-2.0,-3.0,2.695
-1.0,-3.0,2.696
11.0,0.0,2.697
23.0,1.0,2.698
33.0,0.0,2.699
34.0,-3.0,2.7
26.0,-6.0,2.701
17.0,-4.0,2.702
14.0,-3.0,2.703
13.0,-2.0,2.704
5.0,1.0,2.705
-10.0,7.0,2.706
-17.0,6.0,2.707
-5.0,-2.0,2.708
13.0,-6.0,2.709
19.0,-3.0,2.71
13.0,1.0,2.711
8.0,0.0,2.712
8.0,-4.0,2.713
6.0,-4.0,2.714
0.0,-4.0,2.715
-1.0,-2.0,2.716
3.0,1.0,2.717
0.0,3.0,2.718
-11.0,4.0,2.719
-20.0,2.0,2.72
-17.0,-3.0,2.721
-8.0,-4.0,2.722
-4.0,-4.0,2.723
-1.0,-3.0,2.724
2.0,-2.0,2.725
5.0,1.0,2.726
7.0,4.0,2.727
16.0,2.0,2.728
28.0,-3.0,2.729
30.0,-4.0,2.73
18.0,-2.0,2.731
1.0,-1.0,2.732
-6.0,0.0,2.733
-9.0,-1.0,2.734
-18.0,-2.0,2.735
-26.0,-3.0,2.736
-22.0,-3.0,2.737
-11.0,-4.0,2.738
-1.0,-2.0,2.739
-3.0,-2.0,2.74
-6.0,-5.0,2.741
-2.0,-8.0,2.742
6.0,-10.0,2.743
10.0,-3.0,2.744
11.0,7.0,2.745
10.0,13.0,2.746
10.0,9.0,2.747
12.0,2.0,2.748
15.0,-1.0,2.749
19.0,1.0,2.75
17.0,2.0,2.751
9.0,3.0,2.752
0.0,4.0,2.753
-4.0,6.0,2.754
-2.0,6.0,2.755
8.0,5.0,2.756
27.0,4.0,2.757
46.0,1.0,2.758
47.0,-3.0,2.759
33.0,-7.0,2.76
14.0,-8.0,2.761
1.0,-2.0,2.762
-11.0,3.0,2.763
-31.0,4.0,2.764
-53.0,3.0,2.765
-59.0,2.0,2.766
-41.0,1.0,2.767
-15.0,1.0,2.768
2.0,3.0,2.769
6.0,3.0,2.77
2.0,-1.0,2.771
1.0,-7.0,2.772
3.0,-5.0,2.773
-3.0,-3.0,2.774
-21.0,-2.0,2.775
-46.0,-5.0,2.776
-59.0,-5.0,2.777
-39.0,-4.0,2.778
2.0,-4.0,2.779
31.0,-5.0,2.78
26.0,-8.0,2.781
15.0,-9.0,2.782
26.0,-8.0,2.783
43.0,-1.0,2.784
35.0,5.0,2.785
16.0,8.0,2.786
20.0,3.0,2.787
38.0,-2.0,2.788
35.0,-2.0,2.789
13.0,3.0,2.79
2.0,2.0,2.791
12.0,-5.0,2.792
16.0,-8.0,2.793
9.0,-4.0,2.794
9.0,2.0,2.795
16.0,1.0,2.796
15.0,-3.0,2.797
2.0,-6.0,2.798
-6.0,0.0,2.799
-6.0,7.0,2.8
-12.0,10.0,2.801
-23.0,8.0,2.802
-25.0,4.0,2.803
-13.0,0.0,2.804
0.0,0.0,2.805
6.0,4.0,2.806
13.0,5.0,2.807
19.0,1.0,2.808
18.0,-3.0,2.809
11.0,-4.0,2.81
6.0,0.0,2.811
10.0,2.0,2.812
15.0,0.0,2.813
18.0,-2.0,2.814
17.0,-4.0,2.815
11.0,-4.0,2.816
2.0,-3.0,2.817
-10.0,-3.0,2.818
-21.0,-1.0,2.819
-41.0,-1.0,2.82
-66.0,-6.0,2.821
-75.0,-9.0,2.822
-54.0,-7.0,2.823
-25.0,-4.0,2.824
-12.0,-2.0,2.825
-6.0,-1.0,2.826
12.0,0.0,2.827
33.0,1.0,2.828
37.0,3.0,2.829
27.0,5.0,2.83
26.0,3.0,2.831
34.0,2.0,2.832
30.0,2.0,2.833
16.0,1.0,2.834
12.0,0.0,2.835
17.0,-2.0,2.836
15.0,-2.0,2.837
5.0,-2.0,2.838
3.0,-3.0,2.839
2.0,-4.0,2.84
4.0,-7.0,2.841
8.0,-7.0,2.842
12.0,-5.0,2.843
16.0,-2.0,2.844
16.0,2.0,2.845
17.0,4.0,2.846
21.0,2.0,2.847
20.0,1.0,2.848
3.0,2.0,2.849
-11.0,2.0,2.85
-15.0,-1.0,2.851
-17.0,-5.0,2.852
-12.0,-4.0,2.853
-7.0,-2.0,2.854
-5.0,-2.0,2.855
-1.0,-2.0,2.856
4.0,0.0,2.857
7.0,1.0,2.858
-10.0,0.0,2.859
-16.0,-1.0,2.86
-11.0,-3.0,2.861
-5.0,-5.0,2.862
-4.0,-3.0,2.863
0.0,-1.0,2.864
4.0,1.0,2.865
3.0,4.0,2.866
1.0,3.0,2.867
8.0,2.0,2.868
19.0,4.0,2.869
21.0,6.0,2.87
15.0,3.0,2.871
10.0,1.0,2.872
10.0,2.0,2.873
11.0,3.0,2.874
12.0,1.0,2.875
9.0,0.0,2.876
5.0,1.0,2.877
-3.0,3.0,2.878
-9.0,3.0,2.879
-12.0,-1.0,2.88
-16.0,-5.0,2.881
-20.0,-3.0,2.882
-12.0,-1.0,2.883
10.0,0.0,2.884
33.0,2.0,2.885
43.0,6.0,2.886
42.0,5.0,2.887
36.0,0.0,2.888
25.0,-3.0,2.889
6.0,-1.0,2.89
-11.0,1.0,2.891
-19.0,-1.0,2.892
-22.0,-6.0,2.893
-29.0,-6.0,2.894
-38.0,-4.0,2.895
-31.0,-1.0,2.896
-13.0,1.0,2.897
0.0,-4.0,2.898
-4.0,-7.0,2.899
-15.0,-9.0,2.9
-13.0,-9.0,2.901
-1.0,-6.0,2.902
10.0,-2.0,2.903
9.0,2.0,2.904
7.0,4.0,2.905
5.0,2.0,2.906
4.0,-3.0,2.907
5.0,-6.0,2.908
11.0,-2.0,2.909
14.0,4.0,2.91
12.0,9.0,2.911
7.0,7.0,2.912
5.0,1.0,2.913
3.0,-2.0,2.914
0.0,-3.0,2.915
0.0,-2.0,2.916
3.0,0.0,2.917
5.0,0.0,2.918
2.0,0.0,2.919
-1.0,0.0,2.92
2.0,-4.0,2.921
10.0,-7.0,2.922
16.0,-6.0,2.923
16.0,0.0,2.924
8.0,6.0,2.925
-2.0,6.0,2.926
-10.0,2.0,2.927
-13.0,0.0,2.928
-18.0,1.0,2.929
-20.0,2.0,2.93
-15.0,-1.0,2.931
-1.0,-7.0,2.932
8.0,-5.0,2.933
5.0,0.0,2.934
1.0,1.0,2.935
7.0,-2.0,2.936
16.0,-1.0,2.937
14.0,1.0,2.938
7.0,1.0,2.939
2.0,-4.0,2.94
1.0,-9.0,2.941
-1.0,-5.0,2.942
0.0,0.0,2.943
8.0,-1.0,2.944
15.0,-1.0,2.945
13.0,3.0,2.946
7.0,6.0,2.947
7.0,1.0,2.948
10.0,-3.0,2.949
8.0,0.0,2.95
8.0,2.0,2.951
12.0,-1.0,2.952
13.0,-5.0,2.953
7.0,-3.0,2.954
0.0,-1.0,2.955
0.0,-4.0,2.956
1.0,-5.0,2.957
-1.0,-5.0,2.958
-3.0,-1.0,2.959
-6.0,-2.0,2.96
-10.0,-7.0,2.961
-11.0,-8.0,2.962
-4.0,-5.0,2.963
6.0,1.0,2.964
10.0,6.0,2.965
7.0,6.0,2.966
5.0,2.0,2.967
6.0,-1.0,2.968
5.0,0.0,2.969
1.0,1.0,2.97
1.0,0.0,2.971
7.0,-1.0,2.972
9.0,0.0,2.973
3.0,1.0,2.974
-2.0,-1.0,2.975
-3.0,-4.0,2.976
-1.0,-4.0,2.977
0.0,-5.0,2.978
0.0,-5.0,2.979
-4.0,-4.0,2.98
-8.0,-6.0,2.981
-7.0,-4.0,2.982
0.0,-2.0,2.983
7.0,2.0,2.984
7.0,5.0,2.985
2.0,7.0,2.986
2.0,7.0,2.987
9.0,5.0,2.988
18.0,2.0,2.989
21.0,0.0,2.99
18.0,0.0,2.991
13.0,0.0,2.992
6.0,0.0,2.993
0.0,-4.0,2.994
-6.0,-5.0,2.995
-11.0,-3.0,2.996
-13.0,0.0,2.997
-14.0,-1.0,2.998
-11.0,-2.0,2.999
-11.0,-2.0,3.0
-13.0,-3.0,3.001
-10.0,-1.0,3.002
1.0,0.0,3.003
14.0,-1.0,3.004
12.0,0.0,3.005
4.0,2.0,3.006
3.0,3.0,3.007
11.0,2.0,3.008
13.0,1.0,3.009
6.0,2.0,3.01
3.0,4.0,3.011
9.0,3.0,3.012
15.0,-2.0,3.013
13.0,-3.0,3.014
5.0,0.0,3.015
0.0,1.0,3.016
0.0,0.0,3.017
-1.0,-3.0,3.018
-6.0,-1.0,3.019
-14.0,0.0,3.02
-17.0,-3.0,3.021
-14.0,-5.0,3.022
-5.0,0.0,3.023
2.0,5.0,3.024
7.0,5.0,3.025
12.0,4.0,3.026
16.0,5.0,3.027
21.0,6.0,3.028
21.0,4.0,3.029
18.0,3.0,3.03
15.0,3.0,3.031
13.0,2.0,3.032
12.0,0.0,3.033
12.0,-3.0,3.034
14.0,-3.0,3.035
17.0,-3.0,3.036
21.0,-1.0,3.037
17.0,0.0,3.038
6.0,-2.0,3.039
-6.0,-5.0,3.04
-22.0,-8.0,3.041
-30.0,-6.0,3.042
-16.0,-2.0,3.043
-6.0,-1.0,3.044
-9.0,-1.0,3.045
-12.0,1.0,3.046
-12.0,3.0,3.047
-13.0,0.0,3.048
-14.0,-3.0,3.049
-13.0,-6.0,3.05
-1.0,-5.0,3.051
8.0,-5.0,3.052
4.0,-4.0,3.053
0.0,0.0,3.054
-6.0,1.0,3.055
-11.0,-1.0,3.056
-11.0,-3.0,3.057
-10.0,-5.0,3.058
-4.0,-3.0,3.059
-1.0,-1.0,3.06
-1.0,-4.0,3.061
-1.0,-3.0,3.062
7.0,0.0,3.063
18.0,4.0,3.064
23.0,5.0,3.065
22.0,3.0,3.066
19.0,2.0,3.067
17.0,0.0,3.068
16.0,-2.0,3.069
16.0,-3.0,3.07
18.0,-4.0,3.071
19.0,-2.0,3.072
13.0,1.0,3.073
4.0,4.0,3.074
4.0,4.0,3.075
9.0,0.0,3.076
14.0,-4.0,3.077
11.0,-6.0,3.078
3.0,-4.0,3.079
-4.0,0.0,3.08
-8.0,-3.0,3.081
-3.0,-3.0,3.082
6.0,-1.0,3.083
16.0,3.0,3.084
19.0,5.0,3.085
15.0,5.0,3.086
11.0,4.0,3.087
12.0,2.0,3.088
9.0,0.0,3.089
3.0,-1.0,3.09
-6.0,-3.0,3.091
-16.0,-5.0,3.092
-22.0,-4.0,3.093
-21.0,-1.0,3.094
-15.0,-2.0,3.095
-9.0,-3.0,3.096
-9.0,-3.0,3.097
-11.0,-2.0,3.098
-12.0,-2.0,3.099
-9.0,-3.0,3.1
-5.0,-3.0,3.101
-6.0,0.0,3.102
-5.0,1.0,3.103
0.0,-1.0,3.104
7.0,0.0,3.105
10.0,2.0,3.106
11.0,2.0,3.107
15.0,-1.0,3.108
17.0,-2.0,3.109
16.0,0.0,3.11
11.0,0.0,3.111
9.0,-1.0,3.112
11.0,-1.0,3.113
11.0,1.0,3.114
7.0,2.0,3.115
2.0,0.0,3.116
1.0,1.0,3.117
-10.0,1.0,3.118
-18.0,2.0,3.119
-24.0,3.0,3.12
-21.0,2.0,3.121
-15.0,1.0,3.122
-2.0,0.0,3.123
5.0,-1.0,3.124
4.0,0.0,3.125
3.0,1.0,3.126
5.0,0.0,3.127
6.0,-2.0,3.128
9.0,-2.0,3.129
11.0,0.0,3.13
11.0,1.0,3.131
11.0,2.0,3.132
14.0,-2.0,3.133
16.0,-5.0,3.134
16.0,-5.0,3.135
14.0,-5.0,3.136
12.0,-6.0,3.137
-18.0,-7.0,3.138
-32.0,-7.0,3.139
-42.0,-5.0,3.14
-36.0,-4.0,3.141
-26.0,-2.0,3.142
-6.0,-2.0,3.143
8.0,0.0,3.144
6.0,3.0,3.145
5.0,5.0,3.146
7.0,4.0,3.147
10.0,1.0,3.148
14.0,-1.0,3.149
18.0,0.0,3.15
18.0,1.0,3.151
18.0,3.0,3.152
22.0,1.0,3.153
25.0,-1.0,3.154
25.0,-2.0,3.155
23.0,-1.0,3.156
19.0,1.0,3.157
12.0,-1.0,3.158
-4.0,-3.0,3.159
-13.0,-1.0,3.16
-17.0,-2.0,3.161
-24.0,-4.0,3.162
-27.0,-5.0,3.163
-18.0,-2.0,3.164
-4.0,2.0,3.165
4.0,5.0,3.166
4.0,2.0,3.167
2.0,0.0,3.168
3.0,-2.0,3.169
3.0,-1.0,3.17
5.0,-2.0,3.171
8.0,-3.0,3.172
9.0,-1.0,3.173
3.0,-1.0,3.174
0.0,-1.0,3.175
1.0,1.0,3.176
4.0,5.0,3.177
-2.0,4.0,3.178
-9.0,1.0,3.179
-12.0,-1.0,3.18
-10.0,-4.0,3.181
-6.0,-3.0,3.182
3.0,0.0,3.183
21.0,4.0,3.184
33.0,5.0,3.185
28.0,2.0,3.186
10.0,-3.0,3.187
-3.0,-3.0,3.188
-2.0,0.0,3.189
7.0,4.0,3.19
12.0,2.0,3.191
10.0,-3.0,3.192
7.0,-5.0,3.193
4.0,-6.0,3.194
2.0,-6.0,3.195
1.0,-6.0,3.196
2.0,-3.0,3.197
0.0,0.0,3.198
-1.0,1.0,3.199
-3.0,-3.0,3.2
1.0,-7.0,3.201
4.0,-6.0,3.202
3.0,-1.0,3.203
1.0,1.0,3.204
-2.0,4.0,3.205
-7.0,8.0,3.206
-15.0,9.0,3.207
-21.0,4.0,3.208
-18.0,-1.0,3.209
-11.0,-3.0,3.21
9.0,-2.0,3.211
23.0,0.0,3.212
21.0,-2.0,3.213
20.0,-3.0,3.214
27.0,-4.0,3.215
32.0,-3.0,3.216
26.0,0.0,3.217
19.0,0.0,3.218
2.0,0.0,3.219
-11.0,-3.0,3.22
-23.0,-5.0,3.221
-36.0,-3.0,3.222
-40.0,-2.0,3.223
-27.0,-1.0,3.224
-10.0,1.0,3.225
-2.0,4.0,3.226
-3.0,6.0,3.227
-5.0,5.0,3.228
0.0,2.0,3.229
12.0,-1.0,3.23
20.0,-3.0,3.231
20.0,-2.0,3.232
17.0,-3.0,3.233
14.0,-3.0,3.234
11.0,-3.0,3.235
10.0,-2.0,3.236
11.0,0.0,3.237
11.0,0.0,3.238
8.0,-1.0,3.239
-1.0,-2.0,3.24
-7.0,-4.0,3.241
-3.0,-4.0,3.242
8.0,-4.0,3.243
16.0,-2.0,3.244
11.0,3.0,3.245
6.0,5.0,3.246
5.0,2.0,3.247
5.0,-1.0,3.248
2.0,-1.0,3.249
0.0,0.0,3.25
5.0,-1.0,3.251
9.0,-3.0,3.252
5.0,-2.0,3.253
0.0,-3.0,3.254
0.0,-6.0,3.255
2.0,-7.0,3.256
1.0,-2.0,3.257
-4.0,6.0,3.258
-6.0,10.0,3.259
-5.0,3.0,3.26
-6.0,-7.0,3.261
-10.0,-9.0,3.262
-11.0,-5.0,3.263
-2.0,-2.0,3.264
9.0,-2.0,3.265
14.0,0.0,3.266
18.0,3.0,3.267
28.0,4.0,3.268
37.0,2.0,3.269
33.0,1.0,3.27
15.0,3.0,3.271
-3.0,4.0,3.272
-14.0,2.0,3.273
-18.0,2.0,3.274
-21.0,3.0,3.275
-20.0,1.0,3.276
-17.0,-1.0,3.277
-13.0,-1.0,3.278
-5.0,-1.0,3.279
9.0,-1.0,3.28
30.0,-4.0,3.281
52.0,-7.0,3.282
60.0,-5.0,3.283
42.0,-3.0,3.284
3.0,2.0,3.285
-41.0,7.0,3.286
-65.0,6.0,3.287
-68.0,4.0,3.288
-70.0,0.0,3.289
-76.0,-4.0,3.29
-63.0,-2.0,3.291
-20.0,-1.0,3.292
26.0,-1.0,3.293
37.0,0.0,3.294
20.0,0.0,3.295
14.0,-1.0,3.296
27.0,-4.0,3.297
37.0,-1.0,3.298
33.0,-1.0,3.299
27.0,-1.0,3.3
18.0,-4.0,3.301
11.0,-7.0,3.302
9.0,-5.0,3.303
8.0,-3.0,3.304
6.0,2.0,3.305
4.0,7.0,3.306
1.0,6.0,3.307
0.0,4.0,3.308
8.0,0.0,3.309
13.0,-4.0,3.31
9.0,-2.0,3.311
6.0,-1.0,3.312
11.0,-1.0,3.313
14.0,0.0,3.314
8.0,0.0,3.315
4.0,-1.0,3.316
3.0,-4.0,3.317
0.0,-6.0,3.318
-8.0,-2.0,3.319
-10.0,0.0,3.32
-5.0,-3.0,3.321
0.0,-4.0,3.322
12.0,-2.0,3.323
27.0,-2.0,3.324
28.0,0.0,3.325
13.0,2.0,3.326
-1.0,1.0,3.327
-2.0,-2.0,3.328
0.0,-2.0,3.329
-5.0,2.0,3.33
-8.0,5.0,3.331
-2.0,2.0,3.332
5.0,-1.0,3.333
2.0,-2.0,3.334
-2.0,-2.0,3.335
-2.0,-2.0,3.336
1.0,0.0,3.337
0.0,3.0,3.338
-1.0,3.0,3.339
-3.0,1.0,3.34
-7.0,-3.0,3.341
-8.0,-3.0,3.342
1.0,-1.0,3.343
8.0,-1.0,3.344
9.0,0.0,3.345
11.0,2.0,3.346
9.0,3.0,3.347
7.0,1.0,3.348
4.0,-2.0,3.349
2.0,-4.0,3.35
4.0,-3.0,3.351
7.0,-2.0,3.352
8.0,-1.0,3.353
8.0,-3.0,3.354
6.0,-8.0,3.355
4.0,-11.0,3.356
1.0,-9.0,3.357
-2.0,-6.0,3.358
-7.0,-3.0,3.359
-12.0,-2.0,3.36
-13.0,-5.0,3.361
-11.0,-2.0,3.362
-3.0,5.0,3.363
3.0,13.0,3.364
2.0,15.0,3.365
0.0,12.0,3.366
3.0,8.0,3.367
8.0,5.0,3.368
7.0,2.0,3.369
6.0,-3.0,3.37
14.0,-5.0,3.371
30.0,-5.0,3.372
45.0,-5.0,3.373
61.0,-4.0,3.374
81.0,-3.0,3.375
94.0,-3.0,3.376
81.0,-2.0,3.377
32.0,-2.0,3.378
-28.0,0.0,3.379
-77.0,1.0,3.38
-107.0,0.0,3.381
-122.0,-1.0,3.382
-122.0,-1.0,3.383
-105.0,-1.0,3.384
-74.0,0.0,3.385
-39.0,1.0,3.386
-16.0,0.0,3.387
-12.0,-1.0,3.388
-16.0,0.0,3.389
-8.0,1.0,3.39
16.0,0.0,3.391
39.0,-2.0,3.392
47.0,-2.0,3.393
49.0,-1.0,3.394
52.0,-1.0,3.395
46.0,-2.0,3.396
31.0,-1.0,3.397
17.0,0.0,3.398
8.0,-1.0,3.399
-3.0,-5.0,3.4
-21.0,-8.0,3.401
-27.0,-5.0,3.402
-12.0,0.0,3.403
9.0,1.0,3.404
17.0,0.0,3.405
16.0,2.0,3.406
18.0,3.0,3.407
21.0,-1.0,3.408
23.0,-4.0,3.409
24.0,-3.0,3.41
26.0,-1.0,3.411
24.0,-3.0,3.412
20.0,-3.0,3.413
18.0,3.0,3.414
18.0,8.0,3.415
12.0,4.0,3.416
2.0,-2.0,3.417
-2.0,-5.0,3.418
1.0,-1.0,3.419
0.0,0.0,3.42
-8.0,-5.0,3.421
-10.0,-8.0,3.422
-1.0,-5.0,3.423
10.0,1.0,3.424
12.0,7.0,3.425
10.0,8.0,3.426
14.0,4.0,3.427
15.0,-2.0,3.428
8.0,-3.0,3.429
-5.0,1.0,3.43
-12.0,5.0,3.431
-8.0,3.0,3.432
-1.0,0.0,3.433
1.0,0.0,3.434
3.0,1.0,3.435
8.0,0.0,3.436
12.0,0.0,3.437
9.0,3.0,3.438
0.0,17.0,3.439
-5.0,33.0,3.44
-8.0,44.0,3.441
-10.0,48.0,3.442
-11.0,47.0,3.443
-6.0,40.0,3.444
0.0,31.0,3.445
0.0,20.0,3.446
-6.0,6.0,3.447
-7.0,-8.0,3.448
-4.0,-20.0,3.449
-5.0,-27.0,3.45
-11.0,-27.0,3.451
-14.0,-24.0,3.452
-10.0,-20.0,3.453
-1.0,-22.0,3.454
6.0,-31.0,3.455
12.0,-44.0,3.456
17.0,-54.0,3.457
17.0,-58.0,3.458
16.0,-54.0,3.459
13.0,-46.0,3.46
9.0,-30.0,3.461
9.0,-12.0,3.462
15.0,5.0,3.463
20.0,19.0,3.464
23.0,21.0,3.465
22.0,18.0,3.466
16.0,0.0,3.467
-1.0,-16.0,3.468
-24.0,-28.0,3.469
-38.0,-37.0,3.47
-32.0,-35.0,3.471
-19.0,-33.0,3.472
-12.0,-28.0,3.473
-8.0,-22.0,3.474
3.0,-13.0,3.475
20.0,-4.0,3.476
32.0,1.0,3.477
32.0,9.0,3.478
25.0,19.0,3.479
15.0,34.0,3.48
3.0,45.0,3.481
-1.0,56.0,3.482
0.0,70.0,3.483
-6.0,92.0,3.484
-26.0,112.0,3.485
-39.0,111.0,3.486
-29.0,79.0,3.487
-12.0,36.0,3.488
-13.0,4.0,3.489
-24.0,-20.0,3.49
-20.0,-49.0,3.491
2.0,-81.0,3.492
18.0,-102.0,3.493
15.0,-113.0,3.494
8.0,-120.0,3.495
10.0,-118.0,3.496
14.0,-100.0,3.497
13.0,-73.0,3.498
14.0,-51.0,3.499
18.0,-37.0,3.5
19.0,-23.0,3.501
16.0,-2.0,3.502
18.0,12.0,3.503
22.0,22.0,3.504
15.0,35.0,3.505
0.0,48.0,3.506
-10.0,52.0,3.507
-6.0,45.0,3.508
1.0,39.0,3.509
4.0,38.0,3.51
5.0,32.0,3.511
7.0,18.0,3.512
4.0,8.0,3.513
-3.0,11.0,3.514
-4.0,23.0,3.515
0.0,34.0,3.516
2.0,44.0,3.517
-3.0,49.0,3.518
-6.0,49.0,3.519
-5.0,46.0,3.52
-2.0,41.0,3.521
5.0,40.0,3.522
18.0,41.0,3.523
30.0,39.0,3.524
33.0,38.0,3.525
25.0,31.0,3.526
20.0,18.0,3.527
21.0,4.0,3.528
25.0,-6.0,3.529
21.0,-12.0,3.53
15.0,-19.0,3.531
9.0,-25.0,3.532
5.0,-29.0,3.533
0.0,-30.0,3.534
-3.0,-30.0,3.535
-2.0,-30.0,3.536
0.0,-27.0,3.537
-4.0,-22.0,3.538
-8.0,-10.0,3.539
-14.0,13.0,3.54
-19.0,32.0,3.541
-21.0,38.0,3.542
-17.0,24.0,3.543
-7.0,1.0,3.544
-4.0,-12.0,3.545
-10.0,-20.0,3.546
-15.0,-27.0,3.547
-12.0,-29.0,3.548
-5.0,-21.0,3.549
-4.0,-4.0,3.55
-6.0,9.0,3.551
-4.0,16.0,3.552
0.0,20.0,3.553
3.0,19.0,3.554
2.0,6.0,3.555
0.0,-10.0,3.556
-1.0,-16.0,3.557
-1.0,-16.0,3.558
-1.0,-12.0,3.559
0.0,-14.0,3.56
10.0,-22.0,3.561
21.0,-27.0,3.562
24.0,-19.0,3.563
15.0,7.0,3.564
2.0,57.0,3.565
-4.0,112.0,3.566
-5.0,142.0,3.567
-6.0,133.0,3.568
0.0,117.0,3.569
19.0,133.0,3.57
38.0,161.0,3.571
41.0,141.0,3.572
27.0,46.0,3.573
9.0,-74.0,3.574
-4.0,-156.0,3.575
-16.0,-189.0,3.576
-29.0,-206.0,3.577
-36.0,-221.0,3.578
-36.0,-221.0,3.579
-36.0,-220.0,3.58
-32.0,-223.0,3.581
-23.0,-225.0,3.582
-3.0,-223.0,3.583
10.0,-216.0,3.584
3.0,-194.0,3.585
-2.0,-172.0,3.586
2.0,-148.0,3.587
6.0,-115.0,3.588
8.0,-58.0,3.589
11.0,-2.0,3.59
11.0,51.0,3.591
10.0,98.0,3.592
11.0,123.0,3.593
12.0,143.0,3.594
10.0,144.0,3.595
9.0,144.0,3.596
9.0,140.0,3.597
10.0,135.0,3.598
10.0,123.0,3.599
3.0,105.0,3.6
-6.0,87.0,3.601
-8.0,80.0,3.602
3.0,79.0,3.603
16.0,76.0,3.604
18.0,72.0,3.605
15.0,71.0,3.606
19.0,73.0,3.607
30.0,71.0,3.608
38.0,65.0,3.609
39.0,62.0,3.61
36.0,60.0,3.611
33.0,55.0,3.612
29.0,45.0,3.613
23.0,39.0,3.614
16.0,34.0,3.615
10.0,28.0,3.616
6.0,23.0,3.617
0.0,17.0,3.618
-8.0,11.0,3.619
-22.0,2.0,3.62
-32.0,-8.0,3.621
-33.0,-9.0,3.622
-22.0,-8.0,3.623
-11.0,-8.0,3.624
-8.0,-12.0,3.625
-10.0,-15.0,3.626
-9.0,-16.0,3.627
-4.0,-16.0,3.628
-4.0,-17.0,3.629
-7.0,-18.0,3.63
-9.0,-17.0,3.631
-4.0,-18.0,3.632
0.0,-19.0,3.633
3.0,-21.0,3.634
4.0,-23.0,3.635
5.0,-24.0,3.636
5.0,-23.0,3.637
2.0,-22.0,3.638
-1.0,-19.0,3.639
-5.0,-18.0,3.64
-8.0,-20.0,3.641
-7.0,-20.0,3.642
-2.0,-18.0,3.643
5.0,-16.0,3.644
9.0,-12.0,3.645
7.0,-9.0,3.646
6.0,-8.0,3.647
7.0,-12.0,3.648
8.0,-13.0,3.649
2.0,-12.0,3.65
-2.0,-11.0,3.651
-3.0,-10.0,3.652
0.0,-7.0,3.653
5.0,-4.0,3.654
4.0,-5.0,3.655
2.0,-8.0,3.656
1.0,-6.0,3.657
-2.0,-3.0,3.658
-4.0,-1.0,3.659
-9.0,-3.0,3.66
-12.0,-5.0,3.661
-10.0,0.0,3.662
-3.0,7.0,3.663
4.0,11.0,3.664
7.0,13.0,3.665
6.0,18.0,3.666
8.0,20.0,3.667
10.0,11.0,3.668
8.0,-5.0,3.669
4.0,-23.0,3.67
1.0,-37.0,3.671
2.0,-45.0,3.672
3.0,-40.0,3.673
1.0,-26.0,3.674
0.0,-15.0,3.675
-2.0,-15.0,3.676
0.0,-18.0,3.677
1.0,-16.0,3.678
3.0,-4.0,3.679
0.0,7.0,3.68
-7.0,8.0,3.681
-12.0,7.0,3.682
-7.0,6.0,3.683
1.0,8.0,3.684
3.0,12.0,3.685
0.0,15.0,3.686
4.0,18.0,3.687
18.0,23.0,3.688
29.0,26.0,3.689
35.0,24.0,3.69
40.0,14.0,3.691
44.0,0.0,3.692
40.0,-14.0,3.693
27.0,-26.0,3.694
14.0,-34.0,3.695
3.0,-32.0,3.696
-2.0,-23.0,3.697
-10.0,-15.0,3.698
-14.0,-12.0,3.699
-16.0,-10.0,3.7
-17.0,-11.0,3.701
-15.0,-7.0,3.702
-4.0,-2.0,3.703
13.0,1.0,3.704
18.0,7.0,3.705
4.0,12.0,3.706
-13.0,15.0,3.707
-20.0,15.0,3.708
-18.0,16.0,3.709
-14.0,17.0,3.71
-11.0,14.0,3.711
-5.0,7.0,3.712
2.0,-3.0,3.713
10.0,-11.0,3.714
14.0,-12.0,3.715
12.0,-8.0,3.716
7.0,-2.0,3.717
-1.0,1.0,3.718
-3.0,0.0,3.719
-2.0,3.0,3.72
-2.0,6.0,3.721
-2.0,6.0,3.722
1.0,4.0,3.723
4.0,3.0,3.724
3.0,8.0,3.725
1.0,12.0,3.726
2.0,10.0,3.727
7.0,8.0,3.728
10.0,9.0,3.729
2.0,12.0,3.73
-2.0,10.0,3.731
2.0,8.0,3.732
14.0,7.0,3.733
21.0,5.0,3.734
22.0,0.0,3.735
17.0,-4.0,3.736
9.0,-2.0,3.737
0.0,-2.0,3.738
-4.0,-2.0,3.739
-7.0,-3.0,3.74
-10.0,-5.0,3.741
-9.0,-7.0,3.742
-4.0,-7.0,3.743
1.0,-7.0,3.744
0.0,-3.0,3.745
-2.0,1.0,3.746
-1.0,0.0,3.747
1.0,-1.0,3.748
0.0,-4.0,3.749
-1.0,-7.0,3.75
0.0,-6.0,3.751
5.0,-5.0,3.752
6.0,-6.0,3.753
5.0,-6.0,3.754
7.0,-4.0,3.755
8.0,-2.0,3.756
6.0,-5.0,3.757
-1.0,-8.0,3.758
-4.0,-8.0,3.759
-5.0,-4.0,3.76
-6.0,-4.0,3.761
-5.0,-5.0,3.762
1.0,-6.0,3.763
10.0,-4.0,3.764
14.0,0.0,3.765
11.0,1.0,3.766
12.0,0.0,3.767
15.0,-2.0,3.768
16.0,-4.0,3.769
12.0,-2.0,3.77
9.0,-1.0,3.771
8.0,0.0,3.772
5.0,3.0,3.773
-1.0,8.0,3.774
-2.0,8.0,3.775
-2.0,5.0,3.776
-2.0,2.0,3.777
-6.0,1.0,3.778
-7.0,2.0,3.779
-4.0,2.0,3.78
-4.0,-3.0,3.781
-4.0,-6.0,3.782
-1.0,-7.0,3.783
6.0,-3.0,3.784
5.0,1.0,3.785
-1.0,4.0,3.786
-4.0,2.0,3.787
3.0,-2.0,3.788
10.0,-2.0,3.789
12.0,3.0,3.79
13.0,3.0,3.791
15.0,0.0,3.792
14.0,-1.0,3.793
4.0,2.0,3.794
-4.0,3.0,3.795
0.0,-3.0,3.796
8.0,-8.0,3.797
4.0,-8.0,3.798
-4.0,-7.0,3.799
-5.0,-7.0,3.8
8.0,-13.0,3.801
20.0,-12.0,3.802
22.0,-8.0,3.803
13.0,-2.0,3.804
-1.0,1.0,3.805
-14.0,4.0,3.806
-26.0,7.0,3.807
-37.0,7.0,3.808
-43.0,6.0,3.809
-41.0,5.0,3.81
-26.0,1.0,3.811
-4.0,-6.0,3.812
14.0,-9.0,3.813
22.0,-5.0,3.814
27.0,0.0,3.815
30.0,1.0,3.816
25.0,2.0,3.817
4.0,5.0,3.818
-16.0,7.0,3.819
-22.0,8.0,3.82
-8.0,7.0,3.821
13.0,7.0,3.822
30.0,8.0,3.823
36.0,7.0,3.824
33.0,7.0,3.825
25.0,7.0,3.826
17.0,2.0,3.827
14.0,-7.0,3.828
22.0,-15.0,3.829
40.0,-16.0,3.83
55.0,-10.0,3.831
53.0,-3.0,3.832
40.0,1.0,3.833
32.0,4.0,3.834
26.0,7.0,3.835
4.0,10.0,3.836
-39.0,11.0,3.837
-93.0,4.0,3.838
-119.0,-4.0,3.839
-114.0,-10.0,3.84
-97.0,-13.0,3.841
-78.0,-8.0,3.842
-46.0,4.0,3.843
-6.0,13.0,3.844
20.0,11.0,3.845
20.0,-6.0,3.846
18.0,-25.0,3.847
30.0,-27.0,3.848
42.0,-17.0,3.849
37.0,-10.0,3.85
29.0,-16.0,3.851
32.0,-22.0,3.852
31.0,-19.0,3.853
14.0,-12.0,3.854
-2.0,-7.0,3.855
-1.0,-4.0,3.856
11.0,7.0,3.857
16.0,19.0,3.858
17.0,27.0,3.859
19.0,33.0,3.86
23.0,30.0,3.861
19.0,25.0,3.862
17.0,19.0,3.863
22.0,11.0,3.864
25.0,-4.0,3.865
20.0,-16.0,3.866
21.0,-18.0,3.867
35.0,-21.0,3.868
52.0,-21.0,3.869
58.0,-20.0,3.87
56.0,-14.0,3.871
42.0,-8.0,3.872
1.0,0.0,3.873
-42.0,6.0,3.874
-55.0,1.0,3.875
-37.0,-3.0,3.876
-28.0,-5.0,3.877
-55.0,-7.0,3.878
-82.0,-7.0,3.879
-75.0,-10.0,3.88
-41.0,-12.0,3.881
-8.0,-7.0,3.882
8.0,3.0,3.883
12.0,10.0,3.884
4.0,15.0,3.885
-8.0,19.0,3.886
-9.0,21.0,3.887
8.0,18.0,3.888
32.0,13.0,3.889
40.0,11.0,3.89
31.0,13.0,3.891
17.0,11.0,3.892
9.0,4.0,3.893
11.0,-1.0,3.894
14.0,-1.0,3.895
17.0,4.0,3.896
21.0,10.0,3.897
24.0,8.0,3.898
21.0,2.0,3.899
5.0,-4.0,3.9
-12.0,-5.0,3.901
-20.0,2.0,3.902
-13.0,11.0,3.903
1.0,11.0,3.904
11.0,-2.0,3.905
13.0,-24.0,3.906
4.0,-38.0,3.907
-10.0,-28.0,3.908
-22.0,-3.0,3.909
-25.0,12.0,3.91
-21.0,7.0,3.911
-21.0,-2.0,3.912
-19.0,2.0,3.913
-12.0,14.0,3.914
-7.0,23.0,3.915
-11.0,23.0,3.916
-18.0,11.0,3.917
-16.0,-17.0,3.918
-6.0,-47.0,3.919
-4.0,-57.0,3.92
-14.0,-38.0,3.921
-16.0,-10.0,3.922
0.0,-3.0,3.923
23.0,-14.0,3.924
36.0,-20.0,3.925
38.0,-10.0,3.926
36.0,9.0,3.927
31.0,25.0,3.928
24.0,36.0,3.929
20.0,45.0,3.93
21.0,46.0,3.931
19.0,32.0,3.932
6.0,2.0,3.933
-6.0,-34.0,3.934
-4.0,-59.0,3.935
2.0,-64.0,3.936
5.0,-48.0,3.937
66.0,15.0,3.938
37.0,15.0,3.939
12.0,18.0,3.94
-15.0,26.0,3.941
-33.0,33.0,3.942
-30.0,18.0,3.943
-30.0,1.0,3.944
-62.0,-7.0,3.945
-80.0,-10.0,3.946
-64.0,-18.0,3.947
-41.0,-25.0,3.948
-1.0,-18.0,3.949
26.0,-14.0,3.95
21.0,-14.0,3.951
29.0,-10.0,3.952
79.0,-3.0,3.953
118.0,11.0,3.954
121.0,26.0,3.955
123.0,37.0,3.956
113.0,22.0,3.957
45.0,7.0,3.958
29.0,7.0,3.959
15.0,8.0,3.96
0.0,10.0,3.961
-10.0,12.0,3.962
-9.0,8.0,3.963
-9.0,3.0,3.964
-26.0,1.0,3.965
-37.0,0.0,3.966
-28.0,-2.0,3.967
-15.0,-4.0,3.968
8.0,-2.0,3.969
23.0,-1.0,3.97
20.0,-1.0,3.971
24.0,0.0,3.972
53.0,2.0,3.973
75.0,6.0,3.974
76.0,10.0,3.975
78.0,13.0,3.976
72.0,9.0,3.977
42.0,3.0,3.978
28.0,-1.0,3.979
16.0,-3.0,3.98
3.0,-9.0,3.981
-6.0,-13.0,3.982
-5.0,-12.0,3.983
-5.0,-1.0,3.984
-21.0,11.0,3.985
-30.0,13.0,3.986
-22.0,5.0,3.987
-10.0,-5.0,3.988
9.0,-7.0,3.989
22.0,-1.0,3.99
20.0,8.0,3.991
24.0,14.0,3.992
48.0,16.0,3.993
68.0,13.0,3.994
69.0,9.0,3.995
70.0,9.0,3.996
65.0,9.0,3.997
40.0,-11.0,3.998
27.0,-42.0,3.999
16.0,-61.0,4.0
4.0,-43.0,4.001
-4.0,-24.0,4.002
-3.0,-1.0,4.003
-3.0,17.0,4.004
-17.0,23.0,4.005
-26.0,28.0,4.006
-18.0,31.0,4.007
-8.0,30.0,4.008
10.0,12.0,4.009
22.0,-1.0,4.01
20.0,-1.0,4.011
23.0,-6.0,4.012
46.0,-26.0,4.013
64.0,-45.0,4.014
65.0,-61.0,4.015
66.0,-65.0,4.016
61.0,-35.0,4.017
37.0,-7.0,4.018
26.0,1.0,4.019
16.0,-9.0,4.02
6.0,-15.0,4.021
-1.0,-6.0,4.022
0.0,4.0,4.023
0.0,7.0,4.024
-12.0,11.0,4.025
-19.0,23.0,4.026
-13.0,32.0,4.027
-4.0,33.0,4.028
11.0,33.0,4.029
22.0,35.0,4.03
20.0,29.0,4.031
23.0,11.0,4.032
42.0,-4.0,4.033
57.0,-7.0,4.034
58.0,-4.0,4.035
59.0,-2.0,4.036
55.0,-1.0,4.037
54.0,-4.0,4.038
67.0,-6.0,4.039
56.0,-4.0,4.04
9.0,0.0,4.041
-43.0,11.0,4.042
-63.0,16.0,4.043
-56.0,11.0,4.044
-47.0,3.0,4.045
-44.0,-3.0,4.046
-32.0,-4.0,4.047
-14.0,-1.0,4.048
-11.0,6.0,4.049
-23.0,10.0,4.05
-28.0,8.0,4.051
-17.0,3.0,4.052
-1.0,0.0,4.053
5.0,-1.0,4.054
5.0,-1.0,4.055
8.0,2.0,4.056
8.0,7.0,4.057
-12.0,5.0,4.058
-37.0,-4.0,4.059
-62.0,-14.0,4.06
-78.0,-19.0,4.061
-81.0,-14.0,4.062
-67.0,-9.0,4.063
-35.0,-6.0,4.064
2.0,-10.0,4.065
28.0,-14.0,4.066
34.0,-14.0,4.067
22.0,-9.0,4.068
10.0,-7.0,4.069
16.0,-7.0,4.07
34.0,-6.0,4.071
43.0,0.0,4.072
35.0,4.0,4.073
26.0,4.0,4.074
25.0,5.0,4.075
26.0,10.0,4.076
27.0,16.0,4.077
-11.0,19.0,4.078
-13.0,20.0,4.079
-13.0,18.0,4.08
-10.0,7.0,4.081
-4.0,-5.0,4.082
10.0,-18.0,4.083
18.0,-28.0,4.084
6.0,-22.0,4.085
-5.0,-18.0,4.086
-12.0,-18.0,4.087
-14.0,-15.0,4.088
-2.0,0.0,4.089
8.0,12.0,4.09
5.0,16.0,4.091
-2.0,19.0,4.092
-14.0,14.0,4.093
-22.0,8.0,4.094
-13.0,0.0,4.095
-6.0,-8.0,4.096
-6.0,-18.0,4.097
-16.0,-26.0,4.098
-18.0,-20.0,4.099
-19.0,-10.0,4.1
-13.0,-4.0,4.101
-3.0,0.0,4.102
20.0,-1.0,4.103
33.0,-2.0,4.104
13.0,1.0,4.105
-5.0,7.0,4.106
-17.0,7.0,4.107
-20.0,5.0,4.108
1.0,8.0,4.109
17.0,12.0,4.11
11.0,6.0,4.111
1.0,-5.0,4.112
-20.0,-8.0,4.113
-33.0,0.0,4.114
-19.0,6.0,4.115
-8.0,0.0,4.116
-8.0,-6.0,4.117
-3.0,-5.0,4.118
21.0,2.0,4.119
42.0,1.0,4.12
48.0,-8.0,4.121
44.0,-6.0,4.122
35.0,11.0,4.123
10.0,29.0,4.124
-19.0,34.0,4.125
-27.0,24.0,4.126
-14.0,10.0,4.127
-18.0,3.0,4.128
-51.0,3.0,4.129
-70.0,3.0,4.13
-44.0,0.0,4.131
-7.0,2.0,4.132
-4.0,8.0,4.133
-22.0,13.0,4.134
-22.0,13.0,4.135
7.0,12.0,4.136
40.0,14.0,4.137
59.0,9.0,4.138
69.0,-7.0,4.139
68.0,-35.0,4.14
39.0,-58.0,4.141
-33.0,-57.0,4.142
-117.0,-39.0,4.143
-142.0,-25.0,4.144
-73.0,-22.0,4.145
31.0,-22.0,4.146
82.0,-14.0,4.147
61.0,-2.0,4.148
36.0,5.0,4.149
40.0,6.0,4.15
38.0,9.0,4.151
7.0,14.0,4.152
-14.0,17.0,4.153
-2.0,19.0,4.154
8.0,23.0,4.155
-12.0,29.0,4.156
-27.0,28.0,4.157
-8.0,7.0,4.158
33.0,-21.0,4.159
56.0,-38.0,4.16
57.0,-34.0,4.161
54.0,-15.0,4.162
48.0,0.0,4.163
36.0,-1.0,4.164
22.0,-2.0,4.165
8.0,6.0,4.166
-12.0,14.0,4.167
-33.0,10.0,4.168
-41.0,1.0,4.169
-33.0,3.0,4.17
-24.0,11.0,4.171
-25.0,13.0,4.172
-22.0,9.0,4.173
-12.0,9.0,4.174
-4.0,14.0,4.175
2.0,17.0,4.176
15.0,17.0,4.177
34.0,16.0,4.178
43.0,18.0,4.179
29.0,13.0,4.18
11.0,4.0,4.181
8.0,-3.0,4.182
17.0,-7.0,4.183
22.0,-15.0,4.184
22.0,-23.0,4.185
18.0,-22.0,4.186
15.0,-15.0,4.187
0.0,-5.0,4.188
-23.0,6.0,4.189
-41.0,14.0,4.19
-42.0,11.0,4.191
-26.0,6.0,4.192
-9.0,3.0,4.193
0.0,-3.0,4.194
0.0,-20.0,4.195
-9.0,-38.0,4.196
-20.0,-35.0,4.197
-29.0,-16.0,4.198
-35.0,7.0,4.199
-37.0,18.0,4.2
-33.0,19.0,4.201
-13.0,27.0,4.202
19.0,44.0,4.203
47.0,61.0,4.204
49.0,60.0,4.205
35.0,28.0,4.206
15.0,-29.0,4.207
0.0,-80.0,4.208
-8.0,-87.0,4.209
-6.0,-47.0,4.21
1.0,3.0,4.211
3.0,29.0,4.212
0.0,28.0,4.213
1.0,27.0,4.214
16.0,43.0,4.215
33.0,85.0,4.216
40.0,147.0,4.217
23.0,212.0,4.218
-11.0,243.0,4.219
-47.0,225.0,4.22
-61.0,185.0,4.221
-50.0,154.0,4.222
-31.0,97.0,4.223
-16.0,-18.0,4.224
4.0,-150.0,4.225
38.0,-216.0,4.226
69.0,-215.0,4.227
77.0,-207.0,4.228
62.0,-210.0,4.229
43.0,-177.0,4.23
30.0,-95.0,4.231
22.0,-12.0,4.232
19.0,48.0,4.233
16.0,115.0,4.234
0.0,191.0,4.235
-28.0,220.0,4.236
-53.0,178.0,4.237
-67.0,78.0,4.238
-80.0,-43.0,4.239
-105.0,-170.0,4.24
-125.0,-279.0,4.241
-109.0,-334.0,4.242
-57.0,-332.0,4.243
0.0,-296.0,4.244
31.0,-231.0,4.245
39.0,-148.0,4.246
46.0,-89.0,4.247
62.0,-81.0,4.248
85.0,-70.0,4.249
95.0,9.0,4.25
66.0,122.0,4.251
-7.0,166.0,4.252
-98.0,135.0,4.253
-158.0,113.0,4.254
-156.0,115.0,4.255
-106.0,49.0,4.256
-40.0,-104.0,4.257
35.0,-280.0,4.258
117.0,-370.0,4.259
176.0,-366.0,4.26
184.0,-299.0,4.261
152.0,-159.0,4.262
119.0,29.0,4.263
88.0,170.0,4.264
32.0,202.0,4.265
-35.0,177.0,4.266
-65.0,187.0,4.267
-47.0,242.0,4.268
-23.0,317.0,4.269
-27.0,406.0,4.27
-37.0,497.0,4.271
-37.0,524.0,4.272
-36.0,422.0,4.273
-29.0,216.0,4.274
12.0,-8.0,4.275
86.0,-187.0,4.276
138.0,-308.0,4.277
145.0,-392.0,4.278
149.0,-417.0,4.279
179.0,-365.0,4.28
197.0,-251.0,4.281
168.0,-117.0,4.282
124.0,-20.0,4.283
105.0,-4.0,4.284
72.0,-73.0,4.285
-36.0,-153.0,4.286
-196.0,-146.0,4.287
-296.0,-44.0,4.288
-277.0,50.0,4.289
-196.0,51.0,4.29
-142.0,2.0,4.291
-112.0,-9.0,4.292
-28.0,20.0,4.293
124.0,62.0,4.294
234.0,158.0,4.295
202.0,334.0,4.296
82.0,479.0,4.297
-22.0,469.0,4.298
-61.0,344.0,4.299
-102.0,245.0,4.3
-203.0,189.0,4.301
-320.0,85.0,4.302
-343.0,-59.0,4.303
-195.0,-142.0,4.304
85.0,-156.0,4.305
313.0,-188.0,4.306
291.0,-241.0,4.307
32.0,-226.0,4.308
-230.0,-154.0,4.309
-295.0,-136.0,4.31
-199.0,-196.0,4.311
-73.0,-227.0,4.312
44.0,-172.0,4.313
172.0,-109.0,4.314
278.0,-110.0,4.315
315.0,-134.0,4.316
310.0,-126.0,4.317
273.0,-115.0,4.318
174.0,-142.0,4.319
22.0,-162.0,4.32
-68.0,-156.0,4.321
-43.0,-135.0,4.322
1.0,-67.0,4.323
-24.0,-16.0,4.324
-50.0,-22.0,4.325
27.0,-10.0,4.326
144.0,62.0,4.327
151.0,127.0,4.328
32.0,172.0,4.329
-80.0,203.0,4.33
-99.0,189.0,4.331
-83.0,180.0,4.332
-125.0,188.0,4.333
-219.0,203.0,4.334
-271.0,242.0,4.335
-226.0,258.0,4.336
-133.0,204.0,4.337
-64.0,132.0,4.338
-55.0,16.0,4.339
-65.0,-48.0,4.34
-47.0,-72.0,4.341
-13.0,-111.0,4.342
11.0,-181.0,4.343
33.0,-227.0,4.344
54.0,-194.0,4.345
47.0,-90.0,4.346
35.0,30.0,4.347
110.0,131.0,4.348
295.0,201.0,4.349
456.0,243.0,4.35
450.0,252.0,4.351
296.0,244.0,4.352
80.0,235.0,4.353
-176.0,216.0,4.354
-419.0,162.0,4.355
-497.0,74.0,4.356
-362.0,-11.0,4.357
-165.0,-80.0,4.358
-106.0,-125.0,4.359
-148.0,-149.0,4.36
-104.0,-107.0,4.361
45.0,-55.0,4.362
162.0,29.0,4.363
197.0,90.0,4.364
221.0,78.0,4.365
245.0,55.0,4.366
190.0,3.0,4.367
32.0,-34.0,4.368
-157.0,-27.0,4.369
-286.0,-20.0,4.37
-321.0,-13.0,4.371
-286.0,-7.0,4.372
-237.0,-7.0,4.373
-180.0,-6.0,4.374
-52.0,-9.0,4.375
178.0,-16.0,4.376
395.0,-33.0,4.377
482.0,-53.0,4.378
422.0,-88.0,4.379
302.0,-135.0,4.38
174.0,-156.0,4.381
32.0,-107.0,4.382
-83.0,-2.0,4.383
-92.0,100.0,4.384
-9.0,147.0,4.385
73.0,140.0,4.386
106.0,109.0,4.387
112.0,77.0,4.388
99.0,41.0,4.389
42.0,-3.0,4.39
-72.0,-56.0,4.391
-237.0,-117.0,4.392
-427.0,-182.0,4.393
-550.0,-228.0,4.394
-494.0,-249.0,4.395
-278.0,-253.0,4.396
-80.0,-251.0,4.397
21.0,-234.0,4.398
99.0,-183.0,4.399
215.0,-106.0,4.4
277.0,-36.0,4.401
193.0,10.0,4.402
72.0,33.0,4.403
60.0,33.0,4.404
108.0,21.0,4.405
90.0,11.0,4.406
24.0,13.0,4.407
12.0,20.0,4.408
46.0,17.0,4.409
47.0,0.0,4.41
23.0,-18.0,4.411
30.0,-31.0,4.412
55.0,-43.0,4.413
52.0,-60.0,4.414
48.0,-73.0,4.415
73.0,-59.0,4.416
83.0,-17.0,4.417
27.0,31.0,4.418
-57.0,61.0,4.419
-94.0,82.0,4.42
-70.0,119.0,4.421
-29.0,168.0,4.422
5.0,192.0,4.423
25.0,174.0,4.424
21.0,139.0,4.425
5.0,109.0,4.426
12.0,71.0,4.427
38.0,16.0,4.428
37.0,-35.0,4.429
8.0,-64.0,4.43
0.0,-79.0,4.431
20.0,-94.0,4.432
18.0,-99.0,4.433
-16.0,-84.0,4.434
-38.0,-59.0,4.435
-32.0,-32.0,4.436
-24.0,6.0,4.437
-33.0,56.0,4.438
-33.0,96.0,4.439
-25.0,131.0,4.44
-25.0,148.0,4.441
-33.0,162.0,4.442
-23.0,167.0,4.443
0.0,142.0,4.444
10.0,24.0,4.445
2.0,-70.0,4.446
1.0,-91.0,4.447
9.0,-95.0,4.448
5.0,-44.0,4.449
-6.0,-5.0,4.45
-10.0,-5.0,4.451
-9.0,-1.0,4.452
-15.0,20.0,4.453
-22.0,35.0,4.454
-19.0,33.0,4.455
-17.0,32.0,4.456
-29.0,32.0,4.457
-56.0,27.0,4.458
-68.0,-1.0,4.459
-63.0,-4.0,4.46
-54.0,20.0,4.461
-44.0,24.0,4.462
-2.0,-33.0,4.463
90.0,-126.0,4.464
196.0,-177.0,4.465
238.0,-140.0,4.466
181.0,-49.0,4.467
80.0,20.0,4.468
15.0,33.0,4.469
0.0,26.0,4.47
-11.0,39.0,4.471
-36.0,59.0,4.472
-40.0,49.0,4.473
-5.0,20.0,4.474
23.0,7.0,4.475
3.0,24.0,4.476
-35.0,44.0,4.477
-57.0,47.0,4.478
-59.0,35.0,4.479
-62.0,19.0,4.48
-56.0,-8.0,4.481
-17.0,-31.0,4.482
53.0,-41.0,4.483
116.0,-51.0,4.484
138.0,-57.0,4.485
109.0,-62.0,4.486
50.0,-63.0,4.487
-5.0,-58.0,4.488
-30.0,-30.0,4.489
-45.0,0.0,4.49
-88.0,35.0,4.491
-149.0,72.0,4.492
-167.0,114.0,4.493
-119.0,148.0,4.494
-62.0,158.0,4.495
-48.0,158.0,4.496
-55.0,123.0,4.497
-36.0,96.0,4.498
27.0,107.0,4.499
108.0,122.0,4.5
167.0,91.0,4.501
178.0,8.0,4.502
151.0,-88.0,4.503
128.0,-158.0,4.504
121.0,-193.0,4.505
73.0,-223.0,4.506
-52.0,-266.0,4.507
-182.0,-304.0,4.508
-209.0,-307.0,4.509
-145.0,-271.0,4.51
-102.0,-221.0,4.511
-131.0,-181.0,4.512
-152.0,-148.0,4.513
-79.0,-112.0,4.514
61.0,-74.0,4.515
165.0,-47.0,4.516
177.0,-37.0,4.517
118.0,-42.0,4.518
39.0,-42.0,4.519
-46.0,-27.0,4.52
-121.0,-3.0,4.521
-136.0,29.0,4.522
-64.0,69.0,4.523
33.0,114.0,4.524
82.0,146.0,4.525
102.0,147.0,4.526
153.0,121.0,4.527
199.0,91.0,4.528
153.0,70.0,4.529
37.0,60.0,4.53
-36.0,58.0,4.531
-40.0,66.0,4.532
-50.0,89.0,4.533
-95.0,125.0,4.534
-116.0,154.0,4.535
-81.0,148.0,4.536
-32.0,104.0,4.537
18.0,33.0,4.538
92.0,-13.0,4.539
161.0,-14.0,4.54
163.0,-3.0,4.541
108.0,0.0,4.542
65.0,11.0,4.543
44.0,54.0,4.544
-4.0,102.0,4.545
-72.0,107.0,4.546
-93.0,81.0,4.547
-57.0,75.0,4.548
-33.0,97.0,4.549
-54.0,100.0,4.55
-83.0,55.0,4.551
-88.0,-8.0,4.552
-90.0,-52.0,4.553
-91.0,-58.0,4.554
-63.0,-42.0,4.555
5.0,-28.0,4.556
74.0,-30.0,4.557
109.0,-32.0,4.558
106.0,-6.0,4.559
87.0,6.0,4.56
69.0,-23.0,4.561
49.0,-50.0,4.562
14.0,-64.0,4.563
-34.0,-64.0,4.564
-68.0,-16.0,4.565
-76.0,17.0,4.566
-74.0,3.0,4.567
-76.0,-4.0,4.568
-59.0,13.0,4.569
1.0,18.0,4.57
75.0,-15.0,4.571
110.0,-38.0,4.572
104.0,-32.0,4.573
85.0,-29.0,4.574
61.0,-39.0,4.575
14.0,-46.0,4.576
-33.0,-40.0,4.577
-34.0,-40.0,4.578
38.0,-59.0,4.579
138.0,-50.0,4.58
194.0,1.0,4.581
166.0,81.0,4.582
72.0,156.0,4.583
-28.0,195.0,4.584
-66.0,174.0,4.585
-43.0,113.0,4.586
-61.0,58.0,4.587
-186.0,20.0,4.588
-330.0,-31.0,4.589
-339.0,-104.0,4.59
-200.0,-161.0,4.591
-74.0,-185.0,4.592
-84.0,-197.0,4.593
-161.0,-215.0,4.594
-155.0,-214.0,4.595
-32.0,-188.0,4.596
109.0,-163.0,4.597
192.0,-144.0,4.598
210.0,-104.0,4.599
187.0,-48.0,4.6
136.0,-18.0,4.601
70.0,-20.0,4.602
30.0,-7.0,4.603
40.0,47.0,4.604
59.0,104.0,4.605
38.0,127.0,4.606
0.0,125.0,4.607
0.0,121.0,4.608
24.0,122.0,4.609
21.0,119.0,4.61
9.0,111.0,4.611
43.0,101.0,4.612
114.0,90.0,4.613
144.0,86.0,4.614
108.0,93.0,4.615
56.0,94.0,4.616
21.0,75.0,4.617
-23.0,19.0,4.618
-79.0,-49.0,4.619
-122.0,-84.0,4.62
-120.0,-63.0,4.621
-107.0,-13.0,4.622
-61.0,1.0,4.623
-17.0,-24.0,4.624
17.0,-41.0,4.625
39.0,-20.0,4.626
20.0,11.0,4.627
3.0,29.0,4.628
-9.0,51.0,4.629
-23.0,85.0,4.63
-44.0,89.0,4.631
-58.0,37.0,4.632
-51.0,-26.0,4.633
-37.0,-51.0,4.634
-1.0,-49.0,4.635
31.0,-56.0,4.636
50.0,-66.0,4.637
69.0,-47.0,4.638
82.0,-2.0,4.639
89.0,25.0,4.64
80.0,-4.0,4.641
65.0,-23.0,4.642
70.0,-11.0,4.643
84.0,3.0,4.644
67.0,25.0,4.645
2.0,42.0,4.646
-80.0,44.0,4.647
-145.0,46.0,4.648
-175.0,44.0,4.649
-154.0,37.0,4.65
-76.0,16.0,4.651
20.0,-2.0,4.652
82.0,-12.0,4.653
93.0,-19.0,4.654
86.0,-17.0,4.655
95.0,-19.0,4.656
120.0,-32.0,4.657
132.0,-49.0,4.658
101.0,-66.0,4.659
25.0,-65.0,4.66
-46.0,-64.0,4.661
-58.0,-75.0,4.662
-28.0,-90.0,4.663
-28.0,-96.0,4.664
-77.0,-93.0,4.665
-107.0,-85.0,4.666
-80.0,-67.0,4.667
-51.0,-45.0,4.668
-72.0,-25.0,4.669
-102.0,-14.0,4.67
-74.0,-7.0,4.671
-12.0,3.0,4.672
9.0,9.0,4.673
-25.0,5.0,4.674
-60.0,-7.0,4.675
-57.0,-14.0,4.676
-33.0,-9.0,4.677
0.0,12.0,4.678
43.0,34.0,4.679
91.0,45.0,4.68
113.0,46.0,4.681
99.0,54.0,4.682
75.0,71.0,4.683
61.0,79.0,4.684
45.0,76.0,4.685
9.0,75.0,4.686
-29.0,81.0,4.687
-44.0,82.0,4.688
-35.0,68.0,4.689
-22.0,50.0,4.69
-21.0,39.0,4.691
-8.0,29.0,4.692
36.0,15.0,4.693
97.0,13.0,4.694
121.0,28.0,4.695
84.0,41.0,4.696
22.0,35.0,4.697
-28.0,19.0,4.698
-38.0,17.0,4.699
-30.0,22.0,4.7
-30.0,10.0,4.701
-47.0,-8.0,4.702
-71.0,-19.0,4.703
-80.0,-22.0,4.704
-50.0,-30.0,4.705
17.0,-41.0,4.706
91.0,-43.0,4.707
133.0,-45.0,4.708
133.0,-65.0,4.709
111.0,-98.0,4.71
91.0,-118.0,4.711
58.0,-111.0,4.712
-13.0,-86.0,4.713
-107.0,-58.0,4.714
-164.0,-32.0,4.715
-142.0,-14.0,4.716
-69.0,-1.0,4.717
8.0,16.0,4.718
65.0,43.0,4.719
105.0,65.0,4.72
124.0,73.0,4.721
105.0,79.0,4.722
55.0,82.0,4.723
1.0,79.0,4.724
-56.0,55.0,4.725
-134.0,33.0,4.726
-211.0,19.0,4.727
-228.0,5.0,4.728
-162.0,-6.0,4.729
-60.0,-17.0,4.73
6.0,-25.0,4.731
13.0,-37.0,4.732
-14.0,-58.0,4.733
-26.0,-74.0,4.734
14.0,-74.0,4.735
94.0,-69.0,4.736
153.0,-43.0,4.737
146.0,-18.0,4.738
103.0,10.0,4.739
64.0,46.0,4.74
41.0,74.0,4.741
21.0,70.0,4.742
15.0,36.0,4.743
8.0,9.0,4.744
-1.0,15.0,4.745
-15.0,27.0,4.746
-40.0,4.0,4.747
-57.0,-38.0,4.748
-47.0,-61.0,4.749
-36.0,-55.0,4.75
-22.0,-50.0,4.751
1.0,-61.0,4.752
50.0,-67.0,4.753
80.0,-48.0,4.754
53.0,-12.0,4.755
34.0,21.0,4.756
39.0,36.0,4.757
42.0,32.0,4.758
26.0,21.0,4.759
9.0,8.0,4.76
2.0,-5.0,4.761
3.0,-14.0,4.762
23.0,-16.0,4.763
67.0,-11.0,4.764
112.0,-6.0,4.765
101.0,-8.0,4.766
22.0,-7.0,4.767
-76.0,4.0,4.768
-135.0,17.0,4.769
-149.0,11.0,4.77
-136.0,-7.0,4.771
-102.0,-9.0,4.772
-45.0,13.0,4.773
7.0,34.0,4.774
16.0,34.0,4.775
-24.0,21.0,4.776
-69.0,18.0,4.777
-76.0,27.0,4.778
-34.0,37.0,4.779
25.0,41.0,4.78
74.0,36.0,4.781
103.0,34.0,4.782
113.0,32.0,4.783
95.0,32.0,4.784
59.0,37.0,4.785
23.0,43.0,4.786
6.0,42.0,4.787
5.0,41.0,4.788
20.0,44.0,4.789
30.0,47.0,4.79
11.0,32.0,4.791
-33.0,-8.0,4.792
-55.0,-52.0,4.793
-15.0,-76.0,4.794
43.0,-74.0,4.795
46.0,-64.0,4.796
4.0,-59.0,4.797
-17.0,-64.0,4.798
17.0,-68.0,4.799
55.0,-63.0,4.8
49.0,-30.0,4.801
9.0,4.0,4.802
-28.0,41.0,4.803
-58.0,72.0,4.804
-92.0,81.0,4.805
-114.0,87.0,4.806
-92.0,77.0,4.807
-22.0,65.0,4.808
58.0,46.0,4.809
79.0,20.0,4.81
20.0,-29.0,4.811
-45.0,-73.0,4.812
-31.0,-105.0,4.813
44.0,-125.0,4.814
72.0,-107.0,4.815
15.0,-84.0,4.816
-38.0,-46.0,4.817
-18.0,-8.0,4.818
25.0,22.0,4.819
2.0,36.0,4.82
-76.0,39.0,4.821
-108.0,36.0,4.822
-64.0,22.0,4.823
-2.0,5.0,4.824
25.0,-1.0,4.825
39.0,0.0,4.826
58.0,-16.0,4.827
65.0,-60.0,4.828
54.0,-99.0,4.829
65.0,-98.0,4.83
117.0,-60.0,4.831
156.0,-23.0,4.832
125.0,-9.0,4.833
30.0,0.0,4.834
-70.0,27.0,4.835
-136.0,64.0,4.836
-156.0,85.0,4.837
-127.0,89.0,4.838
-59.0,94.0,4.839
-2.0,122.0,4.84
1.0,156.0,4.841
-38.0,170.0,4.842
-53.0,139.0,4.843
-7.0,72.0,4.844
63.0,3.0,4.845
90.0,-31.0,4.846
63.0,-31.0,4.847
35.0,-27.0,4.848
43.0,-43.0,4.849
44.0,-70.0,4.85
2.0,-86.0,4.851
-45.0,-96.0,4.852
-31.0,-117.0,4.853
23.0,-143.0,4.854
36.0,-152.0,4.855
-10.0,-144.0,4.856
-46.0,-133.0,4.857
-37.0,-120.0,4.858
-25.0,-99.0,4.859
-43.0,-95.0,4.86
-47.0,-121.0,4.861
15.0,-134.0,4.862
119.0,-83.0,4.863
194.0,12.0,4.864
197.0,81.0,4.865
142.0,96.0,4.866
69.0,99.0,4.867
9.0,124.0,4.868
-26.0,151.0,4.869
-47.0,162.0,4.87
-77.0,165.0,4.871
-132.0,167.0,4.872
-197.0,152.0,4.873
-229.0,119.0,4.874
-199.0,86.0,4.875
-121.0,67.0,4.876
-40.0,57.0,4.877
24.0,45.0,4.878
71.0,27.0,4.879
101.0,5.0,4.88
116.0,-32.0,4.881
122.0,-60.0,4.882
126.0,-57.0,4.883
122.0,-61.0,4.884
103.0,-86.0,4.885
90.0,-108.0,4.886
104.0,-116.0,4.887
110.0,-122.0,4.888
58.0,-126.0,4.889
-46.0,-119.0,4.89
-129.0,-80.0,4.891
-144.0,-42.0,4.892
-110.0,-7.0,4.893
-70.0,23.0,4.894
-46.0,43.0,4.895
-32.0,58.0,4.896
-22.0,58.0,4.897
-10.0,59.0,4.898
10.0,78.0,4.899
19.0,99.0,4.9
-9.0,99.0,4.901
-23.0,84.0,4.902
4.0,69.0,4.903
29.0,57.0,4.904
45.0,37.0,4.905
45.0,5.0,4.906
-5.0,-25.0,4.907
-44.0,-41.0,4.908
-46.0,-35.0,4.909
-43.0,-10.0,4.91
-19.0,17.0,4.911
-9.0,28.0,4.912
-47.0,21.0,4.913
-77.0,18.0,4.914
-77.0,28.0,4.915
-64.0,29.0,4.916
-17.0,13.0,4.917
10.0,-5.0,4.918
-33.0,-1.0,4.919
-46.0,8.0,4.92
6.0,-15.0,4.921
87.0,-52.0,4.922
150.0,-66.0,4.923
179.0,-44.0,4.924
166.0,-18.0,4.925
113.0,-9.0,4.926
42.0,-16.0,4.927
-21.0,-21.0,4.928
-67.0,-21.0,4.929
-93.0,-17.0,4.93
-91.0,-23.0,4.931
-60.0,-53.0,4.932
-15.0,-93.0,4.933
27.0,-106.0,4.934
58.0,-79.0,4.935
69.0,-41.0,4.936
57.0,-20.0,4.937
30.0,-7.0,4.938
19.0,14.0,4.939
40.0,35.0,4.94
58.0,39.0,4.941
31.0,47.0,4.942
-28.0,71.0,4.943
-62.0,90.0,4.944
-56.0,87.0,4.945
-53.0,76.0,4.946
-88.0,68.0,4.947
-130.0,47.0,4.948
-125.0,-1.0,4.949
-64.0,-51.0,4.95
12.0,-73.0,4.951
62.0,-71.0,4.952
83.0,-67.0,4.953
97.0,-64.0,4.954
121.0,-61.0,4.955
133.0,-67.0,4.956
108.0,-80.0,4.957
56.0,-84.0,4.958
29.0,-64.0,4.959
56.0,-43.0,4.96
111.0,-20.0,4.961
142.0,3.0,4.962
118.0,27.0,4.963
29.0,51.0,4.964
-92.0,77.0,4.965
-166.0,99.0,4.966
-148.0,109.0,4.967
-97.0,113.0,4.968
-97.0,97.0,4.969
-129.0,80.0,4.97
-106.0,64.0,4.971
-26.0,39.0,4.972
24.0,-7.0,4.973
17.0,-43.0,4.974
31.0,-41.0,4.975
106.0,-44.0,4.976
170.0,-61.0,4.977
144.0,-75.0,4.978
70.0,-66.0,4.979
14.0,-43.0,4.98
9.0,-24.0,4.981
-3.0,-8.0,4.982
-36.0,9.0,4.983
-62.0,27.0,4.984
-66.0,43.0,4.985
-60.0,51.0,4.986
-24.0,47.0,4.987
-13.0,40.0,4.988
-77.0,43.0,4.989
-124.0,47.0,4.99
-118.0,31.0,4.991
-114.0,4.0,4.992
-116.0,-8.0,4.993
-103.0,-5.0,4.994
-44.0,-8.0,4.995
3.0,-22.0,4.996
18.0,-24.0,4.997
29.0,-13.0,4.998
33.0,-16.0,4.999
49.0,-46.0,5.0
67.0,-79.0,5.001
91.0,-81.0,5.002
112.0,-58.0,5.003
105.0,-35.0,5.004
87.0,-23.0,5.005
103.0,-9.0,5.006
139.0,9.0,5.007
124.0,17.0,5.008
36.0,13.0,5.009
-55.0,8.0,5.01
-91.0,14.0,5.011
-81.0,24.0,5.012
-49.0,24.0,5.013
-3.0,21.0,5.014
36.0,27.0,5.015
38.0,39.0,5.016
10.0,47.0,5.017
-12.0,44.0,5.018
-23.0,39.0,5.019
-37.0,34.0,5.02
-47.0,21.0,5.021
-31.0,7.0,5.022
-1.0,-11.0,5.023
9.0,-39.0,5.024
4.0,-67.0,5.025
13.0,-70.0,5.026
27.0,-45.0,5.027
31.0,-16.0,5.028
34.0,-11.0,5.029
49.0,-23.0,5.03
62.0,-28.0,5.031
60.0,-16.0,5.032
64.0,4.0,5.033
80.0,23.0,5.034
75.0,36.0,5.035
33.0,42.0,5.036
-5.0,40.0,5.037
-14.0,27.0,5.038
-24.0,11.0,5.039
-77.0,-2.0,5.04
-146.0,-2.0,5.041
-162.0,-1.0,5.042
-114.0,5.0,5.043
-53.0,8.0,5.044
-25.0,-2.0,5.045
-17.0,-8.0,5.046
-1.0,3.0,5.047
23.0,8.0,5.048
38.0,-5.0,5.049
46.0,-17.0,5.05
51.0,-18.0,5.051
39.0,-16.0,5.052
0.0,0.0,5.053
-37.0,12.0,5.054
-34.0,10.0,5.055
16.0,10.0,5.056
77.0,18.0,5.057
91.0,23.0,5.058
47.0,8.0,5.059
8.0,-4.0,5.06
-15.0,-7.0,5.061
-8.0,-5.0,5.062
93.0,-9.0,5.063
156.0,-10.0,5.064
105.0,-2.0,5.065
44.0,9.0,5.066
-45.0,13.0,5.067
-114.0,10.0,5.068
-118.0,0.0,5.069
-120.0,-19.0,5.07
-117.0,-42.0,5.071
-107.0,-42.0,5.072
-74.0,-17.0,5.073
-40.0,5.0,5.074
-5.0,0.0,5.075
19.0,-19.0,5.076
13.0,-24.0,5.077
6.0,-17.0,5.078
12.0,-11.0,5.079
44.0,-11.0,5.08
69.0,-10.0,5.081
61.0,-2.0,5.082
36.0,6.0,5.083
22.0,11.0,5.084
15.0,18.0,5.085
1.0,22.0,5.086
-2.0,19.0,5.087
21.0,14.0,5.088
59.0,9.0,5.089
85.0,5.0,5.09
93.0,1.0,5.091
89.0,0.0,5.092
75.0,2.0,5.093
47.0,3.0,5.094
19.0,1.0,5.095
-2.0,0.0,5.096
-17.0,2.0,5.097
-25.0,1.0,5.098
-25.0,-1.0,5.099
-22.0,-3.0,5.1
-30.0,-5.0,5.101
-47.0,-4.0,5.102
-59.0,0.0,5.103
-76.0,2.0,5.104
-112.0,6.0,5.105
-134.0,10.0,5.106
-91.0,13.0,5.107
7.0,12.0,5.108
72.0,3.0,5.109
50.0,-3.0,5.11
-16.0,-5.0,5.111
-42.0,-8.0,5.112
-17.0,-11.0,5.113
0.0,-9.0,5.114
-22.0,-3.0,5.115
-52.0,2.0,5.116
-49.0,-2.0,5.117
-12.0,-10.0,5.118
28.0,-10.0,5.119
36.0,-3.0,5.12
20.0,-3.0,5.121
10.0,-10.0,5.122
30.0,-17.0,5.123
59.0,-14.0,5.124
64.0,-4.0,5.125
40.0,3.0,5.126
17.0,4.0,5.127
13.0,2.0,5.128
22.0,1.0,5.129
29.0,-1.0,5.13
31.0,-3.0,5.131
26.0,-3.0,5.132
16.0,1.0,5.133
8.0,6.0,5.134
11.0,8.0,5.135
18.0,5.0,5.136
19.0,2.0,5.137
16.0,0.0,5.138
13.0,-3.0,5.139
7.0,-8.0,5.14
-2.0,-13.0,5.141
-7.0,-14.0,5.142
10.0,-9.0,5.143
22.0,-3.0,5.144
15.0,1.0,5.145
8.0,6.0,5.146
4.0,9.0,5.147
0.0,7.0,5.148
3.0,3.0,5.149
5.0,1.0,5.15
3.0,1.0,5.151
0.0,2.0,5.152
-1.0,3.0,5.153
-4.0,3.0,5.154
-4.0,4.0,5.155
-4.0,5.0,5.156
-8.0,3.0,5.157
-11.0,-3.0,5.158
-14.0,-8.0,5.159
-17.0,-9.0,5.16
-22.0,-9.0,5.161
-23.0,-5.0,5.162
-9.0,0.0,5.163
11.0,3.0,5.164
15.0,4.0,5.165
2.0,2.0,5.166
-9.0,0.0,5.167
-7.0,-1.0,5.168
-3.0,-2.0,5.169
-2.0,0.0,5.17
-2.0,5.0,5.171
1.0,9.0,5.172
5.0,11.0,5.173
10.0,10.0,5.174
14.0,6.0,5.175
17.0,2.0,5.176
15.0,1.0,5.177
7.0,0.0,5.178
1.0,-2.0,5.179
-8.0,-6.0,5.18
-25.0,-13.0,5.181
-40.0,-12.0,5.182
-41.0,-4.0,5.183
-26.0,7.0,5.184
-10.0,8.0,5.185
5.0,2.0,5.186
23.0,-2.0,5.187
44.0,0.0,5.188
66.0,6.0,5.189
88.0,8.0,5.19
106.0,4.0,5.191
95.0,-2.0,5.192
47.0,-5.0,5.193
-5.0,-7.0,5.194
-23.0,-11.0,5.195
-25.0,-18.0,5.196
-46.0,-18.0,5.197
-85.0,-15.0,5.198
-97.0,-11.0,5.199
-77.0,-9.0,5.2
-69.0,-16.0,5.201
-86.0,-21.0,5.202
-82.0,-16.0,5.203
-47.0,-8.0,5.204
-19.0,7.0,5.205
-12.0,21.0,5.206
4.0,29.0,5.207
40.0,37.0,5.208
70.0,45.0,5.209
89.0,47.0,5.21
119.0,32.0,5.211
146.0,17.0,5.212
117.0,3.0,5.213
38.0,-7.0,5.214
-25.0,-7.0,5.215
-36.0,-8.0,5.216
-32.0,-15.0,5.217
-39.0,-20.0,5.218
-33.0,-15.0,5.219
-18.0,-14.0,5.22
23.0,-20.0,5.221
52.0,-17.0,5.222
41.0,-9.0,5.223
18.0,-6.0,5.224
-39.0,-7.0,5.225
-84.0,-6.0,5.226
-92.0,-3.0,5.227
-85.0,-6.0,5.228
-34.0,-11.0,5.229
5.0,-13.0,5.23
7.0,-9.0,5.231
6.0,-4.0,5.232
-5.0,-2.0,5.233
14.0,-3.0,5.234
129.0,-4.0,5.235
199.0,-5.0,5.236
132.0,2.0,5.237
49.0,15.0,5.238
-45.0,22.0,5.239
-82.0,26.0,5.24
-119.0,17.0,5.241
-167.0,9.0,5.242
-165.0,7.0,5.243
-91.0,2.0,5.244
-6.0,-7.0,5.245
34.0,-14.0,5.246
46.0,-10.0,5.247
69.0,-6.0,5.248
105.0,-8.0,5.249
124.0,-8.0,5.25
112.0,-2.0,5.251
77.0,1.0,5.252
38.0,-3.0,5.253
7.0,-6.0,5.254
-15.0,-4.0,5.255
-42.0,-2.0,5.256
-72.0,0.0,5.257
-89.0,3.0,5.258
-67.0,7.0,5.259
-20.0,9.0,5.26
20.0,0.0,5.261
48.0,-7.0,5.262
82.0,-7.0,5.263
105.0,0.0,5.264
74.0,4.0,5.265
1.0,6.0,5.266
-45.0,10.0,5.267
-31.0,11.0,5.268
-6.0,3.0,5.269
-13.0,-10.0,5.27
-30.0,-15.0,5.271
-23.0,-11.0,5.272
-5.0,-5.0,5.273
9.0,-6.0,5.274
30.0,-8.0,5.275
52.0,-2.0,5.276
39.0,8.0,5.277
-7.0,13.0,5.278
-56.0,13.0,5.279
-60.0,6.0,5.28
-54.0,-6.0,5.281
-80.0,-14.0,5.282
-106.0,-15.0,5.283
-84.0,-10.0,5.284
-42.0,-9.0,5.285
-30.0,-16.0,5.286
-24.0,-23.0,5.287
19.0,-18.0,5.288
88.0,-5.0,5.289
125.0,1.0,5.29
127.0,-1.0,5.291
133.0,0.0,5.292
146.0,16.0,5.293
120.0,42.0,5.294
38.0,57.0,5.295
-56.0,50.0,5.296
-107.0,27.0,5.297
-107.0,0.0,5.298
-90.0,-14.0,5.299
-73.0,-12.0,5.3
-57.0,-8.0,5.301
-26.0,-5.0,5.302
43.0,-3.0,5.303
90.0,-4.0,5.304
68.0,-6.0,5.305
50.0,-11.0,5.306
48.0,-12.0,5.307
42.0,-10.0,5.308
26.0,-8.0,5.309
6.0,-7.0,5.31
-24.0,-6.0,5.311
-49.0,-4.0,5.312
-55.0,-4.0,5.313
-73.0,-6.0,5.314
-122.0,-5.0,5.315
-142.0,-1.0,5.316
-71.0,1.0,5.317
-2.0,-2.0,5.318
31.0,-2.0,5.319
22.0,-1.0,5.32
25.0,-3.0,5.321
36.0,-6.0,5.322
35.0,-7.0,5.323
38.0,-8.0,5.324
55.0,-5.0,5.325
63.0,-1.0,5.326
46.0,3.0,5.327
32.0,6.0,5.328
39.0,6.0,5.329
44.0,7.0,5.33
30.0,16.0,5.331
18.0,29.0,5.332
19.0,50.0,5.333
16.0,69.0,5.334
-1.0,79.0,5.335
-9.0,81.0,5.336
-4.0,55.0,5.337
-5.0,26.0,5.338
-14.0,-12.0,5.339
-18.0,-46.0,5.34
-7.0,-73.0,5.341
4.0,-86.0,5.342
18.0,-88.0,5.343
28.0,-82.0,5.344
26.0,-70.0,5.345
20.0,-47.0,5.346
5.0,-21.0,5.347
-7.0,6.0,5.348
-10.0,45.0,5.349
-13.0,96.0,5.35
-15.0,135.0,5.351
-16.0,120.0,5.352
-13.0,54.0,5.353
-11.0,-18.0,5.354
-12.0,-62.0,5.355
-12.0,-92.0,5.356
-9.0,-126.0,5.357
-6.0,-146.0,5.358
-8.0,-121.0,5.359
-10.0,-73.0,5.36
-8.0,-43.0,5.361
-3.0,-33.0,5.362
4.0,-16.0,5.363
5.0,3.0,5.364
-5.0,11.0,5.365
-19.0,13.0,5.366
-21.0,32.0,5.367
-12.0,70.0,5.368
-3.0,95.0,5.369
4.0,91.0,5.37
17.0,69.0,5.371
31.0,45.0,5.372
33.0,24.0,5.373
25.0,6.0,5.374
17.0,-6.0,5.375
17.0,-10.0,5.376
22.0,-10.0,5.377
20.0,-11.0,5.378
11.0,-16.0,5.379
-4.0,-22.0,5.38
-18.0,-28.0,5.381
-22.0,-31.0,5.382
-14.0,-22.0,5.383
-3.0,-9.0,5.384
1.0,15.0,5.385
-2.0,32.0,5.386
-9.0,29.0,5.387
-16.0,22.0,5.388
-19.0,3.0,5.389
-8.0,-14.0,5.39
14.0,-23.0,5.391
39.0,-31.0,5.392
51.0,-35.0,5.393
51.0,-30.0,5.394
49.0,3.0,5.395
46.0,39.0,5.396
35.0,81.0,5.397
14.0,136.0,5.398
-4.0,244.0,5.399
-12.0,340.0,5.4
-15.0,350.0,5.401
-18.0,253.0,5.402
-20.0,91.0,5.403
-21.0,-73.0,5.404
-24.0,-204.0,5.405
-27.0,-300.0,5.406
-22.0,-362.0,5.407
-5.0,-380.0,5.408
10.0,-357.0,5.409
10.0,-314.0,5.41
0.0,-263.0,5.411
-2.0,-205.0,5.412
0.0,-140.0,5.413
-4.0,-74.0,5.414
-12.0,-11.0,5.415
-14.0,46.0,5.416
-6.0,86.0,5.417
0.0,106.0,5.418
0.0,120.0,5.419
-1.0,155.0,5.42
-3.0,197.0,5.421
-4.0,207.0,5.422
1.0,164.0,5.423
4.0,101.0,5.424
-1.0,54.0,5.425
-6.0,32.0,5.426
-7.0,19.0,5.427
-9.0,13.0,5.428
-9.0,25.0,5.429
-8.0,49.0,5.43
0.0,69.0,5.431
10.0,74.0,5.432
22.0,59.0,5.433
30.0,26.0,5.434
26.0,-11.0,5.435
23.0,-26.0,5.436
24.0,-23.0,5.437
25.0,-23.0,5.438
27.0,-32.0,5.439
23.0,-31.0,5.44
16.0,-20.0,5.441
12.0,-16.0,5.442
12.0,-27.0,5.443
11.0,-34.0,5.444
-3.0,-25.0,5.445
-20.0,-16.0,5.446
-24.0,-18.0,5.447
-14.0,-22.0,5.448
-4.0,-14.0,5.449
-7.0,-2.0,5.45
-14.0,4.0,5.451
-13.0,6.0,5.452
-9.0,11.0,5.453
-8.0,18.0,5.454
-2.0,27.0,5.455
9.0,33.0,5.456
18.0,38.0,5.457
14.0,30.0,5.458
2.0,15.0,5.459
-7.0,3.0,5.46
-11.0,-5.0,5.461
-9.0,-9.0,5.462
-1.0,-12.0,5.463
5.0,-12.0,5.464
7.0,-8.0,5.465
3.0,-10.0,5.466
4.0,-16.0,5.467
6.0,-21.0,5.468
6.0,-23.0,5.469
3.0,-19.0,5.47
8.0,-14.0,5.471
17.0,-7.0,5.472
20.0,-3.0,5.473
18.0,-3.0,5.474
17.0,-4.0,5.475
17.0,-2.0,5.476
15.0,-2.0,5.477
8.0,-6.0,5.478
6.0,-13.0,5.479
6.0,-18.0,5.48
3.0,-15.0,5.481
-4.0,-10.0,5.482
-5.0,-1.0,5.483
-2.0,6.0,5.484
-3.0,5.0,5.485
-9.0,5.0,5.486
-10.0,9.0,5.487
-2.0,12.0,5.488
3.0,12.0,5.489
1.0,13.0,5.49
1.0,15.0,5.491
10.0,16.0,5.492
18.0,11.0,5.493
18.0,6.0,5.494
13.0,3.0,5.495
8.0,-1.0,5.496
0.0,-6.0,5.497
-18.0,-10.0,5.498
-30.0,-7.0,5.499
-35.0,-4.0,5.5
-19.0,-8.0,5.501
-6.0,-8.0,5.502
-6.0,0.0,5.503
-5.0,16.0,5.504
-5.0,36.0,5.505
-5.0,53.0,5.506
-2.0,57.0,5.507
3.0,39.0,5.508
16.0,11.0,5.509
26.0,-8.0,5.51
27.0,-20.0,5.511
27.0,-35.0,5.512
21.0,-49.0,5.513
15.0,-48.0,5.514
7.0,-33.0,5.515
0.0,-23.0,5.516
-2.0,-22.0,5.517
-5.0,-26.0,5.518
-11.0,-22.0,5.519
-15.0,-17.0,5.52
-11.0,-19.0,5.521
-2.0,-19.0,5.522
6.0,-14.0,5.523
10.0,-8.0,5.524
9.0,-1.0,5.525
8.0,5.0,5.526
8.0,7.0,5.527
6.0,4.0,5.528
5.0,2.0,5.529
7.0,9.0,5.53
15.0,19.0,5.531
26.0,18.0,5.532
32.0,10.0,5.533
25.0,6.0,5.534
10.0,7.0,5.535
-2.0,10.0,5.536
-3.0,11.0,5.537
-10.0,12.0,5.538
-26.0,10.0,5.539
-37.0,10.0,5.54
-29.0,14.0,5.541
-18.0,31.0,5.542
-1.0,39.0,5.543
12.0,24.0,5.544
12.0,-1.0,5.545
20.0,-13.0,5.546
55.0,-15.0,5.547
78.0,-19.0,5.548
63.0,-23.0,5.549
41.0,-16.0,5.55
-2.0,-6.0,5.551
-37.0,-3.0,5.552
-45.0,-6.0,5.553
-57.0,-9.0,5.554
-83.0,-9.0,5.555
-97.0,-10.0,5.556
-68.0,-11.0,5.557
-28.0,-9.0,5.558
27.0,-8.0,5.559
30.0,-10.0,5.56
0.0,-14.0,5.561
-10.0,-7.0,5.562
13.0,2.0,5.563
43.0,7.0,5.564
53.0,6.0,5.565
45.0,4.0,5.566
35.0,4.0,5.567
27.0,2.0,5.568
25.0,3.0,5.569
31.0,6.0,5.57
30.0,9.0,5.571
22.0,9.0,5.572
12.0,8.0,5.573
8.0,5.0,5.574
3.0,2.0,5.575
-8.0,1.0,5.576
-17.0,3.0,5.577
-17.0,3.0,5.578
-10.0,-1.0,5.579
-6.0,-6.0,5.58
-5.0,-8.0,5.581
0.0,-3.0,5.582
7.0,3.0,5.583
14.0,5.0,5.584
17.0,5.0,5.585
18.0,4.0,5.586
17.0,2.0,5.587
16.0,0.0,5.588
16.0,0.0,5.589
10.0,0.0,5.59
-2.0,1.0,5.591
-10.0,2.0,5.592
-14.0,2.0,5.593
-20.0,1.0,5.594
-35.0,2.0,5.595
-44.0,3.0,5.596
-37.0,7.0,5.597
-19.0,5.0,5.598
2.0,0.0,5.599
24.0,-6.0,5.6
50.0,-12.0,5.601
65.0,-12.0,5.602
57.0,-9.0,5.603
36.0,-7.0,5.604
16.0,-6.0,5.605
-2.0,-4.0,5.606
-20.0,-5.0,5.607
-36.0,-7.0,5.608
-48.0,-5.0,5.609
-54.0,3.0,5.61
-53.0,9.0,5.611
-43.0,5.0,5.612
-23.0,-4.0,5.613
-13.0,-8.0,5.614
-14.0,-4.0,5.615
-16.0,-3.0,5.616
-5.0,-5.0,5.617
22.0,-10.0,5.618
53.0,-13.0,5.619
64.0,-13.0,5.62
43.0,-13.0,5.621
7.0,-8.0,5.622
-9.0,2.0,5.623
6.0,15.0,5.624
24.0,26.0,5.625
17.0,30.0,5.626
-3.0,30.0,5.627
-11.0,25.0,5.628
-8.0,19.0,5.629
-10.0,10.0,5.63
-9.0,-4.0,5.631
11.0,-16.0,5.632
41.0,-21.0,5.633
56.0,-19.0,5.634
45.0,-20.0,5.635
25.0,-23.0,5.636
15.0,-20.0,5.637
10.0,-11.0,5.638
13.0,-5.0,5.639
12.0,-4.0,5.64
-8.0,-6.0,5.641
-40.0,-4.0,5.642
-50.0,0.0,5.643
-23.0,1.0,5.644
5.0,2.0,5.645
-2.0,6.0,5.646
-26.0,9.0,5.647
-25.0,11.0,5.648
2.0,11.0,5.649
15.0,9.0,5.65
2.0,7.0,5.651
-3.0,2.0,5.652
10.0,-2.0,5.653
16.0,-2.0,5.654
7.0,0.0,5.655
0.0,0.0,5.656
10.0,-1.0,5.657
14.0,-4.0,5.658
4.0,-4.0,5.659
-7.0,-3.0,5.66
-6.0,-1.0,5.661
-1.0,2.0,5.662
0.0,3.0,5.663
0.0,3.0,5.664
1.0,5.0,5.665
0.0,6.0,5.666
0.0,3.0,5.667
6.0,-2.0,5.668
12.0,-2.0,5.669
10.0,2.0,5.67
5.0,3.0,5.671
5.0,-2.0,5.672
12.0,-5.0,5.673
12.0,-4.0,5.674
4.0,-2.0,5.675
0.0,-3.0,5.676
3.0,0.0,5.677
5.0,2.0,5.678
0.0,2.0,5.679
-6.0,-3.0,5.68
-9.0,-10.0,5.681
-7.0,-9.0,5.682
-3.0,-5.0,5.683
0.0,-4.0,5.684
0.0,-3.0,5.685
-1.0,-1.0,5.686
3.0,-2.0,5.687
13.0,-6.0,5.688
19.0,-7.0,5.689
21.0,-2.0,5.69
25.0,4.0,5.691
32.0,3.0,5.692
33.0,4.0,5.693
25.0,10.0,5.694
9.0,14.0,5.695
-6.0,11.0,5.696
-21.0,4.0,5.697
-34.0,-2.0,5.698
-44.0,-4.0,5.699
-46.0,-3.0,5.7
-41.0,-9.0,5.701
-33.0,-11.0,5.702
-19.0,-7.0,5.703
-1.0,0.0,5.704
14.0,4.0,5.705
32.0,3.0,5.706
63.0,2.0,5.707
96.0,0.0,5.708
93.0,0.0,5.709
45.0,-4.0,5.71
-12.0,-7.0,5.711
-42.0,-10.0,5.712
-50.0,-9.0,5.713
-65.0,-8.0,5.714
-85.0,-6.0,5.715
-78.0,-2.0,5.716
-43.0,3.0,5.717
-7.0,5.0,5.718
10.0,0.0,5.719
8.0,-8.0,5.72
6.0,-15.0,5.721
12.0,-15.0,5.722
19.0,-9.0,5.723
23.0,-4.0,5.724
25.0,0.0,5.725
26.0,4.0,5.726
32.0,7.0,5.727
46.0,11.0,5.728
61.0,18.0,5.729
63.0,24.0,5.73
48.0,23.0,5.731
24.0,18.0,5.732
7.0,11.0,5.733
-4.0,6.0,5.734
-17.0,1.0,5.735
-37.0,-4.0,5.736
-52.0,-5.0,5.737
-49.0,-3.0,5.738
-20.0,4.0,5.739
12.0,10.0,5.74
27.0,6.0,5.741
25.0,-5.0,5.742
30.0,-16.0,5.743
51.0,-20.0,5.744
64.0,-13.0,5.745
56.0,-1.0,5.746
41.0,3.0,5.747
25.0,-1.0,5.748
-17.0,-2.0,5.749
-92.0,2.0,5.75
-146.0,4.0,5.751
-129.0,1.0,5.752
-68.0,0.0,5.753
-30.0,4.0,5.754
-25.0,6.0,5.755
-16.0,-2.0,5.756
7.0,-13.0,5.757
14.0,-22.0,5.758
0.0,-19.0,5.759
-11.0,-12.0,5.76
7.0,-9.0,5.761
30.0,-7.0,5.762
40.0,-12.0,5.763
46.0,-13.0,5.764
50.0,-8.0,5.765
40.0,-1.0,5.766
21.0,2.0,5.767
15.0,1.0,5.768
20.0,1.0,5.769
19.0,4.0,5.77
8.0,8.0,5.771
5.0,8.0,5.772
16.0,5.0,5.773
21.0,5.0,5.774
17.0,5.0,5.775
15.0,3.0,5.776
16.0,1.0,5.777
12.0,1.0,5.778
5.0,5.0,5.779
2.0,6.0,5.78
-2.0,0.0,5.781
-12.0,0.0,5.782
-17.0,1.0,5.783
-9.0,3.0,5.784
-1.0,2.0,5.785
1.0,5.0,5.786
4.0,8.0,5.787
15.0,9.0,5.788
21.0,4.0,5.789
14.0,2.0,5.79
3.0,3.0,5.791
3.0,3.0,5.792
5.0,2.0,5.793
0.0,2.0,5.794
-3.0,1.0,5.795
0.0,-2.0,5.796
7.0,-6.0,5.797
3.0,-8.0,5.798
-7.0,-8.0,5.799
-18.0,-9.0,5.8
-22.0,-16.0,5.801
-22.0,-18.0,5.802
-16.0,-12.0,5.803
-6.0,-4.0,5.804
0.0,4.0,5.805
0.0,9.0,5.806
-2.0,11.0,5.807
0.0,10.0,5.808
2.0,4.0,5.809
0.0,-2.0,5.81
0.0,-4.0,5.811
9.0,-1.0,5.812
22.0,4.0,5.813
36.0,8.0,5.814
52.0,10.0,5.815
63.0,8.0,5.816
57.0,7.0,5.817
26.0,4.0,5.818
-14.0,-2.0,5.819
-41.0,-12.0,5.82
-48.0,-24.0,5.821
-48.0,-26.0,5.822
-46.0,-19.0,5.823
-41.0,-9.0,5.824
-23.0,-4.0,5.825
3.0,3.0,5.826
25.0,11.0,5.827
30.0,21.0,5.828
24.0,26.0,5.829
18.0,22.0,5.83
10.0,8.0,5.831
-16.0,-5.0,5.832
-51.0,-8.0,5.833
-69.0,0.0,5.834
-57.0,2.0,5.835
-31.0,-7.0,5.836
-6.0,-16.0,5.837
21.0,-15.0,5.838
48.0,-7.0,5.839
57.0,-5.0,5.84
46.0,-11.0,5.841
33.0,-12.0,5.842
27.0,-7.0,5.843
13.0,-2.0,5.844
-10.0,3.0,5.845
-26.0,9.0,5.846
-23.0,9.0,5.847
-17.0,4.0,5.848
-21.0,1.0,5.849
-19.0,8.0,5.85
3.0,17.0,5.851
27.0,15.0,5.852
31.0,8.0,5.853
19.0,3.0,5.854
18.0,-1.0,5.855
26.0,-8.0,5.856
32.0,-8.0,5.857
29.0,-3.0,5.858
24.0,-1.0,5.859
16.0,-2.0,5.86
5.0,-12.0,5.861
0.0,-19.0,5.862
3.0,-13.0,5.863
9.0,-7.0,5.864
0.0,1.0,5.865
-16.0,9.0,5.866
-20.0,14.0,5.867
-11.0,16.0,5.868
-5.0,8.0,5.869
-11.0,2.0,5.87
-14.0,7.0,5.871
-6.0,12.0,5.872
4.0,11.0,5.873
7.0,8.0,5.874
13.0,1.0,5.875
22.0,-7.0,5.876
25.0,-19.0,5.877
16.0,-27.0,5.878
13.0,-18.0,5.879
21.0,-9.0,5.88
30.0,-10.0,5.881
23.0,-12.0,5.882
11.0,-10.0,5.883
1.0,-3.0,5.884
-13.0,2.0,5.885
-39.0,3.0,5.886
-54.0,3.0,5.887
-35.0,4.0,5.888
-4.0,8.0,5.889
9.0,9.0,5.89
1.0,9.0,5.891
9.0,7.0,5.892
32.0,5.0,5.893
39.0,3.0,5.894
22.0,2.0,5.895
11.0,3.0,5.896
17.0,5.0,5.897
19.0,1.0,5.898
3.0,-4.0,5.899
-15.0,-6.0,5.9
-16.0,-7.0,5.901
-9.0,-8.0,5.902
-7.0,-8.0,5.903
-4.0,-4.0,5.904
6.0,1.0,5.905
14.0,3.0,5.906
10.0,2.0,5.907
0.0,-4.0,5.908
-3.0,-10.0,5.909
-7.0,-13.0,5.91
-11.0,-8.0,5.911
-12.0,4.0,5.912
-3.0,11.0,5.913
10.0,11.0,5.914
28.0,7.0,5.915
46.0,7.0,5.916
56.0,12.0,5.917
47.0,14.0,5.918
24.0,13.0,5.919
1.0,10.0,5.92
-18.0,0.0,5.921
-30.0,-15.0,5.922
-30.0,-27.0,5.923
-18.0,-25.0,5.924
-2.0,-14.0,5.925
-2.0,-14.0,5.926
-17.0,-23.0,5.927
-33.0,-20.0,5.928
-41.0,-3.0,5.929
-40.0,9.0,5.93
-38.0,6.0,5.931
-44.0,1.0,5.932
-53.0,7.0,5.933
-61.0,14.0,5.934
-58.0,8.0,5.935
-35.0,-1.0,5.936
-2.0,0.0,5.937
28.0,7.0,5.938
36.0,9.0,5.939
30.0,10.0,5.94
28.0,0.0,5.941
41.0,-7.0,5.942
58.0,-7.0,5.943
71.0,-5.0,5.944
86.0,2.0,5.945
105.0,6.0,5.946
102.0,0.0,5.947
55.0,-6.0,5.948
-15.0,-7.0,5.949
-57.0,-9.0,5.95
-53.0,-13.0,5.951
-29.0,-14.0,5.952
-16.0,-7.0,5.953
-7.0,0.0,5.954
8.0,4.0,5.955
22.0,10.0,5.956
15.0,19.0,5.957
-11.0,28.0,5.958
-21.0,25.0,5.959
-9.0,12.0,5.96
7.0,1.0,5.961
6.0,1.0,5.962
-1.0,3.0,5.963
-7.0,3.0,5.964
-12.0,2.0,5.965
-17.0,8.0,5.966
-13.0,7.0,5.967
3.0,-5.0,5.968
29.0,-15.0,5.969
61.0,-13.0,5.97
98.0,-5.0,5.971
122.0,-7.0,5.972
118.0,-13.0,5.973
88.0,-11.0,5.974
51.0,-3.0,5.975
0.0,-3.0,5.976
-69.0,-9.0,5.977
-146.0,-9.0,5.978
-179.0,-1.0,5.979
-162.0,5.0,5.98
-132.0,1.0,5.981
-113.0,1.0,5.982
-82.0,13.0,5.983
-36.0,22.0,5.984
-12.0,25.0,5.985
-17.0,25.0,5.986
-11.0,12.0,5.987
31.0,1.0,5.988
87.0,-2.0,5.989
128.0,-6.0,5.99
155.0,-10.0,5.991
171.0,-14.0,5.992
169.0,-21.0,5.993
153.0,-25.0,5.994
132.0,-17.0,5.995
88.0,-9.0,5.996
8.0,-6.0,5.997
-87.0,-2.0,5.998
-128.0,-1.0,5.999
-111.0,-9.0,6.0
-101.0,-16.0,6.001
-130.0,-2.0,6.002
-151.0,29.0,6.003
-117.0,53.0,6.004
-51.0,57.0,6.005
-3.0,48.0,6.006
15.0,31.0,6.007
23.0,10.0,6.008
26.0,-7.0,6.009
24.0,-15.0,6.01
23.0,-19.0,6.011
29.0,-32.0,6.012
26.0,-49.0,6.013
2.0,-58.0,6.014
-24.0,-51.0,6.015
-24.0,-40.0,6.016
0.0,-30.0,6.017
34.0,-24.0,6.018
67.0,-16.0,6.019
96.0,-9.0,6.02
107.0,-4.0,6.021
77.0,12.0,6.022
16.0,37.0,6.023
-37.0,59.0,6.024
-63.0,65.0,6.025
-75.0,61.0,6.026
-75.0,54.0,6.027
-54.0,44.0,6.028
-21.0,26.0,6.029
-6.0,1.0,6.03
-2.0,-19.0,6.031
28.0,-28.0,6.032
82.0,-31.0,6.033
109.0,-37.0,6.034
83.0,-48.0,6.035
46.0,-48.0,6.036
37.0,-35.0,6.037
37.0,-19.0,6.038
13.0,-13.0,6.039
-33.0,-20.0,6.04
-63.0,-31.0,6.041
-60.0,-30.0,6.042
-47.0,-18.0,6.043
-47.0,-3.0,6.044
-55.0,14.0,6.045
-33.0,35.0,6.046
28.0,45.0,6.047
80.0,33.0,6.048
64.0,10.0,6.049
-8.0,-4.0,6.05
-73.0,-10.0,6.051
-82.0,-20.0,6.052
-49.0,-24.0,6.053
-3.0,0.0,6.054
44.0,51.0,6.055
79.0,97.0,6.056
76.0,115.0,6.057
30.0,112.0,6.058
-23.0,104.0,6.059
-48.0,83.0,6.06
-47.0,39.0,6.061
-55.0,-5.0,6.062
-71.0,-16.0,6.063
-70.0,17.0,6.064
-36.0,66.0,6.065
9.0,90.0,6.066
40.0,74.0,6.067
55.0,29.0,6.068
83.0,-15.0,6.069
129.0,-19.0,6.07
170.0,60.0,6.071
190.0,225.0,6.072
189.0,385.0,6.073
170.0,395.0,6.074
121.0,191.0,6.075
33.0,-118.0,6.076
-60.0,-357.0,6.077
-146.0,-504.0,6.078
-214.0,-602.0,6.079
-257.0,-663.0,6.08
-239.0,-634.0,6.081
-151.0,-503.0,6.082
-47.0,-351.0,6.083
-2.0,-223.0,6.084
-25.0,-86.0,6.085
-62.0,48.0,6.086
-59.0,109.0,6.087
-10.0,99.0,6.088
69.0,110.0,6.089
143.0,167.0,6.09
175.0,179.0,6.091
144.0,109.0,6.092
61.0,51.0,6.093
-31.0,86.0,6.094
-82.0,184.0,6.095
-60.0,284.0,6.096
-6.0,374.0,6.097
11.0,451.0,6.098
-26.0,464.0,6.099
-59.0,374.0,6.1
-54.0,201.0,6.101
-61.0,17.0,6.102
-114.0,-107.0,6.103
-137.0,-135.0,6.104
-54.0,-107.0,6.105
76.0,-115.0,6.106
139.0,-192.0,6.107
118.0,-284.0,6.108
86.0,-331.0,6.109
85.0,-345.0,6.11
91.0,-341.0,6.111
91.0,-285.0,6.112
92.0,-160.0,6.113
86.0,-37.0,6.114
53.0,3.0,6.115
-8.0,-12.0,6.116
-68.0,-7.0,6.117
-106.0,38.0,6.118
-89.0,79.0,6.119
-26.0,98.0,6.12
30.0,118.0,6.121
42.0,150.0,6.122
41.0,172.0,6.123
54.0,189.0,6.124
44.0,219.0,6.125
-31.0,229.0,6.126
-121.0,178.0,6.127
-137.0,88.0,6.128
-80.0,17.0,6.129
-24.0,-23.0,6.13
-4.0,-57.0,6.131
11.0,-80.0,6.132
47.0,-70.0,6.133
99.0,-45.0,6.134
173.0,-37.0,6.135
262.0,-38.0,6.136
304.0,-23.0,6.137
222.0,4.0,6.138
38.0,21.0,6.139
-127.0,42.0,6.14
-180.0,105.0,6.141
-162.0,229.0,6.142
-165.0,369.0,6.143
-202.0,454.0,6.144
-194.0,413.0,6.145
-115.0,229.0,6.146
-25.0,-21.0,6.147
19.0,-222.0,6.148
30.0,-326.0,6.149
45.0,-374.0,6.15
58.0,-397.0,6.151
48.0,-362.0,6.152
36.0,-225.0,6.153
50.0,-4.0,6.154
73.0,205.0,6.155
73.0,278.0,6.156
54.0,173.0,6.157
22.0,-52.0,6.158
0.0,-225.0,6.159
13.0,-254.0,6.16
87.0,-202.0,6.161
172.0,-148.0,6.162
156.0,-84.0,6.163
-5.0,11.0,6.164
-198.0,100.0,6.165
-253.0,147.0,6.166
-139.0,203.0,6.167
6.0,294.0,6.168
50.0,319.0,6.169
33.0,183.0,6.17
82.0,-26.0,6.171
187.0,-150.0,6.172
185.0,-156.0,6.173
-1.0,-129.0,6.174
-216.0,-110.0,6.175
-277.0,-85.0,6.176
-213.0,-69.0,6.177
-161.0,-82.0,6.178
-147.0,-87.0,6.179
-73.0,-38.0,6.18
83.0,43.0,6.181
188.0,103.0,6.182
150.0,126.0,6.183
42.0,105.0,6.184
-11.0,22.0,6.185
11.0,-85.0,6.186
39.0,-121.0,6.187
20.0,-50.0,6.188
-24.0,62.0,6.189
-50.0,151.0,6.19
-36.0,191.0,6.191
-13.0,139.0,6.192
-22.0,-42.0,6.193
-63.0,-279.0,6.194
-95.0,-426.0,6.195
-85.0,-447.0,6.196
-39.0,-425.0,6.197
30.0,-377.0,6.198
90.0,-206.0,6.199
105.0,120.0,6.2
59.0,446.0,6.201
-4.0,569.0,6.202
-20.0,429.0,6.203
16.0,126.0,6.204
56.0,-181.0,6.205
73.0,-371.0,6.206
81.0,-413.0,6.207
73.0,-342.0,6.208
13.0,-187.0,6.209
-79.0,29.0,6.21
-131.0,233.0,6.211
-97.0,293.0,6.212
-21.0,177.0,6.213
37.0,13.0,6.214
68.0,-55.0,6.215
85.0,-35.0,6.216
83.0,-27.0,6.217
59.0,-65.0,6.218
34.0,-81.0,6.219
32.0,-34.0,6.22
44.0,17.0,6.221
43.0,22.0,6.222
27.0,11.0,6.223
14.0,58.0,6.224
6.0,171.0,6.225
-4.0,276.0,6.226
-11.0,280.0,6.227
-5.0,157.0,6.228
8.0,-22.0,6.229
7.0,-141.0,6.23
-6.0,-145.0,6.231
-13.0,-68.0,6.232
-6.0,34.0,6.233
2.0,176.0,6.234
4.0,361.0,6.235
6.0,499.0,6.236
14.0,488.0,6.237
21.0,325.0,6.238
26.0,113.0,6.239
34.0,-116.0,6.24
44.0,-406.0,6.241
42.0,-686.0,6.242
28.0,-781.0,6.243
9.0,-630.0,6.244
-2.0,-384.0,6.245
-5.0,-188.0,6.246
-7.0,-20.0,6.247
-13.0,187.0,6.248
-22.0,377.0,6.249
-35.0,432.0,6.25
-46.0,331.0,6.251
-48.0,163.0,6.252
-42.0,31.0,6.253
-35.0,-11.0,6.254
-38.0,15.0,6.255
-46.0,60.0,6.256
-51.0,95.0,6.257
-54.0,114.0,6.258
-54.0,64.0,6.259
-52.0,-113.0,6.26
-45.0,-346.0,6.261
-32.0,-441.0,6.262
-14.0,-329.0,6.263
13.0,-163.0,6.264
42.0,-87.0,6.265
59.0,-53.0,6.266
61.0,51.0,6.267
51.0,205.0,6.268
44.0,304.0,6.269
45.0,307.0,6.27
51.0,243.0,6.271
57.0,139.0,6.272
61.0,43.0,6.273
60.0,8.0,6.274
57.0,23.0,6.275
51.0,11.0,6.276
39.0,-42.0,6.277
21.0,-88.0,6.278
4.0,-88.0,6.279
-10.0,-71.0,6.28
-18.0,-58.0,6.281
-18.0,-21.0,6.282
-7.0,35.0,6.283
9.0,67.0,6.284
18.0,68.0,6.285
10.0,85.0,6.286
-10.0,131.0,6.287
-27.0,167.0,6.288
-40.0,180.0,6.289
-48.0,199.0,6.29
-52.0,228.0,6.291
-45.0,236.0,6.292
-27.0,216.0,6.293
-8.0,177.0,6.294
3.0,117.0,6.295
9.0,26.0,6.296
16.0,-64.0,6.297
18.0,-138.0,6.298
8.0,-179.0,6.299
-1.0,-193.0,6.3
-9.0,-169.0,6.301
-14.0,-100.0,6.302
-10.0,-24.0,6.303
-7.0,9.0,6.304
-7.0,-17.0,6.305
-5.0,-84.0,6.306
4.0,-157.0,6.307
12.0,-208.0,6.308
10.0,-232.0,6.309
11.0,-238.0,6.31
19.0,-235.0,6.311
23.0,-208.0,6.312
12.0,-154.0,6.313
3.0,-108.0,6.314
-1.0,-98.0,6.315
-5.0,-93.0,6.316
-9.0,-46.0,6.317
-16.0,45.0,6.318
-31.0,125.0,6.319
-40.0,178.0,6.32
-38.0,148.0,6.321
-27.0,111.0,6.322
-14.0,49.0,6.323
-2.0,-4.0,6.324
2.0,-34.0,6.325
4.0,-49.0,6.326
9.0,-15.0,6.327
12.0,12.0,6.328
4.0,22.0,6.329
-9.0,31.0,6.33
-15.0,35.0,6.331
-8.0,24.0,6.332
5.0,-30.0,6.333
22.0,-79.0,6.334
42.0,-111.0,6.335
60.0,-127.0,6.336
62.0,-95.0,6.337
47.0,-55.0,6.338
31.0,6.0,6.339
22.0,59.0,6.34
12.0,80.0,6.341
-6.0,85.0,6.342
-21.0,95.0,6.343
-19.0,112.0,6.344
-5.0,114.0,6.345
7.0,101.0,6.346
9.0,87.0,6.347
1.0,71.0,6.348
-7.0,52.0,6.349
-15.0,40.0,6.35
-19.0,44.0,6.351
-17.0,49.0,6.352
-11.0,39.0,6.353
-6.0,25.0,6.354
-3.0,21.0,6.355
-2.0,23.0,6.356
4.0,19.0,6.357
8.0,5.0,6.358
4.0,-5.0,6.359
-3.0,-14.0,6.36
-3.0,-26.0,6.361
4.0,-26.0,6.362
9.0,-14.0,6.363
6.0,-4.0,6.364
0.0,-3.0,6.365
-4.0,-7.0,6.366
-6.0,-6.0,6.367
-8.0,-8.0,6.368
-4.0,-12.0,6.369
7.0,-14.0,6.37
22.0,-11.0,6.371
30.0,-8.0,6.372
30.0,-10.0,6.373
22.0,-12.0,6.374
15.0,-14.0,6.375
10.0,-18.0,6.376
12.0,-22.0,6.377
8.0,-24.0,6.378
2.0,-21.0,6.379
-5.0,-17.0,6.38
-13.0,-21.0,6.381
-16.0,-23.0,6.382
-6.0,-19.0,6.383
3.0,-10.0,6.384
7.0,-3.0,6.385
11.0,-1.0,6.386
14.0,-3.0,6.387
20.0,-6.0,6.388
34.0,-6.0,6.389
41.0,-6.0,6.39
26.0,-8.0,6.391
10.0,-11.0,6.392
-11.0,-11.0,6.393
-26.0,-9.0,6.394
-24.0,-7.0,6.395
-22.0,-6.0,6.396
-25.0,-3.0,6.397
-27.0,-1.0,6.398
-14.0,-2.0,6.399
-2.0,-3.0,6.4
2.0,-8.0,6.401
-2.0,-9.0,6.402
-4.0,-8.0,6.403
-6.0,-2.0,6.404
-13.0,4.0,6.405
-16.0,8.0,6.406
-5.0,8.0,6.407
13.0,5.0,6.408
22.0,3.0,6.409
23.0,5.0,6.41
26.0,5.0,6.411
30.0,2.0,6.412
26.0,1.0,6.413
15.0,4.0,6.414
11.0,11.0,6.415
16.0,11.0,6.416
18.0,10.0,6.417
9.0,8.0,6.418
-1.0,8.0,6.419
-5.0,8.0,6.42
-7.0,3.0,6.421
-8.0,2.0,6.422
-3.0,7.0,6.423
4.0,10.0,6.424
3.0,7.0,6.425
-2.0,-2.0,6.426
0.0,-15.0,6.427
7.0,-22.0,6.428
6.0,-16.0,6.429
-3.0,-3.0,6.43
-8.0,7.0,6.431
-5.0,7.0,6.432
-4.0,5.0,6.433
-6.0,6.0,6.434
-5.0,10.0,6.435
-2.0,8.0,6.436
0.0,7.0,6.437
-6.0,7.0,6.438
-13.0,9.0,6.439
-17.0,12.0,6.44
-21.0,12.0,6.441
-23.0,12.0,6.442
-20.0,9.0,6.443
-11.0,0.0,6.444
-5.0,-9.0,6.445
-5.0,-12.0,6.446
-3.0,-12.0,6.447
3.0,-11.0,6.448
7.0,-6.0,6.449
5.0,3.0,6.45
1.0,9.0,6.451
1.0,6.0,6.452
0.0,-1.0,6.453
-5.0,-3.0,6.454
-13.0,-2.0,6.455
-19.0,-1.0,6.456
-20.0,1.0,6.457
-20.0,2.0,6.458
-21.0,2.0,6.459
-24.0,2.0,6.46
-25.0,-4.0,6.461
-19.0,-13.0,6.462
-3.0,-24.0,6.463
11.0,-31.0,6.464
18.0,-29.0,6.465
16.0,-18.0,6.466
8.0,-6.0,6.467
0.0,-1.0,6.468
-7.0,0.0,6.469
-10.0,1.0,6.47
-9.0,4.0,6.471
-3.0,8.0,6.472
4.0,10.0,6.473
12.0,9.0,6.474
17.0,3.0,6.475
20.0,-3.0,6.476
25.0,-3.0,6.477
29.0,0.0,6.478
29.0,2.0,6.479
27.0,-2.0,6.48
28.0,-7.0,6.481
35.0,-4.0,6.482
44.0,4.0,6.483
49.0,7.0,6.484
45.0,6.0,6.485
32.0,8.0,6.486
19.0,11.0,6.487
13.0,14.0,6.488
13.0,8.0,6.489
10.0,-3.0,6.49
5.0,-13.0,6.491
4.0,-17.0,6.492
7.0,-14.0,6.493
10.0,-8.0,6.494
11.0,-4.0,6.495
11.0,-3.0,6.496
13.0,-6.0,6.497
15.0,-8.0,6.498
17.0,-5.0,6.499
16.0,1.0,6.5
12.0,2.0,6.501
7.0,0.0,6.502
11.0,0.0,6.503
24.0,1.0,6.504
37.0,1.0,6.505
31.0,-2.0,6.506
4.0,-8.0,6.507
-21.0,-8.0,6.508
-20.0,-3.0,6.509
3.0,0.0,6.51
18.0,-2.0,6.511
6.0,-5.0,6.512
-15.0,-4.0,6.513
-21.0,1.0,6.514
-3.0,2.0,6.515
16.0,-1.0,6.516
24.0,-4.0,6.517
24.0,-9.0,6.518
21.0,-10.0,6.519
8.0,-8.0,6.52
-13.0,-7.0,6.521
-21.0,-5.0,6.522
-3.0,-6.0,6.523
18.0,-5.0,6.524
19.0,3.0,6.525
5.0,11.0,6.526
1.0,13.0,6.527
12.0,10.0,6.528
15.0,12.0,6.529
6.0,22.0,6.53
-3.0,22.0,6.531
-4.0,7.0,6.532
-1.0,-9.0,6.533
4.0,-12.0,6.534
15.0,-2.0,6.535
24.0,6.0,6.536
25.0,5.0,6.537
18.0,-1.0,6.538
16.0,-5.0,6.539
16.0,-6.0,6.54
13.0,-11.0,6.541
12.0,-12.0,6.542
16.0,-7.0,6.543
12.0,1.0,6.544
-11.0,9.0,6.545
-42.0,9.0,6.546
-54.0,6.0,6.547
-53.0,1.0,6.548
-64.0,-1.0,6.549
-91.0,-3.0,6.55
-99.0,-4.0,6.551
-58.0,-6.0,6.552
1.0,-6.0,6.553
24.0,-6.0,6.554
3.0,-6.0,6.555
-23.0,-9.0,6.556
-15.0,-15.0,6.557
21.0,-16.0,6.558
51.0,-12.0,6.559
47.0,-5.0,6.56
24.0,-8.0,6.561
9.0,-14.0,6.562
6.0,-13.0,6.563
0.0,-6.0,6.564
-12.0,-1.0,6.565
-19.0,4.0,6.566
-16.0,9.0,6.567
-7.0,15.0,6.568
3.0,18.0,6.569
18.0,18.0,6.57
36.0,15.0,6.571
46.0,9.0,6.572
46.0,6.0,6.573
40.0,4.0,6.574
34.0,3.0,6.575
34.0,4.0,6.576
36.0,9.0,6.577
27.0,16.0,6.578
-1.0,20.0,6.579
-41.0,9.0,6.58
-65.0,-10.0,6.581
-53.0,-21.0,6.582
-24.0,-22.0,6.583
-6.0,-19.0,6.584
-2.0,-14.0,6.585
7.0,4.0,6.586
26.0,38.0,6.587
41.0,75.0,6.588
37.0,110.0,6.589
26.0,130.0,6.59
23.0,106.0,6.591
29.0,28.0,6.592
24.0,-61.0,6.593
-1.0,-108.0,6.594
-29.0,-108.0,6.595
-53.0,-103.0,6.596
-73.0,-116.0,6.597
-91.0,-133.0,6.598
-75.0,-128.0,6.599
-12.0,-108.0,6.6
60.0,-91.0,6.601
85.0,-67.0,6.602
57.0,-22.0,6.603
7.0,35.0,6.604
-35.0,92.0,6.605
-58.0,135.0,6.606
-59.0,161.0,6.607
-38.0,166.0,6.608
-16.0,149.0,6.609
-2.0,123.0,6.61
14.0,90.0,6.611
32.0,42.0,6.612
39.0,-17.0,6.613
26.0,-59.0,6.614
10.0,-62.0,6.615
3.0,-29.0,6.616
-1.0,21.0,6.617
-4.0,68.0,6.618
6.0,104.0,6.619
41.0,83.0,6.62
83.0,-3.0,6.621
106.0,-108.0,6.622
106.0,-183.0,6.623
92.0,-213.0,6.624
65.0,-195.0,6.625
20.0,-135.0,6.626
-27.0,-58.0,6.627
-62.0,5.0,6.628
-82.0,81.0,6.629
-98.0,181.0,6.63
-114.0,225.0,6.631
-111.0,112.0,6.632
-90.0,-100.0,6.633
-72.0,-234.0,6.634
-78.0,-218.0,6.635
-93.0,-149.0,6.636
-85.0,-108.0,6.637
-58.0,-26.0,6.638
-21.0,111.0,6.639
-4.0,217.0,6.64
11.0,221.0,6.641
43.0,174.0,6.642
82.0,142.0,6.643
102.0,122.0,6.644
98.0,90.0,6.645
86.0,59.0,6.646
76.0,41.0,6.647
59.0,26.0,6.648
36.0,5.0,6.649
22.0,-22.0,6.65
23.0,-68.0,6.651
32.0,-125.0,6.652
31.0,-140.0,6.653
24.0,-83.0,6.654
22.0,6.0,6.655
37.0,75.0,6.656
57.0,138.0,6.657
60.0,234.0,6.658
34.0,307.0,6.659
13.0,246.0,6.66
5.0,21.0,6.661
2.0,-240.0,6.662
21.0,-394.0,6.663
28.0,-404.0,6.664
-5.0,-338.0,6.665
-34.0,-241.0,6.666
-48.0,-105.0,6.667
-62.0,55.0,6.668
-74.0,164.0,6.669
-81.0,168.0,6.67
-75.0,114.0,6.671
-63.0,155.0,6.672
-32.0,389.0,6.673
-7.0,693.0,6.674
1.0,767.0,6.675
11.0,436.0,6.676
24.0,-89.0,6.677
33.0,-544.0,6.678
27.0,-770.0,6.679
31.0,-859.0,6.68
67.0,-881.0,6.681
102.0,-756.0,6.682
90.0,-477.0,6.683
26.0,-191.0,6.684
-53.0,-37.0,6.685
-111.0,-14.0,6.686
-142.0,-46.0,6.687
-149.0,-56.0,6.688
-125.0,33.0,6.689
-72.0,218.0,6.69
-12.0,377.0,6.691
26.0,412.0,6.692
33.0,355.0,6.693
33.0,246.0,6.694
42.0,42.0,6.695
59.0,-228.0,6.696
81.0,-393.0,6.697
108.0,-339.0,6.698
110.0,-109.0,6.699
70.0,179.0,6.7
15.0,437.0,6.701
-15.0,553.0,6.702
-14.0,423.0,6.703
-14.0,178.0,6.704
-34.0,96.0,6.705
-55.0,219.0,6.706
-48.0,293.0,6.707
-18.0,160.0,6.708
6.0,-23.0,6.709
15.0,-67.0,6.71
15.0,-10.0,6.711
25.0,27.0,6.712
48.0,9.0,6.713
63.0,-57.0,6.714
56.0,-103.0,6.715
30.0,69.0,6.716
9.0,513.0,6.717
-4.0,967.0,6.718
-17.0,928.0,6.719
-33.0,343.0,6.72
-33.0,-267.0,6.721
-13.0,-474.0,6.722
3.0,-420.0,6.723
0.0,-465.0,6.724
-9.0,-655.0,6.725
-5.0,-787.0,6.726
17.0,-766.0,6.727
38.0,-708.0,6.728
45.0,-757.0,6.729
41.0,-914.0,6.73
32.0,-1026.0,6.731
15.0,-926.0,6.732
-11.0,-620.0,6.733
-35.0,-284.0,6.734
-46.0,-17.0,6.735
-38.0,271.0,6.736
-22.0,614.0,6.737
-4.0,901.0,6.738
12.0,962.0,6.739
18.0,830.0,6.74
10.0,676.0,6.741
-12.0,568.0,6.742
-31.0,441.0,6.743
-38.0,307.0,6.744
-36.0,258.0,6.745
-39.0,290.0,6.746
-41.0,269.0,6.747
-34.0,125.0,6.748
-27.0,-36.0,6.749
-34.0,-68.0,6.75
-41.0,37.0,6.751
-27.0,150.0,6.752
11.0,209.0,6.753
45.0,342.0,6.754
56.0,676.0,6.755
56.0,1019.0,6.756
65.0,962.0,6.757
75.0,297.0,6.758
77.0,-561.0,6.759
72.0,-1036.0,6.76
70.0,-1058.0,6.761
68.0,-1000.0,6.762
60.0,-1033.0,6.763
55.0,-949.0,6.764
60.0,-618.0,6.765
60.0,-221.0,6.766
37.0,36.0,6.767
-1.0,139.0,6.768
-34.0,129.0,6.769
-54.0,68.0,6.77
-64.0,112.0,6.771
-59.0,371.0,6.772
-39.0,710.0,6.773
-21.0,870.0,6.774
-28.0,766.0,6.775
-49.0,515.0,6.776
-58.0,274.0,6.777
-54.0,116.0,6.778
-46.0,40.0,6.779
-44.0,-57.0,6.78
-33.0,-213.0,6.781
-18.0,-330.0,6.782
-6.0,-328.0,6.783
-3.0,-324.0,6.784
-4.0,-317.0,6.785
-9.0,-310.0,6.786
-31.0,-308.0,6.787
-54.0,-304.0,6.788
-52.0,-294.0,6.789
-25.0,-242.0,6.79
8.0,-63.0,6.791
48.0,73.0,6.792
102.0,82.0,6.793
150.0,100.0,6.794
158.0,148.0,6.795
124.0,174.0,6.796
83.0,135.0,6.797
52.0,63.0,6.798
22.0,-94.0,6.799
-13.0,-203.0,6.8
-38.0,-275.0,6.801
-35.0,-274.0,6.802
-15.0,-158.0,6.803
2.0,12.0,6.804
7.0,132.0,6.805
3.0,193.0,6.806
-8.0,268.0,6.807
-23.0,362.0,6.808
-32.0,415.0,6.809
-27.0,402.0,6.81
-15.0,335.0,6.811
-9.0,198.0,6.812
-11.0,-5.0,6.813
-7.0,-207.0,6.814
8.0,-328.0,6.815
28.0,-379.0,6.816
35.0,-403.0,6.817
13.0,-410.0,6.818
-27.0,-357.0,6.819
-62.0,-249.0,6.82
-80.0,-136.0,6.821
-80.0,-38.0,6.822
-67.0,61.0,6.823
-42.0,159.0,6.824
-15.0,231.0,6.825
0.0,257.0,6.826
1.0,262.0,6.827
3.0,263.0,6.828
16.0,260.0,6.829
28.0,242.0,6.83
24.0,210.0,6.831
14.0,169.0,6.832
11.0,124.0,6.833
15.0,88.0,6.834
10.0,67.0,6.835
-3.0,45.0,6.836
-12.0,14.0,6.837
-17.0,-17.0,6.838
-15.0,-19.0,6.839
-7.0,6.0,6.84
9.0,24.0,6.841
29.0,13.0,6.842
43.0,-7.0,6.843
48.0,-19.0,6.844
52.0,-25.0,6.845
56.0,-37.0,6.846
62.0,-58.0,6.847
63.0,-79.0,6.848
59.0,-83.0,6.849
47.0,-60.0,6.85
32.0,-29.0,6.851
18.0,-15.0,6.852
3.0,-27.0,6.853
-13.0,-44.0,6.854
-26.0,-45.0,6.855
-35.0,-35.0,6.856
-38.0,-33.0,6.857
-49.0,-43.0,6.858
-59.0,-52.0,6.859
-67.0,-53.0,6.86
-68.0,-53.0,6.861
-58.0,-51.0,6.862
-36.0,-48.0,6.863
-14.0,-45.0,6.864
0.0,-40.0,6.865
3.0,-35.0,6.866
7.0,-31.0,6.867
17.0,-30.0,6.868
28.0,-28.0,6.869
34.0,-25.0,6.87
39.0,-20.0,6.871
44.0,-20.0,6.872
48.0,-25.0,6.873
46.0,-29.0,6.874
39.0,-29.0,6.875
27.0,-30.0,6.876
19.0,-29.0,6.877
15.0,-30.0,6.878
15.0,-25.0,6.879
13.0,-15.0,6.88
3.0,-8.0,6.881
-4.0,-4.0,6.882
-3.0,-2.0,6.883
-2.0,3.0,6.884
-3.0,9.0,6.885
-5.0,12.0,6.886
-7.0,10.0,6.887
-10.0,5.0,6.888
-10.0,1.0,6.889
-10.0,0.0,6.89
-7.0,5.0,6.891
-3.0,17.0,6.892
0.0,29.0,6.893
1.0,34.0,6.894
0.0,30.0,6.895
-1.0,23.0,6.896
4.0,16.0,6.897
7.0,8.0,6.898
2.0,0.0,6.899
-3.0,-1.0,6.9
-2.0,-3.0,6.901
0.0,-5.0,6.902
1.0,-8.0,6.903
3.0,-5.0,6.904
6.0,6.0,6.905
6.0,15.0,6.906
3.0,17.0,6.907
3.0,14.0,6.908
8.0,14.0,6.909
14.0,19.0,6.91
17.0,20.0,6.911
19.0,18.0,6.912
20.0,16.0,6.913
17.0,19.0,6.914
13.0,22.0,6.915
8.0,22.0,6.916
6.0,21.0,6.917
6.0,19.0,6.918
10.0,16.0,6.919
10.0,12.0,6.92
2.0,6.0,6.921
-7.0,5.0,6.922
-7.0,8.0,6.923
1.0,12.0,6.924
2.0,14.0,6.925
-8.0,14.0,6.926
-18.0,12.0,6.927
-15.0,9.0,6.928
-8.0,5.0,6.929
-14.0,3.0,6.93
-30.0,1.0,6.931
-44.0,0.0,6.932
-52.0,4.0,6.933
-59.0,13.0,6.934
-63.0,20.0,6.935
-62.0,21.0,6.936
-55.0,15.0,6.937
-51.0,2.0,6.938
-51.0,-7.0,6.939
-53.0,-15.0,6.94
-57.0,-16.0,6.941
-58.0,-18.0,6.942
-48.0,-20.0,6.943
-29.0,-22.0,6.944
-14.0,-17.0,6.945
-8.0,-12.0,6.946
-7.0,-9.0,6.947
-7.0,-6.0,6.948
-17.0,0.0,6.949
-30.0,3.0,6.95
-32.0,1.0,6.951
-18.0,-3.0,6.952
-9.0,-19.0,6.953
-23.0,-32.0,6.954
-42.0,-38.0,6.955
-34.0,-42.0,6.956
-1.0,-37.0,6.957
28.0,-30.0,6.958
39.0,-17.0,6.959
51.0,-10.0,6.96
65.0,-14.0,6.961
78.0,-20.0,6.962
88.0,-19.0,6.963
93.0,-6.0,6.964
82.0,7.0,6.965
70.0,13.0,6.966
60.0,10.0,6.967
54.0,5.0,6.968
58.0,6.0,6.969
63.0,10.0,6.97
75.0,9.0,6.971
88.0,6.0,6.972
105.0,4.0,6.973
114.0,4.0,6.974
100.0,-2.0,6.975
82.0,-10.0,6.976
54.0,-9.0,6.977
26.0,-2.0,6.978
-5.0,1.0,6.979
-33.0,-1.0,6.98
-41.0,-5.0,6.981
-29.0,-2.0,6.982
1.0,0.0,6.983
45.0,0.0,6.984
85.0,4.0,6.985
93.0,10.0,6.986
59.0,5.0,6.987
16.0,-6.0,6.988
0.0,-8.0,6.989
-9.0,2.0,6.99
-38.0,8.0,6.991
-68.0,0.0,6.992
-52.0,-8.0,6.993
0.0,-8.0,6.994
33.0,-7.0,6.995
38.0,-11.0,6.996
46.0,-15.0,6.997
63.0,-7.0,6.998
60.0,-7.0,6.999
28.0,-8.0,7.0
-3.0,-8.0,7.001
-20.0,-7.0,7.002
-37.0,-9.0,7.003
-58.0,-9.0,7.004
-67.0,-4.0,7.005
-53.0,-1.0,7.006
-33.0,3.0,7.007
-20.0,5.0,7.008
-9.0,3.0,7.009
-4.0,1.0,7.01
-13.0,-2.0,7.011
-31.0,-3.0,7.012
-38.0,-2.0,7.013
-26.0,-1.0,7.014
-9.0,-4.0,7.015
-2.0,-8.0,7.016
0.0,-16.0,7.017
0.0,-9.0,7.018
0.0,-9.0,7.019
-7.0,-10.0,7.02
-20.0,-10.0,7.021
-31.0,-9.0,7.022
-34.0,-11.0,7.023
-32.0,-12.0,7.024
-36.0,-5.0,7.025
-51.0,1.0,7.026
-66.0,6.0,7.027
-60.0,9.0,7.028
-33.0,7.0,7.029
-3.0,4.0,7.03
20.0,0.0,7.031
39.0,-2.0,7.032
54.0,0.0,7.033
54.0,1.0,7.034
44.0,-3.0,7.035
41.0,-10.0,7.036
49.0,-22.0,7.037
45.0,-27.0,7.038
28.0,-9.0,7.039
12.0,4.0,7.04
-1.0,5.0,7.041
-10.0,12.0,7.042
-4.0,25.0,7.043
-1.0,33.0,7.044
-11.0,44.0,7.045
-23.0,77.0,7.046
-40.0,116.0,7.047
-52.0,113.0,7.048
-44.0,54.0,7.049
-29.0,-15.0,7.05
6.0,-36.0,7.051
39.0,-17.0,7.052
66.0,-7.0,7.053
77.0,-24.0,7.054
35.0,-49.0,7.055
-3.0,-62.0,7.056
-32.0,-61.0,7.057
-64.0,-52.0,7.058
-101.0,-35.0,7.059
-102.0,-26.0,7.06
-59.0,-39.0,7.061
-16.0,-49.0,7.062
-4.0,-10.0,7.063
0.0,87.0,7.064
20.0,197.0,7.065
41.0,245.0,7.066
37.0,215.0,7.067
9.0,166.0,7.068
-14.0,152.0,7.069
-14.0,135.0,7.07
8.0,25.0,7.071
39.0,-168.0,7.072
59.0,-322.0,7.073
60.0,-355.0,7.074
54.0,-317.0,7.075
51.0,-273.0,7.076
46.0,-207.0,7.077
24.0,-95.0,7.078
0.0,7.0,7.079
-11.0,28.0,7.08
-10.0,-12.0,7.081
-8.0,-27.0,7.082
-1.0,0.0,7.083
16.0,36.0,7.084
24.0,70.0,7.085
2.0,112.0,7.086
-31.0,134.0,7.087
-49.0,113.0,7.088
-51.0,74.0,7.089
-60.0,56.0,7.09
-80.0,37.0,7.091
-90.0,-26.0,7.092
-76.0,-94.0,7.093
-45.0,-63.0,7.094
-13.0,97.0,7.095
8.0,303.0,7.096
22.0,421.0,7.097
29.0,370.0,7.098
38.0,148.0,7.099
49.0,-140.0,7.1
63.0,-347.0,7.101
76.0,-401.0,7.102
90.0,-358.0,7.103
94.0,-282.0,7.104
80.0,-167.0,7.105
56.0,-7.0,7.106
46.0,139.0,7.107
48.0,215.0,7.108
45.0,251.0,7.109
21.0,298.0,7.11
-11.0,349.0,7.111
-22.0,374.0,7.112
-11.0,379.0,7.113
5.0,354.0,7.114
10.0,231.0,7.115
1.0,-20.0,7.116
-10.0,-293.0,7.117
-21.0,-499.0,7.118
-27.0,-596.0,7.119
-38.0,-614.0,7.12
-53.0,-548.0,7.121
-56.0,-374.0,7.122
-37.0,-161.0,7.123
-12.0,-42.0,7.124
-4.0,-53.0,7.125
-16.0,-99.0,7.126
-29.0,-78.0,7.127
-31.0,3.0,7.128
-34.0,75.0,7.129
-35.0,106.0,7.13
-22.0,144.0,7.131
-4.0,238.0,7.132
3.0,353.0,7.133
-2.0,390.0,7.134
-1.0,320.0,7.135
8.0,257.0,7.136
19.0,297.0,7.137
19.0,405.0,7.138
14.0,487.0,7.139
6.0,510.0,7.14
-7.0,466.0,7.141
-14.0,282.0,7.142
0.0,-86.0,7.143
15.0,-497.0,7.144
31.0,-757.0,7.145
42.0,-841.0,7.146
39.0,-838.0,7.147
36.0,-734.0,7.148
37.0,-489.0,7.149
40.0,-214.0,7.15
50.0,-57.0,7.151
59.0,18.0,7.152
65.0,114.0,7.153
65.0,153.0,7.154
46.0,13.0,7.155
23.0,-171.0,7.156
-7.0,-169.0,7.157
-34.0,-18.0,7.158
-43.0,21.0,7.159
-48.0,-113.0,7.16
-68.0,-212.0,7.161
-92.0,-150.0,7.162
-91.0,-44.0,7.163
-61.0,35.0,7.164
-33.0,149.0,7.165
-30.0,253.0,7.166
-42.0,215.0,7.167
-37.0,85.0,7.168
-14.0,66.0,7.169
5.0,181.0,7.17
7.0,258.0,7.171
-6.0,253.0,7.172
-19.0,325.0,7.173
-18.0,492.0,7.174
1.0,539.0,7.175
40.0,355.0,7.176
91.0,132.0,7.177
50.0,55.0,7.178
57.0,100.0,7.179
53.0,86.0,7.18
6.0,-63.0,7.181
-35.0,-222.0,7.182
-69.0,-224.0,7.183
-100.0,-17.0,7.184
-122.0,266.0,7.185
-133.0,355.0,7.186
-112.0,86.0,7.187
-85.0,-396.0,7.188
-42.0,-730.0,7.189
-6.0,-721.0,7.19
8.0,-518.0,7.191
22.0,-372.0,7.192
31.0,-327.0,7.193
42.0,-247.0,7.194
62.0,-74.0,7.195
81.0,95.0,7.196
91.0,176.0,7.197
44.0,189.0,7.198
51.0,194.0,7.199
47.0,218.0,7.2
5.0,282.0,7.201
-33.0,383.0,7.202
-63.0,448.0,7.203
-91.0,389.0,7.204
-111.0,258.0,7.205
-121.0,216.0,7.206
-102.0,340.0,7.207
-78.0,505.0,7.208
-39.0,539.0,7.209
-6.0,408.0,7.21
7.0,173.0,7.211
19.0,-120.0,7.212
27.0,-431.0,7.213
37.0,-655.0,7.214
55.0,-700.0,7.215
72.0,-610.0,7.216
81.0,-515.0,7.217
90.0,-445.0,7.218
91.0,-320.0,7.219
76.0,-109.0,7.22
52.0,86.0,7.221
47.0,178.0,7.222
75.0,202.0,7.223
93.0,231.0,7.224
62.0,240.0,7.225
3.0,154.0,7.226
-37.0,-26.0,7.227
-51.0,-224.0,7.228
-62.0,-368.0,7.229
-69.0,-420.0,7.23
-61.0,-371.0,7.231
-45.0,-250.0,7.232
-39.0,-121.0,7.233
-30.0,-44.0,7.234
-9.0,-80.0,7.235
5.0,-237.0,7.236
-2.0,-391.0,7.237
-17.0,-358.0,7.238
-14.0,-86.0,7.239
-4.0,223.0,7.24
-9.0,334.0,7.241
-22.0,277.0,7.242
-20.0,218.0,7.243
-4.0,199.0,7.244
10.0,146.0,7.245
21.0,63.0,7.246
35.0,32.0,7.247
43.0,63.0,7.248
29.0,98.0,7.249
10.0,132.0,7.25
7.0,200.0,7.251
13.0,280.0,7.252
6.0,314.0,7.253
-13.0,310.0,7.254
-25.0,329.0,7.255
-24.0,375.0,7.256
-20.0,393.0,7.257
-19.0,331.0,7.258
-10.0,215.0,7.259
8.0,99.0,7.26
26.0,-13.0,7.261
36.0,-126.0,7.262
41.0,-240.0,7.263
42.0,-352.0,7.264
36.0,-457.0,7.265
25.0,-513.0,7.266
21.0,-421.0,7.267
27.0,-294.0,7.268
39.0,-64.0,7.269
39.0,113.0,7.27
28.0,132.0,7.271
13.0,141.0,7.272
1.0,116.0,7.273
-12.0,91.0,7.274
-25.0,65.0,7.275
-17.0,34.0,7.276
13.0,-14.0,7.277
47.0,-48.0,7.278
49.0,-51.0,7.279
16.0,-91.0,7.28
-22.0,-86.0,7.281
-41.0,42.0,7.282
-40.0,193.0,7.283
-39.0,213.0,7.284
-48.0,115.0,7.285
-62.0,44.0,7.286
-70.0,58.0,7.287
-64.0,80.0,7.288
-45.0,47.0,7.289
-24.0,-19.0,7.29
-14.0,-76.0,7.291
-18.0,-130.0,7.292
-19.0,-182.0,7.293
-7.0,-190.0,7.294
12.0,-132.0,7.295
16.0,-48.0,7.296
5.0,5.0,7.297
-2.0,19.0,7.298
4.0,16.0,7.299
7.0,1.0,7.3
-2.0,-34.0,7.301
-10.0,-64.0,7.302
6.0,-51.0,7.303
38.0,7.0,7.304
60.0,63.0,7.305
63.0,77.0,7.306
58.0,58.0,7.307
50.0,38.0,7.308
32.0,29.0,7.309
2.0,23.0,7.31
-24.0,7.0,7.311
-35.0,-17.0,7.312
-30.0,-43.0,7.313
-13.0,-59.0,7.314
17.0,-55.0,7.315
46.0,-31.0,7.316
56.0,2.0,7.317
42.0,27.0,7.318
25.0,36.0,7.319
14.0,37.0,7.32
7.0,36.0,7.321
1.0,44.0,7.322
1.0,50.0,7.323
7.0,44.0,7.324
8.0,26.0,7.325
-5.0,8.0,7.326
-18.0,3.0,7.327
-24.0,10.0,7.328
-24.0,19.0,7.329
-25.0,20.0,7.33
-23.0,13.0,7.331
-18.0,2.0,7.332
-12.0,-4.0,7.333
-7.0,-9.0,7.334
-4.0,-15.0,7.335
2.0,-20.0,7.336
13.0,-19.0,7.337
18.0,-16.0,7.338
15.0,-19.0,7.339
3.0,-24.0,7.34
-7.0,-36.0,7.341
-11.0,-43.0,7.342
-1.0,-35.0,7.343
17.0,-29.0,7.344
29.0,-28.0,7.345
31.0,-26.0,7.346
20.0,-23.0,7.347
7.0,-21.0,7.348
0.0,-21.0,7.349
0.0,-21.0,7.35
1.0,-15.0,7.351
1.0,-11.0,7.352
3.0,-11.0,7.353
11.0,-12.0,7.354
14.0,-13.0,7.355
8.0,-14.0,7.356
0.0,-10.0,7.357
0.0,-7.0,7.358
4.0,-8.0,7.359
2.0,-11.0,7.36
-5.0,-12.0,7.361
-8.0,-9.0,7.362
2.0,-8.0,7.363
15.0,-6.0,7.364
18.0,0.0,7.365
14.0,7.0,7.366
10.0,10.0,7.367
10.0,8.0,7.368
12.0,10.0,7.369
9.0,14.0,7.37
5.0,17.0,7.371
2.0,15.0,7.372
2.0,13.0,7.373
4.0,17.0,7.374
5.0,22.0,7.375
5.0,23.0,7.376
6.0,24.0,7.377
5.0,23.0,7.378
4.0,21.0,7.379
1.0,19.0,7.38
-2.0,16.0,7.381
0.0,13.0,7.382
7.0,15.0,7.383
15.0,18.0,7.384
16.0,18.0,7.385
9.0,19.0,7.386
2.0,18.0,7.387
0.0,17.0,7.388
0.0,17.0,7.389
2.0,19.0,7.39
4.0,24.0,7.391
10.0,28.0,7.392
13.0,29.0,7.393
6.0,28.0,7.394
-5.0,17.0,7.395
-14.0,7.0,7.396
-15.0,5.0,7.397
-15.0,5.0,7.398
-21.0,11.0,7.399
-32.0,11.0,7.4
-40.0,4.0,7.401
-38.0,0.0,7.402
-29.0,-4.0,7.403
-27.0,-10.0,7.404
-42.0,-13.0,7.405
-67.0,-14.0,7.406
-83.0,-15.0,7.407
-81.0,-17.0,7.408
-75.0,-16.0,7.409
-74.0,-16.0,7.41
-75.0,-19.0,7.411
-78.0,-20.0,7.412
-86.0,-12.0,7.413
-90.0,-3.0,7.414
-74.0,-5.0,7.415
-39.0,-21.0,7.416
-15.0,-36.0,7.417
-19.0,-39.0,7.418
-24.0,-31.0,7.419
-15.0,-24.0,7.42
5.0,-23.0,7.421
17.0,-24.0,7.422
20.0,-23.0,7.423
27.0,-19.0,7.424
35.0,-15.0,7.425
33.0,-11.0,7.426
32.0,-8.0,7.427
44.0,-2.0,7.428
63.0,1.0,7.429
80.0,5.0,7.43
88.0,10.0,7.431
91.0,10.0,7.432
91.0,8.0,7.433
91.0,3.0,7.434
93.0,0.0,7.435
94.0,1.0,7.436
94.0,2.0,7.437
92.0,-2.0,7.438
94.0,-8.0,7.439
90.0,-11.0,7.44
79.0,-9.0,7.441
71.0,0.0,7.442
77.0,10.0,7.443
78.0,13.0,7.444
61.0,13.0,7.445
27.0,11.0,7.446
-3.0,6.0,7.447
-15.0,-4.0,7.448
-10.0,-7.0,7.449
-1.0,-2.0,7.45
-1.0,5.0,7.451
-11.0,8.0,7.452
-17.0,0.0,7.453
-7.0,-7.0,7.454
5.0,-9.0,7.455
2.0,-9.0,7.456
-9.0,-7.0,7.457
-8.0,-6.0,7.458
13.0,-3.0,7.459
35.0,-2.0,7.46
41.0,-6.0,7.461
35.0,-9.0,7.462
27.0,-7.0,7.463
13.0,-5.0,7.464
-3.0,-5.0,7.465
-6.0,-5.0,7.466
0.0,-3.0,7.467
-4.0,0.0,7.468
-29.0,1.0,7.469
-46.0,4.0,7.47
-34.0,5.0,7.471
-9.0,5.0,7.472
8.0,0.0,7.473
11.0,-4.0,7.474
3.0,-2.0,7.475
-9.0,-1.0,7.476
-20.0,-1.0,7.477
-13.0,-2.0,7.478
0.0,-2.0,7.479
-1.0,-2.0,7.48
-21.0,-8.0,7.481
-29.0,-9.0,7.482
-11.0,-3.0,7.483
12.0,2.0,7.484
16.0,5.0,7.485
10.0,3.0,7.486
3.0,0.0,7.487
-3.0,0.0,7.488
-19.0,0.0,7.489
