Deltoid,Bicep,Time
11.0,12.0,0.0
19.0,18.0,0.001
18.0,17.0,0.002
9.0,3.0,0.003
-6.0,-7.0,0.004
-31.0,-4.0,0.005
-55.0,5.0,0.006
-52.0,5.0,0.007
-10.0,0.0,0.008
44.0,-1.0,0.009
72.0,0.0,0.01
68.0,-6.0,0.011
50.0,-12.0,0.012
32.0,-7.0,0.013
14.0,7.0,0.014
2.0,11.0,0.015
8.0,-1.0,0.016
22.0,-16.0,0.017
24.0,-18.0,0.018
6.0,-6.0,0.019
-19.0,6.0,0.02
-33.0,6.0,0.021
-36.0,0.0,0.022
-32.0,-4.0,0.023
-23.0,-3.0,0.024
-12.0,0.0,0.025
0.0,3.0,0.026
8.0,0.0,0.027
6.0,-8.0,0.028
1.0,-16.0,0.029
6.0,-15.0,0.03
21.0,-8.0,0.031
28.0,-3.0,0.032
16.0,-1.0,0.033
2.0,0.0,0.034
3.0,3.0,0.035
13.0,5.0,0.036
13.0,6.0,0.037
3.0,6.0,0.038
0.0,9.0,0.039
0.0,8.0,0.04
-4.0,-2.0,0.041
-7.0,-10.0,0.042
1.0,-9.0,0.043
14.0,1.0,0.044
8.0,10.0,0.045
-10.0,9.0,0.046
-16.0,2.0,0.047
-9.0,-2.0,0.048
-3.0,1.0,0.049
-7.0,5.0,0.05
-9.0,6.0,0.051
-2.0,1.0,0.052
4.0,-5.0,0.053
3.0,-7.0,0.054
0.0,-7.0,0.055
1.0,-9.0,0.056
0.0,-8.0,0.057
-9.0,-9.0,0.058
-17.0,-4.0,0.059
-12.0,0.0,0.06
-1.0,-4.0,0.061
9.0,-7.0,0.062
18.0,-7.0,0.063
27.0,-1.0,0.064
31.0,4.0,0.065
25.0,7.0,0.066
14.0,10.0,0.067
8.0,7.0,0.068
3.0,0.0,0.069
-5.0,-5.0,0.07
-11.0,-3.0,0.071
-3.0,-1.0,0.072
14.0,-1.0,0.073
24.0,-3.0,0.074
16.0,-2.0,0.075
-11.0,-2.0,0.076
-38.0,-3.0,0.077
-52.0,-6.0,0.078
-38.0,-7.0,0.079
-11.0,-8.0,0.08
10.0,-11.0,0.081
16.0,-8.0,0.082
18.0,6.0,0.083
26.0,23.0,0.084
33.0,28.0,0.085
32.0,22.0,0.086
23.0,13.0,0.087
7.0,4.0,0.088
-9.0,-7.0,0.089
-15.0,-17.0,0.09
-4.0,-18.0,0.091
11.0,-12.0,0.092
16.0,-4.0,0.093
6.0,0.0,0.094
-8.0,-3.0,0.095
-21.0,-5.0,0.096
-31.0,-2.0,0.097
-28.0,6.0,0.098
-6.0,16.0,0.099
20.0,22.0,0.1
37.0,16.0,0.101
43.0,10.0,0.102
49.0,3.0,0.103
44.0,-4.0,0.104
25.0,-11.0,0.105
7.0,-12.0,0.106
6.0,-6.0,0.107
14.0,-5.0,0.108
7.0,-7.0,0.109
-10.0,-9.0,0.11
-13.0,-6.0,0.111
-6.0,-3.0,0.112
-8.0,-4.0,0.113
-15.0,-3.0,0.114
-12.0,-1.0,0.115
-3.0,-5.0,0.116
-2.0,-8.0,0.117
-10.0,-9.0,0.118
-11.0,-3.0,0.119
-6.0,-2.0,0.12
-6.0,-8.0,0.121
-11.0,-5.0,0.122
-7.0,7.0,0.123
4.0,13.0,0.124
7.0,7.0,0.125
-2.0,0.0,0.126
-6.0,1.0,0.127
0.0,4.0,0.128
6.0,2.0,0.129
2.0,-1.0,0.13
0.0,-1.0,0.131
2.0,-1.0,0.132
3.0,0.0,0.133
0.0,0.0,0.134
-1.0,2.0,0.135
0.0,2.0,0.136
3.0,0.0,0.137
3.0,-3.0,0.138
5.0,-3.0,0.139
5.0,1.0,0.14
1.0,3.0,0.141
-2.0,4.0,0.142
2.0,3.0,0.143
12.0,3.0,0.144
13.0,8.0,0.145
2.0,11.0,0.146
-4.0,6.0,0.147
-2.0,-5.0,0.148
0.0,-10.0,0.149
-5.0,-7.0,0.15
-13.0,-7.0,0.151
-11.0,-10.0,0.152
-4.0,-8.0,0.153
5.0,-3.0,0.154
15.0,-2.0,0.155
23.0,-5.0,0.156
26.0,-3.0,0.157
22.0,1.0,0.158
11.0,-1.0,0.159
-1.0,-5.0,0.16
-6.0,-5.0,0.161
-4.0,0.0,0.162
1.0,1.0,0.163
2.0,-1.0,0.164
0.0,-1.0,0.165
-1.0,2.0,0.166
1.0,1.0,0.167
3.0,0.0,0.168
7.0,3.0,0.169
13.0,5.0,0.17
14.0,0.0,0.171
-1.0,-8.0,0.172
-22.0,-7.0,0.173
-26.0,0.0,0.174
-11.0,3.0,0.175
0.0,2.0,0.176
-6.0,3.0,0.177
-18.0,0.0,0.178
-19.0,-3.0,0.179
-18.0,-1.0,0.18
-18.0,5.0,0.181
-6.0,12.0,0.182
29.0,8.0,0.183
66.0,0.0,0.184
72.0,2.0,0.185
57.0,8.0,0.186
46.0,3.0,0.187
36.0,-6.0,0.188
16.0,-6.0,0.189
-4.0,0.0,0.19
-6.0,0.0,0.191
-1.0,-9.0,0.192
-8.0,-13.0,0.193
-18.0,-6.0,0.194
-13.0,0.0,0.195
0.0,-2.0,0.196
6.0,-4.0,0.197
0.0,-5.0,0.198
-5.0,-2.0,0.199
-6.0,-4.0,0.2
-8.0,-10.0,0.201
-10.0,-9.0,0.202
-6.0,-3.0,0.203
-1.0,2.0,0.204
-2.0,4.0,0.205
-6.0,7.0,0.206
-9.0,8.0,0.207
-10.0,3.0,0.208
-11.0,-5.0,0.209
-5.0,-6.0,0.21
6.0,-1.0,0.211
12.0,3.0,0.212
8.0,3.0,0.213
-1.0,1.0,0.214
-3.0,0.0,0.215
-2.0,-5.0,0.216
1.0,-10.0,0.217
2.0,-11.0,0.218
3.0,-5.0,0.219
0.0,3.0,0.22
-4.0,1.0,0.221
-3.0,0.0,0.222
0.0,-1.0,0.223
-4.0,-5.0,0.224
-18.0,-7.0,0.225
-24.0,-3.0,0.226
-11.0,3.0,0.227
12.0,2.0,0.228
25.0,-3.0,0.229
24.0,-4.0,0.23
20.0,-1.0,0.231
19.0,-3.0,0.232
18.0,-6.0,0.233
15.0,-7.0,0.234
13.0,-1.0,0.235
11.0,2.0,0.236
5.0,5.0,0.237
-3.0,4.0,0.238
-5.0,2.0,0.239
-3.0,-1.0,0.24
-3.0,-4.0,0.241
-7.0,0.0,0.242
-7.0,2.0,0.243
-1.0,-1.0,0.244
2.0,-3.0,0.245
-1.0,0.0,0.246
-6.0,5.0,0.247
-11.0,5.0,0.248
-11.0,7.0,0.249
-7.0,11.0,0.25
8.0,10.0,0.251
30.0,1.0,0.252
43.0,-3.0,0.253
37.0,-2.0,0.254
21.0,-3.0,0.255
14.0,-5.0,0.256
19.0,3.0,0.257
19.0,17.0,0.258
13.0,21.0,0.259
3.0,7.0,0.26
-1.0,-9.0,0.261
-2.0,-9.0,0.262
-6.0,-4.0,0.263
-15.0,-5.0,0.264
-24.0,-7.0,0.265
-24.0,0.0,0.266
-15.0,8.0,0.267
0.0,6.0,0.268
6.0,-3.0,0.269
3.0,-6.0,0.27
-3.0,-5.0,0.271
-7.0,-4.0,0.272
-7.0,-7.0,0.273
-7.0,-9.0,0.274
-6.0,-4.0,0.275
-5.0,3.0,0.276
-2.0,9.0,0.277
0.0,5.0,0.278
8.0,0.0,0.279
14.0,-2.0,0.28
15.0,-5.0,0.281
12.0,-5.0,0.282
10.0,-6.0,0.283
8.0,-1.0,0.284
1.0,8.0,0.285
-6.0,12.0,0.286
-8.0,9.0,0.287
0.0,0.0,0.288
6.0,-6.0,0.289
3.0,-5.0,0.29
-2.0,-4.0,0.291
1.0,-5.0,0.292
7.0,-5.0,0.293
8.0,-3.0,0.294
5.0,0.0,0.295
7.0,1.0,0.296
12.0,2.0,0.297
14.0,5.0,0.298
9.0,5.0,0.299
1.0,0.0,0.3
-4.0,-7.0,0.301
-7.0,-6.0,0.302
-5.0,-2.0,0.303
2.0,-1.0,0.304
7.0,0.0,0.305
5.0,5.0,0.306
1.0,6.0,0.307
4.0,-1.0,0.308
7.0,-10.0,0.309
4.0,-11.0,0.31
3.0,-3.0,0.311
6.0,2.0,0.312
10.0,1.0,0.313
8.0,-4.0,0.314
0.0,-7.0,0.315
-4.0,-2.0,0.316
-7.0,7.0,0.317
-13.0,10.0,0.318
-14.0,4.0,0.319
-4.0,-2.0,0.32
12.0,-6.0,0.321
21.0,-5.0,0.322
22.0,-3.0,0.323
21.0,-2.0,0.324
15.0,-1.0,0.325
5.0,0.0,0.326
0.0,-3.0,0.327
5.0,-7.0,0.328
15.0,-7.0,0.329
10.0,-3.0,0.33
1.0,0.0,0.331
2.0,-2.0,0.332
9.0,-5.0,0.333
4.0,-5.0,0.334
-13.0,-3.0,0.335
-26.0,1.0,0.336
-26.0,7.0,0.337
-23.0,12.0,0.338
-20.0,12.0,0.339
-14.0,4.0,0.34
-1.0,-3.0,0.341
7.0,2.0,0.342
11.0,11.0,0.343
16.0,9.0,0.344
21.0,1.0,0.345
19.0,0.0,0.346
11.0,3.0,0.347
7.0,1.0,0.348
6.0,-5.0,0.349
0.0,-5.0,0.35
-4.0,1.0,0.351
1.0,2.0,0.352
13.0,-7.0,0.353
14.0,-12.0,0.354
5.0,-8.0,0.355
0.0,-7.0,0.356
3.0,-6.0,0.357
4.0,-5.0,0.358
0.0,-1.0,0.359
-3.0,0.0,0.36
-5.0,-5.0,0.361
-6.0,-3.0,0.362
-3.0,5.0,0.363
6.0,9.0,0.364
11.0,5.0,0.365
7.0,1.0,0.366
6.0,1.0,0.367
14.0,0.0,0.368
20.0,-6.0,0.369
15.0,-8.0,0.37
5.0,-5.0,0.371
4.0,-4.0,0.372
5.0,-5.0,0.373
-1.0,-3.0,0.374
-8.0,4.0,0.375
-4.0,11.0,0.376
6.0,11.0,0.377
9.0,9.0,0.378
5.0,5.0,0.379
-1.0,1.0,0.38
-5.0,-6.0,0.381
-10.0,-9.0,0.382
-13.0,-6.0,0.383
-10.0,-3.0,0.384
-5.0,0.0,0.385
-3.0,2.0,0.386
-2.0,3.0,0.387
-2.0,2.0,0.388
-7.0,-1.0,0.389
-13.0,-4.0,0.39
-10.0,-3.0,0.391
3.0,-1.0,0.392
15.0,2.0,0.393
15.0,2.0,0.394
12.0,1.0,0.395
14.0,-1.0,0.396
22.0,0.0,0.397
22.0,-2.0,0.398
20.0,-6.0,0.399
19.0,-9.0,0.4
15.0,-12.0,0.401
0.0,-8.0,0.402
-13.0,-4.0,0.403
-14.0,-1.0,0.404
-10.0,0.0,0.405
-15.0,2.0,0.406
-25.0,7.0,0.407
-25.0,8.0,0.408
-15.0,9.0,0.409
-5.0,6.0,0.41
-9.0,1.0,0.411
-19.0,-5.0,0.412
-17.0,-9.0,0.413
0.0,-7.0,0.414
24.0,-5.0,0.415
40.0,1.0,0.416
48.0,5.0,0.417
42.0,0.0,0.418
29.0,-5.0,0.419
14.0,-8.0,0.42
2.0,-4.0,0.421
-4.0,5.0,0.422
-13.0,10.0,0.423
-24.0,7.0,0.424
-31.0,0.0,0.425
-23.0,-5.0,0.426
-8.0,-6.0,0.427
0.0,-4.0,0.428
2.0,-2.0,0.429
10.0,-3.0,0.43
21.0,-6.0,0.431
22.0,-5.0,0.432
14.0,-1.0,0.433
7.0,1.0,0.434
14.0,1.0,0.435
19.0,-1.0,0.436
20.0,1.0,0.437
18.0,0.0,0.438
14.0,-5.0,0.439
2.0,-6.0,0.44
-12.0,-3.0,0.441
-17.0,7.0,0.442
-5.0,11.0,0.443
6.0,7.0,0.444
5.0,4.0,0.445
-1.0,5.0,0.446
-1.0,4.0,0.447
1.0,-2.0,0.448
-1.0,-7.0,0.449
-2.0,-6.0,0.45
3.0,-4.0,0.451
10.0,-4.0,0.452
11.0,-1.0,0.453
5.0,3.0,0.454
0.0,5.0,0.455
-4.0,-1.0,0.456
-9.0,-7.0,0.457
-12.0,-7.0,0.458
-6.0,-2.0,0.459
2.0,0.0,0.46
6.0,-6.0,0.461
6.0,-6.0,0.462
10.0,-2.0,0.463
13.0,3.0,0.464
8.0,7.0,0.465
0.0,12.0,0.466
-2.0,13.0,0.467
0.0,6.0,0.468
0.0,-2.0,0.469
-3.0,-2.0,0.47
-1.0,4.0,0.471
5.0,7.0,0.472
8.0,4.0,0.473
4.0,0.0,0.474
2.0,-1.0,0.475
4.0,0.0,0.476
5.0,-2.0,0.477
4.0,-5.0,0.478
6.0,-3.0,0.479
11.0,2.0,0.48
12.0,6.0,0.481
10.0,8.0,0.482
9.0,6.0,0.483
10.0,0.0,0.484
5.0,-3.0,0.485
-2.0,-2.0,0.486
-5.0,-3.0,0.487
-8.0,-5.0,0.488
-14.0,-6.0,0.489
-18.0,-2.0,0.49
-11.0,1.0,0.491
0.0,-2.0,0.492
7.0,-7.0,0.493
9.0,-8.0,0.494
12.0,-6.0,0.495
14.0,-3.0,0.496
11.0,3.0,0.497
4.0,6.0,0.498
-1.0,6.0,0.499
-3.0,4.0,0.5
-4.0,-2.0,0.501
-6.0,-2.0,0.502
-1.0,1.0,0.503
10.0,4.0,0.504
16.0,5.0,0.505
9.0,0.0,0.506
-2.0,-6.0,0.507
-5.0,-10.0,0.508
-4.0,-7.0,0.509
-7.0,-2.0,0.51
-12.0,-4.0,0.511
-11.0,-10.0,0.512
-8.0,-10.0,0.513
-8.0,-4.0,0.514
-7.0,0.0,0.515
-4.0,-3.0,0.516
1.0,-8.0,0.517
3.0,-7.0,0.518
6.0,0.0,0.519
9.0,5.0,0.52
14.0,5.0,0.521
19.0,4.0,0.522
25.0,2.0,0.523
30.0,-2.0,0.524
30.0,-2.0,0.525
23.0,0.0,0.526
13.0,0.0,0.527
3.0,-5.0,0.528
-4.0,-9.0,0.529
-4.0,-4.0,0.53
-1.0,5.0,0.531
0.0,8.0,0.532
-5.0,3.0,0.533
-7.0,-1.0,0.534
-5.0,2.0,0.535
-2.0,3.0,0.536
-1.0,2.0,0.537
-1.0,-2.0,0.538
2.0,0.0,0.539
-1.0,2.0,0.54
-9.0,-4.0,0.541
-16.0,-9.0,0.542
-8.0,-6.0,0.543
6.0,2.0,0.544
10.0,9.0,0.545
9.0,13.0,0.546
12.0,15.0,0.547
18.0,13.0,0.548
17.0,4.0,0.549
9.0,-5.0,0.55
3.0,-8.0,0.551
4.0,-7.0,0.552
5.0,-5.0,0.553
2.0,-1.0,0.554
-5.0,4.0,0.555
-10.0,2.0,0.556
-8.0,-8.0,0.557
-5.0,-13.0,0.558
-2.0,-7.0,0.559
-1.0,-2.0,0.56
-4.0,-2.0,0.561
-7.0,-2.0,0.562
-7.0,-3.0,0.563
-4.0,-4.0,0.564
-3.0,1.0,0.565
-3.0,6.0,0.566
1.0,5.0,0.567
7.0,3.0,0.568
8.0,1.0,0.569
6.0,0.0,0.57
5.0,2.0,0.571
2.0,4.0,0.572
-2.0,1.0,0.573
-7.0,-1.0,0.574
-3.0,-2.0,0.575
7.0,-4.0,0.576
12.0,-3.0,0.577
8.0,-1.0,0.578
8.0,3.0,0.579
13.0,5.0,0.58
13.0,-1.0,0.581
4.0,-7.0,0.582
0.0,-9.0,0.583
2.0,-5.0,0.584
0.0,3.0,0.585
-9.0,6.0,0.586
-10.0,2.0,0.587
2.0,-5.0,0.588
15.0,-7.0,0.589
14.0,-3.0,0.59
8.0,-3.0,0.591
12.0,-3.0,0.592
24.0,3.0,0.593
25.0,11.0,0.594
17.0,11.0,0.595
6.0,0.0,0.596
1.0,-9.0,0.597
-5.0,-14.0,0.598
-8.0,-10.0,0.599
-8.0,-1.0,0.6
-11.0,4.0,0.601
-13.0,7.0,0.602
-7.0,3.0,0.603
5.0,1.0,0.604
11.0,4.0,0.605
1.0,6.0,0.606
-10.0,2.0,0.607
-7.0,-3.0,0.608
0.0,-2.0,0.609
1.0,1.0,0.61
-1.0,0.0,0.611
2.0,-4.0,0.612
9.0,-2.0,0.613
12.0,1.0,0.614
12.0,0.0,0.615
14.0,-4.0,0.616
14.0,-4.0,0.617
6.0,-6.0,0.618
-2.0,-8.0,0.619
-6.0,-8.0,0.62
-8.0,0.0,0.621
-9.0,12.0,0.622
-2.0,12.0,0.623
11.0,2.0,0.624
17.0,-5.0,0.625
13.0,-1.0,0.626
3.0,3.0,0.627
-4.0,1.0,0.628
-13.0,-2.0,0.629
-23.0,-5.0,0.63
-24.0,-6.0,0.631
-12.0,-8.0,0.632
2.0,-8.0,0.633
9.0,-5.0,0.634
12.0,-3.0,0.635
16.0,-1.0,0.636
19.0,0.0,0.637
22.0,-1.0,0.638
27.0,0.0,0.639
30.0,0.0,0.64
25.0,-3.0,0.641
14.0,-6.0,0.642
6.0,-4.0,0.643
0.0,8.0,0.644
-13.0,25.0,0.645
-22.0,31.0,0.646
-14.0,20.0,0.647
1.0,2.0,0.648
0.0,-6.0,0.649
-14.0,-3.0,0.65
-16.0,-1.0,0.651
-6.0,-5.0,0.652
-2.0,-7.0,0.653
-4.0,-4.0,0.654
4.0,-2.0,0.655
16.0,-1.0,0.656
15.0,0.0,0.657
0.0,-1.0,0.658
-1.0,-1.0,0.659
4.0,-2.0,0.66
1.0,-5.0,0.661
-7.0,-7.0,0.662
-3.0,-8.0,0.663
14.0,-1.0,0.664
17.0,11.0,0.665
5.0,17.0,0.666
-4.0,10.0,0.667
2.0,-4.0,0.668
3.0,-11.0,0.669
-1.0,-8.0,0.67
-1.0,-2.0,0.671
9.0,3.0,0.672
12.0,3.0,0.673
5.0,-3.0,0.674
2.0,-11.0,0.675
7.0,-14.0,0.676
7.0,-5.0,0.677
-2.0,3.0,0.678
-12.0,7.0,0.679
-14.0,9.0,0.68
-10.0,6.0,0.681
-5.0,2.0,0.682
5.0,-1.0,0.683
17.0,-3.0,0.684
22.0,-1.0,0.685
18.0,0.0,0.686
12.0,-2.0,0.687
6.0,-4.0,0.688
4.0,-6.0,0.689
6.0,-8.0,0.69
10.0,-7.0,0.691
9.0,-6.0,0.692
2.0,-6.0,0.693
-6.0,-6.0,0.694
-8.0,-2.0,0.695
-4.0,2.0,0.696
-1.0,5.0,0.697
-4.0,7.0,0.698
-11.0,2.0,0.699
-17.0,-4.0,0.7
-19.0,-6.0,0.701
-16.0,-1.0,0.702
-7.0,7.0,0.703
5.0,9.0,0.704
21.0,9.0,0.705
34.0,9.0,0.706
41.0,7.0,0.707
39.0,-2.0,0.708
32.0,-11.0,0.709
23.0,-12.0,0.71
14.0,-3.0,0.711
2.0,2.0,0.712
-9.0,-3.0,0.713
-17.0,-8.0,0.714
-16.0,-5.0,0.715
-9.0,0.0,0.716
0.0,-1.0,0.717
5.0,-2.0,0.718
8.0,3.0,0.719
3.0,7.0,0.72
1.0,2.0,0.721
12.0,-2.0,0.722
25.0,-2.0,0.723
21.0,-1.0,0.724
-1.0,4.0,0.725
-21.0,9.0,0.726
-24.0,9.0,0.727
-22.0,8.0,0.728
-26.0,8.0,0.729
-31.0,5.0,0.73
-25.0,-1.0,0.731
-11.0,-7.0,0.732
-1.0,-8.0,0.733
0.0,-9.0,0.734
3.0,-5.0,0.735
8.0,-1.0,0.736
13.0,-1.0,0.737
11.0,0.0,0.738
8.0,-3.0,0.739
6.0,-6.0,0.74
2.0,-8.0,0.741
-1.0,-2.0,0.742
2.0,5.0,0.743
11.0,6.0,0.744
16.0,2.0,0.745
16.0,-2.0,0.746
12.0,-2.0,0.747
10.0,0.0,0.748
8.0,1.0,0.749
5.0,1.0,0.75
6.0,0.0,0.751
8.0,1.0,0.752
4.0,1.0,0.753
-3.0,-1.0,0.754
-5.0,-4.0,0.755
-2.0,-5.0,0.756
0.0,-2.0,0.757
-2.0,0.0,0.758
-1.0,-4.0,0.759
0.0,-9.0,0.76
-2.0,-13.0,0.761
-4.0,-9.0,0.762
0.0,0.0,0.763
11.0,6.0,0.764
15.0,9.0,0.765
15.0,7.0,0.766
18.0,3.0,0.767
22.0,1.0,0.768
19.0,4.0,0.769
8.0,7.0,0.77
-2.0,6.0,0.771
-5.0,0.0,0.772
-5.0,-5.0,0.773
-4.0,-7.0,0.774
-1.0,-7.0,0.775
1.0,-4.0,0.776
0.0,0.0,0.777
1.0,2.0,0.778
4.0,-1.0,0.779
3.0,-5.0,0.78
-1.0,-6.0,0.781
-3.0,-2.0,0.782
4.0,1.0,0.783
9.0,0.0,0.784
4.0,-1.0,0.785
0.0,1.0,0.786
-2.0,6.0,0.787
-2.0,7.0,0.788
-7.0,5.0,0.789
-11.0,1.0,0.79
-7.0,-4.0,0.791
-3.0,-9.0,0.792
-6.0,-8.0,0.793
-14.0,-5.0,0.794
-15.0,-4.0,0.795
-5.0,-3.0,0.796
10.0,0.0,0.797
24.0,1.0,0.798
42.0,0.0,0.799
53.0,-2.0,0.8
48.0,-3.0,0.801
29.0,4.0,0.802
10.0,7.0,0.803
-1.0,3.0,0.804
-14.0,-2.0,0.805
-32.0,0.0,0.806
-45.0,7.0,0.807
-42.0,9.0,0.808
-32.0,3.0,0.809
-20.0,-5.0,0.81
-4.0,-8.0,0.811
14.0,-9.0,0.812
27.0,-8.0,0.813
30.0,-8.0,0.814
31.0,-8.0,0.815
32.0,-5.0,0.816
24.0,0.0,0.817
10.0,0.0,0.818
0.0,-3.0,0.819
-2.0,-6.0,0.82
-6.0,-10.0,0.821
-12.0,-9.0,0.822
-9.0,-4.0,0.823
0.0,6.0,0.824
4.0,12.0,0.825
-3.0,8.0,0.826
-11.0,-1.0,0.827
-11.0,-4.0,0.828
-12.0,0.0,0.829
-11.0,4.0,0.83
-2.0,2.0,0.831
12.0,0.0,0.832
18.0,0.0,0.833
12.0,4.0,0.834
4.0,7.0,0.835
4.0,5.0,0.836
5.0,0.0,0.837
4.0,-6.0,0.838
9.0,-5.0,0.839
16.0,0.0,0.84
19.0,2.0,0.841
12.0,0.0,0.842
4.0,-1.0,0.843
0.0,0.0,0.844
-6.0,1.0,0.845
-16.0,0.0,0.846
-16.0,-2.0,0.847
-3.0,-3.0,0.848
5.0,-3.0,0.849
0.0,-7.0,0.85
-1.0,-9.0,0.851
11.0,-8.0,0.852
23.0,-2.0,0.853
18.0,3.0,0.854
7.0,4.0,0.855
1.0,0.0,0.856
-1.0,-4.0,0.857
-6.0,-8.0,0.858
-6.0,-2.0,0.859
-5.0,2.0,0.86
-1.0,4.0,0.861
3.0,5.0,0.862
7.0,2.0,0.863
10.0,0.0,0.864
10.0,3.0,0.865
7.0,6.0,0.866
1.0,6.0,0.867
-2.0,5.0,0.868
7.0,3.0,0.869
12.0,1.0,0.87
6.0,0.0,0.871
0.0,-3.0,0.872
-3.0,-7.0,0.873
-7.0,-10.0,0.874
-12.0,-9.0,0.875
-15.0,-7.0,0.876
-9.0,-4.0,0.877
-1.0,-1.0,0.878
12.0,-4.0,0.879
25.0,-3.0,0.88
31.0,-2.0,0.881
27.0,2.0,0.882
20.0,6.0,0.883
12.0,11.0,0.884
0.0,13.0,0.885
-12.0,13.0,0.886
-16.0,11.0,0.887
-7.0,9.0,0.888
1.0,7.0,0.889
-1.0,1.0,0.89
-6.0,-4.0,0.891
-9.0,-5.0,0.892
-6.0,-2.0,0.893
-3.0,-3.0,0.894
-2.0,-6.0,0.895
-1.0,-7.0,0.896
4.0,-1.0,0.897
7.0,2.0,0.898
5.0,0.0,0.899
-1.0,-5.0,0.9
-6.0,-12.0,0.901
-3.0,-9.0,0.902
7.0,-7.0,0.903
19.0,-6.0,0.904
26.0,-1.0,0.905
30.0,7.0,0.906
32.0,13.0,0.907
29.0,6.0,0.908
14.0,-6.0,0.909
-9.0,-8.0,0.91
-25.0,-2.0,0.911
-32.0,2.0,0.912
-38.0,-1.0,0.913
-38.0,-2.0,0.914
-24.0,2.0,0.915
0.0,1.0,0.916
16.0,-3.0,0.917
16.0,-2.0,0.918
10.0,4.0,0.919
3.0,4.0,0.92
-2.0,-9.0,0.921
-4.0,-15.0,0.922
0.0,-7.0,0.923
9.0,4.0,0.924
9.0,6.0,0.925
1.0,4.0,0.926
-2.0,3.0,0.927
0.0,1.0,0.928
-3.0,-3.0,0.929
-11.0,-5.0,0.93
-12.0,-4.0,0.931
1.0,-6.0,0.932
17.0,-5.0,0.933
23.0,1.0,0.934
26.0,11.0,0.935
31.0,11.0,0.936
31.0,3.0,0.937
21.0,-5.0,0.938
11.0,-3.0,0.939
4.0,-2.0,0.94
2.0,-6.0,0.941
3.0,-8.0,0.942
9.0,0.0,0.943
15.0,5.0,0.944
11.0,4.0,0.945
0.0,0.0,0.946
-4.0,1.0,0.947
0.0,0.0,0.948
3.0,-1.0,0.949
0.0,0.0,0.95
-2.0,3.0,0.951
-4.0,-1.0,0.952
-5.0,-7.0,0.953
-7.0,-8.0,0.954
-9.0,-2.0,0.955
-9.0,1.0,0.956
-9.0,-1.0,0.957
-13.0,-4.0,0.958
-16.0,-1.0,0.959
-18.0,2.0,0.96
-14.0,-1.0,0.961
-6.0,-1.0,0.962
11.0,3.0,0.963
24.0,10.0,0.964
20.0,13.0,0.965
16.0,10.0,0.966
13.0,6.0,0.967
9.0,1.0,0.968
3.0,-1.0,0.969
-2.0,-4.0,0.97
-3.0,-6.0,0.971
-4.0,-10.0,0.972
-3.0,-10.0,0.973
-2.0,-4.0,0.974
-1.0,3.0,0.975
0.0,1.0,0.976
2.0,-6.0,0.977
6.0,-11.0,0.978
10.0,-7.0,0.979
11.0,0.0,0.98
9.0,0.0,0.981
5.0,-1.0,0.982
6.0,0.0,0.983
6.0,5.0,0.984
1.0,11.0,0.985
-6.0,12.0,0.986
-10.0,7.0,0.987
-10.0,4.0,0.988
-12.0,4.0,0.989
-15.0,4.0,0.99
-11.0,-1.0,0.991
-3.0,-8.0,0.992
4.0,-8.0,0.993
8.0,-3.0,0.994
9.0,-2.0,0.995
9.0,-6.0,0.996
8.0,-4.0,0.997
5.0,1.0,0.998
3.0,1.0,0.999
-3.0,-4.0,1.0
-10.0,-8.0,1.001
-6.0,-3.0,1.002
9.0,3.0,1.003
21.0,9.0,1.004
17.0,14.0,1.005
6.0,12.0,1.006
1.0,0.0,1.007
0.0,-8.0,1.008
-7.0,-4.0,1.009
-15.0,5.0,1.01
-13.0,4.0,1.011
4.0,-5.0,1.012
25.0,-8.0,1.013
37.0,-3.0,1.014
36.0,-3.0,1.015
20.0,-6.0,1.016
5.0,-6.0,1.017
-9.0,1.0,1.018
-19.0,1.0,1.019
-28.0,0.0,1.02
-28.0,-1.0,1.021
-21.0,-3.0,1.022
0.0,-2.0,1.023
17.0,0.0,1.024
14.0,6.0,1.025
12.0,8.0,1.026
10.0,0.0,1.027
9.0,-5.0,1.028
11.0,-8.0,1.029
14.0,-8.0,1.03
15.0,-1.0,1.031
15.0,3.0,1.032
12.0,-1.0,1.033
7.0,-4.0,1.034
0.0,-6.0,1.035
-5.0,-8.0,1.036
-5.0,-5.0,1.037
-4.0,1.0,1.038
-5.0,1.0,1.039
-7.0,0.0,1.04
-6.0,-1.0,1.041
-5.0,-3.0,1.042
0.0,-2.0,1.043
4.0,0.0,1.044
0.0,5.0,1.045
-11.0,7.0,1.046
-20.0,0.0,1.047
-15.0,-5.0,1.048
0.0,-7.0,1.049
15.0,-7.0,1.05
28.0,-1.0,1.051
36.0,3.0,1.052
32.0,-1.0,1.053
18.0,-4.0,1.054
7.0,-6.0,1.055
10.0,-7.0,1.056
17.0,-5.0,1.057
16.0,-4.0,1.058
4.0,-2.0,1.059
-7.0,-2.0,1.06
-10.0,-4.0,1.061
-8.0,-5.0,1.062
-7.0,-1.0,1.063
-3.0,4.0,1.064
0.0,9.0,1.065
-3.0,14.0,1.066
-9.0,12.0,1.067
-7.0,8.0,1.068
-3.0,6.0,1.069
0.0,6.0,1.07
1.0,4.0,1.071
13.0,-4.0,1.072
22.0,-8.0,1.073
23.0,-3.0,1.074
20.0,4.0,1.075
24.0,4.0,1.076
29.0,-1.0,1.077
15.0,-4.0,1.078
-10.0,-2.0,1.079
-28.0,0.0,1.08
-39.0,-4.0,1.081
-44.0,-7.0,1.082
-37.0,-8.0,1.083
-15.0,-3.0,1.084
3.0,3.0,1.085
2.0,5.0,1.086
-8.0,1.0,1.087
-6.0,-5.0,1.088
2.0,-8.0,1.089
0.0,-6.0,1.09
-5.0,-3.0,1.091
-2.0,-4.0,1.092
13.0,-2.0,1.093
22.0,2.0,1.094
27.0,4.0,1.095
37.0,4.0,1.096
44.0,2.0,1.097
32.0,-4.0,1.098
16.0,-5.0,1.099
6.0,-4.0,1.1
18.0,-4.0,1.101
24.0,-1.0,1.102
13.0,1.0,1.103
4.0,7.0,1.104
0.0,11.0,1.105
-5.0,8.0,1.106
-15.0,1.0,1.107
-23.0,-2.0,1.108
-19.0,2.0,1.109
-14.0,7.0,1.11
-8.0,8.0,1.111
-4.0,5.0,1.112
-3.0,3.0,1.113
-1.0,3.0,1.114
3.0,1.0,1.115
7.0,0.0,1.116
12.0,1.0,1.117
17.0,0.0,1.118
13.0,-3.0,1.119
4.0,-6.0,1.12
-4.0,-6.0,1.121
-11.0,-4.0,1.122
-11.0,-1.0,1.123
-7.0,1.0,1.124
-1.0,0.0,1.125
1.0,-3.0,1.126
2.0,-3.0,1.127
0.0,-2.0,1.128
-5.0,-2.0,1.129
-10.0,-3.0,1.13
-7.0,-3.0,1.131
0.0,-4.0,1.132
6.0,-11.0,1.133
11.0,-15.0,1.134
15.0,-8.0,1.135
18.0,-2.0,1.136
16.0,1.0,1.137
8.0,2.0,1.138
2.0,-5.0,1.139
-5.0,-6.0,1.14
-14.0,-5.0,1.141
-21.0,-2.0,1.142
-14.0,1.0,1.143
7.0,4.0,1.144
23.0,6.0,1.145
27.0,4.0,1.146
26.0,-3.0,1.147
26.0,-9.0,1.148
22.0,-10.0,1.149
7.0,-5.0,1.15
-6.0,0.0,1.151
-7.0,2.0,1.152
2.0,1.0,1.153
7.0,0.0,1.154
7.0,0.0,1.155
7.0,-1.0,1.156
7.0,0.0,1.157
-1.0,0.0,1.158
-12.0,0.0,1.159
-18.0,0.0,1.16
-14.0,-2.0,1.161
-6.0,0.0,1.162
0.0,3.0,1.163
4.0,5.0,1.164
6.0,7.0,1.165
2.0,8.0,1.166
-1.0,4.0,1.167
-1.0,0.0,1.168
0.0,-1.0,1.169
4.0,2.0,1.17
9.0,1.0,1.171
12.0,-4.0,1.172
5.0,-8.0,1.173
-4.0,-6.0,1.174
-8.0,-2.0,1.175
-5.0,0.0,1.176
0.0,-1.0,1.177
2.0,-6.0,1.178
5.0,-7.0,1.179
7.0,-1.0,1.18
2.0,2.0,1.181
-5.0,6.0,1.182
-5.0,6.0,1.183
5.0,3.0,1.184
12.0,3.0,1.185
6.0,6.0,1.186
-1.0,4.0,1.187
-1.0,-2.0,1.188
6.0,-5.0,1.189
9.0,-5.0,1.19
4.0,-6.0,1.191
3.0,-8.0,1.192
14.0,-6.0,1.193
30.0,0.0,1.194
40.0,4.0,1.195
36.0,-1.0,1.196
22.0,-8.0,1.197
6.0,-8.0,1.198
-7.0,-2.0,1.199
-21.0,2.0,1.2
-34.0,-2.0,1.201
-40.0,-3.0,1.202
-31.0,2.0,1.203
-14.0,7.0,1.204
0.0,9.0,1.205
4.0,9.0,1.206
1.0,3.0,1.207
-2.0,-1.0,1.208
1.0,-1.0,1.209
4.0,-2.0,1.21
2.0,-1.0,1.211
-7.0,0.0,1.212
-20.0,2.0,1.213
-23.0,3.0,1.214
-16.0,1.0,1.215
-1.0,-1.0,1.216
16.0,-1.0,1.217
32.0,0.0,1.218
45.0,1.0,1.219
47.0,-2.0,1.22
38.0,-5.0,1.221
21.0,-3.0,1.222
10.0,2.0,1.223
8.0,2.0,1.224
9.0,-2.0,1.225
6.0,-4.0,1.226
2.0,0.0,1.227
2.0,4.0,1.228
2.0,1.0,1.229
-3.0,-7.0,1.23
-10.0,-9.0,1.231
-9.0,-6.0,1.232
-3.0,-3.0,1.233
1.0,-5.0,1.234
-1.0,-7.0,1.235
-1.0,-1.0,1.236
4.0,7.0,1.237
7.0,7.0,1.238
6.0,-1.0,1.239
2.0,-7.0,1.24
-2.0,-6.0,1.241
-6.0,0.0,1.242
-7.0,4.0,1.243
-2.0,6.0,1.244
3.0,9.0,1.245
2.0,14.0,1.246
-3.0,13.0,1.247
-4.0,6.0,1.248
-1.0,-3.0,1.249
-1.0,-4.0,1.25
-3.0,1.0,1.251
-2.0,1.0,1.252
0.0,-5.0,1.253
0.0,-12.0,1.254
-1.0,-10.0,1.255
3.0,-6.0,1.256
10.0,-3.0,1.257
9.0,-5.0,1.258
8.0,-7.0,1.259
9.0,-6.0,1.26
5.0,-6.0,1.261
-7.0,-7.0,1.262
-21.0,-9.0,1.263
-22.0,-5.0,1.264
-10.0,3.0,1.265
2.0,11.0,1.266
16.0,13.0,1.267
27.0,11.0,1.268
30.0,9.0,1.269
19.0,5.0,1.27
4.0,-1.0,1.271
1.0,-7.0,1.272
4.0,-6.0,1.273
1.0,4.0,1.274
-9.0,13.0,1.275
-11.0,10.0,1.276
-1.0,1.0,1.277
4.0,-4.0,1.278
2.0,-2.0,1.279
-5.0,-1.0,1.28
-5.0,-5.0,1.281
-2.0,-7.0,1.282
0.0,-4.0,1.283
1.0,0.0,1.284
5.0,1.0,1.285
4.0,1.0,1.286
0.0,-4.0,1.287
1.0,-8.0,1.288
12.0,-4.0,1.289
23.0,-1.0,1.29
23.0,-1.0,1.291
13.0,-1.0,1.292
-2.0,-5.0,1.293
-11.0,-8.0,1.294
-14.0,-9.0,1.295
-13.0,-9.0,1.296
-12.0,-7.0,1.297
-14.0,-3.0,1.298
-9.0,2.0,1.299
4.0,2.0,1.3
23.0,-1.0,1.301
34.0,4.0,1.302
34.0,11.0,1.303
30.0,11.0,1.304
21.0,7.0,1.305
11.0,6.0,1.306
0.0,5.0,1.307
-5.0,-1.0,1.308
-8.0,-9.0,1.309
-11.0,-8.0,1.31
-13.0,-1.0,1.311
-9.0,0.0,1.312
0.0,-5.0,1.313
10.0,-5.0,1.314
19.0,0.0,1.315
22.0,4.0,1.316
19.0,3.0,1.317
7.0,1.0,1.318
-3.0,4.0,1.319
-7.0,4.0,1.32
-7.0,-3.0,1.321
-7.0,-9.0,1.322
-3.0,-8.0,1.323
4.0,2.0,1.324
2.0,15.0,1.325
-6.0,22.0,1.326
-9.0,13.0,1.327
-5.0,-4.0,1.328
-1.0,-12.0,1.329
-2.0,-6.0,1.33
2.0,3.0,1.331
11.0,3.0,1.332
15.0,-4.0,1.333
13.0,-6.0,1.334
11.0,-5.0,1.335
12.0,-4.0,1.336
14.0,-2.0,1.337
9.0,-3.0,1.338
2.0,-2.0,1.339
-6.0,-1.0,1.34
-15.0,-3.0,1.341
-21.0,-5.0,1.342
-14.0,-3.0,1.343
-8.0,0.0,1.344
-8.0,3.0,1.345
-8.0,6.0,1.346
-6.0,5.0,1.347
-4.0,3.0,1.348
-3.0,1.0,1.349
0.0,-1.0,1.35
5.0,-5.0,1.351
12.0,-7.0,1.352
17.0,-5.0,1.353
21.0,-2.0,1.354
18.0,0.0,1.355
15.0,1.0,1.356
14.0,0.0,1.357
14.0,-1.0,1.358
15.0,1.0,1.359
17.0,2.0,1.36
15.0,-1.0,1.361
11.0,0.0,1.362
8.0,1.0,1.363
6.0,1.0,1.364
1.0,1.0,1.365
0.0,3.0,1.366
5.0,2.0,1.367
16.0,0.0,1.368
18.0,-4.0,1.369
9.0,-6.0,1.37
-5.0,-6.0,1.371
-22.0,-4.0,1.372
-38.0,1.0,1.373
-53.0,6.0,1.374
-52.0,4.0,1.375
-32.0,-2.0,1.376
-5.0,-3.0,1.377
18.0,1.0,1.378
28.0,3.0,1.379
19.0,1.0,1.38
0.0,-3.0,1.381
-10.0,-3.0,1.382
3.0,0.0,1.383
30.0,1.0,1.384
46.0,6.0,1.385
38.0,11.0,1.386
20.0,10.0,1.387
9.0,4.0,1.388
7.0,-2.0,1.389
8.0,-4.0,1.39
9.0,-3.0,1.391
10.0,-5.0,1.392
4.0,-8.0,1.393
-2.0,-8.0,1.394
-3.0,-8.0,1.395
-1.0,-1.0,1.396
-1.0,10.0,1.397
-8.0,14.0,1.398
-9.0,10.0,1.399
-5.0,2.0,1.4
-3.0,-4.0,1.401
-6.0,-5.0,1.402
-4.0,-7.0,1.403
1.0,-9.0,1.404
2.0,-9.0,1.405
-4.0,-7.0,1.406
-4.0,-6.0,1.407
1.0,-3.0,1.408
-1.0,1.0,1.409
-9.0,2.0,1.41
-9.0,-1.0,1.411
1.0,-6.0,1.412
11.0,-9.0,1.413
7.0,-4.0,1.414
2.0,5.0,1.415
2.0,12.0,1.416
7.0,10.0,1.417
5.0,3.0,1.418
2.0,0.0,1.419
-3.0,1.0,1.42
-6.0,-3.0,1.421
-5.0,-8.0,1.422
3.0,-9.0,1.423
15.0,-2.0,1.424
17.0,4.0,1.425
11.0,4.0,1.426
6.0,0.0,1.427
7.0,-2.0,1.428
7.0,-5.0,1.429
7.0,-5.0,1.43
6.0,-2.0,1.431
3.0,0.0,1.432
-1.0,-2.0,1.433
-3.0,-5.0,1.434
-2.0,-4.0,1.435
6.0,-1.0,1.436
14.0,0.0,1.437
19.0,-5.0,1.438
17.0,-6.0,1.439
8.0,-4.0,1.44
-3.0,-4.0,1.441
-8.0,-1.0,1.442
-8.0,2.0,1.443
-3.0,4.0,1.444
1.0,4.0,1.445
2.0,4.0,1.446
3.0,2.0,1.447
0.0,-2.0,1.448
-3.0,-5.0,1.449
-5.0,-2.0,1.45
1.0,2.0,1.451
9.0,0.0,1.452
10.0,-3.0,1.453
6.0,-3.0,1.454
5.0,3.0,1.455
5.0,7.0,1.456
3.0,7.0,1.457
-4.0,2.0,1.458
-10.0,0.0,1.459
-10.0,-3.0,1.46
-6.0,-6.0,1.461
-1.0,-3.0,1.462
5.0,4.0,1.463
11.0,9.0,1.464
7.0,4.0,1.465
-2.0,0.0,1.466
-10.0,0.0,1.467
-14.0,2.0,1.468
-19.0,0.0,1.469
-14.0,-3.0,1.47
3.0,-4.0,1.471
22.0,-5.0,1.472
29.0,-6.0,1.473
22.0,-5.0,1.474
12.0,0.0,1.475
3.0,0.0,1.476
3.0,-4.0,1.477
29.0,-9.0,1.478
37.0,-7.0,1.479
40.0,-5.0,1.48
24.0,-5.0,1.481
11.0,-2.0,1.482
9.0,3.0,1.483
7.0,9.0,1.484
9.0,8.0,1.485
9.0,7.0,1.486
2.0,8.0,1.487
-6.0,8.0,1.488
-1.0,5.0,1.489
2.0,0.0,1.49
-4.0,-10.0,1.491
-9.0,-16.0,1.492
-4.0,-8.0,1.493
2.0,1.0,1.494
2.0,10.0,1.495
-1.0,15.0,1.496
9.0,5.0,1.497
17.0,-4.0,1.498
20.0,-5.0,1.499
21.0,0.0,1.5
15.0,-2.0,1.501
10.0,-6.0,1.502
9.0,-7.0,1.503
8.0,-3.0,1.504
9.0,1.0,1.505
9.0,0.0,1.506
6.0,-3.0,1.507
3.0,-3.0,1.508
5.0,1.0,1.509
6.0,4.0,1.51
4.0,0.0,1.511
2.0,-5.0,1.512
4.0,-5.0,1.513
6.0,-1.0,1.514
6.0,5.0,1.515
5.0,4.0,1.516
9.0,0.0,1.517
12.0,-4.0,1.518
8.0,-4.0,1.519
5.0,-4.0,1.52
1.0,-6.0,1.521
-5.0,-8.0,1.522
-10.0,-3.0,1.523
-11.0,1.0,1.524
-14.0,5.0,1.525
-18.0,8.0,1.526
-13.0,6.0,1.527
-2.0,4.0,1.528
7.0,2.0,1.529
11.0,1.0,1.53
17.0,2.0,1.531
23.0,2.0,1.532
20.0,0.0,1.533
12.0,-3.0,1.534
6.0,-5.0,1.535
4.0,-7.0,1.536
-1.0,-5.0,1.537
-10.0,0.0,1.538
-11.0,11.0,1.539
-4.0,12.0,1.54
-3.0,2.0,1.541
-4.0,-5.0,1.542
0.0,-7.0,1.543
13.0,-2.0,1.544
15.0,5.0,1.545
8.0,10.0,1.546
4.0,5.0,1.547
11.0,-5.0,1.548
13.0,-9.0,1.549
4.0,-6.0,1.55
-5.0,-3.0,1.551
-10.0,-8.0,1.552
-11.0,-10.0,1.553
-12.0,0.0,1.554
-8.0,11.0,1.555
-4.0,12.0,1.556
-3.0,5.0,1.557
-2.0,-4.0,1.558
2.0,-5.0,1.559
4.0,-2.0,1.56
2.0,-4.0,1.561
4.0,-2.0,1.562
13.0,1.0,1.563
18.0,4.0,1.564
12.0,6.0,1.565
3.0,5.0,1.566
1.0,-2.0,1.567
3.0,-13.0,1.568
0.0,-14.0,1.569
-8.0,-4.0,1.57
-11.0,2.0,1.571
-8.0,-2.0,1.572
-2.0,-10.0,1.573
8.0,-8.0,1.574
20.0,1.0,1.575
23.0,4.0,1.576
18.0,3.0,1.577
12.0,-1.0,1.578
13.0,-2.0,1.579
14.0,-2.0,1.58
6.0,-3.0,1.581
-5.0,-2.0,1.582
-9.0,-3.0,1.583
-5.0,-4.0,1.584
-3.0,1.0,1.585
-5.0,6.0,1.586
-3.0,5.0,1.587
3.0,0.0,1.588
4.0,0.0,1.589
-2.0,1.0,1.59
-11.0,-2.0,1.591
-12.0,-8.0,1.592
-6.0,-8.0,1.593
0.0,-2.0,1.594
4.0,1.0,1.595
7.0,-1.0,1.596
13.0,-1.0,1.597
16.0,0.0,1.598
18.0,-2.0,1.599
12.0,-4.0,1.6
5.0,-4.0,1.601
1.0,2.0,1.602
5.0,6.0,1.603
10.0,3.0,1.604
7.0,2.0,1.605
0.0,6.0,1.606
-3.0,6.0,1.607
0.0,3.0,1.608
1.0,0.0,1.609
-2.0,1.0,1.61
-6.0,0.0,1.611
-7.0,-8.0,1.612
-6.0,-16.0,1.613
-3.0,-14.0,1.614
2.0,-8.0,1.615
10.0,-4.0,1.616
13.0,-4.0,1.617
7.0,-1.0,1.618
3.0,7.0,1.619
5.0,9.0,1.62
12.0,1.0,1.621
11.0,-5.0,1.622
8.0,-1.0,1.623
10.0,8.0,1.624
8.0,12.0,1.625
-1.0,8.0,1.626
-7.0,4.0,1.627
-6.0,0.0,1.628
0.0,-3.0,1.629
-1.0,-5.0,1.63
-4.0,-4.0,1.631
-3.0,-2.0,1.632
1.0,2.0,1.633
1.0,5.0,1.634
0.0,2.0,1.635
5.0,-3.0,1.636
12.0,-5.0,1.637
11.0,-6.0,1.638
4.0,-2.0,1.639
-2.0,1.0,1.64
-4.0,-2.0,1.641
-4.0,-5.0,1.642
0.0,-6.0,1.643
9.0,1.0,1.644
16.0,10.0,1.645
16.0,11.0,1.646
11.0,4.0,1.647
4.0,0.0,1.648
-4.0,3.0,1.649
-16.0,7.0,1.65
-20.0,4.0,1.651
-12.0,0.0,1.652
-1.0,-1.0,1.653
2.0,0.0,1.654
3.0,-2.0,1.655
4.0,-6.0,1.656
5.0,-8.0,1.657
1.0,-10.0,1.658
1.0,-8.0,1.659
4.0,-2.0,1.66
4.0,-3.0,1.661
2.0,-6.0,1.662
0.0,-7.0,1.663
3.0,-1.0,1.664
-1.0,8.0,1.665
-18.0,9.0,1.666
-30.0,7.0,1.667
-24.0,4.0,1.668
-6.0,4.0,1.669
7.0,4.0,1.67
14.0,1.0,1.671
22.0,1.0,1.672
31.0,2.0,1.673
29.0,-2.0,1.674
18.0,-9.0,1.675
11.0,-12.0,1.676
10.0,-5.0,1.677
8.0,4.0,1.678
-3.0,4.0,1.679
-13.0,-2.0,1.68
-10.0,-9.0,1.681
2.0,-11.0,1.682
14.0,-10.0,1.683
16.0,-7.0,1.684
14.0,-1.0,1.685
12.0,7.0,1.686
11.0,9.0,1.687
6.0,2.0,1.688
0.0,-6.0,1.689
-2.0,-5.0,1.69
1.0,3.0,1.691
9.0,10.0,1.692
13.0,7.0,1.693
5.0,-1.0,1.694
-6.0,-5.0,1.695
-10.0,-5.0,1.696
-6.0,-6.0,1.697
-3.0,-8.0,1.698
-5.0,-7.0,1.699
-10.0,-3.0,1.7
-8.0,-3.0,1.701
0.0,-4.0,1.702
6.0,-5.0,1.703
6.0,-1.0,1.704
0.0,2.0,1.705
-4.0,5.0,1.706
-4.0,4.0,1.707
0.0,0.0,1.708
8.0,2.0,1.709
11.0,7.0,1.71
8.0,6.0,1.711
3.0,0.0,1.712
3.0,-3.0,1.713
6.0,0.0,1.714
7.0,4.0,1.715
6.0,2.0,1.716
8.0,-1.0,1.717
11.0,-4.0,1.718
12.0,-4.0,1.719
3.0,-2.0,1.72
-8.0,-2.0,1.721
-17.0,2.0,1.722
-15.0,4.0,1.723
-6.0,5.0,1.724
0.0,6.0,1.725
2.0,6.0,1.726
1.0,3.0,1.727
2.0,-2.0,1.728
4.0,-2.0,1.729
7.0,1.0,1.73
9.0,-2.0,1.731
9.0,-9.0,1.732
11.0,-13.0,1.733
12.0,-8.0,1.734
7.0,-7.0,1.735
-4.0,-12.0,1.736
-13.0,-14.0,1.737
-15.0,-6.0,1.738
-7.0,7.0,1.739
-2.0,12.0,1.74
0.0,5.0,1.741
4.0,-1.0,1.742
15.0,-5.0,1.743
20.0,-7.0,1.744
8.0,-4.0,1.745
-9.0,4.0,1.746
-13.0,9.0,1.747
-1.0,9.0,1.748
8.0,2.0,1.749
3.0,-5.0,1.75
-10.0,-11.0,1.751
-19.0,-9.0,1.752
-23.0,0.0,1.753
-27.0,8.0,1.754
-22.0,5.0,1.755
0.0,-3.0,1.756
31.0,-3.0,1.757
54.0,-1.0,1.758
69.0,-2.0,1.759
69.0,-4.0,1.76
49.0,-4.0,1.761
21.0,-5.0,1.762
2.0,-5.0,1.763
-3.0,-3.0,1.764
-12.0,9.0,1.765
-29.0,16.0,1.766
-35.0,10.0,1.767
-18.0,5.0,1.768
0.0,3.0,1.769
-1.0,2.0,1.77
-11.0,4.0,1.771
-8.0,6.0,1.772
3.0,2.0,1.773
6.0,-1.0,1.774
1.0,-2.0,1.775
-2.0,-3.0,1.776
-1.0,-3.0,1.777
-1.0,-3.0,1.778
1.0,-4.0,1.779
5.0,-6.0,1.78
2.0,-5.0,1.781
-2.0,0.0,1.782
2.0,3.0,1.783
14.0,2.0,1.784
15.0,4.0,1.785
3.0,7.0,1.786
-2.0,5.0,1.787
4.0,0.0,1.788
8.0,-2.0,1.789
3.0,-4.0,1.79
0.0,-9.0,1.791
6.0,-12.0,1.792
9.0,-8.0,1.793
4.0,0.0,1.794
0.0,0.0,1.795
5.0,-5.0,1.796
13.0,-7.0,1.797
10.0,-7.0,1.798
3.0,-3.0,1.799
-3.0,-1.0,1.8
-7.0,-4.0,1.801
-11.0,-4.0,1.802
-8.0,-3.0,1.803
0.0,-1.0,1.804
6.0,3.0,1.805
7.0,3.0,1.806
9.0,1.0,1.807
12.0,-1.0,1.808
8.0,0.0,1.809
-1.0,0.0,1.81
-9.0,0.0,1.811
-10.0,2.0,1.812
-6.0,3.0,1.813
0.0,0.0,1.814
7.0,-5.0,1.815
11.0,-7.0,1.816
12.0,-3.0,1.817
14.0,0.0,1.818
15.0,1.0,1.819
7.0,3.0,1.82
-8.0,3.0,1.821
-15.0,6.0,1.822
-6.0,6.0,1.823
8.0,3.0,1.824
12.0,4.0,1.825
0.0,5.0,1.826
-10.0,3.0,1.827
-12.0,-1.0,1.828
-10.0,-3.0,1.829
-9.0,-1.0,1.83
-7.0,0.0,1.831
-2.0,-5.0,1.832
2.0,-12.0,1.833
2.0,-14.0,1.834
0.0,-9.0,1.835
-1.0,-4.0,1.836
3.0,-2.0,1.837
11.0,-6.0,1.838
15.0,-9.0,1.839
10.0,-6.0,1.84
2.0,-2.0,1.841
-3.0,0.0,1.842
-4.0,1.0,1.843
-2.0,0.0,1.844
2.0,4.0,1.845
6.0,10.0,1.846
9.0,11.0,1.847
11.0,4.0,1.848
11.0,-1.0,1.849
11.0,-1.0,1.85
7.0,1.0,1.851
1.0,3.0,1.852
2.0,5.0,1.853
12.0,7.0,1.854
19.0,3.0,1.855
18.0,-4.0,1.856
14.0,-7.0,1.857
10.0,-5.0,1.858
7.0,0.0,1.859
-2.0,0.0,1.86
-11.0,-4.0,1.861
-16.0,-2.0,1.862
-13.0,4.0,1.863
-7.0,9.0,1.864
-1.0,9.0,1.865
5.0,5.0,1.866
13.0,1.0,1.867
19.0,-3.0,1.868
19.0,-7.0,1.869
14.0,-9.0,1.87
3.0,-9.0,1.871
0.0,-8.0,1.872
1.0,-6.0,1.873
5.0,-2.0,1.874
4.0,2.0,1.875
2.0,3.0,1.876
0.0,1.0,1.877
-7.0,-6.0,1.878
-10.0,-9.0,1.879
-7.0,-5.0,1.88
2.0,1.0,1.881
7.0,6.0,1.882
4.0,6.0,1.883
0.0,3.0,1.884
1.0,0.0,1.885
3.0,0.0,1.886
3.0,7.0,1.887
2.0,11.0,1.888
3.0,8.0,1.889
1.0,-1.0,1.89
-3.0,-7.0,1.891
-5.0,-6.0,1.892
-1.0,-5.0,1.893
2.0,-5.0,1.894
3.0,-4.0,1.895
1.0,-3.0,1.896
2.0,-1.0,1.897
4.0,-4.0,1.898
6.0,-7.0,1.899
3.0,-7.0,1.9
-2.0,-8.0,1.901
-6.0,-7.0,1.902
-3.0,-5.0,1.903
3.0,2.0,1.904
4.0,10.0,1.905
3.0,10.0,1.906
5.0,3.0,1.907
9.0,1.0,1.908
4.0,4.0,1.909
-6.0,5.0,1.91
-12.0,1.0,1.911
-7.0,-2.0,1.912
-2.0,-3.0,1.913
-1.0,-2.0,1.914
1.0,-2.0,1.915
5.0,-1.0,1.916
9.0,2.0,1.917
12.0,1.0,1.918
15.0,-3.0,1.919
14.0,-4.0,1.92
5.0,-4.0,1.921
-3.0,-3.0,1.922
-5.0,-1.0,1.923
-4.0,2.0,1.924
-7.0,6.0,1.925
-14.0,7.0,1.926
-10.0,3.0,1.927
1.0,-1.0,1.928
11.0,-2.0,1.929
9.0,0.0,1.93
9.0,2.0,1.931
13.0,5.0,1.932
16.0,8.0,1.933
11.0,5.0,1.934
5.0,-2.0,1.935
5.0,-6.0,1.936
12.0,-4.0,1.937
12.0,-4.0,1.938
9.0,-6.0,1.939
3.0,-7.0,1.94
-1.0,-8.0,1.941
-4.0,-7.0,1.942
0.0,-6.0,1.943
11.0,-3.0,1.944
17.0,2.0,1.945
16.0,7.0,1.946
13.0,2.0,1.947
10.0,-4.0,1.948
1.0,-3.0,1.949
-20.0,4.0,1.95
-40.0,7.0,1.951
-40.0,2.0,1.952
-14.0,-4.0,1.953
17.0,-4.0,1.954
33.0,-2.0,1.955
33.0,-1.0,1.956
32.0,0.0,1.957
30.0,-3.0,1.958
19.0,-3.0,1.959
-1.0,-3.0,1.96
-12.0,-5.0,1.961
-6.0,-5.0,1.962
3.0,-2.0,1.963
1.0,2.0,1.964
-5.0,7.0,1.965
-5.0,8.0,1.966
-4.0,4.0,1.967
-6.0,0.0,1.968
-8.0,1.0,1.969
-5.0,5.0,1.97
-4.0,4.0,1.971
-6.0,0.0,1.972
-6.0,-3.0,1.973
-3.0,-2.0,1.974
0.0,-2.0,1.975
0.0,-5.0,1.976
1.0,-4.0,1.977
3.0,-2.0,1.978
4.0,-2.0,1.979
2.0,0.0,1.98
-1.0,0.0,1.981
-1.0,3.0,1.982
2.0,-1.0,1.983
5.0,-4.0,1.984
6.0,-1.0,1.985
3.0,4.0,1.986
1.0,5.0,1.987
0.0,0.0,1.988
-2.0,-3.0,1.989
-9.0,0.0,1.99
-15.0,4.0,1.991
-8.0,3.0,1.992
7.0,-1.0,1.993
19.0,-5.0,1.994
25.0,-6.0,1.995
27.0,-6.0,1.996
25.0,-2.0,1.997
16.0,2.0,1.998
4.0,3.0,1.999
-1.0,1.0,2.0
0.0,-2.0,2.001
3.0,-3.0,2.002
8.0,-4.0,2.003
14.0,-4.0,2.004
14.0,-1.0,2.005
5.0,3.0,2.006
-3.0,4.0,2.007
-7.0,1.0,2.008
-13.0,0.0,2.009
-20.0,0.0,2.01
-20.0,0.0,2.011
-9.0,-2.0,2.012
2.0,-5.0,2.013
1.0,-5.0,2.014
-4.0,-7.0,2.015
-4.0,-8.0,2.016
3.0,-5.0,2.017
6.0,-2.0,2.018
5.0,-5.0,2.019
4.0,-11.0,2.02
4.0,-12.0,2.021
0.0,-5.0,2.022
-5.0,0.0,2.023
-7.0,1.0,2.024
-4.0,8.0,2.025
-1.0,19.0,2.026
0.0,20.0,2.027
3.0,8.0,2.028
9.0,0.0,2.029
14.0,2.0,2.03
15.0,5.0,2.031
14.0,1.0,2.032
10.0,0.0,2.033
5.0,3.0,2.034
0.0,5.0,2.035
0.0,1.0,2.036
3.0,-4.0,2.037
3.0,-8.0,2.038
1.0,-8.0,2.039
-3.0,-7.0,2.04
-2.0,-4.0,2.041
4.0,2.0,2.042
15.0,3.0,2.043
23.0,-4.0,2.044
22.0,-4.0,2.045
15.0,2.0,2.046
6.0,6.0,2.047
3.0,4.0,2.048
0.0,1.0,2.049
-3.0,3.0,2.05
2.0,4.0,2.051
16.0,-3.0,2.052
25.0,-9.0,2.053
22.0,-10.0,2.054
11.0,-6.0,2.055
1.0,-4.0,2.056
-1.0,-4.0,2.057
-5.0,-3.0,2.058
-16.0,-2.0,2.059
-27.0,2.0,2.06
-31.0,2.0,2.061
-21.0,4.0,2.062
-7.0,2.0,2.063
1.0,1.0,2.064
0.0,5.0,2.065
-4.0,10.0,2.066
-4.0,9.0,2.067
0.0,1.0,2.068
3.0,-4.0,2.069
2.0,-4.0,2.07
2.0,-4.0,2.071
2.0,-6.0,2.072
0.0,-6.0,2.073
-3.0,-5.0,2.074
-2.0,-6.0,2.075
3.0,-7.0,2.076
10.0,-8.0,2.077
11.0,-7.0,2.078
13.0,-4.0,2.079
15.0,-2.0,2.08
12.0,-3.0,2.081
5.0,-2.0,2.082
0.0,3.0,2.083
1.0,5.0,2.084
0.0,4.0,2.085
-6.0,3.0,2.086
-7.0,4.0,2.087
2.0,6.0,2.088
13.0,7.0,2.089
16.0,9.0,2.09
14.0,6.0,2.091
13.0,0.0,2.092
12.0,-6.0,2.093
10.0,-6.0,2.094
9.0,-3.0,2.095
8.0,-2.0,2.096
5.0,-4.0,2.097
-1.0,-4.0,2.098
-2.0,1.0,2.099
-1.0,5.0,2.1
0.0,0.0,2.101
2.0,-7.0,2.102
9.0,-9.0,2.103
17.0,-3.0,2.104
13.0,4.0,2.105
-2.0,7.0,2.106
-12.0,2.0,2.107
-11.0,-5.0,2.108
-9.0,-5.0,2.109
-7.0,1.0,2.11
0.0,4.0,2.111
9.0,0.0,2.112
8.0,-3.0,2.113
-3.0,0.0,2.114
-13.0,1.0,2.115
-10.0,0.0,2.116
-2.0,0.0,2.117
2.0,0.0,2.118
2.0,-1.0,2.119
1.0,-6.0,2.12
-2.0,-13.0,2.121
-5.0,-11.0,2.122
-6.0,-4.0,2.123
-2.0,3.0,2.124
3.0,8.0,2.125
5.0,9.0,2.126
7.0,6.0,2.127
9.0,1.0,2.128
4.0,2.0,2.129
-3.0,4.0,2.13
-6.0,0.0,2.131
0.0,-10.0,2.132
12.0,-14.0,2.133
17.0,-5.0,2.134
13.0,4.0,2.135
10.0,5.0,2.136
16.0,4.0,2.137
20.0,3.0,2.138
14.0,1.0,2.139
-1.0,-2.0,2.14
-8.0,-2.0,2.141
-2.0,5.0,2.142
8.0,8.0,2.143
15.0,2.0,2.144
18.0,-3.0,2.145
16.0,-1.0,2.146
9.0,0.0,2.147
0.0,-2.0,2.148
-8.0,-3.0,2.149
-12.0,1.0,2.15
-12.0,2.0,2.151
-7.0,-2.0,2.152
0.0,-7.0,2.153
10.0,-7.0,2.154
11.0,-8.0,2.155
10.0,-8.0,2.156
8.0,-4.0,2.157
4.0,0.0,2.158
-4.0,-2.0,2.159
-9.0,-8.0,2.16
-6.0,-9.0,2.161
-1.0,-3.0,2.162
2.0,0.0,2.163
1.0,0.0,2.164
0.0,2.0,2.165
0.0,7.0,2.166
1.0,8.0,2.167
0.0,3.0,2.168
0.0,-1.0,2.169
1.0,-2.0,2.17
9.0,-3.0,2.171
24.0,-4.0,2.172
35.0,-1.0,2.173
26.0,1.0,2.174
3.0,-3.0,2.175
-17.0,-8.0,2.176
-24.0,-8.0,2.177
-27.0,-6.0,2.178
-35.0,2.0,2.179
-39.0,8.0,2.18
-30.0,8.0,2.181
-9.0,5.0,2.182
15.0,-1.0,2.183
29.0,-2.0,2.184
30.0,0.0,2.185
22.0,4.0,2.186
18.0,1.0,2.187
20.0,-3.0,2.188
18.0,-3.0,2.189
2.0,-1.0,2.19
-11.0,1.0,2.191
-9.0,4.0,2.192
0.0,4.0,2.193
5.0,-1.0,2.194
3.0,-8.0,2.195
2.0,-9.0,2.196
7.0,-3.0,2.197
5.0,0.0,2.198
0.0,-2.0,2.199
-2.0,-5.0,2.2
5.0,-8.0,2.201
12.0,-3.0,2.202
16.0,0.0,2.203
17.0,0.0,2.204
12.0,0.0,2.205
0.0,-1.0,2.206
-12.0,2.0,2.207
-14.0,8.0,2.208
-8.0,13.0,2.209
-4.0,12.0,2.21
0.0,3.0,2.211
4.0,0.0,2.212
7.0,4.0,2.213
2.0,8.0,2.214
-6.0,1.0,2.215
-9.0,-7.0,2.216
-4.0,-8.0,2.217
5.0,-4.0,2.218
13.0,-3.0,2.219
14.0,-6.0,2.22
10.0,-10.0,2.221
5.0,-7.0,2.222
4.0,-2.0,2.223
10.0,0.0,2.224
14.0,2.0,2.225
15.0,6.0,2.226
11.0,7.0,2.227
6.0,2.0,2.228
0.0,-2.0,2.229
-3.0,-1.0,2.23
-5.0,-1.0,2.231
-8.0,-6.0,2.232
-10.0,-9.0,2.233
-9.0,-7.0,2.234
-4.0,-1.0,2.235
-3.0,2.0,2.236
-3.0,3.0,2.237
-5.0,2.0,2.238
-2.0,2.0,2.239
2.0,-1.0,2.24
2.0,-7.0,2.241
4.0,-7.0,2.242
16.0,-2.0,2.243
27.0,0.0,2.244
24.0,1.0,2.245
12.0,3.0,2.246
7.0,5.0,2.247
11.0,3.0,2.248
9.0,4.0,2.249
-10.0,11.0,2.25
-29.0,15.0,2.251
-31.0,8.0,2.252
-15.0,-4.0,2.253
8.0,-6.0,2.254
25.0,-1.0,2.255
33.0,1.0,2.256
37.0,0.0,2.257
35.0,-6.0,2.258
23.0,-8.0,2.259
3.0,-12.0,2.26
-12.0,-17.0,2.261
-12.0,-16.0,2.262
-5.0,-8.0,2.263
-8.0,2.0,2.264
-19.0,10.0,2.265
-25.0,16.0,2.266
-20.0,17.0,2.267
-9.0,15.0,2.268
-5.0,10.0,2.269
-9.0,6.0,2.27
-9.0,1.0,2.271
-1.0,-8.0,2.272
7.0,-13.0,2.273
10.0,-8.0,2.274
10.0,0.0,2.275
9.0,1.0,2.276
10.0,-2.0,2.277
9.0,-6.0,2.278
6.0,-6.0,2.279
1.0,-4.0,2.28
-3.0,-4.0,2.281
-2.0,0.0,2.282
4.0,2.0,2.283
13.0,0.0,2.284
13.0,-2.0,2.285
6.0,0.0,2.286
5.0,2.0,2.287
14.0,0.0,2.288
20.0,-4.0,2.289
16.0,-2.0,2.29
6.0,0.0,2.291
0.0,-5.0,2.292
-5.0,-9.0,2.293
-14.0,-7.0,2.294
-20.0,0.0,2.295
-16.0,2.0,2.296
-4.0,0.0,2.297
7.0,2.0,2.298
13.0,10.0,2.299
10.0,10.0,2.3
3.0,-2.0,2.301
-2.0,-11.0,2.302
-2.0,-10.0,2.303
5.0,-1.0,2.304
10.0,8.0,2.305
10.0,10.0,2.306
8.0,4.0,2.307
7.0,0.0,2.308
3.0,0.0,2.309
-2.0,3.0,2.31
-3.0,3.0,2.311
2.0,-2.0,2.312
9.0,-5.0,2.313
9.0,-4.0,2.314
8.0,-2.0,2.315
10.0,-2.0,2.316
11.0,-2.0,2.317
7.0,0.0,2.318
-1.0,1.0,2.319
-9.0,-1.0,2.32
-15.0,-6.0,2.321
-15.0,-5.0,2.322
-4.0,-2.0,2.323
7.0,2.0,2.324
5.0,3.0,2.325
-6.0,3.0,2.326
-7.0,-3.0,2.327
7.0,-7.0,2.328
18.0,-1.0,2.329
12.0,8.0,2.33
1.0,11.0,2.331
3.0,2.0,2.332
14.0,-7.0,2.333
17.0,-9.0,2.334
14.0,-6.0,2.335
11.0,-2.0,2.336
12.0,2.0,2.337
0.0,1.0,2.338
-11.0,0.0,2.339
-15.0,-3.0,2.34
-9.0,-6.0,2.341
-6.0,-5.0,2.342
-3.0,-4.0,2.343
6.0,0.0,2.344
14.0,5.0,2.345
11.0,9.0,2.346
-2.0,8.0,2.347
-9.0,3.0,2.348
-7.0,2.0,2.349
0.0,2.0,2.35
7.0,1.0,2.351
10.0,-3.0,2.352
10.0,-6.0,2.353
8.0,-5.0,2.354
5.0,-1.0,2.355
3.0,0.0,2.356
2.0,2.0,2.357
0.0,-1.0,2.358
0.0,-6.0,2.359
-1.0,-8.0,2.36
2.0,-8.0,2.361
9.0,-2.0,2.362
18.0,1.0,2.363
19.0,2.0,2.364
11.0,7.0,2.365
-4.0,12.0,2.366
-15.0,10.0,2.367
-19.0,1.0,2.368
-18.0,-2.0,2.369
-13.0,2.0,2.37
-4.0,7.0,2.371
4.0,7.0,2.372
7.0,3.0,2.373
2.0,-4.0,2.374
-3.0,-12.0,2.375
-3.0,-17.0,2.376
-1.0,-10.0,2.377
-2.0,-3.0,2.378
-7.0,-3.0,2.379
-9.0,-8.0,2.38
-4.0,-9.0,2.381
6.0,0.0,2.382
19.0,3.0,2.383
35.0,0.0,2.384
44.0,-1.0,2.385
39.0,4.0,2.386
21.0,5.0,2.387
4.0,0.0,2.388
-2.0,-3.0,2.389
-7.0,1.0,2.39
-18.0,5.0,2.391
-31.0,2.0,2.392
-32.0,-1.0,2.393
-20.0,-1.0,2.394
-7.0,0.0,2.395
2.0,0.0,2.396
8.0,0.0,2.397
9.0,0.0,2.398
5.0,2.0,2.399
1.0,3.0,2.4
1.0,-1.0,2.401
4.0,-4.0,2.402
9.0,-4.0,2.403
14.0,-1.0,2.404
12.0,1.0,2.405
7.0,1.0,2.406
3.0,0.0,2.407
7.0,3.0,2.408
10.0,8.0,2.409
6.0,8.0,2.41
1.0,7.0,2.411
5.0,2.0,2.412
14.0,-2.0,2.413
17.0,-5.0,2.414
15.0,-8.0,2.415
11.0,-9.0,2.416
13.0,-3.0,2.417
11.0,-2.0,2.418
7.0,-2.0,2.419
-4.0,-2.0,2.42
-16.0,0.0,2.421
-22.0,7.0,2.422
-15.0,7.0,2.423
-1.0,-2.0,2.424
8.0,-8.0,2.425
6.0,-5.0,2.426
3.0,1.0,2.427
-2.0,2.0,2.428
-6.0,-1.0,2.429
-13.0,-2.0,2.43
-13.0,-1.0,2.431
-8.0,-2.0,2.432
-3.0,-5.0,2.433
2.0,-6.0,2.434
11.0,-3.0,2.435
22.0,-1.0,2.436
30.0,1.0,2.437
27.0,0.0,2.438
19.0,-1.0,2.439
7.0,-3.0,2.44
1.0,-7.0,2.441
0.0,-6.0,2.442
-1.0,0.0,2.443
-1.0,4.0,2.444
3.0,8.0,2.445
11.0,8.0,2.446
11.0,4.0,2.447
-2.0,2.0,2.448
-15.0,5.0,2.449
-14.0,8.0,2.45
-7.0,3.0,2.451
-7.0,-4.0,2.452
-10.0,-4.0,2.453
-3.0,0.0,2.454
8.0,1.0,2.455
12.0,-4.0,2.456
7.0,-9.0,2.457
4.0,-12.0,2.458
5.0,-10.0,2.459
1.0,-9.0,2.46
-5.0,-10.0,2.461
-9.0,-8.0,2.462
-5.0,-3.0,2.463
0.0,0.0,2.464
3.0,2.0,2.465
5.0,5.0,2.466
10.0,7.0,2.467
17.0,3.0,2.468
20.0,-3.0,2.469
16.0,-6.0,2.47
5.0,-2.0,2.471
-4.0,4.0,2.472
-6.0,9.0,2.473
0.0,10.0,2.474
5.0,3.0,2.475
7.0,-3.0,2.476
7.0,-2.0,2.477
8.0,2.0,2.478
7.0,4.0,2.479
1.0,0.0,2.48
-5.0,-4.0,2.481
-6.0,1.0,2.482
0.0,5.0,2.483
8.0,5.0,2.484
5.0,6.0,2.485
-4.0,11.0,2.486
-10.0,12.0,2.487
-6.0,7.0,2.488
1.0,5.0,2.489
8.0,9.0,2.49
10.0,7.0,2.491
14.0,-4.0,2.492
14.0,-12.0,2.493
9.0,-4.0,2.494
2.0,4.0,2.495
-4.0,-1.0,2.496
-6.0,-13.0,2.497
-5.0,-16.0,2.498
11.0,-11.0,2.499
28.0,-9.0,2.5
29.0,-12.0,2.501
10.0,-7.0,2.502
-11.0,1.0,2.503
-18.0,4.0,2.504
-15.0,0.0,2.505
-15.0,-4.0,2.506
-17.0,-5.0,2.507
-12.0,-4.0,2.508
-3.0,1.0,2.509
1.0,7.0,2.51
1.0,7.0,2.511
5.0,-1.0,2.512
18.0,-7.0,2.513
29.0,-6.0,2.514
29.0,-2.0,2.515
18.0,-5.0,2.516
4.0,-4.0,2.517
-11.0,0.0,2.518
-24.0,3.0,2.519
-30.0,-1.0,2.52
-24.0,-7.0,2.521
-12.0,0.0,2.522
0.0,10.0,2.523
5.0,10.0,2.524
4.0,3.0,2.525
8.0,0.0,2.526
19.0,4.0,2.527
25.0,4.0,2.528
21.0,-2.0,2.529
8.0,-1.0,2.53
1.0,5.0,2.531
5.0,4.0,2.532
6.0,-5.0,2.533
1.0,-11.0,2.534
0.0,-5.0,2.535
5.0,-1.0,2.536
7.0,-3.0,2.537
1.0,-5.0,2.538
-2.0,0.0,2.539
-3.0,8.0,2.54
-4.0,2.0,2.541
-3.0,-8.0,2.542
-2.0,-11.0,2.543
3.0,-7.0,2.544
3.0,-1.0,2.545
1.0,1.0,2.546
4.0,4.0,2.547
13.0,3.0,2.548
17.0,-2.0,2.549
17.0,-6.0,2.55
11.0,-3.0,2.551
5.0,3.0,2.552
-1.0,8.0,2.553
0.0,8.0,2.554
8.0,5.0,2.555
11.0,0.0,2.556
6.0,-1.0,2.557
1.0,-1.0,2.558
4.0,-2.0,2.559
5.0,-6.0,2.56
2.0,-13.0,2.561
0.0,-12.0,2.562
9.0,-5.0,2.563
14.0,4.0,2.564
2.0,8.0,2.565
-18.0,6.0,2.566
-26.0,2.0,2.567
-17.0,1.0,2.568
-4.0,6.0,2.569
3.0,6.0,2.57
2.0,-2.0,2.571
0.0,-9.0,2.572
3.0,-8.0,2.573
8.0,1.0,2.574
11.0,4.0,2.575
6.0,-1.0,2.576
0.0,-1.0,2.577
-9.0,2.0,2.578
-16.0,5.0,2.579
-18.0,0.0,2.58
-9.0,-8.0,2.581
7.0,-9.0,2.582
24.0,-6.0,2.583
42.0,-3.0,2.584
57.0,-1.0,2.585
59.0,2.0,2.586
41.0,5.0,2.587
15.0,6.0,2.588
-6.0,6.0,2.589
-19.0,5.0,2.59
-31.0,2.0,2.591
-41.0,0.0,2.592
-40.0,2.0,2.593
-26.0,7.0,2.594
-8.0,8.0,2.595
4.0,6.0,2.596
11.0,4.0,2.597
8.0,-2.0,2.598
0.0,-8.0,2.599
-5.0,-12.0,2.6
-6.0,-11.0,2.601
-3.0,-6.0,2.602
1.0,-2.0,2.603
5.0,3.0,2.604
5.0,10.0,2.605
0.0,14.0,2.606
-1.0,7.0,2.607
3.0,-2.0,2.608
4.0,-7.0,2.609
0.0,-6.0,2.61
-6.0,-3.0,2.611
-10.0,-4.0,2.612
-9.0,-6.0,2.613
-3.0,-7.0,2.614
4.0,-7.0,2.615
12.0,-7.0,2.616
14.0,-3.0,2.617
11.0,0.0,2.618
11.0,1.0,2.619
13.0,-2.0,2.62
15.0,-6.0,2.621
16.0,-3.0,2.622
20.0,1.0,2.623
22.0,1.0,2.624
20.0,0.0,2.625
14.0,2.0,2.626
10.0,6.0,2.627
4.0,12.0,2.628
-6.0,16.0,2.629
-10.0,14.0,2.63
-1.0,5.0,2.631
12.0,-4.0,2.632
11.0,-7.0,2.633
0.0,-3.0,2.634
-4.0,-5.0,2.635
-3.0,-10.0,2.636
-3.0,-10.0,2.637
-10.0,-4.0,2.638
-12.0,0.0,2.639
-6.0,-4.0,2.64
-4.0,-7.0,2.641
-3.0,-3.0,2.642
0.0,0.0,2.643
8.0,-1.0,2.644
10.0,0.0,2.645
1.0,6.0,2.646
-7.0,8.0,2.647
-8.0,0.0,2.648
-4.0,-7.0,2.649
-1.0,-4.0,2.65
4.0,3.0,2.651
14.0,5.0,2.652
24.0,1.0,2.653
29.0,-3.0,2.654
31.0,-5.0,2.655
33.0,-4.0,2.656
38.0,-3.0,2.657
33.0,-4.0,2.658
16.0,-4.0,2.659
-12.0,-3.0,2.66
-30.0,-3.0,2.661
-35.0,-2.0,2.662
-34.0,0.0,2.663
-29.0,3.0,2.664
-24.0,8.0,2.665
-18.0,10.0,2.666
-13.0,10.0,2.667
-6.0,7.0,2.668
2.0,7.0,2.669
10.0,11.0,2.67
10.0,12.0,2.671
7.0,8.0,2.672
11.0,2.0,2.673
11.0,-2.0,2.674
9.0,-6.0,2.675
5.0,-10.0,2.676
6.0,-10.0,2.677
6.0,-8.0,2.678
3.0,-7.0,2.679
1.0,-8.0,2.68
4.0,-11.0,2.681
7.0,-7.0,2.682
10.0,0.0,2.683
15.0,2.0,2.684
16.0,0.0,2.685
10.0,-1.0,2.686
-1.0,-1.0,2.687
-4.0,0.0,2.688
-1.0,0.0,2.689
1.0,2.0,2.69
-1.0,1.0,2.691
-3.0,-3.0,2.692
-5.0,-7.0,2.693
-7.0,-7.0,2.694
-6.0,0.0,2.695
1.0,5.0,2.696
12.0,3.0,2.697
21.0,-4.0,2.698
24.0,-4.0,2.699
20.0,0.0,2.7
8.0,-2.0,2.701
-3.0,-7.0,2.702
-1.0,-5.0,2.703
10.0,3.0,2.704
12.0,9.0,2.705
4.0,7.0,2.706
-2.0,1.0,2.707
-1.0,-2.0,2.708
-3.0,-3.0,2.709
-12.0,-5.0,2.71
-16.0,-5.0,2.711
-7.0,-3.0,2.712
1.0,1.0,2.713
1.0,0.0,2.714
4.0,-4.0,2.715
16.0,-6.0,2.716
27.0,-1.0,2.717
23.0,3.0,2.718
10.0,3.0,2.719
-1.0,-1.0,2.72
-6.0,-5.0,2.721
-8.0,-1.0,2.722
-6.0,1.0,2.723
0.0,1.0,2.724
3.0,0.0,2.725
-6.0,3.0,2.726
-22.0,6.0,2.727
-27.0,4.0,2.728
-21.0,-2.0,2.729
-11.0,-5.0,2.73
0.0,-4.0,2.731
15.0,-2.0,2.732
29.0,-3.0,2.733
42.0,-1.0,2.734
52.0,0.0,2.735
58.0,-4.0,2.736
53.0,-5.0,2.737
26.0,-4.0,2.738
-11.0,2.0,2.739
-37.0,3.0,2.74
-42.0,-2.0,2.741
-35.0,-1.0,2.742
-31.0,4.0,2.743
-31.0,9.0,2.744
-26.0,10.0,2.745
-15.0,10.0,2.746
-2.0,6.0,2.747
1.0,-2.0,2.748
4.0,-5.0,2.749
8.0,1.0,2.75
10.0,5.0,2.751
8.0,-1.0,2.752
9.0,-10.0,2.753
12.0,-10.0,2.754
16.0,-4.0,2.755
12.0,-6.0,2.756
9.0,-11.0,2.757
8.0,-14.0,2.758
11.0,-9.0,2.759
9.0,-4.0,2.76
0.0,-6.0,2.761
-7.0,-5.0,2.762
-5.0,1.0,2.763
0.0,5.0,2.764
3.0,6.0,2.765
5.0,5.0,2.766
15.0,2.0,2.767
25.0,-2.0,2.768
28.0,-3.0,2.769
24.0,3.0,2.77
17.0,13.0,2.771
10.0,17.0,2.772
-2.0,14.0,2.773
-7.0,8.0,2.774
-7.0,0.0,2.775
-5.0,-8.0,2.776
-7.0,-9.0,2.777
-10.0,-6.0,2.778
-4.0,-2.0,2.779
0.0,0.0,2.78
-1.0,-4.0,2.781
-4.0,-8.0,2.782
-4.0,-7.0,2.783
-1.0,0.0,2.784
-2.0,8.0,2.785
-1.0,9.0,2.786
3.0,1.0,2.787
6.0,-5.0,2.788
3.0,-3.0,2.789
4.0,0.0,2.79
14.0,0.0,2.791
21.0,-5.0,2.792
19.0,-7.0,2.793
15.0,-3.0,2.794
12.0,1.0,2.795
1.0,-1.0,2.796
-16.0,-7.0,2.797
-27.0,-15.0,2.798
-20.0,-15.0,2.799
-3.0,-12.0,2.8
6.0,-8.0,2.801
10.0,-4.0,2.802
14.0,3.0,2.803
16.0,12.0,2.804
8.0,20.0,2.805
0.0,21.0,2.806
2.0,12.0,2.807
8.0,2.0,2.808
6.0,-3.0,2.809
0.0,-3.0,2.81
0.0,-8.0,2.811
2.0,-11.0,2.812
0.0,-9.0,2.813
-6.0,1.0,2.814
-9.0,8.0,2.815
-8.0,1.0,2.816
-6.0,-5.0,2.817
-5.0,-6.0,2.818
-4.0,4.0,2.819
-5.0,11.0,2.82
-8.0,4.0,2.821
-4.0,-4.0,2.822
10.0,-7.0,2.823
20.0,-5.0,2.824
20.0,-4.0,2.825
18.0,-5.0,2.826
22.0,-5.0,2.827
27.0,-2.0,2.828
21.0,3.0,2.829
6.0,6.0,2.83
-6.0,5.0,2.831
-9.0,-1.0,2.832
-17.0,-7.0,2.833
-31.0,-6.0,2.834
-39.0,6.0,2.835
-34.0,16.0,2.836
-19.0,16.0,2.837
-10.0,7.0,2.838
-4.0,1.0,2.839
1.0,1.0,2.84
5.0,0.0,2.841
8.0,-3.0,2.842
13.0,-5.0,2.843
23.0,-4.0,2.844
32.0,0.0,2.845
33.0,0.0,2.846
25.0,-4.0,2.847
19.0,-6.0,2.848
15.0,-5.0,2.849
11.0,-3.0,2.85
5.0,-1.0,2.851
2.0,2.0,2.852
2.0,6.0,2.853
2.0,2.0,2.854
1.0,-6.0,2.855
-2.0,-10.0,2.856
-5.0,-5.0,2.857
-11.0,-2.0,2.858
-12.0,-4.0,2.859
-5.0,-7.0,2.86
4.0,-7.0,2.861
11.0,-4.0,2.862
18.0,-3.0,2.863
23.0,-1.0,2.864
14.0,7.0,2.865
-4.0,11.0,2.866
-12.0,6.0,2.867
-1.0,1.0,2.868
9.0,4.0,2.869
4.0,9.0,2.87
-4.0,5.0,2.871
-2.0,-2.0,2.872
2.0,-3.0,2.873
-3.0,-1.0,2.874
-9.0,-4.0,2.875
-7.0,-10.0,2.876
3.0,-11.0,2.877
12.0,-8.0,2.878
16.0,-3.0,2.879
19.0,-1.0,2.88
14.0,0.0,2.881
9.0,3.0,2.882
3.0,3.0,2.883
-3.0,1.0,2.884
-13.0,2.0,2.885
-19.0,6.0,2.886
-13.0,10.0,2.887
-7.0,11.0,2.888
-4.0,10.0,2.889
-2.0,6.0,2.89
-6.0,0.0,2.891
-7.0,-7.0,2.892
1.0,-9.0,2.893
7.0,-6.0,2.894
7.0,-2.0,2.895
7.0,2.0,2.896
5.0,6.0,2.897
5.0,3.0,2.898
6.0,-4.0,2.899
5.0,-10.0,2.9
-1.0,-14.0,2.901
-5.0,-9.0,2.902
-3.0,-2.0,2.903
3.0,5.0,2.904
5.0,4.0,2.905
5.0,-3.0,2.906
10.0,-9.0,2.907
12.0,-6.0,2.908
6.0,6.0,2.909
2.0,18.0,2.91
7.0,21.0,2.911
13.0,12.0,2.912
7.0,1.0,2.913
-1.0,-2.0,2.914
-1.0,-1.0,2.915
4.0,-1.0,2.916
4.0,-5.0,2.917
2.0,-6.0,2.918
2.0,-4.0,2.919
4.0,-5.0,2.92
0.0,-13.0,2.921
-3.0,-18.0,2.922
3.0,-16.0,2.923
12.0,-14.0,2.924
10.0,-6.0,2.925
-4.0,8.0,2.926
-18.0,20.0,2.927
-21.0,18.0,2.928
-14.0,9.0,2.929
-3.0,7.0,2.93
9.0,7.0,2.931
18.0,0.0,2.932
24.0,-9.0,2.933
28.0,-7.0,2.934
31.0,2.0,2.935
27.0,3.0,2.936
18.0,-1.0,2.937
2.0,-1.0,2.938
-13.0,0.0,2.939
-31.0,-7.0,2.94
-45.0,-15.0,2.941
-46.0,-8.0,2.942
-30.0,8.0,2.943
-10.0,12.0,2.944
2.0,6.0,2.945
6.0,4.0,2.946
11.0,4.0,2.947
18.0,-1.0,2.948
21.0,-6.0,2.949
22.0,-3.0,2.95
20.0,1.0,2.951
11.0,-5.0,2.952
-6.0,-12.0,2.953
-21.0,-8.0,2.954
-18.0,2.0,2.955
0.0,6.0,2.956
14.0,6.0,2.957
12.0,6.0,2.958
0.0,5.0,2.959
-6.0,-5.0,2.96
-11.0,-18.0,2.961
-12.0,-14.0,2.962
-3.0,-2.0,2.963
18.0,3.0,2.964
34.0,0.0,2.965
30.0,3.0,2.966
15.0,12.0,2.967
0.0,17.0,2.968
-12.0,9.0,2.969
-23.0,0.0,2.97
-27.0,-5.0,2.971
-16.0,-7.0,2.972
2.0,-14.0,2.973
13.0,-17.0,2.974
15.0,-9.0,2.975
15.0,3.0,2.976
19.0,10.0,2.977
21.0,4.0,2.978
24.0,-6.0,2.979
27.0,-9.0,2.98
25.0,-10.0,2.981
14.0,-8.0,2.982
3.0,-8.0,2.983
2.0,-5.0,2.984
5.0,4.0,2.985
3.0,14.0,2.986
1.0,17.0,2.987
2.0,18.0,2.988
0.0,19.0,2.989
-8.0,19.0,2.99
-18.0,11.0,2.991
-17.0,-3.0,2.992
-10.0,-11.0,2.993
-5.0,-7.0,2.994
-1.0,3.0,2.995
4.0,5.0,2.996
6.0,1.0,2.997
-2.0,-8.0,2.998
-9.0,-14.0,2.999
-9.0,-15.0,3.0
-4.0,-13.0,3.001
-1.0,-6.0,3.002
4.0,-1.0,3.003
13.0,-1.0,3.004
18.0,3.0,3.005
15.0,11.0,3.006
13.0,14.0,3.007
19.0,10.0,3.008
19.0,7.0,3.009
6.0,7.0,3.01
-6.0,4.0,3.011
-7.0,-2.0,3.012
-4.0,-3.0,3.013
-10.0,2.0,3.014
-18.0,0.0,3.015
-16.0,-11.0,3.016
-7.0,-15.0,3.017
-7.0,-11.0,3.018
-10.0,-7.0,3.019
-11.0,-12.0,3.02
-5.0,-22.0,3.021
-1.0,-16.0,3.022
4.0,0.0,3.023
11.0,10.0,3.024
12.0,10.0,3.025
6.0,3.0,3.026
5.0,-1.0,3.027
11.0,-4.0,3.028
16.0,-6.0,3.029
10.0,-9.0,3.03
3.0,-11.0,3.031
2.0,-6.0,3.032
5.0,2.0,3.033
8.0,9.0,3.034
10.0,9.0,3.035
14.0,5.0,3.036
14.0,4.0,3.037
7.0,0.0,3.038
-1.0,-4.0,3.039
-8.0,-6.0,3.04
-12.0,-7.0,3.041
-13.0,-5.0,3.042
-3.0,-3.0,3.043
11.0,3.0,3.044
13.0,11.0,3.045
2.0,14.0,3.046
-4.0,14.0,3.047
3.0,11.0,3.048
13.0,6.0,3.049
12.0,2.0,3.05
6.0,0.0,3.051
3.0,0.0,3.052
2.0,0.0,3.053
-4.0,3.0,3.054
-6.0,2.0,3.055
2.0,0.0,3.056
13.0,-3.0,3.057
12.0,-7.0,3.058
5.0,-9.0,3.059
0.0,-8.0,3.06
1.0,-10.0,3.061
1.0,-11.0,3.062
6.0,-6.0,3.063
13.0,7.0,3.064
13.0,22.0,3.065
3.0,26.0,3.066
-1.0,16.0,3.067
3.0,3.0,3.068
4.0,-6.0,3.069
-3.0,-10.0,3.07
-10.0,-9.0,3.071
-5.0,-2.0,3.072
5.0,9.0,3.073
6.0,10.0,3.074
3.0,2.0,3.075
4.0,-5.0,3.076
7.0,-6.0,3.077
4.0,-5.0,3.078
-6.0,-2.0,3.079
-16.0,1.0,3.08
-22.0,0.0,3.081
-25.0,-5.0,3.082
-20.0,-10.0,3.083
-7.0,-9.0,3.084
7.0,2.0,3.085
19.0,10.0,3.086
29.0,2.0,3.087
36.0,-11.0,3.088
29.0,-9.0,3.089
13.0,5.0,3.09
1.0,10.0,3.091
2.0,0.0,3.092
7.0,-8.0,3.093
5.0,0.0,3.094
-2.0,10.0,3.095
-2.0,8.0,3.096
4.0,0.0,3.097
7.0,-6.0,3.098
1.0,-5.0,3.099
-11.0,-6.0,3.1
-23.0,-6.0,3.101
-23.0,3.0,3.102
-6.0,12.0,3.103
11.0,13.0,3.104
17.0,6.0,3.105
14.0,-1.0,3.106
14.0,-6.0,3.107
15.0,-12.0,3.108
10.0,-16.0,3.109
0.0,-12.0,3.11
-2.0,-5.0,3.111
3.0,-5.0,3.112
2.0,-7.0,3.113
-4.0,-3.0,3.114
-6.0,6.0,3.115
-1.0,9.0,3.116
5.0,3.0,3.117
6.0,-7.0,3.118
10.0,-9.0,3.119
12.0,-6.0,3.12
8.0,-5.0,3.121
4.0,-1.0,3.122
10.0,8.0,3.123
17.0,13.0,3.124
13.0,9.0,3.125
0.0,-3.0,3.126
-8.0,-12.0,3.127
-13.0,-12.0,3.128
-19.0,-9.0,3.129
-23.0,-3.0,3.13
-20.0,4.0,3.131
-11.0,11.0,3.132
-5.0,11.0,3.133
-2.0,2.0,3.134
4.0,-4.0,3.135
12.0,-5.0,3.136
11.0,-1.0,3.137
2.0,-2.0,3.138
1.0,-7.0,3.139
7.0,-8.0,3.14
8.0,-7.0,3.141
5.0,-3.0,3.142
8.0,-2.0,3.143
14.0,-1.0,3.144
15.0,5.0,3.145
7.0,14.0,3.146
3.0,19.0,3.147
7.0,12.0,3.148
12.0,0.0,3.149
9.0,-4.0,3.15
6.0,-2.0,3.151
4.0,-2.0,3.152
2.0,-4.0,3.153
1.0,-5.0,3.154
4.0,-2.0,3.155
11.0,0.0,3.156
16.0,0.0,3.157
13.0,-6.0,3.158
3.0,-8.0,3.159
-10.0,-5.0,3.16
-20.0,-3.0,3.161
-18.0,3.0,3.162
-4.0,6.0,3.163
10.0,5.0,3.164
11.0,0.0,3.165
6.0,0.0,3.166
7.0,1.0,3.167
12.0,7.0,3.168
8.0,10.0,3.169
-4.0,10.0,3.17
-7.0,8.0,3.171
1.0,1.0,3.172
6.0,-5.0,3.173
-2.0,-10.0,3.174
-17.0,-16.0,3.175
-19.0,-19.0,3.176
-10.0,-16.0,3.177
0.0,-8.0,3.178
11.0,3.0,3.179
16.0,14.0,3.18
17.0,19.0,3.181
13.0,16.0,3.182
15.0,3.0,3.183
19.0,-8.0,3.184
21.0,-8.0,3.185
18.0,2.0,3.186
14.0,4.0,3.187
12.0,-4.0,3.188
9.0,-9.0,3.189
1.0,-7.0,3.19
-8.0,-5.0,3.191
-10.0,-6.0,3.192
-7.0,-7.0,3.193
-4.0,-3.0,3.194
-6.0,-4.0,3.195
-5.0,-5.0,3.196
3.0,4.0,3.197
14.0,17.0,3.198
20.0,21.0,3.199
15.0,9.0,3.2
5.0,-7.0,3.201
-6.0,-10.0,3.202
-10.0,-9.0,3.203
-8.0,-6.0,3.204
-7.0,-1.0,3.205
-13.0,8.0,3.206
-22.0,14.0,3.207
-26.0,11.0,3.208
-22.0,7.0,3.209
-13.0,7.0,3.21
-7.0,6.0,3.211
-4.0,2.0,3.212
3.0,-1.0,3.213
19.0,-2.0,3.214
30.0,-3.0,3.215
23.0,-9.0,3.216
6.0,-12.0,3.217
-1.0,-10.0,3.218
6.0,-6.0,3.219
12.0,-3.0,3.22
8.0,-7.0,3.221
5.0,-9.0,3.222
11.0,-6.0,3.223
10.0,-1.0,3.224
0.0,7.0,3.225
-1.0,10.0,3.226
7.0,4.0,3.227
7.0,-3.0,3.228
-8.0,-2.0,3.229
-16.0,7.0,3.23
-7.0,8.0,3.231
2.0,-3.0,3.232
3.0,-13.0,3.233
2.0,-15.0,3.234
9.0,-10.0,3.235
14.0,-8.0,3.236
12.0,-8.0,3.237
8.0,-6.0,3.238
15.0,-1.0,3.239
16.0,1.0,3.24
9.0,-4.0,3.241
1.0,-3.0,3.242
7.0,8.0,3.243
15.0,17.0,3.244
6.0,10.0,3.245
-14.0,-3.0,3.246
-22.0,-5.0,3.247
-11.0,5.0,3.248
5.0,13.0,3.249
8.0,14.0,3.25
1.0,8.0,3.251
-1.0,0.0,3.252
6.0,-5.0,3.253
15.0,-1.0,3.254
12.0,7.0,3.255
4.0,8.0,3.256
4.0,-2.0,3.257
5.0,-14.0,3.258
3.0,-16.0,3.259
-4.0,-11.0,3.26
-6.0,-14.0,3.261
0.0,-16.0,3.262
8.0,-6.0,3.263
11.0,7.0,3.264
7.0,11.0,3.265
1.0,3.0,3.266
-2.0,2.0,3.267
-4.0,9.0,3.268
-4.0,16.0,3.269
-3.0,14.0,3.27
-2.0,6.0,3.271
0.0,-4.0,3.272
0.0,-9.0,3.273
1.0,-13.0,3.274
4.0,-19.0,3.275
8.0,-24.0,3.276
6.0,-18.0,3.277
-8.0,0.0,3.278
-23.0,13.0,3.279
-28.0,20.0,3.28
-17.0,1.0,3.281
-2.0,-11.0,3.282
11.0,1.0,3.283
19.0,10.0,3.284
20.0,10.0,3.285
19.0,9.0,3.286
19.0,6.0,3.287
20.0,2.0,3.288
19.0,-4.0,3.289
15.0,-7.0,3.29
8.0,2.0,3.291
6.0,7.0,3.292
9.0,-2.0,3.293
11.0,-8.0,3.294
11.0,1.0,3.295
10.0,7.0,3.296
11.0,5.0,3.297
10.0,2.0,3.298
0.0,-1.0,3.299
-16.0,-2.0,3.3
-23.0,-9.0,3.301
-16.0,-11.0,3.302
-4.0,-3.0,3.303
0.0,4.0,3.304
0.0,2.0,3.305
0.0,-2.0,3.306
3.0,0.0,3.307
0.0,4.0,3.308
-6.0,2.0,3.309
-9.0,-2.0,3.31
-5.0,-7.0,3.311
2.0,-7.0,3.312
6.0,-3.0,3.313
1.0,0.0,3.314
-3.0,-3.0,3.315
-2.0,-13.0,3.316
8.0,-18.0,3.317
18.0,-9.0,3.318
21.0,3.0,3.319
11.0,6.0,3.32
1.0,-3.0,3.321
-2.0,-5.0,3.322
5.0,0.0,3.323
14.0,4.0,3.324
11.0,3.0,3.325
2.0,2.0,3.326
-6.0,5.0,3.327
-8.0,5.0,3.328
-9.0,0.0,3.329
-8.0,-4.0,3.33
-1.0,-4.0,3.331
10.0,-2.0,3.332
14.0,-4.0,3.333
10.0,-7.0,3.334
0.0,-9.0,3.335
-7.0,-6.0,3.336
-11.0,2.0,3.337
-17.0,10.0,3.338
-19.0,15.0,3.339
-15.0,11.0,3.34
-7.0,-1.0,3.341
0.0,-11.0,3.342
6.0,-13.0,3.343
12.0,-9.0,3.344
14.0,-7.0,3.345
12.0,-7.0,3.346
10.0,-5.0,3.347
11.0,-2.0,3.348
9.0,7.0,3.349
3.0,18.0,3.35
-3.0,25.0,3.351
1.0,20.0,3.352
7.0,8.0,3.353
9.0,0.0,3.354
4.0,4.0,3.355
4.0,9.0,3.356
14.0,8.0,3.357
23.0,0.0,3.358
23.0,-8.0,3.359
15.0,-12.0,3.36
11.0,-14.0,3.361
10.0,-8.0,3.362
10.0,0.0,3.363
8.0,8.0,3.364
9.0,7.0,3.365
6.0,1.0,3.366
0.0,-6.0,3.367
-7.0,-15.0,3.368
-9.0,-18.0,3.369
-8.0,-11.0,3.37
-7.0,-2.0,3.371
-8.0,0.0,3.372
-10.0,-1.0,3.373
-12.0,1.0,3.374
-12.0,10.0,3.375
-7.0,12.0,3.376
0.0,4.0,3.377
7.0,-7.0,3.378
5.0,-10.0,3.379
-1.0,-6.0,3.38
-5.0,-7.0,3.381
-2.0,-9.0,3.382
10.0,-6.0,3.383
22.0,1.0,3.384
21.0,10.0,3.385
7.0,12.0,3.386
-6.0,9.0,3.387
-11.0,8.0,3.388
-11.0,9.0,3.389
-11.0,10.0,3.39
-11.0,7.0,3.391
-8.0,-2.0,3.392
-5.0,-12.0,3.393
-4.0,-19.0,3.394
1.0,-16.0,3.395
11.0,-5.0,3.396
18.0,2.0,3.397
19.0,0.0,3.398
20.0,-1.0,3.399
21.0,1.0,3.4
18.0,-3.0,3.401
13.0,-11.0,3.402
13.0,-12.0,3.403
16.0,-2.0,3.404
16.0,4.0,3.405
8.0,1.0,3.406
0.0,0.0,3.407
-2.0,7.0,3.408
-10.0,14.0,3.409
-24.0,12.0,3.41
-29.0,10.0,3.411
-16.0,9.0,3.412
-1.0,9.0,3.413
-1.0,5.0,3.414
-7.0,4.0,3.415
-4.0,4.0,3.416
6.0,0.0,3.417
9.0,-10.0,3.418
3.0,-14.0,3.419
-2.0,-7.0,3.42
-3.0,-2.0,3.421
0.0,-8.0,3.422
4.0,-22.0,3.423
13.0,-26.0,3.424
17.0,-12.0,3.425
13.0,18.0,3.426
5.0,42.0,3.427
1.0,37.0,3.428
1.0,8.0,3.429
-1.0,-12.0,3.43
0.0,-7.0,3.431
9.0,7.0,3.432
15.0,2.0,3.433
13.0,-8.0,3.434
11.0,-8.0,3.435
12.0,0.0,3.436
14.0,0.0,3.437
5.0,-12.0,3.438
-4.0,-16.0,3.439
-11.0,-7.0,3.44
-13.0,-5.0,3.441
-12.0,-11.0,3.442
-2.0,-16.0,3.443
11.0,-8.0,3.444
18.0,3.0,3.445
12.0,6.0,3.446
0.0,3.0,3.447
-7.0,3.0,3.448
-15.0,5.0,3.449
-21.0,4.0,3.45
-13.0,1.0,3.451
4.0,-1.0,3.452
17.0,-2.0,3.453
17.0,-2.0,3.454
14.0,0.0,3.455
17.0,-3.0,3.456
19.0,-5.0,3.457
13.0,-7.0,3.458
9.0,-6.0,3.459
6.0,1.0,3.46
-1.0,6.0,3.461
-8.0,8.0,3.462
0.0,5.0,3.463
17.0,1.0,3.464
17.0,5.0,3.465
-2.0,12.0,3.466
-17.0,16.0,3.467
-13.0,16.0,3.468
-2.0,18.0,3.469
0.0,16.0,3.47
-2.0,5.0,3.471
4.0,-10.0,3.472
7.0,-16.0,3.473
0.0,-16.0,3.474
-6.0,-19.0,3.475
-3.0,-25.0,3.476
6.0,-21.0,3.477
7.0,-11.0,3.478
2.0,-4.0,3.479
-3.0,-6.0,3.48
-6.0,-11.0,3.481
-5.0,-7.0,3.482
3.0,2.0,3.483
12.0,6.0,3.484
12.0,8.0,3.485
4.0,13.0,3.486
1.0,18.0,3.487
3.0,15.0,3.488
8.0,6.0,3.489
15.0,-2.0,3.49
24.0,-5.0,3.491
28.0,-7.0,3.492
23.0,-10.0,3.493
10.0,-11.0,3.494
-4.0,-8.0,3.495
-17.0,2.0,3.496
-28.0,21.0,3.497
-25.0,31.0,3.498
-11.0,25.0,3.499
-2.0,9.0,3.5
-6.0,-5.0,3.501
-9.0,-6.0,3.502
-3.0,-6.0,3.503
3.0,-8.0,3.504
2.0,-10.0,3.505
3.0,-8.0,3.506
11.0,-6.0,3.507
12.0,-2.0,3.508
-1.0,7.0,3.509
-9.0,11.0,3.51
-3.0,3.0,3.511
3.0,-13.0,3.512
-1.0,-17.0,3.513
-9.0,0.0,3.514
-14.0,15.0,3.515
-13.0,6.0,3.516
-7.0,-9.0,3.517
6.0,-17.0,3.518
17.0,-11.0,3.519
10.0,-9.0,3.52
-3.0,-14.0,3.521
1.0,-9.0,3.522
24.0,3.0,3.523
45.0,13.0,3.524
48.0,10.0,3.525
36.0,2.0,3.526
22.0,0.0,3.527
9.0,4.0,3.528
-3.0,9.0,3.529
-13.0,11.0,3.53
-27.0,8.0,3.531
-43.0,0.0,3.532
-50.0,-9.0,3.533
-41.0,-15.0,3.534
-23.0,-19.0,3.535
-1.0,-21.0,3.536
19.0,-19.0,3.537
36.0,-8.0,3.538
42.0,6.0,3.539
34.0,16.0,3.54
17.0,11.0,3.541
5.0,9.0,3.542
7.0,10.0,3.543
16.0,9.0,3.544
17.0,0.0,3.545
11.0,-10.0,3.546
4.0,-9.0,3.547
3.0,1.0,3.548
1.0,13.0,3.549
-4.0,20.0,3.55
-9.0,16.0,3.551
-8.0,2.0,3.552
-6.0,-12.0,3.553
-7.0,-12.0,3.554
-7.0,-5.0,3.555
-5.0,-5.0,3.556
-6.0,-12.0,3.557
-13.0,-13.0,3.558
-18.0,-1.0,3.559
-20.0,6.0,3.56
-10.0,-7.0,3.561
0.0,-23.0,3.562
5.0,-24.0,3.563
10.0,-10.0,3.564
6.0,0.0,3.565
3.0,3.0,3.566
9.0,6.0,3.567
17.0,10.0,3.568
25.0,15.0,3.569
29.0,19.0,3.57
23.0,18.0,3.571
15.0,11.0,3.572
5.0,5.0,3.573
-3.0,3.0,3.574
-5.0,0.0,3.575
-5.0,-9.0,3.576
2.0,-18.0,3.577
10.0,-23.0,3.578
15.0,-21.0,3.579
9.0,-16.0,3.58
-5.0,-13.0,3.581
-16.0,-2.0,3.582
-11.0,15.0,3.583
5.0,26.0,3.584
14.0,21.0,3.585
6.0,15.0,3.586
-5.0,12.0,3.587
-6.0,7.0,3.588
-6.0,-6.0,3.589
-10.0,-11.0,3.59
-12.0,0.0,3.591
-4.0,15.0,3.592
3.0,15.0,3.593
6.0,-4.0,3.594
5.0,-23.0,3.595
9.0,-27.0,3.596
13.0,-21.0,3.597
17.0,-9.0,3.598
17.0,0.0,3.599
12.0,6.0,3.6
0.0,5.0,3.601
-9.0,4.0,3.602
-6.0,7.0,3.603
5.0,11.0,3.604
10.0,14.0,3.605
9.0,9.0,3.606
6.0,2.0,3.607
9.0,-1.0,3.608
5.0,-5.0,3.609
-5.0,-11.0,3.61
-17.0,-12.0,3.611
-22.0,-4.0,3.612
-22.0,3.0,3.613
-12.0,1.0,3.614
6.0,-7.0,3.615
22.0,-10.0,3.616
26.0,-4.0,3.617
21.0,-2.0,3.618
17.0,-9.0,3.619
13.0,-22.0,3.62
10.0,-28.0,3.621
9.0,-14.0,3.622
14.0,8.0,3.623
13.0,24.0,3.624
2.0,23.0,3.625
-3.0,15.0,3.626
5.0,9.0,3.627
17.0,6.0,3.628
12.0,3.0,3.629
-6.0,3.0,3.63
-22.0,2.0,3.631
-25.0,-4.0,3.632
-20.0,-10.0,3.633
-9.0,-9.0,3.634
4.0,-4.0,3.635
14.0,-1.0,3.636
19.0,2.0,3.637
25.0,4.0,3.638
31.0,4.0,3.639
24.0,2.0,3.64
-3.0,-11.0,3.641
-29.0,-18.0,3.642
-34.0,-6.0,3.643
-22.0,6.0,3.644
-8.0,14.0,3.645
7.0,19.0,3.646
25.0,10.0,3.647
36.0,2.0,3.648
29.0,0.0,3.649
12.0,-2.0,3.65
4.0,0.0,3.651
5.0,2.0,3.652
-1.0,0.0,3.653
-21.0,0.0,3.654
-37.0,2.0,3.655
-34.0,5.0,3.656
-16.0,4.0,3.657
-6.0,3.0,3.658
-6.0,4.0,3.659
-13.0,0.0,3.66
-7.0,-15.0,3.661
11.0,-25.0,3.662
26.0,-21.0,3.663
27.0,-9.0,3.664
16.0,3.0,3.665
3.0,8.0,3.666
-2.0,9.0,3.667
-2.0,6.0,3.668
0.0,6.0,3.669
3.0,11.0,3.67
6.0,17.0,3.671
10.0,15.0,3.672
12.0,5.0,3.673
7.0,-6.0,3.674
0.0,-12.0,3.675
-2.0,-15.0,3.676
0.0,-14.0,3.677
6.0,-9.0,3.678
6.0,-3.0,3.679
3.0,0.0,3.68
2.0,-2.0,3.681
4.0,-1.0,3.682
8.0,4.0,3.683
12.0,10.0,3.684
13.0,9.0,3.685
8.0,4.0,3.686
4.0,2.0,3.687
7.0,4.0,3.688
12.0,4.0,3.689
8.0,-5.0,3.69
-4.0,-18.0,3.691
-12.0,-23.0,3.692
-9.0,-14.0,3.693
-4.0,0.0,3.694
-2.0,9.0,3.695
1.0,8.0,3.696
11.0,0.0,3.697
18.0,-12.0,3.698
11.0,-18.0,3.699
-7.0,-9.0,3.7
-22.0,2.0,3.701
-24.0,5.0,3.702
-16.0,-6.0,3.703
-4.0,-14.0,3.704
2.0,-7.0,3.705
1.0,8.0,3.706
0.0,21.0,3.707
0.0,26.0,3.708
4.0,25.0,3.709
6.0,19.0,3.71
4.0,5.0,3.711
5.0,-6.0,3.712
14.0,-9.0,3.713
25.0,-5.0,3.714
30.0,4.0,3.715
22.0,6.0,3.716
11.0,0.0,3.717
1.0,-11.0,3.718
-3.0,-13.0,3.719
-11.0,-6.0,3.72
-21.0,-3.0,3.721
-20.0,-4.0,3.722
-2.0,-5.0,3.723
18.0,-4.0,3.724
28.0,-5.0,3.725
26.0,-6.0,3.726
19.0,-1.0,3.727
8.0,3.0,3.728
-9.0,0.0,3.729
-25.0,-6.0,3.73
-21.0,-4.0,3.731
-2.0,8.0,3.732
16.0,15.0,3.733
16.0,13.0,3.734
6.0,8.0,3.735
1.0,7.0,3.736
-1.0,6.0,3.737
-6.0,-1.0,3.738
-8.0,-7.0,3.739
-2.0,-5.0,3.74
5.0,-4.0,3.741
7.0,-3.0,3.742
10.0,-4.0,3.743
15.0,1.0,3.744
15.0,9.0,3.745
13.0,8.0,3.746
16.0,-2.0,3.747
29.0,-11.0,3.748
34.0,-14.0,3.749
18.0,-10.0,3.75
-8.0,-4.0,3.751
-27.0,5.0,3.752
-36.0,11.0,3.753
-40.0,10.0,3.754
-41.0,2.0,3.755
-37.0,-3.0,3.756
-25.0,-5.0,3.757
-9.0,-10.0,3.758
0.0,-21.0,3.759
-2.0,-27.0,3.76
-9.0,-22.0,3.761
-3.0,-9.0,3.762
16.0,0.0,3.763
29.0,5.0,3.764
24.0,9.0,3.765
14.0,11.0,3.766
16.0,10.0,3.767
22.0,11.0,3.768
19.0,14.0,3.769
9.0,12.0,3.77
5.0,1.0,3.771
6.0,-11.0,3.772
1.0,-15.0,3.773
-2.0,-12.0,3.774
5.0,-11.0,3.775
14.0,-12.0,3.776
16.0,-12.0,3.777
6.0,-8.0,3.778
-1.0,0.0,3.779
-5.0,10.0,3.78
-5.0,14.0,3.781
3.0,12.0,3.782
21.0,9.0,3.783
30.0,10.0,3.784
22.0,15.0,3.785
12.0,16.0,3.786
8.0,10.0,3.787
2.0,0.0,3.788
-12.0,-6.0,3.789
-23.0,-10.0,3.79
-23.0,-11.0,3.791
-17.0,-11.0,3.792
-16.0,-7.0,3.793
-14.0,0.0,3.794
-4.0,7.0,3.795
3.0,7.0,3.796
1.0,1.0,3.797
-3.0,-7.0,3.798
-2.0,-6.0,3.799
3.0,-2.0,3.8
2.0,-5.0,3.801
0.0,-7.0,3.802
6.0,-4.0,3.803
17.0,7.0,3.804
18.0,11.0,3.805
9.0,5.0,3.806
-2.0,-1.0,3.807
-4.0,-3.0,3.808
2.0,0.0,3.809
12.0,-2.0,3.81
18.0,-5.0,3.811
18.0,-5.0,3.812
7.0,-1.0,3.813
-10.0,7.0,3.814
-22.0,10.0,3.815
-18.0,8.0,3.816
0.0,0.0,3.817
20.0,-6.0,3.818
32.0,-1.0,3.819
28.0,7.0,3.82
13.0,2.0,3.821
-3.0,-10.0,3.822
-8.0,-17.0,3.823
2.0,-14.0,3.824
18.0,-5.0,3.825
19.0,-8.0,3.826
6.0,-14.0,3.827
-3.0,-12.0,3.828
2.0,-1.0,3.829
9.0,10.0,3.83
6.0,16.0,3.831
0.0,23.0,3.832
-1.0,27.0,3.833
-3.0,20.0,3.834
-11.0,1.0,3.835
-18.0,-12.0,3.836
-19.0,-10.0,3.837
-21.0,-8.0,3.838
-25.0,-12.0,3.839
-25.0,-12.0,3.84
-14.0,-6.0,3.841
-2.0,2.0,3.842
3.0,1.0,3.843
3.0,-6.0,3.844
5.0,-5.0,3.845
7.0,0.0,3.846
10.0,2.0,3.847
12.0,-3.0,3.848
14.0,-5.0,3.849
14.0,-2.0,3.85
13.0,0.0,3.851
11.0,0.0,3.852
3.0,1.0,3.853
-2.0,0.0,3.854
-1.0,-6.0,3.855
7.0,-9.0,3.856
13.0,-5.0,3.857
8.0,-3.0,3.858
5.0,-7.0,3.859
11.0,-14.0,3.86
23.0,-15.0,3.861
27.0,-3.0,3.862
24.0,11.0,3.863
18.0,13.0,3.864
9.0,4.0,3.865
-3.0,-2.0,3.866
-10.0,-2.0,3.867
-13.0,5.0,3.868
-17.0,9.0,3.869
-23.0,13.0,3.87
-23.0,18.0,3.871
-13.0,23.0,3.872
-3.0,22.0,3.873
0.0,12.0,3.874
2.0,4.0,3.875
7.0,3.0,3.876
12.0,6.0,3.877
6.0,4.0,3.878
-1.0,1.0,3.879
-3.0,0.0,3.88
2.0,-4.0,3.881
8.0,-10.0,3.882
13.0,-21.0,3.883
16.0,-23.0,3.884
13.0,-17.0,3.885
1.0,-8.0,3.886
-10.0,-2.0,3.887
-10.0,1.0,3.888
-3.0,2.0,3.889
-4.0,-2.0,3.89
-6.0,-8.0,3.891
0.0,-11.0,3.892
19.0,-9.0,3.893
29.0,-1.0,3.894
21.0,8.0,3.895
14.0,13.0,3.896
19.0,16.0,3.897
23.0,15.0,3.898
9.0,11.0,3.899
-9.0,1.0,3.9
-6.0,-17.0,3.901
12.0,-28.0,3.902
20.0,-26.0,3.903
10.0,-17.0,3.904
0.0,-4.0,3.905
-4.0,10.0,3.906
-9.0,23.0,3.907
-15.0,23.0,3.908
-11.0,8.0,3.909
3.0,-3.0,3.91
13.0,-1.0,3.911
13.0,5.0,3.912
9.0,1.0,3.913
-1.0,-9.0,3.914
-14.0,-7.0,3.915
-21.0,0.0,3.916
-18.0,3.0,3.917
-11.0,0.0,3.918
-5.0,-2.0,3.919
-4.0,-2.0,3.92
-7.0,-5.0,3.921
-9.0,-6.0,3.922
-2.0,-2.0,3.923
16.0,0.0,3.924
27.0,-1.0,3.925
22.0,0.0,3.926
14.0,1.0,3.927
15.0,-5.0,3.928
13.0,-13.0,3.929
-5.0,-8.0,3.93
-27.0,4.0,3.931
-29.0,0.0,3.932
-14.0,-19.0,3.933
-3.0,-26.0,3.934
-1.0,-11.0,3.935
4.0,3.0,3.936
16.0,-1.0,3.937
20.0,-11.0,3.938
17.0,-11.0,3.939
13.0,-8.0,3.94
6.0,-12.0,3.941
-2.0,-8.0,3.942
-5.0,15.0,3.943
3.0,37.0,3.944
12.0,36.0,3.945
11.0,18.0,3.946
8.0,8.0,3.947
10.0,12.0,3.948
11.0,13.0,3.949
2.0,6.0,3.95
-4.0,-3.0,3.951
-3.0,-4.0,3.952
-1.0,-2.0,3.953
-6.0,-1.0,3.954
-11.0,-6.0,3.955
-5.0,-9.0,3.956
3.0,-9.0,3.957
6.0,-9.0,3.958
2.0,-7.0,3.959
0.0,-4.0,3.96
4.0,-3.0,3.961
13.0,0.0,3.962
25.0,1.0,3.963
36.0,-2.0,3.964
32.0,-9.0,3.965
22.0,-9.0,3.966
13.0,-4.0,3.967
6.0,4.0,3.968
-8.0,7.0,3.969
-24.0,5.0,3.97
-28.0,5.0,3.971
-22.0,10.0,3.972
-22.0,10.0,3.973
-32.0,6.0,3.974
-41.0,-3.0,3.975
-29.0,-10.0,3.976
-3.0,-10.0,3.977
18.0,-5.0,3.978
15.0,3.0,3.979
-8.0,7.0,3.98
-31.0,-4.0,3.981
-37.0,-17.0,3.982
-23.0,-13.0,3.983
-3.0,4.0,3.984
9.0,22.0,3.985
18.0,21.0,3.986
32.0,10.0,3.987
45.0,6.0,3.988
47.0,10.0,3.989
42.0,13.0,3.99
41.0,6.0,3.991
42.0,-5.0,3.992
30.0,-13.0,3.993
8.0,-16.0,3.994
-5.0,-14.0,3.995
0.0,-11.0,3.996
13.0,-9.0,3.997
16.0,-10.0,3.998
12.0,-7.0,3.999
5.0,-1.0,4.0
3.0,-1.0,4.001
4.0,-2.0,4.002
5.0,1.0,4.003
4.0,14.0,4.004
-1.0,25.0,4.005
-6.0,17.0,4.006
-7.0,-4.0,4.007
-5.0,-21.0,4.008
-1.0,-18.0,4.009
-4.0,-8.0,4.01
-12.0,-10.0,4.011
-22.0,-18.0,4.012
-26.0,-19.0,4.013
-24.0,-11.0,4.014
-16.0,-6.0,4.015
-7.0,-3.0,4.016
-3.0,5.0,4.017
-2.0,8.0,4.018
0.0,2.0,4.019
5.0,-6.0,4.02
8.0,-5.0,4.021
11.0,6.0,4.022
13.0,8.0,4.023
19.0,3.0,4.024
23.0,6.0,4.025
24.0,16.0,4.026
22.0,15.0,4.027
17.0,1.0,4.028
7.0,-4.0,4.029
-10.0,3.0,4.03
-25.0,10.0,4.031
-29.0,6.0,4.032
-19.0,-1.0,4.033
-2.0,-5.0,4.034
9.0,-10.0,4.035
8.0,-12.0,4.036
1.0,-14.0,4.037
-1.0,-17.0,4.038
7.0,-17.0,4.039
14.0,-11.0,4.04
12.0,-5.0,4.041
5.0,-4.0,4.042
2.0,-6.0,4.043
4.0,1.0,4.044
-4.0,11.0,4.045
-21.0,14.0,4.046
-36.0,10.0,4.047
-36.0,10.0,4.048
-22.0,18.0,4.049
0.0,18.0,4.05
22.0,9.0,4.051
38.0,1.0,4.052
45.0,-4.0,4.053
45.0,-9.0,4.054
37.0,-15.0,4.055
21.0,-17.0,4.056
6.0,-8.0,4.057
-2.0,2.0,4.058
-1.0,11.0,4.059
-1.0,13.0,4.06
-4.0,6.0,4.061
-4.0,2.0,4.062
-3.0,7.0,4.063
-8.0,14.0,4.064
-20.0,12.0,4.065
-25.0,0.0,4.066
-17.0,-10.0,4.067
-3.0,-8.0,4.068
9.0,-1.0,4.069
22.0,5.0,4.07
36.0,6.0,4.071
38.0,2.0,4.072
22.0,-2.0,4.073
8.0,-4.0,4.074
11.0,-5.0,4.075
20.0,-8.0,4.076
18.0,-10.0,4.077
5.0,-10.0,4.078
0.0,-8.0,4.079
-6.0,-6.0,4.08
-12.0,-7.0,4.081
-17.0,-7.0,4.082
-20.0,-3.0,4.083
-20.0,3.0,4.084
-10.0,11.0,4.085
-1.0,15.0,4.086
3.0,7.0,4.087
5.0,0.0,4.088
-3.0,-3.0,4.089
-7.0,-7.0,4.09
-1.0,-11.0,4.091
3.0,-15.0,4.092
6.0,-18.0,4.093
8.0,-19.0,4.094
5.0,-10.0,4.095
1.0,-3.0,4.096
-5.0,-5.0,4.097
-12.0,-7.0,4.098
-19.0,-6.0,4.099
-29.0,-3.0,4.1
-38.0,-2.0,4.101
-36.0,-2.0,4.102
-15.0,-1.0,4.103
13.0,2.0,4.104
33.0,7.0,4.105
40.0,10.0,4.106
38.0,9.0,4.107
26.0,8.0,4.108
15.0,9.0,4.109
14.0,10.0,4.11
22.0,10.0,4.111
23.0,8.0,4.112
12.0,7.0,4.113
0.0,4.0,4.114
-4.0,-1.0,4.115
-3.0,-4.0,4.116
-2.0,-2.0,4.117
7.0,-4.0,4.118
23.0,-6.0,4.119
31.0,-7.0,4.12
25.0,-8.0,4.121
13.0,-5.0,4.122
4.0,-1.0,4.123
3.0,2.0,4.124
4.0,5.0,4.125
7.0,7.0,4.126
9.0,7.0,4.127
4.0,5.0,4.128
-10.0,5.0,4.129
-27.0,4.0,4.13
-35.0,3.0,4.131
-27.0,0.0,4.132
-10.0,-4.0,4.133
0.0,-8.0,4.134
5.0,-5.0,4.135
7.0,1.0,4.136
13.0,9.0,4.137
14.0,6.0,4.138
1.0,-2.0,4.139
-21.0,-5.0,4.14
-39.0,-5.0,4.141
-46.0,-4.0,4.142
-39.0,-7.0,4.143
-23.0,-9.0,4.144
-3.0,0.0,4.145
14.0,12.0,4.146
32.0,14.0,4.147
50.0,7.0,4.148
56.0,-1.0,4.149
42.0,-2.0,4.15
20.0,-2.0,4.151
-2.0,-6.0,4.152
-22.0,-12.0,4.153
-42.0,-14.0,4.154
-44.0,-13.0,4.155
-17.0,-11.0,4.156
20.0,-7.0,4.157
43.0,-3.0,4.158
51.0,2.0,4.159
51.0,8.0,4.16
44.0,8.0,4.161
22.0,7.0,4.162
-4.0,0.0,4.163
-17.0,-4.0,4.164
-24.0,-1.0,4.165
-39.0,2.0,4.166
-49.0,6.0,4.167
-35.0,10.0,4.168
-12.0,9.0,4.169
-11.0,7.0,4.17
-28.0,4.0,4.171
-28.0,0.0,4.172
7.0,-2.0,4.173
50.0,-5.0,4.174
62.0,-6.0,4.175
37.0,-6.0,4.176
4.0,-2.0,4.177
-5.0,1.0,4.178
17.0,-3.0,4.179
43.0,-12.0,4.18
48.0,-14.0,4.181
40.0,-6.0,4.182
37.0,2.0,4.183
41.0,1.0,4.184
35.0,1.0,4.185
24.0,9.0,4.186
18.0,12.0,4.187
8.0,8.0,4.188
-13.0,3.0,4.189
-27.0,8.0,4.19
-17.0,15.0,4.191
7.0,13.0,4.192
17.0,5.0,4.193
13.0,-1.0,4.194
13.0,-2.0,4.195
16.0,-2.0,4.196
11.0,-1.0,4.197
-5.0,-2.0,4.198
-19.0,-2.0,4.199
-30.0,-4.0,4.2
-42.0,-11.0,4.201
-46.0,-8.0,4.202
-34.0,0.0,4.203
-16.0,5.0,4.204
-14.0,4.0,4.205
-27.0,2.0,4.206
-40.0,1.0,4.207
-41.0,0.0,4.208
-33.0,-1.0,4.209
-19.0,-1.0,4.21
2.0,-1.0,4.211
26.0,-4.0,4.212
38.0,-8.0,4.213
29.0,-11.0,4.214
14.0,-14.0,4.215
8.0,-19.0,4.216
16.0,-22.0,4.217
19.0,-24.0,4.218
9.0,-25.0,4.219
-18.0,-25.0,4.22
-43.0,-26.0,4.221
-48.0,-21.0,4.222
-27.0,-10.0,4.223
3.0,-1.0,4.224
18.0,8.0,4.225
15.0,16.0,4.226
7.0,21.0,4.227
6.0,18.0,4.228
-1.0,13.0,4.229
-15.0,10.0,4.23
-17.0,4.0,4.231
-1.0,0.0,4.232
20.0,-2.0,4.233
25.0,2.0,4.234
8.0,4.0,4.235
-26.0,2.0,4.236
-57.0,0.0,4.237
-70.0,-1.0,4.238
-42.0,0.0,4.239
8.0,1.0,4.24
43.0,1.0,4.241
52.0,4.0,4.242
60.0,9.0,4.243
82.0,11.0,4.244
102.0,10.0,4.245
104.0,6.0,4.246
95.0,0.0,4.247
81.0,-5.0,4.248
58.0,-1.0,4.249
23.0,11.0,4.25
-13.0,29.0,4.251
-31.0,42.0,4.252
-25.0,46.0,4.253
-10.0,38.0,4.254
-4.0,19.0,4.255
-15.0,1.0,4.256
-32.0,-1.0,4.257
-41.0,1.0,4.258
-42.0,0.0,4.259
-47.0,-9.0,4.26
-51.0,-17.0,4.261
-38.0,-15.0,4.262
-8.0,-14.0,4.263
20.0,-19.0,4.264
30.0,-17.0,4.265
25.0,-8.0,4.266
19.0,0.0,4.267
20.0,-4.0,4.268
22.0,-7.0,4.269
20.0,-5.0,4.27
14.0,-3.0,4.271
6.0,-10.0,4.272
-3.0,-16.0,4.273
-15.0,-13.0,4.274
-24.0,-10.0,4.275
-21.0,-13.0,4.276
-7.0,-15.0,4.277
5.0,-13.0,4.278
7.0,-8.0,4.279
7.0,-6.0,4.28
12.0,-4.0,4.281
16.0,2.0,4.282
14.0,5.0,4.283
6.0,1.0,4.284
-3.0,3.0,4.285
-15.0,12.0,4.286
-27.0,12.0,4.287
-32.0,-3.0,4.288
-30.0,-12.0,4.289
-31.0,0.0,4.29
-36.0,23.0,4.291
-24.0,27.0,4.292
4.0,10.0,4.293
27.0,-5.0,4.294
25.0,-8.0,4.295
8.0,-7.0,4.296
-7.0,-6.0,4.297
-13.0,-3.0,4.298
-12.0,-1.0,4.299
-11.0,-2.0,4.3
-9.0,-11.0,4.301
-7.0,-17.0,4.302
-1.0,-11.0,4.303
4.0,-7.0,4.304
10.0,-5.0,4.305
15.0,-4.0,4.306
12.0,-8.0,4.307
13.0,-11.0,4.308
29.0,-9.0,4.309
36.0,-6.0,4.31
18.0,2.0,4.311
1.0,11.0,4.312
-11.0,23.0,4.313
-17.0,30.0,4.314
-2.0,23.0,4.315
17.0,16.0,4.316
50.0,11.0,4.317
74.0,5.0,4.318
44.0,-3.0,4.319
2.0,-9.0,4.32
-9.0,-13.0,4.321
11.0,-10.0,4.322
26.0,-5.0,4.323
14.0,2.0,4.324
-19.0,10.0,4.325
-55.0,11.0,4.326
-80.0,-2.0,4.327
-80.0,-21.0,4.328
-50.0,-27.0,4.329
-10.0,-19.0,4.33
19.0,-5.0,4.331
38.0,8.0,4.332
68.0,20.0,4.333
104.0,30.0,4.334
117.0,29.0,4.335
90.0,19.0,4.336
58.0,13.0,4.337
39.0,12.0,4.338
29.0,14.0,4.339
7.0,7.0,4.34
-19.0,-6.0,4.341
-30.0,-13.0,4.342
-27.0,-12.0,4.343
-27.0,-7.0,4.344
-34.0,-4.0,4.345
-33.0,1.0,4.346
-22.0,6.0,4.347
-13.0,5.0,4.348
-10.0,-3.0,4.349
-17.0,-9.0,4.35
-24.0,-8.0,4.351
-29.0,-1.0,4.352
-28.0,-2.0,4.353
-24.0,-9.0,4.354
-21.0,-16.0,4.355
-21.0,-16.0,4.356
-22.0,-11.0,4.357
-20.0,-10.0,4.358
-17.0,-10.0,4.359
-17.0,-9.0,4.36
-18.0,-7.0,4.361
-14.0,-2.0,4.362
-3.0,-4.0,4.363
11.0,-8.0,4.364
21.0,-7.0,4.365
28.0,-1.0,4.366
34.0,1.0,4.367
34.0,-3.0,4.368
19.0,-9.0,4.369
-5.0,-10.0,4.37
-24.0,-7.0,4.371
-31.0,1.0,4.372
-36.0,11.0,4.373
-36.0,19.0,4.374
-22.0,17.0,4.375
8.0,8.0,4.376
31.0,0.0,4.377
19.0,-2.0,4.378
13.0,2.0,4.379
5.0,2.0,4.38
-6.0,-8.0,4.381
-16.0,-14.0,4.382
-17.0,-10.0,4.383
-16.0,-3.0,4.384
-8.0,4.0,4.385
-2.0,10.0,4.386
-3.0,16.0,4.387
-6.0,12.0,4.388
-9.0,-1.0,4.389
-10.0,-10.0,4.39
-6.0,-6.0,4.391
-3.0,3.0,4.392
-3.0,0.0,4.393
-4.0,-11.0,4.394
-4.0,-11.0,4.395
-2.0,6.0,4.396
10.0,26.0,4.397
33.0,25.0,4.398
23.0,6.0,4.399
11.0,-8.0,4.4
-9.0,-13.0,4.401
-24.0,-9.0,4.402
-26.0,-7.0,4.403
-25.0,-7.0,4.404
-11.0,-3.0,4.405
0.0,3.0,4.406
-4.0,9.0,4.407
-8.0,12.0,4.408
-13.0,10.0,4.409
-15.0,3.0,4.41
-8.0,-7.0,4.411
-2.0,-8.0,4.412
-3.0,-2.0,4.413
-5.0,1.0,4.414
-5.0,-4.0,4.415
0.0,-7.0,4.416
18.0,-4.0,4.417
32.0,-5.0,4.418
29.0,-9.0,4.419
22.0,-11.0,4.42
17.0,-5.0,4.421
7.0,7.0,4.422
10.0,16.0,4.423
36.0,16.0,4.424
63.0,13.0,4.425
59.0,10.0,4.426
29.0,6.0,4.427
16.0,4.0,4.428
28.0,3.0,4.429
32.0,5.0,4.43
12.0,2.0,4.431
-2.0,-4.0,4.432
3.0,-8.0,4.433
-1.0,-9.0,4.434
-25.0,-7.0,4.435
-41.0,-6.0,4.436
-31.0,-8.0,4.437
-21.0,-11.0,4.438
-34.0,-11.0,4.439
-51.0,-12.0,4.44
-46.0,-19.0,4.441
-27.0,-19.0,4.442
-7.0,-11.0,4.443
12.0,1.0,4.444
22.0,11.0,4.445
15.0,14.0,4.446
-3.0,13.0,4.447
-15.0,11.0,4.448
-13.0,6.0,4.449
-9.0,3.0,4.45
-8.0,3.0,4.451
-5.0,3.0,4.452
-1.0,4.0,4.453
-1.0,3.0,4.454
-2.0,-1.0,4.455
6.0,-11.0,4.456
21.0,-17.0,4.457
30.0,-18.0,4.458
26.0,-7.0,4.459
8.0,8.0,4.46
-11.0,12.0,4.461
-22.0,7.0,4.462
-23.0,-1.0,4.463
-24.0,-4.0,4.464
-26.0,1.0,4.465
-21.0,10.0,4.466
-4.0,11.0,4.467
10.0,6.0,4.468
9.0,7.0,4.469
-4.0,9.0,4.47
-8.0,5.0,4.471
3.0,-7.0,4.472
16.0,-11.0,4.473
19.0,-3.0,4.474
14.0,4.0,4.475
4.0,1.0,4.476
-2.0,-3.0,4.477
-63.0,0.0,4.478
-78.0,9.0,4.479
-80.0,10.0,4.48
-42.0,-1.0,4.481
-10.0,-14.0,4.482
-8.0,-19.0,4.483
4.0,-17.0,4.484
36.0,-12.0,4.485
66.0,-5.0,4.486
81.0,-1.0,4.487
88.0,-4.0,4.488
73.0,-10.0,4.489
51.0,-7.0,4.49
9.0,10.0,4.491
-27.0,26.0,4.492
-61.0,27.0,4.493
-82.0,14.0,4.494
-59.0,2.0,4.495
-40.0,3.0,4.496
-33.0,11.0,4.497
-38.0,13.0,4.498
-46.0,7.0,4.499
-47.0,2.0,4.5
-27.0,-3.0,4.501
-10.0,-8.0,4.502
-8.0,-10.0,4.503
-2.0,-10.0,4.504
15.0,-2.0,4.505
31.0,3.0,4.506
39.0,-1.0,4.507
43.0,-4.0,4.508
35.0,-6.0,4.509
23.0,-8.0,4.51
1.0,-5.0,4.511
-19.0,0.0,4.512
-37.0,5.0,4.513
-48.0,9.0,4.514
-36.0,3.0,4.515
-26.0,-1.0,4.516
-22.0,-1.0,4.517
-20.0,-2.0,4.518
-24.0,-9.0,4.519
-10.0,-18.0,4.52
8.0,-24.0,4.521
11.0,-18.0,4.522
7.0,-6.0,4.523
1.0,2.0,4.524
-8.0,3.0,4.525
-18.0,0.0,4.526
-12.0,1.0,4.527
7.0,8.0,4.528
19.0,12.0,4.529
13.0,8.0,4.53
0.0,-1.0,4.531
-5.0,-2.0,4.532
2.0,4.0,4.533
17.0,6.0,4.534
26.0,-1.0,4.535
14.0,-8.0,4.536
-8.0,-5.0,4.537
-21.0,-3.0,4.538
-21.0,-5.0,4.539
-25.0,-10.0,4.54
-35.0,-16.0,4.541
-34.0,-16.0,4.542
-13.0,-8.0,4.543
-1.0,5.0,4.544
-23.0,17.0,4.545
-64.0,16.0,4.546
-86.0,5.0,4.547
-76.0,-6.0,4.548
-43.0,-6.0,4.549
1.0,-4.0,4.55
48.0,-2.0,4.551
85.0,0.0,4.552
103.0,9.0,4.553
110.0,18.0,4.554
111.0,17.0,4.555
97.0,10.0,4.556
63.0,5.0,4.557
11.0,0.0,4.558
-39.0,2.0,4.559
-71.0,5.0,4.56
-74.0,1.0,4.561
-44.0,-5.0,4.562
3.0,-8.0,4.563
50.0,-2.0,4.564
80.0,6.0,4.565
90.0,9.0,4.566
83.0,4.0,4.567
68.0,2.0,4.568
52.0,6.0,4.569
36.0,10.0,4.57
20.0,11.0,4.571
10.0,10.0,4.572
12.0,8.0,4.573
24.0,6.0,4.574
25.0,0.0,4.575
2.0,-8.0,4.576
-34.0,-13.0,4.577
-76.0,-19.0,4.578
-108.0,-25.0,4.579
-118.0,-28.0,4.58
-90.0,-32.0,4.581
-34.0,-32.0,4.582
12.0,-31.0,4.583
21.0,-26.0,4.584
11.0,-12.0,4.585
10.0,9.0,4.586
7.0,29.0,4.587
-16.0,32.0,4.588
-45.0,22.0,4.589
-40.0,11.0,4.59
-12.0,8.0,4.591
-3.0,8.0,4.592
-13.0,8.0,4.593
0.0,5.0,4.594
40.0,3.0,4.595
59.0,1.0,4.596
39.0,7.0,4.597
14.0,20.0,4.598
20.0,31.0,4.599
39.0,24.0,4.6
34.0,0.0,4.601
11.0,-16.0,4.602
1.0,-22.0,4.603
3.0,-20.0,4.604
-4.0,-14.0,4.605
-14.0,0.0,4.606
-7.0,14.0,4.607
6.0,15.0,4.608
4.0,2.0,4.609
-4.0,-8.0,4.61
-5.0,-11.0,4.611
-3.0,-12.0,4.612
-11.0,-14.0,4.613
-22.0,-12.0,4.614
-21.0,-6.0,4.615
-15.0,-2.0,4.616
-15.0,0.0,4.617
-22.0,-3.0,4.618
-25.0,-7.0,4.619
-20.0,-11.0,4.62
-14.0,-17.0,4.621
-8.0,-19.0,4.622
3.0,-15.0,4.623
8.0,-9.0,4.624
-7.0,-3.0,4.625
-40.0,6.0,4.626
-74.0,10.0,4.627
-84.0,8.0,4.628
-55.0,0.0,4.629
1.0,-4.0,4.63
62.0,-4.0,4.631
100.0,-5.0,4.632
109.0,-7.0,4.633
101.0,-3.0,4.634
94.0,7.0,4.635
90.0,18.0,4.636
79.0,21.0,4.637
45.0,12.0,4.638
7.0,8.0,4.639
-9.0,11.0,4.64
-5.0,11.0,4.641
-13.0,4.0,4.642
-47.0,-7.0,4.643
-80.0,-12.0,4.644
-80.0,-8.0,4.645
-56.0,-3.0,4.646
-28.0,-3.0,4.647
7.0,-6.0,4.648
46.0,-6.0,4.649
63.0,-2.0,4.65
41.0,2.0,4.651
13.0,1.0,4.652
18.0,0.0,4.653
44.0,5.0,4.654
58.0,24.0,4.655
47.0,43.0,4.656
27.0,49.0,4.657
-34.0,30.0,4.658
-36.0,12.0,4.659
-36.0,-3.0,4.66
-24.0,-7.0,4.661
-12.0,-12.0,4.662
6.0,-21.0,4.663
21.0,-28.0,4.664
29.0,-24.0,4.665
33.0,-16.0,4.666
21.0,1.0,4.667
12.0,15.0,4.668
12.0,18.0,4.669
8.0,17.0,4.67
-18.0,2.0,4.671
-44.0,-8.0,4.672
-69.0,-5.0,4.673
-84.0,-2.0,4.674
-59.0,-4.0,4.675
-26.0,-6.0,4.676
21.0,-6.0,4.677
-24.0,-8.0,4.678
-25.0,-15.0,4.679
-25.0,-15.0,4.68
-19.0,-15.0,4.681
-13.0,-18.0,4.682
-4.0,-20.0,4.683
3.0,-15.0,4.684
7.0,-4.0,4.685
9.0,3.0,4.686
3.0,7.0,4.687
-1.0,14.0,4.688
-1.0,19.0,4.689
-3.0,14.0,4.69
-16.0,2.0,4.691
-29.0,-8.0,4.692
-41.0,-9.0,4.693
-48.0,-7.0,4.694
-36.0,-8.0,4.695
-20.0,-13.0,4.696
3.0,-15.0,4.697
23.0,-12.0,4.698
33.0,-6.0,4.699
40.0,-4.0,4.7
40.0,-3.0,4.701
30.0,0.0,4.702
24.0,5.0,4.703
39.0,7.0,4.704
61.0,4.0,4.705
67.0,-2.0,4.706
58.0,-11.0,4.707
46.0,-18.0,4.708
39.0,-17.0,4.709
37.0,-1.0,4.71
33.0,23.0,4.711
28.0,38.0,4.712
24.0,39.0,4.713
19.0,26.0,4.714
14.0,10.0,4.715
14.0,3.0,4.716
16.0,8.0,4.717
-6.0,8.0,4.718
-9.0,0.0,4.719
-11.0,-9.0,4.72
-9.0,-6.0,4.721
-6.0,10.0,4.722
1.0,17.0,4.723
5.0,9.0,4.724
2.0,-1.0,4.725
4.0,-1.0,4.726
20.0,2.0,4.727
34.0,1.0,4.728
35.0,-1.0,4.729
32.0,-3.0,4.73
17.0,-8.0,4.731
6.0,-14.0,4.732
5.0,-15.0,4.733
4.0,-10.0,4.734
7.0,-10.0,4.735
8.0,-18.0,4.736
5.0,-23.0,4.737
-19.0,-22.0,4.738
-24.0,-15.0,4.739
-28.0,-10.0,4.74
-24.0,-9.0,4.741
-18.0,-5.0,4.742
-6.0,4.0,4.743
2.0,13.0,4.744
-3.0,16.0,4.745
0.0,17.0,4.746
33.0,11.0,4.747
59.0,5.0,4.748
61.0,0.0,4.749
56.0,-5.0,4.75
28.0,-3.0,4.751
5.0,0.0,4.752
2.0,8.0,4.753
1.0,13.0,4.754
6.0,10.0,4.755
9.0,5.0,4.756
2.0,-1.0,4.757
-5.0,-7.0,4.758
-7.0,-7.0,4.759
0.0,-5.0,4.76
1.0,-6.0,4.761
-6.0,-4.0,4.762
-3.0,-2.0,4.763
8.0,0.0,4.764
6.0,1.0,4.765
-14.0,-1.0,4.766
-33.0,-6.0,4.767
-44.0,-9.0,4.768
-42.0,-14.0,4.769
-27.0,-19.0,4.77
2.0,-24.0,4.771
24.0,-25.0,4.772
23.0,-21.0,4.773
14.0,-8.0,4.774
28.0,10.0,4.775
71.0,28.0,4.776
109.0,39.0,4.777
117.0,40.0,4.778
90.0,33.0,4.779
39.0,21.0,4.78
-12.0,10.0,4.781
-44.0,14.0,4.782
-46.0,27.0,4.783
-32.0,30.0,4.784
-23.0,19.0,4.785
-17.0,2.0,4.786
-4.0,-4.0,4.787
14.0,2.0,4.788
19.0,12.0,4.789
4.0,11.0,4.79
-20.0,-1.0,4.791
-35.0,-16.0,4.792
-35.0,-20.0,4.793
-26.0,-14.0,4.794
-17.0,-13.0,4.795
-8.0,-18.0,4.796
-1.0,-16.0,4.797
7.0,-10.0,4.798
7.0,-10.0,4.799
6.0,-18.0,4.8
7.0,-29.0,4.801
9.0,-27.0,4.802
11.0,-20.0,4.803
12.0,-16.0,4.804
12.0,-11.0,4.805
11.0,-3.0,4.806
11.0,2.0,4.807
12.0,0.0,4.808
13.0,-3.0,4.809
14.0,0.0,4.81
17.0,8.0,4.811
18.0,11.0,4.812
16.0,8.0,4.813
14.0,3.0,4.814
17.0,1.0,4.815
21.0,3.0,4.816
28.0,7.0,4.817
-9.0,7.0,4.818
-10.0,7.0,4.819
-11.0,6.0,4.82
-8.0,-2.0,4.821
-3.0,-11.0,4.822
4.0,-15.0,4.823
9.0,-8.0,4.824
7.0,1.0,4.825
5.0,0.0,4.826
6.0,-7.0,4.827
9.0,-8.0,4.828
14.0,1.0,4.829
19.0,8.0,4.83
27.0,8.0,4.831
31.0,2.0,4.832
23.0,-5.0,4.833
19.0,-14.0,4.834
28.0,-19.0,4.835
41.0,-14.0,4.836
65.0,4.0,4.837
79.0,24.0,4.838
47.0,40.0,4.839
10.0,45.0,4.84
-22.0,36.0,4.841
-58.0,17.0,4.842
-75.0,-4.0,4.843
-44.0,-15.0,4.844
4.0,-11.0,4.845
11.0,6.0,4.846
-22.0,23.0,4.847
-33.0,30.0,4.848
-3.0,22.0,4.849
20.0,4.0,4.85
11.0,-13.0,4.851
-2.0,-21.0,4.852
3.0,-14.0,4.853
6.0,-4.0,4.854
-12.0,0.0,4.855
-28.0,-2.0,4.856
-28.0,-6.0,4.857
-30.0,-14.0,4.858
-43.0,-24.0,4.859
-49.0,-33.0,4.86
-35.0,-37.0,4.861
-15.0,-34.0,4.862
0.0,-28.0,4.863
19.0,-21.0,4.864
41.0,-7.0,4.865
50.0,10.0,4.866
42.0,21.0,4.867
31.0,20.0,4.868
19.0,14.0,4.869
0.0,10.0,4.87
-13.0,6.0,4.871
-9.0,5.0,4.872
3.0,5.0,4.873
4.0,8.0,4.874
-2.0,1.0,4.875
1.0,-6.0,4.876
15.0,-4.0,4.877
27.0,4.0,4.878
37.0,8.0,4.879
42.0,0.0,4.88
32.0,-10.0,4.881
8.0,-9.0,4.882
-9.0,-4.0,4.883
-10.0,-1.0,4.884
-14.0,0.0,4.885
-36.0,0.0,4.886
-53.0,4.0,4.887
-43.0,1.0,4.888
-15.0,-7.0,4.889
9.0,-18.0,4.89
30.0,-27.0,4.891
49.0,-28.0,4.892
62.0,-20.0,4.893
75.0,-4.0,4.894
83.0,17.0,4.895
56.0,33.0,4.896
-12.0,40.0,4.897
-73.0,36.0,4.898
-61.0,29.0,4.899
-44.0,22.0,4.9
-18.0,16.0,4.901
4.0,13.0,4.902
14.0,19.0,4.903
18.0,22.0,4.904
3.0,12.0,4.905
-10.0,3.0,4.906
-18.0,-5.0,4.907
-20.0,-12.0,4.908
-2.0,-10.0,4.909
13.0,-10.0,4.91
24.0,-15.0,4.911
33.0,-18.0,4.912
31.0,-14.0,4.913
27.0,-10.0,4.914
13.0,-5.0,4.915
1.0,-1.0,4.916
-8.0,-2.0,4.917
-18.0,-5.0,4.918
-20.0,-6.0,4.919
-8.0,-8.0,4.92
-8.0,-14.0,4.921
-19.0,-15.0,4.922
-15.0,-11.0,4.923
3.0,-6.0,4.924
10.0,-4.0,4.925
0.0,-4.0,4.926
-9.0,-2.0,4.927
-6.0,-2.0,4.928
-3.0,-2.0,4.929
-3.0,2.0,4.93
-6.0,8.0,4.931
-16.0,12.0,4.932
-28.0,8.0,4.933
-27.0,-1.0,4.934
-4.0,-9.0,4.935
20.0,-13.0,4.936
29.0,-14.0,4.937
36.0,-17.0,4.938
50.0,-14.0,4.939
52.0,-5.0,4.94
31.0,3.0,4.941
2.0,9.0,4.942
-8.0,16.0,4.943
-6.0,27.0,4.944
-4.0,29.0,4.945
3.0,15.0,4.946
20.0,0.0,4.947
23.0,-2.0,4.948
3.0,8.0,4.949
-16.0,12.0,4.95
-17.0,3.0,4.951
-14.0,-6.0,4.952
-22.0,-8.0,4.953
-27.0,-9.0,4.954
-15.0,-11.0,4.955
3.0,-6.0,4.956
12.0,4.0,4.957
11.0,9.0,4.958
7.0,-3.0,4.959
-2.0,-19.0,4.96
-13.0,-25.0,4.961
-6.0,-14.0,4.962
20.0,-1.0,4.963
41.0,10.0,4.964
31.0,17.0,4.965
5.0,15.0,4.966
-8.0,6.0,4.967
-5.0,0.0,4.968
-1.0,-1.0,4.969
0.0,0.0,4.97
5.0,-4.0,4.971
14.0,-3.0,4.972
21.0,2.0,4.973
23.0,3.0,4.974
21.0,-4.0,4.975
15.0,-8.0,4.976
4.0,-1.0,4.977
-11.0,5.0,4.978
-22.0,0.0,4.979
-27.0,-7.0,4.98
-23.0,-12.0,4.981
-12.0,-7.0,4.982
1.0,-2.0,4.983
6.0,-3.0,4.984
-6.0,-6.0,4.985
-37.0,-8.0,4.986
-78.0,-11.0,4.987
-117.0,-14.0,4.988
-131.0,-15.0,4.989
-92.0,-12.0,4.99
-4.0,-7.0,4.991
95.0,2.0,4.992
161.0,15.0,4.993
191.0,29.0,4.994
193.0,33.0,4.995
160.0,30.0,4.996
92.0,27.0,4.997
21.0,22.0,4.998
-4.0,10.0,4.999
1.0,-8.0,5.0
-1.0,-29.0,5.001
-11.0,-32.0,5.002
4.0,-12.0,5.003
26.0,16.0,5.004
15.0,31.0,5.005
-13.0,22.0,5.006
-11.0,3.0,5.007
6.0,-6.0,5.008
-11.0,-4.0,5.009
-58.0,6.0,5.01
-73.0,24.0,5.011
-50.0,44.0,5.012
-32.0,46.0,5.013
-26.0,18.0,5.014
-7.0,-16.0,5.015
8.0,-28.0,5.016
-10.0,-19.0,5.017
-50.0,-19.0,5.018
-66.0,-30.0,5.019
-60.0,-30.0,5.02
-60.0,-18.0,5.021
-52.0,-6.0,5.022
-13.0,-14.0,5.023
20.0,-28.0,5.024
10.0,-26.0,5.025
-13.0,-11.0,5.026
-4.0,-3.0,5.027
23.0,-3.0,5.028
26.0,-5.0,5.029
17.0,-2.0,5.03
23.0,4.0,5.031
33.0,7.0,5.032
20.0,3.0,5.033
4.0,-2.0,5.034
13.0,-2.0,5.035
25.0,0.0,5.036
16.0,2.0,5.037
-1.0,-4.0,5.038
5.0,-7.0,5.039
16.0,-5.0,5.04
5.0,-6.0,5.041
-9.0,-9.0,5.042
3.0,-11.0,5.043
22.0,-6.0,5.044
20.0,2.0,5.045
4.0,6.0,5.046
5.0,4.0,5.047
19.0,4.0,5.048
26.0,6.0,5.049
26.0,4.0,5.05
24.0,-6.0,5.051
17.0,-9.0,5.052
2.0,-1.0,5.053
-4.0,13.0,5.054
-3.0,19.0,5.055
-12.0,14.0,5.056
-36.0,8.0,5.057
-58.0,5.0,5.058
-53.0,3.0,5.059
-37.0,3.0,5.06
-33.0,7.0,5.061
-34.0,16.0,5.062
-14.0,21.0,5.063
23.0,18.0,5.064
48.0,12.0,5.065
53.0,5.0,5.066
69.0,-8.0,5.067
100.0,-19.0,5.068
114.0,-16.0,5.069
82.0,-1.0,5.07
23.0,7.0,5.071
-18.0,2.0,5.072
-32.0,-1.0,5.073
-36.0,3.0,5.074
-41.0,10.0,5.075
-36.0,8.0,5.076
-20.0,0.0,5.077
-8.0,-14.0,5.078
-11.0,-24.0,5.079
-20.0,-24.0,5.08
-17.0,-14.0,5.081
-8.0,-5.0,5.082
-9.0,-6.0,5.083
-27.0,-13.0,5.084
-51.0,-10.0,5.085
-63.0,2.0,5.086
-43.0,9.0,5.087
11.0,1.0,5.088
75.0,-6.0,5.089
106.0,-2.0,5.09
85.0,6.0,5.091
34.0,8.0,5.092
-7.0,6.0,5.093
-17.0,4.0,5.094
5.0,3.0,5.095
39.0,0.0,5.096
60.0,-1.0,5.097
47.0,-3.0,5.098
17.0,-7.0,5.099
-9.0,-15.0,5.1
-21.0,-24.0,5.101
-26.0,-20.0,5.102
-29.0,-11.0,5.103
-29.0,-3.0,5.104
-26.0,1.0,5.105
-19.0,7.0,5.106
-2.0,9.0,5.107
19.0,2.0,5.108
21.0,-8.0,5.109
-4.0,-13.0,5.11
-34.0,-8.0,5.111
-46.0,0.0,5.112
-41.0,11.0,5.113
-32.0,18.0,5.114
-16.0,23.0,5.115
15.0,23.0,5.116
44.0,19.0,5.117
49.0,11.0,5.118
35.0,6.0,5.119
22.0,1.0,5.12
24.0,-5.0,5.121
26.0,-4.0,5.122
9.0,-1.0,5.123
-21.0,4.0,5.124
-38.0,7.0,5.125
-28.0,6.0,5.126
-1.0,0.0,5.127
21.0,-7.0,5.128
31.0,-10.0,5.129
33.0,-9.0,5.13
26.0,-9.0,5.131
17.0,-6.0,5.132
19.0,7.0,5.133
35.0,24.0,5.134
52.0,29.0,5.135
50.0,14.0,5.136
39.0,-8.0,5.137
30.0,-20.0,5.138
21.0,-13.0,5.139
0.0,-8.0,5.14
-38.0,-8.0,5.141
-71.0,-6.0,5.142
-81.0,-4.0,5.143
-70.0,-1.0,5.144
-54.0,7.0,5.145
-37.0,13.0,5.146
-14.0,11.0,5.147
12.0,8.0,5.148
22.0,6.0,5.149
13.0,4.0,5.15
1.0,1.0,5.151
3.0,-1.0,5.152
8.0,4.0,5.153
5.0,4.0,5.154
2.0,-10.0,5.155
9.0,-22.0,5.156
15.0,-21.0,5.157
3.0,-19.0,5.158
-14.0,-19.0,5.159
-22.0,-19.0,5.16
-19.0,-14.0,5.161
-12.0,-2.0,5.162
2.0,3.0,5.163
18.0,0.0,5.164
23.0,-2.0,5.165
11.0,-2.0,5.166
3.0,-5.0,5.167
8.0,-6.0,5.168
10.0,-2.0,5.169
-4.0,3.0,5.17
-22.0,6.0,5.171
-26.0,5.0,5.172
-16.0,8.0,5.173
10.0,11.0,5.174
46.0,7.0,5.175
67.0,2.0,5.176
54.0,2.0,5.177
14.0,4.0,5.178
-18.0,1.0,5.179
-27.0,-4.0,5.18
-18.0,-9.0,5.181
5.0,-8.0,5.182
37.0,-7.0,5.183
50.0,-9.0,5.184
28.0,-10.0,5.185
-8.0,-6.0,5.186
-22.0,3.0,5.187
-11.0,13.0,5.188
-1.0,20.0,5.189
-1.0,19.0,5.19
0.0,10.0,5.191
9.0,2.0,5.192
25.0,1.0,5.193
40.0,0.0,5.194
40.0,-10.0,5.195
21.0,-22.0,5.196
1.0,-24.0,5.197
-4.0,-3.0,5.198
-4.0,-3.0,5.199
-26.0,-4.0,5.2
-51.0,-14.0,5.201
-38.0,-22.0,5.202
14.0,-14.0,5.203
48.0,-8.0,5.204
35.0,-4.0,5.205
8.0,0.0,5.206
-4.0,-2.0,5.207
-14.0,-4.0,5.208
-34.0,-5.0,5.209
-40.0,-4.0,5.21
-13.0,2.0,5.211
20.0,9.0,5.212
28.0,2.0,5.213
21.0,-2.0,5.214
17.0,1.0,5.215
6.0,0.0,5.216
-17.0,-12.0,5.217
-36.0,-3.0,5.218
-27.0,-3.0,5.219
-4.0,-4.0,5.22
0.0,-12.0,5.221
-6.0,-18.0,5.222
-2.0,-12.0,5.223
11.0,-7.0,5.224
14.0,-4.0,5.225
9.0,-1.0,5.226
16.0,-2.0,5.227
32.0,-4.0,5.228
39.0,-5.0,5.229
23.0,-4.0,5.23
-1.0,1.0,5.231
-18.0,6.0,5.232
-21.0,1.0,5.233
-18.0,-2.0,5.234
-9.0,0.0,5.235
11.0,-1.0,5.236
35.0,-10.0,5.237
45.0,-18.0,5.238
28.0,-19.0,5.239
-18.0,-13.0,5.24
-69.0,-11.0,5.241
-103.0,-9.0,5.242
-114.0,0.0,5.243
-100.0,12.0,5.244
-56.0,15.0,5.245
9.0,7.0,5.246
65.0,-1.0,5.247
76.0,2.0,5.248
45.0,16.0,5.249
17.0,31.0,5.25
28.0,37.0,5.251
66.0,34.0,5.252
91.0,26.0,5.253
79.0,15.0,5.254
44.0,6.0,5.255
14.0,1.0,5.256
9.0,0.0,5.257
19.0,-6.0,5.258
30.0,-16.0,5.259
30.0,-23.0,5.26
20.0,-23.0,5.261
3.0,-17.0,5.262
-20.0,-13.0,5.263
-51.0,-11.0,5.264
-77.0,-5.0,5.265
-79.0,5.0,5.266
-44.0,12.0,5.267
12.0,13.0,5.268
56.0,12.0,5.269
57.0,8.0,5.27
26.0,0.0,5.271
-7.0,-8.0,5.272
-20.0,-9.0,5.273
-10.0,-8.0,5.274
14.0,-12.0,5.275
33.0,-19.0,5.276
31.0,-17.0,5.277
12.0,-10.0,5.278
4.0,-10.0,5.279
21.0,-15.0,5.28
42.0,-11.0,5.281
37.0,10.0,5.282
12.0,29.0,5.283
-10.0,30.0,5.284
-25.0,26.0,5.285
-35.0,27.0,5.286
-32.0,28.0,5.287
-20.0,19.0,5.288
-9.0,7.0,5.289
-9.0,0.0,5.29
-12.0,-6.0,5.291
-10.0,-9.0,5.292
-9.0,-9.0,5.293
-13.0,-4.0,5.294
-16.0,-2.0,5.295
-13.0,-6.0,5.296
-11.0,-8.0,5.297
-12.0,-8.0,5.298
-10.0,-11.0,5.299
-9.0,-17.0,5.3
-10.0,-22.0,5.301
-1.0,-22.0,5.302
32.0,-22.0,5.303
73.0,-26.0,5.304
86.0,-24.0,5.305
60.0,-13.0,5.306
21.0,-1.0,5.307
-14.0,4.0,5.308
-52.0,3.0,5.309
-89.0,5.0,5.31
-95.0,17.0,5.311
-63.0,35.0,5.312
-23.0,41.0,5.313
-10.0,26.0,5.314
-11.0,1.0,5.315
0.0,-9.0,5.316
19.0,-4.0,5.317
22.0,-2.0,5.318
14.0,-7.0,5.319
12.0,-10.0,5.32
19.0,-8.0,5.321
20.0,-5.0,5.322
20.0,-8.0,5.323
31.0,-12.0,5.324
46.0,-8.0,5.325
44.0,-3.0,5.326
26.0,-3.0,5.327
11.0,-7.0,5.328
3.0,-5.0,5.329
-8.0,-1.0,5.33
-19.0,2.0,5.331
-14.0,2.0,5.332
4.0,3.0,5.333
15.0,7.0,5.334
8.0,7.0,5.335
-2.0,4.0,5.336
1.0,5.0,5.337
16.0,5.0,5.338
26.0,4.0,5.339
17.0,2.0,5.34
-7.0,-4.0,5.341
-23.0,-5.0,5.342
-13.0,-3.0,5.343
26.0,-1.0,5.344
68.0,-1.0,5.345
85.0,-3.0,5.346
68.0,-5.0,5.347
28.0,-7.0,5.348
-8.0,-8.0,5.349
-19.0,-3.0,5.35
-11.0,3.0,5.351
-2.0,9.0,5.352
-6.0,13.0,5.353
-16.0,13.0,5.354
-23.0,8.0,5.355
-27.0,3.0,5.356
-20.0,4.0,5.357
-5.0,7.0,5.358
9.0,4.0,5.359
5.0,-4.0,5.36
-3.0,-14.0,5.361
5.0,-12.0,5.362
21.0,-5.0,5.363
18.0,4.0,5.364
-3.0,13.0,5.365
-15.0,18.0,5.366
-11.0,7.0,5.367
-11.0,-8.0,5.368
-26.0,-9.0,5.369
-38.0,8.0,5.37
-30.0,18.0,5.371
-16.0,6.0,5.372
-15.0,-8.0,5.373
-20.0,-8.0,5.374
-12.0,0.0,5.375
7.0,1.0,5.376
24.0,-6.0,5.377
24.0,-15.0,5.378
12.0,-16.0,5.379
-4.0,-12.0,5.38
-7.0,-11.0,5.381
10.0,-11.0,5.382
38.0,-13.0,5.383
59.0,-13.0,5.384
62.0,-8.0,5.385
45.0,0.0,5.386
12.0,5.0,5.387
-33.0,6.0,5.388
-57.0,7.0,5.389
-35.0,14.0,5.39
13.0,20.0,5.391
39.0,20.0,5.392
20.0,11.0,5.393
-21.0,1.0,5.394
-58.0,-3.0,5.395
-88.0,0.0,5.396
-100.0,8.0,5.397
-78.0,12.0,5.398
-29.0,9.0,5.399
1.0,0.0,5.4
-2.0,-10.0,5.401
-11.0,-11.0,5.402
11.0,-9.0,5.403
42.0,-11.0,5.404
50.0,-17.0,5.405
54.0,-19.0,5.406
80.0,-19.0,5.407
114.0,-16.0,5.408
115.0,-8.0,5.409
87.0,8.0,5.41
59.0,24.0,5.411
39.0,30.0,5.412
2.0,27.0,5.413
-51.0,24.0,5.414
-73.0,23.0,5.415
-51.0,14.0,5.416
-17.0,0.0,5.417
-10.0,-9.0,5.418
-26.0,-7.0,5.419
-37.0,-5.0,5.42
-29.0,-13.0,5.421
-14.0,-20.0,5.422
1.0,-19.0,5.423
16.0,-18.0,5.424
14.0,-20.0,5.425
-9.0,-22.0,5.426
-32.0,-16.0,5.427
-27.0,-5.0,5.428
10.0,6.0,5.429
57.0,11.0,5.43
83.0,4.0,5.431
77.0,-5.0,5.432
38.0,-4.0,5.433
-14.0,11.0,5.434
-52.0,27.0,5.435
-54.0,28.0,5.436
-25.0,15.0,5.437
7.0,1.0,5.438
22.0,-2.0,5.439
11.0,2.0,5.44
-9.0,1.0,5.441
-19.0,6.0,5.442
-13.0,11.0,5.443
-3.0,13.0,5.444
-2.0,6.0,5.445
1.0,-3.0,5.446
21.0,-11.0,5.447
46.0,-13.0,5.448
52.0,-13.0,5.449
37.0,-15.0,5.45
23.0,-16.0,5.451
21.0,-11.0,5.452
12.0,0.0,5.453
-11.0,6.0,5.454
-23.0,2.0,5.455
-16.0,-5.0,5.456
-6.0,-6.0,5.457
-11.0,-4.0,5.458
-19.0,-3.0,5.459
-18.0,-4.0,5.46
-14.0,-7.0,5.461
-14.0,-5.0,5.462
-12.0,-4.0,5.463
-4.0,-5.0,5.464
2.0,-7.0,5.465
0.0,-2.0,5.466
5.0,1.0,5.467
21.0,1.0,5.468
25.0,1.0,5.469
-4.0,6.0,5.47
-56.0,9.0,5.471
-93.0,8.0,5.472
-97.0,9.0,5.473
-76.0,9.0,5.474
-42.0,7.0,5.475
-3.0,-1.0,5.476
30.0,-7.0,5.477
50.0,-8.0,5.478
56.0,-2.0,5.479
56.0,6.0,5.48
63.0,6.0,5.481
77.0,8.0,5.482
90.0,8.0,5.483
84.0,2.0,5.484
46.0,-6.0,5.485
-10.0,-12.0,5.486
-53.0,-12.0,5.487
-62.0,-9.0,5.488
-35.0,-2.0,5.489
12.0,8.0,5.49
56.0,15.0,5.491
78.0,11.0,5.492
75.0,0.0,5.493
59.0,-3.0,5.494
35.0,2.0,5.495
-3.0,7.0,5.496
-45.0,1.0,5.497
-68.0,-8.0,5.498
-54.0,-15.0,5.499
-30.0,-13.0,5.5
-29.0,-8.0,5.501
-37.0,-4.0,5.502
-23.0,-5.0,5.503
1.0,-4.0,5.504
4.0,5.0,5.505
-10.0,16.0,5.506
-12.0,15.0,5.507
0.0,-1.0,5.508
4.0,-15.0,5.509
-2.0,-12.0,5.51
1.0,-1.0,5.511
9.0,5.0,5.512
-6.0,6.0,5.513
-35.0,11.0,5.514
-44.0,17.0,5.515
-26.0,13.0,5.516
-8.0,4.0,5.517
0.0,-5.0,5.518
15.0,-3.0,5.519
37.0,7.0,5.52
52.0,12.0,5.521
55.0,17.0,5.522
49.0,21.0,5.523
31.0,19.0,5.524
-5.0,7.0,5.525
-33.0,-3.0,5.526
-21.0,-3.0,5.527
9.0,5.0,5.528
24.0,7.0,5.529
19.0,-2.0,5.53
4.0,-20.0,5.531
-16.0,-41.0,5.532
-37.0,-60.0,5.533
-32.0,-68.0,5.534
11.0,-57.0,5.535
54.0,-35.0,5.536
59.0,-20.0,5.537
33.0,-18.0,5.538
10.0,-14.0,5.539
1.0,-6.0,5.54
-6.0,1.0,5.541
-18.0,1.0,5.542
-25.0,2.0,5.543
-30.0,9.0,5.544
-35.0,15.0,5.545
-31.0,16.0,5.546
-10.0,14.0,5.547
17.0,15.0,5.548
32.0,21.0,5.549
27.0,25.0,5.55
12.0,25.0,5.551
5.0,19.0,5.552
17.0,9.0,5.553
40.0,2.0,5.554
48.0,1.0,5.555
29.0,2.0,5.556
8.0,0.0,5.557
-2.0,-10.0,5.558
-9.0,-20.0,5.559
-32.0,-23.0,5.56
-54.0,-16.0,5.561
-40.0,0.0,5.562
4.0,16.0,5.563
37.0,21.0,5.564
31.0,12.0,5.565
11.0,4.0,5.566
-7.0,1.0,5.567
-29.0,0.0,5.568
-57.0,-4.0,5.569
-71.0,-9.0,5.57
-55.0,-12.0,5.571
-15.0,-14.0,5.572
32.0,-12.0,5.573
85.0,-6.0,5.574
133.0,2.0,5.575
146.0,7.0,5.576
106.0,14.0,5.577
28.0,24.0,5.578
-38.0,35.0,5.579
-62.0,38.0,5.58
-52.0,31.0,5.581
-24.0,29.0,5.582
-1.0,35.0,5.583
-8.0,43.0,5.584
-45.0,44.0,5.585
-78.0,42.0,5.586
-72.0,39.0,5.587
-39.0,28.0,5.588
-26.0,8.0,5.589
-40.0,-7.0,5.59
-37.0,-15.0,5.591
4.0,-23.0,5.592
56.0,-38.0,5.593
77.0,-51.0,5.594
73.0,-50.0,5.595
74.0,-38.0,5.596
81.0,-22.0,5.597
75.0,-15.0,5.598
50.0,-19.0,5.599
27.0,-25.0,5.6
13.0,-39.0,5.601
-1.0,-48.0,5.602
-22.0,-42.0,5.603
-40.0,-34.0,5.604
-50.0,-21.0,5.605
-59.0,-8.0,5.606
-64.0,2.0,5.607
-49.0,10.0,5.608
-13.0,7.0,5.609
18.0,3.0,5.61
20.0,-2.0,5.611
5.0,-3.0,5.612
-2.0,7.0,5.613
-1.0,16.0,5.614
-9.0,20.0,5.615
-34.0,20.0,5.616
-54.0,10.0,5.617
-64.0,0.0,5.618
-59.0,-9.0,5.619
-43.0,-19.0,5.62
-9.0,-26.0,5.621
37.0,-21.0,5.622
71.0,-11.0,5.623
77.0,-6.0,5.624
60.0,-9.0,5.625
42.0,-17.0,5.626
44.0,-20.0,5.627
71.0,-14.0,5.628
98.0,0.0,5.629
97.0,21.0,5.63
64.0,41.0,5.631
23.0,52.0,5.632
-4.0,48.0,5.633
-20.0,34.0,5.634
-36.0,21.0,5.635
-43.0,18.0,5.636
-31.0,24.0,5.637
-14.0,22.0,5.638
-9.0,10.0,5.639
-22.0,-2.0,5.64
-27.0,-14.0,5.641
-18.0,-24.0,5.642
-9.0,-29.0,5.643
-11.0,-35.0,5.644
-13.0,-42.0,5.645
-3.0,-46.0,5.646
10.0,-38.0,5.647
13.0,-25.0,5.648
-2.0,-2.0,5.649
-22.0,21.0,5.65
-27.0,46.0,5.651
-14.0,69.0,5.652
-2.0,81.0,5.653
-9.0,90.0,5.654
-26.0,88.0,5.655
-37.0,78.0,5.656
-40.0,43.0,5.657
-45.0,10.0,5.658
-32.0,-2.0,5.659
0.0,-6.0,5.66
23.0,-23.0,5.661
19.0,-44.0,5.662
17.0,-55.0,5.663
45.0,-54.0,5.664
69.0,-47.0,5.665
57.0,-37.0,5.666
35.0,-30.0,5.667
43.0,-28.0,5.668
57.0,-31.0,5.669
40.0,-30.0,5.67
6.0,-23.0,5.671
-7.0,-15.0,5.672
-5.0,-5.0,5.673
-18.0,5.0,5.674
-37.0,10.0,5.675
-44.0,4.0,5.676
-40.0,-4.0,5.677
-36.0,5.0,5.678
-18.0,9.0,5.679
16.0,11.0,5.68
34.0,7.0,5.681
10.0,0.0,5.682
-18.0,-9.0,5.683
-11.0,-16.0,5.684
21.0,-14.0,5.685
38.0,-13.0,5.686
35.0,-18.0,5.687
36.0,-21.0,5.688
40.0,-16.0,5.689
39.0,-9.0,5.69
29.0,3.0,5.691
19.0,15.0,5.692
7.0,26.0,5.693
-3.0,35.0,5.694
-6.0,39.0,5.695
-4.0,41.0,5.696
-3.0,36.0,5.697
-11.0,5.0,5.698
-15.0,9.0,5.699
-18.0,11.0,5.7
-17.0,7.0,5.701
-15.0,0.0,5.702
-13.0,-9.0,5.703
-17.0,-16.0,5.704
-39.0,-14.0,5.705
-61.0,-13.0,5.706
-82.0,-18.0,5.707
-87.0,-21.0,5.708
-45.0,-16.0,5.709
-4.0,-9.0,5.71
34.0,3.0,5.711
63.0,15.0,5.712
61.0,26.0,5.713
64.0,35.0,5.714
82.0,38.0,5.715
96.0,40.0,5.716
99.0,36.0,5.717
91.0,33.0,5.718
42.0,36.0,5.719
0.0,42.0,5.72
-20.0,41.0,5.721
-32.0,31.0,5.722
-49.0,14.0,5.723
-57.0,0.0,5.724
-54.0,-3.0,5.725
-41.0,-1.0,5.726
-17.0,-3.0,5.727
13.0,-9.0,5.728
35.0,-17.0,5.729
34.0,-27.0,5.73
23.0,-36.0,5.731
21.0,-33.0,5.732
13.0,-13.0,5.733
-13.0,10.0,5.734
-41.0,23.0,5.735
-43.0,35.0,5.736
-34.0,63.0,5.737
-37.0,98.0,5.738
-34.0,116.0,5.739
-1.0,97.0,5.74
31.0,53.0,5.741
25.0,12.0,5.742
-6.0,-26.0,5.743
-19.0,-67.0,5.744
-19.0,-102.0,5.745
-30.0,-115.0,5.746
-43.0,-108.0,5.747
-28.0,-98.0,5.748
1.0,-86.0,5.749
16.0,-68.0,5.75
29.0,-48.0,5.751
59.0,-37.0,5.752
66.0,-31.0,5.753
17.0,-30.0,5.754
-42.0,-43.0,5.755
-38.0,-77.0,5.756
12.0,-112.0,5.757
43.0,-129.0,5.758
39.0,-122.0,5.759
44.0,-104.0,5.76
82.0,-84.0,5.761
119.0,-47.0,5.762
125.0,2.0,5.763
96.0,47.0,5.764
48.0,73.0,5.765
-7.0,85.0,5.766
-53.0,88.0,5.767
-83.0,87.0,5.768
-100.0,82.0,5.769
-98.0,76.0,5.77
-55.0,67.0,5.771
8.0,58.0,5.772
44.0,58.0,5.773
32.0,68.0,5.774
12.0,73.0,5.775
14.0,67.0,5.776
18.0,67.0,5.777
2.0,78.0,5.778
-13.0,84.0,5.779
-22.0,84.0,5.78
-11.0,66.0,5.781
-5.0,53.0,5.782
-13.0,59.0,5.783
-18.0,59.0,5.784
-9.0,39.0,5.785
-4.0,18.0,5.786
-13.0,-4.0,5.787
-16.0,-27.0,5.788
1.0,-49.0,5.789
10.0,-65.0,5.79
-14.0,-62.0,5.791
-31.0,-59.0,5.792
-23.0,-57.0,5.793
-16.0,-53.0,5.794
-16.0,-41.0,5.795
-13.0,-31.0,5.796
-5.0,-27.0,5.797
8.0,-24.0,5.798
21.0,-19.0,5.799
15.0,-7.0,5.8
1.0,3.0,5.801
-10.0,5.0,5.802
-11.0,0.0,5.803
1.0,-3.0,5.804
20.0,0.0,5.805
25.0,7.0,5.806
8.0,13.0,5.807
-13.0,23.0,5.808
-11.0,31.0,5.809
16.0,30.0,5.81
47.0,23.0,5.811
65.0,13.0,5.812
69.0,1.0,5.813
58.0,-18.0,5.814
33.0,-43.0,5.815
-3.0,-51.0,5.816
-30.0,-40.0,5.817
-33.0,-30.0,5.818
-15.0,-34.0,5.819
-2.0,-39.0,5.82
-2.0,-45.0,5.821
-1.0,-52.0,5.822
0.0,-60.0,5.823
-3.0,-63.0,5.824
-28.0,-47.0,5.825
-47.0,-29.0,5.826
-44.0,-10.0,5.827
-40.0,11.0,5.828
-34.0,36.0,5.829
-17.0,54.0,5.83
33.0,50.0,5.831
70.0,44.0,5.832
62.0,31.0,5.833
46.0,24.0,5.834
10.0,40.0,5.835
-16.0,52.0,5.836
-8.0,51.0,5.837
0.0,48.0,5.838
5.0,40.0,5.839
25.0,20.0,5.84
37.0,-4.0,5.841
22.0,-12.0,5.842
9.0,-9.0,5.843
24.0,-6.0,5.844
44.0,-7.0,5.845
29.0,-5.0,5.846
-5.0,3.0,5.847
-18.0,11.0,5.848
1.0,15.0,5.849
30.0,8.0,5.85
43.0,-15.0,5.851
36.0,-55.0,5.852
16.0,-86.0,5.853
-13.0,-94.0,5.854
-39.0,-94.0,5.855
-48.0,-112.0,5.856
-40.0,-137.0,5.857
-25.0,-142.0,5.858
-14.0,-115.0,5.859
-10.0,-76.0,5.86
-15.0,-39.0,5.861
-36.0,10.0,5.862
-63.0,73.0,5.863
-65.0,123.0,5.864
-29.0,139.0,5.865
9.0,127.0,5.866
13.0,108.0,5.867
-5.0,92.0,5.868
-2.0,79.0,5.869
25.0,61.0,5.87
42.0,31.0,5.871
41.0,-5.0,5.872
41.0,-37.0,5.873
45.0,-56.0,5.874
32.0,-61.0,5.875
3.0,-51.0,5.876
-13.0,-29.0,5.877
-14.0,-5.0,5.878
-20.0,18.0,5.879
-39.0,36.0,5.88
-42.0,46.0,5.881
-14.0,52.0,5.882
17.0,53.0,5.883
22.0,55.0,5.884
11.0,57.0,5.885
5.0,56.0,5.886
11.0,48.0,5.887
16.0,33.0,5.888
18.0,16.0,5.889
21.0,-6.0,5.89
19.0,-26.0,5.891
6.0,-32.0,5.892
-6.0,-20.0,5.893
-5.0,-7.0,5.894
9.0,-7.0,5.895
25.0,-19.0,5.896
36.0,-27.0,5.897
45.0,-32.0,5.898
45.0,-36.0,5.899
23.0,-39.0,5.9
-14.0,-39.0,5.901
-42.0,-30.0,5.902
-39.0,-20.0,5.903
-7.0,-11.0,5.904
34.0,1.0,5.905
60.0,15.0,5.906
57.0,27.0,5.907
28.0,34.0,5.908
-12.0,45.0,5.909
-47.0,59.0,5.91
-66.0,62.0,5.911
-72.0,52.0,5.912
-63.0,43.0,5.913
-31.0,42.0,5.914
19.0,38.0,5.915
59.0,22.0,5.916
60.0,2.0,5.917
31.0,-17.0,5.918
16.0,-38.0,5.919
23.0,-58.0,5.92
26.0,-75.0,5.921
2.0,-77.0,5.922
-21.0,-70.0,5.923
-18.0,-65.0,5.924
-7.0,-63.0,5.925
-9.0,-58.0,5.926
-15.0,-53.0,5.927
-6.0,-49.0,5.928
2.0,-37.0,5.929
-8.0,-8.0,5.93
-27.0,32.0,5.931
-41.0,66.0,5.932
-64.0,88.0,5.933
-101.0,100.0,5.934
-112.0,108.0,5.935
-55.0,114.0,5.936
40.0,117.0,5.937
108.0,103.0,5.938
117.0,64.0,5.939
94.0,5.0,5.94
84.0,-48.0,5.941
76.0,-69.0,5.942
52.0,-56.0,5.943
27.0,-33.0,5.944
18.0,-27.0,5.945
17.0,-44.0,5.946
11.0,-71.0,5.947
6.0,-89.0,5.948
17.0,-90.0,5.949
34.0,-72.0,5.95
38.0,-41.0,5.951
29.0,-6.0,5.952
16.0,5.0,5.953
5.0,-17.0,5.954
-1.0,-60.0,5.955
-2.0,-90.0,5.956
0.0,-96.0,5.957
-12.0,-87.0,5.958
-40.0,-68.0,5.959
-72.0,-41.0,5.96
-92.0,-20.0,5.961
-94.0,-14.0,5.962
-75.0,-27.0,5.963
-38.0,-44.0,5.964
-5.0,-49.0,5.965
9.0,-39.0,5.966
7.0,-14.0,5.967
9.0,23.0,5.968
1.0,65.0,5.969
-22.0,100.0,5.97
-41.0,115.0,5.971
-23.0,115.0,5.972
10.0,110.0,5.973
16.0,110.0,5.974
-5.0,115.0,5.975
-12.0,115.0,5.976
8.0,107.0,5.977
30.0,77.0,5.978
46.0,33.0,5.979
71.0,-10.0,5.98
100.0,-35.0,5.981
98.0,-38.0,5.982
59.0,-41.0,5.983
14.0,-54.0,5.984
-13.0,-63.0,5.985
-32.0,-43.0,5.986
-39.0,-1.0,5.987
-17.0,32.0,5.988
17.0,35.0,5.989
14.0,16.0,5.99
-34.0,-3.0,5.991
-82.0,-6.0,5.992
-93.0,4.0,5.993
-75.0,8.0,5.994
-45.0,0.0,5.995
-5.0,-10.0,5.996
37.0,-7.0,5.997
56.0,0.0,5.998
42.0,4.0,5.999
22.0,6.0,6.0
23.0,10.0,6.001
42.0,26.0,6.002
62.0,42.0,6.003
73.0,58.0,6.004
71.0,73.0,6.005
51.0,76.0,6.006
21.0,62.0,6.007
-10.0,44.0,6.008
-39.0,28.0,6.009
-59.0,0.0,6.01
-62.0,-52.0,6.011
-52.0,-115.0,6.012
-42.0,-159.0,6.013
-28.0,-176.0,6.014
2.0,-168.0,6.015
39.0,-131.0,6.016
54.0,-67.0,6.017
41.0,0.0,6.018
28.0,42.0,6.019
21.0,50.0,6.02
2.0,40.0,6.021
-33.0,25.0,6.022
-52.0,0.0,6.023
-32.0,-26.0,6.024
11.0,-42.0,6.025
51.0,-38.0,6.026
79.0,-13.0,6.027
81.0,21.0,6.028
49.0,47.0,6.029
7.0,56.0,6.03
-16.0,74.0,6.031
-22.0,127.0,6.032
-29.0,194.0,6.033
-28.0,219.0,6.034
-4.0,173.0,6.035
17.0,87.0,6.036
0.0,17.0,6.037
-44.0,-33.0,6.038
-63.0,-80.0,6.039
-42.0,-136.0,6.04
-20.0,-178.0,6.041
-10.0,-178.0,6.042
2.0,-150.0,6.043
22.0,-142.0,6.044
32.0,-169.0,6.045
34.0,-191.0,6.046
43.0,-164.0,6.047
51.0,-86.0,6.048
37.0,4.0,6.049
6.0,70.0,6.05
-14.0,91.0,6.051
-14.0,71.0,6.052
-15.0,31.0,6.053
-23.0,5.0,6.054
-30.0,4.0,6.055
-27.0,21.0,6.056
-15.0,44.0,6.057
1.0,81.0,6.058
12.0,126.0,6.059
1.0,153.0,6.06
-24.0,144.0,6.061
-39.0,117.0,6.062
-26.0,90.0,6.063
3.0,66.0,6.064
29.0,38.0,6.065
41.0,0.0,6.066
40.0,-42.0,6.067
27.0,-71.0,6.068
7.0,-76.0,6.069
0.0,-63.0,6.07
7.0,-56.0,6.071
5.0,-61.0,6.072
-13.0,-62.0,6.073
-25.0,-48.0,6.074
-23.0,-36.0,6.075
-27.0,-36.0,6.076
-40.0,-32.0,6.077
-36.0,-14.0,6.078
4.0,7.0,6.079
50.0,18.0,6.08
58.0,25.0,6.081
33.0,47.0,6.082
18.0,71.0,6.083
32.0,65.0,6.084
61.0,33.0,6.085
78.0,6.0,6.086
67.0,2.0,6.087
34.0,6.0,6.088
0.0,5.0,6.089
-15.0,6.0,6.09
-12.0,15.0,6.091
-13.0,22.0,6.092
-23.0,17.0,6.093
-34.0,11.0,6.094
-40.0,13.0,6.095
-39.0,18.0,6.096
-27.0,17.0,6.097
-1.0,6.0,6.098
27.0,-5.0,6.099
31.0,-14.0,6.1
8.0,-24.0,6.101
-17.0,-22.0,6.102
-20.0,-10.0,6.103
0.0,1.0,6.104
22.0,7.0,6.105
35.0,10.0,6.106
39.0,22.0,6.107
35.0,32.0,6.108
18.0,21.0,6.109
-14.0,-19.0,6.11
-52.0,-54.0,6.111
-72.0,-33.0,6.112
-60.0,62.0,6.113
-32.0,177.0,6.114
-14.0,228.0,6.115
-13.0,190.0,6.116
-17.0,134.0,6.117
-11.0,118.0,6.118
9.0,127.0,6.119
24.0,86.0,6.12
24.0,-39.0,6.121
23.0,-197.0,6.122
19.0,-337.0,6.123
19.0,-450.0,6.124
35.0,-528.0,6.125
51.0,-540.0,6.126
66.0,-468.0,6.127
70.0,-345.0,6.128
40.0,-216.0,6.129
9.0,-100.0,6.13
-25.0,4.0,6.131
-52.0,88.0,6.132
-52.0,143.0,6.133
-51.0,174.0,6.134
-45.0,193.0,6.135
-37.0,203.0,6.136
-26.0,205.0,6.137
-13.0,191.0,6.138
-9.0,168.0,6.139
-13.0,146.0,6.14
-14.0,137.0,6.141
-8.0,145.0,6.142
2.0,157.0,6.143
10.0,165.0,6.144
11.0,167.0,6.145
15.0,157.0,6.146
21.0,126.0,6.147
32.0,81.0,6.148
44.0,43.0,6.149
50.0,16.0,6.15
50.0,-17.0,6.151
49.0,-62.0,6.152
47.0,-100.0,6.153
32.0,-119.0,6.154
1.0,-125.0,6.155
-32.0,-122.0,6.156
-46.0,-108.0,6.157
-46.0,-80.0,6.158
-39.0,-48.0,6.159
-37.0,-26.0,6.16
-35.0,-17.0,6.161
-32.0,-5.0,6.162
-21.0,10.0,6.163
1.0,23.0,6.164
22.0,34.0,6.165
26.0,57.0,6.166
14.0,90.0,6.167
2.0,105.0,6.168
3.0,75.0,6.169
6.0,8.0,6.17
-5.0,-50.0,6.171
-18.0,-74.0,6.172
-5.0,-75.0,6.173
49.0,-72.0,6.174
108.0,-63.0,6.175
124.0,-41.0,6.176
91.0,-17.0,6.177
36.0,-5.0,6.178
2.0,0.0,6.179
-9.0,7.0,6.18
-18.0,14.0,6.181
-30.0,18.0,6.182
-34.0,18.0,6.183
-20.0,14.0,6.184
5.0,5.0,6.185
33.0,-5.0,6.186
49.0,-7.0,6.187
42.0,5.0,6.188
14.0,21.0,6.189
-22.0,35.0,6.19
-51.0,48.0,6.191
-69.0,61.0,6.192
-69.0,65.0,6.193
-51.0,58.0,6.194
-40.0,61.0,6.195
-48.0,82.0,6.196
-59.0,105.0,6.197
-49.0,95.0,6.198
-22.0,49.0,6.199
-3.0,-1.0,6.2
7.0,-25.0,6.201
22.0,-13.0,6.202
46.0,-16.0,6.203
63.0,-64.0,6.204
60.0,-138.0,6.205
50.0,-190.0,6.206
48.0,-211.0,6.207
59.0,-239.0,6.208
63.0,-278.0,6.209
48.0,-280.0,6.21
17.0,-215.0,6.211
-15.0,-122.0,6.212
-38.0,-53.0,6.213
-47.0,-9.0,6.214
-44.0,35.0,6.215
-31.0,81.0,6.216
-17.0,111.0,6.217
-11.0,123.0,6.218
-14.0,128.0,6.219
-15.0,125.0,6.22
-1.0,114.0,6.221
21.0,115.0,6.222
32.0,127.0,6.223
21.0,132.0,6.224
0.0,128.0,6.225
-4.0,129.0,6.226
9.0,132.0,6.227
16.0,100.0,6.228
5.0,22.0,6.229
-10.0,-52.0,6.23
-17.0,-70.0,6.231
-13.0,-40.0,6.232
-14.0,-16.0,6.233
-18.0,-20.0,6.234
-13.0,-29.0,6.235
-6.0,-22.0,6.236
-14.0,-6.0,6.237
-31.0,0.0,6.238
-39.0,-12.0,6.239
-25.0,-42.0,6.24
4.0,-73.0,6.241
36.0,-86.0,6.242
70.0,-76.0,6.243
96.0,-55.0,6.244
103.0,-38.0,6.245
85.0,-27.0,6.246
53.0,-15.0,6.247
24.0,-2.0,6.248
6.0,15.0,6.249
-1.0,31.0,6.25
-9.0,43.0,6.251
-27.0,47.0,6.252
-62.0,47.0,6.253
-106.0,49.0,6.254
-134.0,52.0,6.255
-114.0,54.0,6.256
-44.0,46.0,6.257
48.0,27.0,6.258
103.0,10.0,6.259
89.0,3.0,6.26
36.0,2.0,6.261
-1.0,3.0,6.262
12.0,0.0,6.263
53.0,-5.0,6.264
66.0,-10.0,6.265
32.0,-8.0,6.266
-9.0,2.0,6.267
-13.0,21.0,6.268
4.0,33.0,6.269
2.0,33.0,6.27
-19.0,29.0,6.271
-26.0,32.0,6.272
-15.0,41.0,6.273
-12.0,44.0,6.274
-18.0,32.0,6.275
-12.0,0.0,6.276
7.0,-55.0,6.277
16.0,-136.0,6.278
15.0,-209.0,6.279
17.0,-231.0,6.28
17.0,-198.0,6.281
-2.0,-128.0,6.282
-23.0,-50.0,6.283
-23.0,16.0,6.284
-21.0,61.0,6.285
-42.0,82.0,6.286
-57.0,87.0,6.287
-29.0,85.0,6.288
11.0,72.0,6.289
12.0,49.0,6.29
-13.0,29.0,6.291
-9.0,18.0,6.292
30.0,9.0,6.293
55.0,-1.0,6.294
52.0,-1.0,6.295
54.0,13.0,6.296
66.0,28.0,6.297
64.0,28.0,6.298
36.0,24.0,6.299
0.0,21.0,6.3
-22.0,11.0,6.301
-25.0,-3.0,6.302
-12.0,-15.0,6.303
9.0,-15.0,6.304
14.0,-7.0,6.305
-4.0,-6.0,6.306
-21.0,-9.0,6.307
-18.0,-6.0,6.308
-8.0,2.0,6.309
-5.0,11.0,6.31
-2.0,19.0,6.311
4.0,33.0,6.312
1.0,50.0,6.313
-18.0,58.0,6.314
-31.0,51.0,6.315
-25.0,39.0,6.316
-10.0,24.0,6.317
-3.0,-2.0,6.318
-7.0,-35.0,6.319
-18.0,-63.0,6.32
-27.0,-78.0,6.321
-28.0,-80.0,6.322
-14.0,-71.0,6.323
9.0,-46.0,6.324
29.0,-11.0,6.325
45.0,21.0,6.326
57.0,41.0,6.327
59.0,54.0,6.328
45.0,65.0,6.329
36.0,68.0,6.33
42.0,44.0,6.331
49.0,-9.0,6.332
38.0,-72.0,6.333
20.0,-112.0,6.334
15.0,-113.0,6.335
12.0,-81.0,6.336
-4.0,-37.0,6.337
-31.0,-4.0,6.338
-46.0,14.0,6.339
-52.0,24.0,6.34
-66.0,26.0,6.341
-80.0,16.0,6.342
-65.0,-1.0,6.343
-17.0,-5.0,6.344
25.0,8.0,6.345
28.0,25.0,6.346
3.0,25.0,6.347
-11.0,18.0,6.348
5.0,25.0,6.349
28.0,35.0,6.35
22.0,32.0,6.351
-10.0,16.0,6.352
-19.0,7.0,6.353
23.0,11.0,6.354
81.0,21.0,6.355
94.0,25.0,6.356
56.0,22.0,6.357
2.0,10.0,6.358
-26.0,-4.0,6.359
-37.0,-10.0,6.36
-50.0,-3.0,6.361
-51.0,15.0,6.362
-17.0,25.0,6.363
29.0,19.0,6.364
49.0,7.0,6.365
40.0,-2.0,6.366
35.0,-9.0,6.367
44.0,-13.0,6.368
42.0,-9.0,6.369
21.0,3.0,6.37
2.0,19.0,6.371
-3.0,30.0,6.372
-10.0,27.0,6.373
-25.0,13.0,6.374
-32.0,-5.0,6.375
-25.0,-25.0,6.376
-14.0,-39.0,6.377
-15.0,-50.0,6.378
-21.0,-57.0,6.379
-21.0,-67.0,6.38
-16.0,-82.0,6.381
-14.0,-88.0,6.382
-14.0,-77.0,6.383
-12.0,-48.0,6.384
-7.0,-8.0,6.385
-5.0,27.0,6.386
-9.0,40.0,6.387
-15.0,31.0,6.388
-23.0,14.0,6.389
-22.0,7.0,6.39
-4.0,13.0,6.391
26.0,18.0,6.392
45.0,20.0,6.393
49.0,24.0,6.394
46.0,25.0,6.395
44.0,14.0,6.396
36.0,3.0,6.397
14.0,-2.0,6.398
-11.0,0.0,6.399
-33.0,0.0,6.4
-49.0,-5.0,6.401
-47.0,-2.0,6.402
-26.0,8.0,6.403
2.0,13.0,6.404
17.0,13.0,6.405
16.0,17.0,6.406
21.0,26.0,6.407
35.0,26.0,6.408
45.0,19.0,6.409
37.0,18.0,6.41
20.0,25.0,6.411
8.0,31.0,6.412
-2.0,33.0,6.413
-17.0,34.0,6.414
-34.0,34.0,6.415
-32.0,28.0,6.416
-8.0,18.0,6.417
23.0,2.0,6.418
33.0,-18.0,6.419
22.0,-41.0,6.42
12.0,-61.0,6.421
8.0,-67.0,6.422
0.0,-59.0,6.423
-11.0,-40.0,6.424
-17.0,-22.0,6.425
-17.0,-10.0,6.426
-20.0,-7.0,6.427
-20.0,-4.0,6.428
0.0,2.0,6.429
34.0,8.0,6.43
55.0,10.0,6.431
49.0,9.0,6.432
24.0,11.0,6.433
-5.0,17.0,6.434
-11.0,23.0,6.435
13.0,28.0,6.436
44.0,34.0,6.437
41.0,36.0,6.438
-2.0,31.0,6.439
-49.0,13.0,6.44
-65.0,-5.0,6.441
-59.0,-8.0,6.442
-55.0,-2.0,6.443
-55.0,3.0,6.444
-46.0,0.0,6.445
-27.0,-13.0,6.446
-6.0,-25.0,6.447
10.0,-28.0,6.448
31.0,-25.0,6.449
59.0,-24.0,6.45
84.0,-20.0,6.451
90.0,-5.0,6.452
76.0,24.0,6.453
57.0,38.0,6.454
45.0,18.0,6.455
28.0,-24.0,6.456
-4.0,-57.0,6.457
-42.0,-66.0,6.458
-59.0,-49.0,6.459
-46.0,-25.0,6.46
-20.0,-8.0,6.461
-1.0,3.0,6.462
9.0,6.0,6.463
15.0,-3.0,6.464
14.0,-14.0,6.465
2.0,-17.0,6.466
-15.0,-13.0,6.467
-22.0,-5.0,6.468
-13.0,7.0,6.469
8.0,37.0,6.47
22.0,73.0,6.471
18.0,97.0,6.472
8.0,98.0,6.473
11.0,85.0,6.474
22.0,61.0,6.475
25.0,16.0,6.476
16.0,-44.0,6.477
-2.0,-105.0,6.478
-19.0,-132.0,6.479
-32.0,-120.0,6.48
-36.0,-93.0,6.481
-25.0,-62.0,6.482
-6.0,-30.0,6.483
1.0,-1.0,6.484
-11.0,14.0,6.485
-26.0,23.0,6.486
-31.0,34.0,6.487
-27.0,46.0,6.488
-14.0,48.0,6.489
14.0,35.0,6.49
44.0,23.0,6.491
45.0,23.0,6.492
14.0,21.0,6.493
-15.0,10.0,6.494
-22.0,-4.0,6.495
-24.0,-9.0,6.496
-37.0,-3.0,6.497
-44.0,-2.0,6.498
-13.0,-2.0,6.499
31.0,-4.0,6.5
50.0,-2.0,6.501
41.0,3.0,6.502
33.0,6.0,6.503
34.0,7.0,6.504
27.0,7.0,6.505
15.0,9.0,6.506
15.0,12.0,6.507
24.0,14.0,6.508
18.0,17.0,6.509
-1.0,15.0,6.51
-5.0,10.0,6.511
4.0,2.0,6.512
5.0,-5.0,6.513
-12.0,-7.0,6.514
-24.0,-10.0,6.515
-20.0,-11.0,6.516
-8.0,-7.0,6.517
-2.0,-2.0,6.518
-1.0,2.0,6.519
-2.0,5.0,6.52
-3.0,4.0,6.521
0.0,8.0,6.522
21.0,10.0,6.523
56.0,7.0,6.524
78.0,3.0,6.525
57.0,2.0,6.526
-1.0,5.0,6.527
-55.0,9.0,6.528
-69.0,9.0,6.529
-41.0,-1.0,6.53
-10.0,-25.0,6.531
-6.0,-49.0,6.532
-21.0,-54.0,6.533
-29.0,-42.0,6.534
-11.0,-30.0,6.535
22.0,-25.0,6.536
44.0,-17.0,6.537
41.0,-4.0,6.538
24.0,6.0,6.539
16.0,5.0,6.54
18.0,0.0,6.541
13.0,6.0,6.542
0.0,14.0,6.543
3.0,9.0,6.544
22.0,-5.0,6.545
25.0,-11.0,6.546
-1.0,-9.0,6.547
-30.0,-1.0,6.548
-35.0,2.0,6.549
-30.0,3.0,6.55
-32.0,0.0,6.551
-29.0,-6.0,6.552
-5.0,-11.0,6.553
26.0,-8.0,6.554
35.0,-2.0,6.555
31.0,0.0,6.556
38.0,-1.0,6.557
53.0,-2.0,6.558
50.0,5.0,6.559
18.0,19.0,6.56
-11.0,37.0,6.561
-10.0,65.0,6.562
6.0,87.0,6.563
1.0,81.0,6.564
-28.0,48.0,6.565
-43.0,11.0,6.566
-20.0,-12.0,6.567
5.0,-33.0,6.568
-9.0,-59.0,6.569
-44.0,-74.0,6.57
-45.0,-68.0,6.571
5.0,-51.0,6.572
56.0,-39.0,6.573
62.0,-25.0,6.574
30.0,-9.0,6.575
4.0,1.0,6.576
8.0,6.0,6.577
26.0,12.0,6.578
29.0,23.0,6.579
11.0,29.0,6.58
-2.0,18.0,6.581
6.0,11.0,6.582
17.0,19.0,6.583
5.0,26.0,6.584
-21.0,27.0,6.585
-36.0,24.0,6.586
-38.0,10.0,6.587
-45.0,-1.0,6.588
-54.0,-7.0,6.589
-40.0,-12.0,6.59
1.0,-14.0,6.591
31.0,-18.0,6.592
27.0,-25.0,6.593
5.0,-28.0,6.594
0.0,-16.0,6.595
11.0,-5.0,6.596
14.0,2.0,6.597
-1.0,9.0,6.598
-13.0,15.0,6.599
-6.0,32.0,6.6
11.0,44.0,6.601
15.0,43.0,6.602
12.0,29.0,6.603
22.0,11.0,6.604
42.0,-5.0,6.605
47.0,-29.0,6.606
26.0,-58.0,6.607
-3.0,-75.0,6.608
-19.0,-69.0,6.609
-17.0,-54.0,6.61
-12.0,-44.0,6.611
-8.0,-31.0,6.612
-7.0,-8.0,6.613
-6.0,13.0,6.614
-4.0,21.0,6.615
1.0,22.0,6.616
12.0,25.0,6.617
17.0,27.0,6.618
14.0,25.0,6.619
2.0,19.0,6.62
-5.0,15.0,6.621
-5.0,18.0,6.622
-6.0,21.0,6.623
-15.0,22.0,6.624
-28.0,15.0,6.625
-33.0,4.0,6.626
-21.0,-4.0,6.627
4.0,-2.0,6.628
32.0,7.0,6.629
59.0,16.0,6.63
80.0,25.0,6.631
79.0,35.0,6.632
51.0,36.0,6.633
11.0,28.0,6.634
-24.0,11.0,6.635
-51.0,-6.0,6.636
-71.0,-21.0,6.637
-71.0,3.0,6.638
-33.0,6.0,6.639
1.0,21.0,6.64
26.0,45.0,6.641
44.0,62.0,6.642
38.0,51.0,6.643
31.0,30.0,6.644
21.0,-10.0,6.645
7.0,-43.0,6.646
-21.0,-37.0,6.647
-42.0,-31.0,6.648
-45.0,-37.0,6.649
-43.0,-40.0,6.65
-25.0,-19.0,6.651
-9.0,-4.0,6.652
0.0,-10.0,6.653
7.0,-16.0,6.654
5.0,-4.0,6.655
8.0,0.0,6.656
30.0,-13.0,6.657
50.0,0.0,6.658
40.0,1.0,6.659
14.0,6.0,6.66
-5.0,14.0,6.661
-1.0,20.0,6.662
16.0,16.0,6.663
27.0,9.0,6.664
21.0,-5.0,6.665
7.0,-16.0,6.666
5.0,-14.0,6.667
13.0,-12.0,6.668
10.0,-14.0,6.669
-5.0,-15.0,6.67
-13.0,-8.0,6.671
-9.0,-3.0,6.672
-4.0,-5.0,6.673
-6.0,-7.0,6.674
-17.0,-3.0,6.675
-32.0,-1.0,6.676
-42.0,-6.0,6.677
-38.0,-8.0,6.678
-13.0,-1.0,6.679
19.0,0.0,6.68
39.0,-10.0,6.681
47.0,-10.0,6.682
49.0,-5.0,6.683
42.0,-4.0,6.684
24.0,-6.0,6.685
5.0,-5.0,6.686
2.0,3.0,6.687
5.0,7.0,6.688
-3.0,6.0,6.689
-18.0,8.0,6.69
-27.0,14.0,6.691
-31.0,16.0,6.692
-38.0,15.0,6.693
-38.0,16.0,6.694
-23.0,18.0,6.695
-1.0,16.0,6.696
14.0,12.0,6.697
21.0,10.0,6.698
31.0,9.0,6.699
34.0,0.0,6.7
24.0,-13.0,6.701
9.0,-17.0,6.702
6.0,-8.0,6.703
9.0,-3.0,6.704
0.0,-9.0,6.705
-14.0,-16.0,6.706
-13.0,-10.0,6.707
2.0,-1.0,6.708
18.0,0.0,6.709
26.0,-3.0,6.71
38.0,0.0,6.711
49.0,7.0,6.712
42.0,8.0,6.713
18.0,1.0,6.714
1.0,0.0,6.715
1.0,4.0,6.716
8.0,8.0,6.717
0.0,6.0,6.718
-19.0,1.0,6.719
-40.0,-3.0,6.72
-65.0,-5.0,6.721
-79.0,-1.0,6.722
-56.0,8.0,6.723
-31.0,18.0,6.724
-2.0,21.0,6.725
29.0,11.0,6.726
67.0,-5.0,6.727
88.0,-19.0,6.728
58.0,-21.0,6.729
26.0,-12.0,6.73
-14.0,-5.0,6.731
-38.0,-11.0,6.732
-13.0,-23.0,6.733
4.0,-29.0,6.734
-3.0,-27.0,6.735
-11.0,-22.0,6.736
-20.0,-15.0,6.737
-23.0,-8.0,6.738
-9.0,-2.0,6.739
-4.0,1.0,6.74
-9.0,-4.0,6.741
-10.0,-6.0,6.742
2.0,1.0,6.743
14.0,7.0,6.744
14.0,9.0,6.745
7.0,12.0,6.746
2.0,11.0,6.747
-1.0,10.0,6.748
-7.0,8.0,6.749
-4.0,8.0,6.75
6.0,12.0,6.751
6.0,12.0,6.752
-11.0,2.0,6.753
-28.0,-3.0,6.754
-22.0,2.0,6.755
9.0,9.0,6.756
44.0,18.0,6.757
70.0,28.0,6.758
78.0,41.0,6.759
63.0,54.0,6.76
38.0,50.0,6.761
23.0,29.0,6.762
25.0,-12.0,6.763
23.0,-53.0,6.764
4.0,-80.0,6.765
-18.0,-85.0,6.766
-18.0,-75.0,6.767
-8.0,-57.0,6.768
-6.0,-37.0,6.769
-15.0,-23.0,6.77
-18.0,-19.0,6.771
-12.0,-15.0,6.772
-7.0,-2.0,6.773
-6.0,19.0,6.774
-3.0,30.0,6.775
0.0,30.0,6.776
-3.0,30.0,6.777
-11.0,27.0,6.778
-11.0,23.0,6.779
-9.0,14.0,6.78
-20.0,12.0,6.781
-40.0,18.0,6.782
-51.0,18.0,6.783
-44.0,7.0,6.784
-28.0,-1.0,6.785
-12.0,0.0,6.786
4.0,-1.0,6.787
27.0,-7.0,6.788
46.0,-7.0,6.789
58.0,5.0,6.79
57.0,14.0,6.791
44.0,11.0,6.792
24.0,3.0,6.793
11.0,3.0,6.794
5.0,6.0,6.795
0.0,4.0,6.796
-4.0,0.0,6.797
-10.0,-4.0,6.798
-8.0,-4.0,6.799
1.0,-4.0,6.8
21.0,-5.0,6.801
41.0,-2.0,6.802
52.0,-2.0,6.803
43.0,-4.0,6.804
18.0,-4.0,6.805
-14.0,2.0,6.806
-46.0,9.0,6.807
-67.0,12.0,6.808
-69.0,12.0,6.809
-45.0,10.0,6.81
-16.0,7.0,6.811
-3.0,5.0,6.812
-12.0,10.0,6.813
-24.0,16.0,6.814
-33.0,17.0,6.815
-50.0,8.0,6.816
-65.0,0.0,6.817
-48.0,-8.0,6.818
10.0,-12.0,6.819
67.0,-17.0,6.82
81.0,-22.0,6.821
61.0,-26.0,6.822
51.0,-29.0,6.823
60.0,-32.0,6.824
71.0,-31.0,6.825
67.0,-28.0,6.826
48.0,-21.0,6.827
10.0,-12.0,6.828
-33.0,3.0,6.829
-50.0,14.0,6.83
-31.0,10.0,6.831
-6.0,7.0,6.832
-6.0,9.0,6.833
-18.0,14.0,6.834
-11.0,24.0,6.835
14.0,31.0,6.836
35.0,28.0,6.837
36.0,23.0,6.838
24.0,12.0,6.839
5.0,0.0,6.84
-12.0,-12.0,6.841
-18.0,-17.0,6.842
-3.0,-18.0,6.843
22.0,-12.0,6.844
43.0,-2.0,6.845
50.0,4.0,6.846
41.0,6.0,6.847
6.0,9.0,6.848
-40.0,12.0,6.849
-63.0,9.0,6.85
-39.0,-1.0,6.851
0.0,-13.0,6.852
7.0,-18.0,6.853
-17.0,-18.0,6.854
-30.0,-8.0,6.855
-19.0,7.0,6.856
-7.0,24.0,6.857
-12.0,28.0,6.858
-18.0,28.0,6.859
-14.0,30.0,6.86
-12.0,27.0,6.861
-17.0,11.0,6.862
-12.0,-13.0,6.863
6.0,-29.0,6.864
15.0,-34.0,6.865
8.0,-38.0,6.866
4.0,-41.0,6.867
17.0,-33.0,6.868
25.0,-13.0,6.869
13.0,0.0,6.87
-8.0,-2.0,6.871
-15.0,-12.0,6.872
-6.0,-14.0,6.873
0.0,-9.0,6.874
0.0,-5.0,6.875
-1.0,-1.0,6.876
6.0,1.0,6.877
21.0,43.0,6.878
34.0,32.0,6.879
42.0,22.0,6.88
32.0,14.0,6.881
22.0,4.0,6.882
15.0,-1.0,6.883
6.0,-5.0,6.884
-3.0,-1.0,6.885
-9.0,4.0,6.886
1.0,12.0,6.887
13.0,20.0,6.888
25.0,17.0,6.889
28.0,7.0,6.89
5.0,-23.0,6.891
-13.0,-43.0,6.892
-17.0,-33.0,6.893
-21.0,-28.0,6.894
-19.0,-43.0,6.895
-20.0,-51.0,6.896
-29.0,-26.0,6.897
-36.0,15.0,6.898
-41.0,11.0,6.899
-51.0,7.0,6.9
-54.0,4.0,6.901
-32.0,0.0,6.902
9.0,-2.0,6.903
41.0,-4.0,6.904
53.0,-2.0,6.905
66.0,0.0,6.906
86.0,3.0,6.907
93.0,6.0,6.908
61.0,5.0,6.909
3.0,1.0,6.91
-45.0,-11.0,6.911
-74.0,-19.0,6.912
-77.0,-15.0,6.913
-51.0,-13.0,6.914
-9.0,-19.0,6.915
15.0,-22.0,6.916
13.0,-12.0,6.917
10.0,2.0,6.918
30.0,25.0,6.919
51.0,33.0,6.92
52.0,26.0,6.921
50.0,16.0,6.922
64.0,10.0,6.923
67.0,5.0,6.924
39.0,-2.0,6.925
5.0,-13.0,6.926
-1.0,-25.0,6.927
5.0,-31.0,6.928
-4.0,-32.0,6.929
-23.0,-33.0,6.93
-24.0,-40.0,6.931
-18.0,-45.0,6.932
-23.0,-39.0,6.933
-35.0,-24.0,6.934
-34.0,-8.0,6.935
-24.0,6.0,6.936
-19.0,14.0,6.937
-18.0,16.0,6.938
-14.0,14.0,6.939
-17.0,14.0,6.94
-30.0,12.0,6.941
-37.0,11.0,6.942
-21.0,6.0,6.943
0.0,0.0,6.944
2.0,-7.0,6.945
-6.0,-14.0,6.946
1.0,-20.0,6.947
25.0,-18.0,6.948
47.0,-10.0,6.949
55.0,0.0,6.95
51.0,5.0,6.951
31.0,4.0,6.952
-6.0,2.0,6.953
-39.0,5.0,6.954
-50.0,12.0,6.955
-41.0,17.0,6.956
-26.0,20.0,6.957
-5.0,22.0,6.958
24.0,23.0,6.959
36.0,15.0,6.96
12.0,-3.0,6.961
-23.0,-12.0,6.962
-25.0,-9.0,6.963
6.0,-4.0,6.964
29.0,-4.0,6.965
20.0,-5.0,6.966
0.0,-5.0,6.967
2.0,-8.0,6.968
26.0,-6.0,6.969
45.0,6.0,6.97
41.0,19.0,6.971
33.0,19.0,6.972
36.0,9.0,6.973
46.0,3.0,6.974
36.0,6.0,6.975
-5.0,10.0,6.976
-48.0,9.0,6.977
-66.0,2.0,6.978
-47.0,-2.0,6.979
-15.0,-7.0,6.98
10.0,-11.0,6.981
27.0,-14.0,6.982
41.0,-10.0,6.983
55.0,-3.0,6.984
56.0,14.0,6.985
39.0,28.0,6.986
9.0,32.0,6.987
-21.0,31.0,6.988
-47.0,9.0,6.989
-67.0,-8.0,6.99
-69.0,-12.0,6.991
-42.0,-13.0,6.992
1.0,-2.0,6.993
31.0,9.0,6.994
31.0,18.0,6.995
19.0,26.0,6.996
17.0,26.0,6.997
21.0,24.0,6.998
15.0,9.0,6.999
-11.0,-9.0,7.0
-39.0,-27.0,7.001
-41.0,-37.0,7.002
-13.0,-33.0,7.003
16.0,-21.0,7.004
17.0,-14.0,7.005
-1.0,-21.0,7.006
-4.0,-27.0,7.007
18.0,-18.0,7.008
36.0,-4.0,7.009
28.0,1.0,7.01
10.0,-5.0,7.011
6.0,-5.0,7.012
17.0,9.0,7.013
22.0,20.0,7.014
17.0,18.0,7.015
10.0,7.0,7.016
7.0,-7.0,7.017
0.0,-35.0,7.018
-12.0,-64.0,7.019
-27.0,-72.0,7.02
-38.0,-55.0,7.021
-40.0,-36.0,7.022
-31.0,-38.0,7.023
-17.0,-51.0,7.024
-10.0,-50.0,7.025
-16.0,-35.0,7.026
-25.0,-21.0,7.027
-22.0,-15.0,7.028
-6.0,-5.0,7.029
17.0,11.0,7.03
42.0,26.0,7.031
59.0,34.0,7.032
55.0,44.0,7.033
29.0,53.0,7.034
1.0,56.0,7.035
-11.0,48.0,7.036
-8.0,42.0,7.037
-5.0,43.0,7.038
-5.0,48.0,7.039
-7.0,43.0,7.04
-12.0,26.0,7.041
-11.0,12.0,7.042
1.0,10.0,7.043
15.0,13.0,7.044
14.0,11.0,7.045
0.0,9.0,7.046
-8.0,9.0,7.047
-5.0,13.0,7.048
-1.0,16.0,7.049
0.0,13.0,7.05
0.0,7.0,7.051
1.0,0.0,7.052
-3.0,-4.0,7.053
-8.0,-7.0,7.054
-4.0,-9.0,7.055
10.0,-10.0,7.056
18.0,-5.0,7.057
16.0,-1.0,7.058
11.0,4.0,7.059
8.0,11.0,7.06
8.0,19.0,7.061
9.0,27.0,7.062
18.0,31.0,7.063
29.0,30.0,7.064
35.0,10.0,7.065
30.0,-9.0,7.066
20.0,-22.0,7.067
12.0,-33.0,7.068
1.0,-32.0,7.069
-5.0,-31.0,7.07
-6.0,-32.0,7.071
-11.0,-35.0,7.072
-24.0,-39.0,7.073
-35.0,-41.0,7.074
-22.0,-37.0,7.075
2.0,-31.0,7.076
14.0,-23.0,7.077
0.0,-14.0,7.078
-18.0,-5.0,7.079
-30.0,3.0,7.08
-28.0,8.0,7.081
-9.0,13.0,7.082
27.0,18.0,7.083
62.0,23.0,7.084
66.0,20.0,7.085
44.0,17.0,7.086
31.0,21.0,7.087
43.0,23.0,7.088
53.0,13.0,7.089
41.0,-7.0,7.09
18.0,-27.0,7.091
-8.0,-38.0,7.092
-40.0,-39.0,7.093
-81.0,-31.0,7.094
-105.0,-13.0,7.095
-96.0,14.0,7.096
-64.0,39.0,7.097
-21.0,52.0,7.098
29.0,57.0,7.099
75.0,54.0,7.1
92.0,42.0,7.101
76.0,24.0,7.102
56.0,-2.0,7.103
49.0,-32.0,7.104
40.0,-62.0,7.105
16.0,-80.0,7.106
-6.0,-83.0,7.107
-10.0,-71.0,7.108
-8.0,-46.0,7.109
-14.0,-16.0,7.11
-18.0,5.0,7.111
-11.0,20.0,7.112
0.0,33.0,7.113
-2.0,52.0,7.114
-17.0,72.0,7.115
-30.0,78.0,7.116
-37.0,69.0,7.117
-38.0,47.0,7.118
-34.0,27.0,7.119
-28.0,12.0,7.12
-21.0,0.0,7.121
-14.0,-12.0,7.122
-8.0,-40.0,7.123
-3.0,-77.0,7.124
-4.0,-101.0,7.125
-6.0,-97.0,7.126
-11.0,-82.0,7.127
-16.0,-74.0,7.128
-14.0,-68.0,7.129
-10.0,-47.0,7.13
2.0,-17.0,7.131
11.0,5.0,7.132
12.0,17.0,7.133
14.0,32.0,7.134
22.0,49.0,7.135
30.0,58.0,7.136
41.0,56.0,7.137
49.0,50.0,7.138
36.0,44.0,7.139
19.0,37.0,7.14
4.0,26.0,7.141
-9.0,19.0,7.142
-17.0,21.0,7.143
-21.0,28.0,7.144
-24.0,33.0,7.145
-25.0,33.0,7.146
-17.0,24.0,7.147
-2.0,13.0,7.148
5.0,14.0,7.149
5.0,26.0,7.15
8.0,36.0,7.151
13.0,29.0,7.152
6.0,7.0,7.153
-22.0,-16.0,7.154
-57.0,-36.0,7.155
-79.0,-45.0,7.156
-77.0,-44.0,7.157
-47.0,-35.0,7.158
3.0,-26.0,7.159
56.0,-22.0,7.16
96.0,-19.0,7.161
122.0,-6.0,7.162
137.0,8.0,7.163
137.0,13.0,7.164
107.0,11.0,7.165
57.0,11.0,7.166
11.0,15.0,7.167
-19.0,26.0,7.168
-36.0,46.0,7.169
-47.0,72.0,7.17
-50.0,88.0,7.171
-47.0,80.0,7.172
-41.0,55.0,7.173
-33.0,20.0,7.174
-27.0,-24.0,7.175
-32.0,-83.0,7.176
-36.0,-144.0,7.177
-25.0,168.0,7.178
0.0,122.0,7.179
17.0,63.0,7.18
22.0,-20.0,7.181
30.0,-91.0,7.182
46.0,-116.0,7.183
40.0,-137.0,7.184
4.0,-137.0,7.185
-16.0,-133.0,7.186
10.0,-125.0,7.187
50.0,-116.0,7.188
56.0,-99.0,7.189
27.0,-70.0,7.19
0.0,-16.0,7.191
-10.0,34.0,7.192
-23.0,55.0,7.193
-53.0,80.0,7.194
-89.0,80.0,7.195
-111.0,72.0,7.196
-106.0,51.0,7.197
-66.0,44.0,7.198
-4.0,29.0,7.199
41.0,10.0,7.2
55.0,-17.0,7.201
59.0,-40.0,7.202
72.0,-49.0,7.203
85.0,-56.0,7.204
81.0,-56.0,7.205
64.0,-54.0,7.206
50.0,-51.0,7.207
32.0,-49.0,7.208
6.0,-43.0,7.209
-9.0,-33.0,7.21
-6.0,-16.0,7.211
-2.0,0.0,7.212
-13.0,7.0,7.213
-28.0,15.0,7.214
-30.0,15.0,7.215
-23.0,13.0,7.216
-23.0,6.0,7.217
-30.0,28.0,7.218
-34.0,17.0,7.219
-38.0,3.0,7.22
-38.0,-17.0,7.221
-35.0,-34.0,7.222
-23.0,-40.0,7.223
-10.0,-45.0,7.224
6.0,-45.0,7.225
22.0,-44.0,7.226
39.0,-42.0,7.227
46.0,-40.0,7.228
23.0,-36.0,7.229
0.0,-29.0,7.23
-18.0,-16.0,7.231
-29.0,-4.0,7.232
-12.0,1.0,7.233
4.0,7.0,7.234
18.0,7.0,7.235
31.0,5.0,7.236
39.0,0.0,7.237
50.0,-5.0,7.238
68.0,-7.0,7.239
65.0,-4.0,7.24
26.0,0.0,7.241
-31.0,1.0,7.242
-62.0,-1.0,7.243
-48.0,1.0,7.244
-15.0,13.0,7.245
4.0,20.0,7.246
12.0,8.0,7.247
17.0,-8.0,7.248
20.0,-12.0,7.249
18.0,-2.0,7.25
8.0,8.0,7.251
-6.0,12.0,7.252
-20.0,19.0,7.253
-22.0,34.0,7.254
-6.0,55.0,7.255
16.0,86.0,7.256
22.0,117.0,7.257
11.0,120.0,7.258
-1.0,84.0,7.259
-12.0,31.0,7.26
-22.0,-16.0,7.261
-27.0,-61.0,7.262
-21.0,-116.0,7.263
-7.0,-164.0,7.264
-2.0,-174.0,7.265
-2.0,-151.0,7.266
6.0,-119.0,7.267
24.0,-75.0,7.268
41.0,-14.0,7.269
50.0,37.0,7.27
43.0,49.0,7.271
17.0,35.0,7.272
-12.0,31.0,7.273
-24.0,39.0,7.274
-23.0,37.0,7.275
-27.0,20.0,7.276
-37.0,3.0,7.277
-39.0,-9.0,7.278
-17.0,-8.0,7.279
3.0,11.0,7.28
19.0,34.0,7.281
36.0,36.0,7.282
52.0,10.0,7.283
63.0,-9.0,7.284
55.0,-8.0,7.285
41.0,-15.0,7.286
15.0,-50.0,7.287
-6.0,-81.0,7.288
-10.0,-76.0,7.289
-14.0,-49.0,7.29
-16.0,-30.0,7.291
-19.0,-15.0,7.292
-20.0,7.0,7.293
-19.0,30.0,7.294
-13.0,39.0,7.295
-9.0,41.0,7.296
-9.0,46.0,7.297
-9.0,50.0,7.298
-13.0,45.0,7.299
-7.0,45.0,7.3
3.0,50.0,7.301
8.0,58.0,7.302
-6.0,51.0,7.303
-28.0,40.0,7.304
-39.0,38.0,7.305
-24.0,37.0,7.306
1.0,32.0,7.307
13.0,29.0,7.308
8.0,39.0,7.309
7.0,53.0,7.31
22.0,41.0,7.311
40.0,0.0,7.312
48.0,-54.0,7.313
48.0,-99.0,7.314
48.0,-122.0,7.315
47.0,-120.0,7.316
45.0,-98.0,7.317
42.0,-66.0,7.318
38.0,-34.0,7.319
27.0,-6.0,7.32
5.0,7.0,7.321
-28.0,19.0,7.322
-69.0,24.0,7.323
-105.0,28.0,7.324
-112.0,31.0,7.325
-78.0,32.0,7.326
-22.0,25.0,7.327
22.0,20.0,7.328
46.0,20.0,7.329
61.0,16.0,7.33
73.0,-1.0,7.331
82.0,-13.0,7.332
87.0,-2.0,7.333
81.0,6.0,7.334
51.0,8.0,7.335
2.0,13.0,7.336
-28.0,25.0,7.337
-32.0,34.0,7.338
-29.0,23.0,7.339
-42.0,10.0,7.34
-56.0,8.0,7.341
-57.0,12.0,7.342
-56.0,0.0,7.343
-58.0,-24.0,7.344
-45.0,-38.0,7.345
-11.0,-34.0,7.346
18.0,-15.0,7.347
23.0,30.0,7.348
23.0,112.0,7.349
34.0,189.0,7.35
43.0,185.0,7.351
34.0,81.0,7.352
15.0,-52.0,7.353
1.0,-144.0,7.354
-4.0,-191.0,7.355
-6.0,-226.0,7.356
-3.0,-244.0,7.357
2.0,-222.0,7.358
-1.0,-161.0,7.359
-16.0,-93.0,7.36
-25.0,-31.0,7.361
-18.0,43.0,7.362
2.0,114.0,7.363
22.0,149.0,7.364
30.0,141.0,7.365
24.0,116.0,7.366
12.0,88.0,7.367
2.0,54.0,7.368
-2.0,18.0,7.369
1.0,-13.0,7.37
8.0,-53.0,7.371
16.0,-115.0,7.372
20.0,-175.0,7.373
17.0,-197.0,7.374
10.0,-173.0,7.375
4.0,-127.0,7.376
0.0,-74.0,7.377
-2.0,-11.0,7.378
-1.0,51.0,7.379
0.0,92.0,7.38
-6.0,119.0,7.381
-20.0,156.0,7.382
-32.0,192.0,7.383
-40.0,185.0,7.384
-49.0,131.0,7.385
-54.0,64.0,7.386
-40.0,20.0,7.387
-8.0,-2.0,7.388
15.0,-21.0,7.389
15.0,-39.0,7.39
17.0,-44.0,7.391
47.0,-31.0,7.392
85.0,-13.0,7.393
99.0,2.0,7.394
82.0,12.0,7.395
56.0,17.0,7.396
30.0,23.0,7.397
-8.0,29.0,7.398
-37.0,37.0,7.399
-41.0,40.0,7.4
-23.0,28.0,7.401
-16.0,17.0,7.402
-21.0,11.0,7.403
-25.0,5.0,7.404
-23.0,2.0,7.405
-21.0,-2.0,7.406
-26.0,-6.0,7.407
-25.0,-4.0,7.408
-18.0,13.0,7.409
-11.0,29.0,7.41
0.0,41.0,7.411
26.0,50.0,7.412
55.0,49.0,7.413
68.0,43.0,7.414
60.0,24.0,7.415
42.0,5.0,7.416
30.0,-14.0,7.417
19.0,-41.0,7.418
11.0,-103.0,7.419
2.0,-168.0,7.42
-9.0,-195.0,7.421
-21.0,-173.0,7.422
-31.0,-131.0,7.423
-42.0,-89.0,7.424
-53.0,-43.0,7.425
-49.0,8.0,7.426
-14.0,49.0,7.427
37.0,74.0,7.428
69.0,92.0,7.429
67.0,106.0,7.43
55.0,109.0,7.431
59.0,93.0,7.432
72.0,70.0,7.433
64.0,49.0,7.434
28.0,31.0,7.435
-14.0,18.0,7.436
-35.0,22.0,7.437
-36.0,44.0,7.438
-27.0,68.0,7.439
-23.0,60.0,7.44
-27.0,4.0,7.441
-28.0,-63.0,7.442
-20.0,-98.0,7.443
-4.0,-92.0,7.444
-2.0,-83.0,7.445
-25.0,-98.0,7.446
-54.0,-127.0,7.447
-63.0,-140.0,7.448
-47.0,-132.0,7.449
-28.0,-115.0,7.45
-14.0,-85.0,7.451
6.0,-40.0,7.452
33.0,7.0,7.453
48.0,33.0,7.454
39.0,39.0,7.455
17.0,48.0,7.456
-1.0,61.0,7.457
-10.0,71.0,7.458
-12.0,86.0,7.459
-9.0,117.0,7.46
-1.0,143.0,7.461
7.0,128.0,7.462
15.0,62.0,7.463
28.0,-21.0,7.464
43.0,-72.0,7.465
45.0,-88.0,7.466
25.0,-90.0,7.467
-2.0,-91.0,7.468
-20.0,-83.0,7.469
-27.0,-60.0,7.47
-37.0,-31.0,7.471
-45.0,-5.0,7.472
-45.0,17.0,7.473
-43.0,40.0,7.474
-51.0,65.0,7.475
-57.0,94.0,7.476
-39.0,122.0,7.477
-2.0,131.0,7.478
27.0,122.0,7.479
37.0,115.0,7.48
41.0,117.0,7.481
38.0,111.0,7.482
27.0,75.0,7.483
24.0,28.0,7.484
53.0,-48.0,7.485
95.0,-111.0,7.486
111.0,-133.0,7.487
94.0,-146.0,7.488
74.0,-126.0,7.489
59.0,-104.0,7.49
30.0,-78.0,7.491
-13.0,-56.0,7.492
-35.0,-49.0,7.493
-30.0,-41.0,7.494
-24.0,-33.0,7.495
-28.0,-22.0,7.496
-29.0,-3.0,7.497
-22.0,18.0,7.498
-24.0,34.0,7.499
-44.0,29.0,7.5
-59.0,17.0,7.501
-54.0,13.0,7.502
-41.0,15.0,7.503
-33.0,11.0,7.504
-26.0,11.0,7.505
-6.0,23.0,7.506
24.0,37.0,7.507
44.0,42.0,7.508
44.0,52.0,7.509
33.0,84.0,7.51
25.0,131.0,7.511
27.0,163.0,7.512
30.0,156.0,7.513
25.0,114.0,7.514
15.0,60.0,7.515
6.0,-2.0,7.516
-1.0,-67.0,7.517
-8.0,-141.0,7.518
-17.0,-184.0,7.519
-22.0,-164.0,7.52
-22.0,-103.0,7.521
-22.0,-52.0,7.522
-24.0,-42.0,7.523
-27.0,-46.0,7.524
-37.0,-26.0,7.525
-50.0,11.0,7.526
-51.0,21.0,7.527
-30.0,-16.0,7.528
7.0,-70.0,7.529
41.0,-109.0,7.53
58.0,-121.0,7.531
64.0,-110.0,7.532
72.0,-75.0,7.533
82.0,-26.0,7.534
78.0,10.0,7.535
51.0,26.0,7.536
17.0,35.0,7.537
-11.0,50.0,7.538
-25.0,66.0,7.539
-35.0,73.0,7.54
-40.0,69.0,7.541
-31.0,66.0,7.542
-9.0,63.0,7.543
14.0,54.0,7.544
30.0,43.0,7.545
37.0,33.0,7.546
26.0,21.0,7.547
-1.0,9.0,7.548
-26.0,4.0,7.549
-29.0,7.0,7.55
-17.0,9.0,7.551
-10.0,0.0,7.552
-8.0,-15.0,7.553
0.0,-26.0,7.554
9.0,-32.0,7.555
8.0,-32.0,7.556
4.0,-30.0,7.557
6.0,-19.0,7.558
6.0,5.0,7.559
-12.0,37.0,7.56
-32.0,65.0,7.561
-38.0,96.0,7.562
-27.0,117.0,7.563
-21.0,109.0,7.564
-21.0,60.0,7.565
-13.0,-5.0,7.566
11.0,-54.0,7.567
40.0,-80.0,7.568
62.0,-94.0,7.569
76.0,-99.0,7.57
86.0,-86.0,7.571
83.0,-64.0,7.572
62.0,-48.0,7.573
25.0,-42.0,7.574
-12.0,-26.0,7.575
-40.0,9.0,7.576
-58.0,46.0,7.577
-64.0,55.0,7.578
-51.0,33.0,7.579
-31.0,-5.0,7.58
-24.0,-42.0,7.581
-36.0,-56.0,7.582
-44.0,-48.0,7.583
-29.0,-28.0,7.584
-12.0,-3.0,7.585
-14.0,21.0,7.586
-22.0,38.0,7.587
-15.0,46.0,7.588
4.0,47.0,7.589
