Deltoid,Bicep,Time
-108.0,-4.0,0.0
-122.0,2.0,0.001
-127.0,19.0,0.002
-86.0,25.0,0.003
13.0,14.0,0.004
94.0,4.0,0.005
82.0,1.0,0.006
20.0,1.0,0.007
6.0,0.0,0.008
43.0,1.0,0.009
49.0,2.0,0.01
12.0,-2.0,0.011
2.0,-9.0,0.012
42.0,-13.0,0.013
74.0,-16.0,0.014
60.0,-19.0,0.015
31.0,-18.0,0.016
22.0,-7.0,0.017
20.0,1.0,0.018
7.0,-1.0,0.019
-10.0,-9.0,0.02
-13.0,-15.0,0.021
-2.0,-14.0,0.022
15.0,-15.0,0.023
27.0,-17.0,0.024
17.0,-16.0,0.025
-14.0,-12.0,0.026
-42.0,-8.0,0.027
-48.0,1.0,0.028
-44.0,21.0,0.029
-52.0,43.0,0.03
-56.0,54.0,0.031
-27.0,48.0,0.032
29.0,30.0,0.033
68.0,8.0,0.034
62.0,-5.0,0.035
32.0,-6.0,0.036
12.0,-1.0,0.037
-2.0,-8.0,0.038
-25.0,-22.0,0.039
-51.0,-34.0,0.04
-50.0,-39.0,0.041
-23.0,-37.0,0.042
3.0,-36.0,0.043
17.0,-38.0,0.044
28.0,-38.0,0.045
47.0,-34.0,0.046
58.0,-25.0,0.047
49.0,-13.0,0.048
29.0,-5.0,0.049
10.0,1.0,0.05
-7.0,7.0,0.051
-21.0,12.0,0.052
-22.0,16.0,0.053
-14.0,17.0,0.054
-5.0,17.0,0.055
6.0,19.0,0.056
18.0,20.0,0.057
23.0,16.0,0.058
24.0,7.0,0.059
25.0,4.0,0.06
41.0,3.0,0.061
58.0,5.0,0.062
55.0,5.0,0.063
33.0,5.0,0.064
6.0,10.0,0.065
-27.0,15.0,0.066
-68.0,18.0,0.067
-96.0,17.0,0.068
-89.0,11.0,0.069
-56.0,7.0,0.07
-27.0,7.0,0.071
-16.0,9.0,0.072
-11.0,12.0,0.073
1.0,14.0,0.074
28.0,12.0,0.075
54.0,4.0,0.076
64.0,-3.0,0.077
35.0,-5.0,0.078
-9.0,-3.0,0.079
-30.0,-5.0,0.08
-11.0,-12.0,0.081
21.0,-14.0,0.082
31.0,-10.0,0.083
12.0,-6.0,0.084
-16.0,-2.0,0.085
-28.0,0.0,0.086
-10.0,-1.0,0.087
29.0,-8.0,0.088
57.0,-12.0,0.089
54.0,-6.0,0.09
45.0,4.0,0.091
51.0,4.0,0.092
48.0,-2.0,0.093
2.0,-6.0,0.094
-58.0,-2.0,0.095
-83.0,2.0,0.096
-67.0,0.0,0.097
-53.0,-6.0,0.098
-58.0,-6.0,0.099
-64.0,0.0,0.1
-61.0,-1.0,0.101
-61.0,-8.0,0.102
-48.0,-12.0,0.103
-2.0,-7.0,0.104
49.0,4.0,0.105
74.0,10.0,0.106
74.0,5.0,0.107
77.0,-1.0,0.108
69.0,0.0,0.109
33.0,3.0,0.11
-6.0,3.0,0.111
-14.0,4.0,0.112
-7.0,12.0,0.113
-21.0,22.0,0.114
-40.0,20.0,0.115
-23.0,7.0,0.116
19.0,-4.0,0.117
49.0,-8.0,0.118
52.0,-8.0,0.119
38.0,-10.0,0.12
22.0,-17.0,0.121
8.0,-20.0,0.122
9.0,-19.0,0.123
26.0,-14.0,0.124
31.0,-10.0,0.125
12.0,0.0,0.126
-4.0,15.0,0.127
9.0,26.0,0.128
41.0,25.0,0.129
53.0,16.0,0.13
26.0,5.0,0.131
-22.0,-2.0,0.132
-53.0,-9.0,0.133
-46.0,-16.0,0.134
-14.0,-23.0,0.135
7.0,-27.0,0.136
13.0,-28.0,0.137
19.0,-29.0,0.138
32.0,-26.0,0.139
16.0,-21.0,0.14
-38.0,-24.0,0.141
-79.0,-28.0,0.142
-63.0,-21.0,0.143
-28.0,-2.0,0.144
-32.0,19.0,0.145
-57.0,31.0,0.146
-39.0,28.0,0.147
17.0,16.0,0.148
37.0,3.0,0.149
-5.0,-2.0,0.15
-49.0,-3.0,0.151
-43.0,-5.0,0.152
0.0,-9.0,0.153
51.0,-11.0,0.154
102.0,-5.0,0.155
131.0,7.0,0.156
107.0,18.0,0.157
34.0,18.0,0.158
-17.0,13.0,0.159
-9.0,8.0,0.16
16.0,5.0,0.161
13.0,10.0,0.162
-3.0,16.0,0.163
-7.0,19.0,0.164
-17.0,21.0,0.165
-44.0,22.0,0.166
-61.0,17.0,0.167
-47.0,7.0,0.168
-24.0,2.0,0.169
-17.0,5.0,0.17
-19.0,6.0,0.171
-14.0,-2.0,0.172
-11.0,-9.0,0.173
-18.0,-6.0,0.174
-27.0,-4.0,0.175
-27.0,-8.0,0.176
-28.0,-11.0,0.177
-38.0,-9.0,0.178
-31.0,-4.0,0.179
12.0,-4.0,0.18
72.0,-8.0,0.181
106.0,-7.0,0.182
117.0,-6.0,0.183
128.0,-7.0,0.184
134.0,-4.0,0.185
98.0,5.0,0.186
28.0,12.0,0.187
-15.0,8.0,0.188
-3.0,0.0,0.189
15.0,-2.0,0.19
-14.0,3.0,0.191
-64.0,3.0,0.192
-77.0,-2.0,0.193
-48.0,-5.0,0.194
-21.0,-3.0,0.195
-21.0,1.0,0.196
-24.0,3.0,0.197
-11.0,-1.0,0.198
4.0,-5.0,0.199
-2.0,-7.0,0.2
-20.0,-11.0,0.201
-17.0,-10.0,0.202
27.0,-9.0,0.203
84.0,-9.0,0.204
91.0,-6.0,0.205
24.0,-1.0,0.206
-61.0,6.0,0.207
-91.0,6.0,0.208
-64.0,1.0,0.209
-47.0,-1.0,0.21
-68.0,-3.0,0.211
-69.0,-3.0,0.212
-10.0,-3.0,0.213
52.0,-2.0,0.214
53.0,2.0,0.215
14.0,7.0,0.216
3.0,13.0,0.217
26.0,16.0,0.218
41.0,14.0,0.219
40.0,5.0,0.22
50.0,-8.0,0.221
58.0,-13.0,0.222
22.0,-10.0,0.223
-53.0,-9.0,0.224
-112.0,-12.0,0.225
-112.0,-13.0,0.226
-66.0,-8.0,0.227
-2.0,-5.0,0.228
57.0,-6.0,0.229
98.0,-6.0,0.23
109.0,0.0,0.231
95.0,3.0,0.232
64.0,3.0,0.233
18.0,2.0,0.234
-31.0,6.0,0.235
-56.0,7.0,0.236
-31.0,4.0,0.237
25.0,-3.0,0.238
70.0,-7.0,0.239
74.0,-4.0,0.24
66.0,-1.0,0.241
53.0,4.0,0.242
8.0,8.0,0.243
-74.0,9.0,0.244
-133.0,5.0,0.245
-113.0,0.0,0.246
-57.0,-4.0,0.247
-36.0,-7.0,0.248
-56.0,-7.0,0.249
-58.0,-3.0,0.25
-21.0,4.0,0.251
25.0,9.0,0.252
54.0,14.0,0.253
65.0,16.0,0.254
55.0,12.0,0.255
24.0,6.0,0.256
-12.0,4.0,0.257
-55.0,4.0,0.258
-95.0,1.0,0.259
-103.0,-8.0,0.26
-49.0,-20.0,0.261
43.0,-22.0,0.262
103.0,-19.0,0.263
104.0,-13.0,0.264
81.0,-7.0,0.265
67.0,1.0,0.266
52.0,5.0,0.267
23.0,-1.0,0.268
0.0,-10.0,0.269
4.0,-11.0,0.27
24.0,0.0,0.271
41.0,14.0,0.272
53.0,16.0,0.273
63.0,11.0,0.274
62.0,6.0,0.275
33.0,2.0,0.276
-16.0,-1.0,0.277
-58.0,-3.0,0.278
-57.0,-1.0,0.279
-18.0,0.0,0.28
17.0,-5.0,0.281
11.0,-10.0,0.282
-29.0,-10.0,0.283
-64.0,-10.0,0.284
-65.0,-5.0,0.285
-42.0,0.0,0.286
-26.0,5.0,0.287
-41.0,9.0,0.288
-68.0,13.0,0.289
-74.0,15.0,0.29
-42.0,12.0,0.291
4.0,6.0,0.292
25.0,-5.0,0.293
9.0,-13.0,0.294
-9.0,-11.0,0.295
3.0,-10.0,0.296
33.0,-9.0,0.297
53.0,-7.0,0.298
55.0,-5.0,0.299
47.0,-2.0,0.3
29.0,-2.0,0.301
0.0,3.0,0.302
-13.0,7.0,0.303
13.0,6.0,0.304
44.0,6.0,0.305
35.0,9.0,0.306
-1.0,7.0,0.307
-17.0,-5.0,0.308
-5.0,-15.0,0.309
0.0,-8.0,0.31
-6.0,2.0,0.311
6.0,4.0,0.312
35.0,1.0,0.313
50.0,3.0,0.314
32.0,8.0,0.315
0.0,9.0,0.316
-19.0,8.0,0.317
-28.0,4.0,0.318
-26.0,-1.0,0.319
-20.0,-9.0,0.32
-10.0,-15.0,0.321
7.0,-11.0,0.322
26.0,-8.0,0.323
23.0,-11.0,0.324
-12.0,-12.0,0.325
-45.0,-6.0,0.326
-33.0,-2.0,0.327
10.0,0.0,0.328
29.0,3.0,0.329
21.0,9.0,0.33
32.0,13.0,0.331
72.0,13.0,0.332
90.0,13.0,0.333
55.0,11.0,0.334
-1.0,6.0,0.335
-37.0,-3.0,0.336
-44.0,-9.0,0.337
-39.0,-13.0,0.338
-30.0,-12.0,0.339
-29.0,-11.0,0.34
-37.0,-8.0,0.341
-33.0,0.0,0.342
-4.0,11.0,0.343
30.0,16.0,0.344
36.0,11.0,0.345
19.0,1.0,0.346
13.0,-3.0,0.347
15.0,0.0,0.348
0.0,6.0,0.349
-22.0,8.0,0.35
-17.0,7.0,0.351
7.0,5.0,0.352
15.0,5.0,0.353
6.0,1.0,0.354
21.0,-4.0,0.355
67.0,-8.0,0.356
89.0,-10.0,0.357
39.0,-14.0,0.358
-45.0,-16.0,0.359
-108.0,-13.0,0.36
-112.0,-12.0,0.361
-104.0,-7.0,0.362
-61.0,-2.0,0.363
-24.0,2.0,0.364
-3.0,5.0,0.365
6.0,5.0,0.366
-19.0,5.0,0.367
-38.0,7.0,0.368
-30.0,6.0,0.369
-7.0,1.0,0.37
59.0,-3.0,0.371
113.0,-5.0,0.372
127.0,-4.0,0.373
133.0,-4.0,0.374
111.0,-5.0,0.375
84.0,-5.0,0.376
41.0,-4.0,0.377
-3.0,-6.0,0.378
-44.0,-3.0,0.379
-76.0,3.0,0.38
-89.0,5.0,0.381
-79.0,3.0,0.382
-47.0,0.0,0.383
-13.0,2.0,0.384
0.0,5.0,0.385
-4.0,5.0,0.386
-3.0,2.0,0.387
16.0,0.0,0.388
34.0,2.0,0.389
20.0,7.0,0.39
-10.0,11.0,0.391
-9.0,10.0,0.392
30.0,4.0,0.393
65.0,-6.0,0.394
70.0,-12.0,0.395
61.0,-9.0,0.396
51.0,-2.0,0.397
27.0,0.0,0.398
-18.0,-4.0,0.399
-55.0,-5.0,0.4
-55.0,-1.0,0.401
-38.0,7.0,0.402
-35.0,12.0,0.403
-50.0,9.0,0.404
-59.0,5.0,0.405
-55.0,3.0,0.406
-51.0,1.0,0.407
-41.0,-3.0,0.408
-8.0,-7.0,0.409
48.0,-9.0,0.41
94.0,-13.0,0.411
93.0,-16.0,0.412
49.0,-11.0,0.413
4.0,3.0,0.414
-7.0,14.0,0.415
20.0,10.0,0.416
54.0,-5.0,0.417
66.0,-16.0,0.418
47.0,-11.0,0.419
9.0,0.0,0.42
-14.0,-1.0,0.421
-10.0,-7.0,0.422
2.0,-9.0,0.423
0.0,-3.0,0.424
-21.0,6.0,0.425
-35.0,12.0,0.426
-32.0,10.0,0.427
-19.0,4.0,0.428
-7.0,0.0,0.429
1.0,0.0,0.43
7.0,1.0,0.431
12.0,1.0,0.432
17.0,2.0,0.433
16.0,5.0,0.434
0.0,6.0,0.435
-28.0,0.0,0.436
-49.0,-5.0,0.437
-50.0,-6.0,0.438
-30.0,-4.0,0.439
1.0,-3.0,0.44
32.0,-5.0,0.441
46.0,-6.0,0.442
24.0,0.0,0.443
-21.0,6.0,0.444
-45.0,7.0,0.445
-27.0,8.0,0.446
6.0,6.0,0.447
12.0,5.0,0.448
0.0,5.0,0.449
2.0,3.0,0.45
12.0,-2.0,0.451
6.0,-6.0,0.452
-6.0,-8.0,0.453
7.0,-11.0,0.454
31.0,-11.0,0.455
24.0,-9.0,0.456
8.0,-3.0,0.457
40.0,1.0,0.458
107.0,0.0,0.459
122.0,-1.0,0.46
53.0,-3.0,0.461
-30.0,-4.0,0.462
-63.0,-9.0,0.463
-65.0,-11.0,0.464
-78.0,-5.0,0.465
-89.0,3.0,0.466
-61.0,1.0,0.467
-9.0,-1.0,0.468
38.0,3.0,0.469
61.0,11.0,0.47
60.0,10.0,0.471
30.0,2.0,0.472
-21.0,0.0,0.473
-60.0,4.0,0.474
-54.0,7.0,0.475
-13.0,4.0,0.476
28.0,3.0,0.477
49.0,4.0,0.478
53.0,4.0,0.479
40.0,4.0,0.48
18.0,4.0,0.481
-3.0,3.0,0.482
-4.0,-2.0,0.483
12.0,-6.0,0.484
23.0,-6.0,0.485
15.0,-4.0,0.486
-1.0,-7.0,0.487
-2.0,-9.0,0.488
14.0,-11.0,0.489
28.0,-11.0,0.49
24.0,-13.0,0.491
1.0,-13.0,0.492
-26.0,-10.0,0.493
-42.0,-7.0,0.494
-31.0,-4.0,0.495
4.0,-2.0,0.496
40.0,4.0,0.497
55.0,10.0,0.498
47.0,10.0,0.499
25.0,6.0,0.5
-7.0,0.0,0.501
-47.0,2.0,0.502
-80.0,3.0,0.503
-81.0,3.0,0.504
-47.0,5.0,0.505
-15.0,6.0,0.506
-8.0,4.0,0.507
-14.0,0.0,0.508
-11.0,2.0,0.509
-1.0,4.0,0.51
1.0,2.0,0.511
0.0,-2.0,0.512
7.0,-4.0,0.513
19.0,-2.0,0.514
25.0,1.0,0.515
23.0,0.0,0.516
20.0,0.0,0.517
22.0,18.0,0.518
31.0,8.0,0.519
34.0,0.0,0.52
22.0,-4.0,0.521
5.0,-6.0,0.522
7.0,0.0,0.523
32.0,3.0,0.524
49.0,0.0,0.525
33.0,-2.0,0.526
-7.0,-2.0,0.527
-42.0,-1.0,0.528
-62.0,7.0,0.529
-69.0,11.0,0.53
-59.0,5.0,0.531
-27.0,-1.0,0.532
5.0,-5.0,0.533
9.0,-8.0,0.534
-2.0,-7.0,0.535
8.0,-6.0,0.536
45.0,-5.0,0.537
87.0,17.0,0.538
100.0,8.0,0.539
82.0,0.0,0.54
42.0,-4.0,0.541
-4.0,-6.0,0.542
-37.0,0.0,0.543
-45.0,3.0,0.544
-33.0,0.0,0.545
-20.0,-2.0,0.546
-11.0,-2.0,0.547
-10.0,-1.0,0.548
-13.0,7.0,0.549
-20.0,11.0,0.55
-18.0,5.0,0.551
-3.0,-1.0,0.552
12.0,-5.0,0.553
14.0,-8.0,0.554
11.0,-7.0,0.555
15.0,-6.0,0.556
20.0,-5.0,0.557
18.0,-6.0,0.558
14.0,-12.0,0.559
12.0,-19.0,0.56
12.0,-24.0,0.561
14.0,-20.0,0.562
16.0,-14.0,0.563
14.0,-9.0,0.564
5.0,-4.0,0.565
4.0,0.0,0.566
28.0,0.0,0.567
57.0,-2.0,0.568
54.0,-2.0,0.569
24.0,-1.0,0.57
8.0,1.0,0.571
13.0,2.0,0.572
-9.0,1.0,0.573
-70.0,-1.0,0.574
-113.0,-5.0,0.575
-93.0,-6.0,0.576
-42.0,-4.0,0.577
-16.0,-5.0,0.578
-13.0,-7.0,0.579
4.0,-4.0,0.58
33.0,-1.0,0.581
40.0,7.0,0.582
25.0,13.0,0.583
24.0,17.0,0.584
28.0,18.0,0.585
9.0,15.0,0.586
-25.0,11.0,0.587
-41.0,8.0,0.588
-47.0,5.0,0.589
-66.0,2.0,0.59
-75.0,0.0,0.591
-39.0,0.0,0.592
16.0,-4.0,0.593
31.0,-7.0,0.594
8.0,-9.0,0.595
5.0,-9.0,0.596
38.0,-8.0,0.597
61.0,-12.0,0.598
48.0,-14.0,0.599
32.0,-10.0,0.6
45.0,-10.0,0.601
64.0,-8.0,0.602
61.0,-3.0,0.603
43.0,3.0,0.604
30.0,7.0,0.605
18.0,6.0,0.606
-6.0,6.0,0.607
-32.0,8.0,0.608
-41.0,9.0,0.609
-29.0,8.0,0.61
-10.0,2.0,0.611
4.0,-3.0,0.612
7.0,-5.0,0.613
-4.0,-2.0,0.614
-10.0,4.0,0.615
-5.0,8.0,0.616
8.0,8.0,0.617
10.0,4.0,0.618
-1.0,0.0,0.619
-9.0,-5.0,0.62
-3.0,-12.0,0.621
9.0,-15.0,0.622
20.0,-13.0,0.623
30.0,-12.0,0.624
35.0,-12.0,0.625
22.0,-8.0,0.626
-12.0,1.0,0.627
-37.0,12.0,0.628
-28.0,16.0,0.629
-3.0,10.0,0.63
0.0,4.0,0.631
-24.0,3.0,0.632
-39.0,4.0,0.633
-26.0,2.0,0.634
-5.0,-1.0,0.635
0.0,0.0,0.636
1.0,3.0,0.637
3.0,2.0,0.638
-2.0,-3.0,0.639
-7.0,-8.0,0.64
-7.0,-9.0,0.641
-1.0,-3.0,0.642
17.0,0.0,0.643
32.0,-2.0,0.644
30.0,-3.0,0.645
29.0,0.0,0.646
29.0,2.0,0.647
25.0,0.0,0.648
11.0,0.0,0.649
2.0,1.0,0.65
10.0,0.0,0.651
16.0,-4.0,0.652
12.0,-5.0,0.653
9.0,-2.0,0.654
10.0,-4.0,0.655
11.0,-8.0,0.656
13.0,-5.0,0.657
14.0,0.0,0.658
5.0,3.0,0.659
-16.0,5.0,0.66
-40.0,2.0,0.661
-54.0,0.0,0.662
-52.0,2.0,0.663
-33.0,4.0,0.664
-10.0,1.0,0.665
10.0,-1.0,0.666
26.0,-1.0,0.667
38.0,-2.0,0.668
41.0,-2.0,0.669
26.0,0.0,0.67
3.0,5.0,0.671
0.0,9.0,0.672
23.0,7.0,0.673
45.0,5.0,0.674
40.0,3.0,0.675
9.0,0.0,0.676
-20.0,-4.0,0.677
-34.0,-8.0,0.678
-26.0,-9.0,0.679
-20.0,-10.0,0.68
-26.0,-14.0,0.681
-36.0,-11.0,0.682
-27.0,-8.0,0.683
7.0,-9.0,0.684
28.0,-11.0,0.685
8.0,-7.0,0.686
-27.0,4.0,0.687
-39.0,12.0,0.688
-17.0,13.0,0.689
4.0,8.0,0.69
5.0,7.0,0.691
-3.0,6.0,0.692
1.0,6.0,0.693
17.0,6.0,0.694
24.0,7.0,0.695
24.0,4.0,0.696
22.0,-1.0,0.697
22.0,-8.0,0.698
23.0,-12.0,0.699
19.0,-13.0,0.7
12.0,-12.0,0.701
14.0,-9.0,0.702
25.0,-7.0,0.703
27.0,-5.0,0.704
3.0,-2.0,0.705
-31.0,1.0,0.706
-40.0,3.0,0.707
-11.0,4.0,0.708
33.0,6.0,0.709
63.0,9.0,0.71
74.0,9.0,0.711
69.0,6.0,0.712
38.0,8.0,0.713
-11.0,11.0,0.714
-51.0,11.0,0.715
-58.0,6.0,0.716
-41.0,3.0,0.717
-26.0,4.0,0.718
-22.0,1.0,0.719
-19.0,-1.0,0.72
-11.0,-1.0,0.721
-6.0,-1.0,0.722
-4.0,-2.0,0.723
3.0,-4.0,0.724
11.0,2.0,0.725
12.0,7.0,0.726
14.0,4.0,0.727
24.0,2.0,0.728
36.0,5.0,0.729
34.0,8.0,0.73
24.0,5.0,0.731
20.0,2.0,0.732
20.0,0.0,0.733
11.0,-2.0,0.734
-10.0,-5.0,0.735
-26.0,-8.0,0.736
-26.0,-4.0,0.737
-24.0,3.0,0.738
-28.0,1.0,0.739
-34.0,-1.0,0.74
-27.0,-1.0,0.741
-10.0,-1.0,0.742
5.0,-2.0,0.743
12.0,-3.0,0.744
14.0,2.0,0.745
12.0,5.0,0.746
4.0,3.0,0.747
-11.0,2.0,0.748
-21.0,4.0,0.749
-18.0,6.0,0.75
-4.0,4.0,0.751
5.0,2.0,0.752
5.0,0.0,0.753
3.0,-2.0,0.754
8.0,-4.0,0.755
12.0,-6.0,0.756
11.0,-3.0,0.757
4.0,1.0,0.758
1.0,0.0,0.759
4.0,-4.0,0.76
6.0,-9.0,0.761
3.0,-8.0,0.762
0.0,-6.0,0.763
6.0,-7.0,0.764
15.0,-5.0,0.765
16.0,-1.0,0.766
12.0,1.0,0.767
11.0,1.0,0.768
12.0,0.0,0.769
11.0,1.0,0.77
7.0,2.0,0.771
9.0,0.0,0.772
14.0,-3.0,0.773
14.0,-2.0,0.774
6.0,0.0,0.775
2.0,0.0,0.776
5.0,-1.0,0.777
10.0,-4.0,0.778
9.0,-4.0,0.779
2.0,-4.0,0.78
-3.0,-7.0,0.781
-5.0,-8.0,0.782
-1.0,-6.0,0.783
4.0,-3.0,0.784
4.0,1.0,0.785
-1.0,4.0,0.786
-5.0,2.0,0.787
-3.0,0.0,0.788
0.0,-1.0,0.789
1.0,1.0,0.79
1.0,4.0,0.791
0.0,6.0,0.792
0.0,5.0,0.793
1.0,3.0,0.794
5.0,2.0,0.795
9.0,2.0,0.796
6.0,3.0,0.797
-2.0,-2.0,0.798
-3.0,-4.0,0.799
-3.0,-5.0,0.8
-4.0,-4.0,0.801
-7.0,-2.0,0.802
-3.0,-2.0,0.803
6.0,-1.0,0.804
9.0,2.0,0.805
1.0,4.0,0.806
-4.0,4.0,0.807
-2.0,1.0,0.808
2.0,0.0,0.809
-1.0,2.0,0.81
-6.0,1.0,0.811
-3.0,0.0,0.812
8.0,0.0,0.813
18.0,0.0,0.814
23.0,-4.0,0.815
24.0,-6.0,0.816
21.0,-1.0,0.817
10.0,2.0,0.818
1.0,1.0,0.819
-3.0,-6.0,0.82
-5.0,-13.0,0.821
-11.0,-12.0,0.822
-14.0,-8.0,0.823
-8.0,0.0,0.824
-2.0,8.0,0.825
-5.0,10.0,0.826
-9.0,8.0,0.827
-3.0,4.0,0.828
13.0,1.0,0.829
22.0,1.0,0.83
20.0,0.0,0.831
14.0,-1.0,0.832
7.0,-1.0,0.833
2.0,-1.0,0.834
-4.0,-4.0,0.835
-14.0,-3.0,0.836
-22.0,0.0,0.837
-29.0,1.0,0.838
-22.0,-2.0,0.839
-6.0,-5.0,0.84
4.0,-6.0,0.841
3.0,-7.0,0.842
2.0,-7.0,0.843
13.0,-7.0,0.844
22.0,-2.0,0.845
22.0,1.0,0.846
23.0,-1.0,0.847
28.0,-3.0,0.848
28.0,0.0,0.849
20.0,3.0,0.85
17.0,3.0,0.851
25.0,3.0,0.852
27.0,-2.0,0.853
10.0,-5.0,0.854
-12.0,0.0,0.855
-22.0,6.0,0.856
-25.0,8.0,0.857
-38.0,10.0,0.858
-49.0,5.0,0.859
-42.0,1.0,0.86
-25.0,-2.0,0.861
-17.0,0.0,0.862
-12.0,0.0,0.863
1.0,0.0,0.864
14.0,2.0,0.865
13.0,7.0,0.866
5.0,6.0,0.867
9.0,0.0,0.868
19.0,-6.0,0.869
21.0,-7.0,0.87
16.0,-6.0,0.871
18.0,-5.0,0.872
21.0,-5.0,0.873
19.0,-2.0,0.874
14.0,-1.0,0.875
15.0,0.0,0.876
19.0,0.0,0.877
15.0,-1.0,0.878
8.0,-4.0,0.879
3.0,-4.0,0.88
1.0,-6.0,0.881
0.0,-5.0,0.882
3.0,-6.0,0.883
5.0,-5.0,0.884
3.0,-2.0,0.885
1.0,0.0,0.886
3.0,1.0,0.887
4.0,0.0,0.888
0.0,3.0,0.889
-3.0,4.0,0.89
-3.0,0.0,0.891
-3.0,-3.0,0.892
-1.0,-3.0,0.893
0.0,1.0,0.894
-1.0,1.0,0.895
-3.0,-2.0,0.896
-4.0,0.0,0.897
-5.0,2.0,0.898
-8.0,3.0,0.899
-11.0,2.0,0.9
-13.0,-2.0,0.901
-11.0,-3.0,0.902
-3.0,-2.0,0.903
10.0,-1.0,0.904
20.0,0.0,0.905
21.0,0.0,0.906
19.0,-1.0,0.907
15.0,-2.0,0.908
12.0,-1.0,0.909
11.0,0.0,0.91
9.0,-1.0,0.911
6.0,-1.0,0.912
0.0,2.0,0.913
-3.0,5.0,0.914
0.0,2.0,0.915
8.0,-1.0,0.916
14.0,-3.0,0.917
13.0,-5.0,0.918
6.0,-7.0,0.919
0.0,-8.0,0.92
-4.0,-9.0,0.921
-9.0,-5.0,0.922
-14.0,-1.0,0.923
-16.0,1.0,0.924
-19.0,7.0,0.925
-24.0,10.0,0.926
-25.0,9.0,0.927
-22.0,4.0,0.928
-15.0,-1.0,0.929
-14.0,-2.0,0.93
-13.0,1.0,0.931
-2.0,3.0,0.932
15.0,1.0,0.933
21.0,-3.0,0.934
17.0,-4.0,0.935
11.0,-4.0,0.936
11.0,-4.0,0.937
6.0,-5.0,0.938
-2.0,-5.0,0.939
-11.0,-3.0,0.94
-14.0,-5.0,0.941
-11.0,-6.0,0.942
-3.0,-6.0,0.943
7.0,-4.0,0.944
13.0,-1.0,0.945
12.0,1.0,0.946
7.0,0.0,0.947
9.0,-1.0,0.948
17.0,-3.0,0.949
23.0,-4.0,0.95
26.0,-6.0,0.951
27.0,-9.0,0.952
24.0,-9.0,0.953
19.0,-4.0,0.954
16.0,3.0,0.955
17.0,5.0,0.956
20.0,5.0,0.957
13.0,4.0,0.958
3.0,6.0,0.959
-4.0,7.0,0.96
-10.0,6.0,0.961
-14.0,9.0,0.962
-15.0,12.0,0.963
-9.0,11.0,0.964
-1.0,8.0,0.965
2.0,8.0,0.966
1.0,7.0,0.967
1.0,2.0,0.968
1.0,-4.0,0.969
0.0,-4.0,0.97
0.0,-1.0,0.971
3.0,0.0,0.972
7.0,-5.0,0.973
9.0,-9.0,0.974
8.0,-8.0,0.975
4.0,-5.0,0.976
0.0,-3.0,0.977
-3.0,-5.0,0.978
-1.0,-7.0,0.979
2.0,-8.0,0.98
3.0,-11.0,0.981
2.0,-10.0,0.982
5.0,-7.0,0.983
11.0,-3.0,0.984
13.0,0.0,0.985
9.0,3.0,0.986
6.0,3.0,0.987
7.0,2.0,0.988
8.0,3.0,0.989
6.0,5.0,0.99
0.0,6.0,0.991
-2.0,5.0,0.992
-1.0,3.0,0.993
0.0,2.0,0.994
-2.0,3.0,0.995
-4.0,3.0,0.996
-6.0,2.0,0.997
-5.0,-2.0,0.998
-1.0,-2.0,0.999
2.0,-3.0,1.0
4.0,-6.0,1.001
9.0,-9.0,1.002
16.0,-7.0,1.003
20.0,-5.0,1.004
13.0,-2.0,1.005
-2.0,0.0,1.006
-10.0,-1.0,1.007
-9.0,-2.0,1.008
-7.0,-2.0,1.009
-8.0,-1.0,1.01
-8.0,0.0,1.011
-3.0,1.0,1.012
2.0,-2.0,1.013
3.0,-4.0,1.014
1.0,-1.0,1.015
-1.0,2.0,1.016
-4.0,6.0,1.017
23.0,9.0,1.018
12.0,6.0,1.019
3.0,1.0,1.02
-1.0,-5.0,1.021
-3.0,-3.0,1.022
-4.0,7.0,1.023
-4.0,17.0,1.024
3.0,17.0,1.025
9.0,9.0,1.026
12.0,2.0,1.027
14.0,-2.0,1.028
17.0,-4.0,1.029
18.0,-4.0,1.03
16.0,-3.0,1.031
13.0,-1.0,1.032
6.0,-1.0,1.033
1.0,-2.0,1.034
-3.0,-3.0,1.035
-7.0,-5.0,1.036
-7.0,-6.0,1.037
20.0,-5.0,1.038
11.0,-4.0,1.039
3.0,-3.0,1.04
0.0,-4.0,1.041
-2.0,-4.0,1.042
-3.0,0.0,1.043
-3.0,4.0,1.044
3.0,2.0,1.045
9.0,0.0,1.046
11.0,-3.0,1.047
13.0,-6.0,1.048
15.0,-9.0,1.049
16.0,-11.0,1.05
14.0,-5.0,1.051
12.0,-1.0,1.052
6.0,0.0,1.053
1.0,2.0,1.054
-2.0,2.0,1.055
-5.0,0.0,1.056
-5.0,-1.0,1.057
-5.0,-4.0,1.058
-3.0,-5.0,1.059
-1.0,-3.0,1.06
-4.0,-6.0,1.061
-11.0,-6.0,1.062
-11.0,-1.0,1.063
-3.0,3.0,1.064
1.0,5.0,1.065
-5.0,3.0,1.066
-11.0,3.0,1.067
-9.0,3.0,1.068
0.0,3.0,1.069
5.0,2.0,1.07
8.0,2.0,1.071
7.0,3.0,1.072
7.0,5.0,1.073
6.0,4.0,1.074
7.0,1.0,1.075
10.0,-1.0,1.076
13.0,0.0,1.077
13.0,-2.0,1.078
11.0,-1.0,1.079
6.0,0.0,1.08
0.0,-1.0,1.081
-2.0,-3.0,1.082
2.0,-4.0,1.083
8.0,-4.0,1.084
7.0,0.0,1.085
0.0,1.0,1.086
-3.0,0.0,1.087
0.0,0.0,1.088
5.0,0.0,1.089
7.0,1.0,1.09
8.0,2.0,1.091
9.0,4.0,1.092
8.0,4.0,1.093
4.0,3.0,1.094
0.0,3.0,1.095
0.0,2.0,1.096
5.0,2.0,1.097
11.0,-5.0,1.098
3.0,-3.0,1.099
-3.0,-1.0,1.1
-8.0,-3.0,1.101
-9.0,-7.0,1.102
2.0,-9.0,1.103
10.0,-9.0,1.104
6.0,-1.0,1.105
3.0,3.0,1.106
4.0,0.0,1.107
6.0,-1.0,1.108
11.0,0.0,1.109
13.0,3.0,1.11
5.0,5.0,1.111
1.0,9.0,1.112
2.0,9.0,1.113
4.0,7.0,1.114
5.0,7.0,1.115
6.0,5.0,1.116
1.0,5.0,1.117
10.0,-3.0,1.118
3.0,-2.0,1.119
-2.0,-1.0,1.12
-6.0,-2.0,1.121
-7.0,-4.0,1.122
2.0,-5.0,1.123
9.0,-5.0,1.124
6.0,-1.0,1.125
3.0,2.0,1.126
4.0,0.0,1.127
6.0,-1.0,1.128
10.0,0.0,1.129
11.0,2.0,1.13
5.0,3.0,1.131
1.0,5.0,1.132
2.0,5.0,1.133
4.0,4.0,1.134
5.0,4.0,1.135
6.0,3.0,1.136
1.0,3.0,1.137
-5.0,2.0,1.138
-8.0,-1.0,1.139
-14.0,-5.0,1.14
-21.0,-6.0,1.141
-22.0,-4.0,1.142
-13.0,-1.0,1.143
-2.0,-2.0,1.144
-1.0,-3.0,1.145
-5.0,1.0,1.146
-6.0,5.0,1.147
-6.0,4.0,1.148
-6.0,0.0,1.149
-6.0,0.0,1.15
0.0,3.0,1.151
7.0,1.0,1.152
11.0,-3.0,1.153
11.0,-4.0,1.154
9.0,-1.0,1.155
10.0,0.0,1.156
11.0,0.0,1.157
11.0,-3.0,1.158
7.0,-3.0,1.159
0.0,-2.0,1.16
-4.0,-4.0,1.161
-1.0,-6.0,1.162
6.0,-3.0,1.163
10.0,0.0,1.164
6.0,0.0,1.165
6.0,1.0,1.166
9.0,1.0,1.167
11.0,1.0,1.168
10.0,0.0,1.169
6.0,-1.0,1.17
4.0,3.0,1.171
4.0,6.0,1.172
8.0,4.0,1.173
12.0,2.0,1.174
12.0,-3.0,1.175
9.0,-8.0,1.176
7.0,-8.0,1.177
5.0,-6.0,1.178
4.0,-3.0,1.179
0.0,-3.0,1.18
-7.0,-8.0,1.181
-11.0,-9.0,1.182
-8.0,-4.0,1.183
0.0,2.0,1.184
5.0,5.0,1.185
0.0,6.0,1.186
-3.0,8.0,1.187
2.0,9.0,1.188
10.0,6.0,1.189
14.0,0.0,1.19
9.0,-4.0,1.191
5.0,-6.0,1.192
2.0,-6.0,1.193
1.0,-4.0,1.194
0.0,-1.0,1.195
0.0,-1.0,1.196
1.0,0.0,1.197
1.0,2.0,1.198
0.0,0.0,1.199
-3.0,-2.0,1.2
-8.0,-6.0,1.201
-9.0,-6.0,1.202
4.0,-3.0,1.203
15.0,-3.0,1.204
13.0,-1.0,1.205
11.0,0.0,1.206
9.0,-2.0,1.207
7.0,-2.0,1.208
1.0,0.0,1.209
-3.0,2.0,1.21
-3.0,1.0,1.211
-1.0,-2.0,1.212
2.0,-2.0,1.213
5.0,2.0,1.214
4.0,4.0,1.215
3.0,3.0,1.216
2.0,2.0,1.217
0.0,0.0,1.218
-2.0,-1.0,1.219
-2.0,-3.0,1.22
-3.0,-6.0,1.221
-4.0,-6.0,1.222
1.0,-7.0,1.223
15.0,-5.0,1.224
19.0,-1.0,1.225
9.0,1.0,1.226
-3.0,-1.0,1.227
-2.0,-3.0,1.228
6.0,0.0,1.229
5.0,4.0,1.23
0.0,3.0,1.231
1.0,0.0,1.232
5.0,2.0,1.233
4.0,6.0,1.234
0.0,5.0,1.235
-1.0,0.0,1.236
1.0,0.0,1.237
-1.0,-2.0,1.238
-4.0,-3.0,1.239
-4.0,-4.0,1.24
-3.0,-4.0,1.241
-2.0,-3.0,1.242
0.0,0.0,1.243
6.0,2.0,1.244
8.0,6.0,1.245
3.0,8.0,1.246
-2.0,3.0,1.247
0.0,0.0,1.248
1.0,1.0,1.249
-2.0,3.0,1.25
-3.0,1.0,1.251
1.0,0.0,1.252
5.0,-1.0,1.253
6.0,-2.0,1.254
5.0,-3.0,1.255
5.0,-5.0,1.256
6.0,-3.0,1.257
4.0,-2.0,1.258
3.0,-3.0,1.259
3.0,-1.0,1.26
1.0,-3.0,1.261
-2.0,-7.0,1.262
-1.0,-9.0,1.263
6.0,-4.0,1.264
9.0,5.0,1.265
1.0,6.0,1.266
-6.0,2.0,1.267
-5.0,1.0,1.268
-1.0,6.0,1.269
0.0,6.0,1.27
2.0,0.0,1.271
10.0,-5.0,1.272
17.0,-3.0,1.273
14.0,0.0,1.274
11.0,1.0,1.275
13.0,0.0,1.276
19.0,-1.0,1.277
16.0,-5.0,1.278
8.0,-5.0,1.279
1.0,-6.0,1.28
-4.0,-6.0,1.281
-8.0,-5.0,1.282
-10.0,-1.0,1.283
-12.0,3.0,1.284
-11.0,6.0,1.285
-10.0,8.0,1.286
-10.0,2.0,1.287
-7.0,-2.0,1.288
3.0,-2.0,1.289
12.0,-1.0,1.29
15.0,-3.0,1.291
18.0,-5.0,1.292
16.0,-6.0,1.293
13.0,-6.0,1.294
7.0,-4.0,1.295
2.0,-2.0,1.296
-3.0,0.0,1.297
-7.0,1.0,1.298
-11.0,0.0,1.299
-13.0,-2.0,1.3
-12.0,-6.0,1.301
-9.0,-7.0,1.302
-4.0,-7.0,1.303
4.0,-3.0,1.304
10.0,2.0,1.305
4.0,5.0,1.306
-4.0,5.0,1.307
-4.0,2.0,1.308
3.0,-1.0,1.309
9.0,1.0,1.31
11.0,4.0,1.311
12.0,6.0,1.312
14.0,3.0,1.313
11.0,-2.0,1.314
5.0,-5.0,1.315
4.0,-4.0,1.316
5.0,-2.0,1.317
4.0,-2.0,1.318
2.0,-5.0,1.319
-4.0,-6.0,1.32
-9.0,-8.0,1.321
-12.0,-7.0,1.322
-6.0,-5.0,1.323
2.0,-2.0,1.324
6.0,2.0,1.325
1.0,4.0,1.326
-3.0,5.0,1.327
-2.0,5.0,1.328
-2.0,4.0,1.329
-6.0,3.0,1.33
-6.0,4.0,1.331
-2.0,3.0,1.332
1.0,-1.0,1.333
0.0,-3.0,1.334
0.0,-1.0,1.335
7.0,-1.0,1.336
16.0,-3.0,1.337
18.0,-3.0,1.338
13.0,-1.0,1.339
8.0,0.0,1.34
4.0,-5.0,1.341
1.0,-8.0,1.342
4.0,-5.0,1.343
6.0,-2.0,1.344
4.0,0.0,1.345
3.0,1.0,1.346
2.0,2.0,1.347
1.0,3.0,1.348
0.0,1.0,1.349
0.0,-1.0,1.35
6.0,0.0,1.351
10.0,1.0,1.352
3.0,2.0,1.353
-3.0,3.0,1.354
-2.0,2.0,1.355
-1.0,1.0,1.356
0.0,3.0,1.357
0.0,5.0,1.358
-3.0,1.0,1.359
-4.0,-1.0,1.36
-3.0,-4.0,1.361
0.0,-6.0,1.362
7.0,-9.0,1.363
13.0,-10.0,1.364
11.0,-6.0,1.365
4.0,-3.0,1.366
1.0,-5.0,1.367
2.0,-6.0,1.368
0.0,0.0,1.369
-4.0,6.0,1.37
-5.0,6.0,1.371
0.0,2.0,1.372
3.0,1.0,1.373
1.0,3.0,1.374
-1.0,0.0,1.375
0.0,-3.0,1.376
5.0,-1.0,1.377
5.0,0.0,1.378
3.0,-1.0,1.379
0.0,-3.0,1.38
-1.0,-5.0,1.381
-3.0,-8.0,1.382
0.0,-8.0,1.383
3.0,-6.0,1.384
2.0,0.0,1.385
1.0,4.0,1.386
3.0,1.0,1.387
6.0,-1.0,1.388
4.0,0.0,1.389
3.0,1.0,1.39
2.0,0.0,1.391
2.0,-2.0,1.392
6.0,-2.0,1.393
9.0,-3.0,1.394
11.0,-2.0,1.395
14.0,-1.0,1.396
12.0,-1.0,1.397
10.0,-1.0,1.398
3.0,-3.0,1.399
-3.0,-2.0,1.4
-6.0,-1.0,1.401
-5.0,-1.0,1.402
0.0,-2.0,1.403
2.0,0.0,1.404
0.0,5.0,1.405
-5.0,6.0,1.406
-3.0,1.0,1.407
3.0,-2.0,1.408
5.0,0.0,1.409
-1.0,5.0,1.41
-3.0,5.0,1.411
2.0,2.0,1.412
6.0,-1.0,1.413
3.0,-2.0,1.414
-1.0,-1.0,1.415
0.0,0.0,1.416
5.0,2.0,1.417
7.0,3.0,1.418
6.0,0.0,1.419
2.0,-1.0,1.42
-1.0,-5.0,1.421
-7.0,-5.0,1.422
-7.0,-4.0,1.423
-4.0,-2.0,1.424
-3.0,1.0,1.425
-7.0,6.0,1.426
-8.0,9.0,1.427
-2.0,9.0,1.428
2.0,9.0,1.429
2.0,6.0,1.43
2.0,2.0,1.431
10.0,-3.0,1.432
19.0,-4.0,1.433
19.0,-1.0,1.434
15.0,0.0,1.435
14.0,-4.0,1.436
16.0,-9.0,1.437
15.0,-12.0,1.438
9.0,-10.0,1.439
5.0,-9.0,1.44
6.0,-11.0,1.441
14.0,-13.0,1.442
26.0,-10.0,1.443
38.0,-3.0,1.444
36.0,3.0,1.445
16.0,4.0,1.446
-8.0,-1.0,1.447
-21.0,-4.0,1.448
-23.0,0.0,1.449
-19.0,5.0,1.45
-16.0,5.0,1.451
-17.0,4.0,1.452
-21.0,5.0,1.453
-21.0,6.0,1.454
-10.0,1.0,1.455
2.0,-5.0,1.456
3.0,-5.0,1.457
-8.0,-3.0,1.458
-16.0,0.0,1.459
-14.0,0.0,1.46
-7.0,1.0,1.461
0.0,4.0,1.462
10.0,4.0,1.463
24.0,2.0,1.464
35.0,2.0,1.465
30.0,4.0,1.466
12.0,3.0,1.467
-6.0,0.0,1.468
-16.0,0.0,1.469
-12.0,1.0,1.47
0.0,-1.0,1.471
6.0,-7.0,1.472
-1.0,-8.0,1.473
-12.0,-3.0,1.474
-12.0,2.0,1.475
6.0,4.0,1.476
29.0,7.0,1.477
37.0,5.0,1.478
23.0,1.0,1.479
-5.0,-3.0,1.48
-27.0,-7.0,1.481
-32.0,-5.0,1.482
-21.0,-2.0,1.483
-6.0,1.0,1.484
6.0,5.0,1.485
15.0,5.0,1.486
21.0,1.0,1.487
22.0,-2.0,1.488
17.0,-3.0,1.489
10.0,-2.0,1.49
7.0,-1.0,1.491
10.0,-3.0,1.492
8.0,-3.0,1.493
2.0,-4.0,1.494
-6.0,-4.0,1.495
-11.0,-2.0,1.496
-8.0,-2.0,1.497
4.0,-4.0,1.498
15.0,-5.0,1.499
3.0,-4.0,1.5
-19.0,-3.0,1.501
-22.0,-4.0,1.502
5.0,-6.0,1.503
31.0,-3.0,1.504
30.0,1.0,1.505
17.0,6.0,1.506
13.0,5.0,1.507
9.0,5.0,1.508
-4.0,5.0,1.509
-4.0,5.0,1.51
21.0,4.0,1.511
37.0,3.0,1.512
20.0,1.0,1.513
0.0,-1.0,1.514
15.0,-3.0,1.515
42.0,-2.0,1.516
42.0,-2.0,1.517
12.0,-8.0,1.518
-19.0,-8.0,1.519
-45.0,0.0,1.52
-70.0,4.0,1.521
-83.0,3.0,1.522
-66.0,-1.0,1.523
-38.0,3.0,1.524
-27.0,7.0,1.525
-30.0,5.0,1.526
-19.0,-3.0,1.527
11.0,-7.0,1.528
37.0,-4.0,1.529
50.0,-4.0,1.53
55.0,-6.0,1.531
52.0,-9.0,1.532
40.0,-11.0,1.533
29.0,-7.0,1.534
36.0,1.0,1.535
52.0,6.0,1.536
56.0,8.0,1.537
35.0,2.0,1.538
7.0,-2.0,1.539
-12.0,-4.0,1.54
-25.0,-6.0,1.541
-41.0,-2.0,1.542
-56.0,4.0,1.543
-53.0,7.0,1.544
-29.0,3.0,1.545
3.0,0.0,1.546
21.0,-2.0,1.547
20.0,-2.0,1.548
6.0,-1.0,1.549
-9.0,1.0,1.55
-15.0,1.0,1.551
-10.0,-3.0,1.552
2.0,-6.0,1.553
17.0,-5.0,1.554
28.0,0.0,1.555
33.0,0.0,1.556
30.0,-3.0,1.557
16.0,2.0,1.558
-3.0,-6.0,1.559
-15.0,-12.0,1.56
-12.0,-14.0,1.561
-3.0,-17.0,1.562
5.0,-8.0,1.563
11.0,0.0,1.564
8.0,4.0,1.565
-2.0,8.0,1.566
-11.0,4.0,1.567
-9.0,2.0,1.568
2.0,2.0,1.569
10.0,4.0,1.57
7.0,2.0,1.571
0.0,-2.0,1.572
-4.0,-6.0,1.573
-4.0,-10.0,1.574
-5.0,-10.0,1.575
-2.0,-10.0,1.576
9.0,-10.0,1.577
18.0,0.0,1.578
18.0,-4.0,1.579
18.0,-7.0,1.58
16.0,-8.0,1.581
14.0,-9.0,1.582
11.0,-5.0,1.583
7.0,-1.0,1.584
1.0,1.0,1.585
-3.0,3.0,1.586
-3.0,1.0,1.587
-3.0,0.0,1.588
-3.0,0.0,1.589
0.0,1.0,1.59
5.0,0.0,1.591
10.0,-2.0,1.592
14.0,-4.0,1.593
14.0,-6.0,1.594
3.0,-6.0,1.595
-6.0,-6.0,1.596
-6.0,-6.0,1.597
-2.0,-4.0,1.598
6.0,-2.0,1.599
-3.0,-3.0,1.6
-25.0,-4.0,1.601
-34.0,-2.0,1.602
-22.0,-2.0,1.603
-6.0,-2.0,1.604
-3.0,1.0,1.605
-14.0,8.0,1.606
-18.0,9.0,1.607
-5.0,4.0,1.608
9.0,-1.0,1.609
13.0,0.0,1.61
11.0,0.0,1.611
15.0,-1.0,1.612
19.0,-3.0,1.613
15.0,-4.0,1.614
3.0,-5.0,1.615
-1.0,-6.0,1.616
5.0,-2.0,1.617
9.0,3.0,1.618
1.0,7.0,1.619
-11.0,7.0,1.62
-12.0,0.0,1.621
1.0,-4.0,1.622
22.0,-4.0,1.623
35.0,-1.0,1.624
37.0,3.0,1.625
32.0,3.0,1.626
34.0,0.0,1.627
40.0,-2.0,1.628
31.0,-1.0,1.629
4.0,1.0,1.63
-22.0,2.0,1.631
-35.0,0.0,1.632
-46.0,-2.0,1.633
-65.0,-4.0,1.634
-76.0,-3.0,1.635
-60.0,0.0,1.636
-27.0,2.0,1.637
-4.0,0.0,1.638
2.0,-4.0,1.639
-1.0,-7.0,1.64
-3.0,-8.0,1.641
-5.0,-2.0,1.642
-7.0,5.0,1.643
0.0,11.0,1.644
22.0,8.0,1.645
43.0,1.0,1.646
48.0,-4.0,1.647
39.0,-2.0,1.648
27.0,3.0,1.649
21.0,1.0,1.65
19.0,-2.0,1.651
17.0,-2.0,1.652
11.0,3.0,1.653
6.0,5.0,1.654
6.0,0.0,1.655
8.0,-3.0,1.656
13.0,0.0,1.657
8.0,0.0,1.658
-2.0,-3.0,1.659
-9.0,-7.0,1.66
-6.0,-9.0,1.661
0.0,-8.0,1.662
3.0,-8.0,1.663
7.0,-5.0,1.664
12.0,0.0,1.665
17.0,5.0,1.666
13.0,5.0,1.667
2.0,5.0,1.668
-9.0,9.0,1.669
-14.0,9.0,1.67
-10.0,5.0,1.671
-3.0,0.0,1.672
0.0,-1.0,1.673
1.0,-1.0,1.674
1.0,-2.0,1.675
1.0,-5.0,1.676
1.0,-5.0,1.677
0.0,-4.0,1.678
-1.0,-2.0,1.679
-3.0,-1.0,1.68
-5.0,-4.0,1.681
-6.0,-7.0,1.682
-2.0,-5.0,1.683
8.0,-3.0,1.684
13.0,1.0,1.685
10.0,4.0,1.686
4.0,2.0,1.687
9.0,1.0,1.688
16.0,1.0,1.689
16.0,0.0,1.69
9.0,1.0,1.691
6.0,2.0,1.692
6.0,0.0,1.693
4.0,0.0,1.694
-3.0,1.0,1.695
-9.0,2.0,1.696
-6.0,0.0,1.697
-2.0,-2.0,1.698
-5.0,-3.0,1.699
-15.0,-3.0,1.7
-23.0,-5.0,1.701
-20.0,-3.0,1.702
-7.0,-1.0,1.703
5.0,1.0,1.704
4.0,6.0,1.705
-2.0,10.0,1.706
5.0,6.0,1.707
29.0,0.0,1.708
44.0,-2.0,1.709
38.0,1.0,1.71
12.0,3.0,1.711
-16.0,0.0,1.712
-36.0,-6.0,1.713
-47.0,-5.0,1.714
-39.0,0.0,1.715
-13.0,5.0,1.716
10.0,6.0,1.717
12.0,-1.0,1.718
0.0,-8.0,1.719
-8.0,-10.0,1.72
-2.0,-10.0,1.721
3.0,-5.0,1.722
7.0,0.0,1.723
13.0,4.0,1.724
27.0,3.0,1.725
38.0,1.0,1.726
38.0,-1.0,1.727
37.0,-2.0,1.728
29.0,-4.0,1.729
20.0,-4.0,1.73
10.0,-5.0,1.731
7.0,-5.0,1.732
31.0,-7.0,1.733
48.0,-6.0,1.734
44.0,-4.0,1.735
33.0,1.0,1.736
2.0,8.0,1.737
-31.0,7.0,1.738
-55.0,-1.0,1.739
-70.0,-7.0,1.74
-79.0,-5.0,1.741
-81.0,4.0,1.742
-64.0,5.0,1.743
-30.0,0.0,1.744
-4.0,0.0,1.745
1.0,7.0,1.746
0.0,11.0,1.747
11.0,6.0,1.748
23.0,-1.0,1.749
24.0,-3.0,1.75
21.0,-1.0,1.751
25.0,-1.0,1.752
28.0,-3.0,1.753
22.0,-1.0,1.754
19.0,2.0,1.755
21.0,2.0,1.756
21.0,0.0,1.757
9.0,-6.0,1.758
1.0,-7.0,1.759
8.0,-5.0,1.76
21.0,-7.0,1.761
29.0,-7.0,1.762
34.0,-7.0,1.763
41.0,0.0,1.764
39.0,6.0,1.765
27.0,4.0,1.766
14.0,-3.0,1.767
1.0,-3.0,1.768
-13.0,2.0,1.769
-28.0,4.0,1.77
-35.0,-2.0,1.771
-33.0,-6.0,1.772
-30.0,-1.0,1.773
-25.0,2.0,1.774
-3.0,-2.0,1.775
22.0,-4.0,1.776
29.0,1.0,1.777
13.0,7.0,1.778
3.0,9.0,1.779
3.0,6.0,1.78
-4.0,0.0,1.781
-22.0,-7.0,1.782
-23.0,-10.0,1.783
-4.0,-5.0,1.784
6.0,4.0,1.785
-4.0,8.0,1.786
-14.0,6.0,1.787
-3.0,4.0,1.788
9.0,5.0,1.789
3.0,3.0,1.79
-3.0,1.0,1.791
5.0,0.0,1.792
23.0,1.0,1.793
39.0,-1.0,1.794
46.0,-4.0,1.795
43.0,-5.0,1.796
22.0,-4.0,1.797
-10.0,-7.0,1.798
-21.0,-7.0,1.799
-12.0,-1.0,1.8
-2.0,2.0,1.801
-6.0,1.0,1.802
-15.0,-3.0,1.803
-19.0,-3.0,1.804
-29.0,1.0,1.805
-46.0,6.0,1.806
-52.0,7.0,1.807
-39.0,6.0,1.808
-18.0,2.0,1.809
-3.0,1.0,1.81
4.0,1.0,1.811
13.0,0.0,1.812
23.0,-3.0,1.813
28.0,-3.0,1.814
29.0,-2.0,1.815
32.0,0.0,1.816
37.0,1.0,1.817
38.0,0.0,1.818
29.0,-1.0,1.819
13.0,-4.0,1.82
-2.0,-10.0,1.821
-9.0,-10.0,1.822
-9.0,-5.0,1.823
-5.0,-1.0,1.824
-1.0,-1.0,1.825
3.0,-1.0,1.826
5.0,0.0,1.827
6.0,-1.0,1.828
1.0,-2.0,1.829
-4.0,0.0,1.83
-5.0,5.0,1.831
4.0,7.0,1.832
17.0,2.0,1.833
19.0,-3.0,1.834
13.0,-4.0,1.835
8.0,-3.0,1.836
7.0,-2.0,1.837
1.0,-3.0,1.838
-4.0,-3.0,1.839
-10.0,-1.0,1.84
-11.0,-1.0,1.841
-11.0,-1.0,1.842
-3.0,-3.0,1.843
10.0,-3.0,1.844
21.0,0.0,1.845
19.0,3.0,1.846
11.0,5.0,1.847
10.0,4.0,1.848
7.0,1.0,1.849
-9.0,-3.0,1.85
-27.0,-6.0,1.851
-26.0,-4.0,1.852
-7.0,0.0,1.853
11.0,1.0,1.854
16.0,0.0,1.855
20.0,-3.0,1.856
27.0,-6.0,1.857
23.0,-8.0,1.858
9.0,-5.0,1.859
-1.0,5.0,1.86
-3.0,11.0,1.861
-4.0,7.0,1.862
-2.0,-2.0,1.863
4.0,-5.0,1.864
20.0,4.0,1.865
31.0,8.0,1.866
28.0,1.0,1.867
23.0,-7.0,1.868
12.0,-3.0,1.869
5.0,5.0,1.87
11.0,6.0,1.871
17.0,-1.0,1.872
22.0,-7.0,1.873
18.0,-6.0,1.874
-19.0,-1.0,1.875
-49.0,0.0,1.876
-58.0,1.0,1.877
-66.0,-1.0,1.878
-77.0,-3.0,1.879
-90.0,1.0,1.88
-76.0,5.0,1.881
-36.0,3.0,1.882
2.0,-3.0,1.883
20.0,-6.0,1.884
23.0,0.0,1.885
25.0,6.0,1.886
30.0,3.0,1.887
33.0,-3.0,1.888
33.0,-6.0,1.889
34.0,-6.0,1.89
30.0,-6.0,1.891
25.0,-4.0,1.892
26.0,1.0,1.893
28.0,5.0,1.894
21.0,3.0,1.895
8.0,0.0,1.896
2.0,1.0,1.897
8.0,-2.0,1.898
7.0,-6.0,1.899
-2.0,-9.0,1.9
-7.0,-9.0,1.901
-1.0,-8.0,1.902
7.0,-6.0,1.903
2.0,-2.0,1.904
-9.0,4.0,1.905
-11.0,5.0,1.906
0.0,-1.0,1.907
12.0,-6.0,1.908
10.0,-3.0,1.909
2.0,0.0,1.91
5.0,1.0,1.911
14.0,3.0,1.912
14.0,6.0,1.913
2.0,8.0,1.914
-4.0,3.0,1.915
3.0,-1.0,1.916
14.0,-1.0,1.917
16.0,-1.0,1.918
17.0,-2.0,1.919
22.0,-4.0,1.92
26.0,-7.0,1.921
22.0,-6.0,1.922
20.0,-6.0,1.923
22.0,-4.0,1.924
17.0,-1.0,1.925
-7.0,0.0,1.926
-33.0,1.0,1.927
-49.0,1.0,1.928
-55.0,3.0,1.929
-56.0,3.0,1.93
-45.0,1.0,1.931
-17.0,0.0,1.932
8.0,3.0,1.933
12.0,4.0,1.934
4.0,0.0,1.935
9.0,-5.0,1.936
26.0,-2.0,1.937
30.0,2.0,1.938
18.0,6.0,1.939
2.0,4.0,1.94
-5.0,-2.0,1.941
-10.0,-6.0,1.942
-5.0,-7.0,1.943
18.0,-6.0,1.944
37.0,-2.0,1.945
33.0,0.0,1.946
15.0,-4.0,1.947
10.0,-4.0,1.948
21.0,0.0,1.949
18.0,8.0,1.95
-6.0,11.0,1.951
-26.0,12.0,1.952
-24.0,8.0,1.953
-11.0,1.0,1.954
-5.0,-4.0,1.955
-9.0,-6.0,1.956
-13.0,-4.0,1.957
-10.0,-4.0,1.958
-1.0,-6.0,1.959
5.0,-4.0,1.96
3.0,-4.0,1.961
0.0,-8.0,1.962
5.0,-9.0,1.963
18.0,-5.0,1.964
22.0,3.0,1.965
15.0,7.0,1.966
6.0,3.0,1.967
8.0,-1.0,1.968
14.0,-1.0,1.969
15.0,1.0,1.97
12.0,3.0,1.971
8.0,3.0,1.972
5.0,2.0,1.973
6.0,0.0,1.974
13.0,-2.0,1.975
20.0,0.0,1.976
18.0,1.0,1.977
8.0,0.0,1.978
1.0,-2.0,1.979
-4.0,-3.0,1.98
-12.0,-7.0,1.981
-17.0,-7.0,1.982
-15.0,-7.0,1.983
-8.0,-1.0,1.984
-15.0,4.0,1.985
-34.0,5.0,1.986
-52.0,3.0,1.987
-56.0,2.0,1.988
-47.0,5.0,1.989
-24.0,8.0,1.99
4.0,7.0,1.991
18.0,0.0,1.992
16.0,-3.0,1.993
14.0,0.0,1.994
24.0,1.0,1.995
35.0,-2.0,1.996
34.0,-5.0,1.997
26.0,-7.0,1.998
26.0,-5.0,1.999
27.0,-4.0,2.0
19.0,-8.0,2.001
7.0,-9.0,2.002
6.0,-7.0,2.003
12.0,-6.0,2.004
10.0,-3.0,2.005
6.0,-2.0,2.006
11.0,-1.0,2.007
13.0,-5.0,2.008
1.0,-6.0,2.009
-8.0,0.0,2.01
-2.0,3.0,2.011
9.0,-1.0,2.012
8.0,-4.0,2.013
5.0,0.0,2.014
20.0,4.0,2.015
41.0,1.0,2.016
48.0,-2.0,2.017
27.0,-1.0,2.018
1.0,7.0,2.019
-19.0,8.0,2.02
-33.0,0.0,2.021
-40.0,-1.0,2.022
-34.0,3.0,2.023
-15.0,5.0,2.024
0.0,5.0,2.025
2.0,7.0,2.026
-3.0,8.0,2.027
-6.0,4.0,2.028
-4.0,-2.0,2.029
-2.0,-2.0,2.03
-3.0,1.0,2.031
0.0,1.0,2.032
8.0,-3.0,2.033
16.0,-5.0,2.034
13.0,-2.0,2.035
3.0,-3.0,2.036
1.0,-7.0,2.037
7.0,-7.0,2.038
11.0,-5.0,2.039
5.0,-4.0,2.04
0.0,-7.0,2.041
3.0,-10.0,2.042
11.0,-6.0,2.043
13.0,0.0,2.044
11.0,3.0,2.045
7.0,4.0,2.046
3.0,2.0,2.047
-1.0,-1.0,2.048
-6.0,-4.0,2.049
-10.0,-3.0,2.05
-11.0,-1.0,2.051
-9.0,0.0,2.052
-5.0,-2.0,2.053
2.0,-1.0,2.054
11.0,0.0,2.055
17.0,0.0,2.056
19.0,-1.0,2.057
15.0,-1.0,2.058
11.0,-2.0,2.059
6.0,-4.0,2.06
3.0,-7.0,2.061
-3.0,-3.0,2.062
-4.0,0.0,2.063
-3.0,-2.0,2.064
-4.0,-3.0,2.065
-8.0,1.0,2.066
-7.0,6.0,2.067
3.0,6.0,2.068
13.0,3.0,2.069
11.0,3.0,2.07
0.0,4.0,2.071
-3.0,1.0,2.072
4.0,-1.0,2.073
15.0,0.0,2.074
17.0,2.0,2.075
12.0,1.0,2.076
3.0,0.0,2.077
-7.0,-2.0,2.078
-11.0,-2.0,2.079
-9.0,-3.0,2.08
-9.0,-7.0,2.081
-12.0,-10.0,2.082
-8.0,-7.0,2.083
9.0,-3.0,2.084
25.0,3.0,2.085
17.0,9.0,2.086
-11.0,9.0,2.087
-36.0,9.0,2.088
-39.0,6.0,2.089
-26.0,2.0,2.09
-11.0,0.0,2.091
4.0,-2.0,2.092
23.0,-2.0,2.093
40.0,-1.0,2.094
43.0,-2.0,2.095
31.0,-4.0,2.096
24.0,-2.0,2.097
21.0,-1.0,2.098
15.0,-4.0,2.099
0.0,-5.0,2.1
-14.0,-6.0,2.101
-17.0,-2.0,2.102
-13.0,0.0,2.103
-13.0,0.0,2.104
-16.0,-1.0,2.105
-11.0,-1.0,2.106
1.0,2.0,2.107
12.0,5.0,2.108
13.0,4.0,2.109
10.0,0.0,2.11
11.0,-4.0,2.111
17.0,-4.0,2.112
18.0,-1.0,2.113
12.0,1.0,2.114
9.0,0.0,2.115
12.0,-6.0,2.116
18.0,-9.0,2.117
15.0,-8.0,2.118
5.0,-4.0,2.119
-5.0,3.0,2.12
-13.0,5.0,2.121
-9.0,4.0,2.122
7.0,1.0,2.123
21.0,-1.0,2.124
20.0,1.0,2.125
6.0,8.0,2.126
-2.0,9.0,2.127
1.0,4.0,2.128
4.0,-1.0,2.129
-2.0,-1.0,2.13
-11.0,0.0,2.131
-10.0,0.0,2.132
-5.0,0.0,2.133
-7.0,2.0,2.134
-12.0,3.0,2.135
-10.0,-3.0,2.136
2.0,-7.0,2.137
15.0,-9.0,2.138
19.0,-7.0,2.139
15.0,-8.0,2.14
10.0,-10.0,2.141
14.0,-8.0,2.142
29.0,-4.0,2.143
49.0,-1.0,2.144
62.0,-3.0,2.145
58.0,-4.0,2.146
30.0,-4.0,2.147
-20.0,-4.0,2.148
-77.0,0.0,2.149
-107.0,5.0,2.15
-95.0,8.0,2.151
-63.0,5.0,2.152
-43.0,6.0,2.153
-39.0,10.0,2.154
-24.0,10.0,2.155
8.0,3.0,2.156
35.0,0.0,2.157
41.0,0.0,2.158
37.0,2.0,2.159
39.0,0.0,2.16
39.0,-7.0,2.161
28.0,-8.0,2.162
16.0,-8.0,2.163
9.0,-7.0,2.164
-4.0,-3.0,2.165
-28.0,0.0,2.166
-44.0,5.0,2.167
-33.0,0.0,2.168
-12.0,-5.0,2.169
-1.0,-4.0,2.17
8.0,0.0,2.171
33.0,0.0,2.172
63.0,0.0,2.173
74.0,-1.0,2.174
58.0,-1.0,2.175
37.0,-4.0,2.176
20.0,-6.0,2.177
1.0,-2.0,2.178
-15.0,1.0,2.179
-25.0,-1.0,2.18
-30.0,-11.0,2.181
-36.0,-12.0,2.182
-40.0,-6.0,2.183
-31.0,1.0,2.184
-13.0,5.0,2.185
5.0,6.0,2.186
20.0,7.0,2.187
34.0,7.0,2.188
38.0,9.0,2.189
24.0,9.0,2.19
-2.0,5.0,2.191
-26.0,-2.0,2.192
-42.0,-3.0,2.193
-45.0,-1.0,2.194
-28.0,0.0,2.195
9.0,-2.0,2.196
45.0,-5.0,2.197
62.0,-7.0,2.198
63.0,-5.0,2.199
60.0,-1.0,2.2
52.0,0.0,2.201
25.0,4.0,2.202
-12.0,7.0,2.203
-36.0,11.0,2.204
-40.0,10.0,2.205
-31.0,7.0,2.206
-13.0,0.0,2.207
11.0,-6.0,2.208
28.0,-4.0,2.209
22.0,2.0,2.21
2.0,8.0,2.211
-9.0,9.0,2.212
1.0,2.0,2.213
23.0,-4.0,2.214
41.0,-7.0,2.215
44.0,-5.0,2.216
28.0,0.0,2.217
-2.0,-2.0,2.218
-31.0,-5.0,2.219
-43.0,-7.0,2.22
-40.0,-9.0,2.221
-35.0,-7.0,2.222
-34.0,-5.0,2.223
-32.0,-2.0,2.224
-21.0,1.0,2.225
-5.0,3.0,2.226
6.0,2.0,2.227
9.0,0.0,2.228
6.0,-2.0,2.229
5.0,-2.0,2.23
10.0,-1.0,2.231
13.0,1.0,2.232
15.0,0.0,2.233
20.0,-2.0,2.234
26.0,-3.0,2.235
27.0,-2.0,2.236
23.0,0.0,2.237
14.0,-4.0,2.238
9.0,-5.0,2.239
8.0,-5.0,2.24
9.0,-3.0,2.241
10.0,-2.0,2.242
11.0,-2.0,2.243
14.0,-1.0,2.244
13.0,1.0,2.245
1.0,3.0,2.246
-13.0,1.0,2.247
-22.0,0.0,2.248
-20.0,0.0,2.249
-20.0,1.0,2.25
-26.0,5.0,2.251
-24.0,9.0,2.252
-8.0,7.0,2.253
7.0,5.0,2.254
2.0,2.0,2.255
-11.0,0.0,2.256
-9.0,1.0,2.257
-2.0,3.0,2.258
-6.0,2.0,2.259
-21.0,-3.0,2.26
-17.0,-10.0,2.261
11.0,-12.0,2.262
35.0,-12.0,2.263
38.0,-12.0,2.264
31.0,-8.0,2.265
29.0,-3.0,2.266
29.0,0.0,2.267
29.0,0.0,2.268
29.0,6.0,2.269
21.0,13.0,2.27
1.0,13.0,2.271
-14.0,2.0,2.272
-5.0,-5.0,2.273
15.0,0.0,2.274
16.0,8.0,2.275
1.0,7.0,2.276
-4.0,1.0,2.277
2.0,-3.0,2.278
4.0,-3.0,2.279
-6.0,-4.0,2.28
-16.0,-7.0,2.281
-14.0,-7.0,2.282
-11.0,-3.0,2.283
-12.0,0.0,2.284
-13.0,1.0,2.285
-11.0,2.0,2.286
-11.0,1.0,2.287
-9.0,-4.0,2.288
-3.0,-4.0,2.289
4.0,0.0,2.29
4.0,4.0,2.291
2.0,2.0,2.292
8.0,0.0,2.293
16.0,0.0,2.294
18.0,-2.0,2.295
17.0,-5.0,2.296
21.0,-2.0,2.297
23.0,1.0,2.298
18.0,1.0,2.299
5.0,-5.0,2.3
-4.0,-11.0,2.301
-9.0,-7.0,2.302
-13.0,-1.0,2.303
-13.0,0.0,2.304
-8.0,0.0,2.305
4.0,5.0,2.306
20.0,10.0,2.307
29.0,9.0,2.308
20.0,5.0,2.309
-1.0,3.0,2.31
-17.0,4.0,2.311
-18.0,1.0,2.312
-14.0,-5.0,2.313
-18.0,-7.0,2.314
-20.0,-5.0,2.315
-5.0,-2.0,2.316
15.0,1.0,2.317
23.0,0.0,2.318
18.0,-4.0,2.319
8.0,-7.0,2.32
2.0,-11.0,2.321
-2.0,-9.0,2.322
0.0,-5.0,2.323
12.0,-3.0,2.324
24.0,-2.0,2.325
24.0,-1.0,2.326
15.0,0.0,2.327
-4.0,3.0,2.328
-25.0,10.0,2.329
-36.0,16.0,2.33
-21.0,13.0,2.331
7.0,6.0,2.332
20.0,1.0,2.333
9.0,1.0,2.334
-7.0,1.0,2.335
-14.0,0.0,2.336
-13.0,3.0,2.337
-12.0,3.0,2.338
-9.0,-1.0,2.339
-1.0,-7.0,2.34
6.0,-9.0,2.341
17.0,-4.0,2.342
30.0,0.0,2.343
36.0,0.0,2.344
28.0,0.0,2.345
12.0,1.0,2.346
-2.0,-1.0,2.347
-18.0,-3.0,2.348
-36.0,-3.0,2.349
-38.0,-1.0,2.35
-16.0,-1.0,2.351
5.0,-4.0,2.352
12.0,-6.0,2.353
10.0,-6.0,2.354
17.0,-6.0,2.355
22.0,-3.0,2.356
16.0,4.0,2.357
0.0,6.0,2.358
-2.0,1.0,2.359
4.0,-7.0,2.36
10.0,-10.0,2.361
14.0,-7.0,2.362
25.0,-5.0,2.363
29.0,-5.0,2.364
15.0,-2.0,2.365
-4.0,6.0,2.366
-6.0,7.0,2.367
11.0,1.0,2.368
28.0,-3.0,2.369
30.0,0.0,2.37
20.0,4.0,2.371
6.0,3.0,2.372
-3.0,-1.0,2.373
-6.0,0.0,2.374
-10.0,1.0,2.375
-16.0,-2.0,2.376
-22.0,-5.0,2.377
-27.0,-6.0,2.378
-19.0,-3.0,2.379
-2.0,-1.0,2.38
5.0,-2.0,2.381
-2.0,-3.0,2.382
-11.0,-1.0,2.383
-6.0,0.0,2.384
3.0,1.0,2.385
6.0,3.0,2.386
4.0,1.0,2.387
7.0,0.0,2.388
14.0,-1.0,2.389
11.0,-1.0,2.39
2.0,1.0,2.391
-3.0,4.0,2.392
-1.0,2.0,2.393
1.0,1.0,2.394
2.0,1.0,2.395
1.0,1.0,2.396
1.0,-3.0,2.397
2.0,-5.0,2.398
4.0,-4.0,2.399
2.0,-3.0,2.4
-1.0,-9.0,2.401
-2.0,-10.0,2.402
5.0,-7.0,2.403
14.0,-4.0,2.404
11.0,0.0,2.405
2.0,3.0,2.406
0.0,4.0,2.407
5.0,2.0,2.408
6.0,0.0,2.409
-1.0,2.0,2.41
-6.0,4.0,2.411
-1.0,3.0,2.412
6.0,1.0,2.413
9.0,0.0,2.414
8.0,0.0,2.415
6.0,-3.0,2.416
7.0,-4.0,2.417
10.0,-8.0,2.418
16.0,-6.0,2.419
19.0,-5.0,2.42
16.0,-5.0,2.421
9.0,-5.0,2.422
8.0,-3.0,2.423
14.0,-1.0,2.424
12.0,3.0,2.425
-10.0,7.0,2.426
-36.0,5.0,2.427
-42.0,3.0,2.428
-29.0,1.0,2.429
-19.0,-1.0,2.43
-18.0,-1.0,2.431
-17.0,0.0,2.432
-9.0,-1.0,2.433
-1.0,-1.0,2.434
-1.0,-1.0,2.435
-5.0,-2.0,2.436
-5.0,-1.0,2.437
-4.0,-10.0,2.438
1.0,-8.0,2.439
4.0,-7.0,2.44
6.0,-7.0,2.441
6.0,-6.0,2.442
10.0,-4.0,2.443
17.0,0.0,2.444
19.0,5.0,2.445
14.0,9.0,2.446
10.0,7.0,2.447
13.0,5.0,2.448
15.0,2.0,2.449
11.0,-1.0,2.45
6.0,0.0,2.451
9.0,1.0,2.452
16.0,0.0,2.453
20.0,-1.0,2.454
18.0,-2.0,2.455
17.0,-3.0,2.456
18.0,-1.0,2.457
14.0,-10.0,2.458
3.0,-8.0,2.459
-5.0,-7.0,2.46
-7.0,-7.0,2.461
-5.0,-6.0,2.462
-2.0,-4.0,2.463
-3.0,0.0,2.464
-5.0,5.0,2.465
-5.0,9.0,2.466
-2.0,7.0,2.467
1.0,5.0,2.468
4.0,2.0,2.469
6.0,-1.0,2.47
10.0,0.0,2.471
12.0,1.0,2.472
10.0,0.0,2.473
6.0,-1.0,2.474
6.0,-2.0,2.475
5.0,-3.0,2.476
2.0,-1.0,2.477
-2.0,0.0,2.478
-5.0,1.0,2.479
-10.0,4.0,2.48
-15.0,10.0,2.481
-15.0,30.0,2.482
-9.0,60.0,2.483
-4.0,90.0,2.484
-3.0,102.0,2.485
-4.0,81.0,2.486
0.0,34.0,2.487
6.0,-13.0,2.488
10.0,-41.0,2.489
12.0,-53.0,2.49
14.0,-50.0,2.491
15.0,-18.0,2.492
11.0,39.0,2.493
4.0,73.0,2.494
-1.0,45.0,2.495
-2.0,-19.0,2.496
-1.0,-61.0,2.497
-1.0,-75.0,2.498
-3.0,-90.0,2.499
-9.0,-116.0,2.5
-12.0,-125.0,2.501
-11.0,-109.0,2.502
-3.0,-86.0,2.503
5.0,-69.0,2.504
6.0,-45.0,2.505
1.0,-23.0,2.506
-1.0,-14.0,2.507
0.0,-16.0,2.508
3.0,-13.0,2.509
3.0,-7.0,2.51
4.0,-7.0,2.511
7.0,-9.0,2.512
15.0,-2.0,2.513
20.0,11.0,2.514
20.0,16.0,2.515
19.0,13.0,2.516
20.0,13.0,2.517
22.0,14.0,2.518
25.0,17.0,2.519
22.0,25.0,2.52
18.0,35.0,2.521
17.0,46.0,2.522
16.0,48.0,2.523
13.0,49.0,2.524
4.0,52.0,2.525
-3.0,52.0,2.526
-9.0,46.0,2.527
-11.0,38.0,2.528
-12.0,34.0,2.529
-10.0,31.0,2.53
-8.0,24.0,2.531
-7.0,15.0,2.532
-6.0,9.0,2.533
-4.0,11.0,2.534
-1.0,12.0,2.535
4.0,12.0,2.536
14.0,12.0,2.537
30.0,7.0,2.538
58.0,0.0,2.539
79.0,-3.0,2.54
71.0,-6.0,2.541
29.0,-6.0,2.542
-19.0,-7.0,2.543
-49.0,-8.0,2.544
-70.0,-6.0,2.545
-109.0,2.0,2.546
-151.0,15.0,2.547
-141.0,20.0,2.548
-65.0,11.0,2.549
20.0,-1.0,2.55
48.0,-8.0,2.551
27.0,-6.0,2.552
17.0,-6.0,2.553
35.0,-7.0,2.554
47.0,-9.0,2.555
30.0,-10.0,2.556
10.0,-10.0,2.557
5.0,-10.0,2.558
11.0,-7.0,2.559
20.0,-3.0,2.56
41.0,-8.0,2.561
66.0,-12.0,2.562
63.0,-12.0,2.563
19.0,-6.0,2.564
-30.0,0.0,2.565
-52.0,2.0,2.566
-60.0,4.0,2.567
-75.0,13.0,2.568
-82.0,20.0,2.569
-60.0,14.0,2.57
-28.0,1.0,2.571
-16.0,-3.0,2.572
-10.0,6.0,2.573
8.0,13.0,2.574
38.0,10.0,2.575
56.0,4.0,2.576
59.0,6.0,2.577
57.0,7.0,2.578
54.0,2.0,2.579
42.0,-5.0,2.58
23.0,-11.0,2.581
13.0,-14.0,2.582
14.0,-19.0,2.583
12.0,-22.0,2.584
1.0,-20.0,2.585
-5.0,-19.0,2.586
1.0,-29.0,2.587
9.0,-45.0,2.588
8.0,-51.0,2.589
4.0,-46.0,2.59
7.0,-37.0,2.591
14.0,-31.0,2.592
17.0,-30.0,2.593
15.0,-30.0,2.594
14.0,-26.0,2.595
16.0,-18.0,2.596
19.0,-9.0,2.597
20.0,-2.0,2.598
21.0,5.0,2.599
16.0,10.0,2.6
5.0,9.0,2.601
-3.0,14.0,2.602
-1.0,18.0,2.603
3.0,20.0,2.604
0.0,21.0,2.605
-8.0,23.0,2.606
-11.0,24.0,2.607
-9.0,24.0,2.608
-7.0,21.0,2.609
-8.0,18.0,2.61
-7.0,15.0,2.611
-5.0,13.0,2.612
-5.0,13.0,2.613
-5.0,13.0,2.614
-4.0,14.0,2.615
-4.0,21.0,2.616
-4.0,36.0,2.617
-5.0,56.0,2.618
-4.0,68.0,2.619
-2.0,70.0,2.62
0.0,63.0,2.621
4.0,59.0,2.622
11.0,55.0,2.623
12.0,46.0,2.624
5.0,34.0,2.625
-3.0,26.0,2.626
-6.0,25.0,2.627
2.0,24.0,2.628
25.0,21.0,2.629
57.0,11.0,2.63
75.0,-8.0,2.631
48.0,-36.0,2.632
-13.0,-69.0,2.633
-55.0,-103.0,2.634
-51.0,-126.0,2.635
-43.0,-133.0,2.636
-67.0,-125.0,2.637
-102.0,-107.0,2.638
-86.0,-85.0,2.639
-20.0,-65.0,2.64
29.0,-53.0,2.641
23.0,-52.0,2.642
1.0,-68.0,2.643
4.0,-87.0,2.644
21.0,-97.0,2.645
18.0,-95.0,2.646
6.0,-86.0,2.647
12.0,-70.0,2.648
28.0,-45.0,2.649
30.0,-15.0,2.65
22.0,3.0,2.651
20.0,6.0,2.652
24.0,8.0,2.653
23.0,24.0,2.654
18.0,39.0,2.655
17.0,42.0,2.656
17.0,37.0,2.657
15.0,36.0,2.658
12.0,42.0,2.659
9.0,50.0,2.66
3.0,54.0,2.661
-2.0,62.0,2.662
-2.0,68.0,2.663
3.0,69.0,2.664
7.0,71.0,2.665
2.0,75.0,2.666
-2.0,74.0,2.667
-1.0,66.0,2.668
0.0,58.0,2.669
-3.0,56.0,2.67
-5.0,52.0,2.671
-1.0,43.0,2.672
3.0,35.0,2.673
2.0,35.0,2.674
-1.0,33.0,2.675
1.0,25.0,2.676
7.0,16.0,2.677
8.0,12.0,2.678
3.0,11.0,2.679
-2.0,6.0,2.68
-4.0,-3.0,2.681
-3.0,-5.0,2.682
-1.0,-3.0,2.683
-1.0,-3.0,2.684
-1.0,-5.0,2.685
-3.0,-2.0,2.686
-7.0,-1.0,2.687
-8.0,-5.0,2.688
-5.0,-9.0,2.689
-1.0,-11.0,2.69
1.0,-10.0,2.691
3.0,-10.0,2.692
4.0,-10.0,2.693
5.0,-9.0,2.694
3.0,-11.0,2.695
5.0,-15.0,2.696
10.0,-16.0,2.697
12.0,-17.0,2.698
9.0,-19.0,2.699
0.0,-20.0,2.7
-9.0,-18.0,2.701
-11.0,-15.0,2.702
-3.0,-15.0,2.703
7.0,-17.0,2.704
10.0,-12.0,2.705
2.0,-5.0,2.706
0.0,-4.0,2.707
5.0,-8.0,2.708
11.0,-9.0,2.709
7.0,-4.0,2.71
1.0,-3.0,2.711
2.0,-7.0,2.712
8.0,-9.0,2.713
9.0,-6.0,2.714
7.0,-4.0,2.715
5.0,-6.0,2.716
6.0,-5.0,2.717
4.0,-3.0,2.718
1.0,-4.0,2.719
-2.0,-7.0,2.72
-5.0,-13.0,2.721
-7.0,-11.0,2.722
-3.0,-5.0,2.723
2.0,-3.0,2.724
3.0,-3.0,2.725
-2.0,-2.0,2.726
-6.0,2.0,2.727
-3.0,7.0,2.728
0.0,10.0,2.729
-3.0,9.0,2.73
-5.0,7.0,2.731
-2.0,1.0,2.732
9.0,-3.0,2.733
17.0,-7.0,2.734
19.0,-8.0,2.735
17.0,-7.0,2.736
16.0,-7.0,2.737
13.0,-13.0,2.738
10.0,-18.0,2.739
5.0,-13.0,2.74
-2.0,-7.0,2.741
-8.0,-3.0,2.742
-9.0,-1.0,2.743
-3.0,7.0,2.744
2.0,21.0,2.745
4.0,28.0,2.746
7.0,23.0,2.747
12.0,16.0,2.748
13.0,13.0,2.749
10.0,13.0,2.75
6.0,9.0,2.751
-1.0,5.0,2.752
-6.0,3.0,2.753
-5.0,-6.0,2.754
12.0,-26.0,2.755
34.0,-39.0,2.756
34.0,-32.0,2.757
11.0,-13.0,2.758
-13.0,-6.0,2.759
-22.0,-8.0,2.76
-31.0,-8.0,2.761
-43.0,1.0,2.762
-42.0,8.0,2.763
-21.0,7.0,2.764
3.0,5.0,2.765
18.0,2.0,2.766
21.0,-7.0,2.767
21.0,-18.0,2.768
15.0,-21.0,2.769
2.0,-13.0,2.77
-5.0,-7.0,2.771
-9.0,-4.0,2.772
-17.0,-4.0,2.773
-24.0,-2.0,2.774
-15.0,-3.0,2.775
7.0,-7.0,2.776
26.0,-9.0,2.777
35.0,-11.0,2.778
45.0,-11.0,2.779
57.0,-6.0,2.78
64.0,1.0,2.781
68.0,11.0,2.782
75.0,13.0,2.783
64.0,12.0,2.784
16.0,14.0,2.785
-46.0,19.0,2.786
-79.0,24.0,2.787
-80.0,33.0,2.788
-90.0,50.0,2.789
-123.0,64.0,2.79
-129.0,54.0,2.791
-80.0,22.0,2.792
-21.0,-6.0,2.793
-2.0,-14.0,2.794
-5.0,-9.0,2.795
7.0,-9.0,2.796
33.0,-13.0,2.797
43.0,-26.0,2.798
46.0,-36.0,2.799
60.0,-38.0,2.8
78.0,-29.0,2.801
71.0,-8.0,2.802
41.0,3.0,2.803
16.0,-8.0,2.804
12.0,-32.0,2.805
22.0,-46.0,2.806
34.0,-38.0,2.807
37.0,-19.0,2.808
27.0,-4.0,2.809
15.0,5.0,2.81
20.0,6.0,2.811
34.0,5.0,2.812
30.0,2.0,2.813
2.0,2.0,2.814
-20.0,2.0,2.815
-12.0,2.0,2.816
13.0,2.0,2.817
24.0,2.0,2.818
9.0,7.0,2.819
-16.0,12.0,2.82
-26.0,13.0,2.821
-20.0,11.0,2.822
-6.0,8.0,2.823
1.0,11.0,2.824
-6.0,15.0,2.825
-30.0,18.0,2.826
-54.0,16.0,2.827
-61.0,13.0,2.828
-47.0,8.0,2.829
-32.0,6.0,2.83
-28.0,7.0,2.831
-24.0,8.0,2.832
-7.0,6.0,2.833
18.0,2.0,2.834
28.0,0.0,2.835
19.0,-1.0,2.836
11.0,0.0,2.837
9.0,-2.0,2.838
15.0,-4.0,2.839
14.0,-9.0,2.84
12.0,-15.0,2.841
9.0,-16.0,2.842
5.0,-11.0,2.843
1.0,-5.0,2.844
3.0,0.0,2.845
10.0,-2.0,2.846
12.0,-3.0,2.847
7.0,-5.0,2.848
4.0,-1.0,2.849
8.0,4.0,2.85
13.0,8.0,2.851
11.0,5.0,2.852
10.0,-1.0,2.853
14.0,-5.0,2.854
20.0,-5.0,2.855
22.0,-5.0,2.856
19.0,-5.0,2.857
10.0,-7.0,2.858
0.0,-6.0,2.859
-9.0,-3.0,2.86
-14.0,-6.0,2.861
-9.0,-6.0,2.862
0.0,-4.0,2.863
5.0,-1.0,2.864
3.0,2.0,2.865
0.0,2.0,2.866
3.0,1.0,2.867
10.0,-2.0,2.868
11.0,-6.0,2.869
9.0,-9.0,2.87
6.0,-10.0,2.871
3.0,-6.0,2.872
-1.0,-1.0,2.873
0.0,-2.0,2.874
8.0,-6.0,2.875
18.0,-7.0,2.876
20.0,-1.0,2.877
15.0,4.0,2.878
6.0,6.0,2.879
-4.0,4.0,2.88
-15.0,0.0,2.881
-25.0,0.0,2.882
-27.0,4.0,2.883
-25.0,10.0,2.884
-27.0,19.0,2.885
-32.0,27.0,2.886
-30.0,27.0,2.887
-14.0,16.0,2.888
7.0,1.0,2.889
20.0,-7.0,2.89
22.0,-10.0,2.891
25.0,-15.0,2.892
36.0,-20.0,2.893
41.0,-23.0,2.894
24.0,-21.0,2.895
0.0,-18.0,2.896
-15.0,-12.0,2.897
-21.0,-5.0,2.898
-26.0,3.0,2.899
-29.0,11.0,2.9
-26.0,13.0,2.901
-19.0,15.0,2.902
1.0,17.0,2.903
20.0,16.0,2.904
36.0,13.0,2.905
48.0,7.0,2.906
52.0,-13.0,2.907
57.0,-40.0,2.908
66.0,-57.0,2.909
75.0,-48.0,2.91
83.0,-26.0,2.911
87.0,-11.0,2.912
79.0,-14.0,2.913
57.0,-15.0,2.914
-8.0,-7.0,2.915
-63.0,6.0,2.916
-89.0,16.0,2.917
-112.0,19.0,2.918
-134.0,24.0,2.919
-161.0,29.0,2.92
-153.0,30.0,2.921
-92.0,31.0,2.922
-16.0,33.0,2.923
27.0,33.0,2.924
39.0,22.0,2.925
48.0,11.0,2.926
57.0,4.0,2.927
56.0,-2.0,2.928
56.0,-6.0,2.929
74.0,-9.0,2.93
86.0,-8.0,2.931
45.0,-7.0,2.932
-34.0,-5.0,2.933
-84.0,-4.0,2.934
-69.0,-4.0,2.935
-30.0,-3.0,2.936
-12.0,3.0,2.937
-16.0,9.0,2.938
-20.0,7.0,2.939
-23.0,5.0,2.94
-25.0,4.0,2.941
-10.0,9.0,2.942
21.0,17.0,2.943
41.0,17.0,2.944
37.0,2.0,2.945
33.0,-23.0,2.946
43.0,-38.0,2.947
48.0,-30.0,2.948
31.0,-12.0,2.949
15.0,-3.0,2.95
20.0,-7.0,2.951
32.0,-9.0,2.952
28.0,-7.0,2.953
15.0,-7.0,2.954
9.0,-9.0,2.955
13.0,-6.0,2.956
15.0,1.0,2.957
14.0,3.0,2.958
8.0,0.0,2.959
-1.0,1.0,2.96
-12.0,7.0,2.961
-14.0,12.0,2.962
-4.0,11.0,2.963
7.0,7.0,2.964
11.0,5.0,2.965
5.0,-2.0,2.966
4.0,-15.0,2.967
4.0,-23.0,2.968
-2.0,-16.0,2.969
-11.0,-5.0,2.97
-11.0,-1.0,2.971
-3.0,-2.0,2.972
0.0,-1.0,2.973
-2.0,5.0,2.974
-7.0,8.0,2.975
-6.0,9.0,2.976
-1.0,9.0,2.977
-3.0,7.0,2.978
-9.0,4.0,2.979
-16.0,1.0,2.98
-15.0,-2.0,2.981
-7.0,-3.0,2.982
2.0,-2.0,2.983
5.0,0.0,2.984
0.0,4.0,2.985
-7.0,8.0,2.986
-9.0,7.0,2.987
-6.0,4.0,2.988
-2.0,5.0,2.989
-4.0,8.0,2.99
-8.0,9.0,2.991
-4.0,4.0,2.992
5.0,0.0,2.993
14.0,-2.0,2.994
16.0,-6.0,2.995
17.0,-8.0,2.996
21.0,-7.0,2.997
19.0,-4.0,2.998
12.0,-1.0,2.999
6.0,1.0,3.0
7.0,0.0,3.001
8.0,-3.0,3.002
10.0,-3.0,3.003
10.0,-1.0,3.004
0.0,4.0,3.005
-9.0,7.0,3.006
-21.0,3.0,3.007
-31.0,0.0,3.008
-36.0,0.0,3.009
-35.0,-1.0,3.01
-17.0,-5.0,3.011
-3.0,-10.0,3.012
-3.0,-17.0,3.013
-1.0,-23.0,3.014
6.0,-22.0,3.015
12.0,-20.0,3.016
16.0,-17.0,3.017
18.0,-11.0,3.018
10.0,-2.0,3.019
1.0,4.0,3.02
-9.0,2.0,3.021
-16.0,1.0,3.022
-7.0,0.0,3.023
9.0,1.0,3.024
20.0,11.0,3.025
29.0,30.0,3.026
57.0,37.0,3.027
93.0,19.0,3.028
103.0,-18.0,3.029
73.0,-47.0,3.03
35.0,-46.0,3.031
20.0,-14.0,3.032
17.0,25.0,3.033
5.0,49.0,3.034
-12.0,51.0,3.035
-21.0,50.0,3.036
-22.0,60.0,3.037
-20.0,70.0,3.038
-20.0,70.0,3.039
-31.0,63.0,3.04
-47.0,52.0,3.041
-43.0,43.0,3.042
-7.0,28.0,3.043
29.0,13.0,3.044
26.0,3.0,3.045
-18.0,-7.0,3.046
-63.0,-29.0,3.047
-86.0,-57.0,3.048
-92.0,-80.0,3.049
-86.0,-98.0,3.05
-61.0,-112.0,3.051
-13.0,-119.0,3.052
40.0,-109.0,3.053
85.0,-97.0,3.054
114.0,-98.0,3.055
125.0,-113.0,3.056
117.0,-118.0,3.057
89.0,-102.0,3.058
63.0,-73.0,3.059
51.0,-45.0,3.06
50.0,-22.0,3.061
46.0,0.0,3.062
24.0,18.0,3.063
-21.0,27.0,3.064
-47.0,32.0,3.065
-5.0,36.0,3.066
83.0,37.0,3.067
108.0,35.0,3.068
13.0,35.0,3.069
-103.0,35.0,3.07
-105.0,30.0,3.071
-14.0,19.0,3.072
18.0,20.0,3.073
-84.0,36.0,3.074
-230.0,58.0,3.075
-281.0,77.0,3.076
-213.0,91.0,3.077
-96.0,93.0,3.078
-20.0,79.0,3.079
-15.0,60.0,3.08
-26.0,50.0,3.081
24.0,56.0,3.082
140.0,62.0,3.083
227.0,49.0,3.084
204.0,26.0,3.085
104.0,8.0,3.086
10.0,4.0,3.087
-66.0,9.0,3.088
-174.0,21.0,3.089
-288.0,35.0,3.09
-299.0,41.0,3.091
-165.0,25.0,3.092
20.0,-4.0,3.093
140.0,-21.0,3.094
177.0,-19.0,3.095
176.0,-12.0,3.096
167.0,-16.0,3.097
143.0,-29.0,3.098
108.0,-31.0,3.099
73.0,-34.0,3.1
40.0,-35.0,3.101
12.0,-36.0,3.102
2.0,-37.0,3.103
-6.0,-32.0,3.104
-14.0,-4.0,3.105
-12.0,15.0,3.106
20.0,4.0,3.107
46.0,-2.0,3.108
57.0,5.0,3.109
65.0,5.0,3.11
60.0,-17.0,3.111
45.0,-41.0,3.112
3.0,-65.0,3.113
-21.0,-70.0,3.114
11.0,-17.0,3.115
28.0,24.0,3.116
2.0,28.0,3.117
-27.0,23.0,3.118
-35.0,-4.0,3.119
21.0,-17.0,3.12
73.0,-25.0,3.121
87.0,-31.0,3.122
116.0,-37.0,3.123
184.0,-33.0,3.124
217.0,-23.0,3.125
145.0,-15.0,3.126
0.0,-8.0,3.127
-149.0,14.0,3.128
-271.0,45.0,3.129
-338.0,59.0,3.13
-302.0,46.0,3.131
-172.0,21.0,3.132
-46.0,7.0,3.133
-9.0,13.0,3.134
-50.0,27.0,3.135
-93.0,27.0,3.136
-85.0,9.0,3.137
-38.0,-11.0,3.138
3.0,-12.0,3.139
28.0,-12.0,3.14
-5.0,-6.0,3.141
-33.0,0.0,3.142
-45.0,7.0,3.143
-49.0,18.0,3.144
-24.0,39.0,3.145
0.0,48.0,3.146
20.0,21.0,3.147
39.0,0.0,3.148
56.0,-6.0,3.149
81.0,-20.0,3.15
128.0,-54.0,3.151
157.0,-79.0,3.152
129.0,-72.0,3.153
110.0,-59.0,3.154
123.0,-31.0,3.155
125.0,-7.0,3.156
91.0,2.0,3.157
61.0,15.0,3.158
71.0,30.0,3.159
94.0,36.0,3.16
82.0,38.0,3.161
31.0,47.0,3.162
-18.0,52.0,3.163
-35.0,47.0,3.164
-25.0,31.0,3.165
-8.0,11.0,3.166
-2.0,-10.0,3.167
-20.0,-35.0,3.168
-64.0,-63.0,3.169
-133.0,-82.0,3.17
-198.0,-78.0,3.171
-215.0,-41.0,3.172
-166.0,9.0,3.173
-99.0,39.0,3.174
-82.0,35.0,3.175
-108.0,23.0,3.176
-109.0,26.0,3.177
-34.0,29.0,3.178
53.0,10.0,3.179
118.0,-20.0,3.18
177.0,-36.0,3.181
223.0,-36.0,3.182
206.0,-46.0,3.183
115.0,-63.0,3.184
29.0,-62.0,3.185
9.0,-47.0,3.186
25.0,-42.0,3.187
11.0,-44.0,3.188
-39.0,-28.0,3.189
-84.0,8.0,3.19
-98.0,44.0,3.191
-78.0,68.0,3.192
-39.0,88.0,3.193
-15.0,96.0,3.194
-35.0,69.0,3.195
-86.0,28.0,3.196
-112.0,13.0,3.197
-109.0,27.0,3.198
-103.0,32.0,3.199
-93.0,4.0,3.2
-68.0,-28.0,3.201
-27.0,-30.0,3.202
61.0,-13.0,3.203
134.0,-9.0,3.204
158.0,-24.0,3.205
153.0,-36.0,3.206
59.0,-30.0,3.207
-10.0,-9.0,3.208
-7.0,15.0,3.209
6.0,31.0,3.21
50.0,34.0,3.211
86.0,35.0,3.212
97.0,37.0,3.213
100.0,32.0,3.214
78.0,14.0,3.215
56.0,-7.0,3.216
37.0,-17.0,3.217
28.0,-27.0,3.218
53.0,-56.0,3.219
70.0,-101.0,3.22
72.0,-136.0,3.221
83.0,-122.0,3.222
116.0,-70.0,3.223
130.0,-22.0,3.224
94.0,-5.0,3.225
36.0,-4.0,3.226
-2.0,6.0,3.227
-30.0,26.0,3.228
-74.0,44.0,3.229
-126.0,55.0,3.23
-164.0,67.0,3.231
-207.0,81.0,3.232
-268.0,91.0,3.233
-317.0,83.0,3.234
-299.0,60.0,3.235
-197.0,30.0,3.236
-57.0,14.0,3.237
72.0,11.0,3.238
135.0,14.0,3.239
125.0,13.0,3.24
97.0,14.0,3.241
100.0,38.0,3.242
116.0,71.0,3.243
104.0,86.0,3.244
63.0,68.0,3.245
25.0,24.0,3.246
13.0,-27.0,3.247
14.0,-63.0,3.248
16.0,-71.0,3.249
35.0,-57.0,3.25
100.0,-46.0,3.251
198.0,-60.0,3.252
252.0,-84.0,3.253
185.0,-82.0,3.254
6.0,-47.0,3.255
-166.0,-9.0,3.256
-230.0,3.0,3.257
-209.0,-3.0,3.258
-214.0,-10.0,3.259
-286.0,-20.0,3.26
-319.0,-48.0,3.261
-207.0,-78.0,3.262
-1.0,-87.0,3.263
149.0,-72.0,3.264
181.0,-53.0,3.265
152.0,-38.0,3.266
121.0,-10.0,3.267
61.0,35.0,3.268
-49.0,70.0,3.269
-154.0,82.0,3.27
-155.0,81.0,3.271
-40.0,76.0,3.272
82.0,63.0,3.273
106.0,39.0,3.274
51.0,26.0,3.275
22.0,28.0,3.276
61.0,30.0,3.277
110.0,19.0,3.278
106.0,6.0,3.279
64.0,-5.0,3.28
33.0,-9.0,3.281
17.0,-10.0,3.282
3.0,-1.0,3.283
14.0,10.0,3.284
59.0,28.0,3.285
97.0,39.0,3.286
90.0,27.0,3.287
62.0,15.0,3.288
36.0,2.0,3.289
-4.0,-7.0,3.29
-66.0,-2.0,3.291
-94.0,-2.0,3.292
-45.0,-19.0,3.293
41.0,-35.0,3.294
108.0,-44.0,3.295
153.0,-47.0,3.296
171.0,-32.0,3.297
126.0,-15.0,3.298
10.0,11.0,3.299
-77.0,40.0,3.3
-80.0,47.0,3.301
-88.0,24.0,3.302
-111.0,-2.0,3.303
-128.0,-2.0,3.304
-126.0,21.0,3.305
-101.0,32.0,3.306
-7.0,21.0,3.307
63.0,11.0,3.308
62.0,20.0,3.309
45.0,32.0,3.31
-16.0,23.0,3.311
-56.0,-2.0,3.312
-22.0,-21.0,3.313
0.0,-27.0,3.314
-9.0,-30.0,3.315
-18.0,-38.0,3.316
-18.0,-47.0,3.317
-11.0,-49.0,3.318
18.0,-41.0,3.319
30.0,-34.0,3.32
41.0,-32.0,3.321
61.0,-29.0,3.322
93.0,-24.0,3.323
122.0,-22.0,3.324
114.0,-19.0,3.325
37.0,-5.0,3.326
-73.0,18.0,3.327
-131.0,30.0,3.328
-114.0,20.0,3.329
-101.0,3.0,3.33
-144.0,0.0,3.331
-186.0,4.0,3.332
-143.0,8.0,3.333
-41.0,11.0,3.334
35.0,12.0,3.335
54.0,8.0,3.336
45.0,1.0,3.337
11.0,9.0,3.338
-30.0,36.0,3.339
-46.0,62.0,3.34
-7.0,60.0,3.341
57.0,33.0,3.342
102.0,5.0,3.343
121.0,-5.0,3.344
124.0,-4.0,3.345
107.0,-8.0,3.346
80.0,-24.0,3.347
83.0,-40.0,3.348
119.0,-42.0,3.349
132.0,-35.0,3.35
83.0,-31.0,3.351
24.0,-35.0,3.352
25.0,-35.0,3.353
72.0,-21.0,3.354
81.0,-2.0,3.355
13.0,10.0,3.356
-81.0,10.0,3.357
-156.0,12.0,3.358
-192.0,24.0,3.359
-210.0,33.0,3.36
-171.0,33.0,3.361
-120.0,28.0,3.362
-34.0,14.0,3.363
42.0,0.0,3.364
94.0,-11.0,3.365
119.0,-22.0,3.366
63.0,-30.0,3.367
3.0,-31.0,3.368
-65.0,-9.0,3.369
-113.0,8.0,3.37
-98.0,14.0,3.371
-70.0,17.0,3.372
-8.0,6.0,3.373
37.0,-2.0,3.374
31.0,0.0,3.375
38.0,1.0,3.376
87.0,-3.0,3.377
136.0,-4.0,3.378
127.0,6.0,3.379
18.0,13.0,3.38
-75.0,12.0,3.381
-66.0,17.0,3.382
-20.0,29.0,3.383
-19.0,27.0,3.384
-33.0,10.0,3.385
-8.0,-3.0,3.386
31.0,-6.0,3.387
33.0,-5.0,3.388
18.0,-9.0,3.389
26.0,-12.0,3.39
29.0,-12.0,3.391
-3.0,-15.0,3.392
-29.0,-18.0,3.393
-4.0,-16.0,3.394
43.0,-11.0,3.395
48.0,-11.0,3.396
22.0,-14.0,3.397
25.0,-26.0,3.398
80.0,-46.0,3.399
131.0,-66.0,3.4
108.0,-63.0,3.401
13.0,-17.0,3.402
-85.0,44.0,3.403
-114.0,80.0,3.404
-80.0,73.0,3.405
-46.0,46.0,3.406
-50.0,25.0,3.407
-60.0,13.0,3.408
-37.0,8.0,3.409
3.0,2.0,3.41
34.0,-1.0,3.411
56.0,-4.0,3.412
79.0,-1.0,3.413
94.0,7.0,3.414
101.0,17.0,3.415
121.0,26.0,3.416
162.0,42.0,3.417
192.0,69.0,3.418
156.0,92.0,3.419
34.0,90.0,3.42
-125.0,61.0,3.421
-233.0,29.0,3.422
-225.0,-13.0,3.423
-135.0,-75.0,3.424
-65.0,-137.0,3.425
-71.0,-157.0,3.426
-104.0,-127.0,3.427
-93.0,-92.0,3.428
-48.0,-78.0,3.429
-33.0,-71.0,3.43
-61.0,-52.0,3.431
-86.0,-31.0,3.432
-68.0,-20.0,3.433
-21.0,-5.0,3.434
26.0,20.0,3.435
55.0,45.0,3.436
72.0,57.0,3.437
70.0,65.0,3.438
33.0,69.0,3.439
-25.0,64.0,3.44
-51.0,33.0,3.441
-7.0,8.0,3.442
81.0,5.0,3.443
159.0,-5.0,3.444
200.0,-40.0,3.445
197.0,-64.0,3.446
150.0,-50.0,3.447
87.0,-32.0,3.448
64.0,-2.0,3.449
90.0,22.0,3.45
89.0,32.0,3.451
18.0,41.0,3.452
-58.0,43.0,3.453
-72.0,41.0,3.454
-62.0,26.0,3.455
-106.0,14.0,3.456
-187.0,13.0,3.457
-238.0,14.0,3.458
-208.0,18.0,3.459
-131.0,10.0,3.46
-59.0,-4.0,3.461
-22.0,-14.0,3.462
-18.0,-29.0,3.463
-15.0,-47.0,3.464
18.0,-49.0,3.465
58.0,-23.0,3.466
64.0,7.0,3.467
42.0,20.0,3.468
29.0,12.0,3.469
30.0,0.0,3.47
28.0,-9.0,3.471
33.0,-14.0,3.472
54.0,-11.0,3.473
60.0,-4.0,3.474
37.0,-1.0,3.475
30.0,-1.0,3.476
61.0,8.0,3.477
75.0,23.0,3.478
27.0,33.0,3.479
-37.0,34.0,3.48
-50.0,29.0,3.481
-35.0,20.0,3.482
-39.0,7.0,3.483
-29.0,-1.0,3.484
35.0,3.0,3.485
99.0,11.0,3.486
84.0,12.0,3.487
21.0,14.0,3.488
-10.0,26.0,3.489
4.0,34.0,3.49
13.0,21.0,3.491
0.0,-4.0,3.492
-9.0,-22.0,3.493
-4.0,-29.0,3.494
6.0,-32.0,3.495
29.0,-34.0,3.496
75.0,-28.0,3.497
118.0,-23.0,3.498
111.0,-23.0,3.499
44.0,-20.0,3.5
-44.0,-7.0,3.501
-103.0,8.0,3.502
-119.0,12.0,3.503
-117.0,6.0,3.504
-122.0,12.0,3.505
-125.0,33.0,3.506
-87.0,50.0,3.507
-5.0,48.0,3.508
67.0,25.0,3.509
76.0,-14.0,3.51
54.0,-60.0,3.511
69.0,-86.0,3.512
110.0,-73.0,3.513
91.0,-38.0,3.514
-7.0,-17.0,3.515
-79.0,-14.0,3.516
-50.0,-7.0,3.517
22.0,6.0,3.518
28.0,18.0,3.519
-35.0,27.0,3.52
-73.0,27.0,3.521
-55.0,27.0,3.522
-46.0,26.0,3.523
-86.0,26.0,3.524
-123.0,30.0,3.525
-96.0,29.0,3.526
-11.0,13.0,3.527
78.0,-4.0,3.528
125.0,-24.0,3.529
115.0,-36.0,3.53
68.0,-24.0,3.531
36.0,-8.0,3.532
36.0,18.0,3.533
38.0,41.0,3.534
13.0,49.0,3.535
0.0,48.0,3.536
47.0,16.0,3.537
127.0,-14.0,3.538
154.0,-32.0,3.539
102.0,-49.0,3.54
46.0,-77.0,3.541
43.0,-101.0,3.542
55.0,-98.0,3.543
28.0,-65.0,3.544
-33.0,-18.0,3.545
-91.0,19.0,3.546
-146.0,29.0,3.547
-212.0,15.0,3.548
-264.0,2.0,3.549
-269.0,8.0,3.55
-237.0,21.0,3.551
-178.0,18.0,3.552
-68.0,10.0,3.553
95.0,13.0,3.554
234.0,20.0,3.555
261.0,9.0,3.556
200.0,-9.0,3.557
122.0,-12.0,3.558
71.0,8.0,3.559
22.0,28.0,3.56
-30.0,24.0,3.561
-54.0,17.0,3.562
-26.0,13.0,3.563
44.0,-1.0,3.564
126.0,-26.0,3.565
174.0,-34.0,3.566
143.0,-4.0,3.567
53.0,32.0,3.568
-17.0,41.0,3.569
-32.0,31.0,3.57
-46.0,27.0,3.571
-106.0,28.0,3.572
-167.0,16.0,3.573
-162.0,1.0,3.574
-107.0,1.0,3.575
-59.0,10.0,3.576
-32.0,17.0,3.577
4.0,30.0,3.578
57.0,62.0,3.579
96.0,86.0,3.58
92.0,60.0,3.581
46.0,5.0,3.582
-8.0,-27.0,3.583
-23.0,-28.0,3.584
24.0,-40.0,3.585
81.0,-74.0,3.586
70.0,-93.0,3.587
-10.0,-81.0,3.588
-73.0,-59.0,3.589
-57.0,-42.0,3.59
-14.0,-23.0,3.591
-30.0,-6.0,3.592
-93.0,-3.0,3.593
-112.0,-4.0,3.594
-53.0,6.0,3.595
8.0,19.0,3.596
-5.0,14.0,3.597
-85.0,-5.0,3.598
-131.0,-15.0,3.599
-65.0,-27.0,3.6
89.0,-45.0,3.601
232.0,-59.0,3.602
288.0,-56.0,3.603
263.0,-51.0,3.604
204.0,-41.0,3.605
127.0,-25.0,3.606
22.0,8.0,3.607
-79.0,40.0,3.608
-111.0,66.0,3.609
-50.0,86.0,3.61
38.0,80.0,3.611
55.0,81.0,3.612
-21.0,102.0,3.613
-112.0,119.0,3.614
-129.0,119.0,3.615
-69.0,108.0,3.616
-5.0,63.0,3.617
37.0,20.0,3.618
82.0,-2.0,3.619
128.0,-12.0,3.62
112.0,-37.0,3.621
11.0,-75.0,3.622
-72.0,-104.0,3.623
-63.0,-101.0,3.624
-50.0,-68.0,3.625
-151.0,-19.0,3.626
-300.0,23.0,3.627
-328.0,43.0,3.628
-210.0,36.0,3.629
-78.0,14.0,3.63
-12.0,-11.0,3.631
36.0,-36.0,3.632
99.0,-51.0,3.633
140.0,-51.0,3.634
140.0,-44.0,3.635
146.0,-45.0,3.636
183.0,-49.0,3.637
199.0,-47.0,3.638
159.0,-38.0,3.639
93.0,-33.0,3.64
57.0,-35.0,3.641
51.0,-31.0,3.642
39.0,-29.0,3.643
3.0,-37.0,3.644
-44.0,-48.0,3.645
-92.0,-42.0,3.646
-127.0,-21.0,3.647
-133.0,-5.0,3.648
-102.0,0.0,3.649
-39.0,9.0,3.65
37.0,29.0,3.651
103.0,43.0,3.652
133.0,36.0,3.653
110.0,18.0,3.654
49.0,15.0,3.655
7.0,41.0,3.656
24.0,76.0,3.657
81.0,87.0,3.658
99.0,63.0,3.659
42.0,21.0,3.66
-31.0,-18.0,3.661
-66.0,-37.0,3.662
-96.0,-32.0,3.663
-179.0,-11.0,3.664
-276.0,8.0,3.665
-272.0,20.0,3.666
-148.0,29.0,3.667
-26.0,44.0,3.668
-17.0,59.0,3.669
-75.0,71.0,3.67
-67.0,85.0,3.671
43.0,95.0,3.672
172.0,86.0,3.673
228.0,49.0,3.674
211.0,6.0,3.675
164.0,-12.0,3.676
109.0,-8.0,3.677
51.0,-6.0,3.678
26.0,-14.0,3.679
45.0,-39.0,3.68
77.0,-77.0,3.681
89.0,-104.0,3.682
75.0,-105.0,3.683
6.0,-82.0,3.684
-118.0,-53.0,3.685
-217.0,-25.0,3.686
-204.0,-6.0,3.687
-132.0,-7.0,3.688
-109.0,-22.0,3.689
-110.0,-21.0,3.69
-21.0,9.0,3.691
122.0,40.0,3.692
156.0,33.0,3.693
60.0,15.0,3.694
0.0,29.0,3.695
52.0,60.0,3.696
104.0,64.0,3.697
58.0,34.0,3.698
-8.0,6.0,3.699
16.0,2.0,3.7
108.0,-4.0,3.701
156.0,-24.0,3.702
114.0,-47.0,3.703
17.0,-63.0,3.704
-70.0,-74.0,3.705
-99.0,-80.0,3.706
-76.0,-82.0,3.707
-77.0,-87.0,3.708
-137.0,-87.0,3.709
-174.0,-61.0,3.71
-114.0,-2.0,3.711
-7.0,59.0,3.712
50.0,93.0,3.713
56.0,101.0,3.714
73.0,97.0,3.715
96.0,87.0,3.716
88.0,78.0,3.717
62.0,62.0,3.718
46.0,32.0,3.719
-7.0,-15.0,3.72
-146.0,-55.0,3.721
-286.0,-44.0,3.722
-283.0,-10.0,3.723
-111.0,-18.0,3.724
107.0,-84.0,3.725
248.0,-145.0,3.726
277.0,-139.0,3.727
212.0,-84.0,3.728
102.0,-35.0,3.729
0.0,-18.0,3.73
-80.0,-15.0,3.731
-163.0,-2.0,3.732
-233.0,36.0,3.733
-222.0,96.0,3.734
-114.0,149.0,3.735
6.0,166.0,3.736
72.0,150.0,3.737
103.0,119.0,3.738
139.0,93.0,3.739
149.0,72.0,3.74
119.0,47.0,3.741
107.0,24.0,3.742
136.0,-1.0,3.743
127.0,-23.0,3.744
25.0,-13.0,3.745
-87.0,42.0,3.746
-120.0,89.0,3.747
-107.0,74.0,3.748
-116.0,20.0,3.749
-111.0,-10.0,3.75
-47.0,-17.0,3.751
15.0,-64.0,3.752
18.0,-152.0,3.753
28.0,-210.0,3.754
117.0,-198.0,3.755
224.0,-177.0,3.756
261.0,-208.0,3.757
244.0,-269.0,3.758
214.0,-278.0,3.759
106.0,-205.0,3.76
-125.0,-100.0,3.761
-365.0,-1.0,3.762
-456.0,80.0,3.763
-386.0,140.0,3.764
-258.0,163.0,3.765
-116.0,149.0,3.766
45.0,125.0,3.767
206.0,122.0,3.768
309.0,141.0,3.769
310.0,152.0,3.77
211.0,131.0,3.771
77.0,88.0,3.772
13.0,50.0,3.773
44.0,25.0,3.774
50.0,-10.0,3.775
-60.0,-48.0,3.776
-190.0,-48.0,3.777
-224.0,14.0,3.778
-178.0,105.0,3.779
-157.0,146.0,3.78
-148.0,102.0,3.781
-70.0,23.0,3.782
43.0,-10.0,3.783
84.0,24.0,3.784
62.0,67.0,3.785
73.0,69.0,3.786
118.0,57.0,3.787
122.0,78.0,3.788
90.0,119.0,3.789
105.0,123.0,3.79
176.0,82.0,3.791
209.0,46.0,3.792
137.0,29.0,3.793
8.0,-11.0,3.794
-91.0,-85.0,3.795
-117.0,-136.0,3.796
-96.0,-118.0,3.797
-84.0,-58.0,3.798
-112.0,-25.0,3.799
-144.0,-50.0,3.8
-112.0,-104.0,3.801
-33.0,-140.0,3.802
0.0,-155.0,3.803
-61.0,-172.0,3.804
-149.0,-197.0,3.805
-174.0,-212.0,3.806
-143.0,-196.0,3.807
-108.0,-172.0,3.808
-62.0,-181.0,3.809
37.0,-224.0,3.81
176.0,-253.0,3.811
282.0,-228.0,3.812
317.0,-161.0,3.813
296.0,-85.0,3.814
247.0,-23.0,3.815
186.0,22.0,3.816
132.0,58.0,3.817
95.0,91.0,3.818
70.0,123.0,3.819
39.0,152.0,3.82
-4.0,175.0,3.821
-70.0,200.0,3.822
-165.0,210.0,3.823
-248.0,191.0,3.824
-258.0,157.0,3.825
-184.0,128.0,3.826
-91.0,104.0,3.827
-43.0,74.0,3.828
-24.0,51.0,3.829
6.0,61.0,3.83
23.0,98.0,3.831
-25.0,129.0,3.832
-104.0,129.0,3.833
-94.0,103.0,3.834
55.0,50.0,3.835
211.0,-14.0,3.836
224.0,-63.0,3.837
99.0,-77.0,3.838
-14.0,-58.0,3.839
-28.0,-31.0,3.84
3.0,21.0,3.841
31.0,67.0,3.842
78.0,94.0,3.843
121.0,115.0,3.844
71.0,119.0,3.845
-58.0,118.0,3.846
-131.0,102.0,3.847
-95.0,68.0,3.848
-58.0,-13.0,3.849
-88.0,-82.0,3.85
-111.0,-110.0,3.851
-75.0,-127.0,3.852
-48.0,-112.0,3.853
-81.0,-92.0,3.854
-110.0,-59.0,3.855
-77.0,-38.0,3.856
-36.0,-56.0,3.857
-45.0,-72.0,3.858
-81.0,-63.0,3.859
-90.0,-37.0,3.86
-54.0,-31.0,3.861
27.0,-54.0,3.862
152.0,-85.0,3.863
280.0,-88.0,3.864
312.0,-65.0,3.865
205.0,-47.0,3.866
50.0,-38.0,3.867
-3.0,-22.0,3.868
85.0,0.0,3.869
171.0,1.0,3.87
80.0,-5.0,3.871
-150.0,25.0,3.872
-278.0,92.0,3.873
-162.0,123.0,3.874
38.0,83.0,3.875
82.0,19.0,3.876
-9.0,-4.0,3.877
-58.0,8.0,3.878
9.0,26.0,3.879
55.0,36.0,3.88
-16.0,28.0,3.881
-101.0,-10.0,3.882
-72.0,-76.0,3.883
15.0,-123.0,3.884
23.0,-125.0,3.885
-70.0,-101.0,3.886
-157.0,-69.0,3.887
-139.0,-23.0,3.888
-24.0,27.0,3.889
100.0,43.0,3.89
161.0,23.0,3.891
156.0,7.0,3.892
128.0,23.0,3.893
102.0,45.0,3.894
75.0,54.0,3.895
61.0,60.0,3.896
90.0,71.0,3.897
158.0,59.0,3.898
212.0,27.0,3.899
216.0,7.0,3.9
181.0,15.0,3.901
115.0,24.0,3.902
-1.0,8.0,3.903
-159.0,-13.0,3.904
-306.0,-24.0,3.905
-395.0,-35.0,3.906
-403.0,-45.0,3.907
-298.0,-28.0,3.908
-88.0,19.0,3.909
117.0,57.0,3.91
171.0,66.0,3.911
67.0,73.0,3.912
-55.0,104.0,3.913
-82.0,141.0,3.914
-51.0,148.0,3.915
-42.0,130.0,3.916
-45.0,109.0,3.917
14.0,85.0,3.918
134.0,49.0,3.919
209.0,-1.0,3.92
155.0,-48.0,3.921
17.0,-79.0,3.922
-76.0,-105.0,3.923
-66.0,-137.0,3.924
-19.0,-160.0,3.925
-24.0,-159.0,3.926
-70.0,-138.0,3.927
-79.0,-113.0,3.928
-27.0,-77.0,3.929
23.0,-19.0,3.93
27.0,38.0,3.931
12.0,47.0,3.932
26.0,-1.0,3.933
59.0,-59.0,3.934
66.0,-76.0,3.935
33.0,-54.0,3.936
-3.0,-32.0,3.937
2.0,-36.0,3.938
58.0,-55.0,3.939
122.0,-67.0,3.94
149.0,-68.0,3.941
132.0,-56.0,3.942
101.0,-38.0,3.943
75.0,-11.0,3.944
36.0,29.0,3.945
-31.0,81.0,3.946
-93.0,130.0,3.947
-99.0,161.0,3.948
-31.0,162.0,3.949
64.0,139.0,3.95
100.0,107.0,3.951
44.0,77.0,3.952
-42.0,48.0,3.953
-70.0,19.0,3.954
-44.0,-5.0,3.955
-43.0,-21.0,3.956
-74.0,-37.0,3.957
-63.0,-66.0,3.958
18.0,-92.0,3.959
62.0,-94.0,3.96
-16.0,-70.0,3.961
-131.0,-40.0,3.962
-155.0,-30.0,3.963
-114.0,-39.0,3.964
-120.0,-44.0,3.965
-173.0,-29.0,3.966
-166.0,-3.0,3.967
-61.0,14.0,3.968
73.0,22.0,3.969
181.0,26.0,3.97
266.0,27.0,3.971
318.0,27.0,3.972
273.0,31.0,3.973
91.0,54.0,3.974
-159.0,98.0,3.975
-323.0,148.0,3.976
-295.0,178.0,3.977
-112.0,159.0,3.978
81.0,92.0,3.979
172.0,-4.0,3.98
168.0,-95.0,3.981
120.0,-145.0,3.982
44.0,-164.0,3.983
-36.0,-180.0,3.984
-60.0,-207.0,3.985
-18.0,-223.0,3.986
9.0,-194.0,3.987
-40.0,-113.0,3.988
-107.0,-27.0,3.989
-109.0,22.0,3.99
-66.0,27.0,3.991
-63.0,15.0,3.992
-96.0,20.0,3.993
-90.0,44.0,3.994
-36.0,76.0,3.995
2.0,110.0,3.996
5.0,139.0,3.997
21.0,150.0,3.998
74.0,138.0,3.999
126.0,112.0,4.0
152.0,81.0,4.001
166.0,52.0,4.002
160.0,18.0,4.003
107.0,-16.0,4.004
21.0,-36.0,4.005
-32.0,-42.0,4.006
-39.0,-48.0,4.007
-28.0,-66.0,4.008
-19.0,-88.0,4.009
-3.0,-97.0,4.01
7.0,-84.0,4.011
-10.0,-54.0,4.012
-40.0,-22.0,4.013
-46.0,4.0,4.014
-29.0,22.0,4.015
-7.0,21.0,4.016
17.0,5.0,4.017
48.0,-10.0,4.018
71.0,-8.0,4.019
76.0,7.0,4.02
84.0,17.0,4.021
106.0,27.0,4.022
116.0,44.0,4.023
111.0,68.0,4.024
115.0,71.0,4.025
120.0,45.0,4.026
78.0,13.0,4.027
-15.0,1.0,4.028
-92.0,6.0,4.029
-105.0,6.0,4.03
-82.0,-6.0,4.031
-71.0,-19.0,4.032
-83.0,-20.0,4.033
-104.0,-13.0,4.034
-121.0,-6.0,4.035
-114.0,4.0,4.036
-79.0,20.0,4.037
-37.0,33.0,4.038
-38.0,38.0,4.039
-96.0,49.0,4.04
-158.0,67.0,4.041
-165.0,80.0,4.042
-101.0,61.0,4.043
-11.0,16.0,4.044
48.0,-21.0,4.045
61.0,-33.0,4.046
52.0,-36.0,4.047
52.0,-42.0,4.048
63.0,-42.0,4.049
68.0,-35.0,4.05
53.0,-35.0,4.051
33.0,-44.0,4.052
37.0,-50.0,4.053
73.0,-45.0,4.054
126.0,-38.0,4.055
167.0,-35.0,4.056
177.0,-30.0,4.057
159.0,-26.0,4.058
122.0,-29.0,4.059
69.0,-31.0,4.06
1.0,-23.0,4.061
-78.0,-1.0,4.062
-144.0,13.0,4.063
-168.0,18.0,4.064
-146.0,31.0,4.065
-101.0,42.0,4.066
-66.0,31.0,4.067
-53.0,5.0,4.068
-45.0,-4.0,4.069
-25.0,1.0,4.07
1.0,-5.0,4.071
11.0,-23.0,4.072
-2.0,-23.0,4.073
-10.0,-1.0,4.074
11.0,13.0,4.075
55.0,5.0,4.076
83.0,-1.0,4.077
85.0,0.0,4.078
81.0,2.0,4.079
66.0,5.0,4.08
23.0,5.0,4.081
-31.0,6.0,4.082
-115.0,11.0,4.083
-168.0,14.0,4.084
-128.0,12.0,4.085
-76.0,9.0,4.086
13.0,4.0,4.087
88.0,-1.0,4.088
121.0,-9.0,4.089
133.0,-14.0,4.09
81.0,-10.0,4.091
45.0,-4.0,4.092
65.0,6.0,4.093
76.0,15.0,4.094
60.0,14.0,4.095
49.0,11.0,4.096
55.0,3.0,4.097
34.0,-1.0,4.098
-111.0,6.0,4.099
-230.0,14.0,4.1
-231.0,10.0,4.101
-171.0,2.0,4.102
-120.0,-2.0,4.103
-66.0,0.0,4.104
6.0,2.0,4.105
60.0,-2.0,4.106
73.0,-5.0,4.107
77.0,1.0,4.108
96.0,3.0,4.109
102.0,-8.0,4.11
88.0,-20.0,4.111
76.0,-16.0,4.112
67.0,-5.0,4.113
36.0,-4.0,4.114
-10.0,-10.0,4.115
-22.0,-9.0,4.116
9.0,-5.0,4.117
46.0,-14.0,4.118
49.0,-29.0,4.119
19.0,-27.0,4.12
-18.0,-9.0,4.121
-42.0,13.0,4.122
-39.0,27.0,4.123
-8.0,31.0,4.124
28.0,28.0,4.125
35.0,14.0,4.126
27.0,-4.0,4.127
48.0,-9.0,4.128
108.0,3.0,4.129
132.0,17.0,4.13
62.0,13.0,4.131
-60.0,-2.0,4.132
-125.0,-10.0,4.133
-103.0,-4.0,4.134
-74.0,6.0,4.135
-104.0,12.0,4.136
-154.0,13.0,4.137
-151.0,12.0,4.138
-102.0,17.0,4.139
-57.0,18.0,4.14
-27.0,-1.0,4.141
3.0,-29.0,4.142
36.0,-46.0,4.143
57.0,-40.0,4.144
38.0,-23.0,4.145
29.0,-14.0,4.146
56.0,-17.0,4.147
80.0,-21.0,4.148
94.0,-21.0,4.149
96.0,-20.0,4.15
58.0,-13.0,4.151
29.0,7.0,4.152
31.0,28.0,4.153
33.0,33.0,4.154
35.0,17.0,4.155
35.0,3.0,4.156
21.0,4.0,4.157
18.0,8.0,4.158
38.0,6.0,4.159
20.0,0.0,4.16
-32.0,-4.0,4.161
-79.0,-5.0,4.162
-100.0,-5.0,4.163
-101.0,-5.0,4.164
-84.0,0.0,4.165
-56.0,6.0,4.166
-36.0,6.0,4.167
-30.0,1.0,4.168
-20.0,0.0,4.169
-2.0,3.0,4.17
10.0,5.0,4.171
12.0,4.0,4.172
18.0,5.0,4.173
36.0,8.0,4.174
52.0,5.0,4.175
50.0,-1.0,4.176
39.0,-6.0,4.177
21.0,-6.0,4.178
1.0,-5.0,4.179
-17.0,-5.0,4.18
-26.0,-10.0,4.181
-25.0,-10.0,4.182
7.0,-5.0,4.183
30.0,4.0,4.184
27.0,10.0,4.185
23.0,11.0,4.186
18.0,9.0,4.187
14.0,8.0,4.188
14.0,7.0,4.189
16.0,6.0,4.19
20.0,5.0,4.191
27.0,5.0,4.192
41.0,3.0,4.193
51.0,-4.0,4.194
44.0,-9.0,4.195
32.0,-10.0,4.196
10.0,-6.0,4.197
-9.0,-7.0,4.198
-9.0,-12.0,4.199
-3.0,-18.0,4.2
-11.0,-19.0,4.201
-23.0,-10.0,4.202
-16.0,0.0,4.203
16.0,6.0,4.204
49.0,8.0,4.205
48.0,6.0,4.206
18.0,0.0,4.207
-16.0,-9.0,4.208
-25.0,-15.0,4.209
-9.0,-20.0,4.21
11.0,-20.0,4.211
5.0,-17.0,4.212
-20.0,-13.0,4.213
-28.0,-9.0,4.214
0.0,-5.0,4.215
43.0,3.0,4.216
59.0,13.0,4.217
35.0,17.0,4.218
7.0,13.0,4.219
-3.0,10.0,4.22
-13.0,8.0,4.221
-56.0,8.0,4.222
-120.0,3.0,4.223
-154.0,0.0,4.224
-131.0,4.0,4.225
-98.0,21.0,4.226
-106.0,36.0,4.227
-134.0,43.0,4.228
-110.0,39.0,4.229
-27.0,25.0,4.23
47.0,7.0,4.231
67.0,-4.0,4.232
72.0,-6.0,4.233
110.0,-5.0,4.234
159.0,-10.0,4.235
162.0,-17.0,4.236
128.0,-17.0,4.237
102.0,-16.0,4.238
103.0,-19.0,4.239
88.0,-17.0,4.24
16.0,-8.0,4.241
-78.0,3.0,4.242
-116.0,-2.0,4.243
-78.0,-17.0,4.244
-28.0,-19.0,4.245
-19.0,0.0,4.246
-29.0,12.0,4.247
-16.0,11.0,4.248
8.0,4.0,4.249
5.0,6.0,4.25
3.0,4.0,4.251
47.0,-11.0,4.252
108.0,-21.0,4.253
116.0,-14.0,4.254
73.0,-1.0,4.255
50.0,-1.0,4.256
66.0,-7.0,4.257
67.0,-9.0,4.258
6.0,-6.0,4.259
-89.0,-5.0,4.26
-150.0,-6.0,4.261
-149.0,0.0,4.262
-108.0,8.0,4.263
-65.0,9.0,4.264
-37.0,4.0,4.265
-18.0,4.0,4.266
0.0,8.0,4.267
12.0,7.0,4.268
5.0,3.0,4.269
-11.0,3.0,4.27
-15.0,4.0,4.271
-11.0,3.0,4.272
-11.0,1.0,4.273
-10.0,4.0,4.274
4.0,8.0,4.275
29.0,6.0,4.276
44.0,0.0,4.277
46.0,-8.0,4.278
47.0,-12.0,4.279
47.0,-16.0,4.28
38.0,-21.0,4.281
23.0,-20.0,4.282
24.0,-13.0,4.283
41.0,-8.0,4.284
51.0,-9.0,4.285
41.0,-10.0,4.286
20.0,-9.0,4.287
-11.0,-5.0,4.288
-56.0,5.0,4.289
-90.0,15.0,4.29
-77.0,19.0,4.291
-24.0,10.0,4.292
25.0,-2.0,4.293
51.0,-3.0,4.294
74.0,6.0,4.295
97.0,11.0,4.296
98.0,8.0,4.297
63.0,1.0,4.298
25.0,2.0,4.299
2.0,5.0,4.3
-17.0,0.0,4.301
-39.0,-6.0,4.302
-46.0,-6.0,4.303
-34.0,-1.0,4.304
-23.0,2.0,4.305
-23.0,4.0,4.306
-18.0,3.0,4.307
0.0,5.0,4.308
17.0,16.0,4.309
22.0,40.0,4.31
24.0,60.0,4.311
21.0,59.0,4.312
0.0,39.0,4.313
-38.0,21.0,4.314
-65.0,12.0,4.315
-62.0,1.0,4.316
-37.0,-17.0,4.317
-14.0,-37.0,4.318
-2.0,-43.0,4.319
-3.0,-43.0,4.32
-11.0,-43.0,4.321
-21.0,-33.0,4.322
-20.0,-9.0,4.323
-13.0,23.0,4.324
-14.0,53.0,4.325
-26.0,63.0,4.326
-28.0,41.0,4.327
-9.0,-3.0,4.328
14.0,-38.0,4.329
18.0,-53.0,4.33
13.0,-67.0,4.331
17.0,-89.0,4.332
25.0,-94.0,4.333
26.0,-66.0,4.334
20.0,-35.0,4.335
21.0,-22.0,4.336
27.0,-11.0,4.337
31.0,16.0,4.338
36.0,39.0,4.339
42.0,33.0,4.34
46.0,14.0,4.341
46.0,18.0,4.342
47.0,45.0,4.343
47.0,71.0,4.344
42.0,95.0,4.345
29.0,118.0,4.346
21.0,112.0,4.347
20.0,59.0,4.348
17.0,-15.0,4.349
8.0,-66.0,4.35
-2.0,-86.0,4.351
-3.0,-97.0,4.352
-5.0,-100.0,4.353
-16.0,-72.0,4.354
-30.0,-16.0,4.355
-39.0,24.0,4.356
-38.0,17.0,4.357
-31.0,-26.0,4.358
-20.0,-58.0,4.359
-10.0,-83.0,4.36
-1.0,-84.0,4.361
5.0,-84.0,4.362
3.0,-78.0,4.363
-2.0,-66.0,4.364
-19.0,-35.0,4.365
-33.0,-6.0,4.366
-31.0,13.0,4.367
-26.0,34.0,4.368
-9.0,61.0,4.369
7.0,81.0,4.37
21.0,78.0,4.371
31.0,66.0,4.372
22.0,27.0,4.373
13.0,-3.0,4.374
3.0,-8.0,4.375
0.0,-14.0,4.376
14.0,-18.0,4.377
26.0,-20.0,4.378
18.0,-11.0,4.379
7.0,7.0,4.38
1.0,19.0,4.381
-5.0,20.0,4.382
-13.0,18.0,4.383
-12.0,16.0,4.384
-7.0,19.0,4.385
-9.0,31.0,4.386
-18.0,57.0,4.387
-19.0,92.0,4.388
-12.0,109.0,4.389
-8.0,97.0,4.39
-9.0,69.0,4.391
-2.0,51.0,4.392
12.0,39.0,4.393
16.0,16.0,4.394
4.0,-23.0,4.395
-8.0,-50.0,4.396
-8.0,-46.0,4.397
-3.0,-25.0,4.398
-3.0,-15.0,4.399
-5.0,-26.0,4.4
-2.0,-45.0,4.401
4.0,-54.0,4.402
11.0,-55.0,4.403
16.0,-57.0,4.404
19.0,-55.0,4.405
14.0,-39.0,4.406
5.0,-12.0,4.407
2.0,12.0,4.408
8.0,27.0,4.409
17.0,41.0,4.41
21.0,57.0,4.411
20.0,56.0,4.412
17.0,35.0,4.413
8.0,6.0,4.414
-3.0,-13.0,4.415
-8.0,-24.0,4.416
-4.0,-29.0,4.417
-3.0,-27.0,4.418
-4.0,-13.0,4.419
-6.0,-3.0,4.42
-5.0,-4.0,4.421
-3.0,-7.0,4.422
0.0,-16.0,4.423
4.0,-25.0,4.424
12.0,-33.0,4.425
18.0,-36.0,4.426
20.0,-22.0,4.427
23.0,-6.0,4.428
21.0,19.0,4.429
17.0,42.0,4.43
7.0,54.0,4.431
-2.0,66.0,4.432
-7.0,80.0,4.433
-13.0,85.0,4.434
-17.0,60.0,4.435
-18.0,35.0,4.436
-11.0,11.0,4.437
-6.0,-12.0,4.438
-7.0,-27.0,4.439
-17.0,-48.0,4.44
-27.0,-77.0,4.441
-30.0,-95.0,4.442
-26.0,-98.0,4.443
-18.0,-97.0,4.444
-11.0,-93.0,4.445
-9.0,-83.0,4.446
3.0,-64.0,4.447
25.0,-46.0,4.448
37.0,-35.0,4.449
31.0,-25.0,4.45
22.0,-5.0,4.451
34.0,28.0,4.452
50.0,61.0,4.453
49.0,77.0,4.454
40.0,76.0,4.455
39.0,65.0,4.456
39.0,54.0,4.457
6.0,44.0,4.458
-39.0,41.0,4.459
-60.0,44.0,4.46
-45.0,39.0,4.461
-21.0,22.0,4.462
-9.0,-2.0,4.463
-9.0,-10.0,4.464
-12.0,10.0,4.465
-14.0,40.0,4.466
-16.0,52.0,4.467
-9.0,41.0,4.468
-3.0,20.0,4.469
-9.0,-8.0,4.47
-21.0,-39.0,4.471
-21.0,-63.0,4.472
-2.0,-66.0,4.473
17.0,-54.0,4.474
19.0,-42.0,4.475
16.0,-30.0,4.476
18.0,-18.0,4.477
28.0,-11.0,4.478
40.0,-13.0,4.479
60.0,-19.0,4.48
95.0,-22.0,4.481
136.0,-17.0,4.482
147.0,-12.0,4.483
108.0,-3.0,4.484
29.0,13.0,4.485
-52.0,27.0,4.486
-112.0,26.0,4.487
-149.0,22.0,4.488
-166.0,27.0,4.489
-149.0,36.0,4.49
-92.0,35.0,4.491
-26.0,24.0,4.492
7.0,18.0,4.493
5.0,25.0,4.494
0.0,31.0,4.495
11.0,22.0,4.496
21.0,6.0,4.497
13.0,-7.0,4.498
0.0,-4.0,4.499
16.0,5.0,4.5
60.0,5.0,4.501
101.0,-4.0,4.502
109.0,-11.0,4.503
87.0,-9.0,4.504
44.0,-1.0,4.505
-9.0,4.0,4.506
-58.0,3.0,4.507
-77.0,3.0,4.508
-68.0,1.0,4.509
-54.0,-5.0,4.51
-42.0,-16.0,4.511
-24.0,-21.0,4.512
-1.0,-18.0,4.513
9.0,-12.0,4.514
2.0,-10.0,4.515
2.0,-9.0,4.516
16.0,-4.0,4.517
27.0,-7.0,4.518
24.0,-14.0,4.519
17.0,-23.0,4.52
14.0,-30.0,4.521
17.0,-30.0,4.522
30.0,-27.0,4.523
52.0,-22.0,4.524
64.0,-13.0,4.525
51.0,-6.0,4.526
30.0,-4.0,4.527
29.0,-5.0,4.528
33.0,0.0,4.529
13.0,12.0,4.53
-21.0,22.0,4.531
-41.0,23.0,4.532
-42.0,12.0,4.533
-45.0,4.0,4.534
-53.0,-1.0,4.535
-42.0,-1.0,4.536
-1.0,1.0,4.537
55.0,1.0,4.538
109.0,0.0,4.539
142.0,-2.0,4.54
133.0,-5.0,4.541
74.0,-3.0,4.542
-2.0,3.0,4.543
-54.0,9.0,4.544
-71.0,11.0,4.545
-97.0,12.0,4.546
-153.0,16.0,4.547
-202.0,25.0,4.548
-184.0,31.0,4.549
-87.0,25.0,4.55
29.0,7.0,4.551
98.0,-11.0,4.552
104.0,-25.0,4.553
82.0,-28.0,4.554
57.0,-23.0,4.555
21.0,-7.0,4.556
-22.0,6.0,4.557
-63.0,4.0,4.558
-73.0,-9.0,4.559
-45.0,-20.0,4.56
8.0,-20.0,4.561
72.0,-14.0,4.562
120.0,-15.0,4.563
129.0,-19.0,4.564
96.0,-11.0,4.565
42.0,9.0,4.566
-13.0,27.0,4.567
-51.0,22.0,4.568
-68.0,1.0,4.569
-63.0,-14.0,4.57
-40.0,-16.0,4.571
-7.0,-6.0,4.572
23.0,2.0,4.573
31.0,3.0,4.574
16.0,1.0,4.575
2.0,2.0,4.576
7.0,6.0,4.577
18.0,3.0,4.578
16.0,-1.0,4.579
3.0,-1.0,4.58
1.0,-1.0,4.581
8.0,-1.0,4.582
11.0,-2.0,4.583
9.0,2.0,4.584
9.0,9.0,4.585
8.0,11.0,4.586
1.0,6.0,4.587
-4.0,4.0,4.588
-5.0,5.0,4.589
-8.0,8.0,4.59
-14.0,7.0,4.591
-17.0,6.0,4.592
-12.0,5.0,4.593
-6.0,4.0,4.594
-2.0,0.0,4.595
9.0,-6.0,4.596
27.0,-7.0,4.597
37.0,-8.0,4.598
32.0,-7.0,4.599
18.0,-7.0,4.6
9.0,-7.0,4.601
6.0,-7.0,4.602
3.0,-8.0,4.603
-2.0,-5.0,4.604
-14.0,0.0,4.605
-27.0,3.0,4.606
-37.0,3.0,4.607
-30.0,3.0,4.608
-13.0,5.0,4.609
0.0,5.0,4.61
3.0,3.0,4.611
4.0,0.0,4.612
6.0,2.0,4.613
5.0,3.0,4.614
-2.0,1.0,4.615
-7.0,-1.0,4.616
-5.0,0.0,4.617
1.0,1.0,4.618
5.0,-1.0,4.619
8.0,-6.0,4.62
13.0,-12.0,4.621
16.0,-10.0,4.622
15.0,-6.0,4.623
16.0,-4.0,4.624
16.0,-2.0,4.625
8.0,-3.0,4.626
2.0,-3.0,4.627
4.0,-3.0,4.628
5.0,0.0,4.629
-3.0,3.0,4.63
-13.0,4.0,4.631
-12.0,6.0,4.632
0.0,15.0,4.633
9.0,28.0,4.634
16.0,29.0,4.635
26.0,16.0,4.636
37.0,0.0,4.637
27.0,-12.0,4.638
3.0,-15.0,4.639
-17.0,-16.0,4.64
-18.0,-19.0,4.641
-7.0,-21.0,4.642
-1.0,-23.0,4.643
1.0,-24.0,4.644
7.0,-22.0,4.645
13.0,-17.0,4.646
11.0,-12.0,4.647
0.0,-8.0,4.648
-8.0,-3.0,4.649
-10.0,2.0,4.65
-4.0,1.0,4.651
0.0,-5.0,4.652
2.0,-7.0,4.653
2.0,-2.0,4.654
3.0,5.0,4.655
4.0,7.0,4.656
4.0,4.0,4.657
3.0,-1.0,4.658
2.0,-2.0,4.659
0.0,0.0,4.66
-1.0,0.0,4.661
0.0,1.0,4.662
5.0,1.0,4.663
12.0,10.0,4.664
14.0,29.0,4.665
7.0,42.0,4.666
0.0,37.0,4.667
-3.0,15.0,4.668
-2.0,-6.0,4.669
-2.0,-12.0,4.67
-5.0,-10.0,4.671
-8.0,-14.0,4.672
-7.0,-16.0,4.673
-6.0,-8.0,4.674
-5.0,3.0,4.675
-4.0,3.0,4.676
0.0,-2.0,4.677
0.0,-5.0,4.678
-3.0,0.0,4.679
-6.0,4.0,4.68
-5.0,-1.0,4.681
-2.0,-3.0,4.682
0.0,-2.0,4.683
0.0,0.0,4.684
-2.0,3.0,4.685
-9.0,7.0,4.686
-13.0,10.0,4.687
-9.0,8.0,4.688
-5.0,6.0,4.689
-7.0,18.0,4.69
-8.0,38.0,4.691
-2.0,49.0,4.692
4.0,38.0,4.693
9.0,17.0,4.694
15.0,8.0,4.695
25.0,8.0,4.696
32.0,7.0,4.697
25.0,-7.0,4.698
13.0,-16.0,4.699
0.0,-9.0,4.7
-2.0,-1.0,4.701
4.0,-4.0,4.702
18.0,-28.0,4.703
31.0,-57.0,4.704
28.0,-72.0,4.705
11.0,-74.0,4.706
-4.0,-72.0,4.707
-5.0,-64.0,4.708
0.0,-44.0,4.709
-3.0,-15.0,4.71
-7.0,11.0,4.711
-3.0,25.0,4.712
3.0,21.0,4.713
6.0,6.0,4.714
2.0,-8.0,4.715
-2.0,-14.0,4.716
-1.0,-10.0,4.717
8.0,-6.0,4.718
24.0,-5.0,4.719
39.0,-6.0,4.72
47.0,-3.0,4.721
59.0,4.0,4.722
77.0,7.0,4.723
83.0,8.0,4.724
48.0,12.0,4.725
-13.0,22.0,4.726
-53.0,30.0,4.727
-55.0,30.0,4.728
-57.0,28.0,4.729
-84.0,26.0,4.73
-102.0,25.0,4.731
-77.0,25.0,4.732
-32.0,22.0,4.733
-14.0,15.0,4.734
-21.0,9.0,4.735
-19.0,5.0,4.736
3.0,6.0,4.737
22.0,5.0,4.738
39.0,-1.0,4.739
50.0,-6.0,4.74
61.0,-9.0,4.741
56.0,-7.0,4.742
34.0,-8.0,4.743
17.0,-8.0,4.744
15.0,-7.0,4.745
10.0,-3.0,4.746
-14.0,0.0,4.747
-47.0,5.0,4.748
-62.0,10.0,4.749
-42.0,10.0,4.75
-17.0,5.0,4.751
-25.0,-1.0,4.752
-64.0,-1.0,4.753
-81.0,1.0,4.754
-40.0,-3.0,4.755
22.0,-9.0,4.756
61.0,-8.0,4.757
83.0,-4.0,4.758
98.0,-2.0,4.759
92.0,-1.0,4.76
49.0,0.0,4.761
-1.0,7.0,4.762
-16.0,9.0,4.763
-8.0,6.0,4.764
-11.0,7.0,4.765
-13.0,10.0,4.766
12.0,12.0,4.767
43.0,10.0,4.768
39.0,5.0,4.769
5.0,-1.0,4.77
-20.0,-10.0,4.771
-24.0,-17.0,4.772
-27.0,-17.0,4.773
-35.0,-14.0,4.774
-24.0,-19.0,4.775
8.0,-26.0,4.776
41.0,-25.0,4.777
62.0,-14.0,4.778
66.0,-10.0,4.779
43.0,-20.0,4.78
6.0,-36.0,4.781
-6.0,-33.0,4.782
19.0,-18.0,4.783
27.0,-5.0,4.784
-22.0,6.0,4.785
-84.0,19.0,4.786
-88.0,30.0,4.787
-48.0,36.0,4.788
-29.0,39.0,4.789
-48.0,38.0,4.79
-55.0,32.0,4.791
-35.0,16.0,4.792
-19.0,1.0,4.793
-13.0,-7.0,4.794
3.0,-12.0,4.795
33.0,-20.0,4.796
51.0,-22.0,4.797
42.0,-12.0,4.798
26.0,2.0,4.799
19.0,11.0,4.8
20.0,9.0,4.801
29.0,10.0,4.802
46.0,8.0,4.803
53.0,-1.0,4.804
35.0,-17.0,4.805
12.0,-28.0,4.806
5.0,-26.0,4.807
9.0,-18.0,4.808
12.0,-12.0,4.809
18.0,-12.0,4.81
33.0,-17.0,4.811
41.0,-17.0,4.812
29.0,-7.0,4.813
16.0,6.0,4.814
17.0,8.0,4.815
18.0,0.0,4.816
6.0,-4.0,4.817
-16.0,2.0,4.818
-31.0,9.0,4.819
-41.0,3.0,4.82
-47.0,-9.0,4.821
-39.0,-8.0,4.822
-14.0,2.0,4.823
2.0,9.0,4.824
-3.0,9.0,4.825
-13.0,9.0,4.826
-6.0,9.0,4.827
10.0,5.0,4.828
18.0,0.0,4.829
18.0,0.0,4.83
23.0,4.0,4.831
29.0,9.0,4.832
19.0,12.0,4.833
-13.0,14.0,4.834
-51.0,11.0,4.835
-66.0,2.0,4.836
-45.0,-2.0,4.837
-18.0,-3.0,4.838
-20.0,-3.0,4.839
-22.0,-5.0,4.84
-22.0,-9.0,4.841
-13.0,-5.0,4.842
20.0,-1.0,4.843
37.0,0.0,4.844
2.0,2.0,4.845
-17.0,7.0,4.846
13.0,6.0,4.847
51.0,-3.0,4.848
108.0,-13.0,4.849
147.0,-16.0,4.85
125.0,-15.0,4.851
95.0,-16.0,4.852
40.0,-14.0,4.853
-17.0,-4.0,4.854
-81.0,11.0,4.855
-134.0,27.0,4.856
-150.0,37.0,4.857
-143.0,35.0,4.858
-51.0,20.0,4.859
16.0,2.0,4.86
23.0,-9.0,4.861
9.0,-9.0,4.862
4.0,-9.0,4.863
-12.0,-9.0,4.864
-53.0,-4.0,4.865
-85.0,3.0,4.866
-74.0,3.0,4.867
-39.0,-4.0,4.868
-10.0,-9.0,4.869
14.0,-8.0,4.87
43.0,-8.0,4.871
76.0,-14.0,4.872
113.0,-18.0,4.873
132.0,-16.0,4.874
104.0,-6.0,4.875
22.0,8.0,4.876
-48.0,20.0,4.877
-54.0,21.0,4.878
-32.0,5.0,4.879
-23.0,-8.0,4.88
-51.0,-11.0,4.881
-64.0,0.0,4.882
-26.0,10.0,4.883
5.0,15.0,4.884
17.0,16.0,4.885
33.0,13.0,4.886
61.0,5.0,4.887
93.0,-9.0,4.888
133.0,-27.0,4.889
160.0,-37.0,4.89
150.0,-28.0,4.891
113.0,-5.0,4.892
-7.0,11.0,4.893
-98.0,9.0,4.894
-98.0,-6.0,4.895
-95.0,-16.0,4.896
-89.0,-16.0,4.897
-86.0,-13.0,4.898
-74.0,-9.0,4.899
-25.0,-2.0,4.9
36.0,4.0,4.901
61.0,14.0,4.902
36.0,24.0,4.903
-17.0,31.0,4.904
-67.0,36.0,4.905
-96.0,36.0,4.906
-92.0,23.0,4.907
-56.0,-1.0,4.908
-16.0,-24.0,4.909
-1.0,-28.0,4.91
15.0,-22.0,4.911
64.0,-23.0,4.912
113.0,-33.0,4.913
89.0,-31.0,4.914
6.0,-11.0,4.915
-38.0,6.0,4.916
-12.0,15.0,4.917
8.0,23.0,4.918
-35.0,37.0,4.919
-88.0,41.0,4.92
-77.0,28.0,4.921
-24.0,17.0,4.922
14.0,16.0,4.923
41.0,9.0,4.924
73.0,-8.0,4.925
87.0,-18.0,4.926
61.0,-13.0,4.927
36.0,-14.0,4.928
48.0,-31.0,4.929
79.0,-45.0,4.93
91.0,-38.0,4.931
80.0,-24.0,4.932
56.0,-18.0,4.933
16.0,-9.0,4.934
-26.0,16.0,4.935
-45.0,36.0,4.936
-39.0,35.0,4.937
-38.0,18.0,4.938
-42.0,10.0,4.939
-20.0,2.0,4.94
29.0,-2.0,4.941
65.0,-5.0,4.942
70.0,-5.0,4.943
69.0,-5.0,4.944
60.0,-3.0,4.945
6.0,1.0,4.946
-80.0,12.0,4.947
-118.0,19.0,4.948
-64.0,12.0,4.949
14.0,3.0,4.95
24.0,-6.0,4.951
-30.0,-16.0,4.952
-70.0,-26.0,4.953
-61.0,-33.0,4.954
-49.0,-23.0,4.955
-87.0,-8.0,4.956
-156.0,21.0,4.957
-200.0,54.0,4.958
-174.0,98.0,4.959
-100.0,139.0,4.96
-25.0,164.0,4.961
38.0,183.0,4.962
114.0,199.0,4.963
202.0,182.0,4.964
256.0,99.0,4.965
235.0,-30.0,4.966
153.0,-138.0,4.967
59.0,-192.0,4.968
-25.0,-219.0,4.969
-90.0,-241.0,4.97
-113.0,-244.0,4.971
-70.0,-216.0,4.972
4.0,-184.0,4.973
46.0,-167.0,4.974
47.0,-137.0,4.975
62.0,-57.0,4.976
106.0,69.0,4.977
121.0,189.0,4.978
77.0,233.0,4.979
44.0,230.0,4.98
45.0,83.0,4.981
50.0,-42.0,4.982
63.0,-102.0,4.983
46.0,-150.0,4.984
-61.0,-164.0,4.985
-140.0,-148.0,4.986
-134.0,-41.0,4.987
-151.0,46.0,4.988
-235.0,71.0,4.989
-285.0,82.0,4.99
-231.0,48.0,4.991
-170.0,15.0,4.992
-87.0,-17.0,4.993
-19.0,-39.0,4.994
6.0,-29.0,4.995
69.0,-23.0,4.996
241.0,-33.0,4.997
369.0,-42.0,4.998
283.0,-25.0,4.999
144.0,22.0,5.0
71.0,65.0,5.001
53.0,97.0,5.002
15.0,130.0,5.003
-101.0,159.0,5.004
-260.0,163.0,5.005
-312.0,133.0,5.006
-161.0,75.0,5.007
76.0,8.0,5.008
170.0,-36.0,5.009
65.0,-33.0,5.01
-75.0,12.0,5.011
-102.0,61.0,5.012
-35.0,90.0,5.013
45.0,109.0,5.014
108.0,121.0,5.015
142.0,107.0,5.016
137.0,68.0,5.017
103.0,23.0,5.018
95.0,-10.0,5.019
102.0,-48.0,5.02
77.0,-102.0,5.021
17.0,-140.0,5.022
-27.0,-127.0,5.023
-40.0,-111.0,5.024
-57.0,-86.0,5.025
-76.0,-65.0,5.026
-64.0,-59.0,5.027
-32.0,-48.0,5.028
-22.0,-18.0,5.029
-26.0,-9.0,5.03
0.0,-65.0,5.031
58.0,-113.0,5.032
98.0,-140.0,5.033
118.0,-157.0,5.034
164.0,-143.0,5.035
223.0,-117.0,5.036
211.0,-58.0,5.037
57.0,9.0,5.038
-166.0,86.0,5.039
-307.0,125.0,5.04
-287.0,133.0,5.041
-182.0,147.0,5.042
-110.0,175.0,5.043
-96.0,209.0,5.044
-66.0,201.0,5.045
33.0,107.0,5.046
160.0,-45.0,5.047
229.0,-155.0,5.048
194.0,-167.0,5.049
97.0,-127.0,5.05
35.0,-105.0,5.051
53.0,-98.0,5.052
88.0,-59.0,5.053
47.0,21.0,5.054
-47.0,101.0,5.055
-64.0,132.0,5.056
32.0,96.0,5.057
140.0,21.0,5.058
124.0,-12.0,5.059
-2.0,32.0,5.06
-115.0,88.0,5.061
-162.0,84.0,5.062
-179.0,37.0,5.063
-165.0,35.0,5.064
-75.0,109.0,5.065
55.0,186.0,5.066
120.0,192.0,5.067
82.0,138.0,5.068
8.0,90.0,5.069
-89.0,72.0,5.07
-262.0,30.0,5.071
-426.0,-90.0,5.072
-381.0,-232.0,5.073
-110.0,-261.0,5.074
137.0,-148.0,5.075
201.0,-48.0,5.076
198.0,-84.0,5.077
207.0,-180.0,5.078
133.0,-197.0,5.079
37.0,-203.0,5.08
-121.0,-171.0,5.081
-230.0,-113.0,5.082
-186.0,17.0,5.083
-138.0,147.0,5.084
-77.0,272.0,5.085
-15.0,351.0,5.086
50.0,287.0,5.087
88.0,187.0,5.088
40.0,-19.0,5.089
10.0,-174.0,5.09
36.0,-170.0,5.091
55.0,-153.0,5.092
53.0,-99.0,5.093
55.0,-57.0,5.094
73.0,-50.0,5.095
82.0,-46.0,5.096
61.0,-54.0,5.097
61.0,-60.0,5.098
113.0,-24.0,5.099
124.0,52.0,5.1
130.0,70.0,5.101
138.0,18.0,5.102
67.0,7.0,5.103
-83.0,130.0,5.104
-143.0,328.0,5.105
-15.0,441.0,5.106
168.0,378.0,5.107
244.0,229.0,5.108
244.0,167.0,5.109
261.0,219.0,5.11
257.0,201.0,5.111
139.0,-30.0,5.112
-68.0,-339.0,5.113
-242.0,-461.0,5.114
-311.0,-359.0,5.115
-286.0,-234.0,5.116
-186.0,-204.0,5.117
-46.0,-195.0,5.118
33.0,-144.0,5.119
-9.0,-140.0,5.12
-88.0,-269.0,5.121
-97.0,-419.0,5.122
-46.0,-410.0,5.123
-21.0,-219.0,5.124
-17.0,-9.0,5.125
12.0,45.0,5.126
54.0,-87.0,5.127
60.0,-283.0,5.128
35.0,-393.0,5.129
27.0,-377.0,5.13
35.0,-310.0,5.131
26.0,-249.0,5.132
18.0,-177.0,5.133
40.0,-70.0,5.134
69.0,46.0,5.135
67.0,150.0,5.136
47.0,242.0,5.137
-31.0,-366.0,5.138
-19.0,37.0,5.139
-7.0,315.0,5.14
2.0,217.0,5.141
13.0,87.0,5.142
24.0,-137.0,5.143
28.0,-285.0,5.144
9.0,-206.0,5.145
-9.0,-121.0,5.146
-33.0,-22.0,5.147
-46.0,-38.0,5.148
-27.0,-403.0,5.149
-9.0,-689.0,5.15
2.0,-728.0,5.151
10.0,-732.0,5.152
2.0,-629.0,5.153
1.0,-493.0,5.154
15.0,-264.0,5.155
33.0,-12.0,5.156
57.0,316.0,5.157
-39.0,-323.0,5.158
-24.0,-29.0,5.159
-9.0,173.0,5.16
3.0,102.0,5.161
16.0,7.0,5.162
30.0,-156.0,5.163
35.0,-264.0,5.164
12.0,-206.0,5.165
-12.0,-144.0,5.166
-41.0,-72.0,5.167
-58.0,-84.0,5.168
-34.0,-350.0,5.169
-12.0,-558.0,5.17
3.0,-586.0,5.171
13.0,-589.0,5.172
3.0,-514.0,5.173
0.0,-415.0,5.174
19.0,-249.0,5.175
41.0,-65.0,5.176
71.0,174.0,5.177
96.0,372.0,5.178
91.0,382.0,5.179
80.0,317.0,5.18
76.0,249.0,5.181
76.0,229.0,5.182
71.0,266.0,5.183
54.0,325.0,5.184
27.0,353.0,5.185
0.0,318.0,5.186
-13.0,221.0,5.187
-18.0,86.0,5.188
-20.0,-44.0,5.189
-25.0,-114.0,5.19
-26.0,-116.0,5.191
-20.0,-90.0,5.192
-20.0,-66.0,5.193
-32.0,-26.0,5.194
-51.0,53.0,5.195
-64.0,132.0,5.196
-59.0,142.0,5.197
-30.0,49.0,5.198
23.0,-75.0,5.199
75.0,-115.0,5.2
95.0,-22.0,5.201
73.0,128.0,5.202
27.0,214.0,5.203
-30.0,211.0,5.204
-86.0,191.0,5.205
-99.0,193.0,5.206
-32.0,171.0,5.207
62.0,98.0,5.208
73.0,22.0,5.209
-25.0,-10.0,5.21
-119.0,-42.0,5.211
-96.0,-131.0,5.212
2.0,-263.0,5.213
55.0,-369.0,5.214
40.0,-412.0,5.215
28.0,-399.0,5.216
49.0,-336.0,5.217
52.0,-199.0,5.218
13.0,-14.0,5.219
-21.0,150.0,5.22
-20.0,223.0,5.221
-20.0,221.0,5.222
-51.0,224.0,5.223
-80.0,290.0,5.224
-65.0,372.0,5.225
-29.0,373.0,5.226
-11.0,273.0,5.227
-12.0,151.0,5.228
-11.0,51.0,5.229
0.0,-83.0,5.23
10.0,-295.0,5.231
13.0,-501.0,5.232
6.0,-579.0,5.233
-6.0,-519.0,5.234
-9.0,-406.0,5.235
10.0,-285.0,5.236
40.0,-161.0,5.237
51.0,-35.0,5.238
40.0,61.0,5.239
28.0,139.0,5.24
14.0,165.0,5.241
8.0,186.0,5.242
24.0,187.0,5.243
37.0,193.0,5.244
40.0,210.0,5.245
41.0,215.0,5.246
33.0,177.0,5.247
26.0,146.0,5.248
21.0,133.0,5.249
15.0,131.0,5.25
7.0,166.0,5.251
-2.0,183.0,5.252
-11.0,144.0,5.253
-18.0,98.0,5.254
-18.0,36.0,5.255
-16.0,-32.0,5.256
-14.0,-121.0,5.257
-16.0,-203.0,5.258
-28.0,-223.0,5.259
-26.0,-183.0,5.26
-16.0,-147.0,5.261
-21.0,-167.0,5.262
-37.0,-223.0,5.263
-43.0,-258.0,5.264
-35.0,-226.0,5.265
-28.0,-135.0,5.266
-22.0,-23.0,5.267
-3.0,63.0,5.268
20.0,100.0,5.269
31.0,100.0,5.27
29.0,90.0,5.271
25.0,84.0,5.272
27.0,72.0,5.273
30.0,53.0,5.274
35.0,35.0,5.275
40.0,30.0,5.276
42.0,29.0,5.277
35.0,19.0,5.278
31.0,6.0,5.279
35.0,2.0,5.28
38.0,11.0,5.281
24.0,30.0,5.282
4.0,44.0,5.283
-4.0,48.0,5.284
-3.0,47.0,5.285
-5.0,41.0,5.286
-11.0,33.0,5.287
-11.0,24.0,5.288
-6.0,17.0,5.289
-6.0,16.0,5.29
-13.0,13.0,5.291
-13.0,10.0,5.292
-4.0,8.0,5.293
6.0,7.0,5.294
10.0,0.0,5.295
8.0,-11.0,5.296
4.0,-18.0,5.297
0.0,-18.0,5.298
-5.0,-12.0,5.299
-8.0,-11.0,5.3
-11.0,-22.0,5.301
-12.0,-31.0,5.302
-12.0,-31.0,5.303
-9.0,-23.0,5.304
-10.0,-15.0,5.305
-14.0,-13.0,5.306
-11.0,-12.0,5.307
0.0,-13.0,5.308
10.0,-13.0,5.309
10.0,-13.0,5.31
8.0,-16.0,5.311
13.0,-19.0,5.312
13.0,-21.0,5.313
4.0,-18.0,5.314
-6.0,-13.0,5.315
-9.0,-11.0,5.316
-9.0,-11.0,5.317
-12.0,-15.0,5.318
-12.0,-15.0,5.319
-12.0,-11.0,5.32
-9.0,-9.0,5.321
-9.0,-5.0,5.322
-5.0,-4.0,5.323
0.0,-4.0,5.324
-2.0,-3.0,5.325
-13.0,1.0,5.326
-20.0,7.0,5.327
-20.0,12.0,5.328
-17.0,19.0,5.329
-18.0,24.0,5.33
-22.0,23.0,5.331
-19.0,17.0,5.332
-14.0,9.0,5.333
-11.0,2.0,5.334
-13.0,1.0,5.335
-16.0,7.0,5.336
-16.0,14.0,5.337
-15.0,11.0,5.338
-9.0,0.0,5.339
-5.0,-7.0,5.34
-7.0,-6.0,5.341
-12.0,6.0,5.342
-11.0,13.0,5.343
-3.0,11.0,5.344
3.0,6.0,5.345
3.0,2.0,5.346
1.0,-1.0,5.347
1.0,-4.0,5.348
1.0,-6.0,5.349
-2.0,-7.0,5.35
-5.0,-8.0,5.351
-5.0,-7.0,5.352
-5.0,-3.0,5.353
-5.0,2.0,5.354
0.0,6.0,5.355
17.0,8.0,5.356
39.0,6.0,5.357
55.0,0.0,5.358
57.0,0.0,5.359
46.0,8.0,5.36
35.0,21.0,5.361
37.0,25.0,5.362
55.0,13.0,5.363
86.0,-7.0,5.364
113.0,-24.0,5.365
124.0,-33.0,5.366
115.0,-39.0,5.367
97.0,-45.0,5.368
89.0,-44.0,5.369
100.0,-43.0,5.37
114.0,-48.0,5.371
115.0,-56.0,5.372
104.0,-53.0,5.373
99.0,-31.0,5.374
104.0,-8.0,5.375
93.0,4.0,5.376
54.0,13.0,5.377
-1.0,15.0,5.378
-38.0,9.0,5.379
-57.0,3.0,5.38
-83.0,3.0,5.381
-117.0,12.0,5.382
-127.0,18.0,5.383
-93.0,23.0,5.384
-48.0,34.0,5.385
-31.0,47.0,5.386
-35.0,47.0,5.387
-25.0,39.0,5.388
9.0,40.0,5.389
40.0,41.0,5.39
61.0,21.0,5.391
90.0,-21.0,5.392
129.0,-62.0,5.393
147.0,-82.0,5.394
117.0,-74.0,5.395
64.0,-45.0,5.396
20.0,-13.0,5.397
-15.0,0.0,5.398
-47.0,6.0,5.399
-75.0,15.0,5.4
-85.0,33.0,5.401
-69.0,45.0,5.402
-34.0,29.0,5.403
0.0,-4.0,5.404
15.0,-25.0,5.405
1.0,-18.0,5.406
-14.0,1.0,5.407
-8.0,15.0,5.408
-2.0,19.0,5.409
-43.0,27.0,5.41
-137.0,41.0,5.411
-213.0,55.0,5.412
-189.0,53.0,5.413
-69.0,28.0,5.414
51.0,-12.0,5.415
82.0,-40.0,5.416
42.0,-40.0,5.417
11.0,-16.0,5.418
43.0,16.0,5.419
101.0,35.0,5.42
132.0,31.0,5.421
133.0,9.0,5.422
115.0,-28.0,5.423
59.0,-60.0,5.424
-35.0,-59.0,5.425
-108.0,-23.0,5.426
-123.0,11.0,5.427
-143.0,21.0,5.428
-233.0,16.0,5.429
-319.0,25.0,5.43
-273.0,35.0,5.431
-107.0,25.0,5.432
42.0,2.0,5.433
108.0,-8.0,5.434
138.0,-3.0,5.435
142.0,-2.0,5.436
79.0,-3.0,5.437
-41.0,-3.0,5.438
-99.0,-5.0,5.439
-57.0,-19.0,5.44
-12.0,-33.0,5.441
-23.0,-20.0,5.442
-23.0,12.0,5.443
35.0,35.0,5.444
86.0,42.0,5.445
64.0,40.0,5.446
18.0,29.0,5.447
21.0,4.0,5.448
53.0,-14.0,5.449
52.0,-14.0,5.45
18.0,-8.0,5.451
-1.0,-15.0,5.452
7.0,-29.0,5.453
4.0,-30.0,5.454
-28.0,-17.0,5.455
-54.0,-8.0,5.456
-42.0,-6.0,5.457
4.0,-10.0,5.458
42.0,-18.0,5.459
34.0,-26.0,5.46
6.0,-29.0,5.461
13.0,-24.0,5.462
68.0,-21.0,5.463
121.0,-20.0,5.464
116.0,-3.0,5.465
52.0,44.0,5.466
-32.0,101.0,5.467
-102.0,127.0,5.468
-152.0,99.0,5.469
-191.0,37.0,5.47
-196.0,-17.0,5.471
-131.0,-52.0,5.472
-1.0,-82.0,5.473
121.0,-110.0,5.474
159.0,-114.0,5.475
113.0,-86.0,5.476
42.0,-58.0,5.477
-29.0,-58.0,5.478
-85.0,-73.0,5.479
-101.0,-64.0,5.48
-64.0,-22.0,5.481
-8.0,35.0,5.482
5.0,86.0,5.483
-22.0,116.0,5.484
-34.0,121.0,5.485
-13.0,111.0,5.486
21.0,114.0,5.487
51.0,154.0,5.488
77.0,212.0,5.489
82.0,231.0,5.49
66.0,173.0,5.491
59.0,63.0,5.492
86.0,-38.0,5.493
102.0,-104.0,5.494
62.0,-159.0,5.495
-9.0,-225.0,5.496
-43.0,-273.0,5.497
-47.0,-268.0,5.498
-78.0,-230.0,5.499
-151.0,-194.0,5.5
-192.0,-160.0,5.501
-115.0,-113.0,5.502
75.0,-27.0,5.503
274.0,42.0,5.504
353.0,63.0,5.505
274.0,73.0,5.506
124.0,48.0,5.507
12.0,31.0,5.508
-47.0,41.0,5.509
-116.0,51.0,5.51
-192.0,59.0,5.511
-210.0,62.0,5.512
-151.0,49.0,5.513
-76.0,62.0,5.514
-24.0,157.0,5.515
24.0,224.0,5.516
71.0,206.0,5.517
82.0,161.0,5.518
48.0,58.0,5.519
13.0,48.0,5.52
4.0,109.0,5.521
-10.0,129.0,5.522
-47.0,49.0,5.523
-74.0,-59.0,5.524
-63.0,-95.0,5.525
-38.0,-70.0,5.526
-30.0,-89.0,5.527
-30.0,-187.0,5.528
-26.0,-287.0,5.529
-21.0,-297.0,5.53
-23.0,-213.0,5.531
-23.0,-89.0,5.532
-4.0,25.0,5.533
38.0,75.0,5.534
79.0,35.0,5.535
90.0,-34.0,5.536
69.0,-43.0,5.537
51.0,-11.0,5.538
66.0,-11.0,5.539
73.0,-13.0,5.54
55.0,-18.0,5.541
40.0,-17.0,5.542
38.0,4.0,5.543
28.0,23.0,5.544
-5.0,37.0,5.545
-34.0,60.0,5.546
-54.0,108.0,5.547
-63.0,171.0,5.548
-37.0,280.0,5.549
-14.0,369.0,5.55
1.0,394.0,5.551
19.0,406.0,5.552
45.0,374.0,5.553
64.0,316.0,5.554
59.0,182.0,5.555
49.0,21.0,5.556
26.0,-221.0,5.557
5.0,-419.0,5.558
-4.0,-426.0,5.559
-10.0,-400.0,5.56
-29.0,-368.0,5.561
-52.0,-260.0,5.562
-55.0,-110.0,5.563
-38.0,-54.0,5.564
-19.0,-106.0,5.565
-1.0,-123.0,5.566
17.0,-13.0,5.567
20.0,121.0,5.568
3.0,141.0,5.569
-17.0,54.0,5.57
-22.0,-33.0,5.571
-20.0,-85.0,5.572
-39.0,-176.0,5.573
-71.0,-340.0,5.574
-87.0,-481.0,5.575
-71.0,-473.0,5.576
-38.0,-326.0,5.577
-9.0,-139.0,5.578
17.0,-33.0,5.579
36.0,-30.0,5.58
47.0,-52.0,5.581
47.0,28.0,5.582
38.0,270.0,5.583
31.0,556.0,5.584
28.0,653.0,5.585
32.0,459.0,5.586
35.0,147.0,5.587
36.0,-10.0,5.588
30.0,74.0,5.589
16.0,242.0,5.59
1.0,269.0,5.591
-3.0,55.0,5.592
2.0,-291.0,5.593
8.0,-537.0,5.594
8.0,-545.0,5.595
13.0,-402.0,5.596
22.0,-255.0,5.597
23.0,-43.0,5.598
13.0,317.0,5.599
-1.0,635.0,5.6
7.0,555.0,5.601
38.0,107.0,5.602
74.0,-243.0,5.603
95.0,-216.0,5.604
95.0,-46.0,5.605
70.0,13.0,5.606
34.0,110.0,5.607
3.0,402.0,5.608
-11.0,606.0,5.609
-21.0,350.0,5.61
-33.0,-212.0,5.611
-44.0,-613.0,5.612
-52.0,-699.0,5.613
-57.0,-694.0,5.614
-52.0,-735.0,5.615
-31.0,-721.0,5.616
2.0,-613.0,5.617
30.0,-503.0,5.618
37.0,-432.0,5.619
17.0,-303.0,5.62
-13.0,-63.0,5.621
-32.0,204.0,5.622
-20.0,406.0,5.623
18.0,532.0,5.624
55.0,594.0,5.625
63.0,604.0,5.626
54.0,617.0,5.627
53.0,680.0,5.628
55.0,758.0,5.629
35.0,757.0,5.63
-7.0,626.0,5.631
-38.0,402.0,5.632
-43.0,174.0,5.633
-36.0,40.0,5.634
-44.0,41.0,5.635
-70.0,89.0,5.636
-92.0,40.0,5.637
-99.0,-112.0,5.638
-86.0,-204.0,5.639
-65.0,-248.0,5.64
-43.0,-150.0,5.641
-23.0,-117.0,5.642
-1.0,-281.0,5.643
14.0,-361.0,5.644
8.0,-187.0,5.645
-21.0,-52.0,5.646
-50.0,-33.0,5.647
-55.0,-38.0,5.648
-38.0,-118.0,5.649
-16.0,-191.0,5.65
6.0,-240.0,5.651
21.0,-286.0,5.652
21.0,-323.0,5.653
6.0,-330.0,5.654
4.0,-248.0,5.655
35.0,-174.0,5.656
78.0,-123.0,5.657
102.0,-55.0,5.658
108.0,80.0,5.659
120.0,224.0,5.66
137.0,308.0,5.661
120.0,290.0,5.662
71.0,210.0,5.663
40.0,185.0,5.664
56.0,280.0,5.665
85.0,396.0,5.666
79.0,388.0,5.667
41.0,262.0,5.668
9.0,152.0,5.669
-6.0,110.0,5.67
-19.0,60.0,5.671
-46.0,-58.0,5.672
-72.0,-197.0,5.673
-82.0,-289.0,5.674
-86.0,-322.0,5.675
-100.0,-318.0,5.676
-117.0,-292.0,5.677
-127.0,-248.0,5.678
-115.0,-191.0,5.679
-95.0,-133.0,5.68
-70.0,-89.0,5.681
-38.0,-74.0,5.682
-5.0,-97.0,5.683
13.0,-148.0,5.684
17.0,-201.0,5.685
28.0,-221.0,5.686
58.0,-184.0,5.687
85.0,-92.0,5.688
79.0,23.0,5.689
49.0,120.0,5.69
25.0,176.0,5.691
20.0,201.0,5.692
12.0,221.0,5.693
-9.0,262.0,5.694
-32.0,327.0,5.695
-40.0,396.0,5.696
-34.0,436.0,5.697
-28.0,418.0,5.698
-20.0,334.0,5.699
-15.0,209.0,5.7
-7.0,92.0,5.701
4.0,21.0,5.702
24.0,-36.0,5.703
41.0,-137.0,5.704
40.0,-288.0,5.705
22.0,-411.0,5.706
17.0,-423.0,5.707
36.0,-335.0,5.708
57.0,-234.0,5.709
54.0,-173.0,5.71
39.0,-132.0,5.711
33.0,-69.0,5.712
37.0,8.0,5.713
35.0,63.0,5.714
29.0,85.0,5.715
30.0,96.0,5.716
35.0,108.0,5.717
36.0,115.0,5.718
42.0,132.0,5.719
72.0,151.0,5.72
102.0,172.0,5.721
77.0,175.0,5.722
-13.0,125.0,5.723
-103.0,78.0,5.724
-125.0,36.0,5.725
-90.0,-3.0,5.726
-65.0,-36.0,5.727
-89.0,-54.0,5.728
-135.0,-26.0,5.729
-157.0,-4.0,5.73
-143.0,-4.0,5.731
-113.0,-2.0,5.732
-83.0,10.0,5.733
-47.0,17.0,5.734
3.0,11.0,5.735
50.0,6.0,5.736
70.0,2.0,5.737
62.0,-5.0,5.738
51.0,-27.0,5.739
43.0,-51.0,5.74
30.0,-61.0,5.741
15.0,-53.0,5.742
14.0,-39.0,5.743
28.0,-24.0,5.744
40.0,-4.0,5.745
40.0,9.0,5.746
38.0,11.0,5.747
43.0,10.0,5.748
41.0,10.0,5.749
34.0,6.0,5.75
31.0,-6.0,5.751
35.0,-13.0,5.752
39.0,-11.0,5.753
48.0,-12.0,5.754
66.0,-30.0,5.755
77.0,-50.0,5.756
62.0,-56.0,5.757
26.0,-50.0,5.758
4.0,-47.0,5.759
0.0,-47.0,5.76
-13.0,-48.0,5.761
-50.0,-43.0,5.762
-78.0,-36.0,5.763
-73.0,-24.0,5.764
-55.0,-12.0,5.765
-51.0,-9.0,5.766
-57.0,-12.0,5.767
-58.0,-8.0,5.768
-52.0,5.0,5.769
-45.0,11.0,5.77
-34.0,3.0,5.771
-20.0,-1.0,5.772
-10.0,7.0,5.773
-11.0,19.0,5.774
-19.0,22.0,5.775
-29.0,21.0,5.776
-41.0,27.0,5.777
-52.0,26.0,5.778
-58.0,22.0,5.779
-63.0,19.0,5.78
-73.0,21.0,5.781
-82.0,24.0,5.782
-77.0,30.0,5.783
-64.0,37.0,5.784
-63.0,46.0,5.785
-75.0,51.0,5.786
-86.0,45.0,5.787
-85.0,38.0,5.788
-76.0,24.0,5.789
-69.0,11.0,5.79
-61.0,0.0,5.791
-48.0,-8.0,5.792
-25.0,-2.0,5.793
1.0,1.0,5.794
28.0,-3.0,5.795
54.0,-11.0,5.796
83.0,-30.0,5.797
114.0,-49.0,5.798
148.0,-58.0,5.799
171.0,-54.0,5.8
186.0,-51.0,5.801
196.0,-54.0,5.802
206.0,-52.0,5.803
201.0,-36.0,5.804
174.0,-13.0,5.805
142.0,0.0,5.806
122.0,9.0,5.807
114.0,17.0,5.808
103.0,26.0,5.809
92.0,32.0,5.81
95.0,39.0,5.811
108.0,44.0,5.812
112.0,37.0,5.813
105.0,20.0,5.814
102.0,3.0,5.815
103.0,-4.0,5.816
94.0,-5.0,5.817
65.0,-5.0,5.818
41.0,0.0,5.819
33.0,8.0,5.82
29.0,9.0,5.821
16.0,9.0,5.822
13.0,6.0,5.823
37.0,-5.0,5.824
80.0,-35.0,5.825
120.0,-68.0,5.826
150.0,-79.0,5.827
158.0,-59.0,5.828
128.0,-34.0,5.829
71.0,-30.0,5.83
34.0,-49.0,5.831
23.0,-68.0,5.832
-4.0,-66.0,5.833
-61.0,-43.0,5.834
-96.0,-17.0,5.835
-85.0,-6.0,5.836
-77.0,-5.0,5.837
-112.0,1.0,5.838
-146.0,23.0,5.839
-128.0,39.0,5.84
-74.0,23.0,5.841
-37.0,-14.0,5.842
-24.0,-33.0,5.843
-21.0,-13.0,5.844
-25.0,24.0,5.845
-31.0,46.0,5.846
-20.0,37.0,5.847
-7.0,13.0,5.848
-48.0,-7.0,5.849
-148.0,-14.0,5.85
-234.0,-3.0,5.851
-238.0,20.0,5.852
-166.0,38.0,5.853
-70.0,42.0,5.854
5.0,40.0,5.855
32.0,42.0,5.856
16.0,42.0,5.857
-5.0,26.0,5.858
6.0,6.0,5.859
19.0,4.0,5.86
-22.0,17.0,5.861
-121.0,30.0,5.862
-203.0,33.0,5.863
-208.0,37.0,5.864
-154.0,43.0,5.865
-92.0,38.0,5.866
-47.0,14.0,5.867
-21.0,-12.0,5.868
-14.0,-27.0,5.869
-22.0,-33.0,5.87
-15.0,-34.0,5.871
29.0,-26.0,5.872
90.0,-15.0,5.873
118.0,-9.0,5.874
102.0,-8.0,5.875
69.0,-4.0,5.876
43.0,7.0,5.877
22.0,6.0,5.878
13.0,-6.0,5.879
16.0,-17.0,5.88
33.0,-20.0,5.881
51.0,-27.0,5.882
64.0,-48.0,5.883
74.0,-62.0,5.884
69.0,-48.0,5.885
44.0,-19.0,5.886
11.0,-7.0,5.887
-19.0,-13.0,5.888
-47.0,-17.0,5.889
-70.0,-7.0,5.89
-69.0,0.0,5.891
-47.0,3.0,5.892
-35.0,10.0,5.893
-48.0,22.0,5.894
-60.0,23.0,5.895
-43.0,16.0,5.896
-19.0,24.0,5.897
-17.0,52.0,5.898
-24.0,80.0,5.899
-14.0,76.0,5.9
5.0,41.0,5.901
9.0,6.0,5.902
1.0,-12.0,5.903
8.0,-29.0,5.904
21.0,-50.0,5.905
25.0,-56.0,5.906
28.0,-22.0,5.907
43.0,46.0,5.908
64.0,101.0,5.909
77.0,92.0,5.91
87.0,24.0,5.911
87.0,-39.0,5.912
59.0,-45.0,5.913
5.0,-12.0,5.914
-27.0,-5.0,5.915
-27.0,-43.0,5.916
-31.0,-83.0,5.917
-69.0,-93.0,5.918
-113.0,-80.0,5.919
-126.0,-65.0,5.92
-113.0,-29.0,5.921
-103.0,53.0,5.922
-101.0,137.0,5.923
-88.0,143.0,5.924
-52.0,66.0,5.925
2.0,-14.0,5.926
66.0,-35.0,5.927
137.0,-32.0,5.928
202.0,-58.0,5.929
226.0,-89.0,5.93
181.0,-58.0,5.931
83.0,49.0,5.932
-9.0,179.0,5.933
-51.0,276.0,5.934
-63.0,310.0,5.935
-71.0,278.0,5.936
-66.0,232.0,5.937
-28.0,228.0,5.938
22.0,241.0,5.939
44.0,146.0,5.94
43.0,-95.0,5.941
47.0,-331.0,5.942
43.0,-419.0,5.943
8.0,-417.0,5.944
-33.0,-451.0,5.945
-31.0,-474.0,5.946
-1.0,-344.0,5.947
4.0,-50.0,5.948
-24.0,241.0,5.949
-43.0,377.0,5.95
-34.0,326.0,5.951
-13.0,177.0,5.952
10.0,61.0,5.953
40.0,81.0,5.954
63.0,257.0,5.955
55.0,540.0,5.956
31.0,851.0,5.957
16.0,1124.0,5.958
14.0,1181.0,5.959
1.0,864.0,5.96
-20.0,222.0,5.961
-31.0,-496.0,5.962
-27.0,-1082.0,5.963
-21.0,-1478.0,5.964
-14.0,-1703.0,5.965
3.0,-1740.0,5.966
22.0,-1588.0,5.967
19.0,-1320.0,5.968
-2.0,-1013.0,5.969
-20.0,-669.0,5.97
-26.0,-285.0,5.971
-26.0,56.0,5.972
-11.0,270.0,5.973
31.0,403.0,5.974
88.0,587.0,5.975
123.0,849.0,5.976
126.0,1071.0,5.977
106.0,1144.0,5.978
69.0,999.0,5.979
24.0,624.0,5.98
-11.0,109.0,5.981
-17.0,-317.0,5.982
-8.0,-477.0,5.983
-15.0,-372.0,5.984
-40.0,-99.0,5.985
-63.0,274.0,5.986
-65.0,634.0,5.987
-55.0,781.0,5.988
-41.0,648.0,5.989
-19.0,400.0,5.99
6.0,173.0,5.991
20.0,-69.0,5.992
14.0,-305.0,5.993
-1.0,-336.0,5.994
-8.0,-131.0,5.995
-8.0,12.0,5.996
-12.0,-98.0,5.997
-28.0,-313.0,5.998
-41.0,-385.0,5.999
-42.0,-324.0,6.0
-25.0,-240.0,6.001
4.0,-76.0,6.002
42.0,192.0,6.003
71.0,407.0,6.004
72.0,451.0,6.005
47.0,396.0,6.006
20.0,301.0,6.007
2.0,104.0,6.008
-7.0,-125.0,6.009
-29.0,-184.0,6.01
-63.0,-94.0,6.011
-93.0,-157.0,6.012
-100.0,-501.0,6.013
-85.0,-845.0,6.014
-65.0,-897.0,6.015
-54.0,-713.0,6.016
-48.0,-518.0,6.017
-29.0,-341.0,6.018
7.0,-126.0,6.019
41.0,96.0,6.02
54.0,256.0,6.021
50.0,400.0,6.022
50.0,595.0,6.023
53.0,773.0,6.024
56.0,807.0,6.025
61.0,711.0,6.026
74.0,616.0,6.027
76.0,577.0,6.028
55.0,500.0,6.029
22.0,335.0,6.03
-3.0,233.0,6.031
-14.0,348.0,6.032
-23.0,512.0,6.033
-35.0,346.0,6.034
-43.0,-191.0,6.035
-48.0,-669.0,6.036
-53.0,-790.0,6.037
-62.0,-836.0,6.038
-71.0,-1082.0,6.039
-80.0,-1261.0,6.04
-85.0,-1233.0,6.041
-73.0,-1145.0,6.042
-31.0,-880.0,6.043
41.0,-589.0,6.044
133.0,-221.0,6.045
221.0,90.0,6.046
273.0,230.0,6.047
259.0,318.0,6.048
193.0,246.0,6.049
123.0,228.0,6.05
84.0,373.0,6.051
60.0,515.0,6.052
27.0,651.0,6.053
-16.0,734.0,6.054
-54.0,659.0,6.055
-82.0,581.0,6.056
-104.0,491.0,6.057
-119.0,399.0,6.058
-117.0,317.0,6.059
-101.0,337.0,6.06
-73.0,477.0,6.061
-38.0,622.0,6.062
-8.0,622.0,6.063
-3.0,437.0,6.064
-30.0,140.0,6.065
-60.0,-154.0,6.066
-67.0,-364.0,6.067
-54.0,-485.0,6.068
-33.0,-547.0,6.069
-3.0,-545.0,6.07
26.0,-460.0,6.071
34.0,-333.0,6.072
20.0,-226.0,6.073
13.0,-150.0,6.074
30.0,-93.0,6.075
49.0,-93.0,6.076
43.0,-171.0,6.077
32.0,-274.0,6.078
50.0,-295.0,6.079
81.0,-239.0,6.08
77.0,-192.0,6.081
44.0,-168.0,6.082
28.0,-99.0,6.083
43.0,31.0,6.084
41.0,138.0,6.085
-13.0,153.0,6.086
-89.0,133.0,6.087
-135.0,179.0,6.088
-129.0,305.0,6.089
-91.0,401.0,6.09
-50.0,376.0,6.091
-30.0,268.0,6.092
-30.0,182.0,6.093
-27.0,131.0,6.094
-16.0,30.0,6.095
-15.0,-143.0,6.096
-32.0,-291.0,6.097
-51.0,-356.0,6.098
-43.0,-350.0,6.099
-22.0,-308.0,6.1
-11.0,-222.0,6.101
5.0,-92.0,6.102
42.0,-10.0,6.103
71.0,-61.0,6.104
65.0,-200.0,6.105
47.0,-300.0,6.106
62.0,-289.0,6.107
87.0,-203.0,6.108
69.0,-97.0,6.109
14.0,4.0,6.11
-8.0,102.0,6.111
25.0,182.0,6.112
64.0,232.0,6.113
70.0,264.0,6.114
64.0,289.0,6.115
67.0,308.0,6.116
62.0,319.0,6.117
24.0,318.0,6.118
-17.0,300.0,6.119
-27.0,272.0,6.12
-15.0,213.0,6.121
-15.0,155.0,6.122
-31.0,101.0,6.123
-43.0,54.0,6.124
-42.0,27.0,6.125
-45.0,6.0,6.126
-53.0,2.0,6.127
-48.0,-10.0,6.128
-29.0,-42.0,6.129
-14.0,-67.0,6.13
-13.0,-72.0,6.131
-13.0,-77.0,6.132
-5.0,-80.0,6.133
2.0,-81.0,6.134
5.0,-75.0,6.135
6.0,-71.0,6.136
10.0,-77.0,6.137
12.0,-80.0,6.138
10.0,-68.0,6.139
7.0,-66.0,6.14
9.0,-78.0,6.141
15.0,-80.0,6.142
22.0,-66.0,6.143
24.0,-57.0,6.144
20.0,-58.0,6.145
16.0,-55.0,6.146
17.0,-44.0,6.147
24.0,-38.0,6.148
28.0,-39.0,6.149
21.0,-37.0,6.15
12.0,-36.0,6.151
4.0,-37.0,6.152
-6.0,-38.0,6.153
-17.0,-31.0,6.154
-23.0,-25.0,6.155
-28.0,-25.0,6.156
-29.0,-24.0,6.157
-28.0,-19.0,6.158
-17.0,-17.0,6.159
-6.0,-29.0,6.16
-2.0,-45.0,6.161
-4.0,-41.0,6.162
2.0,-17.0,6.163
14.0,7.0,6.164
14.0,23.0,6.165
2.0,30.0,6.166
-5.0,32.0,6.167
1.0,26.0,6.168
11.0,14.0,6.169
13.0,4.0,6.17
11.0,0.0,6.171
14.0,3.0,6.172
20.0,7.0,6.173
30.0,8.0,6.174
31.0,10.0,6.175
18.0,12.0,6.176
5.0,13.0,6.177
0.0,8.0,6.178
0.0,-2.0,6.179
-19.0,-10.0,6.18
-64.0,-13.0,6.181
-110.0,-5.0,6.182
-131.0,13.0,6.183
-123.0,32.0,6.184
-108.0,43.0,6.185
-99.0,41.0,6.186
-96.0,32.0,6.187
-97.0,26.0,6.188
-99.0,28.0,6.189
-96.0,29.0,6.19
-88.0,25.0,6.191
-81.0,18.0,6.192
-82.0,21.0,6.193
-85.0,26.0,6.194
-82.0,26.0,6.195
-73.0,20.0,6.196
-57.0,16.0,6.197
-29.0,15.0,6.198
6.0,13.0,6.199
33.0,8.0,6.2
51.0,4.0,6.201
71.0,5.0,6.202
101.0,5.0,6.203
130.0,1.0,6.204
143.0,1.0,6.205
149.0,5.0,6.206
164.0,2.0,6.207
182.0,-7.0,6.208
178.0,-12.0,6.209
163.0,-7.0,6.21
173.0,-5.0,6.211
212.0,-10.0,6.212
229.0,-15.0,6.213
192.0,-14.0,6.214
133.0,-13.0,6.215
105.0,-19.0,6.216
109.0,-18.0,6.217
98.0,-4.0,6.218
62.0,10.0,6.219
26.0,11.0,6.22
25.0,-4.0,6.221
64.0,-19.0,6.222
116.0,-31.0,6.223
134.0,-36.0,6.224
89.0,-29.0,6.225
21.0,-16.0,6.226
-8.0,-9.0,6.227
3.0,-12.0,6.228
-4.0,-18.0,6.229
-49.0,-24.0,6.23
-70.0,-28.0,6.231
-16.0,-26.0,6.232
90.0,-11.0,6.233
179.0,1.0,6.234
199.0,-7.0,6.235
136.0,-26.0,6.236
41.0,-28.0,6.237
-18.0,-16.0,6.238
-24.0,-6.0,6.239
1.0,-12.0,6.24
-24.0,-19.0,6.241
-120.0,-8.0,6.242
-202.0,10.0,6.243
-189.0,20.0,6.244
-95.0,19.0,6.245
-16.0,8.0,6.246
-27.0,-13.0,6.247
-109.0,-32.0,6.248
-159.0,-24.0,6.249
-106.0,4.0,6.25
-3.0,22.0,6.251
39.0,7.0,6.252
0.0,-13.0,6.253
-25.0,-16.0,6.254
15.0,2.0,6.255
55.0,26.0,6.256
34.0,45.0,6.257
-9.0,52.0,6.258
-11.0,39.0,6.259
-28.0,26.0,6.26
-88.0,15.0,6.261
-110.0,5.0,6.262
-50.0,-4.0,6.263
1.0,-13.0,6.264
-41.0,-22.0,6.265
-109.0,-26.0,6.266
-101.0,-14.0,6.267
-50.0,-4.0,6.268
-40.0,-3.0,6.269
-49.0,-1.0,6.27
-6.0,2.0,6.271
70.0,4.0,6.272
102.0,2.0,6.273
89.0,0.0,6.274
76.0,-3.0,6.275
63.0,-6.0,6.276
23.0,-8.0,6.277
-41.0,-9.0,6.278
-98.0,-5.0,6.279
-147.0,0.0,6.28
-199.0,1.0,6.281
-224.0,6.0,6.282
-194.0,4.0,6.283
-131.0,-3.0,6.284
-63.0,-8.0,6.285
6.0,-10.0,6.286
66.0,-11.0,6.287
80.0,-8.0,6.288
46.0,-1.0,6.289
9.0,7.0,6.29
5.0,10.0,6.291
12.0,9.0,6.292
12.0,3.0,6.293
21.0,-2.0,6.294
41.0,-7.0,6.295
43.0,-6.0,6.296
19.0,1.0,6.297
-1.0,3.0,6.298
2.0,-1.0,6.299
7.0,-5.0,6.3
-6.0,-4.0,6.301
-20.0,0.0,6.302
-15.0,1.0,6.303
-12.0,-5.0,6.304
-23.0,-7.0,6.305
-29.0,0.0,6.306
-16.0,14.0,6.307
0.0,21.0,6.308
3.0,14.0,6.309
0.0,9.0,6.31
6.0,13.0,6.311
13.0,14.0,6.312
13.0,-2.0,6.313
15.0,-8.0,6.314
24.0,18.0,6.315
31.0,55.0,6.316
30.0,65.0,6.317
23.0,59.0,6.318
18.0,77.0,6.319
8.0,76.0,6.32
-1.0,13.0,6.321
13.0,-40.0,6.322
52.0,-66.0,6.323
89.0,-58.0,6.324
97.0,56.0,6.325
87.0,121.0,6.326
77.0,33.0,6.327
64.0,-55.0,6.328
37.0,-143.0,6.329
11.0,-209.0,6.33
14.0,-207.0,6.331
42.0,-201.0,6.332
53.0,-182.0,6.333
21.0,-130.0,6.334
-35.0,22.0,6.335
-82.0,144.0,6.336
-109.0,172.0,6.337
-126.0,175.0,6.338
-123.0,87.0,6.339
-89.0,7.0,6.34
-37.0,4.0,6.341
-2.0,123.0,6.342
11.0,293.0,6.343
23.0,350.0,6.344
42.0,203.0,6.345
46.0,-44.0,6.346
23.0,-175.0,6.347
0.0,-97.0,6.348
0.0,92.0,6.349
10.0,221.0,6.35
5.0,202.0,6.351
-6.0,67.0,6.352
-5.0,-74.0,6.353
12.0,-116.0,6.354
25.0,-41.0,6.355
30.0,79.0,6.356
32.0,154.0,6.357
31.0,154.0,6.358
22.0,83.0,6.359
5.0,-15.0,6.36
-7.0,-42.0,6.361
-17.0,146.0,6.362
-32.0,562.0,6.363
-51.0,939.0,6.364
-56.0,880.0,6.365
-35.0,249.0,6.366
-2.0,-622.0,6.367
20.0,-1233.0,6.368
22.0,-1409.0,6.369
9.0,-1347.0,6.37
-10.0,-1208.0,6.371
-30.0,-926.0,6.372
-43.0,-492.0,6.373
-36.0,-117.0,6.374
-17.0,52.0,6.375
0.0,151.0,6.376
10.0,303.0,6.377
25.0,374.0,6.378
50.0,266.0,6.379
77.0,226.0,6.38
97.0,396.0,6.381
115.0,535.0,6.382
130.0,577.0,6.383
124.0,530.0,6.384
77.0,214.0,6.385
5.0,0.0,6.386
-52.0,89.0,6.387
-68.0,88.0,6.388
-59.0,-188.0,6.389
-56.0,-468.0,6.39
-66.0,-764.0,6.391
-61.0,-953.0,6.392
-19.0,-821.0,6.393
39.0,-700.0,6.394
71.0,-617.0,6.395
58.0,-478.0,6.396
23.0,-176.0,6.397
-11.0,140.0,6.398
-19.0,492.0,6.399
-9.0,788.0,6.4
19.0,914.0,6.401
51.0,816.0,6.402
78.0,604.0,6.403
86.0,432.0,6.404
68.0,327.0,6.405
30.0,283.0,6.406
-12.0,372.0,6.407
-47.0,609.0,6.408
-80.0,818.0,6.409
-113.0,810.0,6.41
-133.0,617.0,6.411
-132.0,397.0,6.412
-114.0,212.0,6.413
-93.0,14.0,6.414
-65.0,-218.0,6.415
-26.0,-438.0,6.416
12.0,-593.0,6.417
33.0,-682.0,6.418
32.0,-703.0,6.419
20.0,-685.0,6.42
8.0,-672.0,6.421
2.0,-657.0,6.422
5.0,-609.0,6.423
15.0,-502.0,6.424
26.0,-316.0,6.425
40.0,-38.0,6.426
58.0,278.0,6.427
79.0,512.0,6.428
90.0,604.0,6.429
79.0,622.0,6.43
55.0,605.0,6.431
30.0,452.0,6.432
2.0,114.0,6.433
-23.0,-222.0,6.434
-29.0,-304.0,6.435
-14.0,-112.0,6.436
2.0,134.0,6.437
8.0,211.0,6.438
0.0,61.0,6.439
-16.0,-126.0,6.44
-38.0,-428.0,6.441
-55.0,-609.0,6.442
-52.0,-419.0,6.443
-31.0,-251.0,6.444
-10.0,-146.0,6.445
2.0,-83.0,6.446
23.0,-150.0,6.447
54.0,-167.0,6.448
66.0,-29.0,6.449
45.0,106.0,6.45
19.0,236.0,6.451
19.0,327.0,6.452
35.0,295.0,6.453
34.0,252.0,6.454
9.0,177.0,6.455
-16.0,87.0,6.456
-19.0,-50.0,6.457
-1.0,-158.0,6.458
28.0,-119.0,6.459
54.0,-29.0,6.46
62.0,25.0,6.461
47.0,33.0,6.462
27.0,2.0,6.463
19.0,-48.0,6.464
7.0,-70.0,6.465
-26.0,-13.0,6.466
-65.0,89.0,6.467
-75.0,140.0,6.468
-56.0,96.0,6.469
-31.0,5.0,6.47
-18.0,-49.0,6.471
-16.0,-27.0,6.472
-17.0,48.0,6.473
-19.0,127.0,6.474
-13.0,183.0,6.475
7.0,228.0,6.476
30.0,263.0,6.477
37.0,245.0,6.478
21.0,138.0,6.479
-7.0,-33.0,6.48
-29.0,-178.0,6.481
-41.0,-253.0,6.482
-49.0,-306.0,6.483
-67.0,-374.0,6.484
-99.0,-408.0,6.485
-123.0,-335.0,6.486
-114.0,-155.0,6.487
-80.0,54.0,6.488
-49.0,231.0,6.489
-19.0,354.0,6.49
26.0,424.0,6.491
85.0,457.0,6.492
127.0,491.0,6.493
143.0,521.0,6.494
151.0,482.0,6.495
158.0,320.0,6.496
141.0,101.0,6.497
87.0,-102.0,6.498
33.0,-220.0,6.499
3.0,-276.0,6.5
-6.0,-318.0,6.501
-10.0,-353.0,6.502
-6.0,-392.0,6.503
8.0,-466.0,6.504
18.0,-575.0,6.505
16.0,-639.0,6.506
14.0,-559.0,6.507
16.0,-331.0,6.508
9.0,-63.0,6.509
-16.0,125.0,6.51
-38.0,211.0,6.511
-39.0,237.0,6.512
-30.0,237.0,6.513
-33.0,206.0,6.514
-43.0,154.0,6.515
-41.0,113.0,6.516
-29.0,99.0,6.517
-24.0,79.0,6.518
-28.0,42.0,6.519
-30.0,11.0,6.52
-14.0,6.0,6.521
19.0,11.0,6.522
55.0,5.0,6.523
75.0,12.0,6.524
70.0,58.0,6.525
49.0,116.0,6.526
26.0,142.0,6.527
11.0,133.0,6.528
0.0,125.0,6.529
-9.0,124.0,6.53
-10.0,111.0,6.531
0.0,86.0,6.532
15.0,64.0,6.533
21.0,51.0,6.534
16.0,33.0,6.535
2.0,14.0,6.536
-8.0,7.0,6.537
-17.0,6.0,6.538
-22.0,0.0,6.539
-26.0,-10.0,6.54
-28.0,-24.0,6.541
-24.0,-33.0,6.542
-17.0,-40.0,6.543
-15.0,-43.0,6.544
-20.0,-41.0,6.545
-21.0,-38.0,6.546
-8.0,-40.0,6.547
8.0,-41.0,6.548
16.0,-42.0,6.549
20.0,-41.0,6.55
26.0,-45.0,6.551
33.0,-49.0,6.552
29.0,-57.0,6.553
14.0,-64.0,6.554
-2.0,-69.0,6.555
-17.0,-64.0,6.556
-27.0,-48.0,6.557
-33.0,-32.0,6.558
-26.0,-22.0,6.559
-16.0,-24.0,6.56
-8.0,-35.0,6.561
-3.0,-40.0,6.562
3.0,-34.0,6.563
5.0,-23.0,6.564
-2.0,-12.0,6.565
-11.0,-9.0,6.566
-9.0,-9.0,6.567
-3.0,-6.0,6.568
-4.0,1.0,6.569
-13.0,9.0,6.57
-14.0,15.0,6.571
-2.0,13.0,6.572
13.0,8.0,6.573
19.0,6.0,6.574
18.0,10.0,6.575
12.0,18.0,6.576
8.0,25.0,6.577
8.0,27.0,6.578
4.0,27.0,6.579
-12.0,26.0,6.58
-35.0,27.0,6.581
-51.0,29.0,6.582
-51.0,27.0,6.583
-45.0,12.0,6.584
-54.0,-9.0,6.585
-77.0,-25.0,6.586
-95.0,-27.0,6.587
-103.0,-17.0,6.588
-115.0,-4.0,6.589
-133.0,6.0,6.59
-147.0,13.0,6.591
-147.0,18.0,6.592
-138.0,23.0,6.593
-127.0,28.0,6.594
-114.0,29.0,6.595
-96.0,28.0,6.596
-79.0,27.0,6.597
-56.0,25.0,6.598
-20.0,21.0,6.599
22.0,15.0,6.6
48.0,10.0,6.601
55.0,17.0,6.602
63.0,31.0,6.603
78.0,33.0,6.604
79.0,17.0,6.605
58.0,-13.0,6.606
41.0,-35.0,6.607
59.0,-33.0,6.608
110.0,-11.0,6.609
169.0,16.0,6.61
217.0,32.0,6.611
254.0,33.0,6.612
279.0,18.0,6.613
282.0,-4.0,6.614
267.0,-23.0,6.615
249.0,-28.0,6.616
251.0,-31.0,6.617
268.0,-56.0,6.618
276.0,-88.0,6.619
253.0,-102.0,6.62
213.0,-91.0,6.621
184.0,-70.0,6.622
176.0,-53.0,6.623
164.0,-35.0,6.624
122.0,-9.0,6.625
57.0,11.0,6.626
-6.0,17.0,6.627
-47.0,19.0,6.628
-65.0,26.0,6.629
-70.0,37.0,6.63
-55.0,44.0,6.631
-6.0,41.0,6.632
64.0,28.0,6.633
90.0,11.0,6.634
29.0,6.0,6.635
-70.0,15.0,6.636
-114.0,17.0,6.637
-93.0,0.0,6.638
-78.0,-14.0,6.639
-117.0,-20.0,6.64
-160.0,1.0,6.641
-138.0,11.0,6.642
-57.0,-17.0,6.643
26.0,-40.0,6.644
75.0,-49.0,6.645
73.0,-47.0,6.646
26.0,-12.0,6.647
-38.0,15.0,6.648
-89.0,23.0,6.649
-130.0,27.0,6.65
-168.0,21.0,6.651
-181.0,18.0,6.652
-155.0,23.0,6.653
-118.0,26.0,6.654
-102.0,24.0,6.655
-84.0,19.0,6.656
-35.0,9.0,6.657
28.0,-2.0,6.658
60.0,-12.0,6.659
59.0,-19.0,6.66
59.0,-22.0,6.661
54.0,-13.0,6.662
20.0,-1.0,6.663
-37.0,11.0,6.664
-80.0,13.0,6.665
-97.0,6.0,6.666
-91.0,-7.0,6.667
-64.0,-15.0,6.668
-16.0,-13.0,6.669
22.0,-4.0,6.67
23.0,2.0,6.671
-3.0,2.0,6.672
-30.0,-3.0,6.673
-55.0,-3.0,6.674
-78.0,6.0,6.675
-81.0,18.0,6.676
-62.0,20.0,6.677
-47.0,9.0,6.678
-42.0,-3.0,6.679
-25.0,-6.0,6.68
9.0,-7.0,6.681
19.0,-10.0,6.682
-7.0,-14.0,6.683
-23.0,-16.0,6.684
-4.0,-17.0,6.685
3.0,-17.0,6.686
-42.0,-15.0,6.687
-92.0,-6.0,6.688
-84.0,0.0,6.689
-39.0,-1.0,6.69
-20.0,-7.0,6.691
-30.0,-7.0,6.692
-29.0,0.0,6.693
-14.0,5.0,6.694
-11.0,10.0,6.695
-13.0,11.0,6.696
5.0,8.0,6.697
27.0,-20.0,6.698
21.0,-4.0,6.699
10.0,17.0,6.7
-15.0,51.0,6.701
-31.0,80.0,6.702
-12.0,94.0,6.703
1.0,111.0,6.704
0.0,136.0,6.705
-2.0,150.0,6.706
-6.0,131.0,6.707
-4.0,116.0,6.708
16.0,110.0,6.709
30.0,108.0,6.71
26.0,121.0,6.711
22.0,108.0,6.712
22.0,19.0,6.713
24.0,-37.0,6.714
32.0,8.0,6.715
41.0,51.0,6.716
51.0,87.0,6.717
57.0,-74.0,6.718
45.0,-48.0,6.719
40.0,-15.0,6.72
64.0,38.0,6.721
106.0,85.0,6.722
139.0,107.0,6.723
140.0,134.0,6.724
98.0,174.0,6.725
30.0,196.0,6.726
-32.0,166.0,6.727
-76.0,142.0,6.728
-116.0,132.0,6.729
-164.0,129.0,6.73
-193.0,149.0,6.731
-168.0,129.0,6.732
-101.0,-12.0,6.733
-34.0,-100.0,6.734
6.0,-29.0,6.735
25.0,39.0,6.736
37.0,97.0,6.737
48.0,87.0,6.738
53.0,-187.0,6.739
49.0,-407.0,6.74
42.0,-387.0,6.741
44.0,-182.0,6.742
59.0,-6.0,6.743
77.0,24.0,6.744
82.0,-26.0,6.745
70.0,-47.0,6.746
51.0,-8.0,6.747
29.0,67.0,6.748
-5.0,183.0,6.749
-39.0,357.0,6.75
-54.0,555.0,6.751
-44.0,658.0,6.752
-25.0,528.0,6.753
-11.0,161.0,6.754
-1.0,-255.0,6.755
1.0,-503.0,6.756
-1.0,-540.0,6.757
-5.0,-485.0,6.758
1.0,-424.0,6.759
15.0,-329.0,6.76
21.0,-158.0,6.761
19.0,51.0,6.762
19.0,196.0,6.763
13.0,193.0,6.764
-3.0,13.0,6.765
-23.0,-267.0,6.766
-31.0,-460.0,6.767
-20.0,-442.0,6.768
-6.0,-304.0,6.769
-3.0,-220.0,6.77
-4.0,-139.0,6.771
-4.0,166.0,6.772
-9.0,683.0,6.773
-15.0,990.0,6.774
-16.0,711.0,6.775
-4.0,14.0,6.776
11.0,-574.0,6.777
22.0,-824.0,6.778
32.0,-841.0,6.779
40.0,-766.0,6.78
38.0,-412.0,6.781
39.0,-133.0,6.782
47.0,-78.0,6.783
51.0,-60.0,6.784
41.0,-153.0,6.785
30.0,-194.0,6.786
15.0,-79.0,6.787
6.0,-12.0,6.788
18.0,-88.0,6.789
30.0,-83.0,6.79
42.0,170.0,6.791
49.0,399.0,6.792
41.0,553.0,6.793
29.0,637.0,6.794
7.0,508.0,6.795
-8.0,359.0,6.796
-5.0,151.0,6.797
-1.0,7.0,6.798
4.0,71.0,6.799
-3.0,66.0,6.8
-23.0,66.0,6.801
-44.0,225.0,6.802
-51.0,444.0,6.803
-50.0,544.0,6.804
-59.0,558.0,6.805
-81.0,598.0,6.806
-93.0,608.0,6.807
-78.0,488.0,6.808
-55.0,333.0,6.809
-47.0,295.0,6.81
-47.0,318.0,6.811
-42.0,236.0,6.812
-30.0,63.0,6.813
-24.0,-25.0,6.814
-17.0,-4.0,6.815
-5.0,-61.0,6.816
2.0,-283.0,6.817
-5.0,-549.0,6.818
-14.0,-631.0,6.819
-10.0,-563.0,6.82
0.0,-592.0,6.821
5.0,-788.0,6.822
1.0,-921.0,6.823
-5.0,-809.0,6.824
-16.0,-569.0,6.825
-21.0,-390.0,6.826
-7.0,-234.0,6.827
22.0,7.0,6.828
44.0,250.0,6.829
45.0,343.0,6.83
44.0,345.0,6.831
55.0,414.0,6.832
71.0,487.0,6.833
80.0,367.0,6.834
78.0,67.0,6.835
64.0,-182.0,6.836
40.0,-273.0,6.837
8.0,-349.0,6.838
-5.0,-513.0,6.839
6.0,-668.0,6.84
26.0,-684.0,6.841
42.0,-584.0,6.842
59.0,-479.0,6.843
78.0,-388.0,6.844
85.0,-257.0,6.845
74.0,-91.0,6.846
49.0,52.0,6.847
14.0,167.0,6.848
-22.0,289.0,6.849
-41.0,416.0,6.85
-28.0,503.0,6.851
6.0,537.0,6.852
31.0,545.0,6.853
31.0,555.0,6.854
20.0,567.0,6.855
16.0,588.0,6.856
20.0,616.0,6.857
26.0,623.0,6.858
28.0,579.0,6.859
18.0,500.0,6.86
-1.0,433.0,6.861
-21.0,390.0,6.862
-39.0,334.0,6.863
-54.0,239.0,6.864
-72.0,108.0,6.865
-90.0,-57.0,6.866
-93.0,-253.0,6.867
-85.0,-426.0,6.868
-75.0,-499.0,6.869
-68.0,-453.0,6.87
-56.0,-344.0,6.871
-32.0,-224.0,6.872
-6.0,-111.0,6.873
4.0,-39.0,6.874
1.0,-56.0,6.875
-5.0,-139.0,6.876
-7.0,-193.0,6.877
0.0,-168.0,6.878
23.0,-112.0,6.879
49.0,-122.0,6.88
45.0,-235.0,6.881
9.0,-407.0,6.882
-23.0,-556.0,6.883
-20.0,-602.0,6.884
4.0,-515.0,6.885
16.0,-356.0,6.886
4.0,-216.0,6.887
-14.0,-123.0,6.888
-26.0,-40.0,6.889
-33.0,61.0,6.89
-36.0,178.0,6.891
-29.0,294.0,6.892
-9.0,374.0,6.893
12.0,372.0,6.894
26.0,312.0,6.895
31.0,269.0,6.896
35.0,273.0,6.897
44.0,272.0,6.898
52.0,220.0,6.899
58.0,148.0,6.9
61.0,108.0,6.901
62.0,105.0,6.902
63.0,106.0,6.903
63.0,101.0,6.904
63.0,72.0,6.905
56.0,-25.0,6.906
40.0,-177.0,6.907
21.0,-292.0,6.908
15.0,-296.0,6.909
27.0,-227.0,6.91
37.0,-172.0,6.911
30.0,-146.0,6.912
10.0,-101.0,6.913
-7.0,-37.0,6.914
-21.0,-6.0,6.915
-49.0,-19.0,6.916
-82.0,-14.0,6.917
-97.0,58.0,6.918
-79.0,162.0,6.919
-52.0,211.0,6.92
-36.0,178.0,6.921
-18.0,123.0,6.922
12.0,94.0,6.923
36.0,80.0,6.924
32.0,56.0,6.925
16.0,29.0,6.926
12.0,15.0,6.927
19.0,16.0,6.928
21.0,19.0,6.929
18.0,17.0,6.93
14.0,15.0,6.931
8.0,12.0,6.932
-5.0,14.0,6.933
-15.0,21.0,6.934
-10.0,24.0,6.935
-2.0,17.0,6.936
1.0,10.0,6.937
0.0,6.0,6.938
6.0,0.0,6.939
14.0,-12.0,6.94
9.0,-28.0,6.941
-1.0,-29.0,6.942
1.0,-25.0,6.943
8.0,-26.0,6.944
1.0,-31.0,6.945
-21.0,-33.0,6.946
-33.0,-35.0,6.947
-27.0,-43.0,6.948
-13.0,-50.0,6.949
0.0,-48.0,6.95
12.0,-38.0,6.951
17.0,-30.0,6.952
13.0,-26.0,6.953
2.0,-20.0,6.954
-4.0,-18.0,6.955
-6.0,-23.0,6.956
-9.0,-29.0,6.957
-16.0,-37.0,6.958
-22.0,-41.0,6.959
-28.0,-37.0,6.96
-29.0,-27.0,6.961
-17.0,-9.0,6.962
7.0,4.0,6.963
31.0,4.0,6.964
37.0,-6.0,6.965
30.0,-21.0,6.966
25.0,-30.0,6.967
25.0,-33.0,6.968
24.0,-28.0,6.969
20.0,-19.0,6.97
19.0,-7.0,6.971
20.0,1.0,6.972
15.0,5.0,6.973
-1.0,4.0,6.974
-8.0,2.0,6.975
5.0,1.0,6.976
24.0,3.0,6.977
24.0,10.0,6.978
5.0,7.0,6.979
-12.0,2.0,6.98
-27.0,-7.0,6.981
-39.0,-16.0,6.982
-43.0,-21.0,6.983
-43.0,-22.0,6.984
-32.0,-11.0,6.985
-23.0,-2.0,6.986
-24.0,1.0,6.987
-25.0,5.0,6.988
-24.0,5.0,6.989
-28.0,5.0,6.99
-52.0,8.0,6.991
-77.0,10.0,6.992
-106.0,8.0,6.993
-132.0,6.0,6.994
-144.0,4.0,6.995
-158.0,2.0,6.996
-179.0,4.0,6.997
-202.0,18.0,6.998
-222.0,12.0,6.999
-227.0,4.0,7.0
-215.0,-13.0,7.001
-182.0,-28.0,7.002
-132.0,-36.0,7.003
-84.0,-38.0,7.004
-61.0,-20.0,7.005
-57.0,-5.0,7.006
-44.0,3.0,7.007
-10.0,10.0,7.008
20.0,9.0,7.009
30.0,9.0,7.01
44.0,14.0,7.011
94.0,18.0,7.012
165.0,15.0,7.013
228.0,11.0,7.014
276.0,7.0,7.015
320.0,4.0,7.016
355.0,8.0,7.017
364.0,10.0,7.018
350.0,8.0,7.019
324.0,7.0,7.02
292.0,4.0,7.021
253.0,-5.0,7.022
214.0,-14.0,7.023
184.0,-14.0,7.024
157.0,-5.0,7.025
120.0,2.0,7.026
81.0,5.0,7.027
63.0,8.0,7.028
78.0,12.0,7.029
121.0,9.0,7.03
181.0,-7.0,7.031
238.0,-27.0,7.032
279.0,-53.0,7.033
297.0,-89.0,7.034
292.0,-121.0,7.035
239.0,-116.0,7.036
125.0,-69.0,7.037
-24.0,-19.0,7.038
-118.0,2.0,7.039
-115.0,16.0,7.04
-72.0,6.0,7.041
-56.0,-3.0,7.042
-59.0,-7.0,7.043
-47.0,-7.0,7.044
-34.0,3.0,7.045
-54.0,9.0,7.046
-94.0,0.0,7.047
-118.0,-7.0,7.048
-133.0,2.0,7.049
-158.0,10.0,7.05
-172.0,10.0,7.051
-134.0,10.0,7.052
-32.0,11.0,7.053
91.0,10.0,7.054
183.0,2.0,7.055
202.0,-6.0,7.056
145.0,-14.0,7.057
27.0,-19.0,7.058
-111.0,-12.0,7.059
-245.0,3.0,7.06
-352.0,32.0,7.061
-394.0,63.0,7.062
-344.0,66.0,7.063
-238.0,42.0,7.064
-146.0,29.0,7.065
-91.0,37.0,7.066
-41.0,41.0,7.067
14.0,18.0,7.068
45.0,-12.0,7.069
34.0,-24.0,7.07
3.0,-23.0,7.071
-20.0,-30.0,7.072
-43.0,-38.0,7.073
-71.0,-30.0,7.074
-76.0,-15.0,7.075
-43.0,-10.0,7.076
-2.0,-17.0,7.077
10.0,-15.0,7.078
-5.0,0.0,7.079
-14.0,13.0,7.08
-4.0,11.0,7.081
8.0,2.0,7.082
17.0,-8.0,7.083
25.0,-16.0,7.084
25.0,-16.0,7.085
12.0,-7.0,7.086
-1.0,-2.0,7.087
3.0,-8.0,7.088
15.0,-16.0,7.089
12.0,-12.0,7.09
-3.0,-3.0,7.091
-12.0,-2.0,7.092
-16.0,-6.0,7.093
-25.0,-6.0,7.094
-40.0,0.0,7.095
-52.0,4.0,7.096
-59.0,8.0,7.097
-67.0,9.0,7.098
-71.0,11.0,7.099
-62.0,10.0,7.1
-40.0,1.0,7.101
-19.0,-8.0,7.102
-5.0,-16.0,7.103
-2.0,-18.0,7.104
-8.0,-12.0,7.105
-18.0,-6.0,7.106
-17.0,-7.0,7.107
-15.0,-14.0,7.108
-24.0,-11.0,7.109
-49.0,13.0,7.11
-59.0,47.0,7.111
-36.0,63.0,7.112
4.0,45.0,7.113
37.0,7.0,7.114
52.0,-19.0,7.115
48.0,-22.0,7.116
31.0,-18.0,7.117
10.0,-37.0,7.118
-2.0,-65.0,7.119
-2.0,-68.0,7.12
-3.0,-38.0,7.121
-9.0,14.0,7.122
-4.0,69.0,7.123
10.0,111.0,7.124
17.0,116.0,7.125
12.0,81.0,7.126
15.0,55.0,7.127
38.0,89.0,7.128
59.0,147.0,7.129
53.0,137.0,7.13
31.0,38.0,7.131
14.0,-51.0,7.132
1.0,-63.0,7.133
-7.0,-47.0,7.134
-11.0,-68.0,7.135
-8.0,-94.0,7.136
-6.0,-71.0,7.137
-14.0,-36.0,7.138
-21.0,-54.0,7.139
-22.0,-90.0,7.14
-17.0,-17.0,7.141
-4.0,202.0,7.142
29.0,413.0,7.143
74.0,422.0,7.144
96.0,188.0,7.145
76.0,-151.0,7.146
32.0,-409.0,7.147
-4.0,-490.0,7.148
-21.0,-414.0,7.149
-21.0,-251.0,7.15
-11.0,-62.0,7.151
0.0,71.0,7.152
5.0,72.0,7.153
8.0,-43.0,7.154
20.0,-143.0,7.155
36.0,-136.0,7.156
43.0,-84.0,7.157
35.0,-79.0,7.158
33.0,-104.0,7.159
42.0,-64.0,7.16
52.0,86.0,7.161
53.0,302.0,7.162
49.0,493.0,7.163
37.0,559.0,7.164
13.0,445.0,7.165
-12.0,245.0,7.166
-17.0,155.0,7.167
0.0,279.0,7.168
15.0,513.0,7.169
11.0,642.0,7.17
-4.0,499.0,7.171
-17.0,93.0,7.172
-35.0,-361.0,7.173
-62.0,-597.0,7.174
-92.0,-593.0,7.175
-103.0,-591.0,7.176
-87.0,-725.0,7.177
-49.0,-809.0,7.178
-15.0,-564.0,7.179
5.0,-86.0,7.18
16.0,213.0,7.181
23.0,143.0,7.182
23.0,-79.0,7.183
13.0,-188.0,7.184
2.0,-178.0,7.185
4.0,-151.0,7.186
12.0,-100.0,7.187
10.0,1.0,7.188
0.0,55.0,7.189
-3.0,-19.0,7.19
5.0,-135.0,7.191
17.0,-169.0,7.192
26.0,-122.0,7.193
34.0,-29.0,7.194
35.0,174.0,7.195
24.0,482.0,7.196
10.0,672.0,7.197
1.0,527.0,7.198
9.0,118.0,7.199
21.0,-265.0,7.2
31.0,-482.0,7.201
39.0,-615.0,7.202
47.0,-718.0,7.203
49.0,-712.0,7.204
34.0,-580.0,7.205
1.0,-439.0,7.206
-34.0,-346.0,7.207
-53.0,-228.0,7.208
-51.0,-29.0,7.209
-35.0,205.0,7.21
-12.0,436.0,7.211
15.0,687.0,7.212
42.0,941.0,7.213
60.0,1111.0,7.214
66.0,1153.0,7.215
61.0,1104.0,7.216
53.0,1016.0,7.217
41.0,868.0,7.218
27.0,688.0,7.219
6.0,502.0,7.22
-22.0,273.0,7.221
-51.0,-62.0,7.222
-72.0,-443.0,7.223
-85.0,-692.0,7.224
-96.0,-725.0,7.225
-105.0,-629.0,7.226
-104.0,-505.0,7.227
-94.0,-383.0,7.228
-80.0,-285.0,7.229
-60.0,-250.0,7.23
-32.0,-240.0,7.231
1.0,-162.0,7.232
24.0,-37.0,7.233
24.0,-2.0,7.234
18.0,-105.0,7.235
22.0,-235.0,7.236
31.0,-289.0,7.237
33.0,-284.0,7.238
24.0,-219.0,7.239
13.0,-72.0,7.24
14.0,318.0,7.241
28.0,618.0,7.242
52.0,642.0,7.243
62.0,574.0,7.244
46.0,228.0,7.245
20.0,-61.0,7.246
19.0,-179.0,7.247
47.0,-298.0,7.248
63.0,-414.0,7.249
39.0,-502.0,7.25
2.0,-504.0,7.251
-10.0,-515.0,7.252
5.0,-553.0,7.253
28.0,-551.0,7.254
38.0,-425.0,7.255
35.0,-309.0,7.256
29.0,-221.0,7.257
32.0,-112.0,7.258
51.0,116.0,7.259
72.0,375.0,7.26
74.0,490.0,7.261
61.0,461.0,7.262
49.0,417.0,7.263
35.0,413.0,7.264
14.0,384.0,7.265
-4.0,313.0,7.266
-7.0,270.0,7.267
-4.0,282.0,7.268
-18.0,269.0,7.269
-42.0,179.0,7.27
-53.0,72.0,7.271
-54.0,28.0,7.272
-59.0,41.0,7.273
-65.0,44.0,7.274
-62.0,25.0,7.275
-49.0,28.0,7.276
-44.0,77.0,7.277
-51.0,121.0,7.278
-52.0,93.0,7.279
-49.0,-18.0,7.28
-43.0,-140.0,7.281
-27.0,-194.0,7.282
12.0,-189.0,7.283
54.0,-204.0,7.284
58.0,-285.0,7.285
18.0,-383.0,7.286
-20.0,-411.0,7.287
-21.0,-335.0,7.288
3.0,-199.0,7.289
17.0,-69.0,7.29
7.0,16.0,7.291
-7.0,60.0,7.292
-10.0,92.0,7.293
-7.0,142.0,7.294
-10.0,203.0,7.295
-19.0,249.0,7.296
-21.0,260.0,7.297
-12.0,249.0,7.298
0.0,244.0,7.299
1.0,248.0,7.3
-4.0,236.0,7.301
-4.0,196.0,7.302
9.0,145.0,7.303
28.0,101.0,7.304
43.0,42.0,7.305
53.0,-61.0,7.306
56.0,-195.0,7.307
47.0,-302.0,7.308
32.0,-350.0,7.309
25.0,-350.0,7.31
35.0,-317.0,7.311
52.0,-247.0,7.312
59.0,-154.0,7.313
55.0,-84.0,7.314
45.0,-50.0,7.315
32.0,-28.0,7.316
20.0,-11.0,7.317
4.0,-31.0,7.318
-12.0,-79.0,7.319
-32.0,-84.0,7.32
-46.0,3.0,7.321
-32.0,124.0,7.322
11.0,186.0,7.323
45.0,184.0,7.324
30.0,179.0,7.325
-13.0,192.0,7.326
-34.0,185.0,7.327
