Deltoid,Bicep,Time
10,-7,0.0
12,-2,0.001
6,4,0.002
2,5,0.003
3,-1,0.004
4,-5,0.005
4,-1,0.006
5,2,0.007
7,0,0.008
6,-2,0.009
1,-1,0.01
-2,3,0.011
-1,2,0.012
1,0,0.013
0,-2,0.014
-1,-3,0.015
-3,-2,0.016
-6,-5,0.017
-4,-3,0.018
4,-2,0.019
14,-4,0.02
14,-3,0.021
5,1,0.022
0,3,0.023
2,1,0.024
3,-1,0.025
3,0,0.026
3,0,0.027
3,-2,0.028
1,-2,0.029
-4,0,0.03
-5,0,0.031
-4,0,0.032
0,1,0.033
0,0,0.034
-1,-2,0.035
-5,-5,0.036
-9,-5,0.037
-10,-3,0.038
-4,-3,0.039
4,-3,0.04
10,0,0.041
6,5,0.042
1,1,0.043
1,-2,0.044
3,0,0.045
2,3,0.046
0,0,0.047
3,-5,0.048
6,-2,0.049
5,5,0.05
2,5,0.051
0,-2,0.052
0,-7,0.053
0,-6,0.054
0,-4,0.055
-1,-3,0.056
-2,-4,0.057
-4,-5,0.058
-1,-6,0.059
7,-6,0.06
12,-3,0.061
8,0,0.062
3,1,0.063
4,-2,0.064
6,-2,0.065
3,2,0.066
-1,4,0.067
0,1,0.068
2,-1,0.069
2,0,0.07
0,2,0.071
2,0,0.072
5,1,0.073
0,1,0.074
-3,-1,0.075
-6,-5,0.076
-8,-9,0.077
-9,-4,0.078
-3,1,0.079
7,2,0.08
15,1,0.081
12,1,0.082
4,0,0.083
3,-2,0.084
6,-2,0.085
7,2,0.086
8,2,0.087
8,-2,0.088
5,-2,0.089
0,2,0.09
1,5,0.091
7,3,0.092
9,1,0.093
1,1,0.094
-4,1,0.095
-5,-1,0.096
-3,-6,0.097
-2,-5,0.098
1,-1,0.099
9,-2,0.1
12,-3,0.101
5,0,0.102
0,0,0.103
3,-2,0.104
6,-3,0.105
2,-1,0.106
-3,2,0.107
-4,2,0.108
-2,-1,0.109
0,-2,0.11
2,0,0.111
4,0,0.112
4,-1,0.113
0,-2,0.114
-3,-1,0.115
-4,-1,0.116
-7,-5,0.117
-8,-6,0.118
-1,-4,0.119
7,-3,0.12
9,-4,0.121
1,-2,0.122
0,3,0.123
4,3,0.124
4,1,0.125
0,-1,0.126
0,0,0.127
8,0,0.128
10,-2,0.129
3,0,0.13
-4,3,0.131
-2,2,0.132
3,2,0.133
5,1,0.134
2,2,0.135
-1,0,0.136
-3,-5,0.137
-3,-4,0.138
0,0,0.139
7,1,0.14
7,0,0.141
3,3,0.142
0,7,0.143
3,5,0.144
5,0,0.145
4,-4,0.146
2,-2,0.147
3,-2,0.148
2,-3,0.149
0,-1,0.15
1,4,0.151
6,3,0.152
11,1,0.153
7,-1,0.154
2,0,0.155
-3,1,0.156
-4,-3,0.157
-3,-4,0.158
2,-2,0.159
9,-2,0.16
9,-2,0.161
1,0,0.162
-2,0,0.163
2,-2,0.164
8,-5,0.165
7,-5,0.166
2,-1,0.167
1,-1,0.168
1,-4,0.169
0,-4,0.17
0,0,0.171
1,0,0.172
3,0,0.173
1,0,0.174
0,0,0.175
0,-4,0.176
-3,-10,0.177
-5,-7,0.178
0,1,0.179
12,5,0.18
16,1,0.181
10,-1,0.182
8,-3,0.183
16,-3,0.184
21,-1,0.185
17,2,0.186
9,6,0.187
7,5,0.188
4,0,0.189
-1,-2,0.19
-4,-3,0.191
-3,-2,0.192
-1,0,0.193
-3,-1,0.194
-6,-3,0.195
-10,-4,0.196
-12,-5,0.197
-11,-3,0.198
-5,-2,0.199
0,-1,0.2
-1,2,0.201
-3,5,0.202
-1,4,0.203
3,0,0.204
3,-1,0.205
-1,1,0.206
-2,1,0.207
2,-2,0.208
5,-5,0.209
2,-2,0.21
0,1,0.211
2,2,0.212
4,1,0.213
2,-2,0.214
0,-2,0.215
-2,0,0.216
-5,-3,0.217
-5,-4,0.218
2,-3,0.219
11,0,0.22
13,4,0.221
7,5,0.222
2,3,0.223
5,0,0.224
9,-1,0.225
7,1,0.226
5,2,0.227
4,1,0.228
5,0,0.229
3,-1,0.23
2,-2,0.231
2,-3,0.232
3,-1,0.233
2,-2,0.234
1,-2,0.235
-2,-1,0.236
-4,-4,0.237
-6,-5,0.238
-1,-7,0.239
6,-6,0.24
7,-2,0.241
3,2,0.242
1,3,0.243
6,0,0.244
9,-1,0.245
6,1,0.246
0,5,0.247
0,6,0.248
2,3,0.249
1,-1,0.25
-2,-1,0.251
-1,1,0.252
3,3,0.253
4,0,0.254
1,-1,0.255
-3,0,0.256
-5,-2,0.257
-3,-4,0.258
3,-6,0.259
11,-4,0.26
12,-2,0.261
7,0,0.262
2,0,0.263
2,0,0.264
1,-2,0.265
1,-3,0.266
2,-1,0.267
4,-1,0.268
4,-2,0.269
0,-1,0.27
-1,1,0.271
2,1,0.272
6,0,0.273
5,-2,0.274
2,-1,0.275
-1,0,0.276
-5,-4,0.277
-7,-7,0.278
-2,-6,0.279
6,-3,0.28
8,-2,0.281
1,0,0.282
-2,2,0.283
1,3,0.284
4,1,0.285
3,0,0.286
2,-1,0.287
2,0,0.288
2,-2,0.289
1,-3,0.29
2,-3,0.291
3,-1,0.292
3,0,0.293
-1,-1,0.294
-2,-1,0.295
-1,-1,0.296
-1,-4,0.297
-4,-3,0.298
0,-3,0.299
6,-2,0.3
8,-3,0.301
3,-1,0.302
-1,0,0.303
1,-1,0.304
4,-3,0.305
4,0,0.306
2,3,0.307
2,3,0.308
2,0,0.309
2,1,0.31
4,3,0.311
6,1,0.312
5,-2,0.313
0,-4,0.314
-2,-2,0.315
-2,0,0.316
-2,-4,0.317
0,-4,0.318
4,-1,0.319
8,-2,0.32
7,-3,0.321
4,-2,0.322
4,1,0.323
6,-1,0.324
4,-5,0.325
2,-3,0.326
3,2,0.327
8,3,0.328
10,-2,0.329
11,-3,0.33
11,1,0.331
8,5,0.332
5,5,0.333
1,2,0.334
1,1,0.335
-1,0,0.336
-7,-4,0.337
-11,-6,0.338
-6,-2,0.339
2,0,0.34
4,1,0.341
-1,1,0.342
-2,1,0.343
0,-1,0.344
-1,-2,0.345
-4,-3,0.346
-3,-3,0.347
2,-3,0.348
3,-2,0.349
0,1,0.35
1,2,0.351
6,0,0.352
7,-1,0.353
-1,-2,0.354
-5,-1,0.355
-4,0,0.356
-3,-2,0.357
-2,-3,0.358
2,-4,0.359
10,-2,0.36
11,2,0.361
2,3,0.362
-1,1,0.363
4,-2,0.364
10,-2,0.365
8,0,0.366
5,1,0.367
5,0,0.368
3,-1,0.369
-1,-1,0.37
-1,-3,0.371
3,-3,0.372
7,2,0.373
3,3,0.374
-1,2,0.375
-4,-1,0.376
-6,-6,0.377
-9,-6,0.378
-3,-5,0.379
7,-3,0.38
11,0,0.381
5,0,0.382
0,-1,0.383
3,-3,0.384
9,-2,0.385
8,0,0.386
4,0,0.387
3,0,0.388
5,0,0.389
6,2,0.39
4,2,0.391
4,2,0.392
4,2,0.393
2,2,0.394
-1,0,0.395
-4,-3,0.396
-4,-8,0.397
-3,-6,0.398
0,-1,0.399
2,2,0.4
4,2,0.401
2,2,0.402
2,1,0.403
4,0,0.404
5,0,0.405
5,4,0.406
5,4,0.407
5,1,0.408
5,-2,0.409
5,0,0.41
6,2,0.411
6,2,0.412
7,0,0.413
4,-3,0.414
0,-4,0.415
-5,-5,0.416
-9,-8,0.417
-10,-7,0.418
-4,-3,0.419
2,0,0.42
4,0,0.421
0,2,0.422
-1,3,0.423
-1,1,0.424
-2,-1,0.425
-4,-1,0.426
-2,0,0.427
1,0,0.428
2,-3,0.429
0,-3,0.43
2,-1,0.431
4,0,0.432
7,0,0.433
6,-3,0.434
4,-3,0.435
1,-3,0.436
-2,-4,0.437
-3,-4,0.438
0,-5,0.439
4,-3,0.44
3,1,0.441
1,5,0.442
4,6,0.443
11,4,0.444
14,2,0.445
10,3,0.446
9,4,0.447
10,2,0.448
6,1,0.449
0,0,0.45
-1,0,0.451
3,-2,0.452
8,-1,0.453
6,-1,0.454
1,-2,0.455
-2,-5,0.456
-3,-9,0.457
-3,-4,0.458
0,0,0.459
5,1,0.46
7,0,0.461
3,-1,0.462
0,-1,0.463
0,-1,0.464
0,0,0.465
-1,1,0.466
0,0,0.467
2,0,0.468
1,-1,0.469
-3,-1,0.47
-3,-3,0.471
-2,-3,0.472
-3,-1,0.473
-10,-1,0.474
-13,-4,0.475
-9,-6,0.476
-8,-9,0.477
-8,-8,0.478
-1,-7,0.479
13,-4,0.48
23,0,0.481
22,3,0.482
19,5,0.483
22,5,0.484
25,3,0.485
20,2,0.486
9,2,0.487
4,1,0.488
2,-1,0.489
0,-1,0.49
-3,1,0.491
-4,4,0.492
-3,3,0.493
-5,-1,0.494
-7,-2,0.495
-10,-1,0.496
-14,-2,0.497
-16,-4,0.498
-10,-5,0.499
0,-2,0.5
2,0,0.501
-4,2,0.502
-5,1,0.503
2,1,0.504
5,0,0.505
0,0,0.506
-3,-1,0.507
0,-2,0.508
4,-1,0.509
2,1,0.51
0,2,0.511
3,1,0.512
6,2,0.513
5,0,0.514
1,-2,0.515
-1,-5,0.516
-4,-8,0.517
-6,-8,0.518
0,-6,0.519
12,-3,0.52
16,0,0.521
4,1,0.522
-5,2,0.523
-4,2,0.524
1,3,0.525
2,2,0.526
0,1,0.527
0,0,0.528
2,1,0.529
5,3,0.53
10,1,0.531
13,0,0.532
15,0,0.533
12,-1,0.534
10,-2,0.535
8,-2,0.536
6,-5,0.537
5,-7,0.538
11,-8,0.539
14,-6,0.54
6,0,0.541
0,2,0.542
0,0,0.543
1,0,0.544
1,2,0.545
0,4,0.546
-1,1,0.547
-4,-2,0.548
-2,-1,0.549
-1,2,0.55
-1,3,0.551
0,-1,0.552
0,-2,0.553
1,-2,0.554
-2,-2,0.555
-9,-4,0.556
-14,-8,0.557
-13,-7,0.558
-5,-4,0.559
5,-2,0.56
7,-2,0.561
2,-1,0.562
2,-2,0.563
8,-4,0.564
7,-7,0.565
2,-4,0.566
0,3,0.567
2,6,0.568
5,2,0.569
6,-2,0.57
6,0,0.571
4,4,0.572
3,4,0.573
1,-1,0.574
2,-3,0.575
0,-3,0.576
-4,-6,0.577
-4,-8,0.578
1,-7,0.579
5,0,0.58
4,4,0.581
0,3,0.582
2,-2,0.583
6,-3,0.584
3,-2,0.585
-1,0,0.586
0,1,0.587
5,1,0.588
6,1,0.589
4,2,0.59
4,3,0.591
6,1,0.592
8,1,0.593
4,0,0.594
0,1,0.595
-5,-1,0.596
-7,-6,0.597
-3,-6,0.598
3,-2,0.599
6,2,0.6
1,3,0.601
-6,2,0.602
-10,0,0.603
-10,-2,0.604
-9,-3,0.605
-11,0,0.606
-13,2,0.607
-11,0,0.608
-6,-2,0.609
-2,-1,0.61
7,0,0.611
24,-2,0.612
44,-6,0.613
56,-10,0.614
52,-9,0.615
34,-7,0.616
17,-8,0.617
10,-8,0.618
14,-7,0.619
18,-4,0.62
13,0,0.621
4,-1,0.622
-4,-1,0.623
-6,0,0.624
-8,3,0.625
-12,5,0.626
-14,4,0.627
-15,3,0.628
-13,5,0.629
-12,9,0.63
-10,9,0.631
-9,7,0.632
-5,6,0.633
-8,5,0.634
-9,4,0.635
-11,3,0.636
-10,1,0.637
-8,2,0.638
-3,2,0.639
2,1,0.64
1,2,0.641
-3,4,0.642
-4,1,0.643
0,-2,0.644
3,-3,0.645
2,0,0.646
-3,5,0.647
-3,2,0.648
0,-1,0.649
1,-3,0.65
0,-3,0.651
3,-1,0.652
8,1,0.653
7,1,0.654
2,-3,0.655
-2,-7,0.656
0,-7,0.657
2,-7,0.658
8,-5,0.659
14,-4,0.66
13,-2,0.661
12,-1,0.662
13,-1,0.663
15,-1,0.664
15,0,0.665
15,1,0.666
12,0,0.667
9,-2,0.668
7,-2,0.669
6,-2,0.67
5,-3,0.671
4,-5,0.672
5,-3,0.673
7,-3,0.674
5,-5,0.675
1,-6,0.676
-2,-6,0.677
-3,-5,0.678
-2,-7,0.679
2,-6,0.68
1,1,0.681
-3,5,0.682
-4,1,0.683
1,-5,0.684
5,-4,0.685
1,1,0.686
-4,4,0.687
-4,2,0.688
-1,0,0.689
2,0,0.69
1,1,0.691
1,0,0.692
2,0,0.693
-2,-1,0.694
-6,-2,0.695
-9,0,0.696
-7,0,0.697
-6,0,0.698
-3,-2,0.699
1,-1,0.7
4,3,0.701
0,7,0.702
-4,4,0.703
-2,1,0.704
3,-1,0.705
7,-1,0.706
7,-2,0.707
7,-2,0.708
8,-1,0.709
5,-4,0.71
1,-8,0.711
0,-8,0.712
0,-3,0.713
0,1,0.714
0,1,0.715
-4,-1,0.716
-5,-5,0.717
-5,-7,0.718
1,-4,0.719
8,-1,0.72
7,2,0.721
-1,4,0.722
-4,3,0.723
3,0,0.724
10,-1,0.725
7,-1,0.726
1,-1,0.727
1,-2,0.728
4,-1,0.729
5,3,0.73
5,6,0.731
8,4,0.732
11,0,0.733
9,-3,0.734
4,-2,0.735
0,-2,0.736
-1,-6,0.737
0,-8,0.738
2,-9,0.739
6,-6,0.74
5,-3,0.741
1,2,0.742
0,3,0.743
5,1,0.744
10,0,0.745
8,3,0.746
1,5,0.747
-2,2,0.748
-2,-1,0.749
0,-1,0.75
1,-1,0.751
3,-3,0.752
3,-1,0.753
4,-1,0.754
2,-1,0.755
-2,-4,0.756
-7,-8,0.757
-9,-8,0.758
-3,-5,0.759
5,-3,0.76
8,0,0.761
4,5,0.762
0,8,0.763
1,6,0.764
5,0,0.765
6,-1,0.766
9,-1,0.767
10,0,0.768
7,2,0.769
2,5,0.77
-1,4,0.771
0,1,0.772
4,0,0.773
4,-1,0.774
2,-1,0.775
-2,-1,0.776
-5,-1,0.777
-4,0,0.778
2,0,0.779
8,-1,0.78
7,-1,0.781
1,2,0.782
-1,1,0.783
1,-3,0.784
4,-4,0.785
2,0,0.786
-1,3,0.787
0,-1,0.788
2,-2,0.789
1,1,0.79
0,2,0.791
5,-1,0.792
10,-4,0.793
11,-3,0.794
6,0,0.795
0,-3,0.796
-3,-10,0.797
-4,-8,0.798
-2,-2,0.799
3,1,0.8
6,3,0.801
4,2,0.802
3,0,0.803
5,0,0.804
4,0,0.805
0,2,0.806
-2,1,0.807
1,0,0.808
4,-1,0.809
5,0,0.81
4,0,0.811
5,-2,0.812
6,-2,0.813
5,-4,0.814
2,-2,0.815
-1,-3,0.816
-5,-6,0.817
-8,-5,0.818
-3,-3,0.819
2,0,0.82
4,1,0.821
0,1,0.822
0,1,0.823
3,0,0.824
5,0,0.825
2,1,0.826
2,4,0.827
4,4,0.828
6,6,0.829
1,6,0.83
-2,4,0.831
0,0,0.832
4,0,0.833
3,0,0.834
2,2,0.835
-2,1,0.836
-6,-3,0.837
-6,-5,0.838
1,-5,0.839
9,-3,0.84
9,0,0.841
0,1,0.842
0,-1,0.843
3,-2,0.844
4,-2,0.845
0,0,0.846
0,-1,0.847
3,-2,0.848
3,0,0.849
0,0,0.85
-1,-1,0.851
3,-2,0.852
9,0,0.853
8,-1,0.854
5,-3,0.855
0,-3,0.856
-1,-5,0.857
-2,-4,0.858
2,-4,0.859
8,-3,0.86
9,-1,0.861
4,-1,0.862
1,0,0.863
0,0,0.864
-2,1,0.865
-4,2,0.866
-3,1,0.867
0,2,0.868
3,3,0.869
4,0,0.87
4,-3,0.871
0,-2,0.872
-2,0,0.873
-4,0,0.874
-3,-5,0.875
-3,-7,0.876
-4,-6,0.877
-1,-3,0.878
9,-2,0.879
18,-3,0.88
17,-1,0.881
7,1,0.882
2,2,0.883
6,0,0.884
5,0,0.885
1,1,0.886
-4,2,0.887
-4,0,0.888
-4,0,0.889
-5,3,0.89
-5,5,0.891
-1,4,0.892
3,1,0.893
7,-4,0.894
12,-7,0.895
12,-6,0.896
8,-7,0.897
3,-6,0.898
7,-5,0.899
10,-2,0.9
6,4,0.901
-2,6,0.902
-3,2,0.903
2,-2,0.904
4,-2,0.905
0,0,0.906
-2,0,0.907
0,0,0.908
1,0,0.909
1,3,0.91
2,2,0.911
3,1,0.912
2,2,0.913
-1,1,0.914
-2,-3,0.915
-3,-6,0.916
-5,-8,0.917
-6,-5,0.918
-2,-3,0.919
6,-1,0.92
9,0,0.921
3,2,0.922
-2,0,0.923
2,-3,0.924
6,-5,0.925
4,-3,0.926
0,0,0.927
0,2,0.928
2,1,0.929
1,0,0.93
0,0,0.931
2,1,0.932
5,3,0.933
5,0,0.934
1,-3,0.935
-1,-2,0.936
-2,-4,0.937
0,-5,0.938
4,-5,0.939
10,-3,0.94
10,3,0.941
3,7,0.942
-1,4,0.943
1,-1,0.944
6,-5,0.945
6,-2,0.946
3,2,0.947
4,3,0.948
5,1,0.949
2,0,0.95
0,-1,0.951
0,-2,0.952
1,-1,0.953
-2,0,0.954
-3,2,0.955
-3,2,0.956
-2,-3,0.957
-2,-8,0.958
2,-8,0.959
10,-5,0.96
12,0,0.961
5,4,0.962
-1,5,0.963
-3,3,0.964
-2,4,0.965
-3,5,0.966
-1,2,0.967
5,-1,0.968
7,-2,0.969
3,0,0.97
3,0,0.971
11,-3,0.972
16,-2,0.973
12,-1,0.974
6,-4,0.975
3,-8,0.976
1,-9,0.977
0,-5,0.978
2,-1,0.979
7,0,0.98
4,-1,0.981
-3,0,0.982
-5,1,0.983
2,0,0.984
8,0,0.985
5,3,0.986
0,6,0.987
1,3,0.988
2,0,0.989
2,-1,0.99
3,-1,0.991
7,-1,0.992
8,0,0.993
5,-2,0.994
2,-3,0.995
-1,-3,0.996
-4,-5,0.997
-7,-5,0.998
-5,-5,0.999
2,-4,1.0
5,0,1.001
2,3,1.002
0,3,1.003
1,0,1.004
1,-1,1.005
-1,2,1.006
0,6,1.007
4,5,1.008
6,2,1.009
6,2,1.01
4,4,1.011
1,3,1.012
-1,0,1.013
-3,-3,1.014
-2,-4,1.015
-3,-5,1.016
-4,-11,1.017
-4,-11,1.018
1,-7,1.019
10,-3,1.02
12,1,1.021
7,2,1.022
5,-1,1.023
6,-5,1.024
6,-6,1.025
4,-1,1.026
0,4,1.027
-2,4,1.028
-3,2,1.029
-1,3,1.03
2,5,1.031
4,3,1.032
4,0,1.033
2,-3,1.034
2,-1,1.035
-1,1,1.036
-4,-4,1.037
-4,-9,1.038
0,-7,1.039
5,-2,1.04
5,2,1.041
1,4,1.042
4,2,1.043
9,-2,1.044
7,-2,1.045
3,0,1.046
2,2,1.047
5,0,1.048
2,-3,1.049
-2,-3,1.05
-1,0,1.051
4,2,1.052
5,4,1.053
2,0,1.054
1,0,1.055
3,-1,1.056
1,-4,1.057
-3,-5,1.058
-3,-4,1.059
3,-3,1.06
9,-1,1.061
7,1,1.062
3,1,1.063
3,-2,1.064
4,-3,1.065
2,-1,1.066
0,2,1.067
-1,3,1.068
1,3,1.069
3,3,1.07
4,5,1.071
3,6,1.072
0,5,1.073
-2,0,1.074
-2,-5,1.075
-2,-7,1.076
-5,-8,1.077
-6,-5,1.078
1,-5,1.079
9,-6,1.08
10,-3,1.081
3,1,1.082
0,3,1.083
2,1,1.084
3,1,1.085
0,3,1.086
0,3,1.087
5,-2,1.088
9,-4,1.089
6,0,1.09
3,3,1.091
3,0,1.092
3,-4,1.093
-1,-2,1.094
-2,0,1.095
-3,0,1.096
-3,-3,1.097
-5,-3,1.098
-1,-1,1.099
9,0,1.1
14,2,1.101
8,5,1.102
2,2,1.103
7,-4,1.104
12,-7,1.105
7,-3,1.106
0,1,1.107
-1,0,1.108
5,-2,1.109
4,-2,1.11
0,-1,1.111
-1,-3,1.112
5,-5,1.113
6,-8,1.114
2,-6,1.115
-2,-5,1.116
-4,-7,1.117
-2,-7,1.118
1,-6,1.119
7,-4,1.12
7,-1,1.121
2,4,1.122
1,4,1.123
5,-1,1.124
6,-3,1.125
2,0,1.126
-1,1,1.127
2,-2,1.128
5,-4,1.129
1,0,1.13
-2,2,1.131
1,0,1.132
7,0,1.133
6,3,1.134
1,4,1.135
-3,-1,1.136
-6,-7,1.137
-7,-6,1.138
-1,-4,1.139
8,-4,1.14
8,-1,1.141
1,7,1.142
-1,8,1.143
5,1,1.144
9,-2,1.145
5,2,1.146
0,4,1.147
-1,-1,1.148
1,-6,1.149
3,-5,1.15
2,-1,1.151
3,-2,1.152
3,-1,1.153
3,0,1.154
4,0,1.155
1,-1,1.156
-3,-5,1.157
-6,-3,1.158
0,-3,1.159
9,-2,1.16
9,-1,1.161
5,3,1.162
6,3,1.163
8,2,1.164
5,1,1.165
-1,3,1.166
-2,2,1.167
4,-1,1.168
6,-1,1.169
3,1,1.17
2,2,1.171
4,2,1.172
4,4,1.173
0,3,1.174
-2,0,1.175
-2,-3,1.176
-4,-7,1.177
-7,-5,1.178
-1,-3,1.179
9,-3,1.18
10,-2,1.181
0,0,1.182
-3,1,1.183
1,0,1.184
3,1,1.185
-2,3,1.186
-4,4,1.187
1,2,1.188
5,1,1.189
2,2,1.19
-1,3,1.191
1,1,1.192
5,1,1.193
2,0,1.194
-1,-2,1.195
-3,-4,1.196
-2,-5,1.197
-2,-2,1.198
1,-1,1.199
6,-2,1.2
7,-5,1.201
5,-4,1.202
7,-4,1.203
12,-5,1.204
13,-4,1.205
5,-2,1.206
2,-1,1.207
4,-3,1.208
6,-3,1.209
4,0,1.21
3,2,1.211
4,0,1.212
4,0,1.213
0,-1,1.214
0,0,1.215
-2,-1,1.216
-6,-6,1.217
-8,-5,1.218
-1,-3,1.219
9,-1,1.22
8,-2,1.221
0,-1,1.222
-3,1,1.223
2,0,1.224
5,0,1.225
3,0,1.226
2,2,1.227
5,3,1.228
8,-1,1.229
7,-1,1.23
3,2,1.231
3,3,1.232
5,3,1.233
6,0,1.234
3,-2,1.235
-2,-2,1.236
-6,-6,1.237
-7,-7,1.238
-3,-5,1.239
2,-3,1.24
2,-2,1.241
0,-1,1.242
-1,0,1.243
0,0,1.244
1,-2,1.245
0,-3,1.246
-1,-2,1.247
0,0,1.248
0,1,1.249
1,1,1.25
3,2,1.251
5,1,1.252
7,0,1.253
3,-2,1.254
0,-5,1.255
-3,-4,1.256
-7,-5,1.257
-8,-5,1.258
-1,-5,1.259
7,-4,1.26
10,-2,1.261
5,1,1.262
5,3,1.263
7,1,1.264
8,-1,1.265
9,0,1.266
9,3,1.267
9,2,1.268
4,0,1.269
0,0,1.27
0,0,1.271
3,2,1.272
7,4,1.273
5,5,1.274
0,3,1.275
-7,-3,1.276
-11,-9,1.277
-9,-9,1.278
-4,-3,1.279
0,0,1.28
1,1,1.281
0,2,1.282
2,2,1.283
5,-1,1.284
4,0,1.285
-2,5,1.286
-4,6,1.287
-2,0,1.288
4,-4,1.289
9,-2,1.29
11,1,1.291
13,3,1.292
11,2,1.293
9,1,1.294
10,-1,1.295
12,-4,1.296
15,-8,1.297
13,-6,1.298
12,-5,1.299
11,-3,1.3
9,1,1.301
2,7,1.302
-1,7,1.303
3,1,1.304
7,-2,1.305
1,0,1.306
-5,0,1.307
-3,-2,1.308
2,-4,1.309
1,-2,1.31
-5,2,1.311
-7,2,1.312
-1,-1,1.313
0,-4,1.314
-6,-4,1.315
-15,-3,1.316
-17,-6,1.317
-11,-8,1.318
-1,-9,1.319
-2,-6,1.32
-19,0,1.321
-52,4,1.322
-79,0,1.323
-80,-4,1.324
-55,-4,1.325
-20,0,1.326
13,3,1.327
40,1,1.328
62,0,1.329
79,2,1.33
88,4,1.331
91,3,1.332
93,3,1.333
89,2,1.334
79,2,1.335
57,0,1.336
31,-4,1.337
10,-4,1.338
0,-3,1.339
-5,-3,1.34
-12,-2,1.341
-20,2,1.342
-29,3,1.343
-35,2,1.344
-38,0,1.345
-41,1,1.346
-47,0,1.347
-55,-3,1.348
-63,-4,1.349
-61,0,1.35
-46,2,1.351
-21,-1,1.352
-1,-2,1.353
14,0,1.354
25,5,1.355
31,3,1.356
29,-3,1.357
23,-4,1.358
21,-3,1.359
22,-1,1.36
15,1,1.361
-3,3,1.362
-7,2,1.363
3,0,1.364
9,0,1.365
-3,0,1.366
-12,2,1.367
-1,0,1.368
13,-2,1.369
10,-3,1.37
3,-4,1.371
8,-5,1.372
16,-3,1.373
14,-3,1.374
8,-4,1.375
8,-6,1.376
11,-10,1.377
8,-11,1.378
10,-9,1.379
21,-7,1.38
26,-2,1.381
16,0,1.382
0,0,1.383
-5,-2,1.384
-8,-4,1.385
-12,-3,1.386
-15,-1,1.387
-11,0,1.388
-5,2,1.389
-3,1,1.39
-2,-1,1.391
1,-2,1.392
0,1,1.393
-5,2,1.394
-9,0,1.395
-10,-2,1.396
-12,-5,1.397
-14,-4,1.398
-7,-2,1.399
4,0,1.4
9,5,1.401
3,7,1.402
2,2,1.403
6,-4,1.404
8,-5,1.405
6,2,1.406
3,6,1.407
5,3,1.408
3,-2,1.409
-3,-3,1.41
-4,0,1.411
1,2,1.412
6,3,1.413
5,1,1.414
1,-2,1.415
-1,-2,1.416
-3,-5,1.417
-6,-2,1.418
-4,0,1.419
1,2,1.42
5,4,1.421
3,5,1.422
2,3,1.423
5,0,1.424
9,-2,1.425
8,-2,1.426
6,0,1.427
6,1,1.428
5,2,1.429
3,0,1.43
4,-4,1.431
8,-5,1.432
8,-5,1.433
6,-5,1.434
3,-4,1.435
2,-2,1.436
0,-2,1.437
0,-3,1.438
5,-4,1.439
11,-2,1.44
12,1,1.441
6,4,1.442
3,4,1.443
5,0,1.444
7,-3,1.445
5,-2,1.446
1,1,1.447
0,2,1.448
0,0,1.449
0,0,1.45
1,1,1.451
1,2,1.452
3,1,1.453
0,-4,1.454
-2,-5,1.455
-7,-3,1.456
-10,-4,1.457
-10,-4,1.458
-5,-2,1.459
3,0,1.46
8,3,1.461
8,5,1.462
5,4,1.463
4,1,1.464
4,-2,1.465
3,-3,1.466
5,-1,1.467
8,2,1.468
8,4,1.469
6,4,1.47
2,3,1.471
1,1,1.472
2,-1,1.473
1,-3,1.474
-1,-4,1.475
-6,-3,1.476
-9,-7,1.477
-8,-8,1.478
-2,-6,1.479
7,0,1.48
11,4,1.481
6,4,1.482
2,1,1.483
5,0,1.484
6,1,1.485
3,0,1.486
1,-1,1.487
4,-1,1.488
7,2,1.489
9,3,1.49
7,0,1.491
6,-4,1.492
5,-5,1.493
2,-2,1.494
-1,1,1.495
-4,1,1.496
-5,-4,1.497
-3,-8,1.498
2,-6,1.499
5,-1,1.5
0,1,1.501
-6,2,1.502
-7,0,1.503
0,0,1.504
5,1,1.505
5,2,1.506
5,1,1.507
6,-2,1.508
5,-3,1.509
0,0,1.51
-2,1,1.511
0,-1,1.512
2,-2,1.513
2,-1,1.514
3,1,1.515
0,0,1.516
-4,-6,1.517
-7,-7,1.518
-3,-4,1.519
5,-2,1.52
6,-2,1.521
0,-1,1.522
-1,2,1.523
2,4,1.524
4,5,1.525
2,3,1.526
1,2,1.527
2,1,1.528
0,0,1.529
-2,-1,1.53
-1,-3,1.531
2,-5,1.532
4,-2,1.533
-1,0,1.534
-5,0,1.535
-6,0,1.536
-5,-3,1.537
-4,-3,1.538
0,-5,1.539
9,-7,1.54
13,-6,1.541
11,0,1.542
5,3,1.543
3,0,1.544
6,-3,1.545
9,-2,1.546
10,0,1.547
8,-2,1.548
4,-5,1.549
4,-4,1.55
7,1,1.551
9,2,1.552
7,0,1.553
0,-2,1.554
-4,-3,1.555
-5,-2,1.556
-7,-4,1.557
-8,-4,1.558
-2,-1,1.559
10,1,1.56
15,4,1.561
7,4,1.562
-2,2,1.563
-4,-1,1.564
0,-2,1.565
0,-2,1.566
1,1,1.567
4,2,1.568
7,0,1.569
4,-3,1.57
0,-4,1.571
2,-2,1.572
9,0,1.573
13,1,1.574
9,1,1.575
0,1,1.576
-5,-1,1.577
-3,-3,1.578
4,-3,1.579
11,1,1.58
5,5,1.581
-7,7,1.582
-12,6,1.583
-8,3,1.584
-2,2,1.585
0,1,1.586
4,-1,1.587
13,-2,1.588
16,-4,1.589
12,-3,1.59
7,-3,1.591
8,-2,1.592
9,1,1.593
2,2,1.594
-1,1,1.595
2,-3,1.596
6,-6,1.597
3,-5,1.598
1,-2,1.599
6,0,1.6
10,0,1.601
4,2,1.602
-1,2,1.603
0,1,1.604
3,0,1.605
0,2,1.606
-4,3,1.607
0,1,1.608
6,-3,1.609
3,-2,1.61
-4,0,1.611
-4,1,1.612
0,1,1.613
1,0,1.614
-1,0,1.615
-4,0,1.616
-5,-5,1.617
-6,-7,1.618
-2,-7,1.619
7,-5,1.62
9,-2,1.621
5,2,1.622
0,3,1.623
1,-1,1.624
2,-3,1.625
0,0,1.626
-1,3,1.627
2,0,1.628
3,-4,1.629
1,-4,1.63
2,0,1.631
6,3,1.632
9,3,1.633
2,1,1.634
0,0,1.635
-2,-2,1.636
-2,-10,1.637
-2,-10,1.638
1,-5,1.639
4,-2,1.64
3,-2,1.641
1,-2,1.642
0,-2,1.643
0,-1,1.644
5,-2,1.645
9,-2,1.646
4,0,1.647
0,0,1.648
1,2,1.649
2,4,1.65
3,4,1.651
4,3,1.652
5,1,1.653
5,0,1.654
5,0,1.655
1,-3,1.656
-2,-7,1.657
-6,-7,1.658
-3,-5,1.659
5,-4,1.66
10,-2,1.661
5,2,1.662
-2,2,1.663
-2,-1,1.664
1,0,1.665
1,4,1.666
0,4,1.667
0,-1,1.668
1,-4,1.669
3,-1,1.67
5,0,1.671
8,-2,1.672
6,-1,1.673
3,0,1.674
1,1,1.675
-1,-1,1.676
-4,-5,1.677
-4,-5,1.678
0,-5,1.679
8,-7,1.68
8,-3,1.681
1,3,1.682
-3,5,1.683
-1,1,1.684
4,-1,1.685
6,0,1.686
6,0,1.687
6,-2,1.688
6,-3,1.689
4,-1,1.69
3,1,1.691
5,2,1.692
7,4,1.693
4,1,1.694
2,-3,1.695
0,-5,1.696
0,-5,1.697
-2,-2,1.698
0,-3,1.699
6,-3,1.7
10,1,1.701
5,6,1.702
0,4,1.703
-1,-3,1.704
0,-5,1.705
2,0,1.706
1,3,1.707
0,4,1.708
-1,1,1.709
-3,0,1.71
-2,0,1.711
0,2,1.712
4,6,1.713
1,7,1.714
0,4,1.715
-2,-1,1.716
-4,-7,1.717
-6,-8,1.718
-1,-4,1.719
3,0,1.72
2,1,1.721
1,0,1.722
2,-1,1.723
3,-2,1.724
3,-1,1.725
2,0,1.726
0,1,1.727
-1,0,1.728
0,0,1.729
1,2,1.73
3,5,1.731
6,5,1.732
6,2,1.733
3,-3,1.734
0,-4,1.735
-2,-2,1.736
-3,-3,1.737
-4,-5,1.738
0,-7,1.739
7,-4,1.74
9,-1,1.741
5,2,1.742
0,1,1.743
1,-2,1.744
4,-2,1.745
3,0,1.746
1,3,1.747
1,2,1.748
2,0,1.749
2,0,1.75
2,0,1.751
3,1,1.752
6,1,1.753
4,-1,1.754
0,-3,1.755
-3,-3,1.756
-5,-4,1.757
-5,-3,1.758
0,-4,1.759
7,-3,1.76
7,0,1.761
3,3,1.762
0,4,1.763
2,0,1.764
3,-2,1.765
-1,-2,1.766
-5,-2,1.767
-9,-4,1.768
-5,-6,1.769
0,-4,1.77
3,0,1.771
3,0,1.772
3,-1,1.773
1,-1,1.774
2,-2,1.775
1,-4,1.776
0,-7,1.777
1,-7,1.778
6,-5,1.779
13,-6,1.78
13,-4,1.781
8,0,1.782
6,1,1.783
9,-1,1.784
11,-5,1.785
9,-4,1.786
5,-3,1.787
6,-3,1.788
9,-4,1.789
7,-2,1.79
4,0,1.791
1,-1,1.792
4,0,1.793
2,-1,1.794
0,-2,1.795
-2,-5,1.796
-2,-7,1.797
-2,-2,1.798
3,1,1.799
7,1,1.8
5,3,1.801
3,7,1.802
3,7,1.803
2,3,1.804
2,0,1.805
2,5,1.806
3,10,1.807
5,7,1.808
6,0,1.809
6,-2,1.81
3,0,1.811
1,0,1.812
2,0,1.813
1,-1,1.814
-2,-1,1.815
-6,-4,1.816
-6,-9,1.817
-5,-10,1.818
-2,-6,1.819
6,-1,1.82
8,1,1.821
3,1,1.822
0,-2,1.823
3,-3,1.824
6,-3,1.825
2,0,1.826
-1,3,1.827
2,1,1.828
3,-1,1.829
1,1,1.83
-1,4,1.831
1,3,1.832
4,-1,1.833
0,-5,1.834
-6,-3,1.835
-6,0,1.836
-6,-2,1.837
-5,-5,1.838
-2,-5,1.839
4,-4,1.84
7,-1,1.841
2,1,1.842
-1,2,1.843
2,0,1.844
9,-3,1.845
10,-2,1.846
7,0,1.847
4,0,1.848
3,-2,1.849
2,-2,1.85
3,-1,1.851
6,-2,1.852
7,-3,1.853
3,-3,1.854
0,-2,1.855
-2,-1,1.856
-3,-6,1.857
-4,-7,1.858
0,-3,1.859
6,0,1.86
8,2,1.861
3,3,1.862
4,2,1.863
10,0,1.864
10,0,1.865
1,0,1.866
-3,1,1.867
0,0,1.868
4,0,1.869
3,0,1.87
1,2,1.871
1,2,1.872
3,2,1.873
0,-2,1.874
-1,-3,1.875
-2,-2,1.876
-6,-3,1.877
-7,-2,1.878
1,-3,1.879
7,-5,1.88
7,-2,1.881
6,2,1.882
5,2,1.883
3,0,1.884
1,-2,1.885
0,-1,1.886
1,2,1.887
3,1,1.888
3,0,1.889
3,0,1.89
3,1,1.891
2,0,1.892
4,1,1.893
5,2,1.894
0,0,1.895
-2,-3,1.896
-4,-7,1.897
-7,-7,1.898
-5,-7,1.899
5,-6,1.9
12,-2,1.901
9,4,1.902
5,4,1.903
5,-1,1.904
4,-2,1.905
-1,2,1.906
-2,2,1.907
2,0,1.908
5,0,1.909
5,3,1.91
1,2,1.911
1,-2,1.912
2,-3,1.913
0,-3,1.914
-1,-5,1.915
-4,-7,1.916
-7,-8,1.917
-5,-3,1.918
3,0,1.919
8,-4,1.92
3,-5,1.921
-5,0,1.922
-5,3,1.923
1,0,1.924
6,-2,1.925
5,-1,1.926
1,0,1.927
1,1,1.928
2,0,1.929
7,0,1.93
15,2,1.931
21,2,1.932
21,3,1.933
16,1,1.934
11,0,1.935
6,-2,1.936
1,-6,1.937
-2,-4,1.938
0,-2,1.939
6,1,1.94
8,3,1.941
4,5,1.942
1,3,1.943
2,-2,1.944
2,-4,1.945
-1,-1,1.946
-2,1,1.947
0,0,1.948
-1,0,1.949
-4,0,1.95
-5,3,1.951
-3,5,1.952
0,5,1.953
-1,0,1.954
-3,-6,1.955
-6,-9,1.956
-9,-9,1.957
-10,-7,1.958
-5,-3,1.959
3,-3,1.96
5,-2,1.961
1,0,1.962
0,1,1.963
3,0,1.964
5,1,1.965
1,1,1.966
0,1,1.967
4,0,1.968
7,0,1.969
3,2,1.97
1,5,1.971
4,3,1.972
8,1,1.973
5,-3,1.974
0,-6,1.975
-2,-7,1.976
-2,-7,1.977
-1,-3,1.978
3,1,1.979
9,1,1.98
11,-1,1.981
9,-1,1.982
9,0,1.983
11,0,1.984
13,-1,1.985
9,-3,1.986
8,0,1.987
10,2,1.988
7,0,1.989
1,-2,1.99
-1,-3,1.991
3,-2,1.992
7,-1,1.993
5,-3,1.994
1,-1,1.995
-4,-1,1.996
-7,-5,1.997
-8,-6,1.998
-3,-4,1.999
4,-2,2.0
6,-1,2.001
2,-2,2.002
1,-2,2.003
3,-4,2.004
3,-4,2.005
0,-2,2.006
-2,-1,2.007
0,0,2.008
0,1,2.009
-2,5,2.01
-4,5,2.011
-2,5,2.012
0,5,2.013
-2,5,2.014
-6,3,2.015
-10,0,2.016
-13,-3,2.017
-11,-2,2.018
-4,1,2.019
4,1,2.02
8,0,2.021
3,4,2.022
0,6,2.023
1,4,2.024
4,0,2.025
5,-1,2.026
5,0,2.027
8,-2,2.028
12,-3,2.029
9,-3,2.03
6,-1,2.031
4,1,2.032
5,1,2.033
5,-1,2.034
2,-2,2.035
-3,0,2.036
-4,-2,2.037
0,-4,2.038
7,-5,2.039
12,-3,2.04
10,0,2.041
4,0,2.042
0,-3,2.043
1,-5,2.044
5,-1,2.045
7,0,2.046
7,-1,2.047
5,-2,2.048
6,-1,2.049
6,-3,2.05
5,-5,2.051
4,-4,2.052
2,-1,2.053
-1,-2,2.054
0,-4,2.055
1,-5,2.056
-2,-4,2.057
-5,-4,2.058
-3,-5,2.059
6,-5,2.06
10,-2,2.061
6,1,2.062
2,0,2.063
4,-2,2.064
7,0,2.065
7,3,2.066
6,4,2.067
3,0,2.068
0,-2,2.069
-4,2,2.07
-4,5,2.071
1,4,2.072
1,1,2.073
-2,-2,2.074
-5,-1,2.075
-6,-1,2.076
-8,-8,2.077
-9,-10,2.078
-3,-5,2.079
8,-1,2.08
14,0,2.081
9,-1,2.082
4,0,2.083
6,2,2.084
9,0,2.085
9,-1,2.086
10,1,2.087
12,3,2.088
10,2,2.089
1,0,2.09
-4,0,2.091
-2,0,2.092
2,1,2.093
2,1,2.094
0,2,2.095
-3,0,2.096
-7,-5,2.097
-9,-8,2.098
-5,-8,2.099
2,-3,2.1
5,2,2.101
0,6,2.102
-1,5,2.103
4,1,2.104
7,1,2.105
1,5,2.106
-4,5,2.107
-3,0,2.108
3,-3,2.109
3,-2,2.11
1,-1,2.111
1,-2,2.112
3,-3,2.113
1,-4,2.114
-2,-4,2.115
-3,-5,2.116
-2,-5,2.117
-1,-5,2.118
0,-5,2.119
2,-5,2.12
2,-1,2.121
-2,3,2.122
-4,3,2.123
0,3,2.124
7,3,2.125
7,3,2.126
3,3,2.127
1,3,2.128
6,2,2.129
12,1,2.13
16,1,2.131
16,0,2.132
14,-1,2.133
8,-3,2.134
5,-5,2.135
-1,-7,2.136
-6,-11,2.137
-10,-7,2.138
-6,1,2.139
5,5,2.14
9,4,2.141
4,2,2.142
0,2,2.143
2,2,2.144
4,1,2.145
5,1,2.146
6,2,2.147
7,2,2.148
4,0,2.149
3,0,2.15
4,1,2.151
5,0,2.152
4,0,2.153
0,0,2.154
-4,-1,2.155
-8,-6,2.156
-11,-12,2.157
-8,-8,2.158
0,-4,2.159
5,-2,2.16
5,-2,2.161
1,0,2.162
1,2,2.163
4,1,2.164
5,1,2.165
3,3,2.166
3,4,2.167
2,3,2.168
0,1,2.169
-1,1,2.17
0,2,2.171
3,1,2.172
6,0,2.173
2,-3,2.174
0,-5,2.175
-2,-7,2.176
-4,-10,2.177
-6,-10,2.178
-3,-6,2.179
4,-4,2.18
8,0,2.181
3,4,2.182
-1,4,2.183
1,0,2.184
4,-2,2.185
4,1,2.186
3,4,2.187
3,0,2.188
3,-4,2.189
0,-2,2.19
-1,2,2.191
0,2,2.192
0,1,2.193
0,1,2.194
2,1,2.195
2,-4,2.196
0,-10,2.197
0,-8,2.198
7,-2,2.199
14,0,2.2
10,0,2.201
0,3,2.202
-3,6,2.203
2,2,2.204
3,-2,2.205
0,1,2.206
0,5,2.207
5,4,2.208
6,-1,2.209
2,-2,2.21
1,0,2.211
5,-1,2.212
8,-3,2.213
4,-5,2.214
-1,-5,2.215
-4,-4,2.216
-8,-6,2.217
-9,-3,2.218
-3,-1,2.219
5,1,2.22
8,2,2.221
5,1,2.222
3,0,2.223
4,-2,2.224
4,-2,2.225
1,0,2.226
-2,-1,2.227
0,0,2.228
1,1,2.229
0,3,2.23
2,1,2.231
4,-1,2.232
6,1,2.233
1,4,2.234
0,3,2.235
1,-2,2.236
0,-7,2.237
-3,-6,2.238
0,-4,2.239
6,-3,2.24
6,0,2.241
0,4,2.242
-2,4,2.243
6,1,2.244
10,-1,2.245
6,2,2.246
3,2,2.247
6,-2,2.248
8,-3,2.249
2,0,2.25
-1,0,2.251
0,-2,2.252
4,-2,2.253
2,0,2.254
-1,0,2.255
-3,-2,2.256
-6,-6,2.257
-5,-7,2.258
1,-5,2.259
8,-5,2.26
7,-1,2.261
1,3,2.262
2,3,2.263
8,1,2.264
7,1,2.265
2,3,2.266
0,3,2.267
3,0,2.268
2,2,2.269
-1,3,2.27
-1,0,2.271
4,-3,2.272
6,0,2.273
0,3,2.274
-5,2,2.275
-5,-3,2.276
-5,-4,2.277
-2,-1,2.278
2,-1,2.279
8,-2,2.28
8,0,2.281
4,3,2.282
4,0,2.283
9,-3,2.284
11,-2,2.285
5,1,2.286
1,1,2.287
0,-1,2.288
0,-2,2.289
0,-2,2.29
2,-3,2.291
4,-2,2.292
4,1,2.293
1,0,2.294
0,-3,2.295
-2,-6,2.296
-5,-8,2.297
-8,-6,2.298
-2,-6,2.299
7,-5,2.3
10,1,2.301
5,5,2.302
2,3,2.303
5,-2,2.304
8,-2,2.305
7,0,2.306
2,2,2.307
-1,1,2.308
-2,1,2.309
-1,2,2.31
-1,2,2.311
0,2,2.312
1,3,2.313
3,2,2.314
5,0,2.315
2,-3,2.316
-2,-6,2.317
-1,-5,2.318
8,-3,2.319
15,-1,2.32
14,4,2.321
4,8,2.322
-3,6,2.323
-3,2,2.324
0,0,2.325
2,0,2.326
2,-1,2.327
3,-2,2.328
2,0,2.329
1,4,2.33
-2,2,2.331
-3,-1,2.332
1,0,2.333
5,0,2.334
4,1,2.335
-1,-2,2.336
-5,-6,2.337
-3,-7,2.338
1,-5,2.339
7,-2,2.34
10,0,2.341
9,1,2.342
6,0,2.343
7,-2,2.344
11,-3,2.345
15,-4,2.346
11,-4,2.347
5,-3,2.348
2,-1,2.349
3,0,2.35
2,0,2.351
2,0,2.352
1,3,2.353
-1,2,2.354
-4,0,2.355
-6,-2,2.356
-7,-7,2.357
-4,-7,2.358
0,-3,2.359
4,2,2.36
5,4,2.361
1,3,2.362
-3,0,2.363
-5,-1,2.364
-2,0,2.365
0,0,2.366
0,1,2.367
0,2,2.368
0,1,2.369
-2,-1,2.37
-1,-2,2.371
1,-3,2.372
5,-1,2.373
3,-1,2.374
0,0,2.375
-3,-3,2.376
-3,-7,2.377
-3,-7,2.378
1,-5,2.379
9,-1,2.38
10,2,2.381
2,3,2.382
-1,4,2.383
4,2,2.384
9,0,2.385
4,-1,2.386
0,0,2.387
2,0,2.388
7,2,2.389
6,2,2.39
2,3,2.391
2,1,2.392
4,1,2.393
1,-3,2.394
-2,-5,2.395
-5,-4,2.396
-6,-8,2.397
-6,-9,2.398
-2,-7,2.399
3,-7,2.4
8,-2,2.401
11,1,2.402
8,0,2.403
5,-2,2.404
5,-3,2.405
6,-1,2.406
5,0,2.407
4,-1,2.408
3,0,2.409
2,4,2.41
0,4,2.411
-1,0,2.412
0,-2,2.413
2,-1,2.414
3,2,2.415
1,0,2.416
-3,-5,2.417
-6,-5,2.418
-1,-1,2.419
8,0,2.42
10,2,2.421
3,4,2.422
-2,4,2.423
1,0,2.424
5,-2,2.425
2,0,2.426
0,1,2.427
4,0,2.428
7,-2,2.429
5,-2,2.43
2,-2,2.431
6,-1,2.432
10,0,2.433
4,0,2.434
-2,-1,2.435
-5,-4,2.436
-5,-8,2.437
-5,-5,2.438
-1,-4,2.439
5,-4,2.44
6,-3,2.441
1,2,2.442
-1,5,2.443
4,1,2.444
9,-3,2.445
7,-3,2.446
2,0,2.447
2,1,2.448
3,1,2.449
3,3,2.45
0,4,2.451
1,3,2.452
2,0,2.453
2,-4,2.454
2,-4,2.455
-1,-4,2.456
-5,-5,2.457
-6,-5,2.458
-1,-2,2.459
7,1,2.46
10,3,2.461
7,5,2.462
4,3,2.463
5,2,2.464
6,0,2.465
5,-1,2.466
4,-1,2.467
7,0,2.468
5,0,2.469
0,-1,2.47
-1,-3,2.471
0,-4,2.472
2,0,2.473
0,2,2.474
-2,-3,2.475
-3,-7,2.476
-4,-9,2.477
-4,-7,2.478
0,-6,2.479
7,-4,2.48
10,0,2.481
5,2,2.482
0,3,2.483
0,1,2.484
1,0,2.485
0,0,2.486
0,0,2.487
4,2,2.488
7,4,2.489
5,5,2.49
3,2,2.491
3,0,2.492
5,3,2.493
1,3,2.494
-1,0,2.495
-2,-5,2.496
-3,-7,2.497
-3,-5,2.498
0,-3,2.499
6,-3,2.5
9,-1,2.501
4,1,2.502
0,2,2.503
-2,0,2.504
0,-2,2.505
3,-2,2.506
6,-1,2.507
6,-4,2.508
3,-6,2.509
-1,-6,2.51
-3,-3,2.511
-4,0,2.512
-2,5,2.513
-3,3,2.514
-4,1,2.515
-5,0,2.516
-5,-2,2.517
-4,-4,2.518
3,-3,2.519
8,-1,2.52
6,0,2.521
5,2,2.522
7,2,2.523
8,3,2.524
6,2,2.525
4,1,2.526
1,1,2.527
-1,2,2.528
0,2,2.529
2,1,2.53
3,1,2.531
5,0,2.532
3,0,2.533
2,0,2.534
1,-2,2.535
-1,-4,2.536
-1,-7,2.537
1,-7,2.538
6,-4,2.539
10,-2,2.54
9,2,2.541
4,4,2.542
2,2,2.543
3,2,2.544
5,3,2.545
6,2,2.546
5,-1,2.547
4,-3,2.548
3,-1,2.549
1,0,2.55
0,0,2.551
0,-2,2.552
2,-3,2.553
1,-4,2.554
-1,-8,2.555
-5,-9,2.556
-7,-9,2.557
-7,-5,2.558
-1,-4,2.559
5,-6,2.56
8,-6,2.561
3,-2,2.562
-1,0,2.563
0,-2,2.564
3,-3,2.565
3,1,2.566
0,4,2.567
1,4,2.568
2,0,2.569
1,-1,2.57
0,-1,2.571
0,-1,2.572
3,-1,2.573
2,-1,2.574
-2,-2,2.575
-6,-4,2.576
-7,-7,2.577
-1,-8,2.578
8,-6,2.579
13,-4,2.58
11,-4,2.581
6,-1,2.582
3,0,2.583
3,0,2.584
4,-1,2.585
5,-1,2.586
4,-1,2.587
1,-4,2.588
2,-2,2.589
4,3,2.59
5,5,2.591
2,2,2.592
0,0,2.593
-1,0,2.594
0,1,2.595
1,2,2.596
-1,0,2.597
-2,-2,2.598
4,0,2.599
9,2,2.6
7,2,2.601
5,1,2.602
3,0,2.603
2,-1,2.604
4,-2,2.605
5,-2,2.606
3,0,2.607
1,1,2.608
2,0,2.609
3,-2,2.61
4,-2,2.611
6,-2,2.612
7,0,2.613
7,1,2.614
7,0,2.615
2,-2,2.616
-4,-8,2.617
-9,-7,2.618
-6,-5,2.619
-1,-1,2.62
2,2,2.621
2,3,2.622
1,4,2.623
4,2,2.624
4,1,2.625
1,3,2.626
1,4,2.627
6,3,2.628
11,0,2.629
10,0,2.63
7,1,2.631
6,2,2.632
5,2,2.633
2,1,2.634
-2,-2,2.635
-7,-5,2.636
-9,-8,2.637
-8,-6,2.638
-3,-3,2.639
5,-4,2.64
8,-3,2.641
4,1,2.642
2,2,2.643
5,0,2.644
9,-2,2.645
8,0,2.646
5,0,2.647
3,-4,2.648
6,-7,2.649
9,-6,2.65
8,-4,2.651
7,-5,2.652
4,-5,2.653
1,-3,2.654
-2,-3,2.655
-4,-6,2.656
-5,-11,2.657
-3,-10,2.658
3,-6,2.659
7,-2,2.66
5,0,2.661
1,3,2.662
1,4,2.663
5,3,2.664
4,1,2.665
-2,2,2.666
-5,5,2.667
-2,6,2.668
1,7,2.669
1,7,2.67
0,7,2.671
0,5,2.672
0,6,2.673
-2,-2,2.674
-2,-3,2.675
-3,-5,2.676
-8,-8,2.677
-12,-10,2.678
-6,-6,2.679
-2,-1,2.68
-1,-1,2.681
0,1,2.682
1,-1,2.683
3,-1,2.684
5,-1,2.685
7,1,2.686
7,1,2.687
6,0,2.688
8,-1,2.689
9,-1,2.69
6,-1,2.691
4,1,2.692
6,-1,2.693
9,-3,2.694
5,-4,2.695
-1,-6,2.696
-6,-9,2.697
-6,-11,2.698
0,-7,2.699
6,-2,2.7
7,0,2.701
0,2,2.702
-3,0,2.703
0,-1,2.704
6,0,2.705
8,2,2.706
8,2,2.707
11,1,2.708
12,0,2.709
9,-1,2.71
4,0,2.711
5,2,2.712
8,0,2.713
7,-2,2.714
2,-4,2.715
-3,-6,2.716
-5,-8,2.717
-3,-9,2.718
-1,-11,2.719
4,-11,2.72
6,-5,2.721
4,2,2.722
5,2,2.723
10,-2,2.724
11,-3,2.725
6,3,2.726
0,6,2.727
0,2,2.728
1,-2,2.729
-1,-1,2.73
-3,3,2.731
-2,2,2.732
2,0,2.733
4,-1,2.734
1,-2,2.735
-5,-3,2.736
-9,-5,2.737
-7,-6,2.738
0,-6,2.739
5,-4,2.74
4,0,2.741
0,6,2.742
0,7,2.743
2,4,2.744
0,4,2.745
-1,6,2.746
0,4,2.747
3,-2,2.748
0,-3,2.749
-2,0,2.75
0,2,2.751
4,0,2.752
5,0,2.753
2,0,2.754
0,0,2.755
-2,-3,2.756
-4,-7,2.757
-5,-6,2.758
0,-4,2.759
6,-3,2.76
8,0,2.761
6,3,2.762
6,1,2.763
9,-2,2.764
7,-1,2.765
5,4,2.766
5,7,2.767
7,4,2.768
7,3,2.769
5,3,2.77
6,1,2.771
8,0,2.772
8,0,2.773
2,0,2.774
-1,-3,2.775
-3,-4,2.776
-2,-4,2.777
-2,-1,2.778
2,-3,2.779
9,-5,2.78
11,0,2.781
6,6,2.782
3,4,2.783
6,-1,2.784
7,-4,2.785
3,0,2.786
-2,3,2.787
-1,1,2.788
1,0,2.789
1,0,2.79
0,1,2.791
0,0,2.792
2,1,2.793
0,0,2.794
0,-2,2.795
-3,-5,2.796
-5,-9,2.797
-6,-7,2.798
0,-4,2.799
9,-3,2.8
10,1,2.801
3,4,2.802
-1,4,2.803
3,-2,2.804
6,-5,2.805
2,-2,2.806
-1,2,2.807
0,2,2.808
6,0,2.809
6,1,2.81
3,0,2.811
1,-3,2.812
2,-2,2.813
1,-3,2.814
1,-4,2.815
0,-5,2.816
-2,-5,2.817
-4,-4,2.818
0,-2,2.819
5,0,2.82
4,1,2.821
-1,4,2.822
-5,4,2.823
0,2,2.824
4,-1,2.825
4,-3,2.826
2,-1,2.827
3,1,2.828
3,0,2.829
1,-2,2.83
2,-2,2.831
7,-2,2.832
12,-2,2.833
7,-2,2.834
0,0,2.835
-4,0,2.836
-3,-5,2.837
1,-7,2.838
6,-5,2.839
12,0,2.84
11,3,2.841
4,3,2.842
0,2,2.843
2,0,2.844
7,0,2.845
6,0,2.846
0,3,2.847
-2,2,2.848
0,0,2.849
6,0,2.85
8,1,2.851
5,1,2.852
2,1,2.853
3,-1,2.854
6,0,2.855
4,0,2.856
0,-4,2.857
-4,-7,2.858
0,-6,2.859
6,-2,2.86
8,0,2.861
3,0,2.862
0,-1,2.863
0,-2,2.864
-1,-1,2.865
-3,1,2.866
-2,3,2.867
1,2,2.868
1,2,2.869
-1,0,2.87
0,0,2.871
5,0,2.872
9,1,2.873
3,1,2.874
-2,-1,2.875
-5,-3,2.876
-6,-5,2.877
-5,-5,2.878
-1,-5,2.879
4,-3,2.88
5,1,2.881
2,3,2.882
0,1,2.883
1,-2,2.884
3,-1,2.885
0,4,2.886
-2,4,2.887
0,0,2.888
4,-1,2.889
3,0,2.89
1,0,2.891
2,0,2.892
6,0,2.893
7,-1,2.894
6,-3,2.895
0,-6,2.896
-5,-8,2.897
-5,-7,2.898
1,-4,2.899
8,-2,2.9
7,-2,2.901
2,0,2.902
-1,2,2.903
2,3,2.904
3,4,2.905
0,4,2.906
-2,2,2.907
1,0,2.908
5,-1,2.909
8,0,2.91
6,0,2.911
4,-2,2.912
3,0,2.913
1,0,2.914
-1,-1,2.915
-6,-2,2.916
-6,-5,2.917
-4,-5,2.918
0,-4,2.919
6,-2,2.92
7,0,2.921
2,0,2.922
0,1,2.923
0,1,2.924
3,2,2.925
3,5,2.926
4,7,2.927
5,3,2.928
4,0,2.929
1,3,2.93
4,6,2.931
10,5,2.932
13,3,2.933
7,-1,2.934
1,-1,2.935
-3,-4,2.936
-4,-10,2.937
-5,-9,2.938
-1,-4,2.939
5,0,2.94
8,1,2.941
4,0,2.942
2,0,2.943
3,-1,2.944
4,-2,2.945
3,-1,2.946
3,0,2.947
5,0,2.948
5,-2,2.949
2,-2,2.95
0,-1,2.951
2,-1,2.952
5,-1,2.953
4,0,2.954
2,0,2.955
-1,-2,2.956
-4,-8,2.957
-4,-9,2.958
-2,-5,2.959
3,0,2.96
3,0,2.961
-1,0,2.962
-1,-1,2.963
3,-2,2.964
4,-3,2.965
0,-2,2.966
-3,0,2.967
-1,1,2.968
2,0,2.969
1,0,2.97
0,1,2.971
1,1,2.972
2,1,2.973
0,0,2.974
-1,0,2.975
-2,0,2.976
-4,-3,2.977
-4,-2,2.978
3,-1,2.979
9,1,2.98
11,3,2.981
5,3,2.982
2,1,2.983
5,-1,2.984
7,0,2.985
6,2,2.986
6,4,2.987
5,1,2.988
3,0,2.989
0,2,2.99
2,2,2.991
5,-2,2.992
6,-3,2.993
2,-2,2.994
1,-1,2.995
0,-3,2.996
-3,-7,2.997
-6,-4,2.998
-2,-1,2.999
6,0,3.0
8,-1,3.001
3,0,3.002
0,0,3.003
1,-3,3.004
2,-3,3.005
3,0,3.006
3,3,3.007
6,4,3.008
4,2,3.009
0,4,3.01
0,4,3.011
4,0,3.012
7,-2,3.013
1,-3,3.014
-3,-4,3.015
-5,-5,3.016
-4,-9,3.017
-1,-7,3.018
2,-3,3.019
7,-1,3.02
7,1,3.021
3,2,3.022
2,0,3.023
6,-1,3.024
10,0,3.025
9,5,3.026
6,7,3.027
3,5,3.028
1,2,3.029
1,2,3.03
2,2,3.031
6,2,3.032
6,1,3.033
1,-1,3.034
-4,-4,3.035
-7,-6,3.036
-7,-7,3.037
-4,-5,3.038
0,-3,3.039
7,-2,3.04
9,1,3.041
6,5,3.042
5,4,3.043
5,0,3.044
3,-5,3.045
1,-6,3.046
0,-3,3.047
3,-1,3.048
2,-1,3.049
0,-1,3.05
0,-1,3.051
1,-1,3.052
3,0,3.053
1,0,3.054
-1,-1,3.055
-1,-4,3.056
-2,-9,3.057
-3,-8,3.058
0,-5,3.059
6,-1,3.06
6,3,3.061
2,5,3.062
0,4,3.063
2,0,3.064
6,-3,3.065
4,-2,3.066
1,0,3.067
3,0,3.068
7,-2,3.069
7,0,3.07
4,2,3.071
3,2,3.072
5,0,3.073
2,-2,3.074
-1,-1,3.075
-3,0,3.076
-4,-5,3.077
-4,-5,3.078
-1,-2,3.079
6,2,3.08
8,2,3.081
3,1,3.082
-2,0,3.083
1,1,3.084
7,0,3.085
10,0,3.086
7,2,3.087
7,4,3.088
9,1,3.089
7,-1,3.09
3,-1,3.091
3,0,3.092
7,0,3.093
6,-2,3.094
2,-2,3.095
-2,0,3.096
-3,-3,3.097
-3,-6,3.098
0,-3,3.099
6,1,3.1
8,4,3.101
1,3,3.102
-3,0,3.103
0,-1,3.104
5,-2,3.105
0,-2,3.106
-5,-2,3.107
-6,-2,3.108
-3,0,3.109
-2,0,3.11
0,1,3.111
2,2,3.112
6,2,3.113
6,1,3.114
3,1,3.115
-1,-2,3.116
-3,-6,3.117
-2,-6,3.118
5,-4,3.119
14,-2,3.12
14,0,3.121
6,0,3.122
3,-1,3.123
6,-4,3.124
9,-3,3.125
6,0,3.126
2,2,3.127
1,0,3.128
2,-1,3.129
2,0,3.13
1,2,3.131
1,1,3.132
0,0,3.133
0,0,3.134
0,0,3.135
-2,-1,3.136
-6,-6,3.137
-10,-6,3.138
-4,-6,3.139
6,-4,3.14
9,-1,3.141
3,5,3.142
0,5,3.143
3,0,3.144
7,-3,3.145
6,-1,3.146
2,0,3.147
2,-3,3.148
4,-5,3.149
6,-5,3.15
6,-3,3.151
4,-2,3.152
4,0,3.153
1,0,3.154
0,-1,3.155
-2,-3,3.156
-3,-5,3.157
-3,-3,3.158
3,-1,3.159
12,1,3.16
13,5,3.161
6,7,3.162
2,5,3.163
4,0,3.164
5,3,3.165
3,7,3.166
0,7,3.167
1,2,3.168
3,0,3.169
1,0,3.17
1,0,3.171
4,-1,3.172
7,2,3.173
2,4,3.174
-4,1,3.175
-10,-4,3.176
-11,-7,3.177
-10,-3,3.178
-4,0,3.179
3,0,3.18
7,0,3.181
2,2,3.182
0,0,3.183
4,-4,3.184
8,-3,3.185
5,2,3.186
0,4,3.187
0,0,3.188
2,-2,3.189
2,-1,3.19
3,1,3.191
4,0,3.192
6,-2,3.193
5,-3,3.194
1,-2,3.195
-1,-3,3.196
-3,-8,3.197
-5,-8,3.198
-4,-4,3.199
2,0,3.2
6,1,3.201
4,2,3.202
-1,0,3.203
0,-3,3.204
4,-3,3.205
7,0,3.206
7,3,3.207
7,1,3.208
5,-3,3.209
3,-3,3.21
0,-1,3.211
1,-2,3.212
5,-2,3.213
5,-3,3.214
3,-3,3.215
-1,-4,3.216
-2,-7,3.217
0,-6,3.218
4,-1,3.219
8,1,3.22
6,0,3.221
1,0,3.222
0,4,3.223
3,5,3.224
5,3,3.225
2,-1,3.226
0,-3,3.227
1,-2,3.228
4,-2,3.229
4,-1,3.23
3,0,3.231
1,-1,3.232
1,-1,3.233
0,-2,3.234
0,-2,3.235
-1,-4,3.236
-3,-11,3.237
-5,-11,3.238
-1,-5,3.239
8,0,3.24
12,2,3.241
5,0,3.242
1,0,3.243
1,1,3.244
3,0,3.245
4,0,3.246
3,0,3.247
3,1,3.248
4,3,3.249
5,4,3.25
5,3,3.251
5,3,3.252
4,4,3.253
4,1,3.254
2,-4,3.255
-1,-5,3.256
-8,-8,3.257
-8,-8,3.258
0,-6,3.259
8,-4,3.26
5,-2,3.261
-1,-4,3.262
-1,-5,3.263
5,-1,3.264
8,3,3.265
4,4,3.266
2,1,3.267
5,1,3.268
6,4,3.269
3,4,3.27
1,0,3.271
2,-1,3.272
2,1,3.273
0,3,3.274
-2,2,3.275
-3,-2,3.276
-4,-7,3.277
-8,-6,3.278
-6,-4,3.279
3,-2,3.28
10,-3,3.281
8,-4,3.282
4,-2,3.283
4,0,3.284
9,2,3.285
11,2,3.286
10,-2,3.287
10,-5,3.288
10,-4,3.289
9,-3,3.29
5,-4,3.291
2,-6,3.292
3,-1,3.293
3,-2,3.294
1,-4,3.295
-2,-5,3.296
-4,-6,3.297
-4,-4,3.298
0,-3,3.299
2,0,3.3
1,9,3.301
-4,11,3.302
-7,5,3.303
-4,0,3.304
1,2,3.305
2,6,3.306
-3,5,3.307
-7,3,3.308
-7,5,3.309
-4,7,3.31
-3,7,3.311
-6,4,3.312
-5,5,3.313
-5,4,3.314
-3,3,3.315
-3,1,3.316
-7,-3,3.317
-9,-5,3.318
-2,-1,3.319
4,2,3.32
8,3,3.321
12,3,3.322
10,-1,3.323
8,-5,3.324
6,-4,3.325
5,-3,3.326
6,-3,3.327
7,-2,3.328
7,-2,3.329
8,-2,3.33
6,-2,3.331
5,-1,3.332
4,0,3.333
2,0,3.334
1,-8,3.335
0,-12,3.336
-1,-12,3.337
-1,-9,3.338
8,-8,3.339
18,-8,3.34
19,-4,3.341
8,-1,3.342
0,-2,3.343
4,-3,3.344
11,-1,3.345
8,-1,3.346
2,-2,3.347
3,-3,3.348
8,-1,3.349
6,0,3.35
2,-1,3.351
3,0,3.352
6,3,3.353
5,3,3.354
0,0,3.355
-4,-3,3.356
-4,-6,3.357
-3,-4,3.358
4,-1,3.359
11,1,3.36
9,0,3.361
0,-1,3.362
-5,-2,3.363
-1,-1,3.364
3,2,3.365
0,5,3.366
-4,5,3.367
-3,2,3.368
1,1,3.369
3,2,3.37
2,3,3.371
1,2,3.372
0,1,3.373
-2,-1,3.374
-1,0,3.375
0,0,3.376
-1,-5,3.377
-4,-8,3.378
0,-7,3.379
9,-4,3.38
12,0,3.381
5,2,3.382
1,4,3.383
3,4,3.384
4,3,3.385
1,1,3.386
0,-2,3.387
2,-3,3.388
3,0,3.389
3,6,3.39
5,7,3.391
7,2,3.392
6,-2,3.393
-1,-2,3.394
-3,-2,3.395
-6,-1,3.396
-7,-3,3.397
-6,-5,3.398
0,-1,3.399
4,2,3.4
2,2,3.401
1,1,3.402
2,2,3.403
4,3,3.404
2,2,3.405
1,0,3.406
1,-1,3.407
1,-3,3.408
-1,-1,3.409
-3,1,3.41
0,1,3.411
3,0,3.412
3,-1,3.413
2,-2,3.414
-1,-1,3.415
-4,-3,3.416
-7,-10,3.417
-8,-9,3.418
0,-4,3.419
15,-2,3.42
21,-1,3.421
16,2,3.422
10,3,3.423
11,1,3.424
11,0,3.425
6,3,3.426
3,5,3.427
6,2,3.428
8,-2,3.429
6,-2,3.43
2,-1,3.431
2,-4,3.432
2,-7,3.433
-1,-6,3.434
-5,-2,3.435
-6,1,3.436
-6,-1,3.437
-8,-3,3.438
-4,-4,3.439
4,-3,3.44
7,0,3.441
6,0,3.442
4,0,3.443
7,-1,3.444
9,1,3.445
7,3,3.446
4,3,3.447
7,0,3.448
9,0,3.449
7,1,3.45
2,1,3.451
0,1,3.452
1,2,3.453
0,1,3.454
-2,0,3.455
-8,-1,3.456
-13,-5,3.457
-12,-5,3.458
-4,-6,3.459
4,-6,3.46
6,0,3.461
4,4,3.462
2,1,3.463
3,-4,3.464
2,-5,3.465
-1,1,3.466
-2,6,3.467
2,3,3.468
3,-3,3.469
3,-3,3.47
3,-1,3.471
3,-1,3.472
3,-2,3.473
1,-2,3.474
-1,-1,3.475
-4,0,3.476
-6,-7,3.477
-6,-11,3.478
-3,-8,3.479
3,-4,3.48
6,0,3.481
5,0,3.482
1,1,3.483
1,3,3.484
3,2,3.485
2,1,3.486
0,-1,3.487
1,-1,3.488
4,2,3.489
5,5,3.49
6,4,3.491
11,0,3.492
17,-1,3.493
18,0,3.494
13,1,3.495
6,0,3.496
0,-4,3.497
-1,-5,3.498
1,-4,3.499
2,-2,3.5
2,0,3.501
0,4,3.502
-1,4,3.503
0,1,3.504
0,-1,3.505
-1,-1,3.506
1,1,3.507
6,1,3.508
7,1,3.509
3,1,3.51
1,0,3.511
3,-2,3.512
7,-2,3.513
2,-3,3.514
-4,-3,3.515
-8,-5,3.516
-7,-7,3.517
-4,-6,3.518
0,-6,3.519
4,-4,3.52
4,-2,3.521
0,2,3.522
-1,1,3.523
2,-1,3.524
4,-2,3.525
1,1,3.526
1,4,3.527
1,4,3.528
-1,1,3.529
-2,0,3.53
-1,0,3.531
4,-3,3.532
6,-3,3.533
3,-3,3.534
1,-1,3.535
0,-3,3.536
0,-8,3.537
-1,-8,3.538
4,-4,3.539
11,-1,3.54
8,-1,3.541
-2,0,3.542
-9,3,3.543
-6,5,3.544
-3,1,3.545
-6,-3,3.546
-11,-3,3.547
-11,0,3.548
-6,2,3.549
0,0,3.55
7,-1,3.551
13,-3,3.552
16,-3,3.553
16,0,3.554
19,0,3.555
21,1,3.556
17,-4,3.557
10,-6,3.558
9,-1,3.559
12,3,3.56
11,4,3.561
2,3,3.562
-3,2,3.563
0,0,3.564
4,-4,3.565
2,-3,3.566
-1,2,3.567
0,4,3.568
0,0,3.569
-4,-2,3.57
-4,0,3.571
-2,3,3.572
2,3,3.573
-1,0,3.574
-7,-3,3.575
-12,-3,3.576
-13,-4,3.577
-12,-5,3.578
-5,-5,3.579
1,-3,3.58
5,0,3.581
3,5,3.582
2,7,3.583
6,3,3.584
10,-1,3.585
10,-2,3.586
7,0,3.587
5,0,3.588
4,-1,3.589
1,-1,3.59
0,-3,3.591
0,-3,3.592
0,-1,3.593
-2,-1,3.594
-5,-3,3.595
-12,-5,3.596
-16,-8,3.597
-14,-8,3.598
-4,-7,3.599
7,-4,3.6
12,-2,3.601
7,0,3.602
7,-1,3.603
19,-3,3.604
34,-2,3.605
44,4,3.606
41,9,3.607
23,4,3.608
-8,1,3.609
-37,3,3.61
-46,4,3.611
-28,1,3.612
-2,-1,3.613
16,-2,3.614
27,-1,3.615
39,-3,3.616
45,-8,3.617
39,-7,3.618
31,-3,3.619
29,3,3.62
21,9,3.621
1,8,3.622
-17,1,3.623
-16,-8,3.624
-7,-10,3.625
-18,-2,3.626
-46,7,3.627
-71,7,3.628
-80,-1,3.629
-79,-9,3.63
-72,-12,3.631
-65,-6,3.632
-66,5,3.633
-80,14,3.634
-93,14,3.635
-97,7,3.636
-95,-5,3.637
-95,-17,3.638
-93,-27,3.639
-85,-23,3.64
-75,-4,3.641
-61,15,3.642
-26,22,3.643
46,19,3.644
140,15,3.645
207,12,3.646
201,10,3.647
125,4,3.648
57,-5,3.649
78,-17,3.65
177,-22,3.651
243,-10,3.652
205,6,3.653
112,5,3.654
88,-7,3.655
148,-5,3.656
197,18,3.657
187,45,3.658
164,47,3.659
156,27,3.66
135,4,3.661
96,-4,3.662
73,8,3.663
50,37,3.664
-22,55,3.665
-128,45,3.666
-206,24,3.667
-260,20,3.668
-328,37,3.669
-373,47,3.67
-328,24,3.671
-218,-18,3.672
-125,-48,3.673
-57,-57,3.674
20,-42,3.675
90,-15,3.676
102,14,3.677
65,43,3.678
37,60,3.679
31,68,3.68
4,98,3.681
-68,159,3.682
-186,211,3.683
-328,196,3.684
-420,106,3.685
-356,8,3.686
-144,-31,3.687
65,-17,3.688
153,-16,3.689
156,-65,3.69
160,-130,3.691
163,-165,3.692
133,-172,3.693
79,-151,3.694
44,-57,3.695
7,114,3.696
-98,252,3.697
-313,250,3.698
-573,152,3.699
-709,94,3.7
-589,101,3.701
-280,79,3.702
-5,32,3.703
134,106,3.704
282,329,3.705
572,447,3.706
887,216,3.707
1011,-233,3.708
916,-537,3.709
756,-576,3.71
654,-586,3.711
609,-756,3.712
568,-945,3.713
481,-969,3.714
331,-854,3.715
120,-767,3.716
-155,-714,3.717
-509,-543,3.718
-874,-231,3.719
-1098,48,3.72
-1113,177,3.721
-999,231,3.722
-775,307,3.723
-328,382,3.724
291,440,3.725
722,548,3.726
713,689,3.727
462,658,3.728
331,319,3.729
383,-143,3.73
461,-377,3.731
509,-230,3.732
563,174,3.733
587,730,3.734
524,1236,3.735
405,1440,3.736
265,1263,3.737
67,928,3.738
-155,649,3.739
-269,349,3.74
-253,-91,3.741
-264,-508,3.742
-368,-690,3.743
-427,-763,3.744
-354,-951,3.745
-264,-1121,3.746
-274,-1018,3.747
-333,-769,3.748
-364,-725,3.749
-396,-867,3.75
-446,-868,3.751
-444,-646,3.752
-366,-427,3.753
-262,-259,3.754
-176,-39,3.755
-82,174,3.756
8,146,3.757
19,-146,3.758
-56,-464,3.759
-125,-638,3.76
-135,-659,3.761
-128,-492,3.762
-145,-103,3.763
-167,379,3.764
-181,758,3.765
-190,976,3.766
-175,1090,3.767
-110,1109,3.768
-19,1056,3.769
50,1040,3.77
114,1085,3.771
202,1041,3.772
280,827,3.773
280,522,3.774
200,292,3.775
94,146,3.776
1,14,3.777
-72,-52,3.778
-97,-3,3.779
-29,56,3.78
103,-7,3.781
211,-130,3.782
232,-144,3.783
176,-28,3.784
83,89,3.785
-8,136,3.786
-83,156,3.787
-151,167,3.788
-221,117,3.789
-238,-7,3.79
-129,-94,3.791
81,7,3.792
257,321,3.793
340,793,3.794
370,1211,3.795
411,1370,3.796
417,1238,3.797
309,976,3.798
143,684,3.799
75,257,3.8
175,-444,3.801
336,-1328,3.802
401,-2137,3.803
310,-2679,3.804
90,-2871,3.805
-235,-2655,3.806
-647,-2092,3.807
-1031,-1454,3.808
-1165,-993,3.809
-956,-695,3.81
-598,-423,3.811
-356,-178,3.812
-215,-36,3.813
90,82,3.814
617,292,3.815
1097,537,3.816
1274,650,3.817
1147,618,3.818
807,550,3.819
288,472,3.82
-235,333,3.821
-417,171,3.822
-137,102,3.823
283,164,3.824
493,314,3.825
528,492,3.826
593,609,3.827
640,568,3.828
486,426,3.829
197,379,3.83
17,489,3.831
-20,583,3.832
-109,544,3.833
-411,453,3.834
-841,420,3.835
-1241,369,3.836
-1466,182,3.837
-1373,-65,3.838
-924,-257,3.839
-319,-391,3.84
145,-472,3.841
385,-414,3.842
558,-196,3.843
766,30,3.844
891,142,3.845
768,165,3.846
441,153,3.847
119,85,3.848
-54,-4,3.849
-141,0,3.85
-264,119,3.851
-424,231,3.852
-513,250,3.853
-479,212,3.854
-363,165,3.855
-244,87,3.856
-167,-42,3.857
-143,-153,3.858
-151,-181,3.859
-140,-114,3.86
-88,22,3.861
-49,199,3.862
-80,361,3.863
-137,443,3.864
-144,424,3.865
-111,341,3.866
-108,210,3.867
-119,9,3.868
-62,-245,3.869
33,-424,3.87
-14,-404,3.871
-308,-274,3.872
-661,-269,3.873
-821,-481,3.874
-655,-676,3.875
-296,-592,3.876
75,-305,3.877
429,-91,3.878
782,-45,3.879
1037,-60,3.88
1065,-104,3.881
879,-227,3.882
610,-359,3.883
378,-344,3.884
252,-175,3.885
275,-47,3.886
421,-162,3.887
570,-552,3.888
592,-1027,3.889
465,-1264,3.89
268,-1100,3.891
98,-696,3.892
24,-346,3.893
59,-81,3.894
154,180,3.895
186,428,3.896
75,584,3.897
-143,704,3.898
-354,880,3.899
-506,1027,3.9
-649,1008,3.901
-817,885,3.902
-960,806,3.903
-1043,760,3.904
-1123,638,3.905
-1199,435,3.906
-1100,235,3.907
-686,78,3.908
-96,-8,3.909
400,-6,3.91
740,10,3.911
1009,-76,3.912
1166,-230,3.913
1067,-312,3.914
751,-252,3.915
442,-139,3.916
263,-62,3.917
155,-4,3.918
147,23,3.919
352,-6,3.92
686,-20,3.921
849,66,3.922
694,182,3.923
372,182,3.924
75,98,3.925
-158,81,3.926
-317,141,3.927
-352,146,3.928
-307,76,3.929
-325,76,3.93
-438,197,3.931
-513,290,3.932
-481,259,3.933
-424,189,3.934
-416,195,3.935
-408,218,3.936
-346,135,3.937
-298,-23,3.938
-330,-137,3.939
-378,-199,3.94
-342,-286,3.941
-225,-403,3.942
-99,-506,3.943
-7,-611,3.944
41,-747,3.945
41,-838,3.946
26,-788,3.947
50,-629,3.948
117,-458,3.949
182,-258,3.95
216,59,3.951
223,450,3.952
212,729,3.953
176,835,3.954
121,874,3.955
59,917,3.956
-7,772,3.957
-69,212,3.958
-111,-641,3.959
-175,-1356,3.96
-348,-1673,3.961
-625,-1669,3.962
-835,-1449,3.963
-787,-990,3.964
-479,-387,3.965
-61,78,3.966
361,274,3.967
786,384,3.968
1166,557,3.969
1333,690,3.97
1165,666,3.971
775,570,3.972
452,507,3.973
341,425,3.974
395,283,3.975
429,170,3.976
305,177,3.977
33,262,3.978
-277,335,3.979
-460,375,3.98
-389,378,3.981
-88,325,3.982
263,240,3.983
473,189,3.984
473,173,3.985
297,143,3.986
6,112,3.987
-315,146,3.988
-543,238,3.989
-605,300,3.99
-565,293,3.991
-536,249,3.992
-529,201,3.993
-484,147,3.994
-387,113,3.995
-293,79,3.996
-209,-47,3.997
-85,-281,3.998
72,-478,3.999
207,-497,4.0
308,-383,4.001
404,-248,4.002
442,-84,4.003
331,133,4.004
106,264,4.005
-74,142,4.006
-133,-175,4.007
-150,-472,4.008
-196,-645,4.009
-235,-721,4.01
-218,-680,4.011
-180,-460,4.012
-158,-129,4.013
-143,214,4.014
-123,474,4.015
-107,615,4.016
-88,595,4.017
-37,421,4.018
47,227,4.019
117,158,4.02
120,181,4.021
48,143,4.022
-56,-34,4.023
-128,-295,4.024
-132,-558,4.025
-89,-753,4.026
-54,-818,4.027
-53,-743,4.028
-79,-592,4.029
-119,-428,4.03
-171,-255,4.031
-208,-81,4.032
-196,49,4.033
-126,129,4.034
-35,197,4.035
46,258,4.036
129,262,4.037
251,191,4.038
412,97,4.039
561,41,4.04
651,36,4.041
670,66,4.042
615,115,4.043
432,156,4.044
79,167,4.045
-355,173,4.046
-649,207,4.047
-614,264,4.048
-262,298,4.049
214,291,4.05
598,261,4.051
772,221,4.052
747,168,4.053
552,92,4.054
246,31,4.055
-95,7,4.056
-340,11,4.057
-367,32,4.058
-190,57,4.059
13,81,4.06
92,85,4.061
58,66,4.062
-8,39,4.063
-96,22,4.064
-223,14,4.065
-322,9,4.066
-319,-2,4.067
-267,-12,4.068
-260,-19,4.069
-280,-24,4.07
-253,-30,4.071
-193,-39,4.072
-172,-42,4.073
-182,-42,4.074
-160,-46,4.075
-133,-62,4.076
-92,-82,4.077
-60,-81,4.078
-54,-63,4.079
-48,-52,4.08
-40,-60,4.081
-28,-73,4.082
-4,-74,4.083
16,-69,4.084
22,-68,4.085
38,-73,4.086
78,-73,4.087
103,-64,4.088
79,-48,4.089
59,-30,4.09
50,-17,4.091
42,-9,4.092
39,-2,4.093
36,2,4.094
40,4,4.095
43,3,4.096
36,-1,4.097
23,0,4.098
13,2,4.099
4,5,4.1
-3,10,4.101
3,13,4.102
32,0,4.103
74,-24,4.104
110,-39,4.105
117,-29,4.106
88,-3,4.107
50,12,4.108
40,12,4.109
55,14,4.11
52,28,4.111
13,36,4.112
-24,32,4.113
-36,27,4.114
-35,34,4.115
-37,38,4.116
-28,11,4.117
11,-28,4.118
71,-51,4.119
128,-56,4.12
159,-61,4.121
146,-71,4.122
90,-66,4.123
26,-38,4.124
0,-7,4.125
8,10,4.126
9,10,4.127
-10,8,4.128
-23,12,4.129
-20,20,4.13
-21,24,4.131
-33,22,4.132
-41,22,4.133
-37,23,4.134
-32,23,4.135
-37,20,4.136
-40,13,4.137
-33,12,4.138
-25,11,4.139
-19,8,4.14
-14,8,4.141
-9,11,4.142
-9,11,4.143
-9,7,4.144
-6,4,4.145
-6,7,4.146
-10,12,4.147
-10,9,4.148
-5,4,4.149
0,3,4.15
-1,2,4.151
-4,-2,4.152
-2,-4,4.153
-1,-3,4.154
-1,0,4.155
-6,-1,4.156
-10,-6,4.157
-8,-6,4.158
0,-5,4.159
11,-5,4.16
16,-2,4.161
10,1,4.162
5,2,4.163
7,0,4.164
10,0,4.165
9,1,4.166
6,1,4.167
9,-3,4.168
14,-6,4.169
14,-4,4.17
9,0,4.171
8,0,4.172
11,1,4.173
10,1,4.174
4,-1,4.175
-3,-5,4.176
-5,-10,4.177
-5,-7,4.178
0,-4,4.179
7,-3,4.18
8,0,4.181
4,3,4.182
2,2,4.183
4,0,4.184
5,1,4.185
3,4,4.186
2,6,4.187
2,4,4.188
1,2,4.189
-3,1,4.19
-3,2,4.191
-1,2,4.192
1,3,4.193
-2,2,4.194
-3,-2,4.195
-4,-4,4.196
-7,-5,4.197
-8,-6,4.198
-5,-6,4.199
3,-5,4.2
7,-5,4.201
7,-4,4.202
7,-3,4.203
7,1,4.204
7,4,4.205
2,2,4.206
0,-1,4.207
0,1,4.208
1,4,4.209
0,3,4.21
3,-2,4.211
7,-2,4.212
8,-2,4.213
4,-6,4.214
0,-7,4.215
-4,-2,4.216
-7,1,4.217
-9,0,4.218
-5,-4,4.219
3,-3,4.22
4,3,4.221
-1,6,4.222
-2,3,4.223
1,0,4.224
4,1,4.225
4,1,4.226
5,0,4.227
9,-1,4.228
10,-1,4.229
4,-1,4.23
2,0,4.231
3,1,4.232
3,3,4.233
-1,0,4.234
-4,-1,4.235
-2,-2,4.236
-1,-5,4.237
0,-6,4.238
4,-7,4.239
9,-5,4.24
9,0,4.241
4,0,4.242
2,-4,4.243
6,-6,4.244
7,-4,4.245
3,0,4.246
1,3,4.247
4,1,4.248
5,1,4.249
1,1,4.25
-2,3,4.251
1,2,4.252
4,0,4.253
0,-4,4.254
-4,-7,4.255
-7,-9,4.256
-7,-11,4.257
-3,-9,4.258
3,-6,4.259
9,-4,4.26
6,-4,4.261
-2,-2,4.262
-5,0,4.263
-2,1,4.264
-4,0,4.265
-9,1,4.266
-8,4,4.267
1,2,4.268
13,-3,4.269
11,-8,4.27
-2,-7,4.271
-20,-5,4.272
-34,-7,4.273
-44,-10,4.274
-44,-10,4.275
-39,-10,4.276
-31,-11,4.277
-19,-9,4.278
0,-4,4.279
21,1,4.28
35,7,4.281
55,8,4.282
90,4,4.283
122,-1,4.284
122,-2,4.285
81,1,4.286
27,4,4.287
-16,0,4.288
-46,-4,4.289
-80,-5,4.29
-109,-7,4.291
-117,-11,4.292
-94,-12,4.293
-51,-12,4.294
-1,-8,4.295
54,-6,4.296
120,-3,4.297
180,3,4.298
195,6,4.299
146,1,4.3
61,-3,4.301
-10,-2,4.302
-37,2,4.303
-35,5,4.304
-32,6,4.305
-43,2,4.306
-47,-1,4.307
-17,-2,4.308
40,2,4.309
84,9,4.31
83,10,4.311
43,4,4.312
4,2,4.313
-19,1,4.314
-32,0,4.315
-51,-1,4.316
-72,-4,4.317
-78,-3,4.318
-71,-1,4.319
-65,3,4.32
-63,8,4.321
-59,9,4.322
-53,4,4.323
-49,0,4.324
-48,3,4.325
-44,9,4.326
-37,9,4.327
-33,1,4.328
-29,0,4.329
-23,4,4.33
-19,6,4.331
-21,2,4.332
-21,0,4.333
-20,-1,4.334
-13,0,4.335
-13,1,4.336
-16,-2,4.337
-13,-4,4.338
0,-4,4.339
13,-1,4.34
19,3,4.341
19,5,4.342
20,4,4.343
23,1,4.344
27,1,4.345
29,2,4.346
30,2,4.347
31,1,4.348
33,0,4.349
36,-1,4.35
39,-1,4.351
39,-2,4.352
36,-2,4.353
30,-2,4.354
22,-2,4.355
13,-3,4.356
8,-6,4.357
5,-7,4.358
10,-5,4.359
20,1,4.36
23,4,4.361
18,2,4.362
10,0,4.363
11,0,4.364
19,3,4.365
26,2,4.366
26,-4,4.367
25,-7,4.368
28,-5,4.369
34,-1,4.37
40,0,4.371
41,-2,4.372
38,-4,4.373
30,-5,4.374
20,-4,4.375
9,-5,4.376
0,-7,4.377
-4,-5,4.378
-4,-2,4.379
-3,0,4.38
-2,1,4.381
-3,2,4.382
-5,0,4.383
-5,-3,4.384
-7,-2,4.385
-11,2,4.386
-13,4,4.387
-13,1,4.388
-13,0,4.389
-12,1,4.39
-12,1,4.391
-10,0,4.392
-9,2,4.393
-12,2,4.394
-16,-1,4.395
-18,-5,4.396
-18,-9,4.397
-16,-5,4.398
-11,-2,4.399
-3,0,4.4
1,3,4.401
2,4,4.402
3,3,4.403
10,1,4.404
13,3,4.405
9,6,4.406
1,5,4.407
0,0,4.408
0,-1,4.409
-4,0,4.41
-11,-4,4.411
-13,-9,4.412
-7,-9,4.413
-4,-8,4.414
-5,-10,4.415
-9,-12,4.416
-7,-13,4.417
-3,-9,4.418
2,-6,4.419
8,-4,4.42
9,1,4.421
5,4,4.422
-1,1,4.423
-3,-2,4.424
-2,1,4.425
-1,6,4.426
-1,6,4.427
0,0,4.428
4,-2,4.429
5,-1,4.43
3,-1,4.431
0,0,4.432
0,4,4.433
1,4,4.434
0,-2,4.435
-5,-7,4.436
-7,-7,4.437
-5,-3,4.438
1,-3,4.439
8,-5,4.44
5,-3,4.441
-2,2,4.442
-7,5,4.443
-9,3,4.444
-12,3,4.445
-17,2,4.446
-16,0,4.447
-7,0,4.448
2,0,4.449
9,2,4.45
15,0,4.451
26,-3,4.452
39,-3,4.453
40,-4,4.454
33,-2,4.455
24,-3,4.456
19,-7,4.457
16,-8,4.458
13,-7,4.459
8,-2,4.46
5,3,4.461
1,4,4.462
-1,0,4.463
0,-1,4.464
2,2,4.465
0,6,4.466
-4,4,4.467
-5,-2,4.468
-5,-6,4.469
-7,-5,4.47
-8,-1,4.471
-6,0,4.472
-2,0,4.473
-3,-1,4.474
-6,-2,4.475
-9,-2,4.476
-10,-6,4.477
-8,-5,4.478
-4,-1,4.479
1,1,4.48
3,2,4.481
2,2,4.482
2,1,4.483
6,0,4.484
6,0,4.485
2,3,4.486
0,3,4.487
1,0,4.488
1,0,4.489
-1,2,4.49
0,4,4.491
3,0,4.492
7,-3,4.493
2,-6,4.494
-1,-6,4.495
-5,-6,4.496
-7,-10,4.497
-7,-10,4.498
-2,-4,4.499
8,0,4.5
12,3,4.501
7,4,4.502
3,3,4.503
7,3,4.504
12,1,4.505
11,2,4.506
11,2,4.507
15,1,4.508
14,0,4.509
6,2,4.51
0,4,4.511
0,2,4.512
4,0,4.513
0,-1,4.514
-2,0,4.515
0,-1,4.516
4,-7,4.517
0,-9,4.518
-2,-6,4.519
2,-3,4.52
8,-2,4.521
6,0,4.522
2,4,4.523
3,4,4.524
6,-1,4.525
3,-4,4.526
2,-2,4.527
5,-2,4.528
10,-3,4.529
12,-2,4.53
12,0,4.531
12,0,4.532
12,-2,4.533
8,-2,4.534
7,0,4.535
8,-1,4.536
8,-10,4.537
9,-13,4.538
14,-8,4.539
21,-4,4.54
19,-4,4.541
5,-6,4.542
-2,-4,4.543
1,-1,4.544
6,1,4.545
2,1,4.546
-4,3,4.547
-3,5,4.548
0,6,4.549
0,4,4.55
-2,3,4.551
-2,4,4.552
-2,8,4.553
-5,7,4.554
-8,5,4.555
-9,4,4.556
-10,1,4.557
-13,1,4.558
-11,1,4.559
-2,-1,4.56
2,0,4.561
-1,3,4.562
-4,8,4.563
-2,7,4.564
1,3,4.565
-2,1,4.566
-4,2,4.567
0,4,4.568
9,2,4.569
9,0,4.57
5,1,4.571
3,1,4.572
3,3,4.573
1,0,4.574
-2,-2,4.575
-5,-5,4.576
-5,-10,4.577
-3,-11,4.578
5,-8,4.579
12,-3,4.58
13,-1,4.581
10,-1,4.582
8,-4,4.583
11,-4,4.584
13,-4,4.585
11,-5,4.586
7,-5,4.587
5,-3,4.588
4,-1,4.589
4,0,4.59
4,-1,4.591
3,-3,4.592
1,-3,4.593
-1,-6,4.594
0,-8,4.595
1,-8,4.596
0,-10,4.597
-3,-9,4.598
0,-7,4.599
9,-5,4.6
11,-2,4.601
3,1,4.602
-4,2,4.603
-4,0,4.604
-1,-1,4.605
-2,-1,4.606
-5,3,4.607
-4,4,4.608
-4,2,4.609
-5,0,4.61
-4,2,4.611
3,4,4.612
9,4,4.613
5,1,4.614
0,0,4.615
1,0,4.616
3,-4,4.617
2,-6,4.618
3,-3,4.619
5,1,4.62
6,3,4.621
1,5,4.622
0,7,4.623
10,3,4.624
18,-4,4.625
18,-6,4.626
12,-1,4.627
10,1,4.628
8,-2,4.629
3,-3,4.63
-2,0,4.631
-3,3,4.632
1,1,4.633
1,-4,4.634
-3,-5,4.635
-8,-4,4.636
-9,-6,4.637
-4,-5,4.638
2,-1,4.639
6,0,4.64
2,-1,4.641
-7,-1,4.642
-13,0,4.643
-10,2,4.644
-4,2,4.645
-2,4,4.646
-4,4,4.647
-1,0,4.648
4,-2,4.649
3,0,4.65
0,2,4.651
3,1,4.652
14,0,4.653
21,0,4.654
17,0,4.655
8,-3,4.656
7,-8,4.657
11,-6,4.658
14,-3,4.659
13,-2,4.66
6,-1,4.661
1,2,4.662
-2,4,4.663
-1,1,4.664
-1,1,4.665
-2,5,4.666
-4,6,4.667
-1,2,4.668
3,-1,4.669
2,0,4.67
-3,2,4.671
-6,0,4.672
-5,-1,4.673
-5,0,4.674
-9,0,4.675
-14,-4,4.676
-13,-9,4.677
-6,-8,4.678
1,-6,4.679
6,-7,4.68
7,-3,4.681
6,1,4.682
7,4,4.683
4,0,4.684
-1,-2,4.685
-5,1,4.686
-4,5,4.687
5,5,4.688
14,3,4.689
18,3,4.69
20,2,4.691
20,-1,4.692
18,-2,4.693
14,-3,4.694
10,-5,4.695
5,-7,4.696
0,-9,4.697
-2,-7,4.698
3,-6,4.699
13,-4,4.7
16,-2,4.701
12,0,4.702
7,1,4.703
10,1,4.704
10,2,4.705
3,2,4.706
-1,2,4.707
1,1,4.708
0,2,4.709
-7,2,4.71
-14,0,4.711
-12,-2,4.712
-6,-1,4.713
-7,0,4.714
-11,-3,4.715
-11,-4,4.716
-10,-6,4.717
-10,-3,4.718
-7,-1,4.719
0,0,4.72
4,0,4.721
0,2,4.722
-3,2,4.723
0,-1,4.724
4,-2,4.725
1,0,4.726
-2,2,4.727
1,1,4.728
5,-2,4.729
5,0,4.73
1,4,4.731
1,2,4.732
5,-1,4.733
5,-3,4.734
2,0,4.735
-1,0,4.736
1,-5,4.737
5,-7,4.738
10,-5,4.739
13,-1,4.74
13,1,4.741
11,3,4.742
7,3,4.743
8,0,4.744
10,-3,4.745
9,-2,4.746
7,2,4.747
6,2,4.748
5,-2,4.749
1,-3,4.75
-1,-1,4.751
-1,1,4.752
-2,2,4.753
-5,-2,4.754
-10,-4,4.755
-10,-3,4.756
-8,-5,4.757
-5,-6,4.758
1,-6,4.759
6,-3,4.76
7,2,4.761
2,7,4.762
5,5,4.763
17,0,4.764
24,-2,4.765
17,0,4.766
8,2,4.767
10,3,4.768
16,3,4.769
10,3,4.77
1,2,4.771
-1,0,4.772
5,0,4.773
2,0,4.774
-5,0,4.775
-12,-2,4.776
-11,-7,4.777
-5,-8,4.778
0,-5,4.779
5,-3,4.78
5,-1,4.781
1,2,4.782
-3,5,4.783
-2,4,4.784
0,1,4.785
0,0,4.786
0,0,4.787
3,-2,4.788
7,-4,4.789
5,-2,4.79
4,0,4.791
5,0,4.792
6,0,4.793
6,-1,4.794
4,-1,4.795
0,-4,4.796
-1,-10,4.797
-1,-8,4.798
4,-3,4.799
12,0,4.8
14,2,4.801
8,2,4.802
3,0,4.803
0,-3,4.804
-3,-2,4.805
-7,0,4.806
-6,3,4.807
0,3,4.808
4,3,4.809
2,1,4.81
2,0,4.811
9,-1,4.812
11,-1,4.813
6,-2,4.814
1,-4,4.815
0,-6,4.816
-3,-7,4.817
-6,-6,4.818
-4,-3,4.819
2,1,4.82
4,3,4.821
0,3,4.822
0,0,4.823
5,-1,4.824
7,0,4.825
1,0,4.826
0,0,4.827
3,-2,4.828
4,-1,4.829
2,-1,4.83
0,-1,4.831
0,-1,4.832
1,0,4.833
-3,-2,4.834
-6,-4,4.835
-11,-5,4.836
-15,-6,4.837
-17,-3,4.838
-8,-3,4.839
3,0,4.84
6,2,4.841
1,3,4.842
1,1,4.843
8,-1,4.844
14,0,4.845
17,3,4.846
22,4,4.847
27,2,4.848
24,1,4.849
16,0,4.85
14,0,4.851
14,0,4.852
11,2,4.853
3,0,4.854
0,-2,4.855
-2,-3,4.856
-6,-7,4.857
-10,-8,4.858
-5,-9,4.859
2,-6,4.86
1,0,4.861
-6,6,4.862
-7,5,4.863
0,0,4.864
2,-3,4.865
-3,-1,4.866
-5,0,4.867
-3,-3,4.868
0,-5,4.869
0,-3,4.87
0,-1,4.871
0,-1,4.872
0,0,4.873
-5,-1,4.874
-8,0,4.875
-9,0,4.876
-9,-6,4.877
-10,-8,4.878
-4,-5,4.879
5,-2,4.88
7,0,4.881
2,2,4.882
-2,0,4.883
3,0,4.884
7,3,4.885
6,4,4.886
5,1,4.887
6,-2,4.888
7,0,4.889
4,2,4.89
5,0,4.891
12,-2,4.892
17,-3,4.893
17,-2,4.894
15,-2,4.895
14,-3,4.896
10,-5,4.897
5,-6,4.898
3,-5,4.899
6,-1,4.9
5,4,4.901
1,8,4.902
-1,6,4.903
1,2,4.904
5,-1,4.905
2,0,4.906
-1,2,4.907
0,3,4.908
4,-1,4.909
5,-4,4.91
2,-3,4.911
-1,-1,4.912
-2,0,4.913
-1,-3,4.914
0,-3,4.915
-1,0,4.916
-4,-2,4.917
-4,-5,4.918
0,-7,4.919
5,-3,4.92
4,4,4.921
0,4,4.922
-1,0,4.923
3,-2,4.924
4,-1,4.925
1,0,4.926
-1,-2,4.927
0,-3,4.928
0,-1,4.929
0,0,4.93
0,-2,4.931
0,-5,4.932
0,-1,4.933
-4,1,4.934
-5,1,4.935
-6,-2,4.936
-8,-6,4.937
-8,-3,4.938
0,1,4.939
8,0,4.94
7,0,4.941
0,2,4.942
-4,4,4.943
-1,1,4.944
3,-2,4.945
5,-1,4.946
9,1,4.947
15,0,4.948
16,-1,4.949
13,-3,4.95
9,-2,4.951
10,-1,4.952
11,0,4.953
5,0,4.954
2,-3,4.955
0,-6,4.956
0,-8,4.957
-1,-5,4.958
2,0,4.959
4,0,4.96
3,-1,4.961
-1,1,4.962
-2,4,4.963
0,2,4.964
0,-1,4.965
-2,-1,4.966
-1,0,4.967
2,-2,4.968
4,-6,4.969
2,-6,4.97
1,-2,4.971
6,0,4.972
9,0,4.973
3,-2,4.974
-3,-2,4.975
-5,-3,4.976
-4,-5,4.977
0,-5,4.978
3,-1,4.979
5,2,4.98
3,3,4.981
2,3,4.982
2,3,4.983
5,3,4.984
4,4,4.985
1,4,4.986
0,2,4.987
3,0,4.988
5,-3,4.989
3,-3,4.99
-2,-1,4.991
-5,0,4.992
-5,2,4.993
-7,-1,4.994
-7,-4,4.995
-9,-7,4.996
-10,-10,4.997
-5,-8,4.998
6,-3,4.999
19,1,5.0
22,2,5.001
20,0,5.002
19,-3,5.003
20,-6,5.004
17,-5,5.005
10,1,5.006
7,3,5.007
8,4,5.008
5,2,5.009
1,1,5.01
0,2,5.011
2,1,5.012
1,3,5.013
-5,0,5.014
-8,-4,5.015
-10,-5,5.016
-10,-7,5.017
-10,-4,5.018
-5,-1,5.019
0,0,5.02
0,0,5.021
-4,3,5.022
-5,4,5.023
-1,2,5.024
0,0,5.025
0,0,5.026
-1,2,5.027
0,1,5.028
1,0,5.029
-1,1,5.03
-3,4,5.031
-6,4,5.032
-6,4,5.033
-2,0,5.034
1,-4,5.035
-1,-6,5.036
-5,-7,5.037
-5,-6,5.038
1,-3,5.039
9,-4,5.04
8,-4,5.041
4,-1,5.042
3,1,5.043
6,1,5.044
8,0,5.045
5,0,5.046
7,1,5.047
9,2,5.048
8,0,5.049
8,-1,5.05
10,-2,5.051
12,-2,5.052
12,-1,5.053
7,-1,5.054
1,-1,5.055
-3,-4,5.056
-4,-8,5.057
-4,-7,5.058
0,-5,5.059
2,-2,5.06
3,0,5.061
2,4,5.062
3,5,5.063
5,0,5.064
8,-3,5.065
7,0,5.066
5,2,5.067
3,-1,5.068
2,-5,5.069
2,-2,5.07
3,1,5.071
3,1,5.072
2,1,5.073
0,0,5.074
-1,2,5.075
-4,1,5.076
-6,-4,5.077
-4,-5,5.078
5,-3,5.079
14,-1,5.08
16,3,5.081
11,9,5.082
7,10,5.083
5,4,5.084
3,0,5.085
-3,0,5.086
-6,2,5.087
-3,-1,5.088
-2,-6,5.089
-4,-6,5.09
-9,-3,5.091
-6,-2,5.092
-1,-1,5.093
4,-1,5.094
4,-4,5.095
0,-9,5.096
-3,-15,5.097
-2,-13,5.098
3,-6,5.099
9,-1,5.1
7,-1,5.101
0,-2,5.102
0,-2,5.103
5,1,5.104
8,4,5.105
3,5,5.106
-1,4,5.107
3,3,5.108
8,4,5.109
7,7,5.11
4,6,5.111
6,2,5.112
8,0,5.113
4,-3,5.114
-2,-4,5.115
-7,-3,5.116
-10,-2,5.117
-10,-2,5.118
-4,-4,5.119
4,-5,5.12
7,-2,5.121
1,0,5.122
0,0,5.123
2,0,5.124
4,4,5.125
2,5,5.126
1,1,5.127
6,-3,5.128
15,-2,5.129
19,1,5.13
19,0,5.131
16,-3,5.132
14,-3,5.133
6,-4,5.134
2,-5,5.135
-1,-8,5.136
-3,-11,5.137
-4,-10,5.138
0,-9,5.139
5,-5,5.14
5,0,5.141
4,3,5.142
4,2,5.143
2,-1,5.144
-1,-2,5.145
-2,0,5.146
2,0,5.147
4,0,5.148
2,-2,5.149
0,-2,5.15
2,-3,5.151
2,-1,5.152
-1,5,5.153
-6,8,5.154
-8,7,5.155
-8,1,5.156
-12,-5,5.157
-13,-3,5.158
-5,0,5.159
3,4,5.16
4,8,5.161
-3,11,5.162
-6,9,5.163
-5,4,5.164
-1,2,5.165
0,4,5.166
3,4,5.167
8,0,5.168
10,2,5.169
6,7,5.17
7,9,5.171
11,4,5.172
13,-1,5.173
10,-3,5.174
4,-3,5.175
-2,-2,5.176
-5,-8,5.177
-7,-10,5.178
-2,-9,5.179
7,-6,5.18
13,-3,5.181
12,0,5.182
10,-1,5.183
12,-3,5.184
15,-3,5.185
13,-1,5.186
10,-1,5.187
10,-1,5.188
12,0,5.189
10,1,5.19
3,2,5.191
0,-2,5.192
0,-5,5.193
0,-5,5.194
-1,-3,5.195
-5,-4,5.196
-7,-9,5.197
-5,-9,5.198
0,-6,5.199
7,-4,5.2
4,-6,5.201
0,-5,5.202
0,0,5.203
2,4,5.204
2,1,5.205
-1,-2,5.206
-1,-1,5.207
3,0,5.208
2,0,5.209
-2,-1,5.21
-2,-1,5.211
3,0,5.212
5,2,5.213
0,0,5.214
-3,-2,5.215
-6,-2,5.216
-9,-3,5.217
-11,-3,5.218
-5,-4,5.219
5,-3,5.22
11,0,5.221
6,3,5.222
2,2,5.223
4,1,5.224
7,3,5.225
9,7,5.226
10,9,5.227
12,4,5.228
8,0,5.229
1,-1,5.23
0,0,5.231
4,-1,5.232
7,-2,5.233
4,-4,5.234
1,-2,5.235
-1,-1,5.236
-5,-5,5.237
-9,-6,5.238
-4,-3,5.239
6,0,5.24
9,1,5.241
2,1,5.242
1,2,5.243
9,2,5.244
12,0,5.245
5,-1,5.246
0,-1,5.247
1,-1,5.248
3,0,5.249
-1,2,5.25
-3,2,5.251
0,0,5.252
3,0,5.253
0,0,5.254
-4,-1,5.255
-7,-4,5.256
-8,-10,5.257
-6,-9,5.258
0,-5,5.259
9,0,5.26
11,5,5.261
6,6,5.262
2,5,5.263
4,1,5.264
4,-1,5.265
1,1,5.266
0,3,5.267
4,1,5.268
4,0,5.269
0,0,5.27
-2,1,5.271
1,0,5.272
6,0,5.273
3,0,5.274
0,-1,5.275
-2,-3,5.276
-2,-7,5.277
0,-10,5.278
5,-7,5.279
11,-3,5.28
9,0,5.281
2,3,5.282
-3,3,5.283
-2,3,5.284
2,0,5.285
4,-2,5.286
4,0,5.287
2,1,5.288
1,0,5.289
1,-2,5.29
1,0,5.291
0,0,5.292
-1,-3,5.293
-3,-6,5.294
-2,-6,5.295
-4,-4,5.296
-8,-7,5.297
-8,-6,5.298
0,-4,5.299
13,0,5.3
17,5,5.301
10,7,5.302
4,4,5.303
8,-1,5.304
15,-3,5.305
14,0,5.306
9,3,5.307
4,2,5.308
4,-2,5.309
3,-3,5.31
1,-1,5.311
-1,-1,5.312
-5,0,5.313
-9,-2,5.314
-10,-1,5.315
-5,-2,5.316
-1,-6,5.317
1,-6,5.318
5,-4,5.319
11,-2,5.32
14,0,5.321
7,1,5.322
-1,2,5.323
-3,1,5.324
0,2,5.325
2,3,5.326
1,1,5.327
3,-2,5.328
4,-3,5.329
1,-1,5.33
-2,2,5.331
-1,1,5.332
3,-1,5.333
3,0,5.334
0,0,5.335
-4,-1,5.336
-5,-5,5.337
-8,-6,5.338
-9,-4,5.339
-3,0,5.34
4,5,5.341
6,7,5.342
1,4,5.343
0,0,5.344
3,-2,5.345
5,0,5.346
7,2,5.347
7,0,5.348
10,-1,5.349
10,-2,5.35
7,-3,5.351
6,-4,5.352
6,-2,5.353
3,-1,5.354
0,-2,5.355
-2,-5,5.356
-1,-7,5.357
0,-5,5.358
3,-3,5.359
7,-2,5.36
7,-1,5.361
1,1,5.362
-3,2,5.363
-2,0,5.364
2,0,5.365
2,2,5.366
2,3,5.367
2,1,5.368
4,0,5.369
0,2,5.37
-2,0,5.371
0,-2,5.372
4,-2,5.373
3,-1,5.374
0,-2,5.375
-5,-6,5.376
-7,-9,5.377
-7,-4,5.378
-2,0,5.379
5,0,5.38
8,0,5.381
5,4,5.382
5,6,5.383
10,3,5.384
10,0,5.385
5,2,5.386
0,4,5.387
2,2,5.388
4,-1,5.389
3,-1,5.39
2,-1,5.391
5,-4,5.392
7,-5,5.393
3,-5,5.394
-1,-1,5.395
-6,1,5.396
-10,-3,5.397
-10,-5,5.398
-4,-4,5.399
2,0,5.4
3,3,5.401
1,4,5.402
2,1,5.403
9,-1,5.404
13,-2,5.405
15,1,5.406
15,2,5.407
17,0,5.408
14,-2,5.409
6,-3,5.41
1,-3,5.411
1,-4,5.412
2,-4,5.413
1,-4,5.414
-2,-4,5.415
-6,-4,5.416
-10,-7,5.417
-11,-6,5.418
-7,-4,5.419
0,0,5.42
5,6,5.421
3,7,5.422
-1,4,5.423
-1,0,5.424
2,1,5.425
6,3,5.426
6,1,5.427
5,-3,5.428
5,-2,5.429
5,3,5.43
2,4,5.431
-3,0,5.432
-5,-2,5.433
-9,-4,5.434
-11,-3,5.435
-14,-4,5.436
-16,-7,5.437
-14,-8,5.438
-4,-8,5.439
11,-4,5.44
18,1,5.441
16,4,5.442
13,4,5.443
14,1,5.444
18,1,5.445
20,3,5.446
21,2,5.447
17,0,5.448
9,0,5.449
0,1,5.45
-1,0,5.451
2,-3,5.452
4,-2,5.453
-1,-1,5.454
-6,-1,5.455
-12,-6,5.456
-19,-12,5.457
-21,-10,5.458
-15,-4,5.459
-6,1,5.46
-4,1,5.461
-8,1,5.462
-7,2,5.463
0,3,5.464
9,4,5.465
17,5,5.466
22,6,5.467
23,5,5.468
19,1,5.469
12,-1,5.47
10,-2,5.471
12,-2,5.472
14,0,5.473
13,0,5.474
8,0,5.475
0,-3,5.476
-10,-8,5.477
-12,-7,5.478
-6,-2,5.479
2,0,5.48
3,0,5.481
-1,2,5.482
-2,2,5.483
0,0,5.484
-1,-3,5.485
-5,0,5.486
-5,4,5.487
-3,3,5.488
-2,0,5.489
-6,0,5.49
-6,3,5.491
-2,3,5.492
2,1,5.493
1,-2,5.494
-2,-5,5.495
-8,-6,5.496
-9,-8,5.497
-6,-5,5.498
0,-2,5.499
9,-3,5.5
11,-4,5.501
7,-1,5.502
4,2,5.503
7,2,5.504
10,0,5.505
9,2,5.506
7,4,5.507
5,1,5.508
2,0,5.509
-3,0,5.51
-4,1,5.511
-3,-2,5.512
1,-3,5.513
1,-3,5.514
-1,-2,5.515
-3,-3,5.516
-5,-7,5.517
-6,-6,5.518
-1,-3,5.519
8,0,5.52
12,2,5.521
5,3,5.522
1,0,5.523
4,-2,5.524
8,-2,5.525
8,1,5.526
6,2,5.527
8,1,5.528
7,2,5.529
5,3,5.53
3,1,5.531
4,-3,5.532
8,-4,5.533
8,-2,5.534
9,-1,5.535
5,-5,5.536
-3,-12,5.537
-8,-13,5.538
0,-9,5.539
13,-4,5.54
14,0,5.541
6,5,5.542
2,7,5.543
6,4,5.544
10,0,5.545
8,0,5.546
7,0,5.547
6,0,5.548
3,0,5.549
0,1,5.55
1,2,5.551
2,-1,5.552
0,-4,5.553
-5,-3,5.554
-8,-2,5.555
-10,-2,5.556
-12,-6,5.557
-9,-6,5.558
1,-5,5.559
12,-4,5.56
15,0,5.561
10,4,5.562
6,6,5.563
4,5,5.564
-1,4,5.565
-5,4,5.566
-2,5,5.567
3,4,5.568
3,4,5.569
-3,3,5.57
-4,1,5.571
-4,-2,5.572
-5,-2,5.573
-7,-3,5.574
-6,-2,5.575
-4,-3,5.576
-7,-6,5.577
-8,-7,5.578
1,-6,5.579
18,-3,5.58
27,0,5.581
23,3,5.582
19,3,5.583
16,2,5.584
12,3,5.585
8,4,5.586
4,3,5.587
4,1,5.588
0,1,5.589
-2,2,5.59
-3,-1,5.591
-1,-3,5.592
1,-2,5.593
0,-5,5.594
-1,-9,5.595
-1,-11,5.596
1,-9,5.597
2,-6,5.598
3,-5,5.599
3,-3,5.6
4,-2,5.601
3,3,5.602
2,4,5.603
2,4,5.604
2,3,5.605
3,0,5.606
0,-2,5.607
-2,-1,5.608
-3,0,5.609
-3,-1,5.61
-2,-4,5.611
0,-6,5.612
1,-2,5.613
0,-2,5.614
-2,-2,5.615
-7,-5,5.616
-9,-7,5.617
-6,-7,5.618
-2,-3,5.619
6,1,5.62
9,4,5.621
4,4,5.622
1,2,5.623
3,-2,5.624
7,-2,5.625
5,0,5.626
0,4,5.627
0,3,5.628
3,0,5.629
5,-2,5.63
5,-1,5.631
3,0,5.632
4,0,5.633
2,-1,5.634
-2,-1,5.635
-5,-1,5.636
-6,-5,5.637
-6,-5,5.638
0,-4,5.639
4,-4,5.64
4,-3,5.641
4,1,5.642
4,4,5.643
4,6,5.644
8,4,5.645
12,3,5.646
12,1,5.647
10,0,5.648
6,0,5.649
2,0,5.65
0,0,5.651
-1,-2,5.652
0,-2,5.653
2,-4,5.654
0,-5,5.655
-2,-5,5.656
-1,-7,5.657
3,-8,5.658
7,-6,5.659
10,-4,5.66
8,2,5.661
3,5,5.662
0,2,5.663
0,-2,5.664
2,-4,5.665
0,0,5.666
0,2,5.667
0,0,5.668
1,-2,5.669
-1,-1,5.67
-3,-2,5.671
-2,-3,5.672
2,-4,5.673
3,-2,5.674
0,-1,5.675
-3,-3,5.676
-4,-6,5.677
-4,-3,5.678
0,1,5.679
5,1,5.68
7,0,5.681
3,2,5.682
1,2,5.683
1,0,5.684
0,0,5.685
-2,2,5.686
-1,2,5.687
4,-2,5.688
7,-6,5.689
4,-2,5.69
2,3,5.691
2,3,5.692
5,0,5.693
5,-5,5.694
3,-5,5.695
-1,-5,5.696
-5,-8,5.697
-5,-7,5.698
1,-5,5.699
12,-1,5.7
15,1,5.701
9,0,5.702
3,-2,5.703
3,-3,5.704
4,-1,5.705
4,3,5.706
4,4,5.707
6,1,5.708
5,0,5.709
0,3,5.71
-2,6,5.711
-2,3,5.712
0,0,5.713
-2,-2,5.714
-5,-1,5.715
-8,1,5.716
-6,-3,5.717
-3,-5,5.718
6,-6,5.719
14,-5,5.72
14,0,5.721
14,2,5.722
13,1,5.723
12,-3,5.724
12,-4,5.725
11,-1,5.726
7,2,5.727
4,1,5.728
6,0,5.729
8,0,5.73
4,1,5.731
0,0,5.732
1,-2,5.733
3,-6,5.734
-1,-8,5.735
-5,-8,5.736
-8,-9,5.737
-6,-7,5.738
0,-6,5.739
7,-4,5.74
8,-2,5.741
0,1,5.742
-3,2,5.743
1,0,5.744
6,1,5.745
3,6,5.746
-1,8,5.747
-3,5,5.748
-4,3,5.749
-7,2,5.75
-8,4,5.751
-5,5,5.752
-1,6,5.753
-3,7,5.754
-10,8,5.755
-13,5,5.756
-11,-2,5.757
-7,-4,5.758
-3,-1,5.759
1,5,5.76
5,7,5.761
7,3,5.762
9,-1,5.763
11,-2,5.764
9,0,5.765
7,0,5.766
6,-2,5.767
9,-3,5.768
9,-4,5.769
5,-2,5.77
2,-3,5.771
0,-5,5.772
0,-3,5.773
-3,-4,5.774
-6,-4,5.775
-7,-3,5.776
-6,-4,5.777
-3,-5,5.778
0,-4,5.779
3,0,5.78
2,5,5.781
-1,7,5.782
-2,6,5.783
0,3,5.784
2,1,5.785
3,2,5.786
3,9,5.787
8,21,5.788
18,29,5.789
21,26,5.79
17,8,5.791
11,-14,5.792
9,-32,5.793
8,-45,5.794
3,-49,5.795
-3,-47,5.796
-5,-35,5.797
0,-16,5.798
6,-1,5.799
9,3,5.8
8,1,5.801
8,0,5.802
12,1,5.803
17,7,5.804
18,25,5.805
14,60,5.806
10,96,5.807
4,106,5.808
-1,72,5.809
-5,4,5.81
-8,-66,5.811
-6,-113,5.812
-4,-130,5.813
-7,-127,5.814
-8,-95,5.815
-11,-37,5.816
-14,16,5.817
-14,36,5.818
-5,26,5.819
7,20,5.82
9,31,5.821
2,39,5.822
-2,31,5.823
1,19,5.824
5,18,5.825
0,20,5.826
-4,16,5.827
-3,11,5.828
1,10,5.829
1,8,5.83
1,3,5.831
6,2,5.832
13,8,5.833
14,9,5.834
10,5,5.835
4,-5,5.836
-1,-16,5.837
-3,-21,5.838
0,-22,5.839
6,-17,5.84
3,-13,5.841
-3,-7,5.842
-5,0,5.843
-2,7,5.844
0,9,5.845
-1,5,5.846
2,0,5.847
11,0,5.848
12,2,5.849
1,2,5.85
-5,0,5.851
-3,-2,5.852
2,1,5.853
5,1,5.854
5,0,5.855
4,-1,5.856
1,-2,5.857
-1,0,5.858
1,0,5.859
9,0,5.86
10,3,5.861
4,2,5.862
1,-2,5.863
8,-5,5.864
14,-2,5.865
11,0,5.866
5,-2,5.867
4,-4,5.868
7,-2,5.869
5,1,5.87
0,3,5.871
-5,3,5.872
-4,3,5.873
-2,2,5.874
4,-1,5.875
5,-6,5.876
2,-9,5.877
-1,-7,5.878
2,-5,5.879
11,-4,5.88
16,-2,5.881
10,-2,5.882
1,-2,5.883
-2,-3,5.884
-1,0,5.885
-1,4,5.886
-4,9,5.887
-5,10,5.888
-5,13,5.889
-5,16,5.89
-4,20,5.891
0,25,5.892
4,25,5.893
3,8,5.894
-1,-20,5.895
-5,-42,5.896
-8,-53,5.897
-8,-49,5.898
-4,-40,5.899
1,-15,5.9
3,30,5.901
3,78,5.902
5,105,5.903
9,98,5.904
9,59,5.905
4,-5,5.906
3,-80,5.907
4,-133,5.908
4,-143,5.909
1,-113,5.91
0,-61,5.911
4,-8,5.912
8,26,5.913
7,27,5.914
8,14,5.915
10,15,5.916
6,29,5.917
-1,34,5.918
-4,25,5.919
3,21,5.92
11,28,5.921
6,28,5.922
1,16,5.923
5,6,5.924
14,8,5.925
14,10,5.926
7,7,5.927
0,3,5.928
-3,3,5.929
-8,2,5.93
-10,-2,5.931
-7,-5,5.932
-2,-2,5.933
-1,-5,5.934
0,-9,5.935
0,-13,5.936
2,-13,5.937
2,-10,5.938
10,-3,5.939
21,3,5.94
25,7,5.941
16,11,5.942
2,13,5.943
0,14,5.944
4,8,5.945
4,4,5.946
0,3,5.947
1,1,5.948
4,-1,5.949
1,-3,5.95
-6,0,5.951
-11,3,5.952
-8,7,5.953
-7,11,5.954
-6,11,5.955
-6,14,5.956
-8,10,5.957
-10,0,5.958
-7,-12,5.959
2,-17,5.96
11,-18,5.961
9,-25,5.962
3,-41,5.963
4,-51,5.964
10,-48,5.965
13,-39,5.966
11,-30,5.967
10,-21,5.968
9,-8,5.969
2,1,5.97
-7,5,5.971
-13,5,5.972
-12,10,5.973
-8,12,5.974
-5,12,5.975
-3,13,5.976
-1,14,5.977
1,21,5.978
3,28,5.979
7,36,5.98
9,43,5.981
5,36,5.982
1,13,5.983
1,-15,5.984
3,-31,5.985
5,-36,5.986
6,-35,5.987
6,-28,5.988
6,-11,5.989
7,7,5.99
8,12,5.991
8,9,5.992
8,9,5.993
7,13,5.994
7,12,5.995
2,4,5.996
-4,-1,5.997
-8,3,5.998
-3,7,5.999
6,3,6.0
9,1,6.001
4,4,6.002
0,2,6.003
-1,-3,6.004
-1,-3,6.005
-5,3,6.006
-9,8,6.007
-8,12,6.008
2,20,6.009
9,27,6.01
12,20,6.011
14,5,6.012
16,-2,6.013
9,-5,6.014
0,-12,6.015
-8,-23,6.016
-11,-29,6.017
-13,-25,6.018
-14,-19,6.019
-9,-20,6.02
-2,-18,6.021
2,-10,6.022
5,-3,6.023
12,-3,6.024
21,-5,6.025
23,-3,6.026
18,0,6.027
14,3,6.028
15,4,6.029
15,5,6.03
13,6,6.031
11,8,6.032
7,11,6.033
2,10,6.034
-4,3,6.035
-13,-5,6.036
-19,-5,6.037
-21,17,6.038
-19,56,6.039
-14,92,6.04
-9,99,6.041
-1,60,6.042
12,-13,6.043
25,-86,6.044
28,-127,6.045
24,-131,6.046
22,-108,6.047
22,-64,6.048
16,-7,6.049
-2,34,6.05
-19,37,6.051
-25,22,6.052
-23,23,6.053
-18,33,6.054
-15,27,6.055
-15,0,6.056
-16,-23,6.057
-13,-23,6.058
-3,-20,6.059
7,-18,6.06
10,-7,6.061
8,13,6.062
5,23,6.063
4,15,6.064
5,9,6.065
10,15,6.066
20,18,6.067
26,9,6.068
22,2,6.069
11,8,6.07
3,11,6.071
-1,4,6.072
-5,-3,6.073
-8,-6,6.074
-5,-3,6.075
-3,-1,6.076
-5,-5,6.077
-5,-2,6.078
6,2,6.079
22,8,6.08
20,8,6.081
1,5,6.082
-13,-1,6.083
-15,-8,6.084
-14,-8,6.085
-16,-5,6.086
-9,-1,6.087
8,0,6.088
18,-1,6.089
13,-3,6.09
2,-3,6.091
0,-3,6.092
6,-4,6.093
6,-5,6.094
4,-3,6.095
4,-1,6.096
7,-4,6.097
6,-4,6.098
4,0,6.099
3,4,6.1
1,4,6.101
-1,1,6.102
-1,1,6.103
4,0,6.104
8,-3,6.105
6,-4,6.106
4,0,6.107
5,2,6.108
11,0,6.109
14,-5,6.11
15,-5,6.111
13,-1,6.112
5,1,6.113
-4,-1,6.114
-10,-2,6.115
-9,0,6.116
-7,-4,6.117
-6,-7,6.118
1,-6,6.119
14,-1,6.12
20,4,6.121
18,6,6.122
17,5,6.123
19,3,6.124
16,7,6.125
0,18,6.126
-18,33,6.127
-24,35,6.128
-20,21,6.129
-13,-6,6.13
-3,-33,6.131
10,-47,6.132
23,-47,6.133
29,-42,6.134
22,-32,6.135
7,-19,6.136
-4,-9,6.137
-3,-5,6.138
12,-6,6.139
28,0,6.14
26,13,6.141
6,23,6.142
-10,19,6.143
-5,11,6.144
2,9,6.145
-9,9,6.146
-36,6,6.147
-54,2,6.148
-54,3,6.149
-55,6,6.15
-61,4,6.151
-61,2,6.152
-45,6,6.153
-26,7,6.154
-5,6,6.155
21,0,6.156
47,-8,6.157
58,-7,6.158
51,0,6.159
39,11,6.16
28,14,6.161
16,6,6.162
9,-5,6.163
13,-10,6.164
18,-8,6.165
17,-5,6.166
12,-5,6.167
0,-6,6.168
-12,-4,6.169
-22,-5,6.17
-18,-7,6.171
-3,-8,6.172
2,-7,6.173
-13,-8,6.174
-36,-11,6.175
-46,-11,6.176
-35,-9,6.177
-9,-5,6.178
31,-1,6.179
84,3,6.18
133,7,6.181
153,9,6.182
126,9,6.183
64,9,6.184
3,10,6.185
-33,6,6.186
-55,-2,6.187
-71,-7,6.188
-82,1,6.189
-82,16,6.19
-72,24,6.191
-57,15,6.192
-39,3,6.193
-19,-6,6.194
1,-8,6.195
13,-7,6.196
17,-12,6.197
19,-15,6.198
28,-12,6.199
41,-6,6.2
51,0,6.201
56,9,6.202
57,18,6.203
56,26,6.204
42,26,6.205
18,18,6.206
2,10,6.207
2,3,6.208
2,2,6.209
-10,6,6.21
-27,3,6.211
-35,-14,6.212
-34,-40,6.213
-30,-61,6.214
-27,-65,6.215
-26,-56,6.216
-31,-47,6.217
-36,-32,6.218
-29,-15,6.219
-8,-4,6.22
23,-3,6.221
50,1,6.222
67,15,6.223
64,32,6.224
44,38,6.225
20,37,6.226
12,35,6.227
24,27,6.228
29,12,6.229
11,-4,6.23
-18,-13,6.231
-44,-8,6.232
-57,10,6.233
-61,37,6.234
-52,66,6.235
-39,86,6.236
-24,78,6.237
-2,54,6.238
34,-15,6.239
65,-79,6.24
61,-125,6.241
34,-153,6.242
19,-126,6.243
26,-91,6.244
34,-31,6.245
19,17,6.246
-11,25,6.247
-39,30,6.248
-57,27,6.249
-56,26,6.25
-42,31,6.251
-28,35,6.252
-19,34,6.253
-11,33,6.254
2,29,6.255
11,13,6.256
1,4,6.257
-17,12,6.258
-22,14,6.259
-6,3,6.26
15,-1,6.261
26,9,6.262
29,14,6.263
35,4,6.264
40,-3,6.265
28,-2,6.266
-2,-2,6.267
-24,-12,6.268
-18,-15,6.269
8,-10,6.27
30,-4,6.271
38,-3,6.272
40,1,6.273
35,4,6.274
21,0,6.275
7,-3,6.276
-10,-3,6.277
-21,-4,6.278
-14,-4,6.279
-8,-4,6.28
-2,-2,6.281
1,-1,6.282
-3,-1,6.283
-7,0,6.284
-6,2,6.285
-2,3,6.286
11,0,6.287
22,-1,6.288
23,0,6.289
23,1,6.29
19,-3,6.291
14,-7,6.292
12,-7,6.293
9,-6,6.294
-3,2,6.295
-14,5,6.296
-11,-1,6.297
6,-6,6.298
31,-6,6.299
43,-2,6.3
35,0,6.301
30,0,6.302
49,0,6.303
70,3,6.304
43,3,6.305
-34,-4,6.306
-103,-9,6.307
-119,-9,6.308
-95,-4,6.309
-75,4,6.31
-71,11,6.311
-64,13,6.312
-43,13,6.313
-12,7,6.314
15,3,6.315
21,6,6.316
12,14,6.317
5,19,6.318
18,13,6.319
36,-5,6.32
38,-25,6.321
25,-42,6.322
22,-51,6.323
33,-49,6.324
43,-34,6.325
38,-12,6.326
29,3,6.327
27,4,6.328
28,2,6.329
32,6,6.33
37,14,6.331
38,16,6.332
27,13,6.333
0,13,6.334
-27,15,6.335
-47,10,6.336
-60,-3,6.337
-69,-8,6.338
-64,-6,6.339
-44,-5,6.34
-16,-9,6.341
10,-10,6.342
32,-1,6.343
46,10,6.344
42,17,6.345
15,21,6.346
-11,26,6.347
-13,27,6.348
3,15,6.349
19,-3,6.35
21,-13,6.351
19,-12,6.352
19,-6,6.353
18,-4,6.354
14,-5,6.355
3,-6,6.356
-12,-8,6.357
-25,-6,6.358
-22,-3,6.359
-7,1,6.36
0,4,6.361
-6,4,6.362
-10,3,6.363
1,1,6.364
12,0,6.365
9,-3,6.366
7,-5,6.367
15,-6,6.368
21,-7,6.369
19,-7,6.37
13,-6,6.371
13,-4,6.372
13,-2,6.373
3,-2,6.374
-10,-2,6.375
-20,-4,6.376
-22,-7,6.377
-18,-7,6.378
-1,-4,6.379
21,0,6.38
33,6,6.381
33,9,6.382
30,10,6.383
27,5,6.384
16,0,6.385
-4,0,6.386
-14,2,6.387
-5,0,6.388
5,-6,6.389
1,-9,6.39
-8,-5,6.391
2,-3,6.392
43,-7,6.393
102,-13,6.394
137,-11,6.395
106,-8,6.396
27,-8,6.397
-36,-4,6.398
-55,0,6.399
-68,2,6.4
-108,0,6.401
-149,0,6.402
-148,8,6.403
-112,21,6.404
-84,31,6.405
-73,36,6.406
-57,33,6.407
-33,20,6.408
-11,6,6.409
5,0,6.41
26,2,6.411
45,1,6.412
52,-4,6.413
44,-10,6.414
33,-9,6.415
26,-7,6.416
21,-12,6.417
18,-17,6.418
26,-16,6.419
46,-14,6.42
75,-15,6.421
99,-18,6.422
98,-18,6.423
64,-13,6.424
18,-7,6.425
-13,0,6.426
-24,4,6.427
-19,5,6.428
7,2,6.429
48,-1,6.43
66,-1,6.431
36,2,6.432
-7,7,6.433
-33,10,6.434
-41,10,6.435
-54,4,6.436
-65,-5,6.437
-48,-6,6.438
-11,-4,6.439
16,-4,6.44
29,-7,6.441
48,-12,6.442
65,-16,6.443
51,-15,6.444
12,-8,6.445
-14,4,6.446
-12,20,6.447
-11,41,6.448
-29,61,6.449
-42,71,6.45
-30,69,6.451
-12,60,6.452
-6,52,6.453
-12,32,6.454
-9,-5,6.455
6,-49,6.456
30,-79,6.457
53,-84,6.458
66,-81,6.459
51,-71,6.46
9,-45,6.461
-29,-6,6.462
-48,15,6.463
-60,3,6.464
-76,-23,6.465
-78,-36,6.466
-43,-29,6.467
15,-19,6.468
48,-13,6.469
29,-7,6.47
-10,0,6.471
-27,5,6.472
-17,6,6.473
-2,3,6.474
4,6,6.475
11,18,6.476
23,43,6.477
30,78,6.478
23,107,6.479
11,100,6.48
4,48,6.481
1,-29,6.482
1,-95,6.483
5,-126,6.484
9,-119,6.485
7,-83,6.486
5,-31,6.487
6,15,6.488
8,36,6.489
6,33,6.49
10,31,6.491
15,35,6.492
16,36,6.493
6,26,6.494
2,20,6.495
6,18,6.496
10,11,6.497
6,0,6.498
8,-1,6.499
14,6,6.5
11,9,6.501
-2,6,6.502
-6,3,6.503
-1,5,6.504
3,5,6.505
0,1,6.506
-1,-1,6.507
8,0,6.508
14,0,6.509
17,2,6.51
29,6,6.511
52,5,6.512
68,-1,6.513
65,-8,6.514
45,-8,6.515
8,-10,6.516
-38,-14,6.517
-73,-16,6.518
-72,-10,6.519
-44,-5,6.52
-19,-3,6.521
-6,-1,6.522
12,1,6.523
23,6,6.524
0,14,6.525
-48,19,6.526
-77,15,6.527
-68,9,6.528
-51,0,6.529
-45,-7,6.53
-35,-5,6.531
-3,-3,6.532
29,-5,6.533
38,-8,6.534
32,-8,6.535
33,-8,6.536
40,-9,6.537
42,-6,6.538
38,-6,6.539
39,-5,6.54
40,-3,6.541
35,-1,6.542
29,-3,6.543
21,-8,6.544
4,-11,6.545
-19,-11,6.546
-33,-13,6.547
-37,-16,6.548
-38,-10,6.549
-36,8,6.55
-28,26,6.551
-13,26,6.552
1,13,6.553
6,-1,6.554
13,-5,6.555
20,-3,6.556
24,-5,6.557
20,-3,6.558
13,0,6.559
-1,5,6.56
-17,4,6.561
-26,-1,6.562
-20,-6,6.563
-7,-7,6.564
0,-7,6.565
13,-7,6.566
38,-6,6.567
55,-4,6.568
42,0,6.569
13,3,6.57
-2,2,6.571
-3,-1,6.572
-5,-2,6.573
-13,-3,6.574
-6,-4,6.575
10,-6,6.576
10,-7,6.577
-2,-4,6.578
-4,-2,6.579
4,-1,6.58
4,5,6.581
-6,14,6.582
-7,12,6.583
5,-4,6.584
14,-17,6.585
11,-15,6.586
5,-4,6.587
1,3,6.588
-4,5,6.589
-9,9,6.59
-8,12,6.591
1,14,6.592
8,18,6.593
7,18,6.594
1,16,6.595
-4,10,6.596
-4,0,6.597
3,-6,6.598
16,-12,6.599
24,-16,6.6
19,-13,6.601
9,-6,6.602
0,-1,6.603
1,-1,6.604
7,-3,6.605
14,-4,6.606
17,-2,6.607
12,0,6.608
2,0,6.609
-3,-2,6.61
-3,-7,6.611
-3,-7,6.612
-6,-3,6.613
-7,-1,6.614
-6,0,6.615
-10,-1,6.616
-17,-5,6.617
-17,-7,6.618
-8,-8,6.619
2,-7,6.62
6,-4,6.621
3,0,6.622
3,1,6.623
6,-1,6.624
11,-1,6.625
14,0,6.626
15,1,6.627
8,4,6.628
-1,11,6.629
0,14,6.63
11,8,6.631
21,-2,6.632
20,-6,6.633
8,-4,6.634
-7,-5,6.635
-25,-6,6.636
-41,-9,6.637
-43,-7,6.638
-26,-7,6.639
-3,-9,6.64
9,-6,6.641
5,6,6.642
-3,14,6.643
-10,10,6.644
-13,1,6.645
-13,2,6.646
-3,6,6.647
10,8,6.648
14,6,6.649
7,4,6.65
0,2,6.651
4,-1,6.652
15,-2,6.653
20,-6,6.654
16,-10,6.655
5,-11,6.656
-2,-13,6.657
-1,-9,6.658
7,-7,6.659
17,-5,6.66
20,2,6.661
14,9,6.662
7,6,6.663
3,0,6.664
2,-1,6.665
1,0,6.666
6,-1,6.667
18,-3,6.668
28,-3,6.669
25,-1,6.67
13,-6,6.671
-1,-11,6.672
-7,-11,6.673
-7,-7,6.674
-3,-3,6.675
1,-2,6.676
4,2,6.677
3,10,6.678
1,14,6.679
2,13,6.68
1,9,6.681
-2,6,6.682
-4,5,6.683
-1,4,6.684
0,3,6.685
-2,0,6.686
-3,-2,6.687
-4,-1,6.688
-7,0,6.689
-13,0,6.69
-13,-3,6.691
-2,-6,6.692
10,-4,6.693
14,-4,6.694
10,-2,6.695
3,1,6.696
-4,-1,6.697
-5,-3,6.698
1,-6,6.699
12,-6,6.7
13,-5,6.701
6,-5,6.702
3,-5,6.703
8,-1,6.704
10,3,6.705
7,6,6.706
5,2,6.707
8,0,6.708
10,0,6.709
6,0,6.71
0,0,6.711
-2,1,6.712
0,3,6.713
0,0,6.714
-1,-2,6.715
-7,-2,6.716
-13,-4,6.717
-13,-6,6.718
-3,-7,6.719
6,-4,6.72
7,2,6.721
0,5,6.722
-2,6,6.723
1,6,6.724
5,5,6.725
4,3,6.726
4,-2,6.727
7,-3,6.728
10,-3,6.729
9,-5,6.73
6,-9,6.731
2,-10,6.732
-2,-7,6.733
-6,-6,6.734
-5,-9,6.735
-4,-10,6.736
-6,-7,6.737
-8,-3,6.738
-4,0,6.739
4,2,6.74
6,7,6.741
4,8,6.742
4,3,6.743
11,-5,6.744
14,-5,6.745
7,1,6.746
2,4,6.747
4,0,6.748
5,-3,6.749
-1,0,6.75
-7,4,6.751
-5,4,6.752
0,1,6.753
0,-2,6.754
0,-2,6.755
5,-4,6.756
12,-10,6.757
15,-13,6.758
17,-10,6.759
19,-5,6.76
18,0,6.761
8,4,6.762
-2,5,6.763
-5,4,6.764
-6,8,6.765
-9,15,6.766
-7,17,6.767
4,11,6.768
18,0,6.769
23,-6,6.77
17,-6,6.771
9,-3,6.772
6,0,6.773
4,-2,6.774
1,-6,6.775
-4,-7,6.776
-8,-7,6.777
-5,-4,6.778
3,-5,6.779
6,-1,6.78
1,6,6.781
-2,10,6.782
-2,4,6.783
0,-2,6.784
1,0,6.785
2,7,6.786
1,8,6.787
0,5,6.788
-3,-1,6.789
-4,-4,6.79
-5,-5,6.791
-5,-3,6.792
-4,1,6.793
-2,0,6.794
-1,-2,6.795
-4,-3,6.796
-10,-4,6.797
-7,-3,6.798
5,-4,6.799
13,-3,6.8
8,1,6.801
0,5,6.802
2,2,6.803
11,-4,6.804
13,-7,6.805
8,-2,6.806
5,4,6.807
4,4,6.808
3,-1,6.809
0,-7,6.81
0,-8,6.811
1,-6,6.812
2,-4,6.813
-1,-3,6.814
-3,-4,6.815
-8,-4,6.816
-16,-5,6.817
-20,-1,6.818
-16,2,6.819
-4,2,6.82
10,-1,6.821
18,-1,6.822
25,4,6.823
26,8,6.824
20,7,6.825
8,3,6.826
3,0,6.827
9,-2,6.828
14,-3,6.829
11,-5,6.83
2,-4,6.831
-1,-1,6.832
2,0,6.833
2,-4,6.834
0,-5,6.835
-2,-1,6.836
-5,0,6.837
-5,-1,6.838
1,-4,6.839
11,-4,6.84
14,1,6.841
4,6,6.842
-3,5,6.843
0,-1,6.844
6,-3,6.845
2,-1,6.846
-6,2,6.847
-4,1,6.848
5,-2,6.849
7,-2,6.85
-3,0,6.851
-12,2,6.852
-10,2,6.853
-7,0,6.854
-11,0,6.855
-21,0,6.856
-25,-1,6.857
-16,-2,6.858
3,-5,6.859
24,-7,6.86
33,-6,6.861
26,-4,6.862
17,-4,6.863
15,-3,6.864
17,2,6.865
13,8,6.866
3,10,6.867
1,4,6.868
6,-3,6.869
8,-4,6.87
11,-4,6.871
15,-7,6.872
17,-8,6.873
9,-9,6.874
-3,-6,6.875
-10,-2,6.876
-11,-4,6.877
-10,-6,6.878
-6,-4,6.879
-1,0,6.88
0,3,6.881
-6,4,6.882
-10,5,6.883
-6,7,6.884
-1,7,6.885
-3,5,6.886
-8,4,6.887
-7,3,6.888
-4,2,6.889
-6,2,6.89
-7,2,6.891
0,1,6.892
5,3,6.893
1,2,6.894
-2,0,6.895
0,-5,6.896
8,-12,6.897
9,-13,6.898
13,-7,6.899
24,-4,6.9
27,-4,6.901
16,-3,6.902
4,-1,6.903
6,2,6.904
9,2,6.905
0,-1,6.906
-10,-3,6.907
-10,-3,6.908
-3,1,6.909
-4,5,6.91
-9,4,6.911
-9,0,6.912
-5,0,6.913
-8,1,6.914
-14,2,6.915
-14,-2,6.916
-6,-10,6.917
7,-12,6.918
19,-10,6.919
26,-7,6.92
20,0,6.921
7,8,6.922
3,10,6.923
9,4,6.924
14,1,6.925
13,3,6.926
14,4,6.927
19,0,6.928
17,-1,6.929
5,2,6.93
-4,5,6.931
-4,1,6.932
-3,-2,6.933
-6,-2,6.934
-12,0,6.935
-14,1,6.936
-8,-4,6.937
1,-8,6.938
14,-6,6.939
20,-4,6.94
14,-2,6.941
0,0,6.942
-6,1,6.943
-4,3,6.944
-1,1,6.945
-5,0,6.946
-8,0,6.947
-3,1,6.948
-1,1,6.949
-5,0,6.95
-9,0,6.951
-3,-1,6.952
7,-3,6.953
14,-6,6.954
10,-5,6.955
3,-5,6.956
-2,-8,6.957
-4,-6,6.958
-3,0,6.959
1,4,6.96
6,3,6.961
7,2,6.962
8,1,6.963
10,0,6.964
10,0,6.965
5,7,6.966
-1,10,6.967
-3,7,6.968
-3,0,6.969
-3,-1,6.97
-2,3,6.971
4,3,6.972
13,-1,6.973
15,-7,6.974
8,-10,6.975
-1,-9,6.976
1,-11,6.977
14,-13,6.978
24,-11,6.979
21,-5,6.98
8,3,6.981
-2,7,6.982
-3,5,6.983
0,3,6.984
0,4,6.985
0,5,6.986
3,3,6.987
3,0,6.988
-2,0,6.989
-5,3,6.99
-6,5,6.991
-7,4,6.992
-6,0,6.993
-5,-3,6.994
-6,-4,6.995
-12,-5,6.996
-18,-8,6.997
-14,-10,6.998
3,-11,6.999
23,-9,7.0
25,-6,7.001
13,-2,7.002
3,0,7.003
4,-2,7.004
10,-1,7.005
5,3,7.006
-3,6,7.007
-5,5,7.008
-5,5,7.009
-8,7,7.01
-10,7,7.011
-3,2,7.012
6,-1,7.013
4,-2,7.014
-2,-1,7.015
-6,-1,7.016
0,-7,7.017
4,-7,7.018
6,-1,7.019
12,4,7.02
17,6,7.021
17,6,7.022
15,5,7.023
13,2,7.024
7,0,7.025
-1,0,7.026
-5,0,7.027
-5,-2,7.028
-4,-5,7.029
-5,-6,7.03
-5,-7,7.031
-1,-9,7.032
2,-6,7.033
1,-3,7.034
0,-2,7.035
0,-6,7.036
-1,-10,7.037
2,-9,7.038
14,-4,7.039
28,-5,7.04
32,-2,7.041
19,5,7.042
4,9,7.043
0,9,7.044
-1,7,7.045
-5,7,7.046
-9,5,7.047
-7,-4,7.048
-1,-11,7.049
9,-14,7.05
18,-15,7.051
22,-19,7.052
17,-19,7.053
0,-15,7.054
-16,-8,7.055
-28,-5,7.056
-36,-3,7.057
-42,5,7.058
-37,13,7.059
-20,16,7.06
-2,17,7.061
12,16,7.062
14,17,7.063
9,14,7.064
7,12,7.065
15,11,7.066
33,7,7.067
45,-4,7.068
38,-10,7.069
20,-7,7.07
8,-5,7.071
7,-5,7.072
11,-3,7.073
8,5,7.074
1,19,7.075
-2,31,7.076
-5,34,7.077
-3,38,7.078
4,39,7.079
14,29,7.08
12,5,7.081
0,-21,7.082
-6,-43,7.083
-4,-58,7.084
0,-66,7.085
-1,-73,7.086
-5,-74,7.087
-6,-63,7.088
-10,-46,7.089
-19,-31,7.09
-26,-21,7.091
-24,-8,7.092
-15,8,7.093
-2,22,7.094
6,25,7.095
6,21,7.096
3,16,7.097
3,16,7.098
15,18,7.099
28,22,7.1
30,26,7.101
21,25,7.102
13,17,7.103
14,11,7.104
14,10,7.105
7,12,7.106
-2,8,7.107
-10,4,7.108
-16,5,7.109
-17,7,7.11
-14,7,7.111
-8,6,7.112
-10,9,7.113
-18,11,7.114
-22,13,7.115
-15,10,7.116
-1,-2,7.117
14,-11,7.118
28,-14,7.119
34,-9,7.12
25,-2,7.121
7,7,7.122
-4,31,7.123
-1,87,7.124
3,168,7.125
1,225,7.126
-1,207,7.127
-1,112,7.128
0,-8,7.129
-1,-108,7.13
-1,-186,7.131
2,-251,7.132
3,-284,7.133
0,-269,7.134
0,-208,7.135
0,-136,7.136
-1,-76,7.137
-4,-26,7.138
-4,14,7.139
0,40,7.14
0,54,7.141
-7,60,7.142
-8,62,7.143
5,62,7.144
24,62,7.145
35,62,7.146
36,54,7.147
28,38,7.148
15,30,7.149
2,41,7.15
-6,67,7.151
-6,93,7.152
-3,102,7.153
3,83,7.154
17,37,7.155
30,-16,7.156
37,-63,7.157
36,-100,7.158
34,-128,7.159
34,-133,7.16
28,-108,7.161
13,-71,7.162
-8,-44,7.163
-26,-18,7.164
-39,15,7.165
-47,38,7.166
-47,34,7.167
-38,28,7.168
-25,44,7.169
-21,65,7.17
-14,60,7.171
1,37,7.172
23,28,7.173
32,34,7.174
24,42,7.175
12,43,7.176
7,49,7.177
7,67,7.178
0,87,7.179
-16,95,7.18
-37,89,7.181
-50,59,7.182
-47,3,7.183
-31,-63,7.184
-17,-113,7.185
-15,-132,7.186
-22,-117,7.187
-24,-82,7.188
-11,-39,7.189
20,12,7.19
53,74,7.191
72,124,7.192
68,134,7.193
45,93,7.194
20,39,7.195
0,1,7.196
-15,-27,7.197
-19,-59,7.198
-8,-77,7.199
14,-62,7.2
28,-34,7.201
24,-35,7.202
14,-65,7.203
11,-103,7.204
14,-141,7.205
15,-180,7.206
10,-191,7.207
3,-150,7.208
0,-75,7.209
1,-3,7.21
1,45,7.211
-3,61,7.212
-11,41,7.213
-17,13,7.214
-21,37,7.215
-25,100,7.216
-27,113,7.217
-20,46,7.218
0,-25,7.219
25,-31,7.22
40,-10,7.221
43,-14,7.222
34,-24,7.223
21,0,7.224
5,33,7.225
-4,35,7.226
-5,21,7.227
-2,18,7.228
-4,14,7.229
-9,2,7.23
-13,7,7.231
-14,42,7.232
-13,71,7.233
-7,68,7.234
5,54,7.235
15,44,7.236
13,44,7.237
5,42,7.238
5,36,7.239
11,31,7.24
9,31,7.241
-1,33,7.242
-6,41,7.243
-2,43,7.244
3,24,7.245
3,5,7.246
4,-13,7.247
9,-26,7.248
8,-20,7.249
-3,-13,7.25
-18,-5,7.251
-26,2,7.252
-29,8,7.253
-30,16,7.254
-30,20,7.255
-27,6,7.256
-19,-40,7.257
-18,-98,7.258
-26,-130,7.259
-31,-125,7.26
-28,-97,7.261
-22,-67,7.262
-16,-36,7.263
0,-3,7.264
33,21,7.265
73,39,7.266
101,66,7.267
111,112,7.268
105,163,7.269
95,184,7.27
80,154,7.271
61,90,7.272
35,28,7.273
1,-42,7.274
-23,-103,7.275
-37,-140,7.276
-43,-130,7.277
-44,-104,7.278
-38,-114,7.279
-31,-143,7.28
-29,-116,7.281
-28,-31,7.282
-22,21,7.283
-10,2,7.284
-4,-24,7.285
-4,-10,7.286
0,-3,7.287
13,-39,7.288
17,-69,7.289
7,-47,7.29
-5,-14,7.291
-4,-9,7.292
7,-4,7.293
16,30,7.294
17,65,7.295
4,63,7.296
-10,42,7.297
-18,47,7.298
-13,64,7.299
-6,63,7.3
-10,50,7.301
-16,41,7.302
-10,38,7.303
3,32,7.304
9,31,7.305
0,41,7.306
-10,48,7.307
-12,54,7.308
-12,73,7.309
-15,105,7.31
-16,137,7.311
-10,164,7.312
1,184,7.313
10,172,7.314
8,127,7.315
-3,89,7.316
-14,100,7.317
-16,122,7.318
-7,43,7.319
8,-162,7.32
20,-379,7.321
19,-496,7.322
11,-539,7.323
-2,-574,7.324
-15,-554,7.325
-26,-379,7.326
-24,-107,7.327
-9,70,7.328
11,79,7.329
21,58,7.33
19,131,7.331
17,234,7.332
20,265,7.333
25,238,7.334
22,225,7.335
4,207,7.336
-14,126,7.337
-19,29,7.338
-12,7,7.339
-3,33,7.34
7,5,7.341
27,-80,7.342
45,-130,7.343
38,-112,7.344
4,-82,7.345
-23,-62,7.346
-17,-20,7.347
18,39,7.348
66,65,7.349
125,60,7.35
177,76,7.351
179,119,7.352
125,144,7.353
52,126,7.354
7,95,7.355
-10,66,7.356
-32,23,7.357
-51,-23,7.358
-46,-47,7.359
-34,-44,7.36
-44,-34,7.361
-63,-23,7.362
-62,3,7.363
-48,53,7.364
-48,114,7.365
-53,158,7.366
-33,151,7.367
1,81,7.368
13,-23,7.369
-7,-110,7.37
-25,-167,7.371
-27,-210,7.372
-22,-227,7.373
-28,-197,7.374
-37,-128,7.375
-39,-69,7.376
-36,-39,7.377
-34,-5,7.378
-31,41,7.379
-25,73,7.38
-17,74,7.381
-11,66,7.382
-4,56,7.383
-1,44,7.384
-4,45,7.385
-13,86,7.386
-14,151,7.387
-8,175,7.388
0,114,7.389
1,-8,7.39
-5,-119,7.391
-9,-151,7.392
1,-102,7.393
26,-31,7.394
52,-21,7.395
55,-77,7.396
39,-130,7.397
32,-132,7.398
51,-128,7.399
80,-154,7.4
83,-147,7.401
59,-35,7.402
26,123,7.403
5,212,7.404
-8,224,7.405
-22,277,7.406
-36,443,7.407
-43,636,7.408
-40,687,7.409
-33,469,7.41
-27,8,7.411
-19,-505,7.412
-6,-847,7.413
5,-985,7.414
18,-966,7.415
24,-809,7.416
20,-492,7.417
2,-106,7.418
-14,128,7.419
-14,138,7.42
-2,103,7.421
11,188,7.422
27,330,7.423
59,398,7.424
93,389,7.425
100,341,7.426
78,239,7.427
59,99,7.428
61,17,7.429
56,17,7.43
28,12,7.431
-1,-23,7.432
-8,-17,7.433
-14,43,7.434
-31,70,7.435
-48,32,7.436
-40,17,7.437
-25,75,7.438
-23,112,7.439
-34,60,7.44
-34,-16,7.441
-22,-20,7.442
-14,45,7.443
-18,115,7.444
-24,133,7.445
-26,64,7.446
-27,-81,7.447
-34,-227,7.448
-49,-297,7.449
-64,-298,7.45
-64,-274,7.451
-43,-216,7.452
-12,-110,7.453
11,5,7.454
23,61,7.455
35,57,7.456
58,47,7.457
83,56,7.458
89,58,7.459
69,52,7.46
32,64,7.461
-1,81,7.462
-17,71,7.463
-20,52,7.464
-28,67,7.465
-46,114,7.466
-62,146,7.467
-61,130,7.468
-42,88,7.469
-17,53,7.47
3,16,7.471
17,-53,7.472
23,-138,7.473
29,-189,7.474
36,-146,7.475
39,-21,7.476
32,122,7.477
23,204,7.478
26,140,7.479
41,-73,7.48
43,-298,7.481
28,-388,7.482
13,-354,7.483
13,-294,7.484
11,-212,7.485
-9,-56,7.486
-24,106,7.487
-12,173,7.488
8,220,7.489
4,386,7.49
-11,595,7.491
-11,627,7.492
-2,450,7.493
-8,179,7.494
-27,-89,7.495
-48,-367,7.496
-64,-592,7.497
-79,-619,7.498
-80,-466,7.499
-62,-308,7.5
-43,-220,7.501
-40,-116,7.502
-39,37,7.503
-15,144,7.504
33,165,7.505
87,193,7.506
138,259,7.507
177,262,7.508
187,158,7.509
159,52,7.51
109,29,7.511
65,20,7.512
34,-36,7.513
2,-77,7.514
-33,-38,7.515
-58,-7,7.516
-62,-3,7.517
-46,5,7.518
-29,22,7.519
-23,35,7.52
-31,39,7.521
-45,33,7.522
-50,0,7.523
-38,-25,7.524
-16,-17,7.525
1,-8,7.526
8,1,7.527
0,12,7.528
-19,30,7.529
-34,44,7.53
-31,45,7.531
-9,48,7.532
9,56,7.533
1,61,7.534
-20,47,7.535
-36,39,7.536
-32,65,7.537
-21,92,7.538
-8,37,7.539
1,-100,7.54
10,-221,7.541
19,-258,7.542
31,-250,7.543
40,-232,7.544
36,-178,7.545
18,-79,7.546
7,10,7.547
14,57,7.548
35,91,7.549
48,124,7.55
43,102,7.551
27,44,7.552
10,60,7.553
-8,228,7.554
-22,445,7.555
-40,555,7.556
-66,343,7.557
-92,123,7.558
-118,-122,7.559
-136,-263,7.56
-128,-89,7.561
-112,18,7.562
-78,-75,7.563
-41,-200,7.564
5,-413,7.565
61,-617,7.566
142,-791,7.567
206,-818,7.568
215,-403,7.569
206,-62,7.57
138,56,7.571
81,168,7.572
57,258,7.573
40,355,7.574
60,401,7.575
63,343,7.576
34,287,7.577
-13,248,7.578
-44,173,7.579
-49,110,7.58
-59,115,7.581
-97,124,7.582
-138,82,7.583
-131,51,7.584
-68,73,7.585
6,66,7.586
45,-6,7.587
39,-58,7.588
3,-43,7.589
-43,-31,7.59
-74,-64,7.591
-75,-82,7.592
-57,-55,7.593
-36,-47,7.594
2,-79,7.595
96,-88,7.596
227,-71,7.597
318,-79,7.598
312,-108,7.599
229,-87,7.6
124,-11,7.601
34,55,7.602
-28,78,7.603
-65,91,7.604
-78,109,7.605
-81,111,7.606
-80,88,7.607
-80,61,7.608
-88,47,7.609
-114,40,7.61
-153,38,7.611
-172,39,7.612
-151,35,7.613
-102,15,7.614
-50,-9,7.615
-12,-31,7.616
16,-55,7.617
37,-67,7.618
46,-41,7.619
42,35,7.62
29,113,7.621
12,95,7.622
4,-75,7.623
20,-305,7.624
51,-420,7.625
62,-359,7.626
39,-232,7.627
8,-156,7.628
-6,-108,7.629
-13,-19,7.63
-21,99,7.631
-18,197,7.632
5,267,7.633
30,317,7.634
32,309,7.635
20,235,7.636
13,157,7.637
9,122,7.638
3,89,7.639
-5,30,7.64
-17,-11,7.641
-34,-9,7.642
-50,-7,7.643
-46,-38,7.644
-27,-61,7.645
-15,-44,7.646
-15,-6,7.647
-14,55,7.648
-4,149,7.649
12,205,7.65
25,102,7.651
32,-164,7.652
27,-403,7.653
16,-478,7.654
11,-389,7.655
11,-272,7.656
6,-205,7.657
-4,-146,7.658
-6,-35,7.659
3,133,7.66
10,304,7.661
5,389,7.662
-1,290,7.663
-1,-4,7.664
0,-315,7.665
-5,-405,7.666
-14,-234,7.667
-20,-4,7.668
-20,101,7.669
-19,121,7.67
-18,174,7.671
-24,233,7.672
-31,213,7.673
-34,130,7.674
-22,91,7.675
-4,91,7.676
12,18,7.677
23,-105,7.678
31,-92,7.679
39,137,7.68
48,357,7.681
58,272,7.682
59,-85,7.683
47,-378,7.684
27,-371,7.685
11,-179,7.686
4,-34,7.687
0,21,7.688
-2,93,7.689
3,188,7.69
15,209,7.691
29,135,7.692
40,63,7.693
46,29,7.694
49,1,7.695
44,-12,7.696
36,78,7.697
29,282,7.698
25,388,7.699
10,171,7.7
-25,-287,7.701
-63,-629,7.702
-83,-625,7.703
-82,-413,7.704
-76,-271,7.705
-69,-253,7.706
-46,-213,7.707
-2,-59,7.708
40,146,7.709
57,299,7.71
46,333,7.711
25,266,7.712
9,214,7.713
0,246,7.714
-5,202,7.715
-10,-171,7.716
-16,-732,7.717
-20,-919,7.718
-10,-470,7.719
0,181,7.72
13,512,7.721
24,593,7.722
24,743,7.723
21,823,7.724
9,455,7.725
-6,-208,7.726
-26,-546,7.727
-38,-353,7.728
-21,-133,7.729
-8,-326,7.73
-8,-652,7.731
-12,-539,7.732
-26,14,7.733
-36,568,7.734
-21,690,7.735
-10,481,7.736
-1,328,7.737
21,336,7.738
64,252,7.739
97,-77,7.74
94,-417,7.741
62,-483,7.742
32,-351,7.743
18,-301,7.744
14,-327,7.745
7,-164,7.746
3,206,7.747
7,463,7.748
11,433,7.749
6,319,7.75
-5,283,7.751
-17,185,7.752
-24,-11,7.753
-25,-74,7.754
-19,157,7.755
-15,408,7.756
-25,377,7.757
-47,205,7.758
-58,81,7.759
-48,-178,7.76
-32,-688,7.761
-19,-1005,7.762
-3,-712,7.763
22,-167,7.764
40,-17,7.765
39,-208,7.766
34,-186,7.767
37,129,7.768
38,323,7.769
30,247,7.77
25,150,7.771
35,101,7.772
42,-27,7.773
26,-188,7.774
2,-164,7.775
-11,-42,7.776
-13,-120,7.777
-20,-350,7.778
-29,-383,7.779
-28,-152,7.78
-27,42,7.781
-34,40,7.782
-42,14,7.783
-40,110,7.784
-32,215,7.785
-29,204,7.786
-29,134,7.787
-23,125,7.788
-7,175,7.789
18,190,7.79
45,118,7.791
58,5,7.792
57,-27,7.793
48,137,7.794
46,456,7.795
40,632,7.796
19,374,7.797
-7,-177,7.798
-14,-533,7.799
-3,-424,7.8
5,-120,7.801
3,2,7.802
3,-50,7.803
14,-42,7.804
23,48,7.805
26,65,7.806
26,7,7.807
24,10,7.808
12,71,7.809
-9,53,7.81
-26,-108,7.811
-35,-389,7.812
-43,-735,7.813
-57,-1043,7.814
-71,-984,7.815
-76,-434,7.816
-76,227,7.817
-78,525,7.818
-80,490,7.819
-71,494,7.82
-45,600,7.821
-8,529,7.822
28,251,7.823
57,95,7.824
79,183,7.825
104,245,7.826
137,151,7.827
163,127,7.828
167,283,7.829
148,388,7.83
116,305,7.831
77,203,7.832
33,181,7.833
-7,67,7.834
-28,-194,7.835
-37,-383,7.836
-50,-394,7.837
-66,-437,7.838
-64,-606,7.839
-40,-609,7.84
-20,-278,7.841
-21,49,7.842
-31,31,7.843
-36,-136,7.844
-32,-64,7.845
-31,173,7.846
-27,211,7.847
-17,46,7.848
-3,24,7.849
9,216,7.85
18,319,7.851
22,221,7.852
20,188,7.853
5,381,7.854
-9,534,7.855
-15,332,7.856
-12,-92,7.857
-7,-339,7.858
-2,-288,7.859
4,-170,7.86
4,-184,7.861
-6,-281,7.862
-18,-316,7.863
-24,-262,7.864
-21,-201,7.865
-11,-189,7.866
1,-208,7.867
5,-210,7.868
-4,-185,7.869
-20,-159,7.87
-29,-123,7.871
-31,-10,7.872
-20,181,7.873
1,371,7.874
31,410,7.875
47,309,7.876
40,208,7.877
28,158,7.878
26,33,7.879
30,-236,7.88
26,-501,7.881
15,-541,7.882
4,-319,7.883
-4,7,7.884
-20,260,7.885
-37,366,7.886
-38,338,7.887
-23,230,7.888
-9,113,7.889
-3,55,7.89
13,73,7.891
47,101,7.892
82,54,7.893
91,-77,7.894
64,-167,7.895
19,-107,7.896
-18,31,7.897
-31,95,7.898
-22,65,7.899
-9,66,7.9
-5,136,7.901
-10,145,7.902
-11,10,7.903
-3,-135,7.904
4,-148,7.905
1,-79,7.906
-3,-77,7.907
0,-163,7.908
13,-213,7.909
19,-126,7.91
10,39,7.911
-6,96,7.912
-17,-84,7.913
-24,-419,7.914
-28,-557,7.915
-32,-263,7.916
-30,265,7.917
-24,636,7.918
-13,718,7.919
6,681,7.92
27,634,7.921
43,496,7.922
52,237,7.923
58,-28,7.924
58,-235,7.925
49,-414,7.926
29,-525,7.927
8,-441,7.928
-14,-203,7.929
-33,-28,7.93
-43,-38,7.931
-37,-159,7.932
-25,-290,7.933
-23,-386,7.934
-27,-309,7.935
-27,28,7.936
-21,423,7.937
-11,537,7.938
0,322,7.939
9,25,7.94
15,-193,7.941
14,-339,7.942
16,-323,7.943
21,-7,7.944
18,440,7.945
7,634,7.946
1,463,7.947
11,196,7.948
24,42,7.949
17,-58,7.95
0,-166,7.951
-4,-205,7.952
5,-159,7.953
14,-157,7.954
12,-344,7.955
5,-753,7.956
-4,-1270,7.957
-20,-1532,7.958
-28,-1096,7.959
-19,20,7.96
-8,1106,7.961
-16,1462,7.962
-33,1162,7.963
-35,789,7.964
-15,582,7.965
13,320,7.966
41,-124,7.967
63,-560,7.968
67,-766,7.969
43,-649,7.97
13,-206,7.971
-3,373,7.972
-7,712,7.973
-12,642,7.974
-15,383,7.975
-9,239,7.976
-2,182,7.977
3,45,7.978
15,-111,7.979
36,-121,7.98
40,-50,7.981
20,-57,7.982
-3,-109,7.983
-5,-122,7.984
1,-221,7.985
-4,-485,7.986
-17,-623,7.987
-23,-324,7.988
-25,206,7.989
-33,470,7.99
-35,312,7.991
-22,-75,7.992
-1,-553,7.993
6,-1059,7.994
-1,-1090,7.995
-15,-219,7.996
-18,1046,7.997
-7,1672,7.998
11,1394,7.999
26,925,8.0
31,740,8.001
29,542,8.002
27,130,8.003
22,-174,8.004
12,-238,8.005
7,-404,8.006
19,-735,8.007
39,-798,8.008
45,-490,8.009
22,-298,8.01
-11,-448,8.011
-28,-579,8.012
-25,-491,8.013
-21,-416,8.014
-18,-442,8.015
-14,-255,8.016
-14,241,8.017
-24,622,8.018
-38,495,8.019
-38,-83,8.02
-20,-811,8.021
0,-1243,8.022
17,-834,8.023
30,475,8.024
32,1837,8.025
18,2283,8.026
0,1777,8.027
-7,1004,8.028
-1,411,8.029
15,35,8.03
32,-63,8.031
45,92,8.032
49,154,8.033
38,-146,8.034
28,-531,8.035
17,-655,8.036
-2,-725,8.037
-22,-1100,8.038
-25,-1532,8.039
-15,-1441,8.04
-15,-771,8.041
-26,-76,8.042
-28,143,8.043
-22,-97,8.044
-25,-355,8.045
-35,-167,8.046
-26,433,8.047
2,858,8.048
22,646,8.049
15,-3,8.05
0,-589,8.051
-4,-824,8.052
0,-556,8.053
3,411,8.054
2,1603,8.055
-2,1944,8.056
-6,998,8.057
-2,-264,8.058
16,-644,8.059
36,-97,8.06
44,576,8.061
44,800,8.062
44,458,8.063
41,-343,8.064
28,-1166,8.065
15,-1351,8.066
16,-723,8.067
17,133,8.068
3,537,8.069
-19,362,8.07
-30,-61,8.071
-29,-342,8.072
-30,-335,8.073
-39,-299,8.074
-41,-744,8.075
-42,-1680,8.076
-54,-2191,8.077
-69,-1391,8.078
-62,381,8.079
-34,1905,8.08
-7,2473,8.081
7,2343,8.082
19,1967,8.083
36,1489,8.084
52,930,8.085
66,314,8.086
81,-324,8.087
90,-682,8.088
83,-278,8.089
62,671,8.09
42,1011,8.091
26,-3,8.092
8,-1535,8.093
-17,-2504,8.094
-42,-2558,8.095
-57,-2140,8.096
-60,-1344,8.097
-58,25,8.098
-58,1451,8.099
-65,2065,8.1
-62,1924,8.101
-34,1783,8.102
15,1705,8.103
55,1052,8.104
73,-101,8.105
83,-759,8.106
92,-529,8.107
80,-377,8.108
41,-1235,8.109
0,-2487,8.11
-15,-2572,8.111
-15,-972,8.112
-18,962,8.113
-29,1879,8.114
-36,1470,8.115
-40,659,8.116
-41,114,8.117
-23,-502,8.118
17,-1565,8.119
40,-2563,8.12
17,-2531,8.121
-23,-1086,8.122
-34,1136,8.123
-23,2859,8.124
-31,3135,8.125
-49,2244,8.126
-41,1375,8.127
1,1155,8.128
42,961,8.129
60,-20,8.13
60,-1628,8.131
49,-2943,8.132
26,-3191,8.133
3,-1973,8.134
2,350,8.135
17,2405,8.136
21,2719,8.137
5,1433,8.138
-6,161,8.139
6,-85,8.14
30,93,8.141
45,-98,8.142
42,-437,8.143
24,-496,8.144
0,-578,8.145
-23,-1034,8.146
-36,-1427,8.147
-37,-1203,8.148
-27,-638,8.149
-18,-409,8.15
-18,-532,8.151
-27,-366,8.152
-38,328,8.153
-39,1152,8.154
-24,1356,8.155
-4,661,8.156
8,-640,8.157
12,-2075,8.158
14,-3038,8.159
18,-2698,8.16
14,-654,8.161
-6,2172,8.162
-24,-150,8.163
-25,-133,8.164
-10,2890,8.165
10,1734,8.166
32,865,8.167
59,119,8.168
79,-425,8.169
75,-662,8.17
43,-841,8.171
8,-1191,8.172
-15,-1487,8.173
-25,-1390,8.174
-30,-976,8.175
-36,-580,8.176
-42,-242,8.177
-42,56,8.178
-28,236,8.179
-4,406,8.18
15,542,8.181
20,573,8.182
16,285,8.183
17,-32,8.184
27,-438,8.185
35,-855,8.186
37,-1300,8.187
26,-1500,8.188
-2,-963,8.189
-31,-232,8.19
-44,1080,8.191
-35,1961,8.192
-17,1551,8.193
-3,923,8.194
5,-121,8.195
10,-266,8.196
16,269,8.197
17,431,8.198
15,-353,8.199
11,-1482,8.2
3,-1937,8.201
-2,-1336,8.202
-5,-118,8.203
-4,988,8.204
-6,1495,8.205
-11,1428,8.206
-12,1166,8.207
-5,931,8.208
6,534,8.209
16,-186,8.21
15,-914,8.211
5,-1189,8.212
0,-999,8.213
5,-611,8.214
15,-191,8.215
12,290,8.216
1,716,8.217
-6,777,8.218
-1,370,8.219
7,-127,8.22
6,-238,8.221
0,78,8.222
3,387,8.223
10,286,8.224
12,-195,8.225
8,-678,8.226
8,-769,8.227
17,-323,8.228
20,432,8.229
16,973,8.23
8,860,8.231
4,172,8.232
5,-517,8.233
3,-856,8.234
1,-936,8.235
0,-1166,8.236
-7,-1572,8.237
-20,-1514,8.238
-27,-419,8.239
-24,1250,8.24
-14,2202,8.241
-6,1746,8.242
-4,645,8.243
-4,107,8.244
2,304,8.245
15,463,8.246
24,157,8.247
24,-267,8.248
18,-450,8.249
15,-453,8.25
13,-384,8.251
6,-236,8.252
-4,-175,8.253
-15,-461,8.254
-19,-926,8.255
-20,-969,8.256
-18,-291,8.257
-13,684,8.258
-4,1319,8.259
1,1359,8.26
8,950,8.261
20,341,8.262
32,-279,8.263
30,-821,8.264
14,-1221,8.265
-1,-1292,8.266
-5,-812,8.267
-4,93,8.268
-4,842,8.269
-4,962,8.27
0,576,8.271
7,126,8.272
13,-149,8.273
17,-313,8.274
17,-372,8.275
10,-291,8.276
0,-114,8.277
-3,101,8.278
0,342,8.279
9,563,8.28
15,669,8.281
14,641,8.282
3,520,8.283
-6,279,8.284
-6,-129,8.285
-1,-587,8.286
-2,-817,8.287
-10,-598,8.288
-14,20,8.289
-12,644,8.29
-11,770,8.291
-11,310,8.292
-4,-211,8.293
8,-345,8.294
14,-117,8.295
3,74,8.296
-6,43,8.297
-5,-120,8.298
5,-388,8.299
16,-707,8.3
16,-797,8.301
9,-470,8.302
1,-4,8.303
-4,208,8.304
-4,187,8.305
-1,183,8.306
2,198,8.307
3,65,8.308
0,-192,8.309
-6,-453,8.31
-12,-709,8.311
-12,-863,8.312
-6,-640,8.313
0,107,8.314
0,953,8.315
-4,1321,8.316
-2,1146,8.317
9,796,8.318
28,509,8.319
40,287,8.32
38,135,8.321
24,74,8.322
12,5,8.323
2,-183,8.324
-6,-468,8.325
-17,-755,8.326
-24,-942,8.327
-23,-850,8.328
-19,-393,8.329
-17,171,8.33
-15,428,8.331
-12,295,8.332
-8,61,8.333
-3,-16,8.334
8,105,8.335
16,242,8.336
12,420,8.337
0,453,8.338
0,43,8.339
16,-348,8.34
31,-684,8.341
30,-939,8.342
18,-953,8.343
6,-706,8.344
-6,324,8.345
-17,1179,8.346
-20,1505,8.347
-10,1582,8.348
-2,908,8.349
0,260,8.35
-3,-305,8.351
-7,-704,8.352
-17,-602,8.353
-28,-432,8.354
-31,-125,8.355
-24,-2,8.356
-13,5,8.357
-6,-20,8.358
9,-71,8.359
33,-78,8.36
45,23,8.361
36,125,8.362
19,73,8.363
12,-107,8.364
16,-265,8.365
19,-307,8.366
17,-192,8.367
14,73,8.368
12,284,8.369
5,106,8.37
-6,-491,8.371
-9,-1027,8.372
-4,-999,8.373
0,-346,8.374
0,483,8.375
-6,976,8.376
-10,958,8.377
-8,626,8.378
-2,273,8.379
6,37,8.38
16,-130,8.381
22,-284,8.382
19,-372,8.383
5,-335,8.384
-6,-210,8.385
-11,-74,8.386
-7,45,8.387
-2,157,8.388
0,237,8.389
1,227,8.39
3,78,8.391
9,-177,8.392
14,-362,8.393
14,-301,8.394
5,8,8.395
-10,325,8.396
-23,433,8.397
-23,375,8.398
-8,293,8.399
12,208,8.4
22,74,8.401
26,-55,8.402
31,-95,8.403
35,-80,8.404
24,-108,8.405
0,-197,8.406
-21,-303,8.407
-20,-413,8.408
-8,-507,8.409
-2,-487,8.41
-8,-250,8.411
-11,170,8.412
-7,550,8.413
-11,666,8.414
-26,420,8.415
-40,5,8.416
-32,-253,8.417
-5,-241,8.418
23,-141,8.419
43,-97,8.42
51,-65,8.421
49,-40,8.422
41,-168,8.423
34,-421,8.424
27,-444,8.425
13,-10,8.426
-9,557,8.427
-32,738,8.428
-49,447,8.429
-62,49,8.43
-65,-169,8.431
-49,-216,8.432
-12,-156,8.433
18,-35,8.434
24,-3,8.435
14,-154,8.436
13,-235,8.437
24,102,8.438
33,718,8.439
33,1049,8.44
29,841,8.441
19,393,8.442
9,47,8.443
7,-172,8.444
12,-319,8.445
7,-343,8.446
-8,-271,8.447
-19,-260,8.448
-16,-355,8.449
-11,-436,8.45
-16,-433,8.451
-16,-364,8.452
-2,-209,8.453
11,24,8.454
17,162,8.455
21,189,8.456
19,-120,8.457
16,-340,8.458
8,-285,8.459
0,-237,8.46
-6,-209,8.461
-13,-246,8.462
-18,-480,8.463
-19,-524,8.464
-4,4,8.465
7,512,8.466
8,958,8.467
14,1160,8.468
30,626,8.469
46,206,8.47
62,128,8.471
72,59,8.472
61,15,8.473
41,-49,8.474
-2,-181,8.475
-28,-357,8.476
-32,-463,8.477
-25,-236,8.478
-19,287,8.479
-11,629,8.48
-11,471,8.481
-23,103,8.482
-40,-57,8.483
-55,-72,8.484
-61,-232,8.485
-55,-483,8.486
-33,-547,8.487
-11,-435,8.488
-3,-412,8.489
-6,-509,8.49
-5,-431,8.491
0,25,8.492
0,620,8.493
-2,970,8.494
10,810,8.495
38,345,8.496
69,42,8.497
95,64,8.498
102,133,8.499
85,33,8.5
46,-90,8.501
8,-77,8.502
-15,-55,8.503
-34,-149,8.504
-59,-205,8.505
-77,-88,8.506
-77,20,8.507
-68,-78,8.508
-61,-241,8.509
-45,-237,8.51
-16,-141,8.511
13,-181,8.512
26,-355,8.513
28,-477,8.514
29,-387,8.515
26,-109,8.516
22,209,8.517
27,423,8.518
47,453,8.519
63,332,8.52
60,132,8.521
48,-67,8.522
35,-166,8.523
19,-90,8.524
-9,79,8.525
-30,164,8.526
-36,127,8.527
-33,105,8.528
-36,141,8.529
-38,96,8.53
-33,-114,8.531
-26,-385,8.532
-24,-559,8.533
-21,-603,8.534
-15,-568,8.535
-13,-535,8.536
-24,-507,8.537
-27,-342,8.538
-1,234,8.539
22,760,8.54
38,1132,8.541
50,1324,8.542
52,977,8.543
53,703,8.544
50,645,8.545
45,523,8.546
39,209,8.547
36,-37,8.548
44,-77,8.549
50,-136,8.55
46,-252,8.551
36,-334,8.552
6,-311,8.553
-31,-300,8.554
-90,-351,8.555
-110,-348,8.556
-81,-267,8.557
-42,-206,8.558
-31,-207,8.559
-30,-195,8.56
-11,-161,8.561
20,-181,8.562
35,-252,8.563
30,-279,8.564
19,-210,8.565
20,-100,8.566
25,-10,8.567
18,33,8.568
-8,-7,8.569
-31,-114,8.57
-30,-144,8.571
-10,25,8.572
1,262,8.573
-3,310,8.574
-6,99,8.575
5,-110,8.576
18,-81,8.577
18,90,8.578
15,184,8.579
18,197,8.58
16,221,8.581
10,187,8.582
18,-8,8.583
38,-244,8.584
35,-292,8.585
-4,-139,8.586
-42,45,8.587
-40,159,8.588
-7,223,8.589
20,231,8.59
26,163,8.591
29,76,8.592
48,34,8.593
21,1,8.594
24,-60,8.595
39,-108,8.596
88,-98,8.597
114,-71,8.598
65,-73,8.599
15,-56,8.6
-33,17,8.601
-66,83,8.602
-45,73,8.603
-25,0,8.604
-10,-100,8.605
-1,-229,8.606
-5,-332,8.607
-16,-304,8.608
-47,-150,8.609
-63,-4,8.61
-32,93,8.611
-8,214,8.612
-4,337,8.613
20,332,8.614
23,216,8.615
37,118,8.616
84,79,8.617
108,29,8.618
62,-55,8.619
15,-77,8.62
-32,92,8.621
-63,193,8.622
-43,84,8.623
-24,-28,8.624
-10,-149,8.625
-1,-264,8.626
-5,-360,8.627
-16,-376,8.628
-45,-152,8.629
-60,27,8.63
-31,68,8.631
-8,103,8.632
-4,119,8.633
2,134,8.634
16,169,8.635
32,279,8.636
27,383,8.637
5,325,8.638
-2,132,8.639
18,8,8.64
48,7,8.641
63,-2,8.642
64,-69,8.643
70,-104,8.644
76,-86,8.645
60,-119,8.646
25,-231,8.647
6,-326,8.648
16,-324,8.649
17,-209,8.65
-17,-13,8.651
-63,168,8.652
-68,220,8.653
-33,125,8.654
8,1,8.655
25,-58,8.656
22,-77,8.657
9,-81,8.658
-11,-48,8.659
-30,6,8.66
-46,12,8.661
-63,-38,8.662
-79,-72,8.663
-83,-53,8.664
-68,-22,8.665
-44,7,8.666
-12,59,8.667
37,103,8.668
88,83,8.669
105,19,8.67
83,-10,8.671
55,7,8.672
47,25,8.673
45,15,8.674
24,-4,8.675
-14,-33,8.676
-48,-72,8.677
-60,-47,8.678
-41,91,8.679
4,243,8.68
40,237,8.681
32,54,8.682
-7,-143,8.683
-29,-244,8.684
-21,-295,8.685
-17,-350,8.686
-38,-339,8.687
-58,-182,8.688
-45,58,8.689
-12,225,8.69
7,246,8.691
6,186,8.692
7,136,8.693
14,83,8.694
18,-25,8.695
3,-166,8.696
-14,-222,8.697
-10,-118,8.698
21,49,8.699
55,144,8.7
65,175,8.701
55,227,8.702
43,274,8.703
38,206,8.704
37,53,8.705
37,-4,8.706
42,100,8.707
41,203,8.708
27,159,8.709
5,32,8.71
-1,-44,8.711
17,-63,8.712
36,-88,8.713
27,-139,8.714
-3,-177,8.715
-31,-179,8.716
-50,-125,8.717
-86,-9,8.718
-137,102,8.719
-157,115,8.72
-117,36,8.721
-49,-49,8.722
-11,-93,8.723
-4,-95,8.724
9,-37,8.725
49,58,8.726
90,71,8.727
104,-55,8.728
96,-170,8.729
81,-97,8.73
62,90,8.731
35,174,8.732
18,99,8.733
5,-13,8.734
-10,-40,8.735
-41,9,8.736
-76,85,8.737
-86,137,8.738
-70,86,8.739
-48,-96,8.74
-34,-271,8.741
-19,-265,8.742
10,-120,8.743
41,-25,8.744
55,-56,8.745
46,-105,8.746
37,-84,8.747
40,-33,8.748
45,-9,8.749
43,2,8.75
42,40,8.751
57,113,8.752
71,213,8.753
57,285,8.754
21,209,8.755
-10,-58,8.756
-29,-338,8.757
-53,-381,8.758
-86,-179,8.759
-110,39,8.76
-123,107,8.761
-123,86,8.762
-99,96,8.763
-43,131,8.764
11,106,8.765
29,10,8.766
23,-81,8.767
30,-103,8.768
48,-68,8.769
49,-32,8.77
33,-23,8.771
29,10,8.772
48,114,8.773
78,204,8.774
106,165,8.775
127,120,8.776
122,62,8.777
104,19,8.778
46,26,8.779
-15,-14,8.78
-88,-199,8.781
-136,-326,8.782
-109,-279,8.783
-87,-205,8.784
-85,-53,8.785
-81,96,8.786
-71,237,8.787
-58,297,8.788
-37,111,8.789
-10,-21,8.79
34,7,8.791
71,10,8.792
83,-65,8.793
91,-104,8.794
91,34,8.795
91,155,8.796
65,109,8.797
18,12,8.798
-20,32,8.799
-39,129,8.8
-52,152,8.801
-58,67,8.802
-56,-27,8.803
-62,-45,8.804
-69,-3,8.805
-41,49,8.806
36,107,8.807
112,159,8.808
127,126,8.809
90,-54,8.81
60,-293,8.811
57,-394,8.812
54,-300,8.813
13,-122,8.814
-62,-17,8.815
-138,-5,8.816
-184,-33,8.817
-189,-74,8.818
-149,-113,8.819
-61,-94,8.82
41,-3,8.821
101,77,8.822
108,82,8.823
107,45,8.824
133,37,8.825
135,60,8.826
57,76,8.827
-55,68,8.828
-93,46,8.829
-36,24,8.83
22,8,8.831
20,10,8.832
-1,19,8.833
12,12,8.834
39,-6,8.835
36,-27,8.836
27,-57,8.837
48,-88,8.838
70,-89,8.839
51,-33,8.84
20,42,8.841
33,87,8.842
70,111,8.843
57,148,8.844
-18,165,8.845
-89,107,8.846
-101,2,8.847
-69,-63,8.848
-39,-95,8.849
-26,-147,8.85
-17,-175,8.851
-7,-68,8.852
-6,128,8.853
-33,210,8.854
-73,95,8.855
-102,-29,8.856
-99,-178,8.857
-96,-283,8.858
-91,-256,8.859
-77,-200,8.86
-37,-60,8.861
5,51,8.862
56,72,8.863
99,116,8.864
116,228,8.865
127,306,8.866
121,283,8.867
101,213,8.868
38,3,8.869
-12,-145,8.87
-26,-109,8.871
-25,-90,8.872
24,-126,8.873
72,-159,8.874
75,-120,8.875
15,20,8.876
-54,167,8.877
-76,230,8.878
-46,128,8.879
-12,-128,8.88
-7,-353,8.881
-26,-349,8.882
-38,-170,8.883
-24,-27,8.884
7,23,8.885
37,74,8.886
55,113,8.887
68,62,8.888
80,2,8.889
92,67,8.89
96,166,8.891
71,119,8.892
24,-3,8.893
0,-23,8.894
34,37,8.895
51,69,8.896
12,14,8.897
-36,-16,8.898
-112,27,8.899
-173,52,8.9
-190,18,8.901
-198,0,8.902
-174,26,8.903
-141,37,8.904
-81,0,8.905
-19,-22,8.906
46,3,8.907
100,16,8.908
120,-13,8.909
125,-37,8.91
81,-35,8.911
51,-37,8.912
63,-49,8.913
71,-49,8.914
72,6,8.915
110,87,8.916
167,187,8.917
178,265,8.918
121,222,8.919
19,41,8.92
-95,-149,8.921
-187,-239,8.922
-214,-274,8.923
-170,-317,8.924
-91,-287,8.925
-11,-110,8.926
69,86,8.927
130,124,8.928
127,33,8.929
53,-26,8.93
-34,-30,8.931
-68,-64,8.932
-49,-94,8.933
-18,-9,8.934
14,165,8.935
56,258,8.936
114,186,8.937
152,39,8.938
131,-108,8.939
43,-239,8.94
-60,-296,8.941
-109,-217,8.942
-69,-56,8.943
15,61,8.944
51,109,8.945
-14,141,8.946
-132,159,8.947
-198,130,8.948
-153,83,8.949
-60,73,8.95
-23,85,8.951
-53,75,8.952
-60,56,8.953
15,59,8.954
123,81,8.955
172,92,8.956
141,77,8.957
84,22,8.958
41,-92,8.959
-7,-225,8.96
-94,-275,8.961
-214,-198,8.962
-284,-32,8.963
-226,166,8.964
-72,321,8.965
48,301,8.966
60,59,8.967
34,-230,8.968
62,-349,8.969
119,-297,8.97
120,-212,8.971
79,-121,8.972
67,13,8.973
84,126,8.974
76,104,8.975
29,17,8.976
-5,20,8.977
0,90,8.978
20,82,8.979
31,11,8.98
44,12,8.981
68,77,8.982
100,89,8.983
124,44,8.984
112,36,8.985
37,57,8.986
-68,39,8.987
-130,5,8.988
-121,5,8.989
-95,-1,8.99
-98,-61,8.991
-107,-112,8.992
-89,-86,8.993
-48,-22,8.994
-11,4,8.995
12,-1,8.996
24,6,8.997
26,16,8.998
48,0,8.999
124,-18,9.0
220,-13,9.001
249,-8,9.002
179,-5,9.003
70,31,9.004
-15,119,9.005
-88,222,9.006
-161,276,9.007
-193,214,9.008
-139,13,9.009
-41,-239,9.01
8,-377,9.011
-13,-341,9.012
-45,-251,9.013
-59,-192,9.014
-73,-112,9.015
-106,37,9.016
-105,159,9.017
-16,159,9.018
107,104,9.019
136,92,9.02
21,77,9.021
-135,-3,9.022
-188,-57,9.023
-123,2,9.024
-30,78,9.025
47,32,9.026
155,-81,9.027
326,-130,9.028
484,-106,9.029
511,-77,9.03
362,-30,9.031
94,67,9.032
-176,170,9.033
-402,233,9.034
-527,273,9.035
-531,293,9.036
-427,220,9.037
-269,25,9.038
-106,-185,9.039
55,-270,9.04
215,-231,9.041
311,-184,9.042
284,-202,9.043
203,-241,9.044
213,-212,9.045
307,-111,9.046
304,-16,9.047
100,30,9.048
-156,73,9.049
-267,139,9.05
-223,164,9.051
-134,98,9.052
-56,9,9.053
22,-27,9.054
75,-25,9.055
70,-49,9.056
48,-76,9.057
49,-29,9.058
30,59,9.059
-39,95,9.06
-108,75,9.061
-118,67,9.062
-109,77,9.063
-130,60,9.064
-130,30,9.065
-26,49,9.066
130,118,9.067
200,187,9.068
126,269,9.069
-11,377,9.07
-106,418,9.071
-130,268,9.072
-107,-7,9.073
-43,-230,9.074
47,-310,9.075
106,-375,9.076
83,-396,9.077
21,-392,9.078
39,-310,9.079
180,-217,9.08
321,-90,9.081
284,47,9.082
60,215,9.083
-158,277,9.084
-182,23,9.085
-58,-185,9.086
4,-256,9.087
-75,-287,9.088
-162,-195,9.089
-140,-82,9.09
-105,94,9.091
-187,220,9.092
-298,195,9.093
-275,146,9.094
-107,90,9.095
41,142,9.096
78,164,9.097
65,113,9.098
53,103,9.099
9,166,9.1
-68,198,9.101
-104,166,9.102
-51,149,9.103
48,132,9.104
111,4,9.105
101,-218,9.106
43,-357,9.107
7,-323,9.108
37,-194,9.109
91,-58,9.11
119,59,9.111
148,115,9.112
222,78,9.113
312,7,9.114
313,14,9.115
205,67,9.116
76,41,9.117
-14,-60,9.118
-85,-115,9.119
-133,-94,9.12
-105,-77,9.121
-13,-78,9.122
39,-25,9.123
-2,89,9.124
-65,165,9.125
-64,149,9.126
-7,83,9.127
65,15,9.128
132,-56,9.129
164,-125,9.13
116,-155,9.131
-1,-133,9.132
-116,-86,9.133
-202,-31,9.134
-245,23,9.135
-211,56,9.136
-73,63,9.137
96,83,9.138
176,143,9.139
148,207,9.14
84,225,9.141
6,208,9.142
-122,189,9.143
-247,157,9.144
-273,102,9.145
-208,90,9.146
-148,155,9.147
-112,186,9.148
-47,15,9.149
29,-340,9.15
47,-674,9.151
24,-830,9.152
40,-823,9.153
99,-697,9.154
136,-440,9.155
139,-88,9.156
170,223,9.157
225,395,9.158
216,459,9.159
98,485,9.16
-60,461,9.161
-168,346,9.162
-193,180,9.163
-158,39,9.164
-100,-65,9.165
-60,-153,9.166
-55,-207,9.167
-73,-195,9.168
-70,-143,9.169
-15,-107,9.17
79,-82,9.171
161,-28,9.172
200,51,9.173
193,115,9.174
151,143,9.175
76,152,9.176
-21,179,9.177
-93,259,9.178
-85,356,9.179
-5,345,9.18
52,132,9.181
2,-191,9.182
-113,-403,9.183
-163,-415,9.184
-100,-325,9.185
-6,-196,9.186
42,13,9.187
76,226,9.188
142,243,9.189
198,37,9.19
172,-162,9.191
81,-204,9.192
-10,-187,9.193
-99,-207,9.194
-196,-167,9.195
-264,5,9.196
-231,172,9.197
-101,200,9.198
36,160,9.199
93,158,9.2
77,143,9.201
47,44,9.202
44,-74,9.203
61,-119,9.204
72,-108,9.205
60,-88,9.206
36,-28,9.207
35,83,9.208
59,189,9.209
68,253,9.21
31,298,9.211
-16,328,9.212
-26,313,9.213
-22,253,9.214
-46,190,9.215
-83,89,9.216
-85,-110,9.217
-57,-353,9.218
-41,-520,9.219
-17,-577,9.22
45,-568,9.221
89,-477,9.222
35,-260,9.223
-64,3,9.224
-88,185,9.225
-26,272,9.226
21,342,9.227
17,388,9.228
26,342,9.229
76,230,9.23
104,152,9.231
78,96,9.232
41,-34,9.233
26,-268,9.234
4,-462,9.235
-51,-515,9.236
-119,-476,9.237
-141,-403,9.238
-70,-260,9.239
98,-13,9.24
275,248,9.241
320,402,9.242
167,430,9.243
-58,411,9.244
-183,406,9.245
-191,404,9.246
-210,361,9.247
-281,251,9.248
-279,97,9.249
-119,-37,9.25
88,-124,9.251
189,-206,9.252
179,-319,9.253
132,-426,9.254
78,-432,9.255
38,-353,9.256
39,-311,9.257
44,-322,9.258
57,-264,9.259
36,-83,9.26
-91,94,9.261
-163,138,9.262
-69,103,9.263
11,102,9.264
49,116,9.265
79,67,9.266
81,-12,9.267
83,-22,9.268
77,40,9.269
65,102,9.27
33,134,9.271
7,167,9.272
-2,198,9.273
-19,187,9.274
-65,144,9.275
-97,109,9.276
-56,92,9.277
-1,86,9.278
-15,93,9.279
-66,123,9.28
-56,157,9.281
2,171,9.282
28,167,9.283
41,145,9.284
113,92,9.285
196,19,9.286
160,-23,9.287
5,-7,9.288
-146,33,9.289
-232,50,9.29
-270,9,9.291
-247,-98,9.292
-143,-235,9.293
18,-336,9.294
86,-330,9.295
82,-268,9.296
79,-278,9.297
80,-383,9.298
63,-483,9.299
56,-492,9.3
104,-415,9.301
197,-266,9.302
301,-30,9.303
368,225,9.304
310,349,9.305
78,287,9.306
-187,183,9.307
-278,187,9.308
-178,265,9.309
-67,292,9.31
-51,242,9.311
-86,178,9.312
-149,137,9.313
-295,97,9.314
-434,67,9.315
-386,67,9.316
-151,79,9.317
43,53,9.318
61,-35,9.319
16,-137,9.32
46,-177,9.321
115,-139,9.322
153,-78,9.323
168,-36,9.324
174,3,9.325
141,66,9.326
84,124,9.327
70,129,9.328
100,87,9.329
105,31,9.33
66,-31,9.331
30,-111,9.332
17,-180,9.333
8,-195,9.334
21,-141,9.335
40,-86,9.336
79,-26,9.337
93,27,9.338
29,58,9.339
-33,91,9.34
-86,129,9.341
-133,139,9.342
-159,59,9.343
-157,-10,9.344
-67,-42,9.345
15,-59,9.346
73,-33,9.347
128,11,9.348
172,113,9.349
175,209,9.35
50,281,9.351
-51,312,9.352
-80,218,9.353
-104,99,9.354
-136,-107,9.355
-174,-279,9.356
-132,-357,9.357
-28,-340,9.358
32,-278,9.359
14,-219,9.36
-7,-181,9.361
15,-154,9.362
41,-107,9.363
35,-42,9.364
20,-6,9.365
22,-20,9.366
26,-35,9.367
26,-6,9.368
44,41,9.369
77,56,9.37
76,57,9.371
36,90,9.372
9,133,9.373
13,134,9.374
25,92,9.375
27,54,9.376
38,43,9.377
62,36,9.378
77,25,9.379
78,22,9.38
75,35,9.381
49,41,9.382
-17,34,9.383
-87,23,9.384
-102,17,9.385
-80,7,9.386
-104,-8,9.387
-194,-12,9.388
-273,19,9.389
-259,75,9.39
-159,115,9.391
-40,100,9.392
34,52,9.393
58,8,9.394
71,-2,9.395
139,-9,9.396
262,-45,9.397
339,-85,9.398
277,-95,9.399
115,-80,9.4
-30,-68,9.401
-122,-58,9.402
-204,-34,9.403
-268,0,9.404
-253,18,9.405
-158,11,9.406
-61,-3,9.407
2,-10,9.408
55,-5,9.409
95,7,9.41
84,14,9.411
36,6,9.412
20,-3,9.413
66,2,9.414
129,14,9.415
143,10,9.416
123,-13,9.417
135,-20,9.418
196,-3,9.419
212,16,9.42
92,22,9.421
-109,26,9.422
-227,46,9.423
-184,85,9.424
-83,128,9.425
-18,153,9.426
57,138,9.427
179,80,9.428
234,17,9.429
113,-21,9.43
-93,-43,9.431
-221,-61,9.432
-258,-61,9.433
-280,-59,9.434
-255,-107,9.435
-105,-182,9.436
86,-334,9.437
149,-423,9.438
76,-321,9.439
14,-207,9.44
22,-60,9.441
36,56,9.442
45,79,9.443
94,82,9.444
139,23,9.445
87,-6,9.446
-15,51,9.447
-21,107,9.448
79,154,9.449
113,177,9.45
-17,126,9.451
-196,81,9.452
-271,55,9.453
-242,41,9.454
-176,74,9.455
-90,102,9.456
46,93,9.457
214,52,9.458
340,16,9.459
357,13,9.46
226,36,9.461
-13,51,9.462
-228,36,9.463
-282,-10,9.464
-205,-74,9.465
-142,-144,9.466
-138,-192,9.467
-101,-186,9.468
1,-128,9.469
82,-52,9.47
83,14,9.471
63,72,9.472
85,122,9.473
123,141,9.474
115,109,9.475
53,38,9.476
-17,-35,9.477
-49,-84,9.478
-24,-108,9.479
26,-102,9.48
52,-62,9.481
37,-8,9.482
21,27,9.483
22,29,9.484
26,21,9.485
17,19,9.486
14,17,9.487
29,8,9.488
41,7,9.489
31,18,9.49
21,26,9.491
21,24,9.492
18,22,9.493
-1,26,9.494
-15,27,9.495
0,19,9.496
32,10,9.497
49,12,9.498
41,17,9.499
25,13,9.5
10,9,9.501
3,9,9.502
14,14,9.503
33,16,9.504
42,22,9.505
30,32,9.506
5,28,9.507
-29,-5,9.508
-78,-50,9.509
-128,-77,9.51
-149,-70,9.511
-139,-33,9.512
-114,13,9.513
-76,43,9.514
-5,38,9.515
90,8,9.516
147,-12,9.517
106,-9,9.518
-11,-1,9.519
-125,-5,9.52
-181,-7,9.521
-178,1,9.522
-144,7,9.523
-86,2,9.524
-1,6,9.525
91,26,9.526
146,36,9.527
128,17,9.528
44,-12,9.529
-29,-23,9.53
-9,-16,9.531
98,-13,9.532
197,-20,9.533
234,-30,9.534
243,-30,9.535
250,-16,9.536
176,2,9.537
-54,26,9.538
-312,45,9.539
-381,61,9.54
-258,82,9.541
-138,109,9.542
-104,105,9.543
-54,35,9.544
47,-88,9.545
85,-201,9.546
26,-245,9.547
-11,-205,9.548
33,-112,9.549
67,-15,9.55
33,44,9.551
11,44,9.552
43,14,9.553
67,-8,9.554
43,-4,9.555
25,7,9.556
57,7,9.557
89,15,9.558
76,43,9.559
41,85,9.56
-1,139,9.561
-59,202,9.562
-99,248,9.563
-75,245,9.564
-16,197,9.565
8,138,9.566
1,84,9.567
14,28,9.568
32,-15,9.569
24,-40,9.57
36,-89,9.571
116,-212,9.572
195,-365,9.573
168,-465,9.574
67,-441,9.575
-4,-315,9.576
-33,-148,9.577
-85,22,9.578
-129,144,9.579
-99,191,9.58
-57,197,9.581
-105,206,9.582
-177,168,9.583
-133,13,9.584
-10,-210,9.585
42,-358,9.586
37,-381,9.587
114,-339,9.588
256,-266,9.589
283,-140,9.59
134,15,9.591
-53,123,9.592
-169,170,9.593
-262,202,9.594
-334,226,9.595
-296,197,9.596
-127,135,9.597
27,121,9.598
48,156,9.599
0,164,9.6
6,126,9.601
65,111,9.602
100,136,9.603
80,142,9.604
45,105,9.605
31,72,9.606
48,62,9.607
97,32,9.608
152,-32,9.609
171,-84,9.61
141,-95,9.611
71,-88,9.612
-11,-75,9.613
-101,-42,9.614
-164,12,9.615
-170,40,9.616
-114,21,9.617
-25,-1,9.618
57,8,9.619
86,25,9.62
48,13,9.621
-6,-17,9.622
-14,-33,9.623
14,-30,9.624
26,-30,9.625
14,-36,9.626
10,-39,9.627
22,-35,9.628
20,-29,9.629
3,-23,9.63
3,-15,9.631
19,-10,9.632
23,-3,9.633
9,12,9.634
4,36,9.635
-1,55,9.636
-6,56,9.637
-9,43,9.638
-7,15,9.639
-1,-29,9.64
12,-81,9.641
24,-113,9.642
30,-112,9.643
32,-86,9.644
18,-45,9.645
8,14,9.646
8,92,9.647
20,182,9.648
68,275,9.649
103,354,9.65
101,390,9.651
80,366,9.652
3,312,9.653
-65,247,9.654
-106,191,9.655
-176,140,9.656
-262,63,9.657
-259,-95,9.658
-135,-385,9.659
-13,-768,9.66
-1,-1095,9.661
-29,-1219,9.662
17,-1086,9.663
101,-764,9.664
112,-389,9.665
68,-82,9.666
62,115,9.667
89,242,9.668
69,321,9.669
16,333,9.67
17,295,9.671
74,276,9.672
98,298,9.673
57,304,9.674
3,263,9.675
-35,219,9.676
-65,209,9.677
-65,205,9.678
-11,174,9.679
41,148,9.68
19,151,9.681
-44,150,9.682
-56,123,9.683
-11,97,9.684
16,88,9.685
0,73,9.686
-12,38,9.687
-12,10,9.688
-32,6,9.689
-60,6,9.69
-44,-3,9.691
6,-11,9.692
32,-20,9.693
11,-44,9.694
-3,-75,9.695
23,-91,9.696
62,-87,9.697
75,-71,9.698
67,-39,9.699
47,12,9.7
17,57,9.701
-10,67,9.702
-11,46,9.703
-3,22,9.704
-17,-4,9.705
-37,-35,9.706
-24,-63,9.707
9,-74,9.708
11,-76,9.709
-15,-86,9.71
-17,-100,9.711
9,-100,9.712
23,-88,9.713
8,-66,9.714
-1,-33,9.715
11,9,9.716
16,33,9.717
4,31,9.718
4,20,9.719
21,28,9.72
23,39,9.721
5,31,9.722
0,13,9.723
17,10,9.724
25,12,9.725
12,1,9.726
0,-20,9.727
3,-23,9.728
-8,-4,9.729
-42,18,9.73
-64,26,9.731
-53,20,9.732
-38,11,9.733
-54,0,9.734
-70,-8,9.735
-48,-7,9.736
5,-3,9.737
39,7,9.738
37,13,9.739
30,8,9.74
31,-3,9.741
26,-6,9.742
14,0,9.743
5,1,9.744
3,-5,9.745
-2,-9,9.746
5,-5,9.747
34,-2,9.748
60,-4,9.749
51,-5,9.75
20,0,9.751
-1,3,9.752
-10,0,9.753
-21,-4,9.754
-25,-1,9.755
-1,3,9.756
37,-2,9.757
54,-7,9.758
54,-3,9.759
56,3,9.76
41,0,9.761
-11,-7,9.762
-63,-16,9.763
-57,-18,9.764
-13,-14,9.765
14,-3,9.766
27,4,9.767
52,3,9.768
56,-4,9.769
-4,-5,9.77
-86,4,9.771
-116,12,9.772
-95,10,9.773
-68,-2,9.774
-42,-12,9.775
-18,-13,9.776
-21,-10,9.777
-57,-5,9.778
-61,0,9.779
-1,8,9.78
52,16,9.781
48,21,9.782
36,18,9.783
64,12,9.784
73,10,9.785
25,11,9.786
3,9,9.787
78,-3,9.788
180,-25,9.789
196,-39,9.79
119,-32,9.791
12,-12,9.792
-84,7,9.793
-156,11,9.794
-169,2,9.795
-163,-8,9.796
-99,-14,9.797
-41,-9,9.798
-6,-3,9.799
22,2,9.8
26,7,9.801
28,7,9.802
26,1,9.803
25,0,9.804
30,9,9.805
34,28,9.806
35,38,9.807
33,32,9.808
21,9,9.809
10,-20,9.81
8,-46,9.811
7,-57,9.812
14,-52,9.813
19,-39,9.814
19,-19,9.815
16,1,9.816
0,13,9.817
-20,15,9.818
-17,11,9.819
10,9,9.82
27,8,9.821
21,7,9.822
18,8,9.823
27,10,9.824
29,11,9.825
1,7,9.826
-37,1,9.827
-56,1,9.828
-42,9,9.829
-9,16,9.83
22,13,9.831
30,3,9.832
13,-5,9.833
-10,-10,9.834
-1,-10,9.835
29,-8,9.836
47,-5,9.837
33,0,9.838
7,7,9.839
-5,6,9.84
-6,0,9.841
-17,0,9.842
-35,2,9.843
-36,0,9.844
-15,-9,9.845
2,-12,9.846
-6,-5,9.847
-18,4,9.848
-11,2,9.849
-4,-1,9.85
-30,1,9.851
-62,5,9.852
-47,3,9.853
12,-5,9.854
60,-10,9.855
69,-15,9.856
67,-21,9.857
63,-15,9.858
35,-1,9.859
-13,12,9.86
-35,15,9.861
-3,7,9.862
51,-1,9.863
80,-7,9.864
79,-7,9.865
67,0,9.866
60,4,9.867
60,-3,9.868
44,-12,9.869
-20,-9,9.87
-135,0,9.871
-249,-4,9.872
-301,-11,9.873
-272,-7,9.874
-171,13,9.875
-46,26,9.876
35,18,9.877
45,7,9.878
33,3,9.879
56,6,9.88
93,7,9.881
89,7,9.882
63,5,9.883
68,-2,9.884
83,-8,9.885
57,-11,9.886
4,-11,9.887
-3,-12,9.888
30,-11,9.889
38,-4,9.89
12,4,9.891
4,3,9.892
27,1,9.893
40,0,9.894
28,0,9.895
20,-4,9.896
30,-11,9.897
30,-9,9.898
16,-3,9.899
11,-3,9.9
19,-4,9.901
17,-4,9.902
1,-5,9.903
-7,-8,9.904
-6,-8,9.905
-6,-2,9.906
-9,3,9.907
-5,5,9.908
-4,6,9.909
-12,8,9.91
-22,9,9.911
-20,9,9.912
-14,7,9.913
-17,4,9.914
-17,0,9.915
-9,-1,9.916
0,-2,9.917
2,0,9.918
-2,0,9.919
-6,-4,9.92
-11,-3,9.921
-18,1,9.922
-14,5,9.923
-1,0,9.924
3,-6,9.925
-5,-10,9.926
-15,-7,9.927
-11,-1,9.928
0,3,9.929
12,1,9.93
20,0,9.931
26,2,9.932
31,6,9.933
30,4,9.934
22,-1,9.935
8,-5,9.936
-9,-9,9.937
-16,-11,9.938
-4,-11,9.939
12,-6,9.94
15,1,9.941
1,1,9.942
-15,-4,9.943
-20,-7,9.944
-11,-3,9.945
10,-1,9.946
43,-4,9.947
75,0,9.948
87,11,9.949
71,17,9.95
39,10,9.951
1,1,9.952
-41,6,9.953
-85,18,9.954
-88,18,9.955
-38,3,9.956
21,-12,9.957
26,-13,9.958
-27,-9,9.959
-81,-7,9.96
-97,-2,9.961
-80,6,9.962
-50,8,9.963
-17,-1,9.964
6,-9,9.965
9,-10,9.966
1,-7,9.967
8,-6,9.968
24,-4,9.969
28,0,9.97
20,2,9.971
18,-1,9.972
28,-2,9.973
35,1,9.974
34,3,9.975
28,0,9.976
26,-3,9.977
31,-2,9.978
38,-1,9.979
43,-1,9.98
38,-1,9.981
20,0,9.982
1,-5,9.983
-5,-12,9.984
-2,-13,9.985
2,-3,9.986
2,7,9.987
0,7,9.988
-4,1,9.989
-5,0,9.99
-4,0,9.991
-5,-1,9.992
-11,-5,9.993
-15,-8,9.994
-10,-7,9.995
-6,-6,9.996
-6,-7,9.997
-4,-5,9.998
4,-2,9.999
12,1,10.0
16,3,10.001
20,7,10.002
21,10,10.003
26,8,10.004
39,7,10.005
48,7,10.006
42,5,10.007
29,0,10.008
-4,-3,10.009
-37,-3,10.01
-65,-3,10.011
-80,-7,10.012
-54,-11,10.013
-26,-11,10.014
-7,-2,10.015
-20,7,10.016
-38,5,10.017
-34,0,10.018
-1,-5,10.019
31,-6,10.02
41,-2,10.021
37,0,10.022
32,1,10.023
31,0,10.024
20,3,10.025
-4,7,10.026
-21,5,10.027
-16,-1,10.028
0,-4,10.029
8,-1,10.03
2,2,10.031
-2,0,10.032
3,-2,10.033
9,-4,10.034
10,-7,10.035
9,-10,10.036
10,-11,10.037
11,-3,10.038
5,1,10.039
-3,-2,10.04
-9,-5,10.041
-13,-1,10.042
-9,5,10.043
0,4,10.044
7,2,10.045
7,3,10.046
4,6,10.047
4,4,10.048
3,0,10.049
0,0,10.05
-1,0,10.051
3,-1,10.052
9,0,10.053
5,3,10.054
-3,1,10.055
-6,-3,10.056
3,-5,10.057
15,-3,10.058
23,0,10.059
23,-2,10.06
15,1,10.061
5,8,10.062
-1,8,10.063
-2,0,10.064
-6,-3,10.065
-15,-2,10.066
-21,-3,10.067
-20,-11,10.068
-13,-15,10.069
1,-8,10.07
15,2,10.071
18,3,10.072
15,-1,10.073
13,-2,10.074
22,2,10.075
25,1,10.076
10,-6,10.077
-1,-8,10.078
3,-4,10.079
5,1,10.08
3,0,10.081
-2,-2,10.082
-17,0,10.083
-27,1,10.084
-20,4,10.085
-13,6,10.086
-5,5,10.087
2,0,10.088
6,-3,10.089
9,0,10.09
10,3,10.091
11,5,10.092
11,6,10.093
11,4,10.094
7,1,10.095
1,-1,10.096
-10,-5,10.097
-20,-6,10.098
-19,-8,10.099
-10,-9,10.1
-5,-4,10.101
-2,0,10.102
6,2,10.103
17,-2,10.104
18,-4,10.105
12,-3,10.106
8,-5,10.107
6,-6,10.108
3,-3,10.109
0,3,10.11
1,4,10.111
5,-1,10.112
7,-2,10.113
4,1,10.114
2,4,10.115
4,4,10.116
6,1,10.117
7,1,10.118
9,2,10.119
10,1,10.12
3,3,10.121
-8,8,10.122
-14,8,10.123
-10,3,10.124
-4,-1,10.125
-3,-2,10.126
0,2,10.127
5,12,10.128
15,23,10.129
19,21,10.13
17,1,10.131
12,-24,10.132
10,-38,10.133
9,-42,10.134
6,-41,10.135
-1,-36,10.136
-8,-24,10.137
-11,-4,10.138
-8,8,10.139
-3,12,10.14
-2,13,10.141
-2,16,10.142
0,15,10.143
2,11,10.144
-1,9,10.145
-2,9,10.146
8,4,10.147
25,-6,10.148
31,-8,10.149
22,-3,10.15
10,0,10.151
7,-2,10.152
8,-1,10.153
0,0,10.154
-6,1,10.155
-10,0,10.156
-11,-4,10.157
-10,-5,10.158
-5,-4,10.159
4,-2,10.16
8,4,10.161
6,9,10.162
7,9,10.163
12,7,10.164
8,7,10.165
0,6,10.166
-5,3,10.167
-5,-2,10.168
-10,-4,10.169
-19,-4,10.17
-23,-6,10.171
-17,-8,10.172
