Deltoid,Bicep,Time
2.0,-1.0,0.0
0.0,-7.0,0.001
-3.0,-9.0,0.002
0.0,-8.0,0.003
10.0,-3.0,0.004
14.0,2.0,0.005
8.0,6.0,0.006
5.0,3.0,0.007
8.0,-2.0,0.008
10.0,-6.0,0.009
7.0,-3.0,0.01
3.0,2.0,0.011
5.0,2.0,0.012
6.0,0.0,0.013
3.0,-2.0,0.014
1.0,-1.0,0.015
2.0,0.0,0.016
4.0,2.0,0.017
1.0,2.0,0.018
-2.0,0.0,0.019
-7.0,-3.0,0.02
-12.0,-5.0,0.021
-10.0,-3.0,0.022
-2.0,0.0,0.023
5.0,0.0,0.024
4.0,1.0,0.025
0.0,4.0,0.026
-1.0,4.0,0.027
0.0,0.0,0.028
1.0,-1.0,0.029
1.0,0.0,0.03
4.0,1.0,0.031
8.0,-2.0,0.032
7.0,-3.0,0.033
4.0,-1.0,0.034
2.0,-1.0,0.035
4.0,-3.0,0.036
5.0,-1.0,0.037
3.0,0.0,0.038
0.0,-2.0,0.039
-3.0,-8.0,0.04
-5.0,-15.0,0.041
-4.0,-13.0,0.042
0.0,-9.0,0.043
7.0,-6.0,0.044
8.0,-3.0,0.045
4.0,3.0,0.046
0.0,6.0,0.047
1.0,3.0,0.048
6.0,0.0,0.049
6.0,2.0,0.05
4.0,4.0,0.051
0.0,4.0,0.052
1.0,3.0,0.053
0.0,4.0,0.054
0.0,1.0,0.055
3.0,-4.0,0.056
8.0,-3.0,0.057
8.0,1.0,0.058
3.0,4.0,0.059
-2.0,-1.0,0.06
-2.0,-8.0,0.061
0.0,-6.0,0.062
4.0,-1.0,0.063
7.0,3.0,0.064
6.0,2.0,0.065
3.0,3.0,0.066
1.0,5.0,0.067
1.0,4.0,0.068
2.0,-1.0,0.069
0.0,-3.0,0.07
-2.0,-2.0,0.071
-1.0,2.0,0.072
3.0,5.0,0.073
4.0,5.0,0.074
2.0,3.0,0.075
1.0,-1.0,0.076
3.0,-4.0,0.077
6.0,-6.0,0.078
3.0,-5.0,0.079
-4.0,-2.0,0.08
-9.0,-6.0,0.081
-8.0,-9.0,0.082
1.0,-10.0,0.083
10.0,-8.0,0.084
11.0,-3.0,0.085
7.0,1.0,0.086
6.0,3.0,0.087
7.0,1.0,0.088
6.0,0.0,0.089
6.0,1.0,0.09
8.0,8.0,0.091
13.0,13.0,0.092
13.0,13.0,0.093
9.0,9.0,0.094
5.0,1.0,0.095
5.0,-9.0,0.096
4.0,-15.0,0.097
2.0,-14.0,0.098
1.0,-8.0,0.099
-4.0,-3.0,0.1
-11.0,-2.0,0.101
-15.0,0.0,0.102
-8.0,1.0,0.103
3.0,1.0,0.104
8.0,1.0,0.105
1.0,5.0,0.106
-4.0,10.0,0.107
-3.0,10.0,0.108
0.0,4.0,0.109
-2.0,-1.0,0.11
-4.0,-1.0,0.111
0.0,-5.0,0.112
2.0,-13.0,0.113
4.0,-25.0,0.114
6.0,-31.0,0.115
10.0,-28.0,0.116
10.0,-18.0,0.117
2.0,-10.0,0.118
-3.0,-6.0,0.119
-5.0,0.0,0.12
-6.0,7.0,0.121
-4.0,14.0,0.122
4.0,25.0,0.123
11.0,56.0,0.124
8.0,102.0,0.125
1.0,124.0,0.126
0.0,88.0,0.127
1.0,16.0,0.128
1.0,-38.0,0.129
-2.0,-47.0,0.13
-4.0,-27.0,0.131
-3.0,-8.0,0.132
-1.0,-4.0,0.133
4.0,-30.0,0.134
11.0,-75.0,0.135
14.0,-103.0,0.136
11.0,-87.0,0.137
3.0,-52.0,0.138
1.0,-42.0,0.139
2.0,-61.0,0.14
7.0,-73.0,0.141
10.0,-51.0,0.142
8.0,-7.0,0.143
2.0,38.0,0.144
-6.0,73.0,0.145
-12.0,85.0,0.146
-15.0,76.0,0.147
-14.0,64.0,0.148
-11.0,63.0,0.149
-7.0,56.0,0.15
-2.0,31.0,0.151
5.0,1.0,0.152
14.0,-22.0,0.153
21.0,-46.0,0.154
26.0,-72.0,0.155
24.0,-78.0,0.156
19.0,-60.0,0.157
13.0,-36.0,0.158
8.0,-28.0,0.159
5.0,-34.0,0.16
6.0,-38.0,0.161
11.0,-36.0,0.162
15.0,-31.0,0.163
13.0,-11.0,0.164
6.0,17.0,0.165
2.0,29.0,0.166
5.0,18.0,0.167
8.0,7.0,0.168
6.0,10.0,0.169
0.0,18.0,0.17
-2.0,15.0,0.171
0.0,11.0,0.172
-1.0,19.0,0.173
-4.0,29.0,0.174
-5.0,30.0,0.175
-2.0,24.0,0.176
2.0,21.0,0.177
0.0,15.0,0.178
-2.0,13.0,0.179
-5.0,17.0,0.18
-12.0,21.0,0.181
-18.0,19.0,0.182
-15.0,16.0,0.183
-2.0,23.0,0.184
3.0,37.0,0.185
-3.0,44.0,0.186
-9.0,38.0,0.187
-6.0,37.0,0.188
-2.0,43.0,0.189
-2.0,42.0,0.19
-1.0,26.0,0.191
6.0,6.0,0.192
13.0,-9.0,0.193
14.0,-25.0,0.194
15.0,-45.0,0.195
17.0,-55.0,0.196
20.0,-47.0,0.197
15.0,-35.0,0.198
11.0,-34.0,0.199
8.0,-39.0,0.2
5.0,-43.0,0.201
0.0,-41.0,0.202
-1.0,-35.0,0.203
1.0,-26.0,0.204
2.0,-11.0,0.205
-2.0,0.0,0.206
-8.0,1.0,0.207
-8.0,-2.0,0.208
-6.0,1.0,0.209
-3.0,6.0,0.21
2.0,7.0,0.211
5.0,5.0,0.212
3.0,7.0,0.213
-1.0,12.0,0.214
-1.0,11.0,0.215
4.0,3.0,0.216
9.0,1.0,0.217
6.0,-1.0,0.218
1.0,-5.0,0.219
-2.0,-8.0,0.22
-5.0,-8.0,0.221
-6.0,-7.0,0.222
2.0,1.0,0.223
14.0,10.0,0.224
16.0,18.0,0.225
10.0,23.0,0.226
7.0,21.0,0.227
11.0,19.0,0.228
11.0,19.0,0.229
6.0,18.0,0.23
1.0,18.0,0.231
1.0,17.0,0.232
-2.0,15.0,0.233
-7.0,13.0,0.234
-9.0,10.0,0.235
-3.0,6.0,0.236
1.0,0.0,0.237
-2.0,-7.0,0.238
-7.0,-11.0,0.239
-8.0,-16.0,0.24
-6.0,-21.0,0.241
-7.0,-18.0,0.242
-5.0,-11.0,0.243
1.0,-7.0,0.244
5.0,0.0,0.245
0.0,12.0,0.246
-5.0,19.0,0.247
1.0,17.0,0.248
9.0,10.0,0.249
7.0,8.0,0.25
0.0,7.0,0.251
1.0,2.0,0.252
10.0,-13.0,0.253
16.0,-39.0,0.254
19.0,-64.0,0.255
20.0,-73.0,0.256
17.0,-58.0,0.257
5.0,-32.0,0.258
-4.0,-16.0,0.259
-5.0,-18.0,0.26
-3.0,-25.0,0.261
-4.0,-18.0,0.262
-4.0,-5.0,0.263
1.0,2.0,0.264
7.0,3.0,0.265
7.0,7.0,0.266
3.0,14.0,0.267
2.0,20.0,0.268
3.0,21.0,0.269
3.0,22.0,0.27
4.0,22.0,0.271
8.0,21.0,0.272
11.0,16.0,0.273
8.0,10.0,0.274
3.0,4.0,0.275
0.0,6.0,0.276
-1.0,14.0,0.277
-3.0,15.0,0.278
-3.0,9.0,0.279
-7.0,2.0,0.28
-12.0,1.0,0.281
-15.0,4.0,0.282
-9.0,2.0,0.283
3.0,-3.0,0.284
11.0,-6.0,0.285
13.0,-4.0,0.286
10.0,-4.0,0.287
9.0,-7.0,0.288
10.0,-6.0,0.289
10.0,-3.0,0.29
8.0,-1.0,0.291
6.0,2.0,0.292
1.0,8.0,0.293
-1.0,9.0,0.294
2.0,0.0,0.295
8.0,-8.0,0.296
12.0,-5.0,0.297
6.0,0.0,0.298
2.0,-3.0,0.299
0.0,-13.0,0.3
0.0,-22.0,0.301
-1.0,-17.0,0.302
-2.0,-6.0,0.303
0.0,3.0,0.304
2.0,8.0,0.305
0.0,7.0,0.306
-2.0,1.0,0.307
-2.0,-2.0,0.308
2.0,1.0,0.309
5.0,4.0,0.31
7.0,-3.0,0.311
9.0,-12.0,0.312
6.0,-10.0,0.313
2.0,0.0,0.314
-1.0,5.0,0.315
0.0,3.0,0.316
5.0,4.0,0.317
6.0,8.0,0.318
5.0,8.0,0.319
1.0,3.0,0.32
-3.0,-3.0,0.321
-3.0,0.0,0.322
1.0,5.0,0.323
5.0,10.0,0.324
0.0,14.0,0.325
-10.0,14.0,0.326
-13.0,10.0,0.327
-3.0,5.0,0.328
5.0,3.0,0.329
4.0,4.0,0.33
0.0,2.0,0.331
3.0,-3.0,0.332
9.0,-6.0,0.333
8.0,-4.0,0.334
4.0,-4.0,0.335
3.0,-5.0,0.336
5.0,-4.0,0.337
5.0,-2.0,0.338
2.0,-1.0,0.339
0.0,-4.0,0.34
-3.0,-9.0,0.341
-3.0,-7.0,0.342
1.0,-3.0,0.343
9.0,-1.0,0.344
7.0,0.0,0.345
0.0,1.0,0.346
-3.0,-1.0,0.347
1.0,-7.0,0.348
3.0,-10.0,0.349
-1.0,-7.0,0.35
-3.0,0.0,0.351
4.0,2.0,0.352
11.0,2.0,0.353
9.0,3.0,0.354
6.0,6.0,0.355
8.0,6.0,0.356
13.0,7.0,0.357
13.0,1.0,0.358
8.0,-5.0,0.359
3.0,-13.0,0.36
0.0,-20.0,0.361
0.0,-17.0,0.362
4.0,-12.0,0.363
8.0,-9.0,0.364
5.0,-6.0,0.365
-2.0,-2.0,0.366
-2.0,0.0,0.367
4.0,-2.0,0.368
9.0,-3.0,0.369
8.0,-2.0,0.37
6.0,-1.0,0.371
7.0,-3.0,0.372
8.0,-4.0,0.373
4.0,-2.0,0.374
2.0,1.0,0.375
0.0,0.0,0.376
-1.0,2.0,0.377
-5.0,3.0,0.378
-4.0,1.0,0.379
-4.0,-1.0,0.38
-5.0,-4.0,0.381
-6.0,-2.0,0.382
-1.0,1.0,0.383
6.0,4.0,0.384
9.0,9.0,0.385
3.0,14.0,0.386
0.0,11.0,0.387
2.0,4.0,0.388
5.0,-2.0,0.389
6.0,0.0,0.39
4.0,3.0,0.391
4.0,3.0,0.392
4.0,-1.0,0.393
1.0,-4.0,0.394
-3.0,-5.0,0.395
-8.0,-4.0,0.396
-9.0,-4.0,0.397
-11.0,-6.0,0.398
-11.0,-6.0,0.399
-12.0,-4.0,0.4
-14.0,-7.0,0.401
-12.0,-8.0,0.402
4.0,-5.0,0.403
17.0,3.0,0.404
20.0,12.0,0.405
21.0,14.0,0.406
14.0,7.0,0.407
9.0,-1.0,0.408
13.0,-3.0,0.409
15.0,0.0,0.41
11.0,3.0,0.411
6.0,0.0,0.412
3.0,-2.0,0.413
0.0,-3.0,0.414
0.0,-4.0,0.415
-1.0,-7.0,0.416
-1.0,-7.0,0.417
-2.0,-4.0,0.418
-10.0,2.0,0.419
-14.0,4.0,0.42
-9.0,-1.0,0.421
-4.0,0.0,0.422
-2.0,3.0,0.423
-3.0,5.0,0.424
-4.0,-1.0,0.425
-4.0,-3.0,0.426
2.0,-1.0,0.427
13.0,-1.0,0.428
20.0,-4.0,0.429
21.0,-6.0,0.43
17.0,-3.0,0.431
12.0,0.0,0.432
8.0,0.0,0.433
4.0,-1.0,0.434
0.0,-1.0,0.435
0.0,-2.0,0.436
2.0,-4.0,0.437
5.0,-6.0,0.438
7.0,-3.0,0.439
7.0,1.0,0.44
8.0,1.0,0.441
13.0,2.0,0.442
18.0,6.0,0.443
18.0,9.0,0.444
7.0,7.0,0.445
-5.0,3.0,0.446
-8.0,2.0,0.447
-5.0,6.0,0.448
-3.0,5.0,0.449
-4.0,-4.0,0.45
-2.0,-19.0,0.451
-1.0,-28.0,0.452
-3.0,-26.0,0.453
-7.0,-16.0,0.454
-8.0,-4.0,0.455
-5.0,3.0,0.456
-3.0,4.0,0.457
-3.0,1.0,0.458
-1.0,4.0,0.459
0.0,11.0,0.46
1.0,11.0,0.461
6.0,7.0,0.462
17.0,3.0,0.463
23.0,4.0,0.464
13.0,5.0,0.465
-8.0,2.0,0.466
-18.0,-4.0,0.467
-8.0,-10.0,0.468
9.0,-9.0,0.469
18.0,-4.0,0.47
19.0,4.0,0.471
17.0,9.0,0.472
15.0,10.0,0.473
12.0,8.0,0.474
5.0,8.0,0.475
4.0,3.0,0.476
10.0,0.0,0.477
12.0,-1.0,0.478
4.0,5.0,0.479
-3.0,10.0,0.48
-4.0,8.0,0.481
-6.0,5.0,0.482
-6.0,2.0,0.483
-7.0,0.0,0.484
-5.0,-4.0,0.485
-3.0,-7.0,0.486
2.0,-7.0,0.487
6.0,-7.0,0.488
5.0,-10.0,0.489
4.0,-15.0,0.49
4.0,-25.0,0.491
3.0,-33.0,0.492
1.0,-31.0,0.493
0.0,-27.0,0.494
-1.0,-20.0,0.495
-2.0,-15.0,0.496
2.0,-19.0,0.497
5.0,-20.0,0.498
-1.0,-9.0,0.499
-11.0,0.0,0.5
-13.0,2.0,0.501
-6.0,7.0,0.502
4.0,17.0,0.503
7.0,24.0,0.504
4.0,26.0,0.505
-1.0,26.0,0.506
-2.0,28.0,0.507
1.0,25.0,0.508
3.0,19.0,0.509
2.0,19.0,0.51
2.0,20.0,0.511
6.0,15.0,0.512
10.0,5.0,0.513
10.0,-1.0,0.514
8.0,-3.0,0.515
7.0,-3.0,0.516
10.0,-1.0,0.517
9.0,0.0,0.518
7.0,3.0,0.519
2.0,-1.0,0.52
0.0,-10.0,0.521
0.0,-13.0,0.522
0.0,-12.0,0.523
1.0,-9.0,0.524
5.0,-10.0,0.525
9.0,-15.0,0.526
12.0,-19.0,0.527
12.0,-16.0,0.528
9.0,-4.0,0.529
4.0,10.0,0.53
0.0,16.0,0.531
-2.0,12.0,0.532
0.0,13.0,0.533
2.0,19.0,0.534
0.0,21.0,0.535
-2.0,16.0,0.536
-3.0,13.0,0.537
-6.0,16.0,0.538
-6.0,17.0,0.539
-7.0,15.0,0.54
-8.0,11.0,0.541
-7.0,8.0,0.542
2.0,0.0,0.543
9.0,-11.0,0.544
11.0,-20.0,0.545
14.0,-23.0,0.546
14.0,-29.0,0.547
13.0,-38.0,0.548
13.0,-38.0,0.549
12.0,-31.0,0.55
9.0,-26.0,0.551
6.0,-30.0,0.552
6.0,-32.0,0.553
5.0,-24.0,0.554
3.0,-14.0,0.555
2.0,-9.0,0.556
6.0,-3.0,0.557
7.0,2.0,0.558
0.0,4.0,0.559
-7.0,1.0,0.56
-9.0,-2.0,0.561
-8.0,1.0,0.562
-3.0,2.0,0.563
5.0,-2.0,0.564
7.0,-8.0,0.565
2.0,-4.0,0.566
-3.0,4.0,0.567
-2.0,10.0,0.568
1.0,13.0,0.569
3.0,19.0,0.57
6.0,25.0,0.571
13.0,30.0,0.572
15.0,31.0,0.573
9.0,32.0,0.574
1.0,31.0,0.575
0.0,33.0,0.576
0.0,40.0,0.577
-3.0,42.0,0.578
-5.0,34.0,0.579
-4.0,17.0,0.58
-4.0,0.0,0.581
-3.0,-8.0,0.582
3.0,-14.0,0.583
14.0,-17.0,0.584
14.0,-19.0,0.585
7.0,-17.0,0.586
0.0,-15.0,0.587
0.0,-13.0,0.588
-1.0,-9.0,0.589
-3.0,-7.0,0.59
-2.0,-6.0,0.591
-3.0,-2.0,0.592
-9.0,6.0,0.593
-16.0,11.0,0.594
-13.0,7.0,0.595
-4.0,-4.0,0.596
1.0,-10.0,0.597
-2.0,-18.0,0.598
-5.0,-22.0,0.599
-3.0,-21.0,0.6
-2.0,-22.0,0.601
0.0,-18.0,0.602
10.0,-13.0,0.603
22.0,-6.0,0.604
23.0,2.0,0.605
14.0,6.0,0.606
7.0,5.0,0.607
9.0,3.0,0.608
10.0,4.0,0.609
6.0,2.0,0.61
4.0,-1.0,0.611
8.0,-2.0,0.612
11.0,-1.0,0.613
7.0,0.0,0.614
2.0,3.0,0.615
1.0,7.0,0.616
2.0,12.0,0.617
2.0,10.0,0.618
4.0,3.0,0.619
3.0,-3.0,0.62
-2.0,-6.0,0.621
-5.0,-3.0,0.622
-1.0,-1.0,0.623
8.0,0.0,0.624
12.0,2.0,0.625
9.0,1.0,0.626
5.0,-4.0,0.627
8.0,-13.0,0.628
9.0,-18.0,0.629
5.0,-17.0,0.63
0.0,-14.0,0.631
0.0,-16.0,0.632
5.0,-18.0,0.633
8.0,-13.0,0.634
4.0,-1.0,0.635
-2.0,14.0,0.636
-5.0,25.0,0.637
-6.0,22.0,0.638
-7.0,16.0,0.639
-10.0,9.0,0.64
-11.0,0.0,0.641
-6.0,-8.0,0.642
6.0,-16.0,0.643
15.0,-17.0,0.644
13.0,-10.0,0.645
6.0,-9.0,0.646
4.0,-15.0,0.647
7.0,-24.0,0.648
6.0,-23.0,0.649
0.0,-12.0,0.65
-4.0,-4.0,0.651
-1.0,-2.0,0.652
1.0,-1.0,0.653
-2.0,6.0,0.654
-5.0,14.0,0.655
-2.0,15.0,0.656
3.0,13.0,0.657
2.0,10.0,0.658
0.0,11.0,0.659
-3.0,10.0,0.66
-4.0,4.0,0.661
-5.0,2.0,0.662
-3.0,4.0,0.663
7.0,9.0,0.664
14.0,15.0,0.665
14.0,20.0,0.666
11.0,20.0,0.667
13.0,15.0,0.668
15.0,12.0,0.669
12.0,12.0,0.67
7.0,7.0,0.671
3.0,-5.0,0.672
3.0,-16.0,0.673
1.0,-17.0,0.674
0.0,-9.0,0.675
0.0,-2.0,0.676
3.0,4.0,0.677
2.0,2.0,0.678
-3.0,4.0,0.679
-12.0,5.0,0.68
-16.0,4.0,0.681
-14.0,5.0,0.682
-3.0,9.0,0.683
7.0,13.0,0.684
9.0,13.0,0.685
2.0,11.0,0.686
-3.0,0.0,0.687
-1.0,-8.0,0.688
2.0,-12.0,0.689
4.0,-16.0,0.69
6.0,-13.0,0.691
11.0,-11.0,0.692
15.0,-11.0,0.693
13.0,-10.0,0.694
9.0,-6.0,0.695
3.0,-2.0,0.696
0.0,-1.0,0.697
-2.0,6.0,0.698
-2.0,10.0,0.699
-4.0,13.0,0.7
-8.0,11.0,0.701
-9.0,12.0,0.702
0.0,21.0,0.703
8.0,29.0,0.704
8.0,29.0,0.705
8.0,24.0,0.706
5.0,2.0,0.707
3.0,-16.0,0.708
9.0,-25.0,0.709
14.0,-32.0,0.71
14.0,-26.0,0.711
13.0,-22.0,0.712
9.0,-22.0,0.713
5.0,-20.0,0.714
2.0,-12.0,0.715
0.0,-5.0,0.716
-1.0,-3.0,0.717
-4.0,-1.0,0.718
-7.0,-1.0,0.719
-10.0,2.0,0.72
-9.0,1.0,0.721
-6.0,1.0,0.722
1.0,4.0,0.723
9.0,7.0,0.724
8.0,10.0,0.725
3.0,11.0,0.726
-2.0,10.0,0.727
2.0,4.0,0.728
7.0,1.0,0.729
8.0,1.0,0.73
5.0,2.0,0.731
4.0,1.0,0.732
6.0,0.0,0.733
8.0,1.0,0.734
7.0,1.0,0.735
5.0,3.0,0.736
3.0,4.0,0.737
0.0,3.0,0.738
-4.0,1.0,0.739
-7.0,-4.0,0.74
-6.0,-8.0,0.741
1.0,-5.0,0.742
10.0,1.0,0.743
12.0,4.0,0.744
7.0,4.0,0.745
0.0,1.0,0.746
0.0,-6.0,0.747
2.0,-12.0,0.748
1.0,-13.0,0.749
0.0,-9.0,0.75
0.0,-8.0,0.751
2.0,-8.0,0.752
1.0,-8.0,0.753
-2.0,-2.0,0.754
-5.0,2.0,0.755
-8.0,1.0,0.756
-7.0,-1.0,0.757
-3.0,-7.0,0.758
1.0,-13.0,0.759
3.0,-19.0,0.76
1.0,-20.0,0.761
0.0,-8.0,0.762
6.0,7.0,0.763
17.0,17.0,0.764
20.0,20.0,0.765
14.0,19.0,0.766
6.0,13.0,0.767
6.0,7.0,0.768
6.0,5.0,0.769
-3.0,7.0,0.77
-9.0,10.0,0.771
-4.0,12.0,0.772
9.0,15.0,0.773
17.0,18.0,0.774
13.0,14.0,0.775
6.0,6.0,0.776
5.0,1.0,0.777
2.0,0.0,0.778
-1.0,-1.0,0.779
-5.0,-2.0,0.78
-5.0,-7.0,0.781
-4.0,-8.0,0.782
-3.0,-8.0,0.783
-2.0,-11.0,0.784
-2.0,-15.0,0.785
-3.0,-22.0,0.786
-3.0,-29.0,0.787
1.0,-31.0,0.788
5.0,-23.0,0.789
3.0,-14.0,0.79
0.0,-11.0,0.791
0.0,-11.0,0.792
3.0,-4.0,0.793
2.0,8.0,0.794
3.0,16.0,0.795
10.0,18.0,0.796
17.0,21.0,0.797
13.0,22.0,0.798
3.0,19.0,0.799
-4.0,11.0,0.8
-3.0,1.0,0.801
0.0,-5.0,0.802
6.0,-8.0,0.803
14.0,-11.0,0.804
17.0,-9.0,0.805
13.0,-4.0,0.806
9.0,-2.0,0.807
14.0,-2.0,0.808
20.0,-2.0,0.809
16.0,0.0,0.81
7.0,3.0,0.811
2.0,6.0,0.812
1.0,9.0,0.813
-4.0,13.0,0.814
-9.0,15.0,0.815
-6.0,14.0,0.816
-3.0,15.0,0.817
-3.0,12.0,0.818
-8.0,9.0,0.819
-11.0,7.0,0.82
-7.0,2.0,0.821
-1.0,-4.0,0.822
5.0,-15.0,0.823
6.0,-20.0,0.824
4.0,-13.0,0.825
-1.0,-4.0,0.826
-3.0,-3.0,0.827
0.0,-9.0,0.828
1.0,-11.0,0.829
0.0,-6.0,0.83
-1.0,-3.0,0.831
0.0,-8.0,0.832
2.0,-14.0,0.833
2.0,-15.0,0.834
2.0,-12.0,0.835
0.0,-9.0,0.836
-3.0,-4.0,0.837
-11.0,-3.0,0.838
-17.0,-7.0,0.839
-21.0,-11.0,0.84
-24.0,-12.0,0.841
-27.0,-5.0,0.842
-24.0,0.0,0.843
-13.0,5.0,0.844
5.0,7.0,0.845
25.0,9.0,0.846
38.0,10.0,0.847
46.0,12.0,0.848
49.0,19.0,0.849
51.0,24.0,0.85
48.0,25.0,0.851
40.0,21.0,0.852
27.0,17.0,0.853
13.0,11.0,0.854
2.0,3.0,0.855
-3.0,-9.0,0.856
0.0,-15.0,0.857
-1.0,-18.0,0.858
-6.0,-18.0,0.859
-12.0,-16.0,0.86
-11.0,-16.0,0.861
-5.0,-14.0,0.862
-3.0,-12.0,0.863
-6.0,-8.0,0.864
-9.0,-2.0,0.865
-10.0,0.0,0.866
-8.0,-1.0,0.867
-3.0,0.0,0.868
2.0,3.0,0.869
3.0,5.0,0.87
-2.0,5.0,0.871
-7.0,6.0,0.872
-6.0,9.0,0.873
1.0,12.0,0.874
10.0,10.0,0.875
14.0,5.0,0.876
14.0,2.0,0.877
9.0,-2.0,0.878
4.0,-5.0,0.879
-1.0,-4.0,0.88
-5.0,-2.0,0.881
-6.0,-2.0,0.882
-4.0,-4.0,0.883
-1.0,-3.0,0.884
-2.0,0.0,0.885
-9.0,3.0,0.886
-19.0,3.0,0.887
-23.0,1.0,0.888
-16.0,2.0,0.889
-3.0,1.0,0.89
10.0,0.0,0.891
18.0,0.0,0.892
23.0,2.0,0.893
25.0,3.0,0.894
24.0,1.0,0.895
22.0,0.0,0.896
18.0,2.0,0.897
9.0,-1.0,0.898
0.0,-6.0,0.899
-7.0,-8.0,0.9
-13.0,-6.0,0.901
-24.0,-1.0,0.902
-39.0,-2.0,0.903
-46.0,-8.0,0.904
-32.0,-11.0,0.905
-3.0,-14.0,0.906
22.0,-19.0,0.907
31.0,-26.0,0.908
24.0,-24.0,0.909
16.0,-12.0,0.91
19.0,-1.0,0.911
30.0,4.0,0.912
36.0,6.0,0.913
30.0,6.0,0.914
18.0,7.0,0.915
13.0,8.0,0.916
19.0,10.0,0.917
22.0,11.0,0.918
20.0,8.0,0.919
12.0,3.0,0.92
1.0,-3.0,0.921
-7.0,-3.0,0.922
-8.0,0.0,0.923
0.0,2.0,0.924
5.0,2.0,0.925
-1.0,2.0,0.926
-11.0,2.0,0.927
-9.0,3.0,0.928
0.0,2.0,0.929
0.0,0.0,0.93
-6.0,-3.0,0.931
-5.0,-6.0,0.932
-1.0,-8.0,0.933
-3.0,-10.0,0.934
-9.0,-9.0,0.935
-6.0,-9.0,0.936
1.0,-7.0,0.937
0.0,-5.0,0.938
-10.0,-5.0,0.939
-16.0,0.0,0.94
-13.0,4.0,0.941
-8.0,8.0,0.942
-2.0,9.0,0.943
5.0,6.0,0.944
11.0,4.0,0.945
8.0,2.0,0.946
2.0,0.0,0.947
3.0,0.0,0.948
6.0,0.0,0.949
3.0,-2.0,0.95
-2.0,-5.0,0.951
-1.0,-5.0,0.952
4.0,-3.0,0.953
6.0,-2.0,0.954
3.0,-2.0,0.955
-2.0,0.0,0.956
-9.0,1.0,0.957
-21.0,1.0,0.958
-31.0,0.0,0.959
-34.0,2.0,0.96
-11.0,2.0,0.961
12.0,3.0,0.962
33.0,3.0,0.963
47.0,2.0,0.964
41.0,5.0,0.965
36.0,9.0,0.966
34.0,10.0,0.967
30.0,2.0,0.968
19.0,-6.0,0.969
9.0,-10.0,0.97
7.0,-12.0,0.971
4.0,-10.0,0.972
-1.0,-9.0,0.973
-6.0,-8.0,0.974
-4.0,-9.0,0.975
-2.0,-10.0,0.976
3.0,-9.0,0.977
9.0,-12.0,0.978
11.0,-12.0,0.979
4.0,-9.0,0.98
-6.0,-3.0,0.981
-10.0,5.0,0.982
-3.0,7.0,0.983
4.0,5.0,0.984
5.0,7.0,0.985
0.0,10.0,0.986
-3.0,10.0,0.987
-3.0,8.0,0.988
-1.0,8.0,0.989
-1.0,13.0,0.99
-2.0,15.0,0.991
-6.0,12.0,0.992
-11.0,7.0,0.993
-16.0,3.0,0.994
-23.0,0.0,0.995
-27.0,-1.0,0.996
-25.0,0.0,0.997
-26.0,0.0,0.998
-32.0,-3.0,0.999
-36.0,-6.0,1.0
-16.0,-2.0,1.001
2.0,2.0,1.002
27.0,2.0,1.003
40.0,6.0,1.004
18.0,10.0,1.005
-4.0,13.0,1.006
-16.0,14.0,1.007
-23.0,14.0,1.008
-10.0,11.0,1.009
2.0,7.0,1.01
-4.0,2.0,1.011
-10.0,-1.0,1.012
2.0,-4.0,1.013
11.0,-6.0,1.014
11.0,-7.0,1.015
8.0,-6.0,1.016
11.0,-1.0,1.017
-9.0,-1.0,1.018
-11.0,-5.0,1.019
-12.0,-8.0,1.02
-6.0,-3.0,1.021
0.0,1.0,1.022
8.0,3.0,1.023
12.0,7.0,1.024
5.0,12.0,1.025
-2.0,16.0,1.026
-6.0,17.0,1.027
-8.0,18.0,1.028
-4.0,14.0,1.029
0.0,9.0,1.03
-2.0,3.0,1.031
-4.0,-2.0,1.032
0.0,-6.0,1.033
3.0,-9.0,1.034
3.0,-10.0,1.035
2.0,-9.0,1.036
3.0,-2.0,1.037
6.0,5.0,1.038
5.0,6.0,1.039
0.0,4.0,1.04
-5.0,-3.0,1.041
-7.0,-8.0,1.042
-2.0,-6.0,1.043
7.0,-2.0,1.044
10.0,-4.0,1.045
3.0,-8.0,1.046
-1.0,-10.0,1.047
1.0,-6.0,1.048
5.0,-2.0,1.049
4.0,-3.0,1.05
1.0,-4.0,1.051
3.0,1.0,1.052
7.0,8.0,1.053
8.0,12.0,1.054
6.0,11.0,1.055
4.0,10.0,1.056
6.0,7.0,1.057
6.0,0.0,1.058
4.0,-5.0,1.059
-2.0,-4.0,1.06
-4.0,-5.0,1.061
2.0,-6.0,1.062
12.0,-10.0,1.063
14.0,-11.0,1.064
8.0,-9.0,1.065
-1.0,-8.0,1.066
-3.0,-8.0,1.067
0.0,-11.0,1.068
4.0,-10.0,1.069
6.0,-8.0,1.07
2.0,-7.0,1.071
-3.0,-7.0,1.072
-4.0,-3.0,1.073
-1.0,6.0,1.074
2.0,12.0,1.075
1.0,10.0,1.076
-1.0,7.0,1.077
-2.0,7.0,1.078
0.0,7.0,1.079
0.0,1.0,1.08
-1.0,-10.0,1.081
-3.0,-10.0,1.082
1.0,-3.0,1.083
7.0,3.0,1.084
9.0,4.0,1.085
6.0,6.0,1.086
2.0,10.0,1.087
3.0,8.0,1.088
5.0,1.0,1.089
7.0,-2.0,1.09
6.0,3.0,1.091
3.0,12.0,1.092
1.0,15.0,1.093
1.0,13.0,1.094
2.0,12.0,1.095
0.0,11.0,1.096
0.0,12.0,1.097
0.0,10.0,1.098
1.0,7.0,1.099
2.0,-4.0,1.1
-1.0,-20.0,1.101
-2.0,-28.0,1.102
6.0,-26.0,1.103
12.0,-21.0,1.104
10.0,-20.0,1.105
7.0,-18.0,1.106
1.0,-14.0,1.107
-2.0,-10.0,1.108
0.0,-7.0,1.109
2.0,-1.0,1.11
2.0,5.0,1.111
2.0,5.0,1.112
0.0,1.0,1.113
-1.0,0.0,1.114
3.0,2.0,1.115
5.0,6.0,1.116
3.0,8.0,1.117
1.0,8.0,1.118
-1.0,5.0,1.119
-5.0,4.0,1.12
-10.0,2.0,1.121
-8.0,5.0,1.122
1.0,8.0,1.123
12.0,10.0,1.124
10.0,10.0,1.125
2.0,11.0,1.126
-1.0,5.0,1.127
3.0,-2.0,1.128
8.0,-4.0,1.129
7.0,1.0,1.13
3.0,3.0,1.131
6.0,-4.0,1.132
4.0,-11.0,1.133
-5.0,-10.0,1.134
-20.0,-12.0,1.135
-26.0,-20.0,1.136
-15.0,-28.0,1.137
1.0,-33.0,1.138
13.0,-30.0,1.139
20.0,-24.0,1.14
8.0,-21.0,1.141
-1.0,-13.0,1.142
0.0,-7.0,1.143
2.0,-3.0,1.144
2.0,-1.0,1.145
3.0,5.0,1.146
13.0,14.0,1.147
22.0,22.0,1.148
26.0,31.0,1.149
30.0,41.0,1.15
29.0,44.0,1.151
27.0,32.0,1.152
24.0,12.0,1.153
20.0,-5.0,1.154
13.0,-12.0,1.155
4.0,-19.0,1.156
-5.0,-22.0,1.157
-15.0,-18.0,1.158
-17.0,-8.0,1.159
-16.0,-2.0,1.16
-15.0,-4.0,1.161
-13.0,0.0,1.162
-10.0,9.0,1.163
-6.0,13.0,1.164
-5.0,12.0,1.165
-6.0,9.0,1.166
-6.0,7.0,1.167
-4.0,2.0,1.168
-6.0,-4.0,1.169
-8.0,-4.0,1.17
-7.0,0.0,1.171
-1.0,0.0,1.172
3.0,-4.0,1.173
9.0,-5.0,1.174
15.0,0.0,1.175
19.0,9.0,1.176
17.0,12.0,1.177
4.0,7.0,1.178
-11.0,-1.0,1.179
-25.0,-6.0,1.18
-34.0,-13.0,1.181
-32.0,-14.0,1.182
5.0,-8.0,1.183
34.0,-5.0,1.184
34.0,-4.0,1.185
33.0,-8.0,1.186
30.0,-12.0,1.187
27.0,-10.0,1.188
25.0,-2.0,1.189
20.0,5.0,1.19
5.0,9.0,1.191
-6.0,14.0,1.192
-6.0,14.0,1.193
-6.0,10.0,1.194
-8.0,5.0,1.195
-11.0,1.0,1.196
-12.0,0.0,1.197
-16.0,-4.0,1.198
-22.0,-10.0,1.199
-21.0,-14.0,1.2
-18.0,-14.0,1.201
-20.0,-7.0,1.202
-15.0,1.0,1.203
3.0,7.0,1.204
25.0,10.0,1.205
32.0,7.0,1.206
28.0,0.0,1.207
23.0,-4.0,1.208
17.0,-3.0,1.209
12.0,2.0,1.21
10.0,4.0,1.211
10.0,1.0,1.212
5.0,0.0,1.213
-2.0,3.0,1.214
-4.0,9.0,1.215
0.0,7.0,1.216
5.0,2.0,1.217
4.0,-2.0,1.218
1.0,3.0,1.219
-4.0,9.0,1.22
-15.0,9.0,1.221
-24.0,10.0,1.222
-20.0,10.0,1.223
-6.0,7.0,1.224
3.0,1.0,1.225
3.0,-6.0,1.226
5.0,-15.0,1.227
14.0,-27.0,1.228
25.0,-39.0,1.229
30.0,-42.0,1.23
28.0,-36.0,1.231
19.0,-26.0,1.232
5.0,-12.0,1.233
-3.0,-4.0,1.234
-4.0,3.0,1.235
-5.0,13.0,1.236
-10.0,24.0,1.237
-14.0,25.0,1.238
-11.0,18.0,1.239
-9.0,10.0,1.24
-10.0,3.0,1.241
-8.0,-4.0,1.242
0.0,-13.0,1.243
14.0,-24.0,1.244
18.0,-26.0,1.245
14.0,-17.0,1.246
7.0,-5.0,1.247
4.0,5.0,1.248
1.0,6.0,1.249
2.0,0.0,1.25
4.0,1.0,1.251
3.0,9.0,1.252
0.0,12.0,1.253
-1.0,0.0,1.254
2.0,-13.0,1.255
4.0,-14.0,1.256
4.0,-7.0,1.257
3.0,-5.0,1.258
5.0,-6.0,1.259
8.0,2.0,1.26
8.0,12.0,1.261
8.0,16.0,1.262
13.0,12.0,1.263
16.0,12.0,1.264
14.0,17.0,1.265
11.0,19.0,1.266
8.0,13.0,1.267
5.0,7.0,1.268
5.0,5.0,1.269
4.0,4.0,1.27
2.0,2.0,1.271
0.0,-2.0,1.272
-1.0,-6.0,1.273
-2.0,-9.0,1.274
0.0,-5.0,1.275
1.0,4.0,1.276
0.0,11.0,1.277
-1.0,9.0,1.278
-1.0,3.0,1.279
-1.0,3.0,1.28
-6.0,3.0,1.281
-12.0,3.0,1.282
-10.0,-4.0,1.283
-2.0,-7.0,1.284
1.0,-6.0,1.285
0.0,-5.0,1.286
3.0,-11.0,1.287
12.0,-23.0,1.288
14.0,-24.0,1.289
7.0,-12.0,1.29
1.0,1.0,1.291
3.0,6.0,1.292
5.0,3.0,1.293
6.0,1.0,1.294
8.0,2.0,1.295
10.0,4.0,1.296
9.0,6.0,1.297
0.0,6.0,1.298
-4.0,9.0,1.299
-5.0,13.0,1.3
-6.0,14.0,1.301
-6.0,16.0,1.302
0.0,14.0,1.303
7.0,8.0,1.304
8.0,4.0,1.305
1.0,3.0,1.306
0.0,1.0,1.307
5.0,-5.0,1.308
7.0,-10.0,1.309
2.0,-13.0,1.31
0.0,-12.0,1.311
0.0,-8.0,1.312
0.0,-2.0,1.313
-1.0,-2.0,1.314
1.0,-10.0,1.315
6.0,-20.0,1.316
6.0,-20.0,1.317
2.0,-14.0,1.318
0.0,-15.0,1.319
1.0,-24.0,1.32
0.0,-36.0,1.321
-2.0,-35.0,1.322
-2.0,-20.0,1.323
3.0,-4.0,1.324
4.0,4.0,1.325
2.0,5.0,1.326
2.0,6.0,1.327
6.0,10.0,1.328
7.0,14.0,1.329
2.0,10.0,1.33
0.0,6.0,1.331
4.0,11.0,1.332
9.0,17.0,1.333
12.0,12.0,1.334
11.0,0.0,1.335
6.0,-7.0,1.336
2.0,-6.0,1.337
-2.0,-5.0,1.338
-5.0,-6.0,1.339
-8.0,-4.0,1.34
-9.0,-3.0,1.341
-9.0,-4.0,1.342
0.0,-6.0,1.343
8.0,1.0,1.344
8.0,12.0,1.345
7.0,17.0,1.346
5.0,11.0,1.347
3.0,4.0,1.348
1.0,5.0,1.349
0.0,8.0,1.35
1.0,8.0,1.351
2.0,3.0,1.352
3.0,2.0,1.353
5.0,7.0,1.354
7.0,12.0,1.355
9.0,11.0,1.356
7.0,9.0,1.357
5.0,2.0,1.358
4.0,-4.0,1.359
5.0,-12.0,1.36
4.0,-15.0,1.361
2.0,-11.0,1.362
2.0,-5.0,1.363
8.0,-2.0,1.364
11.0,-2.0,1.365
6.0,-3.0,1.366
2.0,-3.0,1.367
2.0,-4.0,1.368
2.0,-4.0,1.369
-1.0,-2.0,1.37
-3.0,-1.0,1.371
0.0,-4.0,1.372
0.0,-5.0,1.373
-7.0,1.0,1.374
-14.0,8.0,1.375
-15.0,10.0,1.376
-9.0,6.0,1.377
-4.0,3.0,1.378
0.0,6.0,1.379
1.0,8.0,1.38
4.0,0.0,1.381
8.0,-9.0,1.382
14.0,-12.0,1.383
21.0,-6.0,1.384
19.0,0.0,1.385
12.0,1.0,1.386
4.0,1.0,1.387
4.0,4.0,1.388
5.0,6.0,1.389
2.0,7.0,1.39
1.0,4.0,1.391
3.0,1.0,1.392
4.0,0.0,1.393
-1.0,1.0,1.394
-3.0,3.0,1.395
-1.0,2.0,1.396
3.0,-1.0,1.397
1.0,-8.0,1.398
-1.0,-16.0,1.399
-1.0,-20.0,1.4
-3.0,-20.0,1.401
-4.0,-16.0,1.402
3.0,-13.0,1.403
12.0,-11.0,1.404
11.0,-4.0,1.405
1.0,4.0,1.406
1.0,2.0,1.407
11.0,-9.0,1.408
16.0,-18.0,1.409
9.0,-13.0,1.41
1.0,-2.0,1.411
1.0,8.0,1.412
1.0,15.0,1.413
-5.0,19.0,1.414
-13.0,16.0,1.415
-14.0,10.0,1.416
-10.0,10.0,1.417
-5.0,12.0,1.418
-4.0,17.0,1.419
-8.0,15.0,1.42
-10.0,7.0,1.421
-8.0,3.0,1.422
1.0,3.0,1.423
14.0,-2.0,1.424
20.0,-15.0,1.425
17.0,-31.0,1.426
13.0,-41.0,1.427
16.0,-42.0,1.428
20.0,-34.0,1.429
15.0,-23.0,1.43
6.0,-14.0,1.431
5.0,-6.0,1.432
9.0,3.0,1.433
9.0,11.0,1.434
3.0,13.0,1.435
-1.0,11.0,1.436
0.0,11.0,1.437
2.0,10.0,1.438
0.0,10.0,1.439
-5.0,9.0,1.44
-8.0,5.0,1.441
-9.0,5.0,1.442
-4.0,6.0,1.443
-3.0,7.0,1.444
-11.0,10.0,1.445
-24.0,12.0,1.446
-23.0,14.0,1.447
0.0,12.0,1.448
30.0,12.0,1.449
42.0,10.0,1.45
31.0,9.0,1.451
19.0,8.0,1.452
17.0,8.0,1.453
18.0,4.0,1.454
11.0,0.0,1.455
0.0,-2.0,1.456
-4.0,0.0,1.457
-7.0,0.0,1.458
-8.0,-1.0,1.459
-12.0,-4.0,1.46
-11.0,-6.0,1.461
-7.0,-4.0,1.462
0.0,-3.0,1.463
6.0,-2.0,1.464
10.0,-2.0,1.465
9.0,-3.0,1.466
4.0,-5.0,1.467
2.0,-6.0,1.468
1.0,-4.0,1.469
-1.0,-3.0,1.47
-5.0,-2.0,1.471
-6.0,-2.0,1.472
-3.0,-3.0,1.473
-2.0,-4.0,1.474
-2.0,-2.0,1.475
1.0,0.0,1.476
6.0,0.0,1.477
5.0,-1.0,1.478
3.0,-4.0,1.479
1.0,-7.0,1.48
1.0,-10.0,1.481
0.0,-12.0,1.482
2.0,-10.0,1.483
4.0,-8.0,1.484
5.0,-9.0,1.485
6.0,-9.0,1.486
2.0,-7.0,1.487
-1.0,-5.0,1.488
0.0,-3.0,1.489
1.0,0.0,1.49
0.0,8.0,1.491
-1.0,14.0,1.492
-1.0,14.0,1.493
0.0,14.0,1.494
1.0,14.0,1.495
3.0,14.0,1.496
3.0,10.0,1.497
3.0,4.0,1.498
0.0,-2.0,1.499
-3.0,-9.0,1.5
-2.0,-20.0,1.501
2.0,-23.0,1.502
8.0,-13.0,1.503
11.0,4.0,1.504
7.0,10.0,1.505
3.0,5.0,1.506
5.0,-3.0,1.507
8.0,-8.0,1.508
9.0,-10.0,1.509
5.0,-17.0,1.51
4.0,-17.0,1.511
3.0,-10.0,1.512
2.0,-2.0,1.513
1.0,1.0,1.514
4.0,1.0,1.515
4.0,3.0,1.516
0.0,6.0,1.517
-5.0,6.0,1.518
-3.0,6.0,1.519
1.0,8.0,1.52
0.0,3.0,1.521
-3.0,-4.0,1.522
-1.0,-6.0,1.523
7.0,-1.0,1.524
10.0,6.0,1.525
5.0,9.0,1.526
2.0,7.0,1.527
7.0,7.0,1.528
9.0,9.0,1.529
4.0,9.0,1.53
0.0,8.0,1.531
2.0,5.0,1.532
6.0,-2.0,1.533
7.0,-6.0,1.534
7.0,-6.0,1.535
7.0,-5.0,1.536
3.0,-4.0,1.537
-9.0,-5.0,1.538
-25.0,-5.0,1.539
-34.0,-5.0,1.54
-27.0,-11.0,1.541
-6.0,-13.0,1.542
15.0,-10.0,1.543
26.0,-6.0,1.544
23.0,-5.0,1.545
18.0,-1.0,1.546
19.0,4.0,1.547
20.0,8.0,1.548
16.0,7.0,1.549
10.0,9.0,1.55
10.0,13.0,1.551
11.0,14.0,1.552
7.0,10.0,1.553
0.0,4.0,1.554
0.0,1.0,1.555
0.0,-2.0,1.556
3.0,-5.0,1.557
1.0,-8.0,1.558
4.0,-10.0,1.559
10.0,-8.0,1.56
12.0,-8.0,1.561
7.0,-4.0,1.562
1.0,2.0,1.563
-2.0,8.0,1.564
-2.0,10.0,1.565
-1.0,10.0,1.566
-1.0,4.0,1.567
-3.0,-2.0,1.568
-8.0,-4.0,1.569
-11.0,-2.0,1.57
-7.0,-2.0,1.571
-2.0,-6.0,1.572
-4.0,-7.0,1.573
-11.0,-5.0,1.574
-18.0,-6.0,1.575
-15.0,-10.0,1.576
-6.0,-8.0,1.577
1.0,-2.0,1.578
4.0,8.0,1.579
0.0,14.0,1.58
-2.0,13.0,1.581
0.0,12.0,1.582
8.0,12.0,1.583
15.0,7.0,1.584
14.0,-2.0,1.585
11.0,-11.0,1.586
12.0,-16.0,1.587
16.0,-17.0,1.588
18.0,-17.0,1.589
14.0,-15.0,1.59
8.0,-12.0,1.591
4.0,-8.0,1.592
3.0,-8.0,1.593
3.0,-12.0,1.594
2.0,-15.0,1.595
1.0,-14.0,1.596
3.0,-10.0,1.597
2.0,-10.0,1.598
-2.0,-6.0,1.599
-11.0,-2.0,1.6
-18.0,-5.0,1.601
-12.0,-8.0,1.602
0.0,-8.0,1.603
8.0,3.0,1.604
5.0,13.0,1.605
-3.0,15.0,1.606
-3.0,8.0,1.607
0.0,6.0,1.608
-1.0,14.0,1.609
-4.0,22.0,1.61
-2.0,21.0,1.611
2.0,11.0,1.612
3.0,2.0,1.613
3.0,2.0,1.614
6.0,6.0,1.615
12.0,9.0,1.616
15.0,7.0,1.617
10.0,0.0,1.618
6.0,-6.0,1.619
3.0,-4.0,1.62
2.0,-3.0,1.621
-1.0,0.0,1.622
0.0,1.0,1.623
4.0,7.0,1.624
6.0,16.0,1.625
0.0,21.0,1.626
-2.0,12.0,1.627
1.0,0.0,1.628
7.0,-3.0,1.629
6.0,0.0,1.63
1.0,2.0,1.631
0.0,0.0,1.632
3.0,0.0,1.633
5.0,4.0,1.634
4.0,2.0,1.635
4.0,-5.0,1.636
7.0,-11.0,1.637
7.0,-15.0,1.638
4.0,-15.0,1.639
-1.0,-14.0,1.64
-3.0,-14.0,1.641
-1.0,-11.0,1.642
4.0,-3.0,1.643
8.0,3.0,1.644
2.0,6.0,1.645
-14.0,5.0,1.646
-29.0,2.0,1.647
-22.0,2.0,1.648
6.0,2.0,1.649
34.0,0.0,1.65
36.0,-4.0,1.651
23.0,-11.0,1.652
11.0,-14.0,1.653
8.0,-13.0,1.654
1.0,-10.0,1.655
-10.0,-8.0,1.656
-18.0,-5.0,1.657
-15.0,-2.0,1.658
-4.0,0.0,1.659
3.0,1.0,1.66
5.0,1.0,1.661
8.0,4.0,1.662
16.0,4.0,1.663
26.0,6.0,1.664
32.0,11.0,1.665
33.0,12.0,1.666
29.0,5.0,1.667
19.0,-2.0,1.668
5.0,1.0,1.669
-7.0,12.0,1.67
-10.0,15.0,1.671
-8.0,8.0,1.672
-6.0,2.0,1.673
-8.0,3.0,1.674
-8.0,2.0,1.675
-5.0,-5.0,1.676
0.0,-9.0,1.677
-1.0,-6.0,1.678
-4.0,-3.0,1.679
-6.0,-5.0,1.68
-7.0,-11.0,1.681
-6.0,-11.0,1.682
-2.0,-9.0,1.683
5.0,-11.0,1.684
5.0,-15.0,1.685
-1.0,-17.0,1.686
-7.0,-15.0,1.687
-6.0,-14.0,1.688
-2.0,-11.0,1.689
-1.0,-8.0,1.69
0.0,-3.0,1.691
0.0,0.0,1.692
2.0,1.0,1.693
5.0,0.0,1.694
9.0,3.0,1.695
11.0,7.0,1.696
9.0,12.0,1.697
6.0,11.0,1.698
2.0,10.0,1.699
-1.0,9.0,1.7
-5.0,4.0,1.701
-8.0,0.0,1.702
-3.0,-2.0,1.703
4.0,-2.0,1.704
8.0,1.0,1.705
6.0,1.0,1.706
4.0,0.0,1.707
4.0,0.0,1.708
5.0,6.0,1.709
4.0,12.0,1.71
3.0,13.0,1.711
2.0,15.0,1.712
1.0,18.0,1.713
1.0,18.0,1.714
5.0,12.0,1.715
8.0,4.0,1.716
4.0,0.0,1.717
-10.0,-7.0,1.718
-27.0,-20.0,1.719
-40.0,-37.0,1.72
-42.0,-49.0,1.721
-32.0,-47.0,1.722
-3.0,-35.0,1.723
31.0,-18.0,1.724
48.0,-3.0,1.725
46.0,7.0,1.726
40.0,8.0,1.727
47.0,9.0,1.728
58.0,16.0,1.729
52.0,26.0,1.73
29.0,25.0,1.731
5.0,16.0,1.732
-6.0,7.0,1.733
-8.0,3.0,1.734
-9.0,0.0,1.735
-11.0,-6.0,1.736
-9.0,-11.0,1.737
-9.0,-15.0,1.738
-11.0,-12.0,1.739
-15.0,-4.0,1.74
-16.0,-2.0,1.741
-11.0,-6.0,1.742
-6.0,-11.0,1.743
-4.0,-7.0,1.744
-5.0,2.0,1.745
-3.0,9.0,1.746
4.0,7.0,1.747
10.0,4.0,1.748
6.0,5.0,1.749
-3.0,6.0,1.75
-9.0,3.0,1.751
-5.0,-3.0,1.752
0.0,-5.0,1.753
0.0,-3.0,1.754
-1.0,0.0,1.755
1.0,1.0,1.756
6.0,5.0,1.757
5.0,3.0,1.758
1.0,1.0,1.759
-3.0,-1.0,1.76
-6.0,-2.0,1.761
-6.0,1.0,1.762
-3.0,3.0,1.763
3.0,2.0,1.764
6.0,1.0,1.765
0.0,0.0,1.766
-6.0,-2.0,1.767
-5.0,-5.0,1.768
0.0,-7.0,1.769
3.0,-8.0,1.77
2.0,-7.0,1.771
1.0,-3.0,1.772
2.0,2.0,1.773
5.0,7.0,1.774
8.0,6.0,1.775
8.0,2.0,1.776
4.0,0.0,1.777
0.0,-4.0,1.778
1.0,-7.0,1.779
2.0,-7.0,1.78
-1.0,-7.0,1.781
-4.0,-6.0,1.782
4.0,-5.0,1.783
19.0,-4.0,1.784
26.0,1.0,1.785
19.0,5.0,1.786
10.0,0.0,1.787
7.0,-8.0,1.788
7.0,-10.0,1.789
5.0,-4.0,1.79
2.0,2.0,1.791
0.0,0.0,1.792
-7.0,-3.0,1.793
-22.0,-3.0,1.794
-33.0,0.0,1.795
-29.0,0.0,1.796
-11.0,-1.0,1.797
15.0,-2.0,1.798
38.0,0.0,1.799
44.0,1.0,1.8
36.0,-1.0,1.801
27.0,0.0,1.802
29.0,6.0,1.803
33.0,13.0,1.804
22.0,12.0,1.805
0.0,4.0,1.806
-12.0,-4.0,1.807
-9.0,-6.0,1.808
-9.0,-3.0,1.809
-18.0,1.0,1.81
-24.0,6.0,1.811
-14.0,10.0,1.812
-1.0,10.0,1.813
0.0,6.0,1.814
-5.0,1.0,1.815
-6.0,-1.0,1.816
-4.0,-3.0,1.817
-5.0,-8.0,1.818
-9.0,-10.0,1.819
-15.0,-9.0,1.82
-18.0,-9.0,1.821
-11.0,-12.0,1.822
7.0,-19.0,1.823
21.0,-20.0,1.824
20.0,-12.0,1.825
12.0,-2.0,1.826
12.0,-1.0,1.827
19.0,-4.0,1.828
21.0,0.0,1.829
14.0,8.0,1.83
5.0,13.0,1.831
0.0,9.0,1.832
-1.0,5.0,1.833
-2.0,2.0,1.834
1.0,1.0,1.835
5.0,-2.0,1.836
5.0,-1.0,1.837
-1.0,-3.0,1.838
-5.0,-4.0,1.839
-7.0,-5.0,1.84
-9.0,-7.0,1.841
-9.0,-8.0,1.842
-1.0,-6.0,1.843
5.0,0.0,1.844
5.0,9.0,1.845
0.0,10.0,1.846
1.0,8.0,1.847
5.0,5.0,1.848
4.0,7.0,1.849
1.0,10.0,1.85
4.0,8.0,1.851
10.0,4.0,1.852
11.0,0.0,1.853
6.0,-4.0,1.854
2.0,-8.0,1.855
3.0,-12.0,1.856
7.0,-13.0,1.857
9.0,-13.0,1.858
9.0,-9.0,1.859
5.0,-1.0,1.86
3.0,3.0,1.861
5.0,4.0,1.862
13.0,4.0,1.863
18.0,6.0,1.864
17.0,9.0,1.865
13.0,9.0,1.866
10.0,9.0,1.867
9.0,10.0,1.868
7.0,11.0,1.869
0.0,12.0,1.87
-3.0,8.0,1.871
-2.0,3.0,1.872
0.0,2.0,1.873
1.0,6.0,1.874
1.0,9.0,1.875
0.0,7.0,1.876
1.0,1.0,1.877
2.0,-11.0,1.878
3.0,-18.0,1.879
0.0,-17.0,1.88
-5.0,-14.0,1.881
-10.0,-10.0,1.882
-7.0,-10.0,1.883
-2.0,-6.0,1.884
0.0,0.0,1.885
-2.0,4.0,1.886
-3.0,1.0,1.887
-2.0,-5.0,1.888
-2.0,-7.0,1.889
-4.0,-1.0,1.89
-2.0,6.0,1.891
4.0,9.0,1.892
7.0,10.0,1.893
3.0,9.0,1.894
-2.0,5.0,1.895
-4.0,0.0,1.896
-3.0,-2.0,1.897
-4.0,-5.0,1.898
-4.0,-7.0,1.899
-5.0,-12.0,1.9
-6.0,-17.0,1.901
-6.0,-16.0,1.902
-2.0,-10.0,1.903
6.0,-9.0,1.904
12.0,-10.0,1.905
8.0,-8.0,1.906
4.0,-4.0,1.907
4.0,-5.0,1.908
5.0,-10.0,1.909
5.0,-15.0,1.91
5.0,-14.0,1.911
8.0,-8.0,1.912
11.0,0.0,1.913
8.0,7.0,1.914
7.0,9.0,1.915
9.0,10.0,1.916
10.0,12.0,1.917
4.0,12.0,1.918
-2.0,13.0,1.919
-5.0,10.0,1.92
-4.0,0.0,1.921
-3.0,-7.0,1.922
-2.0,-13.0,1.923
0.0,-10.0,1.924
-2.0,0.0,1.925
-8.0,13.0,1.926
-8.0,12.0,1.927
4.0,0.0,1.928
18.0,-11.0,1.929
19.0,-16.0,1.93
14.0,-18.0,1.931
13.0,-15.0,1.932
15.0,-8.0,1.933
12.0,4.0,1.934
8.0,11.0,1.935
9.0,11.0,1.936
11.0,8.0,1.937
7.0,4.0,1.938
0.0,3.0,1.939
-4.0,3.0,1.94
-6.0,3.0,1.941
-7.0,5.0,1.942
-7.0,11.0,1.943
-1.0,16.0,1.944
1.0,22.0,1.945
-1.0,22.0,1.946
-5.0,14.0,1.947
-3.0,0.0,1.948
0.0,-14.0,1.949
1.0,-19.0,1.95
4.0,-17.0,1.951
9.0,-15.0,1.952
11.0,-16.0,1.953
8.0,-18.0,1.954
4.0,-14.0,1.955
3.0,-6.0,1.956
3.0,4.0,1.957
-2.0,11.0,1.958
-8.0,15.0,1.959
-12.0,18.0,1.96
-13.0,21.0,1.961
-11.0,29.0,1.962
-4.0,29.0,1.963
5.0,19.0,1.964
8.0,6.0,1.965
3.0,-2.0,1.966
2.0,-10.0,1.967
4.0,-22.0,1.968
10.0,-35.0,1.969
14.0,-40.0,1.97
15.0,-31.0,1.971
9.0,-14.0,1.972
0.0,1.0,1.973
-4.0,7.0,1.974
-1.0,2.0,1.975
4.0,-2.0,1.976
12.0,2.0,1.977
14.0,10.0,1.978
10.0,16.0,1.979
0.0,14.0,1.98
-4.0,1.0,1.981
-2.0,-10.0,1.982
8.0,-18.0,1.983
12.0,-17.0,1.984
12.0,-13.0,1.985
12.0,-17.0,1.986
15.0,-29.0,1.987
12.0,-37.0,1.988
3.0,-30.0,1.989
-7.0,-16.0,1.99
-12.0,-11.0,1.991
-9.0,-9.0,1.992
-5.0,-4.0,1.993
-3.0,7.0,1.994
-3.0,15.0,1.995
-4.0,14.0,1.996
-5.0,14.0,1.997
-4.0,16.0,1.998
-1.0,16.0,1.999
-3.0,14.0,2.0
-9.0,9.0,2.001
-11.0,13.0,2.002
0.0,19.0,2.003
13.0,24.0,2.004
17.0,24.0,2.005
11.0,20.0,2.006
7.0,10.0,2.007
13.0,1.0,2.008
17.0,-4.0,2.009
14.0,-3.0,2.01
6.0,1.0,2.011
5.0,3.0,2.012
6.0,4.0,2.013
3.0,4.0,2.014
-1.0,3.0,2.015
-3.0,2.0,2.016
-4.0,1.0,2.017
-5.0,-5.0,2.018
-7.0,-7.0,2.019
-7.0,-3.0,2.02
-6.0,-3.0,2.021
-4.0,-4.0,2.022
0.0,-4.0,2.023
6.0,-2.0,2.024
10.0,-2.0,2.025
6.0,-4.0,2.026
1.0,-5.0,2.027
1.0,-2.0,2.028
6.0,0.0,2.029
9.0,0.0,2.03
6.0,-1.0,2.031
1.0,-4.0,2.032
0.0,-7.0,2.033
-1.0,-9.0,2.034
0.0,-7.0,2.035
4.0,2.0,2.036
11.0,13.0,2.037
11.0,14.0,2.038
6.0,5.0,2.039
-2.0,-5.0,2.04
-4.0,-9.0,2.041
-3.0,-5.0,2.042
0.0,0.0,2.043
6.0,0.0,2.044
8.0,0.0,2.045
5.0,3.0,2.046
1.0,4.0,2.047
-1.0,5.0,2.048
-1.0,6.0,2.049
1.0,10.0,2.05
2.0,7.0,2.051
1.0,-3.0,2.052
-1.0,-9.0,2.053
0.0,-6.0,2.054
3.0,-3.0,2.055
8.0,-5.0,2.056
11.0,-8.0,2.057
10.0,-11.0,2.058
8.0,-11.0,2.059
6.0,-12.0,2.06
0.0,-13.0,2.061
-3.0,-9.0,2.062
2.0,-8.0,2.063
14.0,-8.0,2.064
18.0,-9.0,2.065
10.0,-5.0,2.066
1.0,2.0,2.067
0.0,8.0,2.068
2.0,12.0,2.069
2.0,11.0,2.07
0.0,6.0,2.071
-2.0,2.0,2.072
-4.0,2.0,2.073
-4.0,1.0,2.074
1.0,-3.0,2.075
7.0,-12.0,2.076
9.0,-16.0,2.077
3.0,-16.0,2.078
-3.0,-14.0,2.079
-11.0,-12.0,2.08
-19.0,-11.0,2.081
-18.0,-6.0,2.082
-8.0,-4.0,2.083
4.0,-2.0,2.084
8.0,2.0,2.085
3.0,8.0,2.086
3.0,10.0,2.087
11.0,5.0,2.088
14.0,-2.0,2.089
10.0,-7.0,2.09
7.0,-11.0,2.091
8.0,-14.0,2.092
12.0,-10.0,2.093
10.0,-4.0,2.094
4.0,0.0,2.095
1.0,4.0,2.096
0.0,11.0,2.097
0.0,16.0,2.098
0.0,19.0,2.099
0.0,17.0,2.1
-4.0,11.0,2.101
-8.0,5.0,2.102
-2.0,-4.0,2.103
9.0,-10.0,2.104
15.0,-7.0,2.105
10.0,-1.0,2.106
5.0,2.0,2.107
6.0,3.0,2.108
9.0,4.0,2.109
6.0,10.0,2.11
3.0,15.0,2.111
1.0,18.0,2.112
-1.0,16.0,2.113
-3.0,11.0,2.114
-1.0,6.0,2.115
2.0,3.0,2.116
5.0,4.0,2.117
4.0,3.0,2.118
3.0,1.0,2.119
0.0,-4.0,2.12
-6.0,-8.0,2.121
-9.0,-10.0,2.122
0.0,-8.0,2.123
11.0,-5.0,2.124
12.0,-2.0,2.125
2.0,0.0,2.126
-6.0,3.0,2.127
-4.0,5.0,2.128
1.0,3.0,2.129
4.0,-3.0,2.13
7.0,-9.0,2.131
12.0,-12.0,2.132
15.0,-11.0,2.133
14.0,-12.0,2.134
11.0,-14.0,2.135
10.0,-12.0,2.136
10.0,-5.0,2.137
7.0,0.0,2.138
4.0,0.0,2.139
1.0,-1.0,2.14
-4.0,-2.0,2.141
-8.0,4.0,2.142
-8.0,7.0,2.143
-7.0,5.0,2.144
-8.0,4.0,2.145
-10.0,5.0,2.146
-6.0,4.0,2.147
2.0,-2.0,2.148
5.0,-7.0,2.149
2.0,-5.0,2.15
3.0,-1.0,2.151
7.0,0.0,2.152
8.0,-3.0,2.153
3.0,-6.0,2.154
2.0,-8.0,2.155
6.0,-11.0,2.156
10.0,-7.0,2.157
8.0,-2.0,2.158
5.0,3.0,2.159
1.0,4.0,2.16
-1.0,2.0,2.161
0.0,4.0,2.162
7.0,4.0,2.163
13.0,5.0,2.164
9.0,9.0,2.165
0.0,18.0,2.166
-2.0,23.0,2.167
0.0,18.0,2.168
0.0,4.0,2.169
-1.0,-7.0,2.17
2.0,-10.0,2.171
7.0,-11.0,2.172
6.0,-13.0,2.173
1.0,-18.0,2.174
2.0,-18.0,2.175
5.0,-11.0,2.176
5.0,0.0,2.177
-1.0,4.0,2.178
-4.0,0.0,2.179
-5.0,-4.0,2.18
-4.0,-6.0,2.181
0.0,-8.0,2.182
8.0,-13.0,2.183
13.0,-14.0,2.184
10.0,-6.0,2.185
6.0,2.0,2.186
10.0,-1.0,2.187
14.0,-8.0,2.188
10.0,-10.0,2.189
1.0,-5.0,2.19
0.0,1.0,2.191
1.0,6.0,2.192
1.0,15.0,2.193
-6.0,22.0,2.194
-7.0,24.0,2.195
-4.0,17.0,2.196
-3.0,13.0,2.197
-4.0,9.0,2.198
-6.0,2.0,2.199
-7.0,-9.0,2.2
-6.0,-23.0,2.201
-5.0,-27.0,2.202
1.0,-24.0,2.203
8.0,-16.0,2.204
9.0,-7.0,2.205
2.0,1.0,2.206
1.0,3.0,2.207
6.0,2.0,2.208
7.0,3.0,2.209
1.0,5.0,2.21
0.0,5.0,2.211
4.0,3.0,2.212
8.0,3.0,2.213
5.0,6.0,2.214
4.0,2.0,2.215
7.0,-5.0,2.216
10.0,-6.0,2.217
3.0,-5.0,2.218
-2.0,-1.0,2.219
-4.0,-2.0,2.22
-3.0,-5.0,2.221
-4.0,-1.0,2.222
-2.0,7.0,2.223
5.0,14.0,2.224
9.0,16.0,2.225
5.0,13.0,2.226
-1.0,8.0,2.227
-2.0,4.0,2.228
1.0,5.0,2.229
3.0,5.0,2.23
4.0,-1.0,2.231
6.0,-8.0,2.232
5.0,-7.0,2.233
2.0,-1.0,2.234
0.0,2.0,2.235
2.0,-1.0,2.236
6.0,-2.0,2.237
5.0,-3.0,2.238
1.0,-7.0,2.239
-2.0,-15.0,2.24
-3.0,-21.0,2.241
-4.0,-14.0,2.242
-1.0,-9.0,2.243
7.0,-7.0,2.244
12.0,-3.0,2.245
7.0,6.0,2.246
1.0,12.0,2.247
2.0,11.0,2.248
7.0,11.0,2.249
6.0,11.0,2.25
0.0,6.0,2.251
0.0,-3.0,2.252
4.0,-5.0,2.253
6.0,0.0,2.254
5.0,6.0,2.255
3.0,7.0,2.256
1.0,8.0,2.257
0.0,9.0,2.258
-3.0,9.0,2.259
-4.0,3.0,2.26
-5.0,-6.0,2.261
-4.0,-10.0,2.262
1.0,-14.0,2.263
7.0,-19.0,2.264
7.0,-17.0,2.265
0.0,-10.0,2.266
-3.0,-4.0,2.267
1.0,-3.0,2.268
2.0,-5.0,2.269
-1.0,-4.0,2.27
-2.0,0.0,2.271
0.0,1.0,2.272
1.0,3.0,2.273
0.0,5.0,2.274
3.0,2.0,2.275
11.0,-5.0,2.276
16.0,-8.0,2.277
11.0,-7.0,2.278
4.0,0.0,2.279
-2.0,0.0,2.28
-5.0,-4.0,2.281
-8.0,-5.0,2.282
-4.0,-2.0,2.283
3.0,-1.0,2.284
6.0,-1.0,2.285
2.0,0.0,2.286
1.0,3.0,2.287
5.0,3.0,2.288
8.0,0.0,2.289
6.0,-6.0,2.29
3.0,-10.0,2.291
3.0,-9.0,2.292
4.0,-3.0,2.293
3.0,5.0,2.294
4.0,5.0,2.295
6.0,1.0,2.296
8.0,2.0,2.297
7.0,5.0,2.298
5.0,6.0,2.299
0.0,-1.0,2.3
-5.0,-9.0,2.301
-8.0,-6.0,2.302
-2.0,2.0,2.303
6.0,11.0,2.304
8.0,16.0,2.305
3.0,16.0,2.306
2.0,13.0,2.307
4.0,11.0,2.308
3.0,9.0,2.309
-1.0,7.0,2.31
-1.0,-1.0,2.311
6.0,-10.0,2.312
9.0,-16.0,2.313
1.0,-12.0,2.314
-2.0,-5.0,2.315
2.0,-4.0,2.316
9.0,-6.0,2.317
8.0,-10.0,2.318
2.0,-10.0,2.319
-3.0,-6.0,2.32
-7.0,-3.0,2.321
-9.0,-2.0,2.322
-4.0,-5.0,2.323
7.0,-5.0,2.324
11.0,-2.0,2.325
5.0,0.0,2.326
1.0,-2.0,2.327
5.0,-6.0,2.328
9.0,-7.0,2.329
4.0,-8.0,2.33
1.0,-8.0,2.331
4.0,-6.0,2.332
8.0,-1.0,2.333
5.0,-1.0,2.334
-1.0,-1.0,2.335
-3.0,3.0,2.336
-1.0,12.0,2.337
-2.0,14.0,2.338
-4.0,12.0,2.339
-5.0,13.0,2.34
-6.0,16.0,2.341
-8.0,19.0,2.342
-3.0,14.0,2.343
9.0,7.0,2.344
19.0,2.0,2.345
16.0,0.0,2.346
10.0,0.0,2.347
7.0,0.0,2.348
8.0,-5.0,2.349
7.0,-15.0,2.35
4.0,-23.0,2.351
4.0,-21.0,2.352
4.0,-12.0,2.353
1.0,-9.0,2.354
-1.0,-10.0,2.355
1.0,-10.0,2.356
7.0,-2.0,2.357
5.0,3.0,2.358
-1.0,3.0,2.359
-7.0,1.0,2.36
-11.0,2.0,2.361
-9.0,8.0,2.362
-2.0,8.0,2.363
8.0,0.0,2.364
13.0,-8.0,2.365
13.0,-12.0,2.366
9.0,-12.0,2.367
4.0,-8.0,2.368
0.0,-2.0,2.369
0.0,-1.0,2.37
1.0,-5.0,2.371
3.0,-8.0,2.372
1.0,-5.0,2.373
0.0,1.0,2.374
3.0,4.0,2.375
3.0,3.0,2.376
3.0,4.0,2.377
2.0,4.0,2.378
4.0,3.0,2.379
4.0,2.0,2.38
-1.0,0.0,2.381
-2.0,-1.0,2.382
6.0,-1.0,2.383
16.0,3.0,2.384
15.0,12.0,2.385
5.0,15.0,2.386
-4.0,11.0,2.387
-6.0,6.0,2.388
-2.0,8.0,2.389
1.0,11.0,2.39
1.0,10.0,2.391
-1.0,6.0,2.392
-4.0,3.0,2.393
-2.0,2.0,2.394
2.0,0.0,2.395
4.0,-1.0,2.396
3.0,0.0,2.397
0.0,2.0,2.398
-1.0,1.0,2.399
-3.0,-2.0,2.4
-4.0,-7.0,2.401
-1.0,-9.0,2.402
7.0,-9.0,2.403
13.0,-11.0,2.404
11.0,-10.0,2.405
5.0,-11.0,2.406
4.0,-12.0,2.407
8.0,-13.0,2.408
10.0,-8.0,2.409
6.0,-2.0,2.41
2.0,1.0,2.411
2.0,0.0,2.412
2.0,0.0,2.413
0.0,0.0,2.414
-3.0,1.0,2.415
-3.0,3.0,2.416
0.0,6.0,2.417
3.0,5.0,2.418
4.0,3.0,2.419
1.0,1.0,2.42
-2.0,-1.0,2.421
-5.0,-2.0,2.422
-1.0,-5.0,2.423
6.0,-6.0,2.424
10.0,0.0,2.425
4.0,10.0,2.426
-1.0,9.0,2.427
2.0,-3.0,2.428
10.0,-15.0,2.429
12.0,-17.0,2.43
9.0,-12.0,2.431
7.0,-8.0,2.432
3.0,-6.0,2.433
1.0,-2.0,2.434
0.0,1.0,2.435
2.0,3.0,2.436
5.0,4.0,2.437
4.0,3.0,2.438
3.0,0.0,2.439
2.0,0.0,2.44
-2.0,4.0,2.441
-6.0,13.0,2.442
-4.0,12.0,2.443
3.0,4.0,2.444
5.0,1.0,2.445
1.0,5.0,2.446
0.0,4.0,2.447
3.0,-4.0,2.448
4.0,-8.0,2.449
3.0,-2.0,2.45
2.0,5.0,2.451
6.0,4.0,2.452
6.0,0.0,2.453
0.0,0.0,2.454
-2.0,2.0,2.455
0.0,-1.0,2.456
6.0,-4.0,2.457
6.0,-2.0,2.458
4.0,10.0,2.459
1.0,28.0,2.46
-2.0,38.0,2.461
-3.0,37.0,2.462
3.0,20.0,2.463
15.0,-14.0,2.464
23.0,-49.0,2.465
23.0,-72.0,2.466
18.0,-75.0,2.467
10.0,-65.0,2.468
-3.0,-49.0,2.469
-13.0,-36.0,2.47
-15.0,-25.0,2.471
-7.0,-14.0,2.472
-1.0,-3.0,2.473
-2.0,4.0,2.474
-2.0,6.0,2.475
-1.0,9.0,2.476
-2.0,21.0,2.477
-7.0,31.0,2.478
-9.0,31.0,2.479
-5.0,24.0,2.48
0.0,17.0,2.481
0.0,20.0,2.482
1.0,20.0,2.483
5.0,17.0,2.484
9.0,16.0,2.485
9.0,20.0,2.486
8.0,20.0,2.487
9.0,14.0,2.488
11.0,10.0,2.489
7.0,13.0,2.49
2.0,14.0,2.491
2.0,8.0,2.492
4.0,2.0,2.493
3.0,0.0,2.494
1.0,0.0,2.495
1.0,-4.0,2.496
2.0,-7.0,2.497
0.0,-8.0,2.498
-1.0,-10.0,2.499
-4.0,-11.0,2.5
-7.0,-14.0,2.501
-6.0,-12.0,2.502
0.0,-8.0,2.503
6.0,-3.0,2.504
8.0,1.0,2.505
4.0,4.0,2.506
4.0,2.0,2.507
8.0,0.0,2.508
10.0,-1.0,2.509
7.0,1.0,2.51
4.0,3.0,2.511
3.0,3.0,2.512
0.0,2.0,2.513
-5.0,1.0,2.514
-5.0,-2.0,2.515
-4.0,-4.0,2.516
-3.0,0.0,2.517
-8.0,11.0,2.518
-13.0,26.0,2.519
-16.0,29.0,2.52
-10.0,14.0,2.521
3.0,-7.0,2.522
20.0,-20.0,2.523
28.0,-20.0,2.524
23.0,-16.0,2.525
18.0,-16.0,2.526
23.0,-21.0,2.527
34.0,-23.0,2.528
37.0,-23.0,2.529
27.0,-24.0,2.53
15.0,-20.0,2.531
9.0,-9.0,2.532
6.0,3.0,2.533
2.0,9.0,2.534
-2.0,10.0,2.535
-4.0,9.0,2.536
-4.0,10.0,2.537
-6.0,13.0,2.538
-7.0,22.0,2.539
-10.0,25.0,2.54
-13.0,10.0,2.541
-11.0,-11.0,2.542
-3.0,-21.0,2.543
-3.0,-19.0,2.544
-17.0,-19.0,2.545
-32.0,-23.0,2.546
-27.0,-18.0,2.547
0.0,-6.0,2.548
23.0,-2.0,2.549
24.0,-4.0,2.55
10.0,1.0,2.551
3.0,21.0,2.552
10.0,36.0,2.553
14.0,29.0,2.554
8.0,8.0,2.555
0.0,0.0,2.556
-2.0,17.0,2.557
0.0,42.0,2.558
-1.0,45.0,2.559
-6.0,9.0,2.56
-9.0,-49.0,2.561
-11.0,-82.0,2.562
-12.0,-71.0,2.563
-12.0,-39.0,2.564
-11.0,-18.0,2.565
-8.0,-8.0,2.566
-3.0,-1.0,2.567
4.0,4.0,2.568
11.0,2.0,2.569
15.0,0.0,2.57
20.0,3.0,2.571
27.0,8.0,2.572
29.0,9.0,2.573
20.0,11.0,2.574
6.0,13.0,2.575
-5.0,13.0,2.576
-9.0,10.0,2.577
-11.0,6.0,2.578
-12.0,6.0,2.579
-12.0,6.0,2.58
-9.0,0.0,2.581
-9.0,-3.0,2.582
-10.0,-3.0,2.583
-6.0,-4.0,2.584
8.0,-4.0,2.585
27.0,0.0,2.586
37.0,4.0,2.587
36.0,4.0,2.588
29.0,3.0,2.589
22.0,6.0,2.59
15.0,7.0,2.591
2.0,4.0,2.592
-10.0,0.0,2.593
-17.0,1.0,2.594
-14.0,1.0,2.595
-7.0,-1.0,2.596
-4.0,-2.0,2.597
-4.0,-3.0,2.598
-1.0,-2.0,2.599
1.0,-1.0,2.6
3.0,-1.0,2.601
6.0,3.0,2.602
11.0,6.0,2.603
15.0,4.0,2.604
9.0,1.0,2.605
-3.0,1.0,2.606
-5.0,1.0,2.607
-2.0,-3.0,2.608
0.0,-6.0,2.609
-5.0,-6.0,2.61
-8.0,-4.0,2.611
0.0,-3.0,2.612
4.0,-4.0,2.613
2.0,-2.0,2.614
1.0,-1.0,2.615
4.0,-2.0,2.616
10.0,-2.0,2.617
11.0,-6.0,2.618
6.0,-6.0,2.619
2.0,-5.0,2.62
-3.0,-8.0,2.621
-3.0,-8.0,2.622
1.0,-7.0,2.623
11.0,-2.0,2.624
14.0,1.0,2.625
8.0,0.0,2.626
2.0,0.0,2.627
2.0,0.0,2.628
5.0,-1.0,2.629
3.0,-3.0,2.63
1.0,-2.0,2.631
1.0,3.0,2.632
0.0,7.0,2.633
-2.0,4.0,2.634
-1.0,0.0,2.635
2.0,-2.0,2.636
5.0,1.0,2.637
1.0,1.0,2.638
-2.0,-3.0,2.639
-5.0,-4.0,2.64
-6.0,-8.0,2.641
-4.0,-7.0,2.642
1.0,-4.0,2.643
9.0,3.0,2.644
11.0,9.0,2.645
4.0,7.0,2.646
0.0,0.0,2.647
2.0,-3.0,2.648
6.0,0.0,2.649
7.0,4.0,2.65
7.0,3.0,2.651
7.0,-1.0,2.652
5.0,-1.0,2.653
1.0,3.0,2.654
-2.0,8.0,2.655
-4.0,6.0,2.656
-2.0,3.0,2.657
-2.0,0.0,2.658
-2.0,-2.0,2.659
-3.0,-7.0,2.66
-2.0,-18.0,2.661
0.0,-24.0,2.662
2.0,-22.0,2.663
-2.0,-13.0,2.664
-12.0,-4.0,2.665
-17.0,3.0,2.666
-11.0,4.0,2.667
4.0,0.0,2.668
16.0,-2.0,2.669
19.0,0.0,2.67
22.0,4.0,2.671
29.0,6.0,2.672
32.0,5.0,2.673
26.0,4.0,2.674
17.0,2.0,2.675
7.0,0.0,2.676
-4.0,0.0,2.677
-20.0,0.0,2.678
-29.0,1.0,2.679
-23.0,0.0,2.68
-4.0,9.0,2.681
15.0,44.0,2.682
24.0,89.0,2.683
23.0,106.0,2.684
19.0,64.0,2.685
12.0,-11.0,2.686
6.0,-64.0,2.687
1.0,-74.0,2.688
-2.0,-67.0,2.689
-4.0,-68.0,2.69
-1.0,-69.0,2.691
1.0,-56.0,2.692
1.0,-36.0,2.693
-2.0,-26.0,2.694
-3.0,-20.0,2.695
-1.0,-4.0,2.696
0.0,14.0,2.697
-1.0,18.0,2.698
-5.0,10.0,2.699
-7.0,4.0,2.7
-11.0,4.0,2.701
-12.0,11.0,2.702
-6.0,16.0,2.703
3.0,14.0,2.704
8.0,10.0,2.705
3.0,9.0,2.706
-1.0,14.0,2.707
2.0,14.0,2.708
6.0,8.0,2.709
2.0,4.0,2.71
-1.0,6.0,2.711
2.0,10.0,2.712
9.0,9.0,2.713
9.0,6.0,2.714
5.0,10.0,2.715
6.0,18.0,2.716
9.0,26.0,2.717
7.0,25.0,2.718
3.0,17.0,2.719
0.0,0.0,2.72
0.0,-19.0,2.721
-2.0,-25.0,2.722
0.0,-21.0,2.723
4.0,-16.0,2.724
8.0,-13.0,2.725
5.0,-8.0,2.726
1.0,-6.0,2.727
3.0,-9.0,2.728
4.0,-12.0,2.729
3.0,-7.0,2.73
0.0,5.0,2.731
0.0,11.0,2.732
0.0,9.0,2.733
-1.0,7.0,2.734
0.0,9.0,2.735
2.0,13.0,2.736
3.0,19.0,2.737
-2.0,23.0,2.738
-5.0,22.0,2.739
-5.0,14.0,2.74
-4.0,3.0,2.741
-3.0,-2.0,2.742
3.0,-9.0,2.743
14.0,-26.0,2.744
16.0,-45.0,2.745
10.0,-51.0,2.746
3.0,-43.0,2.747
2.0,-31.0,2.748
4.0,-21.0,2.749
3.0,-15.0,2.75
1.0,-11.0,2.751
1.0,-8.0,2.752
1.0,-4.0,2.753
0.0,1.0,2.754
0.0,7.0,2.755
1.0,11.0,2.756
3.0,12.0,2.757
5.0,10.0,2.758
6.0,11.0,2.759
3.0,12.0,2.76
0.0,11.0,2.761
-2.0,9.0,2.762
1.0,8.0,2.763
7.0,7.0,2.764
8.0,5.0,2.765
4.0,5.0,2.766
2.0,6.0,2.767
4.0,7.0,2.768
7.0,5.0,2.769
3.0,2.0,2.77
-2.0,2.0,2.771
-2.0,3.0,2.772
4.0,3.0,2.773
5.0,4.0,2.774
2.0,4.0,2.775
-1.0,1.0,2.776
1.0,-2.0,2.777
3.0,-5.0,2.778
3.0,-5.0,2.779
0.0,-2.0,2.78
-1.0,-4.0,2.781
-1.0,-3.0,2.782
4.0,1.0,2.783
11.0,7.0,2.784
10.0,10.0,2.785
5.0,10.0,2.786
2.0,7.0,2.787
7.0,3.0,2.788
10.0,-1.0,2.789
4.0,-3.0,2.79
1.0,-5.0,2.791
2.0,-7.0,2.792
2.0,-8.0,2.793
-3.0,-5.0,2.794
-7.0,-1.0,2.795
-4.0,-2.0,2.796
0.0,-3.0,2.797
-3.0,3.0,2.798
-5.0,19.0,2.799
-5.0,26.0,2.8
-5.0,16.0,2.801
-7.0,2.0,2.802
-4.0,-2.0,2.803
6.0,-3.0,2.804
12.0,-6.0,2.805
9.0,-1.0,2.806
5.0,16.0,2.807
6.0,38.0,2.808
11.0,40.0,2.809
14.0,22.0,2.81
16.0,4.0,2.811
16.0,-1.0,2.812
9.0,-16.0,2.813
-2.0,-62.0,2.814
-4.0,-117.0,2.815
1.0,-128.0,2.816
6.0,-88.0,2.817
1.0,-42.0,2.818
-3.0,-28.0,2.819
-6.0,-35.0,2.82
-7.0,-31.0,2.821
-6.0,-10.0,2.822
-3.0,7.0,2.823
1.0,20.0,2.824
-1.0,34.0,2.825
-8.0,41.0,2.826
-8.0,33.0,2.827
-1.0,21.0,2.828
6.0,22.0,2.829
9.0,30.0,2.83
11.0,30.0,2.831
11.0,23.0,2.832
6.0,17.0,2.833
2.0,14.0,2.834
4.0,10.0,2.835
5.0,7.0,2.836
5.0,7.0,2.837
0.0,5.0,2.838
-1.0,2.0,2.839
-4.0,1.0,2.84
-6.0,0.0,2.841
-5.0,0.0,2.842
6.0,0.0,2.843
15.0,1.0,2.844
15.0,6.0,2.845
13.0,6.0,2.846
6.0,1.0,2.847
0.0,-1.0,2.848
-5.0,3.0,2.849
-10.0,6.0,2.85
-10.0,3.0,2.851
-11.0,1.0,2.852
-14.0,4.0,2.853
-14.0,6.0,2.854
-4.0,1.0,2.855
5.0,-3.0,2.856
13.0,-2.0,2.857
21.0,-3.0,2.858
23.0,-5.0,2.859
22.0,-5.0,2.86
17.0,-6.0,2.861
11.0,-5.0,2.862
10.0,-5.0,2.863
13.0,-4.0,2.864
11.0,0.0,2.865
7.0,1.0,2.866
8.0,-2.0,2.867
13.0,-3.0,2.868
10.0,-3.0,2.869
-1.0,-1.0,2.87
-11.0,-1.0,2.871
-11.0,-4.0,2.872
-10.0,-3.0,2.873
-16.0,-4.0,2.874
-24.0,-5.0,2.875
-23.0,-6.0,2.876
-7.0,-4.0,2.877
20.0,-2.0,2.878
39.0,-2.0,2.879
38.0,-3.0,2.88
19.0,-2.0,2.881
6.0,3.0,2.882
11.0,9.0,2.883
18.0,9.0,2.884
11.0,8.0,2.885
-3.0,8.0,2.886
-8.0,9.0,2.887
-4.0,4.0,2.888
-2.0,-1.0,2.889
-4.0,-7.0,2.89
-2.0,-11.0,2.891
2.0,-17.0,2.892
2.0,-20.0,2.893
-3.0,-19.0,2.894
-3.0,-15.0,2.895
-1.0,-7.0,2.896
2.0,2.0,2.897
0.0,6.0,2.898
-1.0,1.0,2.899
-2.0,-8.0,2.9
-4.0,-14.0,2.901
-6.0,-10.0,2.902
-2.0,-5.0,2.903
2.0,0.0,2.904
1.0,4.0,2.905
-4.0,10.0,2.906
-5.0,10.0,2.907
0.0,9.0,2.908
0.0,12.0,2.909
-2.0,20.0,2.91
0.0,24.0,2.911
7.0,24.0,2.912
7.0,22.0,2.913
-1.0,16.0,2.914
-10.0,8.0,2.915
-12.0,0.0,2.916
-6.0,-7.0,2.917
3.0,-16.0,2.918
14.0,-33.0,2.919
19.0,-46.0,2.92
19.0,-47.0,2.921
17.0,-34.0,2.922
17.0,-25.0,2.923
21.0,-22.0,2.924
23.0,-17.0,2.925
19.0,-4.0,2.926
12.0,11.0,2.927
3.0,16.0,2.928
-2.0,13.0,2.929
-3.0,11.0,2.93
0.0,10.0,2.931
1.0,7.0,2.932
0.0,1.0,2.933
-1.0,-2.0,2.934
-1.0,0.0,2.935
-4.0,2.0,2.936
-9.0,3.0,2.937
-17.0,0.0,2.938
-22.0,-1.0,2.939
-25.0,-1.0,2.94
-33.0,-1.0,2.941
-40.0,5.0,2.942
-32.0,16.0,2.943
-1.0,26.0,2.944
37.0,27.0,2.945
57.0,15.0,2.946
55.0,-2.0,2.947
51.0,-14.0,2.948
51.0,-15.0,2.949
45.0,-9.0,2.95
26.0,-4.0,2.951
6.0,-1.0,2.952
-2.0,0.0,2.953
-6.0,-3.0,2.954
-15.0,-4.0,2.955
-24.0,0.0,2.956
-26.0,11.0,2.957
-23.0,10.0,2.958
-23.0,-2.0,2.959
-28.0,-16.0,2.96
-28.0,-22.0,2.961
-20.0,-13.0,2.962
-4.0,-5.0,2.963
12.0,0.0,2.964
23.0,3.0,2.965
26.0,12.0,2.966
26.0,19.0,2.967
25.0,17.0,2.968
18.0,9.0,2.969
5.0,-1.0,2.97
-6.0,-5.0,2.971
-11.0,-3.0,2.972
-11.0,1.0,2.973
-13.0,5.0,2.974
-12.0,4.0,2.975
-4.0,1.0,2.976
5.0,1.0,2.977
6.0,6.0,2.978
-1.0,9.0,2.979
-4.0,5.0,2.98
1.0,-13.0,2.981
8.0,-27.0,2.982
12.0,-28.0,2.983
13.0,-18.0,2.984
11.0,-8.0,2.985
6.0,-2.0,2.986
2.0,-1.0,2.987
4.0,-3.0,2.988
7.0,-5.0,2.989
5.0,-3.0,2.99
1.0,-2.0,2.991
3.0,-9.0,2.992
5.0,-19.0,2.993
-2.0,-17.0,2.994
-15.0,-8.0,2.995
-15.0,-7.0,2.996
-2.0,-13.0,2.997
12.0,-17.0,2.998
13.0,-8.0,2.999
9.0,4.0,3.0
5.0,6.0,3.001
6.0,5.0,3.002
8.0,12.0,3.003
10.0,27.0,3.004
12.0,37.0,3.005
9.0,35.0,3.006
4.0,23.0,3.007
0.0,12.0,3.008
0.0,7.0,3.009
-1.0,2.0,3.01
1.0,-5.0,3.011
3.0,-8.0,3.012
9.0,-4.0,3.013
10.0,0.0,3.014
7.0,-12.0,3.015
3.0,-36.0,3.016
2.0,-50.0,3.017
-1.0,-43.0,3.018
-10.0,-16.0,3.019
-29.0,16.0,3.02
-40.0,34.0,3.021
-27.0,27.0,3.022
6.0,1.0,3.023
29.0,-21.0,3.024
24.0,-21.0,3.025
7.0,-13.0,3.026
3.0,-9.0,3.027
13.0,-7.0,3.028
17.0,1.0,3.029
11.0,12.0,3.03
7.0,12.0,3.031
9.0,6.0,3.032
8.0,4.0,3.033
4.0,5.0,3.034
3.0,7.0,3.035
2.0,8.0,3.036
0.0,13.0,3.037
-4.0,14.0,3.038
-5.0,9.0,3.039
-7.0,6.0,3.04
-12.0,12.0,3.041
-14.0,25.0,3.042
-5.0,30.0,3.043
9.0,25.0,3.044
12.0,18.0,3.045
5.0,12.0,3.046
-1.0,3.0,3.047
0.0,-9.0,3.048
3.0,-19.0,3.049
7.0,-24.0,3.05
8.0,-26.0,3.051
6.0,-25.0,3.052
-4.0,-18.0,3.053
-15.0,-9.0,3.054
-20.0,-6.0,3.055
-17.0,-7.0,3.056
-15.0,-5.0,3.057
-12.0,-5.0,3.058
-4.0,-8.0,3.059
7.0,-14.0,3.06
15.0,-11.0,3.061
19.0,-1.0,3.062
25.0,4.0,3.063
32.0,-4.0,3.064
33.0,-12.0,3.065
29.0,-9.0,3.066
23.0,-2.0,3.067
16.0,3.0,3.068
2.0,11.0,3.069
-12.0,20.0,3.07
-20.0,25.0,3.071
-19.0,21.0,3.072
-13.0,15.0,3.073
-8.0,8.0,3.074
-3.0,-4.0,3.075
4.0,-18.0,3.076
10.0,-26.0,3.077
6.0,-25.0,3.078
4.0,-24.0,3.079
9.0,-21.0,3.08
20.0,-14.0,3.081
28.0,2.0,3.082
31.0,16.0,3.083
26.0,23.0,3.084
14.0,27.0,3.085
0.0,30.0,3.086
-12.0,28.0,3.087
-27.0,20.0,3.088
-47.0,12.0,3.089
-58.0,7.0,3.09
-45.0,-2.0,3.091
-13.0,-14.0,3.092
14.0,-28.0,3.093
23.0,-40.0,3.094
24.0,-46.0,3.095
35.0,-40.0,3.096
50.0,-26.0,3.097
55.0,-13.0,3.098
45.0,-4.0,3.099
24.0,5.0,3.1
6.0,10.0,3.101
-5.0,10.0,3.102
-5.0,0.0,3.103
1.0,-7.0,3.104
3.0,-5.0,3.105
-6.0,-2.0,3.106
-14.0,-7.0,3.107
-8.0,-4.0,3.108
2.0,16.0,3.109
2.0,39.0,3.11
-7.0,47.0,3.111
-19.0,40.0,3.112
-21.0,29.0,3.113
-17.0,18.0,3.114
-13.0,0.0,3.115
-11.0,-21.0,3.116
-10.0,-32.0,3.117
-10.0,-32.0,3.118
-8.0,-28.0,3.119
-10.0,-28.0,3.12
-10.0,-32.0,3.121
-8.0,-29.0,3.122
-7.0,-20.0,3.123
-16.0,-4.0,3.124
-42.0,23.0,3.125
-67.0,65.0,3.126
-59.0,95.0,3.127
-15.0,80.0,3.128
34.0,20.0,3.129
58.0,-43.0,3.13
63.0,-63.0,3.131
79.0,-43.0,3.132
105.0,-23.0,3.133
108.0,-26.0,3.134
75.0,-34.0,3.135
30.0,-27.0,3.136
8.0,-11.0,3.137
1.0,-1.0,3.138
-2.0,0.0,3.139
-11.0,4.0,3.14
-19.0,7.0,3.141
-23.0,9.0,3.142
-20.0,8.0,3.143
-7.0,10.0,3.144
4.0,24.0,3.145
3.0,39.0,3.146
-8.0,48.0,3.147
-20.0,43.0,3.148
-30.0,30.0,3.149
-42.0,16.0,3.15
-50.0,-1.0,3.151
-42.0,-18.0,3.152
-22.0,-29.0,3.153
-5.0,-28.0,3.154
0.0,-21.0,3.155
11.0,-18.0,3.156
30.0,-21.0,3.157
38.0,-23.0,3.158
26.0,-20.0,3.159
17.0,-10.0,3.16
17.0,0.0,3.161
16.0,13.0,3.162
8.0,19.0,3.163
-3.0,11.0,3.164
-24.0,-1.0,3.165
-40.0,-9.0,3.166
-36.0,-14.0,3.167
-31.0,-17.0,3.168
-27.0,-12.0,3.169
-20.0,-3.0,3.17
-4.0,-3.0,3.171
14.0,-10.0,3.172
39.0,-11.0,3.173
59.0,1.0,3.174
58.0,14.0,3.175
49.0,16.0,3.176
18.0,15.0,3.177
-9.0,13.0,3.178
-20.0,11.0,3.179
-19.0,6.0,3.18
-19.0,-4.0,3.181
-14.0,-8.0,3.182
8.0,-11.0,3.183
38.0,-16.0,3.184
57.0,-12.0,3.185
56.0,-2.0,3.186
42.0,8.0,3.187
26.0,14.0,3.188
13.0,19.0,3.189
3.0,20.0,3.19
2.0,15.0,3.191
6.0,2.0,3.192
10.0,-9.0,3.193
11.0,-13.0,3.194
5.0,-11.0,3.195
-3.0,-9.0,3.196
-9.0,-1.0,3.197
-13.0,11.0,3.198
-11.0,21.0,3.199
-11.0,15.0,3.2
-14.0,-5.0,3.201
-19.0,-22.0,3.202
-17.0,-24.0,3.203
-15.0,-17.0,3.204
-16.0,-12.0,3.205
-22.0,-9.0,3.206
-26.0,-6.0,3.207
-22.0,-3.0,3.208
-23.0,-2.0,3.209
-35.0,0.0,3.21
-50.0,5.0,3.211
-44.0,7.0,3.212
-20.0,6.0,3.213
-3.0,2.0,3.214
-12.0,0.0,3.215
-33.0,1.0,3.216
-35.0,0.0,3.217
-12.0,-5.0,3.218
14.0,-8.0,3.219
19.0,-12.0,3.22
15.0,-18.0,3.221
28.0,-19.0,3.222
67.0,-13.0,3.223
110.0,3.0,3.224
121.0,21.0,3.225
86.0,26.0,3.226
27.0,13.0,3.227
-19.0,-1.0,3.228
-37.0,-1.0,3.229
-38.0,12.0,3.23
-41.0,22.0,3.231
-46.0,15.0,3.232
-40.0,2.0,3.233
-15.0,-7.0,3.234
19.0,-8.0,3.235
42.0,-7.0,3.236
45.0,-3.0,3.237
26.0,0.0,3.238
-7.0,4.0,3.239
-52.0,5.0,3.24
-90.0,0.0,3.241
-91.0,1.0,3.242
-45.0,3.0,3.243
16.0,0.0,3.244
54.0,-5.0,3.245
72.0,-7.0,3.246
101.0,-4.0,3.247
132.0,-2.0,3.248
128.0,-1.0,3.249
85.0,0.0,3.25
48.0,0.0,3.251
46.0,-4.0,3.252
53.0,-5.0,3.253
39.0,2.0,3.254
11.0,15.0,3.255
-10.0,20.0,3.256
-19.0,12.0,3.257
-24.0,-4.0,3.258
-24.0,-10.0,3.259
-25.0,-9.0,3.26
-36.0,-10.0,3.261
-57.0,-11.0,3.262
-65.0,-9.0,3.263
-60.0,-2.0,3.264
-63.0,5.0,3.265
-73.0,7.0,3.266
-66.0,9.0,3.267
-37.0,16.0,3.268
-12.0,23.0,3.269
1.0,17.0,3.27
24.0,6.0,3.271
59.0,2.0,3.272
69.0,14.0,3.273
33.0,24.0,3.274
-19.0,13.0,3.275
-43.0,-9.0,3.276
-33.0,-21.0,3.277
-17.0,-25.0,3.278
-10.0,-31.0,3.279
-6.0,-48.0,3.28
2.0,-67.0,3.281
14.0,-70.0,3.282
23.0,-55.0,3.283
22.0,-26.0,3.284
11.0,2.0,3.285
-3.0,17.0,3.286
-9.0,9.0,3.287
-4.0,-1.0,3.288
-4.0,0.0,3.289
-17.0,6.0,3.29
-32.0,4.0,3.291
-36.0,-2.0,3.292
-29.0,1.0,3.293
-25.0,9.0,3.294
-23.0,8.0,3.295
-16.0,3.0,3.296
1.0,3.0,3.297
23.0,6.0,3.298
43.0,7.0,3.299
58.0,9.0,3.3
66.0,12.0,3.301
63.0,17.0,3.302
45.0,13.0,3.303
17.0,9.0,3.304
-10.0,9.0,3.305
-18.0,15.0,3.306
-7.0,15.0,3.307
12.0,12.0,3.308
21.0,12.0,3.309
21.0,14.0,3.31
23.0,10.0,3.311
27.0,-1.0,3.312
24.0,-10.0,3.313
16.0,-10.0,3.314
17.0,-11.0,3.315
35.0,-12.0,3.316
50.0,-6.0,3.317
35.0,7.0,3.318
-9.0,22.0,3.319
-54.0,24.0,3.32
-74.0,10.0,3.321
-68.0,-5.0,3.322
-45.0,-14.0,3.323
-17.0,-18.0,3.324
12.0,-14.0,3.325
29.0,-1.0,3.326
24.0,15.0,3.327
1.0,18.0,3.328
-18.0,6.0,3.329
-16.0,-3.0,3.33
-1.0,2.0,3.331
6.0,16.0,3.332
3.0,19.0,3.333
8.0,5.0,3.334
28.0,-11.0,3.335
50.0,-18.0,3.336
56.0,-18.0,3.337
46.0,-19.0,3.338
30.0,-22.0,3.339
3.0,-23.0,3.34
-38.0,-20.0,3.341
-73.0,-19.0,3.342
-69.0,-20.0,3.343
-26.0,-18.0,3.344
10.0,-10.0,3.345
-1.0,0.0,3.346
-44.0,3.0,3.347
-68.0,1.0,3.348
-49.0,-2.0,3.349
-9.0,-1.0,3.35
26.0,0.0,3.351
48.0,0.0,3.352
62.0,7.0,3.353
64.0,24.0,3.354
53.0,33.0,3.355
37.0,25.0,3.356
25.0,8.0,3.357
8.0,-4.0,3.358
-14.0,-5.0,3.359
-29.0,-3.0,3.36
-21.0,-6.0,3.361
7.0,-8.0,3.362
31.0,-9.0,3.363
36.0,-13.0,3.364
39.0,-21.0,3.365
63.0,-22.0,3.366
92.0,-11.0,3.367
79.0,5.0,3.368
19.0,22.0,3.369
-47.0,29.0,3.37
-76.0,20.0,3.371
-75.0,1.0,3.372
-71.0,-8.0,3.373
-63.0,0.0,3.374
-37.0,15.0,3.375
-8.0,17.0,3.376
0.0,7.0,3.377
-12.0,-5.0,3.378
-25.0,-6.0,3.379
-43.0,-5.0,3.38
-85.0,-9.0,3.381
-134.0,-10.0,3.382
-138.0,-10.0,3.383
-81.0,-11.0,3.384
-1.0,-13.0,3.385
71.0,-10.0,3.386
141.0,-4.0,3.387
207.0,-5.0,3.388
224.0,-11.0,3.389
159.0,-5.0,3.39
61.0,14.0,3.391
1.0,27.0,3.392
-4.0,13.0,3.393
-3.0,-13.0,3.394
-19.0,-27.0,3.395
-28.0,-27.0,3.396
-9.0,-21.0,3.397
20.0,-10.0,3.398
33.0,17.0,3.399
14.0,44.0,3.4
-25.0,40.0,3.401
-58.0,12.0,3.402
-60.0,-9.0,3.403
-35.0,-6.0,3.404
-19.0,1.0,3.405
-29.0,-6.0,3.406
-40.0,-17.0,3.407
-17.0,-11.0,3.408
28.0,8.0,3.409
56.0,26.0,3.41
50.0,29.0,3.411
24.0,21.0,3.412
-2.0,7.0,3.413
-29.0,-5.0,3.414
-59.0,-7.0,3.415
-90.0,-6.0,3.416
-104.0,-8.0,3.417
-94.0,-16.0,3.418
-65.0,-24.0,3.419
-48.0,-25.0,3.42
-45.0,-25.0,3.421
-20.0,-22.0,3.422
47.0,-9.0,3.423
120.0,8.0,3.424
138.0,20.0,3.425
103.0,18.0,3.426
66.0,10.0,3.427
51.0,5.0,3.428
51.0,4.0,3.429
52.0,9.0,3.43
61.0,18.0,3.431
75.0,20.0,3.432
85.0,2.0,3.433
77.0,-19.0,3.434
41.0,-19.0,3.435
-17.0,-3.0,3.436
-54.0,7.0,3.437
-43.0,-2.0,3.438
-4.0,-9.0,3.439
9.0,-9.0,3.44
-13.0,-14.0,3.441
-28.0,-24.0,3.442
-24.0,-20.0,3.443
-33.0,2.0,3.444
-63.0,20.0,3.445
-74.0,13.0,3.446
-45.0,-3.0,3.447
-6.0,-10.0,3.448
16.0,-7.0,3.449
24.0,-2.0,3.45
21.0,5.0,3.451
2.0,13.0,3.452
-18.0,17.0,3.453
-25.0,14.0,3.454
-36.0,11.0,3.455
-63.0,6.0,3.456
-79.0,-2.0,3.457
-60.0,-12.0,3.458
-30.0,-19.0,3.459
-40.0,-19.0,3.46
-92.0,-21.0,3.461
-155.0,-17.0,3.462
-209.0,-8.0,3.463
-217.0,0.0,3.464
-138.0,-5.0,3.465
8.0,-27.0,3.466
131.0,-53.0,3.467
186.0,-65.0,3.468
242.0,-41.0,3.469
348.0,26.0,3.47
416.0,104.0,3.471
344.0,130.0,3.472
174.0,80.0,3.473
44.0,8.0,3.474
14.0,-18.0,3.475
23.0,4.0,3.476
15.0,23.0,3.477
-18.0,10.0,3.478
-48.0,-2.0,3.479
-59.0,-10.0,3.48
-50.0,-7.0,3.481
-39.0,-5.0,3.482
-44.0,-11.0,3.483
-65.0,-15.0,3.484
-82.0,-11.0,3.485
-92.0,-8.0,3.486
-116.0,-7.0,3.487
-153.0,-6.0,3.488
-167.0,-7.0,3.489
-133.0,-12.0,3.49
-81.0,-29.0,3.491
-57.0,-39.0,3.492
-53.0,-27.0,3.493
-19.0,-11.0,3.494
58.0,13.0,3.495
129.0,29.0,3.496
142.0,21.0,3.497
98.0,8.0,3.498
57.0,-12.0,3.499
53.0,-9.0,3.5
66.0,7.0,3.501
46.0,22.0,3.502
-3.0,18.0,3.503
-44.0,7.0,3.504
-62.0,1.0,3.505
-72.0,1.0,3.506
-74.0,-6.0,3.507
-45.0,-20.0,3.508
15.0,-25.0,3.509
55.0,-12.0,3.51
29.0,8.0,3.511
-53.0,14.0,3.512
-128.0,2.0,3.513
-144.0,-10.0,3.514
-113.0,-14.0,3.515
-101.0,-12.0,3.516
-134.0,-11.0,3.517
-139.0,-11.0,3.518
-47.0,-5.0,3.519
53.0,-6.0,3.52
173.0,-27.0,3.521
283.0,-41.0,3.522
365.0,-35.0,3.523
422.0,-15.0,3.524
399.0,45.0,3.525
344.0,89.0,3.526
197.0,85.0,3.527
67.0,74.0,3.528
-12.0,40.0,3.529
-73.0,12.0,3.53
-81.0,2.0,3.531
-92.0,-8.0,3.532
-112.0,-17.0,3.533
-139.0,-24.0,3.534
-186.0,-20.0,3.535
-220.0,-16.0,3.536
-213.0,-16.0,3.537
-196.0,-17.0,3.538
-124.0,-19.0,3.539
-3.0,-21.0,3.54
93.0,-28.0,3.541
104.0,-27.0,3.542
71.0,-12.0,3.543
62.0,9.0,3.544
68.0,21.0,3.545
21.0,14.0,3.546
-78.0,-2.0,3.547
-155.0,-10.0,3.548
-152.0,-6.0,3.549
-90.0,3.0,3.55
-24.0,3.0,3.551
21.0,-6.0,3.552
56.0,-12.0,3.553
86.0,-6.0,3.554
101.0,7.0,3.555
76.0,18.0,3.556
13.0,17.0,3.557
-58.0,1.0,3.558
-85.0,-20.0,3.559
-57.0,-35.0,3.56
-10.0,-29.0,3.561
37.0,-16.0,3.562
82.0,15.0,3.563
86.0,37.0,3.564
-6.0,31.0,3.565
-138.0,20.0,3.566
-167.0,-6.0,3.567
-69.0,-26.0,3.568
25.0,-20.0,3.569
27.0,-12.0,3.57
28.0,1.0,3.571
104.0,14.0,3.572
154.0,22.0,3.573
68.0,23.0,3.574
-55.0,3.0,3.575
-49.0,-7.0,3.576
56.0,17.0,3.577
117.0,40.0,3.578
74.0,39.0,3.579
10.0,9.0,3.58
-12.0,-18.0,3.581
-20.0,-22.0,3.582
-17.0,-15.0,3.583
37.0,-15.0,3.584
117.0,-15.0,3.585
132.0,-11.0,3.586
59.0,-9.0,3.587
-19.0,-13.0,3.588
-45.0,-11.0,3.589
-49.0,6.0,3.59
-68.0,24.0,3.591
-87.0,23.0,3.592
-95.0,5.0,3.593
-121.0,-8.0,3.594
-178.0,-15.0,3.595
-232.0,-24.0,3.596
-245.0,-33.0,3.597
-204.0,-44.0,3.598
-112.0,-52.0,3.599
4.0,-55.0,3.6
108.0,-47.0,3.601
177.0,-9.0,3.602
220.0,45.0,3.603
244.0,80.0,3.604
235.0,71.0,3.605
212.0,36.0,3.606
232.0,18.0,3.607
295.0,42.0,3.608
305.0,78.0,3.609
194.0,76.0,3.61
30.0,30.0,3.611
-70.0,-15.0,3.612
-87.0,-22.0,3.613
-95.0,-7.0,3.614
-125.0,-7.0,3.615
-154.0,-20.0,3.616
-177.0,-24.0,3.617
-224.0,-20.0,3.618
-269.0,-22.0,3.619
-239.0,-32.0,3.62
-118.0,-38.0,3.621
11.0,-33.0,3.622
82.0,-26.0,3.623
108.0,-20.0,3.624
116.0,-5.0,3.625
81.0,10.0,3.626
0.0,6.0,3.627
-45.0,-16.0,3.628
-2.0,-30.0,3.629
73.0,-12.0,3.63
104.0,24.0,3.631
98.0,48.0,3.632
96.0,47.0,3.633
70.0,23.0,3.634
-17.0,-5.0,3.635
-118.0,-19.0,3.636
-151.0,-16.0,3.637
-125.0,-18.0,3.638
-89.0,-32.0,3.639
-68.0,-41.0,3.64
-36.0,-29.0,3.641
7.0,4.0,3.642
33.0,30.0,3.643
19.0,28.0,3.644
-12.0,3.0,3.645
-20.0,-24.0,3.646
15.0,-31.0,3.647
63.0,-13.0,3.648
86.0,16.0,3.649
101.0,36.0,3.65
139.0,47.0,3.651
165.0,53.0,3.652
104.0,41.0,3.653
-20.0,12.0,3.654
-104.0,-11.0,3.655
-105.0,-10.0,3.656
-80.0,-3.0,3.657
-60.0,-12.0,3.658
-17.0,-25.0,3.659
49.0,-19.0,3.66
76.0,0.0,3.661
42.0,10.0,3.662
3.0,0.0,3.663
-5.0,-11.0,3.664
-13.0,-9.0,3.665
-32.0,-3.0,3.666
-37.0,-2.0,3.667
-20.0,-4.0,3.668
-17.0,-6.0,3.669
-31.0,-6.0,3.67
-31.0,-7.0,3.671
-15.0,-6.0,3.672
-8.0,-6.0,3.673
-17.0,-6.0,3.674
-16.0,-9.0,3.675
-5.0,-7.0,3.676
-4.0,-4.0,3.677
-13.0,-5.0,3.678
-15.0,-7.0,3.679
-23.0,-8.0,3.68
-44.0,-9.0,3.681
-63.0,-10.0,3.682
-79.0,-10.0,3.683
-86.0,-8.0,3.684
-68.0,0.0,3.685
-37.0,8.0,3.686
28.0,6.0,3.687
85.0,-6.0,3.688
112.0,-16.0,3.689
127.0,-14.0,3.69
104.0,0.0,3.691
84.0,16.0,3.692
70.0,26.0,3.693
61.0,30.0,3.694
66.0,32.0,3.695
71.0,33.0,3.696
77.0,30.0,3.697
73.0,20.0,3.698
24.0,9.0,3.699
-30.0,4.0,3.7
-40.0,-2.0,3.701
-14.0,-5.0,3.702
5.0,-8.0,3.703
-11.0,-7.0,3.704
-35.0,-5.0,3.705
-57.0,-10.0,3.706
-94.0,-19.0,3.707
-162.0,-25.0,3.708
-233.0,-30.0,3.709
-271.0,-39.0,3.71
-252.0,-48.0,3.711
-157.0,-47.0,3.712
3.0,-28.0,3.713
171.0,-1.0,3.714
272.0,24.0,3.715
310.0,49.0,3.716
335.0,70.0,3.717
337.0,81.0,3.718
253.0,75.0,3.719
116.0,45.0,3.72
38.0,8.0,3.721
38.0,-10.0,3.722
27.0,-11.0,3.723
-39.0,-7.0,3.724
-87.0,-9.0,3.725
-70.0,-13.0,3.726
-52.0,-12.0,3.727
-85.0,-10.0,3.728
-132.0,-15.0,3.729
-159.0,-22.0,3.73
-197.0,-27.0,3.731
-243.0,-34.0,3.732
-219.0,-45.0,3.733
-102.0,-56.0,3.734
26.0,-63.0,3.735
93.0,-56.0,3.736
130.0,-24.0,3.737
189.0,41.0,3.738
234.0,106.0,3.739
176.0,112.0,3.74
19.0,45.0,3.741
-131.0,-27.0,3.742
-179.0,-42.0,3.743
-129.0,-15.0,3.744
-44.0,-3.0,3.745
32.0,-14.0,3.746
92.0,-11.0,3.747
131.0,22.0,3.748
113.0,44.0,3.749
37.0,28.0,3.75
-31.0,-3.0,3.751
-20.0,-16.0,3.752
40.0,-8.0,3.753
47.0,1.0,3.754
-31.0,1.0,3.755
-114.0,-6.0,3.756
-129.0,-13.0,3.757
-94.0,-21.0,3.758
-55.0,-22.0,3.759
-11.0,-25.0,3.76
45.0,-31.0,3.761
93.0,-32.0,3.762
117.0,-15.0,3.763
127.0,2.0,3.764
93.0,18.0,3.765
56.0,30.0,3.766
8.0,28.0,3.767
-30.0,25.0,3.768
-37.0,17.0,3.769
-43.0,9.0,3.77
-42.0,4.0,3.771
-39.0,0.0,3.772
-31.0,2.0,3.773
-24.0,3.0,3.774
-22.0,1.0,3.775
-18.0,0.0,3.776
-9.0,-2.0,3.777
-4.0,-5.0,3.778
-20.0,-9.0,3.779
-34.0,-10.0,3.78
-33.0,-13.0,3.781
-25.0,-12.0,3.782
-22.0,-12.0,3.783
-14.0,-11.0,3.784
-6.0,-9.0,3.785
-5.0,-6.0,3.786
-3.0,-6.0,3.787
8.0,-6.0,3.788
18.0,1.0,3.789
19.0,13.0,3.79
13.0,18.0,3.791
13.0,11.0,3.792
14.0,-1.0,3.793
7.0,-3.0,3.794
1.0,3.0,3.795
0.0,4.0,3.796
-10.0,0.0,3.797
-57.0,-4.0,3.798
-134.0,-7.0,3.799
-209.0,-14.0,3.8
-244.0,-33.0,3.801
-203.0,-54.0,3.802
-71.0,-70.0,3.803
107.0,-72.0,3.804
238.0,-45.0,3.805
266.0,20.0,3.806
220.0,99.0,3.807
178.0,131.0,3.808
193.0,93.0,3.809
249.0,34.0,3.81
279.0,24.0,3.811
207.0,54.0,3.812
49.0,56.0,3.813
-68.0,14.0,3.814
-56.0,-21.0,3.815
7.0,-14.0,3.816
3.0,4.0,3.817
-63.0,-5.0,3.818
-91.0,-25.0,3.819
-61.0,-24.0,3.82
-53.0,-15.0,3.821
-83.0,-19.0,3.822
-86.0,-29.0,3.823
-47.0,-21.0,3.824
-31.0,-9.0,3.825
-56.0,-10.0,3.826
-65.0,-16.0,3.827
-40.0,-13.0,3.828
-25.0,-6.0,3.829
-38.0,-12.0,3.83
-41.0,-20.0,3.831
-26.0,-14.0,3.832
-22.0,-6.0,3.833
-35.0,-7.0,3.834
-39.0,-14.0,3.835
-24.0,-17.0,3.836
-11.0,-17.0,3.837
0.0,-21.0,3.838
22.0,-17.0,3.839
40.0,0.0,3.84
34.0,13.0,3.841
12.0,16.0,3.842
5.0,6.0,3.843
18.0,0.0,3.844
20.0,4.0,3.845
10.0,9.0,3.846
4.0,8.0,3.847
11.0,5.0,3.848
12.0,6.0,3.849
4.0,5.0,3.85
-2.0,0.0,3.851
1.0,-3.0,3.852
6.0,-2.0,3.853
4.0,3.0,3.854
1.0,3.0,3.855
2.0,0.0,3.856
4.0,0.0,3.857
4.0,-1.0,3.858
4.0,-1.0,3.859
2.0,-2.0,3.86
-2.0,-3.0,3.861
-2.0,-1.0,3.862
5.0,0.0,3.863
13.0,-1.0,3.864
11.0,2.0,3.865
6.0,4.0,3.866
4.0,3.0,3.867
9.0,0.0,3.868
13.0,0.0,3.869
12.0,1.0,3.87
9.0,2.0,3.871
8.0,0.0,3.872
10.0,-1.0,3.873
12.0,-1.0,3.874
10.0,-1.0,3.875
7.0,-3.0,3.876
4.0,-1.0,3.877
1.0,1.0,3.878
1.0,1.0,3.879
0.0,-1.0,3.88
-5.0,-8.0,3.881
-19.0,-7.0,3.882
-44.0,-1.0,3.883
-73.0,1.0,3.884
-87.0,1.0,3.885
-62.0,0.0,3.886
-5.0,-1.0,3.887
51.0,-5.0,3.888
82.0,-6.0,3.889
94.0,-1.0,3.89
102.0,7.0,3.891
106.0,10.0,3.892
94.0,13.0,3.893
65.0,15.0,3.894
30.0,13.0,3.895
5.0,3.0,3.896
-5.0,-5.0,3.897
-9.0,-7.0,3.898
-14.0,-3.0,3.899
-25.0,-3.0,3.9
-38.0,-9.0,3.901
-47.0,-11.0,3.902
-51.0,-9.0,3.903
-48.0,-10.0,3.904
-37.0,-12.0,3.905
-28.0,-8.0,3.906
-24.0,2.0,3.907
-25.0,12.0,3.908
-29.0,13.0,3.909
-37.0,3.0,3.91
-32.0,-11.0,3.911
-3.0,-19.0,3.912
42.0,-13.0,3.913
68.0,-1.0,3.914
66.0,7.0,3.915
63.0,12.0,3.916
73.0,23.0,3.917
77.0,30.0,3.918
52.0,26.0,3.919
11.0,9.0,3.92
-13.0,-5.0,3.921
-14.0,-6.0,3.922
-9.0,-5.0,3.923
-11.0,-7.0,3.924
-14.0,-7.0,3.925
-16.0,-5.0,3.926
-20.0,-4.0,3.927
-23.0,-7.0,3.928
-20.0,-8.0,3.929
-15.0,-5.0,3.93
-12.0,-4.0,3.931
-13.0,-6.0,3.932
-15.0,-7.0,3.933
-14.0,-4.0,3.934
-14.0,-6.0,3.935
-15.0,-9.0,3.936
-11.0,-6.0,3.937
-7.0,-4.0,3.938
-5.0,-7.0,3.939
-13.0,-13.0,3.94
-23.0,-14.0,3.941
-27.0,-7.0,3.942
-23.0,-4.0,3.943
-21.0,-7.0,3.944
-30.0,-6.0,3.945
-37.0,-3.0,3.946
-13.0,0.0,3.947
40.0,5.0,3.948
82.0,13.0,3.949
87.0,18.0,3.95
69.0,14.0,3.951
52.0,3.0,3.952
35.0,-1.0,3.953
13.0,-2.0,3.954
-6.0,-3.0,3.955
-6.0,-5.0,3.956
2.0,-3.0,3.957
4.0,0.0,3.958
-2.0,-2.0,3.959
-8.0,-5.0,3.96
-12.0,-8.0,3.961
-14.0,-6.0,3.962
-10.0,-4.0,3.963
0.0,-2.0,3.964
4.0,1.0,3.965
-2.0,2.0,3.966
-4.0,-3.0,3.967
3.0,-4.0,3.968
10.0,0.0,3.969
7.0,5.0,3.97
1.0,5.0,3.971
4.0,0.0,3.972
5.0,0.0,3.973
-2.0,4.0,3.974
-5.0,8.0,3.975
0.0,4.0,3.976
7.0,0.0,3.977
2.0,-5.0,3.978
-6.0,-9.0,3.979
-11.0,-9.0,3.98
-8.0,-8.0,3.981
-4.0,-5.0,3.982
1.0,-1.0,3.983
11.0,-1.0,3.984
17.0,0.0,3.985
14.0,3.0,3.986
8.0,4.0,3.987
10.0,1.0,3.988
14.0,0.0,3.989
14.0,3.0,3.99
9.0,4.0,3.991
6.0,4.0,3.992
1.0,6.0,3.993
-3.0,8.0,3.994
-3.0,5.0,3.995
1.0,-1.0,3.996
5.0,-4.0,3.997
-2.0,-6.0,3.998
-14.0,-5.0,3.999
-23.0,-5.0,4.0
-23.0,-7.0,4.001
-16.0,-6.0,4.002
-4.0,-4.0,4.003
6.0,-3.0,4.004
9.0,-2.0,4.005
5.0,0.0,4.006
6.0,1.0,4.007
11.0,-3.0,4.008
13.0,-5.0,4.009
10.0,0.0,4.01
10.0,2.0,4.011
12.0,1.0,4.012
12.0,-3.0,4.013
9.0,-3.0,4.014
7.0,0.0,4.015
12.0,0.0,4.016
17.0,-1.0,4.017
13.0,-3.0,4.018
5.0,-3.0,4.019
0.0,-5.0,4.02
-3.0,-8.0,4.021
-4.0,-7.0,4.022
-4.0,-3.0,4.023
-4.0,1.0,4.024
-5.0,3.0,4.025
-6.0,6.0,4.026
-3.0,6.0,4.027
0.0,2.0,4.028
1.0,1.0,4.029
5.0,4.0,4.03
17.0,6.0,4.031
28.0,2.0,4.032
26.0,-2.0,4.033
12.0,-1.0,4.034
-1.0,2.0,4.035
0.0,4.0,4.036
9.0,5.0,4.037
12.0,4.0,4.038
5.0,1.0,4.039
-12.0,-2.0,4.04
-22.0,-5.0,4.041
-18.0,-3.0,4.042
-2.0,0.0,4.043
4.0,0.0,4.044
-9.0,1.0,4.045
-23.0,3.0,4.046
-20.0,2.0,4.047
0.0,-3.0,4.048
20.0,-7.0,4.049
27.0,-5.0,4.05
27.0,-1.0,4.051
26.0,-2.0,4.052
23.0,-2.0,4.053
12.0,-1.0,4.054
-4.0,-1.0,4.055
-17.0,-1.0,4.056
-22.0,-1.0,4.057
-25.0,-4.0,4.058
-17.0,-6.0,4.059
8.0,-7.0,4.06
40.0,-7.0,4.061
56.0,-4.0,4.062
43.0,0.0,4.063
19.0,2.0,4.064
2.0,6.0,4.065
-10.0,7.0,4.066
-33.0,6.0,4.067
-53.0,3.0,4.068
-49.0,2.0,4.069
-23.0,2.0,4.07
-1.0,0.0,4.071
1.0,-3.0,4.072
-5.0,-2.0,4.073
-6.0,-1.0,4.074
0.0,-3.0,4.075
3.0,-6.0,4.076
2.0,-4.0,4.077
2.0,-2.0,4.078
0.0,-2.0,4.079
-4.0,-6.0,4.08
-7.0,-9.0,4.081
-2.0,-8.0,4.082
13.0,-6.0,4.083
27.0,-4.0,4.084
32.0,-2.0,4.085
29.0,0.0,4.086
25.0,0.0,4.087
22.0,-1.0,4.088
23.0,-3.0,4.089
28.0,-1.0,4.09
31.0,0.0,4.091
28.0,0.0,4.092
19.0,0.0,4.093
10.0,1.0,4.094
3.0,3.0,4.095
-4.0,3.0,4.096
-7.0,5.0,4.097
-10.0,4.0,4.098
-11.0,0.0,4.099
-18.0,-2.0,4.1
-27.0,-3.0,4.101
-25.0,0.0,4.102
-7.0,1.0,4.103
9.0,2.0,4.104
6.0,4.0,4.105
-4.0,7.0,4.106
-7.0,5.0,4.107
0.0,2.0,4.108
1.0,-1.0,4.109
-1.0,-2.0,4.11
-1.0,-5.0,4.111
4.0,-6.0,4.112
6.0,-5.0,4.113
4.0,-5.0,4.114
2.0,-6.0,4.115
3.0,-6.0,4.116
5.0,-4.0,4.117
5.0,-1.0,4.118
4.0,0.0,4.119
1.0,-2.0,4.12
0.0,-5.0,4.121
4.0,-5.0,4.122
15.0,-1.0,4.123
19.0,3.0,4.124
12.0,5.0,4.125
0.0,4.0,4.126
-3.0,1.0,4.127
1.0,-2.0,4.128
4.0,-3.0,4.129
0.0,-1.0,4.13
-6.0,3.0,4.131
-5.0,3.0,4.132
-3.0,0.0,4.133
0.0,-2.0,4.134
5.0,-2.0,4.135
8.0,0.0,4.136
6.0,1.0,4.137
-1.0,-2.0,4.138
-8.0,-4.0,4.139
-12.0,-4.0,4.14
-15.0,-5.0,4.141
-15.0,-4.0,4.142
-6.0,-3.0,4.143
2.0,1.0,4.144
8.0,5.0,4.145
8.0,5.0,4.146
12.0,1.0,4.147
12.0,-2.0,4.148
0.0,-3.0,4.149
-11.0,-3.0,4.15
-6.0,-2.0,4.151
13.0,-3.0,4.152
27.0,-2.0,4.153
26.0,3.0,4.154
24.0,4.0,4.155
27.0,0.0,4.156
28.0,-3.0,4.157
19.0,-4.0,4.158
7.0,-2.0,4.159
0.0,-2.0,4.16
-4.0,-7.0,4.161
-10.0,-7.0,4.162
-11.0,0.0,4.163
-10.0,7.0,4.164
-11.0,9.0,4.165
-10.0,5.0,4.166
-2.0,0.0,4.167
7.0,-4.0,4.168
5.0,-5.0,4.169
-5.0,-3.0,4.17
-7.0,-3.0,4.171
0.0,-2.0,4.172
3.0,-1.0,4.173
-1.0,-2.0,4.174
-7.0,-2.0,4.175
-6.0,-3.0,4.176
-2.0,-1.0,4.177
-2.0,0.0,4.178
-3.0,-1.0,4.179
0.0,-2.0,4.18
3.0,-6.0,4.181
5.0,-4.0,4.182
10.0,-4.0,4.183
18.0,-3.0,4.184
21.0,3.0,4.185
13.0,7.0,4.186
2.0,7.0,4.187
-1.0,3.0,4.188
1.0,4.0,4.189
2.0,7.0,4.19
4.0,3.0,4.191
5.0,-2.0,4.192
4.0,-2.0,4.193
-3.0,0.0,4.194
-12.0,0.0,4.195
-15.0,-4.0,4.196
-13.0,-5.0,4.197
-8.0,-5.0,4.198
-3.0,-5.0,4.199
4.0,-8.0,4.2
7.0,-10.0,4.201
2.0,-8.0,4.202
-1.0,-4.0,4.203
6.0,0.0,4.204
16.0,1.0,4.205
16.0,3.0,4.206
14.0,3.0,4.207
16.0,1.0,4.208
17.0,0.0,4.209
11.0,2.0,4.21
-1.0,6.0,4.211
-12.0,3.0,4.212
-21.0,-1.0,4.213
-29.0,-4.0,4.214
-23.0,-3.0,4.215
4.0,-1.0,4.216
35.0,0.0,4.217
38.0,-3.0,4.218
18.0,-5.0,4.219
4.0,-3.0,4.22
12.0,-2.0,4.221
28.0,-3.0,4.222
34.0,-5.0,4.223
32.0,-4.0,4.224
27.0,4.0,4.225
21.0,11.0,4.226
15.0,11.0,4.227
9.0,7.0,4.228
-1.0,6.0,4.229
-17.0,8.0,4.23
-33.0,4.0,4.231
-39.0,-6.0,4.232
-38.0,-12.0,4.233
-31.0,-8.0,4.234
-23.0,-2.0,4.235
-16.0,1.0,4.236
-11.0,2.0,4.237
-12.0,-1.0,4.238
-10.0,-5.0,4.239
-5.0,-12.0,4.24
-2.0,-16.0,4.241
0.0,-10.0,4.242
7.0,-2.0,4.243
19.0,1.0,4.244
23.0,3.0,4.245
15.0,4.0,4.246
8.0,5.0,4.247
10.0,2.0,4.248
13.0,-2.0,4.249
11.0,-2.0,4.25
12.0,0.0,4.251
18.0,0.0,4.252
21.0,0.0,4.253
13.0,0.0,4.254
1.0,0.0,4.255
0.0,-1.0,4.256
3.0,0.0,4.257
-2.0,-2.0,4.258
-16.0,-3.0,4.259
-25.0,-4.0,4.26
-24.0,-8.0,4.261
-13.0,-7.0,4.262
2.0,-3.0,4.263
15.0,2.0,4.264
22.0,7.0,4.265
19.0,8.0,4.266
11.0,5.0,4.267
4.0,2.0,4.268
-1.0,1.0,4.269
-2.0,2.0,4.27
3.0,-1.0,4.271
7.0,-4.0,4.272
7.0,-4.0,4.273
3.0,0.0,4.274
2.0,2.0,4.275
0.0,1.0,4.276
-2.0,1.0,4.277
-3.0,0.0,4.278
-1.0,0.0,4.279
1.0,-3.0,4.28
0.0,-9.0,4.281
-1.0,-10.0,4.282
3.0,-6.0,4.283
10.0,-2.0,4.284
12.0,2.0,4.285
9.0,4.0,4.286
8.0,6.0,4.287
7.0,2.0,4.288
4.0,0.0,4.289
0.0,-2.0,4.29
0.0,0.0,4.291
2.0,1.0,4.292
0.0,1.0,4.293
-2.0,0.0,4.294
1.0,-2.0,4.295
3.0,-2.0,4.296
3.0,0.0,4.297
-3.0,-3.0,4.298
-5.0,-4.0,4.299
-4.0,-4.0,4.3
-5.0,-3.0,4.301
-4.0,-2.0,4.302
1.0,-4.0,4.303
13.0,-6.0,4.304
16.0,-3.0,4.305
9.0,2.0,4.306
3.0,2.0,4.307
5.0,-3.0,4.308
11.0,-5.0,4.309
11.0,-3.0,4.31
6.0,-1.0,4.311
-2.0,-2.0,4.312
-15.0,-3.0,4.313
-31.0,0.0,4.314
-42.0,6.0,4.315
-39.0,10.0,4.316
-28.0,10.0,4.317
-19.0,6.0,4.318
-3.0,2.0,4.319
26.0,2.0,4.32
56.0,-1.0,4.321
68.0,-2.0,4.322
61.0,-4.0,4.323
55.0,-6.0,4.324
56.0,-3.0,4.325
46.0,2.0,4.326
19.0,7.0,4.327
-6.0,5.0,4.328
-11.0,-1.0,4.329
-6.0,-5.0,4.33
-11.0,-5.0,4.331
-23.0,-5.0,4.332
-24.0,-7.0,4.333
-16.0,-9.0,4.334
-10.0,-8.0,4.335
-11.0,-5.0,4.336
-10.0,-1.0,4.337
-6.0,-1.0,4.338
-5.0,-2.0,4.339
-7.0,-1.0,4.34
-7.0,-3.0,4.341
-3.0,-6.0,4.342
0.0,-5.0,4.343
2.0,-1.0,4.344
2.0,2.0,4.345
0.0,3.0,4.346
-2.0,4.0,4.347
-1.0,2.0,4.348
3.0,-2.0,4.349
6.0,-3.0,4.35
1.0,0.0,4.351
-4.0,2.0,4.352
-3.0,0.0,4.353
2.0,-2.0,4.354
5.0,-1.0,4.355
4.0,1.0,4.356
7.0,0.0,4.357
7.0,-4.0,4.358
3.0,-7.0,4.359
-2.0,-6.0,4.36
-4.0,-7.0,4.361
0.0,-8.0,4.362
5.0,-4.0,4.363
12.0,2.0,4.364
11.0,5.0,4.365
6.0,4.0,4.366
-1.0,0.0,4.367
-2.0,0.0,4.368
0.0,2.0,4.369
1.0,3.0,4.37
2.0,0.0,4.371
5.0,-4.0,4.372
9.0,-2.0,4.373
9.0,6.0,4.374
4.0,10.0,4.375
-1.0,6.0,4.376
-1.0,0.0,4.377
-2.0,-3.0,4.378
-3.0,0.0,4.379
-5.0,-2.0,4.38
-7.0,-9.0,4.381
-6.0,-10.0,4.382
0.0,-7.0,4.383
8.0,1.0,4.384
11.0,8.0,4.385
9.0,11.0,4.386
12.0,8.0,4.387
17.0,4.0,4.388
19.0,3.0,4.389
17.0,6.0,4.39
17.0,10.0,4.391
20.0,8.0,4.392
23.0,1.0,4.393
17.0,-5.0,4.394
4.0,-8.0,4.395
-3.0,-6.0,4.396
-1.0,-2.0,4.397
-2.0,-9.0,4.398
-10.0,-18.0,4.399
-24.0,-19.0,4.4
-34.0,-8.0,4.401
-30.0,4.0,4.402
-12.0,5.0,4.403
8.0,0.0,4.404
13.0,2.0,4.405
8.0,7.0,4.406
9.0,4.0,4.407
22.0,-2.0,4.408
37.0,1.0,4.409
40.0,10.0,4.41
34.0,9.0,4.411
23.0,0.0,4.412
4.0,-10.0,4.413
-20.0,-13.0,4.414
-38.0,-7.0,4.415
-36.0,-2.0,4.416
-25.0,3.0,4.417
-18.0,3.0,4.418
-19.0,1.0,4.419
-19.0,0.0,4.42
-15.0,-4.0,4.421
-12.0,-6.0,4.422
-7.0,-5.0,4.423
-1.0,-3.0,4.424
3.0,-3.0,4.425
3.0,-5.0,4.426
4.0,-5.0,4.427
7.0,-2.0,4.428
12.0,1.0,4.429
12.0,0.0,4.43
9.0,-1.0,4.431
9.0,2.0,4.432
7.0,4.0,4.433
6.0,2.0,4.434
6.0,-2.0,4.435
6.0,-3.0,4.436
9.0,-1.0,4.437
9.0,0.0,4.438
9.0,-2.0,4.439
6.0,-3.0,4.44
1.0,-4.0,4.441
0.0,-3.0,4.442
7.0,-2.0,4.443
15.0,0.0,4.444
15.0,2.0,4.445
11.0,3.0,4.446
10.0,2.0,4.447
12.0,4.0,4.448
10.0,7.0,4.449
6.0,7.0,4.45
5.0,3.0,4.451
7.0,0.0,4.452
6.0,-1.0,4.453
0.0,-1.0,4.454
-1.0,-3.0,4.455
4.0,-1.0,4.456
7.0,3.0,4.457
0.0,2.0,4.458
-6.0,-4.0,4.459
-9.0,-10.0,4.46
-8.0,-12.0,4.461
-7.0,-7.0,4.462
-3.0,-3.0,4.463
5.0,-1.0,4.464
10.0,0.0,4.465
8.0,4.0,4.466
2.0,4.0,4.467
2.0,2.0,4.468
4.0,3.0,4.469
2.0,5.0,4.47
0.0,2.0,4.471
1.0,-2.0,4.472
1.0,-5.0,4.473
2.0,-2.0,4.474
2.0,1.0,4.475
4.0,0.0,4.476
5.0,1.0,4.477
2.0,0.0,4.478
-2.0,-4.0,4.479
-6.0,-7.0,4.48
-6.0,-8.0,4.481
-3.0,-2.0,4.482
5.0,2.0,4.483
14.0,0.0,4.484
13.0,0.0,4.485
6.0,3.0,4.486
1.0,4.0,4.487
3.0,-3.0,4.488
5.0,-6.0,4.489
3.0,-1.0,4.49
-2.0,4.0,4.491
-6.0,-3.0,4.492
-8.0,-13.0,4.493
-6.0,-13.0,4.494
-2.0,-3.0,4.495
0.0,0.0,4.496
0.0,-3.0,4.497
-2.0,-10.0,4.498
-2.0,-8.0,4.499
-2.0,-1.0,4.5
-3.0,-1.0,4.501
-4.0,-4.0,4.502
3.0,-2.0,4.503
13.0,2.0,4.504
12.0,6.0,4.505
4.0,5.0,4.506
1.0,3.0,4.507
6.0,4.0,4.508
10.0,5.0,4.509
6.0,5.0,4.51
2.0,3.0,4.511
2.0,2.0,4.512
4.0,2.0,4.513
2.0,2.0,4.514
0.0,2.0,4.515
4.0,3.0,4.516
10.0,4.0,4.517
7.0,-1.0,4.518
2.0,-7.0,4.519
-1.0,-7.0,4.52
0.0,-4.0,4.521
1.0,-2.0,4.522
2.0,-9.0,4.523
5.0,-14.0,4.524
3.0,-10.0,4.525
-3.0,-1.0,4.526
-9.0,1.0,4.527
-7.0,0.0,4.528
-1.0,1.0,4.529
2.0,4.0,4.53
3.0,3.0,4.531
6.0,0.0,4.532
10.0,2.0,4.533
8.0,6.0,4.534
6.0,3.0,4.535
3.0,-2.0,4.536
3.0,-1.0,4.537
1.0,-1.0,4.538
-1.0,0.0,4.539
-2.0,-4.0,4.54
-5.0,-7.0,4.541
-9.0,-6.0,4.542
-7.0,-5.0,4.543
-1.0,0.0,4.544
5.0,4.0,4.545
5.0,7.0,4.546
5.0,9.0,4.547
10.0,10.0,4.548
12.0,12.0,4.549
8.0,9.0,4.55
2.0,3.0,4.551
1.0,-6.0,4.552
3.0,-13.0,4.553
1.0,-14.0,4.554
0.0,-11.0,4.555
2.0,-5.0,4.556
5.0,-1.0,4.557
5.0,-4.0,4.558
2.0,-6.0,4.559
-2.0,-1.0,4.56
-5.0,2.0,4.561
-6.0,5.0,4.562
-2.0,1.0,4.563
3.0,-5.0,4.564
7.0,-6.0,4.565
5.0,-6.0,4.566
3.0,-6.0,4.567
6.0,-6.0,4.568
10.0,-4.0,4.569
10.0,-1.0,4.57
11.0,0.0,4.571
15.0,3.0,4.572
14.0,8.0,4.573
4.0,10.0,4.574
-8.0,8.0,4.575
-14.0,5.0,4.576
-15.0,6.0,4.577
-24.0,4.0,4.578
-46.0,-5.0,4.579
-77.0,-15.0,4.58
-100.0,-17.0,4.581
-101.0,-10.0,4.582
-80.0,-8.0,4.583
-55.0,-12.0,4.584
-37.0,-8.0,4.585
-18.0,2.0,4.586
28.0,7.0,4.587
104.0,1.0,4.588
173.0,-1.0,4.589
199.0,8.0,4.59
179.0,15.0,4.591
138.0,12.0,4.592
86.0,8.0,4.593
41.0,10.0,4.594
20.0,9.0,4.595
26.0,-3.0,4.596
31.0,-11.0,4.597
11.0,-8.0,4.598
-20.0,0.0,4.599
-34.0,0.0,4.6
-27.0,-10.0,4.601
-20.0,-13.0,4.602
-15.0,-7.0,4.603
-9.0,1.0,4.604
-11.0,6.0,4.605
-22.0,11.0,4.606
-28.0,17.0,4.607
-24.0,19.0,4.608
-29.0,14.0,4.609
-51.0,4.0,4.61
-63.0,-7.0,4.611
-44.0,-10.0,4.612
-16.0,-2.0,4.613
-10.0,3.0,4.614
-22.0,-6.0,4.615
-28.0,-20.0,4.616
-20.0,-19.0,4.617
-9.0,-5.0,4.618
-6.0,1.0,4.619
-11.0,-11.0,4.62
-17.0,-26.0,4.621
-15.0,-20.0,4.622
-1.0,-3.0,4.623
15.0,4.0,4.624
15.0,0.0,4.625
1.0,-2.0,4.626
-4.0,-1.0,4.627
5.0,-3.0,4.628
12.0,-3.0,4.629
5.0,-1.0,4.63
-1.0,0.0,4.631
3.0,-2.0,4.632
10.0,-2.0,4.633
13.0,4.0,4.634
14.0,10.0,4.635
16.0,5.0,4.636
14.0,-4.0,4.637
1.0,-6.0,4.638
-7.0,-2.0,4.639
-10.0,0.0,4.64
-9.0,-7.0,4.641
-6.0,-8.0,4.642
2.0,-6.0,4.643
14.0,-3.0,4.644
23.0,1.0,4.645
29.0,7.0,4.646
37.0,11.0,4.647
44.0,13.0,4.648
41.0,15.0,4.649
28.0,16.0,4.65
13.0,13.0,4.651
4.0,9.0,4.652
0.0,8.0,4.653
-5.0,7.0,4.654
-11.0,3.0,4.655
-17.0,-10.0,4.656
-18.0,-16.0,4.657
-16.0,-12.0,4.658
-11.0,-1.0,4.659
-7.0,3.0,4.66
-6.0,-4.0,4.661
-3.0,-7.0,4.662
5.0,-3.0,4.663
10.0,-1.0,4.664
8.0,-2.0,4.665
6.0,-1.0,4.666
6.0,1.0,4.667
6.0,1.0,4.668
10.0,-4.0,4.669
13.0,-4.0,4.67
12.0,1.0,4.671
7.0,-1.0,4.672
-6.0,-9.0,4.673
-19.0,-12.0,4.674
-27.0,-9.0,4.675
-29.0,-8.0,4.676
-14.0,-11.0,4.677
4.0,-8.0,4.678
21.0,4.0,4.679
23.0,7.0,4.68
19.0,-6.0,4.681
21.0,-12.0,4.682
33.0,-1.0,4.683
38.0,10.0,4.684
11.0,8.0,4.685
-41.0,0.0,4.686
-81.0,4.0,4.687
-84.0,12.0,4.688
-58.0,12.0,4.689
-25.0,7.0,4.69
7.0,5.0,4.691
41.0,0.0,4.692
68.0,-10.0,4.693
82.0,-14.0,4.694
78.0,-8.0,4.695
61.0,0.0,4.696
50.0,5.0,4.697
51.0,7.0,4.698
49.0,9.0,4.699
27.0,7.0,4.7
-6.0,-6.0,4.701
-19.0,-12.0,4.702
-8.0,-5.0,4.703
-8.0,4.0,4.704
-34.0,4.0,4.705
-61.0,-2.0,4.706
-60.0,-4.0,4.707
-42.0,-4.0,4.708
-29.0,-4.0,4.709
-12.0,-3.0,4.71
23.0,0.0,4.711
52.0,4.0,4.712
49.0,6.0,4.713
18.0,5.0,4.714
-12.0,-1.0,4.715
-17.0,-7.0,4.716
-1.0,-9.0,4.717
17.0,-9.0,4.718
25.0,-6.0,4.719
15.0,-4.0,4.72
1.0,-4.0,4.721
-4.0,3.0,4.722
-3.0,9.0,4.723
-9.0,5.0,4.724
-27.0,-2.0,4.725
-44.0,-2.0,4.726
-47.0,4.0,4.727
-32.0,3.0,4.728
-4.0,0.0,4.729
26.0,-1.0,4.73
40.0,2.0,4.731
34.0,2.0,4.732
23.0,0.0,4.733
21.0,1.0,4.734
25.0,5.0,4.735
19.0,8.0,4.736
2.0,10.0,4.737
-13.0,6.0,4.738
-19.0,1.0,4.739
-23.0,-2.0,4.74
-27.0,-4.0,4.741
-29.0,-4.0,4.742
-19.0,-6.0,4.743
-8.0,-7.0,4.744
-2.0,-3.0,4.745
-2.0,-1.0,4.746
3.0,-3.0,4.747
18.0,-3.0,4.748
32.0,6.0,4.749
33.0,16.0,4.75
22.0,10.0,4.751
6.0,-15.0,4.752
-6.0,-35.0,4.753
-16.0,-29.0,4.754
-21.0,-7.0,4.755
-21.0,9.0,4.756
-17.0,11.0,4.757
-14.0,0.0,4.758
-12.0,-8.0,4.759
-8.0,-11.0,4.76
1.0,-11.0,4.761
16.0,-9.0,4.762
31.0,-4.0,4.763
43.0,4.0,4.764
44.0,11.0,4.765
29.0,17.0,4.766
7.0,18.0,4.767
-6.0,18.0,4.768
-1.0,22.0,4.769
11.0,27.0,4.77
16.0,21.0,4.771
9.0,6.0,4.772
0.0,-10.0,4.773
-3.0,-19.0,4.774
-2.0,-23.0,4.775
-4.0,-25.0,4.776
-5.0,-22.0,4.777
-5.0,-21.0,4.778
-3.0,-19.0,4.779
-2.0,-16.0,4.78
-5.0,-9.0,4.781
-17.0,4.0,4.782
-44.0,11.0,4.783
-84.0,10.0,4.784
-110.0,5.0,4.785
-99.0,2.0,4.786
-50.0,-4.0,4.787
5.0,-17.0,4.788
47.0,-26.0,4.789
86.0,-22.0,4.79
133.0,-13.0,4.791
171.0,-4.0,4.792
173.0,8.0,4.793
141.0,24.0,4.794
104.0,31.0,4.795
74.0,22.0,4.796
43.0,7.0,4.797
-1.0,-6.0,4.798
-36.0,-10.0,4.799
-52.0,2.0,4.8
-66.0,22.0,4.801
-95.0,35.0,4.802
-121.0,31.0,4.803
-110.0,18.0,4.804
-51.0,8.0,4.805
18.0,1.0,4.806
62.0,-5.0,4.807
74.0,-7.0,4.808
69.0,-5.0,4.809
55.0,-16.0,4.81
28.0,-38.0,4.811
-4.0,-42.0,4.812
-24.0,-13.0,4.813
-21.0,25.0,4.814
-8.0,36.0,4.815
-6.0,21.0,4.816
-11.0,8.0,4.817
-14.0,4.0,4.818
-12.0,1.0,4.819
-21.0,-5.0,4.82
-35.0,-11.0,4.821
-40.0,-11.0,4.822
-29.0,-9.0,4.823
-19.0,-10.0,4.824
-15.0,-10.0,4.825
-11.0,-9.0,4.826
0.0,-11.0,4.827
13.0,-9.0,4.828
16.0,5.0,4.829
10.0,23.0,4.83
0.0,28.0,4.831
-17.0,17.0,4.832
-36.0,0.0,4.833
-42.0,-14.0,4.834
-23.0,-22.0,4.835
2.0,-22.0,4.836
13.0,-17.0,4.837
5.0,-13.0,4.838
1.0,-7.0,4.839
-4.0,-5.0,4.84
-8.0,-17.0,4.841
-8.0,-25.0,4.842
9.0,-20.0,4.843
27.0,-16.0,4.844
43.0,-15.0,4.845
54.0,-15.0,4.846
45.0,-23.0,4.847
39.0,-25.0,4.848
43.0,-11.0,4.849
41.0,0.0,4.85
15.0,2.0,4.851
-6.0,5.0,4.852
-18.0,8.0,4.853
-29.0,12.0,4.854
-39.0,16.0,4.855
-43.0,22.0,4.856
-28.0,31.0,4.857
-17.0,38.0,4.858
-40.0,34.0,4.859
-100.0,25.0,4.86
-158.0,3.0,4.861
-155.0,-18.0,4.862
-66.0,-21.0,4.863
73.0,8.0,4.864
172.0,48.0,4.865
187.0,62.0,4.866
166.0,51.0,4.867
171.0,40.0,4.868
174.0,40.0,4.869
113.0,40.0,4.87
11.0,40.0,4.871
-40.0,49.0,4.872
-28.0,45.0,4.873
-19.0,1.0,4.874
-39.0,-59.0,4.875
-40.0,-82.0,4.876
-1.0,-59.0,4.877
28.0,-34.0,4.878
18.0,-28.0,4.879
6.0,-26.0,4.88
-11.0,-12.0,4.881
-27.0,-4.0,4.882
-37.0,-5.0,4.883
-37.0,12.0,4.884
-3.0,54.0,4.885
22.0,75.0,4.886
24.0,39.0,4.887
26.0,-22.0,4.888
24.0,-59.0,4.889
17.0,-61.0,4.89
-7.0,-52.0,4.891
-24.0,-49.0,4.892
-18.0,-52.0,4.893
-10.0,-53.0,4.894
3.0,-41.0,4.895
4.0,-15.0,4.896
-40.0,7.0,4.897
-85.0,0.0,4.898
-130.0,-34.0,4.899
-163.0,-68.0,4.9
-186.0,-76.0,4.901
-189.0,-53.0,4.902
-159.0,-20.0,4.903
-104.0,1.0,4.904
-44.0,2.0,4.905
5.0,-13.0,4.906
35.0,-23.0,4.907
32.0,-9.0,4.908
6.0,17.0,4.909
-2.0,39.0,4.91
44.0,54.0,4.911
129.0,63.0,4.912
195.0,63.0,4.913
213.0,50.0,4.914
203.0,37.0,4.915
198.0,43.0,4.916
199.0,66.0,4.917
165.0,88.0,4.918
53.0,88.0,4.919
-130.0,46.0,4.92
-266.0,-25.0,4.921
-237.0,-75.0,4.922
-59.0,-68.0,4.923
115.0,-24.0,4.924
183.0,4.0,4.925
176.0,-2.0,4.926
149.0,-21.0,4.927
108.0,-25.0,4.928
75.0,0.0,4.929
99.0,45.0,4.93
157.0,82.0,4.931
148.0,81.0,4.932
50.0,47.0,4.933
-30.0,18.0,4.934
-18.0,20.0,4.935
22.0,35.0,4.936
26.0,37.0,4.937
5.0,11.0,4.938
-8.0,-24.0,4.939
-40.0,-45.0,4.94
-104.0,-40.0,4.941
-160.0,-10.0,4.942
-190.0,10.0,4.943
-242.0,-5.0,4.944
-323.0,-37.0,4.945
-356.0,-46.0,4.946
-319.0,-36.0,4.947
-297.0,-41.0,4.948
-347.0,-71.0,4.949
-393.0,-103.0,4.95
-336.0,-131.0,4.951
-180.0,-172.0,4.952
8.0,-208.0,4.953
191.0,-182.0,4.954
346.0,-78.0,4.955
447.0,43.0,4.956
525.0,104.0,4.957
615.0,103.0,4.958
651.0,84.0,4.959
604.0,61.0,4.96
305.0,31.0,4.961
57.0,8.0,4.962
-32.0,2.0,4.963
-110.0,10.0,4.964
-150.0,58.0,4.965
-177.0,99.0,4.966
-167.0,119.0,4.967
-153.0,115.0,4.968
-126.0,38.0,4.969
-99.0,-27.0,4.97
-73.0,-57.0,4.971
-30.0,-74.0,4.972
63.0,-48.0,4.973
118.0,-12.0,4.974
56.0,52.0,4.975
0.0,93.0,4.976
-37.0,63.0,4.977
-62.0,29.0,4.978
-52.0,-5.0,4.979
-99.0,-14.0,4.98
-174.0,-22.0,4.981
-208.0,-29.0,4.982
-181.0,-31.0,4.983
-102.0,-14.0,4.984
20.0,18.0,4.985
132.0,55.0,4.986
126.0,78.0,4.987
-2.0,83.0,4.988
-116.0,81.0,4.989
-125.0,86.0,4.99
-120.0,95.0,4.991
-207.0,99.0,4.992
-322.0,81.0,4.993
-355.0,27.0,4.994
-331.0,-69.0,4.995
-306.0,-167.0,4.996
-210.0,-213.0,4.997
126.0,-202.0,4.998
493.0,-167.0,4.999
660.0,-138.0,5.0
551.0,-122.0,5.001
294.0,-101.0,5.002
67.0,-68.0,5.003
-6.0,-15.0,5.004
95.0,56.0,5.005
254.0,120.0,5.006
313.0,153.0,5.007
264.0,153.0,5.008
221.0,111.0,5.009
218.0,10.0,5.01
159.0,-107.0,5.011
28.0,-129.0,5.012
-64.0,-20.0,5.013
-71.0,88.0,5.014
-86.0,78.0,5.015
-159.0,13.0,5.016
-205.0,15.0,5.017
-179.0,74.0,5.018
-148.0,84.0,5.019
-165.0,35.0,5.02
-169.0,-3.0,5.021
-118.0,-17.0,5.022
-64.0,-69.0,5.023
-37.0,-127.0,5.024
18.0,-96.0,5.025
125.0,9.0,5.026
197.0,56.0,5.027
169.0,-9.0,5.028
92.0,-90.0,5.029
32.0,-103.0,5.03
-28.0,-74.0,5.031
-106.0,-59.0,5.032
-132.0,-54.0,5.033
-50.0,-26.0,5.034
71.0,27.0,5.035
110.0,103.0,5.036
47.0,188.0,5.037
-62.0,235.0,5.038
-151.0,164.0,5.039
-223.0,-19.0,5.04
-245.0,-167.0,5.041
-260.0,-151.0,5.042
-250.0,-24.0,5.043
-238.0,64.0,5.044
-220.0,60.0,5.045
-195.0,35.0,5.046
-152.0,29.0,5.047
-111.0,2.0,5.048
-73.0,-68.0,5.049
2.0,-117.0,5.05
193.0,-76.0,5.051
346.0,42.0,5.052
385.0,168.0,5.053
402.0,241.0,5.054
350.0,247.0,5.055
301.0,194.0,5.056
261.0,122.0,5.057
201.0,50.0,5.058
88.0,-1.0,5.059
29.0,-34.0,5.06
17.0,-60.0,5.061
-9.0,-79.0,5.062
-45.0,-112.0,5.063
-45.0,-163.0,5.064
-31.0,-206.0,5.065
-60.0,-198.0,5.066
-115.0,-142.0,5.067
-133.0,-79.0,5.068
-119.0,-33.0,5.069
-143.0,7.0,5.07
-200.0,44.0,5.071
-200.0,39.0,5.072
-96.0,-31.0,5.073
39.0,-116.0,5.074
118.0,-125.0,5.075
147.0,-49.0,5.076
187.0,21.0,5.077
255.0,15.0,5.078
291.0,-32.0,5.079
231.0,-42.0,5.08
76.0,-5.0,5.081
-96.0,26.0,5.082
-195.0,23.0,5.083
-195.0,0.0,5.084
-160.0,-36.0,5.085
-150.0,-88.0,5.086
-156.0,-117.0,5.087
-141.0,-77.0,5.088
-131.0,6.0,5.089
-172.0,55.0,5.09
-223.0,47.0,5.091
-185.0,37.0,5.092
-33.0,64.0,5.093
142.0,98.0,5.094
238.0,106.0,5.095
217.0,95.0,5.096
103.0,83.0,5.097
-101.0,56.0,5.098
-345.0,16.0,5.099
-542.0,-13.0,5.1
-595.0,-10.0,5.101
-454.0,5.0,5.102
-158.0,-6.0,5.103
185.0,-31.0,5.104
480.0,-21.0,5.105
707.0,49.0,5.106
880.0,152.0,5.107
958.0,246.0,5.108
855.0,294.0,5.109
571.0,265.0,5.11
254.0,168.0,5.111
74.0,66.0,5.112
45.0,12.0,5.113
37.0,-9.0,5.114
-62.0,-46.0,5.115
-206.0,-93.0,5.116
-271.0,-110.0,5.117
-176.0,-101.0,5.118
19.0,-98.0,5.119
157.0,-96.0,5.12
122.0,-53.0,5.121
26.0,10.0,5.122
-247.0,-6.0,5.123
-469.0,-135.0,5.124
-532.0,-265.0,5.125
-576.0,-262.0,5.126
-560.0,-126.0,5.127
-486.0,23.0,5.128
-238.0,90.0,5.129
-51.0,72.0,5.13
-46.0,20.0,5.131
-38.0,-27.0,5.132
-22.0,-32.0,5.133
4.0,4.0,5.134
57.0,23.0,5.135
93.0,-40.0,5.136
75.0,-141.0,5.137
64.0,-183.0,5.138
49.0,-115.0,5.139
-14.0,-8.0,5.14
-58.0,54.0,5.141
-59.0,88.0,5.142
-99.0,141.0,5.143
-204.0,222.0,5.144
-252.0,285.0,5.145
-143.0,258.0,5.146
34.0,74.0,5.147
125.0,-206.0,5.148
128.0,-367.0,5.149
161.0,-260.0,5.15
254.0,-20.0,5.151
333.0,102.0,5.152
355.0,77.0,5.153
351.0,66.0,5.154
330.0,126.0,5.155
269.0,134.0,5.156
191.0,47.0,5.157
132.0,-55.0,5.158
83.0,-93.0,5.159
22.0,-101.0,5.16
-3.0,-111.0,5.161
48.0,-94.0,5.162
96.0,-69.0,5.163
55.0,-98.0,5.164
-11.0,-149.0,5.165
-21.0,-121.0,5.166
-69.0,-10.0,5.167
-277.0,66.0,5.168
-491.0,46.0,5.169
-444.0,9.0,5.17
-187.0,34.0,5.171
-52.0,97.0,5.172
-142.0,143.0,5.173
-188.0,154.0,5.174
7.0,131.0,5.175
264.0,74.0,5.176
323.0,7.0,5.177
180.0,-44.0,5.178
26.0,-58.0,5.179
-19.0,-43.0,5.18
17.0,1.0,5.181
68.0,63.0,5.182
88.0,92.0,5.183
60.0,70.0,5.184
18.0,43.0,5.185
4.0,45.0,5.186
-16.0,36.0,5.187
-101.0,-25.0,5.188
-201.0,-94.0,5.189
-182.0,-108.0,5.19
-44.0,-62.0,5.191
57.0,-8.0,5.192
29.0,15.0,5.193
-26.0,-15.0,5.194
20.0,-87.0,5.195
148.0,-129.0,5.196
243.0,-87.0,5.197
264.0,9.0,5.198
232.0,71.0,5.199
153.0,75.0,5.2
43.0,65.0,5.201
-49.0,56.0,5.202
-95.0,21.0,5.203
-134.0,-5.0,5.204
-195.0,33.0,5.205
-210.0,88.0,5.206
-107.0,52.0,5.207
51.0,-62.0,5.208
131.0,-126.0,5.209
86.0,-77.0,5.21
-18.0,9.0,5.211
-116.0,60.0,5.212
-195.0,72.0,5.213
-242.0,43.0,5.214
-230.0,-40.0,5.215
-167.0,-117.0,5.216
-91.0,-105.0,5.217
-26.0,-14.0,5.218
14.0,47.0,5.219
23.0,33.0,5.22
21.0,5.0,5.221
50.0,4.0,5.222
122.0,-11.0,5.223
194.0,-47.0,5.224
224.0,-55.0,5.225
237.0,-3.0,5.226
267.0,79.0,5.227
263.0,159.0,5.228
137.0,190.0,5.229
-70.0,111.0,5.23
-206.0,-42.0,5.231
-210.0,-114.0,5.232
-199.0,-23.0,5.233
-265.0,88.0,5.234
-333.0,60.0,5.235
-323.0,-58.0,5.236
-303.0,-114.0,5.237
-325.0,-102.0,5.238
-243.0,-109.0,5.239
65.0,-140.0,5.24
412.0,-122.0,5.241
481.0,-52.0,5.242
283.0,-4.0,5.243
136.0,24.0,5.244
177.0,82.0,5.245
222.0,139.0,5.246
128.0,129.0,5.247
10.0,82.0,5.248
1.0,79.0,5.249
37.0,107.0,5.25
7.0,67.0,5.251
-41.0,-69.0,5.252
10.0,-202.0,5.253
161.0,-219.0,5.254
262.0,-114.0,5.255
194.0,1.0,5.256
17.0,19.0,5.257
-113.0,-48.0,5.258
-70.0,-81.0,5.259
75.0,-18.0,5.26
137.0,55.0,5.261
73.0,56.0,5.262
36.0,22.0,5.263
113.0,30.0,5.264
175.0,67.0,5.265
91.0,78.0,5.266
-44.0,68.0,5.267
-72.0,58.0,5.268
-33.0,24.0,5.269
-87.0,-32.0,5.27
-220.0,-44.0,5.271
-257.0,20.0,5.272
-142.0,81.0,5.273
-23.0,65.0,5.274
-16.0,6.0,5.275
-71.0,-28.0,5.276
-95.0,-38.0,5.277
-91.0,-61.0,5.278
-84.0,-69.0,5.279
-53.0,-23.0,5.28
25.0,56.0,5.281
109.0,93.0,5.282
144.0,42.0,5.283
125.0,-62.0,5.284
74.0,-134.0,5.285
-17.0,-122.0,5.286
-173.0,-60.0,5.287
-371.0,-13.0,5.288
-493.0,1.0,5.289
-413.0,16.0,5.29
-146.0,43.0,5.291
96.0,61.0,5.292
123.0,71.0,5.293
3.0,82.0,5.294
-32.0,73.0,5.295
72.0,21.0,5.296
149.0,-27.0,5.297
85.0,-24.0,5.298
-9.0,8.0,5.299
27.0,-7.0,5.3
171.0,-78.0,5.301
262.0,-117.0,5.302
218.0,-86.0,5.303
86.0,-21.0,5.304
-39.0,51.0,5.305
-71.0,112.0,5.306
7.0,105.0,5.307
90.0,-9.0,5.308
39.0,-141.0,5.309
-120.0,-159.0,5.31
-210.0,-74.0,5.311
-154.0,-17.0,5.312
-83.0,-37.0,5.313
-84.0,-56.0,5.314
-35.0,-15.0,5.315
179.0,40.0,5.316
429.0,66.0,5.317
505.0,79.0,5.318
364.0,102.0,5.319
179.0,120.0,5.32
91.0,126.0,5.321
63.0,147.0,5.322
-4.0,166.0,5.323
-133.0,131.0,5.324
-271.0,44.0,5.325
-358.0,-32.0,5.326
-392.0,-60.0,5.327
-418.0,-73.0,5.328
-450.0,-107.0,5.329
-429.0,-148.0,5.33
-302.0,-159.0,5.331
-101.0,-127.0,5.332
127.0,-76.0,5.333
388.0,-40.0,5.334
637.0,-44.0,5.335
743.0,-62.0,5.336
670.0,-44.0,5.337
548.0,15.0,5.338
497.0,59.0,5.339
402.0,49.0,5.34
117.0,32.0,5.341
-206.0,55.0,5.342
-260.0,92.0,5.343
-38.0,95.0,5.344
130.0,83.0,5.345
27.0,97.0,5.346
-205.0,120.0,5.347
-330.0,101.0,5.348
-302.0,49.0,5.349
-211.0,23.0,5.35
-149.0,34.0,5.351
-199.0,14.0,5.352
-378.0,-102.0,5.353
-544.0,-278.0,5.354
-504.0,-383.0,5.355
-263.0,-329.0,5.356
-30.0,-178.0,5.357
101.0,-55.0,5.358
165.0,-25.0,5.359
201.0,-33.0,5.36
191.0,1.0,5.361
178.0,76.0,5.362
245.0,138.0,5.363
333.0,171.0,5.364
278.0,175.0,5.365
68.0,139.0,5.366
-132.0,89.0,5.367
-219.0,88.0,5.368
-230.0,127.0,5.369
-186.0,113.0,5.37
-47.0,9.0,5.371
124.0,-80.0,5.372
176.0,-76.0,5.373
73.0,-43.0,5.374
-39.0,-70.0,5.375
-42.0,-116.0,5.376
15.0,-91.0,5.377
39.0,-1.0,5.378
9.0,66.0,5.379
-32.0,73.0,5.38
-49.0,51.0,5.381
-45.0,33.0,5.382
-34.0,11.0,5.383
-46.0,-22.0,5.384
-103.0,-55.0,5.385
-177.0,-75.0,5.386
-179.0,-71.0,5.387
-55.0,-39.0,5.388
131.0,9.0,5.389
237.0,43.0,5.39
181.0,35.0,5.391
57.0,-20.0,5.392
8.0,-93.0,5.393
52.0,-122.0,5.394
90.0,-81.0,5.395
73.0,-14.0,5.396
66.0,20.0,5.397
134.0,23.0,5.398
221.0,37.0,5.399
230.0,61.0,5.4
152.0,55.0,5.401
75.0,26.0,5.402
53.0,28.0,5.403
59.0,62.0,5.404
29.0,80.0,5.405
-44.0,65.0,5.406
-124.0,52.0,5.407
-177.0,51.0,5.408
-217.0,32.0,5.409
-269.0,1.0,5.41
-309.0,5.0,5.411
-273.0,40.0,5.412
-163.0,48.0,5.413
-75.0,6.0,5.414
-73.0,-27.0,5.415
-107.0,-24.0,5.416
-112.0,-29.0,5.417
-116.0,-84.0,5.418
-143.0,-137.0,5.419
-112.0,-122.0,5.42
66.0,-67.0,5.421
284.0,-45.0,5.422
346.0,-62.0,5.423
234.0,-49.0,5.424
147.0,31.0,5.425
213.0,135.0,5.426
313.0,203.0,5.427
230.0,216.0,5.428
-60.0,173.0,5.429
-301.0,70.0,5.43
-232.0,-61.0,5.431
87.0,-145.0,5.432
332.0,-134.0,5.433
326.0,-65.0,5.434
219.0,-13.0,5.435
188.0,-3.0,5.436
182.0,4.0,5.437
76.0,47.0,5.438
-63.0,100.0,5.439
-112.0,86.0,5.44
-102.0,-37.0,5.441
-129.0,-187.0,5.442
-160.0,-231.0,5.443
-121.0,-141.0,5.444
-80.0,-35.0,5.445
-114.0,-14.0,5.446
-143.0,-33.0,5.447
-75.0,-9.0,5.448
18.0,34.0,5.449
30.0,30.0,5.45
-1.0,18.0,5.451
3.0,70.0,5.452
9.0,135.0,5.453
-34.0,106.0,5.454
-83.0,8.0,5.455
-89.0,-40.0,5.456
-77.0,-15.0,5.457
-67.0,6.0,5.458
-38.0,2.0,5.459
-6.0,49.0,5.46
-28.0,143.0,5.461
-88.0,151.0,5.462
-102.0,-13.0,5.463
-65.0,-232.0,5.464
-46.0,-311.0,5.465
-43.0,-205.0,5.466
11.0,-53.0,5.467
96.0,11.0,5.468
103.0,0.0,5.469
35.0,1.0,5.47
12.0,33.0,5.471
68.0,43.0,5.472
97.0,13.0,5.473
41.0,-10.0,5.474
-30.0,5.0,5.475
-45.0,47.0,5.476
-13.0,79.0,5.477
37.0,82.0,5.478
108.0,54.0,5.479
170.0,17.0,5.48
157.0,3.0,5.481
64.0,23.0,5.482
-31.0,36.0,5.483
-64.0,21.0,5.484
-54.0,1.0,5.485
-38.0,-6.0,5.486
-34.0,-19.0,5.487
-53.0,-45.0,5.488
-94.0,-45.0,5.489
-107.0,3.0,5.49
-48.0,60.0,5.491
15.0,77.0,5.492
-21.0,56.0,5.493
-122.0,26.0,5.494
-134.0,3.0,5.495
-17.0,-1.0,5.496
84.0,16.0,5.497
69.0,36.0,5.498
3.0,34.0,5.499
10.0,15.0,5.5
105.0,2.0,5.501
199.0,2.0,5.502
255.0,-5.0,5.503
280.0,-21.0,5.504
249.0,-29.0,5.505
138.0,-30.0,5.506
-3.0,-37.0,5.507
-95.0,-40.0,5.508
-132.0,-31.0,5.509
-154.0,-29.0,5.51
-145.0,-52.0,5.511
-70.0,-74.0,5.512
24.0,-51.0,5.513
45.0,7.0,5.514
2.0,38.0,5.515
-16.0,0.0,5.516
16.0,-64.0,5.517
37.0,-94.0,5.518
25.0,-48.0,5.519
25.0,39.0,5.52
60.0,100.0,5.521
81.0,109.0,5.522
62.0,74.0,5.523
35.0,31.0,5.524
22.0,4.0,5.525
0.0,2.0,5.526
-26.0,17.0,5.527
-21.0,25.0,5.528
15.0,7.0,5.529
32.0,-28.0,5.53
1.0,-51.0,5.531
-49.0,-50.0,5.532
-94.0,-39.0,5.533
-127.0,-34.0,5.534
-131.0,-29.0,5.535
-98.0,-14.0,5.536
-48.0,0.0,5.537
-9.0,-7.0,5.538
15.0,-26.0,5.539
21.0,-35.0,5.54
-2.0,-27.0,5.541
-52.0,-3.0,5.542
-83.0,25.0,5.543
-84.0,59.0,5.544
-87.0,107.0,5.545
-108.0,173.0,5.546
-109.0,224.0,5.547
-71.0,181.0,5.548
-36.0,25.0,5.549
-20.0,-126.0,5.55
19.0,-145.0,5.551
97.0,-80.0,5.552
157.0,-83.0,5.553
156.0,-155.0,5.554
128.0,-148.0,5.555
110.0,-33.0,5.556
81.0,34.0,5.557
38.0,-14.0,5.558
45.0,-54.0,5.559
131.0,3.0,5.56
210.0,61.0,5.561
171.0,17.0,5.562
16.0,-61.0,5.563
-158.0,-68.0,5.564
-263.0,-27.0,5.565
-287.0,-12.0,5.566
-262.0,-26.0,5.567
-226.0,-23.0,5.568
-173.0,-5.0,5.569
-77.0,15.0,5.57
53.0,39.0,5.571
164.0,57.0,5.572
236.0,56.0,5.573
291.0,48.0,5.574
309.0,60.0,5.575
236.0,75.0,5.576
94.0,68.0,5.577
-58.0,35.0,5.578
-167.0,14.0,5.579
-235.0,14.0,5.58
-243.0,16.0,5.581
-169.0,17.0,5.582
-91.0,19.0,5.583
-104.0,11.0,5.584
-146.0,-4.0,5.585
-66.0,-11.0,5.586
119.0,3.0,5.587
231.0,14.0,5.588
190.0,-3.0,5.589
110.0,-37.0,5.59
94.0,-58.0,5.591
109.0,-57.0,5.592
101.0,-39.0,5.593
88.0,-8.0,5.594
97.0,24.0,5.595
111.0,38.0,5.596
107.0,35.0,5.597
67.0,27.0,5.598
8.0,25.0,5.599
-37.0,18.0,5.6
-35.0,-7.0,5.601
-25.0,-26.0,5.602
11.0,-26.0,5.603
43.0,-26.0,5.604
66.0,-27.0,5.605
73.0,-29.0,5.606
31.0,-27.0,5.607
-3.0,-25.0,5.608
-16.0,-23.0,5.609
-31.0,-17.0,5.61
-54.0,-3.0,5.611
-74.0,7.0,5.612
-83.0,3.0,5.613
-88.0,0.0,5.614
-75.0,-2.0,5.615
-62.0,-5.0,5.616
-51.0,-4.0,5.617
-37.0,-3.0,5.618
-31.0,-5.0,5.619
-40.0,-9.0,5.62
-46.0,-13.0,5.621
-39.0,-13.0,5.622
-27.0,-9.0,5.623
-23.0,-5.0,5.624
-24.0,0.0,5.625
-25.0,12.0,5.626
-19.0,20.0,5.627
-5.0,17.0,5.628
9.0,9.0,5.629
11.0,10.0,5.63
7.0,16.0,5.631
6.0,19.0,5.632
8.0,16.0,5.633
3.0,11.0,5.634
-3.0,6.0,5.635
-1.0,0.0,5.636
9.0,0.0,5.637
12.0,-1.0,5.638
3.0,-1.0,5.639
-3.0,-7.0,5.64
-1.0,-12.0,5.641
4.0,-10.0,5.642
9.0,-11.0,5.643
15.0,-13.0,5.644
21.0,-8.0,5.645
22.0,3.0,5.646
20.0,7.0,5.647
20.0,6.0,5.648
21.0,8.0,5.649
24.0,16.0,5.65
21.0,17.0,5.651
9.0,8.0,5.652
-6.0,-1.0,5.653
-11.0,-1.0,5.654
0.0,0.0,5.655
17.0,-5.0,5.656
22.0,-7.0,5.657
13.0,-4.0,5.658
9.0,1.0,5.659
14.0,2.0,5.66
17.0,0.0,5.661
11.0,2.0,5.662
3.0,5.0,5.663
1.0,-7.0,5.664
-4.0,-27.0,5.665
-10.0,-34.0,5.666
-6.0,-22.0,5.667
7.0,-7.0,5.668
13.0,-2.0,5.669
7.0,-3.0,5.67
4.0,-2.0,5.671
8.0,0.0,5.672
4.0,0.0,5.673
-4.0,-1.0,5.674
-5.0,-1.0,5.675
5.0,-2.0,5.676
13.0,-2.0,5.677
10.0,0.0,5.678
10.0,5.0,5.679
9.0,9.0,5.68
10.0,8.0,5.681
12.0,7.0,5.682
12.0,10.0,5.683
11.0,12.0,5.684
4.0,9.0,5.685
-1.0,6.0,5.686
-5.0,5.0,5.687
-6.0,5.0,5.688
0.0,10.0,5.689
6.0,15.0,5.69
7.0,17.0,5.691
10.0,17.0,5.692
14.0,5.0,5.693
14.0,-5.0,5.694
2.0,-11.0,5.695
-8.0,-18.0,5.696
-9.0,-24.0,5.697
-9.0,-29.0,5.698
-12.0,-24.0,5.699
-19.0,-18.0,5.7
-21.0,-18.0,5.701
-14.0,-15.0,5.702
1.0,-9.0,5.703
14.0,-4.0,5.704
19.0,-2.0,5.705
19.0,0.0,5.706
15.0,2.0,5.707
4.0,1.0,5.708
-2.0,3.0,5.709
5.0,7.0,5.71
24.0,7.0,5.711
39.0,1.0,5.712
42.0,-1.0,5.713
37.0,5.0,5.714
30.0,11.0,5.715
14.0,7.0,5.716
-16.0,2.0,5.717
-59.0,-1.0,5.718
-90.0,0.0,5.719
-87.0,-1.0,5.72
-54.0,-5.0,5.721
-14.0,0.0,5.722
4.0,7.0,5.723
4.0,8.0,5.724
0.0,6.0,5.725
3.0,6.0,5.726
6.0,6.0,5.727
6.0,1.0,5.728
6.0,-5.0,5.729
11.0,-9.0,5.73
13.0,-9.0,5.731
10.0,-7.0,5.732
4.0,-6.0,5.733
1.0,-4.0,5.734
1.0,-3.0,5.735
6.0,1.0,5.736
16.0,5.0,5.737
21.0,4.0,5.738
24.0,-2.0,5.739
30.0,-8.0,5.74
39.0,-12.0,5.741
37.0,-11.0,5.742
21.0,-6.0,5.743
9.0,0.0,5.744
15.0,4.0,5.745
24.0,2.0,5.746
15.0,0.0,5.747
-11.0,3.0,5.748
-25.0,6.0,5.749
-21.0,6.0,5.75
-22.0,2.0,5.751
-40.0,-4.0,5.752
-52.0,-9.0,5.753
-31.0,-13.0,5.754
7.0,-11.0,5.755
29.0,-9.0,5.756
20.0,-11.0,5.757
5.0,-14.0,5.758
4.0,-7.0,5.759
4.0,4.0,5.76
9.0,3.0,5.761
13.0,-5.0,5.762
13.0,-5.0,5.763
11.0,9.0,5.764
8.0,21.0,5.765
5.0,15.0,5.766
4.0,1.0,5.767
3.0,-6.0,5.768
6.0,-2.0,5.769
9.0,1.0,5.77
9.0,1.0,5.771
8.0,2.0,5.772
3.0,4.0,5.773
-4.0,4.0,5.774
-16.0,0.0,5.775
-26.0,-3.0,5.776
-25.0,-1.0,5.777
-21.0,1.0,5.778
0.0,3.0,5.779
23.0,0.0,5.78
43.0,-7.0,5.781
58.0,-13.0,5.782
71.0,-15.0,5.783
71.0,-12.0,5.784
45.0,-8.0,5.785
1.0,0.0,5.786
-32.0,7.0,5.787
-37.0,9.0,5.788
-29.0,1.0,5.789
-22.0,-7.0,5.79
-15.0,-10.0,5.791
4.0,-4.0,5.792
32.0,3.0,5.793
45.0,1.0,5.794
25.0,-3.0,5.795
-23.0,-4.0,5.796
-58.0,4.0,5.797
-53.0,10.0,5.798
-35.0,13.0,5.799
-47.0,12.0,5.8
-83.0,3.0,5.801
-94.0,-2.0,5.802
-51.0,-1.0,5.803
16.0,7.0,5.804
64.0,14.0,5.805
84.0,14.0,5.806
93.0,6.0,5.807
91.0,-1.0,5.808
63.0,-3.0,5.809
22.0,-3.0,5.81
-2.0,-1.0,5.811
-5.0,2.0,5.812
-16.0,2.0,5.813
-55.0,-9.0,5.814
-92.0,-21.0,5.815
-89.0,-16.0,5.816
-48.0,1.0,5.817
-7.0,10.0,5.818
10.0,0.0,5.819
9.0,-15.0,5.82
9.0,-17.0,5.821
14.0,-7.0,5.822
11.0,-3.0,5.823
-6.0,-7.0,5.824
-34.0,-8.0,5.825
-56.0,-2.0,5.826
-45.0,9.0,5.827
0.0,16.0,5.828
46.0,13.0,5.829
68.0,-1.0,5.83
82.0,-17.0,5.831
107.0,-22.0,5.832
130.0,-11.0,5.833
117.0,-4.0,5.834
71.0,-8.0,5.835
33.0,-11.0,5.836
25.0,-4.0,5.837
-4.0,11.0,5.838
-6.0,3.0,5.839
-7.0,-3.0,5.84
-2.0,-7.0,5.841
1.0,-12.0,5.842
3.0,-17.0,5.843
0.0,-20.0,5.844
-19.0,-15.0,5.845
-35.0,-10.0,5.846
-44.0,-6.0,5.847
-43.0,-3.0,5.848
-11.0,-2.0,5.849
22.0,-2.0,5.85
61.0,-2.0,5.851
97.0,-2.0,5.852
126.0,-2.0,5.853
145.0,1.0,5.854
137.0,10.0,5.855
118.0,16.0,5.856
70.0,12.0,5.857
-47.0,18.0,5.858
-52.0,6.0,5.859
-54.0,-4.0,5.86
-44.0,-10.0,5.861
-36.0,-17.0,5.862
-32.0,-25.0,5.863
-39.0,-30.0,5.864
-81.0,-22.0,5.865
-118.0,-14.0,5.866
-137.0,-8.0,5.867
-134.0,-4.0,5.868
-63.0,-2.0,5.869
12.0,-1.0,5.87
100.0,-1.0,5.871
182.0,-2.0,5.872
246.0,-1.0,5.873
290.0,3.0,5.874
271.0,16.0,5.875
229.0,26.0,5.876
122.0,20.0,5.877
18.0,15.0,5.878
-42.0,20.0,5.879
-53.0,28.0,5.88
-51.0,33.0,5.881
-70.0,39.0,5.882
-101.0,42.0,5.883
-117.0,26.0,5.884
-117.0,-10.0,5.885
-125.0,-38.0,5.886
-150.0,-39.0,5.887
-172.0,-29.0,5.888
-154.0,-34.0,5.889
-86.0,-46.0,5.89
0.0,-44.0,5.891
58.0,-31.0,5.892
77.0,-26.0,5.893
86.0,-24.0,5.894
110.0,-8.0,5.895
128.0,14.0,5.896
109.0,26.0,5.897
60.0,16.0,5.898
29.0,10.0,5.899
35.0,18.0,5.9
43.0,20.0,5.901
24.0,11.0,5.902
0.0,7.0,5.903
-4.0,17.0,5.904
-1.0,30.0,5.905
-17.0,22.0,5.906
-40.0,-5.0,5.907
-54.0,-27.0,5.908
-67.0,-28.0,5.909
-98.0,-19.0,5.91
-130.0,-15.0,5.911
-139.0,-16.0,5.912
-123.0,-19.0,5.913
-104.0,-20.0,5.914
-87.0,-16.0,5.915
-61.0,-5.0,5.916
-26.0,8.0,5.917
13.0,10.0,5.918
54.0,3.0,5.919
90.0,-3.0,5.92
113.0,-3.0,5.921
124.0,6.0,5.922
138.0,16.0,5.923
156.0,26.0,5.924
167.0,29.0,5.925
156.0,22.0,5.926
118.0,10.0,5.927
63.0,3.0,5.928
13.0,3.0,5.929
-21.0,6.0,5.93
-46.0,5.0,5.931
-72.0,2.0,5.932
-86.0,-4.0,5.933
-76.0,-9.0,5.934
-50.0,-12.0,5.935
-30.0,-12.0,5.936
-16.0,-9.0,5.937
3.0,-5.0,5.938
18.0,5.0,5.939
21.0,12.0,5.94
-16.0,5.0,5.941
-42.0,-2.0,5.942
-34.0,-13.0,5.943
-28.0,-20.0,5.944
-32.0,-12.0,5.945
-33.0,-2.0,5.946
-24.0,14.0,5.947
-13.0,28.0,5.948
0.0,35.0,5.949
14.0,41.0,5.95
28.0,40.0,5.951
38.0,25.0,5.952
34.0,-30.0,5.953
28.0,-64.0,5.954
21.0,-34.0,5.955
8.0,-5.0,5.956
-25.0,16.0,5.957
-55.0,19.0,5.958
-67.0,-42.0,5.959
-65.0,-68.0,5.96
-47.0,-55.0,5.961
-7.0,-40.0,5.962
31.0,-38.0,5.963
37.0,-26.0,5.964
20.0,3.0,5.965
8.0,23.0,5.966
8.0,18.0,5.967
4.0,2.0,5.968
8.0,-4.0,5.969
29.0,0.0,5.97
48.0,8.0,5.971
36.0,17.0,5.972
3.0,21.0,5.973
-3.0,17.0,5.974
29.0,11.0,5.975
67.0,12.0,5.976
80.0,18.0,5.977
71.0,20.0,5.978
63.0,17.0,5.979
54.0,14.0,5.98
42.0,10.0,5.981
26.0,7.0,5.982
1.0,9.0,5.983
-23.0,10.0,5.984
-46.0,6.0,5.985
-63.0,2.0,5.986
-61.0,-2.0,5.987
-56.0,-4.0,5.988
-42.0,1.0,5.989
-31.0,3.0,5.99
-29.0,-6.0,5.991
-29.0,-13.0,5.992
-39.0,-9.0,5.993
-30.0,-7.0,5.994
36.0,-11.0,5.995
93.0,-14.0,5.996
119.0,-12.0,5.997
126.0,-9.0,5.998
59.0,-7.0,5.999
5.0,-18.0,6.0
-2.0,-27.0,6.001
23.0,-11.0,6.002
48.0,18.0,6.003
51.0,41.0,6.004
32.0,49.0,6.005
-2.0,46.0,6.006
-43.0,31.0,6.007
-76.0,9.0,6.008
-86.0,-5.0,6.009
-70.0,-5.0,6.01
-42.0,-2.0,6.011
-23.0,-7.0,6.012
-20.0,-18.0,6.013
-19.0,-23.0,6.014
-15.0,-18.0,6.015
-21.0,-11.0,6.016
-36.0,-4.0,6.017
-56.0,5.0,6.018
-68.0,11.0,6.019
-75.0,1.0,6.02
-74.0,-22.0,6.021
-56.0,-35.0,6.022
-15.0,-28.0,6.023
32.0,-13.0,6.024
63.0,-3.0,6.025
75.0,3.0,6.026
68.0,9.0,6.027
41.0,6.0,6.028
0.0,-6.0,6.029
-44.0,-17.0,6.03
-74.0,-18.0,6.031
-83.0,-9.0,6.032
-61.0,0.0,6.033
-5.0,1.0,6.034
70.0,-2.0,6.035
131.0,-3.0,6.036
161.0,9.0,6.037
181.0,29.0,6.038
201.0,49.0,6.039
189.0,59.0,6.04
125.0,52.0,6.041
45.0,27.0,6.042
3.0,-14.0,6.043
-5.0,-45.0,6.044
-20.0,-49.0,6.045
-52.0,-37.0,6.046
-66.0,-32.0,6.047
-54.0,-28.0,6.048
-45.0,-16.0,6.049
-53.0,-2.0,6.05
-60.0,0.0,6.051
-55.0,-9.0,6.052
-54.0,-11.0,6.053
-63.0,-6.0,6.054
-74.0,1.0,6.055
-82.0,8.0,6.056
-88.0,17.0,6.057
-48.0,15.0,6.058
-45.0,5.0,6.059
-42.0,-2.0,6.06
-38.0,-5.0,6.061
-23.0,-6.0,6.062
21.0,0.0,6.063
61.0,5.0,6.064
79.0,11.0,6.065
95.0,14.0,6.066
101.0,8.0,6.067
102.0,4.0,6.068
87.0,11.0,6.069
67.0,17.0,6.07
30.0,17.0,6.071
0.0,13.0,6.072
-17.0,1.0,6.073
-35.0,-8.0,6.074
-56.0,-8.0,6.075
-73.0,-5.0,6.076
-80.0,3.0,6.077
-63.0,12.0,6.078
-60.0,21.0,6.079
-56.0,31.0,6.08
-51.0,26.0,6.081
-32.0,1.0,6.082
25.0,-32.0,6.083
75.0,-49.0,6.084
97.0,-43.0,6.085
117.0,-26.0,6.086
125.0,-21.0,6.087
126.0,-28.0,6.088
108.0,-32.0,6.089
82.0,-20.0,6.09
36.0,1.0,6.091
-3.0,17.0,6.092
-24.0,25.0,6.093
-47.0,27.0,6.094
-73.0,26.0,6.095
-95.0,17.0,6.096
-103.0,5.0,6.097
-92.0,-6.0,6.098
-8.0,-6.0,6.099
72.0,6.0,6.1
94.0,12.0,6.101
80.0,12.0,6.102
80.0,8.0,6.103
77.0,2.0,6.104
23.0,-3.0,6.105
-63.0,-9.0,6.106
-108.0,-10.0,6.107
-72.0,-7.0,6.108
0.0,-1.0,6.109
41.0,2.0,6.11
43.0,2.0,6.111
39.0,2.0,6.112
45.0,5.0,6.113
45.0,11.0,6.114
24.0,13.0,6.115
-7.0,8.0,6.116
-17.0,2.0,6.117
8.0,-3.0,6.118
45.0,-3.0,6.119
62.0,-4.0,6.12
63.0,-10.0,6.121
67.0,-14.0,6.122
73.0,-11.0,6.123
59.0,-9.0,6.124
24.0,-9.0,6.125
-11.0,-7.0,6.126
-37.0,-3.0,6.127
-62.0,1.0,6.128
-81.0,5.0,6.129
-84.0,8.0,6.13
-75.0,9.0,6.131
-75.0,8.0,6.132
-95.0,-4.0,6.133
-116.0,-14.0,6.134
-105.0,-18.0,6.135
-52.0,-19.0,6.136
12.0,-11.0,6.137
40.0,0.0,6.138
8.0,9.0,6.139
-43.0,6.0,6.14
-49.0,0.0,6.141
-7.0,3.0,6.142
31.0,12.0,6.143
37.0,11.0,6.144
44.0,1.0,6.145
75.0,-2.0,6.146
101.0,1.0,6.147
90.0,3.0,6.148
52.0,3.0,6.149
29.0,6.0,6.15
24.0,6.0,6.151
8.0,1.0,6.152
-35.0,-6.0,6.153
-75.0,-7.0,6.154
-75.0,-9.0,6.155
-41.0,-12.0,6.156
-14.0,-17.0,6.157
-17.0,-17.0,6.158
-29.0,-12.0,6.159
-30.0,-8.0,6.16
-21.0,-6.0,6.161
-15.0,4.0,6.162
-6.0,7.0,6.163
30.0,-4.0,6.164
88.0,-15.0,6.165
135.0,-3.0,6.166
137.0,25.0,6.167
101.0,37.0,6.168
57.0,20.0,6.169
31.0,-5.0,6.17
22.0,-11.0,6.171
15.0,0.0,6.172
-16.0,8.0,6.173
-73.0,5.0,6.174
-117.0,-2.0,6.175
-98.0,-5.0,6.176
-28.0,-2.0,6.177
39.0,-3.0,6.178
51.0,-5.0,6.179
12.0,-6.0,6.18
-37.0,-5.0,6.181
-70.0,-2.0,6.182
-76.0,2.0,6.183
-52.0,9.0,6.184
-4.0,13.0,6.185
36.0,6.0,6.186
37.0,-15.0,6.187
6.0,-32.0,6.188
-15.0,-26.0,6.189
4.0,-10.0,6.19
42.0,-4.0,6.191
64.0,-8.0,6.192
79.0,-3.0,6.193
115.0,13.0,6.194
153.0,25.0,6.195
129.0,24.0,6.196
42.0,29.0,6.197
-53.0,34.0,6.198
-92.0,26.0,6.199
-92.0,-3.0,6.2
-94.0,-27.0,6.201
-94.0,-25.0,6.202
-55.0,-20.0,6.203
6.0,-27.0,6.204
44.0,-30.0,6.205
49.0,-10.0,6.206
46.0,18.0,6.207
41.0,28.0,6.208
-1.0,17.0,6.209
-102.0,7.0,6.21
-236.0,1.0,6.211
-343.0,-6.0,6.212
-354.0,-16.0,6.213
-235.0,-24.0,6.214
-29.0,-27.0,6.215
148.0,-29.0,6.216
223.0,-30.0,6.217
236.0,-24.0,6.218
273.0,-5.0,6.219
326.0,23.0,6.22
300.0,42.0,6.221
178.0,42.0,6.222
84.0,26.0,6.223
105.0,17.0,6.224
151.0,28.0,6.225
82.0,40.0,6.226
-86.0,28.0,6.227
-217.0,-2.0,6.228
-253.0,-16.0,6.229
-256.0,-6.0,6.23
-267.0,0.0,6.231
-243.0,-19.0,6.232
-173.0,-48.0,6.233
-109.0,-61.0,6.234
-44.0,-57.0,6.235
99.0,-39.0,6.236
295.0,-8.0,6.237
400.0,28.0,6.238
302.0,49.0,6.239
123.0,36.0,6.24
67.0,8.0,6.241
126.0,12.0,6.242
124.0,44.0,6.243
6.0,62.0,6.244
-100.0,40.0,6.245
-117.0,0.0,6.246
-110.0,-20.0,6.247
-131.0,-24.0,6.248
-115.0,-25.0,6.249
-21.0,-25.0,6.25
69.0,-21.0,6.251
78.0,-18.0,6.252
44.0,-25.0,6.253
37.0,-25.0,6.254
36.0,-5.0,6.255
-17.0,11.0,6.256
-98.0,8.0,6.257
-146.0,-6.0,6.258
-132.0,-6.0,6.259
-103.0,2.0,6.26
-100.0,-7.0,6.261
-105.0,-25.0,6.262
-76.0,-26.0,6.263
-2.0,-8.0,6.264
85.0,7.0,6.265
137.0,8.0,6.266
133.0,10.0,6.267
92.0,14.0,6.268
51.0,13.0,6.269
19.0,13.0,6.27
0.0,18.0,6.271
-5.0,19.0,6.272
-7.0,3.0,6.273
-30.0,-13.0,6.274
-61.0,-10.0,6.275
-59.0,3.0,6.276
-25.0,7.0,6.277
-11.0,-6.0,6.278
-47.0,-15.0,6.279
-96.0,-9.0,6.28
-101.0,-4.0,6.281
-62.0,-8.0,6.282
-21.0,-14.0,6.283
4.0,-13.0,6.284
20.0,-6.0,6.285
31.0,1.0,6.286
26.0,1.0,6.287
-1.0,-7.0,6.288
-46.0,-18.0,6.289
-85.0,-17.0,6.29
-88.0,0.0,6.291
-50.0,22.0,6.292
16.0,35.0,6.293
108.0,31.0,6.294
208.0,12.0,6.295
278.0,-11.0,6.296
289.0,-18.0,6.297
264.0,1.0,6.298
237.0,34.0,6.299
178.0,48.0,6.3
60.0,34.0,6.301
-64.0,9.0,6.302
-111.0,-7.0,6.303
-100.0,-13.0,6.304
-113.0,-13.0,6.305
-155.0,-12.0,6.306
-157.0,-13.0,6.307
-104.0,-14.0,6.308
-46.0,-6.0,6.309
-20.0,4.0,6.31
-20.0,5.0,6.311
-38.0,-9.0,6.312
-67.0,-17.0,6.313
-73.0,-15.0,6.314
-44.0,-20.0,6.315
-21.0,-35.0,6.316
-38.0,-46.0,6.317
-53.0,-45.0,6.318
5.0,-28.0,6.319
124.0,2.0,6.32
203.0,39.0,6.321
191.0,59.0,6.322
127.0,42.0,6.323
52.0,9.0,6.324
-37.0,1.0,6.325
-130.0,23.0,6.326
-166.0,29.0,6.327
-122.0,-1.0,6.328
-53.0,-30.0,6.329
17.0,-24.0,6.33
145.0,5.0,6.331
315.0,28.0,6.332
369.0,35.0,6.333
213.0,31.0,6.334
-5.0,17.0,6.335
-84.0,-3.0,6.336
-41.0,-7.0,6.337
-43.0,5.0,6.338
-139.0,16.0,6.339
-204.0,4.0,6.34
-153.0,-20.0,6.341
-73.0,-31.0,6.342
-48.0,-31.0,6.343
-47.0,-34.0,6.344
-26.0,-33.0,6.345
-20.0,-18.0,6.346
-61.0,7.0,6.347
-104.0,21.0,6.348
-90.0,12.0,6.349
-36.0,-8.0,6.35
6.0,-24.0,6.351
36.0,-26.0,6.352
80.0,-12.0,6.353
118.0,-1.0,6.354
96.0,-3.0,6.355
-3.0,-10.0,6.356
-116.0,-8.0,6.357
-184.0,-1.0,6.358
-181.0,0.0,6.359
-149.0,0.0,6.36
-28.0,-14.0,6.361
95.0,-22.0,6.362
223.0,-12.0,6.363
314.0,2.0,6.364
293.0,30.0,6.365
228.0,47.0,6.366
32.0,30.0,6.367
-116.0,17.0,6.368
-120.0,16.0,6.369
-114.0,13.0,6.37
-77.0,7.0,6.371
-42.0,0.0,6.372
-16.0,-13.0,6.373
4.0,-20.0,6.374
12.0,-9.0,6.375
23.0,-1.0,6.376
46.0,-9.0,6.377
67.0,-18.0,6.378
47.0,-29.0,6.379
15.0,-30.0,6.38
35.0,-17.0,6.381
93.0,15.0,6.382
116.0,39.0,6.383
84.0,38.0,6.384
29.0,17.0,6.385
-21.0,-3.0,6.386
-75.0,-11.0,6.387
-127.0,-7.0,6.388
-151.0,12.0,6.389
-131.0,30.0,6.39
-75.0,24.0,6.391
-19.0,-5.0,6.392
17.0,-22.0,6.393
40.0,-15.0,6.394
60.0,-9.0,6.395
67.0,-17.0,6.396
45.0,-21.0,6.397
15.0,-7.0,6.398
8.0,13.0,6.399
-5.0,24.0,6.4
-39.0,3.0,6.401
-67.0,-14.0,6.402
-78.0,-19.0,6.403
-85.0,-25.0,6.404
-79.0,-31.0,6.405
-75.0,-35.0,6.406
-80.0,-28.0,6.407
-76.0,-22.0,6.408
-38.0,-17.0,6.409
4.0,-7.0,6.41
61.0,14.0,6.411
117.0,37.0,6.412
170.0,58.0,6.413
188.0,63.0,6.414
102.0,14.0,6.415
36.0,-21.0,6.416
28.0,-15.0,6.417
-13.0,-3.0,6.418
-172.0,13.0,6.419
-207.0,-1.0,6.42
-32.0,-20.0,6.421
153.0,-11.0,6.422
184.0,6.0,6.423
175.0,14.0,6.424
241.0,13.0,6.425
259.0,23.0,6.426
112.0,36.0,6.427
-50.0,39.0,6.428
-60.0,31.0,6.429
-11.0,13.0,6.43
-57.0,-3.0,6.431
-125.0,-5.0,6.432
-81.0,4.0,6.433
0.0,4.0,6.434
-19.0,-19.0,6.435
-90.0,-41.0,6.436
-94.0,-40.0,6.437
-73.0,-27.0,6.438
-148.0,-19.0,6.439
-296.0,-15.0,6.44
-361.0,-23.0,6.441
-267.0,-32.0,6.442
-79.0,-42.0,6.443
107.0,-42.0,6.444
234.0,-11.0,6.445
284.0,15.0,6.446
254.0,28.0,6.447
147.0,36.0,6.448
-6.0,23.0,6.449
-104.0,11.0,6.45
-44.0,3.0,6.451
121.0,0.0,6.452
224.0,17.0,6.453
196.0,26.0,6.454
131.0,12.0,6.455
100.0,1.0,6.456
64.0,-2.0,6.457
-10.0,-5.0,6.458
-56.0,-4.0,6.459
-44.0,5.0,6.46
-48.0,10.0,6.461
-99.0,0.0,6.462
-118.0,-20.0,6.463
-64.0,-24.0,6.464
-24.0,-10.0,6.465
-62.0,-4.0,6.466
-113.0,-12.0,6.467
-99.0,-21.0,6.468
-56.0,-25.0,6.469
-43.0,-40.0,6.47
-35.0,-60.0,6.471
12.0,-56.0,6.472
78.0,-10.0,6.473
114.0,58.0,6.474
119.0,104.0,6.475
114.0,107.0,6.476
88.0,77.0,6.477
27.0,29.0,6.478
-33.0,-3.0,6.479
-81.0,-15.0,6.48
-95.0,-24.0,6.481
-116.0,-24.0,6.482
-152.0,-21.0,6.483
-159.0,-18.0,6.484
-77.0,-17.0,6.485
1.0,-19.0,6.486
69.0,-13.0,6.487
123.0,0.0,6.488
133.0,13.0,6.489
131.0,15.0,6.49
91.0,5.0,6.491
67.0,0.0,6.492
97.0,14.0,6.493
100.0,28.0,6.494
18.0,17.0,6.495
-45.0,-12.0,6.496
-53.0,-18.0,6.497
-49.0,0.0,6.498
-33.0,11.0,6.499
-55.0,-12.0,6.5
-66.0,-42.0,6.501
-42.0,-40.0,6.502
-12.0,-19.0,6.503
3.0,-14.0,6.504
7.0,-19.0,6.505
-1.0,-6.0,6.506
-33.0,18.0,6.507
-75.0,22.0,6.508
-88.0,-1.0,6.509
-68.0,-18.0,6.51
-47.0,-13.0,6.511
-27.0,3.0,6.512
26.0,5.0,6.513
94.0,-21.0,6.514
105.0,-56.0,6.515
73.0,-62.0,6.516
102.0,-8.0,6.517
197.0,77.0,6.518
221.0,119.0,6.519
97.0,77.0,6.52
-37.0,2.0,6.521
-59.0,-19.0,6.522
-33.0,8.0,6.523
-40.0,27.0,6.524
-17.0,9.0,6.525
78.0,-9.0,6.526
139.0,-8.0,6.527
99.0,-3.0,6.528
47.0,-3.0,6.529
54.0,-2.0,6.53
47.0,0.0,6.531
-16.0,-5.0,6.532
-61.0,-11.0,6.533
-58.0,-3.0,6.534
-73.0,7.0,6.535
-117.0,1.0,6.536
-121.0,-12.0,6.537
-93.0,111.0,6.538
-97.0,-11.0,6.539
-172.0,-91.0,6.54
-212.0,-36.0,6.541
-150.0,-7.0,6.542
-48.0,-74.0,6.543
19.0,-107.0,6.544
49.0,-40.0,6.545
70.0,10.0,6.546
99.0,-23.0,6.547
143.0,-36.0,6.548
168.0,6.0,6.549
125.0,27.0,6.55
55.0,-11.0,6.551
54.0,-31.0,6.552
82.0,14.0,6.553
-2.0,44.0,6.554
-153.0,1.0,6.555
-162.0,-31.0,6.556
-25.0,-7.0,6.557
34.0,15.0,6.558
-47.0,-14.0,6.559
-91.0,-33.0,6.56
-19.0,-20.0,6.561
24.0,-13.0,6.562
-24.0,-29.0,6.563
-47.0,-37.0,6.564
9.0,-21.0,6.565
39.0,-9.0,6.566
-6.0,-17.0,6.567
-30.0,-20.0,6.568
13.0,-10.0,6.569
35.0,-5.0,6.57
-6.0,-14.0,6.571
-39.0,-19.0,6.572
-39.0,-8.0,6.573
-45.0,-1.0,6.574
-72.0,-11.0,6.575
-73.0,-19.0,6.576
4.0,-13.0,6.577
75.0,-10.0,6.578
110.0,-21.0,6.579
144.0,-26.0,6.58
151.0,-25.0,6.581
87.0,-19.0,6.582
13.0,-11.0,6.583
18.0,4.0,6.584
68.0,17.0,6.585
70.0,16.0,6.586
32.0,10.0,6.587
16.0,12.0,6.588
15.0,15.0,6.589
-8.0,2.0,6.59
-27.0,-15.0,6.591
-12.0,-17.0,6.592
-2.0,-3.0,6.593
-36.0,7.0,6.594
-71.0,12.0,6.595
-50.0,20.0,6.596
-6.0,28.0,6.597
-113.0,15.0,6.598
-135.0,-5.0,6.599
-124.0,-8.0,6.6
-11.0,1.0,6.601
89.0,3.0,6.602
157.0,-12.0,6.603
196.0,-20.0,6.604
145.0,-9.0,6.605
100.0,8.0,6.606
69.0,22.0,6.607
40.0,23.0,6.608
17.0,11.0,6.609
-4.0,-7.0,6.61
-20.0,-10.0,6.611
-32.0,12.0,6.612
-34.0,36.0,6.613
-40.0,35.0,6.614
-59.0,21.0,6.615
-71.0,19.0,6.616
-66.0,32.0,6.617
-117.0,-10.0,6.618
-139.0,-26.0,6.619
-127.0,-39.0,6.62
-11.0,-38.0,6.621
92.0,-28.0,6.622
161.0,11.0,6.623
201.0,47.0,6.624
149.0,70.0,6.625
103.0,77.0,6.626
70.0,35.0,6.627
41.0,3.0,6.628
17.0,6.0,6.629
-4.0,7.0,6.63
-20.0,-1.0,6.631
-33.0,-8.0,6.632
-35.0,-7.0,6.633
-41.0,-7.0,6.634
-60.0,-14.0,6.635
-74.0,-18.0,6.636
-68.0,-16.0,6.637
-330.0,-34.0,6.638
-392.0,-80.0,6.639
-359.0,-115.0,6.64
-41.0,-113.0,6.641
244.0,-84.0,6.642
435.0,29.0,6.643
544.0,130.0,6.644
402.0,197.0,6.645
274.0,218.0,6.646
186.0,96.0,6.647
104.0,7.0,6.648
39.0,16.0,6.649
-21.0,17.0,6.65
-66.0,-9.0,6.651
-101.0,-29.0,6.652
-106.0,-25.0,6.653
-123.0,-26.0,6.654
-176.0,-44.0,6.655
-212.0,-56.0,6.656
-198.0,-50.0,6.657
-177.0,-44.0,6.658
-111.0,-51.0,6.659
-3.0,-68.0,6.66
84.0,-46.0,6.661
121.0,20.0,6.662
137.0,72.0,6.663
130.0,72.0,6.664
67.0,39.0,6.665
-15.0,7.0,6.666
-23.0,-5.0,6.667
41.0,-3.0,6.668
64.0,0.0,6.669
6.0,-7.0,6.67
-45.0,-19.0,6.671
-35.0,-24.0,6.672
-22.0,-23.0,6.673
-50.0,-28.0,6.674
-69.0,-31.0,6.675
-52.0,-18.0,6.676
-28.0,6.0,6.677
-9.0,22.0,6.678
31.0,16.0,6.679
65.0,2.0,6.68
41.0,-4.0,6.681
-15.0,4.0,6.682
-19.0,10.0,6.683
28.0,6.0,6.684
42.0,-2.0,6.685
3.0,-6.0,6.686
-22.0,-7.0,6.687
-2.0,-6.0,6.688
15.0,-3.0,6.689
5.0,-2.0,6.69
-3.0,-5.0,6.691
-22.0,-14.0,6.692
-95.0,-21.0,6.693
-214.0,-21.0,6.694
-300.0,-19.0,6.695
-283.0,-21.0,6.696
-158.0,-21.0,6.697
56.0,-12.0,6.698
287.0,5.0,6.699
434.0,22.0,6.7
431.0,26.0,6.701
299.0,30.0,6.702
138.0,44.0,6.703
45.0,64.0,6.704
29.0,82.0,6.705
38.0,81.0,6.706
23.0,53.0,6.707
-2.0,11.0,6.708
-6.0,-18.0,6.709
2.0,-18.0,6.71
-12.0,-10.0,6.711
-63.0,-16.0,6.712
-128.0,-30.0,6.713
-194.0,-33.0,6.714
-250.0,-24.0,6.715
-249.0,-22.0,6.716
-161.0,-26.0,6.717
-10.0,-25.0,6.718
111.0,-10.0,6.719
144.0,4.0,6.72
98.0,-1.0,6.721
19.0,-17.0,6.722
-36.0,-28.0,6.723
-21.0,-23.0,6.724
50.0,-10.0,6.725
100.0,-9.0,6.726
86.0,-20.0,6.727
51.0,-15.0,6.728
29.0,18.0,6.729
-12.0,53.0,6.73
-79.0,51.0,6.731
-102.0,20.0,6.732
-36.0,-5.0,6.733
59.0,-7.0,6.734
111.0,3.0,6.735
118.0,24.0,6.736
110.0,49.0,6.737
74.0,52.0,6.738
4.0,17.0,6.739
-57.0,-23.0,6.74
-66.0,-31.0,6.741
-38.0,-10.0,6.742
-19.0,-5.0,6.743
-27.0,-21.0,6.744
-47.0,-29.0,6.745
-55.0,-24.0,6.746
-34.0,-29.0,6.747
-10.0,-37.0,6.748
-28.0,-28.0,6.749
-103.0,-12.0,6.75
-178.0,-13.0,6.751
-189.0,-28.0,6.752
-109.0,-30.0,6.753
31.0,-15.0,6.754
167.0,-5.0,6.755
223.0,6.0,6.756
197.0,37.0,6.757
153.0,69.0,6.758
144.0,67.0,6.759
128.0,57.0,6.76
90.0,25.0,6.761
50.0,3.0,6.762
3.0,12.0,6.763
-35.0,12.0,6.764
-48.0,-16.0,6.765
-51.0,-37.0,6.766
-21.0,-31.0,6.767
-10.0,-31.0,6.768
-62.0,-47.0,6.769
-106.0,-53.0,6.77
-129.0,-30.0,6.771
-133.0,-9.0,6.772
-79.0,2.0,6.773
-16.0,11.0,6.774
72.0,13.0,6.775
124.0,15.0,6.776
68.0,11.0,6.777
14.0,5.0,6.778
-18.0,-1.0,6.779
-54.0,-15.0,6.78
-108.0,-34.0,6.781
-151.0,-47.0,6.782
-153.0,-55.0,6.783
-110.0,-65.0,6.784
-9.0,-58.0,6.785
151.0,-11.0,6.786
287.0,64.0,6.787
285.0,125.0,6.788
151.0,141.0,6.789
24.0,120.0,6.79
-1.0,84.0,6.791
10.0,45.0,6.792
-33.0,13.0,6.793
-99.0,-4.0,6.794
-114.0,-14.0,6.795
-97.0,-30.0,6.796
-115.0,-51.0,6.797
-160.0,-69.0,6.798
-152.0,-65.0,6.799
-73.0,-43.0,6.8
28.0,-20.0,6.801
125.0,1.0,6.802
212.0,15.0,6.803
235.0,21.0,6.804
148.0,12.0,6.805
22.0,-7.0,6.806
-12.0,-27.0,6.807
47.0,-30.0,6.808
81.0,-17.0,6.809
40.0,-7.0,6.81
-4.0,-9.0,6.811
-7.0,-7.0,6.812
-19.0,8.0,6.813
-77.0,13.0,6.814
-119.0,-1.0,6.815
-90.0,-15.0,6.816
-37.0,-12.0,6.817
-33.0,-7.0,6.818
-73.0,-29.0,6.819
-100.0,-73.0,6.82
-86.0,-101.0,6.821
-23.0,-81.0,6.822
96.0,-18.0,6.823
238.0,64.0,6.824
279.0,126.0,6.825
149.0,137.0,6.826
-35.0,101.0,6.827
-95.0,61.0,6.828
-53.0,36.0,6.829
-77.0,13.0,6.83
-183.0,-16.0,6.831
-186.0,-35.0,6.832
-13.0,-40.0,6.833
172.0,-48.0,6.834
211.0,-60.0,6.835
124.0,-50.0,6.836
3.0,-15.0,6.837
-107.0,15.0,6.838
-144.0,24.0,6.839
-133.0,29.0,6.84
24.0,46.0,6.841
147.0,73.0,6.842
163.0,90.0,6.843
146.0,79.0,6.844
32.0,41.0,6.845
-49.0,-6.0,6.846
-34.0,-28.0,6.847
-23.0,-15.0,6.848
-31.0,-2.0,6.849
-37.0,-11.0,6.85
-37.0,-25.0,6.851
-35.0,-20.0,6.852
-30.0,-11.0,6.853
-29.0,-19.0,6.854
-43.0,-34.0,6.855
-53.0,-35.0,6.856
-47.0,-25.0,6.857
-49.0,-28.0,6.858
-41.0,-33.0,6.859
22.0,-23.0,6.86
79.0,-5.0,6.861
68.0,2.0,6.862
34.0,-5.0,6.863
23.0,-20.0,6.864
16.0,-25.0,6.865
-2.0,-25.0,6.866
-5.0,-20.0,6.867
8.0,-15.0,6.868
6.0,-11.0,6.869
-11.0,-7.0,6.87
-6.0,-5.0,6.871
15.0,-4.0,6.872
21.0,-3.0,6.873
23.0,-3.0,6.874
45.0,-7.0,6.875
52.0,-15.0,6.876
8.0,-13.0,6.877
-73.0,-2.0,6.878
-97.0,13.0,6.879
-71.0,18.0,6.88
-38.0,16.0,6.881
-3.0,18.0,6.882
47.0,22.0,6.883
75.0,22.0,6.884
46.0,16.0,6.885
6.0,10.0,6.886
11.0,6.0,6.887
36.0,3.0,6.888
25.0,4.0,6.889
-5.0,9.0,6.89
-2.0,10.0,6.891
23.0,8.0,6.892
20.0,3.0,6.893
-4.0,3.0,6.894
-10.0,5.0,6.895
-9.0,4.0,6.896
-33.0,-3.0,6.897
-81.0,-16.0,6.898
-101.0,-29.0,6.899
-66.0,-28.0,6.9
13.0,-9.0,6.901
101.0,27.0,6.902
155.0,50.0,6.903
142.0,45.0,6.904
82.0,26.0,6.905
45.0,8.0,6.906
54.0,-4.0,6.907
49.0,-15.0,6.908
-12.0,-22.0,6.909
-80.0,-15.0,6.91
-83.0,-1.0,6.911
-24.0,9.0,6.912
36.0,13.0,6.913
65.0,16.0,6.914
63.0,14.0,6.915
35.0,0.0,6.916
-8.0,-11.0,6.917
-62.0,-16.0,6.918
-113.0,-18.0,6.919
-148.0,-22.0,6.92
-132.0,-34.0,6.921
-83.0,-37.0,6.922
61.0,-14.0,6.923
161.0,7.0,6.924
129.0,23.0,6.925
91.0,38.0,6.926
40.0,48.0,6.927
3.0,47.0,6.928
13.0,8.0,6.929
6.0,-20.0,6.93
-52.0,-11.0,6.931
-93.0,-7.0,6.932
-79.0,-19.0,6.933
-66.0,-29.0,6.934
-56.0,-30.0,6.935
-34.0,-30.0,6.936
22.0,-25.0,6.937
68.0,-19.0,6.938
62.0,-8.0,6.939
36.0,-1.0,6.94
37.0,-6.0,6.941
61.0,2.0,6.942
71.0,28.0,6.943
36.0,41.0,6.944
-30.0,22.0,6.945
-70.0,-2.0,6.946
-49.0,-3.0,6.947
-4.0,1.0,6.948
16.0,-6.0,6.949
16.0,-15.0,6.95
29.0,-12.0,6.951
41.0,-11.0,6.952
19.0,-18.0,6.953
-26.0,-19.0,6.954
-44.0,-7.0,6.955
-19.0,-2.0,6.956
27.0,-8.0,6.957
66.0,-13.0,6.958
63.0,-3.0,6.959
-5.0,11.0,6.96
-96.0,12.0,6.961
-128.0,16.0,6.962
-78.0,22.0,6.963
-19.0,17.0,6.964
-10.0,2.0,6.965
-21.0,-4.0,6.966
-4.0,1.0,6.967
25.0,2.0,6.968
26.0,-5.0,6.969
10.0,-6.0,6.97
11.0,3.0,6.971
21.0,7.0,6.972
15.0,-1.0,6.973
2.0,-8.0,6.974
8.0,-5.0,6.975
22.0,-4.0,6.976
24.0,-8.0,6.977
16.0,-15.0,6.978
14.0,-12.0,6.979
12.0,0.0,6.98
-3.0,15.0,6.981
-20.0,24.0,6.982
-27.0,10.0,6.983
-32.0,-23.0,6.984
-46.0,-50.0,6.985
-59.0,-43.0,6.986
-54.0,-14.0,6.987
-39.0,8.0,6.988
-36.0,20.0,6.989
-27.0,26.0,6.99
30.0,29.0,6.991
138.0,23.0,6.992
225.0,16.0,6.993
219.0,18.0,6.994
134.0,20.0,6.995
52.0,11.0,6.996
28.0,1.0,6.997
22.0,-4.0,6.998
-8.0,-1.0,6.999
-32.0,2.0,7.0
-34.0,6.0,7.001
-29.0,8.0,7.002
3.0,4.0,7.003
25.0,-1.0,7.004
15.0,-9.0,7.005
2.0,-15.0,7.006
-15.0,-16.0,7.007
-36.0,-16.0,7.008
-68.0,-9.0,7.009
-89.0,-4.0,7.01
-78.0,-9.0,7.011
-60.0,-14.0,7.012
-22.0,-19.0,7.013
6.0,-19.0,7.014
7.0,-5.0,7.015
7.0,7.0,7.016
5.0,15.0,7.017
1.0,19.0,7.018
-26.0,7.0,7.019
-71.0,-2.0,7.02
-88.0,-2.0,7.021
-57.0,6.0,7.022
0.0,5.0,7.023
59.0,0.0,7.024
114.0,2.0,7.025
147.0,7.0,7.026
136.0,4.0,7.027
97.0,-3.0,7.028
60.0,-8.0,7.029
39.0,-7.0,7.03
15.0,-10.0,7.031
-38.0,-11.0,7.032
-129.0,-8.0,7.033
-217.0,-1.0,7.034
-222.0,5.0,7.035
-110.0,7.0,7.036
40.0,5.0,7.037
140.0,-2.0,7.038
152.0,-11.0,7.039
115.0,-13.0,7.04
67.0,-15.0,7.041
23.0,-15.0,7.042
-2.0,-16.0,7.043
-5.0,-9.0,7.044
-13.0,5.0,7.045
-28.0,20.0,7.046
-25.0,25.0,7.047
-15.0,19.0,7.048
-39.0,8.0,7.049
-89.0,2.0,7.05
-92.0,6.0,7.051
-37.0,12.0,7.052
4.0,8.0,7.053
-2.0,-2.0,7.054
-1.0,-7.0,7.055
42.0,-7.0,7.056
87.0,-9.0,7.057
104.0,-24.0,7.058
103.0,-36.0,7.059
87.0,-41.0,7.06
22.0,-46.0,7.061
-86.0,-43.0,7.062
-168.0,-28.0,7.063
-155.0,4.0,7.064
-50.0,44.0,7.065
68.0,73.0,7.066
103.0,80.0,7.067
40.0,69.0,7.068
-30.0,51.0,7.069
-17.0,33.0,7.07
41.0,10.0,7.071
46.0,-8.0,7.072
0.0,-11.0,7.073
-13.0,-6.0,7.074
18.0,-5.0,7.075
29.0,-13.0,7.076
5.0,-16.0,7.077
-8.0,-14.0,7.078
10.0,-12.0,7.079
15.0,-13.0,7.08
-3.0,-18.0,7.081
-4.0,-18.0,7.082
20.0,-18.0,7.083
30.0,-16.0,7.084
17.0,-9.0,7.085
8.0,-1.0,7.086
14.0,1.0,7.087
10.0,-2.0,7.088
-3.0,-4.0,7.089
3.0,-3.0,7.09
22.0,-1.0,7.091
29.0,1.0,7.092
20.0,1.0,7.093
7.0,-2.0,7.094
-15.0,-12.0,7.095
-54.0,-26.0,7.096
-84.0,-40.0,7.097
-73.0,-50.0,7.098
-30.0,-43.0,7.099
4.0,-26.0,7.1
18.0,21.0,7.101
33.0,59.0,7.102
66.0,68.0,7.103
82.0,68.0,7.104
57.0,38.0,7.105
15.0,13.0,7.106
2.0,3.0,7.107
11.0,-4.0,7.108
13.0,-1.0,7.109
1.0,1.0,7.11
5.0,-1.0,7.111
24.0,-4.0,7.112
36.0,-3.0,7.113
34.0,-2.0,7.114
26.0,-4.0,7.115
13.0,-7.0,7.116
-13.0,-13.0,7.117
-51.0,-16.0,7.118
-82.0,-4.0,7.119
-93.0,-3.0,7.12
-78.0,-13.0,7.121
-41.0,-13.0,7.122
-4.0,-1.0,7.123
12.0,4.0,7.124
3.0,-3.0,7.125
-4.0,-8.0,7.126
3.0,-4.0,7.127
13.0,-1.0,7.128
11.0,-3.0,7.129
10.0,-3.0,7.13
18.0,2.0,7.131
26.0,2.0,7.132
26.0,-6.0,7.133
25.0,-11.0,7.134
28.0,-7.0,7.135
26.0,-1.0,7.136
17.0,1.0,7.137
2.0,2.0,7.138
-10.0,7.0,7.139
-25.0,10.0,7.14
-35.0,0.0,7.141
-32.0,-9.0,7.142
-15.0,-8.0,7.143
4.0,0.0,7.144
17.0,9.0,7.145
21.0,10.0,7.146
13.0,7.0,7.147
-18.0,-3.0,7.148
-65.0,-16.0,7.149
-97.0,-21.0,7.15
-84.0,-7.0,7.151
-16.0,8.0,7.152
74.0,12.0,7.153
142.0,11.0,7.154
151.0,13.0,7.155
97.0,19.0,7.156
29.0,17.0,7.157
-6.0,5.0,7.158
-2.0,-2.0,7.159
-1.0,-1.0,7.16
-12.0,0.0,7.161
-16.0,-2.0,7.162
2.0,-5.0,7.163
14.0,-5.0,7.164
0.0,-1.0,7.165
-10.0,1.0,7.166
-8.0,1.0,7.167
-6.0,4.0,7.168
-4.0,9.0,7.169
0.0,8.0,7.17
8.0,0.0,7.171
13.0,-7.0,7.172
6.0,-6.0,7.173
-2.0,-3.0,7.174
-14.0,-10.0,7.175
-21.0,-19.0,7.176
-13.0,-16.0,7.177
-5.0,-4.0,7.178
-2.0,4.0,7.179
-4.0,3.0,7.18
-8.0,0.0,7.181
-11.0,4.0,7.182
-6.0,5.0,7.183
5.0,0.0,7.184
6.0,-5.0,7.185
0.0,-3.0,7.186
0.0,2.0,7.187
7.0,0.0,7.188
6.0,-6.0,7.189
-5.0,-5.0,7.19
-10.0,-1.0,7.191
0.0,1.0,7.192
18.0,3.0,7.193
22.0,4.0,7.194
16.0,3.0,7.195
10.0,-3.0,7.196
9.0,-5.0,7.197
2.0,-2.0,7.198
-12.0,3.0,7.199
-24.0,2.0,7.2
-23.0,-5.0,7.201
-10.0,-7.0,7.202
3.0,-4.0,7.203
6.0,-4.0,7.204
-1.0,-2.0,7.205
-4.0,1.0,7.206
0.0,3.0,7.207
6.0,-3.0,7.208
7.0,-8.0,7.209
9.0,-3.0,7.21
14.0,3.0,7.211
17.0,-2.0,7.212
13.0,-11.0,7.213
3.0,-11.0,7.214
-2.0,-1.0,7.215
-2.0,8.0,7.216
3.0,10.0,7.217
10.0,11.0,7.218
19.0,13.0,7.219
27.0,13.0,7.22
27.0,9.0,7.221
14.0,6.0,7.222
0.0,-2.0,7.223
-6.0,-17.0,7.224
-6.0,-28.0,7.225
-5.0,-20.0,7.226
0.0,-3.0,7.227
12.0,1.0,7.228
11.0,-6.0,7.229
-9.0,-6.0,7.23
-33.0,6.0,7.231
-35.0,12.0,7.232
-25.0,1.0,7.233
-29.0,-12.0,7.234
-42.0,-8.0,7.235
-32.0,9.0,7.236
3.0,19.0,7.237
30.0,13.0,7.238
28.0,6.0,7.239
20.0,-2.0,7.24
-1.0,-11.0,7.241
-17.0,-19.0,7.242
-11.0,-17.0,7.243
-2.0,-10.0,7.244
13.0,12.0,7.245
27.0,30.0,7.246
36.0,34.0,7.247
43.0,32.0,7.248
38.0,14.0,7.249
33.0,0.0,7.25
31.0,0.0,7.251
25.0,0.0,7.252
11.0,-2.0,7.253
-1.0,-5.0,7.254
-11.0,-5.0,7.255
-16.0,-4.0,7.256
1.0,-7.0,7.257
13.0,-9.0,7.258
-1.0,-2.0,7.259
-10.0,0.0,7.26
-8.0,-10.0,7.261
-8.0,-18.0,7.262
-7.0,-9.0,7.263
-3.0,7.0,7.264
3.0,9.0,7.265
4.0,-4.0,7.266
9.0,-18.0,7.267
20.0,-17.0,7.268
28.0,-9.0,7.269
20.0,-4.0,7.27
0.0,-4.0,7.271
-14.0,-4.0,7.272
-15.0,-2.0,7.273
-10.0,-1.0,7.274
-2.0,0.0,7.275
12.0,1.0,7.276
22.0,6.0,7.277
21.0,5.0,7.278
15.0,3.0,7.279
21.0,2.0,7.28
36.0,2.0,7.281
45.0,0.0,7.282
34.0,-6.0,7.283
9.0,-13.0,7.284
-19.0,-11.0,7.285
-49.0,-3.0,7.286
-83.0,5.0,7.287
-102.0,3.0,7.288
-92.0,-4.0,7.289
-57.0,-6.0,7.29
-22.0,1.0,7.291
-7.0,8.0,7.292
-8.0,6.0,7.293
-3.0,1.0,7.294
12.0,0.0,7.295
24.0,3.0,7.296
27.0,2.0,7.297
26.0,-2.0,7.298
27.0,-3.0,7.299
26.0,2.0,7.3
23.0,-2.0,7.301
22.0,-8.0,7.302
23.0,-8.0,7.303
19.0,2.0,7.304
5.0,11.0,7.305
-5.0,12.0,7.306
-4.0,7.0,7.307
5.0,3.0,7.308
14.0,0.0,7.309
18.0,-1.0,7.31
14.0,2.0,7.311
10.0,2.0,7.312
7.0,-1.0,7.313
12.0,-5.0,7.314
14.0,-3.0,7.315
10.0,0.0,7.316
7.0,0.0,7.317
6.0,-6.0,7.318
7.0,-8.0,7.319
3.0,-5.0,7.32
1.0,-5.0,7.321
10.0,-6.0,7.322
25.0,-6.0,7.323
35.0,-6.0,7.324
35.0,-7.0,7.325
28.0,-8.0,7.326
17.0,-4.0,7.327
0.0,0.0,7.328
-21.0,3.0,7.329
-36.0,6.0,7.33
-34.0,9.0,7.331
-17.0,9.0,7.332
-1.0,3.0,7.333
0.0,0.0,7.334
-14.0,2.0,7.335
-32.0,3.0,7.336
-42.0,4.0,7.337
-41.0,2.0,7.338
-30.0,2.0,7.339
-16.0,1.0,7.34
2.0,-6.0,7.341
16.0,-10.0,7.342
21.0,-10.0,7.343
17.0,-2.0,7.344
6.0,7.0,7.345
-3.0,12.0,7.346
-5.0,8.0,7.347
-3.0,0.0,7.348
2.0,-6.0,7.349
7.0,-6.0,7.35
23.0,-3.0,7.351
50.0,-1.0,7.352
66.0,-2.0,7.353
54.0,1.0,7.354
26.0,3.0,7.355
5.0,0.0,7.356
-4.0,-6.0,7.357
-17.0,-8.0,7.358
-32.0,-3.0,7.359
-35.0,1.0,7.36
-24.0,-1.0,7.361
-17.0,-1.0,7.362
-16.0,2.0,7.363
-9.0,4.0,7.364
5.0,4.0,7.365
13.0,3.0,7.366
11.0,1.0,7.367
10.0,0.0,7.368
14.0,-1.0,7.369
14.0,0.0,7.37
11.0,0.0,7.371
11.0,0.0,7.372
17.0,-2.0,7.373
15.0,-5.0,7.374
7.0,-7.0,7.375
3.0,-7.0,7.376
5.0,-6.0,7.377
1.0,-6.0,7.378
-3.0,-6.0,7.379
-5.0,-5.0,7.38
4.0,-6.0,7.381
11.0,-6.0,7.382
10.0,2.0,7.383
9.0,7.0,7.384
10.0,5.0,7.385
8.0,3.0,7.386
-4.0,4.0,7.387
-11.0,4.0,7.388
2.0,1.0,7.389
10.0,-1.0,7.39
-1.0,-1.0,7.391
-5.0,-3.0,7.392
13.0,-8.0,7.393
24.0,-11.0,7.394
10.0,-3.0,7.395
-4.0,4.0,7.396
-22.0,9.0,7.397
-32.0,14.0,7.398
-20.0,12.0,7.399
-18.0,5.0,7.4
-36.0,-8.0,7.401
-65.0,-15.0,7.402
-75.0,-14.0,7.403
-29.0,-11.0,7.404
65.0,-9.0,7.405
152.0,-5.0,7.406
178.0,1.0,7.407
138.0,8.0,7.408
62.0,16.0,7.409
-21.0,25.0,7.41
-79.0,29.0,7.411
-88.0,19.0,7.412
-62.0,8.0,7.413
-34.0,2.0,7.414
-20.0,1.0,7.415
-7.0,-3.0,7.416
3.0,-6.0,7.417
-7.0,-11.0,7.418
-34.0,-15.0,7.419
-53.0,-18.0,7.42
-50.0,-23.0,7.421
-29.0,-22.0,7.422
6.0,-18.0,7.423
54.0,-15.0,7.424
91.0,-15.0,7.425
96.0,-13.0,7.426
76.0,-9.0,7.427
46.0,-5.0,7.428
11.0,2.0,7.429
-23.0,10.0,7.43
-41.0,19.0,7.431
-36.0,29.0,7.432
-28.0,36.0,7.433
-26.0,35.0,7.434
-16.0,26.0,7.435
7.0,10.0,7.436
20.0,0.0,7.437
2.0,-3.0,7.438
-20.0,-3.0,7.439
-24.0,-2.0,7.44
-20.0,-10.0,7.441
-27.0,-21.0,7.442
-35.0,-27.0,7.443
-25.0,-22.0,7.444
-6.0,-11.0,7.445
5.0,-3.0,7.446
13.0,2.0,7.447
21.0,9.0,7.448
18.0,12.0,7.449
8.0,8.0,7.45
13.0,0.0,7.451
39.0,-2.0,7.452
68.0,0.0,7.453
82.0,0.0,7.454
74.0,-1.0,7.455
46.0,-1.0,7.456
8.0,1.0,7.457
-14.0,-2.0,7.458
-6.0,-9.0,7.459
8.0,-13.0,7.46
-3.0,-13.0,7.461
-17.0,-8.0,7.462
-5.0,-8.0,7.463
19.0,-6.0,7.464
17.0,-6.0,7.465
-12.0,-5.0,7.466
-29.0,-3.0,7.467
-22.0,0.0,7.468
-7.0,-1.0,7.469
6.0,-5.0,7.47
10.0,-7.0,7.471
-12.0,-5.0,7.472
-54.0,-2.0,7.473
-72.0,0.0,7.474
-35.0,3.0,7.475
24.0,9.0,7.476
50.0,17.0,7.477
30.0,24.0,7.478
-6.0,33.0,7.479
-33.0,38.0,7.48
-46.0,29.0,7.481
-43.0,15.0,7.482
-25.0,9.0,7.483
-15.0,13.0,7.484
-27.0,14.0,7.485
-32.0,3.0,7.486
4.0,-11.0,7.487
58.0,-19.0,7.488
72.0,-23.0,7.489
42.0,-29.0,7.49
17.0,-37.0,7.491
17.0,-45.0,7.492
11.0,-52.0,7.493
-19.0,-54.0,7.494
-48.0,-42.0,7.495
-42.0,-20.0,7.496
-8.0,-2.0,7.497
30.0,3.0,7.498
55.0,5.0,7.499
62.0,13.0,7.5
49.0,23.0,7.501
33.0,30.0,7.502
28.0,32.0,7.503
