Deltoid,Bicep,Time
12,-3,0.0
5,-2,0.001
2,1,0.002
4,1,0.003
5,-2,0.004
1,-2,0.005
3,-3,0.006
7,-3,0.007
6,-5,0.008
1,-4,0.009
0,0,0.01
1,3,0.011
4,3,0.012
4,5,0.013
1,5,0.014
-2,4,0.015
-5,1,0.016
-4,0,0.017
4,0,0.018
17,2,0.019
24,0,0.02
19,0,0.021
2,0,0.022
-23,1,0.023
-46,0,0.024
-56,0,0.025
-47,0,0.026
-20,0,0.027
16,-2,0.028
52,-3,0.029
71,-1,0.03
63,1,0.031
32,0,0.032
7,-1,0.033
5,-2,0.034
28,-2,0.035
43,-3,0.036
29,-7,0.037
0,-7,0.038
-14,-5,0.039
-1,-2,0.04
16,0,0.041
17,2,0.042
8,3,0.043
0,0,0.044
-10,-3,0.045
-33,-1,0.046
-61,0,0.047
-74,-2,0.048
-63,-4,0.049
-35,-2,0.05
-1,3,0.051
25,5,0.052
40,2,0.053
42,-1,0.054
42,0,0.055
46,2,0.056
57,0,0.057
59,-1,0.058
32,-2,0.059
-20,-4,0.06
-56,-4,0.061
-48,-4,0.062
-17,-3,0.063
-5,-2,0.064
-18,-2,0.065
-25,-3,0.066
-12,-3,0.067
1,-2,0.068
0,-2,0.069
-8,-2,0.07
-7,0,0.071
1,2,0.072
11,0,0.073
17,0,0.074
18,0,0.075
10,-1,0.076
1,-5,0.077
-1,-5,0.078
6,-3,0.079
15,-3,0.08
15,-2,0.081
8,0,0.082
1,3,0.083
1,1,0.084
3,-1,0.085
1,0,0.086
-2,1,0.087
-3,2,0.088
-1,2,0.089
0,4,0.09
3,5,0.091
6,3,0.092
9,0,0.093
14,0,0.094
18,4,0.095
16,8,0.096
5,2,0.097
-6,-3,0.098
-10,-3,0.099
-9,0,0.1
-15,2,0.101
-28,2,0.102
-40,0,0.103
-38,-3,0.104
-23,-6,0.105
3,-7,0.106
32,-4,0.107
49,-3,0.108
40,-3,0.109
16,-1,0.11
0,2,0.111
4,4,0.112
18,3,0.113
27,-2,0.114
31,-4,0.115
20,-5,0.116
-1,-4,0.117
-21,-3,0.118
-22,-1,0.119
-10,3,0.12
0,7,0.121
2,6,0.122
1,0,0.123
5,-1,0.124
7,0,0.125
6,0,0.126
4,-3,0.127
-1,-4,0.128
-10,-1,0.129
-10,2,0.13
10,0,0.131
44,-3,0.132
69,-1,0.133
70,-3,0.134
59,-3,0.135
35,-3,0.136
4,-5,0.137
-24,-3,0.138
-35,-2,0.139
-30,-1,0.14
-23,1,0.141
-16,3,0.142
4,5,0.143
43,3,0.144
73,2,0.145
57,2,0.146
-7,-1,0.147
-72,-5,0.148
-93,-8,0.149
-73,-5,0.15
-57,0,0.151
-60,3,0.152
-56,3,0.153
-34,0,0.154
-20,0,0.155
-34,1,0.156
-44,-2,0.157
-17,-5,0.158
29,-5,0.159
49,-1,0.16
36,6,0.161
18,11,0.162
10,7,0.163
12,-2,0.164
20,-5,0.165
33,0,0.166
41,4,0.167
39,2,0.168
40,-1,0.169
46,-2,0.17
47,0,0.171
34,-3,0.172
15,-5,0.173
-2,-5,0.174
-13,-1,0.175
-19,-1,0.176
-22,-7,0.177
-23,-9,0.178
-18,-6,0.179
-2,-2,0.18
17,-1,0.181
25,-2,0.182
21,-3,0.183
13,0,0.184
9,3,0.185
9,4,0.186
11,-1,0.187
14,-8,0.188
11,-7,0.189
-2,-2,0.19
-19,3,0.191
-30,4,0.192
-34,2,0.193
-31,-1,0.194
-18,-1,0.195
-4,-2,0.196
-4,-4,0.197
-17,-6,0.198
-23,-2,0.199
-16,1,0.2
-9,4,0.201
-7,6,0.202
4,3,0.203
28,0,0.204
48,1,0.205
53,2,0.206
52,0,0.207
45,0,0.208
25,1,0.209
3,2,0.21
-1,-1,0.211
-1,-4,0.212
-14,-2,0.213
-30,-1,0.214
-14,-3,0.215
31,-7,0.216
59,-10,0.217
49,-7,0.218
17,-4,0.219
-20,0,0.22
-59,4,0.221
-79,5,0.222
-57,1,0.223
-9,-3,0.224
12,-3,0.225
-9,-1,0.226
-38,-2,0.227
-42,-3,0.228
-19,-1,0.229
11,-2,0.23
38,-3,0.231
51,-4,0.232
53,-2,0.233
54,-2,0.234
62,-4,0.235
68,-4,0.236
49,-3,0.237
3,1,0.238
-41,2,0.239
-61,2,0.24
-54,5,0.241
-35,8,0.242
-22,5,0.243
-15,1,0.244
0,1,0.245
23,3,0.246
39,3,0.247
30,0,0.248
-2,1,0.249
-33,3,0.25
-44,3,0.251
-36,0,0.252
-23,-1,0.253
-18,-1,0.254
-23,-2,0.255
-23,-2,0.256
1,-3,0.257
48,-2,0.258
88,0,0.259
90,1,0.26
64,2,0.261
38,4,0.262
22,4,0.263
5,1,0.264
-13,-2,0.265
-13,-1,0.266
7,0,0.267
28,-1,0.268
31,-3,0.269
18,-4,0.27
-2,-4,0.271
-16,-3,0.272
-22,-4,0.273
-23,-7,0.274
-24,-8,0.275
-28,-5,0.276
-22,-4,0.277
4,-3,0.278
51,-3,0.279
86,-2,0.28
67,0,0.281
-7,2,0.282
-82,3,0.283
-96,2,0.284
-58,2,0.285
-26,3,0.286
-36,4,0.287
-62,3,0.288
-62,1,0.289
-33,-1,0.29
3,-1,0.291
30,-4,0.292
46,-4,0.293
43,-5,0.294
24,-3,0.295
1,0,0.296
-9,-3,0.297
-6,-2,0.298
4,-1,0.299
13,1,0.3
18,6,0.301
19,8,0.302
20,7,0.303
25,2,0.304
31,0,0.305
29,1,0.306
17,2,0.307
7,0,0.308
5,-2,0.309
11,-2,0.31
13,0,0.311
16,0,0.312
22,1,0.313
32,-1,0.314
29,-4,0.315
10,-5,0.316
-11,-6,0.317
-24,-5,0.318
-34,-5,0.319
-49,-5,0.32
-58,-2,0.321
-38,0,0.322
-1,0,0.323
16,1,0.324
-5,5,0.325
-20,7,0.326
4,2,0.327
41,-4,0.328
49,-6,0.329
34,-4,0.33
30,-5,0.331
35,-6,0.332
23,-4,0.333
-6,-1,0.334
-18,1,0.335
-8,0,0.336
0,-6,0.337
-3,-5,0.338
7,-1,0.339
32,1,0.34
40,4,0.341
21,3,0.342
7,0,0.343
8,-2,0.344
8,-1,0.345
-4,0,0.346
-11,-1,0.347
-6,-3,0.348
-2,-1,0.349
-5,1,0.35
-7,-1,0.351
-7,-4,0.352
-12,-3,0.353
-25,0,0.354
-39,1,0.355
-50,0,0.356
-54,-1,0.357
-39,-1,0.358
4,-1,0.359
69,0,0.36
129,5,0.361
161,9,0.362
139,11,0.363
53,8,0.364
-58,6,0.365
-124,7,0.366
-121,4,0.367
-92,1,0.368
-83,0,0.369
-74,0,0.37
-29,0,0.371
37,-2,0.372
71,-2,0.373
59,-3,0.374
38,-2,0.375
31,-4,0.376
24,-6,0.377
1,-6,0.378
-25,-7,0.379
-35,-6,0.38
-28,-3,0.381
-15,-1,0.382
3,-1,0.383
23,-2,0.384
38,-4,0.385
41,-3,0.386
31,-3,0.387
14,-4,0.388
1,-4,0.389
2,-4,0.39
2,-3,0.391
-8,-3,0.392
-29,0,0.393
-46,0,0.394
-47,-4,0.395
-38,-6,0.396
-29,-7,0.397
-21,-2,0.398
-8,0,0.399
17,1,0.4
45,4,0.401
69,8,0.402
84,7,0.403
90,1,0.404
82,-4,0.405
56,-2,0.406
37,0,0.407
45,-3,0.408
61,-5,0.409
48,-5,0.41
5,-3,0.411
-32,-3,0.412
-44,-2,0.413
-51,0,0.414
-59,0,0.415
-60,-2,0.416
-48,-4,0.417
-40,-2,0.418
-42,3,0.419
-42,3,0.42
-33,5,0.421
-19,8,0.422
-9,6,0.423
0,1,0.424
6,-2,0.425
15,2,0.426
26,6,0.427
35,4,0.428
22,-1,0.429
-7,-2,0.43
-24,-3,0.431
-16,-2,0.432
2,1,0.433
10,1,0.434
10,0,0.435
19,-2,0.436
42,-3,0.437
59,-5,0.438
47,-4,0.439
4,-2,0.44
-38,3,0.441
-53,6,0.442
-47,3,0.443
-47,1,0.444
-52,0,0.445
-29,-2,0.446
15,-1,0.447
37,0,0.448
17,-2,0.449
-10,-4,0.45
-17,-6,0.451
-18,-8,0.452
-23,-8,0.453
-20,-5,0.454
10,-2,0.455
50,-3,0.456
77,-6,0.457
90,-3,0.458
97,0,0.459
92,2,0.46
73,2,0.461
45,3,0.462
14,5,0.463
-21,3,0.464
-46,0,0.465
-47,-1,0.466
-29,-3,0.467
-17,-4,0.468
-9,-2,0.469
7,0,0.47
23,0,0.471
17,-2,0.472
-8,0,0.473
-28,0,0.474
-28,0,0.475
-27,-3,0.476
-37,-6,0.477
-40,-3,0.478
-21,0,0.479
-2,0,0.48
-1,-1,0.481
-6,0,0.482
-1,0,0.483
3,-3,0.484
-8,-3,0.485
-23,-1,0.486
-21,0,0.487
-2,-2,0.488
22,-2,0.489
51,2,0.49
74,4,0.491
74,0,0.492
43,-3,0.493
-11,-4,0.494
-50,-3,0.495
-64,-1,0.496
-58,-3,0.497
-41,-5,0.498
-16,-2,0.499
2,-1,0.5
4,-1,0.501
-1,0,0.502
6,0,0.503
23,3,0.504
45,1,0.505
72,-1,0.506
94,-2,0.507
75,0,0.508
5,2,0.509
-61,3,0.51
-68,4,0.511
-37,2,0.512
-27,-1,0.513
-43,-4,0.514
-43,-4,0.515
-14,-4,0.516
5,-5,0.517
3,-6,0.518
9,-3,0.519
28,-1,0.52
34,-1,0.521
18,0,0.522
10,1,0.523
19,3,0.524
21,0,0.525
10,-3,0.526
3,-3,0.527
9,-2,0.528
9,-3,0.529
-1,-3,0.53
-7,0,0.531
-11,2,0.532
-32,1,0.533
-71,0,0.534
-85,0,0.535
-57,-1,0.536
-5,-8,0.537
39,-6,0.538
74,1,0.539
102,4,0.54
118,1,0.541
108,-1,0.542
76,3,0.543
35,4,0.544
1,-1,0.545
-20,-5,0.546
-29,-2,0.547
-18,1,0.548
9,0,0.549
32,-2,0.55
26,0,0.551
0,3,0.552
-19,4,0.553
-31,0,0.554
-49,-2,0.555
-64,-2,0.556
-62,-5,0.557
-53,-4,0.558
-21,0,0.559
5,4,0.56
14,5,0.561
32,4,0.562
73,1,0.563
95,0,0.564
55,1,0.565
22,4,0.566
12,4,0.567
3,-1,0.568
-3,-4,0.569
-14,-3,0.57
-35,-3,0.571
-51,-4,0.572
-49,-4,0.573
-43,-2,0.574
-9,-2,0.575
30,-5,0.576
29,-8,0.577
-26,-5,0.578
-85,0,0.579
-93,1,0.58
-59,1,0.581
-31,2,0.582
-24,4,0.583
-14,2,0.584
4,-1,0.585
6,-1,0.586
-7,0,0.587
-10,2,0.588
8,0,0.589
29,2,0.59
40,3,0.591
49,1,0.592
58,0,0.593
54,-1,0.594
32,0,0.595
10,1,0.596
-8,-4,0.597
-20,-6,0.598
-8,-7,0.599
3,-6,0.6
14,0,0.601
24,3,0.602
29,2,0.603
34,-3,0.604
34,-4,0.605
35,1,0.606
35,0,0.607
35,-4,0.608
33,-7,0.609
28,-4,0.61
15,-1,0.611
3,-2,0.612
-6,-2,0.613
-14,-2,0.614
-14,-2,0.615
-14,-2,0.616
-19,-3,0.617
-19,-3,0.618
-9,-2,0.619
-2,-3,0.62
-3,0,0.621
-8,2,0.622
-7,0,0.623
-3,-3,0.624
-4,0,0.625
-9,8,0.626
-9,12,0.627
-4,4,0.628
-4,-4,0.629
-6,-4,0.63
-7,2,0.631
-5,4,0.632
-4,2,0.633
-3,-2,0.634
-3,-4,0.635
-2,-3,0.636
-5,-4,0.637
-5,-6,0.638
1,-6,0.639
11,-1,0.64
9,1,0.641
1,2,0.642
2,1,0.643
14,0,0.644
19,0,0.645
12,1,0.646
0,4,0.647
-1,4,0.648
2,0,0.649
1,-2,0.65
-3,-1,0.651
-2,2,0.652
1,3,0.653
3,0,0.654
-1,-1,0.655
-12,0,0.656
-22,-4,0.657
-24,-7,0.658
-9,-6,0.659
22,-1,0.66
39,3,0.661
24,3,0.662
-1,0,0.663
-3,-3,0.664
13,-4,0.665
22,-4,0.666
26,-4,0.667
42,-3,0.668
58,-4,0.669
40,-4,0.67
-12,-2,0.671
-63,-1,0.672
-86,1,0.673
-93,-2,0.674
-95,-4,0.675
-81,-4,0.676
-34,-7,0.677
35,-6,0.678
88,-4,0.679
99,-1,0.68
79,0,0.681
60,0,0.682
56,0,0.683
50,0,0.684
26,-1,0.685
-7,-1,0.686
-24,-1,0.687
-27,-1,0.688
-28,-1,0.689
-29,0,0.69
-18,1,0.691
4,1,0.692
18,2,0.693
16,2,0.694
15,0,0.695
15,-2,0.696
6,-4,0.697
-7,-6,0.698
-9,-3,0.699
1,0,0.7
7,4,0.701
0,7,0.702
-7,5,0.703
-4,3,0.704
-1,0,0.705
-5,-2,0.706
-9,0,0.707
-6,1,0.708
-1,0,0.709
-4,-1,0.71
-6,0,0.711
-4,0,0.712
0,-1,0.713
-1,-3,0.714
-6,0,0.715
-12,0,0.716
-13,-1,0.717
-9,2,0.718
0,6,0.719
11,4,0.72
15,0,0.721
15,1,0.722
19,4,0.723
24,3,0.724
19,-1,0.725
6,-1,0.726
-2,2,0.727
-1,1,0.728
1,-5,0.729
-1,-6,0.73
-4,-3,0.731
0,0,0.732
5,1,0.733
3,-1,0.734
-1,-1,0.735
-4,-3,0.736
-3,-7,0.737
0,-5,0.738
9,-3,0.739
15,-1,0.74
12,-3,0.741
9,-6,0.742
5,-5,0.743
1,-3,0.744
0,-3,0.745
-1,-3,0.746
-1,-2,0.747
-1,-4,0.748
0,-4,0.749
1,0,0.75
0,4,0.751
-1,3,0.752
1,-1,0.753
5,-5,0.754
5,-4,0.755
6,-4,0.756
2,-6,0.757
-2,-6,0.758
0,-4,0.759
10,-2,0.76
14,0,0.761
7,1,0.762
0,1,0.763
2,-1,0.764
4,-3,0.765
0,0,0.766
-4,1,0.767
-2,-2,0.768
0,-3,0.769
0,-2,0.77
-1,-1,0.771
3,-1,0.772
5,-2,0.773
0,-2,0.774
-5,-2,0.775
-11,0,0.776
-17,-1,0.777
-21,-2,0.778
-14,-2,0.779
2,-1,0.78
5,2,0.781
-14,5,0.782
-30,5,0.783
-23,2,0.784
-6,0,0.785
3,2,0.786
13,2,0.787
42,-4,0.788
70,-7,0.789
68,-5,0.79
45,1,0.791
32,4,0.792
38,3,0.793
48,-1,0.794
61,-2,0.795
78,-2,0.796
71,-5,0.797
10,-7,0.798
-62,-5,0.799
-79,0,0.8
-51,4,0.801
-42,4,0.802
-63,2,0.803
-61,0,0.804
-28,0,0.805
-9,1,0.806
-19,3,0.807
-23,3,0.808
-3,1,0.809
10,-1,0.81
0,-2,0.811
-6,-1,0.812
4,2,0.813
10,1,0.814
5,0,0.815
3,-2,0.816
11,-6,0.817
13,-5,0.818
8,-2,0.819
11,1,0.82
18,1,0.821
17,3,0.822
7,2,0.823
6,-1,0.824
14,-5,0.825
13,-5,0.826
3,-2,0.827
0,-2,0.828
2,-3,0.829
0,-1,0.83
-5,0,0.831
-8,0,0.832
-5,2,0.833
-1,0,0.834
0,0,0.835
5,0,0.836
6,-4,0.837
3,-4,0.838
2,-2,0.839
7,-2,0.84
12,-1,0.841
10,1,0.842
5,3,0.843
6,0,0.844
7,-2,0.845
3,-1,0.846
0,0,0.847
0,0,0.848
2,0,0.849
1,-1,0.85
0,-2,0.851
1,-4,0.852
5,-2,0.853
6,1,0.854
4,1,0.855
-1,-1,0.856
-3,-5,0.857
-2,-4,0.858
4,-2,0.859
9,0,0.86
8,3,0.861
4,6,0.862
5,3,0.863
10,-3,0.864
13,-6,0.865
8,-2,0.866
2,3,0.867
3,0,0.868
5,-4,0.869
1,-3,0.87
-8,-1,0.871
-16,-1,0.872
-14,-2,0.873
-10,-4,0.874
-9,-2,0.875
-11,-1,0.876
-10,-5,0.877
-8,-8,0.878
0,-5,0.879
13,1,0.88
21,6,0.881
18,7,0.882
8,6,0.883
2,4,0.884
2,1,0.885
2,-4,0.886
0,-7,0.887
1,-5,0.888
4,-2,0.889
3,0,0.89
-1,-3,0.891
-4,-4,0.892
-7,-3,0.893
-14,-1,0.894
-19,0,0.895
-21,2,0.896
-20,2,0.897
-15,2,0.898
1,0,0.899
30,0,0.9
54,1,0.901
57,1,0.902
49,1,0.903
41,0,0.904
31,0,0.905
10,0,0.906
-11,1,0.907
-14,-1,0.908
-7,-3,0.909
-4,-4,0.91
-7,-3,0.911
-8,-2,0.912
-5,0,0.913
-6,-1,0.914
-10,-1,0.915
-11,-1,0.916
-9,-4,0.917
-9,-4,0.918
-7,-4,0.919
2,-3,0.92
9,0,0.921
8,3,0.922
2,3,0.923
2,-1,0.924
3,-4,0.925
1,-3,0.926
0,-2,0.927
3,-3,0.928
1,-3,0.929
-3,-2,0.93
-5,-1,0.931
-3,-1,0.932
1,0,0.933
2,1,0.934
3,0,0.935
0,-2,0.936
-4,-5,0.937
-7,-3,0.938
-1,1,0.939
10,4,0.94
11,6,0.941
6,6,0.942
5,4,0.943
9,1,0.944
7,0,0.945
-1,0,0.946
-5,0,0.947
-1,-2,0.948
3,0,0.949
0,2,0.95
-3,0,0.951
-1,-1,0.952
3,-1,0.953
5,0,0.954
6,-1,0.955
1,-5,0.956
-2,-9,0.957
-1,-10,0.958
9,-7,0.959
16,-1,0.96
13,3,0.961
3,2,0.962
2,-1,0.963
7,-4,0.964
6,-2,0.965
0,-3,0.966
-2,-5,0.967
0,-6,0.968
0,-3,0.969
-3,-2,0.97
-3,-3,0.971
1,-4,0.972
8,-2,0.973
7,-2,0.974
5,-4,0.975
1,-4,0.976
-2,-4,0.977
-3,-1,0.978
4,-2,0.979
14,-3,0.98
16,0,0.981
9,5,0.982
2,5,0.983
2,2,0.984
1,0,0.985
-3,3,0.986
-6,2,0.987
-4,-1,0.988
0,-3,0.989
1,0,0.99
0,2,0.991
-3,0,0.992
-4,-1,0.993
-1,0,0.994
3,2,0.995
1,1,0.996
-3,-3,0.997
-1,-3,0.998
9,-2,0.999
15,-2,1.0
13,0,1.001
10,0,1.002
9,-1,1.003
10,-3,1.004
7,-2,1.005
1,1,1.006
-1,4,1.007
-2,3,1.008
-3,-1,1.009
0,-2,1.01
2,2,1.011
0,4,1.012
-5,6,1.013
-13,4,1.014
-19,3,1.015
-21,0,1.016
-19,-6,1.017
-11,-9,1.018
2,-6,1.019
11,1,1.02
8,3,1.021
4,2,1.022
17,1,1.023
44,0,1.024
61,-1,1.025
50,-5,1.026
28,-6,1.027
15,-3,1.028
11,-1,1.029
-2,-1,1.03
-28,-2,1.031
-42,0,1.032
-30,5,1.033
-4,4,1.034
27,3,1.035
50,2,1.036
61,-1,1.037
49,-3,1.038
13,-2,1.039
-27,1,1.04
-54,3,1.041
-64,4,1.042
-69,2,1.043
-64,-1,1.044
-44,-4,1.045
-13,-5,1.046
8,-3,1.047
14,0,1.048
17,-2,1.049
26,-5,1.05
34,-7,1.051
28,-4,1.052
16,1,1.053
7,3,1.054
2,2,1.055
-3,-3,1.056
-7,-8,1.057
-1,-5,1.058
14,0,1.059
29,1,1.06
40,0,1.061
42,0,1.062
33,3,1.063
12,3,1.064
-6,4,1.065
-9,5,1.066
1,5,1.067
9,2,1.068
1,1,1.069
-9,4,1.07
-12,4,1.071
-7,-1,1.072
-3,-6,1.073
-6,-5,1.074
-9,-2,1.075
-10,-1,1.076
-11,-6,1.077
-10,-6,1.078
-5,-3,1.079
3,-1,1.08
3,0,1.081
-3,1,1.082
-6,1,1.083
-2,0,1.084
1,-3,1.085
-2,-1,1.086
-6,0,1.087
-4,-1,1.088
1,-5,1.089
3,-6,1.09
4,-3,1.091
4,-2,1.092
7,0,1.093
5,0,1.094
4,0,1.095
0,-1,1.096
-7,-2,1.097
-13,-3,1.098
-16,-1,1.099
-23,0,1.1
-38,1,1.101
-45,2,1.102
-28,0,1.103
8,-1,1.104
43,-3,1.105
64,-5,1.106
72,-4,1.107
72,-3,1.108
62,-3,1.109
45,-2,1.11
32,0,1.111
22,2,1.112
10,-2,1.113
-4,-5,1.114
-10,-3,1.115
-10,-1,1.116
-12,-4,1.117
-14,-3,1.118
-9,0,1.119
0,2,1.12
0,4,1.121
-7,3,1.122
-10,3,1.123
-8,3,1.124
-8,1,1.125
-11,1,1.126
-12,0,1.127
-10,0,1.128
-9,-1,1.129
-9,-1,1.13
-6,-4,1.131
-2,-5,1.132
-2,-1,1.133
-2,1,1.134
0,3,1.135
1,1,1.136
-3,-3,1.137
-3,-2,1.138
3,-1,1.139
13,0,1.14
13,0,1.141
5,0,1.142
1,2,1.143
4,3,1.144
5,3,1.145
1,5,1.146
-4,5,1.147
-2,1,1.148
1,-6,1.149
0,-7,1.15
-1,-6,1.151
0,-3,1.152
2,-2,1.153
1,-2,1.154
-1,-3,1.155
1,-3,1.156
3,-7,1.157
3,-7,1.158
5,-4,1.159
11,0,1.16
14,2,1.161
6,4,1.162
-3,2,1.163
-6,-2,1.164
0,-5,1.165
4,-4,1.166
4,0,1.167
6,2,1.168
12,1,1.169
16,-2,1.17
11,-5,1.171
-2,-6,1.172
-14,-3,1.173
-13,-2,1.174
8,-2,1.175
30,-1,1.176
29,-1,1.177
7,-1,1.178
-6,0,1.179
-2,3,1.18
-3,2,1.181
-22,1,1.182
-34,0,1.183
-8,0,1.184
48,1,1.185
90,3,1.186
93,1,1.187
56,-1,1.188
0,0,1.189
-51,2,1.19
-72,0,1.191
-63,-1,1.192
-43,-2,1.193
-31,-4,1.194
-24,-1,1.195
-18,0,1.196
-8,0,1.197
-1,1,1.198
10,0,1.199
25,-1,1.2
33,0,1.201
26,6,1.202
19,5,1.203
17,0,1.204
12,-3,1.205
-3,-2,1.206
-21,-1,1.207
-27,0,1.208
-19,-1,1.209
-2,0,1.21
11,0,1.211
13,-2,1.212
9,-3,1.213
11,2,1.214
21,2,1.215
32,1,1.216
36,0,1.217
35,-2,1.218
36,0,1.219
31,1,1.22
13,1,1.221
-2,1,1.222
1,2,1.223
12,3,1.224
8,1,1.225
-5,0,1.226
-12,3,1.227
-13,5,1.228
-27,3,1.229
-55,1,1.23
-73,1,1.231
-63,1,1.232
-33,1,1.233
-2,2,1.234
14,2,1.235
13,1,1.236
13,0,1.237
22,-2,1.238
35,0,1.239
33,1,1.24
19,1,1.241
6,1,1.242
4,2,1.243
3,3,1.244
-1,1,1.245
-2,0,1.246
0,3,1.247
-1,5,1.248
-4,3,1.249
-1,1,1.25
8,1,1.251
12,1,1.252
8,1,1.253
2,0,1.254
3,0,1.255
3,-3,1.256
-6,-7,1.257
-14,-6,1.258
-15,-2,1.259
-15,2,1.26
-12,3,1.261
-8,1,1.262
-5,0,1.263
0,-2,1.264
9,0,1.265
17,1,1.266
17,-1,1.267
15,-7,1.268
7,-9,1.269
-2,-7,1.27
-12,-4,1.271
-19,-4,1.272
-12,-4,1.273
5,-6,1.274
46,-6,1.275
64,-4,1.276
45,-4,1.277
24,-1,1.278
25,0,1.279
30,1,1.28
11,1,1.281
-21,3,1.282
-25,4,1.283
0,1,1.284
21,0,1.285
16,1,1.286
0,2,1.287
-9,-1,1.288
-14,-3,1.289
-22,-2,1.29
-23,-1,1.291
3,-3,1.292
45,-3,1.293
68,-2,1.294
43,0,1.295
-11,-2,1.296
-45,-7,1.297
-33,-3,1.298
1,1,1.299
16,1,1.3
-1,0,1.301
-27,1,1.302
-38,5,1.303
-27,4,1.304
-11,1,1.305
-6,2,1.306
-10,5,1.307
-7,2,1.308
0,-2,1.309
4,-5,1.31
2,-2,1.311
5,0,1.312
14,0,1.313
16,-3,1.314
13,-3,1.315
15,-2,1.316
27,-4,1.317
31,-5,1.318
23,-2,1.319
13,1,1.32
6,1,1.321
-4,1,1.322
-17,1,1.323
-16,1,1.324
-6,0,1.325
-3,-1,1.326
-11,-2,1.327
-13,-4,1.328
-4,-4,1.329
2,-4,1.33
0,0,1.331
1,3,1.332
6,2,1.333
2,1,1.334
-11,2,1.335
-25,3,1.336
-29,-3,1.337
-29,-5,1.338
-27,-2,1.339
-18,3,1.34
0,5,1.341
20,4,1.342
39,1,1.343
60,-1,1.344
76,-2,1.345
78,-1,1.346
66,2,1.347
41,3,1.348
14,3,1.349
-3,2,1.35
-5,0,1.351
2,0,1.352
9,1,1.353
5,0,1.354
3,0,1.355
0,-2,1.356
-5,-5,1.357
-10,-1,1.358
-13,0,1.359
-17,-3,1.36
-25,-6,1.361
-31,-4,1.362
-31,-1,1.363
-28,-4,1.364
-17,-6,1.365
-8,-4,1.366
-9,-2,1.367
-8,-4,1.368
-1,-4,1.369
4,-3,1.37
1,-5,1.371
0,-8,1.372
4,-5,1.373
9,0,1.374
4,2,1.375
0,-1,1.376
0,-6,1.377
4,-4,1.378
9,0,1.379
16,2,1.38
17,1,1.381
12,0,1.382
2,-1,1.383
2,-2,1.384
5,0,1.385
1,3,1.386
-6,3,1.387
-10,0,1.388
-6,-2,1.389
-2,-2,1.39
1,1,1.391
8,2,1.392
18,2,1.393
20,2,1.394
15,2,1.395
2,0,1.396
-6,-4,1.397
-5,-6,1.398
0,-3,1.399
-2,0,1.4
-12,1,1.401
-14,1,1.402
14,-1,1.403
68,-4,1.404
113,-4,1.405
117,-5,1.406
70,-3,1.407
0,-2,1.408
-53,-3,1.409
-66,-3,1.41
-53,1,1.411
-44,4,1.412
-44,4,1.413
-41,3,1.414
-32,0,1.415
-30,-3,1.416
-28,-6,1.417
-17,-6,1.418
3,0,1.419
14,5,1.42
12,7,1.421
7,7,1.422
8,4,1.423
1,0,1.424
-11,-1,1.425
-14,0,1.426
-1,4,1.427
16,1,1.428
25,-7,1.429
26,-10,1.43
24,-7,1.431
17,-2,1.432
8,-1,1.433
3,-3,1.434
8,-2,1.435
12,-1,1.436
11,-4,1.437
12,-4,1.438
22,-2,1.439
29,0,1.44
26,0,1.441
20,2,1.442
8,3,1.443
-1,1,1.444
-2,-2,1.445
-3,-1,1.446
-4,0,1.447
-5,0,1.448
-5,-1,1.449
-6,0,1.45
-7,1,1.451
-6,-1,1.452
0,0,1.453
4,2,1.454
3,3,1.455
-5,2,1.456
-11,-2,1.457
-10,-1,1.458
0,1,1.459
10,1,1.46
10,4,1.461
4,7,1.462
0,6,1.463
0,1,1.464
1,-3,1.465
0,-2,1.466
0,-1,1.467
2,-4,1.468
2,-7,1.469
0,-3,1.47
-1,1,1.471
3,0,1.472
5,-4,1.473
3,0,1.474
5,1,1.475
6,3,1.476
2,3,1.477
-4,2,1.478
-3,2,1.479
2,2,1.48
4,3,1.481
1,4,1.482
0,2,1.483
3,1,1.484
1,1,1.485
-4,0,1.486
-5,-2,1.487
0,-5,1.488
0,-3,1.489
-12,-2,1.49
-24,-2,1.491
-24,-1,1.492
-14,-2,1.493
-4,0,1.494
4,1,1.495
16,3,1.496
35,3,1.497
58,2,1.498
73,2,1.499
72,2,1.5
48,3,1.501
17,4,1.502
-7,2,1.503
-20,1,1.504
-30,1,1.505
-36,0,1.506
-30,-2,1.507
-19,-5,1.508
-16,-3,1.509
-18,-2,1.51
-11,-2,1.511
0,-1,1.512
4,-2,1.513
-3,-3,1.514
-5,-4,1.515
-7,-6,1.516
-5,-8,1.517
-4,-4,1.518
-4,0,1.519
-1,3,1.52
8,3,1.521
16,2,1.522
16,2,1.523
15,0,1.524
17,0,1.525
18,0,1.526
15,-1,1.527
11,-2,1.528
6,-2,1.529
1,-3,1.53
0,-3,1.531
-2,0,1.532
0,3,1.533
3,2,1.534
0,0,1.535
-3,2,1.536
-4,1,1.537
-2,0,1.538
5,-1,1.539
14,1,1.54
16,6,1.541
7,9,1.542
-1,2,1.543
-4,-5,1.544
-5,-5,1.545
-7,0,1.546
-8,2,1.547
-5,-1,1.548
-3,-2,1.549
-3,0,1.55
-2,2,1.551
0,0,1.552
2,-2,1.553
0,-3,1.554
-2,-1,1.555
-2,0,1.556
-2,-2,1.557
0,-3,1.558
5,-1,1.559
15,0,1.56
18,3,1.561
12,6,1.562
6,8,1.563
9,4,1.564
13,0,1.565
8,-2,1.566
-1,0,1.567
-3,-1,1.568
-2,-3,1.569
-2,-5,1.57
-3,-3,1.571
0,0,1.572
7,2,1.573
8,1,1.574
5,0,1.575
1,-1,1.576
0,-1,1.577
0,1,1.578
4,1,1.579
10,0,1.58
12,-1,1.581
8,1,1.582
5,1,1.583
4,-2,1.584
2,-5,1.585
0,-8,1.586
0,-7,1.587
2,-6,1.588
4,-4,1.589
3,-2,1.59
2,0,1.591
1,-1,1.592
2,0,1.593
2,0,1.594
0,0,1.595
-2,-3,1.596
-6,-6,1.597
-8,-2,1.598
-6,3,1.599
-5,3,1.6
-5,-1,1.601
-2,0,1.602
9,5,1.603
18,5,1.604
16,0,1.605
14,-1,1.606
11,2,1.607
7,3,1.608
5,0,1.609
1,-5,1.61
-7,-3,1.611
-14,-1,1.612
-14,1,1.613
-15,-1,1.614
-19,-4,1.615
-9,-5,1.616
11,-7,1.617
22,-5,1.618
26,-3,1.619
32,-3,1.62
37,-4,1.621
29,-4,1.622
17,-2,1.623
8,-3,1.624
2,-3,1.625
-7,-2,1.626
-15,1,1.627
-11,4,1.628
-4,7,1.629
-6,6,1.63
-17,2,1.631
-24,-1,1.632
-22,0,1.633
-12,1,1.634
1,0,1.635
14,-1,1.636
20,-2,1.637
16,-2,1.638
13,0,1.639
13,1,1.64
12,1,1.641
11,0,1.642
13,0,1.643
16,0,1.644
10,-3,1.645
-5,-5,1.646
-11,-3,1.647
-3,-1,1.648
1,-1,1.649
-6,-2,1.65
-13,-1,1.651
-5,0,1.652
7,-2,1.653
8,-3,1.654
0,-2,1.655
-4,-3,1.656
-4,-5,1.657
-3,-5,1.658
0,-3,1.659
5,-1,1.66
2,0,1.661
-10,1,1.662
-18,1,1.663
-9,1,1.664
5,2,1.665
7,2,1.666
3,-1,1.667
5,-4,1.668
12,-5,1.669
14,-4,1.67
15,-2,1.671
16,0,1.672
15,6,1.673
8,6,1.674
2,2,1.675
-2,-1,1.676
-2,-2,1.677
-2,-3,1.678
2,0,1.679
5,3,1.68
5,5,1.681
5,7,1.682
6,4,1.683
7,2,1.684
7,2,1.685
6,2,1.686
2,2,1.687
-2,1,1.688
-4,1,1.689
-5,1,1.69
-3,1,1.691
-2,0,1.692
0,1,1.693
2,2,1.694
2,1,1.695
0,0,1.696
-2,-3,1.697
-3,-3,1.698
2,-3,1.699
12,-4,1.7
13,-3,1.701
6,0,1.702
0,1,1.703
2,1,1.704
3,0,1.705
0,0,1.706
-3,2,1.707
-5,0,1.708
-7,-3,1.709
-7,-7,1.71
-1,-5,1.711
6,1,1.712
10,5,1.713
4,2,1.714
0,-3,1.715
-3,-5,1.716
0,-6,1.717
4,-5,1.718
10,-4,1.719
15,0,1.72
12,3,1.721
7,3,1.722
0,-2,1.723
-10,-5,1.724
-26,-5,1.725
-35,-2,1.726
-20,-1,1.727
-5,0,1.728
5,3,1.729
15,3,1.73
22,-1,1.731
26,-4,1.732
18,0,1.733
10,0,1.734
4,-2,1.735
7,-6,1.736
6,-7,1.737
4,-1,1.738
19,0,1.739
40,-3,1.74
45,-1,1.741
25,1,1.742
4,0,1.743
-2,-3,1.744
-1,-3,1.745
-6,0,1.746
-12,-1,1.747
-9,-4,1.748
-4,-4,1.749
-5,0,1.75
-7,4,1.751
-7,5,1.752
-7,9,1.753
-9,6,1.754
-6,0,1.755
-4,-3,1.756
-6,-5,1.757
-6,-4,1.758
2,-3,1.759
8,0,1.76
6,4,1.761
4,3,1.762
2,-4,1.763
2,-7,1.764
7,-3,1.765
11,0,1.766
6,0,1.767
2,-1,1.768
3,2,1.769
3,5,1.77
-1,3,1.771
-4,0,1.772
-4,1,1.773
-3,2,1.774
-11,0,1.775
-17,-5,1.776
-16,-9,1.777
-9,-9,1.778
3,-4,1.779
15,-1,1.78
21,0,1.781
22,0,1.782
21,0,1.783
20,-1,1.784
13,0,1.785
-3,1,1.786
-19,0,1.787
-30,-2,1.788
-30,-2,1.789
-19,-1,1.79
3,-1,1.791
27,-1,1.792
41,-3,1.793
44,-4,1.794
37,-2,1.795
27,-1,1.796
19,-3,1.797
13,-5,1.798
6,-2,1.799
3,0,1.8
3,4,1.801
4,6,1.802
2,2,1.803
-6,-1,1.804
-17,-1,1.805
-17,0,1.806
-8,1,1.807
-7,3,1.808
-17,0,1.809
-23,-3,1.81
-13,-3,1.811
6,-4,1.812
18,-3,1.813
19,-2,1.814
22,-1,1.815
19,-2,1.816
4,-5,1.817
-17,-5,1.818
-27,-1,1.819
-29,2,1.82
-34,5,1.821
-35,7,1.822
-20,6,1.823
4,2,1.824
16,-1,1.825
13,-1,1.826
9,1,1.827
13,0,1.828
17,-5,1.829
19,-7,1.83
25,-1,1.831
35,0,1.832
40,-1,1.833
33,-3,1.834
24,-2,1.835
15,0,1.836
5,-4,1.837
-1,-5,1.838
0,-4,1.839
2,-2,1.84
-3,1,1.841
-7,3,1.842
-5,4,1.843
-4,1,1.844
-5,-3,1.845
-6,-1,1.846
-8,3,1.847
-10,5,1.848
-10,2,1.849
-8,1,1.85
-6,1,1.851
-4,0,1.852
-5,0,1.853
-5,-1,1.854
-6,0,1.855
-11,-3,1.856
-21,-8,1.857
-23,-9,1.858
-8,-5,1.859
15,-3,1.86
27,0,1.861
26,3,1.862
26,2,1.863
29,-1,1.864
24,-1,1.865
13,3,1.866
1,6,1.867
-3,2,1.868
-5,-1,1.869
-5,0,1.87
-3,0,1.871
1,-1,1.872
5,1,1.873
3,1,1.874
-1,1,1.875
-5,-1,1.876
-8,-5,1.877
-5,-3,1.878
5,0,1.879
17,2,1.88
18,4,1.881
8,5,1.882
-4,2,1.883
-14,-1,1.884
-23,0,1.885
-27,2,1.886
-17,0,1.887
3,-3,1.888
21,-3,1.889
25,1,1.89
25,1,1.891
27,-2,1.892
32,-3,1.893
37,-4,1.894
41,-4,1.895
39,-5,1.896
30,-6,1.897
18,-6,1.898
12,-4,1.899
6,-1,1.9
-12,0,1.901
-46,2,1.902
-75,0,1.903
-80,-1,1.904
-63,-1,1.905
-39,0,1.906
-17,0,1.907
-3,0,1.908
6,-2,1.909
11,-4,1.91
14,-2,1.911
17,-1,1.912
14,0,1.913
2,1,1.914
-5,0,1.915
-2,-1,1.916
10,-4,1.917
22,-4,1.918
32,-4,1.919
36,-4,1.92
33,0,1.921
22,3,1.922
10,3,1.923
4,0,1.924
2,-1,1.925
0,1,1.926
-2,2,1.927
-4,-2,1.928
-5,-4,1.929
-4,-2,1.93
0,0,1.931
5,0,1.932
8,0,1.933
-38,0,1.934
-36,0,1.935
-30,-1,1.936
-17,-3,1.937
-3,-2,1.938
11,2,1.939
23,4,1.94
25,4,1.941
26,2,1.942
20,0,1.943
14,0,1.944
7,0,1.945
-1,-2,1.946
-12,-5,1.947
-21,-7,1.948
-20,-5,1.949
-17,0,1.95
-8,1,1.951
0,0,1.952
7,-1,1.953
-45,0,1.954
-42,0,1.955
-35,0,1.956
-20,-3,1.957
-3,-5,1.958
14,-3,1.959
28,-1,1.96
31,0,1.961
32,2,1.962
25,2,1.963
17,2,1.964
9,1,1.965
0,0,1.966
-14,0,1.967
-25,-1,1.968
-24,-1,1.969
-20,-1,1.97
-9,3,1.971
1,5,1.972
9,2,1.973
18,0,1.974
33,0,1.975
49,1,1.976
55,-1,1.977
41,-3,1.978
18,-3,1.979
4,-3,1.98
6,-3,1.981
13,-1,1.982
8,0,1.983
-3,-1,1.984
-10,-3,1.985
-10,-3,1.986
-9,-1,1.987
-13,0,1.988
-19,-1,1.989
-22,-3,1.99
-18,-3,1.991
-9,-3,1.992
1,0,1.993
5,0,1.994
9,-3,1.995
12,-4,1.996
12,-7,1.997
13,-5,1.998
13,-1,1.999
11,0,2.0
5,1,2.001
0,2,2.002
-1,1,2.003
-3,-4,2.004
0,-7,2.005
1,-3,2.006
0,2,2.007
-3,3,2.008
-4,1,2.009
-4,0,2.01
-1,1,2.011
1,2,2.012
2,1,2.013
1,-3,2.014
-6,-5,2.015
-6,-5,2.016
-1,-4,2.017
3,-1,2.018
7,2,2.019
16,2,2.02
20,4,2.021
15,7,2.022
2,6,2.023
-6,1,2.024
-9,-3,2.025
-9,-3,2.026
-4,-1,2.027
1,-1,2.028
1,-4,2.029
0,-4,2.03
6,-3,2.031
16,-2,2.032
18,0,2.033
10,1,2.034
6,4,2.035
8,5,2.036
2,0,2.037
-11,-2,2.038
-13,0,2.039
0,4,2.04
7,5,2.041
0,4,2.042
-3,2,2.043
6,2,2.044
14,2,2.045
6,-1,2.046
-7,-3,2.047
-14,-3,2.048
-17,-1,2.049
-14,0,2.05
3,-2,2.051
23,-3,2.052
27,0,2.053
11,-2,2.054
0,-2,2.055
3,-3,2.056
9,-6,2.057
2,-4,2.058
-3,-1,2.059
0,0,2.06
-2,3,2.061
-16,3,2.062
-23,1,2.063
-13,-4,2.064
4,-6,2.065
12,-6,2.066
13,-6,2.067
17,-8,2.068
19,-9,2.069
15,-4,2.07
12,0,2.071
16,-1,2.072
20,-1,2.073
14,-3,2.074
2,-1,2.075
-3,-2,2.076
-1,-5,2.077
2,-3,2.078
7,0,2.079
15,-1,2.08
12,-1,2.081
2,3,2.082
-6,5,2.083
-4,0,2.084
-1,-4,2.085
-1,-4,2.086
-4,0,2.087
-3,-1,2.088
2,-2,2.089
3,0,2.09
0,0,2.091
-2,-1,2.092
-2,-2,2.093
-2,0,2.094
0,2,2.095
-3,2,2.096
-6,-2,2.097
-7,-3,2.098
1,-2,2.099
14,-1,2.1
14,2,2.101
3,4,2.102
-1,1,2.103
3,-3,2.104
6,-3,2.105
1,2,2.106
-3,3,2.107
-3,-1,2.108
0,-5,2.109
-2,-2,2.11
-3,1,2.111
-2,0,2.112
1,0,2.113
4,-1,2.114
9,-2,2.115
13,-4,2.116
7,-7,2.117
-5,-3,2.118
-11,-2,2.119
-6,-3,2.12
-4,-2,2.121
-10,0,2.122
-13,-1,2.123
0,-6,2.124
24,-7,2.125
37,-1,2.126
31,3,2.127
14,1,2.128
-3,-1,2.129
-15,-2,2.13
-20,-2,2.131
-20,-4,2.132
-16,-2,2.133
-13,1,2.134
-13,3,2.135
-8,2,2.136
4,0,2.137
19,0,2.138
27,-3,2.139
31,-3,2.14
31,1,2.141
26,7,2.142
17,8,2.143
9,2,2.144
1,0,2.145
-3,0,2.146
-7,-1,2.147
-9,-3,2.148
-9,-3,2.149
-10,-2,2.15
-9,0,2.151
-4,0,2.152
3,3,2.153
3,4,2.154
3,1,2.155
4,-4,2.156
3,-10,2.157
2,-11,2.158
3,-7,2.159
9,-2,2.16
31,2,2.161
46,5,2.162
32,2,2.163
22,-2,2.164
22,-4,2.165
16,-4,2.166
-2,-2,2.167
-18,0,2.168
-22,3,2.169
-24,5,2.17
-18,4,2.171
-14,0,2.172
-14,-1,2.173
-9,0,2.174
-3,2,2.175
-6,4,2.176
-13,2,2.177
-12,-2,2.178
1,-5,2.179
10,-3,2.18
8,2,2.181
1,4,2.182
1,1,2.183
3,-3,2.184
2,-3,2.185
-1,-4,2.186
0,-5,2.187
2,-7,2.188
4,-7,2.189
8,-5,2.19
17,-2,2.191
24,0,2.192
20,3,2.193
2,0,2.194
-12,-1,2.195
-14,-3,2.196
-8,-4,2.197
-12,-5,2.198
-28,-3,2.199
-43,-1,2.2
-41,4,2.201
-27,8,2.202
-10,4,2.203
6,1,2.204
26,1,2.205
50,0,2.206
73,0,2.207
80,0,2.208
71,0,2.209
51,0,2.21
28,-1,2.211
9,-2,2.212
-1,0,2.213
-4,1,2.214
-2,1,2.215
-4,0,2.216
-11,-4,2.217
-14,-5,2.218
-7,-4,2.219
0,-2,2.22
-1,2,2.221
-6,5,2.222
-8,5,2.223
-9,1,2.224
-11,-3,2.225
-12,-2,2.226
-10,0,2.227
-7,0,2.228
-8,-1,2.229
-10,-3,2.23
-11,-4,2.231
-9,-3,2.232
-5,1,2.233
-3,2,2.234
2,-1,2.235
6,-3,2.236
2,-7,2.237
0,-5,2.238
5,-2,2.239
10,2,2.24
10,5,2.241
9,5,2.242
9,2,2.243
6,-2,2.244
-6,-1,2.245
-15,0,2.246
-15,0,2.247
-13,-3,2.248
-2,-5,2.249
6,-2,2.25
10,2,2.251
13,0,2.252
16,-2,2.253
19,-4,2.254
18,-2,2.255
10,-1,2.256
1,-3,2.257
-1,-4,2.258
4,-2,2.259
12,2,2.26
12,4,2.261
4,5,2.262
-3,3,2.263
-1,0,2.264
6,-1,2.265
16,-2,2.266
20,-2,2.267
19,-3,2.268
11,-1,2.269
0,2,2.27
-11,3,2.271
-19,1,2.272
-23,2,2.273
-21,1,2.274
-14,0,2.275
-8,-1,2.276
-10,-3,2.277
-18,-1,2.278
-21,-1,2.279
-14,-1,2.28
-4,0,2.281
5,2,2.282
15,1,2.283
23,-1,2.284
27,-2,2.285
23,0,2.286
20,0,2.287
22,-4,2.288
25,-7,2.289
27,-4,2.29
28,0,2.291
26,0,2.292
18,0,2.293
-1,-2,2.294
-24,-1,2.295
-43,-2,2.296
-46,-8,2.297
-27,-8,2.298
3,-5,2.299
22,-3,2.3
18,-2,2.301
3,-2,2.302
-1,-1,2.303
6,-3,2.304
6,-5,2.305
-3,-3,2.306
-6,0,2.307
2,2,2.308
11,3,2.309
9,4,2.31
3,3,2.311
2,1,2.312
1,0,2.313
-3,-2,2.314
-9,-3,2.315
-11,0,2.316
-11,0,2.317
-3,1,2.318
13,0,2.319
27,1,2.32
27,6,2.321
19,7,2.322
13,2,2.323
13,-1,2.324
7,0,2.325
-3,1,2.326
-5,-3,2.327
-2,-8,2.328
0,-5,2.329
0,0,2.33
4,0,2.331
11,-1,2.332
13,-1,2.333
5,0,2.334
0,0,2.335
-5,-2,2.336
-8,-5,2.337
-9,-5,2.338
-5,-5,2.339
-1,-3,2.34
0,0,2.341
-4,0,2.342
-9,-1,2.343
-9,-3,2.344
-8,-2,2.345
-4,-2,2.346
8,-2,2.347
27,-3,2.348
44,-2,2.349
45,0,2.35
30,3,2.351
7,2,2.352
-12,2,2.353
-24,1,2.354
-27,0,2.355
-24,0,2.356
-17,0,2.357
-9,0,2.358
-3,-2,2.359
2,-2,2.36
6,0,2.361
7,3,2.362
4,5,2.363
3,2,2.364
1,-2,2.365
-1,-4,2.366
-3,-3,2.367
-2,0,2.368
0,0,2.369
-1,-1,2.37
-2,-2,2.371
2,-1,2.372
13,3,2.373
18,1,2.374
17,-2,2.375
8,-4,2.376
3,-5,2.377
6,-4,2.378
12,-2,2.379
9,1,2.38
-2,3,2.381
-14,1,2.382
-20,-2,2.383
-24,-4,2.384
-30,-5,2.385
-35,-3,2.386
-29,-3,2.387
-14,-3,2.388
0,-2,2.389
9,1,2.39
19,3,2.391
40,2,2.392
61,0,2.393
61,-3,2.394
42,0,2.395
18,3,2.396
9,-1,2.397
8,-5,2.398
6,-5,2.399
4,-2,2.4
5,1,2.401
4,3,2.402
-2,0,2.403
-9,-1,2.404
-12,0,2.405
-9,1,2.406
-5,2,2.407
-5,2,2.408
-6,2,2.409
-7,1,2.41
-6,0,2.411
-2,0,2.412
6,2,2.413
7,1,2.414
0,1,2.415
-8,-1,2.416
-9,-4,2.417
-2,-4,2.418
5,-4,2.419
6,-2,2.42
0,1,2.421
-12,4,2.422
-24,3,2.423
-26,0,2.424
-15,0,2.425
1,2,2.426
10,0,2.427
16,-4,2.428
29,-5,2.429
49,0,2.43
59,1,2.431
46,-1,2.432
20,-1,2.433
-3,-1,2.434
-9,1,2.435
-8,3,2.436
-7,-1,2.437
-7,-3,2.438
-2,-1,2.439
6,0,2.44
7,0,2.441
-1,-1,2.442
-6,-1,2.443
-5,-2,2.444
-3,-2,2.445
-3,-2,2.446
-2,0,2.447
0,0,2.448
0,-2,2.449
-3,-5,2.45
-4,-3,2.451
0,-2,2.452
1,-2,2.453
-4,-2,2.454
-9,-5,2.455
-7,-4,2.456
-4,-2,2.457
-2,0,2.458
-1,-1,2.459
3,-3,2.46
8,0,2.461
17,3,2.462
30,3,2.463
42,-1,2.464
33,-4,2.465
4,-5,2.466
-22,-4,2.467
-34,-4,2.468
-36,-6,2.469
-36,-5,2.47
-27,0,2.471
-8,3,2.472
9,6,2.473
10,3,2.474
2,0,2.475
-2,-1,2.476
6,-3,2.477
14,-2,2.478
24,0,2.479
31,0,2.48
29,3,2.481
25,5,2.482
11,4,2.483
2,-2,2.484
7,-4,2.485
13,0,2.486
18,4,2.487
21,4,2.488
15,1,2.489
8,0,2.49
2,4,2.491
-2,4,2.492
-3,0,2.493
-2,-5,2.494
-1,-3,2.495
-5,-1,2.496
-11,-5,2.497
-11,-7,2.498
-3,-6,2.499
6,-2,2.5
4,0,2.501
-2,-2,2.502
-4,-2,2.503
-3,-1,2.504
-8,0,2.505
-17,0,2.506
-20,-1,2.507
-15,0,2.508
-4,0,2.509
5,0,2.51
14,0,2.511
18,1,2.512
14,1,2.513
1,-2,2.514
-3,-4,2.515
8,-2,2.516
27,-4,2.517
33,-4,2.518
21,-1,2.519
8,5,2.52
3,4,2.521
1,-1,2.522
-8,-1,2.523
-20,2,2.524
-23,5,2.525
-21,3,2.526
-14,0,2.527
-5,0,2.528
0,2,2.529
-4,2,2.53
-8,-1,2.531
-2,-3,2.532
12,-1,2.533
20,-1,2.534
22,0,2.535
15,0,2.536
0,-6,2.537
-28,-9,2.538
-50,-7,2.539
-58,-2,2.54
-58,3,2.541
-56,4,2.542
-36,2,2.543
13,0,2.544
75,0,2.545
118,-1,2.546
136,-4,2.547
135,-6,2.548
120,-4,2.549
93,1,2.55
67,8,2.551
42,10,2.552
6,7,2.553
-50,3,2.554
-89,-1,2.555
-90,-3,2.556
-74,-5,2.557
-71,-3,2.558
-69,2,2.559
-47,2,2.56
-21,-2,2.561
-16,-3,2.562
-21,1,2.563
-12,3,2.564
0,4,2.565
-4,3,2.566
-17,-1,2.567
-11,-17,2.568
13,-34,2.569
26,-32,2.57
19,-11,2.571
5,4,2.572
6,3,2.573
20,-9,2.574
40,-16,2.575
46,-14,2.576
36,-14,2.577
20,-14,2.578
14,-15,2.579
7,-16,2.58
-21,-2,2.581
-72,38,2.582
-115,85,2.583
-127,85,2.584
-102,23,2.585
-47,-51,2.586
23,-70,2.587
79,-26,2.588
115,22,2.589
165,20,2.59
232,-26,2.591
258,-69,2.592
205,-74,2.593
97,-41,2.594
2,21,2.595
-69,76,2.596
-132,85,2.597
-160,45,2.598
-119,-2,2.599
-53,-14,2.6
-31,-5,2.601
-49,-6,2.602
-46,-15,2.603
-13,-2,2.604
2,36,2.605
-16,51,2.606
-37,23,2.607
-40,-10,2.608
-21,8,2.609
21,76,2.61
63,113,2.611
55,58,2.612
2,-41,2.613
-44,-95,2.614
-42,-53,2.615
-26,27,2.616
-27,46,2.617
-21,-6,2.618
7,-71,2.619
20,-87,2.62
-3,-46,2.621
-11,2,2.622
26,-8,2.623
60,-88,2.624
58,-160,2.625
39,-140,2.626
30,-42,2.627
6,50,2.628
-33,85,2.629
-46,87,2.63
-19,75,2.631
4,40,2.632
3,-6,2.633
0,-34,2.634
11,-19,2.635
12,28,2.636
1,76,2.637
7,103,2.638
33,94,2.639
48,74,2.64
34,75,2.641
10,84,2.642
-17,65,2.643
-50,34,2.644
-68,33,2.645
-45,34,2.646
5,-36,2.647
36,-150,2.648
28,-188,2.649
8,-113,2.65
7,-42,2.651
27,-65,2.652
50,-115,2.653
51,-105,2.654
26,-41,2.655
-8,-1,2.656
-7,4,2.657
33,9,2.658
64,10,2.659
38,2,2.66
-30,27,2.661
-76,93,2.662
-71,105,2.663
-51,2,2.664
-51,-111,2.665
-54,-99,2.666
-26,12,2.667
27,94,2.668
59,109,2.669
46,105,2.67
3,80,2.671
-32,15,2.672
-27,-35,2.673
13,-29,2.674
60,-28,2.675
73,-111,2.676
47,-216,2.677
7,-211,2.678
-25,-102,2.679
-39,4,2.68
-41,66,2.681
-45,110,2.682
-51,123,2.683
-27,84,2.684
49,36,2.685
143,32,2.686
189,38,2.687
163,11,2.688
94,-12,2.689
22,17,2.69
-45,69,2.691
-95,84,2.692
-102,75,2.693
-71,84,2.694
-31,103,2.695
3,98,2.696
38,68,2.697
61,47,2.698
45,32,2.699
4,-1,2.7
-21,-55,2.701
-24,-114,2.702
-25,-168,2.703
-35,-202,2.704
-39,-196,2.705
-34,-144,2.706
-33,-64,2.707
-35,3,2.708
-33,20,2.709
-40,-29,2.71
-61,-82,2.711
-75,-53,2.712
-63,40,2.713
-51,92,2.714
-73,60,2.715
-109,31,2.716
-88,63,2.717
12,86,2.718
130,32,2.719
182,-25,2.72
171,-11,2.721
161,12,2.722
171,-40,2.723
143,-107,2.724
53,-84,2.725
-26,14,2.726
-25,91,2.727
3,112,2.728
-27,114,2.729
-89,110,2.73
-77,79,2.731
11,22,2.732
71,-27,2.733
46,-62,2.734
-11,-76,2.735
-52,-74,2.736
-74,-63,2.737
-63,-35,2.738
12,11,2.739
91,69,2.74
63,107,2.741
-58,104,2.742
-129,81,2.743
-82,68,2.744
-1,57,2.745
38,32,2.746
65,4,2.747
105,-6,2.748
99,-24,2.749
13,-95,2.75
-98,-206,2.751
-169,-273,2.752
-203,-234,2.753
-224,-103,2.754
-190,28,2.755
-74,78,2.756
75,47,2.757
202,5,2.758
304,-8,2.759
375,-14,2.76
354,-29,2.761
199,-25,2.762
-38,21,2.763
-253,77,2.764
-382,87,2.765
-406,51,2.766
-330,20,2.767
-175,29,2.768
12,57,2.769
178,62,2.77
285,30,2.771
313,-12,2.772
270,-34,2.773
165,-24,2.774
41,-2,2.775
-49,9,2.776
-46,-1,2.777
48,-6,2.778
143,7,2.779
135,26,2.78
42,31,2.781
-27,17,2.782
-27,-9,2.783
-22,-49,2.784
-78,-101,2.785
-187,-128,2.786
-287,-95,2.787
-293,-8,2.788
-159,80,2.789
55,99,2.79
194,33,2.791
191,-44,2.792
157,-37,2.793
191,53,2.794
233,115,2.795
154,69,2.796
-7,-3,2.797
-99,15,2.798
-81,92,2.799
-57,111,2.8
-75,57,2.801
-86,2,2.802
-66,-54,2.803
-58,-189,2.804
-73,-370,2.805
-69,-423,2.806
-39,-224,2.807
-21,129,2.808
-20,392,2.809
-11,392,2.81
4,174,2.811
1,-46,2.812
-11,-107,2.813
-9,-48,2.814
1,-14,2.815
-10,-66,2.816
-46,-117,2.817
-62,-84,2.818
-31,-5,2.819
34,46,2.82
95,67,2.821
125,92,2.822
127,105,2.823
106,54,2.824
57,-67,2.825
-18,-176,2.826
-86,-157,2.827
-94,10,2.828
-42,184,2.829
9,209,2.83
2,101,2.831
-49,22,2.832
-81,51,2.833
-60,112,2.834
-7,108,2.835
34,71,2.836
47,60,2.837
43,62,2.838
35,26,2.839
21,-47,2.84
-1,-132,2.841
-17,-220,2.842
-9,-284,2.843
17,-309,2.844
36,-309,2.845
26,-260,2.846
-11,-60,2.847
-60,249,2.848
-100,395,2.849
-128,211,2.85
-147,-46,2.851
-156,-17,2.852
-143,231,2.853
-119,370,2.854
-119,267,2.855
-155,113,2.856
-126,51,2.857
64,7,2.858
335,-73,2.859
492,-109,2.86
481,-73,2.861
445,-47,2.862
471,-63,2.863
430,-64,2.864
209,-43,2.865
-72,-60,2.866
-203,-134,2.867
-159,-249,2.868
-80,-383,2.869
-54,-448,2.87
-56,-325,2.871
-61,-44,2.872
-77,181,2.873
-102,228,2.874
-103,147,2.875
-73,50,2.876
-45,-13,2.877
-52,14,2.878
-92,170,2.879
-136,326,2.88
-137,284,2.881
-84,66,2.882
-15,-95,2.883
20,-96,2.884
14,-43,2.885
-2,0,2.886
-7,80,2.887
-20,161,2.888
-51,133,2.889
-84,26,2.89
-94,-12,2.891
-73,27,2.892
-40,24,2.893
-12,-54,2.894
-7,-136,2.895
-36,-226,2.896
-63,-382,2.897
-29,-493,2.898
68,-375,2.899
148,-72,2.9
154,140,2.901
132,109,2.902
152,-26,2.903
175,-50,2.904
104,102,2.905
-43,342,2.906
-141,514,2.907
-129,497,2.908
-72,323,2.909
-42,157,2.91
-31,102,2.911
-14,86,2.912
1,43,2.913
-7,-2,2.914
-35,-9,2.915
-75,-27,2.916
-119,-94,2.917
-163,-141,2.918
-195,-130,2.919
-195,-118,2.92
-133,-139,2.921
0,-133,2.922
129,-77,2.923
142,-47,2.924
42,-75,2.925
3,-93,2.926
140,-63,2.927
330,-37,2.928
386,-47,2.929
331,-48,2.93
331,-20,2.931
377,-6,2.932
317,-22,2.933
107,-36,2.934
-71,-18,2.935
-96,-2,2.936
-56,-8,2.937
-58,-7,2.938
-75,11,2.939
-69,18,2.94
-93,3,2.941
-163,-8,2.942
-197,-5,2.943
-152,-5,2.944
-94,-8,2.945
-74,3,2.946
-51,27,2.947
3,36,2.948
44,23,2.949
39,-15,2.95
23,-97,2.951
19,-208,2.952
-12,-255,2.953
-97,-144,2.954
-181,82,2.955
-202,234,2.956
-173,190,2.957
-149,50,2.958
-146,-30,2.959
-126,-28,2.96
-67,-28,2.961
6,-51,2.962
62,-37,2.963
98,16,2.964
119,20,2.965
120,-75,2.966
85,-187,2.967
37,-195,2.968
16,-81,2.969
31,88,2.97
53,264,2.971
56,431,2.972
51,531,2.973
51,452,2.974
48,191,2.975
27,-98,2.976
0,-470,2.977
-8,-706,2.978
0,-532,2.979
9,-243,2.98
10,392,2.981
7,824,2.982
4,645,2.983
-2,445,2.984
-15,183,2.985
-32,-61,2.986
-42,-254,2.987
-36,-423,2.988
-20,-515,2.989
3,-512,2.99
40,-221,2.991
93,79,2.992
137,408,2.993
139,652,2.994
98,490,2.995
51,197,2.996
38,-73,2.997
58,-294,2.998
72,-357,2.999
15,-153,3.0
-153,104,3.001
-360,100,3.002
-435,-63,3.003
-267,-14,3.004
27,245,3.005
209,369,3.006
221,284,3.007
218,243,3.008
261,295,3.009
202,221,3.01
-21,18,3.011
-193,-75,3.012
-129,-44,3.013
57,-134,3.014
125,-351,3.015
74,-458,3.016
67,-385,3.017
96,-262,3.018
31,-182,3.019
-86,-152,3.02
-106,-189,3.021
-50,-248,3.022
-55,-181,3.023
-117,37,3.024
-125,213,3.025
-84,200,3.026
-74,99,3.027
-75,48,3.028
-8,15,3.029
94,-66,3.03
149,-153,3.031
159,-201,3.032
164,-285,3.033
133,-460,3.034
43,-556,3.035
-45,-358,3.036
-55,71,3.037
-23,414,3.038
-12,471,3.039
-23,384,3.04
-24,366,3.041
-25,386,3.042
-37,280,3.043
-33,84,3.044
-5,-11,3.045
8,23,3.046
-18,41,3.047
-64,-10,3.048
-92,-20,3.049
-78,46,3.05
-15,82,3.051
69,40,3.052
121,5,3.053
114,19,3.054
81,29,3.055
56,-1,3.056
33,-31,3.057
-6,-27,3.058
-35,-23,3.059
-29,-39,3.06
-3,-47,3.061
19,-41,3.062
25,-45,3.063
4,-57,3.064
-43,-56,3.065
-93,-48,3.066
-122,-47,3.067
-132,-50,3.068
-141,-40,3.069
-129,-30,3.07
-61,-34,3.071
35,-36,3.072
94,-24,3.073
72,-11,3.074
2,-13,3.075
-44,-18,3.076
-17,-14,3.077
59,-8,3.078
111,-7,3.079
94,-7,3.08
44,0,3.081
22,5,3.082
27,1,3.083
9,0,3.084
-57,4,3.085
-128,5,3.086
-150,0,3.087
-111,-2,3.088
-31,3,3.089
76,9,3.09
200,10,3.091
295,9,3.092
292,9,3.093
147,5,3.094
-61,5,3.095
-192,8,3.096
-166,9,3.097
-52,7,3.098
43,4,3.099
93,7,3.1
138,18,3.101
164,27,3.102
120,24,3.103
18,13,3.104
-58,3,3.105
-67,0,3.106
-53,2,3.107
-60,3,3.108
-68,0,3.109
-37,-7,3.11
5,-23,3.111
13,-44,3.112
-8,-56,3.113
-28,-46,3.114
-32,-14,3.115
-34,20,3.116
-24,37,3.117
8,43,3.118
34,47,3.119
5,45,3.12
-57,34,3.121
-95,20,3.122
-93,12,3.123
-91,8,3.124
-88,-1,3.125
-36,-8,3.126
61,-9,3.127
127,-6,3.128
110,-8,3.129
54,-10,3.13
20,-9,3.131
4,-7,3.132
-19,-5,3.133
-48,-4,3.134
-37,-2,3.135
8,-2,3.136
38,-6,3.137
31,-7,3.138
15,0,3.139
18,7,3.14
26,14,3.141
19,19,3.142
7,17,3.143
4,10,3.144
6,-11,3.145
2,-25,3.146
-3,-16,3.147
0,-9,3.148
4,-13,3.149
-3,-14,3.15
-16,-8,3.151
-22,-3,3.152
-18,0,3.153
-16,1,3.154
-11,1,3.155
0,6,3.156
30,2,3.157
53,-2,3.158
53,-2,3.159
49,-1,3.16
31,-3,3.161
18,-4,3.162
20,-6,3.163
18,-6,3.164
4,-6,3.165
-5,-4,3.166
0,0,3.167
1,4,3.168
-12,5,3.169
-21,7,3.17
-9,9,3.171
-2,9,3.172
-15,8,3.173
-33,6,3.174
-46,4,3.175
-47,3,3.176
-50,1,3.177
-57,0,3.178
-24,-6,3.179
69,-20,3.18
146,-30,3.181
99,-27,3.182
-33,-17,3.183
-72,-18,3.184
50,-43,3.185
174,-77,3.186
125,-82,3.187
-27,-19,3.188
-95,88,3.189
-45,155,3.19
-3,129,3.191
-15,54,3.192
-14,17,3.193
41,26,3.194
64,30,3.195
19,9,3.196
-38,-6,3.197
-63,4,3.198
-67,9,3.199
-68,-9,3.2
-62,-20,3.201
-37,-10,3.202
0,-3,3.203
34,-10,3.204
44,-17,3.205
27,-15,3.206
8,-30,3.207
16,-70,3.208
34,-91,3.209
18,-63,3.21
-28,-17,3.211
-56,-13,3.212
-34,-47,3.213
2,-55,3.214
15,23,3.215
0,132,3.216
-3,149,3.217
7,62,3.218
15,-23,3.219
6,-25,3.22
-5,5,3.221
-15,-5,3.222
-21,-34,3.223
-18,-21,3.224
1,16,3.225
26,20,3.226
43,-8,3.227
54,-19,3.228
57,-6,3.229
49,0,3.23
28,-6,3.231
7,-5,3.232
-3,5,3.233
-4,7,3.234
-2,3,3.235
-3,-1,3.236
-4,-2,3.237
-4,-4,3.238
-1,-4,3.239
3,-2,3.24
3,0,3.241
-4,1,3.242
-9,-1,3.243
-6,-4,3.244
-5,-6,3.245
-16,-8,3.246
-34,-5,3.247
-51,-2,3.248
-60,-6,3.249
-51,-8,3.25
-23,-6,3.251
20,-4,3.252
55,-4,3.253
67,-4,3.254
48,-6,3.255
-6,-6,3.256
-77,-6,3.257
-101,0,3.258
-25,12,3.259
106,24,3.26
188,22,3.261
185,4,3.262
139,-16,3.263
56,-33,3.264
-93,-41,3.265
-236,-37,3.266
-215,-22,3.267
-36,-5,3.268
77,5,3.269
-12,9,3.27
-162,11,3.271
-166,10,3.272
-49,8,3.273
40,7,3.274
68,10,3.275
106,10,3.276
178,5,3.277
224,4,3.278
192,5,3.279
133,5,3.28
-7,0,3.281
-103,-1,3.282
-64,2,3.283
-23,2,3.284
23,-1,3.285
53,-1,3.286
30,2,3.287
8,3,3.288
-11,0,3.289
-30,-4,3.29
-47,-1,3.291
-59,1,3.292
-57,4,3.293
-61,5,3.294
-81,8,3.295
-66,7,3.296
-37,-2,3.297
-34,-6,3.298
-56,0,3.299
-71,8,3.3
-59,9,3.301
-11,6,3.302
58,3,3.303
107,0,3.304
107,-5,3.305
77,-5,3.306
50,2,3.307
31,6,3.308
6,3,3.309
-12,-3,3.31
-3,-3,3.311
18,2,3.312
16,7,3.313
-10,3,3.314
-21,-1,3.315
-10,-2,3.316
-6,-3,3.317
-17,-4,3.318
-18,-4,3.319
-3,-1,3.32
3,5,3.321
-6,6,3.322
-13,3,3.323
-5,0,3.324
-2,0,3.325
-7,-1,3.326
-12,-2,3.327
-5,-6,3.328
1,-8,3.329
0,-7,3.33
-2,-3,3.331
-1,-2,3.332
-2,-2,3.333
-6,-5,3.334
-6,-3,3.335
1,-3,3.336
9,-7,3.337
21,-12,3.338
43,-10,3.339
69,-4,3.34
77,1,3.341
50,4,3.342
2,3,3.343
-34,2,3.344
-40,1,3.345
-31,0,3.346
-38,-1,3.347
-59,0,3.348
-66,1,3.349
-42,3,3.35
-14,3,3.351
-1,3,3.352
4,3,3.353
13,0,3.354
18,-1,3.355
4,-3,3.356
-14,-1,3.357
-10,0,3.358
25,-2,3.359
69,-4,3.36
86,-1,3.361
60,1,3.362
19,0,3.363
4,-2,3.364
17,-2,3.365
13,0,3.366
-32,8,3.367
-70,14,3.368
-49,18,3.369
5,19,3.37
32,12,3.371
20,2,3.372
12,-15,3.373
12,-34,3.374
-4,-48,3.375
-36,-52,3.376
-28,-42,3.377
42,-21,3.378
110,-1,3.379
101,12,3.38
23,16,3.381
-38,13,3.382
-35,9,3.383
-6,7,3.384
4,7,3.385
5,6,3.386
33,1,3.387
70,0,3.388
65,4,3.389
17,9,3.39
-19,8,3.391
-21,4,3.392
-17,3,3.393
-29,2,3.394
-38,2,3.395
-28,1,3.396
-16,-3,3.397
-20,-6,3.398
-20,-5,3.399
-4,0,3.4
6,4,3.401
-4,5,3.402
-19,3,3.403
-19,2,3.404
-10,0,3.405
2,-2,3.406
29,-3,3.407
55,-1,3.408
40,0,3.409
-17,-1,3.41
-64,-2,3.411
-65,-3,3.412
-44,-2,3.413
-32,-3,3.414
-29,-3,3.415
-23,-2,3.416
-19,-6,3.417
-15,-8,3.418
6,-4,3.419
40,-1,3.42
54,-2,3.421
43,-2,3.422
36,0,3.423
37,1,3.424
24,1,3.425
-5,1,3.426
-13,2,3.427
10,2,3.428
22,-2,3.429
9,-5,3.43
-2,-5,3.431
5,-4,3.432
13,-3,3.433
1,-2,3.434
-5,-2,3.435
2,1,3.436
8,0,3.437
1,-3,3.438
1,-4,3.439
16,-2,3.44
20,3,3.441
5,4,3.442
-7,3,3.443
-4,1,3.444
0,0,3.445
-8,-1,3.446
-15,0,3.447
-11,2,3.448
-5,4,3.449
-3,3,3.45
3,1,3.451
14,-2,3.452
13,-2,3.453
20,-4,3.454
18,-1,3.455
7,-1,3.456
-31,-5,3.457
-61,-7,3.458
-64,-4,3.459
-59,0,3.46
-34,2,3.461
-13,1,3.462
-4,0,3.463
2,0,3.464
-9,0,3.465
-14,-1,3.466
-2,-3,3.467
8,-4,3.468
7,-1,3.469
6,0,3.47
5,-1,3.471
7,-1,3.472
24,4,3.473
26,7,3.474
24,4,3.475
10,-3,3.476
-35,-8,3.477
-71,-8,3.478
-74,-5,3.479
-69,-4,3.48
-39,-2,3.481
-14,1,3.482
-2,1,3.483
4,-1,3.484
-9,1,3.485
-15,8,3.486
0,13,3.487
12,14,3.488
10,16,3.489
9,21,3.49
8,18,3.491
11,-3,3.492
30,-34,3.493
48,-62,3.494
43,-66,3.495
9,-48,3.496
-30,-21,3.497
-43,6,3.498
-29,23,3.499
-18,23,3.5
-19,18,3.501
-10,17,3.502
15,20,3.503
14,18,3.504
-31,10,3.505
-79,7,3.506
-77,7,3.507
-36,4,3.508
-10,0,3.509
-2,-1,3.51
14,3,3.511
36,5,3.512
41,3,3.513
20,0,3.514
4,-1,3.515
4,-3,3.516
6,-8,3.517
6,-7,3.518
14,-4,3.519
22,0,3.52
7,0,3.521
-32,1,3.522
-57,4,3.523
-40,3,3.524
5,-2,3.525
45,-4,3.526
65,-4,3.527
79,-3,3.528
95,-4,3.529
98,-7,3.53
69,-5,3.531
26,-3,3.532
2,0,3.533
-4,1,3.534
-8,2,3.535
-12,3,3.536
1,0,3.537
25,-2,3.538
29,2,3.539
10,5,3.54
-8,7,3.541
-15,8,3.542
-20,4,3.543
-25,-1,3.544
-21,-9,3.545
-6,-15,3.546
-2,-11,3.547
-16,-7,3.548
-27,-7,3.549
-22,-6,3.55
-11,-4,3.551
-7,-3,3.552
-7,-3,3.553
-14,-4,3.554
-27,-6,3.555
-44,-8,3.556
-48,-11,3.557
-32,-10,3.558
-1,-6,3.559
30,-3,3.56
49,0,3.561
50,3,3.562
42,5,3.563
31,0,3.564
14,-5,3.565
-12,-6,3.566
-29,1,3.567
-20,4,3.568
5,0,3.569
21,-3,3.57
23,-1,3.571
41,2,3.572
70,5,3.573
67,3,3.574
17,0,3.575
-23,-4,3.576
-32,-7,3.577
-35,-3,3.578
-19,3,3.579
-10,6,3.58
-28,5,3.581
-35,3,3.582
-4,0,3.583
24,-4,3.584
44,-4,3.585
51,0,3.586
21,3,3.587
-12,0,3.588
-52,-4,3.589
-78,-1,3.59
-58,3,3.591
-36,2,3.592
-11,0,3.593
22,-1,3.594
78,1,3.595
96,0,3.596
45,-5,3.597
-23,-6,3.598
-38,-2,3.599
-12,1,3.6
-9,3,3.601
-35,2,3.602
-48,-2,3.603
-22,-6,3.604
7,-4,3.605
13,3,3.606
3,7,3.607
-1,6,3.608
-2,5,3.609
-3,8,3.61
1,9,3.611
11,5,3.612
16,1,3.613
15,-1,3.614
16,-5,3.615
20,-8,3.616
20,-12,3.617
15,-7,3.618
14,-1,3.619
18,0,3.62
16,-2,3.621
0,0,3.622
-22,1,3.623
-39,-1,3.624
-46,-4,3.625
-35,-5,3.626
1,-5,3.627
46,-6,3.628
70,-4,3.629
61,5,3.63
37,11,3.631
23,10,3.632
26,4,3.633
36,-1,3.634
44,-1,3.635
35,-1,3.636
-4,-5,3.637
-65,-5,3.638
-115,-2,3.639
-129,1,3.64
-110,3,3.641
-64,3,3.642
15,1,3.643
122,-2,3.644
205,-2,3.645
209,0,3.646
150,1,3.647
88,-1,3.648
38,-5,3.649
-26,-4,3.65
-95,-1,3.651
-114,1,3.652
-77,3,3.653
-37,1,3.654
-23,0,3.655
2,-1,3.656
65,-4,3.657
113,-1,3.658
89,1,3.659
32,-1,3.66
26,-4,3.661
73,-5,3.662
96,-4,3.663
53,-3,3.664
-23,-2,3.665
-90,1,3.666
-149,0,3.667
-204,-4,3.668
-234,-8,3.669
-231,-6,3.67
-218,-2,3.671
-199,0,3.672
-148,1,3.673
-46,1,3.674
62,4,3.675
119,2,3.676
123,-3,3.677
108,0,3.678
88,4,3.679
58,5,3.68
35,4,3.681
40,4,3.682
64,2,3.683
77,-3,3.684
68,-6,3.685
51,-2,3.686
37,0,3.687
25,-2,3.688
14,-3,3.689
5,0,3.69
0,4,3.691
-1,0,3.692
7,-1,3.693
20,1,3.694
25,4,3.695
24,5,3.696
4,0,3.697
-15,-5,3.698
-31,-2,3.699
-41,0,3.7
-29,-1,3.701
-13,-3,3.702
12,1,3.703
40,5,3.704
73,3,3.705
94,1,3.706
75,0,3.707
52,-3,3.708
20,-4,3.709
-3,-5,3.71
-1,-4,3.711
-4,-3,3.712
-24,-3,3.713
-35,-3,3.714
-20,0,3.715
-21,0,3.716
-48,-3,3.717
-64,-6,3.718
-38,-7,3.719
3,-8,3.72
11,-5,3.721
-14,0,3.722
-33,-2,3.723
-26,-5,3.724
-16,-2,3.725
-23,4,3.726
-37,4,3.727
-35,0,3.728
-17,0,3.729
-6,2,3.73
-12,1,3.731
-7,-2,3.732
26,-2,3.733
75,0,3.734
103,2,3.735
121,3,3.736
103,3,3.737
80,3,3.738
41,-2,3.739
0,-6,3.74
-51,-1,3.741
-75,7,3.742
-15,8,3.743
21,-1,3.744
-16,-11,3.745
-45,-12,3.746
-42,-10,3.747
-38,-8,3.748
-29,-4,3.749
-20,0,3.75
-12,1,3.751
-6,1,3.752
-6,4,3.753
-5,3,3.754
4,-1,3.755
15,-7,3.756
2,-9,3.757
-34,-1,3.758
-67,4,3.759
-72,4,3.76
-43,2,3.761
15,2,3.762
72,4,3.763
89,2,3.764
64,0,3.765
32,-1,3.766
24,-2,3.767
29,-2,3.768
23,0,3.769
4,1,3.77
-2,0,3.771
5,0,3.772
6,1,3.773
-15,0,3.774
-40,-3,3.775
-43,-5,3.776
-25,-7,3.777
-5,-8,3.778
3,-4,3.779
6,0,3.78
10,1,3.781
14,0,3.782
17,-4,3.783
22,-5,3.784
24,-3,3.785
15,-1,3.786
1,1,3.787
-5,1,3.788
-12,3,3.789
-26,5,3.79
-44,3,3.791
-43,0,3.792
-20,-1,3.793
6,1,3.794
24,3,3.795
32,1,3.796
41,-2,3.797
42,0,3.798
28,5,3.799
11,2,3.8
3,-3,3.801
11,-1,3.802
18,6,3.803
20,8,3.804
25,1,3.805
32,-6,3.806
25,-7,3.807
-8,-4,3.808
-49,-2,3.809
-71,-1,3.81
-67,2,3.811
-51,3,3.812
-32,5,3.813
-13,2,3.814
8,-2,3.815
30,-4,3.816
47,-7,3.817
61,-6,3.818
61,-5,3.819
48,-6,3.82
0,-5,3.821
-36,1,3.822
-33,8,3.823
-30,7,3.824
-28,1,3.825
-20,-4,3.826
2,-2,3.827
23,0,3.828
36,0,3.829
42,-3,3.83
26,-2,3.831
17,1,3.832
33,4,3.833
49,1,3.834
40,-1,3.835
0,1,3.836
-30,0,3.837
-28,1,3.838
-12,0,3.839
-11,0,3.84
-18,3,3.841
-10,5,3.842
4,2,3.843
3,-4,3.844
-6,-8,3.845
-11,-6,3.846
-18,-3,3.847
-37,-5,3.848
-49,-7,3.849
-30,-3,3.85
9,1,3.851
43,3,3.852
73,5,3.853
111,5,3.854
130,4,3.855
74,1,3.856
-33,-6,3.857
-105,-8,3.858
-89,-4,3.859
-33,0,3.86
-15,4,3.861
-38,3,3.862
-60,0,3.863
-66,-3,3.864
-67,-2,3.865
-58,-2,3.866
-29,-4,3.867
1,-5,3.868
15,3,3.869
19,15,3.87
40,16,3.871
61,7,3.872
63,6,3.873
45,19,3.874
32,30,3.875
22,17,3.876
13,-23,3.877
11,-60,3.878
24,-78,3.879
36,-75,3.88
27,-53,3.881
12,-19,3.882
10,12,3.883
16,26,3.884
10,22,3.885
-7,15,3.886
-12,15,3.887
-4,18,3.888
0,20,3.889
-2,19,3.89
1,17,3.891
11,12,3.892
12,9,3.893
6,7,3.894
6,5,3.895
6,2,3.896
5,-4,3.897
4,-2,3.898
2,1,3.899
0,4,3.9
-4,4,3.901
-9,2,3.902
-18,0,3.903
-27,-3,3.904
-35,-4,3.905
-34,0,3.906
-6,2,3.907
16,-1,3.908
22,-3,3.909
25,0,3.91
13,6,3.911
6,5,3.912
18,2,3.913
20,-2,3.914
-19,-4,3.915
-74,-5,3.916
-94,-8,3.917
-65,-6,3.918
-1,0,3.919
69,1,3.92
121,0,3.921
141,-2,3.922
120,-3,3.923
64,-4,3.924
1,-6,3.925
-25,-5,3.926
-3,-2,3.927
33,-1,3.928
37,0,3.929
5,-2,3.93
-27,-5,3.931
-34,-5,3.932
-27,-2,3.933
-17,3,3.934
-16,4,3.935
-21,2,3.936
-33,-3,3.937
-40,-4,3.938
-26,-5,3.939
0,-3,3.94
13,-1,3.941
3,3,3.942
-2,3,3.943
14,0,3.944
26,-2,3.945
0,-2,3.946
-42,0,3.947
-30,0,3.948
52,0,3.949
109,4,3.95
53,6,3.951
-61,6,3.952
-108,4,3.953
-70,-2,3.954
-36,-3,3.955
-53,-3,3.956
-64,-6,3.957
-25,-6,3.958
15,-5,3.959
17,-3,3.96
12,-1,3.961
27,-1,3.962
35,-4,3.963
17,-8,3.964
5,-7,3.965
24,-2,3.966
35,3,3.967
21,4,3.968
7,3,3.969
13,3,3.97
19,1,3.971
5,-1,3.972
-12,-2,3.973
-22,-1,3.974
-24,0,3.975
-18,-1,3.976
12,-5,3.977
38,-5,3.978
47,-2,3.979
52,0,3.98
40,2,3.981
19,5,3.982
-24,3,3.983
-56,-3,3.984
-52,-7,3.985
-38,-6,3.986
7,-3,3.987
44,-2,3.988
57,-3,3.989
62,-4,3.99
41,-3,3.991
19,-1,3.992
-2,4,3.993
-16,5,3.994
10,1,3.995
30,-2,3.996
26,-4,3.997
13,-1,3.998
1,0,3.999
-9,0,4.0
-22,4,4.001
-23,6,4.002
-10,2,4.003
6,-2,4.004
13,-2,4.005
20,0,4.006
27,-1,4.007
17,-3,4.008
-17,0,4.009
-52,3,4.01
-51,1,4.011
-22,1,4.012
-2,5,4.013
-9,8,4.014
-16,3,4.015
-6,-5,4.016
2,-9,4.017
1,-6,4.018
0,-1,4.019
8,2,4.02
11,2,4.021
2,0,4.022
-3,-4,4.023
5,-7,4.024
12,-5,4.025
9,-2,4.026
4,3,4.027
7,8,4.028
8,9,4.029
2,8,4.03
0,11,4.031
4,22,4.032
9,33,4.033
7,24,4.034
5,-6,4.035
4,-44,4.036
0,-73,4.037
-2,-77,4.038
2,-58,4.039
9,-21,4.04
11,14,4.041
5,27,4.042
3,17,4.043
4,7,4.044
4,9,4.045
5,14,4.046
13,10,4.047
19,5,4.048
14,7,4.049
1,11,4.05
-8,10,4.051
-12,4,4.052
-14,3,4.053
-20,2,4.054
-18,3,4.055
-15,0,4.056
-7,-3,4.057
1,-3,4.058
9,-4,4.059
15,-6,4.06
9,-5,4.061
5,-3,4.062
3,-1,4.063
2,-3,4.064
3,-2,4.065
5,-1,4.066
3,-2,4.067
2,-3,4.068
6,-1,4.069
9,5,4.07
10,10,4.071
11,11,4.072
12,12,4.073
12,11,4.074
4,10,4.075
-5,8,4.076
-10,-1,4.077
-10,-8,4.078
-2,-7,4.079
9,-1,4.08
14,3,4.081
7,0,4.082
0,-6,4.083
1,-5,4.084
7,1,4.085
4,5,4.086
-3,1,4.087
-5,0,4.088
0,11,4.089
8,25,4.09
11,21,4.091
12,-9,4.092
15,-44,4.093
15,-64,4.094
8,-59,4.095
-5,-47,4.096
-15,-13,4.097
-14,16,4.098
-6,34,4.099
4,40,4.1
7,10,4.101
3,-10,4.102
3,-3,4.103
8,3,4.104
9,5,4.105
3,7,4.106
-1,9,4.107
-1,11,4.108
1,7,4.109
-3,5,4.11
-9,9,4.111
-10,10,4.112
-10,4,4.113
-15,-1,4.114
-17,-2,4.115
-9,-4,4.116
4,-10,4.117
11,-8,4.118
17,3,4.119
28,21,4.12
34,48,4.121
22,88,4.122
2,127,4.123
-4,129,4.124
5,68,4.125
14,-54,4.126
12,-193,4.127
6,-281,4.128
5,-269,4.129
5,-178,4.13
2,-78,4.131
0,-10,4.132
0,34,4.133
-3,72,4.134
-5,92,4.135
-8,82,4.136
-8,62,4.137
-5,61,4.138
4,65,4.139
11,55,4.14
9,41,4.141
8,37,4.142
7,31,4.143
7,19,4.144
13,14,4.145
15,22,4.146
0,24,4.147
-12,13,4.148
-16,11,4.149
-20,23,4.15
-20,20,4.151
-17,-10,4.152
-2,-39,4.153
19,-15,4.154
64,7,4.155
92,29,4.156
72,11,4.157
11,-6,4.158
-38,-15,4.159
-46,-20,4.16
-32,-6,4.161
-35,2,4.162
-52,-2,4.163
-46,-11,4.164
-15,-11,4.165
10,-11,4.166
9,-15,4.167
3,-24,4.168
9,-15,4.169
15,-6,4.17
11,2,4.171
9,11,4.172
18,11,4.173
22,-5,4.174
15,0,4.175
7,5,4.176
6,1,4.177
5,-3,4.178
0,-5,4.179
1,-6,4.18
9,-3,4.181
13,-1,4.182
7,-2,4.183
3,-4,4.184
8,-4,4.185
13,-4,4.186
11,-5,4.187
7,-7,4.188
6,-5,4.189
4,-3,4.19
1,-1,4.191
-1,1,4.192
0,1,4.193
-1,0,4.194
-3,-4,4.195
-3,-5,4.196
-3,-5,4.197
-5,-2,4.198
-5,-5,4.199
-2,-5,4.2
0,1,4.201
-4,9,4.202
-15,9,4.203
-30,4,4.204
-48,1,4.205
-60,3,4.206
-45,3,4.207
0,0,4.208
43,0,4.209
50,0,4.21
37,1,4.211
37,0,4.212
50,2,4.213
46,0,4.214
31,-5,4.215
26,-7,4.216
34,-7,4.217
27,-3,4.218
7,-2,4.219
3,-3,4.22
22,1,4.221
31,7,4.222
12,8,4.223
-14,2,4.224
-28,-4,4.225
-31,-2,4.226
-30,1,4.227
-24,0,4.228
-15,0,4.229
-9,0,4.23
-5,2,4.231
-5,2,4.232
-9,3,4.233
-17,4,4.234
-18,4,4.235
-7,0,4.236
4,-7,4.237
8,-8,4.238
12,-5,4.239
21,-5,4.24
24,-4,4.241
15,1,4.242
5,5,4.243
5,6,4.244
9,5,4.245
5,3,4.246
-2,3,4.247
-4,4,4.248
-5,7,4.249
-8,7,4.25
-6,2,4.251
0,0,4.252
5,2,4.253
6,1,4.254
7,-3,4.255
6,-6,4.256
2,-7,4.257
-2,-6,4.258
2,-7,4.259
11,-7,4.26
14,-3,4.261
8,0,4.262
2,-3,4.263
4,-3,4.264
7,3,4.265
5,7,4.266
-1,1,4.267
-6,-8,4.268
-7,-11,4.269
-3,-9,4.27
2,-7,4.271
6,-3,4.272
11,3,4.273
24,2,4.274
37,-3,4.275
28,-5,4.276
-18,-5,4.277
-73,-2,4.278
-95,0,4.279
-70,3,4.28
-25,6,4.281
15,3,4.282
58,-4,4.283
103,-6,4.284
120,0,4.285
88,8,4.286
30,8,4.287
-9,3,4.288
-17,2,4.289
-11,5,4.29
-8,6,4.291
-9,4,4.292
-11,4,4.293
-13,2,4.294
-14,0,4.295
-10,0,4.296
-3,0,4.297
8,3,4.298
23,6,4.299
31,7,4.3
28,12,4.301
19,25,4.302
15,38,4.303
0,35,4.304
-33,3,4.305
-63,-42,4.306
-58,-76,4.307
-25,-87,4.308
-3,-74,4.309
-7,-43,4.31
-15,-3,4.311
-9,23,4.312
0,25,4.313
0,13,4.314
-6,12,4.315
-8,20,4.316
0,16,4.317
14,6,4.318
25,5,4.319
32,10,4.32
35,10,4.321
35,3,4.322
33,-1,4.323
26,2,4.324
14,4,4.325
3,0,4.326
2,-1,4.327
2,-1,4.328
-5,-4,4.329
-10,-6,4.33
2,-4,4.331
24,2,4.332
35,3,4.333
28,0,4.334
17,-3,4.335
6,-3,4.336
-5,-6,4.337
-13,-8,4.338
-14,-6,4.339
-11,-2,4.34
-20,1,4.341
-30,2,4.342
-25,0,4.343
-4,-4,4.344
10,-6,4.345
7,-3,4.346
0,1,4.347
2,1,4.348
11,1,4.349
15,3,4.35
16,6,4.351
10,6,4.352
1,2,4.353
-5,0,4.354
-6,-1,4.355
-5,-3,4.356
-10,-7,4.357
-12,-8,4.358
-2,-6,4.359
12,-7,4.36
13,-10,4.361
2,-11,4.362
-4,-10,4.363
-2,-11,4.364
2,-15,4.365
1,-13,4.366
-1,-2,4.367
0,11,4.368
2,17,4.369
0,14,4.37
-3,7,4.371
0,1,4.372
8,6,4.373
7,17,4.374
0,28,4.375
-12,24,4.376
-16,10,4.377
-15,17,4.378
-15,46,4.379
-12,57,4.38
-7,19,4.381
-4,-49,4.382
-4,-99,4.383
-2,-99,4.384
1,-63,4.385
2,-15,4.386
-2,20,4.387
-3,32,4.388
5,27,4.389
15,21,4.39
22,24,4.391
23,27,4.392
22,21,4.393
12,4,4.394
-1,-9,4.395
-9,-13,4.396
-12,-19,4.397
-11,-24,4.398
-7,-23,4.399
0,-16,4.4
6,-2,4.401
6,11,4.402
8,18,4.403
12,23,4.404
14,41,4.405
7,74,4.406
-4,89,4.407
-9,44,4.408
-8,-50,4.409
-4,-119,4.41
1,-109,4.411
11,-39,4.412
17,18,4.413
16,31,4.414
11,17,4.415
10,6,4.416
7,0,4.417
-1,-1,4.418
-6,13,4.419
-4,57,4.42
2,111,4.421
0,135,4.422
-2,94,4.423
-2,-8,4.424
0,-128,4.425
0,-210,4.426
3,-215,4.427
7,-144,4.428
10,-48,4.429
9,22,4.43
10,75,4.431
14,141,4.432
17,201,4.433
14,186,4.434
11,64,4.435
10,-85,4.436
8,-154,4.437
6,-117,4.438
11,-33,4.439
16,37,4.44
11,64,4.441
-1,29,4.442
-4,-62,4.443
1,-158,4.444
3,-197,4.445
-2,-168,4.446
-5,-107,4.447
-2,-39,4.448
-3,30,4.449
-10,94,4.45
-20,127,4.451
-22,120,4.452
-16,103,4.453
-10,101,4.454
-3,115,4.455
-3,105,4.456
-6,46,4.457
-4,-23,4.458
7,-67,4.459
18,-81,4.46
18,-77,4.461
11,-54,4.462
11,-13,4.463
14,21,4.464
9,26,4.465
-5,13,4.466
-11,10,4.467
-5,17,4.468
2,26,4.469
4,41,4.47
0,61,4.471
0,48,4.472
3,-12,4.473
3,-91,4.474
3,-115,4.475
1,-80,4.476
2,-43,4.477
6,-26,4.478
11,-7,4.479
14,25,4.48
10,45,4.481
1,41,4.482
-3,32,4.483
-1,31,4.484
3,28,4.485
3,16,4.486
0,13,4.487
0,22,4.488
6,29,4.489
16,30,4.49
23,37,4.491
29,50,4.492
33,49,4.493
28,26,4.494
18,14,4.495
3,39,4.496
-5,77,4.497
-3,77,4.498
3,0,4.499
5,-115,4.5
0,-181,4.501
-6,-154,4.502
-7,-80,4.503
-7,-30,4.504
-10,-19,4.505
-13,-17,4.506
-13,-11,4.507
-9,-11,4.508
-6,-12,4.509
-6,-1,4.51
-3,15,4.511
2,15,4.512
9,3,4.513
8,-8,4.514
2,-6,4.515
-3,1,4.516
-9,5,4.517
-12,12,4.518
-5,16,4.519
0,14,4.52
-1,9,4.521
0,7,4.522
5,8,4.523
10,2,4.524
14,-7,4.525
17,-6,4.526
17,15,4.527
17,46,4.528
11,63,4.529
6,48,4.53
2,0,4.531
-2,-59,4.532
-2,-98,4.533
0,-104,4.534
0,-69,4.535
-3,-12,4.536
-10,39,4.537
-15,87,4.538
-10,145,4.539
0,220,4.54
0,246,4.541
-8,140,4.542
-12,-86,4.543
-6,-287,4.544
1,-307,4.545
1,-166,4.546
0,-21,4.547
5,17,4.548
8,-22,4.549
2,-62,4.55
-1,-76,4.551
1,-58,4.552
4,-3,4.553
1,71,4.554
0,106,4.555
3,82,4.556
3,49,4.557
0,55,4.558
1,75,4.559
10,90,4.56
14,126,4.561
10,180,4.562
8,177,4.563
10,65,4.564
10,-107,4.565
2,-250,4.566
-2,-320,4.567
1,-311,4.568
5,-212,4.569
2,-31,4.57
1,158,4.571
3,251,4.572
8,216,4.573
8,86,4.574
3,-57,4.575
-4,-142,4.576
-8,-141,4.577
-5,-72,4.578
4,10,4.579
12,58,4.58
10,69,4.581
4,64,4.582
1,61,4.583
5,65,4.584
8,75,4.585
13,84,4.586
14,77,4.587
7,50,4.588
-2,10,4.589
-7,-15,4.59
-6,-15,4.591
-3,7,4.592
-4,26,4.593
-4,7,4.594
2,-51,4.595
9,-114,4.596
10,-127,4.597
8,-59,4.598
13,35,4.599
17,71,4.6
15,12,4.601
10,-78,4.602
11,-114,4.603
12,-77,4.604
3,-31,4.605
-13,-14,4.606
-23,-10,4.607
-21,1,4.608
-16,19,4.609
-17,36,4.61
-18,67,4.611
-16,111,4.612
-4,130,4.613
9,88,4.614
17,4,4.615
19,-69,4.616
17,-94,4.617
14,-70,4.618
14,-45,4.619
13,-58,4.62
10,-89,4.621
5,-87,4.622
0,-36,4.623
-4,10,4.624
-6,15,4.625
-6,-1,4.626
-6,0,4.627
-6,20,4.628
-3,36,4.629
-1,46,4.63
2,54,4.631
4,51,4.632
7,38,4.633
5,32,4.634
4,33,4.635
2,27,4.636
3,6,4.637
9,-5,4.638
20,1,4.639
27,6,4.64
21,-2,4.641
5,-10,4.642
-5,-8,4.643
-5,-6,4.644
-3,-5,4.645
-5,2,4.646
-6,21,4.647
-3,33,4.648
0,29,4.649
0,19,4.65
1,28,4.651
6,54,4.652
9,78,4.653
6,66,4.654
4,4,4.655
6,-92,4.656
5,-184,4.657
1,-225,4.658
5,-201,4.659
13,-121,4.66
12,-16,4.661
0,66,4.662
-7,94,4.663
-1,79,4.664
7,69,4.665
3,86,4.666
-7,130,4.667
-9,183,4.668
-2,199,4.669
3,112,4.67
5,-65,4.671
4,-199,4.672
4,-190,4.673
3,-90,4.674
0,-39,4.675
-3,-89,4.676
-4,-160,4.677
-1,-179,4.678
8,-149,4.679
19,-91,4.68
26,-5,4.681
23,79,4.682
12,113,4.683
1,96,4.684
-4,80,4.685
-11,88,4.686
-13,93,4.687
-7,75,4.688
0,63,4.689
5,76,4.69
2,90,4.691
0,70,4.692
1,21,4.693
4,-34,4.694
7,-61,4.695
5,-51,4.696
0,-31,4.697
-5,-10,4.698
-6,20,4.699
-3,79,4.7
-6,153,4.701
-11,192,4.702
-7,150,4.703
5,50,4.704
10,-33,4.705
0,-64,4.706
-10,-91,4.707
-6,-167,4.708
0,-254,4.709
-1,-264,4.71
-6,-190,4.711
-2,-110,4.712
6,-84,4.713
7,-84,4.714
3,-60,4.715
0,-7,4.716
0,42,4.717
4,76,4.718
8,93,4.719
13,98,4.72
10,92,4.721
0,83,4.722
-1,67,4.723
6,52,4.724
13,46,4.725
12,49,4.726
4,45,4.727
-2,28,4.728
-4,11,4.729
-2,4,4.73
6,2,4.731
12,0,4.732
13,6,4.733
12,16,4.734
14,20,4.735
12,23,4.736
4,42,4.737
0,92,4.738
9,133,4.739
16,111,4.74
10,20,4.741
0,-88,4.742
2,-152,4.743
11,-157,4.744
4,-145,4.745
-6,-148,4.746
-8,-148,4.747
0,-104,4.748
1,-21,4.749
-4,41,4.75
-5,47,4.751
-3,28,4.752
1,26,4.753
3,31,4.754
7,7,4.755
7,-35,4.756
1,-65,4.757
-3,-71,4.758
6,-74,4.759
16,-57,4.76
11,20,4.761
0,144,4.762
0,241,4.763
10,250,4.764
11,166,4.765
0,29,4.766
-5,-113,4.767
-3,-203,4.768
-7,-205,4.769
-14,-135,4.77
-13,-45,4.771
-3,26,4.772
8,67,4.773
13,77,4.774
14,64,4.775
9,41,4.776
-2,20,4.777
-9,8,4.778
-4,3,4.779
7,11,4.78
9,30,4.781
1,42,4.782
0,38,4.783
5,26,4.784
5,26,4.785
-2,45,4.786
-4,70,4.787
4,67,4.788
11,12,4.789
4,-65,4.79
-1,-99,4.791
4,-57,4.792
13,13,4.793
15,49,4.794
8,44,4.795
4,42,4.796
1,55,4.797
0,27,4.798
-2,-89,4.799
-1,-244,4.8
-2,-315,4.801
-5,-243,4.802
-3,-97,4.803
2,17,4.804
4,63,4.805
-1,77,4.806
-6,84,4.807
-9,80,4.808
-8,75,4.809
-7,78,4.81
-4,80,4.811
0,63,4.812
2,49,4.813
2,62,4.814
8,88,4.815
17,72,4.816
20,0,4.817
16,-71,4.818
15,-80,4.819
21,-32,4.82
23,17,4.821
14,4,4.822
3,-68,4.823
3,-123,4.824
6,-89,4.825
7,6,4.826
5,61,4.827
7,29,4.828
6,-35,4.829
0,-62,4.83
-5,-51,4.831
-3,-29,4.832
3,0,4.833
7,38,4.834
3,60,4.835
-1,50,4.836
-3,35,4.837
-3,43,4.838
-2,47,4.839
-2,17,4.84
-4,-28,4.841
-9,-33,4.842
-10,36,4.843
-8,161,4.844
-10,245,4.845
-13,163,4.846
-12,-85,4.847
-4,-309,4.848
6,-311,4.849
10,-125,4.85
6,37,4.851
2,64,4.852
3,24,4.853
2,-18,4.854
4,-73,4.855
8,-145,4.856
10,-168,4.857
7,-81,4.858
3,70,4.859
2,182,4.86
2,192,4.861
2,112,4.862
4,15,4.863
7,-22,4.864
7,17,4.865
1,72,4.866
-3,98,4.867
-4,119,4.868
-5,164,4.869
-7,192,4.87
-6,136,4.871
-1,15,4.872
2,-85,4.873
2,-141,4.874
3,-178,4.875
7,-227,4.876
8,-262,4.877
8,-232,4.878
10,-137,4.879
17,-23,4.88
19,60,4.881
10,94,4.882
-1,82,4.883
-4,41,4.884
-5,-7,4.885
-7,-38,4.886
-8,-28,4.887
-4,18,4.888
-3,60,4.889
-4,61,4.89
-4,47,4.891
-1,66,4.892
1,101,4.893
-1,75,4.894
-1,-39,4.895
3,-160,4.896
7,-178,4.897
9,-89,4.898
16,9,4.899
27,48,4.9
30,38,4.901
19,22,4.902
6,12,4.903
6,15,4.904
11,45,4.905
8,105,4.906
3,154,4.907
5,150,4.908
9,93,4.909
9,26,4.91
5,-17,4.911
5,-41,4.912
7,-50,4.913
3,-44,4.914
-3,-26,4.915
-11,-10,4.916
-15,-4,4.917
-16,-1,4.918
-12,-10,4.919
-6,-21,4.92
-3,-33,4.921
-5,-36,4.922
-9,-10,4.923
-9,10,4.924
-8,10,4.925
-5,20,4.926
-5,60,4.927
-2,91,4.928
4,96,4.929
9,82,4.93
5,6,4.931
-4,-55,4.932
-9,-72,4.933
-5,-82,4.934
7,-69,4.935
13,-54,4.936
6,-23,4.937
-2,-1,4.938
0,-59,4.939
6,-182,4.94
7,-242,4.941
2,-155,4.942
0,8,4.943
2,112,4.944
3,110,4.945
1,49,4.946
2,-17,4.947
7,-63,4.948
13,-73,4.949
16,-35,4.95
19,29,4.951
22,75,4.952
27,83,4.953
26,80,4.954
24,104,4.955
22,127,4.956
20,103,4.957
17,43,4.958
15,-7,4.959
13,-32,4.96
9,-54,4.961
3,-87,4.962
-4,-118,4.963
-10,-148,4.964
-9,-171,4.965
-8,-146,4.966
-10,-46,4.967
-13,56,4.968
-12,71,4.969
-10,28,4.97
-8,33,4.971
-5,95,4.972
-2,126,4.973
0,95,4.974
-2,70,4.975
-11,90,4.976
-14,93,4.977
-5,37,4.978
8,-38,4.979
14,-78,4.98
9,-64,4.981
-2,-13,4.982
-7,39,4.983
-7,48,4.984
-5,5,4.985
-3,-41,4.986
3,-46,4.987
10,-18,4.988
8,18,4.989
1,56,4.99
-1,67,4.991
5,8,4.992
10,-92,4.993
5,-162,4.994
-2,-133,4.995
-7,-43,4.996
-7,35,4.997
-4,85,4.998
0,106,4.999
3,91,5.0
3,77,5.001
2,103,5.002
4,125,5.003
6,48,5.004
5,-98,5.005
3,-159,5.006
8,-81,5.007
13,-14,5.008
8,-79,5.009
-1,-193,5.01
-1,-203,5.011
4,-104,5.012
6,7,5.013
-4,95,5.014
-16,155,5.015
-19,144,5.016
-14,47,5.017
-4,-45,5.018
10,-42,5.019
26,23,5.02
36,58,5.021
34,46,5.022
24,33,5.023
18,37,5.024
10,42,5.025
-4,52,5.026
-19,76,5.027
-26,85,5.028
-21,43,5.029
-16,-23,5.03
-12,-58,5.031
-9,-44,5.032
-1,-18,5.033
9,-11,5.034
19,-14,5.035
20,7,5.036
12,60,5.037
4,111,5.038
6,102,5.039
15,-1,5.04
20,-160,5.041
17,-285,5.042
9,-306,5.043
6,-236,5.044
4,-141,5.045
-2,-71,5.046
-7,-23,5.047
-9,27,5.048
-7,86,5.049
-5,141,5.05
-4,175,5.051
-3,178,5.052
0,159,5.053
-1,134,5.054
-2,124,5.055
-3,103,5.056
-2,45,5.057
1,-29,5.058
10,-91,5.059
19,-128,5.06
21,-138,5.061
13,-103,5.062
5,-30,5.063
6,21,5.064
5,21,5.065
-1,14,5.066
-4,47,5.067
0,76,5.068
9,43,5.069
14,-13,5.07
14,0,5.071
14,76,5.072
15,116,5.073
11,61,5.074
7,-49,5.075
0,-144,5.076
-4,-203,5.077
-8,-211,5.078
-7,-153,5.079
-4,-60,5.08
-6,-3,5.081
-12,8,5.082
-16,24,5.083
-15,72,5.084
-13,115,5.085
-9,127,5.086
-7,131,5.087
-7,122,5.088
-9,61,5.089
-10,-38,5.09
-5,-83,5.091
3,-39,5.092
12,6,5.093
18,-23,5.094
21,-85,5.095
17,-98,5.096
7,-66,5.097
3,-28,5.098
7,13,5.099
13,60,5.1
11,52,5.101
8,-39,5.102
7,-112,5.103
6,-48,5.104
0,109,5.105
-5,204,5.106
-5,163,5.107
-3,43,5.108
0,-76,5.109
4,-141,5.11
9,-95,5.111
10,50,5.112
8,173,5.113
4,178,5.114
2,101,5.115
-2,43,5.116
-9,0,5.117
-13,-77,5.118
-6,-152,5.119
6,-136,5.12
9,-45,5.121
0,23,5.122
-4,52,5.123
-1,89,5.124
2,104,5.125
0,29,5.126
0,-90,5.127
7,-145,5.128
15,-139,5.129
14,-154,5.13
9,-185,5.131
8,-150,5.132
8,-69,5.133
3,-28,5.134
-5,-27,5.135
-12,10,5.136
-12,81,5.137
-7,107,5.138
-2,81,5.139
3,80,5.14
4,113,5.141
1,125,5.142
1,103,5.143
8,95,5.144
14,104,5.145
13,93,5.146
10,69,5.147
7,77,5.148
3,104,5.149
-2,102,5.15
-3,60,5.151
2,14,5.152
8,-31,5.153
4,-118,5.154
-2,-231,5.155
-3,-307,5.156
4,-309,5.157
9,-234,5.158
9,-99,5.159
7,60,5.16
6,173,5.161
1,173,5.162
-4,91,5.163
-5,18,5.164
-3,4,5.165
-5,26,5.166
-7,52,5.167
-4,64,5.168
0,47,5.169
-3,0,5.17
-12,-42,5.171
-20,-37,5.172
-17,14,5.173
-6,66,5.174
4,78,5.175
7,39,5.176
5,-16,5.177
6,-48,5.178
10,-56,5.179
12,-74,5.18
9,-116,5.181
5,-145,5.182
10,-127,5.183
18,-88,5.184
18,-80,5.185
10,-92,5.186
2,-55,5.187
0,72,5.188
1,220,5.189
2,270,5.19
4,189,5.191
6,59,5.192
9,-24,5.193
10,-53,5.194
9,-47,5.195
4,-12,5.196
-2,38,5.197
-4,67,5.198
1,50,5.199
4,22,5.2
-3,11,5.201
-10,-17,5.202
-6,-81,5.203
9,-109,5.204
18,-49,5.205
16,27,5.206
9,28,5.207
5,-20,5.208
5,-31,5.209
5,-10,5.21
5,-21,5.211
7,-64,5.212
10,-79,5.213
8,-61,5.214
4,-39,5.215
1,-10,5.216
2,40,5.217
8,76,5.218
13,66,5.219
14,45,5.22
7,-8,5.221
-1,-43,5.222
-7,-17,5.223
-12,8,5.224
-15,33,5.225
-17,39,5.226
-12,-13,5.227
-4,-46,5.228
0,-18,5.229
-2,12,5.23
-2,48,5.231
3,70,5.232
11,46,5.233
11,22,5.234
6,6,5.235
-2,13,5.236
-3,48,5.237
0,87,5.238
7,78,5.239
12,-2,5.24
10,-111,5.241
3,-181,5.242
-1,-185,5.243
0,-151,5.244
1,-120,5.245
2,-111,5.246
2,-109,5.247
2,-90,5.248
1,-44,5.249
0,26,5.25
1,105,5.251
2,181,5.252
5,237,5.253
2,254,5.254
1,222,5.255
0,149,5.256
-2,55,5.257
-3,-29,5.258
2,-78,5.259
8,-76,5.26
10,-44,5.261
4,-30,5.262
0,-63,5.263
0,-120,5.264
-2,-136,5.265
-6,-70,5.266
-9,53,5.267
-6,157,5.268
0,188,5.269
4,159,5.27
2,120,5.271
2,92,5.272
4,57,5.273
4,-37,5.274
3,-191,5.275
4,-331,5.276
7,-341,5.277
10,-186,5.278
13,7,5.279
14,81,5.28
9,34,5.281
1,-10,5.282
1,16,5.283
8,76,5.284
8,121,5.285
-2,146,5.286
-11,142,5.287
-8,84,5.288
-1,1,5.289
-4,-58,5.29
-7,-78,5.291
-1,-61,5.292
11,-5,5.293
11,68,5.294
5,94,5.295
7,46,5.296
18,-1,5.297
18,9,5.298
7,25,5.299
2,-10,5.3
4,-52,5.301
0,-46,5.302
-10,-26,5.303
-11,-14,5.304
1,63,5.305
11,223,5.306
7,311,5.307
2,170,5.308
7,-114,5.309
15,-309,5.31
17,-314,5.311
11,-224,5.312
6,-152,5.313
2,-127,5.314
-2,-131,5.315
-11,-127,5.316
-17,-53,5.317
-15,101,5.318
-5,214,5.319
2,165,5.32
3,11,5.321
-2,-82,5.322
-5,-60,5.323
-5,-8,5.324
-8,14,5.325
-10,35,5.326
-6,63,5.327
-4,62,5.328
-5,37,5.329
-3,21,5.33
14,6,5.331
31,-30,5.332
34,-48,5.333
22,-8,5.334
14,41,5.335
11,22,5.336
6,-20,5.337
-3,16,5.338
-5,90,5.339
-2,74,5.34
-4,-33,5.341
-9,-109,5.342
-9,-95,5.343
0,-47,5.344
11,-17,5.345
19,8,5.346
25,43,5.347
24,77,5.348
12,99,5.349
-3,94,5.35
-7,50,5.351
-4,-8,5.352
-5,-25,5.353
-12,-3,5.354
-13,1,5.355
-8,-53,5.356
-7,-138,5.357
-10,-190,5.358
-5,-179,5.359
5,-98,5.36
10,15,5.361
3,69,5.362
0,28,5.363
6,-8,5.364
9,66,5.365
3,203,5.366
-4,256,5.367
-4,181,5.368
0,61,5.369
1,-46,5.37
1,-149,5.371
6,-212,5.372
12,-169,5.373
10,-42,5.374
1,47,5.375
-6,60,5.376
-3,76,5.377
7,125,5.378
17,111,5.379
22,-6,5.38
19,-137,5.381
8,-235,5.382
-4,-352,5.383
-8,-426,5.384
-3,-252,5.385
1,160,5.386
0,458,5.387
-2,373,5.388
-2,95,5.389
2,-7,5.39
3,109,5.391
1,222,5.392
1,231,5.393
1,215,5.394
0,212,5.395
-4,163,5.396
-6,78,5.397
-3,36,5.398
9,22,5.399
21,-60,5.4
23,-212,5.401
14,-336,5.402
0,-377,5.403
-9,-372,5.404
-11,-352,5.405
-13,-281,5.406
-12,-93,5.407
-8,204,5.408
-4,450,5.409
-3,448,5.41
0,209,5.411
13,-20,5.412
31,-69,5.413
40,-25,5.414
32,-33,5.415
13,-88,5.416
-1,-114,5.417
-2,-129,5.418
3,-160,5.419
3,-115,5.42
-8,45,5.421
-25,142,5.422
-33,-8,5.423
-32,-304,5.424
-25,-456,5.425
-21,-314,5.426
-15,32,5.427
-10,376,5.428
-8,541,5.429
-6,472,5.43
0,279,5.431
10,121,5.432
15,49,5.433
12,-3,5.434
8,-66,5.435
8,-105,5.436
12,-90,5.437
20,-38,5.438
30,11,5.439
35,14,5.44
29,-72,5.441
17,-219,5.442
11,-304,5.443
15,-230,5.444
18,-56,5.445
12,72,5.446
-3,85,5.447
-16,28,5.448
-19,-36,5.449
-11,-59,5.45
-4,1,5.451
-2,141,5.452
-2,256,5.453
-2,250,5.454
-3,140,5.455
-8,29,5.456
-15,-30,5.457
-11,-38,5.458
3,10,5.459
15,95,5.46
17,105,5.461
14,-58,5.462
9,-323,5.463
6,-513,5.464
0,-529,5.465
-3,-385,5.466
-7,-109,5.467
-5,253,5.468
-1,550,5.469
4,616,5.47
11,457,5.471
16,240,5.472
17,110,5.473
10,59,5.474
2,30,5.475
-4,-26,5.476
-3,-123,5.477
0,-198,5.478
3,-164,5.479
1,-24,5.48
-4,70,5.481
-10,-14,5.482
-8,-221,5.483
6,-380,5.484
24,-414,5.485
32,-370,5.486
27,-288,5.487
11,-163,5.488
-3,-16,5.489
-7,94,5.49
1,179,5.491
15,317,5.492
27,494,5.493
29,582,5.494
20,452,5.495
-4,173,5.496
-25,-59,5.497
-27,-134,5.498
-17,-89,5.499
-7,30,5.5
-5,197,5.501
-5,311,5.502
0,267,5.503
4,98,5.504
6,-46,5.505
8,-127,5.506
8,-248,5.507
10,-431,5.508
14,-534,5.509
21,-434,5.51
25,-207,5.511
22,-45,5.512
16,-17,5.513
9,-48,5.514
4,-44,5.515
-2,-12,5.516
-8,-1,5.517
-16,23,5.518
-31,128,5.519
-41,291,5.52
-27,367,5.521
12,262,5.522
42,23,5.523
35,-238,5.524
5,-451,5.525
-7,-541,5.526
-1,-401,5.527
-3,-50,5.528
-24,280,5.529
-46,361,5.53
-49,215,5.531
-33,64,5.532
-4,56,5.533
2,187,5.534
47,394,5.535
72,572,5.536
27,583,5.537
-18,379,5.538
-65,85,5.539
-91,-149,5.54
-50,-303,5.541
-1,-415,5.542
70,-455,5.543
124,-401,5.544
122,-334,5.545
109,-305,5.546
65,-218,5.547
30,-1,5.548
22,229,5.549
6,320,5.55
-33,303,5.551
-62,289,5.552
-53,270,5.553
-1,166,5.554
52,25,5.555
80,-45,5.556
29,-80,5.557
-23,-184,5.558
-77,-315,5.559
-107,-306,5.56
-60,-134,5.561
-4,28,5.562
78,45,5.563
140,-40,5.564
137,-130,5.565
123,-213,5.566
73,-337,5.567
33,-506,5.568
23,-641,5.569
4,-580,5.57
-41,-206,5.571
-73,363,5.572
-63,784,5.573
-44,820,5.574
-11,577,5.575
7,363,5.576
6,235,5.577
-7,163,5.578
-22,264,5.579
-30,319,5.58
-30,230,5.581
-18,55,5.582
15,-378,5.583
55,-756,5.584
67,-969,5.585
39,-1084,5.586
8,-902,5.587
0,-619,5.588
-5,-31,5.589
-35,552,5.59
-65,1116,5.591
-41,1507,5.592
26,1381,5.593
80,1161,5.594
82,647,5.595
64,257,5.596
70,84,5.597
71,19,5.598
15,-130,5.599
-86,-403,5.6
-158,-627,5.601
-134,-638,5.602
-40,-488,5.603
45,-381,5.604
80,-451,5.605
88,-697,5.606
85,-1037,5.607
52,-1271,5.608
-12,-1075,5.609
-61,-304,5.61
-54,725,5.611
-8,1448,5.612
34,1592,5.613
67,1312,5.614
-9,888,5.615
-73,474,5.616
-92,145,5.617
-87,-30,5.618
-10,-119,5.619
45,-320,5.62
37,-674,5.621
31,-955,5.622
30,-935,5.623
43,-625,5.624
100,-182,5.625
123,246,5.626
40,525,5.627
-35,559,5.628
-96,427,5.629
-129,315,5.63
-74,287,5.631
-33,244,5.632
-38,137,5.633
85,-19,5.634
-10,-209,5.635
-88,-474,5.636
-112,-734,5.637
-106,-783,5.638
-11,-541,5.639
58,-160,5.64
48,162,5.641
41,352,5.642
39,431,5.643
55,397,5.644
125,246,5.645
153,30,5.646
52,-133,5.647
-42,-119,5.648
-117,87,5.649
-157,335,5.65
-89,400,5.651
-39,172,5.652
-45,-214,5.653
-47,-588,5.654
-27,-732,5.655
-17,-578,5.656
-31,-258,5.657
-27,37,5.658
21,254,5.659
67,499,5.66
67,809,5.661
51,1004,5.662
67,905,5.663
79,576,5.664
39,232,5.665
-10,-28,5.666
15,-268,5.667
80,-514,5.668
65,-680,5.669
-48,-669,5.67
-135,-468,5.671
-109,-160,5.672
-32,100,5.673
24,205,5.674
64,114,5.675
100,-97,5.676
89,-340,5.677
4,-543,5.678
-85,-592,5.679
-98,-352,5.68
-36,120,5.681
58,517,5.682
159,608,5.683
234,466,5.684
221,307,5.685
108,177,5.686
-24,-12,5.687
-86,-249,5.688
-82,-418,5.689
-91,-465,5.69
-145,-411,5.691
-180,-244,5.692
-135,28,5.693
-49,262,5.694
-44,436,5.695
-147,545,5.696
-211,455,5.697
-103,337,5.698
106,134,5.699
233,-85,5.7
223,-354,5.701
178,-559,5.702
176,-567,5.703
174,-518,5.704
107,-300,5.705
-10,-57,5.706
-114,263,5.707
-148,463,5.708
-95,299,5.709
-3,48,5.71
30,-462,5.711
-43,-792,5.712
-150,-576,5.713
141,-219,5.714
65,506,5.715
-19,976,5.716
-133,1023,5.717
-197,761,5.718
-112,479,5.719
-37,394,5.72
-2,452,5.721
23,429,5.722
23,228,5.723
28,-18,5.724
49,-172,5.725
57,-244,5.726
19,-276,5.727
1,-235,5.728
38,-137,5.729
66,-106,5.73
60,-199,5.731
35,-300,5.732
-51,-299,5.733
156,-236,5.734
72,-220,5.735
-22,-271,5.736
-148,-344,5.737
-219,-413,5.738
-124,-451,5.739
-42,-356,5.74
-3,-51,5.741
26,349,5.742
26,593,5.743
31,540,5.744
55,288,5.745
63,51,5.746
21,-59,5.747
0,-75,5.748
42,-76,5.749
73,-99,5.75
67,-147,5.751
39,-217,5.752
-57,-282,5.753
-179,-293,5.754
-321,-200,5.755
-316,-40,5.756
-185,80,5.757
-37,92,5.758
41,17,5.759
45,-55,5.76
56,-35,5.761
155,108,5.762
285,326,5.763
294,510,5.764
183,569,5.765
136,459,5.766
225,181,5.767
254,-180,5.768
74,-450,5.769
-162,-491,5.77
-216,-367,5.771
-109,-257,5.772
-25,-174,5.773
-32,52,5.774
-77,436,5.775
-125,718,5.776
-169,684,5.777
-169,467,5.778
-127,293,5.779
-116,145,5.78
-136,-114,5.781
-69,-414,5.782
93,-509,5.783
169,-292,5.784
51,82,5.785
-96,359,5.786
-74,391,5.787
59,198,5.788
118,-67,5.789
67,-252,5.79
12,-308,5.791
-6,-281,5.792
-34,-253,5.793
-98,-300,5.794
-147,-477,5.795
-141,-738,5.796
-92,-895,5.797
-16,-756,5.798
99,-340,5.799
238,151,5.8
327,542,5.801
290,780,5.802
140,864,5.803
-9,798,5.804
-38,651,5.805
57,525,5.806
153,427,5.807
137,272,5.808
16,65,5.809
-111,-74,5.81
-183,-103,5.811
-218,-132,5.812
-244,-242,5.813
-261,-421,5.814
-266,-614,5.815
-272,-800,5.816
-257,-880,5.817
-146,-683,5.818
100,-222,5.819
377,245,5.82
501,511,5.821
399,613,5.822
216,663,5.823
137,630,5.824
152,448,5.825
78,188,5.826
-154,-10,5.827
-363,-96,5.828
-335,-108,5.829
-106,-97,5.83
121,-100,5.831
234,-130,5.832
254,-163,5.833
180,-167,5.834
2,-141,5.835
-162,-128,5.836
-149,-153,5.837
-28,-194,5.838
-28,-284,5.839
-169,-339,5.84
-217,-284,5.841
-79,-176,5.842
58,86,5.843
66,294,5.844
54,334,5.845
108,339,5.846
122,238,5.847
26,132,5.848
-73,14,5.849
-74,-88,5.85
-15,-140,5.851
55,-159,5.852
136,-74,5.853
188,19,5.854
123,126,5.855
-44,187,5.856
-181,176,5.857
-211,122,5.858
-168,80,5.859
-99,66,5.86
-36,39,5.861
-11,-20,5.862
-9,-61,5.863
35,-48,5.864
105,-25,5.865
105,-43,5.866
40,-68,5.867
48,-33,5.868
146,44,5.869
142,68,5.87
-74,-32,5.871
-307,-223,5.872
-310,-380,5.873
-93,-401,5.874
105,-213,5.875
133,112,5.876
100,385,5.877
156,461,5.878
268,341,5.879
272,139,5.88
112,-40,5.881
-59,-151,5.882
-77,-186,5.883
33,-164,5.884
133,-126,5.885
159,-101,5.886
118,-105,5.887
-25,-141,5.888
-251,-198,5.889
-394,-236,5.89
-316,-192,5.891
-143,-16,5.892
-80,251,5.893
-105,534,5.894
-39,687,5.895
113,641,5.896
154,468,5.897
50,288,5.898
-14,148,5.899
28,46,5.9
45,-23,5.901
-26,-74,5.902
-88,-135,5.903
-116,-197,5.904
-167,-206,5.905
-155,-159,5.906
56,-117,5.907
349,-122,5.908
433,-142,5.909
256,-144,5.91
37,-141,5.911
-92,-141,5.912
-169,-129,5.913
-193,-108,5.914
-106,-102,5.915
-1,-111,5.916
-13,-107,5.917
-43,-81,5.918
104,-62,5.919
308,-56,5.92
256,-42,5.921
-38,-19,5.922
-216,-10,5.923
-129,-14,5.924
-17,-8,5.925
-53,5,5.926
-82,4,5.927
24,-7,5.928
122,-3,5.929
64,13,5.93
-28,15,5.931
1,1,5.932
77,-5,5.933
62,12,5.934
-7,55,5.935
-6,101,5.936
43,115,5.937
20,80,5.938
-74,19,5.939
-126,-20,5.94
-104,-14,5.941
-67,9,5.942
-46,30,5.943
-10,48,5.944
71,69,5.945
172,84,5.946
210,90,5.947
103,80,5.948
-97,40,5.949
-201,-48,5.95
-100,-185,5.951
69,-350,5.952
127,-475,5.953
79,-484,5.954
47,-321,5.955
39,-59,5.956
-27,139,5.957
-134,216,5.958
-161,266,5.959
-93,389,5.96
-34,559,5.961
-29,678,5.962
-19,672,5.963
28,519,5.964
62,259,5.965
62,6,5.966
72,-127,5.967
102,-153,5.968
87,-175,5.969
-13,-235,5.97
-133,-266,5.971
-187,-231,5.972
-171,-184,5.973
-135,-178,5.974
-89,-191,5.975
-14,-182,5.976
75,-136,5.977
128,-47,5.978
145,63,5.979
182,142,5.98
225,118,5.981
189,-31,5.982
67,-250,5.983
-29,-424,5.984
-51,-442,5.985
-79,-268,5.986
-158,1,5.987
-187,212,5.988
-100,300,5.989
-4,303,5.99
-22,270,5.991
-94,215,5.992
-91,163,5.993
13,133,5.994
140,109,5.995
207,44,5.996
179,-45,5.997
81,-82,5.998
18,-51,5.999
75,-9,6.0
166,-2,6.001
112,-12,6.002
-79,-11,6.003
-189,-8,6.004
-105,-24,6.005
30,-56,6.006
67,-82,6.007
35,-90,6.008
14,-82,6.009
-14,-72,6.01
-59,-69,6.011
-45,-67,6.012
48,-56,6.013
114,-39,6.014
48,-29,6.015
-75,-32,6.016
-103,-37,6.017
-26,-27,6.018
30,-6,6.019
7,12,6.02
-44,18,6.021
-78,4,6.022
-114,-19,6.023
-147,-38,6.024
-141,-44,6.025
-89,-43,6.026
-30,-43,6.027
23,-31,6.028
83,5,6.029
127,49,6.03
105,86,6.031
23,121,6.032
-55,153,6.033
-103,147,6.034
-111,90,6.035
-58,20,6.036
76,-14,6.037
225,-27,6.038
265,-61,6.039
159,-96,6.04
19,-82,6.041
-29,-32,6.042
12,11,6.043
46,55,6.044
17,129,6.045
-32,187,6.046
-52,157,6.047
-64,64,6.048
-104,-3,6.049
-138,-29,6.05
-97,-73,6.051
-2,-133,6.052
52,-150,6.053
54,-110,6.054
77,-58,6.055
138,-21,6.056
160,15,6.057
120,56,6.058
103,73,6.059
113,75,6.06
14,98,6.061
-204,127,6.062
-313,112,6.063
-151,51,6.064
100,0,6.065
151,-15,6.066
6,-23,6.067
-103,-40,6.068
-82,-52,6.069
-47,-54,6.07
-78,-55,6.071
-98,-55,6.072
-48,-49,6.073
30,-56,6.074
79,-115,6.075
108,-246,6.076
125,-416,6.077
84,-527,6.078
-29,-478,6.079
-141,-242,6.08
-164,85,6.081
-99,334,6.082
-8,391,6.083
53,264,6.084
57,53,6.085
10,-114,6.086
-33,-132,6.087
-28,40,6.088
0,343,6.089
4,625,6.09
32,751,6.091
171,685,6.092
338,504,6.093
359,263,6.094
179,51,6.095
-32,-72,6.096
-108,-93,6.097
-85,-67,6.098
-48,-68,6.099
7,-106,6.1
66,-141,6.101
17,-164,6.102
-151,-198,6.103
-260,-229,6.104
-188,-218,6.105
-60,-178,6.106
-34,-162,6.107
-49,-185,6.108
8,-213,6.109
86,-246,6.11
81,-298,6.111
31,-324,6.112
22,-257,6.113
25,-89,6.114
-6,79,6.115
-29,160,6.116
2,163,6.117
17,140,6.118
-27,116,6.119
-49,116,6.12
6,149,6.121
49,172,6.122
3,125,6.123
-54,28,6.124
-38,-31,6.125
-2,-26,6.126
-24,-15,6.127
-68,-35,6.128
-62,-48,6.129
-11,-32,6.13
35,-19,6.131
57,-33,6.132
57,-47,6.133
68,-49,6.134
128,-48,6.135
177,-50,6.136
195,-33,6.137
175,8,6.138
36,45,6.139
-77,63,6.14
-113,79,6.141
-133,87,6.142
-105,61,6.143
-75,13,6.144
-39,-14,6.145
-12,-11,6.146
-20,-10,6.147
-23,-24,6.148
-11,-23,6.149
-1,0,6.15
4,16,6.151
8,13,6.152
12,15,6.153
19,29,6.154
37,34,6.155
41,14,6.156
7,-10,6.157
-45,-11,6.158
-68,-5,6.159
-52,-10,6.16
-19,-24,6.161
6,-38,6.162
11,-51,6.163
-20,-64,6.164
-82,-59,6.165
-136,-32,6.166
-150,0,6.167
-115,24,6.168
-28,38,6.169
115,48,6.17
262,48,6.171
319,40,6.172
261,38,6.173
160,41,6.174
100,45,6.175
63,41,6.176
4,15,6.177
-50,-11,6.178
-50,-37,6.179
-23,-51,6.18
-31,-28,6.181
-69,-6,6.182
-97,12,6.183
-114,24,6.184
-123,11,6.185
-90,-13,6.186
-13,-71,6.187
42,-132,6.188
29,-196,6.189
2,-213,6.19
23,-87,6.191
78,28,6.192
126,112,6.193
145,173,6.194
94,154,6.195
-47,133,6.196
-166,102,6.197
-108,57,6.198
73,3,6.199
140,-68,6.2
9,-169,6.201
-124,-251,6.202
-104,-205,6.203
-31,12,6.204
-42,296,6.205
-89,475,6.206
-85,465,6.207
-70,321,6.208
-104,131,6.209
-116,-92,6.21
-30,-380,6.211
106,-674,6.212
200,-782,6.213
238,-550,6.214
220,-48,6.215
105,439,6.216
-82,677,6.217
-208,665,6.218
-180,514,6.219
-57,306,6.22
58,113,6.221
135,7,6.222
169,-7,6.223
118,-11,6.224
11,-54,6.225
-40,-98,6.226
3,-104,6.227
42,-96,6.228
-7,-104,6.229
-86,-118,6.23
-102,-122,6.231
-65,-128,6.232
-40,-132,6.233
-37,-122,6.234
-22,-99,6.235
14,-92,6.236
45,-105,6.237
44,-107,6.238
14,-88,6.239
-26,-70,6.24
-60,-65,6.241
-94,-61,6.242
-150,-46,6.243
-218,-31,6.244
-232,-19,6.245
-126,-5,6.246
93,13,6.247
321,23,6.248
442,20,6.249
422,16,6.25
330,17,6.251
234,19,6.252
142,23,6.253
22,23,6.254
-74,20,6.255
-86,12,6.256
-55,6,6.257
-71,10,6.258
-140,15,6.259
-179,12,6.26
-155,8,6.261
-109,9,6.262
-59,8,6.263
8,0,6.264
54,-7,6.265
28,-11,6.266
-37,-19,6.267
-60,-29,6.268
-34,-22,6.269
-28,9,6.27
-71,47,6.271
-117,68,6.272
-123,80,6.273
-100,85,6.274
-58,78,6.275
-9,52,6.276
33,21,6.277
59,2,6.278
76,-9,6.279
93,-26,6.28
86,-35,6.281
37,-25,6.282
-19,-9,6.283
-32,-2,6.284
23,3,6.285
121,17,6.286
201,20,6.287
193,-3,6.288
79,-37,6.289
-59,-56,6.29
-106,-51,6.291
-52,-32,6.292
3,-8,6.293
-10,18,6.294
-55,41,6.295
-52,53,6.296
-4,47,6.297
19,28,6.298
-2,-2,6.299
-18,-32,6.3
-5,-45,6.301
1,-33,6.302
-14,-8,6.303
-24,17,6.304
-8,39,6.305
9,54,6.306
1,42,6.307
-10,-11,6.308
-4,-77,6.309
1,-103,6.31
-14,-45,6.311
-46,51,6.312
-74,80,6.313
-95,-23,6.314
-102,-156,6.315
-92,-149,6.316
-84,12,6.317
-105,142,6.318
-133,64,6.319
-98,-184,6.32
37,-463,6.321
215,-691,6.322
341,-769,6.323
376,-508,6.324
341,110,6.325
256,723,6.326
136,920,6.327
37,730,6.328
30,516,6.329
86,435,6.33
79,350,6.331
-47,211,6.332
-178,160,6.333
-194,225,6.334
-122,261,6.335
-65,183,6.336
-54,85,6.337
-42,22,6.338
-27,-73,6.339
-25,-208,6.34
-69,-298,6.341
-86,-338,6.342
-20,-390,6.343
46,-411,6.344
118,-312,6.345
141,-156,6.346
18,-83,6.347
-83,-62,6.348
-115,30,6.349
-139,161,6.35
-135,181,6.351
-118,87,6.352
-62,17,6.353
-23,11,6.354
-88,-9,6.355
-177,-62,6.356
-206,-79,6.357
-190,-43,6.358
-159,-35,6.359
-83,-70,6.36
55,-82,6.361
176,-56,6.362
186,-55,6.363
104,-89,6.364
54,-100,6.365
122,-67,6.366
264,-32,6.367
327,-17,6.368
207,-4,6.369
-9,13,6.37
-131,7,6.371
-72,-25,6.372
70,-59,6.373
176,-79,6.374
181,-79,6.375
96,-59,6.376
-29,-25,6.377
-135,19,6.378
-190,71,6.379
-201,117,6.38
-146,136,6.381
26,126,6.382
247,105,6.383
313,92,6.384
146,82,6.385
-45,67,6.386
-54,51,6.387
-5,41,6.388
-126,20,6.389
-314,-55,6.39
-236,-286,6.391
124,-735,6.392
386,-1177,6.393
331,-1140,6.394
150,-310,6.395
106,823,6.396
118,1305,6.397
-19,891,6.398
-220,313,6.399
-248,225,6.4
-117,395,6.401
-50,337,6.402
-94,139,6.403
-104,148,6.404
-43,284,6.405
-40,246,6.406
-132,83,6.407
-197,31,6.408
-159,46,6.409
-77,-49,6.41
-11,-182,6.411
56,-186,6.412
129,-125,6.413
165,-150,6.414
130,-212,6.415
67,-191,6.416
48,-135,6.417
79,-147,6.418
86,-179,6.419
25,-141,6.42
-46,-86,6.421
-43,-91,6.422
9,-107,6.423
12,-75,6.424
-55,-42,6.425
-98,-54,6.426
-59,-64,6.427
-5,-34,6.428
-4,-13,6.429
-5,-34,6.43
71,-43,6.431
188,-16,6.432
231,1,6.433
142,-12,6.434
-7,-16,6.435
-119,6,6.436
-168,14,6.437
-180,0,6.438
-161,-5,6.439
-94,11,6.44
2,21,6.441
63,18,6.442
61,27,6.443
29,49,6.444
17,60,6.445
42,55,6.446
94,49,6.447
122,42,6.448
92,22,6.449
32,3,6.45
2,-3,6.451
-3,-18,6.452
-31,-47,6.453
-76,-57,6.454
-63,-19,6.455
1,8,6.456
27,6,6.457
-15,-2,6.458
-54,-32,6.459
-53,-44,6.46
-51,2,6.461
-42,44,6.462
28,72,6.463
125,66,6.464
140,-43,6.465
74,-134,6.466
42,-167,6.467
65,-149,6.468
34,23,6.469
-61,155,6.47
-102,164,6.471
-46,174,6.472
2,189,6.473
-13,194,6.474
-23,121,6.475
-34,19,6.476
-44,-2,6.477
-47,45,6.478
-28,50,6.479
-6,-7,6.48
19,-44,6.481
38,-24,6.482
34,-13,6.483
22,-55,6.484
-11,-93,6.485
-31,-56,6.486
-7,11,6.487
17,-9,6.488
41,-133,6.489
54,-196,6.49
28,-53,6.491
9,182,6.492
11,267,6.493
2,143,6.494
-39,9,6.495
-62,18,6.496
-66,73,6.497
-54,47,6.498
2,-14,6.499
84,-11,6.5
132,8,6.501
132,-28,6.502
115,-75,6.503
71,-62,6.504
-19,-35,6.505
-102,-62,6.506
-98,-106,6.507
-38,-96,6.508
-21,-59,6.509
-58,-53,6.51
-94,-71,6.511
-136,-76,6.512
-239,-87,6.513
-389,-114,6.514
-345,-99,6.515
-69,-12,6.516
238,58,6.517
370,28,6.518
365,-59,6.519
366,-64,6.52
347,61,6.521
214,195,6.522
75,192,6.523
131,56,6.524
295,-65,6.525
270,-67,6.526
14,4,6.527
-189,41,6.528
-186,33,6.529
-138,36,6.53
-172,59,6.531
-189,54,6.532
-114,25,6.533
-57,7,6.534
-85,16,6.535
-99,13,6.536
-71,-12,6.537
-49,-23,6.538
-52,-9,6.539
-48,11,6.54
-21,31,6.541
-3,47,6.542
-17,40,6.543
-23,0,6.544
-1,-36,6.545
14,-39,6.546
4,-36,6.547
0,-60,6.548
12,-89,6.549
18,-90,6.55
6,-76,6.551
0,-71,6.552
12,-57,6.553
18,-8,6.554
3,51,6.555
7,75,6.556
28,61,6.557
38,51,6.558
34,49,6.559
31,34,6.56
20,-5,6.561
-5,-53,6.562
-23,-103,6.563
-20,-142,6.564
-15,-152,6.565
-22,-108,6.566
-23,6,6.567
-3,163,6.568
14,268,6.569
5,229,6.57
-5,85,6.571
-5,-17,6.572
-20,-5,6.573
-69,43,6.574
-101,27,6.575
-48,-21,6.576
73,-27,6.577
162,-1,6.578
159,-9,6.579
108,-37,6.58
66,-28,6.581
36,5,6.582
3,13,6.583
-23,-3,6.584
-30,-2,6.585
-30,13,6.586
-31,8,6.587
-22,-10,6.588
-3,-20,6.589
4,-34,6.59
-6,-83,6.591
-10,-150,6.592
5,-159,6.593
16,-56,6.594
13,116,6.595
8,218,6.596
0,157,6.597
-7,18,6.598
-14,-43,6.599
-16,3,6.6
-2,39,6.601
6,-7,6.602
-5,-74,6.603
-13,-103,6.604
-9,-123,6.605
-5,-132,6.606
-3,-65,6.607
0,71,6.608
4,151,6.609
8,117,6.61
10,65,6.611
14,77,6.612
18,95,6.613
20,41,6.614
8,-44,6.615
-8,-80,6.616
-11,-76,6.617
2,-69,6.618
26,-50,6.619
38,1,6.62
23,40,6.621
-7,26,6.622
-27,-8,6.623
-36,-6,6.624
-68,13,6.625
-137,7,6.626
-201,-17,6.627
-188,-25,6.628
-59,-18,6.629
139,-19,6.63
282,-24,6.631
269,-17,6.632
166,-8,6.633
112,-7,6.634
152,-5,6.635
106,-3,6.636
-79,0,6.637
-204,4,6.638
-112,8,6.639
44,13,6.64
46,22,6.641
-58,28,6.642
-73,23,6.643
0,21,6.644
16,29,6.645
-32,28,6.646
-31,-1,6.647
15,-33,6.648
16,-70,6.649
-25,-92,6.65
-20,-70,6.651
17,-45,6.652
16,-8,6.653
-22,27,6.654
-34,43,6.655
-26,37,6.656
-43,20,6.657
-61,20,6.658
-30,33,6.659
22,34,6.66
31,22,6.661
15,11,6.662
29,10,6.663
58,4,6.664
57,-3,6.665
41,-5,6.666
44,0,6.667
45,1,6.668
6,-6,6.669
-44,-11,6.67
-56,-11,6.671
-34,-11,6.672
-17,-8,6.673
-11,-3,6.674
-4,0,6.675
0,-2,6.676
-4,-7,6.677
-5,-3,6.678
3,4,6.679
7,4,6.68
0,2,6.681
-5,1,6.682
-4,0,6.683
-2,-3,6.684
1,-6,6.685
6,-3,6.686
16,-2,6.687
23,-5,6.688
15,-8,6.689
12,-11,6.69
30,-12,6.691
42,-12,6.692
36,-8,6.693
24,-9,6.694
-4,-16,6.695
-24,-25,6.696
-20,-31,6.697
1,-25,6.698
13,-7,6.699
2,18,6.7
-13,33,6.701
-13,16,6.702
-5,-16,6.703
-10,-23,6.704
-20,14,6.705
-22,64,6.706
-18,93,6.707
-14,97,6.708
-10,85,6.709
4,47,6.71
27,-11,6.711
50,-56,6.712
68,-64,6.713
66,-50,6.714
33,-39,6.715
-4,-35,6.716
-12,-33,6.717
9,-25,6.718
22,-13,6.719
2,3,6.72
-38,8,6.721
-59,-9,6.722
-52,-32,6.723
-30,-33,6.724
-17,-2,6.725
-15,33,6.726
-12,52,6.727
-5,51,6.728
0,41,6.729
2,35,6.73
2,39,6.731
4,49,6.732
7,50,6.733
7,29,6.734
6,5,6.735
5,-3,6.736
8,3,6.737
10,10,6.738
14,12,6.739
18,16,6.74
17,11,6.741
9,-16,6.742
1,-63,6.743
0,-104,6.744
2,-117,6.745
-1,-96,6.746
-3,-57,6.747
2,-17,6.748
10,3,6.749
16,6,6.75
19,3,6.751
22,4,6.752
23,11,6.753
18,12,6.754
8,7,6.755
2,3,6.756
1,0,6.757
4,-1,6.758
8,-4,6.759
12,-3,6.76
9,4,6.761
1,11,6.762
-3,12,6.763
-3,8,6.764
-3,7,6.765
-7,8,6.766
-8,7,6.767
-2,4,6.768
4,4,6.769
6,6,6.77
4,7,6.771
5,1,6.772
9,-3,6.773
7,-5,6.774
6,-2,6.775
4,-1,6.776
0,-5,6.777
-3,-7,6.778
-1,-5,6.779
5,-4,6.78
3,-4,6.781
-3,-4,6.782
-5,-2,6.783
-1,0,6.784
1,1,6.785
-2,3,6.786
-3,3,6.787
1,4,6.788
5,4,6.789
4,5,6.79
1,5,6.791
1,5,6.792
5,2,6.793
5,0,6.794
5,0,6.795
1,-1,6.796
-6,-6,6.797
-13,-7,6.798
-10,-4,6.799
-2,-2,6.8
0,-1,6.801
-3,0,6.802
-3,-2,6.803
5,-6,6.804
14,-4,6.805
19,0,6.806
21,2,6.807
19,-2,6.808
12,-2,6.809
4,2,6.81
0,4,6.811
-3,0,6.812
-6,-1,6.813
-11,0,6.814
-9,3,6.815
-6,1,6.816
-6,-4,6.817
-6,-2,6.818
0,1,6.819
11,3,6.82
13,5,6.821
6,5,6.822
-2,3,6.823
-5,0,6.824
-9,0,6.825
-12,1,6.826
-9,0,6.827
-3,-2,6.828
1,-1,6.829
1,1,6.83
1,1,6.831
6,-2,6.832
10,0,6.833
8,1,6.834
5,1,6.835
3,-3,6.836
3,-9,6.837
4,-7,6.838
11,-3,6.839
17,0,6.84
15,3,6.841
6,4,6.842
4,1,6.843
6,-3,6.844
7,-5,6.845
1,-3,6.846
1,-3,6.847
5,-4,6.848
5,-4,6.849
1,-2,6.85
2,-2,6.851
10,-5,6.852
14,-4,6.853
8,-2,6.854
3,0,6.855
3,-1,6.856
3,-6,6.857
-1,-7,6.858
-3,-6,6.859
0,-4,6.86
4,0,6.861
1,0,6.862
-5,-5,6.863
-4,-7,6.864
-1,-4,6.865
0,2,6.866
-2,2,6.867
-1,1,6.868
-2,5,6.869
-2,9,6.87
-1,8,6.871
3,4,6.872
6,5,6.873
3,6,6.874
-1,3,6.875
-5,-2,6.876
-8,-5,6.877
-9,-5,6.878
-1,-5,6.879
9,-4,6.88
14,0,6.881
6,3,6.882
-2,-1,6.883
-3,-7,6.884
0,-11,6.885
0,-10,6.886
-3,-9,6.887
-2,-8,6.888
0,-5,6.889
0,-1,6.89
-2,0,6.891
0,4,6.892
7,9,6.893
14,10,6.894
15,9,6.895
9,8,6.896
5,7,6.897
3,5,6.898
7,0,6.899
11,-3,6.9
8,1,6.901
1,7,6.902
-1,7,6.903
3,4,6.904
3,6,6.905
-1,9,6.906
-3,8,6.907
-2,2,6.908
0,-3,6.909
-2,-4,6.91
-2,-3,6.911
2,-5,6.912
9,-6,6.913
12,-8,6.914
13,-12,6.915
11,-14,6.916
9,-19,6.917
5,-20,6.918
5,-15,6.919
8,-7,6.92
10,0,6.921
5,2,6.922
2,5,6.923
4,10,6.924
6,15,6.925
4,19,6.926
0,15,6.927
1,8,6.928
3,3,6.929
0,3,6.93
-1,6,6.931
-2,3,6.932
-5,-1,6.933
-12,-4,6.934
-14,0,6.935
-12,2,6.936
-10,0,6.937
-7,-5,6.938
0,-6,6.939
11,-6,6.94
14,-7,6.941
3,-11,6.942
-5,-15,6.943
-4,-18,6.944
-3,-19,6.945
-6,-16,6.946
-8,-10,6.947
-2,-7,6.948
9,-7,6.949
12,-6,6.95
10,-1,6.951
6,3,6.952
7,7,6.953
10,9,6.954
12,14,6.955
14,18,6.956
9,18,6.957
5,17,6.958
9,17,6.959
11,15,6.96
6,12,6.961
2,8,6.962
4,5,6.963
5,0,6.964
0,-5,6.965
-6,-10,6.966
-11,-10,6.967
-15,-11,6.968
-16,-13,6.969
-17,-14,6.97
-17,-11,6.971
-13,-8,6.972
0,-6,6.973
11,-3,6.974
13,2,6.975
5,4,6.976
0,-1,6.977
-2,-3,6.978
1,-2,6.979
13,0,6.98
22,1,6.981
21,1,6.982
12,1,6.983
4,0,6.984
1,-4,6.985
0,-7,6.986
-1,-8,6.987
0,-7,6.988
5,-6,6.989
14,-6,6.99
17,-7,6.991
13,-7,6.992
5,-3,6.993
-1,1,6.994
-3,5,6.995
-2,6,6.996
1,3,6.997
6,2,6.998
10,4,6.999
9,5,7.0
4,7,7.001
-1,9,7.002
-3,8,7.003
-2,5,7.004
3,1,7.005
8,0,7.006
13,-2,7.007
17,-6,7.008
17,-7,7.009
12,-5,7.01
5,-6,7.011
1,-9,7.012
6,-9,7.013
8,-4,7.014
1,0,7.015
-10,0,7.016
-16,-4,7.017
-12,-1,7.018
-3,3,7.019
4,6,7.02
4,7,7.021
-2,4,7.022
-8,-8,7.023
-7,-23,7.024
-4,-29,7.025
-2,-24,7.026
-2,-22,7.027
-1,-21,7.028
0,-13,7.029
1,6,7.03
2,22,7.031
4,29,7.032
7,33,7.033
8,33,7.034
8,29,7.035
7,15,7.036
3,3,7.037
0,5,7.038
0,8,7.039
1,4,7.04
-4,-1,7.041
-16,-5,7.042
-20,-7,7.043
-12,-12,7.044
2,-15,7.045
13,-11,7.046
16,-4,7.047
16,1,7.048
10,4,7.049
6,7,7.05
6,11,7.051
14,14,7.052
17,16,7.053
11,8,7.054
4,-2,7.055
0,-7,7.056
-4,-5,7.057
-9,2,7.058
-5,7,7.059
5,7,7.06
10,8,7.061
4,7,7.062
0,-1,7.063
5,-11,7.064
13,-18,7.065
14,-18,7.066
11,-15,7.067
10,-14,7.068
2,-13,7.069
-8,-11,7.07
-14,-6,7.071
-10,-1,7.072
-7,2,7.073
-11,1,7.074
-10,2,7.075
-2,4,7.076
2,1,7.077
-1,-3,7.078
-1,-5,7.079
6,-3,7.08
12,-2,7.081
6,-4,7.082
4,-7,7.083
11,-8,7.084
19,-7,7.085
20,-9,7.086
18,-12,7.087
14,-12,7.088
8,-6,7.089
0,6,7.09
-3,14,7.091
-4,18,7.092
-4,23,7.093
-3,27,7.094
1,39,7.095
2,47,7.096
-5,33,7.097
-16,-5,7.098
-21,-56,7.099
-18,-94,7.1
-17,-94,7.101
-17,-52,7.102
-13,11,7.103
-8,44,7.104
-4,8,7.105
-2,-70,7.106
3,-110,7.107
10,-67,7.108
10,9,7.109
5,48,7.11
6,45,7.111
11,40,7.112
16,49,7.113
17,49,7.114
17,36,7.115
17,27,7.116
8,30,7.117
-1,40,7.118
-2,53,7.119
4,80,7.12
5,123,7.121
1,153,7.122
-1,128,7.123
1,42,7.124
1,-52,7.125
0,-88,7.126
8,-74,7.127
19,-76,7.128
19,-117,7.129
8,-133,7.13
1,-72,7.131
7,22,7.132
11,76,7.133
3,75,7.134
-5,33,7.135
-6,-50,7.136
0,-159,7.137
3,-210,7.138
7,-147,7.139
14,-21,7.14
13,72,7.141
4,98,7.142
-3,85,7.143
-3,61,7.144
-3,40,7.145
-5,45,7.146
-5,72,7.147
-2,78,7.148
1,26,7.149
2,-44,7.15
4,-60,7.151
8,-12,7.152
12,32,7.153
12,32,7.154
11,3,7.155
9,-17,7.156
1,-31,7.157
-5,-44,7.158
-3,-41,7.159
9,-4,7.16
17,42,7.161
19,56,7.162
21,34,7.163
26,9,7.164
27,6,7.165
18,13,7.166
5,13,7.167
-4,3,7.168
-13,-4,7.169
-25,-11,7.17
-33,-20,7.171
-26,-25,7.172
-12,-21,7.173
-4,-14,7.174
-4,-14,7.175
-8,-18,7.176
-9,-25,7.177
-9,-26,7.178
-7,-27,7.179
-4,-25,7.18
-5,-18,7.181
-11,-5,7.182
-12,5,7.183
-4,11,7.184
3,12,7.185
2,13,7.186
-3,12,7.187
-5,8,7.188
1,0,7.189
10,-6,7.19
14,-6,7.191
15,-3,7.192
17,-1,7.193
20,-4,7.194
25,-7,7.195
28,-3,7.196
25,23,7.197
13,91,7.198
0,166,7.199
-6,170,7.2
-7,45,7.201
-5,-154,7.202
-1,-287,7.203
1,-265,7.204
-1,-131,7.205
-10,5,7.206
-15,83,7.207
-12,99,7.208
-6,64,7.209
-5,-4,7.21
-5,-74,7.211
-2,-112,7.212
5,-101,7.213
9,-45,7.214
14,38,7.215
15,106,7.216
13,114,7.217
8,82,7.218
9,62,7.219
14,72,7.22
14,55,7.221
4,-10,7.222
-8,-59,7.223
-10,-15,7.224
-6,89,7.225
-4,134,7.226
-1,66,7.227
5,-37,7.228
11,-61,7.229
13,22,7.23
8,138,7.231
4,174,7.232
7,83,7.233
9,-110,7.234
9,-279,7.235
5,-375,7.236
1,-249,7.237
1,-121,7.238
2,15,7.239
2,112,7.24
1,92,7.241
0,76,7.242
-3,74,7.243
-12,66,7.244
-18,42,7.245
-14,17,7.246
-3,-4,7.247
4,-4,7.248
2,62,7.249
0,127,7.25
2,185,7.251
9,219,7.252
12,177,7.253
7,81,7.254
1,-205,7.255
-4,-401,7.256
-3,-355,7.257
8,-157,7.258
27,-9,7.259
42,29,7.26
41,38,7.261
26,69,7.262
7,82,7.263
-7,55,7.264
-16,32,7.265
-19,37,7.266
-17,41,7.267
-15,20,7.268
-18,-4,7.269
-22,-10,7.27
-21,-5,7.271
-16,6,7.272
-14,19,7.273
-16,20,7.274
-10,-9,7.275
-4,-38,7.276
2,-63,7.277
7,-60,7.278
5,25,7.279
5,97,7.28
10,125,7.281
16,146,7.282
20,147,7.283
24,117,7.284
24,-8,7.285
20,-102,7.286
8,-100,7.287
-2,-80,7.288
-2,-8,7.289
-1,-19,7.29
8,-279,7.291
15,-468,7.292
15,-445,7.293
16,-384,7.294
15,-176,7.295
8,90,7.296
4,296,7.297
5,298,7.298
13,155,7.299
18,98,7.3
8,189,7.301
-11,255,7.302
-24,183,7.303
-24,75,7.304
-16,45,7.305
-8,62,7.306
-2,79,7.307
3,115,7.308
12,145,7.309
17,76,7.31
14,-77,7.311
8,-147,7.312
7,-68,7.313
6,22,7.314
5,-47,7.315
2,-215,7.316
-7,-272,7.317
-13,-149,7.318
-7,1,7.319
-3,44,7.32
-7,17,7.321
-8,19,7.322
0,57,7.323
7,80,7.324
5,80,7.325
7,79,7.326
21,72,7.327
30,41,7.328
21,0,7.329
13,-19,7.33
10,-26,7.331
5,-37,7.332
-4,-38,7.333
-14,-14,7.334
-19,24,7.335
-14,41,7.336
-11,32,7.337
-12,20,7.338
-7,7,7.339
9,-12,7.34
23,-36,7.341
23,-54,7.342
14,-62,7.343
8,-67,7.344
4,-61,7.345
0,-41,7.346
-5,-18,7.347
-5,2,7.348
-2,24,7.349
3,29,7.35
8,-20,7.351
13,-102,7.352
18,-116,7.353
23,14,7.354
23,214,7.355
13,296,7.356
-2,166,7.357
-10,-59,7.358
-5,-196,7.359
5,-171,7.36
5,-80,7.361
-4,-52,7.362
-15,-124,7.363
-18,-224,7.364
-16,-255,7.365
-13,-174,7.366
-6,-9,7.367
3,169,7.368
8,267,7.369
10,227,7.37
13,96,7.371
20,-5,7.372
21,-15,7.373
14,27,7.374
5,61,7.375
-1,66,7.376
-5,42,7.377
-7,-16,7.378
-3,-88,7.379
4,-103,7.38
3,-19,7.381
-4,100,7.382
-9,168,7.383
-5,154,7.384
-2,90,7.385
-4,10,7.386
-6,-59,7.387
-4,-96,7.388
0,-101,7.389
3,-95,7.39
7,-104,7.391
9,-117,7.392
9,-107,7.393
5,-63,7.394
5,2,7.395
6,59,7.396
0,93,7.397
-9,107,7.398
-8,105,7.399
5,94,7.4
12,83,7.401
7,76,7.402
4,60,7.403
11,35,7.404
14,13,7.405
5,2,7.406
-3,-9,7.407
0,-28,7.408
8,-41,7.409
11,-35,7.41
9,-23,7.411
9,-21,7.412
8,-21,7.413
4,0,7.414
0,50,7.415
1,85,7.416
2,52,7.417
-3,-14,7.418
-13,-16,7.419
-18,96,7.42
-16,218,7.421
-15,194,7.422
-11,-6,7.423
-2,-248,7.424
9,-399,7.425
14,-433,7.426
13,-376,7.427
12,-230,7.428
15,-26,7.429
11,134,7.43
0,174,7.431
-8,135,7.432
-6,114,7.433
-3,130,7.434
-3,134,7.435
-7,105,7.436
-6,68,7.437
2,39,7.438
15,-2,7.439
23,-45,7.44
22,-53,7.441
13,-39,7.442
6,-48,7.443
9,-71,7.444
15,-65,7.445
14,-45,7.446
11,-72,7.447
12,-120,7.448
16,-88,7.449
13,42,7.45
6,169,7.451
3,209,7.452
6,181,7.453
2,106,7.454
-4,-18,7.455
-10,-154,7.456
-12,-205,7.457
-12,-126,7.458
-10,6,7.459
-6,105,7.46
-1,147,7.461
-1,130,7.462
-5,63,7.463
-8,11,7.464
-11,38,7.465
-12,84,7.466
-9,43,7.467
0,-50,7.468
11,-65,7.469
13,-14,7.47
13,-44,7.471
15,-159,7.472
17,-185,7.473
17,-48,7.474
14,90,7.475
9,70,7.476
0,-25,7.477
-8,-19,7.478
-9,79,7.479
-3,131,7.48
-1,94,7.481
-3,46,7.482
-5,39,7.483
-2,29,7.484
4,-35,7.485
5,-107,7.486
2,-73,7.487
-2,81,7.488
-3,185,7.489
-3,75,7.49
-1,-168,7.491
5,-314,7.492
13,-294,7.493
14,-101,7.494
9,-39,7.495
1,2,7.496
-3,-21,7.497
-5,-41,7.498
-3,-49,7.499
4,-48,7.5
12,-19,7.501
15,26,7.502
15,121,7.503
15,187,7.504
14,160,7.505
8,103,7.506
2,-40,7.507
2,-162,7.508
8,-218,7.509
6,-249,7.51
0,-205,7.511
-2,-150,7.512
4,-66,7.513
6,-106,7.514
3,-38,7.515
-2,6,7.516
-3,-19,7.517
-3,-42,7.518
-4,-50,7.519
-4,-49,7.52
0,-17,7.521
4,32,7.522
7,134,7.523
11,204,7.524
16,175,7.525
14,114,7.526
8,-41,7.527
2,-172,7.528
1,-232,7.529
-5,-265,7.53
-14,-218,7.531
-18,-159,7.532
-13,-68,7.533
-12,10,7.534
-16,48,7.535
-19,129,7.536
-16,245,7.537
-10,291,7.538
3,214,7.539
14,108,7.54
16,74,7.541
18,93,7.542
15,90,7.543
13,52,7.544
13,-6,7.545
11,-88,7.546
0,-163,7.547
-9,-166,7.548
-10,-87,7.549
-10,-16,7.55
-5,-14,7.551
-1,-53,7.552
-2,-72,7.553
-4,-58,7.554
-10,-16,7.555
-7,49,7.556
-1,86,7.557
-2,39,7.558
-4,-75,7.559
-2,-140,7.56
3,-89,7.561
5,13,7.562
7,54,7.563
12,20,7.564
17,-3,7.565
18,35,7.566
18,72,7.567
19,13,7.568
17,-113,7.569
11,-146,7.57
10,-18,7.571
11,120,7.572
8,117,7.573
2,46,7.574
1,66,7.575
1,87,7.576
-2,109,7.577
-6,117,7.578
-2,83,7.579
7,52,7.58
5,33,7.581
-5,4,7.582
-8,-49,7.583
2,-98,7.584
13,-127,7.585
13,-158,7.586
10,-198,7.587
6,-200,7.588
0,-89,7.589
-5,19,7.59
-7,121,7.591
-5,174,7.592
-1,76,7.593
-22,-11,7.594
-20,-43,7.595
-16,-60,7.596
-12,-61,7.597
-6,1,7.598
3,91,7.599
12,127,7.6
13,114,7.601
14,116,7.602
17,108,7.603
19,25,7.604
16,-97,7.605
13,-150,7.606
9,-115,7.607
5,-54,7.608
7,11,7.609
10,102,7.61
10,178,7.611
8,157,7.612
6,50,7.613
-21,-80,7.614
-19,-170,7.615
-16,-210,7.616
-12,-194,7.617
-6,-106,7.618
3,11,7.619
12,86,7.62
13,99,7.621
14,74,7.622
17,39,7.623
19,10,7.624
16,10,7.625
13,37,7.626
9,48,7.627
5,19,7.628
7,-15,7.629
10,-23,7.63
10,-33,7.631
8,-72,7.632
6,-97,7.633
3,-54,7.634
-2,35,7.635
-6,84,7.636
-8,34,7.637
-9,-101,7.638
-6,-292,7.639
2,-459,7.64
10,-445,7.641
14,-148,7.642
15,284,7.643
14,532,7.644
8,465,7.645
-1,291,7.646
-9,253,7.647
-10,314,7.648
-6,293,7.649
-2,169,7.65
0,46,7.651
0,-74,7.652
4,-234,7.653
9,-365,7.654
15,-289,7.655
13,-27,7.656
2,160,7.657
-9,129,7.658
-12,-3,7.659
-4,-77,7.66
-1,-102,7.661
-1,-147,7.662
0,-176,7.663
8,-134,7.664
13,-57,7.665
10,-6,7.666
5,10,7.667
3,-6,7.668
7,-82,7.669
11,-202,7.67
9,-283,7.671
3,-274,7.672
-2,-185,7.673
-2,-6,7.674
4,218,7.675
7,348,7.676
5,194,7.677
3,71,7.678
6,40,7.679
7,34,7.68
-2,104,7.681
-12,146,7.682
-15,97,7.683
-13,54,7.684
-12,32,7.685
-10,-25,7.686
-3,-189,7.687
2,-297,7.688
2,-238,7.689
0,-111,7.69
3,218,7.691
14,424,7.692
22,259,7.693
27,67,7.694
26,-38,7.695
20,131,7.696
14,225,7.697
8,72,7.698
5,-87,7.699
6,-68,7.7
5,-35,7.701
0,-156,7.702
-7,-300,7.703
-8,-298,7.704
-3,-241,7.705
5,-287,7.706
10,-373,7.707
15,-287,7.708
16,23,7.709
12,385,7.71
2,580,7.711
-14,535,7.712
-25,327,7.713
-33,7,7.714
-34,-286,7.715
-32,-344,7.716
-28,-76,7.717
-20,287,7.718
-5,370,7.719
11,131,7.72
15,-103,7.721
2,-102,7.722
-8,31,7.723
-1,133,7.724
16,187,7.725
26,172,7.726
27,-16,7.727
24,-369,7.728
16,-665,7.729
0,-651,7.73
-15,-250,7.731
-24,334,7.732
-32,691,7.733
-39,573,7.734
-30,150,7.735
1,-172,7.736
35,-302,7.737
53,-444,7.738
56,-526,7.739
57,-203,7.74
56,403,7.741
45,632,7.742
29,205,7.743
25,-317,7.744
25,-357,7.745
13,-37,7.746
-10,215,7.747
-24,299,7.748
-23,310,7.749
-20,215,7.75
-24,-9,7.751
-29,-215,7.752
-27,-290,7.753
-23,-265,7.754
-21,-136,7.755
-20,110,7.756
-13,291,7.757
1,195,7.758
15,-47,7.759
22,-114,7.76
22,-8,7.761
12,-12,7.762
-2,-164,7.763
-8,-203,7.764
0,-72,7.765
16,-47,7.766
27,-260,7.767
19,-453,7.768
-4,-338,7.769
-22,-24,7.77
-22,125,7.771
-10,-25,7.772
1,-194,7.773
14,-77,7.774
28,289,7.775
36,591,7.776
26,689,7.777
9,715,7.778
1,680,7.779
9,411,7.78
14,-69,7.781
5,-454,7.782
-7,-536,7.783
-13,-394,7.784
-11,-170,7.785
-7,21,7.786
-5,25,7.787
-3,-180,7.788
-2,-326,7.789
1,-163,7.79
3,169,7.791
1,370,7.792
-8,400,7.793
-25,369,7.794
-33,294,7.795
-37,216,7.796
-26,127,7.797
-10,39,7.798
15,-44,7.799
33,-142,7.8
27,-285,7.801
22,-351,7.802
23,-182,7.803
22,-50,7.804
14,-30,7.805
4,-27,7.806
-6,-81,7.807
-10,-135,7.808
7,-188,7.809
23,-255,7.81
32,-360,7.811
37,-446,7.812
30,-475,7.813
21,-443,7.814
9,-147,7.815
-2,187,7.816
-17,417,7.817
-33,507,7.818
-42,494,7.819
-38,427,7.82
-32,345,7.821
-29,275,7.822
-23,222,7.823
-10,168,7.824
-1,83,7.825
0,-31,7.826
2,-142,7.827
13,-233,7.828
18,-325,7.829
7,-427,7.83
-2,-493,7.831
21,-462,7.832
64,-356,7.833
92,-227,7.834
80,-98,7.835
67,53,7.836
49,206,7.837
34,268,7.838
26,198,7.839
18,80,7.84
13,29,7.841
3,81,7.842
-22,194,7.843
-39,254,7.844
-29,90,7.845
-22,-336,7.846
-22,-722,7.847
-23,-613,7.848
-23,82,7.849
-26,923,7.85
-38,1386,7.851
-45,1314,7.852
-35,922,7.853
-24,392,7.854
-24,-41,7.855
-34,-188,7.856
-40,-45,7.857
-30,165,7.858
-19,210,7.859
-9,92,7.86
4,-54,7.861
33,-183,7.862
71,-326,7.863
84,-471,7.864
48,-573,7.865
-18,-637,7.866
-64,-682,7.867
-56,-674,7.868
-20,-561,7.869
7,-356,7.87
16,-127,7.871
18,61,7.872
17,167,7.873
15,185,7.874
21,130,7.875
26,53,7.876
6,8,7.877
-38,31,7.878
-51,110,7.879
-5,196,7.88
56,217,7.881
79,132,7.882
71,-22,7.883
61,-135,7.884
43,-112,7.885
3,20,7.886
-35,135,7.887
-45,129,7.888
-43,22,7.889
-43,-104,7.89
-23,-169,7.891
28,-117,7.892
68,51,7.893
60,271,7.894
33,383,7.895
34,296,7.896
50,86,7.897
47,-114,7.898
32,-265,7.899
28,-392,7.9
26,-496,7.901
10,-556,7.902
-4,-571,7.903
0,-510,7.904
-7,-298,7.905
-46,100,7.906
-89,574,7.907
-95,944,7.908
-70,1091,7.909
-43,999,7.91
-23,730,7.911
-7,404,7.912
2,164,7.913
-2,32,7.914
-13,-57,7.915
-20,-144,7.916
-20,-227,7.917
-7,-281,7.918
20,-244,7.919
40,-227,7.92
28,-275,7.921
-1,-329,7.922
-16,-402,7.923
-19,-440,7.924
-33,-371,7.925
-39,-308,7.926
-5,-264,7.927
46,-244,7.928
61,-301,7.929
31,-267,7.93
-2,42,7.931
-11,324,7.932
0,521,7.933
38,682,7.934
96,690,7.935
119,624,7.936
62,478,7.937
-33,311,7.938
-67,178,7.939
-23,49,7.94
29,-101,7.941
38,-223,7.942
19,-255,7.943
8,-219,7.944
-1,-188,7.945
-23,-190,7.946
-48,-214,7.947
-62,-224,7.948
-54,-183,7.949
-36,-90,7.95
-33,-41,7.951
-48,-114,7.952
-53,-254,7.953
-17,-347,7.954
35,-309,7.955
45,-159,7.956
18,48,7.957
16,260,7.958
56,384,7.959
79,371,7.96
45,267,7.961
3,171,7.962
-3,121,7.963
-2,82,7.964
-22,11,7.965
-40,-109,7.966
-30,-262,7.967
-11,-435,7.968
1,-642,7.969
16,-854,7.97
35,-903,7.971
23,-548,7.972
-29,155,7.973
-83,938,7.974
-70,1364,7.975
5,1319,7.976
67,1019,7.977
68,660,7.978
31,270,7.979
23,-115,7.98
75,-395,7.981
151,-532,7.982
188,-608,7.983
153,-683,7.984
66,-716,7.985
-21,-638,7.986
-77,-403,7.987
-103,-29,7.988
-109,369,7.989
-85,638,7.99
-19,731,7.991
56,716,7.992
70,632,7.993
-18,410,7.994
-138,112,7.995
-180,-63,7.996
-109,-36,7.997
0,25,7.998
71,-49,7.999
94,-173,8.0
71,-189,8.001
-19,-145,8.002
-146,-191,8.003
-215,-315,8.004
-182,-387,8.005
-119,-393,8.006
-104,-448,8.007
-119,-571,8.008
-102,-640,8.009
-52,-536,8.01
0,-261,8.011
70,119,8.012
179,489,8.013
289,754,8.014
292,793,8.015
141,617,8.016
-54,372,8.017
-119,194,8.018
31,82,8.019
300,-16,8.02
479,-94,8.021
436,-116,8.022
218,-103,8.023
-22,-119,8.024
-179,-178,8.025
-245,-245,8.026
-258,-310,8.027
-229,-392,8.028
-142,-477,8.029
-5,-475,8.03
126,-299,8.031
185,46,8.032
164,407,8.033
110,650,8.034
68,672,8.035
31,515,8.036
-6,306,8.037
0,156,8.038
54,98,8.039
57,98,8.04
-77,78,8.041
-261,-4,8.042
-340,-106,8.043
-291,-147,8.044
-223,-114,8.045
-195,-83,8.046
-168,-97,8.047
-121,-115,8.048
-83,-95,8.049
-39,-63,8.05
46,-66,8.051
138,-104,8.052
178,-147,8.053
176,-191,8.054
186,-219,8.055
192,-234,8.056
128,-208,8.057
-30,-181,8.058
-227,-154,8.059
-396,-112,8.06
-463,-24,8.061
-347,73,8.062
-66,194,8.063
223,300,8.064
367,362,8.065
337,392,8.066
213,322,8.067
91,239,8.068
52,116,8.069
117,36,8.07
214,91,8.071
287,142,8.072
384,179,8.073
567,173,8.074
703,30,8.075
587,-67,8.076
246,-131,8.077
-78,-208,8.078
-256,-252,8.079
-375,-236,8.08
-499,-251,8.081
-526,-367,8.082
-398,-479,8.083
-248,-467,8.084
-227,-366,8.085
-324,-290,8.086
-437,-239,8.087
-516,-135,8.088
-535,66,8.089
-414,353,8.09
-139,663,8.091
129,870,8.092
211,855,8.093
138,639,8.094
136,393,8.095
319,179,8.096
510,57,8.097
468,-46,8.098
236,-97,8.099
93,-137,8.1
158,-141,8.101
254,-143,8.102
194,-141,8.103
56,-140,8.104
36,-138,8.105
147,-148,8.106
235,-195,8.107
210,-264,8.108
120,-397,8.109
19,-483,8.11
-89,-425,8.111
-186,-318,8.112
-221,-66,8.113
-168,164,8.114
-69,281,8.115
-9,359,8.116
-50,418,8.117
-182,405,8.118
-318,285,8.119
-369,120,8.12
-327,3,8.121
-229,-32,8.122
-78,-12,8.123
148,23,8.124
386,37,8.125
500,9,8.126
428,-45,8.127
232,-94,8.128
-5,-124,8.129
-242,-127,8.13
-405,-92,8.131
-388,-44,8.132
-218,-49,8.133
-75,-147,8.134
-80,-283,8.135
-81,-379,8.136
-71,-427,8.137
-48,-414,8.138
13,-273,8.139
76,52,8.14
145,467,8.141
215,758,8.142
284,789,8.143
312,609,8.144
218,367,8.145
101,174,8.146
-84,59,8.147
-237,1,8.148
-290,-29,8.149
-309,-60,8.15
-225,-101,8.151
-133,-132,8.152
-22,-136,8.153
117,-122,8.154
314,-117,8.155
342,-142,8.156
180,-180,8.157
40,-185,8.158
71,-143,8.159
154,-76,8.16
125,-25,8.161
29,-10,8.162
-16,-20,8.163
-44,-33,8.164
-123,-24,8.165
-184,9,8.166
-133,44,8.167
-34,50,8.168
7,32,8.169
25,18,8.17
92,25,8.171
145,31,8.172
91,21,8.173
-59,-6,8.174
-184,-30,8.175
-224,-50,8.176
-196,-55,8.177
-102,-54,8.178
55,-29,8.179
203,-6,8.18
232,7,8.181
115,16,8.182
-21,8,8.183
-11,2,8.184
163,7,8.185
318,13,8.186
285,21,8.187
106,26,8.188
-46,22,8.189
-119,19,8.19
-172,20,8.191
-178,20,8.192
-54,14,8.193
158,17,8.194
231,45,8.195
47,50,8.196
-204,31,8.197
-284,14,8.198
-210,5,8.199
-192,-9,8.2
-308,-18,8.201
-403,-5,8.202
-323,12,8.203
-104,9,8.204
100,-7,8.205
212,-16,8.206
289,-16,8.207
393,-18,8.208
453,-19,8.209
333,-15,8.21
39,-13,8.211
-225,-21,8.212
-280,-23,8.213
-166,-7,8.214
-54,13,8.215
30,6,8.216
26,-31,8.217
29,-50,8.218
57,-22,8.219
45,26,8.22
-86,49,8.221
-196,26,8.222
-242,-19,8.223
-225,-37,8.224
-13,-6,8.225
151,57,8.226
175,106,8.227
176,109,8.228
106,78,8.229
44,43,8.23
5,14,8.231
-7,-52,8.232
60,-203,8.233
158,-486,8.234
306,-831,8.235
273,-1072,8.236
69,-1014,8.237
-110,-563,8.238
-123,150,8.239
-27,829,8.24
32,1221,8.241
16,1292,8.242
0,1162,8.243
38,933,8.244
57,651,8.245
-59,379,8.246
-290,203,8.247
-424,121,8.248
-271,33,8.249
90,-107,8.25
371,-229,8.251
396,-268,8.252
271,-260,8.253
139,-263,8.254
15,-271,8.255
-160,-269,8.256
-314,-239,8.257
-310,-216,8.258
-205,-210,8.259
-176,-202,8.26
-229,-186,8.261
-169,-170,8.262
51,-159,8.263
235,-147,8.264
260,-130,8.265
241,-112,8.266
267,-94,8.267
214,-79,8.268
14,-75,8.269
-140,-72,8.27
-88,-76,8.271
1,-72,8.272
-102,-45,8.273
-245,-18,8.274
-263,7,8.275
-216,32,8.276
31,33,8.277
266,6,8.278
461,-27,8.279
550,-50,8.28
316,-54,8.281
95,-32,8.282
-79,25,8.283
-197,96,8.284
-141,148,8.285
-99,166,8.286
-101,159,8.287
-116,133,8.288
-166,99,8.289
-205,74,8.29
-208,63,8.291
-120,53,8.292
246,31,8.293
-186,-3,8.294
-199,-29,8.295
-164,-43,8.296
21,-54,8.297
197,-48,8.298
343,-21,8.299
409,17,8.3
234,40,8.301
69,40,8.302
-62,31,8.303
-150,18,8.304
-108,0,8.305
-77,-18,8.306
-78,-26,8.307
-89,-17,8.308
-127,-4,8.309
-156,-4,8.31
-158,-9,8.311
-92,-4,8.312
182,8,8.313
426,3,8.314
482,-17,8.315
313,-32,8.316
-88,-31,8.317
-434,-23,8.318
-384,-24,8.319
-66,-28,8.32
75,-28,8.321
-39,-35,8.322
-69,-69,8.323
109,-126,8.324
198,-161,8.325
45,-126,8.326
-107,-24,8.327
-62,85,8.328
36,139,8.329
22,135,8.33
-32,111,8.331
-47,90,8.332
-103,79,8.333
-270,107,8.334
-397,179,8.335
-311,217,8.336
-49,153,8.337
211,88,8.338
352,22,8.339
384,-26,8.34
350,-18,8.341
274,-18,8.342
165,-46,8.343
62,-68,8.344
22,-66,8.345
36,-65,8.346
24,-65,8.347
-62,-60,8.348
-167,-44,8.349
-214,-34,8.35
-213,-48,8.351
-210,-60,8.352
-194,-67,8.353
-119,-78,8.354
13,-110,8.355
137,-163,8.356
177,-229,8.357
91,-239,8.358
-89,-131,8.359
-230,67,8.36
-211,229,8.361
-78,280,8.362
17,249,8.363
42,199,8.364
103,132,8.365
229,41,8.366
307,-25,8.367
270,-24,8.368
185,2,8.369
97,-1,8.37
-30,-28,8.371
-165,-41,8.372
-188,-39,8.373
-95,-44,8.374
-25,-46,8.375
11,-28,8.376
-53,-6,8.377
-97,1,8.378
-82,-5,8.379
-36,-11,8.38
97,-19,8.381
204,-28,8.382
229,-23,8.383
187,-5,8.384
-57,3,8.385
-224,-4,8.386
-161,-9,8.387
-78,-1,8.388
63,8,8.389
146,3,8.39
52,-6,8.391
-23,-12,8.392
-47,-13,8.393
-68,-19,8.394
-90,-23,8.395
-98,-22,8.396
-89,-20,8.397
-106,-13,8.398
-150,-5,8.399
-161,8,8.4
-103,15,8.401
-13,16,8.402
70,20,8.403
134,35,8.404
164,53,8.405
122,54,8.406
20,31,8.407
-32,-10,8.408
65,-43,8.409
228,-54,8.41
241,-48,8.411
51,-49,8.412
-101,-67,8.413
-8,-101,8.414
209,-129,8.415
226,-144,8.416
7,-156,8.417
-142,-158,8.418
-72,-127,8.419
-1,-52,8.42
-110,46,8.421
-245,143,8.422
-213,245,8.423
-93,357,8.424
-27,439,8.425
28,422,8.426
144,298,8.427
227,144,8.428
167,30,8.429
25,-42,8.43
-82,-101,8.431
-140,-151,8.432
-177,-171,8.433
-183,-149,8.434
-128,-83,8.435
-51,-17,8.436
12,48,8.437
58,88,8.438
81,49,8.439
49,11,8.44
-25,-21,8.441
-81,-45,8.442
-89,-41,8.443
-62,-34,8.444
-9,-21,8.445
67,-19,8.446
137,-55,8.447
159,-79,8.448
121,-68,8.449
34,-62,8.45
-58,-71,8.451
-95,-76,8.452
-47,-70,8.453
49,-63,8.454
121,-56,8.455
153,-52,8.456
168,-33,8.457
120,-5,8.458
-41,6,8.459
-222,-7,8.46
-253,-23,8.461
-111,-20,8.462
51,-4,8.463
127,7,8.464
158,4,8.465
188,0,8.466
161,9,8.467
46,30,8.468
-55,52,8.469
-51,67,8.47
-5,67,8.471
-19,44,8.472
-77,12,8.473
-101,-9,8.474
-59,-6,8.475
-2,0,8.476
53,-6,8.477
118,-14,8.478
164,-11,8.479
131,-6,8.48
12,-9,8.481
-126,-11,8.482
-212,-7,8.483
-204,0,8.484
-110,0,8.485
0,0,8.486
19,5,8.487
-68,7,8.488
-142,0,8.489
-102,-5,8.49
4,-5,8.491
70,-1,8.492
95,-1,8.493
130,-3,8.494
137,0,8.495
114,-3,8.496
-1,-14,8.497
-68,-21,8.498
12,-18,8.499
47,-12,8.5
-54,-17,8.501
-97,-37,8.502
33,-92,8.503
110,-199,8.504
24,-327,8.505
-36,-382,8.506
-16,-274,8.507
0,-9,8.508
1,282,8.509
8,458,8.51
29,473,8.511
34,393,8.512
-15,303,8.513
-65,230,8.514
-60,187,8.515
-4,169,8.516
-10,138,8.517
-56,76,8.518
-40,8,8.519
16,-15,8.52
18,-13,8.521
-19,-49,8.522
-11,-124,8.523
24,-163,8.524
15,-132,8.525
-26,-84,8.526
-42,-66,8.527
-37,-63,8.528
-38,-46,8.529
-23,-32,8.53
21,-42,8.531
53,-55,8.532
52,-52,8.533
55,-54,8.534
83,-69,8.535
86,-81,8.536
32,-74,8.537
-52,-55,8.538
-127,-47,8.539
-178,-45,8.54
-180,-39,8.541
-92,-27,8.542
78,-20,8.543
259,-17,8.544
351,-17,8.545
280,-18,8.546
82,-19,8.547
-85,-16,8.548
-87,-7,8.549
18,4,8.55
52,19,8.551
-29,31,8.552
-96,36,8.553
-70,25,8.554
-4,8,8.555
19,0,8.556
15,6,8.557
15,14,8.558
8,12,8.559
-11,1,8.56
-14,-1,8.561
7,7,8.562
32,19,8.563
46,24,8.564
43,24,8.565
-4,25,8.566
-94,27,8.567
-169,24,8.568
-167,16,8.569
-90,7,8.57
10,3,8.571
87,7,8.572
130,12,8.573
150,6,8.574
160,-6,8.575
121,-21,8.576
0,-33,8.577
-139,-37,8.578
-177,-34,8.579
-100,-27,8.58
-31,-10,8.581
-42,13,8.582
-68,34,8.583
-53,41,8.584
-58,33,8.585
-116,21,8.586
-137,16,8.587
-59,23,8.588
44,27,8.589
85,1,8.59
102,-61,8.591
166,-134,8.592
227,-158,8.593
197,-99,8.594
93,20,8.595
19,118,8.596
3,136,8.597
-19,92,8.598
-71,27,8.599
-88,-35,8.6
-32,-87,8.601
32,-102,8.602
50,-68,8.603
37,-15,8.604
17,-1,8.605
-16,-46,8.606
-58,-120,8.607
-56,-167,8.608
10,-137,8.609
81,-21,8.61
88,146,8.611
49,306,8.612
18,397,8.613
-14,375,8.614
-85,264,8.615
-190,164,8.616
-251,98,8.617
-195,46,8.618
-34,35,8.619
154,19,8.62
300,-13,8.621
380,-47,8.622
356,-85,8.623
171,-118,8.624
-137,-138,8.625
-363,-159,8.626
-333,-184,8.627
-128,-192,8.628
17,-148,8.629
16,-100,8.63
-9,-45,8.631
35,4,8.632
86,33,8.633
66,57,8.634
-9,61,8.635
-85,56,8.636
-139,57,8.637
-166,65,8.638
-147,59,8.639
-86,40,8.64
-11,21,8.641
82,1,8.642
219,-21,8.643
340,-40,8.644
321,-45,8.645
156,-38,8.646
6,-35,8.647
-9,-35,8.648
14,-31,8.649
-57,-23,8.65
-152,-17,8.651
-118,-15,8.652
3,-13,8.653
36,-15,8.654
-37,-22,8.655
-81,-29,8.656
-31,-35,8.657
3,-32,8.658
-8,-27,8.659
-20,-23,8.66
-34,-16,8.661
-64,-8,8.662
-141,-6,8.663
-186,-11,8.664
-131,-7,8.665
-82,11,8.666
-49,30,8.667
-18,26,8.668
5,5,8.669
18,-4,8.67
-1,0,8.671
17,-6,8.672
150,-34,8.673
299,-78,8.674
412,-104,8.675
352,-88,8.676
227,-34,8.677
147,11,8.678
79,0,8.679
-29,-46,8.68
-106,-37,8.681
-92,71,8.682
-76,204,8.683
-152,251,8.684
-238,206,8.685
-188,149,8.686
-23,112,8.687
104,68,8.688
123,7,8.689
95,-30,8.69
69,-35,8.691
27,-42,8.692
-30,-70,8.693
-58,-116,8.694
-16,-161,8.695
39,-182,8.696
17,-132,8.697
-72,12,8.698
-134,156,8.699
-125,184,8.7
-97,104,8.701
-97,25,8.702
-89,-2,8.703
-23,-19,8.704
80,-55,8.705
146,-111,8.706
133,-225,8.707
62,-423,8.708
-7,-565,8.709
-43,-405,8.71
-66,86,8.711
-99,577,8.712
-108,713,8.713
-55,467,8.714
30,99,8.715
74,-177,8.716
63,-349,8.717
41,-402,8.718
45,-241,8.719
84,102,8.72
139,373,8.721
144,398,8.722
51,290,8.723
-72,230,8.724
-108,203,8.725
-62,110,8.726
-60,0,8.727
-134,-3,8.728
-169,89,8.729
-103,159,8.73
-18,160,8.731
13,127,8.732
30,78,8.733
67,-17,8.734
95,-130,8.735
96,-200,8.736
110,-217,8.737
139,-207,8.738
131,-195,8.739
86,-179,8.74
57,-150,8.741
53,-102,8.742
22,-49,8.743
-35,-37,8.744
-68,-79,8.745
-85,-100,8.746
-148,-47,8.747
-240,16,8.748
-273,-5,8.749
-196,-64,8.75
-52,-23,8.751
105,110,8.752
228,185,8.753
272,124,8.754
199,25,8.755
68,-5,8.756
2,4,8.757
25,-7,8.758
35,-30,8.759
-37,-26,8.76
-123,-16,8.761
-121,-29,8.762
-21,-45,8.763
96,-39,8.764
149,-28,8.765
109,-32,8.766
10,-33,8.767
-69,-24,8.768
-65,-18,8.769
-1,-24,8.77
49,-23,8.771
57,-11,8.772
43,-3,8.773
5,-5,8.774
-62,2,8.775
-101,17,8.776
-43,17,8.777
71,-2,8.778
117,-28,8.779
59,-67,8.78
-5,-123,8.781
-23,-151,8.782
-53,-81,8.783
-129,84,8.784
-180,220,8.785
-153,218,8.786
-76,118,8.787
10,45,8.788
103,40,8.789
173,42,8.79
160,17,8.791
76,0,8.792
3,12,8.793
-21,21,8.794
-28,6,8.795
-32,-7,8.796
-23,-1,8.797
-16,2,8.798
-16,-11,8.799
-15,-21,8.8
-14,-9,8.801
-16,8,8.802
-30,7,8.803
-38,-3,8.804
-28,-14,8.805
-5,-54,8.806
55,-156,8.807
113,-277,8.808
161,-276,8.809
165,-44,8.81
36,296,8.811
-60,458,8.812
-54,328,8.813
-43,54,8.814
-78,-92,8.815
-199,-69,8.816
-274,-34,8.817
-222,-50,8.818
-88,-45,8.819
41,8,8.82
128,38,8.821
181,21,8.822
221,11,8.823
236,28,8.824
187,27,8.825
71,5,8.826
-40,0,8.827
-86,12,8.828
-81,-1,8.829
-62,-29,8.83
-35,-36,8.831
-5,-46,8.832
-2,-109,8.833
-56,-198,8.834
-147,-200,8.835
-226,-146,8.836
-246,81,8.837
-166,237,8.838
3,178,8.839
187,119,8.84
322,60,8.841
386,16,8.842
350,21,8.843
203,9,8.844
46,-52,8.845
19,-111,8.846
83,-156,8.847
51,-160,8.848
-105,-40,8.849
-192,65,8.85
-116,124,8.851
-28,156,8.852
-42,105,8.853
-87,64,8.854
-57,50,8.855
-20,0,8.856
-70,-39,8.857
-153,-18,8.858
-157,18,8.859
-83,21,8.86
-7,9,8.861
36,10,8.862
71,9,8.863
122,-12,8.864
174,-28,8.865
171,-30,8.866
84,-34,8.867
-26,-48,8.868
-57,-48,8.869
-9,-34,8.87
22,-28,8.871
-16,-36,8.872
-58,-39,8.873
-57,-31,8.874
-39,-17,8.875
-25,-6,8.876
-23,-3,8.877
-21,-1,8.878
-24,-3,8.879
-29,-8,8.88
-39,-20,8.881
-38,-16,8.882
0,36,8.883
27,80,8.884
21,98,8.885
8,98,8.886
-24,36,8.887
-45,-7,8.888
-33,6,8.889
-6,8,8.89
67,-29,8.891
120,-71,8.892
113,-127,8.893
104,-185,8.894
86,-211,8.895
35,-112,8.896
-63,70,8.897
-122,168,8.898
-52,108,8.899
79,14,8.9
125,16,8.901
61,70,8.902
-6,75,8.903
-17,47,8.904
-19,61,8.905
-42,97,8.906
-52,88,8.907
-43,43,8.908
-48,21,8.909
-46,21,8.91
8,5,8.911
79,-28,8.912
94,-58,8.913
68,-83,8.914
69,-74,8.915
83,-40,8.916
34,68,8.917
-47,125,8.918
-55,25,8.919
-1,-55,8.92
-5,-75,8.921
-86,-83,8.922
-132,-55,8.923
-94,-28,8.924
-49,-4,8.925
-41,13,8.926
-19,3,8.927
21,-1,8.928
5,12,8.929
-95,24,8.93
-189,36,8.931
-191,42,8.932
-117,29,8.933
-9,11,8.934
96,-38,8.935
181,-96,8.936
204,-120,8.937
213,-99,8.938
178,-66,8.939
137,-34,8.94
79,-1,8.941
27,19,8.942
-6,18,8.943
-38,13,8.944
-64,20,8.945
-82,28,8.946
-72,22,8.947
-54,19,8.948
-14,30,8.949
19,37,8.95
28,28,8.951
31,14,8.952
13,13,8.953
-1,13,8.954
12,5,8.955
45,3,8.956
77,18,8.957
65,38,8.958
0,36,8.959
-69,11,8.96
-74,-21,8.961
-22,-54,8.962
9,-87,8.963
-13,-103,8.964
-35,-92,8.965
-17,-59,8.966
3,-20,8.967
-7,13,8.968
-21,38,8.969
-11,49,8.97
-5,45,8.971
-35,35,8.972
-65,25,8.973
-46,23,8.974
8,36,8.975
54,45,8.976
64,43,8.977
45,39,8.978
21,29,8.979
13,20,8.98
27,17,8.981
42,3,8.982
38,-42,8.983
15,-76,8.984
3,-76,8.985
19,-60,8.986
49,5,8.987
55,50,8.988
10,31,8.989
-70,20,8.99
-138,37,8.991
-155,47,8.992
-129,32,8.993
-81,7,8.994
-22,-22,8.995
34,4,8.996
62,30,8.997
52,8,8.998
35,-23,8.999
42,-17,9.0
45,4,9.001
-1,9,9.002
-88,10,9.003
-143,25,9.004
-105,30,9.005
3,7,9.006
101,-17,9.007
144,-22,9.008
151,-16,9.009
143,-19,9.01
108,-22,9.011
45,-17,9.012
8,-16,9.013
31,-23,9.014
67,-24,9.015
42,-18,9.016
-30,-21,9.017
-73,-26,9.018
-62,-25,9.019
-48,-16,9.02
-53,-11,9.021
-49,-8,9.022
-24,-5,9.023
-6,-2,9.024
-10,-6,9.025
-19,-9,9.026
-23,-6,9.027
-35,-1,9.028
-54,-3,9.029
-60,-4,9.03
-49,-1,9.031
-26,0,9.032
8,-2,9.033
54,-4,9.034
97,1,9.035
112,5,9.036
83,-1,9.037
9,-6,9.038
-74,-1,9.039
-97,6,9.04
-28,8,9.041
75,7,9.042
136,7,9.043
160,8,9.044
182,6,9.045
161,4,9.046
45,3,9.047
-87,1,9.048
-97,-6,9.049
7,-11,9.05
62,-11,9.051
-8,-9,9.052
-88,-7,9.053
-86,-5,9.054
-56,5,9.055
-90,17,9.056
-146,19,9.057
-125,13,9.058
-45,9,9.059
6,11,9.06
10,23,9.061
12,39,9.062
19,49,9.063
4,48,9.064
-19,34,9.065
-16,8,9.066
2,-30,9.067
2,-69,9.068
-5,-87,9.069
1,-75,9.07
12,-40,9.071
9,-4,9.072
5,21,9.073
11,-12,9.074
17,-7,9.075
5,-1,9.076
-5,11,9.077
1,20,9.078
23,22,9.079
41,20,9.08
56,9,9.081
66,0,9.082
64,1,9.083
52,1,9.084
40,-6,9.085
33,-11,9.086
22,-6,9.087
5,-3,9.088
-9,-6,9.089
-25,-7,9.09
-51,-4,9.091
-69,-1,9.092
-49,-4,9.093
7,-8,9.094
46,-5,9.095
25,-1,9.096
-28,7,9.097
-58,13,9.098
-45,14,9.099
-12,13,9.1
20,6,9.101
45,0,9.102
53,1,9.103
31,1,9.104
-9,-4,9.105
-33,-7,9.106
-17,-4,9.107
25,-2,9.108
58,-4,9.109
59,-5,9.11
32,-3,9.111
-1,-1,9.112
-19,-3,9.113
-22,-4,9.114
-18,-3,9.115
-13,-3,9.116
-12,-6,9.117
-12,-5,9.118
-11,-3,9.119
-8,-2,9.12
-13,-1,9.121
-32,0,9.122
-52,2,9.123
-47,-1,9.124
-3,-6,9.125
57,-3,9.126
105,3,9.127
127,3,9.128
118,-4,9.129
64,-5,9.13
-20,0,9.131
-89,3,9.132
-107,3,9.133
-88,1,9.134
-53,6,9.135
-16,5,9.136
25,-2,9.137
49,-5,9.138
18,-4,9.139
-10,-1,9.14
-33,2,9.141
-48,4,9.142
-36,6,9.143
-23,4,9.144
-12,2,9.145
-1,4,9.146
6,7,9.147
12,5,9.148
12,-2,9.149
9,-5,9.15
-3,-3,9.151
-10,-1,9.152
-2,-1,9.153
9,-2,9.154
19,0,9.155
34,1,9.156
70,-4,9.157
100,-7,9.158
84,-5,9.159
23,-1,9.16
-32,0,9.161
-45,0,9.162
-38,-1,9.163
-40,1,9.164
-42,2,9.165
-25,0,9.166
1,-3,9.167
11,-5,9.168
5,-2,9.169
5,0,9.17
14,2,9.171
15,1,9.172
10,0,9.173
9,-2,9.174
12,-4,9.175
10,-6,9.176
3,-4,9.177
3,-3,9.178
10,-3,9.179
13,-2,9.18
8,0,9.181
3,1,9.182
3,0,9.183
5,-1,9.184
6,-2,9.185
4,-2,9.186
3,0,9.187
2,3,9.188
2,9,9.189
2,16,9.19
5,22,9.191
6,29,9.192
5,34,9.193
0,40,9.194
-2,38,9.195
-6,5,9.196
-11,-50,9.197
-12,-94,9.198
-7,-102,9.199
-2,-79,9.2
0,-41,9.201
0,0,9.202
7,30,9.203
21,33,9.204
29,19,9.205
17,12,9.206
-4,19,9.207
-16,21,9.208
-9,11,9.209
4,8,9.21
8,16,9.211
1,18,9.212
0,9,9.213
1,-2,9.214
4,-1,9.215
4,4,9.216
3,-3,9.217
2,-8,9.218
2,-4,9.219
3,4,9.22
5,7,9.221
3,4,9.222
0,1,9.223
-2,-3,9.224
-2,-4,9.225
-2,-2,9.226
0,0,9.227
4,-1,9.228
9,-2,9.229
12,1,9.23
12,4,9.231
12,5,9.232
7,5,9.233
0,4,9.234
-5,2,9.235
-8,0,9.236
-10,-4,9.237
-14,-7,9.238
-16,-6,9.239
-18,-5,9.24
-22,-3,9.241
-21,-2,9.242
-11,-3,9.243
1,-5,9.244
7,-5,9.245
3,-5,9.246
-4,-5,9.247
-7,-3,9.248
-7,0,9.249
-5,3,9.25
-2,1,9.251
4,0,9.252
9,0,9.253
9,0,9.254
9,-1,9.255
10,-3,9.256
10,-7,9.257
12,-6,9.258
18,-4,9.259
27,-2,9.26
28,1,9.261
18,3,9.262
10,1,9.263
11,-2,9.264
13,-2,9.265
9,0,9.266
5,0,9.267
5,-4,9.268
9,-5,9.269
5,-1,9.27
1,1,9.271
3,0,9.272
10,-3,9.273
9,-8,9.274
5,-7,9.275
1,-2,9.276
-1,-2,9.277
-3,-2,9.278
-2,-4,9.279
2,-3,9.28
5,0,9.281
1,0,9.282
-3,-4,9.283
-2,-6,9.284
-2,-5,9.285
-3,-3,9.286
-5,-4,9.287
-4,-4,9.288
-1,-2,9.289
-3,0,9.29
-8,0,9.291
-6,0,9.292
0,2,9.293
4,3,9.294
2,2,9.295
-1,1,9.296
-1,-2,9.297
4,-2,9.298
11,-3,9.299
14,-2,9.3
9,1,9.301
5,7,9.302
8,7,9.303
7,1,9.304
0,-5,9.305
-4,-6,9.306
-2,-2,9.307
3,1,9.308
2,2,9.309
-1,0,9.31
-3,-2,9.311
0,-1,9.312
2,1,9.313
2,1,9.314
2,0,9.315
1,-1,9.316
-3,-3,9.317
-4,-1,9.318
3,1,9.319
11,0,9.32
8,-1,9.321
-1,-1,9.322
-1,0,9.323
2,-1,9.324
4,-1,9.325
0,0,9.326
-2,0,9.327
0,0,9.328
-1,1,9.329
-2,2,9.33
0,0,9.331
4,-2,9.332
7,-2,9.333
7,0,9.334
7,2,9.335
4,-2,9.336
-3,-8,9.337
-8,-7,9.338
-1,-1,9.339
11,1,9.34
12,2,9.341
4,2,9.342
0,3,9.343
3,1,9.344
3,-3,9.345
0,-6,9.346
1,-4,9.347
6,-2,9.348
7,0,9.349
2,4,9.35
0,5,9.351
5,2,9.352
10,-2,9.353
8,-5,9.354
7,-5,9.355
3,-7,9.356
-2,-12,9.357
-5,-12,9.358
-1,-8,9.359
10,-3,9.36
11,1,9.361
4,5,9.362
0,10,9.363
1,12,9.364
-1,11,9.365
-4,9,9.366
-6,3,9.367
-2,-3,9.368
0,-6,9.369
-2,-3,9.37
0,0,9.371
5,-2,9.372
8,-2,9.373
4,4,9.374
4,14,9.375
4,22,9.376
1,20,9.377
-3,13,9.378
-3,2,9.379
4,-8,9.38
8,-12,9.381
2,-12,9.382
-1,-11,9.383
2,-13,9.384
6,-10,9.385
5,-3,9.386
3,7,9.387
2,12,9.388
2,13,9.389
1,12,9.39
4,8,9.391
8,-2,9.392
8,-8,9.393
1,-11,9.394
-2,-9,9.395
-2,-9,9.396
0,-13,9.397
2,-17,9.398
7,-17,9.399
13,-12,9.4
11,-4,9.401
2,2,9.402
-4,4,9.403
-5,0,9.404
-2,-4,9.405
-2,-5,9.406
-2,-2,9.407
-2,2,9.408
0,6,9.409
2,8,9.41
4,7,9.411
4,4,9.412
4,1,9.413
0,-3,9.414
-5,-7,9.415
-11,-9,9.416
-13,-10,9.417
-5,-7,9.418
6,0,9.419
14,8,9.42
14,10,9.421
10,10,9.422
8,7,9.423
8,3,9.424
4,0,9.425
-3,0,9.426
-10,-1,9.427
-16,-2,9.428
-15,-5,9.429
-9,-4,9.43
1,-4,9.431
13,-5,9.432
20,-4,9.433
17,-4,9.434
7,-3,9.435
0,-3,9.436
1,-7,9.437
9,-10,9.438
15,-11,9.439
16,-9,9.44
13,-5,9.441
9,-1,9.442
3,0,9.443
0,-3,9.444
-2,1,9.445
-1,10,9.446
-2,15,9.447
-5,11,9.448
-7,6,9.449
-5,5,9.45
0,7,9.451
6,7,9.452
11,9,9.453
9,10,9.454
7,10,9.455
6,5,9.456
4,-3,9.457
0,-6,9.458
-2,-7,9.459
0,-9,9.46
3,-6,9.461
1,0,9.462
0,3,9.463
3,4,9.464
5,5,9.465
1,8,9.466
-2,5,9.467
-2,-1,9.468
3,-3,9.469
6,2,9.47
7,8,9.471
10,11,9.472
14,13,9.473
12,10,9.474
6,6,9.475
2,10,9.476
4,20,9.477
7,30,9.478
11,16,9.479
13,-21,9.48
11,-61,9.481
6,-86,9.482
0,-88,9.483
-3,-66,9.484
-8,-26,9.485
-13,12,9.486
-11,28,9.487
-3,21,9.488
3,12,9.489
5,15,9.49
8,20,9.491
8,19,9.492
3,17,9.493
-4,18,9.494
-3,17,9.495
0,11,9.496
-1,1,9.497
-4,-3,9.498
0,-2,9.499
12,-3,9.5
17,-5,9.501
8,-6,9.502
-2,-9,9.503
-3,-12,9.504
-2,-8,9.505
-1,-1,9.506
1,5,9.507
7,5,9.508
11,2,9.509
10,0,9.51
9,5,9.511
8,21,9.512
8,35,9.513
4,27,9.514
0,-6,9.515
-2,-44,9.516
-4,-61,9.517
-4,-47,9.518
-2,-23,9.519
2,-3,9.52
4,11,9.521
-1,18,9.522
-8,14,9.523
-9,6,9.524
-6,1,9.525
-5,6,9.526
-9,27,9.527
-11,77,9.528
-7,155,9.529
0,221,9.53
4,234,9.531
0,189,9.532
1,113,9.533
2,-22,9.534
3,-214,9.535
-1,-386,9.536
-7,-430,9.537
-7,-330,9.538
1,-181,9.539
12,-57,9.54
14,34,9.541
9,83,9.542
5,67,9.543
5,10,9.544
5,-17,9.545
3,3,9.546
2,21,9.547
2,23,9.548
0,68,9.549
-3,196,9.55
-1,348,9.551
4,390,9.552
10,251,9.553
6,-35,9.554
3,-282,9.555
5,-334,9.556
6,-236,9.557
3,-128,9.558
1,-77,9.559
7,-46,9.56
12,-23,9.561
8,-27,9.562
1,-34,9.563
2,8,9.564
6,76,9.565
4,104,9.566
-1,89,9.567
-1,80,9.568
2,84,9.569
3,77,9.57
2,72,9.571
4,87,9.572
7,94,9.573
5,41,9.574
3,-45,9.575
1,-115,9.576
2,-147,9.577
4,-142,9.578
8,-95,9.579
10,-15,9.58
4,61,9.581
-1,101,9.582
-7,108,9.583
-11,85,9.584
-5,26,9.585
0,-38,9.586
1,-35,9.587
5,62,9.588
11,178,9.589
16,180,9.59
15,26,9.591
14,-188,9.592
16,-305,9.593
17,-263,9.594
13,-118,9.595
7,1,9.596
8,32,9.597
10,16,9.598
10,5,9.599
10,7,9.6
7,8,9.601
-1,7,9.602
-13,13,9.603
-17,36,9.604
-13,97,9.605
-14,205,9.606
-17,288,9.607
-15,236,9.608
-6,37,9.609
1,-168,9.61
0,-233,9.611
-6,-160,9.612
-9,-73,9.613
-11,-48,9.614
-13,-62,9.615
-15,-74,9.616
-15,-80,9.617
-14,-80,9.618
-5,-56,9.619
7,-47,9.62
16,-87,9.621
15,-107,9.622
11,-69,9.623
14,-27,9.624
18,26,9.625
19,86,9.626
18,163,9.627
19,219,9.628
20,213,9.629
15,183,9.63
4,80,9.631
-2,0,9.632
-1,-15,9.633
12,-25,9.634
10,-23,9.635
7,-23,9.636
2,-38,9.637
-1,-94,9.638
4,-175,9.639
10,-215,9.64
13,-187,9.641
16,-147,9.642
11,-136,9.643
5,-111,9.644
3,-21,9.645
1,100,9.646
2,202,9.647
2,297,9.648
-4,395,9.649
-10,397,9.65
-7,202,9.651
-4,-108,9.652
5,-316,9.653
11,-318,9.654
9,-166,9.655
7,19,9.656
2,153,9.657
-1,172,9.658
4,42,9.659
9,-135,9.66
12,-178,9.661
14,-56,9.662
10,77,9.663
5,109,9.664
3,86,9.665
1,76,9.666
2,49,9.667
2,-30,9.668
-3,-111,9.669
-8,-135,9.67
-6,-122,9.671
-3,-98,9.672
5,-55,9.673
9,4,9.674
1,43,9.675
-1,43,9.676
0,28,9.677
0,29,9.678
5,33,9.679
17,33,9.68
19,32,9.681
4,38,9.682
-10,59,9.683
-7,111,9.684
3,162,9.685
2,125,9.686
-5,-31,9.687
-7,-195,9.688
-1,-229,9.689
3,-137,9.69
1,-43,9.691
1,-12,9.692
2,-5,9.693
2,23,9.694
-1,71,9.695
-9,124,9.696
-14,145,9.697
-13,101,9.698
-5,0,9.699
5,-73,9.7
11,-72,9.701
6,-73,9.702
1,-154,9.703
-2,-248,9.704
-3,-239,9.705
-1,-130,9.706
8,-15,9.707
23,63,9.708
30,135,9.709
31,221,9.71
29,297,9.711
25,318,9.712
14,235,9.713
-3,25,9.714
-13,-188,9.715
-16,-234,9.716
-20,-122,9.717
-24,-23,9.718
-16,-37,9.719
3,-64,9.72
11,-22,9.721
2,23,9.722
-1,4,9.723
6,-11,9.724
10,31,9.725
3,61,9.726
-2,6,9.727
-4,-74,9.728
-5,-97,9.729
-8,-74,9.73
-4,-42,9.731
7,19,9.732
12,110,9.733
7,171,9.734
4,141,9.735
5,51,9.736
1,-23,9.737
-3,-54,9.738
1,-72,9.739
16,-97,9.74
22,-115,9.741
16,-106,9.742
11,-59,9.743
15,11,9.744
17,63,9.745
8,71,9.746
-4,55,9.747
-8,47,9.748
-5,48,9.749
-1,41,9.75
0,32,9.751
0,40,9.752
-1,58,9.753
0,58,9.754
1,25,9.755
2,-22,9.756
1,-50,9.757
1,-25,9.758
5,70,9.759
7,208,9.76
2,289,9.761
-5,192,9.762
-6,-75,9.763
0,-328,9.764
2,-373,9.765
0,-231,9.766
-1,-95,9.767
-1,-86,9.768
-3,-144,9.769
-7,-153,9.77
-3,-84,9.771
7,19,9.772
14,98,9.773
11,113,9.774
5,58,9.775
0,-21,9.776
1,-63,9.777
3,-51,9.778
10,-16,9.779
16,42,9.78
15,146,9.781
12,259,9.782
6,278,9.783
1,153,9.784
0,-37,9.785
