Deltoid,Bicep,Time
16,-1,0.0
15,4,0.001
4,8,0.002
0,7,0.003
7,2,0.004
11,0,0.005
6,1,0.006
1,3,0.007
3,2,0.008
8,2,0.009
8,2,0.01
6,-1,0.011
5,-4,0.012
7,-3,0.013
7,-1,0.014
6,-1,0.015
3,-5,0.016
-1,-9,0.017
-2,-11,0.018
5,-9,0.019
14,-6,0.02
13,-1,0.021
4,3,0.022
-1,3,0.023
2,0,0.024
3,-1,0.025
0,2,0.026
-5,4,0.027
-6,1,0.028
-3,-3,0.029
0,-3,0.03
0,0,0.031
-1,2,0.032
-2,3,0.033
3,0,0.034
1,1,0.035
-1,2,0.036
-2,0,0.037
-2,-1,0.038
6,-1,0.039
13,-1,0.04
14,0,0.041
14,2,0.042
10,3,0.043
7,3,0.044
9,1,0.045
10,1,0.046
6,5,0.047
3,7,0.048
7,1,0.049
10,-4,0.05
8,-5,0.051
7,-6,0.052
7,-2,0.053
3,1,0.054
1,2,0.055
-1,-1,0.056
-2,-7,0.057
-2,-7,0.058
6,-4,0.059
13,-3,0.06
14,-2,0.061
14,0,0.062
10,2,0.063
7,0,0.064
9,-2,0.065
10,-1,0.066
6,0,0.067
3,-1,0.068
7,-2,0.069
10,-2,0.07
8,-1,0.071
7,-1,0.072
7,0,0.073
5,0,0.074
0,-2,0.075
-4,-6,0.076
-7,-7,0.077
-4,-4,0.078
4,-3,0.079
12,-4,0.08
13,-4,0.081
5,1,0.082
2,3,0.083
3,0,0.084
2,-2,0.085
0,0,0.086
0,3,0.087
3,0,0.088
2,-1,0.089
-1,1,0.09
0,2,0.091
3,0,0.092
6,0,0.093
3,0,0.094
0,2,0.095
-2,-1,0.096
-5,-7,0.097
-7,-4,0.098
0,2,0.099
9,6,0.1
8,6,0.101
1,4,0.102
-3,3,0.103
0,0,0.104
4,-2,0.105
1,0,0.106
-3,2,0.107
-3,1,0.108
-1,-4,0.109
0,-5,0.11
2,-1,0.111
5,1,0.112
4,1,0.113
1,0,0.114
0,0,0.115
0,0,0.116
1,-3,0.117
1,-5,0.118
5,-2,0.119
10,0,0.12
9,0,0.121
5,-1,0.122
3,0,0.123
5,0,0.124
6,-2,0.125
3,-5,0.126
1,-3,0.127
1,-2,0.128
1,-2,0.129
0,-3,0.13
0,-2,0.131
3,-1,0.132
6,-1,0.133
1,-1,0.134
-3,-1,0.135
-6,0,0.136
-6,-4,0.137
-4,-6,0.138
1,-5,0.139
6,-2,0.14
6,2,0.141
6,3,0.142
4,2,0.143
3,-1,0.144
3,-3,0.145
4,-1,0.146
3,0,0.147
2,-2,0.148
1,-5,0.149
0,-5,0.15
0,-2,0.151
0,-1,0.152
1,-3,0.153
1,-5,0.154
0,-5,0.155
-1,0,0.156
-1,-1,0.157
-1,-6,0.158
2,-7,0.159
10,-3,0.16
13,2,0.161
8,4,0.162
3,3,0.163
9,1,0.164
13,3,0.165
9,6,0.166
2,6,0.167
3,6,0.168
7,4,0.169
8,4,0.17
5,5,0.171
6,4,0.172
9,2,0.173
7,-1,0.174
1,-3,0.175
-4,-4,0.176
-7,-6,0.177
-7,-5,0.178
0,-1,0.179
8,3,0.18
7,2,0.181
-1,-1,0.182
-4,-2,0.183
1,0,0.184
7,2,0.185
4,0,0.186
0,-4,0.187
2,-4,0.188
5,-2,0.189
2,1,0.19
-1,0,0.191
-1,-3,0.192
3,-2,0.193
2,-2,0.194
6,-2,0.195
6,-2,0.196
0,-7,0.197
-5,-8,0.198
-3,-6,0.199
4,-2,0.2
7,1,0.201
2,2,0.202
-1,1,0.203
1,0,0.204
3,1,0.205
3,6,0.206
1,4,0.207
1,-3,0.208
1,-8,0.209
1,-5,0.21
1,-1,0.211
1,-1,0.212
2,-1,0.213
0,-3,0.214
-1,-2,0.215
-4,-1,0.216
-7,-4,0.217
-6,-6,0.218
0,-4,0.219
8,-2,0.22
9,0,0.221
3,3,0.222
1,2,0.223
3,1,0.224
4,0,0.225
0,-2,0.226
-2,-1,0.227
1,0,0.228
5,-1,0.229
5,-3,0.23
4,-1,0.231
4,0,0.232
6,0,0.233
3,0,0.234
1,0,0.235
0,-3,0.236
-1,-5,0.237
-1,-4,0.238
4,-3,0.239
8,-1,0.24
8,1,0.241
8,5,0.242
6,6,0.243
5,4,0.244
5,1,0.245
4,1,0.246
4,0,0.247
3,0,0.248
1,1,0.249
0,3,0.25
0,3,0.251
1,0,0.252
3,0,0.253
3,-1,0.254
-1,-2,0.255
-6,-3,0.256
-8,-3,0.257
-7,-4,0.258
0,-4,0.259
10,-2,0.26
14,2,0.261
8,5,0.262
1,3,0.263
2,1,0.264
6,1,0.265
5,1,0.266
1,1,0.267
0,1,0.268
2,1,0.269
1,0,0.27
-1,-3,0.271
0,-5,0.272
1,-2,0.273
1,0,0.274
-1,-1,0.275
-2,-2,0.276
-3,-3,0.277
-5,-3,0.278
-2,-5,0.279
7,-4,0.28
13,2,0.281
8,6,0.282
2,2,0.283
2,-3,0.284
9,-2,0.285
9,2,0.286
3,2,0.287
2,-1,0.288
5,-2,0.289
5,0,0.29
3,0,0.291
2,-1,0.292
7,0,0.293
3,0,0.294
1,-3,0.295
-1,-6,0.296
-2,-7,0.297
-1,-6,0.298
3,-4,0.299
7,-3,0.3
5,0,0.301
4,2,0.302
4,2,0.303
3,0,0.304
4,1,0.305
6,1,0.306
6,0,0.307
5,0,0.308
3,0,0.309
3,0,0.31
3,0,0.311
3,-1,0.312
3,0,0.313
3,-1,0.314
0,-3,0.315
-2,-4,0.316
-3,-7,0.317
-2,-6,0.318
3,-3,0.319
8,1,0.32
6,4,0.321
5,4,0.322
5,2,0.323
4,-1,0.324
5,0,0.325
7,3,0.326
7,2,0.327
6,0,0.328
4,-1,0.329
3,1,0.33
3,2,0.331
2,-1,0.332
2,-3,0.333
0,-3,0.334
-1,0,0.335
-3,2,0.336
-5,-3,0.337
-5,-7,0.338
2,-4,0.339
11,-1,0.34
9,-1,0.341
1,0,0.342
-3,0,0.343
1,0,0.344
6,0,0.345
5,1,0.346
2,1,0.347
2,1,0.348
2,0,0.349
2,-1,0.35
3,-1,0.351
4,-2,0.352
7,-2,0.353
3,-2,0.354
0,-2,0.355
-2,-1,0.356
-4,-3,0.357
-7,-5,0.358
-4,-4,0.359
4,0,0.36
9,5,0.361
4,6,0.362
0,4,0.363
1,-1,0.364
5,-3,0.365
5,-3,0.366
3,-1,0.367
6,-2,0.368
8,-1,0.369
7,-1,0.37
4,0,0.371
5,0,0.372
7,2,0.373
4,1,0.374
2,0,0.375
0,-2,0.376
-1,-4,0.377
0,-3,0.378
5,0,0.379
10,2,0.38
10,2,0.381
10,1,0.382
7,-1,0.383
4,-2,0.384
4,0,0.385
3,2,0.386
3,0,0.387
1,-2,0.388
2,-3,0.389
3,-1,0.39
3,0,0.391
2,0,0.392
2,3,0.393
5,3,0.394
1,2,0.395
-2,-2,0.396
-3,-6,0.397
-2,-2,0.398
6,0,0.399
13,0,0.4
13,0,0.401
13,1,0.402
9,3,0.403
5,2,0.404
5,0,0.405
4,0,0.406
2,0,0.407
0,0,0.408
1,0,0.409
3,0,0.41
2,-1,0.411
1,-1,0.412
1,0,0.413
2,-3,0.414
2,0,0.415
1,2,0.416
-1,-2,0.417
-2,-5,0.418
5,-5,0.419
16,-3,0.42
19,1,0.421
10,3,0.422
2,0,0.423
2,-2,0.424
4,-2,0.425
2,-3,0.426
0,-3,0.427
2,-1,0.428
4,0,0.429
1,2,0.43
-1,2,0.431
0,3,0.432
2,3,0.433
-1,-3,0.434
-3,0,0.435
-4,2,0.436
-5,-2,0.437
-6,-5,0.438
-2,-5,0.439
8,-3,0.44
12,1,0.441
3,3,0.442
-3,0,0.443
-2,-2,0.444
0,-2,0.445
0,-3,0.446
-3,-3,0.447
0,-1,0.448
3,0,0.449
3,2,0.45
0,2,0.451
1,3,0.452
3,3,0.453
3,1,0.454
0,-2,0.455
-3,-4,0.456
-10,-6,0.457
-12,-6,0.458
0,-4,0.459
9,-1,0.46
5,0,0.461
3,1,0.462
3,0,0.463
5,0,0.464
5,2,0.465
5,3,0.466
1,2,0.467
0,0,0.468
0,0,0.469
1,0,0.47
1,0,0.471
1,0,0.472
7,1,0.473
2,0,0.474
0,0,0.475
-2,-2,0.476
-6,-5,0.477
-7,-6,0.478
0,-4,0.479
5,-1,0.48
3,4,0.481
2,5,0.482
2,3,0.483
3,1,0.484
3,2,0.485
3,3,0.486
1,1,0.487
0,-3,0.488
0,-4,0.489
1,-2,0.49
1,-1,0.491
1,0,0.492
4,1,0.493
7,-1,0.494
3,-3,0.495
-3,-4,0.496
-4,-8,0.497
-1,-9,0.498
6,-8,0.499
12,-4,0.5
10,1,0.501
4,3,0.502
0,1,0.503
3,-1,0.504
5,-1,0.505
3,0,0.506
1,0,0.507
2,0,0.508
5,0,0.509
2,2,0.51
-1,4,0.511
-1,2,0.512
3,2,0.513
5,0,0.514
3,0,0.515
0,0,0.516
-4,-3,0.517
-6,-5,0.518
-3,-3,0.519
2,-2,0.52
5,0,0.521
2,1,0.522
0,0,0.523
4,-2,0.524
7,-2,0.525
4,-2,0.526
0,-1,0.527
-1,0,0.528
3,1,0.529
5,1,0.53
4,0,0.531
1,-2,0.532
2,-1,0.533
4,0,0.534
4,0,0.535
-1,-4,0.536
-7,-9,0.537
-6,-7,0.538
2,-2,0.539
10,3,0.54
7,2,0.541
0,0,0.542
0,-2,0.543
7,0,0.544
10,3,0.545
4,3,0.546
1,0,0.547
2,-1,0.548
3,-2,0.549
2,-2,0.55
2,0,0.551
4,2,0.552
4,9,0.553
4,8,0.554
6,2,0.555
5,-5,0.556
-3,-7,0.557
-8,-5,0.558
-2,-3,0.559
10,-1,0.56
12,2,0.561
6,5,0.562
2,5,0.563
4,1,0.564
3,-1,0.565
-1,0,0.566
-2,0,0.567
0,-1,0.568
2,-1,0.569
1,0,0.57
1,-2,0.571
3,-4,0.572
3,-2,0.573
1,1,0.574
0,0,0.575
-1,-3,0.576
-3,-8,0.577
-4,-6,0.578
1,-2,0.579
11,-3,0.58
12,-5,0.581
4,-2,0.582
1,2,0.583
4,3,0.584
5,1,0.585
1,0,0.586
-1,1,0.587
1,1,0.588
3,1,0.589
2,1,0.59
1,0,0.591
3,0,0.592
6,1,0.593
5,2,0.594
2,0,0.595
0,-3,0.596
-3,-8,0.597
-6,-8,0.598
-1,-4,0.599
3,1,0.6
6,8,0.601
9,9,0.602
2,3,0.603
-2,0,0.604
-1,1,0.605
0,4,0.606
-1,5,0.607
-2,0,0.608
0,-2,0.609
2,0,0.61
2,-1,0.611
2,-3,0.612
1,-4,0.613
4,-3,0.614
2,-1,0.615
0,-1,0.616
-3,-4,0.617
-5,-4,0.618
-1,-4,0.619
3,-3,0.62
5,0,0.621
7,2,0.622
2,2,0.623
-2,0,0.624
-1,1,0.625
0,3,0.626
-1,3,0.627
-2,1,0.628
0,-2,0.629
2,-3,0.63
2,-4,0.631
2,-3,0.632
1,0,0.633
0,0,0.634
-1,-1,0.635
-4,-3,0.636
-7,-4,0.637
-5,-6,0.638
3,-5,0.639
15,-3,0.64
15,0,0.641
5,3,0.642
-1,2,0.643
0,0,0.644
5,-1,0.645
4,-2,0.646
4,0,0.647
7,1,0.648
7,3,0.649
3,6,0.65
1,6,0.651
5,4,0.652
9,1,0.653
5,0,0.654
2,-1,0.655
1,-3,0.656
0,-4,0.657
-4,-6,0.658
-2,-5,0.659
5,-3,0.66
11,0,0.661
6,3,0.662
2,2,0.663
5,0,0.664
11,-1,0.665
10,-2,0.666
4,0,0.667
3,1,0.668
4,3,0.669
3,6,0.67
1,6,0.671
1,4,0.672
3,1,0.673
0,-2,0.674
-2,-3,0.675
-6,-3,0.676
-7,-4,0.677
-7,-3,0.678
1,0,0.679
10,1,0.68
9,2,0.681
0,5,0.682
-3,5,0.683
3,0,0.684
7,-4,0.685
3,-4,0.686
-2,-1,0.687
0,0,0.688
1,-1,0.689
0,-1,0.69
-1,0,0.691
1,1,0.692
2,0,0.693
0,-4,0.694
-4,-6,0.695
-7,-7,0.696
-9,-8,0.697
-10,-5,0.698
-3,-2,0.699
2,0,0.7
4,1,0.701
7,2,0.702
7,0,0.703
6,-1,0.704
6,-3,0.705
5,-1,0.706
5,1,0.707
5,2,0.708
5,0,0.709
6,-2,0.71
4,-3,0.711
3,-3,0.712
5,-1,0.713
6,-1,0.714
4,-2,0.715
-2,-4,0.716
-7,-7,0.717
-8,-6,0.718
-3,-2,0.719
8,1,0.72
12,2,0.721
6,3,0.722
0,4,0.723
1,6,0.724
3,7,0.725
4,6,0.726
4,4,0.727
4,3,0.728
3,3,0.729
1,5,0.73
2,3,0.731
3,0,0.732
5,1,0.733
7,1,0.734
7,3,0.735
3,2,0.736
-4,-4,0.737
-8,-7,0.738
-2,-3,0.739
7,2,0.74
9,6,0.741
1,6,0.742
-4,0,0.743
-1,-3,0.744
4,-1,0.745
6,3,0.746
5,4,0.747
6,1,0.748
7,-2,0.749
4,-2,0.75
0,0,0.751
-1,0,0.752
1,-2,0.753
3,-5,0.754
4,-8,0.755
1,-8,0.756
-3,-9,0.757
-4,-7,0.758
0,-6,0.759
7,-4,0.76
8,0,0.761
5,4,0.762
4,6,0.763
7,2,0.764
7,-3,0.765
5,-4,0.766
6,-2,0.767
6,-1,0.768
4,-4,0.769
0,-3,0.77
0,-1,0.771
3,2,0.772
6,3,0.773
5,-1,0.774
1,-5,0.775
-5,-6,0.776
-10,-6,0.777
-8,-5,0.778
1,-2,0.779
10,0,0.78
8,3,0.781
2,5,0.782
1,3,0.783
5,-1,0.784
4,-2,0.785
-1,0,0.786
-1,1,0.787
2,0,0.788
3,-2,0.789
-1,-1,0.79
-3,0,0.791
0,-2,0.792
3,-1,0.793
4,-1,0.794
4,1,0.795
3,1,0.796
0,-5,0.797
-5,-7,0.798
-2,-5,0.799
7,0,0.8
10,4,0.801
3,6,0.802
-3,4,0.803
-2,1,0.804
1,0,0.805
-1,1,0.806
-1,0,0.807
1,-2,0.808
2,-3,0.809
0,0,0.81
1,2,0.811
7,-2,0.812
11,-5,0.813
7,-5,0.814
3,-1,0.815
3,0,0.816
2,-5,0.817
0,-4,0.818
1,-1,0.819
8,0,0.82
10,0,0.821
3,1,0.822
0,3,0.823
2,2,0.824
6,-2,0.825
5,-5,0.826
0,-3,0.827
1,-2,0.828
3,1,0.829
2,0,0.83
0,-4,0.831
1,-3,0.832
4,-2,0.833
3,0,0.834
1,-1,0.835
-2,-2,0.836
-6,-4,0.837
-4,-3,0.838
5,-3,0.839
13,-2,0.84
10,2,0.841
3,6,0.842
2,4,0.843
9,-1,0.844
11,-1,0.845
4,1,0.846
0,0,0.847
2,-4,0.848
4,-4,0.849
2,0,0.85
0,0,0.851
3,-2,0.852
4,-1,0.853
2,1,0.854
0,3,0.855
-1,0,0.856
-4,-5,0.857
-7,-6,0.858
-7,-5,0.859
-4,-3,0.86
-3,2,0.861
-5,7,0.862
-3,5,0.863
4,0,0.864
11,-2,0.865
11,-1,0.866
5,-1,0.867
1,-3,0.868
-1,-2,0.869
-3,0,0.87
0,0,0.871
8,-2,0.872
15,0,0.873
15,-1,0.874
11,-4,0.875
6,-6,0.876
0,-7,0.877
-3,-5,0.878
-1,-2,0.879
4,0,0.88
5,3,0.881
0,2,0.882
-4,-2,0.883
-1,-2,0.884
1,0,0.885
-1,2,0.886
-5,0,0.887
-5,0,0.888
-6,1,0.889
-6,0,0.89
-5,-3,0.891
-4,-3,0.892
-2,3,0.893
-2,6,0.894
-1,2,0.895
-1,-3,0.896
-5,-7,0.897
-8,-4,0.898
-4,-2,0.899
3,-2,0.9
5,2,0.901
2,7,0.902
2,7,0.903
6,1,0.904
10,-1,0.905
11,4,0.906
15,10,0.907
22,9,0.908
24,11,0.909
20,30,0.91
17,65,0.911
18,104,0.912
22,135,0.913
19,160,0.914
10,170,0.915
3,132,0.916
-1,24,0.917
0,-104,0.918
3,-180,0.919
7,-176,0.92
5,-116,0.921
-4,-30,0.922
-12,53,0.923
-14,91,0.924
-10,58,0.925
-6,-17,0.926
0,-82,0.927
2,-132,0.928
-1,-188,0.929
-7,-227,0.93
-12,-204,0.931
-11,-125,0.932
-11,-48,0.933
-12,3,0.934
-12,48,0.935
-9,98,0.936
-8,135,0.937
-9,144,0.938
-5,125,0.939
5,92,0.94
14,62,0.941
15,36,0.942
13,-7,0.943
11,-81,0.944
9,-162,0.945
8,-195,0.946
13,-157,0.947
19,-76,0.948
20,1,0.949
13,40,0.95
5,38,0.951
2,8,0.952
3,-26,0.953
0,-66,0.954
-4,-110,0.955
-6,-133,0.956
-3,-91,0.957
0,27,0.958
0,158,0.959
0,260,0.96
-4,357,0.961
-9,448,0.962
-13,439,0.963
-11,283,0.964
-8,90,0.965
-7,-5,0.966
-7,-50,0.967
-3,-183,0.968
0,-395,0.969
3,-532,0.97
6,-524,0.971
12,-428,0.972
20,-275,0.973
25,-7,0.974
28,299,0.975
21,430,0.976
8,298,0.977
-2,96,0.978
3,22,0.979
18,36,0.98
27,25,0.981
23,48,0.982
17,193,0.983
15,301,0.984
14,123,0.985
6,-278,0.986
-4,-580,0.987
-7,-629,0.988
-5,-562,0.989
-5,-465,0.99
-10,-227,0.991
-15,161,0.992
-16,471,0.993
-13,575,0.994
-9,565,0.995
-13,553,0.996
-20,441,0.997
-22,125,0.998
-17,-253,0.999
-11,-456,1.0
-8,-417,1.001
-8,-223,1.002
-5,52,1.003
1,329,1.004
3,458,1.005
4,358,1.006
7,132,1.007
12,-88,1.008
16,-293,1.009
20,-501,1.01
24,-627,1.011
25,-588,1.012
22,-438,1.013
14,-240,1.014
4,0,1.015
-3,260,1.016
-5,421,1.017
-4,415,1.018
0,335,1.019
4,296,1.02
6,270,1.021
6,169,1.022
9,21,1.023
13,-93,1.024
17,-139,1.025
18,-117,1.026
16,-8,1.027
13,167,1.028
10,320,1.029
6,399,1.03
2,428,1.031
0,396,1.032
-2,253,1.033
-6,-12,1.034
-7,-258,1.035
-9,-382,1.036
-13,-431,1.037
-16,-459,1.038
-8,-430,1.039
3,-315,1.04
11,-173,1.041
9,-66,1.042
5,24,1.043
3,130,1.044
2,226,1.045
-1,283,1.046
-1,317,1.047
3,340,1.048
8,342,1.049
8,326,1.05
9,301,1.051
10,227,1.052
9,48,1.053
6,-252,1.054
5,-558,1.055
4,-762,1.056
-1,-839,1.057
-5,-767,1.058
-1,-529,1.059
5,-202,1.06
0,70,1.061
-10,243,1.062
-10,390,1.063
-2,511,1.064
0,490,1.065
-6,302,1.066
-11,117,1.067
-6,81,1.068
-3,134,1.069
-5,141,1.07
-6,76,1.071
-3,-28,1.072
0,-166,1.073
-1,-333,1.074
-4,-397,1.075
-3,-268,1.076
1,-36,1.077
7,143,1.078
16,233,1.079
23,283,1.08
23,288,1.081
14,189,1.082
4,2,1.083
-1,-198,1.084
-1,-355,1.085
-1,-450,1.086
1,-449,1.087
6,-328,1.088
10,-140,1.089
13,22,1.09
15,134,1.091
20,222,1.092
25,286,1.093
23,306,1.094
15,285,1.095
4,258,1.096
-2,235,1.097
-6,216,1.098
-4,211,1.099
2,231,1.1
1,250,1.101
-11,234,1.102
-22,185,1.103
-19,122,1.104
-10,25,1.105
-6,-129,1.106
-8,-302,1.107
-6,-414,1.108
0,-442,1.109
4,-448,1.11
5,-490,1.111
3,-523,1.112
2,-453,1.113
-3,-235,1.114
-5,50,1.115
-5,279,1.116
-3,382,1.117
-1,364,1.118
3,263,1.119
11,141,1.12
12,58,1.121
4,3,1.122
-3,-80,1.123
-4,-194,1.124
-3,-265,1.125
-4,-251,1.126
-4,-190,1.127
3,-115,1.128
14,-2,1.129
23,139,1.13
29,237,1.131
32,260,1.132
31,277,1.133
24,329,1.134
13,368,1.135
3,325,1.136
-2,211,1.137
-7,74,1.138
-5,-72,1.139
-3,-205,1.14
-3,-259,1.141
-2,-218,1.142
2,-154,1.143
5,-129,1.144
8,-110,1.145
11,-53,1.146
10,22,1.147
7,66,1.148
1,85,1.149
-3,133,1.15
-1,228,1.151
0,328,1.152
0,364,1.153
-1,301,1.154
-4,169,1.155
-10,16,1.156
-12,-137,1.157
-6,-271,1.158
1,-336,1.159
4,-290,1.16
0,-183,1.161
-5,-91,1.162
-10,-12,1.163
-14,75,1.164
-16,101,1.165
-15,-5,1.166
-13,-168,1.167
-9,-238,1.168
-1,-208,1.169
12,-163,1.17
21,-122,1.171
25,-54,1.172
25,-12,1.173
22,-76,1.174
18,-188,1.175
11,-272,1.176
1,-273,1.177
-6,-241,1.178
-2,-111,1.179
1,18,1.18
1,143,1.181
0,231,1.182
-2,207,1.183
-4,200,1.184
-2,252,1.185
0,254,1.186
-3,106,1.187
-4,-27,1.188
1,-112,1.189
7,-150,1.19
9,-45,1.191
11,85,1.192
13,293,1.193
15,482,1.194
18,610,1.195
16,753,1.196
11,774,1.197
2,473,1.198
-1,-73,1.199
0,-535,1.2
-1,-717,1.201
-4,-731,1.202
-6,-721,1.203
0,-654,1.204
4,-483,1.205
2,-295,1.206
-3,-174,1.207
-4,-69,1.208
-6,83,1.209
-13,220,1.21
-20,264,1.211
-19,252,1.212
-15,257,1.213
-12,256,1.214
-10,225,1.215
-5,206,1.216
0,230,1.217
9,255,1.218
22,287,1.219
39,291,1.22
48,211,1.221
46,107,1.222
37,-66,1.223
27,-213,1.224
14,-277,1.225
2,-324,1.226
-3,-315,1.227
-3,-285,1.228
-9,-191,1.229
-19,-114,1.23
-19,-87,1.231
-8,-47,1.232
6,30,1.233
17,112,1.234
23,173,1.235
13,168,1.236
-24,148,1.237
-77,158,1.238
-123,168,1.239
-146,137,1.24
-153,47,1.241
-149,-67,1.242
-129,-144,1.243
-88,-160,1.244
-42,-149,1.245
3,-157,1.246
65,-175,1.247
159,-152,1.248
254,-88,1.249
297,-26,1.25
267,6,1.251
197,30,1.252
146,54,1.253
122,64,1.254
113,51,1.255
99,39,1.256
73,42,1.257
41,54,1.258
-8,70,1.259
-51,105,1.26
-69,156,1.261
-84,184,1.262
-83,155,1.263
-82,79,1.264
-85,-7,1.265
-86,-81,1.266
-79,-136,1.267
-70,-156,1.268
-56,-124,1.269
-43,-57,1.27
-36,-1,1.271
-30,14,1.272
-28,15,1.273
-25,23,1.274
-27,26,1.275
-35,-4,1.276
-38,-59,1.277
-30,-93,1.278
-19,-99,1.279
-8,-87,1.28
-3,-55,1.281
2,0,1.282
8,60,1.283
14,83,1.284
16,66,1.285
16,38,1.286
13,17,1.287
10,-2,1.288
6,-20,1.289
2,-26,1.29
1,-14,1.291
5,8,1.292
10,25,1.293
9,24,1.294
6,21,1.295
2,19,1.296
0,27,1.297
-1,30,1.298
4,19,1.299
8,7,1.3
8,-2,1.301
7,-10,1.302
4,-8,1.303
2,6,1.304
6,59,1.305
9,100,1.306
11,102,1.307
14,80,1.308
15,-15,1.309
17,-87,1.31
17,-91,1.311
18,-92,1.312
18,-85,1.313
16,-86,1.314
11,-107,1.315
3,-108,1.316
-3,-90,1.317
-6,-60,1.318
-3,-19,1.319
7,32,1.32
9,82,1.321
6,115,1.322
1,130,1.323
0,130,1.324
1,109,1.325
1,63,1.326
3,-1,1.327
7,-69,1.328
7,-123,1.329
6,-152,1.33
6,-143,1.331
8,-105,1.332
10,-59,1.333
5,-22,1.334
1,4,1.335
-3,26,1.336
-7,39,1.337
-12,50,1.338
-9,62,1.339
-4,70,1.34
-5,65,1.341
-10,46,1.342
-8,30,1.343
-1,24,1.344
2,24,1.345
1,22,1.346
5,20,1.347
15,18,1.348
24,16,1.349
29,8,1.35
32,-2,1.351
33,-11,1.352
30,-12,1.353
21,-10,1.354
13,-6,1.355
7,-2,1.356
-1,-4,1.357
-7,-2,1.358
-6,-1,1.359
2,-3,1.36
8,-3,1.361
4,1,1.362
-1,6,1.363
-1,2,1.364
0,-6,1.365
-1,-7,1.366
-3,-7,1.367
-3,-10,1.368
-2,-15,1.369
-2,-14,1.37
-5,-6,1.371
-11,0,1.372
-15,5,1.373
-17,33,1.374
-18,99,1.375
-20,181,1.376
-20,207,1.377
-14,140,1.378
-5,25,1.379
3,-57,1.38
5,-102,1.381
3,-171,1.382
4,-264,1.383
10,-300,1.384
12,-241,1.385
8,-152,1.386
3,-90,1.387
3,-41,1.388
4,4,1.389
3,13,1.39
0,-8,1.391
-2,13,1.392
0,92,1.393
1,160,1.394
-2,158,1.395
-7,133,1.396
-10,146,1.397
-6,172,1.398
3,148,1.399
11,81,1.4
11,32,1.401
5,14,1.402
3,-13,1.403
4,-60,1.404
3,-83,1.405
-1,-47,1.406
-5,14,1.407
-5,23,1.408
-4,-47,1.409
-3,-143,1.41
1,-198,1.411
9,-204,1.412
13,-191,1.413
12,-157,1.414
12,-79,1.415
10,12,1.416
5,52,1.417
2,42,1.418
4,48,1.419
6,94,1.42
0,132,1.421
-6,130,1.422
-2,126,1.423
12,135,1.424
23,108,1.425
29,28,1.426
36,-38,1.427
43,-40,1.428
37,-16,1.429
19,-18,1.43
1,-27,1.431
-3,-14,1.432
-3,2,1.433
-6,9,1.434
-8,43,1.435
-11,121,1.436
-12,170,1.437
-12,114,1.438
-2,-10,1.439
6,-98,1.44
10,-112,1.441
11,-103,1.442
3,-97,1.443
-4,-74,1.444
-8,-27,1.445
-11,22,1.446
-8,86,1.447
-7,204,1.448
-11,354,1.449
-15,451,1.45
-19,458,1.451
-20,420,1.452
-13,359,1.453
-7,205,1.454
-8,-67,1.455
-7,-390,1.456
-2,-678,1.457
14,-888,1.458
36,-975,1.459
50,-869,1.46
43,-596,1.461
25,-294,1.462
13,-67,1.463
13,105,1.464
10,257,1.465
0,353,1.466
-3,364,1.467
1,309,1.468
2,194,1.469
0,2,1.47
0,-208,1.471
1,-307,1.472
-4,-260,1.473
-17,-140,1.474
-20,-9,1.475
-18,118,1.476
-15,230,1.477
-11,316,1.478
0,328,1.479
12,361,1.48
11,461,1.481
0,580,1.482
-6,758,1.483
-5,922,1.484
-4,1039,1.485
-5,979,1.486
-1,389,1.487
5,-230,1.488
8,-940,1.489
6,-1502,1.49
2,-1614,1.491
1,-1597,1.492
1,-1191,1.493
-1,-754,1.494
-2,-274,1.495
-4,68,1.496
-9,249,1.497
-10,305,1.498
-4,268,1.499
4,161,1.5
6,42,1.501
4,-15,1.502
6,20,1.503
12,112,1.504
16,215,1.505
17,318,1.506
22,413,1.507
26,474,1.508
23,473,1.509
14,433,1.51
3,423,1.511
-2,481,1.512
-2,537,1.513
-4,475,1.514
-2,271,1.515
-3,28,1.516
-7,-174,1.517
-9,-376,1.518
-2,-619,1.519
15,-794,1.52
23,-763,1.521
18,-558,1.522
11,-321,1.523
10,-124,1.524
10,29,1.525
5,126,1.526
-2,159,1.527
-2,189,1.528
-1,287,1.529
-1,444,1.53
-2,591,1.531
-1,647,1.532
2,542,1.533
4,218,1.534
1,-197,1.535
-5,-471,1.536
-10,-494,1.537
-8,-371,1.538
-1,-270,1.539
5,-240,1.54
5,-232,1.541
-2,-202,1.542
-7,-134,1.543
-9,-36,1.544
-9,52,1.545
-6,86,1.546
1,66,1.547
6,35,1.548
4,23,1.549
1,27,1.55
3,34,1.551
6,40,1.552
3,45,1.553
-3,48,1.554
-5,59,1.555
-1,76,1.556
-1,82,1.557
-5,84,1.558
-6,80,1.559
-3,68,1.56
0,50,1.561
2,37,1.562
3,34,1.563
5,31,1.564
5,18,1.565
5,8,1.566
6,4,1.567
11,3,1.568
16,-4,1.569
18,-11,1.57
17,-15,1.571
14,-17,1.572
11,-19,1.573
8,-22,1.574
4,-21,1.575
-2,-22,1.576
-7,-30,1.577
-6,-34,1.578
0,-30,1.579
6,-25,1.58
8,-18,1.581
5,-10,1.582
5,-1,1.583
6,-1,1.584
4,-4,1.585
3,-6,1.586
2,-5,1.587
2,-7,1.588
2,-7,1.589
5,-4,1.59
8,-3,1.591
6,-11,1.592
2,-17,1.593
-1,-17,1.594
-2,-14,1.595
-5,-14,1.596
-13,-17,1.597
-17,-9,1.598
-11,2,1.599
1,5,1.6
6,-2,1.601
4,-3,1.602
3,3,1.603
6,6,1.604
5,0,1.605
0,-8,1.606
-1,-15,1.607
4,-20,1.608
6,-23,1.609
5,-18,1.61
4,-10,1.611
9,-3,1.612
13,6,1.613
12,9,1.614
9,8,1.615
4,1,1.616
0,-6,1.617
-2,-4,1.618
0,0,1.619
2,1,1.62
0,1,1.621
-6,3,1.622
-8,5,1.623
-4,3,1.624
-4,2,1.625
-7,4,1.626
-9,9,1.627
-7,7,1.628
-6,-1,1.629
-4,-7,1.63
0,-8,1.631
2,-3,1.632
1,4,1.633
1,4,1.634
6,1,1.635
14,1,1.636
25,5,1.637
37,11,1.638
49,10,1.639
49,5,1.64
34,2,1.641
12,3,1.642
-6,0,1.643
-20,-5,1.644
-27,-6,1.645
-25,-5,1.646
-12,-4,1.647
2,-4,1.648
11,-5,1.649
10,-3,1.65
6,0,1.651
0,0,1.652
-7,0,1.653
-17,-2,1.654
-22,-4,1.655
-31,-4,1.656
-39,-6,1.657
-40,0,1.658
-27,18,1.659
-9,40,1.66
6,63,1.661
18,105,1.662
32,197,1.663
43,341,1.664
46,455,1.665
48,419,1.666
52,196,1.667
49,-110,1.668
23,-363,1.669
-23,-511,1.67
-62,-555,1.671
-77,-450,1.672
-70,-184,1.673
-56,149,1.674
-49,286,1.675
-64,87,1.676
-104,-286,1.677
-150,-537,1.678
-174,-550,1.679
-153,-421,1.68
-93,-256,1.681
-42,-93,1.682
-48,32,1.683
-109,83,1.684
-155,104,1.685
-112,185,1.686
15,310,1.687
136,368,1.688
176,329,1.689
151,261,1.69
134,209,1.691
166,136,1.692
244,47,1.693
357,-15,1.694
465,-27,1.695
488,-25,1.696
372,-24,1.697
175,14,1.698
30,70,1.699
-4,78,1.7
21,38,1.701
44,14,1.702
59,28,1.703
52,30,1.704
-4,11,1.705
-65,16,1.706
-59,43,1.707
-20,33,1.708
-60,-35,1.709
-192,-102,1.71
-330,-112,1.711
-469,-75,1.712
-660,-33,1.713
-848,-1,1.714
-799,16,1.715
-424,9,1.716
83,-18,1.717
483,-34,1.718
729,-28,1.719
877,-16,1.72
931,-10,1.721
858,-3,1.722
640,13,1.723
280,50,1.724
-140,129,1.725
-416,242,1.726
-407,311,1.727
-232,250,1.728
-113,89,1.729
-76,-53,1.73
-6,-126,1.731
86,-193,1.732
72,-275,1.733
-60,-298,1.734
-164,-216,1.735
-166,-135,1.736
-154,-155,1.737
-178,-203,1.738
-174,-176,1.739
-122,-104,1.74
-94,-53,1.741
-121,17,1.742
-141,140,1.743
-122,212,1.744
-104,149,1.745
-108,44,1.746
-97,24,1.747
-67,51,1.748
-50,35,1.749
-50,10,1.75
-38,45,1.751
-14,95,1.752
0,89,1.753
1,50,1.754
10,48,1.755
19,61,1.756
16,29,1.757
15,-11,1.758
31,-5,1.759
44,28,1.76
41,33,1.761
33,24,1.762
40,37,1.763
49,49,1.764
45,31,1.765
35,4,1.766
37,-2,1.767
42,-5,1.768
37,-26,1.769
34,-39,1.77
41,-27,1.771
46,-8,1.772
41,-6,1.773
33,-15,1.774
32,-17,1.775
29,-16,1.776
19,-16,1.777
11,-9,1.778
16,0,1.779
25,-9,1.78
24,-32,1.781
17,-42,1.782
15,-30,1.783
21,-20,1.784
25,-23,1.785
23,-26,1.786
18,-20,1.787
16,-12,1.788
15,-10,1.789
13,-6,1.79
11,0,1.791
9,-1,1.792
8,-8,1.793
7,-14,1.794
7,-11,1.795
4,-8,1.796
-4,-13,1.797
-7,-14,1.798
-3,-10,1.799
3,-5,1.8
5,-2,1.801
1,-1,1.802
1,2,1.803
5,1,1.804
6,0,1.805
1,5,1.806
-2,11,1.807
0,12,1.808
2,9,1.809
0,4,1.81
0,0,1.811
1,-4,1.812
3,-4,1.813
-1,-2,1.814
-3,0,1.815
-6,-1,1.816
-6,-4,1.817
-4,-4,1.818
0,0,1.819
3,0,1.82
1,4,1.821
0,9,1.822
1,10,1.823
3,6,1.824
3,2,1.825
2,2,1.826
0,2,1.827
-1,0,1.828
-1,0,1.829
0,3,1.83
0,8,1.831
0,10,1.832
0,8,1.833
0,3,1.834
-5,1,1.835
-9,-2,1.836
-9,-7,1.837
-10,-7,1.838
-5,-3,1.839
4,1,1.84
9,7,1.841
5,7,1.842
0,3,1.843
1,-2,1.844
2,-2,1.845
0,0,1.846
-2,1,1.847
2,2,1.848
8,3,1.849
8,2,1.85
6,0,1.851
2,-4,1.852
2,-6,1.853
3,-4,1.854
3,-1,1.855
3,0,1.856
0,-4,1.857
-2,-7,1.858
3,-6,1.859
10,-4,1.86
7,1,1.861
0,4,1.862
0,1,1.863
3,0,1.864
5,1,1.865
0,2,1.866
-1,0,1.867
5,-2,1.868
8,-2,1.869
6,-2,1.87
1,-1,1.871
1,0,1.872
4,-1,1.873
3,-2,1.874
2,-2,1.875
-1,-1,1.876
-5,-4,1.877
-5,-6,1.878
0,-4,1.879
8,-1,1.88
8,4,1.881
1,6,1.882
-1,4,1.883
3,0,1.884
5,-3,1.885
0,-1,1.886
-2,0,1.887
2,2,1.888
6,1,1.889
2,-1,1.89
-3,-3,1.891
-2,-1,1.892
1,2,1.893
3,2,1.894
4,-1,1.895
4,-4,1.896
1,-6,1.897
-1,-4,1.898
5,-6,1.899
13,-6,1.9
12,-2,1.901
2,3,1.902
-3,2,1.903
1,-3,1.904
4,-5,1.905
-1,-2,1.906
-4,0,1.907
-2,-1,1.908
1,-3,1.909
0,-3,1.91
0,-1,1.911
2,2,1.912
5,6,1.913
-1,5,1.914
-6,0,1.915
-10,-5,1.916
-8,-7,1.917
-4,-5,1.918
2,-4,1.919
8,-3,1.92
8,-2,1.921
7,1,1.922
10,1,1.923
13,1,1.924
14,2,1.925
15,4,1.926
13,1,1.927
11,-2,1.928
12,-2,1.929
12,0,1.93
9,0,1.931
7,0,1.932
6,0,1.933
5,-1,1.934
0,-2,1.935
-7,-3,1.936
-14,-4,1.937
-18,-2,1.938
-16,-2,1.939
-13,0,1.94
-15,3,1.941
-21,5,1.942
-21,4,1.943
-10,3,1.944
2,4,1.945
9,7,1.946
8,6,1.947
8,3,1.948
4,0,1.949
0,-1,1.95
0,-1,1.951
4,1,1.952
12,9,1.953
15,12,1.954
17,9,1.955
14,5,1.956
9,-2,1.957
7,6,1.958
12,63,1.959
18,102,1.96
17,87,1.961
6,47,1.962
-3,-67,1.963
-5,-157,1.964
-3,-169,1.965
-4,-162,1.966
-5,-100,1.967
0,-37,1.968
5,28,1.969
4,74,1.97
1,57,1.971
2,46,1.972
7,57,1.973
9,65,1.974
3,48,1.975
-2,30,1.976
-3,27,1.977
0,22,1.978
6,-2,1.979
10,-24,1.98
11,-29,1.981
7,-26,1.982
2,-28,1.983
3,-29,1.984
6,-24,1.985
3,-32,1.986
-2,-48,1.987
-3,-54,1.988
0,-41,1.989
2,-17,1.99
5,6,1.991
7,26,1.992
8,33,1.993
3,29,1.994
-2,18,1.995
-6,21,1.996
-7,27,1.997
-7,27,1.998
-1,25,1.999
4,27,2.0
4,28,2.001
4,16,2.002
3,7,2.003
2,7,2.004
3,9,2.005
3,6,2.006
0,0,2.007
-2,0,2.008
0,4,2.009
1,5,2.01
1,3,2.011
1,1,2.012
3,1,2.013
6,0,2.014
4,2,2.015
3,2,2.016
0,-5,2.017
-3,-9,2.018
-3,-2,2.019
2,21,2.02
5,45,2.021
2,51,2.022
0,31,2.023
3,-5,2.024
7,-39,2.025
5,-64,2.026
3,-85,2.027
8,-92,2.028
13,-67,2.029
13,-23,2.03
12,2,2.031
16,-2,2.032
20,-7,2.033
17,1,2.034
4,13,2.035
-9,22,2.036
-16,22,2.037
-18,27,2.038
-12,48,2.039
-1,61,2.04
3,45,2.041
-4,27,2.042
-9,5,2.043
-3,-14,2.044
10,-29,2.045
14,-41,2.046
9,-41,2.047
1,-41,2.048
4,-40,2.049
10,-38,2.05
14,-34,2.051
13,-27,2.052
11,-12,2.053
5,4,2.054
0,15,2.055
-4,15,2.056
-6,8,2.057
-6,5,2.058
-3,8,2.059
0,15,2.06
1,23,2.061
4,23,2.062
6,17,2.063
8,16,2.064
5,22,2.065
2,19,2.066
5,6,2.067
9,-5,2.068
11,-5,2.069
9,1,2.07
7,6,2.071
9,7,2.072
13,8,2.073
9,7,2.074
1,5,2.075
-7,4,2.076
-10,0,2.077
-6,-3,2.078
-3,-8,2.079
-3,-12,2.08
-6,-8,2.081
-9,0,2.082
-8,3,2.083
-5,-2,2.084
-4,-7,2.085
-3,-2,2.086
-4,8,2.087
-4,10,2.088
-1,1,2.089
3,-6,2.09
7,-8,2.091
6,-11,2.092
3,-13,2.093
4,-14,2.094
9,-7,2.095
7,0,2.096
-2,1,2.097
-8,0,2.098
-5,-2,2.099
3,-3,2.1
9,-1,2.101
8,5,2.102
4,6,2.103
5,-2,2.104
7,-11,2.105
8,-8,2.106
8,0,2.107
7,3,2.108
8,-1,2.109
11,-1,2.11
14,0,2.111
12,-2,2.112
8,-7,2.113
0,-10,2.114
-3,-10,2.115
-3,-8,2.116
-2,-7,2.117
-3,0,2.118
2,6,2.119
14,8,2.12
19,7,2.121
12,9,2.122
0,10,2.123
0,7,2.124
6,5,2.125
8,7,2.126
0,7,2.127
-7,3,2.128
-4,0,2.129
-1,3,2.13
-3,9,2.131
-3,6,2.132
0,-2,2.133
0,-12,2.134
-4,-12,2.135
-9,-5,2.136
-7,-2,2.137
-2,-6,2.138
3,-9,2.139
9,-5,2.14
12,6,2.141
11,11,2.142
6,8,2.143
7,6,2.144
12,5,2.145
9,3,2.146
-5,-2,2.147
-24,-4,2.148
-35,-1,2.149
-38,1,2.15
-39,0,2.151
-42,-2,2.152
-47,-6,2.153
-49,-12,2.154
-41,-10,2.155
-24,-1,2.156
-2,1,2.157
17,-5,2.158
32,-10,2.159
44,-4,2.16
51,6,2.161
61,5,2.162
79,-3,2.163
90,-8,2.164
73,-6,2.165
32,-4,2.166
-3,-4,2.167
-10,-5,2.168
-5,-4,2.169
-13,3,2.17
-43,12,2.171
-109,17,2.172
-221,14,2.173
-366,3,2.174
-441,-4,2.175
-362,-6,2.176
-164,-10,2.177
40,-12,2.178
188,-9,2.179
301,-1,2.18
396,7,2.181
430,8,2.182
352,5,2.183
167,2,2.184
-48,7,2.185
-197,14,2.186
-251,17,2.187
-264,12,2.188
-281,2,2.189
-244,-3,2.19
-70,0,2.191
155,4,2.192
230,7,2.193
76,3,2.194
-132,-1,2.195
-194,-5,2.196
-159,-7,2.197
-217,3,2.198
-337,10,2.199
-289,0,2.2
-12,-11,2.201
260,-2,2.202
344,20,2.203
350,18,2.204
443,-4,2.205
530,-2,2.206
387,34,2.207
1,56,2.208
-371,36,2.209
-542,8,2.21
-597,8,2.211
-725,9,2.212
-871,-20,2.213
-759,-56,2.214
-235,-41,2.215
425,16,2.216
792,48,2.217
824,30,2.218
879,9,2.219
1156,36,2.22
1460,80,2.221
1593,75,2.222
1630,7,2.223
1636,-63,2.224
1442,-79,2.225
948,-45,2.226
405,-12,2.227
79,-8,2.228
-146,-5,2.229
-531,30,2.23
-1029,85,2.231
-1415,111,2.232
-1690,102,2.233
-1986,99,2.234
-2294,145,2.235
-2122,217,2.236
-1359,247,2.237
-579,210,2.238
-318,140,2.239
-346,101,2.24
-76,139,2.241
562,233,2.242
1145,304,2.243
1431,290,2.244
1521,220,2.245
1440,174,2.246
1109,169,2.247
652,166,2.248
311,156,2.249
88,164,2.25
-151,115,2.251
-325,-147,2.252
-290,-605,2.253
-223,-1109,2.254
-297,-1413,2.255
-377,-1470,2.256
-471,-1413,2.257
-541,-1334,2.258
-534,-1249,2.259
-538,-1158,2.26
-581,-1049,2.261
-585,-850,2.262
-467,-501,2.263
-356,-41,2.264
-263,400,2.265
-198,694,2.266
-218,803,2.267
-227,806,2.268
-201,825,2.269
-208,884,2.27
-312,890,2.271
-354,800,2.272
-204,707,2.273
-16,694,2.274
263,721,2.275
496,648,2.276
678,418,2.277
729,141,2.278
607,-48,2.279
321,-113,2.28
-190,-121,2.281
-895,-148,2.282
-1393,-201,2.283
-1246,-235,2.284
-601,-220,2.285
-1,-156,2.286
398,-44,2.287
901,101,2.288
1538,229,2.289
1903,313,2.29
1777,445,2.291
1386,705,2.292
983,957,2.293
516,974,2.294
27,693,2.295
-337,302,2.296
-544,-60,2.297
-657,-440,2.298
-636,-831,2.299
-442,-1029,2.3
-232,-921,2.301
-148,-698,2.302
-108,-583,2.303
-25,-537,2.304
-28,-401,2.305
-210,-182,2.306
-422,-28,2.307
-514,28,2.308
-542,101,2.309
-533,277,2.31
-368,499,2.311
-51,622,2.312
196,565,2.313
290,343,2.314
360,97,2.315
411,-36,2.316
399,-38,2.317
338,13,2.318
136,36,2.319
6,27,2.32
92,25,2.321
152,28,2.322
129,0,2.323
50,-45,2.324
-195,-14,2.325
-321,148,2.326
-83,345,2.327
108,399,2.328
156,257,2.329
187,13,2.33
165,-218,2.331
130,-407,2.332
57,-560,2.333
-16,-692,2.334
-15,-740,2.335
67,-665,2.336
45,-531,2.337
-100,-453,2.338
-188,-459,2.339
-151,-445,2.34
-130,-307,2.341
-227,-80,2.342
-372,122,2.343
-452,227,2.344
-447,238,2.345
-400,243,2.346
-338,383,2.347
-235,688,2.348
-59,971,2.349
137,1013,2.35
206,832,2.351
107,605,2.352
10,386,2.353
47,53,2.354
33,-308,2.355
-342,-456,2.356
-926,-308,2.357
-1081,-52,2.358
-465,130,2.359
467,218,2.36
1034,195,2.361
1142,2,2.362
1171,-283,2.363
1221,-468,2.364
1002,-501,2.365
444,-506,2.366
-41,-539,2.367
-109,-503,2.368
91,-358,2.369
240,-199,2.37
285,-94,2.371
342,-6,2.372
379,58,2.373
283,-3,2.374
88,-217,2.375
-111,-414,2.376
-331,-388,2.377
-607,-170,2.378
-778,5,2.379
-656,13,2.38
-347,-19,2.381
-144,75,2.382
-114,285,2.383
-69,499,2.384
76,674,2.385
154,798,2.386
27,802,2.387
-186,643,2.388
-278,412,2.389
-230,226,2.39
-172,92,2.391
-168,-19,2.392
-166,-72,2.393
-125,-55,2.394
-79,-44,2.395
-50,-88,2.396
-70,-97,2.397
-92,4,2.398
-124,87,2.399
-139,-13,2.4
-104,-252,2.401
-55,-437,2.402
32,-490,2.403
109,-446,2.404
153,-289,2.405
184,-3,2.406
171,256,2.407
143,264,2.408
72,19,2.409
11,-226,2.41
-14,-266,2.411
-40,-101,2.412
-63,149,2.413
-100,430,2.414
-178,632,2.415
-244,647,2.416
-261,479,2.417
-222,243,2.418
-120,-22,2.419
45,-360,2.42
248,-727,2.421
426,-954,2.422
531,-925,2.423
552,-688,2.424
491,-360,2.425
345,-26,2.426
137,239,2.427
-56,371,2.428
-168,371,2.429
-232,308,2.43
-394,249,2.431
-747,194,2.432
-1153,156,2.433
-1343,177,2.434
-995,264,2.435
-277,312,2.436
456,195,2.437
988,-61,2.438
1365,-317,2.439
1627,-479,2.44
1630,-537,2.441
1239,-478,2.442
612,-296,2.443
106,-86,2.444
-84,33,2.445
-68,69,2.446
-43,115,2.447
-49,172,2.448
-23,165,2.449
17,108,2.45
-32,87,2.451
-185,102,2.452
-301,96,2.453
-290,66,2.454
-218,61,2.455
-214,59,2.456
-268,6,2.457
-287,-49,2.458
-269,-26,2.459
-284,48,2.46
-323,97,2.461
-316,119,2.462
-268,155,2.463
-254,163,2.464
-272,93,2.465
-259,1,2.466
-199,-9,2.467
-146,58,2.468
-112,108,2.469
-61,106,2.47
4,96,2.471
53,111,2.472
77,142,2.473
84,169,2.474
68,194,2.475
48,224,2.476
15,255,2.477
-8,260,2.478
0,178,2.479
7,11,2.48
12,-153,2.481
15,-273,2.482
8,-402,2.483
7,-550,2.484
31,-614,2.485
52,-521,2.486
66,-357,2.487
89,-219,2.488
140,-75,2.489
168,114,2.49
126,261,2.491
81,267,2.492
23,181,2.493
-19,87,2.494
5,20,2.495
30,-34,2.496
57,-76,2.497
96,-108,2.498
134,-161,2.499
143,-231,2.5
126,-250,2.501
105,-188,2.502
84,-70,2.503
64,68,2.504
40,189,2.505
13,228,2.506
-22,161,2.507
-50,57,2.508
-56,-10,2.509
-41,-55,2.51
-26,-99,2.511
-23,-93,2.512
-25,-17,2.513
-28,56,2.514
-32,43,2.515
-43,-11,2.516
-50,-19,2.517
-45,14,2.518
-22,29,2.519
5,28,2.52
20,55,2.521
12,94,2.522
-7,107,2.523
-23,109,2.524
-31,128,2.525
-32,137,2.526
-27,103,2.527
-21,53,2.528
-19,33,2.529
-20,38,2.53
-19,45,2.531
-12,47,2.532
-6,45,2.533
-6,22,2.534
-6,-13,2.535
-5,-40,2.536
-6,-52,2.537
-5,-63,2.538
3,-68,2.539
16,-46,2.54
20,-14,2.541
16,-8,2.542
12,-24,2.543
13,-27,2.544
13,-10,2.545
11,-3,2.546
8,-13,2.547
11,-14,2.548
11,-3,2.549
7,-2,2.55
8,-17,2.551
15,-21,2.552
18,-6,2.553
14,6,2.554
9,7,2.555
5,3,2.556
5,1,2.557
5,4,2.558
9,4,2.559
12,4,2.56
11,5,2.561
9,3,2.562
6,0,2.563
4,-3,2.564
3,-2,2.565
2,-3,2.566
3,-6,2.567
5,-9,2.568
5,-9,2.569
6,-7,2.57
11,-2,2.571
14,-5,2.572
10,-10,2.573
3,-16,2.574
0,-10,2.575
-4,3,2.576
-10,8,2.577
-14,2,2.578
-7,-11,2.579
7,-22,2.58
13,-20,2.581
8,-9,2.582
5,0,2.583
13,-2,2.584
20,-7,2.585
21,-3,2.586
21,3,2.587
22,2,2.588
17,-7,2.589
5,-11,2.59
-3,-4,2.591
-4,1,2.592
-2,0,2.593
-3,-6,2.594
-6,-7,2.595
-7,-3,2.596
-9,-6,2.597
-8,-9,2.598
-3,-6,2.599
3,3,2.6
4,11,2.601
1,11,2.602
-2,4,2.603
-1,-3,2.604
0,-2,2.605
0,1,2.606
1,5,2.607
4,6,2.608
4,6,2.609
6,5,2.61
8,-2,2.611
10,-8,2.612
9,-5,2.613
1,3,2.614
-2,9,2.615
-8,3,2.616
-14,-9,2.617
-18,-9,2.618
-13,0,2.619
-3,7,2.62
-1,5,2.621
-2,0,2.622
-2,-2,2.623
5,0,2.624
11,0,2.625
13,-2,2.626
13,-5,2.627
15,-7,2.628
13,-6,2.629
4,-2,2.63
-7,2,2.631
-15,5,2.632
-15,6,2.633
-12,0,2.634
-12,-5,2.635
-20,-9,2.636
-27,-10,2.637
-28,-7,2.638
-18,-5,2.639
-5,-3,2.64
-6,-1,2.641
-24,1,2.642
-45,3,2.643
-41,1,2.644
0,0,2.645
58,0,2.646
94,2,2.647
96,3,2.648
89,2,2.649
96,2,2.65
111,5,2.651
106,5,2.652
80,3,2.653
38,0,2.654
1,0,2.655
-17,-1,2.656
-18,-8,2.657
-15,-9,2.658
-24,-6,2.659
-39,0,2.66
-43,3,2.661
-40,5,2.662
-41,3,2.663
-47,2,2.664
-47,0,2.665
-42,-1,2.666
-38,-2,2.667
-35,-5,2.668
-27,-4,2.669
-20,-1,2.67
-19,1,2.671
-23,-1,2.672
-28,-2,2.673
-41,-2,2.674
-55,-2,2.675
-60,-1,2.676
-44,-4,2.677
-24,-4,2.678
-7,-2,2.679
19,0,2.68
58,3,2.681
92,7,2.682
91,8,2.683
54,6,2.684
14,5,2.685
1,6,2.686
22,2,2.687
51,-6,2.688
69,-12,2.689
69,-11,2.69
67,-6,2.691
61,0,2.692
41,5,2.693
-2,10,2.694
-36,11,2.695
-46,5,2.696
-40,-6,2.697
-40,-9,2.698
-43,-7,2.699
-33,-2,2.7
-19,-1,2.701
-17,0,2.702
-26,1,2.703
-38,-1,2.704
-55,-3,2.705
-81,-1,2.706
-102,2,2.707
-104,3,2.708
-101,1,2.709
-110,-1,2.71
-114,-1,2.711
-81,0,2.712
-12,0,2.713
64,-2,2.714
110,-4,2.715
128,-5,2.716
164,-8,2.717
245,-5,2.718
335,2,2.719
355,7,2.72
268,9,2.721
130,7,2.722
30,3,2.723
-4,0,2.724
-14,0,2.725
-37,-1,2.726
-65,-3,2.727
-77,-3,2.728
-81,1,2.729
-86,5,2.73
-86,5,2.731
-78,-1,2.732
-72,-6,2.733
-73,-7,2.734
-69,-5,2.735
-62,-4,2.736
-57,-4,2.737
-58,-5,2.738
-52,-5,2.739
-38,-3,2.74
-32,-1,2.741
-34,1,2.742
-27,2,2.743
-11,2,2.744
-2,0,2.745
-4,-3,2.746
-7,-3,2.747
-1,-3,2.748
5,0,2.749
7,2,2.75
7,0,2.751
11,-1,2.752
14,1,2.753
10,4,2.754
9,5,2.755
7,6,2.756
3,9,2.757
-1,12,2.758
-1,9,2.759
1,1,2.76
-1,0,2.761
-5,3,2.762
-1,2,2.763
11,-4,2.764
20,-5,2.765
22,-1,2.766
27,2,2.767
36,-1,2.768
40,-4,2.769
34,-2,2.77
25,-1,2.771
20,-1,2.772
16,-2,2.773
9,-3,2.774
4,-4,2.775
0,-7,2.776
-4,-13,2.777
-7,-13,2.778
-3,-10,2.779
5,-7,2.78
7,-5,2.781
2,-3,2.782
-1,-1,2.783
0,0,2.784
5,-1,2.785
7,-2,2.786
8,-3,2.787
9,-3,2.788
9,-4,2.789
5,-5,2.79
1,-6,2.791
-1,-5,2.792
-1,-1,2.793
-3,-2,2.794
-7,-5,2.795
-20,-5,2.796
-36,-5,2.797
-49,-3,2.798
-51,0,2.799
-46,2,2.8
-39,2,2.801
-28,3,2.802
1,7,2.803
52,9,2.804
109,11,2.805
147,8,2.806
146,5,2.807
112,1,2.808
65,-1,2.809
29,-1,2.81
10,1,2.811
1,4,2.812
-4,4,2.813
-14,0,2.814
-23,-1,2.815
-30,-3,2.816
-37,-5,2.817
-37,-7,2.818
-28,-3,2.819
-19,0,2.82
-17,1,2.821
-23,3,2.822
-28,3,2.823
-24,1,2.824
-18,0,2.825
-17,-3,2.826
-17,-3,2.827
-12,-3,2.828
-6,-3,2.829
-6,-2,2.83
-9,-1,2.831
-8,0,2.832
-4,-1,2.833
-1,-3,2.834
-2,-7,2.835
-5,-8,2.836
-5,-10,2.837
-5,-7,2.838
-1,-3,2.839
4,-1,2.84
7,3,2.841
4,7,2.842
3,8,2.843
7,4,2.844
12,0,2.845
12,-3,2.846
8,-5,2.847
3,-8,2.848
0,-9,2.849
1,-6,2.85
5,-3,2.851
13,-2,2.852
18,-1,2.853
18,-2,2.854
19,-1,2.855
19,0,2.856
19,0,2.857
17,1,2.858
16,0,2.859
16,-1,2.86
12,2,2.861
3,7,2.862
-3,9,2.863
-4,7,2.864
0,5,2.865
2,6,2.866
-1,5,2.867
-3,1,2.868
-2,-1,2.869
0,2,2.87
2,5,2.871
3,0,2.872
1,-4,2.873
-4,-5,2.874
-8,-1,2.875
-9,1,2.876
-5,-4,2.877
-4,-5,2.878
-1,-4,2.879
5,-2,2.88
7,0,2.881
2,2,2.882
-2,2,2.883
0,0,2.884
3,-1,2.885
1,2,2.886
0,4,2.887
2,2,2.888
6,-2,2.889
4,-3,2.89
1,-2,2.891
3,0,2.892
7,4,2.893
3,6,2.894
-1,4,2.895
-4,0,2.896
-4,-7,2.897
-5,-7,2.898
-2,-5,2.899
6,-6,2.9
9,-3,2.901
4,0,2.902
-1,3,2.903
-1,0,2.904
-1,-4,2.905
-4,-2,2.906
-6,0,2.907
-3,-2,2.908
1,-3,2.909
5,-3,2.91
9,-2,2.911
14,-2,2.912
15,-1,2.913
13,0,2.914
7,-3,2.915
1,-7,2.916
-3,-8,2.917
-4,-3,2.918
0,2,2.919
3,0,2.92
2,-1,2.921
0,1,2.922
2,4,2.923
9,4,2.924
12,2,2.925
12,1,2.926
10,0,2.927
11,-3,2.928
14,-4,2.929
16,-4,2.93
13,-3,2.931
5,-2,2.932
2,0,2.933
4,1,2.934
5,2,2.935
0,0,2.936
-9,-2,2.937
-12,-3,2.938
-5,-4,2.939
2,-2,2.94
2,0,2.941
-1,5,2.942
0,3,2.943
0,-1,2.944
-1,-2,2.945
-3,-1,2.946
-3,-1,2.947
0,-5,2.948
1,-6,2.949
0,-2,2.95
1,4,2.951
3,4,2.952
4,4,2.953
0,1,2.954
-3,0,2.955
-5,-3,2.956
-7,-7,2.957
-6,-5,2.958
1,-1,2.959
11,0,2.96
12,0,2.961
3,-1,2.962
-4,-1,2.963
-2,-1,2.964
1,1,2.965
0,4,2.966
0,1,2.967
6,-2,2.968
9,-3,2.969
2,-1,2.97
-3,2,2.971
0,2,2.972
5,2,2.973
3,-1,2.974
-2,-4,2.975
-4,-5,2.976
-1,-7,2.977
-2,-5,2.978
-4,-2,2.979
0,0,2.98
4,3,2.981
4,5,2.982
3,3,2.983
8,0,2.984
14,0,2.985
14,2,2.986
12,4,2.987
16,1,2.988
21,-1,2.989
18,-1,2.99
8,-2,2.991
0,-1,2.992
1,2,2.993
0,3,2.994
-1,3,2.995
-4,-1,2.996
-2,-6,2.997
0,-6,2.998
3,-5,2.999
8,-2,3.0
10,0,3.001
3,2,3.002
-3,1,3.003
-4,-1,3.004
-2,-3,3.005
-4,-4,3.006
-6,-3,3.007
-5,-2,3.008
-2,-1,3.009
-1,1,3.01
0,4,3.011
2,6,3.012
2,8,3.013
-3,2,3.014
-11,-3,3.015
-16,-6,3.016
-17,-6,3.017
-14,-2,3.018
-7,0,3.019
1,0,3.02
8,1,3.021
11,3,3.022
13,0,3.023
15,-2,3.024
15,0,3.025
15,4,3.026
19,4,3.027
23,0,3.028
21,-2,3.029
18,0,3.03
18,0,3.031
18,-3,3.032
16,-2,3.033
6,-2,3.034
0,0,3.035
-4,-1,3.036
-8,-6,3.037
-12,-8,3.038
-6,-7,3.039
1,-3,3.04
3,0,3.041
-3,1,3.042
-7,2,3.043
-5,2,3.044
-2,3,3.045
-3,3,3.046
-4,2,3.047
-2,0,3.048
-1,-1,3.049
-2,0,3.05
-1,0,3.051
0,0,3.052
0,2,3.053
-2,0,3.054
-4,-2,3.055
-5,-3,3.056
-8,-1,3.057
-9,0,3.058
-2,-1,3.059
7,-3,3.06
10,-1,3.061
5,0,3.062
1,0,3.063
2,0,3.064
2,3,3.065
0,5,3.066
0,1,3.067
3,-2,3.068
3,-2,3.069
1,-2,3.07
2,-2,3.071
6,-2,3.072
9,0,3.073
5,2,3.074
4,0,3.075
3,-4,3.076
2,-8,3.077
0,-4,3.078
3,-1,3.079
8,-1,3.08
9,0,3.081
6,4,3.082
4,5,3.083
9,0,3.084
9,-3,3.085
4,-2,3.086
0,0,3.087
3,-1,3.088
9,-1,3.089
9,2,3.09
7,3,3.091
4,0,3.092
5,-2,3.093
2,-4,3.094
0,-3,3.095
-2,-4,3.096
-5,-6,3.097
-6,-4,3.098
-2,-2,3.099
3,0,3.1
4,1,3.101
0,1,3.102
-2,1,3.103
0,1,3.104
3,2,3.105
4,1,3.106
7,0,3.107
11,-3,3.108
11,-1,3.109
6,2,3.11
0,5,3.111
0,4,3.112
4,4,3.113
9,1,3.114
10,0,3.115
5,0,3.116
-1,-5,3.117
-3,-6,3.118
-1,-6,3.119
3,-2,3.12
3,3,3.121
0,6,3.122
-2,6,3.123
-2,2,3.124
-4,1,3.125
-7,3,3.126
-5,1,3.127
-2,-3,3.128
-1,-5,3.129
-1,-4,3.13
3,-1,3.131
9,0,3.132
9,2,3.133
4,3,3.134
2,2,3.135
0,-2,3.136
-3,-6,3.137
-8,-5,3.138
-4,0,3.139
5,2,3.14
9,0,3.141
8,0,3.142
10,0,3.143
14,1,3.144
12,0,3.145
4,1,3.146
0,0,3.147
0,-2,3.148
-2,0,3.149
-4,4,3.15
-4,7,3.151
-3,4,3.152
-4,0,3.153
0,-4,3.154
0,-6,3.155
-3,-5,3.156
-6,-5,3.157
-3,-4,3.158
12,-4,3.159
24,-3,3.16
18,0,3.161
9,3,3.162
3,3,3.163
0,-1,3.164
-3,-3,3.165
-6,0,3.166
-6,2,3.167
0,1,3.168
3,0,3.169
6,0,3.17
0,0,3.171
-9,-1,3.172
-9,0,3.173
0,-1,3.174
0,-1,3.175
-1,-3,3.176
-2,-7,3.177
-1,-9,3.178
4,-7,3.179
8,-1,3.18
6,4,3.181
3,6,3.182
1,3,3.183
0,-1,3.184
-1,-2,3.185
-2,0,3.186
-2,1,3.187
0,1,3.188
1,0,3.189
2,-1,3.19
0,-2,3.191
-3,-2,3.192
-3,0,3.193
-2,1,3.194
-5,1,3.195
-12,0,3.196
-20,-2,3.197
-28,-5,3.198
-35,-5,3.199
-38,-3,3.2
-40,0,3.201
-36,2,3.202
-26,0,3.203
-6,-3,3.204
19,-1,3.205
46,0,3.206
71,0,3.207
91,1,3.208
102,1,3.209
99,1,3.21
85,0,3.211
62,-2,3.212
39,0,3.213
17,1,3.214
0,1,3.215
-13,0,3.216
-23,-2,3.217
-29,-5,3.218
-26,-5,3.219
-21,-3,3.22
-21,0,3.221
-25,2,3.222
-26,0,3.223
-21,-3,3.224
-19,-1,3.225
-20,0,3.226
-21,0,3.227
-17,1,3.228
-13,1,3.229
-13,1,3.23
-11,0,3.231
-8,-2,3.232
-4,0,3.233
-2,2,3.234
-4,2,3.235
-8,0,3.236
-10,-5,3.237
-9,-5,3.238
2,-5,3.239
9,-5,3.24
8,-3,3.241
3,0,3.242
4,-1,3.243
6,-2,3.244
4,0,3.245
2,4,3.246
4,8,3.247
10,8,3.248
10,7,3.249
6,5,3.25
4,1,3.251
4,-2,3.252
4,0,3.253
0,-1,3.254
-6,-1,3.255
-13,-1,3.256
-17,-2,3.257
-17,-3,3.258
-6,-4,3.259
3,-3,3.26
5,1,3.261
9,3,3.262
14,0,3.263
19,-3,3.264
24,-1,3.265
29,2,3.266
36,-1,3.267
42,-4,3.268
42,-4,3.269
40,-1,3.27
30,-1,3.271
20,-1,3.272
8,0,3.273
-2,0,3.274
-3,-1,3.275
-2,-2,3.276
-5,-5,3.277
-12,-3,3.278
-11,-2,3.279
-4,-3,3.28
-4,-2,3.281
-12,0,3.282
-19,3,3.283
-19,2,3.284
-18,0,3.285
-20,-1,3.286
-19,0,3.287
-11,2,3.288
-3,3,3.289
2,1,3.29
6,-1,3.291
13,0,3.292
15,2,3.293
11,1,3.294
6,-2,3.295
4,-4,3.296
3,-7,3.297
2,-4,3.298
6,0,3.299
13,0,3.3
13,-1,3.301
4,-1,3.302
-1,1,3.303
2,4,3.304
6,4,3.305
1,3,3.306
-3,3,3.307
-4,3,3.308
-3,1,3.309
-3,-1,3.31
-3,-2,3.311
0,0,3.312
1,-1,3.313
-2,-5,3.314
-5,-5,3.315
-6,-5,3.316
-4,-8,3.317
-2,-8,3.318
4,-5,3.319
11,-2,3.32
15,-2,3.321
14,-1,3.322
14,4,3.323
17,5,3.324
17,1,3.325
11,-4,3.326
4,-3,3.327
5,-1,3.328
9,-1,3.329
8,-2,3.33
6,-2,3.331
4,-1,3.332
4,-1,3.333
1,-4,3.334
-3,-4,3.335
-9,-3,3.336
-12,-3,3.337
-8,0,3.338
2,0,3.339
12,0,3.34
10,2,3.341
1,6,3.342
0,6,3.343
6,1,3.344
8,-2,3.345
1,1,3.346
-4,7,3.347
-4,7,3.348
0,4,3.349
0,4,3.35
0,5,3.351
0,3,3.352
0,-2,3.353
0,-5,3.354
2,-3,3.355
3,-1,3.356
0,-4,3.357
-3,-2,3.358
4,5,3.359
14,10,3.36
15,9,3.361
6,5,3.362
0,1,3.363
0,-1,3.364
-2,-4,3.365
-6,-6,3.366
-9,-8,3.367
-6,-8,3.368
-3,-7,3.369
0,-5,3.37
8,-5,3.371
16,-6,3.372
15,-5,3.373
7,-3,3.374
6,-1,3.375
11,0,3.376
15,-5,3.377
16,-8,3.378
18,-5,3.379
19,-2,3.38
11,0,3.381
-4,2,3.382
-13,2,3.383
-10,3,3.384
-5,4,3.385
-5,6,3.386
-5,6,3.387
-2,5,3.388
2,7,3.389
4,10,3.39
2,11,3.391
1,11,3.392
0,8,3.393
-3,5,3.394
-3,5,3.395
-4,5,3.396
-9,-1,3.397
-11,-11,3.398
-5,-19,3.399
0,-18,3.4
-1,-9,3.401
-3,-3,3.402
-3,-5,3.403
-1,-7,3.404
7,-4,3.405
13,-1,3.406
14,-3,3.407
14,-5,3.408
12,-6,3.409
10,-3,3.41
9,-1,3.411
7,0,3.412
3,3,3.413
-1,4,3.414
-4,2,3.415
-2,0,3.416
-1,-5,3.417
0,-6,3.418
2,-5,3.419
9,-2,3.42
11,0,3.421
7,3,3.422
3,3,3.423
4,2,3.424
5,2,3.425
1,3,3.426
-1,4,3.427
0,3,3.428
2,5,3.429
2,6,3.43
0,4,3.431
-1,0,3.432
-2,0,3.433
-4,-1,3.434
-5,-1,3.435
-7,-1,3.436
-9,-3,3.437
-11,-4,3.438
-7,-2,3.439
3,0,3.44
8,2,3.441
1,3,3.442
-4,3,3.443
0,4,3.444
8,5,3.445
7,6,3.446
3,3,3.447
3,2,3.448
6,4,3.449
9,6,3.45
7,5,3.451
7,4,3.452
9,3,3.453
7,-4,3.454
2,-4,3.455
-1,-4,3.456
-4,-7,3.457
-3,-9,3.458
4,-6,3.459
12,-2,3.46
13,1,3.461
8,4,3.462
10,5,3.463
14,6,3.464
12,8,3.465
0,9,3.466
-4,5,3.467
-3,3,3.468
0,7,3.469
-1,10,3.47
-3,8,3.471
-1,7,3.472
5,5,3.473
3,4,3.474
3,1,3.475
1,-4,3.476
-1,-6,3.477
0,-3,3.478
6,-1,3.479
16,-1,3.48
21,0,3.481
20,2,3.482
18,2,3.483
16,0,3.484
12,-1,3.485
7,0,3.486
3,2,3.487
0,1,3.488
-4,0,3.489
-7,0,3.49
-8,2,3.491
-7,4,3.492
-6,3,3.493
-10,-2,3.494
-12,-5,3.495
-12,-4,3.496
-12,-6,3.497
-10,-6,3.498
-5,-6,3.499
3,-4,3.5
6,-1,3.501
3,0,3.502
2,-1,3.503
6,-3,3.504
9,-3,3.505
6,-2,3.506
6,-5,3.507
8,-7,3.508
9,-6,3.509
5,-3,3.51
0,1,3.511
-2,0,3.512
-3,-3,3.513
-4,-4,3.514
-5,-3,3.515
-3,-2,3.516
-2,-8,3.517
-2,-11,3.518
1,-8,3.519
9,-1,3.52
13,3,3.521
12,5,3.522
9,5,3.523
8,4,3.524
7,2,3.525
3,1,3.526
1,2,3.527
2,4,3.528
5,3,3.529
6,2,3.53
4,2,3.531
0,5,3.532
1,4,3.533
1,0,3.534
1,-5,3.535
-3,-4,3.536
-8,-3,3.537
-10,-1,3.538
-5,0,3.539
1,0,3.54
0,3,3.541
-5,3,3.542
-7,0,3.543
-5,-2,3.544
-5,-2,3.545
-8,1,3.546
-7,1,3.547
-2,-3,3.548
5,-4,3.549
9,1,3.55
11,2,3.551
15,-1,3.552
22,-4,3.553
27,0,3.554
27,4,3.555
19,2,3.556
10,-6,3.557
5,-7,3.558
6,-2,3.559
7,2,3.56
5,5,3.561
0,7,3.562
-3,5,3.563
-3,2,3.564
0,-2,3.565
2,-3,3.566
0,-2,3.567
-3,-1,3.568
-4,-1,3.569
-2,0,3.57
-1,-1,3.571
-3,-3,3.572
-3,-1,3.573
-3,0,3.574
-2,0,3.575
-5,-1,3.576
-9,-6,3.577
-8,-5,3.578
-2,-5,3.579
4,-4,3.58
3,-1,3.581
-1,2,3.582
-1,0,3.583
1,-2,3.584
4,-1,3.585
4,4,3.586
3,4,3.587
1,-1,3.588
0,-4,3.589
1,-2,3.59
3,0,3.591
5,-1,3.592
7,0,3.593
7,3,3.594
7,3,3.595
2,-2,3.596
-2,-11,3.597
-2,-9,3.598
6,-4,3.599
15,-2,3.6
14,-1,3.601
7,0,3.602
1,3,3.603
0,2,3.604
2,0,3.605
4,2,3.606
3,5,3.607
1,2,3.608
1,-2,3.609
1,-2,3.61
0,2,3.611
-1,2,3.612
0,-1,3.613
2,-4,3.614
1,-2,3.615
-5,1,3.616
-10,-2,3.617
-8,-6,3.618
0,-4,3.619
6,-1,3.62
6,0,3.621
1,1,3.622
0,1,3.623
3,0,3.624
2,-1,3.625
0,2,3.626
-3,4,3.627
-4,0,3.628
-7,-6,3.629
-6,-4,3.63
-2,0,3.631
1,1,3.632
3,-1,3.633
4,-3,3.634
10,-1,3.635
15,1,3.636
19,-3,3.637
22,-5,3.638
22,-6,3.639
20,-4,3.64
14,-2,3.641
10,3,3.642
10,5,3.643
8,3,3.644
2,1,3.645
-2,1,3.646
-1,4,3.647
0,1,3.648
2,-1,3.649
4,0,3.65
1,1,3.651
-1,0,3.652
-5,-1,3.653
-6,-3,3.654
-4,-2,3.655
-4,-4,3.656
-9,-8,3.657
-11,-8,3.658
-6,-7,3.659
3,-4,3.66
6,2,3.661
1,7,3.662
-2,7,3.663
-1,1,3.664
-1,-1,3.665
-2,0,3.666
-2,3,3.667
0,1,3.668
1,0,3.669
-2,0,3.67
-2,2,3.671
0,0,3.672
3,0,3.673
-2,-2,3.674
-5,-2,3.675
-6,-3,3.676
-6,-8,3.677
-5,-7,3.678
-1,-1,3.679
4,3,3.68
8,4,3.681
6,3,3.682
7,1,3.683
10,1,3.684
10,1,3.685
8,0,3.686
10,0,3.687
16,0,3.688
17,1,3.689
14,0,3.69
16,0,3.691
24,0,3.692
26,2,3.693
17,1,3.694
4,0,3.695
-3,-2,3.696
-6,-6,3.697
-9,-8,3.698
-5,-6,3.699
0,-4,3.7
0,-2,3.701
-5,-1,3.702
-7,0,3.703
-3,2,3.704
-1,0,3.705
-4,-1,3.706
-5,0,3.707
-5,1,3.708
-1,0,3.709
1,-2,3.71
0,-2,3.711
1,0,3.712
3,1,3.713
5,2,3.714
2,0,3.715
-1,-3,3.716
-3,-7,3.717
-3,-6,3.718
7,-4,3.719
17,-2,3.72
11,1,3.721
7,5,3.722
9,5,3.723
9,1,3.724
3,-1,3.725
1,1,3.726
-1,3,3.727
-5,0,3.728
-1,-3,3.729
1,-2,3.73
2,1,3.731
3,-1,3.732
-1,-1,3.733
4,-1,3.734
2,1,3.735
0,-1,3.736
-1,-5,3.737
-1,-2,3.738
5,1,3.739
10,2,3.74
7,2,3.741
5,3,3.742
6,3,3.743
6,-1,3.744
3,-2,3.745
1,3,3.746
0,6,3.747
-2,2,3.748
0,-1,3.749
1,0,3.75
2,1,3.751
3,0,3.752
0,0,3.753
-2,0,3.754
-3,-2,3.755
-3,-7,3.756
-4,-11,3.757
-6,-7,3.758
-2,0,3.759
2,1,3.76
2,0,3.761
-2,3,3.762
-1,5,3.763
4,3,3.764
6,0,3.765
1,1,3.766
0,2,3.767
2,0,3.768
5,-1,3.769
4,1,3.77
6,3,3.771
11,0,3.772
13,-3,3.773
10,-4,3.774
8,-3,3.775
10,-2,3.776
10,-5,3.777
9,-7,3.778
11,-2,3.779
14,2,3.78
11,2,3.781
2,3,3.782
-4,3,3.783
-4,1,3.784
-5,-1,3.785
-7,-4,3.786
-5,-2,3.787
1,-1,3.788
2,-3,3.789
-3,-5,3.79
-7,-3,3.791
-6,-2,3.792
0,-2,3.793
0,-1,3.794
-2,0,3.795
-6,-3,3.796
-10,-9,3.797
-11,-9,3.798
-5,-4,3.799
-1,0,3.8
0,2,3.801
1,3,3.802
1,3,3.803
2,4,3.804
3,5,3.805
5,5,3.806
7,3,3.807
10,2,3.808
10,2,3.809
9,3,3.81
10,2,3.811
10,-1,3.812
7,-2,3.813
3,-3,3.814
-2,-3,3.815
-3,-5,3.816
-3,-9,3.817
-1,-9,3.818
5,-5,3.819
11,0,3.82
12,2,3.821
9,3,3.822
9,1,3.823
11,0,3.824
8,-2,3.825
3,-1,3.826
2,-1,3.827
6,0,3.828
4,1,3.829
-1,0,3.83
-1,-2,3.831
1,-5,3.832
3,-1,3.833
1,2,3.834
1,3,3.835
-2,-2,3.836
-10,-7,3.837
-18,-5,3.838
-15,-1,3.839
-9,-1,3.84
-9,1,3.841
-13,5,3.842
-11,3,3.843
-4,-5,3.844
4,-8,3.845
12,-1,3.846
23,6,3.847
32,4,3.848
32,-1,3.849
25,1,3.85
17,5,3.851
9,4,3.852
4,2,3.853
-7,0,3.854
-12,0,3.855
-16,-3,3.856
-14,-9,3.857
-10,-9,3.858
0,-5,3.859
7,0,3.86
10,1,3.861
13,3,3.862
10,3,3.863
7,0,3.864
10,-2,3.865
11,-1,3.866
9,0,3.867
6,-3,3.868
6,-4,3.869
6,0,3.87
6,4,3.871
4,3,3.872
2,0,3.873
-5,-2,3.874
-8,0,3.875
-11,-1,3.876
-10,-6,3.877
-7,-6,3.878
0,-5,3.879
6,-2,3.88
8,3,3.881
10,8,3.882
8,6,3.883
6,2,3.884
8,0,3.885
9,2,3.886
7,4,3.887
5,2,3.888
5,-1,3.889
5,-1,3.89
5,2,3.891
4,2,3.892
2,2,3.893
1,1,3.894
-2,0,3.895
-5,-3,3.896
-6,-6,3.897
-4,-3,3.898
3,2,3.899
12,3,3.9
12,3,3.901
6,2,3.902
3,4,3.903
3,4,3.904
4,2,3.905
0,-1,3.906
-2,-3,3.907
0,-5,3.908
2,-3,3.909
0,-1,3.91
0,0,3.911
5,-2,3.912
12,-3,3.913
11,-3,3.914
5,-1,3.915
1,-3,3.916
1,-7,3.917
3,-8,3.918
9,-6,3.919
15,-3,3.92
11,-1,3.921
1,1,3.922
-5,1,3.923
-1,-1,3.924
4,-3,3.925
3,0,3.926
0,3,3.927
0,2,3.928
3,-1,3.929
4,-1,3.93
5,0,3.931
8,0,3.932
11,0,3.933
5,1,3.934
0,2,3.935
-3,1,3.936
-5,-4,3.937
-6,-7,3.938
-4,-5,3.939
1,-1,3.94
4,1,3.941
-1,1,3.942
-5,0,3.943
-5,0,3.944
-2,2,3.945
2,3,3.946
7,1,3.947
12,0,3.948
15,0,3.949
13,1,3.95
14,1,3.951
13,-2,3.952
9,0,3.953
-1,1,3.954
-7,2,3.955
-12,1,3.956
-12,-2,3.957
-10,-3,3.958
-4,-4,3.959
1,-4,3.96
3,0,3.961
5,2,3.962
6,3,3.963
6,0,3.964
4,-2,3.965
2,-2,3.966
2,-3,3.967
2,-5,3.968
3,-5,3.969
4,-3,3.97
0,-1,3.971
-3,-2,3.972
-4,-1,3.973
-6,-2,3.974
-8,-1,3.975
-11,-2,3.976
-10,-5,3.977
-3,-3,3.978
8,-2,3.979
16,-3,3.98
15,-2,3.981
13,2,3.982
14,4,3.983
16,2,3.984
11,0,3.985
5,2,3.986
5,3,3.987
8,0,3.988
9,-1,3.989
8,2,3.99
4,7,3.991
0,4,3.992
-1,0,3.993
-3,0,3.994
-4,0,3.995
-9,0,3.996
-11,-3,3.997
-9,-5,3.998
-3,-2,3.999
0,1,4.0
1,2,4.001
0,3,4.002
1,1,4.003
3,0,4.004
7,2,4.005
8,4,4.006
10,4,4.007
13,3,4.008
15,-1,4.009
13,-4,4.01
7,-4,4.011
2,-4,4.012
3,-4,4.013
3,-4,4.014
0,-5,4.015
-8,-4,4.016
-13,-4,4.017
-10,-2,4.018
-3,-5,4.019
3,-5,4.02
5,-2,4.021
1,4,4.022
0,5,4.023
3,0,4.024
9,-1,4.025
10,1,4.026
8,2,4.027
7,-2,4.028
9,-4,4.029
6,-2,4.03
2,-1,4.031
2,-2,4.032
7,1,4.033
9,3,4.034
4,3,4.035
-3,-1,4.036
-6,-7,4.037
-2,-6,4.038
3,-2,4.039
6,0,4.04
5,2,4.041
0,2,4.042
-1,1,4.043
1,0,4.044
4,1,4.045
3,2,4.046
1,-1,4.047
1,-4,4.048
2,-2,4.049
2,3,4.05
2,2,4.051
4,-2,4.052
4,0,4.053
-1,2,4.054
-5,1,4.055
-8,-4,4.056
-8,-8,4.057
-7,-5,4.058
-2,1,4.059
8,4,4.06
12,5,4.061
9,4,4.062
5,2,4.063
8,0,4.064
10,0,4.065
8,1,4.066
7,0,4.067
9,-3,4.068
8,-3,4.069
2,1,4.07
0,3,4.071
5,1,4.072
12,0,4.073
12,-1,4.074
6,-2,4.075
-4,-4,4.076
-10,-5,4.077
-13,-3,4.078
-10,-2,4.079
-5,-1,4.08
-4,4,4.081
-4,7,4.082
0,3,4.083
8,-2,4.084
10,-2,4.085
10,0,4.086
11,1,4.087
14,0,4.088
13,0,4.089
7,1,4.09
7,0,4.091
11,-1,4.092
13,0,4.093
5,1,4.094
-2,2,4.095
-8,0,4.096
-13,-6,4.097
-15,-8,4.098
-9,-7,4.099
0,-2,4.1
1,2,4.101
-6,1,4.102
-7,0,4.103
-1,-2,4.104
4,-1,4.105
0,-1,4.106
-4,-2,4.107
-4,-3,4.108
0,-3,4.109
1,-2,4.11
0,-2,4.111
-1,-1,4.112
1,0,4.113
2,-2,4.114
1,-7,4.115
-2,-9,4.116
-5,-10,4.117
-3,-8,4.118
2,-7,4.119
10,-7,4.12
11,-5,4.121
7,-1,4.122
4,3,4.123
4,2,4.124
4,1,4.125
4,1,4.126
4,3,4.127
5,4,4.128
5,5,4.129
4,6,4.13
8,7,4.131
13,5,4.132
17,2,4.133
15,3,4.134
13,7,4.135
10,9,4.136
7,5,4.137
4,1,4.138
8,2,4.139
9,4,4.14
3,4,4.141
-2,5,4.142
-2,4,4.143
-2,2,4.144
-2,0,4.145
-1,-2,4.146
-1,0,4.147
0,3,4.148
-2,4,4.149
-3,5,4.15
-1,3,4.151
0,1,4.152
1,0,4.153
3,-3,4.154
2,-4,4.155
-1,-7,4.156
-5,-9,4.157
-6,-6,4.158
-2,-3,4.159
5,-1,4.16
8,-3,4.161
2,-1,4.162
-1,0,4.163
0,-2,4.164
2,-3,4.165
1,-2,4.166
3,0,4.167
8,-3,4.168
9,-5,4.169
3,-6,4.17
-2,-5,4.171
-3,-5,4.172
0,-5,4.173
1,-3,4.174
2,0,4.175
0,2,4.176
-1,-2,4.177
0,-4,4.178
9,-2,4.179
19,0,4.18
23,1,4.181
20,2,4.182
16,2,4.183
16,2,4.184
15,2,4.185
8,1,4.186
2,1,4.187
1,1,4.188
3,2,4.189
2,3,4.19
0,1,4.191
-1,0,4.192
-2,-1,4.193
-4,-1,4.194
-6,-1,4.195
-10,-2,4.196
-14,-6,4.197
-15,-6,4.198
-7,-4,4.199
0,-6,4.2
1,-6,4.201
-5,-1,4.202
-10,2,4.203
-5,0,4.204
0,-5,4.205
1,-5,4.206
1,0,4.207
3,3,4.208
2,3,4.209
-1,2,4.21
-1,4,4.211
1,4,4.212
4,4,4.213
2,1,4.214
1,0,4.215
0,0,4.216
-3,-1,4.217
-6,-2,4.218
-2,0,4.219
8,4,4.22
14,6,4.221
10,4,4.222
6,2,4.223
7,0,4.224
5,1,4.225
1,2,4.226
1,3,4.227
8,3,4.228
12,1,4.229
12,-2,4.23
10,-5,4.231
9,-6,4.232
7,-2,4.233
0,-3,4.234
-3,-4,4.235
-3,-6,4.236
-3,-10,4.237
-4,-11,4.238
-1,-9,4.239
6,-5,4.24
8,-1,4.241
2,0,4.242
-1,-1,4.243
3,-1,4.244
8,-2,4.245
7,-4,4.246
3,-6,4.247
4,-5,4.248
7,-3,4.249
6,-1,4.25
3,-2,4.251
0,-3,4.252
2,0,4.253
2,0,4.254
0,0,4.255
-5,-1,4.256
-7,-5,4.257
-6,-4,4.258
0,-1,4.259
8,3,4.26
14,4,4.261
14,1,4.262
11,-2,4.263
6,-3,4.264
3,-1,4.265
3,0,4.266
2,1,4.267
2,1,4.268
3,2,4.269
2,4,4.27
2,4,4.271
5,4,4.272
13,5,4.273
18,3,4.274
17,1,4.275
5,0,4.276
-6,-4,4.277
-8,-2,4.278
-3,1,4.279
1,4,4.28
1,6,4.281
-3,5,4.282
-3,3,4.283
0,1,4.284
0,-1,4.285
-3,-1,4.286
-5,0,4.287
-4,1,4.288
-2,0,4.289
-3,-3,4.29
-4,-3,4.291
-1,0,4.292
1,2,4.293
0,0,4.294
-2,-1,4.295
-4,-2,4.296
-5,-5,4.297
-3,-5,4.298
1,-2,4.299
5,0,4.3
2,1,4.301
-3,0,4.302
-4,1,4.303
4,2,4.304
13,1,4.305
13,-1,4.306
9,-2,4.307
11,-1,4.308
13,0,4.309
9,1,4.31
6,3,4.311
7,2,4.312
9,0,4.313
4,-2,4.314
-2,-2,4.315
-3,-4,4.316
-2,-10,4.317
-2,-12,4.318
-2,-7,4.319
4,-2,4.32
7,-2,4.321
1,-2,4.322
-2,-1,4.323
0,0,4.324
6,0,4.325
4,-1,4.326
-2,-2,4.327
-2,-4,4.328
0,-3,4.329
1,0,4.33
3,4,4.331
6,2,4.332
7,0,4.333
1,-3,4.334
-4,-3,4.335
-10,-3,4.336
-16,-4,4.337
-16,-1,4.338
-6,0,4.339
6,0,4.34
12,2,4.341
7,6,4.342
3,7,4.343
8,3,4.344
16,0,4.345
19,0,4.346
18,-2,4.347
18,-3,4.348
18,-2,4.349
15,0,4.35
12,2,4.351
10,-1,4.352
9,-1,4.353
5,-2,4.354
2,-3,4.355
0,-6,4.356
-3,-9,4.357
-6,-5,4.358
-4,0,4.359
3,1,4.36
6,2,4.361
2,5,4.362
-4,5,4.363
-5,0,4.364
-4,-5,4.365
-3,-2,4.366
-1,0,4.367
0,-1,4.368
1,-3,4.369
-1,-2,4.37
-3,3,4.371
-2,2,4.372
0,1,4.373
-2,0,4.374
-4,-1,4.375
-5,-3,4.376
-4,-7,4.377
-5,-8,4.378
-3,-5,4.379
3,-1,4.38
8,3,4.381
4,8,4.382
0,6,4.383
2,-1,4.384
7,-2,4.385
6,3,4.386
1,6,4.387
-1,4,4.388
-3,1,4.389
-4,3,4.39
-3,1,4.391
1,-3,4.392
7,-4,4.393
7,-3,4.394
7,-2,4.395
12,-2,4.396
17,-3,4.397
14,-3,4.398
11,-5,4.399
12,-5,4.4
14,0,4.401
11,6,4.402
6,6,4.403
5,1,4.404
3,1,4.405
-2,3,4.406
-6,3,4.407
-2,0,4.408
5,-1,4.409
4,-1,4.41
-1,-4,4.411
-3,-6,4.412
2,-2,4.413
2,0,4.414
-2,0,4.415
-8,-4,4.416
-10,-7,4.417
-6,-7,4.418
-1,-6,4.419
3,-5,4.42
2,-1,4.421
-3,3,4.422
-4,0,4.423
0,-4,4.424
5,-3,4.425
3,1,4.426
0,1,4.427
0,-1,4.428
0,-2,4.429
0,0,4.43
1,0,4.431
2,-2,4.432
1,-1,4.433
0,0,4.434
2,-1,4.435
1,-1,4.436
1,-3,4.437
2,-4,4.438
8,-4,4.439
15,-2,4.44
10,2,4.441
0,4,4.442
-5,-1,4.443
-2,-4,4.444
1,-3,4.445
2,1,4.446
4,1,4.447
9,-1,4.448
12,0,4.449
13,0,4.45
12,-2,4.451
10,-2,4.452
11,1,4.453
9,3,4.454
7,1,4.455
1,-1,4.456
-3,-4,4.457
-3,-4,4.458
3,-3,4.459
9,-3,4.46
5,0,4.461
-3,4,4.462
-5,4,4.463
3,2,4.464
9,3,4.465
7,6,4.466
-1,6,4.467
-6,3,4.468
-5,0,4.469
-1,0,4.47
1,-3,4.471
0,-4,4.472
-3,-2,4.473
-4,-1,4.474
-3,-2,4.475
-5,-6,4.476
-11,-10,4.477
-13,-8,4.478
-6,-4,4.479
5,-1,4.48
8,2,4.481
0,4,4.482
-4,5,4.483
-3,1,4.484
0,-1,4.485
0,0,4.486
-1,2,4.487
0,2,4.488
1,0,4.489
3,0,4.49
8,2,4.491
17,4,4.492
20,4,4.493
18,0,4.494
18,-1,4.495
17,0,4.496
12,-2,4.497
2,-3,4.498
4,-3,4.499
12,1,4.5
15,6,4.501
7,6,4.502
-1,0,4.503
0,-5,4.504
2,-4,4.505
0,2,4.506
-5,5,4.507
-4,3,4.508
0,-2,4.509
-2,-5,4.51
-5,-2,4.511
-6,1,4.512
-4,1,4.513
-4,-2,4.514
-6,-4,4.515
-9,-5,4.516
-10,-7,4.517
-6,-7,4.518
0,-5,4.519
5,-1,4.52
5,0,4.521
1,0,4.522
1,-2,4.523
5,-4,4.524
9,-4,4.525
7,-1,4.526
5,1,4.527
3,1,4.528
3,0,4.529
3,-1,4.53
2,0,4.531
0,1,4.532
1,2,4.533
0,0,4.534
0,0,4.535
-3,0,4.536
-8,-1,4.537
-7,-2,4.538
1,-2,4.539
10,-1,4.54
13,2,4.541
11,4,4.542
10,3,4.543
13,0,4.544
13,0,4.545
11,-2,4.546
6,-1,4.547
3,0,4.548
0,0,4.549
-2,1,4.55
-2,0,4.551
-1,-2,4.552
2,-1,4.553
2,-1,4.554
1,-2,4.555
-2,-4,4.556
-6,-7,4.557
-8,-3,4.558
-2,-2,4.559
8,-2,4.56
12,-2,4.561
8,1,4.562
1,3,4.563
2,0,4.564
5,-2,4.565
7,0,4.566
4,1,4.567
2,-1,4.568
2,-3,4.569
0,-3,4.57
0,-1,4.571
-1,-1,4.572
1,-1,4.573
4,0,4.574
6,1,4.575
3,0,4.576
-1,-7,4.577
-3,-7,4.578
0,-3,4.579
7,0,4.58
14,3,4.581
13,3,4.582
6,2,4.583
2,0,4.584
4,-1,4.585
5,2,4.586
6,5,4.587
5,3,4.588
4,2,4.589
0,2,4.59
-3,4,4.591
-4,3,4.592
0,1,4.593
0,-2,4.594
-2,-3,4.595
-7,-5,4.596
-9,-7,4.597
-9,-5,4.598
-6,-1,4.599
0,1,4.6
4,3,4.601
3,5,4.602
1,4,4.603
2,0,4.604
2,-1,4.605
0,1,4.606
-3,0,4.607
-2,-1,4.608
0,-1,4.609
0,2,4.61
-2,1,4.611
-1,-5,4.612
-1,-6,4.613
-4,-3,4.614
-4,-2,4.615
-3,-5,4.616
5,-9,4.617
11,-7,4.618
15,-1,4.619
18,4,4.62
18,4,4.621
17,5,4.622
15,3,4.623
14,2,4.624
12,0,4.625
10,0,4.626
7,0,4.627
4,2,4.628
3,1,4.629
1,1,4.63
-3,0,4.631
-5,0,4.632
-3,1,4.633
-1,0,4.634
-5,-2,4.635
-10,-4,4.636
-9,-5,4.637
-2,-5,4.638
8,-2,4.639
11,0,4.64
5,2,4.641
-3,1,4.642
-4,0,4.643
-1,-1,4.644
0,0,4.645
0,0,4.646
3,1,4.647
5,3,4.648
2,1,4.649
-4,-2,4.65
-3,-5,4.651
2,-4,4.652
3,0,4.653
0,0,4.654
0,-1,4.655
3,-4,4.656
5,-8,4.657
6,-8,4.658
8,-5,4.659
12,1,4.66
11,4,4.661
7,1,4.662
4,0,4.663
6,4,4.664
5,7,4.665
3,3,4.666
2,-3,4.667
2,-5,4.668
0,-2,4.669
-2,0,4.67
-2,-1,4.671
0,-3,4.672
0,-3,4.673
-2,-3,4.674
-1,-2,4.675
-1,-1,4.676
-5,-2,4.677
-8,-3,4.678
-3,-3,4.679
4,-2,4.68
6,2,4.681
4,7,4.682
2,6,4.683
6,1,4.684
11,0,4.685
12,3,4.686
8,2,4.687
9,-1,4.688
10,-2,4.689
8,1,4.69
4,3,4.691
3,2,4.692
5,3,4.693
3,3,4.694
1,1,4.695
-4,-3,4.696
-8,-8,4.697
-7,-7,4.698
0,-4,4.699
11,-1,4.7
16,1,4.701
10,2,4.702
1,1,4.703
0,-1,4.704
4,-3,4.705
4,-2,4.706
-1,0,4.707
-5,1,4.708
-4,1,4.709
0,-2,4.71
0,-4,4.711
-2,-6,4.712
0,-4,4.713
1,-4,4.714
0,-2,4.715
-5,-2,4.716
-9,-5,4.717
-7,-6,4.718
-1,-6,4.719
6,-2,4.72
8,1,4.721
1,2,4.722
-5,1,4.723
-7,0,4.724
-4,2,4.725
-1,1,4.726
-1,-1,4.727
1,-3,4.728
8,-1,4.729
14,2,4.73
18,4,4.731
18,1,4.732
20,-1,4.733
20,0,4.734
19,1,4.735
17,0,4.736
12,-5,4.737
8,-5,4.738
10,-4,4.739
14,-2,4.74
10,1,4.741
0,2,4.742
-5,1,4.743
-3,0,4.744
-1,0,4.745
-4,1,4.746
-7,0,4.747
-5,-1,4.748
-1,-2,4.749
-4,-1,4.75
-6,0,4.751
-7,1,4.752
-5,1,4.753
-8,2,4.754
-8,1,4.755
-9,1,4.756
-11,-3,4.757
-11,-3,4.758
-7,-2,4.759
0,2,4.76
1,5,4.761
-1,6,4.762
0,2,4.763
9,-1,4.764
17,-2,4.765
15,0,4.766
9,1,4.767
4,-3,4.768
1,-4,4.769
0,-3,4.77
2,-2,4.771
4,-2,4.772
5,-1,4.773
0,-1,4.774
-3,0,4.775
-6,-2,4.776
-5,-5,4.777
-1,-7,4.778
8,-6,4.779
15,-3,4.78
14,-1,4.781
4,0,4.782
0,0,4.783
3,-3,4.784
8,-4,4.785
6,-2,4.786
2,1,4.787
2,0,4.788
-1,-3,4.789
-4,-4,4.79
-4,0,4.791
3,4,4.792
9,5,4.793
7,-2,4.794
3,-4,4.795
-1,-1,4.796
-5,-1,4.797
-4,-2,4.798
2,-2,4.799
13,3,4.8
14,8,4.801
7,8,4.802
4,5,4.803
11,3,4.804
11,6,4.805
3,7,4.806
0,4,4.807
4,0,4.808
8,-1,4.809
3,1,4.81
-1,0,4.811
-1,-1,4.812
0,-1,4.813
-2,-2,4.814
-5,-1,4.815
-6,0,4.816
-7,-3,4.817
-6,-5,4.818
2,-2,4.819
13,0,4.82
16,2,4.821
12,3,4.822
10,1,4.823
12,0,4.824
13,0,4.825
8,0,4.826
7,-3,4.827
9,-6,4.828
7,-4,4.829
2,-3,4.83
-2,-4,4.831
-3,-5,4.832
0,-5,4.833
1,-5,4.834
-2,-4,4.835
-7,-3,4.836
-11,-5,4.837
-8,-7,4.838
-2,-7,4.839
0,-5,4.84
-1,0,4.841
-2,1,4.842
-1,-2,4.843
-1,-3,4.844
-2,0,4.845
-1,2,4.846
3,0,4.847
9,-2,4.848
11,-1,4.849
9,0,4.85
6,0,4.851
6,0,4.852
8,2,4.853
10,0,4.854
8,-3,4.855
4,-5,4.856
-1,-5,4.857
-4,-3,4.858
-1,-2,4.859
5,-1,4.86
9,1,4.861
4,3,4.862
1,3,4.863
2,4,4.864
4,4,4.865
3,3,4.866
0,0,4.867
0,0,4.868
4,0,4.869
5,2,4.87
3,2,4.871
-3,0,4.872
-15,0,4.873
-37,-1,4.874
-51,0,4.875
-40,-1,4.876
-13,-6,4.877
7,-7,4.878
15,-6,4.879
23,-1,4.88
37,3,4.881
46,4,4.882
49,2,4.883
53,2,4.884
49,1,4.885
30,3,4.886
9,4,4.887
1,3,4.888
7,-1,4.889
6,-1,4.89
-3,1,4.891
-9,4,4.892
-9,5,4.893
-11,0,4.894
-16,-1,4.895
-19,-1,4.896
-19,-4,4.897
-19,-5,4.898
-16,-3,4.899
-11,-2,4.9
-5,0,4.901
-4,0,4.902
-2,0,4.903
4,-1,4.904
11,-3,4.905
15,-2,4.906
18,0,4.907
24,2,4.908
22,1,4.909
10,-1,4.91
-5,-2,4.911
-8,-1,4.912
-3,1,4.913
-2,0,4.914
-5,0,4.915
-9,1,4.916
-10,0,4.917
-6,-2,4.918
1,-2,4.919
9,-1,4.92
8,2,4.921
1,3,4.922
-2,0,4.923
1,-2,4.924
4,0,4.925
3,5,4.926
2,4,4.927
1,-2,4.928
2,-7,4.929
2,-5,4.93
1,2,4.931
1,15,4.932
2,37,4.933
1,64,4.934
1,85,4.935
0,77,4.936
-2,24,4.937
-3,-51,4.938
1,-116,4.939
5,-146,4.94
11,-136,4.941
17,-96,4.942
17,-40,4.943
16,10,4.944
9,35,4.945
1,29,4.946
-4,16,4.947
-8,18,4.948
-6,28,4.949
-3,30,4.95
2,20,4.951
5,17,4.952
0,22,4.953
-5,21,4.954
-7,11,4.955
-5,5,4.956
-1,3,4.957
5,4,4.958
23,2,4.959
40,0,4.96
34,5,4.961
3,8,4.962
-21,7,4.963
-22,2,4.964
-10,2,4.965
0,5,4.966
9,5,4.967
15,1,4.968
2,-1,4.969
-30,-1,4.97
-48,2,4.971
-32,4,4.972
0,3,4.973
14,-3,4.974
4,-5,4.975
-13,-7,4.976
-21,-8,4.977
-18,-8,4.978
-5,-5,4.979
17,-2,4.98
34,0,4.981
33,3,4.982
24,2,4.983
21,1,4.984
29,1,4.985
31,1,4.986
22,0,4.987
15,-2,4.988
11,-2,4.989
4,-2,4.99
-6,-3,4.991
-10,-4,4.992
-4,-1,4.993
3,1,4.994
6,-2,4.995
0,-4,4.996
-5,0,4.997
-7,9,4.998
-6,20,4.999
-4,33,5.0
-4,47,5.001
-5,63,5.002
0,82,5.003
18,105,5.004
30,114,5.005
24,86,5.006
11,14,5.007
7,-76,5.008
12,-151,5.009
9,-197,5.01
-2,-211,5.011
-8,-191,5.012
-6,-142,5.013
-7,-84,5.014
-14,-46,5.015
-18,-33,5.016
-18,-23,5.017
-14,7,5.018
-4,39,5.019
7,51,5.02
11,52,5.021
5,57,5.022
3,68,5.023
7,71,5.024
11,63,5.025
13,57,5.026
15,55,5.027
13,48,5.028
2,36,5.029
-11,33,5.03
-12,38,5.031
-6,41,5.032
-3,36,5.033
-9,19,5.034
-10,3,5.035
-6,-9,5.036
-8,-23,5.037
-9,-32,5.038
-1,-34,5.039
11,-22,5.04
15,0,5.041
11,13,5.042
11,3,5.043
17,-21,5.044
15,-37,5.045
6,-35,5.046
-3,-31,5.047
-4,-38,5.048
-3,-42,5.049
-2,-27,5.05
0,-7,5.051
5,3,5.052
10,5,5.053
11,6,5.054
13,12,5.055
9,13,5.056
1,6,5.057
-4,4,5.058
1,9,5.059
8,12,5.06
9,14,5.061
6,17,5.062
7,17,5.063
11,13,5.064
14,7,5.065
11,7,5.066
8,10,5.067
4,7,5.068
-1,3,5.069
-4,0,5.07
-5,1,5.071
-8,0,5.072
-11,0,5.073
-11,1,5.074
-6,0,5.075
-3,-3,5.076
-3,-11,5.077
0,-12,5.078
12,-8,5.079
23,-7,5.08
22,-5,5.081
11,0,5.082
4,2,5.083
0,1,5.084
-2,-1,5.085
-5,3,5.086
-2,14,5.087
3,25,5.088
7,26,5.089
9,15,5.09
8,-4,5.091
4,-27,5.092
-2,-41,5.093
-8,-44,5.094
-12,-38,5.095
-16,-25,5.096
-22,-12,5.097
-24,-3,5.098
-18,-1,5.099
-3,-1,5.1
6,5,5.101
9,12,5.102
10,12,5.103
11,7,5.104
4,7,5.105
-5,10,5.106
-12,7,5.107
-10,-3,5.108
-1,-6,5.109
14,0,5.11
31,4,5.111
46,2,5.112
53,0,5.113
40,-2,5.114
15,-1,5.115
-5,-4,5.116
-7,-9,5.117
-5,-7,5.118
-11,-5,5.119
-19,-2,5.12
-17,0,5.121
-6,2,5.122
3,2,5.123
5,3,5.124
5,5,5.125
5,9,5.126
1,8,5.127
-5,3,5.128
-3,-1,5.129
0,-2,5.13
0,1,5.131
-5,9,5.132
-7,17,5.133
-4,19,5.134
1,14,5.135
2,6,5.136
3,1,5.137
8,7,5.138
15,18,5.139
22,33,5.14
23,49,5.141
21,57,5.142
21,48,5.143
26,23,5.144
28,8,5.145
20,11,5.146
10,11,5.147
5,-20,5.148
4,-75,5.149
-2,-122,5.15
-17,-141,5.151
-30,-133,5.152
-33,-107,5.153
-33,-55,5.154
-31,16,5.155
-32,77,5.156
-30,96,5.157
-23,80,5.158
-8,55,5.159
11,36,5.16
27,27,5.161
31,19,5.162
19,11,5.163
1,-17,5.164
-8,-77,5.165
-8,-142,5.166
-5,-160,5.167
-4,-131,5.168
-3,-97,5.169
-2,-77,5.17
-2,-45,5.171
-2,10,5.172
2,53,5.173
11,58,5.174
17,61,5.175
13,99,5.176
4,139,5.177
2,136,5.178
13,95,5.179
24,56,5.18
26,25,5.181
22,-15,5.182
21,-54,5.183
25,-63,5.184
26,-44,5.185
19,-21,5.186
11,-11,5.187
7,-6,5.188
7,1,5.189
2,12,5.19
-9,26,5.191
-18,44,5.192
-14,62,5.193
-9,66,5.194
-13,58,5.195
-26,46,5.196
-36,41,5.197
-33,51,5.198
-19,71,5.199
-1,90,5.2
14,93,5.201
24,65,5.202
31,-2,5.203
32,-95,5.204
30,-173,5.205
28,-202,5.206
27,-180,5.207
25,-139,5.208
17,-107,5.209
5,-71,5.21
-3,-10,5.211
-3,72,5.212
0,141,5.213
-1,174,5.214
-6,175,5.215
-13,156,5.216
-17,77,5.217
-15,-4,5.218
-8,-93,5.219
1,-173,5.22
4,-225,5.221
-2,-249,5.222
-10,-185,5.223
-9,-122,5.224
-4,-60,5.225
0,-6,5.226
0,26,5.227
0,57,5.228
4,87,5.229
8,118,5.23
8,153,5.231
2,169,5.232
-4,127,5.233
-9,69,5.234
-6,-25,5.235
0,-67,5.236
1,-75,5.237
-2,-77,5.238
-2,-68,5.239
7,-36,5.24
17,-4,5.241
20,9,5.242
16,20,5.243
17,48,5.244
20,69,5.245
19,56,5.246
11,26,5.247
-4,8,5.248
-20,-1,5.249
-24,-17,5.25
-15,-28,5.251
-2,-13,5.252
7,15,5.253
8,40,5.254
9,68,5.255
5,108,5.256
1,138,5.257
0,133,5.258
6,103,5.259
16,92,5.26
19,128,5.261
14,194,5.262
7,219,5.263
5,126,5.264
5,-92,5.265
5,-336,5.266
3,-483,5.267
2,-511,5.268
2,-464,5.269
0,-356,5.27
-2,-186,5.271
-5,-30,5.272
-6,25,5.273
-4,7,5.274
-3,23,5.275
-8,100,5.276
-10,148,5.277
-7,130,5.278
-1,104,5.279
3,111,5.28
5,116,5.281
7,92,5.282
5,74,5.283
5,81,5.284
6,73,5.285
6,32,5.286
3,-11,5.287
3,-28,5.288
4,-32,5.289
3,-32,5.29
2,-14,5.291
5,16,5.292
11,30,5.293
5,13,5.294
-5,0,5.295
-9,8,5.296
-3,21,5.297
1,23,5.298
-5,20,5.299
-7,24,5.3
5,27,5.301
24,19,5.302
35,7,5.303
26,0,5.304
6,-2,5.305
-12,-1,5.306
-14,5,5.307
-5,15,5.308
0,21,5.309
-3,18,5.31
-8,7,5.311
0,-6,5.312
13,-16,5.313
16,-24,5.314
10,-23,5.315
3,-14,5.316
-2,-2,5.317
-4,12,5.318
-2,13,5.319
7,0,5.32
11,-13,5.321
0,-12,5.322
-11,-1,5.323
-6,7,5.324
2,8,5.325
3,12,5.326
-2,14,5.327
-1,1,5.328
3,-29,5.329
2,-61,5.33
5,-76,5.331
18,-69,5.332
32,-49,5.333
25,-30,5.334
5,-11,5.335
-7,16,5.336
-3,45,5.337
2,67,5.338
0,71,5.339
-3,60,5.34
-5,36,5.341
-10,-1,5.342
-18,-49,5.343
-18,-88,5.344
-12,-96,5.345
-5,-73,5.346
-5,-33,5.347
-4,5,5.348
0,29,5.349
7,26,5.35
12,2,5.351
14,-16,5.352
18,-18,5.353
18,-11,5.354
15,0,5.355
3,21,5.356
-9,39,5.357
-18,38,5.358
-18,26,5.359
-10,45,5.36
4,114,5.361
23,183,5.362
38,179,5.363
41,80,5.364
32,-69,5.365
23,-197,5.366
17,-253,5.367
15,-227,5.368
20,-146,5.369
42,-55,5.37
62,5,5.371
52,23,5.372
10,19,5.373
-27,20,5.374
-30,32,5.375
-33,41,5.376
-34,35,5.377
-35,29,5.378
-33,29,5.379
-29,32,5.38
-22,32,5.381
-13,32,5.382
-3,30,5.383
4,22,5.384
5,11,5.385
5,10,5.386
0,16,5.387
-4,15,5.388
-4,6,5.389
-4,2,5.39
-8,5,5.391
-11,4,5.392
-14,0,5.393
-16,-1,5.394
-11,4,5.395
-6,10,5.396
-7,12,5.397
-4,18,5.398
12,25,5.399
28,30,5.4
29,41,5.401
19,53,5.402
15,45,5.403
19,5,5.404
21,-46,5.405
17,-82,5.406
15,-97,5.407
14,-99,5.408
10,-83,5.409
1,-49,5.41
-4,-15,5.411
-4,3,5.412
-4,18,5.413
-4,33,5.414
-4,41,5.415
-4,39,5.416
-6,7,5.417
-5,-17,5.418
7,-14,5.419
19,0,5.42
27,50,5.421
32,91,5.422
30,101,5.423
25,94,5.424
14,36,5.425
2,-16,5.426
-8,-50,5.427
-17,-86,5.428
-19,-126,5.429
-22,-152,5.43
-23,-138,5.431
-22,-115,5.432
-11,-67,5.433
1,-15,5.434
19,45,5.435
31,84,5.436
34,83,5.437
26,59,5.438
15,28,5.439
2,-7,5.44
-8,-43,5.441
-7,-66,5.442
11,-60,5.443
33,-27,5.444
35,10,5.445
11,36,5.446
-20,48,5.447
-37,52,5.448
-33,52,5.449
-26,51,5.45
-27,49,5.451
-35,49,5.452
-38,47,5.453
-29,37,5.454
-8,23,5.455
16,11,5.456
34,5,5.457
39,0,5.458
30,-1,5.459
8,-3,5.46
-14,-3,5.461
-20,-2,5.462
-17,-3,5.463
-14,-4,5.464
-18,-6,5.465
-17,-8,5.466
-3,-7,5.467
13,-6,5.468
20,-7,5.469
21,-8,5.47
23,-4,5.471
26,-1,5.472
23,0,5.473
16,0,5.474
12,-6,5.475
12,-12,5.476
7,-16,5.477
4,-13,5.478
10,-9,5.479
20,-1,5.48
18,8,5.481
5,15,5.482
-2,15,5.483
3,9,5.484
9,10,5.485
9,22,5.486
4,32,5.487
0,33,5.488
-5,35,5.489
-5,47,5.49
3,61,5.491
11,54,5.492
11,26,5.493
1,-10,5.494
-5,-35,5.495
-8,-46,5.496
-13,-48,5.497
-15,-36,5.498
-9,-26,5.499
1,-50,5.5
1,-110,5.501
-4,-167,5.502
-3,-186,5.503
6,-171,5.504
11,-132,5.505
9,-66,5.506
7,5,5.507
9,41,5.508
8,34,5.509
6,30,5.51
8,53,5.511
14,70,5.512
16,61,5.513
16,49,5.514
19,56,5.515
19,62,5.516
11,46,5.517
0,33,5.518
0,41,5.519
10,51,5.52
11,42,5.521
4,29,5.522
0,29,5.523
1,29,5.524
-4,16,5.525
-21,7,5.526
-34,8,5.527
-33,7,5.528
-23,-1,5.529
-16,-6,5.53
-9,-1,5.531
-2,2,5.532
1,0,5.533
-1,-6,5.534
-3,-5,5.535
-3,-4,5.536
2,-10,5.537
8,-12,5.538
12,-7,5.539
16,-6,5.54
16,-10,5.541
8,-10,5.542
3,-3,5.543
2,2,5.544
2,0,5.545
-4,-4,5.546
-10,-5,5.547
-6,-6,5.548
-1,-8,5.549
0,-9,5.55
1,-7,5.551
9,-6,5.552
17,-5,5.553
19,-4,5.554
20,0,5.555
31,3,5.556
53,0,5.557
62,-2,5.558
44,-1,5.559
9,0,5.56
-24,4,5.561
-45,7,5.562
-47,2,5.563
-37,-7,5.564
-27,-10,5.565
-34,-4,5.566
-46,0,5.567
-40,-2,5.568
-15,-7,5.569
3,-7,5.57
0,-8,5.571
-10,-10,5.572
-9,-9,5.573
-5,-5,5.574
-1,-2,5.575
2,-2,5.576
9,-2,5.577
11,3,5.578
15,5,5.579
25,6,5.58
39,7,5.581
45,7,5.582
45,4,5.583
46,-2,5.584
45,-2,5.585
32,2,5.586
12,2,5.587
2,-3,5.588
1,-3,5.589
-7,4,5.59
-24,11,5.591
-30,14,5.592
-16,22,5.593
4,32,5.594
15,36,5.595
13,21,5.596
12,-10,5.597
16,-38,5.598
21,-56,5.599
20,-61,5.6
8,-53,5.601
-11,-36,5.602
-23,-14,5.603
-22,4,5.604
-19,13,5.605
-14,16,5.606
-5,17,5.607
9,15,5.608
21,11,5.609
27,7,5.61
26,5,5.611
20,5,5.612
11,7,5.613
0,8,5.614
-4,6,5.615
-7,2,5.616
-12,0,5.617
-10,9,5.618
2,29,5.619
15,49,5.62
12,58,5.621
0,53,5.622
-3,40,5.623
0,24,5.624
-1,3,5.625
-9,-21,5.626
-11,-49,5.627
-4,-67,5.628
2,-69,5.629
3,-60,5.63
0,-50,5.631
-4,-39,5.632
-9,-21,5.633
-12,1,5.634
-9,25,5.635
-3,46,5.636
-2,68,5.637
-3,89,5.638
3,88,5.639
15,57,5.64
25,16,5.641
37,-14,5.642
55,-44,5.643
68,-95,5.644
58,-138,5.645
27,-132,5.646
-10,-70,5.647
-41,10,5.648
-67,76,5.649
-91,113,5.65
-103,88,5.651
-95,-19,5.652
-74,-149,5.653
-41,-231,5.654
-7,-212,5.655
19,-130,5.656
33,-48,5.657
42,21,5.658
49,73,5.659
46,95,5.66
24,101,5.661
3,115,5.662
-1,142,5.663
2,145,5.664
-1,110,5.665
-6,64,5.666
5,38,5.667
32,23,5.668
43,2,5.669
34,-25,5.67
23,-49,5.671
21,-63,5.672
21,-67,5.673
15,-67,5.674
10,-60,5.675
8,-46,5.676
4,-25,5.677
-1,2,5.678
4,25,5.679
18,36,5.68
22,44,5.681
14,42,5.682
5,27,5.683
6,4,5.684
6,-7,5.685
4,-3,5.686
4,3,5.687
9,5,5.688
6,9,5.689
-3,16,5.69
-7,15,5.691
-4,10,5.692
0,7,5.693
-3,10,5.694
-8,10,5.695
-11,2,5.696
-11,-8,5.697
-9,-11,5.698
-6,-10,5.699
-2,-9,5.7
0,-8,5.701
-1,-5,5.702
-1,-5,5.703
0,-7,5.704
0,-5,5.705
-3,-1,5.706
-3,-1,5.707
0,-5,5.708
3,-6,5.709
1,-3,5.71
-4,-5,5.711
-7,-8,5.712
-6,-9,5.713
-5,-4,5.714
-3,-1,5.715
1,-3,5.716
5,-7,5.717
6,-6,5.718
3,-4,5.719
4,-3,5.72
7,-4,5.721
7,-3,5.722
8,-2,5.723
13,-1,5.724
19,-1,5.725
21,-2,5.726
16,-4,5.727
13,-4,5.728
11,-2,5.729
6,0,5.73
-2,1,5.731
-8,2,5.732
-8,5,5.733
-8,5,5.734
-10,4,5.735
-15,0,5.736
-16,-3,5.737
-10,-2,5.738
0,0,5.739
9,4,5.74
11,8,5.741
7,8,5.742
4,2,5.743
7,-2,5.744
13,0,5.745
16,8,5.746
15,12,5.747
12,11,5.748
6,9,5.749
2,8,5.75
1,5,5.751
3,1,5.752
4,-1,5.753
0,-4,5.754
-2,-6,5.755
-4,-6,5.756
-3,-8,5.757
-1,-11,5.758
3,-11,5.759
8,-8,5.76
5,-2,5.761
0,0,5.762
-1,-3,5.763
2,-6,5.764
2,-4,5.765
-4,0,5.766
-5,0,5.767
-2,0,5.768
2,0,5.769
3,0,5.77
0,0,5.771
-1,-1,5.772
1,0,5.773
0,0,5.774
-2,0,5.775
-5,-2,5.776
-10,-5,5.777
-13,-5,5.778
-7,-6,5.779
-1,-7,5.78
5,-7,5.781
10,-6,5.782
8,-4,5.783
6,-3,5.784
4,0,5.785
2,6,5.786
0,9,5.787
-4,6,5.788
-11,1,5.789
-16,1,5.79
-11,5,5.791
-4,7,5.792
5,6,5.793
15,0,5.794
24,-4,5.795
28,-5,5.796
21,-4,5.797
9,3,5.798
6,14,5.799
10,24,5.8
14,34,5.801
12,35,5.802
8,20,5.803
12,-8,5.804
15,-35,5.805
15,-45,5.806
12,-42,5.807
12,-35,5.808
11,-26,5.809
6,-15,5.81
0,-8,5.811
-4,-8,5.812
-5,-9,5.813
-9,-10,5.814
-14,-6,5.815
-18,-1,5.816
-14,4,5.817
-3,8,5.818
9,11,5.819
16,15,5.82
14,22,5.821
1,30,5.822
-9,38,5.823
-10,51,5.824
-2,80,5.825
4,101,5.826
4,98,5.827
-1,87,5.828
-3,51,5.829
-4,14,5.83
-5,-26,5.831
-7,-63,5.832
-4,-87,5.833
-2,-101,5.834
-3,-87,5.835
-11,-87,5.836
-18,-78,5.837
-16,-19,5.838
-2,53,5.839
15,69,5.84
24,29,5.841
23,2,5.842
19,24,5.843
18,42,5.844
20,1,5.845
20,-79,5.846
17,-135,5.847
11,-145,5.848
5,-128,5.849
5,-106,5.85
6,-83,5.851
6,-61,5.852
4,-45,5.853
2,-46,5.854
1,-56,5.855
1,-54,5.856
-1,-30,5.857
-3,14,5.858
-1,62,5.859
-1,98,5.86
-6,128,5.861
-12,157,5.862
-8,190,5.863
5,215,5.864
15,220,5.865
13,193,5.866
5,160,5.867
-1,167,5.868
-4,203,5.869
-7,183,5.87
-8,35,5.871
-7,-184,5.872
-5,-342,5.873
8,-389,5.874
5,-347,5.875
1,-261,5.876
-4,-156,5.877
-6,-53,5.878
8,3,5.879
19,10,5.88
15,4,5.881
14,-3,5.882
10,-37,5.883
8,-87,5.884
10,-98,5.885
10,-61,5.886
1,-20,5.887
-6,7,5.888
-6,52,5.889
-6,103,5.89
-8,117,5.891
-8,96,5.892
1,83,5.893
6,86,5.894
4,83,5.895
1,65,5.896
-2,57,5.897
-3,69,5.898
6,75,5.899
12,73,5.9
10,83,5.901
9,103,5.902
7,111,5.903
6,117,5.904
7,157,5.905
7,239,5.906
1,308,5.907
-3,289,5.908
-3,151,5.909
-3,-44,5.91
-4,-205,5.911
-4,-296,5.912
1,-354,5.913
7,205,5.914
6,208,5.915
1,198,5.916
0,142,5.917
3,103,5.918
8,119,5.919
9,143,5.92
3,183,5.921
0,219,5.922
4,248,5.923
10,234,5.924
10,96,5.925
6,-44,5.926
3,-195,5.927
2,-310,5.928
-1,-316,5.929
-4,-303,5.93
-5,-236,5.931
-4,-168,5.932
-2,-106,5.933
-6,152,5.934
-8,154,5.935
-7,147,5.936
-1,107,5.937
2,79,5.938
1,91,5.939
-2,108,5.94
-4,136,5.941
-6,162,5.942
-8,182,5.943
-4,172,5.944
3,74,5.945
10,-26,5.946
9,-133,5.947
8,-215,5.948
7,-219,5.949
5,-210,5.95
3,-162,5.951
3,-114,5.952
5,-70,5.953
3,-34,5.954
0,-25,5.955
-2,-5,5.956
-1,25,5.957
-2,42,5.958
-1,41,5.959
5,41,5.96
13,50,5.961
14,59,5.962
9,54,5.963
8,42,5.964
11,32,5.965
9,27,5.966
1,21,5.967
-3,18,5.968
-5,22,5.969
-9,31,5.97
-12,36,5.971
-11,35,5.972
-5,31,5.973
-2,25,5.974
-4,25,5.975
-6,27,5.976
-4,20,5.977
4,6,5.978
14,-9,5.979
18,-21,5.98
13,-36,5.981
8,-63,5.982
11,-89,5.983
20,-88,5.984
26,-64,5.985
22,-41,5.986
16,-28,5.987
16,-15,5.988
19,9,5.989
16,31,5.99
9,35,5.991
2,26,5.992
-2,16,5.993
-5,-3,5.994
-8,-29,5.995
-11,-51,5.996
-15,-57,5.997
-15,-46,5.998
-11,-30,5.999
-5,-9,6.0
-3,9,6.001
-4,13,6.002
-1,1,6.003
6,-3,6.004
12,8,6.005
12,23,6.006
4,21,6.007
-5,14,6.008
-11,16,6.009
-8,25,6.01
7,25,6.011
25,23,6.012
36,36,6.013
35,62,6.014
24,90,6.015
7,102,6.016
-6,94,6.017
-11,71,6.018
-5,33,6.019
1,-19,6.02
-1,-79,6.021
-9,-131,6.022
-14,-145,6.023
-12,-109,6.024
-10,-32,6.025
-10,47,6.026
-12,93,6.027
-16,105,6.028
-19,104,6.029
-18,86,6.03
-14,26,6.031
-6,-79,6.032
-1,-178,6.033
1,-230,6.034
2,-231,6.035
-1,-213,6.036
-6,-186,6.037
-6,-123,6.038
0,-51,6.039
8,-15,6.04
10,-7,6.041
9,27,6.042
14,85,6.043
22,111,6.044
21,95,6.045
18,84,6.046
20,101,6.047
28,106,6.048
28,82,6.049
19,60,6.05
10,59,6.051
10,60,6.052
15,58,6.053
15,78,6.054
12,129,6.055
4,160,6.056
-4,126,6.057
-6,65,6.058
3,33,6.059
11,29,6.06
10,17,6.061
3,-5,6.062
-1,1,6.063
-1,40,6.064
0,49,6.065
1,-4,6.066
3,-72,6.067
3,-81,6.068
-1,-44,6.069
-5,-31,6.07
-7,-62,6.071
-13,-91,6.072
-19,-87,6.073
-21,-65,6.074
-16,-54,6.075
-10,-70,6.076
-12,-125,6.077
-13,-196,6.078
-6,-243,6.079
5,-244,6.08
6,-213,6.081
1,-161,6.082
-2,-84,6.083
-4,1,6.084
-7,50,6.085
-10,61,6.086
-6,69,6.087
1,82,6.088
7,70,6.089
12,37,6.09
19,24,6.091
25,40,6.092
27,47,6.093
20,41,6.094
11,53,6.095
1,80,6.096
-5,74,6.097
-6,45,6.098
0,46,6.099
7,87,6.1
10,118,6.101
9,115,6.102
10,117,6.103
12,140,6.104
13,150,6.105
14,121,6.106
12,72,6.107
6,37,6.108
-2,19,6.109
-9,12,6.11
-10,21,6.111
-2,64,6.112
7,135,6.113
12,198,6.114
14,182,6.115
8,71,6.116
1,-68,6.117
-2,-165,6.118
0,-247,6.119
5,-339,6.12
7,-378,6.121
5,-299,6.122
8,-181,6.123
14,-151,6.124
10,-174,6.125
-2,-118,6.126
-11,15,6.127
-9,81,6.128
-5,29,6.129
-10,-45,6.13
-16,-72,6.131
-13,-82,6.132
-2,-80,6.133
5,8,6.134
8,211,6.135
1,430,6.136
-9,542,6.137
-15,542,6.138
-9,474,6.139
0,326,6.14
4,45,6.141
6,-346,6.142
12,-706,6.143
23,-853,6.144
24,-740,6.145
16,-479,6.146
12,-209,6.147
12,12,6.148
12,173,6.149
9,237,6.15
8,197,6.151
6,128,6.152
-1,100,6.153
-11,99,6.154
-13,87,6.155
-10,89,6.156
-11,136,6.157
-13,204,6.158
-3,245,6.159
18,272,6.16
30,311,6.161
30,316,6.162
26,223,6.163
21,57,6.164
11,-92,6.165
-1,-176,6.166
-3,-193,6.167
1,-134,6.168
0,-8,6.169
-5,129,6.17
-10,218,6.171
-8,246,6.172
-6,210,6.173
-7,87,6.174
-6,-100,6.175
-2,-303,6.176
-2,-507,6.177
-4,-692,6.178
-4,-763,6.179
-1,-626,6.18
-1,-341,6.181
-9,-71,6.182
-16,110,6.183
-16,248,6.184
-12,346,6.185
-10,351,6.186
-6,276,6.187
0,204,6.188
6,150,6.189
7,52,6.19
6,-88,6.191
7,-185,6.192
11,-190,6.193
13,-137,6.194
13,-59,6.195
10,54,6.196
3,198,6.197
-1,322,6.198
7,383,6.199
13,375,6.2
14,295,6.201
15,137,6.202
13,-51,6.203
11,-183,6.204
6,-240,6.205
0,-282,6.206
-7,-315,6.207
-12,-250,6.208
-9,-52,6.209
-4,161,6.21
4,258,6.211
10,245,6.212
10,198,6.213
11,119,6.214
15,-4,6.215
13,-122,6.216
2,-169,6.217
-4,-160,6.218
-1,-150,6.219
9,-114,6.22
12,5,6.221
9,163,6.222
11,240,6.223
17,213,6.224
20,199,6.225
16,271,6.226
10,327,6.227
5,240,6.228
0,50,6.229
-9,-120,6.23
-14,-266,6.231
-13,-465,6.232
-11,-656,6.233
-13,-679,6.234
-15,-533,6.235
-16,-397,6.236
-15,-289,6.237
-10,-163,6.238
-2,17,6.239
4,153,6.24
0,155,6.241
-6,176,6.242
-9,248,6.243
-2,319,6.244
6,383,6.245
8,422,6.246
5,386,6.247
7,317,6.248
12,151,6.249
18,10,6.25
20,-57,6.251
20,-123,6.252
18,-185,6.253
12,-250,6.254
8,-303,6.255
2,-293,6.256
-2,-233,6.257
-5,-143,6.258
-5,-47,6.259
-4,36,6.26
-6,104,6.261
-13,149,6.262
-12,162,6.263
-3,151,6.264
6,144,6.265
8,154,6.266
4,156,6.267
3,120,6.268
7,63,6.269
12,26,6.27
11,20,6.271
9,16,6.272
9,2,6.273
20,-9,6.274
5,-10,6.275
-8,-19,6.276
-20,-34,6.277
-26,5,6.278
-14,140,6.279
-5,313,6.28
-6,384,6.281
-8,267,6.282
-14,11,6.283
-19,-263,6.284
-14,-467,6.285
-10,-572,6.286
-9,-558,6.287
-8,-429,6.288
-10,-241,6.289
-12,-76,6.29
-6,11,6.291
0,41,6.292
4,71,6.293
15,142,6.294
3,235,6.295
-8,285,6.296
-18,263,6.297
-23,209,6.298
-13,151,6.299
-5,85,6.3
-6,34,6.301
-8,39,6.302
-13,68,6.303
-17,18,6.304
-13,-134,6.305
-10,-274,6.306
-9,-314,6.307
-8,-294,6.308
-10,-259,6.309
-12,-170,6.31
-6,4,6.311
-1,191,6.312
2,296,6.313
5,295,6.314
5,216,6.315
9,113,6.316
17,-58,6.317
23,-191,6.318
29,-210,6.319
28,-195,6.32
16,-77,6.321
0,20,6.322
-10,53,6.323
-14,59,6.324
-13,-18,6.325
-8,-77,6.326
0,-77,6.327
7,-67,6.328
2,-29,6.329
-7,17,6.33
-7,91,6.331
0,138,6.332
10,99,6.333
14,62,6.334
19,53,6.335
21,59,6.336
17,54,6.337
5,69,6.338
0,120,6.339
4,206,6.34
2,318,6.341
-6,408,6.342
-13,380,6.343
-10,176,6.344
-5,-125,6.345
-5,-369,6.346
-5,-482,6.347
2,-488,6.348
15,-396,6.349
18,-218,6.35
14,-42,6.351
7,9,6.352
0,-44,6.353
-7,-70,6.354
-12,60,6.355
-11,315,6.356
-3,544,6.357
8,601,6.358
22,391,6.359
32,-30,6.36
32,-455,6.361
20,-672,6.362
5,-656,6.363
-4,-517,6.364
-6,-306,6.365
-8,-6,6.366
-8,298,6.367
-6,419,6.368
-4,307,6.369
-6,141,6.37
-6,83,6.371
-4,97,6.372
-2,75,6.373
0,9,6.374
8,-34,6.375
23,-64,6.376
32,-132,6.377
27,-194,6.378
17,-181,6.379
10,-117,6.38
4,-51,6.381
-5,51,6.382
-13,237,6.383
-15,405,6.384
-16,392,6.385
-22,203,6.386
-25,4,6.387
-24,-109,6.388
-20,-185,6.389
-15,-268,6.39
-5,-314,6.391
9,-282,6.392
18,-192,6.393
16,-52,6.394
7,116,6.395
-2,239,6.396
-3,234,6.397
3,153,6.398
19,130,6.399
36,208,6.4
44,267,6.401
39,184,6.402
33,-18,6.403
28,-222,6.404
16,-348,6.405
1,-382,6.406
-6,-338,6.407
-1,-242,6.408
5,-135,6.409
5,-39,6.41
-1,38,6.411
-6,86,6.412
-11,110,6.413
-12,146,6.414
-14,233,6.415
-19,311,6.416
-31,361,6.417
-37,350,6.418
-27,155,6.419
-17,-15,6.42
-7,-107,6.421
3,-123,6.422
12,94,6.423
19,268,6.424
15,313,6.425
12,258,6.426
14,-96,6.427
16,-391,6.428
17,-504,6.429
17,-532,6.43
10,-299,6.431
3,-94,6.432
-1,27,6.433
-3,109,6.434
-2,37,6.435
2,-42,6.436
-2,-108,6.437
-12,-222,6.438
-14,-349,6.439
-7,-341,6.44
-2,-174,6.441
-2,-23,6.442
-1,12,6.443
5,56,6.444
8,186,6.445
3,269,6.446
1,209,6.447
2,129,6.448
0,146,6.449
-2,173,6.45
1,128,6.451
10,100,6.452
15,167,6.453
10,251,6.454
5,253,6.455
1,209,6.456
-1,182,6.457
-1,125,6.458
12,7,6.459
32,-76,6.46
38,-64,6.461
21,-63,6.462
0,-162,6.463
-5,-272,6.464
-4,-273,6.465
-5,-194,6.466
-7,-138,6.467
-3,-97,6.468
2,-14,6.469
5,75,6.47
7,94,6.471
12,62,6.472
12,42,6.473
0,19,6.474
-9,-55,6.475
-10,-141,6.476
-7,-138,6.477
-9,-39,6.478
-9,40,6.479
-4,23,6.48
2,-26,6.481
6,-15,6.482
9,70,6.483
13,163,6.484
12,196,6.485
6,135,6.486
0,-6,6.487
-2,-161,6.488
-4,-254,6.489
-9,-252,6.49
-10,-168,6.491
-5,-27,6.492
1,105,6.493
0,145,6.494
-4,33,6.495
-6,-154,6.496
-3,-259,6.497
10,-218,6.498
24,-112,6.499
29,-8,6.5
18,105,6.501
0,216,6.502
-8,252,6.503
-7,216,6.504
-4,211,6.505
0,265,6.506
9,268,6.507
17,142,6.508
21,-40,6.509
22,-180,6.51
19,-264,6.511
11,-291,6.512
0,-232,6.513
-14,-95,6.514
-26,32,6.515
-31,112,6.516
-24,187,6.517
-7,251,6.518
12,225,6.519
23,142,6.52
29,141,6.521
32,212,6.522
30,158,6.523
19,-104,6.524
3,-371,6.525
-9,-403,6.526
-11,-213,6.527
-9,-3,6.528
-6,76,6.529
-4,23,6.53
-2,-69,6.531
0,-92,6.532
0,4,6.533
-2,174,6.534
-4,286,6.535
-9,246,6.536
-12,58,6.537
-9,-198,6.538
3,-412,6.539
15,-473,6.54
14,-364,6.541
3,-163,6.542
-8,64,6.543
-17,307,6.544
-25,476,6.545
-33,395,6.546
-33,70,6.547
-22,-232,6.548
-5,-281,6.549
12,-137,6.55
31,27,6.551
51,187,6.552
62,343,6.553
54,396,6.554
37,239,6.555
20,-49,6.556
9,-302,6.557
3,-458,6.558
6,-518,6.559
13,-444,6.56
12,-246,6.561
0,-35,6.562
-11,104,6.563
-9,187,6.564
-4,213,6.565
-3,158,6.566
-7,84,6.567
-12,84,6.568
-16,126,6.569
-17,104,6.57
-16,56,6.571
-11,127,6.572
-6,279,6.573
-6,329,6.574
-4,194,6.575
-5,42,6.576
-9,36,6.577
-10,81,6.578
-4,3,6.579
6,-162,6.58
15,-244,6.581
19,-232,6.582
25,-263,6.583
27,-349,6.584
20,-353,6.585
9,-237,6.586
-1,-106,6.587
-10,-10,6.588
-18,107,6.589
-19,207,6.59
-12,175,6.591
-3,50,6.592
2,0,6.593
5,61,6.594
8,92,6.595
5,32,6.596
-2,-6,6.597
0,50,6.598
9,120,6.599
14,159,6.6
4,233,6.601
-8,328,6.602
-9,295,6.603
-4,73,6.604
-4,-192,6.605
-3,-342,6.606
2,-363,6.607
10,-288,6.608
15,-99,6.609
18,146,6.61
22,250,6.611
25,99,6.612
28,-139,6.613
29,-254,6.614
33,-188,6.615
27,-72,6.616
15,-11,6.617
2,30,6.618
-3,81,6.619
-3,116,6.62
-5,126,6.621
-11,138,6.622
-17,146,6.623
-19,98,6.624
-17,-6,6.625
-16,-101,6.626
-17,-147,6.627
-19,-171,6.628
-18,-190,6.629
-11,-152,6.63
-2,-14,6.631
6,173,6.632
15,312,6.633
21,368,6.634
22,351,6.635
16,245,6.636
9,18,6.637
9,-252,6.638
15,-394,6.639
19,-345,6.64
13,-250,6.641
0,-246,6.642
-10,-270,6.643
-8,-193,6.644
0,-51,6.645
1,34,6.646
-6,58,6.647
-9,98,6.648
-8,137,6.649
-5,119,6.65
-2,100,6.651
4,159,6.652
13,221,6.653
15,172,6.654
13,74,6.655
9,15,6.656
9,77,6.657
10,108,6.658
13,46,6.659
16,-12,6.66
14,-57,6.661
9,-81,6.662
3,-39,6.663
6,-12,6.664
9,-29,6.665
2,-48,6.666
-6,-76,6.667
-10,-91,6.668
-11,-65,6.669
-14,-34,6.67
-16,14,6.671
-17,39,6.672
-17,-2,6.673
-20,-47,6.674
-23,-62,6.675
-21,-12,6.676
-16,68,6.677
-10,171,6.678
3,296,6.679
21,406,6.68
35,439,6.681
41,358,6.682
43,129,6.683
47,-235,6.684
46,-595,6.685
40,-722,6.686
30,-526,6.687
18,-169,6.688
2,110,6.689
-10,226,6.69
-13,230,6.691
-10,148,6.692
-10,-28,6.693
-17,-280,6.694
-24,-452,6.695
-30,-427,6.696
-37,-275,6.697
-39,-136,6.698
-26,-39,6.699
-6,98,6.7
7,256,6.701
9,308,6.702
15,227,6.703
29,151,6.704
38,164,6.705
29,183,6.706
12,134,6.707
5,81,6.708
10,98,6.709
12,145,6.71
7,138,6.711
-1,59,6.712
-3,-54,6.713
-3,-179,6.714
-5,-257,6.715
-6,-249,6.716
-2,-173,6.717
6,-76,6.718
9,16,6.719
5,101,6.72
0,170,6.721
-3,202,6.722
-4,195,6.723
-2,152,6.724
0,91,6.725
1,55,6.726
0,67,6.727
0,87,6.728
5,54,6.729
8,-27,6.73
11,-81,6.731
14,-65,6.732
15,-19,6.733
8,-3,6.734
-4,-8,6.735
-16,28,6.736
-19,100,6.737
-13,75,6.738
-2,-146,6.739
10,-418,6.74
21,-456,6.741
31,-202,6.742
38,79,6.743
40,125,6.744
26,-49,6.745
6,-244,6.746
-6,-316,6.747
-7,-222,6.748
-4,8,6.749
-6,242,6.75
-10,303,6.751
-13,163,6.752
-16,8,6.753
-22,-19,6.754
-24,47,6.755
-26,76,6.756
-26,60,6.757
-20,86,6.758
1,131,6.759
23,108,6.76
45,22,6.761
58,-60,6.762
44,-134,6.763
28,-204,6.764
9,-185,6.765
-4,-7,6.766
-2,224,6.767
1,336,6.768
5,278,6.769
8,127,6.77
4,-33,6.771
-1,-156,6.772
-6,-205,6.773
-13,-196,6.774
-25,-163,6.775
-36,-127,6.776
-40,-88,6.777
-37,-60,6.778
-24,-50,6.779
-6,-15,6.78
3,80,6.781
0,188,6.782
-3,227,6.783
6,186,6.784
20,127,6.785
23,119,6.786
20,212,6.787
19,378,6.788
17,433,6.789
13,175,6.79
8,-316,6.791
11,-690,6.792
18,-733,6.793
16,-551,6.794
10,-329,6.795
6,-116,6.796
7,69,6.797
12,203,6.798
14,179,6.799
11,185,6.8
1,281,6.801
-7,280,6.802
-6,-9,6.803
2,-196,6.804
9,-68,6.805
5,71,6.806
-1,244,6.807
-2,307,6.808
-1,39,6.809
-1,-187,6.81
2,-289,6.811
9,-311,6.812
15,-89,6.813
9,92,6.814
-1,101,6.815
-6,106,6.816
1,81,6.817
15,-85,6.818
22,-266,6.819
18,-230,6.82
5,-56,6.821
-6,8,6.822
-7,-22,6.823
1,38,6.824
6,160,6.825
-2,169,6.826
-18,109,6.827
-24,146,6.828
-20,255,6.829
-13,305,6.83
-8,290,6.831
-2,227,6.832
5,73,6.833
3,-158,6.834
-5,-251,6.835
-14,-134,6.836
-11,-42,6.837
0,-147,6.838
11,-326,6.839
19,-399,6.84
24,-364,6.841
24,-248,6.842
23,-37,6.843
22,160,6.844
21,181,6.845
15,80,6.846
7,64,6.847
3,147,6.848
3,166,6.849
3,87,6.85
5,33,6.851
10,31,6.852
13,12,6.853
7,-27,6.854
0,-21,6.855
-5,6,6.856
-14,-16,6.857
-24,-41,6.858
-24,30,6.859
-9,179,6.86
4,286,6.861
6,261,6.862
4,85,6.863
10,-173,6.864
19,-347,6.865
18,-285,6.866
13,-42,6.867
13,149,6.868
11,148,6.869
4,18,6.87
-6,-111,6.871
-10,-190,6.872
-12,-203,6.873
-16,-151,6.874
-19,-76,6.875
-19,-49,6.876
-16,-69,6.877
-10,-45,6.878
1,56,6.879
10,172,6.88
10,235,6.881
5,229,6.882
9,145,6.883
18,-5,6.884
17,-149,6.885
2,-193,6.886
-8,-141,6.887
-5,-71,6.888
2,-23,6.889
0,22,6.89
-6,76,6.891
-11,135,6.892
-11,209,6.893
-9,280,6.894
-3,241,6.895
4,37,6.896
9,-201,6.897
10,-283,6.898
14,-213,6.899
19,-122,6.9
20,-46,6.901
15,50,6.902
11,130,6.903
14,127,6.904
17,94,6.905
17,108,6.906
13,116,6.907
9,36,6.908
-1,-34,6.909
-18,48,6.91
-29,241,6.911
-29,371,6.912
-23,356,6.913
-24,188,6.914
-29,-118,6.915
-27,-477,6.916
-16,-681,6.917
-5,-601,6.918
6,-361,6.919
18,-131,6.92
27,77,6.921
32,244,6.922
38,218,6.923
45,-1,6.924
46,-104,6.925
34,97,6.926
21,328,6.927
10,229,6.928
1,-123,6.929
-12,-380,6.93
-24,-412,6.931
-25,-312,6.932
-22,-138,6.933
-19,100,6.934
-17,249,6.935
-11,191,6.936
-6,59,6.937
-3,31,6.938
4,60,6.939
14,34,6.94
15,0,6.941
4,41,6.942
-5,85,6.943
-1,70,6.944
10,69,6.945
17,129,6.946
20,141,6.947
25,35,6.948
27,-70,6.949
19,-42,6.95
7,73,6.951
3,148,6.952
6,120,6.953
4,-14,6.954
-5,-187,6.955
-19,-270,6.956
-28,-191,6.957
-28,-47,6.958
-15,15,6.959
3,10,6.96
16,42,6.961
19,111,6.962
19,135,6.963
17,108,6.964
4,82,6.965
-13,48,6.966
-17,-7,6.967
-6,-12,6.968
7,70,6.969
14,121,6.97
18,27,6.971
21,-102,6.972
23,-92,6.973
13,29,6.974
0,60,6.975
-10,-76,6.976
-25,-230,6.977
-42,-250,6.978
-43,-153,6.979
-19,-19,6.98
9,100,6.981
20,149,6.982
15,101,6.983
18,23,6.984
25,7,6.985
21,38,6.986
5,61,6.987
-3,91,6.988
1,168,6.989
5,222,6.99
0,157,6.991
-3,-17,6.992
0,-170,6.993
-1,-211,6.994
-10,-101,6.995
-19,66,6.996
-18,83,6.997
-14,-146,6.998
-10,-433,6.999
-8,-495,7.0
-2,-319,7.001
9,-130,7.002
18,-58,7.003
23,-31,7.004
25,17,7.005
21,75,7.006
16,165,7.007
10,309,7.008
3,412,7.009
-2,366,7.01
-4,216,7.011
1,101,7.012
9,43,7.013
8,-55,7.014
0,-195,7.015
-8,-262,7.016
-16,-192,7.017
-22,-58,7.018
-16,24,7.019
5,30,7.02
27,29,7.021
34,94,7.022
32,198,7.023
29,226,7.024
28,111,7.025
21,-58,7.026
15,-136,7.027
11,-102,7.028
11,-66,7.029
3,-87,7.03
-4,-112,7.031
-7,-85,7.032
-4,-39,7.033
-2,-20,7.034
-3,-12,7.035
-10,24,7.036
-18,96,7.037
-20,169,7.038
-14,185,7.039
-3,114,7.04
-1,5,7.041
-7,-62,7.042
-9,-77,7.043
0,-90,7.044
6,-118,7.045
3,-115,7.046
-2,-62,7.047
1,5,7.048
10,59,7.049
14,75,7.05
9,14,7.051
5,-77,7.052
2,-57,7.053
-1,129,7.054
-6,290,7.055
-15,195,7.056
-24,-91,7.057
-26,-286,7.058
-18,-256,7.059
1,-112,7.06
22,1,7.061
37,28,7.062
39,-21,7.063
29,-68,7.064
9,-8,7.065
-10,136,7.066
-18,179,7.067
-6,36,7.068
16,-128,7.069
30,-126,7.07
28,-14,7.071
14,37,7.072
-3,23,7.073
-23,40,7.074
-42,87,7.075
-52,61,7.076
-42,-35,7.077
-19,-79,7.078
1,-38,7.079
16,1,7.08
27,26,7.081
34,115,7.082
32,252,7.083
24,276,7.084
23,93,7.085
28,-148,7.086
25,-245,7.087
17,-168,7.088
8,-61,7.089
6,-32,7.09
6,-55,7.091
5,-34,7.092
6,72,7.093
11,212,7.094
14,261,7.095
14,156,7.096
12,-18,7.097
10,-137,7.098
6,-197,7.099
4,-248,7.1
3,-257,7.101
3,-170,7.102
1,-48,7.103
0,7,7.104
-2,19,7.105
-5,51,7.106
-8,73,7.107
-12,28,7.108
-15,-12,7.109
-17,60,7.11
-18,222,7.111
-16,332,7.112
-10,283,7.113
-3,51,7.114
0,-223,7.115
-4,-341,7.116
-13,-244,7.117
-18,-85,7.118
-7,-7,7.119
12,48,7.12
19,148,7.121
8,175,7.122
-4,18,7.123
-2,-189,7.124
9,-236,7.125
13,-126,7.126
5,-12,7.127
-3,60,7.128
-1,127,7.129
4,165,7.13
10,134,7.131
16,88,7.132
23,82,7.133
23,77,7.134
20,24,7.135
12,-33,7.136
3,-45,7.137
-4,-29,7.138
-3,-32,7.139
2,-37,7.14
1,-25,7.141
-11,-19,7.142
-19,-29,7.143
-10,-26,7.144
6,3,7.145
9,26,7.146
-2,24,7.147
-15,17,7.148
-22,29,7.149
-21,68,7.15
-14,134,7.151
-2,203,7.152
4,205,7.153
3,99,7.154
-1,-42,7.155
-7,-130,7.156
-10,-197,7.157
-5,-308,7.158
12,-384,7.159
27,-288,7.16
31,-71,7.161
25,58,7.162
19,19,7.163
14,-50,7.164
1,-37,7.165
-10,6,7.166
-6,21,7.167
9,50,7.168
19,115,7.169
18,145,7.17
15,104,7.171
18,60,7.172
25,74,7.173
26,116,7.174
17,134,7.175
3,119,7.176
-2,87,7.177
1,44,7.178
8,-3,7.179
6,-16,7.18
-1,15,7.181
-5,55,7.182
-3,78,7.183
1,92,7.184
0,60,7.185
-3,-93,7.186
-10,-311,7.187
-14,-396,7.188
-16,-265,7.189
-14,-105,7.19
-10,-82,7.191
-4,-120,7.192
3,-89,7.193
11,-26,7.194
15,3,7.195
12,73,7.196
4,237,7.197
0,366,7.198
0,319,7.199
-1,171,7.2
-12,49,7.201
-19,-58,7.202
-11,-181,7.203
7,-239,7.204
16,-182,7.205
6,-101,7.206
-8,-69,7.207
-6,-40,7.208
7,19,7.209
19,56,7.21
19,50,7.211
10,66,7.212
0,117,7.213
-11,151,7.214
-12,147,7.215
-6,160,7.216
0,193,7.217
0,155,7.218
0,-2,7.219
2,-187,7.22
8,-277,7.221
7,-259,7.222
0,-198,7.223
-5,-124,7.224
-1,-41,7.225
12,23,7.226
22,57,7.227
23,101,7.228
17,171,7.229
14,175,7.23
14,48,7.231
11,-114,7.232
6,-162,7.233
-1,-90,7.234
-3,-20,7.235
-2,-2,7.236
1,7,7.237
5,29,7.238
11,25,7.239
17,12,7.24
16,32,7.241
8,51,7.242
1,22,7.243
2,-15,7.244
7,-2,7.245
4,26,7.246
-4,25,7.247
-9,46,7.248
-5,145,7.249
0,246,7.25
3,243,7.251
5,144,7.252
6,26,7.253
5,-116,7.254
-5,-253,7.255
-14,-278,7.256
-14,-143,7.257
-5,0,7.258
19,-38,7.259
38,-221,7.26
44,-341,7.261
48,-302,7.262
38,-185,7.263
27,-55,7.264
23,82,7.265
17,180,7.266
1,167,7.267
-12,110,7.268
-7,147,7.269
-3,262,7.27
5,294,7.271
13,192,7.272
25,76,7.273
8,5,7.274
3,-56,7.275
-1,-105,7.276
-1,-40,7.277
3,140,7.278
15,227,7.279
24,53,7.28
27,-263,7.281
29,-461,7.282
24,-438,7.283
19,-287,7.284
17,-112,7.285
14,46,7.286
6,132,7.287
0,104,7.288
2,26,7.289
4,21,7.29
8,104,7.291
12,169,7.292
18,166,7.293
22,141,7.294
15,147,7.295
-1,136,7.296
-15,57,7.297
-16,-46,7.298
-4,-98,7.299
5,-88,7.3
0,-54,7.301
-8,-29,7.302
-5,-7,7.303
2,16,7.304
-2,32,7.305
-18,32,7.306
-22,21,7.307
-7,4,7.308
12,-7,7.309
16,-10,7.31
4,-3,7.311
-5,6,7.312
-6,5,7.313
-1,-5,7.314
0,1,7.315
-10,15,7.316
-21,49,7.317
-18,70,7.318
-1,51,7.319
15,34,7.32
19,27,7.321
16,4,7.322
18,-63,7.323
21,-119,7.324
21,-139,7.325
18,-150,7.326
19,-131,7.327
21,-89,7.328
14,18,7.329
-5,96,7.33
-22,86,7.331
-27,65,7.332
-23,12,7.333
-13,-30,7.334
5,-49,7.335
23,-84,7.336
29,-86,7.337
23,-14,7.338
19,77,7.339
16,112,7.34
7,80,7.341
-4,22,7.342
-10,-22,7.343
-14,-42,7.344
-20,-29,7.345
-29,24,7.346
-27,116,7.347
-16,190,7.348
-12,163,7.349
-17,3,7.35
-14,-188,7.351
1,-271,7.352
16,-228,7.353
18,-144,7.354
15,-75,7.355
11,-9,7.356
9,47,7.357
7,53,7.358
14,20,7.359
24,25,7.36
29,85,7.361
20,138,7.362
8,147,7.363
0,136,7.364
0,104,7.365
3,33,7.366
11,-35,7.367
18,-33,7.368
25,12,7.369
30,9,7.37
28,-36,7.371
13,-37,7.372
-5,9,7.373
-18,14,7.374
-19,-53,7.375
-15,-101,7.376
-15,-76,7.377
-19,-38,7.378
-24,-38,7.379
-30,-26,7.38
-28,58,7.381
-17,166,7.382
-3,189,7.383
6,86,7.384
9,-76,7.385
11,-196,7.386
15,-218,7.387
19,-170,7.388
21,-92,7.389
21,8,7.39
22,110,7.391
23,143,7.392
21,88,7.393
15,37,7.394
3,102,7.395
-8,202,7.396
-15,157,7.397
-15,-22,7.398
-8,-168,7.399
4,-214,7.4
14,-237,7.401
14,-259,7.402
5,-197,7.403
0,-41,7.404
5,102,7.405
7,183,7.406
-5,231,7.407
-15,235,7.408
-10,147,7.409
4,14,7.41
14,-48,7.411
20,-28,7.412
33,-11,7.413
43,-38,7.414
29,-72,7.415
-11,-95,7.416
-41,-110,7.417
-36,-77,7.418
-18,15,7.419
-17,94,7.42
-32,83,7.421
-32,13,7.422
-10,-41,7.423
11,-72,7.424
19,-94,7.425
20,-85,7.426
21,-26,7.427
12,31,7.428
-6,42,7.429
-18,38,7.43
-18,56,7.431
-10,75,7.432
1,69,7.433
15,48,7.434
29,45,7.435
33,58,7.436
33,77,7.437
32,106,7.438
28,131,7.439
19,106,7.44
8,35,7.441
4,-8,7.442
4,23,7.443
3,72,7.444
10,31,7.445
20,-106,7.446
30,-254,7.447
33,-331,7.448
28,-325,7.449
16,-245,7.45
0,-100,7.451
-11,61,7.452
-10,170,7.453
-5,218,7.454
-13,243,7.455
-28,244,7.456
-36,164,7.457
-29,14,7.458
-21,-104,7.459
-15,-130,7.46
-5,-106,7.461
1,-85,7.462
-4,-60,7.463
-16,-41,7.464
-24,-80,7.465
-22,-165,7.466
-18,-197,7.467
-17,-114,7.468
-18,40,7.469
-24,196,7.47
-31,287,7.471
-30,245,7.472
-18,87,7.473
-4,-86,7.474
-1,-140,7.475
-10,-110,7.476
-11,-112,7.477
10,-110,7.478
47,-24,7.479
70,79,7.48
61,71,7.481
35,7,7.482
22,39,7.483
22,137,7.484
20,149,7.485
11,83,7.486
10,62,7.487
24,64,7.488
34,-26,7.489
32,-160,7.49
27,-182,7.491
30,-105,7.492
33,-63,7.493
25,-62,7.494
13,-6,7.495
0,102,7.496
-15,158,7.497
-39,174,7.498
-58,226,7.499
-54,255,7.5
-34,136,7.501
-24,-95,7.502
-29,-255,7.503
-37,-242,7.504
-28,-105,7.505
-9,67,7.506
14,180,7.507
39,138,7.508
54,-53,7.509
45,-239,7.51
11,-291,7.511
-13,-243,7.512
-9,-186,7.513
11,-123,7.514
20,-28,7.515
11,63,7.516
3,101,7.517
4,108,7.518
11,111,7.519
11,115,7.52
7,145,7.521
5,229,7.522
9,291,7.523
16,203,7.524
18,-15,7.525
12,-204,7.526
1,-279,7.527
0,-295,7.528
2,-271,7.529
0,-155,7.53
-2,9,7.531
2,69,7.532
12,10,7.533
17,-30,7.534
18,28,7.535
15,85,7.536
4,56,7.537
-15,31,7.538
-32,89,7.539
-34,168,7.54
-24,198,7.541
-11,204,7.542
-1,203,7.543
14,129,7.544
28,-27,7.545
35,-162,7.546
34,-208,7.547
20,-212,7.548
-8,-207,7.549
-39,-150,7.55
-45,-10,7.551
-21,150,7.552
5,256,7.553
5,268,7.554
-17,162,7.555
-43,-54,7.556
-56,-273,7.557
-52,-359,7.558
-31,-292,7.559
-10,-152,7.56
-1,-6,7.561
-1,121,7.562
8,184,7.563
24,144,7.564
28,49,7.565
20,-10,7.566
19,3,7.567
29,45,7.568
36,66,7.569
33,53,7.57
28,10,7.571
30,-36,7.572
29,-43,7.573
15,4,7.574
7,67,7.575
20,92,7.576
39,53,7.577
46,-26,7.578
45,-109,7.579
47,-153,7.58
45,-136,7.581
17,-54,7.582
-28,71,7.583
-59,183,7.584
-60,210,7.585
-47,129,7.586
-37,1,7.587
-27,-83,7.588
-17,-110,7.589
-11,-116,7.59
-8,-114,7.591
6,-80,7.592
24,-15,7.593
23,61,7.594
7,128,7.595
-5,154,7.596
-2,82,7.597
-2,-74,7.598
-15,-197,7.599
-23,-187,7.6
-17,-101,7.601
-5,-66,7.602
-2,-84,7.603
-2,-74,7.604
1,-15,7.605
10,34,7.606
18,57,7.607
23,82,7.608
27,103,7.609
26,86,7.61
24,38,7.611
28,7,7.612
31,14,7.613
21,35,7.614
4,38,7.615
-7,5,7.616
-9,-45,7.617
-9,-63,7.618
-12,-33,7.619
-6,17,7.62
8,60,7.621
18,105,7.622
13,157,7.623
-4,180,7.624
-18,136,7.625
-21,43,7.626
-11,-62,7.627
-3,-150,7.628
1,-202,7.629
5,-184,7.63
8,-88,7.631
1,37,7.632
-12,120,7.633
-20,130,7.634
-9,90,7.635
0,44,7.636
-3,13,7.637
-8,-8,7.638
6,-35,7.639
28,-61,7.64
29,-83,7.641
13,-105,7.642
5,-121,7.643
11,-99,7.644
13,-27,7.645
11,55,7.646
16,87,7.647
28,43,7.648
31,-39,7.649
23,-94,7.65
13,-86,7.651
7,-34,7.652
2,11,7.653
-10,26,7.654
-22,20,7.655
-29,22,7.656
-23,39,7.657
-5,63,7.658
15,82,7.659
22,96,7.66
15,115,7.661
10,138,7.662
13,156,7.663
12,166,7.664
-4,163,7.665
-22,104,7.666
-34,-56,7.667
-42,-273,7.668
-48,-419,7.669
-37,-412,7.67
-4,-297,7.671
27,-158,7.672
31,-33,7.673
12,64,7.674
-4,93,7.675
-16,60,7.676
-10,45,7.677
-3,91,7.678
7,128,7.679
16,116,7.68
16,131,7.681
19,240,7.682
35,361,7.683
49,361,7.684
56,219,7.685
53,3,7.686
18,-231,7.687
-16,-427,7.688
-44,-500,7.689
-62,-412,7.69
-52,-243,7.691
-38,-100,7.692
-15,-13,7.693
9,56,7.694
20,122,7.695
10,179,7.696
-4,236,7.697
6,283,7.698
43,259,7.699
73,136,7.7
68,-23,7.701
41,-128,7.702
13,-156,7.703
-17,-147,7.704
-48,-127,7.705
-65,-104,7.706
-58,-86,7.707
-30,-82,7.708
-1,-70,7.709
16,-15,7.71
15,82,7.711
2,158,7.712
-4,147,7.713
-2,52,7.714
0,-32,7.715
-12,-87,7.716
-19,-54,7.717
-6,-24,7.718
22,-6,7.719
30,25,7.72
19,94,7.721
11,147,7.722
17,152,7.723
34,154,7.724
52,146,7.725
70,131,7.726
78,98,7.727
65,57,7.728
33,-5,7.729
1,-67,7.73
-19,-124,7.731
-30,-158,7.732
-36,-118,7.733
-43,-100,7.734
-56,-200,7.735
-69,-320,7.736
-68,-352,7.737
-50,-283,7.738
-26,-154,7.739
-19,5,7.74
-31,146,7.741
-41,190,7.742
-20,150,7.743
27,154,7.744
65,264,7.745
67,354,7.746
43,299,7.747
24,161,7.748
17,75,7.749
14,47,7.75
11,-18,7.751
10,-137,7.752
12,-227,7.753
5,-260,7.754
-9,-270,7.755
-16,-284,7.756
5,-260,7.757
28,-152,7.758
52,-9,7.759
64,82,7.76
41,104,7.761
20,108,7.762
6,134,7.763
-9,155,7.764
-29,142,7.765
-43,112,7.766
-39,97,7.767
-36,88,7.768
-44,68,7.769
-43,55,7.77
-16,79,7.771
7,125,7.772
17,142,7.773
18,89,7.774
-9,-8,7.775
-15,-89,7.776
0,-122,7.777
15,-130,7.778
25,-144,7.779
29,-155,7.78
13,-141,7.781
-15,-119,7.782
-27,-119,7.783
-8,-118,7.784
16,-69,7.785
15,12,7.786
-7,65,7.787
-16,79,7.788
-4,99,7.789
10,140,7.79
17,141,7.791
22,73,7.792
26,-9,7.793
26,-51,7.794
24,-48,7.795
21,-39,7.796
19,-13,7.797
23,23,7.798
41,87,7.799
67,133,7.8
70,127,7.801
42,110,7.802
8,62,7.803
-1,10,7.804
2,-50,7.805
-8,-89,7.806
-41,-66,7.807
-72,-44,7.808
-77,-22,7.809
-60,-17,7.81
-42,-62,7.811
-37,-122,7.812
-34,-227,7.813
-21,-308,7.814
-3,-253,7.815
0,-102,7.816
-12,70,7.817
-27,212,7.818
-31,276,7.819
-19,268,7.82
10,273,7.821
47,354,7.822
78,415,7.823
92,270,7.824
94,-88,7.825
88,-428,7.826
60,-541,7.827
2,-450,7.828
-55,-321,7.829
-64,-252,7.83
-24,-224,7.831
5,-191,7.832
-14,-127,7.833
-54,-23,7.834
-60,94,7.835
-36,168,7.836
-24,173,7.837
-37,148,7.838
-34,121,7.839
-5,99,7.84
19,89,7.841
22,105,7.842
24,124,7.843
35,120,7.844
31,109,7.845
8,123,7.846
-7,142,7.847
-2,123,7.848
5,79,7.849
5,64,7.85
11,87,7.851
29,120,7.852
42,144,7.853
46,127,7.854
46,31,7.855
37,-94,7.856
11,-308,7.857
-19,-466,7.858
-22,-454,7.859
3,-397,7.86
29,-207,7.861
43,-38,7.862
51,67,7.863
50,138,7.864
29,99,7.865
6,81,7.866
12,126,7.867
39,157,7.868
43,143,7.869
3,130,7.87
-48,120,7.871
-79,93,7.872
-86,13,7.873
-83,-52,7.874
-69,-28,7.875
-54,42,7.876
-42,105,7.877
-41,181,7.878
-38,269,7.879
-20,294,7.88
0,194,7.881
12,5,7.882
9,-191,7.883
4,-350,7.884
4,-441,7.885
2,-417,7.886
-6,-262,7.887
-8,-35,7.888
7,151,7.889
29,197,7.89
46,93,7.891
51,-56,7.892
50,-120,7.893
36,-98,7.894
18,-96,7.895
9,-170,7.896
19,-234,7.897
34,-208,7.898
39,-143,7.899
48,-94,7.9
67,-8,7.901
77,154,7.902
57,304,7.903
16,346,7.904
-20,300,7.905
-39,214,7.906
-40,85,7.907
-26,-63,7.908
-15,-150,7.909
-24,-145,7.91
-54,-114,7.911
-68,-109,7.912
-46,-105,7.913
-12,-80,7.914
7,-56,7.915
2,-30,7.916
3,28,7.917
17,113,7.918
39,159,7.919
59,150,7.92
73,146,7.921
69,162,7.922
40,154,7.923
-8,114,7.924
-56,94,7.925
-93,111,7.926
-109,111,7.927
-97,57,7.928
-60,-18,7.929
-19,-77,7.93
8,-137,7.931
26,-212,7.932
41,-267,7.933
52,-255,7.934
48,-184,7.935
26,-116,7.936
0,-58,7.937
-25,-1,7.938
-45,48,7.939
-45,88,7.94
-18,96,7.941
20,102,7.942
43,106,7.943
44,117,7.944
42,151,7.945
44,177,7.946
38,177,7.947
21,159,7.948
11,88,7.949
13,2,7.95
20,-125,7.951
15,-221,7.952
8,-222,7.953
6,-212,7.954
9,-133,7.955
1,25,7.956
-12,209,7.957
-14,271,7.958
-1,118,7.959
9,-142,7.96
3,-328,7.961
-9,-363,7.962
-10,-283,7.963
1,-156,7.964
11,-42,7.965
14,10,7.966
12,22,7.967
10,68,7.968
6,166,7.969
0,214,7.97
2,135,7.971
6,0,7.972
7,-59,7.973
-3,-23,7.974
-21,32,7.975
-39,37,7.976
-50,-11,7.977
-48,-71,7.978
-25,-119,7.979
15,-141,7.98
54,-145,7.981
73,-142,7.982
69,-108,7.983
49,-20,7.984
30,92,7.985
23,163,7.986
29,174,7.987
30,172,7.988
3,186,7.989
-46,191,7.99
-88,148,7.991
-99,74,7.992
-84,18,7.993
-65,-4,7.994
-53,-12,7.995
-51,-38,7.996
-47,-77,7.997
-34,-94,7.998
-8,-77,7.999
26,-49,8.0
55,-15,8.001
70,29,8.002
73,59,8.003
76,43,8.004
73,-2,8.005
49,-28,8.006
5,-15,8.007
-32,18,8.008
-37,57,8.009
-16,101,8.01
2,127,8.011
4,97,8.012
8,23,8.013
21,-62,8.014
33,-124,8.015
39,-168,8.016
25,-154,8.017
16,-129,8.018
22,-67,8.019
25,-13,8.02
13,20,8.021
4,41,8.022
8,26,8.023
9,19,8.024
3,36,8.025
0,63,8.026
5,118,8.027
10,165,8.028
5,187,8.029
0,217,8.03
-7,270,8.031
-12,327,8.032
-10,399,8.033
-7,451,8.034
-8,343,8.035
-12,41,8.036
-22,-334,8.037
-30,-615,8.038
-19,-755,8.039
12,-770,8.04
37,-653,8.041
32,-436,8.042
0,-249,8.043
-30,-194,8.044
-39,-195,8.045
-25,-118,8.046
-7,41,8.047
4,181,8.048
7,263,8.049
10,332,8.05
25,381,8.051
42,332,8.052
45,170,8.053
25,-54,8.054
-9,-228,8.055
-47,-292,8.056
-76,-250,8.057
-86,-131,8.058
-70,22,8.059
-47,183,8.06
-35,323,8.061
-25,384,8.062
2,339,8.063
35,254,8.064
38,235,8.065
15,289,8.066
7,297,8.067
32,167,8.068
59,-70,8.069
56,-307,8.07
36,-446,8.071
26,-434,8.072
29,-293,8.073
30,232,8.074
25,99,8.075
17,-43,8.076
8,-215,8.077
-3,-356,8.078
-9,-404,8.079
-5,-399,8.08
-1,-231,8.081
-4,-67,8.082
-12,85,8.083
-13,206,8.084
0,232,8.085
22,244,8.086
39,211,8.087
40,176,8.088
30,138,8.089
22,123,8.09
22,179,8.091
19,225,8.092
4,241,8.093
-18,275,8.094
-33,113,8.095
-45,-60,8.096
-45,-269,8.097
-40,-440,8.098
-19,-498,8.099
2,-492,8.1
25,-288,8.101
41,-89,8.102
35,96,8.103
27,243,8.104
13,275,8.105
13,289,8.106
53,249,8.107
76,207,8.108
44,161,8.109
11,143,8.11
-22,211,8.111
-54,266,8.112
-75,286,8.113
-100,256,8.114
-127,37,8.115
-106,-184,8.116
-24,-368,8.117
71,-489,8.118
108,-469,8.119
77,-278,8.12
35,-56,8.121
26,16,8.122
25,-54,8.123
-9,-116,8.124
-58,-86,8.125
-69,-16,8.126
-36,44,8.127
1,106,8.128
22,179,8.129
29,242,8.13
27,274,8.131
18,228,8.132
9,69,8.133
5,-151,8.134
3,-269,8.135
0,-308,8.136
5,-110,8.137
22,80,8.138
37,248,8.139
40,356,8.14
36,285,8.141
30,200,8.142
21,78,8.143
13,-42,8.144
8,-160,8.145
-3,-266,8.146
-22,-337,8.147
-34,-359,8.148
-19,-233,8.149
-1,-85,8.15
-4,128,8.151
-25,288,8.152
-32,281,8.153
-20,264,8.154
-7,257,8.155
-13,257,8.156
-23,111,8.157
-23,-155,8.158
-4,-357,8.159
19,-423,8.16
27,-432,8.161
17,-390,8.162
7,-215,8.163
14,43,8.164
29,204,8.165
30,217,8.166
19,206,8.167
12,214,8.168
16,133,8.169
18,-63,8.17
15,-227,8.171
11,-249,8.172
6,-205,8.173
-1,-196,8.174
-6,-195,8.175
-15,-167,8.176
-27,-60,8.177
-34,42,8.178
-22,131,8.179
-5,208,8.18
-5,245,8.181
-15,276,8.182
-6,289,8.183
15,305,8.184
13,329,8.185
-15,325,8.186
-28,238,8.187
-16,132,8.188
-5,-26,8.189
-18,-155,8.19
-32,-191,8.191
-27,-200,8.192
-6,-130,8.193
7,-64,8.194
17,-33,8.195
32,-38,8.196
54,-62,8.197
67,-58,8.198
57,-6,8.199
35,70,8.2
19,128,8.201
20,138,8.202
25,71,8.203
16,-85,8.204
-6,-265,8.205
-20,-354,8.206
-12,-319,8.207
5,-231,8.208
15,-150,8.209
14,-62,8.21
10,42,8.211
11,120,8.212
10,141,8.213
7,138,8.214
3,162,8.215
0,187,8.216
2,216,8.217
11,226,8.218
19,176,8.219
15,125,8.22
-7,69,8.221
-30,21,8.222
-34,3,8.223
-17,13,8.224
8,108,8.225
24,209,8.226
19,326,8.227
-11,365,8.228
-51,164,8.229
-74,-58,8.23
-71,-344,8.231
-56,-612,8.232
-42,-822,8.233
-25,-986,8.234
2,-892,8.235
33,-614,8.236
49,-247,8.237
48,105,8.238
42,327,8.239
31,368,8.24
11,337,8.241
-2,373,8.242
4,435,8.243
20,371,8.244
28,173,8.245
30,-7,8.246
33,-106,8.247
24,-184,8.248
3,-234,8.249
-14,-152,8.25
-16,40,8.251
-17,175,8.252
-23,179,8.253
-23,136,8.254
-7,126,8.255
11,123,8.256
20,97,8.257
32,82,8.258
54,81,8.259
64,59,8.26
44,31,8.261
9,34,8.262
-13,51,8.263
-22,28,8.264
-30,-12,8.265
-38,-21,8.266
-40,-21,8.267
-34,-61,8.268
-30,-112,8.269
-27,-103,8.27
-18,-46,8.271
4,-10,8.272
32,-8,8.273
48,-1,8.274
49,17,8.275
46,16,8.276
44,-7,8.277
23,-22,8.278
-18,-43,8.279
-50,-70,8.28
-46,-41,8.281
-25,79,8.282
-12,214,8.283
-11,235,8.284
-3,144,8.285
9,58,8.286
9,36,8.287
-2,19,8.288
-6,-32,8.289
2,-61,8.29
13,-14,8.291
17,22,8.292
18,-74,8.293
21,-317,8.294
27,-550,8.295
25,-634,8.296
16,-559,8.297
7,-366,8.298
8,-105,8.299
9,137,8.3
2,270,8.301
-6,301,8.302
-8,322,8.303
-5,359,8.304
-9,354,8.305
-18,311,8.306
-15,306,8.307
-2,322,8.308
5,233,8.309
-1,18,8.31
-6,-179,8.311
-3,-260,8.312
4,-290,8.313
1,-342,8.314
0,-358,8.315
4,-286,8.316
7,-200,8.317
-2,-136,8.318
-13,3,8.319
-8,265,8.32
9,502,8.321
19,547,8.322
15,431,8.323
10,251,8.324
12,13,8.325
13,-278,8.326
4,-483,8.327
-5,-479,8.328
-10,-325,8.329
-11,-175,8.33
-10,-87,8.331
0,-50,8.332
20,-55,8.333
38,-75,8.334
47,-24,8.335
53,122,8.336
60,250,8.337
58,272,8.338
29,239,8.339
-18,245,8.34
-58,295,8.341
-76,337,8.342
-76,366,8.343
-66,376,8.344
-50,306,8.345
-27,120,8.346
0,-109,8.347
23,-290,8.348
29,-430,8.349
21,-559,8.35
12,-629,8.351
5,-568,8.352
0,-408,8.353
-7,-224,8.354
-12,-71,8.355
-10,53,8.356
-4,162,8.357
1,290,8.358
8,483,8.359
12,723,8.36
10,862,8.361
3,742,8.362
1,375,8.363
7,-83,8.364
12,-486,8.365
9,-771,8.366
7,-905,8.367
12,-869,8.368
21,-694,8.369
23,-450,8.37
19,-188,8.371
17,60,8.372
24,219,8.373
42,244,8.374
61,186,8.375
62,166,8.376
47,209,8.377
29,227,8.378
21,168,8.379
6,108,8.38
-30,130,8.381
-70,195,8.382
-73,220,8.383
-37,187,8.384
-1,130,8.385
4,59,8.386
-8,-26,8.387
-13,-78,8.388
-6,-40,8.389
-3,66,8.39
-9,149,8.391
-10,156,8.392
-2,128,8.393
4,109,8.394
-3,95,8.395
-12,39,8.396
-13,-39,8.397
-2,-75,8.398
7,-60,8.399
11,-38,8.4
13,5,8.401
16,102,8.402
17,196,8.403
17,172,8.404
19,39,8.405
18,-53,8.406
14,-24,8.407
8,13,8.408
0,-96,8.409
-7,-340,8.41
-10,-568,8.411
-5,-685,8.412
1,-710,8.413
-1,-663,8.414
-15,-517,8.415
-30,-280,8.416
-30,-55,8.417
-13,82,8.418
15,169,8.419
42,276,8.42
53,372,8.421
38,387,8.422
-3,356,8.423
-49,357,8.424
-69,370,8.425
-44,324,8.426
1,239,8.427
29,203,8.428
26,246,8.429
9,325,8.43
-3,393,8.431
-12,389,8.432
-18,247,8.433
-20,-73,8.434
-13,-446,8.435
-8,-713,8.436
-7,-809,8.437
0,-738,8.438
11,-525,8.439
19,-250,8.44
17,-33,8.441
11,71,8.442
13,110,8.443
23,140,8.444
35,157,8.445
40,154,8.446
39,157,8.447
26,177,8.448
12,181,8.449
5,153,8.45
10,121,8.451
16,111,8.452
13,113,8.453
1,110,8.454
-3,110,8.455
-9,111,8.456
-17,92,8.457
-22,54,8.458
-16,15,8.459
-10,-21,8.46
-2,-61,8.461
6,-95,8.462
16,-98,8.463
25,-71,8.464
29,-30,8.465
27,16,8.466
8,64,8.467
-8,85,8.468
-20,74,8.469
-25,75,8.47
-11,123,8.471
-3,165,8.472
-11,135,8.473
-18,37,8.474
-19,-42,8.475
-19,-73,8.476
-23,-109,8.477
-27,-164,8.478
-10,-189,8.479
19,-175,8.48
36,-187,8.481
38,-229,8.482
36,-209,8.483
34,-89,8.484
24,9,8.485
12,-10,8.486
4,-74,8.487
2,-55,8.488
-1,18,8.489
-6,17,8.49
-8,-85,8.491
-8,-175,8.492
-4,-178,8.493
-1,-118,8.494
-1,-32,8.495
-8,61,8.496
-15,181,8.497
-9,282,8.498
4,330,8.499
8,354,8.5
0,308,8.501
0,235,8.502
10,79,8.503
7,-53,8.504
-11,-110,8.505
-17,-166,8.506
7,-219,8.507
30,-256,8.508
29,-241,8.509
22,-207,8.51
30,-119,8.511
31,-15,8.512
10,137,8.513
-14,270,8.514
-10,268,8.515
10,155,8.516
7,31,8.517
-13,-36,8.518
-16,-85,8.519
0,-159,8.52
7,-224,8.521
-3,-227,8.522
-5,-172,8.523
2,-98,8.524
-1,-7,8.525
-18,102,8.526
-23,192,8.527
-16,220,8.528
-14,216,8.529
-18,226,8.53
-13,227,8.531
3,168,8.532
10,63,8.533
0,-46,8.534
-6,-127,8.535
-9,-180,8.536
0,-197,8.537
8,-156,8.538
14,-80,8.539
21,-7,8.54
31,46,8.541
38,80,8.542
34,84,8.543
32,54,8.544
37,7,8.545
40,-41,8.546
36,-86,8.547
26,-108,8.548
0,-90,8.549
-24,-50,8.55
-44,-28,8.551
-54,-21,8.552
-36,1,8.553
-19,38,8.554
-13,56,8.555
-11,41,8.556
-5,27,8.557
0,38,8.558
2,54,8.559
6,56,8.56
16,64,8.561
23,109,8.562
21,199,8.563
19,304,8.564
22,369,8.565
25,337,8.566
25,214,8.567
21,73,8.568
14,-34,8.569
-4,-127,8.57
-28,-240,8.571
-37,-352,8.572
-23,-428,8.573
0,-463,8.574
8,-439,8.575
-5,-353,8.576
-19,-80,8.577
-21,164,8.578
-11,322,8.579
-3,402,8.58
-4,244,8.581
-8,92,8.582
-2,-42,8.583
7,-153,8.584
10,-189,8.585
10,-244,8.586
14,-359,8.587
20,-431,8.588
21,-373,8.589
10,-274,8.59
2,-54,8.591
3,138,8.592
7,249,8.593
9,322,8.594
8,233,8.595
6,136,8.596
5,99,8.597
8,91,8.598
14,51,8.599
14,-4,8.6
-1,-29,8.601
-21,-29,8.602
-28,-25,8.603
-19,-2,8.604
-8,50,8.605
-7,101,8.606
-8,125,8.607
-3,132,8.608
2,139,8.609
1,135,8.61
4,118,8.611
19,107,8.612
41,109,8.613
55,107,8.614
51,93,8.615
34,59,8.616
26,-3,8.617
43,-81,8.618
64,-136,8.619
49,-146,8.62
-11,-128,8.621
-75,-108,8.622
-96,-78,8.623
-81,-34,8.624
-70,-1,8.625
-65,6,8.626
-45,4,8.627
-7,10,8.628
18,14,8.629
20,16,8.63
18,35,8.631
15,73,8.632
-3,110,8.633
-28,147,8.634
-30,206,8.635
-13,272,8.636
-4,266,8.637
-8,146,8.638
0,-35,8.639
21,-164,8.64
30,-180,8.641
21,-118,8.642
22,-62,8.643
40,-65,8.644
48,-117,8.645
38,-189,8.646
30,-277,8.647
38,-386,8.648
41,-460,8.649
28,-410,8.65
15,-241,8.651
17,-70,8.652
21,22,8.653
16,63,8.654
10,84,8.655
4,53,8.656
2,-22,8.657
0,-28,8.658
-1,75,8.659
-2,173,8.66
-6,166,8.661
-9,117,8.662
-13,125,8.663
-15,175,8.664
-11,226,8.665
-10,305,8.666
-18,438,8.667
-23,537,8.668
-21,489,8.669
-18,304,8.67
-12,107,8.671
-7,-4,8.672
-5,-54,8.673
-2,-162,8.674
1,-377,8.675
9,-596,8.676
16,-668,8.677
14,-569,8.678
9,-415,8.679
5,-282,8.68
3,-142,8.681
1,11,8.682
0,118,8.683
-2,160,8.684
-6,201,8.685
-12,268,8.686
-10,291,8.687
1,202,8.688
18,38,8.689
36,-109,8.69
51,-185,8.691
56,-205,8.692
46,-216,8.693
13,-132,8.694
-22,-217,8.695
-46,-280,8.696
-32,-280,8.697
-20,-266,8.698
-10,-211,8.699
-4,-155,8.7
-8,-104,8.701
-9,-56,8.702
0,-22,8.703
3,13,8.704
-17,42,8.705
-26,113,8.706
2,310,8.707
20,483,8.708
6,583,8.709
-5,610,8.71
-13,409,8.711
-18,345,8.712
-16,694,8.713
-19,9,8.714
-36,-23,8.715
-37,-46,8.716
-21,-46,8.717
-6,-41,8.718
0,-20,8.719
3,1,8.72
4,20,8.721
8,37,8.722
19,50,8.723
36,64,8.724
47,74,8.725
45,100,8.726
37,174,8.727
36,238,8.728
39,276,8.729
44,286,8.73
45,211,8.731
46,187,8.732
43,318,8.733
34,-17,8.734
19,-58,8.735
1,-89,8.736
-5,-89,8.737
-3,-82,8.738
4,-55,8.739
6,-28,8.74
2,-3,8.741
-8,20,8.742
-17,37,8.743
-21,54,8.744
-21,68,8.745
-20,103,8.746
-21,199,8.747
-23,283,8.748
-23,332,8.749
-17,345,8.75
-10,247,8.751
-10,216,8.752
-13,386,8.753
-12,515,8.754
-7,310,8.755
-4,-193,8.756
-7,-640,8.757
-8,-825,8.758
-4,-902,8.759
-3,-1054,8.76
-10,-1175,8.761
-16,-1085,8.762
-11,-842,8.763
3,-613,8.764
12,-401,8.765
12,-140,8.766
7,90,8.767
4,174,8.768
4,200,8.769
6,327,8.77
13,513,8.771
22,603,8.772
28,583,8.773
24,543,8.774
11,504,8.775
-8,411,8.776
-27,277,8.777
-41,195,8.778
-39,174,8.779
-11,154,8.78
22,123,8.781
35,112,8.782
28,104,8.783
24,64,8.784
30,13,8.785
28,4,8.786
9,34,8.787
-4,67,8.788
0,97,8.789
11,115,8.79
9,98,8.791
-2,47,8.792
-3,20,8.793
-2,43,8.794
-1,57,8.795
-5,-3,8.796
-5,-111,8.797
-1,-174,8.798
6,-173,8.799
18,-143,8.8
30,-96,8.801
33,-29,8.802
26,22,8.803
18,25,8.804
14,24,8.805
8,98,8.806
-1,234,8.807
-5,321,8.808
-3,281,8.809
0,130,8.81
-4,-99,8.811
-9,-374,8.812
-13,-610,8.813
-19,-730,8.814
-24,-705,8.815
-28,-604,8.816
-23,-479,8.817
-14,-279,8.818
-5,24,8.819
0,336,8.82
1,515,8.821
2,534,8.822
8,479,8.823
17,421,8.824
18,354,8.825
12,252,8.826
9,120,8.827
11,-10,8.828
6,-125,8.829
-6,-236,8.83
-16,-338,8.831
-14,-390,8.832
-5,-374,8.833
1,-325,8.834
5,-290,8.835
6,-262,8.836
4,-206,8.837
2,-112,8.838
8,-7,8.839
17,106,8.84
20,229,8.841
13,326,8.842
5,349,8.843
5,312,8.844
7,283,8.845
1,302,8.846
-8,337,8.847
-11,328,8.848
-5,280,8.849
0,267,8.85
-3,326,8.851
-12,364,8.852
-18,265,8.853
-13,17,8.854
-1,-234,8.855
2,-414,8.856
-3,-579,8.857
-2,-726,8.858
15,-731,8.859
28,-557,8.86
20,-352,8.861
6,-230,8.862
12,-122,8.863
31,51,8.864
39,217,8.865
26,308,8.866
15,377,8.867
16,444,8.868
17,381,8.869
6,125,8.87
-7,-170,8.871
-9,-319,8.872
-6,-321,8.873
-7,-266,8.874
-12,-165,8.875
-16,-7,8.876
-16,132,8.877
-9,175,8.878
2,146,8.879
9,121,8.88
3,110,8.881
-6,100,8.882
-3,120,8.883
5,184,8.884
6,233,8.885
0,238,8.886
-3,253,8.887
1,306,8.888
1,305,8.889
-4,164,8.89
-5,-47,8.891
0,-198,8.892
11,-262,8.893
16,-313,8.894
13,-369,8.895
7,-387,8.896
2,-354,8.897
1,-306,8.898
3,-261,8.899
0,-179,8.9
-14,-46,8.901
-33,89,8.902
-36,185,8.903
-19,254,8.904
-1,302,8.905
-1,282,8.906
-4,164,8.907
4,21,8.908
14,-25,8.909
9,34,8.91
-7,98,8.911
-13,96,8.912
-6,62,8.913
0,33,8.914
3,-17,8.915
8,-121,8.916
13,-229,8.917
11,-255,8.918
8,-204,8.919
13,-131,8.92
26,-49,8.921
37,44,8.922
44,87,8.923
45,27,8.924
32,-63,8.925
10,-61,8.926
-7,26,8.927
-3,72,8.928
9,35,8.929
16,-2,8.93
17,15,8.931
18,36,8.932
19,25,8.933
11,8,8.934
-1,3,8.935
-14,-23,8.936
-22,-71,8.937
-26,-57,8.938
-17,40,8.939
-4,130,8.94
-6,132,8.941
-23,94,8.942
-26,110,8.943
-7,192,8.944
12,281,8.945
8,331,8.946
-4,328,8.947
-3,257,8.948
1,123,8.949
-1,-50,8.95
-8,-230,8.951
-5,-380,8.952
1,-449,8.953
-2,-414,8.954
-8,-311,8.955
-7,-197,8.956
3,-73,8.957
14,75,8.958
21,153,8.959
25,54,8.96
22,-134,8.961
12,-209,8.962
5,-126,8.963
4,-30,8.964
7,-12,8.965
11,-2,8.966
19,59,8.967
28,118,8.968
27,120,8.969
20,93,8.97
15,48,8.971
17,-54,8.972
16,-209,8.973
0,-362,8.974
-25,-413,8.975
-45,-332,8.976
-47,-150,8.977
-46,83,8.978
-30,309,8.979
-18,469,8.98
-25,545,8.981
-27,560,8.982
-12,544,8.983
0,490,8.984
1,359,8.985
7,139,8.986
20,-123,8.987
29,-355,8.988
26,-517,8.989
24,-585,8.99
25,-533,8.991
25,-365,8.992
19,-170,8.993
14,-34,8.994
13,7,8.995
6,9,8.996
-10,32,8.997
-18,70,8.998
-6,73,8.999
7,38,9.0
3,8,9.001
-10,22,9.002
-10,65,9.003
2,99,9.004
9,108,9.005
4,126,9.006
0,176,9.007
1,224,9.008
0,214,9.009
-5,163,9.01
-5,145,9.011
-2,170,9.012
-7,174,9.013
-18,130,9.014
-10,99,9.015
16,62,9.016
40,8,9.017
40,-80,9.018
31,-273,9.019
26,-414,9.02
24,-398,9.021
16,-358,9.022
9,-248,9.023
9,-149,9.024
13,-86,9.025
10,-30,9.026
1,4,9.027
-3,43,9.028
-5,94,9.029
-10,127,9.03
-13,103,9.031
-13,62,9.032
-13,-23,9.033
-15,-115,9.034
-13,-185,9.035
-8,-135,9.036
-4,51,9.037
-4,314,9.038
-4,565,9.039
-3,725,9.04
-2,704,9.041
-4,467,9.042
-5,118,9.043
-5,-170,9.044
-4,-343,9.045
-4,-463,9.046
-4,-550,9.047
-1,-550,9.048
1,-463,9.049
0,-383,9.05
1,-371,9.051
8,-385,9.052
17,-372,9.053
19,-318,9.054
11,-211,9.055
2,-47,9.056
3,118,9.057
11,227,9.058
15,278,9.059
6,309,9.06
-8,312,9.061
-13,272,9.062
-3,218,9.063
15,194,9.064
25,183,9.065
26,144,9.066
17,91,9.067
7,66,9.068
-4,65,9.069
-16,58,9.07
-19,61,9.071
-10,100,9.072
0,155,9.073
1,188,9.074
-4,204,9.075
-10,222,9.076
-12,203,9.077
-9,92,9.078
-3,-77,9.079
5,-171,9.08
12,-127,9.081
13,-42,9.082
14,-59,9.083
18,-192,9.084
23,-326,9.085
20,-348,9.086
17,-238,9.087
20,-68,9.088
24,46,9.089
15,53,9.09
-4,15,9.091
-14,13,9.092
-10,26,9.093
-2,-36,9.094
1,-160,9.095
1,-227,9.096
1,-161,9.097
-1,-34,9.098
0,37,9.099
8,47,9.1
13,78,9.101
4,166,9.102
-11,262,9.103
-16,310,9.104
-10,292,9.105
-7,229,9.106
-10,162,9.107
-10,123,9.108
-4,101,9.109
-1,35,9.11
-3,-98,9.111
-5,-214,9.112
1,-211,9.113
8,-129,9.114
9,-144,9.115
5,-340,9.116
4,-568,9.117
8,-612,9.118
11,-446,9.119
8,-183,9.12
2,99,9.121
-3,349,9.122
-3,466,9.123
1,398,9.124
6,243,9.125
8,118,9.126
7,-6,9.127
8,-186,9.128
14,-321,9.129
18,-293,9.13
16,-155,9.131
8,-44,9.132
1,21,9.133
-7,106,9.134
-15,184,9.135
-25,199,9.136
-30,195,9.137
-22,260,9.138
-3,360,9.139
14,407,9.14
18,395,9.141
13,364,9.142
12,310,9.143
18,203,9.144
18,41,9.145
8,-176,9.146
-8,-429,9.147
-16,-629,9.148
-10,-683,9.149
-2,-590,9.15
-2,-406,9.151
-8,-151,9.152
-7,127,9.153
3,346,9.154
13,395,9.155
9,307,9.156
2,184,9.157
6,43,9.158
18,-162,9.159
21,-365,9.16
9,-414,9.161
-2,-276,9.162
-1,-85,9.163
3,38,9.164
3,110,9.165
1,185,9.166
4,231,9.167
9,199,9.168
11,127,9.169
13,98,9.17
18,115,9.171
19,117,9.172
12,94,9.173
0,86,9.174
-2,114,9.175
0,128,9.176
0,72,9.177
-3,-39,9.178
-2,-163,9.179
0,-253,9.18
-5,-270,9.181
-14,-205,9.182
-16,-106,9.183
-8,-24,9.184
-1,47,9.185
-3,143,9.186
-5,233,9.187
-2,238,9.188
3,160,9.189
6,103,9.19
5,150,9.191
3,269,9.192
2,364,9.193
5,376,9.194
15,259,9.195
23,-33,9.196
20,-467,9.197
9,-863,9.198
5,-1017,9.199
12,-873,9.2
16,-549,9.201
9,-214,9.202
2,20,9.203
0,131,9.204
-1,167,9.205
-7,197,9.206
-13,239,9.207
-10,260,9.208
-5,260,9.209
-2,278,9.21
-1,326,9.211
0,351,9.212
0,324,9.213
-5,261,9.214
-9,180,9.215
-12,51,9.216
-15,-136,9.217
-19,-303,9.218
-16,-348,9.219
-6,-256,9.22
4,-118,9.221
8,-32,9.222
14,-10,9.223
29,-9,9.224
42,5,9.225
37,59,9.226
22,179,9.227
11,336,9.228
11,404,9.229
13,277,9.23
9,15,9.231
-2,-216,9.232
-10,-334,9.233
-12,-399,9.234
-11,-453,9.235
-12,-473,9.236
-20,-422,9.237
-21,-305,9.238
-7,-146,9.239
9,22,9.24
5,150,9.241
-13,206,9.242
-19,238,9.243
-4,322,9.244
11,453,9.245
8,548,9.246
-5,558,9.247
-6,511,9.248
3,433,9.249
12,286,9.25
10,44,9.251
2,-222,9.252
-6,-405,9.253
-13,-510,9.254
-10,-570,9.255
0,-578,9.256
15,-493,9.257
22,-336,9.258
26,-199,9.259
33,-118,9.26
33,-43,9.261
23,47,9.262
7,119,9.263
1,153,9.264
9,169,9.265
15,171,9.266
15,143,9.267
14,123,9.268
15,181,9.269
12,327,9.27
1,490,9.271
-10,592,9.272
-14,590,9.273
-17,436,9.274
-12,125,9.275
-3,-256,9.276
4,-570,9.277
3,-708,9.278
2,-673,9.279
9,-536,9.28
15,-373,9.281
10,-225,9.282
-1,-106,9.283
-2,-19,9.284
7,51,9.285
15,127,9.286
14,206,9.287
11,241,9.288
8,197,9.289
0,108,9.29
-9,33,9.291
-10,-9,9.292
-4,-26,9.293
-8,-6,9.294
-26,65,9.295
-43,140,9.296
-39,149,9.297
-18,111,9.298
0,98,9.299
9,120,9.3
6,97,9.301
3,-15,9.302
3,-140,9.303
3,-175,9.304
5,-112,9.305
11,-24,9.306
17,37,9.307
8,55,9.308
-13,15,9.309
-25,-82,9.31
-11,-181,9.311
15,-201,9.312
25,-152,9.313
16,-99,9.314
7,-82,9.315
8,-66,9.316
12,-15,9.317
9,47,9.318
10,79,9.319
15,87,9.32
13,98,9.321
0,98,9.322
-8,60,9.323
0,-13,9.324
12,-71,9.325
14,-81,9.326
12,-49,9.327
12,0,9.328
8,54,9.329
2,99,9.33
-1,120,9.331
1,114,9.332
5,96,9.333
6,74,9.334
12,58,9.335
17,57,9.336
11,74,9.337
6,113,9.338
1,165,9.339
-3,244,9.34
-6,366,9.341
-8,490,9.342
-5,502,9.343
0,343,9.344
6,93,9.345
11,-151,9.346
7,-413,9.347
3,-743,9.348
-1,-1030,9.349
-4,-1087,9.35
-2,-887,9.351
1,-568,9.352
7,-257,9.353
13,38,9.354
5,248,9.355
-5,328,9.356
-13,362,9.357
-16,445,9.358
-12,478,9.359
-9,318,9.36
-11,57,9.361
-15,-76,9.362
-10,-41,9.363
0,14,9.364
8,18,9.365
13,43,9.366
21,111,9.367
31,165,9.368
34,210,9.369
27,293,9.37
19,376,9.371
13,352,9.372
8,203,9.373
-1,-41,9.374
-12,-319,9.375
-18,-563,9.376
-17,-678,9.377
-10,-603,9.378
-5,-404,9.379
1,-203,9.38
7,-63,9.381
10,35,9.382
13,116,9.383
16,199,9.384
22,280,9.385
22,315,9.386
14,262,9.387
-6,156,9.388
-29,95,9.389
-45,140,9.39
-41,272,9.391
-26,417,9.392
-18,487,9.393
-20,408,9.394
-21,191,9.395
-13,-63,9.396
-4,-264,9.397
0,-418,9.398
6,-560,9.399
13,-647,9.4
10,-610,9.401
-2,-467,9.402
-6,-299,9.403
5,-140,9.404
20,17,9.405
30,144,9.406
41,203,9.407
53,210,9.408
51,205,9.409
30,190,9.41
11,155,9.411
6,117,9.412
13,93,9.413
13,66,9.414
9,44,9.415
8,58,9.416
9,103,9.417
3,137,9.418
-2,144,9.419
-6,162,9.42
-11,184,9.421
-20,138,9.422
-21,0,9.423
-11,-147,9.424
-2,-224,9.425
-2,-224,9.426
-1,-172,9.427
10,-58,9.428
23,116,9.429
25,282,9.43
15,351,9.431
7,289,9.432
5,150,9.433
1,-7,9.434
-5,-128,9.435
-11,-224,9.436
-13,-349,9.437
-14,-493,9.438
-19,-581,9.439
-22,-553,9.44
-17,-429,9.441
-5,-257,9.442
5,-73,9.443
11,87,9.444
13,178,9.445
15,209,9.446
13,238,9.447
7,278,9.448
1,276,9.449
0,222,9.45
0,196,9.451
-3,248,9.452
-4,307,9.453
-6,272,9.454
-6,138,9.455
-9,-13,9.456
-11,-111,9.457
-10,-139,9.458
-7,-129,9.459
-3,-110,9.46
-3,-97,9.461
-1,-96,9.462
5,-103,9.463
15,-109,9.464
19,-89,9.465
20,-28,9.466
24,67,9.467
32,179,9.468
37,292,9.469
31,380,9.47
16,390,9.471
2,283,9.472
-1,97,9.473
1,-131,9.474
2,-338,9.475
2,-482,9.476
-7,-531,9.477
-15,-458,9.478
-19,-295,9.479
-22,-121,9.48
-22,-9,9.481
-16,33,9.482
4,53,9.483
18,101,9.484
16,186,9.485
11,284,9.486
-2,366,9.487
-13,395,9.488
-13,365,9.489
-11,330,9.49
-4,376,9.491
2,493,9.492
8,544,9.493
13,371,9.494
7,-45,9.495
3,-569,9.496
4,-1017,9.497
10,-1252,9.498
16,-1220,9.499
21,-944,9.5
23,-544,9.501
20,-190,9.502
16,17,9.503
3,119,9.504
-11,227,9.505
-19,385,9.506
-17,514,9.507
-13,518,9.508
-13,392,9.509
-17,221,9.51
-15,95,9.511
-7,40,9.512
2,34,9.513
10,53,9.514
17,90,9.515
19,136,9.516
17,166,9.517
16,168,9.518
17,145,9.519
17,120,9.52
13,104,9.521
5,88,9.522
0,55,9.523
-1,-1,9.524
-7,-62,9.525
-15,-87,9.526
-23,-44,9.527
-23,37,9.528
-13,64,9.529
2,-29,9.53
15,-200,9.531
16,-320,9.532
9,-321,9.533
-1,-226,9.534
-6,-105,9.535
-7,-1,9.536
-6,72,9.537
2,115,9.538
15,133,9.539
20,140,9.54
14,124,9.541
6,64,9.542
10,-16,9.543
19,-62,9.544
20,-65,9.545
13,-68,9.546
11,-88,9.547
16,-76,9.548
14,-4,9.549
1,81,9.55
-15,121,9.551
-22,108,9.552
-20,74,9.553
-18,25,9.554
-18,-30,9.555
-20,-77,9.556
-19,-99,9.557
-17,-88,9.558
-6,-48,9.559
11,6,9.56
24,55,9.561
23,91,9.562
6,149,9.563
-6,259,9.564
-3,364,9.565
7,334,9.566
16,106,9.567
19,-214,9.568
22,-458,9.569
22,-551,9.57
18,-529,9.571
14,-421,9.572
15,-244,9.573
16,-38,9.574
13,83,9.575
4,86,9.576
-4,59,9.577
-12,94,9.578
-16,172,9.579
-16,260,9.58
-14,382,9.581
-9,521,9.582
-2,555,9.583
3,383,9.584
2,68,9.585
-3,-229,9.586
-8,-417,9.587
-7,-487,9.588
-4,-422,9.589
-2,-209,9.59
-7,50,9.591
-17,171,9.592
-21,90,9.593
-15,-109,9.594
0,-261,9.595
7,-289,9.596
1,-216,9.597
0,-69,9.598
14,131,9.599
31,315,9.6
34,370,9.601
20,238,9.602
9,8,9.603
8,-183,9.604
8,-276,9.605
-1,-301,9.606
-8,-276,9.607
-2,-176,9.608
8,-22,9.609
12,97,9.61
10,126,9.611
11,110,9.612
13,116,9.613
10,152,9.614
8,179,9.615
8,176,9.616
10,174,9.617
10,207,9.618
10,248,9.619
13,238,9.62
11,168,9.621
6,91,9.622
3,70,9.623
4,92,9.624
1,76,9.625
-10,-27,9.626
-18,-172,9.627
-17,-276,9.628
-14,-322,9.629
-17,-355,9.63
-17,-391,9.631
-11,-389,9.632
-3,-321,9.633
-3,-189,9.634
-4,6,9.635
-2,256,9.636
2,464,9.637
6,487,9.638
15,289,9.639
27,40,9.64
27,-85,9.641
13,-99,9.642
0,-130,9.643
5,-178,9.644
13,-122,9.645
11,70,9.646
3,240,9.647
4,220,9.648
10,31,9.649
9,-177,9.65
5,-294,9.651
6,-318,9.652
7,-274,9.653
-2,-168,9.654
-13,-26,9.655
-19,95,9.656
-18,167,9.657
-15,228,9.658
-7,307,9.659
3,386,9.66
8,428,9.661
0,410,9.662
-4,312,9.663
7,114,9.664
26,-140,9.665
33,-350,9.666
29,-446,9.667
22,-451,9.668
15,-419,9.669
2,-362,9.67
-10,-271,9.671
-14,-170,9.672
-11,-94,9.673
-12,-27,9.674
-17,49,9.675
-19,115,9.676
-16,134,9.677
-14,132,9.678
-14,161,9.679
-11,218,9.68
-6,234,9.681
-5,170,9.682
-3,67,9.683
3,6,9.684
9,33,9.685
3,141,9.686
-7,283,9.687
-11,368,9.688
-2,322,9.689
7,150,9.69
11,-78,9.691
7,-310,9.692
3,-501,9.693
0,-592,9.694
3,-474,9.695
12,-179,9.696
22,102,9.697
31,216,9.698
30,179,9.699
25,81,9.7
19,-47,9.701
19,-176,9.702
19,-229,9.703
16,-170,9.704
7,-88,9.705
-2,-71,9.706
-2,-77,9.707
-3,-29,9.708
-10,57,9.709
-17,124,9.71
-12,159,9.711
-1,178,9.712
5,171,9.713
8,133,9.714
16,113,9.715
23,137,9.716
19,182,9.717
5,241,9.718
-1,308,9.719
2,305,9.72
2,151,9.721
-4,-96,9.722
-12,-263,9.723
-13,-267,9.724
-13,-172,9.725
-16,-60,9.726
-16,27,9.727
-13,30,9.728
-11,-86,9.729
-10,-242,9.73
-3,-308,9.731
9,-265,9.732
22,-170,9.733
28,-35,9.734
29,111,9.735
25,155,9.736
21,42,9.737
19,-64,9.738
19,12,9.739
14,198,9.74
4,260,9.741
-4,148,9.742
-5,13,9.743
-7,-47,9.744
-13,-91,9.745
-14,-155,9.746
-3,-177,9.747
10,-124,9.748
11,-62,9.749
1,-63,9.75
-5,-118,9.751
-9,-154,9.752
-13,-124,9.753
-21,-28,9.754
-22,92,9.755
-19,208,9.756
-14,353,9.757
-7,542,9.758
3,663,9.759
16,569,9.76
20,264,9.761
16,-82,9.762
12,-338,9.763
11,-511,9.764
11,-603,9.765
8,-540,9.766
7,-318,9.767
4,-108,9.768
1,-73,9.769
-1,-159,9.77
1,-192,9.771
8,-105,9.772
11,34,9.773
7,171,9.774
0,242,9.775
-4,201,9.776
-3,75,9.777
4,-8,9.778
13,24,9.779
13,111,9.78
3,185,9.781
-6,249,9.782
-8,280,9.783
-10,205,9.784
-16,70,9.785
-21,44,9.786
-17,162,9.787
-3,226,9.788
11,73,9.789
15,-196,9.79
7,-384,9.791
-1,-439,9.792
0,-426,9.793
9,-370,9.794
19,-249,9.795
19,-75,9.796
15,106,9.797
10,285,9.798
7,424,9.799
7,448,9.8
5,318,9.801
1,104,9.802
0,-95,9.803
3,-251,9.804
4,-374,9.805
2,-414,9.806
-2,-304,9.807
-2,-78,9.808
1,124,9.809
3,202,9.81
2,170,9.811
-2,84,9.812
-2,-5,9.813
0,-67,9.814
1,-61,9.815
0,3,9.816
1,61,9.817
7,96,9.818
12,149,9.819
11,252,9.82
4,363,9.821
-1,403,9.822
-2,308,9.823
-2,75,9.824
-11,-222,9.825
-22,-458,9.826
-23,-528,9.827
-11,-422,9.828
3,-224,9.829
12,-34,9.83
18,87,9.831
24,116,9.832
27,54,9.833
23,-86,9.834
13,-212,9.835
0,-208,9.836
-10,-51,9.837
-14,159,9.838
-6,284,9.839
5,284,9.84
8,212,9.841
1,118,9.842
-5,-1,9.843
-6,-153,9.844
-5,-281,9.845
-4,-302,9.846
4,-177,9.847
17,44,9.848
24,249,9.849
20,334,9.85
9,275,9.851
-1,153,9.852
-4,73,9.853
-6,61,9.854
-3,54,9.855
-3,-34,9.856
-2,-194,9.857
1,-319,9.858
9,-334,9.859
13,-257,9.86
0,-146,9.861
-16,-26,9.862
-20,94,9.863
-7,205,9.864
7,307,9.865
11,397,9.866
6,406,9.867
0,243,9.868
-5,-53,9.869
-7,-295,9.87
2,-339,9.871
20,-237,9.872
36,-126,9.873
38,-40,9.874
30,37,9.875
13,96,9.876
-6,93,9.877
-17,27,9.878
-14,-61,9.879
-4,-128,9.88
0,-131,9.881
-3,-62,9.882
-5,13,9.883
-3,-3,9.884
-3,-119,9.885
-3,-234,9.886
-5,-238,9.887
-11,-120,9.888
-21,45,9.889
-27,174,9.89
-18,238,9.891
4,253,9.892
26,238,9.893
40,184,9.894
43,114,9.895
33,108,9.896
18,207,9.897
6,337,9.898
1,337,9.899
-4,155,9.9
-12,-85,9.901
-15,-258,9.902
-10,-367,9.903
-5,-461,9.904
-5,-492,9.905
-7,-397,9.906
-6,-245,9.907
0,-147,9.908
9,-77,9.909
