Deltoid,Bicep,Time
87.0,12.0,0.0
67.0,8.0,0.001
31.0,7.0,0.002
-2.0,5.0,0.003
-15.0,3.0,0.004
-16.0,1.0,0.005
-16.0,-2.0,0.006
-14.0,-5.0,0.007
-3.0,-6.0,0.008
6.0,0.0,0.009
1.0,4.0,0.01
-11.0,5.0,0.011
-9.0,6.0,0.012
9.0,13.0,0.013
21.0,21.0,0.014
18.0,19.0,0.015
9.0,11.0,0.016
8.0,6.0,0.017
13.0,4.0,0.018
21.0,2.0,0.019
26.0,-1.0,0.02
23.0,-5.0,0.021
18.0,-7.0,0.022
11.0,-1.0,0.023
1.0,4.0,0.024
-13.0,4.0,0.025
-28.0,2.0,0.026
-41.0,-5.0,0.027
-51.0,-11.0,0.028
-51.0,-9.0,0.029
-53.0,-7.0,0.03
-57.0,-1.0,0.031
-57.0,2.0,0.032
-42.0,-3.0,0.033
-28.0,-6.0,0.034
-15.0,-3.0,0.035
-4.0,-2.0,0.036
-1.0,-7.0,0.037
3.0,-10.0,0.038
9.0,-5.0,0.039
13.0,5.0,0.04
21.0,10.0,0.041
37.0,10.0,0.042
52.0,9.0,0.043
54.0,7.0,0.044
42.0,7.0,0.045
24.0,9.0,0.046
10.0,3.0,0.047
7.0,-9.0,0.048
15.0,-21.0,0.049
25.0,-20.0,0.05
25.0,-11.0,0.051
9.0,-2.0,0.052
-8.0,1.0,0.053
-9.0,3.0,0.054
1.0,3.0,0.055
7.0,-1.0,0.056
5.0,-7.0,0.057
2.0,-15.0,0.058
5.0,-19.0,0.059
7.0,-20.0,0.06
5.0,-13.0,0.061
0.0,1.0,0.062
-2.0,14.0,0.063
-10.0,19.0,0.064
-26.0,14.0,0.065
-38.0,10.0,0.066
-36.0,9.0,0.067
-29.0,8.0,0.068
-28.0,4.0,0.069
-32.0,3.0,0.07
-30.0,3.0,0.071
-23.0,0.0,0.072
-14.0,-5.0,0.073
-3.0,-10.0,0.074
11.0,-13.0,0.075
24.0,-12.0,0.076
26.0,-9.0,0.077
20.0,-8.0,0.078
18.0,-6.0,0.079
19.0,-7.0,0.08
22.0,-17.0,0.081
24.0,-22.0,0.082
28.0,-19.0,0.083
37.0,-10.0,0.084
43.0,0.0,0.085
38.0,8.0,0.086
23.0,10.0,0.087
4.0,8.0,0.088
-13.0,4.0,0.089
-23.0,0.0,0.09
-23.0,-2.0,0.091
-20.0,-2.0,0.092
-21.0,2.0,0.093
-27.0,4.0,0.094
-31.0,-2.0,0.095
-29.0,-9.0,0.096
-25.0,-13.0,0.097
-11.0,-12.0,0.098
21.0,-10.0,0.099
49.0,-9.0,0.1
67.0,-12.0,0.101
80.0,-14.0,0.102
72.0,-10.0,0.103
60.0,-5.0,0.104
40.0,4.0,0.105
20.0,8.0,0.106
0.0,-4.0,0.107
-15.0,-13.0,0.108
-11.0,-7.0,0.109
-12.0,-3.0,0.11
-29.0,-3.0,0.111
-38.0,0.0,0.112
-22.0,6.0,0.113
-5.0,12.0,0.114
9.0,12.0,0.115
22.0,14.0,0.116
27.0,20.0,0.117
29.0,26.0,0.118
16.0,24.0,0.119
2.0,15.0,0.12
-3.0,8.0,0.121
-1.0,7.0,0.122
-1.0,6.0,0.123
-4.0,8.0,0.124
-12.0,13.0,0.125
-18.0,15.0,0.126
-17.0,11.0,0.127
-13.0,9.0,0.128
-15.0,10.0,0.129
-26.0,7.0,0.13
-30.0,-1.0,0.131
-21.0,-5.0,0.132
-8.0,1.0,0.133
-1.0,8.0,0.134
3.0,5.0,0.135
14.0,0.0,0.136
27.0,1.0,0.137
32.0,0.0,0.138
34.0,-3.0,0.139
32.0,-7.0,0.14
29.0,-6.0,0.141
20.0,-1.0,0.142
5.0,-2.0,0.143
-12.0,-7.0,0.144
-22.0,-10.0,0.145
-23.0,-11.0,0.146
-19.0,-10.0,0.147
-23.0,-6.0,0.148
-40.0,-3.0,0.149
-54.0,-6.0,0.15
-47.0,-14.0,0.151
-14.0,-18.0,0.152
19.0,-12.0,0.153
35.0,-1.0,0.154
33.0,4.0,0.155
27.0,8.0,0.156
20.0,15.0,0.157
6.0,25.0,0.158
-9.0,26.0,0.159
-8.0,18.0,0.16
6.0,8.0,0.161
22.0,8.0,0.162
29.0,12.0,0.163
32.0,15.0,0.164
27.0,14.0,0.165
16.0,11.0,0.166
3.0,5.0,0.167
-2.0,-4.0,0.168
-8.0,-11.0,0.169
-26.0,-13.0,0.17
-42.0,-16.0,0.171
-38.0,-17.0,0.172
-21.0,-13.0,0.173
-9.0,-8.0,0.174
-3.0,-6.0,0.175
6.0,-9.0,0.176
19.0,-8.0,0.177
50.0,-1.0,0.178
66.0,5.0,0.179
78.0,17.0,0.18
72.0,26.0,0.181
41.0,30.0,0.182
10.0,20.0,0.183
0.0,6.0,0.184
0.0,3.0,0.185
-10.0,16.0,0.186
-32.0,29.0,0.187
-48.0,27.0,0.188
-53.0,9.0,0.189
-51.0,-8.0,0.19
-39.0,-15.0,0.191
-10.0,-15.0,0.192
20.0,-16.0,0.193
31.0,-19.0,0.194
26.0,-16.0,0.195
28.0,-6.0,0.196
38.0,2.0,0.197
32.0,1.0,0.198
12.0,-5.0,0.199
1.0,-9.0,0.2
12.0,-12.0,0.201
21.0,-10.0,0.202
12.0,-5.0,0.203
-4.0,-5.0,0.204
-15.0,-6.0,0.205
-25.0,-5.0,0.206
-43.0,-1.0,0.207
-54.0,-3.0,0.208
-49.0,-10.0,0.209
-37.0,-18.0,0.21
-31.0,-19.0,0.211
-26.0,-11.0,0.212
-15.0,-4.0,0.213
0.0,-2.0,0.214
11.0,-3.0,0.215
17.0,-4.0,0.216
27.0,0.0,0.217
34.0,3.0,0.218
31.0,2.0,0.219
17.0,-4.0,0.22
5.0,-12.0,0.221
12.0,-10.0,0.222
31.0,-6.0,0.223
42.0,-3.0,0.224
39.0,0.0,0.225
30.0,9.0,0.226
20.0,19.0,0.227
3.0,24.0,0.228
-22.0,20.0,0.229
-41.0,13.0,0.23
-37.0,11.0,0.231
-23.0,14.0,0.232
-13.0,19.0,0.233
-6.0,17.0,0.234
6.0,8.0,0.235
20.0,-1.0,0.236
24.0,-1.0,0.237
18.0,6.0,0.238
11.0,12.0,0.239
8.0,15.0,0.24
8.0,15.0,0.241
11.0,20.0,0.242
14.0,25.0,0.243
10.0,26.0,0.244
-1.0,23.0,0.245
-5.0,20.0,0.246
6.0,19.0,0.247
16.0,20.0,0.248
6.0,20.0,0.249
-11.0,15.0,0.25
-15.0,4.0,0.251
-7.0,-6.0,0.252
-6.0,-10.0,0.253
-10.0,-10.0,0.254
-2.0,-12.0,0.255
15.0,-16.0,0.256
21.0,-17.0,0.257
17.0,-11.0,0.258
22.0,-3.0,0.259
35.0,0.0,0.26
37.0,-4.0,0.261
24.0,-7.0,0.262
16.0,-7.0,0.263
17.0,-7.0,0.264
15.0,-9.0,0.265
0.0,-10.0,0.266
-14.0,-9.0,0.267
-20.0,-5.0,0.268
-21.0,0.0,0.269
-24.0,1.0,0.27
-24.0,0.0,0.271
-19.0,-3.0,0.272
-11.0,-9.0,0.273
-3.0,-15.0,0.274
2.0,-21.0,0.275
9.0,-23.0,0.276
14.0,-21.0,0.277
17.0,-23.0,0.278
21.0,-26.0,0.279
27.0,-25.0,0.28
33.0,-22.0,0.281
38.0,-11.0,0.282
34.0,-4.0,0.283
23.0,-1.0,0.284
8.0,1.0,0.285
-4.0,6.0,0.286
-11.0,10.0,0.287
-15.0,11.0,0.288
-19.0,12.0,0.289
-22.0,17.0,0.29
-26.0,24.0,0.291
-22.0,23.0,0.292
-9.0,13.0,0.293
1.0,6.0,0.294
7.0,-1.0,0.295
13.0,-9.0,0.296
22.0,-14.0,0.297
30.0,-18.0,0.298
32.0,-19.0,0.299
28.0,-20.0,0.3
24.0,-25.0,0.301
18.0,-24.0,0.302
10.0,-18.0,0.303
3.0,-12.0,0.304
-5.0,-9.0,0.305
-14.0,-9.0,0.306
-20.0,-9.0,0.307
-20.0,-9.0,0.308
-18.0,-11.0,0.309
-18.0,-12.0,0.31
-18.0,-11.0,0.311
-13.0,-10.0,0.312
-3.0,-10.0,0.313
4.0,-8.0,0.314
11.0,-5.0,0.315
18.0,-1.0,0.316
25.0,6.0,0.317
25.0,8.0,0.318
23.0,9.0,0.319
18.0,6.0,0.32
10.0,-1.0,0.321
0.0,-3.0,0.322
-7.0,-1.0,0.323
-15.0,0.0,0.324
-25.0,2.0,0.325
-35.0,4.0,0.326
-44.0,7.0,0.327
-50.0,9.0,0.328
-54.0,9.0,0.329
-59.0,8.0,0.33
-63.0,10.0,0.331
-59.0,12.0,0.332
-45.0,13.0,0.333
-22.0,12.0,0.334
-1.0,8.0,0.335
14.0,7.0,0.336
21.0,8.0,0.337
28.0,12.0,0.338
34.0,20.0,0.339
35.0,25.0,0.34
34.0,18.0,0.341
34.0,11.0,0.342
35.0,7.0,0.343
27.0,5.0,0.344
6.0,-5.0,0.345
-8.0,-18.0,0.346
-5.0,-24.0,0.347
5.0,-21.0,0.348
7.0,-15.0,0.349
2.0,-7.0,0.35
3.0,9.0,0.351
15.0,25.0,0.352
24.0,27.0,0.353
31.0,16.0,0.354
35.0,1.0,0.355
39.0,-7.0,0.356
37.0,-9.0,0.357
27.0,-10.0,0.358
19.0,-6.0,0.359
16.0,-1.0,0.36
16.0,-2.0,0.361
18.0,-3.0,0.362
25.0,-2.0,0.363
30.0,4.0,0.364
22.0,11.0,0.365
-2.0,12.0,0.366
-26.0,7.0,0.367
-32.0,-2.0,0.368
-22.0,-10.0,0.369
-10.0,-13.0,0.37
-5.0,-9.0,0.371
-3.0,-2.0,0.372
-1.0,1.0,0.373
0.0,-3.0,0.374
0.0,-7.0,0.375
-4.0,-8.0,0.376
-3.0,-5.0,0.377
-2.0,-6.0,0.378
0.0,-6.0,0.379
-4.0,-4.0,0.38
-15.0,-2.0,0.381
-23.0,-1.0,0.382
-21.0,-3.0,0.383
-18.0,-3.0,0.384
-18.0,0.0,0.385
-24.0,4.0,0.386
-26.0,6.0,0.387
-23.0,7.0,0.388
-25.0,7.0,0.389
-34.0,2.0,0.39
-33.0,-9.0,0.391
-10.0,-16.0,0.392
24.0,-12.0,0.393
42.0,-2.0,0.394
35.0,7.0,0.395
16.0,11.0,0.396
0.0,7.0,0.397
-7.0,-5.0,0.398
-3.0,-20.0,0.399
12.0,-26.0,0.4
35.0,-21.0,0.401
59.0,-9.0,0.402
76.0,3.0,0.403
77.0,12.0,0.404
61.0,19.0,0.405
32.0,22.0,0.406
1.0,21.0,0.407
-22.0,15.0,0.408
-39.0,7.0,0.409
-52.0,0.0,0.41
-56.0,-4.0,0.411
-50.0,-3.0,0.412
-36.0,-2.0,0.413
-20.0,-4.0,0.414
-6.0,-5.0,0.415
0.0,1.0,0.416
5.0,10.0,0.417
10.0,10.0,0.418
14.0,2.0,0.419
11.0,-4.0,0.42
-5.0,-6.0,0.421
-22.0,0.0,0.422
-24.0,10.0,0.423
-8.0,19.0,0.424
10.0,23.0,0.425
19.0,18.0,0.426
24.0,7.0,0.427
31.0,2.0,0.428
32.0,7.0,0.429
16.0,14.0,0.43
-3.0,13.0,0.431
-6.0,7.0,0.432
6.0,4.0,0.433
13.0,4.0,0.434
7.0,-6.0,0.435
2.0,-21.0,0.436
8.0,-27.0,0.437
14.0,-23.0,0.438
6.0,-16.0,0.439
-5.0,-16.0,0.44
-4.0,-22.0,0.441
8.0,-23.0,0.442
16.0,-24.0,0.443
14.0,-26.0,0.444
11.0,-25.0,0.445
9.0,-23.0,0.446
0.0,-22.0,0.447
-9.0,-21.0,0.448
-11.0,-14.0,0.449
-7.0,-2.0,0.45
-7.0,11.0,0.451
-10.0,21.0,0.452
0.0,24.0,0.453
23.0,19.0,0.454
46.0,13.0,0.455
55.0,12.0,0.456
54.0,17.0,0.457
48.0,15.0,0.458
41.0,9.0,0.459
28.0,4.0,0.46
14.0,4.0,0.461
3.0,8.0,0.462
1.0,7.0,0.463
2.0,5.0,0.464
-2.0,8.0,0.465
-9.0,8.0,0.466
-15.0,0.0,0.467
-17.0,-10.0,0.468
-20.0,-13.0,0.469
-21.0,-7.0,0.47
-17.0,1.0,0.471
-9.0,4.0,0.472
-4.0,5.0,0.473
-3.0,3.0,0.474
1.0,2.0,0.475
13.0,2.0,0.476
23.0,3.0,0.477
30.0,-4.0,0.478
33.0,-12.0,0.479
34.0,-15.0,0.48
29.0,-13.0,0.481
21.0,-9.0,0.482
11.0,-10.0,0.483
1.0,-11.0,0.484
-12.0,-5.0,0.485
-30.0,7.0,0.486
-46.0,10.0,0.487
-55.0,1.0,0.488
-60.0,-8.0,0.489
-65.0,-9.0,0.49
-67.0,-3.0,0.491
-59.0,-1.0,0.492
-44.0,-3.0,0.493
-25.0,-5.0,0.494
-8.0,-4.0,0.495
5.0,2.0,0.496
17.0,10.0,0.497
21.0,15.0,0.498
21.0,17.0,0.499
14.0,17.0,0.5
6.0,14.0,0.501
3.0,15.0,0.502
3.0,16.0,0.503
0.0,16.0,0.504
-9.0,13.0,0.505
-18.0,7.0,0.506
-16.0,-1.0,0.507
-9.0,-6.0,0.508
0.0,-6.0,0.509
12.0,-5.0,0.51
23.0,-8.0,0.511
32.0,-16.0,0.512
33.0,-21.0,0.513
30.0,-19.0,0.514
29.0,-15.0,0.515
34.0,-12.0,0.516
45.0,-8.0,0.517
53.0,-2.0,0.518
53.0,0.0,0.519
45.0,-4.0,0.52
40.0,-16.0,0.521
37.0,-18.0,0.522
31.0,-13.0,0.523
19.0,-7.0,0.524
7.0,-3.0,0.525
1.0,-1.0,0.526
-2.0,-1.0,0.527
-12.0,-8.0,0.528
-23.0,-18.0,0.529
-24.0,-19.0,0.53
-17.0,-9.0,0.531
-8.0,0.0,0.532
-1.0,3.0,0.533
12.0,4.0,0.534
26.0,6.0,0.535
33.0,7.0,0.536
29.0,3.0,0.537
20.0,-6.0,0.538
11.0,-9.0,0.539
-1.0,-4.0,0.54
-14.0,-2.0,0.541
-20.0,-3.0,0.542
-13.0,-9.0,0.543
-3.0,-11.0,0.544
0.0,-7.0,0.545
-4.0,-1.0,0.546
-9.0,3.0,0.547
-13.0,10.0,0.548
-16.0,16.0,0.549
-18.0,23.0,0.55
-19.0,25.0,0.551
-12.0,29.0,0.552
0.0,35.0,0.553
14.0,42.0,0.554
21.0,45.0,0.555
17.0,46.0,0.556
6.0,44.0,0.557
-4.0,37.0,0.558
-4.0,29.0,0.559
-3.0,21.0,0.56
-1.0,11.0,0.561
-1.0,7.0,0.562
-7.0,2.0,0.563
-18.0,-3.0,0.564
-40.0,-8.0,0.565
-56.0,-11.0,0.566
-48.0,-11.0,0.567
-37.0,-11.0,0.568
-23.0,-14.0,0.569
-9.0,-19.0,0.57
5.0,-22.0,0.571
17.0,-23.0,0.572
19.0,-22.0,0.573
21.0,-18.0,0.574
21.0,-14.0,0.575
22.0,-8.0,0.576
27.0,-2.0,0.577
30.0,2.0,0.578
25.0,5.0,0.579
25.0,1.0,0.58
29.0,-7.0,0.581
30.0,-13.0,0.582
24.0,-19.0,0.583
15.0,-25.0,0.584
2.0,-27.0,0.585
-9.0,-27.0,0.586
-17.0,-23.0,0.587
-18.0,-26.0,0.588
-16.0,-30.0,0.589
-17.0,-24.0,0.59
-20.0,-14.0,0.591
-20.0,-8.0,0.592
-15.0,-9.0,0.593
-3.0,-8.0,0.594
9.0,-1.0,0.595
18.0,8.0,0.596
26.0,14.0,0.597
32.0,13.0,0.598
33.0,13.0,0.599
28.0,16.0,0.6
20.0,17.0,0.601
17.0,20.0,0.602
16.0,20.0,0.603
16.0,17.0,0.604
15.0,14.0,0.605
12.0,12.0,0.606
5.0,11.0,0.607
-7.0,9.0,0.608
-22.0,6.0,0.609
-30.0,4.0,0.61
-30.0,0.0,0.611
-26.0,-5.0,0.612
-21.0,-6.0,0.613
-16.0,-3.0,0.614
-6.0,0.0,0.615
0.0,0.0,0.616
3.0,1.0,0.617
8.0,3.0,0.618
17.0,3.0,0.619
25.0,1.0,0.62
29.0,-7.0,0.621
32.0,-13.0,0.622
41.0,-18.0,0.623
44.0,-18.0,0.624
30.0,-14.0,0.625
11.0,-10.0,0.626
4.0,-8.0,0.627
5.0,-6.0,0.628
-4.0,0.0,0.629
-17.0,6.0,0.63
-15.0,10.0,0.631
-4.0,10.0,0.632
-2.0,10.0,0.633
-6.0,10.0,0.634
-2.0,9.0,0.635
4.0,10.0,0.636
3.0,16.0,0.637
-4.0,18.0,0.638
2.0,16.0,0.639
18.0,12.0,0.64
25.0,10.0,0.641
18.0,10.0,0.642
11.0,9.0,0.643
6.0,8.0,0.644
-8.0,9.0,0.645
-29.0,9.0,0.646
-41.0,6.0,0.647
-40.0,2.0,0.648
-42.0,1.0,0.649
-50.0,0.0,0.65
-54.0,0.0,0.651
-41.0,3.0,0.652
-16.0,10.0,0.653
10.0,14.0,0.654
33.0,15.0,0.655
46.0,13.0,0.656
48.0,10.0,0.657
43.0,4.0,0.658
46.0,-2.0,0.659
49.0,-5.0,0.66
45.0,-9.0,0.661
34.0,-12.0,0.662
22.0,-14.0,0.663
14.0,-12.0,0.664
-1.0,-10.0,0.665
-17.0,-16.0,0.666
-23.0,-28.0,0.667
-22.0,-34.0,0.668
-26.0,-29.0,0.669
-40.0,-18.0,0.67
-50.0,-11.0,0.671
-48.0,-9.0,0.672
-37.0,-5.0,0.673
-22.0,5.0,0.674
2.0,16.0,0.675
40.0,19.0,0.676
72.0,14.0,0.677
83.0,6.0,0.678
73.0,1.0,0.679
55.0,-1.0,0.68
42.0,-7.0,0.681
39.0,-6.0,0.682
41.0,2.0,0.683
43.0,12.0,0.684
38.0,17.0,0.685
26.0,15.0,0.686
12.0,9.0,0.687
-8.0,4.0,0.688
-30.0,2.0,0.689
-46.0,1.0,0.69
-44.0,0.0,0.691
-35.0,-4.0,0.692
-28.0,-6.0,0.693
-23.0,-7.0,0.694
-11.0,-7.0,0.695
4.0,-10.0,0.696
13.0,-11.0,0.697
12.0,-12.0,0.698
10.0,-9.0,0.699
12.0,-2.0,0.7
13.0,1.0,0.701
9.0,6.0,0.702
3.0,5.0,0.703
-3.0,2.0,0.704
-13.0,4.0,0.705
-25.0,8.0,0.706
-32.0,13.0,0.707
-32.0,14.0,0.708
-31.0,13.0,0.709
-30.0,12.0,0.71
-25.0,14.0,0.711
-14.0,24.0,0.712
-2.0,35.0,0.713
8.0,33.0,0.714
15.0,18.0,0.715
19.0,-1.0,0.716
20.0,-10.0,0.717
18.0,-13.0,0.718
18.0,-13.0,0.719
18.0,-11.0,0.72
12.0,-15.0,0.721
0.0,-18.0,0.722
-11.0,-22.0,0.723
-21.0,-21.0,0.724
-34.0,-13.0,0.725
-49.0,-7.0,0.726
-56.0,-7.0,0.727
-51.0,-8.0,0.728
-37.0,-6.0,0.729
-19.0,0.0,0.73
0.0,1.0,0.731
16.0,-1.0,0.732
27.0,0.0,0.733
35.0,3.0,0.734
40.0,3.0,0.735
42.0,-2.0,0.736
37.0,-4.0,0.737
31.0,-7.0,0.738
32.0,-9.0,0.739
34.0,-13.0,0.74
28.0,-17.0,0.741
15.0,-17.0,0.742
4.0,-13.0,0.743
-2.0,-9.0,0.744
-7.0,-6.0,0.745
-13.0,-5.0,0.746
-16.0,-6.0,0.747
-18.0,-7.0,0.748
-21.0,-2.0,0.749
-26.0,7.0,0.75
-26.0,12.0,0.751
-19.0,11.0,0.752
-10.0,6.0,0.753
-4.0,0.0,0.754
-3.0,-5.0,0.755
-5.0,-8.0,0.756
-3.0,-4.0,0.757
3.0,-4.0,0.758
16.0,-10.0,0.759
20.0,-17.0,0.76
20.0,-20.0,0.761
20.0,-10.0,0.762
24.0,-2.0,0.763
26.0,3.0,0.764
18.0,5.0,0.765
-1.0,7.0,0.766
-17.0,5.0,0.767
-26.0,3.0,0.768
-32.0,9.0,0.769
-38.0,18.0,0.77
-37.0,25.0,0.771
-23.0,23.0,0.772
-5.0,18.0,0.773
11.0,11.0,0.774
21.0,8.0,0.775
31.0,8.0,0.776
41.0,11.0,0.777
44.0,9.0,0.778
47.0,1.0,0.779
50.0,-8.0,0.78
50.0,-16.0,0.781
45.0,-22.0,0.782
26.0,-23.0,0.783
11.0,-21.0,0.784
12.0,-10.0,0.785
10.0,0.0,0.786
-3.0,6.0,0.787
-16.0,12.0,0.788
-21.0,14.0,0.789
-27.0,18.0,0.79
-31.0,23.0,0.791
-35.0,25.0,0.792
-34.0,16.0,0.793
-32.0,7.0,0.794
-26.0,-1.0,0.795
-22.0,-7.0,0.796
-23.0,-4.0,0.797
-23.0,0.0,0.798
-24.0,-2.0,0.799
-22.0,-10.0,0.8
-16.0,-16.0,0.801
-9.0,-12.0,0.802
-7.0,-6.0,0.803
-8.0,-4.0,0.804
-10.0,-5.0,0.805
-10.0,-1.0,0.806
-12.0,3.0,0.807
-18.0,3.0,0.808
-22.0,1.0,0.809
-21.0,3.0,0.81
-15.0,9.0,0.811
-4.0,10.0,0.812
12.0,7.0,0.813
30.0,7.0,0.814
42.0,10.0,0.815
45.0,6.0,0.816
41.0,-2.0,0.817
38.0,-13.0,0.818
40.0,-23.0,0.819
44.0,-31.0,0.82
47.0,-39.0,0.821
55.0,-40.0,0.822
63.0,-36.0,0.823
63.0,-28.0,0.824
48.0,-15.0,0.825
21.0,0.0,0.826
-5.0,13.0,0.827
-18.0,17.0,0.828
-19.0,15.0,0.829
-14.0,15.0,0.83
-5.0,17.0,0.831
13.0,17.0,0.832
39.0,16.0,0.833
66.0,20.0,0.834
74.0,29.0,0.835
54.0,29.0,0.836
32.0,18.0,0.837
23.0,0.0,0.838
27.0,-12.0,0.839
23.0,-14.0,0.84
11.0,-18.0,0.841
4.0,-22.0,0.842
7.0,-22.0,0.843
3.0,-17.0,0.844
-15.0,-10.0,0.845
-34.0,-6.0,0.846
-48.0,-2.0,0.847
-65.0,-2.0,0.848
-89.0,-4.0,0.849
-107.0,-4.0,0.85
-99.0,-5.0,0.851
-64.0,-8.0,0.852
-15.0,-13.0,0.853
35.0,-15.0,0.854
74.0,-7.0,0.855
89.0,4.0,0.856
86.0,16.0,0.857
70.0,22.0,0.858
47.0,24.0,0.859
23.0,18.0,0.86
10.0,2.0,0.861
13.0,-6.0,0.862
17.0,-5.0,0.863
6.0,-3.0,0.864
-17.0,-6.0,0.865
-40.0,-5.0,0.866
-57.0,0.0,0.867
-72.0,9.0,0.868
-81.0,9.0,0.869
-70.0,0.0,0.87
-42.0,-8.0,0.871
-13.0,-13.0,0.872
8.0,-15.0,0.873
26.0,-17.0,0.874
43.0,-15.0,0.875
53.0,-10.0,0.876
59.0,-4.0,0.877
57.0,-3.0,0.878
53.0,-4.0,0.879
45.0,-6.0,0.88
36.0,-9.0,0.881
33.0,-9.0,0.882
32.0,-7.0,0.883
18.0,-6.0,0.884
-11.0,-4.0,0.885
-38.0,-1.0,0.886
-48.0,-1.0,0.887
-46.0,-5.0,0.888
-44.0,-7.0,0.889
-46.0,-6.0,0.89
-42.0,-7.0,0.891
-26.0,-11.0,0.892
-3.0,-13.0,0.893
23.0,-12.0,0.894
42.0,-10.0,0.895
50.0,-8.0,0.896
47.0,-3.0,0.897
33.0,1.0,0.898
19.0,6.0,0.899
6.0,11.0,0.9
-7.0,13.0,0.901
-16.0,17.0,0.902
-9.0,17.0,0.903
1.0,15.0,0.904
17.0,19.0,0.905
29.0,32.0,0.906
30.0,46.0,0.907
25.0,52.0,0.908
2.0,45.0,0.909
-15.0,30.0,0.91
-19.0,15.0,0.911
-20.0,10.0,0.912
-14.0,8.0,0.913
-8.0,2.0,0.914
-4.0,-9.0,0.915
-1.0,-21.0,0.916
-2.0,-27.0,0.917
-4.0,-32.0,0.918
-8.0,-37.0,0.919
-3.0,-40.0,0.92
-2.0,-38.0,0.921
-11.0,-27.0,0.922
-19.0,-14.0,0.923
-17.0,-2.0,0.924
-14.0,5.0,0.925
-19.0,7.0,0.926
-21.0,6.0,0.927
-15.0,4.0,0.928
-12.0,4.0,0.929
-22.0,3.0,0.93
-31.0,1.0,0.931
-23.0,-2.0,0.932
-8.0,-8.0,0.933
-6.0,-15.0,0.934
-11.0,-21.0,0.935
1.0,-22.0,0.936
22.0,-21.0,0.937
31.0,-22.0,0.938
28.0,-23.0,0.939
27.0,-24.0,0.94
35.0,-21.0,0.941
38.0,-16.0,0.942
28.0,-5.0,0.943
16.0,4.0,0.944
0.0,4.0,0.945
-14.0,2.0,0.946
-24.0,0.0,0.947
-29.0,0.0,0.948
-16.0,4.0,0.949
-6.0,9.0,0.95
-10.0,16.0,0.951
-13.0,22.0,0.952
-11.0,22.0,0.953
-10.0,23.0,0.954
-9.0,25.0,0.955
-4.0,27.0,0.956
13.0,25.0,0.957
34.0,23.0,0.958
58.0,23.0,0.959
67.0,20.0,0.96
57.0,11.0,0.961
35.0,7.0,0.962
14.0,10.0,0.963
0.0,19.0,0.964
-12.0,29.0,0.965
-30.0,30.0,0.966
-50.0,20.0,0.967
-57.0,9.0,0.968
-43.0,3.0,0.969
-16.0,3.0,0.97
15.0,2.0,0.971
43.0,1.0,0.972
64.0,5.0,0.973
74.0,13.0,0.974
70.0,17.0,0.975
55.0,19.0,0.976
37.0,22.0,0.977
16.0,24.0,0.978
2.0,18.0,0.979
-9.0,11.0,0.98
-9.0,0.0,0.981
-10.0,-10.0,0.982
-12.0,-14.0,0.983
-14.0,-18.0,0.984
-18.0,-17.0,0.985
-22.0,-15.0,0.986
-27.0,-12.0,0.987
-33.0,-9.0,0.988
-42.0,-10.0,0.989
-48.0,-13.0,0.99
-44.0,-22.0,0.991
-38.0,-27.0,0.992
-28.0,-18.0,0.993
-18.0,-11.0,0.994
-10.0,-11.0,0.995
-2.0,-10.0,0.996
7.0,-10.0,0.997
17.0,-8.0,0.998
24.0,-10.0,0.999
32.0,-17.0,1.0
39.0,-19.0,1.001
42.0,-9.0,1.002
39.0,-3.0,1.003
34.0,-7.0,1.004
25.0,-14.0,1.005
11.0,-18.0,1.006
-1.0,-18.0,1.007
-7.0,-17.0,1.008
-11.0,-14.0,1.009
-16.0,-10.0,1.01
-21.0,-10.0,1.011
-24.0,-9.0,1.012
-16.0,-4.0,1.013
-5.0,4.0,1.014
6.0,5.0,1.015
15.0,5.0,1.016
24.0,8.0,1.017
27.0,9.0,1.018
24.0,4.0,1.019
21.0,0.0,1.02
17.0,0.0,1.021
14.0,-2.0,1.022
16.0,-8.0,1.023
17.0,-14.0,1.024
11.0,-14.0,1.025
7.0,-12.0,1.026
9.0,-2.0,1.027
7.0,5.0,1.028
-10.0,6.0,1.029
-24.0,7.0,1.03
-26.0,5.0,1.031
-29.0,5.0,1.032
-29.0,13.0,1.033
-24.0,17.0,1.034
-8.0,10.0,1.035
7.0,5.0,1.036
16.0,10.0,1.037
25.0,19.0,1.038
30.0,29.0,1.039
28.0,26.0,1.04
20.0,18.0,1.041
10.0,20.0,1.042
4.0,26.0,1.043
-3.0,23.0,1.044
-17.0,13.0,1.045
-30.0,6.0,1.046
-36.0,-1.0,1.047
-38.0,-8.0,1.048
-46.0,-10.0,1.049
-55.0,-11.0,1.05
-54.0,-12.0,1.051
-39.0,-12.0,1.052
-16.0,-9.0,1.053
11.0,-2.0,1.054
38.0,3.0,1.055
57.0,6.0,1.056
66.0,8.0,1.057
59.0,7.0,1.058
44.0,8.0,1.059
28.0,5.0,1.06
10.0,-5.0,1.061
-4.0,-14.0,1.062
-6.0,-16.0,1.063
-9.0,-7.0,1.064
-7.0,3.0,1.065
-6.0,3.0,1.066
-9.0,-5.0,1.067
-12.0,-12.0,1.068
-15.0,-12.0,1.069
-16.0,-9.0,1.07
-9.0,-10.0,1.071
0.0,-15.0,1.072
17.0,-15.0,1.073
33.0,-9.0,1.074
43.0,0.0,1.075
51.0,3.0,1.076
48.0,5.0,1.077
45.0,7.0,1.078
49.0,5.0,1.079
54.0,-2.0,1.08
55.0,-13.0,1.081
47.0,-15.0,1.082
36.0,-8.0,1.083
26.0,-2.0,1.084
17.0,0.0,1.085
3.0,4.0,1.086
-10.0,9.0,1.087
-20.0,9.0,1.088
-23.0,1.0,1.089
-22.0,-7.0,1.09
-18.0,-14.0,1.091
-12.0,-18.0,1.092
-4.0,-21.0,1.093
3.0,-22.0,1.094
13.0,-18.0,1.095
22.0,-19.0,1.096
29.0,-23.0,1.097
30.0,-29.0,1.098
29.0,-26.0,1.099
25.0,-17.0,1.1
20.0,-10.0,1.101
8.0,-3.0,1.102
-6.0,3.0,1.103
-19.0,6.0,1.104
-32.0,7.0,1.105
-48.0,9.0,1.106
-58.0,9.0,1.107
-56.0,9.0,1.108
-45.0,4.0,1.109
-40.0,8.0,1.11
-42.0,19.0,1.111
-40.0,30.0,1.112
-26.0,29.0,1.113
-8.0,20.0,1.114
10.0,13.0,1.115
26.0,9.0,1.116
43.0,6.0,1.117
0.0,1.0,1.118
0.0,-3.0,1.119
-2.0,-7.0,1.12
-10.0,-11.0,1.121
-18.0,-10.0,1.122
-24.0,-3.0,1.123
-29.0,5.0,1.124
-33.0,9.0,1.125
-35.0,9.0,1.126
-31.0,6.0,1.127
-27.0,-1.0,1.128
-23.0,-4.0,1.129
-19.0,-3.0,1.13
-15.0,3.0,1.131
-8.0,8.0,1.132
7.0,9.0,1.133
23.0,8.0,1.134
41.0,8.0,1.135
55.0,6.0,1.136
61.0,4.0,1.137
3.0,2.0,1.138
3.0,8.0,1.139
0.0,13.0,1.14
-13.0,13.0,1.141
-25.0,14.0,1.142
-33.0,19.0,1.143
-41.0,24.0,1.144
-46.0,28.0,1.145
-50.0,28.0,1.146
-44.0,15.0,1.147
-38.0,3.0,1.148
-32.0,-5.0,1.149
-27.0,-11.0,1.15
-21.0,-9.0,1.151
-11.0,-8.0,1.152
12.0,-8.0,1.153
36.0,-7.0,1.154
61.0,-3.0,1.155
82.0,-1.0,1.156
91.0,-6.0,1.157
99.0,-11.0,1.158
99.0,-16.0,1.159
92.0,-17.0,1.16
79.0,-22.0,1.161
58.0,-25.0,1.162
36.0,-22.0,1.163
27.0,-16.0,1.164
36.0,-12.0,1.165
55.0,-16.0,1.166
63.0,-22.0,1.167
69.0,-22.0,1.168
85.0,-14.0,1.169
106.0,-2.0,1.17
113.0,8.0,1.171
104.0,10.0,1.172
105.0,4.0,1.173
126.0,0.0,1.174
142.0,3.0,1.175
130.0,10.0,1.176
99.0,13.0,1.177
110.0,11.0,1.178
73.0,4.0,1.179
38.0,-2.0,1.18
13.0,-8.0,1.181
-9.0,-11.0,1.182
-22.0,0.0,1.183
-29.0,11.0,1.184
-22.0,19.0,1.185
-14.0,26.0,1.186
-22.0,24.0,1.187
-32.0,22.0,1.188
-44.0,17.0,1.189
-52.0,13.0,1.19
-42.0,12.0,1.191
-29.0,10.0,1.192
-9.0,5.0,1.193
8.0,1.0,1.194
8.0,1.0,1.195
8.0,2.0,1.196
8.0,0.0,1.197
80.0,-1.0,1.198
53.0,2.0,1.199
27.0,7.0,1.2
9.0,5.0,1.201
-7.0,4.0,1.202
-16.0,8.0,1.203
-22.0,14.0,1.204
-16.0,12.0,1.205
-11.0,1.0,1.206
-16.0,-5.0,1.207
-24.0,-4.0,1.208
-33.0,-3.0,1.209
-38.0,-14.0,1.21
-31.0,-26.0,1.211
-22.0,-27.0,1.212
-7.0,-24.0,1.213
5.0,-25.0,1.214
5.0,-31.0,1.215
5.0,-36.0,1.216
5.0,-33.0,1.217
43.0,-30.0,1.218
28.0,-29.0,1.219
14.0,-28.0,1.22
4.0,-30.0,1.221
-5.0,-30.0,1.222
-10.0,-24.0,1.223
-13.0,-18.0,1.224
-10.0,-9.0,1.225
-7.0,1.0,1.226
-10.0,14.0,1.227
-14.0,26.0,1.228
-19.0,33.0,1.229
-22.0,37.0,1.23
-18.0,30.0,1.231
-13.0,23.0,1.232
-5.0,16.0,1.233
2.0,7.0,1.234
2.0,-5.0,1.235
2.0,-16.0,1.236
2.0,-20.0,1.237
1.0,-22.0,1.238
-4.0,-18.0,1.239
-12.0,-18.0,1.24
-22.0,-19.0,1.241
-36.0,-17.0,1.242
-50.0,-14.0,1.243
-58.0,-8.0,1.244
-60.0,0.0,1.245
-58.0,6.0,1.246
-55.0,4.0,1.247
-54.0,-4.0,1.248
-57.0,-4.0,1.249
-65.0,6.0,1.25
-70.0,16.0,1.251
-65.0,19.0,1.252
-51.0,18.0,1.253
-36.0,17.0,1.254
-23.0,12.0,1.255
-15.0,3.0,1.256
-14.0,-4.0,1.257
110.0,-2.0,1.258
114.0,6.0,1.259
120.0,12.0,1.26
132.0,11.0,1.261
141.0,15.0,1.262
136.0,23.0,1.263
128.0,30.0,1.264
106.0,31.0,1.265
85.0,28.0,1.266
69.0,24.0,1.267
54.0,17.0,1.268
47.0,11.0,1.269
40.0,5.0,1.27
34.0,-1.0,1.271
29.0,-9.0,1.272
25.0,-12.0,1.273
21.0,-9.0,1.274
12.0,-5.0,1.275
4.0,0.0,1.276
-1.0,2.0,1.277
114.0,0.0,1.278
118.0,-2.0,1.279
125.0,-4.0,1.28
138.0,0.0,1.281
148.0,4.0,1.282
143.0,4.0,1.283
133.0,2.0,1.284
110.0,-5.0,1.285
87.0,-13.0,1.286
69.0,-21.0,1.287
52.0,-27.0,1.288
44.0,-24.0,1.289
37.0,-19.0,1.29
30.0,-12.0,1.291
24.0,-6.0,1.292
21.0,-2.0,1.293
16.0,3.0,1.294
6.0,8.0,1.295
-2.0,11.0,1.296
-8.0,8.0,1.297
161.0,5.0,1.298
170.0,3.0,1.299
184.0,-2.0,1.3
212.0,-12.0,1.301
231.0,-14.0,1.302
221.0,-7.0,1.303
202.0,1.0,1.304
153.0,7.0,1.305
106.0,13.0,1.306
66.0,18.0,1.307
32.0,16.0,1.308
16.0,11.0,1.309
0.0,3.0,1.31
-13.0,-2.0,1.311
-25.0,-5.0,1.312
-33.0,-6.0,1.313
-43.0,-5.0,1.314
-63.0,-6.0,1.315
-80.0,-9.0,1.316
-92.0,-11.0,1.317
-103.0,-12.0,1.318
-108.0,-7.0,1.319
-92.0,0.0,1.32
-63.0,0.0,1.321
-45.0,-5.0,1.322
-38.0,-10.0,1.323
-27.0,-10.0,1.324
-14.0,-1.0,1.325
-19.0,7.0,1.326
-48.0,7.0,1.327
-80.0,7.0,1.328
-95.0,8.0,1.329
-96.0,8.0,1.33
-91.0,3.0,1.331
-84.0,1.0,1.332
-64.0,10.0,1.333
-32.0,22.0,1.334
0.0,23.0,1.335
18.0,18.0,1.336
26.0,20.0,1.337
-4.0,16.0,1.338
-5.0,1.0,1.339
-6.0,-17.0,1.34
-11.0,-28.0,1.341
-15.0,-24.0,1.342
-20.0,-20.0,1.343
-26.0,-21.0,1.344
-35.0,-16.0,1.345
-41.0,-6.0,1.346
-39.0,-2.0,1.347
-37.0,-6.0,1.348
-35.0,-10.0,1.349
-33.0,-8.0,1.35
-27.0,-3.0,1.351
-20.0,-6.0,1.352
-11.0,-12.0,1.353
-1.0,-18.0,1.354
8.0,-17.0,1.355
19.0,-13.0,1.356
37.0,-9.0,1.357
-5.0,-11.0,1.358
-5.0,-10.0,1.359
-7.0,-7.0,1.36
-11.0,-4.0,1.361
-15.0,-3.0,1.362
-19.0,0.0,1.363
-25.0,10.0,1.364
-34.0,24.0,1.365
-40.0,31.0,1.366
-38.0,32.0,1.367
-36.0,29.0,1.368
-34.0,25.0,1.369
-32.0,18.0,1.37
-26.0,15.0,1.371
-20.0,15.0,1.372
-11.0,13.0,1.373
-2.0,7.0,1.374
7.0,0.0,1.375
17.0,-9.0,1.376
34.0,-17.0,1.377
5.0,-24.0,1.378
4.0,-24.0,1.379
1.0,-23.0,1.38
-7.0,-22.0,1.381
-15.0,-18.0,1.382
-24.0,-8.0,1.383
-35.0,1.0,1.384
-51.0,5.0,1.385
-62.0,7.0,1.386
-59.0,4.0,1.387
-55.0,1.0,1.388
-52.0,-1.0,1.389
-47.0,-1.0,1.39
-37.0,8.0,1.391
-25.0,16.0,1.392
-7.0,12.0,1.393
10.0,7.0,1.394
26.0,0.0,1.395
46.0,-5.0,1.396
78.0,-2.0,1.397
109.0,0.0,1.398
127.0,3.0,1.399
128.0,10.0,1.4
117.0,11.0,1.401
98.0,9.0,1.402
75.0,7.0,1.403
47.0,11.0,1.404
22.0,17.0,1.405
0.0,16.0,1.406
-16.0,4.0,1.407
-26.0,-9.0,1.408
-30.0,-15.0,1.409
-27.0,-15.0,1.41
-19.0,-14.0,1.411
-10.0,-10.0,1.412
-1.0,-5.0,1.413
5.0,-1.0,1.414
7.0,4.0,1.415
4.0,6.0,1.416
8.0,5.0,1.417
-38.0,-4.0,1.418
-40.0,-2.0,1.419
-43.0,-2.0,1.42
-48.0,-6.0,1.421
-53.0,-11.0,1.422
-57.0,-14.0,1.423
-60.0,-16.0,1.424
-68.0,-18.0,1.425
-74.0,-19.0,1.426
-77.0,-24.0,1.427
-78.0,-28.0,1.428
-74.0,-31.0,1.429
-70.0,-34.0,1.43
-67.0,-33.0,1.431
-63.0,-31.0,1.432
-59.0,-24.0,1.433
-56.0,-18.0,1.434
-55.0,-18.0,1.435
-54.0,-16.0,1.436
-50.0,-14.0,1.437
7.0,17.0,1.438
1.0,21.0,1.439
-7.0,21.0,1.44
-24.0,11.0,1.441
-39.0,1.0,1.442
-50.0,-7.0,1.443
-65.0,-13.0,1.444
-89.0,-17.0,1.445
-108.0,-22.0,1.446
-116.0,-33.0,1.447
-119.0,-43.0,1.448
-107.0,-51.0,1.449
-94.0,-57.0,1.45
-84.0,-56.0,1.451
-72.0,-51.0,1.452
-58.0,-34.0,1.453
-47.0,-20.0,1.454
-45.0,-16.0,1.455
-41.0,-12.0,1.456
-31.0,-8.0,1.457
-21.0,-1.0,1.458
-9.0,8.0,1.459
5.0,12.0,1.46
25.0,10.0,1.461
45.0,6.0,1.462
66.0,3.0,1.463
85.0,2.0,1.464
99.0,2.0,1.465
100.0,6.0,1.466
84.0,7.0,1.467
61.0,3.0,1.468
46.0,0.0,1.469
50.0,3.0,1.47
68.0,5.0,1.471
87.0,4.0,1.472
101.0,3.0,1.473
108.0,7.0,1.474
105.0,8.0,1.475
93.0,0.0,1.476
84.0,-7.0,1.477
84.0,-11.0,1.478
94.0,-14.0,1.479
98.0,-21.0,1.48
91.0,-31.0,1.481
79.0,-27.0,1.482
68.0,-13.0,1.483
48.0,0.0,1.484
17.0,7.0,1.485
-16.0,5.0,1.486
-35.0,0.0,1.487
-38.0,-2.0,1.488
-32.0,1.0,1.489
-20.0,7.0,1.49
-5.0,9.0,1.491
5.0,11.0,1.492
8.0,23.0,1.493
4.0,36.0,1.494
-3.0,38.0,1.495
-13.0,24.0,1.496
-18.0,15.0,1.497
100.0,-7.0,1.498
85.0,-7.0,1.499
68.0,-5.0,1.5
48.0,-3.0,1.501
30.0,-1.0,1.502
15.0,3.0,1.503
2.0,4.0,1.504
-11.0,-5.0,1.505
-27.0,-14.0,1.506
-53.0,-18.0,1.507
-72.0,-21.0,1.508
-70.0,-18.0,1.509
-64.0,-14.0,1.51
-50.0,-6.0,1.511
-32.0,1.0,1.512
-9.0,2.0,1.513
9.0,3.0,1.514
16.0,-2.0,1.515
24.0,-7.0,1.516
31.0,-8.0,1.517
68.0,-7.0,1.518
58.0,-7.0,1.519
47.0,-5.0,1.52
33.0,-3.0,1.521
21.0,-1.0,1.522
11.0,3.0,1.523
2.0,4.0,1.524
-7.0,-5.0,1.525
-18.0,-14.0,1.526
-35.0,-18.0,1.527
-48.0,-21.0,1.528
-47.0,-18.0,1.529
-43.0,-14.0,1.53
-33.0,-6.0,1.531
-21.0,1.0,1.532
-6.0,2.0,1.533
7.0,3.0,1.534
12.0,-2.0,1.535
17.0,-7.0,1.536
22.0,-8.0,1.537
29.0,-10.0,1.538
35.0,-14.0,1.539
37.0,-20.0,1.54
35.0,-28.0,1.541
28.0,-29.0,1.542
19.0,-27.0,1.543
17.0,-18.0,1.544
17.0,1.0,1.545
7.0,26.0,1.546
-13.0,35.0,1.547
-32.0,25.0,1.548
-43.0,10.0,1.549
-48.0,5.0,1.55
-48.0,5.0,1.551
-30.0,1.0,1.552
4.0,-1.0,1.553
44.0,2.0,1.554
75.0,6.0,1.555
91.0,2.0,1.556
96.0,-6.0,1.557
91.0,-6.0,1.558
80.0,0.0,1.559
67.0,5.0,1.56
50.0,3.0,1.561
31.0,3.0,1.562
9.0,9.0,1.563
-9.0,15.0,1.564
-13.0,16.0,1.565
-19.0,15.0,1.566
-27.0,6.0,1.567
-32.0,-3.0,1.568
-26.0,-12.0,1.569
-15.0,-19.0,1.57
9.0,-13.0,1.571
26.0,-9.0,1.572
24.0,-12.0,1.573
21.0,-15.0,1.574
15.0,-15.0,1.575
11.0,-15.0,1.576
15.0,-20.0,1.577
24.0,-27.0,1.578
46.0,-39.0,1.579
49.0,-46.0,1.58
37.0,-44.0,1.581
27.0,-26.0,1.582
20.0,0.0,1.583
5.0,28.0,1.584
-17.0,46.0,1.585
-31.0,45.0,1.586
-26.0,29.0,1.587
-16.0,13.0,1.588
-17.0,12.0,1.589
-32.0,17.0,1.59
-49.0,16.0,1.591
-51.0,7.0,1.592
-36.0,3.0,1.593
-21.0,10.0,1.594
-20.0,15.0,1.595
-23.0,11.0,1.596
-17.0,6.0,1.597
16.0,4.0,1.598
16.0,7.0,1.599
13.0,9.0,1.6
6.0,7.0,1.601
-6.0,5.0,1.602
-28.0,-5.0,1.603
-50.0,-15.0,1.604
-69.0,-13.0,1.605
-82.0,-4.0,1.606
-74.0,4.0,1.607
-59.0,5.0,1.608
-24.0,7.0,1.609
0.0,16.0,1.61
-7.0,22.0,1.611
-14.0,19.0,1.612
-14.0,17.0,1.613
-11.0,18.0,1.614
-6.0,17.0,1.615
0.0,11.0,1.616
-3.0,8.0,1.617
20.0,6.0,1.618
20.0,4.0,1.619
17.0,3.0,1.62
10.0,0.0,1.621
-4.0,-3.0,1.622
-29.0,-9.0,1.623
-54.0,-18.0,1.624
-75.0,-16.0,1.625
-91.0,-9.0,1.626
-81.0,-1.0,1.627
-65.0,6.0,1.628
-25.0,15.0,1.629
2.0,15.0,1.63
-6.0,2.0,1.631
-13.0,-11.0,1.632
-13.0,-10.0,1.633
-10.0,1.0,1.634
-4.0,6.0,1.635
2.0,-3.0,1.636
-1.0,-9.0,1.637
7.0,-10.0,1.638
7.0,-16.0,1.639
5.0,-24.0,1.64
0.0,-32.0,1.641
-9.0,-36.0,1.642
-26.0,-25.0,1.643
-42.0,-17.0,1.644
-56.0,-18.0,1.645
-66.0,-20.0,1.646
-60.0,-26.0,1.647
-49.0,-32.0,1.648
-23.0,-31.0,1.649
-5.0,-30.0,1.65
-10.0,-32.0,1.651
-15.0,-32.0,1.652
-15.0,-23.0,1.653
-13.0,-12.0,1.654
-9.0,4.0,1.655
-5.0,16.0,1.656
-7.0,17.0,1.657
-1.0,17.0,1.658
42.0,17.0,1.659
85.0,22.0,1.66
103.0,23.0,1.661
92.0,20.0,1.662
78.0,14.0,1.663
67.0,15.0,1.664
51.0,21.0,1.665
28.0,24.0,1.666
6.0,20.0,1.667
-6.0,20.0,1.668
-12.0,26.0,1.669
-28.0,29.0,1.67
-50.0,21.0,1.671
-56.0,7.0,1.672
-36.0,2.0,1.673
-7.0,11.0,1.674
11.0,20.0,1.675
15.0,22.0,1.676
17.0,15.0,1.677
19.0,1.0,1.678
20.0,-7.0,1.679
22.0,-6.0,1.68
26.0,-6.0,1.681
26.0,-6.0,1.682
15.0,-8.0,1.683
1.0,-4.0,1.684
-16.0,5.0,1.685
-32.0,12.0,1.686
-37.0,13.0,1.687
-41.0,12.0,1.688
-38.0,10.0,1.689
-34.0,6.0,1.69
-31.0,0.0,1.691
-18.0,-5.0,1.692
22.0,-5.0,1.693
53.0,-6.0,1.694
54.0,-6.0,1.695
56.0,-2.0,1.696
61.0,10.0,1.697
63.0,23.0,1.698
42.0,30.0,1.699
14.0,28.0,1.7
5.0,19.0,1.701
12.0,11.0,1.702
15.0,4.0,1.703
15.0,2.0,1.704
10.0,5.0,1.705
-5.0,1.0,1.706
-28.0,-15.0,1.707
-41.0,-37.0,1.708
-37.0,-51.0,1.709
-28.0,-50.0,1.71
-29.0,-47.0,1.711
-28.0,-47.0,1.712
-15.0,-45.0,1.713
3.0,-32.0,1.714
11.0,-20.0,1.715
9.0,-23.0,1.716
11.0,-30.0,1.717
9.0,-37.0,1.718
0.0,-33.0,1.719
-10.0,-28.0,1.72
-20.0,-29.0,1.721
-29.0,-26.0,1.722
-35.0,-18.0,1.723
-40.0,-9.0,1.724
-43.0,0.0,1.725
-44.0,9.0,1.726
-36.0,15.0,1.727
-27.0,22.0,1.728
-17.0,22.0,1.729
-6.0,18.0,1.73
11.0,13.0,1.731
23.0,16.0,1.732
15.0,24.0,1.733
7.0,27.0,1.734
-2.0,15.0,1.735
-2.0,-2.0,1.736
30.0,-13.0,1.737
62.0,-18.0,1.738
80.0,-14.0,1.739
84.0,-5.0,1.74
76.0,5.0,1.741
60.0,11.0,1.742
41.0,10.0,1.743
27.0,7.0,1.744
12.0,9.0,1.745
-4.0,16.0,1.746
-11.0,18.0,1.747
-3.0,16.0,1.748
6.0,16.0,1.749
4.0,18.0,1.75
-1.0,16.0,1.751
6.0,15.0,1.752
22.0,18.0,1.753
27.0,23.0,1.754
23.0,20.0,1.755
22.0,10.0,1.756
33.0,4.0,1.757
41.0,0.0,1.758
46.0,-5.0,1.759
49.0,-11.0,1.76
44.0,-10.0,1.761
37.0,-1.0,1.762
24.0,4.0,1.763
6.0,-3.0,1.764
-23.0,-11.0,1.765
-47.0,-14.0,1.766
-52.0,-17.0,1.767
-51.0,-24.0,1.768
-29.0,-27.0,1.769
-14.0,-21.0,1.77
-19.0,-12.0,1.771
-20.0,-4.0,1.772
-7.0,8.0,1.773
3.0,19.0,1.774
5.0,18.0,1.775
11.0,5.0,1.776
31.0,-3.0,1.777
48.0,-3.0,1.778
48.0,-4.0,1.779
40.0,-10.0,1.78
39.0,-16.0,1.781
37.0,-8.0,1.782
24.0,9.0,1.783
1.0,18.0,1.784
-25.0,14.0,1.785
-48.0,6.0,1.786
-60.0,1.0,1.787
-55.0,-1.0,1.788
-40.0,-1.0,1.789
-33.0,-3.0,1.79
-30.0,-6.0,1.791
-8.0,-4.0,1.792
33.0,5.0,1.793
63.0,14.0,1.794
61.0,11.0,1.795
51.0,0.0,1.796
59.0,-4.0,1.797
66.0,3.0,1.798
54.0,13.0,1.799
37.0,12.0,1.8
11.0,7.0,1.801
-12.0,12.0,1.802
-31.0,14.0,1.803
-49.0,3.0,1.804
-62.0,-12.0,1.805
-75.0,-16.0,1.806
-83.0,-12.0,1.807
-84.0,-10.0,1.808
-58.0,-10.0,1.809
-39.0,-6.0,1.81
-39.0,-6.0,1.811
-37.0,-19.0,1.812
-33.0,-24.0,1.813
-29.0,-10.0,1.814
-26.0,1.0,1.815
-20.0,-8.0,1.816
-6.0,-22.0,1.817
11.0,-22.0,1.818
23.0,-2.0,1.819
22.0,12.0,1.82
18.0,16.0,1.821
18.0,23.0,1.822
23.0,28.0,1.823
37.0,19.0,1.824
54.0,10.0,1.825
56.0,14.0,1.826
40.0,26.0,1.827
16.0,23.0,1.828
-2.0,8.0,1.829
-18.0,-4.0,1.83
-27.0,-9.0,1.831
-24.0,-16.0,1.832
-12.0,-19.0,1.833
-3.0,-13.0,1.834
-3.0,-4.0,1.835
-1.0,-4.0,1.836
12.0,-4.0,1.837
23.0,-1.0,1.838
23.0,4.0,1.839
22.0,7.0,1.84
16.0,-2.0,1.841
8.0,-7.0,1.842
-3.0,1.0,1.843
-17.0,6.0,1.844
-37.0,2.0,1.845
-56.0,-2.0,1.846
-71.0,-6.0,1.847
-76.0,-10.0,1.848
-50.0,-12.0,1.849
-26.0,-14.0,1.85
-6.0,-18.0,1.851
13.0,-18.0,1.852
32.0,-8.0,1.853
46.0,2.0,1.854
43.0,14.0,1.855
34.0,21.0,1.856
12.0,12.0,1.857
-11.0,1.0,1.858
-31.0,-9.0,1.859
-33.0,-9.0,1.86
-12.0,-3.0,1.861
15.0,-1.0,1.862
37.0,-12.0,1.863
65.0,-24.0,1.864
100.0,-18.0,1.865
109.0,5.0,1.866
61.0,26.0,1.867
-13.0,32.0,1.868
-55.0,24.0,1.869
-57.0,3.0,1.87
-61.0,-17.0,1.871
-81.0,-29.0,1.872
-80.0,-27.0,1.873
-47.0,-17.0,1.874
-29.0,-4.0,1.875
-56.0,11.0,1.876
-75.0,27.0,1.877
-36.0,24.0,1.878
40.0,11.0,1.879
100.0,7.0,1.88
112.0,19.0,1.881
125.0,31.0,1.882
142.0,28.0,1.883
145.0,23.0,1.884
103.0,32.0,1.885
65.0,42.0,1.886
37.0,37.0,1.887
5.0,18.0,1.888
-36.0,-1.0,1.889
-74.0,-12.0,1.89
-101.0,-18.0,1.891
-105.0,-17.0,1.892
-35.0,-9.0,1.893
31.0,-7.0,1.894
88.0,-19.0,1.895
132.0,-34.0,1.896
138.0,-35.0,1.897
133.0,-22.0,1.898
70.0,-4.0,1.899
-7.0,4.0,1.9
-54.0,-4.0,1.901
-65.0,-12.0,1.902
-78.0,-10.0,1.903
-110.0,2.0,1.904
-135.0,10.0,1.905
-119.0,7.0,1.906
-71.0,-5.0,1.907
-26.0,-16.0,1.908
1.0,-19.0,1.909
15.0,-14.0,1.91
19.0,-3.0,1.911
19.0,13.0,1.912
22.0,26.0,1.913
29.0,26.0,1.914
38.0,19.0,1.915
43.0,17.0,1.916
44.0,17.0,1.917
42.0,4.0,1.918
36.0,-17.0,1.919
24.0,-35.0,1.92
-5.0,-37.0,1.921
-29.0,-40.0,1.922
-35.0,-40.0,1.923
-42.0,-36.0,1.924
-51.0,-22.0,1.925
-57.0,-12.0,1.926
-55.0,-14.0,1.927
-51.0,-17.0,1.928
-41.0,-15.0,1.929
-31.0,-12.0,1.93
-19.0,-5.0,1.931
-10.0,0.0,1.932
-12.0,-2.0,1.933
-14.0,-4.0,1.934
-14.0,-2.0,1.935
-12.0,0.0,1.936
-5.0,4.0,1.937
5.0,5.0,1.938
29.0,-3.0,1.939
48.0,-3.0,1.94
43.0,4.0,1.941
30.0,15.0,1.942
30.0,21.0,1.943
37.0,21.0,1.944
28.0,18.0,1.945
-3.0,18.0,1.946
-30.0,26.0,1.947
-41.0,38.0,1.948
-47.0,45.0,1.949
-47.0,44.0,1.95
-18.0,37.0,1.951
47.0,29.0,1.952
115.0,13.0,1.953
146.0,-2.0,1.954
133.0,-10.0,1.955
107.0,-8.0,1.956
98.0,-8.0,1.957
105.0,-20.0,1.958
110.0,-31.0,1.959
106.0,-27.0,1.96
72.0,-9.0,1.961
33.0,19.0,1.962
-21.0,44.0,1.963
-68.0,55.0,1.964
-90.0,44.0,1.965
-108.0,14.0,1.966
-106.0,-12.0,1.967
-105.0,-17.0,1.968
-105.0,-13.0,1.969
-102.0,-23.0,1.97
-86.0,-44.0,1.971
-65.0,-60.0,1.972
-30.0,-61.0,1.973
1.0,-60.0,1.974
23.0,-60.0,1.975
38.0,-57.0,1.976
30.0,-51.0,1.977
17.0,-43.0,1.978
0.0,-36.0,1.979
-13.0,-22.0,1.98
-15.0,-2.0,1.981
-11.0,19.0,1.982
-11.0,29.0,1.983
-27.0,25.0,1.984
-58.0,17.0,1.985
-81.0,18.0,1.986
-75.0,32.0,1.987
-35.0,48.0,1.988
15.0,47.0,1.989
57.0,26.0,1.99
85.0,4.0,1.991
105.0,6.0,1.992
108.0,32.0,1.993
84.0,56.0,1.994
43.0,55.0,1.995
10.0,35.0,1.996
-4.0,15.0,1.997
-5.0,1.0,1.998
0.0,-4.0,1.999
3.0,-5.0,2.0
-2.0,-8.0,2.001
-9.0,-14.0,2.002
-14.0,-23.0,2.003
-21.0,-30.0,2.004
-34.0,-28.0,2.005
-43.0,-21.0,2.006
-39.0,-12.0,2.007
-26.0,1.0,2.008
13.0,24.0,2.009
42.0,38.0,2.01
39.0,24.0,2.011
39.0,-10.0,2.012
48.0,-24.0,2.013
45.0,-3.0,2.014
6.0,20.0,2.015
-19.0,6.0,2.016
-5.0,-30.0,2.017
24.0,-58.0,2.018
89.0,-51.0,2.019
118.0,-16.0,2.02
75.0,16.0,2.021
-26.0,33.0,2.022
-134.0,29.0,2.023
-180.0,16.0,2.024
-133.0,18.0,2.025
-27.0,39.0,2.026
73.0,64.0,2.027
137.0,85.0,2.028
172.0,107.0,2.029
183.0,133.0,2.03
153.0,153.0,2.031
97.0,159.0,2.032
63.0,143.0,2.033
72.0,106.0,2.034
92.0,47.0,2.035
86.0,-12.0,2.036
57.0,-43.0,2.037
23.0,-45.0,2.038
-10.0,-30.0,2.039
-51.0,-16.0,2.04
-114.0,-26.0,2.041
-173.0,-68.0,2.042
-220.0,-142.0,2.043
-252.0,-230.0,2.044
-235.0,-317.0,2.045
-213.0,-389.0,2.046
-177.0,-427.0,2.047
-137.0,-418.0,2.048
-84.0,-364.0,2.049
-41.0,-275.0,2.05
-29.0,-148.0,2.051
-9.0,-3.0,2.052
33.0,97.0,2.053
71.0,103.0,2.054
93.0,55.0,2.055
102.0,32.0,2.056
67.0,50.0,2.057
39.0,78.0,2.058
39.0,113.0,2.059
-3.0,178.0,2.06
-98.0,252.0,2.061
-165.0,292.0,2.062
-135.0,305.0,2.063
-68.0,337.0,2.064
-48.0,365.0,2.065
-44.0,317.0,2.066
49.0,196.0,2.067
219.0,85.0,2.068
328.0,24.0,2.069
314.0,-25.0,2.07
283.0,-94.0,2.071
322.0,-134.0,2.072
344.0,-86.0,2.073
239.0,51.0,2.074
78.0,218.0,2.075
6.0,327.0,2.076
15.0,315.0,2.077
-57.0,191.0,2.078
-226.0,56.0,2.079
-330.0,-31.0,2.08
-274.0,-120.0,2.081
-138.0,-265.0,2.082
-14.0,-421.0,2.083
114.0,-515.0,2.084
252.0,-563.0,2.085
328.0,-621.0,2.086
289.0,-655.0,2.087
194.0,-602.0,2.088
93.0,-476.0,2.089
-51.0,-344.0,2.09
-244.0,-213.0,2.091
-363.0,-45.0,2.092
-297.0,138.0,2.093
-103.0,264.0,2.094
70.0,318.0,2.095
172.0,361.0,2.096
230.0,421.0,2.097
215.0,463.0,2.098
105.0,469.0,2.099
-2.0,467.0,2.1
-104.0,441.0,2.101
-174.0,412.0,2.102
-143.0,376.0,2.103
-124.0,334.0,2.104
-145.0,276.0,2.105
-134.0,209.0,2.106
-22.0,116.0,2.107
74.0,38.0,2.108
122.0,7.0,2.109
152.0,-30.0,2.11
128.0,-88.0,2.111
100.0,-155.0,2.112
58.0,-249.0,2.113
21.0,-350.0,2.114
-3.0,-467.0,2.115
-18.0,-546.0,2.116
-5.0,-508.0,2.117
-2.0,-449.0,2.118
-45.0,-326.0,2.119
-106.0,-231.0,2.12
-169.0,-160.0,2.121
-221.0,-61.0,2.122
-233.0,81.0,2.123
-169.0,202.0,2.124
-43.0,224.0,2.125
74.0,155.0,2.126
116.0,93.0,2.127
85.0,109.0,2.128
33.0,153.0,2.129
-12.0,129.0,2.13
-61.0,28.0,2.131
-113.0,-46.0,2.132
-118.0,-8.0,2.133
-40.0,97.0,2.134
76.0,174.0,2.135
133.0,191.0,2.136
88.0,194.0,2.137
-23.0,210.0,2.138
-123.0,207.0,2.139
-187.0,159.0,2.14
-145.0,91.0,2.141
-99.0,50.0,2.142
-40.0,18.0,2.143
-26.0,-47.0,2.144
-151.0,-136.0,2.145
-240.0,-199.0,2.146
-216.0,-241.0,2.147
-157.0,-324.0,2.148
7.0,-471.0,2.149
147.0,-597.0,2.15
217.0,-589.0,2.151
280.0,-427.0,2.152
322.0,-206.0,2.153
356.0,-28.0,2.154
361.0,94.0,2.155
376.0,207.0,2.156
417.0,328.0,2.157
458.0,441.0,2.158
474.0,496.0,2.159
474.0,465.0,2.16
521.0,386.0,2.161
629.0,357.0,2.162
722.0,456.0,2.163
699.0,643.0,2.164
559.0,770.0,2.165
403.0,724.0,2.166
322.0,534.0,2.167
294.0,306.0,2.168
244.0,97.0,2.169
134.0,-106.0,2.17
-13.0,-298.0,2.171
-172.0,-441.0,2.172
-337.0,-542.0,2.173
-500.0,-670.0,2.174
-653.0,-849.0,2.175
-790.0,-1027.0,2.176
-885.0,-1123.0,2.177
-916.0,-1119.0,2.178
-847.0,-1011.0,2.179
-679.0,-797.0,2.18
-444.0,-490.0,2.181
-225.0,-132.0,2.182
-133.0,202.0,2.183
-228.0,457.0,2.184
-426.0,612.0,2.185
-562.0,677.0,2.186
-564.0,682.0,2.187
-515.0,662.0,2.188
-510.0,646.0,2.189
-522.0,645.0,2.19
-474.0,639.0,2.191
-362.0,583.0,2.192
-258.0,462.0,2.193
-206.0,318.0,2.194
-186.0,198.0,2.195
-164.0,86.0,2.196
-131.0,-49.0,2.197
-101.0,-214.0,2.198
-78.0,-332.0,2.199
-31.0,-374.0,2.2
87.0,-386.0,2.201
241.0,-402.0,2.202
314.0,-423.0,2.203
265.0,-447.0,2.204
220.0,-461.0,2.205
304.0,-400.0,2.206
431.0,-207.0,2.207
432.0,81.0,2.208
291.0,349.0,2.209
127.0,527.0,2.21
-14.0,618.0,2.211
-139.0,652.0,2.212
-170.0,666.0,2.213
-28.0,693.0,2.214
185.0,695.0,2.215
293.0,588.0,2.216
308.0,389.0,2.217
356.0,218.0,2.218
416.0,137.0,2.219
430.0,19.0,2.22
302.0,-206.0,2.221
232.0,-428.0,2.222
340.0,-633.0,2.223
407.0,-836.0,2.224
352.0,-1032.0,2.225
304.0,-1164.0,2.226
274.0,-1102.0,2.227
199.0,-977.0,2.228
-14.0,-661.0,2.229
-190.0,-346.0,2.23
-250.0,-35.0,2.231
-269.0,200.0,2.232
-167.0,206.0,2.233
-90.0,205.0,2.234
-87.0,179.0,2.235
-55.0,160.0,2.236
62.0,165.0,2.237
160.0,150.0,2.238
129.0,91.0,2.239
17.0,86.0,2.24
-85.0,85.0,2.241
-134.0,36.0,2.242
-135.0,-8.0,2.243
-94.0,26.0,2.244
-40.0,95.0,2.245
-29.0,95.0,2.246
-81.0,13.0,2.247
-144.0,-75.0,2.248
-176.0,-138.0,2.249
-202.0,-194.0,2.25
-254.0,-234.0,2.251
-294.0,-217.0,2.252
-245.0,-141.0,2.253
-94.0,-50.0,2.254
106.0,36.0,2.255
273.0,125.0,2.256
347.0,208.0,2.257
315.0,271.0,2.258
213.0,326.0,2.259
83.0,387.0,2.26
-39.0,418.0,2.261
-94.0,390.0,2.262
-25.0,324.0,2.263
112.0,284.0,2.264
180.0,291.0,2.265
138.0,321.0,2.266
73.0,360.0,2.267
-9.0,384.0,2.268
-206.0,371.0,2.269
-472.0,343.0,2.27
-560.0,378.0,2.271
-349.0,500.0,2.272
-36.0,583.0,2.273
152.0,493.0,2.274
250.0,257.0,2.275
389.0,33.0,2.276
531.0,-89.0,2.277
583.0,-193.0,2.278
547.0,-344.0,2.279
485.0,-534.0,2.28
380.0,-716.0,2.281
186.0,-872.0,2.282
-53.0,-979.0,2.283
-263.0,-991.0,2.284
-440.0,-886.0,2.285
-570.0,-702.0,2.286
-571.0,-454.0,2.287
-421.0,-138.0,2.288
-244.0,193.0,2.289
-159.0,430.0,2.29
-137.0,550.0,2.291
-97.0,633.0,2.292
-35.0,716.0,2.293
23.0,694.0,2.294
68.0,472.0,2.295
74.0,135.0,2.296
6.0,-134.0,2.297
-103.0,-306.0,2.298
-149.0,-432.0,2.299
-145.0,-562.0,2.3
8.0,-672.0,2.301
165.0,-716.0,2.302
331.0,-671.0,2.303
452.0,-519.0,2.304
434.0,-254.0,2.305
397.0,55.0,2.306
300.0,293.0,2.307
194.0,395.0,2.308
60.0,393.0,2.309
-32.0,365.0,2.31
0.0,352.0,2.311
6.0,347.0,2.312
-71.0,320.0,2.313
-144.0,246.0,2.314
-206.0,135.0,2.315
-226.0,20.0,2.316
-117.0,-63.0,2.317
-26.0,-109.0,2.318
-46.0,-95.0,2.319
-115.0,-18.0,2.32
-149.0,70.0,2.321
-152.0,115.0,2.322
-185.0,109.0,2.323
-237.0,97.0,2.324
-188.0,93.0,2.325
11.0,60.0,2.326
243.0,-5.0,2.327
353.0,-35.0,2.328
309.0,17.0,2.329
140.0,83.0,2.33
-136.0,58.0,2.331
-420.0,-63.0,2.332
-491.0,-181.0,2.333
-254.0,-230.0,2.334
80.0,-240.0,2.335
233.0,-264.0,2.336
197.0,-285.0,2.337
119.0,-272.0,2.338
63.0,-231.0,2.339
-13.0,-206.0,2.34
-62.0,-208.0,2.341
-3.0,-202.0,2.342
80.0,-181.0,2.343
39.0,-158.0,2.344
-70.0,-106.0,2.345
-67.0,32.0,2.346
49.0,240.0,2.347
90.0,413.0,2.348
-20.0,471.0,2.349
-144.0,454.0,2.35
-144.0,436.0,2.351
-56.0,424.0,2.352
0.0,385.0,2.353
-5.0,332.0,2.354
19.0,316.0,2.355
162.0,330.0,2.356
348.0,331.0,2.357
413.0,296.0,2.358
296.0,266.0,2.359
172.0,267.0,2.36
207.0,254.0,2.361
296.0,148.0,2.362
243.0,-89.0,2.363
101.0,-375.0,2.364
62.0,-564.0,2.365
133.0,-601.0,2.366
159.0,-564.0,2.367
109.0,-529.0,2.368
70.0,-468.0,2.369
6.0,-347.0,2.37
-195.0,-217.0,2.371
-461.0,-125.0,2.372
-577.0,-39.0,2.373
-508.0,62.0,2.374
-429.0,140.0,2.375
-392.0,199.0,2.376
-260.0,294.0,2.377
24.0,388.0,2.378
286.0,375.0,2.379
465.0,320.0,2.38
395.0,142.0,2.381
282.0,-41.0,2.382
42.0,-244.0,2.383
-198.0,-446.0,2.384
-439.0,-645.0,2.385
-563.0,-767.0,2.386
-331.0,-653.0,2.387
-91.0,-507.0,2.388
171.0,-261.0,2.389
357.0,-25.0,2.39
309.0,183.0,2.391
242.0,350.0,2.392
122.0,391.0,2.393
27.0,417.0,2.394
6.0,399.0,2.395
-22.0,377.0,2.396
-71.0,345.0,2.397
-113.0,311.0,2.398
-100.0,268.0,2.399
-12.0,219.0,2.4
98.0,197.0,2.401
183.0,237.0,2.402
229.0,281.0,2.403
210.0,251.0,2.404
105.0,158.0,2.405
-51.0,100.0,2.406
-188.0,98.0,2.407
-294.0,39.0,2.408
-395.0,-159.0,2.409
-445.0,-420.0,2.41
-351.0,-605.0,2.411
-124.0,-682.0,2.412
113.0,-711.0,2.413
255.0,-705.0,2.414
282.0,-628.0,2.415
206.0,-482.0,2.416
79.0,-334.0,2.417
-41.0,-227.0,2.418
-99.0,-158.0,2.419
-116.0,-95.0,2.42
-139.0,-3.0,2.421
-158.0,134.0,2.422
-154.0,284.0,2.423
-126.0,390.0,2.424
-37.0,410.0,2.425
137.0,370.0,2.426
302.0,339.0,2.427
313.0,353.0,2.428
180.0,382.0,2.429
68.0,371.0,2.43
53.0,309.0,2.431
49.0,232.0,2.432
4.0,165.0,2.433
-9.0,106.0,2.434
41.0,56.0,2.435
57.0,35.0,2.436
-13.0,41.0,2.437
-104.0,31.0,2.438
-108.0,-12.0,2.439
-16.0,-57.0,2.44
120.0,-75.0,2.441
252.0,-77.0,2.442
309.0,-81.0,2.443
190.0,-57.0,2.444
-106.0,23.0,2.445
-399.0,126.0,2.446
-451.0,188.0,2.447
-189.0,188.0,2.448
218.0,146.0,2.449
512.0,86.0,2.45
561.0,13.0,2.451
434.0,-85.0,2.452
279.0,-214.0,2.453
168.0,-337.0,2.454
72.0,-373.0,2.455
-37.0,-272.0,2.456
-141.0,-90.0,2.457
-250.0,97.0,2.458
-362.0,240.0,2.459
-434.0,349.0,2.46
-383.0,423.0,2.461
-316.0,416.0,2.462
-198.0,292.0,2.463
-99.0,103.0,2.464
-57.0,-59.0,2.465
-22.0,-155.0,2.466
-7.0,-228.0,2.467
-14.0,-324.0,2.468
-92.0,-440.0,2.469
-142.0,-525.0,2.47
-106.0,-531.0,2.471
-38.0,-454.0,2.472
124.0,-339.0,2.473
265.0,-248.0,2.474
339.0,-211.0,2.475
356.0,-227.0,2.476
200.0,-284.0,2.477
69.0,-375.0,2.478
37.0,-442.0,2.479
-19.0,-426.0,2.48
-128.0,-337.0,2.481
-209.0,-231.0,2.482
-223.0,-117.0,2.483
-196.0,60.0,2.484
-142.0,319.0,2.485
-58.0,589.0,2.486
37.0,792.0,2.487
116.0,895.0,2.488
161.0,887.0,2.489
145.0,770.0,2.49
52.0,611.0,2.491
-67.0,494.0,2.492
-129.0,401.0,2.493
-110.0,238.0,2.494
-45.0,-2.0,2.495
38.0,-203.0,2.496
119.0,-288.0,2.497
186.0,-318.0,2.498
239.0,-348.0,2.499
300.0,-359.0,2.5
352.0,-317.0,2.501
312.0,-253.0,2.502
156.0,-220.0,2.503
-52.0,-216.0,2.504
-238.0,-212.0,2.505
-370.0,-194.0,2.506
-401.0,-153.0,2.507
-302.0,-91.0,2.508
-151.0,-51.0,2.509
-66.0,-54.0,2.51
-37.0,-18.0,2.511
40.0,144.0,2.512
167.0,366.0,2.513
236.0,466.0,2.514
213.0,387.0,2.515
181.0,266.0,2.516
195.0,226.0,2.517
197.0,217.0,2.518
128.0,128.0,2.519
-19.0,-49.0,2.52
-198.0,-224.0,2.521
-336.0,-339.0,2.522
-349.0,-424.0,2.523
-238.0,-515.0,2.524
-110.0,-585.0,2.525
-25.0,-581.0,2.526
70.0,-481.0,2.527
191.0,-304.0,2.528
214.0,-85.0,2.529
60.0,137.0,2.53
-146.0,346.0,2.531
-235.0,533.0,2.532
-188.0,687.0,2.533
-82.0,776.0,2.534
33.0,767.0,2.535
107.0,670.0,2.536
97.0,556.0,2.537
48.0,440.0,2.538
69.0,299.0,2.539
102.0,86.0,2.54
170.0,-175.0,2.541
216.0,-392.0,2.542
193.0,-504.0,2.543
148.0,-544.0,2.544
38.0,-580.0,2.545
-74.0,-611.0,2.546
-194.0,-575.0,2.547
-250.0,-437.0,2.548
-115.0,-244.0,2.549
0.0,-78.0,2.55
52.0,47.0,2.551
86.0,174.0,2.552
68.0,324.0,2.553
51.0,454.0,2.554
33.0,535.0,2.555
12.0,589.0,2.556
-21.0,630.0,2.557
-46.0,612.0,2.558
-17.0,497.0,2.559
83.0,329.0,2.56
208.0,181.0,2.561
262.0,61.0,2.562
197.0,-73.0,2.563
62.0,-203.0,2.564
-77.0,-286.0,2.565
-202.0,-373.0,2.566
-296.0,-542.0,2.567
-311.0,-741.0,2.568
-240.0,-817.0,2.569
-156.0,-730.0,2.57
-121.0,-589.0,2.571
-102.0,-458.0,2.572
-63.0,-276.0,2.573
-59.0,-29.0,2.574
-146.0,161.0,2.575
-261.0,202.0,2.576
-283.0,187.0,2.577
-181.0,256.0,2.578
-51.0,412.0,2.579
5.0,523.0,2.58
2.0,520.0,2.581
36.0,462.0,2.582
148.0,363.0,2.583
263.0,170.0,2.584
285.0,-87.0,2.585
214.0,-261.0,2.586
150.0,-271.0,2.587
142.0,-220.0,2.588
131.0,-242.0,2.589
44.0,-336.0,2.59
-96.0,-424.0,2.591
-193.0,-483.0,2.592
-161.0,-518.0,2.593
2.0,-490.0,2.594
178.0,-354.0,2.595
202.0,-162.0,2.596
69.0,-18.0,2.597
-40.0,45.0,2.598
66.0,60.0,2.599
290.0,61.0,2.6
355.0,58.0,2.601
202.0,70.0,2.602
35.0,134.0,2.603
-22.0,273.0,2.604
-64.0,463.0,2.605
-147.0,630.0,2.606
-164.0,703.0,2.607
-64.0,657.0,2.608
41.0,529.0,2.609
84.0,371.0,2.61
147.0,206.0,2.611
263.0,40.0,2.612
312.0,-113.0,2.613
239.0,-244.0,2.614
159.0,-356.0,2.615
165.0,-437.0,2.616
166.0,-444.0,2.617
42.0,-343.0,2.618
-124.0,-177.0,2.619
-251.0,-18.0,2.62
-255.0,115.0,2.621
-240.0,224.0,2.622
-167.0,256.0,2.623
-96.0,268.0,2.624
-34.0,220.0,2.625
-9.0,185.0,2.626
-97.0,192.0,2.627
-156.0,187.0,2.628
-128.0,143.0,2.629
-83.0,88.0,2.63
14.0,-1.0,2.631
97.0,-95.0,2.632
137.0,-205.0,2.633
138.0,-283.0,2.634
21.0,-263.0,2.635
-77.0,-247.0,2.636
-119.0,-241.0,2.637
-132.0,-238.0,2.638
-37.0,-251.0,2.639
11.0,-293.0,2.64
-66.0,-341.0,2.641
-210.0,-279.0,2.642
-306.0,-50.0,2.643
-325.0,251.0,2.644
-293.0,478.0,2.645
-197.0,606.0,2.646
-38.0,689.0,2.647
78.0,722.0,2.648
56.0,650.0,2.649
-40.0,479.0,2.65
-63.0,283.0,2.651
40.0,86.0,2.652
180.0,-135.0,2.653
268.0,-366.0,2.654
269.0,-522.0,2.655
190.0,-545.0,2.656
88.0,-471.0,2.657
30.0,-361.0,2.658
72.0,-266.0,2.659
164.0,-189.0,2.66
217.0,-123.0,2.661
197.0,-79.0,2.662
156.0,-96.0,2.663
134.0,-190.0,2.664
116.0,-325.0,2.665
69.0,-418.0,2.666
-25.0,-417.0,2.667
-151.0,-336.0,2.668
-249.0,-229.0,2.669
-233.0,-133.0,2.67
-92.0,-20.0,2.671
53.0,150.0,2.672
69.0,349.0,2.673
-30.0,473.0,2.674
-109.0,449.0,2.675
-89.0,304.0,2.676
-24.0,129.0,2.677
48.0,-52.0,2.678
152.0,-206.0,2.679
277.0,-299.0,2.68
303.0,-329.0,2.681
145.0,-328.0,2.682
-77.0,-328.0,2.683
-160.0,-294.0,2.684
-62.0,-178.0,2.685
50.0,9.0,2.686
27.0,213.0,2.687
-89.0,405.0,2.688
-148.0,582.0,2.689
-78.0,698.0,2.69
55.0,696.0,2.691
137.0,607.0,2.692
98.0,526.0,2.693
-34.0,480.0,2.694
-129.0,381.0,2.695
-63.0,166.0,2.696
122.0,-66.0,2.697
241.0,-219.0,2.698
190.0,-292.0,2.699
126.0,-370.0,2.7
22.0,-458.0,2.701
-64.0,-506.0,2.702
-99.0,-436.0,2.703
-135.0,-351.0,2.704
-175.0,-221.0,2.705
-194.0,-108.0,2.706
-148.0,-45.0,2.707
-101.0,33.0,2.708
-50.0,159.0,2.709
-23.0,285.0,2.71
-73.0,405.0,2.711
-110.0,494.0,2.712
-103.0,491.0,2.713
-74.0,489.0,2.714
22.0,492.0,2.715
87.0,456.0,2.716
57.0,298.0,2.717
38.0,122.0,2.718
95.0,-86.0,2.719
185.0,-245.0,2.72
183.0,-389.0,2.721
76.0,-531.0,2.722
-17.0,-636.0,2.723
-14.0,-669.0,2.724
0.0,-655.0,2.725
-66.0,-618.0,2.726
-145.0,-533.0,2.727
-132.0,-380.0,2.728
-100.0,-209.0,2.729
-175.0,-85.0,2.73
-271.0,0.0,2.731
-192.0,102.0,2.732
17.0,221.0,2.733
87.0,302.0,2.734
-71.0,351.0,2.735
-235.0,443.0,2.736
-228.0,576.0,2.737
-111.0,644.0,2.738
7.0,551.0,2.739
134.0,359.0,2.74
281.0,222.0,2.741
357.0,185.0,2.742
314.0,140.0,2.743
240.0,3.0,2.744
208.0,-186.0,2.745
176.0,-357.0,2.746
97.0,-507.0,2.747
5.0,-653.0,2.748
-61.0,-760.0,2.749
-90.0,-772.0,2.75
-49.0,-654.0,2.751
59.0,-425.0,2.752
126.0,-144.0,2.753
64.0,117.0,2.754
-56.0,312.0,2.755
-121.0,434.0,2.756
-156.0,489.0,2.757
-219.0,477.0,2.758
-219.0,412.0,2.759
-54.0,319.0,2.76
168.0,206.0,2.761
251.0,92.0,2.762
198.0,7.0,2.763
156.0,-35.0,2.764
148.0,-92.0,2.765
104.0,-251.0,2.766
66.0,-502.0,2.767
119.0,-724.0,2.768
181.0,-809.0,2.769
100.0,-749.0,2.77
-96.0,-579.0,2.771
-242.0,-330.0,2.772
-261.0,-53.0,2.773
-200.0,172.0,2.774
-105.0,314.0,2.775
2.0,419.0,2.776
52.0,536.0,2.777
4.0,654.0,2.778
-62.0,742.0,2.779
-101.0,800.0,2.78
-52.0,768.0,2.781
-14.0,698.0,2.782
-8.0,520.0,2.783
5.0,352.0,2.784
44.0,217.0,2.785
76.0,78.0,2.786
84.0,-75.0,2.787
93.0,-192.0,2.788
103.0,-198.0,2.789
97.0,-175.0,2.79
36.0,-61.0,2.791
-33.0,26.0,2.792
-126.0,38.0,2.793
-193.0,27.0,2.794
-175.0,-50.0,2.795
-139.0,-112.0,2.796
-45.0,-121.0,2.797
14.0,-143.0,2.798
-70.0,-229.0,2.799
-122.0,-322.0,2.8
-59.0,-359.0,2.801
30.0,-387.0,2.802
46.0,-473.0,2.803
7.0,-570.0,2.804
-24.0,-571.0,2.805
-53.0,-467.0,2.806
-103.0,-330.0,2.807
-135.0,-199.0,2.808
-113.0,-63.0,2.809
-63.0,73.0,2.81
-28.0,178.0,2.811
-9.0,254.0,2.812
19.0,321.0,2.813
60.0,369.0,2.814
113.0,377.0,2.815
171.0,346.0,2.816
215.0,310.0,2.817
214.0,276.0,2.818
166.0,248.0,2.819
105.0,218.0,2.82
62.0,174.0,2.821
26.0,116.0,2.822
-16.0,54.0,2.823
-44.0,7.0,2.824
-36.0,-18.0,2.825
-8.0,-34.0,2.826
2.0,-47.0,2.827
-6.0,-49.0,2.828
-6.0,-38.0,2.829
6.0,-20.0,2.83
16.0,-5.0,2.831
16.0,7.0,2.832
22.0,20.0,2.833
36.0,31.0,2.834
40.0,38.0,2.835
32.0,37.0,2.836
31.0,33.0,2.837
37.0,23.0,2.838
37.0,14.0,2.839
26.0,3.0,2.84
19.0,-17.0,2.841
18.0,-37.0,2.842
13.0,-51.0,2.843
1.0,-65.0,2.844
-13.0,-85.0,2.845
-31.0,-109.0,2.846
-55.0,-126.0,2.847
-71.0,-131.0,2.848
-63.0,-125.0,2.849
-36.0,-117.0,2.85
-10.0,-109.0,2.851
13.0,-98.0,2.852
38.0,-80.0,2.853
64.0,-54.0,2.854
71.0,-26.0,2.855
55.0,0.0,2.856
29.0,16.0,2.857
-6.0,18.0,2.858
-43.0,10.0,2.859
-69.0,7.0,2.86
-61.0,8.0,2.861
-26.0,11.0,2.862
6.0,11.0,2.863
17.0,12.0,2.864
14.0,23.0,2.865
10.0,38.0,2.866
4.0,41.0,2.867
-8.0,33.0,2.868
-17.0,27.0,2.869
-20.0,33.0,2.87
-19.0,48.0,2.871
-17.0,62.0,2.872
-12.0,59.0,2.873
-4.0,40.0,2.874
2.0,13.0,2.875
5.0,-4.0,2.876
5.0,-2.0,2.877
1.0,0.0,2.878
-5.0,-6.0,2.879
-14.0,-12.0,2.88
-33.0,-12.0,2.881
-61.0,-9.0,2.882
-80.0,-11.0,2.883
-73.0,-23.0,2.884
-42.0,-37.0,2.885
-2.0,-44.0,2.886
30.0,-40.0,2.887
38.0,-24.0,2.888
12.0,-3.0,2.889
-27.0,10.0,2.89
-40.0,9.0,2.891
-15.0,0.0,2.892
10.0,-13.0,2.893
9.0,-25.0,2.894
-3.0,-29.0,2.895
2.0,-24.0,2.896
30.0,-11.0,2.897
56.0,-4.0,2.898
66.0,-1.0,2.899
60.0,5.0,2.9
44.0,9.0,2.901
25.0,12.0,2.902
19.0,7.0,2.903
28.0,3.0,2.904
45.0,6.0,2.905
56.0,12.0,2.906
57.0,14.0,2.907
49.0,7.0,2.908
35.0,-1.0,2.909
16.0,-5.0,2.91
-7.0,-7.0,2.911
-23.0,-8.0,2.912
-20.0,-4.0,2.913
1.0,10.0,2.914
23.0,25.0,2.915
25.0,29.0,2.916
10.0,19.0,2.917
-3.0,8.0,2.918
-1.0,0.0,2.919
7.0,-4.0,2.92
9.0,-11.0,2.921
10.0,-7.0,2.922
18.0,9.0,2.923
28.0,24.0,2.924
26.0,24.0,2.925
9.0,13.0,2.926
-6.0,0.0,2.927
-10.0,-7.0,2.928
-8.0,-5.0,2.929
-7.0,1.0,2.93
-8.0,4.0,2.931
-7.0,-4.0,2.932
-2.0,-16.0,2.933
7.0,-23.0,2.934
17.0,-19.0,2.935
21.0,-13.0,2.936
21.0,-9.0,2.937
16.0,-9.0,2.938
10.0,-6.0,2.939
1.0,-5.0,2.94
-9.0,-7.0,2.941
-21.0,-5.0,2.942
-25.0,-3.0,2.943
-20.0,-3.0,2.944
-12.0,-4.0,2.945
-8.0,-5.0,2.946
-11.0,-8.0,2.947
-18.0,-11.0,2.948
-20.0,-9.0,2.949
-16.0,4.0,2.95
0.0,28.0,2.951
26.0,52.0,2.952
51.0,69.0,2.953
69.0,66.0,2.954
74.0,44.0,2.955
74.0,25.0,2.956
68.0,24.0,2.957
45.0,30.0,2.958
14.0,24.0,2.959
-4.0,6.0,2.96
6.0,-4.0,2.961
31.0,2.0,2.962
43.0,16.0,2.963
28.0,23.0,2.964
1.0,18.0,2.965
-27.0,9.0,2.966
-57.0,0.0,2.967
-94.0,-8.0,2.968
-117.0,-19.0,2.969
-96.0,-31.0,2.97
-34.0,-45.0,2.971
28.0,-53.0,2.972
57.0,-52.0,2.973
63.0,-41.0,2.974
67.0,-19.0,2.975
57.0,10.0,2.976
30.0,28.0,2.977
0.0,12.0,2.978
-17.0,-16.0,2.979
-47.0,-24.0,2.98
-105.0,-9.0,2.981
-151.0,7.0,2.982
-141.0,1.0,2.983
-101.0,-11.0,2.984
-90.0,-11.0,2.985
-111.0,-6.0,2.986
-121.0,-13.0,2.987
-106.0,-31.0,2.988
-72.0,-43.0,2.989
-20.0,-40.0,2.99
46.0,-33.0,2.991
89.0,-29.0,2.992
81.0,-23.0,2.993
46.0,-12.0,2.994
19.0,-2.0,2.995
6.0,2.0,2.996
0.0,3.0,2.997
5.0,0.0,2.998
21.0,0.0,2.999
31.0,3.0,3.0
19.0,3.0,3.001
11.0,0.0,3.002
19.0,-4.0,3.003
20.0,-2.0,3.004
2.0,7.0,3.005
-16.0,9.0,3.006
-38.0,4.0,3.007
-49.0,-2.0,3.008
-23.0,-1.0,3.009
5.0,5.0,3.01
43.0,12.0,3.011
67.0,20.0,3.012
43.0,24.0,3.013
27.0,23.0,3.014
38.0,13.0,3.015
47.0,1.0,3.016
51.0,-7.0,3.017
54.0,-11.0,3.018
63.0,-5.0,3.019
76.0,13.0,3.02
78.0,26.0,3.021
61.0,25.0,3.022
40.0,10.0,3.023
28.0,-1.0,3.024
16.0,0.0,3.025
0.0,9.0,3.026
-3.0,17.0,3.027
5.0,18.0,3.028
15.0,11.0,3.029
15.0,0.0,3.03
13.0,-10.0,3.031
18.0,-15.0,3.032
29.0,-8.0,3.033
40.0,-2.0,3.034
53.0,2.0,3.035
69.0,1.0,3.036
80.0,0.0,3.037
98.0,-6.0,3.038
130.0,-11.0,3.039
176.0,-10.0,3.04
199.0,-3.0,3.041
173.0,8.0,3.042
116.0,13.0,3.043
63.0,15.0,3.044
22.0,17.0,3.045
-19.0,17.0,3.046
-52.0,14.0,3.047
-52.0,13.0,3.048
-30.0,14.0,3.049
-25.0,12.0,3.05
-50.0,0.0,3.051
-73.0,-10.0,3.052
-70.0,-13.0,3.053
-58.0,-9.0,3.054
-64.0,-1.0,3.055
-80.0,4.0,3.056
-79.0,5.0,3.057
-66.0,3.0,3.058
-59.0,1.0,3.059
-68.0,1.0,3.06
-76.0,-1.0,3.061
-75.0,-5.0,3.062
-66.0,-8.0,3.063
-65.0,-4.0,3.064
-73.0,1.0,3.065
-78.0,0.0,3.066
-70.0,-8.0,3.067
-59.0,-12.0,3.068
-55.0,-7.0,3.069
-55.0,0.0,3.07
-47.0,0.0,3.071
-35.0,2.0,3.072
-35.0,8.0,3.073
-50.0,11.0,3.074
-61.0,0.0,3.075
-53.0,-18.0,3.076
-36.0,-22.0,3.077
-21.0,-7.0,3.078
-17.0,16.0,3.079
-19.0,33.0,3.08
-24.0,41.0,3.081
-31.0,60.0,3.082
-37.0,85.0,3.083
-37.0,97.0,3.084
-31.0,83.0,3.085
-7.0,52.0,3.086
34.0,20.0,3.087
71.0,-6.0,3.088
75.0,-36.0,3.089
50.0,-77.0,3.09
23.0,-117.0,3.091
15.0,-137.0,3.092
14.0,-124.0,3.093
8.0,-82.0,3.094
2.0,-31.0,3.095
3.0,2.0,3.096
10.0,20.0,3.097
14.0,29.0,3.098
16.0,45.0,3.099
14.0,54.0,3.1
0.0,41.0,3.101
-12.0,21.0,3.102
-13.0,-17.0,3.103
-15.0,-60.0,3.104
-21.0,-115.0,3.105
-29.0,-166.0,3.106
-44.0,-204.0,3.107
-57.0,-227.0,3.108
-64.0,-203.0,3.109
-67.0,-172.0,3.11
-55.0,-120.0,3.111
-36.0,-67.0,3.112
0.0,-13.0,3.113
34.0,33.0,3.114
62.0,58.0,3.115
84.0,79.0,3.116
90.0,90.0,3.117
95.0,98.0,3.118
94.0,94.0,3.119
91.0,88.0,3.12
78.0,88.0,3.121
55.0,98.0,3.122
35.0,113.0,3.123
22.0,129.0,3.124
14.0,145.0,3.125
5.0,154.0,3.126
-2.0,151.0,3.127
-7.0,140.0,3.128
-13.0,129.0,3.129
-18.0,115.0,3.13
-20.0,82.0,3.131
-22.0,34.0,3.132
-35.0,-13.0,3.133
-50.0,-45.0,3.134
-54.0,-79.0,3.135
-37.0,-119.0,3.136
-12.0,-146.0,3.137
13.0,-145.0,3.138
42.0,-120.0,3.139
75.0,-98.0,3.14
92.0,-86.0,3.141
85.0,-62.0,3.142
63.0,-26.0,3.143
50.0,-4.0,3.144
47.0,-4.0,3.145
39.0,-1.0,3.146
24.0,27.0,3.147
11.0,72.0,3.148
7.0,102.0,3.149
3.0,104.0,3.15
-6.0,87.0,3.151
-20.0,65.0,3.152
-34.0,43.0,3.153
-38.0,20.0,3.154
-25.0,4.0,3.155
0.0,-2.0,3.156
26.0,5.0,3.157
41.0,19.0,3.158
44.0,32.0,3.159
41.0,38.0,3.16
36.0,37.0,3.161
27.0,45.0,3.162
14.0,60.0,3.163
-2.0,65.0,3.164
-14.0,46.0,3.165
-18.0,-1.0,3.166
-15.0,-60.0,3.167
-7.0,-121.0,3.168
1.0,-171.0,3.169
17.0,-187.0,3.17
42.0,-157.0,3.171
63.0,-97.0,3.172
60.0,-39.0,3.173
38.0,-11.0,3.174
33.0,-21.0,3.175
68.0,-51.0,3.176
115.0,-71.0,3.177
123.0,-64.0,3.178
91.0,-36.0,3.179
56.0,-9.0,3.18
52.0,-5.0,3.181
64.0,-13.0,3.182
66.0,-22.0,3.183
57.0,-17.0,3.184
48.0,13.0,3.185
35.0,64.0,3.186
19.0,105.0,3.187
10.0,117.0,3.188
16.0,113.0,3.189
23.0,117.0,3.19
15.0,126.0,3.191
-6.0,120.0,3.192
-20.0,105.0,3.193
-13.0,100.0,3.194
4.0,95.0,3.195
16.0,59.0,3.196
13.0,4.0,3.197
0.0,-43.0,3.198
-12.0,-66.0,3.199
-21.0,-89.0,3.2
-35.0,-130.0,3.201
-56.0,-155.0,3.202
-74.0,-142.0,3.203
-84.0,-103.0,3.204
-98.0,-74.0,3.205
-121.0,-65.0,3.206
-141.0,-62.0,3.207
-145.0,-48.0,3.208
-134.0,-17.0,3.209
-118.0,21.0,3.21
-97.0,53.0,3.211
-78.0,63.0,3.212
-67.0,47.0,3.213
-61.0,6.0,3.214
-47.0,-47.0,3.215
-27.0,-87.0,3.216
-18.0,-92.0,3.217
-30.0,-70.0,3.218
-46.0,-45.0,3.219
-52.0,-18.0,3.22
-54.0,14.0,3.221
-62.0,46.0,3.222
-69.0,81.0,3.223
-70.0,109.0,3.224
-75.0,113.0,3.225
-84.0,118.0,3.226
-76.0,123.0,3.227
-40.0,126.0,3.228
-4.0,123.0,3.229
4.0,121.0,3.23
-4.0,120.0,3.231
-6.0,118.0,3.232
3.0,114.0,3.233
11.0,96.0,3.234
15.0,38.0,3.235
29.0,-22.0,3.236
47.0,-86.0,3.237
53.0,-145.0,3.238
49.0,-170.0,3.239
40.0,-166.0,3.24
34.0,-140.0,3.241
25.0,-104.0,3.242
16.0,-95.0,3.243
16.0,-134.0,3.244
23.0,-193.0,3.245
33.0,-218.0,3.246
36.0,-188.0,3.247
27.0,-135.0,3.248
8.0,-86.0,3.249
-12.0,-48.0,3.25
-20.0,-11.0,3.251
-12.0,19.0,3.252
2.0,34.0,3.253
20.0,44.0,3.254
39.0,65.0,3.255
56.0,102.0,3.256
59.0,142.0,3.257
45.0,177.0,3.258
28.0,190.0,3.259
17.0,181.0,3.26
10.0,154.0,3.261
0.0,121.0,3.262
-11.0,95.0,3.263
-19.0,80.0,3.264
-24.0,69.0,3.265
-21.0,48.0,3.266
-10.0,6.0,3.267
3.0,-55.0,3.268
3.0,-112.0,3.269
-14.0,-141.0,3.27
-36.0,-132.0,3.271
-40.0,-98.0,3.272
-22.0,-61.0,3.273
5.0,-42.0,3.274
28.0,-41.0,3.275
43.0,-48.0,3.276
50.0,-50.0,3.277
50.0,-50.0,3.278
46.0,-54.0,3.279
39.0,-56.0,3.28
35.0,-50.0,3.281
31.0,-32.0,3.282
30.0,-11.0,3.283
29.0,4.0,3.284
23.0,13.0,3.285
13.0,16.0,3.286
6.0,7.0,3.287
11.0,-5.0,3.288
20.0,-4.0,3.289
23.0,21.0,3.29
20.0,61.0,3.291
16.0,98.0,3.292
18.0,128.0,3.293
26.0,152.0,3.294
41.0,166.0,3.295
59.0,171.0,3.296
73.0,169.0,3.297
82.0,151.0,3.298
84.0,107.0,3.299
73.0,39.0,3.3
50.0,-38.0,3.301
25.0,-99.0,3.302
9.0,-149.0,3.303
6.0,-194.0,3.304
0.0,-223.0,3.305
-22.0,-223.0,3.306
-52.0,-202.0,3.307
-73.0,-170.0,3.308
-81.0,-123.0,3.309
-86.0,-57.0,3.31
-92.0,13.0,3.311
-94.0,65.0,3.312
-86.0,87.0,3.313
-76.0,83.0,3.314
-64.0,64.0,3.315
-47.0,40.0,3.316
-20.0,29.0,3.317
12.0,33.0,3.318
35.0,48.0,3.319
35.0,60.0,3.32
19.0,68.0,3.321
1.0,76.0,3.322
-1.0,74.0,3.323
4.0,53.0,3.324
1.0,27.0,3.325
-12.0,9.0,3.326
-28.0,-2.0,3.327
-37.0,-20.0,3.328
-41.0,-38.0,3.329
-41.0,-41.0,3.33
-38.0,-34.0,3.331
-27.0,-33.0,3.332
-17.0,-38.0,3.333
-6.0,-37.0,3.334
11.0,-24.0,3.335
27.0,-11.0,3.336
36.0,-7.0,3.337
36.0,-13.0,3.338
39.0,-19.0,3.339
45.0,-20.0,3.34
41.0,-16.0,3.341
28.0,-2.0,3.342
17.0,21.0,3.343
15.0,51.0,3.344
5.0,77.0,3.345
-15.0,85.0,3.346
-34.0,69.0,3.347
-38.0,47.0,3.348
-36.0,40.0,3.349
-40.0,46.0,3.35
-45.0,37.0,3.351
-46.0,10.0,3.352
-46.0,-11.0,3.353
-53.0,-23.0,3.354
-52.0,-45.0,3.355
-34.0,-88.0,3.356
-9.0,-127.0,3.357
11.0,-146.0,3.358
16.0,-140.0,3.359
8.0,-114.0,3.36
-7.0,-75.0,3.361
-15.0,-28.0,3.362
-3.0,6.0,3.363
25.0,26.0,3.364
58.0,43.0,3.365
85.0,64.0,3.366
111.0,75.0,3.367
135.0,67.0,3.368
149.0,54.0,3.369
158.0,41.0,3.37
172.0,22.0,3.371
186.0,-9.0,3.372
181.0,-36.0,3.373
152.0,-44.0,3.374
109.0,-36.0,3.375
67.0,-21.0,3.376
37.0,-2.0,3.377
17.0,17.0,3.378
12.0,40.0,3.379
11.0,73.0,3.38
8.0,108.0,3.381
12.0,130.0,3.382
30.0,119.0,3.383
43.0,81.0,3.384
31.0,38.0,3.385
-5.0,7.0,3.386
-36.0,-9.0,3.387
-49.0,-10.0,3.388
-55.0,4.0,3.389
-62.0,25.0,3.39
-62.0,36.0,3.391
-54.0,31.0,3.392
-50.0,6.0,3.393
-58.0,-32.0,3.394
-69.0,-74.0,3.395
-69.0,-96.0,3.396
-60.0,-87.0,3.397
-52.0,-63.0,3.398
-46.0,-51.0,3.399
-43.0,-67.0,3.4
-44.0,-96.0,3.401
-53.0,-106.0,3.402
-58.0,-98.0,3.403
-56.0,-86.0,3.404
-51.0,-74.0,3.405
-51.0,-50.0,3.406
-47.0,-18.0,3.407
-32.0,2.0,3.408
-15.0,-2.0,3.409
-1.0,-28.0,3.41
13.0,-56.0,3.411
34.0,-70.0,3.412
57.0,-64.0,3.413
73.0,-39.0,3.414
82.0,-4.0,3.415
89.0,31.0,3.416
89.0,58.0,3.417
77.0,85.0,3.418
59.0,112.0,3.419
46.0,137.0,3.42
37.0,143.0,3.421
28.0,133.0,3.422
26.0,109.0,3.423
27.0,81.0,3.424
21.0,51.0,3.425
6.0,15.0,3.426
2.0,-25.0,3.427
22.0,-66.0,3.428
41.0,-93.0,3.429
39.0,-101.0,3.43
30.0,-95.0,3.431
33.0,-79.0,3.432
47.0,-59.0,3.433
47.0,-41.0,3.434
32.0,-26.0,3.435
22.0,-14.0,3.436
26.0,0.0,3.437
31.0,17.0,3.438
29.0,33.0,3.439
20.0,47.0,3.44
11.0,55.0,3.441
6.0,62.0,3.442
9.0,71.0,3.443
16.0,80.0,3.444
13.0,83.0,3.445
-7.0,73.0,3.446
-25.0,56.0,3.447
-30.0,36.0,3.448
-28.0,19.0,3.449
-29.0,5.0,3.45
-28.0,-7.0,3.451
-17.0,-17.0,3.452
-6.0,-27.0,3.453
-8.0,-38.0,3.454
-11.0,-44.0,3.455
0.0,-35.0,3.456
15.0,-15.0,3.457
11.0,7.0,3.458
-12.0,31.0,3.459
-38.0,53.0,3.46
-51.0,58.0,3.461
-55.0,34.0,3.462
-58.0,-9.0,3.463
-59.0,-44.0,3.464
-64.0,-55.0,3.465
-72.0,-46.0,3.466
-76.0,-21.0,3.467
-66.0,20.0,3.468
-48.0,59.0,3.469
-32.0,66.0,3.47
-19.0,43.0,3.471
-2.0,21.0,3.472
16.0,11.0,3.473
27.0,-10.0,3.474
35.0,-63.0,3.475
50.0,-128.0,3.476
65.0,-167.0,3.477
68.0,-174.0,3.478
55.0,-154.0,3.479
34.0,-116.0,3.48
18.0,-67.0,3.481
7.0,-18.0,3.482
-4.0,21.0,3.483
-16.0,49.0,3.484
-22.0,64.0,3.485
-20.0,62.0,3.486
-19.0,52.0,3.487
-27.0,49.0,3.488
-33.0,55.0,3.489
-22.0,59.0,3.49
7.0,50.0,3.491
36.0,42.0,3.492
57.0,43.0,3.493
80.0,47.0,3.494
106.0,39.0,3.495
123.0,23.0,3.496
126.0,10.0,3.497
123.0,1.0,3.498
114.0,-2.0,3.499
90.0,-4.0,3.5
58.0,-11.0,3.501
45.0,-24.0,3.502
65.0,-35.0,3.503
98.0,-32.0,3.504
113.0,-16.0,3.505
109.0,0.0,3.506
96.0,13.0,3.507
72.0,24.0,3.508
35.0,26.0,3.509
2.0,17.0,3.51
-10.0,7.0,3.511
-8.0,7.0,3.512
-7.0,18.0,3.513
-9.0,25.0,3.514
-5.0,21.0,3.515
-6.0,13.0,3.516
-19.0,10.0,3.517
-45.0,8.0,3.518
-63.0,8.0,3.519
-72.0,7.0,3.52
-80.0,2.0,3.521
-87.0,0.0,3.522
-86.0,7.0,3.523
-86.0,21.0,3.524
-102.0,32.0,3.525
-126.0,31.0,3.526
-136.0,18.0,3.527
-127.0,5.0,3.528
-118.0,-3.0,3.529
-116.0,-3.0,3.53
-107.0,-4.0,3.531
-83.0,-3.0,3.532
-51.0,0.0,3.533
-25.0,10.0,3.534
-10.0,16.0,3.535
-15.0,7.0,3.536
-29.0,-17.0,3.537
-42.0,-54.0,3.538
-43.0,-83.0,3.539
-47.0,-98.0,3.54
-62.0,-104.0,3.541
-72.0,-105.0,3.542
-65.0,-105.0,3.543
-55.0,-94.0,3.544
-61.0,-65.0,3.545
-68.0,-29.0,3.546
-53.0,-6.0,3.547
-20.0,4.0,3.548
5.0,11.0,3.549
17.0,22.0,3.55
30.0,23.0,3.551
55.0,8.0,3.552
85.0,-12.0,3.553
112.0,-26.0,3.554
131.0,-31.0,3.555
137.0,-28.0,3.556
134.0,-21.0,3.557
124.0,-11.0,3.558
113.0,0.0,3.559
102.0,12.0,3.56
90.0,20.0,3.561
75.0,30.0,3.562
57.0,41.0,3.563
36.0,43.0,3.564
9.0,36.0,3.565
-11.0,26.0,3.566
-6.0,20.0,3.567
16.0,17.0,3.568
27.0,16.0,3.569
15.0,11.0,3.57
0.0,6.0,3.571
9.0,6.0,3.572
32.0,12.0,3.573
38.0,17.0,3.574
26.0,20.0,3.575
14.0,23.0,3.576
10.0,30.0,3.577
-6.0,31.0,3.578
-32.0,29.0,3.579
-56.0,21.0,3.58
-67.0,10.0,3.581
-70.0,5.0,3.582
-62.0,0.0,3.583
-40.0,-1.0,3.584
-19.0,-1.0,3.585
-23.0,-3.0,3.586
-50.0,-9.0,3.587
-76.0,-18.0,3.588
-89.0,-20.0,3.589
-91.0,-17.0,3.59
-83.0,-11.0,3.591
-54.0,-4.0,3.592
-11.0,19.0,3.593
16.0,51.0,3.594
11.0,81.0,3.595
-10.0,105.0,3.596
-18.0,133.0,3.597
-13.0,-37.0,3.598
-14.0,71.0,3.599
-34.0,152.0,3.6
-58.0,161.0,3.601
-68.0,169.0,3.602
-62.0,174.0,3.603
-51.0,188.0,3.604
-41.0,225.0,3.605
-30.0,257.0,3.606
-26.0,270.0,3.607
-43.0,267.0,3.608
-78.0,206.0,3.609
-120.0,139.0,3.61
-145.0,64.0,3.611
-137.0,-5.0,3.612
-98.0,-52.0,3.613
-51.0,-94.0,3.614
-18.0,-124.0,3.615
3.0,-163.0,3.616
25.0,-222.0,3.617
50.0,34.0,3.618
65.0,78.0,3.619
59.0,111.0,3.62
45.0,115.0,3.621
40.0,118.0,3.622
46.0,120.0,3.623
51.0,126.0,3.624
50.0,141.0,3.625
44.0,154.0,3.626
32.0,159.0,3.627
12.0,158.0,3.628
-15.0,133.0,3.629
-31.0,106.0,3.63
-17.0,75.0,3.631
28.0,47.0,3.632
89.0,28.0,3.633
139.0,11.0,3.634
162.0,-1.0,3.635
157.0,-17.0,3.636
137.0,-41.0,3.637
111.0,-68.0,3.638
83.0,-92.0,3.639
51.0,-94.0,3.64
18.0,-77.0,3.641
-7.0,-50.0,3.642
-20.0,-29.0,3.643
-36.0,-8.0,3.644
-62.0,19.0,3.645
-89.0,45.0,3.646
-99.0,58.0,3.647
-101.0,57.0,3.648
-108.0,53.0,3.649
-106.0,51.0,3.65
-74.0,47.0,3.651
-6.0,44.0,3.652
68.0,44.0,3.653
127.0,46.0,3.654
170.0,48.0,3.655
194.0,47.0,3.656
186.0,40.0,3.657
133.0,12.0,3.658
76.0,-29.0,3.659
52.0,-64.0,3.66
49.0,-82.0,3.661
31.0,-88.0,3.662
-2.0,-90.0,3.663
-25.0,-78.0,3.664
-36.0,-43.0,3.665
-50.0,0.0,3.666
-65.0,35.0,3.667
-67.0,52.0,3.668
-56.0,58.0,3.669
-49.0,56.0,3.67
-41.0,56.0,3.671
-17.0,55.0,3.672
17.0,50.0,3.673
40.0,31.0,3.674
44.0,6.0,3.675
44.0,-8.0,3.676
43.0,-23.0,3.677
41.0,-57.0,3.678
43.0,-100.0,3.679
46.0,-126.0,3.68
28.0,-128.0,3.681
-13.0,-117.0,3.682
-43.0,-106.0,3.683
-38.0,-96.0,3.684
-26.0,-87.0,3.685
-37.0,-84.0,3.686
-60.0,-78.0,3.687
-57.0,-54.0,3.688
-24.0,-13.0,3.689
22.0,25.0,3.69
76.0,50.0,3.691
132.0,66.0,3.692
170.0,76.0,3.693
179.0,79.0,3.694
174.0,80.0,3.695
174.0,82.0,3.696
175.0,80.0,3.697
158.0,60.0,3.698
134.0,40.0,3.699
108.0,25.0,3.7
81.0,27.0,3.701
52.0,29.0,3.702
21.0,31.0,3.703
-10.0,34.0,3.704
-44.0,39.0,3.705
-75.0,40.0,3.706
-93.0,30.0,3.707
-100.0,20.0,3.708
-70.0,9.0,3.709
-41.0,2.0,3.71
-13.0,7.0,3.711
11.0,10.0,3.712
23.0,3.0,3.713
28.0,-5.0,3.714
14.0,-18.0,3.715
4.0,-29.0,3.716
2.0,-29.0,3.717
0.0,-25.0,3.718
-6.0,-4.0,3.719
-19.0,17.0,3.72
-52.0,25.0,3.721
-101.0,22.0,3.722
-131.0,28.0,3.723
-128.0,47.0,3.724
-119.0,62.0,3.725
-129.0,53.0,3.726
-140.0,34.0,3.727
-124.0,16.0,3.728
-97.0,4.0,3.729
-75.0,-8.0,3.73
-53.0,-22.0,3.731
-19.0,-34.0,3.732
15.0,-39.0,3.733
31.0,-38.0,3.734
28.0,-38.0,3.735
21.0,-53.0,3.736
17.0,-79.0,3.737
10.0,-103.0,3.738
1.0,-110.0,3.739
-15.0,-112.0,3.74
-36.0,-126.0,3.741
-56.0,-138.0,3.742
-61.0,-135.0,3.743
-57.0,-114.0,3.744
-60.0,-87.0,3.745
-75.0,-58.0,3.746
-89.0,-31.0,3.747
-94.0,-4.0,3.748
-90.0,29.0,3.749
-74.0,73.0,3.75
-39.0,126.0,3.751
8.0,174.0,3.752
53.0,208.0,3.753
79.0,222.0,3.754
90.0,217.0,3.755
100.0,207.0,3.756
113.0,206.0,3.757
122.0,202.0,3.758
116.0,168.0,3.759
93.0,86.0,3.76
66.0,-22.0,3.761
43.0,-110.0,3.762
23.0,-158.0,3.763
-2.0,-178.0,3.764
-37.0,-181.0,3.765
-75.0,-169.0,3.766
-103.0,-157.0,3.767
-118.0,-161.0,3.768
-128.0,-193.0,3.769
-136.0,-235.0,3.77
-127.0,-267.0,3.771
-96.0,-264.0,3.772
-59.0,-224.0,3.773
-32.0,-165.0,3.774
-12.0,-105.0,3.775
11.0,-42.0,3.776
32.0,25.0,3.777
43.0,95.0,3.778
50.0,147.0,3.779
50.0,169.0,3.78
35.0,171.0,3.781
5.0,176.0,3.782
-21.0,185.0,3.783
-27.0,199.0,3.784
-24.0,219.0,3.785
-27.0,241.0,3.786
-32.0,252.0,3.787
-25.0,239.0,3.788
-8.0,208.0,3.789
16.0,167.0,3.79
56.0,123.0,3.791
112.0,72.0,3.792
162.0,17.0,3.793
191.0,-33.0,3.794
211.0,-79.0,3.795
229.0,-124.0,3.796
228.0,-165.0,3.797
199.0,-194.0,3.798
163.0,-184.0,3.799
142.0,-129.0,3.8
122.0,-63.0,3.801
79.0,-10.0,3.802
27.0,26.0,3.803
-6.0,58.0,3.804
-28.0,89.0,3.805
-59.0,103.0,3.806
-93.0,95.0,3.807
-106.0,82.0,3.808
-99.0,68.0,3.809
-90.0,37.0,3.81
-79.0,-28.0,3.811
-52.0,-122.0,3.812
-18.0,-223.0,3.813
6.0,-316.0,3.814
24.0,-376.0,3.815
42.0,-387.0,3.816
50.0,-353.0,3.817
33.0,-286.0,3.818
6.0,-201.0,3.819
-10.0,-108.0,3.82
-20.0,-20.0,3.821
-42.0,53.0,3.822
-73.0,108.0,3.823
-97.0,140.0,3.824
-121.0,145.0,3.825
-157.0,127.0,3.826
-201.0,105.0,3.827
-231.0,101.0,3.828
-239.0,110.0,3.829
-231.0,115.0,3.83
-212.0,111.0,3.831
-184.0,107.0,3.832
-156.0,109.0,3.833
-134.0,114.0,3.834
-118.0,119.0,3.835
-99.0,121.0,3.836
-79.0,121.0,3.837
-57.0,114.0,3.838
-31.0,110.0,3.839
-10.0,112.0,3.84
0.0,110.0,3.841
0.0,101.0,3.842
7.0,80.0,3.843
22.0,51.0,3.844
33.0,18.0,3.845
36.0,-21.0,3.846
36.0,-65.0,3.847
40.0,-105.0,3.848
49.0,-125.0,3.849
66.0,-115.0,3.85
102.0,-82.0,3.851
154.0,-37.0,3.852
215.0,15.0,3.853
279.0,69.0,3.854
342.0,105.0,3.855
384.0,95.0,3.856
390.0,49.0,3.857
367.0,-2.0,3.858
344.0,-31.0,3.859
321.0,-49.0,3.86
275.0,-76.0,3.861
208.0,-101.0,3.862
146.0,-107.0,3.863
103.0,-91.0,3.864
60.0,-66.0,3.865
-6.0,-37.0,3.866
-95.0,-1.0,3.867
-183.0,34.0,3.868
-240.0,60.0,3.869
-239.0,69.0,3.87
-177.0,59.0,3.871
-99.0,30.0,3.872
-42.0,-12.0,3.873
1.0,-55.0,3.874
53.0,-86.0,3.875
99.0,-99.0,3.876
116.0,-98.0,3.877
114.0,-92.0,3.878
127.0,-75.0,3.879
162.0,-45.0,3.88
197.0,-6.0,3.881
211.0,34.0,3.882
208.0,67.0,3.883
178.0,90.0,3.884
123.0,109.0,3.885
61.0,120.0,3.886
14.0,118.0,3.887
-19.0,100.0,3.888
-55.0,77.0,3.889
-88.0,48.0,3.89
-102.0,11.0,3.891
-96.0,-35.0,3.892
-90.0,-73.0,3.893
-96.0,-89.0,3.894
-110.0,-88.0,3.895
-130.0,-88.0,3.896
-149.0,-101.0,3.897
-163.0,-131.0,3.898
-167.0,-165.0,3.899
-161.0,-194.0,3.9
-160.0,-204.0,3.901
-176.0,-169.0,3.902
-200.0,-89.0,3.903
-217.0,2.0,3.904
-214.0,73.0,3.905
-195.0,123.0,3.906
-174.0,165.0,3.907
-158.0,187.0,3.908
-139.0,178.0,3.909
-110.0,151.0,3.91
-70.0,144.0,3.911
-23.0,157.0,3.912
26.0,157.0,3.913
73.0,133.0,3.914
102.0,119.0,3.915
110.0,127.0,3.916
106.0,124.0,3.917
99.0,70.0,3.918
94.0,-6.0,3.919
83.0,-57.0,3.92
67.0,-81.0,3.921
46.0,-101.0,3.922
23.0,-130.0,3.923
-3.0,-156.0,3.924
-34.0,-184.0,3.925
-64.0,-227.0,3.926
-85.0,-268.0,3.927
-89.0,-274.0,3.928
-71.0,-224.0,3.929
-30.0,-129.0,3.93
32.0,-7.0,3.931
106.0,120.0,3.932
167.0,220.0,3.933
195.0,270.0,3.934
186.0,277.0,3.935
153.0,251.0,3.936
125.0,186.0,3.937
110.0,55.0,3.938
97.0,-111.0,3.939
67.0,-257.0,3.94
16.0,-342.0,3.941
-28.0,-348.0,3.942
-40.0,-277.0,3.943
-33.0,-144.0,3.944
-41.0,2.0,3.945
-63.0,103.0,3.946
-72.0,136.0,3.947
-55.0,124.0,3.948
-36.0,103.0,3.949
-23.0,96.0,3.95
2.0,116.0,3.951
52.0,159.0,3.952
102.0,210.0,3.953
127.0,243.0,3.954
132.0,241.0,3.955
134.0,205.0,3.956
136.0,143.0,3.957
126.0,57.0,3.958
101.0,-36.0,3.959
69.0,-114.0,3.96
36.0,-185.0,3.961
8.0,-254.0,3.962
-7.0,-314.0,3.963
-18.0,-338.0,3.964
-41.0,-317.0,3.965
-80.0,-257.0,3.966
-111.0,-153.0,3.967
-116.0,-1.0,3.968
-106.0,158.0,3.969
-99.0,259.0,3.97
-86.0,287.0,3.971
-58.0,291.0,3.972
-19.0,309.0,3.973
10.0,316.0,3.974
23.0,277.0,3.975
31.0,212.0,3.976
40.0,155.0,3.977
45.0,78.0,3.978
45.0,-37.0,3.979
31.0,-144.0,3.98
0.0,-226.0,3.981
-44.0,-306.0,3.982
-83.0,-378.0,3.983
-101.0,-446.0,3.984
-108.0,-501.0,3.985
-120.0,-521.0,3.986
-135.0,-432.0,3.987
-135.0,-323.0,3.988
-115.0,-153.0,3.989
-73.0,6.0,3.99
-16.0,136.0,3.991
37.0,227.0,3.992
64.0,198.0,3.993
69.0,183.0,3.994
81.0,213.0,3.995
107.0,244.0,3.996
129.0,279.0,3.997
134.0,305.0,3.998
121.0,281.0,3.999
100.0,207.0,4.0
63.0,108.0,4.001
21.0,35.0,4.002
-11.0,-5.0,4.003
-40.0,-48.0,4.004
-103.0,-105.0,4.005
-206.0,-149.0,4.006
-294.0,-160.0,4.007
-302.0,-150.0,4.008
-245.0,-133.0,4.009
-185.0,-111.0,4.01
-158.0,-84.0,4.011
-130.0,-42.0,4.012
-70.0,44.0,4.013
3.0,186.0,4.014
46.0,337.0,4.015
60.0,440.0,4.016
69.0,488.0,4.017
77.0,528.0,4.018
78.0,575.0,4.019
74.0,591.0,4.02
51.0,510.0,4.021
29.0,384.0,4.022
8.0,126.0,4.023
-14.0,-124.0,4.024
-39.0,-348.0,4.025
-63.0,-537.0,4.026
-82.0,-623.0,4.027
-99.0,-679.0,4.028
-107.0,-639.0,4.029
-108.0,-590.0,4.03
-88.0,-516.0,4.031
-66.0,-402.0,4.032
-37.0,-172.0,4.033
2.0,46.0,4.034
70.0,232.0,4.035
141.0,368.0,4.036
222.0,352.0,4.037
292.0,315.0,4.038
301.0,188.0,4.039
269.0,4.0,4.04
221.0,-179.0,4.041
168.0,-302.0,4.042
118.0,-387.0,4.043
70.0,-491.0,4.044
28.0,-596.0,4.045
-8.0,-614.0,4.046
-39.0,-508.0,4.047
-71.0,-333.0,4.048
-95.0,-163.0,4.049
-95.0,-21.0,4.05
-64.0,97.0,4.051
-15.0,191.0,4.052
29.0,256.0,4.053
55.0,296.0,4.054
63.0,318.0,4.055
61.0,324.0,4.056
63.0,335.0,4.057
76.0,357.0,4.058
89.0,388.0,4.059
87.0,416.0,4.06
67.0,450.0,4.061
43.0,501.0,4.062
35.0,540.0,4.063
37.0,533.0,4.064
33.0,476.0,4.065
22.0,401.0,4.066
15.0,312.0,4.067
17.0,182.0,4.068
17.0,-6.0,4.069
11.0,-233.0,4.07
14.0,-456.0,4.071
29.0,-631.0,4.072
44.0,-724.0,4.073
41.0,-719.0,4.074
22.0,-634.0,4.075
2.0,-498.0,4.076
-1.0,-345.0,4.077
11.0,-179.0,4.078
33.0,-35.0,4.079
50.0,63.0,4.08
53.0,130.0,4.081
45.0,223.0,4.082
45.0,357.0,4.083
65.0,486.0,4.084
90.0,556.0,4.085
90.0,566.0,4.086
49.0,553.0,4.087
-19.0,530.0,4.088
-90.0,477.0,4.089
-142.0,377.0,4.09
-163.0,243.0,4.091
-147.0,90.0,4.092
-104.0,-87.0,4.093
-71.0,-288.0,4.094
-73.0,-485.0,4.095
-101.0,-643.0,4.096
-121.0,-746.0,4.097
-133.0,-812.0,4.098
-155.0,-826.0,4.099
-197.0,-753.0,4.1
-221.0,-596.0,4.101
-198.0,-400.0,4.102
-144.0,-223.0,4.103
-101.0,-84.0,4.104
-87.0,30.0,4.105
-80.0,135.0,4.106
-64.0,252.0,4.107
-44.0,387.0,4.108
-31.0,528.0,4.109
-21.0,639.0,4.11
2.0,688.0,4.111
39.0,665.0,4.112
73.0,566.0,4.113
90.0,389.0,4.114
98.0,154.0,4.115
108.0,-101.0,4.116
114.0,-334.0,4.117
111.0,-543.0,4.118
100.0,-696.0,4.119
84.0,-796.0,4.12
63.0,-737.0,4.121
40.0,-640.0,4.122
25.0,-430.0,4.123
17.0,-222.0,4.124
6.0,-23.0,4.125
-4.0,144.0,4.126
3.0,216.0,4.127
23.0,269.0,4.128
37.0,265.0,4.129
42.0,264.0,4.13
57.0,277.0,4.131
90.0,287.0,4.132
120.0,289.0,4.133
135.0,288.0,4.134
146.0,277.0,4.135
165.0,271.0,4.136
178.0,283.0,4.137
170.0,295.0,4.138
148.0,303.0,4.139
124.0,295.0,4.14
99.0,240.0,4.141
70.0,131.0,4.142
45.0,0.0,4.143
32.0,-108.0,4.144
28.0,-183.0,4.145
26.0,-238.0,4.146
22.0,-267.0,4.147
17.0,-242.0,4.148
0.0,-155.0,4.149
-20.0,-46.0,4.15
-15.0,57.0,4.151
31.0,182.0,4.152
98.0,353.0,4.153
139.0,506.0,4.154
128.0,524.0,4.155
82.0,380.0,4.156
35.0,192.0,4.157
-13.0,12.0,4.158
-70.0,-181.0,4.159
-136.0,-380.0,4.16
-199.0,-596.0,4.161
-252.0,-747.0,4.162
-295.0,-702.0,4.163
-324.0,-623.0,4.164
-333.0,-445.0,4.165
-323.0,-276.0,4.166
-294.0,-133.0,4.167
-245.0,-11.0,4.168
-196.0,43.0,4.169
-174.0,108.0,4.17
-182.0,200.0,4.171
-190.0,255.0,4.172
-166.0,197.0,4.173
-119.0,149.0,4.174
-69.0,131.0,4.175
-21.0,111.0,4.176
22.0,82.0,4.177
46.0,58.0,4.178
43.0,63.0,4.179
40.0,60.0,4.18
37.0,28.0,4.181
39.0,14.0,4.182
59.0,48.0,4.183
76.0,95.0,4.184
88.0,129.0,4.185
91.0,164.0,4.186
65.0,192.0,4.187
33.0,153.0,4.188
-19.0,16.0,4.189
-60.0,-144.0,4.19
-69.0,-240.0,4.191
-68.0,-278.0,4.192
-34.0,-313.0,4.193
-9.0,-333.0,4.194
-7.0,-271.0,4.195
-1.0,-134.0,4.196
16.0,-5.0,4.197
35.0,84.0,4.198
49.0,138.0,4.199
57.0,138.0,4.2
56.0,18.0,4.201
49.0,-215.0,4.202
58.0,-445.0,4.203
92.0,-545.0,4.204
126.0,-496.0,4.205
128.0,-356.0,4.206
106.0,-162.0,4.207
91.0,103.0,4.208
94.0,428.0,4.209
106.0,723.0,4.21
119.0,857.0,4.211
137.0,772.0,4.212
151.0,542.0,4.213
144.0,298.0,4.214
115.0,89.0,4.215
81.0,-119.0,4.216
59.0,-323.0,4.217
45.0,-476.0,4.218
41.0,-493.0,4.219
35.0,-386.0,4.22
16.0,-226.0,4.221
-10.0,-36.0,4.222
-20.0,201.0,4.223
-12.0,457.0,4.224
-11.0,641.0,4.225
-23.0,672.0,4.226
-27.0,547.0,4.227
-23.0,328.0,4.228
-32.0,93.0,4.229
-63.0,-108.0,4.23
-96.0,-262.0,4.231
-112.0,-381.0,4.232
-122.0,-466.0,4.233
-135.0,-493.0,4.234
-141.0,-440.0,4.235
-125.0,-320.0,4.236
-93.0,-195.0,4.237
-55.0,-100.0,4.238
-22.0,-33.0,4.239
-7.0,26.0,4.24
-7.0,79.0,4.241
-12.0,127.0,4.242
-13.0,192.0,4.243
-17.0,262.0,4.244
-24.0,272.0,4.245
-18.0,186.0,4.246
12.0,72.0,4.247
45.0,33.0,4.248
59.0,87.0,4.249
64.0,183.0,4.25
74.0,276.0,4.251
82.0,350.0,4.252
80.0,354.0,4.253
76.0,252.0,4.254
79.0,95.0,4.255
81.0,-24.0,4.256
74.0,-73.0,4.257
63.0,-87.0,4.258
60.0,-59.0,4.259
60.0,14.0,4.26
52.0,44.0,4.261
36.0,-92.0,4.262
35.0,-380.0,4.263
71.0,-624.0,4.264
143.0,-664.0,4.265
220.0,-531.0,4.266
246.0,-362.0,4.267
198.0,-263.0,4.268
117.0,-250.0,4.269
61.0,-263.0,4.27
9.0,-213.0,4.271
-100.0,-80.0,4.272
-234.0,20.0,4.273
-258.0,-27.0,4.274
-149.0,-154.0,4.275
-64.0,-163.0,4.276
-108.0,10.0,4.277
-136.0,253.0,4.278
14.0,422.0,4.279
170.0,545.0,4.28
342.0,526.0,4.281
480.0,474.0,4.282
517.0,322.0,4.283
530.0,159.0,4.284
467.0,-32.0,4.285
388.0,-143.0,4.286
266.0,-11.0,4.287
155.0,80.0,4.288
75.0,48.0,4.289
-4.0,-19.0,4.29
-77.0,-191.0,4.291
-130.0,-304.0,4.292
-120.0,-236.0,4.293
-125.0,-167.0,4.294
-178.0,-99.0,4.295
-221.0,-66.0,4.296
-233.0,-144.0,4.297
-243.0,-229.0,4.298
-253.0,-296.0,4.299
-259.0,-279.0,4.3
-260.0,-194.0,4.301
-255.0,-40.0,4.302
-232.0,151.0,4.303
-201.0,289.0,4.304
-184.0,306.0,4.305
-179.0,268.0,4.306
-164.0,280.0,4.307
-136.0,313.0,4.308
-116.0,257.0,4.309
-108.0,127.0,4.31
-100.0,72.0,4.311
-88.0,168.0,4.312
-83.0,299.0,4.313
-81.0,295.0,4.314
-68.0,123.0,4.315
-49.0,-88.0,4.316
-41.0,-204.0,4.317
-58.0,-216.0,4.318
-86.0,-210.0,4.319
-117.0,-268.0,4.32
-129.0,-352.0,4.321
-101.0,-328.0,4.322
-37.0,-123.0,4.323
22.0,163.0,4.324
38.0,322.0,4.325
17.0,231.0,4.326
3.0,-19.0,4.327
14.0,-226.0,4.328
23.0,-305.0,4.329
12.0,-333.0,4.33
-14.0,-358.0,4.331
-37.0,-293.0,4.332
-39.0,-71.0,4.333
-8.0,189.0,4.334
40.0,311.0,4.335
71.0,274.0,4.336
71.0,206.0,4.337
56.0,165.0,4.338
51.0,122.0,4.339
50.0,57.0,4.34
41.0,23.0,4.341
30.0,60.0,4.342
24.0,107.0,4.343
4.0,100.0,4.344
-41.0,56.0,4.345
-95.0,33.0,4.346
-169.0,37.0,4.347
-308.0,39.0,4.348
-498.0,36.0,4.349
-631.0,35.0,4.35
-619.0,36.0,4.351
-511.0,23.0,4.352
-406.0,12.0,4.353
-322.0,29.0,4.354
-211.0,73.0,4.355
-77.0,108.0,4.356
20.0,99.0,4.357
76.0,45.0,4.358
122.0,-20.0,4.359
168.0,-58.0,4.36
199.0,-69.0,4.361
213.0,-71.0,4.362
246.0,-78.0,4.363
296.0,-84.0,4.364
331.0,-79.0,4.365
335.0,-57.0,4.366
331.0,-31.0,4.367
329.0,-27.0,4.368
318.0,-54.0,4.369
292.0,-87.0,4.37
272.0,-90.0,4.371
259.0,-78.0,4.372
233.0,-94.0,4.373
193.0,-122.0,4.374
159.0,-108.0,4.375
148.0,-55.0,4.376
153.0,-28.0,4.377
164.0,-34.0,4.378
186.0,-16.0,4.379
219.0,4.0,4.38
280.0,33.0,4.381
361.0,53.0,4.382
501.0,41.0,4.383
618.0,32.0,4.384
666.0,37.0,4.385
682.0,37.0,4.386
603.0,22.0,4.387
521.0,10.0,4.388
434.0,12.0,4.389
332.0,15.0,4.39
187.0,13.0,4.391
65.0,21.0,4.392
14.0,57.0,4.393
-26.0,96.0,4.394
-38.0,141.0,4.395
-57.0,134.0,4.396
-101.0,-34.0,4.397
-150.0,-217.0,4.398
-206.0,-348.0,4.399
-256.0,-271.0,4.4
-320.0,-100.0,4.401
-406.0,28.0,4.402
-476.0,118.0,4.403
-490.0,208.0,4.404
-467.0,208.0,4.405
-437.0,48.0,4.406
-400.0,-140.0,4.407
-349.0,-161.0,4.408
-309.0,-37.0,4.409
-302.0,52.0,4.41
-299.0,53.0,4.411
-263.0,63.0,4.412
-208.0,102.0,4.413
-176.0,75.0,4.414
-165.0,-17.0,4.415
-135.0,-22.0,4.416
-73.0,125.0,4.417
6.0,329.0,4.418
46.0,403.0,4.419
61.0,269.0,4.42
81.0,2.0,4.421
121.0,-245.0,4.422
172.0,-363.0,4.423
223.0,-359.0,4.424
266.0,-319.0,4.425
283.0,-282.0,4.426
258.0,-197.0,4.427
204.0,-49.0,4.428
168.0,69.0,4.429
182.0,90.0,4.43
234.0,64.0,4.431
270.0,64.0,4.432
249.0,77.0,4.433
159.0,57.0,4.434
16.0,32.0,4.435
-111.0,38.0,4.436
-151.0,51.0,4.437
-96.0,40.0,4.438
-22.0,31.0,4.439
29.0,24.0,4.44
10.0,24.0,4.441
-6.0,24.0,4.442
-18.0,18.0,4.443
-67.0,13.0,4.444
-231.0,9.0,4.445
-430.0,2.0,4.446
-735.0,-14.0,4.447
-949.0,-24.0,4.448
-891.0,-12.0,4.449
-791.0,-3.0,4.45
-562.0,-7.0,4.451
-382.0,-9.0,4.452
-352.0,-6.0,4.453
-291.0,-3.0,4.454
-140.0,2.0,4.455
-17.0,9.0,4.456
18.0,24.0,4.457
62.0,40.0,4.458
145.0,59.0,4.459
208.0,65.0,4.46
220.0,29.0,4.461
234.0,-36.0,4.462
281.0,-84.0,4.463
313.0,-85.0,4.464
311.0,-67.0,4.465
312.0,-57.0,4.466
343.0,-34.0,4.467
384.0,43.0,4.468
430.0,179.0,4.469
502.0,312.0,4.47
589.0,340.0,4.471
642.0,184.0,4.472
639.0,-119.0,4.473
592.0,-392.0,4.474
524.0,-471.0,4.475
441.0,-377.0,4.476
368.0,-264.0,4.477
308.0,-200.0,4.478
243.0,-118.0,4.479
162.0,28.0,4.48
91.0,144.0,4.481
59.0,140.0,4.482
54.0,73.0,4.483
39.0,63.0,4.484
13.0,114.0,4.485
-6.0,131.0,4.486
-16.0,90.0,4.487
-26.0,58.0,4.488
-41.0,69.0,4.489
-65.0,80.0,4.49
-103.0,63.0,4.491
-154.0,57.0,4.492
-195.0,86.0,4.493
-213.0,104.0,4.494
-209.0,56.0,4.495
-190.0,-24.0,4.496
-161.0,-57.0,4.497
-130.0,-30.0,4.498
-111.0,1.0,4.499
-120.0,-15.0,4.5
-162.0,-56.0,4.501
-233.0,-56.0,4.502
-327.0,-2.0,4.503
-425.0,57.0,4.504
-488.0,72.0,4.505
-477.0,39.0,4.506
-412.0,-4.0,4.507
-367.0,-25.0,4.508
-382.0,-31.0,4.509
-407.0,-48.0,4.51
-385.0,-81.0,4.511
-341.0,-91.0,4.512
-341.0,-58.0,4.513
-367.0,-13.0,4.514
-347.0,5.0,4.515
-275.0,-1.0,4.516
-215.0,2.0,4.517
-209.0,13.0,4.518
-225.0,19.0,4.519
-252.0,13.0,4.52
-309.0,6.0,4.521
-355.0,13.0,4.522
-366.0,22.0,4.523
-350.0,27.0,4.524
-252.0,32.0,4.525
-160.0,35.0,4.526
-87.0,32.0,4.527
-8.0,25.0,4.528
89.0,21.0,4.529
190.0,21.0,4.53
299.0,15.0,4.531
384.0,9.0,4.532
400.0,8.0,4.533
412.0,11.0,4.534
412.0,12.0,4.535
409.0,9.0,4.536
403.0,7.0,4.537
396.0,1.0,4.538
382.0,-7.0,4.539
360.0,-15.0,4.54
334.0,-21.0,4.541
311.0,-19.0,4.542
288.0,-17.0,4.543
250.0,-17.0,4.544
202.0,-14.0,4.545
165.0,-9.0,4.546
147.0,-9.0,4.547
130.0,-11.0,4.548
106.0,-11.0,4.549
81.0,-6.0,4.55
64.0,-10.0,4.551
46.0,-18.0,4.552
23.0,-24.0,4.553
5.0,-25.0,4.554
0.0,-25.0,4.555
2.0,-26.0,4.556
1.0,-24.0,4.557
-3.0,-23.0,4.558
1.0,-26.0,4.559
13.0,-29.0,4.56
28.0,-26.0,4.561
37.0,-16.0,4.562
37.0,-13.0,4.563
24.0,-15.0,4.564
0.0,-12.0,4.565
-20.0,-1.0,4.566
-30.0,9.0,4.567
-36.0,17.0,4.568
-43.0,22.0,4.569
-48.0,22.0,4.57
-44.0,26.0,4.571
-30.0,44.0,4.572
-21.0,61.0,4.573
-22.0,43.0,4.574
-28.0,-18.0,4.575
-19.0,-76.0,4.576
14.0,-85.0,4.577
73.0,-66.0,4.578
150.0,-54.0,4.579
219.0,-57.0,4.58
254.0,-50.0,4.581
239.0,-24.0,4.582
204.0,-6.0,4.583
179.0,2.0,4.584
164.0,12.0,4.585
142.0,26.0,4.586
105.0,30.0,4.587
63.0,38.0,4.588
26.0,71.0,4.589
-2.0,109.0,4.59
-5.0,109.0,4.591
27.0,59.0,4.592
62.0,-4.0,4.593
73.0,-44.0,4.594
73.0,-61.0,4.595
97.0,-68.0,4.596
129.0,-66.0,4.597
119.0,-57.0,4.598
52.0,-45.0,4.599
-21.0,-39.0,4.6
-53.0,-33.0,4.601
-58.0,-4.0,4.602
-64.0,40.0,4.603
-71.0,72.0,4.604
-80.0,72.0,4.605
-109.0,55.0,4.606
-167.0,47.0,4.607
-224.0,45.0,4.608
-257.0,38.0,4.609
-278.0,22.0,4.61
-301.0,10.0,4.611
-313.0,10.0,4.612
-291.0,16.0,4.613
-254.0,20.0,4.614
-219.0,16.0,4.615
-189.0,10.0,4.616
-159.0,7.0,4.617
-137.0,1.0,4.618
-124.0,-4.0,4.619
-97.0,-8.0,4.62
-39.0,-12.0,4.621
22.0,-8.0,4.622
44.0,-4.0,4.623
16.0,-2.0,4.624
-31.0,-5.0,4.625
-82.0,-9.0,4.626
-143.0,-13.0,4.627
-216.0,-19.0,4.628
-277.0,-26.0,4.629
-311.0,-27.0,4.63
-337.0,-19.0,4.631
-387.0,-9.0,4.632
-458.0,-4.0,4.633
-520.0,-5.0,4.634
-533.0,-6.0,4.635
-484.0,-9.0,4.636
-403.0,-15.0,4.637
-326.0,-23.0,4.638
-280.0,-17.0,4.639
-255.0,-1.0,4.64
-210.0,5.0,4.641
-127.0,0.0,4.642
-21.0,-7.0,4.643
87.0,-6.0,4.644
181.0,1.0,4.645
234.0,5.0,4.646
228.0,4.0,4.647
185.0,1.0,4.648
143.0,1.0,4.649
119.0,-1.0,4.65
107.0,-5.0,4.651
113.0,-8.0,4.652
147.0,-11.0,4.653
197.0,-14.0,4.654
239.0,-11.0,4.655
273.0,-2.0,4.656
308.0,6.0,4.657
334.0,4.0,4.658
330.0,4.0,4.659
298.0,3.0,4.66
276.0,-7.0,4.661
300.0,-15.0,4.662
380.0,-18.0,4.663
501.0,-21.0,4.664
632.0,-21.0,4.665
705.0,-20.0,4.666
646.0,-19.0,4.667
454.0,-18.0,4.668
233.0,-17.0,4.669
99.0,-16.0,4.67
17.0,-13.0,4.671
-215.0,-11.0,4.672
-739.0,-11.0,4.673
-1390.0,-11.0,4.674
-1788.0,-9.0,4.675
-1727.0,-6.0,4.676
-1411.0,0.0,4.677
1749.0,2.0,4.678
1607.0,2.0,4.679
1438.0,1.0,4.68
1192.0,-8.0,4.681
949.0,-14.0,4.682
715.0,-17.0,4.683
481.0,-20.0,4.684
241.0,-20.0,4.685
-12.0,-19.0,4.686
-303.0,-18.0,4.687
-571.0,-17.0,4.688
-768.0,-16.0,4.689
-946.0,-15.0,4.69
-1061.0,-13.0,4.691
-1127.0,-11.0,4.692
-1042.0,-11.0,4.693
-990.0,-11.0,4.694
-1040.0,-9.0,4.695
-1066.0,-6.0,4.696
-1022.0,-2.0,4.697
1388.0,16.0,4.698
1274.0,16.0,4.699
1139.0,13.0,4.7
941.0,-4.0,4.701
746.0,-18.0,4.702
559.0,-24.0,4.703
371.0,-29.0,4.704
178.0,-29.0,4.705
-25.0,-28.0,4.706
-259.0,-26.0,4.707
-474.0,-24.0,4.708
-632.0,-22.0,4.709
-775.0,-20.0,4.71
-867.0,-16.0,4.711
-920.0,-12.0,4.712
-852.0,-12.0,4.713
-810.0,-10.0,4.714
-850.0,-7.0,4.715
-871.0,-1.0,4.716
-836.0,8.0,4.717
-786.0,17.0,4.718
-715.0,17.0,4.719
-683.0,15.0,4.72
-665.0,12.0,4.721
-632.0,9.0,4.722
-588.0,2.0,4.723
-546.0,-4.0,4.724
-514.0,-8.0,4.725
-478.0,-9.0,4.726
-418.0,-9.0,4.727
-321.0,-10.0,4.728
-203.0,-14.0,4.729
-95.0,-21.0,4.73
-22.0,-23.0,4.731
33.0,-20.0,4.732
102.0,-18.0,4.733
206.0,-18.0,4.734
335.0,-13.0,4.735
472.0,-6.0,4.736
586.0,1.0,4.737
648.0,4.0,4.738
634.0,9.0,4.739
570.0,17.0,4.74
490.0,16.0,4.741
374.0,11.0,4.742
201.0,10.0,4.743
27.0,17.0,4.744
-67.0,25.0,4.745
-96.0,22.0,4.746
-142.0,17.0,4.747
-225.0,15.0,4.748
-285.0,16.0,4.749
-300.0,12.0,4.75
-306.0,7.0,4.751
-322.0,1.0,4.752
-323.0,-3.0,4.753
-308.0,-5.0,4.754
-304.0,-5.0,4.755
-309.0,-4.0,4.756
-299.0,-4.0,4.757
-273.0,-8.0,4.758
-259.0,-6.0,4.759
-266.0,-1.0,4.76
-271.0,-6.0,4.761
-266.0,-10.0,4.762
-262.0,-8.0,4.763
-260.0,3.0,4.764
-250.0,11.0,4.765
-236.0,11.0,4.766
-228.0,7.0,4.767
-221.0,1.0,4.768
-209.0,-4.0,4.769
-192.0,-5.0,4.77
-184.0,-3.0,4.771
-184.0,0.0,4.772
-190.0,0.0,4.773
-197.0,0.0,4.774
-189.0,3.0,4.775
-151.0,6.0,4.776
-88.0,9.0,4.777
-27.0,9.0,4.778
9.0,14.0,4.779
22.0,18.0,4.78
34.0,11.0,4.781
56.0,1.0,4.782
80.0,-6.0,4.783
91.0,-7.0,4.784
78.0,-6.0,4.785
44.0,-7.0,4.786
14.0,-8.0,4.787
-3.0,-9.0,4.788
-12.0,-11.0,4.789
-22.0,-9.0,4.79
-26.0,0.0,4.791
-24.0,12.0,4.792
-32.0,21.0,4.793
-65.0,22.0,4.794
-98.0,15.0,4.795
-97.0,6.0,4.796
-50.0,2.0,4.797
23.0,1.0,4.798
99.0,2.0,4.799
146.0,1.0,4.8
138.0,-5.0,4.801
67.0,-13.0,4.802
-36.0,-24.0,4.803
-115.0,-30.0,4.804
-142.0,-30.0,4.805
-127.0,-25.0,4.806
-95.0,-23.0,4.807
-58.0,-24.0,4.808
-15.0,-23.0,4.809
47.0,-16.0,4.81
124.0,-7.0,4.811
198.0,-1.0,4.812
248.0,3.0,4.813
281.0,3.0,4.814
316.0,1.0,4.815
354.0,0.0,4.816
380.0,6.0,4.817
385.0,14.0,4.818
386.0,21.0,4.819
385.0,26.0,4.82
373.0,29.0,4.821
351.0,34.0,4.822
333.0,33.0,4.823
318.0,20.0,4.824
291.0,6.0,4.825
249.0,-1.0,4.826
216.0,0.0,4.827
204.0,-4.0,4.828
196.0,-12.0,4.829
182.0,-20.0,4.83
179.0,-20.0,4.831
199.0,-14.0,4.832
226.0,-2.0,4.833
238.0,18.0,4.834
226.0,42.0,4.835
201.0,62.0,4.836
174.0,75.0,4.837
144.0,82.0,4.838
107.0,94.0,4.839
60.0,101.0,4.84
7.0,91.0,4.841
-38.0,77.0,4.842
-65.0,47.0,4.843
-81.0,16.0,4.844
-103.0,-19.0,4.845
-125.0,-48.0,4.846
-132.0,-57.0,4.847
-126.0,-66.0,4.848
-122.0,-75.0,4.849
-122.0,-93.0,4.85
-114.0,-135.0,4.851
-98.0,-170.0,4.852
-90.0,-186.0,4.853
-92.0,-191.0,4.854
-88.0,-163.0,4.855
-78.0,-131.0,4.856
-72.0,-93.0,4.857
-76.0,-57.0,4.858
-82.0,-31.0,4.859
-86.0,-13.0,4.86
-94.0,8.0,4.861
-108.0,60.0,4.862
-114.0,140.0,4.863
-106.0,214.0,4.864
-102.0,254.0,4.865
-111.0,269.0,4.866
-116.0,280.0,4.867
-108.0,283.0,4.868
-90.0,261.0,4.869
-68.0,219.0,4.87
-36.0,188.0,4.871
5.0,178.0,4.872
42.0,166.0,4.873
65.0,128.0,4.874
75.0,80.0,4.875
76.0,43.0,4.876
67.0,15.0,4.877
37.0,-30.0,4.878
-12.0,-98.0,4.879
-86.0,-191.0,4.88
-180.0,-310.0,4.881
-278.0,-441.0,4.882
-351.0,-555.0,4.883
-382.0,-618.0,4.884
-372.0,-625.0,4.885
-334.0,-593.0,4.886
-296.0,-539.0,4.887
-275.0,-461.0,4.888
-259.0,-358.0,4.889
-210.0,-239.0,4.89
-123.0,-117.0,4.891
-35.0,6.0,4.892
27.0,125.0,4.893
77.0,237.0,4.894
134.0,354.0,4.895
190.0,493.0,4.896
227.0,633.0,4.897
246.0,719.0,4.898
257.0,679.0,4.899
255.0,522.0,4.9
235.0,333.0,4.901
214.0,198.0,4.902
207.0,114.0,4.903
211.0,46.0,4.904
206.0,-16.0,4.905
190.0,-67.0,4.906
178.0,-113.0,4.907
173.0,-168.0,4.908
162.0,-225.0,4.909
143.0,-257.0,4.91
125.0,-245.0,4.911
119.0,-187.0,4.912
117.0,-113.0,4.913
114.0,-71.0,4.914
120.0,-98.0,4.915
141.0,-168.0,4.916
167.0,-219.0,4.917
177.0,-233.0,4.918
167.0,-208.0,4.919
140.0,-136.0,4.92
98.0,-23.0,4.921
44.0,84.0,4.922
-16.0,129.0,4.923
-70.0,126.0,4.924
-105.0,138.0,4.925
-123.0,167.0,4.926
-124.0,171.0,4.927
-115.0,162.0,4.928
-103.0,220.0,4.929
-86.0,365.0,4.93
-55.0,515.0,4.931
-18.0,560.0,4.932
6.0,461.0,4.933
17.0,270.0,4.934
29.0,93.0,4.935
49.0,-8.0,4.936
64.0,-53.0,4.937
59.0,-118.0,4.938
41.0,-213.0,4.939
20.0,-299.0,4.94
-10.0,-373.0,4.941
-46.0,-455.0,4.942
-77.0,-532.0,4.943
-103.0,-540.0,4.944
-142.0,-434.0,4.945
-192.0,-243.0,4.946
-222.0,-29.0,4.947
-214.0,124.0,4.948
-181.0,155.0,4.949
-136.0,73.0,4.95
-76.0,-24.0,4.951
-7.0,-61.0,4.952
35.0,-51.0,4.953
40.0,-34.0,4.954
36.0,-3.0,4.955
46.0,56.0,4.956
63.0,97.0,4.957
66.0,83.0,4.958
59.0,58.0,4.959
43.0,87.0,4.96
4.0,155.0,4.961
-31.0,221.0,4.962
-52.0,282.0,4.963
-70.0,351.0,4.964
-76.0,384.0,4.965
-85.0,324.0,4.966
-97.0,186.0,4.967
-104.0,48.0,4.968
-90.0,-47.0,4.969
-71.0,-95.0,4.97
-33.0,-97.0,4.971
5.0,-63.0,4.972
47.0,-38.0,4.973
84.0,-49.0,4.974
100.0,-61.0,4.975
117.0,-29.0,4.976
134.0,26.0,4.977
150.0,53.0,4.978
144.0,41.0,4.979
121.0,12.0,4.98
92.0,-35.0,4.981
68.0,-130.0,4.982
49.0,-260.0,4.983
26.0,-372.0,4.984
-10.0,-425.0,4.985
-49.0,-421.0,4.986
-67.0,-358.0,4.987
-54.0,-227.0,4.988
-20.0,-42.0,4.989
21.0,137.0,4.99
62.0,257.0,4.991
99.0,309.0,4.992
132.0,309.0,4.993
162.0,262.0,4.994
185.0,174.0,4.995
195.0,70.0,4.996
198.0,-23.0,4.997
194.0,-127.0,4.998
180.0,-247.0,4.999
135.0,-341.0,5.0
58.0,-339.0,5.001
-31.0,-216.0,5.002
-125.0,-49.0,5.003
-254.0,62.0,5.004
-411.0,106.0,5.005
-503.0,146.0,5.006
-449.0,219.0,5.007
-312.0,295.0,5.008
-234.0,356.0,5.009
-236.0,416.0,5.01
-203.0,440.0,5.011
-80.0,330.0,5.012
28.0,59.0,5.013
32.0,-244.0,5.014
-5.0,-415.0,5.015
27.0,-429.0,5.016
105.0,-379.0,5.017
132.0,-302.0,5.018
74.0,-165.0,5.019
0.0,41.0,5.02
-4.0,224.0,5.021
54.0,294.0,5.022
111.0,275.0,5.023
121.0,290.0,5.024
92.0,394.0,5.025
49.0,496.0,5.026
1.0,449.0,5.027
-62.0,227.0,5.028
-127.0,-50.0,5.029
-156.0,-251.0,5.03
-145.0,-338.0,5.031
-124.0,-345.0,5.032
-110.0,-320.0,5.033
-85.0,-296.0,5.034
-39.0,-280.0,5.035
7.0,-241.0,5.036
39.0,-163.0,5.037
60.0,-68.0,5.038
74.0,-1.0,5.039
71.0,42.0,5.04
64.0,86.0,5.041
75.0,113.0,5.042
94.0,67.0,5.043
97.0,-67.0,5.044
85.0,-256.0,5.045
72.0,-466.0,5.046
41.0,-654.0,5.047
-32.0,-739.0,5.048
-124.0,-652.0,5.049
-171.0,-432.0,5.05
-153.0,-196.0,5.051
-103.0,-16.0,5.052
-57.0,122.0,5.053
-12.0,247.0,5.054
28.0,332.0,5.055
43.0,333.0,5.056
26.0,273.0,5.057
-2.0,206.0,5.058
-27.0,185.0,5.059
-52.0,198.0,5.06
-87.0,219.0,5.061
-120.0,264.0,5.062
-128.0,360.0,5.063
-108.0,490.0,5.064
-86.0,604.0,5.065
-83.0,677.0,5.066
-102.0,701.0,5.067
-130.0,640.0,5.068
-152.0,460.0,5.069
-159.0,195.0,5.07
-150.0,-82.0,5.071
-127.0,-345.0,5.072
-80.0,-587.0,5.073
-6.0,-740.0,5.074
85.0,-729.0,5.075
160.0,-586.0,5.076
199.0,-418.0,5.077
213.0,-225.0,5.078
220.0,29.0,5.079
218.0,278.0,5.08
200.0,372.0,5.081
175.0,299.0,5.082
165.0,220.0,5.083
171.0,240.0,5.084
169.0,266.0,5.085
142.0,172.0,5.086
107.0,-24.0,5.087
74.0,-215.0,5.088
42.0,-352.0,5.089
8.0,-435.0,5.09
-16.0,-448.0,5.091
-29.0,-384.0,5.092
-26.0,-292.0,5.093
-4.0,-240.0,5.094
36.0,-244.0,5.095
64.0,-251.0,5.096
62.0,-200.0,5.097
31.0,-66.0,5.098
3.0,104.0,5.099
-7.0,221.0,5.1
-14.0,233.0,5.101
-28.0,171.0,5.102
-45.0,104.0,5.103
-56.0,65.0,5.104
-63.0,48.0,5.105
-65.0,28.0,5.106
-53.0,-10.0,5.107
-30.0,-48.0,5.108
-4.0,-40.0,5.109
14.0,42.0,5.11
24.0,176.0,5.111
36.0,301.0,5.112
52.0,377.0,5.113
69.0,404.0,5.114
81.0,386.0,5.115
87.0,312.0,5.116
84.0,194.0,5.117
72.0,64.0,5.118
57.0,-13.0,5.119
32.0,-55.0,5.12
-19.0,12.0,5.121
-114.0,80.0,5.122
-217.0,150.0,5.123
-271.0,193.0,5.124
-246.0,153.0,5.125
-184.0,100.0,5.126
-132.0,7.0,5.127
-91.0,-83.0,5.128
-39.0,-164.0,5.129
15.0,-244.0,5.13
42.0,-318.0,5.131
44.0,-362.0,5.132
45.0,-315.0,5.133
56.0,-280.0,5.134
71.0,-286.0,5.135
89.0,-297.0,5.136
109.0,-319.0,5.137
121.0,-332.0,5.138
114.0,-307.0,5.139
95.0,-278.0,5.14
71.0,-218.0,5.141
35.0,-107.0,5.142
-3.0,21.0,5.143
-18.0,134.0,5.144
-2.0,237.0,5.145
18.0,332.0,5.146
24.0,398.0,5.147
29.0,429.0,5.148
42.0,449.0,5.149
50.0,456.0,5.15
47.0,405.0,5.151
40.0,273.0,5.152
32.0,76.0,5.153
15.0,-163.0,5.154
-10.0,-413.0,5.155
-26.0,-587.0,5.156
-25.0,-598.0,5.157
-16.0,-422.0,5.158
-6.0,-241.0,5.159
-2.0,-134.0,5.16
-3.0,-46.0,5.161
-12.0,96.0,5.162
-19.0,244.0,5.163
-24.0,305.0,5.164
-28.0,269.0,5.165
-35.0,193.0,5.166
-51.0,100.0,5.167
-78.0,-15.0,5.168
-107.0,-108.0,5.169
-114.0,-108.0,5.17
-81.0,-18.0,5.171
-28.0,78.0,5.172
9.0,109.0,5.173
22.0,66.0,5.174
34.0,-16.0,5.175
53.0,-95.0,5.176
65.0,-147.0,5.177
65.0,-278.0,5.178
67.0,-131.0,5.179
64.0,-2.0,5.18
40.0,70.0,5.181
23.0,129.0,5.182
34.0,145.0,5.183
45.0,142.0,5.184
57.0,76.0,5.185
64.0,44.0,5.186
54.0,109.0,5.187
49.0,167.0,5.188
60.0,200.0,5.189
66.0,229.0,5.19
56.0,245.0,5.191
43.0,239.0,5.192
20.0,162.0,5.193
-1.0,58.0,5.194
-19.0,-125.0,5.195
-29.0,-265.0,5.196
-8.0,-269.0,5.197
10.0,-297.0,5.198
12.0,-141.0,5.199
16.0,-5.0,5.2
23.0,72.0,5.201
22.0,134.0,5.202
17.0,151.0,5.203
19.0,148.0,5.204
20.0,78.0,5.205
9.0,43.0,5.206
-8.0,113.0,5.207
-16.0,174.0,5.208
-10.0,209.0,5.209
0.0,240.0,5.21
13.0,257.0,5.211
30.0,250.0,5.212
39.0,169.0,5.213
33.0,59.0,5.214
8.0,-135.0,5.215
-21.0,-283.0,5.216
-42.0,-287.0,5.217
-49.0,-289.0,5.218
-48.0,-296.0,5.219
-55.0,-277.0,5.22
-74.0,-229.0,5.221
-82.0,-204.0,5.222
-67.0,-231.0,5.223
-46.0,-250.0,5.224
-42.0,-191.0,5.225
-44.0,-54.0,5.226
-36.0,117.0,5.227
-23.0,264.0,5.228
-24.0,317.0,5.229
-24.0,238.0,5.23
12.0,99.0,5.231
73.0,15.0,5.232
117.0,-5.0,5.233
128.0,-49.0,5.234
124.0,-139.0,5.235
123.0,-182.0,5.236
124.0,-119.0,5.237
129.0,5.0,5.238
143.0,121.0,5.239
154.0,215.0,5.24
134.0,282.0,5.241
77.0,271.0,5.242
5.0,157.0,5.243
-49.0,24.0,5.244
-76.0,-40.0,5.245
-88.0,-53.0,5.246
-102.0,-81.0,5.247
-124.0,-122.0,5.248
-143.0,-124.0,5.249
-134.0,-83.0,5.25
-103.0,-41.0,5.251
-80.0,-2.0,5.252
-85.0,68.0,5.253
-91.0,144.0,5.254
-72.0,147.0,5.255
-32.0,44.0,5.256
1.0,-91.0,5.257
17.0,-190.0,5.258
16.0,-206.0,5.259
-5.0,-159.0,5.26
-38.0,-99.0,5.261
-60.0,-64.0,5.262
-51.0,-64.0,5.263
-23.0,-58.0,5.264
-4.0,-9.0,5.265
-2.0,58.0,5.266
-7.0,87.0,5.267
-18.0,79.0,5.268
-33.0,87.0,5.269
-39.0,143.0,5.27
-20.0,204.0,5.271
13.0,206.0,5.272
24.0,141.0,5.273
-3.0,60.0,5.274
-37.0,3.0,5.275
-34.0,-54.0,5.276
3.0,-131.0,5.277
40.0,-174.0,5.278
41.0,-68.0,5.279
16.0,161.0,5.28
1.0,316.0,5.281
11.0,265.0,5.282
19.0,95.0,5.283
11.0,-36.0,5.284
1.0,-112.0,5.285
16.0,-220.0,5.286
42.0,-353.0,5.287
50.0,-403.0,5.288
40.0,-327.0,5.289
44.0,-217.0,5.29
78.0,-159.0,5.291
114.0,-120.0,5.292
123.0,-36.0,5.293
107.0,75.0,5.294
85.0,129.0,5.295
79.0,110.0,5.296
97.0,88.0,5.297
140.0,95.0,5.298
193.0,97.0,5.299
228.0,94.0,5.3
244.0,70.0,5.301
238.0,53.0,5.302
209.0,61.0,5.303
157.0,62.0,5.304
111.0,40.0,5.305
97.0,24.0,5.306
102.0,28.0,5.307
93.0,29.0,5.308
56.0,22.0,5.309
9.0,18.0,5.31
-37.0,24.0,5.311
-79.0,27.0,5.312
-111.0,18.0,5.313
-134.0,14.0,5.314
-161.0,27.0,5.315
-192.0,33.0,5.316
-209.0,18.0,5.317
-199.0,-1.0,5.318
-174.0,-34.0,5.319
-150.0,-55.0,5.32
-122.0,-53.0,5.321
-62.0,-38.0,5.322
33.0,-33.0,5.323
120.0,-22.0,5.324
158.0,3.0,5.325
155.0,15.0,5.326
147.0,-5.0,5.327
144.0,-24.0,5.328
118.0,-4.0,5.329
58.0,22.0,5.33
12.0,-6.0,5.331
27.0,-65.0,5.332
92.0,-77.0,5.333
140.0,-27.0,5.334
130.0,11.0,5.335
72.0,-8.0,5.336
18.0,-43.0,5.337
-10.0,-37.0,5.338
-13.0,12.0,5.339
-22.0,48.0,5.34
-58.0,42.0,5.341
-117.0,38.0,5.342
-173.0,74.0,5.343
-213.0,117.0,5.344
-222.0,95.0,5.345
-175.0,-6.0,5.346
-67.0,-124.0,5.347
50.0,-197.0,5.348
111.0,-214.0,5.349
110.0,-186.0,5.35
115.0,-106.0,5.351
169.0,10.0,5.352
252.0,105.0,5.353
318.0,129.0,5.354
350.0,108.0,5.355
354.0,96.0,5.356
333.0,98.0,5.357
283.0,84.0,5.358
202.0,51.0,5.359
96.0,25.0,5.36
1.0,14.0,5.361
-20.0,13.0,5.362
53.0,10.0,5.363
172.0,4.0,5.364
262.0,-2.0,5.365
308.0,-7.0,5.366
314.0,-6.0,5.367
255.0,-3.0,5.368
104.0,-6.0,5.369
-69.0,-16.0,5.37
-155.0,-18.0,5.371
-135.0,-14.0,5.372
-113.0,-15.0,5.373
-209.0,-22.0,5.374
-474.0,-23.0,5.375
-895.0,-17.0,5.376
-1339.0,-12.0,5.377
-1682.0,-13.0,5.378
-1805.0,-9.0,5.379
-1806.0,0.0,5.38
-1853.0,5.0,5.381
-1898.0,5.0,5.382
-1758.0,4.0,5.383
-1463.0,1.0,5.384
-1251.0,-3.0,5.385
-1181.0,-3.0,5.386
-1032.0,3.0,5.387
-694.0,10.0,5.388
-364.0,12.0,5.389
-209.0,11.0,5.39
-98.0,10.0,5.391
131.0,6.0,5.392
407.0,2.0,5.393
584.0,1.0,5.394
690.0,10.0,5.395
813.0,21.0,5.396
923.0,27.0,5.397
964.0,22.0,5.398
969.0,16.0,5.399
997.0,11.0,5.4
1027.0,3.0,5.401
1012.0,0.0,5.402
983.0,10.0,5.403
971.0,40.0,5.404
952.0,79.0,5.405
904.0,89.0,5.406
866.0,41.0,5.407
862.0,-35.0,5.408
848.0,-76.0,5.409
804.0,-62.0,5.41
779.0,-38.0,5.411
819.0,-43.0,5.412
882.0,-56.0,5.413
902.0,-44.0,5.414
863.0,-14.0,5.415
799.0,2.0,5.416
753.0,3.0,5.417
740.0,1.0,5.418
745.0,2.0,5.419
717.0,4.0,5.42
628.0,8.0,5.421
523.0,15.0,5.422
447.0,17.0,5.423
379.0,15.0,5.424
276.0,21.0,5.425
166.0,26.0,5.426
92.0,14.0,5.427
38.0,-9.0,5.428
-46.0,-23.0,5.429
-155.0,-20.0,5.43
-233.0,-15.0,5.431
-276.0,-14.0,5.432
-325.0,-8.0,5.433
-388.0,1.0,5.434
-436.0,1.0,5.435
-464.0,-2.0,5.436
-490.0,1.0,5.437
-522.0,8.0,5.438
-548.0,9.0,5.439
-570.0,0.0,5.44
-592.0,-6.0,5.441
-608.0,0.0,5.442
-624.0,7.0,5.443
-692.0,9.0,5.444
-871.0,6.0,5.445
-1167.0,-1.0,5.446
-1521.0,-8.0,5.447
-1796.0,-14.0,5.448
-1844.0,-14.0,5.449
-1634.0,-15.0,5.45
-1314.0,-18.0,5.451
-1070.0,-20.0,5.452
-924.0,-16.0,5.453
-786.0,-10.0,5.454
-649.0,-6.0,5.455
-582.0,-7.0,5.456
-561.0,-7.0,5.457
-463.0,-7.0,5.458
-259.0,-9.0,5.459
-76.0,-8.0,5.46
-9.0,-8.0,5.461
5.0,-6.0,5.462
71.0,-4.0,5.463
188.0,-4.0,5.464
298.0,-1.0,5.465
381.0,-2.0,5.466
457.0,-8.0,5.467
532.0,-14.0,5.468
597.0,-10.0,5.469
645.0,-1.0,5.47
675.0,0.0,5.471
685.0,-2.0,5.472
687.0,-4.0,5.473
692.0,-5.0,5.474
692.0,-9.0,5.475
683.0,-15.0,5.476
673.0,-16.0,5.477
666.0,-12.0,5.478
664.0,-2.0,5.479
662.0,6.0,5.48
663.0,11.0,5.481
663.0,14.0,5.482
643.0,12.0,5.483
598.0,10.0,5.484
547.0,13.0,5.485
516.0,16.0,5.486
512.0,15.0,5.487
522.0,14.0,5.488
527.0,13.0,5.489
509.0,12.0,5.49
475.0,12.0,5.491
449.0,13.0,5.492
437.0,14.0,5.493
412.0,14.0,5.494
351.0,12.0,5.495
277.0,11.0,5.496
229.0,15.0,5.497
207.0,18.0,5.498
187.0,16.0,5.499
163.0,7.0,5.5
142.0,-7.0,5.501
122.0,-15.0,5.502
90.0,-14.0,5.503
47.0,-11.0,5.504
4.0,-9.0,5.505
-27.0,-6.0,5.506
-39.0,-4.0,5.507
-29.0,-6.0,5.508
-23.0,-16.0,5.509
-43.0,-29.0,5.51
-82.0,-29.0,5.511
-102.0,-18.0,5.512
-97.0,-8.0,5.513
-102.0,-5.0,5.514
-136.0,-8.0,5.515
-169.0,-10.0,5.516
-178.0,-10.0,5.517
-182.0,-8.0,5.518
-205.0,-7.0,5.519
-246.0,-6.0,5.52
-280.0,-11.0,5.521
-306.0,-16.0,5.522
-328.0,-14.0,5.523
-334.0,-8.0,5.524
-320.0,0.0,5.525
-300.0,1.0,5.526
-293.0,-5.0,5.527
-298.0,-14.0,5.528
-303.0,-17.0,5.529
-304.0,-11.0,5.53
-302.0,-5.0,5.531
-299.0,-1.0,5.532
-294.0,4.0,5.533
-287.0,8.0,5.534
-268.0,12.0,5.535
-232.0,15.0,5.536
-194.0,17.0,5.537
-172.0,14.0,5.538
-169.0,8.0,5.539
-171.0,2.0,5.54
-166.0,3.0,5.541
-161.0,13.0,5.542
-163.0,23.0,5.543
-170.0,19.0,5.544
-173.0,4.0,5.545
-168.0,-10.0,5.546
-158.0,-15.0,5.547
-149.0,-18.0,5.548
-149.0,-22.0,5.549
-158.0,-26.0,5.55
-160.0,-25.0,5.551
-145.0,-20.0,5.552
-123.0,-14.0,5.553
-106.0,-12.0,5.554
-92.0,-9.0,5.555
-77.0,0.0,5.556
-62.0,11.0,5.557
-57.0,2.0,5.558
-59.0,0.0,5.559
-59.0,-2.0,5.56
-46.0,-4.0,5.561
-15.0,-6.0,5.562
28.0,-3.0,5.563
57.0,0.0,5.564
40.0,4.0,5.565
-18.0,7.0,5.566
-72.0,11.0,5.567
-90.0,15.0,5.568
-81.0,15.0,5.569
-68.0,14.0,5.57
-58.0,13.0,5.571
-44.0,10.0,5.572
-26.0,8.0,5.573
-23.0,6.0,5.574
-59.0,4.0,5.575
-152.0,3.0,5.576
-267.0,3.0,5.577
-333.0,-3.0,5.578
-301.0,-8.0,5.579
-278.0,-14.0,5.58
-285.0,-20.0,5.581
-285.0,-23.0,5.582
-263.0,-16.0,5.583
-198.0,-8.0,5.584
-3.0,1.0,5.585
170.0,11.0,5.586
280.0,22.0,5.587
399.0,31.0,5.588
543.0,31.0,5.589
658.0,30.0,5.59
685.0,26.0,5.591
683.0,20.0,5.592
593.0,14.0,5.593
521.0,8.0,5.594
503.0,2.0,5.595
504.0,-2.0,5.596
562.0,-2.0,5.597
608.0,-2.0,5.598
589.0,-6.0,5.599
548.0,-13.0,5.6
485.0,-20.0,5.601
378.0,-19.0,5.602
250.0,-16.0,5.603
142.0,-15.0,5.604
47.0,-13.0,5.605
-64.0,-8.0,5.606
-162.0,-5.0,5.607
-203.0,-6.0,5.608
-205.0,-6.0,5.609
-222.0,5.0,5.61
-259.0,21.0,5.611
-285.0,30.0,5.612
-317.0,30.0,5.613
-391.0,26.0,5.614
-476.0,17.0,5.615
-526.0,7.0,5.616
-573.0,0.0,5.617
-716.0,-5.0,5.618
-948.0,-9.0,5.619
-1156.0,-12.0,5.62
-1289.0,-16.0,5.621
-1345.0,-12.0,5.622
-1165.0,-6.0,5.623
-961.0,-5.0,5.624
-686.0,-5.0,5.625
-436.0,0.0,5.626
-260.0,9.0,5.627
-93.0,22.0,5.628
48.0,32.0,5.629
188.0,33.0,5.63
326.0,22.0,5.631
449.0,11.0,5.632
525.0,9.0,5.633
593.0,9.0,5.634
637.0,3.0,5.635
673.0,-7.0,5.636
683.0,-5.0,5.637
690.0,0.0,5.638
682.0,1.0,5.639
668.0,-4.0,5.64
630.0,-8.0,5.641
576.0,-4.0,5.642
543.0,1.0,5.643
519.0,4.0,5.644
473.0,5.0,5.645
412.0,3.0,5.646
379.0,-3.0,5.647
364.0,-10.0,5.648
317.0,-11.0,5.649
239.0,-11.0,5.65
166.0,-10.0,5.651
109.0,-11.0,5.652
60.0,-5.0,5.653
44.0,3.0,5.654
87.0,7.0,5.655
151.0,8.0,5.656
203.0,5.0,5.657
285.0,-2.0,5.658
420.0,-9.0,5.659
507.0,-12.0,5.66
478.0,-12.0,5.661
489.0,-8.0,5.662
745.0,-5.0,5.663
1142.0,0.0,5.664
1337.0,4.0,5.665
1189.0,4.0,5.666
901.0,0.0,5.667
684.0,-2.0,5.668
546.0,1.0,5.669
477.0,3.0,5.67
526.0,2.0,5.671
612.0,0.0,5.672
543.0,-4.0,5.673
307.0,-4.0,5.674
104.0,0.0,5.675
29.0,8.0,5.676
-39.0,15.0,5.677
-210.0,11.0,5.678
-391.0,-1.0,5.679
-502.0,-10.0,5.68
-596.0,-15.0,5.681
-716.0,-16.0,5.682
-803.0,-15.0,5.683
-825.0,-11.0,5.684
-851.0,-1.0,5.685
-908.0,5.0,5.686
-936.0,8.0,5.687
-909.0,10.0,5.688
-874.0,17.0,5.689
-847.0,21.0,5.69
-779.0,15.0,5.691
-672.0,6.0,5.692
-584.0,8.0,5.693
-533.0,21.0,5.694
-484.0,37.0,5.695
-430.0,47.0,5.696
-407.0,56.0,5.697
-425.0,69.0,5.698
-457.0,90.0,5.699
-493.0,112.0,5.7
-561.0,114.0,5.701
-665.0,94.0,5.702
-768.0,54.0,5.703
-840.0,12.0,5.704
-879.0,-12.0,5.705
-877.0,-14.0,5.706
-818.0,-8.0,5.707
-730.0,-17.0,5.708
-684.0,-59.0,5.709
-717.0,-128.0,5.71
-784.0,-204.0,5.711
-833.0,-263.0,5.712
-838.0,-293.0,5.713
-763.0,-289.0,5.714
-565.0,-245.0,5.715
-287.0,-166.0,5.716
-65.0,-87.0,5.717
69.0,-39.0,5.718
187.0,-24.0,5.719
335.0,-9.0,5.72
457.0,21.0,5.721
504.0,59.0,5.722
538.0,81.0,5.723
611.0,100.0,5.724
677.0,136.0,5.725
693.0,181.0,5.726
713.0,194.0,5.727
785.0,158.0,5.728
865.0,94.0,5.729
908.0,35.0,5.73
949.0,-10.0,5.731
1034.0,-52.0,5.732
1129.0,-90.0,5.733
1176.0,-108.0,5.734
1175.0,-92.0,5.735
1159.0,-50.0,5.736
1155.0,4.0,5.737
1162.0,78.0,5.738
1158.0,185.0,5.739
1091.0,312.0,5.74
940.0,413.0,5.741
751.0,451.0,5.742
590.0,408.0,5.743
453.0,299.0,5.744
315.0,132.0,5.745
202.0,-91.0,5.746
148.0,-353.0,5.747
130.0,-589.0,5.748
110.0,-722.0,5.749
82.0,-724.0,5.75
49.0,-628.0,5.751
-20.0,-476.0,5.752
-124.0,-297.0,5.753
-201.0,-117.0,5.754
-220.0,31.0,5.755
-232.0,128.0,5.756
-274.0,182.0,5.757
-316.0,199.0,5.758
-318.0,195.0,5.759
-320.0,197.0,5.76
-369.0,240.0,5.761
-438.0,331.0,5.762
-474.0,421.0,5.763
-500.0,479.0,5.764
-550.0,527.0,5.765
-598.0,590.0,5.766
-597.0,643.0,5.767
-557.0,636.0,5.768
-512.0,549.0,5.769
-454.0,381.0,5.77
-363.0,133.0,5.771
-264.0,-166.0,5.772
-192.0,-425.0,5.773
-148.0,-551.0,5.774
-121.0,-551.0,5.775
-125.0,-501.0,5.776
-155.0,-440.0,5.777
-177.0,-343.0,5.778
-157.0,-220.0,5.779
-135.0,-129.0,5.78
-168.0,-87.0,5.781
-236.0,-39.0,5.782
-270.0,16.0,5.783
-247.0,-18.0,5.784
-221.0,-212.0,5.785
-228.0,-473.0,5.786
-236.0,-649.0,5.787
-218.0,-686.0,5.788
-187.0,-621.0,5.789
-161.0,-471.0,5.79
-114.0,-233.0,5.791
-41.0,45.0,5.792
25.0,268.0,5.793
56.0,366.0,5.794
75.0,323.0,5.795
101.0,161.0,5.796
122.0,-26.0,5.797
119.0,-146.0,5.798
101.0,-134.0,5.799
83.0,-33.0,5.8
66.0,88.0,5.801
46.0,214.0,5.802
34.0,316.0,5.803
27.0,341.0,5.804
20.0,280.0,5.805
20.0,208.0,5.806
33.0,185.0,5.807
51.0,173.0,5.808
65.0,124.0,5.809
93.0,58.0,5.81
151.0,22.0,5.811
214.0,27.0,5.812
247.0,51.0,5.813
250.0,101.0,5.814
251.0,190.0,5.815
243.0,296.0,5.816
204.0,365.0,5.817
119.0,354.0,5.818
13.0,266.0,5.819
-89.0,149.0,5.82
-176.0,56.0,5.821
-231.0,15.0,5.822
-227.0,-7.0,5.823
-173.0,-56.0,5.824
-120.0,-150.0,5.825
-136.0,-274.0,5.826
-258.0,-386.0,5.827
-447.0,-435.0,5.828
-594.0,-395.0,5.829
-605.0,-285.0,5.83
-502.0,-149.0,5.831
-394.0,4.0,5.832
-334.0,205.0,5.833
-298.0,420.0,5.834
-293.0,542.0,5.835
-363.0,492.0,5.836
-447.0,345.0,5.837
-413.0,208.0,5.838
-230.0,154.0,5.839
-55.0,157.0,5.84
-1.0,180.0,5.841
24.0,240.0,5.842
122.0,301.0,5.843
223.0,253.0,5.844
231.0,45.0,5.845
207.0,-191.0,5.846
243.0,-285.0,5.847
301.0,-229.0,5.848
315.0,-170.0,5.849
330.0,-201.0,5.85
400.0,-300.0,5.851
458.0,-439.0,5.852
436.0,-606.0,5.853
379.0,-731.0,5.854
357.0,-733.0,5.855
342.0,-660.0,5.856
293.0,-631.0,5.857
245.0,-660.0,5.858
259.0,-622.0,5.859
301.0,-434.0,5.86
300.0,-139.0,5.861
262.0,206.0,5.862
242.0,558.0,5.863
245.0,836.0,5.864
228.0,940.0,5.865
182.0,865.0,5.866
132.0,689.0,5.867
92.0,440.0,5.868
61.0,115.0,5.869
53.0,-211.0,5.87
72.0,-409.0,5.871
96.0,-447.0,5.872
100.0,-414.0,5.873
88.0,-372.0,5.874
73.0,-289.0,5.875
49.0,-144.0,5.876
18.0,-3.0,5.877
-7.0,59.0,5.878
-9.0,24.0,5.879
-7.0,-35.0,5.88
-19.0,-23.0,5.881
-34.0,68.0,5.882
-33.0,141.0,5.883
-24.0,125.0,5.884
-38.0,90.0,5.885
-80.0,158.0,5.886
-123.0,344.0,5.887
-146.0,542.0,5.888
-154.0,668.0,5.889
-149.0,711.0,5.89
-126.0,637.0,5.891
-81.0,366.0,5.892
-30.0,-97.0,5.893
13.0,-575.0,5.894
56.0,-851.0,5.895
122.0,-882.0,5.896
208.0,-788.0,5.897
285.0,-647.0,5.898
319.0,-452.0,5.899
299.0,-199.0,5.9
254.0,36.0,5.901
206.0,207.0,5.902
153.0,357.0,5.903
97.0,519.0,5.904
49.0,595.0,5.905
17.0,466.0,5.906
-9.0,173.0,5.907
-35.0,-99.0,5.908
-56.0,-234.0,5.909
-60.0,-272.0,5.91
-47.0,-291.0,5.911
-28.0,-276.0,5.912
-11.0,-179.0,5.913
2.0,-3.0,5.914
6.0,192.0,5.915
0.0,342.0,5.916
-9.0,413.0,5.917
-20.0,400.0,5.918
-35.0,330.0,5.919
-61.0,249.0,5.92
-89.0,196.0,5.921
-102.0,190.0,5.922
-97.0,217.0,5.923
-90.0,236.0,5.924
-94.0,202.0,5.925
-104.0,106.0,5.926
-98.0,-16.0,5.927
-77.0,-124.0,5.928
-56.0,-213.0,5.929
-42.0,-283.0,5.93
-24.0,-341.0,5.931
-7.0,-397.0,5.932
-13.0,-447.0,5.933
-44.0,-435.0,5.934
-70.0,-294.0,5.935
-70.0,-29.0,5.936
-49.0,247.0,5.937
-19.0,453.0,5.938
7.0,521.0,5.939
20.0,439.0,5.94
7.0,259.0,5.941
-23.0,58.0,5.942
-47.0,-115.0,5.943
-64.0,-265.0,5.944
-110.0,-377.0,5.945
-205.0,-391.0,5.946
-320.0,-259.0,5.947
-391.0,-14.0,5.948
-376.0,256.0,5.949
-295.0,500.0,5.95
-210.0,696.0,5.951
-159.0,765.0,5.952
-128.0,600.0,5.953
-86.0,201.0,5.954
-39.0,-282.0,5.955
-16.0,-662.0,5.956
-12.0,-842.0,5.957
-10.0,-843.0,5.958
-3.0,-723.0,5.959
-3.0,-581.0,5.96
-11.0,-498.0,5.961
-9.0,-445.0,5.962
9.0,-344.0,5.963
31.0,-195.0,5.964
45.0,-83.0,5.965
56.0,-41.0,5.966
72.0,-21.0,5.967
85.0,-12.0,5.968
83.0,-61.0,5.969
63.0,-144.0,5.97
42.0,-150.0,5.971
35.0,-30.0,5.972
46.0,136.0,5.973
64.0,288.0,5.974
90.0,445.0,5.975
126.0,596.0,5.976
160.0,656.0,5.977
173.0,565.0,5.978
154.0,398.0,5.979
119.0,265.0,5.98
96.0,186.0,5.981
89.0,122.0,5.982
79.0,64.0,5.983
50.0,58.0,5.984
16.0,118.0,5.985
-7.0,186.0,5.986
-13.0,189.0,5.987
-10.0,116.0,5.988
-5.0,26.0,5.989
11.0,-54.0,5.99
36.0,-155.0,5.991
57.0,-289.0,5.992
63.0,-374.0,5.993
59.0,-299.0,5.994
51.0,-77.0,5.995
32.0,133.0,5.996
6.0,190.0,5.997
-9.0,93.0,5.998
5.0,-37.0,5.999
28.0,-106.0,6.0
31.0,-126.0,6.001
12.0,-137.0,6.002
-15.0,-138.0,6.003
-81.0,-107.0,6.004
-200.0,-64.0,6.005
-316.0,-34.0,6.006
-340.0,9.0,6.007
-275.0,105.0,6.008
-213.0,253.0,6.009
-205.0,398.0,6.01
-214.0,480.0,6.011
-204.0,453.0,6.012
-195.0,294.0,6.013
-195.0,19.0,6.014
-168.0,-309.0,6.015
-101.0,-602.0,6.016
-41.0,-750.0,6.017
-21.0,-501.0,6.018
-21.0,-586.0,6.019
-6.0,-588.0,6.02
27.0,-337.0,6.021
65.0,-61.0,6.022
104.0,281.0,6.023
134.0,531.0,6.024
141.0,480.0,6.025
134.0,390.0,6.026
139.0,187.0,6.027
153.0,-6.0,6.028
150.0,-165.0,6.029
127.0,-240.0,6.03
118.0,-51.0,6.031
141.0,100.0,6.032
172.0,141.0,6.033
183.0,115.0,6.034
174.0,-119.0,6.035
160.0,-286.0,6.036
151.0,-240.0,6.037
137.0,-303.0,6.038
114.0,-351.0,6.039
79.0,-352.0,6.04
46.0,-210.0,6.041
25.0,-55.0,6.042
13.0,138.0,6.043
-2.0,279.0,6.044
-20.0,250.0,6.045
-31.0,199.0,6.046
-29.0,85.0,6.047
-16.0,-24.0,6.048
-8.0,-113.0,6.049
-24.0,-156.0,6.05
-55.0,-49.0,6.051
-62.0,36.0,6.052
-23.0,59.0,6.053
24.0,44.0,6.054
38.0,-87.0,6.055
24.0,-182.0,6.056
21.0,-156.0,6.057
12.0,-235.0,6.058
-33.0,-270.0,6.059
-79.0,-271.0,6.06
-124.0,-167.0,6.061
-144.0,-53.0,6.062
-83.0,89.0,6.063
-27.0,192.0,6.064
10.0,171.0,6.065
49.0,134.0,6.066
85.0,50.0,6.067
102.0,-30.0,6.068
62.0,-96.0,6.069
25.0,-127.0,6.07
3.0,-49.0,6.071
-3.0,14.0,6.072
34.0,31.0,6.073
49.0,20.0,6.074
-7.0,-77.0,6.075
-60.0,-146.0,6.076
-106.0,-127.0,6.077
-141.0,-103.0,6.078
-130.0,-65.0,6.079
-100.0,0.0,6.08
-59.0,84.0,6.081
-16.0,127.0,6.082
25.0,98.0,6.083
55.0,44.0,6.084
62.0,17.0,6.085
55.0,14.0,6.086
53.0,20.0,6.087
64.0,58.0,6.088
80.0,173.0,6.089
96.0,354.0,6.09
114.0,488.0,6.091
125.0,424.0,6.092
118.0,134.0,6.093
100.0,-214.0,6.094
82.0,-401.0,6.095
65.0,-398.0,6.096
45.0,-355.0,6.097
16.0,-361.0,6.098
-12.0,-340.0,6.099
-37.0,-217.0,6.1
-42.0,-73.0,6.101
-13.0,-10.0,6.102
32.0,-2.0,6.103
59.0,38.0,6.104
56.0,94.0,6.105
53.0,96.0,6.106
75.0,59.0,6.107
96.0,46.0,6.108
91.0,59.0,6.109
68.0,56.0,6.11
56.0,40.0,6.111
60.0,43.0,6.112
62.0,55.0,6.113
47.0,48.0,6.114
26.0,31.0,6.115
14.0,23.0,6.116
16.0,19.0,6.117
21.0,7.0,6.118
13.0,0.0,6.119
-15.0,-6.0,6.12
-45.0,-8.0,6.121
-55.0,-13.0,6.122
-46.0,-25.0,6.123
-33.0,-27.0,6.124
-26.0,4.0,6.125
-17.0,37.0,6.126
5.0,75.0,6.127
29.0,86.0,6.128
43.0,14.0,6.129
46.0,-44.0,6.13
42.0,-58.0,6.131
37.0,-65.0,6.132
28.0,-50.0,6.133
18.0,-35.0,6.134
12.0,-19.0,6.135
18.0,3.0,6.136
43.0,44.0,6.137
98.0,72.0,6.138
175.0,40.0,6.139
241.0,6.0,6.14
264.0,-8.0,6.141
239.0,-4.0,6.142
194.0,-2.0,6.143
156.0,-2.0,6.144
128.0,12.0,6.145
108.0,51.0,6.146
100.0,101.0,6.147
108.0,109.0,6.148
135.0,29.0,6.149
171.0,-112.0,6.15
184.0,-204.0,6.151
145.0,-159.0,6.152
66.0,-15.0,6.153
-2.0,105.0,6.154
-37.0,123.0,6.155
-65.0,60.0,6.156
-107.0,-6.0,6.157
-165.0,-44.0,6.158
-210.0,-52.0,6.159
-242.0,-49.0,6.16
-257.0,-51.0,6.161
-253.0,-43.0,6.162
-229.0,-11.0,6.163
-202.0,40.0,6.164
-177.0,87.0,6.165
-145.0,111.0,6.166
-99.0,112.0,6.167
-56.0,96.0,6.168
-32.0,70.0,6.169
-24.0,34.0,6.17
-18.0,-17.0,6.171
-4.0,-78.0,6.172
21.0,-119.0,6.173
47.0,-113.0,6.174
71.0,-84.0,6.175
99.0,-70.0,6.176
132.0,-61.0,6.177
159.0,-29.0,6.178
166.0,12.0,6.179
162.0,11.0,6.18
157.0,-25.0,6.181
139.0,-31.0,6.182
109.0,0.0,6.183
92.0,15.0,6.184
100.0,3.0,6.185
106.0,8.0,6.186
82.0,37.0,6.187
49.0,49.0,6.188
39.0,31.0,6.189
44.0,14.0,6.19
40.0,2.0,6.191
28.0,-25.0,6.192
22.0,-49.0,6.193
-7.0,-40.0,6.194
-80.0,-26.0,6.195
-156.0,-53.0,6.196
-174.0,-82.0,6.197
-134.0,-48.0,6.198
-94.0,23.0,6.199
-93.0,62.0,6.2
-107.0,2.0,6.201
-111.0,-39.0,6.202
-117.0,-24.0,6.203
-137.0,-4.0,6.204
-164.0,31.0,6.205
-175.0,63.0,6.206
-164.0,83.0,6.207
-137.0,95.0,6.208
-103.0,81.0,6.209
-77.0,66.0,6.21
-76.0,48.0,6.211
-107.0,31.0,6.212
-159.0,16.0,6.213
-210.0,2.0,6.214
-229.0,-11.0,6.215
-210.0,-19.0,6.216
-176.0,-8.0,6.217
-155.0,-6.0,6.218
-151.0,-25.0,6.219
-146.0,-11.0,6.22
-126.0,21.0,6.221
-93.0,28.0,6.222
-57.0,7.0,6.223
-42.0,-3.0,6.224
-125.0,7.0,6.225
-392.0,8.0,6.226
-814.0,-8.0,6.227
-1213.0,-22.0,6.228
-1389.0,-21.0,6.229
-1298.0,-21.0,6.23
-1064.0,-28.0,6.231
-840.0,-26.0,6.232
-683.0,-10.0,6.233
-562.0,1.0,6.234
-437.0,-10.0,6.235
-310.0,-40.0,6.236
-198.0,-64.0,6.237
-83.0,-69.0,6.238
41.0,-60.0,6.239
172.0,-54.0,6.24
288.0,-58.0,6.241
370.0,-48.0,6.242
418.0,3.0,6.243
441.0,43.0,6.244
447.0,49.0,6.245
447.0,54.0,6.246
448.0,56.0,6.247
454.0,59.0,6.248
464.0,65.0,6.249
486.0,69.0,6.25
508.0,62.0,6.251
520.0,51.0,6.252
512.0,31.0,6.253
501.0,16.0,6.254
497.0,17.0,6.255
494.0,17.0,6.256
486.0,8.0,6.257
478.0,0.0,6.258
482.0,4.0,6.259
490.0,6.0,6.26
499.0,-10.0,6.261
527.0,-25.0,6.262
587.0,-28.0,6.263
659.0,-25.0,6.264
701.0,-31.0,6.265
710.0,-41.0,6.266
719.0,-42.0,6.267
746.0,-39.0,6.268
764.0,-40.0,6.269
729.0,-40.0,6.27
635.0,-39.0,6.271
525.0,-34.0,6.272
427.0,-29.0,6.273
338.0,-22.0,6.274
239.0,-12.0,6.275
136.0,-4.0,6.276
48.0,1.0,6.277
-34.0,1.0,6.278
-114.0,2.0,6.279
-189.0,2.0,6.28
-249.0,0.0,6.281
-302.0,-3.0,6.282
-336.0,-4.0,6.283
-367.0,-5.0,6.284
-384.0,-5.0,6.285
-401.0,-4.0,6.286
-413.0,-4.0,6.287
-419.0,-3.0,6.288
-404.0,-5.0,6.289
-390.0,-7.0,6.29
-376.0,-5.0,6.291
-361.0,-4.0,6.292
-343.0,-2.0,6.293
-328.0,-1.0,6.294
-324.0,-1.0,6.295
-314.0,-2.0,6.296
-290.0,-2.0,6.297
-264.0,1.0,6.298
-249.0,2.0,6.299
-247.0,2.0,6.3
-247.0,0.0,6.301
-237.0,-3.0,6.302
-219.0,-4.0,6.303
-212.0,-5.0,6.304
-252.0,-5.0,6.305
-366.0,-4.0,6.306
-549.0,-4.0,6.307
-755.0,-3.0,6.308
-927.0,-5.0,6.309
-1020.0,-7.0,6.31
-1006.0,-5.0,6.311
-884.0,-4.0,6.312
-705.0,-2.0,6.313
-541.0,-1.0,6.314
-425.0,-1.0,6.315
-317.0,-2.0,6.316
-192.0,-2.0,6.317
673.0,1.0,6.318
730.0,2.0,6.319
758.0,2.0,6.32
690.0,0.0,6.321
622.0,-3.0,6.322
564.0,-4.0,6.323
507.0,-5.0,6.324
464.0,-5.0,6.325
423.0,-4.0,6.326
395.0,-4.0,6.327
351.0,-3.0,6.328
267.0,-5.0,6.329
195.0,-7.0,6.33
167.0,-5.0,6.331
159.0,-4.0,6.332
212.0,-2.0,6.333
285.0,-1.0,6.334
414.0,-1.0,6.335
528.0,-2.0,6.336
599.0,-2.0,6.337
568.0,1.0,6.338
598.0,2.0,6.339
613.0,2.0,6.34
577.0,0.0,6.341
541.0,-3.0,6.342
510.0,-4.0,6.343
480.0,-5.0,6.344
457.0,-5.0,6.345
435.0,-4.0,6.346
420.0,-4.0,6.347
397.0,-3.0,6.348
352.0,-5.0,6.349
314.0,-7.0,6.35
299.0,-5.0,6.351
295.0,-4.0,6.352
323.0,-2.0,6.353
362.0,-1.0,6.354
430.0,-1.0,6.355
491.0,-2.0,6.356
529.0,-2.0,6.357
543.0,-3.0,6.358
448.0,-3.0,6.359
335.0,-1.0,6.36
263.0,-2.0,6.361
226.0,-2.0,6.362
191.0,-3.0,6.363
148.0,-2.0,6.364
103.0,0.0,6.365
46.0,2.0,6.366
-39.0,6.0,6.367
-140.0,10.0,6.368
-215.0,11.0,6.369
-227.0,11.0,6.37
-195.0,10.0,6.371
-177.0,10.0,6.372
-203.0,2.0,6.373
-250.0,-5.0,6.374
-273.0,-7.0,6.375
-280.0,-3.0,6.376
-306.0,4.0,6.377
-362.0,5.0,6.378
-414.0,2.0,6.379
-441.0,-3.0,6.38
-462.0,-9.0,6.381
-483.0,-9.0,6.382
-480.0,-8.0,6.383
-456.0,-9.0,6.384
-449.0,-12.0,6.385
-472.0,-12.0,6.386
-491.0,-9.0,6.387
-480.0,-9.0,6.388
-462.0,-13.0,6.389
-462.0,-14.0,6.39
-469.0,-13.0,6.391
-470.0,-13.0,6.392
-472.0,-12.0,6.393
-481.0,-8.0,6.394
-475.0,-3.0,6.395
-448.0,-1.0,6.396
-419.0,-2.0,6.397
-402.0,-2.0,6.398
-386.0,0.0,6.399
-366.0,2.0,6.4
-351.0,0.0,6.401
-346.0,-2.0,6.402
-328.0,0.0,6.403
-291.0,3.0,6.404
-252.0,6.0,6.405
-206.0,7.0,6.406
-127.0,4.0,6.407
-16.0,2.0,6.408
75.0,6.0,6.409
117.0,15.0,6.41
138.0,25.0,6.411
172.0,28.0,6.412
209.0,27.0,6.413
222.0,20.0,6.414
217.0,14.0,6.415
206.0,12.0,6.416
184.0,16.0,6.417
135.0,19.0,6.418
82.0,17.0,6.419
53.0,12.0,6.42
44.0,7.0,6.421
34.0,9.0,6.422
27.0,15.0,6.423
35.0,16.0,6.424
48.0,11.0,6.425
50.0,2.0,6.426
51.0,-11.0,6.427
71.0,-32.0,6.428
102.0,-52.0,6.429
125.0,-59.0,6.43
146.0,-50.0,6.431
171.0,-40.0,6.432
190.0,-38.0,6.433
188.0,-37.0,6.434
177.0,-28.0,6.435
182.0,-12.0,6.436
200.0,5.0,6.437
213.0,22.0,6.438
212.0,38.0,6.439
197.0,44.0,6.44
182.0,31.0,6.441
174.0,12.0,6.442
180.0,4.0,6.443
194.0,9.0,6.444
195.0,26.0,6.445
187.0,55.0,6.446
179.0,85.0,6.447
181.0,92.0,6.448
182.0,66.0,6.449
180.0,19.0,6.45
182.0,-25.0,6.451
188.0,-58.0,6.452
188.0,-88.0,6.453
180.0,-111.0,6.454
173.0,-115.0,6.455
168.0,-99.0,6.456
161.0,-76.0,6.457
142.0,-61.0,6.458
117.0,-51.0,6.459
89.0,-41.0,6.46
54.0,-31.0,6.461
25.0,-18.0,6.462
13.0,3.0,6.463
0.0,20.0,6.464
-17.0,17.0,6.465
-32.0,14.0,6.466
-37.0,18.0,6.467
-40.0,25.0,6.468
-34.0,42.0,6.469
-27.0,62.0,6.47
-19.0,86.0,6.471
-10.0,104.0,6.472
-4.0,102.0,6.473
2.0,96.0,6.474
9.0,76.0,6.475
16.0,61.0,6.476
22.0,67.0,6.477
26.0,68.0,6.478
15.0,31.0,6.479
-6.0,-32.0,6.48
-34.0,-92.0,6.481
-68.0,-110.0,6.482
-90.0,-87.0,6.483
-91.0,-65.0,6.484
-81.0,-79.0,6.485
-73.0,-118.0,6.486
-75.0,-149.0,6.487
-73.0,-157.0,6.488
-51.0,-149.0,6.489
-2.0,-131.0,6.49
52.0,-102.0,6.491
81.0,-64.0,6.492
76.0,-29.0,6.493
54.0,-1.0,6.494
26.0,23.0,6.495
-13.0,40.0,6.496
-70.0,48.0,6.497
-141.0,48.0,6.498
-218.0,58.0,6.499
-309.0,78.0,6.5
-407.0,94.0,6.501
-458.0,101.0,6.502
-416.0,94.0,6.503
-316.0,80.0,6.504
-238.0,65.0,6.505
-198.0,53.0,6.506
-137.0,42.0,6.507
-21.0,27.0,6.508
109.0,11.0,6.509
196.0,2.0,6.51
228.0,0.0,6.511
230.0,-3.0,6.512
224.0,-8.0,6.513
225.0,-7.0,6.514
236.0,0.0,6.515
247.0,9.0,6.516
249.0,20.0,6.517
241.0,33.0,6.518
224.0,44.0,6.519
188.0,40.0,6.52
133.0,20.0,6.521
75.0,10.0,6.522
24.0,14.0,6.523
-57.0,19.0,6.524
-191.0,13.0,6.525
-328.0,7.0,6.526
-379.0,7.0,6.527
-331.0,10.0,6.528
-255.0,11.0,6.529
-209.0,11.0,6.53
-176.0,9.0,6.531
-125.0,7.0,6.532
-70.0,8.0,6.533
-38.0,14.0,6.534
-14.0,33.0,6.535
25.0,54.0,6.536
65.0,70.0,6.537
76.0,72.0,6.538
64.0,68.0,6.539
52.0,75.0,6.54
55.0,86.0,6.541
72.0,81.0,6.542
109.0,31.0,6.543
167.0,-43.0,6.544
236.0,-93.0,6.545
301.0,-102.0,6.546
334.0,-92.0,6.547
302.0,-93.0,6.548
228.0,-110.0,6.549
233.0,-130.0,6.55
413.0,-140.0,6.551
682.0,-145.0,6.552
824.0,-151.0,6.553
757.0,-160.0,6.554
666.0,-157.0,6.555
765.0,-130.0,6.556
998.0,-88.0,6.557
1154.0,-50.0,6.558
1105.0,-27.0,6.559
960.0,-14.0,6.56
861.0,1.0,6.561
768.0,30.0,6.562
593.0,74.0,6.563
401.0,135.0,6.564
340.0,205.0,6.565
403.0,277.0,6.566
431.0,341.0,6.567
330.0,382.0,6.568
173.0,364.0,6.569
60.0,260.0,6.57
-22.0,100.0,6.571
-144.0,-48.0,6.572
-309.0,-150.0,6.573
-463.0,-230.0,6.574
-571.0,-305.0,6.575
-643.0,-350.0,6.576
-697.0,-342.0,6.577
-756.0,-295.0,6.578
-838.0,-238.0,6.579
-954.0,-171.0,6.58
-1074.0,-93.0,6.581
-1153.0,-33.0,6.582
-1174.0,-17.0,6.583
-1161.0,-21.0,6.584
-1132.0,-3.0,6.585
-1086.0,33.0,6.586
-1014.0,56.0,6.587
-914.0,92.0,6.588
-787.0,181.0,6.589
-635.0,296.0,6.59
-476.0,350.0,6.591
-328.0,300.0,6.592
-195.0,197.0,6.593
-69.0,105.0,6.594
45.0,33.0,6.595
136.0,-28.0,6.596
189.0,-66.0,6.597
205.0,-67.0,6.598
172.0,-47.0,6.599
71.0,-43.0,6.6
-119.0,-54.0,6.601
-424.0,-21.0,6.602
-826.0,79.0,6.603
-1240.0,186.0,6.604
-1545.0,209.0,6.605
-1664.0,146.0,6.606
-1579.0,67.0,6.607
-1321.0,13.0,6.608
-995.0,-49.0,6.609
-768.0,-141.0,6.61
-733.0,-225.0,6.611
-805.0,-268.0,6.612
-838.0,-297.0,6.613
-776.0,-349.0,6.614
-649.0,-412.0,6.615
-472.0,-436.0,6.616
-263.0,-398.0,6.617
-46.0,-295.0,6.618
127.0,-147.0,6.619
274.0,16.0,6.62
441.0,164.0,6.621
604.0,281.0,6.622
731.0,358.0,6.623
835.0,395.0,6.624
943.0,383.0,6.625
1039.0,323.0,6.626
1109.0,226.0,6.627
1182.0,135.0,6.628
1278.0,102.0,6.629
1353.0,140.0,6.63
1360.0,196.0,6.631
1316.0,203.0,6.632
1265.0,150.0,6.633
1214.0,68.0,6.634
1144.0,-36.0,6.635
1060.0,-171.0,6.636
976.0,-302.0,6.637
884.0,-380.0,6.638
797.0,-366.0,6.639
742.0,-289.0,6.64
729.0,-208.0,6.641
712.0,-148.0,6.642
642.0,-96.0,6.643
532.0,-7.0,6.644
434.0,147.0,6.645
365.0,318.0,6.646
296.0,396.0,6.647
211.0,336.0,6.648
140.0,228.0,6.649
107.0,158.0,6.65
90.0,101.0,6.651
53.0,2.0,6.652
4.0,-107.0,6.653
-33.0,-178.0,6.654
-67.0,-249.0,6.655
-124.0,-386.0,6.656
-194.0,-521.0,6.657
-253.0,-200.0,6.658
-293.0,44.0,6.659
-337.0,287.0,6.66
-390.0,513.0,6.661
-428.0,682.0,6.662
-421.0,670.0,6.663
-412.0,606.0,6.664
-398.0,393.0,6.665
-385.0,201.0,6.666
-373.0,84.0,6.667
-356.0,20.0,6.668
-330.0,128.0,6.669
-302.0,142.0,6.67
-268.0,-121.0,6.671
-234.0,-352.0,6.672
-202.0,-472.0,6.673
-173.0,-583.0,6.674
-154.0,-651.0,6.675
-135.0,-671.0,6.676
-115.0,-546.0,6.677
-94.0,-77.0,6.678
-85.0,23.0,6.679
-95.0,122.0,6.68
-103.0,214.0,6.681
-94.0,283.0,6.682
-76.0,278.0,6.683
-68.0,252.0,6.684
-67.0,165.0,6.685
-65.0,87.0,6.686
-66.0,39.0,6.687
-71.0,13.0,6.688
-67.0,57.0,6.689
-40.0,63.0,6.69
-2.0,-45.0,6.691
25.0,-139.0,6.692
42.0,-188.0,6.693
56.0,-233.0,6.694
65.0,-261.0,6.695
64.0,-269.0,6.696
64.0,-218.0,6.697
75.0,-153.0,6.698
76.0,-68.0,6.699
46.0,-26.0,6.7
-4.0,30.0,6.701
-40.0,139.0,6.702
-49.0,271.0,6.703
-46.0,396.0,6.704
-44.0,495.0,6.705
-44.0,517.0,6.706
-44.0,393.0,6.707
-42.0,139.0,6.708
-28.0,-137.0,6.709
4.0,-313.0,6.71
40.0,-331.0,6.711
57.0,-207.0,6.712
61.0,-10.0,6.713
76.0,156.0,6.714
103.0,213.0,6.715
125.0,151.0,6.716
132.0,42.0,6.717
124.0,-63.0,6.718
108.0,-128.0,6.719
80.0,-161.0,6.72
46.0,-169.0,6.721
16.0,-145.0,6.722
-1.0,-103.0,6.723
-19.0,-69.0,6.724
-49.0,-44.0,6.725
-81.0,0.0,6.726
-104.0,50.0,6.727
-108.0,66.0,6.728
-89.0,50.0,6.729
-43.0,71.0,6.73
13.0,184.0,6.731
56.0,366.0,6.732
75.0,545.0,6.733
82.0,662.0,6.734
92.0,694.0,6.735
103.0,649.0,6.736
111.0,554.0,6.737
97.0,388.0,6.738
61.0,170.0,6.739
16.0,-63.0,6.74
-56.0,-343.0,6.741
-124.0,-631.0,6.742
-176.0,-944.0,6.743
-230.0,-1164.0,6.744
-287.0,-1098.0,6.745
-335.0,-964.0,6.746
-352.0,-623.0,6.747
-348.0,-308.0,6.748
-281.0,-72.0,6.749
-212.0,107.0,6.75
-138.0,116.0,6.751
-72.0,81.0,6.752
-28.0,-89.0,6.753
5.0,-217.0,6.754
3.0,-213.0,6.755
1.0,-190.0,6.756
1.0,-114.0,6.757
-7.0,-35.0,6.758
-48.0,58.0,6.759
-85.0,163.0,6.76
-91.0,249.0,6.761
-78.0,294.0,6.762
-61.0,296.0,6.763
-38.0,279.0,6.764
-14.0,279.0,6.765
0.0,329.0,6.766
16.0,422.0,6.767
46.0,515.0,6.768
95.0,552.0,6.769
145.0,505.0,6.77
187.0,372.0,6.771
222.0,211.0,6.772
256.0,129.0,6.773
285.0,200.0,6.774
313.0,346.0,6.775
337.0,378.0,6.776
345.0,216.0,6.777
319.0,-65.0,6.778
258.0,-291.0,6.779
169.0,-425.0,6.78
79.0,-568.0,6.781
23.0,-760.0,6.782
25.0,-913.0,6.783
54.0,-933.0,6.784
55.0,-832.0,6.785
13.0,-665.0,6.786
-29.0,-449.0,6.787
-28.0,-185.0,6.788
11.0,65.0,6.789
53.0,233.0,6.79
73.0,317.0,6.791
74.0,386.0,6.792
74.0,476.0,6.793
84.0,543.0,6.794
100.0,541.0,6.795
107.0,509.0,6.796
103.0,511.0,6.797
80.0,524.0,6.798
42.0,468.0,6.799
-9.0,297.0,6.8
-59.0,73.0,6.801
-90.0,-112.0,6.802
-102.0,-241.0,6.803
-114.0,-335.0,6.804
-139.0,-377.0,6.805
-166.0,-342.0,6.806
-181.0,-266.0,6.807
-190.0,-195.0,6.808
-200.0,-109.0,6.809
-196.0,39.0,6.81
-167.0,217.0,6.811
-128.0,307.0,6.812
-101.0,245.0,6.813
-90.0,81.0,6.814
-91.0,-94.0,6.815
-114.0,-214.0,6.816
-155.0,-240.0,6.817
-189.0,-174.0,6.818
-179.0,-72.0,6.819
-152.0,7.0,6.82
-164.0,21.0,6.821
-218.0,42.0,6.822
-258.0,82.0,6.823
-253.0,110.0,6.824
-224.0,103.0,6.825
-200.0,99.0,6.826
-170.0,105.0,6.827
-128.0,142.0,6.828
-89.0,270.0,6.829
-78.0,331.0,6.83
-103.0,192.0,6.831
-147.0,36.0,6.832
-167.0,-171.0,6.833
-124.0,-327.0,6.834
-38.0,-328.0,6.835
35.0,-326.0,6.836
72.0,-314.0,6.837
97.0,-307.0,6.838
123.0,-322.0,6.839
123.0,-308.0,6.84
96.0,-204.0,6.841
85.0,-22.0,6.842
117.0,119.0,6.843
153.0,126.0,6.844
155.0,34.0,6.845
135.0,-56.0,6.846
125.0,-81.0,6.847
124.0,-39.0,6.848
121.0,31.0,6.849
132.0,67.0,6.85
165.0,52.0,6.851
196.0,54.0,6.852
201.0,151.0,6.853
196.0,305.0,6.854
198.0,395.0,6.855
201.0,347.0,6.856
196.0,209.0,6.857
176.0,18.0,6.858
154.0,-113.0,6.859
131.0,-172.0,6.86
104.0,-169.0,6.861
83.0,-137.0,6.862
85.0,-105.0,6.863
80.0,-43.0,6.864
52.0,73.0,6.865
14.0,192.0,6.866
-47.0,213.0,6.867
-90.0,111.0,6.868
-73.0,-34.0,6.869
-49.0,-149.0,6.87
-5.0,-242.0,6.871
31.0,-319.0,6.872
43.0,-322.0,6.873
62.0,-193.0,6.874
104.0,14.0,6.875
135.0,173.0,6.876
129.0,224.0,6.877
125.0,198.0,6.878
120.0,147.0,6.879
96.0,90.0,6.88
54.0,19.0,6.881
30.0,-40.0,6.882
40.0,-64.0,6.883
48.0,-78.0,6.884
31.0,-60.0,6.885
17.0,-45.0,6.886
36.0,-35.0,6.887
65.0,-28.0,6.888
68.0,-28.0,6.889
49.0,-25.0,6.89
35.0,-17.0,6.891
22.0,6.0,6.892
-1.0,75.0,6.893
-25.0,122.0,6.894
-24.0,96.0,6.895
-12.0,53.0,6.896
-14.0,-40.0,6.897
-34.0,-115.0,6.898
-45.0,-100.0,6.899
-44.0,-70.0,6.9
-58.0,-68.0,6.901
-91.0,-53.0,6.902
-106.0,27.0,6.903
-88.0,166.0,6.904
-69.0,275.0,6.905
-76.0,273.0,6.906
-92.0,162.0,6.907
-89.0,32.0,6.908
-61.0,-40.0,6.909
-22.0,-56.0,6.91
9.0,-72.0,6.911
20.0,-105.0,6.912
15.0,-127.0,6.913
15.0,-117.0,6.914
32.0,-91.0,6.915
50.0,-71.0,6.916
44.0,-58.0,6.917
18.0,-43.0,6.918
0.0,-29.0,6.919
-7.0,-13.0,6.92
-17.0,7.0,6.921
-37.0,50.0,6.922
-51.0,103.0,6.923
-53.0,137.0,6.924
-58.0,125.0,6.925
-79.0,68.0,6.926
-120.0,-2.0,6.927
-164.0,-54.0,6.928
-182.0,-75.0,6.929
-157.0,-73.0,6.93
-121.0,-57.0,6.931
-119.0,-33.0,6.932
-146.0,-12.0,6.933
-146.0,0.0,6.934
-100.0,29.0,6.935
-62.0,81.0,6.936
-62.0,113.0,6.937
-76.0,70.0,6.938
-68.0,-18.0,6.939
-61.0,-62.0,6.94
-55.0,-41.0,6.941
-48.0,-23.0,6.942
-34.0,-46.0,6.943
-24.0,-42.0,6.944
-22.0,42.0,6.945
-13.0,125.0,6.946
16.0,93.0,6.947
39.0,-38.0,6.948
39.0,-151.0,6.949
42.0,-183.0,6.95
50.0,-166.0,6.951
58.0,-139.0,6.952
68.0,-92.0,6.953
71.0,-21.0,6.954
52.0,39.0,6.955
40.0,68.0,6.956
54.0,77.0,6.957
81.0,80.0,6.958
134.0,75.0,6.959
148.0,54.0,6.96
127.0,19.0,6.961
115.0,-6.0,6.962
125.0,-9.0,6.963
129.0,7.0,6.964
111.0,26.0,6.965
95.0,25.0,6.966
96.0,5.0,6.967
102.0,-10.0,6.968
97.0,-10.0,6.969
87.0,-3.0,6.97
83.0,-5.0,6.971
84.0,-11.0,6.972
86.0,-13.0,6.973
88.0,-5.0,6.974
93.0,16.0,6.975
100.0,43.0,6.976
109.0,44.0,6.977
112.0,-3.0,6.978
106.0,-67.0,6.979
78.0,-81.0,6.98
