Deltoid,Bicep,Time
-3.0,1.0,0.0
-7.0,-2.0,0.001
-8.0,-4.0,0.002
-3.0,-3.0,0.003
1.0,0.0,0.004
4.0,5.0,0.005
2.0,11.0,0.006
4.0,12.0,0.007
8.0,8.0,0.008
10.0,0.0,0.009
9.0,-5.0,0.01
8.0,-6.0,0.011
10.0,-9.0,0.012
7.0,-13.0,0.013
0.0,-13.0,0.014
-6.0,-9.0,0.015
-8.0,-4.0,0.016
-7.0,-1.0,0.017
-5.0,-2.0,0.018
-4.0,-1.0,0.019
-6.0,1.0,0.02
-9.0,1.0,0.021
-7.0,6.0,0.022
1.0,13.0,0.023
9.0,14.0,0.024
7.0,9.0,0.025
2.0,1.0,0.026
2.0,-4.0,0.027
7.0,-8.0,0.028
12.0,-11.0,0.029
16.0,-12.0,0.03
22.0,-9.0,0.031
25.0,-5.0,0.032
21.0,-1.0,0.033
12.0,10.0,0.034
6.0,24.0,0.035
5.0,29.0,0.036
6.0,24.0,0.037
0.0,4.0,0.038
-2.0,-14.0,0.039
-4.0,-27.0,0.04
-8.0,-33.0,0.041
-12.0,-31.0,0.042
-10.0,-19.0,0.043
-7.0,2.0,0.044
-6.0,27.0,0.045
-4.0,48.0,0.046
-2.0,57.0,0.047
0.0,54.0,0.048
4.0,42.0,0.049
8.0,21.0,0.05
8.0,-7.0,0.051
7.0,-33.0,0.052
6.0,-50.0,0.053
6.0,-58.0,0.054
6.0,-67.0,0.055
6.0,-69.0,0.056
10.0,-60.0,0.057
0.0,-36.0,0.058
-3.0,0.0,0.059
-7.0,32.0,0.06
-13.0,51.0,0.061
-18.0,62.0,0.062
-15.0,48.0,0.063
-11.0,36.0,0.064
-9.0,30.0,0.065
-6.0,17.0,0.066
-4.0,-20.0,0.067
0.0,-55.0,0.068
6.0,-85.0,0.069
12.0,-109.0,0.07
12.0,-110.0,0.071
11.0,-104.0,0.072
10.0,-72.0,0.073
9.0,-40.0,0.074
9.0,-11.0,0.075
9.0,15.0,0.076
15.0,32.0,0.077
21.0,49.0,0.078
17.0,56.0,0.079
7.0,54.0,0.08
-5.0,47.0,0.081
-14.0,44.0,0.082
-12.0,42.0,0.083
-3.0,42.0,0.084
1.0,44.0,0.085
-3.0,41.0,0.086
-6.0,35.0,0.087
0.0,28.0,0.088
7.0,23.0,0.089
9.0,21.0,0.09
8.0,19.0,0.091
15.0,15.0,0.092
20.0,12.0,0.093
17.0,8.0,0.094
10.0,5.0,0.095
4.0,1.0,0.096
5.0,3.0,0.097
3.0,2.0,0.098
0.0,1.0,0.099
-2.0,0.0,0.1
-6.0,-6.0,0.101
-9.0,-7.0,0.102
-4.0,-6.0,0.103
4.0,-4.0,0.104
10.0,-2.0,0.105
3.0,0.0,0.106
-6.0,0.0,0.107
-9.0,-3.0,0.108
-5.0,-6.0,0.109
2.0,-7.0,0.11
13.0,-6.0,0.111
20.0,-6.0,0.112
19.0,-3.0,0.113
14.0,-2.0,0.114
8.0,-1.0,0.115
6.0,-2.0,0.116
8.0,-5.0,0.117
9.0,-6.0,0.118
9.0,-7.0,0.119
2.0,-6.0,0.12
-9.0,-8.0,0.121
-12.0,-8.0,0.122
-4.0,-10.0,0.123
5.0,-11.0,0.124
3.0,-10.0,0.125
-4.0,-7.0,0.126
-6.0,-6.0,0.127
-3.0,-5.0,0.128
-2.0,-7.0,0.129
-3.0,-7.0,0.13
-1.0,-7.0,0.131
3.0,-5.0,0.132
7.0,-5.0,0.133
8.0,-3.0,0.134
9.0,0.0,0.135
11.0,2.0,0.136
9.0,0.0,0.137
2.0,-6.0,0.138
-3.0,-8.0,0.139
-11.0,-4.0,0.14
-17.0,-2.0,0.141
-17.0,-3.0,0.142
-9.0,-6.0,0.143
0.0,-3.0,0.144
2.0,-2.0,0.145
4.0,-1.0,0.146
10.0,-2.0,0.147
14.0,-1.0,0.148
12.0,-1.0,0.149
7.0,-2.0,0.15
5.0,0.0,0.151
4.0,6.0,0.152
2.0,9.0,0.153
3.0,5.0,0.154
7.0,-1.0,0.155
7.0,-1.0,0.156
6.0,4.0,0.157
3.0,6.0,0.158
4.0,2.0,0.159
4.0,0.0,0.16
-2.0,-2.0,0.161
-5.0,-2.0,0.162
-2.0,-3.0,0.163
5.0,-1.0,0.164
6.0,4.0,0.165
3.0,7.0,0.166
2.0,2.0,0.167
6.0,-5.0,0.168
8.0,-6.0,0.169
6.0,-1.0,0.17
3.0,2.0,0.171
4.0,2.0,0.172
3.0,3.0,0.173
3.0,6.0,0.174
4.0,6.0,0.175
5.0,0.0,0.176
4.0,-4.0,0.177
0.0,-6.0,0.178
-3.0,-6.0,0.179
-4.0,-5.0,0.18
-5.0,-8.0,0.181
-5.0,-7.0,0.182
-1.0,-3.0,0.183
4.0,-2.0,0.184
3.0,-2.0,0.185
-2.0,-1.0,0.186
-4.0,0.0,0.187
-3.0,-2.0,0.188
3.0,-5.0,0.189
7.0,-4.0,0.19
13.0,0.0,0.191
18.0,4.0,0.192
14.0,4.0,0.193
5.0,1.0,0.194
1.0,1.0,0.195
4.0,3.0,0.196
7.0,5.0,0.197
4.0,2.0,0.198
-2.0,-1.0,0.199
-8.0,-2.0,0.2
-7.0,-6.0,0.201
-5.0,-8.0,0.202
-1.0,-7.0,0.203
1.0,-4.0,0.204
1.0,1.0,0.205
-1.0,3.0,0.206
-1.0,2.0,0.207
3.0,0.0,0.208
4.0,0.0,0.209
3.0,0.0,0.21
3.0,0.0,0.211
7.0,-4.0,0.212
10.0,-4.0,0.213
9.0,-2.0,0.214
6.0,-1.0,0.215
5.0,-2.0,0.216
5.0,0.0,0.217
1.0,5.0,0.218
-2.0,8.0,0.219
-6.0,4.0,0.22
-8.0,-4.0,0.221
-6.0,-7.0,0.222
1.0,-5.0,0.223
8.0,-3.0,0.224
8.0,-3.0,0.225
1.0,-1.0,0.226
0.0,2.0,0.227
5.0,4.0,0.228
11.0,3.0,0.229
13.0,-1.0,0.23
16.0,-6.0,0.231
19.0,-6.0,0.232
16.0,-4.0,0.233
5.0,-2.0,0.234
-6.0,-2.0,0.235
-13.0,-2.0,0.236
-15.0,2.0,0.237
-12.0,2.0,0.238
-3.0,1.0,0.239
4.0,-2.0,0.24
4.0,-7.0,0.241
-1.0,-7.0,0.242
-2.0,-7.0,0.243
0.0,-3.0,0.244
-3.0,3.0,0.245
-7.0,7.0,0.246
-1.0,3.0,0.247
10.0,-1.0,0.248
11.0,0.0,0.249
4.0,6.0,0.25
0.0,7.0,0.251
1.0,3.0,0.252
1.0,-1.0,0.253
-1.0,-2.0,0.254
4.0,-2.0,0.255
13.0,0.0,0.256
18.0,2.0,0.257
15.0,1.0,0.258
10.0,-2.0,0.259
5.0,-3.0,0.26
-2.0,0.0,0.261
-6.0,7.0,0.262
-4.0,5.0,0.263
2.0,-2.0,0.264
5.0,0.0,0.265
1.0,6.0,0.266
0.0,7.0,0.267
2.0,-1.0,0.268
4.0,-6.0,0.269
6.0,-5.0,0.27
9.0,0.0,0.271
9.0,2.0,0.272
3.0,4.0,0.273
-1.0,3.0,0.274
0.0,-2.0,0.275
2.0,-6.0,0.276
0.0,-2.0,0.277
-5.0,2.0,0.278
-5.0,0.0,0.279
-5.0,-6.0,0.28
-10.0,-10.0,0.281
-12.0,-6.0,0.282
-5.0,-2.0,0.283
7.0,-2.0,0.284
9.0,-1.0,0.285
2.0,2.0,0.286
0.0,1.0,0.287
6.0,-4.0,0.288
12.0,-7.0,0.289
8.0,-3.0,0.29
6.0,0.0,0.291
8.0,-2.0,0.292
10.0,-2.0,0.293
10.0,1.0,0.294
11.0,3.0,0.295
14.0,0.0,0.296
15.0,0.0,0.297
9.0,0.0,0.298
-1.0,1.0,0.299
-16.0,-3.0,0.3
-27.0,-10.0,0.301
-31.0,-10.0,0.302
-19.0,-7.0,0.303
-2.0,-3.0,0.304
11.0,-1.0,0.305
18.0,0.0,0.306
23.0,0.0,0.307
22.0,-1.0,0.308
11.0,-1.0,0.309
0.0,0.0,0.31
0.0,1.0,0.311
6.0,0.0,0.312
4.0,2.0,0.313
0.0,8.0,0.314
4.0,9.0,0.315
13.0,4.0,0.316
11.0,1.0,0.317
-5.0,0.0,0.318
-13.0,0.0,0.319
-7.0,0.0,0.32
-1.0,-4.0,0.321
-4.0,-3.0,0.322
-2.0,-3.0,0.323
10.0,-4.0,0.324
20.0,-2.0,0.325
14.0,0.0,0.326
2.0,0.0,0.327
-5.0,-4.0,0.328
-8.0,-5.0,0.329
-7.0,-1.0,0.33
-3.0,3.0,0.331
5.0,2.0,0.332
9.0,-1.0,0.333
11.0,-2.0,0.334
12.0,1.0,0.335
14.0,3.0,0.336
13.0,3.0,0.337
8.0,1.0,0.338
4.0,2.0,0.339
0.0,3.0,0.34
-1.0,0.0,0.341
0.0,-2.0,0.342
9.0,-2.0,0.343
14.0,-2.0,0.344
4.0,-2.0,0.345
-4.0,-3.0,0.346
-5.0,-5.0,0.347
-5.0,-7.0,0.348
-3.0,-5.0,0.349
-2.0,-2.0,0.35
-2.0,0.0,0.351
-1.0,3.0,0.352
0.0,7.0,0.353
1.0,8.0,0.354
0.0,2.0,0.355
0.0,-2.0,0.356
7.0,-3.0,0.357
12.0,-2.0,0.358
2.0,2.0,0.359
-9.0,4.0,0.36
-17.0,2.0,0.361
-18.0,0.0,0.362
-8.0,-1.0,0.363
8.0,-5.0,0.364
18.0,-4.0,0.365
16.0,0.0,0.366
10.0,1.0,0.367
6.0,-1.0,0.368
8.0,-4.0,0.369
6.0,-3.0,0.37
6.0,0.0,0.371
4.0,-1.0,0.372
2.0,-3.0,0.373
-1.0,-1.0,0.374
-2.0,2.0,0.375
-1.0,2.0,0.376
1.0,0.0,0.377
3.0,-2.0,0.378
3.0,-3.0,0.379
-1.0,-4.0,0.38
-5.0,-5.0,0.381
-5.0,-4.0,0.382
0.0,-2.0,0.383
4.0,-3.0,0.384
1.0,-2.0,0.385
-2.0,-1.0,0.386
0.0,-1.0,0.387
6.0,-1.0,0.388
9.0,-1.0,0.389
7.0,0.0,0.39
4.0,1.0,0.391
8.0,0.0,0.392
11.0,-2.0,0.393
13.0,2.0,0.394
13.0,8.0,0.395
11.0,8.0,0.396
6.0,3.0,0.397
0.0,-4.0,0.398
-7.0,-5.0,0.399
-10.0,-5.0,0.4
-8.0,-8.0,0.401
-2.0,-9.0,0.402
4.0,-9.0,0.403
8.0,-6.0,0.404
4.0,-2.0,0.405
0.0,3.0,0.406
0.0,5.0,0.407
3.0,4.0,0.408
6.0,2.0,0.409
4.0,2.0,0.41
-1.0,2.0,0.411
-3.0,-1.0,0.412
-2.0,-2.0,0.413
1.0,0.0,0.414
2.0,0.0,0.415
1.0,-6.0,0.416
5.0,-8.0,0.417
9.0,-5.0,0.418
11.0,1.0,0.419
11.0,1.0,0.42
3.0,-5.0,0.421
-2.0,-7.0,0.422
2.0,-3.0,0.423
5.0,-1.0,0.424
4.0,0.0,0.425
3.0,1.0,0.426
3.0,1.0,0.427
3.0,0.0,0.428
4.0,-2.0,0.429
6.0,-1.0,0.43
8.0,-1.0,0.431
11.0,0.0,0.432
13.0,2.0,0.433
15.0,3.0,0.434
9.0,2.0,0.435
2.0,0.0,0.436
-7.0,1.0,0.437
-17.0,2.0,0.438
-23.0,3.0,0.439
-19.0,1.0,0.44
-11.0,-2.0,0.441
-8.0,-5.0,0.442
-8.0,-6.0,0.443
-4.0,-7.0,0.444
-4.0,-6.0,0.445
-9.0,-5.0,0.446
-10.0,-6.0,0.447
0.0,-3.0,0.448
13.0,4.0,0.449
20.0,11.0,0.45
23.0,10.0,0.451
23.0,8.0,0.452
20.0,7.0,0.453
9.0,8.0,0.454
1.0,4.0,0.455
6.0,0.0,0.456
14.0,0.0,0.457
10.0,0.0,0.458
0.0,0.0,0.459
-3.0,-3.0,0.46
-2.0,-5.0,0.461
-7.0,-5.0,0.462
-10.0,-4.0,0.463
-1.0,-2.0,0.464
9.0,0.0,0.465
4.0,0.0,0.466
-5.0,-2.0,0.467
-5.0,-4.0,0.468
3.0,-4.0,0.469
8.0,-4.0,0.47
2.0,-3.0,0.471
0.0,-2.0,0.472
4.0,0.0,0.473
10.0,1.0,0.474
11.0,1.0,0.475
5.0,2.0,0.476
3.0,4.0,0.477
1.0,3.0,0.478
0.0,1.0,0.479
-1.0,0.0,0.48
-4.0,-4.0,0.481
-5.0,-4.0,0.482
-1.0,-7.0,0.483
4.0,-6.0,0.484
6.0,0.0,0.485
3.0,4.0,0.486
5.0,-1.0,0.487
10.0,-10.0,0.488
12.0,-9.0,0.489
7.0,-2.0,0.49
4.0,2.0,0.491
3.0,1.0,0.492
3.0,2.0,0.493
2.0,6.0,0.494
3.0,6.0,0.495
2.0,0.0,0.496
-1.0,-1.0,0.497
-5.0,1.0,0.498
-6.0,3.0,0.499
-7.0,0.0,0.5
-7.0,-4.0,0.501
-5.0,-3.0,0.502
4.0,-1.0,0.503
10.0,-4.0,0.504
3.0,-4.0,0.505
-3.0,0.0,0.506
-3.0,3.0,0.507
-3.0,0.0,0.508
1.0,-6.0,0.509
4.0,-7.0,0.51
8.0,-5.0,0.511
10.0,-6.0,0.512
6.0,-4.0,0.513
2.0,0.0,0.514
-2.0,4.0,0.515
-4.0,2.0,0.516
0.0,0.0,0.517
5.0,0.0,0.518
11.0,0.0,0.519
8.0,-2.0,0.52
0.0,-8.0,0.521
-5.0,-9.0,0.522
-3.0,-7.0,0.523
2.0,-4.0,0.524
3.0,-2.0,0.525
3.0,-1.0,0.526
9.0,-3.0,0.527
19.0,-5.0,0.528
25.0,-5.0,0.529
22.0,-2.0,0.53
12.0,-1.0,0.531
6.0,-1.0,0.532
3.0,2.0,0.533
2.0,9.0,0.534
-1.0,11.0,0.535
-3.0,5.0,0.536
-4.0,2.0,0.537
-4.0,3.0,0.538
-6.0,6.0,0.539
-9.0,3.0,0.54
-8.0,-6.0,0.541
-1.0,-8.0,0.542
8.0,-4.0,0.543
11.0,0.0,0.544
7.0,1.0,0.545
2.0,3.0,0.546
3.0,4.0,0.547
7.0,3.0,0.548
8.0,1.0,0.549
6.0,4.0,0.55
4.0,6.0,0.551
3.0,5.0,0.552
3.0,2.0,0.553
1.0,3.0,0.554
0.0,6.0,0.555
2.0,6.0,0.556
4.0,1.0,0.557
0.0,-1.0,0.558
-5.0,-1.0,0.559
-10.0,-2.0,0.56
-11.0,-9.0,0.561
-9.0,-9.0,0.562
-3.0,-7.0,0.563
2.0,-6.0,0.564
5.0,-6.0,0.565
1.0,-4.0,0.566
-3.0,0.0,0.567
-6.0,-2.0,0.568
-5.0,-3.0,0.569
-3.0,0.0,0.57
0.0,1.0,0.571
5.0,-2.0,0.572
11.0,-5.0,0.573
16.0,-4.0,0.574
18.0,-1.0,0.575
18.0,-2.0,0.576
12.0,0.0,0.577
-2.0,6.0,0.578
-16.0,12.0,0.579
-27.0,8.0,0.58
-23.0,-4.0,0.581
-16.0,-6.0,0.582
-5.0,0.0,0.583
5.0,0.0,0.584
13.0,-5.0,0.585
20.0,-6.0,0.586
20.0,-4.0,0.587
19.0,-3.0,0.588
16.0,-4.0,0.589
14.0,0.0,0.59
16.0,3.0,0.591
16.0,1.0,0.592
9.0,-1.0,0.593
3.0,0.0,0.594
4.0,4.0,0.595
5.0,2.0,0.596
3.0,-2.0,0.597
-1.0,-3.0,0.598
-4.0,1.0,0.599
-9.0,7.0,0.6
-11.0,6.0,0.601
-11.0,1.0,0.602
-2.0,-6.0,0.603
10.0,-9.0,0.604
15.0,-6.0,0.605
8.0,-1.0,0.606
0.0,-3.0,0.607
0.0,-8.0,0.608
2.0,-8.0,0.609
1.0,-2.0,0.61
0.0,4.0,0.611
3.0,3.0,0.612
7.0,-2.0,0.613
7.0,-4.0,0.614
3.0,-5.0,0.615
0.0,-2.0,0.616
1.0,1.0,0.617
3.0,0.0,0.618
0.0,-5.0,0.619
-5.0,-7.0,0.62
-12.0,-7.0,0.621
-14.0,-6.0,0.622
-9.0,-5.0,0.623
0.0,-2.0,0.624
6.0,4.0,0.625
5.0,5.0,0.626
2.0,0.0,0.627
2.0,-3.0,0.628
4.0,-1.0,0.629
5.0,3.0,0.63
8.0,5.0,0.631
9.0,3.0,0.632
8.0,0.0,0.633
2.0,1.0,0.634
0.0,2.0,0.635
-1.0,4.0,0.636
0.0,9.0,0.637
-3.0,9.0,0.638
-6.0,5.0,0.639
-6.0,0.0,0.64
1.0,-3.0,0.641
15.0,-2.0,0.642
26.0,-4.0,0.643
29.0,-3.0,0.644
22.0,3.0,0.645
6.0,8.0,0.646
-6.0,7.0,0.647
-7.0,3.0,0.648
1.0,4.0,0.649
7.0,5.0,0.65
4.0,2.0,0.651
-1.0,-3.0,0.652
-1.0,-5.0,0.653
0.0,-4.0,0.654
0.0,-3.0,0.655
-2.0,-3.0,0.656
0.0,-2.0,0.657
0.0,-4.0,0.658
-3.0,-7.0,0.659
-6.0,-6.0,0.66
-6.0,-5.0,0.661
-3.0,0.0,0.662
3.0,0.0,0.663
9.0,0.0,0.664
9.0,4.0,0.665
9.0,7.0,0.666
5.0,3.0,0.667
1.0,-2.0,0.668
0.0,-4.0,0.669
-2.0,-4.0,0.67
-4.0,-4.0,0.671
-6.0,-5.0,0.672
-7.0,-1.0,0.673
-8.0,2.0,0.674
-5.0,1.0,0.675
-3.0,2.0,0.676
-3.0,7.0,0.677
0.0,6.0,0.678
10.0,0.0,0.679
15.0,-8.0,0.68
11.0,-11.0,0.681
10.0,-8.0,0.682
10.0,-5.0,0.683
7.0,-2.0,0.684
-3.0,0.0,0.685
-7.0,3.0,0.686
1.0,2.0,0.687
15.0,0.0,0.688
17.0,0.0,0.689
13.0,2.0,0.69
13.0,5.0,0.691
14.0,8.0,0.692
9.0,8.0,0.693
2.0,4.0,0.694
2.0,-1.0,0.695
4.0,-3.0,0.696
4.0,1.0,0.697
-2.0,1.0,0.698
-3.0,-2.0,0.699
-5.0,-7.0,0.7
-6.0,-9.0,0.701
-6.0,-5.0,0.702
-2.0,-3.0,0.703
2.0,-3.0,0.704
2.0,-2.0,0.705
2.0,0.0,0.706
6.0,2.0,0.707
8.0,-2.0,0.708
5.0,-4.0,0.709
3.0,-3.0,0.71
3.0,-2.0,0.711
3.0,-3.0,0.712
4.0,-4.0,0.713
4.0,-1.0,0.714
2.0,0.0,0.715
0.0,-2.0,0.716
-1.0,1.0,0.717
-3.0,3.0,0.718
0.0,4.0,0.719
2.0,-3.0,0.72
3.0,-11.0,0.721
3.0,-10.0,0.722
6.0,-5.0,0.723
5.0,-2.0,0.724
-1.0,0.0,0.725
-7.0,1.0,0.726
-7.0,2.0,0.727
-4.0,0.0,0.728
-4.0,0.0,0.729
-7.0,2.0,0.73
-7.0,3.0,0.731
-1.0,1.0,0.732
7.0,1.0,0.733
13.0,3.0,0.734
15.0,4.0,0.735
17.0,2.0,0.736
20.0,1.0,0.737
16.0,0.0,0.738
6.0,0.0,0.739
-2.0,0.0,0.74
-8.0,-2.0,0.741
-11.0,-5.0,0.742
-3.0,-5.0,0.743
3.0,-6.0,0.744
7.0,-4.0,0.745
9.0,-3.0,0.746
7.0,-4.0,0.747
5.0,-5.0,0.748
5.0,-3.0,0.749
6.0,0.0,0.75
7.0,1.0,0.751
8.0,3.0,0.752
4.0,1.0,0.753
0.0,-1.0,0.754
-4.0,0.0,0.755
-8.0,2.0,0.756
-14.0,6.0,0.757
-17.0,8.0,0.758
-6.0,4.0,0.759
3.0,-1.0,0.76
4.0,-4.0,0.761
-1.0,-4.0,0.762
0.0,-2.0,0.763
6.0,0.0,0.764
8.0,3.0,0.765
2.0,1.0,0.766
0.0,-4.0,0.767
6.0,-8.0,0.768
13.0,-4.0,0.769
12.0,2.0,0.77
5.0,3.0,0.771
2.0,0.0,0.772
3.0,-1.0,0.773
2.0,0.0,0.774
2.0,-2.0,0.775
3.0,-7.0,0.776
6.0,-6.0,0.777
2.0,0.0,0.778
-5.0,3.0,0.779
-12.0,-1.0,0.78
-11.0,-9.0,0.781
-3.0,-10.0,0.782
8.0,-7.0,0.783
19.0,-4.0,0.784
22.0,-2.0,0.785
18.0,0.0,0.786
13.0,0.0,0.787
14.0,-4.0,0.788
17.0,-4.0,0.789
16.0,-1.0,0.79
8.0,-4.0,0.791
-2.0,-6.0,0.792
-4.0,-4.0,0.793
-2.0,2.0,0.794
-3.0,5.0,0.795
-8.0,4.0,0.796
-11.0,7.0,0.797
-8.0,9.0,0.798
-1.0,6.0,0.799
0.0,0.0,0.8
-4.0,-4.0,0.801
-11.0,-2.0,0.802
-11.0,-1.0,0.803
-7.0,-2.0,0.804
-4.0,-1.0,0.805
-4.0,3.0,0.806
-3.0,4.0,0.807
0.0,0.0,0.808
3.0,-1.0,0.809
3.0,1.0,0.81
4.0,2.0,0.811
8.0,0.0,0.812
10.0,-1.0,0.813
9.0,-2.0,0.814
6.0,-3.0,0.815
9.0,-3.0,0.816
15.0,2.0,0.817
15.0,2.0,0.818
13.0,0.0,0.819
10.0,-2.0,0.82
3.0,-3.0,0.821
-3.0,-1.0,0.822
-5.0,0.0,0.823
-7.0,0.0,0.824
-8.0,2.0,0.825
-7.0,2.0,0.826
0.0,0.0,0.827
6.0,-1.0,0.828
7.0,-1.0,0.829
8.0,-2.0,0.83
8.0,-4.0,0.831
8.0,-4.0,0.832
9.0,-1.0,0.833
9.0,2.0,0.834
7.0,2.0,0.835
5.0,1.0,0.836
5.0,2.0,0.837
4.0,0.0,0.838
3.0,-3.0,0.839
0.0,-5.0,0.84
-3.0,-10.0,0.841
-5.0,-10.0,0.842
-2.0,-9.0,0.843
3.0,-4.0,0.844
2.0,1.0,0.845
-7.0,9.0,0.846
-15.0,13.0,0.847
-13.0,10.0,0.848
-4.0,4.0,0.849
4.0,-1.0,0.85
10.0,-3.0,0.851
12.0,-4.0,0.852
12.0,-2.0,0.853
10.0,3.0,0.854
7.0,6.0,0.855
3.0,4.0,0.856
-1.0,0.0,0.857
-4.0,-5.0,0.858
-2.0,-7.0,0.859
1.0,-6.0,0.86
1.0,-7.0,0.861
-1.0,-6.0,0.862
0.0,-5.0,0.863
9.0,-5.0,0.864
12.0,-4.0,0.865
9.0,0.0,0.866
7.0,2.0,0.867
11.0,1.0,0.868
13.0,0.0,0.869
9.0,3.0,0.87
6.0,5.0,0.871
6.0,3.0,0.872
6.0,-1.0,0.873
1.0,-3.0,0.874
-3.0,-1.0,0.875
-4.0,-2.0,0.876
-6.0,-2.0,0.877
-16.0,-2.0,0.878
-22.0,0.0,0.879
-23.0,1.0,0.88
-15.0,-3.0,0.881
-2.0,-1.0,0.882
14.0,2.0,0.883
25.0,2.0,0.884
24.0,0.0,0.885
17.0,-2.0,0.886
11.0,-4.0,0.887
10.0,-4.0,0.888
11.0,-5.0,0.889
12.0,-3.0,0.89
15.0,-4.0,0.891
14.0,-3.0,0.892
7.0,0.0,0.893
-1.0,6.0,0.894
-4.0,8.0,0.895
-8.0,4.0,0.896
-11.0,0.0,0.897
-10.0,-3.0,0.898
-4.0,-1.0,0.899
-2.0,0.0,0.9
-13.0,1.0,0.901
-20.0,1.0,0.902
-14.0,0.0,0.903
-5.0,-3.0,0.904
11.0,-3.0,0.905
23.0,-3.0,0.906
22.0,-3.0,0.907
19.0,-4.0,0.908
13.0,-4.0,0.909
8.0,-4.0,0.91
8.0,-2.0,0.911
7.0,-1.0,0.912
1.0,0.0,0.913
-4.0,2.0,0.914
-8.0,4.0,0.915
-11.0,6.0,0.916
-8.0,7.0,0.917
-4.0,7.0,0.918
-5.0,4.0,0.919
-9.0,-1.0,0.92
-12.0,-8.0,0.921
-13.0,-10.0,0.922
-5.0,-7.0,0.923
4.0,-4.0,0.924
9.0,-3.0,0.925
6.0,-4.0,0.926
3.0,-4.0,0.927
5.0,-4.0,0.928
8.0,-2.0,0.929
11.0,-1.0,0.93
16.0,-2.0,0.931
16.0,-4.0,0.932
11.0,-5.0,0.933
3.0,-3.0,0.934
4.0,0.0,0.935
7.0,0.0,0.936
7.0,0.0,0.937
3.0,1.0,0.938
1.0,4.0,0.939
-1.0,5.0,0.94
-5.0,-1.0,0.941
-9.0,-4.0,0.942
-6.0,-2.0,0.943
0.0,2.0,0.944
2.0,1.0,0.945
0.0,-2.0,0.946
2.0,-3.0,0.947
9.0,-2.0,0.948
11.0,0.0,0.949
6.0,2.0,0.95
2.0,1.0,0.951
2.0,0.0,0.952
2.0,1.0,0.953
0.0,2.0,0.954
-4.0,2.0,0.955
-4.0,3.0,0.956
0.0,5.0,0.957
1.0,4.0,0.958
0.0,4.0,0.959
3.0,3.0,0.96
9.0,1.0,0.961
12.0,1.0,0.962
11.0,1.0,0.963
11.0,1.0,0.964
15.0,2.0,0.965
15.0,1.0,0.966
7.0,1.0,0.967
1.0,0.0,0.968
1.0,-2.0,0.969
2.0,-5.0,0.97
0.0,-5.0,0.971
2.0,0.0,0.972
8.0,2.0,0.973
9.0,-3.0,0.974
5.0,-9.0,0.975
4.0,-10.0,0.976
7.0,-7.0,0.977
2.0,-5.0,0.978
-7.0,-1.0,0.979
-16.0,4.0,0.98
-20.0,8.0,0.981
-23.0,9.0,0.982
-20.0,3.0,0.983
-16.0,-2.0,0.984
-6.0,-2.0,0.985
1.0,-1.0,0.986
1.0,0.0,0.987
3.0,2.0,0.988
8.0,-3.0,0.989
11.0,-6.0,0.99
7.0,-1.0,0.991
4.0,3.0,0.992
6.0,4.0,0.993
8.0,4.0,0.994
3.0,1.0,0.995
0.0,-1.0,0.996
5.0,-2.0,0.997
8.0,-4.0,0.998
3.0,-3.0,0.999
-1.0,-2.0,1.0
-4.0,-3.0,1.001
-8.0,-5.0,1.002
-6.0,-4.0,1.003
4.0,-2.0,1.004
10.0,1.0,1.005
4.0,2.0,1.006
-2.0,-1.0,1.007
4.0,-4.0,1.008
14.0,-2.0,1.009
17.0,-3.0,1.01
17.0,-5.0,1.011
20.0,-4.0,1.012
16.0,0.0,1.013
0.0,3.0,1.014
-14.0,-3.0,1.015
-11.0,-9.0,1.016
-1.0,-6.0,1.017
1.0,-2.0,1.018
-3.0,-2.0,1.019
-4.0,-3.0,1.02
0.0,-7.0,1.021
2.0,-9.0,1.022
2.0,-3.0,1.023
3.0,1.0,1.024
5.0,3.0,1.025
3.0,5.0,1.026
1.0,2.0,1.027
0.0,-1.0,1.028
-3.0,-2.0,1.029
-7.0,-3.0,1.03
-3.0,-3.0,1.031
9.0,0.0,1.032
19.0,8.0,1.033
19.0,13.0,1.034
15.0,10.0,1.035
13.0,7.0,1.036
11.0,4.0,1.037
2.0,2.0,1.038
-5.0,4.0,1.039
-6.0,2.0,1.04
-2.0,-4.0,1.041
4.0,-7.0,1.042
5.0,-7.0,1.043
2.0,-10.0,1.044
-3.0,-8.0,1.045
-7.0,-4.0,1.046
-6.0,-3.0,1.047
0.0,-2.0,1.048
1.0,-1.0,1.049
1.0,3.0,1.05
4.0,3.0,1.051
8.0,-3.0,1.052
6.0,-3.0,1.053
-4.0,2.0,1.054
-10.0,6.0,1.055
-8.0,2.0,1.056
0.0,-1.0,1.057
4.0,0.0,1.058
7.0,1.0,1.059
9.0,2.0,1.06
7.0,0.0,1.061
5.0,-2.0,1.062
6.0,-5.0,1.063
9.0,-8.0,1.064
18.0,-6.0,1.065
23.0,-5.0,1.066
16.0,-6.0,1.067
8.0,-6.0,1.068
1.0,-2.0,1.069
-5.0,1.0,1.07
-10.0,5.0,1.071
-12.0,7.0,1.072
-2.0,3.0,1.073
5.0,0.0,1.074
4.0,1.0,1.075
3.0,3.0,1.076
3.0,1.0,1.077
6.0,0.0,1.078
4.0,0.0,1.079
-11.0,-1.0,1.08
-25.0,-1.0,1.081
-24.0,3.0,1.082
-12.0,7.0,1.083
-1.0,4.0,1.084
2.0,-2.0,1.085
3.0,-4.0,1.086
4.0,-1.0,1.087
4.0,-2.0,1.088
4.0,-5.0,1.089
5.0,-6.0,1.09
6.0,-5.0,1.091
8.0,-2.0,1.092
11.0,-2.0,1.093
14.0,-2.0,1.094
15.0,-6.0,1.095
11.0,-10.0,1.096
9.0,-8.0,1.097
5.0,-1.0,1.098
0.0,9.0,1.099
-7.0,13.0,1.1
-12.0,7.0,1.101
-8.0,2.0,1.102
0.0,-3.0,1.103
5.0,-5.0,1.104
3.0,-4.0,1.105
1.0,-2.0,1.106
3.0,-1.0,1.107
9.0,-4.0,1.108
7.0,-5.0,1.109
1.0,-1.0,1.11
-1.0,0.0,1.111
4.0,-3.0,1.112
7.0,-6.0,1.113
5.0,-4.0,1.114
2.0,-2.0,1.115
6.0,-3.0,1.116
9.0,-4.0,1.117
3.0,-1.0,1.118
-3.0,4.0,1.119
-4.0,3.0,1.12
2.0,-7.0,1.121
11.0,-12.0,1.122
13.0,-10.0,1.123
11.0,-4.0,1.124
4.0,4.0,1.125
0.0,14.0,1.126
1.0,16.0,1.127
4.0,11.0,1.128
7.0,8.0,1.129
4.0,11.0,1.13
5.0,14.0,1.131
6.0,5.0,1.132
2.0,-9.0,1.133
-3.0,-16.0,1.134
-5.0,-14.0,1.135
-1.0,-5.0,1.136
4.0,2.0,1.137
2.0,7.0,1.138
-3.0,4.0,1.139
-8.0,-1.0,1.14
-8.0,-9.0,1.141
-7.0,-14.0,1.142
-4.0,-7.0,1.143
-1.0,-2.0,1.144
-2.0,-6.0,1.145
-3.0,-9.0,1.146
-3.0,-6.0,1.147
-3.0,-2.0,1.148
0.0,0.0,1.149
3.0,0.0,1.15
8.0,-1.0,1.151
13.0,-2.0,1.152
17.0,3.0,1.153
20.0,8.0,1.154
19.0,9.0,1.155
16.0,9.0,1.156
9.0,2.0,1.157
1.0,-4.0,1.158
-2.0,-13.0,1.159
-1.0,-24.0,1.16
-6.0,-27.0,1.161
-17.0,-11.0,1.162
-16.0,11.0,1.163
-1.0,20.0,1.164
5.0,16.0,1.165
-1.0,8.0,1.166
-4.0,0.0,1.167
2.0,-5.0,1.168
7.0,-5.0,1.169
3.0,0.0,1.17
-2.0,2.0,1.171
1.0,1.0,1.172
8.0,1.0,1.173
8.0,2.0,1.174
4.0,2.0,1.175
2.0,1.0,1.176
4.0,2.0,1.177
3.0,2.0,1.178
1.0,1.0,1.179
-4.0,0.0,1.18
-9.0,-3.0,1.181
-9.0,0.0,1.182
-2.0,1.0,1.183
7.0,-2.0,1.184
9.0,-4.0,1.185
7.0,-5.0,1.186
6.0,-6.0,1.187
10.0,-10.0,1.188
10.0,-6.0,1.189
7.0,7.0,1.19
5.0,13.0,1.191
8.0,8.0,1.192
9.0,-1.0,1.193
6.0,-1.0,1.194
1.0,4.0,1.195
-2.0,1.0,1.196
-3.0,-4.0,1.197
-2.0,-6.0,1.198
0.0,-1.0,1.199
0.0,1.0,1.2
-1.0,-5.0,1.201
1.0,-4.0,1.202
8.0,1.0,1.203
10.0,5.0,1.204
0.0,4.0,1.205
-9.0,3.0,1.206
-5.0,1.0,1.207
5.0,-3.0,1.208
7.0,-8.0,1.209
-3.0,-8.0,1.21
-4.0,-4.0,1.211
5.0,0.0,1.212
14.0,1.0,1.213
14.0,5.0,1.214
13.0,6.0,1.215
13.0,0.0,1.216
14.0,-9.0,1.217
7.0,-8.0,1.218
1.0,4.0,1.219
-4.0,12.0,1.22
-8.0,9.0,1.221
-9.0,5.0,1.222
0.0,-3.0,1.223
6.0,-7.0,1.224
1.0,-1.0,1.225
-3.0,2.0,1.226
-4.0,-5.0,1.227
-5.0,-10.0,1.228
-3.0,-7.0,1.229
-2.0,-5.0,1.23
-1.0,-9.0,1.231
0.0,-12.0,1.232
0.0,-10.0,1.233
-1.0,-6.0,1.234
-1.0,6.0,1.235
-1.0,13.0,1.236
-2.0,5.0,1.237
-3.0,-2.0,1.238
-8.0,-5.0,1.239
-8.0,-2.0,1.24
-3.0,-1.0,1.241
3.0,0.0,1.242
14.0,0.0,1.243
26.0,-3.0,1.244
28.0,-2.0,1.245
15.0,1.0,1.246
0.0,7.0,1.247
-1.0,8.0,1.248
9.0,8.0,1.249
16.0,9.0,1.25
18.0,13.0,1.251
23.0,13.0,1.252
26.0,4.0,1.253
17.0,-6.0,1.254
-3.0,-12.0,1.255
-17.0,-13.0,1.256
-14.0,-14.0,1.257
-8.0,-16.0,1.258
-8.0,-11.0,1.259
-11.0,0.0,1.26
-7.0,0.0,1.261
5.0,-5.0,1.262
16.0,-9.0,1.263
14.0,-5.0,1.264
4.0,-3.0,1.265
-4.0,-6.0,1.266
-8.0,-5.0,1.267
-13.0,4.0,1.268
-17.0,10.0,1.269
-15.0,6.0,1.27
-8.0,-4.0,1.271
-4.0,-8.0,1.272
-9.0,-8.0,1.273
-16.0,-7.0,1.274
-14.0,-1.0,1.275
-5.0,10.0,1.276
6.0,15.0,1.277
17.0,7.0,1.278
24.0,-3.0,1.279
19.0,-1.0,1.28
2.0,6.0,1.281
-6.0,9.0,1.282
2.0,0.0,1.283
21.0,-7.0,1.284
24.0,-8.0,1.285
13.0,-11.0,1.286
6.0,-17.0,1.287
11.0,-17.0,1.288
14.0,-6.0,1.289
9.0,11.0,1.29
3.0,16.0,1.291
8.0,8.0,1.292
17.0,-4.0,1.293
17.0,-7.0,1.294
13.0,0.0,1.295
7.0,7.0,1.296
5.0,12.0,1.297
2.0,12.0,1.298
3.0,13.0,1.299
2.0,13.0,1.3
-6.0,6.0,1.301
-13.0,1.0,1.302
-11.0,1.0,1.303
-10.0,0.0,1.304
-12.0,0.0,1.305
-14.0,-1.0,1.306
-11.0,-3.0,1.307
-7.0,-7.0,1.308
-1.0,-15.0,1.309
5.0,-17.0,1.31
11.0,0.0,1.311
15.0,14.0,1.312
10.0,12.0,1.313
4.0,10.0,1.314
-1.0,7.0,1.315
-7.0,5.0,1.316
-11.0,3.0,1.317
-14.0,0.0,1.318
-11.0,-4.0,1.319
-2.0,-12.0,1.32
5.0,-21.0,1.321
6.0,-21.0,1.322
8.0,-17.0,1.323
10.0,-12.0,1.324
9.0,-5.0,1.325
7.0,11.0,1.326
11.0,23.0,1.327
18.0,18.0,1.328
18.0,2.0,1.329
9.0,-7.0,1.33
2.0,-5.0,1.331
3.0,-1.0,1.332
9.0,-4.0,1.333
15.0,-10.0,1.334
13.0,-14.0,1.335
2.0,-9.0,1.336
-8.0,9.0,1.337
-14.0,19.0,1.338
-14.0,5.0,1.339
-14.0,-7.0,1.34
-13.0,-15.0,1.341
-4.0,-18.0,1.342
9.0,-1.0,1.343
15.0,9.0,1.344
7.0,-1.0,1.345
0.0,-8.0,1.346
2.0,-1.0,1.347
12.0,3.0,1.348
13.0,-2.0,1.349
8.0,-5.0,1.35
4.0,-2.0,1.351
4.0,2.0,1.352
4.0,10.0,1.353
5.0,14.0,1.354
10.0,8.0,1.355
11.0,3.0,1.356
1.0,0.0,1.357
-17.0,-1.0,1.358
-30.0,5.0,1.359
-30.0,15.0,1.36
-23.0,24.0,1.361
-12.0,25.0,1.362
3.0,2.0,1.363
20.0,-24.0,1.364
25.0,-29.0,1.365
20.0,-13.0,1.366
10.0,-6.0,1.367
-2.0,-16.0,1.368
-11.0,-19.0,1.369
-10.0,-6.0,1.37
5.0,2.0,1.371
21.0,-5.0,1.372
24.0,-9.0,1.373
18.0,0.0,1.374
15.0,8.0,1.375
22.0,-1.0,1.376
27.0,-9.0,1.377
17.0,0.0,1.378
-3.0,10.0,1.379
-22.0,4.0,1.38
-35.0,-11.0,1.381
-42.0,-14.0,1.382
-29.0,-7.0,1.383
-15.0,-2.0,1.384
1.0,5.0,1.385
14.0,15.0,1.386
17.0,20.0,1.387
20.0,10.0,1.388
20.0,-2.0,1.389
16.0,-3.0,1.39
6.0,0.0,1.391
-1.0,-1.0,1.392
4.0,-1.0,1.393
11.0,6.0,1.394
22.0,15.0,1.395
31.0,13.0,1.396
29.0,3.0,1.397
26.0,-8.0,1.398
16.0,-3.0,1.399
6.0,13.0,1.4
-5.0,22.0,1.401
-20.0,12.0,1.402
-30.0,-8.0,1.403
-30.0,-14.0,1.404
-22.0,0.0,1.405
-9.0,15.0,1.406
12.0,15.0,1.407
34.0,8.0,1.408
43.0,8.0,1.409
38.0,2.0,1.41
31.0,-17.0,1.411
22.0,-39.0,1.412
2.0,-39.0,1.413
-21.0,-25.0,1.414
-31.0,-18.0,1.415
-27.0,-23.0,1.416
-20.0,-24.0,1.417
-19.0,-12.0,1.418
-21.0,8.0,1.419
-28.0,27.0,1.42
-38.0,29.0,1.421
-40.0,7.0,1.422
-23.0,-22.0,1.423
2.0,-28.0,1.424
19.0,1.0,1.425
24.0,34.0,1.426
27.0,37.0,1.427
29.0,17.0,1.428
26.0,-3.0,1.429
22.0,-8.0,1.43
20.0,-7.0,1.431
17.0,-9.0,1.432
6.0,-14.0,1.433
0.0,-16.0,1.434
6.0,-6.0,1.435
17.0,4.0,1.436
17.0,6.0,1.437
15.0,-1.0,1.438
29.0,7.0,1.439
39.0,14.0,1.44
33.0,19.0,1.441
24.0,23.0,1.442
9.0,19.0,1.443
0.0,16.0,1.444
9.0,19.0,1.445
8.0,16.0,1.446
-23.0,-5.0,1.447
-48.0,-22.0,1.448
-52.0,-23.0,1.449
-59.0,-26.0,1.45
-71.0,-32.0,1.451
-82.0,-37.0,1.452
-88.0,-35.0,1.453
-86.0,-30.0,1.454
-58.0,-19.0,1.455
-30.0,-12.0,1.456
-4.0,-20.0,1.457
19.0,-22.0,1.458
33.0,1.0,1.459
50.0,22.0,1.46
59.0,23.0,1.461
53.0,19.0,1.462
49.0,22.0,1.463
61.0,26.0,1.464
82.0,25.0,1.465
94.0,26.0,1.466
103.0,27.0,1.467
113.0,23.0,1.468
117.0,20.0,1.469
102.0,32.0,1.47
71.0,47.0,1.471
33.0,46.0,1.472
-7.0,34.0,1.473
-45.0,20.0,1.474
-76.0,3.0,1.475
-101.0,-29.0,1.476
-112.0,-59.0,1.477
-103.0,-68.0,1.478
-69.0,-48.0,1.479
-38.0,-27.0,1.48
-26.0,-23.0,1.481
-16.0,-17.0,1.482
19.0,-1.0,1.483
70.0,14.0,1.484
96.0,18.0,1.485
77.0,7.0,1.486
30.0,-6.0,1.487
-19.0,-16.0,1.488
-54.0,-16.0,1.489
-68.0,-9.0,1.49
-55.0,-1.0,1.491
-29.0,6.0,1.492
-8.0,10.0,1.493
4.0,13.0,1.494
12.0,11.0,1.495
1.0,-3.0,1.496
-34.0,-23.0,1.497
-81.0,-38.0,1.498
-95.0,-34.0,1.499
-64.0,-25.0,1.5
-30.0,-22.0,1.501
-13.0,-12.0,1.502
27.0,7.0,1.503
102.0,23.0,1.504
153.0,30.0,1.505
132.0,52.0,1.506
64.0,88.0,1.507
9.0,75.0,1.508
-18.0,-9.0,1.509
-22.0,-81.0,1.51
14.0,-54.0,1.511
91.0,37.0,1.512
149.0,76.0,1.513
137.0,41.0,1.514
79.0,10.0,1.515
30.0,27.0,1.516
3.0,40.0,1.517
-38.0,-5.0,1.518
-90.0,-67.0,1.519
-132.0,-79.0,1.52
-144.0,-49.0,1.521
-145.0,-33.0,1.522
-114.0,-72.0,1.523
-75.0,-115.0,1.524
-9.0,-98.0,1.525
50.0,-18.0,1.526
92.0,60.0,1.527
110.0,85.0,1.528
54.0,63.0,1.529
-2.0,27.0,1.53
-54.0,-5.0,1.531
-85.0,-20.0,1.532
-51.0,8.0,1.533
-24.0,60.0,1.534
-19.0,72.0,1.535
-20.0,20.0,1.536
-41.0,-42.0,1.537
-41.0,-67.0,1.538
35.0,-57.0,1.539
73.0,-36.0,1.54
44.0,-7.0,1.541
19.0,31.0,1.542
50.0,42.0,1.543
82.0,-1.0,1.544
55.0,-44.0,1.545
-2.0,-30.0,1.546
-15.0,26.0,1.547
23.0,61.0,1.548
63.0,55.0,1.549
89.0,42.0,1.55
126.0,49.0,1.551
189.0,68.0,1.552
258.0,83.0,1.553
308.0,100.0,1.554
313.0,113.0,1.555
220.0,99.0,1.556
36.0,39.0,1.557
-169.0,-51.0,1.558
-282.0,-124.0,1.559
-364.0,-174.0,1.56
-353.0,-155.0,1.561
-333.0,-126.0,1.562
-290.0,-68.0,1.563
-231.0,-13.0,1.564
-127.0,32.0,1.565
-45.0,62.0,1.566
-31.0,43.0,1.567
-21.0,19.0,1.568
-22.0,-16.0,1.569
-25.0,-52.0,1.57
-33.0,-88.0,1.571
-22.0,-105.0,1.572
51.0,-63.0,1.573
101.0,-19.0,1.574
79.0,29.0,1.575
59.0,61.0,1.576
43.0,44.0,1.577
15.0,41.0,1.578
-59.0,85.0,1.579
-93.0,66.0,1.58
-14.0,-26.0,1.581
133.0,-78.0,1.582
239.0,-27.0,1.583
252.0,62.0,1.584
180.0,95.0,1.585
45.0,60.0,1.586
-99.0,-4.0,1.587
-159.0,-73.0,1.588
-94.0,-115.0,1.589
-1.0,-103.0,1.59
6.0,-49.0,1.591
-49.0,1.0,1.592
-47.0,28.0,1.593
41.0,40.0,1.594
112.0,48.0,1.595
90.0,41.0,1.596
21.0,19.0,1.597
-53.0,-13.0,1.598
-125.0,-25.0,1.599
-179.0,2.0,1.6
-176.0,54.0,1.601
-149.0,74.0,1.602
-51.0,27.0,1.603
15.0,-26.0,1.604
-14.0,-19.0,1.605
-30.0,11.0,1.606
-7.0,-20.0,1.607
32.0,-98.0,1.608
118.0,-119.0,1.609
222.0,-52.0,1.61
382.0,27.0,1.611
477.0,59.0,1.612
379.0,65.0,1.613
280.0,74.0,1.614
178.0,81.0,1.615
64.0,65.0,1.616
-84.0,16.0,1.617
-241.0,-66.0,1.618
-343.0,-126.0,1.619
-276.0,-97.0,1.62
-145.0,0.0,1.621
-80.0,58.0,1.622
-71.0,26.0,1.623
-51.0,-7.0,1.624
-18.0,42.0,1.625
1.0,108.0,1.626
10.0,88.0,1.627
3.0,6.0,1.628
-64.0,-46.0,1.629
-200.0,-69.0,1.63
-315.0,-103.0,1.631
-308.0,-121.0,1.632
-194.0,-70.0,1.633
-71.0,9.0,1.634
-2.0,37.0,1.635
44.0,19.0,1.636
118.0,12.0,1.637
249.0,32.0,1.638
331.0,46.0,1.639
321.0,41.0,1.64
247.0,27.0,1.641
190.0,19.0,1.642
193.0,26.0,1.643
231.0,43.0,1.644
237.0,44.0,1.645
174.0,1.0,1.646
45.0,-53.0,1.647
-104.0,-60.0,1.648
-224.0,-21.0,1.649
-302.0,0.0,1.65
-342.0,-22.0,1.651
-319.0,-33.0,1.652
-194.0,11.0,1.653
0.0,68.0,1.654
145.0,72.0,1.655
163.0,33.0,1.656
111.0,-1.0,1.657
75.0,-10.0,1.658
76.0,-2.0,1.659
62.0,2.0,1.66
10.0,-17.0,1.661
-50.0,-49.0,1.662
-83.0,-56.0,1.663
-87.0,-13.0,1.664
-80.0,48.0,1.665
-81.0,52.0,1.666
-82.0,-9.0,1.667
-32.0,-55.0,1.668
98.0,-22.0,1.669
247.0,55.0,1.67
306.0,99.0,1.671
239.0,93.0,1.672
112.0,57.0,1.673
-17.0,-6.0,1.674
-147.0,-92.0,1.675
-268.0,-159.0,1.676
-326.0,-164.0,1.677
-281.0,-115.0,1.678
-165.0,-49.0,1.679
-64.0,5.0,1.68
-14.0,41.0,1.681
30.0,71.0,1.682
55.0,97.0,1.683
77.0,114.0,1.684
86.0,99.0,1.685
96.0,41.0,1.686
108.0,-25.0,1.687
129.0,-47.0,1.688
177.0,-15.0,1.689
193.0,26.0,1.69
111.0,42.0,1.691
21.0,28.0,1.692
-88.0,-18.0,1.693
-197.0,-86.0,1.694
-303.0,-140.0,1.695
-354.0,-135.0,1.696
-236.0,-84.0,1.697
-125.0,-33.0,1.698
-81.0,-12.0,1.699
-63.0,-2.0,1.7
-38.0,11.0,1.701
-41.0,21.0,1.702
-57.0,13.0,1.703
2.0,6.0,1.704
139.0,17.0,1.705
243.0,33.0,1.706
261.0,34.0,1.707
253.0,33.0,1.708
262.0,48.0,1.709
242.0,63.0,1.71
165.0,52.0,1.711
80.0,13.0,1.712
33.0,-27.0,1.713
30.0,-33.0,1.714
62.0,19.0,1.715
106.0,101.0,1.716
96.0,130.0,1.717
-24.0,59.0,1.718
-197.0,-44.0,1.719
-292.0,-72.0,1.72
-254.0,-29.0,1.721
-156.0,0.0,1.722
-105.0,-22.0,1.723
-123.0,-50.0,1.724
-153.0,-56.0,1.725
-108.0,-64.0,1.726
20.0,-72.0,1.727
148.0,-38.0,1.728
172.0,33.0,1.729
107.0,77.0,1.73
38.0,61.0,1.731
-4.0,14.0,1.732
-40.0,-26.0,1.733
-60.0,-51.0,1.734
-25.0,-50.0,1.735
42.0,-13.0,1.736
82.0,25.0,1.737
90.0,17.0,1.738
101.0,-26.0,1.739
115.0,-46.0,1.74
118.0,-3.0,1.741
128.0,73.0,1.742
162.0,115.0,1.743
167.0,93.0,1.744
91.0,32.0,1.745
-22.0,-14.0,1.746
-105.0,-29.0,1.747
-162.0,-35.0,1.748
-217.0,-49.0,1.749
-239.0,-59.0,1.75
-198.0,-47.0,1.751
-135.0,-21.0,1.752
-95.0,0.0,1.753
-63.0,12.0,1.754
-13.0,18.0,1.755
26.0,5.0,1.756
39.0,-14.0,1.757
109.0,8.0,1.758
35.0,26.0,1.759
-25.0,26.0,1.76
-56.0,-14.0,1.761
-69.0,-55.0,1.762
-29.0,-77.0,1.763
1.0,-86.0,1.764
-2.0,-50.0,1.765
-8.0,-23.0,1.766
-8.0,-19.0,1.767
-5.0,-14.0,1.768
-18.0,-19.0,1.769
-29.0,-19.0,1.77
-25.0,-1.0,1.771
-18.0,17.0,1.772
-8.0,21.0,1.773
4.0,26.0,1.774
25.0,44.0,1.775
38.0,57.0,1.776
31.0,53.0,1.777
31.0,0.0,1.778
9.0,2.0,1.779
-9.0,2.0,1.78
-18.0,-2.0,1.781
-22.0,-8.0,1.782
-10.0,-11.0,1.783
-1.0,-12.0,1.784
-2.0,-7.0,1.785
-4.0,-3.0,1.786
-4.0,-3.0,1.787
-3.0,-2.0,1.788
-7.0,-3.0,1.789
-10.0,-3.0,1.79
-9.0,-1.0,1.791
-7.0,1.0,1.792
-4.0,1.0,1.793
0.0,2.0,1.794
6.0,4.0,1.795
10.0,6.0,1.796
8.0,6.0,1.797
6.0,1.0,1.798
6.0,5.0,1.799
-8.0,5.0,1.8
-34.0,-4.0,1.801
-60.0,-13.0,1.802
-67.0,-18.0,1.803
-58.0,-20.0,1.804
-46.0,-12.0,1.805
-32.0,-6.0,1.806
-16.0,-5.0,1.807
0.0,-4.0,1.808
4.0,-5.0,1.809
-1.0,-5.0,1.81
-2.0,-1.0,1.811
8.0,3.0,1.812
18.0,4.0,1.813
20.0,5.0,1.814
21.0,9.0,1.815
27.0,12.0,1.816
35.0,11.0,1.817
37.0,10.0,1.818
35.0,9.0,1.819
31.0,8.0,1.82
25.0,1.0,1.821
16.0,-4.0,1.822
14.0,-3.0,1.823
16.0,0.0,1.824
12.0,3.0,1.825
-2.0,0.0,1.826
-9.0,-5.0,1.827
2.0,-6.0,1.828
23.0,-2.0,1.829
33.0,2.0,1.83
29.0,1.0,1.831
16.0,-4.0,1.832
-1.0,-6.0,1.833
-20.0,-6.0,1.834
-37.0,-8.0,1.835
-41.0,-11.0,1.836
-29.0,-7.0,1.837
-16.0,2.0,1.838
-3.0,5.0,1.839
5.0,-5.0,1.84
-3.0,-18.0,1.841
-11.0,-18.0,1.842
-16.0,-9.0,1.843
-17.0,-1.0,1.844
-2.0,6.0,1.845
11.0,12.0,1.846
19.0,11.0,1.847
26.0,3.0,1.848
28.0,-1.0,1.849
32.0,7.0,1.85
36.0,19.0,1.851
37.0,19.0,1.852
27.0,7.0,1.853
14.0,-5.0,1.854
-7.0,-14.0,1.855
-23.0,-20.0,1.856
-19.0,-16.0,1.857
-14.0,-5.0,1.858
-6.0,4.0,1.859
-8.0,1.0,1.86
-16.0,-8.0,1.861
-15.0,-3.0,1.862
-1.0,11.0,1.863
7.0,14.0,1.864
-8.0,0.0,1.865
-28.0,-11.0,1.866
-24.0,-10.0,1.867
-7.0,-6.0,1.868
-2.0,-9.0,1.869
-12.0,-11.0,1.87
-12.0,-4.0,1.871
5.0,5.0,1.872
21.0,5.0,1.873
22.0,3.0,1.874
20.0,4.0,1.875
17.0,5.0,1.876
4.0,1.0,1.877
-15.0,-7.0,1.878
-16.0,-10.0,1.879
-7.0,-11.0,1.88
-4.0,-12.0,1.881
-6.0,-9.0,1.882
5.0,-4.0,1.883
22.0,1.0,1.884
24.0,7.0,1.885
12.0,12.0,1.886
10.0,11.0,1.887
21.0,3.0,1.888
23.0,1.0,1.889
10.0,5.0,1.89
-2.0,4.0,1.891
-1.0,-4.0,1.892
9.0,-8.0,1.893
18.0,3.0,1.894
21.0,15.0,1.895
22.0,10.0,1.896
20.0,0.0,1.897
16.0,-4.0,1.898
15.0,4.0,1.899
17.0,10.0,1.9
17.0,6.0,1.901
11.0,0.0,1.902
5.0,-6.0,1.903
6.0,-12.0,1.904
4.0,-12.0,1.905
-10.0,-4.0,1.906
-28.0,6.0,1.907
-33.0,13.0,1.908
-21.0,17.0,1.909
-7.0,15.0,1.91
-9.0,7.0,1.911
-20.0,-5.0,1.912
-23.0,-6.0,1.913
-8.0,1.0,1.914
9.0,7.0,1.915
19.0,3.0,1.916
22.0,0.0,1.917
23.0,-3.0,1.918
20.0,-6.0,1.919
5.0,-8.0,1.92
-11.0,-10.0,1.921
-14.0,-10.0,1.922
-5.0,-10.0,1.923
2.0,-8.0,1.924
0.0,-3.0,1.925
-4.0,1.0,1.926
0.0,0.0,1.927
11.0,-2.0,1.928
21.0,0.0,1.929
28.0,4.0,1.93
31.0,4.0,1.931
27.0,1.0,1.932
16.0,-2.0,1.933
4.0,-6.0,1.934
-1.0,-11.0,1.935
-9.0,-11.0,1.936
-22.0,-7.0,1.937
-33.0,-6.0,1.938
-27.0,-4.0,1.939
-13.0,-1.0,1.94
-4.0,0.0,1.941
-5.0,-1.0,1.942
-5.0,-4.0,1.943
8.0,0.0,1.944
20.0,9.0,1.945
22.0,8.0,1.946
16.0,-3.0,1.947
17.0,-9.0,1.948
25.0,0.0,1.949
28.0,10.0,1.95
16.0,6.0,1.951
-7.0,-5.0,1.952
-23.0,-9.0,1.953
-29.0,-2.0,1.954
-23.0,5.0,1.955
-12.0,6.0,1.956
2.0,7.0,1.957
8.0,7.0,1.958
0.0,5.0,1.959
-22.0,0.0,1.96
-36.0,-7.0,1.961
-28.0,-10.0,1.962
-2.0,-9.0,1.963
19.0,-7.0,1.964
23.0,-2.0,1.965
20.0,4.0,1.966
20.0,5.0,1.967
20.0,-1.0,1.968
12.0,-8.0,1.969
8.0,-3.0,1.97
14.0,8.0,1.971
18.0,13.0,1.972
7.0,5.0,1.973
-6.0,-7.0,1.974
-10.0,-9.0,1.975
-7.0,-4.0,1.976
-7.0,-1.0,1.977
-8.0,-2.0,1.978
-2.0,1.0,1.979
1.0,7.0,1.98
-1.0,4.0,1.981
-3.0,-3.0,1.982
4.0,-7.0,1.983
10.0,-1.0,1.984
6.0,4.0,1.985
2.0,6.0,1.986
8.0,8.0,1.987
19.0,10.0,1.988
23.0,8.0,1.989
20.0,-1.0,1.99
19.0,-9.0,1.991
13.0,-11.0,1.992
2.0,-4.0,1.993
-4.0,3.0,1.994
-1.0,4.0,1.995
1.0,0.0,1.996
-1.0,0.0,1.997
-4.0,4.0,1.998
-1.0,7.0,1.999
-1.0,3.0,2.0
-9.0,-6.0,2.001
-16.0,-9.0,2.002
-9.0,-5.0,2.003
3.0,0.0,2.004
6.0,-1.0,2.005
-2.0,-2.0,2.006
-7.0,-2.0,2.007
-3.0,-2.0,2.008
3.0,-1.0,2.009
6.0,1.0,2.01
6.0,1.0,2.011
4.0,-2.0,2.012
5.0,-4.0,2.013
7.0,-6.0,2.014
9.0,-5.0,2.015
9.0,-2.0,2.016
10.0,3.0,2.017
8.0,3.0,2.018
2.0,-1.0,2.019
-10.0,-6.0,2.02
-23.0,-8.0,2.021
-23.0,-6.0,2.022
-10.0,-6.0,2.023
7.0,-6.0,2.024
15.0,-2.0,2.025
14.0,0.0,2.026
12.0,-3.0,2.027
18.0,-7.0,2.028
23.0,-4.0,2.029
20.0,3.0,2.03
9.0,2.0,2.031
-1.0,-3.0,2.032
-4.0,-2.0,2.033
-3.0,7.0,2.034
1.0,10.0,2.035
8.0,5.0,2.036
15.0,2.0,2.037
12.0,3.0,2.038
4.0,3.0,2.039
-4.0,-2.0,2.04
-11.0,-10.0,2.041
-17.0,-12.0,2.042
-16.0,-10.0,2.043
-10.0,-6.0,2.044
-5.0,0.0,2.045
-4.0,4.0,2.046
-2.0,3.0,2.047
-2.0,-2.0,2.048
-10.0,-5.0,2.049
-17.0,-4.0,2.05
-10.0,-4.0,2.051
6.0,-6.0,2.052
11.0,-3.0,2.053
3.0,6.0,2.054
-1.0,15.0,2.055
3.0,16.0,2.056
8.0,12.0,2.057
8.0,5.0,2.058
11.0,0.0,2.059
16.0,-1.0,2.06
15.0,-2.0,2.061
12.0,0.0,2.062
15.0,2.0,2.063
21.0,3.0,2.064
17.0,3.0,2.065
2.0,1.0,2.066
-7.0,-1.0,2.067
-6.0,-2.0,2.068
-2.0,1.0,2.069
0.0,6.0,2.07
4.0,5.0,2.071
12.0,-1.0,2.072
17.0,-5.0,2.073
15.0,-6.0,2.074
8.0,-5.0,2.075
2.0,-3.0,2.076
4.0,-1.0,2.077
5.0,0.0,2.078
0.0,0.0,2.079
-15.0,1.0,2.08
-23.0,-3.0,2.081
-12.0,-4.0,2.082
14.0,-5.0,2.083
33.0,-1.0,2.084
28.0,2.0,2.085
16.0,3.0,2.086
13.0,-1.0,2.087
12.0,-4.0,2.088
0.0,-2.0,2.089
-17.0,-2.0,2.09
-26.0,-7.0,2.091
-24.0,-9.0,2.092
-22.0,-1.0,2.093
-21.0,12.0,2.094
-14.0,13.0,2.095
-5.0,3.0,2.096
3.0,-4.0,2.097
10.0,-6.0,2.098
19.0,-1.0,2.099
23.0,3.0,2.1
15.0,0.0,2.101
1.0,-3.0,2.102
-1.0,-6.0,2.103
6.0,-5.0,2.104
8.0,-2.0,2.105
4.0,2.0,2.106
5.0,1.0,2.107
9.0,-1.0,2.108
9.0,-2.0,2.109
4.0,-2.0,2.11
6.0,-3.0,2.111
13.0,-3.0,2.112
11.0,1.0,2.113
3.0,3.0,2.114
0.0,-2.0,2.115
2.0,-9.0,2.116
2.0,-8.0,2.117
-5.0,-5.0,2.118
-8.0,-1.0,2.119
-5.0,1.0,2.12
-3.0,-1.0,2.121
-5.0,-4.0,2.122
-3.0,-6.0,2.123
3.0,-5.0,2.124
0.0,-1.0,2.125
-17.0,-2.0,2.126
-31.0,-6.0,2.127
-23.0,-10.0,2.128
-1.0,-6.0,2.129
16.0,2.0,2.13
20.0,2.0,2.131
25.0,-3.0,2.132
29.0,-2.0,2.133
21.0,6.0,2.134
2.0,12.0,2.135
-6.0,8.0,2.136
0.0,3.0,2.137
5.0,0.0,2.138
0.0,3.0,2.139
-11.0,5.0,2.14
-11.0,1.0,2.141
-4.0,-3.0,2.142
4.0,-7.0,2.143
11.0,-11.0,2.144
9.0,-11.0,2.145
-6.0,-3.0,2.146
-19.0,5.0,2.147
-19.0,6.0,2.148
-14.0,-2.0,2.149
-12.0,-8.0,2.15
-4.0,-7.0,2.151
16.0,-4.0,2.152
36.0,0.0,2.153
38.0,7.0,2.154
28.0,12.0,2.155
22.0,13.0,2.156
20.0,13.0,2.157
-6.0,1.0,2.158
-7.0,1.0,2.159
-7.0,0.0,2.16
-4.0,2.0,2.161
1.0,3.0,2.162
11.0,1.0,2.163
19.0,0.0,2.164
13.0,-1.0,2.165
9.0,-1.0,2.166
7.0,0.0,2.167
5.0,1.0,2.168
2.0,0.0,2.169
0.0,-1.0,2.17
0.0,0.0,2.171
0.0,2.0,2.172
1.0,0.0,2.173
1.0,-1.0,2.174
-5.0,0.0,2.175
-8.0,1.0,2.176
-1.0,2.0,2.177
-13.0,1.0,2.178
-15.0,1.0,2.179
-16.0,0.0,2.18
-10.0,2.0,2.181
0.0,3.0,2.182
22.0,1.0,2.183
37.0,0.0,2.184
26.0,-1.0,2.185
17.0,-1.0,2.186
13.0,0.0,2.187
9.0,1.0,2.188
3.0,0.0,2.189
-1.0,-1.0,2.19
-2.0,0.0,2.191
-2.0,2.0,2.192
1.0,0.0,2.193
1.0,-1.0,2.194
-11.0,0.0,2.195
-17.0,1.0,2.196
-4.0,2.0,2.197
10.0,3.0,2.198
16.0,0.0,2.199
13.0,-6.0,2.2
4.0,-9.0,2.201
0.0,-5.0,2.202
-1.0,-5.0,2.203
0.0,-7.0,2.204
0.0,0.0,2.205
3.0,8.0,2.206
7.0,6.0,2.207
7.0,-7.0,2.208
4.0,-9.0,2.209
2.0,2.0,2.21
2.0,7.0,2.211
0.0,0.0,2.212
0.0,-3.0,2.213
9.0,2.0,2.214
19.0,7.0,2.215
20.0,4.0,2.216
14.0,4.0,2.217
5.0,4.0,2.218
0.0,1.0,2.219
-5.0,-4.0,2.22
-10.0,-8.0,2.221
-11.0,-7.0,2.222
-6.0,-5.0,2.223
-1.0,-1.0,2.224
-6.0,6.0,2.225
-15.0,11.0,2.226
-18.0,8.0,2.227
-18.0,0.0,2.228
-21.0,-2.0,2.229
-24.0,1.0,2.23
-15.0,1.0,2.231
11.0,-3.0,2.232
36.0,-5.0,2.233
44.0,-3.0,2.234
41.0,-2.0,2.235
34.0,-2.0,2.236
25.0,-2.0,2.237
8.0,-3.0,2.238
-3.0,-6.0,2.239
0.0,-7.0,2.24
7.0,-5.0,2.241
6.0,-1.0,2.242
-1.0,-1.0,2.243
-2.0,-2.0,2.244
2.0,1.0,2.245
0.0,5.0,2.246
-8.0,3.0,2.247
-12.0,-4.0,2.248
-11.0,-8.0,2.249
-8.0,-8.0,2.25
-5.0,-4.0,2.251
1.0,0.0,2.252
9.0,2.0,2.253
11.0,4.0,2.254
7.0,4.0,2.255
6.0,3.0,2.256
8.0,6.0,2.257
5.0,8.0,2.258
1.0,7.0,2.259
-2.0,2.0,2.26
-2.0,-4.0,2.261
-2.0,-4.0,2.262
-2.0,0.0,2.263
-2.0,1.0,2.264
-6.0,2.0,2.265
-10.0,3.0,2.266
-10.0,4.0,2.267
-6.0,0.0,2.268
7.0,-5.0,2.269
17.0,-6.0,2.27
19.0,-3.0,2.271
20.0,-1.0,2.272
11.0,-6.0,2.273
4.0,-12.0,2.274
8.0,-9.0,2.275
10.0,2.0,2.276
8.0,11.0,2.277
4.0,6.0,2.278
-5.0,-2.0,2.279
-12.0,0.0,2.28
-16.0,6.0,2.281
-18.0,7.0,2.282
-12.0,-3.0,2.283
-2.0,-9.0,2.284
4.0,-4.0,2.285
2.0,3.0,2.286
0.0,1.0,2.287
10.0,-5.0,2.288
19.0,-7.0,2.289
21.0,-3.0,2.29
14.0,-1.0,2.291
9.0,-6.0,2.292
6.0,-9.0,2.293
2.0,-6.0,2.294
0.0,1.0,2.295
0.0,6.0,2.296
1.0,6.0,2.297
-3.0,0.0,2.298
-7.0,-5.0,2.299
-9.0,-3.0,2.3
-8.0,1.0,2.301
-2.0,1.0,2.302
5.0,-1.0,2.303
13.0,-3.0,2.304
10.0,-2.0,2.305
2.0,0.0,2.306
-2.0,-4.0,2.307
0.0,-7.0,2.308
2.0,-5.0,2.309
1.0,-1.0,2.31
2.0,-1.0,2.311
8.0,-3.0,2.312
11.0,-2.0,2.313
4.0,0.0,2.314
-1.0,-2.0,2.315
-1.0,-5.0,2.316
4.0,-2.0,2.317
3.0,2.0,2.318
-5.0,5.0,2.319
-12.0,5.0,2.32
-16.0,1.0,2.321
-17.0,2.0,2.322
-9.0,0.0,2.323
0.0,-1.0,2.324
9.0,-1.0,2.325
16.0,1.0,2.326
17.0,1.0,2.327
17.0,0.0,2.328
15.0,-1.0,2.329
13.0,-2.0,2.33
8.0,-3.0,2.331
2.0,-4.0,2.332
-5.0,-3.0,2.333
-9.0,0.0,2.334
-1.0,2.0,2.335
5.0,3.0,2.336
7.0,5.0,2.337
9.0,5.0,2.338
11.0,4.0,2.339
8.0,0.0,2.34
0.0,-4.0,2.341
-6.0,-1.0,2.342
-2.0,4.0,2.343
10.0,3.0,2.344
17.0,1.0,2.345
15.0,0.0,2.346
16.0,1.0,2.347
17.0,1.0,2.348
12.0,-5.0,2.349
3.0,-8.0,2.35
0.0,-7.0,2.351
3.0,-1.0,2.352
0.0,2.0,2.353
-7.0,-2.0,2.354
-13.0,-5.0,2.355
-12.0,-4.0,2.356
-10.0,0.0,2.357
-10.0,3.0,2.358
-3.0,7.0,2.359
6.0,8.0,2.36
7.0,4.0,2.361
-2.0,2.0,2.362
-7.0,0.0,2.363
-1.0,-3.0,2.364
0.0,-4.0,2.365
-9.0,-1.0,2.366
-15.0,1.0,2.367
-6.0,1.0,2.368
5.0,-1.0,2.369
12.0,-2.0,2.37
16.0,-4.0,2.371
23.0,-6.0,2.372
27.0,-5.0,2.373
18.0,1.0,2.374
2.0,8.0,2.375
-4.0,8.0,2.376
-2.0,7.0,2.377
-3.0,6.0,2.378
-9.0,7.0,2.379
-14.0,2.0,2.38
-10.0,-7.0,2.381
-4.0,-11.0,2.382
0.0,-9.0,2.383
5.0,-5.0,2.384
12.0,-3.0,2.385
18.0,-2.0,2.386
19.0,-1.0,2.387
15.0,-2.0,2.388
7.0,-1.0,2.389
-2.0,2.0,2.39
-9.0,3.0,2.391
-8.0,0.0,2.392
-2.0,-7.0,2.393
2.0,-8.0,2.394
1.0,-6.0,2.395
0.0,-1.0,2.396
3.0,3.0,2.397
3.0,2.0,2.398
1.0,0.0,2.399
0.0,-1.0,2.4
-1.0,-2.0,2.401
-2.0,-2.0,2.402
0.0,0.0,2.403
2.0,1.0,2.404
3.0,2.0,2.405
3.0,3.0,2.406
1.0,1.0,2.407
0.0,0.0,2.408
3.0,1.0,2.409
6.0,2.0,2.41
5.0,0.0,2.411
4.0,0.0,2.412
6.0,3.0,2.413
9.0,6.0,2.414
9.0,6.0,2.415
9.0,5.0,2.416
12.0,1.0,2.417
15.0,-2.0,2.418
13.0,-3.0,2.419
1.0,-2.0,2.42
-10.0,-2.0,2.421
-17.0,0.0,2.422
-16.0,1.0,2.423
-12.0,0.0,2.424
-4.0,-1.0,2.425
5.0,0.0,2.426
13.0,-1.0,2.427
13.0,-5.0,2.428
8.0,-8.0,2.429
-1.0,-7.0,2.43
-6.0,-4.0,2.431
-2.0,-3.0,2.432
8.0,-5.0,2.433
16.0,-4.0,2.434
15.0,1.0,2.435
8.0,5.0,2.436
0.0,5.0,2.437
-6.0,1.0,2.438
-10.0,0.0,2.439
-8.0,0.0,2.44
-1.0,-3.0,2.441
10.0,-3.0,2.442
21.0,-3.0,2.443
24.0,-5.0,2.444
14.0,-5.0,2.445
-3.0,0.0,2.446
-9.0,3.0,2.447
-3.0,0.0,2.448
3.0,-2.0,2.449
3.0,3.0,2.45
5.0,9.0,2.451
13.0,6.0,2.452
17.0,0.0,2.453
9.0,-3.0,2.454
-4.0,0.0,2.455
-14.0,0.0,2.456
-15.0,0.0,2.457
-15.0,4.0,2.458
-10.0,9.0,2.459
-4.0,5.0,2.46
0.0,-8.0,2.461
2.0,-12.0,2.462
6.0,-8.0,2.463
12.0,-5.0,2.464
13.0,-7.0,2.465
8.0,-5.0,2.466
1.0,0.0,2.467
-1.0,5.0,2.468
-2.0,3.0,2.469
-8.0,3.0,2.47
-12.0,7.0,2.471
-10.0,7.0,2.472
-5.0,2.0,2.473
-4.0,-3.0,2.474
-2.0,-6.0,2.475
5.0,-7.0,2.476
17.0,-1.0,2.477
24.0,4.0,2.478
21.0,4.0,2.479
11.0,0.0,2.48
0.0,-9.0,2.481
-2.0,-15.0,2.482
6.0,-8.0,2.483
16.0,-2.0,2.484
12.0,-2.0,2.485
0.0,-1.0,2.486
-5.0,0.0,2.487
-3.0,1.0,2.488
-2.0,0.0,2.489
-6.0,-2.0,2.49
-3.0,-2.0,2.491
11.0,-1.0,2.492
20.0,-1.0,2.493
17.0,-2.0,2.494
11.0,-1.0,2.495
11.0,0.0,2.496
11.0,3.0,2.497
2.0,6.0,2.498
-3.0,5.0,2.499
-8.0,1.0,2.5
-10.0,-3.0,2.501
-10.0,-3.0,2.502
-3.0,-3.0,2.503
2.0,-6.0,2.504
6.0,-4.0,2.505
7.0,1.0,2.506
-1.0,2.0,2.507
-7.0,-2.0,2.508
-11.0,-4.0,2.509
-12.0,2.0,2.51
-3.0,7.0,2.511
6.0,3.0,2.512
16.0,0.0,2.513
23.0,1.0,2.514
19.0,3.0,2.515
14.0,0.0,2.516
7.0,-1.0,2.517
1.0,0.0,2.518
-1.0,2.0,2.519
0.0,1.0,2.52
2.0,-3.0,2.521
2.0,-4.0,2.522
4.0,-2.0,2.523
10.0,-4.0,2.524
11.0,-6.0,2.525
7.0,-6.0,2.526
5.0,-1.0,2.527
3.0,1.0,2.528
-6.0,0.0,2.529
-17.0,-1.0,2.53
-18.0,0.0,2.531
-7.0,-1.0,2.532
2.0,0.0,2.533
3.0,6.0,2.534
3.0,15.0,2.535
7.0,16.0,2.536
8.0,9.0,2.537
3.0,1.0,2.538
0.0,0.0,2.539
0.0,2.0,2.54
2.0,-3.0,2.541
1.0,-7.0,2.542
-1.0,-6.0,2.543
0.0,-5.0,2.544
0.0,-6.0,2.545
1.0,-6.0,2.546
8.0,-3.0,2.547
17.0,-4.0,2.548
22.0,-8.0,2.549
18.0,-8.0,2.55
7.0,-2.0,2.551
-2.0,0.0,2.552
-5.0,-2.0,2.553
-3.0,-5.0,2.554
1.0,-6.0,2.555
0.0,-4.0,2.556
-5.0,-1.0,2.557
-7.0,1.0,2.558
-1.0,1.0,2.559
0.0,1.0,2.56
-6.0,-1.0,2.561
-12.0,-3.0,2.562
-7.0,-1.0,2.563
2.0,1.0,2.564
5.0,3.0,2.565
4.0,4.0,2.566
7.0,2.0,2.567
13.0,1.0,2.568
14.0,1.0,2.569
8.0,0.0,2.57
4.0,-1.0,2.571
3.0,-3.0,2.572
1.0,0.0,2.573
0.0,2.0,2.574
3.0,5.0,2.575
6.0,7.0,2.576
6.0,3.0,2.577
1.0,-1.0,2.578
-3.0,-2.0,2.579
-3.0,-4.0,2.58
-2.0,-6.0,2.581
-2.0,-6.0,2.582
-1.0,-6.0,2.583
4.0,-8.0,2.584
6.0,-6.0,2.585
1.0,-2.0,2.586
-3.0,0.0,2.587
-2.0,-1.0,2.588
2.0,-2.0,2.589
5.0,2.0,2.59
6.0,4.0,2.591
12.0,5.0,2.592
17.0,5.0,2.593
16.0,8.0,2.594
12.0,8.0,2.595
9.0,3.0,2.596
13.0,1.0,2.597
13.0,3.0,2.598
7.0,3.0,2.599
-2.0,0.0,2.6
-6.0,-4.0,2.601
-5.0,-5.0,2.602
-1.0,-7.0,2.603
-1.0,-11.0,2.604
-10.0,-11.0,2.605
-19.0,-3.0,2.606
-21.0,1.0,2.607
-13.0,-1.0,2.608
-3.0,-4.0,2.609
1.0,-3.0,2.61
4.0,-2.0,2.611
8.0,-4.0,2.612
12.0,0.0,2.613
15.0,6.0,2.614
18.0,10.0,2.615
19.0,4.0,2.616
19.0,-1.0,2.617
10.0,0.0,2.618
0.0,5.0,2.619
-4.0,5.0,2.62
-5.0,-2.0,2.621
-5.0,-3.0,2.622
-1.0,3.0,2.623
6.0,6.0,2.624
7.0,3.0,2.625
1.0,-2.0,2.626
0.0,-6.0,2.627
7.0,-8.0,2.628
11.0,-9.0,2.629
7.0,-6.0,2.63
1.0,-1.0,2.631
0.0,2.0,2.632
1.0,2.0,2.633
3.0,4.0,2.634
5.0,6.0,2.635
7.0,6.0,2.636
3.0,5.0,2.637
-2.0,3.0,2.638
-3.0,5.0,2.639
-2.0,7.0,2.64
-7.0,5.0,2.641
-11.0,2.0,2.642
-2.0,-1.0,2.643
10.0,-4.0,2.644
11.0,-4.0,2.645
2.0,-3.0,2.646
1.0,-4.0,2.647
9.0,-5.0,2.648
12.0,-5.0,2.649
5.0,-4.0,2.65
1.0,-4.0,2.651
3.0,-3.0,2.652
4.0,-3.0,2.653
2.0,-2.0,2.654
3.0,-2.0,2.655
6.0,-2.0,2.656
6.0,-5.0,2.657
2.0,-8.0,2.658
-1.0,-3.0,2.659
-2.0,0.0,2.66
-4.0,-4.0,2.661
-4.0,-6.0,2.662
0.0,-4.0,2.663
6.0,-2.0,2.664
6.0,-2.0,2.665
1.0,1.0,2.666
-4.0,2.0,2.667
-8.0,0.0,2.668
-15.0,-7.0,2.669
-19.0,-7.0,2.67
-14.0,-3.0,2.671
-2.0,0.0,2.672
7.0,1.0,2.673
11.0,3.0,2.674
15.0,8.0,2.675
22.0,10.0,2.676
30.0,9.0,2.677
33.0,4.0,2.678
28.0,0.0,2.679
17.0,-3.0,2.68
7.0,-6.0,2.681
0.0,-3.0,2.682
-6.0,-1.0,2.683
-7.0,-2.0,2.684
-3.0,-2.0,2.685
3.0,1.0,2.686
7.0,3.0,2.687
6.0,3.0,2.688
2.0,0.0,2.689
-3.0,0.0,2.69
-10.0,-1.0,2.691
-11.0,-4.0,2.692
-6.0,-7.0,2.693
0.0,-5.0,2.694
1.0,0.0,2.695
1.0,2.0,2.696
1.0,4.0,2.697
0.0,4.0,2.698
-4.0,7.0,2.699
-7.0,9.0,2.7
-5.0,6.0,2.701
0.0,4.0,2.702
4.0,0.0,2.703
11.0,-3.0,2.704
16.0,-5.0,2.705
15.0,-4.0,2.706
9.0,-3.0,2.707
3.0,-4.0,2.708
3.0,-3.0,2.709
3.0,2.0,2.71
3.0,2.0,2.711
3.0,0.0,2.712
5.0,-2.0,2.713
6.0,1.0,2.714
2.0,5.0,2.715
0.0,6.0,2.716
2.0,5.0,2.717
1.0,1.0,2.718
-3.0,0.0,2.719
-14.0,-2.0,2.72
-19.0,-2.0,2.721
-15.0,-2.0,2.722
-3.0,-1.0,2.723
5.0,0.0,2.724
4.0,-2.0,2.725
0.0,-4.0,2.726
1.0,-2.0,2.727
7.0,-1.0,2.728
10.0,-2.0,2.729
6.0,-4.0,2.73
3.0,-6.0,2.731
6.0,-8.0,2.732
7.0,-5.0,2.733
6.0,-1.0,2.734
4.0,1.0,2.735
8.0,3.0,2.736
12.0,1.0,2.737
9.0,-2.0,2.738
2.0,-3.0,2.739
-3.0,-2.0,2.74
-7.0,-5.0,2.741
-10.0,-6.0,2.742
-7.0,-3.0,2.743
0.0,0.0,2.744
3.0,0.0,2.745
1.0,0.0,2.746
0.0,-1.0,2.747
5.0,-2.0,2.748
11.0,-1.0,2.749
14.0,-3.0,2.75
12.0,-6.0,2.751
10.0,-5.0,2.752
6.0,0.0,2.753
-2.0,5.0,2.754
-6.0,4.0,2.755
-1.0,1.0,2.756
10.0,0.0,2.757
17.0,1.0,2.758
20.0,1.0,2.759
17.0,3.0,2.76
9.0,2.0,2.761
-4.0,-1.0,2.762
-10.0,-5.0,2.763
-4.0,-2.0,2.764
5.0,5.0,2.765
4.0,8.0,2.766
-2.0,1.0,2.767
-5.0,-3.0,2.768
0.0,2.0,2.769
2.0,8.0,2.77
1.0,6.0,2.771
1.0,-2.0,2.772
3.0,-5.0,2.773
4.0,0.0,2.774
3.0,2.0,2.775
5.0,0.0,2.776
8.0,1.0,2.777
5.0,3.0,2.778
0.0,3.0,2.779
-5.0,-2.0,2.78
-6.0,-9.0,2.781
-6.0,-8.0,2.782
-4.0,-1.0,2.783
1.0,4.0,2.784
1.0,2.0,2.785
-3.0,-5.0,2.786
-4.0,-9.0,2.787
0.0,-10.0,2.788
4.0,-6.0,2.789
4.0,0.0,2.79
4.0,4.0,2.791
7.0,4.0,2.792
9.0,3.0,2.793
6.0,2.0,2.794
2.0,3.0,2.795
3.0,6.0,2.796
7.0,8.0,2.797
8.0,3.0,2.798
7.0,3.0,2.799
4.0,1.0,2.8
-1.0,-3.0,2.801
-5.0,-7.0,2.802
-5.0,-8.0,2.803
2.0,-8.0,2.804
6.0,-5.0,2.805
5.0,-1.0,2.806
5.0,0.0,2.807
8.0,3.0,2.808
7.0,2.0,2.809
3.0,0.0,2.81
2.0,-2.0,2.811
10.0,-5.0,2.812
11.0,-3.0,2.813
7.0,-1.0,2.814
0.0,0.0,2.815
0.0,2.0,2.816
2.0,3.0,2.817
0.0,4.0,2.818
-3.0,5.0,2.819
-7.0,3.0,2.82
-9.0,-4.0,2.821
-7.0,-6.0,2.822
-2.0,-2.0,2.823
2.0,0.0,2.824
2.0,1.0,2.825
0.0,3.0,2.826
3.0,3.0,2.827
9.0,-3.0,2.828
10.0,-10.0,2.829
8.0,-10.0,2.83
5.0,-3.0,2.831
4.0,0.0,2.832
5.0,0.0,2.833
6.0,0.0,2.834
5.0,2.0,2.835
5.0,2.0,2.836
7.0,0.0,2.837
8.0,0.0,2.838
6.0,1.0,2.839
0.0,0.0,2.84
-6.0,-5.0,2.841
-8.0,-6.0,2.842
-2.0,-7.0,2.843
4.0,-7.0,2.844
4.0,-7.0,2.845
0.0,-2.0,2.846
-1.0,6.0,2.847
2.0,10.0,2.848
6.0,8.0,2.849
7.0,2.0,2.85
6.0,-3.0,2.851
5.0,-10.0,2.852
4.0,-12.0,2.853
-1.0,-2.0,2.854
-4.0,14.0,2.855
-1.0,22.0,2.856
4.0,15.0,2.857
5.0,1.0,2.858
-1.0,-5.0,2.859
-7.0,-4.0,2.86
-8.0,-2.0,2.861
-8.0,0.0,2.862
-7.0,-2.0,2.863
-2.0,-6.0,2.864
5.0,-6.0,2.865
13.0,-3.0,2.866
13.0,0.0,2.867
11.0,-5.0,2.868
10.0,-10.0,2.869
10.0,-8.0,2.87
10.0,-5.0,2.871
7.0,-5.0,2.872
3.0,-5.0,2.873
2.0,-1.0,2.874
6.0,7.0,2.875
12.0,12.0,2.876
12.0,12.0,2.877
3.0,6.0,2.878
-8.0,1.0,2.879
-15.0,-3.0,2.88
-18.0,-3.0,2.881
-14.0,-3.0,2.882
-2.0,-3.0,2.883
13.0,-3.0,2.884
21.0,-3.0,2.885
17.0,-2.0,2.886
10.0,-2.0,2.887
3.0,-2.0,2.888
2.0,-4.0,2.889
0.0,-5.0,2.89
-5.0,0.0,2.891
-15.0,5.0,2.892
-25.0,3.0,2.893
-27.0,3.0,2.894
-22.0,7.0,2.895
-10.0,9.0,2.896
5.0,6.0,2.897
22.0,2.0,2.898
35.0,-1.0,2.899
36.0,-1.0,2.9
28.0,0.0,2.901
18.0,1.0,2.902
14.0,2.0,2.903
14.0,0.0,2.904
11.0,-2.0,2.905
6.0,-2.0,2.906
3.0,-2.0,2.907
4.0,-3.0,2.908
3.0,-6.0,2.909
-2.0,-8.0,2.91
-7.0,-6.0,2.911
-9.0,1.0,2.912
-6.0,9.0,2.913
0.0,13.0,2.914
2.0,9.0,2.915
2.0,-2.0,2.916
1.0,-8.0,2.917
-2.0,-5.0,2.918
-5.0,2.0,2.919
-9.0,2.0,2.92
-11.0,-4.0,2.921
-11.0,-6.0,2.922
-7.0,-5.0,2.923
0.0,-4.0,2.924
4.0,-3.0,2.925
0.0,2.0,2.926
-2.0,4.0,2.927
1.0,1.0,2.928
7.0,-4.0,2.929
9.0,-5.0,2.93
6.0,-5.0,2.931
7.0,-5.0,2.932
10.0,-5.0,2.933
9.0,0.0,2.934
3.0,3.0,2.935
-1.0,2.0,2.936
0.0,0.0,2.937
-1.0,0.0,2.938
-4.0,-4.0,2.939
-5.0,-9.0,2.94
-4.0,-14.0,2.941
0.0,-8.0,2.942
4.0,4.0,2.943
9.0,12.0,2.944
10.0,10.0,2.945
9.0,1.0,2.946
9.0,-7.0,2.947
11.0,-9.0,2.948
6.0,-3.0,2.949
-8.0,5.0,2.95
-22.0,7.0,2.951
-24.0,4.0,2.952
-14.0,0.0,2.953
-3.0,-4.0,2.954
6.0,-8.0,2.955
14.0,-6.0,2.956
25.0,1.0,2.957
34.0,4.0,2.958
35.0,2.0,2.959
24.0,0.0,2.96
13.0,0.0,2.961
12.0,-1.0,2.962
18.0,-5.0,2.963
18.0,-8.0,2.964
4.0,-3.0,2.965
-8.0,0.0,2.966
-8.0,-4.0,2.967
0.0,-5.0,2.968
0.0,4.0,2.969
-8.0,12.0,2.97
-11.0,12.0,2.971
-8.0,12.0,2.972
-5.0,7.0,2.973
-5.0,1.0,2.974
-8.0,-7.0,2.975
-11.0,-11.0,2.976
-12.0,-5.0,2.977
-8.0,0.0,2.978
0.0,0.0,2.979
3.0,-2.0,2.98
1.0,-2.0,2.981
3.0,3.0,2.982
12.0,6.0,2.983
13.0,4.0,2.984
4.0,2.0,2.985
1.0,3.0,2.986
11.0,2.0,2.987
19.0,-2.0,2.988
17.0,-3.0,2.989
13.0,0.0,2.99
14.0,3.0,2.991
8.0,0.0,2.992
-9.0,-5.0,2.993
-21.0,-6.0,2.994
-19.0,-6.0,2.995
-11.0,-7.0,2.996
-7.0,-4.0,2.997
-7.0,-3.0,2.998
-2.0,0.0,2.999
0.0,-1.0,3.0
0.0,-13.0,3.001
5.0,-19.0,3.002
23.0,-12.0,3.003
41.0,2.0,3.004
41.0,8.0,3.005
29.0,1.0,3.006
14.0,-8.0,3.007
6.0,-8.0,3.008
3.0,-1.0,3.009
1.0,0.0,3.01
1.0,1.0,3.011
1.0,7.0,3.012
0.0,13.0,3.013
0.0,10.0,3.014
0.0,1.0,3.015
-1.0,-2.0,3.016
-5.0,2.0,3.017
-9.0,0.0,3.018
-11.0,-12.0,3.019
-13.0,-19.0,3.02
-17.0,-14.0,3.021
-18.0,-1.0,3.022
-13.0,5.0,3.023
-5.0,5.0,3.024
-1.0,6.0,3.025
-3.0,8.0,3.026
-3.0,8.0,3.027
1.0,6.0,3.028
7.0,5.0,3.029
9.0,4.0,3.03
10.0,0.0,3.031
11.0,-4.0,3.032
8.0,-5.0,3.033
0.0,-7.0,3.034
-5.0,-6.0,3.035
-3.0,2.0,3.036
6.0,13.0,3.037
7.0,9.0,3.038
2.0,-6.0,3.039
-7.0,-16.0,3.04
-7.0,-15.0,3.041
0.0,-9.0,3.042
12.0,-4.0,3.043
16.0,3.0,3.044
7.0,19.0,3.045
-5.0,31.0,3.046
-7.0,25.0,3.047
2.0,8.0,3.048
14.0,-2.0,3.049
17.0,-4.0,3.05
13.0,-6.0,3.051
5.0,-12.0,3.052
-3.0,-11.0,3.053
-8.0,-4.0,3.054
-7.0,-1.0,3.055
-3.0,-4.0,3.056
-1.0,-6.0,3.057
0.0,-6.0,3.058
8.0,-4.0,3.059
17.0,-3.0,3.06
20.0,-4.0,3.061
17.0,-2.0,3.062
20.0,-4.0,3.063
31.0,-10.0,3.064
38.0,-12.0,3.065
29.0,-6.0,3.066
15.0,4.0,3.067
4.0,6.0,3.068
-3.0,2.0,3.069
-11.0,1.0,3.07
-14.0,5.0,3.071
-9.0,9.0,3.072
-4.0,10.0,3.073
-4.0,10.0,3.074
-6.0,10.0,3.075
-3.0,8.0,3.076
0.0,2.0,3.077
-5.0,-6.0,3.078
-10.0,-5.0,3.079
-11.0,1.0,3.08
-10.0,2.0,3.081
-12.0,-7.0,3.082
-10.0,-17.0,3.083
0.0,-15.0,3.084
6.0,-5.0,3.085
0.0,-1.0,3.086
-4.0,-4.0,3.087
-4.0,-5.0,3.088
-5.0,-1.0,3.089
-12.0,2.0,3.09
-17.0,0.0,3.091
-8.0,-1.0,3.092
4.0,0.0,3.093
12.0,-1.0,3.094
18.0,-2.0,3.095
27.0,-3.0,3.096
31.0,-3.0,3.097
24.0,-4.0,3.098
21.0,-3.0,3.099
25.0,3.0,3.1
22.0,5.0,3.101
7.0,6.0,3.102
-2.0,6.0,3.103
5.0,5.0,3.104
12.0,2.0,3.105
2.0,-3.0,3.106
-12.0,-7.0,3.107
-11.0,-7.0,3.108
-3.0,-7.0,3.109
-4.0,-7.0,3.11
-9.0,-6.0,3.111
-6.0,-4.0,3.112
0.0,-2.0,3.113
-3.0,-1.0,3.114
-10.0,0.0,3.115
-7.0,2.0,3.116
-3.0,6.0,3.117
-8.0,6.0,3.118
-15.0,6.0,3.119
-13.0,4.0,3.12
0.0,2.0,3.121
15.0,7.0,3.122
24.0,10.0,3.123
32.0,4.0,3.124
32.0,-5.0,3.125
22.0,-6.0,3.126
7.0,-3.0,3.127
-4.0,-3.0,3.128
-7.0,-4.0,3.129
-5.0,1.0,3.13
-2.0,9.0,3.131
2.0,6.0,3.132
8.0,-5.0,3.133
8.0,-10.0,3.134
1.0,-4.0,3.135
-7.0,6.0,3.136
-13.0,13.0,3.137
-13.0,8.0,3.138
-9.0,-2.0,3.139
-10.0,-13.0,3.14
-12.0,-18.0,3.141
-10.0,-9.0,3.142
-2.0,-5.0,3.143
8.0,-11.0,3.144
16.0,-13.0,3.145
23.0,0.0,3.146
27.0,13.0,3.147
23.0,8.0,3.148
12.0,-7.0,3.149
1.0,-10.0,3.15
-1.0,4.0,3.151
-2.0,13.0,3.152
-5.0,8.0,3.153
-3.0,2.0,3.154
5.0,3.0,3.155
11.0,1.0,3.156
7.0,-3.0,3.157
1.0,-5.0,3.158
2.0,2.0,3.159
4.0,6.0,3.16
2.0,-3.0,3.161
-3.0,-10.0,3.162
-2.0,-7.0,3.163
4.0,1.0,3.164
4.0,1.0,3.165
-3.0,-4.0,3.166
-8.0,-6.0,3.167
-11.0,-7.0,3.168
-13.0,-7.0,3.169
-10.0,-5.0,3.17
-4.0,4.0,3.171
4.0,8.0,3.172
10.0,0.0,3.173
10.0,-12.0,3.174
10.0,-13.0,3.175
11.0,-1.0,3.176
12.0,12.0,3.177
8.0,17.0,3.178
5.0,16.0,3.179
1.0,10.0,3.18
-2.0,-2.0,3.181
-3.0,-11.0,3.182
-1.0,-11.0,3.183
8.0,-5.0,3.184
13.0,2.0,3.185
12.0,3.0,3.186
4.0,-4.0,3.187
-2.0,-10.0,3.188
-3.0,-14.0,3.189
0.0,-9.0,3.19
0.0,1.0,3.191
-2.0,10.0,3.192
-4.0,12.0,3.193
-3.0,10.0,3.194
-2.0,7.0,3.195
-3.0,6.0,3.196
-6.0,5.0,3.197
-4.0,3.0,3.198
3.0,3.0,3.199
10.0,2.0,3.2
17.0,-3.0,3.201
28.0,-8.0,3.202
39.0,-7.0,3.203
33.0,-4.0,3.204
4.0,-2.0,3.205
-28.0,-3.0,3.206
-36.0,-8.0,3.207
-23.0,-10.0,3.208
-13.0,-7.0,3.209
-11.0,-1.0,3.21
-5.0,4.0,3.211
10.0,5.0,3.212
26.0,1.0,3.213
32.0,-5.0,3.214
30.0,-9.0,3.215
21.0,-7.0,3.216
8.0,-2.0,3.217
-7.0,0.0,3.218
-15.0,0.0,3.219
-16.0,0.0,3.22
-17.0,0.0,3.221
-16.0,2.0,3.222
-4.0,2.0,3.223
14.0,0.0,3.224
21.0,0.0,3.225
14.0,4.0,3.226
4.0,2.0,3.227
2.0,-5.0,3.228
1.0,-11.0,3.229
-1.0,-5.0,3.23
8.0,11.0,3.231
29.0,22.0,3.232
40.0,21.0,3.233
26.0,9.0,3.234
4.0,-5.0,3.235
-5.0,-13.0,3.236
-4.0,-9.0,3.237
-8.0,0.0,3.238
-19.0,8.0,3.239
-30.0,5.0,3.24
-32.0,-2.0,3.241
-25.0,-2.0,3.242
-16.0,-1.0,3.243
-7.0,-1.0,3.244
-4.0,-3.0,3.245
-4.0,-1.0,3.246
-2.0,1.0,3.247
0.0,-1.0,3.248
1.0,-2.0,3.249
5.0,2.0,3.25
12.0,3.0,3.251
19.0,-3.0,3.252
19.0,-8.0,3.253
16.0,-3.0,3.254
11.0,1.0,3.255
10.0,-4.0,3.256
11.0,-11.0,3.257
9.0,-11.0,3.258
5.0,-2.0,3.259
-4.0,3.0,3.26
-11.0,-5.0,3.261
-12.0,-10.0,3.262
-4.0,-5.0,3.263
5.0,5.0,3.264
8.0,10.0,3.265
5.0,8.0,3.266
3.0,2.0,3.267
6.0,-3.0,3.268
8.0,-7.0,3.269
8.0,-6.0,3.27
9.0,-2.0,3.271
10.0,2.0,3.272
5.0,4.0,3.273
2.0,3.0,3.274
5.0,0.0,3.275
13.0,-2.0,3.276
16.0,0.0,3.277
5.0,-2.0,3.278
-11.0,-6.0,3.279
-24.0,-9.0,3.28
-26.0,-9.0,3.281
-24.0,-7.0,3.282
-5.0,-4.0,3.283
13.0,-1.0,3.284
25.0,0.0,3.285
34.0,2.0,3.286
35.0,4.0,3.287
33.0,6.0,3.288
22.0,7.0,3.289
12.0,11.0,3.29
6.0,19.0,3.291
2.0,20.0,3.292
2.0,1.0,3.293
0.0,-13.0,3.294
-1.0,-7.0,3.295
-4.0,-3.0,3.296
-5.0,-1.0,3.297
-5.0,-2.0,3.298
-2.0,-4.0,3.299
-4.0,3.0,3.3
-12.0,5.0,3.301
-12.0,0.0,3.302
1.0,-1.0,3.303
8.0,4.0,3.304
-5.0,6.0,3.305
-21.0,-2.0,3.306
-26.0,-8.0,3.307
-24.0,-5.0,3.308
-26.0,5.0,3.309
-28.0,8.0,3.31
-16.0,0.0,3.311
6.0,-9.0,3.312
24.0,-13.0,3.313
37.0,-9.0,3.314
47.0,-4.0,3.315
48.0,0.0,3.316
41.0,3.0,3.317
27.0,5.0,3.318
21.0,9.0,3.319
20.0,13.0,3.32
14.0,7.0,3.321
2.0,1.0,3.322
-4.0,-4.0,3.323
-2.0,-6.0,3.324
1.0,-8.0,3.325
-2.0,-6.0,3.326
-8.0,-4.0,3.327
-12.0,-5.0,3.328
-14.0,-8.0,3.329
-13.0,-10.0,3.33
-6.0,-11.0,3.331
3.0,-10.0,3.332
7.0,-5.0,3.333
3.0,3.0,3.334
-1.0,6.0,3.335
0.0,1.0,3.336
0.0,0.0,3.337
-3.0,8.0,3.338
-9.0,18.0,3.339
-13.0,21.0,3.34
-16.0,12.0,3.341
-13.0,2.0,3.342
-4.0,-6.0,3.343
3.0,-14.0,3.344
3.0,-16.0,3.345
-2.0,-11.0,3.346
-2.0,-9.0,3.347
2.0,-15.0,3.348
7.0,-21.0,3.349
10.0,-14.0,3.35
9.0,0.0,3.351
10.0,6.0,3.352
9.0,2.0,3.353
9.0,-4.0,3.354
6.0,-1.0,3.355
3.0,5.0,3.356
4.0,9.0,3.357
4.0,5.0,3.358
2.0,-1.0,3.359
0.0,-2.0,3.36
-2.0,-1.0,3.361
-4.0,0.0,3.362
0.0,0.0,3.363
2.0,0.0,3.364
-3.0,2.0,3.365
-9.0,3.0,3.366
-7.0,-1.0,3.367
-4.0,-5.0,3.368
4.0,-1.0,3.369
12.0,3.0,3.37
19.0,3.0,3.371
25.0,0.0,3.372
25.0,-1.0,3.373
20.0,0.0,3.374
1.0,2.0,3.375
-14.0,2.0,3.376
-14.0,3.0,3.377
-7.0,8.0,3.378
17.0,11.0,3.379
31.0,9.0,3.38
26.0,-1.0,3.381
3.0,-7.0,3.382
-17.0,-2.0,3.383
-18.0,9.0,3.384
-8.0,15.0,3.385
-4.0,12.0,3.386
-10.0,3.0,3.387
-18.0,-4.0,3.388
-17.0,-7.0,3.389
-7.0,-8.0,3.39
6.0,-9.0,3.391
16.0,-12.0,3.392
17.0,-11.0,3.393
12.0,-3.0,3.394
7.0,7.0,3.395
4.0,12.0,3.396
0.0,14.0,3.397
-8.0,6.0,3.398
-15.0,-6.0,3.399
-13.0,-18.0,3.4
0.0,-27.0,3.401
15.0,-22.0,3.402
17.0,-11.0,3.403
5.0,0.0,3.404
-9.0,10.0,3.405
-13.0,14.0,3.406
-6.0,7.0,3.407
5.0,-4.0,3.408
18.0,-6.0,3.409
28.0,2.0,3.41
31.0,9.0,3.411
29.0,7.0,3.412
28.0,0.0,3.413
30.0,-1.0,3.414
22.0,0.0,3.415
9.0,-3.0,3.416
0.0,-9.0,3.417
1.0,-13.0,3.418
4.0,-14.0,3.419
-3.0,-14.0,3.42
-16.0,-15.0,3.421
-22.0,-8.0,3.422
-17.0,4.0,3.423
-8.0,14.0,3.424
-8.0,19.0,3.425
-10.0,13.0,3.426
-8.0,0.0,3.427
-2.0,-9.0,3.428
1.0,-9.0,3.429
-1.0,-4.0,3.43
-3.0,-4.0,3.431
1.0,-7.0,3.432
6.0,-5.0,3.433
6.0,1.0,3.434
3.0,4.0,3.435
3.0,5.0,3.436
4.0,9.0,3.437
1.0,12.0,3.438
-3.0,11.0,3.439
-4.0,6.0,3.44
1.0,-1.0,3.441
9.0,-1.0,3.442
19.0,4.0,3.443
26.0,15.0,3.444
21.0,26.0,3.445
15.0,22.0,3.446
7.0,4.0,3.447
0.0,-11.0,3.448
0.0,-12.0,3.449
0.0,-2.0,3.45
-4.0,4.0,3.451
-8.0,0.0,3.452
-8.0,-7.0,3.453
-8.0,-10.0,3.454
-12.0,-10.0,3.455
-14.0,-7.0,3.456
-12.0,-1.0,3.457
-10.0,4.0,3.458
-1.0,6.0,3.459
4.0,1.0,3.46
7.0,-9.0,3.461
6.0,-11.0,3.462
10.0,-6.0,3.463
15.0,4.0,3.464
16.0,7.0,3.465
13.0,0.0,3.466
10.0,-7.0,3.467
9.0,-9.0,3.468
4.0,-5.0,3.469
-1.0,-2.0,3.47
-1.0,-2.0,3.471
2.0,-2.0,3.472
5.0,-1.0,3.473
3.0,-1.0,3.474
0.0,-2.0,3.475
-1.0,-3.0,3.476
-2.0,0.0,3.477
0.0,0.0,3.478
6.0,-3.0,3.479
11.0,-8.0,3.48
6.0,-14.0,3.481
-9.0,-11.0,3.482
-23.0,-2.0,3.483
-27.0,7.0,3.484
-22.0,9.0,3.485
-6.0,8.0,3.486
18.0,9.0,3.487
36.0,6.0,3.488
42.0,-4.0,3.489
35.0,-12.0,3.49
23.0,-8.0,3.491
7.0,1.0,3.492
-12.0,7.0,3.493
-16.0,7.0,3.494
0.0,11.0,3.495
16.0,14.0,3.496
15.0,9.0,3.497
0.0,-1.0,3.498
-6.0,-2.0,3.499
-4.0,8.0,3.5
-6.0,9.0,3.501
-10.0,1.0,3.502
-5.0,-5.0,3.503
7.0,-4.0,3.504
9.0,-4.0,3.505
-1.0,-7.0,3.506
-3.0,-10.0,3.507
4.0,-11.0,3.508
6.0,-11.0,3.509
0.0,-9.0,3.51
1.0,-6.0,3.511
10.0,-5.0,3.512
14.0,-11.0,3.513
7.0,-17.0,3.514
3.0,-15.0,3.515
4.0,-3.0,3.516
3.0,11.0,3.517
-4.0,16.0,3.518
-5.0,8.0,3.519
-6.0,0.0,3.52
-8.0,0.0,3.521
-10.0,8.0,3.522
-6.0,9.0,3.523
-2.0,4.0,3.524
0.0,6.0,3.525
3.0,13.0,3.526
9.0,6.0,3.527
14.0,-10.0,3.528
18.0,-17.0,3.529
19.0,-7.0,3.53
13.0,0.0,3.531
9.0,-4.0,3.532
9.0,-5.0,3.533
6.0,4.0,3.534
-6.0,15.0,3.535
-13.0,16.0,3.536
-7.0,12.0,3.537
-3.0,6.0,3.538
1.0,0.0,3.539
0.0,-5.0,3.54
-2.0,-6.0,3.541
-4.0,-2.0,3.542
-3.0,-2.0,3.543
2.0,-3.0,3.544
6.0,-2.0,3.545
2.0,0.0,3.546
-1.0,-5.0,3.547
1.0,-13.0,3.548
3.0,-6.0,3.549
1.0,9.0,3.55
2.0,14.0,3.551
8.0,6.0,3.552
15.0,3.0,3.553
12.0,8.0,3.554
4.0,6.0,3.555
1.0,-5.0,3.556
2.0,-8.0,3.557
1.0,-3.0,3.558
-4.0,0.0,3.559
-15.0,-5.0,3.56
-29.0,-10.0,3.561
-37.0,-3.0,3.562
-29.0,5.0,3.563
-10.0,5.0,3.564
10.0,4.0,3.565
21.0,11.0,3.566
23.0,12.0,3.567
21.0,-3.0,3.568
12.0,-17.0,3.569
4.0,-19.0,3.57
17.0,-15.0,3.571
44.0,-19.0,3.572
65.0,-24.0,3.573
61.0,-19.0,3.574
40.0,-7.0,3.575
14.0,-1.0,3.576
-1.0,7.0,3.577
-14.0,11.0,3.578
-21.0,7.0,3.579
-25.0,-2.0,3.58
-27.0,-8.0,3.581
-24.0,3.0,3.582
-15.0,18.0,3.583
-5.0,24.0,3.584
-1.0,17.0,3.585
1.0,8.0,3.586
7.0,-2.0,3.587
10.0,-10.0,3.588
7.0,-6.0,3.589
4.0,5.0,3.59
1.0,5.0,3.591
-2.0,-7.0,3.592
-6.0,-16.0,3.593
-5.0,-13.0,3.594
3.0,-7.0,3.595
8.0,-5.0,3.596
6.0,-3.0,3.597
-1.0,0.0,3.598
-1.0,0.0,3.599
-3.0,-2.0,3.6
-11.0,-5.0,3.601
-15.0,-3.0,3.602
-8.0,-2.0,3.603
-1.0,-5.0,3.604
3.0,-5.0,3.605
7.0,-5.0,3.606
6.0,-9.0,3.607
3.0,-12.0,3.608
-2.0,-4.0,3.609
-6.0,7.0,3.61
-2.0,12.0,3.611
3.0,9.0,3.612
11.0,7.0,3.613
17.0,10.0,3.614
17.0,7.0,3.615
17.0,0.0,3.616
12.0,-3.0,3.617
8.0,-7.0,3.618
7.0,-9.0,3.619
4.0,-6.0,3.62
0.0,5.0,3.621
-4.0,17.0,3.622
1.0,14.0,3.623
9.0,0.0,3.624
4.0,-4.0,3.625
-9.0,3.0,3.626
-15.0,10.0,3.627
-9.0,6.0,3.628
0.0,-3.0,3.629
7.0,-6.0,3.63
9.0,-3.0,3.631
9.0,-2.0,3.632
8.0,-3.0,3.633
7.0,1.0,3.634
6.0,12.0,3.635
7.0,18.0,3.636
9.0,8.0,3.637
7.0,-10.0,3.638
4.0,-12.0,3.639
-4.0,3.0,3.64
-11.0,14.0,3.641
-12.0,10.0,3.642
-6.0,-3.0,3.643
1.0,-7.0,3.644
5.0,-5.0,3.645
5.0,-7.0,3.646
7.0,-13.0,3.647
8.0,-18.0,3.648
5.0,-18.0,3.649
3.0,-17.0,3.65
10.0,-17.0,3.651
22.0,-14.0,3.652
21.0,-6.0,3.653
0.0,4.0,3.654
-22.0,9.0,3.655
-25.0,3.0,3.656
-14.0,-7.0,3.657
-11.0,-13.0,3.658
-3.0,-11.0,3.659
5.0,-2.0,3.66
5.0,8.0,3.661
4.0,21.0,3.662
4.0,27.0,3.663
5.0,19.0,3.664
4.0,2.0,3.665
2.0,-6.0,3.666
4.0,-3.0,3.667
8.0,3.0,3.668
17.0,5.0,3.669
27.0,4.0,3.67
27.0,7.0,3.671
25.0,10.0,3.672
16.0,15.0,3.673
8.0,20.0,3.674
5.0,20.0,3.675
5.0,11.0,3.676
17.0,0.0,3.677
-4.0,-8.0,3.678
1.0,-10.0,3.679
6.0,-12.0,3.68
6.0,-12.0,3.681
5.0,-9.0,3.682
5.0,0.0,3.683
6.0,7.0,3.684
5.0,1.0,3.685
4.0,-4.0,3.686
5.0,-8.0,3.687
8.0,-12.0,3.688
14.0,-13.0,3.689
20.0,-14.0,3.69
20.0,-14.0,3.691
19.0,-14.0,3.692
13.0,-16.0,3.693
8.0,-16.0,3.694
6.0,-8.0,3.695
6.0,-2.0,3.696
14.0,-4.0,3.697
19.0,-5.0,3.698
14.0,-1.0,3.699
-4.0,4.0,3.7
-19.0,0.0,3.701
-23.0,-5.0,3.702
-16.0,-2.0,3.703
-7.0,7.0,3.704
-7.0,10.0,3.705
-12.0,5.0,3.706
-9.0,0.0,3.707
1.0,2.0,3.708
6.0,7.0,3.709
2.0,5.0,3.71
0.0,-1.0,3.711
9.0,-3.0,3.712
14.0,0.0,3.713
7.0,6.0,3.714
-2.0,15.0,3.715
0.0,20.0,3.716
6.0,20.0,3.717
3.0,11.0,3.718
-4.0,1.0,3.719
-10.0,-4.0,3.72
-15.0,-9.0,3.721
-20.0,-9.0,3.722
-15.0,-5.0,3.723
-1.0,2.0,3.724
10.0,8.0,3.725
11.0,8.0,3.726
7.0,2.0,3.727
4.0,-1.0,3.728
4.0,-2.0,3.729
4.0,-5.0,3.73
9.0,-11.0,3.731
15.0,-15.0,3.732
16.0,-18.0,3.733
8.0,-21.0,3.734
0.0,-20.0,3.735
-4.0,-12.0,3.736
-2.0,-2.0,3.737
-5.0,0.0,3.738
-10.0,-4.0,3.739
-14.0,-6.0,3.74
-5.0,0.0,3.741
12.0,14.0,3.742
26.0,31.0,3.743
26.0,38.0,3.744
17.0,33.0,3.745
19.0,15.0,3.746
37.0,-6.0,3.747
52.0,-16.0,3.748
45.0,-8.0,3.749
25.0,6.0,3.75
9.0,6.0,3.751
-1.0,-3.0,3.752
-7.0,-6.0,3.753
-10.0,0.0,3.754
-7.0,1.0,3.755
-5.0,-8.0,3.756
-9.0,-16.0,3.757
-16.0,-15.0,3.758
-18.0,-8.0,3.759
-21.0,-4.0,3.76
-22.0,-8.0,3.761
-20.0,-11.0,3.762
-10.0,-6.0,3.763
-3.0,-2.0,3.764
-3.0,-2.0,3.765
0.0,-1.0,3.766
9.0,-1.0,3.767
11.0,-1.0,3.768
-7.0,-1.0,3.769
-22.0,-1.0,3.77
-21.0,-2.0,3.771
-18.0,-3.0,3.772
-10.0,-1.0,3.773
0.0,1.0,3.774
9.0,5.0,3.775
18.0,7.0,3.776
25.0,4.0,3.777
28.0,0.0,3.778
18.0,-1.0,3.779
9.0,0.0,3.78
6.0,-4.0,3.781
4.0,-7.0,3.782
4.0,-7.0,3.783
8.0,-1.0,3.784
10.0,10.0,3.785
1.0,18.0,3.786
-6.0,16.0,3.787
-3.0,9.0,3.788
2.0,1.0,3.789
3.0,-2.0,3.79
1.0,-6.0,3.791
6.0,-8.0,3.792
14.0,-8.0,3.793
14.0,-5.0,3.794
7.0,-4.0,3.795
3.0,-4.0,3.796
5.0,0.0,3.797
5.0,5.0,3.798
-1.0,5.0,3.799
-5.0,-1.0,3.8
-5.0,-8.0,3.801
-5.0,-8.0,3.802
-3.0,-4.0,3.803
1.0,-2.0,3.804
3.0,3.0,3.805
-1.0,10.0,3.806
-4.0,7.0,3.807
0.0,-3.0,3.808
6.0,-10.0,3.809
7.0,-7.0,3.81
5.0,-1.0,3.811
7.0,-5.0,3.812
10.0,-9.0,3.813
6.0,-2.0,3.814
4.0,17.0,3.815
9.0,25.0,3.816
16.0,15.0,3.817
12.0,0.0,3.818
1.0,-5.0,3.819
-8.0,-1.0,3.82
-13.0,-2.0,3.821
-17.0,-2.0,3.822
-14.0,3.0,3.823
-1.0,10.0,3.824
6.0,7.0,3.825
-2.0,-1.0,3.826
-21.0,-5.0,3.827
-30.0,-5.0,3.828
-21.0,-7.0,3.829
0.0,-12.0,3.83
23.0,-11.0,3.831
38.0,-7.0,3.832
41.0,-4.0,3.833
34.0,-5.0,3.834
28.0,-8.0,3.835
26.0,-6.0,3.836
24.0,0.0,3.837
-5.0,7.0,3.838
0.0,3.0,3.839
0.0,0.0,3.84
-8.0,0.0,3.841
-15.0,3.0,3.842
-5.0,7.0,3.843
0.0,8.0,3.844
-17.0,0.0,3.845
-27.0,-5.0,3.846
-15.0,-8.0,3.847
-1.0,-9.0,3.848
13.0,-4.0,3.849
27.0,0.0,3.85
24.0,0.0,3.851
19.0,1.0,3.852
5.0,-1.0,3.853
-5.0,-4.0,3.854
0.0,-2.0,3.855
3.0,0.0,3.856
3.0,0.0,3.857
-3.0,8.0,3.858
0.0,4.0,3.859
0.0,0.0,3.86
-5.0,1.0,3.861
-9.0,4.0,3.862
-3.0,8.0,3.863
0.0,10.0,3.864
-10.0,1.0,3.865
-16.0,-6.0,3.866
-9.0,-10.0,3.867
-1.0,-11.0,3.868
8.0,-5.0,3.869
16.0,0.0,3.87
14.0,1.0,3.871
11.0,2.0,3.872
3.0,-2.0,3.873
-3.0,-5.0,3.874
0.0,-3.0,3.875
2.0,-1.0,3.876
2.0,-1.0,3.877
1.0,0.0,3.878
-3.0,5.0,3.879
-5.0,5.0,3.88
-13.0,-2.0,3.881
-18.0,-7.0,3.882
-7.0,-6.0,3.883
12.0,-2.0,3.884
21.0,2.0,3.885
16.0,7.0,3.886
11.0,9.0,3.887
13.0,5.0,3.888
13.0,0.0,3.889
7.0,-1.0,3.89
4.0,2.0,3.891
8.0,3.0,3.892
7.0,-1.0,3.893
-1.0,-4.0,3.894
-5.0,-4.0,3.895
-4.0,-1.0,3.896
-1.0,1.0,3.897
-5.0,16.0,3.898
-7.0,10.0,3.899
-7.0,3.0,3.9
-13.0,1.0,3.901
-21.0,0.0,3.902
-20.0,0.0,3.903
-8.0,1.0,3.904
5.0,1.0,3.905
15.0,1.0,3.906
25.0,0.0,3.907
39.0,-1.0,3.908
48.0,-4.0,3.909
36.0,-6.0,3.91
10.0,-3.0,3.911
-13.0,-1.0,3.912
-22.0,-3.0,3.913
-22.0,-4.0,3.914
-21.0,-1.0,3.915
-25.0,3.0,3.916
-24.0,7.0,3.917
-18.0,15.0,3.918
-9.0,9.0,3.919
-1.0,3.0,3.92
1.0,1.0,3.921
7.0,0.0,3.922
19.0,0.0,3.923
28.0,1.0,3.924
30.0,1.0,3.925
32.0,1.0,3.926
29.0,0.0,3.927
24.0,-1.0,3.928
17.0,-4.0,3.929
9.0,-6.0,3.93
2.0,-3.0,3.931
-6.0,-1.0,3.932
-16.0,-3.0,3.933
-22.0,-4.0,3.934
-14.0,-1.0,3.935
-4.0,3.0,3.936
9.0,7.0,3.937
20.0,9.0,3.938
16.0,5.0,3.939
-2.0,1.0,3.94
-23.0,-2.0,3.941
-32.0,-3.0,3.942
-23.0,-6.0,3.943
-8.0,-9.0,3.944
-7.0,-7.0,3.945
-17.0,-5.0,3.946
-21.0,-2.0,3.947
-2.0,0.0,3.948
23.0,1.0,3.949
38.0,-1.0,3.95
48.0,-5.0,3.951
55.0,-3.0,3.952
52.0,4.0,3.953
31.0,9.0,3.954
6.0,5.0,3.955
-5.0,0.0,3.956
-3.0,1.0,3.957
-3.0,3.0,3.958
-11.0,-2.0,3.959
-19.0,-8.0,3.96
-21.0,-12.0,3.961
-15.0,-8.0,3.962
-6.0,-1.0,3.963
5.0,5.0,3.964
16.0,11.0,3.965
24.0,13.0,3.966
28.0,9.0,3.967
23.0,1.0,3.968
11.0,1.0,3.969
0.0,2.0,3.97
-4.0,0.0,3.971
-9.0,-5.0,3.972
-18.0,-5.0,3.973
-24.0,-1.0,3.974
-18.0,0.0,3.975
-7.0,-1.0,3.976
1.0,1.0,3.977
4.0,0.0,3.978
3.0,-2.0,3.979
-2.0,-3.0,3.98
-6.0,-4.0,3.981
-4.0,-4.0,3.982
2.0,-9.0,3.983
3.0,-10.0,3.984
-1.0,-4.0,3.985
-2.0,1.0,3.986
3.0,-3.0,3.987
8.0,-12.0,3.988
15.0,-11.0,3.989
31.0,-4.0,3.99
53.0,1.0,3.991
56.0,3.0,3.992
33.0,7.0,3.993
0.0,11.0,3.994
-22.0,9.0,3.995
-34.0,3.0,3.996
-41.0,2.0,3.997
-43.0,3.0,3.998
-32.0,2.0,3.999
-21.0,0.0,4.0
-9.0,-4.0,4.001
1.0,-3.0,4.002
7.0,-3.0,4.003
11.0,-4.0,4.004
3.0,-4.0,4.005
-1.0,-2.0,4.006
7.0,-1.0,4.007
12.0,-3.0,4.008
7.0,-7.0,4.009
3.0,-7.0,4.01
3.0,-3.0,4.011
1.0,3.0,4.012
-2.0,4.0,4.013
-3.0,0.0,4.014
3.0,-2.0,4.015
7.0,-1.0,4.016
0.0,1.0,4.017
-8.0,-3.0,4.018
-5.0,-7.0,4.019
8.0,-3.0,4.02
14.0,-2.0,4.021
6.0,-8.0,4.022
-2.0,-17.0,4.023
2.0,-20.0,4.024
13.0,-13.0,4.025
18.0,-6.0,4.026
22.0,2.0,4.027
23.0,15.0,4.028
13.0,23.0,4.029
-5.0,16.0,4.03
-16.0,4.0,4.031
-16.0,0.0,4.032
-8.0,5.0,4.033
0.0,9.0,4.034
7.0,10.0,4.035
13.0,14.0,4.036
15.0,18.0,4.037
14.0,9.0,4.038
12.0,-2.0,4.039
7.0,-6.0,4.04
-7.0,-3.0,4.041
-20.0,0.0,4.042
-26.0,-2.0,4.043
-29.0,-4.0,4.044
-19.0,-3.0,4.045
-4.0,-4.0,4.046
28.0,-7.0,4.047
53.0,-9.0,4.048
53.0,-9.0,4.049
48.0,-8.0,4.05
27.0,-3.0,4.051
8.0,3.0,4.052
-4.0,5.0,4.053
-13.0,2.0,4.054
-9.0,0.0,4.055
-7.0,2.0,4.056
-15.0,8.0,4.057
-22.0,5.0,4.058
-18.0,-2.0,4.059
-7.0,-7.0,4.06
7.0,-10.0,4.061
20.0,-7.0,4.062
28.0,0.0,4.063
29.0,4.0,4.064
25.0,2.0,4.065
21.0,-5.0,4.066
17.0,-6.0,4.067
16.0,0.0,4.068
17.0,8.0,4.069
12.0,4.0,4.07
-8.0,-7.0,4.071
-33.0,-11.0,4.072
-39.0,-5.0,4.073
-18.0,2.0,4.074
5.0,5.0,4.075
10.0,3.0,4.076
4.0,0.0,4.077
4.0,-5.0,4.078
8.0,-6.0,4.079
6.0,-2.0,4.08
-15.0,2.0,4.081
-29.0,4.0,4.082
-19.0,1.0,4.083
-13.0,2.0,4.084
-17.0,7.0,4.085
-19.0,9.0,4.086
-10.0,5.0,4.087
-3.0,1.0,4.088
-3.0,-1.0,4.089
-2.0,-3.0,4.09
-2.0,-7.0,4.091
-1.0,-7.0,4.092
0.0,-1.0,4.093
1.0,4.0,4.094
-4.0,4.0,4.095
-10.0,1.0,4.096
-16.0,0.0,4.097
-21.0,-2.0,4.098
-20.0,-5.0,4.099
-16.0,-7.0,4.1
-7.0,-11.0,4.101
8.0,-9.0,4.102
25.0,-5.0,4.103
38.0,-3.0,4.104
39.0,-2.0,4.105
28.0,-1.0,4.106
16.0,-1.0,4.107
8.0,-3.0,4.108
6.0,-5.0,4.109
6.0,-4.0,4.11
-10.0,-4.0,4.111
-50.0,-3.0,4.112
-100.0,-1.0,4.113
-120.0,-2.0,4.114
-86.0,-3.0,4.115
-19.0,1.0,4.116
43.0,10.0,4.117
90.0,15.0,4.118
128.0,12.0,4.119
156.0,8.0,4.12
155.0,6.0,4.121
126.0,9.0,4.122
92.0,10.0,4.123
65.0,10.0,4.124
34.0,15.0,4.125
-3.0,16.0,4.126
-26.0,7.0,4.127
-26.0,-4.0,4.128
-23.0,-8.0,4.129
-33.0,-9.0,4.13
-44.0,-13.0,4.131
-42.0,-16.0,4.132
-37.0,-12.0,4.133
-37.0,-5.0,4.134
-37.0,-5.0,4.135
-32.0,-8.0,4.136
-26.0,-7.0,4.137
-33.0,-5.0,4.138
-49.0,-5.0,4.139
-69.0,-6.0,4.14
-81.0,-9.0,4.141
-69.0,-12.0,4.142
-29.0,-12.0,4.143
14.0,-13.0,4.144
34.0,-13.0,4.145
32.0,-10.0,4.146
32.0,2.0,4.147
42.0,11.0,4.148
47.0,11.0,4.149
38.0,9.0,4.15
23.0,1.0,4.151
9.0,-5.0,4.152
1.0,-5.0,4.153
0.0,-4.0,4.154
4.0,1.0,4.155
-2.0,7.0,4.156
-17.0,7.0,4.157
-21.0,4.0,4.158
3.0,-2.0,4.159
33.0,3.0,4.16
40.0,5.0,4.161
31.0,2.0,4.162
40.0,-1.0,4.163
66.0,10.0,4.164
84.0,33.0,4.165
78.0,46.0,4.166
64.0,33.0,4.167
48.0,11.0,4.168
21.0,2.0,4.169
-19.0,8.0,4.17
-52.0,11.0,4.171
-56.0,1.0,4.172
-39.0,-8.0,4.173
-20.0,-11.0,4.174
-5.0,-7.0,4.175
7.0,-6.0,4.176
17.0,-8.0,4.177
21.0,-13.0,4.178
22.0,-16.0,4.179
8.0,-15.0,4.18
-16.0,-13.0,4.181
-33.0,-8.0,4.182
-27.0,-1.0,4.183
-10.0,1.0,4.184
-6.0,-1.0,4.185
-19.0,-6.0,4.186
-29.0,-8.0,4.187
-33.0,-12.0,4.188
-37.0,-16.0,4.189
-40.0,-15.0,4.19
-33.0,-7.0,4.191
-21.0,3.0,4.192
-15.0,13.0,4.193
-15.0,13.0,4.194
-12.0,2.0,4.195
-1.0,-9.0,4.196
8.0,-11.0,4.197
10.0,-4.0,4.198
9.0,4.0,4.199
7.0,3.0,4.2
7.0,-6.0,4.201
11.0,-8.0,4.202
25.0,-5.0,4.203
30.0,-1.0,4.204
4.0,-1.0,4.205
-39.0,2.0,4.206
-65.0,5.0,4.207
-54.0,2.0,4.208
-34.0,-3.0,4.209
-36.0,-3.0,4.21
-49.0,2.0,4.211
-47.0,0.0,4.212
-21.0,-7.0,4.213
13.0,-16.0,4.214
40.0,-15.0,4.215
54.0,-13.0,4.216
58.0,-13.0,4.217
61.0,-8.0,4.218
82.0,5.0,4.219
119.0,17.0,4.22
130.0,25.0,4.221
85.0,30.0,4.222
17.0,26.0,4.223
-5.0,20.0,4.224
21.0,14.0,4.225
32.0,8.0,4.226
8.0,0.0,4.227
-4.0,-8.0,4.228
28.0,-13.0,4.229
69.0,-15.0,4.23
73.0,-6.0,4.231
46.0,1.0,4.232
22.0,4.0,4.233
2.0,8.0,4.234
-23.0,12.0,4.235
-50.0,13.0,4.236
-63.0,3.0,4.237
-64.0,-5.0,4.238
-52.0,-8.0,4.239
-37.0,-8.0,4.24
-23.0,-10.0,4.241
-16.0,-10.0,4.242
-9.0,-10.0,4.243
-1.0,-12.0,4.244
2.0,-13.0,4.245
-11.0,-10.0,4.246
-38.0,-3.0,4.247
-65.0,1.0,4.248
-77.0,4.0,4.249
-70.0,9.0,4.25
-39.0,10.0,4.251
4.0,7.0,4.252
42.0,5.0,4.253
59.0,9.0,4.254
54.0,9.0,4.255
37.0,2.0,4.256
19.0,-5.0,4.257
2.0,-7.0,4.258
0.0,-7.0,4.259
9.0,-7.0,4.26
10.0,-10.0,4.261
-8.0,-10.0,4.262
-30.0,-12.0,4.263
-37.0,-17.0,4.264
-26.0,-18.0,4.265
-4.0,-13.0,4.266
21.0,-9.0,4.267
41.0,-6.0,4.268
51.0,-3.0,4.269
48.0,5.0,4.27
10.0,12.0,4.271
-67.0,13.0,4.272
-151.0,6.0,4.273
-170.0,-4.0,4.274
-106.0,-9.0,4.275
-12.0,-6.0,4.276
45.0,-1.0,4.277
72.0,-3.0,4.278
100.0,-8.0,4.279
138.0,0.0,4.28
149.0,25.0,4.281
105.0,48.0,4.282
42.0,50.0,4.283
4.0,38.0,4.284
-1.0,28.0,4.285
11.0,14.0,4.286
23.0,-3.0,4.287
35.0,-14.0,4.288
37.0,-10.0,4.289
29.0,-3.0,4.29
18.0,-6.0,4.291
10.0,-15.0,4.292
-3.0,-18.0,4.293
-29.0,-9.0,4.294
-48.0,3.0,4.295
-48.0,13.0,4.296
-36.0,14.0,4.297
-28.0,-1.0,4.298
-26.0,-20.0,4.299
-27.0,-29.0,4.3
-30.0,-25.0,4.301
-24.0,-12.0,4.302
-6.0,0.0,4.303
15.0,7.0,4.304
21.0,7.0,4.305
18.0,-3.0,4.306
14.0,-12.0,4.307
2.0,-11.0,4.308
-26.0,-9.0,4.309
-54.0,-19.0,4.31
-41.0,-31.0,4.311
12.0,-26.0,4.312
61.0,-8.0,4.313
70.0,2.0,4.314
54.0,1.0,4.315
37.0,2.0,4.316
23.0,12.0,4.317
2.0,18.0,4.318
-23.0,18.0,4.319
-39.0,15.0,4.32
-42.0,8.0,4.321
-37.0,0.0,4.322
-26.0,-5.0,4.323
-17.0,-11.0,4.324
-17.0,-10.0,4.325
-23.0,-10.0,4.326
-27.0,-14.0,4.327
-31.0,-15.0,4.328
-39.0,-9.0,4.329
-40.0,-4.0,4.33
-20.0,-2.0,4.331
-7.0,-2.0,4.332
-26.0,-7.0,4.333
-48.0,-7.0,4.334
-11.0,10.0,4.335
82.0,22.0,4.336
155.0,16.0,4.337
162.0,9.0,4.338
126.0,4.0,4.339
77.0,19.0,4.34
26.0,35.0,4.341
-3.0,38.0,4.342
18.0,30.0,4.343
59.0,20.0,4.344
37.0,12.0,4.345
-58.0,4.0,4.346
-139.0,-4.0,4.347
-142.0,-13.0,4.348
-102.0,-24.0,4.349
-60.0,-31.0,4.35
-6.0,-28.0,4.351
59.0,-22.0,4.352
93.0,-15.0,4.353
81.0,-4.0,4.354
73.0,11.0,4.355
96.0,15.0,4.356
108.0,4.0,4.357
69.0,-10.0,4.358
12.0,-10.0,4.359
-16.0,-5.0,4.36
-14.0,-9.0,4.361
-13.0,-14.0,4.362
-24.0,-7.0,4.363
-37.0,13.0,4.364
-50.0,26.0,4.365
-60.0,22.0,4.366
-53.0,7.0,4.367
-27.0,-8.0,4.368
-3.0,-18.0,4.369
6.0,-21.0,4.37
15.0,-18.0,4.371
32.0,-11.0,4.372
45.0,2.0,4.373
40.0,20.0,4.374
22.0,33.0,4.375
1.0,29.0,4.376
-21.0,16.0,4.377
-53.0,2.0,4.378
-77.0,0.0,4.379
-82.0,3.0,4.38
-74.0,0.0,4.381
-72.0,-8.0,4.382
-66.0,-22.0,4.383
-30.0,-35.0,4.384
29.0,-37.0,4.385
74.0,-30.0,4.386
80.0,-17.0,4.387
65.0,-2.0,4.388
51.0,16.0,4.389
35.0,32.0,4.39
-2.0,33.0,4.391
-49.0,18.0,4.392
-75.0,0.0,4.393
-63.0,-11.0,4.394
-22.0,-17.0,4.395
33.0,-21.0,4.396
84.0,-16.0,4.397
-23.0,-3.0,4.398
-52.0,9.0,4.399
-69.0,7.0,4.4
-51.0,-9.0,4.401
-23.0,-18.0,4.402
37.0,-17.0,4.403
85.0,-15.0,4.404
99.0,-11.0,4.405
103.0,0.0,4.406
74.0,18.0,4.407
43.0,24.0,4.408
6.0,15.0,4.409
-23.0,11.0,4.41
-29.0,26.0,4.411
-30.0,51.0,4.412
-11.0,61.0,4.413
3.0,46.0,4.414
4.0,17.0,4.415
2.0,-6.0,4.416
-14.0,-15.0,4.417
-23.0,-14.0,4.418
-52.0,-12.0,4.419
-69.0,-12.0,4.42
-51.0,-19.0,4.421
-23.0,-24.0,4.422
37.0,-27.0,4.423
85.0,-29.0,4.424
99.0,-26.0,4.425
103.0,-15.0,4.426
74.0,-1.0,4.427
43.0,3.0,4.428
6.0,-2.0,4.429
-23.0,-8.0,4.43
-29.0,-11.0,4.431
-30.0,-14.0,4.432
-11.0,-19.0,4.433
3.0,-19.0,4.434
4.0,-10.0,4.435
2.0,9.0,4.436
-14.0,29.0,4.437
-35.0,35.0,4.438
-47.0,30.0,4.439
-29.0,15.0,4.44
-15.0,-3.0,4.441
-38.0,-9.0,4.442
-65.0,-9.0,4.443
-55.0,-17.0,4.444
-20.0,-29.0,4.445
9.0,-33.0,4.446
28.0,-19.0,4.447
47.0,-1.0,4.448
56.0,8.0,4.449
50.0,8.0,4.45
42.0,6.0,4.451
34.0,8.0,4.452
13.0,19.0,4.453
-15.0,30.0,4.454
-20.0,32.0,4.455
10.0,22.0,4.456
47.0,5.0,4.457
75.0,-4.0,4.458
85.0,-2.0,4.459
70.0,6.0,4.46
26.0,7.0,4.461
-6.0,1.0,4.462
20.0,-11.0,4.463
66.0,-27.0,4.464
57.0,-35.0,4.465
-12.0,-33.0,4.466
-74.0,-26.0,4.467
-91.0,-17.0,4.468
-82.0,-8.0,4.469
-61.0,6.0,4.47
-20.0,17.0,4.471
21.0,23.0,4.472
31.0,26.0,4.473
23.0,28.0,4.474
33.0,25.0,4.475
51.0,17.0,4.476
47.0,9.0,4.477
22.0,-3.0,4.478
10.0,-17.0,4.479
9.0,-28.0,4.48
-5.0,-29.0,4.481
-21.0,-25.0,4.482
-18.0,-7.0,4.483
-5.0,9.0,4.484
-17.0,24.0,4.485
-31.0,34.0,4.486
-21.0,26.0,4.487
-3.0,13.0,4.488
-10.0,-8.0,4.489
-24.0,-23.0,4.49
-14.0,-14.0,4.491
6.0,-5.0,4.492
-7.0,3.0,4.493
-39.0,9.0,4.494
-46.0,7.0,4.495
-28.0,5.0,4.496
-17.0,5.0,4.497
-20.0,5.0,4.498
-12.0,10.0,4.499
4.0,14.0,4.5
4.0,5.0,4.501
-11.0,-11.0,4.502
-24.0,-23.0,4.503
-36.0,-22.0,4.504
-60.0,-21.0,4.505
-74.0,-23.0,4.506
-46.0,-25.0,4.507
18.0,-21.0,4.508
82.0,-14.0,4.509
119.0,-5.0,4.51
129.0,11.0,4.511
114.0,25.0,4.512
81.0,19.0,4.513
42.0,1.0,4.514
6.0,-3.0,4.515
-22.0,9.0,4.516
-31.0,15.0,4.517
-18.0,4.0,4.518
7.0,-8.0,4.519
18.0,-10.0,4.52
9.0,-15.0,4.521
4.0,-20.0,4.522
14.0,-12.0,4.523
25.0,6.0,4.524
23.0,12.0,4.525
11.0,1.0,4.526
-17.0,-12.0,4.527
-65.0,-18.0,4.528
-108.0,-21.0,4.529
-99.0,-25.0,4.53
-31.0,-27.0,4.531
41.0,-16.0,4.532
67.0,-2.0,4.533
66.0,15.0,4.534
70.0,32.0,4.535
79.0,41.0,4.536
62.0,38.0,4.537
13.0,28.0,4.538
-42.0,23.0,4.539
-94.0,19.0,4.54
-132.0,6.0,4.541
-124.0,-6.0,4.542
-53.0,-9.0,4.543
25.0,-4.0,4.544
33.0,-2.0,4.545
-13.0,3.0,4.546
-30.0,13.0,4.547
6.0,16.0,4.548
34.0,2.0,4.549
22.0,-15.0,4.55
18.0,-21.0,4.551
50.0,-20.0,4.552
72.0,-23.0,4.553
49.0,-20.0,4.554
18.0,-3.0,4.555
17.0,18.0,4.556
32.0,32.0,4.557
43.0,40.0,4.558
54.0,44.0,4.559
51.0,32.0,4.56
10.0,0.0,4.561
-46.0,-24.0,4.562
-57.0,-25.0,4.563
-15.0,-18.0,4.564
23.0,-19.0,4.565
25.0,-18.0,4.566
20.0,-4.0,4.567
22.0,13.0,4.568
9.0,15.0,4.569
-32.0,4.0,4.57
-65.0,-8.0,4.571
-50.0,-22.0,4.572
15.0,-41.0,4.573
92.0,-49.0,4.574
130.0,-34.0,4.575
104.0,-3.0,4.576
43.0,31.0,4.577
-20.0,61.0,4.578
-43.0,76.0,4.579
-21.0,53.0,4.58
16.0,3.0,4.581
24.0,-25.0,4.582
-15.0,-9.0,4.583
-60.0,19.0,4.584
-60.0,21.0,4.585
-27.0,0.0,4.586
-8.0,-13.0,4.587
-13.0,-17.0,4.588
-15.0,-24.0,4.589
-15.0,-38.0,4.59
-38.0,-46.0,4.591
-84.0,-50.0,4.592
-98.0,-50.0,4.593
-50.0,-42.0,4.594
23.0,-21.0,4.595
53.0,3.0,4.596
25.0,21.0,4.597
-18.0,29.0,4.598
-16.0,31.0,4.599
19.0,30.0,4.6
27.0,29.0,4.601
-2.0,28.0,4.602
-14.0,18.0,4.603
11.0,3.0,4.604
27.0,-4.0,4.605
10.0,-2.0,4.606
0.0,-1.0,4.607
24.0,-9.0,4.608
41.0,-13.0,4.609
24.0,-11.0,4.61
-6.0,-9.0,4.611
-23.0,-12.0,4.612
-40.0,-10.0,4.613
-73.0,-4.0,4.614
-92.0,-6.0,4.615
-68.0,-21.0,4.616
-10.0,-32.0,4.617
65.0,-26.0,4.618
133.0,-10.0,4.619
154.0,2.0,4.62
107.0,8.0,4.621
33.0,17.0,4.622
-1.0,22.0,4.623
7.0,18.0,4.624
-14.0,25.0,4.625
-69.0,49.0,4.626
-77.0,63.0,4.627
-15.0,35.0,4.628
29.0,-17.0,4.629
5.0,-45.0,4.63
-8.0,-30.0,4.631
45.0,-4.0,4.632
95.0,11.0,4.633
69.0,26.0,4.634
24.0,43.0,4.635
41.0,43.0,4.636
83.0,19.0,4.637
64.0,-16.0,4.638
-7.0,-26.0,4.639
-50.0,-13.0,4.64
-38.0,-2.0,4.641
-23.0,0.0,4.642
-34.0,-2.0,4.643
-45.0,-9.0,4.644
-46.0,-17.0,4.645
-55.0,-19.0,4.646
-69.0,-16.0,4.647
-58.0,-19.0,4.648
-12.0,-28.0,4.649
43.0,-24.0,4.65
66.0,0.0,4.651
40.0,23.0,4.652
-10.0,29.0,4.653
-30.0,23.0,4.654
5.0,14.0,4.655
51.0,7.0,4.656
49.0,-1.0,4.657
5.0,-6.0,4.658
-21.0,-6.0,4.659
-7.0,-4.0,4.66
5.0,-8.0,4.661
-10.0,-9.0,4.662
-18.0,-7.0,4.663
-3.0,-8.0,4.664
5.0,-14.0,4.665
-10.0,-15.0,4.666
-22.0,-11.0,4.667
-11.0,-5.0,4.668
5.0,-3.0,4.669
5.0,1.0,4.67
0.0,8.0,4.671
7.0,8.0,4.672
14.0,-2.0,4.673
7.0,-12.0,4.674
-5.0,-9.0,4.675
-16.0,0.0,4.676
-22.0,7.0,4.677
-23.0,0.0,4.678
-7.0,-8.0,4.679
18.0,-16.0,4.68
32.0,-23.0,4.681
29.0,-18.0,4.682
23.0,-6.0,4.683
24.0,6.0,4.684
15.0,9.0,4.685
-20.0,2.0,4.686
-64.0,-3.0,4.687
-74.0,3.0,4.688
-34.0,22.0,4.689
27.0,38.0,4.69
62.0,34.0,4.691
65.0,14.0,4.692
59.0,-2.0,4.693
54.0,0.0,4.694
40.0,9.0,4.695
18.0,11.0,4.696
13.0,8.0,4.697
19.0,10.0,4.698
17.0,21.0,4.699
8.0,25.0,4.7
-21.0,8.0,4.701
-38.0,-12.0,4.702
-16.0,-14.0,4.703
0.0,1.0,4.704
-3.0,15.0,4.705
-5.0,14.0,4.706
-1.0,0.0,4.707
4.0,-13.0,4.708
8.0,-19.0,4.709
11.0,-18.0,4.71
6.0,-17.0,4.711
1.0,-24.0,4.712
-4.0,-26.0,4.713
-7.0,-14.0,4.714
-4.0,7.0,4.715
-2.0,12.0,4.716
-4.0,-1.0,4.717
-5.0,-20.0,4.718
-3.0,-20.0,4.719
-4.0,-9.0,4.72
-8.0,-8.0,4.721
-3.0,-7.0,4.722
19.0,-5.0,4.723
42.0,-7.0,4.724
40.0,-16.0,4.725
12.0,-22.0,4.726
-16.0,-11.0,4.727
-29.0,7.0,4.728
-32.0,10.0,4.729
-32.0,1.0,4.73
-25.0,2.0,4.731
-13.0,22.0,4.732
-11.0,37.0,4.733
-28.0,29.0,4.734
-45.0,9.0,4.735
-34.0,4.0,4.736
0.0,14.0,4.737
28.0,14.0,4.738
24.0,2.0,4.739
0.0,-7.0,4.74
-14.0,-5.0,4.741
-6.0,2.0,4.742
7.0,0.0,4.743
14.0,-1.0,4.744
18.0,2.0,4.745
29.0,1.0,4.746
42.0,-10.0,4.747
42.0,-22.0,4.748
23.0,-21.0,4.749
-2.0,-12.0,4.75
-13.0,-10.0,4.751
-6.0,-10.0,4.752
9.0,-5.0,4.753
21.0,1.0,4.754
19.0,7.0,4.755
17.0,15.0,4.756
20.0,23.0,4.757
25.0,20.0,4.758
24.0,7.0,4.759
14.0,-4.0,4.76
-1.0,-11.0,4.761
-20.0,-19.0,4.762
-47.0,-31.0,4.763
-72.0,-38.0,4.764
-74.0,-34.0,4.765
-45.0,-25.0,4.766
-5.0,-11.0,4.767
24.0,17.0,4.768
42.0,51.0,4.769
54.0,68.0,4.77
51.0,51.0,4.771
34.0,19.0,4.772
19.0,3.0,4.773
14.0,11.0,4.774
17.0,20.0,4.775
22.0,19.0,4.776
32.0,14.0,4.777
36.0,11.0,4.778
22.0,6.0,4.779
-6.0,-6.0,4.78
-24.0,-21.0,4.781
-23.0,-24.0,4.782
-19.0,-20.0,4.783
-22.0,-19.0,4.784
-31.0,-18.0,4.785
-32.0,-15.0,4.786
-23.0,-9.0,4.787
-7.0,-8.0,4.788
20.0,-11.0,4.789
49.0,-13.0,4.79
62.0,-14.0,4.791
50.0,-11.0,4.792
8.0,-11.0,4.793
-54.0,-12.0,4.794
-107.0,-16.0,4.795
-117.0,-15.0,4.796
-74.0,-3.0,4.797
-1.0,5.0,4.798
52.0,5.0,4.799
65.0,6.0,4.8
55.0,18.0,4.801
44.0,33.0,4.802
44.0,27.0,4.803
40.0,3.0,4.804
23.0,-12.0,4.805
3.0,-10.0,4.806
-12.0,-2.0,4.807
-15.0,0.0,4.808
-10.0,-2.0,4.809
-6.0,-4.0,4.81
-3.0,-6.0,4.811
-1.0,-7.0,4.812
4.0,-2.0,4.813
18.0,6.0,4.814
31.0,10.0,4.815
30.0,10.0,4.816
14.0,13.0,4.817
-3.0,14.0,4.818
-2.0,12.0,4.819
13.0,5.0,4.82
22.0,-7.0,4.821
23.0,-14.0,4.822
23.0,-18.0,4.823
12.0,-16.0,4.824
-21.0,-7.0,4.825
-64.0,5.0,4.826
-86.0,10.0,4.827
-68.0,4.0,4.828
-28.0,-7.0,4.829
4.0,-13.0,4.83
15.0,-7.0,4.831
9.0,2.0,4.832
1.0,10.0,4.833
0.0,7.0,4.834
4.0,-2.0,4.835
12.0,-9.0,4.836
26.0,-7.0,4.837
42.0,-1.0,4.838
51.0,7.0,4.839
50.0,13.0,4.84
38.0,14.0,4.841
20.0,12.0,4.842
5.0,4.0,4.843
-1.0,-8.0,4.844
0.0,-17.0,4.845
-4.0,-15.0,4.846
-20.0,-6.0,4.847
-40.0,-1.0,4.848
-48.0,-2.0,4.849
-42.0,-2.0,4.85
-22.0,5.0,4.851
9.0,13.0,4.852
44.0,12.0,4.853
65.0,4.0,4.854
61.0,-2.0,4.855
46.0,-4.0,4.856
36.0,-1.0,4.857
17.0,3.0,4.858
-21.0,11.0,4.859
-61.0,15.0,4.86
-65.0,6.0,4.861
-25.0,-8.0,4.862
17.0,-17.0,4.863
20.0,-16.0,4.864
-5.0,-7.0,4.865
-22.0,3.0,4.866
-21.0,7.0,4.867
-20.0,0.0,4.868
-16.0,-7.0,4.869
2.0,-7.0,4.87
26.0,-11.0,4.871
28.0,-24.0,4.872
12.0,-34.0,4.873
3.0,-24.0,4.874
11.0,2.0,4.875
15.0,28.0,4.876
11.0,38.0,4.877
9.0,29.0,4.878
17.0,9.0,4.879
24.0,-7.0,4.88
25.0,-12.0,4.881
27.0,-6.0,4.882
32.0,-3.0,4.883
22.0,-6.0,4.884
-3.0,-7.0,4.885
-19.0,-7.0,4.886
-2.0,-9.0,4.887
27.0,-9.0,4.888
43.0,-3.0,4.889
39.0,4.0,4.89
18.0,2.0,4.891
-20.0,-3.0,4.892
-58.0,0.0,4.893
-66.0,9.0,4.894
-38.0,13.0,4.895
-7.0,12.0,4.896
-6.0,12.0,4.897
-38.0,8.0,4.898
-74.0,-4.0,4.899
-86.0,-9.0,4.9
-60.0,-7.0,4.901
-7.0,-3.0,4.902
44.0,0.0,4.903
65.0,7.0,4.904
54.0,20.0,4.905
33.0,19.0,4.906
11.0,-5.0,4.907
-6.0,-28.0,4.908
-12.0,-28.0,4.909
2.0,-11.0,4.91
24.0,1.0,4.911
39.0,4.0,4.912
46.0,9.0,4.913
52.0,13.0,4.914
50.0,9.0,4.915
27.0,2.0,4.916
-1.0,4.0,4.917
-20.0,7.0,4.918
-16.0,2.0,4.919
-4.0,-9.0,4.92
-3.0,-15.0,4.921
-11.0,-8.0,4.922
-12.0,1.0,4.923
-2.0,2.0,4.924
7.0,-2.0,4.925
5.0,-2.0,4.926
0.0,-3.0,4.927
2.0,-5.0,4.928
5.0,-9.0,4.929
1.0,-10.0,4.93
-8.0,-13.0,4.931
-9.0,-15.0,4.932
-2.0,-11.0,4.933
1.0,7.0,4.934
2.0,29.0,4.935
3.0,35.0,4.936
6.0,27.0,4.937
5.0,10.0,4.938
9.0,-1.0,4.939
21.0,-6.0,4.94
30.0,-9.0,4.941
25.0,-4.0,4.942
10.0,5.0,4.943
-9.0,3.0,4.944
-25.0,-7.0,4.945
-38.0,-10.0,4.946
-41.0,-4.0,4.947
-28.0,4.0,4.948
-9.0,9.0,4.949
4.0,10.0,4.95
14.0,5.0,4.951
23.0,-8.0,4.952
22.0,-13.0,4.953
12.0,-4.0,4.954
6.0,12.0,4.955
16.0,14.0,4.956
30.0,4.0,4.957
34.0,-7.0,4.958
29.0,-11.0,4.959
22.0,-15.0,4.96
14.0,-22.0,4.961
-6.0,-24.0,4.962
-28.0,-19.0,4.963
-48.0,-13.0,4.964
-66.0,-8.0,4.965
-69.0,-1.0,4.966
-36.0,4.0,4.967
19.0,6.0,4.968
37.0,3.0,4.969
-9.0,-3.0,4.97
-71.0,-14.0,4.971
-79.0,-27.0,4.972
-22.0,-31.0,4.973
48.0,-17.0,4.974
94.0,16.0,4.975
110.0,53.0,4.976
107.0,78.0,4.977
83.0,73.0,4.978
53.0,47.0,4.979
27.0,18.0,4.98
11.0,-2.0,4.981
-1.0,-8.0,4.982
-1.0,-8.0,4.983
-2.0,-2.0,4.984
-3.0,4.0,4.985
-7.0,0.0,4.986
-17.0,-15.0,4.987
-23.0,-24.0,4.988
-12.0,-17.0,4.989
-5.0,-9.0,4.99
-12.0,-13.0,4.991
-17.0,-20.0,4.992
-11.0,-20.0,4.993
-8.0,-13.0,4.994
-13.0,-13.0,4.995
-15.0,-15.0,4.996
-7.0,-10.0,4.997
3.0,-4.0,4.998
6.0,3.0,4.999
-2.0,6.0,5.0
-8.0,5.0,5.001
-7.0,5.0,5.002
-4.0,4.0,5.003
-7.0,10.0,5.004
-17.0,18.0,5.005
-20.0,15.0,5.006
-13.0,-4.0,5.007
-6.0,-18.0,5.008
-3.0,-11.0,5.009
-5.0,3.0,5.01
1.0,8.0,5.011
13.0,1.0,5.012
18.0,-7.0,5.013
14.0,-11.0,5.014
7.0,-8.0,5.015
6.0,-3.0,5.016
15.0,4.0,5.017
23.0,7.0,5.018
26.0,6.0,5.019
23.0,6.0,5.02
19.0,3.0,5.021
18.0,-1.0,5.022
17.0,-6.0,5.023
9.0,-9.0,5.024
0.0,-7.0,5.025
-9.0,-11.0,5.026
-16.0,-15.0,5.027
-29.0,-13.0,5.028
-43.0,-5.0,5.029
-49.0,4.0,5.03
-36.0,8.0,5.031
-13.0,5.0,5.032
6.0,0.0,5.033
16.0,-3.0,5.034
22.0,4.0,5.035
35.0,18.0,5.036
51.0,37.0,5.037
51.0,46.0,5.038
29.0,35.0,5.039
-2.0,7.0,5.04
-4.0,-15.0,5.041
25.0,-16.0,5.042
50.0,-6.0,5.043
38.0,-5.0,5.044
-5.0,-13.0,5.045
-45.0,-12.0,5.046
-53.0,-1.0,5.047
-35.0,7.0,5.048
-14.0,5.0,5.049
-6.0,0.0,5.05
-15.0,0.0,5.051
-21.0,-2.0,5.052
-3.0,-3.0,5.053
32.0,-4.0,5.054
54.0,-4.0,5.055
48.0,-3.0,5.056
34.0,-3.0,5.057
32.0,-3.0,5.058
33.0,-1.0,5.059
23.0,-4.0,5.06
13.0,-12.0,5.061
13.0,-15.0,5.062
5.0,-9.0,5.063
-21.0,5.0,5.064
-48.0,15.0,5.065
-51.0,15.0,5.066
-29.0,2.0,5.067
-8.0,-12.0,5.068
4.0,-19.0,5.069
4.0,-21.0,5.07
-9.0,-14.0,5.071
-30.0,-2.0,5.072
-37.0,9.0,5.073
-17.0,9.0,5.074
13.0,-1.0,5.075
31.0,-7.0,5.076
40.0,5.0,5.077
47.0,21.0,5.078
45.0,24.0,5.079
29.0,13.0,5.08
15.0,0.0,5.081
16.0,-2.0,5.082
18.0,-2.0,5.083
4.0,-4.0,5.084
-29.0,-6.0,5.085
-63.0,-6.0,5.086
-76.0,-5.0,5.087
-59.0,-9.0,5.088
-19.0,-16.0,5.089
20.0,-22.0,5.09
37.0,-22.0,5.091
24.0,-16.0,5.092
-5.0,-9.0,5.093
-28.0,-3.0,5.094
-31.0,1.0,5.095
-10.0,4.0,5.096
20.0,6.0,5.097
46.0,10.0,5.098
68.0,23.0,5.099
77.0,37.0,5.1
59.0,35.0,5.101
20.0,23.0,5.102
-6.0,6.0,5.103
0.0,-2.0,5.104
6.0,-1.0,5.105
-7.0,2.0,5.106
-21.0,1.0,5.107
-9.0,-5.0,5.108
5.0,-13.0,5.109
-3.0,-17.0,5.11
-18.0,-14.0,5.111
-8.0,-8.0,5.112
7.0,-8.0,5.113
4.0,-15.0,5.114
-8.0,-19.0,5.115
-9.0,-15.0,5.116
-6.0,-5.0,5.117
-23.0,-3.0,5.118
-38.0,-7.0,5.119
-27.0,-12.0,5.12
-1.0,-13.0,5.121
11.0,-5.0,5.122
10.0,7.0,5.123
11.0,22.0,5.124
13.0,32.0,5.125
20.0,33.0,5.126
32.0,19.0,5.127
38.0,-4.0,5.128
20.0,-18.0,5.129
-8.0,-14.0,5.13
-7.0,-5.0,5.131
25.0,-5.0,5.132
46.0,-8.0,5.133
32.0,-9.0,5.134
-1.0,-4.0,5.135
-32.0,3.0,5.136
-50.0,11.0,5.137
-49.0,13.0,5.138
-25.0,11.0,5.139
2.0,5.0,5.14
13.0,1.0,5.141
16.0,14.0,5.142
33.0,27.0,5.143
46.0,21.0,5.144
24.0,0.0,5.145
-18.0,-15.0,5.146
-34.0,-16.0,5.147
-15.0,-11.0,5.148
1.0,-9.0,5.149
-5.0,-7.0,5.15
-12.0,-6.0,5.151
-8.0,-4.0,5.152
0.0,-5.0,5.153
4.0,-1.0,5.154
8.0,5.0,5.155
12.0,7.0,5.156
12.0,4.0,5.157
2.0,-2.0,5.158
-6.0,-7.0,5.159
-12.0,-12.0,5.16
-14.0,-18.0,5.161
-7.0,-17.0,5.162
14.0,-10.0,5.163
33.0,1.0,5.164
32.0,10.0,5.165
22.0,13.0,5.166
27.0,8.0,5.167
42.0,-1.0,5.168
40.0,-6.0,5.169
12.0,-6.0,5.17
-21.0,0.0,5.171
-39.0,5.0,5.172
-41.0,7.0,5.173
-25.0,3.0,5.174
-3.0,-5.0,5.175
8.0,-8.0,5.176
6.0,-6.0,5.177
-2.0,-4.0,5.178
-2.0,-4.0,5.179
-10.0,-4.0,5.18
-31.0,-7.0,5.181
-47.0,-11.0,5.182
-39.0,-13.0,5.183
-17.0,-13.0,5.184
0.0,-8.0,5.185
18.0,-5.0,5.186
41.0,-8.0,5.187
62.0,-9.0,5.188
61.0,0.0,5.189
40.0,16.0,5.19
28.0,21.0,5.191
32.0,7.0,5.192
32.0,-8.0,5.193
15.0,-8.0,5.194
-9.0,5.0,5.195
-14.0,17.0,5.196
-2.0,19.0,5.197
-4.0,12.0,5.198
-26.0,10.0,5.199
-47.0,8.0,5.2
-40.0,8.0,5.201
-13.0,19.0,5.202
14.0,31.0,5.203
29.0,28.0,5.204
28.0,7.0,5.205
7.0,-11.0,5.206
-17.0,-12.0,5.207
-11.0,-2.0,5.208
22.0,3.0,5.209
39.0,-1.0,5.21
20.0,-4.0,5.211
-7.0,-8.0,5.212
-8.0,-15.0,5.213
2.0,-22.0,5.214
1.0,-21.0,5.215
-1.0,-15.0,5.216
14.0,-12.0,5.217
31.0,-14.0,5.218
24.0,-17.0,5.219
-14.0,-17.0,5.22
-62.0,-19.0,5.221
-95.0,-16.0,5.222
-98.0,-4.0,5.223
-62.0,8.0,5.224
-9.0,12.0,5.225
27.0,6.0,5.226
31.0,1.0,5.227
31.0,3.0,5.228
45.0,6.0,5.229
60.0,2.0,5.23
55.0,-5.0,5.231
33.0,-7.0,5.232
18.0,-4.0,5.233
13.0,0.0,5.234
7.0,2.0,5.235
-2.0,6.0,5.236
-5.0,9.0,5.237
-9.0,7.0,5.238
-15.0,4.0,5.239
-21.0,0.0,5.24
-17.0,-4.0,5.241
-1.0,-2.0,5.242
15.0,2.0,5.243
17.0,5.0,5.244
8.0,5.0,5.245
0.0,1.0,5.246
3.0,-1.0,5.247
11.0,-1.0,5.248
17.0,0.0,5.249
15.0,-2.0,5.25
9.0,-7.0,5.251
-2.0,-10.0,5.252
-9.0,-9.0,5.253
-10.0,-3.0,5.254
-3.0,4.0,5.255
5.0,6.0,5.256
6.0,4.0,5.257
-6.0,-4.0,5.258
-20.0,-10.0,5.259
-25.0,-14.0,5.26
-20.0,-18.0,5.261
3.0,-13.0,5.262
37.0,0.0,5.263
66.0,19.0,5.264
67.0,32.0,5.265
54.0,30.0,5.266
57.0,12.0,5.267
70.0,-6.0,5.268
52.0,-19.0,5.269
-12.0,-26.0,5.27
-81.0,-24.0,5.271
-116.0,-13.0,5.272
-112.0,7.0,5.273
-74.0,25.0,5.274
-6.0,29.0,5.275
58.0,21.0,5.276
71.0,13.0,5.277
28.0,11.0,5.278
-15.0,12.0,5.279
-20.0,12.0,5.28
-10.0,5.0,5.281
-11.0,0.0,5.282
-15.0,0.0,5.283
-5.0,-2.0,5.284
4.0,-8.0,5.285
1.0,-15.0,5.286
2.0,-18.0,5.287
15.0,-13.0,5.288
21.0,-7.0,5.289
10.0,-6.0,5.29
3.0,-4.0,5.291
21.0,-4.0,5.292
45.0,-4.0,5.293
50.0,-6.0,5.294
36.0,-10.0,5.295
16.0,-12.0,5.296
-2.0,-8.0,5.297
-13.0,-2.0,5.298
-7.0,4.0,5.299
9.0,3.0,5.3
10.0,-7.0,5.301
-14.0,-15.0,5.302
-46.0,-12.0,5.303
-71.0,4.0,5.304
-81.0,21.0,5.305
-71.0,22.0,5.306
-40.0,6.0,5.307
-16.0,-6.0,5.308
-29.0,-5.0,5.309
-61.0,0.0,5.31
-59.0,-1.0,5.311
-11.0,-8.0,5.312
44.0,-9.0,5.313
78.0,-1.0,5.314
102.0,13.0,5.315
126.0,25.0,5.316
133.0,27.0,5.317
87.0,13.0,5.318
55.0,-6.0,5.319
19.0,-16.0,5.32
-30.0,-14.0,5.321
-64.0,-2.0,5.322
-51.0,9.0,5.323
-44.0,13.0,5.324
-55.0,10.0,5.325
-62.0,1.0,5.326
-46.0,-6.0,5.327
-23.0,-10.0,5.328
19.0,-12.0,5.329
49.0,-14.0,5.33
42.0,-12.0,5.331
35.0,-6.0,5.332
26.0,0.0,5.333
15.0,1.0,5.334
1.0,-2.0,5.335
-9.0,2.0,5.336
-10.0,13.0,5.337
48.0,13.0,5.338
30.0,4.0,5.339
10.0,-2.0,5.34
-18.0,0.0,5.341
-37.0,0.0,5.342
-30.0,-9.0,5.343
-26.0,-15.0,5.344
-32.0,-12.0,5.345
-36.0,-6.0,5.346
-27.0,7.0,5.347
-14.0,14.0,5.348
10.0,3.0,5.349
27.0,-5.0,5.35
23.0,-7.0,5.351
19.0,-8.0,5.352
14.0,-2.0,5.353
8.0,2.0,5.354
0.0,-1.0,5.355
-6.0,-4.0,5.356
-7.0,-4.0,5.357
-11.0,-5.0,5.358
-23.0,-8.0,5.359
-30.0,-9.0,5.36
-21.0,-5.0,5.361
-7.0,5.0,5.362
2.0,19.0,5.363
8.0,29.0,5.364
16.0,22.0,5.365
23.0,-1.0,5.366
25.0,-20.0,5.367
17.0,-18.0,5.368
-5.0,-3.0,5.369
-35.0,6.0,5.37
-51.0,3.0,5.371
-36.0,-1.0,5.372
-7.0,-6.0,5.373
3.0,-15.0,5.374
-8.0,-21.0,5.375
-7.0,-14.0,5.376
34.0,-1.0,5.377
100.0,5.0,5.378
145.0,6.0,5.379
131.0,8.0,5.38
72.0,4.0,5.381
11.0,-1.0,5.382
-15.0,-2.0,5.383
-16.0,6.0,5.384
-19.0,12.0,5.385
-33.0,12.0,5.386
-41.0,9.0,5.387
-29.0,8.0,5.388
-12.0,3.0,5.389
-10.0,-6.0,5.39
-20.0,-13.0,5.391
-27.0,-14.0,5.392
-21.0,-12.0,5.393
2.0,-11.0,5.394
45.0,-7.0,5.395
87.0,0.0,5.396
97.0,6.0,5.397
52.0,6.0,5.398
-26.0,8.0,5.399
-98.0,12.0,5.4
-130.0,13.0,5.401
-105.0,10.0,5.402
-33.0,0.0,5.403
29.0,-12.0,5.404
29.0,-18.0,5.405
-8.0,-16.0,5.406
-13.0,-10.0,5.407
23.0,-8.0,5.408
42.0,-7.0,5.409
18.0,-7.0,5.41
-3.0,-2.0,5.411
3.0,2.0,5.412
11.0,3.0,5.413
6.0,1.0,5.414
18.0,5.0,5.415
41.0,17.0,5.416
36.0,31.0,5.417
1.0,29.0,5.418
-2.0,15.0,5.419
39.0,3.0,5.42
60.0,-2.0,5.421
20.0,-7.0,5.422
-21.0,-11.0,5.423
-14.0,-14.0,5.424
2.0,-14.0,5.425
-21.0,-17.0,5.426
-53.0,-25.0,5.427
-49.0,-29.0,5.428
-35.0,-19.0,5.429
-42.0,-11.0,5.43
-45.0,-7.0,5.431
-8.0,-3.0,5.432
43.0,0.0,5.433
61.0,4.0,5.434
51.0,10.0,5.435
36.0,16.0,5.436
23.0,17.0,5.437
2.0,20.0,5.438
-10.0,26.0,5.439
-4.0,23.0,5.44
3.0,11.0,5.441
-4.0,1.0,5.442
-10.0,-1.0,5.443
-4.0,-3.0,5.444
-3.0,-4.0,5.445
-11.0,-3.0,5.446
-2.0,-1.0,5.447
34.0,2.0,5.448
62.0,3.0,5.449
61.0,-1.0,5.45
59.0,-9.0,5.451
75.0,-17.0,5.452
82.0,-22.0,5.453
44.0,-20.0,5.454
-20.0,-14.0,5.455
-66.0,-5.0,5.456
-80.0,6.0,5.457
-84.0,12.0,5.458
-74.0,14.0,5.459
-46.0,12.0,5.46
-8.0,5.0,5.461
12.0,0.0,5.462
4.0,-3.0,5.463
-10.0,-5.0,5.464
-19.0,-12.0,5.465
-22.0,-21.0,5.466
-19.0,-21.0,5.467
0.0,-11.0,5.468
17.0,0.0,5.469
19.0,-1.0,5.47
8.0,-6.0,5.471
-2.0,-3.0,5.472
-8.0,9.0,5.473
-4.0,25.0,5.474
12.0,35.0,5.475
31.0,36.0,5.476
31.0,27.0,5.477
3.0,8.0,5.478
-23.0,-1.0,5.479
-17.0,1.0,5.48
13.0,-3.0,5.481
35.0,-18.0,5.482
31.0,-29.0,5.483
2.0,-23.0,5.484
-43.0,-6.0,5.485
-85.0,1.0,5.486
-89.0,0.0,5.487
-44.0,-3.0,5.488
18.0,-6.0,5.489
49.0,-10.0,5.49
37.0,-11.0,5.491
22.0,-5.0,5.492
36.0,0.0,5.493
71.0,-1.0,5.494
89.0,-4.0,5.495
75.0,0.0,5.496
53.0,5.0,5.497
37.0,0.0,5.498
19.0,-8.0,5.499
-7.0,-6.0,5.5
-28.0,1.0,5.501
-26.0,8.0,5.502
-7.0,5.0,5.503
9.0,-2.0,5.504
17.0,-8.0,5.505
17.0,-10.0,5.506
6.0,-10.0,5.507
-23.0,-12.0,5.508
-53.0,-17.0,5.509
-60.0,-15.0,5.51
-38.0,0.0,5.511
-12.0,22.0,5.512
-3.0,30.0,5.513
-17.0,17.0,5.514
-49.0,-1.0,5.515
-74.0,-9.0,5.516
-70.0,-6.0,5.517
-28.0,0.0,5.518
42.0,8.0,5.519
112.0,17.0,5.52
154.0,22.0,5.521
147.0,24.0,5.522
108.0,20.0,5.523
66.0,9.0,5.524
29.0,0.0,5.525
-21.0,-5.0,5.526
-79.0,-5.0,5.527
-101.0,-1.0,5.528
-68.0,2.0,5.529
-15.0,1.0,5.53
10.0,-5.0,5.531
11.0,-13.0,5.532
17.0,-17.0,5.533
24.0,-14.0,5.534
7.0,-11.0,5.535
-27.0,-9.0,5.536
-47.0,-4.0,5.537
-48.0,3.0,5.538
-43.0,11.0,5.539
-42.0,14.0,5.54
-29.0,3.0,5.541
-7.0,-5.0,5.542
13.0,-1.0,5.543
19.0,1.0,5.544
21.0,-4.0,5.545
25.0,-10.0,5.546
32.0,-16.0,5.547
35.0,-21.0,5.548
35.0,-21.0,5.549
28.0,-20.0,5.55
6.0,-16.0,5.551
-24.0,-12.0,5.552
-49.0,-13.0,5.553
-62.0,-11.0,5.554
-54.0,1.0,5.555
-22.0,11.0,5.556
22.0,15.0,5.557
51.0,16.0,5.558
50.0,12.0,5.559
32.0,13.0,5.56
23.0,8.0,5.561
17.0,-2.0,5.562
-2.0,-8.0,5.563
-18.0,0.0,5.564
-7.0,17.0,5.565
21.0,26.0,5.566
39.0,18.0,5.567
48.0,5.0,5.568
58.0,-8.0,5.569
62.0,-18.0,5.57
42.0,-24.0,5.571
0.0,-17.0,5.572
-47.0,1.0,5.573
-80.0,21.0,5.574
-85.0,32.0,5.575
-60.0,30.0,5.576
-24.0,20.0,5.577
3.0,3.0,5.578
25.0,-4.0,5.579
42.0,1.0,5.58
41.0,6.0,5.581
16.0,5.0,5.582
0.0,-3.0,5.583
18.0,-11.0,5.584
42.0,-13.0,5.585
30.0,-9.0,5.586
-12.0,-7.0,5.587
-50.0,-7.0,5.588
-66.0,-8.0,5.589
-60.0,-9.0,5.59
-24.0,-9.0,5.591
39.0,-13.0,5.592
88.0,-20.0,5.593
86.0,-25.0,5.594
43.0,-25.0,5.595
3.0,-22.0,5.596
-19.0,-11.0,5.597
-35.0,7.0,5.598
-47.0,25.0,5.599
-43.0,24.0,5.6
-23.0,4.0,5.601
-5.0,-6.0,5.602
12.0,2.0,5.603
27.0,12.0,5.604
18.0,9.0,5.605
-28.0,0.0,5.606
-74.0,0.0,5.607
-71.0,8.0,5.608
-19.0,10.0,5.609
30.0,7.0,5.61
44.0,2.0,5.611
41.0,-4.0,5.612
50.0,-8.0,5.613
66.0,-8.0,5.614
66.0,-9.0,5.615
45.0,-9.0,5.616
26.0,-6.0,5.617
18.0,2.0,5.618
14.0,12.0,5.619
-10.0,9.0,5.62
-53.0,-4.0,5.621
-79.0,-9.0,5.622
-61.0,-2.0,5.623
-21.0,6.0,5.624
-2.0,2.0,5.625
-1.0,-10.0,5.626
15.0,-18.0,5.627
56.0,-23.0,5.628
96.0,-25.0,5.629
105.0,-16.0,5.63
76.0,2.0,5.631
22.0,19.0,5.632
-36.0,27.0,5.633
-68.0,28.0,5.634
-61.0,31.0,5.635
-43.0,33.0,5.636
-39.0,29.0,5.637
-42.0,14.0,5.638
-28.0,2.0,5.639
-4.0,-4.0,5.64
13.0,-11.0,5.641
15.0,-13.0,5.642
11.0,-12.0,5.643
3.0,-8.0,5.644
-2.0,-4.0,5.645
5.0,-3.0,5.646
19.0,-3.0,5.647
16.0,-6.0,5.648
-2.0,-12.0,5.649
-9.0,-14.0,5.65
8.0,-13.0,5.651
25.0,-10.0,5.652
28.0,-10.0,5.653
36.0,-14.0,5.654
56.0,-15.0,5.655
56.0,-8.0,5.656
23.0,3.0,5.657
-22.0,12.0,5.658
-36.0,16.0,5.659
-25.0,15.0,5.66
-19.0,7.0,5.661
-18.0,0.0,5.662
-3.0,-1.0,5.663
22.0,7.0,5.664
28.0,12.0,5.665
7.0,6.0,5.666
-17.0,-5.0,5.667
-26.0,-7.0,5.668
-26.0,-4.0,5.669
-27.0,-3.0,5.67
-32.0,-2.0,5.671
-35.0,6.0,5.672
-22.0,13.0,5.673
14.0,6.0,5.674
55.0,-9.0,5.675
59.0,-17.0,5.676
22.0,-17.0,5.677
-27.0,-15.0,5.678
-43.0,-6.0,5.679
-23.0,11.0,5.68
10.0,22.0,5.681
43.0,15.0,5.682
71.0,-5.0,5.683
71.0,-16.0,5.684
23.0,-9.0,5.685
-53.0,5.0,5.686
-104.0,14.0,5.687
-103.0,16.0,5.688
-62.0,11.0,5.689
-16.0,0.0,5.69
12.0,-9.0,5.691
29.0,-8.0,5.692
56.0,-2.0,5.693
84.0,1.0,5.694
91.0,-3.0,5.695
77.0,-2.0,5.696
77.0,3.0,5.697
106.0,0.0,5.698
131.0,-14.0,5.699
100.0,-27.0,5.7
7.0,-29.0,5.701
-99.0,-14.0,5.702
-160.0,2.0,5.703
-154.0,16.0,5.704
-100.0,26.0,5.705
-34.0,31.0,5.706
9.0,22.0,5.707
11.0,4.0,5.708
-17.0,-12.0,5.709
-35.0,-13.0,5.71
-10.0,-4.0,5.711
33.0,-4.0,5.712
29.0,-20.0,5.713
-39.0,-33.0,5.714
-93.0,-20.0,5.715
-60.0,10.0,5.716
20.0,35.0,5.717
66.0,40.0,5.718
58.0,31.0,5.719
49.0,14.0,5.72
66.0,-6.0,5.721
73.0,-14.0,5.722
46.0,-10.0,5.723
12.0,-4.0,5.724
-13.0,-3.0,5.725
-42.0,-3.0,5.726
-72.0,-3.0,5.727
-72.0,-7.0,5.728
-44.0,-11.0,5.729
-11.0,-6.0,5.73
27.0,1.0,5.731
81.0,0.0,5.732
130.0,-12.0,5.733
119.0,-16.0,5.734
43.0,-8.0,5.735
-42.0,1.0,5.736
-81.0,8.0,5.737
-68.0,13.0,5.738
-28.0,19.0,5.739
4.0,19.0,5.74
9.0,1.0,5.741
9.0,-11.0,5.742
-10.0,-7.0,5.743
-26.0,-3.0,5.744
-32.0,-3.0,5.745
-36.0,-5.0,5.746
-30.0,-9.0,5.747
-26.0,-12.0,5.748
-25.0,-16.0,5.749
-16.0,-19.0,5.75
16.0,-17.0,5.751
51.0,-16.0,5.752
97.0,-18.0,5.753
116.0,-21.0,5.754
53.0,-19.0,5.755
-2.0,-15.0,5.756
-32.0,-5.0,5.757
-40.0,7.0,5.758
54.0,15.0,5.759
168.0,7.0,5.76
225.0,-11.0,5.761
188.0,-19.0,5.762
73.0,-13.0,5.763
-76.0,11.0,5.764
-212.0,49.0,5.765
-268.0,74.0,5.766
-220.0,65.0,5.767
-123.0,42.0,5.768
-68.0,35.0,5.769
-66.0,41.0,5.77
-54.0,30.0,5.771
-8.0,0.0,5.772
16.0,-19.0,5.773
-14.0,-17.0,5.774
-42.0,-16.0,5.775
-11.0,-23.0,5.776
49.0,-23.0,5.777
83.0,-15.0,5.778
52.0,-12.0,5.779
7.0,-18.0,5.78
-1.0,-23.0,5.781
26.0,-12.0,5.782
57.0,5.0,5.783
72.0,21.0,5.784
76.0,31.0,5.785
80.0,26.0,5.786
68.0,10.0,5.787
36.0,0.0,5.788
8.0,2.0,5.789
7.0,3.0,5.79
11.0,-11.0,5.791
0.0,-22.0,5.792
-9.0,-16.0,5.793
-2.0,-6.0,5.794
8.0,-8.0,5.795
4.0,-13.0,5.796
-3.0,-7.0,5.797
-2.0,-1.0,5.798
2.0,-5.0,5.799
-1.0,-18.0,5.8
1.0,-26.0,5.801
13.0,-22.0,5.802
18.0,-18.0,5.803
11.0,-15.0,5.804
0.0,-7.0,5.805
-11.0,4.0,5.806
-28.0,10.0,5.807
-45.0,3.0,5.808
-51.0,-7.0,5.809
-43.0,-9.0,5.81
-37.0,-6.0,5.811
-28.0,-2.0,5.812
-5.0,-3.0,5.813
26.0,-11.0,5.814
42.0,-20.0,5.815
42.0,-23.0,5.816
34.0,-18.0,5.817
18.0,-2.0,5.818
-4.0,24.0,5.819
-19.0,48.0,5.82
-18.0,48.0,5.821
-26.0,27.0,5.822
-57.0,9.0,5.823
-74.0,14.0,5.824
-32.0,29.0,5.825
46.0,22.0,5.826
92.0,-4.0,5.827
62.0,-23.0,5.828
-16.0,-16.0,5.829
-93.0,0.0,5.83
-122.0,9.0,5.831
-86.0,12.0,5.832
-8.0,13.0,5.833
67.0,5.0,5.834
116.0,-13.0,5.835
147.0,-27.0,5.836
159.0,-22.0,5.837
133.0,-10.0,5.838
65.0,-3.0,5.839
-6.0,2.0,5.84
-39.0,12.0,5.841
-44.0,22.0,5.842
-41.0,14.0,5.843
-24.0,-6.0,5.844
19.0,-15.0,5.845
64.0,-7.0,5.846
63.0,4.0,5.847
24.0,12.0,5.848
-15.0,14.0,5.849
-49.0,16.0,5.85
-99.0,14.0,5.851
-149.0,8.0,5.852
-142.0,-2.0,5.853
-63.0,-17.0,5.854
22.0,-31.0,5.855
56.0,-31.0,5.856
45.0,-18.0,5.857
11.0,-4.0,5.858
-36.0,-1.0,5.859
-82.0,-4.0,5.86
-79.0,-4.0,5.861
-16.0,1.0,5.862
48.0,0.0,5.863
60.0,-9.0,5.864
42.0,-10.0,5.865
45.0,1.0,5.866
58.0,20.0,5.867
48.0,29.0,5.868
38.0,28.0,5.869
60.0,13.0,5.87
94.0,-8.0,5.871
99.0,-26.0,5.872
92.0,-29.0,5.873
103.0,-21.0,5.874
98.0,-16.0,5.875
28.0,-19.0,5.876
-74.0,-17.0,5.877
-163.0,-2.0,5.878
-202.0,18.0,5.879
-189.0,22.0,5.88
-108.0,6.0,5.881
21.0,-9.0,5.882
109.0,-11.0,5.883
96.0,-1.0,5.884
42.0,6.0,5.885
43.0,1.0,5.886
101.0,-14.0,5.887
138.0,-30.0,5.888
112.0,-38.0,5.889
40.0,-31.0,5.89
-57.0,-10.0,5.891
-147.0,17.0,5.892
-166.0,35.0,5.893
-88.0,35.0,5.894
7.0,28.0,5.895
9.0,30.0,5.896
-73.0,45.0,5.897
-137.0,56.0,5.898
-104.0,48.0,5.899
-42.0,20.0,5.9
-47.0,-9.0,5.901
-92.0,-24.0,5.902
-73.0,-34.0,5.903
29.0,-47.0,5.904
137.0,-57.0,5.905
190.0,-46.0,5.906
178.0,-16.0,5.907
107.0,14.0,5.908
5.0,37.0,5.909
-43.0,45.0,5.91
5.0,38.0,5.911
64.0,22.0,5.912
37.0,10.0,5.913
-22.0,7.0,5.914
-15.0,0.0,5.915
31.0,-17.0,5.916
22.0,-31.0,5.917
-32.0,-33.0,5.918
-29.0,-25.0,5.919
29.0,-14.0,5.92
47.0,-6.0,5.921
8.0,7.0,5.922
1.0,19.0,5.923
41.0,26.0,5.924
29.0,29.0,5.925
-56.0,21.0,5.926
-103.0,-2.0,5.927
-44.0,-28.0,5.928
44.0,-32.0,5.929
64.0,-22.0,5.93
20.0,-20.0,5.931
-31.0,-31.0,5.932
-49.0,-37.0,5.933
-29.0,-30.0,5.934
-2.0,-18.0,5.935
-16.0,-9.0,5.936
-75.0,4.0,5.937
-115.0,26.0,5.938
-62.0,47.0,5.939
49.0,57.0,5.94
111.0,45.0,5.941
87.0,16.0,5.942
49.0,-9.0,5.943
58.0,-15.0,5.944
85.0,-5.0,5.945
67.0,-1.0,5.946
-5.0,-6.0,5.947
-76.0,-5.0,5.948
-99.0,5.0,5.949
-85.0,5.0,5.95
-73.0,-12.0,5.951
-66.0,-25.0,5.952
-28.0,-18.0,5.953
48.0,-8.0,5.954
105.0,-3.0,5.955
102.0,1.0,5.956
74.0,8.0,5.957
68.0,0.0,5.958
92.0,3.0,5.959
109.0,2.0,5.96
104.0,-15.0,5.961
81.0,-30.0,5.962
6.0,-31.0,5.963
-62.0,-30.0,5.964
-109.0,-23.0,5.965
-134.0,-16.0,5.966
-88.0,-21.0,5.967
-46.0,-21.0,5.968
-15.0,-9.0,5.969
4.0,4.0,5.97
-13.0,20.0,5.971
-21.0,33.0,5.972
2.0,33.0,5.973
28.0,34.0,5.974
61.0,46.0,5.975
74.0,51.0,5.976
24.0,35.0,5.977
-36.0,0.0,5.978
-122.0,3.0,5.979
-159.0,2.0,5.98
-114.0,-16.0,5.981
-46.0,-32.0,5.982
-30.0,-33.0,5.983
-43.0,-32.0,5.984
-2.0,-24.0,5.985
86.0,-17.0,5.986
132.0,-23.0,5.987
99.0,-23.0,5.988
54.0,-9.0,5.989
56.0,4.0,5.99
80.0,21.0,5.991
57.0,35.0,5.992
-23.0,35.0,5.993
-106.0,36.0,5.994
-133.0,48.0,5.995
-108.0,53.0,5.996
-70.0,37.0,5.997
0.0,1.0,5.998
121.0,2.0,5.999
207.0,2.0,6.0
184.0,-9.0,6.001
125.0,-19.0,6.002
-44.0,-20.0,6.003
-170.0,-19.0,6.004
-160.0,-14.0,6.005
-133.0,-10.0,6.006
-51.0,-13.0,6.007
20.0,-13.0,6.008
61.0,-5.0,6.009
82.0,3.0,6.01
40.0,14.0,6.011
20.0,22.0,6.012
69.0,22.0,6.013
92.0,23.0,6.014
32.0,31.0,6.015
-20.0,34.0,6.016
-45.0,24.0,6.017
-58.0,0.0,6.018
-27.0,3.0,6.019
9.0,2.0,6.02
20.0,-12.0,6.021
-12.0,-24.0,6.022
-44.0,-25.0,6.023
-41.0,-24.0,6.024
-38.0,-18.0,6.025
-81.0,-13.0,6.026
-111.0,-17.0,6.027
-26.0,-17.0,6.028
153.0,-7.0,6.029
280.0,4.0,6.03
258.0,17.0,6.031
121.0,27.0,6.032
-30.0,27.0,6.033
-115.0,28.0,6.034
-108.0,37.0,6.035
-55.0,41.0,6.036
-46.0,29.0,6.037
-104.0,15.0,6.038
-137.0,2.0,6.039
-78.0,-11.0,6.04
1.0,-22.0,6.041
5.0,-19.0,6.042
-24.0,-4.0,6.043
16.0,5.0,6.044
117.0,4.0,6.045
185.0,0.0,6.046
193.0,-5.0,6.047
189.0,-13.0,6.048
180.0,-22.0,6.049
136.0,-21.0,6.05
71.0,-10.0,6.051
17.0,-4.0,6.052
-46.0,-1.0,6.053
-152.0,8.0,6.054
-238.0,23.0,6.055
-220.0,22.0,6.056
-129.0,9.0,6.057
-64.0,-2.0,6.058
-61.0,11.0,6.059
-55.0,29.0,6.06
-19.0,21.0,6.061
-41.0,0.0,6.062
-150.0,-10.0,6.063
-228.0,-8.0,6.064
-158.0,-12.0,6.065
0.0,-24.0,6.066
101.0,-27.0,6.067
101.0,-12.0,6.068
77.0,8.0,6.069
95.0,15.0,6.07
136.0,6.0,6.071
142.0,-7.0,6.072
92.0,-13.0,6.073
22.0,-14.0,6.074
-18.0,-10.0,6.075
-17.0,1.0,6.076
6.0,22.0,6.077
35.0,34.0,6.078
56.0,24.0,6.079
36.0,5.0,6.08
-22.0,0.0,6.081
-46.0,10.0,6.082
25.0,12.0,6.083
128.0,-5.0,6.084
144.0,-22.0,6.085
72.0,-34.0,6.086
25.0,-52.0,6.087
41.0,-76.0,6.088
31.0,-73.0,6.089
-61.0,-32.0,6.09
-157.0,17.0,6.091
-148.0,45.0,6.092
-37.0,49.0,6.093
82.0,35.0,6.094
122.0,10.0,6.095
37.0,-18.0,6.096
-135.0,-31.0,6.097
-318.0,-12.0,6.098
-385.0,-11.0,6.099
-288.0,-8.0,6.1
-88.0,-2.0,6.101
123.0,2.0,6.102
270.0,-6.0,6.103
309.0,-9.0,6.104
239.0,-3.0,6.105
101.0,0.0,6.106
-52.0,-6.0,6.107
-160.0,-7.0,6.108
-159.0,11.0,6.109
-47.0,23.0,6.11
67.0,20.0,6.111
95.0,13.0,6.112
97.0,-5.0,6.113
173.0,-21.0,6.114
264.0,-30.0,6.115
229.0,-40.0,6.116
78.0,-51.0,6.117
-73.0,-11.0,6.118
-138.0,-10.0,6.119
-137.0,-8.0,6.12
-85.0,-3.0,6.121
35.0,0.0,6.122
151.0,-6.0,6.123
134.0,-9.0,6.124
-18.0,-4.0,6.125
-138.0,-1.0,6.126
-100.0,-6.0,6.127
46.0,-7.0,6.128
135.0,7.0,6.129
72.0,18.0,6.13
-79.0,15.0,6.131
-173.0,9.0,6.132
-135.0,-6.0,6.133
-23.0,-18.0,6.134
51.0,-26.0,6.135
55.0,-34.0,6.136
28.0,-43.0,6.137
-11.0,-15.0,6.138
-69.0,-13.0,6.139
-137.0,-9.0,6.14
-159.0,0.0,6.141
-121.0,6.0,6.142
-77.0,-5.0,6.143
-78.0,-11.0,6.144
-107.0,-1.0,6.145
-103.0,4.0,6.146
-34.0,-5.0,6.147
73.0,-6.0,6.148
148.0,18.0,6.149
130.0,35.0,6.15
29.0,31.0,6.151
-41.0,21.0,6.152
33.0,-4.0,6.153
226.0,-27.0,6.154
377.0,-39.0,6.155
384.0,-53.0,6.156
285.0,-69.0,6.157
101.0,-74.0,6.158
-171.0,-33.0,6.159
-474.0,22.0,6.16
-620.0,75.0,6.161
-485.0,117.0,6.162
-197.0,121.0,6.163
3.0,80.0,6.164
56.0,25.0,6.165
116.0,0.0,6.166
288.0,9.0,6.167
449.0,15.0,6.168
412.0,2.0,6.169
184.0,-12.0,6.17
-21.0,-8.0,6.171
-43.0,-1.0,6.172
58.0,-8.0,6.173
111.0,-24.0,6.174
59.0,-28.0,6.175
-34.0,-16.0,6.176
-104.0,-1.0,6.177
-147.0,7.0,6.178
-139.0,6.0,6.179
-83.0,-3.0,6.18
-25.0,-22.0,6.181
-3.0,-27.0,6.182
15.0,-14.0,6.183
35.0,1.0,6.184
9.0,3.0,6.185
-55.0,-9.0,6.186
-57.0,-20.0,6.187
13.0,-23.0,6.188
25.0,-25.0,6.189
-78.0,-27.0,6.19
-158.0,-24.0,6.191
-106.0,-18.0,6.192
-10.0,-19.0,6.193
23.0,-32.0,6.194
36.0,-34.0,6.195
96.0,-11.0,6.196
142.0,22.0,6.197
112.0,35.0,6.198
52.0,18.0,6.199
20.0,-11.0,6.2
-10.0,-31.0,6.201
-79.0,-29.0,6.202
-134.0,-13.0,6.203
-116.0,8.0,6.204
-60.0,30.0,6.205
-20.0,50.0,6.206
17.0,66.0,6.207
82.0,69.0,6.208
142.0,52.0,6.209
129.0,26.0,6.21
20.0,17.0,6.211
-112.0,32.0,6.212
-159.0,41.0,6.213
-81.0,22.0,6.214
36.0,-11.0,6.215
106.0,-40.0,6.216
136.0,-48.0,6.217
159.0,-43.0,6.218
118.0,-26.0,6.219
-41.0,-12.0,6.22
-206.0,-9.0,6.221
-201.0,-7.0,6.222
-38.0,-7.0,6.223
88.0,-4.0,6.224
81.0,6.0,6.225
48.0,10.0,6.226
74.0,-11.0,6.227
82.0,-27.0,6.228
-5.0,-28.0,6.229
-117.0,-23.0,6.23
-125.0,-1.0,6.231
-12.0,16.0,6.232
129.0,16.0,6.233
201.0,14.0,6.234
169.0,11.0,6.235
80.0,9.0,6.236
31.0,10.0,6.237
41.0,8.0,6.238
45.0,-7.0,6.239
-18.0,-10.0,6.24
-88.0,-5.0,6.241
-79.0,-6.0,6.242
-20.0,-23.0,6.243
1.0,-31.0,6.244
-42.0,-18.0,6.245
-121.0,2.0,6.246
-186.0,23.0,6.247
-181.0,42.0,6.248
-95.0,40.0,6.249
-21.0,9.0,6.25
-34.0,-27.0,6.251
-52.0,-34.0,6.252
40.0,-22.0,6.253
171.0,-19.0,6.254
183.0,-20.0,6.255
86.0,-1.0,6.256
25.0,27.0,6.257
10.0,23.0,6.258
-67.0,-9.0,6.259
-183.0,-28.0,6.26
-164.0,-25.0,6.261
23.0,-17.0,6.262
178.0,-17.0,6.263
150.0,-15.0,6.264
13.0,0.0,6.265
-104.0,20.0,6.266
-173.0,41.0,6.267
-178.0,59.0,6.268
-64.0,60.0,6.269
129.0,34.0,6.27
227.0,-1.0,6.271
125.0,-16.0,6.272
-56.0,-11.0,6.273
-128.0,-5.0,6.274
-67.0,0.0,6.275
15.0,3.0,6.276
61.0,0.0,6.277
106.0,-15.0,6.278
158.0,-27.0,6.279
167.0,-13.0,6.28
129.0,16.0,6.281
123.0,31.0,6.282
181.0,14.0,6.283
198.0,-16.0,6.284
70.0,-40.0,6.285
-129.0,-48.0,6.286
-211.0,-38.0,6.287
-118.0,-19.0,6.288
7.0,-4.0,6.289
0.0,2.0,6.29
-132.0,4.0,6.291
-245.0,7.0,6.292
-219.0,9.0,6.293
-49.0,7.0,6.294
165.0,7.0,6.295
303.0,16.0,6.296
298.0,35.0,6.297
154.0,43.0,6.298
-66.0,34.0,6.299
-274.0,13.0,6.3
-375.0,-5.0,6.301
-319.0,-9.0,6.302
-172.0,-9.0,6.303
-80.0,-17.0,6.304
-101.0,-24.0,6.305
-111.0,-16.0,6.306
38.0,3.0,6.307
304.0,13.0,6.308
488.0,-7.0,6.309
461.0,-54.0,6.31
253.0,-93.0,6.311
-34.0,-88.0,6.312
-291.0,-41.0,6.313
-389.0,9.0,6.314
-262.0,35.0,6.315
-26.0,40.0,6.316
101.0,41.0,6.317
46.0,47.0,6.318
-40.0,58.0,6.319
-3.0,60.0,6.32
110.0,44.0,6.321
140.0,14.0,6.322
78.0,-12.0,6.323
61.0,-18.0,6.324
136.0,-12.0,6.325
183.0,-14.0,6.326
96.0,-22.0,6.327
-69.0,-18.0,6.328
-187.0,-5.0,6.329
-183.0,-1.0,6.33
-84.0,-9.0,6.331
51.0,-17.0,6.332
159.0,-22.0,6.333
198.0,-39.0,6.334
162.0,-58.0,6.335
72.0,-58.0,6.336
-34.0,-38.0,6.337
-137.0,-15.0,6.338
-202.0,9.0,6.339
-241.0,43.0,6.34
-278.0,73.0,6.341
-292.0,83.0,6.342
-220.0,72.0,6.343
-60.0,48.0,6.344
104.0,15.0,6.345
218.0,-14.0,6.346
340.0,-26.0,6.347
505.0,-19.0,6.348
568.0,-12.0,6.349
342.0,-4.0,6.35
-106.0,17.0,6.351
-450.0,46.0,6.352
-458.0,53.0,6.353
-252.0,33.0,6.354
-97.0,1.0,6.355
-58.0,-29.0,6.356
-19.0,-62.0,6.357
29.0,9.0,6.358
16.0,7.0,6.359
15.0,5.0,6.36
49.0,7.0,6.361
68.0,-3.0,6.362
42.0,-61.0,6.363
9.0,-98.0,6.364
-48.0,-70.0,6.365
-97.0,-33.0,6.366
-123.0,25.0,6.367
-129.0,72.0,6.368
-76.0,72.0,6.369
-11.0,64.0,6.37
87.0,25.0,6.371
143.0,-3.0,6.372
71.0,-3.0,6.373
20.0,-9.0,6.374
34.0,-33.0,6.375
36.0,-51.0,6.376
7.0,-51.0,6.377
55.0,2.0,6.378
28.0,1.0,6.379
25.0,0.0,6.38
98.0,1.0,6.381
139.0,-4.0,6.382
84.0,-33.0,6.383
12.0,-51.0,6.384
-112.0,-37.0,6.385
-218.0,-19.0,6.386
-274.0,10.0,6.387
-287.0,33.0,6.388
-172.0,33.0,6.389
-33.0,29.0,6.39
179.0,10.0,6.391
300.0,-4.0,6.392
145.0,-4.0,6.393
36.0,-7.0,6.394
65.0,-19.0,6.395
71.0,-28.0,6.396
7.0,-28.0,6.397
-50.0,-25.0,6.398
-63.0,-18.0,6.399
-124.0,-22.0,6.4
-266.0,-15.0,6.401
-314.0,12.0,6.402
-153.0,29.0,6.403
58.0,19.0,6.404
139.0,7.0,6.405
138.0,19.0,6.406
171.0,31.0,6.407
188.0,26.0,6.408
110.0,13.0,6.409
25.0,14.0,6.41
48.0,16.0,6.411
117.0,3.0,6.412
106.0,-15.0,6.413
37.0,-22.0,6.414
-2.0,-11.0,6.415
-43.0,1.0,6.416
-145.0,8.0,6.417
-220.0,-41.0,6.418
-90.0,-30.0,6.419
202.0,-20.0,6.42
364.0,-12.0,6.421
201.0,6.0,6.422
-140.0,57.0,6.423
-346.0,95.0,6.424
-275.0,96.0,6.425
-61.0,83.0,6.426
65.0,25.0,6.427
17.0,-19.0,6.428
-101.0,-20.0,6.429
-146.0,-19.0,6.43
-94.0,-10.0,6.431
-33.0,-2.0,6.432
-34.0,0.0,6.433
-48.0,-6.0,6.434
24.0,-36.0,6.435
195.0,-54.0,6.436
333.0,-36.0,6.437
311.0,-36.0,6.438
185.0,-26.0,6.439
92.0,-17.0,6.44
100.0,-10.0,6.441
45.0,5.0,6.442
-199.0,50.0,6.443
-380.0,83.0,6.444
-371.0,84.0,6.445
-313.0,73.0,6.446
-109.0,22.0,6.447
50.0,-16.0,6.448
75.0,-17.0,6.449
95.0,-16.0,6.45
97.0,-9.0,6.451
93.0,-1.0,6.452
65.0,0.0,6.453
73.0,-5.0,6.454
189.0,-31.0,6.455
281.0,-47.0,6.456
300.0,-31.0,6.457
306.0,-57.0,6.458
243.0,-42.0,6.459
114.0,-28.0,6.46
-77.0,-17.0,6.461
-291.0,8.0,6.462
-454.0,76.0,6.463
-479.0,127.0,6.464
-317.0,129.0,6.465
-61.0,112.0,6.466
105.0,33.0,6.467
112.0,-27.0,6.468
50.0,-28.0,6.469
4.0,-27.0,6.47
-27.0,-15.0,6.471
-32.0,-4.0,6.472
33.0,-2.0,6.473
113.0,-10.0,6.474
76.0,-50.0,6.475
-77.0,-74.0,6.476
-184.0,-50.0,6.477
-152.0,-21.0,6.478
-46.0,12.0,6.479
30.0,31.0,6.48
80.0,27.0,6.481
147.0,5.0,6.482
205.0,-21.0,6.483
178.0,-24.0,6.484
60.0,4.0,6.485
-43.0,35.0,6.486
-13.0,48.0,6.487
106.0,44.0,6.488
132.0,35.0,6.489
-15.0,34.0,6.49
-178.0,34.0,6.491
-177.0,24.0,6.492
-60.0,-6.0,6.493
10.0,-36.0,6.494
16.0,-40.0,6.495
69.0,-23.0,6.496
168.0,-16.0,6.497
219.0,-37.0,6.498
175.0,-60.0,6.499
80.0,-49.0,6.5
-22.0,-8.0,6.501
-120.0,31.0,6.502
-153.0,34.0,6.503
-83.0,4.0,6.504
0.0,-26.0,6.505
-22.0,-33.0,6.506
-127.0,-15.0,6.507
-208.0,18.0,6.508
-247.0,60.0,6.509
-266.0,94.0,6.51
-192.0,79.0,6.511
52.0,5.0,6.512
345.0,-72.0,6.513
448.0,-86.0,6.514
286.0,-38.0,6.515
16.0,7.0,6.516
-168.0,21.0,6.517
-220.0,24.0,6.518
-162.0,0.0,6.519
-77.0,-13.0,6.52
-39.0,3.0,6.521
-45.0,24.0,6.522
-22.0,52.0,6.523
53.0,64.0,6.524
132.0,25.0,6.525
179.0,-8.0,6.526
213.0,-28.0,6.527
221.0,-42.0,6.528
162.0,-44.0,6.529
51.0,-42.0,6.53
-42.0,-30.0,6.531
-94.0,-17.0,6.532
-130.0,0.0,6.533
-151.0,14.0,6.534
-116.0,12.0,6.535
-24.0,6.0,6.536
82.0,-12.0,6.537
171.0,20.0,6.538
196.0,0.0,6.539
108.0,-11.0,6.54
-52.0,3.0,6.541
-156.0,20.0,6.542
-144.0,43.0,6.543
-94.0,53.0,6.544
-77.0,21.0,6.545
-43.0,-7.0,6.546
59.0,-23.0,6.547
152.0,-35.0,6.548
138.0,-36.0,6.549
38.0,-35.0,6.55
-83.0,-25.0,6.551
-205.0,-14.0,6.552
-280.0,0.0,6.553
-197.0,12.0,6.554
51.0,10.0,6.555
254.0,5.0,6.556
240.0,-10.0,6.557
72.0,-23.0,6.558
-23.0,-19.0,6.559
34.0,0.0,6.56
124.0,10.0,6.561
123.0,9.0,6.562
24.0,3.0,6.563
-120.0,-3.0,6.564
-250.0,-9.0,6.565
-310.0,-13.0,6.566
-273.0,-15.0,6.567
-161.0,-14.0,6.568
-20.0,-7.0,6.569
97.0,9.0,6.57
123.0,16.0,6.571
69.0,10.0,6.572
57.0,5.0,6.573
169.0,14.0,6.574
285.0,14.0,6.575
247.0,-15.0,6.576
124.0,-48.0,6.577
71.0,-60.0,6.578
106.0,-51.0,6.579
69.0,-48.0,6.58
-95.0,-43.0,6.581
-239.0,1.0,6.582
-212.0,72.0,6.583
-32.0,105.0,6.584
142.0,68.0,6.585
124.0,8.0,6.586
-124.0,-6.0,6.587
-375.0,33.0,6.588
-340.0,71.0,6.589
-35.0,59.0,6.59
232.0,-2.0,6.591
277.0,-70.0,6.592
200.0,-100.0,6.593
114.0,-83.0,6.594
0.0,-28.0,6.595
-96.0,47.0,6.596
-49.0,109.0,6.597
124.0,113.0,6.598
217.0,43.0,6.599
131.0,-49.0,6.6
23.0,-81.0,6.601
16.0,-36.0,6.602
28.0,20.0,6.603
-13.0,31.0,6.604
-22.0,1.0,6.605
39.0,-29.0,6.606
25.0,-45.0,6.607
-176.0,-45.0,6.608
-415.0,-26.0,6.609
-415.0,8.0,6.61
-129.0,32.0,6.611
192.0,24.0,6.612
292.0,-1.0,6.613
169.0,-5.0,6.614
13.0,21.0,6.615
-65.0,53.0,6.616
-118.0,62.0,6.617
-203.0,44.0,6.618
-236.0,30.0,6.619
-123.0,11.0,6.62
50.0,-19.0,6.621
122.0,-49.0,6.622
80.0,-74.0,6.623
54.0,-89.0,6.624
94.0,-71.0,6.625
128.0,-59.0,6.626
132.0,-63.0,6.627
181.0,-61.0,6.628
271.0,-38.0,6.629
247.0,-17.0,6.63
13.0,-4.0,6.631
-289.0,13.0,6.632
-415.0,43.0,6.633
-293.0,65.0,6.634
-78.0,62.0,6.635
37.0,57.0,6.636
19.0,47.0,6.637
-49.0,38.0,6.638
-85.0,40.0,6.639
-85.0,42.0,6.64
-64.0,28.0,6.641
-13.0,6.0,6.642
63.0,0.0,6.643
117.0,8.0,6.644
104.0,6.0,6.645
45.0,-7.0,6.646
10.0,-21.0,6.647
62.0,-35.0,6.648
190.0,-59.0,6.649
285.0,-75.0,6.65
239.0,-58.0,6.651
120.0,-19.0,6.652
115.0,-1.0,6.653
218.0,-10.0,6.654
156.0,-3.0,6.655
-172.0,45.0,6.656
-421.0,102.0,6.657
-269.0,105.0,6.658
121.0,30.0,6.659
283.0,-72.0,6.66
119.0,-111.0,6.661
-66.0,-47.0,6.662
-128.0,65.0,6.663
-189.0,135.0,6.664
-215.0,122.0,6.665
-44.0,52.0,6.666
190.0,-19.0,6.667
150.0,-56.0,6.668
-129.0,-54.0,6.669
-257.0,-37.0,6.67
-138.0,-24.0,6.671
-69.0,-8.0,6.672
-168.0,17.0,6.673
-196.0,40.0,6.674
-43.0,41.0,6.675
115.0,19.0,6.676
194.0,-11.0,6.677
292.0,-44.0,6.678
359.0,-67.0,6.679
195.0,-65.0,6.68
-139.0,-49.0,6.681
-321.0,-31.0,6.682
-240.0,-12.0,6.683
-125.0,10.0,6.684
-126.0,23.0,6.685
-114.0,1.0,6.686
15.0,-37.0,6.687
163.0,-57.0,6.688
201.0,-50.0,6.689
117.0,-35.0,6.69
-42.0,-16.0,6.691
-171.0,26.0,6.692
-151.0,74.0,6.693
7.0,85.0,6.694
126.0,52.0,6.695
105.0,18.0,6.696
47.0,19.0,6.697
59.0,31.0,6.698
101.0,29.0,6.699
141.0,28.0,6.7
171.0,35.0,6.701
173.0,38.0,6.702
89.0,26.0,6.703
12.0,12.0,6.704
-41.0,-1.0,6.705
-70.0,-19.0,6.706
-18.0,-44.0,6.707
14.0,-69.0,6.708
-14.0,-93.0,6.709
-3.0,-108.0,6.71
125.0,-97.0,6.711
169.0,-82.0,6.712
-36.0,-55.0,6.713
-217.0,-21.0,6.714
-321.0,31.0,6.715
-337.0,70.0,6.716
-91.0,70.0,6.717
128.0,64.0,6.718
160.0,39.0,6.719
78.0,5.0,6.72
17.0,-16.0,6.721
-18.0,-1.0,6.722
-89.0,37.0,6.723
-145.0,55.0,6.724
-71.0,37.0,6.725
114.0,11.0,6.726
226.0,-6.0,6.727
119.0,-20.0,6.728
-144.0,-38.0,6.729
-346.0,-41.0,6.73
-302.0,-20.0,6.731
-47.0,8.0,6.732
180.0,29.0,6.733
183.0,41.0,6.734
38.0,49.0,6.735
-37.0,48.0,6.736
-1.0,40.0,6.737
26.0,32.0,6.738
19.0,31.0,6.739
106.0,31.0,6.74
291.0,20.0,6.741
342.0,7.0,6.742
135.0,-1.0,6.743
-101.0,0.0,6.744
-90.0,7.0,6.745
90.0,9.0,6.746
129.0,-2.0,6.747
-69.0,-22.0,6.748
-274.0,-44.0,6.749
-258.0,-66.0,6.75
-69.0,-86.0,6.751
99.0,-97.0,6.752
139.0,-91.0,6.753
83.0,-77.0,6.754
0.0,-65.0,6.755
-44.0,-52.0,6.756
-1.0,-25.0,6.757
108.0,15.0,6.758
150.0,49.0,6.759
63.0,46.0,6.76
-12.0,4.0,6.761
46.0,-30.0,6.762
77.0,-20.0,6.763
-131.0,28.0,6.764
-424.0,72.0,6.765
-415.0,76.0,6.766
-76.0,44.0,6.767
176.0,2.0,6.768
89.0,-20.0,6.769
-91.0,-9.0,6.77
-61.0,24.0,6.771
97.0,56.0,6.772
156.0,64.0,6.773
125.0,44.0,6.774
142.0,10.0,6.775
189.0,-16.0,6.776
180.0,-18.0,6.777
140.0,-1.0,6.778
137.0,20.0,6.779
93.0,34.0,6.78
-90.0,19.0,6.781
-302.0,5.0,6.782
-321.0,-4.0,6.783
-152.0,-10.0,6.784
-45.0,-2.0,6.785
-140.0,3.0,6.786
-266.0,-2.0,6.787
-187.0,-17.0,6.788
72.0,-61.0,6.789
267.0,-86.0,6.79
269.0,-52.0,6.791
185.0,-17.0,6.792
135.0,23.0,6.793
81.0,54.0,6.794
-33.0,58.0,6.795
-125.0,56.0,6.796
-104.0,38.0,6.797
-22.0,6.0,6.798
9.0,-68.0,6.799
11.0,-132.0,6.8
75.0,-159.0,6.801
136.0,-134.0,6.802
52.0,-60.0,6.803
-125.0,21.0,6.804
-176.0,54.0,6.805
-29.0,23.0,6.806
123.0,-11.0,6.807
115.0,-5.0,6.808
35.0,14.0,6.809
27.0,9.0,6.81
65.0,-5.0,6.811
33.0,3.0,6.812
-69.0,35.0,6.813
-150.0,54.0,6.814
-139.0,64.0,6.815
-36.0,81.0,6.816
98.0,90.0,6.817
142.0,61.0,6.818
-31.0,20.0,6.819
-332.0,0.0,6.82
-455.0,-9.0,6.821
-247.0,-22.0,6.822
83.0,-38.0,6.823
229.0,-40.0,6.824
153.0,-24.0,6.825
46.0,-4.0,6.826
30.0,12.0,6.827
78.0,13.0,6.828
145.0,-9.0,6.829
229.0,-40.0,6.83
303.0,-44.0,6.831
285.0,-11.0,6.832
136.0,31.0,6.833
-87.0,60.0,6.834
-250.0,81.0,6.835
-255.0,103.0,6.836
-135.0,110.0,6.837
-4.0,71.0,6.838
30.0,-17.0,6.839
-4.0,-103.0,6.84
11.0,-131.0,6.841
81.0,-91.0,6.842
94.0,-37.0,6.843
12.0,-13.0,6.844
-61.0,-13.0,6.845
-47.0,-14.0,6.846
-4.0,-17.0,6.847
3.0,-26.0,6.848
13.0,-28.0,6.849
72.0,-10.0,6.85
119.0,9.0,6.851
72.0,14.0,6.852
-41.0,12.0,6.853
-109.0,17.0,6.854
-74.0,22.0,6.855
16.0,14.0,6.856
73.0,4.0,6.857
52.0,-1.0,6.858
-11.0,-1.0,6.859
-49.0,0.0,6.86
-44.0,10.0,6.861
-33.0,33.0,6.862
-14.0,41.0,6.863
34.0,15.0,6.864
53.0,-29.0,6.865
-33.0,-48.0,6.866
-149.0,-36.0,6.867
-131.0,-34.0,6.868
2.0,-54.0,6.869
64.0,-49.0,6.87
19.0,25.0,6.871
55.0,114.0,6.872
209.0,125.0,6.873
216.0,52.0,6.874
-86.0,-15.0,6.875
-428.0,-16.0,6.876
-455.0,7.0,6.877
-213.0,-13.0,6.878
-21.0,-66.0,6.879
109.0,-93.0,6.88
55.0,-82.0,6.881
21.0,-68.0,6.882
52.0,-75.0,6.883
53.0,-76.0,6.884
-39.0,-37.0,6.885
-104.0,33.0,6.886
-89.0,92.0,6.887
-33.0,114.0,6.888
140.0,101.0,6.889
273.0,73.0,6.89
279.0,50.0,6.891
257.0,39.0,6.892
147.0,39.0,6.893
49.0,41.0,6.894
-12.0,39.0,6.895
-35.0,28.0,6.896
66.0,5.0,6.897
174.0,-36.0,6.898
258.0,-75.0,6.899
212.0,-83.0,6.9
9.0,-57.0,6.901
-263.0,-16.0,6.902
-401.0,18.0,6.903
-283.0,39.0,6.904
-48.0,41.0,6.905
48.0,23.0,6.906
-32.0,-2.0,6.907
-97.0,-15.0,6.908
-25.0,-16.0,6.909
73.0,-24.0,6.91
62.0,-44.0,6.911
-11.0,-54.0,6.912
-35.0,-39.0,6.913
13.0,-13.0,6.914
62.0,5.0,6.915
66.0,11.0,6.916
42.0,7.0,6.917
12.0,-8.0,6.918
-18.0,-14.0,6.919
-67.0,3.0,6.92
-142.0,35.0,6.921
-185.0,56.0,6.922
-118.0,59.0,6.923
22.0,74.0,6.924
111.0,107.0,6.925
112.0,106.0,6.926
129.0,32.0,6.927
195.0,-86.0,6.928
183.0,-172.0,6.929
30.0,-202.0,6.93
-116.0,-206.0,6.931
-127.0,-202.0,6.932
-117.0,-158.0,6.933
-231.0,-54.0,6.934
-348.0,78.0,6.935
-239.0,172.0,6.936
34.0,185.0,6.937
229.0,118.0,6.938
203.0,28.0,6.939
78.0,-11.0,6.94
13.0,7.0,6.941
-11.0,41.0,6.942
-57.0,43.0,6.943
-87.0,29.0,6.944
-39.0,21.0,6.945
51.0,11.0,6.946
101.0,-14.0,6.947
96.0,-40.0,6.948
75.0,-45.0,6.949
56.0,-29.0,6.95
19.0,4.0,6.951
-28.0,55.0,6.952
-24.0,98.0,6.953
63.0,92.0,6.954
167.0,31.0,6.955
189.0,-27.0,6.956
134.0,-39.0,6.957
64.0,-22.0,6.958
14.0,-8.0,6.959
-36.0,-6.0,6.96
-90.0,-6.0,6.961
-118.0,-5.0,6.962
-61.0,-4.0,6.963
-11.0,10.0,6.964
17.0,42.0,6.965
39.0,64.0,6.966
44.0,48.0,6.967
40.0,9.0,6.968
7.0,-10.0,6.969
-20.0,-6.0,6.97
-29.0,-14.0,6.971
-36.0,-63.0,6.972
-31.0,-129.0,6.973
-20.0,-160.0,6.974
5.0,-132.0,6.975
25.0,-69.0,6.976
25.0,-13.0,6.977
19.0,17.0,6.978
-19.0,31.0,6.979
-93.0,34.0,6.98
-145.0,19.0,6.981
-105.0,-6.0,6.982
19.0,-26.0,6.983
129.0,-30.0,6.984
137.0,-16.0,6.985
63.0,14.0,6.986
21.0,53.0,6.987
100.0,77.0,6.988
245.0,65.0,6.989
270.0,30.0,6.99
50.0,11.0,6.991
-298.0,29.0,6.992
-491.0,53.0,6.993
-385.0,41.0,6.994
-136.0,7.0,6.995
-15.0,-8.0,6.996
-86.0,5.0,6.997
-221.0,16.0,6.998
-203.0,4.0,6.999
-46.0,-19.0,7.0
168.0,-32.0,7.001
345.0,-33.0,7.002
408.0,-25.0,7.003
331.0,3.0,7.004
181.0,56.0,7.005
43.0,98.0,7.006
-59.0,99.0,7.007
-128.0,65.0,7.008
-132.0,29.0,7.009
-74.0,4.0,7.01
-35.0,-18.0,7.011
-41.0,-49.0,7.012
-30.0,-85.0,7.013
10.0,-110.0,7.014
-12.0,-110.0,7.015
-119.0,-77.0,7.016
-167.0,-24.0,7.017
-34.0,23.0,7.018
186.0,38.0,7.019
294.0,15.0,7.02
229.0,-18.0,7.021
91.0,-31.0,7.022
-2.0,-20.0,7.023
0.0,-11.0,7.024
79.0,-13.0,7.025
139.0,-24.0,7.026
90.0,-35.0,7.027
-37.0,-34.0,7.028
-114.0,-16.0,7.029
-87.0,22.0,7.03
-30.0,74.0,7.031
-1.0,111.0,7.032
43.0,110.0,7.033
122.0,68.0,7.034
160.0,22.0,7.035
99.0,14.0,7.036
13.0,45.0,7.037
-22.0,80.0,7.038
-42.0,75.0,7.039
-92.0,17.0,7.04
-235.0,-70.0,7.041
-324.0,-145.0,7.042
-250.0,-183.0,7.043
-169.0,-177.0,7.044
-67.0,-140.0,7.045
36.0,-100.0,7.046
146.0,-77.0,7.047
199.0,-59.0,7.048
78.0,-18.0,7.049
-37.0,38.0,7.05
-133.0,75.0,7.051
-154.0,70.0,7.052
51.0,45.0,7.053
164.0,31.0,7.054
-5.0,45.0,7.055
-145.0,79.0,7.056
-189.0,112.0,7.057
-139.0,111.0,7.058
234.0,57.0,7.059
461.0,-21.0,7.06
324.0,-65.0,7.061
-42.0,-48.0,7.062
-314.0,-5.0,7.063
-332.0,21.0,7.064
-184.0,31.0,7.065
-14.0,35.0,7.066
115.0,27.0,7.067
183.0,3.0,7.068
176.0,-7.0,7.069
118.0,16.0,7.07
68.0,57.0,7.071
50.0,81.0,7.072
27.0,82.0,7.073
-52.0,64.0,7.074
-172.0,25.0,7.075
-245.0,-33.0,7.076
-188.0,-90.0,7.077
6.0,-130.0,7.078
218.0,-133.0,7.079
318.0,-103.0,7.08
302.0,-64.0,7.081
261.0,-38.0,7.082
231.0,-38.0,7.083
135.0,-39.0,7.084
-59.0,-11.0,7.085
-233.0,47.0,7.086
-249.0,98.0,7.087
-128.0,106.0,7.088
-5.0,69.0,7.089
47.0,19.0,7.09
70.0,-12.0,7.091
94.0,-18.0,7.092
83.0,-13.0,7.093
21.0,-15.0,7.094
-51.0,-16.0,7.095
-99.0,-8.0,7.096
-123.0,3.0,7.097
-138.0,4.0,7.098
-131.0,6.0,7.099
-97.0,23.0,7.1
-41.0,36.0,7.101
34.0,26.0,7.102
109.0,-6.0,7.103
138.0,-29.0,7.104
108.0,-30.0,7.105
47.0,-19.0,7.106
-35.0,-5.0,7.107
-153.0,20.0,7.108
-254.0,51.0,7.109
-219.0,67.0,7.11
-42.0,46.0,7.111
101.0,-2.0,7.112
72.0,-38.0,7.113
-37.0,-33.0,7.114
-55.0,1.0,7.115
17.0,30.0,7.116
54.0,40.0,7.117
32.0,38.0,7.118
23.0,30.0,7.119
13.0,3.0,7.12
3.0,-48.0,7.121
-10.0,-97.0,7.122
-34.0,-123.0,7.123
-21.0,-119.0,7.124
103.0,-95.0,7.125
219.0,-72.0,7.126
311.0,-69.0,7.127
310.0,-82.0,7.128
32.0,-78.0,7.129
-195.0,-33.0,7.13
-271.0,37.0,7.131
-266.0,91.0,7.132
-12.0,106.0,7.133
179.0,91.0,7.134
183.0,64.0,7.135
156.0,43.0,7.136
30.0,43.0,7.137
-75.0,60.0,7.138
-114.0,71.0,7.139
-162.0,55.0,7.14
-157.0,21.0,7.141
-49.0,-1.0,7.142
61.0,3.0,7.143
59.0,33.0,7.144
1.0,70.0,7.145
-11.0,95.0,7.146
-19.0,91.0,7.147
-80.0,57.0,7.148
-92.0,8.0,7.149
26.0,-43.0,7.15
148.0,-81.0,7.151
118.0,-87.0,7.152
-2.0,-63.0,7.153
-58.0,-38.0,7.154
-41.0,-39.0,7.155
-26.0,-56.0,7.156
-18.0,-67.0,7.157
11.0,-76.0,7.158
52.0,-90.0,7.159
116.0,-99.0,7.16
215.0,-93.0,7.161
244.0,-75.0,7.162
56.0,-25.0,7.163
-242.0,20.0,7.164
-350.0,56.0,7.165
-167.0,80.0,7.166
65.0,68.0,7.167
114.0,57.0,7.168
40.0,50.0,7.169
19.0,40.0,7.17
72.0,26.0,7.171
102.0,9.0,7.172
64.0,-12.0,7.173
-18.0,-18.0,7.174
-104.0,30.0,7.175
-146.0,65.0,7.176
-113.0,56.0,7.177
-19.0,33.0,7.178
57.0,-22.0,7.179
65.0,-32.0,7.18
46.0,-13.0,7.181
62.0,-6.0,7.182
114.0,-20.0,7.183
142.0,-31.0,7.184
70.0,-28.0,7.185
-104.0,-21.0,7.186
-265.0,-17.0,7.187
-258.0,-7.0,7.188
-74.0,2.0,7.189
118.0,-1.0,7.19
171.0,-17.0,7.191
128.0,-23.0,7.192
100.0,-8.0,7.193
87.0,11.0,7.194
28.0,19.0,7.195
-66.0,17.0,7.196
-116.0,15.0,7.197
-107.0,22.0,7.198
-84.0,31.0,7.199
-56.0,27.0,7.2
-18.0,-4.0,7.201
25.0,-42.0,7.202
82.0,-63.0,7.203
128.0,-50.0,7.204
139.0,-11.0,7.205
135.0,36.0,7.206
83.0,72.0,7.207
17.0,81.0,7.208
-88.0,69.0,7.209
-169.0,56.0,7.21
-175.0,48.0,7.211
-151.0,29.0,7.212
-31.0,-8.0,7.213
55.0,-48.0,7.214
33.0,-74.0,7.215
18.0,-81.0,7.216
23.0,-67.0,7.217
22.0,-30.0,7.218
-36.0,7.0,7.219
-121.0,10.0,7.22
-122.0,-22.0,7.221
0.0,-42.0,7.222
155.0,-35.0,7.223
217.0,-30.0,7.224
158.0,-49.0,7.225
52.0,-63.0,7.226
-40.0,-41.0,7.227
-112.0,1.0,7.228
-136.0,29.0,7.229
-51.0,30.0,7.23
102.0,23.0,7.231
162.0,23.0,7.232
55.0,36.0,7.233
-84.0,48.0,7.234
-99.0,41.0,7.235
-27.0,14.0,7.236
1.0,-7.0,7.237
-28.0,-7.0,7.238
-35.0,9.0,7.239
-5.0,20.0,7.24
1.0,16.0,7.241
-8.0,13.0,7.242
35.0,17.0,7.243
112.0,23.0,7.244
129.0,37.0,7.245
58.0,45.0,7.246
-35.0,29.0,7.247
-91.0,12.0,7.248
-107.0,-9.0,7.249
-96.0,-32.0,7.25
-62.0,-57.0,7.251
-20.0,-74.0,7.252
10.0,-64.0,7.253
17.0,-56.0,7.254
-8.0,-54.0,7.255
-44.0,-44.0,7.256
-41.0,-9.0,7.257
25.0,31.0,7.258
100.0,71.0,7.259
121.0,72.0,7.26
106.0,43.0,7.261
109.0,17.0,7.262
133.0,0.0,7.263
142.0,-9.0,7.264
112.0,-9.0,7.265
38.0,0.0,7.266
-69.0,18.0,7.267
-128.0,36.0,7.268
-61.0,44.0,7.269
76.0,37.0,7.27
127.0,18.0,7.271
38.0,-2.0,7.272
-82.0,-21.0,7.273
-131.0,-43.0,7.274
-111.0,-67.0,7.275
-52.0,-82.0,7.276
30.0,-77.0,7.277
64.0,-38.0,7.278
-27.0,11.0,7.279
-97.0,48.0,7.28
-105.0,42.0,7.281
-92.0,33.0,7.282
-14.0,14.0,7.283
21.0,2.0,7.284
-71.0,17.0,7.285
-112.0,25.0,7.286
3.0,8.0,7.287
73.0,-8.0,7.288
5.0,-23.0,7.289
-18.0,-40.0,7.29
99.0,-62.0,7.291
188.0,-72.0,7.292
192.0,-42.0,7.293
131.0,8.0,7.294
-126.0,116.0,7.295
-308.0,189.0,7.296
-266.0,158.0,7.297
-166.0,106.0,7.298
55.0,-4.0,7.299
97.0,-74.0,7.3
48.0,-98.0,7.301
106.0,-94.0,7.302
247.0,-86.0,7.303
261.0,-82.0,7.304
81.0,-71.0,7.305
-126.0,-41.0,7.306
-200.0,4.0,7.307
-147.0,42.0,7.308
-57.0,47.0,7.309
13.0,20.0,7.31
43.0,-6.0,7.311
31.0,-8.0,7.312
10.0,4.0,7.313
19.0,0.0,7.314
36.0,-23.0,7.315
21.0,-35.0,7.316
-14.0,-19.0,7.317
-28.0,-3.0,7.318
-2.0,-9.0,7.319
42.0,-13.0,7.32
85.0,-10.0,7.321
117.0,-6.0,7.322
101.0,-4.0,7.323
-18.0,-3.0,7.324
-198.0,-8.0,7.325
-278.0,-11.0,7.326
-134.0,-6.0,7.327
139.0,2.0,7.328
312.0,18.0,7.329
275.0,32.0,7.33
126.0,42.0,7.331
-3.0,50.0,7.332
-66.0,47.0,7.333
-25.0,38.0,7.334
142.0,12.0,7.335
290.0,-9.0,7.336
199.0,-14.0,7.337
-174.0,-13.0,7.338
-509.0,14.0,7.339
-490.0,37.0,7.34
-199.0,42.0,7.341
38.0,33.0,7.342
96.0,21.0,7.343
124.0,24.0,7.344
202.0,46.0,7.345
205.0,67.0,7.346
39.0,67.0,7.347
-171.0,51.0,7.348
-240.0,31.0,7.349
-149.0,-14.0,7.35
-8.0,-93.0,7.351
85.0,-160.0,7.352
108.0,-160.0,7.353
82.0,-106.0,7.354
52.0,-61.0,7.355
38.0,-48.0,7.356
35.0,-31.0,7.357
24.0,5.0,7.358
23.0,23.0,7.359
39.0,19.0,7.36
36.0,13.0,7.361
-9.0,20.0,7.362
-56.0,26.0,7.363
-60.0,28.0,7.364
-33.0,36.0,7.365
-9.0,37.0,7.366
15.0,16.0,7.367
45.0,-13.0,7.368
60.0,-28.0,7.369
67.0,-31.0,7.37
110.0,-37.0,7.371
167.0,-43.0,7.372
129.0,-35.0,7.373
-40.0,-14.0,7.374
-202.0,6.0,7.375
-205.0,23.0,7.376
-102.0,28.0,7.377
-49.0,11.0,7.378
-92.0,-7.0,7.379
-110.0,-2.0,7.38
-10.0,31.0,7.381
132.0,59.0,7.382
209.0,49.0,7.383
211.0,16.0,7.384
146.0,-1.0,7.385
-26.0,14.0,7.386
-273.0,38.0,7.387
-415.0,44.0,7.388
-329.0,23.0,7.389
-135.0,-18.0,7.39
-30.0,-57.0,7.391
-9.0,-66.0,7.392
67.0,-37.0,7.393
221.0,0.0,7.394
341.0,18.0,7.395
364.0,27.0,7.396
316.0,38.0,7.397
203.0,46.0,7.398
75.0,38.0,7.399
26.0,13.0,7.4
62.0,-25.0,7.401
28.0,-65.0,7.402
-170.0,-85.0,7.403
-374.0,-53.0,7.404
-370.0,24.0,7.405
-177.0,79.0,7.406
2.0,60.0,7.407
48.0,0.0,7.408
3.0,-21.0,7.409
-30.0,16.0,7.41
-4.0,47.0,7.411
57.0,27.0,7.412
76.0,-15.0,7.413
29.0,-29.0,7.414
-11.0,-26.0,7.415
16.0,-31.0,7.416
61.0,-43.0,7.417
55.0,-41.0,7.418
25.0,-27.0,7.419
1.0,-13.0,7.42
-4.0,-1.0,7.421
-14.0,18.0,7.422
-35.0,62.0,7.423
-32.0,89.0,7.424
47.0,63.0,7.425
102.0,30.0,7.426
84.0,-25.0,7.427
62.0,-73.0,7.428
28.0,-101.0,7.429
-3.0,-112.0,7.43
-27.0,-73.0,7.431
-38.0,-37.0,7.432
-8.0,-8.0,7.433
11.0,11.0,7.434
0.0,0.0,7.435
-7.0,-6.0,7.436
2.0,2.0,7.437
8.0,8.0,7.438
-9.0,5.0,7.439
-23.0,2.0,7.44
-6.0,-2.0,7.441
35.0,-7.0,7.442
71.0,-11.0,7.443
89.0,-4.0,7.444
87.0,11.0,7.445
41.0,22.0,7.446
-58.0,28.0,7.447
-171.0,40.0,7.448
-223.0,62.0,7.449
-177.0,74.0,7.45
-71.0,59.0,7.451
25.0,24.0,7.452
85.0,-5.0,7.453
110.0,-9.0,7.454
106.0,3.0,7.455
60.0,21.0,7.456
-17.0,29.0,7.457
-83.0,14.0,7.458
-54.0,-9.0,7.459
70.0,-35.0,7.46
155.0,-57.0,7.461
70.0,-69.0,7.462
-111.0,-68.0,7.463
-169.0,-45.0,7.464
-42.0,5.0,7.465
89.0,71.0,7.466
76.0,111.0,7.467
8.0,96.0,7.468
25.0,43.0,7.469
84.0,0.0,7.47
60.0,-17.0,7.471
-31.0,-21.0,7.472
-72.0,-18.0,7.473
-23.0,-4.0,7.474
60.0,5.0,7.475
111.0,-7.0,7.476
89.0,-28.0,7.477
-29.0,-31.0,7.478
-149.0,-8.0,7.479
-204.0,9.0,7.48
-64.0,3.0,7.481
43.0,-5.0,7.482
52.0,0.0,7.483
52.0,5.0,7.484
26.0,-3.0,7.485
4.0,-15.0,7.486
-4.0,-10.0,7.487
-16.0,9.0,7.488
-43.0,28.0,7.489
-66.0,29.0,7.49
-76.0,5.0,7.491
-61.0,-33.0,7.492
29.0,-65.0,7.493
108.0,-76.0,7.494
148.0,-71.0,7.495
162.0,-67.0,7.496
99.0,-60.0,7.497
38.0,-31.0,7.498
0.0,11.0,7.499
-8.0,44.0,7.5
-9.0,46.0,7.501
-3.0,45.0,7.502
8.0,31.0,7.503
-4.0,16.0,7.504
-42.0,-5.0,7.505
