Deltoid,Bicep,Time
-5.0,-3.0,0.0
-7.0,-5.0,0.001
-3.0,-6.0,0.002
3.0,-5.0,0.003
9.0,-5.0,0.004
8.0,-3.0,0.005
2.0,2.0,0.006
0.0,3.0,0.007
3.0,2.0,0.008
5.0,2.0,0.009
2.0,4.0,0.01
-1.0,3.0,0.011
0.0,1.0,0.012
5.0,0.0,0.013
5.0,2.0,0.014
2.0,1.0,0.015
4.0,0.0,0.016
8.0,-1.0,0.017
6.0,-1.0,0.018
0.0,-3.0,0.019
-4.0,-4.0,0.02
-5.0,-4.0,0.021
-5.0,-1.0,0.022
0.0,0.0,0.023
8.0,0.0,0.024
8.0,3.0,0.025
2.0,7.0,0.026
-2.0,9.0,0.027
1.0,6.0,0.028
6.0,1.0,0.029
4.0,0.0,0.03
-1.0,2.0,0.031
-3.0,0.0,0.032
-2.0,-2.0,0.033
-1.0,-3.0,0.034
0.0,-1.0,0.035
1.0,0.0,0.036
3.0,-1.0,0.037
2.0,-4.0,0.038
0.0,-3.0,0.039
-4.0,-2.0,0.04
-7.0,-4.0,0.041
-7.0,-6.0,0.042
0.0,-7.0,0.043
6.0,-2.0,0.044
5.0,3.0,0.045
0.0,6.0,0.046
-2.0,5.0,0.047
2.0,0.0,0.048
6.0,-3.0,0.049
2.0,-1.0,0.05
0.0,4.0,0.051
5.0,3.0,0.052
9.0,-4.0,0.053
7.0,-6.0,0.054
3.0,-4.0,0.055
3.0,-2.0,0.056
7.0,-1.0,0.057
6.0,-4.0,0.058
4.0,-3.0,0.059
0.0,-4.0,0.06
-2.0,-9.0,0.061
-2.0,-8.0,0.062
1.0,-4.0,0.063
6.0,-2.0,0.064
8.0,-2.0,0.065
4.0,0.0,0.066
0.0,4.0,0.067
0.0,6.0,0.068
2.0,4.0,0.069
0.0,2.0,0.07
0.0,1.0,0.071
1.0,1.0,0.072
2.0,1.0,0.073
3.0,0.0,0.074
3.0,-2.0,0.075
2.0,-7.0,0.076
3.0,-5.0,0.077
2.0,-1.0,0.078
1.0,0.0,0.079
-1.0,-2.0,0.08
-7.0,-7.0,0.081
-8.0,-8.0,0.082
-3.0,-4.0,0.083
5.0,-1.0,0.084
7.0,2.0,0.085
5.0,5.0,0.086
3.0,5.0,0.087
6.0,3.0,0.088
7.0,2.0,0.089
4.0,1.0,0.09
0.0,0.0,0.091
-1.0,-1.0,0.092
-2.0,1.0,0.093
-1.0,3.0,0.094
1.0,4.0,0.095
3.0,1.0,0.096
2.0,0.0,0.097
1.0,-3.0,0.098
0.0,-5.0,0.099
0.0,-6.0,0.1
-2.0,-7.0,0.101
-3.0,-6.0,0.102
2.0,-4.0,0.103
10.0,-2.0,0.104
11.0,0.0,0.105
3.0,3.0,0.106
0.0,4.0,0.107
6.0,0.0,0.108
11.0,-3.0,0.109
9.0,-3.0,0.11
4.0,0.0,0.111
5.0,2.0,0.112
6.0,1.0,0.113
4.0,-1.0,0.114
3.0,-3.0,0.115
5.0,-6.0,0.116
7.0,-4.0,0.117
2.0,-3.0,0.118
-3.0,-1.0,0.119
-6.0,-1.0,0.12
-6.0,-5.0,0.121
-6.0,-4.0,0.122
-2.0,-2.0,0.123
6.0,-1.0,0.124
9.0,0.0,0.125
1.0,3.0,0.126
-3.0,3.0,0.127
1.0,1.0,0.128
5.0,0.0,0.129
2.0,1.0,0.13
-2.0,2.0,0.131
-2.0,0.0,0.132
2.0,-1.0,0.133
5.0,2.0,0.134
3.0,2.0,0.135
1.0,-1.0,0.136
4.0,-6.0,0.137
4.0,-7.0,0.138
3.0,-4.0,0.139
-1.0,-1.0,0.14
-4.0,-3.0,0.141
0.0,-2.0,0.142
7.0,-1.0,0.143
11.0,-1.0,0.144
8.0,0.0,0.145
3.0,3.0,0.146
3.0,3.0,0.147
5.0,0.0,0.148
4.0,0.0,0.149
2.0,5.0,0.15
1.0,6.0,0.151
4.0,-1.0,0.152
7.0,-6.0,0.153
6.0,-3.0,0.154
3.0,2.0,0.155
-1.0,2.0,0.156
-2.0,-1.0,0.157
0.0,-3.0,0.158
2.0,-2.0,0.159
-1.0,-2.0,0.16
-6.0,-7.0,0.161
-6.0,-6.0,0.162
1.0,-3.0,0.163
9.0,0.0,0.164
9.0,1.0,0.165
3.0,0.0,0.166
1.0,-1.0,0.167
2.0,0.0,0.168
3.0,2.0,0.169
2.0,4.0,0.17
4.0,3.0,0.171
5.0,1.0,0.172
5.0,-1.0,0.173
1.0,-3.0,0.174
0.0,-4.0,0.175
3.0,-4.0,0.176
6.0,-2.0,0.177
2.0,-1.0,0.178
-2.0,-1.0,0.179
-4.0,-4.0,0.18
-2.0,-8.0,0.181
0.0,-7.0,0.182
2.0,-5.0,0.183
5.0,-3.0,0.184
3.0,-2.0,0.185
0.0,1.0,0.186
-2.0,5.0,0.187
0.0,6.0,0.188
3.0,4.0,0.189
4.0,0.0,0.19
4.0,0.0,0.191
4.0,0.0,0.192
2.0,0.0,0.193
0.0,1.0,0.194
1.0,0.0,0.195
4.0,-3.0,0.196
9.0,-5.0,0.197
6.0,-3.0,0.198
2.0,-2.0,0.199
-2.0,-1.0,0.2
-3.0,-3.0,0.201
-3.0,-4.0,0.202
2.0,-3.0,0.203
9.0,-2.0,0.204
8.0,0.0,0.205
1.0,2.0,0.206
-1.0,4.0,0.207
2.0,2.0,0.208
6.0,1.0,0.209
5.0,3.0,0.21
3.0,5.0,0.211
6.0,4.0,0.212
5.0,0.0,0.213
1.0,-5.0,0.214
0.0,-5.0,0.215
3.0,-2.0,0.216
6.0,-1.0,0.217
2.0,-4.0,0.218
-2.0,-6.0,0.219
-4.0,-4.0,0.22
-5.0,-4.0,0.221
-4.0,-4.0,0.222
0.0,-4.0,0.223
8.0,-3.0,0.224
8.0,0.0,0.225
0.0,1.0,0.226
0.0,1.0,0.227
7.0,1.0,0.228
11.0,3.0,0.229
7.0,5.0,0.23
1.0,3.0,0.231
1.0,-1.0,0.232
3.0,-1.0,0.233
1.0,1.0,0.234
-1.0,0.0,0.235
0.0,-3.0,0.236
2.0,-4.0,0.237
0.0,-3.0,0.238
-3.0,-3.0,0.239
-5.0,-5.0,0.24
-4.0,-7.0,0.241
-2.0,-5.0,0.242
3.0,-2.0,0.243
8.0,-2.0,0.244
7.0,-3.0,0.245
1.0,1.0,0.246
-2.0,5.0,0.247
1.0,5.0,0.248
4.0,1.0,0.249
5.0,1.0,0.25
4.0,3.0,0.251
4.0,0.0,0.252
4.0,-3.0,0.253
3.0,-2.0,0.254
2.0,0.0,0.255
2.0,-2.0,0.256
3.0,-2.0,0.257
2.0,-3.0,0.258
3.0,-2.0,0.259
0.0,-3.0,0.26
-3.0,-8.0,0.261
-4.0,-6.0,0.262
0.0,-1.0,0.263
8.0,2.0,0.264
9.0,1.0,0.265
4.0,3.0,0.266
2.0,5.0,0.267
7.0,3.0,0.268
8.0,0.0,0.269
3.0,0.0,0.27
1.0,0.0,0.271
5.0,-1.0,0.272
10.0,-2.0,0.273
8.0,-1.0,0.274
0.0,0.0,0.275
-3.0,-1.0,0.276
0.0,-1.0,0.277
0.0,-2.0,0.278
-2.0,-2.0,0.279
-6.0,-1.0,0.28
-7.0,-5.0,0.281
-6.0,-3.0,0.282
-1.0,-3.0,0.283
2.0,-2.0,0.284
3.0,0.0,0.285
0.0,2.0,0.286
-1.0,1.0,0.287
3.0,-2.0,0.288
8.0,-2.0,0.289
8.0,0.0,0.29
6.0,0.0,0.291
6.0,-4.0,0.292
5.0,-7.0,0.293
2.0,-4.0,0.294
0.0,1.0,0.295
2.0,2.0,0.296
6.0,1.0,0.297
6.0,-3.0,0.298
4.0,-4.0,0.299
-1.0,-3.0,0.3
-6.0,-6.0,0.301
-7.0,-6.0,0.302
-1.0,-3.0,0.303
7.0,0.0,0.304
9.0,3.0,0.305
4.0,6.0,0.306
1.0,6.0,0.307
3.0,3.0,0.308
5.0,0.0,0.309
1.0,-1.0,0.31
-1.0,2.0,0.311
0.0,5.0,0.312
4.0,5.0,0.313
3.0,2.0,0.314
2.0,-1.0,0.315
1.0,-2.0,0.316
0.0,-1.0,0.317
0.0,-2.0,0.318
2.0,-2.0,0.319
2.0,-2.0,0.32
2.0,-4.0,0.321
-1.0,-6.0,0.322
2.0,-6.0,0.323
8.0,-4.0,0.324
10.0,1.0,0.325
6.0,4.0,0.326
3.0,3.0,0.327
3.0,0.0,0.328
2.0,0.0,0.329
0.0,0.0,0.33
0.0,-1.0,0.331
2.0,-3.0,0.332
2.0,-4.0,0.333
-1.0,-1.0,0.334
0.0,-1.0,0.335
2.0,-4.0,0.336
5.0,-3.0,0.337
1.0,-2.0,0.338
0.0,0.0,0.339
-1.0,-3.0,0.34
-3.0,-9.0,0.341
-6.0,-9.0,0.342
-1.0,-6.0,0.343
9.0,-3.0,0.344
10.0,-1.0,0.345
2.0,2.0,0.346
-3.0,4.0,0.347
0.0,6.0,0.348
5.0,4.0,0.349
4.0,0.0,0.35
2.0,0.0,0.351
5.0,-1.0,0.352
7.0,-2.0,0.353
6.0,-4.0,0.354
4.0,-4.0,0.355
4.0,-4.0,0.356
4.0,-2.0,0.357
1.0,0.0,0.358
0.0,-2.0,0.359
-1.0,-3.0,0.36
-4.0,-5.0,0.361
-7.0,-5.0,0.362
-3.0,-4.0,0.363
2.0,-4.0,0.364
1.0,-3.0,0.365
-3.0,-1.0,0.366
-1.0,0.0,0.367
4.0,0.0,0.368
6.0,2.0,0.369
1.0,5.0,0.37
0.0,5.0,0.371
3.0,2.0,0.372
7.0,2.0,0.373
5.0,2.0,0.374
3.0,0.0,0.375
3.0,-5.0,0.376
5.0,-4.0,0.377
4.0,-2.0,0.378
1.0,-2.0,0.379
-3.0,-5.0,0.38
-5.0,-7.0,0.381
0.0,-4.0,0.382
7.0,-2.0,0.383
11.0,-2.0,0.384
9.0,0.0,0.385
4.0,7.0,0.386
3.0,6.0,0.387
6.0,0.0,0.388
4.0,-2.0,0.389
1.0,2.0,0.39
-1.0,6.0,0.391
2.0,3.0,0.392
5.0,-2.0,0.393
4.0,-3.0,0.394
1.0,-3.0,0.395
1.0,-4.0,0.396
2.0,-4.0,0.397
3.0,-4.0,0.398
0.0,-2.0,0.399
-3.0,-4.0,0.4
-6.0,-9.0,0.401
-5.0,-9.0,0.402
2.0,-5.0,0.403
9.0,0.0,0.404
7.0,4.0,0.405
1.0,6.0,0.406
-2.0,4.0,0.407
1.0,2.0,0.408
4.0,3.0,0.409
0.0,3.0,0.41
-4.0,-1.0,0.411
0.0,-4.0,0.412
4.0,-2.0,0.413
3.0,1.0,0.414
1.0,-1.0,0.415
4.0,-7.0,0.416
11.0,-8.0,0.417
10.0,-4.0,0.418
5.0,-1.0,0.419
-1.0,-2.0,0.42
-3.0,-6.0,0.421
-2.0,-5.0,0.422
1.0,-2.0,0.423
7.0,0.0,0.424
6.0,1.0,0.425
0.0,4.0,0.426
-4.0,4.0,0.427
-1.0,1.0,0.428
2.0,-2.0,0.429
2.0,2.0,0.43
1.0,7.0,0.431
2.0,5.0,0.432
4.0,0.0,0.433
6.0,-1.0,0.434
7.0,0.0,0.435
5.0,-1.0,0.436
2.0,-4.0,0.437
1.0,-7.0,0.438
2.0,-7.0,0.439
2.0,-5.0,0.44
-2.0,-7.0,0.441
-5.0,-8.0,0.442
-1.0,-5.0,0.443
6.0,-1.0,0.444
8.0,3.0,0.445
3.0,6.0,0.446
1.0,4.0,0.447
3.0,0.0,0.448
3.0,-2.0,0.449
1.0,0.0,0.45
0.0,2.0,0.451
2.0,2.0,0.452
3.0,0.0,0.453
1.0,-1.0,0.454
0.0,-3.0,0.455
4.0,-4.0,0.456
8.0,-4.0,0.457
6.0,-3.0,0.458
0.0,-2.0,0.459
-5.0,-3.0,0.46
-7.0,-7.0,0.461
-6.0,-6.0,0.462
0.0,-3.0,0.463
7.0,0.0,0.464
6.0,0.0,0.465
-1.0,3.0,0.466
-6.0,4.0,0.467
-2.0,2.0,0.468
3.0,0.0,0.469
5.0,3.0,0.47
3.0,7.0,0.471
5.0,6.0,0.472
6.0,0.0,0.473
6.0,-3.0,0.474
6.0,-3.0,0.475
8.0,0.0,0.476
9.0,0.0,0.477
7.0,-1.0,0.478
3.0,-2.0,0.479
0.0,-2.0,0.48
-2.0,-6.0,0.481
-4.0,-6.0,0.482
0.0,-5.0,0.483
8.0,-1.0,0.484
10.0,2.0,0.485
3.0,4.0,0.486
0.0,3.0,0.487
3.0,3.0,0.488
6.0,5.0,0.489
2.0,6.0,0.49
-1.0,2.0,0.491
0.0,-2.0,0.492
3.0,-1.0,0.493
3.0,2.0,0.494
1.0,1.0,0.495
1.0,-3.0,0.496
3.0,-2.0,0.497
2.0,-1.0,0.498
2.0,-3.0,0.499
0.0,-8.0,0.5
-3.0,-11.0,0.501
-4.0,-6.0,0.502
4.0,-2.0,0.503
13.0,-2.0,0.504
9.0,-1.0,0.505
-1.0,3.0,0.506
-4.0,3.0,0.507
1.0,0.0,0.508
4.0,0.0,0.509
-1.0,2.0,0.51
-1.0,2.0,0.511
5.0,0.0,0.512
7.0,-2.0,0.513
3.0,0.0,0.514
-1.0,-1.0,0.515
2.0,-3.0,0.516
8.0,-1.0,0.517
5.0,-1.0,0.518
2.0,-5.0,0.519
0.0,-8.0,0.52
-2.0,-9.0,0.521
-4.0,-4.0,0.522
0.0,-1.0,0.523
8.0,0.0,0.524
10.0,2.0,0.525
2.0,7.0,0.526
0.0,7.0,0.527
4.0,3.0,0.528
6.0,0.0,0.529
4.0,1.0,0.53
2.0,4.0,0.531
3.0,1.0,0.532
3.0,-1.0,0.533
3.0,-2.0,0.534
5.0,-3.0,0.535
8.0,-4.0,0.536
7.0,-4.0,0.537
4.0,-6.0,0.538
2.0,-4.0,0.539
0.0,-3.0,0.54
-4.0,-4.0,0.541
-5.0,-5.0,0.542
0.0,-3.0,0.543
9.0,-1.0,0.544
9.0,0.0,0.545
3.0,1.0,0.546
1.0,1.0,0.547
3.0,1.0,0.548
3.0,0.0,0.549
2.0,-2.0,0.55
4.0,0.0,0.551
6.0,2.0,0.552
5.0,2.0,0.553
2.0,1.0,0.554
2.0,1.0,0.555
1.0,0.0,0.556
0.0,0.0,0.557
-2.0,0.0,0.558
0.0,-2.0,0.559
2.0,-1.0,0.56
-2.0,-3.0,0.561
-5.0,-3.0,0.562
-1.0,-5.0,0.563
2.0,-2.0,0.564
2.0,0.0,0.565
2.0,1.0,0.566
2.0,3.0,0.567
1.0,3.0,0.568
3.0,2.0,0.569
4.0,1.0,0.57
2.0,2.0,0.571
0.0,2.0,0.572
0.0,0.0,0.573
-1.0,-1.0,0.574
0.0,-1.0,0.575
2.0,0.0,0.576
4.0,0.0,0.577
6.0,-5.0,0.578
2.0,-7.0,0.579
-1.0,-5.0,0.58
-3.0,-10.0,0.581
-2.0,-10.0,0.582
2.0,-7.0,0.583
6.0,-4.0,0.584
6.0,0.0,0.585
2.0,3.0,0.586
0.0,5.0,0.587
3.0,3.0,0.588
6.0,0.0,0.589
4.0,0.0,0.59
1.0,1.0,0.591
3.0,0.0,0.592
4.0,-3.0,0.593
4.0,-3.0,0.594
3.0,0.0,0.595
5.0,1.0,0.596
6.0,1.0,0.597
5.0,-3.0,0.598
4.0,-5.0,0.599
3.0,-4.0,0.6
-1.0,-5.0,0.601
-4.0,-3.0,0.602
0.0,0.0,0.603
9.0,2.0,0.604
10.0,3.0,0.605
3.0,2.0,0.606
0.0,0.0,0.607
3.0,1.0,0.608
4.0,4.0,0.609
0.0,5.0,0.61
0.0,3.0,0.611
5.0,-1.0,0.612
6.0,-2.0,0.613
1.0,-1.0,0.614
0.0,-2.0,0.615
4.0,-3.0,0.616
6.0,-1.0,0.617
2.0,0.0,0.618
-1.0,-2.0,0.619
-3.0,-6.0,0.62
-6.0,-10.0,0.621
-7.0,-7.0,0.622
0.0,-3.0,0.623
7.0,-1.0,0.624
6.0,2.0,0.625
0.0,5.0,0.626
-1.0,7.0,0.627
3.0,4.0,0.628
3.0,1.0,0.629
-2.0,2.0,0.63
-1.0,3.0,0.631
4.0,2.0,0.632
4.0,1.0,0.633
-1.0,0.0,0.634
-1.0,-1.0,0.635
4.0,-2.0,0.636
7.0,0.0,0.637
4.0,0.0,0.638
3.0,1.0,0.639
3.0,-1.0,0.64
-2.0,-7.0,0.641
-8.0,-7.0,0.642
-5.0,-7.0,0.643
8.0,-3.0,0.644
13.0,0.0,0.645
7.0,0.0,0.646
1.0,-2.0,0.647
3.0,-4.0,0.648
5.0,-2.0,0.649
2.0,0.0,0.65
0.0,-2.0,0.651
3.0,-4.0,0.652
4.0,-2.0,0.653
4.0,1.0,0.654
5.0,-1.0,0.655
6.0,-7.0,0.656
6.0,-4.0,0.657
1.0,1.0,0.658
-1.0,2.0,0.659
-3.0,-5.0,0.66
-4.0,-12.0,0.661
-4.0,-9.0,0.662
0.0,-5.0,0.663
6.0,-2.0,0.664
4.0,0.0,0.665
-1.0,0.0,0.666
-2.0,-1.0,0.667
1.0,-4.0,0.668
5.0,-4.0,0.669
5.0,-1.0,0.67
3.0,1.0,0.671
1.0,0.0,0.672
-1.0,-1.0,0.673
0.0,0.0,0.674
4.0,1.0,0.675
8.0,0.0,0.676
9.0,0.0,0.677
5.0,0.0,0.678
4.0,-2.0,0.679
0.0,-5.0,0.68
-4.0,-8.0,0.681
-6.0,-6.0,0.682
0.0,-2.0,0.683
8.0,0.0,0.684
7.0,4.0,0.685
1.0,7.0,0.686
2.0,5.0,0.687
7.0,1.0,0.688
7.0,0.0,0.689
3.0,0.0,0.69
2.0,-1.0,0.691
5.0,-3.0,0.692
5.0,-3.0,0.693
2.0,-1.0,0.694
2.0,-2.0,0.695
3.0,-1.0,0.696
3.0,2.0,0.697
0.0,1.0,0.698
0.0,-3.0,0.699
0.0,-7.0,0.7
-4.0,-6.0,0.701
-5.0,-3.0,0.702
0.0,-1.0,0.703
7.0,-1.0,0.704
4.0,1.0,0.705
-2.0,5.0,0.706
-1.0,4.0,0.707
6.0,2.0,0.708
6.0,5.0,0.709
0.0,9.0,0.71
-4.0,8.0,0.711
-1.0,3.0,0.712
0.0,0.0,0.713
-2.0,0.0,0.714
-2.0,-1.0,0.715
1.0,-3.0,0.716
4.0,1.0,0.717
2.0,4.0,0.718
0.0,3.0,0.719
-2.0,1.0,0.72
-3.0,-4.0,0.721
-4.0,-8.0,0.722
0.0,-4.0,0.723
7.0,-1.0,0.724
8.0,0.0,0.725
4.0,2.0,0.726
3.0,1.0,0.727
7.0,0.0,0.728
9.0,0.0,0.729
7.0,-1.0,0.73
6.0,-1.0,0.731
5.0,0.0,0.732
2.0,-1.0,0.733
0.0,-2.0,0.734
3.0,-3.0,0.735
8.0,-4.0,0.736
11.0,-4.0,0.737
5.0,-4.0,0.738
3.0,-6.0,0.739
1.0,-7.0,0.74
0.0,-9.0,0.741
0.0,-5.0,0.742
6.0,-2.0,0.743
11.0,-1.0,0.744
6.0,-1.0,0.745
2.0,4.0,0.746
1.0,6.0,0.747
0.0,2.0,0.748
2.0,-1.0,0.749
4.0,1.0,0.75
1.0,1.0,0.751
-1.0,-2.0,0.752
0.0,-7.0,0.753
2.0,-6.0,0.754
4.0,-2.0,0.755
5.0,-1.0,0.756
0.0,0.0,0.757
-3.0,0.0,0.758
-1.0,0.0,0.759
-1.0,-1.0,0.76
-5.0,-6.0,0.761
-10.0,-6.0,0.762
-4.0,-2.0,0.763
5.0,2.0,0.764
9.0,4.0,0.765
4.0,3.0,0.766
1.0,2.0,0.767
4.0,2.0,0.768
4.0,1.0,0.769
1.0,0.0,0.77
0.0,0.0,0.771
4.0,-2.0,0.772
9.0,-2.0,0.773
8.0,-1.0,0.774
6.0,0.0,0.775
5.0,-1.0,0.776
6.0,-4.0,0.777
5.0,-6.0,0.778
1.0,-5.0,0.779
-4.0,-2.0,0.78
-8.0,-4.0,0.781
-7.0,-6.0,0.782
-1.0,-7.0,0.783
7.0,-4.0,0.784
7.0,1.0,0.785
2.0,4.0,0.786
0.0,2.0,0.787
3.0,-1.0,0.788
5.0,-1.0,0.789
3.0,1.0,0.79
2.0,2.0,0.791
3.0,-1.0,0.792
3.0,-3.0,0.793
0.0,0.0,0.794
-2.0,2.0,0.795
-1.0,1.0,0.796
1.0,-1.0,0.797
1.0,-4.0,0.798
-1.0,-3.0,0.799
-4.0,-3.0,0.8
-5.0,-6.0,0.801
-3.0,-4.0,0.802
3.0,-1.0,0.803
9.0,1.0,0.804
8.0,3.0,0.805
4.0,3.0,0.806
3.0,3.0,0.807
5.0,3.0,0.808
6.0,1.0,0.809
3.0,1.0,0.81
1.0,1.0,0.811
2.0,0.0,0.812
2.0,-1.0,0.813
-1.0,-1.0,0.814
-1.0,0.0,0.815
3.0,0.0,0.816
8.0,-2.0,0.817
3.0,-5.0,0.818
0.0,-5.0,0.819
-3.0,-2.0,0.82
-4.0,-7.0,0.821
-5.0,-9.0,0.822
0.0,-7.0,0.823
9.0,-2.0,0.824
11.0,3.0,0.825
3.0,4.0,0.826
-3.0,3.0,0.827
-1.0,2.0,0.828
5.0,3.0,0.829
6.0,4.0,0.83
3.0,4.0,0.831
5.0,3.0,0.832
9.0,0.0,0.833
6.0,-3.0,0.834
1.0,-3.0,0.835
-2.0,-4.0,0.836
0.0,-3.0,0.837
0.0,-4.0,0.838
2.0,-4.0,0.839
3.0,-6.0,0.84
2.0,-9.0,0.841
-1.0,-8.0,0.842
1.0,-5.0,0.843
7.0,-2.0,0.844
9.0,0.0,0.845
3.0,3.0,0.846
0.0,4.0,0.847
0.0,3.0,0.848
2.0,2.0,0.849
1.0,5.0,0.85
1.0,5.0,0.851
2.0,1.0,0.852
3.0,-4.0,0.853
2.0,-4.0,0.854
2.0,-4.0,0.855
6.0,-3.0,0.856
8.0,-3.0,0.857
4.0,0.0,0.858
0.0,3.0,0.859
-2.0,1.0,0.86
-4.0,-6.0,0.861
-7.0,-9.0,0.862
-4.0,-8.0,0.863
7.0,-3.0,0.864
12.0,1.0,0.865
9.0,6.0,0.866
2.0,7.0,0.867
2.0,3.0,0.868
3.0,1.0,0.869
1.0,3.0,0.87
0.0,3.0,0.871
2.0,-1.0,0.872
4.0,-4.0,0.873
1.0,0.0,0.874
-2.0,2.0,0.875
0.0,-1.0,0.876
5.0,-2.0,0.877
6.0,-2.0,0.878
2.0,-2.0,0.879
-2.0,-6.0,0.88
-3.0,-11.0,0.881
-1.0,-10.0,0.882
2.0,-6.0,0.883
4.0,-1.0,0.884
4.0,1.0,0.885
0.0,6.0,0.886
-1.0,9.0,0.887
4.0,5.0,0.888
7.0,0.0,0.889
5.0,0.0,0.89
3.0,0.0,0.891
3.0,-2.0,0.892
3.0,-5.0,0.893
3.0,-3.0,0.894
5.0,-1.0,0.895
8.0,-2.0,0.896
10.0,-1.0,0.897
5.0,-2.0,0.898
0.0,-3.0,0.899
-1.0,-8.0,0.9
-3.0,-11.0,0.901
-5.0,-7.0,0.902
-3.0,-4.0,0.903
3.0,-5.0,0.904
5.0,-4.0,0.905
0.0,2.0,0.906
-5.0,10.0,0.907
-2.0,8.0,0.908
2.0,2.0,0.909
1.0,0.0,0.91
-3.0,1.0,0.911
-3.0,2.0,0.912
-1.0,-1.0,0.913
1.0,-4.0,0.914
2.0,-5.0,0.915
6.0,-4.0,0.916
10.0,-1.0,0.917
9.0,0.0,0.918
4.0,-2.0,0.919
-2.0,-3.0,0.92
-5.0,-5.0,0.921
-5.0,-4.0,0.922
2.0,-2.0,0.923
10.0,0.0,0.924
12.0,3.0,0.925
6.0,6.0,0.926
3.0,5.0,0.927
6.0,1.0,0.928
9.0,0.0,0.929
7.0,0.0,0.93
6.0,-1.0,0.931
7.0,-6.0,0.932
6.0,-6.0,0.933
1.0,-2.0,0.934
-1.0,-1.0,0.935
1.0,-5.0,0.936
4.0,-5.0,0.937
2.0,-3.0,0.938
-1.0,-1.0,0.939
-5.0,-3.0,0.94
-10.0,-7.0,0.941
-8.0,-5.0,0.942
-1.0,1.0,0.943
6.0,4.0,0.944
8.0,4.0,0.945
2.0,4.0,0.946
-1.0,2.0,0.947
0.0,0.0,0.948
2.0,0.0,0.949
3.0,2.0,0.95
3.0,0.0,0.951
3.0,-3.0,0.952
2.0,-5.0,0.953
3.0,-1.0,0.954
3.0,0.0,0.955
0.0,-4.0,0.956
-2.0,-3.0,0.957
-2.0,-2.0,0.958
0.0,0.0,0.959
0.0,-2.0,0.96
-2.0,-7.0,0.961
-1.0,-7.0,0.962
4.0,-5.0,0.963
8.0,0.0,0.964
6.0,6.0,0.965
4.0,9.0,0.966
5.0,6.0,0.967
5.0,3.0,0.968
4.0,4.0,0.969
3.0,5.0,0.97
5.0,3.0,0.971
8.0,0.0,0.972
5.0,-1.0,0.973
1.0,0.0,0.974
2.0,0.0,0.975
4.0,-3.0,0.976
6.0,-2.0,0.977
3.0,-3.0,0.978
0.0,-4.0,0.979
-4.0,-5.0,0.98
-6.0,-6.0,0.981
-7.0,-7.0,0.982
-3.0,-5.0,0.983
3.0,-3.0,0.984
5.0,1.0,0.985
3.0,5.0,0.986
2.0,5.0,0.987
3.0,4.0,0.988
4.0,6.0,0.989
1.0,8.0,0.99
1.0,4.0,0.991
2.0,0.0,0.992
4.0,-1.0,0.993
2.0,-3.0,0.994
2.0,-1.0,0.995
3.0,0.0,0.996
6.0,0.0,0.997
4.0,-1.0,0.998
0.0,-4.0,0.999
-3.0,-6.0,1.0
-4.0,-10.0,1.001
-4.0,-9.0,1.002
1.0,-5.0,1.003
5.0,-2.0,1.004
6.0,0.0,1.005
6.0,3.0,1.006
2.0,6.0,1.007
-1.0,4.0,1.008
0.0,-1.0,1.009
2.0,-4.0,1.01
3.0,-1.0,1.011
4.0,1.0,1.012
2.0,-2.0,1.013
1.0,-3.0,1.014
0.0,-2.0,1.015
0.0,-1.0,1.016
1.0,-2.0,1.017
4.0,-4.0,1.018
6.0,-2.0,1.019
4.0,-3.0,1.02
-2.0,-10.0,1.021
-4.0,-12.0,1.022
0.0,-7.0,1.023
8.0,1.0,1.024
8.0,3.0,1.025
2.0,2.0,1.026
-1.0,3.0,1.027
3.0,4.0,1.028
7.0,1.0,1.029
4.0,-3.0,1.03
0.0,-3.0,1.031
0.0,-1.0,1.032
0.0,-1.0,1.033
-1.0,-1.0,1.034
-3.0,-2.0,1.035
-1.0,-1.0,1.036
3.0,-2.0,1.037
1.0,-5.0,1.038
-4.0,-3.0,1.039
-7.0,-1.0,1.04
-4.0,-7.0,1.041
-2.0,-8.0,1.042
0.0,-4.0,1.043
4.0,2.0,1.044
6.0,6.0,1.045
5.0,5.0,1.046
2.0,2.0,1.047
2.0,0.0,1.048
6.0,1.0,1.049
7.0,4.0,1.05
7.0,7.0,1.051
8.0,6.0,1.052
7.0,3.0,1.053
5.0,2.0,1.054
2.0,3.0,1.055
1.0,0.0,1.056
3.0,-2.0,1.057
4.0,-3.0,1.058
2.0,-1.0,1.059
-1.0,0.0,1.06
-5.0,-5.0,1.061
-9.0,-9.0,1.062
-5.0,-5.0,1.063
3.0,-1.0,1.064
7.0,0.0,1.065
3.0,3.0,1.066
0.0,4.0,1.067
1.0,4.0,1.068
5.0,1.0,1.069
8.0,-1.0,1.07
6.0,0.0,1.071
5.0,3.0,1.072
4.0,1.0,1.073
3.0,0.0,1.074
3.0,0.0,1.075
3.0,-1.0,1.076
2.0,-3.0,1.077
1.0,-6.0,1.078
0.0,-8.0,1.079
-2.0,-8.0,1.08
-6.0,-10.0,1.081
-8.0,-7.0,1.082
1.0,-1.0,1.083
8.0,3.0,1.084
5.0,4.0,1.085
3.0,4.0,1.086
1.0,2.0,1.087
0.0,0.0,1.088
1.0,-2.0,1.089
2.0,-2.0,1.09
3.0,-1.0,1.091
4.0,-1.0,1.092
2.0,-2.0,1.093
1.0,-3.0,1.094
2.0,-2.0,1.095
4.0,0.0,1.096
5.0,0.0,1.097
5.0,-2.0,1.098
-2.0,-4.0,1.099
-5.0,-5.0,1.1
-5.0,-5.0,1.101
-1.0,-3.0,1.102
6.0,-1.0,1.103
12.0,1.0,1.104
9.0,4.0,1.105
3.0,6.0,1.106
3.0,5.0,1.107
7.0,4.0,1.108
7.0,2.0,1.109
1.0,2.0,1.11
-1.0,3.0,1.111
3.0,4.0,1.112
5.0,4.0,1.113
1.0,3.0,1.114
-2.0,0.0,1.115
-1.0,-2.0,1.116
2.0,-2.0,1.117
1.0,-4.0,1.118
0.0,-6.0,1.119
-3.0,-7.0,1.12
-5.0,-9.0,1.121
-5.0,-8.0,1.122
0.0,-7.0,1.123
9.0,-3.0,1.124
11.0,2.0,1.125
4.0,6.0,1.126
0.0,3.0,1.127
3.0,-3.0,1.128
9.0,-2.0,1.129
10.0,2.0,1.13
6.0,4.0,1.131
3.0,2.0,1.132
2.0,-1.0,1.133
3.0,0.0,1.134
5.0,0.0,1.135
5.0,-2.0,1.136
3.0,-1.0,1.137
0.0,-1.0,1.138
1.0,-2.0,1.139
2.0,-4.0,1.14
2.0,-9.0,1.141
1.0,-8.0,1.142
3.0,-6.0,1.143
7.0,-4.0,1.144
5.0,-1.0,1.145
0.0,4.0,1.146
1.0,6.0,1.147
7.0,3.0,1.148
8.0,1.0,1.149
3.0,0.0,1.15
0.0,0.0,1.151
3.0,1.0,1.152
6.0,1.0,1.153
3.0,1.0,1.154
0.0,0.0,1.155
1.0,-1.0,1.156
4.0,-2.0,1.157
4.0,-2.0,1.158
4.0,-4.0,1.159
0.0,-6.0,1.16
-3.0,-7.0,1.161
-7.0,-4.0,1.162
-5.0,1.0,1.163
1.0,2.0,1.164
4.0,3.0,1.165
0.0,5.0,1.166
-2.0,5.0,1.167
0.0,1.0,1.168
0.0,-2.0,1.169
-1.0,-2.0,1.17
-3.0,2.0,1.171
0.0,2.0,1.172
4.0,0.0,1.173
6.0,0.0,1.174
3.0,1.0,1.175
2.0,-1.0,1.176
3.0,-3.0,1.177
1.0,-5.0,1.178
0.0,-3.0,1.179
1.0,-3.0,1.18
1.0,-6.0,1.181
0.0,-6.0,1.182
1.0,-4.0,1.183
4.0,-3.0,1.184
6.0,-2.0,1.185
5.0,5.0,1.186
3.0,9.0,1.187
6.0,6.0,1.188
7.0,0.0,1.189
4.0,-1.0,1.19
3.0,1.0,1.191
5.0,0.0,1.192
8.0,-2.0,1.193
4.0,-1.0,1.194
-1.0,1.0,1.195
-2.0,0.0,1.196
0.0,-2.0,1.197
2.0,-5.0,1.198
2.0,-4.0,1.199
-1.0,-2.0,1.2
-7.0,-7.0,1.201
-10.0,-7.0,1.202
-3.0,-4.0,1.203
6.0,-1.0,1.204
7.0,-1.0,1.205
1.0,0.0,1.206
-1.0,3.0,1.207
4.0,4.0,1.208
8.0,3.0,1.209
6.0,2.0,1.21
4.0,0.0,1.211
7.0,0.0,1.212
7.0,-1.0,1.213
3.0,1.0,1.214
1.0,3.0,1.215
5.0,0.0,1.216
9.0,-2.0,1.217
6.0,-3.0,1.218
3.0,-1.0,1.219
2.0,0.0,1.22
-1.0,-5.0,1.221
-4.0,-7.0,1.222
-3.0,-7.0,1.223
5.0,-5.0,1.224
9.0,-2.0,1.225
4.0,2.0,1.226
2.0,0.0,1.227
5.0,-3.0,1.228
5.0,-2.0,1.229
0.0,3.0,1.23
-2.0,4.0,1.231
1.0,-1.0,1.232
4.0,-2.0,1.233
2.0,1.0,1.234
1.0,2.0,1.235
5.0,-1.0,1.236
6.0,-4.0,1.237
3.0,-4.0,1.238
-1.0,-3.0,1.239
-4.0,-3.0,1.24
-5.0,-6.0,1.241
-6.0,-6.0,1.242
-2.0,-5.0,1.243
4.0,-3.0,1.244
8.0,1.0,1.245
6.0,5.0,1.246
2.0,5.0,1.247
2.0,1.0,1.248
2.0,2.0,1.249
0.0,6.0,1.25
-1.0,6.0,1.251
1.0,1.0,1.252
4.0,0.0,1.253
2.0,0.0,1.254
1.0,0.0,1.255
2.0,-1.0,1.256
4.0,0.0,1.257
3.0,1.0,1.258
1.0,0.0,1.259
0.0,-3.0,1.26
-1.0,-7.0,1.261
-3.0,-5.0,1.262
0.0,-4.0,1.263
6.0,-2.0,1.264
7.0,0.0,1.265
2.0,1.0,1.266
0.0,0.0,1.267
4.0,-2.0,1.268
5.0,0.0,1.269
-1.0,3.0,1.27
-2.0,3.0,1.271
2.0,-1.0,1.272
6.0,-2.0,1.273
6.0,2.0,1.274
4.0,5.0,1.275
6.0,2.0,1.276
7.0,-1.0,1.277
4.0,-5.0,1.278
2.0,-5.0,1.279
1.0,-4.0,1.28
-2.0,-5.0,1.281
-6.0,-4.0,1.282
-2.0,-3.0,1.283
7.0,-2.0,1.284
9.0,1.0,1.285
1.0,2.0,1.286
-3.0,0.0,1.287
0.0,-2.0,1.288
6.0,-1.0,1.289
3.0,0.0,1.29
-1.0,0.0,1.291
0.0,-1.0,1.292
3.0,0.0,1.293
3.0,4.0,1.294
0.0,3.0,1.295
1.0,-1.0,1.296
7.0,-2.0,1.297
6.0,0.0,1.298
1.0,1.0,1.299
-4.0,-2.0,1.3
-3.0,-8.0,1.301
-3.0,-7.0,1.302
0.0,-1.0,1.303
3.0,2.0,1.304
5.0,3.0,1.305
5.0,6.0,1.306
3.0,6.0,1.307
4.0,4.0,1.308
6.0,3.0,1.309
6.0,6.0,1.31
4.0,8.0,1.311
2.0,5.0,1.312
3.0,1.0,1.313
4.0,-1.0,1.314
3.0,-1.0,1.315
2.0,-4.0,1.316
3.0,-8.0,1.317
3.0,-9.0,1.318
2.0,-7.0,1.319
-2.0,-6.0,1.32
-6.0,-10.0,1.321
-6.0,-10.0,1.322
0.0,-6.0,1.323
5.0,-1.0,1.324
4.0,-2.0,1.325
1.0,-4.0,1.326
2.0,-5.0,1.327
6.0,-4.0,1.328
5.0,-2.0,1.329
0.0,-3.0,1.33
-3.0,-4.0,1.331
1.0,-6.0,1.332
5.0,-7.0,1.333
4.0,-5.0,1.334
0.0,-2.0,1.335
1.0,0.0,1.336
5.0,0.0,1.337
4.0,0.0,1.338
-1.0,-2.0,1.339
-8.0,-4.0,1.34
-11.0,-4.0,1.341
-7.0,-3.0,1.342
0.0,0.0,1.343
7.0,1.0,1.344
5.0,0.0,1.345
0.0,-1.0,1.346
-3.0,1.0,1.347
-1.0,4.0,1.348
2.0,3.0,1.349
4.0,2.0,1.35
4.0,2.0,1.351
5.0,2.0,1.352
6.0,-1.0,1.353
4.0,-3.0,1.354
3.0,-1.0,1.355
4.0,0.0,1.356
7.0,-1.0,1.357
5.0,-2.0,1.358
4.0,-2.0,1.359
2.0,-2.0,1.36
1.0,-6.0,1.361
0.0,-4.0,1.362
1.0,-1.0,1.363
6.0,-1.0,1.364
8.0,-1.0,1.365
4.0,2.0,1.366
1.0,6.0,1.367
2.0,7.0,1.368
5.0,4.0,1.369
4.0,3.0,1.37
2.0,1.0,1.371
4.0,-1.0,1.372
6.0,-3.0,1.373
5.0,-1.0,1.374
3.0,-1.0,1.375
3.0,-4.0,1.376
7.0,-4.0,1.377
7.0,-1.0,1.378
5.0,0.0,1.379
-1.0,-4.0,1.38
-7.0,-9.0,1.381
-7.0,-7.0,1.382
-1.0,0.0,1.383
8.0,2.0,1.384
7.0,2.0,1.385
-1.0,3.0,1.386
-5.0,5.0,1.387
-2.0,2.0,1.388
0.0,0.0,1.389
0.0,1.0,1.39
0.0,7.0,1.391
4.0,7.0,1.392
5.0,2.0,1.393
1.0,-1.0,1.394
2.0,-1.0,1.395
6.0,-3.0,1.396
8.0,-3.0,1.397
4.0,-3.0,1.398
2.0,-1.0,1.399
2.0,-1.0,1.4
-1.0,-5.0,1.401
-4.0,-5.0,1.402
-2.0,-3.0,1.403
5.0,-1.0,1.404
7.0,0.0,1.405
0.0,2.0,1.406
-2.0,3.0,1.407
1.0,2.0,1.408
3.0,1.0,1.409
0.0,1.0,1.41
-1.0,0.0,1.411
4.0,-3.0,1.412
11.0,-2.0,1.413
10.0,1.0,1.414
6.0,4.0,1.415
4.0,0.0,1.416
5.0,-1.0,1.417
2.0,-4.0,1.418
0.0,-3.0,1.419
-2.0,-3.0,1.42
-4.0,-8.0,1.421
-5.0,-8.0,1.422
0.0,-8.0,1.423
6.0,-4.0,1.424
5.0,3.0,1.425
-2.0,8.0,1.426
-3.0,7.0,1.427
3.0,1.0,1.428
7.0,0.0,1.429
3.0,2.0,1.43
1.0,3.0,1.431
4.0,2.0,1.432
4.0,1.0,1.433
1.0,0.0,1.434
-2.0,-3.0,1.435
1.0,-6.0,1.436
5.0,-4.0,1.437
3.0,-2.0,1.438
3.0,0.0,1.439
0.0,-4.0,1.44
-4.0,-9.0,1.441
-4.0,-7.0,1.442
1.0,-3.0,1.443
11.0,-2.0,1.444
9.0,-2.0,1.445
2.0,0.0,1.446
1.0,0.0,1.447
6.0,-2.0,1.448
7.0,-5.0,1.449
3.0,-4.0,1.45
0.0,-1.0,1.451
3.0,0.0,1.452
3.0,1.0,1.453
1.0,2.0,1.454
1.0,0.0,1.455
2.0,-3.0,1.456
4.0,0.0,1.457
2.0,0.0,1.458
3.0,-2.0,1.459
2.0,-6.0,1.46
-2.0,-9.0,1.461
-4.0,-6.0,1.462
-1.0,-3.0,1.463
5.0,-3.0,1.464
6.0,-2.0,1.465
2.0,2.0,1.466
2.0,2.0,1.467
7.0,0.0,1.468
8.0,-2.0,1.469
3.0,1.0,1.47
-2.0,3.0,1.471
-1.0,0.0,1.472
2.0,-1.0,1.473
4.0,2.0,1.474
4.0,2.0,1.475
4.0,-2.0,1.476
4.0,-3.0,1.477
1.0,-1.0,1.478
-1.0,2.0,1.479
-4.0,0.0,1.48
-6.0,-6.0,1.481
-6.0,-7.0,1.482
-1.0,-5.0,1.483
4.0,-2.0,1.484
4.0,-1.0,1.485
2.0,0.0,1.486
2.0,0.0,1.487
5.0,-2.0,1.488
5.0,-3.0,1.489
2.0,-1.0,1.49
3.0,0.0,1.491
6.0,-1.0,1.492
6.0,-3.0,1.493
0.0,-4.0,1.494
-2.0,-4.0,1.495
1.0,-1.0,1.496
6.0,3.0,1.497
8.0,2.0,1.498
6.0,-2.0,1.499
2.0,-5.0,1.5
-2.0,-7.0,1.501
-3.0,-5.0,1.502
0.0,-3.0,1.503
5.0,0.0,1.504
6.0,6.0,1.505
1.0,8.0,1.506
-2.0,4.0,1.507
0.0,1.0,1.508
4.0,3.0,1.509
4.0,6.0,1.51
3.0,5.0,1.511
3.0,0.0,1.512
1.0,-4.0,1.513
-2.0,-2.0,1.514
-3.0,2.0,1.515
-1.0,3.0,1.516
2.0,0.0,1.517
1.0,-3.0,1.518
0.0,0.0,1.519
-4.0,1.0,1.52
-6.0,-6.0,1.521
-5.0,-9.0,1.522
0.0,-5.0,1.523
7.0,2.0,1.524
7.0,4.0,1.525
2.0,1.0,1.526
1.0,0.0,1.527
6.0,3.0,1.528
8.0,3.0,1.529
7.0,0.0,1.53
4.0,-1.0,1.531
4.0,4.0,1.532
4.0,8.0,1.533
3.0,3.0,1.534
3.0,-5.0,1.535
7.0,-8.0,1.536
10.0,-5.0,1.537
6.0,-3.0,1.538
3.0,-4.0,1.539
3.0,-5.0,1.54
4.0,-4.0,1.541
1.0,-4.0,1.542
0.0,-6.0,1.543
7.0,-6.0,1.544
12.0,0.0,1.545
9.0,5.0,1.546
2.0,2.0,1.547
3.0,-1.0,1.548
5.0,1.0,1.549
4.0,3.0,1.55
-1.0,3.0,1.551
-1.0,0.0,1.552
0.0,-1.0,1.553
-1.0,0.0,1.554
-2.0,-3.0,1.555
0.0,-7.0,1.556
6.0,-4.0,1.557
5.0,0.0,1.558
0.0,1.0,1.559
-4.0,-2.0,1.56
-6.0,-5.0,1.561
-6.0,-4.0,1.562
-3.0,-4.0,1.563
0.0,-3.0,1.564
3.0,-1.0,1.565
2.0,3.0,1.566
1.0,3.0,1.567
3.0,-1.0,1.568
1.0,0.0,1.569
-4.0,2.0,1.57
-4.0,5.0,1.571
1.0,2.0,1.572
6.0,-2.0,1.573
4.0,-3.0,1.574
1.0,-1.0,1.575
2.0,-1.0,1.576
7.0,1.0,1.577
7.0,-1.0,1.578
3.0,-6.0,1.579
-2.0,-9.0,1.58
-5.0,-9.0,1.581
-6.0,-5.0,1.582
1.0,-1.0,1.583
10.0,-1.0,1.584
11.0,1.0,1.585
5.0,5.0,1.586
0.0,7.0,1.587
0.0,2.0,1.588
2.0,0.0,1.589
3.0,2.0,1.59
3.0,5.0,1.591
6.0,4.0,1.592
6.0,2.0,1.593
6.0,2.0,1.594
8.0,0.0,1.595
6.0,-6.0,1.596
4.0,-8.0,1.597
-1.0,-7.0,1.598
0.0,-4.0,1.599
0.0,-2.0,1.6
-1.0,-6.0,1.601
-3.0,-6.0,1.602
-1.0,-4.0,1.603
6.0,-2.0,1.604
9.0,1.0,1.605
6.0,3.0,1.606
5.0,1.0,1.607
8.0,-2.0,1.608
8.0,-2.0,1.609
2.0,4.0,1.61
-3.0,7.0,1.611
-2.0,4.0,1.612
3.0,-1.0,1.613
4.0,-6.0,1.614
2.0,-4.0,1.615
2.0,-2.0,1.616
5.0,0.0,1.617
6.0,0.0,1.618
4.0,-1.0,1.619
-3.0,-3.0,1.62
-11.0,-7.0,1.621
-10.0,-7.0,1.622
-1.0,-3.0,1.623
7.0,1.0,1.624
6.0,4.0,1.625
-2.0,5.0,1.626
-7.0,4.0,1.627
-3.0,2.0,1.628
2.0,2.0,1.629
3.0,3.0,1.63
2.0,3.0,1.631
3.0,0.0,1.632
5.0,0.0,1.633
3.0,1.0,1.634
3.0,0.0,1.635
4.0,-4.0,1.636
6.0,-7.0,1.637
4.0,-8.0,1.638
0.0,-6.0,1.639
-3.0,-6.0,1.64
-4.0,-8.0,1.641
-2.0,-7.0,1.642
4.0,-5.0,1.643
11.0,-2.0,1.644
10.0,0.0,1.645
4.0,3.0,1.646
-2.0,5.0,1.647
0.0,4.0,1.648
4.0,3.0,1.649
3.0,3.0,1.65
1.0,2.0,1.651
2.0,-1.0,1.652
6.0,-4.0,1.653
9.0,-1.0,1.654
6.0,0.0,1.655
2.0,0.0,1.656
2.0,-1.0,1.657
3.0,-4.0,1.658
3.0,-7.0,1.659
-1.0,-9.0,1.66
-4.0,-10.0,1.661
-2.0,-5.0,1.662
5.0,1.0,1.663
11.0,3.0,1.664
8.0,0.0,1.665
3.0,-1.0,1.666
2.0,1.0,1.667
2.0,3.0,1.668
1.0,2.0,1.669
0.0,1.0,1.67
0.0,0.0,1.671
3.0,2.0,1.672
3.0,0.0,1.673
4.0,-4.0,1.674
5.0,-7.0,1.675
6.0,-7.0,1.676
4.0,-3.0,1.677
1.0,-1.0,1.678
-1.0,1.0,1.679
-4.0,0.0,1.68
-7.0,-5.0,1.681
-6.0,-7.0,1.682
2.0,-5.0,1.683
8.0,-1.0,1.684
6.0,3.0,1.685
0.0,6.0,1.686
0.0,6.0,1.687
2.0,3.0,1.688
3.0,1.0,1.689
2.0,2.0,1.69
5.0,2.0,1.691
7.0,-1.0,1.692
7.0,-3.0,1.693
4.0,0.0,1.694
2.0,2.0,1.695
1.0,1.0,1.696
2.0,-4.0,1.697
1.0,-6.0,1.698
1.0,-3.0,1.699
-2.0,0.0,1.7
-6.0,-3.0,1.701
-8.0,-6.0,1.702
-2.0,-6.0,1.703
5.0,-3.0,1.704
6.0,-1.0,1.705
2.0,1.0,1.706
1.0,1.0,1.707
4.0,0.0,1.708
7.0,1.0,1.709
5.0,2.0,1.71
3.0,3.0,1.711
5.0,1.0,1.712
7.0,-1.0,1.713
5.0,0.0,1.714
4.0,0.0,1.715
6.0,0.0,1.716
9.0,0.0,1.717
5.0,-3.0,1.718
1.0,-4.0,1.719
-2.0,-5.0,1.72
-3.0,-8.0,1.721
-4.0,-6.0,1.722
0.0,-4.0,1.723
7.0,-2.0,1.724
9.0,0.0,1.725
2.0,3.0,1.726
-4.0,2.0,1.727
-1.0,0.0,1.728
4.0,-1.0,1.729
3.0,1.0,1.73
0.0,2.0,1.731
2.0,-1.0,1.732
5.0,-4.0,1.733
2.0,-4.0,1.734
-1.0,-3.0,1.735
1.0,-3.0,1.736
8.0,-3.0,1.737
4.0,-2.0,1.738
0.0,0.0,1.739
-2.0,0.0,1.74
-1.0,-6.0,1.741
0.0,-8.0,1.742
1.0,-6.0,1.743
5.0,-1.0,1.744
9.0,4.0,1.745
4.0,7.0,1.746
-1.0,5.0,1.747
-2.0,0.0,1.748
1.0,-3.0,1.749
2.0,0.0,1.75
1.0,2.0,1.751
4.0,2.0,1.752
7.0,-2.0,1.753
4.0,-3.0,1.754
0.0,0.0,1.755
2.0,-1.0,1.756
7.0,1.0,1.757
9.0,-1.0,1.758
6.0,-1.0,1.759
0.0,-2.0,1.76
-3.0,-4.0,1.761
-4.0,-6.0,1.762
0.0,-6.0,1.763
7.0,-4.0,1.764
8.0,-2.0,1.765
0.0,-1.0,1.766
-4.0,-2.0,1.767
-1.0,-4.0,1.768
2.0,-2.0,1.769
2.0,-1.0,1.77
1.0,0.0,1.771
3.0,2.0,1.772
4.0,2.0,1.773
1.0,1.0,1.774
-2.0,0.0,1.775
-1.0,-1.0,1.776
3.0,0.0,1.777
2.0,2.0,1.778
0.0,0.0,1.779
-3.0,-3.0,1.78
-3.0,-6.0,1.781
-2.0,-6.0,1.782
3.0,-7.0,1.783
8.0,-4.0,1.784
8.0,2.0,1.785
8.0,5.0,1.786
2.0,2.0,1.787
-2.0,-2.0,1.788
-2.0,1.0,1.789
-1.0,4.0,1.79
0.0,3.0,1.791
2.0,0.0,1.792
4.0,0.0,1.793
5.0,4.0,1.794
2.0,2.0,1.795
0.0,-1.0,1.796
0.0,0.0,1.797
1.0,0.0,1.798
-2.0,-2.0,1.799
-2.0,-6.0,1.8
-2.0,-9.0,1.801
0.0,-7.0,1.802
2.0,-5.0,1.803
6.0,-2.0,1.804
4.0,1.0,1.805
1.0,4.0,1.806
2.0,3.0,1.807
6.0,-1.0,1.808
9.0,-2.0,1.809
6.0,0.0,1.81
3.0,4.0,1.811
2.0,4.0,1.812
1.0,0.0,1.813
1.0,-5.0,1.814
4.0,-5.0,1.815
7.0,-1.0,1.816
8.0,4.0,1.817
5.0,2.0,1.818
3.0,-3.0,1.819
1.0,-6.0,1.82
-1.0,-8.0,1.821
-4.0,-6.0,1.822
0.0,-6.0,1.823
7.0,-7.0,1.824
9.0,-3.0,1.825
3.0,2.0,1.826
0.0,5.0,1.827
1.0,1.0,1.828
2.0,-3.0,1.829
0.0,-3.0,1.83
-1.0,0.0,1.831
4.0,2.0,1.832
6.0,0.0,1.833
0.0,0.0,1.834
-4.0,1.0,1.835
-1.0,1.0,1.836
5.0,1.0,1.837
7.0,-3.0,1.838
3.0,-7.0,1.839
-3.0,-7.0,1.84
-6.0,-7.0,1.841
-4.0,-3.0,1.842
1.0,0.0,1.843
7.0,2.0,1.844
7.0,5.0,1.845
0.0,8.0,1.846
-3.0,8.0,1.847
-1.0,6.0,1.848
2.0,2.0,1.849
2.0,0.0,1.85
0.0,1.0,1.851
0.0,0.0,1.852
1.0,-3.0,1.853
2.0,-7.0,1.854
5.0,-5.0,1.855
7.0,0.0,1.856
9.0,3.0,1.857
3.0,1.0,1.858
2.0,0.0,1.859
-1.0,-2.0,1.86
-2.0,-5.0,1.861
-2.0,-8.0,1.862
3.0,-6.0,1.863
6.0,-4.0,1.864
7.0,-2.0,1.865
7.0,0.0,1.866
5.0,0.0,1.867
4.0,0.0,1.868
3.0,0.0,1.869
3.0,0.0,1.87
3.0,1.0,1.871
2.0,4.0,1.872
3.0,2.0,1.873
3.0,1.0,1.874
3.0,0.0,1.875
4.0,-2.0,1.876
4.0,-2.0,1.877
4.0,-3.0,1.878
0.0,-3.0,1.879
-4.0,-4.0,1.88
-6.0,-7.0,1.881
-6.0,-4.0,1.882
2.0,-2.0,1.883
9.0,-2.0,1.884
10.0,-1.0,1.885
10.0,0.0,1.886
8.0,0.0,1.887
6.0,1.0,1.888
4.0,2.0,1.889
3.0,2.0,1.89
2.0,0.0,1.891
1.0,0.0,1.892
2.0,0.0,1.893
4.0,0.0,1.894
4.0,-1.0,1.895
5.0,-3.0,1.896
5.0,-2.0,1.897
4.0,0.0,1.898
2.0,0.0,1.899
-2.0,0.0,1.9
-5.0,-4.0,1.901
-6.0,-3.0,1.902
-1.0,0.0,1.903
6.0,0.0,1.904
8.0,-1.0,1.905
0.0,-1.0,1.906
-5.0,1.0,1.907
0.0,1.0,1.908
5.0,1.0,1.909
3.0,2.0,1.91
0.0,2.0,1.911
1.0,0.0,1.912
4.0,-3.0,1.913
2.0,-5.0,1.914
2.0,-2.0,1.915
5.0,0.0,1.916
10.0,0.0,1.917
8.0,-2.0,1.918
2.0,-2.0,1.919
-1.0,-3.0,1.92
0.0,-4.0,1.921
0.0,-5.0,1.922
0.0,-3.0,1.923
2.0,-1.0,1.924
6.0,2.0,1.925
3.0,5.0,1.926
-2.0,4.0,1.927
-1.0,2.0,1.928
2.0,-1.0,1.929
3.0,-3.0,1.93
2.0,-1.0,1.931
4.0,1.0,1.932
8.0,1.0,1.933
9.0,0.0,1.934
5.0,-3.0,1.935
3.0,-6.0,1.936
4.0,-4.0,1.937
3.0,-2.0,1.938
3.0,-2.0,1.939
1.0,-4.0,1.94
-1.0,-7.0,1.941
-3.0,-6.0,1.942
-1.0,-4.0,1.943
0.0,-3.0,1.944
2.0,0.0,1.945
3.0,6.0,1.946
0.0,7.0,1.947
-2.0,3.0,1.948
-1.0,1.0,1.949
0.0,4.0,1.95
1.0,5.0,1.951
2.0,2.0,1.952
2.0,-1.0,1.953
3.0,-3.0,1.954
3.0,-3.0,1.955
3.0,-1.0,1.956
3.0,1.0,1.957
2.0,1.0,1.958
-3.0,-1.0,1.959
-4.0,-4.0,1.96
-5.0,-7.0,1.961
-5.0,-4.0,1.962
0.0,1.0,1.963
10.0,6.0,1.964
12.0,8.0,1.965
1.0,7.0,1.966
-5.0,4.0,1.967
1.0,3.0,1.968
11.0,4.0,1.969
8.0,3.0,1.97
0.0,2.0,1.971
-1.0,2.0,1.972
3.0,2.0,1.973
6.0,3.0,1.974
5.0,0.0,1.975
6.0,-4.0,1.976
10.0,-6.0,1.977
6.0,-5.0,1.978
2.0,-4.0,1.979
-1.0,-4.0,1.98
-2.0,-8.0,1.981
-2.0,-9.0,1.982
0.0,-8.0,1.983
4.0,-6.0,1.984
4.0,-3.0,1.985
-1.0,0.0,1.986
-1.0,-1.0,1.987
4.0,-4.0,1.988
8.0,-6.0,1.989
4.0,-6.0,1.99
-1.0,-5.0,1.991
1.0,-7.0,1.992
4.0,-7.0,1.993
2.0,-6.0,1.994
0.0,-3.0,1.995
3.0,0.0,1.996
5.0,1.0,1.997
2.0,0.0,1.998
-4.0,-2.0,1.999
-8.0,-4.0,2.0
-9.0,-2.0,2.001
-5.0,0.0,2.002
1.0,1.0,2.003
9.0,3.0,2.004
8.0,5.0,2.005
0.0,7.0,2.006
-1.0,3.0,2.007
3.0,0.0,2.008
5.0,1.0,2.009
2.0,3.0,2.01
2.0,3.0,2.011
6.0,2.0,2.012
7.0,2.0,2.013
3.0,1.0,2.014
0.0,1.0,2.015
0.0,0.0,2.016
3.0,0.0,2.017
2.0,0.0,2.018
3.0,0.0,2.019
3.0,-2.0,2.02
-1.0,-4.0,2.021
-2.0,-2.0,2.022
5.0,-1.0,2.023
10.0,-2.0,2.024
8.0,-1.0,2.025
6.0,2.0,2.026
5.0,5.0,2.027
4.0,3.0,2.028
4.0,0.0,2.029
2.0,0.0,2.03
0.0,3.0,2.031
-2.0,0.0,2.032
3.0,-4.0,2.033
6.0,-2.0,2.034
4.0,2.0,2.035
2.0,5.0,2.036
2.0,1.0,2.037
2.0,-6.0,2.038
0.0,-6.0,2.039
-2.0,-3.0,2.04
-2.0,-6.0,2.041
-2.0,-7.0,2.042
0.0,-5.0,2.043
4.0,0.0,2.044
7.0,3.0,2.045
3.0,2.0,2.046
0.0,2.0,2.047
1.0,2.0,2.048
4.0,1.0,2.049
3.0,1.0,2.05
1.0,1.0,2.051
2.0,-1.0,2.052
2.0,-5.0,2.053
1.0,-7.0,2.054
0.0,-2.0,2.055
3.0,2.0,2.056
7.0,1.0,2.057
6.0,-4.0,2.058
1.0,-4.0,2.059
-4.0,-1.0,2.06
-5.0,-3.0,2.061
-2.0,-6.0,2.062
5.0,-7.0,2.063
11.0,-3.0,2.064
10.0,0.0,2.065
4.0,1.0,2.066
1.0,2.0,2.067
0.0,0.0,2.068
2.0,0.0,2.069
1.0,5.0,2.07
1.0,8.0,2.071
3.0,4.0,2.072
2.0,0.0,2.073
-1.0,-1.0,2.074
-1.0,0.0,2.075
2.0,0.0,2.076
6.0,-3.0,2.077
8.0,-5.0,2.078
5.0,-2.0,2.079
3.0,0.0,2.08
1.0,-2.0,2.081
-2.0,-3.0,2.082
-1.0,-1.0,2.083
4.0,0.0,2.084
6.0,2.0,2.085
3.0,5.0,2.086
3.0,5.0,2.087
5.0,5.0,2.088
4.0,6.0,2.089
-1.0,6.0,2.09
-3.0,0.0,2.091
0.0,-4.0,2.092
3.0,-4.0,2.093
2.0,-5.0,2.094
0.0,-5.0,2.095
3.0,-4.0,2.096
7.0,-3.0,2.097
5.0,-1.0,2.098
3.0,0.0,2.099
1.0,-5.0,2.1
0.0,-10.0,2.101
-1.0,-8.0,2.102
3.0,-3.0,2.103
5.0,1.0,2.104
3.0,2.0,2.105
2.0,1.0,2.106
0.0,2.0,2.107
0.0,1.0,2.108
4.0,3.0,2.109
7.0,3.0,2.11
4.0,1.0,2.111
1.0,0.0,2.112
1.0,-3.0,2.113
2.0,-5.0,2.114
2.0,-3.0,2.115
3.0,-2.0,2.116
5.0,2.0,2.117
5.0,3.0,2.118
3.0,1.0,2.119
1.0,0.0,2.12
0.0,-2.0,2.121
-1.0,-5.0,2.122
3.0,-6.0,2.123
5.0,-6.0,2.124
3.0,-2.0,2.125
2.0,1.0,2.126
0.0,2.0,2.127
0.0,3.0,2.128
4.0,1.0,2.129
7.0,-1.0,2.13
4.0,-1.0,2.131
1.0,-2.0,2.132
1.0,-3.0,2.133
2.0,-4.0,2.134
2.0,-2.0,2.135
3.0,0.0,2.136
5.0,1.0,2.137
5.0,3.0,2.138
3.0,1.0,2.139
1.0,0.0,2.14
0.0,-4.0,2.141
-1.0,-6.0,2.142
3.0,-3.0,2.143
5.0,0.0,2.144
3.0,3.0,2.145
2.0,5.0,2.146
0.0,5.0,2.147
0.0,4.0,2.148
4.0,2.0,2.149
7.0,1.0,2.15
4.0,2.0,2.151
1.0,1.0,2.152
1.0,0.0,2.153
2.0,-3.0,2.154
2.0,-3.0,2.155
3.0,-2.0,2.156
5.0,-3.0,2.157
8.0,-5.0,2.158
3.0,-6.0,2.159
-3.0,-5.0,2.16
-6.0,-5.0,2.161
-3.0,-7.0,2.162
3.0,-7.0,2.163
9.0,-3.0,2.164
9.0,2.0,2.165
3.0,7.0,2.166
0.0,7.0,2.167
1.0,3.0,2.168
3.0,1.0,2.169
1.0,1.0,2.17
0.0,2.0,2.171
1.0,0.0,2.172
4.0,0.0,2.173
3.0,1.0,2.174
3.0,0.0,2.175
3.0,-1.0,2.176
5.0,-1.0,2.177
2.0,-1.0,2.178
0.0,-2.0,2.179
-3.0,-4.0,2.18
-4.0,-8.0,2.181
-3.0,-8.0,2.182
2.0,-3.0,2.183
7.0,1.0,2.184
4.0,2.0,2.185
1.0,0.0,2.186
1.0,-1.0,2.187
1.0,0.0,2.188
2.0,1.0,2.189
3.0,2.0,2.19
0.0,0.0,2.191
-1.0,-3.0,2.192
2.0,-3.0,2.193
5.0,-1.0,2.194
6.0,0.0,2.195
7.0,-1.0,2.196
6.0,1.0,2.197
4.0,1.0,2.198
-1.0,0.0,2.199
-2.0,-2.0,2.2
-2.0,-6.0,2.201
-5.0,-6.0,2.202
-3.0,-8.0,2.203
3.0,-6.0,2.204
6.0,-2.0,2.205
1.0,2.0,2.206
-4.0,2.0,2.207
0.0,0.0,2.208
5.0,-1.0,2.209
3.0,2.0,2.21
-1.0,2.0,2.211
1.0,0.0,2.212
5.0,0.0,2.213
2.0,1.0,2.214
-2.0,-2.0,2.215
1.0,-6.0,2.216
9.0,-6.0,2.217
8.0,-3.0,2.218
2.0,-3.0,2.219
-3.0,-2.0,2.22
-2.0,-3.0,2.221
0.0,-1.0,2.222
4.0,2.0,2.223
10.0,-1.0,2.224
12.0,-2.0,2.225
7.0,0.0,2.226
-1.0,3.0,2.227
-5.0,3.0,2.228
-4.0,2.0,2.229
-1.0,3.0,2.23
-1.0,1.0,2.231
0.0,-3.0,2.232
-1.0,-3.0,2.233
1.0,0.0,2.234
6.0,0.0,2.235
8.0,-1.0,2.236
6.0,-2.0,2.237
2.0,-4.0,2.238
1.0,-6.0,2.239
1.0,-7.0,2.24
-1.0,-7.0,2.241
-3.0,-6.0,2.242
0.0,-5.0,2.243
9.0,-3.0,2.244
11.0,2.0,2.245
5.0,8.0,2.246
0.0,7.0,2.247
1.0,2.0,2.248
6.0,0.0,2.249
8.0,1.0,2.25
7.0,0.0,2.251
4.0,-3.0,2.252
2.0,-3.0,2.253
0.0,1.0,2.254
0.0,1.0,2.255
3.0,-3.0,2.256
6.0,-4.0,2.257
4.0,-4.0,2.258
-1.0,-4.0,2.259
-6.0,-6.0,2.26
-7.0,-8.0,2.261
-6.0,-5.0,2.262
0.0,-4.0,2.263
5.0,0.0,2.264
4.0,4.0,2.265
3.0,7.0,2.266
3.0,5.0,2.267
3.0,2.0,2.268
1.0,0.0,2.269
-1.0,1.0,2.27
-1.0,1.0,2.271
0.0,3.0,2.272
3.0,3.0,2.273
6.0,-2.0,2.274
4.0,-8.0,2.275
3.0,-9.0,2.276
4.0,-2.0,2.277
5.0,2.0,2.278
1.0,2.0,2.279
-3.0,-1.0,2.28
-6.0,-6.0,2.281
-3.0,-7.0,2.282
2.0,-5.0,2.283
8.0,0.0,2.284
9.0,7.0,2.285
4.0,6.0,2.286
2.0,1.0,2.287
5.0,-2.0,2.288
8.0,-1.0,2.289
6.0,0.0,2.29
2.0,-4.0,2.291
2.0,-7.0,2.292
2.0,-5.0,2.293
0.0,-3.0,2.294
-1.0,-4.0,2.295
0.0,-5.0,2.296
3.0,-2.0,2.297
3.0,0.0,2.298
0.0,0.0,2.299
-3.0,0.0,2.3
-5.0,-3.0,2.301
-4.0,-4.0,2.302
2.0,-3.0,2.303
9.0,2.0,2.304
10.0,8.0,2.305
5.0,10.0,2.306
2.0,6.0,2.307
3.0,3.0,2.308
4.0,4.0,2.309
3.0,4.0,2.31
1.0,1.0,2.311
1.0,-2.0,2.312
2.0,-1.0,2.313
2.0,0.0,2.314
2.0,-1.0,2.315
5.0,-3.0,2.316
8.0,-4.0,2.317
5.0,-5.0,2.318
1.0,-5.0,2.319
0.0,-7.0,2.32
-1.0,-8.0,2.321
0.0,-7.0,2.322
2.0,-3.0,2.323
7.0,1.0,2.324
7.0,4.0,2.325
4.0,2.0,2.326
1.0,1.0,2.327
2.0,2.0,2.328
2.0,5.0,2.329
0.0,3.0,2.33
-1.0,0.0,2.331
1.0,-3.0,2.332
3.0,-1.0,2.333
1.0,0.0,2.334
2.0,-1.0,2.335
7.0,-3.0,2.336
12.0,-2.0,2.337
8.0,-2.0,2.338
2.0,-1.0,2.339
-2.0,-2.0,2.34
-5.0,-6.0,2.341
-6.0,-9.0,2.342
0.0,-8.0,2.343
4.0,-4.0,2.344
4.0,1.0,2.345
3.0,5.0,2.346
3.0,5.0,2.347
2.0,3.0,2.348
3.0,3.0,2.349
3.0,5.0,2.35
0.0,3.0,2.351
-2.0,1.0,2.352
-1.0,0.0,2.353
0.0,0.0,2.354
2.0,-4.0,2.355
5.0,-7.0,2.356
6.0,-6.0,2.357
6.0,-3.0,2.358
2.0,-2.0,2.359
-2.0,-5.0,2.36
-7.0,-10.0,2.361
-8.0,-7.0,2.362
-1.0,0.0,2.363
9.0,4.0,2.364
10.0,4.0,2.365
3.0,3.0,2.366
0.0,4.0,2.367
3.0,2.0,2.368
6.0,-1.0,2.369
3.0,-1.0,2.37
0.0,1.0,2.371
4.0,1.0,2.372
6.0,-2.0,2.373
3.0,-5.0,2.374
1.0,-4.0,2.375
2.0,-2.0,2.376
5.0,0.0,2.377
2.0,-2.0,2.378
0.0,-5.0,2.379
-2.0,-8.0,2.38
-3.0,-11.0,2.381
-3.0,-9.0,2.382
0.0,-4.0,2.383
6.0,1.0,2.384
8.0,7.0,2.385
3.0,10.0,2.386
1.0,8.0,2.387
4.0,2.0,2.388
6.0,0.0,2.389
3.0,2.0,2.39
-2.0,3.0,2.391
-2.0,-2.0,2.392
0.0,-6.0,2.393
2.0,-2.0,2.394
4.0,2.0,2.395
5.0,-2.0,2.396
6.0,-7.0,2.397
6.0,-9.0,2.398
4.0,-5.0,2.399
-1.0,-2.0,2.4
-7.0,-4.0,2.401
-9.0,-5.0,2.402
0.0,-2.0,2.403
10.0,0.0,2.404
10.0,0.0,2.405
2.0,-2.0,2.406
-3.0,0.0,2.407
0.0,3.0,2.408
3.0,5.0,2.409
3.0,5.0,2.41
3.0,4.0,2.411
5.0,2.0,2.412
6.0,0.0,2.413
7.0,0.0,2.414
7.0,0.0,2.415
7.0,0.0,2.416
6.0,-1.0,2.417
2.0,-4.0,2.418
1.0,-5.0,2.419
-1.0,-5.0,2.42
-7.0,-6.0,2.421
-10.0,-5.0,2.422
0.0,-3.0,2.423
6.0,0.0,2.424
2.0,5.0,2.425
-1.0,6.0,2.426
-2.0,3.0,2.427
-2.0,1.0,2.428
0.0,3.0,2.429
2.0,5.0,2.43
0.0,2.0,2.431
-2.0,-1.0,2.432
-2.0,0.0,2.433
-2.0,2.0,2.434
2.0,0.0,2.435
5.0,-4.0,2.436
7.0,-3.0,2.437
8.0,-1.0,2.438
5.0,1.0,2.439
0.0,-1.0,2.44
-5.0,-8.0,2.441
-7.0,-7.0,2.442
2.0,-4.0,2.443
14.0,-1.0,2.444
16.0,1.0,2.445
6.0,3.0,2.446
0.0,0.0,2.447
2.0,-2.0,2.448
6.0,-2.0,2.449
3.0,0.0,2.45
0.0,1.0,2.451
2.0,-2.0,2.452
5.0,-3.0,2.453
4.0,-1.0,2.454
2.0,0.0,2.455
3.0,-3.0,2.456
3.0,-5.0,2.457
0.0,-4.0,2.458
-5.0,-2.0,2.459
-4.0,-4.0,2.46
-1.0,-9.0,2.461
1.0,-8.0,2.462
5.0,-3.0,2.463
7.0,0.0,2.464
5.0,4.0,2.465
-1.0,8.0,2.466
-2.0,7.0,2.467
1.0,2.0,2.468
3.0,-2.0,2.469
-1.0,0.0,2.47
-3.0,3.0,2.471
1.0,0.0,2.472
7.0,-4.0,2.473
6.0,-3.0,2.474
2.0,0.0,2.475
3.0,-1.0,2.476
7.0,-2.0,2.477
7.0,-3.0,2.478
3.0,0.0,2.479
0.0,0.0,2.48
-1.0,-5.0,2.481
0.0,-5.0,2.482
3.0,-1.0,2.483
6.0,0.0,2.484
7.0,-1.0,2.485
4.0,1.0,2.486
2.0,3.0,2.487
1.0,3.0,2.488
2.0,0.0,2.489
1.0,-1.0,2.49
1.0,-1.0,2.491
2.0,-2.0,2.492
1.0,-3.0,2.493
2.0,-2.0,2.494
2.0,-1.0,2.495
2.0,-1.0,2.496
2.0,0.0,2.497
1.0,-1.0,2.498
4.0,-3.0,2.499
2.0,-6.0,2.5
-4.0,-9.0,2.501
-10.0,-8.0,2.502
-7.0,-6.0,2.503
4.0,-2.0,2.504
10.0,3.0,2.505
6.0,4.0,2.506
3.0,3.0,2.507
4.0,1.0,2.508
5.0,2.0,2.509
2.0,1.0,2.51
1.0,-2.0,2.511
4.0,-3.0,2.512
6.0,-2.0,2.513
3.0,0.0,2.514
0.0,0.0,2.515
1.0,0.0,2.516
5.0,1.0,2.517
4.0,-1.0,2.518
1.0,-4.0,2.519
-2.0,-6.0,2.52
-4.0,-9.0,2.521
-3.0,-7.0,2.522
1.0,-5.0,2.523
8.0,-2.0,2.524
11.0,0.0,2.525
5.0,2.0,2.526
1.0,4.0,2.527
2.0,2.0,2.528
3.0,1.0,2.529
3.0,3.0,2.53
2.0,5.0,2.531
1.0,5.0,2.532
1.0,1.0,2.533
1.0,0.0,2.534
4.0,2.0,2.535
5.0,3.0,2.536
2.0,1.0,2.537
-2.0,-2.0,2.538
-3.0,-4.0,2.539
-2.0,-3.0,2.54
-2.0,-6.0,2.541
-4.0,-8.0,2.542
0.0,-6.0,2.543
8.0,-3.0,2.544
9.0,0.0,2.545
1.0,3.0,2.546
-1.0,3.0,2.547
2.0,4.0,2.548
5.0,3.0,2.549
2.0,3.0,2.55
1.0,2.0,2.551
4.0,2.0,2.552
6.0,0.0,2.553
1.0,1.0,2.554
-1.0,0.0,2.555
2.0,-1.0,2.556
7.0,-1.0,2.557
6.0,-2.0,2.558
3.0,-2.0,2.559
-1.0,-4.0,2.56
-4.0,-8.0,2.561
-5.0,-7.0,2.562
0.0,-3.0,2.563
9.0,1.0,2.564
10.0,2.0,2.565
3.0,2.0,2.566
-1.0,0.0,2.567
2.0,0.0,2.568
6.0,1.0,2.569
2.0,3.0,2.57
1.0,1.0,2.571
4.0,-1.0,2.572
8.0,-2.0,2.573
5.0,-2.0,2.574
1.0,-3.0,2.575
2.0,-5.0,2.576
5.0,-3.0,2.577
4.0,-1.0,2.578
0.0,0.0,2.579
-4.0,-1.0,2.58
-7.0,-7.0,2.581
-7.0,-8.0,2.582
-1.0,-6.0,2.583
6.0,-3.0,2.584
6.0,-1.0,2.585
0.0,1.0,2.586
-3.0,2.0,2.587
2.0,0.0,2.588
5.0,-1.0,2.589
3.0,0.0,2.59
1.0,1.0,2.591
5.0,1.0,2.592
5.0,-1.0,2.593
0.0,-2.0,2.594
-2.0,-1.0,2.595
2.0,-1.0,2.596
7.0,-2.0,2.597
4.0,-3.0,2.598
0.0,-3.0,2.599
-1.0,-1.0,2.6
0.0,-5.0,2.601
-1.0,-8.0,2.602
0.0,-6.0,2.603
7.0,-3.0,2.604
9.0,3.0,2.605
5.0,9.0,2.606
2.0,10.0,2.607
4.0,7.0,2.608
9.0,4.0,2.609
7.0,5.0,2.61
2.0,8.0,2.611
2.0,7.0,2.612
5.0,4.0,2.613
4.0,1.0,2.614
2.0,0.0,2.615
1.0,0.0,2.616
2.0,0.0,2.617
2.0,0.0,2.618
1.0,-3.0,2.619
-1.0,-5.0,2.62
-3.0,-9.0,2.621
-4.0,-9.0,2.622
1.0,-8.0,2.623
10.0,-6.0,2.624
11.0,0.0,2.625
4.0,6.0,2.626
-3.0,6.0,2.627
-2.0,0.0,2.628
2.0,-3.0,2.629
3.0,-2.0,2.63
2.0,0.0,2.631
2.0,-3.0,2.632
4.0,-6.0,2.633
2.0,-6.0,2.634
1.0,-5.0,2.635
2.0,-4.0,2.636
5.0,-4.0,2.637
3.0,-5.0,2.638
-1.0,-6.0,2.639
-4.0,-6.0,2.64
-5.0,-7.0,2.641
-4.0,-5.0,2.642
-4.0,-3.0,2.643
-2.0,-3.0,2.644
-1.0,-2.0,2.645
-3.0,1.0,2.646
-3.0,2.0,2.647
0.0,1.0,2.648
2.0,0.0,2.649
0.0,1.0,2.65
-1.0,2.0,2.651
1.0,0.0,2.652
5.0,0.0,2.653
9.0,1.0,2.654
10.0,2.0,2.655
10.0,0.0,2.656
9.0,-2.0,2.657
4.0,-3.0,2.658
3.0,-3.0,2.659
2.0,-4.0,2.66
2.0,-5.0,2.661
2.0,-3.0,2.662
3.0,-1.0,2.663
6.0,0.0,2.664
5.0,3.0,2.665
1.0,6.0,2.666
1.0,5.0,2.667
5.0,2.0,2.668
7.0,1.0,2.669
4.0,5.0,2.67
3.0,6.0,2.671
4.0,0.0,2.672
2.0,-5.0,2.673
-1.0,-5.0,2.674
-2.0,-1.0,2.675
0.0,0.0,2.676
5.0,1.0,2.677
4.0,0.0,2.678
0.0,0.0,2.679
-3.0,0.0,2.68
-4.0,-4.0,2.681
-4.0,-4.0,2.682
0.0,-1.0,2.683
6.0,1.0,2.684
7.0,1.0,2.685
0.0,1.0,2.686
-3.0,2.0,2.687
0.0,2.0,2.688
9.0,0.0,2.689
9.0,-1.0,2.69
1.0,-2.0,2.691
-1.0,-3.0,2.692
2.0,-3.0,2.693
4.0,-2.0,2.694
1.0,-2.0,2.695
-2.0,-2.0,2.696
2.0,-3.0,2.697
5.0,-3.0,2.698
3.0,-2.0,2.699
1.0,-1.0,2.7
0.0,-3.0,2.701
-1.0,-4.0,2.702
4.0,-2.0,2.703
9.0,0.0,2.704
6.0,1.0,2.705
3.0,2.0,2.706
4.0,4.0,2.707
5.0,6.0,2.708
5.0,6.0,2.709
5.0,5.0,2.71
3.0,3.0,2.711
1.0,0.0,2.712
1.0,-5.0,2.713
1.0,-7.0,2.714
0.0,-6.0,2.715
-1.0,-2.0,2.716
0.0,0.0,2.717
2.0,-3.0,2.718
1.0,-3.0,2.719
-3.0,0.0,2.72
-7.0,-1.0,2.721
-5.0,-5.0,2.722
2.0,-7.0,2.723
8.0,-3.0,2.724
6.0,2.0,2.725
0.0,6.0,2.726
-2.0,4.0,2.727
4.0,1.0,2.728
8.0,2.0,2.729
7.0,4.0,2.73
5.0,3.0,2.731
7.0,1.0,2.732
8.0,-2.0,2.733
6.0,-4.0,2.734
3.0,-2.0,2.735
2.0,-1.0,2.736
3.0,-2.0,2.737
4.0,-2.0,2.738
3.0,0.0,2.739
-1.0,1.0,2.74
-4.0,-3.0,2.741
-5.0,-6.0,2.742
1.0,-4.0,2.743
6.0,-1.0,2.744
4.0,0.0,2.745
0.0,2.0,2.746
-3.0,2.0,2.747
-1.0,0.0,2.748
0.0,-1.0,2.749
1.0,-3.0,2.75
4.0,-1.0,2.751
7.0,0.0,2.752
2.0,-2.0,2.753
-1.0,-3.0,2.754
1.0,-1.0,2.755
7.0,1.0,2.756
9.0,0.0,2.757
4.0,-2.0,2.758
3.0,-6.0,2.759
1.0,-7.0,2.76
0.0,-8.0,2.761
-1.0,-3.0,2.762
6.0,0.0,2.763
11.0,-1.0,2.764
7.0,0.0,2.765
4.0,3.0,2.766
2.0,3.0,2.767
1.0,0.0,2.768
1.0,-5.0,2.769
2.0,-1.0,2.77
1.0,2.0,2.771
0.0,1.0,2.772
0.0,-1.0,2.773
0.0,0.0,2.774
0.0,1.0,2.775
0.0,0.0,2.776
3.0,-2.0,2.777
5.0,0.0,2.778
1.0,1.0,2.779
-1.0,0.0,2.78
-3.0,-5.0,2.781
-5.0,-6.0,2.782
-3.0,-4.0,2.783
4.0,-3.0,2.784
7.0,0.0,2.785
3.0,4.0,2.786
0.0,4.0,2.787
3.0,0.0,2.788
4.0,0.0,2.789
1.0,3.0,2.79
0.0,3.0,2.791
5.0,-4.0,2.792
10.0,-7.0,2.793
8.0,-3.0,2.794
4.0,1.0,2.795
2.0,-1.0,2.796
2.0,-4.0,2.797
0.0,0.0,2.798
-2.0,0.0,2.799
-6.0,-1.0,2.8
-5.0,-3.0,2.801
-3.0,-5.0,2.802
3.0,-2.0,2.803
9.0,0.0,2.804
6.0,0.0,2.805
1.0,2.0,2.806
1.0,3.0,2.807
5.0,5.0,2.808
5.0,2.0,2.809
0.0,0.0,2.81
0.0,0.0,2.811
7.0,-1.0,2.812
8.0,-2.0,2.813
3.0,-3.0,2.814
3.0,-2.0,2.815
8.0,-1.0,2.816
14.0,-2.0,2.817
-1.0,0.0,2.818
-2.0,-1.0,2.819
-3.0,-2.0,2.82
-3.0,-5.0,2.821
-2.0,-7.0,2.822
1.0,-3.0,2.823
5.0,0.0,2.824
9.0,1.0,2.825
12.0,3.0,2.826
8.0,5.0,2.827
6.0,7.0,2.828
5.0,3.0,2.829
4.0,0.0,2.83
3.0,-1.0,2.831
2.0,-2.0,2.832
3.0,-3.0,2.833
5.0,-5.0,2.834
5.0,-3.0,2.835
4.0,-2.0,2.836
5.0,-3.0,2.837
-1.0,-4.0,2.838
-2.0,-1.0,2.839
-3.0,0.0,2.84
-3.0,-3.0,2.841
-2.0,-5.0,2.842
1.0,-3.0,2.843
5.0,0.0,2.844
9.0,2.0,2.845
11.0,2.0,2.846
8.0,0.0,2.847
6.0,-2.0,2.848
5.0,-3.0,2.849
4.0,1.0,2.85
3.0,3.0,2.851
2.0,1.0,2.852
3.0,-2.0,2.853
5.0,-1.0,2.854
5.0,-2.0,2.855
4.0,-4.0,2.856
5.0,-6.0,2.857
5.0,-4.0,2.858
6.0,1.0,2.859
2.0,1.0,2.86
-3.0,-6.0,2.861
-5.0,-10.0,2.862
-1.0,-8.0,2.863
7.0,-4.0,2.864
9.0,0.0,2.865
2.0,4.0,2.866
-2.0,3.0,2.867
-2.0,-1.0,2.868
1.0,0.0,2.869
1.0,5.0,2.87
2.0,8.0,2.871
5.0,3.0,2.872
5.0,-3.0,2.873
0.0,-4.0,2.874
-3.0,-3.0,2.875
-1.0,-5.0,2.876
4.0,-2.0,2.877
6.0,0.0,2.878
3.0,1.0,2.879
-3.0,-2.0,2.88
-5.0,-10.0,2.881
-4.0,-9.0,2.882
-3.0,-3.0,2.883
0.0,-1.0,2.884
3.0,0.0,2.885
2.0,1.0,2.886
0.0,1.0,2.887
0.0,-1.0,2.888
1.0,-2.0,2.889
4.0,1.0,2.89
6.0,4.0,2.891
9.0,1.0,2.892
9.0,-1.0,2.893
5.0,0.0,2.894
4.0,2.0,2.895
6.0,0.0,2.896
9.0,-2.0,2.897
2.0,-2.0,2.898
0.0,0.0,2.899
-4.0,2.0,2.9
-5.0,-2.0,2.901
-5.0,-5.0,2.902
0.0,-2.0,2.903
5.0,0.0,2.904
6.0,2.0,2.905
7.0,4.0,2.906
5.0,2.0,2.907
2.0,1.0,2.908
3.0,1.0,2.909
5.0,0.0,2.91
3.0,2.0,2.911
2.0,3.0,2.912
2.0,1.0,2.913
3.0,-1.0,2.914
3.0,-1.0,2.915
2.0,0.0,2.916
3.0,-2.0,2.917
2.0,-5.0,2.918
0.0,-7.0,2.919
-4.0,-7.0,2.92
-6.0,-9.0,2.921
-6.0,-9.0,2.922
0.0,-8.0,2.923
5.0,-2.0,2.924
6.0,6.0,2.925
8.0,11.0,2.926
5.0,9.0,2.927
2.0,4.0,2.928
3.0,1.0,2.929
5.0,1.0,2.93
3.0,2.0,2.931
2.0,1.0,2.932
2.0,1.0,2.933
3.0,0.0,2.934
3.0,-1.0,2.935
2.0,-2.0,2.936
3.0,-3.0,2.937
2.0,-6.0,2.938
0.0,-6.0,2.939
-3.0,-7.0,2.94
-4.0,-9.0,2.941
-4.0,-7.0,2.942
0.0,-3.0,2.943
4.0,0.0,2.944
5.0,2.0,2.945
6.0,3.0,2.946
4.0,1.0,2.947
2.0,-2.0,2.948
3.0,0.0,2.949
4.0,3.0,2.95
3.0,4.0,2.951
2.0,0.0,2.952
2.0,-3.0,2.953
3.0,-4.0,2.954
3.0,-5.0,2.955
2.0,-6.0,2.956
3.0,-4.0,2.957
5.0,-2.0,2.958
4.0,0.0,2.959
0.0,0.0,2.96
-2.0,-4.0,2.961
-3.0,-6.0,2.962
2.0,-3.0,2.963
9.0,0.0,2.964
9.0,4.0,2.965
2.0,7.0,2.966
-3.0,5.0,2.967
-1.0,3.0,2.968
3.0,1.0,2.969
4.0,0.0,2.97
4.0,0.0,2.971
5.0,0.0,2.972
7.0,-1.0,2.973
5.0,-2.0,2.974
3.0,0.0,2.975
2.0,1.0,2.976
2.0,0.0,2.977
0.0,-1.0,2.978
-2.0,-2.0,2.979
-4.0,-5.0,2.98
-6.0,-9.0,2.981
-6.0,-4.0,2.982
0.0,3.0,2.983
5.0,4.0,2.984
5.0,2.0,2.985
4.0,3.0,2.986
2.0,3.0,2.987
1.0,0.0,2.988
4.0,-2.0,2.989
6.0,0.0,2.99
4.0,4.0,2.991
2.0,1.0,2.992
5.0,-3.0,2.993
7.0,-5.0,2.994
5.0,-4.0,2.995
2.0,-3.0,2.996
0.0,-2.0,2.997
0.0,-2.0,2.998
-1.0,-2.0,2.999
-1.0,-4.0,3.0
0.0,-8.0,3.001
-1.0,-6.0,3.002
1.0,-1.0,3.003
7.0,0.0,3.004
10.0,0.0,3.005
2.0,1.0,3.006
-2.0,1.0,3.007
3.0,0.0,3.008
8.0,0.0,3.009
5.0,0.0,3.01
0.0,-1.0,3.011
0.0,-3.0,3.012
4.0,-2.0,3.013
3.0,0.0,3.014
0.0,0.0,3.015
2.0,-3.0,3.016
6.0,-1.0,3.017
2.0,1.0,3.018
-2.0,0.0,3.019
-3.0,-4.0,3.02
0.0,-8.0,3.021
-1.0,-8.0,3.022
-2.0,-7.0,3.023
3.0,-7.0,3.024
9.0,-1.0,3.025
7.0,5.0,3.026
-2.0,7.0,3.027
-3.0,3.0,3.028
4.0,1.0,3.029
8.0,2.0,3.03
5.0,2.0,3.031
0.0,-3.0,3.032
1.0,-4.0,3.033
3.0,2.0,3.034
5.0,5.0,3.035
5.0,2.0,3.036
7.0,-2.0,3.037
5.0,-3.0,3.038
0.0,0.0,3.039
-5.0,0.0,3.04
-5.0,-4.0,3.041
0.0,-4.0,3.042
8.0,-1.0,3.043
12.0,3.0,3.044
7.0,5.0,3.045
0.0,5.0,3.046
-3.0,2.0,3.047
1.0,-2.0,3.048
5.0,-2.0,3.049
5.0,1.0,3.05
1.0,3.0,3.051
1.0,1.0,3.052
3.0,-1.0,3.053
3.0,-2.0,3.054
2.0,-1.0,3.055
2.0,0.0,3.056
5.0,1.0,3.057
1.0,0.0,3.058
0.0,-3.0,3.059
-3.0,-6.0,3.06
-4.0,-7.0,3.061
-3.0,-8.0,3.062
3.0,-4.0,3.063
10.0,0.0,3.064
8.0,1.0,3.065
6.0,4.0,3.066
4.0,2.0,3.067
2.0,1.0,3.068
0.0,1.0,3.069
-1.0,0.0,3.07
-1.0,0.0,3.071
-1.0,-1.0,3.072
0.0,-1.0,3.073
2.0,-2.0,3.074
5.0,-2.0,3.075
8.0,-2.0,3.076
7.0,-4.0,3.077
1.0,-5.0,3.078
0.0,-6.0,3.079
-3.0,-4.0,3.08
-4.0,-5.0,3.081
-3.0,-4.0,3.082
3.0,-2.0,3.083
9.0,-1.0,3.084
8.0,1.0,3.085
6.0,2.0,3.086
4.0,2.0,3.087
2.0,1.0,3.088
0.0,0.0,3.089
-1.0,-2.0,3.09
-1.0,-2.0,3.091
-1.0,-2.0,3.092
0.0,-1.0,3.093
2.0,1.0,3.094
5.0,2.0,3.095
8.0,3.0,3.096
7.0,2.0,3.097
6.0,-3.0,3.098
5.0,-4.0,3.099
0.0,-4.0,3.1
-7.0,-5.0,3.101
-9.0,-6.0,3.102
0.0,-3.0,3.103
8.0,0.0,3.104
8.0,3.0,3.105
0.0,4.0,3.106
-3.0,4.0,3.107
2.0,6.0,3.108
5.0,6.0,3.109
0.0,1.0,3.11
-2.0,-4.0,3.111
1.0,-3.0,3.112
7.0,1.0,3.113
5.0,4.0,3.114
0.0,1.0,3.115
0.0,-1.0,3.116
4.0,1.0,3.117
7.0,0.0,3.118
3.0,-1.0,3.119
-3.0,-4.0,3.12
-6.0,-4.0,3.121
-5.0,-5.0,3.122
0.0,-4.0,3.123
6.0,-2.0,3.124
8.0,0.0,3.125
1.0,2.0,3.126
-2.0,1.0,3.127
2.0,0.0,3.128
7.0,0.0,3.129
7.0,0.0,3.13
3.0,-2.0,3.131
3.0,-4.0,3.132
4.0,-5.0,3.133
1.0,-6.0,3.134
1.0,-4.0,3.135
5.0,-3.0,3.136
12.0,-4.0,3.137
3.0,0.0,3.138
2.0,-1.0,3.139
0.0,-4.0,3.14
-2.0,-4.0,3.141
-4.0,-5.0,3.142
0.0,-4.0,3.143
2.0,-2.0,3.144
5.0,0.0,3.145
7.0,2.0,3.146
3.0,1.0,3.147
2.0,0.0,3.148
2.0,0.0,3.149
2.0,0.0,3.15
1.0,-2.0,3.151
0.0,-4.0,3.152
1.0,-5.0,3.153
2.0,-6.0,3.154
6.0,-4.0,3.155
9.0,-3.0,3.156
9.0,-4.0,3.157
4.0,-3.0,3.158
1.0,0.0,3.159
-1.0,2.0,3.16
-3.0,-3.0,3.161
-5.0,-6.0,3.162
-1.0,-4.0,3.163
2.0,2.0,3.164
6.0,7.0,3.165
8.0,8.0,3.166
4.0,5.0,3.167
1.0,0.0,3.168
2.0,0.0,3.169
2.0,1.0,3.17
0.0,3.0,3.171
-1.0,2.0,3.172
0.0,0.0,3.173
3.0,0.0,3.174
7.0,1.0,3.175
10.0,0.0,3.176
10.0,-2.0,3.177
8.0,-6.0,3.178
4.0,-6.0,3.179
-2.0,-6.0,3.18
-5.0,-8.0,3.181
-7.0,-5.0,3.182
-2.0,0.0,3.183
5.0,1.0,3.184
6.0,-1.0,3.185
0.0,0.0,3.186
-3.0,2.0,3.187
1.0,3.0,3.188
6.0,2.0,3.189
4.0,3.0,3.19
0.0,6.0,3.191
2.0,4.0,3.192
7.0,-1.0,3.193
7.0,-4.0,3.194
2.0,-2.0,3.195
0.0,0.0,3.196
3.0,0.0,3.197
3.0,-3.0,3.198
0.0,-5.0,3.199
-3.0,-5.0,3.2
-4.0,-7.0,3.201
-4.0,-6.0,3.202
-1.0,-4.0,3.203
5.0,2.0,3.204
7.0,7.0,3.205
5.0,7.0,3.206
2.0,1.0,3.207
3.0,-3.0,3.208
6.0,-1.0,3.209
7.0,2.0,3.21
6.0,2.0,3.211
5.0,0.0,3.212
2.0,-1.0,3.213
-1.0,0.0,3.214
-1.0,0.0,3.215
3.0,-4.0,3.216
7.0,-5.0,3.217
6.0,-6.0,3.218
3.0,-6.0,3.219
1.0,-6.0,3.22
-2.0,-7.0,3.221
-4.0,-5.0,3.222
-1.0,-3.0,3.223
5.0,-2.0,3.224
8.0,0.0,3.225
3.0,4.0,3.226
0.0,6.0,3.227
1.0,5.0,3.228
2.0,1.0,3.229
0.0,0.0,3.23
-2.0,0.0,3.231
0.0,1.0,3.232
2.0,5.0,3.233
3.0,8.0,3.234
5.0,6.0,3.235
8.0,2.0,3.236
9.0,0.0,3.237
6.0,-1.0,3.238
1.0,-2.0,3.239
-2.0,-4.0,3.24
-4.0,-6.0,3.241
-3.0,-5.0,3.242
2.0,-4.0,3.243
7.0,-2.0,3.244
6.0,3.0,3.245
1.0,6.0,3.246
0.0,5.0,3.247
3.0,3.0,3.248
2.0,2.0,3.249
1.0,4.0,3.25
2.0,4.0,3.251
7.0,4.0,3.252
9.0,5.0,3.253
6.0,6.0,3.254
4.0,3.0,3.255
5.0,-2.0,3.256
5.0,-7.0,3.257
0.0,-7.0,3.258
-2.0,-6.0,3.259
-3.0,-7.0,3.26
-4.0,-11.0,3.261
-6.0,-11.0,3.262
-3.0,-9.0,3.263
4.0,-4.0,3.264
6.0,1.0,3.265
1.0,1.0,3.266
0.0,-1.0,3.267
6.0,-1.0,3.268
6.0,2.0,3.269
3.0,3.0,3.27
2.0,-1.0,3.271
8.0,-8.0,3.272
11.0,-9.0,3.273
6.0,-5.0,3.274
0.0,-3.0,3.275
0.0,-4.0,3.276
3.0,-4.0,3.277
2.0,-6.0,3.278
0.0,-7.0,3.279
-4.0,-9.0,3.28
-8.0,-10.0,3.281
-7.0,-6.0,3.282
-1.0,-2.0,3.283
3.0,2.0,3.284
-1.0,4.0,3.285
-4.0,2.0,3.286
3.0,-1.0,3.287
20.0,-2.0,3.288
25.0,0.0,3.289
13.0,4.0,3.29
-5.0,3.0,3.291
-13.0,0.0,3.292
-13.0,-2.0,3.293
-11.0,-1.0,3.294
-6.0,-1.0,3.295
6.0,-3.0,3.296
16.0,-1.0,3.297
15.0,-1.0,3.298
3.0,-3.0,3.299
-7.0,-4.0,3.3
-11.0,-5.0,3.301
-4.0,-2.0,3.302
18.0,1.0,3.303
47.0,2.0,3.304
53.0,4.0,3.305
28.0,9.0,3.306
-12.0,9.0,3.307
-35.0,4.0,3.308
-36.0,0.0,3.309
-30.0,1.0,3.31
-27.0,1.0,3.311
-18.0,0.0,3.312
-3.0,0.0,3.313
10.0,3.0,3.314
15.0,4.0,3.315
14.0,0.0,3.316
15.0,-2.0,3.317
17.0,-3.0,3.318
18.0,-2.0,3.319
12.0,-4.0,3.32
2.0,-8.0,3.321
0.0,-7.0,3.322
4.0,-3.0,3.323
9.0,-1.0,3.324
6.0,-2.0,3.325
0.0,-1.0,3.326
-2.0,0.0,3.327
1.0,0.0,3.328
2.0,0.0,3.329
1.0,2.0,3.33
1.0,4.0,3.331
3.0,2.0,3.332
3.0,-2.0,3.333
1.0,-3.0,3.334
1.0,-1.0,3.335
4.0,0.0,3.336
5.0,0.0,3.337
0.0,-2.0,3.338
-3.0,-3.0,3.339
-5.0,-4.0,3.34
-5.0,-8.0,3.341
-4.0,-7.0,3.342
2.0,-3.0,3.343
12.0,2.0,3.344
16.0,6.0,3.345
11.0,8.0,3.346
9.0,5.0,3.347
12.0,2.0,3.348
14.0,0.0,3.349
12.0,1.0,3.35
10.0,2.0,3.351
13.0,0.0,3.352
15.0,-3.0,3.353
12.0,-5.0,3.354
7.0,-4.0,3.355
7.0,-5.0,3.356
9.0,-5.0,3.357
3.0,-7.0,3.358
-6.0,-5.0,3.359
-12.0,0.0,3.36
-8.0,3.0,3.361
7.0,6.0,3.362
25.0,7.0,3.363
21.0,6.0,3.364
-10.0,6.0,3.365
-41.0,6.0,3.366
-41.0,2.0,3.367
-20.0,-6.0,3.368
-8.0,-12.0,3.369
-15.0,-15.0,3.37
-19.0,-14.0,3.371
-9.0,-13.0,3.372
5.0,-8.0,3.373
15.0,-6.0,3.374
30.0,-9.0,3.375
53.0,-15.0,3.376
72.0,-15.0,3.377
73.0,-10.0,3.378
47.0,-4.0,3.379
0.0,3.0,3.38
-46.0,7.0,3.381
-71.0,11.0,3.382
-72.0,12.0,3.383
-62.0,14.0,3.384
-60.0,19.0,3.385
-63.0,24.0,3.386
-50.0,18.0,3.387
-14.0,6.0,3.388
27.0,-4.0,3.389
40.0,-7.0,3.39
9.0,-7.0,3.391
-34.0,-11.0,3.392
-45.0,-15.0,3.393
-22.0,-16.0,3.394
-1.0,-12.0,3.395
1.0,-10.0,3.396
3.0,-7.0,3.397
18.0,-4.0,3.398
39.0,0.0,3.399
61.0,8.0,3.4
77.0,15.0,3.401
67.0,19.0,3.402
25.0,12.0,3.403
-17.0,1.0,3.404
-24.0,-6.0,3.405
-12.0,-1.0,3.406
-11.0,3.0,3.407
-8.0,3.0,3.408
19.0,3.0,3.409
46.0,7.0,3.41
36.0,12.0,3.411
7.0,9.0,3.412
3.0,-2.0,3.413
21.0,-8.0,3.414
31.0,-8.0,3.415
32.0,-4.0,3.416
41.0,0.0,3.417
46.0,-1.0,3.418
25.0,-7.0,3.419
-8.0,-11.0,3.42
-24.0,-13.0,3.421
-24.0,-11.0,3.422
-29.0,-12.0,3.423
-39.0,-18.0,3.424
-39.0,-22.0,3.425
-27.0,-21.0,3.426
-15.0,-23.0,3.427
-7.0,-29.0,3.428
-1.0,-29.0,3.429
0.0,-16.0,3.43
2.0,2.0,3.431
9.0,20.0,3.432
13.0,38.0,3.433
13.0,53.0,3.434
21.0,54.0,3.435
53.0,41.0,3.436
87.0,33.0,3.437
89.0,35.0,3.438
49.0,36.0,3.439
-7.0,27.0,3.44
-42.0,11.0,3.441
-51.0,5.0,3.442
-44.0,-1.0,3.443
-33.0,-18.0,3.444
-27.0,-43.0,3.445
-29.0,-61.0,3.446
-33.0,-66.0,3.447
-31.0,-54.0,3.448
-22.0,-27.0,3.449
-14.0,11.0,3.45
-6.0,43.0,3.451
5.0,57.0,3.452
17.0,51.0,3.453
26.0,30.0,3.454
27.0,2.0,3.455
23.0,-16.0,3.456
21.0,-24.0,3.457
26.0,-31.0,3.458
34.0,-46.0,3.459
32.0,-59.0,3.46
26.0,-59.0,3.461
24.0,-46.0,3.462
29.0,-34.0,3.463
27.0,-17.0,3.464
10.0,3.0,3.465
-8.0,17.0,3.466
-17.0,1.0,3.467
-20.0,-36.0,3.468
-26.0,-69.0,3.469
-36.0,-92.0,3.47
-37.0,-116.0,3.471
-29.0,-137.0,3.472
-22.0,-133.0,3.473
-15.0,-103.0,3.474
-10.0,-72.0,3.475
-6.0,-62.0,3.476
-5.0,-68.0,3.477
-3.0,-73.0,3.478
2.0,-43.0,3.479
4.0,44.0,3.48
0.0,175.0,3.481
-4.0,313.0,3.482
4.0,414.0,3.483
23.0,458.0,3.484
41.0,442.0,3.485
66.0,366.0,3.486
92.0,250.0,3.487
94.0,131.0,3.488
49.0,43.0,3.489
-20.0,-11.0,3.49
-66.0,-50.0,3.491
-70.0,-83.0,3.492
-59.0,-108.0,3.493
-52.0,-119.0,3.494
-39.0,-121.0,3.495
-14.0,-119.0,3.496
11.0,-120.0,3.497
23.0,-131.0,3.498
20.0,-140.0,3.499
6.0,-144.0,3.5
-3.0,-126.0,3.501
12.0,-102.0,3.502
49.0,-60.0,3.503
66.0,-28.0,3.504
32.0,-29.0,3.505
-24.0,-30.0,3.506
-52.0,-33.0,3.507
-50.0,-30.0,3.508
-50.0,-6.0,3.509
-56.0,16.0,3.51
-49.0,29.0,3.511
-32.0,41.0,3.512
-25.0,49.0,3.513
-25.0,54.0,3.514
-15.0,51.0,3.515
1.0,42.0,3.516
7.0,19.0,3.517
7.0,-5.0,3.518
15.0,-23.0,3.519
20.0,-28.0,3.52
18.0,-36.0,3.521
19.0,-57.0,3.522
35.0,-85.0,3.523
44.0,-111.0,3.524
30.0,-131.0,3.525
21.0,-140.0,3.526
27.0,-128.0,3.527
31.0,-97.0,3.528
26.0,-70.0,3.529
22.0,-60.0,3.53
22.0,-57.0,3.531
23.0,-41.0,3.532
23.0,-12.0,3.533
24.0,14.0,3.534
29.0,37.0,3.535
34.0,65.0,3.536
42.0,94.0,3.537
53.0,105.0,3.538
71.0,84.0,3.539
76.0,38.0,3.54
50.0,-21.0,3.541
5.0,-90.0,3.542
-26.0,-177.0,3.543
-33.0,-266.0,3.544
-41.0,-318.0,3.545
-59.0,-289.0,3.546
-64.0,-162.0,3.547
-40.0,37.0,3.548
-1.0,228.0,3.549
32.0,325.0,3.55
53.0,301.0,3.551
55.0,199.0,3.552
30.0,69.0,3.553
-7.0,-58.0,3.554
-15.0,-137.0,3.555
9.0,-101.0,3.556
22.0,63.0,3.557
-27.0,327.0,3.558
-109.0,599.0,3.559
-150.0,802.0,3.56
-113.0,896.0,3.561
-43.0,848.0,3.562
-10.0,632.0,3.563
-24.0,302.0,3.564
-42.0,-2.0,3.565
-32.0,-178.0,3.566
-7.0,-252.0,3.567
0.0,-310.0,3.568
-16.0,-375.0,3.569
-13.0,-403.0,3.57
78.0,-391.0,3.571
277.0,-394.0,3.572
479.0,-434.0,3.573
504.0,-473.0,3.574
291.0,-477.0,3.575
-17.0,-460.0,3.576
-219.0,-449.0,3.577
-309.0,-444.0,3.578
-378.0,-434.0,3.579
-457.0,-405.0,3.58
-464.0,-333.0,3.581
-365.0,-199.0,3.582
-208.0,-28.0,3.583
-29.0,138.0,3.584
149.0,286.0,3.585
218.0,406.0,3.586
88.0,463.0,3.587
-115.0,434.0,3.588
-167.0,380.0,3.589
-51.0,397.0,3.59
40.0,490.0,3.591
7.0,562.0,3.592
-41.0,522.0,3.593
-5.0,366.0,3.594
66.0,136.0,3.595
108.0,-129.0,3.596
133.0,-352.0,3.597
152.0,-449.0,3.598
134.0,-357.0,3.599
85.0,-145.0,3.6
63.0,54.0,3.601
84.0,186.0,3.602
97.0,258.0,3.603
85.0,248.0,3.604
89.0,122.0,3.605
116.0,-93.0,3.606
114.0,-311.0,3.607
67.0,-469.0,3.608
23.0,-516.0,3.609
21.0,-392.0,3.61
49.0,-86.0,3.611
76.0,280.0,3.612
93.0,535.0,3.613
108.0,605.0,3.614
128.0,540.0,3.615
145.0,393.0,3.616
150.0,207.0,3.617
125.0,8.0,3.618
73.0,-128.0,3.619
11.0,-182.0,3.62
-46.0,-197.0,3.621
-104.0,-190.0,3.622
-173.0,-157.0,3.623
-248.0,-121.0,3.624
-300.0,-132.0,3.625
-303.0,-192.0,3.626
-230.0,-260.0,3.627
-66.0,-346.0,3.628
162.0,-510.0,3.629
342.0,-743.0,3.63
327.0,-910.0,3.631
112.0,-870.0,3.632
-107.0,-614.0,3.633
-129.0,-254.0,3.634
-6.0,101.0,3.635
40.0,392.0,3.636
-58.0,591.0,3.637
-185.0,703.0,3.638
-206.0,733.0,3.639
-134.0,691.0,3.64
-40.0,599.0,3.641
42.0,500.0,3.642
48.0,419.0,3.643
-86.0,353.0,3.644
-266.0,283.0,3.645
-306.0,195.0,3.646
-174.0,89.0,3.647
-37.0,-51.0,3.648
-5.0,-228.0,3.649
8.0,-387.0,3.65
97.0,-452.0,3.651
219.0,-415.0,3.652
277.0,-354.0,3.653
249.0,-331.0,3.654
174.0,-335.0,3.655
84.0,-326.0,3.656
8.0,-297.0,3.657
-43.0,-245.0,3.658
-64.0,-132.0,3.659
-71.0,66.0,3.66
-76.0,311.0,3.661
-70.0,534.0,3.662
-44.0,667.0,3.663
7.0,668.0,3.664
61.0,525.0,3.665
67.0,299.0,3.666
8.0,92.0,3.667
-45.0,-37.0,3.668
-7.0,-116.0,3.669
98.0,-189.0,3.67
147.0,-262.0,3.671
85.0,-311.0,3.672
2.0,-318.0,3.673
-11.0,-253.0,3.674
17.0,-92.0,3.675
13.0,134.0,3.676
-16.0,331.0,3.677
-24.0,437.0,3.678
-9.0,418.0,3.679
-4.0,289.0,3.68
-6.0,99.0,3.681
9.0,-68.0,3.682
31.0,-162.0,3.683
20.0,-193.0,3.684
-17.0,-211.0,3.685
-35.0,-244.0,3.686
-24.0,-274.0,3.687
-13.0,-290.0,3.688
-16.0,-315.0,3.689
-28.0,-369.0,3.69
-43.0,-419.0,3.691
-54.0,-429.0,3.692
-43.0,-408.0,3.693
-13.0,-398.0,3.694
4.0,-386.0,3.695
17.0,-294.0,3.696
78.0,-98.0,3.697
198.0,156.0,3.698
274.0,328.0,3.699
210.0,322.0,3.7
66.0,193.0,3.701
-29.0,120.0,3.702
-44.0,249.0,3.703
-60.0,559.0,3.704
-122.0,864.0,3.705
-178.0,980.0,3.706
-172.0,849.0,3.707
-119.0,529.0,3.708
-69.0,128.0,3.709
-41.0,-225.0,3.71
-25.0,-403.0,3.711
-26.0,-380.0,3.712
-56.0,-263.0,3.713
-107.0,-190.0,3.714
-148.0,-207.0,3.715
-143.0,-282.0,3.716
-93.0,-377.0,3.717
-23.0,-459.0,3.718
33.0,-435.0,3.719
76.0,-245.0,3.72
133.0,44.0,3.721
215.0,303.0,3.722
282.0,462.0,3.723
284.0,539.0,3.724
235.0,547.0,3.725
187.0,476.0,3.726
148.0,346.0,3.727
78.0,206.0,3.728
-22.0,78.0,3.729
-77.0,-56.0,3.73
-32.0,-192.0,3.731
62.0,-292.0,3.732
96.0,-336.0,3.733
13.0,-334.0,3.734
-145.0,-305.0,3.735
-284.0,-261.0,3.736
-332.0,-219.0,3.737
-292.0,-181.0,3.738
-218.0,-133.0,3.739
-155.0,-61.0,3.74
-104.0,14.0,3.741
-46.0,58.0,3.742
21.0,39.0,3.743
77.0,-63.0,3.744
108.0,-237.0,3.745
106.0,-439.0,3.746
82.0,-614.0,3.747
61.0,-703.0,3.748
60.0,-643.0,3.749
61.0,-415.0,3.75
37.0,-98.0,3.751
14.0,183.0,3.752
55.0,367.0,3.753
183.0,467.0,3.754
323.0,485.0,3.755
357.0,411.0,3.756
241.0,293.0,3.757
0.0,210.0,3.758
-222.0,240.0,3.759
-304.0,403.0,3.76
-232.0,668.0,3.761
-111.0,967.0,3.762
-56.0,1168.0,3.763
-94.0,1182.0,3.764
-167.0,1034.0,3.765
-202.0,788.0,3.766
-177.0,464.0,3.767
-127.0,77.0,3.768
-87.0,-283.0,3.769
-67.0,-519.0,3.77
-57.0,-629.0,3.771
-51.0,-672.0,3.772
-36.0,-669.0,3.773
3.0,-607.0,3.774
56.0,-503.0,3.775
85.0,-392.0,3.776
102.0,-279.0,3.777
165.0,-165.0,3.778
273.0,-110.0,3.779
319.0,-185.0,3.78
246.0,-362.0,3.781
160.0,-527.0,3.782
163.0,-595.0,3.783
171.0,-546.0,3.784
57.0,-410.0,3.785
-105.0,-242.0,3.786
-127.0,-106.0,3.787
-18.0,-18.0,3.788
9.0,64.0,3.789
-129.0,167.0,3.79
-255.0,263.0,3.791
-187.0,320.0,3.792
9.0,325.0,3.793
142.0,237.0,3.794
160.0,17.0,3.795
150.0,-253.0,3.796
160.0,-401.0,3.797
138.0,-403.0,3.798
65.0,-398.0,3.799
1.0,-482.0,3.8
-21.0,-534.0,3.801
-67.0,-412.0,3.802
-160.0,-203.0,3.803
-210.0,-63.0,3.804
-160.0,47.0,3.805
-78.0,288.0,3.806
-23.0,662.0,3.807
62.0,986.0,3.808
213.0,1104.0,3.809
308.0,999.0,3.81
212.0,718.0,3.811
-3.0,349.0,3.812
-140.0,54.0,3.813
-130.0,-29.0,3.814
-90.0,86.0,3.815
-110.0,260.0,3.816
-135.0,382.0,3.817
-101.0,432.0,3.818
-50.0,390.0,3.819
-76.0,224.0,3.82
-145.0,-28.0,3.821
-138.0,-244.0,3.822
-34.0,-345.0,3.823
53.0,-372.0,3.824
59.0,-416.0,3.825
42.0,-525.0,3.826
56.0,-666.0,3.827
44.0,-739.0,3.828
-35.0,-628.0,3.829
-117.0,-300.0,3.83
-123.0,131.0,3.831
-69.0,468.0,3.832
-23.0,574.0,3.833
5.0,450.0,3.834
27.0,172.0,3.835
39.0,-167.0,3.836
51.0,-461.0,3.837
96.0,-680.0,3.838
170.0,-789.0,3.839
185.0,-789.0,3.84
99.0,-661.0,3.841
-12.0,-376.0,3.842
-50.0,-8.0,3.843
-17.0,250.0,3.844
35.0,239.0,3.845
89.0,5.0,3.846
130.0,-211.0,3.847
106.0,-200.0,3.848
8.0,64.0,3.849
-68.0,459.0,3.85
-24.0,849.0,3.851
81.0,1134.0,3.852
100.0,1211.0,3.853
-11.0,1021.0,3.854
-148.0,639.0,3.855
-189.0,247.0,3.856
-135.0,-10.0,3.857
-48.0,-169.0,3.858
19.0,-264.0,3.859
49.0,-245.0,3.86
39.0,-72.0,3.861
5.0,154.0,3.862
-15.0,245.0,3.863
2.0,137.0,3.864
20.0,-61.0,3.865
-11.0,-247.0,3.866
-71.0,-403.0,3.867
-88.0,-518.0,3.868
-18.0,-535.0,3.869
123.0,-456.0,3.87
265.0,-359.0,3.871
332.0,-291.0,3.872
292.0,-215.0,3.873
186.0,-108.0,3.874
68.0,0.0,3.875
-76.0,96.0,3.876
-266.0,188.0,3.877
-448.0,262.0,3.878
-448.0,270.0,3.879
-227.0,236.0,3.88
21.0,221.0,3.881
75.0,205.0,3.882
-52.0,76.0,3.883
-157.0,-206.0,3.884
-117.0,-551.0,3.885
-16.0,-809.0,3.886
14.0,-857.0,3.887
-32.0,-651.0,3.888
-61.0,-280.0,3.889
-21.0,68.0,3.89
60.0,285.0,3.891
123.0,404.0,3.892
142.0,477.0,3.893
137.0,481.0,3.894
159.0,399.0,3.895
223.0,301.0,3.896
268.0,253.0,3.897
218.0,241.0,3.898
93.0,250.0,3.899
0.0,303.0,3.9
-17.0,404.0,3.901
-35.0,480.0,3.902
-100.0,439.0,3.903
-139.0,293.0,3.904
-82.0,132.0,3.905
24.0,20.0,3.906
88.0,-60.0,3.907
73.0,-154.0,3.908
-29.0,-261.0,3.909
-197.0,-340.0,3.91
-326.0,-375.0,3.911
-297.0,-391.0,3.912
-130.0,-397.0,3.913
38.0,-361.0,3.914
121.0,-263.0,3.915
131.0,-145.0,3.916
97.0,-87.0,3.917
34.0,-151.0,3.918
18.0,-356.0,3.919
95.0,-668.0,3.92
183.0,-967.0,3.921
159.0,-1052.0,3.922
50.0,-783.0,3.923
-29.0,-217.0,3.924
-47.0,403.0,3.925
-43.0,835.0,3.926
-21.0,996.0,3.927
32.0,969.0,3.928
98.0,890.0,3.929
174.0,834.0,3.93
277.0,774.0,3.931
316.0,602.0,3.932
162.0,247.0,3.933
-111.0,-180.0,3.934
-241.0,-472.0,3.935
-145.0,-542.0,3.936
-36.0,-499.0,3.937
-97.0,-462.0,3.938
-260.0,-423.0,3.939
-359.0,-332.0,3.94
-368.0,-221.0,3.941
-357.0,-146.0,3.942
-318.0,-87.0,3.943
-198.0,6.0,3.944
-22.0,121.0,3.945
109.0,224.0,3.946
120.0,330.0,3.947
28.0,440.0,3.948
-69.0,479.0,3.949
-61.0,383.0,3.95
79.0,190.0,3.951
268.0,-21.0,3.952
387.0,-217.0,3.953
383.0,-353.0,3.954
289.0,-332.0,3.955
178.0,-133.0,3.956
121.0,99.0,3.957
122.0,223.0,3.958
137.0,212.0,3.959
90.0,160.0,3.96
-11.0,142.0,3.961
-82.0,149.0,3.962
-69.0,137.0,3.963
-8.0,72.0,3.964
28.0,-50.0,3.965
11.0,-189.0,3.966
-34.0,-281.0,3.967
-80.0,-304.0,3.968
-110.0,-277.0,3.969
-110.0,-218.0,3.97
-83.0,-147.0,3.971
-36.0,-109.0,3.972
33.0,-129.0,3.973
118.0,-146.0,3.974
160.0,-49.0,3.975
99.0,174.0,3.976
-14.0,377.0,3.977
-75.0,431.0,3.978
-43.0,326.0,3.979
-18.0,166.0,3.98
-75.0,32.0,3.981
-154.0,-61.0,3.982
-161.0,-127.0,3.983
-116.0,-166.0,3.984
-94.0,-210.0,3.985
-104.0,-298.0,3.986
-110.0,-423.0,3.987
-102.0,-530.0,3.988
-76.0,-568.0,3.989
-7.0,-469.0,3.99
93.0,-160.0,3.991
153.0,332.0,3.992
140.0,813.0,3.993
98.0,1068.0,3.994
56.0,1047.0,3.995
-10.0,826.0,3.996
-85.0,513.0,3.997
-104.0,166.0,3.998
-37.0,-91.0,3.999
44.0,-293.0,4.0
72.0,-326.0,4.001
57.0,-346.0,4.002
19.0,-328.0,4.003
-41.0,-293.0,4.004
-85.0,-205.0,4.005
-49.0,-139.0,4.006
61.0,-145.0,4.007
149.0,-152.0,4.008
132.0,-162.0,4.009
19.0,-173.0,4.01
-110.0,-183.0,4.011
-153.0,-177.0,4.012
-60.0,-119.0,4.013
89.0,-70.0,4.014
155.0,-47.0,4.015
106.0,-37.0,4.016
46.0,-72.0,4.017
45.0,-97.0,4.018
65.0,-68.0,4.019
75.0,-27.0,4.02
56.0,-1.0,4.021
42.0,23.0,4.022
42.0,49.0,4.023
32.0,59.0,4.024
-5.0,52.0,4.025
-19.0,52.0,4.026
37.0,61.0,4.027
75.0,64.0,4.028
57.0,67.0,4.029
14.0,96.0,4.03
-106.0,141.0,4.031
-184.0,149.0,4.032
-138.0,85.0,4.033
-94.0,-47.0,4.034
-54.0,-224.0,4.035
-21.0,-393.0,4.036
-13.0,-454.0,4.037
6.0,-308.0,4.038
19.0,39.0,4.039
-49.0,430.0,4.04
-119.0,676.0,4.041
-104.0,707.0,4.042
-28.0,571.0,4.043
57.0,379.0,4.044
165.0,250.0,4.045
282.0,231.0,4.046
309.0,234.0,4.047
204.0,125.0,4.048
68.0,-87.0,4.049
5.0,-227.0,4.05
-36.0,-153.0,4.051
-137.0,67.0,4.052
-252.0,254.0,4.053
-269.0,321.0,4.054
-185.0,308.0,4.055
-91.0,257.0,4.056
-40.0,159.0,4.057
-23.0,-17.0,4.058
-18.0,-221.0,4.059
-31.0,-374.0,4.06
-53.0,-439.0,4.061
-74.0,-428.0,4.062
-81.0,-372.0,4.063
-58.0,-306.0,4.064
1.0,-269.0,4.065
66.0,-284.0,4.066
105.0,-320.0,4.067
126.0,-321.0,4.068
144.0,-270.0,4.069
132.0,-200.0,4.07
61.0,-140.0,4.071
-24.0,-95.0,4.072
-48.0,-70.0,4.073
0.0,-71.0,4.074
56.0,-76.0,4.075
69.0,-47.0,4.076
47.0,15.0,4.077
8.0,81.0,4.078
-27.0,127.0,4.079
-34.0,161.0,4.08
0.0,168.0,4.081
49.0,113.0,4.082
79.0,8.0,4.083
90.0,-70.0,4.084
93.0,-82.0,4.085
65.0,-69.0,4.086
-6.0,-69.0,4.087
-69.0,-59.0,4.088
-52.0,-5.0,4.089
24.0,63.0,4.09
74.0,106.0,4.091
61.0,127.0,4.092
19.0,148.0,4.093
-20.0,166.0,4.094
-56.0,165.0,4.095
-85.0,137.0,4.096
-86.0,84.0,4.097
-59.0,-2.0,4.098
-16.0,-81.0,4.099
42.0,-107.0,4.1
110.0,-92.0,4.101
141.0,-92.0,4.102
96.0,-129.0,4.103
4.0,-148.0,4.104
-72.0,-110.0,4.105
-111.0,-60.0,4.106
-132.0,-65.0,4.107
-135.0,-128.0,4.108
-87.0,-222.0,4.109
7.0,-333.0,4.11
77.0,-429.0,4.111
68.0,-425.0,4.112
27.0,-255.0,4.113
55.0,62.0,4.114
164.0,463.0,4.115
250.0,879.0,4.116
225.0,1199.0,4.117
105.0,1334.0,4.118
-14.0,1237.0,4.119
-81.0,985.0,4.12
-120.0,667.0,4.121
-150.0,309.0,4.122
-139.0,-59.0,4.123
-73.0,-320.0,4.124
-10.0,-389.0,4.125
-33.0,-341.0,4.126
-153.0,-307.0,4.127
-265.0,-297.0,4.128
-257.0,-238.0,4.129
-150.0,-120.0,4.13
-71.0,-14.0,4.131
-76.0,38.0,4.132
-78.0,40.0,4.133
-1.0,-8.0,4.134
85.0,-112.0,4.135
78.0,-235.0,4.136
29.0,-321.0,4.137
60.0,-363.0,4.138
190.0,-357.0,4.139
303.0,-305.0,4.14
318.0,-234.0,4.141
270.0,-201.0,4.142
190.0,-237.0,4.143
52.0,-294.0,4.144
-132.0,-313.0,4.145
-263.0,-309.0,4.146
-268.0,-326.0,4.147
-192.0,-332.0,4.148
-127.0,-269.0,4.149
-100.0,-169.0,4.15
-80.0,-111.0,4.151
-55.0,-90.0,4.152
-41.0,-19.0,4.153
-40.0,119.0,4.154
-21.0,229.0,4.155
31.0,241.0,4.156
100.0,187.0,4.157
156.0,113.0,4.158
181.0,48.0,4.159
192.0,35.0,4.16
207.0,121.0,4.161
196.0,279.0,4.162
134.0,391.0,4.163
56.0,384.0,4.164
25.0,290.0,4.165
41.0,178.0,4.166
41.0,68.0,4.167
7.0,-29.0,4.168
-10.0,-124.0,4.169
9.0,-269.0,4.17
15.0,-478.0,4.171
-20.0,-606.0,4.172
-38.0,-440.0,4.173
24.0,52.0,4.174
148.0,643.0,4.175
229.0,1044.0,4.176
170.0,1125.0,4.177
-79.0,889.0,4.178
-399.0,448.0,4.179
-567.0,-9.0,4.18
-462.0,-292.0,4.181
-214.0,-346.0,4.182
-44.0,-282.0,4.183
-10.0,-232.0,4.184
-7.0,-224.0,4.185
21.0,-225.0,4.186
21.0,-217.0,4.187
-21.0,-213.0,4.188
-28.0,-205.0,4.189
39.0,-193.0,4.19
127.0,-202.0,4.191
193.0,-262.0,4.192
268.0,-364.0,4.193
359.0,-444.0,4.194
385.0,-407.0,4.195
269.0,-191.0,4.196
55.0,132.0,4.197
-159.0,436.0,4.198
-247.0,551.0,4.199
-212.0,449.0,4.2
-155.0,249.0,4.201
-141.0,76.0,4.202
-123.0,-33.0,4.203
-46.0,-88.0,4.204
43.0,-93.0,4.205
77.0,-78.0,4.206
82.0,-89.0,4.207
122.0,-133.0,4.208
160.0,-161.0,4.209
103.0,-134.0,4.21
-24.0,-45.0,4.211
-97.0,126.0,4.212
-68.0,379.0,4.213
-9.0,624.0,4.214
1.0,715.0,4.215
-35.0,609.0,4.216
-84.0,428.0,4.217
-114.0,273.0,4.218
-92.0,165.0,4.219
-23.0,58.0,4.22
28.0,-64.0,4.221
16.0,-185.0,4.222
-23.0,-290.0,4.223
-32.0,-355.0,4.224
-14.0,-348.0,4.225
0.0,-301.0,4.226
-4.0,-281.0,4.227
-28.0,-299.0,4.228
-47.0,-302.0,4.229
-20.0,-285.0,4.23
59.0,-295.0,4.231
121.0,-308.0,4.232
109.0,-221.0,4.233
55.0,-18.0,4.234
29.0,170.0,4.235
33.0,232.0,4.236
36.0,193.0,4.237
42.0,108.0,4.238
73.0,15.0,4.239
81.0,-57.0,4.24
26.0,-58.0,4.241
-38.0,9.0,4.242
-36.0,58.0,4.243
-6.0,31.0,4.244
-32.0,-30.0,4.245
-95.0,-68.0,4.246
-102.0,-102.0,4.247
-42.0,-170.0,4.248
-8.0,-250.0,4.249
-44.0,-303.0,4.25
-103.0,-333.0,4.251
-117.0,-340.0,4.252
-82.0,-278.0,4.253
-37.0,-115.0,4.254
-18.0,85.0,4.255
-15.0,218.0,4.256
1.0,250.0,4.257
41.0,230.0,4.258
76.0,210.0,4.259
84.0,177.0,4.26
89.0,99.0,4.261
112.0,-21.0,4.262
122.0,-134.0,4.263
79.0,-148.0,4.264
5.0,34.0,4.265
-36.0,412.0,4.266
-21.0,816.0,4.267
23.0,1006.0,4.268
65.0,878.0,4.269
93.0,561.0,4.27
104.0,254.0,4.271
95.0,48.0,4.272
64.0,-78.0,4.273
12.0,-153.0,4.274
-37.0,-190.0,4.275
-57.0,-220.0,4.276
-46.0,-262.0,4.277
-34.0,-291.0,4.278
-41.0,-270.0,4.279
-54.0,-227.0,4.28
-31.0,-209.0,4.281
28.0,-202.0,4.282
70.0,-169.0,4.283
44.0,-124.0,4.284
-36.0,-112.0,4.285
-95.0,-132.0,4.286
-69.0,-148.0,4.287
16.0,-149.0,4.288
82.0,-141.0,4.289
83.0,-114.0,4.29
39.0,-60.0,4.291
-13.0,-4.0,4.292
-44.0,34.0,4.293
-34.0,64.0,4.294
20.0,94.0,4.295
82.0,97.0,4.296
103.0,55.0,4.297
59.0,-13.0,4.298
-22.0,-63.0,4.299
-96.0,-87.0,4.3
-134.0,-105.0,4.301
-142.0,-110.0,4.302
-143.0,-95.0,4.303
-144.0,-69.0,4.304
-136.0,-49.0,4.305
-107.0,-32.0,4.306
-67.0,-8.0,4.307
-32.0,23.0,4.308
-11.0,52.0,4.309
2.0,80.0,4.31
17.0,109.0,4.311
32.0,133.0,4.312
50.0,153.0,4.313
70.0,166.0,4.314
88.0,161.0,4.315
96.0,133.0,4.316
92.0,96.0,4.317
79.0,60.0,4.318
63.0,35.0,4.319
50.0,6.0,4.32
40.0,-23.0,4.321
31.0,-36.0,4.322
16.0,-32.0,4.323
-10.0,-25.0,4.324
-33.0,-25.0,4.325
-32.0,-26.0,4.326
-8.0,-28.0,4.327
16.0,-34.0,4.328
18.0,-39.0,4.329
8.0,-36.0,4.33
6.0,-32.0,4.331
12.0,-34.0,4.332
15.0,-42.0,4.333
12.0,-46.0,4.334
11.0,-47.0,4.335
18.0,-54.0,4.336
23.0,-62.0,4.337
22.0,-62.0,4.338
23.0,-39.0,4.339
21.0,11.0,4.34
9.0,68.0,4.341
-9.0,104.0,4.342
-16.0,97.0,4.343
-9.0,60.0,4.344
1.0,25.0,4.345
7.0,2.0,4.346
9.0,-19.0,4.347
14.0,-34.0,4.348
18.0,-25.0,4.349
16.0,0.0,4.35
9.0,11.0,4.351
1.0,0.0,4.352
-7.0,-11.0,4.353
-18.0,-6.0,4.354
-23.0,-2.0,4.355
-23.0,-8.0,4.356
-18.0,-15.0,4.357
-12.0,-15.0,4.358
-11.0,-10.0,4.359
-10.0,-7.0,4.36
-8.0,-3.0,4.361
-6.0,7.0,4.362
-3.0,9.0,4.363
3.0,6.0,4.364
6.0,5.0,4.365
-1.0,12.0,4.366
-10.0,12.0,4.367
-12.0,0.0,4.368
-7.0,-7.0,4.369
-2.0,-7.0,4.37
1.0,-7.0,4.371
10.0,-6.0,4.372
16.0,-3.0,4.373
11.0,4.0,4.374
3.0,7.0,4.375
1.0,3.0,4.376
7.0,1.0,4.377
11.0,1.0,4.378
9.0,1.0,4.379
11.0,0.0,4.38
14.0,-4.0,4.381
16.0,-7.0,4.382
12.0,-6.0,4.383
3.0,7.0,4.384
-3.0,27.0,4.385
-6.0,32.0,4.386
-7.0,18.0,4.387
-6.0,5.0,4.388
-5.0,6.0,4.389
-7.0,8.0,4.39
-9.0,0.0,4.391
-8.0,-9.0,4.392
-6.0,-7.0,4.393
-2.0,-6.0,4.394
4.0,-12.0,4.395
8.0,-14.0,4.396
3.0,-7.0,4.397
-8.0,-5.0,4.398
-16.0,-12.0,4.399
-14.0,-12.0,4.4
-7.0,-3.0,4.401
-3.0,7.0,4.402
6.0,5.0,4.403
23.0,-4.0,4.404
34.0,-8.0,4.405
31.0,-8.0,4.406
18.0,-7.0,4.407
13.0,-3.0,4.408
18.0,0.0,4.409
24.0,3.0,4.41
20.0,2.0,4.411
12.0,1.0,4.412
3.0,0.0,4.413
-2.0,-2.0,4.414
-6.0,-3.0,4.415
-6.0,0.0,4.416
-5.0,1.0,4.417
-8.0,0.0,4.418
-16.0,2.0,4.419
-24.0,7.0,4.42
-24.0,4.0,4.421
-14.0,-1.0,4.422
-1.0,-4.0,4.423
4.0,-4.0,4.424
0.0,-3.0,4.425
-4.0,-2.0,4.426
-4.0,-3.0,4.427
0.0,-3.0,4.428
5.0,-3.0,4.429
6.0,-2.0,4.43
4.0,-1.0,4.431
2.0,-2.0,4.432
4.0,-2.0,4.433
12.0,10.0,4.434
22.0,26.0,4.435
31.0,28.0,4.436
45.0,10.0,4.437
63.0,-17.0,4.438
71.0,-28.0,4.439
51.0,-20.0,4.44
11.0,-11.0,4.441
-19.0,-5.0,4.442
-23.0,0.0,4.443
-18.0,5.0,4.444
-16.0,8.0,4.445
-13.0,3.0,4.446
-3.0,-1.0,4.447
11.0,-3.0,4.448
16.0,-7.0,4.449
1.0,-9.0,4.45
-32.0,-7.0,4.451
-70.0,-1.0,4.452
-85.0,5.0,4.453
-61.0,7.0,4.454
-15.0,5.0,4.455
18.0,3.0,4.456
22.0,2.0,4.457
13.0,-1.0,4.458
10.0,3.0,4.459
7.0,17.0,4.46
-15.0,33.0,4.461
-46.0,38.0,4.462
-60.0,25.0,4.463
-50.0,3.0,4.464
-34.0,-12.0,4.465
-25.0,-19.0,4.466
-19.0,-27.0,4.467
-3.0,-32.0,4.468
13.0,-31.0,4.469
19.0,-26.0,4.47
21.0,-20.0,4.471
35.0,-19.0,4.472
61.0,-14.0,4.473
86.0,-5.0,4.474
106.0,1.0,4.475
135.0,2.0,4.476
196.0,3.0,4.477
269.0,3.0,4.478
275.0,0.0,4.479
143.0,-3.0,4.48
-66.0,-5.0,4.481
-216.0,1.0,4.482
-234.0,10.0,4.483
-193.0,19.0,4.484
-180.0,27.0,4.485
-181.0,31.0,4.486
-153.0,27.0,4.487
-111.0,12.0,4.488
-95.0,1.0,4.489
-87.0,-3.0,4.49
-48.0,-3.0,4.491
12.0,-6.0,4.492
45.0,-8.0,4.493
48.0,-5.0,4.494
52.0,-5.0,4.495
70.0,-6.0,4.496
87.0,-7.0,4.497
98.0,-3.0,4.498
105.0,1.0,4.499
97.0,-1.0,4.5
70.0,-15.0,4.501
43.0,-25.0,4.502
37.0,-24.0,4.503
41.0,-13.0,4.504
33.0,-1.0,4.505
11.0,9.0,4.506
-16.0,13.0,4.507
-33.0,6.0,4.508
-36.0,-1.0,4.509
-21.0,0.0,4.51
-3.0,9.0,4.511
-2.0,14.0,4.512
-9.0,14.0,4.513
-2.0,16.0,4.514
29.0,21.0,4.515
66.0,20.0,4.516
87.0,11.0,4.517
80.0,-3.0,4.518
46.0,-11.0,4.519
-7.0,-15.0,4.52
-43.0,-19.0,4.521
-45.0,-19.0,4.522
-31.0,-16.0,4.523
-26.0,-15.0,4.524
-32.0,-18.0,4.525
-32.0,-22.0,4.526
-26.0,-27.0,4.527
-18.0,-27.0,4.528
1.0,-23.0,4.529
35.0,-15.0,4.53
61.0,-6.0,4.531
49.0,0.0,4.532
0.0,5.0,4.533
-62.0,8.0,4.534
-103.0,10.0,4.535
-104.0,8.0,4.536
-72.0,7.0,4.537
-22.0,4.0,4.538
31.0,4.0,4.539
77.0,5.0,4.54
86.0,4.0,4.541
33.0,7.0,4.542
-46.0,13.0,4.543
-76.0,20.0,4.544
-41.0,19.0,4.545
-8.0,11.0,4.546
-20.0,1.0,4.547
-37.0,1.0,4.548
-13.0,9.0,4.549
22.0,15.0,4.55
29.0,8.0,4.551
19.0,-3.0,4.552
27.0,-3.0,4.553
40.0,2.0,4.554
31.0,4.0,4.555
14.0,1.0,4.556
17.0,-1.0,4.557
33.0,0.0,4.558
32.0,0.0,4.559
20.0,-6.0,4.56
18.0,-15.0,4.561
26.0,-17.0,4.562
31.0,-10.0,4.563
33.0,-4.0,4.564
35.0,-2.0,4.565
31.0,-3.0,4.566
17.0,-5.0,4.567
5.0,-5.0,4.568
4.0,-1.0,4.569
5.0,7.0,4.57
-2.0,15.0,4.571
-9.0,13.0,4.572
-7.0,5.0,4.573
0.0,-3.0,4.574
7.0,-10.0,4.575
14.0,-14.0,4.576
12.0,-14.0,4.577
-4.0,-12.0,4.578
-18.0,-8.0,4.579
-13.0,-8.0,4.58
0.0,-12.0,4.581
-2.0,-15.0,4.582
-15.0,-11.0,4.583
-17.0,-6.0,4.584
-14.0,-4.0,4.585
-29.0,-1.0,4.586
-54.0,3.0,4.587
-60.0,9.0,4.588
-44.0,13.0,4.589
-33.0,12.0,4.59
-30.0,10.0,4.591
-22.0,10.0,4.592
-15.0,10.0,4.593
-17.0,0.0,4.594
-21.0,-14.0,4.595
-11.0,-15.0,4.596
6.0,2.0,4.597
11.0,20.0,4.598
10.0,24.0,4.599
14.0,15.0,4.6
20.0,5.0,4.601
20.0,2.0,4.602
26.0,-2.0,4.603
50.0,-8.0,4.604
78.0,-11.0,4.605
83.0,-9.0,4.606
58.0,-8.0,4.607
21.0,-7.0,4.608
-7.0,-3.0,4.609
-17.0,5.0,4.61
-12.0,6.0,4.611
-12.0,0.0,4.612
-19.0,-2.0,4.613
-29.0,1.0,4.614
-33.0,4.0,4.615
-29.0,0.0,4.616
-19.0,-6.0,4.617
-4.0,-10.0,4.618
13.0,-13.0,4.619
18.0,-13.0,4.62
12.0,-14.0,4.621
9.0,-5.0,4.622
20.0,7.0,4.623
30.0,11.0,4.624
30.0,3.0,4.625
25.0,-4.0,4.626
25.0,-7.0,4.627
32.0,-8.0,4.628
46.0,-9.0,4.629
72.0,-6.0,4.63
94.0,0.0,4.631
82.0,5.0,4.632
35.0,5.0,4.633
-8.0,2.0,4.634
-15.0,-4.0,4.635
-10.0,-7.0,4.636
-28.0,-4.0,4.637
-75.0,0.0,4.638
-108.0,-1.0,4.639
-104.0,-3.0,4.64
-77.0,-4.0,4.641
-50.0,-5.0,4.642
-33.0,-2.0,4.643
-35.0,1.0,4.644
-47.0,4.0,4.645
-43.0,9.0,4.646
-12.0,18.0,4.647
26.0,24.0,4.648
36.0,18.0,4.649
21.0,13.0,4.65
11.0,10.0,4.651
16.0,7.0,4.652
19.0,9.0,4.653
13.0,7.0,4.654
6.0,-11.0,4.655
10.0,-25.0,4.656
16.0,-20.0,4.657
-102.0,-14.0,4.658
-92.0,-14.0,4.659
-77.0,-24.0,4.66
-37.0,-29.0,4.661
-2.0,-22.0,4.662
23.0,-13.0,4.663
43.0,-8.0,4.664
43.0,-7.0,4.665
48.0,0.0,4.666
48.0,5.0,4.667
63.0,7.0,4.668
108.0,7.0,4.669
143.0,13.0,4.67
123.0,15.0,4.671
93.0,11.0,4.672
53.0,7.0,4.673
18.0,10.0,4.674
8.0,16.0,4.675
3.0,18.0,4.676
13.0,12.0,4.677
-2.0,0.0,4.678
0.0,-8.0,4.679
3.0,-9.0,4.68
11.0,-10.0,4.681
18.0,-6.0,4.682
23.0,0.0,4.683
27.0,8.0,4.684
27.0,20.0,4.685
28.0,27.0,4.686
28.0,23.0,4.687
31.0,11.0,4.688
40.0,2.0,4.689
47.0,-9.0,4.69
43.0,-25.0,4.691
37.0,-36.0,4.692
29.0,-29.0,4.693
22.0,-12.0,4.694
20.0,-6.0,4.695
19.0,-12.0,4.696
21.0,-15.0,4.697
26.0,-7.0,4.698
37.0,0.0,4.699
45.0,-3.0,4.7
49.0,-10.0,4.701
52.0,-8.0,4.702
57.0,-5.0,4.703
47.0,-7.0,4.704
6.0,-4.0,4.705
-41.0,9.0,4.706
-62.0,25.0,4.707
-59.0,26.0,4.708
-57.0,21.0,4.709
-64.0,14.0,4.71
-66.0,15.0,4.711
-64.0,16.0,4.712
-65.0,14.0,4.713
-64.0,9.0,4.714
-45.0,-3.0,4.715
-23.0,-16.0,4.716
-24.0,-19.0,4.717
-56.0,-15.0,4.718
-77.0,-12.0,4.719
-60.0,-18.0,4.72
-27.0,-25.0,4.721
-6.0,-18.0,4.722
8.0,0.0,4.723
36.0,18.0,4.724
75.0,23.0,4.725
105.0,18.0,4.726
110.0,11.0,4.727
90.0,5.0,4.728
51.0,-1.0,4.729
13.0,-4.0,4.73
-4.0,-3.0,4.731
-4.0,-2.0,4.732
-4.0,0.0,4.733
-15.0,0.0,4.734
-22.0,-3.0,4.735
-10.0,-7.0,4.736
10.0,-5.0,4.737
28.0,0.0,4.738
44.0,3.0,4.739
47.0,4.0,4.74
28.0,1.0,4.741
0.0,2.0,4.742
-11.0,-1.0,4.743
-2.0,-4.0,4.744
-2.0,-3.0,4.745
-23.0,1.0,4.746
-45.0,4.0,4.747
-45.0,-1.0,4.748
-26.0,-6.0,4.749
-1.0,-8.0,4.75
23.0,-7.0,4.751
31.0,-2.0,4.752
13.0,10.0,4.753
-17.0,24.0,4.754
-17.0,22.0,4.755
19.0,7.0,4.756
56.0,-5.0,4.757
69.0,-16.0,4.758
63.0,-27.0,4.759
44.0,-42.0,4.76
16.0,-54.0,4.761
-13.0,-42.0,4.762
-19.0,-19.0,4.763
6.0,-1.0,4.764
40.0,8.0,4.765
64.0,10.0,4.766
80.0,12.0,4.767
94.0,10.0,4.768
120.0,7.0,4.769
159.0,5.0,4.77
175.0,5.0,4.771
111.0,6.0,4.772
-34.0,8.0,4.773
-171.0,9.0,4.774
-237.0,10.0,4.775
-265.0,9.0,4.776
-302.0,10.0,4.777
-332.0,9.0,4.778
-296.0,9.0,4.779
-202.0,6.0,4.78
-89.0,1.0,4.781
18.0,1.0,4.782
87.0,6.0,4.783
78.0,13.0,4.784
25.0,22.0,4.785
10.0,32.0,4.786
45.0,35.0,4.787
58.0,20.0,4.788
30.0,-16.0,4.789
28.0,-58.0,4.79
77.0,-80.0,4.791
115.0,-70.0,4.792
112.0,-42.0,4.793
114.0,-23.0,4.794
141.0,-15.0,4.795
143.0,-10.0,4.796
93.0,0.0,4.797
51.0,9.0,4.798
124.0,13.0,4.799
283.0,17.0,4.8
333.0,17.0,4.801
114.0,17.0,4.802
-246.0,17.0,4.803
-449.0,15.0,4.804
-384.0,10.0,4.805
-240.0,4.0,4.806
-177.0,-1.0,4.807
-115.0,-6.0,4.808
38.0,-2.0,4.809
155.0,1.0,4.81
100.0,2.0,4.811
-20.0,4.0,4.812
-25.0,10.0,4.813
58.0,13.0,4.814
84.0,3.0,4.815
47.0,-9.0,4.816
44.0,-29.0,4.817
77.0,-41.0,4.818
86.0,-23.0,4.819
89.0,-2.0,4.82
70.0,1.0,4.821
41.0,0.0,4.822
-12.0,6.0,4.823
-44.0,17.0,4.824
-6.0,28.0,4.825
20.0,38.0,4.826
11.0,44.0,4.827
2.0,32.0,4.828
-5.0,8.0,4.829
-21.0,-7.0,4.83
-64.0,-6.0,4.831
-95.0,-8.0,4.832
-87.0,-21.0,4.833
-69.0,-28.0,4.834
-23.0,-21.0,4.835
16.0,-12.0,4.836
40.0,-7.0,4.837
61.0,-1.0,4.838
46.0,10.0,4.839
2.0,13.0,4.84
-20.0,3.0,4.841
4.0,-3.0,4.842
37.0,-3.0,4.843
43.0,0.0,4.844
40.0,2.0,4.845
47.0,5.0,4.846
46.0,9.0,4.847
25.0,4.0,4.848
0.0,-4.0,4.849
-12.0,-7.0,4.85
-18.0,-10.0,4.851
-26.0,-17.0,4.852
-31.0,-23.0,4.853
-26.0,-18.0,4.854
-18.0,-5.0,4.855
0.0,6.0,4.856
27.0,11.0,4.857
44.0,8.0,4.858
25.0,7.0,4.859
-13.0,7.0,4.86
-34.0,3.0,4.861
-29.0,-3.0,4.862
-22.0,-3.0,4.863
-20.0,3.0,4.864
-9.0,11.0,4.865
3.0,8.0,4.866
0.0,0.0,4.867
-11.0,-2.0,4.868
-7.0,0.0,4.869
7.0,-2.0,4.87
10.0,-8.0,4.871
0.0,-15.0,4.872
-5.0,-13.0,4.873
-4.0,-12.0,4.874
-4.0,-13.0,4.875
-2.0,-12.0,4.876
8.0,-5.0,4.877
16.0,3.0,4.878
17.0,11.0,4.879
16.0,25.0,4.88
18.0,36.0,4.881
21.0,37.0,4.882
25.0,20.0,4.883
37.0,-6.0,4.884
52.0,-27.0,4.885
44.0,-41.0,4.886
6.0,-53.0,4.887
-33.0,-53.0,4.888
-46.0,-37.0,4.889
-44.0,-13.0,4.89
-50.0,0.0,4.891
-62.0,0.0,4.892
-55.0,1.0,4.893
-7.0,10.0,4.894
81.0,13.0,4.895
172.0,10.0,4.896
214.0,7.0,4.897
196.0,3.0,4.898
170.0,1.0,4.899
124.0,-1.0,4.9
21.0,-2.0,4.901
-91.0,9.0,4.902
-229.0,19.0,4.903
-320.0,16.0,4.904
-269.0,4.0,4.905
-229.0,-4.0,4.906
-226.0,-1.0,4.907
-207.0,5.0,4.908
-140.0,7.0,4.909
-81.0,13.0,4.91
-47.0,23.0,4.911
-3.0,29.0,4.912
68.0,17.0,4.913
122.0,1.0,4.914
126.0,-3.0,4.915
123.0,0.0,4.916
100.0,-3.0,4.917
76.0,-13.0,4.918
49.0,-10.0,4.919
22.0,4.0,4.92
19.0,10.0,4.921
46.0,11.0,4.922
82.0,17.0,4.923
92.0,30.0,4.924
67.0,32.0,4.925
43.0,9.0,4.926
45.0,-28.0,4.927
57.0,-54.0,4.928
55.0,-54.0,4.929
48.0,-40.0,4.93
58.0,-31.0,4.931
70.0,-28.0,4.932
54.0,-17.0,4.933
22.0,7.0,4.934
12.0,29.0,4.935
22.0,27.0,4.936
24.0,12.0,4.937
10.0,6.0,4.938
7.0,17.0,4.939
12.0,28.0,4.94
-3.0,17.0,4.941
-31.0,-4.0,4.942
-42.0,-16.0,4.943
-32.0,-14.0,4.944
-25.0,-10.0,4.945
-33.0,-13.0,4.946
-29.0,-16.0,4.947
-6.0,-11.0,4.948
8.0,-5.0,4.949
-1.0,-1.0,4.95
-13.0,3.0,4.951
-2.0,4.0,4.952
29.0,-4.0,4.953
59.0,-19.0,4.954
66.0,-33.0,4.955
25.0,-35.0,4.956
-50.0,-30.0,4.957
-118.0,-30.0,4.958
-124.0,-27.0,4.959
-75.0,-17.0,4.96
-22.0,12.0,4.961
44.0,41.0,4.962
177.0,70.0,4.963
336.0,90.0,4.964
352.0,83.0,4.965
140.0,73.0,4.966
-144.0,53.0,4.967
-271.0,26.0,4.968
-226.0,-19.0,4.969
-180.0,-59.0,4.97
-219.0,-81.0,4.971
-253.0,-93.0,4.972
-204.0,-74.0,4.973
-126.0,-54.0,4.974
-81.0,-30.0,4.975
-49.0,-11.0,4.976
-7.0,-13.0,4.977
25.0,-13.0,4.978
53.0,-1.0,4.979
94.0,16.0,4.98
178.0,22.0,4.981
235.0,22.0,4.982
210.0,24.0,4.983
152.0,25.0,4.984
-5.0,23.0,4.985
-136.0,19.0,4.986
-184.0,16.0,4.987
-176.0,13.0,4.988
-1.0,7.0,4.989
125.0,2.0,4.99
104.0,3.0,4.991
69.0,16.0,4.992
-4.0,34.0,4.993
-50.0,38.0,4.994
-10.0,22.0,4.995
23.0,1.0,4.996
33.0,-7.0,4.997
36.0,-9.0,4.998
25.0,-18.0,4.999
43.0,-25.0,5.0
62.0,-15.0,5.001
57.0,7.0,5.002
45.0,19.0,5.003
39.0,10.0,5.004
31.0,0.0,5.005
17.0,-3.0,5.006
17.0,-1.0,5.007
25.0,-2.0,5.008
21.0,-10.0,5.009
2.0,-19.0,5.01
-5.0,-22.0,5.011
5.0,-19.0,5.012
17.0,-11.0,5.013
16.0,-6.0,5.014
12.0,2.0,5.015
6.0,17.0,5.016
-4.0,25.0,5.017
-22.0,6.0,5.018
-35.0,-21.0,5.019
-32.0,-26.0,5.02
-12.0,3.0,5.021
23.0,40.0,5.022
52.0,50.0,5.023
48.0,38.0,5.024
2.0,21.0,5.025
-48.0,-4.0,5.026
-68.0,-36.0,5.027
-61.0,-61.0,5.028
-55.0,-60.0,5.029
-57.0,-43.0,5.03
-48.0,-33.0,5.031
-27.0,-32.0,5.032
-5.0,-24.0,5.033
28.0,-13.0,5.034
97.0,-17.0,5.035
175.0,-29.0,5.036
190.0,-26.0,5.037
93.0,-9.0,5.038
-45.0,6.0,5.039
-95.0,10.0,5.04
-16.0,16.0,5.041
66.0,37.0,5.042
19.0,55.0,5.043
-131.0,56.0,5.044
-242.0,42.0,5.045
-237.0,20.0,5.046
-173.0,-6.0,5.047
-125.0,-26.0,5.048
-103.0,-29.0,5.049
-77.0,-11.0,5.05
-41.0,7.0,5.051
-6.0,10.0,5.052
28.0,2.0,5.053
55.0,-4.0,5.054
72.0,-6.0,5.055
85.0,-4.0,5.056
91.0,0.0,5.057
70.0,2.0,5.058
36.0,5.0,5.059
44.0,2.0,5.06
116.0,-1.0,5.061
177.0,0.0,5.062
151.0,5.0,5.063
68.0,11.0,5.064
14.0,12.0,5.065
6.0,11.0,5.066
1.0,7.0,5.067
-14.0,1.0,5.068
-17.0,-1.0,5.069
-9.0,1.0,5.07
-14.0,0.0,5.071
-25.0,-5.0,5.072
-21.0,-7.0,5.073
-8.0,0.0,5.074
-5.0,14.0,5.075
-9.0,23.0,5.076
-1.0,21.0,5.077
16.0,9.0,5.078
25.0,-3.0,5.079
21.0,-5.0,5.08
12.0,0.0,5.081
20.0,12.0,5.082
56.0,20.0,5.083
107.0,19.0,5.084
125.0,5.0,5.085
75.0,-23.0,5.086
-16.0,-59.0,5.087
-75.0,-77.0,5.088
-78.0,-62.0,5.089
-67.0,-36.0,5.09
-78.0,-27.0,5.091
-93.0,-31.0,5.092
-80.0,-19.0,5.093
-46.0,16.0,5.094
-13.0,33.0,5.095
44.0,15.0,5.096
143.0,-6.0,5.097
250.0,0.0,5.098
251.0,23.0,5.099
109.0,26.0,5.1
-74.0,4.0,5.101
-170.0,-8.0,5.102
-176.0,-5.0,5.103
-179.0,-2.0,5.104
-209.0,-2.0,5.105
-212.0,6.0,5.106
-155.0,16.0,5.107
-81.0,14.0,5.108
-43.0,-1.0,5.109
-31.0,-8.0,5.11
-9.0,-2.0,5.111
29.0,4.0,5.112
75.0,9.0,5.113
147.0,15.0,5.114
242.0,18.0,5.115
293.0,9.0,5.116
230.0,-2.0,5.117
63.0,-5.0,5.118
-77.0,0.0,5.119
-103.0,1.0,5.12
-66.0,0.0,5.121
-58.0,9.0,5.122
-81.0,23.0,5.123
-73.0,28.0,5.124
-30.0,24.0,5.125
-8.0,17.0,5.126
-20.0,9.0,5.127
-25.0,-11.0,5.128
-10.0,-33.0,5.129
9.0,-42.0,5.13
21.0,-33.0,5.131
35.0,-19.0,5.132
42.0,-7.0,5.133
23.0,7.0,5.134
-2.0,21.0,5.135
0.0,25.0,5.136
25.0,19.0,5.137
41.0,9.0,5.138
37.0,0.0,5.139
33.0,-15.0,5.14
44.0,-37.0,5.141
55.0,-45.0,5.142
51.0,-27.0,5.143
27.0,-3.0,5.144
5.0,3.0,5.145
8.0,-7.0,5.146
34.0,-12.0,5.147
44.0,-6.0,5.148
16.0,3.0,5.149
3.0,5.0,5.15
68.0,3.0,5.151
174.0,5.0,5.152
191.0,6.0,5.153
53.0,2.0,5.154
-140.0,0.0,5.155
-237.0,4.0,5.156
-212.0,9.0,5.157
-151.0,4.0,5.158
-91.0,-4.0,5.159
-63.0,-5.0,5.16
-41.0,-4.0,5.161
-27.0,-1.0,5.162
-32.0,3.0,5.163
-46.0,12.0,5.164
-55.0,23.0,5.165
-48.0,24.0,5.166
-24.0,6.0,5.167
5.0,-17.0,5.168
22.0,-25.0,5.169
25.0,-10.0,5.17
27.0,4.0,5.171
37.0,4.0,5.172
41.0,-2.0,5.173
35.0,-4.0,5.174
33.0,-3.0,5.175
38.0,-4.0,5.176
39.0,-7.0,5.177
18.0,-10.0,5.178
-13.0,-15.0,5.179
-45.0,-16.0,5.18
-67.0,-10.0,5.181
-57.0,4.0,5.182
-1.0,7.0,5.183
73.0,0.0,5.184
117.0,3.0,5.185
111.0,21.0,5.186
87.0,33.0,5.187
61.0,25.0,5.188
28.0,10.0,5.189
-14.0,3.0,5.19
-42.0,2.0,5.191
-41.0,-2.0,5.192
-13.0,-10.0,5.193
24.0,-21.0,5.194
53.0,-36.0,5.195
61.0,-46.0,5.196
46.0,-36.0,5.197
13.0,-13.0,5.198
-15.0,3.0,5.199
-28.0,4.0,5.2
-28.0,-4.0,5.201
-14.0,-5.0,5.202
23.0,-6.0,5.203
75.0,-7.0,5.204
101.0,-2.0,5.205
51.0,11.0,5.206
-64.0,20.0,5.207
-147.0,17.0,5.208
-129.0,15.0,5.209
-61.0,19.0,5.21
-46.0,22.0,5.211
-84.0,20.0,5.212
-87.0,24.0,5.213
-30.0,29.0,5.214
23.0,21.0,5.215
45.0,0.0,5.216
78.0,-18.0,5.217
133.0,-29.0,5.218
151.0,-36.0,5.219
106.0,-42.0,5.22
60.0,-40.0,5.221
44.0,-23.0,5.222
-1.0,-2.0,5.223
-114.0,11.0,5.224
-206.0,21.0,5.225
-184.0,31.0,5.226
-73.0,34.0,5.227
32.0,29.0,5.228
87.0,22.0,5.229
102.0,12.0,5.23
88.0,-3.0,5.231
49.0,-18.0,5.232
16.0,-26.0,5.233
14.0,-27.0,5.234
12.0,-25.0,5.235
-24.0,-20.0,5.236
-74.0,-9.0,5.237
-107.0,1.0,5.238
-106.0,8.0,5.239
-89.0,13.0,5.24
-70.0,20.0,5.241
-41.0,25.0,5.242
-4.0,17.0,5.243
35.0,1.0,5.244
68.0,-8.0,5.245
85.0,-8.0,5.246
84.0,-12.0,5.247
73.0,-23.0,5.248
61.0,-35.0,5.249
45.0,-34.0,5.25
14.0,-21.0,5.251
-20.0,-10.0,5.252
-35.0,-9.0,5.253
-17.0,-13.0,5.254
29.0,-9.0,5.255
103.0,0.0,5.256
196.0,5.0,5.257
278.0,6.0,5.258
260.0,10.0,5.259
92.0,18.0,5.26
-131.0,23.0,5.261
-242.0,24.0,5.262
-190.0,24.0,5.263
-117.0,24.0,5.264
-144.0,22.0,5.265
-203.0,11.0,5.266
-167.0,-7.0,5.267
-57.0,-22.0,5.268
-4.0,-25.0,5.269
-33.0,-22.0,5.27
-46.0,-26.0,5.271
8.0,-32.0,5.272
70.0,-25.0,5.273
89.0,0.0,5.274
89.0,17.0,5.275
110.0,12.0,5.276
144.0,2.0,5.277
172.0,0.0,5.278
165.0,2.0,5.279
98.0,-3.0,5.28
-6.0,-14.0,5.281
-79.0,-11.0,5.282
-86.0,0.0,5.283
-70.0,12.0,5.284
-75.0,27.0,5.285
-73.0,40.0,5.286
-44.0,41.0,5.287
-29.0,23.0,5.288
-55.0,1.0,5.289
-67.0,-11.0,5.29
-24.0,-16.0,5.291
30.0,-21.0,5.292
39.0,-23.0,5.293
24.0,-15.0,5.294
25.0,0.0,5.295
36.0,10.0,5.296
40.0,12.0,5.297
41.0,10.0,5.298
35.0,12.0,5.299
6.0,15.0,5.3
-21.0,13.0,5.301
-6.0,11.0,5.302
25.0,6.0,5.303
7.0,-2.0,5.304
-44.0,-13.0,5.305
-51.0,-24.0,5.306
-9.0,-27.0,5.307
1.0,-22.0,5.308
-39.0,-17.0,5.309
-27.0,-16.0,5.31
91.0,-18.0,5.311
213.0,-15.0,5.312
192.0,-5.0,5.313
33.0,4.0,5.314
-112.0,10.0,5.315
-132.0,13.0,5.316
-82.0,19.0,5.317
-60.0,20.0,5.318
-76.0,15.0,5.319
-50.0,10.0,5.32
24.0,8.0,5.321
58.0,8.0,5.322
6.0,0.0,5.323
-52.0,-14.0,5.324
-49.0,-24.0,5.325
-23.0,-26.0,5.326
-28.0,-27.0,5.327
-42.0,-27.0,5.328
-18.0,-19.0,5.329
24.0,-5.0,5.33
39.0,8.0,5.331
27.0,10.0,5.332
21.0,8.0,5.333
41.0,4.0,5.334
95.0,2.0,5.335
159.0,3.0,5.336
182.0,9.0,5.337
124.0,13.0,5.338
18.0,16.0,5.339
-61.0,20.0,5.34
-86.0,24.0,5.341
-80.0,29.0,5.342
-59.0,20.0,5.343
-16.0,-7.0,5.344
51.0,-38.0,5.345
127.0,-61.0,5.346
166.0,-68.0,5.347
117.0,-58.0,5.348
-24.0,-31.0,5.349
-161.0,4.0,5.35
-182.0,35.0,5.351
-103.0,56.0,5.352
-34.0,66.0,5.353
-27.0,63.0,5.354
-35.0,38.0,5.355
-11.0,3.0,5.356
39.0,-16.0,5.357
120.0,-25.0,5.358
208.0,-33.0,5.359
203.0,-52.0,5.36
28.0,-77.0,5.361
-211.0,-88.0,5.362
-309.0,-89.0,5.363
-227.0,-92.0,5.364
-125.0,-92.0,5.365
-106.0,-63.0,5.366
-103.0,10.0,5.367
-42.0,106.0,5.368
39.0,179.0,5.369
93.0,196.0,5.37
151.0,169.0,5.371
232.0,128.0,5.372
281.0,83.0,5.373
230.0,35.0,5.374
74.0,-4.0,5.375
-104.0,-22.0,5.376
-202.0,-26.0,5.377
-184.0,-38.0,5.378
-99.0,-54.0,5.379
-47.0,-53.0,5.38
-46.0,-37.0,5.381
-31.0,-27.0,5.382
8.0,-33.0,5.383
7.0,-43.0,5.384
-46.0,-46.0,5.385
-67.0,-45.0,5.386
-6.0,-38.0,5.387
97.0,-15.0,5.388
187.0,11.0,5.389
226.0,25.0,5.39
167.0,19.0,5.391
12.0,3.0,5.392
-118.0,-12.0,5.393
-112.0,-31.0,5.394
-21.0,-52.0,5.395
13.0,-70.0,5.396
-18.0,-79.0,5.397
-23.0,-73.0,5.398
19.0,-45.0,5.399
22.0,-1.0,5.4
-40.0,40.0,5.401
-85.0,75.0,5.402
-50.0,100.0,5.403
42.0,111.0,5.404
140.0,99.0,5.405
173.0,69.0,5.406
79.0,40.0,5.407
-106.0,23.0,5.408
-232.0,12.0,5.409
-190.0,3.0,5.41
-59.0,-5.0,5.411
39.0,-10.0,5.412
95.0,-14.0,5.413
141.0,-12.0,5.414
131.0,-8.0,5.415
36.0,-12.0,5.416
-48.0,-32.0,5.417
-38.0,-65.0,5.418
19.0,-90.0,5.419
20.0,-95.0,5.42
-15.0,-86.0,5.421
-5.0,-68.0,5.422
26.0,-48.0,5.423
5.0,-32.0,5.424
-43.0,-13.0,5.425
-35.0,19.0,5.426
21.0,59.0,5.427
51.0,80.0,5.428
52.0,66.0,5.429
81.0,36.0,5.43
133.0,18.0,5.431
136.0,17.0,5.432
67.0,14.0,5.433
-17.0,-4.0,5.434
-80.0,-31.0,5.435
-118.0,-45.0,5.436
-129.0,-36.0,5.437
-91.0,-8.0,5.438
5.0,22.0,5.439
134.0,30.0,5.44
245.0,7.0,5.441
283.0,-13.0,5.442
248.0,0.0,5.443
192.0,46.0,5.444
134.0,93.0,5.445
-18.0,115.0,5.446
-307.0,109.0,5.447
-565.0,84.0,5.448
-581.0,39.0,5.449
-409.0,-19.0,5.45
-295.0,-69.0,5.451
-301.0,-81.0,5.452
-247.0,-55.0,5.453
-59.0,-25.0,5.454
94.0,-17.0,5.455
92.0,-21.0,5.456
42.0,-15.0,5.457
68.0,0.0,5.458
124.0,9.0,5.459
113.0,2.0,5.46
70.0,-6.0,5.461
70.0,-3.0,5.462
106.0,5.0,5.463
130.0,7.0,5.464
158.0,3.0,5.465
204.0,2.0,5.466
213.0,2.0,5.467
157.0,3.0,5.468
99.0,5.0,5.469
111.0,10.0,5.47
154.0,10.0,5.471
147.0,2.0,5.472
78.0,-18.0,5.473
-2.0,-51.0,5.474
-49.0,-86.0,5.475
-61.0,-102.0,5.476
-58.0,-85.0,5.477
-55.0,-51.0,5.478
-45.0,-24.0,5.479
-10.0,-19.0,5.48
57.0,-22.0,5.481
117.0,-14.0,5.482
110.0,-4.0,5.483
30.0,-4.0,5.484
-66.0,-7.0,5.485
-101.0,0.0,5.486
-64.0,13.0,5.487
-7.0,25.0,5.488
20.0,35.0,5.489
0.0,47.0,5.49
-53.0,55.0,5.491
-112.0,51.0,5.492
-145.0,41.0,5.493
-144.0,33.0,5.494
-130.0,26.0,5.495
-116.0,12.0,5.496
-93.0,-4.0,5.497
-55.0,-20.0,5.498
-18.0,-21.0,5.499
-3.0,-3.0,5.5
5.0,17.0,5.501
36.0,25.0,5.502
84.0,15.0,5.503
131.0,0.0,5.504
168.0,-5.0,5.505
183.0,-10.0,5.506
153.0,-23.0,5.507
82.0,-35.0,5.508
38.0,-32.0,5.509
78.0,-21.0,5.51
127.0,-17.0,5.511
54.0,-24.0,5.512
-122.0,-28.0,5.513
-225.0,-25.0,5.514
-156.0,-13.0,5.515
-50.0,12.0,5.516
-75.0,49.0,5.517
-216.0,90.0,5.518
-287.0,112.0,5.519
-202.0,103.0,5.52
-69.0,70.0,5.521
-16.0,33.0,5.522
-28.0,3.0,5.523
-27.0,-15.0,5.524
-1.0,-20.0,5.525
18.0,-15.0,5.526
28.0,-8.0,5.527
52.0,0.0,5.528
88.0,7.0,5.529
117.0,4.0,5.53
147.0,-8.0,5.531
207.0,-16.0,5.532
282.0,-7.0,5.533
297.0,5.0,5.534
190.0,-2.0,5.535
4.0,-27.0,5.536
-129.0,-45.0,5.537
-152.0,-47.0,5.538
-103.0,-50.0,5.539
-55.0,-63.0,5.54
-16.0,-74.0,5.541
37.0,-63.0,5.542
74.0,-40.0,5.543
42.0,-25.0,5.544
-23.0,-19.0,5.545
-43.0,-15.0,5.546
-21.0,-14.0,5.547
-25.0,-21.0,5.548
-64.0,-24.0,5.549
-73.0,-17.0,5.55
-22.0,-1.0,5.551
37.0,12.0,5.552
65.0,23.0,5.553
80.0,34.0,5.554
84.0,43.0,5.555
35.0,45.0,5.556
-55.0,40.0,5.557
-122.0,27.0,5.558
-103.0,2.0,5.559
-38.0,-37.0,5.56
-2.0,-94.0,5.561
19.0,-142.0,5.562
113.0,-143.0,5.563
283.0,-76.0,5.564
381.0,37.0,5.565
256.0,132.0,5.566
-32.0,165.0,5.567
-240.0,140.0,5.568
-231.0,88.0,5.569
-132.0,26.0,5.57
-124.0,-36.0,5.571
-180.0,-76.0,5.572
-153.0,-76.0,5.573
-42.0,-53.0,5.574
18.0,-31.0,5.575
-4.0,-15.0,5.576
-6.0,10.0,5.577
35.0,48.0,5.578
15.0,85.0,5.579
-108.0,109.0,5.58
-207.0,116.0,5.581
-179.0,109.0,5.582
-89.0,89.0,5.583
-43.0,67.0,5.584
-27.0,57.0,5.585
29.0,56.0,5.586
109.0,42.0,5.587
142.0,10.0,5.588
119.0,-20.0,5.589
81.0,-28.0,5.59
62.0,-18.0,5.591
54.0,-14.0,5.592
46.0,-30.0,5.593
36.0,-54.0,5.594
28.0,-72.0,5.595
35.0,-74.0,5.596
64.0,-65.0,5.597
107.0,-57.0,5.598
148.0,-53.0,5.599
167.0,-51.0,5.6
156.0,-45.0,5.601
111.0,-35.0,5.602
53.0,-31.0,5.603
4.0,-32.0,5.604
-40.0,-27.0,5.605
-89.0,-17.0,5.606
-128.0,-8.0,5.607
-122.0,-9.0,5.608
-79.0,-13.0,5.609
-48.0,-14.0,5.61
-50.0,-12.0,5.611
-53.0,-7.0,5.612
-33.0,0.0,5.613
-12.0,10.0,5.614
-15.0,13.0,5.615
-23.0,7.0,5.616
-9.0,2.0,5.617
18.0,3.0,5.618
26.0,10.0,5.619
20.0,13.0,5.62
51.0,9.0,5.621
133.0,8.0,5.622
196.0,13.0,5.623
146.0,15.0,5.624
-9.0,12.0,5.625
-148.0,8.0,5.626
-161.0,-1.0,5.627
-79.0,-14.0,5.628
-6.0,-30.0,5.629
6.0,-39.0,5.63
-11.0,-31.0,5.631
-29.0,-14.0,5.632
-46.0,0.0,5.633
-48.0,7.0,5.634
-16.0,13.0,5.635
29.0,25.0,5.636
49.0,41.0,5.637
41.0,58.0,5.638
38.0,70.0,5.639
28.0,71.0,5.64
-25.0,51.0,5.641
-107.0,28.0,5.642
-150.0,12.0,5.643
-125.0,5.0,5.644
-85.0,-7.0,5.645
-70.0,-28.0,5.646
-49.0,-46.0,5.647
16.0,-52.0,5.648
110.0,-48.0,5.649
185.0,-40.0,5.65
217.0,-28.0,5.651
196.0,-15.0,5.652
116.0,-5.0,5.653
4.0,-4.0,5.654
-67.0,-8.0,5.655
-57.0,-7.0,5.656
-7.0,0.0,5.657
29.0,8.0,5.658
34.0,14.0,5.659
13.0,21.0,5.66
-37.0,30.0,5.661
-130.0,43.0,5.662
-220.0,49.0,5.663
-233.0,40.0,5.664
-141.0,16.0,5.665
-4.0,-10.0,5.666
89.0,-28.0,5.667
101.0,-30.0,5.668
57.0,-21.0,5.669
12.0,-10.0,5.67
-2.0,-10.0,5.671
5.0,-23.0,5.672
7.0,-39.0,5.673
5.0,-49.0,5.674
36.0,-49.0,5.675
118.0,-46.0,5.676
209.0,-39.0,5.677
242.0,-29.0,5.678
181.0,-18.0,5.679
50.0,-10.0,5.68
-65.0,-4.0,5.681
-113.0,8.0,5.682
-113.0,23.0,5.683
-105.0,37.0,5.684
-83.0,52.0,5.685
-7.0,67.0,5.686
89.0,71.0,5.687
106.0,60.0,5.688
7.0,39.0,5.689
-110.0,15.0,5.69
-137.0,-9.0,5.691
-92.0,-35.0,5.692
-78.0,-57.0,5.693
-105.0,-63.0,5.694
-88.0,-48.0,5.695
-4.0,-22.0,5.696
74.0,0.0,5.697
99.0,3.0,5.698
103.0,-4.0,5.699
118.0,-3.0,5.7
126.0,11.0,5.701
110.0,28.0,5.702
98.0,28.0,5.703
95.0,17.0,5.704
55.0,11.0,5.705
-37.0,9.0,5.706
-122.0,0.0,5.707
-153.0,-9.0,5.708
-142.0,-8.0,5.709
-111.0,2.0,5.71
-55.0,6.0,5.711
10.0,0.0,5.712
43.0,-3.0,5.713
42.0,-1.0,5.714
53.0,-2.0,5.715
70.0,-12.0,5.716
32.0,-20.0,5.717
-74.0,-17.0,5.718
-151.0,-2.0,5.719
-120.0,15.0,5.72
-32.0,20.0,5.721
10.0,11.0,5.722
5.0,-1.0,5.723
28.0,-5.0,5.724
85.0,0.0,5.725
115.0,9.0,5.726
105.0,12.0,5.727
106.0,13.0,5.728
143.0,15.0,5.729
165.0,18.0,5.73
122.0,22.0,5.731
36.0,23.0,5.732
-15.0,15.0,5.733
0.0,0.0,5.734
28.0,-15.0,5.735
-16.0,-20.0,5.736
-121.0,-13.0,5.737
-206.0,-10.0,5.738
-199.0,-10.0,5.739
-149.0,-10.0,5.74
-115.0,-14.0,5.741
-70.0,-17.0,5.742
36.0,-16.0,5.743
158.0,-12.0,5.744
219.0,-2.0,5.745
221.0,8.0,5.746
199.0,17.0,5.747
126.0,22.0,5.748
-15.0,16.0,5.749
-147.0,9.0,5.75
-174.0,0.0,5.751
-118.0,-10.0,5.752
-67.0,-18.0,5.753
-52.0,-23.0,5.754
-62.0,-17.0,5.755
-90.0,-13.0,5.756
-113.0,-15.0,5.757
-99.0,-18.0,5.758
-60.0,-21.0,5.759
-27.0,-16.0,5.76
-17.0,-12.0,5.761
15.0,-8.0,5.762
112.0,-3.0,5.763
162.0,3.0,5.764
70.0,6.0,5.765
-11.0,7.0,5.766
-57.0,9.0,5.767
-73.0,13.0,5.768
5.0,18.0,5.769
54.0,22.0,5.77
10.0,24.0,5.771
-22.0,18.0,5.772
-15.0,7.0,5.773
-1.0,-1.0,5.774
31.0,-8.0,5.775
48.0,-22.0,5.776
20.0,-45.0,5.777
6.0,-61.0,5.778
38.0,-53.0,5.779
50.0,-43.0,5.78
45.0,-28.0,5.781
57.0,-16.0,5.782
81.0,-12.0,5.783
100.0,-2.0,5.784
131.0,22.0,5.785
192.0,44.0,5.786
232.0,59.0,5.787
156.0,71.0,5.788
-45.0,70.0,5.789
-245.0,65.0,5.79
-312.0,47.0,5.791
-258.0,30.0,5.792
-187.0,16.0,5.793
-160.0,3.0,5.794
-130.0,-6.0,5.795
-62.0,-15.0,5.796
11.0,-13.0,5.797
39.0,-9.0,5.798
27.0,0.0,5.799
23.0,11.0,5.8
44.0,21.0,5.801
73.0,34.0,5.802
123.0,40.0,5.803
151.0,35.0,5.804
106.0,15.0,5.805
63.0,-21.0,5.806
29.0,-71.0,5.807
9.0,-113.0,5.808
33.0,-122.0,5.809
63.0,-99.0,5.81
109.0,-71.0,5.811
118.0,-59.0,5.812
12.0,-52.0,5.813
-81.0,-41.0,5.814
-137.0,-24.0,5.815
-162.0,-13.0,5.816
-90.0,-8.0,5.817
7.0,-4.0,5.818
201.0,4.0,5.819
350.0,17.0,5.82
291.0,34.0,5.821
8.0,57.0,5.822
-299.0,79.0,5.823
-428.0,95.0,5.824
-376.0,102.0,5.825
-262.0,94.0,5.826
-155.0,73.0,5.827
-51.0,47.0,5.828
12.0,22.0,5.829
-6.0,-6.0,5.83
-40.0,-34.0,5.831
12.0,-44.0,5.832
119.0,-35.0,5.833
155.0,-28.0,5.834
104.0,-35.0,5.835
67.0,-45.0,5.836
82.0,-39.0,5.837
100.0,22.0,5.838
120.0,31.0,5.839
162.0,34.0,5.84
266.0,18.0,5.841
318.0,2.0,5.842
213.0,-12.0,5.843
102.0,-23.0,5.844
-26.0,-17.0,5.845
-149.0,-12.0,5.846
-258.0,-6.0,5.847
-326.0,-2.0,5.848
-265.0,-9.0,5.849
-204.0,-13.0,5.85
-146.0,-11.0,5.851
-91.0,-9.0,5.852
-42.0,-10.0,5.853
5.0,-9.0,5.854
46.0,0.0,5.855
86.0,7.0,5.856
123.0,12.0,5.857
144.0,32.0,5.858
103.0,44.0,5.859
65.0,48.0,5.86
44.0,26.0,5.861
-19.0,4.0,5.862
-121.0,-17.0,5.863
-163.0,-33.0,5.864
-94.0,-25.0,5.865
13.0,-17.0,5.866
69.0,-9.0,5.867
77.0,-4.0,5.868
97.0,-13.0,5.869
143.0,-19.0,5.87
179.0,-16.0,5.871
178.0,-13.0,5.872
146.0,-14.0,5.873
102.0,-13.0,5.874
47.0,-1.0,5.875
-16.0,10.0,5.876
-64.0,18.0,5.877
-95.0,25.0,5.878
-147.0,27.0,5.879
-194.0,25.0,5.88
-228.0,11.0,5.881
-211.0,-5.0,5.882
-40.0,-21.0,5.883
87.0,-26.0,5.884
80.0,-17.0,5.885
66.0,-1.0,5.886
35.0,13.0,5.887
18.0,15.0,5.888
43.0,5.0,5.889
83.0,-5.0,5.89
171.0,-9.0,5.891
249.0,-9.0,5.892
297.0,-10.0,5.893
265.0,-11.0,5.894
-4.0,-5.0,5.895
-213.0,9.0,5.896
-237.0,22.0,5.897
-238.0,27.0,5.898
-214.0,26.0,5.899
-264.0,26.0,5.9
-234.0,21.0,5.901
-76.0,8.0,5.902
52.0,-15.0,5.903
41.0,-42.0,5.904
-15.0,-63.0,5.905
-15.0,-67.0,5.906
-14.0,-53.0,5.907
-68.0,-25.0,5.908
-103.0,4.0,5.909
-48.0,21.0,5.91
30.0,22.0,5.911
45.0,19.0,5.912
24.0,23.0,5.913
36.0,30.0,5.914
85.0,24.0,5.915
129.0,2.0,5.916
143.0,-14.0,5.917
109.0,-22.0,5.918
53.0,-16.0,5.919
-11.0,-11.0,5.92
-75.0,-5.0,5.921
-107.0,-1.0,5.922
-53.0,-3.0,5.923
84.0,-2.0,5.924
187.0,10.0,5.925
152.0,20.0,5.926
48.0,25.0,5.927
31.0,30.0,5.928
113.0,32.0,5.929
149.0,32.0,5.93
39.0,23.0,5.931
-132.0,11.0,5.932
-231.0,-10.0,5.933
-213.0,-28.0,5.934
-122.0,-34.0,5.935
2.0,-38.0,5.936
124.0,-30.0,5.937
190.0,-21.0,5.938
118.0,-13.0,5.939
-76.0,-5.0,5.94
-222.0,1.0,5.941
-194.0,14.0,5.942
-79.0,25.0,5.943
-52.0,36.0,5.944
-92.0,43.0,5.945
-33.0,39.0,5.946
117.0,27.0,5.947
150.0,18.0,5.948
8.0,16.0,5.949
-109.0,11.0,5.95
-60.0,-4.0,5.951
39.0,-19.0,5.952
49.0,-20.0,5.953
20.0,-13.0,5.954
34.0,-12.0,5.955
46.0,-17.0,5.956
9.0,-19.0,5.957
-19.0,-18.0,5.958
20.0,-18.0,5.959
70.0,-16.0,5.96
57.0,-10.0,5.961
27.0,-3.0,5.962
37.0,6.0,5.963
57.0,15.0,5.964
42.0,13.0,5.965
23.0,6.0,5.966
36.0,-15.0,5.967
45.0,-35.0,5.968
23.0,-45.0,5.969
-1.0,-51.0,5.97
1.0,-44.0,5.971
11.0,-33.0,5.972
5.0,-14.0,5.973
1.0,2.0,5.974
3.0,14.0,5.975
-17.0,22.0,5.976
-66.0,18.0,5.977
-108.0,14.0,5.978
-102.0,11.0,5.979
-66.0,12.0,5.98
-42.0,12.0,5.981
-25.0,14.0,5.982
6.0,13.0,5.983
48.0,9.0,5.984
70.0,0.0,5.985
72.0,-9.0,5.986
76.0,-16.0,5.987
65.0,-21.0,5.988
4.0,-26.0,5.989
-96.0,-25.0,5.99
-155.0,-23.0,5.991
-122.0,-20.0,5.992
-26.0,-20.0,5.993
67.0,-22.0,5.994
128.0,-23.0,5.995
160.0,-22.0,5.996
154.0,-10.0,5.997
96.0,19.0,5.998
19.0,65.0,5.999
-28.0,101.0,6.0
-28.0,107.0,6.001
-5.0,108.0,6.002
31.0,92.0,6.003
85.0,70.0,6.004
118.0,36.0,6.005
50.0,3.0,6.006
-118.0,-26.0,6.007
-255.0,-55.0,6.008
-238.0,-79.0,6.009
-121.0,-91.0,6.01
-58.0,-68.0,6.011
-93.0,-47.0,6.012
-113.0,-34.0,6.013
-30.0,-21.0,6.014
102.0,-10.0,6.015
182.0,-2.0,6.016
186.0,-3.0,6.017
178.0,-6.0,6.018
218.0,-13.0,6.019
249.0,-8.0,6.02
256.0,-5.0,6.021
214.0,-8.0,6.022
24.0,-7.0,6.023
-149.0,-1.0,6.024
-274.0,5.0,6.025
-371.0,6.0,6.026
-385.0,12.0,6.027
-372.0,21.0,6.028
-278.0,26.0,6.029
-196.0,20.0,6.03
-154.0,11.0,6.031
-102.0,6.0,6.032
-19.0,3.0,6.033
48.0,0.0,6.034
66.0,-5.0,6.035
97.0,-11.0,6.036
167.0,-15.0,6.037
237.0,-16.0,6.038
255.0,-7.0,6.039
211.0,0.0,6.04
167.0,10.0,6.041
143.0,19.0,6.042
118.0,28.0,6.043
99.0,34.0,6.044
133.0,31.0,6.045
225.0,26.0,6.046
294.0,17.0,6.047
232.0,7.0,6.048
21.0,-5.0,6.049
-212.0,-16.0,6.05
-324.0,-21.0,6.051
-297.0,-25.0,6.052
-223.0,-26.0,6.053
-154.0,-26.0,6.054
-76.0,-24.0,6.055
-3.0,-21.0,6.056
17.0,-15.0,6.057
6.0,-26.0,6.058
53.0,-12.0,6.059
168.0,2.0,6.06
239.0,17.0,6.061
175.0,32.0,6.062
15.0,46.0,6.063
-144.0,56.0,6.064
-226.0,51.0,6.065
-184.0,43.0,6.066
-43.0,29.0,6.067
72.0,13.0,6.068
59.0,-8.0,6.069
-34.0,-26.0,6.07
-84.0,-34.0,6.071
-78.0,-40.0,6.072
-74.0,-41.0,6.073
-58.0,-41.0,6.074
17.0,-39.0,6.075
90.0,-34.0,6.076
60.0,-24.0,6.077
-29.0,-14.0,6.078
-35.0,0.0,6.079
-29.0,14.0,6.08
14.0,30.0,6.081
41.0,49.0,6.082
15.0,61.0,6.083
-5.0,54.0,6.084
-11.0,29.0,6.085
-7.0,-5.0,6.086
26.0,-37.0,6.087
68.0,-56.0,6.088
129.0,-52.0,6.089
162.0,-34.0,6.09
111.0,-20.0,6.091
56.0,-15.0,6.092
-9.0,-14.0,6.093
-48.0,-11.0,6.094
-10.0,-8.0,6.095
17.0,-3.0,6.096
7.0,7.0,6.097
3.0,18.0,6.098
37.0,26.0,6.099
91.0,32.0,6.1
119.0,30.0,6.101
97.0,28.0,6.102
3.0,24.0,6.103
-151.0,21.0,6.104
-267.0,21.0,6.105
-239.0,15.0,6.106
-117.0,-10.0,6.107
-49.0,-34.0,6.108
-56.0,-51.0,6.109
-30.0,-63.0,6.11
55.0,-60.0,6.111
92.0,-54.0,6.112
51.0,-40.0,6.113
58.0,-30.0,6.114
213.0,-33.0,6.115
440.0,-33.0,6.116
569.0,-23.0,6.117
496.0,-12.0,6.118
261.0,0.0,6.119
3.0,9.0,6.12
-318.0,22.0,6.121
-581.0,45.0,6.122
-665.0,70.0,6.123
-677.0,86.0,6.124
-470.0,92.0,6.125
-283.0,83.0,6.126
-160.0,62.0,6.127
-50.0,32.0,6.128
19.0,7.0,6.129
70.0,-8.0,6.13
63.0,-22.0,6.131
71.0,-33.0,6.132
124.0,-36.0,6.133
163.0,-30.0,6.134
160.0,-24.0,6.135
160.0,-27.0,6.136
173.0,-31.0,6.137
187.0,-33.0,6.138
185.0,-29.0,6.139
171.0,-21.0,6.14
173.0,-13.0,6.141
167.0,2.0,6.142
129.0,17.0,6.143
81.0,26.0,6.144
40.0,28.0,6.145
-22.0,31.0,6.146
-104.0,32.0,6.147
-142.0,27.0,6.148
-103.0,19.0,6.149
-39.0,12.0,6.15
-1.0,7.0,6.151
16.0,-1.0,6.152
16.0,-7.0,6.153
-16.0,-8.0,6.154
-64.0,-7.0,6.155
-77.0,-9.0,6.156
-50.0,-9.0,6.157
-37.0,-7.0,6.158
-26.0,-3.0,6.159
-16.0,2.0,6.16
-11.0,0.0,6.161
-11.0,0.0,6.162
-30.0,2.0,6.163
-46.0,3.0,6.164
-57.0,1.0,6.165
-62.0,-4.0,6.166
-45.0,-14.0,6.167
-35.0,-33.0,6.168
-37.0,-56.0,6.169
-43.0,-61.0,6.17
-66.0,-37.0,6.171
-79.0,6.0,6.172
-62.0,32.0,6.173
-48.0,23.0,6.174
-41.0,-3.0,6.175
-37.0,-15.0,6.176
-33.0,-9.0,6.177
2.0,-8.0,6.178
95.0,-20.0,6.179
178.0,-26.0,6.18
227.0,-20.0,6.181
224.0,-8.0,6.182
61.0,-4.0,6.183
-86.0,-1.0,6.184
-187.0,9.0,6.185
-227.0,22.0,6.186
-84.0,26.0,6.187
19.0,20.0,6.188
-1.0,17.0,6.189
-66.0,20.0,6.19
-264.0,21.0,6.191
-376.0,23.0,6.192
-228.0,31.0,6.193
-103.0,40.0,6.194
-49.0,33.0,6.195
0.0,11.0,6.196
37.0,-3.0,6.197
70.0,-7.0,6.198
81.0,-10.0,6.199
113.0,-23.0,6.2
189.0,-36.0,6.201
247.0,-35.0,6.202
216.0,-26.0,6.203
87.0,-15.0,6.204
-89.0,-1.0,6.205
-221.0,17.0,6.206
-228.0,25.0,6.207
-131.0,17.0,6.208
-30.0,10.0,6.209
20.0,10.0,6.21
68.0,8.0,6.211
152.0,-6.0,6.212
215.0,-18.0,6.213
202.0,-13.0,6.214
146.0,0.0,6.215
110.0,2.0,6.216
102.0,-6.0,6.217
101.0,-16.0,6.218
88.0,-19.0,6.219
34.0,-19.0,6.22
-89.0,-26.0,6.221
-239.0,-32.0,6.222
-285.0,-31.0,6.223
-183.0,-23.0,6.224
-48.0,-11.0,6.225
-4.0,1.0,6.226
-21.0,7.0,6.227
0.0,5.0,6.228
68.0,4.0,6.229
126.0,12.0,6.23
156.0,21.0,6.231
169.0,24.0,6.232
151.0,23.0,6.233
87.0,29.0,6.234
4.0,38.0,6.235
-50.0,45.0,6.236
-67.0,45.0,6.237
-97.0,38.0,6.238
-153.0,28.0,6.239
-209.0,9.0,6.24
-207.0,-16.0,6.241
-133.0,-37.0,6.242
-48.0,-44.0,6.243
-20.0,-39.0,6.244
-18.0,-31.0,6.245
11.0,-23.0,6.246
43.0,-20.0,6.247
30.0,-19.0,6.248
6.0,-22.0,6.249
49.0,-24.0,6.25
165.0,-24.0,6.251
297.0,-20.0,6.252
383.0,-14.0,6.253
341.0,-4.0,6.254
123.0,4.0,6.255
-170.0,10.0,6.256
-327.0,15.0,6.257
-277.0,18.0,6.258
-141.0,13.0,6.259
-71.0,8.0,6.26
-63.0,6.0,6.261
-47.0,-1.0,6.262
-41.0,-11.0,6.263
-71.0,-22.0,6.264
-89.0,-26.0,6.265
-45.0,-32.0,6.266
29.0,-35.0,6.267
86.0,-37.0,6.268
126.0,-31.0,6.269
133.0,-25.0,6.27
84.0,-22.0,6.271
30.0,-15.0,6.272
96.0,-3.0,6.273
317.0,6.0,6.274
525.0,7.0,6.275
494.0,10.0,6.276
207.0,8.0,6.277
-129.0,22.0,6.278
-271.0,16.0,6.279
-360.0,11.0,6.28
-285.0,8.0,6.281
-240.0,1.0,6.282
-285.0,-12.0,6.283
-294.0,-24.0,6.284
-194.0,-29.0,6.285
-106.0,-35.0,6.286
-58.0,-39.0,6.287
-8.0,-41.0,6.288
46.0,-34.0,6.289
96.0,-28.0,6.29
131.0,-24.0,6.291
153.0,-16.0,6.292
135.0,-2.0,6.293
113.0,8.0,6.294
78.0,10.0,6.295
62.0,13.0,6.296
106.0,11.0,6.297
127.0,5.0,6.298
51.0,-14.0,6.299
12.0,-26.0,6.3
59.0,-24.0,6.301
123.0,-14.0,6.302
89.0,-15.0,6.303
-76.0,-19.0,6.304
-265.0,-13.0,6.305
-302.0,-1.0,6.306
-147.0,1.0,6.307
28.0,-9.0,6.308
62.0,-16.0,6.309
-7.0,-10.0,6.31
-54.0,1.0,6.311
-81.0,6.0,6.312
-135.0,10.0,6.313
-150.0,15.0,6.314
-50.0,15.0,6.315
77.0,13.0,6.316
111.0,16.0,6.317
98.0,19.0,6.318
142.0,17.0,6.319
186.0,8.0,6.32
101.0,0.0,6.321
-51.0,2.0,6.322
-74.0,3.0,6.323
52.0,0.0,6.324
143.0,2.0,6.325
96.0,10.0,6.326
4.0,13.0,6.327
-27.0,6.0,6.328
-15.0,-4.0,6.329
-10.0,-9.0,6.33
-9.0,-15.0,6.331
-6.0,-21.0,6.332
-7.0,-22.0,6.333
0.0,-18.0,6.334
51.0,-10.0,6.335
140.0,4.0,6.336
194.0,26.0,6.337
139.0,42.0,6.338
-21.0,49.0,6.339
-177.0,45.0,6.34
-199.0,37.0,6.341
-86.0,30.0,6.342
35.0,16.0,6.343
65.0,-2.0,6.344
41.0,-21.0,6.345
20.0,-33.0,6.346
-21.0,-37.0,6.347
-116.0,-40.0,6.348
-200.0,-40.0,6.349
-197.0,-32.0,6.35
-144.0,-19.0,6.351
-115.0,-8.0,6.352
-103.0,-9.0,6.353
-43.0,-21.0,6.354
59.0,-35.0,6.355
150.0,-43.0,6.356
227.0,-39.0,6.357
331.0,-22.0,6.358
400.0,6.0,6.359
306.0,29.0,6.36
41.0,37.0,6.361
-207.0,41.0,6.362
-267.0,35.0,6.363
-186.0,32.0,6.364
-132.0,40.0,6.365
-142.0,47.0,6.366
-123.0,49.0,6.367
-53.0,46.0,6.368
-25.0,28.0,6.369
-80.0,11.0,6.37
-127.0,1.0,6.371
-95.0,-9.0,6.372
-24.0,-17.0,6.373
38.0,-23.0,6.374
95.0,-20.0,6.375
142.0,-17.0,6.376
143.0,-15.0,6.377
89.0,-15.0,6.378
37.0,-18.0,6.379
25.0,-20.0,6.38
51.0,-22.0,6.381
110.0,-20.0,6.382
180.0,-13.0,6.383
195.0,-4.0,6.384
115.0,4.0,6.385
10.0,4.0,6.386
-21.0,-3.0,6.387
-1.0,-12.0,6.388
-20.0,-16.0,6.389
-85.0,-14.0,6.39
-125.0,-13.0,6.391
-115.0,-13.0,6.392
-94.0,-10.0,6.393
-81.0,-2.0,6.394
-51.0,8.0,6.395
-3.0,17.0,6.396
31.0,25.0,6.397
39.0,23.0,6.398
41.0,18.0,6.399
54.0,6.0,6.4
84.0,-10.0,6.401
108.0,-24.0,6.402
76.0,-34.0,6.403
-27.0,-36.0,6.404
-125.0,-25.0,6.405
-130.0,-7.0,6.406
-66.0,3.0,6.407
-24.0,2.0,6.408
-27.0,2.0,6.409
-19.0,8.0,6.41
15.0,15.0,6.411
39.0,19.0,6.412
68.0,21.0,6.413
184.0,24.0,6.414
379.0,24.0,6.415
495.0,14.0,6.416
394.0,5.0,6.417
72.0,-4.0,6.418
-277.0,-7.0,6.419
-465.0,-5.0,6.42
-463.0,-5.0,6.421
-384.0,-5.0,6.422
-311.0,-3.0,6.423
-231.0,8.0,6.424
-127.0,24.0,6.425
-50.0,28.0,6.426
-41.0,17.0,6.427
-54.0,1.0,6.428
-42.0,-5.0,6.429
-31.0,-9.0,6.43
-56.0,-21.0,6.431
-74.0,-40.0,6.432
-23.0,-50.0,6.433
86.0,-46.0,6.434
206.0,-32.0,6.435
314.0,-18.0,6.436
386.0,-9.0,6.437
380.0,-2.0,6.438
318.0,4.0,6.439
292.0,9.0,6.44
300.0,9.0,6.441
173.0,12.0,6.442
-149.0,22.0,6.443
-422.0,33.0,6.444
-367.0,35.0,6.445
-91.0,31.0,6.446
45.0,22.0,6.447
-74.0,9.0,6.448
-195.0,-5.0,6.449
-105.0,-15.0,6.45
85.0,-13.0,6.451
147.0,-9.0,6.452
52.0,-16.0,6.453
-58.0,-29.0,6.454
-80.0,-30.0,6.455
-27.0,-15.0,6.456
34.0,-2.0,6.457
66.0,-2.0,6.458
67.0,0.0,6.459
83.0,1.0,6.46
133.0,1.0,6.461
162.0,-1.0,6.462
110.0,-5.0,6.463
13.0,-8.0,6.464
-48.0,-3.0,6.465
-74.0,1.0,6.466
-108.0,3.0,6.467
-138.0,7.0,6.468
-111.0,11.0,6.469
-50.0,15.0,6.47
-36.0,21.0,6.471
-61.0,25.0,6.472
-37.0,19.0,6.473
46.0,12.0,6.474
82.0,4.0,6.475
10.0,-2.0,6.476
-76.0,2.0,6.477
-90.0,2.0,6.478
-47.0,-15.0,6.479
-26.0,-26.0,6.48
-35.0,-25.0,6.481
-24.0,-14.0,6.482
26.0,-6.0,6.483
79.0,-2.0,6.484
112.0,8.0,6.485
123.0,20.0,6.486
100.0,27.0,6.487
40.0,29.0,6.488
-15.0,30.0,6.489
-14.0,31.0,6.49
49.0,25.0,6.491
114.0,9.0,6.492
120.0,-11.0,6.493
51.0,-29.0,6.494
-59.0,-44.0,6.495
-150.0,-63.0,6.496
-184.0,-79.0,6.497
-174.0,-81.0,6.498
-142.0,-67.0,6.499
-94.0,-50.0,6.5
-31.0,-45.0,6.501
41.0,-41.0,6.502
127.0,-26.0,6.503
227.0,-2.0,6.504
287.0,22.0,6.505
249.0,35.0,6.506
145.0,41.0,6.507
66.0,43.0,6.508
15.0,39.0,6.509
-93.0,31.0,6.51
-257.0,21.0,6.511
-353.0,10.0,6.512
-315.0,-3.0,6.513
-227.0,-13.0,6.514
-179.0,-10.0,6.515
-135.0,0.0,6.516
-46.0,7.0,6.517
47.0,7.0,6.518
69.0,2.0,6.519
31.0,5.0,6.52
14.0,8.0,6.521
41.0,13.0,6.522
78.0,14.0,6.523
112.0,14.0,6.524
157.0,15.0,6.525
197.0,16.0,6.526
186.0,11.0,6.527
111.0,4.0,6.528
10.0,-2.0,6.529
-59.0,-7.0,6.53
-54.0,-18.0,6.531
20.0,-32.0,6.532
91.0,-41.0,6.533
87.0,-38.0,6.534
20.0,-23.0,6.535
-23.0,-7.0,6.536
-11.0,2.0,6.537
14.0,2.0,6.538
18.0,-1.0,6.539
13.0,-4.0,6.54
10.0,-2.0,6.541
5.0,-1.0,6.542
41.0,0.0,6.543
173.0,2.0,6.544
330.0,6.0,6.545
330.0,9.0,6.546
104.0,10.0,6.547
-192.0,12.0,6.548
-345.0,14.0,6.549
-314.0,17.0,6.55
-212.0,15.0,6.551
-143.0,15.0,6.552
-115.0,19.0,6.553
-95.0,22.0,6.554
-56.0,21.0,6.555
-9.0,19.0,6.556
21.0,13.0,6.557
26.0,6.0,6.558
26.0,-6.0,6.559
38.0,-18.0,6.56
51.0,-30.0,6.561
40.0,-31.0,6.562
24.0,-27.0,6.563
27.0,-18.0,6.564
32.0,-12.0,6.565
20.0,-14.0,6.566
12.0,-17.0,6.567
37.0,-18.0,6.568
80.0,-17.0,6.569
94.0,-11.0,6.57
71.0,-2.0,6.571
44.0,2.0,6.572
44.0,-1.0,6.573
53.0,-2.0,6.574
30.0,4.0,6.575
-40.0,11.0,6.576
-108.0,8.0,6.577
-120.0,0.0,6.578
-79.0,8.0,6.579
-54.0,26.0,6.58
-82.0,32.0,6.581
-107.0,24.0,6.582
-77.0,15.0,6.583
-24.0,8.0,6.584
-7.0,-2.0,6.585
-10.0,-14.0,6.586
15.0,-18.0,6.587
64.0,-7.0,6.588
75.0,8.0,6.589
40.0,12.0,6.59
4.0,2.0,6.591
-1.0,-12.0,6.592
10.0,-25.0,6.593
26.0,-29.0,6.594
53.0,-20.0,6.595
72.0,-3.0,6.596
69.0,9.0,6.597
78.0,7.0,6.598
173.0,-1.0,6.599
319.0,-6.0,6.6
339.0,-3.0,6.601
118.0,9.0,6.602
-197.0,21.0,6.603
-356.0,29.0,6.604
-313.0,37.0,6.605
-246.0,42.0,6.606
-227.0,42.0,6.607
-160.0,37.0,6.608
-26.0,30.0,6.609
20.0,26.0,6.61
-75.0,18.0,6.611
-156.0,10.0,6.612
-101.0,3.0,6.613
-8.0,-4.0,6.614
14.0,-14.0,6.615
11.0,-31.0,6.616
57.0,-45.0,6.617
106.0,-49.0,6.618
85.0,-44.0,6.619
32.0,-35.0,6.62
28.0,-26.0,6.621
66.0,-15.0,6.622
97.0,-6.0,6.623
118.0,-3.0,6.624
152.0,-2.0,6.625
185.0,0.0,6.626
178.0,1.0,6.627
120.0,3.0,6.628
46.0,7.0,6.629
0.0,14.0,6.63
1.0,20.0,6.631
10.0,24.0,6.632
-17.0,25.0,6.633
-62.0,21.0,6.634
-75.0,8.0,6.635
-54.0,-13.0,6.636
-44.0,-34.0,6.637
-54.0,-49.0,6.638
-50.0,-52.0,6.639
-29.0,-46.0,6.64
-22.0,-43.0,6.641
-30.0,-37.0,6.642
-18.0,-22.0,6.643
11.0,2.0,6.644
20.0,31.0,6.645
4.0,48.0,6.646
0.0,52.0,6.647
19.0,46.0,6.648
39.0,34.0,6.649
46.0,15.0,6.65
50.0,-4.0,6.651
50.0,-19.0,6.652
40.0,-32.0,6.653
27.0,-40.0,6.654
21.0,-37.0,6.655
21.0,-23.0,6.656
19.0,-10.0,6.657
5.0,-13.0,6.658
-39.0,-15.0,6.659
-127.0,-5.0,6.66
-208.0,8.0,6.661
-198.0,11.0,6.662
-59.0,5.0,6.663
144.0,9.0,6.664
305.0,25.0,6.665
342.0,33.0,6.666
226.0,27.0,6.667
2.0,18.0,6.668
-205.0,17.0,6.669
-297.0,19.0,6.67
-276.0,12.0,6.671
-205.0,-1.0,6.672
-121.0,-13.0,6.673
-48.0,-15.0,6.674
-32.0,-7.0,6.675
-76.0,4.0,6.676
-97.0,14.0,6.677
-41.0,17.0,6.678
35.0,15.0,6.679
61.0,13.0,6.68
77.0,11.0,6.681
134.0,10.0,6.682
174.0,15.0,6.683
128.0,19.0,6.684
56.0,19.0,6.685
43.0,15.0,6.686
45.0,3.0,6.687
0.0,-10.0,6.688
-46.0,-25.0,6.689
-11.0,-36.0,6.69
61.0,-33.0,6.691
72.0,-28.0,6.692
27.0,-18.0,6.693
-7.0,-9.0,6.694
-17.0,-3.0,6.695
-23.0,2.0,6.696
-15.0,7.0,6.697
4.0,13.0,6.698
17.0,16.0,6.699
34.0,19.0,6.7
59.0,22.0,6.701
73.0,24.0,6.702
52.0,22.0,6.703
23.0,13.0,6.704
-26.0,2.0,6.705
-60.0,-8.0,6.706
-41.0,-12.0,6.707
-26.0,-17.0,6.708
-24.0,-32.0,6.709
-21.0,-54.0,6.71
-15.0,-64.0,6.711
-12.0,-45.0,6.712
-20.0,-12.0,6.713
-27.0,8.0,6.714
-25.0,7.0,6.715
-14.0,5.0,6.716
26.0,16.0,6.717
75.0,26.0,6.718
148.0,21.0,6.719
205.0,5.0,6.72
235.0,-9.0,6.721
207.0,-16.0,6.722
92.0,-22.0,6.723
-74.0,-28.0,6.724
-205.0,-29.0,6.725
-266.0,-24.0,6.726
-284.0,-20.0,6.727
-265.0,-15.0,6.728
-182.0,-7.0,6.729
-70.0,3.0,6.73
-28.0,7.0,6.731
-58.0,9.0,6.732
-19.0,13.0,6.733
165.0,18.0,6.734
346.0,18.0,6.735
327.0,17.0,6.736
145.0,25.0,6.737
-37.0,35.0,6.738
-95.0,41.0,6.739
-92.0,40.0,6.74
-123.0,36.0,6.741
-175.0,31.0,6.742
-183.0,19.0,6.743
-136.0,5.0,6.744
-80.0,-5.0,6.745
-44.0,-7.0,6.746
-14.0,-6.0,6.747
16.0,-2.0,6.748
40.0,4.0,6.749
50.0,6.0,6.75
65.0,-1.0,6.751
97.0,-8.0,6.752
121.0,-9.0,6.753
106.0,-6.0,6.754
68.0,-4.0,6.755
52.0,-5.0,6.756
63.0,-5.0,6.757
74.0,-5.0,6.758
88.0,-3.0,6.759
103.0,-3.0,6.76
104.0,-8.0,6.761
48.0,-9.0,6.762
-42.0,-8.0,6.763
-90.0,-8.0,6.764
-73.0,-14.0,6.765
-45.0,-23.0,6.766
-35.0,-18.0,6.767
-9.0,1.0,6.768
38.0,20.0,6.769
52.0,17.0,6.77
15.0,1.0,6.771
-15.0,-9.0,6.772
8.0,-16.0,6.773
45.0,-30.0,6.774
50.0,-42.0,6.775
31.0,-36.0,6.776
21.0,-16.0,6.777
3.0,-5.0,6.778
-29.0,-9.0,6.779
-61.0,-19.0,6.78
-64.0,-28.0,6.781
-18.0,-32.0,6.782
84.0,-30.0,6.783
202.0,-15.0,6.784
244.0,5.0,6.785
159.0,14.0,6.786
-5.0,11.0,6.787
-168.0,11.0,6.788
-292.0,20.0,6.789
-355.0,25.0,6.79
-305.0,22.0,6.791
-139.0,23.0,6.792
34.0,30.0,6.793
85.0,32.0,6.794
-4.0,28.0,6.795
-139.0,25.0,6.796
-211.0,28.0,6.797
-169.0,21.0,6.798
-36.0,7.0,6.799
79.0,-7.0,6.8
105.0,-22.0,6.801
82.0,-34.0,6.802
91.0,-42.0,6.803
119.0,-37.0,6.804
101.0,-24.0,6.805
52.0,-14.0,6.806
38.0,-11.0,6.807
64.0,-3.0,6.808
77.0,8.0,6.809
72.0,13.0,6.81
79.0,11.0,6.811
91.0,12.0,6.812
80.0,18.0,6.813
45.0,23.0,6.814
0.0,25.0,6.815
-47.0,27.0,6.816
-77.0,30.0,6.817
-57.0,24.0,6.818
15.0,7.0,6.819
86.0,-15.0,6.82
124.0,-38.0,6.821
134.0,-51.0,6.822
100.0,-47.0,6.823
4.0,-31.0,6.824
-100.0,-12.0,6.825
-119.0,-2.0,6.826
-57.0,4.0,6.827
-15.0,9.0,6.828
-26.0,17.0,6.829
-29.0,20.0,6.83
14.0,18.0,6.831
74.0,14.0,6.832
140.0,8.0,6.833
237.0,3.0,6.834
313.0,2.0,6.835
256.0,7.0,6.836
64.0,9.0,6.837
-171.0,-2.0,6.838
-320.0,-20.0,6.839
-380.0,-32.0,6.84
-392.0,-21.0,6.841
-335.0,-11.0,6.842
-188.0,-4.0,6.843
-33.0,2.0,6.844
22.0,4.0,6.845
-5.0,6.0,6.846
-13.0,2.0,6.847
20.0,-1.0,6.848
28.0,-1.0,6.849
-6.0,-1.0,6.85
-22.0,2.0,6.851
11.0,5.0,6.852
47.0,6.0,6.853
47.0,6.0,6.854
34.0,2.0,6.855
38.0,0.0,6.856
51.0,10.0,6.857
110.0,24.0,6.858
-47.0,34.0,6.859
-175.0,28.0,6.86
-219.0,11.0,6.861
-236.0,0.0,6.862
-176.0,-11.0,6.863
-109.0,-29.0,6.864
-23.0,-47.0,6.865
38.0,-52.0,6.866
22.0,-41.0,6.867
9.0,-24.0,6.868
6.0,-11.0,6.869
7.0,-5.0,6.87
20.0,-4.0,6.871
40.0,-2.0,6.872
79.0,3.0,6.873
113.0,7.0,6.874
128.0,8.0,6.875
116.0,8.0,6.876
19.0,13.0,6.877
157.0,15.0,6.878
-60.0,12.0,6.879
-238.0,6.0,6.88
-298.0,-2.0,6.881
-322.0,-3.0,6.882
-239.0,3.0,6.883
-147.0,12.0,6.884
-27.0,19.0,6.885
58.0,20.0,6.886
36.0,16.0,6.887
18.0,9.0,6.888
14.0,-2.0,6.889
15.0,-14.0,6.89
33.0,-19.0,6.891
61.0,-16.0,6.892
115.0,-10.0,6.893
162.0,-7.0,6.894
183.0,-12.0,6.895
166.0,-19.0,6.896
32.0,-25.0,6.897
-81.0,-28.0,6.898
-94.0,-20.0,6.899
-74.0,-6.0,6.9
-61.0,2.0,6.901
-49.0,5.0,6.902
-34.0,3.0,6.903
-23.0,7.0,6.904
-6.0,16.0,6.905
24.0,23.0,6.906
18.0,24.0,6.907
-48.0,17.0,6.908
-98.0,10.0,6.909
-56.0,5.0,6.91
13.0,5.0,6.911
-11.0,9.0,6.912
-104.0,17.0,6.913
-128.0,26.0,6.914
-34.0,28.0,6.915
60.0,21.0,6.916
64.0,13.0,6.917
5.0,7.0,6.918
-19.0,2.0,6.919
18.0,-8.0,6.92
67.0,-24.0,6.921
82.0,-33.0,6.922
64.0,-34.0,6.923
41.0,-29.0,6.924
35.0,-30.0,6.925
39.0,-33.0,6.926
29.0,-39.0,6.927
13.0,-37.0,6.928
17.0,-21.0,6.929
45.0,2.0,6.93
71.0,20.0,6.931
82.0,28.0,6.932
103.0,33.0,6.933
136.0,39.0,6.934
135.0,42.0,6.935
58.0,30.0,6.936
-46.0,3.0,6.937
-106.0,-32.0,6.938
-86.0,-60.0,6.939
-45.0,-63.0,6.94
-34.0,-40.0,6.941
-48.0,-8.0,6.942
-67.0,8.0,6.943
-95.0,9.0,6.944
-132.0,12.0,6.945
-148.0,29.0,6.946
-103.0,47.0,6.947
4.0,51.0,6.948
124.0,35.0,6.949
174.0,14.0,6.95
98.0,-2.0,6.951
-33.0,-4.0,6.952
-81.0,3.0,6.953
-22.0,-1.0,6.954
12.0,-27.0,6.955
-66.0,-60.0,6.956
-145.0,-74.0,6.957
-117.0,-65.0,6.958
-43.0,-45.0,6.959
19.0,-24.0,6.96
44.0,-6.0,6.961
110.0,9.0,6.962
300.0,11.0,6.963
412.0,7.0,6.964
285.0,10.0,6.965
138.0,20.0,6.966
-69.0,21.0,6.967
-212.0,15.0,6.968
-162.0,15.0,6.969
-144.0,23.0,6.97
-220.0,26.0,6.971
-280.0,23.0,6.972
-294.0,25.0,6.973
-277.0,28.0,6.974
-160.0,25.0,6.975
-56.0,21.0,6.976
5.0,25.0,6.977
64.0,24.0,6.978
95.0,9.0,6.979
95.0,-7.0,6.98
112.0,-23.0,6.981
140.0,-34.0,6.982
126.0,-28.0,6.983
59.0,-22.0,6.984
14.0,-14.0,6.985
34.0,-8.0,6.986
74.0,-8.0,6.987
86.0,-5.0,6.988
83.0,0.0,6.989
96.0,7.0,6.99
106.0,11.0,6.991
88.0,12.0,6.992
56.0,6.0,6.993
43.0,1.0,6.994
47.0,4.0,6.995
44.0,8.0,6.996
29.0,12.0,6.997
4.0,14.0,6.998
-29.0,8.0,6.999
-60.0,4.0,7.0
-88.0,5.0,7.001
-101.0,11.0,7.002
-69.0,16.0,7.003
-29.0,10.0,7.004
28.0,-8.0,7.005
75.0,-33.0,7.006
87.0,-52.0,7.007
62.0,-60.0,7.008
-72.0,-65.0,7.009
-161.0,-63.0,7.01
-109.0,-47.0,7.011
-66.0,-20.0,7.012
-51.0,8.0,7.013
-28.0,27.0,7.014
20.0,30.0,7.015
58.0,21.0,7.016
69.0,6.0,7.017
91.0,-7.0,7.018
179.0,-11.0,7.019
259.0,-12.0,7.02
205.0,-18.0,7.021
58.0,-17.0,7.022
-20.0,-4.0,7.023
4.0,12.0,7.024
9.0,20.0,7.025
-66.0,20.0,7.026
-152.0,23.0,7.027
-211.0,30.0,7.028
-284.0,34.0,7.029
-354.0,33.0,7.03
-321.0,31.0,7.031
-173.0,23.0,7.032
-32.0,11.0,7.033
22.0,3.0,7.034
44.0,2.0,7.035
89.0,5.0,7.036
117.0,4.0,7.037
85.0,-2.0,7.038
38.0,-8.0,7.039
38.0,-11.0,7.04
70.0,-16.0,7.041
82.0,-17.0,7.042
74.0,-15.0,7.043
70.0,-13.0,7.044
68.0,-9.0,7.045
55.0,3.0,7.046
48.0,15.0,7.047
58.0,15.0,7.048
71.0,3.0,7.049
68.0,-5.0,7.05
66.0,-1.0,7.051
76.0,10.0,7.052
83.0,14.0,7.053
72.0,12.0,7.054
49.0,11.0,7.055
23.0,16.0,7.056
-9.0,26.0,7.057
-204.0,18.0,7.058
-208.0,-15.0,7.059
-229.0,-45.0,7.06
-304.0,-61.0,7.061
-333.0,-68.0,7.062
-223.0,-44.0,7.063
-126.0,-23.0,7.064
-65.0,-12.0,7.065
-9.0,-4.0,7.066
31.0,-8.0,7.067
57.0,-14.0,7.068
41.0,-24.0,7.069
17.0,-26.0,7.07
-29.0,0.0,7.071
-54.0,18.0,7.072
-15.0,14.0,7.073
9.0,10.0,7.074
-11.0,11.0,7.075
-10.0,13.0,7.076
53.0,14.0,7.077
-229.0,17.0,7.078
-233.0,21.0,7.079
-259.0,20.0,7.08
-348.0,17.0,7.081
-383.0,18.0,7.082
-252.0,16.0,7.083
-135.0,6.0,7.084
-62.0,0.0,7.085
5.0,8.0,7.086
53.0,17.0,7.087
84.0,12.0,7.088
65.0,1.0,7.089
37.0,-1.0,7.09
-18.0,-4.0,7.091
-48.0,-15.0,7.092
-2.0,-20.0,7.093
27.0,-3.0,7.094
3.0,22.0,7.095
4.0,24.0,7.096
80.0,5.0,7.097
144.0,-12.0,7.098
132.0,-16.0,7.099
99.0,-21.0,7.1
96.0,-39.0,7.101
100.0,-55.0,7.102
94.0,-54.0,7.103
109.0,-38.0,7.104
145.0,-14.0,7.105
139.0,3.0,7.106
44.0,9.0,7.107
-68.0,8.0,7.108
-94.0,12.0,7.109
-4.0,23.0,7.11
120.0,31.0,7.111
171.0,31.0,7.112
129.0,28.0,7.113
69.0,24.0,7.114
43.0,17.0,7.115
-6.0,14.0,7.116
-121.0,18.0,7.117
-222.0,21.0,7.118
-204.0,14.0,7.119
-181.0,-1.0,7.12
-143.0,-18.0,7.121
-105.0,-31.0,7.122
-67.0,-41.0,7.123
-20.0,-43.0,7.124
53.0,-26.0,7.125
104.0,-2.0,7.126
86.0,8.0,7.127
71.0,4.0,7.128
61.0,2.0,7.129
57.0,10.0,7.13
70.0,16.0,7.131
81.0,11.0,7.132
80.0,3.0,7.133
71.0,3.0,7.134
39.0,8.0,7.135
8.0,8.0,7.136
-16.0,6.0,7.137
-33.0,3.0,7.138
-26.0,3.0,7.139
-38.0,2.0,7.14
-91.0,-4.0,7.141
-139.0,-6.0,7.142
-121.0,-6.0,7.143
-51.0,-4.0,7.144
2.0,-2.0,7.145
15.0,-3.0,7.146
15.0,-7.0,7.147
20.0,-14.0,7.148
29.0,-11.0,7.149
37.0,2.0,7.15
43.0,20.0,7.151
37.0,32.0,7.152
32.0,34.0,7.153
54.0,34.0,7.154
94.0,35.0,7.155
91.0,32.0,7.156
26.0,16.0,7.157
-45.0,-22.0,7.158
-58.0,-68.0,7.159
-66.0,-96.0,7.16
-59.0,-85.0,7.161
-48.0,-44.0,7.162
-23.0,-11.0,7.163
1.0,-9.0,7.164
23.0,-21.0,7.165
45.0,-20.0,7.166
63.0,-8.0,7.167
114.0,6.0,7.168
265.0,21.0,7.169
384.0,40.0,7.17
404.0,43.0,7.171
310.0,24.0,7.172
-123.0,1.0,7.173
-449.0,-5.0,7.174
-447.0,1.0,7.175
-428.0,3.0,7.176
-355.0,5.0,7.177
-291.0,15.0,7.178
-199.0,25.0,7.179
-47.0,23.0,7.18
14.0,11.0,7.181
-33.0,4.0,7.182
-36.0,0.0,7.183
48.0,-7.0,7.184
98.0,-13.0,7.185
58.0,-14.0,7.186
32.0,-16.0,7.187
78.0,-19.0,7.188
121.0,-15.0,7.189
102.0,-4.0,7.19
64.0,5.0,7.191
56.0,0.0,7.192
54.0,-7.0,7.193
36.0,-7.0,7.194
24.0,-3.0,7.195
34.0,2.0,7.196
59.0,10.0,7.197
121.0,14.0,7.198
226.0,10.0,7.199
285.0,-2.0,7.2
190.0,-12.0,7.201
-35.0,-11.0,7.202
-218.0,-9.0,7.203
-234.0,-3.0,7.204
-148.0,7.0,7.205
-91.0,19.0,7.206
-90.0,15.0,7.207
-72.0,1.0,7.208
-7.0,-3.0,7.209
53.0,7.0,7.21
67.0,15.0,7.211
48.0,10.0,7.212
20.0,5.0,7.213
-13.0,7.0,7.214
-41.0,10.0,7.215
-54.0,4.0,7.216
-49.0,-10.0,7.217
-41.0,-30.0,7.218
-30.0,-38.0,7.219
-8.0,-36.0,7.22
25.0,-5.0,7.221
53.0,19.0,7.222
68.0,23.0,7.223
83.0,20.0,7.224
109.0,-5.0,7.225
137.0,-27.0,7.226
165.0,-40.0,7.227
196.0,-44.0,7.228
203.0,-17.0,7.229
136.0,5.0,7.23
-14.0,9.0,7.231
-163.0,13.0,7.232
-219.0,17.0,7.233
-219.0,19.0,7.234
-258.0,15.0,7.235
-315.0,10.0,7.236
-273.0,6.0,7.237
-139.0,5.0,7.238
21.0,14.0,7.239
50.0,14.0,7.24
7.0,9.0,7.241
17.0,12.0,7.242
69.0,14.0,7.243
64.0,5.0,7.244
8.0,-11.0,7.245
-5.0,-23.0,7.246
39.0,-25.0,7.247
66.0,-22.0,7.248
57.0,-19.0,7.249
52.0,-17.0,7.25
66.0,-12.0,7.251
60.0,-4.0,7.252
27.0,7.0,7.253
6.0,11.0,7.254
23.0,7.0,7.255
51.0,1.0,7.256
62.0,3.0,7.257
41.0,7.0,7.258
1.0,4.0,7.259
-15.0,-4.0,7.26
26.0,-9.0,7.261
98.0,-6.0,7.262
140.0,0.0,7.263
119.0,5.0,7.264
58.0,9.0,7.265
-2.0,14.0,7.266
-52.0,18.0,7.267
-87.0,15.0,7.268
-104.0,7.0,7.269
-114.0,0.0,7.27
-126.0,-2.0,7.271
-122.0,0.0,7.272
-81.0,3.0,7.273
-18.0,7.0,7.274
23.0,11.0,7.275
28.0,12.0,7.276
19.0,15.0,7.277
11.0,11.0,7.278
7.0,5.0,7.279
12.0,-3.0,7.28
50.0,-15.0,7.281
137.0,-28.0,7.282
220.0,-39.0,7.283
199.0,-42.0,7.284
47.0,-31.0,7.285
-112.0,-14.0,7.286
-139.0,-11.0,7.287
-49.0,-23.0,7.288
14.0,-29.0,7.289
-8.0,-13.0,7.29
-30.0,8.0,7.291
2.0,14.0,7.292
41.0,5.0,7.293
43.0,1.0,7.294
45.0,5.0,7.295
49.0,8.0,7.296
-1.0,10.0,7.297
-115.0,12.0,7.298
-187.0,13.0,7.299
-159.0,7.0,7.3
-119.0,-4.0,7.301
-136.0,-4.0,7.302
-164.0,3.0,7.303
-151.0,5.0,7.304
-127.0,4.0,7.305
-114.0,13.0,7.306
-59.0,26.0,7.307
36.0,25.0,7.308
101.0,13.0,7.309
103.0,6.0,7.31
105.0,4.0,7.311
143.0,-6.0,7.312
157.0,-25.0,7.313
118.0,-42.0,7.314
83.0,-42.0,7.315
85.0,-30.0,7.316
91.0,-18.0,7.317
72.0,-12.0,7.318
58.0,-10.0,7.319
61.0,-7.0,7.32
55.0,-5.0,7.321
33.0,2.0,7.322
32.0,9.0,7.323
77.0,17.0,7.324
151.0,26.0,7.325
220.0,34.0,7.326
232.0,43.0,7.327
120.0,51.0,7.328
-83.0,55.0,7.329
-228.0,47.0,7.33
-218.0,24.0,7.331
-141.0,-3.0,7.332
-131.0,-21.0,7.333
-159.0,-26.0,7.334
-110.0,-24.0,7.335
-9.0,-24.0,7.336
25.0,-23.0,7.337
-28.0,-19.0,7.338
-58.0,-10.0,7.339
7.0,-5.0,7.34
127.0,-5.0,7.341
217.0,-4.0,7.342
231.0,-3.0,7.343
139.0,-7.0,7.344
-16.0,-22.0,7.345
-116.0,-41.0,7.346
-98.0,-52.0,7.347
-62.0,-45.0,7.348
-127.0,-23.0,7.349
-247.0,-2.0,7.35
-277.0,7.0,7.351
-189.0,6.0,7.352
-93.0,10.0,7.353
-56.0,21.0,7.354
-29.0,26.0,7.355
53.0,17.0,7.356
169.0,8.0,7.357
242.0,0.0,7.358
194.0,-12.0,7.359
32.0,-30.0,7.36
-116.0,-44.0,7.361
-130.0,-41.0,7.362
-38.0,-36.0,7.363
31.0,-49.0,7.364
36.0,-75.0,7.365
54.0,-90.0,7.366
123.0,-83.0,7.367
162.0,-63.0,7.368
121.0,-40.0,7.369
60.0,-19.0,7.37
42.0,-8.0,7.371
34.0,-17.0,7.372
-6.0,-38.0,7.373
-46.0,-39.0,7.374
-49.0,10.0,7.375
-44.0,100.0,7.376
-66.0,186.0,7.377
-98.0,236.0,7.378
-96.0,256.0,7.379
-67.0,264.0,7.38
-44.0,236.0,7.381
-25.0,198.0,7.382
5.0,135.0,7.383
36.0,77.0,7.384
40.0,38.0,7.385
23.0,4.0,7.386
19.0,-11.0,7.387
35.0,-27.0,7.388
69.0,-45.0,7.389
140.0,-62.0,7.39
248.0,-71.0,7.391
313.0,-79.0,7.392
232.0,-79.0,7.393
15.0,-77.0,7.394
-185.0,-67.0,7.395
-252.0,-57.0,7.396
-227.0,-50.0,7.397
-200.0,-44.0,7.398
-177.0,-43.0,7.399
-138.0,-38.0,7.4
-52.0,-43.0,7.401
19.0,-53.0,7.402
43.0,-59.0,7.403
64.0,-56.0,7.404
75.0,-55.0,7.405
78.0,-70.0,7.406
55.0,-85.0,7.407
52.0,-81.0,7.408
110.0,-57.0,7.409
146.0,-27.0,7.41
110.0,3.0,7.411
75.0,36.0,7.412
43.0,63.0,7.413
10.0,69.0,7.414
-27.0,51.0,7.415
-57.0,19.0,7.416
-66.0,-9.0,7.417
-74.0,-30.0,7.418
-91.0,-38.0,7.419
-135.0,-37.0,7.42
-122.0,-43.0,7.421
-12.0,-59.0,7.422
93.0,-74.0,7.423
50.0,-80.0,7.424
-109.0,-87.0,7.425
-207.0,-111.0,7.426
-149.0,-141.0,7.427
-38.0,-138.0,7.428
6.0,-78.0,7.429
0.0,24.0,7.43
27.0,128.0,7.431
99.0,202.0,7.432
172.0,238.0,7.433
200.0,241.0,7.434
148.0,214.0,7.435
31.0,169.0,7.436
-49.0,124.0,7.437
10.0,76.0,7.438
125.0,23.0,7.439
121.0,-42.0,7.44
-23.0,-112.0,7.441
-163.0,-160.0,7.442
-186.0,-178.0,7.443
-144.0,-179.0,7.444
-128.0,-171.0,7.445
-132.0,-150.0,7.446
-102.0,-113.0,7.447
-33.0,-72.0,7.448
48.0,-36.0,7.449
136.0,-3.0,7.45
219.0,29.0,7.451
226.0,65.0,7.452
101.0,109.0,7.453
-77.0,168.0,7.454
-169.0,242.0,7.455
-132.0,321.0,7.456
-72.0,378.0,7.457
-64.0,378.0,7.458
-65.0,307.0,7.459
-13.0,188.0,7.46
63.0,62.0,7.461
88.0,-39.0,7.462
71.0,-116.0,7.463
77.0,-167.0,7.464
122.0,-184.0,7.465
152.0,-177.0,7.466
148.0,-166.0,7.467
139.0,-161.0,7.468
133.0,-157.0,7.469
87.0,-147.0,7.47
-21.0,-139.0,7.471
-144.0,-124.0,7.472
-198.0,-84.0,7.473
-150.0,-22.0,7.474
-60.0,29.0,7.475
-21.0,52.0,7.476
-61.0,56.0,7.477
-120.0,51.0,7.478
-114.0,43.0,7.479
-46.0,23.0,7.48
12.0,0.0,7.481
37.0,-11.0,7.482
80.0,-12.0,7.483
166.0,-11.0,7.484
217.0,-12.0,7.485
155.0,-11.0,7.486
9.0,-12.0,7.487
-100.0,-21.0,7.488
-93.0,-32.0,7.489
-20.0,-43.0,7.49
12.0,-55.0,7.491
-34.0,-71.0,7.492
-97.0,-80.0,7.493
-109.0,-69.0,7.494
-87.0,-39.0,7.495
-71.0,-8.0,7.496
-55.0,7.0,7.497
-4.0,10.0,7.498
80.0,12.0,7.499
169.0,14.0,7.5
261.0,12.0,7.501
344.0,11.0,7.502
339.0,15.0,7.503
168.0,18.0,7.504
-113.0,20.0,7.505
-328.0,19.0,7.506
-369.0,9.0,7.507
-293.0,2.0,7.508
-198.0,3.0,7.509
-91.0,3.0,7.51
57.0,-2.0,7.511
187.0,-5.0,7.512
194.0,-3.0,7.513
86.0,2.0,7.514
-32.0,16.0,7.515
-98.0,30.0,7.516
-126.0,43.0,7.517
-134.0,59.0,7.518
-108.0,87.0,7.519
-78.0,116.0,7.52
-40.0,132.0,7.521
-1.0,140.0,7.522
40.0,129.0,7.523
71.0,93.0,7.524
