Deltoid,Bicep,Time
2.0,3.0,0.0
-2.0,0.0,0.001
-6.0,-5.0,0.002
-1.0,-10.0,0.003
8.0,-8.0,0.004
10.0,-1.0,0.005
3.0,4.0,0.006
1.0,5.0,0.007
5.0,3.0,0.008
5.0,-2.0,0.009
-1.0,-4.0,0.01
-4.0,-3.0,0.011
-2.0,-1.0,0.012
-1.0,-5.0,0.013
-2.0,-9.0,0.014
-2.0,-8.0,0.015
0.0,-2.0,0.016
4.0,3.0,0.017
3.0,-22.0,0.018
2.0,-18.0,0.019
2.0,-16.0,0.02
3.0,-19.0,0.021
6.0,-22.0,0.022
11.0,-20.0,0.023
14.0,-18.0,0.024
10.0,-17.0,0.025
3.0,-14.0,0.026
0.0,-9.0,0.027
2.0,-5.0,0.028
4.0,-1.0,0.029
5.0,3.0,0.03
1.0,5.0,0.031
-4.0,7.0,0.032
-11.0,11.0,0.033
-10.0,14.0,0.034
-2.0,14.0,0.035
9.0,14.0,0.036
11.0,14.0,0.037
3.0,-25.0,0.038
-5.0,-21.0,0.039
-8.0,-18.0,0.04
-4.0,-22.0,0.041
4.0,-25.0,0.042
18.0,-23.0,0.043
30.0,-21.0,0.044
34.0,-19.0,0.045
29.0,-16.0,0.046
23.0,-10.0,0.047
17.0,-5.0,0.048
10.0,0.0,0.049
-2.0,5.0,0.05
-12.0,7.0,0.051
-18.0,10.0,0.052
-21.0,14.0,0.053
-19.0,17.0,0.054
-11.0,17.0,0.055
-2.0,18.0,0.056
1.0,18.0,0.057
-19.0,17.0,0.058
-6.0,15.0,0.059
3.0,6.0,0.06
-14.0,-3.0,0.061
-23.0,-1.0,0.062
-10.0,6.0,0.063
3.0,11.0,0.064
20.0,11.0,0.065
28.0,13.0,0.066
15.0,15.0,0.067
7.0,12.0,0.068
24.0,7.0,0.069
33.0,3.0,0.07
24.0,3.0,0.071
15.0,2.0,0.072
11.0,-1.0,0.073
7.0,-1.0,0.074
7.0,0.0,0.075
7.0,-2.0,0.076
-1.0,-2.0,0.077
-19.0,-2.0,0.078
-6.0,-1.0,0.079
3.0,-2.0,0.08
-15.0,-7.0,0.081
-24.0,-8.0,0.082
-10.0,-6.0,0.083
3.0,-4.0,0.084
20.0,-1.0,0.085
29.0,3.0,0.086
15.0,7.0,0.087
7.0,7.0,0.088
24.0,7.0,0.089
33.0,8.0,0.09
24.0,8.0,0.091
15.0,6.0,0.092
11.0,3.0,0.093
7.0,5.0,0.094
7.0,7.0,0.095
7.0,5.0,0.096
-1.0,-2.0,0.097
1.0,-11.0,0.098
4.0,-17.0,0.099
6.0,-18.0,0.1
2.0,-22.0,0.101
0.0,-23.0,0.102
3.0,-21.0,0.103
6.0,-16.0,0.104
10.0,-10.0,0.105
12.0,-6.0,0.106
9.0,-6.0,0.107
7.0,-6.0,0.108
11.0,-6.0,0.109
13.0,-6.0,0.11
11.0,-7.0,0.111
9.0,-7.0,0.112
8.0,-2.0,0.113
7.0,4.0,0.114
7.0,7.0,0.115
7.0,5.0,0.116
5.0,3.0,0.117
5.0,1.0,0.118
5.0,0.0,0.119
2.0,1.0,0.12
-3.0,2.0,0.121
-5.0,4.0,0.122
1.0,3.0,0.123
11.0,4.0,0.124
8.0,7.0,0.125
-4.0,10.0,0.126
-12.0,8.0,0.127
-8.0,3.0,0.128
1.0,2.0,0.129
5.0,5.0,0.13
8.0,4.0,0.131
11.0,-2.0,0.132
15.0,-10.0,0.133
15.0,-12.0,0.134
12.0,-11.0,0.135
5.0,-12.0,0.136
0.0,-13.0,0.137
-5.0,-17.0,0.138
-8.0,-15.0,0.139
-14.0,-10.0,0.14
-20.0,-5.0,0.141
-20.0,3.0,0.142
-12.0,7.0,0.143
-1.0,9.0,0.144
0.0,13.0,0.145
-5.0,26.0,0.146
-6.0,39.0,0.147
2.0,46.0,0.148
9.0,43.0,0.149
10.0,31.0,0.15
8.0,15.0,0.151
10.0,-1.0,0.152
8.0,-15.0,0.153
5.0,-28.0,0.154
1.0,-35.0,0.155
-1.0,-36.0,0.156
-3.0,-31.0,0.157
-1.0,-28.0,0.158
4.0,-24.0,0.159
7.0,-18.0,0.16
2.0,-13.0,0.161
-2.0,-10.0,0.162
1.0,-9.0,0.163
12.0,-8.0,0.164
12.0,-7.0,0.165
2.0,-6.0,0.166
-2.0,-6.0,0.167
3.0,-5.0,0.168
8.0,-2.0,0.169
5.0,0.0,0.17
0.0,2.0,0.171
3.0,4.0,0.172
5.0,6.0,0.173
2.0,6.0,0.174
-1.0,4.0,0.175
1.0,4.0,0.176
5.0,6.0,0.177
2.0,7.0,0.178
-1.0,8.0,0.179
-1.0,9.0,0.18
0.0,9.0,0.181
-1.0,10.0,0.182
0.0,10.0,0.183
6.0,9.0,0.184
8.0,9.0,0.185
4.0,10.0,0.186
2.0,12.0,0.187
9.0,16.0,0.188
12.0,27.0,0.189
8.0,35.0,0.19
3.0,31.0,0.191
0.0,20.0,0.192
-6.0,-13.0,0.193
-12.0,-41.0,0.194
-7.0,-53.0,0.195
12.0,-57.0,0.196
29.0,-39.0,0.197
5.0,-21.0,0.198
8.0,-8.0,0.199
7.0,-3.0,0.2
0.0,-2.0,0.201
-4.0,0.0,0.202
0.0,2.0,0.203
10.0,5.0,0.204
13.0,9.0,0.205
5.0,10.0,0.206
3.0,8.0,0.207
8.0,3.0,0.208
9.0,2.0,0.209
0.0,6.0,0.21
-3.0,8.0,0.211
2.0,5.0,0.212
8.0,1.0,0.213
5.0,0.0,0.214
1.0,-2.0,0.215
1.0,-6.0,0.216
4.0,-5.0,0.217
5.0,-2.0,0.218
1.0,0.0,0.219
-2.0,-1.0,0.22
-6.0,-4.0,0.221
-7.0,-3.0,0.222
-1.0,-1.0,0.223
8.0,1.0,0.224
10.0,6.0,0.225
3.0,12.0,0.226
0.0,12.0,0.227
2.0,7.0,0.228
7.0,2.0,0.229
7.0,3.0,0.23
6.0,2.0,0.231
6.0,-2.0,0.232
4.0,-6.0,0.233
0.0,-6.0,0.234
-1.0,-7.0,0.235
-1.0,-10.0,0.236
0.0,-13.0,0.237
-3.0,-13.0,0.238
-5.0,-8.0,0.239
-8.0,-2.0,0.24
-8.0,-3.0,0.241
-3.0,-4.0,0.242
6.0,0.0,0.243
12.0,6.0,0.244
8.0,10.0,0.245
5.0,8.0,0.246
4.0,7.0,0.247
5.0,5.0,0.248
2.0,4.0,0.249
1.0,1.0,0.25
6.0,-2.0,0.251
11.0,-4.0,0.252
7.0,-4.0,0.253
3.0,-1.0,0.254
5.0,6.0,0.255
12.0,20.0,0.256
13.0,37.0,0.257
6.0,48.0,0.258
2.0,39.0,0.259
1.0,10.0,0.26
2.0,-27.0,0.261
1.0,-48.0,0.262
4.0,-51.0,0.263
9.0,-36.0,0.264
10.0,-18.0,0.265
4.0,-5.0,0.266
-1.0,-2.0,0.267
1.0,-1.0,0.268
5.0,-2.0,0.269
5.0,-4.0,0.27
1.0,-11.0,0.271
-4.0,-20.0,0.272
-8.0,-24.0,0.273
-9.0,-22.0,0.274
-5.0,-21.0,0.275
0.0,-20.0,0.276
2.0,-12.0,0.277
1.0,-3.0,0.278
-3.0,1.0,0.279
-7.0,0.0,0.28
-10.0,-3.0,0.281
-8.0,2.0,0.282
-1.0,10.0,0.283
6.0,13.0,0.284
5.0,16.0,0.285
-1.0,19.0,0.286
-5.0,20.0,0.287
0.0,13.0,0.288
7.0,11.0,0.289
11.0,13.0,0.29
11.0,17.0,0.291
11.0,15.0,0.292
13.0,10.0,0.293
9.0,5.0,0.294
4.0,2.0,0.295
3.0,0.0,0.296
5.0,3.0,0.297
5.0,4.0,0.298
3.0,3.0,0.299
0.0,-1.0,0.3
-3.0,-6.0,0.301
-4.0,-4.0,0.302
-2.0,0.0,0.303
8.0,0.0,0.304
14.0,3.0,0.305
12.0,4.0,0.306
8.0,2.0,0.307
9.0,0.0,0.308
11.0,1.0,0.309
6.0,3.0,0.31
2.0,1.0,0.311
2.0,-5.0,0.312
2.0,-9.0,0.313
0.0,-7.0,0.314
0.0,-4.0,0.315
1.0,-3.0,0.316
4.0,-2.0,0.317
0.0,-3.0,0.318
-2.0,-4.0,0.319
-1.0,-4.0,0.32
-1.0,-6.0,0.321
-2.0,-4.0,0.322
1.0,-3.0,0.323
6.0,-2.0,0.324
4.0,0.0,0.325
-5.0,5.0,0.326
-10.0,6.0,0.327
-6.0,4.0,0.328
0.0,1.0,0.329
1.0,1.0,0.33
3.0,-1.0,0.331
7.0,-6.0,0.332
9.0,-9.0,0.333
7.0,-7.0,0.334
7.0,-5.0,0.335
7.0,-6.0,0.336
5.0,-6.0,0.337
-1.0,-5.0,0.338
-1.0,-1.0,0.339
-2.0,-1.0,0.34
-3.0,-7.0,0.341
-3.0,-9.0,0.342
4.0,-8.0,0.343
10.0,-6.0,0.344
8.0,-3.0,0.345
7.0,0.0,0.346
5.0,0.0,0.347
4.0,1.0,0.348
7.0,3.0,0.349
9.0,6.0,0.35
5.0,5.0,0.351
2.0,2.0,0.352
2.0,0.0,0.353
2.0,3.0,0.354
-2.0,4.0,0.355
-4.0,1.0,0.356
-1.0,0.0,0.357
2.0,0.0,0.358
-1.0,0.0,0.359
-3.0,-4.0,0.36
0.0,-7.0,0.361
3.0,-5.0,0.362
7.0,-2.0,0.363
13.0,0.0,0.364
14.0,4.0,0.365
6.0,9.0,0.366
1.0,7.0,0.367
3.0,1.0,0.368
6.0,-5.0,0.369
4.0,-5.0,0.37
1.0,-2.0,0.371
7.0,-2.0,0.372
13.0,-4.0,0.373
8.0,-5.0,0.374
2.0,-4.0,0.375
2.0,-3.0,0.376
4.0,-1.0,0.377
-1.0,-5.0,0.378
-7.0,-8.0,0.379
-10.0,-11.0,0.38
-6.0,-10.0,0.381
-2.0,-5.0,0.382
3.0,0.0,0.383
9.0,4.0,0.384
10.0,6.0,0.385
3.0,8.0,0.386
-4.0,5.0,0.387
-6.0,1.0,0.388
-9.0,-1.0,0.389
-9.0,-1.0,0.39
-4.0,0.0,0.391
5.0,1.0,0.392
13.0,0.0,0.393
12.0,-1.0,0.394
8.0,-6.0,0.395
10.0,-8.0,0.396
12.0,-5.0,0.397
4.0,-3.0,0.398
-5.0,1.0,0.399
-8.0,4.0,0.4
-2.0,3.0,0.401
3.0,2.0,0.402
3.0,3.0,0.403
3.0,4.0,0.404
6.0,7.0,0.405
7.0,9.0,0.406
6.0,6.0,0.407
7.0,4.0,0.408
11.0,3.0,0.409
10.0,2.0,0.41
2.0,2.0,0.411
-5.0,1.0,0.412
-8.0,0.0,0.413
-6.0,-2.0,0.414
0.0,0.0,0.415
9.0,0.0,0.416
22.0,-4.0,0.417
28.0,-7.0,0.418
28.0,-10.0,0.419
22.0,-5.0,0.42
0.0,-3.0,0.421
-15.0,-2.0,0.422
-13.0,-3.0,0.423
-10.0,-3.0,0.424
-4.0,0.0,0.425
0.0,2.0,0.426
-1.0,4.0,0.427
-3.0,4.0,0.428
2.0,4.0,0.429
5.0,4.0,0.43
-2.0,2.0,0.431
-7.0,0.0,0.432
-3.0,0.0,0.433
1.0,-1.0,0.434
0.0,0.0,0.435
-1.0,-2.0,0.436
3.0,-3.0,0.437
6.0,-6.0,0.438
3.0,-6.0,0.439
-5.0,-8.0,0.44
-6.0,-11.0,0.441
-3.0,-12.0,0.442
1.0,-8.0,0.443
5.0,-3.0,0.444
6.0,-1.0,0.445
3.0,2.0,0.446
-1.0,5.0,0.447
-3.0,7.0,0.448
-1.0,7.0,0.449
1.0,7.0,0.45
2.0,7.0,0.451
4.0,5.0,0.452
11.0,3.0,0.453
17.0,3.0,0.454
20.0,1.0,0.455
16.0,-3.0,0.456
6.0,-7.0,0.457
-5.0,-8.0,0.458
-11.0,-7.0,0.459
-14.0,-6.0,0.46
-14.0,-9.0,0.461
-12.0,-6.0,0.462
-4.0,-2.0,0.463
9.0,2.0,0.464
17.0,5.0,0.465
20.0,7.0,0.466
20.0,6.0,0.467
24.0,3.0,0.468
26.0,1.0,0.469
24.0,1.0,0.47
16.0,0.0,0.471
1.0,-3.0,0.472
-11.0,-6.0,0.473
-16.0,-3.0,0.474
-8.0,-1.0,0.475
3.0,-3.0,0.476
8.0,-5.0,0.477
3.0,-5.0,0.478
0.0,-3.0,0.479
-3.0,-2.0,0.48
-9.0,-2.0,0.481
-14.0,0.0,0.482
-9.0,2.0,0.483
0.0,5.0,0.484
3.0,5.0,0.485
-3.0,5.0,0.486
-6.0,5.0,0.487
1.0,5.0,0.488
8.0,1.0,0.489
4.0,-2.0,0.49
-1.0,0.0,0.491
0.0,0.0,0.492
1.0,-4.0,0.493
1.0,-7.0,0.494
1.0,-7.0,0.495
4.0,-7.0,0.496
9.0,-5.0,0.497
8.0,-3.0,0.498
6.0,0.0,0.499
4.0,2.0,0.5
2.0,-3.0,0.501
1.0,-8.0,0.502
2.0,-7.0,0.503
3.0,-1.0,0.504
1.0,5.0,0.505
0.0,7.0,0.506
1.0,4.0,0.507
1.0,3.0,0.508
-3.0,2.0,0.509
-6.0,2.0,0.51
0.0,-1.0,0.511
5.0,-6.0,0.512
10.0,-8.0,0.513
15.0,-8.0,0.514
15.0,-7.0,0.515
15.0,-7.0,0.516
12.0,-5.0,0.517
7.0,-5.0,0.518
0.0,-2.0,0.519
-7.0,-1.0,0.52
-12.0,-2.0,0.521
-11.0,-3.0,0.522
-1.0,-2.0,0.523
10.0,1.0,0.524
12.0,7.0,0.525
7.0,13.0,0.526
2.0,15.0,0.527
1.0,12.0,0.528
-3.0,7.0,0.529
-7.0,5.0,0.53
-3.0,3.0,0.531
7.0,-1.0,0.532
13.0,-6.0,0.533
10.0,-7.0,0.534
6.0,-5.0,0.535
7.0,-3.0,0.536
7.0,-1.0,0.537
6.0,-4.0,0.538
3.0,-4.0,0.539
-1.0,-4.0,0.54
-11.0,-5.0,0.541
-17.0,-6.0,0.542
-9.0,-6.0,0.543
5.0,-4.0,0.544
7.0,0.0,0.545
-1.0,3.0,0.546
-1.0,4.0,0.547
12.0,5.0,0.548
21.0,5.0,0.549
16.0,3.0,0.55
9.0,1.0,0.551
9.0,0.0,0.552
9.0,1.0,0.553
4.0,2.0,0.554
-1.0,2.0,0.555
-1.0,0.0,0.556
1.0,-4.0,0.557
0.0,-8.0,0.558
-1.0,-8.0,0.559
-3.0,-4.0,0.56
-7.0,-5.0,0.561
-7.0,-4.0,0.562
6.0,-2.0,0.563
16.0,3.0,0.564
17.0,6.0,0.565
18.0,8.0,0.566
15.0,7.0,0.567
11.0,8.0,0.568
4.0,7.0,0.569
-4.0,2.0,0.57
-16.0,-4.0,0.571
-21.0,-6.0,0.572
-5.0,-5.0,0.573
7.0,-5.0,0.574
1.0,-7.0,0.575
-3.0,-7.0,0.576
-1.0,-6.0,0.577
1.0,-5.0,0.578
2.0,-5.0,0.579
-5.0,-3.0,0.58
-8.0,-5.0,0.581
-6.0,-3.0,0.582
-2.0,2.0,0.583
3.0,9.0,0.584
7.0,14.0,0.585
4.0,11.0,0.586
1.0,6.0,0.587
4.0,1.0,0.588
10.0,1.0,0.589
11.0,2.0,0.59
5.0,1.0,0.591
2.0,-3.0,0.592
3.0,-5.0,0.593
1.0,-6.0,0.594
-6.0,-6.0,0.595
-9.0,-5.0,0.596
-4.0,-1.0,0.597
2.0,0.0,0.598
10.0,0.0,0.599
15.0,0.0,0.6
20.0,0.0,0.601
21.0,1.0,0.602
17.0,0.0,0.603
9.0,0.0,0.604
-3.0,3.0,0.605
-12.0,8.0,0.606
-14.0,6.0,0.607
-8.0,0.0,0.608
-1.0,-1.0,0.609
4.0,0.0,0.61
5.0,0.0,0.611
5.0,-3.0,0.612
5.0,-5.0,0.613
6.0,-4.0,0.614
10.0,-2.0,0.615
13.0,-2.0,0.616
8.0,-3.0,0.617
0.0,-7.0,0.618
-2.0,-9.0,0.619
-3.0,-8.0,0.62
-6.0,-9.0,0.621
-4.0,-5.0,0.622
5.0,-2.0,0.623
15.0,1.0,0.624
12.0,4.0,0.625
1.0,5.0,0.626
-2.0,4.0,0.627
3.0,1.0,0.628
6.0,-2.0,0.629
-2.0,0.0,0.63
-8.0,0.0,0.631
-6.0,-2.0,0.632
0.0,-7.0,0.633
0.0,-10.0,0.634
-1.0,-11.0,0.635
-2.0,-9.0,0.636
0.0,-5.0,0.637
2.0,-1.0,0.638
4.0,2.0,0.639
0.0,1.0,0.64
-5.0,-4.0,0.641
-5.0,-6.0,0.642
5.0,-2.0,0.643
14.0,3.0,0.644
10.0,9.0,0.645
2.0,13.0,0.646
1.0,12.0,0.647
4.0,10.0,0.648
2.0,7.0,0.649
-1.0,6.0,0.65
4.0,4.0,0.651
14.0,2.0,0.652
14.0,0.0,0.653
3.0,0.0,0.654
-2.0,0.0,0.655
1.0,-1.0,0.656
10.0,-2.0,0.657
11.0,-4.0,0.658
6.0,-4.0,0.659
-1.0,-6.0,0.66
-8.0,-9.0,0.661
-15.0,-8.0,0.662
-16.0,-2.0,0.663
-10.0,5.0,0.664
-2.0,11.0,0.665
7.0,15.0,0.666
17.0,15.0,0.667
23.0,10.0,0.668
26.0,4.0,0.669
25.0,0.0,0.67
23.0,-2.0,0.671
22.0,-3.0,0.672
22.0,-4.0,0.673
20.0,-5.0,0.674
13.0,-7.0,0.675
0.0,-9.0,0.676
-8.0,-8.0,0.677
-14.0,-8.0,0.678
-15.0,-6.0,0.679
-15.0,-7.0,0.68
-10.0,-9.0,0.681
-1.0,-9.0,0.682
5.0,-7.0,0.683
6.0,-3.0,0.684
4.0,2.0,0.685
1.0,5.0,0.686
-3.0,4.0,0.687
-7.0,4.0,0.688
-9.0,5.0,0.689
-6.0,6.0,0.69
0.0,3.0,0.691
1.0,-1.0,0.692
-1.0,-3.0,0.693
-2.0,-3.0,0.694
2.0,-3.0,0.695
8.0,-6.0,0.696
8.0,-6.0,0.697
0.0,-6.0,0.698
-4.0,-4.0,0.699
-4.0,-4.0,0.7
-2.0,-7.0,0.701
-4.0,-6.0,0.702
-3.0,-5.0,0.703
-3.0,-4.0,0.704
-5.0,0.0,0.705
-3.0,6.0,0.706
11.0,9.0,0.707
27.0,9.0,0.708
27.0,8.0,0.709
12.0,7.0,0.71
0.0,1.0,0.711
0.0,-5.0,0.712
0.0,-9.0,0.713
-4.0,-10.0,0.714
-5.0,-8.0,0.715
0.0,-7.0,0.716
3.0,-1.0,0.717
2.0,3.0,0.718
4.0,3.0,0.719
8.0,0.0,0.72
5.0,-3.0,0.721
-2.0,1.0,0.722
0.0,7.0,0.723
9.0,7.0,0.724
9.0,5.0,0.725
1.0,5.0,0.726
3.0,4.0,0.727
14.0,3.0,0.728
16.0,0.0,0.729
3.0,-2.0,0.73
-4.0,-3.0,0.731
-1.0,-4.0,0.732
-6.0,-3.0,0.733
-21.0,0.0,0.734
-23.0,0.0,0.735
-6.0,-5.0,0.736
11.0,-10.0,0.737
10.0,-8.0,0.738
2.0,-5.0,0.739
0.0,-2.0,0.74
-1.0,-4.0,0.741
-2.0,-4.0,0.742
2.0,0.0,0.743
15.0,6.0,0.744
18.0,13.0,0.745
7.0,15.0,0.746
-1.0,9.0,0.747
1.0,-2.0,0.748
5.0,-9.0,0.749
5.0,-12.0,0.75
3.0,-11.0,0.751
6.0,-11.0,0.752
8.0,-5.0,0.753
7.0,4.0,0.754
12.0,12.0,0.755
15.0,12.0,0.756
13.0,8.0,0.757
6.0,1.0,0.758
5.0,-3.0,0.759
2.0,-5.0,0.76
-9.0,-6.0,0.761
-23.0,-5.0,0.762
-20.0,-1.0,0.763
-5.0,3.0,0.764
7.0,5.0,0.765
4.0,5.0,0.766
1.0,4.0,0.767
5.0,1.0,0.768
5.0,0.0,0.769
0.0,-3.0,0.77
4.0,-6.0,0.771
22.0,-6.0,0.772
35.0,-7.0,0.773
32.0,-8.0,0.774
23.0,-8.0,0.775
14.0,-6.0,0.776
0.0,-2.0,0.777
-21.0,-3.0,0.778
-31.0,-6.0,0.779
-23.0,-6.0,0.78
-9.0,-6.0,0.781
-4.0,-3.0,0.782
-1.0,-2.0,0.783
4.0,0.0,0.784
9.0,6.0,0.785
7.0,11.0,0.786
6.0,9.0,0.787
11.0,5.0,0.788
15.0,3.0,0.789
7.0,2.0,0.79
0.0,2.0,0.791
4.0,0.0,0.792
11.0,0.0,0.793
9.0,1.0,0.794
3.0,2.0,0.795
1.0,-1.0,0.796
0.0,-1.0,0.797
-6.0,-2.0,0.798
-12.0,-2.0,0.799
-13.0,-2.0,0.8
-8.0,-6.0,0.801
-3.0,-6.0,0.802
6.0,-5.0,0.803
19.0,-7.0,0.804
23.0,-6.0,0.805
16.0,-3.0,0.806
6.0,-3.0,0.807
3.0,-4.0,0.808
4.0,-2.0,0.809
0.0,7.0,0.81
-4.0,12.0,0.811
-2.0,10.0,0.812
0.0,8.0,0.813
-2.0,10.0,0.814
-5.0,11.0,0.815
-6.0,5.0,0.816
-1.0,-1.0,0.817
2.0,-5.0,0.818
6.0,-4.0,0.819
4.0,-5.0,0.82
-1.0,-9.0,0.821
-2.0,-8.0,0.822
10.0,-2.0,0.823
27.0,2.0,0.824
32.0,3.0,0.825
24.0,6.0,0.826
16.0,7.0,0.827
12.0,2.0,0.828
4.0,-4.0,0.829
-13.0,-5.0,0.83
-27.0,-1.0,0.831
-30.0,-1.0,0.832
-25.0,-4.0,0.833
-22.0,-6.0,0.834
-22.0,-5.0,0.835
-14.0,-3.0,0.836
0.0,-1.0,0.837
11.0,-2.0,0.838
12.0,-1.0,0.839
4.0,-4.0,0.84
-6.0,-7.0,0.841
-8.0,-5.0,0.842
0.0,-2.0,0.843
10.0,0.0,0.844
10.0,0.0,0.845
3.0,2.0,0.846
1.0,6.0,0.847
5.0,5.0,0.848
7.0,-1.0,0.849
7.0,-3.0,0.85
10.0,0.0,0.851
17.0,-2.0,0.852
17.0,-6.0,0.853
8.0,-5.0,0.854
0.0,-2.0,0.855
4.0,-5.0,0.856
15.0,-8.0,0.857
14.0,-8.0,0.858
5.0,-1.0,0.859
-2.0,3.0,0.86
-1.0,-2.0,0.861
1.0,-4.0,0.862
3.0,1.0,0.863
8.0,7.0,0.864
14.0,7.0,0.865
13.0,8.0,0.866
3.0,6.0,0.867
-2.0,5.0,0.868
3.0,6.0,0.869
10.0,7.0,0.87
7.0,5.0,0.871
-1.0,3.0,0.872
-4.0,0.0,0.873
-1.0,-4.0,0.874
1.0,-9.0,0.875
-1.0,-13.0,0.876
-4.0,-7.0,0.877
-3.0,-1.0,0.878
0.0,1.0,0.879
1.0,-2.0,0.88
-7.0,-9.0,0.881
-10.0,-9.0,0.882
4.0,-3.0,0.883
15.0,2.0,0.884
12.0,5.0,0.885
8.0,10.0,0.886
3.0,12.0,0.887
-2.0,11.0,0.888
-8.0,6.0,0.889
-14.0,0.0,0.89
-18.0,-5.0,0.891
-19.0,-8.0,0.892
-7.0,-7.0,0.893
3.0,-8.0,0.894
9.0,-8.0,0.895
15.0,-7.0,0.896
15.0,-3.0,0.897
12.0,-7.0,0.898
3.0,-5.0,0.899
1.0,-4.0,0.9
8.0,-4.0,0.901
18.0,-4.0,0.902
25.0,0.0,0.903
25.0,4.0,0.904
12.0,8.0,0.905
-8.0,9.0,0.906
-18.0,6.0,0.907
-18.0,3.0,0.908
-15.0,0.0,0.909
-11.0,-1.0,0.91
3.0,0.0,0.911
22.0,0.0,0.912
23.0,0.0,0.913
-1.0,-1.0,0.914
-17.0,-3.0,0.915
-8.0,-4.0,0.916
1.0,-3.0,0.917
-13.0,-9.0,0.918
-31.0,-7.0,0.919
-18.0,-6.0,0.92
16.0,-6.0,0.921
30.0,-5.0,0.922
16.0,0.0,0.923
1.0,6.0,0.924
5.0,10.0,0.925
15.0,12.0,0.926
18.0,8.0,0.927
17.0,4.0,0.928
15.0,1.0,0.929
6.0,-2.0,0.93
-3.0,0.0,0.931
-1.0,1.0,0.932
6.0,0.0,0.933
9.0,-2.0,0.934
6.0,-4.0,0.935
6.0,-6.0,0.936
9.0,-4.0,0.937
4.0,-2.0,0.938
0.0,0.0,0.939
0.0,-3.0,0.94
2.0,-6.0,0.941
0.0,-5.0,0.942
-3.0,-2.0,0.943
0.0,0.0,0.944
5.0,3.0,0.945
2.0,6.0,0.946
-4.0,7.0,0.947
-8.0,2.0,0.948
-6.0,0.0,0.949
-3.0,1.0,0.95
2.0,3.0,0.951
7.0,-1.0,0.952
4.0,-7.0,0.953
-3.0,-7.0,0.954
-6.0,-5.0,0.955
-3.0,-7.0,0.956
3.0,-9.0,0.957
3.0,-10.0,0.958
1.0,-10.0,0.959
-2.0,-12.0,0.96
-5.0,-14.0,0.961
-5.0,-8.0,0.962
1.0,1.0,0.963
11.0,9.0,0.964
14.0,14.0,0.965
7.0,22.0,0.966
3.0,28.0,0.967
4.0,26.0,0.968
6.0,19.0,0.969
2.0,13.0,0.97
0.0,8.0,0.971
1.0,2.0,0.972
1.0,-3.0,0.973
-3.0,-4.0,0.974
-5.0,-4.0,0.975
-3.0,-6.0,0.976
3.0,-5.0,0.977
7.0,-5.0,0.978
13.0,-3.0,0.979
20.0,-5.0,0.98
30.0,-10.0,0.981
35.0,-10.0,0.982
29.0,-8.0,0.983
12.0,-3.0,0.984
-10.0,0.0,0.985
-20.0,2.0,0.986
-16.0,1.0,0.987
-15.0,-1.0,0.988
-25.0,-5.0,0.989
-33.0,-7.0,0.99
-22.0,-7.0,0.991
-1.0,-7.0,0.992
9.0,-8.0,0.993
-3.0,-5.0,0.994
-16.0,-3.0,0.995
-10.0,0.0,0.996
7.0,0.0,0.997
18.0,-3.0,0.998
13.0,-5.0,0.999
1.0,-7.0,1.0
-3.0,-7.0,1.001
0.0,-5.0,1.002
8.0,-1.0,1.003
15.0,3.0,1.004
16.0,6.0,1.005
13.0,9.0,1.006
9.0,7.0,1.007
8.0,6.0,1.008
10.0,4.0,1.009
8.0,3.0,1.01
4.0,3.0,1.011
6.0,4.0,1.012
12.0,4.0,1.013
17.0,2.0,1.014
17.0,-3.0,1.015
13.0,-6.0,1.016
5.0,-3.0,1.017
-7.0,-1.0,1.018
-14.0,-3.0,1.019
-13.0,-4.0,1.02
-4.0,-5.0,1.021
6.0,-2.0,1.022
14.0,3.0,1.023
18.0,14.0,1.024
16.0,23.0,1.025
6.0,23.0,1.026
-1.0,11.0,1.027
-1.0,-1.0,1.028
2.0,-7.0,1.029
0.0,-6.0,1.03
0.0,-4.0,1.031
3.0,-5.0,1.032
4.0,-6.0,1.033
-1.0,-8.0,1.034
-4.0,-9.0,1.035
2.0,-10.0,1.036
8.0,-11.0,1.037
1.0,-9.0,1.038
-9.0,-9.0,1.039
-13.0,-9.0,1.04
-8.0,-11.0,1.041
0.0,-9.0,1.042
10.0,0.0,1.043
12.0,7.0,1.044
0.0,13.0,1.045
-22.0,16.0,1.046
-34.0,10.0,1.047
-24.0,4.0,1.048
-1.0,-1.0,1.049
16.0,-5.0,1.05
20.0,-3.0,1.051
17.0,-2.0,1.052
12.0,-5.0,1.053
13.0,-8.0,1.054
17.0,-6.0,1.055
19.0,-5.0,1.056
13.0,-6.0,1.057
-4.0,-7.0,1.058
-9.0,-7.0,1.059
3.0,-7.0,1.06
14.0,-8.0,1.061
2.0,-7.0,1.062
-13.0,0.0,1.063
-7.0,5.0,1.064
13.0,9.0,1.065
22.0,11.0,1.066
16.0,7.0,1.067
14.0,3.0,1.068
25.0,-1.0,1.069
28.0,-4.0,1.07
9.0,-3.0,1.071
-16.0,-2.0,1.072
-27.0,-4.0,1.073
-30.0,-6.0,1.074
-29.0,-5.0,1.075
-15.0,-4.0,1.076
13.0,-5.0,1.077
34.0,-5.0,1.078
29.0,-3.0,1.079
11.0,-1.0,1.08
3.0,-5.0,1.081
0.0,-6.0,1.082
-13.0,-5.0,1.083
-30.0,-2.0,1.084
-30.0,3.0,1.085
-13.0,3.0,1.086
1.0,2.0,1.087
2.0,1.0,1.088
0.0,1.0,1.089
0.0,-1.0,1.09
2.0,-4.0,1.091
3.0,-7.0,1.092
5.0,-9.0,1.093
7.0,-10.0,1.094
7.0,-9.0,1.095
8.0,-6.0,1.096
12.0,1.0,1.097
12.0,1.0,1.098
8.0,1.0,1.099
-1.0,2.0,1.1
-4.0,0.0,1.101
-4.0,-1.0,1.102
2.0,0.0,1.103
10.0,2.0,1.104
13.0,5.0,1.105
9.0,10.0,1.106
5.0,7.0,1.107
6.0,4.0,1.108
10.0,1.0,1.109
10.0,-1.0,1.11
7.0,-1.0,1.111
7.0,-1.0,1.112
8.0,-2.0,1.113
10.0,-4.0,1.114
13.0,0.0,1.115
18.0,1.0,1.116
19.0,-4.0,1.117
13.0,1.0,1.118
5.0,1.0,1.119
0.0,2.0,1.12
-6.0,0.0,1.121
-20.0,-1.0,1.122
-28.0,0.0,1.123
-20.0,2.0,1.124
-1.0,4.0,1.125
12.0,7.0,1.126
12.0,5.0,1.127
9.0,3.0,1.128
10.0,1.0,1.129
12.0,-1.0,1.13
7.0,-1.0,1.131
-3.0,-1.0,1.132
-12.0,-2.0,1.133
-13.0,-3.0,1.134
-9.0,0.0,1.135
-6.0,1.0,1.136
-5.0,-3.0,1.137
-6.0,-6.0,1.138
0.0,-7.0,1.139
8.0,-6.0,1.14
12.0,-7.0,1.141
5.0,-7.0,1.142
2.0,-3.0,1.143
6.0,3.0,1.144
11.0,7.0,1.145
5.0,6.0,1.146
-1.0,3.0,1.147
1.0,-1.0,1.148
8.0,-4.0,1.149
8.0,-6.0,1.15
3.0,-4.0,1.151
4.0,-3.0,1.152
10.0,-4.0,1.153
11.0,-7.0,1.154
10.0,-7.0,1.155
12.0,-4.0,1.156
15.0,-1.0,1.157
13.0,-5.0,1.158
8.0,-7.0,1.159
5.0,-8.0,1.16
3.0,-9.0,1.161
-1.0,-11.0,1.162
0.0,-12.0,1.163
7.0,-12.0,1.164
11.0,-10.0,1.165
4.0,-7.0,1.166
-3.0,1.0,1.167
-2.0,6.0,1.168
0.0,9.0,1.169
-3.0,14.0,1.17
-8.0,22.0,1.171
-8.0,26.0,1.172
-5.0,20.0,1.173
-4.0,12.0,1.174
-7.0,1.0,1.175
-12.0,-6.0,1.176
-15.0,1.0,1.177
-15.0,-6.0,1.178
-10.0,-8.0,1.179
-2.0,-10.0,1.18
0.0,-11.0,1.181
-1.0,-13.0,1.182
-3.0,-14.0,1.183
-7.0,-14.0,1.184
-17.0,-12.0,1.185
-17.0,-8.0,1.186
-1.0,0.0,1.187
23.0,7.0,1.188
37.0,11.0,1.189
41.0,16.0,1.19
40.0,25.0,1.191
41.0,30.0,1.192
31.0,23.0,1.193
12.0,14.0,1.194
1.0,1.0,1.195
9.0,-7.0,1.196
19.0,0.0,1.197
11.0,6.0,1.198
-10.0,2.0,1.199
-24.0,-8.0,1.2
-23.0,-17.0,1.201
-18.0,-18.0,1.202
-13.0,-14.0,1.203
-4.0,-6.0,1.204
3.0,2.0,1.205
3.0,5.0,1.206
-4.0,0.0,1.207
-7.0,-7.0,1.208
-9.0,-9.0,1.209
-10.0,-9.0,1.21
2.0,-7.0,1.211
39.0,-9.0,1.212
73.0,-10.0,1.213
65.0,-10.0,1.214
11.0,-10.0,1.215
-46.0,-8.0,1.216
-70.0,-6.0,1.217
-58.0,-7.0,1.218
-21.0,-10.0,1.219
17.0,-11.0,1.22
35.0,-12.0,1.221
35.0,-10.0,1.222
32.0,-7.0,1.223
39.0,0.0,1.224
44.0,11.0,1.225
34.0,20.0,1.226
17.0,22.0,1.227
1.0,16.0,1.228
-12.0,10.0,1.229
-23.0,9.0,1.23
-25.0,7.0,1.231
-18.0,1.0,1.232
-12.0,-8.0,1.233
-14.0,-14.0,1.234
-13.0,-15.0,1.235
-8.0,-8.0,1.236
-2.0,7.0,1.237
-5.0,22.0,1.238
-13.0,32.0,1.239
-30.0,30.0,1.24
-57.0,16.0,1.241
-79.0,3.0,1.242
-59.0,-3.0,1.243
-2.0,-1.0,1.244
39.0,5.0,1.245
31.0,7.0,1.246
-1.0,4.0,1.247
-14.0,1.0,1.248
-7.0,0.0,1.249
-6.0,3.0,1.25
-6.0,2.0,1.251
9.0,-4.0,1.252
28.0,-8.0,1.253
33.0,-7.0,1.254
34.0,-5.0,1.255
54.0,-6.0,1.256
84.0,-9.0,1.257
93.0,-10.0,1.258
68.0,-9.0,1.259
30.0,-6.0,1.26
7.0,-6.0,1.261
0.0,-3.0,1.262
-2.0,0.0,1.263
-7.0,1.0,1.264
-19.0,-1.0,1.265
-26.0,-3.0,1.266
-19.0,-3.0,1.267
4.0,-1.0,1.268
25.0,-1.0,1.269
27.0,-3.0,1.27
16.0,-3.0,1.271
9.0,-6.0,1.272
8.0,-8.0,1.273
6.0,-11.0,1.274
0.0,-11.0,1.275
-2.0,-12.0,1.276
0.0,-13.0,1.277
-5.0,-14.0,1.278
-18.0,-10.0,1.279
-29.0,-2.0,1.28
-30.0,3.0,1.281
-29.0,10.0,1.282
-26.0,17.0,1.283
-18.0,19.0,1.284
-4.0,16.0,1.285
3.0,14.0,1.286
-1.0,15.0,1.287
-7.0,9.0,1.288
-7.0,0.0,1.289
-5.0,-3.0,1.29
-11.0,0.0,1.291
-19.0,0.0,1.292
-20.0,-8.0,1.293
-17.0,-11.0,1.294
-21.0,-8.0,1.295
-33.0,-5.0,1.296
-36.0,-7.0,1.297
-16.0,-10.0,1.298
21.0,-6.0,1.299
40.0,-1.0,1.3
29.0,1.0,1.301
13.0,5.0,1.302
25.0,10.0,1.303
56.0,14.0,1.304
66.0,11.0,1.305
39.0,7.0,1.306
11.0,3.0,1.307
6.0,0.0,1.308
11.0,-1.0,1.309
7.0,-3.0,1.31
2.0,-3.0,1.311
13.0,-4.0,1.312
25.0,-4.0,1.313
22.0,-5.0,1.314
12.0,-5.0,1.315
6.0,-5.0,1.316
6.0,-5.0,1.317
-1.0,-5.0,1.318
-12.0,-5.0,1.319
-18.0,-7.0,1.32
-18.0,-10.0,1.321
-16.0,-6.0,1.322
-11.0,1.0,1.323
-2.0,4.0,1.324
8.0,5.0,1.325
10.0,5.0,1.326
5.0,3.0,1.327
2.0,-1.0,1.328
3.0,-2.0,1.329
1.0,0.0,1.33
-2.0,0.0,1.331
-5.0,-4.0,1.332
-5.0,-5.0,1.333
-6.0,-1.0,1.334
-5.0,1.0,1.335
-3.0,-2.0,1.336
-1.0,-4.0,1.337
-2.0,-3.0,1.338
-4.0,-3.0,1.339
-6.0,-5.0,1.34
-7.0,-7.0,1.341
-4.0,-1.0,1.342
1.0,4.0,1.343
7.0,4.0,1.344
6.0,3.0,1.345
2.0,4.0,1.346
4.0,5.0,1.347
9.0,3.0,1.348
9.0,0.0,1.349
5.0,1.0,1.35
2.0,2.0,1.351
2.0,1.0,1.352
3.0,-1.0,1.353
3.0,-2.0,1.354
2.0,-2.0,1.355
3.0,-2.0,1.356
6.0,0.0,1.357
4.0,0.0,1.358
0.0,0.0,1.359
-2.0,1.0,1.36
0.0,0.0,1.361
3.0,1.0,1.362
4.0,3.0,1.363
4.0,3.0,1.364
5.0,4.0,1.365
3.0,6.0,1.366
2.0,5.0,1.367
3.0,2.0,1.368
6.0,0.0,1.369
10.0,0.0,1.37
8.0,1.0,1.371
5.0,0.0,1.372
5.0,-2.0,1.373
4.0,-1.0,1.374
3.0,-4.0,1.375
3.0,-6.0,1.376
5.0,-5.0,1.377
7.0,-5.0,1.378
7.0,-1.0,1.379
5.0,0.0,1.38
4.0,-2.0,1.381
3.0,-2.0,1.382
3.0,-3.0,1.383
3.0,-1.0,1.384
1.0,2.0,1.385
-2.0,4.0,1.386
-2.0,2.0,1.387
3.0,-4.0,1.388
9.0,-6.0,1.389
8.0,-2.0,1.39
5.0,-1.0,1.391
2.0,-4.0,1.392
-2.0,-8.0,1.393
-5.0,-9.0,1.394
-2.0,-7.0,1.395
2.0,-4.0,1.396
3.0,-1.0,1.397
-1.0,-2.0,1.398
-3.0,0.0,1.399
0.0,6.0,1.4
1.0,8.0,1.401
-3.0,8.0,1.402
-3.0,5.0,1.403
3.0,4.0,1.404
8.0,6.0,1.405
6.0,8.0,1.406
4.0,5.0,1.407
10.0,2.0,1.408
17.0,1.0,1.409
18.0,3.0,1.41
17.0,1.0,1.411
15.0,-4.0,1.412
6.0,-7.0,1.413
-6.0,-8.0,1.414
-7.0,-8.0,1.415
3.0,-7.0,1.416
8.0,-5.0,1.417
-3.0,-6.0,1.418
-13.0,-7.0,1.419
-10.0,-8.0,1.42
-5.0,-9.0,1.421
-9.0,-7.0,1.422
-10.0,-4.0,1.423
5.0,-1.0,1.424
18.0,4.0,1.425
8.0,7.0,1.426
-9.0,6.0,1.427
-9.0,2.0,1.428
4.0,0.0,1.429
6.0,5.0,1.43
-3.0,4.0,1.431
-4.0,-1.0,1.432
5.0,-6.0,1.433
9.0,-5.0,1.434
2.0,0.0,1.435
1.0,0.0,1.436
9.0,-1.0,1.437
12.0,-3.0,1.438
7.0,-2.0,1.439
0.0,-3.0,1.44
-1.0,-6.0,1.441
-2.0,-3.0,1.442
0.0,1.0,1.443
3.0,4.0,1.444
4.0,4.0,1.445
-1.0,7.0,1.446
0.0,9.0,1.447
5.0,4.0,1.448
10.0,-1.0,1.449
6.0,0.0,1.45
4.0,4.0,1.451
9.0,2.0,1.452
15.0,-5.0,1.453
11.0,-6.0,1.454
6.0,-3.0,1.455
4.0,-2.0,1.456
4.0,-1.0,1.457
2.0,-3.0,1.458
0.0,-1.0,1.459
-1.0,-2.0,1.46
-4.0,-8.0,1.461
-7.0,-7.0,1.462
-2.0,-3.0,1.463
8.0,3.0,1.464
10.0,9.0,1.465
0.0,15.0,1.466
-4.0,17.0,1.467
1.0,9.0,1.468
8.0,1.0,1.469
6.0,0.0,1.47
3.0,1.0,1.471
4.0,-5.0,1.472
4.0,-10.0,1.473
1.0,-9.0,1.474
-1.0,-4.0,1.475
0.0,-4.0,1.476
4.0,-6.0,1.477
5.0,-7.0,1.478
6.0,-2.0,1.479
7.0,1.0,1.48
3.0,-3.0,1.481
-1.0,-4.0,1.482
0.0,-1.0,1.483
0.0,3.0,1.484
-10.0,4.0,1.485
-27.0,4.0,1.486
-29.0,5.0,1.487
-12.0,3.0,1.488
10.0,1.0,1.489
17.0,0.0,1.49
14.0,0.0,1.491
15.0,-3.0,1.492
18.0,-5.0,1.493
16.0,-5.0,1.494
13.0,-1.0,1.495
12.0,0.0,1.496
11.0,-1.0,1.497
4.0,-5.0,1.498
0.0,-8.0,1.499
-1.0,-8.0,1.5
-1.0,-8.0,1.501
-4.0,-6.0,1.502
-3.0,0.0,1.503
3.0,3.0,1.504
7.0,3.0,1.505
1.0,5.0,1.506
-3.0,8.0,1.507
2.0,4.0,1.508
8.0,-1.0,1.509
8.0,-5.0,1.51
4.0,-4.0,1.511
3.0,-5.0,1.512
5.0,-5.0,1.513
3.0,-4.0,1.514
0.0,-4.0,1.515
3.0,-6.0,1.516
7.0,-6.0,1.517
4.0,-5.0,1.518
0.0,-2.0,1.519
-3.0,-3.0,1.52
-3.0,-5.0,1.521
-5.0,-3.0,1.522
-2.0,1.0,1.523
6.0,4.0,1.524
9.0,6.0,1.525
2.0,8.0,1.526
-3.0,6.0,1.527
1.0,1.0,1.528
6.0,1.0,1.529
4.0,4.0,1.53
1.0,2.0,1.531
5.0,-4.0,1.532
9.0,-8.0,1.533
5.0,-5.0,1.534
2.0,-3.0,1.535
3.0,-6.0,1.536
6.0,-6.0,1.537
4.0,-2.0,1.538
0.0,3.0,1.539
0.0,2.0,1.54
-1.0,-4.0,1.541
-2.0,-5.0,1.542
0.0,-2.0,1.543
6.0,1.0,1.544
7.0,4.0,1.545
1.0,8.0,1.546
-2.0,9.0,1.547
-1.0,5.0,1.548
1.0,0.0,1.549
1.0,0.0,1.55
0.0,0.0,1.551
0.0,0.0,1.552
0.0,-2.0,1.553
0.0,0.0,1.554
2.0,2.0,1.555
5.0,-1.0,1.556
5.0,-4.0,1.557
1.0,-6.0,1.558
-1.0,-5.0,1.559
0.0,-4.0,1.56
-1.0,-5.0,1.561
-5.0,-3.0,1.562
-2.0,-1.0,1.563
7.0,-1.0,1.564
13.0,0.0,1.565
9.0,4.0,1.566
5.0,5.0,1.567
7.0,1.0,1.568
12.0,0.0,1.569
9.0,4.0,1.57
5.0,4.0,1.571
6.0,-2.0,1.572
8.0,-6.0,1.573
4.0,-3.0,1.574
0.0,0.0,1.575
2.0,-4.0,1.576
7.0,-8.0,1.577
5.0,-8.0,1.578
-1.0,-4.0,1.579
-5.0,-1.0,1.58
-3.0,-5.0,1.581
-2.0,-5.0,1.582
1.0,-1.0,1.583
5.0,4.0,1.584
8.0,8.0,1.585
4.0,10.0,1.586
0.0,8.0,1.587
0.0,4.0,1.588
0.0,1.0,1.589
-3.0,1.0,1.59
-4.0,0.0,1.591
0.0,-2.0,1.592
5.0,-4.0,1.593
4.0,-3.0,1.594
1.0,-2.0,1.595
0.0,-1.0,1.596
0.0,1.0,1.597
0.0,0.0,1.598
0.0,-2.0,1.599
1.0,-5.0,1.6
1.0,-7.0,1.601
-1.0,-5.0,1.602
2.0,-2.0,1.603
10.0,0.0,1.604
10.0,3.0,1.605
1.0,5.0,1.606
-1.0,4.0,1.607
7.0,-1.0,1.608
11.0,-1.0,1.609
6.0,1.0,1.61
0.0,0.0,1.611
2.0,-4.0,1.612
5.0,-7.0,1.613
4.0,-5.0,1.614
3.0,-4.0,1.615
8.0,-6.0,1.616
12.0,-6.0,1.617
9.0,-5.0,1.618
1.0,-2.0,1.619
-4.0,-2.0,1.62
-7.0,-6.0,1.621
-5.0,-4.0,1.622
1.0,0.0,1.623
7.0,5.0,1.624
6.0,6.0,1.625
2.0,4.0,1.626
1.0,3.0,1.627
4.0,3.0,1.628
3.0,1.0,1.629
0.0,0.0,1.63
0.0,-3.0,1.631
4.0,-4.0,1.632
6.0,-4.0,1.633
4.0,-5.0,1.634
2.0,-4.0,1.635
2.0,-2.0,1.636
3.0,0.0,1.637
2.0,-1.0,1.638
2.0,-4.0,1.639
1.0,-4.0,1.64
-1.0,-3.0,1.641
-2.0,-1.0,1.642
1.0,0.0,1.643
7.0,3.0,1.644
4.0,7.0,1.645
-1.0,9.0,1.646
-2.0,4.0,1.647
3.0,-1.0,1.648
7.0,-1.0,1.649
3.0,2.0,1.65
2.0,0.0,1.651
3.0,-1.0,1.652
4.0,0.0,1.653
2.0,1.0,1.654
1.0,-2.0,1.655
4.0,-5.0,1.656
9.0,-3.0,1.657
7.0,-3.0,1.658
2.0,-4.0,1.659
-2.0,-4.0,1.66
-4.0,-2.0,1.661
-4.0,0.0,1.662
1.0,0.0,1.663
6.0,1.0,1.664
3.0,3.0,1.665
-3.0,5.0,1.666
-6.0,4.0,1.667
-3.0,3.0,1.668
2.0,1.0,1.669
3.0,0.0,1.67
3.0,-1.0,1.671
6.0,-2.0,1.672
6.0,-2.0,1.673
3.0,-3.0,1.674
-3.0,-3.0,1.675
-4.0,-3.0,1.676
1.0,-4.0,1.677
4.0,-4.0,1.678
4.0,-4.0,1.679
3.0,-5.0,1.68
1.0,-7.0,1.681
0.0,-4.0,1.682
2.0,0.0,1.683
4.0,3.0,1.684
4.0,5.0,1.685
3.0,7.0,1.686
3.0,8.0,1.687
4.0,5.0,1.688
4.0,1.0,1.689
4.0,-1.0,1.69
4.0,-4.0,1.691
3.0,-5.0,1.692
3.0,-4.0,1.693
4.0,-1.0,1.694
4.0,1.0,1.695
4.0,-1.0,1.696
4.0,-3.0,1.697
2.0,-4.0,1.698
0.0,-2.0,1.699
-3.0,-1.0,1.7
-5.0,-3.0,1.701
-7.0,-1.0,1.702
-2.0,3.0,1.703
4.0,5.0,1.704
7.0,6.0,1.705
1.0,6.0,1.706
-1.0,5.0,1.707
3.0,1.0,1.708
7.0,0.0,1.709
3.0,-1.0,1.71
1.0,-3.0,1.711
4.0,-7.0,1.712
9.0,-5.0,1.713
9.0,0.0,1.714
5.0,3.0,1.715
4.0,-1.0,1.716
5.0,-4.0,1.717
4.0,-3.0,1.718
2.0,-1.0,1.719
-1.0,-3.0,1.72
-3.0,-10.0,1.721
-6.0,-8.0,1.722
-1.0,-1.0,1.723
6.0,2.0,1.724
6.0,3.0,1.725
0.0,7.0,1.726
-2.0,7.0,1.727
2.0,2.0,1.728
6.0,-2.0,1.729
2.0,-1.0,1.73
2.0,2.0,1.731
6.0,0.0,1.732
7.0,-2.0,1.733
2.0,-3.0,1.734
-2.0,-2.0,1.735
0.0,-5.0,1.736
2.0,-7.0,1.737
1.0,-5.0,1.738
-1.0,-1.0,1.739
-1.0,-1.0,1.74
-1.0,-8.0,1.741
-3.0,-8.0,1.742
1.0,-1.0,1.743
8.0,5.0,1.744
10.0,4.0,1.745
3.0,2.0,1.746
0.0,4.0,1.747
0.0,6.0,1.748
0.0,4.0,1.749
-1.0,0.0,1.75
1.0,0.0,1.751
7.0,0.0,1.752
9.0,-1.0,1.753
2.0,-4.0,1.754
-4.0,-5.0,1.755
-3.0,-3.0,1.756
3.0,-1.0,1.757
6.0,1.0,1.758
6.0,1.0,1.759
-1.0,-1.0,1.76
-5.0,-6.0,1.761
-4.0,-4.0,1.762
2.0,1.0,1.763
11.0,7.0,1.764
11.0,9.0,1.765
3.0,9.0,1.766
-2.0,5.0,1.767
-1.0,0.0,1.768
3.0,-1.0,1.769
5.0,0.0,1.77
7.0,2.0,1.771
9.0,0.0,1.772
7.0,-4.0,1.773
2.0,-6.0,1.774
0.0,-7.0,1.775
5.0,-7.0,1.776
10.0,-5.0,1.777
9.0,-5.0,1.778
1.0,-3.0,1.779
-6.0,-4.0,1.78
-8.0,-10.0,1.781
-4.0,-10.0,1.782
0.0,-7.0,1.783
7.0,-2.0,1.784
8.0,1.0,1.785
5.0,2.0,1.786
4.0,3.0,1.787
7.0,1.0,1.788
9.0,-1.0,1.789
4.0,0.0,1.79
-1.0,2.0,1.791
-2.0,0.0,1.792
0.0,-4.0,1.793
0.0,-8.0,1.794
0.0,-7.0,1.795
1.0,-4.0,1.796
5.0,-2.0,1.797
3.0,-2.0,1.798
1.0,-1.0,1.799
-2.0,1.0,1.8
-7.0,0.0,1.801
-7.0,0.0,1.802
-1.0,1.0,1.803
6.0,2.0,1.804
5.0,3.0,1.805
0.0,4.0,1.806
0.0,6.0,1.807
5.0,6.0,1.808
5.0,5.0,1.809
0.0,6.0,1.81
-3.0,4.0,1.811
-1.0,0.0,1.812
0.0,-1.0,1.813
-3.0,-1.0,1.814
-5.0,0.0,1.815
-2.0,-1.0,1.816
3.0,1.0,1.817
5.0,5.0,1.818
2.0,6.0,1.819
-2.0,1.0,1.82
-5.0,-5.0,1.821
-2.0,-1.0,1.822
10.0,5.0,1.823
18.0,9.0,1.824
18.0,9.0,1.825
13.0,8.0,1.826
10.0,8.0,1.827
12.0,7.0,1.828
10.0,3.0,1.829
4.0,0.0,1.83
3.0,-3.0,1.831
7.0,-7.0,1.832
9.0,-8.0,1.833
5.0,-5.0,1.834
3.0,0.0,1.835
5.0,0.0,1.836
8.0,-2.0,1.837
4.0,-6.0,1.838
0.0,-6.0,1.839
-2.0,-6.0,1.84
-3.0,-8.0,1.841
-1.0,-6.0,1.842
6.0,-4.0,1.843
11.0,1.0,1.844
6.0,3.0,1.845
-3.0,3.0,1.846
-5.0,2.0,1.847
-1.0,1.0,1.848
0.0,1.0,1.849
-3.0,0.0,1.85
-4.0,-4.0,1.851
-2.0,-6.0,1.852
0.0,-7.0,1.853
1.0,-7.0,1.854
5.0,-8.0,1.855
8.0,-6.0,1.856
5.0,0.0,1.857
-1.0,-1.0,1.858
-6.0,-6.0,1.859
-8.0,-9.0,1.86
-12.0,-8.0,1.861
-11.0,-4.0,1.862
-3.0,0.0,1.863
5.0,3.0,1.864
3.0,7.0,1.865
-2.0,8.0,1.866
-3.0,3.0,1.867
3.0,0.0,1.868
3.0,0.0,1.869
0.0,1.0,1.87
2.0,-2.0,1.871
6.0,-4.0,1.872
7.0,-4.0,1.873
6.0,-4.0,1.874
3.0,-5.0,1.875
3.0,-3.0,1.876
3.0,0.0,1.877
2.0,0.0,1.878
3.0,0.0,1.879
0.0,1.0,1.88
-5.0,1.0,1.881
-5.0,1.0,1.882
3.0,1.0,1.883
13.0,3.0,1.884
11.0,8.0,1.885
2.0,10.0,1.886
0.0,8.0,1.887
2.0,4.0,1.888
5.0,3.0,1.889
3.0,2.0,1.89
1.0,-3.0,1.891
2.0,-6.0,1.892
5.0,-5.0,1.893
4.0,-3.0,1.894
1.0,-5.0,1.895
1.0,-8.0,1.896
7.0,-6.0,1.897
12.0,-4.0,1.898
12.0,-1.0,1.899
3.0,-2.0,1.9
-3.0,-4.0,1.901
-3.0,-3.0,1.902
4.0,-1.0,1.903
9.0,0.0,1.904
7.0,0.0,1.905
1.0,4.0,1.906
1.0,6.0,1.907
5.0,3.0,1.908
5.0,0.0,1.909
0.0,-2.0,1.91
-1.0,-3.0,1.911
5.0,-5.0,1.912
9.0,-7.0,1.913
5.0,-8.0,1.914
0.0,-7.0,1.915
2.0,-5.0,1.916
6.0,-2.0,1.917
7.0,0.0,1.918
2.0,-1.0,1.919
-1.0,-3.0,1.92
-2.0,-7.0,1.921
-4.0,-4.0,1.922
-3.0,1.0,1.923
0.0,5.0,1.924
2.0,7.0,1.925
0.0,8.0,1.926
-3.0,8.0,1.927
-2.0,3.0,1.928
0.0,0.0,1.929
1.0,0.0,1.93
0.0,1.0,1.931
-1.0,1.0,1.932
4.0,1.0,1.933
10.0,1.0,1.934
12.0,1.0,1.935
10.0,-1.0,1.936
5.0,-1.0,1.937
2.0,-2.0,1.938
2.0,-2.0,1.939
0.0,-1.0,1.94
-4.0,-4.0,1.941
-5.0,-2.0,1.942
2.0,1.0,1.943
11.0,2.0,1.944
10.0,3.0,1.945
2.0,5.0,1.946
-2.0,4.0,1.947
0.0,0.0,1.948
3.0,-2.0,1.949
3.0,-2.0,1.95
4.0,-2.0,1.951
6.0,-4.0,1.952
2.0,-7.0,1.953
-2.0,-6.0,1.954
-1.0,-5.0,1.955
3.0,-5.0,1.956
10.0,-2.0,1.957
7.0,1.0,1.958
5.0,1.0,1.959
1.0,-1.0,1.96
-1.0,-6.0,1.961
-2.0,-5.0,1.962
1.0,-1.0,1.963
5.0,3.0,1.964
5.0,6.0,1.965
-1.0,7.0,1.966
-3.0,4.0,1.967
-1.0,-1.0,1.968
2.0,-1.0,1.969
0.0,0.0,1.97
-2.0,1.0,1.971
1.0,-3.0,1.972
6.0,-4.0,1.973
8.0,-2.0,1.974
8.0,-3.0,1.975
9.0,-6.0,1.976
10.0,-8.0,1.977
9.0,-4.0,1.978
5.0,0.0,1.979
1.0,-1.0,1.98
-4.0,-5.0,1.981
-8.0,-2.0,1.982
-6.0,2.0,1.983
1.0,5.0,1.984
7.0,5.0,1.985
1.0,6.0,1.986
-4.0,7.0,1.987
-3.0,5.0,1.988
3.0,2.0,1.989
4.0,-1.0,1.99
2.0,-1.0,1.991
3.0,-2.0,1.992
8.0,-2.0,1.993
10.0,-3.0,1.994
7.0,-6.0,1.995
4.0,-7.0,1.996
5.0,-7.0,1.997
6.0,-8.0,1.998
3.0,-6.0,1.999
0.0,0.0,2.0
-1.0,1.0,2.001
-2.0,0.0,2.002
-1.0,-1.0,2.003
3.0,-1.0,2.004
4.0,1.0,2.005
3.0,2.0,2.006
0.0,1.0,2.007
1.0,1.0,2.008
6.0,1.0,2.009
6.0,1.0,2.01
2.0,-1.0,2.011
0.0,-3.0,2.012
2.0,-3.0,2.013
6.0,-3.0,2.014
6.0,-3.0,2.015
2.0,-3.0,2.016
3.0,0.0,2.017
4.0,0.0,2.018
4.0,-1.0,2.019
-1.0,-2.0,2.02
-5.0,-6.0,2.021
-5.0,-4.0,2.022
2.0,0.0,2.023
10.0,5.0,2.024
10.0,7.0,2.025
3.0,7.0,2.026
-1.0,3.0,2.027
0.0,0.0,2.028
5.0,-3.0,2.029
5.0,-4.0,2.03
3.0,-3.0,2.031
0.0,-3.0,2.032
0.0,-3.0,2.033
1.0,-5.0,2.034
1.0,-6.0,2.035
0.0,-4.0,2.036
1.0,-2.0,2.037
2.0,-2.0,2.038
2.0,-4.0,2.039
-3.0,-3.0,2.04
-6.0,-4.0,2.041
-4.0,-2.0,2.042
6.0,0.0,2.043
15.0,4.0,2.044
15.0,7.0,2.045
10.0,7.0,2.046
3.0,5.0,2.047
0.0,1.0,2.048
-2.0,1.0,2.049
0.0,2.0,2.05
4.0,0.0,2.051
6.0,-4.0,2.052
3.0,-6.0,2.053
0.0,-7.0,2.054
2.0,-6.0,2.055
4.0,-4.0,2.056
2.0,-2.0,2.057
0.0,0.0,2.058
3.0,-1.0,2.059
5.0,-1.0,2.06
-1.0,-3.0,2.061
-6.0,-3.0,2.062
-2.0,-2.0,2.063
8.0,1.0,2.064
9.0,6.0,2.065
2.0,9.0,2.066
-1.0,10.0,2.067
2.0,5.0,2.068
3.0,0.0,2.069
-2.0,-2.0,2.07
-4.0,-4.0,2.071
-2.0,-4.0,2.072
0.0,-5.0,2.073
0.0,-4.0,2.074
1.0,-4.0,2.075
5.0,-5.0,2.076
10.0,-4.0,2.077
8.0,-6.0,2.078
4.0,-6.0,2.079
-1.0,-5.0,2.08
-6.0,-5.0,2.081
-4.0,-3.0,2.082
5.0,-3.0,2.083
12.0,-1.0,2.084
8.0,5.0,2.085
0.0,10.0,2.086
-2.0,8.0,2.087
1.0,0.0,2.088
1.0,-1.0,2.089
-1.0,2.0,2.09
2.0,2.0,2.091
7.0,-2.0,2.092
6.0,-2.0,2.093
1.0,-1.0,2.094
1.0,-2.0,2.095
6.0,-4.0,2.096
9.0,0.0,2.097
4.0,3.0,2.098
0.0,3.0,2.099
-3.0,0.0,2.1
-4.0,-4.0,2.101
-4.0,-3.0,2.102
0.0,-1.0,2.103
9.0,-1.0,2.104
13.0,2.0,2.105
10.0,7.0,2.106
4.0,6.0,2.107
2.0,0.0,2.108
3.0,-3.0,2.109
3.0,-1.0,2.11
2.0,0.0,2.111
1.0,-4.0,2.112
3.0,-4.0,2.113
7.0,-3.0,2.114
8.0,-3.0,2.115
6.0,-7.0,2.116
8.0,-8.0,2.117
7.0,-3.0,2.118
5.0,1.0,2.119
1.0,1.0,2.12
0.0,-4.0,2.121
1.0,-6.0,2.122
3.0,-2.0,2.123
5.0,4.0,2.124
4.0,9.0,2.125
0.0,8.0,2.126
-3.0,4.0,2.127
-3.0,0.0,2.128
-1.0,-3.0,2.129
0.0,-5.0,2.13
0.0,-5.0,2.131
4.0,-4.0,2.132
7.0,-3.0,2.133
5.0,-2.0,2.134
3.0,-4.0,2.135
3.0,-4.0,2.136
5.0,-1.0,2.137
3.0,-1.0,2.138
-1.0,-2.0,2.139
-5.0,-3.0,2.14
-5.0,-5.0,2.141
-4.0,-3.0,2.142
2.0,0.0,2.143
8.0,3.0,2.144
8.0,5.0,2.145
2.0,6.0,2.146
0.0,4.0,2.147
3.0,0.0,2.148
3.0,-2.0,2.149
0.0,0.0,2.15
0.0,3.0,2.151
5.0,2.0,2.152
9.0,-1.0,2.153
9.0,-4.0,2.154
9.0,-6.0,2.155
10.0,-6.0,2.156
7.0,-1.0,2.157
0.0,2.0,2.158
-2.0,1.0,2.159
-5.0,-2.0,2.16
-7.0,-6.0,2.161
-6.0,-2.0,2.162
0.0,3.0,2.163
9.0,4.0,2.164
8.0,5.0,2.165
2.0,7.0,2.166
-1.0,6.0,2.167
2.0,0.0,2.168
8.0,-3.0,2.169
8.0,-1.0,2.17
7.0,2.0,2.171
6.0,1.0,2.172
4.0,-1.0,2.173
3.0,-4.0,2.174
3.0,-6.0,2.175
4.0,-5.0,2.176
6.0,-2.0,2.177
5.0,-1.0,2.178
2.0,-1.0,2.179
-1.0,0.0,2.18
-7.0,-2.0,2.181
-9.0,0.0,2.182
-3.0,0.0,2.183
6.0,0.0,2.184
6.0,5.0,2.185
-2.0,9.0,2.186
-5.0,6.0,2.187
0.0,-2.0,2.188
7.0,-6.0,2.189
8.0,-4.0,2.19
4.0,-4.0,2.191
2.0,-9.0,2.192
3.0,-10.0,2.193
5.0,-6.0,2.194
5.0,-3.0,2.195
4.0,-3.0,2.196
3.0,-3.0,2.197
1.0,0.0,2.198
2.0,3.0,2.199
3.0,1.0,2.2
1.0,-4.0,2.201
0.0,-1.0,2.202
2.0,5.0,2.203
8.0,8.0,2.204
9.0,5.0,2.205
0.0,1.0,2.206
-6.0,0.0,2.207
-7.0,-1.0,2.208
-4.0,-3.0,2.209
-3.0,-4.0,2.21
-3.0,-3.0,2.211
-2.0,-3.0,2.212
0.0,-6.0,2.213
0.0,-7.0,2.214
3.0,-6.0,2.215
7.0,-1.0,2.216
10.0,3.0,2.217
7.0,1.0,2.218
4.0,1.0,2.219
2.0,2.0,2.22
1.0,0.0,2.221
0.0,-1.0,2.222
2.0,-2.0,2.223
8.0,1.0,2.224
6.0,6.0,2.225
0.0,8.0,2.226
-2.0,7.0,2.227
4.0,3.0,2.228
7.0,-1.0,2.229
3.0,-4.0,2.23
1.0,-3.0,2.231
7.0,-1.0,2.232
11.0,0.0,2.233
5.0,-1.0,2.234
0.0,-1.0,2.235
1.0,-2.0,2.236
5.0,-2.0,2.237
4.0,-2.0,2.238
0.0,-2.0,2.239
-1.0,-2.0,2.24
0.0,-5.0,2.241
-2.0,-4.0,2.242
-2.0,-2.0,2.243
4.0,0.0,2.244
8.0,0.0,2.245
4.0,1.0,2.246
0.0,2.0,2.247
2.0,0.0,2.248
4.0,-1.0,2.249
0.0,-3.0,2.25
-1.0,-5.0,2.251
4.0,-4.0,2.252
10.0,-3.0,2.253
7.0,-5.0,2.254
2.0,-6.0,2.255
1.0,-7.0,2.256
4.0,-5.0,2.257
2.0,-3.0,2.258
4.0,-2.0,2.259
5.0,-1.0,2.26
1.0,-3.0,2.261
-4.0,-4.0,2.262
-3.0,-2.0,2.263
4.0,2.0,2.264
5.0,7.0,2.265
-2.0,10.0,2.266
-5.0,7.0,2.267
2.0,0.0,2.268
10.0,-2.0,2.269
7.0,0.0,2.27
2.0,3.0,2.271
5.0,3.0,2.272
10.0,2.0,2.273
9.0,0.0,2.274
5.0,-3.0,2.275
4.0,-5.0,2.276
8.0,-2.0,2.277
7.0,0.0,2.278
3.0,2.0,2.279
-2.0,2.0,2.28
-3.0,1.0,2.281
-3.0,3.0,2.282
0.0,4.0,2.283
5.0,4.0,2.284
6.0,5.0,2.285
3.0,6.0,2.286
1.0,5.0,2.287
1.0,3.0,2.288
2.0,3.0,2.289
2.0,-2.0,2.29
3.0,-7.0,2.291
6.0,-10.0,2.292
7.0,-6.0,2.293
0.0,-1.0,2.294
-4.0,-2.0,2.295
-2.0,-6.0,2.296
2.0,-5.0,2.297
0.0,-4.0,2.298
-3.0,-2.0,2.299
-3.0,-3.0,2.3
-2.0,-5.0,2.301
-3.0,-5.0,2.302
0.0,-4.0,2.303
10.0,-3.0,2.304
19.0,0.0,2.305
17.0,6.0,2.306
8.0,8.0,2.307
4.0,7.0,2.308
5.0,6.0,2.309
5.0,5.0,2.31
1.0,1.0,2.311
1.0,-4.0,2.312
2.0,-6.0,2.313
1.0,-4.0,2.314
-1.0,-4.0,2.315
-3.0,-6.0,2.316
-2.0,-8.0,2.317
-2.0,-7.0,2.318
-3.0,-5.0,2.319
-5.0,-3.0,2.32
-6.0,-4.0,2.321
-5.0,-2.0,2.322
0.0,1.0,2.323
9.0,1.0,2.324
13.0,3.0,2.325
12.0,5.0,2.326
8.0,6.0,2.327
6.0,3.0,2.328
4.0,0.0,2.329
3.0,0.0,2.33
3.0,0.0,2.331
4.0,-2.0,2.332
5.0,-6.0,2.333
3.0,-6.0,2.334
1.0,-3.0,2.335
0.0,-2.0,2.336
2.0,0.0,2.337
3.0,1.0,2.338
5.0,1.0,2.339
1.0,1.0,2.34
-4.0,-2.0,2.341
-5.0,0.0,2.342
0.0,3.0,2.343
5.0,7.0,2.344
4.0,9.0,2.345
0.0,8.0,2.346
1.0,4.0,2.347
6.0,0.0,2.348
6.0,0.0,2.349
0.0,-1.0,2.35
-2.0,-3.0,2.351
-1.0,-5.0,2.352
2.0,-3.0,2.353
4.0,1.0,2.354
8.0,-1.0,2.355
10.0,-6.0,2.356
7.0,-6.0,2.357
1.0,-4.0,2.358
0.0,-1.0,2.359
-1.0,-3.0,2.36
-2.0,-7.0,2.361
-2.0,-6.0,2.362
1.0,-3.0,2.363
7.0,-2.0,2.364
8.0,-1.0,2.365
5.0,1.0,2.366
5.0,2.0,2.367
9.0,0.0,2.368
8.0,-2.0,2.369
5.0,-3.0,2.37
4.0,-3.0,2.371
6.0,-5.0,2.372
8.0,-9.0,2.373
5.0,-11.0,2.374
2.0,-11.0,2.375
1.0,-9.0,2.376
1.0,-5.0,2.377
0.0,-4.0,2.378
-1.0,-1.0,2.379
-2.0,1.0,2.38
-6.0,-1.0,2.381
-7.0,0.0,2.382
-2.0,2.0,2.383
4.0,5.0,2.384
3.0,6.0,2.385
-1.0,8.0,2.386
-2.0,9.0,2.387
1.0,8.0,2.388
3.0,4.0,2.389
2.0,1.0,2.39
2.0,1.0,2.391
4.0,3.0,2.392
6.0,1.0,2.393
3.0,-1.0,2.394
1.0,-3.0,2.395
1.0,-4.0,2.396
2.0,-2.0,2.397
4.0,-1.0,2.398
0.0,0.0,2.399
-5.0,3.0,2.4
-9.0,1.0,2.401
-5.0,2.0,2.402
1.0,4.0,2.403
9.0,8.0,2.404
7.0,12.0,2.405
3.0,11.0,2.406
3.0,7.0,2.407
5.0,1.0,2.408
7.0,-2.0,2.409
6.0,-1.0,2.41
6.0,-1.0,2.411
8.0,-1.0,2.412
10.0,0.0,2.413
11.0,0.0,2.414
11.0,-2.0,2.415
10.0,-7.0,2.416
10.0,-8.0,2.417
7.0,-7.0,2.418
6.0,-6.0,2.419
5.0,-5.0,2.42
4.0,-5.0,2.421
3.0,-3.0,2.422
5.0,0.0,2.423
8.0,0.0,2.424
6.0,0.0,2.425
1.0,2.0,2.426
0.0,1.0,2.427
2.0,-2.0,2.428
3.0,-3.0,2.429
3.0,-2.0,2.43
1.0,-1.0,2.431
0.0,-5.0,2.432
0.0,-8.0,2.433
-2.0,-4.0,2.434
-5.0,-2.0,2.435
-8.0,-3.0,2.436
-6.0,-4.0,2.437
-4.0,-4.0,2.438
-5.0,-3.0,2.439
-8.0,-6.0,2.44
-9.0,-7.0,2.441
-5.0,-3.0,2.442
0.0,3.0,2.443
1.0,6.0,2.444
-2.0,8.0,2.445
-5.0,10.0,2.446
-4.0,9.0,2.447
1.0,2.0,2.448
3.0,-4.0,2.449
2.0,-3.0,2.45
0.0,-1.0,2.451
0.0,-2.0,2.452
-1.0,-4.0,2.453
0.0,-2.0,2.454
4.0,-2.0,2.455
9.0,-6.0,2.456
11.0,-7.0,2.457
9.0,-3.0,2.458
6.0,3.0,2.459
3.0,5.0,2.46
4.0,-1.0,2.461
4.0,-3.0,2.462
8.0,-4.0,2.463
13.0,-1.0,2.464
14.0,3.0,2.465
9.0,8.0,2.466
3.0,7.0,2.467
2.0,0.0,2.468
3.0,-4.0,2.469
2.0,-2.0,2.47
2.0,-2.0,2.471
5.0,-3.0,2.472
7.0,-6.0,2.473
4.0,-6.0,2.474
4.0,-5.0,2.475
6.0,-5.0,2.476
8.0,-3.0,2.477
6.0,-2.0,2.478
2.0,-1.0,2.479
-3.0,0.0,2.48
-5.0,-1.0,2.481
-6.0,-1.0,2.482
-1.0,-2.0,2.483
6.0,0.0,2.484
8.0,7.0,2.485
4.0,7.0,2.486
2.0,1.0,2.487
4.0,-3.0,2.488
5.0,0.0,2.489
2.0,3.0,2.49
1.0,0.0,2.491
3.0,-4.0,2.492
6.0,-2.0,2.493
6.0,0.0,2.494
5.0,-3.0,2.495
4.0,-7.0,2.496
3.0,-5.0,2.497
2.0,-2.0,2.498
0.0,-1.0,2.499
-3.0,-1.0,2.5
-6.0,0.0,2.501
-5.0,3.0,2.502
0.0,2.0,2.503
6.0,2.0,2.504
7.0,5.0,2.505
1.0,9.0,2.506
-1.0,6.0,2.507
0.0,0.0,2.508
1.0,-2.0,2.509
3.0,-1.0,2.51
4.0,-1.0,2.511
5.0,-4.0,2.512
4.0,-4.0,2.513
2.0,-2.0,2.514
2.0,-3.0,2.515
2.0,-2.0,2.516
2.0,0.0,2.517
1.0,0.0,2.518
1.0,0.0,2.519
0.0,0.0,2.52
-3.0,0.0,2.521
-4.0,0.0,2.522
2.0,1.0,2.523
9.0,4.0,2.524
9.0,4.0,2.525
4.0,5.0,2.526
2.0,4.0,2.527
1.0,2.0,2.528
-1.0,0.0,2.529
-2.0,-2.0,2.53
1.0,-2.0,2.531
4.0,-2.0,2.532
4.0,-2.0,2.533
1.0,-3.0,2.534
3.0,-3.0,2.535
4.0,-4.0,2.536
4.0,-2.0,2.537
3.0,-1.0,2.538
3.0,-4.0,2.539
1.0,-6.0,2.54
-4.0,-6.0,2.541
-6.0,-3.0,2.542
0.0,0.0,2.543
4.0,3.0,2.544
2.0,6.0,2.545
0.0,7.0,2.546
2.0,3.0,2.547
4.0,-3.0,2.548
4.0,-3.0,2.549
5.0,-2.0,2.55
5.0,-3.0,2.551
4.0,-4.0,2.552
4.0,-2.0,2.553
4.0,1.0,2.554
5.0,1.0,2.555
5.0,-2.0,2.556
3.0,-1.0,2.557
2.0,-2.0,2.558
1.0,-4.0,2.559
-1.0,-4.0,2.56
-3.0,-4.0,2.561
-3.0,1.0,2.562
2.0,1.0,2.563
9.0,0.0,2.564
9.0,2.0,2.565
1.0,6.0,2.566
-3.0,6.0,2.567
0.0,0.0,2.568
6.0,-2.0,2.569
8.0,0.0,2.57
6.0,1.0,2.571
7.0,-2.0,2.572
9.0,-5.0,2.573
5.0,-8.0,2.574
0.0,-7.0,2.575
-1.0,-5.0,2.576
3.0,-3.0,2.577
5.0,-2.0,2.578
3.0,-4.0,2.579
-2.0,-5.0,2.58
-5.0,-4.0,2.581
-5.0,-1.0,2.582
-1.0,0.0,2.583
6.0,0.0,2.584
10.0,0.0,2.585
5.0,3.0,2.586
1.0,2.0,2.587
3.0,2.0,2.588
9.0,2.0,2.589
9.0,2.0,2.59
2.0,0.0,2.591
0.0,-4.0,2.592
3.0,-5.0,2.593
4.0,-4.0,2.594
4.0,-6.0,2.595
1.0,-7.0,2.596
1.0,-4.0,2.597
0.0,0.0,2.598
0.0,0.0,2.599
-2.0,-1.0,2.6
-2.0,-3.0,2.601
-1.0,-2.0,2.602
2.0,0.0,2.603
5.0,2.0,2.604
6.0,5.0,2.605
3.0,6.0,2.606
0.0,4.0,2.607
0.0,2.0,2.608
3.0,5.0,2.609
4.0,8.0,2.61
1.0,4.0,2.611
0.0,-4.0,2.612
1.0,-6.0,2.613
3.0,-2.0,2.614
1.0,0.0,2.615
0.0,-1.0,2.616
1.0,-2.0,2.617
4.0,-4.0,2.618
3.0,-3.0,2.619
-1.0,0.0,2.62
-4.0,-1.0,2.621
-2.0,0.0,2.622
2.0,-2.0,2.623
9.0,-3.0,2.624
12.0,-1.0,2.625
11.0,0.0,2.626
11.0,2.0,2.627
13.0,1.0,2.628
16.0,0.0,2.629
12.0,-2.0,2.63
3.0,-4.0,2.631
-2.0,-6.0,2.632
-2.0,-8.0,2.633
-1.0,-6.0,2.634
-1.0,-4.0,2.635
-2.0,-3.0,2.636
0.0,0.0,2.637
-2.0,3.0,2.638
-2.0,8.0,2.639
-2.0,7.0,2.64
-1.0,-1.0,2.641
-2.0,-5.0,2.642
-1.0,-1.0,2.643
3.0,5.0,2.644
4.0,7.0,2.645
0.0,6.0,2.646
-3.0,5.0,2.647
0.0,2.0,2.648
6.0,-4.0,2.649
5.0,-7.0,2.65
3.0,-6.0,2.651
4.0,-1.0,2.652
7.0,2.0,2.653
6.0,0.0,2.654
4.0,-2.0,2.655
5.0,-3.0,2.656
7.0,-2.0,2.657
4.0,-4.0,2.658
2.0,-5.0,2.659
0.0,-6.0,2.66
-1.0,-6.0,2.661
-1.0,-4.0,2.662
3.0,-1.0,2.663
11.0,4.0,2.664
13.0,9.0,2.665
7.0,9.0,2.666
1.0,6.0,2.667
1.0,0.0,2.668
0.0,1.0,2.669
-3.0,2.0,2.67
-5.0,1.0,2.671
-1.0,-4.0,2.672
0.0,-3.0,2.673
0.0,1.0,2.674
0.0,1.0,2.675
3.0,-3.0,2.676
5.0,-5.0,2.677
5.0,-4.0,2.678
5.0,0.0,2.679
3.0,-2.0,2.68
-3.0,-7.0,2.681
-8.0,-5.0,2.682
-2.0,-2.0,2.683
11.0,1.0,2.684
16.0,4.0,2.685
7.0,7.0,2.686
-3.0,7.0,2.687
-5.0,3.0,2.688
-4.0,-1.0,2.689
-3.0,-2.0,2.69
2.0,-3.0,2.691
9.0,-4.0,2.692
11.0,-4.0,2.693
3.0,0.0,2.694
0.0,-2.0,2.695
4.0,-6.0,2.696
9.0,-5.0,2.697
7.0,-2.0,2.698
3.0,1.0,2.699
0.0,-1.0,2.7
-3.0,-5.0,2.701
-5.0,-1.0,2.702
-3.0,6.0,2.703
3.0,6.0,2.704
7.0,2.0,2.705
7.0,1.0,2.706
5.0,2.0,2.707
4.0,-1.0,2.708
4.0,-2.0,2.709
2.0,-2.0,2.71
1.0,-3.0,2.711
2.0,-7.0,2.712
3.0,-9.0,2.713
3.0,-9.0,2.714
2.0,-5.0,2.715
2.0,-4.0,2.716
4.0,-3.0,2.717
5.0,0.0,2.718
6.0,2.0,2.719
3.0,2.0,2.72
-1.0,-2.0,2.721
-3.0,-1.0,2.722
0.0,5.0,2.723
3.0,8.0,2.724
5.0,6.0,2.725
5.0,4.0,2.726
6.0,3.0,2.727
5.0,3.0,2.728
4.0,1.0,2.729
1.0,0.0,2.73
1.0,0.0,2.731
4.0,0.0,2.732
5.0,0.0,2.733
5.0,-3.0,2.734
5.0,-6.0,2.735
4.0,-4.0,2.736
3.0,2.0,2.737
0.0,6.0,2.738
-1.0,3.0,2.739
-2.0,-3.0,2.74
-6.0,-6.0,2.741
-7.0,-3.0,2.742
-4.0,0.0,2.743
4.0,0.0,2.744
7.0,1.0,2.745
3.0,5.0,2.746
1.0,6.0,2.747
3.0,1.0,2.748
4.0,-5.0,2.749
3.0,-7.0,2.75
1.0,-3.0,2.751
3.0,-2.0,2.752
5.0,-3.0,2.753
4.0,-1.0,2.754
3.0,0.0,2.755
7.0,0.0,2.756
12.0,1.0,2.757
12.0,-1.0,2.758
5.0,-4.0,2.759
-3.0,-6.0,2.76
-6.0,-5.0,2.761
-4.0,0.0,2.762
3.0,3.0,2.763
10.0,2.0,2.764
10.0,1.0,2.765
5.0,3.0,2.766
1.0,3.0,2.767
1.0,0.0,2.768
4.0,-1.0,2.769
5.0,0.0,2.77
7.0,-2.0,2.771
10.0,-6.0,2.772
11.0,-7.0,2.773
6.0,-2.0,2.774
0.0,4.0,2.775
0.0,2.0,2.776
5.0,-1.0,2.777
1.0,-5.0,2.778
-7.0,-7.0,2.779
-12.0,-5.0,2.78
-10.0,-7.0,2.781
-8.0,-8.0,2.782
-6.0,-8.0,2.783
-3.0,-1.0,2.784
2.0,7.0,2.785
4.0,10.0,2.786
2.0,6.0,2.787
1.0,0.0,2.788
8.0,-3.0,2.789
15.0,-4.0,2.79
18.0,-5.0,2.791
16.0,-6.0,2.792
12.0,-6.0,2.793
10.0,-4.0,2.794
6.0,-4.0,2.795
3.0,-5.0,2.796
1.0,-6.0,2.797
1.0,-5.0,2.798
-1.0,-3.0,2.799
-8.0,-2.0,2.8
-16.0,-2.0,2.801
-13.0,-2.0,2.802
1.0,1.0,2.803
11.0,4.0,2.804
5.0,4.0,2.805
-6.0,3.0,2.806
-6.0,4.0,2.807
-2.0,5.0,2.808
0.0,2.0,2.809
0.0,-1.0,2.81
3.0,-2.0,2.811
9.0,-4.0,2.812
11.0,-7.0,2.813
6.0,-9.0,2.814
4.0,-3.0,2.815
7.0,1.0,2.816
10.0,3.0,2.817
9.0,4.0,2.818
5.0,3.0,2.819
2.0,2.0,2.82
1.0,-1.0,2.821
1.0,-2.0,2.822
5.0,0.0,2.823
8.0,4.0,2.824
6.0,7.0,2.825
5.0,7.0,2.826
3.0,4.0,2.827
2.0,-2.0,2.828
2.0,-4.0,2.829
2.0,-2.0,2.83
2.0,0.0,2.831
1.0,-1.0,2.832
1.0,-2.0,2.833
0.0,-2.0,2.834
1.0,0.0,2.835
3.0,-1.0,2.836
1.0,-1.0,2.837
0.0,0.0,2.838
1.0,3.0,2.839
1.0,1.0,2.84
-3.0,-5.0,2.841
-9.0,-6.0,2.842
-7.0,-4.0,2.843
2.0,0.0,2.844
6.0,5.0,2.845
0.0,7.0,2.846
-5.0,3.0,2.847
-3.0,-1.0,2.848
2.0,-2.0,2.849
1.0,0.0,2.85
0.0,-1.0,2.851
3.0,-5.0,2.852
7.0,-7.0,2.853
6.0,-5.0,2.854
2.0,-4.0,2.855
3.0,-7.0,2.856
8.0,-6.0,2.857
10.0,-4.0,2.858
7.0,0.0,2.859
0.0,0.0,2.86
-2.0,-4.0,2.861
-1.0,-4.0,2.862
5.0,-1.0,2.863
11.0,4.0,2.864
10.0,6.0,2.865
7.0,6.0,2.866
5.0,4.0,2.867
4.0,2.0,2.868
2.0,1.0,2.869
-1.0,0.0,2.87
1.0,-1.0,2.871
5.0,-3.0,2.872
5.0,-2.0,2.873
3.0,-3.0,2.874
2.0,-6.0,2.875
4.0,-7.0,2.876
7.0,-3.0,2.877
5.0,0.0,2.878
3.0,-1.0,2.879
-1.0,-3.0,2.88
-3.0,-4.0,2.881
-3.0,-3.0,2.882
0.0,-1.0,2.883
6.0,2.0,2.884
7.0,8.0,2.885
3.0,12.0,2.886
3.0,5.0,2.887
6.0,-4.0,2.888
7.0,-6.0,2.889
4.0,-1.0,2.89
1.0,3.0,2.891
2.0,1.0,2.892
4.0,0.0,2.893
5.0,0.0,2.894
6.0,-1.0,2.895
4.0,-3.0,2.896
4.0,-4.0,2.897
2.0,-2.0,2.898
1.0,-1.0,2.899
-2.0,-1.0,2.9
-7.0,-3.0,2.901
-10.0,-5.0,2.902
-1.0,-5.0,2.903
11.0,-2.0,2.904
12.0,4.0,2.905
0.0,8.0,2.906
-6.0,7.0,2.907
-1.0,0.0,2.908
7.0,-1.0,2.909
8.0,-1.0,2.91
2.0,-1.0,2.911
-1.0,-3.0,2.912
-4.0,-2.0,2.913
-5.0,-3.0,2.914
-4.0,-4.0,2.915
0.0,-6.0,2.916
7.0,-4.0,2.917
10.0,-2.0,2.918
12.0,0.0,2.919
9.0,-1.0,2.92
2.0,-5.0,2.921
-3.0,-4.0,2.922
-1.0,1.0,2.923
6.0,5.0,2.924
8.0,7.0,2.925
2.0,6.0,2.926
-1.0,2.0,2.927
0.0,0.0,2.928
0.0,-1.0,2.929
-3.0,-2.0,2.93
0.0,-2.0,2.931
6.0,-3.0,2.932
8.0,-3.0,2.933
5.0,-3.0,2.934
6.0,-1.0,2.935
11.0,-1.0,2.936
12.0,0.0,2.937
3.0,-2.0,2.938
-3.0,-1.0,2.939
-3.0,1.0,2.94
-2.0,-1.0,2.941
-3.0,-2.0,2.942
0.0,0.0,2.943
7.0,6.0,2.944
9.0,9.0,2.945
2.0,5.0,2.946
-3.0,0.0,2.947
0.0,-2.0,2.948
4.0,0.0,2.949
3.0,0.0,2.95
1.0,-2.0,2.951
2.0,-4.0,2.952
2.0,-6.0,2.953
1.0,-6.0,2.954
3.0,-5.0,2.955
8.0,-2.0,2.956
8.0,0.0,2.957
2.0,-1.0,2.958
-2.0,-4.0,2.959
-1.0,-5.0,2.96
-1.0,-6.0,2.961
-4.0,-4.0,2.962
0.0,-2.0,2.963
9.0,-1.0,2.964
10.0,1.0,2.965
2.0,3.0,2.966
-2.0,1.0,2.967
3.0,-3.0,2.968
9.0,-7.0,2.969
5.0,-7.0,2.97
0.0,-5.0,2.971
2.0,-3.0,2.972
4.0,-2.0,2.973
0.0,-1.0,2.974
-1.0,-2.0,2.975
3.0,-5.0,2.976
8.0,-2.0,2.977
1.0,1.0,2.978
-4.0,4.0,2.979
-4.0,2.0,2.98
0.0,-2.0,2.981
0.0,-3.0,2.982
2.0,-2.0,2.983
8.0,0.0,2.984
11.0,4.0,2.985
4.0,6.0,2.986
-3.0,2.0,2.987
-3.0,-3.0,2.988
0.0,-3.0,2.989
0.0,1.0,2.99
-1.0,3.0,2.991
2.0,0.0,2.992
3.0,-1.0,2.993
-4.0,2.0,2.994
-8.0,5.0,2.995
-4.0,5.0,2.996
4.0,5.0,2.997
5.0,4.0,2.998
0.0,3.0,2.999
-3.0,1.0,3.0
-3.0,-3.0,3.001
0.0,0.0,3.002
4.0,3.0,3.003
9.0,5.0,3.004
9.0,6.0,3.005
8.0,6.0,3.006
9.0,3.0,3.007
13.0,-2.0,3.008
13.0,-4.0,3.009
9.0,0.0,3.01
7.0,3.0,3.011
10.0,1.0,3.012
10.0,-3.0,3.013
7.0,-2.0,3.014
4.0,1.0,3.015
5.0,0.0,3.016
5.0,-1.0,3.017
3.0,-2.0,3.018
2.0,-2.0,3.019
1.0,-2.0,3.02
1.0,-8.0,3.021
0.0,-10.0,3.022
2.0,-7.0,3.023
5.0,-1.0,3.024
4.0,5.0,3.025
1.0,7.0,3.026
3.0,3.0,3.027
5.0,-2.0,3.028
3.0,-4.0,3.029
-3.0,-3.0,3.03
-7.0,-3.0,3.031
-6.0,-5.0,3.032
-4.0,-5.0,3.033
-5.0,-5.0,3.034
-3.0,-5.0,3.035
0.0,-6.0,3.036
3.0,-5.0,3.037
-1.0,-4.0,3.038
-2.0,-4.0,3.039
-4.0,-5.0,3.04
-6.0,-7.0,3.041
-7.0,-4.0,3.042
-2.0,-1.0,3.043
6.0,1.0,3.044
7.0,6.0,3.045
1.0,9.0,3.046
0.0,6.0,3.047
2.0,0.0,3.048
3.0,-1.0,3.049
2.0,3.0,3.05
2.0,1.0,3.051
7.0,-4.0,3.052
7.0,-6.0,3.053
2.0,-1.0,3.054
1.0,1.0,3.055
4.0,0.0,3.056
7.0,-1.0,3.057
3.0,1.0,3.058
1.0,2.0,3.059
1.0,-2.0,3.06
0.0,-7.0,3.061
-1.0,-4.0,3.062
1.0,0.0,3.063
9.0,1.0,3.064
11.0,1.0,3.065
0.0,4.0,3.066
-9.0,5.0,3.067
-8.0,1.0,3.068
-1.0,-1.0,3.069
4.0,-1.0,3.07
3.0,-2.0,3.071
0.0,-5.0,3.072
-1.0,-5.0,3.073
-2.0,0.0,3.074
0.0,2.0,3.075
4.0,1.0,3.076
9.0,0.0,3.077
10.0,0.0,3.078
6.0,-1.0,3.079
0.0,-3.0,3.08
-3.0,-5.0,3.081
0.0,0.0,3.082
8.0,3.0,3.083
13.0,2.0,3.084
13.0,0.0,3.085
8.0,0.0,3.086
2.0,0.0,3.087
2.0,-4.0,3.088
4.0,-5.0,3.089
7.0,-1.0,3.09
6.0,1.0,3.091
4.0,0.0,3.092
2.0,-2.0,3.093
2.0,-3.0,3.094
1.0,-1.0,3.095
0.0,1.0,3.096
3.0,6.0,3.097
6.0,5.0,3.098
5.0,0.0,3.099
-2.0,-2.0,3.1
-6.0,1.0,3.101
-4.0,3.0,3.102
0.0,1.0,3.103
3.0,2.0,3.104
5.0,6.0,3.105
6.0,8.0,3.106
4.0,4.0,3.107
0.0,0.0,3.108
0.0,1.0,3.109
2.0,1.0,3.11
3.0,-1.0,3.111
3.0,-3.0,3.112
3.0,-4.0,3.113
5.0,-6.0,3.114
1.0,-8.0,3.115
-3.0,-6.0,3.116
-3.0,-2.0,3.117
0.0,-4.0,3.118
4.0,-8.0,3.119
-1.0,-5.0,3.12
-11.0,0.0,3.121
-19.0,4.0,3.122
-23.0,3.0,3.123
-24.0,4.0,3.124
-21.0,9.0,3.125
-8.0,10.0,3.126
11.0,4.0,3.127
22.0,-2.0,3.128
20.0,-3.0,3.129
9.0,-4.0,3.13
6.0,-8.0,3.131
12.0,-12.0,3.132
18.0,-9.0,3.133
19.0,-4.0,3.134
21.0,-1.0,3.135
30.0,0.0,3.136
39.0,2.0,3.137
39.0,3.0,3.138
32.0,2.0,3.139
22.0,0.0,3.14
14.0,-3.0,3.141
6.0,-1.0,3.142
1.0,0.0,3.143
0.0,0.0,3.144
-1.0,0.0,3.145
-7.0,-2.0,3.146
-14.0,-5.0,3.147
-12.0,-5.0,3.148
-6.0,1.0,3.149
-7.0,11.0,3.15
-11.0,21.0,3.151
-7.0,36.0,3.152
0.0,57.0,3.153
4.0,72.0,3.154
2.0,65.0,3.155
0.0,38.0,3.156
1.0,11.0,3.157
0.0,-17.0,3.158
-6.0,-44.0,3.159
-10.0,-62.0,3.16
-12.0,-58.0,3.161
-10.0,-42.0,3.162
-6.0,-36.0,3.163
-3.0,-39.0,3.164
-3.0,-34.0,3.165
-9.0,-20.0,3.166
-10.0,-9.0,3.167
-3.0,-1.0,3.168
1.0,19.0,3.169
2.0,50.0,3.17
1.0,78.0,3.171
5.0,116.0,3.172
8.0,178.0,3.173
7.0,226.0,3.174
3.0,191.0,3.175
6.0,73.0,3.176
13.0,-50.0,3.177
14.0,-136.0,3.178
14.0,-185.0,3.179
14.0,-220.0,3.18
17.0,-238.0,3.181
19.0,-227.0,3.182
20.0,-204.0,3.183
21.0,-193.0,3.184
19.0,-180.0,3.185
11.0,-151.0,3.186
3.0,-113.0,3.187
4.0,-76.0,3.188
10.0,-33.0,3.189
11.0,19.0,3.19
4.0,63.0,3.191
-5.0,87.0,3.192
-13.0,106.0,3.193
-14.0,144.0,3.194
-10.0,189.0,3.195
-5.0,208.0,3.196
-2.0,184.0,3.197
-8.0,121.0,3.198
-17.0,63.0,3.199
-25.0,67.0,3.2
-27.0,155.0,3.201
-19.0,271.0,3.202
-4.0,311.0,3.203
7.0,236.0,3.204
8.0,108.0,3.205
1.0,17.0,3.206
-3.0,-11.0,3.207
1.0,-10.0,3.208
14.0,-7.0,3.209
21.0,-27.0,3.21
21.0,-77.0,3.211
18.0,-136.0,3.212
21.0,-174.0,3.213
23.0,-211.0,3.214
19.0,-281.0,3.215
6.0,-338.0,3.216
-6.0,-290.0,3.217
-16.0,-107.0,3.218
-22.0,79.0,3.219
-28.0,117.0,3.22
-24.0,3.0,3.221
-5.0,-131.0,3.222
21.0,-200.0,3.223
37.0,-219.0,3.224
33.0,-218.0,3.225
19.0,-167.0,3.226
6.0,-39.0,3.227
-2.0,120.0,3.228
-5.0,219.0,3.229
-5.0,239.0,3.23
0.0,250.0,3.231
11.0,305.0,3.232
20.0,362.0,3.233
25.0,352.0,3.234
26.0,295.0,3.235
27.0,261.0,3.236
25.0,281.0,3.237
18.0,320.0,3.238
8.0,338.0,3.239
-1.0,286.0,3.24
-6.0,120.0,3.241
-8.0,-161.0,3.242
-4.0,-486.0,3.243
0.0,-725.0,3.244
-3.0,-763.0,3.245
-14.0,-579.0,3.246
-19.0,-289.0,3.247
-17.0,-64.0,3.248
-22.0,58.0,3.249
-34.0,197.0,3.25
-38.0,394.0,3.251
-26.0,480.0,3.252
-21.0,344.0,3.253
-30.0,186.0,3.254
-33.0,264.0,3.255
-16.0,451.0,3.256
2.0,380.0,3.257
-4.0,-121.0,3.258
-18.0,-788.0,3.259
-7.0,-1297.0,3.26
39.0,-1561.0,3.261
90.0,-1603.0,3.262
132.0,-1395.0,3.263
169.0,-966.0,3.264
197.0,-495.0,3.265
191.0,-136.0,3.266
151.0,131.0,3.267
107.0,366.0,3.268
72.0,517.0,3.269
26.0,510.0,3.27
-49.0,406.0,3.271
-136.0,380.0,3.272
-197.0,568.0,3.273
-211.0,987.0,3.274
-185.0,1476.0,3.275
-140.0,1765.0,3.276
-99.0,1743.0,3.277
-70.0,1580.0,3.278
-55.0,1565.0,3.279
-50.0,1640.0,3.28
-44.0,1368.0,3.281
-27.0,509.0,3.282
1.0,-656.0,3.283
20.0,-1633.0,3.284
6.0,-2219.0,3.285
-22.0,-2503.0,3.286
-19.0,-2571.0,3.287
28.0,-2396.0,3.288
79.0,-1965.0,3.289
88.0,-1367.0,3.29
59.0,-761.0,3.291
32.0,-311.0,3.292
15.0,-70.0,3.293
-4.0,68.0,3.294
-28.0,227.0,3.295
-42.0,384.0,3.296
-36.0,468.0,3.297
-23.0,517.0,3.298
-16.0,625.0,3.299
-11.0,780.0,3.3
5.0,883.0,3.301
27.0,917.0,3.302
37.0,938.0,3.303
38.0,943.0,3.304
44.0,899.0,3.305
62.0,849.0,3.306
72.0,842.0,3.307
62.0,815.0,3.308
54.0,661.0,3.309
62.0,412.0,3.31
62.0,182.0,3.311
24.0,-20.0,3.312
-37.0,-275.0,3.313
-80.0,-548.0,3.314
-83.0,-671.0,3.315
-66.0,-538.0,3.316
-63.0,-262.0,3.317
-95.0,15.0,3.318
-137.0,192.0,3.319
-125.0,269.0,3.32
-37.0,270.0,3.321
58.0,211.0,3.322
84.0,171.0,3.323
47.0,325.0,3.324
11.0,721.0,3.325
-1.0,1089.0,3.326
1.0,1049.0,3.327
27.0,547.0,3.328
89.0,-97.0,3.329
157.0,-593.0,3.33
187.0,-917.0,3.331
201.0,-1110.0,3.332
229.0,-1105.0,3.333
243.0,-867.0,3.334
204.0,-541.0,3.335
126.0,-354.0,3.336
67.0,-436.0,3.337
28.0,-787.0,3.338
-14.0,-1184.0,3.339
-89.0,-1355.0,3.34
-196.0,-1249.0,3.341
-302.0,-1064.0,3.342
-347.0,-922.0,3.343
-295.0,-700.0,3.344
-191.0,-293.0,3.345
-117.0,194.0,3.346
-92.0,666.0,3.347
-64.0,1151.0,3.348
-10.0,1579.0,3.349
40.0,1685.0,3.35
59.0,1332.0,3.351
57.0,705.0,3.352
42.0,35.0,3.353
10.0,-597.0,3.354
-18.0,-1059.0,3.355
-3.0,-1090.0,3.356
51.0,-695.0,3.357
107.0,-167.0,3.358
137.0,128.0,3.359
147.0,162.0,3.36
152.0,109.0,3.361
132.0,29.0,3.362
75.0,-73.0,3.363
1.0,-63.0,3.364
-59.0,163.0,3.365
-104.0,498.0,3.366
-141.0,831.0,3.367
-160.0,1267.0,3.368
-148.0,1892.0,3.369
-114.0,2419.0,3.37
-79.0,2385.0,3.371
-36.0,1650.0,3.372
30.0,475.0,3.373
107.0,-796.0,3.374
156.0,-1901.0,3.375
179.0,-2562.0,3.376
193.0,-2594.0,3.377
178.0,-2071.0,3.378
93.0,-1353.0,3.379
-47.0,-721.0,3.38
-150.0,-183.0,3.381
-158.0,307.0,3.382
-117.0,628.0,3.383
-84.0,662.0,3.384
-46.0,489.0,3.385
14.0,300.0,3.386
43.0,167.0,3.387
-9.0,1.0,3.388
-80.0,-276.0,3.389
-68.0,-574.0,3.39
19.0,-614.0,3.391
69.0,-177.0,3.392
20.0,578.0,3.393
-59.0,1157.0,3.394
-77.0,1206.0,3.395
-28.0,863.0,3.396
29.0,473.0,3.397
49.0,461.0,3.398
39.0,607.0,3.399
38.0,669.0,3.4
64.0,477.0,3.401
103.0,284.0,3.402
129.0,91.0,3.403
128.0,-24.0,3.404
102.0,92.0,3.405
77.0,274.0,3.406
70.0,651.0,3.407
64.0,913.0,3.408
10.0,832.0,3.409
-90.0,592.0,3.41
-160.0,-125.0,3.411
-132.0,-741.0,3.412
-42.0,-1056.0,3.413
3.0,-1262.0,3.414
-31.0,-1143.0,3.415
-79.0,-929.0,3.416
-84.0,-436.0,3.417
-63.0,447.0,3.418
-44.0,589.0,3.419
-19.0,649.0,3.42
24.0,463.0,3.421
63.0,276.0,3.422
82.0,88.0,3.423
101.0,-23.0,3.424
135.0,89.0,3.425
157.0,266.0,3.426
142.0,631.0,3.427
94.0,885.0,3.428
19.0,806.0,3.429
-76.0,574.0,3.43
-152.0,-120.0,3.431
-153.0,-718.0,3.432
-104.0,-1023.0,3.433
-90.0,-1223.0,3.434
-124.0,-1107.0,3.435
-116.0,-900.0,3.436
-14.0,-422.0,3.437
127.0,576.0,3.438
205.0,760.0,3.439
196.0,838.0,3.44
151.0,597.0,3.441
102.0,355.0,3.442
58.0,112.0,3.443
25.0,-34.0,3.444
-16.0,113.0,3.445
-108.0,342.0,3.446
-224.0,815.0,3.447
-264.0,1144.0,3.448
-187.0,1042.0,3.449
-84.0,741.0,3.45
-49.0,-160.0,3.451
-38.0,-934.0,3.452
25.0,-1329.0,3.453
102.0,-1588.0,3.454
100.0,-1438.0,3.455
28.0,-1170.0,3.456
-22.0,-551.0,3.457
-36.0,92.0,3.458
-50.0,696.0,3.459
-61.0,1017.0,3.46
-61.0,1056.0,3.461
-53.0,859.0,3.462
-16.0,471.0,3.463
28.0,-39.0,3.464
92.0,-591.0,3.465
139.0,-1045.0,3.466
131.0,-1180.0,3.467
117.0,-931.0,3.468
86.0,-591.0,3.469
63.0,-528.0,3.47
64.0,-713.0,3.471
68.0,-778.0,3.472
81.0,-527.0,3.473
95.0,-127.0,3.474
113.0,214.0,3.475
125.0,464.0,3.476
114.0,623.0,3.477
83.0,639.0,3.478
-34.0,504.0,3.479
-154.0,328.0,3.48
-218.0,208.0,3.481
-233.0,166.0,3.482
-223.0,196.0,3.483
-184.0,288.0,3.484
-104.0,384.0,3.485
-17.0,423.0,3.486
33.0,440.0,3.487
37.0,518.0,3.488
21.0,642.0,3.489
12.0,736.0,3.49
25.0,813.0,3.491
59.0,943.0,3.492
81.0,1119.0,3.493
58.0,1269.0,3.494
6.0,1400.0,3.495
-30.0,1509.0,3.496
-37.0,1416.0,3.497
-39.0,790.0,3.498
-54.0,-234.0,3.499
-64.0,-1169.0,3.5
-42.0,-1837.0,3.501
7.0,-2341.0,3.502
58.0,-2354.0,3.503
83.0,-2154.0,3.504
74.0,-1313.0,3.505
53.0,-562.0,3.506
38.0,-84.0,3.507
23.0,277.0,3.508
0.0,287.0,3.509
-5.0,258.0,3.51
24.0,111.0,3.511
55.0,-9.0,3.512
58.0,-47.0,3.513
46.0,-180.0,3.514
38.0,-596.0,3.515
23.0,-1041.0,3.516
11.0,-1571.0,3.517
40.0,-1932.0,3.518
101.0,-1417.0,3.519
135.0,-545.0,3.52
82.0,98.0,3.521
35.0,369.0,3.522
7.0,481.0,3.523
-29.0,552.0,3.524
-89.0,539.0,3.525
-134.0,479.0,3.526
-138.0,497.0,3.527
-132.0,609.0,3.528
-98.0,728.0,3.529
-82.0,836.0,3.53
-120.0,961.0,3.531
-143.0,1056.0,3.532
-117.0,1029.0,3.533
-75.0,864.0,3.534
15.0,603.0,3.535
84.0,298.0,3.536
82.0,67.0,3.537
79.0,35.0,3.538
70.0,186.0,3.539
49.0,262.0,3.54
10.0,102.0,3.541
-21.0,-179.0,3.542
-30.0,-361.0,3.543
-29.0,-362.0,3.544
-26.0,-258.0,3.545
-13.0,-135.0,3.546
9.0,-21.0,3.547
19.0,79.0,3.548
16.0,186.0,3.549
32.0,346.0,3.55
76.0,581.0,3.551
113.0,814.0,3.552
110.0,894.0,3.553
77.0,698.0,3.554
34.0,231.0,3.555
-7.0,-345.0,3.556
-32.0,-759.0,3.557
-28.0,-875.0,3.558
13.0,-726.0,3.559
63.0,-557.0,3.56
84.0,-560.0,3.561
56.0,-643.0,3.562
5.0,-564.0,3.563
-33.0,-221.0,3.564
-46.0,282.0,3.565
-48.0,798.0,3.566
-61.0,1221.0,3.567
-85.0,1418.0,3.568
-98.0,1209.0,3.569
-81.0,489.0,3.57
-40.0,-659.0,3.571
10.0,-1934.0,3.572
48.0,-2867.0,3.573
57.0,-3049.0,3.574
37.0,-2490.0,3.575
21.0,-1657.0,3.576
32.0,-1036.0,3.577
67.0,-608.0,3.578
95.0,-168.0,3.579
102.0,352.0,3.58
101.0,790.0,3.581
90.0,1004.0,3.582
54.0,1001.0,3.583
-11.0,863.0,3.584
-81.0,690.0,3.585
-121.0,574.0,3.586
-121.0,509.0,3.587
-98.0,392.0,3.588
-79.0,184.0,3.589
-74.0,19.0,3.59
-71.0,55.0,3.591
-49.0,278.0,3.592
-7.0,517.0,3.593
33.0,598.0,3.594
45.0,457.0,3.595
26.0,195.0,3.596
-3.0,32.0,3.597
-36.0,84.0,3.598
-60.0,249.0,3.599
-57.0,297.0,3.6
-20.0,196.0,3.601
39.0,172.0,3.602
98.0,354.0,3.603
140.0,558.0,3.604
164.0,525.0,3.605
154.0,244.0,3.606
97.0,-111.0,3.607
0.0,-438.0,3.608
-92.0,-697.0,3.609
-123.0,-763.0,3.61
-75.0,-526.0,3.611
14.0,-127.0,3.612
76.0,131.0,3.613
69.0,144.0,3.614
7.0,83.0,3.615
-55.0,105.0,3.616
-67.0,175.0,3.617
-29.0,209.0,3.618
19.0,229.0,3.619
34.0,308.0,3.62
32.0,456.0,3.621
35.0,597.0,3.622
23.0,634.0,3.623
-39.0,508.0,3.624
-109.0,225.0,3.625
-104.0,-168.0,3.626
-29.0,-609.0,3.627
17.0,-972.0,3.628
-9.0,-1099.0,3.629
-32.0,-946.0,3.63
9.0,-652.0,3.631
65.0,-326.0,3.632
58.0,110.0,3.633
-5.0,719.0,3.634
-56.0,1276.0,3.635
-63.0,1453.0,3.636
-55.0,1232.0,3.637
-58.0,816.0,3.638
-61.0,422.0,3.639
-38.0,59.0,3.64
9.0,-304.0,3.641
54.0,-603.0,3.642
71.0,-826.0,3.643
69.0,-1065.0,3.644
71.0,-1290.0,3.645
78.0,-1260.0,3.646
82.0,-857.0,3.647
87.0,-378.0,3.648
99.0,-226.0,3.649
100.0,-429.0,3.65
75.0,-698.0,3.651
41.0,-855.0,3.652
24.0,-925.0,3.653
12.0,-866.0,3.654
-28.0,-539.0,3.655
-90.0,14.0,3.656
-119.0,502.0,3.657
-96.0,765.0,3.658
-60.0,813.0,3.659
-64.0,751.0,3.66
-91.0,617.0,3.661
-83.0,404.0,3.662
-30.0,174.0,3.663
21.0,89.0,3.664
39.0,254.0,3.665
41.0,547.0,3.666
53.0,701.0,3.667
55.0,595.0,3.668
30.0,361.0,3.669
-4.0,155.0,3.67
-19.0,-23.0,3.671
-13.0,-159.0,3.672
-1.0,-114.0,3.673
17.0,138.0,3.674
47.0,375.0,3.675
82.0,412.0,3.676
97.0,343.0,3.677
77.0,263.0,3.678
25.0,131.0,3.679
-59.0,-17.0,3.68
-154.0,-210.0,3.681
-209.0,-364.0,3.682
-181.0,-402.0,3.683
-98.0,-384.0,3.684
-40.0,-193.0,3.685
-32.0,101.0,3.686
-26.0,707.0,3.687
20.0,1207.0,3.688
78.0,1388.0,3.689
112.0,1309.0,3.69
128.0,447.0,3.691
135.0,-452.0,3.692
117.0,-1464.0,3.693
83.0,-2192.0,3.694
75.0,-2070.0,3.695
89.0,-1796.0,3.696
69.0,-1070.0,3.697
-1.0,-418.0,3.698
-38.0,-168.0,3.699
-56.0,-84.0,3.7
-13.0,73.0,3.701
9.0,279.0,3.702
-36.0,396.0,3.703
-69.0,466.0,3.704
-67.0,614.0,3.705
-61.0,821.0,3.706
-43.0,987.0,3.707
-28.0,1094.0,3.708
-18.0,1136.0,3.709
-9.0,1008.0,3.71
-2.0,647.0,3.711
9.0,183.0,3.712
33.0,-185.0,3.713
56.0,-364.0,3.714
72.0,-333.0,3.715
84.0,-67.0,3.716
88.0,320.0,3.717
80.0,562.0,3.718
36.0,464.0,3.719
23.0,208.0,3.72
15.0,-524.0,3.721
-37.0,-1167.0,3.722
-105.0,-1539.0,3.723
-121.0,-1657.0,3.724
-83.0,-1011.0,3.725
-58.0,-471.0,3.726
-75.0,-247.0,3.727
-93.0,-44.0,3.728
-70.0,92.0,3.729
-19.0,213.0,3.73
31.0,289.0,3.731
77.0,406.0,3.732
122.0,643.0,3.733
153.0,836.0,3.734
156.0,896.0,3.735
124.0,829.0,3.736
59.0,382.0,3.737
-38.0,-170.0,3.738
-107.0,-1082.0,3.739
-98.0,-1676.0,3.74
-42.0,-1492.0,3.741
-20.0,-757.0,3.742
-38.0,-127.0,3.743
-32.0,130.0,3.744
11.0,280.0,3.745
17.0,510.0,3.746
-36.0,654.0,3.747
-67.0,580.0,3.748
-17.0,424.0,3.749
45.0,369.0,3.75
36.0,436.0,3.751
-16.0,584.0,3.752
-35.0,757.0,3.753
-20.0,815.0,3.754
-16.0,587.0,3.755
-19.0,44.0,3.756
3.0,-609.0,3.757
39.0,-1188.0,3.758
43.0,-1369.0,3.759
15.0,-1002.0,3.76
-7.0,-336.0,3.761
-5.0,163.0,3.762
14.0,278.0,3.763
45.0,192.0,3.764
87.0,136.0,3.765
106.0,132.0,3.766
76.0,141.0,3.767
23.0,201.0,3.768
-6.0,306.0,3.769
-3.0,374.0,3.77
0.0,386.0,3.771
-12.0,358.0,3.772
-24.0,188.0,3.773
-32.0,-228.0,3.774
-37.0,-721.0,3.775
-26.0,-944.0,3.776
14.0,-812.0,3.777
64.0,-502.0,3.778
78.0,-207.0,3.779
47.0,86.0,3.78
10.0,456.0,3.781
-11.0,864.0,3.782
-26.0,1166.0,3.783
-44.0,1243.0,3.784
-50.0,1042.0,3.785
-44.0,593.0,3.786
-47.0,-18.0,3.787
-55.0,-674.0,3.788
-27.0,-1189.0,3.789
33.0,-1335.0,3.79
55.0,-1058.0,3.791
-7.0,-638.0,3.792
-84.0,-430.0,3.793
-77.0,-450.0,3.794
3.0,-431.0,3.795
55.0,-245.0,3.796
35.0,-25.0,3.797
-15.0,165.0,3.798
-42.0,378.0,3.799
-53.0,580.0,3.8
-66.0,749.0,3.801
-64.0,916.0,3.802
-34.0,1076.0,3.803
-2.0,1192.0,3.804
6.0,1178.0,3.805
7.0,1042.0,3.806
26.0,543.0,3.807
52.0,6.0,3.808
60.0,-639.0,3.809
49.0,-1227.0,3.81
35.0,-1637.0,3.811
32.0,-1816.0,3.812
42.0,-1297.0,3.813
60.0,-779.0,3.814
72.0,-269.0,3.815
71.0,181.0,3.816
62.0,452.0,3.817
29.0,706.0,3.818
-28.0,814.0,3.819
-68.0,732.0,3.82
-58.0,517.0,3.821
-38.0,216.0,3.822
11.0,-129.0,3.823
39.0,-379.0,3.824
0.0,-398.0,3.825
-24.0,-230.0,3.826
-4.0,-33.0,3.827
17.0,120.0,3.828
40.0,218.0,3.829
57.0,182.0,3.83
54.0,-39.0,3.831
49.0,-321.0,3.832
42.0,-454.0,3.833
25.0,-363.0,3.834
-24.0,-99.0,3.835
-54.0,277.0,3.836
-26.0,649.0,3.837
8.0,858.0,3.838
30.0,646.0,3.839
17.0,140.0,3.84
5.0,-373.0,3.841
3.0,-648.0,3.842
-13.0,-651.0,3.843
-61.0,-504.0,3.844
-114.0,-350.0,3.845
-127.0,-226.0,3.846
-80.0,-52.0,3.847
-13.0,236.0,3.848
28.0,576.0,3.849
36.0,809.0,3.85
35.0,826.0,3.851
50.0,629.0,3.852
64.0,275.0,3.853
56.0,-177.0,3.854
33.0,-642.0,3.855
15.0,-947.0,3.856
15.0,-919.0,3.857
21.0,-521.0,3.858
26.0,4.0,3.859
20.0,332.0,3.86
4.0,372.0,3.861
-8.0,293.0,3.862
-5.0,202.0,3.863
11.0,1.0,3.864
30.0,-344.0,3.865
43.0,-620.0,3.866
49.0,-595.0,3.867
39.0,-331.0,3.868
0.0,-71.0,3.869
-54.0,106.0,3.87
-91.0,300.0,3.871
-100.0,556.0,3.872
-87.0,785.0,3.873
-61.0,900.0,3.874
-20.0,851.0,3.875
26.0,561.0,3.876
51.0,68.0,3.877
35.0,-496.0,3.878
-4.0,-818.0,3.879
-34.0,-773.0,3.88
-33.0,-518.0,3.881
-13.0,-250.0,3.882
-5.0,-51.0,3.883
-28.0,81.0,3.884
-68.0,169.0,3.885
-82.0,288.0,3.886
-44.0,508.0,3.887
26.0,742.0,3.888
81.0,778.0,3.889
98.0,515.0,3.89
92.0,75.0,3.891
85.0,-368.0,3.892
78.0,-734.0,3.893
61.0,-945.0,3.894
37.0,-865.0,3.895
22.0,-473.0,3.896
22.0,-36.0,3.897
37.0,212.0,3.898
56.0,256.0,3.899
61.0,319.0,3.9
36.0,525.0,3.901
-7.0,734.0,3.902
-49.0,719.0,3.903
-73.0,395.0,3.904
-79.0,-140.0,3.905
-66.0,-685.0,3.906
-41.0,-1011.0,3.907
-17.0,-1004.0,3.908
-6.0,-769.0,3.909
-12.0,-518.0,3.91
-27.0,-341.0,3.911
-44.0,-149.0,3.912
-42.0,149.0,3.913
-12.0,506.0,3.914
15.0,766.0,3.915
11.0,810.0,3.916
-10.0,641.0,3.917
-8.0,287.0,3.918
19.0,-126.0,3.919
22.0,-470.0,3.92
-6.0,-606.0,3.921
-14.0,-641.0,3.922
30.0,-375.0,3.923
81.0,-116.0,3.924
90.0,120.0,3.925
68.0,362.0,3.926
53.0,618.0,3.927
50.0,799.0,3.928
37.0,751.0,3.929
11.0,584.0,3.93
-18.0,61.0,3.931
-49.0,-363.0,3.932
-76.0,-489.0,3.933
-86.0,-517.0,3.934
-72.0,-247.0,3.935
-48.0,-66.0,3.936
-19.0,-150.0,3.937
18.0,-243.0,3.938
53.0,-285.0,3.939
49.0,-187.0,3.94
5.0,-44.0,3.941
-38.0,78.0,3.942
-50.0,156.0,3.943
-41.0,212.0,3.944
-41.0,313.0,3.945
-37.0,484.0,3.946
-8.0,622.0,3.947
39.0,579.0,3.948
64.0,320.0,3.949
50.0,-49.0,3.95
25.0,-412.0,3.951
31.0,-671.0,3.952
67.0,-718.0,3.953
94.0,-532.0,3.954
88.0,-255.0,3.955
68.0,-65.0,3.956
53.0,-1.0,3.957
34.0,14.0,3.958
-3.0,33.0,3.959
-52.0,68.0,3.96
-92.0,140.0,3.961
-99.0,281.0,3.962
-64.0,477.0,3.963
-5.0,698.0,3.964
35.0,894.0,3.965
33.0,958.0,3.966
10.0,783.0,3.967
-3.0,370.0,3.968
-5.0,-176.0,3.969
-6.0,-734.0,3.97
10.0,-1160.0,3.971
47.0,-1252.0,3.972
72.0,-928.0,3.973
61.0,-401.0,3.974
34.0,11.0,3.975
17.0,223.0,3.976
-17.0,336.0,3.977
-99.0,382.0,3.978
-173.0,261.0,3.979
-159.0,-1.0,3.98
-70.0,-226.0,3.981
-17.0,-314.0,3.982
-45.0,-329.0,3.983
-75.0,-309.0,3.984
-34.0,-204.0,3.985
35.0,-22.0,3.986
57.0,110.0,3.987
44.0,102.0,3.988
54.0,-15.0,3.989
81.0,-141.0,3.99
86.0,-176.0,3.991
73.0,-97.0,3.992
73.0,28.0,3.993
73.0,101.0,3.994
37.0,103.0,3.995
-19.0,58.0,3.996
-42.0,-31.0,3.997
-25.0,-144.0,3.998
0.0,-166.0,3.999
-1.0,-136.0,4.0
-12.0,55.0,4.001
-16.0,201.0,4.002
-11.0,210.0,4.003
-1.0,222.0,4.004
9.0,243.0,4.005
8.0,248.0,4.006
-12.0,206.0,4.007
-30.0,178.0,4.008
-23.0,192.0,4.009
-1.0,196.0,4.01
5.0,162.0,4.011
-3.0,128.0,4.012
4.0,94.0,4.013
21.0,57.0,4.014
12.0,8.0,4.015
-26.0,-29.0,4.016
-41.0,-31.0,4.017
-10.0,-34.0,4.018
31.0,-42.0,4.019
28.0,-45.0,4.02
1.0,-41.0,4.021
3.0,-34.0,4.022
44.0,-19.0,4.023
79.0,7.0,4.024
85.0,18.0,4.025
78.0,-10.0,4.026
64.0,-56.0,4.027
37.0,-72.0,4.028
5.0,-50.0,4.029
-9.0,-27.0,4.03
-7.0,-30.0,4.031
-10.0,-49.0,4.032
-26.0,-60.0,4.033
-37.0,-51.0,4.034
-32.0,-34.0,4.035
-10.0,-22.0,4.036
17.0,-21.0,4.037
40.0,-25.0,4.038
44.0,-20.0,4.039
21.0,-9.0,4.04
-13.0,-6.0,4.041
-35.0,-13.0,4.042
-46.0,-18.0,4.043
-64.0,-14.0,4.044
-87.0,-11.0,4.045
-92.0,-13.0,4.046
-71.0,-17.0,4.047
-41.0,-16.0,4.048
-28.0,-11.0,4.049
-23.0,-8.0,4.05
-1.0,-7.0,4.051
44.0,-5.0,4.052
80.0,-4.0,4.053
77.0,-1.0,4.054
34.0,6.0,4.055
-13.0,13.0,4.056
-32.0,12.0,4.057
-14.0,0.0,4.058
30.0,-7.0,4.059
75.0,-4.0,4.06
91.0,4.0,4.061
59.0,13.0,4.062
-5.0,17.0,4.063
-62.0,7.0,4.064
-80.0,-18.0,4.065
-61.0,-44.0,4.066
-29.0,-49.0,4.067
-9.0,-30.0,4.068
-4.0,-6.0,4.069
3.0,3.0,4.07
18.0,4.0,4.071
29.0,9.0,4.072
20.0,15.0,4.073
-2.0,10.0,4.074
-9.0,-1.0,4.075
13.0,-6.0,4.076
42.0,-1.0,4.077
57.0,0.0,4.078
54.0,-2.0,4.079
44.0,-4.0,4.08
37.0,-3.0,4.081
35.0,-1.0,4.082
29.0,-7.0,4.083
14.0,-12.0,4.084
-8.0,-10.0,4.085
-25.0,0.0,4.086
-37.0,10.0,4.087
-48.0,19.0,4.088
-58.0,27.0,4.089
-66.0,24.0,4.09
-71.0,7.0,4.091
-66.0,-13.0,4.092
-37.0,-24.0,4.093
9.0,-22.0,4.094
49.0,-15.0,4.095
60.0,-5.0,4.096
49.0,11.0,4.097
37.0,27.0,4.098
35.0,32.0,4.099
39.0,27.0,4.1
40.0,15.0,4.101
34.0,12.0,4.102
22.0,11.0,4.103
9.0,8.0,4.104
3.0,3.0,4.105
0.0,-1.0,4.106
-16.0,-8.0,4.107
-41.0,-14.0,4.108
-58.0,-12.0,4.109
-52.0,-5.0,4.11
-31.0,-2.0,4.111
-19.0,-6.0,4.112
-17.0,-8.0,4.113
-10.0,-6.0,4.114
11.0,-5.0,4.115
34.0,-8.0,4.116
43.0,-9.0,4.117
39.0,-7.0,4.118
34.0,-3.0,4.119
34.0,1.0,4.12
34.0,2.0,4.121
30.0,1.0,4.122
25.0,-1.0,4.123
17.0,-1.0,4.124
2.0,4.0,4.125
-15.0,12.0,4.126
-24.0,13.0,4.127
-20.0,7.0,4.128
-12.0,4.0,4.129
-8.0,5.0,4.13
-7.0,5.0,4.131
-9.0,0.0,4.132
-13.0,-2.0,4.133
-16.0,-3.0,4.134
-16.0,-6.0,4.135
-18.0,-8.0,4.136
-24.0,-4.0,4.137
-38.0,0.0,4.138
-45.0,1.0,4.139
-36.0,-1.0,4.14
-13.0,-3.0,4.141
10.0,-2.0,4.142
24.0,-3.0,4.143
29.0,-5.0,4.144
29.0,-2.0,4.145
26.0,5.0,4.146
24.0,8.0,4.147
25.0,6.0,4.148
23.0,0.0,4.149
15.0,-4.0,4.15
7.0,-7.0,4.151
13.0,-6.0,4.152
28.0,-6.0,4.153
36.0,-10.0,4.154
25.0,-14.0,4.155
4.0,-11.0,4.156
-9.0,-2.0,4.157
-16.0,0.0,4.158
-21.0,3.0,4.159
-24.0,10.0,4.16
-20.0,19.0,4.161
-10.0,20.0,4.162
-1.0,8.0,4.163
8.0,-2.0,4.164
19.0,-1.0,4.165
25.0,2.0,4.166
15.0,-4.0,4.167
-12.0,-12.0,4.168
-41.0,-14.0,4.169
-46.0,-7.0,4.17
-29.0,2.0,4.171
-18.0,7.0,4.172
-22.0,8.0,4.173
-20.0,4.0,4.174
14.0,-2.0,4.175
58.0,-7.0,4.176
77.0,-8.0,4.177
65.0,-13.0,4.178
55.0,-17.0,4.179
55.0,-17.0,4.18
45.0,-13.0,4.181
12.0,-4.0,4.182
-21.0,8.0,4.183
-30.0,17.0,4.184
-24.0,16.0,4.185
-21.0,8.0,4.186
-13.0,1.0,4.187
6.0,-1.0,4.188
31.0,0.0,4.189
48.0,-1.0,4.19
56.0,-4.0,4.191
57.0,-7.0,4.192
41.0,-8.0,4.193
16.0,-9.0,4.194
3.0,-8.0,4.195
7.0,-4.0,4.196
5.0,-3.0,4.197
-20.0,-5.0,4.198
-49.0,-3.0,4.199
-57.0,7.0,4.2
-53.0,16.0,4.201
-52.0,16.0,4.202
-52.0,6.0,4.203
-42.0,2.0,4.204
-27.0,12.0,4.205
-17.0,26.0,4.206
-11.0,26.0,4.207
-3.0,12.0,4.208
-1.0,1.0,4.209
-9.0,0.0,4.21
-23.0,1.0,4.211
-43.0,-4.0,4.212
-75.0,-13.0,4.213
-110.0,-12.0,4.214
-107.0,-1.0,4.215
-49.0,6.0,4.216
20.0,4.0,4.217
49.0,-3.0,4.218
45.0,-3.0,4.219
65.0,2.0,4.22
130.0,4.0,4.221
183.0,1.0,4.222
177.0,-4.0,4.223
133.0,-6.0,4.224
99.0,-6.0,4.225
79.0,-6.0,4.226
53.0,-10.0,4.227
21.0,-18.0,4.228
2.0,-25.0,4.229
7.0,-28.0,4.23
25.0,-26.0,4.231
32.0,-23.0,4.232
9.0,-20.0,4.233
-33.0,-18.0,4.234
-54.0,-12.0,4.235
-37.0,0.0,4.236
-16.0,22.0,4.237
-29.0,43.0,4.238
-61.0,49.0,4.239
-73.0,31.0,4.24
-61.0,-1.0,4.241
-58.0,-14.0,4.242
-66.0,0.0,4.243
-61.0,23.0,4.244
-39.0,27.0,4.245
-28.0,17.0,4.246
-37.0,15.0,4.247
-54.0,25.0,4.248
-61.0,26.0,4.249
-49.0,12.0,4.25
1.0,-2.0,4.251
71.0,-4.0,4.252
108.0,-2.0,4.253
91.0,-10.0,4.254
54.0,-20.0,4.255
18.0,-20.0,4.256
-38.0,-12.0,4.257
-126.0,-8.0,4.258
-150.0,-11.0,4.259
-44.0,-15.0,4.26
105.0,-25.0,4.261
147.0,-29.0,4.262
83.0,-25.0,4.263
36.0,-13.0,4.264
60.0,-6.0,4.265
85.0,-5.0,4.266
58.0,-2.0,4.267
14.0,7.0,4.268
-17.0,8.0,4.269
-49.0,-2.0,4.27
-75.0,-12.0,4.271
-52.0,-10.0,4.272
14.0,-5.0,4.273
49.0,-5.0,4.274
20.0,-8.0,4.275
-15.0,-6.0,4.276
-12.0,-2.0,4.277
6.0,-4.0,4.278
1.0,-5.0,4.279
-14.0,-3.0,4.28
-12.0,-1.0,4.281
0.0,-2.0,4.282
6.0,-1.0,4.283
11.0,2.0,4.284
13.0,5.0,4.285
0.0,3.0,4.286
-21.0,2.0,4.287
-25.0,2.0,4.288
-11.0,5.0,4.289
0.0,5.0,4.29
-1.0,3.0,4.291
-1.0,0.0,4.292
7.0,-5.0,4.293
13.0,-7.0,4.294
11.0,-8.0,4.295
8.0,-10.0,4.296
8.0,-14.0,4.297
0.0,-22.0,4.298
-10.0,-27.0,4.299
-11.0,-26.0,4.3
0.0,-22.0,4.301
13.0,-9.0,4.302
23.0,6.0,4.303
30.0,31.0,4.304
33.0,61.0,4.305
26.0,81.0,4.306
16.0,67.0,4.307
10.0,25.0,4.308
6.0,-2.0,4.309
-1.0,8.0,4.31
-5.0,25.0,4.311
-6.0,10.0,4.312
-14.0,-15.0,4.313
-36.0,-11.0,4.314
-58.0,9.0,4.315
-55.0,9.0,4.316
-22.0,-8.0,4.317
24.0,-17.0,4.318
76.0,-11.0,4.319
137.0,-7.0,4.32
204.0,-16.0,4.321
239.0,-19.0,4.322
200.0,-13.0,4.323
87.0,-12.0,4.324
-54.0,-15.0,4.325
-171.0,-13.0,4.326
-233.0,-8.0,4.327
-242.0,-9.0,4.328
-212.0,-13.0,4.329
-150.0,-10.0,4.33
-69.0,-5.0,4.331
-5.0,-7.0,4.332
11.0,-9.0,4.333
-2.0,-5.0,4.334
1.0,2.0,4.335
26.0,2.0,4.336
37.0,2.0,4.337
22.0,4.0,4.338
10.0,5.0,4.339
20.0,1.0,4.34
30.0,-3.0,4.341
20.0,1.0,4.342
15.0,9.0,4.343
26.0,8.0,4.344
34.0,5.0,4.345
22.0,5.0,4.346
14.0,5.0,4.347
21.0,2.0,4.348
30.0,-1.0,4.349
24.0,-3.0,4.35
16.0,-7.0,4.351
18.0,-11.0,4.352
21.0,-11.0,4.353
19.0,-9.0,4.354
18.0,-11.0,4.355
22.0,-9.0,4.356
23.0,6.0,4.357
13.0,23.0,4.358
5.0,19.0,4.359
3.0,12.0,4.36
4.0,-5.0,4.361
4.0,-15.0,4.362
7.0,-3.0,4.363
9.0,7.0,4.364
4.0,9.0,4.365
-2.0,12.0,4.366
-3.0,14.0,4.367
-1.0,13.0,4.368
-7.0,-4.0,4.369
-22.0,-15.0,4.37
-39.0,-5.0,4.371
-51.0,5.0,4.372
-54.0,17.0,4.373
-37.0,26.0,4.374
8.0,22.0,4.375
69.0,15.0,4.376
115.0,3.0,4.377
121.0,-7.0,4.378
88.0,-6.0,4.379
38.0,-9.0,4.38
-2.0,-22.0,4.381
-25.0,-27.0,4.382
-39.0,-20.0,4.383
-65.0,-13.0,4.384
-106.0,-10.0,4.385
-138.0,-2.0,4.386
-120.0,14.0,4.387
-51.0,30.0,4.388
18.0,26.0,4.389
49.0,7.0,4.39
57.0,-5.0,4.391
84.0,-3.0,4.392
119.0,2.0,4.393
111.0,-4.0,4.394
61.0,-18.0,4.395
21.0,-34.0,4.396
16.0,-44.0,4.397
13.0,-53.0,4.398
-18.0,-52.0,4.399
-48.0,-36.0,4.4
-40.0,-14.0,4.401
-1.0,8.0,4.402
30.0,26.0,4.403
37.0,37.0,4.404
18.0,41.0,4.405
-14.0,33.0,4.406
-40.0,19.0,4.407
-44.0,10.0,4.408
-27.0,12.0,4.409
0.0,17.0,4.41
23.0,16.0,4.411
21.0,10.0,4.412
-16.0,1.0,4.413
-66.0,-4.0,4.414
-92.0,-6.0,4.415
-82.0,-10.0,4.416
-50.0,-17.0,4.417
-1.0,-25.0,4.418
63.0,-27.0,4.419
114.0,-25.0,4.42
106.0,-6.0,4.421
22.0,10.0,4.422
-101.0,22.0,4.423
-188.0,31.0,4.424
-174.0,31.0,4.425
-57.0,27.0,4.426
74.0,15.0,4.427
125.0,4.0,4.428
98.0,0.0,4.429
69.0,-4.0,4.43
68.0,-5.0,4.431
54.0,-6.0,4.432
1.0,-9.0,4.433
-57.0,-11.0,4.434
-72.0,-9.0,4.435
-40.0,-8.0,4.436
10.0,-8.0,4.437
37.0,-9.0,4.438
31.0,-7.0,4.439
28.0,-13.0,4.44
38.0,-20.0,4.441
44.0,-13.0,4.442
37.0,4.0,4.443
31.0,22.0,4.444
31.0,29.0,4.445
29.0,23.0,4.446
19.0,10.0,4.447
9.0,1.0,4.448
-3.0,-3.0,4.449
-12.0,-4.0,4.45
-13.0,-6.0,4.451
-14.0,-5.0,4.452
-16.0,-4.0,4.453
-19.0,-5.0,4.454
-23.0,-6.0,4.455
-24.0,-6.0,4.456
-14.0,-2.0,4.457
0.0,-3.0,4.458
9.0,-6.0,4.459
-18.0,-5.0,4.46
-36.0,-4.0,4.461
-20.0,-3.0,4.462
6.0,-2.0,4.463
17.0,3.0,4.464
24.0,7.0,4.465
34.0,4.0,4.466
28.0,0.0,4.467
7.0,0.0,4.468
-3.0,4.0,4.469
4.0,3.0,4.47
9.0,-3.0,4.471
1.0,-4.0,4.472
-1.0,1.0,4.473
7.0,3.0,4.474
7.0,-3.0,4.475
-5.0,-9.0,4.476
-11.0,-6.0,4.477
-5.0,-4.0,4.478
-2.0,-9.0,4.479
-11.0,-19.0,4.48
-16.0,-21.0,4.481
-6.0,-6.0,4.482
8.0,12.0,4.483
17.0,9.0,4.484
15.0,-13.0,4.485
11.0,-24.0,4.486
6.0,-10.0,4.487
2.0,13.0,4.488
0.0,22.0,4.489
-2.0,13.0,4.49
-1.0,9.0,4.491
7.0,13.0,4.492
17.0,16.0,4.493
19.0,11.0,4.494
9.0,6.0,4.495
2.0,3.0,4.496
7.0,2.0,4.497
9.0,-2.0,4.498
-5.0,-6.0,4.499
-33.0,-11.0,4.5
-58.0,-19.0,4.501
-61.0,-26.0,4.502
-39.0,-29.0,4.503
-6.0,-29.0,4.504
15.0,-17.0,4.505
18.0,-2.0,4.506
20.0,22.0,4.507
27.0,38.0,4.508
33.0,30.0,4.509
31.0,22.0,4.51
30.0,12.0,4.511
27.0,8.0,4.512
13.0,21.0,4.513
-1.0,30.0,4.514
2.0,22.0,4.515
15.0,12.0,4.516
6.0,-1.0,4.517
-33.0,-13.0,4.518
-71.0,-10.0,4.519
-95.0,0.0,4.52
-70.0,10.0,4.521
-43.0,14.0,4.522
-12.0,9.0,4.523
15.0,-2.0,4.524
32.0,-15.0,4.525
53.0,-24.0,4.526
87.0,-28.0,4.527
111.0,-25.0,4.528
105.0,-20.0,4.529
100.0,-18.0,4.53
97.0,-25.0,4.531
81.0,-37.0,4.532
31.0,-45.0,4.533
-5.0,-38.0,4.534
-2.0,-11.0,4.535
-2.0,21.0,4.536
-14.0,36.0,4.537
-20.0,32.0,4.538
5.0,29.0,4.539
27.0,37.0,4.54
8.0,37.0,4.541
-30.0,19.0,4.542
-45.0,-6.0,4.543
-36.0,-11.0,4.544
-36.0,2.0,4.545
-57.0,9.0,4.546
-76.0,-2.0,4.547
-79.0,-15.0,4.548
-73.0,-18.0,4.549
-65.0,-12.0,4.55
-56.0,-8.0,4.551
-35.0,-5.0,4.552
16.0,-1.0,4.553
94.0,-5.0,4.554
156.0,-13.0,4.555
162.0,-18.0,4.556
121.0,-12.0,4.557
64.0,-8.0,4.558
2.0,-8.0,4.559
-68.0,-13.0,4.56
-118.0,-20.0,4.561
-103.0,-25.0,4.562
-39.0,-26.0,4.563
0.0,-19.0,4.564
-10.0,-2.0,4.565
-14.0,19.0,4.566
15.0,30.0,4.567
31.0,26.0,4.568
-4.0,26.0,4.569
-46.0,47.0,4.57
-44.0,75.0,4.571
-18.0,69.0,4.572
-3.0,19.0,4.573
2.0,-39.0,4.574
12.0,-62.0,4.575
7.0,-44.0,4.576
-25.0,-17.0,4.577
-77.0,-7.0,4.578
-106.0,-5.0,4.579
-90.0,-5.0,4.58
-28.0,-9.0,4.581
65.0,-8.0,4.582
136.0,11.0,4.583
154.0,28.0,4.584
136.0,40.0,4.585
123.0,48.0,4.586
111.0,45.0,4.587
60.0,44.0,4.588
-40.0,53.0,4.589
-152.0,65.0,4.59
-219.0,86.0,4.591
-206.0,122.0,4.592
-131.0,200.0,4.593
-51.0,264.0,4.594
-6.0,284.0,4.595
40.0,268.0,4.596
132.0,140.0,4.597
227.0,-3.0,4.598
243.0,-208.0,4.599
231.0,-418.0,4.6
133.0,-555.0,4.601
43.0,-560.0,4.602
-23.0,-468.0,4.603
-97.0,-352.0,4.604
-189.0,-248.0,4.605
-251.0,-157.0,4.606
-221.0,-97.0,4.607
-169.0,-71.0,4.608
-49.0,-42.0,4.609
54.0,14.0,4.61
102.0,70.0,4.611
152.0,93.0,4.612
209.0,99.0,4.613
243.0,123.0,4.614
204.0,156.0,4.615
157.0,169.0,4.616
85.0,164.0,4.617
22.0,141.0,4.618
-10.0,102.0,4.619
-32.0,63.0,4.62
-53.0,26.0,4.621
-78.0,5.0,4.622
-102.0,33.0,4.623
-110.0,55.0,4.624
-104.0,59.0,4.625
-98.0,56.0,4.626
-104.0,30.0,4.627
-115.0,10.0,4.628
-101.0,5.0,4.629
-41.0,5.0,4.63
42.0,22.0,4.631
89.0,34.0,4.632
75.0,32.0,4.633
41.0,31.0,4.634
23.0,29.0,4.635
-3.0,32.0,4.636
-48.0,49.0,4.637
-59.0,66.0,4.638
-9.0,63.0,4.639
20.0,23.0,4.64
-16.0,-19.0,4.641
-48.0,-25.0,4.642
-72.0,-13.0,4.643
-102.0,-12.0,4.644
-151.0,-12.0,4.645
-171.0,7.0,4.646
-103.0,34.0,4.647
-37.0,29.0,4.648
19.0,-9.0,4.649
70.0,-40.0,4.65
106.0,-41.0,4.651
126.0,-31.0,4.652
99.0,-34.0,4.653
71.0,-41.0,4.654
45.0,-23.0,4.655
21.0,20.0,4.656
4.0,69.0,4.657
-9.0,94.0,4.658
42.0,90.0,4.659
165.0,62.0,4.66
242.0,23.0,4.661
207.0,-16.0,4.662
120.0,-58.0,4.663
51.0,-101.0,4.664
-3.0,-133.0,4.665
-49.0,-143.0,4.666
-54.0,-134.0,4.667
-7.0,-113.0,4.668
48.0,-83.0,4.669
69.0,-46.0,4.67
62.0,-17.0,4.671
51.0,-6.0,4.672
35.0,-5.0,4.673
-8.0,-4.0,4.674
-75.0,5.0,4.675
-124.0,17.0,4.676
-124.0,28.0,4.677
-88.0,27.0,4.678
-55.0,16.0,4.679
-46.0,3.0,4.68
-42.0,-4.0,4.681
-37.0,4.0,4.682
-62.0,27.0,4.683
-109.0,66.0,4.684
-106.0,110.0,4.685
-29.0,125.0,4.686
42.0,90.0,4.687
26.0,43.0,4.688
-30.0,49.0,4.689
-34.0,121.0,4.69
3.0,195.0,4.691
7.0,206.0,4.692
-21.0,164.0,4.693
-13.0,122.0,4.694
34.0,86.0,4.695
42.0,5.0,4.696
-16.0,-130.0,4.697
-94.0,-268.0,4.698
-117.0,-336.0,4.699
-73.0,-376.0,4.7
-8.0,-334.0,4.701
41.0,-280.0,4.702
84.0,-190.0,4.703
139.0,-105.0,4.704
186.0,-33.0,4.705
176.0,22.0,4.706
107.0,28.0,4.707
36.0,51.0,4.708
-1.0,124.0,4.709
-12.0,183.0,4.71
4.0,201.0,4.711
63.0,211.0,4.712
152.0,197.0,4.713
195.0,169.0,4.714
147.0,99.0,4.715
47.0,18.0,4.716
-20.0,-94.0,4.717
-42.0,-184.0,4.718
-54.0,-169.0,4.719
-67.0,-122.0,4.72
-87.0,-114.0,4.721
-95.0,-133.0,4.722
-68.0,-129.0,4.723
-57.0,-95.0,4.724
-99.0,-69.0,4.725
-130.0,-50.0,4.726
-123.0,-3.0,4.727
-112.0,70.0,4.728
-90.0,115.0,4.729
-53.0,101.0,4.73
30.0,67.0,4.731
84.0,70.0,4.732
49.0,103.0,4.733
22.0,116.0,4.734
16.0,84.0,4.735
13.0,45.0,4.736
19.0,37.0,4.737
14.0,48.0,4.738
-40.0,48.0,4.739
-114.0,32.0,4.74
-149.0,20.0,4.741
-72.0,29.0,4.742
96.0,43.0,4.743
234.0,51.0,4.744
261.0,56.0,4.745
209.0,54.0,4.746
126.0,36.0,4.747
-3.0,8.0,4.748
-154.0,-12.0,4.749
-205.0,-26.0,4.75
-100.0,-47.0,4.751
30.0,-75.0,4.752
50.0,-84.0,4.753
15.0,-69.0,4.754
40.0,-52.0,4.755
84.0,-47.0,4.756
50.0,-46.0,4.757
-45.0,-34.0,4.758
-51.0,-11.0,4.759
-2.0,9.0,4.76
-2.0,22.0,4.761
-42.0,33.0,4.762
-38.0,33.0,4.763
2.0,31.0,4.764
7.0,25.0,4.765
-19.0,22.0,4.766
-4.0,30.0,4.767
50.0,32.0,4.768
80.0,14.0,4.769
78.0,-6.0,4.77
73.0,-35.0,4.771
50.0,-63.0,4.772
-28.0,-90.0,4.773
-129.0,-109.0,4.774
-165.0,-100.0,4.775
-112.0,-83.0,4.776
-41.0,-43.0,4.777
230.0,-5.0,4.778
192.0,9.0,4.779
147.0,6.0,4.78
84.0,1.0,4.781
32.0,11.0,4.782
17.0,28.0,4.783
4.0,44.0,4.784
-6.0,58.0,4.785
-16.0,71.0,4.786
-24.0,82.0,4.787
-30.0,88.0,4.788
-30.0,82.0,4.789
-25.0,71.0,4.79
-13.0,87.0,4.791
-1.0,162.0,4.792
6.0,274.0,4.793
0.0,335.0,4.794
-47.0,266.0,4.795
-86.0,78.0,4.796
-101.0,-128.0,4.797
185.0,-331.0,4.798
155.0,-454.0,4.799
120.0,-503.0,4.8
70.0,-475.0,4.801
29.0,-375.0,4.802
17.0,-241.0,4.803
6.0,-101.0,4.804
-2.0,19.0,4.805
-10.0,87.0,4.806
-16.0,99.0,4.807
-21.0,87.0,4.808
-21.0,87.0,4.809
-17.0,79.0,4.81
-7.0,46.0,4.811
2.0,21.0,4.812
8.0,36.0,4.813
3.0,64.0,4.814
-34.0,59.0,4.815
-65.0,38.0,4.816
-77.0,39.0,4.817
-70.0,56.0,4.818
8.0,55.0,4.819
86.0,32.0,4.82
123.0,16.0,4.821
118.0,21.0,4.822
87.0,20.0,4.823
14.0,10.0,4.824
-94.0,20.0,4.825
-160.0,49.0,4.826
-118.0,65.0,4.827
-30.0,45.0,4.828
-11.0,17.0,4.829
-47.0,16.0,4.83
-28.0,32.0,4.831
62.0,36.0,4.832
114.0,25.0,4.833
79.0,29.0,4.834
39.0,53.0,4.835
35.0,73.0,4.836
6.0,68.0,4.837
-88.0,53.0,4.838
-147.0,54.0,4.839
-81.0,63.0,4.84
49.0,56.0,4.841
114.0,42.0,4.842
66.0,35.0,4.843
-41.0,23.0,4.844
-138.0,-13.0,4.845
-187.0,-67.0,4.846
-178.0,-101.0,4.847
-123.0,-91.0,4.848
-47.0,-34.0,4.849
46.0,52.0,4.85
144.0,136.0,4.851
202.0,176.0,4.852
183.0,158.0,4.853
132.0,110.0,4.854
106.0,65.0,4.855
88.0,25.0,4.856
37.0,-26.0,4.857
-27.0,-98.0,4.858
-32.0,-174.0,4.859
10.0,-239.0,4.86
25.0,-271.0,4.861
0.0,-294.0,4.862
-2.0,-292.0,4.863
25.0,-287.0,4.864
17.0,-269.0,4.865
-40.0,-238.0,4.866
-83.0,-166.0,4.867
-71.0,-92.0,4.868
-38.0,-12.0,4.869
-23.0,57.0,4.87
-17.0,89.0,4.871
-12.0,114.0,4.872
-25.0,114.0,4.873
-47.0,115.0,4.874
-47.0,125.0,4.875
-11.0,134.0,4.876
28.0,136.0,4.877
49.0,145.0,4.878
57.0,167.0,4.879
62.0,171.0,4.88
56.0,148.0,4.881
50.0,114.0,4.882
45.0,78.0,4.883
37.0,32.0,4.884
22.0,-30.0,4.885
4.0,-93.0,4.886
-21.0,-132.0,4.887
-37.0,-138.0,4.888
-27.0,-126.0,4.889
-21.0,-111.0,4.89
-32.0,-96.0,4.891
-39.0,-67.0,4.892
-32.0,-22.0,4.893
-25.0,30.0,4.894
-22.0,75.0,4.895
-15.0,115.0,4.896
-1.0,153.0,4.897
13.0,174.0,4.898
15.0,165.0,4.899
3.0,131.0,4.9
-10.0,93.0,4.901
-18.0,64.0,4.902
-18.0,31.0,4.903
-14.0,-7.0,4.904
-2.0,-34.0,4.905
25.0,-38.0,4.906
70.0,-37.0,4.907
99.0,-46.0,4.908
59.0,-58.0,4.909
-52.0,-58.0,4.91
-143.0,-54.0,4.911
-119.0,-60.0,4.912
-4.0,-70.0,4.913
80.0,-67.0,4.914
84.0,-54.0,4.915
75.0,-47.0,4.916
107.0,-46.0,4.917
130.0,-42.0,4.918
87.0,-23.0,4.919
18.0,6.0,4.92
-10.0,27.0,4.921
-14.0,39.0,4.922
-41.0,47.0,4.923
-77.0,52.0,4.924
-66.0,51.0,4.925
-22.0,45.0,4.926
-2.0,34.0,4.927
-10.0,20.0,4.928
-13.0,1.0,4.929
-5.0,-20.0,4.93
-6.0,-41.0,4.931
-10.0,-53.0,4.932
-3.0,-52.0,4.933
4.0,-42.0,4.934
-6.0,-34.0,4.935
-23.0,-29.0,4.936
-28.0,-23.0,4.937
-30.0,-18.0,4.938
-32.0,-16.0,4.939
-28.0,-18.0,4.94
-16.0,-21.0,4.941
-4.0,-14.0,4.942
4.0,1.0,4.943
18.0,17.0,4.944
27.0,28.0,4.945
18.0,38.0,4.946
0.0,52.0,4.947
-2.0,67.0,4.948
4.0,76.0,4.949
0.0,81.0,4.95
1.0,85.0,4.951
30.0,93.0,4.952
73.0,97.0,4.953
91.0,77.0,4.954
76.0,29.0,4.955
53.0,-24.0,4.956
33.0,-56.0,4.957
6.0,-79.0,4.958
-1.0,-104.0,4.959
-7.0,-119.0,4.96
-4.0,-103.0,4.961
-1.0,-83.0,4.962
6.0,-51.0,4.963
14.0,-24.0,4.964
21.0,-12.0,4.965
25.0,6.0,4.966
14.0,39.0,4.967
1.0,62.0,4.968
-19.0,56.0,4.969
-35.0,44.0,4.97
-35.0,16.0,4.971
-29.0,-13.0,4.972
-2.0,-41.0,4.973
17.0,-63.0,4.974
10.0,-61.0,4.975
2.0,-57.0,4.976
-7.0,-47.0,4.977
24.0,-31.0,4.978
-4.0,-3.0,4.979
-23.0,-5.0,4.98
-12.0,-32.0,4.981
2.0,-36.0,4.982
24.0,1.0,4.983
47.0,36.0,4.984
72.0,38.0,4.985
83.0,30.0,4.986
49.0,35.0,4.987
7.0,34.0,4.988
-59.0,13.0,4.989
-110.0,-3.0,4.99
-112.0,5.0,4.991
-93.0,23.0,4.992
-5.0,25.0,4.993
57.0,18.0,4.994
35.0,17.0,4.995
11.0,23.0,4.996
-21.0,29.0,4.997
-37.0,37.0,4.998
-5.0,38.0,4.999
15.0,20.0,5.0
20.0,-9.0,5.001
16.0,-25.0,5.002
0.0,-35.0,5.003
-16.0,-50.0,5.004
-10.0,-58.0,5.005
0.0,-42.0,5.006
-5.0,-15.0,5.007
-19.0,-3.0,5.008
-16.0,-4.0,5.009
7.0,-1.0,5.01
34.0,10.0,5.011
65.0,17.0,5.012
89.0,15.0,5.013
84.0,19.0,5.014
48.0,29.0,5.015
15.0,33.0,5.016
8.0,30.0,5.017
5.0,22.0,5.018
-6.0,16.0,5.019
-10.0,6.0,5.02
8.0,-4.0,5.021
12.0,0.0,5.022
-18.0,16.0,5.023
-46.0,25.0,5.024
-35.0,18.0,5.025
0.0,10.0,5.026
24.0,8.0,5.027
26.0,-1.0,5.028
10.0,-30.0,5.029
-27.0,-65.0,5.03
-72.0,-80.0,5.031
-81.0,-74.0,5.032
-34.0,-63.0,5.033
29.0,-56.0,5.034
50.0,-43.0,5.035
27.0,-21.0,5.036
9.0,0.0,5.037
28.0,11.0,5.038
74.0,22.0,5.039
102.0,33.0,5.04
85.0,43.0,5.041
42.0,51.0,5.042
-1.0,52.0,5.043
-36.0,52.0,5.044
-71.0,50.0,5.045
-91.0,48.0,5.046
-79.0,49.0,5.047
-48.0,43.0,5.048
-30.0,15.0,5.049
-31.0,-11.0,5.05
-32.0,-28.0,5.051
-17.0,-41.0,5.052
5.0,-41.0,5.053
19.0,-40.0,5.054
21.0,-39.0,5.055
15.0,-37.0,5.056
11.0,-34.0,5.057
16.0,-31.0,5.058
27.0,-27.0,5.059
30.0,-20.0,5.06
27.0,-22.0,5.061
26.0,-24.0,5.062
33.0,-18.0,5.063
34.0,-9.0,5.064
21.0,1.0,5.065
0.0,11.0,5.066
-13.0,14.0,5.067
-4.0,6.0,5.068
16.0,-2.0,5.069
26.0,8.0,5.07
12.0,36.0,5.071
-14.0,59.0,5.072
-26.0,63.0,5.073
-20.0,56.0,5.074
-7.0,48.0,5.075
4.0,40.0,5.076
8.0,33.0,5.077
-4.0,27.0,5.078
-19.0,23.0,5.079
-13.0,16.0,5.08
16.0,1.0,5.081
32.0,-15.0,5.082
18.0,-32.0,5.083
5.0,-45.0,5.084
16.0,-48.0,5.085
28.0,-50.0,5.086
30.0,-47.0,5.087
51.0,-44.0,5.088
83.0,-42.0,5.089
60.0,-41.0,5.09
-29.0,-40.0,5.091
-99.0,-35.0,5.092
-91.0,-20.0,5.093
-51.0,-4.0,5.094
-43.0,13.0,5.095
-43.0,26.0,5.096
-16.0,22.0,5.097
4.0,18.0,5.098
-6.0,17.0,5.099
-9.0,18.0,5.1
15.0,9.0,5.101
32.0,-1.0,5.102
29.0,-1.0,5.103
27.0,14.0,5.104
31.0,28.0,5.105
29.0,32.0,5.106
4.0,30.0,5.107
-16.0,29.0,5.108
-24.0,25.0,5.109
-24.0,12.0,5.11
-1.0,-7.0,5.111
16.0,-26.0,5.112
18.0,-37.0,5.113
18.0,-39.0,5.114
11.0,-30.0,5.115
3.0,-8.0,5.116
-2.0,16.0,5.117
-13.0,35.0,5.118
-30.0,35.0,5.119
-25.0,32.0,5.12
-3.0,18.0,5.121
11.0,8.0,5.122
17.0,12.0,5.123
28.0,12.0,5.124
40.0,1.0,5.125
41.0,-10.0,5.126
25.0,-18.0,5.127
1.0,-24.0,5.128
-24.0,-26.0,5.129
-34.0,-25.0,5.13
-19.0,-12.0,5.131
3.0,0.0,5.132
15.0,12.0,5.133
22.0,21.0,5.134
39.0,22.0,5.135
42.0,22.0,5.136
10.0,13.0,5.137
-41.0,4.0,5.138
-54.0,0.0,5.139
-41.0,0.0,5.14
-31.0,-8.0,5.141
-25.0,-25.0,5.142
-9.0,-43.0,5.143
5.0,-55.0,5.144
0.0,-55.0,5.145
-15.0,-47.0,5.146
-18.0,-40.0,5.147
-11.0,-41.0,5.148
-2.0,-44.0,5.149
20.0,-41.0,5.15
53.0,-28.0,5.151
72.0,-13.0,5.152
57.0,3.0,5.153
25.0,29.0,5.154
2.0,56.0,5.155
-7.0,64.0,5.156
-6.0,53.0,5.157
0.0,-1.0,5.158
7.0,-5.0,5.159
0.0,-10.0,5.16
-10.0,-16.0,5.161
-7.0,-22.0,5.162
5.0,-20.0,5.163
8.0,-16.0,5.164
-1.0,-10.0,5.165
-7.0,-5.0,5.166
2.0,-11.0,5.167
23.0,-17.0,5.168
53.0,-25.0,5.169
78.0,-29.0,5.17
75.0,-16.0,5.171
35.0,-1.0,5.172
-18.0,22.0,5.173
-66.0,43.0,5.174
-100.0,49.0,5.175
-102.0,51.0,5.176
-54.0,42.0,5.177
26.0,0.0,5.178
64.0,-4.0,5.179
23.0,-7.0,5.18
-30.0,-12.0,5.181
-38.0,-16.0,5.182
-20.0,-14.0,5.183
-20.0,-12.0,5.184
-19.0,-7.0,5.185
10.0,-4.0,5.186
38.0,-8.0,5.187
30.0,-13.0,5.188
3.0,-18.0,5.189
-10.0,-21.0,5.19
-12.0,-12.0,5.191
-14.0,0.0,5.192
2.0,16.0,5.193
30.0,31.0,5.194
32.0,36.0,5.195
3.0,37.0,5.196
-14.0,31.0,5.197
-4.0,-1.0,5.198
3.0,-5.0,5.199
-4.0,-9.0,5.2
7.0,-15.0,5.201
47.0,-20.0,5.202
64.0,-18.0,5.203
26.0,-15.0,5.204
-19.0,-9.0,5.205
-21.0,-5.0,5.206
-1.0,-10.0,5.207
5.0,-16.0,5.208
2.0,-23.0,5.209
10.0,-27.0,5.21
17.0,-15.0,5.211
8.0,-1.0,5.212
-2.0,20.0,5.213
2.0,40.0,5.214
2.0,45.0,5.215
-12.0,47.0,5.216
-20.0,39.0,5.217
-7.0,-1.0,5.218
16.0,-5.0,5.219
27.0,-9.0,5.22
35.0,-15.0,5.221
44.0,-20.0,5.222
28.0,-18.0,5.223
-32.0,-15.0,5.224
-89.0,-9.0,5.225
-83.0,-5.0,5.226
-22.0,-10.0,5.227
27.0,-16.0,5.228
36.0,-23.0,5.229
27.0,-26.0,5.23
23.0,-15.0,5.231
16.0,-1.0,5.232
-1.0,20.0,5.233
-17.0,39.0,5.234
-25.0,44.0,5.235
-36.0,46.0,5.236
-39.0,38.0,5.237
-11.0,33.0,5.238
35.0,36.0,5.239
49.0,28.0,5.24
27.0,6.0,5.241
12.0,-2.0,5.242
27.0,0.0,5.243
40.0,-2.0,5.244
28.0,-13.0,5.245
13.0,-17.0,5.246
23.0,-6.0,5.247
43.0,9.0,5.248
48.0,18.0,5.249
38.0,13.0,5.25
22.0,2.0,5.251
-5.0,-5.0,5.252
-44.0,-3.0,5.253
-77.0,5.0,5.254
-80.0,3.0,5.255
-53.0,-3.0,5.256
-21.0,2.0,5.257
-6.0,11.0,5.258
-15.0,7.0,5.259
-29.0,-9.0,5.26
-23.0,-18.0,5.261
2.0,-11.0,5.262
24.0,-7.0,5.263
27.0,-12.0,5.264
19.0,-12.0,5.265
17.0,-2.0,5.266
27.0,0.0,5.267
32.0,-8.0,5.268
18.0,-15.0,5.269
-12.0,-10.0,5.27
-25.0,-2.0,5.271
-9.0,1.0,5.272
14.0,4.0,5.273
15.0,8.0,5.274
1.0,12.0,5.275
0.0,10.0,5.276
12.0,8.0,5.277
13.0,6.0,5.278
-1.0,3.0,5.279
-14.0,-2.0,5.28
-9.0,-11.0,5.281
4.0,-15.0,5.282
14.0,-16.0,5.283
22.0,-18.0,5.284
29.0,-17.0,5.285
23.0,-14.0,5.286
0.0,-12.0,5.287
-20.0,-14.0,5.288
-20.0,-15.0,5.289
0.0,-13.0,5.29
19.0,-9.0,5.291
20.0,-10.0,5.292
13.0,-14.0,5.293
10.0,-14.0,5.294
11.0,-14.0,5.295
6.0,-15.0,5.296
-3.0,-12.0,5.297
-8.0,-4.0,5.298
-3.0,3.0,5.299
-2.0,2.0,5.3
-4.0,-9.0,5.301
3.0,-12.0,5.302
26.0,-7.0,5.303
37.0,-3.0,5.304
15.0,-3.0,5.305
-24.0,0.0,5.306
-45.0,3.0,5.307
-29.0,0.0,5.308
8.0,-9.0,5.309
32.0,-12.0,5.31
23.0,-9.0,5.311
-4.0,-11.0,5.312
-21.0,-23.0,5.313
-18.0,-31.0,5.314
-8.0,-31.0,5.315
-4.0,-33.0,5.316
-2.0,-39.0,5.317
0.0,-42.0,5.318
-1.0,-32.0,5.319
-8.0,-19.0,5.32
-12.0,-17.0,5.321
-6.0,-19.0,5.322
3.0,-17.0,5.323
9.0,-19.0,5.324
12.0,-35.0,5.325
15.0,-49.0,5.326
16.0,-43.0,5.327
20.0,-22.0,5.328
29.0,-13.0,5.329
34.0,-17.0,5.33
25.0,-20.0,5.331
8.0,-17.0,5.332
-1.0,-18.0,5.333
-2.0,-18.0,5.334
-2.0,-10.0,5.335
-1.0,3.0,5.336
12.0,6.0,5.337
29.0,-5.0,5.338
31.0,-7.0,5.339
8.0,-1.0,5.34
-16.0,-2.0,5.341
-19.0,-10.0,5.342
0.0,-14.0,5.343
13.0,-10.0,5.344
11.0,-12.0,5.345
3.0,-20.0,5.346
7.0,-23.0,5.347
7.0,-21.0,5.348
-21.0,-17.0,5.349
-70.0,-16.0,5.35
-100.0,-16.0,5.351
-87.0,-12.0,5.352
-47.0,-7.0,5.353
-10.0,1.0,5.354
10.0,13.0,5.355
18.0,20.0,5.356
25.0,21.0,5.357
32.0,24.0,5.358
35.0,36.0,5.359
25.0,48.0,5.36
9.0,48.0,5.361
-2.0,45.0,5.362
0.0,43.0,5.363
16.0,45.0,5.364
39.0,44.0,5.365
53.0,44.0,5.366
47.0,44.0,5.367
28.0,44.0,5.368
18.0,44.0,5.369
14.0,46.0,5.37
6.0,49.0,5.371
-2.0,50.0,5.372
2.0,49.0,5.373
13.0,50.0,5.374
11.0,51.0,5.375
-3.0,46.0,5.376
-3.0,37.0,5.377
17.0,27.0,5.378
31.0,23.0,5.379
21.0,32.0,5.38
-4.0,51.0,5.381
-19.0,76.0,5.382
-16.0,93.0,5.383
-6.0,92.0,5.384
0.0,79.0,5.385
-5.0,66.0,5.386
-13.0,52.0,5.387
-13.0,37.0,5.388
-5.0,27.0,5.389
-2.0,30.0,5.39
-9.0,30.0,5.391
-18.0,21.0,5.392
-24.0,5.0,5.393
-26.0,-5.0,5.394
-18.0,-11.0,5.395
1.0,-16.0,5.396
22.0,-15.0,5.397
31.0,-6.0,5.398
34.0,7.0,5.399
35.0,15.0,5.4
33.0,15.0,5.401
16.0,11.0,5.402
-18.0,7.0,5.403
-54.0,10.0,5.404
-69.0,29.0,5.405
-54.0,46.0,5.406
-17.0,35.0,5.407
16.0,6.0,5.408
30.0,-7.0,5.409
27.0,-1.0,5.41
17.0,1.0,5.411
3.0,-12.0,5.412
-7.0,-21.0,5.413
-5.0,-15.0,5.414
14.0,-12.0,5.415
34.0,-17.0,5.416
48.0,-18.0,5.417
64.0,-14.0,5.418
75.0,-16.0,5.419
57.0,-29.0,5.42
8.0,-42.0,5.421
-44.0,-39.0,5.422
-78.0,-34.0,5.423
-110.0,-33.0,5.424
-145.0,-30.0,5.425
-142.0,-24.0,5.426
-64.0,-17.0,5.427
36.0,-15.0,5.428
72.0,-10.0,5.429
31.0,-7.0,5.43
-6.0,-13.0,5.431
9.0,-21.0,5.432
43.0,-27.0,5.433
48.0,-28.0,5.434
38.0,-28.0,5.435
38.0,-30.0,5.436
43.0,-32.0,5.437
30.0,-35.0,5.438
9.0,-38.0,5.439
-15.0,-42.0,5.44
-35.0,-45.0,5.441
-39.0,-45.0,5.442
-10.0,-43.0,5.443
31.0,-37.0,5.444
50.0,-25.0,5.445
46.0,-13.0,5.446
55.0,-1.0,5.447
83.0,13.0,5.448
94.0,28.0,5.449
74.0,32.0,5.45
48.0,24.0,5.451
32.0,12.0,5.452
19.0,3.0,5.453
-1.0,-8.0,5.454
-11.0,-24.0,5.455
-7.0,-40.0,5.456
-6.0,-47.0,5.457
-15.0,-52.0,5.458
-19.0,-51.0,5.459
-14.0,-43.0,5.46
-16.0,-29.0,5.461
-23.0,-14.0,5.462
-24.0,-7.0,5.463
-15.0,-4.0,5.464
-11.0,2.0,5.465
-19.0,10.0,5.466
-19.0,11.0,5.467
-6.0,5.0,5.468
2.0,0.0,5.469
-2.0,-1.0,5.47
-2.0,-3.0,5.471
6.0,-8.0,5.472
5.0,-9.0,5.473
-11.0,-3.0,5.474
-22.0,6.0,5.475
-11.0,13.0,5.476
14.0,20.0,5.477
34.0,29.0,5.478
49.0,36.0,5.479
57.0,32.0,5.48
51.0,14.0,5.481
25.0,2.0,5.482
-15.0,-1.0,5.483
-54.0,1.0,5.484
-77.0,1.0,5.485
-77.0,1.0,5.486
-57.0,2.0,5.487
-34.0,0.0,5.488
-26.0,-4.0,5.489
-23.0,-8.0,5.49
-2.0,-8.0,5.491
33.0,-6.0,5.492
48.0,-2.0,5.493
30.0,4.0,5.494
3.0,5.0,5.495
-5.0,4.0,5.496
-4.0,2.0,5.497
-9.0,-5.0,5.498
-19.0,-21.0,5.499
-27.0,-36.0,5.5
-29.0,-40.0,5.501
-20.0,-23.0,5.502
0.0,6.0,5.503
14.0,39.0,5.504
4.0,64.0,5.505
-7.0,66.0,5.506
10.0,48.0,5.507
42.0,25.0,5.508
40.0,13.0,5.509
-7.0,7.0,5.51
-51.0,-4.0,5.511
-49.0,-13.0,5.512
-13.0,-15.0,5.513
26.0,-11.0,5.514
51.0,-12.0,5.515
65.0,-14.0,5.516
77.0,-12.0,5.517
95.0,-8.0,5.518
116.0,-7.0,5.519
110.0,-6.0,5.52
57.0,-8.0,5.521
-12.0,-8.0,5.522
-47.0,-8.0,5.523
-42.0,-2.0,5.524
-34.0,3.0,5.525
-55.0,-2.0,5.526
-82.0,-9.0,5.527
-77.0,-11.0,5.528
-32.0,-10.0,5.529
10.0,-15.0,5.53
10.0,-24.0,5.531
-16.0,-22.0,5.532
-23.0,-11.0,5.533
-4.0,-3.0,5.534
6.0,0.0,5.535
-4.0,1.0,5.536
-9.0,4.0,5.537
5.0,4.0,5.538
15.0,-1.0,5.539
0.0,-6.0,5.54
-15.0,-11.0,5.541
-6.0,-11.0,5.542
14.0,-2.0,5.543
19.0,9.0,5.544
16.0,14.0,5.545
16.0,12.0,5.546
23.0,8.0,5.547
24.0,4.0,5.548
22.0,1.0,5.549
25.0,-1.0,5.55
30.0,-4.0,5.551
31.0,-4.0,5.552
26.0,0.0,5.553
16.0,12.0,5.554
0.0,21.0,5.555
-20.0,18.0,5.556
-38.0,9.0,5.557
-49.0,-3.0,5.558
-49.0,-6.0,5.559
-45.0,-6.0,5.56
-35.0,-11.0,5.561
-14.0,-12.0,5.562
14.0,-2.0,5.563
29.0,16.0,5.564
19.0,33.0,5.565
-1.0,41.0,5.566
-1.0,35.0,5.567
19.0,16.0,5.568
30.0,-7.0,5.569
21.0,-17.0,5.57
6.0,-10.0,5.571
-6.0,4.0,5.572
-25.0,9.0,5.573
-39.0,9.0,5.574
-23.0,7.0,5.575
19.0,5.0,5.576
45.0,5.0,5.577
27.0,5.0,5.578
1.0,6.0,5.579
9.0,0.0,5.58
48.0,-13.0,5.581
72.0,-17.0,5.582
57.0,-11.0,5.583
14.0,-5.0,5.584
-41.0,-7.0,5.585
-90.0,-16.0,5.586
-99.0,-21.0,5.587
-55.0,-20.0,5.588
4.0,-18.0,5.589
23.0,-17.0,5.59
6.0,-9.0,5.591
8.0,10.0,5.592
48.0,31.0,5.593
86.0,35.0,5.594
92.0,20.0,5.595
80.0,5.0,5.596
68.0,7.0,5.597
41.0,17.0,5.598
4.0,26.0,5.599
-14.0,28.0,5.6
-15.0,10.0,5.601
-42.0,-4.0,5.602
-104.0,-11.0,5.603
-144.0,-9.0,5.604
-135.0,22.0,5.605
-99.0,40.0,5.606
-66.0,15.0,5.607
-20.0,-13.0,5.608
48.0,-52.0,5.609
107.0,-86.0,5.61
136.0,-102.0,5.611
139.0,-107.0,5.612
121.0,-80.0,5.613
78.0,-49.0,5.614
33.0,-11.0,5.615
15.0,17.0,5.616
12.0,19.0,5.617
-2.0,17.0,5.618
-19.0,7.0,5.619
-13.0,7.0,5.62
1.0,14.0,5.621
-3.0,25.0,5.622
-21.0,24.0,5.623
-24.0,13.0,5.624
-21.0,4.0,5.625
-39.0,4.0,5.626
-75.0,6.0,5.627
-92.0,7.0,5.628
-68.0,9.0,5.629
-18.0,12.0,5.63
40.0,14.0,5.631
74.0,24.0,5.632
62.0,46.0,5.633
10.0,74.0,5.634
-44.0,91.0,5.635
-67.0,96.0,5.636
-52.0,97.0,5.637
-8.0,87.0,5.638
48.0,48.0,5.639
93.0,-8.0,5.64
117.0,-63.0,5.641
129.0,-100.0,5.642
118.0,-125.0,5.643
52.0,-129.0,5.644
-55.0,-103.0,5.645
-143.0,-66.0,5.646
-174.0,-46.0,5.647
-174.0,-44.0,5.648
-164.0,-33.0,5.649
-122.0,-8.0,5.65
-57.0,8.0,5.651
-20.0,7.0,5.652
-15.0,3.0,5.653
3.0,5.0,5.654
34.0,12.0,5.655
36.0,17.0,5.656
29.0,29.0,5.657
81.0,54.0,5.658
173.0,94.0,5.659
195.0,124.0,5.66
127.0,123.0,5.661
87.0,118.0,5.662
148.0,102.0,5.663
200.0,85.0,5.664
116.0,69.0,5.665
-55.0,36.0,5.666
-155.0,-41.0,5.667
-132.0,-109.0,5.668
-79.0,-145.0,5.669
-77.0,-174.0,5.67
-92.0,-185.0,5.671
-58.0,-179.0,5.672
14.0,-120.0,5.673
56.0,-73.0,5.674
31.0,-64.0,5.675
-24.0,-47.0,5.676
-47.0,-7.0,5.677
-27.0,29.0,5.678
-4.0,27.0,5.679
16.0,12.0,5.68
27.0,22.0,5.681
37.0,50.0,5.682
42.0,64.0,5.683
23.0,86.0,5.684
-74.0,151.0,5.685
-140.0,243.0,5.686
-114.0,306.0,5.687
-76.0,305.0,5.688
1.0,244.0,5.689
60.0,138.0,5.69
62.0,-11.0,5.691
71.0,-183.0,5.692
97.0,-328.0,5.693
102.0,-392.0,5.694
44.0,-366.0,5.695
-6.0,-285.0,5.696
-34.0,-201.0,5.697
-56.0,-137.0,5.698
-56.0,-86.0,5.699
-48.0,-38.0,5.7
-50.0,5.0,5.701
-76.0,39.0,5.702
-99.0,59.0,5.703
-81.0,78.0,5.704
-32.0,99.0,5.705
25.0,108.0,5.706
94.0,98.0,5.707
166.0,79.0,5.708
181.0,63.0,5.709
113.0,51.0,5.71
14.0,33.0,5.711
-38.0,12.0,5.712
-41.0,3.0,5.713
-21.0,7.0,5.714
13.0,10.0,5.715
62.0,5.0,5.716
93.0,3.0,5.717
83.0,9.0,5.718
55.0,28.0,5.719
28.0,47.0,5.72
-1.0,53.0,5.721
-29.0,49.0,5.722
-37.0,38.0,5.723
-29.0,23.0,5.724
-39.0,3.0,5.725
-77.0,-14.0,5.726
-116.0,-21.0,5.727
-120.0,-14.0,5.728
-81.0,1.0,5.729
-27.0,16.0,5.73
4.0,20.0,5.731
-12.0,13.0,5.732
-48.0,3.0,5.733
-66.0,-2.0,5.734
-69.0,-5.0,5.735
-102.0,-8.0,5.736
-151.0,-3.0,5.737
-128.0,8.0,5.738
27.0,18.0,5.739
235.0,19.0,5.74
348.0,13.0,5.741
317.0,4.0,5.742
242.0,-18.0,5.743
209.0,-53.0,5.744
193.0,-71.0,5.745
128.0,-58.0,5.746
24.0,-31.0,5.747
-52.0,-15.0,5.748
-78.0,-11.0,5.749
-81.0,-4.0,5.75
-88.0,16.0,5.751
-87.0,46.0,5.752
-76.0,69.0,5.753
-68.0,63.0,5.754
-69.0,23.0,5.755
-77.0,-28.0,5.756
-79.0,-55.0,5.757
-82.0,-51.0,5.758
-90.0,-33.0,5.759
-111.0,-21.0,5.76
-127.0,-14.0,5.761
-116.0,9.0,5.762
-83.0,39.0,5.763
-70.0,56.0,5.764
-85.0,47.0,5.765
-71.0,15.0,5.766
12.0,-28.0,5.767
128.0,-68.0,5.768
196.0,-83.0,5.769
191.0,-71.0,5.77
151.0,-48.0,5.771
108.0,-32.0,5.772
67.0,-15.0,5.773
31.0,18.0,5.774
16.0,64.0,5.775
23.0,105.0,5.776
28.0,135.0,5.777
9.0,163.0,5.778
-26.0,196.0,5.779
-64.0,201.0,5.78
-91.0,137.0,5.781
-89.0,14.0,5.782
-47.0,-114.0,5.783
10.0,-198.0,5.784
42.0,-237.0,5.785
50.0,-242.0,5.786
78.0,-206.0,5.787
130.0,-131.0,5.788
150.0,-57.0,5.789
93.0,-14.0,5.79
-2.0,12.0,5.791
-77.0,44.0,5.792
-113.0,56.0,5.793
-129.0,15.0,5.794
-126.0,-55.0,5.795
-79.0,-113.0,5.796
9.0,-149.0,5.797
98.0,-180.0,5.798
131.0,-180.0,5.799
93.0,-125.0,5.8
33.0,-47.0,5.801
0.0,4.0,5.802
8.0,25.0,5.803
38.0,48.0,5.804
60.0,82.0,5.805
47.0,100.0,5.806
-9.0,102.0,5.807
-71.0,109.0,5.808
-93.0,125.0,5.809
-72.0,128.0,5.81
-48.0,117.0,5.811
-43.0,108.0,5.812
-52.0,119.0,5.813
-71.0,145.0,5.814
-101.0,160.0,5.815
-102.0,147.0,5.816
-44.0,109.0,5.817
46.0,55.0,5.818
86.0,12.0,5.819
54.0,-15.0,5.82
22.0,-41.0,5.821
44.0,-66.0,5.822
83.0,-85.0,5.823
97.0,-91.0,5.824
98.0,-83.0,5.825
95.0,-66.0,5.826
45.0,-51.0,5.827
-60.0,-56.0,5.828
-152.0,-82.0,5.829
-156.0,-99.0,5.83
-78.0,-79.0,5.831
7.0,-24.0,5.832
37.0,35.0,5.833
13.0,73.0,5.834
-25.0,78.0,5.835
-26.0,47.0,5.836
6.0,4.0,5.837
33.0,-23.0,5.838
29.0,-16.0,5.839
8.0,11.0,5.84
5.0,32.0,5.841
20.0,45.0,5.842
40.0,57.0,5.843
57.0,71.0,5.844
60.0,82.0,5.845
31.0,95.0,5.846
-11.0,116.0,5.847
-32.0,136.0,5.848
-29.0,132.0,5.849
-19.0,92.0,5.85
3.0,21.0,5.851
36.0,-64.0,5.852
51.0,-140.0,5.853
36.0,-187.0,5.854
40.0,-212.0,5.855
82.0,-232.0,5.856
103.0,-243.0,5.857
47.0,-233.0,5.858
-26.0,-196.0,5.859
-37.0,-147.0,5.86
-11.0,-95.0,5.861
-22.0,-29.0,5.862
-49.0,48.0,5.863
-28.0,121.0,5.864
18.0,181.0,5.865
16.0,219.0,5.866
-18.0,225.0,5.867
-20.0,189.0,5.868
-3.0,121.0,5.869
-18.0,36.0,5.87
-46.0,-65.0,5.871
-26.0,-159.0,5.872
14.0,-197.0,5.873
-6.0,-168.0,5.874
-77.0,-121.0,5.875
-110.0,-97.0,5.876
-79.0,-80.0,5.877
-32.0,-36.0,5.878
1.0,31.0,5.879
38.0,86.0,5.88
86.0,106.0,5.881
103.0,101.0,5.882
82.0,73.0,5.883
54.0,21.0,5.884
36.0,-29.0,5.885
14.0,-46.0,5.886
-8.0,-21.0,5.887
-11.0,29.0,5.888
5.0,80.0,5.889
14.0,110.0,5.89
19.0,113.0,5.891
31.0,100.0,5.892
35.0,87.0,5.893
3.0,73.0,5.894
-53.0,46.0,5.895
-89.0,6.0,5.896
-83.0,-28.0,5.897
-57.0,-54.0,5.898
-31.0,-70.0,5.899
-10.0,-74.0,5.9
12.0,-64.0,5.901
30.0,-36.0,5.902
43.0,-10.0,5.903
54.0,-6.0,5.904
58.0,-26.0,5.905
44.0,-57.0,5.906
12.0,-79.0,5.907
-21.0,-75.0,5.908
-43.0,-50.0,5.909
-44.0,-16.0,5.91
-36.0,19.0,5.911
-35.0,50.0,5.912
-40.0,71.0,5.913
-27.0,80.0,5.914
21.0,98.0,5.915
77.0,137.0,5.916
97.0,176.0,5.917
68.0,168.0,5.918
22.0,95.0,5.919
-15.0,-11.0,5.92
-44.0,-106.0,5.921
-59.0,-162.0,5.922
-39.0,-181.0,5.923
9.0,-169.0,5.924
43.0,-141.0,5.925
34.0,-117.0,5.926
18.0,-99.0,5.927
30.0,-78.0,5.928
46.0,-52.0,5.929
24.0,-29.0,5.93
-11.0,-6.0,5.931
-11.0,29.0,5.932
15.0,70.0,5.933
17.0,101.0,5.934
-13.0,117.0,5.935
-29.0,131.0,5.936
-13.0,139.0,5.937
5.0,123.0,5.938
2.0,91.0,5.939
-9.0,68.0,5.94
-6.0,52.0,5.941
3.0,29.0,5.942
5.0,-1.0,5.943
7.0,-3.0,5.944
18.0,44.0,5.945
38.0,108.0,5.946
59.0,120.0,5.947
60.0,55.0,5.948
20.0,-51.0,5.949
-50.0,-131.0,5.95
-97.0,-158.0,5.951
-80.0,-156.0,5.952
-24.0,-156.0,5.953
10.0,-161.0,5.954
8.0,-155.0,5.955
3.0,-136.0,5.956
13.0,-110.0,5.957
12.0,-83.0,5.958
-8.0,-57.0,5.959
-29.0,-36.0,5.96
-31.0,-23.0,5.961
-34.0,3.0,5.962
-55.0,52.0,5.963
-79.0,106.0,5.964
-69.0,135.0,5.965
-11.0,123.0,5.966
61.0,84.0,5.967
112.0,38.0,5.968
136.0,4.0,5.969
149.0,-1.0,5.97
143.0,22.0,5.971
104.0,59.0,5.972
43.0,90.0,5.973
-3.0,108.0,5.974
-23.0,106.0,5.975
-45.0,78.0,5.976
-74.0,39.0,5.977
-94.0,7.0,5.978
-83.0,0.0,5.979
-67.0,-2.0,5.98
-67.0,-22.0,5.981
-65.0,-51.0,5.982
-25.0,-71.0,5.983
41.0,-83.0,5.984
97.0,-94.0,5.985
111.0,-90.0,5.986
76.0,-57.0,5.987
4.0,-12.0,5.988
-66.0,9.0,5.989
-80.0,-3.0,5.99
-32.0,-27.0,5.991
19.0,-33.0,5.992
22.0,-20.0,5.993
-7.0,-5.0,5.994
-19.0,-2.0,5.995
-6.0,-8.0,5.996
9.0,-10.0,5.997
16.0,-3.0,5.998
21.0,10.0,5.999
22.0,25.0,6.0
12.0,41.0,6.001
4.0,49.0,6.002
13.0,34.0,6.003
22.0,18.0,6.004
16.0,3.0,6.005
-1.0,-9.0,6.006
-5.0,-12.0,6.007
-1.0,-14.0,6.008
3.0,-8.0,6.009
8.0,0.0,6.01
19.0,15.0,6.011
18.0,30.0,6.012
-9.0,45.0,6.013
-39.0,70.0,6.014
-46.0,123.0,6.015
-30.0,152.0,6.016
-14.0,104.0,6.017
-11.0,44.0,6.018
-16.0,-37.0,6.019
-19.0,-62.0,6.02
-17.0,-52.0,6.021
-10.0,-58.0,6.022
12.0,-88.0,6.023
28.0,-103.0,6.024
21.0,-84.0,6.025
9.0,-57.0,6.026
-16.0,-46.0,6.027
-29.0,-35.0,6.028
1.0,-9.0,6.029
29.0,11.0,6.03
48.0,11.0,6.031
51.0,5.0,6.032
3.0,0.0,6.033
-30.0,-17.0,6.034
-17.0,-51.0,6.035
0.0,-72.0,6.036
25.0,-62.0,6.037
48.0,-38.0,6.038
44.0,-18.0,6.039
21.0,3.0,6.04
7.0,29.0,6.041
23.0,42.0,6.042
47.0,24.0,6.043
43.0,-6.0,6.044
17.0,-12.0,6.045
8.0,2.0,6.046
18.0,13.0,6.047
14.0,11.0,6.048
-13.0,8.0,6.049
-29.0,15.0,6.05
-20.0,26.0,6.051
-13.0,32.0,6.052
-25.0,33.0,6.053
-34.0,30.0,6.054
-16.0,27.0,6.055
25.0,24.0,6.056
64.0,21.0,6.057
82.0,12.0,6.058
67.0,-1.0,6.059
7.0,-9.0,6.06
-75.0,-11.0,6.061
-133.0,-8.0,6.062
-120.0,-2.0,6.063
-51.0,7.0,6.064
7.0,17.0,6.065
10.0,27.0,6.066
-19.0,39.0,6.067
-31.0,60.0,6.068
-17.0,94.0,6.069
-2.0,125.0,6.07
3.0,131.0,6.071
9.0,102.0,6.072
19.0,48.0,6.073
27.0,-16.0,6.074
27.0,-81.0,6.075
22.0,-143.0,6.076
20.0,-190.0,6.077
13.0,-213.0,6.078
-6.0,-201.0,6.079
-21.0,-162.0,6.08
-33.0,-116.0,6.081
-38.0,-73.0,6.082
-24.0,-34.0,6.083
-11.0,5.0,6.084
-6.0,38.0,6.085
-4.0,58.0,6.086
-8.0,61.0,6.087
-14.0,57.0,6.088
-20.0,53.0,6.089
-20.0,46.0,6.09
-1.0,35.0,6.091
14.0,21.0,6.092
12.0,9.0,6.093
10.0,0.0,6.094
14.0,-5.0,6.095
14.0,0.0,6.096
5.0,15.0,6.097
15.0,37.0,6.098
-5.0,59.0,6.099
-23.0,72.0,6.1
-35.0,67.0,6.101
-41.0,53.0,6.102
-26.0,39.0,6.103
-12.0,22.0,6.104
-6.0,-11.0,6.105
-3.0,-46.0,6.106
-9.0,-63.0,6.107
-15.0,-58.0,6.108
-21.0,-52.0,6.109
-21.0,-49.0,6.11
0.0,-27.0,6.111
16.0,15.0,6.112
14.0,47.0,6.113
12.0,45.0,6.114
16.0,28.0,6.115
16.0,16.0,6.116
6.0,9.0,6.117
4.0,-8.0,6.118
31.0,-30.0,6.119
61.0,-48.0,6.12
81.0,-61.0,6.121
93.0,-66.0,6.122
77.0,-58.0,6.123
13.0,-39.0,6.124
-79.0,-15.0,6.125
-141.0,7.0,6.126
-139.0,30.0,6.127
-87.0,47.0,6.128
-30.0,46.0,6.129
1.0,33.0,6.13
2.0,25.0,6.131
-5.0,29.0,6.132
-3.0,34.0,6.133
10.0,29.0,6.134
16.0,21.0,6.135
12.0,20.0,6.136
9.0,17.0,6.137
6.0,-2.0,6.138
-4.0,-24.0,6.139
-18.0,-30.0,6.14
-18.0,-19.0,6.141
-6.0,-7.0,6.142
2.0,-9.0,6.143
4.0,-20.0,6.144
15.0,-21.0,6.145
46.0,-17.0,6.146
80.0,-14.0,6.147
83.0,-14.0,6.148
46.0,-11.0,6.149
0.0,-9.0,6.15
-14.0,-11.0,6.151
-5.0,-13.0,6.152
1.0,-7.0,6.153
2.0,-1.0,6.154
13.0,-1.0,6.155
21.0,-3.0,6.156
6.0,2.0,6.157
-23.0,15.0,6.158
-22.0,33.0,6.159
7.0,47.0,6.16
22.0,54.0,6.161
4.0,52.0,6.162
-3.0,37.0,6.163
15.0,16.0,6.164
24.0,2.0,6.165
1.0,-9.0,6.166
-22.0,-25.0,6.167
-16.0,-43.0,6.168
0.0,-53.0,6.169
3.0,-52.0,6.17
0.0,-50.0,6.171
6.0,-49.0,6.172
13.0,-47.0,6.173
7.0,-37.0,6.174
-2.0,-23.0,6.175
-2.0,-6.0,6.176
1.0,19.0,6.177
6.0,49.0,6.178
16.0,72.0,6.179
23.0,69.0,6.18
17.0,48.0,6.181
8.0,36.0,6.182
-12.0,41.0,6.183
-30.0,49.0,6.184
-45.0,47.0,6.185
-53.0,44.0,6.186
-37.0,43.0,6.187
-18.0,36.0,6.188
11.0,19.0,6.189
31.0,-3.0,6.19
24.0,-22.0,6.191
24.0,-45.0,6.192
48.0,-69.0,6.193
53.0,-85.0,6.194
0.0,-87.0,6.195
-41.0,-82.0,6.196
-43.0,-65.0,6.197
-43.0,-34.0,6.198
-42.0,-4.0,6.199
-41.0,6.0,6.2
-12.0,-9.0,6.201
17.0,-20.0,6.202
2.0,-14.0,6.203
-26.0,-3.0,6.204
-11.0,-2.0,6.205
33.0,-3.0,6.206
50.0,4.0,6.207
30.0,14.0,6.208
13.0,18.0,6.209
13.0,18.0,6.21
14.0,23.0,6.211
9.0,31.0,6.212
9.0,35.0,6.213
13.0,33.0,6.214
16.0,29.0,6.215
23.0,26.0,6.216
40.0,21.0,6.217
49.0,9.0,6.218
28.0,-5.0,6.219
-12.0,-16.0,6.22
-33.0,-21.0,6.221
-19.0,-22.0,6.222
6.0,-26.0,6.223
19.0,-38.0,6.224
11.0,-48.0,6.225
-4.0,-44.0,6.226
-6.0,-22.0,6.227
2.0,4.0,6.228
7.0,29.0,6.229
1.0,46.0,6.23
-2.0,48.0,6.231
0.0,34.0,6.232
5.0,12.0,6.233
5.0,-1.0,6.234
6.0,-3.0,6.235
10.0,4.0,6.236
6.0,15.0,6.237
-5.0,21.0,6.238
-14.0,19.0,6.239
-14.0,10.0,6.24
-9.0,2.0,6.241
-3.0,7.0,6.242
10.0,16.0,6.243
21.0,18.0,6.244
9.0,14.0,6.245
-21.0,7.0,6.246
-28.0,-1.0,6.247
7.0,-11.0,6.248
43.0,-16.0,6.249
30.0,-14.0,6.25
-23.0,-7.0,6.251
-51.0,-6.0,6.252
-26.0,-10.0,6.253
16.0,-15.0,6.254
31.0,-20.0,6.255
19.0,-22.0,6.256
9.0,-18.0,6.257
8.0,-13.0,6.258
4.0,-6.0,6.259
-8.0,-4.0,6.26
-14.0,-6.0,6.261
-12.0,-7.0,6.262
-16.0,-9.0,6.263
-40.0,-7.0,6.264
-62.0,3.0,6.265
-52.0,17.0,6.266
-8.0,18.0,6.267
27.0,1.0,6.268
31.0,-17.0,6.269
17.0,-26.0,6.27
12.0,-30.0,6.271
18.0,-37.0,6.272
21.0,-35.0,6.273
24.0,-14.0,6.274
33.0,11.0,6.275
43.0,23.0,6.276
42.0,29.0,6.277
23.0,31.0,6.278
2.0,24.0,6.279
-12.0,17.0,6.28
-20.0,7.0,6.281
-16.0,2.0,6.282
-1.0,10.0,6.283
9.0,13.0,6.284
-3.0,3.0,6.285
-21.0,-5.0,6.286
-14.0,-3.0,6.287
13.0,-3.0,6.288
32.0,-7.0,6.289
28.0,-9.0,6.29
20.0,-4.0,6.291
23.0,0.0,6.292
25.0,4.0,6.293
17.0,6.0,6.294
1.0,3.0,6.295
-10.0,2.0,6.296
-17.0,6.0,6.297
-26.0,12.0,6.298
-35.0,10.0,6.299
-34.0,-6.0,6.3
-20.0,-18.0,6.301
-3.0,-12.0,6.302
3.0,0.0,6.303
4.0,10.0,6.304
10.0,18.0,6.305
21.0,24.0,6.306
23.0,21.0,6.307
13.0,15.0,6.308
-2.0,16.0,6.309
-6.0,17.0,6.31
6.0,10.0,6.311
26.0,3.0,6.312
32.0,1.0,6.313
19.0,-2.0,6.314
8.0,-15.0,6.315
18.0,-23.0,6.316
32.0,-14.0,6.317
23.0,-7.0,6.318
2.0,-10.0,6.319
5.0,-16.0,6.32
31.0,-10.0,6.321
31.0,-1.0,6.322
-15.0,-7.0,6.323
-72.0,-16.0,6.324
-92.0,-9.0,6.325
-65.0,7.0,6.326
-23.0,14.0,6.327
-3.0,14.0,6.328
-22.0,18.0,6.329
-50.0,25.0,6.33
-37.0,21.0,6.331
12.0,12.0,6.332
44.0,10.0,6.333
29.0,10.0,6.334
3.0,5.0,6.335
9.0,-2.0,6.336
29.0,-3.0,6.337
29.0,-6.0,6.338
16.0,-8.0,6.339
12.0,-12.0,6.34
18.0,-17.0,6.341
16.0,-23.0,6.342
12.0,-30.0,6.343
16.0,-32.0,6.344
16.0,-18.0,6.345
3.0,-6.0,6.346
-5.0,-4.0,6.347
3.0,-2.0,6.348
10.0,-2.0,6.349
2.0,-3.0,6.35
-4.0,-10.0,6.351
5.0,-15.0,6.352
17.0,-9.0,6.353
13.0,-2.0,6.354
1.0,10.0,6.355
2.0,25.0,6.356
13.0,45.0,6.357
8.0,61.0,6.358
-1.0,53.0,6.359
-8.0,35.0,6.36
-1.0,15.0,6.361
7.0,4.0,6.362
22.0,2.0,6.363
32.0,6.0,6.364
26.0,6.0,6.365
16.0,-2.0,6.366
-1.0,-6.0,6.367
-13.0,-2.0,6.368
-3.0,3.0,6.369
6.0,2.0,6.37
14.0,-4.0,6.371
21.0,-8.0,6.372
25.0,-9.0,6.373
24.0,-8.0,6.374
8.0,-7.0,6.375
-12.0,-8.0,6.376
-40.0,-14.0,6.377
-71.0,-28.0,6.378
-100.0,-35.0,6.379
-89.0,-33.0,6.38
-34.0,-29.0,6.381
15.0,-27.0,6.382
17.0,-25.0,6.383
-8.0,-24.0,6.384
-8.0,-25.0,6.385
18.0,-24.0,6.386
32.0,-23.0,6.387
20.0,-18.0,6.388
10.0,-9.0,6.389
19.0,0.0,6.39
24.0,4.0,6.391
14.0,-1.0,6.392
4.0,-9.0,6.393
12.0,-13.0,6.394
20.0,-16.0,6.395
19.0,-20.0,6.396
20.0,-21.0,6.397
24.0,-21.0,6.398
21.0,-24.0,6.399
6.0,-32.0,6.4
-12.0,-43.0,6.401
-21.0,-47.0,6.402
-25.0,-45.0,6.403
-20.0,-42.0,6.404
3.0,-35.0,6.405
34.0,-26.0,6.406
46.0,-22.0,6.407
34.0,-25.0,6.408
13.0,-26.0,6.409
-8.0,-25.0,6.41
-29.0,-29.0,6.411
-37.0,-37.0,6.412
-20.0,-35.0,6.413
7.0,-23.0,6.414
15.0,-16.0,6.415
3.0,-22.0,6.416
1.0,-25.0,6.417
13.0,-25.0,6.418
19.0,-27.0,6.419
5.0,-31.0,6.42
-2.0,-39.0,6.421
11.0,-44.0,6.422
37.0,-38.0,6.423
50.0,-33.0,6.424
36.0,-29.0,6.425
-1.0,-25.0,6.426
-44.0,-26.0,6.427
-77.0,-27.0,6.428
-77.0,-28.0,6.429
-43.0,-29.0,6.43
5.0,-30.0,6.431
29.0,-31.0,6.432
8.0,-32.0,6.433
-24.0,-31.0,6.434
-29.0,-17.0,6.435
-11.0,-3.0,6.436
0.0,13.0,6.437
-3.0,29.0,6.438
9.0,41.0,6.439
19.0,49.0,6.44
25.0,43.0,6.441
29.0,26.0,6.442
25.0,5.0,6.443
21.0,-5.0,6.444
17.0,1.0,6.445
13.0,11.0,6.446
10.0,13.0,6.447
13.0,16.0,6.448
35.0,26.0,6.449
49.0,34.0,6.45
38.0,36.0,6.451
27.0,37.0,6.452
17.0,45.0,6.453
9.0,53.0,6.454
7.0,50.0,6.455
5.0,46.0,6.456
0.0,47.0,6.457
-8.0,48.0,6.458
-27.0,42.0,6.459
-53.0,36.0,6.46
-80.0,36.0,6.461
-92.0,44.0,6.462
-73.0,54.0,6.463
-34.0,63.0,6.464
-4.0,74.0,6.465
-3.0,78.0,6.466
-22.0,67.0,6.467
-33.0,51.0,6.468
-18.0,45.0,6.469
17.0,49.0,6.47
51.0,49.0,6.471
63.0,46.0,6.472
45.0,53.0,6.473
17.0,70.0,6.474
10.0,81.0,6.475
27.0,76.0,6.476
44.0,64.0,6.477
43.0,50.0,6.478
37.0,42.0,6.479
38.0,40.0,6.48
36.0,40.0,6.481
10.0,42.0,6.482
-21.0,39.0,6.483
-32.0,35.0,6.484
-34.0,34.0,6.485
-45.0,34.0,6.486
-61.0,30.0,6.487
-55.0,23.0,6.488
-21.0,20.0,6.489
15.0,26.0,6.49
36.0,29.0,6.491
41.0,25.0,6.492
38.0,20.0,6.493
30.0,18.0,6.494
14.0,22.0,6.495
-16.0,24.0,6.496
-46.0,22.0,6.497
-52.0,16.0,6.498
-12.0,14.0,6.499
33.0,11.0,6.5
33.0,9.0,6.501
-1.0,6.0,6.502
-11.0,-2.0,6.503
19.0,-7.0,6.504
37.0,-3.0,6.505
20.0,0.0,6.506
5.0,-6.0,6.507
17.0,-12.0,6.508
27.0,-13.0,6.509
17.0,-17.0,6.51
11.0,-25.0,6.511
25.0,-30.0,6.512
37.0,-26.0,6.513
29.0,-21.0,6.514
18.0,-19.0,6.515
17.0,-16.0,6.516
12.0,-10.0,6.517
-4.0,-6.0,6.518
-12.0,-15.0,6.519
-18.0,-27.0,6.52
-14.0,-31.0,6.521
-10.0,-27.0,6.522
-7.0,-30.0,6.523
-2.0,-37.0,6.524
7.0,-37.0,6.525
16.0,-32.0,6.526
21.0,-36.0,6.527
25.0,-43.0,6.528
21.0,-40.0,6.529
16.0,-27.0,6.53
13.0,-20.0,6.531
10.0,-23.0,6.532
9.0,-25.0,6.533
5.0,-27.0,6.534
-4.0,-35.0,6.535
-13.0,-46.0,6.536
-20.0,-47.0,6.537
-24.0,-41.0,6.538
-15.0,-35.0,6.539
-1.0,-34.0,6.54
0.0,-32.0,6.541
-7.0,-21.0,6.542
-4.0,-15.0,6.543
10.0,-17.0,6.544
13.0,-13.0,6.545
1.0,0.0,6.546
-4.0,4.0,6.547
9.0,-6.0,6.548
22.0,-18.0,6.549
21.0,-23.0,6.55
17.0,-27.0,6.551
12.0,-34.0,6.552
-3.0,-34.0,6.553
-27.0,-25.0,6.554
-32.0,-15.0,6.555
-9.0,-11.0,6.556
20.0,-11.0,6.557
22.0,-14.0,6.558
6.0,-17.0,6.559
-2.0,-22.0,6.56
9.0,-22.0,6.561
25.0,-15.0,6.562
32.0,-9.0,6.563
26.0,-7.0,6.564
10.0,-3.0,6.565
-16.0,3.0,6.566
-42.0,8.0,6.567
-50.0,9.0,6.568
-28.0,8.0,6.569
9.0,2.0,6.57
30.0,-8.0,6.571
17.0,-12.0,6.572
-10.0,-8.0,6.573
-27.0,2.0,6.574
-33.0,7.0,6.575
-38.0,7.0,6.576
-40.0,10.0,6.577
-26.0,11.0,6.578
0.0,6.0,6.579
8.0,0.0,6.58
-4.0,-4.0,6.581
-8.0,-3.0,6.582
13.0,-5.0,6.583
34.0,-6.0,6.584
32.0,-4.0,6.585
18.0,0.0,6.586
16.0,1.0,6.587
20.0,0.0,6.588
16.0,1.0,6.589
15.0,4.0,6.59
22.0,3.0,6.591
24.0,0.0,6.592
8.0,0.0,6.593
-8.0,8.0,6.594
-4.0,18.0,6.595
3.0,26.0,6.596
-3.0,30.0,6.597
-16.0,31.0,6.598
-10.0,31.0,6.599
-3.0,23.0,6.6
9.0,6.0,6.601
17.0,-10.0,6.602
15.0,-21.0,6.603
9.0,-24.0,6.604
-4.0,-26.0,6.605
-14.0,-34.0,6.606
-6.0,-44.0,6.607
2.0,-46.0,6.608
6.0,-41.0,6.609
10.0,-32.0,6.61
15.0,-23.0,6.611
18.0,-14.0,6.612
14.0,-5.0,6.613
13.0,3.0,6.614
21.0,8.0,6.615
27.0,11.0,6.616
27.0,14.0,6.617
25.0,15.0,6.618
4.0,17.0,6.619
-26.0,18.0,6.62
-49.0,16.0,6.621
-47.0,17.0,6.622
-23.0,16.0,6.623
-4.0,12.0,6.624
-2.0,12.0,6.625
-4.0,17.0,6.626
-3.0,27.0,6.627
-9.0,34.0,6.628
-28.0,32.0,6.629
-41.0,21.0,6.63
-31.0,5.0,6.631
-7.0,-1.0,6.632
14.0,6.0,6.633
33.0,8.0,6.634
50.0,-3.0,6.635
51.0,-17.0,6.636
33.0,-17.0,6.637
14.0,-7.0,6.638
16.0,0.0,6.639
15.0,-2.0,6.64
-2.0,-4.0,6.641
-14.0,3.0,6.642
-8.0,6.0,6.643
-3.0,0.0,6.644
-1.0,-4.0,6.645
-4.0,-6.0,6.646
-22.0,-9.0,6.647
-37.0,-15.0,6.648
-43.0,-16.0,6.649
-45.0,-11.0,6.65
-33.0,-10.0,6.651
-20.0,-12.0,6.652
-6.0,-9.0,6.653
7.0,3.0,6.654
20.0,16.0,6.655
30.0,20.0,6.656
26.0,18.0,6.657
18.0,13.0,6.658
8.0,13.0,6.659
18.0,13.0,6.66
29.0,5.0,6.661
23.0,-4.0,6.662
18.0,-9.0,6.663
20.0,-12.0,6.664
16.0,-15.0,6.665
-1.0,-18.0,6.666
-11.0,-16.0,6.667
0.0,-13.0,6.668
14.0,-9.0,6.669
12.0,-9.0,6.67
7.0,-5.0,6.671
17.0,6.0,6.672
32.0,15.0,6.673
34.0,16.0,6.674
21.0,10.0,6.675
3.0,5.0,6.676
-10.0,10.0,6.677
-17.0,19.0,6.678
-8.0,19.0,6.679
5.0,11.0,6.68
3.0,5.0,6.681
-22.0,15.0,6.682
-55.0,31.0,6.683
-62.0,31.0,6.684
-34.0,9.0,6.685
4.0,-26.0,6.686
21.0,-59.0,6.687
14.0,-71.0,6.688
14.0,-56.0,6.689
31.0,-29.0,6.69
42.0,-16.0,6.691
24.0,-24.0,6.692
-1.0,-29.0,6.693
-5.0,-16.0,6.694
9.0,5.0,6.695
13.0,22.0,6.696
7.0,27.0,6.697
12.0,27.0,6.698
42.0,35.0,6.699
72.0,51.0,6.7
70.0,63.0,6.701
25.0,62.0,6.702
-33.0,37.0,6.703
-74.0,8.0,6.704
-84.0,6.0,6.705
-77.0,42.0,6.706
-60.0,79.0,6.707
-25.0,76.0,6.708
21.0,31.0,6.709
61.0,-28.0,6.71
73.0,-82.0,6.711
61.0,-128.0,6.712
40.0,-155.0,6.713
13.0,-143.0,6.714
-23.0,-101.0,6.715
-63.0,-60.0,6.716
-79.0,-41.0,6.717
-57.0,-38.0,6.718
-13.0,-31.0,6.719
11.0,-21.0,6.72
-1.0,-14.0,6.721
-18.0,-2.0,6.722
-8.0,15.0,6.723
13.0,36.0,6.724
17.0,57.0,6.725
7.0,79.0,6.726
7.0,86.0,6.727
12.0,72.0,6.728
4.0,49.0,6.729
-9.0,39.0,6.73
-5.0,42.0,6.731
14.0,43.0,6.732
18.0,34.0,6.733
2.0,26.0,6.734
-21.0,17.0,6.735
-58.0,5.0,6.736
-110.0,-4.0,6.737
-148.0,-7.0,6.738
-115.0,-4.0,6.739
-13.0,-3.0,6.74
86.0,-11.0,6.741
132.0,-16.0,6.742
150.0,-9.0,6.743
184.0,-5.0,6.744
212.0,-10.0,6.745
188.0,-14.0,6.746
120.0,-10.0,6.747
61.0,-8.0,6.748
30.0,-15.0,6.749
-2.0,-21.0,6.75
-44.0,-23.0,6.751
-64.0,-27.0,6.752
-52.0,-36.0,6.753
-41.0,-38.0,6.754
-48.0,-20.0,6.755
-49.0,3.0,6.756
-27.0,43.0,6.757
-18.0,79.0,6.758
-34.0,91.0,6.759
-47.0,81.0,6.76
-51.0,57.0,6.761
-54.0,32.0,6.762
-58.0,-7.0,6.763
-49.0,-61.0,6.764
-2.0,-95.0,6.765
34.0,-86.0,6.766
34.0,-51.0,6.767
31.0,-14.0,6.768
23.0,40.0,6.769
17.0,133.0,6.77
20.0,221.0,6.771
20.0,227.0,6.772
9.0,141.0,6.773
-1.0,39.0,6.774
-6.0,-19.0,6.775
-17.0,-53.0,6.776
-43.0,-102.0,6.777
-69.0,-180.0,6.778
-77.0,-245.0,6.779
-42.0,-257.0,6.78
5.0,-216.0,6.781
10.0,-136.0,6.782
-31.0,-51.0,6.783
-72.0,12.0,6.784
-90.0,38.0,6.785
-106.0,36.0,6.786
-109.0,22.0,6.787
-63.0,6.0,6.788
16.0,-14.0,6.789
73.0,-38.0,6.79
100.0,-50.0,6.791
130.0,-38.0,6.792
146.0,-9.0,6.793
104.0,18.0,6.794
39.0,28.0,6.795
36.0,23.0,6.796
84.0,15.0,6.797
103.0,19.0,6.798
81.0,42.0,6.799
82.0,68.0,6.8
124.0,77.0,6.801
130.0,77.0,6.802
73.0,82.0,6.803
22.0,103.0,6.804
14.0,137.0,6.805
5.0,172.0,6.806
-33.0,189.0,6.807
-59.0,157.0,6.808
-65.0,72.0,6.809
-89.0,-32.0,6.81
-128.0,-112.0,6.811
-121.0,-157.0,6.812
-73.0,-181.0,6.813
-62.0,-187.0,6.814
-109.0,-176.0,6.815
-127.0,-162.0,6.816
-71.0,-148.0,6.817
-6.0,-114.0,6.818
-6.0,-47.0,6.819
-38.0,23.0,6.82
-19.0,56.0,6.821
54.0,67.0,6.822
106.0,86.0,6.823
95.0,111.0,6.824
58.0,121.0,6.825
38.0,107.0,6.826
28.0,73.0,6.827
-6.0,16.0,6.828
-71.0,-54.0,6.829
-117.0,-106.0,6.83
-97.0,-103.0,6.831
-31.0,-50.0,6.832
1.0,24.0,6.833
-23.0,100.0,6.834
-35.0,170.0,6.835
22.0,201.0,6.836
99.0,166.0,6.837
122.0,71.0,6.838
87.0,-27.0,6.839
76.0,-88.0,6.84
132.0,-122.0,6.841
187.0,-137.0,6.842
170.0,-124.0,6.843
96.0,-86.0,6.844
24.0,-50.0,6.845
-46.0,-37.0,6.846
-154.0,-25.0,6.847
-261.0,2.0,6.848
-251.0,23.0,6.849
-92.0,21.0,6.85
78.0,30.0,6.851
132.0,80.0,6.852
111.0,148.0,6.853
135.0,175.0,6.854
187.0,148.0,6.855
157.0,90.0,6.856
59.0,30.0,6.857
-12.0,-43.0,6.858
-8.0,-121.0,6.859
-12.0,-176.0,6.86
-67.0,-188.0,6.861
-120.0,-148.0,6.862
-134.0,-85.0,6.863
-148.0,-26.0,6.864
-173.0,9.0,6.865
-162.0,21.0,6.866
-103.0,15.0,6.867
-52.0,3.0,6.868
-26.0,-11.0,6.869
14.0,-32.0,6.87
73.0,-52.0,6.871
91.0,-52.0,6.872
62.0,-22.0,6.873
54.0,23.0,6.874
79.0,61.0,6.875
66.0,80.0,6.876
-1.0,86.0,6.877
-60.0,73.0,6.878
-41.0,50.0,6.879
25.0,23.0,6.88
80.0,2.0,6.881
118.0,-2.0,6.882
145.0,1.0,6.883
111.0,0.0,6.884
-15.0,-23.0,6.885
-163.0,-73.0,6.886
-216.0,-125.0,6.887
-153.0,-135.0,6.888
-53.0,-94.0,6.889
18.0,-44.0,6.89
79.0,-26.0,6.891
140.0,-23.0,6.892
155.0,4.0,6.893
82.0,53.0,6.894
-28.0,86.0,6.895
-92.0,81.0,6.896
-90.0,63.0,6.897
-59.0,49.0,6.898
-22.0,48.0,6.899
12.0,59.0,6.9
24.0,78.0,6.901
16.0,116.0,6.902
27.0,171.0,6.903
74.0,222.0,6.904
97.0,226.0,6.905
47.0,152.0,6.906
-23.0,21.0,6.907
-35.0,-113.0,6.908
4.0,-212.0,6.909
25.0,-264.0,6.91
7.0,-268.0,6.911
-16.0,-223.0,6.912
-12.0,-140.0,6.913
14.0,-44.0,6.914
34.0,52.0,6.915
28.0,132.0,6.916
-4.0,171.0,6.917
-46.0,153.0,6.918
-52.0,95.0,6.919
-5.0,28.0,6.92
55.0,-42.0,6.921
82.0,-102.0,6.922
74.0,-135.0,6.923
56.0,-143.0,6.924
38.0,-156.0,6.925
16.0,-177.0,6.926
-4.0,-160.0,6.927
-14.0,-87.0,6.928
-18.0,-14.0,6.929
-33.0,7.0,6.93
-62.0,5.0,6.931
-84.0,29.0,6.932
-76.0,65.0,6.933
-38.0,77.0,6.934
9.0,81.0,6.935
53.0,117.0,6.936
85.0,169.0,6.937
98.0,190.0,6.938
76.0,161.0,6.939
7.0,106.0,6.94
-101.0,50.0,6.941
-231.0,11.0,6.942
-328.0,-4.0,6.943
-294.0,5.0,6.944
-98.0,21.0,6.945
129.0,29.0,6.946
212.0,31.0,6.947
155.0,27.0,6.948
126.0,4.0,6.949
173.0,-34.0,6.95
157.0,-73.0,6.951
25.0,-99.0,6.952
-69.0,-120.0,6.953
-27.0,-142.0,6.954
22.0,-154.0,6.955
-37.0,-141.0,6.956
-108.0,-97.0,6.957
-73.0,-36.0,6.958
18.0,16.0,6.959
53.0,34.0,6.96
41.0,13.0,6.961
45.0,-12.0,6.962
32.0,-20.0,6.963
-31.0,-15.0,6.964
-69.0,-5.0,6.965
-23.0,24.0,6.966
34.0,86.0,6.967
30.0,153.0,6.968
-2.0,175.0,6.969
3.0,131.0,6.97
35.0,60.0,6.971
55.0,8.0,6.972
66.0,-10.0,6.973
73.0,-11.0,6.974
53.0,-8.0,6.975
7.0,-4.0,6.976
-33.0,6.0,6.977
-64.0,197.0,6.978
-88.0,33.0,6.979
-87.0,-103.0,6.98
-51.0,-159.0,6.981
-29.0,-199.0,6.982
-61.0,-184.0,6.983
-122.0,-166.0,6.984
-148.0,-145.0,6.985
-105.0,-123.0,6.986
0.0,-105.0,6.987
136.0,-78.0,6.988
239.0,-26.0,6.989
253.0,17.0,6.99
192.0,33.0,6.991
118.0,49.0,6.992
65.0,67.0,6.993
31.0,91.0,6.994
14.0,121.0,6.995
7.0,145.0,6.996
-5.0,150.0,6.997
-39.0,101.0,6.998
-18.0,10.0,6.999
-4.0,-66.0,7.0
-7.0,-97.0,7.001
-11.0,-119.0,7.002
-21.0,-111.0,7.003
-30.0,-101.0,7.004
-29.0,-89.0,7.005
-25.0,-77.0,7.006
-10.0,-67.0,7.007
-2.0,-52.0,7.008
-18.0,-23.0,7.009
-32.0,1.0,7.01
-35.0,10.0,7.011
-36.0,19.0,7.012
-34.0,29.0,7.013
-23.0,42.0,7.014
13.0,59.0,7.015
43.0,72.0,7.016
52.0,75.0,7.017
-63.0,76.0,7.018
-24.0,73.0,7.019
5.0,74.0,7.02
0.0,62.0,7.021
-9.0,50.0,7.022
-30.0,67.0,7.023
-46.0,122.0,7.024
-44.0,175.0,7.025
-36.0,174.0,7.026
-6.0,115.0,7.027
8.0,22.0,7.028
-24.0,-82.0,7.029
-50.0,-177.0,7.03
-55.0,-235.0,7.031
-58.0,-226.0,7.032
-53.0,-159.0,7.033
-32.0,-82.0,7.034
37.0,-49.0,7.035
94.0,-71.0,7.036
111.0,-110.0,7.037
131.0,-116.0,7.038
169.0,-52.0,7.039
193.0,73.0,7.04
155.0,211.0,7.041
92.0,314.0,7.042
60.0,339.0,7.043
41.0,274.0,7.044
7.0,139.0,7.045
-20.0,-27.0,7.046
-16.0,-174.0,7.047
-8.0,-254.0,7.048
-30.0,-252.0,7.049
-51.0,-211.0,7.05
-39.0,-208.0,7.051
-18.0,-264.0,7.052
-16.0,-318.0,7.053
-16.0,-298.0,7.054
-3.0,-196.0,7.055
2.0,-69.0,7.056
-13.0,27.0,7.057
-36.0,77.0,7.058
-41.0,97.0,7.059
-32.0,114.0,7.06
-25.0,124.0,7.061
-22.0,134.0,7.062
-20.0,140.0,7.063
-20.0,149.0,7.064
-18.0,165.0,7.065
-8.0,175.0,7.066
5.0,165.0,7.067
7.0,152.0,7.068
-2.0,128.0,7.069
2.0,94.0,7.07
33.0,31.0,7.071
64.0,-19.0,7.072
56.0,-32.0,7.073
1.0,-47.0,7.074
-68.0,-68.0,7.075
-118.0,-87.0,7.076
-130.0,-97.0,7.077
31.0,-95.0,7.078
4.0,-54.0,7.079
-22.0,-23.0,7.08
-53.0,-12.0,7.081
-52.0,-10.0,7.082
45.0,-11.0,7.083
104.0,-11.0,7.084
35.0,0.0,7.085
-19.0,32.0,7.086
-33.0,72.0,7.087
-46.0,102.0,7.088
-47.0,108.0,7.089
-40.0,91.0,7.09
-8.0,60.0,7.091
17.0,26.0,7.092
14.0,-1.0,7.093
13.0,-14.0,7.094
14.0,-15.0,7.095
13.0,-19.0,7.096
4.0,-36.0,7.097
22.0,-59.0,7.098
3.0,-57.0,7.099
-16.0,-24.0,7.1
-38.0,14.0,7.101
-37.0,34.0,7.102
32.0,28.0,7.103
73.0,-4.0,7.104
25.0,-57.0,7.105
-14.0,-111.0,7.106
-24.0,-137.0,7.107
-33.0,-133.0,7.108
-34.0,-117.0,7.109
-29.0,-102.0,7.11
-6.0,-83.0,7.111
12.0,-46.0,7.112
10.0,15.0,7.113
9.0,106.0,7.114
10.0,205.0,7.115
9.0,258.0,7.116
3.0,223.0,7.117
-2.0,108.0,7.118
-8.0,-23.0,7.119
-14.0,-117.0,7.12
-17.0,-169.0,7.121
-4.0,-180.0,7.122
21.0,-145.0,7.123
32.0,-81.0,7.124
25.0,-29.0,7.125
17.0,-7.0,7.126
11.0,10.0,7.127
-6.0,43.0,7.128
-28.0,72.0,7.129
-32.0,82.0,7.13
-17.0,79.0,7.131
1.0,74.0,7.132
11.0,61.0,7.133
17.0,44.0,7.134
22.0,39.0,7.135
21.0,46.0,7.136
24.0,39.0,7.137
-4.0,0.0,7.138
15.0,-39.0,7.139
22.0,-47.0,7.14
-8.0,-36.0,7.141
-23.0,-38.0,7.142
15.0,-50.0,7.143
44.0,-50.0,7.144
39.0,-33.0,7.145
40.0,-18.0,7.146
61.0,-14.0,7.147
69.0,-3.0,7.148
42.0,20.0,7.149
10.0,44.0,7.15
-25.0,60.0,7.151
-53.0,65.0,7.152
-50.0,52.0,7.153
-38.0,26.0,7.154
-3.0,4.0,7.155
17.0,3.0,7.156
-11.0,7.0,7.157
0.0,-4.0,7.158
12.0,-25.0,7.159
16.0,-37.0,7.16
-2.0,-36.0,7.161
-11.0,-28.0,7.162
12.0,-23.0,7.163
29.0,-15.0,7.164
26.0,-7.0,7.165
27.0,-11.0,7.166
39.0,-24.0,7.167
44.0,-38.0,7.168
28.0,-45.0,7.169
9.0,-43.0,7.17
-12.0,-23.0,7.171
-29.0,10.0,7.172
-27.0,36.0,7.173
-20.0,38.0,7.174
1.0,32.0,7.175
13.0,35.0,7.176
-4.0,48.0,7.177
-17.0,54.0,7.178
-11.0,51.0,7.179
5.0,53.0,7.18
17.0,72.0,7.181
25.0,99.0,7.182
37.0,113.0,7.183
32.0,101.0,7.184
-2.0,59.0,7.185
-42.0,-6.0,7.186
-56.0,-77.0,7.187
-36.0,-125.0,7.188
0.0,-141.0,7.189
32.0,-134.0,7.19
47.0,-120.0,7.191
41.0,-111.0,7.192
26.0,-104.0,7.193
14.0,-96.0,7.194
1.0,-81.0,7.195
-10.0,-60.0,7.196
-13.0,-36.0,7.197
44.0,1.0,7.198
7.0,5.0,7.199
-25.0,10.0,7.2
-38.0,20.0,7.201
-43.0,29.0,7.202
-15.0,37.0,7.203
9.0,36.0,7.204
27.0,8.0,7.205
42.0,-15.0,7.206
39.0,-31.0,7.207
37.0,-41.0,7.208
37.0,-30.0,7.209
24.0,-18.0,7.21
-38.0,2.0,7.211
-78.0,16.0,7.212
-50.0,19.0,7.213
-18.0,22.0,7.214
22.0,26.0,7.215
44.0,28.0,7.216
12.0,18.0,7.217
25.0,-1.0,7.218
4.0,4.0,7.219
-13.0,12.0,7.22
-20.0,24.0,7.221
-23.0,35.0,7.222
-7.0,45.0,7.223
6.0,44.0,7.224
16.0,9.0,7.225
24.0,-22.0,7.226
23.0,-42.0,7.227
21.0,-54.0,7.228
21.0,-41.0,7.229
14.0,-25.0,7.23
-20.0,0.0,7.231
-43.0,19.0,7.232
-27.0,23.0,7.233
-9.0,27.0,7.234
13.0,32.0,7.235
25.0,34.0,7.236
7.0,21.0,7.237
19.0,10.0,7.238
4.0,7.0,7.239
-9.0,-1.0,7.24
-14.0,-23.0,7.241
-16.0,-37.0,7.242
-5.0,-35.0,7.243
5.0,-28.0,7.244
12.0,-30.0,7.245
18.0,-33.0,7.246
17.0,-30.0,7.247
16.0,-32.0,7.248
16.0,-45.0,7.249
11.0,-60.0,7.25
-14.0,-54.0,7.251
-30.0,-23.0,7.252
-19.0,19.0,7.253
-6.0,48.0,7.254
10.0,58.0,7.255
19.0,60.0,7.256
6.0,59.0,7.257
-8.0,53.0,7.258
-20.0,43.0,7.259
-16.0,34.0,7.26
-5.0,29.0,7.261
0.0,27.0,7.262
1.0,18.0,7.263
3.0,2.0,7.264
2.0,-12.0,7.265
0.0,-26.0,7.266
14.0,-37.0,7.267
39.0,-42.0,7.268
44.0,-38.0,7.269
25.0,-32.0,7.27
5.0,-39.0,7.271
-8.0,-52.0,7.272
-36.0,-55.0,7.273
-68.0,-39.0,7.274
-64.0,-14.0,7.275
-23.0,2.0,7.276
8.0,10.0,7.277
10.0,12.0,7.278
7.0,16.0,7.279
4.0,19.0,7.28
1.0,21.0,7.281
-1.0,24.0,7.282
2.0,27.0,7.283
3.0,29.0,7.284
-2.0,27.0,7.285
-5.0,23.0,7.286
-1.0,14.0,7.287
1.0,6.0,7.288
-1.0,3.0,7.289
-4.0,-2.0,7.29
-7.0,-14.0,7.291
-7.0,-23.0,7.292
-1.0,-21.0,7.293
4.0,-15.0,7.294
14.0,4.0,7.295
20.0,20.0,7.296
15.0,24.0,7.297
24.0,24.0,7.298
17.0,5.0,7.299
8.0,-8.0,7.3
-2.0,-13.0,7.301
-8.0,-11.0,7.302
1.0,-8.0,7.303
5.0,-1.0,7.304
-9.0,14.0,7.305
-18.0,28.0,7.306
-8.0,31.0,7.307
-2.0,21.0,7.308
-8.0,9.0,7.309
-14.0,6.0,7.31
-21.0,5.0,7.311
-23.0,-1.0,7.312
-8.0,-11.0,7.313
9.0,-14.0,7.314
33.0,-3.0,7.315
48.0,11.0,7.316
36.0,16.0,7.317
19.0,5.0,7.318
-11.0,-10.0,7.319
-16.0,-20.0,7.32
0.0,-26.0,7.321
16.0,-26.0,7.322
14.0,-26.0,7.323
10.0,-29.0,7.324
17.0,-36.0,7.325
26.0,-45.0,7.326
19.0,-45.0,7.327
2.0,-37.0,7.328
-4.0,-22.0,7.329
-4.0,-7.0,7.33
-4.0,2.0,7.331
-8.0,4.0,7.332
-5.0,8.0,7.333
-4.0,18.0,7.334
-8.0,29.0,7.335
-7.0,30.0,7.336
4.0,24.0,7.337
16.0,15.0,7.338
12.0,12.0,7.339
-6.0,9.0,7.34
-17.0,10.0,7.341
-8.0,14.0,7.342
11.0,26.0,7.343
21.0,35.0,7.344
6.0,35.0,7.345
-20.0,35.0,7.346
-25.0,29.0,7.347
1.0,22.0,7.348
28.0,12.0,7.349
26.0,3.0,7.35
0.0,-4.0,7.351
-13.0,-13.0,7.352
-5.0,-27.0,7.353
10.0,-38.0,7.354
13.0,-42.0,7.355
10.0,-45.0,7.356
13.0,-45.0,7.357
17.0,-39.0,7.358
15.0,-21.0,7.359
8.0,-11.0,7.36
-13.0,-19.0,7.361
-29.0,-21.0,7.362
-25.0,-10.0,7.363
-16.0,3.0,7.364
6.0,12.0,7.365
24.0,21.0,7.366
23.0,32.0,7.367
14.0,38.0,7.368
-15.0,36.0,7.369
-33.0,30.0,7.37
-15.0,23.0,7.371
1.0,16.0,7.372
14.0,12.0,7.373
19.0,8.0,7.374
0.0,5.0,7.375
-11.0,4.0,7.376
4.0,6.0,7.377
16.0,2.0,7.378
13.0,-7.0,7.379
17.0,-15.0,7.38
24.0,-17.0,7.381
15.0,-18.0,7.382
-1.0,-15.0,7.383
0.0,-9.0,7.384
10.0,4.0,7.385
0.0,19.0,7.386
-17.0,31.0,7.387
-16.0,35.0,7.388
-6.0,15.0,7.389
-12.0,-1.0,7.39
-24.0,-2.0,7.391
-13.0,-4.0,7.392
10.0,-8.0,7.393
16.0,-11.0,7.394
7.0,-9.0,7.395
11.0,-8.0,7.396
23.0,-8.0,7.397
23.0,-9.0,7.398
9.0,-16.0,7.399
0.0,-16.0,7.4
3.0,-14.0,7.401
11.0,-10.0,7.402
21.0,-6.0,7.403
35.0,-2.0,7.404
43.0,-3.0,7.405
35.0,-7.0,7.406
18.0,-10.0,7.407
-4.0,-6.0,7.408
-29.0,0.0,7.409
-41.0,-5.0,7.41
-23.0,-22.0,7.411
-1.0,-35.0,7.412
-6.0,-30.0,7.413
-26.0,-12.0,7.414
-18.0,3.0,7.415
8.0,12.0,7.416
11.0,21.0,7.417
-18.0,30.0,7.418
-31.0,33.0,7.419
-12.0,31.0,7.42
3.0,25.0,7.421
-1.0,24.0,7.422
1.0,21.0,7.423
20.0,11.0,7.424
24.0,5.0,7.425
3.0,4.0,7.426
-6.0,1.0,7.427
14.0,-5.0,7.428
28.0,-6.0,7.429
13.0,-4.0,7.43
-8.0,-5.0,7.431
-7.0,-11.0,7.432
2.0,-19.0,7.433
-1.0,-20.0,7.434
-8.0,-13.0,7.435
2.0,-5.0,7.436
28.0,4.0,7.437
45.0,9.0,7.438
37.0,10.0,7.439
-2.0,10.0,7.44
-43.0,7.0,7.441
-56.0,6.0,7.442
-28.0,6.0,7.443
9.0,7.0,7.444
22.0,7.0,7.445
11.0,3.0,7.446
2.0,-5.0,7.447
8.0,-10.0,7.448
17.0,-10.0,7.449
17.0,-6.0,7.45
9.0,2.0,7.451
1.0,15.0,7.452
3.0,24.0,7.453
19.0,16.0,7.454
33.0,-4.0,7.455
29.0,-21.0,7.456
7.0,-19.0,7.457
-19.0,-10.0,7.458
-31.0,-6.0,7.459
-33.0,-7.0,7.46
-27.0,-8.0,7.461
-14.0,0.0,7.462
2.0,9.0,7.463
10.0,14.0,7.464
7.0,15.0,7.465
4.0,13.0,7.466
9.0,11.0,7.467
16.0,9.0,7.468
17.0,6.0,7.469
12.0,0.0,7.47
4.0,-9.0,7.471
-8.0,-14.0,7.472
-24.0,-14.0,7.473
-30.0,-12.0,7.474
