Deltoid,Bicep,Time
-65.0,-20.0,0.0
-8.0,-20.0,0.001
59.0,-13.0,0.002
127.0,-7.0,0.003
201.0,-7.0,0.004
268.0,-9.0,0.005
289.0,-9.0,0.006
257.0,-4.0,0.007
215.0,3.0,0.008
194.0,14.0,0.009
173.0,24.0,0.01
120.0,25.0,0.011
43.0,18.0,0.012
-21.0,11.0,0.013
-64.0,10.0,0.014
-100.0,10.0,0.015
-134.0,10.0,0.016
-145.0,6.0,0.017
-146.0,-4.0,0.018
-157.0,-12.0,0.019
-182.0,-17.0,0.02
-188.0,-20.0,0.021
-166.0,-21.0,0.022
-139.0,-24.0,0.023
-128.0,-20.0,0.024
-122.0,-3.0,0.025
-108.0,22.0,0.026
-98.0,44.0,0.027
-98.0,50.0,0.028
-107.0,37.0,0.029
-120.0,22.0,0.03
-141.0,17.0,0.031
-167.0,23.0,0.032
-185.0,19.0,0.033
-189.0,3.0,0.034
-188.0,-5.0,0.035
-182.0,-1.0,0.036
-166.0,2.0,0.037
-145.0,-8.0,0.038
-124.0,-17.0,0.039
-101.0,-10.0,0.04
-74.0,-7.0,0.041
-46.0,-14.0,0.042
-19.0,-25.0,0.043
4.0,-23.0,0.044
17.0,-15.0,0.045
27.0,-13.0,0.046
23.0,-16.0,0.047
19.0,-10.0,0.048
14.0,0.0,0.049
3.0,0.0,0.05
-22.0,-11.0,0.051
-49.0,-17.0,0.052
-75.0,-15.0,0.053
-96.0,-15.0,0.054
-97.0,-15.0,0.055
-98.0,-10.0,0.056
-99.0,-4.0,0.057
-99.0,-4.0,0.058
-90.0,-7.0,0.059
-65.0,-8.0,0.06
-34.0,1.0,0.061
-14.0,8.0,0.062
3.0,10.0,0.063
32.0,12.0,0.064
72.0,13.0,0.065
103.0,15.0,0.066
119.0,15.0,0.067
138.0,14.0,0.068
175.0,12.0,0.069
204.0,10.0,0.07
193.0,7.0,0.071
148.0,4.0,0.072
116.0,3.0,0.073
119.0,1.0,0.074
131.0,-3.0,0.075
122.0,-6.0,0.076
99.0,-4.0,0.077
77.0,-1.0,0.078
65.0,-1.0,0.079
56.0,-2.0,0.08
59.0,-2.0,0.081
77.0,-1.0,0.082
100.0,0.0,0.083
117.0,0.0,0.084
123.0,4.0,0.085
122.0,6.0,0.086
116.0,0.0,0.087
110.0,-7.0,0.088
102.0,-8.0,0.089
81.0,-4.0,0.09
45.0,-3.0,0.091
4.0,-1.0,0.092
-24.0,6.0,0.093
-37.0,17.0,0.094
-44.0,20.0,0.095
-48.0,15.0,0.096
-49.0,20.0,0.097
-56.0,33.0,0.098
-64.0,37.0,0.099
-61.0,26.0,0.1
-31.0,8.0,0.101
12.0,5.0,0.102
50.0,9.0,0.103
71.0,4.0,0.104
80.0,0.0,0.105
79.0,5.0,0.106
69.0,10.0,0.107
53.0,5.0,0.108
42.0,-3.0,0.109
39.0,-5.0,0.11
35.0,-2.0,0.111
20.0,-4.0,0.112
-8.0,-10.0,0.113
-38.0,-8.0,0.114
-63.0,-5.0,0.115
-78.0,-6.0,0.116
-91.0,-7.0,0.117
-107.0,-5.0,0.118
-114.0,-4.0,0.119
-103.0,-9.0,0.12
-81.0,-18.0,0.121
-57.0,-17.0,0.122
-32.0,-12.0,0.123
-3.0,-9.0,0.124
23.0,-8.0,0.125
44.0,-5.0,0.126
68.0,-2.0,0.127
100.0,-3.0,0.128
123.0,-5.0,0.129
120.0,-8.0,0.13
89.0,-13.0,0.131
41.0,-16.0,0.132
-9.0,-13.0,0.133
-50.0,-7.0,0.134
-78.0,-5.0,0.135
-100.0,-9.0,0.136
-118.0,-9.0,0.137
-133.0,-8.0,0.138
-128.0,-7.0,0.139
-109.0,-10.0,0.14
-80.0,-15.0,0.141
-39.0,-17.0,0.142
6.0,-14.0,0.143
35.0,-7.0,0.144
32.0,1.0,0.145
9.0,-2.0,0.146
-8.0,-13.0,0.147
-16.0,-16.0,0.148
-22.0,-1.0,0.149
-28.0,17.0,0.15
-32.0,27.0,0.151
-39.0,29.0,0.152
-49.0,29.0,0.153
-52.0,23.0,0.154
-46.0,11.0,0.155
-40.0,4.0,0.156
-40.0,6.0,0.157
-99.0,5.0,0.158
-95.0,0.0,0.159
-75.0,-1.0,0.16
-43.0,2.0,0.161
-6.0,5.0,0.162
27.0,4.0,0.163
49.0,3.0,0.164
66.0,8.0,0.165
83.0,8.0,0.166
102.0,1.0,0.167
112.0,-5.0,0.168
107.0,-7.0,0.169
81.0,-7.0,0.17
38.0,-10.0,0.171
-9.0,-8.0,0.172
-41.0,0.0,0.173
-51.0,8.0,0.174
-58.0,6.0,0.175
-66.0,-1.0,0.176
-67.0,-5.0,0.177
-57.0,-10.0,0.178
-46.0,-11.0,0.179
-35.0,-5.0,0.18
-16.0,-2.0,0.181
15.0,-5.0,0.182
45.0,-8.0,0.183
59.0,-5.0,0.184
65.0,0.0,0.185
68.0,6.0,0.186
69.0,12.0,0.187
67.0,17.0,0.188
61.0,21.0,0.189
50.0,23.0,0.19
25.0,27.0,0.191
-6.0,28.0,0.192
-31.0,18.0,0.193
-48.0,5.0,0.194
-62.0,-2.0,0.195
-76.0,-6.0,0.196
-81.0,-8.0,0.197
-83.0,-13.0,0.198
-81.0,-11.0,0.199
-73.0,-7.0,0.2
-52.0,-8.0,0.201
-21.0,-12.0,0.202
9.0,-12.0,0.203
32.0,-3.0,0.204
47.0,7.0,0.205
56.0,12.0,0.206
59.0,11.0,0.207
61.0,8.0,0.208
61.0,4.0,0.209
48.0,-1.0,0.21
22.0,-4.0,0.211
-6.0,-4.0,0.212
-22.0,-2.0,0.213
-34.0,-1.0,0.214
-49.0,0.0,0.215
-65.0,-3.0,0.216
-71.0,-3.0,0.217
-70.0,-2.0,0.218
-66.0,2.0,0.219
-56.0,5.0,0.22
-33.0,0.0,0.221
-1.0,-2.0,0.222
30.0,0.0,0.223
53.0,1.0,0.224
68.0,0.0,0.225
80.0,-1.0,0.226
90.0,-3.0,0.227
99.0,-5.0,0.228
101.0,-7.0,0.229
90.0,-7.0,0.23
63.0,-6.0,0.231
30.0,-9.0,0.232
3.0,-15.0,0.233
-14.0,-16.0,0.234
-30.0,-10.0,0.235
-49.0,-1.0,0.236
-60.0,7.0,0.237
-63.0,10.0,0.238
-58.0,9.0,0.239
-48.0,4.0,0.24
-30.0,-3.0,0.241
-7.0,-6.0,0.242
15.0,-6.0,0.243
35.0,-5.0,0.244
53.0,-5.0,0.245
65.0,-3.0,0.246
69.0,-3.0,0.247
68.0,-7.0,0.248
63.0,-8.0,0.249
48.0,-5.0,0.25
14.0,-3.0,0.251
-25.0,-6.0,0.252
-52.0,-9.0,0.253
-64.0,-5.0,0.254
-75.0,-1.0,0.255
-89.0,-1.0,0.256
-94.0,-4.0,0.257
-90.0,-7.0,0.258
-82.0,-1.0,0.259
-73.0,6.0,0.26
-54.0,8.0,0.261
-18.0,8.0,0.262
21.0,7.0,0.263
49.0,5.0,0.264
62.0,7.0,0.265
70.0,8.0,0.266
80.0,5.0,0.267
88.0,-1.0,0.268
92.0,-1.0,0.269
86.0,0.0,0.27
67.0,0.0,0.271
39.0,-4.0,0.272
11.0,-5.0,0.273
-16.0,-4.0,0.274
-42.0,-3.0,0.275
-61.0,-3.0,0.276
-68.0,0.0,0.277
-69.0,3.0,0.278
-68.0,1.0,0.279
-64.0,-2.0,0.28
-46.0,-3.0,0.281
-13.0,1.0,0.282
23.0,2.0,0.283
54.0,0.0,0.284
73.0,1.0,0.285
83.0,5.0,0.286
87.0,4.0,0.287
86.0,-5.0,0.288
81.0,-10.0,0.289
66.0,-8.0,0.29
40.0,-6.0,0.291
13.0,-6.0,0.292
-10.0,-5.0,0.293
-30.0,-3.0,0.294
-48.0,-1.0,0.295
-60.0,0.0,0.296
-62.0,3.0,0.297
-65.0,8.0,0.298
-69.0,9.0,0.299
-68.0,8.0,0.3
-50.0,4.0,0.301
-18.0,4.0,0.302
18.0,4.0,0.303
47.0,4.0,0.304
69.0,5.0,0.305
83.0,6.0,0.306
96.0,7.0,0.307
108.0,5.0,0.308
109.0,5.0,0.309
86.0,3.0,0.31
41.0,-1.0,0.311
-6.0,-4.0,0.312
-36.0,-2.0,0.313
-44.0,3.0,0.314
-32.0,5.0,0.315
-17.0,4.0,0.316
-10.0,5.0,0.317
-19.0,5.0,0.318
-38.0,5.0,0.319
-55.0,4.0,0.32
-50.0,0.0,0.321
-14.0,0.0,0.322
46.0,0.0,0.323
95.0,0.0,0.324
110.0,2.0,0.325
98.0,3.0,0.326
88.0,0.0,0.327
82.0,-7.0,0.328
64.0,-15.0,0.329
32.0,-22.0,0.33
6.0,-26.0,0.331
-10.0,-26.0,0.332
-30.0,-20.0,0.333
-62.0,-13.0,0.334
-86.0,-9.0,0.335
-87.0,-7.0,0.336
-76.0,-1.0,0.337
-74.0,3.0,0.338
-83.0,9.0,0.339
-86.0,13.0,0.34
-74.0,15.0,0.341
-51.0,17.0,0.342
-33.0,15.0,0.343
-22.0,10.0,0.344
-16.0,10.0,0.345
-9.0,15.0,0.346
-3.0,20.0,0.347
1.0,17.0,0.348
6.0,6.0,0.349
6.0,-5.0,0.35
-3.0,-8.0,0.351
-29.0,-2.0,0.352
-55.0,4.0,0.353
-63.0,1.0,0.354
-54.0,-7.0,0.355
-49.0,-10.0,0.356
-60.0,-5.0,0.357
-75.0,1.0,0.358
-80.0,2.0,0.359
-67.0,3.0,0.36
-39.0,4.0,0.361
3.0,6.0,0.362
56.0,4.0,0.363
104.0,2.0,0.364
129.0,7.0,0.365
132.0,7.0,0.366
123.0,-3.0,0.367
119.0,-17.0,0.368
118.0,-20.0,0.369
116.0,-11.0,0.37
125.0,-4.0,0.371
195.0,-3.0,0.372
361.0,-2.0,0.373
558.0,-1.0,0.374
644.0,-3.0,0.375
562.0,-9.0,0.376
416.0,-11.0,0.377
318.0,-10.0,0.378
275.0,-12.0,0.379
208.0,-17.0,0.38
108.0,-22.0,0.381
49.0,-19.0,0.382
45.0,-10.0,0.383
33.0,-3.0,0.384
-20.0,2.0,0.385
-79.0,5.0,0.386
-114.0,2.0,0.387
-149.0,1.0,0.388
-192.0,8.0,0.389
-225.0,20.0,0.39
-255.0,25.0,0.391
-303.0,18.0,0.392
-360.0,6.0,0.393
-396.0,-2.0,0.394
-406.0,-2.0,0.395
-402.0,-2.0,0.396
-378.0,-2.0,0.397
-324.0,-5.0,0.398
-265.0,-2.0,0.399
-232.0,0.0,0.4
-200.0,-6.0,0.401
-143.0,-10.0,0.402
-81.0,-4.0,0.403
-61.0,1.0,0.404
-71.0,7.0,0.405
-57.0,12.0,0.406
-21.0,6.0,0.407
-20.0,2.0,0.408
-88.0,1.0,0.409
-201.0,-1.0,0.41
-319.0,-6.0,0.411
-404.0,-10.0,0.412
-418.0,-7.0,0.413
-365.0,-4.0,0.414
-302.0,-5.0,0.415
-279.0,-7.0,0.416
-272.0,-9.0,0.417
-238.0,-12.0,0.418
-185.0,-10.0,0.419
-151.0,-3.0,0.42
-121.0,4.0,0.421
-54.0,11.0,0.422
44.0,15.0,0.423
130.0,18.0,0.424
189.0,18.0,0.425
233.0,12.0,0.426
263.0,3.0,0.427
266.0,-1.0,0.428
253.0,7.0,0.429
244.0,14.0,0.43
231.0,5.0,0.431
204.0,-6.0,0.432
177.0,-5.0,0.433
171.0,1.0,0.434
170.0,0.0,0.435
151.0,-8.0,0.436
118.0,-11.0,0.437
88.0,-7.0,0.438
73.0,-3.0,0.439
69.0,-5.0,0.44
80.0,-11.0,0.441
107.0,-15.0,0.442
146.0,-16.0,0.443
178.0,-10.0,0.444
191.0,0.0,0.445
190.0,3.0,0.446
182.0,-5.0,0.447
172.0,-11.0,0.448
160.0,-4.0,0.449
143.0,8.0,0.45
116.0,10.0,0.451
81.0,-2.0,0.452
47.0,-13.0,0.453
30.0,-9.0,0.454
30.0,3.0,0.455
37.0,14.0,0.456
39.0,18.0,0.457
35.0,9.0,0.458
33.0,-2.0,0.459
44.0,-11.0,0.46
88.0,-9.0,0.461
177.0,-6.0,0.462
295.0,2.0,0.463
379.0,8.0,0.464
364.0,10.0,0.465
267.0,11.0,0.466
174.0,1.0,0.467
138.0,-6.0,0.468
119.0,-6.0,0.469
61.0,-5.0,0.47
-18.0,-3.0,0.471
-57.0,-2.0,0.472
-55.0,-2.0,0.473
-58.0,-2.0,0.474
-88.0,-5.0,0.475
-121.0,-8.0,0.476
-143.0,-6.0,0.477
-170.0,-3.0,0.478
-208.0,2.0,0.479
-239.0,1.0,0.48
-243.0,0.0,0.481
-222.0,5.0,0.482
-181.0,12.0,0.483
-138.0,12.0,0.484
-110.0,7.0,0.485
-105.0,1.0,0.486
-107.0,-6.0,0.487
-102.0,-11.0,0.488
-96.0,-10.0,0.489
-102.0,-2.0,0.49
-135.0,4.0,0.491
-210.0,1.0,0.492
-320.0,-7.0,0.493
-407.0,-9.0,0.494
-404.0,0.0,0.495
-332.0,15.0,0.496
-279.0,28.0,0.497
-281.0,24.0,0.498
-276.0,7.0,0.499
-208.0,-6.0,0.5
-113.0,-10.0,0.501
-56.0,-5.0,0.502
-25.0,-2.0,0.503
18.0,1.0,0.504
64.0,11.0,0.505
81.0,16.0,0.506
85.0,8.0,0.507
113.0,-5.0,0.508
150.0,-9.0,0.509
155.0,-2.0,0.51
132.0,3.0,0.511
118.0,0.0,0.512
118.0,-3.0,0.513
113.0,-4.0,0.514
101.0,-3.0,0.515
98.0,-1.0,0.516
102.0,2.0,0.517
101.0,-2.0,0.518
95.0,-9.0,0.519
92.0,-9.0,0.52
101.0,2.0,0.521
138.0,18.0,0.522
234.0,21.0,0.523
385.0,14.0,0.524
509.0,11.0,0.525
526.0,13.0,0.526
451.0,9.0,0.527
375.0,-3.0,0.528
339.0,-10.0,0.529
297.0,-9.0,0.53
217.0,-10.0,0.531
144.0,-16.0,0.532
119.0,-20.0,0.533
105.0,-16.0,0.534
56.0,-13.0,0.535
-12.0,-15.0,0.536
-52.0,-18.0,0.537
-76.0,-15.0,0.538
-116.0,-9.0,0.539
-165.0,-7.0,0.54
-184.0,-10.0,0.541
-173.0,-10.0,0.542
-159.0,-7.0,0.543
-156.0,-1.0,0.544
-153.0,1.0,0.545
-142.0,2.0,0.546
-136.0,2.0,0.547
-138.0,0.0,0.548
-146.0,-2.0,0.549
-160.0,-5.0,0.55
-178.0,-7.0,0.551
-189.0,-4.0,0.552
-185.0,4.0,0.553
-167.0,12.0,0.554
-149.0,14.0,0.555
-131.0,14.0,0.556
-113.0,17.0,0.557
-106.0,23.0,0.558
-131.0,24.0,0.559
-196.0,19.0,0.56
-267.0,10.0,0.561
-299.0,11.0,0.562
-271.0,14.0,0.563
-211.0,10.0,0.564
-164.0,1.0,0.565
-142.0,-3.0,0.566
-111.0,1.0,0.567
-58.0,3.0,0.568
-13.0,1.0,0.569
-2.0,0.0,0.57
-7.0,5.0,0.571
4.0,3.0,0.572
31.0,-7.0,0.573
42.0,-13.0,0.574
35.0,-12.0,0.575
33.0,-8.0,0.576
45.0,-5.0,0.577
60.0,-5.0,0.578
75.0,1.0,0.579
93.0,3.0,0.58
129.0,-8.0,0.581
168.0,-19.0,0.582
192.0,-16.0,0.583
198.0,-2.0,0.584
202.0,9.0,0.585
215.0,4.0,0.586
226.0,-10.0,0.587
225.0,-17.0,0.588
210.0,-9.0,0.589
190.0,6.0,0.59
165.0,11.0,0.591
127.0,-1.0,0.592
85.0,-9.0,0.593
53.0,-3.0,0.594
38.0,9.0,0.595
26.0,7.0,0.596
12.0,-5.0,0.597
-6.0,-13.0,0.598
-20.0,-17.0,0.599
-29.0,-13.0,0.6
-24.0,-11.0,0.601
11.0,-3.0,0.602
93.0,9.0,0.603
218.0,15.0,0.604
341.0,14.0,0.605
403.0,13.0,0.606
378.0,12.0,0.607
313.0,6.0,0.608
271.0,0.0,0.609
253.0,6.0,0.61
209.0,18.0,0.611
130.0,20.0,0.612
60.0,9.0,0.613
25.0,-2.0,0.614
-14.0,-2.0,0.615
-87.0,3.0,0.616
-166.0,7.0,0.617
-226.0,5.0,0.618
-260.0,4.0,0.619
-274.0,4.0,0.62
-255.0,-1.0,0.621
-200.0,-7.0,0.622
-135.0,-11.0,0.623
-89.0,-11.0,0.624
-61.0,-6.0,0.625
-49.0,4.0,0.626
-55.0,12.0,0.627
-72.0,13.0,0.628
-77.0,8.0,0.629
-68.0,1.0,0.63
-72.0,-1.0,0.631
-101.0,1.0,0.632
-132.0,1.0,0.633
-147.0,-4.0,0.634
-153.0,-11.0,0.635
-158.0,-15.0,0.636
-152.0,-13.0,0.637
-138.0,-15.0,0.638
-126.0,-14.0,0.639
-124.0,-15.0,0.64
-117.0,-14.0,0.641
-99.0,-9.0,0.642
-76.0,-3.0,0.643
-58.0,1.0,0.644
-45.0,1.0,0.645
-33.0,0.0,0.646
-19.0,6.0,0.647
3.0,13.0,0.648
33.0,11.0,0.649
57.0,0.0,0.65
66.0,-8.0,0.651
66.0,-7.0,0.652
62.0,-2.0,0.653
59.0,0.0,0.654
74.0,5.0,0.655
136.0,12.0,0.656
242.0,14.0,0.657
336.0,4.0,0.658
349.0,-6.0,0.659
284.0,-9.0,0.66
221.0,-10.0,0.661
200.0,-9.0,0.662
181.0,-3.0,0.663
132.0,5.0,0.664
79.0,10.0,0.665
56.0,4.0,0.666
43.0,-3.0,0.667
6.0,-8.0,0.668
-44.0,-10.0,0.669
-83.0,-13.0,0.67
-115.0,-14.0,0.671
-155.0,-8.0,0.672
-197.0,-1.0,0.673
-226.0,7.0,0.674
-240.0,14.0,0.675
-248.0,22.0,0.676
-254.0,20.0,0.677
-254.0,5.0,0.678
-244.0,-5.0,0.679
-224.0,-5.0,0.68
-195.0,-2.0,0.681
-158.0,-3.0,0.682
-114.0,-9.0,0.683
-74.0,-11.0,0.684
-46.0,-6.0,0.685
-36.0,-1.0,0.686
-26.0,-4.0,0.687
-5.0,-8.0,0.688
29.0,-6.0,0.689
54.0,-1.0,0.69
61.0,0.0,0.691
53.0,-5.0,0.692
35.0,-7.0,0.693
9.0,-3.0,0.694
-26.0,-3.0,0.695
-54.0,-5.0,0.696
-61.0,-6.0,0.697
-55.0,-7.0,0.698
-53.0,-8.0,0.699
-49.0,-12.0,0.7
-24.0,-15.0,0.701
27.0,-11.0,0.702
75.0,-7.0,0.703
93.0,-3.0,0.704
85.0,-1.0,0.705
76.0,0.0,0.706
77.0,0.0,0.707
80.0,4.0,0.708
76.0,17.0,0.709
75.0,32.0,0.71
86.0,30.0,0.711
94.0,19.0,0.712
80.0,13.0,0.713
45.0,17.0,0.714
8.0,18.0,0.715
-15.0,7.0,0.716
-29.0,-2.0,0.717
-44.0,-7.0,0.718
-46.0,-9.0,0.719
-27.0,-15.0,0.72
3.0,-21.0,0.721
26.0,-9.0,0.722
42.0,13.0,0.723
64.0,28.0,0.724
87.0,27.0,0.725
88.0,17.0,0.726
68.0,5.0,0.727
46.0,-1.0,0.728
42.0,-3.0,0.729
42.0,-2.0,0.73
36.0,-4.0,0.731
24.0,-7.0,0.732
16.0,-8.0,0.733
9.0,-5.0,0.734
-4.0,-3.0,0.735
-21.0,-8.0,0.736
-27.0,-13.0,0.737
-32.0,-18.0,0.738
-36.0,-20.0,0.739
-40.0,-17.0,0.74
-35.0,-11.0,0.741
-19.0,-2.0,0.742
8.0,4.0,0.743
35.0,5.0,0.744
55.0,10.0,0.745
65.0,24.0,0.746
70.0,32.0,0.747
75.0,18.0,0.748
78.0,-4.0,0.749
72.0,-10.0,0.75
56.0,-5.0,0.751
28.0,-5.0,0.752
0.0,-12.0,0.753
-19.0,-15.0,0.754
-29.0,-10.0,0.755
-36.0,-4.0,0.756
-49.0,-3.0,0.757
-65.0,0.0,0.758
-74.0,4.0,0.759
-66.0,2.0,0.76
-40.0,-7.0,0.761
-6.0,-10.0,0.762
25.0,-4.0,0.763
47.0,0.0,0.764
61.0,2.0,0.765
69.0,6.0,0.766
74.0,8.0,0.767
78.0,5.0,0.768
79.0,0.0,0.769
72.0,0.0,0.77
54.0,1.0,0.771
24.0,-4.0,0.772
-13.0,-8.0,0.773
-42.0,-4.0,0.774
-52.0,1.0,0.775
-55.0,-1.0,0.776
-65.0,-6.0,0.777
-84.0,-7.0,0.778
-90.0,-5.0,0.779
-76.0,-6.0,0.78
-57.0,-12.0,0.781
-45.0,-9.0,0.782
-31.0,-1.0,0.783
-10.0,3.0,0.784
6.0,7.0,0.785
9.0,15.0,0.786
16.0,23.0,0.787
44.0,21.0,0.788
76.0,12.0,0.789
81.0,8.0,0.79
59.0,8.0,0.791
25.0,3.0,0.792
-11.0,-5.0,0.793
-41.0,-9.0,0.794
-54.0,-8.0,0.795
-48.0,-7.0,0.796
-41.0,-7.0,0.797
-47.0,-8.0,0.798
-48.0,-6.0,0.799
-25.0,-1.0,0.8
10.0,-1.0,0.801
35.0,-4.0,0.802
53.0,-7.0,0.803
78.0,-8.0,0.804
98.0,-6.0,0.805
91.0,-3.0,0.806
70.0,-1.0,0.807
68.0,-1.0,0.808
80.0,-3.0,0.809
75.0,-5.0,0.81
48.0,-5.0,0.811
22.0,0.0,0.812
8.0,5.0,0.813
-7.0,7.0,0.814
-29.0,4.0,0.815
-48.0,2.0,0.816
-56.0,1.0,0.817
-67.0,-2.0,0.818
-79.0,-3.0,0.819
-86.0,0.0,0.82
-80.0,1.0,0.821
-69.0,-1.0,0.822
-47.0,-2.0,0.823
-26.0,3.0,0.824
-7.0,10.0,0.825
9.0,13.0,0.826
17.0,8.0,0.827
26.0,3.0,0.828
40.0,0.0,0.829
51.0,-4.0,0.83
51.0,-9.0,0.831
43.0,-10.0,0.832
11.0,-5.0,0.833
-15.0,-3.0,0.834
-23.0,-4.0,0.835
-29.0,-5.0,0.836
-30.0,-5.0,0.837
-36.0,-4.0,0.838
-52.0,-3.0,0.839
-54.0,-5.0,0.84
-43.0,-7.0,0.841
-30.0,-6.0,0.842
-11.0,-1.0,0.843
14.0,3.0,0.844
38.0,6.0,0.845
62.0,9.0,0.846
98.0,8.0,0.847
133.0,5.0,0.848
142.0,1.0,0.849
122.0,0.0,0.85
92.0,1.0,0.851
60.0,1.0,0.852
19.0,0.0,0.853
-25.0,3.0,0.854
-54.0,8.0,0.855
-63.0,11.0,0.856
-64.0,12.0,0.857
-65.0,7.0,0.858
-59.0,-2.0,0.859
-51.0,-6.0,0.86
-47.0,-7.0,0.861
-38.0,-3.0,0.862
-10.0,-5.0,0.863
20.0,-8.0,0.864
29.0,-8.0,0.865
20.0,-1.0,0.866
25.0,10.0,0.867
44.0,21.0,0.868
51.0,27.0,0.869
38.0,21.0,0.87
22.0,7.0,0.871
14.0,-3.0,0.872
2.0,-4.0,0.873
-20.0,0.0,0.874
-42.0,-3.0,0.875
-51.0,-10.0,0.876
-42.0,-10.0,0.877
-28.0,-6.0,0.878
-16.0,-8.0,0.879
-5.0,-11.0,0.88
16.0,-13.0,0.881
46.0,-8.0,0.882
69.0,-6.0,0.883
75.0,-7.0,0.884
70.0,-7.0,0.885
63.0,-6.0,0.886
55.0,-6.0,0.887
44.0,-7.0,0.888
44.0,-9.0,0.889
58.0,-8.0,0.89
67.0,-6.0,0.891
56.0,-6.0,0.892
34.0,-7.0,0.893
14.0,-10.0,0.894
-13.0,-12.0,0.895
-55.0,-12.0,0.896
-95.0,-5.0,0.897
-118.0,2.0,0.898
-121.0,5.0,0.899
-122.0,3.0,0.9
-116.0,1.0,0.901
-90.0,5.0,0.902
-54.0,10.0,0.903
-31.0,13.0,0.904
-23.0,15.0,0.905
-12.0,17.0,0.906
6.0,19.0,0.907
20.0,13.0,0.908
23.0,3.0,0.909
22.0,-3.0,0.91
17.0,-3.0,0.911
6.0,-4.0,0.912
-6.0,-5.0,0.913
-17.0,-5.0,0.914
-29.0,-5.0,0.915
-51.0,-4.0,0.916
-70.0,-2.0,0.917
-76.0,1.0,0.918
-64.0,4.0,0.919
-41.0,0.0,0.92
-19.0,-8.0,0.921
-2.0,-7.0,0.922
16.0,3.0,0.923
34.0,9.0,0.924
45.0,4.0,0.925
40.0,0.0,0.926
33.0,0.0,0.927
50.0,1.0,0.928
93.0,0.0,0.929
128.0,1.0,0.93
127.0,7.0,0.931
98.0,6.0,0.932
68.0,-1.0,0.933
47.0,-5.0,0.934
24.0,0.0,0.935
-2.0,7.0,0.936
-20.0,4.0,0.937
-25.0,-2.0,0.938
-32.0,0.0,0.939
-41.0,9.0,0.94
-43.0,10.0,0.941
-27.0,6.0,0.942
-4.0,2.0,0.943
12.0,4.0,0.944
15.0,7.0,0.945
15.0,9.0,0.946
19.0,8.0,0.947
25.0,4.0,0.948
27.0,-1.0,0.949
26.0,-2.0,0.95
33.0,-1.0,0.951
47.0,-1.0,0.952
49.0,-5.0,0.953
30.0,-8.0,0.954
3.0,-7.0,0.955
-6.0,-3.0,0.956
-3.0,-1.0,0.957
-11.0,-8.0,0.958
-34.0,-15.0,0.959
-51.0,-16.0,0.96
-39.0,-11.0,0.961
-13.0,-5.0,0.962
1.0,-3.0,0.963
0.0,-4.0,0.964
-4.0,-5.0,0.965
-2.0,-5.0,0.966
5.0,-2.0,0.967
13.0,1.0,0.968
22.0,4.0,0.969
26.0,3.0,0.97
21.0,-5.0,0.971
5.0,-9.0,0.972
-17.0,-1.0,0.973
-39.0,6.0,0.974
-55.0,1.0,0.975
-60.0,-8.0,0.976
-59.0,-7.0,0.977
-60.0,2.0,0.978
-65.0,7.0,0.979
-69.0,2.0,0.98
-64.0,-3.0,0.981
-47.0,1.0,0.982
-22.0,8.0,0.983
0.0,10.0,0.984
15.0,8.0,0.985
25.0,2.0,0.986
41.0,-2.0,0.987
65.0,-2.0,0.988
86.0,0.0,0.989
93.0,-2.0,0.99
86.0,-7.0,0.991
69.0,-7.0,0.992
46.0,-1.0,0.993
24.0,3.0,0.994
10.0,0.0,0.995
0.0,-1.0,0.996
-8.0,7.0,0.997
-21.0,13.0,0.998
-35.0,8.0,0.999
-47.0,-3.0,1.0
-52.0,-8.0,1.001
-40.0,-5.0,1.002
-8.0,-3.0,1.003
33.0,-4.0,1.004
66.0,-4.0,1.005
84.0,-1.0,1.006
92.0,-2.0,1.007
94.0,-5.0,1.008
89.0,-6.0,1.009
75.0,-4.0,1.01
48.0,-7.0,1.011
16.0,-12.0,1.012
-11.0,-11.0,1.013
-29.0,-4.0,1.014
-41.0,0.0,1.015
-53.0,-5.0,1.016
-62.0,-8.0,1.017
-66.0,-7.0,1.018
-68.0,-5.0,1.019
-70.0,-5.0,1.02
-62.0,-8.0,1.021
-37.0,-1.0,1.022
-5.0,8.0,1.023
19.0,13.0,1.024
28.0,14.0,1.025
32.0,12.0,1.026
40.0,12.0,1.027
48.0,12.0,1.028
54.0,13.0,1.029
54.0,14.0,1.03
48.0,9.0,1.031
30.0,3.0,1.032
4.0,-1.0,1.033
-17.0,0.0,1.034
-26.0,-1.0,1.035
-33.0,-5.0,1.036
-40.0,-5.0,1.037
-46.0,-4.0,1.038
-46.0,-5.0,1.039
-45.0,-8.0,1.04
-38.0,-9.0,1.041
-23.0,-3.0,1.042
1.0,4.0,1.043
24.0,3.0,1.044
37.0,0.0,1.045
43.0,1.0,1.046
54.0,2.0,1.047
70.0,-1.0,1.048
80.0,-4.0,1.049
78.0,-4.0,1.05
65.0,-3.0,1.051
43.0,-6.0,1.052
15.0,-8.0,1.053
-14.0,-7.0,1.054
-33.0,-6.0,1.055
-45.0,-6.0,1.056
-54.0,-5.0,1.057
-68.0,-1.0,1.058
-84.0,3.0,1.059
-100.0,7.0,1.06
-110.0,3.0,1.061
-104.0,2.0,1.062
-79.0,2.0,1.063
-43.0,4.0,1.064
-4.0,5.0,1.065
38.0,5.0,1.066
86.0,5.0,1.067
123.0,5.0,1.068
135.0,4.0,1.069
117.0,3.0,1.07
84.0,3.0,1.071
44.0,3.0,1.072
2.0,-1.0,1.073
-29.0,-6.0,1.074
-37.0,-10.0,1.075
-30.0,-10.0,1.076
-24.0,-7.0,1.077
-28.0,-3.0,1.078
-35.0,-1.0,1.079
-41.0,-2.0,1.08
-33.0,-6.0,1.081
-2.0,-5.0,1.082
44.0,-4.0,1.083
75.0,-4.0,1.084
72.0,-2.0,1.085
53.0,3.0,1.086
46.0,11.0,1.087
45.0,17.0,1.088
40.0,20.0,1.089
35.0,23.0,1.09
36.0,20.0,1.091
23.0,10.0,1.092
-22.0,-2.0,1.093
-82.0,-8.0,1.094
-130.0,-7.0,1.095
-152.0,-5.0,1.096
-148.0,-5.0,1.097
-129.0,-10.0,1.098
-102.0,-10.0,1.099
-77.0,-5.0,1.1
-41.0,-8.0,1.101
28.0,-13.0,1.102
109.0,-12.0,1.103
159.0,-3.0,1.104
172.0,10.0,1.105
179.0,15.0,1.106
182.0,13.0,1.107
150.0,7.0,1.108
85.0,-2.0,1.109
29.0,-10.0,1.11
4.0,-13.0,1.111
-15.0,-9.0,1.112
-42.0,-9.0,1.113
-65.0,-12.0,1.114
-76.0,-13.0,1.115
-90.0,-10.0,1.116
-104.0,-6.0,1.117
-102.0,-7.0,1.118
-76.0,-9.0,1.119
-57.0,-3.0,1.12
-58.0,1.0,1.121
-60.0,5.0,1.122
-41.0,6.0,1.123
-16.0,9.0,1.124
-5.0,14.0,1.125
0.0,24.0,1.126
23.0,32.0,1.127
58.0,32.0,1.128
77.0,20.0,1.129
71.0,1.0,1.13
57.0,-9.0,1.131
47.0,-10.0,1.132
32.0,-4.0,1.133
12.0,-2.0,1.134
-3.0,-4.0,1.135
-6.0,-6.0,1.136
-4.0,-8.0,1.137
-16.0,-12.0,1.138
-41.0,-12.0,1.139
-76.0,-6.0,1.14
-117.0,0.0,1.141
-146.0,5.0,1.142
-130.0,1.0,1.143
-53.0,-6.0,1.144
55.0,-8.0,1.145
143.0,-3.0,1.146
198.0,-3.0,1.147
234.0,-10.0,1.148
254.0,-15.0,1.149
230.0,-13.0,1.15
160.0,-7.0,1.151
81.0,-9.0,1.152
26.0,-14.0,1.153
-6.0,-19.0,1.154
-34.0,-19.0,1.155
-61.0,-13.0,1.156
-75.0,-1.0,1.157
-86.0,9.0,1.158
-99.0,11.0,1.159
-110.0,3.0,1.16
-105.0,-5.0,1.161
-85.0,-2.0,1.162
-61.0,-1.0,1.163
-40.0,-7.0,1.164
-24.0,-15.0,1.165
-16.0,-14.0,1.166
-7.0,-7.0,1.167
9.0,2.0,1.168
30.0,18.0,1.169
40.0,36.0,1.17
29.0,40.0,1.171
8.0,23.0,1.172
-12.0,2.0,1.173
-27.0,-6.0,1.174
-40.0,-2.0,1.175
-47.0,3.0,1.176
-48.0,5.0,1.177
-51.0,1.0,1.178
-59.0,-1.0,1.179
-69.0,0.0,1.18
-65.0,0.0,1.181
-45.0,1.0,1.182
-11.0,4.0,1.183
26.0,10.0,1.184
45.0,13.0,1.185
46.0,10.0,1.186
40.0,3.0,1.187
46.0,1.0,1.188
64.0,5.0,1.189
84.0,8.0,1.19
97.0,2.0,1.191
101.0,-5.0,1.192
93.0,-5.0,1.193
70.0,-4.0,1.194
39.0,-4.0,1.195
11.0,-4.0,1.196
-10.0,1.0,1.197
-29.0,2.0,1.198
-45.0,-5.0,1.199
-55.0,-12.0,1.2
-54.0,-13.0,1.201
-42.0,-4.0,1.202
-17.0,7.0,1.203
12.0,12.0,1.204
31.0,12.0,1.205
32.0,10.0,1.206
25.0,3.0,1.207
24.0,-2.0,1.208
30.0,-3.0,1.209
34.0,-4.0,1.21
33.0,-7.0,1.211
18.0,-8.0,1.212
-4.0,-3.0,1.213
-25.0,6.0,1.214
-41.0,7.0,1.215
-55.0,-3.0,1.216
-65.0,-11.0,1.217
-69.0,-12.0,1.218
-64.0,-10.0,1.219
-59.0,-10.0,1.22
-56.0,-11.0,1.221
-39.0,-6.0,1.222
-3.0,2.0,1.223
29.0,5.0,1.224
32.0,3.0,1.225
20.0,1.0,1.226
29.0,0.0,1.227
59.0,-4.0,1.228
82.0,-7.0,1.229
84.0,-6.0,1.23
83.0,-1.0,1.231
85.0,1.0,1.232
71.0,2.0,1.233
29.0,0.0,1.234
-17.0,-2.0,1.235
-46.0,-3.0,1.236
-57.0,2.0,1.237
-67.0,6.0,1.238
-71.0,6.0,1.239
-70.0,2.0,1.24
-60.0,-4.0,1.241
-40.0,-2.0,1.242
-7.0,1.0,1.243
25.0,5.0,1.244
36.0,7.0,1.245
35.0,8.0,1.246
41.0,7.0,1.247
57.0,5.0,1.248
60.0,4.0,1.249
49.0,3.0,1.25
43.0,-3.0,1.251
44.0,-8.0,1.252
29.0,-12.0,1.253
2.0,-9.0,1.254
-16.0,-5.0,1.255
-18.0,-4.0,1.256
-18.0,-4.0,1.257
-30.0,-5.0,1.258
-42.0,-4.0,1.259
-46.0,1.0,1.26
-46.0,4.0,1.261
-36.0,4.0,1.262
-2.0,0.0,1.263
38.0,-2.0,1.264
55.0,-1.0,1.265
49.0,-1.0,1.266
47.0,-3.0,1.267
53.0,-5.0,1.268
51.0,-2.0,1.269
40.0,3.0,1.27
35.0,4.0,1.271
23.0,2.0,1.272
-16.0,0.0,1.273
-67.0,-2.0,1.274
-83.0,-3.0,1.275
-67.0,-2.0,1.276
-54.0,3.0,1.277
-55.0,2.0,1.278
-41.0,0.0,1.279
-1.0,-2.0,1.28
35.0,-3.0,1.281
41.0,3.0,1.282
31.0,9.0,1.283
26.0,9.0,1.284
23.0,5.0,1.285
15.0,1.0,1.286
12.0,1.0,1.287
23.0,3.0,1.288
42.0,-1.0,1.289
56.0,-8.0,1.29
57.0,-14.0,1.291
40.0,-13.0,1.292
10.0,-10.0,1.293
-15.0,-10.0,1.294
-28.0,-10.0,1.295
-39.0,-8.0,1.296
-49.0,-3.0,1.297
-60.0,-9.0,1.298
-62.0,-18.0,1.299
-68.0,-19.0,1.3
-75.0,-10.0,1.301
-65.0,0.0,1.302
-31.0,6.0,1.303
2.0,8.0,1.304
15.0,16.0,1.305
11.0,23.0,1.306
7.0,21.0,1.307
7.0,10.0,1.308
11.0,3.0,1.309
25.0,1.0,1.31
41.0,0.0,1.311
43.0,-1.0,1.312
31.0,-1.0,1.313
26.0,1.0,1.314
34.0,3.0,1.315
37.0,1.0,1.316
28.0,0.0,1.317
16.0,-6.0,1.318
6.0,-9.0,1.319
-10.0,-8.0,1.32
-26.0,-4.0,1.321
-23.0,0.0,1.322
3.0,-3.0,1.323
26.0,-7.0,1.324
30.0,-8.0,1.325
30.0,-7.0,1.326
40.0,-11.0,1.327
54.0,-17.0,1.328
60.0,-16.0,1.329
62.0,-9.0,1.33
60.0,-5.0,1.331
43.0,-7.0,1.332
8.0,-9.0,1.333
-24.0,-8.0,1.334
-37.0,0.0,1.335
-43.0,7.0,1.336
-57.0,14.0,1.337
-76.0,14.0,1.338
-89.0,11.0,1.339
-92.0,10.0,1.34
-93.0,10.0,1.341
-86.0,11.0,1.342
-54.0,8.0,1.343
0.0,6.0,1.344
53.0,8.0,1.345
78.0,10.0,1.346
75.0,6.0,1.347
59.0,1.0,1.348
48.0,1.0,1.349
46.0,4.0,1.35
47.0,2.0,1.351
39.0,-1.0,1.352
19.0,-5.0,1.353
-2.0,-8.0,1.354
-22.0,-11.0,1.355
-44.0,-10.0,1.356
-70.0,-7.0,1.357
-87.0,-8.0,1.358
-79.0,-15.0,1.359
-46.0,-18.0,1.36
-4.0,-17.0,1.361
35.0,-12.0,1.362
67.0,-7.0,1.363
79.0,-1.0,1.364
51.0,7.0,1.365
5.0,9.0,1.366
-6.0,8.0,1.367
38.0,7.0,1.368
91.0,8.0,1.369
105.0,9.0,1.37
80.0,10.0,1.371
48.0,8.0,1.372
16.0,3.0,1.373
-23.0,-3.0,1.374
-60.0,-4.0,1.375
-74.0,2.0,1.376
-66.0,9.0,1.377
-57.0,9.0,1.378
-49.0,4.0,1.379
-42.0,0.0,1.38
-37.0,-3.0,1.381
-32.0,-1.0,1.382
-19.0,4.0,1.383
3.0,14.0,1.384
20.0,20.0,1.385
26.0,16.0,1.386
38.0,6.0,1.387
55.0,-2.0,1.388
59.0,-4.0,1.389
47.0,-4.0,1.39
48.0,-2.0,1.391
69.0,-2.0,1.392
78.0,-2.0,1.393
52.0,-2.0,1.394
13.0,-3.0,1.395
-8.0,-2.0,1.396
-16.0,2.0,1.397
-30.0,3.0,1.398
-42.0,2.0,1.399
-45.0,0.0,1.4
-44.0,-4.0,1.401
-40.0,-4.0,1.402
-20.0,-3.0,1.403
12.0,0.0,1.404
28.0,1.0,1.405
22.0,0.0,1.406
21.0,-2.0,1.407
36.0,-4.0,1.408
47.0,-3.0,1.409
41.0,-2.0,1.41
34.0,-2.0,1.411
30.0,-2.0,1.412
12.0,0.0,1.413
-20.0,0.0,1.414
-43.0,-3.0,1.415
-50.0,-8.0,1.416
-54.0,-8.0,1.417
-65.0,-6.0,1.418
-71.0,-5.0,1.419
-69.0,-7.0,1.42
-68.0,-9.0,1.421
-62.0,1.0,1.422
-34.0,13.0,1.423
5.0,15.0,1.424
31.0,7.0,1.425
38.0,0.0,1.426
42.0,0.0,1.427
55.0,1.0,1.428
64.0,-2.0,1.429
64.0,-5.0,1.43
63.0,-5.0,1.431
60.0,-7.0,1.432
46.0,-9.0,1.433
20.0,-11.0,1.434
-6.0,-10.0,1.435
-26.0,-8.0,1.436
-45.0,-6.0,1.437
-64.0,-7.0,1.438
-71.0,-6.0,1.439
-69.0,-3.0,1.44
-64.0,-5.0,1.441
-52.0,-6.0,1.442
-28.0,-5.0,1.443
3.0,1.0,1.444
23.0,11.0,1.445
26.0,19.0,1.446
30.0,15.0,1.447
41.0,5.0,1.448
55.0,-1.0,1.449
63.0,1.0,1.45
64.0,7.0,1.451
56.0,9.0,1.452
38.0,6.0,1.453
15.0,4.0,1.454
-3.0,4.0,1.455
-18.0,2.0,1.456
-31.0,-3.0,1.457
-45.0,-7.0,1.458
-50.0,-6.0,1.459
-50.0,-2.0,1.46
-51.0,-4.0,1.461
-42.0,-4.0,1.462
-13.0,-2.0,1.463
25.0,2.0,1.464
47.0,3.0,1.465
49.0,1.0,1.466
53.0,-1.0,1.467
69.0,-2.0,1.468
75.0,1.0,1.469
64.0,2.0,1.47
46.0,0.0,1.471
33.0,-2.0,1.472
18.0,0.0,1.473
-4.0,3.0,1.474
-25.0,4.0,1.475
-39.0,0.0,1.476
-47.0,-1.0,1.477
-60.0,-1.0,1.478
-70.0,-2.0,1.479
-74.0,-4.0,1.48
-69.0,-6.0,1.481
-59.0,-4.0,1.482
-36.0,-1.0,1.483
-5.0,-1.0,1.484
14.0,-1.0,1.485
20.0,2.0,1.486
30.0,4.0,1.487
58.0,3.0,1.488
88.0,1.0,1.489
97.0,-1.0,1.49
82.0,-3.0,1.491
58.0,-4.0,1.492
32.0,-2.0,1.493
3.0,2.0,1.494
-23.0,1.0,1.495
-36.0,-4.0,1.496
-32.0,-7.0,1.497
-23.0,-9.0,1.498
-21.0,-8.0,1.499
-26.0,-6.0,1.5
-30.0,-7.0,1.501
-16.0,-4.0,1.502
19.0,-2.0,1.503
54.0,0.0,1.504
62.0,5.0,1.505
46.0,7.0,1.506
30.0,3.0,1.507
25.0,-2.0,1.508
23.0,-2.0,1.509
20.0,3.0,1.51
16.0,4.0,1.511
13.0,-2.0,1.512
-1.0,-6.0,1.513
-29.0,-5.0,1.514
-52.0,-6.0,1.515
-62.0,-8.0,1.516
-64.0,-7.0,1.517
-74.0,0.0,1.518
-83.0,9.0,1.519
-88.0,11.0,1.52
-86.0,4.0,1.521
-75.0,-1.0,1.522
-47.0,-1.0,1.523
-3.0,4.0,1.524
36.0,14.0,1.525
54.0,21.0,1.526
60.0,18.0,1.527
72.0,8.0,1.528
82.0,0.0,1.529
79.0,-1.0,1.53
67.0,0.0,1.531
57.0,0.0,1.532
45.0,-4.0,1.533
24.0,-7.0,1.534
-3.0,-10.0,1.535
-19.0,-10.0,1.536
-23.0,-7.0,1.537
-28.0,-4.0,1.538
-34.0,-4.0,1.539
-36.0,-7.0,1.54
-32.0,-11.0,1.541
-23.0,-9.0,1.542
-6.0,-4.0,1.543
18.0,-1.0,1.544
38.0,-1.0,1.545
47.0,0.0,1.546
49.0,3.0,1.547
52.0,4.0,1.548
55.0,5.0,1.549
53.0,4.0,1.55
50.0,-1.0,1.551
45.0,-6.0,1.552
34.0,-6.0,1.553
14.0,-2.0,1.554
-6.0,0.0,1.555
-22.0,-3.0,1.556
-34.0,-4.0,1.557
-49.0,-4.0,1.558
-58.0,0.0,1.559
-64.0,4.0,1.56
-62.0,2.0,1.561
-54.0,4.0,1.562
-31.0,5.0,1.563
-10.0,4.0,1.564
7.0,1.0,1.565
21.0,2.0,1.566
28.0,4.0,1.567
36.0,3.0,1.568
45.0,-2.0,1.569
51.0,-5.0,1.57
47.0,-5.0,1.571
39.0,-3.0,1.572
17.0,-3.0,1.573
-4.0,-5.0,1.574
-26.0,-10.0,1.575
-44.0,-13.0,1.576
-50.0,-9.0,1.577
-56.0,-8.0,1.578
-62.0,-8.0,1.579
-62.0,-7.0,1.58
-60.0,-10.0,1.581
-52.0,-12.0,1.582
-31.0,-8.0,1.583
-4.0,-2.0,1.584
17.0,3.0,1.585
27.0,8.0,1.586
37.0,6.0,1.587
54.0,5.0,1.588
67.0,7.0,1.589
73.0,10.0,1.59
71.0,10.0,1.591
61.0,8.0,1.592
39.0,4.0,1.593
13.0,1.0,1.594
1.0,1.0,1.595
3.0,0.0,1.596
-1.0,0.0,1.597
-20.0,-1.0,1.598
-35.0,-1.0,1.599
-36.0,0.0,1.6
-33.0,1.0,1.601
-32.0,0.0,1.602
-19.0,-2.0,1.603
3.0,-1.0,1.604
19.0,4.0,1.605
18.0,4.0,1.606
23.0,-1.0,1.607
52.0,-4.0,1.608
86.0,2.0,1.609
97.0,10.0,1.61
88.0,9.0,1.611
74.0,1.0,1.612
56.0,-6.0,1.613
29.0,-11.0,1.614
-3.0,-12.0,1.615
-26.0,-7.0,1.616
-34.0,0.0,1.617
-33.0,1.0,1.618
-32.0,-5.0,1.619
-41.0,-10.0,1.62
-56.0,-11.0,1.621
-61.0,-6.0,1.622
-43.0,-3.0,1.623
-16.0,-1.0,1.624
-3.0,2.0,1.625
-4.0,6.0,1.626
-3.0,2.0,1.627
7.0,-4.0,1.628
15.0,-6.0,1.629
14.0,-1.0,1.63
12.0,4.0,1.631
9.0,7.0,1.632
-3.0,5.0,1.633
-25.0,-2.0,1.634
-44.0,-7.0,1.635
-56.0,-7.0,1.636
-64.0,1.0,1.637
-78.0,9.0,1.638
-88.0,13.0,1.639
-89.0,14.0,1.64
-73.0,9.0,1.641
-35.0,9.0,1.642
22.0,10.0,1.643
78.0,10.0,1.644
109.0,5.0,1.645
111.0,0.0,1.646
104.0,-2.0,1.647
95.0,-3.0,1.648
82.0,-7.0,1.649
68.0,-12.0,1.65
63.0,-14.0,1.651
64.0,-12.0,1.652
54.0,-11.0,1.653
29.0,-15.0,1.654
4.0,-17.0,1.655
-7.0,-13.0,1.656
-11.0,-7.0,1.657
-21.0,-6.0,1.658
-30.0,-8.0,1.659
-36.0,-8.0,1.66
-40.0,-8.0,1.661
-41.0,-5.0,1.662
-30.0,0.0,1.663
-8.0,7.0,1.664
9.0,13.0,1.665
17.0,11.0,1.666
23.0,8.0,1.667
33.0,12.0,1.668
39.0,19.0,1.669
36.0,18.0,1.67
36.0,7.0,1.671
40.0,1.0,1.672
30.0,6.0,1.673
1.0,9.0,1.674
-29.0,4.0,1.675
-47.0,-3.0,1.676
-58.0,-3.0,1.677
-55.0,0.0,1.678
-60.0,-1.0,1.679
-60.0,-5.0,1.68
-47.0,-8.0,1.681
-28.0,-6.0,1.682
8.0,-3.0,1.683
38.0,1.0,1.684
49.0,6.0,1.685
58.0,6.0,1.686
59.0,0.0,1.687
59.0,-4.0,1.688
57.0,-1.0,1.689
54.0,2.0,1.69
54.0,0.0,1.691
49.0,-5.0,1.692
36.0,-5.0,1.693
22.0,-1.0,1.694
2.0,0.0,1.695
-14.0,-1.0,1.696
-19.0,-2.0,1.697
-60.0,-6.0,1.698
-65.0,-4.0,1.699
-65.0,-3.0,1.7
-51.0,-4.0,1.701
-31.0,-4.0,1.702
7.0,4.0,1.703
40.0,12.0,1.704
52.0,13.0,1.705
61.0,13.0,1.706
62.0,5.0,1.707
63.0,-1.0,1.708
60.0,-2.0,1.709
57.0,-4.0,1.71
57.0,-4.0,1.711
52.0,-3.0,1.712
38.0,-2.0,1.713
23.0,-1.0,1.714
1.0,-2.0,1.715
-16.0,-3.0,1.716
-22.0,-5.0,1.717
-29.0,-6.0,1.718
-34.0,-4.0,1.719
-42.0,-3.0,1.72
-50.0,-4.0,1.721
-44.0,-4.0,1.722
-17.0,4.0,1.723
16.0,11.0,1.724
35.0,12.0,1.725
39.0,12.0,1.726
47.0,5.0,1.727
54.0,-1.0,1.728
50.0,-2.0,1.729
37.0,-4.0,1.73
31.0,-4.0,1.731
35.0,-3.0,1.732
31.0,-2.0,1.733
7.0,-1.0,1.734
-17.0,-2.0,1.735
-33.0,-3.0,1.736
-48.0,-5.0,1.737
-71.0,-8.0,1.738
-85.0,-9.0,1.739
-80.0,-9.0,1.74
-63.0,-9.0,1.741
-47.0,-7.0,1.742
-25.0,-3.0,1.743
3.0,0.0,1.744
29.0,2.0,1.745
39.0,4.0,1.746
38.0,5.0,1.747
44.0,3.0,1.748
55.0,2.0,1.749
59.0,2.0,1.75
51.0,2.0,1.751
40.0,0.0,1.752
27.0,-1.0,1.753
12.0,-2.0,1.754
-7.0,-4.0,1.755
-18.0,-5.0,1.756
-12.0,-5.0,1.757
-102.0,-6.0,1.758
-122.0,-4.0,1.759
-129.0,0.0,1.76
-91.0,0.0,1.761
-57.0,3.0,1.762
-36.0,7.0,1.763
-23.0,13.0,1.764
-27.0,16.0,1.765
-23.0,14.0,1.766
4.0,8.0,1.767
29.0,-2.0,1.768
44.0,-7.0,1.769
49.0,-3.0,1.77
27.0,2.0,1.771
6.0,0.0,1.772
-12.0,-5.0,1.773
-29.0,-7.0,1.774
-43.0,-7.0,1.775
-54.0,-5.0,1.776
-54.0,-2.0,1.777
-108.0,1.0,1.778
-130.0,0.0,1.779
-137.0,-1.0,1.78
-96.0,-3.0,1.781
-59.0,-2.0,1.782
-37.0,3.0,1.783
-22.0,7.0,1.784
-26.0,7.0,1.785
-22.0,6.0,1.786
7.0,6.0,1.787
34.0,6.0,1.788
50.0,4.0,1.789
56.0,1.0,1.79
32.0,-6.0,1.791
9.0,-11.0,1.792
-10.0,-7.0,1.793
-28.0,-4.0,1.794
-44.0,-3.0,1.795
-56.0,-2.0,1.796
-56.0,-3.0,1.797
-56.0,2.0,1.798
-53.0,0.0,1.799
-45.0,-3.0,1.8
-29.0,-5.0,1.801
-20.0,-4.0,1.802
-19.0,5.0,1.803
-20.0,13.0,1.804
-21.0,12.0,1.805
-28.0,11.0,1.806
-38.0,11.0,1.807
-40.0,11.0,1.808
-34.0,8.0,1.809
-29.0,3.0,1.81
-26.0,-10.0,1.811
-20.0,-19.0,1.812
-20.0,-13.0,1.813
-32.0,-8.0,1.814
-51.0,-6.0,1.815
-64.0,-4.0,1.816
-72.0,-5.0,1.817
-90.0,-8.0,1.818
-103.0,-16.0,1.819
-98.0,-7.0,1.82
-84.0,14.0,1.821
-71.0,33.0,1.822
-52.0,36.0,1.823
-4.0,30.0,1.824
61.0,29.0,1.825
113.0,30.0,1.826
138.0,27.0,1.827
149.0,18.0,1.828
157.0,8.0,1.829
157.0,0.0,1.83
146.0,-8.0,1.831
126.0,-15.0,1.832
100.0,-23.0,1.833
69.0,-31.0,1.834
38.0,-35.0,1.835
13.0,-34.0,1.836
0.0,-32.0,1.837
-15.0,-32.0,1.838
-28.0,-31.0,1.839
-43.0,-27.0,1.84
-60.0,-24.0,1.841
-73.0,-19.0,1.842
-63.0,-13.0,1.843
-25.0,-5.0,1.844
16.0,2.0,1.845
42.0,11.0,1.846
57.0,17.0,1.847
75.0,18.0,1.848
91.0,15.0,1.849
92.0,13.0,1.85
77.0,21.0,1.851
56.0,30.0,1.852
35.0,28.0,1.853
9.0,18.0,1.854
-15.0,7.0,1.855
-31.0,1.0,1.856
-37.0,0.0,1.857
-42.0,-5.0,1.858
-42.0,-8.0,1.859
-43.0,-9.0,1.86
-46.0,-12.0,1.861
-49.0,-13.0,1.862
-34.0,-11.0,1.863
-4.0,-4.0,1.864
21.0,2.0,1.865
31.0,8.0,1.866
35.0,10.0,1.867
44.0,8.0,1.868
52.0,4.0,1.869
49.0,0.0,1.87
46.0,-1.0,1.871
46.0,-1.0,1.872
37.0,-3.0,1.873
14.0,-5.0,1.874
-8.0,-5.0,1.875
-18.0,-4.0,1.876
-24.0,-3.0,1.877
-39.0,-2.0,1.878
-52.0,-2.0,1.879
-60.0,-1.0,1.88
-69.0,-3.0,1.881
-82.0,-3.0,1.882
-66.0,2.0,1.883
-7.0,7.0,1.884
60.0,9.0,1.885
95.0,9.0,1.886
94.0,7.0,1.887
86.0,5.0,1.888
79.0,6.0,1.889
62.0,10.0,1.89
37.0,11.0,1.891
22.0,7.0,1.892
18.0,3.0,1.893
2.0,3.0,1.894
-29.0,3.0,1.895
-57.0,0.0,1.896
-67.0,-2.0,1.897
-70.0,-5.0,1.898
-78.0,-6.0,1.899
-86.0,-3.0,1.9
-85.0,-3.0,1.901
-72.0,-6.0,1.902
-49.0,-8.0,1.903
-19.0,-5.0,1.904
12.0,2.0,1.905
39.0,8.0,1.906
56.0,6.0,1.907
67.0,1.0,1.908
71.0,1.0,1.909
73.0,6.0,1.91
74.0,9.0,1.911
75.0,5.0,1.912
66.0,-2.0,1.913
40.0,-7.0,1.914
11.0,-10.0,1.915
-10.0,-12.0,1.916
-20.0,-12.0,1.917
-26.0,-13.0,1.918
-30.0,-13.0,1.919
-33.0,-14.0,1.92
-37.0,-18.0,1.921
-36.0,-15.0,1.922
-22.0,-10.0,1.923
2.0,-6.0,1.924
20.0,0.0,1.925
25.0,6.0,1.926
28.0,10.0,1.927
38.0,8.0,1.928
47.0,5.0,1.929
46.0,5.0,1.93
42.0,5.0,1.931
37.0,2.0,1.932
23.0,-1.0,1.933
2.0,-3.0,1.934
-18.0,-4.0,1.935
-31.0,-5.0,1.936
-39.0,-2.0,1.937
-47.0,4.0,1.938
-52.0,7.0,1.939
-53.0,4.0,1.94
-48.0,-2.0,1.941
-34.0,-2.0,1.942
-3.0,1.0,1.943
42.0,4.0,1.944
82.0,5.0,1.945
97.0,4.0,1.946
85.0,1.0,1.947
54.0,-3.0,1.948
18.0,-3.0,1.949
-3.0,0.0,1.95
5.0,0.0,1.951
25.0,-3.0,1.952
24.0,-6.0,1.953
-3.0,-3.0,1.954
-32.0,-3.0,1.955
-43.0,-7.0,1.956
-47.0,-7.0,1.957
-62.0,-6.0,1.958
-76.0,-4.0,1.959
-80.0,-6.0,1.96
-77.0,-11.0,1.961
-72.0,-8.0,1.962
-52.0,-2.0,1.963
-15.0,1.0,1.964
19.0,4.0,1.965
32.0,6.0,1.966
35.0,5.0,1.967
46.0,2.0,1.968
58.0,2.0,1.969
61.0,7.0,1.97
58.0,9.0,1.971
56.0,3.0,1.972
45.0,-3.0,1.973
22.0,-4.0,1.974
-2.0,-1.0,1.975
-15.0,-1.0,1.976
-20.0,-1.0,1.977
-28.0,-2.0,1.978
-38.0,-1.0,1.979
-48.0,-4.0,1.98
-55.0,-8.0,1.981
-54.0,-6.0,1.982
-37.0,2.0,1.983
-4.0,7.0,1.984
24.0,4.0,1.985
38.0,3.0,1.986
48.0,3.0,1.987
61.0,-1.0,1.988
71.0,-6.0,1.989
71.0,-8.0,1.99
68.0,-7.0,1.991
69.0,-8.0,1.992
62.0,-8.0,1.993
39.0,-3.0,1.994
9.0,3.0,1.995
-14.0,6.0,1.996
-26.0,7.0,1.997
-40.0,6.0,1.998
-50.0,5.0,1.999
-59.0,3.0,2.0
-59.0,-3.0,2.001
-54.0,-4.0,2.002
-40.0,-1.0,2.003
-24.0,1.0,2.004
-2.0,3.0,2.005
15.0,7.0,2.006
22.0,7.0,2.007
30.0,3.0,2.008
39.0,0.0,2.009
46.0,0.0,2.01
48.0,1.0,2.011
49.0,-2.0,2.012
42.0,-7.0,2.013
30.0,-8.0,2.014
3.0,-7.0,2.015
-21.0,-8.0,2.016
-37.0,-7.0,2.017
-54.0,-4.0,2.018
-80.0,-2.0,2.019
-97.0,0.0,2.02
-87.0,-4.0,2.021
-55.0,-5.0,2.022
-18.0,0.0,2.023
12.0,5.0,2.024
32.0,6.0,2.025
46.0,7.0,2.026
57.0,9.0,2.027
68.0,9.0,2.028
70.0,2.0,2.029
66.0,-2.0,2.03
63.0,0.0,2.031
65.0,2.0,2.032
56.0,2.0,2.033
19.0,2.0,2.034
-44.0,1.0,2.035
-106.0,0.0,2.036
-131.0,-2.0,2.037
-117.0,-4.0,2.038
-85.0,-8.0,2.039
-72.0,-12.0,2.04
-84.0,-16.0,2.041
-77.0,-13.0,2.042
-22.0,-10.0,2.043
40.0,-9.0,2.044
42.0,-7.0,2.045
-10.0,1.0,2.046
-46.0,11.0,2.047
-37.0,15.0,2.048
-19.0,11.0,2.049
-16.0,2.0,2.05
3.0,-6.0,2.051
49.0,-8.0,2.052
71.0,-4.0,2.053
29.0,2.0,2.054
-36.0,7.0,2.055
-72.0,9.0,2.056
-81.0,12.0,2.057
-95.0,10.0,2.058
-105.0,4.0,2.059
-97.0,-3.0,2.06
-82.0,-10.0,2.061
-75.0,-12.0,2.062
-51.0,0.0,2.063
12.0,21.0,2.064
87.0,38.0,2.065
131.0,35.0,2.066
150.0,16.0,2.067
170.0,-3.0,2.068
190.0,-11.0,2.069
190.0,-17.0,2.07
179.0,-22.0,2.071
168.0,-22.0,2.072
145.0,-15.0,2.073
100.0,-4.0,2.074
64.0,5.0,2.075
44.0,18.0,2.076
7.0,39.0,2.077
-72.0,74.0,2.078
-125.0,106.0,2.079
-77.0,134.0,2.08
32.0,152.0,2.081
93.0,159.0,2.082
80.0,150.0,2.083
73.0,121.0,2.084
116.0,73.0,2.085
157.0,5.0,2.086
140.0,-80.0,2.087
105.0,-173.0,2.088
113.0,-256.0,2.089
157.0,-310.0,2.09
199.0,-326.0,2.091
226.0,-304.0,2.092
233.0,-250.0,2.093
205.0,-173.0,2.094
141.0,-88.0,2.095
74.0,-14.0,2.096
25.0,36.0,2.097
-31.0,63.0,2.098
-103.0,74.0,2.099
-164.0,77.0,2.1
-186.0,72.0,2.101
-187.0,63.0,2.102
-185.0,41.0,2.103
-173.0,13.0,2.104
-152.0,-7.0,2.105
-150.0,-7.0,2.106
-179.0,5.0,2.107
-211.0,16.0,2.108
-211.0,30.0,2.109
-182.0,52.0,2.11
-160.0,68.0,2.111
-158.0,69.0,2.112
-166.0,81.0,2.113
-174.0,124.0,2.114
-177.0,157.0,2.115
-181.0,125.0,2.116
-188.0,56.0,2.117
-195.0,4.0,2.118
-187.0,-6.0,2.119
-169.0,-26.0,2.12
-152.0,-80.0,2.121
-138.0,-119.0,2.122
-105.0,-118.0,2.123
-48.0,-110.0,2.124
0.0,-121.0,2.125
15.0,-127.0,2.126
14.0,-108.0,2.127
31.0,-86.0,2.128
68.0,-72.0,2.129
103.0,-49.0,2.13
133.0,-14.0,2.131
160.0,14.0,2.132
174.0,31.0,2.133
158.0,51.0,2.134
129.0,77.0,2.135
108.0,95.0,2.136
99.0,104.0,2.137
83.0,108.0,2.138
63.0,104.0,2.139
46.0,85.0,2.14
39.0,68.0,2.141
41.0,69.0,2.142
51.0,69.0,2.143
73.0,57.0,2.144
94.0,44.0,2.145
106.0,43.0,2.146
114.0,35.0,2.147
124.0,14.0,2.148
137.0,-2.0,2.149
140.0,3.0,2.15
129.0,12.0,2.151
114.0,6.0,2.152
95.0,-3.0,2.153
68.0,-5.0,2.154
33.0,-7.0,2.155
3.0,-12.0,2.156
-17.0,-11.0,2.157
-30.0,-5.0,2.158
-40.0,-5.0,2.159
-50.0,-14.0,2.16
-61.0,-22.0,2.161
-62.0,-17.0,2.162
-45.0,-13.0,2.163
-13.0,-15.0,2.164
16.0,-16.0,2.165
24.0,-10.0,2.166
25.0,-8.0,2.167
29.0,-13.0,2.168
44.0,-15.0,2.169
61.0,-10.0,2.17
77.0,-9.0,2.171
86.0,-14.0,2.172
74.0,-18.0,2.173
33.0,-15.0,2.174
-25.0,-11.0,2.175
-79.0,-14.0,2.176
-109.0,-14.0,2.177
-119.0,-15.0,2.178
-118.0,-11.0,2.179
-113.0,-7.0,2.18
-108.0,-6.0,2.181
-102.0,-4.0,2.182
-89.0,0.0,2.183
-63.0,8.0,2.184
-29.0,14.0,2.185
-4.0,12.0,2.186
6.0,5.0,2.187
13.0,-1.0,2.188
22.0,2.0,2.189
27.0,14.0,2.19
29.0,25.0,2.191
33.0,26.0,2.192
35.0,17.0,2.193
26.0,4.0,2.194
9.0,-14.0,2.195
2.0,-36.0,2.196
7.0,-46.0,2.197
5.0,-41.0,2.198
-6.0,-26.0,2.199
-17.0,-14.0,2.2
-20.0,-16.0,2.201
-19.0,-19.0,2.202
-8.0,-16.0,2.203
13.0,-10.0,2.204
37.0,-3.0,2.205
51.0,0.0,2.206
55.0,0.0,2.207
58.0,-2.0,2.208
58.0,-7.0,2.209
48.0,-12.0,2.21
37.0,-16.0,2.211
37.0,-17.0,2.212
40.0,-11.0,2.213
30.0,-7.0,2.214
14.0,-8.0,2.215
6.0,-10.0,2.216
6.0,-7.0,2.217
-9.0,0.0,2.218
-42.0,0.0,2.219
-72.0,-7.0,2.22
-76.0,-14.0,2.221
-58.0,-6.0,2.222
-36.0,6.0,2.223
-21.0,14.0,2.224
-16.0,19.0,2.225
-13.0,25.0,2.226
-8.0,26.0,2.227
1.0,22.0,2.228
13.0,15.0,2.229
20.0,19.0,2.23
16.0,29.0,2.231
-1.0,36.0,2.232
-21.0,34.0,2.233
-35.0,23.0,2.234
-44.0,8.0,2.235
-58.0,-2.0,2.236
-77.0,0.0,2.237
-90.0,8.0,2.238
-81.0,12.0,2.239
-65.0,9.0,2.24
-70.0,7.0,2.241
-98.0,12.0,2.242
-117.0,18.0,2.243
-97.0,16.0,2.244
-57.0,12.0,2.245
-29.0,17.0,2.246
-15.0,27.0,2.247
3.0,28.0,2.248
27.0,13.0,2.249
46.0,-12.0,2.25
76.0,-40.0,2.251
134.0,-63.0,2.252
194.0,-81.0,2.253
211.0,-92.0,2.254
193.0,-97.0,2.255
189.0,-93.0,2.256
202.0,-79.0,2.257
162.0,-61.0,2.258
59.0,-40.0,2.259
-31.0,-15.0,2.26
-81.0,10.0,2.261
-133.0,33.0,2.262
-189.0,38.0,2.263
-216.0,30.0,2.264
-157.0,24.0,2.265
-83.0,29.0,2.266
38.0,33.0,2.267
126.0,29.0,2.268
111.0,26.0,2.269
97.0,39.0,2.27
91.0,70.0,2.271
77.0,104.0,2.272
39.0,116.0,2.273
4.0,100.0,2.274
-17.0,67.0,2.275
-33.0,34.0,2.276
-29.0,5.0,2.277
-33.0,-32.0,2.278
-65.0,-73.0,2.279
-64.0,-104.0,2.28
-13.0,-105.0,2.281
57.0,-103.0,2.282
111.0,-88.0,2.283
130.0,-79.0,2.284
101.0,-89.0,2.285
25.0,-90.0,2.286
-55.0,-62.0,2.287
-90.0,-30.0,2.288
-73.0,10.0,2.289
-27.0,47.0,2.29
42.0,78.0,2.291
131.0,106.0,2.292
200.0,122.0,2.293
205.0,135.0,2.294
162.0,136.0,2.295
119.0,133.0,2.296
92.0,115.0,2.297
52.0,92.0,2.298
2.0,43.0,2.299
-32.0,-29.0,2.3
-48.0,-113.0,2.301
-76.0,-175.0,2.302
-120.0,-192.0,2.303
-140.0,-167.0,2.304
-96.0,-105.0,2.305
2.0,-16.0,2.306
102.0,74.0,2.307
157.0,136.0,2.308
167.0,149.0,2.309
163.0,124.0,2.31
158.0,98.0,2.311
125.0,103.0,2.312
37.0,140.0,2.313
-93.0,174.0,2.314
-232.0,161.0,2.315
-351.0,93.0,2.316
-406.0,25.0,2.317
-352.0,-9.0,2.318
-178.0,-21.0,2.319
50.0,-59.0,2.32
235.0,-143.0,2.321
330.0,-226.0,2.322
346.0,-265.0,2.323
314.0,-263.0,2.324
295.0,-242.0,2.325
338.0,-216.0,2.326
415.0,-190.0,2.327
431.0,-177.0,2.328
348.0,-170.0,2.329
250.0,-139.0,2.33
204.0,-70.0,2.331
158.0,0.0,2.332
48.0,33.0,2.333
-67.0,41.0,2.334
-102.0,67.0,2.335
-103.0,121.0,2.336
-164.0,171.0,2.337
-275.0,196.0,2.338
-326.0,204.0,2.339
-321.0,218.0,2.34
-375.0,236.0,2.341
-510.0,248.0,2.342
-588.0,232.0,2.343
-526.0,185.0,2.344
-411.0,121.0,2.345
-336.0,47.0,2.346
-266.0,-43.0,2.347
-127.0,-144.0,2.348
48.0,-221.0,2.349
167.0,-249.0,2.35
192.0,-247.0,2.351
164.0,-246.0,2.352
115.0,-232.0,2.353
24.0,-179.0,2.354
-118.0,-96.0,2.355
-248.0,3.0,2.356
-295.0,120.0,2.357
-287.0,264.0,2.358
-306.0,382.0,2.359
-354.0,419.0,2.36
-314.0,384.0,2.361
-127.0,319.0,2.362
97.0,210.0,2.363
232.0,57.0,2.364
294.0,-57.0,2.365
337.0,-56.0,2.366
322.0,9.0,2.367
201.0,25.0,2.368
50.0,-25.0,2.369
-28.0,-97.0,2.37
-55.0,-209.0,2.371
-100.0,-392.0,2.372
-119.0,-552.0,2.373
-14.0,-533.0,2.374
203.0,-339.0,2.375
432.0,-156.0,2.376
612.0,-111.0,2.377
752.0,-149.0,2.378
776.0,-142.0,2.379
624.0,-52.0,2.38
371.0,52.0,2.381
169.0,114.0,2.382
55.0,132.0,2.383
-23.0,139.0,2.384
-40.0,147.0,2.385
89.0,137.0,2.386
313.0,104.0,2.387
432.0,81.0,2.388
346.0,101.0,2.389
173.0,145.0,2.39
71.0,153.0,2.391
31.0,88.0,2.392
-47.0,-14.0,2.393
-177.0,-106.0,2.394
-269.0,-174.0,2.395
-267.0,-223.0,2.396
-219.0,-235.0,2.397
-214.0,-198.0,2.398
-275.0,-144.0,2.399
-332.0,-126.0,2.4
-380.0,-141.0,2.401
-397.0,-113.0,2.402
-321.0,-3.0,2.403
-252.0,159.0,2.404
-207.0,313.0,2.405
-167.0,416.0,2.406
-144.0,416.0,2.407
-111.0,306.0,2.408
-48.0,164.0,2.409
15.0,95.0,2.41
77.0,102.0,2.411
101.0,98.0,2.412
5.0,27.0,2.413
-114.0,-81.0,2.414
-302.0,-187.0,2.415
-461.0,-284.0,2.416
-535.0,-351.0,2.417
-580.0,-365.0,2.418
-460.0,-322.0,2.419
-235.0,-251.0,2.42
-74.0,-168.0,2.421
-90.0,-73.0,2.422
-176.0,-6.0,2.423
-166.0,-3.0,2.424
-87.0,-26.0,2.425
-74.0,5.0,2.426
-121.0,96.0,2.427
-106.0,182.0,2.428
-52.0,240.0,2.429
-132.0,309.0,2.43
-384.0,393.0,2.431
-597.0,424.0,2.432
-536.0,384.0,2.433
-198.0,360.0,2.434
213.0,410.0,2.435
502.0,467.0,2.436
606.0,453.0,2.437
560.0,391.0,2.438
421.0,377.0,2.439
250.0,387.0,2.44
122.0,294.0,2.441
104.0,53.0,2.442
202.0,-235.0,2.443
325.0,-461.0,2.444
321.0,-609.0,2.445
126.0,-686.0,2.446
-135.0,-657.0,2.447
-280.0,-514.0,2.448
-269.0,-349.0,2.449
-198.0,-257.0,2.45
-92.0,-215.0,2.451
120.0,-147.0,2.452
376.0,-57.0,2.453
483.0,-14.0,2.454
419.0,-50.0,2.455
406.0,-125.0,2.456
528.0,-192.0,2.457
597.0,-229.0,2.458
468.0,-202.0,2.459
311.0,-115.0,2.46
308.0,-40.0,2.461
304.0,-21.0,2.462
109.0,-10.0,2.463
-123.0,50.0,2.464
-145.0,117.0,2.465
-45.0,113.0,2.466
-84.0,47.0,2.467
-253.0,-12.0,2.468
-339.0,-60.0,2.469
-287.0,-132.0,2.47
-204.0,-190.0,2.471
-117.0,-159.0,2.472
-5.0,-28.0,2.473
54.0,142.0,2.474
12.0,316.0,2.475
6.0,475.0,2.476
141.0,567.0,2.477
297.0,530.0,2.478
330.0,391.0,2.479
344.0,258.0,2.48
302.0,217.0,2.481
239.0,250.0,2.482
115.0,287.0,2.483
-1.0,290.0,2.484
-89.0,254.0,2.485
-151.0,180.0,2.486
-135.0,67.0,2.487
-103.0,-64.0,2.488
-27.0,-168.0,2.489
21.0,-209.0,2.49
-18.0,-185.0,2.491
-41.0,-99.0,2.492
-11.0,47.0,2.493
-13.0,216.0,2.494
-110.0,308.0,2.495
-153.0,258.0,2.496
-30.0,124.0,2.497
105.0,-25.0,2.498
207.0,-171.0,2.499
182.0,-356.0,2.5
99.0,-568.0,2.501
-18.0,-741.0,2.502
-160.0,-879.0,2.503
-229.0,-1038.0,2.504
-153.0,-1201.0,2.505
1.0,-1259.0,2.506
133.0,-1134.0,2.507
244.0,-850.0,2.508
354.0,-487.0,2.509
384.0,-113.0,2.51
272.0,228.0,2.511
105.0,507.0,2.512
-15.0,700.0,2.513
-131.0,779.0,2.514
-306.0,744.0,2.515
-452.0,658.0,2.516
-462.0,609.0,2.517
-388.0,613.0,2.518
-387.0,635.0,2.519
-431.0,627.0,2.52
-420.0,565.0,2.521
-346.0,477.0,2.522
-257.0,416.0,2.523
-168.0,439.0,2.524
-108.0,513.0,2.525
-114.0,496.0,2.526
-143.0,298.0,2.527
-109.0,38.0,2.528
-33.0,-96.0,2.529
-31.0,-99.0,2.53
-115.0,-141.0,2.531
-187.0,-313.0,2.532
-204.0,-502.0,2.533
-197.0,-551.0,2.534
-119.0,-451.0,2.535
80.0,-317.0,2.536
281.0,-241.0,2.537
305.0,-209.0,2.538
133.0,-173.0,2.539
-51.0,-107.0,2.54
-125.0,-53.0,2.541
-169.0,-32.0,2.542
-261.0,-27.0,2.543
-331.0,-15.0,2.544
-293.0,-26.0,2.545
-173.0,-80.0,2.546
-56.0,-103.0,2.547
26.0,9.0,2.548
94.0,253.0,2.549
161.0,476.0,2.55
242.0,517.0,2.551
356.0,348.0,2.552
491.0,67.0,2.553
582.0,-215.0,2.554
567.0,-443.0,2.555
454.0,-592.0,2.556
325.0,-630.0,2.557
253.0,-545.0,2.558
253.0,-367.0,2.559
223.0,-157.0,2.56
100.0,19.0,2.561
-57.0,119.0,2.562
-315.0,116.0,2.563
-422.0,58.0,2.564
-74.0,59.0,2.565
267.0,159.0,2.566
591.0,265.0,2.567
810.0,286.0,2.568
715.0,270.0,2.569
593.0,315.0,2.57
393.0,396.0,2.571
218.0,385.0,2.572
122.0,236.0,2.573
-2.0,35.0,2.574
-212.0,-134.0,2.575
-383.0,-263.0,2.576
-432.0,-351.0,2.577
-433.0,-367.0,2.578
-328.0,-262.0,2.579
-320.0,-51.0,2.58
-297.0,182.0,2.581
-171.0,349.0,2.582
-51.0,401.0,2.583
-42.0,373.0,2.584
-99.0,327.0,2.585
-154.0,277.0,2.586
-227.0,202.0,2.587
-309.0,123.0,2.588
-333.0,94.0,2.589
-289.0,82.0,2.59
-232.0,-13.0,2.591
-161.0,-204.0,2.592
-52.0,-368.0,2.593
35.0,-406.0,2.594
25.0,-359.0,2.595
-13.0,-300.0,2.596
14.0,-247.0,2.597
46.0,-210.0,2.598
-39.0,-254.0,2.599
-210.0,-401.0,2.6
-307.0,-547.0,2.601
-265.0,-572.0,2.602
-124.0,-475.0,2.603
94.0,-323.0,2.604
336.0,-155.0,2.605
479.0,-2.0,2.606
473.0,98.0,2.607
411.0,153.0,2.608
353.0,202.0,2.609
219.0,236.0,2.61
-40.0,204.0,2.611
-311.0,136.0,2.612
-421.0,131.0,2.613
-291.0,214.0,2.614
22.0,282.0,2.615
323.0,255.0,2.616
409.0,177.0,2.617
240.0,105.0,2.618
-11.0,68.0,2.619
-204.0,61.0,2.62
-346.0,78.0,2.621
-435.0,120.0,2.622
-360.0,185.0,2.623
-92.0,284.0,2.624
208.0,423.0,2.625
384.0,572.0,2.626
425.0,662.0,2.627
384.0,642.0,2.628
286.0,507.0,2.629
154.0,311.0,2.63
23.0,122.0,2.631
-89.0,-43.0,2.632
-158.0,-250.0,2.633
-131.0,-523.0,2.634
-32.0,-767.0,2.635
27.0,-875.0,2.636
-6.0,-845.0,2.637
-53.0,-726.0,2.638
-54.0,-538.0,2.639
-66.0,-296.0,2.64
-114.0,-84.0,2.641
-150.0,27.0,2.642
-153.0,78.0,2.643
-142.0,148.0,2.644
-88.0,232.0,2.645
-11.0,294.0,2.646
131.0,361.0,2.647
203.0,472.0,2.648
61.0,566.0,2.649
-51.0,512.0,2.65
-72.0,280.0,2.651
-81.0,-24.0,2.652
-51.0,-266.0,2.653
-14.0,-357.0,2.654
43.0,-270.0,2.655
79.0,-82.0,2.656
45.0,62.0,2.657
8.0,77.0,2.658
37.0,12.0,2.659
186.0,-67.0,2.66
251.0,-189.0,2.661
77.0,-320.0,2.662
-182.0,-473.0,2.663
-263.0,-589.0,2.664
-129.0,-591.0,2.665
17.0,-589.0,2.666
47.0,-571.0,2.667
36.0,-493.0,2.668
91.0,-235.0,2.669
185.0,20.0,2.67
256.0,265.0,2.671
300.0,438.0,2.672
315.0,392.0,2.673
264.0,386.0,2.674
136.0,499.0,2.675
-38.0,596.0,2.676
-225.0,640.0,2.677
-417.0,639.0,2.678
-508.0,450.0,2.679
-436.0,189.0,2.68
-305.0,-96.0,2.681
-254.0,-315.0,2.682
-244.0,-370.0,2.683
-140.0,-256.0,2.684
48.0,-74.0,2.685
215.0,62.0,2.686
361.0,109.0,2.687
522.0,89.0,2.688
602.0,55.0,2.689
470.0,70.0,2.69
184.0,167.0,2.691
-74.0,296.0,2.692
-221.0,359.0,2.693
-278.0,314.0,2.694
-264.0,220.0,2.695
-239.0,160.0,2.696
-285.0,143.0,2.697
-371.0,127.0,2.698
-298.0,101.0,2.699
7.0,62.0,2.7
322.0,-35.0,2.701
405.0,-228.0,2.702
287.0,-457.0,2.703
138.0,-581.0,2.704
17.0,-522.0,2.705
-96.0,-366.0,2.706
-164.0,-269.0,2.707
-154.0,-279.0,2.708
-132.0,-274.0,2.709
-161.0,-122.0,2.71
-177.0,128.0,2.711
-78.0,262.0,2.712
110.0,171.0,2.713
263.0,4.0,2.714
298.0,-24.0,2.715
229.0,72.0,2.716
124.0,121.0,2.717
12.0,63.0,2.718
-62.0,21.0,2.719
-113.0,54.0,2.72
-88.0,28.0,2.721
-78.0,-165.0,2.722
-114.0,-430.0,2.723
-97.0,-580.0,2.724
79.0,-561.0,2.725
220.0,-462.0,2.726
256.0,-368.0,2.727
268.0,-295.0,2.728
206.0,-221.0,2.729
128.0,-120.0,2.73
2.0,28.0,2.731
-66.0,203.0,2.732
36.0,360.0,2.733
117.0,480.0,2.734
130.0,600.0,2.735
136.0,731.0,2.736
116.0,808.0,2.737
85.0,753.0,2.738
-32.0,611.0,2.739
-180.0,493.0,2.74
-239.0,449.0,2.741
-238.0,410.0,2.742
-254.0,386.0,2.743
-258.0,334.0,2.744
-199.0,201.0,2.745
-125.0,38.0,2.746
-105.0,-213.0,2.747
-130.0,-434.0,2.748
-174.0,-563.0,2.749
-208.0,-627.0,2.75
-161.0,-492.0,2.751
-1.0,-346.0,2.752
153.0,-168.0,2.753
160.0,-26.0,2.754
54.0,11.0,2.755
-21.0,69.0,2.756
-31.0,189.0,2.757
-28.0,258.0,2.758
-13.0,56.0,2.759
52.0,-276.0,2.76
141.0,-609.0,2.761
198.0,-909.0,2.762
227.0,-1145.0,2.763
248.0,-1215.0,2.764
231.0,-1080.0,2.765
165.0,-825.0,2.766
110.0,-523.0,2.767
87.0,-188.0,2.768
40.0,127.0,2.769
-33.0,318.0,2.77
-47.0,359.0,2.771
-7.0,336.0,2.772
-37.0,321.0,2.773
-171.0,312.0,2.774
-277.0,323.0,2.775
-246.0,414.0,2.776
-125.0,576.0,2.777
35.0,738.0,2.778
200.0,805.0,2.779
276.0,771.0,2.78
161.0,734.0,2.781
-101.0,806.0,2.782
-351.0,974.0,2.783
-519.0,1100.0,2.784
-588.0,1055.0,2.785
-436.0,846.0,2.786
12.0,560.0,2.787
524.0,219.0,2.788
756.0,-171.0,2.789
659.0,-524.0,2.79
463.0,-727.0,2.791
305.0,-810.0,2.792
156.0,-916.0,2.793
63.0,-1101.0,2.794
117.0,-1280.0,2.795
238.0,-1342.0,2.796
243.0,-1264.0,2.797
103.0,-1041.0,2.798
-31.0,-691.0,2.799
-92.0,-289.0,2.8
-177.0,60.0,2.801
-338.0,319.0,2.802
-461.0,490.0,2.803
-424.0,548.0,2.804
-270.0,447.0,2.805
-154.0,221.0,2.806
-168.0,-1.0,2.807
-250.0,-127.0,2.808
-261.0,-153.0,2.809
-144.0,-81.0,2.81
12.0,122.0,2.811
81.0,423.0,2.812
17.0,670.0,2.813
-124.0,736.0,2.814
-248.0,664.0,2.815
-258.0,582.0,2.816
-128.0,533.0,2.817
91.0,464.0,2.818
274.0,368.0,2.819
362.0,280.0,2.82
387.0,188.0,2.821
348.0,48.0,2.822
212.0,-131.0,2.823
15.0,-285.0,2.824
-140.0,-382.0,2.825
-211.0,-452.0,2.826
-216.0,-506.0,2.827
-117.0,-482.0,2.828
94.0,-322.0,2.829
268.0,-49.0,2.83
222.0,211.0,2.831
-20.0,317.0,2.832
-245.0,217.0,2.833
-289.0,3.0,2.834
-146.0,-220.0,2.835
105.0,-424.0,2.836
332.0,-580.0,2.837
412.0,-615.0,2.838
290.0,-450.0,2.839
59.0,-159.0,2.84
-143.0,103.0,2.841
-248.0,287.0,2.842
-230.0,412.0,2.843
-98.0,457.0,2.844
39.0,409.0,2.845
48.0,323.0,2.846
-52.0,216.0,2.847
-88.0,9.0,2.848
26.0,-297.0,2.849
189.0,-551.0,2.85
251.0,-657.0,2.851
177.0,-727.0,2.852
39.0,-868.0,2.853
-71.0,-991.0,2.854
-108.0,-974.0,2.855
-83.0,-848.0,2.856
-23.0,-674.0,2.857
67.0,-347.0,2.858
165.0,189.0,2.859
205.0,778.0,2.86
146.0,1169.0,2.861
32.0,1320.0,2.862
-73.0,1355.0,2.863
-155.0,1346.0,2.864
-186.0,1270.0,2.865
-94.0,1131.0,2.866
96.0,954.0,2.867
229.0,693.0,2.868
225.0,319.0,2.869
163.0,-55.0,2.87
82.0,-271.0,2.871
-78.0,-337.0,2.872
-264.0,-401.0,2.873
-282.0,-533.0,2.874
-129.0,-690.0,2.875
-54.0,-863.0,2.876
-153.0,-1049.0,2.877
-218.0,-1170.0,2.878
-62.0,-1040.0,2.879
183.0,-636.0,2.88
317.0,-120.0,2.881
375.0,370.0,2.882
445.0,811.0,2.883
433.0,1129.0,2.884
266.0,1190.0,2.885
74.0,989.0,2.886
-42.0,688.0,2.887
-176.0,395.0,2.888
-340.0,90.0,2.889
-336.0,-217.0,2.89
-98.0,-435.0,2.891
108.0,-564.0,2.892
58.0,-728.0,2.893
-139.0,-954.0,2.894
-299.0,-1093.0,2.895
-422.0,-1011.0,2.896
-501.0,-750.0,2.897
-411.0,-326.0,2.898
-133.0,240.0,2.899
111.0,824.0,2.9
173.0,1173.0,2.901
177.0,1163.0,2.902
219.0,946.0,2.903
191.0,728.0,2.904
38.0,486.0,2.905
-86.0,90.0,2.906
-96.0,-406.0,2.907
-102.0,-798.0,2.908
-128.0,-991.0,2.909
-43.0,-1081.0,2.91
127.0,-1147.0,2.911
153.0,-1130.0,2.912
-16.0,-909.0,2.913
-149.0,-461.0,2.914
-133.0,87.0,2.915
-138.0,532.0,2.916
-258.0,757.0,2.917
-339.0,860.0,2.918
-205.0,975.0,2.919
55.0,1084.0,2.92
249.0,1027.0,2.921
322.0,757.0,2.922
319.0,379.0,2.923
237.0,-33.0,2.924
89.0,-517.0,2.925
-16.0,-1027.0,2.926
14.0,-1355.0,2.927
113.0,-1339.0,2.928
153.0,-1035.0,2.929
117.0,-623.0,2.93
89.0,-228.0,2.931
106.0,86.0,2.932
124.0,269.0,2.933
112.0,332.0,2.934
87.0,362.0,2.935
60.0,421.0,2.936
29.0,491.0,2.937
-2.0,536.0,2.938
-4.0,549.0,2.939
-4.0,503.0,2.94
-52.0,348.0,2.941
-140.0,153.0,2.942
-203.0,85.0,2.943
-226.0,211.0,2.944
-258.0,368.0,2.945
-294.0,354.0,2.946
-258.0,186.0,2.947
-131.0,57.0,2.948
-1.0,68.0,2.949
59.0,134.0,2.95
76.0,142.0,2.951
99.0,76.0,2.952
120.0,5.0,2.953
107.0,1.0,2.954
77.0,107.0,2.955
59.0,298.0,2.956
54.0,465.0,2.957
47.0,475.0,2.958
51.0,309.0,2.959
77.0,109.0,2.96
103.0,-196.0,2.961
97.0,-475.0,2.962
65.0,-671.0,2.963
41.0,-846.0,2.964
35.0,-961.0,2.965
26.0,-1039.0,2.966
13.0,-1005.0,2.967
17.0,-892.0,2.968
39.0,-543.0,2.969
36.0,-188.0,2.97
-16.0,185.0,2.971
-85.0,480.0,2.972
-103.0,544.0,2.973
-38.0,557.0,2.974
69.0,416.0,2.975
133.0,282.0,2.976
98.0,171.0,2.977
-19.0,74.0,2.978
-112.0,45.0,2.979
-98.0,41.0,2.98
3.0,32.0,2.981
89.0,33.0,2.982
100.0,69.0,2.983
60.0,130.0,2.984
18.0,163.0,2.985
-4.0,139.0,2.986
-8.0,78.0,2.987
-3.0,19.0,2.988
1.0,-20.0,2.989
-9.0,-48.0,2.99
-22.0,-73.0,2.991
-20.0,-89.0,2.992
7.0,-81.0,2.993
38.0,-50.0,2.994
51.0,-18.0,2.995
43.0,-10.0,2.996
27.0,-7.0,2.997
15.0,27.0,2.998
2.0,97.0,2.999
-17.0,151.0,3.0
-35.0,138.0,3.001
-42.0,99.0,3.002
-35.0,94.0,3.003
-23.0,127.0,3.004
-13.0,140.0,3.005
-1.0,110.0,3.006
18.0,68.0,3.007
37.0,49.0,3.008
47.0,44.0,3.009
47.0,30.0,3.01
39.0,11.0,3.011
19.0,-1.0,3.012
-3.0,-17.0,3.013
-15.0,-40.0,3.014
-23.0,-60.0,3.015
-41.0,-66.0,3.016
-63.0,-64.0,3.017
-72.0,-67.0,3.018
-63.0,-65.0,3.019
-58.0,-54.0,3.02
-59.0,-48.0,3.021
-39.0,-51.0,3.022
7.0,-53.0,3.023
39.0,-48.0,3.024
17.0,-46.0,3.025
-31.0,-51.0,3.026
-54.0,-55.0,3.027
-38.0,-52.0,3.028
-17.0,-42.0,3.029
-16.0,-36.0,3.03
-21.0,-33.0,3.031
-9.0,-33.0,3.032
21.0,-37.0,3.033
45.0,-39.0,3.034
41.0,-36.0,3.035
10.0,-29.0,3.036
-21.0,-27.0,3.037
-35.0,-28.0,3.038
-34.0,-29.0,3.039
-28.0,-29.0,3.04
-20.0,-32.0,3.041
-5.0,-27.0,3.042
16.0,-9.0,3.043
38.0,11.0,3.044
60.0,19.0,3.045
82.0,9.0,3.046
99.0,-1.0,3.047
106.0,3.0,3.048
102.0,15.0,3.049
96.0,19.0,3.05
90.0,12.0,3.051
83.0,5.0,3.052
73.0,2.0,3.053
63.0,0.0,3.054
47.0,-2.0,3.055
12.0,-1.0,3.056
-41.0,1.0,3.057
-102.0,-3.0,3.058
-141.0,-13.0,3.059
-156.0,-13.0,3.06
-161.0,-7.0,3.061
-161.0,1.0,3.062
-141.0,5.0,3.063
-104.0,12.0,3.064
-80.0,25.0,3.065
-89.0,32.0,3.066
-111.0,27.0,3.067
-112.0,15.0,3.068
-86.0,9.0,3.069
-40.0,6.0,3.07
14.0,2.0,3.071
67.0,-1.0,3.072
102.0,-1.0,3.073
101.0,2.0,3.074
72.0,1.0,3.075
28.0,0.0,3.076
-14.0,2.0,3.077
-43.0,6.0,3.078
-55.0,6.0,3.079
-64.0,4.0,3.08
-58.0,-1.0,3.081
-42.0,-6.0,3.082
4.0,-4.0,3.083
53.0,-2.0,3.084
106.0,0.0,3.085
149.0,2.0,3.086
165.0,7.0,3.087
170.0,12.0,3.088
141.0,13.0,3.089
119.0,13.0,3.09
118.0,7.0,3.091
115.0,2.0,3.092
108.0,3.0,3.093
93.0,5.0,3.094
58.0,13.0,3.095
29.0,17.0,3.096
20.0,11.0,3.097
11.0,4.0,3.098
1.0,-4.0,3.099
0.0,-9.0,3.1
3.0,-18.0,3.101
-11.0,-18.0,3.102
-46.0,-8.0,3.103
-73.0,11.0,3.104
-68.0,30.0,3.105
-32.0,35.0,3.106
19.0,28.0,3.107
81.0,10.0,3.108
145.0,-5.0,3.109
183.0,-12.0,3.11
165.0,-18.0,3.111
106.0,-25.0,3.112
43.0,-27.0,3.113
1.0,-25.0,3.114
-29.0,-25.0,3.115
-67.0,-27.0,3.116
-109.0,-23.0,3.117
-153.0,-9.0,3.118
-189.0,-2.0,3.119
-221.0,-6.0,3.12
-245.0,-13.0,3.121
-249.0,-8.0,3.122
-224.0,6.0,3.123
-174.0,14.0,3.124
-121.0,14.0,3.125
-81.0,14.0,3.126
-59.0,18.0,3.127
-48.0,24.0,3.128
-44.0,29.0,3.129
-46.0,35.0,3.13
-48.0,43.0,3.131
-36.0,48.0,3.132
-14.0,41.0,3.133
0.0,16.0,3.134
0.0,-13.0,3.135
-4.0,-24.0,3.136
-2.0,-18.0,3.137
-4.0,-9.0,3.138
-8.0,-3.0,3.139
-12.0,4.0,3.14
-12.0,15.0,3.141
-11.0,26.0,3.142
-6.0,29.0,3.143
7.0,24.0,3.144
28.0,18.0,3.145
49.0,9.0,3.146
63.0,0.0,3.147
78.0,-11.0,3.148
93.0,-33.0,3.149
109.0,-64.0,3.15
131.0,-77.0,3.151
164.0,-48.0,3.152
197.0,21.0,3.153
204.0,97.0,3.154
179.0,134.0,3.155
140.0,117.0,3.156
110.0,64.0,3.157
83.0,4.0,3.158
50.0,-28.0,3.159
9.0,-31.0,3.16
-19.0,-36.0,3.161
-23.0,-56.0,3.162
-20.0,-85.0,3.163
-29.0,-103.0,3.164
-46.0,-103.0,3.165
-45.0,-99.0,3.166
-16.0,-97.0,3.167
21.0,-77.0,3.168
45.0,-14.0,3.169
54.0,80.0,3.17
59.0,145.0,3.171
60.0,140.0,3.172
55.0,91.0,3.173
42.0,44.0,3.174
25.0,2.0,3.175
10.0,-49.0,3.176
0.0,-83.0,3.177
-10.0,-66.0,3.178
-24.0,-7.0,3.179
-47.0,32.0,3.18
-76.0,10.0,3.181
-98.0,-54.0,3.182
-104.0,-139.0,3.183
-96.0,-216.0,3.184
-86.0,-232.0,3.185
-78.0,-153.0,3.186
-64.0,-24.0,3.187
-43.0,69.0,3.188
-18.0,96.0,3.189
12.0,96.0,3.19
55.0,102.0,3.191
101.0,100.0,3.192
125.0,71.0,3.193
121.0,35.0,3.194
111.0,3.0,3.195
118.0,-36.0,3.196
142.0,-95.0,3.197
158.0,-168.0,3.198
152.0,-209.0,3.199
125.0,-207.0,3.2
92.0,-185.0,3.201
61.0,-155.0,3.202
39.0,-108.0,3.203
32.0,-37.0,3.204
37.0,41.0,3.205
35.0,107.0,3.206
12.0,167.0,3.207
-24.0,236.0,3.208
-41.0,301.0,3.209
-29.0,316.0,3.21
-9.0,259.0,3.211
-4.0,157.0,3.212
-14.0,49.0,3.213
-26.0,-47.0,3.214
-30.0,-118.0,3.215
-30.0,-142.0,3.216
-30.0,-114.0,3.217
-38.0,-57.0,3.218
-42.0,-8.0,3.219
-42.0,22.0,3.22
-38.0,42.0,3.221
-36.0,63.0,3.222
-35.0,79.0,3.223
-32.0,90.0,3.224
-26.0,106.0,3.225
-22.0,115.0,3.226
-21.0,100.0,3.227
-19.0,61.0,3.228
-14.0,10.0,3.229
-7.0,-31.0,3.23
-2.0,-60.0,3.231
2.0,-71.0,3.232
8.0,-60.0,3.233
13.0,-37.0,3.234
7.0,-14.0,3.235
-12.0,-5.0,3.236
-38.0,-3.0,3.237
-64.0,-6.0,3.238
-86.0,-4.0,3.239
-107.0,0.0,3.24
-121.0,0.0,3.241
-115.0,3.0,3.242
-91.0,15.0,3.243
-71.0,33.0,3.244
-69.0,39.0,3.245
-67.0,24.0,3.246
-48.0,-3.0,3.247
-23.0,-22.0,3.248
-8.0,-29.0,3.249
-5.0,-40.0,3.25
0.0,-68.0,3.251
8.0,-106.0,3.252
10.0,-142.0,3.253
1.0,-176.0,3.254
-14.0,-202.0,3.255
-41.0,-201.0,3.256
-79.0,-167.0,3.257
-117.0,-121.0,3.258
-142.0,-82.0,3.259
-158.0,-54.0,3.26
-179.0,-16.0,3.261
-199.0,34.0,3.262
-200.0,70.0,3.263
-173.0,82.0,3.264
-122.0,86.0,3.265
-44.0,100.0,3.266
58.0,111.0,3.267
148.0,111.0,3.268
194.0,115.0,3.269
199.0,120.0,3.27
201.0,97.0,3.271
222.0,34.0,3.272
259.0,-18.0,3.273
307.0,-13.0,3.274
352.0,24.0,3.275
357.0,25.0,3.276
297.0,-18.0,3.277
187.0,-71.0,3.278
94.0,-104.0,3.279
50.0,-130.0,3.28
27.0,-164.0,3.281
-2.0,-174.0,3.282
-23.0,-144.0,3.283
-18.0,-95.0,3.284
-3.0,-58.0,3.285
0.0,-25.0,3.286
3.0,21.0,3.287
18.0,81.0,3.288
28.0,128.0,3.289
19.0,155.0,3.29
3.0,165.0,3.291
-2.0,165.0,3.292
-8.0,156.0,3.293
-21.0,145.0,3.294
-34.0,135.0,3.295
-40.0,126.0,3.296
-47.0,112.0,3.297
-68.0,90.0,3.298
-90.0,71.0,3.299
-104.0,62.0,3.3
-111.0,53.0,3.301
-111.0,43.0,3.302
-98.0,31.0,3.303
-76.0,23.0,3.304
-58.0,23.0,3.305
-47.0,26.0,3.306
-27.0,22.0,3.307
-3.0,9.0,3.308
14.0,-7.0,3.309
18.0,-19.0,3.31
26.0,-25.0,3.311
41.0,-29.0,3.312
50.0,-38.0,3.313
42.0,-46.0,3.314
25.0,-46.0,3.315
8.0,-38.0,3.316
-6.0,-27.0,3.317
-19.0,-23.0,3.318
-28.0,-28.0,3.319
-38.0,-38.0,3.32
-51.0,-47.0,3.321
-60.0,-45.0,3.322
-58.0,-35.0,3.323
-54.0,-24.0,3.324
-44.0,-11.0,3.325
-31.0,0.0,3.326
-9.0,7.0,3.327
9.0,0.0,3.328
18.0,-16.0,3.329
28.0,-30.0,3.33
36.0,-35.0,3.331
44.0,-33.0,3.332
52.0,-29.0,3.333
55.0,-25.0,3.334
43.0,-20.0,3.335
25.0,-20.0,3.336
-4.0,-17.0,3.337
-31.0,-12.0,3.338
-45.0,-6.0,3.339
-50.0,-3.0,3.34
-55.0,-11.0,3.341
-55.0,-17.0,3.342
-42.0,-21.0,3.343
-23.0,-21.0,3.344
-14.0,-10.0,3.345
-10.0,-1.0,3.346
3.0,-4.0,3.347
28.0,-9.0,3.348
48.0,-17.0,3.349
52.0,-23.0,3.35
45.0,-21.0,3.351
37.0,-18.0,3.352
27.0,-11.0,3.353
16.0,-1.0,3.354
5.0,12.0,3.355
-10.0,25.0,3.356
-29.0,32.0,3.357
-57.0,42.0,3.358
-76.0,66.0,3.359
-78.0,95.0,3.36
-72.0,104.0,3.361
-73.0,89.0,3.362
-82.0,65.0,3.363
-89.0,50.0,3.364
-84.0,33.0,3.365
-72.0,-6.0,3.366
-62.0,-65.0,3.367
-62.0,-109.0,3.368
-61.0,-113.0,3.369
-50.0,-97.0,3.37
-29.0,-96.0,3.371
-8.0,-125.0,3.372
2.0,-172.0,3.373
1.0,-214.0,3.374
-8.0,-228.0,3.375
-17.0,-210.0,3.376
-13.0,-164.0,3.377
20.0,-94.0,3.378
88.0,-5.0,3.379
161.0,94.0,3.38
246.0,183.0,3.381
310.0,250.0,3.382
308.0,276.0,3.383
300.0,253.0,3.384
270.0,194.0,3.385
244.0,122.0,3.386
228.0,59.0,3.387
209.0,12.0,3.388
181.0,-22.0,3.389
154.0,-53.0,3.39
132.0,-86.0,3.391
109.0,-118.0,3.392
83.0,-140.0,3.393
56.0,-132.0,3.394
27.0,-95.0,3.395
-1.0,-47.0,3.396
-26.0,-3.0,3.397
-52.0,31.0,3.398
-79.0,61.0,3.399
-110.0,79.0,3.4
-137.0,83.0,3.401
-155.0,85.0,3.402
-170.0,82.0,3.403
-181.0,70.0,3.404
-184.0,54.0,3.405
-178.0,46.0,3.406
-166.0,41.0,3.407
-151.0,36.0,3.408
-133.0,32.0,3.409
-115.0,37.0,3.41
-103.0,41.0,3.411
-89.0,34.0,3.412
-73.0,28.0,3.413
-57.0,36.0,3.414
-53.0,48.0,3.415
-67.0,41.0,3.416
-89.0,18.0,3.417
-107.0,27.0,3.418
-111.0,42.0,3.419
-111.0,56.0,3.42
-113.0,68.0,3.421
-116.0,76.0,3.422
-108.0,68.0,3.423
-90.0,58.0,3.424
-67.0,40.0,3.425
-43.0,21.0,3.426
-21.0,5.0,3.427
-4.0,-14.0,3.428
-1.0,-38.0,3.429
-5.0,-64.0,3.43
0.0,-90.0,3.431
20.0,-115.0,3.432
41.0,-135.0,3.433
48.0,-144.0,3.434
41.0,-122.0,3.435
26.0,-97.0,3.436
7.0,-64.0,3.437
-15.0,42.0,3.438
-28.0,62.0,3.439
-33.0,80.0,3.44
-33.0,96.0,3.441
-37.0,106.0,3.442
-38.0,96.0,3.443
-33.0,83.0,3.444
-27.0,59.0,3.445
-20.0,35.0,3.446
0.0,13.0,3.447
32.0,-11.0,3.448
49.0,-44.0,3.449
5.0,-78.0,3.45
-115.0,-112.0,3.451
-254.0,-145.0,3.452
-311.0,-170.0,3.453
-246.0,-183.0,3.454
-134.0,-154.0,3.455
-80.0,-121.0,3.456
-82.0,-78.0,3.457
-67.0,-32.0,3.458
-7.0,12.0,3.459
39.0,36.0,3.46
43.0,39.0,3.461
50.0,36.0,3.462
92.0,30.0,3.463
135.0,22.0,3.464
148.0,22.0,3.465
158.0,37.0,3.466
189.0,58.0,3.467
217.0,71.0,3.468
228.0,71.0,3.469
238.0,70.0,3.47
258.0,66.0,3.471
264.0,55.0,3.472
253.0,39.0,3.473
248.0,21.0,3.474
257.0,6.0,3.475
256.0,-3.0,3.476
235.0,-6.0,3.477
202.0,-11.0,3.478
174.0,-14.0,3.479
145.0,-19.0,3.48
116.0,-24.0,3.481
95.0,-20.0,3.482
83.0,-12.0,3.483
61.0,-6.0,3.484
33.0,0.0,3.485
18.0,3.0,3.486
24.0,8.0,3.487
29.0,16.0,3.488
25.0,27.0,3.489
19.0,31.0,3.49
20.0,21.0,3.491
21.0,4.0,3.492
17.0,-6.0,3.493
15.0,-10.0,3.494
17.0,-14.0,3.495
16.0,-17.0,3.496
3.0,-5.0,3.497
-20.0,14.0,3.498
-40.0,30.0,3.499
-49.0,32.0,3.5
-51.0,27.0,3.501
-53.0,26.0,3.502
-54.0,23.0,3.503
-49.0,20.0,3.504
-38.0,20.0,3.505
-26.0,13.0,3.506
-5.0,-15.0,3.507
40.0,-62.0,3.508
107.0,-98.0,3.509
168.0,-105.0,3.51
197.0,-95.0,3.511
185.0,-85.0,3.512
153.0,-69.0,3.513
121.0,-43.0,3.514
87.0,-20.0,3.515
43.0,-12.0,3.516
0.0,-12.0,3.517
-39.0,-8.0,3.518
-70.0,3.0,3.519
-106.0,8.0,3.52
-148.0,3.0,3.521
-187.0,1.0,3.522
-212.0,7.0,3.523
-231.0,19.0,3.524
-245.0,38.0,3.525
-245.0,69.0,3.526
-226.0,107.0,3.527
-190.0,140.0,3.528
-149.0,162.0,3.529
-108.0,161.0,3.53
-75.0,135.0,3.531
-63.0,90.0,3.532
-69.0,43.0,3.533
-82.0,1.0,3.534
-85.0,-49.0,3.535
-90.0,-108.0,3.536
-106.0,-160.0,3.537
-132.0,-199.0,3.538
-151.0,-219.0,3.539
-153.0,-215.0,3.54
-141.0,-186.0,3.541
-117.0,-130.0,3.542
-88.0,-61.0,3.543
-63.0,4.0,3.544
-43.0,48.0,3.545
-21.0,66.0,3.546
8.0,69.0,3.547
39.0,73.0,3.548
59.0,81.0,3.549
72.0,85.0,3.55
89.0,80.0,3.551
114.0,66.0,3.552
132.0,46.0,3.553
133.0,23.0,3.554
129.0,4.0,3.555
126.0,-4.0,3.556
122.0,-2.0,3.557
106.0,5.0,3.558
79.0,16.0,3.559
50.0,30.0,3.56
20.0,33.0,3.561
-12.0,30.0,3.562
-33.0,20.0,3.563
-40.0,8.0,3.564
-38.0,-1.0,3.565
-31.0,-5.0,3.566
-14.0,0.0,3.567
23.0,11.0,3.568
61.0,28.0,3.569
81.0,37.0,3.57
94.0,33.0,3.571
117.0,14.0,3.572
144.0,-12.0,3.573
152.0,-37.0,3.574
129.0,-57.0,3.575
93.0,-74.0,3.576
53.0,-80.0,3.577
-2.0,-76.0,3.578
-60.0,-57.0,3.579
-104.0,-37.0,3.58
-116.0,-34.0,3.581
-105.0,-39.0,3.582
-88.0,-37.0,3.583
-76.0,-19.0,3.584
-64.0,9.0,3.585
-44.0,41.0,3.586
-12.0,71.0,3.587
18.0,97.0,3.588
26.0,109.0,3.589
11.0,106.0,3.59
-13.0,93.0,3.591
-31.0,73.0,3.592
-39.0,49.0,3.593
-38.0,20.0,3.594
-29.0,-14.0,3.595
-15.0,-51.0,3.596
-2.0,-86.0,3.597
3.0,-120.0,3.598
3.0,-139.0,3.599
5.0,-135.0,3.6
14.0,-110.0,3.601
28.0,-62.0,3.602
45.0,-8.0,3.603
65.0,36.0,3.604
84.0,55.0,3.605
107.0,59.0,3.606
137.0,60.0,3.607
169.0,60.0,3.608
194.0,51.0,3.609
205.0,30.0,3.61
200.0,19.0,3.611
183.0,30.0,3.612
164.0,44.0,3.613
156.0,35.0,3.614
154.0,20.0,3.615
146.0,43.0,3.616
129.0,117.0,3.617
111.0,219.0,3.618
97.0,291.0,3.619
79.0,294.0,3.62
51.0,234.0,3.621
25.0,142.0,3.622
8.0,35.0,3.623
-14.0,-97.0,3.624
-51.0,-259.0,3.625
-85.0,-432.0,3.626
-99.0,-563.0,3.627
-101.0,-615.0,3.628
-121.0,-590.0,3.629
-163.0,-509.0,3.63
-208.0,-391.0,3.631
-236.0,-248.0,3.632
-235.0,-85.0,3.633
-201.0,107.0,3.634
-150.0,326.0,3.635
-118.0,530.0,3.636
-122.0,628.0,3.637
-152.0,559.0,3.638
-180.0,380.0,3.639
-208.0,209.0,3.64
-273.0,63.0,3.641
-420.0,-61.0,3.642
-628.0,-122.0,3.643
-766.0,-172.0,3.644
-698.0,-186.0,3.645
-450.0,-193.0,3.646
-203.0,-172.0,3.647
-66.0,-143.0,3.648
34.0,-91.0,3.649
187.0,-36.0,3.65
328.0,25.0,3.651
363.0,76.0,3.652
331.0,94.0,3.653
316.0,97.0,3.654
302.0,50.0,3.655
234.0,11.0,3.656
160.0,-5.0,3.657
150.0,-14.0,3.658
204.0,3.0,3.659
247.0,21.0,3.66
257.0,41.0,3.661
272.0,78.0,3.662
312.0,117.0,3.663
362.0,143.0,3.664
400.0,149.0,3.665
426.0,130.0,3.666
422.0,88.0,3.667
384.0,50.0,3.668
337.0,74.0,3.669
304.0,183.0,3.67
273.0,312.0,3.671
211.0,346.0,3.672
122.0,237.0,3.673
35.0,44.0,3.674
-29.0,-148.0,3.675
-60.0,-296.0,3.676
-65.0,-379.0,3.677
-80.0,-398.0,3.678
-142.0,-364.0,3.679
-247.0,-323.0,3.68
-316.0,-308.0,3.681
-309.0,-290.0,3.682
-300.0,-235.0,3.683
-385.0,-139.0,3.684
-530.0,-21.0,3.685
-600.0,110.0,3.686
-543.0,220.0,3.687
-444.0,270.0,3.688
-373.0,273.0,3.689
-290.0,292.0,3.69
-155.0,353.0,3.691
-22.0,403.0,3.692
32.0,398.0,3.693
31.0,348.0,3.694
39.0,259.0,3.695
64.0,113.0,3.696
66.0,-55.0,3.697
36.0,-184.0,3.698
16.0,-216.0,3.699
19.0,-205.0,3.7
-1.0,-240.0,3.701
-98.0,-318.0,3.702
-235.0,-388.0,3.703
-298.0,-432.0,3.704
-188.0,-466.0,3.705
56.0,-480.0,3.706
279.0,-458.0,3.707
352.0,-411.0,3.708
280.0,-368.0,3.709
173.0,-336.0,3.71
148.0,-292.0,3.711
286.0,-214.0,3.712
571.0,-98.0,3.713
852.0,42.0,3.714
946.0,173.0,3.715
812.0,254.0,3.716
592.0,279.0,3.717
384.0,264.0,3.718
237.0,239.0,3.719
135.0,231.0,3.72
70.0,280.0,3.721
24.0,420.0,3.722
-23.0,608.0,3.723
-65.0,740.0,3.724
-84.0,747.0,3.725
-93.0,666.0,3.726
-119.0,579.0,3.727
-158.0,493.0,3.728
-190.0,350.0,3.729
-210.0,137.0,3.73
-219.0,-97.0,3.731
-212.0,-318.0,3.732
-195.0,-522.0,3.733
-208.0,-673.0,3.734
-257.0,-688.0,3.735
-290.0,-537.0,3.736
-269.0,-284.0,3.737
-222.0,22.0,3.738
-206.0,303.0,3.739
-228.0,474.0,3.74
-235.0,497.0,3.741
-181.0,437.0,3.742
-77.0,378.0,3.743
18.0,317.0,3.744
31.0,198.0,3.745
-53.0,29.0,3.746
-170.0,-107.0,3.747
-243.0,-175.0,3.748
-260.0,-216.0,3.749
-264.0,-272.0,3.75
-261.0,-348.0,3.751
-223.0,-430.0,3.752
-154.0,-481.0,3.753
-93.0,-460.0,3.754
-55.0,-398.0,3.755
-27.0,-383.0,3.756
-4.0,-413.0,3.757
0.0,-388.0,3.758
-8.0,-237.0,3.759
-6.0,-37.0,3.76
6.0,95.0,3.761
1.0,137.0,3.762
-24.0,96.0,3.763
-42.0,-44.0,3.764
-41.0,-235.0,3.765
-35.0,-336.0,3.766
-18.0,-259.0,3.767
29.0,-73.0,3.768
104.0,115.0,3.769
170.0,261.0,3.77
205.0,358.0,3.771
216.0,389.0,3.772
205.0,377.0,3.773
170.0,375.0,3.774
115.0,381.0,3.775
62.0,339.0,3.776
26.0,237.0,3.777
6.0,96.0,3.778
9.0,-31.0,3.779
31.0,-96.0,3.78
58.0,-27.0,3.781
69.0,196.0,3.782
59.0,432.0,3.783
27.0,474.0,3.784
-33.0,279.0,3.785
-104.0,-11.0,3.786
-130.0,-256.0,3.787
-72.0,-450.0,3.788
30.0,-628.0,3.789
112.0,-745.0,3.79
170.0,-719.0,3.791
251.0,-550.0,3.792
341.0,-335.0,3.793
367.0,-163.0,3.794
317.0,-26.0,3.795
261.0,148.0,3.796
234.0,369.0,3.797
170.0,549.0,3.798
46.0,592.0,3.799
-51.0,561.0,3.8
-41.0,305.0,3.801
14.0,83.0,3.802
13.0,-36.0,3.803
-9.0,-83.0,3.804
45.0,87.0,3.805
138.0,207.0,3.806
125.0,171.0,3.807
-7.0,132.0,3.808
-109.0,90.0,3.809
-65.0,72.0,3.81
70.0,129.0,3.811
184.0,120.0,3.812
258.0,-88.0,3.813
327.0,-266.0,3.814
365.0,-352.0,3.815
321.0,-429.0,3.816
210.0,-476.0,3.817
106.0,-543.0,3.818
28.0,-653.0,3.819
5.0,-679.0,3.82
-1.0,-613.0,3.821
-22.0,-490.0,3.822
-57.0,-338.0,3.823
-102.0,-170.0,3.824
-162.0,-14.0,3.825
-231.0,114.0,3.826
-269.0,218.0,3.827
-222.0,313.0,3.828
-94.0,415.0,3.829
24.0,545.0,3.83
52.0,696.0,3.831
-1.0,799.0,3.832
-69.0,762.0,3.833
-120.0,576.0,3.834
-160.0,361.0,3.835
-185.0,245.0,3.836
-182.0,220.0,3.837
-170.0,182.0,3.838
-204.0,62.0,3.839
-276.0,-86.0,3.84
-323.0,-189.0,3.841
-303.0,-255.0,3.842
-245.0,-329.0,3.843
-210.0,-387.0,3.844
-221.0,-369.0,3.845
-239.0,-284.0,3.846
-214.0,-187.0,3.847
-167.0,-102.0,3.848
-157.0,-19.0,3.849
-177.0,42.0,3.85
-121.0,51.0,3.851
79.0,12.0,3.852
339.0,-47.0,3.853
497.0,-113.0,3.854
506.0,-186.0,3.855
474.0,-257.0,3.856
484.0,-299.0,3.857
482.0,-270.0,3.858
382.0,-156.0,3.859
210.0,3.0,3.86
69.0,123.0,3.861
-21.0,162.0,3.862
-100.0,147.0,3.863
-135.0,127.0,3.864
-49.0,106.0,3.865
117.0,74.0,3.866
214.0,62.0,3.867
175.0,109.0,3.868
85.0,188.0,3.869
32.0,229.0,3.87
0.0,206.0,3.871
-49.0,159.0,3.872
-92.0,127.0,3.873
-101.0,91.0,3.874
-100.0,23.0,3.875
-113.0,-53.0,3.876
-126.0,-81.0,3.877
-126.0,-34.0,3.878
-136.0,54.0,3.879
-189.0,124.0,3.88
-266.0,142.0,3.881
-333.0,134.0,3.882
-377.0,46.0,3.883
-412.0,-28.0,3.884
-438.0,-60.0,3.885
-421.0,-101.0,3.886
-332.0,-168.0,3.887
-191.0,-232.0,3.888
-65.0,-285.0,3.889
-16.0,-309.0,3.89
-29.0,-245.0,3.891
-31.0,-171.0,3.892
32.0,-71.0,3.893
152.0,19.0,3.894
255.0,76.0,3.895
287.0,141.0,3.896
236.0,225.0,3.897
126.0,327.0,3.898
24.0,463.0,3.899
-25.0,485.0,3.9
-29.0,350.0,3.901
-35.0,137.0,3.902
-61.0,-36.0,3.903
-96.0,-125.0,3.904
-137.0,-179.0,3.905
-198.0,-252.0,3.906
-269.0,-309.0,3.907
-304.0,-269.0,3.908
-260.0,-116.0,3.909
-154.0,59.0,3.91
-49.0,160.0,3.911
9.0,147.0,3.912
42.0,30.0,3.913
88.0,-156.0,3.914
136.0,-339.0,3.915
139.0,-425.0,3.916
104.0,-385.0,3.917
76.0,-265.0,3.918
87.0,-135.0,3.919
106.0,-16.0,3.92
94.0,124.0,3.921
67.0,310.0,3.922
57.0,481.0,3.923
56.0,526.0,3.924
43.0,381.0,3.925
34.0,110.0,3.926
50.0,-140.0,3.927
84.0,-280.0,3.928
109.0,-339.0,3.929
117.0,-361.0,3.93
121.0,-333.0,3.931
139.0,-240.0,3.932
183.0,-129.0,3.933
247.0,-37.0,3.934
284.0,65.0,3.935
223.0,206.0,3.936
85.0,314.0,3.937
-22.0,317.0,3.938
10.0,234.0,3.939
124.0,158.0,3.94
162.0,126.0,3.941
94.0,111.0,3.942
24.0,89.0,3.943
-4.0,81.0,3.944
-49.0,89.0,3.945
-122.0,80.0,3.946
-130.0,39.0,3.947
-55.0,-27.0,3.948
-2.0,-119.0,3.949
-20.0,-232.0,3.95
-22.0,-314.0,3.951
49.0,-313.0,3.952
138.0,-244.0,3.953
194.0,-167.0,3.954
244.0,-110.0,3.955
290.0,-45.0,3.956
281.0,40.0,3.957
207.0,159.0,3.958
140.0,317.0,3.959
111.0,471.0,3.96
88.0,488.0,3.961
57.0,284.0,3.962
49.0,-27.0,3.963
57.0,-234.0,3.964
37.0,-281.0,3.965
0.0,-302.0,3.966
4.0,-370.0,3.967
40.0,-401.0,3.968
48.0,-340.0,3.969
22.0,-235.0,3.97
16.0,-110.0,3.971
41.0,88.0,3.972
50.0,339.0,3.973
27.0,512.0,3.974
3.0,517.0,3.975
-16.0,399.0,3.976
-56.0,237.0,3.977
-125.0,21.0,3.978
-178.0,-205.0,3.979
-198.0,-359.0,3.98
-203.0,-394.0,3.981
-204.0,-329.0,3.982
-192.0,-208.0,3.983
-167.0,-59.0,3.984
-154.0,82.0,3.985
-153.0,171.0,3.986
-141.0,203.0,3.987
-107.0,204.0,3.988
-70.0,196.0,3.989
-41.0,179.0,3.99
-17.0,152.0,3.991
8.0,119.0,3.992
30.0,85.0,3.993
48.0,59.0,3.994
63.0,43.0,3.995
63.0,27.0,3.996
38.0,0.0,3.997
-8.0,-33.0,3.998
-53.0,-56.0,3.999
-79.0,-69.0,4.0
-92.0,-85.0,4.001
-94.0,-97.0,4.002
-79.0,-90.0,4.003
-45.0,-61.0,4.004
-11.0,-25.0,4.005
0.0,0.0,4.006
-13.0,12.0,4.007
-27.0,15.0,4.008
-32.0,13.0,4.009
-54.0,3.0,4.01
-112.0,-20.0,4.011
-187.0,-53.0,4.012
-225.0,-85.0,4.013
-216.0,-107.0,4.014
-224.0,-116.0,4.015
-294.0,-107.0,4.016
-365.0,-74.0,4.017
-348.0,-27.0,4.018
-237.0,12.0,4.019
-125.0,30.0,4.02
-71.0,36.0,4.021
-30.0,54.0,4.022
41.0,85.0,4.023
104.0,113.0,4.024
114.0,121.0,4.025
104.0,96.0,4.026
124.0,39.0,4.027
153.0,-27.0,4.028
157.0,-74.0,4.029
155.0,-105.0,4.03
181.0,-143.0,4.031
225.0,-181.0,4.032
275.0,-188.0,4.033
341.0,-147.0,4.034
402.0,-82.0,4.035
399.0,-35.0,4.036
325.0,-11.0,4.037
232.0,9.0,4.038
177.0,31.0,4.039
141.0,47.0,4.04
86.0,53.0,4.041
38.0,69.0,4.042
30.0,94.0,4.043
38.0,112.0,4.044
30.0,112.0,4.045
33.0,118.0,4.046
78.0,136.0,4.047
133.0,130.0,4.048
149.0,70.0,4.049
141.0,-19.0,4.05
146.0,-83.0,4.051
149.0,-96.0,4.052
117.0,-85.0,4.053
67.0,-81.0,4.054
34.0,-79.0,4.055
17.0,-67.0,4.056
-15.0,-42.0,4.057
-67.0,-9.0,4.058
-108.0,26.0,4.059
-136.0,51.0,4.06
-161.0,50.0,4.061
-183.0,37.0,4.062
-182.0,27.0,4.063
-158.0,20.0,4.064
-137.0,14.0,4.065
-133.0,2.0,4.066
-128.0,-5.0,4.067
-70.0,-4.0,4.068
79.0,6.0,4.069
290.0,24.0,4.07
447.0,40.0,4.071
464.0,41.0,4.072
395.0,25.0,4.073
362.0,7.0,4.074
376.0,-4.0,4.075
339.0,-9.0,4.076
238.0,-12.0,4.077
143.0,-11.0,4.078
123.0,-10.0,4.079
126.0,-17.0,4.08
67.0,-25.0,4.081
-46.0,-14.0,4.082
-155.0,10.0,4.083
-226.0,28.0,4.084
-255.0,26.0,4.085
-248.0,8.0,4.086
-235.0,-20.0,4.087
-245.0,-52.0,4.088
-266.0,-62.0,4.089
-254.0,-38.0,4.09
-213.0,-6.0,4.091
-187.0,-2.0,4.092
-185.0,-18.0,4.093
-176.0,-17.0,4.094
-153.0,6.0,4.095
-139.0,23.0,4.096
-144.0,15.0,4.097
-159.0,0.0,4.098
-165.0,-5.0,4.099
-165.0,-5.0,4.1
-158.0,-9.0,4.101
-148.0,-6.0,4.102
-135.0,3.0,4.103
-127.0,5.0,4.104
-115.0,-1.0,4.105
-89.0,-2.0,4.106
-50.0,3.0,4.107
-10.0,4.0,4.108
20.0,1.0,4.109
34.0,4.0,4.11
31.0,10.0,4.111
22.0,9.0,4.112
24.0,0.0,4.113
41.0,-8.0,4.114
57.0,-13.0,4.115
59.0,-34.0,4.116
46.0,-64.0,4.117
21.0,-85.0,4.118
-4.0,-81.0,4.119
-18.0,-65.0,4.12
-12.0,-54.0,4.121
10.0,-43.0,4.122
32.0,-25.0,4.123
40.0,-4.0,4.124
35.0,11.0,4.125
29.0,23.0,4.126
36.0,33.0,4.127
56.0,43.0,4.128
76.0,50.0,4.129
85.0,53.0,4.13
91.0,52.0,4.131
104.0,51.0,4.132
117.0,51.0,4.133
122.0,50.0,4.134
124.0,50.0,4.135
134.0,49.0,4.136
142.0,47.0,4.137
123.0,40.0,4.138
79.0,31.0,4.139
31.0,18.0,4.14
-2.0,7.0,4.141
-23.0,10.0,4.142
-38.0,24.0,4.143
-45.0,38.0,4.144
-51.0,44.0,4.145
-55.0,46.0,4.146
-63.0,49.0,4.147
-82.0,48.0,4.148
-117.0,43.0,4.149
-152.0,35.0,4.15
-160.0,26.0,4.151
-146.0,16.0,4.152
-137.0,10.0,4.153
-149.0,5.0,4.154
-160.0,2.0,4.155
-161.0,1.0,4.156
-161.0,2.0,4.157
-171.0,-3.0,4.158
-177.0,-10.0,4.159
-169.0,-17.0,4.16
-159.0,-24.0,4.161
-150.0,-28.0,4.162
-137.0,-32.0,4.163
-121.0,-34.0,4.164
-109.0,-28.0,4.165
-102.0,-14.0,4.166
-88.0,-2.0,4.167
-76.0,-1.0,4.168
-80.0,-6.0,4.169
-83.0,-11.0,4.17
-56.0,-15.0,4.171
-9.0,-17.0,4.172
19.0,-20.0,4.173
15.0,-21.0,4.174
3.0,-19.0,4.175
5.0,-15.0,4.176
9.0,-15.0,4.177
10.0,-19.0,4.178
21.0,-21.0,4.179
45.0,-22.0,4.18
69.0,-29.0,4.181
84.0,-36.0,4.182
99.0,-35.0,4.183
115.0,-24.0,4.184
113.0,-10.0,4.185
95.0,-2.0,4.186
92.0,-5.0,4.187
112.0,-17.0,4.188
125.0,-33.0,4.189
117.0,-43.0,4.19
106.0,-45.0,4.191
112.0,-41.0,4.192
126.0,-38.0,4.193
127.0,-32.0,4.194
116.0,-24.0,4.195
102.0,-17.0,4.196
88.0,-14.0,4.197
71.0,-14.0,4.198
70.0,-11.0,4.199
93.0,-3.0,4.2
144.0,5.0,4.201
212.0,12.0,4.202
283.0,13.0,4.203
329.0,11.0,4.204
331.0,9.0,4.205
305.0,10.0,4.206
294.0,8.0,4.207
311.0,1.0,4.208
319.0,-3.0,4.209
287.0,1.0,4.21
232.0,8.0,4.211
192.0,7.0,4.212
174.0,1.0,4.213
154.0,-3.0,4.214
110.0,-6.0,4.215
42.0,-10.0,4.216
-38.0,-9.0,4.217
-126.0,-8.0,4.218
-193.0,-4.0,4.219
-236.0,-6.0,4.22
-276.0,-12.0,4.221
-325.0,-10.0,4.222
-365.0,-1.0,4.223
-379.0,12.0,4.224
-380.0,38.0,4.225
-376.0,80.0,4.226
-347.0,122.0,4.227
-286.0,132.0,4.228
-222.0,107.0,4.229
-176.0,80.0,4.23
-141.0,79.0,4.231
-107.0,92.0,4.232
-81.0,83.0,4.233
-69.0,40.0,4.234
-56.0,-18.0,4.235
-40.0,-63.0,4.236
-34.0,-88.0,4.237
-55.0,-121.0,4.238
-78.0,-173.0,4.239
-84.0,-225.0,4.24
-70.0,-243.0,4.241
-54.0,-214.0,4.242
-46.0,-155.0,4.243
-54.0,-78.0,4.244
-75.0,24.0,4.245
-98.0,137.0,4.246
-108.0,228.0,4.247
-93.0,258.0,4.248
-59.0,218.0,4.249
-20.0,127.0,4.25
14.0,17.0,4.251
38.0,-80.0,4.252
47.0,-142.0,4.253
45.0,-165.0,4.254
40.0,-151.0,4.255
34.0,-103.0,4.256
24.0,-39.0,4.257
2.0,18.0,4.258
-28.0,46.0,4.259
-55.0,46.0,4.26
-67.0,49.0,4.261
-64.0,84.0,4.262
-50.0,132.0,4.263
-25.0,145.0,4.264
9.0,99.0,4.265
52.0,27.0,4.266
106.0,-20.0,4.267
158.0,-39.0,4.268
187.0,-52.0,4.269
189.0,-60.0,4.27
180.0,-41.0,4.271
181.0,-8.0,4.272
181.0,1.0,4.273
158.0,-20.0,4.274
106.0,-26.0,4.275
49.0,10.0,4.276
11.0,51.0,4.277
-12.0,53.0,4.278
-36.0,33.0,4.279
-82.0,20.0,4.28
-147.0,33.0,4.281
-219.0,49.0,4.282
-274.0,74.0,4.283
-296.0,98.0,4.284
-289.0,119.0,4.285
-268.0,125.0,4.286
-248.0,80.0,4.287
-242.0,42.0,4.288
-248.0,27.0,4.289
-240.0,11.0,4.29
-169.0,-2.0,4.291
-1.0,-15.0,4.292
224.0,-25.0,4.293
426.0,-37.0,4.294
558.0,-53.0,4.295
617.0,-84.0,4.296
596.0,-162.0,4.297
470.0,-234.0,4.298
307.0,-264.0,4.299
242.0,-260.0,4.3
329.0,-219.0,4.301
441.0,-129.0,4.302
424.0,-19.0,4.303
280.0,70.0,4.304
142.0,150.0,4.305
84.0,246.0,4.306
75.0,331.0,4.307
70.0,345.0,4.308
56.0,272.0,4.309
20.0,151.0,4.31
-74.0,8.0,4.311
-215.0,-148.0,4.312
-310.0,-287.0,4.313
-269.0,-364.0,4.314
-117.0,-366.0,4.315
17.0,-295.0,4.316
30.0,-156.0,4.317
-63.0,53.0,4.318
-154.0,262.0,4.319
-173.0,385.0,4.32
-151.0,389.0,4.321
-155.0,323.0,4.322
-196.0,227.0,4.323
-229.0,121.0,4.324
-218.0,2.0,4.325
-150.0,-117.0,4.326
-27.0,-196.0,4.327
117.0,-192.0,4.328
228.0,-125.0,4.329
283.0,-84.0,4.33
320.0,-121.0,4.331
385.0,-186.0,4.332
508.0,-184.0,4.333
757.0,-104.0,4.334
1258.0,-25.0,4.335
2093.0,-22.0,4.336
3099.0,-92.0,4.337
3972.0,-186.0,4.338
4000.0,-231.0,4.339
3500.0,-193.0,4.34
1020.0,-120.0,4.341
-2379.0,-54.0,4.342
-4000.0,32.0,4.343
-4000.0,216.0,4.344
-3794.0,478.0,4.345
-2040.0,649.0,4.346
-29.0,583.0,4.347
2579.0,313.0,4.348
4000.0,29.0,4.349
4000.0,-108.0,4.35
3896.0,-85.0,4.351
2946.0,0.0,4.352
3790.0,33.0,4.353
4000.0,-8.0,4.354
3489.0,-47.0,4.355
1705.0,-18.0,4.356
1286.0,23.0,4.357
1037.0,-10.0,4.358
-850.0,-75.0,4.359
-3407.0,-123.0,4.36
-4000.0,-116.0,4.361
-4000.0,-155.0,4.362
-4000.0,-336.0,4.363
-4000.0,-469.0,4.364
-3857.0,-453.0,4.365
-3294.0,-427.0,4.366
-2034.0,-373.0,4.367
-325.0,-280.0,4.368
802.0,-68.0,4.369
1115.0,102.0,4.37
1961.0,148.0,4.371
3737.0,198.0,4.372
4000.0,259.0,4.373
4000.0,301.0,4.374
3493.0,284.0,4.375
3720.0,259.0,4.376
4000.0,213.0,4.377
4000.0,165.0,4.378
3759.0,124.0,4.379
3831.0,183.0,4.38
4000.0,332.0,4.381
4000.0,383.0,4.382
3831.0,225.0,4.383
3920.0,17.0,4.384
4000.0,-64.0,4.385
4000.0,-106.0,4.386
3896.0,-263.0,4.387
3996.0,-458.0,4.388
4000.0,-518.0,4.389
4000.0,-471.0,4.39
3642.0,-461.0,4.391
3582.0,-471.0,4.392
3667.0,-374.0,4.393
3470.0,-195.0,4.394
3243.0,-79.0,4.395
3205.0,-53.0,4.396
3000.0,-40.0,4.397
2380.0,-33.0,4.398
1813.0,-77.0,4.399
1603.0,-127.0,4.4
1378.0,-89.0,4.401
883.0,26.0,4.402
445.0,134.0,4.403
253.0,237.0,4.404
28.0,384.0,4.405
-339.0,508.0,4.406
-567.0,510.0,4.407
-604.0,437.0,4.408
-744.0,412.0,4.409
-1008.0,422.0,4.41
-1082.0,348.0,4.411
-923.0,192.0,4.412
-794.0,92.0,4.413
-705.0,105.0,4.414
-433.0,147.0,4.415
-72.0,172.0,4.416
58.0,225.0,4.417
2.0,309.0,4.418
165.0,296.0,4.419
654.0,96.0,4.42
1047.0,-166.0,4.421
993.0,-295.0,4.422
643.0,-270.0,4.423
300.0,-242.0,4.424
11.0,-283.0,4.425
-306.0,-320.0,4.426
-633.0,-269.0,4.427
-928.0,-147.0,4.428
-1239.0,-10.0,4.429
-1584.0,96.0,4.43
-1866.0,126.0,4.431
-2029.0,52.0,4.432
-2142.0,-77.0,4.433
-2260.0,-159.0,4.434
-2327.0,-165.0,4.435
-2318.0,-154.0,4.436
-2298.0,-155.0,4.437
-2299.0,-125.0,4.438
-2287.0,-44.0,4.439
-2299.0,22.0,4.44
-2423.0,44.0,4.441
-2542.0,55.0,4.442
-2373.0,30.0,4.443
-1950.0,8.0,4.444
-1758.0,-4.0,4.445
-2122.0,-22.0,4.446
-2712.0,-56.0,4.447
-2968.0,-77.0,4.448
-2791.0,-59.0,4.449
-2500.0,-34.0,4.45
-2286.0,8.0,4.451
-2068.0,42.0,4.452
-1725.0,46.0,4.453
-1239.0,49.0,4.454
-688.0,46.0,4.455
-247.0,43.0,4.456
-62.0,46.0,4.457
-45.0,45.0,4.458
0.0,23.0,4.459
85.0,9.0,4.46
55.0,26.0,4.461
-60.0,79.0,4.462
-26.0,141.0,4.463
185.0,177.0,4.464
342.0,149.0,4.465
354.0,49.0,4.466
407.0,-91.0,4.467
600.0,-212.0,4.468
796.0,-269.0,4.469
907.0,-257.0,4.47
1008.0,-201.0,4.471
1101.0,-131.0,4.472
1070.0,-66.0,4.473
931.0,-15.0,4.474
858.0,20.0,4.475
898.0,38.0,4.476
914.0,42.0,4.477
840.0,38.0,4.478
762.0,31.0,4.479
687.0,24.0,4.48
617.0,17.0,4.481
563.0,24.0,4.482
557.0,36.0,4.483
537.0,38.0,4.484
473.0,32.0,4.485
387.0,26.0,4.486
234.0,23.0,4.487
100.0,6.0,4.488
26.0,-28.0,4.489
-46.0,-57.0,4.49
-116.0,-56.0,4.491
-177.0,-32.0,4.492
-212.0,-18.0,4.493
-245.0,-35.0,4.494
-271.0,-65.0,4.495
-300.0,-71.0,4.496
-337.0,-43.0,4.497
-382.0,1.0,4.498
-455.0,36.0,4.499
-528.0,49.0,4.5
-578.0,55.0,4.501
-593.0,76.0,4.502
-576.0,96.0,4.503
-554.0,93.0,4.504
-536.0,74.0,4.505
-510.0,65.0,4.506
-465.0,70.0,4.507
-405.0,67.0,4.508
-337.0,51.0,4.509
-256.0,39.0,4.51
-148.0,37.0,4.511
-15.0,35.0,4.512
103.0,23.0,4.513
132.0,11.0,4.514
29.0,5.0,4.515
-157.0,0.0,4.516
-311.0,0.0,4.517
-397.0,8.0,4.518
-413.0,23.0,4.519
-379.0,23.0,4.52
-282.0,-2.0,4.521
-161.0,-30.0,4.522
-98.0,-38.0,4.523
-86.0,-28.0,4.524
-46.0,-19.0,4.525
12.0,-19.0,4.526
-20.0,-23.0,4.527
-127.0,-21.0,4.528
-127.0,-16.0,4.529
46.0,-12.0,4.53
186.0,-11.0,4.531
101.0,-7.0,4.532
-96.0,10.0,4.533
-167.0,41.0,4.534
-109.0,63.0,4.535
-93.0,60.0,4.536
-150.0,42.0,4.537
-166.0,28.0,4.538
-89.0,23.0,4.539
-25.0,13.0,4.54
-30.0,-14.0,4.541
-15.0,-37.0,4.542
77.0,-40.0,4.543
168.0,-25.0,4.544
168.0,-11.0,4.545
115.0,-10.0,4.546
84.0,-21.0,4.547
73.0,-38.0,4.548
36.0,-45.0,4.549
-16.0,-29.0,4.55
-40.0,2.0,4.551
-32.0,30.0,4.552
-34.0,39.0,4.553
-64.0,41.0,4.554
-114.0,42.0,4.555
-174.0,40.0,4.556
-223.0,26.0,4.557
-225.0,5.0,4.558
-134.0,0.0,4.559
14.0,6.0,4.56
123.0,5.0,4.561
163.0,1.0,4.562
199.0,-1.0,4.563
274.0,-3.0,4.564
316.0,-11.0,4.565
265.0,-23.0,4.566
184.0,-28.0,4.567
163.0,-19.0,4.568
187.0,-7.0,4.569
188.0,-1.0,4.57
173.0,-7.0,4.571
190.0,-17.0,4.572
211.0,-28.0,4.573
178.0,-41.0,4.574
110.0,-54.0,4.575
66.0,-50.0,4.576
54.0,-29.0,4.577
26.0,-8.0,4.578
-31.0,-5.0,4.579
-101.0,-14.0,4.58
-174.0,-17.0,4.581
-231.0,-10.0,4.582
-233.0,-32.0,4.583
-181.0,-91.0,4.584
-134.0,-138.0,4.585
-134.0,-131.0,4.586
-161.0,-90.0,4.587
-183.0,-63.0,4.588
-202.0,-53.0,4.589
-207.0,-28.0,4.59
-176.0,14.0,4.591
-120.0,46.0,4.592
-84.0,57.0,4.593
-74.0,69.0,4.594
-50.0,83.0,4.595
-1.0,81.0,4.596
42.0,63.0,4.597
78.0,51.0,4.598
136.0,49.0,4.599
224.0,35.0,4.6
301.0,-17.0,4.601
331.0,-58.0,4.602
329.0,-63.0,4.603
333.0,-57.0,4.604
372.0,-13.0,4.605
456.0,19.0,4.606
570.0,17.0,4.607
674.0,11.0,4.608
735.0,-3.0,4.609
762.0,-16.0,4.61
761.0,-21.0,4.611
687.0,-23.0,4.612
470.0,-16.0,4.613
134.0,-12.0,4.614
-164.0,-20.0,4.615
-294.0,-26.0,4.616
-314.0,-29.0,4.617
-416.0,-30.0,4.618
-650.0,-26.0,4.619
-854.0,-26.0,4.62
-881.0,-26.0,4.621
-809.0,-9.0,4.622
-779.0,14.0,4.623
-749.0,41.0,4.624
-607.0,75.0,4.625
-404.0,119.0,4.626
-285.0,158.0,4.627
-246.0,181.0,4.628
-185.0,205.0,4.629
-123.0,244.0,4.63
-151.0,263.0,4.631
-202.0,202.0,4.632
-135.0,72.0,4.633
-22.0,-52.0,4.634
-61.0,-119.0,4.635
-222.0,-152.0,4.636
-262.0,-182.0,4.637
-118.0,-197.0,4.638
35.0,-165.0,4.639
159.0,-112.0,4.64
195.0,-83.0,4.641
226.0,-67.0,4.642
242.0,-34.0,4.643
248.0,4.0,4.644
225.0,17.0,4.645
206.0,6.0,4.646
203.0,-3.0,4.647
205.0,7.0,4.648
229.0,22.0,4.649
268.0,30.0,4.65
356.0,27.0,4.651
413.0,15.0,4.652
379.0,10.0,4.653
357.0,32.0,4.654
374.0,81.0,4.655
398.0,131.0,4.656
441.0,149.0,4.657
458.0,124.0,4.658
352.0,79.0,4.659
204.0,39.0,4.66
94.0,10.0,4.661
76.0,-16.0,4.662
162.0,-52.0,4.663
275.0,-86.0,4.664
281.0,-91.0,4.665
166.0,-64.0,4.666
64.0,-14.0,4.667
75.0,53.0,4.668
159.0,131.0,4.669
249.0,178.0,4.67
340.0,149.0,4.671
388.0,59.0,4.672
310.0,-33.0,4.673
120.0,-95.0,4.674
-57.0,-153.0,4.675
-170.0,-218.0,4.676
-267.0,-255.0,4.677
-408.0,-237.0,4.678
-504.0,-167.0,4.679
-568.0,-71.0,4.68
-648.0,16.0,4.681
-724.0,61.0,4.682
-735.0,37.0,4.683
-699.0,-25.0,4.684
-678.0,-64.0,4.685
-659.0,-56.0,4.686
-587.0,-28.0,4.687
-481.0,4.0,4.688
-414.0,39.0,4.689
-406.0,36.0,4.69
-416.0,-39.0,4.691
-398.0,-142.0,4.692
-318.0,-171.0,4.693
-156.0,-104.0,4.694
23.0,-23.0,4.695
88.0,9.0,4.696
-3.0,18.0,4.697
-182.0,38.0,4.698
-324.0,62.0,4.699
-391.0,62.0,4.7
-393.0,41.0,4.701
-329.0,35.0,4.702
-239.0,79.0,4.703
-199.0,201.0,4.704
-223.0,368.0,4.705
-217.0,486.0,4.706
-132.0,486.0,4.707
22.0,406.0,4.708
436.0,319.0,4.709
1514.0,206.0,4.71
3223.0,-12.0,4.711
4000.0,-309.0,4.712
4000.0,-522.0,4.713
3993.0,-544.0,4.714
3647.0,-431.0,4.715
3871.0,-301.0,4.716
3844.0,-208.0,4.717
2735.0,-133.0,4.718
883.0,-80.0,4.719
-1150.0,-47.0,4.72
-3215.0,-12.0,4.721
-4000.0,46.0,4.722
-4000.0,85.0,4.723
-3900.0,52.0,4.724
-3441.0,-41.0,4.725
-3657.0,-128.0,4.726
-2773.0,-156.0,4.727
604.0,-104.0,4.728
3878.0,13.0,4.729
4000.0,142.0,4.73
4000.0,209.0,4.731
3405.0,221.0,4.732
3657.0,304.0,4.733
4000.0,555.0,4.734
4000.0,845.0,4.735
3701.0,874.0,4.736
3295.0,549.0,4.737
2485.0,19.0,4.738
-23.0,-388.0,4.739
-3331.0,-561.0,4.74
-4000.0,-636.0,4.741
-4000.0,-709.0,4.742
-3770.0,-728.0,4.743
-3511.0,-641.0,4.744
-3989.0,-513.0,4.745
-3669.0,-424.0,4.746
-1589.0,-373.0,4.747
1011.0,-314.0,4.748
2953.0,-239.0,4.749
3974.0,-163.0,4.75
4000.0,-97.0,4.751
4000.0,-47.0,4.752
4000.0,-7.0,4.753
4000.0,52.0,4.754
4000.0,140.0,4.755
4000.0,216.0,4.756
4000.0,241.0,4.757
4000.0,233.0,4.758
4000.0,235.0,4.759
4000.0,241.0,4.76
4000.0,254.0,4.761
4000.0,300.0,4.762
4000.0,445.0,4.763
4000.0,591.0,4.764
4000.0,737.0,4.765
4000.0,838.0,4.766
4000.0,803.0,4.767
3964.0,743.0,4.768
3658.0,608.0,4.769
3255.0,367.0,4.77
2850.0,-190.0,4.771
2524.0,-685.0,4.772
2331.0,-992.0,4.773
2181.0,-1206.0,4.774
1889.0,-1138.0,4.775
1425.0,-1040.0,4.776
981.0,-854.0,4.777
685.0,-636.0,4.778
437.0,-297.0,4.779
295.0,37.0,4.78
243.0,294.0,4.781
168.0,405.0,4.782
-21.0,341.0,4.783
-211.0,175.0,4.784
-226.0,18.0,4.785
-160.0,-81.0,4.786
-262.0,-131.0,4.787
-522.0,-148.0,4.788
-697.0,-138.0,4.789
-731.0,-89.0,4.79
-818.0,35.0,4.791
-1015.0,229.0,4.792
-1158.0,391.0,4.793
-1183.0,431.0,4.794
-1208.0,397.0,4.795
-1280.0,402.0,4.796
-1309.0,441.0,4.797
-1286.0,402.0,4.798
-1304.0,237.0,4.799
-1324.0,36.0,4.8
-1254.0,-83.0,4.801
-1159.0,-95.0,4.802
-1172.0,-56.0,4.803
-1256.0,-15.0,4.804
-1255.0,20.0,4.805
-1120.0,54.0,4.806
-912.0,40.0,4.807
-658.0,-94.0,4.808
-378.0,-337.0,4.809
-167.0,-551.0,4.81
-109.0,-591.0,4.811
-132.0,-450.0,4.812
-88.0,-241.0,4.813
70.0,-46.0,4.814
223.0,131.0,4.815
223.0,288.0,4.816
62.0,368.0,4.817
-184.0,312.0,4.818
-409.0,165.0,4.819
-626.0,36.0,4.82
-885.0,-38.0,4.821
-1129.0,-94.0,4.822
-1261.0,-88.0,4.823
-1320.0,-71.0,4.824
-1447.0,-20.0,4.825
-1665.0,37.0,4.826
-1848.0,111.0,4.827
-1903.0,185.0,4.828
-1852.0,257.0,4.829
-1754.0,317.0,4.83
-1625.0,337.0,4.831
-1479.0,340.0,4.832
-1334.0,292.0,4.833
-1189.0,242.0,4.834
-1062.0,192.0,4.835
-1021.0,153.0,4.836
-1119.0,150.0,4.837
-1333.0,163.0,4.838
-1528.0,265.0,4.839
-1577.0,422.0,4.84
-1186.0,546.0,4.841
-761.0,560.0,4.842
-239.0,428.0,4.843
106.0,152.0,4.844
-79.0,-234.0,4.845
-158.0,-631.0,4.846
87.0,-901.0,4.847
315.0,-986.0,4.848
494.0,-923.0,4.849
668.0,-764.0,4.85
824.0,-531.0,4.851
931.0,-291.0,4.852
888.0,-144.0,4.853
797.0,-112.0,4.854
566.0,-95.0,4.855
313.0,-10.0,4.856
-3.0,96.0,4.857
-344.0,137.0,4.858
-719.0,87.0,4.859
-984.0,5.0,4.86
-1126.0,-49.0,4.861
-1150.0,-60.0,4.862
-1101.0,-40.0,4.863
-1063.0,0.0,4.864
-1013.0,58.0,4.865
-839.0,115.0,4.866
-552.0,154.0,4.867
-306.0,163.0,4.868
-138.0,153.0,4.869
63.0,129.0,4.87
321.0,82.0,4.871
531.0,22.0,4.872
682.0,-14.0,4.873
873.0,-5.0,4.874
1084.0,16.0,4.875
1192.0,1.0,4.876
1202.0,-42.0,4.877
1258.0,-70.0,4.878
1343.0,-48.0,4.879
1332.0,4.0,4.88
1238.0,64.0,4.881
1178.0,125.0,4.882
1165.0,163.0,4.883
1145.0,137.0,4.884
1141.0,46.0,4.885
1184.0,-55.0,4.886
1176.0,-111.0,4.887
1013.0,-118.0,4.888
786.0,-97.0,4.889
651.0,-63.0,4.89
594.0,-24.0,4.891
478.0,8.0,4.892
284.0,39.0,4.893
104.0,76.0,4.894
-35.0,109.0,4.895
-181.0,114.0,4.896
-333.0,94.0,4.897
-467.0,69.0,4.898
-558.0,60.0,4.899
-617.0,61.0,4.9
-652.0,54.0,4.901
-664.0,44.0,4.902
-666.0,38.0,4.903
-666.0,33.0,4.904
-655.0,26.0,4.905
-636.0,21.0,4.906
-630.0,18.0,4.907
-630.0,15.0,4.908
-608.0,11.0,4.909
-567.0,11.0,4.91
-537.0,14.0,4.911
-516.0,10.0,4.912
-478.0,-1.0,4.913
-425.0,-7.0,4.914
-387.0,-10.0,4.915
-361.0,-16.0,4.916
-324.0,-24.0,4.917
-273.0,-35.0,4.918
-230.0,-43.0,4.919
-196.0,-51.0,4.92
-150.0,-60.0,4.921
-105.0,-67.0,4.922
-79.0,-67.0,4.923
-53.0,-65.0,4.924
15.0,-59.0,4.925
110.0,-45.0,4.926
163.0,-7.0,4.927
150.0,24.0,4.928
120.0,38.0,4.929
143.0,45.0,4.93
228.0,31.0,4.931
310.0,21.0,4.932
319.0,22.0,4.933
253.0,19.0,4.934
182.0,4.0,4.935
156.0,-10.0,4.936
148.0,-26.0,4.937
103.0,-39.0,4.938
32.0,-35.0,4.939
-23.0,-9.0,4.94
-65.0,24.0,4.941
-143.0,38.0,4.942
-260.0,21.0,4.943
-354.0,-5.0,4.944
-373.0,-8.0,4.945
-330.0,1.0,4.946
-275.0,2.0,4.947
-227.0,-4.0,4.948
-172.0,2.0,4.949
-93.0,15.0,4.95
-17.0,12.0,4.951
18.0,-9.0,4.952
21.0,-25.0,4.953
45.0,-26.0,4.954
135.0,-24.0,4.955
251.0,-30.0,4.956
317.0,-35.0,4.957
308.0,-39.0,4.958
258.0,-41.0,4.959
226.0,-39.0,4.96
238.0,-35.0,4.961
266.0,-33.0,4.962
268.0,-37.0,4.963
230.0,-40.0,4.964
182.0,-33.0,4.965
148.0,-21.0,4.966
119.0,-13.0,4.967
68.0,-5.0,4.968
-4.0,15.0,4.969
-78.0,37.0,4.97
-151.0,44.0,4.971
-226.0,31.0,4.972
-291.0,14.0,4.973
-313.0,5.0,4.974
-292.0,-3.0,4.975
-266.0,-8.0,4.976
-262.0,-9.0,4.977
-281.0,-14.0,4.978
-317.0,-21.0,4.979
-382.0,-25.0,4.98
-530.0,-15.0,4.981
-665.0,-1.0,4.982
-763.0,0.0,4.983
-820.0,-13.0,4.984
-753.0,-23.0,4.985
-670.0,-10.0,4.986
-543.0,21.0,4.987
-424.0,56.0,4.988
-328.0,82.0,4.989
-255.0,84.0,4.99
-255.0,59.0,4.991
-260.0,18.0,4.992
-282.0,-26.0,4.993
-300.0,-70.0,4.994
-305.0,-99.0,4.995
-306.0,-94.0,4.996
-293.0,-61.0,4.997
-286.0,-26.0,4.998
-298.0,3.0,4.999
-288.0,35.0,5.0
-262.0,75.0,5.001
-256.0,102.0,5.002
-275.0,91.0,5.003
-301.0,62.0,5.004
-329.0,-15.0,5.005
-356.0,-97.0,5.006
-347.0,-187.0,5.007
-283.0,-252.0,5.008
-196.0,-237.0,5.009
-136.0,-202.0,5.01
-80.0,-110.0,5.011
19.0,-31.0,5.012
152.0,5.0,5.013
260.0,38.0,5.014
337.0,62.0,5.015
420.0,80.0,5.016
512.0,78.0,5.017
575.0,70.0,5.018
589.0,56.0,5.019
585.0,51.0,5.02
612.0,37.0,5.021
664.0,16.0,5.022
700.0,3.0,5.023
691.0,-5.0,5.024
658.0,-38.0,5.025
644.0,-103.0,5.026
671.0,-153.0,5.027
707.0,-139.0,5.028
702.0,-71.0,5.029
650.0,-8.0,5.03
599.0,12.0,5.031
604.0,14.0,5.032
685.0,34.0,5.033
821.0,66.0,5.034
978.0,77.0,5.035
1122.0,69.0,5.036
1232.0,71.0,5.037
1303.0,90.0,5.038
1281.0,96.0,5.039
1090.0,77.0,5.04
669.0,52.0,5.041
-16.0,47.0,5.042
-892.0,52.0,5.043
-1667.0,52.0,5.044
-1939.0,49.0,5.045
-1593.0,56.0,5.046
-1012.0,71.0,5.047
-684.0,84.0,5.048
-681.0,87.0,5.049
-717.0,78.0,5.05
-624.0,54.0,5.051
-501.0,32.0,5.052
-442.0,23.0,5.053
-407.0,29.0,5.054
-371.0,38.0,5.055
-378.0,42.0,5.056
-420.0,41.0,5.057
-443.0,31.0,5.058
-429.0,19.0,5.059
-395.0,11.0,5.06
-309.0,9.0,5.061
-158.0,14.0,5.062
-25.0,15.0,5.063
14.0,21.0,5.064
15.0,50.0,5.065
70.0,116.0,5.066
183.0,196.0,5.067
317.0,246.0,5.068
464.0,240.0,5.069
617.0,200.0,5.07
730.0,167.0,5.071
804.0,140.0,5.072
885.0,62.0,5.073
950.0,-108.0,5.074
924.0,-307.0,5.075
816.0,-426.0,5.076
725.0,-438.0,5.077
681.0,-400.0,5.078
624.0,-355.0,5.079
552.0,-285.0,5.08
553.0,-188.0,5.081
670.0,-96.0,5.082
815.0,-25.0,5.083
875.0,75.0,5.084
837.0,216.0,5.085
726.0,320.0,5.086
558.0,308.0,5.087
385.0,226.0,5.088
299.0,178.0,5.089
305.0,176.0,5.09
291.0,132.0,5.091
183.0,0.0,5.092
45.0,-153.0,5.093
-42.0,-239.0,5.094
-118.0,-248.0,5.095
-245.0,-239.0,5.096
-385.0,-236.0,5.097
-492.0,-223.0,5.098
-553.0,-190.0,5.099
-635.0,-156.0,5.1
-718.0,-123.0,5.101
-744.0,-59.0,5.102
-710.0,37.0,5.103
-673.0,116.0,5.104
-682.0,137.0,5.105
-743.0,116.0,5.106
-843.0,109.0,5.107
-947.0,140.0,5.108
-996.0,180.0,5.109
-970.0,184.0,5.11
-910.0,137.0,5.111
-855.0,56.0,5.112
-796.0,-30.0,5.113
-715.0,-100.0,5.114
-620.0,-139.0,5.115
-539.0,-142.0,5.116
-478.0,-123.0,5.117
-438.0,-104.0,5.118
-419.0,-95.0,5.119
-394.0,-88.0,5.12
-356.0,-64.0,5.121
-304.0,-14.0,5.122
-212.0,53.0,5.123
-110.0,109.0,5.124
19.0,125.0,5.125
133.0,90.0,5.126
205.0,33.0,5.127
241.0,14.0,5.128
171.0,93.0,5.129
114.0,256.0,5.13
94.0,411.0,5.131
84.0,449.0,5.132
109.0,343.0,5.133
147.0,170.0,5.134
219.0,17.0,5.135
275.0,-102.0,5.136
280.0,-224.0,5.137
268.0,-358.0,5.138
182.0,-458.0,5.139
102.0,-521.0,5.14
70.0,-474.0,5.141
70.0,-390.0,5.142
47.0,-198.0,5.143
10.0,6.0,5.144
33.0,244.0,5.145
138.0,451.0,5.146
218.0,565.0,5.147
136.0,621.0,5.148
-103.0,503.0,5.149
-312.0,344.0,5.15
-276.0,64.0,5.151
34.0,-193.0,5.152
395.0,-379.0,5.153
537.0,-538.0,5.154
449.0,-614.0,5.155
360.0,-666.0,5.156
457.0,-640.0,5.157
777.0,-575.0,5.158
1608.0,-354.0,5.159
2969.0,-130.0,5.16
4000.0,19.0,5.161
3784.0,114.0,5.162
1111.0,183.0,5.163
-2811.0,209.0,5.164
-4000.0,205.0,5.165
-4000.0,243.0,5.166
-3441.0,346.0,5.167
-1154.0,411.0,5.168
1166.0,338.0,5.169
3628.0,188.0,5.17
4000.0,112.0,5.171
4000.0,156.0,5.172
3508.0,217.0,5.173
3150.0,174.0,5.174
4000.0,17.0,5.175
3900.0,-182.0,5.176
2218.0,-332.0,5.177
784.0,-374.0,5.178
652.0,-266.0,5.179
-583.0,-6.0,5.18
-3192.0,251.0,5.181
-4000.0,347.0,5.182
-4000.0,274.0,5.183
-3888.0,149.0,5.184
-3856.0,44.0,5.185
45.0,-69.0,5.186
-3560.0,-183.0,5.187
-1438.0,-213.0,5.188
1867.0,-137.0,5.189
4000.0,-47.0,5.19
4000.0,-15.0,5.191
4000.0,0.0,5.192
2654.0,57.0,5.193
1327.0,128.0,5.194
-828.0,165.0,5.195
-3720.0,217.0,5.196
44.0,373.0,5.197
-4000.0,676.0,5.198
-3031.0,799.0,5.199
-2719.0,552.0,5.2
-3535.0,16.0,5.201
-1939.0,-516.0,5.202
1288.0,-884.0,5.203
2659.0,-1138.0,5.204
2306.0,-1295.0,5.205
2911.0,-1225.0,5.206
4000.0,-898.0,5.207
4000.0,-504.0,5.208
3853.0,-226.0,5.209
3829.0,-20.0,5.21
4000.0,216.0,5.211
4000.0,441.0,5.212
3600.0,558.0,5.213
3210.0,579.0,5.214
2918.0,559.0,5.215
2231.0,484.0,5.216
1803.0,344.0,5.217
1997.0,121.0,5.218
2042.0,188.0,5.219
2062.0,223.0,5.22
2008.0,157.0,5.221
2064.0,73.0,5.222
2453.0,-65.0,5.223
2761.0,-193.0,5.224
2829.0,-286.0,5.225
3020.0,-353.0,5.226
3580.0,-338.0,5.227
4000.0,-306.0,5.228
4000.0,-220.0,5.229
3989.0,-139.0,5.23
3945.0,-76.0,5.231
3790.0,-22.0,5.232
3304.0,7.0,5.233
2818.0,27.0,5.234
2330.0,13.0,5.235
1915.0,12.0,5.236
1719.0,51.0,5.237
1513.0,355.0,5.238
1083.0,511.0,5.239
456.0,591.0,5.24
94.0,439.0,5.241
57.0,243.0,5.242
50.0,-78.0,5.243
25.0,-375.0,5.244
102.0,-591.0,5.245
126.0,-745.0,5.246
-116.0,-711.0,5.247
-500.0,-636.0,5.248
-826.0,-437.0,5.249
-1132.0,-250.0,5.25
-1160.0,-104.0,5.251
-109.0,23.0,5.252
2247.0,92.0,5.253
4000.0,137.0,5.254
4000.0,105.0,5.255
4000.0,102.0,5.256
3369.0,192.0,5.257
3229.0,292.0,5.258
3022.0,314.0,5.259
1377.0,97.0,5.26
-1248.0,-192.0,5.261
-3375.0,-290.0,5.262
-4000.0,-144.0,5.263
-4000.0,104.0,5.264
-4000.0,294.0,5.265
-3829.0,353.0,5.266
-3564.0,319.0,5.267
-2680.0,292.0,5.268
-64.0,314.0,5.269
2901.0,271.0,5.27
2710.0,67.0,5.271
-1285.0,-197.0,5.272
-4000.0,-331.0,5.273
-3137.0,-311.0,5.274
868.0,-268.0,5.275
2561.0,-252.0,5.276
1399.0,-198.0,5.277
982.0,-56.0,5.278
2956.0,129.0,5.279
4000.0,318.0,5.28
3872.0,487.0,5.281
3149.0,584.0,5.282
3834.0,549.0,5.283
4000.0,395.0,5.284
4000.0,174.0,5.285
3290.0,-97.0,5.286
3316.0,-377.0,5.287
3475.0,-551.0,5.288
2766.0,-535.0,5.289
2024.0,-387.0,5.29
2128.0,-226.0,5.291
2368.0,-91.0,5.292
2038.0,35.0,5.293
1727.0,125.0,5.294
1932.0,136.0,5.295
2079.0,105.0,5.296
1802.0,93.0,5.297
1531.0,100.0,5.298
1577.0,87.0,5.299
1539.0,62.0,5.3
1245.0,58.0,5.301
1126.0,82.0,5.302
1305.0,96.0,5.303
1364.0,88.0,5.304
1221.0,74.0,5.305
1220.0,55.0,5.306
1357.0,18.0,5.307
1291.0,-23.0,5.308
1069.0,-42.0,5.309
1025.0,-35.0,5.31
1117.0,-22.0,5.311
1064.0,-16.0,5.312
900.0,-17.0,5.313
795.0,-19.0,5.314
609.0,-39.0,5.315
189.0,-86.0,5.316
-220.0,-135.0,5.317
-409.0,-156.0,5.318
-503.0,-132.0,5.319
-728.0,-96.0,5.32
-994.0,-87.0,5.321
-1138.0,-90.0,5.322
-1269.0,-73.0,5.323
-1506.0,-33.0,5.324
-1714.0,0.0,5.325
-1784.0,13.0,5.326
-1859.0,22.0,5.327
-2029.0,37.0,5.328
-2133.0,50.0,5.329
-2063.0,55.0,5.33
-1965.0,57.0,5.331
-1949.0,64.0,5.332
-1918.0,67.0,5.333
-1822.0,64.0,5.334
-1775.0,61.0,5.335
-1820.0,63.0,5.336
-1840.0,65.0,5.337
-1781.0,60.0,5.338
-1743.0,53.0,5.339
-1769.0,46.0,5.34
-1751.0,38.0,5.341
-1633.0,33.0,5.342
-1504.0,27.0,5.343
-1420.0,23.0,5.344
-1320.0,20.0,5.345
-1188.0,22.0,5.346
-1106.0,24.0,5.347
-1106.0,15.0,5.348
-1102.0,0.0,5.349
-1040.0,-7.0,5.35
-961.0,-1.0,5.351
-898.0,13.0,5.352
-818.0,23.0,5.353
-715.0,22.0,5.354
-626.0,13.0,5.355
-572.0,2.0,5.356
-509.0,-5.0,5.357
-415.0,-13.0,5.358
-347.0,-22.0,5.359
-362.0,-32.0,5.36
-420.0,-45.0,5.361
-436.0,-52.0,5.362
-387.0,-52.0,5.363
-326.0,-45.0,5.364
-300.0,-28.0,5.365
-295.0,-8.0,5.366
-272.0,7.0,5.367
-230.0,11.0,5.368
-188.0,10.0,5.369
-148.0,15.0,5.37
-95.0,32.0,5.371
-42.0,53.0,5.372
-22.0,63.0,5.373
-42.0,52.0,5.374
-82.0,27.0,5.375
-126.0,3.0,5.376
-175.0,-8.0,5.377
-238.0,-19.0,5.378
-307.0,-29.0,5.379
-384.0,-37.0,5.38
-448.0,-38.0,5.381
-443.0,-30.0,5.382
-345.0,-23.0,5.383
-208.0,-19.0,5.384
-114.0,-14.0,5.385
-64.0,-4.0,5.386
-18.0,4.0,5.387
34.0,9.0,5.388
68.0,15.0,5.389
103.0,24.0,5.39
173.0,23.0,5.391
258.0,11.0,5.392
299.0,2.0,5.393
291.0,3.0,5.394
284.0,0.0,5.395
308.0,-12.0,5.396
345.0,-25.0,5.397
374.0,-33.0,5.398
390.0,-42.0,5.399
385.0,-55.0,5.4
358.0,-60.0,5.401
324.0,-49.0,5.402
299.0,-33.0,5.403
265.0,-31.0,5.404
197.0,-32.0,5.405
109.0,-23.0,5.406
50.0,-8.0,5.407
43.0,-5.0,5.408
59.0,-15.0,5.409
61.0,-26.0,5.41
33.0,-24.0,5.411
-15.0,-18.0,5.412
-80.0,-16.0,5.413
-155.0,-16.0,5.414
-218.0,-11.0,5.415
-225.0,-6.0,5.416
-164.0,-1.0,5.417
-73.0,-3.0,5.418
-17.0,-10.0,5.419
-23.0,-21.0,5.42
-48.0,-31.0,5.421
-68.0,-30.0,5.422
-101.0,-24.0,5.423
-172.0,-15.0,5.424
-263.0,-10.0,5.425
-356.0,-2.0,5.426
-437.0,4.0,5.427
-468.0,12.0,5.428
-407.0,26.0,5.429
-281.0,47.0,5.43
-176.0,62.0,5.431
-124.0,62.0,5.432
-80.0,59.0,5.433
-35.0,70.0,5.434
-55.0,97.0,5.435
-172.0,118.0,5.436
-326.0,111.0,5.437
-480.0,60.0,5.438
-610.0,-25.0,5.439
-697.0,-120.0,5.44
-715.0,-190.0,5.441
-661.0,-212.0,5.442
-543.0,-203.0,5.443
-367.0,-175.0,5.444
-178.0,-126.0,5.445
-65.0,-47.0,5.446
-64.0,44.0,5.447
-119.0,108.0,5.448
-173.0,128.0,5.449
-206.0,122.0,5.45
-159.0,110.0,5.451
47.0,99.0,5.452
351.0,80.0,5.453
550.0,31.0,5.454
549.0,-57.0,5.455
473.0,-153.0,5.456
491.0,-199.0,5.457
642.0,-178.0,5.458
853.0,-130.0,5.459
1043.0,-114.0,5.46
1145.0,-123.0,5.461
1129.0,-99.0,5.462
1049.0,-33.0,5.463
990.0,25.0,5.464
961.0,40.0,5.465
936.0,23.0,5.466
962.0,-13.0,5.467
1108.0,-67.0,5.468
1315.0,-116.0,5.469
1441.0,-111.0,5.47
1434.0,-53.0,5.471
1346.0,-8.0,5.472
1201.0,-11.0,5.473
961.0,-24.0,5.474
605.0,-6.0,5.475
97.0,20.0,5.476
-595.0,22.0,5.477
-1512.0,10.0,5.478
-2218.0,12.0,5.479
-2202.0,25.0,5.48
-1604.0,28.0,5.481
-1213.0,33.0,5.482
-1459.0,62.0,5.483
-1844.0,104.0,5.484
-1801.0,140.0,5.485
-1664.0,166.0,5.486
-2115.0,176.0,5.487
-2998.0,158.0,5.488
-3494.0,125.0,5.489
-3325.0,115.0,5.49
-2945.0,140.0,5.491
-2624.0,177.0,5.492
-2150.0,206.0,5.493
-1497.0,225.0,5.494
-1025.0,214.0,5.495
-891.0,151.0,5.496
-840.0,70.0,5.497
-657.0,184.0,5.498
-401.0,180.0,5.499
-128.0,164.0,5.5
221.0,110.0,5.501
595.0,69.0,5.502
866.0,62.0,5.503
1081.0,55.0,5.504
1398.0,46.0,5.505
1778.0,42.0,5.506
2052.0,60.0,5.507
2217.0,99.0,5.508
2392.0,195.0,5.509
2575.0,273.0,5.51
2675.0,299.0,5.511
2719.0,273.0,5.512
2787.0,91.0,5.513
2840.0,-78.0,5.514
2794.0,-207.0,5.515
2667.0,-322.0,5.516
2516.0,-395.0,5.517
2279.0,210.0,5.518
1973.0,205.0,5.519
1695.0,185.0,5.52
1500.0,121.0,5.521
1284.0,71.0,5.522
1005.0,63.0,5.523
740.0,53.0,5.524
520.0,42.0,5.525
277.0,38.0,5.526
-31.0,61.0,5.527
-301.0,107.0,5.528
-458.0,223.0,5.529
-596.0,317.0,5.53
-676.0,348.0,5.531
-753.0,317.0,5.532
-823.0,98.0,5.533
-918.0,-106.0,5.534
-1084.0,-262.0,5.535
-1222.0,-400.0,5.536
-1273.0,-487.0,5.537
-1329.0,-553.0,5.538
-1433.0,-524.0,5.539
-1563.0,-464.0,5.54
-1615.0,-402.0,5.541
-1565.0,-307.0,5.542
-1469.0,-168.0,5.543
-1383.0,-34.0,5.544
-1318.0,46.0,5.545
-1253.0,89.0,5.546
-1153.0,153.0,5.547
-1009.0,256.0,5.548
-839.0,335.0,5.549
-671.0,325.0,5.55
-521.0,228.0,5.551
-410.0,122.0,5.552
-352.0,55.0,5.553
-321.0,2.0,5.554
-275.0,-77.0,5.555
-211.0,-157.0,5.556
-157.0,-180.0,5.557
-140.0,-143.0,5.558
-158.0,-87.0,5.559
-188.0,-45.0,5.56
-188.0,-16.0,5.561
-126.0,6.0,5.562
-23.0,10.0,5.563
63.0,6.0,5.564
128.0,25.0,5.565
216.0,68.0,5.566
323.0,103.0,5.567
366.0,119.0,5.568
307.0,127.0,5.569
228.0,130.0,5.57
240.0,121.0,5.571
322.0,113.0,5.572
353.0,148.0,5.573
262.0,224.0,5.574
118.0,272.0,5.575
38.0,222.0,5.576
61.0,85.0,5.577
165.0,-81.0,5.578
306.0,-200.0,5.579
432.0,-237.0,5.58
514.0,-204.0,5.581
577.0,-138.0,5.582
582.0,-89.0,5.583
382.0,-95.0,5.584
-434.0,-135.0,5.585
-1322.0,-125.0,5.586
-2424.0,-25.0,5.587
-2384.0,90.0,5.588
1081.0,93.0,5.589
3720.0,-31.0,5.59
3880.0,-152.0,5.591
3879.0,-148.0,5.592
3396.0,-61.0,5.593
3154.0,-22.0,5.594
3637.0,-88.0,5.595
3691.0,-210.0,5.596
2457.0,-328.0,5.597
1495.0,-429.0,5.598
1460.0,-457.0,5.599
422.0,-358.0,5.6
-1738.0,-168.0,5.601
-3506.0,20.0,5.602
-4000.0,170.0,5.603
-4000.0,308.0,5.604
-4000.0,419.0,5.605
-3855.0,441.0,5.606
-3721.0,386.0,5.607
-3484.0,347.0,5.608
-1459.0,361.0,5.609
2380.0,367.0,5.61
4000.0,343.0,5.611
4000.0,361.0,5.612
3896.0,436.0,5.613
3300.0,433.0,5.614
3949.0,229.0,5.615
4000.0,-92.0,5.616
4000.0,-326.0,5.617
3060.0,-407.0,5.618
1476.0,-403.0,5.619
-1415.0,-413.0,5.62
-3937.0,-441.0,5.621
-4000.0,-429.0,5.622
-4000.0,-358.0,5.623
-2967.0,-228.0,5.624
-2840.0,-25.0,5.625
-2670.0,204.0,5.626
-191.0,314.0,5.627
2974.0,198.0,5.628
4000.0,-40.0,5.629
3805.0,-170.0,5.63
3935.0,-87.0,5.631
4000.0,79.0,5.632
4000.0,142.0,5.633
3831.0,72.0,5.634
3989.0,-12.0,5.635
4000.0,-12.0,5.636
4000.0,46.0,5.637
3917.0,64.0,5.638
4000.0,-11.0,5.639
4000.0,-140.0,5.64
4000.0,-271.0,5.641
3957.0,-392.0,5.642
4000.0,-476.0,5.643
4000.0,-437.0,5.644
4000.0,-246.0,5.645
3701.0,-18.0,5.646
3608.0,108.0,5.647
3469.0,159.0,5.648
3094.0,231.0,5.649
2826.0,312.0,5.65
2828.0,308.0,5.651
2759.0,231.0,5.652
2472.0,197.0,5.653
2258.0,263.0,5.654
2190.0,386.0,5.655
1992.0,515.0,5.656
1659.0,596.0,5.657
1415.0,540.0,5.658
1248.0,314.0,5.659
1010.0,32.0,5.66
559.0,-148.0,5.661
215.0,-197.0,5.662
197.0,-197.0,5.663
217.0,-203.0,5.664
350.0,-243.0,5.665
434.0,-348.0,5.666
370.0,-502.0,5.667
269.0,-603.0,5.668
63.0,-595.0,5.669
-77.0,-509.0,5.67
-19.0,-361.0,5.671
-7.0,-131.0,5.672
-133.0,101.0,5.673
-264.0,184.0,5.674
-408.0,144.0,5.675
-550.0,207.0,5.676
-687.0,455.0,5.677
-830.0,705.0,5.678
-1053.0,674.0,5.679
-1403.0,353.0,5.68
-1775.0,8.0,5.681
-2039.0,-133.0,5.682
-2186.0,-115.0,5.683
-2267.0,-129.0,5.684
-2308.0,-291.0,5.685
-2315.0,-545.0,5.686
-2299.0,-751.0,5.687
-2237.0,-825.0,5.688
-2098.0,-775.0,5.689
-1933.0,-649.0,5.69
-1857.0,-488.0,5.691
-1895.0,-326.0,5.692
-1941.0,-187.0,5.693
-1889.0,-61.0,5.694
-1742.0,70.0,5.695
-1554.0,207.0,5.696
-1375.0,333.0,5.697
-1225.0,461.0,5.698
-1173.0,595.0,5.699
-1257.0,697.0,5.7
-1403.0,697.0,5.701
-1482.0,675.0,5.702
-1435.0,581.0,5.703
-1340.0,512.0,5.704
-1306.0,518.0,5.705
-1350.0,555.0,5.706
-1444.0,681.0,5.707
-1645.0,778.0,5.708
-2010.0,785.0,5.709
-2328.0,659.0,5.71
-2172.0,133.0,5.711
-1425.0,-334.0,5.712
-546.0,-623.0,5.713
-61.0,-812.0,5.714
45.0,-702.0,5.715
171.0,-588.0,5.716
433.0,-466.0,5.717
640.0,-381.0,5.718
642.0,-476.0,5.719
575.0,-600.0,5.72
603.0,-560.0,5.721
669.0,-364.0,5.722
670.0,-200.0,5.723
638.0,-156.0,5.724
628.0,-154.0,5.725
605.0,-133.0,5.726
539.0,-116.0,5.727
481.0,-82.0,5.728
473.0,33.0,5.729
477.0,205.0,5.73
466.0,335.0,5.731
454.0,399.0,5.732
452.0,443.0,5.733
432.0,451.0,5.734
392.0,360.0,5.735
371.0,193.0,5.736
387.0,58.0,5.737
415.0,-14.0,5.738
442.0,-40.0,5.739
473.0,-36.0,5.74
493.0,2.0,5.741
437.0,55.0,5.742
279.0,79.0,5.743
71.0,78.0,5.744
-98.0,92.0,5.745
-194.0,123.0,5.746
-250.0,125.0,5.747
-291.0,78.0,5.748
-306.0,16.0,5.749
-282.0,-22.0,5.75
-241.0,-31.0,5.751
-213.0,-24.0,5.752
-203.0,-18.0,5.753
-196.0,-23.0,5.754
-188.0,-32.0,5.755
-178.0,-39.0,5.756
-162.0,-41.0,5.757
-155.0,-47.0,5.758
-167.0,-52.0,5.759
-186.0,-53.0,5.76
-226.0,-53.0,5.761
-258.0,-54.0,5.762
-262.0,-54.0,5.763
-265.0,-47.0,5.764
-262.0,-38.0,5.765
-262.0,-33.0,5.766
-272.0,-30.0,5.767
-280.0,-19.0,5.768
-278.0,-3.0,5.769
-245.0,12.0,5.77
-123.0,28.0,5.771
-28.0,36.0,5.772
-12.0,25.0,5.773
-14.0,-20.0,5.774
-75.0,-94.0,5.775
-98.0,-166.0,5.776
-4.0,-196.0,5.777
79.0,-179.0,5.778
87.0,-139.0,5.779
56.0,-110.0,5.78
41.0,-117.0,5.781
10.0,-115.0,5.782
-79.0,-81.0,5.783
-202.0,-45.0,5.784
-325.0,-3.0,5.785
-476.0,30.0,5.786
-659.0,38.0,5.787
-785.0,47.0,5.788
-776.0,57.0,5.789
-678.0,67.0,5.79
-592.0,71.0,5.791
-533.0,75.0,5.792
-458.0,79.0,5.793
-369.0,81.0,5.794
-302.0,79.0,5.795
-255.0,79.0,5.796
-195.0,91.0,5.797
-113.0,107.0,5.798
-44.0,136.0,5.799
-6.0,159.0,5.8
30.0,171.0,5.801
83.0,183.0,5.802
150.0,180.0,5.803
218.0,150.0,5.804
286.0,103.0,5.805
370.0,68.0,5.806
474.0,53.0,5.807
575.0,39.0,5.808
634.0,13.0,5.809
636.0,-11.0,5.81
602.0,-27.0,5.811
556.0,-41.0,5.812
509.0,-56.0,5.813
460.0,-66.0,5.814
409.0,-68.0,5.815
350.0,-70.0,5.816
282.0,-75.0,5.817
202.0,-83.0,5.818
121.0,-84.0,5.819
42.0,-85.0,5.82
-36.0,-90.0,5.821
-102.0,-87.0,5.822
-132.0,-68.0,5.823
-127.0,-46.0,5.824
-116.0,-30.0,5.825
-114.0,-20.0,5.826
-117.0,-7.0,5.827
-122.0,9.0,5.828
-127.0,19.0,5.829
-133.0,23.0,5.83
-136.0,22.0,5.831
-137.0,22.0,5.832
-131.0,17.0,5.833
-111.0,2.0,5.834
-69.0,-11.0,5.835
-11.0,-15.0,5.836
46.0,-14.0,5.837
91.0,-25.0,5.838
112.0,-39.0,5.839
100.0,-44.0,5.84
66.0,-43.0,5.841
22.0,-42.0,5.842
-29.0,-46.0,5.843
-85.0,-41.0,5.844
-126.0,-23.0,5.845
-143.0,-5.0,5.846
-154.0,-4.0,5.847
-172.0,-11.0,5.848
-172.0,-12.0,5.849
-135.0,-3.0,5.85
-83.0,6.0,5.851
-59.0,6.0,5.852
-73.0,0.0,5.853
-98.0,-3.0,5.854
-113.0,-5.0,5.855
-113.0,-8.0,5.856
-95.0,-9.0,5.857
-68.0,-9.0,5.858
-54.0,-7.0,5.859
-63.0,-4.0,5.86
-69.0,-5.0,5.861
-61.0,4.0,5.862
-69.0,13.0,5.863
-136.0,5.0,5.864
-237.0,-19.0,5.865
-302.0,-37.0,5.866
-295.0,-37.0,5.867
-248.0,-25.0,5.868
-203.0,-16.0,5.869
-156.0,-8.0,5.87
-91.0,11.0,5.871
-22.0,39.0,5.872
15.0,58.0,5.873
14.0,54.0,5.874
9.0,26.0,5.875
26.0,-7.0,5.876
48.0,-24.0,5.877
60.0,-26.0,5.878
67.0,-27.0,5.879
84.0,-39.0,5.88
98.0,-55.0,5.881
89.0,-53.0,5.882
69.0,-33.0,5.883
73.0,-9.0,5.884
115.0,14.0,5.885
172.0,41.0,5.886
214.0,70.0,5.887
237.0,88.0,5.888
268.0,87.0,5.889
335.0,65.0,5.89
428.0,21.0,5.891
514.0,-50.0,5.892
570.0,-141.0,5.893
603.0,-222.0,5.894
646.0,-254.0,5.895
712.0,-229.0,5.896
779.0,-170.0,5.897
833.0,-104.0,5.898
874.0,-49.0,5.899
903.0,-10.0,5.9
898.0,23.0,5.901
819.0,74.0,5.902
661.0,139.0,5.903
463.0,170.0,5.904
299.0,120.0,5.905
229.0,21.0,5.906
242.0,-46.0,5.907
267.0,-55.0,5.908
242.0,-70.0,5.909
178.0,-132.0,5.91
111.0,-191.0,5.911
45.0,-183.0,5.912
-24.0,-132.0,5.913
-88.0,-96.0,5.914
-176.0,-76.0,5.915
-321.0,-30.0,5.916
-449.0,30.0,5.917
-451.0,69.0,5.918
-373.0,85.0,5.919
-447.0,110.0,5.92
-723.0,146.0,5.921
-916.0,169.0,5.922
-830.0,168.0,5.923
-704.0,156.0,5.924
-838.0,141.0,5.925
-1119.0,123.0,5.926
-1255.0,110.0,5.927
-1258.0,112.0,5.928
-1329.0,113.0,5.929
-1412.0,103.0,5.93
-1278.0,103.0,5.931
-930.0,140.0,5.932
-622.0,195.0,5.933
-492.0,208.0,5.934
-450.0,148.0,5.935
-400.0,48.0,5.936
-333.0,-21.0,5.937
-241.0,-33.0,5.938
-138.0,-9.0,5.939
-76.0,5.0,5.94
-70.0,-17.0,5.941
-52.0,-54.0,5.942
38.0,-77.0,5.943
160.0,-64.0,5.944
257.0,-17.0,5.945
350.0,38.0,5.946
490.0,74.0,5.947
690.0,82.0,5.948
917.0,73.0,5.949
1123.0,56.0,5.95
1225.0,32.0,5.951
1171.0,11.0,5.952
1018.0,5.0,5.953
875.0,3.0,5.954
774.0,-10.0,5.955
669.0,-6.0,5.956
561.0,56.0,5.957
482.0,158.0,5.958
446.0,194.0,5.959
387.0,100.0,5.96
283.0,-56.0,5.961
202.0,-146.0,5.962
200.0,-141.0,5.963
220.0,-93.0,5.964
167.0,-38.0,5.965
46.0,26.0,5.966
-64.0,75.0,5.967
-132.0,68.0,5.968
-189.0,26.0,5.969
-253.0,-9.0,5.97
-298.0,-57.0,5.971
-326.0,-174.0,5.972
-371.0,-323.0,5.973
-445.0,-388.0,5.974
-510.0,-329.0,5.975
-528.0,-218.0,5.976
-505.0,-134.0,5.977
-454.0,-74.0,5.978
-381.0,-26.0,5.979
-301.0,-6.0,5.98
-237.0,-28.0,5.981
-214.0,-72.0,5.982
-242.0,-110.0,5.983
-305.0,-115.0,5.984
-360.0,-71.0,5.985
-374.0,9.0,5.986
-360.0,77.0,5.987
-355.0,103.0,5.988
-361.0,119.0,5.989
-355.0,150.0,5.99
-335.0,164.0,5.991
-324.0,126.0,5.992
-325.0,64.0,5.993
-320.0,28.0,5.994
-308.0,-6.0,5.995
-300.0,-91.0,5.996
-284.0,-200.0,5.997
-226.0,-255.0,5.998
-108.0,-193.0,5.999
47.0,-54.0,6.0
196.0,83.0,6.001
296.0,196.0,6.002
331.0,279.0,6.003
323.0,320.0,6.004
293.0,304.0,6.005
233.0,231.0,6.006
116.0,115.0,6.007
-40.0,-26.0,6.008
-154.0,-154.0,6.009
-164.0,-224.0,6.01
-96.0,-225.0,6.011
-20.0,-189.0,6.012
-2.0,-148.0,6.013
-54.0,-118.0,6.014
-128.0,-99.0,6.015
-111.0,-81.0,6.016
53.0,-61.0,6.017
257.0,-53.0,6.018
322.0,-64.0,6.019
306.0,-75.0,6.02
46.0,-57.0,6.021
-190.0,-7.0,6.022
-356.0,50.0,6.023
-482.0,97.0,6.024
-483.0,133.0,6.025
-451.0,145.0,6.026
-320.0,122.0,6.027
-182.0,105.0,6.028
-21.0,162.0,6.029
143.0,310.0,6.03
315.0,459.0,6.031
467.0,496.0,6.032
559.0,387.0,6.033
642.0,214.0,6.034
698.0,94.0,6.035
767.0,63.0,6.036
879.0,33.0,6.037
1060.0,-118.0,6.038
1704.0,-391.0,6.039
2849.0,-662.0,6.04
3961.0,-816.0,6.041
4000.0,-836.0,6.042
3527.0,-751.0,6.043
950.0,-552.0,6.044
-2373.0,-246.0,6.045
-4000.0,63.0,6.046
-4000.0,262.0,6.047
-3843.0,358.0,6.048
-2135.0,434.0,6.049
-62.0,508.0,6.05
2515.0,529.0,6.051
4000.0,510.0,6.052
4000.0,524.0,6.053
3948.0,543.0,6.054
2991.0,438.0,6.055
3751.0,169.0,6.056
4000.0,-111.0,6.057
3358.0,-304.0,6.058
1568.0,-409.0,6.059
1118.0,-480.0,6.06
506.0,-493.0,6.061
-1845.0,-386.0,6.062
-3937.0,-203.0,6.063
-4000.0,-52.0,6.064
-4000.0,2.0,6.065
-3803.0,-27.0,6.066
-3982.0,-109.0,6.067
-3662.0,-207.0,6.068
-1853.0,-255.0,6.069
1052.0,-161.0,6.07
3568.0,119.0,6.071
4000.0,485.0,6.072
3704.0,701.0,6.073
3416.0,596.0,6.074
4000.0,282.0,6.075
4000.0,46.0,6.076
4000.0,18.0,6.077
3622.0,45.0,6.078
3955.0,-59.0,6.079
4000.0,-264.0,6.08
4000.0,-360.0,6.081
3742.0,-227.0,6.082
3980.0,36.0,6.083
4000.0,211.0,6.084
4000.0,126.0,6.085
3834.0,-205.0,6.086
4000.0,-580.0,6.087
4000.0,-774.0,6.088
3682.0,-747.0,6.089
2770.0,-615.0,6.09
2228.0,-464.0,6.091
1932.0,-296.0,6.092
1589.0,-144.0,6.093
1436.0,-55.0,6.094
1568.0,20.0,6.095
1603.0,168.0,6.096
1465.0,340.0,6.097
1529.0,398.0,6.098
1903.0,290.0,6.099
2226.0,133.0,6.1
2367.0,52.0,6.101
2549.0,79.0,6.102
2686.0,201.0,6.103
2468.0,399.0,6.104
2035.0,572.0,6.105
1799.0,570.0,6.106
1718.0,400.0,6.107
1460.0,234.0,6.108
1089.0,207.0,6.109
912.0,257.0,6.11
856.0,262.0,6.111
626.0,181.0,6.112
295.0,36.0,6.113
131.0,-124.0,6.114
119.0,-233.0,6.115
106.0,-260.0,6.116
134.0,-256.0,6.117
267.0,-270.0,6.118
334.0,-270.0,6.119
202.0,-236.0,6.12
8.0,-106.0,6.121
-158.0,10.0,6.122
-484.0,88.0,6.123
-1048.0,145.0,6.124
-1574.0,135.0,6.125
-1820.0,133.0,6.126
-1908.0,154.0,6.127
-2038.0,97.0,6.128
-2170.0,-196.0,6.129
-2196.0,-436.0,6.13
-2165.0,-516.0,6.131
-2152.0,-497.0,6.132
-2113.0,-179.0,6.133
-2018.0,66.0,6.134
-1936.0,98.0,6.135
-1893.0,143.0,6.136
-1819.0,228.0,6.137
-1682.0,290.0,6.138
-1604.0,215.0,6.139
-1712.0,80.0,6.14
-1948.0,-33.0,6.141
-2148.0,-110.0,6.142
-2230.0,-152.0,6.143
-2265.0,-120.0,6.144
-2364.0,-3.0,6.145
-2562.0,127.0,6.146
-2750.0,193.0,6.147
-2743.0,198.0,6.148
-2459.0,212.0,6.149
-2024.0,260.0,6.15
-1652.0,252.0,6.151
-1435.0,79.0,6.152
-1327.0,-220.0,6.153
-1277.0,-466.0,6.154
-1293.0,-541.0,6.155
-1421.0,-496.0,6.156
-1684.0,-415.0,6.157
-1992.0,-268.0,6.158
-2070.0,-17.0,6.159
-1969.0,266.0,6.16
-1326.0,455.0,6.161
-781.0,532.0,6.162
-534.0,548.0,6.163
-248.0,523.0,6.164
153.0,425.0,6.165
502.0,254.0,6.166
688.0,63.0,6.167
899.0,-83.0,6.168
1185.0,-149.0,6.169
1412.0,-156.0,6.17
1464.0,-169.0,6.171
1530.0,-212.0,6.172
1638.0,-226.0,6.173
1706.0,-159.0,6.174
1655.0,-56.0,6.175
1618.0,4.0,6.176
1622.0,27.0,6.177
1610.0,74.0,6.178
1478.0,156.0,6.179
1300.0,218.0,6.18
1161.0,227.0,6.181
1001.0,206.0,6.182
786.0,169.0,6.183
612.0,110.0,6.184
525.0,29.0,6.185
434.0,-54.0,6.186
287.0,-125.0,6.187
167.0,-172.0,6.188
120.0,-184.0,6.189
86.0,-159.0,6.19
30.0,-127.0,6.191
-5.0,-113.0,6.192
-21.0,-115.0,6.193
-67.0,-115.0,6.194
-141.0,-86.0,6.195
-182.0,-27.0,6.196
-188.0,25.0,6.197
-217.0,22.0,6.198
-278.0,-40.0,6.199
-329.0,-108.0,6.2
-357.0,-126.0,6.201
-387.0,-102.0,6.202
-413.0,-76.0,6.203
-413.0,-59.0,6.204
-401.0,-31.0,6.205
-399.0,11.0,6.206
-402.0,46.0,6.207
-397.0,65.0,6.208
-403.0,72.0,6.209
-428.0,70.0,6.21
-435.0,58.0,6.211
-400.0,48.0,6.212
-356.0,45.0,6.213
-334.0,44.0,6.214
-317.0,34.0,6.215
-283.0,25.0,6.216
-254.0,21.0,6.217
-251.0,15.0,6.218
-261.0,9.0,6.219
-264.0,6.0,6.22
-268.0,3.0,6.221
-279.0,1.0,6.222
-283.0,-1.0,6.223
-270.0,-1.0,6.224
-253.0,-2.0,6.225
-243.0,-7.0,6.226
-223.0,-10.0,6.227
-192.0,-3.0,6.228
-165.0,10.0,6.229
-150.0,15.0,6.23
-125.0,10.0,6.231
-87.0,4.0,6.232
-50.0,1.0,6.233
-25.0,0.0,6.234
0.0,2.0,6.235
20.0,3.0,6.236
26.0,3.0,6.237
27.0,-6.0,6.238
45.0,-13.0,6.239
69.0,-17.0,6.24
72.0,-23.0,6.241
50.0,-25.0,6.242
33.0,-23.0,6.243
33.0,-15.0,6.244
27.0,-10.0,6.245
4.0,-9.0,6.246
-15.0,-12.0,6.247
-16.0,-13.0,6.248
-3.0,-15.0,6.249
22.0,-19.0,6.25
56.0,-24.0,6.251
87.0,-25.0,6.252
94.0,-22.0,6.253
84.0,-14.0,6.254
77.0,-6.0,6.255
67.0,-2.0,6.256
43.0,0.0,6.257
13.0,-5.0,6.258
1.0,-9.0,6.259
6.0,-11.0,6.26
10.0,-11.0,6.261
12.0,-8.0,6.262
34.0,-3.0,6.263
86.0,0.0,6.264
153.0,10.0,6.265
201.0,31.0,6.266
200.0,57.0,6.267
144.0,70.0,6.268
68.0,65.0,6.269
9.0,57.0,6.27
-33.0,57.0,6.271
-76.0,54.0,6.272
-117.0,39.0,6.273
-122.0,20.0,6.274
-91.0,6.0,6.275
-53.0,-1.0,6.276
-24.0,-9.0,6.277
5.0,-20.0,6.278
41.0,-22.0,6.279
61.0,-20.0,6.28
52.0,-25.0,6.281
33.0,-33.0,6.282
16.0,-37.0,6.283
-5.0,-33.0,6.284
-37.0,-25.0,6.285
-62.0,-13.0,6.286
-66.0,1.0,6.287
-56.0,13.0,6.288
-44.0,17.0,6.289
-37.0,8.0,6.29
-32.0,-7.0,6.291
-45.0,-19.0,6.292
-90.0,-24.0,6.293
-145.0,-23.0,6.294
-174.0,-20.0,6.295
-158.0,-18.0,6.296
-116.0,-18.0,6.297
-72.0,-20.0,6.298
-40.0,-16.0,6.299
-23.0,-12.0,6.3
-30.0,-10.0,6.301
-67.0,-9.0,6.302
-117.0,-9.0,6.303
-158.0,-8.0,6.304
-185.0,-3.0,6.305
-209.0,-2.0,6.306
-229.0,-16.0,6.307
-240.0,-26.0,6.308
-241.0,-19.0,6.309
-231.0,-10.0,6.31
-208.0,2.0,6.311
-154.0,11.0,6.312
-70.0,5.0,6.313
34.0,5.0,6.314
141.0,25.0,6.315
242.0,47.0,6.316
316.0,78.0,6.317
348.0,100.0,6.318
330.0,61.0,6.319
278.0,-27.0,6.32
220.0,-115.0,6.321
180.0,-156.0,6.322
176.0,-149.0,6.323
199.0,-114.0,6.324
215.0,-57.0,6.325
206.0,8.0,6.326
202.0,53.0,6.327
230.0,67.0,6.328
274.0,78.0,6.329
294.0,104.0,6.33
305.0,131.0,6.331
350.0,143.0,6.332
431.0,151.0,6.333
501.0,143.0,6.334
534.0,87.0,6.335
550.0,-33.0,6.336
574.0,-166.0,6.337
601.0,-275.0,6.338
618.0,-326.0,6.339
610.0,-309.0,6.34
574.0,-237.0,6.341
524.0,-147.0,6.342
495.0,-95.0,6.343
502.0,-85.0,6.344
492.0,-69.0,6.345
380.0,-19.0,6.346
144.0,29.0,6.347
-109.0,22.0,6.348
-233.0,-49.0,6.349
-180.0,-136.0,6.35
-51.0,-170.0,6.351
29.0,-120.0,6.352
41.0,-30.0,6.353
55.0,27.0,6.354
91.0,36.0,6.355
75.0,48.0,6.356
-26.0,88.0,6.357
-162.0,114.0,6.358
-223.0,93.0,6.359
-232.0,52.0,6.36
-307.0,43.0,6.361
-470.0,56.0,6.362
-597.0,58.0,6.363
-614.0,57.0,6.364
-628.0,75.0,6.365
-750.0,97.0,6.366
-889.0,103.0,6.367
-895.0,110.0,6.368
-802.0,141.0,6.369
-772.0,175.0,6.37
-826.0,172.0,6.371
-821.0,142.0,6.372
-708.0,119.0,6.373
-610.0,113.0,6.374
-602.0,107.0,6.375
-613.0,96.0,6.376
-581.0,94.0,6.377
-545.0,97.0,6.378
-529.0,112.0,6.379
-451.0,144.0,6.38
-259.0,228.0,6.381
-51.0,296.0,6.382
68.0,318.0,6.383
140.0,292.0,6.384
246.0,116.0,6.385
363.0,-50.0,6.386
426.0,-186.0,6.387
448.0,-296.0,6.388
472.0,-331.0,6.389
489.0,-335.0,6.39
476.0,-241.0,6.391
454.0,-150.0,6.392
453.0,-67.0,6.393
456.0,11.0,6.394
436.0,73.0,6.395
383.0,133.0,6.396
292.0,182.0,6.397
158.0,220.0,6.398
50.0,215.0,6.399
-16.0,191.0,6.4
44.0,133.0,6.401
106.0,34.0,6.402
175.0,-89.0,6.403
243.0,-198.0,6.404
309.0,-254.0,6.405
342.0,-232.0,6.406
270.0,-147.0,6.407
187.0,-50.0,6.408
76.0,0.0,6.409
-28.0,-13.0,6.41
-115.0,-57.0,6.411
-187.0,-82.0,6.412
-212.0,-84.0,6.413
-227.0,-87.0,6.414
-209.0,-98.0,6.415
-196.0,-75.0,6.416
-203.0,8.0,6.417
-213.0,129.0,6.418
-212.0,212.0,6.419
-181.0,243.0,6.42
-176.0,115.0,6.421
-224.0,-5.0,6.422
-274.0,-105.0,6.423
-285.0,-192.0,6.424
-287.0,-243.0,6.425
-316.0,-286.0,6.426
-345.0,-304.0,6.427
-341.0,-312.0,6.428
-328.0,-285.0,6.429
-338.0,-231.0,6.43
-351.0,-96.0,6.431
-332.0,52.0,6.432
-284.0,236.0,6.433
-220.0,377.0,6.434
-130.0,392.0,6.435
1.0,372.0,6.436
147.0,246.0,6.437
291.0,108.0,6.438
399.0,-55.0,6.439
439.0,-195.0,6.44
410.0,-331.0,6.441
338.0,-464.0,6.442
248.0,-553.0,6.443
136.0,-552.0,6.444
-11.0,-463.0,6.445
-168.0,-314.0,6.446
-277.0,-138.0,6.447
-305.0,35.0,6.448
-270.0,185.0,6.449
-216.0,295.0,6.45
-184.0,350.0,6.451
-180.0,352.0,6.452
-183.0,333.0,6.453
-158.0,336.0,6.454
-87.0,356.0,6.455
19.0,350.0,6.456
94.0,309.0,6.457
52.0,294.0,6.458
-81.0,390.0,6.459
-163.0,557.0,6.46
-85.0,612.0,6.461
-5.0,449.0,6.462
83.0,181.0,6.463
143.0,26.0,6.464
113.0,-4.0,6.465
109.0,-129.0,6.466
183.0,-477.0,6.467
239.0,-873.0,6.468
237.0,-1077.0,6.469
257.0,-1080.0,6.47
342.0,-1029.0,6.471
420.0,-963.0,6.472
474.0,-808.0,6.473
565.0,-557.0,6.474
761.0,-292.0,6.475
892.0,-59.0,6.476
830.0,156.0,6.477
751.0,384.0,6.478
619.0,600.0,6.479
460.0,791.0,6.48
255.0,903.0,6.481
71.0,960.0,6.482
-54.0,850.0,6.483
-160.0,767.0,6.484
-265.0,768.0,6.485
-307.0,732.0,6.486
-263.0,583.0,6.487
-199.0,358.0,6.488
-156.0,-91.0,6.489
-69.0,-495.0,6.49
104.0,-759.0,6.491
285.0,-972.0,6.492
377.0,-1029.0,6.493
408.0,-1021.0,6.494
476.0,-817.0,6.495
590.0,-610.0,6.496
657.0,-395.0,6.497
626.0,-183.0,6.498
513.0,24.0,6.499
338.0,239.0,6.5
103.0,392.0,6.501
-149.0,455.0,6.502
-324.0,470.0,6.503
-375.0,488.0,6.504
-352.0,514.0,6.505
-316.0,533.0,6.506
-288.0,552.0,6.507
-274.0,583.0,6.508
-287.0,598.0,6.509
-300.0,551.0,6.51
-255.0,409.0,6.511
-155.0,159.0,6.512
-88.0,-190.0,6.513
-117.0,-584.0,6.514
-225.0,-917.0,6.515
-359.0,-1078.0,6.516
-470.0,-1041.0,6.517
-516.0,-859.0,6.518
-456.0,-641.0,6.519
-336.0,-448.0,6.52
-272.0,-230.0,6.521
-309.0,121.0,6.522
-382.0,569.0,6.523
-423.0,889.0,6.524
-448.0,859.0,6.525
-515.0,519.0,6.526
-641.0,129.0,6.527
-768.0,-119.0,6.528
-795.0,-251.0,6.529
-668.0,-356.0,6.53
-455.0,-446.0,6.531
-297.0,-502.0,6.532
-250.0,-553.0,6.533
-253.0,-607.0,6.534
-236.0,-576.0,6.535
-184.0,-376.0,6.536
-103.0,-73.0,6.537
-16.0,234.0,6.538
20.0,462.0,6.539
32.0,624.0,6.54
-28.0,739.0,6.541
-51.0,768.0,6.542
42.0,655.0,6.543
104.0,423.0,6.544
73.0,168.0,6.545
47.0,-37.0,6.546
35.0,-183.0,6.547
55.0,-276.0,6.548
171.0,-305.0,6.549
310.0,-290.0,6.55
519.0,-282.0,6.551
691.0,-249.0,6.552
751.0,-52.0,6.553
802.0,354.0,6.554
827.0,752.0,6.555
845.0,829.0,6.556
840.0,552.0,6.557
822.0,123.0,6.558
778.0,-188.0,6.559
760.0,-343.0,6.56
751.0,-456.0,6.561
681.0,-561.0,6.562
537.0,-613.0,6.563
418.0,-601.0,6.564
448.0,-520.0,6.565
611.0,-326.0,6.566
736.0,-26.0,6.567
686.0,238.0,6.568
524.0,361.0,6.569
402.0,451.0,6.57
352.0,659.0,6.571
296.0,875.0,6.572
210.0,821.0,6.573
147.0,440.0,6.574
109.0,-2.0,6.575
28.0,-277.0,6.576
-97.0,-410.0,6.577
-256.0,-518.0,6.578
-403.0,-524.0,6.579
-592.0,-305.0,6.58
-814.0,48.0,6.581
-991.0,282.0,6.582
-1080.0,287.0,6.583
-1118.0,203.0,6.584
-1154.0,159.0,6.585
-1198.0,107.0,6.586
-1231.0,-42.0,6.587
-1220.0,-247.0,6.588
-1143.0,-408.0,6.589
-1015.0,-509.0,6.59
-885.0,-562.0,6.591
-780.0,-499.0,6.592
-686.0,-260.0,6.593
-580.0,64.0,6.594
-440.0,290.0,6.595
-265.0,323.0,6.596
-134.0,227.0,6.597
-177.0,91.0,6.598
-415.0,-1.0,6.599
-629.0,-28.0,6.6
-634.0,-26.0,6.601
-629.0,-28.0,6.602
-912.0,-24.0,6.603
-1304.0,33.0,6.604
-1281.0,137.0,6.605
-768.0,218.0,6.606
-292.0,247.0,6.607
-182.0,279.0,6.608
-145.0,332.0,6.609
126.0,330.0,6.61
446.0,205.0,6.611
577.0,24.0,6.612
657.0,-89.0,6.613
850.0,-108.0,6.614
1007.0,-107.0,6.615
1009.0,-141.0,6.616
1025.0,-180.0,6.617
1187.0,-191.0,6.618
1333.0,-165.0,6.619
1313.0,-117.0,6.62
1255.0,-59.0,6.621
1275.0,11.0,6.622
1259.0,90.0,6.623
1128.0,170.0,6.624
1009.0,232.0,6.625
975.0,240.0,6.626
916.0,178.0,6.627
780.0,81.0,6.628
674.0,4.0,6.629
647.0,-27.0,6.63
607.0,-26.0,6.631
523.0,-14.0,6.632
469.0,8.0,6.633
457.0,58.0,6.634
409.0,131.0,6.635
322.0,183.0,6.636
268.0,154.0,6.637
235.0,7.0,6.638
166.0,-195.0,6.639
61.0,-336.0,6.64
-15.0,-358.0,6.641
-71.0,-299.0,6.642
-154.0,-242.0,6.643
-247.0,-219.0,6.644
-295.0,-204.0,6.645
-311.0,-163.0,6.646
-340.0,-96.0,6.647
-370.0,-29.0,6.648
-359.0,13.0,6.649
-316.0,27.0,6.65
-265.0,37.0,6.651
-199.0,60.0,6.652
-125.0,86.0,6.653
-83.0,97.0,6.654
-89.0,93.0,6.655
-97.0,90.0,6.656
-76.0,91.0,6.657
-58.0,83.0,6.658
-72.0,65.0,6.659
-100.0,51.0,6.66
-124.0,45.0,6.661
-163.0,41.0,6.662
-219.0,32.0,6.663
-258.0,24.0,6.664
-263.0,20.0,6.665
-267.0,16.0,6.666
-289.0,10.0,6.667
-308.0,8.0,6.668
-305.0,6.0,6.669
-287.0,2.0,6.67
-258.0,-3.0,6.671
-210.0,-5.0,6.672
-154.0,-4.0,6.673
-106.0,-2.0,6.674
-59.0,-5.0,6.675
2.0,-8.0,6.676
56.0,-9.0,6.677
74.0,-9.0,6.678
59.0,-7.0,6.679
21.0,-5.0,6.68
-63.0,-11.0,6.681
-202.0,-19.0,6.682
-321.0,-25.0,6.683
-334.0,-21.0,6.684
-269.0,-12.0,6.685
-220.0,-6.0,6.686
-190.0,-7.0,6.687
-108.0,-10.0,6.688
17.0,-9.0,6.689
82.0,-6.0,6.69
52.0,-5.0,6.691
16.0,-5.0,6.692
49.0,-5.0,6.693
112.0,-4.0,6.694
152.0,-5.0,6.695
185.0,-8.0,6.696
240.0,-8.0,6.697
295.0,-7.0,6.698
296.0,-1.0,6.699
250.0,4.0,6.7
201.0,9.0,6.701
157.0,11.0,6.702
88.0,5.0,6.703
-26.0,0.0,6.704
-182.0,-5.0,6.705
-345.0,-10.0,6.706
-475.0,-11.0,6.707
-541.0,-13.0,6.708
-546.0,-15.0,6.709
-508.0,-12.0,6.71
-441.0,9.0,6.711
-352.0,28.0,6.712
-263.0,34.0,6.713
-189.0,38.0,6.714
-118.0,28.0,6.715
-45.0,20.0,6.716
21.0,18.0,6.717
85.0,14.0,6.718
170.0,11.0,6.719
281.0,10.0,6.72
379.0,7.0,6.721
410.0,-2.0,6.722
382.0,-13.0,6.723
339.0,-16.0,6.724
300.0,-10.0,6.725
250.0,-7.0,6.726
188.0,-10.0,6.727
127.0,-16.0,6.728
70.0,-19.0,6.729
14.0,-22.0,6.73
-22.0,-25.0,6.731
-16.0,-26.0,6.732
12.0,-23.0,6.733
20.0,-18.0,6.734
-12.0,-11.0,6.735
-64.0,-6.0,6.736
-123.0,-7.0,6.737
-188.0,-14.0,6.738
-227.0,-21.0,6.739
-213.0,-19.0,6.74
-169.0,-19.0,6.741
-146.0,-20.0,6.742
-152.0,-17.0,6.743
-158.0,-7.0,6.744
-155.0,-3.0,6.745
-155.0,-13.0,6.746
-156.0,-25.0,6.747
-132.0,-21.0,6.748
-84.0,-5.0,6.749
-29.0,2.0,6.75
32.0,-3.0,6.751
111.0,-5.0,6.752
178.0,12.0,6.753
197.0,38.0,6.754
180.0,54.0,6.755
179.0,61.0,6.756
205.0,66.0,6.757
234.0,68.0,6.758
244.0,52.0,6.759
241.0,15.0,6.76
230.0,-15.0,6.761
204.0,0.0,6.762
174.0,46.0,6.763
159.0,68.0,6.764
147.0,32.0,6.765
129.0,-29.0,6.766
138.0,-72.0,6.767
206.0,-93.0,6.768
301.0,-111.0,6.769
362.0,-125.0,6.77
392.0,-116.0,6.771
431.0,-75.0,6.772
463.0,-23.0,6.773
426.0,-3.0,6.774
311.0,-36.0,6.775
187.0,-93.0,6.776
109.0,-121.0,6.777
55.0,113.0,6.778
7.0,98.0,6.779
-23.0,85.0,6.78
-19.0,73.0,6.781
7.0,67.0,6.782
30.0,80.0,6.783
49.0,86.0,6.784
56.0,72.0,6.785
15.0,71.0,6.786
-91.0,111.0,6.787
-218.0,155.0,6.788
-283.0,209.0,6.789
-259.0,256.0,6.79
-214.0,288.0,6.791
-213.0,285.0,6.792
-230.0,180.0,6.793
-199.0,66.0,6.794
-122.0,-73.0,6.795
-69.0,-190.0,6.796
-63.0,-236.0,6.797
-66.0,116.0,6.798
-48.0,100.0,6.799
-30.0,84.0,6.8
-10.0,71.0,6.801
13.0,64.0,6.802
43.0,78.0,6.803
63.0,85.0,6.804
50.0,69.0,6.805
32.0,68.0,6.806
1.0,114.0,6.807
-25.0,164.0,6.808
-38.0,224.0,6.809
-50.0,277.0,6.81
-55.0,313.0,6.811
-63.0,310.0,6.812
-77.0,192.0,6.813
-54.0,63.0,6.814
84.0,-94.0,6.815
191.0,-225.0,6.816
201.0,-277.0,6.817
166.0,-307.0,6.818
-26.0,-251.0,6.819
-203.0,-179.0,6.82
-346.0,-121.0,6.821
-439.0,-64.0,6.822
-413.0,-2.0,6.823
-292.0,53.0,6.824
-229.0,82.0,6.825
-287.0,90.0,6.826
-338.0,88.0,6.827
-296.0,91.0,6.828
-278.0,91.0,6.829
-370.0,91.0,6.83
-445.0,121.0,6.831
-362.0,199.0,6.832
-206.0,287.0,6.833
-138.0,310.0,6.834
-129.0,237.0,6.835
-74.0,123.0,6.836
8.0,35.0,6.837
31.0,-45.0,6.838
2.0,-146.0,6.839
-6.0,-243.0,6.84
1.0,-282.0,6.841
-50.0,-247.0,6.842
-160.0,-184.0,6.843
-256.0,-118.0,6.844
-280.0,-24.0,6.845
-234.0,98.0,6.846
-147.0,192.0,6.847
-63.0,198.0,6.848
-14.0,126.0,6.849
4.0,38.0,6.85
24.0,-21.0,6.851
46.0,-60.0,6.852
