Deltoid,Bicep,Time
9,2,0.0
11,1,0.001
6,4,0.002
2,7,0.003
4,6,0.004
6,0,0.005
4,-1,0.006
2,0,0.007
3,0,0.008
5,-1,0.009
2,-3,0.01
0,-3,0.011
3,-3,0.012
9,-3,0.013
9,-5,0.014
4,-5,0.015
-1,-6,0.016
-5,-6,0.017
-4,-5,0.018
3,-3,0.019
12,0,0.02
11,5,0.021
4,9,0.022
1,1,0.023
4,-5,0.024
3,-4,0.025
-3,-2,0.026
-7,1,0.027
-4,3,0.028
3,1,0.029
6,0,0.03
3,0,0.031
1,-1,0.032
1,0,0.033
-1,0,0.034
0,0,0.035
0,-2,0.036
-1,-6,0.037
-2,-7,0.038
3,-6,0.039
11,-2,0.04
13,0,0.041
5,1,0.042
-1,1,0.043
0,2,0.044
5,2,0.045
7,0,0.046
5,-3,0.047
5,-4,0.048
5,-2,0.049
4,0,0.05
0,1,0.051
-2,1,0.052
-2,4,0.053
0,6,0.054
0,1,0.055
-3,-2,0.056
-7,-5,0.057
-7,-1,0.058
-2,1,0.059
5,1,0.06
5,0,0.061
1,0,0.062
3,0,0.063
11,0,0.064
12,1,0.065
7,2,0.066
1,2,0.067
1,-1,0.068
1,-3,0.069
1,-4,0.07
1,-3,0.071
5,-2,0.072
7,1,0.073
3,0,0.074
-1,0,0.075
-5,0,0.076
-3,-2,0.077
-1,-3,0.078
4,-1,0.079
9,0,0.08
7,0,0.081
6,0,0.082
4,0,0.083
3,0,0.084
1,1,0.085
0,1,0.086
0,1,0.087
1,1,0.088
5,0,0.089
7,-1,0.09
5,0,0.091
3,0,0.092
3,0,0.093
3,-1,0.094
1,-1,0.095
-1,-2,0.096
-2,-5,0.097
-1,-7,0.098
3,-4,0.099
9,-1,0.1
7,-1,0.101
0,0,0.102
-2,1,0.103
1,2,0.104
4,3,0.105
1,4,0.106
-2,4,0.107
-1,4,0.108
2,0,0.109
3,-3,0.11
0,-2,0.111
0,-1,0.112
1,-1,0.113
1,-1,0.114
1,-2,0.115
-2,-2,0.116
-6,-8,0.117
-7,-8,0.118
-3,-6,0.119
3,-2,0.12
5,-1,0.121
3,0,0.122
5,1,0.123
12,3,0.124
16,1,0.125
14,-1,0.126
13,0,0.127
15,3,0.128
15,2,0.129
8,0,0.13
-1,0,0.131
-5,3,0.132
-2,6,0.133
0,3,0.134
0,-1,0.135
-4,-2,0.136
-9,-2,0.137
-8,0,0.138
-2,0,0.139
5,0,0.14
6,0,0.141
0,1,0.142
-6,0,0.143
-3,-2,0.144
2,-2,0.145
8,-1,0.146
14,0,0.147
19,0,0.148
19,1,0.149
13,-1,0.15
7,-5,0.151
1,-6,0.152
-4,0,0.153
-12,3,0.154
-13,1,0.155
-7,-5,0.156
-3,-9,0.157
-2,-7,0.158
2,-5,0.159
8,-3,0.16
8,-1,0.161
2,4,0.162
-3,3,0.163
-3,-1,0.164
-3,-4,0.165
-2,-3,0.166
0,0,0.167
8,2,0.168
13,2,0.169
14,3,0.17
9,2,0.171
2,0,0.172
-1,0,0.173
-2,0,0.174
-2,1,0.175
-5,2,0.176
-8,-2,0.177
-10,-5,0.178
-8,-4,0.179
-6,0,0.18
-11,3,0.181
-20,3,0.182
-24,0,0.183
-20,0,0.184
-14,3,0.185
-4,4,0.186
8,2,0.187
27,0,0.188
45,1,0.189
54,2,0.19
56,-2,0.191
50,-8,0.192
41,-7,0.193
27,-3,0.194
12,0,0.195
1,-3,0.196
-3,-7,0.197
-6,-6,0.198
-5,-1,0.199
0,2,0.2
4,4,0.201
4,5,0.202
-1,4,0.203
-6,-1,0.204
-11,-3,0.205
-14,-2,0.206
-13,0,0.207
-9,2,0.208
-6,2,0.209
-8,4,0.21
-10,3,0.211
-10,1,0.212
-7,1,0.213
-6,-1,0.214
-7,-1,0.215
-10,-3,0.216
-10,-8,0.217
-8,-7,0.218
-2,-3,0.219
5,1,0.22
7,2,0.221
1,4,0.222
-2,4,0.223
1,1,0.224
6,-1,0.225
4,-3,0.226
1,-4,0.227
5,-1,0.228
13,1,0.229
14,3,0.23
10,2,0.231
8,0,0.232
9,0,0.233
5,-2,0.234
0,-2,0.235
-4,-2,0.236
-4,-3,0.237
-1,-5,0.238
7,-5,0.239
12,-4,0.24
9,-1,0.241
5,1,0.242
3,1,0.243
1,0,0.244
3,0,0.245
5,0,0.246
3,1,0.247
2,2,0.248
1,2,0.249
0,1,0.25
-1,0,0.251
-3,-1,0.252
-3,0,0.253
-3,3,0.254
-8,3,0.255
-14,0,0.256
-18,-5,0.257
-21,-5,0.258
-15,-2,0.259
0,0,0.26
10,0,0.261
10,2,0.262
11,3,0.263
18,1,0.264
28,1,0.265
29,0,0.266
23,1,0.267
18,1,0.268
16,1,0.269
12,1,0.27
9,0,0.271
5,-2,0.272
0,0,0.273
-6,2,0.274
-7,2,0.275
-3,0,0.276
1,-4,0.277
5,-3,0.278
10,-2,0.279
15,-2,0.28
10,-3,0.281
-1,-2,0.282
-5,0,0.283
-3,0,0.284
-2,1,0.285
-2,2,0.286
2,1,0.287
9,-2,0.288
7,-3,0.289
-2,0,0.29
-6,1,0.291
-2,0,0.292
3,1,0.293
1,-1,0.294
-3,-4,0.295
-8,-6,0.296
-15,-7,0.297
-19,-5,0.298
-15,-4,0.299
-4,-4,0.3
1,0,0.301
-4,5,0.302
-8,5,0.303
-6,1,0.304
0,-2,0.305
3,0,0.306
7,1,0.307
12,-3,0.308
11,-3,0.309
-1,1,0.31
-13,4,0.311
-14,1,0.312
-1,-1,0.313
13,0,0.314
20,0,0.315
8,-2,0.316
-10,-8,0.317
-18,-7,0.318
-5,-2,0.319
12,2,0.32
18,4,0.321
13,6,0.322
16,5,0.323
26,3,0.324
36,1,0.325
34,3,0.326
25,4,0.327
12,-1,0.328
1,-5,0.329
-3,-5,0.33
-7,-4,0.331
-20,-3,0.332
-39,-2,0.333
-49,-2,0.334
-40,-2,0.335
-25,-1,0.336
-19,-3,0.337
-10,-5,0.338
18,-3,0.339
51,0,0.34
66,2,0.341
58,4,0.342
47,2,0.343
40,0,0.344
26,1,0.345
6,2,0.346
-10,3,0.347
-19,4,0.348
-31,2,0.349
-53,0,0.35
-72,-2,0.351
-76,-4,0.352
-60,-2,0.353
-25,0,0.354
22,-1,0.355
64,-5,0.356
91,-9,0.357
100,-8,0.358
93,-5,0.359
72,-4,0.36
40,-2,0.361
10,0,0.362
-14,-1,0.363
-30,-5,0.364
-37,-7,0.365
-32,-7,0.366
-25,-5,0.367
-25,-2,0.368
-28,2,0.369
-21,4,0.37
-12,2,0.371
-13,0,0.372
-20,1,0.373
-18,3,0.374
-3,1,0.375
6,-1,0.376
10,-6,0.377
17,-6,0.378
28,-3,0.379
28,1,0.38
16,6,0.381
5,8,0.382
0,3,0.383
-7,-1,0.384
-13,-1,0.385
0,3,0.386
23,4,0.387
30,1,0.388
14,1,0.389
-7,4,0.39
-13,3,0.391
-13,-1,0.392
-13,-1,0.393
-13,1,0.394
-12,0,0.395
-12,-3,0.396
-13,-6,0.397
-8,-2,0.398
1,1,0.399
7,-1,0.4
2,-2,0.401
-6,0,0.402
-10,1,0.403
-6,-1,0.404
0,-2,0.405
2,-1,0.406
0,1,0.407
-3,2,0.408
-1,1,0.409
4,-1,0.41
8,-2,0.411
11,-1,0.412
14,1,0.413
12,0,0.414
9,-1,0.415
5,-3,0.416
5,-4,0.417
8,-4,0.418
11,-2,0.419
13,0,0.42
10,2,0.421
4,5,0.422
1,5,0.423
4,3,0.424
10,1,0.425
7,0,0.426
0,0,0.427
1,-1,0.428
5,-1,0.429
5,-2,0.43
1,-4,0.431
2,-6,0.432
8,-4,0.433
7,-3,0.434
0,-5,0.435
-3,-5,0.436
1,-4,0.437
4,-2,0.438
2,0,0.439
-2,2,0.44
-4,3,0.441
-4,2,0.442
-4,1,0.443
-4,1,0.444
-3,2,0.445
-2,1,0.446
0,0,0.447
5,0,0.448
11,2,0.449
9,1,0.45
6,-1,0.451
10,-2,0.452
18,0,0.453
21,-1,0.454
22,-3,0.455
19,-4,0.456
14,-7,0.457
6,-4,0.458
2,2,0.459
5,4,0.46
5,4,0.461
-2,1,0.462
-7,2,0.463
-3,2,0.464
-1,0,0.465
-6,-2,0.466
-13,1,0.467
-11,4,0.468
-4,4,0.469
-3,2,0.47
-4,1,0.471
-3,2,0.472
0,1,0.473
0,-2,0.474
0,-1,0.475
0,0,0.476
0,-4,0.477
-1,-9,0.478
1,-9,0.479
6,-5,0.48
5,0,0.481
-3,3,0.482
-9,2,0.483
-5,0,0.484
3,-3,0.485
7,-3,0.486
9,-1,0.487
13,-2,0.488
18,-3,0.489
18,-3,0.49
14,-2,0.491
10,-1,0.492
9,-1,0.493
6,-3,0.494
5,-1,0.495
0,0,0.496
-7,-1,0.497
-11,-2,0.498
-5,-2,0.499
4,0,0.5
4,3,0.501
-7,5,0.502
-15,2,0.503
-14,-1,0.504
-11,-1,0.505
-14,-1,0.506
-17,-1,0.507
-12,-1,0.508
-5,-1,0.509
0,0,0.51
4,0,0.511
8,0,0.512
16,2,0.513
23,3,0.514
29,0,0.515
28,-2,0.516
22,-2,0.517
19,1,0.518
22,3,0.519
24,2,0.52
17,1,0.521
3,1,0.522
-4,2,0.523
-2,3,0.524
1,4,0.525
1,1,0.526
-2,-2,0.527
-4,-2,0.528
-5,0,0.529
-6,0,0.53
-3,1,0.531
0,1,0.532
0,0,0.533
-6,-3,0.534
-11,-6,0.535
-13,-5,0.536
-12,-6,0.537
-9,-6,0.538
-3,-6,0.539
3,-3,0.54
1,4,0.541
-3,5,0.542
-7,0,0.543
-4,-6,0.544
-3,-4,0.545
-4,0,0.546
-4,-1,0.547
2,-2,0.548
11,-1,0.549
9,0,0.55
-8,-3,0.551
-35,-5,0.552
-59,-2,0.553
-69,2,0.554
-54,3,0.555
-21,1,0.556
17,-5,0.557
56,-5,0.558
89,0,0.559
109,4,0.56
105,7,0.561
84,6,0.562
63,1,0.563
46,-3,0.564
23,-4,0.565
-3,-1,0.566
-11,4,0.567
-4,5,0.568
0,2,0.569
-8,0,0.57
-14,0,0.571
-9,-2,0.572
-1,-3,0.573
-2,-5,0.574
-6,-4,0.575
-12,-3,0.576
-19,-6,0.577
-24,-6,0.578
-21,-4,0.579
-16,0,0.58
-16,2,0.581
-22,2,0.582
-23,1,0.583
-18,0,0.584
-14,0,0.585
-16,0,0.586
-13,-1,0.587
-4,-3,0.588
5,-3,0.589
7,-1,0.59
5,1,0.591
0,2,0.592
-4,5,0.593
-9,2,0.594
-4,-2,0.595
-1,-5,0.596
-7,-7,0.597
-12,-4,0.598
0,-1,0.599
16,1,0.6
20,3,0.601
11,5,0.602
10,4,0.603
20,2,0.604
21,3,0.605
14,5,0.606
11,3,0.607
19,0,0.608
21,0,0.609
11,3,0.61
-1,1,0.611
-4,-4,0.612
-1,-4,0.613
-3,-1,0.614
-5,-2,0.615
-8,-5,0.616
-12,-9,0.617
-15,-7,0.618
-9,-3,0.619
9,-3,0.62
22,-1,0.621
23,2,0.622
23,3,0.623
30,-1,0.624
42,-3,0.625
41,-2,0.626
29,-2,0.627
12,-4,0.628
-1,-3,0.629
-8,-1,0.63
-10,-2,0.631
-10,-5,0.632
-11,-5,0.633
-13,-2,0.634
-12,-2,0.635
-10,-4,0.636
-11,-5,0.637
-14,-1,0.638
-11,0,0.639
0,-1,0.64
10,0,0.641
16,6,0.642
15,8,0.643
11,6,0.644
2,5,0.645
-4,6,0.646
-5,7,0.647
-5,7,0.648
-13,8,0.649
-29,10,0.65
-43,5,0.651
-44,-2,0.652
-33,-3,0.653
-17,-1,0.654
-1,-1,0.655
10,-4,0.656
18,-7,0.657
28,-4,0.658
40,-1,0.659
47,2,0.66
43,4,0.661
34,5,0.662
24,1,0.663
16,-3,0.664
7,-2,0.665
2,0,0.666
4,0,0.667
7,-3,0.668
6,-5,0.669
-1,-2,0.67
-7,2,0.671
-10,3,0.672
-10,2,0.673
-12,-4,0.674
-10,-6,0.675
-6,-8,0.676
-1,-8,0.677
3,-5,0.678
9,-3,0.679
15,-2,0.68
18,-3,0.681
12,-2,0.682
3,0,0.683
-1,0,0.684
1,-2,0.685
0,-2,0.686
-3,-3,0.687
-5,-2,0.688
-2,-2,0.689
-1,-3,0.69
-3,-3,0.691
-6,-1,0.692
-3,2,0.693
-1,2,0.694
0,-1,0.695
-1,-3,0.696
-1,-5,0.697
0,-3,0.698
0,-2,0.699
3,0,0.7
4,3,0.701
1,7,0.702
-1,3,0.703
0,-2,0.704
3,-3,0.705
3,0,0.706
0,0,0.707
-2,-1,0.708
-1,0,0.709
0,2,0.71
2,1,0.711
6,0,0.712
8,-1,0.713
4,0,0.714
1,0,0.715
3,-2,0.716
8,-4,0.717
10,-2,0.718
7,0,0.719
6,3,0.72
7,5,0.721
7,5,0.722
6,3,0.723
5,1,0.724
7,2,0.725
8,1,0.726
7,-1,0.727
7,-3,0.728
5,-2,0.729
1,0,0.73
-3,-1,0.731
-7,-2,0.732
-7,0,0.733
-4,0,0.734
1,-1,0.735
5,-3,0.736
11,-6,0.737
18,-4,0.738
26,-1,0.739
27,1,0.74
20,3,0.741
11,3,0.742
6,0,0.743
6,-5,0.744
3,-5,0.745
-2,-1,0.746
-5,1,0.747
-9,0,0.748
-15,-2,0.749
-19,-2,0.75
-18,-2,0.751
-12,-4,0.752
-3,-2,0.753
-3,-1,0.754
-2,0,0.755
-5,-2,0.756
-8,-6,0.757
-8,-3,0.758
-2,0,0.759
3,3,0.76
3,3,0.761
3,3,0.762
9,0,0.763
12,-4,0.764
1,-2,0.765
-14,2,0.766
-19,2,0.767
-10,-2,0.768
1,-5,0.769
9,-4,0.77
14,0,0.771
20,0,0.772
25,0,0.773
21,-3,0.774
12,-5,0.775
-5,-5,0.776
-33,-6,0.777
-60,-5,0.778
-65,-3,0.779
-37,-1,0.78
1,5,0.781
27,9,0.782
47,4,0.783
72,-2,0.784
90,-1,0.785
87,4,0.786
71,7,0.787
54,3,0.788
34,0,0.789
4,0,0.79
-13,0,0.791
-6,-2,0.792
3,-1,0.793
-7,0,0.794
-26,-1,0.795
-34,-3,0.796
-28,-6,0.797
-26,-6,0.798
-22,-6,0.799
-14,-4,0.8
-5,-3,0.801
-8,0,0.802
-17,-1,0.803
-16,-3,0.804
-13,-1,0.805
-8,1,0.806
-2,0,0.807
6,-4,0.808
10,-5,0.809
8,0,0.81
4,3,0.811
4,3,0.812
7,2,0.813
6,1,0.814
0,3,0.815
-9,1,0.816
-17,-3,0.817
-17,-5,0.818
-5,-3,0.819
6,0,0.82
8,4,0.821
1,5,0.822
0,3,0.823
2,0,0.824
2,0,0.825
0,-1,0.826
2,-1,0.827
7,-2,0.828
9,-2,0.829
10,-1,0.83
9,-1,0.831
9,-1,0.832
7,1,0.833
3,0,0.834
1,-3,0.835
-1,-5,0.836
-2,-8,0.837
-2,-7,0.838
3,-5,0.839
9,-4,0.84
8,0,0.841
3,1,0.842
4,2,0.843
10,0,0.844
11,-1,0.845
5,0,0.846
2,1,0.847
5,-2,0.848
8,-3,0.849
5,-3,0.85
1,-1,0.851
1,1,0.852
2,2,0.853
-3,1,0.854
-6,0,0.855
-7,-2,0.856
-2,-6,0.857
5,-7,0.858
16,-3,0.859
28,-1,0.86
30,1,0.861
19,0,0.862
10,0,0.863
8,0,0.864
10,2,0.865
7,2,0.866
7,0,0.867
9,0,0.868
5,1,0.869
-4,3,0.87
-13,1,0.871
-12,0,0.872
-10,1,0.873
-16,-1,0.874
-23,-1,0.875
-25,0,0.876
-18,-2,0.877
-9,-5,0.878
1,-6,0.879
9,-3,0.88
11,5,0.881
8,9,0.882
10,5,0.883
17,0,0.884
18,-2,0.885
10,-1,0.886
5,0,0.887
14,2,0.888
26,5,0.889
28,2,0.89
21,-3,0.891
13,-5,0.892
7,-1,0.893
1,0,0.894
-3,0,0.895
-10,-4,0.896
-15,-8,0.897
-17,-4,0.898
-10,-1,0.899
0,0,0.9
0,0,0.901
-4,1,0.902
-7,1,0.903
-4,0,0.904
-4,-1,0.905
-6,1,0.906
-7,1,0.907
-3,0,0.908
-1,0,0.909
0,3,0.91
0,4,0.911
4,-1,0.912
7,-5,0.913
4,-7,0.914
3,-5,0.915
1,-3,0.916
0,-6,0.917
-1,-6,0.918
6,-6,0.919
12,-5,0.92
12,-1,0.921
12,4,0.922
11,7,0.923
9,4,0.924
5,-1,0.925
2,-2,0.926
2,-1,0.927
3,0,0.928
3,0,0.929
3,2,0.93
2,3,0.931
1,0,0.932
3,-2,0.933
2,-2,0.934
-7,-1,0.935
-14,-2,0.936
-15,-7,0.937
-12,-8,0.938
-5,-4,0.939
2,0,0.94
8,1,0.941
5,0,0.942
0,-3,0.943
-1,-4,0.944
2,0,0.945
5,6,0.946
9,5,0.947
16,1,0.948
22,0,0.949
26,3,0.95
24,4,0.951
18,1,0.952
10,-1,0.953
2,0,0.954
2,1,0.955
4,-1,0.956
2,-3,0.957
0,0,0.958
1,5,0.959
4,5,0.96
1,2,0.961
-7,0,0.962
-15,-1,0.963
-18,-5,0.964
-23,-5,0.965
-32,-4,0.966
-35,-2,0.967
-22,-2,0.968
2,-3,0.969
25,-4,0.97
41,-6,0.971
49,-7,0.972
50,-4,0.973
39,-1,0.974
28,1,0.975
16,2,0.976
5,-3,0.977
-3,-8,0.978
-2,-4,0.979
-1,0,0.98
-1,3,0.981
-1,6,0.982
-2,6,0.983
-3,5,0.984
-2,2,0.985
-3,0,0.986
-11,1,0.987
-17,3,0.988
-12,1,0.989
-8,0,0.99
-7,2,0.991
-5,3,0.992
-3,-2,0.993
-1,-6,0.994
1,-5,0.995
7,-2,0.996
12,-6,0.997
11,-8,0.998
9,-7,0.999
9,-3,1.0
6,2,1.001
0,3,1.002
-2,1,1.003
-1,-1,1.004
-1,-2,1.005
-2,1,1.006
-3,3,1.007
0,2,1.008
-1,1,1.009
-4,0,1.01
-2,-1,1.011
3,-4,1.012
7,-5,1.013
3,-6,1.014
0,-5,1.015
-5,-5,1.016
-11,-6,1.017
-16,-5,1.018
-10,-4,1.019
0,-4,1.02
0,0,1.021
-10,5,1.022
-15,5,1.023
-5,1,1.024
7,0,1.025
12,2,1.026
11,4,1.027
14,3,1.028
21,2,1.029
27,0,1.03
27,-3,1.031
23,-6,1.032
16,-4,1.033
6,-1,1.034
4,0,1.035
2,-2,1.036
1,-4,1.037
0,-3,1.038
3,-1,1.039
5,1,1.04
1,3,1.041
-2,5,1.042
-3,4,1.043
-3,-1,1.044
-1,-5,1.045
0,-4,1.046
-1,0,1.047
-3,1,1.048
-1,1,1.049
1,0,1.05
3,2,1.051
4,1,1.052
2,-2,1.053
1,-4,1.054
-3,-3,1.055
-6,-2,1.056
-10,-6,1.057
-8,-6,1.058
1,-4,1.059
12,1,1.06
12,3,1.061
4,3,1.062
1,5,1.063
6,4,1.064
7,2,1.065
4,-1,1.066
3,-5,1.067
7,-5,1.068
8,-4,1.069
3,-1,1.07
1,-1,1.071
4,-2,1.072
5,-2,1.073
4,-1,1.074
-1,-1,1.075
-6,-3,1.076
-11,-7,1.077
-8,-5,1.078
0,0,1.079
8,4,1.08
3,4,1.081
-4,3,1.082
-4,2,1.083
3,1,1.084
6,1,1.085
3,1,1.086
0,-1,1.087
2,-4,1.088
4,-4,1.089
1,-2,1.09
-5,1,1.091
-14,1,1.092
-17,1,1.093
-15,-1,1.094
-10,0,1.095
-6,0,1.096
-5,-1,1.097
2,-3,1.098
27,0,1.099
47,2,1.1
52,2,1.101
50,1,1.102
28,0,1.103
9,0,1.104
0,1,1.105
-8,2,1.106
-8,0,1.107
-8,-1,1.108
-10,-2,1.109
-12,-3,1.11
-13,-1,1.111
-14,0,1.112
-10,0,1.113
-5,2,1.114
-4,3,1.115
-10,1,1.116
-15,-7,1.117
-13,-10,1.118
-4,-6,1.119
4,0,1.12
12,2,1.121
13,4,1.122
14,4,1.123
19,2,1.124
29,0,1.125
35,-1,1.126
31,0,1.127
20,0,1.128
9,-1,1.129
2,-2,1.13
-2,0,1.131
-3,1,1.132
-2,0,1.133
-3,-5,1.134
-5,-6,1.135
-9,-5,1.136
-11,-6,1.137
-11,-7,1.138
-7,-5,1.139
-3,1,1.14
-1,6,1.141
-4,4,1.142
-7,-1,1.143
-5,-3,1.144
-1,-1,1.145
1,2,1.146
1,-1,1.147
2,-2,1.148
1,-3,1.149
0,0,1.15
1,2,1.151
4,2,1.152
5,2,1.153
4,0,1.154
2,-1,1.155
-2,-2,1.156
-7,-6,1.157
-9,-5,1.158
0,-2,1.159
9,1,1.16
7,4,1.161
-1,3,1.162
-3,0,1.163
2,0,1.164
6,2,1.165
4,3,1.166
4,2,1.167
6,-1,1.168
8,-3,1.169
8,-2,1.17
9,-3,1.171
11,-5,1.172
12,-2,1.173
10,0,1.174
11,2,1.175
9,0,1.176
6,-6,1.177
5,-8,1.178
7,-5,1.179
8,-1,1.18
2,3,1.181
-2,6,1.182
2,4,1.183
8,0,1.184
9,-3,1.185
4,-4,1.186
1,-2,1.187
2,-1,1.188
2,-1,1.189
1,0,1.19
0,1,1.191
-2,2,1.192
-5,1,1.193
-7,0,1.194
-3,0,1.195
-4,0,1.196
-9,-4,1.197
-9,-7,1.198
0,-6,1.199
8,0,1.2
4,3,1.201
-5,1,1.202
-5,-1,1.203
-1,0,1.204
0,2,1.205
-3,1,1.206
-4,-1,1.207
5,-2,1.208
11,0,1.209
13,1,1.21
14,0,1.211
14,-1,1.212
12,0,1.213
8,-1,1.214
2,-3,1.215
0,-5,1.216
-2,-8,1.217
-2,-8,1.218
-1,-4,1.219
-1,0,1.22
-1,3,1.221
-3,6,1.222
-1,6,1.223
-1,3,1.224
-1,0,1.225
2,-2,1.226
11,-1,1.227
15,0,1.228
12,2,1.229
5,2,1.23
3,0,1.231
5,-4,1.232
6,-4,1.233
3,-5,1.234
0,-6,1.235
-3,-5,1.236
-7,-8,1.237
-10,-7,1.238
-7,-5,1.239
-4,-3,1.24
-5,2,1.241
-8,6,1.242
-4,6,1.243
7,5,1.244
16,3,1.245
18,3,1.246
18,2,1.247
23,3,1.248
26,4,1.249
25,2,1.25
17,0,1.251
5,-2,1.252
-2,1,1.253
-6,2,1.254
-7,0,1.255
-7,-2,1.256
-10,-5,1.257
-12,-6,1.258
-8,-5,1.259
-1,-2,1.26
0,3,1.261
-5,3,1.262
-7,0,1.263
-3,0,1.264
0,3,1.265
-2,3,1.266
-3,0,1.267
-1,-2,1.268
3,-1,1.269
3,1,1.27
2,-1,1.271
1,-3,1.272
1,0,1.273
-1,1,1.274
-3,2,1.275
-7,-1,1.276
-11,-6,1.277
-8,-7,1.278
2,-6,1.279
14,-3,1.28
16,1,1.281
15,5,1.282
15,4,1.283
18,0,1.284
15,-1,1.285
11,0,1.286
9,2,1.287
8,0,1.288
2,-2,1.289
-3,-3,1.29
-7,-4,1.291
-6,-5,1.292
-5,-1,1.293
-7,-1,1.294
-9,-2,1.295
-13,-5,1.296
-15,-7,1.297
-8,-2,1.298
9,-1,1.299
20,-2,1.3
15,-3,1.301
3,0,1.302
2,2,1.303
13,2,1.304
17,2,1.305
11,5,1.306
7,5,1.307
1,2,1.308
-13,0,1.309
-29,0,1.31
-29,-1,1.311
-11,-3,1.312
8,0,1.313
16,2,1.314
20,0,1.315
23,-3,1.316
21,-7,1.317
16,-5,1.318
17,-3,1.319
25,-3,1.32
22,-3,1.321
1,0,1.322
-15,5,1.323
-8,8,1.324
10,8,1.325
16,6,1.326
7,2,1.327
1,-1,1.328
4,-1,1.329
10,1,1.33
14,4,1.331
16,3,1.332
16,2,1.333
5,0,1.334
-5,0,1.335
-11,-1,1.336
-15,-7,1.337
-20,-10,1.338
-18,-10,1.339
-12,-5,1.34
-8,-1,1.341
-11,1,1.342
-10,0,1.343
-2,-1,1.344
7,-1,1.345
10,-2,1.346
9,-1,1.347
11,0,1.348
8,0,1.349
-1,-3,1.35
-6,-3,1.351
-3,1,1.352
3,6,1.353
4,2,1.354
5,-1,1.355
6,-2,1.356
4,-4,1.357
-2,-5,1.358
-5,-5,1.359
-2,0,1.36
1,5,1.361
-1,6,1.362
-6,3,1.363
-8,0,1.364
-5,-1,1.365
-4,-2,1.366
-5,-2,1.367
-3,-1,1.368
1,-1,1.369
3,-1,1.37
3,-2,1.371
0,-3,1.372
-8,-1,1.373
-18,0,1.374
-19,0,1.375
-17,-2,1.376
-2,-7,1.377
14,-6,1.378
35,0,1.379
51,6,1.38
49,6,1.381
46,3,1.382
37,1,1.383
27,1,1.384
15,2,1.385
4,4,1.386
1,3,1.387
0,0,1.388
3,-2,1.389
5,-2,1.39
1,0,1.391
-2,0,1.392
0,0,1.393
0,-1,1.394
-6,-3,1.395
-16,-4,1.396
-20,-6,1.397
-23,-3,1.398
-16,0,1.399
-1,0,1.4
1,-1,1.401
-12,0,1.402
-23,0,1.403
-17,-1,1.404
-7,-3,1.405
-8,0,1.406
-13,3,1.407
-10,3,1.408
0,1,1.409
8,1,1.41
13,2,1.411
17,0,1.412
22,-3,1.413
22,-4,1.414
19,-1,1.415
18,1,1.416
20,0,1.417
21,-2,1.418
22,-1,1.419
18,-1,1.42
3,-2,1.421
-10,-2,1.422
-13,-2,1.423
-6,-3,1.424
1,-4,1.425
5,-5,1.426
15,-2,1.427
26,1,1.428
26,2,1.429
13,2,1.43
-3,2,1.431
-15,2,1.432
-21,2,1.433
-23,0,1.434
-17,-2,1.435
-13,-4,1.436
-17,-8,1.437
-22,-8,1.438
-19,-5,1.439
-11,-2,1.44
-15,3,1.441
-28,4,1.442
-31,1,1.443
-16,0,1.444
5,-1,1.445
22,-1,1.446
34,-2,1.447
44,-3,1.448
46,-1,1.449
39,1,1.45
31,0,1.451
26,-3,1.452
22,0,1.453
16,2,1.454
13,2,1.455
9,0,1.456
1,-4,1.457
-4,-6,1.458
-2,-3,1.459
0,0,1.46
-1,3,1.461
-3,5,1.462
-7,3,1.463
-10,1,1.464
-11,1,1.465
-13,0,1.466
-14,-2,1.467
-15,-3,1.468
-14,0,1.469
-12,3,1.47
-10,2,1.471
-6,0,1.472
5,-1,1.473
15,-2,1.474
12,-1,1.475
3,0,1.476
1,-3,1.477
8,-3,1.478
19,-2,1.479
24,-3,1.48
18,0,1.481
5,2,1.482
-2,-1,1.483
0,-4,1.484
2,-4,1.485
-3,-1,1.486
-9,-1,1.487
-9,-5,1.488
-7,-7,1.489
-6,-2,1.49
-7,2,1.491
-7,2,1.492
-1,1,1.493
5,-1,1.494
14,0,1.495
17,1,1.496
17,0,1.497
12,0,1.498
10,0,1.499
8,0,1.5
3,4,1.501
-2,5,1.502
-2,2,1.503
2,-2,1.504
6,0,1.505
7,6,1.506
4,7,1.507
1,2,1.508
-3,0,1.509
-8,1,1.51
-8,0,1.511
-6,-6,1.512
-7,-7,1.513
-15,-5,1.514
-23,-2,1.515
-29,-4,1.516
-25,-10,1.517
-7,-10,1.518
22,-9,1.519
51,-7,1.52
65,-4,1.521
66,0,1.522
58,1,1.523
45,-2,1.524
26,-3,1.525
4,3,1.526
-9,5,1.527
-13,2,1.528
-12,-3,1.529
-11,-4,1.53
-11,-4,1.531
-12,-3,1.532
-13,-1,1.533
-17,-1,1.534
-20,-2,1.535
-23,-2,1.536
-21,-4,1.537
-6,-2,1.538
16,-1,1.539
29,-1,1.54
22,3,1.541
6,7,1.542
0,8,1.543
3,4,1.544
0,4,1.545
-12,8,1.546
-17,9,1.547
-13,5,1.548
-9,2,1.549
-11,2,1.55
-11,1,1.551
-7,-1,1.552
-2,0,1.553
-1,1,1.554
-6,2,1.555
-17,0,1.556
-31,-3,1.557
-42,-4,1.558
-39,-3,1.559
-21,-2,1.56
-2,1,1.561
13,2,1.562
28,-1,1.563
45,-2,1.564
54,0,1.565
53,2,1.566
47,-2,1.567
41,-9,1.568
29,-7,1.569
12,-3,1.57
2,-2,1.571
6,-4,1.572
11,-3,1.573
3,0,1.574
-5,-2,1.575
-3,-7,1.576
5,-9,1.577
9,-5,1.578
7,-1,1.579
9,0,1.58
10,2,1.581
-1,5,1.582
-14,2,1.583
-16,-4,1.584
-13,-5,1.585
-14,-2,1.586
-13,1,1.587
-1,-2,1.588
15,-4,1.589
23,-2,1.59
28,-2,1.591
35,-2,1.592
36,0,1.593
24,0,1.594
6,1,1.595
-5,0,1.596
-11,-3,1.597
-13,-1,1.598
-11,0,1.599
1,-1,1.6
13,1,1.601
14,4,1.602
-1,4,1.603
-24,-1,1.604
-45,-4,1.605
-55,-2,1.606
-50,0,1.607
-36,2,1.608
-22,1,1.609
-5,3,1.61
17,3,1.611
37,0,1.612
40,-2,1.613
33,-4,1.614
24,-4,1.615
18,-2,1.616
10,-4,1.617
2,-4,1.618
5,-2,1.619
12,0,1.62
14,1,1.621
15,3,1.622
24,1,1.623
36,-1,1.624
32,-2,1.625
13,-1,1.626
-3,-2,1.627
-3,-4,1.628
4,-5,1.629
3,-3,1.63
-14,-2,1.631
-36,-4,1.632
-45,-1,1.633
-40,1,1.634
-28,0,1.635
-24,-4,1.636
-28,-9,1.637
-27,-7,1.638
-15,-2,1.639
-1,0,1.64
-6,0,1.641
-20,1,1.642
-18,2,1.643
4,3,1.644
21,0,1.645
22,-2,1.646
28,-1,1.647
52,1,1.648
74,3,1.649
70,2,1.65
45,0,1.651
23,1,1.652
12,4,1.653
-6,4,1.654
-25,2,1.655
-37,2,1.656
-35,1,1.657
-30,0,1.658
-23,-3,1.659
-12,-6,1.66
8,-5,1.661
32,-5,1.662
56,-9,1.663
70,-13,1.664
57,-12,1.665
19,-7,1.666
-20,-1,1.667
-37,4,1.668
-37,8,1.669
-30,11,1.67
-27,11,1.671
-30,9,1.672
-35,9,1.673
-34,7,1.674
-19,4,1.675
0,-2,1.676
7,-7,1.677
-11,-6,1.678
-40,-5,1.679
-57,-4,1.68
-40,-3,1.681
-1,-3,1.682
32,-5,1.683
45,-8,1.684
53,-8,1.685
66,-4,1.686
68,-2,1.687
51,-3,1.688
32,-5,1.689
30,-2,1.69
30,2,1.691
16,3,1.692
1,3,1.693
0,1,1.694
7,-2,1.695
4,-4,1.696
3,-6,1.697
15,-2,1.698
32,1,1.699
33,2,1.7
17,2,1.701
-2,3,1.702
-10,0,1.703
-11,-5,1.704
-6,-5,1.705
1,-1,1.706
8,1,1.707
6,-1,1.708
-4,-2,1.709
-14,-1,1.71
-15,1,1.711
-10,0,1.712
-5,0,1.713
-5,-2,1.714
-10,-2,1.715
-15,-3,1.716
-18,-5,1.717
-17,-2,1.718
-11,0,1.719
-4,0,1.72
-2,0,1.721
-6,1,1.722
-12,1,1.723
-10,-2,1.724
-4,-2,1.725
0,4,1.726
5,8,1.727
13,4,1.728
18,-1,1.729
20,-1,1.73
22,1,1.731
24,0,1.732
20,-2,1.733
8,-2,1.734
-8,1,1.735
-18,2,1.736
-22,-4,1.737
-25,-9,1.738
-21,-7,1.739
-11,-1,1.74
-10,2,1.741
-17,4,1.742
-18,2,1.743
-3,1,1.744
12,0,1.745
16,0,1.746
15,-1,1.747
20,-2,1.748
32,-2,1.749
40,0,1.75
39,1,1.751
30,1,1.752
18,3,1.753
4,3,1.754
-9,3,1.755
-26,2,1.756
-40,-1,1.757
-38,-2,1.758
-16,-5,1.759
9,-7,1.76
22,-6,1.761
26,-2,1.762
32,2,1.763
39,1,1.764
40,-1,1.765
35,-1,1.766
26,0,1.767
12,-1,1.768
-4,0,1.769
-17,0,1.77
-21,0,1.771
-23,-1,1.772
-25,-1,1.773
-23,-2,1.774
-18,-2,1.775
-21,-2,1.776
-35,-6,1.777
-43,-5,1.778
-38,-1,1.779
-27,3,1.78
-20,5,1.781
-13,5,1.782
1,2,1.783
15,0,1.784
21,0,1.785
24,-1,1.786
29,-2,1.787
33,-1,1.788
36,2,1.789
39,5,1.79
37,4,1.791
27,1,1.792
16,0,1.793
9,-1,1.794
7,-2,1.795
-2,-4,1.796
-18,-6,1.797
-27,-8,1.798
-23,-5,1.799
-7,0,1.8
3,2,1.801
9,2,1.802
16,0,1.803
30,0,1.804
46,0,1.805
53,-1,1.806
44,-3,1.807
25,-5,1.808
6,-6,1.809
-12,-6,1.81
-27,-4,1.811
-38,-1,1.812
-46,-1,1.813
-67,0,1.814
-94,1,1.815
-107,-1,1.816
-86,-6,1.817
-39,-8,1.818
11,-7,1.819
53,-3,1.82
84,-1,1.821
101,2,1.822
97,6,1.823
78,7,1.824
56,5,1.825
42,4,1.826
29,4,1.827
16,2,1.828
2,1,1.829
-10,3,1.83
-19,3,1.831
-19,2,1.832
-14,2,1.833
-10,1,1.834
-11,0,1.835
-15,-4,1.836
-15,-7,1.837
-13,-4,1.838
-10,-1,1.839
-5,-2,1.84
-2,-2,1.841
-3,0,1.842
-5,2,1.843
-2,-2,1.844
0,-4,1.845
-4,-1,1.846
-11,1,1.847
-11,2,1.848
-6,2,1.849
-2,4,1.85
-1,4,1.851
2,1,1.852
7,1,1.853
9,0,1.854
6,0,1.855
2,-2,1.856
-7,-8,1.857
-21,-7,1.858
-36,-4,1.859
-44,0,1.86
-43,5,1.861
-29,7,1.862
-11,5,1.863
16,2,1.864
49,2,1.865
79,4,1.866
90,1,1.867
76,-4,1.868
52,-6,1.869
36,-2,1.87
33,1,1.871
29,0,1.872
23,-1,1.873
11,-1,1.874
-3,-2,1.875
-18,-4,1.876
-29,-8,1.877
-32,-8,1.878
-26,-7,1.879
-17,-6,1.88
-14,-3,1.881
-16,0,1.882
-18,-2,1.883
-15,-5,1.884
-11,-3,1.885
-11,-1,1.886
-10,0,1.887
-12,-1,1.888
-27,-2,1.889
-57,-1,1.89
-84,0,1.891
-80,0,1.892
-45,1,1.893
5,0,1.894
49,-3,1.895
75,-4,1.896
88,-6,1.897
96,-3,1.898
104,3,1.899
113,6,1.9
105,5,1.901
67,3,1.902
17,4,1.903
-9,7,1.904
-8,6,1.905
-9,1,1.906
-23,0,1.907
-27,3,1.908
-19,5,1.909
-12,4,1.91
-20,0,1.911
-27,-2,1.912
-25,-2,1.913
-24,-6,1.914
-33,-9,1.915
-53,-10,1.916
-76,-11,1.917
-101,-8,1.918
-111,-6,1.919
-96,0,1.92
-58,5,1.921
-6,9,1.922
34,9,1.923
33,5,1.924
-17,1,1.925
-56,3,1.926
-9,3,1.927
102,-2,1.928
167,-6,1.929
120,-4,1.93
20,5,1.931
-45,6,1.932
-62,3,1.933
-59,2,1.934
-59,12,1.935
-70,23,1.936
-86,23,1.937
-81,24,1.938
-42,24,1.939
-9,22,1.94
-30,16,1.941
-75,14,1.942
-76,24,1.943
-50,33,1.944
-86,28,1.945
-192,6,1.946
-274,-18,1.947
-303,-28,1.948
-368,-11,1.949
-494,21,1.95
-535,40,1.951
-350,33,1.952
-1,14,1.953
399,10,1.954
730,29,1.955
921,52,1.956
919,43,1.957
697,0,1.958
314,-53,1.959
-82,-75,1.96
-308,-50,1.961
-277,0,1.962
-94,29,1.963
63,27,1.964
179,21,1.965
382,30,1.966
655,33,1.967
785,6,1.968
677,-25,1.969
501,-38,1.97
436,-42,1.971
441,-56,1.972
410,-78,1.973
317,-92,1.974
194,-84,1.975
49,-60,1.976
-78,9,1.977
-121,61,1.978
-107,55,1.979
-148,48,1.98
-270,37,1.981
-384,38,1.982
-452,76,1.983
-539,134,1.984
-668,246,1.985
-762,316,1.986
-781,255,1.987
-793,154,1.988
-835,-63,1.989
-834,-253,1.99
-722,-355,1.991
-571,-441,1.992
-548,-477,1.993
-748,-484,1.994
-1025,-375,1.995
-1030,-280,1.996
-534,-233,1.997
258,-186,1.998
881,-131,1.999
1130,-116,2.0
1254,-134,2.001
1504,-87,2.002
1713,63,2.003
1528,208,2.004
940,241,2.005
313,200,2.006
-49,188,2.007
-145,200,2.008
-89,165,2.009
65,88,2.01
242,26,2.011
273,-29,2.012
99,-97,2.013
-156,-137,2.014
-279,-53,2.015
-253,156,2.016
-229,402,2.017
-244,623,2.018
-155,762,2.019
96,742,2.02
365,582,2.021
488,432,2.022
455,374,2.023
290,351,2.024
-35,350,2.025
-455,426,2.026
-754,473,2.027
-790,264,2.028
-669,-137,2.029
-569,-392,2.03
-498,-474,2.031
-374,-764,2.032
-212,-1308,2.033
-38,-1675,2.034
176,-1437,2.035
418,-855,2.036
498,-450,2.037
204,-233,2.038
-370,43,2.039
-857,270,2.04
-974,127,2.041
-752,-302,2.042
-412,-593,2.043
-119,-595,2.044
83,-534,2.045
162,-485,2.046
27,-230,2.047
-365,275,2.048
-808,677,2.049
-889,685,2.05
-395,493,2.051
408,491,2.052
1062,715,2.053
1545,938,2.054
2035,1018,2.055
2481,1108,2.056
2470,1302,2.057
1789,1330,2.058
845,830,2.059
214,-72,2.06
-23,-790,2.061
-236,-970,2.062
-631,-901,2.063
-1004,-1033,2.064
-1108,-1348,2.065
-999,-1519,2.066
-880,-1459,2.067
-783,-1299,2.068
-583,-985,2.069
-267,-391,2.07
18,256,2.071
169,547,2.072
219,495,2.073
212,458,2.074
99,619,2.075
-165,767,2.076
-510,749,2.077
-793,714,2.078
-900,763,2.079
-778,763,2.08
-465,624,2.081
-98,459,2.082
191,360,2.083
400,270,2.084
604,166,2.085
771,139,2.086
750,229,2.087
482,359,2.088
98,455,2.089
-261,489,2.09
-596,433,2.091
-919,296,2.092
-1076,168,2.093
-894,87,2.094
-451,19,2.095
-42,-35,2.096
227,-16,2.097
583,8,2.098
1142,-170,2.099
1568,-545,2.1
1451,-822,2.101
867,-846,2.102
288,-804,2.103
-11,-805,2.104
-161,-661,2.105
-349,-306,2.106
-584,-27,2.107
-825,-41,2.108
-1034,-200,2.109
-1084,-338,2.11
-843,-531,2.111
-393,-772,2.112
10,-809,2.113
300,-509,2.114
519,-119,2.115
679,79,2.116
750,114,2.117
768,140,2.118
776,157,2.119
663,150,2.12
309,231,2.121
-135,424,2.122
-373,574,2.123
-354,575,2.124
-305,540,2.125
-349,603,2.126
-334,752,2.127
-124,901,2.128
168,991,2.129
331,979,2.13
318,877,2.131
193,755,2.132
-21,597,2.133
-427,234,2.134
-1006,-344,2.135
-1580,-866,2.136
-1861,-1094,2.137
-1640,-1123,2.138
-950,-1159,2.139
-23,-1211,2.14
916,-1208,2.141
1753,-1196,2.142
2322,-1174,2.143
2348,-979,2.144
1745,-573,2.145
851,-198,2.146
162,-14,2.147
-170,127,2.148
-370,366,2.149
-588,599,2.15
-653,756,2.151
-371,950,2.152
92,1200,2.153
424,1386,2.154
424,1436,2.155
237,1390,2.156
88,1146,2.157
-50,564,2.158
-342,-157,2.159
-742,-627,2.16
-984,-851,2.161
-890,-1138,2.162
-551,-1436,2.163
-168,-1368,2.164
180,-927,2.165
509,-526,2.166
740,-310,2.167
701,-35,2.168
375,336,2.169
21,550,2.17
-96,601,2.171
-27,731,2.172
-38,886,2.173
-266,744,2.174
-543,297,2.175
-639,-46,2.176
-523,-16,2.177
-348,293,2.178
-270,717,2.179
-344,1085,2.18
-496,1108,2.181
-588,683,2.182
-567,129,2.183
-520,-328,2.184
-455,-957,2.185
-137,-1835,2.186
621,-2275,2.187
1548,-1661,2.188
2065,-467,2.189
1952,372,2.19
1511,724,2.191
1050,1031,2.192
581,1221,2.193
-3,788,2.194
-484,-223,2.195
-667,-1111,2.196
-686,-1466,2.197
-781,-1495,2.198
-920,-1364,2.199
-902,-974,2.2
-718,-468,2.201
-540,-230,2.202
-448,-276,2.203
-390,-208,2.204
-334,163,2.205
-286,645,2.206
-199,1044,2.207
-3,1314,2.208
300,1364,2.209
646,1111,2.21
885,645,2.211
773,78,2.212
228,-530,2.213
-598,-1102,2.214
-1194,-1259,2.215
-1248,-838,2.216
-849,-163,2.217
-177,367,2.218
655,662,2.219
1424,776,2.22
1793,706,2.221
1628,511,2.222
1073,329,2.223
335,184,2.224
-310,16,2.225
-447,-96,2.226
83,-29,2.227
789,143,2.228
1004,249,2.229
683,295,2.23
282,389,2.231
-13,512,2.232
-340,589,2.233
-707,656,2.234
-819,754,2.235
-648,799,2.236
-505,691,2.237
-496,462,2.238
-417,162,2.239
-234,-214,2.24
-186,-598,2.241
-321,-817,2.242
-394,-792,2.243
-301,-632,2.244
-217,-466,2.245
-235,-323,2.246
-216,-203,2.247
-75,-142,2.248
59,-171,2.249
70,-248,2.25
-11,-253,2.251
-107,-93,2.252
-188,153,2.253
-241,314,2.254
-253,282,2.255
-254,144,2.256
-237,-12,2.257
-131,-263,2.258
51,-598,2.259
165,-723,2.26
153,-448,2.261
164,-67,2.262
301,27,2.263
398,-77,2.264
277,-58,2.265
71,-21,2.266
46,-331,2.267
189,-888,2.268
245,-1151,2.269
113,-926,2.27
-45,-535,2.271
-137,-184,2.272
-249,208,2.273
-469,633,2.274
-660,743,2.275
-642,426,2.276
-400,44,2.277
-82,-93,2.278
182,-83,2.279
365,-66,2.28
498,29,2.281
599,225,2.282
622,350,2.283
506,367,2.284
300,482,2.285
176,776,2.286
215,1025,2.287
271,1042,2.288
165,912,2.289
-45,745,2.29
-121,494,2.291
37,114,2.292
281,-260,2.293
442,-556,2.294
448,-766,2.295
348,-904,2.296
226,-911,2.297
108,-730,2.298
-15,-421,2.299
-101,-98,2.3
-51,136,2.301
153,226,2.302
338,214,2.303
296,218,2.304
62,276,2.305
-142,284,2.306
-197,180,2.307
-191,66,2.308
-230,36,2.309
-299,36,2.31
-355,-14,2.311
-396,-68,2.312
-410,-65,2.313
-374,-49,2.314
-322,-71,2.315
-310,-95,2.316
-322,-70,2.317
-281,-32,2.318
-184,-27,2.319
-101,-24,2.32
-62,22,2.321
-40,92,2.322
-32,166,2.323
-50,258,2.324
-66,350,2.325
-51,363,2.326
-40,289,2.327
-87,211,2.328
-158,166,2.329
-177,90,2.33
-136,-82,2.331
-69,-312,2.332
17,-500,2.333
155,-614,2.334
283,-616,2.335
292,-500,2.336
181,-324,2.337
74,-177,2.338
71,-82,2.339
139,23,2.34
187,169,2.341
178,299,2.342
133,348,2.343
72,330,2.344
10,298,2.345
-45,250,2.346
-103,152,2.347
-177,0,2.348
-248,-176,2.349
-263,-370,2.35
-191,-571,2.351
-50,-721,2.352
115,-747,2.353
304,-643,2.354
468,-471,2.355
516,-288,2.356
392,-106,2.357
144,68,2.358
-100,188,2.359
-224,242,2.36
-176,268,2.361
9,291,2.362
212,299,2.363
317,286,2.364
318,279,2.365
300,284,2.366
285,273,2.367
197,233,2.368
13,196,2.369
-152,183,2.37
-201,179,2.371
-186,167,2.372
-201,155,2.373
-237,143,2.374
-231,129,2.375
-194,113,2.376
-186,99,2.377
-192,82,2.378
-146,43,2.379
-60,-19,2.38
-15,-73,2.381
-27,-86,2.382
-32,-64,2.383
0,-27,2.384
25,8,2.385
-1,40,2.386
-57,65,2.387
-109,69,2.388
-133,38,2.389
-125,-39,2.39
-77,-147,2.391
-9,-243,2.392
40,-273,2.393
44,-225,2.394
38,-136,2.395
74,-62,2.396
155,-23,2.397
214,1,2.398
196,14,2.399
129,6,2.4
78,-10,2.401
66,-11,2.402
59,4,2.403
40,16,2.404
25,22,2.405
24,29,2.406
18,33,2.407
-8,25,2.408
-32,12,2.409
-37,10,2.41
-33,12,2.411
-34,3,2.412
-40,-13,2.413
-40,-22,2.414
-37,-17,2.415
-41,-9,2.416
-47,-9,2.417
-38,-17,2.418
-12,-26,2.419
15,-29,2.42
22,-21,2.421
11,-8,2.422
-2,2,2.423
-6,3,2.424
-2,1,2.425
-1,1,2.426
0,2,2.427
2,2,2.428
3,2,2.429
1,5,2.43
2,4,2.431
7,-1,2.432
15,-4,2.433
14,-3,2.434
6,-1,2.435
-1,-1,2.436
-1,-4,2.437
3,-8,2.438
8,-10,2.439
12,-7,2.44
13,-2,2.441
10,0,2.442
9,-2,2.443
13,-3,2.444
13,0,2.445
10,3,2.446
6,0,2.447
7,-4,2.448
9,-3,2.449
7,2,2.45
4,3,2.451
5,0,2.452
8,1,2.453
7,2,2.454
5,2,2.455
3,-1,2.456
0,-6,2.457
-2,-3,2.458
1,1,2.459
9,0,2.46
11,0,2.461
5,1,2.462
2,1,2.463
9,-2,2.464
14,-5,2.465
10,-1,2.466
4,2,2.467
2,2,2.468
4,0,2.469
4,0,2.47
2,2,2.471
1,0,2.472
0,-1,2.473
-2,-1,2.474
-4,0,2.475
-6,-1,2.476
-11,-5,2.477
-11,-5,2.478
-3,-1,2.479
4,0,2.48
3,2,2.481
-3,5,2.482
-4,7,2.483
-1,6,2.484
2,4,2.485
3,5,2.486
4,5,2.487
5,4,2.488
4,1,2.489
0,0,2.49
-1,-2,2.491
2,-4,2.492
4,-3,2.493
2,0,2.494
0,-2,2.495
-4,-5,2.496
-7,-9,2.497
-9,-7,2.498
-5,-1,2.499
2,-1,2.5
4,-1,2.501
2,0,2.502
2,1,2.503
8,1,2.504
13,0,2.505
10,1,2.506
4,2,2.507
5,0,2.508
6,-1,2.509
2,-1,2.51
-2,-1,2.511
-3,0,2.512
0,0,2.513
2,-2,2.514
4,-3,2.515
0,-4,2.516
-4,-6,2.517
-4,-7,2.518
2,-7,2.519
11,-5,2.52
11,3,2.521
1,6,2.522
-6,5,2.523
-5,0,2.524
1,0,2.525
6,1,2.526
5,2,2.527
2,0,2.528
0,0,2.529
1,1,2.53
0,1,2.531
-2,-1,2.532
-3,-2,2.533
-3,-4,2.534
-5,-5,2.535
-9,-6,2.536
-10,-8,2.537
-7,-7,2.538
-2,-5,2.539
0,-1,2.54
2,3,2.541
3,7,2.542
8,8,2.543
15,7,2.544
14,13,2.545
1,27,2.546
-12,37,2.547
-17,28,2.548
-16,7,2.549
-20,-7,2.55
-36,-8,2.551
-64,-9,2.552
-84,-16,2.553
-71,-27,2.554
-20,-29,2.555
41,-26,2.556
69,-31,2.557
63,-37,2.558
48,-33,2.559
41,-17,2.56
35,-5,2.561
24,-2,2.562
19,-5,2.563
13,-4,2.564
8,0,2.565
16,7,2.566
48,13,2.567
84,19,2.568
86,21,2.569
57,19,2.57
33,14,2.571
29,11,2.572
28,12,2.573
12,15,2.574
-7,15,2.575
-21,8,2.576
-18,-1,2.577
-8,-4,2.578
19,-2,2.579
39,-1,2.58
35,0,2.581
26,0,2.582
8,0,2.583
-11,-4,2.584
-32,-8,2.585
-52,-8,2.586
-68,-4,2.587
-75,-4,2.588
-54,-7,2.589
-36,-7,2.59
-29,-2,2.591
-23,2,2.592
-20,1,2.593
-20,-3,2.594
-33,-4,2.595
-37,-3,2.596
-28,-5,2.597
-20,-4,2.598
-20,0,2.599
-13,4,2.6
-1,7,2.601
0,6,2.602
-6,4,2.603
-6,3,2.604
1,2,2.605
5,0,2.606
2,-1,2.607
2,-1,2.608
9,-1,2.609
10,0,2.61
8,2,2.611
9,2,2.612
16,2,2.613
16,0,2.614
9,-1,2.615
2,-2,2.616
4,-4,2.617
10,-4,2.618
19,-3,2.619
28,-3,2.62
31,-2,2.621
28,0,2.622
24,0,2.623
27,0,2.624
28,1,2.625
19,1,2.626
5,1,2.627
-2,0,2.628
0,0,2.629
-2,0,2.63
-4,0,2.631
-4,-1,2.632
-2,0,2.633
-3,-1,2.634
-4,-2,2.635
-2,-1,2.636
0,-5,2.637
-1,-6,2.638
1,-5,2.639
8,-3,2.64
13,-1,2.641
11,-1,2.642
7,-3,2.643
7,-3,2.644
9,-1,2.645
8,1,2.646
8,0,2.647
14,-4,2.648
17,-3,2.649
13,2,2.65
6,3,2.651
4,1,2.652
4,3,2.653
2,5,2.654
1,5,2.655
1,-1,2.656
-1,-7,2.657
-7,-6,2.658
-11,-1,2.659
-10,1,2.66
-9,1,2.661
-10,3,2.662
-9,3,2.663
-2,0,2.664
0,0,2.665
1,2,2.666
4,4,2.667
13,3,2.668
19,0,2.669
19,0,2.67
17,0,2.671
15,-2,2.672
11,-1,2.673
4,0,2.674
2,0,2.675
0,-2,2.676
-1,-6,2.677
-2,-4,2.678
2,0,2.679
6,3,2.68
6,1,2.681
6,0,2.682
4,0,2.683
3,0,2.684
5,0,2.685
7,-1,2.686
5,-2,2.687
3,-3,2.688
1,-4,2.689
0,-3,2.69
0,-3,2.691
1,-4,2.692
0,-3,2.693
-1,-4,2.694
-4,-4,2.695
-9,-4,2.696
-15,-5,2.697
-17,-3,2.698
-12,-2,2.699
-6,0,2.7
-8,4,2.701
-12,4,2.702
-7,2,2.703
10,-3,2.704
25,-3,2.705
30,-1,2.706
27,0,2.707
23,-2,2.708
22,-2,2.709
22,1,2.71
22,3,2.711
19,0,2.712
14,-3,2.713
3,-5,2.714
-4,-4,2.715
-11,-3,2.716
-15,-6,2.717
-17,-4,2.718
-8,-2,2.719
0,0,2.72
0,3,2.721
-7,5,2.722
-11,5,2.723
-4,2,2.724
-2,0,2.725
-6,2,2.726
-11,2,2.727
-8,-2,2.728
-5,-4,2.729
-6,-1,2.73
-6,2,2.731
-4,0,2.732
-1,-3,2.733
-4,-4,2.734
-6,1,2.735
-4,1,2.736
-4,-5,2.737
-6,-5,2.738
-9,0,2.739
-12,4,2.74
-24,2,2.741
-45,0,2.742
-61,-2,2.743
-71,-2,2.744
-82,-4,2.745
-86,-6,2.746
-61,-6,2.747
0,-5,2.748
69,-3,2.749
131,2,2.75
178,8,2.751
199,11,2.752
188,12,2.753
147,11,2.754
108,8,2.755
71,3,2.756
40,-6,2.757
12,-8,2.758
-9,-7,2.759
-27,-3,2.76
-33,-1,2.761
-38,0,2.762
-40,0,2.763
-41,-3,2.764
-39,-7,2.765
-38,-6,2.766
-40,-3,2.767
-42,-2,2.768
-41,-2,2.769
-39,-2,2.77
-37,-2,2.771
-34,-2,2.772
-28,-1,2.773
-23,0,2.774
-22,0,2.775
-21,-4,2.776
-19,-9,2.777
-17,-7,2.778
-11,-2,2.779
-2,1,2.78
5,1,2.781
7,1,2.782
8,3,2.783
9,1,2.784
10,-1,2.785
9,1,2.786
11,5,2.787
14,7,2.788
13,4,2.789
11,1,2.79
12,1,2.791
15,2,2.792
15,1,2.793
11,1,2.794
9,1,2.795
5,1,2.796
1,-4,2.797
0,-5,2.798
7,-3,2.799
13,0,2.8
10,1,2.801
2,3,2.802
0,3,2.803
4,0,2.804
8,-4,2.805
8,-4,2.806
7,-1,2.807
9,-2,2.808
9,-2,2.809
10,-1,2.81
12,1,2.811
14,0,2.812
15,0,2.813
7,-2,2.814
1,-2,2.815
-2,-4,2.816
-5,-9,2.817
-7,-8,2.818
-3,-3,2.819
7,2,2.82
12,5,2.821
9,4,2.822
6,1,2.823
9,0,2.824
12,0,2.825
8,4,2.826
0,5,2.827
-1,1,2.828
0,-4,2.829
-1,-4,2.83
-3,-2,2.831
-2,-1,2.832
3,-2,2.833
7,-5,2.834
8,-3,2.835
8,-2,2.836
6,-5,2.837
2,-6,2.838
1,-3,2.839
6,0,2.84
8,2,2.841
1,3,2.842
-6,2,2.843
-7,-3,2.844
-3,-6,2.845
-2,-2,2.846
-4,3,2.847
-2,5,2.848
-3,1,2.849
-4,-1,2.85
-3,1,2.851
0,2,2.852
1,1,2.853
1,-1,2.854
3,0,2.855
5,1,2.856
2,-5,2.857
-4,-8,2.858
-1,-4,2.859
9,1,2.86
14,4,2.861
8,2,2.862
2,0,2.863
5,-1,2.864
9,-2,2.865
4,-1,2.866
0,2,2.867
0,0,2.868
2,-1,2.869
5,-1,2.87
5,2,2.871
2,5,2.872
0,5,2.873
-3,3,2.874
-4,0,2.875
-9,-3,2.876
-21,-9,2.877
-30,-10,2.878
-28,-6,2.879
-14,-2,2.88
4,4,2.881
16,6,2.882
26,6,2.883
32,1,2.884
34,0,2.885
33,3,2.886
34,6,2.887
38,2,2.888
41,-3,2.889
33,-5,2.89
19,-3,2.891
7,-1,2.892
0,0,2.893
-5,0,2.894
-11,0,2.895
-17,0,2.896
-16,-5,2.897
-14,-6,2.898
-12,-4,2.899
-10,-1,2.9
-10,1,2.901
-11,3,2.902
-14,1,2.903
-13,-2,2.904
-7,-3,2.905
-3,-1,2.906
-4,0,2.907
-4,-1,2.908
-4,-2,2.909
-4,0,2.91
-6,2,2.911
-6,0,2.912
-2,1,2.913
-2,-1,2.914
-2,-5,2.915
-5,-11,2.916
-6,-12,2.917
-5,-7,2.918
-2,-4,2.919
3,-1,2.92
9,3,2.921
11,5,2.922
9,3,2.923
7,0,2.924
10,1,2.925
11,5,2.926
13,6,2.927
14,0,2.928
13,-4,2.929
8,-4,2.93
0,-3,2.931
-3,-1,2.932
-3,1,2.933
-4,2,2.934
-7,-1,2.935
-10,-6,2.936
-11,-10,2.937
-9,-8,2.938
-2,-4,2.939
4,-2,2.94
3,1,2.941
-2,4,2.942
-2,4,2.943
7,1,2.944
16,-1,2.945
16,-1,2.946
15,-1,2.947
17,-1,2.948
19,0,2.949
17,0,2.95
16,0,2.951
18,-3,2.952
16,-2,2.953
3,-1,2.954
-12,1,2.955
-21,1,2.956
-25,-1,2.957
-30,-2,2.958
-29,2,2.959
-23,10,2.96
-19,14,2.961
-14,13,2.962
4,7,2.963
36,2,2.964
60,0,2.965
57,1,2.966
38,2,2.967
24,0,2.968
19,-2,2.969
12,-6,2.97
1,-7,2.971
-5,-7,2.972
-10,-7,2.973
-20,-7,2.974
-27,-7,2.975
-21,-10,2.976
6,-17,2.977
35,-22,2.978
47,-22,2.979
41,-17,2.98
30,-13,2.981
25,-10,2.982
19,-10,2.983
5,-9,2.984
-6,-6,2.985
-11,-1,2.986
-9,3,2.987
-8,6,2.988
-12,8,2.989
-13,10,2.99
-11,9,2.991
-8,7,2.992
-7,5,2.993
-11,4,2.994
-14,6,2.995
-18,7,2.996
-21,5,2.997
-17,3,2.998
-4,2,2.999
8,3,3.0
8,7,3.001
1,10,3.002
-1,6,3.003
4,0,3.004
8,0,3.005
7,3,3.006
4,5,3.007
4,1,3.008
4,-2,3.009
3,0,3.01
3,4,3.011
2,4,3.012
0,2,3.013
-4,-1,3.014
-5,-2,3.015
-4,-2,3.016
-5,-5,3.017
-5,-4,3.018
-2,-1,3.019
4,1,3.02
6,2,3.021
3,0,3.022
1,-3,3.023
4,-5,3.024
4,-4,3.025
3,-2,3.026
4,-2,3.027
10,-4,3.028
11,-5,3.029
6,-5,3.03
4,-3,3.031
6,0,3.032
8,2,3.033
3,1,3.034
-2,-1,3.035
-6,-2,3.036
-6,-4,3.037
-4,-4,3.038
2,-3,3.039
10,-1,3.04
12,0,3.041
7,4,3.042
3,3,3.043
3,1,3.044
5,0,3.045
5,0,3.046
5,-1,3.047
5,-3,3.048
5,-1,3.049
5,2,3.05
6,1,3.051
7,0,3.052
7,0,3.053
3,-2,3.054
-1,-4,3.055
-4,-4,3.056
-9,-5,3.057
-13,-4,3.058
-10,-2,3.059
0,0,3.06
3,3,3.061
-2,3,3.062
-5,0,3.063
-1,-3,3.064
9,-2,3.065
15,-1,3.066
16,0,3.067
18,0,3.068
20,-1,3.069
19,0,3.07
17,0,3.071
16,-1,3.072
17,-1,3.073
17,-2,3.074
14,-2,3.075
7,-2,3.076
-3,-6,3.077
-10,-3,3.078
-7,0,3.079
1,1,3.08
3,0,3.081
-4,0,3.082
-8,3,3.083
-4,4,3.084
-2,5,3.085
-3,4,3.086
-2,2,3.087
4,-1,3.088
6,-3,3.089
0,-1,3.09
-4,0,3.091
-2,-1,3.092
1,-1,3.093
-2,-1,3.094
-5,0,3.095
-8,0,3.096
-13,-4,3.097
-18,-3,3.098
-15,-1,3.099
-6,-1,3.1
-3,-2,3.101
-1,-1,3.102
5,0,3.103
15,-1,3.104
14,-3,3.105
4,-1,3.106
2,1,3.107
17,2,3.108
31,3,3.109
32,3,3.11
22,4,3.111
15,3,3.112
18,1,3.113
20,-2,3.114
19,-5,3.115
11,-6,3.116
0,-8,3.117
-7,-5,3.118
-7,0,3.119
-4,2,3.12
-4,2,3.121
-9,1,3.122
-10,1,3.123
-5,1,3.124
-3,0,3.125
-5,0,3.126
-5,0,3.127
-3,0,3.128
-2,2,3.129
-4,1,3.13
-4,0,3.131
0,-1,3.132
2,1,3.133
-2,0,3.134
-5,0,3.135
-7,-4,3.136
-6,-8,3.137
-4,-7,3.138
0,-5,3.139
6,-2,3.14
7,0,3.141
0,3,3.142
-2,4,3.143
0,0,3.144
6,-3,3.145
7,-1,3.146
6,2,3.147
6,4,3.148
8,0,3.149
6,-2,3.15
1,-2,3.151
0,-1,3.152
2,0,3.153
3,-3,3.154
1,-5,3.155
-1,-4,3.156
-4,-6,3.157
-1,-6,3.158
5,-3,3.159
12,1,3.16
11,2,3.161
8,0,3.162
7,0,3.163
11,2,3.164
12,2,3.165
9,-1,3.166
5,-4,3.167
3,-4,3.168
3,-1,3.169
6,1,3.17
9,0,3.171
10,-2,3.172
9,-2,3.173
6,-4,3.174
8,-4,3.175
4,-5,3.176
-1,-9,3.177
-4,-9,3.178
0,-5,3.179
6,0,3.18
7,3,3.181
2,5,3.182
0,5,3.183
-1,4,3.184
-1,5,3.185
-3,6,3.186
-3,7,3.187
-1,6,3.188
1,4,3.189
1,4,3.19
-3,4,3.191
-5,4,3.192
-5,4,3.193
-5,2,3.194
-5,1,3.195
-9,2,3.196
-11,0,3.197
-10,-1,3.198
-3,-1,3.199
4,0,3.2
7,3,3.201
3,4,3.202
0,1,3.203
0,-3,3.204
2,-3,3.205
4,1,3.206
3,4,3.207
3,1,3.208
4,-1,3.209
5,-2,3.21
9,-1,3.211
12,-2,3.212
11,-2,3.213
8,-5,3.214
4,-5,3.215
0,-8,3.216
-4,-10,3.217
-5,-9,3.218
-1,-6,3.219
8,-5,3.22
10,-4,3.221
4,-1,3.222
0,0,3.223
-1,-2,3.224
1,-3,3.225
5,-1,3.226
11,0,3.227
16,-1,3.228
17,-1,3.229
13,1,3.23
8,3,3.231
9,0,3.232
13,-1,3.233
13,-3,3.234
9,-3,3.235
4,-4,3.236
0,-8,3.237
-2,-7,3.238
0,-4,3.239
3,0,3.24
6,4,3.241
4,7,3.242
-1,6,3.243
-3,1,3.244
0,-2,3.245
4,-1,3.246
4,1,3.247
1,0,3.248
-1,-2,3.249
-1,0,3.25
-2,4,3.251
-3,3,3.252
-1,0,3.253
-1,-2,3.254
-2,-1,3.255
-7,0,3.256
-11,-4,3.257
-9,-7,3.258
-3,-6,3.259
3,-2,3.26
6,3,3.261
1,5,3.262
-2,6,3.263
-2,0,3.264
0,-3,3.265
0,-2,3.266
0,-2,3.267
-1,-3,3.268
0,-4,3.269
3,-2,3.27
7,1,3.271
12,1,3.272
15,-1,3.273
13,-2,3.274
9,-1,3.275
6,0,3.276
5,-6,3.277
9,-8,3.278
11,-6,3.279
11,-1,3.28
7,5,3.281
-1,7,3.282
-6,5,3.283
-5,0,3.284
0,-4,3.285
1,-1,3.286
-1,2,3.287
-2,2,3.288
0,-1,3.289
2,1,3.29
4,5,3.291
5,3,3.292
6,-2,3.293
5,-7,3.294
1,-6,3.295
-5,-3,3.296
-10,-6,3.297
-9,-4,3.298
-2,0,3.299
8,3,3.3
11,4,3.301
5,5,3.302
0,4,3.303
0,-1,3.304
2,-5,3.305
1,-3,3.306
1,2,3.307
2,0,3.308
5,-4,3.309
4,-3,3.31
2,1,3.311
2,1,3.312
3,0,3.313
3,0,3.314
4,4,3.315
2,1,3.316
-3,-8,3.317
-6,-10,3.318
-3,-4,3.319
3,1,3.32
4,4,3.321
0,4,3.322
-2,2,3.323
3,-1,3.324
8,-3,3.325
6,-2,3.326
3,-1,3.327
4,-2,3.328
6,-4,3.329
4,-3,3.33
1,0,3.331
2,2,3.332
4,3,3.333
4,0,3.334
3,-2,3.335
3,-3,3.336
-1,-6,3.337
-8,-5,3.338
-5,-3,3.339
4,-1,3.34
8,2,3.341
3,4,3.342
0,5,3.343
4,2,3.344
7,0,3.345
5,2,3.346
3,1,3.347
5,-1,3.348
3,-2,3.349
0,-1,3.35
1,-3,3.351
6,-5,3.352
10,-6,3.353
8,-4,3.354
3,-1,3.355
-1,0,3.356
-3,-4,3.357
-3,-6,3.358
1,-6,3.359
6,-3,3.36
4,2,3.361
0,5,3.362
-1,1,3.363
3,-4,3.364
6,-3,3.365
6,3,3.366
3,6,3.367
1,1,3.368
-1,-3,3.369
-2,1,3.37
-1,4,3.371
0,0,3.372
0,-2,3.373
-3,-2,3.374
-5,1,3.375
-7,1,3.376
-6,-4,3.377
-2,-7,3.378
6,-7,3.379
18,-4,3.38
25,0,3.381
20,2,3.382
9,3,3.383
3,2,3.384
5,1,3.385
8,3,3.386
4,3,3.387
0,0,3.388
0,0,3.389
4,0,3.39
5,0,3.391
5,1,3.392
5,4,3.393
3,3,3.394
-1,0,3.395
-6,-5,3.396
-9,-6,3.397
-8,-3,3.398
-7,-1,3.399
-3,0,3.4
1,2,3.401
4,4,3.402
3,2,3.403
2,0,3.404
3,0,3.405
3,3,3.406
3,4,3.407
3,2,3.408
3,2,3.409
1,4,3.41
0,3,3.411
2,-2,3.412
4,-5,3.413
0,-4,3.414
-5,-2,3.415
-10,-1,3.416
-10,-5,3.417
-7,-8,3.418
1,-5,3.419
8,-1,3.42
6,0,3.421
5,2,3.422
5,0,3.423
5,-2,3.424
9,-2,3.425
12,-1,3.426
10,-1,3.427
7,0,3.428
4,-1,3.429
2,-2,3.43
1,-2,3.431
0,-2,3.432
3,0,3.433
7,2,3.434
7,0,3.435
0,-3,3.436
-5,-6,3.437
-4,-3,3.438
2,0,3.439
8,0,3.44
6,-1,3.441
1,0,3.442
2,1,3.443
7,-1,3.444
4,-3,3.445
-2,-1,3.446
-3,2,3.447
2,2,3.448
6,0,3.449
5,0,3.45
1,2,3.451
1,2,3.452
1,0,3.453
0,-3,3.454
-1,-2,3.455
-1,-2,3.456
-3,-6,3.457
-3,-7,3.458
4,-4,3.459
12,-1,3.46
12,0,3.461
7,1,3.462
4,2,3.463
7,1,3.464
7,0,3.465
3,-2,3.466
2,-3,3.467
4,-4,3.468
3,-4,3.469
0,-1,3.47
0,1,3.471
1,-1,3.472
2,-4,3.473
1,-5,3.474
-1,-2,3.475
-1,0,3.476
-2,-2,3.477
-1,-4,3.478
6,-4,3.479
15,-2,3.48
13,1,3.481
3,2,3.482
2,1,3.483
11,1,3.484
14,2,3.485
5,4,3.486
1,3,3.487
6,2,3.488
10,1,3.489
4,1,3.49
-2,0,3.491
-2,0,3.492
-2,2,3.493
-5,2,3.494
-5,0,3.495
-6,-4,3.496
-8,-7,3.497
-10,-4,3.498
-5,-2,3.499
4,-2,3.5
7,0,3.501
3,6,3.502
2,7,3.503
7,5,3.504
8,3,3.505
3,2,3.506
-1,0,3.507
1,-2,3.508
4,-1,3.509
5,0,3.51
4,-1,3.511
4,-2,3.512
3,0,3.513
0,1,3.514
-3,1,3.515
-7,-2,3.516
-10,-7,3.517
-10,-7,3.518
-3,-9,3.519
3,-7,3.52
1,-2,3.521
-3,3,3.522
-4,3,3.523
3,0,3.524
6,-1,3.525
5,0,3.526
5,0,3.527
9,-2,3.528
12,-4,3.529
9,-3,3.53
10,-2,3.531
13,0,3.532
10,1,3.533
4,0,3.534
-2,-2,3.535
-4,-4,3.536
-7,-6,3.537
-9,-5,3.538
-4,-4,3.539
7,0,3.54
8,5,3.541
1,5,3.542
-1,0,3.543
7,-4,3.544
11,-1,3.545
6,2,3.546
6,2,3.547
14,-1,3.548
16,-1,3.549
9,2,3.55
1,3,3.551
1,2,3.552
1,4,3.553
-2,3,3.554
-3,-1,3.555
-1,-5,3.556
-1,-6,3.557
-5,-4,3.558
-4,-3,3.559
2,-4,3.56
7,0,3.561
3,5,3.562
3,6,3.563
8,0,3.564
12,-1,3.565
6,0,3.566
0,0,3.567
1,0,3.568
5,2,3.569
3,6,3.57
0,6,3.571
-1,-1,3.572
0,-6,3.573
-2,-7,3.574
-5,-4,3.575
-6,-3,3.576
-6,-6,3.577
-7,-5,3.578
-3,-3,3.579
5,0,3.58
11,3,3.581
11,5,3.582
8,2,3.583
10,-2,3.584
14,-3,3.585
13,1,3.586
8,4,3.587
4,0,3.588
3,-2,3.589
-1,1,3.59
-5,4,3.591
-3,3,3.592
3,1,3.593
7,1,3.594
5,2,3.595
1,-1,3.596
-2,-6,3.597
-2,-6,3.598
0,-1,3.599
1,1,3.6
2,2,3.601
0,2,3.602
0,2,3.603
1,-1,3.604
2,-3,3.605
0,-1,3.606
-3,2,3.607
-3,1,3.608
2,-1,3.609
6,0,3.61
6,3,3.611
5,1,3.612
6,-2,3.613
6,-5,3.614
7,-3,3.615
5,-2,3.616
1,-6,3.617
-2,-5,3.618
1,-4,3.619
7,-3,3.62
9,-2,3.621
4,2,3.622
0,6,3.623
3,4,3.624
8,-1,3.625
6,-3,3.626
1,0,3.627
0,2,3.628
3,2,3.629
0,2,3.63
-4,0,3.631
-4,-2,3.632
2,-2,3.633
4,-1,3.634
0,2,3.635
-6,0,3.636
-6,-7,3.637
-4,-6,3.638
2,-1,3.639
11,3,3.64
13,5,3.641
7,5,3.642
1,4,3.643
2,1,3.644
5,-1,3.645
2,-1,3.646
-3,0,3.647
-3,2,3.648
1,1,3.649
2,-1,3.65
-2,-2,3.651
-4,-1,3.652
-3,1,3.653
-4,0,3.654
-9,-4,3.655
-13,-7,3.656
-13,-6,3.657
-10,-4,3.658
5,-3,3.659
17,-3,3.66
19,-2,3.661
21,1,3.662
20,1,3.663
19,-4,3.664
17,-7,3.665
14,-4,3.666
7,-1,3.667
1,0,3.668
2,-2,3.669
2,-1,3.67
0,0,3.671
-2,0,3.672
-2,0,3.673
-3,-1,3.674
-6,-1,3.675
-12,-3,3.676
-14,-6,3.677
-10,-3,3.678
0,0,3.679
10,2,3.68
10,2,3.681
3,5,3.682
-3,4,3.683
-2,0,3.684
2,0,3.685
2,5,3.686
1,8,3.687
3,3,3.688
6,-2,3.689
5,-1,3.69
1,1,3.691
0,1,3.692
1,2,3.693
1,3,3.694
2,3,3.695
1,-2,3.696
0,-7,3.697
0,-7,3.698
5,-5,3.699
11,-5,3.7
11,-3,3.701
5,1,3.702
2,3,3.703
5,0,3.704
7,-1,3.705
4,1,3.706
0,1,3.707
2,-1,3.708
4,-1,3.709
2,0,3.71
0,0,3.711
2,-2,3.712
7,0,3.713
6,0,3.714
1,-2,3.715
-2,-4,3.716
-4,-6,3.717
-2,-2,3.718
0,0,3.719
6,-3,3.72
10,-3,3.721
7,1,3.722
1,5,3.723
-1,6,3.724
1,6,3.725
3,6,3.726
1,3,3.727
0,-1,3.728
2,-2,3.729
3,0,3.73
0,0,3.731
-1,-2,3.732
1,-2,3.733
5,-4,3.734
5,-7,3.735
1,-8,3.736
-3,-11,3.737
-5,-9,3.738
-3,-4,3.739
3,0,3.74
9,6,3.741
7,8,3.742
7,7,3.743
10,1,3.744
13,-5,3.745
11,-6,3.746
5,-3,3.747
1,2,3.748
1,6,3.749
1,6,3.75
1,3,3.751
4,1,3.752
4,0,3.753
2,0,3.754
-1,0,3.755
-4,-1,3.756
-8,-6,3.757
-12,-10,3.758
-8,-11,3.759
1,-8,3.76
6,-3,3.761
0,0,3.762
-5,2,3.763
-4,3,3.764
2,2,3.765
7,0,3.766
7,0,3.767
4,4,3.768
1,5,3.769
0,2,3.77
0,-2,3.771
2,-1,3.772
6,2,3.773
7,0,3.774
5,-3,3.775
0,-3,3.776
-4,-3,3.777
-1,-3,3.778
6,-4,3.779
12,-4,3.78
10,0,3.781
2,4,3.782
-3,3,3.783
-2,-1,3.784
1,-4,3.785
1,-3,3.786
0,0,3.787
1,1,3.788
1,0,3.789
2,-1,3.79
1,0,3.791
0,0,3.792
0,0,3.793
1,-2,3.794
3,-3,3.795
4,-4,3.796
4,-7,3.797
3,-7,3.798
7,-4,3.799
12,-2,3.8
10,0,3.801
3,3,3.802
2,4,3.803
4,2,3.804
8,-1,3.805
5,-2,3.806
0,-2,3.807
-1,-2,3.808
-3,-1,3.809
-4,2,3.81
-3,6,3.811
-2,5,3.812
-2,3,3.813
-3,2,3.814
-2,2,3.815
-3,0,3.816
-2,-4,3.817
-1,-3,3.818
8,0,3.819
18,2,3.82
20,1,3.821
12,2,3.822
3,1,3.823
2,-1,3.824
3,-2,3.825
2,2,3.826
-3,3,3.827
-4,-2,3.828
-2,-5,3.829
0,-3,3.83
0,0,3.831
-1,-1,3.832
1,-2,3.833
4,0,3.834
2,2,3.835
-3,0,3.836
-6,-8,3.837
-5,-9,3.838
-1,-3,3.839
6,2,3.84
11,4,3.841
7,4,3.842
1,0,3.843
0,-5,3.844
3,-5,3.845
5,0,3.846
3,3,3.847
1,4,3.848
1,1,3.849
5,1,3.85
7,1,3.851
9,0,3.852
7,0,3.853
3,0,3.854
-1,0,3.855
-3,0,3.856
-4,-5,3.857
-4,-6,3.858
0,-6,3.859
4,-2,3.86
4,2,3.861
0,3,3.862
-2,0,3.863
0,-3,3.864
2,-3,3.865
2,0,3.866
5,1,3.867
10,0,3.868
10,0,3.869
4,0,3.87
-1,0,3.871
0,0,3.872
5,1,3.873
6,0,3.874
4,-2,3.875
-3,-4,3.876
-7,-7,3.877
-6,-4,3.878
0,0,3.879
8,2,3.88
10,3,3.881
5,3,3.882
4,2,3.883
8,1,3.884
10,0,3.885
5,0,3.886
-1,0,3.887
-2,0,3.888
0,-1,3.889
3,-3,3.89
4,-5,3.891
5,-5,3.892
6,-2,3.893
3,0,3.894
0,-1,3.895
-3,-2,3.896
-5,-4,3.897
-4,-3,3.898
1,2,3.899
7,4,3.9
8,2,3.901
2,2,3.902
-1,4,3.903
1,4,3.904
5,1,3.905
8,-1,3.906
7,0,3.907
5,0,3.908
3,-3,3.909
-1,-2,3.91
-2,0,3.911
0,1,3.912
3,1,3.913
3,-1,3.914
-1,-4,3.915
-3,-5,3.916
-2,-7,3.917
1,-6,3.918
5,-5,3.919
11,-4,3.92
12,-2,3.921
8,3,3.922
2,3,3.923
1,-2,3.924
2,-4,3.925
-1,0,3.926
-4,4,3.927
-2,2,3.928
3,-3,3.929
4,-3,3.93
0,-1,3.931
-3,0,3.932
-1,1,3.933
-2,0,3.934
-4,-2,3.935
-8,-5,3.936
-9,-7,3.937
-4,-2,3.938
6,0,3.939
16,-2,3.94
18,-2,3.941
14,0,3.942
14,-1,3.943
18,-5,3.944
18,-6,3.945
15,-1,3.946
11,2,3.947
9,-1,3.948
4,-3,3.949
-1,-2,3.95
-3,1,3.951
1,-2,3.952
1,-2,3.953
-4,-2,3.954
-9,-1,3.955
-11,-1,3.956
-11,-5,3.957
-12,-2,3.958
-8,2,3.959
2,5,3.96
8,5,3.961
3,5,3.962
-5,5,3.963
-6,5,3.964
-4,5,3.965
-3,5,3.966
-3,3,3.967
-1,2,3.968
3,1,3.969
2,1,3.97
-2,0,3.971
-4,-3,3.972
-1,-1,3.973
1,2,3.974
0,3,3.975
-4,0,3.976
-7,-7,3.977
-4,-7,3.978
3,-3,3.979
9,0,3.98
11,3,3.981
11,4,3.982
13,3,3.983
17,0,3.984
16,-1,3.985
9,0,3.986
4,1,3.987
6,1,3.988
11,0,3.989
8,-2,3.99
5,-2,3.991
3,-2,3.992
5,-1,3.993
3,-3,3.994
0,-3,3.995
-3,-4,3.996
-3,-8,3.997
0,-9,3.998
6,-9,3.999
10,-6,4.0
7,0,4.001
2,2,4.002
1,0,4.003
6,-4,4.004
11,-3,4.005
7,2,4.006
0,3,4.007
-2,0,4.008
-2,-3,4.009
-1,-2,4.01
-3,2,4.011
-4,2,4.012
-2,1,4.013
-2,-2,4.014
-3,-2,4.015
-5,-1,4.016
-5,-3,4.017
-2,-4,4.018
7,-2,4.019
16,0,4.02
18,2,4.021
19,4,4.022
14,2,4.023
10,1,4.024
10,0,4.025
9,-2,4.026
4,-1,4.027
0,0,4.028
4,1,4.029
6,3,4.03
2,1,4.031
-2,0,4.032
-2,1,4.033
-1,2,4.034
-4,-1,4.035
-8,-3,4.036
-7,-6,4.037
-5,-3,4.038
-2,0,4.039
1,0,4.04
3,0,4.041
2,0,4.042
0,0,4.043
0,-1,4.044
2,0,4.045
2,1,4.046
0,2,4.047
0,0,4.048
2,0,4.049
2,0,4.05
0,1,4.051
0,-3,4.052
4,-5,4.053
4,-4,4.054
0,-1,4.055
-6,-3,4.056
-9,-8,4.057
-8,-10,4.058
-1,-7,4.059
5,-3,4.06
10,-1,4.061
6,0,4.062
3,2,4.063
5,3,4.064
7,3,4.065
5,2,4.066
2,2,4.067
3,0,4.068
7,0,4.069
7,1,4.07
5,3,4.071
4,1,4.072
7,1,4.073
6,-1,4.074
3,-1,4.075
-1,-2,4.076
-4,-6,4.077
-3,-4,4.078
1,-1,4.079
6,1,4.08
5,3,4.081
1,5,4.082
0,5,4.083
2,4,4.084
4,1,4.085
2,0,4.086
0,0,4.087
2,0,4.088
4,1,4.089
2,1,4.09
-1,-1,4.091
-2,-3,4.092
-1,-3,4.093
-1,-3,4.094
-3,-3,4.095
-5,-3,4.096
-7,-6,4.097
-7,-7,4.098
-2,-6,4.099
6,-5,4.1
12,-2,4.101
12,0,4.102
8,0,4.103
8,0,4.104
10,-2,4.105
7,0,4.106
5,2,4.107
7,2,4.108
9,0,4.109
3,-1,4.11
-2,0,4.111
-3,2,4.112
2,3,4.113
5,0,4.114
6,-1,4.115
1,0,4.116
-3,-4,4.117
-5,-6,4.118
-1,-4,4.119
6,0,4.12
10,4,4.121
5,4,4.122
2,0,4.123
4,-2,4.124
6,-1,4.125
3,1,4.126
-1,0,4.127
0,-4,4.128
0,-5,4.129
0,-2,4.13
0,0,4.131
1,-1,4.132
3,-2,4.133
2,-4,4.134
1,-3,4.135
0,-3,4.136
-2,-6,4.137
-2,-6,4.138
2,-2,4.139
6,2,4.14
4,6,4.141
1,7,4.142
3,5,4.143
9,1,4.144
6,1,4.145
0,2,4.146
2,4,4.147
9,1,4.148
10,-1,4.149
1,-2,4.15
-1,-2,4.151
3,-1,4.152
7,2,4.153
2,3,4.154
-4,0,4.155
-5,-3,4.156
-7,-6,4.157
-11,-3,4.158
-8,-1,4.159
3,0,4.16
12,0,4.161
10,1,4.162
5,1,4.163
6,0,4.164
7,-1,4.165
4,0,4.166
2,0,4.167
4,0,4.168
6,-1,4.169
4,-1,4.17
3,-1,4.171
4,0,4.172
6,1,4.173
5,0,4.174
3,-2,4.175
-1,-3,4.176
-5,-6,4.177
-5,-7,4.178
0,-8,4.179
8,-6,4.18
11,1,4.181
6,6,4.182
2,4,4.183
3,-1,4.184
5,-2,4.185
6,1,4.186
8,2,4.187
10,0,4.188
6,-2,4.189
-2,-1,4.19
-5,0,4.191
-3,-2,4.192
0,-4,4.193
0,-3,4.194
-2,-1,4.195
-4,-1,4.196
-5,-4,4.197
-5,-3,4.198
-2,0,4.199
4,0,4.2
8,-1,4.201
4,3,4.202
0,5,4.203
0,1,4.204
2,-1,4.205
3,2,4.206
3,6,4.207
3,2,4.208
1,-3,4.209
-1,-1,4.21
-4,3,4.211
-1,3,4.212
2,-1,4.213
1,-2,4.214
1,0,4.215
-1,-2,4.216
-2,-7,4.217
-1,-9,4.218
4,-5,4.219
8,-1,4.22
8,3,4.221
5,8,4.222
7,5,4.223
12,0,4.224
13,-1,4.225
9,0,4.226
5,0,4.227
3,-2,4.228
1,-3,4.229
-2,0,4.23
0,0,4.231
6,-3,4.232
7,-4,4.233
0,-3,4.234
-4,-1,4.235
-4,-2,4.236
-2,-6,4.237
-3,-5,4.238
-2,-4,4.239
4,-3,4.24
8,1,4.241
5,3,4.242
1,4,4.243
3,2,4.244
7,1,4.245
5,3,4.246
1,3,4.247
1,0,4.248
4,-4,4.249
2,-4,4.25
-1,0,4.251
-1,2,4.252
2,2,4.253
1,-1,4.254
0,-6,4.255
-2,-7,4.256
-3,-6,4.257
-2,-1,4.258
4,1,4.259
10,0,4.26
9,0,4.261
7,4,4.262
5,3,4.263
4,-2,4.264
4,-6,4.265
3,-3,4.266
2,-1,4.267
1,-1,4.268
2,-2,4.269
2,-3,4.27
0,-3,4.271
-1,-1,4.272
0,1,4.273
2,0,4.274
-1,-3,4.275
-4,-7,4.276
-6,-9,4.277
-5,-6,4.278
-2,1,4.279
4,5,4.28
7,3,4.281
3,2,4.282
0,2,4.283
1,3,4.284
4,2,4.285
4,0,4.286
1,-2,4.287
1,-2,4.288
2,1,4.289
1,3,4.29
0,4,4.291
-1,2,4.292
-1,0,4.293
-3,-1,4.294
-4,-3,4.295
-5,-5,4.296
-4,-7,4.297
0,-6,4.298
11,-2,4.299
20,0,4.3
21,-1,4.301
14,0,4.302
6,2,4.303
5,1,4.304
6,0,4.305
6,0,4.306
5,2,4.307
5,2,4.308
5,1,4.309
2,0,4.31
0,1,4.311
0,-1,4.312
0,-1,4.313
0,-3,4.314
-2,-2,4.315
-5,-4,4.316
-10,-9,4.317
-8,-8,4.318
0,-4,4.319
7,-1,4.32
8,0,4.321
4,2,4.322
3,2,4.323
6,-1,4.324
5,-4,4.325
0,-1,4.326
-2,2,4.327
0,0,4.328
1,-1,4.329
-3,3,4.33
-5,6,4.331
-1,3,4.332
5,1,4.333
4,1,4.334
0,3,4.335
-1,1,4.336
0,-7,4.337
0,-6,4.338
1,0,4.339
5,2,4.34
6,0,4.341
5,0,4.342
5,2,4.343
9,3,4.344
9,2,4.345
4,2,4.346
0,1,4.347
2,-1,4.348
3,-2,4.349
0,-1,4.35
-3,1,4.351
-3,0,4.352
0,0,4.353
0,0,4.354
1,1,4.355
0,0,4.356
-1,-6,4.357
-3,-7,4.358
1,-6,4.359
7,-3,4.36
8,2,4.361
2,4,4.362
1,-1,4.363
5,-7,4.364
6,-8,4.365
0,-3,4.366
0,0,4.367
4,-1,4.368
6,-1,4.369
2,-1,4.37
1,-2,4.371
4,-3,4.372
6,-1,4.373
2,0,4.374
-1,1,4.375
-6,-1,4.376
-10,-5,4.377
-10,-3,4.378
-1,0,4.379
11,3,4.38
17,3,4.381
14,4,4.382
11,3,4.383
12,1,4.384
11,2,4.385
7,4,4.386
4,4,4.387
3,1,4.388
0,-2,4.389
-2,-1,4.39
-2,3,4.391
2,4,4.392
6,3,4.393
6,-1,4.394
0,-1,4.395
-8,-1,4.396
-11,-5,4.397
-6,-4,4.398
2,-2,4.399
5,2,4.4
3,3,4.401
2,2,4.402
6,0,4.403
11,-3,4.404
11,-4,4.405
4,0,4.406
0,1,4.407
2,0,4.408
7,-3,4.409
11,-3,4.41
7,-1,4.411
3,-1,4.412
4,0,4.413
6,0,4.414
3,3,4.415
-5,0,4.416
-10,-7,4.417
-7,-8,4.418
-1,-3,4.419
4,2,4.42
4,3,4.421
1,2,4.422
-1,3,4.423
2,2,4.424
7,-1,4.425
6,-2,4.426
0,-1,4.427
-3,1,4.428
1,1,4.429
4,1,4.43
2,0,4.431
0,1,4.432
4,0,4.433
10,-1,4.434
8,-1,4.435
0,-4,4.436
-5,-11,4.437
-3,-10,4.438
2,-5,4.439
6,0,4.44
8,1,4.441
4,1,4.442
0,2,4.443
0,0,4.444
3,-4,4.445
5,-4,4.446
3,0,4.447
1,1,4.448
1,0,4.449
1,-2,4.45
0,0,4.451
-1,0,4.452
1,-1,4.453
0,-2,4.454
-1,-2,4.455
-6,-1,4.456
-7,-5,4.457
-4,-6,4.458
0,-4,4.459
7,1,4.46
13,2,4.461
15,4,4.462
13,7,4.463
13,6,4.464
12,2,4.465
7,0,4.466
4,1,4.467
2,4,4.468
1,3,4.469
0,-2,4.47
-2,-4,4.471
-1,-3,4.472
0,0,4.473
-2,-2,4.474
-5,-4,4.475
-10,-4,4.476
-15,-7,4.477
-14,-7,4.478
-1,-5,4.479
14,-2,4.48
19,1,4.481
13,3,4.482
4,3,4.483
4,1,4.484
9,1,4.485
8,2,4.486
5,3,4.487
3,2,4.488
4,0,4.489
6,-1,4.49
5,0,4.491
2,0,4.492
-2,2,4.493
-8,0,4.494
-11,-3,4.495
-13,-6,4.496
-12,-9,4.497
-6,-7,4.498
7,-2,4.499
20,2,4.5
20,5,4.501
11,4,4.502
5,1,4.503
6,-2,4.504
4,-2,4.505
-2,1,4.506
-5,2,4.507
-4,-1,4.508
-3,-3,4.509
-3,-1,4.51
-1,3,4.511
4,4,4.512
8,4,4.513
4,1,4.514
2,-1,4.515
-1,-3,4.516
-5,-6,4.517
-7,-7,4.518
1,-4,4.519
13,-1,4.52
14,1,4.521
4,1,4.522
1,1,4.523
7,0,4.524
9,2,4.525
3,3,4.526
-2,1,4.527
3,-1,4.528
8,-1,4.529
2,1,4.53
-2,1,4.531
2,-2,4.532
9,-2,4.533
8,-1,4.534
2,0,4.535
-3,1,4.536
-2,-1,4.537
-1,-3,4.538
2,-1,4.539
4,0,4.54
3,1,4.541
0,1,4.542
5,0,4.543
15,-3,4.544
15,-3,4.545
0,-4,4.546
-11,-4,4.547
-7,-3,4.548
4,-2,4.549
7,0,4.55
2,1,4.551
3,3,4.552
10,1,4.553
13,0,4.554
8,0,4.555
-4,2,4.556
-16,0,4.557
-21,-2,4.558
-16,-3,4.559
-8,-3,4.56
-5,1,4.561
-2,4,4.562
9,3,4.563
23,-2,4.564
23,-4,4.565
13,-1,4.566
4,0,4.567
7,-4,4.568
14,-5,4.569
17,0,4.57
15,6,4.571
5,5,4.572
-8,3,4.573
-18,0,4.574
-15,-2,4.575
-7,-6,4.576
-4,-12,4.577
-3,-11,4.578
3,-6,4.579
10,-3,4.58
6,0,4.581
-2,3,4.582
-2,3,4.583
5,-1,4.584
7,-7,4.585
0,-7,4.586
-3,-2,4.587
4,0,4.588
17,0,4.589
33,-1,4.59
46,1,4.591
51,5,4.592
39,6,4.593
11,2,4.594
-15,-1,4.595
-27,-1,4.596
-27,-3,4.597
-19,-6,4.598
-1,-8,4.599
17,-5,4.6
15,3,4.601
-11,7,4.602
-37,2,4.603
-39,-4,4.604
-24,-2,4.605
-16,3,4.606
-17,5,4.607
-11,1,4.608
1,0,4.609
8,2,4.61
7,1,4.611
5,0,4.612
11,2,4.613
12,3,4.614
4,2,4.615
-4,-3,4.616
-5,-8,4.617
0,-5,4.618
6,-4,4.619
9,0,4.62
10,4,4.621
11,8,4.622
10,7,4.623
11,2,4.624
13,0,4.625
14,2,4.626
14,3,4.627
14,-1,4.628
10,-3,4.629
4,-1,4.63
-2,1,4.631
-4,0,4.632
-3,1,4.633
-1,0,4.634
0,-2,4.635
-1,-7,4.636
-4,-11,4.637
-4,-6,4.638
6,-2,4.639
19,1,4.64
23,2,4.641
14,4,4.642
4,5,4.643
1,4,4.644
5,6,4.645
7,12,4.646
7,21,4.647
4,26,4.648
-2,22,4.649
-5,8,4.65
-4,-10,4.651
0,-18,4.652
2,-3,4.653
-4,32,4.654
-10,62,4.655
-14,59,4.656
-15,14,4.657
-12,-46,4.658
-5,-94,4.659
3,-111,4.66
7,-96,4.661
9,-58,4.662
10,-7,4.663
10,37,4.664
4,55,4.665
-3,46,4.666
-1,26,4.667
6,3,4.668
7,-19,4.669
2,-39,4.67
-1,-50,4.671
2,-47,4.672
10,-36,4.673
10,-20,4.674
3,0,4.675
-5,16,4.676
-6,16,4.677
0,13,4.678
6,18,4.679
9,28,4.68
8,30,4.681
3,25,4.682
0,22,4.683
2,20,4.684
11,13,4.685
21,5,4.686
27,5,4.687
27,10,4.688
22,11,4.689
15,7,4.69
5,3,4.691
0,1,4.692
-4,0,4.693
-8,-4,4.694
-5,-3,4.695
-1,-1,4.696
-1,-4,4.697
-1,-2,4.698
4,1,4.699
16,7,4.7
20,8,4.701
13,8,4.702
0,13,4.703
-8,27,4.704
-14,45,4.705
-20,61,4.706
-23,64,4.707
-14,50,4.708
-2,24,4.709
3,4,4.71
0,0,4.711
-2,2,4.712
-1,7,4.713
-2,0,4.714
-4,-28,4.715
-4,-76,4.716
-4,-130,4.717
-2,-161,4.718
0,-162,4.719
4,-141,4.72
5,-107,4.721
3,-68,4.722
2,-37,4.723
7,-17,4.724
12,1,4.725
12,27,4.726
10,47,4.727
12,51,4.728
12,51,4.729
5,57,4.73
0,63,4.731
3,56,4.732
11,47,4.733
10,44,4.734
2,42,4.735
-6,39,4.736
-12,30,4.737
-15,22,4.738
-2,20,4.739
8,19,4.74
7,19,4.741
5,21,4.742
0,25,4.743
-3,32,4.744
-1,52,4.745
-1,77,4.746
-8,119,4.747
-14,144,4.748
-14,117,4.749
-13,75,4.75
-13,-9,4.751
-11,-88,4.752
-1,-148,4.753
7,-199,4.754
11,-204,4.755
14,-169,4.756
19,-112,4.757
25,-63,4.758
28,-50,4.759
26,-60,4.76
18,-56,4.761
5,-33,4.762
0,-10,4.763
2,0,4.764
1,21,4.765
-6,54,4.766
-9,82,4.767
-2,89,4.768
6,80,4.769
5,72,4.77
2,76,4.771
6,89,4.772
13,100,4.773
13,75,4.774
2,10,4.775
-4,-62,4.776
-4,-102,4.777
-1,-107,4.778
3,-104,4.779
4,-99,4.78
1,-74,4.781
-6,-36,4.782
-6,-21,4.783
0,-29,4.784
4,-25,4.785
-2,1,4.786
-8,25,4.787
-9,29,4.788
-5,29,4.789
-5,39,4.79
-7,47,4.791
-7,43,4.792
-2,34,4.793
-1,28,4.794
0,23,4.795
0,17,4.796
1,11,4.797
0,14,4.798
0,18,4.799
2,22,4.8
1,24,4.801
-5,25,4.802
-5,19,4.803
9,12,4.804
30,6,4.805
38,-2,4.806
29,-14,4.807
14,-19,4.808
0,-12,4.809
-3,6,4.81
-4,17,4.811
-4,14,4.812
-5,8,4.813
-10,-2,4.814
-10,-8,4.815
-8,-10,4.816
-4,-8,4.817
1,3,4.818
12,29,4.819
21,61,4.82
21,85,4.821
12,80,4.822
2,41,4.823
0,-9,4.824
1,-38,4.825
-1,-40,4.826
-4,-20,4.827
1,13,4.828
8,39,4.829
10,15,4.83
9,-80,4.831
10,-198,4.832
11,-263,4.833
5,-260,4.834
0,-212,4.835
-1,-137,4.836
1,-41,4.837
-1,51,4.838
-5,91,4.839
-2,81,4.84
5,71,4.841
3,88,4.842
-3,103,4.843
-4,103,4.844
0,107,4.845
1,128,4.846
2,142,4.847
12,133,4.848
18,113,4.849
16,86,4.85
5,39,4.851
0,-25,4.852
0,-76,4.853
-4,-92,4.854
-4,-85,4.855
-3,-82,4.856
-2,-99,4.857
-6,-111,4.858
-6,-94,4.859
-1,-56,4.86
-1,-18,4.861
-7,16,4.862
-11,62,4.863
-4,116,4.864
0,139,4.865
-2,107,4.866
0,53,4.867
13,15,4.868
22,-19,4.869
17,-88,4.87
8,-174,4.871
8,-222,4.872
13,-209,4.873
6,-161,4.874
-2,-110,4.875
-5,-59,4.876
0,-5,4.877
5,48,4.878
11,87,4.879
14,104,4.88
9,96,4.881
0,67,4.882
0,36,4.883
10,19,4.884
12,15,4.885
0,12,4.886
-10,20,4.887
-7,50,4.888
0,83,4.889
-2,87,4.89
-8,61,4.891
-9,34,4.892
-4,24,4.893
-2,9,4.894
-4,-9,4.895
-7,-21,4.896
-4,-20,4.897
2,-13,4.898
8,-12,4.899
11,-9,4.9
8,2,4.901
6,11,4.902
8,9,4.903
12,6,4.904
9,9,4.905
2,9,4.906
0,4,4.907
4,0,4.908
10,3,4.909
10,9,4.91
9,8,4.911
9,0,4.912
10,-4,4.913
6,-7,4.914
-3,-5,4.915
-16,-4,4.916
-23,-7,4.917
-24,-11,4.918
-21,-9,4.919
-20,-3,4.92
-23,0,4.921
-22,-4,4.922
-8,-12,4.923
10,-14,4.924
22,-11,4.925
29,-9,4.926
37,-10,4.927
44,-8,4.928
42,-3,4.929
36,0,4.93
31,-3,4.931
29,-5,4.932
24,-1,4.933
15,8,4.934
10,23,4.935
0,40,4.936
-13,51,4.937
-26,46,4.938
-31,19,4.939
-22,-14,4.94
-12,-36,4.941
-8,-46,4.942
-7,-54,4.943
-8,-58,4.944
-14,-46,4.945
-27,-29,4.946
-30,-23,4.947
-13,-26,4.948
12,-20,4.949
20,-5,4.95
12,4,4.951
7,0,4.952
14,-1,4.953
17,4,4.954
10,11,4.955
-1,9,4.956
0,2,4.957
4,5,4.958
8,12,4.959
13,16,4.96
15,17,4.961
13,17,4.962
9,15,4.963
8,12,4.964
9,10,4.965
6,11,4.966
2,9,4.967
2,4,4.968
2,3,4.969
-2,10,4.97
-5,15,4.971
3,12,4.972
24,4,4.973
46,-3,4.974
66,-4,4.975
67,-4,4.976
38,-13,4.977
-10,-22,4.978
-52,-20,4.979
-68,-9,4.98
-66,1,4.981
-59,4,4.982
-43,3,4.983
-24,3,4.984
-19,2,4.985
-36,3,4.986
-50,6,4.987
-36,8,4.988
-7,8,4.989
8,2,4.99
8,-3,4.991
9,-5,4.992
16,-4,4.993
25,-6,4.994
38,-9,4.995
51,-13,4.996
54,-17,4.997
46,-17,4.998
36,-12,4.999
27,-7,5.0
7,-1,5.001
-21,7,5.002
-33,12,5.003
-23,10,5.004
-9,8,5.005
0,15,5.006
8,30,5.007
21,40,5.008
24,42,5.009
15,44,5.01
7,59,5.011
12,88,5.012
19,115,5.013
18,113,5.014
15,68,5.015
11,5,5.016
3,-36,5.017
-2,-51,5.018
0,-77,5.019
9,-134,5.02
8,-186,5.021
0,-202,5.022
-1,-201,5.023
6,-206,5.024
6,-184,5.025
0,-101,5.026
-2,0,5.027
4,43,5.028
7,30,5.029
3,29,5.03
0,61,5.031
3,83,5.032
8,78,5.033
3,71,5.034
-3,80,5.035
-7,82,5.036
-10,56,5.037
-14,36,5.038
-10,36,5.039
-2,43,5.04
1,39,5.041
-3,34,5.042
-7,33,5.043
-3,29,5.044
2,18,5.045
-1,12,5.046
-4,12,5.047
-4,10,5.048
-3,2,5.049
-5,-1,5.05
-6,1,5.051
-1,0,5.052
7,-2,5.053
7,-3,5.054
3,-3,5.055
1,-5,5.056
4,-11,5.057
8,-12,5.058
13,-12,5.059
18,-12,5.06
15,-9,5.061
6,-1,5.062
-2,3,5.063
-1,0,5.064
3,-5,5.065
4,-2,5.066
0,0,5.067
1,-5,5.068
6,-8,5.069
7,-5,5.07
7,0,5.071
6,-1,5.072
5,-2,5.073
1,-2,5.074
-1,0,5.075
-1,-4,5.076
-2,-11,5.077
-4,-13,5.078
-2,-11,5.079
4,-11,5.08
11,-10,5.081
10,-1,5.082
2,9,5.083
-4,8,5.084
-8,1,5.085
-9,-4,5.086
-9,-6,5.087
-10,-7,5.088
-8,-11,5.089
-3,-9,5.09
2,-3,5.091
6,0,5.092
9,1,5.093
7,0,5.094
4,0,5.095
3,0,5.096
8,-6,5.097
13,-7,5.098
12,-4,5.099
6,-1,5.1
0,0,5.101
-2,0,5.102
0,0,5.103
0,-1,5.104
-5,-1,5.105
-7,2,5.106
-1,5,5.107
8,7,5.108
11,9,5.109
4,11,5.11
-7,10,5.111
-12,4,5.112
-2,1,5.113
14,0,5.114
25,0,5.115
24,-4,5.116
24,-12,5.117
38,-12,5.118
61,-7,5.119
74,-2,5.12
62,1,5.121
27,1,5.122
-19,1,5.123
-59,2,5.124
-76,2,5.125
-71,1,5.126
-60,2,5.127
-54,5,5.128
-50,7,5.129
-33,5,5.13
-9,-1,5.131
9,-6,5.132
14,-4,5.133
14,-2,5.134
14,-3,5.135
12,-7,5.136
6,-12,5.137
7,-9,5.138
15,-3,5.139
22,1,5.14
20,3,5.141
16,5,5.142
16,7,5.143
19,5,5.144
21,7,5.145
22,14,5.146
20,27,5.147
15,36,5.148
4,42,5.149
-1,47,5.15
-1,50,5.151
2,38,5.152
6,9,5.153
10,-35,5.154
13,-70,5.155
6,-78,5.156
-5,-68,5.157
-10,-54,5.158
-5,-47,5.159
3,-45,5.16
5,-42,5.161
2,-39,5.162
0,-33,5.163
2,-20,5.164
3,-2,5.165
4,13,5.166
5,22,5.167
6,28,5.168
6,31,5.169
6,31,5.17
6,27,5.171
5,24,5.172
0,21,5.173
-11,14,5.174
-19,7,5.175
-13,5,5.176
6,6,5.177
27,6,5.178
31,3,5.179
13,2,5.18
-12,4,5.181
-17,5,5.182
-2,2,5.183
11,2,5.184
0,11,5.185
-29,24,5.186
-53,28,5.187
-62,20,5.188
-52,14,5.189
-26,17,5.19
4,24,5.191
21,23,5.192
24,15,5.193
25,4,5.194
33,-3,5.195
38,-3,5.196
33,0,5.197
28,11,5.198
32,24,5.199
35,40,5.2
29,67,5.201
22,96,5.202
21,89,5.203
19,16,5.204
5,-105,5.205
-11,-210,5.206
-20,-251,5.207
-21,-231,5.208
-17,-167,5.209
-9,-78,5.21
-2,8,5.211
2,50,5.212
2,44,5.213
0,22,5.214
2,15,5.215
2,15,5.216
-3,2,5.217
-3,-3,5.218
2,16,5.219
10,44,5.22
8,52,5.221
3,46,5.222
3,39,5.223
7,37,5.224
5,32,5.225
0,28,5.226
-1,29,5.227
1,32,5.228
0,27,5.229
-1,19,5.23
2,16,5.231
4,18,5.232
4,27,5.233
2,39,5.234
5,51,5.235
3,55,5.236
-5,37,5.237
-12,6,5.238
-10,-30,5.239
-7,-61,5.24
-9,-76,5.241
-12,-74,5.242
-6,-59,5.243
3,-38,5.244
2,-17,5.245
-4,-7,5.246
-4,-9,5.247
1,-11,5.248
3,-3,5.249
0,9,5.25
0,13,5.251
8,11,5.252
13,16,5.253
16,23,5.254
29,23,5.255
44,16,5.256
49,19,5.257
34,36,5.258
11,45,5.259
-7,33,5.26
-19,14,5.261
-31,5,5.262
-40,-3,5.263
-39,-26,5.264
-31,-60,5.265
-25,-76,5.266
-17,-67,5.267
-3,-51,5.268
8,-43,5.269
11,-33,5.27
6,-14,5.271
8,6,5.272
17,18,5.273
21,15,5.274
17,11,5.275
11,11,5.276
8,9,5.277
12,12,5.278
16,18,5.279
17,24,5.28
15,23,5.281
12,21,5.282
10,18,5.283
11,17,5.284
10,17,5.285
10,19,5.286
7,19,5.287
5,12,5.288
0,0,5.289
-7,-7,5.29
-9,-9,5.291
-7,-9,5.292
-9,-10,5.293
-20,-12,5.294
-30,-9,5.295
-27,-3,5.296
-14,-3,5.297
1,-6,5.298
8,-5,5.299
7,2,5.3
5,9,5.301
3,6,5.302
5,-4,5.303
8,-5,5.304
8,16,5.305
10,48,5.306
12,72,5.307
9,75,5.308
4,59,5.309
2,32,5.31
5,-4,5.311
5,-40,5.312
1,-65,5.313
0,-83,5.314
3,-91,5.315
6,-88,5.316
3,-77,5.317
1,-60,5.318
11,-46,5.319
23,-30,5.32
22,1,5.321
8,45,5.322
-8,82,5.323
-11,93,5.324
-6,82,5.325
-2,60,5.326
-1,34,5.327
2,-10,5.328
7,-71,5.329
9,-122,5.33
5,-128,5.331
2,-91,5.332
4,-44,5.333
2,-4,5.334
-3,28,5.335
-9,48,5.336
-10,44,5.337
-4,29,5.338
4,24,5.339
9,27,5.34
9,16,5.341
3,-15,5.342
-1,-40,5.343
0,-42,5.344
5,-36,5.345
7,-35,5.346
6,-29,5.347
5,-11,5.348
5,9,5.349
3,24,5.35
0,34,5.351
-2,40,5.352
-1,41,5.353
-2,37,5.354
-5,39,5.355
-12,47,5.356
-13,44,5.357
-9,32,5.358
-2,22,5.359
7,24,5.36
12,28,5.361
10,23,5.362
12,10,5.363
17,2,5.364
20,0,5.365
16,-1,5.366
6,-2,5.367
1,-4,5.368
0,-3,5.369
-4,-1,5.37
-10,-1,5.371
-14,-2,5.372
-11,-2,5.373
-6,-5,5.374
-3,-9,5.375
-4,-14,5.376
-8,-18,5.377
-9,-17,5.378
-4,-12,5.379
5,-7,5.38
11,-2,5.381
6,2,5.382
4,6,5.383
10,9,5.384
15,8,5.385
14,1,5.386
11,-3,5.387
12,0,5.388
12,7,5.389
4,5,5.39
-3,-13,5.391
-2,-35,5.392
2,-47,5.393
5,-50,5.394
5,-47,5.395
3,-38,5.396
2,-23,5.397
0,-4,5.398
2,6,5.399
10,7,5.4
13,10,5.401
11,17,5.402
7,21,5.403
5,16,5.404
7,8,5.405
4,8,5.406
4,10,5.407
4,7,5.408
3,2,5.409
1,1,5.41
-2,1,5.411
-2,0,5.412
-1,2,5.413
-2,4,5.414
-4,4,5.415
-8,0,5.416
-9,-7,5.417
-2,-7,5.418
10,-4,5.419
16,0,5.42
8,4,5.421
-3,4,5.422
-3,2,5.423
3,2,5.424
3,6,5.425
-1,8,5.426
0,4,5.427
10,-1,5.428
15,-2,5.429
12,1,5.43
6,3,5.431
2,1,5.432
0,0,5.433
-1,-2,5.434
-2,-8,5.435
-4,-12,5.436
-7,-16,5.437
-7,-11,5.438
0,-2,5.439
6,6,5.44
2,11,5.441
-7,12,5.442
-8,11,5.443
-2,6,5.444
2,6,5.445
3,5,5.446
7,1,5.447
15,-4,5.448
19,-7,5.449
14,-5,5.45
6,-6,5.451
3,-9,5.452
5,-9,5.453
4,-7,5.454
0,-6,5.455
-5,-7,5.456
-6,-7,5.457
-5,1,5.458
-2,8,5.459
4,9,5.46
5,8,5.461
1,10,5.462
-1,9,5.463
3,2,5.464
9,-3,5.465
8,-2,5.466
3,0,5.467
0,-2,5.468
2,-5,5.469
-1,-3,5.47
-7,-2,5.471
-11,-7,5.472
-10,-7,5.473
-10,-2,5.474
-7,2,5.475
-2,-5,5.476
5,-20,5.477
8,-23,5.478
10,-13,5.479
11,-2,5.48
8,6,5.481
1,12,5.482
-3,18,5.483
-3,19,5.484
1,14,5.485
4,8,5.486
6,0,5.487
9,-7,5.488
13,-9,5.489
14,-4,5.49
9,0,5.491
5,-1,5.492
3,-4,5.493
0,-4,5.494
-2,-2,5.495
-4,-1,5.496
-4,-5,5.497
-1,-8,5.498
6,-7,5.499
11,-5,5.5
7,-1,5.501
3,3,5.502
0,2,5.503
-2,1,5.504
0,0,5.505
1,-1,5.506
0,-1,5.507
0,0,5.508
3,2,5.509
5,4,5.51
3,3,5.511
2,1,5.512
5,0,5.513
8,-3,5.514
3,-5,5.515
-2,-10,5.516
-5,-12,5.517
-2,-10,5.518
5,-6,5.519
13,-5,5.52
14,0,5.521
5,7,5.522
-4,9,5.523
-4,1,5.524
0,-6,5.525
4,-4,5.526
3,0,5.527
1,0,5.528
0,-1,5.529
0,2,5.53
-2,4,5.531
-2,5,5.532
1,5,5.533
5,4,5.534
8,5,5.535
5,2,5.536
2,-3,5.537
3,-6,5.538
8,-7,5.539
10,-4,5.54
7,1,5.541
1,7,5.542
0,6,5.543
2,0,5.544
3,-3,5.545
1,0,5.546
-1,3,5.547
0,1,5.548
2,-3,5.549
1,-1,5.55
-2,2,5.551
-5,1,5.552
-1,0,5.553
0,-3,5.554
-1,-2,5.555
-6,0,5.556
-7,-2,5.557
-4,-4,5.558
3,-5,5.559
9,-3,5.56
10,0,5.561
11,3,5.562
11,3,5.563
7,2,5.564
2,5,5.565
-3,7,5.566
-5,7,5.567
-4,3,5.568
0,1,5.569
5,1,5.57
8,-1,5.571
8,-7,5.572
11,-8,5.573
9,-6,5.574
4,-3,5.575
-1,-2,5.576
-4,-5,5.577
-2,-3,5.578
2,0,5.579
4,0,5.58
-1,0,5.581
-6,2,5.582
-7,0,5.583
0,-3,5.584
11,-4,5.585
17,3,5.586
16,10,5.587
14,8,5.588
10,0,5.589
6,-5,5.59
7,-4,5.591
8,-1,5.592
8,0,5.593
2,-1,5.594
-2,-1,5.595
-6,-3,5.596
-11,-7,5.597
-15,-7,5.598
-11,0,5.599
-1,9,5.6
3,11,5.601
1,5,5.602
4,-3,5.603
14,-4,5.604
18,1,5.605
12,5,5.606
3,3,5.607
0,-3,5.608
-1,-6,5.609
-4,-2,5.61
-5,2,5.611
-4,4,5.612
-2,3,5.613
-1,-4,5.614
1,-11,5.615
0,-14,5.616
-4,-12,5.617
-6,-8,5.618
1,-5,5.619
11,-1,5.62
9,6,5.621
1,11,5.622
1,7,5.623
7,-1,5.624
6,-1,5.625
0,4,5.626
-1,6,5.627
4,3,5.628
4,2,5.629
2,4,5.63
4,1,5.631
9,-4,5.632
11,-4,5.633
5,-3,5.634
3,-4,5.635
0,-9,5.636
-5,-12,5.637
-8,-7,5.638
-2,-5,5.639
8,-6,5.64
10,-5,5.641
4,2,5.642
2,11,5.643
6,9,5.644
7,2,5.645
3,0,5.646
3,3,5.647
6,5,5.648
4,2,5.649
-2,1,5.65
-5,1,5.651
-3,0,5.652
0,0,5.653
2,2,5.654
4,3,5.655
2,0,5.656
-4,-6,5.657
-8,-6,5.658
-1,-1,5.659
8,0,5.66
6,0,5.661
-5,1,5.662
-10,3,5.663
0,0,5.664
14,-3,5.665
18,-2,5.666
14,1,5.667
8,0,5.668
4,-3,5.669
1,-1,5.67
0,5,5.671
-2,6,5.672
-3,4,5.673
-11,4,5.674
-1,3,5.675
5,2,5.676
3,2,5.677
2,1,5.678
6,4,5.679
9,4,5.68
9,5,5.681
9,6,5.682
9,4,5.683
11,4,5.684
8,4,5.685
7,3,5.686
8,4,5.687
9,6,5.688
5,10,5.689
0,12,5.69
-1,7,5.691
-4,3,5.692
-5,-3,5.693
-9,2,5.694
-1,0,5.695
5,-1,5.696
3,-2,5.697
2,-3,5.698
6,2,5.699
9,6,5.7
9,8,5.701
9,10,5.702
9,6,5.703
10,3,5.704
8,2,5.705
7,1,5.706
8,4,5.707
9,9,5.708
5,17,5.709
0,21,5.71
-1,12,5.711
-3,1,5.712
-4,-12,5.713
-5,-23,5.714
-10,-23,5.715
-14,-18,5.716
-14,-15,5.717
-6,-9,5.718
10,-5,5.719
21,-8,5.72
22,-15,5.721
15,-18,5.722
12,-16,5.723
12,-13,5.724
10,-10,5.725
3,-5,5.726
0,-1,5.727
0,0,5.728
1,2,5.729
-1,13,5.73
-6,27,5.731
-8,34,5.732
-5,34,5.733
-4,27,5.734
-4,21,5.735
-6,11,5.736
-5,-5,5.737
0,-21,5.738
7,-31,5.739
9,-33,5.74
6,-29,5.741
0,-21,5.742
-1,-13,5.743
1,-5,5.744
2,7,5.745
0,15,5.746
-2,17,5.747
-1,14,5.748
-1,12,5.749
-3,12,5.75
-4,14,5.751
-3,13,5.752
1,15,5.753
1,17,5.754
-1,13,5.755
-1,1,5.756
3,-12,5.757
11,-17,5.758
15,-19,5.759
16,-21,5.76
12,-21,5.761
8,-17,5.762
4,-14,5.763
3,-14,5.764
2,-10,5.765
2,4,5.766
2,34,5.767
5,81,5.768
8,139,5.769
6,184,5.77
1,183,5.771
0,146,5.772
2,107,5.773
2,69,5.774
-2,10,5.775
-9,-77,5.776
-11,-170,5.777
-7,-233,5.778
1,-280,5.779
11,-312,5.78
15,-306,5.781
12,-244,5.782
7,-152,5.783
9,-75,5.784
8,-12,5.785
2,44,5.786
-3,79,5.787
-1,81,5.788
5,68,5.789
8,67,5.79
7,78,5.791
10,79,5.792
14,74,5.793
12,73,5.794
5,74,5.795
-2,71,5.796
-6,70,5.797
-7,85,5.798
-8,108,5.799
-3,115,5.8
1,92,5.801
-3,45,5.802
-11,-10,5.803
-15,-55,5.804
-10,-70,5.805
-1,-56,5.806
4,-32,5.807
7,-14,5.808
9,-3,5.809
11,7,5.81
8,34,5.811
3,85,5.812
4,140,5.813
3,175,5.814
2,168,5.815
-1,126,5.816
-5,61,5.817
-6,-10,5.818
-1,-77,5.819
6,-118,5.82
7,-114,5.821
1,-74,5.822
-2,-31,5.823
0,-13,5.824
1,-19,5.825
-1,-41,5.826
-1,-77,5.827
4,-119,5.828
4,-148,5.829
-3,-154,5.83
-8,-142,5.831
-4,-119,5.832
5,-85,5.833
4,-49,5.834
-4,-43,5.835
-10,-80,5.836
-7,-128,5.837
4,-138,5.838
22,-114,5.839
40,-92,5.84
45,-70,5.841
33,-23,5.842
18,36,5.843
13,72,5.844
13,83,5.845
11,96,5.846
4,119,5.847
2,128,5.848
3,120,5.849
4,113,5.85
6,110,5.851
8,99,5.852
7,83,5.853
2,70,5.854
-3,66,5.855
-9,57,5.856
-11,40,5.857
-12,33,5.858
-8,38,5.859
-2,51,5.86
-2,71,5.861
-8,94,5.862
-13,102,5.863
-10,78,5.864
-6,25,5.865
-4,-38,5.866
-4,-94,5.867
-4,-130,5.868
-3,-130,5.869
-5,-92,5.87
-4,-39,5.871
-4,0,5.872
-4,20,5.873
-7,28,5.874
-7,37,5.875
-8,39,5.876
-11,23,5.877
-12,6,5.878
-3,1,5.879
10,12,5.88
12,31,5.881
3,54,5.882
0,75,5.883
9,74,5.884
16,40,5.885
17,-15,5.886
15,-64,5.887
16,-88,5.888
18,-92,5.889
15,-90,5.89
14,-87,5.891
16,-85,5.892
16,-72,5.893
6,-39,5.894
0,-2,5.895
0,12,5.896
2,-1,5.897
3,-7,5.898
3,18,5.899
5,61,5.9
4,95,5.901
-1,118,5.902
-4,143,5.903
0,156,5.904
9,123,5.905
13,45,5.906
11,-40,5.907
5,-101,5.908
0,-137,5.909
-4,-161,5.91
-5,-168,5.911
-4,-152,5.912
0,-128,5.913
-1,-117,5.914
-3,-108,5.915
-6,-83,5.916
-8,-35,5.917
-9,33,5.918
-5,112,5.919
2,173,5.92
8,165,5.921
7,71,5.922
4,-47,5.923
7,-114,5.924
11,-117,5.925
12,-108,5.926
6,-113,5.927
3,-112,5.928
4,-86,5.929
6,-53,5.93
1,-29,5.931
-5,-4,5.932
-9,34,5.933
-7,76,5.934
-1,96,5.935
1,88,5.936
1,74,5.937
1,78,5.938
6,92,5.939
9,95,5.94
6,80,5.941
-1,51,5.942
-5,15,5.943
0,-21,5.944
8,-42,5.945
10,-31,5.946
6,1,5.947
4,42,5.948
6,77,5.949
8,109,5.95
7,139,5.951
8,172,5.952
11,212,5.953
8,236,5.954
3,196,5.955
-3,95,5.956
-8,20,5.957
-11,54,5.958
-8,127,5.959
-2,98,5.96
4,-64,5.961
6,-250,5.962
5,-379,5.963
4,-486,5.964
6,-597,5.965
7,-623,5.966
6,-493,5.967
3,-266,5.968
0,-57,5.969
-3,120,5.97
0,307,5.971
7,451,5.972
11,471,5.973
4,377,5.974
2,267,5.975
5,158,5.976
11,-14,5.977
13,-212,5.978
13,-308,5.979
13,-262,5.98
10,-176,5.981
0,-118,5.982
-5,-45,5.983
-6,71,5.984
-7,156,5.985
-8,140,5.986
-4,68,5.987
4,13,5.988
8,-16,5.989
2,-41,5.99
-5,-46,5.991
-6,-4,5.992
-3,66,5.993
-1,129,5.994
1,167,5.995
0,182,5.996
-1,169,5.997
2,127,5.998
10,67,5.999
16,5,6.0
13,-46,6.001
4,-82,6.002
3,-93,6.003
9,-73,6.004
11,-34,6.005
5,-5,6.006
-1,-7,6.007
-1,-28,6.008
1,-45,6.009
1,-45,6.01
-3,-31,6.011
-8,-3,6.012
-9,43,6.013
-8,98,6.014
-6,137,6.015
-8,141,6.016
-9,124,6.017
-6,116,6.018
-1,119,6.019
5,101,6.02
7,30,6.021
6,-80,6.022
4,-178,6.023
6,-229,6.024
12,-247,6.025
15,-253,6.026
14,-233,6.027
12,-167,6.028
10,-84,6.029
7,-35,6.03
1,-23,6.031
-1,-7,6.032
3,32,6.033
7,77,6.034
8,120,6.035
0,165,6.036
-6,210,6.037
-1,243,6.038
11,252,6.039
18,224,6.04
13,142,6.041
6,13,6.042
5,-114,6.043
7,-218,6.044
6,-306,6.045
0,-350,6.046
-3,-273,6.047
-4,-73,6.048
-5,124,6.049
-8,206,6.05
-8,195,6.051
-3,140,6.052
-1,40,6.053
-3,-128,6.054
-4,-277,6.055
-6,-329,6.056
-8,-319,6.057
-9,-283,6.058
-1,-189,6.059
11,-41,6.06
16,65,6.061
14,88,6.062
14,109,6.063
19,171,6.064
22,199,6.065
16,167,6.066
4,168,6.067
-2,225,6.068
-4,228,6.069
-4,126,6.07
-2,22,6.071
-1,-14,6.072
-2,-43,6.073
-7,-125,6.074
-9,-189,6.075
-7,-163,6.076
-5,-86,6.077
-5,-19,6.078
-1,47,6.079
9,146,6.08
16,243,6.081
14,281,6.082
6,244,6.083
0,180,6.084
0,140,6.085
1,123,6.086
2,84,6.087
1,-10,6.088
-3,-137,6.089
-8,-249,6.09
-7,-324,6.091
-2,-355,6.092
0,-314,6.093
-4,-199,6.094
-9,-72,6.095
-10,0,6.096
-6,39,6.097
3,88,6.098
16,117,6.099
25,81,6.1
23,23,6.101
14,21,6.102
6,74,6.103
6,120,6.104
6,132,6.105
2,111,6.106
-1,50,6.107
-3,-36,6.108
-5,-85,6.109
-7,-68,6.11
-4,-36,6.111
2,-38,6.112
10,-54,6.113
9,-55,6.114
6,-61,6.115
2,-91,6.116
-2,-113,6.117
-4,-90,6.118
0,-50,6.119
9,-20,6.12
14,13,6.121
12,60,6.122
7,90,6.123
5,88,6.124
2,91,6.125
-2,110,6.126
-4,121,6.127
-2,121,6.128
2,152,6.129
6,218,6.13
8,250,6.131
7,208,6.132
4,137,6.133
-1,53,6.134
-2,-67,6.135
-4,-234,6.136
-9,-372,6.137
-15,-410,6.138
-9,-379,6.139
3,-335,6.14
8,-272,6.141
3,-178,6.142
-1,-106,6.143
3,-94,6.144
5,-84,6.145
5,-9,6.146
5,104,6.147
6,182,6.148
3,233,6.149
1,305,6.15
7,379,6.151
13,388,6.152
12,327,6.153
6,218,6.154
4,78,6.155
2,-104,6.156
-3,-296,6.157
-7,-391,6.158
-1,-322,6.159
7,-137,6.16
4,45,6.161
-7,129,6.162
-11,110,6.163
-2,29,6.164
4,-66,6.165
3,-145,6.166
4,-181,6.167
14,-162,6.168
21,-116,6.169
19,-75,6.17
11,-42,6.171
8,6,6.172
8,59,6.173
6,81,6.174
0,79,6.175
-4,87,6.176
-4,128,6.177
-2,159,6.178
1,163,6.179
3,166,6.18
0,166,6.181
-2,183,6.182
0,249,6.183
0,288,6.184
-1,242,6.185
-3,167,6.186
-1,4,6.187
1,-142,6.188
6,-236,6.189
10,-305,6.19
6,-291,6.191
2,-261,6.192
-1,-180,6.193
-4,-107,6.194
-7,-72,6.195
-10,-42,6.196
-10,-11,6.197
-7,5,6.198
2,-6,6.199
11,-35,6.2
15,-67,6.201
13,-94,6.202
7,-107,6.203
-1,-106,6.204
-7,-84,6.205
-11,-34,6.206
-8,49,6.207
-3,155,6.208
6,256,6.209
12,332,6.21
15,366,6.211
12,349,6.212
11,277,6.213
12,138,6.214
15,-28,6.215
11,-169,6.216
0,-259,6.217
-9,-314,6.218
-11,-357,6.219
-9,-371,6.22
-7,-332,6.221
-7,-256,6.222
-4,-165,6.223
0,-54,6.224
2,67,6.225
3,150,6.226
2,169,6.227
2,165,6.228
5,173,6.229
10,154,6.23
15,69,6.231
15,-22,6.232
12,-47,6.233
5,-12,6.234
1,30,6.235
-3,48,6.236
-11,39,6.237
-14,23,6.238
-7,30,6.239
2,86,6.24
3,169,6.241
0,240,6.242
8,316,6.243
24,419,6.244
33,467,6.245
26,330,6.246
14,38,6.247
6,-224,6.248
3,-344,6.249
-1,-396,6.25
-8,-464,6.251
-12,-506,6.252
-6,-465,6.253
-6,-352,6.254
-18,-203,6.255
-32,-23,6.256
-49,151,6.257
-55,239,6.258
-23,214,6.259
7,157,6.26
27,139,6.261
43,125,6.262
46,54,6.263
46,-70,6.264
35,-196,6.265
25,-277,6.266
17,-286,6.267
11,-222,6.268
12,-125,6.269
12,-49,6.27
10,-14,6.271
9,0,6.272
16,21,6.273
18,69,6.274
-1,147,6.275
-12,220,6.276
-9,240,6.277
-9,215,6.278
-15,201,6.279
-16,247,6.28
-17,325,6.281
-23,363,6.282
-27,318,6.283
-17,214,6.284
-3,100,6.285
-1,-14,6.286
-4,-162,6.287
-1,-340,6.288
8,-470,6.289
11,-491,6.29
8,-448,6.291
5,-403,6.292
4,-321,6.293
-3,-105,6.294
-8,182,6.295
-7,352,6.296
-4,343,6.297
-4,297,6.298
0,310,6.299
15,282,6.3
26,102,6.301
24,-152,6.302
18,-323,6.303
15,-351,6.304
9,-265,6.305
0,-74,6.306
-8,210,6.307
-7,477,6.308
-5,548,6.309
-8,333,6.31
-10,-62,6.311
-5,-402,6.312
2,-515,6.313
4,-432,6.314
2,-288,6.315
-1,-188,6.316
-1,-135,6.317
1,-96,6.318
6,-74,6.319
11,-60,6.32
13,-27,6.321
15,21,6.322
18,53,6.323
23,66,6.324
28,101,6.325
28,159,6.326
23,186,6.327
13,157,6.328
3,113,6.329
-2,99,6.33
-3,108,6.331
-6,110,6.332
-8,97,6.333
-12,70,6.334
-14,67,6.335
-15,158,6.336
-16,377,6.337
-12,610,6.338
0,627,6.339
8,323,6.34
4,-125,6.341
-5,-448,6.342
-11,-559,6.343
-10,-567,6.344
-7,-528,6.345
-5,-390,6.346
-1,-180,6.347
5,-57,6.348
8,-85,6.349
6,-137,6.35
4,-96,6.351
8,-2,6.352
15,76,6.353
20,151,6.354
17,223,6.355
10,221,6.356
4,133,6.357
2,60,6.358
3,33,6.359
4,-55,6.36
4,-234,6.361
3,-354,6.362
2,-303,6.363
-2,-168,6.364
-6,-67,6.365
-9,22,6.366
-5,161,6.367
3,301,6.368
11,372,6.369
13,385,6.37
11,363,6.371
4,275,6.372
-3,151,6.373
-10,53,6.374
-11,24,6.375
-13,8,6.376
-16,-37,6.377
-15,-83,6.378
-5,-131,6.379
1,-238,6.38
-1,-399,6.381
-2,-507,6.382
7,-484,6.383
19,-359,6.384
22,-180,6.385
18,17,6.386
14,166,6.387
10,207,6.388
6,193,6.389
5,235,6.39
14,355,6.391
21,481,6.392
19,558,6.393
10,558,6.394
4,411,6.395
0,79,6.396
-8,-300,6.397
-15,-524,6.398
-12,-574,6.399
-7,-547,6.4
-10,-439,6.401
-18,-203,6.402
-18,30,6.403
-11,65,6.404
-7,-45,6.405
-3,-71,6.406
8,33,6.407
21,108,6.408
27,102,6.409
23,132,6.41
18,216,6.411
13,257,6.412
6,262,6.413
-2,288,6.414
-2,245,6.415
-1,-11,6.416
-1,-341,6.417
-1,-430,6.418
4,-262,6.419
13,-113,6.42
13,-120,6.421
6,-145,6.422
2,-92,6.423
1,-27,6.424
2,28,6.425
1,142,6.426
2,279,6.427
5,309,6.428
6,223,6.429
7,133,6.43
5,88,6.431
0,61,6.432
-2,61,6.433
1,91,6.434
9,54,6.435
8,-146,6.436
0,-410,6.437
-1,-525,6.438
13,-433,6.439
25,-258,6.44
23,-107,6.441
9,16,6.442
0,134,6.443
-1,229,6.444
-6,284,6.445
-16,293,6.446
-20,251,6.447
-16,168,6.448
-10,101,6.449
-8,86,6.45
-7,99,6.451
-5,105,6.452
-4,114,6.453
-8,125,6.454
-12,87,6.455
-16,-36,6.456
-21,-192,6.457
-21,-295,6.458
-13,-341,6.459
1,-350,6.46
13,-297,6.461
20,-167,6.462
22,-29,6.463
20,38,6.464
15,41,6.465
12,30,6.466
13,16,6.467
16,20,6.468
12,100,6.469
5,279,6.47
5,446,6.471
9,430,6.472
11,214,6.473
6,-97,6.474
6,-283,6.475
8,-248,6.476
5,-100,6.477
-3,-21,6.478
-1,-67,6.479
9,-153,6.48
14,-191,6.481
7,-180,6.482
0,-129,6.483
4,-5,6.484
8,179,6.485
7,310,6.486
6,267,6.487
5,91,6.488
1,-48,6.489
-5,-54,6.49
-11,21,6.491
-12,76,6.492
-14,86,6.493
-15,45,6.494
-12,-50,6.495
-4,-167,6.496
-1,-223,6.497
0,-176,6.498
7,-95,6.499
19,-49,6.5
21,-20,6.501
11,19,6.502
8,44,6.503
16,51,6.504
20,90,6.505
11,167,6.506
0,197,6.507
-2,138,6.508
3,42,6.509
5,-30,6.51
3,-78,6.511
0,-96,6.512
-3,-67,6.513
-6,-27,6.514
-5,-53,6.515
-6,-128,6.516
-13,-138,6.517
-19,-25,6.518
-16,122,6.519
-6,195,6.52
1,164,6.521
8,61,6.522
21,-55,6.523
30,-116,6.524
27,-80,6.525
15,10,6.526
7,70,6.527
5,61,6.528
0,13,6.529
-8,-39,6.53
-14,-67,6.531
-11,-54,6.532
-6,-22,6.533
-4,-33,6.534
-3,-108,6.535
-3,-185,6.536
-4,-192,6.537
-4,-132,6.538
0,-62,6.539
9,15,6.54
14,129,6.541
10,239,6.542
6,248,6.543
9,149,6.544
12,55,6.545
16,38,6.546
20,36,6.547
20,-23,6.548
12,-102,6.549
-2,-123,6.55
-10,-93,6.551
-9,-61,6.552
-8,-20,6.553
-9,81,6.554
-9,206,6.555
-7,245,6.556
-8,140,6.557
-11,-28,6.558
-8,-141,6.559
-1,-157,6.56
1,-119,6.561
-1,-75,6.562
-1,-38,6.563
3,1,6.564
1,39,6.565
-3,73,6.566
-3,113,6.567
8,152,6.568
17,170,6.569
17,140,6.57
12,63,6.571
11,-43,6.572
10,-135,6.573
4,-133,6.574
0,12,6.575
-3,165,6.576
-3,335,6.577
-2,378,6.578
6,36,6.579
12,-277,6.58
12,-507,6.581
11,-648,6.582
11,-517,6.583
11,-366,6.584
10,-156,6.585
7,17,6.586
1,82,6.587
-3,109,6.588
-2,19,6.589
-1,-33,6.59
-2,31,6.591
-4,86,6.592
-3,112,6.593
-1,160,6.594
-1,255,6.595
-5,256,6.596
-7,175,6.597
-4,116,6.598
11,81,6.599
27,11,6.6
30,-57,6.601
22,-55,6.602
18,-6,6.603
26,38,6.604
37,103,6.605
36,198,6.606
19,222,6.607
-10,96,6.608
-34,-86,6.609
-44,-176,6.61
-42,-133,6.611
-43,-30,6.612
-43,44,6.613
-38,24,6.614
-28,-111,6.615
-23,-288,6.616
-17,-373,6.617
-2,-304,6.618
15,-142,6.619
23,37,6.62
20,192,6.621
14,278,6.622
10,260,6.623
7,173,6.624
9,83,6.625
18,15,6.626
29,-45,6.627
27,-86,6.628
16,-90,6.629
5,-79,6.63
-1,-76,6.631
-7,-56,6.632
-10,15,6.633
-9,144,6.634
-4,296,6.635
0,398,6.636
5,349,6.637
13,131,6.638
21,-112,6.639
23,-182,6.64
19,-65,6.641
12,42,6.642
11,-35,6.643
12,-264,6.644
14,-484,6.645
10,-560,6.646
1,-463,6.647
-10,-245,6.648
-18,-17,6.649
-18,108,6.65
-7,109,6.651
2,68,6.652
10,57,6.653
8,68,6.654
5,69,6.655
2,61,6.656
-1,66,6.657
-8,74,6.658
-14,60,6.659
-12,46,6.66
0,81,6.661
12,188,6.662
14,337,6.663
5,456,6.664
1,439,6.665
3,217,6.666
10,-126,6.667
17,-382,6.668
21,-431,6.669
20,-350,6.67
12,-255,6.671
-3,-151,6.672
-8,-10,6.673
1,143,6.674
27,242,6.675
50,276,6.676
55,256,6.677
40,160,6.678
17,0,6.679
-5,-121,6.68
-22,-127,6.681
-42,-57,6.682
-57,-8,6.683
-62,-35,6.684
-59,-138,6.685
-56,-266,6.686
-51,-334,6.687
-34,-281,6.688
-11,-133,6.689
2,33,6.69
1,166,6.691
3,226,6.692
16,190,6.693
27,74,6.694
31,-31,6.695
30,-49,6.696
29,33,6.697
26,195,6.698
18,371,6.699
12,419,6.7
14,227,6.701
15,-108,6.702
11,-353,6.703
10,-405,6.704
13,-336,6.705
6,-222,6.706
-13,-67,6.707
-25,51,6.708
-21,24,6.709
-7,-93,6.71
2,-116,6.711
7,-14,6.712
12,54,6.713
19,32,6.714
28,29,6.715
42,94,6.716
61,118,6.717
75,73,6.718
72,73,6.719
55,150,6.72
32,193,6.721
17,158,6.722
9,155,6.723
11,202,6.724
6,166,6.725
-18,0,6.726
-57,-153,6.727
-86,-193,6.728
-91,-187,6.729
-80,-185,6.73
-70,-132,6.731
-67,-21,6.732
-62,40,6.733
-43,-5,6.734
-8,-63,6.735
19,-45,6.736
18,-7,6.737
-2,-8,6.738
-8,-8,6.739
6,70,6.74
19,226,6.741
17,388,6.742
13,454,6.743
15,342,6.744
20,72,6.745
21,-206,6.746
26,-375,6.747
32,-460,6.748
29,-504,6.749
10,-454,6.75
-16,-305,6.751
-30,-168,6.752
-24,-86,6.753
0,74,6.754
21,361,6.755
24,576,6.756
18,509,6.757
20,225,6.758
35,-88,6.759
41,-343,6.76
33,-505,6.761
23,-480,6.762
17,-250,6.763
11,41,6.764
0,246,6.765
-6,332,6.766
-1,297,6.767
7,131,6.768
17,-82,6.769
28,-171,6.77
35,-83,6.771
28,56,6.772
15,116,6.773
6,96,6.774
7,38,6.775
2,-33,6.776
-9,-92,6.777
-12,-79,6.778
-3,7,6.779
0,94,6.78
-13,107,6.781
-30,31,6.782
-32,-79,6.783
-21,-138,6.784
-8,-95,6.785
-2,2,6.786
0,56,6.787
0,42,6.788
-1,16,6.789
3,18,6.79
13,29,6.791
20,38,6.792
21,64,6.793
16,106,6.794
12,129,6.795
5,133,6.796
-1,155,6.797
-7,198,6.798
-8,180,6.799
-4,50,6.8
0,-130,6.801
4,-251,6.802
4,-272,6.803
-6,-216,6.804
-24,-109,6.805
-40,27,6.806
-39,124,6.807
-32,99,6.808
-36,-29,6.809
-47,-137,6.81
-43,-144,6.811
-17,-95,6.812
12,-60,6.813
26,-25,6.814
27,65,6.815
30,162,6.816
36,156,6.817
35,44,6.818
31,-67,6.819
30,-101,6.82
29,-105,6.821
14,-138,6.822
-6,-171,6.823
-15,-143,6.824
-8,-48,6.825
-1,82,6.826
1,237,6.827
11,395,6.828
26,465,6.829
35,345,6.83
26,76,6.831
13,-162,6.832
6,-244,6.833
9,-194,6.834
11,-90,6.835
10,-4,6.836
4,0,6.837
1,-124,6.838
2,-315,6.839
4,-411,6.84
4,-325,6.841
1,-151,6.842
0,-22,6.843
0,46,6.844
1,104,6.845
1,150,6.846
-1,154,6.847
-6,128,6.848
-9,120,6.849
-10,140,6.85
-9,151,6.851
-3,133,6.852
5,101,6.853
17,74,6.854
31,58,6.855
36,35,6.856
22,-21,6.857
-4,-94,6.858
-20,-130,6.859
-22,-104,6.86
-23,-59,6.861
-37,-44,6.862
-46,-39,6.863
-40,4,6.864
-27,81,6.865
-18,160,6.866
-10,228,6.867
5,269,6.868
21,228,6.869
27,74,6.87
28,-128,6.871
28,-271,6.872
25,-311,6.873
16,-262,6.874
7,-160,6.875
-1,-69,6.876
-5,-14,6.877
-8,27,6.878
-5,25,6.879
-2,30,6.88
0,54,6.881
3,73,6.882
10,72,6.883
17,57,6.884
23,3,6.885
27,-26,6.886
19,19,6.887
12,40,6.888
12,-17,6.889
10,-71,6.89
0,-114,6.891
-12,-129,6.892
-25,-59,6.893
-30,14,6.894
-15,78,6.895
0,72,6.896
3,-26,6.897
13,-124,6.898
37,-139,6.899
61,-76,6.9
61,3,6.901
40,74,6.902
13,128,6.903
-19,126,6.904
-51,56,6.905
-68,-3,6.906
-60,10,6.907
-41,51,6.908
-31,53,6.909
-25,49,6.91
-14,108,6.911
0,200,6.912
9,214,6.913
16,97,6.914
23,-66,6.915
24,-176,6.916
17,-221,6.917
15,-223,6.918
24,-176,6.919
34,-76,6.92
27,7,6.921
15,18,6.922
11,17,6.923
10,102,6.924
2,230,6.925
-3,257,6.926
2,132,6.927
14,-31,6.928
20,-114,6.929
16,-130,6.93
7,-146,6.931
-1,-173,6.932
-4,-163,6.933
-9,-108,6.934
-13,-48,6.935
-22,-15,6.936
-29,20,6.937
-29,99,6.938
-20,181,6.939
-11,191,6.94
-7,131,6.941
-5,77,6.942
0,93,6.943
6,173,6.944
2,255,6.945
-7,241,6.946
-7,69,6.947
4,-198,6.948
13,-412,6.949
8,-477,6.95
2,-400,6.951
7,-223,6.952
19,-14,6.953
20,139,6.954
9,141,6.955
-5,46,6.956
-9,7,6.957
1,69,6.958
21,114,6.959
37,74,6.96
38,-7,6.961
23,-84,6.962
7,-166,6.963
-5,-220,6.964
-16,-182,6.965
-31,-59,6.966
-37,40,6.967
-25,58,6.968
-1,33,6.969
17,31,6.97
26,59,6.971
28,86,6.972
24,97,6.973
11,94,6.974
-6,89,6.975
-16,79,6.976
-6,54,6.977
3,24,6.978
13,9,6.979
20,16,6.98
14,27,6.981
8,27,6.982
3,29,6.983
2,44,6.984
16,59,6.985
28,53,6.986
29,29,6.987
27,7,6.988
10,4,6.989
-4,27,6.99
-10,75,6.991
-19,118,6.992
-32,113,6.993
-45,35,6.994
-55,-77,6.995
-44,-168,6.996
-22,-227,6.997
-1,-250,6.998
14,-214,6.999
23,-89,7.0
22,101,7.001
9,272,7.002
-6,337,7.003
-12,265,7.004
-8,96,7.005
1,-84,7.006
13,-217,7.007
27,-300,7.008
37,-342,7.009
35,-314,7.01
21,-200,7.011
2,-48,7.012
-10,109,7.013
-20,318,7.014
-23,539,7.015
-24,568,7.016
-21,269,7.017
-9,-179,7.018
9,-464,7.019
28,-500,7.02
38,-428,7.021
38,-321,7.022
32,-142,7.023
25,39,7.024
18,78,7.025
10,10,7.026
2,38,7.027
-2,203,7.028
-10,327,7.029
-19,296,7.03
-18,187,7.031
-1,84,7.032
22,-16,7.033
34,-135,7.034
22,-197,7.035
-7,-167,7.036
-35,-100,7.037
-43,-44,7.038
-30,0,7.039
-17,36,7.04
-17,55,7.041
-22,71,7.042
-18,99,7.043
0,115,7.044
16,94,7.045
23,63,7.046
24,54,7.047
16,64,7.048
0,59,7.049
-14,43,7.05
-17,23,7.051
-6,-6,7.052
4,-35,7.053
4,-42,7.054
1,-17,7.055
-2,2,7.056
2,-9,7.057
15,-15,7.058
37,14,7.059
63,58,7.06
77,74,7.061
70,65,7.062
43,45,7.063
5,-5,7.064
-30,-112,7.065
-56,-233,7.066
-69,-290,7.067
-76,-257,7.068
-76,-164,7.069
-61,-47,7.07
-29,76,7.071
4,160,7.072
20,167,7.073
19,117,7.074
16,107,7.075
17,173,7.076
18,237,7.077
22,193,7.078
34,23,7.079
45,-175,7.08
40,-282,7.081
27,-268,7.082
18,-201,7.083
11,-155,7.084
-7,-131,7.085
-27,-89,7.086
-28,-24,7.087
-10,42,7.088
8,125,7.089
12,255,7.09
20,384,7.091
38,397,7.092
48,259,7.093
35,32,7.094
12,-163,7.095
-10,-300,7.096
-30,-262,7.097
-42,-206,7.098
-31,-95,7.099
-17,-30,7.1
5,-107,7.101
23,-145,7.102
23,-62,7.103
23,2,7.104
24,10,7.105
21,20,7.106
7,36,7.107
-3,48,7.108
-5,48,7.109
-6,58,7.11
-4,98,7.111
-2,121,7.112
0,92,7.113
0,57,7.114
-6,34,7.115
-10,58,7.116
-10,84,7.117
-6,117,7.118
5,154,7.119
24,144,7.12
39,42,7.121
39,-96,7.122
20,-172,7.123
-8,-163,7.124
-32,-109,7.125
-38,-41,7.126
-25,26,7.127
-13,78,7.128
-16,99,7.129
-25,78,7.13
-25,10,7.131
-10,-85,7.132
5,-143,7.133
13,-131,7.134
14,-94,7.135
6,-87,7.136
-7,-81,7.137
-7,-14,7.138
15,67,7.139
45,80,7.14
55,37,7.141
42,16,7.142
22,22,7.143
3,7,7.144
-15,-6,7.145
-25,47,7.146
-21,141,7.147
-12,174,7.148
-15,122,7.149
-21,63,7.15
-8,40,7.151
19,17,7.152
27,-19,7.153
3,-30,7.154
-24,-2,7.155
-27,-10,7.156
-14,-116,7.157
-1,-239,7.158
9,-258,7.159
22,-168,7.16
37,-79,7.161
44,-62,7.162
40,-80,7.163
32,-65,7.164
17,-23,7.165
-3,4,7.166
-11,7,7.167
-3,12,7.168
7,32,7.169
0,53,7.17
-15,76,7.171
-22,125,7.172
-19,192,7.173
-23,225,7.174
-31,172,7.175
-27,53,7.176
-3,-61,7.177
23,-115,7.178
38,-94,7.179
42,22,7.18
47,229,7.181
52,400,7.182
49,343,7.183
34,34,7.184
11,-304,7.185
-13,-456,7.186
-32,-423,7.187
-48,-325,7.188
-60,-198,7.189
-56,-32,7.19
-32,102,7.191
0,127,7.192
25,85,7.193
33,55,7.194
31,47,7.195
22,24,7.196
12,7,7.197
5,41,7.198
3,77,7.199
3,50,7.2
-7,-10,7.201
-18,-27,7.202
-20,5,7.203
-8,33,7.204
2,31,7.205
5,11,7.206
5,-14,7.207
5,-40,7.208
5,-43,7.209
6,-12,7.21
10,38,7.211
13,79,7.212
14,94,7.213
10,91,7.214
9,101,7.215
7,139,7.216
1,158,7.217
-4,94,7.218
-5,-48,7.219
-5,-165,7.22
-6,-201,7.221
-2,-198,7.222
17,-186,7.223
42,-105,7.224
52,57,7.225
39,170,7.226
18,105,7.227
14,-50,7.228
34,-113,7.229
62,-63,7.23
72,-37,7.231
43,-74,7.232
-8,-74,7.233
-56,-1,7.234
-72,60,7.235
-66,53,7.236
-69,33,7.237
-93,45,7.238
-113,40,7.239
-108,-6,7.24
-78,-22,7.241
-37,18,7.242
-5,53,7.243
11,25,7.244
19,-39,7.245
42,-96,7.246
75,-131,7.247
75,-122,7.248
31,-55,7.249
-8,24,7.25
0,52,7.251
26,40,7.252
25,47,7.253
5,74,7.254
7,94,7.255
35,115,7.256
59,163,7.257
65,206,7.258
58,177,7.259
26,75,7.26
-29,-40,7.261
-76,-124,7.262
-88,-173,7.263
-74,-180,7.264
-50,-141,7.265
-2,-81,7.266
69,-39,7.267
119,-27,7.268
111,-34,7.269
66,-43,7.27
39,-29,7.271
35,19,7.272
24,78,7.273
-16,120,7.274
-63,147,7.275
-88,178,7.276
-84,211,7.277
-67,219,7.278
-49,183,7.279
-31,97,7.28
-15,-42,7.281
-2,-233,7.282
15,-406,7.283
31,-466,7.284
38,-390,7.285
30,-256,7.286
14,-128,7.287
-2,-12,7.288
-9,83,7.289
-1,118,7.29
24,99,7.291
54,93,7.292
68,124,7.293
63,137,7.294
51,106,7.295
41,85,7.296
30,124,7.297
14,200,7.298
-2,252,7.299
-14,247,7.3
-21,162,7.301
-25,-3,7.302
-17,-171,7.303
0,-235,7.304
11,-202,7.305
10,-169,7.306
4,-162,7.307
-2,-116,7.308
-16,-25,7.309
-32,26,7.31
-37,-6,7.311
-28,-50,7.312
-18,-46,7.313
-12,-30,7.314
-5,-48,7.315
1,-75,7.316
0,-50,7.317
-6,30,7.318
-5,88,7.319
9,74,7.32
19,32,7.321
27,46,7.322
58,121,7.323
103,173,7.324
115,124,7.325
66,7,7.326
-4,-91,7.327
-29,-122,7.328
-5,-99,7.329
25,-42,7.33
25,44,7.331
-3,126,7.332
-34,151,7.333
-61,102,7.334
-79,16,7.335
-79,-70,7.336
-63,-144,7.337
-41,-170,7.338
-33,-114,7.339
-48,0,7.34
-76,98,7.341
-91,135,7.342
-79,141,7.343
-48,163,7.344
-16,209,7.345
8,246,7.346
30,217,7.347
62,77,7.348
96,-143,7.349
113,-336,7.35
106,-403,7.351
89,-333,7.352
80,-189,7.353
68,-15,7.354
39,114,7.355
-5,122,7.356
-41,9,7.357
-65,-118,7.358
-89,-173,7.359
-100,-176,7.36
-76,-159,7.361
-28,-96,7.362
10,39,7.363
25,185,7.364
44,256,7.365
75,226,7.366
97,121,7.367
93,-6,7.368
68,-108,7.369
29,-160,7.37
-20,-170,7.371
-56,-149,7.372
-53,-83,7.373
-29,21,7.374
-25,108,7.375
-45,135,7.376
-53,149,7.377
-38,205,7.378
-15,284,7.379
7,342,7.38
30,356,7.381
43,274,7.382
32,38,7.383
15,-280,7.384
11,-495,7.385
16,-511,7.386
0,-409,7.387
-31,-278,7.388
-38,-109,7.389
-11,77,7.39
30,164,7.391
60,114,7.392
69,48,7.393
55,57,7.394
32,92,7.395
18,71,7.396
18,30,7.397
20,49,7.398
7,84,7.399
-11,69,7.4
-19,39,7.401
-16,42,7.402
-8,44,7.403
4,4,7.404
14,-25,7.405
15,25,7.406
13,132,7.407
11,249,7.408
11,357,7.409
11,423,7.41
17,379,7.411
31,216,7.412
39,28,7.413
30,-167,7.414
19,-390,7.415
18,-623,7.416
22,-769,7.417
19,-756,7.418
2,-628,7.419
-26,-442,7.42
-62,-209,7.421
-103,16,7.422
-131,138,7.423
-134,165,7.424
-116,202,7.425
-87,272,7.426
-57,276,7.427
-22,193,7.428
16,135,7.429
57,158,7.43
80,178,7.431
77,141,7.432
54,109,7.433
24,137,7.434
-1,192,7.435
-15,218,7.436
-11,206,7.437
15,152,7.438
48,33,7.439
69,-119,7.44
78,-229,7.441
88,-273,7.442
98,-266,7.443
88,-189,7.444
40,-26,7.445
-33,135,7.446
-96,198,7.447
-119,195,7.448
-102,194,7.449
-67,135,7.45
-31,-67,7.451
5,-324,7.452
43,-453,7.453
83,-425,7.454
115,-321,7.455
119,-165,7.456
74,61,7.457
-11,243,7.458
-87,220,7.459
-113,49,7.46
-99,-45,7.461
-93,3,7.462
-104,69,7.463
-111,96,7.464
-96,162,7.465
-60,264,7.466
-6,272,7.467
47,143,7.468
78,1,7.469
87,-65,7.47
98,-95,7.471
105,-128,7.472
94,-116,7.473
61,-17,7.474
35,123,7.475
23,218,7.476
12,216,7.477
2,126,7.478
10,4,7.479
24,-69,7.48
15,-72,7.481
-14,-72,7.482
-22,-114,7.483
-3,-149,7.484
14,-142,7.485
13,-149,7.486
11,-209,7.487
10,-247,7.488
-4,-181,7.489
-28,-51,7.49
-32,52,7.491
-11,110,7.492
6,141,7.493
-2,143,7.494
-9,120,7.495
4,117,7.496
23,142,7.497
25,157,7.498
20,155,7.499
23,154,7.5
29,113,7.501
22,-33,7.502
1,-234,7.503
-16,-329,7.504
-26,-248,7.505
-23,-71,7.506
-10,70,7.507
4,93,7.508
7,-34,7.509
1,-254,7.51
0,-417,7.511
7,-416,7.512
10,-299,7.513
1,-130,7.514
-4,75,7.515
-9,256,7.516
-14,360,7.517
-15,405,7.518
2,270,7.519
21,150,7.52
42,76,7.521
55,4,7.522
40,-60,7.523
25,-107,7.524
9,-104,7.525
-3,-98,7.526
2,-88,7.527
8,-61,7.528
16,18,7.529
8,88,7.53
-52,130,7.531
-96,164,7.532
-86,172,7.533
-71,169,7.534
-61,137,7.535
-86,143,7.536
-84,142,7.537
-19,67,7.538
49,-62,7.539
51,-148,7.54
-1,-143,7.541
-27,-82,7.542
-3,-5,7.543
19,54,7.544
4,55,7.545
-18,-13,7.546
-6,-84,7.547
27,-86,7.548
49,-30,7.549
50,43,7.55
39,145,7.551
26,281,7.552
18,363,7.553
15,272,7.554
19,-1,7.555
18,-354,7.556
11,-668,7.557
7,-842,7.558
22,-799,7.559
50,-533,7.56
70,-170,7.561
72,110,7.562
66,231,7.563
60,234,7.564
50,206,7.565
28,199,7.566
-1,206,7.567
-34,197,7.568
-65,163,7.569
-81,139,7.57
-72,149,7.571
-43,169,7.572
-16,185,7.573
3,224,7.574
16,288,7.575
20,288,7.576
16,143,7.577
13,-72,7.578
21,-220,7.579
26,-266,7.58
8,-264,7.581
-20,-219,7.582
-30,-96,7.583
-20,50,7.584
-5,94,7.585
8,27,7.586
17,-25,7.587
8,0,7.588
-24,23,7.589
-51,-20,7.59
-40,-82,7.591
0,-114,7.592
35,-136,7.593
45,-173,7.594
32,-177,7.595
8,-111,7.596
-8,-20,7.597
-3,31,7.598
7,26,7.599
-4,-3,7.6
-25,-8,7.601
-14,41,7.602
32,136,7.603
63,222,7.604
47,260,7.605
9,273,7.606
-13,278,7.607
-16,249,7.608
-13,177,7.609
2,101,7.61
22,30,7.611
28,-101,7.612
14,-293,7.613
-5,-429,7.614
0,-411,7.615
27,-364,7.616
51,-229,7.617
53,-96,7.618
38,29,7.619
9,125,7.62
-32,133,7.621
-78,135,7.622
-112,120,7.623
-128,91,7.624
-129,21,7.625
-103,-37,7.626
-46,-63,7.627
17,-71,7.628
46,-24,7.629
39,20,7.63
31,53,7.631
46,78,7.632
57,75,7.633
47,79,7.634
30,120,7.635
34,151,7.636
63,129,7.637
92,68,7.638
110,3,7.639
113,-51,7.64
84,-90,7.641
35,-94,7.642
14,-53,7.643
31,6,7.644
19,45,7.645
-69,56,7.646
-165,59,7.647
-174,69,7.648
-123,77,7.649
-104,49,7.65
-117,-24,7.651
-91,-108,7.652
-25,-136,7.653
13,-64,7.654
-4,25,7.655
5,40,7.656
52,-47,7.657
71,-165,7.658
39,-243,7.659
13,-251,7.66
25,-203,7.661
47,-121,7.662
51,-32,7.663
68,42,7.664
115,112,7.665
154,191,7.666
142,257,7.667
85,275,7.668
19,260,7.669
-44,243,7.67
-106,195,7.671
-152,75,7.672
-157,-71,7.673
-122,-189,7.674
-66,-241,7.675
-14,-240,7.676
23,-188,7.677
51,-96,7.678
51,-15,7.679
56,26,7.68
74,70,7.681
83,122,7.682
64,94,7.683
35,-56,7.684
-26,-204,7.685
-63,-212,7.686
-27,-102,7.687
1,-6,7.688
8,23,7.689
10,20,7.69
-5,3,7.691
-16,-32,7.692
-12,-54,7.693
-12,-30,7.694
-31,17,7.695
-52,37,7.696
-53,37,7.697
-34,69,7.698
-9,134,7.699
19,164,7.7
53,111,7.701
72,16,7.702
62,-53,7.703
36,-69,7.704
31,-53,7.705
51,-27,7.706
56,-1,7.707
21,25,7.708
-16,36,7.709
-17,25,7.71
2,3,7.711
-8,-6,7.712
-45,5,7.713
-61,28,7.714
-34,47,7.715
-16,66,7.716
-43,81,7.717
-70,99,7.718
-37,118,7.719
24,125,7.72
35,91,7.721
-5,3,7.722
-26,-102,7.723
0,-159,7.724
24,-144,7.725
23,-99,7.726
28,-68,7.727
54,-54,7.728
61,-43,7.729
28,-36,7.73
-13,-33,7.731
-20,-22,7.732
-2,1,7.733
17,20,7.734
29,23,7.735
28,22,7.736
12,30,7.737
-6,49,7.738
-7,75,7.739
1,116,7.74
-8,168,7.741
-40,204,7.742
-62,197,7.743
-56,143,7.744
-34,48,7.745
-8,-73,7.746
34,-177,7.747
89,-217,7.748
119,-190,7.749
94,-133,7.75
30,-74,7.751
-28,-26,7.752
-53,2,7.753
-62,15,7.754
-76,41,7.755
-88,58,7.756
-93,42,7.757
-81,0,7.758
-15,-124,7.759
48,-230,7.76
105,-285,7.761
133,-310,7.762
73,-242,7.763
15,-155,7.764
-38,-9,7.765
-80,122,7.766
-84,211,7.767
-73,269,7.768
-17,228,7.769
39,153,7.77
92,-23,7.771
133,-163,7.772
136,-196,7.773
131,-204,7.774
76,-107,7.775
-4,37,7.776
-53,165,7.777
-54,212,7.778
-41,195,7.779
-38,201,7.78
-28,249,7.781
-11,256,7.782
-9,171,7.783
-23,66,7.784
-21,8,7.785
6,-59,7.786
28,-198,7.787
25,-345,7.788
16,-381,7.789
10,-298,7.79
-11,-187,7.791
-49,-94,7.792
-70,-7,7.793
-47,68,7.794
8,92,7.795
46,70,7.796
50,60,7.797
48,90,7.798
63,127,7.799
75,143,7.8
37,148,7.801
-44,140,7.802
-112,102,7.803
-114,42,7.804
-68,-8,7.805
-30,-34,7.806
-20,-46,7.807
-14,-44,7.808
6,-20,7.809
22,5,7.81
17,9,7.811
3,0,7.812
-5,7,7.813
-12,35,7.814
-20,65,7.815
-22,89,7.816
-3,103,7.817
32,104,7.818
75,91,7.819
105,88,7.82
100,98,7.821
54,70,7.822
-2,-30,7.823
-32,-132,7.824
-40,-137,7.825
-49,-50,7.826
-54,23,7.827
-27,23,7.828
22,-6,7.829
46,3,7.83
24,43,7.831
-9,38,7.832
-19,-37,7.833
-12,-161,7.834
-2,-264,7.835
8,-316,7.836
16,-318,7.837
5,-230,7.838
-15,-9,7.839
-16,280,7.84
10,461,7.841
36,414,7.842
45,192,7.843
53,-86,7.844
68,-359,7.845
76,-573,7.846
63,-631,7.847
43,-495,7.848
25,-285,7.849
5,-143,7.85
-13,-69,7.851
-9,19,7.852
12,119,7.853
13,182,7.854
-24,207,7.855
-70,243,7.856
-90,284,7.857
-79,300,7.858
-56,307,7.859
-32,353,7.86
-16,409,7.861
-17,394,7.862
-31,297,7.863
-37,177,7.864
-28,40,7.865
-16,-143,7.866
-1,-320,7.867
33,-361,7.868
79,-229,7.869
101,-34,7.87
86,121,7.871
63,224,7.872
59,272,7.873
62,202,7.874
53,-2,7.875
33,-246,7.876
14,-407,7.877
-15,-460,7.878
-71,-448,7.879
-142,-389,7.88
-195,-295,7.881
-201,-200,7.882
-157,-118,7.883
-84,-28,7.884
-13,69,7.885
27,133,7.886
35,143,7.887
35,138,7.888
60,155,7.889
105,188,7.89
136,221,7.891
129,251,7.892
98,270,7.893
64,271,7.894
35,277,7.895
11,310,7.896
1,347,7.897
13,345,7.898
26,270,7.899
21,124,7.9
2,-75,7.901
-16,-292,7.902
-26,-474,7.903
-29,-579,7.904
-19,-587,7.905
0,-509,7.906
10,-366,7.907
3,-176,7.908
-4,33,7.909
0,207,7.91
10,283,7.911
15,245,7.912
12,155,7.913
-3,53,7.914
-18,-48,7.915
-27,-152,7.916
-27,-199,7.917
-27,-136,7.918
-27,-27,7.919
-19,29,7.92
-4,39,7.921
4,84,7.922
3,171,7.923
11,237,7.924
30,265,7.925
47,304,7.926
48,374,7.927
38,420,7.928
29,382,7.929
22,244,7.93
15,36,7.931
8,-164,7.932
1,-298,7.933
-12,-417,7.934
-20,-569,7.935
-10,-702,7.936
4,-700,7.937
-15,-539,7.938
-69,-331,7.939
-112,-164,7.94
-112,-25,7.941
-84,96,7.942
-51,181,7.943
-8,251,7.944
52,344,7.945
95,418,7.946
95,377,7.947
65,240,7.948
35,136,7.949
11,130,7.95
-21,162,7.951
-49,157,7.952
-48,118,7.953
-10,50,7.954
36,-44,7.955
52,-145,7.956
33,-212,7.957
10,-228,7.958
13,-216,7.959
26,-184,7.96
15,-121,7.961
-18,-30,7.962
-32,77,7.963
-7,183,7.964
28,249,7.965
42,214,7.966
38,88,7.967
33,-29,7.968
26,-70,7.969
7,-63,7.97
-15,-54,7.971
-28,-15,7.972
-29,94,7.973
-14,254,7.974
13,395,7.975
41,474,7.976
45,483,7.977
22,368,7.978
-7,89,7.979
-19,-276,7.98
-22,-563,7.981
-33,-685,7.982
-38,-700,7.983
-16,-685,7.984
22,-635,7.985
37,-507,7.986
21,-317,7.987
5,-145,7.988
12,-27,7.989
22,63,7.99
5,153,7.991
-28,229,7.992
-41,271,7.993
-29,283,7.994
-16,278,7.995
-24,253,7.996
-29,208,7.997
-5,167,7.998
36,145,7.999
57,133,8.0
51,119,8.001
46,106,8.002
48,103,8.003
31,104,8.004
-8,103,8.005
-22,100,8.006
18,95,8.007
55,90,8.008
24,90,8.009
-51,86,8.01
-93,63,8.011
-78,18,8.012
-58,-22,8.013
-63,-57,8.014
-65,-103,8.015
-59,-174,8.016
-21,-234,8.017
16,-229,8.018
55,-167,8.019
84,-98,8.02
82,-44,8.021
76,5,8.022
62,37,8.023
44,31,8.024
14,6,8.025
-13,7,8.026
-29,36,8.027
-40,54,8.028
-34,48,8.029
-27,39,8.03
-16,39,8.031
-5,38,8.032
4,36,8.033
11,36,8.034
11,37,8.035
22,19,8.036
34,-33,8.037
37,-86,8.038
37,-108,8.039
30,-89,8.04
7,-40,8.041
-22,20,8.042
-27,81,8.043
-6,123,8.044
4,149,8.045
-9,184,8.046
-18,242,8.047
-1,281,8.048
22,214,8.049
25,16,8.05
13,-238,8.051
6,-429,8.052
8,-498,8.053
3,-469,8.054
-5,-358,8.055
-11,-164,8.056
-8,77,8.057
4,279,8.058
22,358,8.059
33,314,8.06
26,215,8.061
13,127,8.062
5,60,8.063
0,-30,8.064
-18,-187,8.065
-38,-371,8.066
-31,-485,8.067
1,-477,8.068
19,-357,8.069
13,-153,8.07
12,88,8.071
33,263,8.072
47,278,8.073
27,150,8.074
-7,15,8.075
-22,-38,8.076
-29,-54,8.077
-56,-80,8.078
-80,-103,8.079
-58,-93,8.08
9,-71,8.081
66,-46,8.082
73,3,8.083
38,76,8.084
8,133,8.085
6,152,8.086
14,154,8.087
5,152,8.088
-13,138,8.089
-19,119,8.09
-16,116,8.091
-21,118,8.092
-32,105,8.093
-41,78,8.094
-36,76,8.095
-27,99,8.096
-10,106,8.097
23,79,8.098
57,39,8.099
65,10,8.1
51,-8,8.101
48,-25,8.102
54,-28,8.103
38,-13,8.104
-10,8,8.105
-53,15,8.106
-55,4,8.107
-28,-10,8.108
-3,-12,8.109
7,-2,8.11
11,10,8.111
22,16,8.112
46,17,8.113
72,12,8.114
63,4,8.115
-17,-14,8.116
-124,-46,8.117
-160,-71,8.118
-85,-81,8.119
22,-76,8.12
55,-66,8.121
5,-53,8.122
-47,-35,8.123
-60,-6,8.124
-50,26,8.125
-32,46,8.126
5,31,8.127
55,-16,8.128
84,-58,8.129
80,-64,8.13
62,-46,8.131
47,-32,8.132
34,-13,8.133
24,54,8.134
24,159,8.135
23,217,8.136
10,160,8.137
-4,37,8.138
0,-57,8.139
12,-59,8.14
4,22,8.141
-20,112,8.142
-32,96,8.143
-28,-80,8.144
-22,-330,8.145
-15,-486,8.146
1,-481,8.147
19,-381,8.148
24,-255,8.149
19,-110,8.15
16,27,8.151
16,93,8.152
13,78,8.153
12,64,8.154
17,121,8.155
18,203,8.156
9,213,8.157
1,135,8.158
2,24,8.159
6,-66,8.16
2,-125,8.161
-7,-139,8.162
-10,-97,8.163
-8,-8,8.164
-5,89,8.165
-1,150,8.166
2,155,8.167
-3,135,8.168
-12,137,8.169
-9,162,8.17
5,180,8.171
11,173,8.172
0,161,8.173
-6,154,8.174
10,135,8.175
30,103,8.176
27,36,8.177
3,-33,8.178
-13,-109,8.179
-13,-167,8.18
-9,-173,8.181
-14,-167,8.182
-19,-119,8.183
-20,-76,8.184
-11,-50,8.185
4,-45,8.186
12,-101,8.187
1,-151,8.188
-23,-179,8.189
-33,-178,8.19
-15,-86,8.191
11,-6,8.192
23,36,8.193
23,78,8.194
32,104,8.195
51,91,8.196
81,54,8.197
110,54,8.198
116,100,8.199
58,162,8.2
-48,201,8.201
-126,198,8.202
-131,129,8.203
-99,-1,8.204
-85,-124,8.205
-77,-162,8.206
-40,-121,8.207
4,-68,8.208
11,-35,8.209
-8,-16,8.21
-9,-9,8.211
10,-16,8.212
26,-15,8.213
27,6,8.214
33,33,8.215
37,43,8.216
28,45,8.217
17,59,8.218
21,63,8.219
35,36,8.22
36,4,8.221
22,3,8.222
12,28,8.223
12,55,8.224
11,72,8.225
1,86,8.226
-9,107,8.227
-14,143,8.228
-13,182,8.229
-3,178,8.23
6,111,8.231
4,22,8.232
2,-32,8.233
15,-87,8.234
36,-197,8.235
38,-364,8.236
11,-504,8.237
-16,-535,8.238
-15,-464,8.239
2,-338,8.24
3,-174,8.241
-12,18,8.242
-20,181,8.243
-3,247,8.244
23,224,8.245
36,197,8.246
33,209,8.247
26,210,8.248
19,164,8.249
12,116,8.25
1,114,8.251
-13,125,8.252
-23,96,8.253
-26,35,8.254
-18,12,8.255
-12,34,8.256
-16,37,8.257
-20,0,8.258
-11,-39,8.259
8,-72,8.26
13,-136,8.261
-2,-228,8.262
-18,-288,8.263
-15,-278,8.264
-4,-234,8.265
-2,-193,8.266
-6,-130,8.267
-10,-14,8.268
-8,117,8.269
-2,182,8.27
7,152,8.271
22,84,8.272
39,45,8.273
56,37,8.274
61,38,8.275
49,33,8.276
39,42,8.277
48,75,8.278
58,102,8.279
20,97,8.28
-66,67,8.281
-140,35,8.282
-135,4,8.283
-69,-18,8.284
-10,-18,8.285
10,7,8.286
15,30,8.287
27,33,8.288
31,31,8.289
10,30,8.29
-16,26,8.291
-19,19,8.292
-5,26,8.293
6,41,8.294
1,45,8.295
-4,28,8.296
0,4,8.297
7,-7,8.298
12,-14,8.299
16,-23,8.3
22,-27,8.301
22,-21,8.302
16,-15,8.303
12,-13,8.304
10,-7,8.305
9,4,8.306
6,17,8.307
7,32,8.308
8,53,8.309
3,78,8.31
0,86,8.311
2,79,8.312
7,68,8.313
8,61,8.314
3,53,8.315
4,41,8.316
7,34,8.317
7,51,8.318
9,80,8.319
14,86,8.32
13,51,8.321
4,-9,8.322
-2,-98,8.323
-4,-227,8.324
-7,-374,8.325
-13,-467,8.326
-12,-450,8.327
-1,-343,8.328
9,-205,8.329
8,-75,8.33
4,26,8.331
6,73,8.332
7,68,8.333
-2,44,8.334
-8,40,8.335
-3,44,8.336
9,23,8.337
13,-7,8.338
9,-14,8.339
9,8,8.34
13,52,8.341
15,101,8.342
14,126,8.343
11,88,8.344
7,14,8.345
-1,-22,8.346
-13,-3,8.347
-20,12,8.348
-15,4,8.349
7,16,8.35
32,63,8.351
39,86,8.352
26,72,8.353
7,73,8.354
1,115,8.355
0,143,8.356
-12,122,8.357
-37,105,8.358
-47,121,8.359
-31,133,8.36
-1,116,8.361
12,103,8.362
2,94,8.363
-12,38,8.364
-13,-65,8.365
-4,-143,8.366
2,-156,8.367
0,-148,8.368
-5,-146,8.369
-6,-132,8.37
-2,-102,8.371
5,-92,8.372
14,-99,8.373
16,-86,8.374
12,-40,8.375
7,-9,8.376
7,-20,8.377
16,-33,8.378
20,-18,8.379
18,4,8.38
18,15,8.381
19,26,8.382
21,48,8.383
19,67,8.384
17,73,8.385
16,81,8.386
15,88,8.387
15,79,8.388
20,53,8.389
27,34,8.39
32,27,8.391
34,20,8.392
33,12,8.393
21,9,8.394
-9,7,8.395
-49,-7,8.396
-74,-29,8.397
-72,-35,8.398
-55,-23,8.399
-41,-9,8.4
-34,11,8.401
-25,47,8.402
-16,76,8.403
-10,59,8.404
-13,5,8.405
-16,-34,8.406
-14,-40,8.407
-6,-51,8.408
4,-97,8.409
14,-147,8.41
19,-161,8.411
19,-142,8.412
18,-115,8.413
18,-74,8.414
21,-10,8.415
21,51,8.416
20,100,8.417
21,141,8.418
24,159,8.419
19,164,8.42
4,126,8.421
-5,87,8.422
2,43,8.423
20,0,8.424
28,-40,8.425
20,-75,8.426
8,-93,8.427
3,-108,8.428
6,-110,8.429
7,-115,8.43
1,-123,8.431
-3,-129,8.432
-1,-127,8.433
1,-113,8.434
-1,-53,8.435
-7,12,8.436
-8,69,8.437
-4,118,8.438
5,150,8.439
13,156,8.44
15,146,8.441
12,122,8.442
4,75,8.443
-2,13,8.444
-1,-33,8.445
3,-54,8.446
7,-64,8.447
7,-71,8.448
7,-63,8.449
8,-44,8.45
8,-36,8.451
2,-41,8.452
0,-35,8.453
3,-12,8.454
9,3,8.455
10,2,8.456
10,6,8.457
17,44,8.458
17,99,8.459
-5,152,8.46
-39,197,8.461
-51,227,8.462
-26,212,8.463
5,139,8.464
7,50,8.465
-11,-4,8.466
-19,-29,8.467
-11,-78,8.468
-10,-157,8.469
-18,-215,8.47
-17,-213,8.471
-2,-191,8.472
7,-196,8.473
1,-216,8.474
-3,-195,8.475
5,-123,8.476
16,-62,8.477
19,-29,8.478
21,16,8.479
28,96,8.48
33,167,8.481
26,171,8.482
17,133,8.483
15,116,8.484
16,133,8.485
10,143,8.486
1,113,8.487
-2,43,8.488
-3,-41,8.489
-6,-96,8.49
-9,-90,8.491
-7,-42,8.492
0,-7,8.493
5,-7,8.494
4,-20,8.495
-1,-30,8.496
-5,-49,8.497
-5,-73,8.498
-2,-78,8.499
-1,-59,8.5
-7,-34,8.501
-15,-5,8.502
-13,40,8.503
-4,93,8.504
-2,133,8.505
-2,170,8.506
5,224,8.507
17,284,8.508
18,307,8.509
5,281,8.51
-7,234,8.511
-12,165,8.512
-15,51,8.513
-22,-145,8.514
-26,-374,8.515
-19,-551,8.516
-6,-625,8.517
0,-587,8.518
4,-472,8.519
14,-318,8.52
20,-159,8.521
21,-29,8.522
22,51,8.523
32,88,8.524
43,112,8.525
50,137,8.526
55,153,8.527
55,151,8.528
42,145,8.529
16,140,8.53
-6,127,8.531
-13,105,8.532
-17,94,8.533
-29,99,8.534
-39,110,8.535
-33,118,8.536
-14,121,8.537
0,122,8.538
4,99,8.539
1,51,8.54
-7,-2,8.541
-18,-39,8.542
-20,-58,8.543
-11,-53,8.544
-1,-10,8.545
-1,64,8.546
-4,126,8.547
-4,143,8.548
0,122,8.549
-1,76,8.55
-2,0,8.551
1,-110,8.552
7,-200,8.553
10,-230,8.554
9,-182,8.555
9,-102,8.556
4,-40,8.557
1,-13,8.558
3,-25,8.559
10,-64,8.56
11,-99,8.561
6,-97,8.562
1,-62,8.563
1,-22,8.564
3,9,8.565
2,35,8.566
2,53,8.567
2,51,8.568
3,39,8.569
3,26,8.57
6,14,8.571
10,8,8.572
11,12,8.573
5,23,8.574
4,35,8.575
6,44,8.576
3,45,8.577
-5,46,8.578
-7,48,8.579
-4,53,8.58
-5,62,8.581
-10,70,8.582
-8,68,8.583
0,74,8.584
4,106,8.585
3,137,8.586
1,167,8.587
2,174,8.588
1,112,8.589
1,42,8.59
4,-55,8.591
10,-141,8.592
12,-195,8.593
8,-238,8.594
9,-232,8.595
12,-215,8.596
9,-205,8.597
-2,-191,8.598
-13,-173,8.599
-21,-156,8.6
-24,-140,8.601
-18,-113,8.602
-2,-70,8.603
18,-17,8.604
27,22,8.605
27,32,8.606
29,12,8.607
34,-7,8.608
31,-4,8.609
20,24,8.61
10,61,8.611
7,103,8.612
7,145,8.613
3,159,8.614
-4,118,8.615
-14,37,8.616
-18,-26,8.617
-12,-29,8.618
2,13,8.619
12,65,8.62
8,100,8.621
1,106,8.622
1,80,8.623
3,47,8.624
2,37,8.625
1,49,8.626
2,53,8.627
2,41,8.628
-3,28,8.629
-8,26,8.63
-6,31,8.631
-3,43,8.632
-2,68,8.633
-6,108,8.634
-5,159,8.635
-5,210,8.636
-9,222,8.637
-8,164,8.638
-1,46,8.639
5,-63,8.64
1,-132,8.641
-4,-207,8.642
-5,-326,8.643
0,-428,8.644
3,-437,8.645
2,-364,8.646
2,-278,8.647
2,-195,8.648
1,-92,8.649
3,12,8.65
11,62,8.651
20,64,8.652
22,74,8.653
17,106,8.654
12,131,8.655
7,133,8.656
1,136,8.657
-2,151,8.658
-1,154,8.659
-4,144,8.66
-16,165,8.661
-25,231,8.662
-19,293,8.663
-4,292,8.664
3,220,8.665
1,110,8.666
1,-11,8.667
4,-136,8.668
4,-245,8.669
2,-306,8.67
0,-318,8.671
0,-310,8.672
-1,-303,8.673
-2,-279,8.674
3,-219,8.675
8,-127,8.676
8,-24,8.677
7,82,8.678
14,174,8.679
26,213,8.68
32,183,8.681
29,110,8.682
21,37,8.683
14,-15,8.684
5,-38,8.685
-4,-21,8.686
-8,30,8.687
-4,73,8.688
0,64,8.689
-1,1,8.69
-7,-71,8.691
-10,-96,8.692
-7,-59,8.693
-6,4,8.694
-6,39,8.695
-11,36,8.696
-14,34,8.697
-10,54,8.698
-4,71,8.699
0,84,8.7
-1,133,8.701
-4,225,8.702
-3,296,8.703
1,301,8.704
3,255,8.705
1,168,8.706
-2,4,8.707
-4,-223,8.708
0,-426,8.709
9,-543,8.71
16,-589,8.711
15,-568,8.712
13,-457,8.713
12,-262,8.714
14,-86,8.715
10,12,8.716
2,75,8.717
1,149,8.718
10,197,8.719
18,193,8.72
19,176,8.721
16,174,8.722
14,167,8.723
7,137,8.724
-3,117,8.725
-10,116,8.726
-6,107,8.727
0,82,8.728
-1,71,8.729
-6,82,8.73
-7,97,8.731
0,116,8.732
6,155,8.733
2,194,8.734
-5,196,8.735
-11,160,8.736
-15,125,8.737
-16,97,8.738
-12,48,8.739
-4,-28,8.74
-2,-97,8.741
-4,-146,8.742
-7,-187,8.743
-3,-224,8.744
1,-251,8.745
0,-282,8.746
-3,-317,8.747
-3,-325,8.748
2,-268,8.749
10,-170,8.75
18,-81,8.751
26,-19,8.752
32,32,8.753
32,74,8.754
31,87,8.755
28,76,8.756
22,69,8.757
12,93,8.758
7,133,8.759
6,167,8.76
6,181,8.761
1,172,8.762
-5,141,8.763
-9,104,8.764
-12,65,8.765
-15,8,8.766
-13,-54,8.767
-8,-76,8.768
-6,-45,8.769
-9,-19,8.77
-12,-39,8.771
-10,-74,8.772
-8,-68,8.773
-11,-27,8.774
-11,20,8.775
-11,74,8.776
-7,129,8.777
-5,153,8.778
-1,117,8.779
4,57,8.78
4,9,8.781
0,-57,8.782
-1,-161,8.783
2,-246,8.784
9,-261,8.785
13,-245,8.786
15,-242,8.787
16,-215,8.788
16,-126,8.789
13,-24,8.79
11,29,8.791
12,57,8.792
16,102,8.793
18,141,8.794
20,133,8.795
18,107,8.796
11,117,8.797
1,164,8.798
-1,204,8.799
-2,217,8.8
-7,198,8.801
-14,154,8.802
-14,113,8.803
-5,106,8.804
1,113,8.805
-2,76,8.806
-10,2,8.807
-11,-48,8.808
-8,-58,8.809
-7,-69,8.81
-7,-95,8.811
-6,-100,8.812
-2,-93,8.813
-1,-143,8.814
0,-260,8.815
4,-359,8.816
9,-363,8.817
13,-290,8.818
20,-198,8.819
30,-94,8.82
33,23,8.821
25,127,8.822
13,206,8.823
7,289,8.824
7,367,8.825
4,378,8.826
4,293,8.827
8,169,8.828
8,53,8.829
1,-79,8.83
-5,-239,8.831
-5,-367,8.832
-3,-410,8.833
-5,-384,8.834
-7,-318,8.835
-11,-210,8.836
-13,-69,8.837
-13,66,8.838
-5,153,8.839
8,196,8.84
16,223,8.841
12,234,8.842
6,216,8.843
7,157,8.844
8,62,8.845
4,-34,8.846
-4,-85,8.847
-11,-80,8.848
-15,-53,8.849
-14,-30,8.85
-10,1,8.851
-1,48,8.852
6,81,8.853
10,79,8.854
11,66,8.855
9,71,8.856
5,85,8.857
4,100,8.858
10,121,8.859
15,143,8.86
9,140,8.861
-4,106,8.862
-11,79,8.863
-7,81,8.864
-3,78,8.865
-4,38,8.866
-5,-11,8.867
0,-29,8.868
5,-30,8.869
4,-54,8.87
3,-114,8.871
4,-188,8.872
5,-248,8.873
0,-288,8.874
-6,-290,8.875
-11,-253,8.876
-14,-206,8.877
-12,-166,8.878
-4,-131,8.879
10,-78,8.88
20,-3,8.881
22,87,8.882
24,179,8.883
26,259,8.884
24,290,8.885
16,245,8.886
10,140,8.887
7,40,8.888
4,6,8.889
1,41,8.89
-2,98,8.891
-4,138,8.892
-4,147,8.893
-7,106,8.894
-9,2,8.895
-12,-126,8.896
-13,-203,8.897
-10,-201,8.898
0,-200,8.899
11,-260,8.9
12,-339,8.901
5,-359,8.902
0,-310,8.903
1,-216,8.904
6,-72,8.905
9,107,8.906
12,246,8.907
14,289,8.908
15,280,8.909
16,274,8.91
17,257,8.911
16,200,8.912
12,139,8.913
4,101,8.914
-1,56,8.915
-7,-29,8.916
-15,-98,8.917
-17,-75,8.918
-13,-1,8.919
-4,24,8.92
-2,-34,8.921
-2,-133,8.922
0,-226,8.923
1,-286,8.924
-3,-270,8.925
-7,-149,8.926
-2,26,8.927
4,164,8.928
8,219,8.929
11,226,8.93
20,242,8.931
24,277,8.932
19,289,8.933
8,231,8.934
-1,124,8.935
-6,28,8.936
-13,-33,8.937
-15,-81,8.938
-10,-133,8.939
-3,-153,8.94
-2,-129,8.941
-4,-112,8.942
-1,-138,8.943
3,-171,8.944
5,-179,8.945
1,-179,8.946
1,-186,8.947
5,-165,8.948
10,-89,8.949
12,-3,8.95
10,52,8.951
9,94,8.952
12,146,8.953
12,200,8.954
12,251,8.955
9,296,8.956
2,321,8.957
-3,315,8.958
0,215,8.959
1,118,8.96
-2,33,8.961
-5,-69,8.962
-3,-223,8.963
-1,-334,8.964
2,-310,8.965
4,-267,8.966
1,-173,8.967
-1,-97,8.968
-1,-79,8.969
-1,-74,8.97
0,-106,8.971
1,-131,8.972
0,-131,8.973
-2,-121,8.974
-3,-85,8.975
-3,-76,8.976
-1,-77,8.977
2,-44,8.978
6,17,8.979
12,75,8.98
11,126,8.981
5,182,8.982
3,234,8.983
7,257,8.984
14,237,8.985
18,192,8.986
16,147,8.987
11,122,8.988
4,125,8.989
0,154,8.99
0,174,8.991
-1,153,8.992
-3,107,8.993
-8,46,8.994
-10,-43,8.995
-8,-187,8.996
-7,-348,8.997
-7,-437,8.998
-2,-422,8.999
6,-347,9.0
8,-247,9.001
0,-126,9.002
-6,-14,9.003
-7,40,9.004
-3,52,9.005
-1,98,9.006
4,199,9.007
11,280,9.008
15,293,9.009
13,264,9.01
11,238,9.011
8,206,9.012
6,151,9.013
1,75,9.014
-2,26,9.015
-6,30,9.016
-11,52,9.017
-12,24,9.018
-10,-87,9.019
-4,-225,9.02
-3,-311,9.021
-4,-342,9.022
0,-357,9.023
7,-352,9.024
11,-293,9.025
8,-204,9.026
8,-145,9.027
9,-109,9.028
13,-42,9.029
13,64,9.03
17,153,9.031
21,201,9.032
20,226,9.033
7,228,9.034
-6,199,9.035
-10,162,9.036
-4,152,9.037
1,160,9.038
4,139,9.039
2,94,9.04
-5,67,9.041
-14,58,9.042
-13,45,9.043
-4,30,9.044
4,17,9.045
9,-18,9.046
12,-97,9.047
14,-173,9.048
13,-191,9.049
7,-162,9.05
0,-121,9.051
0,-74,9.052
7,-30,9.053
13,-7,9.054
11,-2,9.055
1,23,9.056
-4,88,9.057
-3,165,9.058
4,218,9.059
10,243,9.06
9,230,9.061
2,148,9.062
-4,-1,9.063
-6,-174,9.064
-5,-308,9.065
-3,-354,9.066
-4,-290,9.067
-7,-135,9.068
-9,37,9.069
-6,157,9.07
-5,215,9.071
-3,233,9.072
0,219,9.073
7,152,9.074
12,42,9.075
14,-72,9.076
13,-165,9.077
12,-227,9.078
12,-261,9.079
13,-278,9.08
15,-296,9.081
12,-308,9.082
5,-271,9.083
0,-164,9.084
-2,-28,9.085
-6,86,9.086
-12,177,9.087
-13,291,9.088
-4,445,9.089
7,588,9.09
12,635,9.091
9,547,9.092
8,378,9.093
9,159,9.094
7,-93,9.095
-1,-379,9.096
-8,-611,9.097
-7,-667,9.098
-1,-553,9.099
5,-390,9.1
1,-255,9.101
-6,-125,9.102
-9,2,9.103
-7,77,9.104
-1,104,9.105
7,147,9.106
20,213,9.107
29,234,9.108
25,194,9.109
9,147,9.11
-4,120,9.111
-3,88,9.112
4,59,9.113
3,69,9.114
-2,116,9.115
-8,140,9.116
-10,108,9.117
-9,51,9.118
-4,-11,9.119
5,-85,9.12
10,-152,9.121
8,-165,9.122
4,-111,9.123
6,-31,9.124
8,28,9.125
3,70,9.126
-1,116,9.127
4,166,9.128
7,191,9.129
4,159,9.13
-2,62,9.131
-2,-68,9.132
1,-188,9.133
2,-280,9.134
3,-328,9.135
4,-327,9.136
5,-180,9.137
6,-23,9.138
8,165,9.139
10,314,9.14
7,346,9.141
0,327,9.142
-1,156,9.143
7,-15,9.144
13,-188,9.145
6,-322,9.146
-4,-338,9.147
-7,-328,9.148
-5,-242,9.149
-3,-146,9.15
-3,-21,9.151
-3,91,9.152
-2,167,9.153
-2,230,9.154
-2,220,9.155
-1,155,9.156
0,55,9.157
2,-56,9.158
10,-145,9.159
14,-164,9.16
13,-134,9.161
4,-121,9.162
0,-128,9.163
5,-84,9.164
6,9,9.165
1,70,9.166
-3,69,9.167
2,77,9.168
6,117,9.169
4,136,9.17
1,121,9.171
5,124,9.172
10,147,9.173
9,144,9.174
6,132,9.175
2,158,9.176
-5,188,9.177
-10,137,9.178
-5,8,9.179
4,-108,9.18
6,-166,9.181
-3,-181,9.182
-8,-156,9.183
-5,-99,9.184
-3,-63,9.185
-5,-83,9.186
-4,-84,9.187
3,21,9.188
8,226,9.189
5,441,9.19
2,567,9.191
5,512,9.192
8,263,9.193
9,-147,9.194
9,-549,9.195
3,-809,9.196
-3,-886,9.197
-5,-781,9.198
0,-529,9.199
6,-229,9.2
1,-2,9.201
-5,118,9.202
-4,188,9.203
4,268,9.204
9,367,9.205
11,444,9.206
15,431,9.207
19,295,9.208
15,96,9.209
3,-58,9.21
-4,-120,9.211
-7,-120,9.212
-7,-90,9.213
-8,-44,9.214
-5,-4,9.215
-3,5,9.216
-3,0,9.217
-5,18,9.218
-5,50,9.219
-4,84,9.22
-4,143,9.221
-1,220,9.222
7,242,9.223
19,161,9.224
23,47,9.225
20,-21,9.226
18,-64,9.227
16,-134,9.228
11,-206,9.229
2,-217,9.23
-1,-163,9.231
-2,-75,9.232
0,29,9.233
-3,132,9.234
-5,163,9.235
-8,97,9.236
-10,11,9.237
-9,-7,9.238
-3,9,9.239
2,-1,9.24
1,-15,9.241
-1,6,9.242
-1,24,9.243
2,-13,9.244
0,-53,9.245
-4,-37,9.246
-3,-14,9.247
5,-47,9.248
12,-82,9.249
12,-43,9.25
13,11,9.251
17,-24,9.252
18,-114,9.253
13,-154,9.254
8,-119,9.255
4,-84,9.256
4,-84,9.257
4,-78,9.258
8,-73,9.259
11,-100,9.26
7,-126,9.261
-2,-82,9.262
-7,15,9.263
-4,102,9.264
4,171,9.265
15,255,9.266
21,316,9.267
23,284,9.268
18,184,9.269
10,108,9.27
-1,85,9.271
-9,64,9.272
-13,24,9.273
-15,-24,9.274
-17,-75,9.275
-21,-147,9.276
-25,-222,9.277
-23,-227,9.278
-12,-118,9.279
-2,77,9.28
0,266,9.281
-2,321,9.282
0,174,9.283
10,-83,9.284
20,-286,9.285
22,-354,9.286
20,-323,9.287
18,-235,9.288
12,-110,9.289
1,0,9.29
-9,41,9.291
-12,27,9.292
-8,17,9.293
-7,27,9.294
-7,47,9.295
-7,82,9.296
-1,142,9.297
10,200,9.298
19,230,9.299
22,241,9.3
20,228,9.301
17,156,9.302
17,38,9.303
18,-36,9.304
18,-29,9.305
11,12,9.306
0,37,9.307
-5,47,9.308
-10,17,9.309
-13,-108,9.31
-19,-285,9.311
-23,-368,9.312
-20,-285,9.313
-11,-98,9.314
1,60,9.315
6,104,9.316
2,27,9.317
-3,-98,9.318
-4,-151,9.319
-1,-60,9.32
-2,93,9.321
-2,154,9.322
3,74,9.323
9,-58,9.324
7,-150,9.325
0,-186,9.326
-3,-174,9.327
2,-119,9.328
9,-50,9.329
9,-7,9.33
8,6,9.331
8,25,9.332
11,58,9.333
11,88,9.334
7,103,9.335
2,97,9.336
3,74,9.337
11,53,9.338
22,59,9.339
27,100,9.34
19,172,9.341
7,290,9.342
2,468,9.343
9,627,9.344
17,626,9.345
14,381,9.346
5,-19,9.347
-4,-395,9.348
-10,-630,9.349
-14,-714,9.35
-18,-687,9.351
-21,-586,9.352
-21,-452,9.353
-19,-288,9.354
-19,-98,9.355
-23,112,9.356
-28,299,9.357
-24,423,9.358
-8,454,9.359
8,367,9.36
13,167,9.361
10,-59,9.362
12,-196,9.363
19,-216,9.364
22,-188,9.365
18,-148,9.366
11,-68,9.367
11,41,9.368
12,121,9.369
8,150,9.37
4,157,9.371
4,140,9.372
9,83,9.373
11,23,9.374
10,35,9.375
8,95,9.376
6,112,9.377
8,74,9.378
16,16,9.379
21,-61,9.38
16,-163,9.381
3,-200,9.382
-6,-102,9.383
-2,29,9.384
3,23,9.385
1,-124,9.386
-6,-248,9.387
-10,-232,9.388
-11,-117,9.389
-9,7,9.39
-3,101,9.391
1,164,9.392
3,185,9.393
-2,153,9.394
-4,87,9.395
-4,34,9.396
-3,28,9.397
-2,67,9.398
6,104,9.399
15,87,9.4
12,-2,9.401
-2,-140,9.402
-8,-263,9.403
-1,-305,9.404
9,-231,9.405
8,-63,9.406
3,118,9.407
2,240,9.408
4,288,9.409
1,294,9.41
-1,271,9.411
0,193,9.412
4,65,9.413
1,-69,9.414
-3,-131,9.415
-6,-141,9.416
-8,-180,9.417
-10,-257,9.418
-10,-301,9.419
-5,-256,9.42
-3,-131,9.421
-2,30,9.422
0,155,9.423
4,158,9.424
9,37,9.425
15,-75,9.426
19,-56,9.427
20,56,9.428
17,136,9.429
16,141,9.43
22,92,9.431
29,-5,9.432
24,-110,9.433
6,-153,9.434
-9,-85,9.435
-18,28,9.436
-19,103,9.437
-17,149,9.438
-11,177,9.439
-8,147,9.44
-6,65,9.441
-10,33,9.442
-11,95,9.443
-9,148,9.444
-6,83,9.445
0,-80,9.446
6,-233,9.447
11,-280,9.448
12,-181,9.449
15,2,9.45
18,113,9.451
16,35,9.452
11,-149,9.453
2,-283,9.454
0,-298,9.455
0,-277,9.456
3,-143,9.457
8,-7,9.458
16,138,9.459
20,249,9.46
11,254,9.461
4,276,9.462
4,346,9.463
3,361,9.464
2,205,9.465
0,58,9.466
-2,-59,9.467
-5,-132,9.468
-5,-73,9.469
-5,-36,9.47
-7,-72,9.471
-11,-111,9.472
-15,-159,9.473
-18,-181,9.474
-16,-95,9.475
-6,30,9.476
7,141,9.477
18,167,9.478
28,48,9.479
34,-158,9.48
31,-296,9.481
15,-293,9.482
-2,-216,9.483
-10,-142,9.484
-6,-64,9.485
-3,17,9.486
-7,39,9.487
-15,13,9.488
-20,52,9.489
-18,209,9.49
-7,380,9.491
11,462,9.492
27,449,9.493
35,346,9.494
30,148,9.495
16,-88,9.496
0,-253,9.497
-9,-320,9.498
-11,-364,9.499
-11,-396,9.5
-16,-337,9.501
-22,-188,9.502
-23,-54,9.503
-17,33,9.504
-10,167,9.505
0,396,9.506
19,648,9.507
37,838,9.508
44,889,9.509
39,679,9.51
32,154,9.511
28,-497,9.512
20,-941,9.513
2,-1091,9.514
-13,-1032,9.515
-17,-854,9.516
-19,-565,9.517
-24,-228,9.518
-27,10,9.519
-20,147,9.52
-11,331,9.521
-6,582,9.522
-2,684,9.523
10,471,9.524
17,66,9.525
12,-271,9.526
0,-422,9.527
-2,-416,9.528
1,-299,9.529
2,-94,9.53
-2,125,9.531
-4,264,9.532
0,302,9.533
7,300,9.534
15,324,9.535
17,356,9.536
17,334,9.537
15,234,9.538
16,78,9.539
18,-92,9.54
13,-236,9.541
0,-306,9.542
-9,-270,9.543
-10,-160,9.544
-8,-55,9.545
-12,-12,9.546
-15,-9,9.547
-13,10,9.548
-7,62,9.549
0,102,9.55
10,89,9.551
23,34,9.552
31,-14,9.553
30,-29,9.554
19,-2,9.555
8,52,9.556
0,116,9.557
-5,177,9.558
-9,219,9.559
-15,256,9.56
-22,296,9.561
-28,276,9.562
-29,103,9.563
-23,-205,9.564
-15,-487,9.565
-6,-600,9.566
4,-553,9.567
20,-397,9.568
32,-143,9.569
33,133,9.57
28,254,9.571
26,148,9.572
30,-17,9.573
32,-79,9.574
24,-43,9.575
6,-18,9.576
-10,-18,9.577
-18,6,9.578
-17,22,9.579
-10,-16,9.58
-6,-36,9.581
-6,31,9.582
-2,119,9.583
7,134,9.584
14,114,9.585
8,131,9.586
-5,145,9.587
-17,102,9.588
-25,54,9.589
-30,71,9.59
-24,104,9.591
-5,60,9.592
17,-40,9.593
28,-151,9.594
34,-244,9.595
45,-304,9.596
66,-278,9.597
77,-128,9.598
65,106,9.599
32,362,9.6
0,563,9.601
-15,561,9.602
-12,258,9.603
-2,-191,9.604
3,-486,9.605
0,-521,9.606
-8,-447,9.607
-20,-364,9.608
-30,-215,9.609
-40,4,9.61
-45,145,9.611
-46,130,9.612
-36,64,9.613
-18,39,9.614
-2,61,9.615
9,122,9.616
6,236,9.617
0,329,9.618
2,263,9.619
14,58,9.62
18,-95,9.621
10,-104,9.622
-2,-58,9.623
-4,-30,9.624
5,9,9.625
16,45,9.626
19,-19,9.627
15,-179,9.628
1,-302,9.629
-10,-309,9.63
-11,-251,9.631
-3,-181,9.632
3,-101,9.633
-2,-5,9.634
-7,77,9.635
-5,156,9.636
1,245,9.637
12,337,9.638
26,380,9.639
36,346,9.64
34,226,9.641
19,29,9.642
9,-174,9.643
4,-273,9.644
-3,-234,9.645
-16,-107,9.646
-24,52,9.647
-21,199,9.648
-15,253,9.649
-11,150,9.65
-6,-27,9.651
0,-132,9.652
7,-143,9.653
2,-144,9.654
-7,-138,9.655
-14,-111,9.656
-13,-21,9.657
-8,44,9.658
7,30,9.659
19,39,9.66
17,115,9.661
16,180,9.662
17,208,9.663
19,193,9.664
17,47,9.665
14,-110,9.666
8,-306,9.667
3,-424,9.668
0,-310,9.669
-1,-210,9.67
0,-154,9.671
3,-96,9.672
7,-32,9.673
10,46,9.674
7,160,9.675
0,230,9.676
-7,207,9.677
-10,117,9.678
-5,35,9.679
4,-5,9.68
9,-10,9.681
7,24,9.682
4,100,9.683
3,164,9.684
3,166,9.685
1,111,9.686
-3,36,9.687
-4,-60,9.688
0,-167,9.689
6,-213,9.69
13,-169,9.691
16,-104,9.692
16,-86,9.693
14,-87,9.694
10,-40,9.695
3,58,9.696
-5,165,9.697
-9,251,9.698
-4,268,9.699
6,184,9.7
11,67,9.701
5,19,9.702
-1,9,9.703
-5,-81,9.704
-9,-230,9.705
-17,-258,9.706
-23,-84,9.707
-23,133,9.708
-20,183,9.709
-17,21,9.71
-14,-210,9.711
-7,-351,9.712
2,-348,9.713
13,-241,9.714
22,-90,9.715
27,82,9.716
29,262,9.717
34,395,9.718
43,417,9.719
41,323,9.72
23,170,9.721
6,2,9.722
4,-148,9.723
10,-226,9.724
5,-192,9.725
-9,-93,9.726
-16,-60,9.727
-10,-152,9.728
-6,-257,9.729
-6,-223,9.73
-7,-70,9.731
-4,58,9.732
-1,90,9.733
-4,88,9.734
-11,111,9.735
-12,127,9.736
-5,95,9.737
6,52,9.738
14,44,9.739
12,75,9.74
4,108,9.741
-1,106,9.742
-6,77,9.743
-10,53,9.744
-12,15,9.745
-9,-106,9.746
-5,-285,9.747
-3,-352,9.748
-4,-222,9.749
-4,-33,9.75
-2,61,9.751
0,106,9.752
6,185,9.753
11,224,9.754
11,110,9.755
6,-76,9.756
4,-158,9.757
12,-116,9.758
19,-55,9.759
19,5,9.76
9,115,9.761
1,230,9.762
3,253,9.763
10,210,9.764
13,201,9.765
12,206,9.766
11,104,9.767
12,-111,9.768
12,-286,9.769
9,-308,9.77
4,-227,9.771
2,-137,9.772
2,-64,9.773
-2,-3,9.774
-10,4,9.775
-19,-70,9.776
-24,-160,9.777
-25,-172,9.778
-20,-109,9.779
-11,-38,9.78
-5,8,9.781
1,49,9.782
15,90,9.783
30,114,9.784
36,121,9.785
23,128,9.786
9,129,9.787
6,103,9.788
11,57,9.789
9,27,9.79
0,31,9.791
-1,43,9.792
1,46,9.793
-5,47,9.794
-14,64,9.795
-19,71,9.796
-16,30,9.797
-10,-40,9.798
-3,-93,9.799
8,-110,9.8
13,-96,9.801
9,-41,9.802
3,29,9.803
10,31,9.804
16,-74,9.805
12,-181,9.806
1,-174,9.807
-1,-90,9.808
3,-38,9.809
3,-23,9.81
-5,21,9.811
-8,69,9.812
0,56,9.813
10,6,9.814
13,9,9.815
10,54,9.816
15,58,9.817
25,31,9.818
28,36,9.819
18,65,9.82
6,57,9.821
-2,21,9.822
-10,13,9.823
-24,31,9.824
-41,32,9.825
-49,32,9.826
-42,54,9.827
-27,60,9.828
-17,12,9.829
-15,-47,9.83
-10,-59,9.831
-1,-32,9.832
11,-18,9.833
19,-37,9.834
23,-80,9.835
24,-139,9.836
23,-179,9.837
23,-143,9.838
24,-36,9.839
23,61,9.84
14,81,9.841
-1,43,9.842
-11,31,9.843
-9,89,9.844
-4,167,9.845
-4,159,9.846
-6,19,9.847
-5,-150,9.848
-2,-211,9.849
2,-153,9.85
5,-75,9.851
7,-36,9.852
7,-12,9.853
4,10,9.854
3,19,9.855
3,46,9.856
3,140,9.857
5,258,9.858
10,268,9.859
13,141,9.86
14,1,9.861
11,-44,9.862
9,-36,9.863
12,-63,9.864
13,-117,9.865
11,-144,9.866
9,-122,9.867
11,-12,9.868
14,226,9.869
9,442,9.87
2,324,9.871
-1,-168,9.872
0,-591,9.873
0,-559,9.874
2,-145,9.875
3,221,9.876
0,296,9.877
-5,161,9.878
-2,-79,9.879
16,-327,9.88
31,-398,9.881
32,-209,9.882
22,44,9.883
17,123,9.884
13,75,9.885
4,83,9.886
-3,163,9.887
-2,207,9.888
4,179,9.889
6,107,9.89
2,-2,9.891
0,-99,9.892
-1,-113,9.893
-13,-42,9.894
-26,26,9.895
-30,55,9.896
-26,81,9.897
-21,112,9.898
-16,109,9.899
-5,84,9.9
4,76,9.901
2,48,9.902
-4,-62,9.903
-8,-204,9.904
-10,-252,9.905
-14,-152,9.906
-13,33,9.907
-2,195,9.908
14,250,9.909
20,159,9.91
18,-28,9.911
15,-187,9.912
13,-223,9.913
4,-169,9.914
-2,-109,9.915
-4,-76,9.916
-4,-40,9.917
-6,5,9.918
-5,30,9.919
0,37,9.92
6,73,9.921
12,131,9.922
19,143,9.923
26,71,9.924
22,-37,9.925
9,-104,9.926
-1,-100,9.927
0,-50,9.928
2,-6,9.929
0,7,9.93
-4,3,9.931
-2,7,9.932
0,21,9.933
-4,20,9.934
-7,10,9.935
-4,17,9.936
3,49,9.937
7,84,9.938
10,87,9.939
13,70,9.94
15,81,9.941
11,135,9.942
5,161,9.943
1,91,9.944
-4,-40,9.945
-11,-144,9.946
-11,-199,9.947
-2,-241,9.948
7,-275,9.949
7,-254,9.95
2,-176,9.951
-1,-100,9.952
1,-56,9.953
1,-33,9.954
-3,-1,9.955
-14,55,9.956
-23,129,9.957
-21,187,9.958
-8,180,9.959
7,133,9.96
14,107,9.961
9,90,9.962
3,5,9.963
3,-124,9.964
0,-149,9.965
-4,2,9.966
-3,206,9.967
10,292,9.968
21,226,9.969
22,77,9.97
18,-76,9.971
18,-161,9.972
19,-136,9.973
13,-30,9.974
