Deltoid,Bicep,Time
3.0,-2.0,0.0
1.0,-7.0,0.001
0.0,-9.0,0.002
6.0,-8.0,0.003
15.0,-4.0,0.004
14.0,2.0,0.005
6.0,6.0,0.006
2.0,7.0,0.007
3.0,6.0,0.008
1.0,7.0,0.009
-4.0,8.0,0.01
-8.0,6.0,0.011
-4.0,5.0,0.012
-1.0,6.0,0.013
-3.0,7.0,0.014
-3.0,4.0,0.015
0.0,1.0,0.016
7.0,2.0,0.017
6.0,3.0,0.018
3.0,3.0,0.019
1.0,-2.0,0.02
2.0,-7.0,0.021
6.0,-7.0,0.022
12.0,-3.0,0.023
16.0,-1.0,0.024
14.0,2.0,0.025
5.0,7.0,0.026
0.0,11.0,0.027
0.0,9.0,0.028
1.0,5.0,0.029
0.0,6.0,0.03
-1.0,10.0,0.031
1.0,9.0,0.032
-1.0,5.0,0.033
-4.0,1.0,0.034
-3.0,0.0,0.035
3.0,-2.0,0.036
9.0,-7.0,0.037
7.0,-12.0,0.038
4.0,-13.0,0.039
3.0,-13.0,0.04
3.0,-16.0,0.041
5.0,-16.0,0.042
11.0,-13.0,0.043
17.0,-12.0,0.044
15.0,-9.0,0.045
4.0,-1.0,0.046
-1.0,6.0,0.047
1.0,7.0,0.048
1.0,3.0,0.049
-6.0,3.0,0.05
-12.0,6.0,0.051
-9.0,7.0,0.052
-3.0,4.0,0.053
-2.0,0.0,0.054
-7.0,-1.0,0.055
-7.0,-3.0,0.056
-3.0,-6.0,0.057
0.0,-8.0,0.058
2.0,-7.0,0.059
2.0,-7.0,0.06
3.0,-11.0,0.061
5.0,-12.0,0.062
9.0,-10.0,0.063
12.0,-5.0,0.064
9.0,1.0,0.065
2.0,8.0,0.066
0.0,9.0,0.067
3.0,7.0,0.068
4.0,5.0,0.069
0.0,6.0,0.07
-3.0,7.0,0.071
-5.0,6.0,0.072
-4.0,2.0,0.073
-4.0,-1.0,0.074
-2.0,0.0,0.075
-1.0,4.0,0.076
1.0,10.0,0.077
1.0,12.0,0.078
4.0,10.0,0.079
4.0,6.0,0.08
-1.0,-4.0,0.081
-3.0,-13.0,0.082
6.0,-15.0,0.083
19.0,-15.0,0.084
19.0,-8.0,0.085
9.0,-3.0,0.086
1.0,-3.0,0.087
1.0,-2.0,0.088
0.0,1.0,0.089
-6.0,3.0,0.09
-7.0,0.0,0.091
-2.0,-1.0,0.092
0.0,0.0,0.093
-3.0,2.0,0.094
-5.0,0.0,0.095
-1.0,-1.0,0.096
8.0,-3.0,0.097
10.0,-5.0,0.098
8.0,-4.0,0.099
4.0,-5.0,0.1
3.0,-10.0,0.101
4.0,-10.0,0.102
7.0,-5.0,0.103
11.0,0.0,0.104
11.0,3.0,0.105
4.0,6.0,0.106
0.0,7.0,0.107
2.0,6.0,0.108
6.0,3.0,0.109
4.0,3.0,0.11
-3.0,6.0,0.111
-7.0,4.0,0.112
-5.0,1.0,0.113
-2.0,0.0,0.114
-2.0,0.0,0.115
0.0,0.0,0.116
2.0,-1.0,0.117
3.0,-5.0,0.118
1.0,-8.0,0.119
-3.0,-10.0,0.12
-5.0,-10.0,0.121
-2.0,-9.0,0.122
6.0,-8.0,0.123
14.0,-6.0,0.124
15.0,-1.0,0.125
9.0,6.0,0.126
2.0,7.0,0.127
2.0,3.0,0.128
4.0,1.0,0.129
1.0,3.0,0.13
0.0,5.0,0.131
2.0,2.0,0.132
2.0,0.0,0.133
-2.0,0.0,0.134
-4.0,1.0,0.135
0.0,-1.0,0.136
6.0,-2.0,0.137
7.0,-4.0,0.138
3.0,-3.0,0.139
-2.0,-4.0,0.14
-4.0,-8.0,0.141
-2.0,-8.0,0.142
4.0,-4.0,0.143
11.0,0.0,0.144
10.0,3.0,0.145
4.0,1.0,0.146
1.0,0.0,0.147
2.0,1.0,0.148
1.0,3.0,0.149
-2.0,3.0,0.15
-4.0,3.0,0.151
-2.0,2.0,0.152
-1.0,2.0,0.153
0.0,3.0,0.154
1.0,4.0,0.155
5.0,2.0,0.156
10.0,0.0,0.157
8.0,-4.0,0.158
5.0,-3.0,0.159
2.0,-2.0,0.16
2.0,-7.0,0.161
1.0,-11.0,0.162
6.0,-11.0,0.163
10.0,-4.0,0.164
10.0,4.0,0.165
5.0,9.0,0.166
1.0,13.0,0.167
2.0,16.0,0.168
2.0,14.0,0.169
0.0,5.0,0.17
-4.0,-4.0,0.171
-5.0,-9.0,0.172
-4.0,-9.0,0.173
-3.0,-9.0,0.174
-2.0,-9.0,0.175
0.0,-6.0,0.176
5.0,-2.0,0.177
8.0,-4.0,0.178
7.0,-9.0,0.179
1.0,-10.0,0.18
-3.0,-10.0,0.181
0.0,-8.0,0.182
10.0,-6.0,0.183
20.0,-5.0,0.184
17.0,0.0,0.185
9.0,5.0,0.186
3.0,5.0,0.187
2.0,5.0,0.188
1.0,6.0,0.189
-1.0,8.0,0.19
-4.0,9.0,0.191
-3.0,7.0,0.192
-4.0,6.0,0.193
-5.0,4.0,0.194
-4.0,0.0,0.195
-2.0,-2.0,0.196
2.0,-1.0,0.197
4.0,-2.0,0.198
4.0,-3.0,0.199
2.0,-6.0,0.2
0.0,-10.0,0.201
0.0,-12.0,0.202
6.0,-11.0,0.203
15.0,-6.0,0.204
15.0,0.0,0.205
6.0,3.0,0.206
0.0,1.0,0.207
3.0,-1.0,0.208
5.0,0.0,0.209
-1.0,1.0,0.21
-8.0,1.0,0.211
-6.0,2.0,0.212
0.0,4.0,0.213
2.0,4.0,0.214
-1.0,0.0,0.215
-1.0,-4.0,0.216
4.0,0.0,0.217
5.0,2.0,0.218
3.0,0.0,0.219
0.0,-4.0,0.22
0.0,-8.0,0.221
-1.0,-5.0,0.222
2.0,-3.0,0.223
8.0,-2.0,0.224
8.0,1.0,0.225
1.0,6.0,0.226
-1.0,7.0,0.227
1.0,0.0,0.228
2.0,-2.0,0.229
-4.0,3.0,0.23
-7.0,8.0,0.231
-2.0,6.0,0.232
1.0,1.0,0.233
-3.0,0.0,0.234
-4.0,2.0,0.235
0.0,2.0,0.236
9.0,1.0,0.237
11.0,-1.0,0.238
9.0,-2.0,0.239
5.0,-4.0,0.24
1.0,-9.0,0.241
-1.0,-11.0,0.242
4.0,-7.0,0.243
12.0,-1.0,0.244
12.0,1.0,0.245
4.0,2.0,0.246
2.0,1.0,0.247
4.0,0.0,0.248
2.0,1.0,0.249
-4.0,3.0,0.25
-8.0,3.0,0.251
-4.0,1.0,0.252
-1.0,-2.0,0.253
-3.0,0.0,0.254
-2.0,3.0,0.255
4.0,2.0,0.256
9.0,-1.0,0.257
6.0,-6.0,0.258
0.0,-5.0,0.259
-3.0,-6.0,0.26
-2.0,-10.0,0.261
1.0,-10.0,0.262
7.0,-7.0,0.263
13.0,-3.0,0.264
11.0,1.0,0.265
3.0,10.0,0.266
0.0,18.0,0.267
2.0,20.0,0.268
2.0,11.0,0.269
-5.0,-1.0,0.27
-7.0,-8.0,0.271
-3.0,-10.0,0.272
-2.0,-11.0,0.273
-4.0,-12.0,0.274
-4.0,-10.0,0.275
0.0,-8.0,0.276
6.0,-6.0,0.277
6.0,-5.0,0.278
5.0,-4.0,0.279
4.0,-4.0,0.28
4.0,-7.0,0.281
5.0,-9.0,0.282
10.0,-8.0,0.283
15.0,-3.0,0.284
14.0,3.0,0.285
7.0,6.0,0.286
4.0,5.0,0.287
6.0,2.0,0.288
8.0,3.0,0.289
2.0,9.0,0.29
-3.0,12.0,0.291
-4.0,11.0,0.292
-3.0,8.0,0.293
-3.0,5.0,0.294
-2.0,3.0,0.295
-1.0,1.0,0.296
-1.0,1.0,0.297
-1.0,-1.0,0.298
2.0,-2.0,0.299
4.0,-5.0,0.3
0.0,-8.0,0.301
-4.0,-10.0,0.302
0.0,-7.0,0.303
11.0,-5.0,0.304
13.0,-3.0,0.305
6.0,-2.0,0.306
2.0,-1.0,0.307
6.0,-1.0,0.308
8.0,-1.0,0.309
1.0,-1.0,0.31
-5.0,0.0,0.311
-3.0,1.0,0.312
0.0,0.0,0.313
-1.0,-1.0,0.314
-3.0,-1.0,0.315
0.0,-1.0,0.316
5.0,-2.0,0.317
5.0,0.0,0.318
2.0,-3.0,0.319
-1.0,-7.0,0.32
-3.0,-12.0,0.321
-1.0,-15.0,0.322
7.0,-11.0,0.323
15.0,-7.0,0.324
13.0,-4.0,0.325
3.0,-1.0,0.326
-1.0,0.0,0.327
2.0,1.0,0.328
4.0,1.0,0.329
-1.0,0.0,0.33
-4.0,2.0,0.331
-3.0,4.0,0.332
-1.0,2.0,0.333
-1.0,0.0,0.334
-1.0,0.0,0.335
0.0,0.0,0.336
1.0,-1.0,0.337
0.0,-4.0,0.338
3.0,-7.0,0.339
5.0,-6.0,0.34
2.0,-6.0,0.341
1.0,-6.0,0.342
9.0,-6.0,0.343
14.0,-3.0,0.344
10.0,3.0,0.345
5.0,8.0,0.346
3.0,7.0,0.347
1.0,1.0,0.348
0.0,-1.0,0.349
-1.0,2.0,0.35
-4.0,5.0,0.351
-6.0,5.0,0.352
-3.0,2.0,0.353
0.0,1.0,0.354
0.0,1.0,0.355
1.0,-1.0,0.356
2.0,-3.0,0.357
4.0,-5.0,0.358
4.0,-4.0,0.359
1.0,-5.0,0.36
-1.0,-11.0,0.361
0.0,-11.0,0.362
8.0,-7.0,0.363
15.0,0.0,0.364
13.0,3.0,0.365
5.0,5.0,0.366
1.0,4.0,0.367
3.0,2.0,0.368
2.0,0.0,0.369
-1.0,2.0,0.37
-2.0,5.0,0.371
0.0,6.0,0.372
0.0,4.0,0.373
-3.0,2.0,0.374
-3.0,-2.0,0.375
2.0,-5.0,0.376
10.0,-6.0,0.377
9.0,-5.0,0.378
4.0,-3.0,0.379
0.0,-3.0,0.38
-1.0,-9.0,0.381
1.0,-10.0,0.382
5.0,-7.0,0.383
11.0,-2.0,0.384
12.0,1.0,0.385
7.0,6.0,0.386
3.0,9.0,0.387
2.0,8.0,0.388
0.0,4.0,0.389
-3.0,1.0,0.39
-6.0,2.0,0.391
-4.0,4.0,0.392
-3.0,5.0,0.393
-5.0,3.0,0.394
-6.0,0.0,0.395
-1.0,-3.0,0.396
4.0,-5.0,0.397
7.0,-5.0,0.398
8.0,-4.0,0.399
6.0,-4.0,0.4
2.0,-8.0,0.401
1.0,-10.0,0.402
4.0,-7.0,0.403
12.0,-4.0,0.404
13.0,-2.0,0.405
5.0,0.0,0.406
0.0,2.0,0.407
3.0,2.0,0.408
6.0,1.0,0.409
2.0,3.0,0.41
-2.0,7.0,0.411
-3.0,8.0,0.412
-2.0,6.0,0.413
-2.0,1.0,0.414
-2.0,-1.0,0.415
0.0,-1.0,0.416
4.0,-1.0,0.417
3.0,-4.0,0.418
1.0,-3.0,0.419
1.0,-3.0,0.42
3.0,-8.0,0.421
3.0,-10.0,0.422
6.0,-5.0,0.423
14.0,1.0,0.424
15.0,3.0,0.425
9.0,2.0,0.426
3.0,3.0,0.427
2.0,5.0,0.428
1.0,5.0,0.429
-6.0,6.0,0.43
-9.0,5.0,0.431
-3.0,5.0,0.432
2.0,9.0,0.433
0.0,16.0,0.434
-4.0,17.0,0.435
-3.0,8.0,0.436
1.0,-1.0,0.437
3.0,-13.0,0.438
1.0,-17.0,0.439
0.0,-19.0,0.44
0.0,-22.0,0.441
2.0,-21.0,0.442
8.0,-14.0,0.443
16.0,-8.0,0.444
16.0,-3.0,0.445
10.0,3.0,0.446
4.0,8.0,0.447
5.0,7.0,0.448
5.0,6.0,0.449
-1.0,7.0,0.45
-5.0,8.0,0.451
-1.0,6.0,0.452
3.0,2.0,0.453
0.0,0.0,0.454
-5.0,0.0,0.455
-2.0,-1.0,0.456
6.0,-1.0,0.457
6.0,-2.0,0.458
2.0,-4.0,0.459
-2.0,-6.0,0.46
0.0,-11.0,0.461
3.0,-11.0,0.462
10.0,-7.0,0.463
15.0,-4.0,0.464
12.0,1.0,0.465
3.0,5.0,0.466
-2.0,5.0,0.467
0.0,2.0,0.468
0.0,2.0,0.469
-3.0,4.0,0.47
-6.0,6.0,0.471
-4.0,6.0,0.472
-3.0,3.0,0.473
-5.0,3.0,0.474
-7.0,0.0,0.475
-3.0,-3.0,0.476
5.0,-5.0,0.477
8.0,-4.0,0.478
7.0,-1.0,0.479
3.0,-2.0,0.48
1.0,-9.0,0.481
1.0,-12.0,0.482
6.0,-9.0,0.483
12.0,0.0,0.484
12.0,6.0,0.485
3.0,6.0,0.486
-3.0,3.0,0.487
-3.0,3.0,0.488
1.0,7.0,0.489
0.0,8.0,0.49
-2.0,5.0,0.491
-4.0,1.0,0.492
-3.0,0.0,0.493
-2.0,2.0,0.494
0.0,3.0,0.495
3.0,0.0,0.496
5.0,-1.0,0.497
3.0,-1.0,0.498
4.0,-1.0,0.499
6.0,-1.0,0.5
6.0,-11.0,0.501
6.0,-16.0,0.502
10.0,-9.0,0.503
13.0,-1.0,0.504
14.0,0.0,0.505
14.0,5.0,0.506
8.0,5.0,0.507
4.0,3.0,0.508
3.0,5.0,0.509
1.0,7.0,0.51
0.0,7.0,0.511
-2.0,3.0,0.512
-3.0,0.0,0.513
-5.0,0.0,0.514
-4.0,1.0,0.515
-2.0,3.0,0.516
3.0,-5.0,0.517
6.0,-1.0,0.518
2.0,-1.0,0.519
-1.0,-1.0,0.52
-3.0,-6.0,0.521
-1.0,-9.0,0.522
7.0,-5.0,0.523
15.0,-1.0,0.524
13.0,0.0,0.525
5.0,3.0,0.526
1.0,3.0,0.527
3.0,2.0,0.528
2.0,3.0,0.529
-2.0,4.0,0.53
-3.0,4.0,0.531
1.0,2.0,0.532
6.0,0.0,0.533
4.0,0.0,0.534
1.0,1.0,0.535
1.0,2.0,0.536
2.0,-3.0,0.537
2.0,-7.0,0.538
2.0,-6.0,0.539
1.0,-5.0,0.54
0.0,-8.0,0.541
0.0,-9.0,0.542
8.0,-7.0,0.543
14.0,-4.0,0.544
9.0,0.0,0.545
0.0,3.0,0.546
-1.0,1.0,0.547
1.0,0.0,0.548
1.0,1.0,0.549
-4.0,7.0,0.55
-7.0,8.0,0.551
-6.0,4.0,0.552
-4.0,2.0,0.553
-3.0,4.0,0.554
-1.0,5.0,0.555
3.0,0.0,0.556
10.0,-3.0,0.557
12.0,-2.0,0.558
9.0,1.0,0.559
1.0,-1.0,0.56
-2.0,-9.0,0.561
-1.0,-11.0,0.562
5.0,-7.0,0.563
14.0,-2.0,0.564
15.0,0.0,0.565
8.0,3.0,0.566
2.0,4.0,0.567
2.0,4.0,0.568
2.0,3.0,0.569
-5.0,1.0,0.57
-12.0,1.0,0.571
-10.0,0.0,0.572
-3.0,1.0,0.573
-1.0,1.0,0.574
-3.0,-2.0,0.575
-1.0,-5.0,0.576
5.0,-6.0,0.577
9.0,-4.0,0.578
7.0,-7.0,0.579
4.0,-10.0,0.58
2.0,-10.0,0.581
2.0,-10.0,0.582
4.0,-4.0,0.583
7.0,2.0,0.584
8.0,8.0,0.585
5.0,12.0,0.586
2.0,12.0,0.587
2.0,11.0,0.588
2.0,9.0,0.589
-2.0,8.0,0.59
-8.0,9.0,0.591
-8.0,9.0,0.592
-5.0,5.0,0.593
-1.0,2.0,0.594
0.0,2.0,0.595
0.0,2.0,0.596
2.0,-5.0,0.597
2.0,-2.0,0.598
2.0,-4.0,0.599
0.0,-6.0,0.6
-1.0,-6.0,0.601
1.0,-6.0,0.602
8.0,-2.0,0.603
16.0,2.0,0.604
16.0,6.0,0.605
9.0,9.0,0.606
1.0,9.0,0.607
0.0,8.0,0.608
1.0,7.0,0.609
0.0,6.0,0.61
-4.0,7.0,0.611
-5.0,7.0,0.612
-1.0,4.0,0.613
3.0,2.0,0.614
5.0,2.0,0.615
5.0,2.0,0.616
6.0,-3.0,0.617
7.0,-8.0,0.618
8.0,-7.0,0.619
4.0,-3.0,0.62
1.0,-7.0,0.621
3.0,-11.0,0.622
11.0,-10.0,0.623
14.0,-6.0,0.624
8.0,0.0,0.625
1.0,4.0,0.626
-1.0,5.0,0.627
0.0,4.0,0.628
0.0,2.0,0.629
-1.0,4.0,0.63
-1.0,7.0,0.631
1.0,6.0,0.632
1.0,1.0,0.633
2.0,-2.0,0.634
3.0,-3.0,0.635
3.0,-4.0,0.636
1.0,-5.0,0.637
0.0,-4.0,0.638
1.0,-3.0,0.639
0.0,-5.0,0.64
-2.0,-11.0,0.641
-2.0,-13.0,0.642
5.0,-10.0,0.643
12.0,-5.0,0.644
11.0,0.0,0.645
5.0,4.0,0.646
3.0,5.0,0.647
1.0,2.0,0.648
-2.0,4.0,0.649
-6.0,9.0,0.65
-5.0,11.0,0.651
-4.0,7.0,0.652
-7.0,0.0,0.653
-9.0,-2.0,0.654
-5.0,0.0,0.655
1.0,3.0,0.656
5.0,5.0,0.657
6.0,-3.0,0.658
7.0,-5.0,0.659
6.0,-7.0,0.66
1.0,-10.0,0.661
-2.0,-12.0,0.662
3.0,-5.0,0.663
11.0,1.0,0.664
13.0,5.0,0.665
10.0,8.0,0.666
6.0,5.0,0.667
7.0,3.0,0.668
4.0,7.0,0.669
-1.0,10.0,0.67
-4.0,5.0,0.671
-4.0,1.0,0.672
-1.0,8.0,0.673
2.0,12.0,0.674
2.0,5.0,0.675
-1.0,-1.0,0.676
0.0,-1.0,0.677
3.0,-2.0,0.678
8.0,-3.0,0.679
4.0,-4.0,0.68
-2.0,-6.0,0.681
-3.0,-7.0,0.682
4.0,-3.0,0.683
11.0,1.0,0.684
9.0,3.0,0.685
1.0,5.0,0.686
-4.0,3.0,0.687
-3.0,2.0,0.688
-3.0,4.0,0.689
-2.0,6.0,0.69
-3.0,3.0,0.691
-2.0,1.0,0.692
-1.0,5.0,0.693
1.0,7.0,0.694
4.0,3.0,0.695
6.0,-1.0,0.696
6.0,-1.0,0.697
6.0,0.0,0.698
9.0,0.0,0.699
6.0,-4.0,0.7
2.0,-9.0,0.701
3.0,-9.0,0.702
11.0,-6.0,0.703
16.0,-3.0,0.704
11.0,-2.0,0.705
1.0,-1.0,0.706
1.0,-3.0,0.707
4.0,-6.0,0.708
1.0,-3.0,0.709
-6.0,2.0,0.71
-6.0,7.0,0.711
-3.0,7.0,0.712
-3.0,3.0,0.713
-5.0,2.0,0.714
-3.0,1.0,0.715
2.0,-2.0,0.716
5.0,-5.0,0.717
2.0,-8.0,0.718
2.0,-7.0,0.719
3.0,-7.0,0.72
2.0,-9.0,0.721
0.0,-9.0,0.722
2.0,-8.0,0.723
8.0,-2.0,0.724
9.0,2.0,0.725
3.0,5.0,0.726
0.0,6.0,0.727
1.0,3.0,0.728
3.0,2.0,0.729
2.0,3.0,0.73
0.0,5.0,0.731
-1.0,6.0,0.732
1.0,4.0,0.733
1.0,3.0,0.734
0.0,4.0,0.735
1.0,2.0,0.736
5.0,1.0,0.737
9.0,-2.0,0.738
6.0,-4.0,0.739
1.0,-4.0,0.74
-1.0,-7.0,0.741
1.0,-8.0,0.742
6.0,-7.0,0.743
10.0,-3.0,0.744
10.0,1.0,0.745
4.0,5.0,0.746
0.0,4.0,0.747
-2.0,1.0,0.748
-2.0,0.0,0.749
-3.0,4.0,0.75
-4.0,8.0,0.751
-4.0,7.0,0.752
-3.0,2.0,0.753
-1.0,-1.0,0.754
1.0,-1.0,0.755
2.0,-1.0,0.756
3.0,-2.0,0.757
5.0,-2.0,0.758
9.0,-4.0,0.759
8.0,-7.0,0.76
4.0,-10.0,0.761
1.0,-9.0,0.762
6.0,-5.0,0.763
14.0,-2.0,0.764
13.0,0.0,0.765
6.0,4.0,0.766
0.0,5.0,0.767
0.0,2.0,0.768
1.0,0.0,0.769
-1.0,2.0,0.77
-4.0,5.0,0.771
-2.0,4.0,0.772
-1.0,1.0,0.773
-1.0,0.0,0.774
-2.0,-1.0,0.775
1.0,-2.0,0.776
8.0,-2.0,0.777
7.0,-1.0,0.778
5.0,0.0,0.779
0.0,-4.0,0.78
2.0,-8.0,0.781
7.0,-7.0,0.782
12.0,-4.0,0.783
13.0,-2.0,0.784
9.0,-1.0,0.785
3.0,3.0,0.786
-1.0,7.0,0.787
-1.0,4.0,0.788
-1.0,1.0,0.789
-4.0,0.0,0.79
-8.0,3.0,0.791
-9.0,1.0,0.792
-7.0,0.0,0.793
-3.0,1.0,0.794
1.0,3.0,0.795
6.0,0.0,0.796
9.0,-4.0,0.797
7.0,-8.0,0.798
5.0,-8.0,0.799
3.0,-8.0,0.8
1.0,-10.0,0.801
1.0,-12.0,0.802
6.0,-9.0,0.803
12.0,-4.0,0.804
13.0,1.0,0.805
4.0,2.0,0.806
-3.0,0.0,0.807
-3.0,-1.0,0.808
-1.0,4.0,0.809
-3.0,10.0,0.81
-6.0,10.0,0.811
-5.0,4.0,0.812
-2.0,3.0,0.813
0.0,4.0,0.814
-1.0,0.0,0.815
1.0,-6.0,0.816
4.0,-7.0,0.817
6.0,-3.0,0.818
7.0,-2.0,0.819
4.0,-5.0,0.82
-1.0,-10.0,0.821
-2.0,-8.0,0.822
6.0,-5.0,0.823
17.0,-3.0,0.824
17.0,1.0,0.825
9.0,7.0,0.826
1.0,7.0,0.827
1.0,5.0,0.828
3.0,4.0,0.829
1.0,6.0,0.83
-4.0,5.0,0.831
-7.0,5.0,0.832
-9.0,3.0,0.833
-7.0,2.0,0.834
-3.0,-1.0,0.835
0.0,-5.0,0.836
1.0,-5.0,0.837
4.0,-4.0,0.838
8.0,-7.0,0.839
6.0,-8.0,0.84
2.0,-8.0,0.841
0.0,-6.0,0.842
6.0,-5.0,0.843
10.0,-5.0,0.844
4.0,0.0,0.845
-2.0,5.0,0.846
-2.0,5.0,0.847
0.0,0.0,0.848
-1.0,0.0,0.849
-3.0,6.0,0.85
-2.0,9.0,0.851
-2.0,5.0,0.852
-3.0,1.0,0.853
-3.0,1.0,0.854
0.0,2.0,0.855
5.0,0.0,0.856
8.0,0.0,0.857
7.0,0.0,0.858
10.0,-2.0,0.859
9.0,-6.0,0.86
3.0,-10.0,0.861
1.0,-8.0,0.862
6.0,-6.0,0.863
11.0,-3.0,0.864
7.0,3.0,0.865
1.0,7.0,0.866
1.0,4.0,0.867
1.0,-1.0,0.868
-1.0,2.0,0.869
-3.0,9.0,0.87
-4.0,10.0,0.871
-4.0,1.0,0.872
-5.0,-3.0,0.873
-3.0,0.0,0.874
2.0,3.0,0.875
4.0,0.0,0.876
3.0,-3.0,0.877
4.0,-6.0,0.878
8.0,-8.0,0.879
8.0,-9.0,0.88
3.0,-8.0,0.881
4.0,-2.0,0.882
11.0,-1.0,0.883
16.0,-2.0,0.884
13.0,0.0,0.885
6.0,4.0,0.886
2.0,5.0,0.887
0.0,2.0,0.888
-6.0,0.0,0.889
-10.0,3.0,0.89
-8.0,8.0,0.891
-3.0,7.0,0.892
-3.0,4.0,0.893
-3.0,0.0,0.894
-4.0,-2.0,0.895
-2.0,-1.0,0.896
3.0,1.0,0.897
6.0,0.0,0.898
5.0,-6.0,0.899
2.0,-9.0,0.9
3.0,-11.0,0.901
6.0,-8.0,0.902
9.0,-5.0,0.903
10.0,-4.0,0.904
8.0,-2.0,0.905
6.0,-1.0,0.906
1.0,0.0,0.907
0.0,1.0,0.908
-1.0,1.0,0.909
-2.0,2.0,0.91
-3.0,3.0,0.911
-3.0,4.0,0.912
-3.0,7.0,0.913
-3.0,6.0,0.914
-2.0,0.0,0.915
2.0,-3.0,0.916
8.0,-3.0,0.917
6.0,-4.0,0.918
4.0,-6.0,0.919
3.0,-8.0,0.92
3.0,-9.0,0.921
3.0,-9.0,0.922
9.0,-6.0,0.923
16.0,-2.0,0.924
14.0,2.0,0.925
4.0,4.0,0.926
-2.0,2.0,0.927
0.0,0.0,0.928
1.0,2.0,0.929
-4.0,4.0,0.93
-8.0,5.0,0.931
-6.0,6.0,0.932
-1.0,4.0,0.933
1.0,1.0,0.934
1.0,-1.0,0.935
4.0,-4.0,0.936
7.0,-4.0,0.937
5.0,-4.0,0.938
4.0,-3.0,0.939
3.0,-3.0,0.94
3.0,-7.0,0.941
4.0,-12.0,0.942
7.0,-11.0,0.943
9.0,-6.0,0.944
7.0,2.0,0.945
5.0,9.0,0.946
3.0,9.0,0.947
2.0,5.0,0.948
1.0,2.0,0.949
0.0,4.0,0.95
-2.0,6.0,0.951
-5.0,5.0,0.952
-4.0,1.0,0.953
-3.0,-1.0,0.954
-2.0,0.0,0.955
0.0,1.0,0.956
3.0,1.0,0.957
6.0,-4.0,0.958
5.0,-5.0,0.959
3.0,-5.0,0.96
-1.0,-6.0,0.961
-3.0,-6.0,0.962
2.0,-6.0,0.963
13.0,-3.0,0.964
18.0,1.0,0.965
13.0,2.0,0.966
6.0,0.0,0.967
3.0,-1.0,0.968
2.0,1.0,0.969
-1.0,3.0,0.97
-5.0,4.0,0.971
-5.0,2.0,0.972
-3.0,1.0,0.973
0.0,-2.0,0.974
1.0,-4.0,0.975
2.0,-5.0,0.976
4.0,-3.0,0.977
7.0,-3.0,0.978
5.0,-3.0,0.979
3.0,-2.0,0.98
2.0,-5.0,0.981
3.0,-8.0,0.982
8.0,-9.0,0.983
13.0,-4.0,0.984
9.0,4.0,0.985
6.0,6.0,0.986
3.0,4.0,0.987
0.0,2.0,0.988
1.0,3.0,0.989
3.0,4.0,0.99
1.0,3.0,0.991
0.0,3.0,0.992
0.0,4.0,0.993
0.0,3.0,0.994
2.0,1.0,0.995
3.0,-2.0,0.996
4.0,-3.0,0.997
8.0,-7.0,0.998
6.0,-11.0,0.999
3.0,-11.0,1.0
1.0,-12.0,1.001
2.0,-11.0,1.002
10.0,-5.0,1.003
15.0,0.0,1.004
11.0,3.0,1.005
7.0,5.0,1.006
3.0,5.0,1.007
-1.0,6.0,1.008
0.0,8.0,1.009
2.0,7.0,1.01
0.0,4.0,1.011
-1.0,0.0,1.012
-1.0,1.0,1.013
-1.0,5.0,1.014
1.0,4.0,1.015
4.0,-3.0,1.016
5.0,-7.0,1.017
7.0,-8.0,1.018
5.0,-6.0,1.019
3.0,-6.0,1.02
2.0,-10.0,1.021
3.0,-11.0,1.022
9.0,-4.0,1.023
13.0,2.0,1.024
10.0,3.0,1.025
6.0,4.0,1.026
3.0,5.0,1.027
0.0,7.0,1.028
1.0,7.0,1.029
3.0,6.0,1.03
1.0,8.0,1.031
0.0,9.0,1.032
0.0,6.0,1.033
0.0,2.0,1.034
2.0,0.0,1.035
3.0,-2.0,1.036
4.0,-3.0,1.037
8.0,-6.0,1.038
6.0,-8.0,1.039
3.0,-9.0,1.04
1.0,-12.0,1.041
2.0,-11.0,1.042
10.0,-8.0,1.043
15.0,-1.0,1.044
11.0,5.0,1.045
7.0,7.0,1.046
3.0,5.0,1.047
-1.0,0.0,1.048
0.0,0.0,1.049
2.0,3.0,1.05
0.0,7.0,1.051
-1.0,7.0,1.052
-1.0,5.0,1.053
-1.0,1.0,1.054
1.0,-2.0,1.055
4.0,-5.0,1.056
5.0,-4.0,1.057
6.0,-3.0,1.058
4.0,-7.0,1.059
2.0,-10.0,1.06
2.0,-12.0,1.061
1.0,-8.0,1.062
6.0,-5.0,1.063
11.0,-3.0,1.064
7.0,1.0,1.065
0.0,6.0,1.066
-1.0,8.0,1.067
3.0,7.0,1.068
4.0,6.0,1.069
-1.0,5.0,1.07
-6.0,5.0,1.071
-6.0,5.0,1.072
-5.0,6.0,1.073
-5.0,3.0,1.074
-7.0,-2.0,1.075
-1.0,-6.0,1.076
3.0,-5.0,1.077
3.0,-4.0,1.078
-1.0,-6.0,1.079
-4.0,-9.0,1.08
-3.0,-13.0,1.081
-1.0,-9.0,1.082
5.0,-3.0,1.083
12.0,0.0,1.084
11.0,3.0,1.085
4.0,5.0,1.086
-1.0,4.0,1.087
0.0,3.0,1.088
2.0,2.0,1.089
1.0,5.0,1.09
-1.0,7.0,1.091
-2.0,5.0,1.092
-1.0,1.0,1.093
0.0,0.0,1.094
1.0,0.0,1.095
4.0,-2.0,1.096
7.0,-4.0,1.097
7.0,-6.0,1.098
7.0,-6.0,1.099
6.0,-6.0,1.1
2.0,-9.0,1.101
0.0,-11.0,1.102
8.0,-5.0,1.103
14.0,0.0,1.104
8.0,1.0,1.105
4.0,3.0,1.106
3.0,5.0,1.107
1.0,8.0,1.108
-2.0,6.0,1.109
-5.0,5.0,1.11
-5.0,5.0,1.111
-5.0,5.0,1.112
-3.0,1.0,1.113
-1.0,-2.0,1.114
2.0,-2.0,1.115
5.0,-2.0,1.116
5.0,-4.0,1.117
4.0,-7.0,1.118
4.0,-7.0,1.119
6.0,-6.0,1.12
4.0,-10.0,1.121
1.0,-10.0,1.122
8.0,-7.0,1.123
17.0,1.0,1.124
18.0,5.0,1.125
8.0,7.0,1.126
1.0,6.0,1.127
3.0,4.0,1.128
4.0,0.0,1.129
0.0,1.0,1.13
-3.0,4.0,1.131
-2.0,4.0,1.132
-2.0,0.0,1.133
-3.0,-3.0,1.134
-3.0,-3.0,1.135
2.0,-3.0,1.136
6.0,-3.0,1.137
4.0,-5.0,1.138
4.0,-8.0,1.139
2.0,-9.0,1.14
-1.0,-11.0,1.141
-3.0,-8.0,1.142
2.0,-1.0,1.143
10.0,1.0,1.144
10.0,2.0,1.145
2.0,3.0,1.146
-2.0,5.0,1.147
2.0,2.0,1.148
6.0,1.0,1.149
1.0,4.0,1.15
-2.0,7.0,1.151
-2.0,7.0,1.152
1.0,5.0,1.153
1.0,5.0,1.154
1.0,3.0,1.155
3.0,-1.0,1.156
7.0,-5.0,1.157
6.0,-7.0,1.158
5.0,-8.0,1.159
4.0,-10.0,1.16
2.0,-14.0,1.161
3.0,-9.0,1.162
6.0,-1.0,1.163
8.0,3.0,1.164
4.0,4.0,1.165
-3.0,6.0,1.166
-6.0,6.0,1.167
-2.0,4.0,1.168
2.0,5.0,1.169
0.0,8.0,1.17
-2.0,8.0,1.171
-3.0,3.0,1.172
-2.0,-2.0,1.173
-1.0,0.0,1.174
-1.0,1.0,1.175
0.0,-2.0,1.176
3.0,-6.0,1.177
3.0,-8.0,1.178
4.0,-7.0,1.179
3.0,-8.0,1.18
2.0,-11.0,1.181
3.0,-11.0,1.182
9.0,-6.0,1.183
15.0,-1.0,1.184
13.0,0.0,1.185
2.0,2.0,1.186
-4.0,2.0,1.187
-3.0,-1.0,1.188
0.0,-1.0,1.189
0.0,2.0,1.19
-6.0,5.0,1.191
-7.0,3.0,1.192
-2.0,-3.0,1.193
0.0,-6.0,1.194
-2.0,-3.0,1.195
-3.0,0.0,1.196
1.0,0.0,1.197
5.0,-4.0,1.198
7.0,-5.0,1.199
3.0,-4.0,1.2
0.0,-6.0,1.201
1.0,-5.0,1.202
6.0,-2.0,1.203
12.0,3.0,1.204
13.0,6.0,1.205
8.0,9.0,1.206
2.0,9.0,1.207
0.0,8.0,1.208
0.0,6.0,1.209
-3.0,8.0,1.21
-6.0,8.0,1.211
-5.0,9.0,1.212
-3.0,4.0,1.213
0.0,1.0,1.214
1.0,1.0,1.215
5.0,3.0,1.216
9.0,3.0,1.217
11.0,-2.0,1.218
12.0,-5.0,1.219
8.0,-6.0,1.22
5.0,-10.0,1.221
6.0,-8.0,1.222
11.0,-5.0,1.223
17.0,-4.0,1.224
16.0,-1.0,1.225
6.0,4.0,1.226
-1.0,6.0,1.227
1.0,3.0,1.228
5.0,0.0,1.229
2.0,1.0,1.23
-4.0,4.0,1.231
-6.0,1.0,1.232
-4.0,-4.0,1.233
-3.0,-6.0,1.234
-1.0,-4.0,1.235
3.0,-6.0,1.236
7.0,-7.0,1.237
5.0,-6.0,1.238
4.0,-5.0,1.239
3.0,-6.0,1.24
4.0,-12.0,1.241
3.0,-13.0,1.242
3.0,-8.0,1.243
6.0,-1.0,1.244
7.0,2.0,1.245
1.0,4.0,1.246
-4.0,4.0,1.247
-4.0,2.0,1.248
-1.0,0.0,1.249
-3.0,1.0,1.25
-7.0,3.0,1.251
-11.0,3.0,1.252
-10.0,1.0,1.253
-7.0,0.0,1.254
-3.0,-2.0,1.255
1.0,-5.0,1.256
4.0,-5.0,1.257
1.0,-5.0,1.258
1.0,-6.0,1.259
0.0,-7.0,1.26
0.0,-9.0,1.261
0.0,-9.0,1.262
5.0,-5.0,1.263
13.0,1.0,1.264
15.0,8.0,1.265
8.0,10.0,1.266
1.0,6.0,1.267
-1.0,2.0,1.268
0.0,2.0,1.269
-3.0,8.0,1.27
-4.0,9.0,1.271
-2.0,6.0,1.272
0.0,2.0,1.273
0.0,2.0,1.274
0.0,0.0,1.275
0.0,0.0,1.276
1.0,0.0,1.277
4.0,-3.0,1.278
9.0,-6.0,1.279
8.0,-8.0,1.28
3.0,-13.0,1.281
0.0,-12.0,1.282
5.0,-8.0,1.283
14.0,-2.0,1.284
13.0,2.0,1.285
6.0,5.0,1.286
4.0,3.0,1.287
8.0,1.0,1.288
7.0,1.0,1.289
-2.0,3.0,1.29
-4.0,4.0,1.291
0.0,2.0,1.292
4.0,3.0,1.293
2.0,4.0,1.294
1.0,4.0,1.295
5.0,1.0,1.296
9.0,-2.0,1.297
4.0,-5.0,1.298
2.0,-7.0,1.299
2.0,-7.0,1.3
3.0,-9.0,1.301
1.0,-8.0,1.302
3.0,-5.0,1.303
11.0,0.0,1.304
13.0,6.0,1.305
5.0,9.0,1.306
-3.0,6.0,1.307
-3.0,2.0,1.308
0.0,3.0,1.309
-1.0,6.0,1.31
-3.0,7.0,1.311
-5.0,2.0,1.312
0.0,-2.0,1.313
5.0,-3.0,1.314
5.0,-1.0,1.315
2.0,-1.0,1.316
2.0,-3.0,1.317
2.0,-5.0,1.318
4.0,-6.0,1.319
2.0,-6.0,1.32
-2.0,-9.0,1.321
-4.0,-8.0,1.322
-1.0,-6.0,1.323
3.0,-2.0,1.324
1.0,3.0,1.325
-3.0,6.0,1.326
-2.0,4.0,1.327
1.0,0.0,1.328
1.0,1.0,1.329
-2.0,5.0,1.33
-3.0,6.0,1.331
-1.0,0.0,1.332
-2.0,-1.0,1.333
-2.0,1.0,1.334
0.0,3.0,1.335
5.0,0.0,1.336
9.0,-1.0,1.337
10.0,-6.0,1.338
11.0,-9.0,1.339
12.0,-10.0,1.34
5.0,-9.0,1.341
-2.0,-5.0,1.342
1.0,-5.0,1.343
12.0,-4.0,1.344
15.0,1.0,1.345
7.0,8.0,1.346
0.0,10.0,1.347
0.0,7.0,1.348
0.0,5.0,1.349
-3.0,7.0,1.35
-5.0,6.0,1.351
-6.0,1.0,1.352
-3.0,-2.0,1.353
-5.0,-1.0,1.354
-4.0,0.0,1.355
2.0,-1.0,1.356
10.0,-2.0,1.357
11.0,-4.0,1.358
8.0,-3.0,1.359
6.0,-4.0,1.36
7.0,-8.0,1.361
6.0,-7.0,1.362
9.0,-5.0,1.363
12.0,-2.0,1.364
12.0,2.0,1.365
10.0,4.0,1.366
7.0,5.0,1.367
6.0,5.0,1.368
3.0,6.0,1.369
0.0,7.0,1.37
2.0,6.0,1.371
5.0,4.0,1.372
4.0,3.0,1.373
-2.0,0.0,1.374
-2.0,-3.0,1.375
1.0,-8.0,1.376
4.0,-8.0,1.377
2.0,-6.0,1.378
0.0,-4.0,1.379
-2.0,-3.0,1.38
-4.0,-5.0,1.381
-4.0,-7.0,1.382
0.0,-4.0,1.383
6.0,0.0,1.384
4.0,2.0,1.385
-2.0,5.0,1.386
-7.0,5.0,1.387
-5.0,5.0,1.388
-3.0,3.0,1.389
-3.0,2.0,1.39
-2.0,4.0,1.391
0.0,5.0,1.392
2.0,1.0,1.393
3.0,-2.0,1.394
4.0,-2.0,1.395
4.0,-3.0,1.396
5.0,-4.0,1.397
8.0,-7.0,1.398
5.0,-8.0,1.399
2.0,-7.0,1.4
1.0,-7.0,1.401
1.0,-8.0,1.402
9.0,-9.0,1.403
15.0,-4.0,1.404
10.0,2.0,1.405
5.0,8.0,1.406
3.0,6.0,1.407
0.0,2.0,1.408
-2.0,2.0,1.409
-5.0,7.0,1.41
-5.0,8.0,1.411
-5.0,5.0,1.412
-5.0,2.0,1.413
-4.0,1.0,1.414
-1.0,2.0,1.415
3.0,0.0,1.416
8.0,-2.0,1.417
8.0,-4.0,1.418
5.0,-4.0,1.419
2.0,-6.0,1.42
1.0,-11.0,1.421
1.0,-13.0,1.422
9.0,-10.0,1.423
14.0,-3.0,1.424
10.0,5.0,1.425
5.0,10.0,1.426
3.0,8.0,1.427
0.0,4.0,1.428
-2.0,3.0,1.429
-5.0,4.0,1.43
-5.0,4.0,1.431
-5.0,3.0,1.432
-5.0,3.0,1.433
-4.0,1.0,1.434
-1.0,-3.0,1.435
3.0,-6.0,1.436
8.0,-5.0,1.437
11.0,-2.0,1.438
11.0,-3.0,1.439
8.0,-5.0,1.44
6.0,-10.0,1.441
2.0,-10.0,1.442
2.0,-7.0,1.443
8.0,-3.0,1.444
10.0,0.0,1.445
5.0,3.0,1.446
0.0,5.0,1.447
2.0,5.0,1.448
5.0,4.0,1.449
1.0,3.0,1.45
-5.0,4.0,1.451
-5.0,3.0,1.452
-1.0,-1.0,1.453
2.0,-3.0,1.454
4.0,-1.0,1.455
7.0,0.0,1.456
10.0,-1.0,1.457
10.0,-6.0,1.458
5.0,-9.0,1.459
-1.0,-9.0,1.46
-2.0,-11.0,1.461
1.0,-8.0,1.462
5.0,-4.0,1.463
8.0,0.0,1.464
5.0,4.0,1.465
1.0,6.0,1.466
1.0,7.0,1.467
3.0,5.0,1.468
0.0,2.0,1.469
-2.0,0.0,1.47
-3.0,1.0,1.471
-1.0,2.0,1.472
-2.0,-1.0,1.473
-4.0,-4.0,1.474
-3.0,-5.0,1.475
1.0,-4.0,1.476
7.0,-1.0,1.477
7.0,-3.0,1.478
5.0,-3.0,1.479
3.0,-4.0,1.48
-1.0,-7.0,1.481
-2.0,-8.0,1.482
3.0,-5.0,1.483
10.0,1.0,1.484
10.0,6.0,1.485
3.0,7.0,1.486
-1.0,6.0,1.487
0.0,4.0,1.488
2.0,2.0,1.489
-2.0,2.0,1.49
-4.0,3.0,1.491
-2.0,2.0,1.492
-1.0,1.0,1.493
-2.0,1.0,1.494
-3.0,2.0,1.495
-1.0,1.0,1.496
4.0,1.0,1.497
6.0,-3.0,1.498
7.0,-4.0,1.499
4.0,-4.0,1.5
0.0,-7.0,1.501
0.0,-6.0,1.502
8.0,-5.0,1.503
15.0,-3.0,1.504
10.0,2.0,1.505
0.0,6.0,1.506
-2.0,7.0,1.507
1.0,4.0,1.508
6.0,3.0,1.509
4.0,3.0,1.51
2.0,3.0,1.511
0.0,3.0,1.512
-4.0,3.0,1.513
-6.0,1.0,1.514
-4.0,-3.0,1.515
2.0,-7.0,1.516
9.0,-5.0,1.517
6.0,-3.0,1.518
3.0,-5.0,1.519
1.0,-8.0,1.52
0.0,-11.0,1.521
-1.0,-6.0,1.522
2.0,0.0,1.523
9.0,2.0,1.524
9.0,3.0,1.525
5.0,5.0,1.526
2.0,6.0,1.527
4.0,3.0,1.528
5.0,0.0,1.529
-1.0,0.0,1.53
-5.0,0.0,1.531
-4.0,-2.0,1.532
0.0,-4.0,1.533
4.0,-4.0,1.534
6.0,-4.0,1.535
6.0,-4.0,1.536
6.0,-4.0,1.537
4.0,-6.0,1.538
7.0,-7.0,1.539
8.0,-8.0,1.54
4.0,-10.0,1.541
1.0,-8.0,1.542
6.0,-1.0,1.543
13.0,4.0,1.544
11.0,6.0,1.545
1.0,8.0,1.546
-3.0,11.0,1.547
0.0,11.0,1.548
3.0,6.0,1.549
0.0,0.0,1.55
-3.0,-2.0,1.551
-1.0,1.0,1.552
0.0,4.0,1.553
-1.0,2.0,1.554
-1.0,-1.0,1.555
3.0,-3.0,1.556
7.0,-2.0,1.557
5.0,-2.0,1.558
3.0,-2.0,1.559
4.0,-2.0,1.56
3.0,-5.0,1.561
0.0,-7.0,1.562
2.0,-5.0,1.563
7.0,-2.0,1.564
8.0,3.0,1.565
0.0,7.0,1.566
-3.0,5.0,1.567
-3.0,4.0,1.568
0.0,3.0,1.569
-2.0,2.0,1.57
-5.0,3.0,1.571
-3.0,3.0,1.572
0.0,1.0,1.573
2.0,-1.0,1.574
1.0,-3.0,1.575
3.0,-6.0,1.576
8.0,-6.0,1.577
9.0,-5.0,1.578
6.0,-5.0,1.579
2.0,-5.0,1.58
-1.0,-7.0,1.581
-2.0,-6.0,1.582
6.0,-6.0,1.583
12.0,-7.0,1.584
9.0,-5.0,1.585
6.0,0.0,1.586
6.0,7.0,1.587
5.0,6.0,1.588
5.0,3.0,1.589
3.0,4.0,1.59
-2.0,7.0,1.591
-6.0,6.0,1.592
-6.0,0.0,1.593
-6.0,-4.0,1.594
-4.0,-3.0,1.595
-2.0,-3.0,1.596
0.0,-2.0,1.597
2.0,-3.0,1.598
3.0,-3.0,1.599
3.0,-5.0,1.6
2.0,-9.0,1.601
2.0,-9.0,1.602
7.0,-4.0,1.603
14.0,1.0,1.604
12.0,5.0,1.605
3.0,7.0,1.606
-2.0,8.0,1.607
-1.0,7.0,1.608
-2.0,4.0,1.609
-4.0,3.0,1.61
-2.0,4.0,1.611
1.0,5.0,1.612
0.0,4.0,1.613
-3.0,0.0,1.614
-2.0,-1.0,1.615
2.0,-2.0,1.616
5.0,-2.0,1.617
5.0,-5.0,1.618
7.0,-9.0,1.619
7.0,-10.0,1.62
2.0,-12.0,1.621
-3.0,-11.0,1.622
2.0,-7.0,1.623
12.0,-2.0,1.624
14.0,2.0,1.625
5.0,3.0,1.626
1.0,1.0,1.627
3.0,-1.0,1.628
3.0,-2.0,1.629
-2.0,-1.0,1.63
-3.0,0.0,1.631
-1.0,0.0,1.632
-1.0,0.0,1.633
-2.0,1.0,1.634
0.0,3.0,1.635
7.0,5.0,1.636
11.0,5.0,1.637
7.0,0.0,1.638
3.0,-1.0,1.639
1.0,-1.0,1.64
-1.0,-3.0,1.641
0.0,-7.0,1.642
2.0,-6.0,1.643
6.0,1.0,1.644
5.0,7.0,1.645
0.0,10.0,1.646
-4.0,7.0,1.647
-5.0,7.0,1.648
-4.0,7.0,1.649
-4.0,4.0,1.65
-2.0,-5.0,1.651
0.0,-13.0,1.652
-2.0,-14.0,1.653
-3.0,-12.0,1.654
-1.0,-12.0,1.655
5.0,-12.0,1.656
10.0,-10.0,1.657
11.0,-6.0,1.658
9.0,-2.0,1.659
3.0,-3.0,1.66
-2.0,-7.0,1.661
-2.0,-4.0,1.662
3.0,1.0,1.663
10.0,4.0,1.664
12.0,5.0,1.665
10.0,7.0,1.666
7.0,9.0,1.667
3.0,6.0,1.668
-2.0,5.0,1.669
-4.0,6.0,1.67
-4.0,8.0,1.671
0.0,6.0,1.672
0.0,5.0,1.673
-3.0,5.0,1.674
-3.0,4.0,1.675
2.0,0.0,1.676
9.0,-1.0,1.677
10.0,-2.0,1.678
10.0,-2.0,1.679
7.0,-4.0,1.68
3.0,-5.0,1.681
-2.0,-3.0,1.682
-1.0,-3.0,1.683
7.0,-6.0,1.684
10.0,-4.0,1.685
3.0,3.0,1.686
-3.0,8.0,1.687
-2.0,5.0,1.688
2.0,0.0,1.689
0.0,2.0,1.69
-4.0,3.0,1.691
-4.0,0.0,1.692
0.0,-3.0,1.693
2.0,-3.0,1.694
0.0,-1.0,1.695
0.0,-1.0,1.696
7.0,-2.0,1.697
10.0,-2.0,1.698
9.0,-3.0,1.699
4.0,-6.0,1.7
2.0,-9.0,1.701
3.0,-8.0,1.702
6.0,-4.0,1.703
12.0,-1.0,1.704
12.0,3.0,1.705
2.0,8.0,1.706
-5.0,7.0,1.707
-4.0,4.0,1.708
1.0,1.0,1.709
2.0,2.0,1.71
-4.0,3.0,1.711
-7.0,1.0,1.712
-3.0,-2.0,1.713
0.0,-3.0,1.714
0.0,-3.0,1.715
0.0,-3.0,1.716
5.0,-3.0,1.717
7.0,-4.0,1.718
7.0,-5.0,1.719
5.0,-9.0,1.72
5.0,-11.0,1.721
5.0,-8.0,1.722
7.0,-3.0,1.723
10.0,1.0,1.724
9.0,3.0,1.725
2.0,5.0,1.726
-4.0,6.0,1.727
-3.0,3.0,1.728
-2.0,3.0,1.729
-3.0,7.0,1.73
-5.0,7.0,1.731
-3.0,2.0,1.732
0.0,-2.0,1.733
1.0,-2.0,1.734
2.0,-1.0,1.735
5.0,-3.0,1.736
10.0,-3.0,1.737
7.0,-5.0,1.738
2.0,-7.0,1.739
-1.0,-10.0,1.74
-1.0,-13.0,1.741
1.0,-8.0,1.742
6.0,-1.0,1.743
13.0,3.0,1.744
15.0,3.0,1.745
7.0,2.0,1.746
-1.0,0.0,1.747
0.0,-2.0,1.748
6.0,-1.0,1.749
7.0,4.0,1.75
2.0,6.0,1.751
0.0,3.0,1.752
0.0,-2.0,1.753
1.0,-2.0,1.754
0.0,-2.0,1.755
-2.0,-3.0,1.756
-1.0,-3.0,1.757
1.0,-1.0,1.758
3.0,0.0,1.759
3.0,-1.0,1.76
1.0,-8.0,1.761
-1.0,-8.0,1.762
1.0,-1.0,1.763
6.0,2.0,1.764
5.0,5.0,1.765
0.0,7.0,1.766
-4.0,8.0,1.767
-1.0,6.0,1.768
0.0,3.0,1.769
-2.0,3.0,1.77
-7.0,5.0,1.771
-6.0,4.0,1.772
-2.0,3.0,1.773
1.0,3.0,1.774
3.0,2.0,1.775
5.0,-2.0,1.776
9.0,-6.0,1.777
7.0,-8.0,1.778
6.0,-7.0,1.779
3.0,-8.0,1.78
1.0,-12.0,1.781
0.0,-11.0,1.782
5.0,-7.0,1.783
10.0,-3.0,1.784
8.0,-1.0,1.785
1.0,1.0,1.786
0.0,3.0,1.787
2.0,3.0,1.788
3.0,3.0,1.789
2.0,3.0,1.79
-1.0,2.0,1.791
-3.0,0.0,1.792
-3.0,-2.0,1.793
-2.0,-1.0,1.794
0.0,-3.0,1.795
3.0,-6.0,1.796
4.0,-5.0,1.797
2.0,-3.0,1.798
1.0,-1.0,1.799
0.0,-4.0,1.8
-1.0,-7.0,1.801
-1.0,-4.0,1.802
6.0,0.0,1.803
15.0,2.0,1.804
14.0,2.0,1.805
5.0,7.0,1.806
-1.0,9.0,1.807
1.0,4.0,1.808
2.0,-1.0,1.809
-2.0,0.0,1.81
-4.0,5.0,1.811
-1.0,6.0,1.812
3.0,2.0,1.813
3.0,3.0,1.814
1.0,5.0,1.815
1.0,3.0,1.816
3.0,-1.0,1.817
2.0,-5.0,1.818
0.0,-4.0,1.819
-1.0,-1.0,1.82
0.0,-5.0,1.821
2.0,-5.0,1.822
8.0,-1.0,1.823
13.0,3.0,1.824
11.0,8.0,1.825
4.0,10.0,1.826
1.0,9.0,1.827
3.0,4.0,1.828
6.0,-2.0,1.829
2.0,-1.0,1.83
-2.0,3.0,1.831
-3.0,2.0,1.832
-3.0,-1.0,1.833
-4.0,0.0,1.834
-3.0,1.0,1.835
0.0,-2.0,1.836
4.0,-6.0,1.837
5.0,-8.0,1.838
7.0,-6.0,1.839
6.0,-3.0,1.84
4.0,-5.0,1.841
4.0,-6.0,1.842
11.0,-5.0,1.843
21.0,-5.0,1.844
20.0,0.0,1.845
9.0,7.0,1.846
1.0,7.0,1.847
0.0,0.0,1.848
-1.0,-4.0,1.849
-6.0,1.0,1.85
-8.0,8.0,1.851
-5.0,5.0,1.852
-4.0,-2.0,1.853
-5.0,-1.0,1.854
-5.0,2.0,1.855
-1.0,-1.0,1.856
4.0,-7.0,1.857
4.0,-8.0,1.858
4.0,-8.0,1.859
2.0,-7.0,1.86
-1.0,-10.0,1.861
-2.0,-8.0,1.862
2.0,-3.0,1.863
9.0,0.0,1.864
8.0,0.0,1.865
1.0,3.0,1.866
-1.0,6.0,1.867
1.0,3.0,1.868
1.0,-1.0,1.869
-4.0,-2.0,1.87
-6.0,-1.0,1.871
-3.0,-1.0,1.872
0.0,-5.0,1.873
1.0,-5.0,1.874
4.0,-5.0,1.875
9.0,-3.0,1.876
13.0,0.0,1.877
9.0,-1.0,1.878
4.0,-5.0,1.879
3.0,-8.0,1.88
5.0,-9.0,1.881
3.0,-6.0,1.882
5.0,0.0,1.883
10.0,4.0,1.884
9.0,6.0,1.885
2.0,7.0,1.886
-3.0,6.0,1.887
-3.0,4.0,1.888
1.0,4.0,1.889
1.0,6.0,1.89
-2.0,6.0,1.891
-2.0,3.0,1.892
-1.0,0.0,1.893
-1.0,-1.0,1.894
-1.0,-1.0,1.895
3.0,0.0,1.896
9.0,2.0,1.897
11.0,0.0,1.898
8.0,-3.0,1.899
2.0,-6.0,1.9
0.0,-9.0,1.901
0.0,-5.0,1.902
3.0,-2.0,1.903
7.0,-1.0,1.904
7.0,1.0,1.905
2.0,4.0,1.906
-2.0,4.0,1.907
-2.0,0.0,1.908
0.0,-1.0,1.909
-1.0,3.0,1.91
-4.0,8.0,1.911
-3.0,7.0,1.912
1.0,1.0,1.913
2.0,-1.0,1.914
0.0,-2.0,1.915
1.0,-5.0,1.916
6.0,-6.0,1.917
7.0,-8.0,1.918
5.0,-8.0,1.919
2.0,-7.0,1.92
0.0,-9.0,1.921
1.0,-8.0,1.922
4.0,-3.0,1.923
8.0,2.0,1.924
7.0,5.0,1.925
3.0,3.0,1.926
-1.0,3.0,1.927
1.0,5.0,1.928
3.0,7.0,1.929
-1.0,4.0,1.93
-5.0,1.0,1.931
-4.0,0.0,1.932
2.0,1.0,1.933
4.0,1.0,1.934
3.0,-1.0,1.935
2.0,-1.0,1.936
6.0,-2.0,1.937
9.0,-5.0,1.938
8.0,-7.0,1.939
4.0,-8.0,1.94
0.0,-9.0,1.941
0.0,-9.0,1.942
5.0,-5.0,1.943
10.0,0.0,1.944
9.0,7.0,1.945
1.0,9.0,1.946
-5.0,7.0,1.947
-4.0,4.0,1.948
-1.0,3.0,1.949
-1.0,4.0,1.95
-4.0,1.0,1.951
-2.0,-3.0,1.952
0.0,-5.0,1.953
3.0,-3.0,1.954
4.0,-1.0,1.955
4.0,-2.0,1.956
4.0,-3.0,1.957
4.0,-4.0,1.958
4.0,-3.0,1.959
4.0,-3.0,1.96
1.0,-7.0,1.961
-1.0,-6.0,1.962
2.0,-4.0,1.963
10.0,0.0,1.964
11.0,2.0,1.965
4.0,4.0,1.966
-2.0,5.0,1.967
-1.0,3.0,1.968
3.0,3.0,1.969
3.0,4.0,1.97
-1.0,3.0,1.971
-1.0,0.0,1.972
0.0,-1.0,1.973
2.0,0.0,1.974
0.0,1.0,1.975
1.0,-2.0,1.976
5.0,-3.0,1.977
6.0,-4.0,1.978
5.0,-4.0,1.979
0.0,-5.0,1.98
-4.0,-9.0,1.981
-4.0,-8.0,1.982
3.0,-5.0,1.983
10.0,-3.0,1.984
9.0,1.0,1.985
1.0,4.0,1.986
-3.0,4.0,1.987
0.0,2.0,1.988
2.0,1.0,1.989
0.0,2.0,1.99
-4.0,2.0,1.991
-6.0,0.0,1.992
-3.0,1.0,1.993
-1.0,1.0,1.994
-1.0,0.0,1.995
-1.0,-4.0,1.996
3.0,-5.0,1.997
5.0,-3.0,1.998
8.0,-1.0,1.999
4.0,0.0,2.0
1.0,-5.0,2.001
3.0,-8.0,2.002
6.0,-6.0,2.003
8.0,-2.0,2.004
7.0,3.0,2.005
3.0,5.0,2.006
0.0,2.0,2.007
-1.0,1.0,2.008
-2.0,1.0,2.009
-1.0,3.0,2.01
-2.0,5.0,2.011
-3.0,3.0,2.012
-1.0,2.0,2.013
2.0,1.0,2.014
4.0,-1.0,2.015
6.0,-4.0,2.016
10.0,-6.0,2.017
11.0,-5.0,2.018
10.0,-1.0,2.019
5.0,-2.0,2.02
0.0,-6.0,2.021
-2.0,-7.0,2.022
0.0,-3.0,2.023
3.0,0.0,2.024
4.0,0.0,2.025
1.0,3.0,2.026
-1.0,6.0,2.027
1.0,7.0,2.028
3.0,7.0,2.029
3.0,8.0,2.03
-1.0,6.0,2.031
-1.0,1.0,2.032
1.0,-3.0,2.033
2.0,-4.0,2.034
2.0,-1.0,2.035
5.0,-2.0,2.036
10.0,-3.0,2.037
11.0,-6.0,2.038
7.0,-7.0,2.039
-1.0,-8.0,2.04
-4.0,-9.0,2.041
-4.0,-5.0,2.042
1.0,0.0,2.043
5.0,0.0,2.044
7.0,0.0,2.045
3.0,3.0,2.046
0.0,6.0,2.047
0.0,5.0,2.048
-2.0,1.0,2.049
-4.0,0.0,2.05
-4.0,0.0,2.051
0.0,0.0,2.052
4.0,-2.0,2.053
6.0,-3.0,2.054
6.0,-2.0,2.055
6.0,-3.0,2.056
5.0,-5.0,2.057
4.0,-7.0,2.058
7.0,-8.0,2.059
6.0,-6.0,2.06
2.0,-6.0,2.061
-2.0,-4.0,2.062
3.0,-1.0,2.063
10.0,-1.0,2.064
8.0,0.0,2.065
1.0,2.0,2.066
-4.0,4.0,2.067
-1.0,3.0,2.068
0.0,3.0,2.069
-1.0,3.0,2.07
-3.0,2.0,2.071
-3.0,-1.0,2.072
-3.0,-2.0,2.073
-1.0,-2.0,2.074
3.0,-2.0,2.075
7.0,-4.0,2.076
9.0,-3.0,2.077
5.0,-2.0,2.078
1.0,-6.0,2.079
0.0,-9.0,2.08
-1.0,-11.0,2.081
0.0,-5.0,2.082
4.0,0.0,2.083
7.0,1.0,2.084
6.0,5.0,2.085
2.0,9.0,2.086
0.0,8.0,2.087
0.0,4.0,2.088
1.0,2.0,2.089
-1.0,3.0,2.09
-3.0,3.0,2.091
-2.0,0.0,2.092
1.0,0.0,2.093
3.0,0.0,2.094
3.0,0.0,2.095
4.0,-4.0,2.096
9.0,-6.0,2.097
7.0,-5.0,2.098
4.0,-5.0,2.099
1.0,-5.0,2.1
0.0,-7.0,2.101
-1.0,-6.0,2.102
2.0,-3.0,2.103
5.0,0.0,2.104
5.0,2.0,2.105
4.0,4.0,2.106
4.0,4.0,2.107
5.0,2.0,2.108
3.0,-1.0,2.109
2.0,-1.0,2.11
0.0,0.0,2.111
-1.0,1.0,2.112
0.0,0.0,2.113
1.0,0.0,2.114
1.0,0.0,2.115
1.0,-3.0,2.116
5.0,-5.0,2.117
9.0,-8.0,2.118
4.0,-6.0,2.119
0.0,-5.0,2.12
0.0,-8.0,2.121
1.0,-6.0,2.122
4.0,-1.0,2.123
11.0,3.0,2.124
11.0,5.0,2.125
4.0,7.0,2.126
-1.0,7.0,2.127
1.0,4.0,2.128
4.0,1.0,2.129
1.0,3.0,2.13
-2.0,7.0,2.131
-2.0,5.0,2.132
-1.0,0.0,2.133
-4.0,-4.0,2.134
-5.0,-3.0,2.135
0.0,-1.0,2.136
7.0,0.0,2.137
7.0,-2.0,2.138
4.0,-5.0,2.139
0.0,-6.0,2.14
-1.0,-8.0,2.141
-1.0,-5.0,2.142
2.0,-2.0,2.143
7.0,-2.0,2.144
6.0,2.0,2.145
2.0,10.0,2.146
-1.0,11.0,2.147
1.0,7.0,2.148
1.0,3.0,2.149
-4.0,3.0,2.15
-7.0,3.0,2.151
-4.0,-2.0,2.152
0.0,-3.0,2.153
1.0,-1.0,2.154
3.0,0.0,2.155
9.0,-5.0,2.156
12.0,-8.0,2.157
5.0,-8.0,2.158
0.0,-8.0,2.159
0.0,-9.0,2.16
4.0,-11.0,2.161
6.0,-8.0,2.162
6.0,-2.0,2.163
9.0,-1.0,2.164
9.0,0.0,2.165
4.0,3.0,2.166
1.0,5.0,2.167
1.0,3.0,2.168
2.0,0.0,2.169
0.0,2.0,2.17
-1.0,4.0,2.171
-1.0,3.0,2.172
-1.0,0.0,2.173
0.0,1.0,2.174
0.0,0.0,2.175
2.0,-2.0,2.176
5.0,-6.0,2.177
4.0,-9.0,2.178
4.0,-8.0,2.179
2.0,-9.0,2.18
0.0,-10.0,2.181
-1.0,-7.0,2.182
3.0,0.0,2.183
6.0,4.0,2.184
6.0,6.0,2.185
2.0,6.0,2.186
1.0,6.0,2.187
3.0,7.0,2.188
5.0,7.0,2.189
4.0,7.0,2.19
2.0,4.0,2.191
0.0,0.0,2.192
-1.0,-2.0,2.193
0.0,-2.0,2.194
1.0,-3.0,2.195
3.0,-6.0,2.196
5.0,-8.0,2.197
6.0,-6.0,2.198
7.0,-1.0,2.199
4.0,-1.0,2.2
0.0,-7.0,2.201
0.0,-7.0,2.202
4.0,-5.0,2.203
9.0,-1.0,2.204
5.0,0.0,2.205
0.0,2.0,2.206
-1.0,5.0,2.207
1.0,4.0,2.208
0.0,1.0,2.209
-5.0,2.0,2.21
-8.0,2.0,2.211
-7.0,0.0,2.212
-5.0,-4.0,2.213
-3.0,-4.0,2.214
-1.0,-1.0,2.215
4.0,-1.0,2.216
10.0,-3.0,2.217
6.0,-4.0,2.218
2.0,-3.0,2.219
-1.0,-4.0,2.22
-1.0,-10.0,2.221
3.0,-10.0,2.222
7.0,-5.0,2.223
13.0,-2.0,2.224
13.0,0.0,2.225
6.0,3.0,2.226
0.0,7.0,2.227
-1.0,7.0,2.228
-2.0,4.0,2.229
-4.0,2.0,2.23
-2.0,1.0,2.231
4.0,0.0,2.232
8.0,0.0,2.233
4.0,1.0,2.234
1.0,1.0,2.235
5.0,-4.0,2.236
12.0,-7.0,2.237
13.0,-6.0,2.238
9.0,-4.0,2.239
2.0,-4.0,2.24
-1.0,-8.0,2.241
0.0,-8.0,2.242
4.0,-4.0,2.243
8.0,0.0,2.244
7.0,2.0,2.245
2.0,4.0,2.246
-2.0,3.0,2.247
-1.0,1.0,2.248
0.0,2.0,2.249
-3.0,4.0,2.25
-6.0,4.0,2.251
-6.0,1.0,2.252
-3.0,0.0,2.253
-2.0,3.0,2.254
0.0,1.0,2.255
3.0,-4.0,2.256
7.0,-5.0,2.257
7.0,-3.0,2.258
7.0,-1.0,2.259
5.0,-3.0,2.26
0.0,-6.0,2.261
0.0,-2.0,2.262
5.0,2.0,2.263
14.0,2.0,2.264
11.0,1.0,2.265
1.0,5.0,2.266
-4.0,8.0,2.267
-2.0,6.0,2.268
0.0,1.0,2.269
-3.0,0.0,2.27
-5.0,3.0,2.271
-2.0,2.0,2.272
1.0,-1.0,2.273
2.0,-3.0,2.274
3.0,-3.0,2.275
7.0,-5.0,2.276
7.0,-4.0,2.277
5.0,-6.0,2.278
2.0,-7.0,2.279
1.0,-8.0,2.28
-1.0,-11.0,2.281
-1.0,-9.0,2.282
5.0,-5.0,2.283
12.0,-2.0,2.284
12.0,-1.0,2.285
5.0,3.0,2.286
0.0,9.0,2.287
0.0,9.0,2.288
0.0,5.0,2.289
-2.0,4.0,2.29
-4.0,7.0,2.291
-2.0,8.0,2.292
1.0,5.0,2.293
1.0,4.0,2.294
1.0,4.0,2.295
2.0,2.0,2.296
6.0,-2.0,2.297
6.0,-6.0,2.298
6.0,-5.0,2.299
2.0,-2.0,2.3
0.0,-4.0,2.301
0.0,-6.0,2.302
4.0,-5.0,2.303
7.0,-3.0,2.304
0.0,0.0,2.305
-4.0,4.0,2.306
-4.0,4.0,2.307
0.0,0.0,2.308
1.0,-3.0,2.309
0.0,1.0,2.31
3.0,5.0,2.311
3.0,4.0,2.312
2.0,1.0,2.313
1.0,0.0,2.314
6.0,0.0,2.315
11.0,-1.0,2.316
12.0,-2.0,2.317
6.0,-4.0,2.318
3.0,-4.0,2.319
3.0,-5.0,2.32
2.0,-9.0,2.321
0.0,-12.0,2.322
2.0,-6.0,2.323
7.0,-1.0,2.324
9.0,4.0,2.325
4.0,7.0,2.326
-1.0,4.0,2.327
-4.0,2.0,2.328
-5.0,4.0,2.329
-5.0,6.0,2.33
-3.0,0.0,2.331
0.0,-3.0,2.332
0.0,-1.0,2.333
-1.0,0.0,2.334
-1.0,-4.0,2.335
2.0,-7.0,2.336
7.0,-7.0,2.337
9.0,-5.0,2.338
7.0,-2.0,2.339
4.0,-4.0,2.34
1.0,-9.0,2.341
2.0,-8.0,2.342
9.0,-3.0,2.343
15.0,0.0,2.344
12.0,1.0,2.345
4.0,3.0,2.346
0.0,5.0,2.347
1.0,4.0,2.348
2.0,3.0,2.349
-2.0,4.0,2.35
-5.0,7.0,2.351
-5.0,4.0,2.352
-5.0,-1.0,2.353
-6.0,-2.0,2.354
-3.0,-1.0,2.355
3.0,-1.0,2.356
8.0,-2.0,2.357
6.0,-2.0,2.358
4.0,1.0,2.359
2.0,0.0,2.36
3.0,-7.0,2.361
2.0,-9.0,2.362
6.0,-5.0,2.363
9.0,0.0,2.364
9.0,0.0,2.365
4.0,0.0,2.366
1.0,4.0,2.367
1.0,7.0,2.368
0.0,5.0,2.369
-2.0,4.0,2.37
-3.0,5.0,2.371
-1.0,5.0,2.372
0.0,1.0,2.373
-3.0,-3.0,2.374
-4.0,-3.0,2.375
-1.0,-2.0,2.376
3.0,-2.0,2.377
4.0,-4.0,2.378
5.0,-5.0,2.379
4.0,-5.0,2.38
1.0,-10.0,2.381
-1.0,-12.0,2.382
2.0,-8.0,2.383
10.0,-2.0,2.384
11.0,3.0,2.385
4.0,5.0,2.386
-2.0,5.0,2.387
-1.0,4.0,2.388
0.0,1.0,2.389
-2.0,1.0,2.39
-7.0,2.0,2.391
-4.0,1.0,2.392
3.0,0.0,2.393
5.0,0.0,2.394
2.0,1.0,2.395
2.0,0.0,2.396
7.0,-5.0,2.397
7.0,-7.0,2.398
5.0,-7.0,2.399
1.0,-4.0,2.4
0.0,-5.0,2.401
-2.0,-4.0,2.402
0.0,-1.0,2.403
8.0,1.0,2.404
14.0,4.0,2.405
8.0,7.0,2.406
0.0,9.0,2.407
-2.0,6.0,2.408
0.0,3.0,2.409
-1.0,5.0,2.41
-4.0,8.0,2.411
-4.0,5.0,2.412
-3.0,-1.0,2.413
-1.0,-3.0,2.414
-1.0,-3.0,2.415
1.0,-3.0,2.416
6.0,-5.0,2.417
6.0,-3.0,2.418
3.0,0.0,2.419
-1.0,-2.0,2.42
0.0,-9.0,2.421
4.0,-12.0,2.422
13.0,-6.0,2.423
17.0,3.0,2.424
13.0,9.0,2.425
5.0,10.0,2.426
2.0,6.0,2.427
5.0,2.0,2.428
6.0,2.0,2.429
1.0,6.0,2.43
-1.0,9.0,2.431
1.0,6.0,2.432
5.0,1.0,2.433
6.0,0.0,2.434
6.0,0.0,2.435
8.0,-4.0,2.436
8.0,-6.0,2.437
5.0,-8.0,2.438
2.0,-6.0,2.439
2.0,-7.0,2.44
3.0,-11.0,2.441
2.0,-8.0,2.442
6.0,-3.0,2.443
10.0,-1.0,2.444
9.0,-1.0,2.445
1.0,1.0,2.446
-2.0,2.0,2.447
2.0,-1.0,2.448
2.0,-4.0,2.449
-5.0,-2.0,2.45
-10.0,1.0,2.451
-6.0,1.0,2.452
-2.0,-2.0,2.453
-2.0,-3.0,2.454
-3.0,-2.0,2.455
0.0,-3.0,2.456
2.0,-4.0,2.457
1.0,-5.0,2.458
-1.0,-5.0,2.459
-2.0,-4.0,2.46
-1.0,-5.0,2.461
-1.0,-4.0,2.462
1.0,-1.0,2.463
3.0,1.0,2.464
4.0,5.0,2.465
1.0,7.0,2.466
-1.0,6.0,2.467
0.0,3.0,2.468
2.0,2.0,2.469
-1.0,1.0,2.47
-1.0,0.0,2.471
1.0,-1.0,2.472
3.0,0.0,2.473
1.0,2.0,2.474
1.0,1.0,2.475
6.0,0.0,2.476
14.0,-1.0,2.477
14.0,-3.0,2.478
11.0,-5.0,2.479
6.0,-7.0,2.48
0.0,-8.0,2.481
-3.0,-7.0,2.482
0.0,-4.0,2.483
7.0,-1.0,2.484
8.0,2.0,2.485
1.0,4.0,2.486
-1.0,4.0,2.487
2.0,2.0,2.488
2.0,1.0,2.489
-4.0,2.0,2.49
-7.0,3.0,2.491
0.0,2.0,2.492
7.0,0.0,2.493
6.0,0.0,2.494
3.0,-1.0,2.495
4.0,-1.0,2.496
9.0,0.0,2.497
9.0,-3.0,2.498
5.0,-5.0,2.499
3.0,-6.0,2.5
1.0,-6.0,2.501
1.0,-3.0,2.502
4.0,-2.0,2.503
7.0,-2.0,2.504
3.0,0.0,2.505
-5.0,6.0,2.506
-8.0,5.0,2.507
-4.0,2.0,2.508
0.0,0.0,2.509
0.0,1.0,2.51
-2.0,3.0,2.511
0.0,3.0,2.512
1.0,1.0,2.513
3.0,0.0,2.514
4.0,-1.0,2.515
7.0,-3.0,2.516
10.0,-2.0,2.517
10.0,-4.0,2.518
7.0,-8.0,2.519
3.0,-7.0,2.52
-1.0,-7.0,2.521
-2.0,-2.0,2.522
3.0,-1.0,2.523
5.0,-2.0,2.524
3.0,0.0,2.525
-1.0,6.0,2.526
0.0,8.0,2.527
2.0,5.0,2.528
-1.0,4.0,2.529
-6.0,4.0,2.53
-8.0,5.0,2.531
-4.0,3.0,2.532
0.0,3.0,2.533
2.0,3.0,2.534
6.0,0.0,2.535
10.0,-4.0,2.536
9.0,-4.0,2.537
5.0,-2.0,2.538
7.0,-1.0,2.539
7.0,-2.0,2.54
3.0,-7.0,2.541
-1.0,-7.0,2.542
0.0,-3.0,2.543
7.0,-1.0,2.544
7.0,2.0,2.545
-1.0,3.0,2.546
-3.0,1.0,2.547
2.0,0.0,2.548
2.0,0.0,2.549
-3.0,2.0,2.55
-5.0,2.0,2.551
0.0,0.0,2.552
3.0,1.0,2.553
1.0,3.0,2.554
0.0,1.0,2.555
4.0,-1.0,2.556
9.0,-2.0,2.557
7.0,-3.0,2.558
5.0,-4.0,2.559
3.0,-6.0,2.56
1.0,-10.0,2.561
-2.0,-8.0,2.562
2.0,-2.0,2.563
10.0,4.0,2.564
11.0,5.0,2.565
4.0,4.0,2.566
1.0,4.0,2.567
2.0,4.0,2.568
2.0,3.0,2.569
-1.0,1.0,2.57
-3.0,0.0,2.571
-1.0,-2.0,2.572
0.0,-4.0,2.573
2.0,-4.0,2.574
3.0,-4.0,2.575
4.0,-4.0,2.576
5.0,-2.0,2.577
5.0,-4.0,2.578
7.0,-4.0,2.579
4.0,-4.0,2.58
-2.0,-6.0,2.581
-3.0,-5.0,2.582
1.0,-6.0,2.583
8.0,-4.0,2.584
4.0,0.0,2.585
-4.0,5.0,2.586
-4.0,7.0,2.587
2.0,6.0,2.588
5.0,5.0,2.589
0.0,5.0,2.59
-5.0,5.0,2.591
-2.0,3.0,2.592
1.0,1.0,2.593
1.0,0.0,2.594
0.0,0.0,2.595
2.0,-2.0,2.596
7.0,0.0,2.597
5.0,-3.0,2.598
3.0,-7.0,2.599
1.0,-8.0,2.6
0.0,-8.0,2.601
0.0,-4.0,2.602
5.0,-3.0,2.603
11.0,-4.0,2.604
9.0,-2.0,2.605
7.0,2.0,2.606
3.0,3.0,2.607
0.0,1.0,2.608
1.0,0.0,2.609
3.0,2.0,2.61
2.0,2.0,2.611
1.0,0.0,2.612
0.0,0.0,2.613
0.0,1.0,2.614
6.0,2.0,2.615
11.0,-3.0,2.616
8.0,-7.0,2.617
6.0,-8.0,2.618
4.0,-8.0,2.619
2.0,-7.0,2.62
-2.0,-7.0,2.621
-6.0,-4.0,2.622
-1.0,0.0,2.623
9.0,5.0,2.624
9.0,8.0,2.625
-1.0,9.0,2.626
-5.0,4.0,2.627
-1.0,-2.0,2.628
0.0,-3.0,2.629
-3.0,2.0,2.63
-4.0,5.0,2.631
0.0,2.0,2.632
3.0,-2.0,2.633
3.0,-1.0,2.634
4.0,0.0,2.635
9.0,-1.0,2.636
10.0,-2.0,2.637
4.0,-4.0,2.638
2.0,-4.0,2.639
1.0,-6.0,2.64
0.0,-9.0,2.641
-1.0,-8.0,2.642
2.0,-5.0,2.643
8.0,-3.0,2.644
7.0,-3.0,2.645
0.0,0.0,2.646
-1.0,1.0,2.647
2.0,3.0,2.648
2.0,3.0,2.649
-3.0,4.0,2.65
-4.0,2.0,2.651
1.0,-1.0,2.652
6.0,-2.0,2.653
5.0,-1.0,2.654
1.0,0.0,2.655
0.0,-2.0,2.656
2.0,-2.0,2.657
6.0,-2.0,2.658
6.0,0.0,2.659
-1.0,-2.0,2.66
-8.0,-7.0,2.661
-7.0,-8.0,2.662
3.0,-5.0,2.663
11.0,0.0,2.664
6.0,4.0,2.665
-1.0,9.0,2.666
0.0,8.0,2.667
5.0,2.0,2.668
4.0,0.0,2.669
-2.0,3.0,2.67
-6.0,4.0,2.671
-2.0,3.0,2.672
1.0,1.0,2.673
1.0,3.0,2.674
1.0,1.0,2.675
3.0,-4.0,2.676
5.0,-7.0,2.677
5.0,-7.0,2.678
4.0,-4.0,2.679
2.0,-3.0,2.68
0.0,-5.0,2.681
-2.0,-3.0,2.682
3.0,-1.0,2.683
13.0,0.0,2.684
14.0,1.0,2.685
6.0,2.0,2.686
0.0,4.0,2.687
2.0,1.0,2.688
3.0,0.0,2.689
0.0,2.0,2.69
-3.0,3.0,2.691
0.0,1.0,2.692
3.0,0.0,2.693
1.0,-1.0,2.694
-1.0,-3.0,2.695
3.0,-6.0,2.696
9.0,-5.0,2.697
8.0,-5.0,2.698
4.0,-7.0,2.699
0.0,-8.0,2.7
-1.0,-9.0,2.701
-1.0,-4.0,2.702
4.0,2.0,2.703
12.0,5.0,2.704
12.0,6.0,2.705
3.0,5.0,2.706
-3.0,4.0,2.707
-1.0,2.0,2.708
1.0,3.0,2.709
-1.0,1.0,2.71
-5.0,0.0,2.711
-3.0,-1.0,2.712
0.0,0.0,2.713
1.0,-1.0,2.714
2.0,-5.0,2.715
3.0,-8.0,2.716
7.0,-6.0,2.717
8.0,-3.0,2.718
6.0,-2.0,2.719
4.0,-5.0,2.72
-1.0,-9.0,2.721
-3.0,-7.0,2.722
0.0,-5.0,2.723
7.0,-2.0,2.724
7.0,1.0,2.725
-1.0,3.0,2.726
-4.0,4.0,2.727
0.0,4.0,2.728
3.0,6.0,2.729
0.0,8.0,2.73
-3.0,9.0,2.731
-4.0,5.0,2.732
-2.0,1.0,2.733
0.0,0.0,2.734
3.0,-3.0,2.735
8.0,-6.0,2.736
12.0,-5.0,2.737
9.0,-5.0,2.738
6.0,-4.0,2.739
4.0,-3.0,2.74
3.0,-5.0,2.741
2.0,-3.0,2.742
6.0,0.0,2.743
10.0,2.0,2.744
9.0,6.0,2.745
2.0,9.0,2.746
-2.0,7.0,2.747
0.0,4.0,2.748
0.0,2.0,2.749
-3.0,3.0,2.75
-6.0,2.0,2.751
-4.0,-1.0,2.752
-2.0,-3.0,2.753
-2.0,-4.0,2.754
-1.0,-3.0,2.755
1.0,-2.0,2.756
6.0,-1.0,2.757
6.0,-2.0,2.758
3.0,-5.0,2.759
0.0,-5.0,2.76
0.0,-7.0,2.761
1.0,-6.0,2.762
5.0,-4.0,2.763
7.0,-3.0,2.764
4.0,-1.0,2.765
0.0,0.0,2.766
0.0,1.0,2.767
1.0,-1.0,2.768
0.0,-4.0,2.769
-4.0,-1.0,2.77
-6.0,1.0,2.771
-3.0,0.0,2.772
0.0,-3.0,2.773
1.0,-6.0,2.774
2.0,-3.0,2.775
7.0,0.0,2.776
12.0,1.0,2.777
10.0,-1.0,2.778
8.0,-2.0,2.779
3.0,-2.0,2.78
2.0,-5.0,2.781
4.0,-6.0,2.782
10.0,-2.0,2.783
12.0,2.0,2.784
7.0,4.0,2.785
0.0,4.0,2.786
-1.0,4.0,2.787
1.0,6.0,2.788
2.0,6.0,2.789
1.0,1.0,2.79
2.0,-2.0,2.791
3.0,-2.0,2.792
1.0,-1.0,2.793
0.0,0.0,2.794
1.0,-3.0,2.795
5.0,-4.0,2.796
8.0,-4.0,2.797
7.0,-4.0,2.798
6.0,-6.0,2.799
1.0,-9.0,2.8
-4.0,-11.0,2.801
-4.0,-7.0,2.802
2.0,0.0,2.803
8.0,3.0,2.804
6.0,4.0,2.805
-1.0,4.0,2.806
-1.0,4.0,2.807
2.0,7.0,2.808
3.0,7.0,2.809
1.0,5.0,2.81
0.0,2.0,2.811
1.0,1.0,2.812
0.0,1.0,2.813
0.0,1.0,2.814
0.0,-2.0,2.815
4.0,-6.0,2.816
6.0,-6.0,2.817
5.0,-4.0,2.818
4.0,-5.0,2.819
2.0,-8.0,2.82
-2.0,-12.0,2.821
-3.0,-7.0,2.822
0.0,0.0,2.823
6.0,4.0,2.824
5.0,3.0,2.825
0.0,3.0,2.826
-1.0,6.0,2.827
3.0,7.0,2.828
3.0,6.0,2.829
-2.0,6.0,2.83
-4.0,6.0,2.831
-1.0,1.0,2.832
1.0,-2.0,2.833
0.0,-1.0,2.834
0.0,0.0,2.835
5.0,-4.0,2.836
11.0,-8.0,2.837
8.0,-7.0,2.838
4.0,-5.0,2.839
0.0,-5.0,2.84
0.0,-8.0,2.841
2.0,-5.0,2.842
5.0,-1.0,2.843
11.0,0.0,2.844
11.0,2.0,2.845
4.0,6.0,2.846
-1.0,8.0,2.847
-2.0,4.0,2.848
-2.0,0.0,2.849
-5.0,1.0,2.85
-6.0,3.0,2.851
-1.0,-2.0,2.852
4.0,-8.0,2.853
3.0,-10.0,2.854
1.0,-6.0,2.855
5.0,-3.0,2.856
11.0,-5.0,2.857
13.0,-7.0,2.858
11.0,-7.0,2.859
6.0,-5.0,2.86
2.0,-4.0,2.861
0.0,-4.0,2.862
3.0,-3.0,2.863
9.0,0.0,2.864
9.0,4.0,2.865
3.0,8.0,2.866
0.0,7.0,2.867
3.0,4.0,2.868
3.0,4.0,2.869
-3.0,4.0,2.87
-8.0,2.0,2.871
-5.0,-2.0,2.872
-1.0,-2.0,2.873
0.0,2.0,2.874
0.0,3.0,2.875
3.0,-1.0,2.876
6.0,-2.0,2.877
4.0,-1.0,2.878
3.0,-1.0,2.879
4.0,-3.0,2.88
2.0,-8.0,2.881
0.0,-7.0,2.882
2.0,-4.0,2.883
8.0,-2.0,2.884
7.0,1.0,2.885
1.0,4.0,2.886
0.0,6.0,2.887
2.0,6.0,2.888
2.0,4.0,2.889
-2.0,3.0,2.89
-2.0,0.0,2.891
0.0,-2.0,2.892
0.0,-4.0,2.893
0.0,-2.0,2.894
4.0,-2.0,2.895
9.0,-4.0,2.896
10.0,-3.0,2.897
6.0,-3.0,2.898
5.0,-2.0,2.899
6.0,-4.0,2.9
1.0,-10.0,2.901
-3.0,-11.0,2.902
0.0,-6.0,2.903
10.0,1.0,2.904
11.0,6.0,2.905
4.0,8.0,2.906
-3.0,8.0,2.907
-2.0,6.0,2.908
0.0,3.0,2.909
-1.0,1.0,2.91
-4.0,0.0,2.911
-3.0,0.0,2.912
2.0,0.0,2.913
3.0,0.0,2.914
1.0,-2.0,2.915
1.0,-7.0,2.916
5.0,-7.0,2.917
10.0,-5.0,2.918
12.0,-4.0,2.919
7.0,-5.0,2.92
2.0,-8.0,2.921
0.0,-7.0,2.922
2.0,-3.0,2.923
7.0,-3.0,2.924
6.0,-1.0,2.925
0.0,2.0,2.926
-3.0,6.0,2.927
-1.0,7.0,2.928
2.0,4.0,2.929
0.0,5.0,2.93
-2.0,5.0,2.931
-2.0,1.0,2.932
2.0,-3.0,2.933
2.0,-3.0,2.934
0.0,0.0,2.935
2.0,1.0,2.936
7.0,0.0,2.937
8.0,-2.0,2.938
5.0,-6.0,2.939
0.0,-9.0,2.94
-2.0,-12.0,2.941
-2.0,-7.0,2.942
0.0,-1.0,2.943
5.0,1.0,2.944
4.0,3.0,2.945
0.0,7.0,2.946
-2.0,8.0,2.947
0.0,7.0,2.948
1.0,5.0,2.949
-3.0,7.0,2.95
-6.0,8.0,2.951
-2.0,3.0,2.952
3.0,-2.0,2.953
3.0,-5.0,2.954
2.0,-5.0,2.955
3.0,-7.0,2.956
8.0,-7.0,2.957
10.0,-7.0,2.958
9.0,-6.0,2.959
6.0,-7.0,2.96
0.0,-10.0,2.961
-2.0,-8.0,2.962
1.0,-5.0,2.963
9.0,-1.0,2.964
11.0,3.0,2.965
3.0,6.0,2.966
-1.0,7.0,2.967
0.0,2.0,2.968
0.0,-1.0,2.969
-5.0,-1.0,2.97
-7.0,1.0,2.971
-2.0,1.0,2.972
3.0,-3.0,2.973
2.0,-3.0,2.974
0.0,-2.0,2.975
2.0,-3.0,2.976
9.0,-4.0,2.977
8.0,-5.0,2.978
4.0,-5.0,2.979
0.0,-5.0,2.98
-1.0,-8.0,2.981
0.0,-6.0,2.982
7.0,-4.0,2.983
14.0,0.0,2.984
11.0,3.0,2.985
0.0,7.0,2.986
-5.0,8.0,2.987
-3.0,7.0,2.988
-1.0,4.0,2.989
-5.0,5.0,2.99
-5.0,7.0,2.991
-1.0,4.0,2.992
2.0,-2.0,2.993
1.0,-5.0,2.994
-1.0,-5.0,2.995
-1.0,-4.0,2.996
2.0,-1.0,2.997
3.0,1.0,2.998
3.0,2.0,2.999
0.0,1.0,3.0
-3.0,-4.0,3.001
-3.0,-4.0,3.002
2.0,-1.0,3.003
12.0,4.0,3.004
13.0,6.0,3.005
5.0,8.0,3.006
0.0,7.0,3.007
2.0,4.0,3.008
4.0,0.0,3.009
2.0,0.0,3.01
2.0,2.0,3.011
5.0,3.0,3.012
4.0,6.0,3.013
0.0,7.0,3.014
-2.0,3.0,3.015
2.0,-2.0,3.016
9.0,-3.0,3.017
9.0,-2.0,3.018
7.0,-3.0,3.019
5.0,-7.0,3.02
3.0,-10.0,3.021
2.0,-8.0,3.022
3.0,-4.0,3.023
8.0,0.0,3.024
12.0,2.0,3.025
9.0,3.0,3.026
5.0,1.0,3.027
3.0,0.0,3.028
1.0,0.0,3.029
-1.0,2.0,3.03
-3.0,1.0,3.031
-1.0,-2.0,3.032
0.0,-4.0,3.033
-1.0,-5.0,3.034
-2.0,-6.0,3.035
0.0,-7.0,3.036
6.0,-4.0,3.037
9.0,-2.0,3.038
9.0,-3.0,3.039
2.0,-8.0,3.04
-3.0,-12.0,3.041
-4.0,-8.0,3.042
2.0,-2.0,3.043
8.0,1.0,3.044
7.0,4.0,3.045
1.0,7.0,3.046
0.0,8.0,3.047
1.0,5.0,3.048
0.0,1.0,3.049
-3.0,-1.0,3.05
-4.0,1.0,3.051
-2.0,2.0,3.052
-1.0,0.0,3.053
0.0,-2.0,3.054
1.0,0.0,3.055
5.0,1.0,3.056
7.0,2.0,3.057
5.0,-1.0,3.058
1.0,-4.0,3.059
-1.0,-4.0,3.06
0.0,-6.0,3.061
1.0,-7.0,3.062
3.0,-6.0,3.063
7.0,-1.0,3.064
8.0,3.0,3.065
7.0,5.0,3.066
3.0,5.0,3.067
0.0,7.0,3.068
-2.0,7.0,3.069
-4.0,4.0,3.07
-4.0,0.0,3.071
-3.0,-2.0,3.072
-2.0,-2.0,3.073
-1.0,-2.0,3.074
1.0,-4.0,3.075
5.0,-4.0,3.076
8.0,-2.0,3.077
7.0,-2.0,3.078
3.0,-4.0,3.079
-2.0,-3.0,3.08
-5.0,-5.0,3.081
-3.0,-6.0,3.082
3.0,-3.0,3.083
11.0,1.0,3.084
11.0,7.0,3.085
4.0,7.0,3.086
-1.0,3.0,3.087
0.0,0.0,3.088
1.0,1.0,3.089
0.0,4.0,3.09
0.0,5.0,3.091
1.0,0.0,3.092
2.0,-5.0,3.093
1.0,-4.0,3.094
1.0,-2.0,3.095
3.0,-3.0,3.096
7.0,-6.0,3.097
10.0,-6.0,3.098
10.0,-5.0,3.099
9.0,-3.0,3.1
5.0,-5.0,3.101
1.0,-5.0,3.102
1.0,-3.0,3.103
6.0,-1.0,3.104
9.0,1.0,3.105
5.0,4.0,3.106
2.0,5.0,3.107
4.0,1.0,3.108
5.0,-2.0,3.109
1.0,0.0,3.11
-3.0,4.0,3.111
-5.0,3.0,3.112
-1.0,-2.0,3.113
3.0,-4.0,3.114
3.0,-1.0,3.115
1.0,2.0,3.116
2.0,2.0,3.117
3.0,0.0,3.118
3.0,-4.0,3.119
1.0,-4.0,3.12
-2.0,-5.0,3.121
-2.0,-2.0,3.122
4.0,0.0,3.123
10.0,3.0,3.124
9.0,4.0,3.125
2.0,5.0,3.126
-3.0,2.0,3.127
-4.0,0.0,3.128
-2.0,1.0,3.129
0.0,5.0,3.13
1.0,5.0,3.131
0.0,-1.0,3.132
-1.0,-4.0,3.133
-1.0,-3.0,3.134
2.0,-4.0,3.135
7.0,-7.0,3.136
11.0,-6.0,3.137
9.0,-6.0,3.138
7.0,-4.0,3.139
2.0,-4.0,3.14
-1.0,-9.0,3.141
-1.0,-7.0,3.142
5.0,-5.0,3.143
11.0,-1.0,3.144
10.0,5.0,3.145
3.0,9.0,3.146
-2.0,10.0,3.147
-1.0,5.0,3.148
0.0,3.0,3.149
-2.0,6.0,3.15
-3.0,7.0,3.151
1.0,4.0,3.152
5.0,0.0,3.153
4.0,-1.0,3.154
-2.0,1.0,3.155
-2.0,0.0,3.156
2.0,-2.0,3.157
6.0,-7.0,3.158
7.0,-9.0,3.159
4.0,-10.0,3.16
2.0,-12.0,3.161
2.0,-9.0,3.162
5.0,-3.0,3.163
8.0,3.0,3.164
7.0,7.0,3.165
-2.0,8.0,3.166
-6.0,6.0,3.167
-2.0,3.0,3.168
3.0,2.0,3.169
2.0,4.0,3.17
-1.0,5.0,3.171
-1.0,1.0,3.172
0.0,-5.0,3.173
1.0,-7.0,3.174
2.0,-5.0,3.175
4.0,-3.0,3.176
10.0,-2.0,3.177
10.0,-3.0,3.178
8.0,-3.0,3.179
6.0,-5.0,3.18
2.0,-9.0,3.181
0.0,-10.0,3.182
3.0,-7.0,3.183
11.0,-1.0,3.184
13.0,6.0,3.185
7.0,9.0,3.186
0.0,6.0,3.187
0.0,1.0,3.188
-1.0,-1.0,3.189
-4.0,0.0,3.19
-5.0,1.0,3.191
-1.0,-1.0,3.192
2.0,-3.0,3.193
1.0,-3.0,3.194
-1.0,-3.0,3.195
0.0,-5.0,3.196
3.0,-4.0,3.197
3.0,-4.0,3.198
5.0,-3.0,3.199
6.0,-3.0,3.2
5.0,-6.0,3.201
0.0,-3.0,3.202
-1.0,-1.0,3.203
2.0,3.0,3.204
3.0,6.0,3.205
-3.0,7.0,3.206
-6.0,6.0,3.207
-3.0,3.0,3.208
-2.0,3.0,3.209
-4.0,2.0,3.21
-4.0,-1.0,3.211
0.0,-6.0,3.212
4.0,-7.0,3.213
2.0,-3.0,3.214
1.0,1.0,3.215
6.0,-1.0,3.216
13.0,-2.0,3.217
13.0,-2.0,3.218
9.0,-2.0,3.219
2.0,-5.0,3.22
-2.0,-9.0,3.221
-3.0,-7.0,3.222
1.0,-4.0,3.223
8.0,0.0,3.224
10.0,4.0,3.225
6.0,6.0,3.226
0.0,6.0,3.227
-4.0,1.0,3.228
-8.0,0.0,3.229
-10.0,4.0,3.23
-7.0,7.0,3.231
0.0,5.0,3.232
5.0,2.0,3.233
4.0,1.0,3.234
2.0,1.0,3.235
3.0,-2.0,3.236
8.0,-6.0,3.237
10.0,-8.0,3.238
11.0,-7.0,3.239
9.0,-4.0,3.24
3.0,-3.0,3.241
0.0,-2.0,3.242
1.0,-3.0,3.243
6.0,-4.0,3.244
7.0,-1.0,3.245
2.0,3.0,3.246
-3.0,3.0,3.247
-2.0,0.0,3.248
-1.0,0.0,3.249
-4.0,2.0,3.25
-7.0,3.0,3.251
-4.0,0.0,3.252
1.0,-3.0,3.253
3.0,-2.0,3.254
3.0,0.0,3.255
5.0,-2.0,3.256
9.0,-5.0,3.257
9.0,-8.0,3.258
8.0,-7.0,3.259
6.0,-5.0,3.26
1.0,-7.0,3.261
-1.0,-7.0,3.262
2.0,-5.0,3.263
9.0,0.0,3.264
7.0,5.0,3.265
-4.0,9.0,3.266
-9.0,10.0,3.267
-3.0,7.0,3.268
1.0,4.0,3.269
-2.0,3.0,3.27
-5.0,1.0,3.271
-1.0,-1.0,3.272
7.0,-2.0,3.273
9.0,0.0,3.274
9.0,-1.0,3.275
9.0,-4.0,3.276
8.0,-5.0,3.277
6.0,-4.0,3.278
4.0,-3.0,3.279
2.0,-5.0,3.28
0.0,-7.0,3.281
0.0,-2.0,3.282
6.0,2.0,3.283
13.0,2.0,3.284
11.0,1.0,3.285
2.0,6.0,3.286
-5.0,9.0,3.287
-5.0,6.0,3.288
-2.0,3.0,3.289
0.0,6.0,3.29
-1.0,6.0,3.291
0.0,2.0,3.292
5.0,-3.0,3.293
7.0,-3.0,3.294
8.0,-1.0,3.295
5.0,-4.0,3.296
3.0,-7.0,3.297
3.0,-9.0,3.298
2.0,-4.0,3.299
0.0,-2.0,3.3
-3.0,-4.0,3.301
-2.0,-6.0,3.302
1.0,-5.0,3.303
6.0,-1.0,3.304
3.0,2.0,3.305
-2.0,3.0,3.306
-4.0,2.0,3.307
0.0,0.0,3.308
2.0,2.0,3.309
-2.0,6.0,3.31
-4.0,5.0,3.311
-2.0,0.0,3.312
2.0,-3.0,3.313
6.0,-3.0,3.314
8.0,-4.0,3.315
11.0,-6.0,3.316
15.0,-5.0,3.317
14.0,-4.0,3.318
8.0,-6.0,3.319
1.0,-9.0,3.32
-2.0,-10.0,3.321
-2.0,-5.0,3.322
1.0,-1.0,3.323
6.0,1.0,3.324
3.0,3.0,3.325
-3.0,5.0,3.326
-5.0,4.0,3.327
-2.0,2.0,3.328
1.0,2.0,3.329
-2.0,3.0,3.33
-5.0,3.0,3.331
-2.0,0.0,3.332
2.0,-2.0,3.333
2.0,-2.0,3.334
2.0,-5.0,3.335
5.0,-6.0,3.336
8.0,-4.0,3.337
6.0,-2.0,3.338
4.0,-1.0,3.339
5.0,0.0,3.34
4.0,-2.0,3.341
0.0,-2.0,3.342
0.0,0.0,3.343
4.0,2.0,3.344
7.0,6.0,3.345
0.0,10.0,3.346
-5.0,11.0,3.347
-2.0,7.0,3.348
2.0,2.0,3.349
0.0,-1.0,3.35
-2.0,-2.0,3.351
1.0,-4.0,3.352
3.0,-4.0,3.353
0.0,-3.0,3.354
0.0,-3.0,3.355
3.0,-5.0,3.356
10.0,-5.0,3.357
10.0,-3.0,3.358
8.0,0.0,3.359
3.0,-2.0,3.36
-2.0,-7.0,3.361
-4.0,-6.0,3.362
4.0,-1.0,3.363
13.0,3.0,3.364
13.0,6.0,3.365
3.0,7.0,3.366
-2.0,5.0,3.367
1.0,2.0,3.368
3.0,0.0,3.369
-1.0,0.0,3.37
-4.0,2.0,3.371
-3.0,2.0,3.372
-2.0,1.0,3.373
-2.0,0.0,3.374
0.0,0.0,3.375
6.0,-3.0,3.376
11.0,-5.0,3.377
8.0,-8.0,3.378
7.0,-7.0,3.379
5.0,-5.0,3.38
0.0,-8.0,3.381
-2.0,-8.0,3.382
3.0,-5.0,3.383
11.0,0.0,3.384
9.0,2.0,3.385
0.0,3.0,3.386
-4.0,3.0,3.387
-2.0,2.0,3.388
0.0,3.0,3.389
-2.0,4.0,3.39
-4.0,4.0,3.391
-2.0,0.0,3.392
0.0,-3.0,3.393
1.0,-3.0,3.394
1.0,-2.0,3.395
4.0,-3.0,3.396
9.0,-4.0,3.397
8.0,-5.0,3.398
5.0,-4.0,3.399
0.0,-4.0,3.4
-3.0,-7.0,3.401
-1.0,-6.0,3.402
5.0,-1.0,3.403
9.0,2.0,3.404
6.0,4.0,3.405
-2.0,8.0,3.406
-6.0,8.0,3.407
-4.0,4.0,3.408
0.0,2.0,3.409
0.0,7.0,3.41
0.0,9.0,3.411
2.0,5.0,3.412
7.0,-1.0,3.413
8.0,0.0,3.414
6.0,3.0,3.415
5.0,2.0,3.416
8.0,-1.0,3.417
7.0,-4.0,3.418
5.0,-4.0,3.419
0.0,-7.0,3.42
-2.0,-10.0,3.421
-2.0,-9.0,3.422
1.0,-5.0,3.423
5.0,-2.0,3.424
7.0,2.0,3.425
4.0,9.0,3.426
0.0,9.0,3.427
-1.0,2.0,3.428
-2.0,-3.0,3.429
-1.0,-2.0,3.43
0.0,0.0,3.431
4.0,-1.0,3.432
5.0,-4.0,3.433
3.0,-2.0,3.434
3.0,0.0,3.435
7.0,-1.0,3.436
8.0,-1.0,3.437
6.0,-1.0,3.438
2.0,-2.0,3.439
0.0,-6.0,3.44
-2.0,-10.0,3.441
-3.0,-7.0,3.442
4.0,-4.0,3.443
11.0,-1.0,3.444
10.0,2.0,3.445
1.0,5.0,3.446
-3.0,6.0,3.447
1.0,3.0,3.448
3.0,3.0,3.449
-1.0,9.0,3.45
-3.0,10.0,3.451
-2.0,4.0,3.452
1.0,-2.0,3.453
2.0,-3.0,3.454
3.0,-1.0,3.455
4.0,-4.0,3.456
5.0,-5.0,3.457
4.0,-7.0,3.458
5.0,-6.0,3.459
3.0,-7.0,3.46
0.0,-8.0,3.461
-3.0,-5.0,3.462
2.0,0.0,3.463
10.0,3.0,3.464
9.0,5.0,3.465
1.0,8.0,3.466
-2.0,6.0,3.467
0.0,4.0,3.468
2.0,4.0,3.469
0.0,5.0,3.47
-1.0,3.0,3.471
0.0,-1.0,3.472
2.0,-3.0,3.473
0.0,-4.0,3.474
0.0,-6.0,3.475
3.0,-7.0,3.476
7.0,-4.0,3.477
6.0,-3.0,3.478
6.0,-3.0,3.479
4.0,-5.0,3.48
0.0,-7.0,3.481
-2.0,-6.0,3.482
2.0,-3.0,3.483
8.0,0.0,3.484
7.0,5.0,3.485
1.0,7.0,3.486
0.0,6.0,3.487
3.0,2.0,3.488
3.0,2.0,3.489
-3.0,4.0,3.49
-4.0,4.0,3.491
-1.0,0.0,3.492
0.0,-5.0,3.493
-1.0,-4.0,3.494
2.0,0.0,3.495
9.0,3.0,3.496
13.0,1.0,3.497
10.0,-3.0,3.498
5.0,-5.0,3.499
1.0,-5.0,3.5
-3.0,-7.0,3.501
-3.0,-7.0,3.502
3.0,-5.0,3.503
11.0,1.0,3.504
10.0,6.0,3.505
1.0,8.0,3.506
-2.0,6.0,3.507
-1.0,4.0,3.508
-1.0,4.0,3.509
-2.0,4.0,3.51
-1.0,1.0,3.511
4.0,-3.0,3.512
7.0,-7.0,3.513
5.0,-6.0,3.514
2.0,-2.0,3.515
4.0,-1.0,3.516
5.0,0.0,3.517
7.0,-3.0,3.518
8.0,-2.0,3.519
5.0,-1.0,3.52
-2.0,-5.0,3.521
-6.0,-6.0,3.522
-1.0,-1.0,3.523
6.0,3.0,3.524
5.0,5.0,3.525
-3.0,6.0,3.526
-6.0,7.0,3.527
-2.0,7.0,3.528
0.0,4.0,3.529
-2.0,0.0,3.53
-3.0,-5.0,3.531
0.0,-5.0,3.532
4.0,-5.0,3.533
3.0,-4.0,3.534
1.0,-3.0,3.535
2.0,-4.0,3.536
6.0,-4.0,3.537
4.0,-4.0,3.538
2.0,-2.0,3.539
-1.0,0.0,3.54
-4.0,-2.0,3.541
-5.0,-3.0,3.542
2.0,-1.0,3.543
10.0,0.0,3.544
9.0,4.0,3.545
0.0,7.0,3.546
-5.0,7.0,3.547
-3.0,4.0,3.548
0.0,3.0,3.549
-4.0,3.0,3.55
-15.0,0.0,3.551
-19.0,-5.0,3.552
-9.0,-6.0,3.553
10.0,-6.0,3.554
29.0,-8.0,3.555
39.0,-10.0,3.556
40.0,-8.0,3.557
31.0,-3.0,3.558
14.0,1.0,3.559
-8.0,0.0,3.56
-21.0,-4.0,3.561
-14.0,-4.0,3.562
6.0,-5.0,3.563
18.0,-9.0,3.564
10.0,-10.0,3.565
-10.0,-10.0,3.566
-26.0,-13.0,3.567
-32.0,-15.0,3.568
-34.0,-12.0,3.569
-33.0,-3.0,3.57
-19.0,4.0,3.571
6.0,8.0,3.572
27.0,13.0,3.573
33.0,19.0,3.574
30.0,18.0,3.575
28.0,3.0,3.576
27.0,-14.0,3.577
18.0,-20.0,3.578
3.0,-16.0,3.579
-5.0,-9.0,3.58
0.0,-13.0,3.581
6.0,-18.0,3.582
-6.0,-17.0,3.583
-39.0,-9.0,3.584
-67.0,3.0,3.585
-47.0,15.0,3.586
22.0,33.0,3.587
85.0,57.0,3.588
84.0,76.0,3.589
37.0,72.0,3.59
10.0,37.0,3.591
18.0,-5.0,3.592
25.0,-28.0,3.593
20.0,-29.0,3.594
35.0,-22.0,3.595
76.0,-20.0,3.596
99.0,-16.0,3.597
77.0,-11.0,3.598
42.0,-10.0,3.599
33.0,-14.0,3.6
62.0,-19.0,3.601
95.0,-10.0,3.602
74.0,11.0,3.603
-28.0,43.0,3.604
-158.0,73.0,3.605
-213.0,80.0,3.606
-185.0,60.0,3.607
-159.0,33.0,3.608
-172.0,17.0,3.609
-148.0,8.0,3.61
-55.0,-6.0,3.611
24.0,-21.0,3.612
38.0,-30.0,3.613
55.0,-38.0,3.614
105.0,-50.0,3.615
94.0,-57.0,3.616
-18.0,-52.0,3.617
-128.0,45.0,3.618
-108.0,16.0,3.619
-11.0,-8.0,3.62
31.0,-27.0,3.621
8.0,-46.0,3.622
-4.0,-64.0,3.623
9.0,-72.0,3.624
27.0,-45.0,3.625
81.0,-15.0,3.626
177.0,21.0,3.627
225.0,49.0,3.628
154.0,46.0,3.629
24.0,37.0,3.63
-60.0,8.0,3.631
-95.0,-16.0,3.632
-122.0,-29.0,3.633
-125.0,-35.0,3.634
-78.0,-19.0,3.635
-21.0,0.0,3.636
11.0,34.0,3.637
38.0,55.0,3.638
74.0,21.0,3.639
79.0,-9.0,3.64
55.0,-31.0,3.641
77.0,-54.0,3.642
187.0,-76.0,3.643
308.0,-85.0,3.644
343.0,-53.0,3.645
285.0,-17.0,3.646
180.0,27.0,3.647
41.0,60.0,3.648
-116.0,57.0,3.649
-239.0,46.0,3.65
-280.0,11.0,3.651
-257.0,-19.0,3.652
-221.0,-34.0,3.653
-217.0,-41.0,3.654
-250.0,-22.0,3.655
-278.0,2.0,3.656
-248.0,42.0,3.657
-179.0,73.0,3.658
-139.0,63.0,3.659
-104.0,37.0,3.66
-83.0,9.0,3.661
-66.0,-10.0,3.662
-61.0,-17.0,3.663
-40.0,-14.0,3.664
28.0,-10.0,3.665
92.0,-16.0,3.666
144.0,-24.0,3.667
214.0,-24.0,3.668
340.0,-18.0,3.669
432.0,-16.0,3.67
414.0,-18.0,3.671
369.0,-22.0,3.672
243.0,-28.0,3.673
130.0,-34.0,3.674
58.0,-36.0,3.675
-14.0,-31.0,3.676
-84.0,-20.0,3.677
-122.0,-17.0,3.678
-77.0,-17.0,3.679
-89.0,-15.0,3.68
-116.0,-8.0,3.681
-96.0,13.0,3.682
-74.0,31.0,3.683
-94.0,33.0,3.684
-110.0,20.0,3.685
-83.0,7.0,3.686
-58.0,2.0,3.687
-65.0,3.0,3.688
-58.0,10.0,3.689
-20.0,19.0,3.69
6.0,28.0,3.691
-2.0,25.0,3.692
-9.0,13.0,3.693
5.0,0.0,3.694
20.0,-4.0,3.695
28.0,-2.0,3.696
47.0,0.0,3.697
63.0,-5.0,3.698
51.0,-14.0,3.699
5.0,-19.0,3.7
-46.0,-20.0,3.701
-102.0,-18.0,3.702
-142.0,-17.0,3.703
-120.0,-14.0,3.704
-29.0,-8.0,3.705
54.0,-4.0,3.706
62.0,-5.0,3.707
25.0,-5.0,3.708
7.0,3.0,3.709
13.0,14.0,3.71
20.0,18.0,3.711
31.0,17.0,3.712
51.0,26.0,3.713
50.0,38.0,3.714
23.0,37.0,3.715
7.0,17.0,3.716
24.0,-1.0,3.717
-100.0,-4.0,3.718
-147.0,-1.0,3.719
-158.0,-2.0,3.72
-8.0,-9.0,3.721
107.0,-11.0,3.722
118.0,-7.0,3.723
142.0,-3.0,3.724
188.0,-2.0,3.725
211.0,0.0,3.726
118.0,1.0,3.727
49.0,-1.0,3.728
84.0,-5.0,3.729
107.0,-7.0,3.73
72.0,-7.0,3.731
49.0,-8.0,3.732
27.0,-7.0,3.733
4.0,-6.0,3.734
-19.0,-7.0,3.735
-31.0,-8.0,3.736
-19.0,-8.0,3.737
26.0,-8.0,3.738
22.0,-7.0,3.739
21.0,-6.0,3.74
34.0,-7.0,3.741
44.0,-6.0,3.742
45.0,0.0,3.743
47.0,4.0,3.744
51.0,5.0,3.745
53.0,6.0,3.746
45.0,7.0,3.747
39.0,5.0,3.748
42.0,2.0,3.749
44.0,1.0,3.75
41.0,4.0,3.751
39.0,4.0,3.752
37.0,0.0,3.753
35.0,-3.0,3.754
33.0,-4.0,3.755
32.0,-4.0,3.756
33.0,-3.0,3.757
32.0,-4.0,3.758
21.0,0.0,3.759
15.0,1.0,3.76
13.0,-2.0,3.761
8.0,-4.0,3.762
5.0,-4.0,3.763
10.0,0.0,3.764
9.0,7.0,3.765
-1.0,11.0,3.766
-5.0,11.0,3.767
-2.0,9.0,3.768
-3.0,7.0,3.769
-6.0,4.0,3.77
-7.0,1.0,3.771
-1.0,-1.0,3.772
1.0,-3.0,3.773
-5.0,-2.0,3.774
-9.0,-2.0,3.775
-8.0,-2.0,3.776
-6.0,0.0,3.777
-7.0,0.0,3.778
-8.0,-2.0,3.779
-8.0,-6.0,3.78
-9.0,-10.0,3.781
-7.0,-9.0,3.782
0.0,-4.0,3.783
9.0,0.0,3.784
6.0,4.0,3.785
-5.0,7.0,3.786
-11.0,8.0,3.787
-7.0,3.0,3.788
-3.0,-2.0,3.789
-5.0,-1.0,3.79
-5.0,1.0,3.791
-3.0,-1.0,3.792
-2.0,-3.0,3.793
-1.0,-4.0,3.794
0.0,-1.0,3.795
4.0,0.0,3.796
7.0,1.0,3.797
6.0,-2.0,3.798
7.0,-8.0,3.799
7.0,-12.0,3.8
3.0,-10.0,3.801
-1.0,-4.0,3.802
1.0,0.0,3.803
9.0,2.0,3.804
13.0,5.0,3.805
5.0,9.0,3.806
-2.0,8.0,3.807
-3.0,2.0,3.808
1.0,0.0,3.809
1.0,3.0,3.81
-1.0,7.0,3.811
0.0,6.0,3.812
0.0,1.0,3.813
-2.0,-1.0,3.814
-2.0,-2.0,3.815
0.0,-3.0,3.816
4.0,-1.0,3.817
2.0,-2.0,3.818
-3.0,-1.0,3.819
-6.0,-2.0,3.82
-6.0,-6.0,3.821
-4.0,-5.0,3.822
0.0,-1.0,3.823
9.0,4.0,3.824
12.0,9.0,3.825
6.0,10.0,3.826
-1.0,6.0,3.827
0.0,1.0,3.828
1.0,-1.0,3.829
1.0,2.0,3.83
0.0,3.0,3.831
4.0,0.0,3.832
8.0,-5.0,3.833
7.0,-6.0,3.834
5.0,-7.0,3.835
6.0,-12.0,3.836
9.0,-18.0,3.837
11.0,-19.0,3.838
11.0,-13.0,3.839
5.0,-7.0,3.84
0.0,-6.0,3.841
-3.0,-5.0,3.842
2.0,-3.0,3.843
9.0,0.0,3.844
9.0,4.0,3.845
2.0,6.0,3.846
-1.0,6.0,3.847
-1.0,2.0,3.848
-3.0,-2.0,3.849
-6.0,-3.0,3.85
-2.0,-4.0,3.851
6.0,-3.0,3.852
12.0,3.0,3.853
9.0,14.0,3.854
5.0,21.0,3.855
7.0,16.0,3.856
12.0,7.0,3.857
9.0,2.0,3.858
6.0,4.0,3.859
0.0,3.0,3.86
-3.0,-6.0,3.861
-4.0,-12.0,3.862
-1.0,-11.0,3.863
2.0,-9.0,3.864
-4.0,-8.0,3.865
-11.0,-5.0,3.866
-9.0,-1.0,3.867
-1.0,2.0,3.868
1.0,2.0,3.869
-3.0,6.0,3.87
-1.0,11.0,3.871
11.0,10.0,3.872
18.0,3.0,3.873
16.0,-4.0,3.874
12.0,-5.0,3.875
13.0,-7.0,3.876
16.0,-10.0,3.877
10.0,-13.0,3.878
2.0,-11.0,3.879
-4.0,-6.0,3.88
-12.0,-3.0,3.881
-18.0,3.0,3.882
-17.0,14.0,3.883
-8.0,23.0,3.884
-8.0,23.0,3.885
-18.0,10.0,3.886
-20.0,-7.0,3.887
-3.0,-25.0,3.888
14.0,-33.0,3.889
5.0,-27.0,3.89
-17.0,-14.0,3.891
-30.0,-6.0,3.892
-29.0,-4.0,3.893
-31.0,1.0,3.894
-39.0,11.0,3.895
-37.0,16.0,3.896
-14.0,10.0,3.897
27.0,-4.0,3.898
76.0,-5.0,3.899
100.0,10.0,3.9
80.0,23.0,3.901
35.0,18.0,3.902
8.0,3.0,3.903
21.0,-2.0,3.904
51.0,1.0,3.905
66.0,4.0,3.906
62.0,0.0,3.907
53.0,-4.0,3.908
45.0,-6.0,3.909
29.0,-4.0,3.91
2.0,0.0,3.911
-28.0,4.0,3.912
-46.0,2.0,3.913
-42.0,-7.0,3.914
-29.0,-12.0,3.915
-20.0,-8.0,3.916
-12.0,-1.0,3.917
5.0,-6.0,3.918
24.0,-13.0,3.919
22.0,-13.0,3.92
-1.0,-10.0,3.921
-20.0,-6.0,3.922
-21.0,-4.0,3.923
-15.0,-2.0,3.924
-16.0,1.0,3.925
-21.0,4.0,3.926
-22.0,7.0,3.927
-21.0,12.0,3.928
-25.0,13.0,3.929
-27.0,11.0,3.93
-26.0,7.0,3.931
-22.0,3.0,3.932
-16.0,-1.0,3.933
-6.0,-5.0,3.934
5.0,-6.0,3.935
14.0,-6.0,3.936
20.0,-5.0,3.937
-8.0,-5.0,3.938
-70.0,-3.0,3.939
-118.0,-2.0,3.94
-132.0,-4.0,3.941
-118.0,-6.0,3.942
-25.0,-6.0,3.943
60.0,-3.0,3.944
132.0,2.0,3.945
180.0,7.0,3.946
152.0,1.0,3.947
116.0,-4.0,3.948
63.0,-11.0,3.949
10.0,-16.0,3.95
-37.0,-14.0,3.951
-70.0,-9.0,3.952
-60.0,4.0,3.953
-39.0,14.0,3.954
10.0,10.0,3.955
20.0,9.0,3.956
-91.0,22.0,3.957
-5.0,38.0,3.958
-41.0,46.0,3.959
-69.0,29.0,3.96
-77.0,4.0,3.961
-69.0,-4.0,3.962
-15.0,0.0,3.963
35.0,-1.0,3.964
77.0,-3.0,3.965
105.0,4.0,3.966
89.0,14.0,3.967
68.0,11.0,3.968
37.0,-3.0,3.969
6.0,-14.0,3.97
-22.0,-15.0,3.971
-41.0,-9.0,3.972
-35.0,-5.0,3.973
-23.0,-5.0,3.974
6.0,-9.0,3.975
12.0,-13.0,3.976
-53.0,-12.0,3.977
-125.0,-12.0,3.978
-153.0,-13.0,3.979
-67.0,-16.0,3.98
33.0,-19.0,3.981
50.0,-14.0,3.982
23.0,-8.0,3.983
21.0,-4.0,3.984
25.0,-3.0,3.985
-6.0,-3.0,3.986
-38.0,-4.0,3.987
-25.0,-3.0,3.988
0.0,-1.0,3.989
-2.0,-2.0,3.99
-11.0,-10.0,3.991
4.0,-14.0,3.992
17.0,-10.0,3.993
5.0,-1.0,3.994
-3.0,2.0,3.995
14.0,0.0,3.996
28.0,3.0,3.997
17.0,10.0,3.998
6.0,15.0,3.999
13.0,13.0,4.0
17.0,9.0,4.001
1.0,9.0,4.002
-5.0,7.0,4.003
11.0,3.0,4.004
16.0,2.0,4.005
-8.0,4.0,4.006
-26.0,0.0,4.007
-16.0,-10.0,4.008
7.0,-19.0,4.009
25.0,-25.0,4.01
48.0,-29.0,4.011
75.0,-33.0,4.012
84.0,-25.0,4.013
74.0,-5.0,4.014
59.0,14.0,4.015
38.0,26.0,4.016
6.0,31.0,4.017
-35.0,33.0,4.018
-58.0,30.0,4.019
-62.0,22.0,4.02
-61.0,16.0,4.021
-49.0,24.0,4.022
-16.0,32.0,4.023
12.0,29.0,4.024
-10.0,18.0,4.025
-62.0,11.0,4.026
-79.0,9.0,4.027
-35.0,3.0,4.028
35.0,-3.0,4.029
96.0,-5.0,4.03
136.0,-5.0,4.031
154.0,-9.0,4.032
133.0,-15.0,4.033
80.0,-17.0,4.034
37.0,-14.0,4.035
26.0,-13.0,4.036
20.0,-14.0,4.037
-36.0,-16.0,4.038
-126.0,-16.0,4.039
-175.0,-14.0,4.04
-140.0,-17.0,4.041
-74.0,-14.0,4.042
-57.0,-9.0,4.043
-79.0,-5.0,4.044
-75.0,-4.0,4.045
-36.0,-3.0,4.046
-8.0,-3.0,4.047
-8.0,-6.0,4.048
-5.0,-5.0,4.049
13.0,-2.0,4.05
23.0,1.0,4.051
15.0,2.0,4.052
16.0,2.0,4.053
28.0,2.0,4.054
30.0,0.0,4.055
20.0,-2.0,4.056
21.0,-3.0,4.057
33.0,-2.0,4.058
34.0,-3.0,4.059
21.0,-6.0,4.06
15.0,-6.0,4.061
19.0,-3.0,4.062
23.0,0.0,4.063
22.0,2.0,4.064
23.0,6.0,4.065
23.0,11.0,4.066
16.0,11.0,4.067
6.0,5.0,4.068
6.0,2.0,4.069
13.0,4.0,4.07
12.0,3.0,4.071
9.0,-2.0,4.072
10.0,-4.0,4.073
14.0,-1.0,4.074
15.0,1.0,4.075
15.0,-3.0,4.076
16.0,-4.0,4.077
16.0,-4.0,4.078
12.0,-2.0,4.079
6.0,0.0,4.08
4.0,-1.0,4.081
0.0,0.0,4.082
-2.0,4.0,4.083
0.0,8.0,4.084
2.0,10.0,4.085
-3.0,10.0,4.086
-13.0,8.0,4.087
-13.0,5.0,4.088
-6.0,2.0,4.089
-4.0,3.0,4.09
-10.0,1.0,4.091
-11.0,-2.0,4.092
-4.0,-2.0,4.093
0.0,0.0,4.094
-1.0,0.0,4.095
1.0,-4.0,4.096
9.0,-8.0,4.097
11.0,-5.0,4.098
7.0,-1.0,4.099
2.0,1.0,4.1
2.0,-2.0,4.101
0.0,-4.0,4.102
-2.0,-2.0,4.103
-1.0,0.0,4.104
2.0,1.0,4.105
1.0,2.0,4.106
-4.0,1.0,4.107
-5.0,0.0,4.108
-2.0,-1.0,4.109
-1.0,-4.0,4.11
0.0,-6.0,4.111
5.0,-11.0,4.112
11.0,-15.0,4.113
12.0,-19.0,4.114
5.0,-17.0,4.115
1.0,-16.0,4.116
4.0,-14.0,4.117
7.0,-4.0,4.118
2.0,0.0,4.119
-8.0,2.0,4.12
-12.0,-1.0,4.121
-7.0,-3.0,4.122
2.0,-1.0,4.123
7.0,1.0,4.124
-1.0,2.0,4.125
-20.0,3.0,4.126
-38.0,2.0,4.127
-41.0,1.0,4.128
-23.0,0.0,4.129
0.0,-3.0,4.13
15.0,-7.0,4.131
25.0,-12.0,4.132
34.0,-16.0,4.133
42.0,-20.0,4.134
41.0,-18.0,4.135
34.0,-17.0,4.136
30.0,-15.0,4.137
25.0,-12.0,4.138
14.0,2.0,4.139
3.0,24.0,4.14
-2.0,36.0,4.141
-5.0,37.0,4.142
1.0,24.0,4.143
6.0,8.0,4.144
4.0,3.0,4.145
2.0,8.0,4.146
0.0,9.0,4.147
-3.0,3.0,4.148
-12.0,-3.0,4.149
-24.0,-3.0,4.15
-44.0,-5.0,4.151
-58.0,-11.0,4.152
-51.0,-15.0,4.153
-33.0,-12.0,4.154
19.0,-8.0,4.155
55.0,-11.0,4.156
44.0,-13.0,4.157
28.0,-13.0,4.158
12.0,-10.0,4.159
19.0,-9.0,4.16
34.0,-12.0,4.161
38.0,-9.0,4.162
40.0,-4.0,4.163
34.0,-1.0,4.164
11.0,0.0,4.165
-20.0,1.0,4.166
-27.0,3.0,4.167
-13.0,2.0,4.168
-8.0,0.0,4.169
-19.0,0.0,4.17
-20.0,-2.0,4.171
-2.0,-4.0,4.172
14.0,-3.0,4.173
12.0,-1.0,4.174
7.0,-2.0,4.175
8.0,-5.0,4.176
7.0,-5.0,4.177
-9.0,-4.0,4.178
-22.0,-2.0,4.179
-27.0,-2.0,4.18
-25.0,-3.0,4.181
-22.0,-2.0,4.182
-12.0,0.0,4.183
2.0,3.0,4.184
6.0,11.0,4.185
-1.0,17.0,4.186
-4.0,14.0,4.187
-3.0,6.0,4.188
-2.0,1.0,4.189
-5.0,5.0,4.19
-4.0,8.0,4.191
3.0,5.0,4.192
9.0,1.0,4.193
8.0,2.0,4.194
7.0,5.0,4.195
11.0,5.0,4.196
13.0,2.0,4.197
13.0,-2.0,4.198
12.0,0.0,4.199
10.0,2.0,4.2
7.0,3.0,4.201
4.0,5.0,4.202
8.0,7.0,4.203
14.0,7.0,4.204
15.0,5.0,4.205
7.0,7.0,4.206
2.0,12.0,4.207
4.0,11.0,4.208
6.0,5.0,4.209
1.0,-2.0,4.21
-1.0,-2.0,4.211
2.0,-2.0,4.212
7.0,-4.0,4.213
7.0,-7.0,4.214
6.0,-7.0,4.215
8.0,-8.0,4.216
8.0,-9.0,4.217
1.0,-10.0,4.218
-2.0,-9.0,4.219
0.0,-8.0,4.22
2.0,-8.0,4.221
4.0,-8.0,4.222
9.0,-2.0,4.223
14.0,2.0,4.224
13.0,2.0,4.225
2.0,2.0,4.226
-9.0,0.0,4.227
-13.0,-1.0,4.228
-9.0,-1.0,4.229
-5.0,-1.0,4.23
-1.0,-2.0,4.231
2.0,-4.0,4.232
2.0,-4.0,4.233
0.0,-4.0,4.234
1.0,-6.0,4.235
6.0,-8.0,4.236
12.0,-6.0,4.237
11.0,-3.0,4.238
8.0,-2.0,4.239
2.0,-3.0,4.24
-3.0,-7.0,4.241
-7.0,-6.0,4.242
-5.0,0.0,4.243
0.0,6.0,4.244
4.0,7.0,4.245
3.0,6.0,4.246
3.0,7.0,4.247
6.0,6.0,4.248
3.0,4.0,4.249
-4.0,0.0,4.25
-7.0,0.0,4.251
0.0,-1.0,4.252
6.0,-4.0,4.253
4.0,-4.0,4.254
-5.0,-4.0,4.255
-7.0,-3.0,4.256
-2.0,-5.0,4.257
0.0,-10.0,4.258
-1.0,-11.0,4.259
-3.0,-9.0,4.26
-2.0,-7.0,4.261
1.0,2.0,4.262
5.0,14.0,4.263
8.0,16.0,4.264
8.0,9.0,4.265
4.0,5.0,4.266
2.0,9.0,4.267
3.0,18.0,4.268
5.0,21.0,4.269
4.0,17.0,4.27
2.0,12.0,4.271
3.0,6.0,4.272
7.0,0.0,4.273
6.0,-7.0,4.274
6.0,-12.0,4.275
10.0,-17.0,4.276
14.0,-20.0,4.277
14.0,-21.0,4.278
9.0,-17.0,4.279
2.0,-13.0,4.28
-4.0,-14.0,4.281
-7.0,-17.0,4.282
-2.0,-15.0,4.283
7.0,-10.0,4.284
10.0,-5.0,4.285
3.0,-3.0,4.286
-6.0,1.0,4.287
-7.0,3.0,4.288
-4.0,5.0,4.289
-3.0,5.0,4.29
-2.0,3.0,4.291
0.0,0.0,4.292
5.0,-4.0,4.293
5.0,-6.0,4.294
4.0,-5.0,4.295
8.0,-4.0,4.296
13.0,-1.0,4.297
12.0,2.0,4.298
7.0,6.0,4.299
3.0,9.0,4.3
4.0,6.0,4.301
4.0,3.0,4.302
3.0,7.0,4.303
3.0,10.0,4.304
1.0,12.0,4.305
-4.0,14.0,4.306
-7.0,10.0,4.307
-4.0,7.0,4.308
-3.0,11.0,4.309
-7.0,12.0,4.31
-9.0,6.0,4.311
-6.0,0.0,4.312
-2.0,-5.0,4.313
0.0,-10.0,4.314
5.0,-11.0,4.315
13.0,-11.0,4.316
15.0,-9.0,4.317
9.0,-5.0,4.318
3.0,5.0,4.319
4.0,19.0,4.32
2.0,35.0,4.321
-6.0,50.0,4.322
-8.0,62.0,4.323
4.0,64.0,4.324
12.0,53.0,4.325
1.0,23.0,4.326
-10.0,-14.0,4.327
-7.0,-36.0,4.328
6.0,-30.0,4.329
8.0,-10.0,4.33
1.0,3.0,4.331
1.0,7.0,4.332
12.0,19.0,4.333
18.0,71.0,4.334
14.0,163.0,4.335
9.0,226.0,4.336
11.0,195.0,4.337
13.0,54.0,4.338
8.0,-115.0,4.339
2.0,-246.0,4.34
-1.0,-339.0,4.341
-1.0,-394.0,4.342
3.0,-379.0,4.343
9.0,-260.0,4.344
10.0,-61.0,4.345
2.0,169.0,4.346
-5.0,392.0,4.347
-7.0,545.0,4.348
-4.0,544.0,4.349
-3.0,373.0,4.35
-2.0,113.0,4.351
1.0,-146.0,4.352
5.0,-379.0,4.353
8.0,-557.0,4.354
15.0,-611.0,4.355
21.0,-525.0,4.356
25.0,-396.0,4.357
21.0,-303.0,4.358
18.0,-236.0,4.359
14.0,-149.0,4.36
8.0,-48.0,4.361
4.0,36.0,4.362
6.0,102.0,4.363
7.0,173.0,4.364
2.0,231.0,4.365
-3.0,256.0,4.366
-9.0,264.0,4.367
-17.0,273.0,4.368
-26.0,262.0,4.369
-34.0,214.0,4.37
-39.0,151.0,4.371
-41.0,103.0,4.372
-32.0,63.0,4.373
-22.0,20.0,4.374
-11.0,-6.0,4.375
0.0,-4.0,4.376
6.0,3.0,4.377
13.0,-7.0,4.378
11.0,-20.0,4.379
5.0,-23.0,4.38
-1.0,6.0,4.381
-7.0,32.0,4.382
-7.0,48.0,4.383
-3.0,62.0,4.384
-4.0,70.0,4.385
-5.0,113.0,4.386
3.0,260.0,4.387
20.0,406.0,4.388
30.0,550.0,4.389
25.0,593.0,4.39
16.0,335.0,4.391
8.0,70.0,4.392
-4.0,-216.0,4.393
-17.0,-454.0,4.394
-15.0,-546.0,4.395
0.0,-586.0,4.396
14.0,-469.0,4.397
11.0,-355.0,4.398
4.0,-297.0,4.399
6.0,-288.0,4.4
15.0,-265.0,4.401
26.0,-225.0,4.402
34.0,-190.0,4.403
38.0,-127.0,4.404
31.0,12.0,4.405
17.0,195.0,4.406
10.0,343.0,4.407
8.0,440.0,4.408
1.0,533.0,4.409
-15.0,615.0,4.41
-33.0,580.0,4.411
-45.0,361.0,4.412
-48.0,22.0,4.413
-38.0,-302.0,4.414
-10.0,-536.0,4.415
20.0,-676.0,4.416
34.0,-717.0,4.417
31.0,-656.0,4.418
30.0,-500.0,4.419
27.0,-299.0,4.42
18.0,-111.0,4.421
12.0,26.0,4.422
22.0,93.0,4.423
36.0,119.0,4.424
32.0,151.0,4.425
13.0,204.0,4.426
4.0,266.0,4.427
10.0,356.0,4.428
12.0,523.0,4.429
5.0,757.0,4.43
0.0,938.0,4.431
1.0,907.0,4.432
-5.0,609.0,4.433
-19.0,147.0,4.434
-24.0,-305.0,4.435
-10.0,-620.0,4.436
12.0,-766.0,4.437
18.0,-776.0,4.438
9.0,-673.0,4.439
-6.0,-509.0,4.44
-19.0,-363.0,4.441
-28.0,-274.0,4.442
-36.0,-226.0,4.443
-39.0,-170.0,4.444
-43.0,-68.0,4.445
-53.0,115.0,4.446
-61.0,385.0,4.447
-57.0,670.0,4.448
-39.0,877.0,4.449
-24.0,1014.0,4.45
-16.0,1151.0,4.451
-5.0,1220.0,4.452
14.0,1012.0,4.453
33.0,447.0,4.454
42.0,-223.0,4.455
49.0,-620.0,4.456
60.0,-618.0,4.457
66.0,1166.0,4.458
60.0,26.0,4.459
42.0,-904.0,4.46
27.0,-1205.0,4.461
20.0,-1370.0,4.462
21.0,-1120.0,4.463
24.0,-832.0,4.464
26.0,-432.0,4.465
33.0,-93.0,4.466
48.0,59.0,4.467
69.0,215.0,4.468
73.0,377.0,4.469
51.0,534.0,4.47
19.0,669.0,4.471
5.0,780.0,4.472
14.0,811.0,4.473
19.0,855.0,4.474
2.0,944.0,4.475
-27.0,1170.0,4.476
-44.0,1799.0,4.477
-174.0,686.0,4.478
-84.0,96.0,4.479
-13.0,-385.0,4.48
1.0,-541.0,4.481
17.0,-626.0,4.482
41.0,-497.0,4.483
55.0,-348.0,4.484
47.0,-141.0,4.485
42.0,34.0,4.486
45.0,113.0,4.487
52.0,194.0,4.488
78.0,278.0,4.489
99.0,359.0,4.49
103.0,429.0,4.491
106.0,486.0,4.492
106.0,502.0,4.493
107.0,525.0,4.494
112.0,571.0,4.495
111.0,688.0,4.496
85.0,1013.0,4.497
-177.0,1349.0,4.498
-86.0,1623.0,4.499
-14.0,1631.0,4.5
0.0,1313.0,4.501
16.0,711.0,4.502
40.0,-82.0,4.503
56.0,-915.0,4.504
48.0,-1585.0,4.505
41.0,-1889.0,4.506
44.0,-1761.0,4.507
53.0,-1360.0,4.508
79.0,-954.0,4.509
100.0,-691.0,4.51
104.0,-542.0,4.511
107.0,-432.0,4.512
107.0,-332.0,4.513
108.0,-213.0,4.514
113.0,-48.0,4.515
112.0,131.0,4.516
86.0,255.0,4.517
51.0,351.0,4.518
-7.0,500.0,4.519
-60.0,708.0,4.52
-84.0,889.0,4.521
-77.0,1045.0,4.522
-54.0,1301.0,4.523
-34.0,1679.0,4.524
-25.0,1970.0,4.525
-27.0,1936.0,4.526
-34.0,1565.0,4.527
-38.0,958.0,4.528
-27.0,128.0,4.529
-6.0,-898.0,4.53
10.0,-1874.0,4.531
16.0,-2484.0,4.532
27.0,-2673.0,4.533
51.0,-2604.0,4.534
71.0,-2334.0,4.535
70.0,-1782.0,4.536
67.0,-1090.0,4.537
82.0,-499.0,4.538
79.0,-227.0,4.539
17.0,-134.0,4.54
-71.0,65.0,4.541
-106.0,438.0,4.542
-59.0,855.0,4.543
0.0,1219.0,4.544
6.0,1468.0,4.545
-18.0,1437.0,4.546
-21.0,958.0,4.547
-7.0,147.0,4.548
-6.0,-582.0,4.549
-8.0,-886.0,4.55
26.0,-777.0,4.551
85.0,-529.0,4.552
123.0,-388.0,4.553
128.0,-438.0,4.554
128.0,-606.0,4.555
128.0,-712.0,4.556
112.0,-623.0,4.557
66.0,-356.0,4.558
16.0,-92.0,4.559
-26.0,48.0,4.56
-56.0,141.0,4.561
-71.0,306.0,4.562
-86.0,511.0,4.563
-128.0,659.0,4.564
-189.0,760.0,4.565
-207.0,896.0,4.566
-154.0,1075.0,4.567
-95.0,1260.0,4.568
-85.0,1491.0,4.569
-92.0,1820.0,4.57
-64.0,2078.0,4.571
-17.0,1918.0,4.572
10.0,1228.0,4.573
29.0,376.0,4.574
61.0,-151.0,4.575
88.0,-266.0,4.576
81.0,-253.0,4.577
62.0,-330.0,4.578
75.0,-550.0,4.579
98.0,-1046.0,4.58
77.0,-1950.0,4.581
16.0,-2958.0,4.582
-28.0,-3404.0,4.583
-39.0,-2981.0,4.584
-59.0,-2079.0,4.585
-101.0,-1237.0,4.586
-122.0,-596.0,4.587
-93.0,-96.0,4.588
-46.0,223.0,4.589
-31.0,349.0,4.59
-41.0,466.0,4.591
-39.0,708.0,4.592
-17.0,961.0,4.593
15.0,1091.0,4.594
52.0,1173.0,4.595
92.0,1335.0,4.596
118.0,1543.0,4.597
123.0,1703.0,4.598
127.0,1735.0,4.599
144.0,1589.0,4.6
164.0,1212.0,4.601
166.0,580.0,4.602
155.0,-270.0,4.603
137.0,-1164.0,4.604
93.0,-1754.0,4.605
16.0,-1708.0,4.606
-61.0,-1054.0,4.607
-111.0,-221.0,4.608
-142.0,387.0,4.609
-162.0,685.0,4.61
-149.0,731.0,4.611
-100.0,497.0,4.612
-67.0,-1.0,4.613
-78.0,-523.0,4.614
-85.0,-782.0,4.615
-43.0,-716.0,4.616
4.0,-470.0,4.617
-5.0,-111.0,4.618
-37.0,281.0,4.619
-23.0,543.0,4.62
33.0,524.0,4.621
56.0,288.0,4.622
34.0,11.0,4.623
30.0,-268.0,4.624
63.0,-629.0,4.625
86.0,-997.0,4.626
78.0,-1121.0,4.627
76.0,-881.0,4.628
92.0,-426.0,4.629
90.0,79.0,4.63
55.0,645.0,4.631
30.0,1298.0,4.632
47.0,1913.0,4.633
77.0,2321.0,4.634
68.0,2448.0,4.635
21.0,2188.0,4.636
-21.0,1428.0,4.637
-33.0,26.0,4.638
-29.0,-1601.0,4.639
-52.0,-2781.0,4.64
-103.0,-3029.0,4.641
-134.0,-2323.0,4.642
-105.0,-1060.0,4.643
-49.0,169.0,4.644
-23.0,908.0,4.645
-23.0,1074.0,4.646
-6.0,881.0,4.647
21.0,497.0,4.648
23.0,-78.0,4.649
6.0,-805.0,4.65
14.0,-1466.0,4.651
24.0,-1858.0,4.652
-27.0,-1943.0,4.653
-129.0,-1778.0,4.654
-189.0,-1389.0,4.655
-150.0,-802.0,4.656
-63.0,-152.0,4.657
9.0,503.0,4.658
59.0,1003.0,4.659
103.0,1216.0,4.66
123.0,1118.0,4.661
122.0,831.0,4.662
60.0,504.0,4.663
1.0,185.0,4.664
-51.0,-142.0,4.665
-81.0,-423.0,4.666
-47.0,-505.0,4.667
-18.0,-282.0,4.668
-3.0,178.0,4.669
15.0,669.0,4.67
44.0,984.0,4.671
64.0,1045.0,4.672
52.0,916.0,4.673
46.0,681.0,4.674
61.0,348.0,4.675
76.0,-60.0,4.676
88.0,-393.0,4.677
101.0,-503.0,4.678
111.0,-335.0,4.679
96.0,-36.0,4.68
49.0,203.0,4.681
-3.0,343.0,4.682
-33.0,428.0,4.683
-48.0,471.0,4.684
-69.0,452.0,4.685
-94.0,395.0,4.686
-107.0,337.0,4.687
-104.0,296.0,4.688
-85.0,263.0,4.689
-53.0,244.0,4.69
-13.0,233.0,4.691
22.0,215.0,4.692
47.0,216.0,4.693
62.0,287.0,4.694
71.0,413.0,4.695
72.0,519.0,4.696
55.0,598.0,4.697
9.0,761.0,4.698
-48.0,1054.0,4.699
-73.0,1288.0,4.7
-41.0,1133.0,4.701
19.0,415.0,4.702
50.0,-723.0,4.703
33.0,-1915.0,4.704
-2.0,-2759.0,4.705
-22.0,-2980.0,4.706
-21.0,-2561.0,4.707
-21.0,-1757.0,4.708
-43.0,-935.0,4.709
-92.0,-289.0,4.71
-143.0,257.0,4.711
-157.0,846.0,4.712
-117.0,1440.0,4.713
-38.0,1882.0,4.714
41.0,2099.0,4.715
93.0,2047.0,4.716
111.0,1558.0,4.717
103.0,293.0,4.718
83.0,-1483.0,4.719
60.0,-2882.0,4.72
46.0,-3135.0,4.721
56.0,-2385.0,4.722
103.0,-1418.0,4.723
163.0,-772.0,4.724
187.0,-437.0,4.725
142.0,-218.0,4.726
47.0,20.0,4.727
-51.0,392.0,4.728
-118.0,887.0,4.729
-150.0,1254.0,4.73
-159.0,1264.0,4.731
-158.0,1026.0,4.732
-142.0,824.0,4.733
-106.0,784.0,4.734
-54.0,863.0,4.735
-7.0,988.0,4.736
23.0,1033.0,4.737
43.0,864.0,4.738
66.0,552.0,4.739
85.0,297.0,4.74
88.0,32.0,4.741
79.0,-551.0,4.742
69.0,-1441.0,4.743
62.0,-2130.0,4.744
56.0,-2213.0,4.745
50.0,-1825.0,4.746
41.0,-1316.0,4.747
28.0,-818.0,4.748
24.0,-342.0,4.749
35.0,32.0,4.75
30.0,256.0,4.751
-21.0,410.0,4.752
-91.0,544.0,4.753
-118.0,625.0,4.754
-94.0,695.0,4.755
-65.0,871.0,4.756
-56.0,1109.0,4.757
-39.0,1224.0,4.758
3.0,1063.0,4.759
26.0,681.0,4.76
-1.0,240.0,4.761
-37.0,-98.0,4.762
-30.0,-186.0,4.763
9.0,44.0,4.764
34.0,461.0,4.765
51.0,805.0,4.766
77.0,916.0,4.767
99.0,801.0,4.768
82.0,546.0,4.769
51.0,245.0,4.77
35.0,-39.0,4.771
4.0,-348.0,4.772
-83.0,-759.0,4.773
-181.0,-1145.0,4.774
-195.0,-1145.0,4.775
-120.0,-590.0,4.776
-55.0,130.0,4.777
-50.0,515.0,4.778
-71.0,480.0,4.779
-65.0,405.0,4.78
-30.0,211.0,4.781
18.0,42.0,4.782
72.0,-52.0,4.783
114.0,-52.0,4.784
122.0,236.0,4.785
109.0,311.0,4.786
109.0,-256.0,4.787
115.0,-871.0,4.788
98.0,-1629.0,4.789
73.0,-2115.0,4.79
86.0,-1778.0,4.791
134.0,-1371.0,4.792
158.0,-756.0,4.793
123.0,-270.0,4.794
66.0,-173.0,4.795
31.0,-86.0,4.796
21.0,-32.0,4.797
11.0,31.0,4.798
-19.0,100.0,4.799
-83.0,153.0,4.8
-168.0,259.0,4.801
-225.0,461.0,4.802
-206.0,718.0,4.803
-142.0,967.0,4.804
-105.0,1192.0,4.805
-103.0,1418.0,4.806
-73.0,1630.0,4.807
12.0,1731.0,4.808
88.0,1596.0,4.809
100.0,1191.0,4.81
75.0,688.0,4.811
64.0,379.0,4.812
44.0,386.0,4.813
-21.0,481.0,4.814
-101.0,339.0,4.815
-122.0,-90.0,4.816
-72.0,-594.0,4.817
-12.0,-1148.0,4.818
14.0,-1746.0,4.819
33.0,-2172.0,4.82
26.0,-2055.0,4.821
13.0,-1397.0,4.822
-19.0,-719.0,4.823
-56.0,-443.0,4.824
-109.0,-368.0,4.825
-139.0,-9.0,4.826
-97.0,711.0,4.827
-64.0,1323.0,4.828
-60.0,1330.0,4.829
-43.0,720.0,4.83
13.0,-70.0,4.831
71.0,-627.0,4.832
132.0,-901.0,4.833
173.0,-1019.0,4.834
154.0,-925.0,4.835
139.0,-514.0,4.836
137.0,-50.0,4.837
133.0,193.0,4.838
121.0,570.0,4.839
92.0,839.0,4.84
61.0,779.0,4.841
59.0,644.0,4.842
95.0,285.0,4.843
126.0,-29.0,4.844
94.0,-211.0,4.845
12.0,-389.0,4.846
-64.0,-553.0,4.847
-111.0,-673.0,4.848
-142.0,-659.0,4.849
-152.0,-638.0,4.85
-115.0,-601.0,4.851
-51.0,-508.0,4.852
-22.0,-256.0,4.853
-41.0,-16.0,4.854
-61.0,186.0,4.855
-38.0,367.0,4.856
6.0,482.0,4.857
34.0,622.0,4.858
38.0,1800.0,4.859
44.0,2640.0,4.86
56.0,2453.0,4.861
71.0,2032.0,4.862
99.0,910.0,4.863
117.0,-71.0,4.864
105.0,-640.0,4.865
86.0,-1197.0,4.866
48.0,-1710.0,4.867
2.0,-2085.0,4.868
-69.0,-2039.0,4.869
-133.0,-1975.0,4.87
-173.0,-1858.0,4.871
-195.0,-1570.0,4.872
-163.0,-782.0,4.873
-130.0,-31.0,4.874
-95.0,601.0,4.875
-61.0,1166.0,4.876
-35.0,1525.0,4.877
-20.0,294.0,4.878
-45.0,859.0,4.879
-33.0,1262.0,4.88
24.0,1172.0,4.881
80.0,970.0,4.882
114.0,432.0,4.883
141.0,-39.0,4.884
155.0,-312.0,4.885
127.0,-579.0,4.886
72.0,-825.0,4.887
43.0,-1005.0,4.888
55.0,-983.0,4.889
72.0,-952.0,4.89
66.0,-896.0,4.891
50.0,-758.0,4.892
39.0,-380.0,4.893
23.0,-20.0,4.894
-12.0,284.0,4.895
-65.0,555.0,4.896
-117.0,727.0,4.897
-157.0,893.0,4.898
-164.0,1061.0,4.899
-155.0,1361.0,4.9
-172.0,1766.0,4.901
-215.0,2048.0,4.902
-214.0,2034.0,4.903
-120.0,1827.0,4.904
10.0,1527.0,4.905
84.0,897.0,4.906
94.0,-405.0,4.907
109.0,-2186.0,4.908
151.0,-3576.0,4.909
179.0,-3770.0,4.91
177.0,-2797.0,4.911
172.0,-1393.0,4.912
157.0,-200.0,4.913
103.0,629.0,4.914
35.0,1127.0,4.915
13.0,1186.0,4.916
36.0,736.0,4.917
34.0,-174.0,4.918
-21.0,-1154.0,4.919
-75.0,-1864.0,4.92
-69.0,-1764.0,4.921
-21.0,-1506.0,4.922
21.0,-775.0,4.923
44.0,-85.0,4.924
58.0,479.0,4.925
63.0,1014.0,4.926
58.0,1460.0,4.927
53.0,1777.0,4.928
57.0,1707.0,4.929
58.0,1559.0,4.93
30.0,1177.0,4.931
-49.0,715.0,4.932
-163.0,10.0,4.933
-240.0,-484.0,4.934
-217.0,-345.0,4.935
-124.0,-347.0,4.936
-54.0,-778.0,4.937
-32.0,-1232.0,4.938
-5.0,-1484.0,4.939
56.0,-1187.0,4.94
100.0,-620.0,4.941
72.0,-95.0,4.942
8.0,263.0,4.943
-22.0,464.0,4.944
0.0,589.0,4.945
32.0,735.0,4.946
34.0,932.0,4.947
2.0,1132.0,4.948
-43.0,1302.0,4.949
-71.0,1418.0,4.95
-67.0,1407.0,4.951
-43.0,1199.0,4.952
-16.0,783.0,4.953
21.0,138.0,4.954
71.0,-800.0,4.955
102.0,-1869.0,4.956
96.0,-2515.0,4.957
70.0,-2285.0,4.958
65.0,-1268.0,4.959
76.0,-164.0,4.96
65.0,429.0,4.961
22.0,581.0,4.962
-25.0,688.0,4.963
-63.0,869.0,4.964
-86.0,839.0,4.965
-96.0,333.0,4.966
-93.0,-510.0,4.967
-72.0,-1182.0,4.968
-30.0,-1218.0,4.969
12.0,-601.0,4.97
15.0,253.0,4.971
-34.0,944.0,4.972
-88.0,1409.0,4.973
-86.0,1763.0,4.974
-29.0,1987.0,4.975
29.0,1920.0,4.976
56.0,1509.0,4.977
67.0,690.0,4.978
72.0,-455.0,4.979
61.0,-1617.0,4.98
42.0,-2247.0,4.981
58.0,-2010.0,4.982
127.0,-1269.0,4.983
205.0,-775.0,4.984
226.0,-828.0,4.985
186.0,-1052.0,4.986
126.0,-1027.0,4.987
68.0,-807.0,4.988
-3.0,-643.0,4.989
-84.0,-551.0,4.99
-132.0,-392.0,4.991
-122.0,-164.0,4.992
-79.0,70.0,4.993
-43.0,407.0,4.994
-37.0,923.0,4.995
-64.0,1386.0,4.996
-108.0,1481.0,4.997
-142.0,1211.0,4.998
-121.0,883.0,4.999
-46.0,532.0,5.0
30.0,117.0,5.001
49.0,-294.0,5.002
9.0,-694.0,5.003
-50.0,-944.0,5.004
-92.0,-744.0,5.005
-94.0,-510.0,5.006
-54.0,-172.0,5.007
4.0,107.0,5.008
50.0,214.0,5.009
67.0,271.0,5.01
63.0,175.0,5.011
38.0,126.0,5.012
-18.0,221.0,5.013
-95.0,335.0,5.014
-133.0,505.0,5.015
-93.0,618.0,5.016
-16.0,557.0,5.017
40.0,474.0,5.018
51.0,375.0,5.019
51.0,354.0,5.02
69.0,288.0,5.021
91.0,106.0,5.022
99.0,-90.0,5.023
95.0,-143.0,5.024
72.0,-26.0,5.025
25.0,144.0,5.026
-18.0,229.0,5.027
-14.0,200.0,5.028
29.0,160.0,5.029
59.0,220.0,5.03
55.0,342.0,5.031
51.0,349.0,5.032
63.0,85.0,5.033
62.0,-451.0,5.034
32.0,-1085.0,5.035
6.0,-1524.0,5.036
12.0,-1540.0,5.037
26.0,-1028.0,5.038
17.0,-433.0,5.039
-26.0,-32.0,5.04
-89.0,173.0,5.041
-147.0,324.0,5.042
-159.0,434.0,5.043
-102.0,413.0,5.044
-25.0,274.0,5.045
11.0,147.0,5.046
4.0,78.0,5.047
16.0,2.0,5.048
48.0,-76.0,5.049
51.0,17.0,5.05
18.0,412.0,5.051
8.0,949.0,5.052
35.0,1224.0,5.053
52.0,976.0,5.054
50.0,370.0,5.055
72.0,-177.0,5.056
114.0,-465.0,5.057
121.0,-755.0,5.058
77.0,-1300.0,5.059
36.0,-1918.0,5.06
28.0,-2092.0,5.061
18.0,-1615.0,5.062
-29.0,-870.0,5.063
-86.0,-334.0,5.064
-113.0,-36.0,5.065
-100.0,272.0,5.066
-56.0,645.0,5.067
-2.0,897.0,5.068
7.0,949.0,5.069
-54.0,930.0,5.07
-142.0,916.0,5.071
-183.0,834.0,5.072
-169.0,654.0,5.073
-135.0,507.0,5.074
-88.0,488.0,5.075
-17.0,502.0,5.076
47.0,420.0,5.077
71.0,275.0,5.078
68.0,225.0,5.079
79.0,210.0,5.08
103.0,306.0,5.081
112.0,322.0,5.082
106.0,98.0,5.083
111.0,-86.0,5.084
112.0,-147.0,5.085
78.0,-279.0,5.086
5.0,-620.0,5.087
-73.0,-990.0,5.088
-114.0,-1447.0,5.089
-92.0,-1613.0,5.09
-23.0,-901.0,5.091
29.0,-303.0,5.092
13.0,-51.0,5.093
-36.0,140.0,5.094
-38.0,146.0,5.095
23.0,202.0,5.096
74.0,402.0,5.097
74.0,601.0,5.098
53.0,786.0,5.099
45.0,941.0,5.1
30.0,1074.0,5.101
-11.0,1206.0,5.102
-44.0,1252.0,5.103
-28.0,979.0,5.104
15.0,257.0,5.105
42.0,-658.0,5.106
48.0,-1244.0,5.107
51.0,-1199.0,5.108
51.0,-700.0,5.109
46.0,-196.0,5.11
45.0,-2.0,5.111
47.0,-127.0,5.112
21.0,-389.0,5.113
-42.0,-594.0,5.114
-102.0,-590.0,5.115
-117.0,-297.0,5.116
-90.0,152.0,5.117
-65.0,552.0,5.118
-60.0,527.0,5.119
-63.0,257.0,5.12
-57.0,76.0,5.121
-40.0,95.0,5.122
-15.0,127.0,5.123
16.0,70.0,5.124
48.0,89.0,5.125
72.0,277.0,5.126
86.0,408.0,5.127
97.0,232.0,5.128
102.0,-182.0,5.129
86.0,-602.0,5.13
36.0,-916.0,5.131
-40.0,-1030.0,5.132
-107.0,-761.0,5.133
-128.0,-182.0,5.134
-99.0,181.0,5.135
-48.0,-89.0,5.136
-1.0,-621.0,5.137
32.0,-747.0,5.138
48.0,-223.0,5.139
43.0,483.0,5.14
29.0,841.0,5.141
18.0,786.0,5.142
14.0,492.0,5.143
11.0,138.0,5.144
13.0,-32.0,5.145
34.0,155.0,5.146
71.0,500.0,5.147
102.0,625.0,5.148
107.0,506.0,5.149
80.0,463.0,5.15
36.0,604.0,5.151
-5.0,714.0,5.152
-24.0,728.0,5.153
-34.0,787.0,5.154
-55.0,755.0,5.155
-88.0,293.0,5.156
-100.0,-406.0,5.157
-68.0,-687.0,5.158
-17.0,-401.0,5.159
4.0,-327.0,5.16
-16.0,-890.0,5.161
-35.0,-1416.0,5.162
-16.0,-1828.0,5.163
28.0,-2057.0,5.164
60.0,-1732.0,5.165
72.0,-1396.0,5.166
66.0,-1027.0,5.167
31.0,-642.0,5.168
-32.0,-211.0,5.169
-88.0,189.0,5.17
-102.0,494.0,5.171
-94.0,734.0,5.172
-104.0,778.0,5.173
-119.0,835.0,5.174
-96.0,927.0,5.175
-31.0,1037.0,5.176
21.0,1197.0,5.177
38.0,1341.0,5.178
44.0,1394.0,5.179
69.0,1316.0,5.18
102.0,1042.0,5.181
111.0,602.0,5.182
94.0,72.0,5.183
69.0,-458.0,5.184
46.0,-853.0,5.185
29.0,-956.0,5.186
27.0,-759.0,5.187
42.0,-465.0,5.188
56.0,-267.0,5.189
54.0,-175.0,5.19
40.0,-98.0,5.191
20.0,-12.0,5.192
-9.0,54.0,5.193
-51.0,114.0,5.194
-88.0,217.0,5.195
-102.0,391.0,5.196
-93.0,602.0,5.197
-81.0,797.0,5.198
-66.0,852.0,5.199
-43.0,704.0,5.2
-7.0,427.0,5.201
30.0,143.0,5.202
60.0,-138.0,5.203
91.0,-446.0,5.204
119.0,-664.0,5.205
125.0,-615.0,5.206
90.0,-361.0,5.207
23.0,-232.0,5.208
-39.0,-417.0,5.209
-59.0,-676.0,5.21
-29.0,-629.0,5.211
20.0,-256.0,5.212
40.0,90.0,5.213
-8.0,147.0,5.214
-104.0,-9.0,5.215
-174.0,-206.0,5.216
-154.0,-408.0,5.217
-50.0,-656.0,5.218
55.0,-784.0,5.219
81.0,-576.0,5.22
47.0,-46.0,5.221
24.0,562.0,5.222
45.0,1004.0,5.223
68.0,1140.0,5.224
58.0,911.0,5.225
18.0,415.0,5.226
-24.0,-20.0,5.227
-57.0,-86.0,5.228
-69.0,121.0,5.229
-41.0,185.0,5.23
14.0,-64.0,5.231
57.0,-357.0,5.232
66.0,-490.0,5.233
63.0,-682.0,5.234
72.0,-1142.0,5.235
82.0,-1581.0,5.236
66.0,-1562.0,5.237
22.0,-1050.0,5.238
-19.0,-433.0,5.239
-32.0,6.0,5.24
-24.0,308.0,5.241
-19.0,547.0,5.242
-30.0,663.0,5.243
-51.0,634.0,5.244
-56.0,548.0,5.245
-37.0,471.0,5.246
-9.0,466.0,5.247
9.0,681.0,5.248
10.0,1168.0,5.249
1.0,1648.0,5.25
-20.0,1705.0,5.251
-52.0,1205.0,5.252
-60.0,393.0,5.253
-11.0,-403.0,5.254
65.0,-985.0,5.255
110.0,-1306.0,5.256
100.0,-1432.0,5.257
60.0,-1497.0,5.258
15.0,-1499.0,5.259
-37.0,-1277.0,5.26
-87.0,-757.0,5.261
-101.0,-146.0,5.262
-67.0,272.0,5.263
-26.0,475.0,5.264
-12.0,620.0,5.265
-15.0,759.0,5.266
1.0,821.0,5.267
32.0,808.0,5.268
43.0,806.0,5.269
9.0,809.0,5.27
-37.0,685.0,5.271
-46.0,354.0,5.272
3.0,-69.0,5.273
73.0,-333.0,5.274
121.0,-260.0,5.275
134.0,71.0,5.276
116.0,368.0,5.277
69.0,437.0,5.278
8.0,301.0,5.279
-30.0,120.0,5.28
-26.0,-41.0,5.281
-9.0,-193.0,5.282
-15.0,-283.0,5.283
-46.0,-230.0,5.284
-71.0,-113.0,5.285
-84.0,-112.0,5.286
-84.0,-270.0,5.287
-65.0,-429.0,5.288
-27.0,-421.0,5.289
4.0,-222.0,5.29
18.0,50.0,5.291
39.0,213.0,5.292
74.0,137.0,5.293
94.0,-109.0,5.294
75.0,-223.0,5.295
35.0,38.0,5.296
-10.0,489.0,5.297
-70.0,659.0,5.298
-124.0,170.0,5.299
-127.0,-742.0,5.3
-69.0,-1382.0,5.301
-10.0,-1314.0,5.302
13.0,-764.0,5.303
23.0,-255.0,5.304
53.0,-54.0,5.305
74.0,-65.0,5.306
54.0,-100.0,5.307
25.0,-95.0,5.308
25.0,-68.0,5.309
38.0,-23.0,5.31
34.0,75.0,5.311
18.0,259.0,5.312
13.0,492.0,5.313
5.0,679.0,5.314
-15.0,748.0,5.315
-21.0,687.0,5.316
4.0,533.0,5.317
36.0,307.0,5.318
39.0,123.0,5.319
20.0,71.0,5.32
3.0,63.0,5.321
-15.0,-100.0,5.322
-48.0,-435.0,5.323
-72.0,-668.0,5.324
-57.0,-580.0,5.325
-21.0,-288.0,5.326
0.0,-53.0,5.327
2.0,91.0,5.328
13.0,303.0,5.329
38.0,596.0,5.33
52.0,804.0,5.331
45.0,832.0,5.332
26.0,766.0,5.333
8.0,645.0,5.334
-10.0,327.0,5.335
-25.0,-278.0,5.336
-22.0,-912.0,5.337
-4.0,-1217.0,5.338
12.0,-946.0,5.339
13.0,-320.0,5.34
15.0,184.0,5.341
33.0,309.0,5.342
58.0,171.0,5.343
69.0,-6.0,5.344
57.0,-137.0,5.345
33.0,-244.0,5.346
11.0,-333.0,5.347
-7.0,-392.0,5.348
-21.0,-428.0,5.349
-32.0,-394.0,5.35
-43.0,-187.0,5.351
-49.0,193.0,5.352
-35.0,582.0,5.353
10.0,814.0,5.354
65.0,894.0,5.355
92.0,870.0,5.356
82.0,689.0,5.357
54.0,230.0,5.358
25.0,-377.0,5.359
-22.0,-851.0,5.36
-88.0,-1036.0,5.361
-127.0,-959.0,5.362
-92.0,-691.0,5.363
-9.0,-289.0,5.364
66.0,108.0,5.365
110.0,339.0,5.366
120.0,390.0,5.367
74.0,399.0,5.368
-29.0,447.0,5.369
-136.0,446.0,5.37
-190.0,262.0,5.371
-200.0,-118.0,5.372
-202.0,-523.0,5.373
-191.0,-681.0,5.374
-140.0,-460.0,5.375
-63.0,-57.0,5.376
-4.0,180.0,5.377
37.0,131.0,5.378
74.0,-11.0,5.379
99.0,-13.0,5.38
93.0,107.0,5.381
74.0,191.0,5.382
73.0,199.0,5.383
80.0,217.0,5.384
64.0,286.0,5.385
33.0,374.0,5.386
24.0,463.0,5.387
38.0,524.0,5.388
51.0,474.0,5.389
45.0,254.0,5.39
35.0,-61.0,5.391
28.0,-330.0,5.392
26.0,-484.0,5.393
26.0,-530.0,5.394
27.0,-470.0,5.395
22.0,-317.0,5.396
15.0,-143.0,5.397
13.0,-11.0,5.398
18.0,50.0,5.399
16.0,66.0,5.4
5.0,54.0,5.401
1.0,25.0,5.402
11.0,-10.0,5.403
15.0,-22.0,5.404
3.0,-8.0,5.405
-7.0,11.0,5.406
-5.0,14.0,5.407
7.0,-15.0,5.408
13.0,-78.0,5.409
11.0,-136.0,5.41
11.0,-118.0,5.411
12.0,-2.0,5.412
9.0,147.0,5.413
1.0,237.0,5.414
-6.0,227.0,5.415
-14.0,157.0,5.416
-22.0,82.0,5.417
-31.0,-11.0,5.418
-30.0,-131.0,5.419
-25.0,-242.0,5.42
-20.0,-268.0,5.421
-16.0,-178.0,5.422
-10.0,-51.0,5.423
-2.0,19.0,5.424
0.0,27.0,5.425
-5.0,31.0,5.426
-4.0,57.0,5.427
4.0,74.0,5.428
12.0,64.0,5.429
14.0,51.0,5.43
14.0,49.0,5.431
13.0,46.0,5.432
13.0,35.0,5.433
12.0,27.0,5.434
11.0,28.0,5.435
11.0,23.0,5.436
9.0,10.0,5.437
9.0,0.0,5.438
11.0,2.0,5.439
5.0,5.0,5.44
-2.0,-2.0,5.441
-7.0,-8.0,5.442
-5.0,-3.0,5.443
-2.0,6.0,5.444
-7.0,10.0,5.445
-13.0,1.0,5.446
-12.0,-15.0,5.447
-7.0,-28.0,5.448
-6.0,-27.0,5.449
-6.0,-14.0,5.45
1.0,-5.0,5.451
13.0,-6.0,5.452
12.0,-10.0,5.453
-3.0,-10.0,5.454
-11.0,-12.0,5.455
-7.0,-18.0,5.456
4.0,-23.0,5.457
14.0,-18.0,5.458
17.0,-8.0,5.459
12.0,-6.0,5.46
4.0,-12.0,5.461
0.0,-15.0,5.462
3.0,-11.0,5.463
5.0,-6.0,5.464
-8.0,-3.0,5.465
-33.0,2.0,5.466
-45.0,7.0,5.467
-32.0,10.0,5.468
-13.0,10.0,5.469
-5.0,10.0,5.47
-5.0,7.0,5.471
0.0,0.0,5.472
11.0,-3.0,5.473
11.0,-1.0,5.474
0.0,0.0,5.475
-7.0,-2.0,5.476
-3.0,-7.0,5.477
10.0,-9.0,5.478
28.0,-6.0,5.479
40.0,-5.0,5.48
39.0,-6.0,5.481
27.0,-4.0,5.482
15.0,1.0,5.483
13.0,5.0,5.484
15.0,4.0,5.485
9.0,0.0,5.486
0.0,-3.0,5.487
-2.0,-6.0,5.488
0.0,-10.0,5.489
1.0,-16.0,5.49
7.0,-14.0,5.491
19.0,-2.0,5.492
28.0,15.0,5.493
27.0,30.0,5.494
22.0,30.0,5.495
19.0,16.0,5.496
14.0,-5.0,5.497
-13.0,-22.0,5.498
-47.0,-23.0,5.499
-67.0,-14.0,5.5
-59.0,-9.0,5.501
-46.0,-1.0,5.502
-63.0,17.0,5.503
-108.0,37.0,5.504
-140.0,46.0,5.505
-112.0,45.0,5.506
-32.0,40.0,5.507
42.0,33.0,5.508
69.0,14.0,5.509
70.0,-9.0,5.51
88.0,-20.0,5.511
135.0,-15.0,5.512
192.0,-12.0,5.513
238.0,-16.0,5.514
247.0,-20.0,5.515
193.0,-21.0,5.516
95.0,-23.0,5.517
-7.0,-28.0,5.518
-60.0,-25.0,5.519
-78.0,-13.0,5.52
-98.0,-9.0,5.521
-115.0,-8.0,5.522
-91.0,-1.0,5.523
-21.0,11.0,5.524
40.0,15.0,5.525
53.0,8.0,5.526
24.0,0.0,5.527
-22.0,2.0,5.528
-72.0,6.0,5.529
-113.0,4.0,5.53
-120.0,-1.0,5.531
-84.0,-6.0,5.532
-32.0,-9.0,5.533
3.0,-12.0,5.534
9.0,-13.0,5.535
5.0,-10.0,5.536
13.0,-5.0,5.537
23.0,-4.0,5.538
21.0,-5.0,5.539
0.0,-7.0,5.54
-25.0,-10.0,5.541
-36.0,-8.0,5.542
-33.0,-2.0,5.543
-21.0,7.0,5.544
-3.0,15.0,5.545
13.0,19.0,5.546
15.0,14.0,5.547
0.0,5.0,5.548
-4.0,1.0,5.549
19.0,5.0,5.55
46.0,5.0,5.551
46.0,0.0,5.552
24.0,-6.0,5.553
8.0,-7.0,5.554
15.0,-6.0,5.555
29.0,-1.0,5.556
39.0,5.0,5.557
39.0,6.0,5.558
28.0,0.0,5.559
-2.0,-7.0,5.56
-36.0,-6.0,5.561
-54.0,3.0,5.562
-50.0,6.0,5.563
-41.0,4.0,5.564
-32.0,5.0,5.565
-12.0,6.0,5.566
14.0,-3.0,5.567
29.0,-18.0,5.568
23.0,-27.0,5.569
4.0,-25.0,5.57
-23.0,-24.0,5.571
-62.0,-22.0,5.572
-96.0,-13.0,5.573
-91.0,1.0,5.574
-40.0,13.0,5.575
16.0,14.0,5.576
41.0,9.0,5.577
45.0,1.0,5.578
68.0,9.0,5.579
103.0,34.0,5.58
120.0,52.0,5.581
97.0,47.0,5.582
45.0,24.0,5.583
-10.0,8.0,5.584
-49.0,8.0,5.585
-41.0,7.0,5.586
13.0,-1.0,5.587
59.0,-10.0,5.588
41.0,-9.0,5.589
-27.0,-6.0,5.59
-86.0,-8.0,5.591
-114.0,-13.0,5.592
-124.0,-17.0,5.593
-108.0,-23.0,5.594
-46.0,-24.0,5.595
33.0,-13.0,5.596
72.0,6.0,5.597
64.0,12.0,5.598
56.0,3.0,5.599
72.0,-4.0,5.6
94.0,-4.0,5.601
94.0,1.0,5.602
74.0,18.0,5.603
44.0,31.0,5.604
16.0,29.0,5.605
3.0,18.0,5.606
13.0,-21.0,5.607
13.0,-50.0,5.608
-14.0,-48.0,5.609
-40.0,-42.0,5.61
-34.0,-24.0,5.611
-12.0,-10.0,5.612
-9.0,-8.0,5.613
-28.0,-4.0,5.614
-42.0,1.0,5.615
-39.0,9.0,5.616
-27.0,23.0,5.617
-11.0,41.0,5.618
4.0,65.0,5.619
3.0,69.0,5.62
-17.0,44.0,5.621
-25.0,7.0,5.622
6.0,-31.0,5.623
48.0,-65.0,5.624
56.0,-83.0,5.625
30.0,-73.0,5.626
7.0,-44.0,5.627
-1.0,-20.0,5.628
-10.0,-10.0,5.629
-21.0,-4.0,5.63
-15.0,8.0,5.631
8.0,18.0,5.632
21.0,18.0,5.633
14.0,10.0,5.634
1.0,4.0,5.635
-4.0,6.0,5.636
-14.0,11.0,5.637
-35.0,16.0,5.638
-70.0,12.0,5.639
-97.0,2.0,5.64
-92.0,-11.0,5.641
-50.0,-11.0,5.642
3.0,3.0,5.643
34.0,20.0,5.644
30.0,26.0,5.645
20.0,17.0,5.646
31.0,2.0,5.647
56.0,-8.0,5.648
66.0,-1.0,5.649
55.0,21.0,5.65
39.0,41.0,5.651
25.0,39.0,5.652
7.0,19.0,5.653
-13.0,0.0,5.654
-24.0,-8.0,5.655
-20.0,-13.0,5.656
-12.0,-9.0,5.657
-17.0,2.0,5.658
-31.0,17.0,5.659
-39.0,17.0,5.66
-26.0,-3.0,5.661
5.0,-12.0,5.662
38.0,-7.0,5.663
46.0,-2.0,5.664
19.0,-7.0,5.665
-22.0,-9.0,5.666
-32.0,-1.0,5.667
5.0,6.0,5.668
49.0,1.0,5.669
53.0,-6.0,5.67
38.0,-7.0,5.671
66.0,-7.0,5.672
126.0,-12.0,5.673
142.0,-18.0,5.674
85.0,-17.0,5.675
18.0,-13.0,5.676
-4.0,-12.0,5.677
-5.0,-12.0,5.678
-21.0,-7.0,5.679
-43.0,-1.0,5.68
-32.0,-4.0,5.681
-1.0,-6.0,5.682
15.0,-1.0,5.683
8.0,6.0,5.684
-1.0,13.0,5.685
-5.0,28.0,5.686
-16.0,48.0,5.687
-26.0,70.0,5.688
-26.0,83.0,5.689
-20.0,76.0,5.69
-21.0,46.0,5.691
-31.0,-3.0,5.692
-36.0,-46.0,5.693
-32.0,-56.0,5.694
-27.0,-38.0,5.695
-24.0,-15.0,5.696
-22.0,-6.0,5.697
-21.0,-10.0,5.698
-18.0,-16.0,5.699
-17.0,-28.0,5.7
-20.0,-62.0,5.701
-22.0,-113.0,5.702
-12.0,-160.0,5.703
14.0,-170.0,5.704
36.0,-136.0,5.705
41.0,-80.0,5.706
33.0,-33.0,5.707
17.0,1.0,5.708
-3.0,33.0,5.709
-23.0,59.0,5.71
-35.0,68.0,5.711
-42.0,57.0,5.712
-57.0,45.0,5.713
-79.0,47.0,5.714
-83.0,55.0,5.715
-69.0,49.0,5.716
-44.0,35.0,5.717
-8.0,31.0,5.718
37.0,44.0,5.719
68.0,56.0,5.72
57.0,48.0,5.721
58.0,29.0,5.722
95.0,18.0,5.723
115.0,21.0,5.724
81.0,30.0,5.725
50.0,33.0,5.726
30.0,23.0,5.727
14.0,4.0,5.728
10.0,-11.0,5.729
3.0,-13.0,5.73
-12.0,-4.0,5.731
-20.0,11.0,5.732
-3.0,25.0,5.733
9.0,27.0,5.734
5.0,8.0,5.735
8.0,-15.0,5.736
40.0,-21.0,5.737
62.0,-16.0,5.738
47.0,-12.0,5.739
29.0,-10.0,5.74
25.0,-16.0,5.741
2.0,-21.0,5.742
-57.0,-21.0,5.743
-127.0,-21.0,5.744
-172.0,-21.0,5.745
-165.0,-20.0,5.746
-104.0,-19.0,5.747
-11.0,-16.0,5.748
63.0,-9.0,5.749
93.0,-1.0,5.75
96.0,7.0,5.751
109.0,12.0,5.752
130.0,10.0,5.753
130.0,7.0,5.754
102.0,5.0,5.755
68.0,1.0,5.756
37.0,-7.0,5.757
-6.0,-16.0,5.758
-35.0,-21.0,5.759
-39.0,-22.0,5.76
-38.0,-23.0,5.761
-59.0,-25.0,5.762
-87.0,-25.0,5.763
-87.0,-19.0,5.764
-66.0,-4.0,5.765
-58.0,12.0,5.766
-67.0,12.0,5.767
-55.0,4.0,5.768
-8.0,16.0,5.769
34.0,48.0,5.77
47.0,72.0,5.771
51.0,60.0,5.772
64.0,24.0,5.773
58.0,1.0,5.774
15.0,1.0,5.775
-33.0,1.0,5.776
-43.0,-7.0,5.777
-41.0,-16.0,5.778
-53.0,-15.0,5.779
-55.0,-17.0,5.78
-26.0,-29.0,5.781
2.0,-36.0,5.782
28.0,-22.0,5.783
53.0,-9.0,5.784
74.0,3.0,5.785
82.0,13.0,5.786
49.0,16.0,5.787
24.0,16.0,5.788
25.0,5.0,5.789
30.0,-3.0,5.79
50.0,-3.0,5.791
57.0,-5.0,5.792
26.0,-9.0,5.793
3.0,-13.0,5.794
4.0,-14.0,5.795
3.0,-16.0,5.796
-7.0,-15.0,5.797
-21.0,-14.0,5.798
-42.0,-14.0,5.799
-75.0,-9.0,5.8
-104.0,-10.0,5.801
-104.0,-11.0,5.802
-71.0,-11.0,5.803
-35.0,-6.0,5.804
-21.0,-5.0,5.805
-13.0,-8.0,5.806
14.0,-11.0,5.807
46.0,-8.0,5.808
49.0,0.0,5.809
21.0,8.0,5.81
-3.0,11.0,5.811
-5.0,14.0,5.812
1.0,22.0,5.813
1.0,31.0,5.814
3.0,35.0,5.815
11.0,31.0,5.816
14.0,24.0,5.817
8.0,14.0,5.818
1.0,9.0,5.819
-4.0,6.0,5.82
-6.0,-1.0,5.821
3.0,-8.0,5.822
35.0,-11.0,5.823
65.0,-10.0,5.824
57.0,-4.0,5.825
11.0,2.0,5.826
-28.0,0.0,5.827
-41.0,-5.0,5.828
-52.0,-9.0,5.829
-73.0,-11.0,5.83
-67.0,-12.0,5.831
-8.0,-10.0,5.832
67.0,-7.0,5.833
95.0,-5.0,5.834
73.0,-8.0,5.835
40.0,-10.0,5.836
27.0,-6.0,5.837
23.0,-1.0,5.838
23.0,1.0,5.839
17.0,9.0,5.84
-1.0,22.0,5.841
-23.0,37.0,5.842
-24.0,33.0,5.843
-5.0,7.0,5.844
2.0,-20.0,5.845
-11.0,-30.0,5.846
-19.0,-22.0,5.847
-4.0,-9.0,5.848
16.0,-2.0,5.849
21.0,-3.0,5.85
25.0,-5.0,5.851
30.0,-8.0,5.852
18.0,-9.0,5.853
-15.0,-12.0,5.854
-47.0,-23.0,5.855
-62.0,-32.0,5.856
-59.0,-30.0,5.857
-37.0,-17.0,5.858
9.0,0.0,5.859
49.0,14.0,5.86
55.0,12.0,5.861
37.0,14.0,5.862
40.0,27.0,5.863
76.0,40.0,5.864
112.0,52.0,5.865
121.0,56.0,5.866
102.0,35.0,5.867
72.0,17.0,5.868
40.0,10.0,5.869
5.0,2.0,5.87
-30.0,-7.0,5.871
-63.0,-15.0,5.872
-81.0,-14.0,5.873
-87.0,-15.0,5.874
-92.0,-25.0,5.875
-105.0,-34.0,5.876
-108.0,-34.0,5.877
-80.0,-31.0,5.878
-15.0,-27.0,5.879
58.0,-19.0,5.88
93.0,0.0,5.881
65.0,32.0,5.882
2.0,50.0,5.883
-42.0,41.0,5.884
-49.0,17.0,5.885
-49.0,-2.0,5.886
-58.0,-5.0,5.887
-46.0,0.0,5.888
-6.0,0.0,5.889
24.0,-8.0,5.89
18.0,-14.0,5.891
5.0,-11.0,5.892
13.0,-8.0,5.893
13.0,-11.0,5.894
-10.0,-18.0,5.895
-30.0,-26.0,5.896
-18.0,-31.0,5.897
3.0,-37.0,5.898
10.0,-36.0,5.899
14.0,-25.0,5.9
33.0,-8.0,5.901
35.0,15.0,5.902
-6.0,38.0,5.903
-45.0,51.0,5.904
-26.0,46.0,5.905
31.0,27.0,5.906
57.0,14.0,5.907
34.0,16.0,5.908
12.0,23.0,5.909
17.0,18.0,5.91
21.0,5.0,5.911
9.0,-3.0,5.912
-2.0,-4.0,5.913
-18.0,-9.0,5.914
-64.0,-18.0,5.915
-118.0,-23.0,5.916
-110.0,-18.0,5.917
-27.0,-12.0,5.918
53.0,-3.0,5.919
61.0,4.0,5.92
47.0,4.0,5.921
71.0,4.0,5.922
112.0,0.0,5.923
109.0,-4.0,5.924
76.0,-2.0,5.925
67.0,-2.0,5.926
78.0,-8.0,5.927
66.0,-13.0,5.928
36.0,-15.0,5.929
29.0,-17.0,5.93
41.0,-15.0,5.931
39.0,-12.0,5.932
19.0,-10.0,5.933
11.0,-5.0,5.934
10.0,5.0,5.935
-7.0,13.0,5.936
-28.0,9.0,5.937
-42.0,4.0,5.938
-52.0,3.0,5.939
-62.0,2.0,5.94
-70.0,-8.0,5.941
-70.0,-10.0,5.942
-48.0,9.0,5.943
-33.0,40.0,5.944
-43.0,54.0,5.945
-46.0,42.0,5.946
-26.0,27.0,5.947
-10.0,11.0,5.948
-4.0,-11.0,5.949
-3.0,-29.0,5.95
-18.0,-29.0,5.951
-31.0,-13.0,5.952
-35.0,-6.0,5.953
-34.0,-13.0,5.954
-13.0,-14.0,5.955
14.0,-7.0,5.956
58.0,-4.0,5.957
98.0,-10.0,5.958
93.0,-9.0,5.959
54.0,-6.0,5.96
36.0,-10.0,5.961
61.0,-18.0,5.962
77.0,-22.0,5.963
35.0,-17.0,5.964
-54.0,-16.0,5.965
-141.0,-16.0,5.966
-178.0,-10.0,5.967
-150.0,-2.0,5.968
-83.0,7.0,5.969
-29.0,19.0,5.97
-10.0,31.0,5.971
6.0,31.0,5.972
43.0,18.0,5.973
68.0,14.0,5.974
48.0,24.0,5.975
1.0,29.0,5.976
-18.0,16.0,5.977
-7.0,-4.0,5.978
-2.0,-11.0,5.979
-24.0,-9.0,5.98
-50.0,-13.0,5.981
-54.0,-15.0,5.982
-40.0,-6.0,5.983
-25.0,4.0,5.984
-3.0,1.0,5.985
46.0,-16.0,5.986
117.0,-33.0,5.987
165.0,-38.0,5.988
151.0,-32.0,5.989
85.0,-15.0,5.99
21.0,1.0,5.991
7.0,10.0,5.992
37.0,22.0,5.993
74.0,53.0,5.994
87.0,87.0,5.995
72.0,78.0,5.996
46.0,27.0,5.997
18.0,-21.0,5.998
5.0,-20.0,5.999
7.0,5.0,6.0
9.0,2.0,6.001
4.0,-22.0,6.002
0.0,-29.0,6.003
-7.0,-15.0,6.004
-35.0,-10.0,6.005
-90.0,-22.0,6.006
-147.0,-27.0,6.007
-169.0,-19.0,6.008
-148.0,-12.0,6.009
-90.0,-11.0,6.01
-3.0,-3.0,6.011
90.0,17.0,6.012
146.0,34.0,6.013
144.0,34.0,6.014
111.0,22.0,6.015
75.0,4.0,6.016
47.0,-9.0,6.017
18.0,-12.0,6.018
-5.0,-4.0,6.019
-15.0,3.0,6.02
-17.0,-2.0,6.021
-23.0,-9.0,6.022
-40.0,-9.0,6.023
-64.0,-5.0,6.024
-89.0,-2.0,6.025
-103.0,0.0,6.026
-84.0,2.0,6.027
-27.0,-2.0,6.028
43.0,-10.0,6.029
87.0,-14.0,6.03
84.0,-10.0,6.031
37.0,-2.0,6.032
-23.0,4.0,6.033
-61.0,1.0,6.034
-54.0,-7.0,6.035
-19.0,-15.0,6.036
4.0,-15.0,6.037
-3.0,-13.0,6.038
-25.0,-12.0,6.039
-35.0,-11.0,6.04
-27.0,-11.0,6.041
-14.0,0.0,6.042
1.0,13.0,6.043
18.0,18.0,6.044
20.0,17.0,6.045
-7.0,17.0,6.046
-37.0,21.0,6.047
-31.0,19.0,6.048
7.0,8.0,6.049
39.0,-6.0,6.05
37.0,-15.0,6.051
27.0,-17.0,6.052
34.0,-16.0,6.053
46.0,-12.0,6.054
39.0,-6.0,6.055
23.0,-2.0,6.056
21.0,-1.0,6.057
27.0,-4.0,6.058
27.0,-3.0,6.059
19.0,1.0,6.06
14.0,-2.0,6.061
14.0,-3.0,6.062
7.0,1.0,6.063
-3.0,5.0,6.064
-2.0,4.0,6.065
2.0,2.0,6.066
-3.0,10.0,6.067
-17.0,21.0,6.068
-18.0,25.0,6.069
-7.0,15.0,6.07
-4.0,0.0,6.071
-11.0,-10.0,6.072
-13.0,-13.0,6.073
-4.0,-11.0,6.074
5.0,-7.0,6.075
8.0,-8.0,6.076
11.0,-16.0,6.077
16.0,-25.0,6.078
17.0,-23.0,6.079
5.0,-11.0,6.08
-8.0,-3.0,6.081
-11.0,0.0,6.082
-1.0,1.0,6.083
9.0,5.0,6.084
10.0,11.0,6.085
8.0,10.0,6.086
17.0,6.0,6.087
38.0,0.0,6.088
47.0,-8.0,6.089
27.0,-17.0,6.09
-3.0,-27.0,6.091
-19.0,-37.0,6.092
-18.0,-39.0,6.093
-12.0,-33.0,6.094
-12.0,-23.0,6.095
-19.0,-14.0,6.096
-30.0,0.0,6.097
-46.0,25.0,6.098
-49.0,53.0,6.099
-38.0,63.0,6.1
-27.0,53.0,6.101
-24.0,50.0,6.102
-23.0,59.0,6.103
-14.0,65.0,6.104
-5.0,56.0,6.105
-1.0,37.0,6.106
4.0,17.0,6.107
12.0,6.0,6.108
7.0,3.0,6.109
-8.0,3.0,6.11
-5.0,-4.0,6.111
32.0,-20.0,6.112
83.0,-37.0,6.113
126.0,-46.0,6.114
139.0,-48.0,6.115
75.0,-32.0,6.116
-87.0,0.0,6.117
-292.0,26.0,6.118
-359.0,24.0,6.119
-196.0,7.0,6.12
73.0,3.0,6.121
258.0,13.0,6.122
304.0,5.0,6.123
264.0,-17.0,6.124
176.0,-22.0,6.125
58.0,-5.0,6.126
-28.0,4.0,6.127
-29.0,-6.0,6.128
16.0,-14.0,6.129
43.0,-11.0,6.13
40.0,-15.0,6.131
18.0,-28.0,6.132
-32.0,-31.0,6.133
-85.0,-26.0,6.134
-70.0,-29.0,6.135
8.0,-42.0,6.136
58.0,-49.0,6.137
34.0,-46.0,6.138
11.0,-40.0,6.139
27.0,-31.0,6.14
22.0,-9.0,6.141
-36.0,23.0,6.142
-64.0,43.0,6.143
-17.0,45.0,6.144
14.0,48.0,6.145
-33.0,61.0,6.146
-79.0,65.0,6.147
-61.0,44.0,6.148
-33.0,14.0,6.149
-42.0,-1.0,6.15
-39.0,-6.0,6.151
-5.0,-14.0,6.152
-1.0,-24.0,6.153
-58.0,-29.0,6.154
-100.0,-30.0,6.155
-74.0,-33.0,6.156
-38.0,-32.0,6.157
-52.0,-22.0,6.158
-81.0,-3.0,6.159
-59.0,13.0,6.16
19.0,16.0,6.161
97.0,14.0,6.162
132.0,3.0,6.163
140.0,-11.0,6.164
150.0,-21.0,6.165
150.0,-10.0,6.166
103.0,23.0,6.167
20.0,55.0,6.168
-32.0,56.0,6.169
-19.0,23.0,6.17
10.0,-12.0,6.171
5.0,-18.0,6.172
-16.0,-4.0,6.173
-18.0,0.0,6.174
-13.0,-12.0,6.175
-24.0,-16.0,6.176
-34.0,-4.0,6.177
-16.0,5.0,6.178
13.0,0.0,6.179
12.0,-9.0,6.18
-19.0,-9.0,6.181
-48.0,-2.0,6.182
-58.0,-2.0,6.183
-49.0,-5.0,6.184
-20.0,-4.0,6.185
17.0,0.0,6.186
36.0,-2.0,6.187
23.0,-12.0,6.188
2.0,-18.0,6.189
-12.0,-14.0,6.19
-27.0,-6.0,6.191
-39.0,1.0,6.192
-26.0,4.0,6.193
11.0,1.0,6.194
34.0,-8.0,6.195
20.0,-11.0,6.196
0.0,1.0,6.197
-3.0,24.0,6.198
9.0,36.0,6.199
6.0,30.0,6.2
-5.0,9.0,6.201
-8.0,-2.0,6.202
-2.0,0.0,6.203
-3.0,4.0,6.204
-16.0,8.0,6.205
-33.0,13.0,6.206
-39.0,18.0,6.207
-37.0,12.0,6.208
-32.0,-5.0,6.209
-21.0,-15.0,6.21
5.0,-14.0,6.211
46.0,-15.0,6.212
89.0,-30.0,6.213
114.0,-49.0,6.214
110.0,-57.0,6.215
92.0,-48.0,6.216
72.0,-25.0,6.217
50.0,4.0,6.218
20.0,39.0,6.219
-12.0,64.0,6.22
-29.0,68.0,6.221
-28.0,46.0,6.222
-18.0,9.0,6.223
-9.0,-17.0,6.224
-1.0,-10.0,6.225
4.0,16.0,6.226
3.0,32.0,6.227
-9.0,18.0,6.228
-24.0,-7.0,6.229
-36.0,-23.0,6.23
-52.0,-29.0,6.231
-76.0,-41.0,6.232
-98.0,-59.0,6.233
-94.0,-68.0,6.234
-50.0,-59.0,6.235
19.0,-31.0,6.236
85.0,7.0,6.237
123.0,39.0,6.238
114.0,43.0,6.239
67.0,32.0,6.24
26.0,32.0,6.241
23.0,46.0,6.242
37.0,37.0,6.243
27.0,-1.0,6.244
-6.0,-10.0,6.245
-20.0,35.0,6.246
-4.0,78.0,6.247
6.0,64.0,6.248
-20.0,15.0,6.249
-70.0,-12.0,6.25
-103.0,-19.0,6.251
-92.0,-33.0,6.252
-37.0,-46.0,6.253
46.0,-35.0,6.254
116.0,-16.0,6.255
141.0,-13.0,6.256
120.0,-12.0,6.257
69.0,0.0,6.258
12.0,11.0,6.259
-39.0,-6.0,6.26
-76.0,-29.0,6.261
-81.0,-21.0,6.262
-43.0,4.0,6.263
7.0,11.0,6.264
10.0,1.0,6.265
-42.0,6.0,6.266
-81.0,15.0,6.267
-58.0,0.0,6.268
-15.0,-37.0,6.269
-19.0,-69.0,6.27
-58.0,-88.0,6.271
-78.0,-98.0,6.272
-54.0,-89.0,6.273
-7.0,-48.0,6.274
48.0,2.0,6.275
101.0,36.0,6.276
136.0,61.0,6.277
125.0,94.0,6.278
67.0,134.0,6.279
4.0,159.0,6.28
-8.0,166.0,6.281
37.0,169.0,6.282
72.0,161.0,6.283
44.0,131.0,6.284
-14.0,80.0,6.285
-41.0,10.0,6.286
-58.0,-71.0,6.287
-141.0,-138.0,6.288
-262.0,-158.0,6.289
-280.0,-141.0,6.29
-130.0,-139.0,6.291
79.0,-165.0,6.292
213.0,-177.0,6.293
263.0,-141.0,6.294
284.0,-76.0,6.295
254.0,-29.0,6.296
149.0,-10.0,6.297
21.0,18.0,6.298
-13.0,97.0,6.299
31.0,211.0,6.3
35.0,280.0,6.301
-27.0,260.0,6.302
-62.0,190.0,6.303
-42.0,145.0,6.304
-37.0,131.0,6.305
-77.0,92.0,6.306
-93.0,14.0,6.307
-66.0,-54.0,6.308
-61.0,-98.0,6.309
-93.0,-156.0,6.31
-102.0,-235.0,6.311
-67.0,-296.0,6.312
-40.0,-334.0,6.313
-40.0,-384.0,6.314
-35.0,-424.0,6.315
-22.0,-370.0,6.316
-29.0,-225.0,6.317
-35.0,-70.0,6.318
11.0,5.0,6.319
101.0,25.0,6.32
165.0,57.0,6.321
178.0,109.0,6.322
172.0,138.0,6.323
154.0,139.0,6.324
97.0,138.0,6.325
16.0,138.0,6.326
-32.0,126.0,6.327
-33.0,110.0,6.328
-36.0,104.0,6.329
-91.0,91.0,6.33
-170.0,53.0,6.331
-200.0,20.0,6.332
-145.0,36.0,6.333
-42.0,87.0,6.334
54.0,125.0,6.335
121.0,135.0,6.336
156.0,141.0,6.337
146.0,141.0,6.338
83.0,113.0,6.339
-6.0,68.0,6.34
-71.0,38.0,6.341
-89.0,31.0,6.342
-72.0,16.0,6.343
-31.0,-10.0,6.344
25.0,-24.0,6.345
66.0,-24.0,6.346
62.0,-28.0,6.347
26.0,-41.0,6.348
-19.0,-41.0,6.349
-73.0,-34.0,6.35
-134.0,-42.0,6.351
-162.0,-63.0,6.352
-115.0,-67.0,6.353
-26.0,-48.0,6.354
37.0,-24.0,6.355
62.0,2.0,6.356
84.0,42.0,6.357
122.0,80.0,6.358
133.0,83.0,6.359
86.0,52.0,6.36
12.0,28.0,6.361
-29.0,41.0,6.362
-22.0,51.0,6.363
-2.0,24.0,6.364
-4.0,-30.0,6.365
-19.0,-78.0,6.366
-21.0,-112.0,6.367
-15.0,-131.0,6.368
-19.0,-128.0,6.369
-41.0,-111.0,6.37
-65.0,-101.0,6.371
-77.0,-104.0,6.372
-63.0,-98.0,6.373
7.0,-77.0,6.374
125.0,-70.0,6.375
216.0,-79.0,6.376
213.0,-64.0,6.377
124.0,-3.0,6.378
27.0,68.0,6.379
-34.0,106.0,6.38
-66.0,121.0,6.381
-66.0,136.0,6.382
-24.0,127.0,6.383
35.0,75.0,6.384
41.0,24.0,6.385
-41.0,32.0,6.386
-180.0,76.0,6.387
-286.0,104.0,6.388
-263.0,109.0,6.389
-102.0,121.0,6.39
82.0,138.0,6.391
158.0,146.0,6.392
115.0,147.0,6.393
61.0,129.0,6.394
80.0,63.0,6.395
162.0,-54.0,6.396
259.0,-159.0,6.397
321.0,-224.0,6.398
283.0,-260.0,6.399
112.0,-286.0,6.4
-98.0,-286.0,6.401
-212.0,-234.0,6.402
-188.0,-167.0,6.403
-113.0,-124.0,6.404
-77.0,-101.0,6.405
-74.0,-79.0,6.406
-66.0,-75.0,6.407
-51.0,-91.0,6.408
-48.0,-93.0,6.409
-48.0,-57.0,6.41
-33.0,-4.0,6.411
-13.0,45.0,6.412
-8.0,100.0,6.413
-11.0,165.0,6.414
-1.0,208.0,6.415
15.0,209.0,6.416
20.0,192.0,6.417
13.0,181.0,6.418
8.0,175.0,6.419
6.0,150.0,6.42
4.0,95.0,6.421
1.0,20.0,6.422
8.0,-61.0,6.423
14.0,-120.0,6.424
10.0,-125.0,6.425
0.0,-89.0,6.426
1.0,-56.0,6.427
9.0,-49.0,6.428
5.0,-46.0,6.429
-20.0,-23.0,6.43
-53.0,1.0,6.431
-58.0,5.0,6.432
-25.0,-6.0,6.433
19.0,-9.0,6.434
44.0,1.0,6.435
45.0,18.0,6.436
35.0,37.0,6.437
16.0,50.0,6.438
-14.0,54.0,6.439
-47.0,47.0,6.44
-57.0,39.0,6.441
-28.0,47.0,6.442
30.0,59.0,6.443
90.0,64.0,6.444
103.0,64.0,6.445
41.0,69.0,6.446
-60.0,72.0,6.447
-120.0,71.0,6.448
-78.0,82.0,6.449
35.0,110.0,6.45
138.0,124.0,6.451
172.0,90.0,6.452
127.0,18.0,6.453
25.0,-65.0,6.454
-82.0,-145.0,6.455
-116.0,-215.0,6.456
-52.0,-247.0,6.457
59.0,-223.0,6.458
125.0,-164.0,6.459
118.0,-113.0,6.46
77.0,-86.0,6.461
24.0,-62.0,6.462
-36.0,-38.0,6.463
-69.0,-24.0,6.464
-47.0,-26.0,6.465
-8.0,-27.0,6.466
-4.0,-11.0,6.467
-22.0,24.0,6.468
-25.0,63.0,6.469
-16.0,82.0,6.47
-19.0,66.0,6.471
-21.0,39.0,6.472
-4.0,32.0,6.473
10.0,46.0,6.474
-1.0,45.0,6.475
-13.0,21.0,6.476
0.0,17.0,6.477
14.0,55.0,6.478
0.0,104.0,6.479
-21.0,110.0,6.48
-26.0,65.0,6.481
-32.0,20.0,6.482
-61.0,-4.0,6.483
-100.0,-16.0,6.484
-122.0,-27.0,6.485
-122.0,-27.0,6.486
-103.0,-15.0,6.487
-59.0,-10.0,6.488
8.0,-14.0,6.489
86.0,-21.0,6.49
148.0,-22.0,6.491
174.0,-20.0,6.492
158.0,-23.0,6.493
127.0,-28.0,6.494
123.0,-30.0,6.495
133.0,-33.0,6.496
119.0,-35.0,6.497
76.0,-34.0,6.498
52.0,-28.0,6.499
55.0,-21.0,6.5
37.0,-21.0,6.501
-23.0,-20.0,6.502
-80.0,-19.0,6.503
-101.0,-17.0,6.504
-98.0,-11.0,6.505
-83.0,3.0,6.506
-50.0,22.0,6.507
-8.0,38.0,6.508
4.0,48.0,6.509
-14.0,55.0,6.51
-35.0,62.0,6.511
-54.0,66.0,6.512
-89.0,61.0,6.513
-115.0,51.0,6.514
-90.0,39.0,6.515
-27.0,26.0,6.516
15.0,15.0,6.517
6.0,-2.0,6.518
-20.0,-18.0,6.519
-37.0,-37.0,6.52
-50.0,-56.0,6.521
-66.0,-60.0,6.522
-63.0,-48.0,6.523
-13.0,-21.0,6.524
65.0,6.0,6.525
137.0,22.0,6.526
172.0,13.0,6.527
149.0,-14.0,6.528
65.0,-44.0,6.529
-31.0,-73.0,6.53
-66.0,-97.0,6.531
-30.0,-109.0,6.532
19.0,-103.0,6.533
28.0,-80.0,6.534
14.0,-51.0,6.535
11.0,-24.0,6.536
25.0,-2.0,6.537
39.0,12.0,6.538
52.0,14.0,6.539
61.0,9.0,6.54
46.0,5.0,6.541
-4.0,21.0,6.542
-64.0,47.0,6.543
-93.0,74.0,6.544
-84.0,95.0,6.545
-54.0,108.0,6.546
-16.0,107.0,6.547
10.0,94.0,6.548
0.0,69.0,6.549
-44.0,37.0,6.55
-88.0,9.0,6.551
-106.0,-7.0,6.552
-106.0,-12.0,6.553
-74.0,-21.0,6.554
28.0,-39.0,6.555
165.0,-56.0,6.556
230.0,-58.0,6.557
164.0,-40.0,6.558
40.0,1.0,6.559
-29.0,55.0,6.56
-1.0,86.0,6.561
100.0,74.0,6.562
222.0,32.0,6.563
277.0,6.0,6.564
189.0,15.0,6.565
-3.0,27.0,6.566
-156.0,18.0,6.567
-201.0,9.0,6.568
-178.0,21.0,6.569
-139.0,34.0,6.57
-94.0,23.0,6.571
-73.0,3.0,6.572
-124.0,-6.0,6.573
-211.0,-12.0,6.574
-224.0,-29.0,6.575
-107.0,-45.0,6.576
79.0,-45.0,6.577
263.0,-41.0,6.578
343.0,-54.0,6.579
268.0,-86.0,6.58
115.0,-122.0,6.581
28.0,-132.0,6.582
42.0,-115.0,6.583
42.0,-80.0,6.584
-28.0,-48.0,6.585
-79.0,-26.0,6.586
-43.0,-11.0,6.587
-2.0,3.0,6.588
-31.0,15.0,6.589
-64.0,20.0,6.59
-33.0,22.0,6.591
15.0,23.0,6.592
16.0,23.0,6.593
3.0,22.0,6.594
22.0,22.0,6.595
29.0,26.0,6.596
-6.0,27.0,6.597
-47.0,22.0,6.598
-47.0,25.0,6.599
-35.0,35.0,6.6
-42.0,63.0,6.601
-48.0,92.0,6.602
-30.0,125.0,6.603
-13.0,147.0,6.604
-15.0,130.0,6.605
-15.0,107.0,6.606
-6.0,68.0,6.607
-10.0,18.0,6.608
-34.0,-63.0,6.609
-51.0,-136.0,6.61
-40.0,-187.0,6.611
-15.0,-211.0,6.612
10.0,-153.0,6.613
23.0,-102.0,6.614
12.0,-76.0,6.615
-13.0,-58.0,6.616
-16.0,-69.0,6.617
14.0,-70.0,6.618
54.0,-32.0,6.619
82.0,4.0,6.62
75.0,27.0,6.621
61.0,57.0,6.622
27.0,93.0,6.623
0.0,117.0,6.624
-9.0,131.0,6.625
-29.0,141.0,6.626
-82.0,116.0,6.627
-123.0,50.0,6.628
-129.0,-2.0,6.629
-92.0,6.0,6.63
81.0,37.0,6.631
210.0,24.0,6.632
206.0,-13.0,6.633
168.0,-16.0,6.634
33.0,3.0,6.635
-65.0,0.0,6.636
-52.0,-20.0,6.637
-26.0,-23.0,6.638
5.0,-7.0,6.639
-6.0,-9.0,6.64
14.0,-25.0,6.641
89.0,-12.0,6.642
154.0,28.0,6.643
166.0,65.0,6.644
153.0,83.0,6.645
116.0,89.0,6.646
30.0,85.0,6.647
-59.0,65.0,6.648
-67.0,33.0,6.649
-22.0,-16.0,6.65
-37.0,-84.0,6.651
-119.0,-148.0,6.652
-163.0,-166.0,6.653
-126.0,-139.0,6.654
-84.0,-104.0,6.655
-82.0,-76.0,6.656
-84.0,-45.0,6.657
-61.0,-15.0,6.658
-38.0,0.0,6.659
-40.0,5.0,6.66
-48.0,17.0,6.661
-50.0,40.0,6.662
-44.0,50.0,6.663
-26.0,44.0,6.664
4.0,36.0,6.665
32.0,22.0,6.666
45.0,-16.0,6.667
55.0,-68.0,6.668
61.0,-100.0,6.669
47.0,-97.0,6.67
20.0,-71.0,6.671
13.0,-40.0,6.672
34.0,-15.0,6.673
51.0,-4.0,6.674
42.0,-13.0,6.675
21.0,-32.0,6.676
8.0,-40.0,6.677
1.0,-35.0,6.678
0.0,-20.0,6.679
-4.0,-1.0,6.68
-9.0,19.0,6.681
-15.0,36.0,6.682
-11.0,44.0,6.683
4.0,51.0,6.684
18.0,60.0,6.685
22.0,59.0,6.686
30.0,43.0,6.687
49.0,30.0,6.688
57.0,46.0,6.689
36.0,79.0,6.69
-3.0,97.0,6.691
-22.0,83.0,6.692
-7.0,51.0,6.693
17.0,26.0,6.694
29.0,16.0,6.695
32.0,17.0,6.696
45.0,26.0,6.697
53.0,33.0,6.698
39.0,45.0,6.699
19.0,58.0,6.7
-22.0,67.0,6.701
-60.0,74.0,6.702
-88.0,79.0,6.703
-105.0,79.0,6.704
-87.0,66.0,6.705
-59.0,33.0,6.706
2.0,-17.0,6.707
47.0,-67.0,6.708
43.0,-104.0,6.709
18.0,-134.0,6.71
-63.0,-162.0,6.711
-109.0,-179.0,6.712
-46.0,-171.0,6.713
9.0,-141.0,6.714
39.0,-100.0,6.715
59.0,-46.0,6.716
46.0,16.0,6.717
43.0,73.0,6.718
74.0,104.0,6.719
74.0,97.0,6.72
33.0,67.0,6.721
-15.0,32.0,6.722
-42.0,-13.0,6.723
-42.0,-64.0,6.724
-21.0,-99.0,6.725
10.0,-104.0,6.726
38.0,-92.0,6.727
44.0,-80.0,6.728
29.0,-62.0,6.729
13.0,-26.0,6.73
9.0,13.0,6.731
8.0,33.0,6.732
1.0,32.0,6.733
-6.0,26.0,6.734
-8.0,23.0,6.735
-8.0,15.0,6.736
-4.0,8.0,6.737
6.0,6.0,6.738
20.0,19.0,6.739
18.0,34.0,6.74
1.0,43.0,6.741
1.0,64.0,6.742
34.0,95.0,6.743
61.0,112.0,6.744
43.0,97.0,6.745
-8.0,52.0,6.746
-45.0,0.0,6.747
-49.0,-38.0,6.748
-60.0,-34.0,6.749
-118.0,21.0,6.75
-190.0,83.0,6.751
-176.0,85.0,6.752
-18.0,21.0,6.753
196.0,-39.0,6.754
309.0,-46.0,6.755
258.0,-32.0,6.756
137.0,-37.0,6.757
38.0,-49.0,6.758
-7.0,-36.0,6.759
-38.0,-9.0,6.76
-83.0,0.0,6.761
-127.0,5.0,6.762
-137.0,19.0,6.763
-109.0,31.0,6.764
-66.0,16.0,6.765
-14.0,-15.0,6.766
58.0,-41.0,6.767
155.0,-56.0,6.768
214.0,-64.0,6.769
177.0,-57.0,6.77
74.0,-43.0,6.771
-12.0,-34.0,6.772
-44.0,-30.0,6.773
-51.0,-14.0,6.774
-55.0,12.0,6.775
-61.0,33.0,6.776
-81.0,47.0,6.777
-121.0,59.0,6.778
-127.0,66.0,6.779
-68.0,50.0,6.78
-1.0,14.0,6.781
4.0,-17.0,6.782
-23.0,-49.0,6.783
-14.0,-82.0,6.784
22.0,-97.0,6.785
24.0,-79.0,6.786
-10.0,-47.0,6.787
-31.0,-30.0,6.788
-25.0,-21.0,6.789
-15.0,-8.0,6.79
-1.0,0.0,6.791
22.0,-4.0,6.792
43.0,-3.0,6.793
48.0,28.0,6.794
46.0,81.0,6.795
44.0,127.0,6.796
45.0,151.0,6.797
36.0,152.0,6.798
22.0,137.0,6.799
-3.0,108.0,6.8
-33.0,40.0,6.801
-43.0,-34.0,6.802
-17.0,-126.0,6.803
16.0,-184.0,6.804
21.0,-140.0,6.805
5.0,-93.0,6.806
2.0,-42.0,6.807
17.0,-4.0,6.808
23.0,-8.0,6.809
15.0,-10.0,6.81
12.0,-4.0,6.811
16.0,8.0,6.812
13.0,41.0,6.813
5.0,76.0,6.814
6.0,117.0,6.815
19.0,131.0,6.816
26.0,64.0,6.817
18.0,-9.0,6.818
12.0,-64.0,6.819
5.0,-61.0,6.82
-4.0,-48.0,6.821
-12.0,-52.0,6.822
-18.0,-47.0,6.823
-21.0,-10.0,6.824
-11.0,31.0,6.825
-6.0,48.0,6.826
-15.0,64.0,6.827
-11.0,104.0,6.828
30.0,132.0,6.829
74.0,96.0,6.83
120.0,14.0,6.831
135.0,-66.0,6.832
52.0,-127.0,6.833
-31.0,-184.0,6.834
-111.0,-224.0,6.835
-151.0,-216.0,6.836
-69.0,-174.0,6.837
11.0,-127.0,6.838
28.0,-86.0,6.839
-50.0,-37.0,6.84
-119.0,15.0,6.841
-93.0,56.0,6.842
-11.0,79.0,6.843
33.0,97.0,6.844
18.0,111.0,6.845
-1.0,110.0,6.846
7.0,85.0,6.847
14.0,45.0,6.848
10.0,0.0,6.849
15.0,-35.0,6.85
31.0,-54.0,6.851
35.0,-52.0,6.852
24.0,-41.0,6.853
24.0,-25.0,6.854
34.0,-9.0,6.855
36.0,4.0,6.856
23.0,13.0,6.857
15.0,22.0,6.858
14.0,41.0,6.859
9.0,64.0,6.86
-1.0,69.0,6.861
1.0,55.0,6.862
15.0,40.0,6.863
19.0,45.0,6.864
4.0,65.0,6.865
-16.0,81.0,6.866
-17.0,75.0,6.867
3.0,49.0,6.868
32.0,18.0,6.869
41.0,0.0,6.87
16.0,3.0,6.871
-21.0,27.0,6.872
-33.0,74.0,6.873
-15.0,131.0,6.874
-5.0,153.0,6.875
-22.0,102.0,6.876
-40.0,15.0,6.877
-28.0,-53.0,6.878
11.0,-65.0,6.879
56.0,-58.0,6.88
98.0,-77.0,6.881
122.0,-115.0,6.882
86.0,-138.0,6.883
-22.0,-118.0,6.884
-134.0,-66.0,6.885
-159.0,-32.0,6.886
-97.0,-51.0,6.887
-21.0,-96.0,6.888
18.0,-109.0,6.889
37.0,-71.0,6.89
55.0,-28.0,6.891
58.0,-6.0,6.892
45.0,0.0,6.893
45.0,1.0,6.894
66.0,-26.0,6.895
84.0,-70.0,6.896
72.0,-90.0,6.897
23.0,-78.0,6.898
-44.0,-57.0,6.899
-100.0,-46.0,6.9
-109.0,-28.0,6.901
-59.0,5.0,6.902
-5.0,26.0,6.903
0.0,27.0,6.904
-34.0,29.0,6.905
-44.0,43.0,6.906
-18.0,55.0,6.907
-5.0,55.0,6.908
-24.0,51.0,6.909
-31.0,49.0,6.91
3.0,52.0,6.911
38.0,72.0,6.912
35.0,123.0,6.913
27.0,182.0,6.914
38.0,196.0,6.915
40.0,140.0,6.916
12.0,54.0,6.917
-18.0,-20.0,6.918
-13.0,-57.0,6.919
5.0,-64.0,6.92
-3.0,-61.0,6.921
-22.0,-53.0,6.922
-8.0,-54.0,6.923
29.0,-73.0,6.924
46.0,-91.0,6.925
32.0,-87.0,6.926
15.0,-62.0,6.927
16.0,-30.0,6.928
25.0,16.0,6.929
29.0,88.0,6.93
19.0,158.0,6.931
-9.0,162.0,6.932
-41.0,81.0,6.933
-52.0,-24.0,6.934
-32.0,-81.0,6.935
-2.0,-86.0,6.936
14.0,-81.0,6.937
10.0,-90.0,6.938
1.0,-97.0,6.939
9.0,-90.0,6.94
39.0,-81.0,6.941
71.0,-77.0,6.942
79.0,-67.0,6.943
63.0,-38.0,6.944
47.0,8.0,6.945
40.0,55.0,6.946
28.0,82.0,6.947
10.0,74.0,6.948
-9.0,45.0,6.949
-42.0,24.0,6.95
-95.0,22.0,6.951
-123.0,24.0,6.952
-77.0,24.0,6.953
-11.0,36.0,6.954
-21.0,63.0,6.955
-88.0,64.0,6.956
-89.0,14.0,6.957
12.0,-62.0,6.958
102.0,-95.0,6.959
74.0,-64.0,6.96
-9.0,-26.0,6.961
-47.0,-19.0,6.962
-42.0,-25.0,6.963
-40.0,-11.0,6.964
-25.0,13.0,6.965
15.0,20.0,6.966
36.0,5.0,6.967
17.0,-8.0,6.968
5.0,-3.0,6.969
22.0,25.0,6.97
17.0,67.0,6.971
-21.0,97.0,6.972
-27.0,88.0,6.973
24.0,47.0,6.974
63.0,17.0,6.975
51.0,17.0,6.976
38.0,24.0,6.977
49.0,9.0,6.978
40.0,-14.0,6.979
-8.0,-25.0,6.98
-35.0,-28.0,6.981
-7.0,-16.0,6.982
30.0,29.0,6.983
40.0,117.0,6.984
45.0,196.0,6.985
60.0,188.0,6.986
68.0,62.0,6.987
67.0,-123.0,6.988
68.0,-260.0,6.989
38.0,-281.0,6.99
-45.0,-218.0,6.991
-116.0,-152.0,6.992
-82.0,-118.0,6.993
24.0,-88.0,6.994
78.0,-34.0,6.995
26.0,25.0,6.996
-58.0,60.0,6.997
-109.0,61.0,6.998
-121.0,42.0,6.999
-110.0,22.0,7.0
-72.0,19.0,7.001
-17.0,51.0,7.002
29.0,95.0,7.003
45.0,99.0,7.004
36.0,38.0,7.005
8.0,-58.0,7.006
-45.0,-119.0,7.007
-88.0,-92.0,7.008
-68.0,15.0,7.009
11.0,131.0,7.01
89.0,174.0,7.011
109.0,133.0,7.012
85.0,80.0,7.013
53.0,75.0,7.014
21.0,86.0,7.015
-13.0,38.0,7.016
-33.0,-56.0,7.017
-42.0,-131.0,7.018
-64.0,-127.0,7.019
-107.0,-79.0,7.02
-113.0,-50.0,7.021
-24.0,-50.0,7.022
120.0,-65.0,7.023
209.0,-87.0,7.024
198.0,-94.0,7.025
130.0,-66.0,7.026
63.0,-31.0,7.027
8.0,-29.0,7.028
-28.0,-49.0,7.029
-24.0,-48.0,7.03
13.0,-20.0,7.031
39.0,6.0,7.032
16.0,46.0,7.033
-40.0,117.0,7.034
-82.0,170.0,7.035
-68.0,130.0,7.036
-4.0,34.0,7.037
59.0,-25.0,7.038
56.0,-6.0,7.039
-32.0,22.0,7.04
-141.0,6.0,7.041
-197.0,-5.0,7.042
-185.0,21.0,7.043
-134.0,27.0,7.044
-87.0,-23.0,7.045
-63.0,-57.0,7.046
-48.0,-9.0,7.047
-5.0,71.0,7.048
82.0,82.0,7.049
173.0,26.0,7.05
219.0,-14.0,7.051
215.0,-5.0,7.052
186.0,7.0,7.053
133.0,0.0,7.054
50.0,2.0,7.055
-31.0,28.0,7.056
-69.0,45.0,7.057
-61.0,31.0,7.058
-29.0,17.0,7.059
6.0,23.0,7.06
60.0,19.0,7.061
118.0,-18.0,7.062
146.0,-64.0,7.063
121.0,-83.0,7.064
63.0,-75.0,7.065
-4.0,-68.0,7.066
-83.0,-65.0,7.067
-169.0,-47.0,7.068
-212.0,-16.0,7.069
-174.0,19.0,7.07
-90.0,60.0,7.071
-45.0,102.0,7.072
-61.0,115.0,7.073
-76.0,81.0,7.074
-52.0,25.0,7.075
-22.0,-15.0,7.076
-22.0,-35.0,7.077
-32.0,-65.0,7.078
-25.0,-100.0,7.079
-20.0,-112.0,7.08
-34.0,-102.0,7.081
-28.0,-83.0,7.082
40.0,-42.0,7.083
140.0,43.0,7.084
184.0,133.0,7.085
130.0,144.0,7.086
28.0,61.0,7.087
-31.0,-26.0,7.088
-7.0,-36.0,7.089
61.0,1.0,7.09
88.0,9.0,7.091
15.0,-17.0,7.092
-119.0,-27.0,7.093
-188.0,-7.0,7.094
-104.0,4.0,7.095
54.0,-3.0,7.096
119.0,-7.0,7.097
22.0,1.0,7.098
-123.0,-6.0,7.099
-161.0,-45.0,7.1
-60.0,-83.0,7.101
88.0,-76.0,7.102
187.0,-34.0,7.103
205.0,5.0,7.104
170.0,30.0,7.105
139.0,39.0,7.106
147.0,25.0,7.107
163.0,-3.0,7.108
145.0,-3.0,7.109
92.0,39.0,7.11
22.0,72.0,7.111
-78.0,44.0,7.112
-199.0,-23.0,7.113
-260.0,-58.0,7.114
-215.0,-36.0,7.115
-149.0,13.0,7.116
-156.0,50.0,7.117
-189.0,60.0,7.118
-145.0,41.0,7.119
-90.0,0.0,7.12
-7.0,-42.0,7.121
74.0,-60.0,7.122
153.0,-44.0,7.123
212.0,1.0,7.124
209.0,63.0,7.125
191.0,114.0,7.126
132.0,132.0,7.127
88.0,125.0,7.128
86.0,113.0,7.129
73.0,91.0,7.13
26.0,50.0,7.131
-18.0,3.0,7.132
-57.0,-37.0,7.133
-111.0,-80.0,7.134
-208.0,-135.0,7.135
-274.0,-176.0,7.136
-247.0,-165.0,7.137
-194.0,-110.0,7.138
-52.0,-49.0,7.139
59.0,-21.0,7.14
86.0,-29.0,7.141
65.0,-45.0,7.142
80.0,-47.0,7.143
132.0,-29.0,7.144
140.0,-5.0,7.145
67.0,0.0,7.146
-4.0,-7.0,7.147
12.0,-3.0,7.148
87.0,23.0,7.149
132.0,49.0,7.15
99.0,52.0,7.151
3.0,41.0,7.152
-114.0,38.0,7.153
-195.0,42.0,7.154
-194.0,38.0,7.155
-124.0,22.0,7.156
-54.0,9.0,7.157
-15.0,10.0,7.158
-5.0,19.0,7.159
16.0,19.0,7.16
45.0,-1.0,7.161
66.0,-15.0,7.162
87.0,-10.0,7.163
117.0,-1.0,7.164
132.0,-21.0,7.165
106.0,-69.0,7.166
47.0,-93.0,7.167
-15.0,-65.0,7.168
-70.0,-31.0,7.169
-104.0,-40.0,7.17
-82.0,-70.0,7.171
12.0,-44.0,7.172
113.0,41.0,7.173
133.0,100.0,7.174
73.0,72.0,7.175
9.0,15.0,7.176
-22.0,20.0,7.177
-57.0,-76.0,7.178
-101.0,-57.0,7.179
-108.0,-37.0,7.18
-54.0,-16.0,7.181
26.0,2.0,7.182
98.0,10.0,7.183
160.0,10.0,7.184
190.0,-14.0,7.185
133.0,-39.0,7.186
-13.0,-53.0,7.187
-141.0,-59.0,7.188
-129.0,-35.0,7.189
7.0,-4.0,7.19
109.0,43.0,7.191
52.0,88.0,7.192
-96.0,113.0,7.193
-161.0,121.0,7.194
-88.0,71.0,7.195
0.0,20.0,7.196
0.0,-22.0,7.197
-65.0,-38.0,7.198
-91.0,-28.0,7.199
-54.0,-18.0,7.2
-4.0,-7.0,7.201
29.0,2.0,7.202
44.0,7.0,7.203
39.0,7.0,7.204
15.0,-6.0,7.205
-6.0,-19.0,7.206
-21.0,-26.0,7.207
-57.0,-29.0,7.208
-108.0,-17.0,7.209
-121.0,-1.0,7.21
-67.0,24.0,7.211
0.0,47.0,7.212
20.0,60.0,7.213
10.0,64.0,7.214
15.0,38.0,7.215
38.0,12.0,7.216
53.0,-10.0,7.217
58.0,-27.0,7.218
69.0,-21.0,7.219
68.0,-12.0,7.22
34.0,-5.0,7.221
3.0,4.0,7.222
30.0,4.0,7.223
109.0,1.0,7.224
163.0,16.0,7.225
147.0,53.0,7.226
80.0,88.0,7.227
11.0,92.0,7.228
-27.0,57.0,7.229
-38.0,-1.0,7.23
-39.0,-48.0,7.231
-52.0,-54.0,7.232
-66.0,-31.0,7.233
-44.0,-14.0,7.234
15.0,-11.0,7.235
50.0,6.0,7.236
35.0,38.0,7.237
2.0,37.0,7.238
-3.0,-7.0,7.239
3.0,-39.0,7.24
-1.0,-9.0,7.241
22.0,47.0,7.242
111.0,58.0,7.243
202.0,11.0,7.244
172.0,-38.0,7.245
-6.0,-60.0,7.246
-211.0,-56.0,7.247
-284.0,-36.0,7.248
-178.0,-11.0,7.249
-3.0,2.0,7.25
74.0,1.0,7.251
-1.0,0.0,7.252
-130.0,0.0,7.253
-185.0,-4.0,7.254
-150.0,-13.0,7.255
-78.0,-13.0,7.256
-3.0,-10.0,7.257
76.0,-32.0,7.258
105.0,-67.0,7.259
46.0,-82.0,7.26
-27.0,-66.0,7.261
-17.0,-38.0,7.262
38.0,-23.0,7.263
45.0,-13.0,7.264
14.0,9.0,7.265
22.0,33.0,7.266
58.0,35.0,7.267
49.0,14.0,7.268
9.0,-4.0,7.269
1.0,-3.0,7.27
14.0,5.0,7.271
8.0,10.0,7.272
1.0,24.0,7.273
29.0,49.0,7.274
50.0,63.0,7.275
29.0,43.0,7.276
14.0,12.0,7.277
45.0,5.0,7.278
84.0,29.0,7.279
60.0,60.0,7.28
2.0,82.0,7.281
-17.0,93.0,7.282
2.0,68.0,7.283
13.0,5.0,7.284
2.0,-49.0,7.285
-13.0,-57.0,7.286
-34.0,-39.0,7.287
-40.0,-40.0,7.288
15.0,-55.0,7.289
117.0,-52.0,7.29
161.0,-36.0,7.291
92.0,-39.0,7.292
-17.0,-53.0,7.293
-78.0,-49.0,7.294
-93.0,-28.0,7.295
-105.0,-8.0,7.296
-101.0,11.0,7.297
-52.0,12.0,7.298
18.0,12.0,7.299
41.0,12.0,7.3
6.0,15.0,7.301
-35.0,21.0,7.302
-40.0,35.0,7.303
-21.0,47.0,7.304
-7.0,55.0,7.305
-9.0,60.0,7.306
-11.0,54.0,7.307
-3.0,43.0,7.308
14.0,15.0,7.309
39.0,-5.0,7.31
75.0,3.0,7.311
98.0,2.0,7.312
61.0,-26.0,7.313
-38.0,-42.0,7.314
-130.0,-22.0,7.315
-139.0,-8.0,7.316
-78.0,-14.0,7.317
-18.0,12.0,7.318
0.0,12.0,7.319
14.0,12.0,7.32
14.0,15.0,7.321
17.0,21.0,7.322
31.0,35.0,7.323
37.0,47.0,7.324
11.0,55.0,7.325
-10.0,60.0,7.326
-20.0,54.0,7.327
-19.0,43.0,7.328
19.0,15.0,7.329
58.0,-5.0,7.33
94.0,3.0,7.331
129.0,2.0,7.332
157.0,-26.0,7.333
159.0,-42.0,7.334
78.0,-22.0,7.335
6.0,-8.0,7.336
-36.0,-14.0,7.337
-67.0,-18.0,7.338
-48.0,-7.0,7.339
-33.0,-9.0,7.34
-56.0,-39.0,7.341
-123.0,-67.0,7.342
-192.0,-74.0,7.343
-206.0,-66.0,7.344
-163.0,-54.0,7.345
-110.0,-39.0,7.346
-71.0,-25.0,7.347
-33.0,-16.0,7.348
-5.0,-2.0,7.349
-14.0,22.0,7.35
-28.0,41.0,7.351
9.0,36.0,7.352
82.0,21.0,7.353
108.0,15.0,7.354
73.0,11.0,7.355
46.0,-6.0,7.356
62.0,-23.0,7.357
74.0,-19.0,7.358
50.0,4.0,7.359
32.0,18.0,7.36
39.0,26.0,7.361
49.0,60.0,7.362
56.0,109.0,7.363
65.0,125.0,7.364
50.0,83.0,7.365
-14.0,21.0,7.366
-77.0,-13.0,7.367
-49.0,-16.0,7.368
71.0,-9.0,7.369
180.0,3.0,7.37
199.0,20.0,7.371
153.0,25.0,7.372
112.0,6.0,7.373
112.0,-21.0,7.374
131.0,-29.0,7.375
135.0,-19.0,7.376
100.0,-14.0,7.377
10.0,-23.0,7.378
-102.0,-25.0,7.379
-186.0,-19.0,7.38
-224.0,-17.0,7.381
-266.0,-23.0,7.382
-324.0,-22.0,7.383
-318.0,-13.0,7.384
-171.0,-9.0,7.385
25.0,-18.0,7.386
86.0,-23.0,7.387
-17.0,-11.0,7.388
-118.0,10.0,7.389
-100.0,23.0,7.39
-35.0,17.0,7.391
-8.0,-1.0,7.392
19.0,-18.0,7.393
84.0,-22.0,7.394
117.0,-9.0,7.395
76.0,3.0,7.396
37.0,4.0,7.397
60.0,3.0,7.398
96.0,13.0,7.399
82.0,20.0,7.4
54.0,17.0,7.401
53.0,14.0,7.402
47.0,12.0,7.403
20.0,9.0,7.404
24.0,1.0,7.405
61.0,-12.0,7.406
51.0,-38.0,7.407
-34.0,-60.0,7.408
-101.0,-70.0,7.409
-75.0,-70.0,7.41
-9.0,-39.0,7.411
11.0,-6.0,7.412
-7.0,31.0,7.413
-12.0,56.0,7.414
5.0,42.0,7.415
21.0,29.0,7.416
31.0,19.0,7.417
34.0,9.0,7.418
22.0,0.0,7.419
-2.0,-4.0,7.42
-12.0,-4.0,7.421
0.0,-2.0,7.422
19.0,-3.0,7.423
39.0,-4.0,7.424
69.0,1.0,7.425
101.0,6.0,7.426
116.0,4.0,7.427
123.0,-2.0,7.428
136.0,-2.0,7.429
124.0,0.0,7.43
33.0,0.0,7.431
-130.0,0.0,7.432
-279.0,-3.0,7.433
-329.0,-13.0,7.434
-271.0,-30.0,7.435
-156.0,-44.0,7.436
-56.0,-44.0,7.437
-3.0,-33.0,7.438
5.0,-11.0,7.439
16.0,11.0,7.44
61.0,38.0,7.441
111.0,60.0,7.442
119.0,64.0,7.443
86.0,67.0,7.444
51.0,64.0,7.445
35.0,56.0,7.446
32.0,34.0,7.447
30.0,14.0,7.448
34.0,0.0,7.449
33.0,-11.0,7.45
32.0,-11.0,7.451
44.0,-10.0,7.452
85.0,-10.0,7.453
143.0,-10.0,7.454
184.0,-15.0,7.455
178.0,-19.0,7.456
131.0,-19.0,7.457
55.0,-16.0,7.458
-44.0,-11.0,7.459
-171.0,-17.0,7.46
-288.0,-26.0,7.461
-309.0,-24.0,7.462
-217.0,-13.0,7.463
-128.0,-7.0,7.464
-144.0,-7.0,7.465
-191.0,-7.0,7.466
-132.0,-10.0,7.467
0.0,-15.0,7.468
55.0,-15.0,7.469
11.0,-10.0,7.47
-11.0,-4.0,7.471
35.0,-4.0,7.472
68.0,-6.0,7.473
47.0,-6.0,7.474
40.0,-4.0,7.475
72.0,2.0,7.476
86.0,10.0,7.477
60.0,12.0,7.478
43.0,9.0,7.479
60.0,6.0,7.48
70.0,7.0,7.481
55.0,9.0,7.482
56.0,13.0,7.483
77.0,15.0,7.484
71.0,6.0,7.485
30.0,-1.0,7.486
-1.0,-2.0,7.487
-1.0,-4.0,7.488
-1.0,-7.0,7.489
-4.0,-10.0,7.49
9.0,-10.0,7.491
32.0,-11.0,7.492
32.0,-18.0,7.493
23.0,-26.0,7.494
42.0,-34.0,7.495
75.0,-39.0,7.496
73.0,-29.0,7.497
21.0,-17.0,7.498
-25.0,3.0,7.499
-60.0,21.0,7.5
-57.0,31.0,7.501
-53.0,34.0,7.502
-48.0,33.0,7.503
-37.0,34.0,7.504
-11.0,38.0,7.505
4.0,39.0,7.506
-13.0,31.0,7.507
-24.0,21.0,7.508
-14.0,20.0,7.509
-4.0,19.0,7.51
4.0,4.0,7.511
16.0,-21.0,7.512
41.0,-36.0,7.513
62.0,-34.0,7.514
72.0,-29.0,7.515
78.0,-22.0,7.516
68.0,-6.0,7.517
57.0,11.0,7.518
36.0,19.0,7.519
11.0,15.0,7.52
-21.0,8.0,7.521
-64.0,3.0,7.522
-89.0,-7.0,7.523
-69.0,-12.0,7.524
-40.0,-2.0,7.525
-56.0,8.0,7.526
-105.0,1.0,7.527
-127.0,-12.0,7.528
-112.0,-12.0,7.529
-102.0,-8.0,7.53
-79.0,-12.0,7.531
9.0,-15.0,7.532
135.0,-3.0,7.533
190.0,10.0,7.534
134.0,5.0,7.535
47.0,-6.0,7.536
-6.0,-3.0,7.537
