Deltoid,Bicep,Time
2.0,-13.0,0.0
-2.0,-11.0,0.001
2.0,-6.0,0.002
9.0,-5.0,0.003
13.0,-4.0,0.004
15.0,-1.0,0.005
14.0,0.0,0.006
8.0,2.0,0.007
-4.0,4.0,0.008
-14.0,6.0,0.009
-12.0,7.0,0.01
-2.0,8.0,0.011
4.0,9.0,0.012
5.0,9.0,0.013
8.0,1.0,0.014
18.0,-8.0,0.015
28.0,-13.0,0.016
27.0,-9.0,0.017
14.0,-9.0,0.018
-5.0,-8.0,0.019
-21.0,-8.0,0.02
-32.0,-10.0,0.021
-36.0,-9.0,0.022
-32.0,-3.0,0.023
-19.0,4.0,0.024
-1.0,8.0,0.025
16.0,8.0,0.026
23.0,6.0,0.027
24.0,3.0,0.028
24.0,2.0,0.029
20.0,4.0,0.03
5.0,8.0,0.031
-18.0,9.0,0.032
-31.0,4.0,0.033
-25.0,-1.0,0.034
-14.0,-4.0,0.035
-14.0,-6.0,0.036
-20.0,-5.0,0.037
-16.0,-10.0,0.038
2.0,-3.0,0.039
16.0,0.0,0.04
15.0,-4.0,0.041
10.0,-7.0,0.042
15.0,-3.0,0.043
22.0,0.0,0.044
22.0,1.0,0.045
16.0,3.0,0.046
15.0,6.0,0.047
18.0,9.0,0.048
19.0,9.0,0.049
15.0,8.0,0.05
11.0,11.0,0.051
6.0,13.0,0.052
3.0,11.0,0.053
4.0,8.0,0.054
11.0,4.0,0.055
13.0,0.0,0.056
9.0,-8.0,0.057
5.0,-9.0,0.058
9.0,-3.0,0.059
11.0,0.0,0.06
3.0,-4.0,0.061
-4.0,-6.0,0.062
-4.0,-3.0,0.063
-6.0,0.0,0.064
-14.0,1.0,0.065
-18.0,3.0,0.066
-10.0,6.0,0.067
-1.0,9.0,0.068
4.0,9.0,0.069
8.0,8.0,0.07
5.0,10.0,0.071
1.0,12.0,0.072
0.0,10.0,0.073
-2.0,8.0,0.074
-2.0,4.0,0.075
-1.0,0.0,0.076
3.0,-7.0,0.077
7.0,-12.0,0.078
3.0,-8.0,0.079
0.0,-2.0,0.08
4.0,-5.0,0.081
9.0,-7.0,0.082
11.0,-5.0,0.083
7.0,1.0,0.084
2.0,4.0,0.085
0.0,0.0,0.086
-2.0,-5.0,0.087
-6.0,-4.0,0.088
-7.0,2.0,0.089
-4.0,5.0,0.09
1.0,0.0,0.091
5.0,-7.0,0.092
9.0,-6.0,0.093
16.0,0.0,0.094
24.0,2.0,0.095
26.0,-2.0,0.096
22.0,0.0,0.097
14.0,4.0,0.098
1.0,7.0,0.099
-13.0,4.0,0.1
-24.0,2.0,0.101
-22.0,6.0,0.102
-9.0,7.0,0.103
6.0,4.0,0.104
11.0,1.0,0.105
4.0,3.0,0.106
-5.0,-1.0,0.107
-8.0,-12.0,0.108
-7.0,-15.0,0.109
-4.0,-4.0,0.11
-6.0,9.0,0.111
-7.0,9.0,0.112
-1.0,0.0,0.113
8.0,-5.0,0.114
16.0,-3.0,0.115
21.0,-4.0,0.116
25.0,-9.0,0.117
23.0,-11.0,0.118
14.0,-7.0,0.119
1.0,-4.0,0.12
-5.0,-4.0,0.121
-4.0,-4.0,0.122
-2.0,-1.0,0.123
-3.0,2.0,0.124
-3.0,2.0,0.125
-1.0,2.0,0.126
0.0,1.0,0.127
-5.0,0.0,0.128
-12.0,0.0,0.129
-12.0,1.0,0.13
-7.0,1.0,0.131
-3.0,2.0,0.132
1.0,3.0,0.133
5.0,4.0,0.134
7.0,6.0,0.135
3.0,9.0,0.136
3.0,8.0,0.137
8.0,6.0,0.138
15.0,0.0,0.139
21.0,-4.0,0.14
19.0,-8.0,0.141
17.0,-9.0,0.142
14.0,-10.0,0.143
9.0,-10.0,0.144
-2.0,-7.0,0.145
-9.0,-5.0,0.146
-3.0,-7.0,0.147
2.0,-10.0,0.148
2.0,-5.0,0.149
0.0,4.0,0.15
-1.0,8.0,0.151
-4.0,5.0,0.152
-4.0,3.0,0.153
-2.0,2.0,0.154
3.0,0.0,0.155
8.0,-4.0,0.156
7.0,1.0,0.157
6.0,9.0,0.158
3.0,9.0,0.159
0.0,0.0,0.16
-3.0,-11.0,0.161
-1.0,-10.0,0.162
11.0,-3.0,0.163
23.0,2.0,0.164
25.0,4.0,0.165
14.0,3.0,0.166
0.0,4.0,0.167
-7.0,5.0,0.168
-12.0,5.0,0.169
-21.0,-2.0,0.17
-29.0,-11.0,0.171
-25.0,-13.0,0.172
-10.0,-9.0,0.173
4.0,-4.0,0.174
3.0,-2.0,0.175
-5.0,0.0,0.176
-3.0,5.0,0.177
6.0,4.0,0.178
13.0,1.0,0.179
9.0,1.0,0.18
10.0,0.0,0.181
16.0,0.0,0.182
21.0,-3.0,0.183
16.0,-4.0,0.184
4.0,2.0,0.185
-2.0,9.0,0.186
-3.0,8.0,0.187
-5.0,2.0,0.188
-7.0,-4.0,0.189
-5.0,-5.0,0.19
2.0,-2.0,0.191
8.0,2.0,0.192
3.0,6.0,0.193
-5.0,7.0,0.194
-8.0,4.0,0.195
0.0,-4.0,0.196
10.0,-8.0,0.197
15.0,8.0,0.198
13.0,6.0,0.199
8.0,0.0,0.2
3.0,-9.0,0.201
0.0,-12.0,0.202
1.0,-14.0,0.203
6.0,-14.0,0.204
5.0,-12.0,0.205
0.0,-9.0,0.206
-1.0,-7.0,0.207
3.0,-5.0,0.208
7.0,-2.0,0.209
11.0,3.0,0.21
17.0,6.0,0.211
20.0,8.0,0.212
15.0,11.0,0.213
5.0,9.0,0.214
-1.0,0.0,0.215
-4.0,-5.0,0.216
-10.0,-3.0,0.217
-20.0,0.0,0.218
-25.0,-1.0,0.219
-26.0,-3.0,0.22
-12.0,-6.0,0.221
0.0,-8.0,0.222
10.0,-10.0,0.223
18.0,-7.0,0.224
12.0,1.0,0.225
10.0,8.0,0.226
19.0,2.0,0.227
25.0,-6.0,0.228
23.0,-7.0,0.229
19.0,0.0,0.23
9.0,3.0,0.231
2.0,-1.0,0.232
2.0,-4.0,0.233
3.0,-3.0,0.234
3.0,-1.0,0.235
3.0,-2.0,0.236
8.0,-2.0,0.237
12.0,-1.0,0.238
5.0,3.0,0.239
-2.0,6.0,0.24
2.0,4.0,0.241
16.0,0.0,0.242
22.0,1.0,0.243
9.0,6.0,0.244
-14.0,13.0,0.245
-26.0,18.0,0.246
-25.0,13.0,0.247
-27.0,3.0,0.248
-32.0,-4.0,0.249
-34.0,-9.0,0.25
-29.0,-5.0,0.251
-21.0,8.0,0.252
-15.0,17.0,0.253
-7.0,6.0,0.254
1.0,-15.0,0.255
10.0,-22.0,0.256
13.0,-10.0,0.257
13.0,1.0,0.258
15.0,1.0,0.259
16.0,-7.0,0.26
18.0,-12.0,0.261
20.0,-11.0,0.262
23.0,-10.0,0.263
19.0,-7.0,0.264
12.0,-2.0,0.265
12.0,2.0,0.266
19.0,1.0,0.267
26.0,-2.0,0.268
26.0,0.0,0.269
21.0,3.0,0.27
16.0,5.0,0.271
11.0,7.0,0.272
7.0,6.0,0.273
10.0,1.0,0.274
17.0,-4.0,0.275
17.0,-6.0,0.276
11.0,-2.0,0.277
6.0,-2.0,0.278
2.0,-8.0,0.279
-10.0,-11.0,0.28
-29.0,-9.0,0.281
-39.0,-4.0,0.282
-29.0,-2.0,0.283
-15.0,-1.0,0.284
-13.0,3.0,0.285
-21.0,9.0,0.286
-22.0,9.0,0.287
-12.0,7.0,0.288
1.0,5.0,0.289
7.0,5.0,0.29
5.0,4.0,0.291
0.0,2.0,0.292
-2.0,2.0,0.293
1.0,2.0,0.294
9.0,1.0,0.295
11.0,2.0,0.296
7.0,6.0,0.297
3.0,4.0,0.298
8.0,-2.0,0.299
14.0,-10.0,0.3
8.0,-14.0,0.301
-1.0,-9.0,0.302
4.0,-3.0,0.303
20.0,-1.0,0.304
23.0,0.0,0.305
9.0,0.0,0.306
-6.0,0.0,0.307
-9.0,2.0,0.308
-6.0,7.0,0.309
-6.0,12.0,0.31
-4.0,14.0,0.311
3.0,13.0,0.312
6.0,11.0,0.313
1.0,8.0,0.314
-3.0,0.0,0.315
0.0,-12.0,0.316
7.0,-19.0,0.317
6.0,-20.0,0.318
0.0,-15.0,0.319
-6.0,-11.0,0.32
-6.0,-13.0,0.321
-1.0,-11.0,0.322
11.0,-6.0,0.323
21.0,-6.0,0.324
19.0,-8.0,0.325
4.0,-5.0,0.326
-8.0,-1.0,0.327
-6.0,3.0,0.328
1.0,5.0,0.329
2.0,6.0,0.33
-3.0,9.0,0.331
0.0,5.0,0.332
10.0,-2.0,0.333
18.0,-2.0,0.334
19.0,8.0,0.335
14.0,18.0,0.336
12.0,16.0,0.337
16.0,-1.0,0.338
21.0,-18.0,0.339
18.0,-22.0,0.34
6.0,-17.0,0.341
-2.0,-10.0,0.342
0.0,-9.0,0.343
6.0,-9.0,0.344
5.0,-5.0,0.345
5.0,0.0,0.346
13.0,2.0,0.347
16.0,4.0,0.348
3.0,10.0,0.349
-20.0,17.0,0.35
-31.0,17.0,0.351
-27.0,12.0,0.352
-21.0,8.0,0.353
-17.0,4.0,0.354
-6.0,3.0,0.355
7.0,1.0,0.356
11.0,3.0,0.357
0.0,4.0,0.358
-4.0,1.0,0.359
0.0,-2.0,0.36
5.0,-8.0,0.361
5.0,-10.0,0.362
8.0,-11.0,0.363
17.0,-8.0,0.364
22.0,-2.0,0.365
14.0,3.0,0.366
4.0,3.0,0.367
5.0,-1.0,0.368
15.0,-2.0,0.369
19.0,0.0,0.37
17.0,2.0,0.371
10.0,1.0,0.372
1.0,3.0,0.373
-7.0,6.0,0.374
-15.0,7.0,0.375
-22.0,3.0,0.376
-27.0,-2.0,0.377
-24.0,-7.0,0.378
-7.0,-7.0,0.379
12.0,-5.0,0.38
17.0,-9.0,0.381
9.0,-12.0,0.382
8.0,-9.0,0.383
13.0,-3.0,0.384
10.0,4.0,0.385
-6.0,9.0,0.386
-14.0,11.0,0.387
-7.0,10.0,0.388
0.0,4.0,0.389
-4.0,-6.0,0.39
-9.0,-13.0,0.391
0.0,-13.0,0.392
9.0,-8.0,0.393
4.0,0.0,0.394
-3.0,6.0,0.395
0.0,5.0,0.396
8.0,4.0,0.397
8.0,3.0,0.398
4.0,3.0,0.399
5.0,1.0,0.4
10.0,-5.0,0.401
12.0,-11.0,0.402
14.0,-11.0,0.403
17.0,-5.0,0.404
15.0,5.0,0.405
5.0,15.0,0.406
1.0,12.0,0.407
7.0,-3.0,0.408
13.0,-20.0,0.409
11.0,-24.0,0.41
9.0,-15.0,0.411
9.0,-5.0,0.412
8.0,-1.0,0.413
0.0,2.0,0.414
-7.0,6.0,0.415
-8.0,8.0,0.416
-4.0,9.0,0.417
1.0,8.0,0.418
2.0,5.0,0.419
-2.0,1.0,0.42
-10.0,-3.0,0.421
-14.0,-4.0,0.422
-7.0,-2.0,0.423
1.0,1.0,0.424
3.0,3.0,0.425
0.0,2.0,0.426
1.0,2.0,0.427
5.0,3.0,0.428
6.0,2.0,0.429
2.0,-1.0,0.43
5.0,-5.0,0.431
13.0,-7.0,0.432
12.0,-5.0,0.433
2.0,-1.0,0.434
-4.0,-1.0,0.435
-1.0,-4.0,0.436
2.0,-5.0,0.437
-3.0,-3.0,0.438
-7.0,-1.0,0.439
-6.0,-4.0,0.44
-1.0,-9.0,0.441
5.0,-6.0,0.442
14.0,-1.0,0.443
19.0,1.0,0.444
19.0,3.0,0.445
17.0,6.0,0.446
27.0,8.0,0.447
42.0,7.0,0.448
40.0,7.0,0.449
14.0,11.0,0.45
-15.0,12.0,0.451
-25.0,2.0,0.452
-23.0,-11.0,0.453
-23.0,-17.0,0.454
-22.0,-13.0,0.455
-9.0,-4.0,0.456
11.0,4.0,0.457
20.0,5.0,0.458
17.0,0.0,0.459
11.0,-8.0,0.46
7.0,-16.0,0.461
1.0,-18.0,0.462
-5.0,-16.0,0.463
-10.0,-12.0,0.464
-18.0,-5.0,0.465
-26.0,1.0,0.466
-35.0,1.0,0.467
-33.0,-2.0,0.468
-18.0,0.0,0.469
0.0,7.0,0.47
12.0,9.0,0.471
17.0,7.0,0.472
16.0,6.0,0.473
12.0,10.0,0.474
6.0,11.0,0.475
2.0,8.0,0.476
2.0,5.0,0.477
6.0,5.0,0.478
6.0,5.0,0.479
6.0,4.0,0.48
11.0,2.0,0.481
19.0,2.0,0.482
22.0,-4.0,0.483
17.0,-13.0,0.484
8.0,-13.0,0.485
1.0,0.0,0.486
-4.0,9.0,0.487
-12.0,1.0,0.488
-14.0,-7.0,0.489
-6.0,-3.0,0.49
4.0,6.0,0.491
8.0,6.0,0.492
6.0,0.0,0.493
7.0,1.0,0.494
9.0,4.0,0.495
11.0,4.0,0.496
13.0,6.0,0.497
13.0,9.0,0.498
15.0,11.0,0.499
14.0,2.0,0.5
12.0,-12.0,0.501
11.0,-16.0,0.502
12.0,-13.0,0.503
12.0,-7.0,0.504
7.0,-5.0,0.505
2.0,-5.0,0.506
0.0,-8.0,0.507
0.0,-12.0,0.508
-1.0,-12.0,0.509
-1.0,-7.0,0.51
2.0,-2.0,0.511
3.0,-2.0,0.512
2.0,-2.0,0.513
-2.0,5.0,0.514
-3.0,10.0,0.515
-4.0,7.0,0.516
-4.0,2.0,0.517
-8.0,-1.0,0.518
-10.0,-1.0,0.519
-9.0,-3.0,0.52
-8.0,-8.0,0.521
-5.0,-5.0,0.522
6.0,3.0,0.523
19.0,7.0,0.524
22.0,4.0,0.525
14.0,0.0,0.526
4.0,1.0,0.527
3.0,6.0,0.528
0.0,10.0,0.529
-10.0,8.0,0.53
-21.0,-3.0,0.531
-22.0,-15.0,0.532
-15.0,-20.0,0.533
-8.0,-12.0,0.534
-4.0,0.0,0.535
-3.0,5.0,0.536
-3.0,3.0,0.537
-5.0,-2.0,0.538
-6.0,-4.0,0.539
-5.0,-3.0,0.54
-7.0,-2.0,0.541
-10.0,4.0,0.542
-2.0,8.0,0.543
16.0,7.0,0.544
29.0,4.0,0.545
30.0,6.0,0.546
32.0,7.0,0.547
41.0,2.0,0.548
43.0,-4.0,0.549
28.0,-2.0,0.55
6.0,4.0,0.551
-8.0,4.0,0.552
-15.0,-1.0,0.553
-23.0,-4.0,0.554
-29.0,-5.0,0.555
-24.0,-6.0,0.556
-12.0,-6.0,0.557
-3.0,-5.0,0.558
-2.0,-2.0,0.559
-2.0,-2.0,0.56
0.0,-6.0,0.561
2.0,-4.0,0.562
0.0,-1.0,0.563
1.0,0.0,0.564
6.0,-3.0,0.565
11.0,-5.0,0.566
8.0,-2.0,0.567
4.0,1.0,0.568
5.0,6.0,0.569
13.0,11.0,0.57
18.0,12.0,0.571
19.0,5.0,0.572
15.0,-5.0,0.573
9.0,-11.0,0.574
1.0,-9.0,0.575
-4.0,-3.0,0.576
-3.0,3.0,0.577
4.0,2.0,0.578
12.0,1.0,0.579
6.0,0.0,0.58
-5.0,-1.0,0.581
-10.0,-3.0,0.582
-1.0,-4.0,0.583
10.0,-4.0,0.584
8.0,2.0,0.585
-2.0,6.0,0.586
-2.0,0.0,0.587
8.0,-2.0,0.588
13.0,3.0,0.589
8.0,8.0,0.59
3.0,5.0,0.591
6.0,1.0,0.592
6.0,0.0,0.593
2.0,-1.0,0.594
2.0,0.0,0.595
9.0,2.0,0.596
14.0,0.0,0.597
5.0,-3.0,0.598
-3.0,-6.0,0.599
-4.0,-8.0,0.6
5.0,-9.0,0.601
18.0,-7.0,0.602
32.0,-2.0,0.603
37.0,2.0,0.604
22.0,6.0,0.605
-5.0,6.0,0.606
-24.0,-2.0,0.607
-28.0,-8.0,0.608
-34.0,-6.0,0.609
-46.0,1.0,0.61
-51.0,3.0,0.611
-34.0,-2.0,0.612
-6.0,-5.0,0.613
12.0,-4.0,0.614
13.0,-1.0,0.615
4.0,1.0,0.616
3.0,4.0,0.617
13.0,7.0,0.618
5.0,7.0,0.619
1.0,4.0,0.62
-3.0,0.0,0.621
-3.0,1.0,0.622
4.0,5.0,0.623
13.0,2.0,0.624
13.0,-5.0,0.625
10.0,-12.0,0.626
4.0,-13.0,0.627
2.0,-8.0,0.628
5.0,-3.0,0.629
7.0,2.0,0.63
3.0,9.0,0.631
1.0,11.0,0.632
-1.0,7.0,0.633
-3.0,-2.0,0.634
-1.0,-5.0,0.635
-2.0,-1.0,0.636
-11.0,0.0,0.637
14.0,-4.0,0.638
6.0,-8.0,0.639
0.0,-8.0,0.64
-4.0,-11.0,0.641
-4.0,-15.0,0.642
5.0,-12.0,0.643
14.0,-2.0,0.644
14.0,3.0,0.645
11.0,-2.0,0.646
5.0,-5.0,0.647
2.0,0.0,0.648
6.0,6.0,0.649
8.0,4.0,0.65
4.0,0.0,0.651
0.0,1.0,0.652
-2.0,5.0,0.653
-4.0,7.0,0.654
-2.0,3.0,0.655
-3.0,-2.0,0.656
-12.0,-1.0,0.657
-24.0,1.0,0.658
-30.0,3.0,0.659
-22.0,3.0,0.66
-11.0,-8.0,0.661
-10.0,-15.0,0.662
-6.0,-9.0,0.663
10.0,-4.0,0.664
30.0,-1.0,0.665
32.0,2.0,0.666
23.0,0.0,0.667
21.0,-1.0,0.668
23.0,0.0,0.669
12.0,2.0,0.67
-5.0,5.0,0.671
-12.0,8.0,0.672
-9.0,8.0,0.673
-8.0,9.0,0.674
-7.0,9.0,0.675
-2.0,8.0,0.676
4.0,6.0,0.677
3.0,2.0,0.678
1.0,-5.0,0.679
3.0,-10.0,0.68
4.0,-12.0,0.681
3.0,-6.0,0.682
7.0,1.0,0.683
19.0,6.0,0.684
25.0,4.0,0.685
20.0,-1.0,0.686
11.0,-6.0,0.687
9.0,-9.0,0.688
6.0,-9.0,0.689
0.0,-6.0,0.69
-5.0,-5.0,0.691
-6.0,-6.0,0.692
-5.0,-3.0,0.693
-4.0,3.0,0.694
-1.0,4.0,0.695
10.0,0.0,0.696
23.0,0.0,0.697
28.0,3.0,0.698
22.0,4.0,0.699
14.0,-4.0,0.7
2.0,-12.0,0.701
-9.0,-8.0,0.702
-13.0,1.0,0.703
-18.0,4.0,0.704
-25.0,2.0,0.705
-27.0,1.0,0.706
-12.0,1.0,0.707
-1.0,-1.0,0.708
0.0,-5.0,0.709
2.0,-8.0,0.71
3.0,-4.0,0.711
2.0,2.0,0.712
-3.0,4.0,0.713
-8.0,1.0,0.714
-11.0,-3.0,0.715
-14.0,-1.0,0.716
-15.0,4.0,0.717
-12.0,2.0,0.718
4.0,-2.0,0.719
25.0,-2.0,0.72
36.0,-3.0,0.721
41.0,-2.0,0.722
39.0,0.0,0.723
29.0,6.0,0.724
9.0,9.0,0.725
-12.0,10.0,0.726
-22.0,10.0,0.727
-26.0,10.0,0.728
-27.0,4.0,0.729
-20.0,-8.0,0.73
-3.0,-16.0,0.731
8.0,-14.0,0.732
3.0,-8.0,0.733
-3.0,-6.0,0.734
1.0,-8.0,0.735
13.0,-12.0,0.736
16.0,-12.0,0.737
11.0,-10.0,0.738
9.0,-4.0,0.739
11.0,1.0,0.74
6.0,-4.0,0.741
-2.0,-8.0,0.742
-2.0,-9.0,0.743
4.0,-3.0,0.744
6.0,5.0,0.745
1.0,8.0,0.746
2.0,9.0,0.747
12.0,9.0,0.748
18.0,10.0,0.749
16.0,8.0,0.75
13.0,3.0,0.751
14.0,0.0,0.752
13.0,1.0,0.753
3.0,4.0,0.754
-4.0,9.0,0.755
-6.0,8.0,0.756
-3.0,3.0,0.757
-2.0,-6.0,0.758
-1.0,-5.0,0.759
-3.0,3.0,0.76
-4.0,2.0,0.761
-3.0,-8.0,0.762
-1.0,-14.0,0.763
3.0,-9.0,0.764
6.0,0.0,0.765
3.0,1.0,0.766
-3.0,-4.0,0.767
-7.0,-4.0,0.768
-3.0,-2.0,0.769
4.0,-1.0,0.77
10.0,0.0,0.771
9.0,3.0,0.772
5.0,7.0,0.773
3.0,6.0,0.774
5.0,1.0,0.775
10.0,-2.0,0.776
21.0,-2.0,0.777
34.0,-3.0,0.778
37.0,-3.0,0.779
24.0,-4.0,0.78
3.0,-7.0,0.781
-14.0,-8.0,0.782
-22.0,-5.0,0.783
-27.0,-4.0,0.784
-31.0,-3.0,0.785
-28.0,0.0,0.786
-16.0,6.0,0.787
2.0,4.0,0.788
10.0,-4.0,0.789
0.0,-6.0,0.79
-14.0,0.0,0.791
-15.0,7.0,0.792
-7.0,7.0,0.793
-5.0,4.0,0.794
-8.0,4.0,0.795
-7.0,5.0,0.796
-3.0,5.0,0.797
-6.0,3.0,0.798
-10.0,7.0,0.799
-3.0,9.0,0.8
11.0,-1.0,0.801
18.0,-11.0,0.802
19.0,-16.0,0.803
22.0,-14.0,0.804
25.0,-14.0,0.805
20.0,-13.0,0.806
15.0,-9.0,0.807
18.0,-1.0,0.808
22.0,4.0,0.809
16.0,3.0,0.81
2.0,2.0,0.811
-4.0,7.0,0.812
-2.0,13.0,0.813
-2.0,14.0,0.814
-3.0,12.0,0.815
0.0,12.0,0.816
6.0,16.0,0.817
7.0,22.0,0.818
3.0,21.0,0.819
-1.0,9.0,0.82
-2.0,-15.0,0.821
-2.0,-36.0,0.822
4.0,-42.0,0.823
13.0,-33.0,0.824
17.0,-20.0,0.825
12.0,-12.0,0.826
3.0,-10.0,0.827
2.0,-7.0,0.828
2.0,-1.0,0.829
-2.0,3.0,0.83
-9.0,3.0,0.831
-10.0,2.0,0.832
-6.0,5.0,0.833
-3.0,8.0,0.834
-2.0,6.0,0.835
3.0,2.0,0.836
11.0,1.0,0.837
16.0,2.0,0.838
16.0,3.0,0.839
14.0,3.0,0.84
10.0,0.0,0.841
6.0,-1.0,0.842
5.0,-5.0,0.843
1.0,-10.0,0.844
-9.0,-7.0,0.845
-19.0,0.0,0.846
-15.0,3.0,0.847
-3.0,2.0,0.848
8.0,1.0,0.849
11.0,4.0,0.85
12.0,7.0,0.851
10.0,5.0,0.852
-5.0,3.0,0.853
-26.0,3.0,0.854
-36.0,5.0,0.855
-34.0,4.0,0.856
-28.0,2.0,0.857
-23.0,2.0,0.858
-12.0,3.0,0.859
0.0,1.0,0.86
7.0,-5.0,0.861
12.0,-8.0,0.862
24.0,-7.0,0.863
38.0,-5.0,0.864
37.0,-2.0,0.865
23.0,2.0,0.866
13.0,3.0,0.867
14.0,-3.0,0.868
17.0,-11.0,0.869
12.0,-11.0,0.87
6.0,-1.0,0.871
4.0,9.0,0.872
5.0,11.0,0.873
3.0,6.0,0.874
0.0,-2.0,0.875
-3.0,-6.0,0.876
-6.0,-5.0,0.877
-4.0,-4.0,0.878
0.0,-4.0,0.879
0.0,-3.0,0.88
-4.0,-2.0,0.881
-4.0,-1.0,0.882
8.0,-4.0,0.883
20.0,-9.0,0.884
18.0,-8.0,0.885
7.0,-1.0,0.886
2.0,2.0,0.887
5.0,1.0,0.888
4.0,3.0,0.889
-2.0,8.0,0.89
-6.0,7.0,0.891
2.0,2.0,0.892
13.0,0.0,0.893
13.0,3.0,0.894
5.0,4.0,0.895
-3.0,1.0,0.896
-8.0,1.0,0.897
-13.0,2.0,0.898
-16.0,0.0,0.899
-17.0,0.0,0.9
-14.0,-1.0,0.901
-4.0,0.0,0.902
11.0,-2.0,0.903
21.0,-3.0,0.904
17.0,-1.0,0.905
4.0,1.0,0.906
-1.0,-1.0,0.907
5.0,-3.0,0.908
9.0,-3.0,0.909
6.0,-4.0,0.91
-1.0,-11.0,0.911
-4.0,-17.0,0.912
-1.0,-9.0,0.913
4.0,7.0,0.914
13.0,14.0,0.915
16.0,9.0,0.916
11.0,2.0,0.917
0.0,-3.0,0.918
-10.0,-8.0,0.919
-19.0,-8.0,0.92
-25.0,-5.0,0.921
-21.0,1.0,0.922
0.0,1.0,0.923
24.0,-2.0,0.924
29.0,0.0,0.925
18.0,3.0,0.926
11.0,0.0,0.927
13.0,-5.0,0.928
12.0,0.0,0.929
2.0,9.0,0.93
-3.0,7.0,0.931
-2.0,-6.0,0.932
0.0,-13.0,0.933
-3.0,-9.0,0.934
-2.0,-3.0,0.935
7.0,-3.0,0.936
12.0,-2.0,0.937
6.0,-1.0,0.938
-1.0,-1.0,0.939
-3.0,-1.0,0.94
-2.0,-2.0,0.941
-6.0,-2.0,0.942
-9.0,1.0,0.943
-5.0,4.0,0.944
4.0,2.0,0.945
10.0,0.0,0.946
8.0,-1.0,0.947
4.0,-3.0,0.948
2.0,-1.0,0.949
3.0,0.0,0.95
3.0,-3.0,0.951
-2.0,-4.0,0.952
-12.0,4.0,0.953
-17.0,11.0,0.954
-11.0,10.0,0.955
3.0,8.0,0.956
14.0,5.0,0.957
14.0,4.0,0.958
9.0,5.0,0.959
5.0,2.0,0.96
5.0,-5.0,0.961
4.0,-3.0,0.962
5.0,-1.0,0.963
12.0,0.0,0.964
16.0,2.0,0.965
10.0,3.0,0.966
5.0,1.0,0.967
7.0,-2.0,0.968
11.0,-1.0,0.969
8.0,4.0,0.97
0.0,6.0,0.971
-2.0,1.0,0.972
1.0,-3.0,0.973
5.0,-1.0,0.974
2.0,3.0,0.975
-4.0,2.0,0.976
-4.0,1.0,0.977
0.0,-2.0,0.978
9.0,-6.0,0.979
14.0,-6.0,0.98
16.0,-6.0,0.981
18.0,-6.0,0.982
23.0,-9.0,0.983
22.0,-11.0,0.984
13.0,-4.0,0.985
-1.0,2.0,0.986
-13.0,2.0,0.987
-22.0,-7.0,0.988
-30.0,-14.0,0.989
-28.0,-9.0,0.99
-13.0,4.0,0.991
3.0,10.0,0.992
6.0,6.0,0.993
-2.0,-3.0,0.994
-9.0,-7.0,0.995
-9.0,-4.0,0.996
-7.0,3.0,0.997
-6.0,3.0,0.998
-6.0,1.0,0.999
-7.0,0.0,1.0
-10.0,-1.0,1.001
-7.0,0.0,1.002
0.0,0.0,1.003
9.0,0.0,1.004
14.0,0.0,1.005
16.0,-3.0,1.006
18.0,-6.0,1.007
14.0,-4.0,1.008
3.0,2.0,1.009
-2.0,8.0,1.01
0.0,9.0,1.011
6.0,6.0,1.012
8.0,4.0,1.013
5.0,4.0,1.014
3.0,4.0,1.015
4.0,1.0,1.016
7.0,-3.0,1.017
10.0,-9.0,1.018
11.0,-8.0,1.019
6.0,-6.0,1.02
-2.0,-5.0,1.021
-1.0,-4.0,1.022
10.0,-3.0,1.023
24.0,-1.0,1.024
25.0,-2.0,1.025
14.0,-4.0,1.026
9.0,-5.0,1.027
13.0,-6.0,1.028
12.0,-5.0,1.029
-1.0,0.0,1.03
-16.0,5.0,1.031
-20.0,9.0,1.032
-17.0,7.0,1.033
-14.0,6.0,1.034
-11.0,7.0,1.035
-7.0,3.0,1.036
-1.0,1.0,1.037
1.0,0.0,1.038
2.0,6.0,1.039
3.0,10.0,1.04
4.0,2.0,1.041
7.0,-7.0,1.042
15.0,-18.0,1.043
19.0,-26.0,1.044
11.0,-24.0,1.045
4.0,-13.0,1.046
6.0,-2.0,1.047
8.0,0.0,1.048
6.0,2.0,1.049
4.0,5.0,1.05
2.0,7.0,1.051
0.0,4.0,1.052
-2.0,3.0,1.053
-4.0,7.0,1.054
-1.0,8.0,1.055
3.0,4.0,1.056
9.0,2.0,1.057
17.0,2.0,1.058
18.0,2.0,1.059
5.0,-1.0,1.06
-12.0,-7.0,1.061
-18.0,-4.0,1.062
-8.0,0.0,1.063
1.0,2.0,1.064
0.0,3.0,1.065
-3.0,5.0,1.066
3.0,1.0,1.067
10.0,-6.0,1.068
4.0,-7.0,1.069
-7.0,0.0,1.07
-7.0,5.0,1.071
3.0,2.0,1.072
5.0,-5.0,1.073
-7.0,-8.0,1.074
-18.0,-5.0,1.075
-15.0,1.0,1.076
-3.0,6.0,1.077
8.0,-1.0,1.078
14.0,-11.0,1.079
16.0,-15.0,1.08
17.0,-11.0,1.081
15.0,-5.0,1.082
14.0,-3.0,1.083
14.0,-1.0,1.084
11.0,3.0,1.085
3.0,8.0,1.086
-3.0,6.0,1.087
-1.0,0.0,1.088
2.0,0.0,1.089
0.0,5.0,1.09
-6.0,6.0,1.091
-8.0,1.0,1.092
-1.0,-5.0,1.093
8.0,-6.0,1.094
11.0,-1.0,1.095
9.0,9.0,1.096
5.0,14.0,1.097
-1.0,10.0,1.098
-5.0,0.0,1.099
-10.0,-8.0,1.1
-14.0,-14.0,1.101
-11.0,-14.0,1.102
2.0,-12.0,1.103
14.0,-8.0,1.104
16.0,-1.0,1.105
8.0,1.0,1.106
1.0,-3.0,1.107
1.0,-9.0,1.108
-1.0,-7.0,1.109
-7.0,1.0,1.11
-11.0,6.0,1.111
-7.0,4.0,1.112
2.0,3.0,1.113
11.0,7.0,1.114
12.0,12.0,1.115
11.0,10.0,1.116
16.0,3.0,1.117
21.0,-4.0,1.118
17.0,-5.0,1.119
1.0,-2.0,1.12
-11.0,-4.0,1.121
-9.0,-5.0,1.122
2.0,-6.0,1.123
8.0,-6.0,1.124
7.0,-3.0,1.125
8.0,0.0,1.126
15.0,3.0,1.127
18.0,0.0,1.128
15.0,-5.0,1.129
10.0,-7.0,1.13
11.0,-3.0,1.131
12.0,4.0,1.132
7.0,10.0,1.133
-1.0,13.0,1.134
-7.0,13.0,1.135
-10.0,11.0,1.136
-12.0,12.0,1.137
-19.0,4.0,1.138
-24.0,-6.0,1.139
-24.0,-10.0,1.14
-15.0,-12.0,1.141
-4.0,-10.0,1.142
4.0,-10.0,1.143
6.0,-14.0,1.144
3.0,-13.0,1.145
0.0,-7.0,1.146
5.0,-1.0,1.147
14.0,1.0,1.148
20.0,1.0,1.149
22.0,4.0,1.15
22.0,6.0,1.151
17.0,5.0,1.152
7.0,4.0,1.153
-4.0,6.0,1.154
-12.0,7.0,1.155
-19.0,3.0,1.156
-23.0,-1.0,1.157
-24.0,-6.0,1.158
-11.0,-9.0,1.159
1.0,-11.0,1.16
3.0,-14.0,1.161
0.0,-11.0,1.162
8.0,-6.0,1.163
23.0,-2.0,1.164
27.0,1.0,1.165
17.0,2.0,1.166
7.0,2.0,1.167
7.0,2.0,1.168
7.0,3.0,1.169
-1.0,2.0,1.17
-5.0,1.0,1.171
5.0,3.0,1.172
18.0,9.0,1.173
16.0,12.0,1.174
6.0,10.0,1.175
-1.0,4.0,1.176
0.0,-1.0,1.177
-1.0,-4.0,1.178
-5.0,-5.0,1.179
-11.0,-5.0,1.18
-11.0,-7.0,1.181
-3.0,-3.0,1.182
10.0,0.0,1.183
19.0,-1.0,1.184
18.0,-3.0,1.185
12.0,-2.0,1.186
7.0,0.0,1.187
1.0,2.0,1.188
-6.0,4.0,1.189
-12.0,7.0,1.19
-7.0,4.0,1.191
1.0,-1.0,1.192
2.0,0.0,1.193
-2.0,6.0,1.194
-2.0,10.0,1.195
2.0,4.0,1.196
6.0,-4.0,1.197
9.0,-10.0,1.198
14.0,-10.0,1.199
15.0,-8.0,1.2
7.0,-10.0,1.201
-2.0,-6.0,1.202
1.0,-4.0,1.203
9.0,-4.0,1.204
10.0,-4.0,1.205
5.0,-4.0,1.206
5.0,-2.0,1.207
9.0,-2.0,1.208
7.0,-2.0,1.209
0.0,2.0,1.21
-2.0,6.0,1.211
-1.0,6.0,1.212
-6.0,4.0,1.213
-15.0,2.0,1.214
-18.0,3.0,1.215
-13.0,4.0,1.216
-6.0,7.0,1.217
-2.0,10.0,1.218
2.0,8.0,1.219
2.0,1.0,1.22
0.0,-9.0,1.221
-1.0,-12.0,1.222
6.0,-9.0,1.223
18.0,-6.0,1.224
21.0,-4.0,1.225
16.0,0.0,1.226
9.0,5.0,1.227
7.0,5.0,1.228
8.0,0.0,1.229
6.0,-1.0,1.23
4.0,1.0,1.231
7.0,-2.0,1.232
13.0,-11.0,1.233
16.0,-19.0,1.234
14.0,-16.0,1.235
9.0,-5.0,1.236
0.0,3.0,1.237
-8.0,3.0,1.238
-14.0,1.0,1.239
-20.0,-1.0,1.24
-26.0,-4.0,1.241
-24.0,-4.0,1.242
-7.0,-1.0,1.243
20.0,5.0,1.244
32.0,7.0,1.245
23.0,4.0,1.246
9.0,0.0,1.247
6.0,1.0,1.248
4.0,4.0,1.249
-12.0,1.0,1.25
-30.0,-3.0,1.251
-31.0,-3.0,1.252
-11.0,2.0,1.253
4.0,7.0,1.254
5.0,7.0,1.255
2.0,8.0,1.256
9.0,13.0,1.257
20.0,10.0,1.258
26.0,-2.0,1.259
19.0,-15.0,1.26
11.0,-19.0,1.261
7.0,-11.0,1.262
9.0,-6.0,1.263
8.0,-6.0,1.264
1.0,-8.0,1.265
-6.0,-3.0,1.266
-9.0,2.0,1.267
-5.0,0.0,1.268
2.0,-4.0,1.269
9.0,-4.0,1.27
12.0,2.0,1.271
16.0,9.0,1.272
20.0,9.0,1.273
27.0,7.0,1.274
30.0,4.0,1.275
29.0,1.0,1.276
24.0,0.0,1.277
12.0,0.0,1.278
-6.0,4.0,1.279
-21.0,5.0,1.28
-29.0,-3.0,1.281
-32.0,-8.0,1.282
-32.0,-5.0,1.283
-25.0,2.0,1.284
-10.0,7.0,1.285
0.0,5.0,1.286
0.0,0.0,1.287
-1.0,-3.0,1.288
5.0,-3.0,1.289
11.0,-2.0,1.29
6.0,-3.0,1.291
-1.0,-6.0,1.292
0.0,-9.0,1.293
4.0,-4.0,1.294
2.0,4.0,1.295
-3.0,7.0,1.296
0.0,4.0,1.297
9.0,-1.0,1.298
16.0,-1.0,1.299
14.0,3.0,1.3
14.0,-1.0,1.301
18.0,-4.0,1.302
27.0,-3.0,1.303
35.0,0.0,1.304
31.0,-2.0,1.305
16.0,-8.0,1.306
-2.0,-10.0,1.307
-13.0,-6.0,1.308
-13.0,-1.0,1.309
-11.0,0.0,1.31
-6.0,0.0,1.311
2.0,-2.0,1.312
11.0,-4.0,1.313
9.0,-3.0,1.314
0.0,-1.0,1.315
-6.0,2.0,1.316
-7.0,6.0,1.317
-11.0,6.0,1.318
-23.0,3.0,1.319
-37.0,-1.0,1.32
-37.0,-10.0,1.321
-23.0,-12.0,1.322
-5.0,-8.0,1.323
3.0,-1.0,1.324
5.0,0.0,1.325
13.0,0.0,1.326
23.0,0.0,1.327
29.0,2.0,1.328
24.0,1.0,1.329
18.0,3.0,1.33
16.0,6.0,1.331
14.0,9.0,1.332
2.0,10.0,1.333
-14.0,13.0,1.334
-19.0,17.0,1.335
-8.0,11.0,1.336
9.0,-1.0,1.337
14.0,-9.0,1.338
7.0,-8.0,1.339
-1.0,-7.0,1.34
-2.0,-17.0,1.341
0.0,-22.0,1.342
5.0,-12.0,1.343
14.0,1.0,1.344
18.0,-1.0,1.345
16.0,-13.0,1.346
12.0,-15.0,1.347
11.0,-2.0,1.348
14.0,11.0,1.349
12.0,12.0,1.35
8.0,6.0,1.351
5.0,5.0,1.352
1.0,6.0,1.353
-3.0,8.0,1.354
-3.0,7.0,1.355
-4.0,5.0,1.356
-3.0,2.0,1.357
-7.0,-2.0,1.358
-5.0,-1.0,1.359
-3.0,-1.0,1.36
-2.0,-9.0,1.361
-3.0,-12.0,1.362
0.0,-5.0,1.363
6.0,7.0,1.364
9.0,8.0,1.365
9.0,-2.0,1.366
11.0,-9.0,1.367
9.0,-7.0,1.368
-1.0,1.0,1.369
-12.0,6.0,1.37
-12.0,5.0,1.371
-2.0,2.0,1.372
1.0,2.0,1.373
-5.0,4.0,1.374
-12.0,4.0,1.375
-9.0,2.0,1.376
0.0,0.0,1.377
7.0,1.0,1.378
9.0,1.0,1.379
8.0,-2.0,1.38
6.0,-7.0,1.381
8.0,-8.0,1.382
12.0,-5.0,1.383
17.0,-3.0,1.384
20.0,0.0,1.385
23.0,5.0,1.386
23.0,5.0,1.387
19.0,-1.0,1.388
12.0,-6.0,1.389
3.0,-2.0,1.39
-3.0,4.0,1.391
-6.0,4.0,1.392
-10.0,0.0,1.393
-14.0,-1.0,1.394
-11.0,-1.0,1.395
-4.0,0.0,1.396
3.0,1.0,1.397
8.0,1.0,1.398
13.0,0.0,1.399
17.0,-2.0,1.4
12.0,-6.0,1.401
-3.0,-5.0,1.402
-15.0,-2.0,1.403
-15.0,3.0,1.404
-10.0,7.0,1.405
-10.0,7.0,1.406
-8.0,2.0,1.407
2.0,-2.0,1.408
9.0,-4.0,1.409
3.0,-7.0,1.41
-4.0,-11.0,1.411
0.0,-12.0,1.412
7.0,-7.0,1.413
5.0,0.0,1.414
-1.0,0.0,1.415
-2.0,-3.0,1.416
8.0,-3.0,1.417
14.0,-3.0,1.418
13.0,0.0,1.419
5.0,3.0,1.42
-1.0,2.0,1.421
-3.0,2.0,1.422
-2.0,-2.0,1.423
-1.0,-6.0,1.424
-4.0,-7.0,1.425
-8.0,-2.0,1.426
-3.0,1.0,1.427
8.0,1.0,1.428
12.0,3.0,1.429
5.0,10.0,1.43
3.0,16.0,1.431
9.0,15.0,1.432
9.0,5.0,1.433
2.0,-4.0,1.434
0.0,-7.0,1.435
3.0,-2.0,1.436
3.0,2.0,1.437
-4.0,-2.0,1.438
-6.0,-7.0,1.439
-4.0,-9.0,1.44
-2.0,-8.0,1.441
-3.0,-3.0,1.442
0.0,-2.0,1.443
11.0,-1.0,1.444
17.0,2.0,1.445
12.0,3.0,1.446
5.0,0.0,1.447
5.0,-5.0,1.448
10.0,-5.0,1.449
13.0,-1.0,1.45
12.0,-1.0,1.451
5.0,-2.0,1.452
-3.0,-1.0,1.453
-8.0,2.0,1.454
0.0,3.0,1.455
15.0,2.0,1.456
22.0,4.0,1.457
20.0,7.0,1.458
22.0,3.0,1.459
29.0,-2.0,1.46
30.0,-5.0,1.461
17.0,-2.0,1.462
2.0,0.0,1.463
-8.0,-1.0,1.464
-22.0,-1.0,1.465
-42.0,2.0,1.466
-53.0,0.0,1.467
-46.0,-4.0,1.468
-29.0,-4.0,1.469
-16.0,-2.0,1.47
-14.0,-1.0,1.471
-10.0,-3.0,1.472
0.0,0.0,1.473
15.0,7.0,1.474
24.0,9.0,1.475
23.0,4.0,1.476
13.0,1.0,1.477
3.0,-1.0,1.478
3.0,-3.0,1.479
10.0,-5.0,1.48
14.0,-8.0,1.481
11.0,-10.0,1.482
14.0,-8.0,1.483
23.0,-3.0,1.484
24.0,5.0,1.485
14.0,7.0,1.486
3.0,0.0,1.487
5.0,-6.0,1.488
12.0,-1.0,1.489
12.0,4.0,1.49
9.0,-1.0,1.491
9.0,-13.0,1.492
7.0,-17.0,1.493
3.0,-5.0,1.494
-2.0,7.0,1.495
-4.0,6.0,1.496
-4.0,1.0,1.497
-3.0,-3.0,1.498
-2.0,-1.0,1.499
-6.0,-2.0,1.5
-10.0,-8.0,1.501
-9.0,-9.0,1.502
0.0,-5.0,1.503
12.0,-1.0,1.504
16.0,0.0,1.505
11.0,2.0,1.506
9.0,4.0,1.507
10.0,3.0,1.508
4.0,2.0,1.509
-5.0,3.0,1.51
-10.0,4.0,1.511
-7.0,2.0,1.512
-3.0,1.0,1.513
-3.0,3.0,1.514
-2.0,5.0,1.515
-1.0,6.0,1.516
0.0,8.0,1.517
-4.0,8.0,1.518
-5.0,2.0,1.519
0.0,-4.0,1.52
3.0,-8.0,1.521
1.0,-5.0,1.522
3.0,-3.0,1.523
11.0,-6.0,1.524
17.0,-4.0,1.525
18.0,2.0,1.526
19.0,6.0,1.527
24.0,2.0,1.528
26.0,-1.0,1.529
19.0,1.0,1.53
9.0,5.0,1.531
4.0,5.0,1.532
-1.0,3.0,1.533
-12.0,0.0,1.534
-21.0,-7.0,1.535
-20.0,-14.0,1.536
-13.0,-10.0,1.537
-9.0,0.0,1.538
-7.0,1.0,1.539
-4.0,-6.0,1.54
3.0,-11.0,1.541
10.0,-3.0,1.542
16.0,10.0,1.543
22.0,16.0,1.544
22.0,18.0,1.545
12.0,16.0,1.546
-2.0,3.0,1.547
-14.0,-17.0,1.548
-18.0,-28.0,1.549
-19.0,-21.0,1.55
-16.0,-8.0,1.551
-12.0,-4.0,1.552
-10.0,-6.0,1.553
-11.0,-6.0,1.554
-10.0,-3.0,1.555
-4.0,-1.0,1.556
1.0,2.0,1.557
5.0,4.0,1.558
12.0,6.0,1.559
16.0,7.0,1.56
16.0,3.0,1.561
13.0,3.0,1.562
17.0,2.0,1.563
26.0,-1.0,1.564
26.0,-4.0,1.565
10.0,-1.0,1.566
-9.0,1.0,1.567
-14.0,2.0,1.568
-4.0,1.0,1.569
11.0,3.0,1.57
20.0,6.0,1.571
20.0,6.0,1.572
13.0,3.0,1.573
10.0,2.0,1.574
17.0,4.0,1.575
21.0,5.0,1.576
14.0,8.0,1.577
-7.0,10.0,1.578
-22.0,12.0,1.579
-25.0,10.0,1.58
-28.0,-2.0,1.581
-34.0,-8.0,1.582
-30.0,-7.0,1.583
-10.0,-6.0,1.584
12.0,-10.0,1.585
17.0,-15.0,1.586
11.0,-13.0,1.587
7.0,-7.0,1.588
9.0,-4.0,1.589
10.0,-3.0,1.59
9.0,-1.0,1.591
12.0,2.0,1.592
16.0,2.0,1.593
14.0,0.0,1.594
5.0,-1.0,1.595
0.0,0.0,1.596
2.0,1.0,1.597
3.0,0.0,1.598
0.0,0.0,1.599
-5.0,1.0,1.6
-6.0,1.0,1.601
0.0,0.0,1.602
8.0,2.0,1.603
12.0,5.0,1.604
10.0,5.0,1.605
6.0,5.0,1.606
4.0,3.0,1.607
3.0,0.0,1.608
0.0,-7.0,1.609
-2.0,-13.0,1.61
2.0,-13.0,1.611
11.0,-10.0,1.612
19.0,-4.0,1.613
22.0,2.0,1.614
18.0,6.0,1.615
7.0,8.0,1.616
-5.0,3.0,1.617
-19.0,0.0,1.618
-25.0,3.0,1.619
-27.0,5.0,1.62
-21.0,3.0,1.621
-10.0,0.0,1.622
1.0,-4.0,1.623
5.0,-4.0,1.624
6.0,0.0,1.625
8.0,3.0,1.626
15.0,-3.0,1.627
22.0,-10.0,1.628
21.0,-9.0,1.629
14.0,-5.0,1.63
8.0,-4.0,1.631
3.0,-11.0,1.632
0.0,-11.0,1.633
-3.0,-1.0,1.634
-4.0,6.0,1.635
-2.0,5.0,1.636
0.0,2.0,1.637
2.0,4.0,1.638
5.0,7.0,1.639
1.0,1.0,1.64
-7.0,-8.0,1.641
-13.0,-7.0,1.642
-7.0,-1.0,1.643
7.0,4.0,1.644
15.0,4.0,1.645
15.0,4.0,1.646
19.0,5.0,1.647
34.0,5.0,1.648
46.0,2.0,1.649
42.0,0.0,1.65
24.0,1.0,1.651
5.0,4.0,1.652
-15.0,5.0,1.653
-34.0,3.0,1.654
-48.0,-3.0,1.655
-50.0,-7.0,1.656
-40.0,-6.0,1.657
-26.0,-2.0,1.658
-16.0,0.0,1.659
-13.0,-2.0,1.66
-10.0,-5.0,1.661
1.0,-5.0,1.662
17.0,-4.0,1.663
24.0,-4.0,1.664
20.0,-1.0,1.665
11.0,0.0,1.666
13.0,0.0,1.667
19.0,-3.0,1.668
19.0,-5.0,1.669
17.0,-6.0,1.67
20.0,-4.0,1.671
27.0,3.0,1.672
25.0,9.0,1.673
14.0,7.0,1.674
5.0,2.0,1.675
4.0,2.0,1.676
9.0,11.0,1.677
9.0,15.0,1.678
4.0,6.0,1.679
-1.0,-8.0,1.68
-5.0,-16.0,1.681
-7.0,-10.0,1.682
-1.0,-4.0,1.683
8.0,-3.0,1.684
14.0,-5.0,1.685
13.0,-6.0,1.686
13.0,-7.0,1.687
18.0,-9.0,1.688
18.0,-9.0,1.689
6.0,-6.0,1.69
-8.0,-4.0,1.691
-15.0,0.0,1.692
-18.0,4.0,1.693
-21.0,7.0,1.694
-24.0,6.0,1.695
-24.0,3.0,1.696
-21.0,6.0,1.697
-19.0,8.0,1.698
-15.0,8.0,1.699
-9.0,3.0,1.7
-4.0,-4.0,1.701
-1.0,-7.0,1.702
7.0,-6.0,1.703
22.0,-7.0,1.704
31.0,-5.0,1.705
26.0,-1.0,1.706
14.0,1.0,1.707
8.0,0.0,1.708
8.0,0.0,1.709
6.0,1.0,1.71
1.0,1.0,1.711
-2.0,0.0,1.712
-5.0,-1.0,1.713
-8.0,0.0,1.714
-8.0,3.0,1.715
-5.0,4.0,1.716
-3.0,5.0,1.717
-6.0,6.0,1.718
-9.0,8.0,1.719
-5.0,8.0,1.72
0.0,0.0,1.721
6.0,-5.0,1.722
12.0,-7.0,1.723
17.0,-4.0,1.724
15.0,-2.0,1.725
9.0,-4.0,1.726
5.0,-8.0,1.727
9.0,-10.0,1.728
12.0,-7.0,1.729
7.0,-3.0,1.73
3.0,-5.0,1.731
6.0,-6.0,1.732
7.0,-2.0,1.733
4.0,6.0,1.734
1.0,5.0,1.735
3.0,-3.0,1.736
4.0,-7.0,1.737
0.0,-7.0,1.738
-2.0,-2.0,1.739
-1.0,0.0,1.74
0.0,-4.0,1.741
1.0,-5.0,1.742
6.0,-3.0,1.743
14.0,-2.0,1.744
18.0,-2.0,1.745
14.0,-3.0,1.746
9.0,-1.0,1.747
8.0,2.0,1.748
9.0,2.0,1.749
6.0,1.0,1.75
2.0,0.0,1.751
1.0,0.0,1.752
2.0,1.0,1.753
5.0,4.0,1.754
15.0,2.0,1.755
30.0,-1.0,1.756
40.0,-1.0,1.757
30.0,3.0,1.758
5.0,5.0,1.759
-26.0,0.0,1.76
-48.0,-8.0,1.761
-56.0,-9.0,1.762
-51.0,-2.0,1.763
-41.0,4.0,1.764
-28.0,5.0,1.765
-13.0,3.0,1.766
1.0,2.0,1.767
11.0,4.0,1.768
13.0,4.0,1.769
15.0,6.0,1.77
17.0,9.0,1.771
16.0,9.0,1.772
13.0,8.0,1.773
13.0,2.0,1.774
18.0,-4.0,1.775
18.0,-7.0,1.776
12.0,-5.0,1.777
5.0,0.0,1.778
0.0,1.0,1.779
-7.0,-3.0,1.78
-15.0,-9.0,1.781
-12.0,-8.0,1.782
5.0,-6.0,1.783
22.0,-4.0,1.784
27.0,3.0,1.785
21.0,9.0,1.786
15.0,6.0,1.787
14.0,-4.0,1.788
15.0,-10.0,1.789
19.0,-11.0,1.79
21.0,-11.0,1.791
19.0,-11.0,1.792
10.0,-6.0,1.793
1.0,1.0,1.794
-3.0,3.0,1.795
-8.0,0.0,1.796
-19.0,2.0,1.797
-28.0,5.0,1.798
-23.0,5.0,1.799
-5.0,2.0,1.8
15.0,-1.0,1.801
22.0,-1.0,1.802
16.0,-3.0,1.803
4.0,-3.0,1.804
-5.0,3.0,1.805
-14.0,13.0,1.806
-25.0,10.0,1.807
-36.0,-6.0,1.808
-33.0,-17.0,1.809
-19.0,-16.0,1.81
-2.0,-8.0,1.811
1.0,-6.0,1.812
-2.0,-5.0,1.813
0.0,-4.0,1.814
10.0,-1.0,1.815
16.0,2.0,1.816
14.0,5.0,1.817
12.0,4.0,1.818
18.0,6.0,1.819
24.0,7.0,1.82
22.0,3.0,1.821
14.0,0.0,1.822
9.0,0.0,1.823
8.0,0.0,1.824
4.0,2.0,1.825
-2.0,4.0,1.826
-4.0,0.0,1.827
4.0,-3.0,1.828
16.0,-3.0,1.829
24.0,-4.0,1.83
24.0,-2.0,1.831
20.0,0.0,1.832
12.0,4.0,1.833
3.0,8.0,1.834
-1.0,6.0,1.835
-2.0,5.0,1.836
0.0,6.0,1.837
-4.0,6.0,1.838
-10.0,-3.0,1.839
-13.0,-19.0,1.84
-11.0,-29.0,1.841
-4.0,-18.0,1.842
2.0,-1.0,1.843
12.0,5.0,1.844
17.0,0.0,1.845
17.0,-2.0,1.846
17.0,3.0,1.847
18.0,3.0,1.848
15.0,-5.0,1.849
6.0,-7.0,1.85
-1.0,1.0,1.851
-5.0,8.0,1.852
-4.0,6.0,1.853
-3.0,2.0,1.854
-2.0,1.0,1.855
-7.0,2.0,1.856
-15.0,3.0,1.857
-27.0,3.0,1.858
-31.0,3.0,1.859
-23.0,-3.0,1.86
-13.0,-11.0,1.861
-7.0,-10.0,1.862
1.0,-3.0,1.863
18.0,0.0,1.864
30.0,-2.0,1.865
25.0,-2.0,1.866
10.0,-1.0,1.867
6.0,-2.0,1.868
11.0,-4.0,1.869
11.0,0.0,1.87
4.0,4.0,1.871
0.0,2.0,1.872
4.0,-2.0,1.873
12.0,-1.0,1.874
18.0,2.0,1.875
25.0,0.0,1.876
26.0,-1.0,1.877
17.0,-2.0,1.878
3.0,2.0,1.879
-3.0,7.0,1.88
-10.0,4.0,1.881
-28.0,0.0,1.882
-47.0,-3.0,1.883
-47.0,-5.0,1.884
-31.0,-4.0,1.885
-19.0,-2.0,1.886
-15.0,0.0,1.887
-6.0,1.0,1.888
9.0,5.0,1.889
14.0,9.0,1.89
7.0,8.0,1.891
0.0,2.0,1.892
3.0,-4.0,1.893
11.0,-7.0,1.894
17.0,-3.0,1.895
24.0,-3.0,1.896
32.0,-6.0,1.897
27.0,-12.0,1.898
16.0,-10.0,1.899
6.0,-4.0,1.9
2.0,-1.0,1.901
0.0,0.0,1.902
1.0,1.0,1.903
7.0,5.0,1.904
10.0,7.0,1.905
5.0,6.0,1.906
0.0,1.0,1.907
0.0,-1.0,1.908
1.0,-2.0,1.909
-1.0,-1.0,1.91
-6.0,1.0,1.911
-4.0,0.0,1.912
0.0,-2.0,1.913
5.0,-3.0,1.914
10.0,0.0,1.915
16.0,2.0,1.916
17.0,3.0,1.917
6.0,2.0,1.918
-10.0,0.0,1.919
-22.0,-1.0,1.92
-25.0,-6.0,1.921
-20.0,-5.0,1.922
-6.0,2.0,1.923
12.0,7.0,1.924
22.0,5.0,1.925
20.0,3.0,1.926
14.0,1.0,1.927
15.0,-2.0,1.928
17.0,-5.0,1.929
14.0,-4.0,1.93
6.0,-1.0,1.931
2.0,0.0,1.932
5.0,-2.0,1.933
6.0,-4.0,1.934
4.0,-2.0,1.935
2.0,-2.0,1.936
2.0,-2.0,1.937
2.0,-2.0,1.938
0.0,0.0,1.939
-5.0,0.0,1.94
-11.0,-3.0,1.941
-9.0,-2.0,1.942
1.0,3.0,1.943
15.0,9.0,1.944
18.0,9.0,1.945
14.0,8.0,1.946
9.0,4.0,1.947
12.0,-3.0,1.948
13.0,-7.0,1.949
3.0,-6.0,1.95
-6.0,0.0,1.951
-10.0,2.0,1.952
-7.0,-2.0,1.953
-1.0,-3.0,1.954
4.0,0.0,1.955
10.0,4.0,1.956
12.0,5.0,1.957
5.0,4.0,1.958
-3.0,2.0,1.959
-10.0,-5.0,1.96
-22.0,-17.0,1.961
-33.0,-23.0,1.962
-32.0,-18.0,1.963
-16.0,-8.0,1.964
-1.0,-2.0,1.965
3.0,0.0,1.966
2.0,-2.0,1.967
8.0,-1.0,1.968
18.0,4.0,1.969
24.0,9.0,1.97
28.0,6.0,1.971
31.0,-1.0,1.972
29.0,-4.0,1.973
19.0,0.0,1.974
9.0,0.0,1.975
5.0,-3.0,1.976
6.0,-1.0,1.977
0.0,2.0,1.978
-7.0,5.0,1.979
-13.0,1.0,1.98
-12.0,-5.0,1.981
-10.0,-3.0,1.982
-5.0,0.0,1.983
3.0,-1.0,1.984
14.0,2.0,1.985
19.0,6.0,1.986
15.0,5.0,1.987
8.0,-2.0,1.988
-1.0,-3.0,1.989
-9.0,2.0,1.99
-19.0,5.0,1.991
-21.0,2.0,1.992
-13.0,0.0,1.993
-2.0,1.0,1.994
0.0,3.0,1.995
0.0,0.0,1.996
1.0,1.0,1.997
3.0,5.0,1.998
2.0,7.0,1.999
-1.0,5.0,2.0
-2.0,-4.0,2.001
2.0,-9.0,2.002
9.0,-9.0,2.003
16.0,-7.0,2.004
21.0,-4.0,2.005
19.0,-3.0,2.006
13.0,-3.0,2.007
11.0,-5.0,2.008
13.0,-3.0,2.009
12.0,0.0,2.01
3.0,1.0,2.011
-2.0,-1.0,2.012
1.0,0.0,2.013
7.0,2.0,2.014
5.0,4.0,2.015
2.0,3.0,2.016
1.0,2.0,2.017
0.0,3.0,2.018
-2.0,5.0,2.019
-7.0,3.0,2.02
-8.0,-4.0,2.021
-5.0,-6.0,2.022
4.0,-4.0,2.023
15.0,-2.0,2.024
16.0,0.0,2.025
8.0,3.0,2.026
1.0,4.0,2.027
4.0,-1.0,2.028
9.0,-8.0,2.029
5.0,-9.0,2.03
-1.0,-4.0,2.031
-2.0,-1.0,2.032
-2.0,-2.0,2.033
-6.0,-3.0,2.034
-9.0,-1.0,2.035
-11.0,5.0,2.036
-12.0,9.0,2.037
-22.0,6.0,2.038
-30.0,6.0,2.039
-24.0,7.0,2.04
-5.0,3.0,2.041
17.0,0.0,2.042
30.0,0.0,2.043
30.0,1.0,2.044
20.0,-2.0,2.045
10.0,-12.0,2.046
9.0,-21.0,2.047
14.0,-21.0,2.048
17.0,-14.0,2.049
14.0,-9.0,2.05
10.0,-8.0,2.051
8.0,-6.0,2.052
7.0,1.0,2.053
4.0,6.0,2.054
1.0,7.0,2.055
0.0,5.0,2.056
0.0,5.0,2.057
0.0,5.0,2.058
-2.0,2.0,2.059
-5.0,-1.0,2.06
-7.0,-5.0,2.061
-6.0,-5.0,2.062
4.0,-4.0,2.063
18.0,-2.0,2.064
28.0,0.0,2.065
27.0,2.0,2.066
20.0,2.0,2.067
11.0,1.0,2.068
-1.0,1.0,2.069
-12.0,1.0,2.07
-16.0,0.0,2.071
-15.0,0.0,2.072
-11.0,2.0,2.073
-10.0,2.0,2.074
-12.0,2.0,2.075
-11.0,1.0,2.076
-8.0,2.0,2.077
-7.0,3.0,2.078
-5.0,3.0,2.079
-7.0,2.0,2.08
-12.0,-1.0,2.081
-12.0,-3.0,2.082
-1.0,-1.0,2.083
13.0,0.0,2.084
17.0,3.0,2.085
14.0,5.0,2.086
17.0,1.0,2.087
23.0,-2.0,2.088
21.0,-2.0,2.089
8.0,-2.0,2.09
0.0,-2.0,2.091
2.0,-1.0,2.092
3.0,0.0,2.093
2.0,2.0,2.094
4.0,2.0,2.095
9.0,2.0,2.096
7.0,0.0,2.097
-5.0,-4.0,2.098
-13.0,-4.0,2.099
-12.0,-4.0,2.1
-6.0,-4.0,2.101
-5.0,-4.0,2.102
1.0,-5.0,2.103
11.0,-3.0,2.104
14.0,0.0,2.105
6.0,4.0,2.106
3.0,0.0,2.107
10.0,-6.0,2.108
15.0,-7.0,2.109
11.0,-6.0,2.11
6.0,-3.0,2.111
7.0,-3.0,2.112
6.0,0.0,2.113
1.0,3.0,2.114
-2.0,3.0,2.115
-2.0,-2.0,2.116
-1.0,-2.0,2.117
-5.0,1.0,2.118
-8.0,5.0,2.119
-11.0,4.0,2.12
-13.0,-3.0,2.121
-11.0,-4.0,2.122
0.0,-2.0,2.123
11.0,-1.0,2.124
12.0,-1.0,2.125
5.0,0.0,2.126
8.0,3.0,2.127
15.0,0.0,2.128
16.0,-5.0,2.129
5.0,-4.0,2.13
-1.0,0.0,2.131
0.0,3.0,2.132
2.0,4.0,2.133
2.0,6.0,2.134
3.0,8.0,2.135
7.0,6.0,2.136
8.0,1.0,2.137
0.0,-4.0,2.138
-4.0,-6.0,2.139
-4.0,-5.0,2.14
-4.0,-7.0,2.141
-6.0,-7.0,2.142
-3.0,-5.0,2.143
6.0,-3.0,2.144
11.0,0.0,2.145
5.0,5.0,2.146
2.0,5.0,2.147
10.0,1.0,2.148
16.0,-5.0,2.149
14.0,-5.0,2.15
10.0,0.0,2.151
9.0,4.0,2.152
8.0,2.0,2.153
0.0,0.0,2.154
-5.0,2.0,2.155
0.0,4.0,2.156
6.0,0.0,2.157
3.0,-4.0,2.158
-5.0,-1.0,2.159
-11.0,1.0,2.16
-11.0,0.0,2.161
-10.0,-2.0,2.162
-4.0,-4.0,2.163
8.0,-6.0,2.164
17.0,-2.0,2.165
13.0,1.0,2.166
4.0,2.0,2.167
2.0,2.0,2.168
7.0,-1.0,2.169
8.0,-4.0,2.17
6.0,-3.0,2.171
4.0,-2.0,2.172
3.0,-2.0,2.173
2.0,-1.0,2.174
5.0,-1.0,2.175
12.0,-1.0,2.176
17.0,0.0,2.177
13.0,1.0,2.178
4.0,0.0,2.179
-5.0,0.0,2.18
-10.0,-2.0,2.181
-8.0,-3.0,2.182
-3.0,-4.0,2.183
-1.0,-1.0,2.184
-6.0,4.0,2.185
-9.0,6.0,2.186
-2.0,3.0,2.187
8.0,-3.0,2.188
6.0,-5.0,2.189
-1.0,-3.0,2.19
0.0,0.0,2.191
11.0,0.0,2.192
13.0,-2.0,2.193
6.0,-1.0,2.194
0.0,1.0,2.195
3.0,3.0,2.196
5.0,3.0,2.197
-1.0,0.0,2.198
-9.0,0.0,2.199
-13.0,3.0,2.2
-9.0,0.0,2.201
-1.0,-2.0,2.202
10.0,-4.0,2.203
19.0,-3.0,2.204
20.0,-1.0,2.205
10.0,1.0,2.206
1.0,0.0,2.207
-2.0,-3.0,2.208
0.0,-4.0,2.209
0.0,-4.0,2.21
2.0,-2.0,2.211
4.0,-1.0,2.212
3.0,-1.0,2.213
-1.0,-1.0,2.214
-2.0,-2.0,2.215
4.0,0.0,2.216
9.0,4.0,2.217
3.0,6.0,2.218
-7.0,5.0,2.219
-12.0,0.0,2.22
-11.0,-6.0,2.221
-8.0,-6.0,2.222
-2.0,-3.0,2.223
7.0,-2.0,2.224
13.0,-2.0,2.225
10.0,-3.0,2.226
8.0,-3.0,2.227
12.0,-3.0,2.228
17.0,-6.0,2.229
15.0,-6.0,2.23
8.0,-4.0,2.231
5.0,-1.0,2.232
6.0,1.0,2.233
2.0,2.0,2.234
-4.0,4.0,2.235
-4.0,2.0,2.236
1.0,2.0,2.237
2.0,-1.0,2.238
-3.0,-1.0,2.239
-7.0,0.0,2.24
-6.0,0.0,2.241
0.0,1.0,2.242
6.0,2.0,2.243
8.0,1.0,2.244
6.0,-2.0,2.245
1.0,-6.0,2.246
0.0,-8.0,2.247
3.0,-5.0,2.248
9.0,-1.0,2.249
12.0,3.0,2.25
12.0,2.0,2.251
11.0,-2.0,2.252
4.0,-4.0,2.253
-2.0,-4.0,2.254
-9.0,-2.0,2.255
-12.0,1.0,2.256
-12.0,4.0,2.257
-11.0,4.0,2.258
-12.0,5.0,2.259
-10.0,5.0,2.26
-7.0,-1.0,2.261
-3.0,-7.0,2.262
3.0,-6.0,2.263
13.0,1.0,2.264
22.0,7.0,2.265
26.0,5.0,2.266
23.0,-1.0,2.267
11.0,-3.0,2.268
-1.0,0.0,2.269
0.0,2.0,2.27
8.0,-2.0,2.271
12.0,-8.0,2.272
3.0,-8.0,2.273
-2.0,-1.0,2.274
4.0,2.0,2.275
9.0,-1.0,2.276
3.0,-3.0,2.277
-7.0,-1.0,2.278
-9.0,5.0,2.279
-5.0,8.0,2.28
-7.0,1.0,2.281
-8.0,-2.0,2.282
4.0,0.0,2.283
22.0,6.0,2.284
24.0,8.0,2.285
16.0,5.0,2.286
14.0,2.0,2.287
17.0,0.0,2.288
10.0,1.0,2.289
-8.0,3.0,2.29
-15.0,3.0,2.291
-5.0,2.0,2.292
7.0,2.0,2.293
6.0,2.0,2.294
0.0,0.0,2.295
-3.0,-3.0,2.296
-3.0,-3.0,2.297
-10.0,1.0,2.298
-18.0,6.0,2.299
-20.0,5.0,2.3
-16.0,-3.0,2.301
-10.0,-8.0,2.302
-3.0,-10.0,2.303
5.0,-11.0,2.304
14.0,-12.0,2.305
18.0,-14.0,2.306
17.0,-15.0,2.307
14.0,-11.0,2.308
14.0,-5.0,2.309
15.0,-2.0,2.31
10.0,1.0,2.311
0.0,9.0,2.312
-9.0,17.0,2.313
-8.0,23.0,2.314
-1.0,23.0,2.315
5.0,23.0,2.316
9.0,22.0,2.317
6.0,9.0,2.318
1.0,-10.0,2.319
-1.0,-26.0,2.32
2.0,-34.0,2.321
13.0,-33.0,2.322
25.0,-35.0,2.323
28.0,-33.0,2.324
21.0,-20.0,2.325
8.0,-4.0,2.326
-1.0,3.0,2.327
-3.0,2.0,2.328
-5.0,1.0,2.329
-10.0,5.0,2.33
-18.0,6.0,2.331
-17.0,5.0,2.332
-10.0,6.0,2.333
-4.0,8.0,2.334
-7.0,3.0,2.335
-11.0,-4.0,2.336
-8.0,-4.0,2.337
-5.0,1.0,2.338
-4.0,3.0,2.339
-7.0,1.0,2.34
-5.0,-2.0,2.341
4.0,0.0,2.342
15.0,0.0,2.343
22.0,2.0,2.344
24.0,6.0,2.345
24.0,10.0,2.346
23.0,9.0,2.347
20.0,7.0,2.348
18.0,7.0,2.349
12.0,7.0,2.35
1.0,3.0,2.351
-8.0,-1.0,2.352
-15.0,-2.0,2.353
-18.0,-4.0,2.354
-18.0,-8.0,2.355
-13.0,-5.0,2.356
-4.0,6.0,2.357
4.0,14.0,2.358
11.0,12.0,2.359
9.0,8.0,2.36
5.0,7.0,2.361
7.0,6.0,2.362
20.0,2.0,2.363
34.0,-2.0,2.364
38.0,-2.0,2.365
24.0,-1.0,2.366
8.0,-1.0,2.367
2.0,-4.0,2.368
4.0,-6.0,2.369
1.0,-7.0,2.37
-4.0,-9.0,2.371
-3.0,-8.0,2.372
6.0,-5.0,2.373
12.0,-2.0,2.374
15.0,-3.0,2.375
13.0,-5.0,2.376
8.0,-1.0,2.377
-3.0,1.0,2.378
-7.0,1.0,2.379
-8.0,0.0,2.38
-7.0,-1.0,2.381
-9.0,2.0,2.382
-6.0,5.0,2.383
1.0,2.0,2.384
3.0,2.0,2.385
-1.0,4.0,2.386
-3.0,5.0,2.387
4.0,2.0,2.388
11.0,-3.0,2.389
8.0,-7.0,2.39
2.0,-9.0,2.391
-2.0,-8.0,2.392
-5.0,0.0,2.393
-7.0,9.0,2.394
-6.0,9.0,2.395
-3.0,1.0,2.396
-3.0,-6.0,2.397
-9.0,-14.0,2.398
-14.0,-25.0,2.399
-18.0,-35.0,2.4
-22.0,-37.0,2.401
-22.0,-21.0,2.402
-13.0,0.0,2.403
5.0,15.0,2.404
14.0,20.0,2.405
13.0,18.0,2.406
11.0,13.0,2.407
16.0,10.0,2.408
18.0,9.0,2.409
14.0,8.0,2.41
11.0,4.0,2.411
11.0,-4.0,2.412
9.0,-9.0,2.413
4.0,-4.0,2.414
-2.0,4.0,2.415
-3.0,2.0,2.416
-1.0,-9.0,2.417
-2.0,-18.0,2.418
-7.0,-12.0,2.419
-11.0,-1.0,2.42
-15.0,-2.0,2.421
-13.0,-12.0,2.422
-5.0,-13.0,2.423
2.0,-3.0,2.424
6.0,12.0,2.425
4.0,22.0,2.426
2.0,29.0,2.427
6.0,35.0,2.428
14.0,39.0,2.429
18.0,38.0,2.43
14.0,34.0,2.431
6.0,27.0,2.432
1.0,12.0,2.433
0.0,-13.0,2.434
4.0,-40.0,2.435
10.0,-59.0,2.436
17.0,-61.0,2.437
20.0,-51.0,2.438
19.0,-35.0,2.439
11.0,-25.0,2.44
0.0,-27.0,2.441
-3.0,-24.0,2.442
0.0,-9.0,2.443
6.0,7.0,2.444
4.0,17.0,2.445
0.0,22.0,2.446
-1.0,24.0,2.447
2.0,24.0,2.448
5.0,20.0,2.449
7.0,21.0,2.45
10.0,23.0,2.451
15.0,12.0,2.452
13.0,-15.0,2.453
5.0,-41.0,2.454
0.0,-42.0,2.455
4.0,-17.0,2.456
9.0,8.0,2.457
6.0,15.0,2.458
-5.0,9.0,2.459
-17.0,4.0,2.46
-20.0,6.0,2.461
-14.0,12.0,2.462
-3.0,13.0,2.463
1.0,11.0,2.464
-8.0,12.0,2.465
-23.0,15.0,2.466
-26.0,14.0,2.467
-18.0,12.0,2.468
-10.0,8.0,2.469
-7.0,2.0,2.47
-4.0,-6.0,2.471
7.0,-15.0,2.472
23.0,-17.0,2.473
38.0,-12.0,2.474
47.0,-7.0,2.475
48.0,-4.0,2.476
38.0,-3.0,2.477
22.0,-3.0,2.478
12.0,-2.0,2.479
8.0,0.0,2.48
5.0,0.0,2.481
0.0,-3.0,2.482
2.0,-3.0,2.483
7.0,-1.0,2.484
1.0,3.0,2.485
-13.0,5.0,2.486
-18.0,3.0,2.487
-9.0,1.0,2.488
-3.0,-1.0,2.489
-7.0,2.0,2.49
-8.0,6.0,2.491
7.0,4.0,2.492
21.0,0.0,2.493
16.0,0.0,2.494
-1.0,11.0,2.495
-10.0,22.0,2.496
-3.0,26.0,2.497
6.0,15.0,2.498
6.0,5.0,2.499
-2.0,2.0,2.5
-7.0,2.0,2.501
-4.0,1.0,2.502
0.0,-5.0,2.503
4.0,-5.0,2.504
1.0,1.0,2.505
0.0,3.0,2.506
-1.0,-21.0,2.507
-2.0,-65.0,2.508
-3.0,-87.0,2.509
-1.0,-63.0,2.51
6.0,-22.0,2.511
12.0,-3.0,2.512
7.0,0.0,2.513
-1.0,16.0,2.514
-3.0,43.0,2.515
-1.0,52.0,2.516
0.0,44.0,2.517
-1.0,35.0,2.518
-3.0,41.0,2.519
-5.0,46.0,2.52
-7.0,46.0,2.521
-8.0,38.0,2.522
-2.0,8.0,2.523
7.0,-27.0,2.524
14.0,-81.0,2.525
11.0,-115.0,2.526
13.0,-87.0,2.527
21.0,-58.0,2.528
27.0,-27.0,2.529
19.0,-2.0,2.53
4.0,3.0,2.531
-5.0,10.0,2.532
-10.0,22.0,2.533
-17.0,26.0,2.534
-24.0,6.0,2.535
-21.0,-14.0,2.536
-11.0,-30.0,2.537
-5.0,-38.0,2.538
-11.0,-9.0,2.539
-28.0,15.0,2.54
-38.0,10.0,2.541
-30.0,-7.0,2.542
-15.0,-15.0,2.543
0.0,-5.0,2.544
9.0,9.0,2.545
20.0,18.0,2.546
39.0,20.0,2.547
54.0,20.0,2.548
50.0,21.0,2.549
30.0,22.0,2.55
10.0,24.0,2.551
-3.0,25.0,2.552
-12.0,20.0,2.553
-20.0,13.0,2.554
-26.0,12.0,2.555
-30.0,12.0,2.556
-29.0,12.0,2.557
-28.0,8.0,2.558
-24.0,6.0,2.559
-19.0,6.0,2.56
-12.0,2.0,2.561
7.0,-1.0,2.562
43.0,-1.0,2.563
80.0,2.0,2.564
95.0,5.0,2.565
81.0,8.0,2.566
57.0,13.0,2.567
41.0,23.0,2.568
29.0,38.0,2.569
12.0,48.0,2.57
-8.0,47.0,2.571
-19.0,38.0,2.572
-11.0,38.0,2.573
8.0,43.0,2.574
25.0,26.0,2.575
27.0,-32.0,2.576
11.0,-93.0,2.577
-12.0,-115.0,2.578
-23.0,-82.0,2.579
-20.0,-42.0,2.58
-17.0,-40.0,2.581
-18.0,-45.0,2.582
-13.0,-15.0,2.583
0.0,36.0,2.584
8.0,58.0,2.585
-3.0,44.0,2.586
-17.0,31.0,2.587
-17.0,26.0,2.588
-10.0,-2.0,2.589
-11.0,-53.0,2.59
-15.0,-76.0,2.591
-13.0,-48.0,2.592
-8.0,-11.0,2.593
-5.0,-10.0,2.594
-6.0,-31.0,2.595
-3.0,-31.0,2.596
2.0,-11.0,2.597
2.0,-10.0,2.598
-5.0,-43.0,2.599
-15.0,-87.0,2.6
-16.0,-101.0,2.601
-9.0,-63.0,2.602
1.0,0.0,2.603
8.0,46.0,2.604
10.0,63.0,2.605
6.0,75.0,2.606
-4.0,94.0,2.607
-23.0,106.0,2.608
-48.0,92.0,2.609
-63.0,63.0,2.61
-58.0,29.0,2.611
-39.0,-19.0,2.612
-23.0,-81.0,2.613
-9.0,-126.0,2.614
13.0,-115.0,2.615
46.0,-55.0,2.616
72.0,2.0,2.617
75.0,28.0,2.618
60.0,26.0,2.619
43.0,22.0,2.62
25.0,29.0,2.621
1.0,39.0,2.622
-17.0,48.0,2.623
-13.0,59.0,2.624
10.0,75.0,2.625
32.0,93.0,2.626
43.0,103.0,2.627
58.0,101.0,2.628
77.0,93.0,2.629
79.0,91.0,2.63
48.0,92.0,2.631
0.0,64.0,2.632
-35.0,-21.0,2.633
-49.0,-140.0,2.634
-66.0,-223.0,2.635
-87.0,-227.0,2.636
-85.0,-173.0,2.637
-45.0,-100.0,2.638
13.0,-34.0,2.639
52.0,4.0,2.64
71.0,0.0,2.641
94.0,-31.0,2.642
116.0,-54.0,2.643
96.0,-51.0,2.644
24.0,-29.0,2.645
-50.0,0.0,2.646
-88.0,31.0,2.647
-98.0,39.0,2.648
-98.0,3.0,2.649
-78.0,-47.0,2.65
-30.0,-55.0,2.651
16.0,-12.0,2.652
36.0,30.0,2.653
42.0,36.0,2.654
52.0,29.0,2.655
53.0,31.0,2.656
25.0,37.0,2.657
-27.0,32.0,2.658
-56.0,31.0,2.659
-46.0,36.0,2.66
-27.0,38.0,2.661
-35.0,35.0,2.662
-61.0,29.0,2.663
-88.0,19.0,2.664
-108.0,5.0,2.665
-127.0,-6.0,2.666
-126.0,-9.0,2.667
-86.0,-11.0,2.668
-31.0,-13.0,2.669
1.0,-10.0,2.67
24.0,0.0,2.671
87.0,9.0,2.672
180.0,8.0,2.673
232.0,4.0,2.674
204.0,7.0,2.675
141.0,11.0,2.676
105.0,12.0,2.677
90.0,11.0,2.678
63.0,12.0,2.679
19.0,15.0,2.68
-6.0,19.0,2.681
2.0,34.0,2.682
26.0,52.0,2.683
40.0,51.0,2.684
40.0,26.0,2.685
31.0,1.0,2.686
31.0,-8.0,2.687
43.0,-15.0,2.688
58.0,-43.0,2.689
51.0,-78.0,2.69
22.0,-88.0,2.691
-11.0,-63.0,2.692
-35.0,-32.0,2.693
-51.0,-17.0,2.694
-56.0,-15.0,2.695
-50.0,-5.0,2.696
-41.0,10.0,2.697
-44.0,41.0,2.698
-58.0,10.0,2.699
-73.0,-11.0,2.7
-77.0,-11.0,2.701
-68.0,-11.0,2.702
-49.0,-22.0,2.703
-28.0,-31.0,2.704
-16.0,-26.0,2.705
-12.0,-26.0,2.706
-13.0,-35.0,2.707
-17.0,-40.0,2.708
-20.0,-35.0,2.709
-21.0,-33.0,2.71
-19.0,-33.0,2.711
-16.0,-28.0,2.712
-16.0,-5.0,2.713
-13.0,13.0,2.714
-1.0,22.0,2.715
8.0,26.0,2.716
5.0,19.0,2.717
-9.0,14.0,2.718
-23.0,0.0,2.719
-32.0,-10.0,2.72
-37.0,-10.0,2.721
-32.0,-10.0,2.722
-8.0,-15.0,2.723
25.0,-19.0,2.724
49.0,-17.0,2.725
54.0,-17.0,2.726
59.0,-21.0,2.727
88.0,-23.0,2.728
135.0,-21.0,2.729
149.0,-20.0,2.73
104.0,-20.0,2.731
39.0,-18.0,2.732
18.0,-7.0,2.733
45.0,1.0,2.734
63.0,5.0,2.735
31.0,7.0,2.736
-29.0,4.0,2.737
-87.0,-2.0,2.738
-123.0,-12.0,2.739
-151.0,-13.0,2.74
-149.0,-11.0,2.741
-145.0,-13.0,2.742
-131.0,-19.0,2.743
-108.0,-11.0,2.744
-55.0,8.0,2.745
-9.0,24.0,2.746
15.0,24.0,2.747
38.0,14.0,2.748
61.0,10.0,2.749
78.0,7.0,2.75
74.0,6.0,2.751
69.0,10.0,2.752
61.0,15.0,2.753
51.0,18.0,2.754
33.0,16.0,2.755
20.0,21.0,2.756
23.0,28.0,2.757
28.0,26.0,2.758
28.0,10.0,2.759
18.0,-7.0,2.76
14.0,-15.0,2.761
22.0,-7.0,2.762
28.0,7.0,2.763
32.0,20.0,2.764
34.0,28.0,2.765
28.0,34.0,2.766
16.0,35.0,2.767
5.0,18.0,2.768
1.0,-20.0,2.769
3.0,-64.0,2.77
1.0,-84.0,2.771
-2.0,-73.0,2.772
-4.0,-52.0,2.773
-3.0,-35.0,2.774
-2.0,-16.0,2.775
1.0,7.0,2.776
7.0,22.0,2.777
11.0,15.0,2.778
7.0,9.0,2.779
-3.0,21.0,2.78
-5.0,40.0,2.781
0.0,48.0,2.782
12.0,38.0,2.783
10.0,26.0,2.784
-9.0,20.0,2.785
-24.0,17.0,2.786
-16.0,1.0,2.787
9.0,-31.0,2.788
24.0,-66.0,2.789
18.0,-73.0,2.79
1.0,-45.0,2.791
-14.0,-11.0,2.792
-23.0,1.0,2.793
-22.0,-5.0,2.794
-18.0,-8.0,2.795
-23.0,3.0,2.796
-41.0,14.0,2.797
-54.0,10.0,2.798
-37.0,3.0,2.799
-5.0,-2.0,2.8
3.0,-4.0,2.801
-25.0,-6.0,2.802
-54.0,-1.0,2.803
-55.0,4.0,2.804
-41.0,9.0,2.805
-24.0,12.0,2.806
1.0,6.0,2.807
45.0,1.0,2.808
91.0,5.0,2.809
115.0,9.0,2.81
114.0,15.0,2.811
99.0,21.0,2.812
78.0,22.0,2.813
49.0,19.0,2.814
18.0,1.0,2.815
-3.0,-10.0,2.816
-13.0,-3.0,2.817
-20.0,3.0,2.818
-24.0,2.0,2.819
-23.0,-4.0,2.82
-18.0,-8.0,2.821
-17.0,0.0,2.822
-28.0,12.0,2.823
-43.0,24.0,2.824
-47.0,27.0,2.825
-37.0,21.0,2.826
-15.0,16.0,2.827
17.0,19.0,2.828
55.0,23.0,2.829
73.0,4.0,2.83
52.0,-43.0,2.831
-2.0,-92.0,2.832
-47.0,-102.0,2.833
-43.0,-73.0,2.834
9.0,-38.0,2.835
66.0,-13.0,2.836
87.0,11.0,2.837
61.0,41.0,2.838
27.0,47.0,2.839
-6.0,50.0,2.84
-37.0,43.0,2.841
-74.0,36.0,2.842
-129.0,31.0,2.843
-162.0,23.0,2.844
-125.0,9.0,2.845
-82.0,0.0,2.846
-21.0,8.0,2.847
26.0,12.0,2.848
34.0,5.0,2.849
38.0,-7.0,2.85
31.0,-39.0,2.851
40.0,-58.0,2.852
96.0,-40.0,2.853
127.0,-20.0,2.854
80.0,4.0,2.855
37.0,21.0,2.856
10.0,15.0,2.857
-8.0,16.0,2.858
10.0,35.0,2.859
37.0,24.0,2.86
46.0,0.0,2.861
15.0,11.0,2.862
-32.0,44.0,2.863
-44.0,54.0,2.864
-20.0,19.0,2.865
-5.0,-31.0,2.866
-19.0,-57.0,2.867
-51.0,-44.0,2.868
-81.0,-28.0,2.869
-81.0,-71.0,2.87
-30.0,-165.0,2.871
49.0,-210.0,2.872
87.0,-137.0,2.873
55.0,-14.0,2.874
1.0,40.0,2.875
-34.0,25.0,2.876
-53.0,25.0,2.877
-63.0,60.0,2.878
-48.0,76.0,2.879
-35.0,81.0,2.88
-27.0,49.0,2.881
-16.0,20.0,2.882
5.0,2.0,2.883
24.0,-3.0,2.884
33.0,29.0,2.885
41.0,47.0,2.886
47.0,23.0,2.887
58.0,1.0,2.888
82.0,-12.0,2.889
101.0,-21.0,2.89
105.0,-14.0,2.891
95.0,-11.0,2.892
43.0,-23.0,2.893
2.0,-30.0,2.894
-7.0,-19.0,2.895
-15.0,-8.0,2.896
-16.0,0.0,2.897
-21.0,3.0,2.898
-33.0,-11.0,2.899
-38.0,-15.0,2.9
-57.0,-3.0,2.901
-92.0,2.0,2.902
-109.0,-19.0,2.903
-92.0,-38.0,2.904
-54.0,-24.0,2.905
-9.0,-2.0,2.906
33.0,4.0,2.907
62.0,9.0,2.908
77.0,37.0,2.909
93.0,64.0,2.91
112.0,62.0,2.911
100.0,47.0,2.912
52.0,49.0,2.913
12.0,58.0,2.914
-1.0,47.0,2.915
-20.0,29.0,2.916
-60.0,28.0,2.917
-84.0,32.0,2.918
-64.0,17.0,2.919
-37.0,-2.0,2.92
8.0,-6.0,2.921
66.0,0.0,2.922
154.0,0.0,2.923
210.0,-8.0,2.924
170.0,-12.0,2.925
125.0,-15.0,2.926
69.0,-23.0,2.927
7.0,-27.0,2.928
-71.0,-24.0,2.929
-141.0,-20.0,2.93
-181.0,-19.0,2.931
-201.0,-17.0,2.932
-158.0,-12.0,2.933
-108.0,-9.0,2.934
-36.0,-9.0,2.935
11.0,-4.0,2.936
-20.0,2.0,2.937
-55.0,0.0,2.938
-66.0,-4.0,2.939
-50.0,-3.0,2.94
-56.0,-1.0,2.941
-81.0,-4.0,2.942
-73.0,-5.0,2.943
-11.0,1.0,2.944
83.0,13.0,2.945
182.0,20.0,2.946
246.0,24.0,2.947
226.0,27.0,2.948
116.0,28.0,2.949
-4.0,27.0,2.95
-49.0,32.0,2.951
-21.0,38.0,2.952
1.0,25.0,2.953
-23.0,-21.0,2.954
-59.0,-72.0,2.955
-58.0,-82.0,2.956
-28.0,-52.0,2.957
-2.0,-21.0,2.958
5.0,-24.0,2.959
6.0,-48.0,2.96
-3.0,-65.0,2.961
-31.0,-55.0,2.962
-50.0,-33.0,2.963
-33.0,-13.0,2.964
2.0,2.0,2.965
21.0,11.0,2.966
24.0,18.0,2.967
28.0,31.0,2.968
34.0,56.0,2.969
35.0,74.0,2.97
32.0,62.0,2.971
28.0,25.0,2.972
21.0,-3.0,2.973
4.0,-5.0,2.974
-9.0,-2.0,2.975
-10.0,-19.0,2.976
-6.0,-46.0,2.977
-9.0,-54.0,2.978
-8.0,-34.0,2.979
1.0,-16.0,2.98
14.0,-3.0,2.981
17.0,8.0,2.982
18.0,15.0,2.983
13.0,20.0,2.984
-5.0,18.0,2.985
-32.0,14.0,2.986
-45.0,5.0,2.987
-42.0,-2.0,2.988
-34.0,-3.0,2.989
-32.0,-2.0,2.99
-28.0,3.0,2.991
-20.0,9.0,2.992
-6.0,11.0,2.993
13.0,13.0,2.994
37.0,14.0,2.995
45.0,14.0,2.996
30.0,6.0,2.997
20.0,-1.0,2.998
41.0,-7.0,2.999
62.0,-16.0,3.0
85.0,-21.0,3.001
97.0,-12.0,3.002
73.0,0.0,3.003
41.0,4.0,3.004
-16.0,1.0,3.005
-56.0,2.0,3.006
-45.0,4.0,3.007
-47.0,5.0,3.008
-87.0,9.0,3.009
-114.0,21.0,3.01
-97.0,31.0,3.011
-68.0,31.0,3.012
-3.0,21.0,3.013
42.0,11.0,3.014
27.0,4.0,3.015
19.0,-1.0,3.016
33.0,-6.0,3.017
43.0,-17.0,3.018
24.0,-33.0,3.019
11.0,-40.0,3.02
14.0,-32.0,3.021
10.0,-24.0,3.022
-9.0,-36.0,3.023
-17.0,-51.0,3.024
6.0,-33.0,3.025
40.0,10.0,3.026
58.0,33.0,3.027
57.0,21.0,3.028
41.0,13.0,3.029
15.0,32.0,3.03
-4.0,43.0,3.031
-5.0,13.0,3.032
0.0,-35.0,3.033
-14.0,-63.0,3.034
-41.0,-62.0,3.035
-41.0,-40.0,3.036
-7.0,-12.0,3.037
42.0,10.0,3.038
85.0,9.0,3.039
104.0,-4.0,3.04
90.0,-8.0,3.041
38.0,4.0,3.042
-18.0,15.0,3.043
-33.0,19.0,3.044
-13.0,24.0,3.045
-7.0,32.0,3.046
-31.0,28.0,3.047
-62.0,13.0,3.048
-85.0,0.0,3.049
-110.0,-2.0,3.05
-124.0,-4.0,3.051
-95.0,-5.0,3.052
-33.0,-4.0,3.053
10.0,-3.0,3.054
9.0,-4.0,3.055
0.0,-1.0,3.056
14.0,14.0,3.057
36.0,35.0,3.058
42.0,51.0,3.059
35.0,63.0,3.06
37.0,59.0,3.061
52.0,51.0,3.062
64.0,33.0,3.063
66.0,17.0,3.064
47.0,8.0,3.065
10.0,1.0,3.066
-25.0,3.0,3.067
-39.0,-2.0,3.068
-35.0,-34.0,3.069
-27.0,-59.0,3.07
-9.0,-62.0,3.071
26.0,-63.0,3.072
65.0,-57.0,3.073
83.0,-52.0,3.074
79.0,-55.0,3.075
70.0,-53.0,3.076
54.0,-33.0,3.077
20.0,-15.0,3.078
-10.0,-13.0,3.079
-33.0,-11.0,3.08
-30.0,2.0,3.081
-27.0,23.0,3.082
-28.0,33.0,3.083
-23.0,35.0,3.084
-1.0,38.0,3.085
19.0,38.0,3.086
31.0,21.0,3.087
41.0,-4.0,3.088
47.0,-10.0,3.089
43.0,-1.0,3.09
9.0,-2.0,3.091
-22.0,-28.0,3.092
-42.0,-55.0,3.093
-56.0,-61.0,3.094
-54.0,-49.0,3.095
-66.0,-36.0,3.096
-123.0,-27.0,3.097
-179.0,-13.0,3.098
-199.0,-7.0,3.099
-160.0,-4.0,3.1
-97.0,5.0,3.101
-54.0,28.0,3.102
-34.0,43.0,3.103
-15.0,45.0,3.104
13.0,50.0,3.105
34.0,68.0,3.106
43.0,77.0,3.107
55.0,63.0,3.108
83.0,41.0,3.109
111.0,30.0,3.11
120.0,19.0,3.111
112.0,-7.0,3.112
104.0,-37.0,3.113
96.0,-45.0,3.114
81.0,-24.0,3.115
61.0,6.0,3.116
44.0,31.0,3.117
34.0,52.0,3.118
24.0,81.0,3.119
7.0,105.0,3.12
-10.0,96.0,3.121
-16.0,58.0,3.122
-9.0,16.0,3.123
-3.0,-12.0,3.124
-7.0,-44.0,3.125
-15.0,-90.0,3.126
-14.0,-125.0,3.127
1.0,-122.0,3.128
19.0,-95.0,3.129
38.0,-80.0,3.13
69.0,-76.0,3.131
112.0,-57.0,3.132
146.0,-26.0,3.133
143.0,-9.0,3.134
96.0,-4.0,3.135
30.0,5.0,3.136
-20.0,20.0,3.137
-60.0,22.0,3.138
-110.0,16.0,3.139
-160.0,14.0,3.14
-157.0,23.0,3.141
-74.0,26.0,3.142
15.0,11.0,3.143
18.0,-8.0,3.144
-63.0,-37.0,3.145
-129.0,-60.0,3.146
-112.0,-66.0,3.147
-43.0,-68.0,3.148
3.0,-58.0,3.149
2.0,-47.0,3.15
-21.0,-31.0,3.151
-26.0,-12.0,3.152
2.0,12.0,3.153
56.0,34.0,3.154
89.0,48.0,3.155
57.0,58.0,3.156
-26.0,54.0,3.157
-113.0,49.0,3.158
-133.0,60.0,3.159
-76.0,86.0,3.16
16.0,96.0,3.161
84.0,83.0,3.162
98.0,62.0,3.163
66.0,42.0,3.164
18.0,21.0,3.165
-19.0,0.0,3.166
-30.0,-9.0,3.167
-18.0,-8.0,3.168
8.0,-11.0,3.169
45.0,-21.0,3.17
81.0,-29.0,3.171
100.0,-29.0,3.172
92.0,-23.0,3.173
69.0,-6.0,3.174
53.0,13.0,3.175
49.0,16.0,3.176
36.0,-1.0,3.177
-7.0,-26.0,3.178
-58.0,-33.0,3.179
-83.0,-30.0,3.18
-77.0,-28.0,3.181
-58.0,-10.0,3.182
-35.0,24.0,3.183
-3.0,48.0,3.184
40.0,37.0,3.185
73.0,0.0,3.186
80.0,-33.0,3.187
61.0,-49.0,3.188
34.0,-46.0,3.189
10.0,-32.0,3.19
-14.0,-20.0,3.191
-44.0,-22.0,3.192
-66.0,-27.0,3.193
-57.0,-18.0,3.194
-26.0,0.0,3.195
-7.0,13.0,3.196
-16.0,16.0,3.197
-44.0,26.0,3.198
-70.0,40.0,3.199
-88.0,40.0,3.2
-84.0,21.0,3.201
-29.0,4.0,3.202
73.0,-6.0,3.203
168.0,-18.0,3.204
206.0,-25.0,3.205
190.0,-8.0,3.206
153.0,24.0,3.207
104.0,39.0,3.208
40.0,20.0,3.209
-20.0,-1.0,3.21
-52.0,-3.0,3.211
-57.0,2.0,3.212
-51.0,-12.0,3.213
-50.0,-41.0,3.214
-61.0,-50.0,3.215
-77.0,-23.0,3.216
-76.0,11.0,3.217
-46.0,18.0,3.218
-18.0,7.0,3.219
-38.0,-1.0,3.22
-98.0,4.0,3.221
-139.0,8.0,3.222
-118.0,10.0,3.223
-60.0,12.0,3.224
-18.0,10.0,3.225
-10.0,4.0,3.226
-17.0,-16.0,3.227
-23.0,-27.0,3.228
-27.0,-12.0,3.229
-24.0,0.0,3.23
-4.0,-1.0,3.231
31.0,-5.0,3.232
61.0,-14.0,3.233
67.0,-22.0,3.234
58.0,-25.0,3.235
54.0,-27.0,3.236
61.0,-24.0,3.237
75.0,-19.0,3.238
99.0,-8.0,3.239
123.0,-1.0,3.24
132.0,-1.0,3.241
115.0,4.0,3.242
86.0,14.0,3.243
63.0,20.0,3.244
38.0,13.0,3.245
0.0,2.0,3.246
-25.0,-9.0,3.247
-11.0,-16.0,3.248
11.0,-27.0,3.249
-26.0,-37.0,3.25
-107.0,-37.0,3.251
-145.0,-26.0,3.252
-102.0,-8.0,3.253
-38.0,15.0,3.254
-14.0,47.0,3.255
-19.0,79.0,3.256
-24.0,97.0,3.257
-33.0,94.0,3.258
-43.0,79.0,3.259
-41.0,63.0,3.26
-24.0,45.0,3.261
-8.0,26.0,3.262
21.0,7.0,3.263
87.0,-2.0,3.264
158.0,-1.0,3.265
166.0,0.0,3.266
105.0,-6.0,3.267
43.0,-17.0,3.268
19.0,-25.0,3.269
5.0,-29.0,3.27
-22.0,-31.0,3.271
-45.0,-36.0,3.272
-48.0,-41.0,3.273
-52.0,-50.0,3.274
-74.0,-57.0,3.275
-97.0,-58.0,3.276
-101.0,-49.0,3.277
-95.0,-37.0,3.278
-91.0,-22.0,3.279
-78.0,-9.0,3.28
-45.0,-2.0,3.281
-9.0,8.0,3.282
14.0,25.0,3.283
24.0,39.0,3.284
31.0,41.0,3.285
45.0,33.0,3.286
79.0,27.0,3.287
156.0,25.0,3.288
260.0,21.0,3.289
320.0,6.0,3.29
280.0,-11.0,3.291
167.0,-23.0,3.292
55.0,-23.0,3.293
-26.0,-12.0,3.294
-94.0,1.0,3.295
-155.0,8.0,3.296
-189.0,7.0,3.297
-204.0,0.0,3.298
-213.0,-3.0,3.299
-213.0,-6.0,3.3
-181.0,-5.0,3.301
-137.0,-2.0,3.302
-114.0,7.0,3.303
-106.0,16.0,3.304
-72.0,26.0,3.305
-18.0,29.0,3.306
28.0,6.0,3.307
62.0,-18.0,3.308
102.0,-44.0,3.309
128.0,-60.0,3.31
103.0,-38.0,3.311
49.0,-21.0,3.312
18.0,-15.0,3.313
21.0,-5.0,3.314
29.0,20.0,3.315
25.0,36.0,3.316
27.0,20.0,3.317
32.0,4.0,3.318
32.0,6.0,3.319
29.0,27.0,3.32
37.0,25.0,3.321
46.0,0.0,3.322
40.0,-6.0,3.323
26.0,20.0,3.324
19.0,48.0,3.325
16.0,47.0,3.326
13.0,32.0,3.327
21.0,25.0,3.328
41.0,20.0,3.329
55.0,0.0,3.33
40.0,-22.0,3.331
6.0,-32.0,3.332
-30.0,-33.0,3.333
-52.0,-38.0,3.334
-40.0,-42.0,3.335
21.0,-35.0,3.336
102.0,-25.0,3.337
154.0,-27.0,3.338
153.0,-35.0,3.339
109.0,-38.0,3.34
46.0,-35.0,3.341
-26.0,-29.0,3.342
-101.0,-25.0,3.343
-154.0,-22.0,3.344
-160.0,-17.0,3.345
-120.0,-10.0,3.346
-62.0,4.0,3.347
-23.0,22.0,3.348
-14.0,34.0,3.349
-15.0,39.0,3.35
-5.0,37.0,3.351
12.0,30.0,3.352
2.0,23.0,3.353
-26.0,23.0,3.354
-26.0,30.0,3.355
29.0,32.0,3.356
101.0,26.0,3.357
128.0,6.0,3.358
75.0,-10.0,3.359
-22.0,-18.0,3.36
-97.0,-28.0,3.361
-113.0,-35.0,3.362
-80.0,-27.0,3.363
-27.0,-4.0,3.364
25.0,16.0,3.365
68.0,18.0,3.366
88.0,12.0,3.367
70.0,18.0,3.368
28.0,34.0,3.369
-8.0,40.0,3.37
-21.0,31.0,3.371
-23.0,25.0,3.372
-39.0,24.0,3.373
-66.0,14.0,3.374
-85.0,-20.0,3.375
-81.0,-63.0,3.376
-49.0,-84.0,3.377
-2.0,-70.0,3.378
33.0,-38.0,3.379
34.0,-14.0,3.38
13.0,-14.0,3.381
-1.0,-9.0,3.382
5.0,6.0,3.383
13.0,19.0,3.384
3.0,26.0,3.385
-9.0,32.0,3.386
-3.0,34.0,3.387
24.0,34.0,3.388
55.0,28.0,3.389
72.0,21.0,3.39
70.0,11.0,3.391
61.0,2.0,3.392
52.0,-3.0,3.393
48.0,-12.0,3.394
40.0,-33.0,3.395
23.0,-47.0,3.396
-5.0,-40.0,3.397
-34.0,-26.0,3.398
-45.0,2.0,3.399
-33.0,9.0,3.4
-15.0,-5.0,3.401
-15.0,-8.0,3.402
-18.0,8.0,3.403
-2.0,25.0,3.404
21.0,28.0,3.405
16.0,23.0,3.406
-22.0,14.0,3.407
-52.0,4.0,3.408
-53.0,-3.0,3.409
-43.0,4.0,3.41
-34.0,19.0,3.411
-14.0,23.0,3.412
27.0,12.0,3.413
76.0,-1.0,3.414
125.0,-9.0,3.415
162.0,-9.0,3.416
159.0,-7.0,3.417
95.0,-7.0,3.418
16.0,-8.0,3.419
-18.0,-8.0,3.42
-12.0,-6.0,3.421
-25.0,5.0,3.422
-87.0,14.0,3.423
-159.0,22.0,3.424
-182.0,28.0,3.425
-142.0,26.0,3.426
-70.0,11.0,3.427
-20.0,-7.0,3.428
-17.0,-19.0,3.429
-29.0,-27.0,3.43
-8.0,-41.0,3.431
42.0,-59.0,3.432
70.0,-71.0,3.433
50.0,-67.0,3.434
17.0,-48.0,3.435
10.0,-30.0,3.436
24.0,-26.0,3.437
34.0,-39.0,3.438
42.0,-45.0,3.439
54.0,-29.0,3.44
63.0,2.0,3.441
52.0,25.0,3.442
25.0,28.0,3.443
4.0,32.0,3.444
0.0,45.0,3.445
0.0,52.0,3.446
-15.0,42.0,3.447
-42.0,27.0,3.448
-66.0,24.0,3.449
-79.0,27.0,3.45
-90.0,20.0,3.451
-82.0,3.0,3.452
-43.0,-11.0,3.453
1.0,-13.0,3.454
8.0,-6.0,3.455
-14.0,2.0,3.456
-9.0,11.0,3.457
40.0,19.0,3.458
89.0,24.0,3.459
89.0,24.0,3.46
68.0,19.0,3.461
64.0,14.0,3.462
66.0,7.0,3.463
54.0,-5.0,3.464
55.0,-6.0,3.465
87.0,0.0,3.466
106.0,0.0,3.467
63.0,-14.0,3.468
-4.0,-26.0,3.469
-31.0,-19.0,3.47
-22.0,-8.0,3.471
-35.0,-10.0,3.472
-85.0,-19.0,3.473
-123.0,-22.0,3.474
-115.0,-20.0,3.475
-74.0,-22.0,3.476
-29.0,-15.0,3.477
12.0,9.0,3.478
38.0,44.0,3.479
38.0,63.0,3.48
25.0,57.0,3.481
15.0,42.0,3.482
7.0,26.0,3.483
-7.0,12.0,3.484
-9.0,14.0,3.485
26.0,26.0,3.486
77.0,27.0,3.487
95.0,4.0,3.488
61.0,-21.0,3.489
21.0,-30.0,3.49
16.0,-27.0,3.491
42.0,-31.0,3.492
66.0,-41.0,3.493
69.0,-48.0,3.494
46.0,-50.0,3.495
-12.0,-54.0,3.496
-85.0,-55.0,3.497
-142.0,-49.0,3.498
-151.0,-39.0,3.499
-132.0,-32.0,3.5
-111.0,-24.0,3.501
-95.0,-3.0,3.502
-72.0,29.0,3.503
-44.0,53.0,3.504
-5.0,54.0,3.505
58.0,33.0,3.506
117.0,9.0,3.507
141.0,2.0,3.508
145.0,16.0,3.509
147.0,27.0,3.51
120.0,15.0,3.511
44.0,-4.0,3.512
-25.0,-5.0,3.513
-24.0,8.0,3.514
-3.0,6.0,3.515
-46.0,-14.0,3.516
-127.0,-22.0,3.517
-162.0,-5.0,3.518
-133.0,15.0,3.519
-107.0,21.0,3.52
-103.0,18.0,3.521
-69.0,29.0,3.522
-1.0,46.0,3.523
38.0,55.0,3.524
26.0,49.0,3.525
20.0,36.0,3.526
49.0,23.0,3.527
74.0,13.0,3.528
70.0,6.0,3.529
67.0,-5.0,3.53
88.0,-23.0,3.531
106.0,-40.0,3.532
91.0,-44.0,3.533
62.0,-38.0,3.534
46.0,-32.0,3.535
43.0,-29.0,3.536
36.0,-18.0,3.537
20.0,-3.0,3.538
2.0,7.0,3.539
-16.0,6.0,3.54
-32.0,-3.0,3.541
-42.0,-8.0,3.542
-42.0,-17.0,3.543
-29.0,-34.0,3.544
0.0,-46.0,3.545
33.0,-41.0,3.546
30.0,-27.0,3.547
-23.0,-25.0,3.548
-73.0,-34.0,3.549
-65.0,-38.0,3.55
-23.0,-27.0,3.551
-13.0,-16.0,3.552
-30.0,-15.0,3.553
-13.0,-12.0,3.554
50.0,-2.0,3.555
96.0,11.0,3.556
90.0,21.0,3.557
60.0,29.0,3.558
46.0,37.0,3.559
36.0,32.0,3.56
7.0,6.0,3.561
-45.0,-9.0,3.562
-95.0,-2.0,3.563
-129.0,15.0,3.564
-146.0,25.0,3.565
-145.0,32.0,3.566
-122.0,41.0,3.567
-68.0,45.0,3.568
12.0,38.0,3.569
88.0,27.0,3.57
116.0,18.0,3.571
88.0,10.0,3.572
44.0,0.0,3.573
32.0,0.0,3.574
49.0,13.0,3.575
59.0,32.0,3.576
48.0,44.0,3.577
28.0,36.0,3.578
16.0,13.0,3.579
-7.0,-13.0,3.58
-37.0,-30.0,3.581
-38.0,-25.0,3.582
14.0,-10.0,3.583
84.0,0.0,3.584
105.0,1.0,3.585
67.0,0.0,3.586
4.0,-1.0,3.587
-54.0,-5.0,3.588
-97.0,-13.0,3.589
-108.0,-23.0,3.59
-75.0,-31.0,3.591
-27.0,-39.0,3.592
-5.0,-42.0,3.593
-4.0,-34.0,3.594
3.0,-21.0,3.595
23.0,-8.0,3.596
36.0,5.0,3.597
51.0,17.0,3.598
80.0,28.0,3.599
81.0,26.0,3.6
19.0,13.0,3.601
-57.0,9.0,3.602
-62.0,13.0,3.603
0.0,14.0,3.604
43.0,4.0,3.605
30.0,-3.0,3.606
8.0,1.0,3.607
6.0,6.0,3.608
-5.0,-7.0,3.609
-28.0,-36.0,3.61
-26.0,-56.0,3.611
-5.0,-52.0,3.612
-19.0,-35.0,3.613
-72.0,-27.0,3.614
-92.0,-28.0,3.615
-54.0,-19.0,3.616
-14.0,1.0,3.617
-10.0,19.0,3.618
-10.0,26.0,3.619
17.0,20.0,3.62
46.0,13.0,3.621
44.0,16.0,3.622
28.0,21.0,3.623
27.0,21.0,3.624
30.0,16.0,3.625
25.0,10.0,3.626
27.0,0.0,3.627
51.0,-13.0,3.628
74.0,-24.0,3.629
76.0,-25.0,3.63
65.0,-17.0,3.631
56.0,-4.0,3.632
45.0,16.0,3.633
30.0,40.0,3.634
19.0,52.0,3.635
14.0,44.0,3.636
9.0,27.0,3.637
-5.0,18.0,3.638
-20.0,19.0,3.639
-35.0,8.0,3.64
-46.0,-20.0,3.641
-46.0,-38.0,3.642
-37.0,-24.0,3.643
-38.0,3.0,3.644
-58.0,19.0,3.645
-63.0,21.0,3.646
-29.0,24.0,3.647
24.0,25.0,3.648
67.0,3.0,3.649
107.0,-32.0,3.65
142.0,-57.0,3.651
125.0,-51.0,3.652
26.0,-31.0,3.653
-97.0,-18.0,3.654
-159.0,-17.0,3.655
-153.0,-15.0,3.656
-133.0,-4.0,3.657
-130.0,10.0,3.658
-116.0,17.0,3.659
-75.0,11.0,3.66
-25.0,-1.0,3.661
11.0,-3.0,3.662
34.0,0.0,3.663
49.0,1.0,3.664
60.0,0.0,3.665
75.0,1.0,3.666
97.0,2.0,3.667
109.0,1.0,3.668
88.0,2.0,3.669
52.0,9.0,3.67
35.0,20.0,3.671
50.0,23.0,3.672
58.0,14.0,3.673
33.0,-2.0,3.674
-11.0,-16.0,3.675
-49.0,-20.0,3.676
-76.0,-15.0,3.677
-94.0,-14.0,3.678
-70.0,-23.0,3.679
8.0,-34.0,3.68
83.0,-41.0,3.681
67.0,-37.0,3.682
-45.0,-32.0,3.683
-155.0,-29.0,3.684
-163.0,-21.0,3.685
-76.0,-1.0,3.686
10.0,14.0,3.687
23.0,21.0,3.688
-23.0,25.0,3.689
-52.0,37.0,3.69
-9.0,50.0,3.691
76.0,47.0,3.692
125.0,30.0,3.693
102.0,14.0,3.694
49.0,10.0,3.695
28.0,11.0,3.696
40.0,12.0,3.697
44.0,12.0,3.698
27.0,14.0,3.699
10.0,13.0,3.7
12.0,2.0,3.701
20.0,-7.0,3.702
27.0,-10.0,3.703
39.0,-6.0,3.704
49.0,2.0,3.705
32.0,5.0,3.706
-5.0,-4.0,3.707
-32.0,-12.0,3.708
-33.0,-8.0,3.709
-26.0,5.0,3.71
-25.0,10.0,3.711
-22.0,0.0,3.712
-7.0,-11.0,3.713
7.0,-8.0,3.714
13.0,0.0,3.715
19.0,3.0,3.716
34.0,4.0,3.717
58.0,4.0,3.718
74.0,3.0,3.719
60.0,-3.0,3.72
11.0,-11.0,3.721
-43.0,-8.0,3.722
-63.0,-1.0,3.723
-38.0,5.0,3.724
-9.0,7.0,3.725
-8.0,10.0,3.726
-30.0,9.0,3.727
-47.0,3.0,3.728
-54.0,0.0,3.729
-67.0,0.0,3.73
-80.0,-4.0,3.731
-74.0,-11.0,3.732
-47.0,-16.0,3.733
-20.0,-16.0,3.734
-3.0,-19.0,3.735
10.0,-26.0,3.736
27.0,-24.0,3.737
37.0,-13.0,3.738
39.0,-3.0,3.739
41.0,-5.0,3.74
50.0,-17.0,3.741
54.0,-16.0,3.742
45.0,-4.0,3.743
36.0,5.0,3.744
42.0,7.0,3.745
58.0,11.0,3.746
61.0,16.0,3.747
37.0,17.0,3.748
-3.0,13.0,3.749
-33.0,11.0,3.75
-36.0,11.0,3.751
-27.0,7.0,3.752
-30.0,1.0,3.753
-40.0,0.0,3.754
-36.0,7.0,3.755
-20.0,14.0,3.756
-9.0,13.0,3.757
-10.0,4.0,3.758
-7.0,-5.0,3.759
3.0,-11.0,3.76
17.0,-5.0,3.761
25.0,0.0,3.762
35.0,4.0,3.763
47.0,5.0,3.764
45.0,-8.0,3.765
31.0,-19.0,3.766
22.0,-19.0,3.767
24.0,-16.0,3.768
26.0,-2.0,3.769
15.0,7.0,3.77
0.0,4.0,3.771
-3.0,2.0,3.772
2.0,3.0,3.773
4.0,4.0,3.774
-7.0,7.0,3.775
-25.0,9.0,3.776
-36.0,5.0,3.777
-35.0,1.0,3.778
-22.0,0.0,3.779
-3.0,4.0,3.78
15.0,5.0,3.781
22.0,3.0,3.782
13.0,-5.0,3.783
-5.0,-14.0,3.784
-21.0,-18.0,3.785
-34.0,-16.0,3.786
-43.0,-13.0,3.787
-47.0,-13.0,3.788
-36.0,-11.0,3.789
-14.0,-8.0,3.79
7.0,-3.0,3.791
18.0,0.0,3.792
25.0,0.0,3.793
35.0,-1.0,3.794
44.0,0.0,3.795
41.0,3.0,3.796
27.0,6.0,3.797
16.0,3.0,3.798
28.0,-1.0,3.799
37.0,-5.0,3.8
39.0,-7.0,3.801
34.0,-4.0,3.802
5.0,1.0,3.803
-21.0,6.0,3.804
-37.0,10.0,3.805
-53.0,13.0,3.806
-65.0,8.0,3.807
-73.0,1.0,3.808
-63.0,-2.0,3.809
-51.0,0.0,3.81
-31.0,3.0,3.811
-13.0,2.0,3.812
-1.0,-1.0,3.813
8.0,-4.0,3.814
9.0,-5.0,3.815
11.0,-5.0,3.816
13.0,-4.0,3.817
15.0,-3.0,3.818
13.0,-2.0,3.819
13.0,0.0,3.82
21.0,0.0,3.821
32.0,2.0,3.822
43.0,4.0,3.823
50.0,4.0,3.824
50.0,5.0,3.825
40.0,5.0,3.826
29.0,2.0,3.827
23.0,-3.0,3.828
21.0,-6.0,3.829
19.0,-6.0,3.83
20.0,-4.0,3.831
24.0,-3.0,3.832
18.0,-1.0,3.833
4.0,0.0,3.834
-2.0,1.0,3.835
13.0,0.0,3.836
31.0,0.0,3.837
33.0,-4.0,3.838
19.0,-9.0,3.839
3.0,-11.0,3.84
-11.0,-13.0,3.841
-33.0,-10.0,3.842
-54.0,-1.0,3.843
-59.0,10.0,3.844
-57.0,18.0,3.845
-65.0,16.0,3.846
-66.0,8.0,3.847
-42.0,5.0,3.848
-4.0,9.0,3.849
19.0,12.0,3.85
21.0,5.0,3.851
24.0,-8.0,3.852
38.0,-14.0,3.853
51.0,-11.0,3.854
45.0,-8.0,3.855
29.0,-9.0,3.856
20.0,-8.0,3.857
17.0,-6.0,3.858
10.0,-1.0,3.859
-7.0,2.0,3.86
-28.0,1.0,3.861
-36.0,-2.0,3.862
-20.0,-5.0,3.863
15.0,-4.0,3.864
60.0,-4.0,3.865
99.0,-7.0,3.866
104.0,-8.0,3.867
54.0,-3.0,3.868
-21.0,6.0,3.869
-68.0,8.0,3.87
-76.0,-4.0,3.871
-88.0,-21.0,3.872
-117.0,-27.0,3.873
-114.0,-23.0,3.874
-56.0,-20.0,3.875
1.0,-20.0,3.876
15.0,-16.0,3.877
16.0,-6.0,3.878
49.0,9.0,3.879
82.0,22.0,3.88
69.0,22.0,3.881
22.0,14.0,3.882
-4.0,8.0,3.883
-11.0,14.0,3.884
-32.0,32.0,3.885
-58.0,50.0,3.886
-55.0,47.0,3.887
-33.0,31.0,3.888
-27.0,19.0,3.889
-21.0,17.0,3.89
30.0,8.0,3.891
115.0,-10.0,3.892
180.0,-20.0,3.893
194.0,-15.0,3.894
163.0,-9.0,3.895
94.0,-15.0,3.896
14.0,-24.0,3.897
-40.0,-22.0,3.898
-46.0,-15.0,3.899
-46.0,-11.0,3.9
-77.0,-17.0,3.901
-103.0,-23.0,3.902
-70.0,-24.0,3.903
-9.0,-24.0,3.904
2.0,-22.0,3.905
-51.0,-19.0,3.906
-103.0,-16.0,3.907
-95.0,-11.0,3.908
-42.0,-1.0,3.909
5.0,10.0,3.91
16.0,27.0,3.911
7.0,37.0,3.912
24.0,19.0,3.913
100.0,5.0,3.914
223.0,0.0,3.915
318.0,-2.0,3.916
303.0,3.0,3.917
143.0,10.0,3.918
-76.0,15.0,3.919
-224.0,21.0,3.92
-242.0,13.0,3.921
-202.0,-6.0,3.922
-208.0,-13.0,3.923
-264.0,4.0,3.924
-272.0,31.0,3.925
-154.0,36.0,3.926
43.0,18.0,3.927
187.0,4.0,3.928
194.0,1.0,3.929
117.0,-6.0,3.93
70.0,-22.0,3.931
75.0,-34.0,3.932
63.0,-33.0,3.933
7.0,-29.0,3.934
-31.0,-27.0,3.935
-20.0,-19.0,3.936
-1.0,-4.0,3.937
-9.0,7.0,3.938
-15.0,13.0,3.939
-12.0,18.0,3.94
24.0,21.0,3.941
65.0,19.0,3.942
122.0,-1.0,3.943
164.0,-15.0,3.944
158.0,-6.0,3.945
144.0,2.0,3.946
104.0,6.0,3.947
58.0,7.0,3.948
-2.0,0.0,3.949
-69.0,-4.0,3.95
-155.0,0.0,3.951
-202.0,4.0,3.952
-128.0,5.0,3.953
-51.0,6.0,3.954
34.0,9.0,3.955
112.0,9.0,3.956
168.0,-4.0,3.957
202.0,-18.0,3.958
125.0,-24.0,3.959
17.0,-15.0,3.96
-41.0,-7.0,3.961
-62.0,-3.0,3.962
-122.0,-3.0,3.963
-228.0,-4.0,3.964
-287.0,-3.0,3.965
-245.0,-4.0,3.966
-176.0,-8.0,3.967
-161.0,-12.0,3.968
-151.0,-7.0,3.969
-69.0,7.0,3.97
49.0,20.0,3.971
108.0,11.0,3.972
111.0,-13.0,3.973
131.0,-29.0,3.974
185.0,-18.0,3.975
217.0,6.0,3.976
202.0,23.0,3.977
163.0,18.0,3.978
114.0,8.0,3.979
44.0,4.0,3.98
-23.0,2.0,3.981
-44.0,-4.0,3.982
-30.0,-18.0,3.983
-33.0,-26.0,3.984
-72.0,-17.0,3.985
-114.0,-2.0,3.986
-122.0,0.0,3.987
-79.0,-4.0,3.988
16.0,11.0,3.989
128.0,45.0,3.99
180.0,63.0,3.991
140.0,41.0,3.992
57.0,-1.0,3.993
-8.0,-30.0,3.994
-54.0,-34.0,3.995
-91.0,-30.0,3.996
-100.0,-27.0,3.997
-76.0,-32.0,3.998
-37.0,-27.0,3.999
-19.0,-3.0,4.0
-38.0,35.0,4.001
-90.0,66.0,4.002
-127.0,69.0,4.003
-75.0,40.0,4.004
61.0,6.0,4.005
182.0,-6.0,4.006
203.0,1.0,4.007
171.0,3.0,4.008
165.0,-6.0,4.009
162.0,-14.0,4.01
100.0,-10.0,4.011
13.0,-6.0,4.012
-21.0,-14.0,4.013
-4.0,-24.0,4.014
2.0,-16.0,4.015
-13.0,2.0,4.016
-24.0,13.0,4.017
-66.0,4.0,4.018
-151.0,-5.0,4.019
-205.0,-13.0,4.02
-166.0,-13.0,4.021
-125.0,-13.0,4.022
-83.0,-10.0,4.023
-49.0,-7.0,4.024
-35.0,-7.0,4.025
-9.0,-8.0,4.026
55.0,-10.0,4.027
95.0,-12.0,4.028
61.0,-10.0,4.029
24.0,-7.0,4.03
-25.0,-1.0,4.031
-73.0,3.0,4.032
-115.0,3.0,4.033
-134.0,3.0,4.034
-81.0,5.0,4.035
-9.0,7.0,4.036
117.0,7.0,4.037
225.0,7.0,4.038
244.0,6.0,4.039
234.0,6.0,4.04
180.0,3.0,4.041
55.0,-1.0,4.042
-61.0,-2.0,4.043
-70.0,0.0,4.044
0.0,1.0,4.045
36.0,-2.0,4.046
-6.0,-7.0,4.047
-66.0,-7.0,4.048
-85.0,-6.0,4.049
-60.0,-5.0,4.05
-21.0,-7.0,4.051
0.0,-9.0,4.052
-17.0,-8.0,4.053
-43.0,-2.0,4.054
-27.0,3.0,4.055
22.0,7.0,4.056
43.0,11.0,4.057
22.0,14.0,4.058
12.0,15.0,4.059
8.0,10.0,4.06
21.0,-1.0,4.061
29.0,-6.0,4.062
23.0,-4.0,4.063
14.0,-1.0,4.064
-3.0,0.0,4.065
-18.0,0.0,4.066
-17.0,-3.0,4.067
-8.0,-6.0,4.068
21.0,-8.0,4.069
40.0,-6.0,4.07
24.0,-5.0,4.071
12.0,-7.0,4.072
18.0,-6.0,4.073
22.0,0.0,4.074
18.0,1.0,4.075
10.0,-4.0,4.076
-7.0,-7.0,4.077
-23.0,0.0,4.078
-30.0,10.0,4.079
-44.0,11.0,4.08
-57.0,3.0,4.081
-51.0,0.0,4.082
-26.0,0.0,4.083
-8.0,0.0,4.084
-8.0,1.0,4.085
-5.0,5.0,4.086
15.0,7.0,4.087
40.0,1.0,4.088
57.0,-3.0,4.089
68.0,0.0,4.09
75.0,5.0,4.091
74.0,3.0,4.092
62.0,0.0,4.093
33.0,2.0,4.094
-16.0,6.0,4.095
-65.0,3.0,4.096
-75.0,2.0,4.097
-45.0,5.0,4.098
-22.0,12.0,4.099
-40.0,14.0,4.1
-61.0,8.0,4.101
-40.0,5.0,4.102
5.0,8.0,4.103
23.0,13.0,4.104
11.0,18.0,4.105
0.0,19.0,4.106
3.0,19.0,4.107
7.0,22.0,4.108
8.0,24.0,4.109
14.0,13.0,4.11
17.0,-13.0,4.111
8.0,-45.0,4.112
-2.0,-69.0,4.113
1.0,-78.0,4.114
9.0,-78.0,4.115
6.0,-70.0,4.116
3.0,-53.0,4.117
10.0,-37.0,4.118
18.0,-20.0,4.119
4.0,-5.0,4.12
-15.0,13.0,4.121
-14.0,38.0,4.122
3.0,58.0,4.123
10.0,62.0,4.124
5.0,52.0,4.125
8.0,35.0,4.126
20.0,18.0,4.127
22.0,3.0,4.128
12.0,-8.0,4.129
5.0,-11.0,4.13
6.0,-10.0,4.131
0.0,-10.0,4.132
-15.0,-17.0,4.133
-22.0,-25.0,4.134
-12.0,-22.0,4.135
0.0,-10.0,4.136
5.0,0.0,4.137
4.0,12.0,4.138
5.0,40.0,4.139
6.0,75.0,4.14
-1.0,89.0,4.141
-11.0,70.0,4.142
-11.0,35.0,4.143
2.0,8.0,4.144
15.0,-16.0,4.145
8.0,-44.0,4.146
-9.0,-63.0,4.147
-13.0,-62.0,4.148
5.0,-48.0,4.149
25.0,-41.0,4.15
24.0,-46.0,4.151
16.0,-47.0,4.152
21.0,-40.0,4.153
35.0,-31.0,4.154
38.0,-21.0,4.155
34.0,-10.0,4.156
36.0,-3.0,4.157
28.0,-4.0,4.158
-5.0,-6.0,4.159
-34.0,-3.0,4.16
-52.0,5.0,4.161
-62.0,15.0,4.162
-45.0,25.0,4.163
-32.0,34.0,4.164
-31.0,41.0,4.165
-26.0,41.0,4.166
-11.0,33.0,4.167
1.0,24.0,4.168
3.0,17.0,4.169
7.0,14.0,4.17
13.0,7.0,4.171
23.0,-2.0,4.172
39.0,-5.0,4.173
47.0,5.0,4.174
31.0,20.0,4.175
18.0,28.0,4.176
18.0,31.0,4.177
17.0,38.0,4.178
7.0,17.0,4.179
-18.0,0.0,4.18
-33.0,-13.0,4.181
-29.0,-24.0,4.182
-18.0,-24.0,4.183
-9.0,-21.0,4.184
11.0,-10.0,4.185
49.0,0.0,4.186
69.0,3.0,4.187
41.0,7.0,4.188
-15.0,9.0,4.189
-46.0,11.0,4.19
-35.0,11.0,4.191
-16.0,10.0,4.192
-12.0,7.0,4.193
4.0,6.0,4.194
67.0,7.0,4.195
139.0,10.0,4.196
151.0,13.0,4.197
94.0,28.0,4.198
19.0,13.0,4.199
-51.0,0.0,4.2
-138.0,-9.0,4.201
-231.0,-17.0,4.202
-250.0,-17.0,4.203
-161.0,-15.0,4.204
-41.0,-7.0,4.205
17.0,0.0,4.206
30.0,3.0,4.207
60.0,6.0,4.208
113.0,7.0,4.209
148.0,9.0,4.21
156.0,9.0,4.211
137.0,8.0,4.212
82.0,6.0,4.213
3.0,5.0,4.214
-38.0,6.0,4.215
-23.0,8.0,4.216
-13.0,10.0,4.217
-47.0,12.0,4.218
-62.0,7.0,4.219
-9.0,0.0,4.22
58.0,-4.0,4.221
56.0,0.0,4.222
5.0,5.0,4.223
-15.0,7.0,4.224
-4.0,7.0,4.225
-17.0,6.0,4.226
-47.0,1.0,4.227
-43.0,-3.0,4.228
-16.0,-3.0,4.229
-8.0,0.0,4.23
-17.0,3.0,4.231
0.0,-1.0,4.232
33.0,-6.0,4.233
38.0,-5.0,4.234
18.0,-5.0,4.235
14.0,-7.0,4.236
23.0,-8.0,4.237
14.0,-11.0,4.238
-9.0,-11.0,4.239
-26.0,-11.0,4.24
-20.0,-11.0,4.241
-14.0,-9.0,4.242
-8.0,-5.0,4.243
0.0,1.0,4.244
11.0,7.0,4.245
19.0,7.0,4.246
15.0,0.0,4.247
12.0,-9.0,4.248
17.0,-14.0,4.249
19.0,-13.0,4.25
9.0,-9.0,4.251
2.0,-2.0,4.252
6.0,7.0,4.253
7.0,12.0,4.254
0.0,12.0,4.255
-4.0,15.0,4.256
-1.0,23.0,4.257
0.0,22.0,4.258
-8.0,7.0,4.259
-7.0,-6.0,4.26
1.0,-10.0,4.261
5.0,-11.0,4.262
3.0,2.0,4.263
6.0,13.0,4.264
8.0,15.0,4.265
4.0,15.0,4.266
-2.0,4.0,4.267
-1.0,-5.0,4.268
1.0,-7.0,4.269
-3.0,-9.0,4.27
-7.0,-11.0,4.271
0.0,-13.0,4.272
16.0,-11.0,4.273
28.0,-11.0,4.274
29.0,-16.0,4.275
19.0,-19.0,4.276
4.0,-12.0,4.277
-8.0,-3.0,4.278
-13.0,-1.0,4.279
-9.0,-3.0,4.28
-6.0,-6.0,4.281
-13.0,-2.0,4.282
-16.0,-1.0,4.283
-9.0,-4.0,4.284
1.0,-2.0,4.285
16.0,4.0,4.286
35.0,9.0,4.287
63.0,9.0,4.288
74.0,9.0,4.289
41.0,9.0,4.29
-24.0,6.0,4.291
-85.0,5.0,4.292
-114.0,9.0,4.293
-118.0,13.0,4.294
-119.0,12.0,4.295
-115.0,10.0,4.296
-80.0,11.0,4.297
3.0,5.0,4.298
103.0,-9.0,4.299
155.0,-26.0,4.3
135.0,-34.0,4.301
77.0,-26.0,4.302
23.0,-11.0,4.303
-6.0,0.0,4.304
-9.0,8.0,4.305
3.0,8.0,4.306
17.0,-1.0,4.307
18.0,-9.0,4.308
13.0,-10.0,4.309
11.0,-6.0,4.31
11.0,-6.0,4.311
5.0,-8.0,4.312
5.0,-8.0,4.313
13.0,-4.0,4.314
19.0,-2.0,4.315
12.0,-2.0,4.316
2.0,0.0,4.317
-1.0,3.0,4.318
0.0,5.0,4.319
-4.0,1.0,4.32
-10.0,-4.0,4.321
-7.0,-3.0,4.322
4.0,-1.0,4.323
18.0,0.0,4.324
22.0,3.0,4.325
14.0,9.0,4.326
-4.0,13.0,4.327
-18.0,11.0,4.328
-24.0,10.0,4.329
-33.0,11.0,4.33
-48.0,13.0,4.331
-55.0,10.0,4.332
-38.0,5.0,4.333
-5.0,3.0,4.334
22.0,4.0,4.335
29.0,1.0,4.336
26.0,-1.0,4.337
23.0,-6.0,4.338
24.0,-10.0,4.339
19.0,-13.0,4.34
10.0,-13.0,4.341
6.0,-7.0,4.342
14.0,-2.0,4.343
18.0,0.0,4.344
8.0,3.0,4.345
-4.0,10.0,4.346
-4.0,9.0,4.347
6.0,-1.0,4.348
15.0,-8.0,4.349
16.0,-5.0,4.35
14.0,-2.0,4.351
12.0,-5.0,4.352
8.0,-7.0,4.353
-1.0,-4.0,4.354
-4.0,-1.0,4.355
0.0,-2.0,4.356
10.0,-2.0,4.357
14.0,5.0,4.358
-2.0,15.0,4.359
-41.0,23.0,4.36
-71.0,20.0,4.361
-58.0,13.0,4.362
-9.0,0.0,4.363
32.0,-11.0,4.364
35.0,-15.0,4.365
18.0,-14.0,4.366
12.0,-17.0,4.367
14.0,-20.0,4.368
3.0,-18.0,4.369
-13.0,-11.0,4.37
-16.0,-10.0,4.371
5.0,-11.0,4.372
36.0,-7.0,4.373
55.0,-2.0,4.374
45.0,-1.0,4.375
11.0,-1.0,4.376
-18.0,1.0,4.377
-25.0,3.0,4.378
-12.0,0.0,4.379
-4.0,-4.0,4.38
-5.0,-3.0,4.381
1.0,4.0,4.382
14.0,10.0,4.383
13.0,12.0,4.384
-6.0,15.0,4.385
-17.0,19.0,4.386
-5.0,18.0,4.387
15.0,10.0,4.388
20.0,7.0,4.389
13.0,12.0,4.39
8.0,16.0,4.391
9.0,16.0,4.392
12.0,9.0,4.393
7.0,-2.0,4.394
1.0,-17.0,4.395
0.0,-27.0,4.396
-1.0,-28.0,4.397
-2.0,-25.0,4.398
-3.0,-22.0,4.399
-8.0,-16.0,4.4
-15.0,-12.0,4.401
-16.0,-7.0,4.402
-9.0,-3.0,4.403
0.0,0.0,4.404
1.0,3.0,4.405
-1.0,4.0,4.406
1.0,0.0,4.407
11.0,-4.0,4.408
16.0,-4.0,4.409
14.0,-1.0,4.41
9.0,0.0,4.411
1.0,0.0,4.412
-7.0,6.0,4.413
-16.0,21.0,4.414
-14.0,33.0,4.415
-6.0,31.0,4.416
-2.0,23.0,4.417
-1.0,15.0,4.418
10.0,11.0,4.419
25.0,6.0,4.42
27.0,-2.0,4.421
7.0,-3.0,4.422
-14.0,5.0,4.423
-16.0,8.0,4.424
-7.0,1.0,4.425
-5.0,-8.0,4.426
-10.0,-9.0,4.427
-6.0,-8.0,4.428
5.0,-8.0,4.429
15.0,-10.0,4.43
18.0,-7.0,4.431
24.0,-4.0,4.432
30.0,-5.0,4.433
31.0,-9.0,4.434
22.0,-10.0,4.435
17.0,-11.0,4.436
18.0,-12.0,4.437
17.0,-15.0,4.438
9.0,-13.0,4.439
-1.0,-8.0,4.44
-2.0,-7.0,4.441
5.0,-5.0,4.442
12.0,-2.0,4.443
13.0,4.0,4.444
21.0,9.0,4.445
43.0,10.0,4.446
67.0,7.0,4.447
65.0,5.0,4.448
38.0,7.0,4.449
15.0,8.0,4.45
6.0,6.0,4.451
-10.0,3.0,4.452
-68.0,0.0,4.453
-160.0,-2.0,4.454
-231.0,-5.0,4.455
-227.0,-7.0,4.456
-149.0,-2.0,4.457
-48.0,0.0,4.458
13.0,-4.0,4.459
21.0,-10.0,4.46
17.0,-12.0,4.461
31.0,-6.0,4.462
51.0,-5.0,4.463
58.0,-12.0,4.464
58.0,-12.0,4.465
58.0,2.0,4.466
55.0,18.0,4.467
45.0,24.0,4.468
41.0,22.0,4.469
45.0,17.0,4.47
44.0,2.0,4.471
32.0,-17.0,4.472
21.0,-24.0,4.473
24.0,-9.0,4.474
30.0,7.0,4.475
31.0,9.0,4.476
25.0,4.0,4.477
11.0,-1.0,4.478
-4.0,-2.0,4.479
-9.0,-7.0,4.48
-2.0,-12.0,4.481
2.0,-4.0,4.482
-4.0,11.0,4.483
-7.0,25.0,4.484
2.0,33.0,4.485
9.0,36.0,4.486
-2.0,24.0,4.487
-21.0,-5.0,4.488
-28.0,-31.0,4.489
-18.0,-28.0,4.49
-3.0,-10.0,4.491
9.0,-4.0,4.492
12.0,-18.0,4.493
2.0,-31.0,4.494
-4.0,-28.0,4.495
1.0,-20.0,4.496
12.0,-16.0,4.497
13.0,-21.0,4.498
11.0,-24.0,4.499
14.0,-17.0,4.5
19.0,-9.0,4.501
17.0,0.0,4.502
9.0,8.0,4.503
6.0,10.0,4.504
1.0,8.0,4.505
-12.0,4.0,4.506
-28.0,-4.0,4.507
-32.0,-16.0,4.508
-25.0,-21.0,4.509
-21.0,-10.0,4.51
-20.0,9.0,4.511
-9.0,21.0,4.512
11.0,27.0,4.513
24.0,39.0,4.514
17.0,56.0,4.515
-5.0,65.0,4.516
-25.0,64.0,4.517
-34.0,55.0,4.518
-29.0,46.0,4.519
-23.0,33.0,4.52
-21.0,13.0,4.521
-12.0,-10.0,4.522
11.0,-42.0,4.523
31.0,-81.0,4.524
28.0,-103.0,4.525
12.0,-85.0,4.526
13.0,-42.0,4.527
38.0,-11.0,4.528
62.0,-7.0,4.529
60.0,-11.0,4.53
42.0,-13.0,4.531
28.0,-11.0,4.532
24.0,-9.0,4.533
20.0,-2.0,4.534
10.0,9.0,4.535
1.0,20.0,4.536
-1.0,30.0,4.537
-2.0,38.0,4.538
-5.0,48.0,4.539
-11.0,54.0,4.54
-16.0,46.0,4.541
-6.0,21.0,4.542
29.0,-21.0,4.543
76.0,-57.0,4.544
94.0,-57.0,4.545
59.0,-21.0,4.546
6.0,10.0,4.547
-15.0,3.0,4.548
-7.0,-25.0,4.549
-13.0,-35.0,4.55
-41.0,-19.0,4.551
-63.0,-6.0,4.552
-79.0,-4.0,4.553
-116.0,-1.0,4.554
-165.0,12.0,4.555
-172.0,20.0,4.556
-125.0,17.0,4.557
-111.0,12.0,4.558
-103.0,9.0,4.559
-80.0,-2.0,4.56
-18.0,-21.0,4.561
46.0,-27.0,4.562
120.0,-20.0,4.563
176.0,-14.0,4.564
172.0,-25.0,4.565
152.0,-36.0,4.566
87.0,-23.0,4.567
38.0,11.0,4.568
46.0,44.0,4.569
40.0,55.0,4.57
-9.0,45.0,4.571
-46.0,31.0,4.572
-33.0,26.0,4.573
-31.0,29.0,4.574
-64.0,32.0,4.575
-87.0,28.0,4.576
-73.0,20.0,4.577
-57.0,10.0,4.578
-53.0,10.0,4.579
-40.0,20.0,4.58
-6.0,23.0,4.581
30.0,14.0,4.582
71.0,-2.0,4.583
102.0,-15.0,4.584
100.0,-24.0,4.585
89.0,-36.0,4.586
53.0,-49.0,4.587
26.0,-54.0,4.588
30.0,-52.0,4.589
27.0,-41.0,4.59
-1.0,-22.0,4.591
-21.0,8.0,4.592
-14.0,35.0,4.593
-13.0,38.0,4.594
-31.0,19.0,4.595
-44.0,5.0,4.596
-36.0,10.0,4.597
-22.0,17.0,4.598
9.0,14.0,4.599
49.0,-1.0,4.6
91.0,-12.0,4.601
115.0,-7.0,4.602
112.0,2.0,4.603
85.0,0.0,4.604
32.0,-15.0,4.605
-42.0,-31.0,4.606
-104.0,-38.0,4.607
-117.0,-45.0,4.608
-89.0,-59.0,4.609
-71.0,-70.0,4.61
-99.0,-60.0,4.611
-142.0,-32.0,4.612
-150.0,-17.0,4.613
-115.0,-27.0,4.614
-76.0,-40.0,4.615
-64.0,-30.0,4.616
-56.0,-7.0,4.617
-18.0,2.0,4.618
35.0,0.0,4.619
58.0,5.0,4.62
53.0,38.0,4.621
60.0,69.0,4.622
92.0,89.0,4.623
111.0,99.0,4.624
107.0,75.0,4.625
104.0,49.0,4.626
109.0,19.0,4.627
79.0,-3.0,4.628
7.0,-4.0,4.629
-49.0,-5.0,4.63
-52.0,-1.0,4.631
-45.0,7.0,4.632
-74.0,29.0,4.633
-107.0,61.0,4.634
-77.0,118.0,4.635
5.0,156.0,4.636
68.0,130.0,4.637
85.0,93.0,4.638
80.0,17.0,4.639
76.0,-48.0,4.64
47.0,-95.0,4.641
-18.0,-121.0,4.642
-69.0,-133.0,4.643
-52.0,-135.0,4.644
-4.0,-133.0,4.645
-6.0,-130.0,4.646
-62.0,-111.0,4.647
-97.0,-67.0,4.648
-62.0,-10.0,4.649
4.0,28.0,4.65
47.0,37.0,4.651
67.0,33.0,4.652
92.0,35.0,4.653
110.0,40.0,4.654
80.0,37.0,4.655
6.0,30.0,4.656
-45.0,34.0,4.657
-33.0,48.0,4.658
21.0,67.0,4.659
58.0,84.0,4.66
38.0,102.0,4.661
15.0,114.0,4.662
-17.0,90.0,4.663
-38.0,25.0,4.664
-22.0,-41.0,4.665
7.0,-75.0,4.666
75.0,-94.0,4.667
115.0,-122.0,4.668
73.0,-147.0,4.669
34.0,-136.0,4.67
1.0,-96.0,4.671
-31.0,-65.0,4.672
-63.0,-55.0,4.673
-99.0,-51.0,4.674
-148.0,-46.0,4.675
-159.0,-38.0,4.676
-49.0,-23.0,4.677
49.0,5.0,4.678
73.0,34.0,4.679
53.0,43.0,4.68
24.0,32.0,4.681
-23.0,29.0,4.682
-66.0,44.0,4.683
-52.0,69.0,4.684
6.0,85.0,4.685
34.0,84.0,4.686
5.0,65.0,4.687
-19.0,36.0,4.688
6.0,13.0,4.689
36.0,7.0,4.69
15.0,17.0,4.691
-45.0,31.0,4.692
-84.0,39.0,4.693
-70.0,42.0,4.694
-24.0,38.0,4.695
11.0,20.0,4.696
3.0,-8.0,4.697
-46.0,-36.0,4.698
-82.0,-53.0,4.699
-61.0,-56.0,4.7
-5.0,-57.0,4.701
32.0,-52.0,4.702
32.0,-42.0,4.703
24.0,-31.0,4.704
30.0,-28.0,4.705
49.0,-26.0,4.706
82.0,-11.0,4.707
131.0,16.0,4.708
175.0,42.0,4.709
182.0,53.0,4.71
132.0,53.0,4.711
44.0,52.0,4.712
-26.0,57.0,4.713
-18.0,85.0,4.714
66.0,156.0,4.715
146.0,262.0,4.716
140.0,341.0,4.717
36.0,315.0,4.718
-86.0,196.0,4.719
-149.0,79.0,4.72
-150.0,-34.0,4.721
-152.0,-128.0,4.722
-169.0,-164.0,4.723
-132.0,-172.0,4.724
15.0,-92.0,4.725
211.0,-47.0,4.726
319.0,-111.0,4.727
282.0,-169.0,4.728
157.0,-211.0,4.729
17.0,-228.0,4.73
-119.0,-170.0,4.731
-261.0,-110.0,4.732
-369.0,-44.0,4.733
-367.0,6.0,4.734
-235.0,6.0,4.735
-58.0,3.0,4.736
46.0,-6.0,4.737
53.0,-14.0,4.738
31.0,-5.0,4.739
15.0,52.0,4.74
18.0,138.0,4.741
22.0,145.0,4.742
30.0,2.0,4.743
68.0,-190.0,4.744
196.0,-278.0,4.745
293.0,-255.0,4.746
299.0,-216.0,4.747
283.0,-140.0,4.748
197.0,85.0,4.749
104.0,422.0,4.75
-12.0,653.0,4.751
-109.0,648.0,4.752
-149.0,493.0,4.753
-196.0,307.0,4.754
-260.0,107.0,4.755
-309.0,-60.0,4.756
-314.0,-77.0,4.757
-262.0,40.0,4.758
-9.0,33.0,4.759
142.0,-282.0,4.76
109.0,-711.0,4.761
37.0,-932.0,4.762
59.0,-930.0,4.763
119.0,-898.0,4.764
110.0,-867.0,4.765
27.0,-701.0,4.766
-66.0,-383.0,4.767
-129.0,10.0,4.768
-149.0,484.0,4.769
-119.0,1002.0,4.77
-66.0,1294.0,4.771
-34.0,1097.0,4.772
-24.0,566.0,4.773
-8.0,114.0,4.774
20.0,-59.0,4.775
28.0,-61.0,4.776
16.0,12.0,4.777
12.0,154.0,4.778
24.0,276.0,4.779
38.0,367.0,4.78
61.0,363.0,4.781
103.0,378.0,4.782
147.0,455.0,4.783
158.0,378.0,4.784
128.0,-166.0,4.785
77.0,-625.0,4.786
29.0,-829.0,4.787
10.0,-953.0,4.788
25.0,-838.0,4.789
54.0,-710.0,4.79
66.0,-546.0,4.791
58.0,-424.0,4.792
57.0,-431.0,4.793
70.0,-402.0,4.794
81.0,-262.0,4.795
74.0,-77.0,4.796
49.0,240.0,4.797
-1.0,528.0,4.798
-73.0,610.0,4.799
-136.0,490.0,4.8
-139.0,331.0,4.801
-83.0,290.0,4.802
-48.0,294.0,4.803
-96.0,184.0,4.804
-178.0,4.0,4.805
-200.0,-82.0,4.806
-151.0,-72.0,4.807
-98.0,-84.0,4.808
-64.0,-127.0,4.809
-10.0,-117.0,4.81
68.0,-89.0,4.811
110.0,-128.0,4.812
105.0,-189.0,4.813
102.0,-174.0,4.814
120.0,-122.0,4.815
115.0,-128.0,4.816
86.0,-154.0,4.817
67.0,-99.0,4.818
63.0,28.0,4.819
44.0,118.0,4.82
-16.0,128.0,4.821
-60.0,123.0,4.822
-52.0,140.0,4.823
-42.0,165.0,4.824
-25.0,202.0,4.825
-2.0,261.0,4.826
38.0,325.0,4.827
70.0,373.0,4.828
78.0,404.0,4.829
85.0,407.0,4.83
88.0,361.0,4.831
86.0,291.0,4.832
67.0,242.0,4.833
50.0,223.0,4.834
39.0,206.0,4.835
29.0,198.0,4.836
22.0,217.0,4.837
18.0,222.0,4.838
38.0,157.0,4.839
55.0,44.0,4.84
25.0,-37.0,4.841
-61.0,-76.0,4.842
-138.0,-123.0,4.843
-133.0,-155.0,4.844
-84.0,-83.0,4.845
-95.0,90.0,4.846
-167.0,233.0,4.847
-182.0,228.0,4.848
-83.0,78.0,4.849
12.0,-116.0,4.85
-5.0,-218.0,4.851
-50.0,-156.0,4.852
11.0,-31.0,4.853
137.0,-51.0,4.854
186.0,-283.0,4.855
142.0,-538.0,4.856
95.0,-595.0,4.857
57.0,-465.0,4.858
-15.0,-329.0,4.859
-96.0,-246.0,4.86
-111.0,-324.0,4.861
-74.0,-370.0,4.862
-49.0,-317.0,4.863
-33.0,-271.0,4.864
20.0,-248.0,4.865
86.0,-244.0,4.866
95.0,-300.0,4.867
50.0,-324.0,4.868
1.0,-249.0,4.869
-26.0,-158.0,4.87
-35.0,-23.0,4.871
-31.0,102.0,4.872
-31.0,194.0,4.873
-60.0,230.0,4.874
-93.0,94.0,4.875
-82.0,24.0,4.876
-39.0,153.0,4.877
-26.0,305.0,4.878
-61.0,481.0,4.879
-88.0,553.0,4.88
-67.0,514.0,4.881
-34.0,416.0,4.882
-21.0,318.0,4.883
-13.0,245.0,4.884
2.0,149.0,4.885
11.0,-1.0,4.886
10.0,-159.0,4.887
17.0,-265.0,4.888
27.0,-329.0,4.889
20.0,-405.0,4.89
0.0,-491.0,4.891
-2.0,-525.0,4.892
17.0,-449.0,4.893
37.0,-268.0,4.894
47.0,-30.0,4.895
49.0,187.0,4.896
45.0,328.0,4.897
30.0,389.0,4.898
24.0,387.0,4.899
23.0,343.0,4.9
41.0,274.0,4.901
62.0,213.0,4.902
87.0,177.0,4.903
108.0,158.0,4.904
114.0,136.0,4.905
116.0,110.0,4.906
100.0,76.0,4.907
78.0,9.0,4.908
38.0,-89.0,4.909
9.0,-153.0,4.91
17.0,-125.0,4.911
8.0,-24.0,4.912
-52.0,76.0,4.913
-100.0,127.0,4.914
-115.0,90.0,4.915
-111.0,-64.0,4.916
-48.0,-277.0,4.917
6.0,-413.0,4.918
11.0,-395.0,4.919
-11.0,-354.0,4.92
-24.0,-248.0,4.921
-6.0,-135.0,4.922
28.0,-3.0,4.923
22.0,106.0,4.924
-30.0,143.0,4.925
-54.0,187.0,4.926
6.0,253.0,4.927
96.0,301.0,4.928
126.0,293.0,4.929
86.0,275.0,4.93
42.0,225.0,4.931
29.0,160.0,4.932
20.0,48.0,4.933
-5.0,-47.0,4.934
-33.0,-92.0,4.935
-44.0,-134.0,4.936
-30.0,-166.0,4.937
-7.0,-191.0,4.938
3.0,-162.0,4.939
-8.0,-94.0,4.94
-21.0,-47.0,4.941
-19.0,-26.0,4.942
-11.0,-6.0,4.943
-13.0,27.0,4.944
-24.0,62.0,4.945
-32.0,90.0,4.946
-43.0,118.0,4.947
-59.0,148.0,4.948
-70.0,180.0,4.949
-63.0,195.0,4.95
-41.0,163.0,4.951
-22.0,84.0,4.952
-10.0,-10.0,4.953
1.0,-87.0,4.954
15.0,-144.0,4.955
27.0,-182.0,4.956
35.0,-185.0,4.957
34.0,-164.0,4.958
19.0,-156.0,4.959
-1.0,-179.0,4.96
-7.0,-184.0,4.961
3.0,-117.0,4.962
20.0,-11.0,4.963
32.0,52.0,4.964
36.0,48.0,4.965
37.0,25.0,4.966
38.0,22.0,4.967
42.0,31.0,4.968
43.0,37.0,4.969
40.0,50.0,4.97
27.0,72.0,4.971
10.0,83.0,4.972
-2.0,67.0,4.973
-6.0,40.0,4.974
-2.0,31.0,4.975
8.0,39.0,4.976
19.0,49.0,4.977
17.0,47.0,4.978
6.0,39.0,4.979
-8.0,31.0,4.98
-19.0,21.0,4.981
-31.0,7.0,4.982
-43.0,-21.0,4.983
-44.0,-46.0,4.984
-28.0,-58.0,4.985
-2.0,-65.0,4.986
17.0,-58.0,4.987
19.0,-48.0,4.988
15.0,-33.0,4.989
17.0,-22.0,4.99
24.0,-28.0,4.991
21.0,-35.0,4.992
7.0,-39.0,4.993
-7.0,-41.0,4.994
-12.0,-33.0,4.995
-13.0,-26.0,4.996
-12.0,-24.0,4.997
-13.0,-19.0,4.998
-3.0,0.0,4.999
9.0,20.0,5.0
16.0,30.0,5.001
10.0,33.0,5.002
1.0,32.0,5.003
-2.0,32.0,5.004
-1.0,31.0,5.005
0.0,28.0,5.006
-1.0,24.0,5.007
0.0,24.0,5.008
9.0,26.0,5.009
15.0,27.0,5.01
10.0,24.0,5.011
2.0,19.0,5.012
2.0,15.0,5.013
9.0,10.0,5.014
8.0,7.0,5.015
2.0,7.0,5.016
1.0,8.0,5.017
3.0,5.0,5.018
0.0,1.0,5.019
-7.0,0.0,5.02
-8.0,-3.0,5.021
-2.0,-5.0,5.022
2.0,-4.0,5.023
2.0,0.0,5.024
0.0,4.0,5.025
-3.0,6.0,5.026
-7.0,5.0,5.027
-11.0,4.0,5.028
-8.0,2.0,5.029
0.0,0.0,5.03
4.0,-2.0,5.031
4.0,-3.0,5.032
4.0,-6.0,5.033
7.0,-6.0,5.034
9.0,-6.0,5.035
8.0,-8.0,5.036
6.0,-5.0,5.037
3.0,-2.0,5.038
1.0,0.0,5.039
3.0,-1.0,5.04
4.0,-6.0,5.041
3.0,-5.0,5.042
4.0,0.0,5.043
7.0,5.0,5.044
5.0,8.0,5.045
-1.0,10.0,5.046
-2.0,9.0,5.047
2.0,7.0,5.048
8.0,6.0,5.049
7.0,5.0,5.05
2.0,1.0,5.051
2.0,-3.0,5.052
3.0,-5.0,5.053
1.0,-3.0,5.054
-1.0,-6.0,5.055
1.0,-17.0,5.056
3.0,-25.0,5.057
0.0,-24.0,5.058
-2.0,-14.0,5.059
-3.0,-8.0,5.06
-3.0,-9.0,5.061
-4.0,-8.0,5.062
-3.0,-7.0,5.063
1.0,-8.0,5.064
0.0,-10.0,5.065
-9.0,-12.0,5.066
-17.0,-24.0,5.067
-13.0,-43.0,5.068
-4.0,-52.0,5.069
6.0,-47.0,5.07
20.0,-33.0,5.071
35.0,-21.0,5.072
36.0,-12.0,5.073
22.0,-3.0,5.074
2.0,4.0,5.075
-12.0,7.0,5.076
-21.0,11.0,5.077
-31.0,13.0,5.078
-36.0,14.0,5.079
-31.0,16.0,5.08
-30.0,16.0,5.081
-42.0,15.0,5.082
-57.0,18.0,5.083
-63.0,20.0,5.084
-60.0,15.0,5.085
-57.0,6.0,5.086
-43.0,-13.0,5.087
-10.0,-22.0,5.088
25.0,0.0,5.089
27.0,15.0,5.09
-2.0,7.0,5.091
-22.0,-2.0,5.092
0.0,-10.0,5.093
41.0,-14.0,5.094
61.0,-8.0,5.095
50.0,-7.0,5.096
35.0,-24.0,5.097
40.0,-38.0,5.098
53.0,-36.0,5.099
55.0,-33.0,5.1
47.0,-33.0,5.101
42.0,-22.0,5.102
43.0,-9.0,5.103
42.0,-14.0,5.104
34.0,-36.0,5.105
32.0,-54.0,5.106
43.0,-51.0,5.107
54.0,-24.0,5.108
50.0,16.0,5.109
35.0,53.0,5.11
20.0,76.0,5.111
10.0,86.0,5.112
-2.0,87.0,5.113
-21.0,76.0,5.114
-39.0,49.0,5.115
-43.0,16.0,5.116
-26.0,-4.0,5.117
-2.0,-14.0,5.118
10.0,-19.0,5.119
13.0,-19.0,5.12
-12.0,-5.0,5.121
-22.0,9.0,5.122
20.0,22.0,5.123
54.0,33.0,5.124
62.0,35.0,5.125
63.0,32.0,5.126
42.0,11.0,5.127
15.0,-8.0,5.128
-29.0,-21.0,5.129
-56.0,-36.0,5.13
-34.0,-60.0,5.131
-3.0,-79.0,5.132
54.0,-85.0,5.133
89.0,-80.0,5.134
53.0,-41.0,5.135
31.0,3.0,5.136
52.0,65.0,5.137
62.0,112.0,5.138
15.0,90.0,5.139
-29.0,72.0,5.14
-24.0,83.0,5.141
1.0,82.0,5.142
5.0,41.0,5.143
-10.0,-3.0,5.144
-36.0,-18.0,5.145
-65.0,-17.0,5.146
-82.0,-22.0,5.147
-67.0,-34.0,5.148
-40.0,-48.0,5.149
-26.0,-71.0,5.15
-23.0,-91.0,5.151
-16.0,-77.0,5.152
-11.0,-36.0,5.153
-12.0,-6.0,5.154
4.0,-3.0,5.155
43.0,0.0,5.156
64.0,15.0,5.157
38.0,26.0,5.158
14.0,24.0,5.159
-6.0,20.0,5.16
-16.0,18.0,5.161
-36.0,15.0,5.162
-85.0,12.0,5.163
-111.0,15.0,5.164
-64.0,25.0,5.165
-19.0,22.0,5.166
18.0,7.0,5.167
48.0,-1.0,5.168
53.0,0.0,5.169
52.0,4.0,5.17
27.0,1.0,5.171
7.0,-3.0,5.172
1.0,-8.0,5.173
-2.0,-12.0,5.174
2.0,-15.0,5.175
5.0,-13.0,5.176
0.0,-10.0,5.177
-6.0,-14.0,5.178
-11.0,-12.0,5.179
-12.0,-1.0,5.18
-19.0,10.0,5.181
-29.0,12.0,5.182
-20.0,1.0,5.183
9.0,-9.0,5.184
30.0,-9.0,5.185
23.0,1.0,5.186
18.0,9.0,5.187
39.0,7.0,5.188
66.0,5.0,5.189
64.0,10.0,5.19
41.0,14.0,5.191
27.0,9.0,5.192
32.0,0.0,5.193
30.0,7.0,5.194
10.0,35.0,5.195
-17.0,89.0,5.196
-27.0,172.0,5.197
-24.0,263.0,5.198
-25.0,291.0,5.199
-45.0,202.0,5.2
-67.0,37.0,5.201
-64.0,-95.0,5.202
-36.0,-160.0,5.203
-12.0,-190.0,5.204
1.0,-198.0,5.205
17.0,-162.0,5.206
32.0,-120.0,5.207
26.0,-148.0,5.208
1.0,-245.0,5.209
-4.0,-312.0,5.21
23.0,-289.0,5.211
46.0,-220.0,5.212
46.0,-156.0,5.213
41.0,-76.0,5.214
54.0,34.0,5.215
58.0,138.0,5.216
34.0,203.0,5.217
-8.0,246.0,5.218
-36.0,271.0,5.219
-61.0,235.0,5.22
-95.0,124.0,5.221
-96.0,12.0,5.222
-11.0,-35.0,5.223
115.0,-31.0,5.224
163.0,-29.0,5.225
82.0,-35.0,5.226
-37.0,-27.0,5.227
-88.0,-12.0,5.228
-75.0,-7.0,5.229
-65.0,1.0,5.23
-82.0,33.0,5.231
-96.0,66.0,5.232
-87.0,64.0,5.233
-66.0,38.0,5.234
-40.0,25.0,5.235
-9.0,26.0,5.236
16.0,18.0,5.237
20.0,3.0,5.238
14.0,4.0,5.239
12.0,5.0,5.24
16.0,0.0,5.241
16.0,-8.0,5.242
16.0,-22.0,5.243
22.0,-27.0,5.244
25.0,-5.0,5.245
18.0,13.0,5.246
15.0,21.0,5.247
27.0,27.0,5.248
42.0,26.0,5.249
41.0,33.0,5.25
32.0,65.0,5.251
31.0,121.0,5.252
41.0,247.0,5.253
49.0,326.0,5.254
54.0,264.0,5.255
55.0,169.0,5.256
59.0,-21.0,5.257
63.0,-180.0,5.258
64.0,-174.0,5.259
39.0,-80.0,5.26
-11.0,7.0,5.261
-51.0,14.0,5.262
-40.0,-96.0,5.263
3.0,-265.0,5.264
20.0,-360.0,5.265
-10.0,-302.0,5.266
-49.0,-162.0,5.267
-45.0,-70.0,5.268
5.0,-72.0,5.269
61.0,-119.0,5.27
81.0,-142.0,5.271
61.0,-115.0,5.272
31.0,-67.0,5.273
20.0,-42.0,5.274
22.0,-53.0,5.275
12.0,-62.0,5.276
-20.0,-38.0,5.277
-59.0,18.0,5.278
-76.0,93.0,5.279
-70.0,169.0,5.28
-55.0,220.0,5.281
-45.0,229.0,5.282
-44.0,211.0,5.283
-48.0,196.0,5.284
-58.0,180.0,5.285
-73.0,129.0,5.286
-80.0,52.0,5.287
-74.0,-3.0,5.288
-59.0,-9.0,5.289
-40.0,12.0,5.29
-2.0,32.0,5.291
56.0,34.0,5.292
105.0,11.0,5.293
114.0,-27.0,5.294
91.0,-47.0,5.295
66.0,-23.0,5.296
53.0,43.0,5.297
40.0,162.0,5.298
20.0,347.0,5.299
-2.0,543.0,5.3
-22.0,609.0,5.301
-41.0,438.0,5.302
-52.0,88.0,5.303
-45.0,-237.0,5.304
-35.0,-372.0,5.305
-42.0,-322.0,5.306
-49.0,-232.0,5.307
-28.0,-247.0,5.308
20.0,-394.0,5.309
72.0,-576.0,5.31
113.0,-679.0,5.311
141.0,-681.0,5.312
141.0,-632.0,5.313
105.0,-561.0,5.314
61.0,-455.0,5.315
40.0,-304.0,5.316
27.0,-130.0,5.317
-24.0,84.0,5.318
-102.0,311.0,5.319
-149.0,443.0,5.32
-139.0,389.0,5.321
-105.0,242.0,5.322
-74.0,184.0,5.323
-40.0,261.0,5.324
-3.0,328.0,5.325
10.0,301.0,5.326
-1.0,295.0,5.327
0.0,447.0,5.328
24.0,660.0,5.329
38.0,677.0,5.33
32.0,421.0,5.331
25.0,119.0,5.332
26.0,9.0,5.333
18.0,28.0,5.334
-3.0,-47.0,5.335
-20.0,-200.0,5.336
-21.0,-216.0,5.337
-13.0,-105.0,5.338
-2.0,-181.0,5.339
14.0,-597.0,5.34
23.0,-1045.0,5.341
20.0,-1183.0,5.342
13.0,-1096.0,5.343
10.0,-1017.0,5.344
2.0,-904.0,5.345
-14.0,-611.0,5.346
-23.0,-226.0,5.347
-14.0,49.0,5.348
-3.0,211.0,5.349
-8.0,370.0,5.35
-15.0,492.0,5.351
-9.0,490.0,5.352
1.0,426.0,5.353
6.0,443.0,5.354
11.0,557.0,5.355
23.0,676.0,5.356
37.0,730.0,5.357
42.0,705.0,5.358
46.0,628.0,5.359
53.0,569.0,5.36
60.0,576.0,5.361
66.0,585.0,5.362
79.0,478.0,5.363
92.0,270.0,5.364
88.0,90.0,5.365
70.0,-16.0,5.366
56.0,-119.0,5.367
52.0,-240.0,5.368
42.0,-303.0,5.369
19.0,-283.0,5.37
-12.0,-245.0,5.371
-45.0,-223.0,5.372
-79.0,-167.0,5.373
-97.0,-60.0,5.374
-90.0,42.0,5.375
-79.0,97.0,5.376
-80.0,120.0,5.377
-80.0,101.0,5.378
-63.0,9.0,5.379
-46.0,-96.0,5.38
-55.0,-89.0,5.381
-75.0,28.0,5.382
-72.0,41.0,5.383
-37.0,-180.0,5.384
-1.0,-447.0,5.385
22.0,-495.0,5.386
42.0,-368.0,5.387
60.0,-334.0,5.388
67.0,-472.0,5.389
68.0,-581.0,5.39
78.0,-522.0,5.391
93.0,-387.0,5.392
94.0,-291.0,5.393
80.0,-191.0,5.394
66.0,-39.0,5.395
68.0,93.0,5.396
87.0,126.0,5.397
107.0,84.0,5.398
97.0,47.0,5.399
25.0,44.0,5.4
-87.0,72.0,5.401
-163.0,144.0,5.402
-152.0,235.0,5.403
-89.0,294.0,5.404
-47.0,308.0,5.405
-49.0,324.0,5.406
-57.0,370.0,5.407
-49.0,432.0,5.408
-46.0,494.0,5.409
-59.0,533.0,5.41
-63.0,492.0,5.411
-39.0,356.0,5.412
-5.0,220.0,5.413
9.0,197.0,5.414
7.0,274.0,5.415
9.0,323.0,5.416
18.0,263.0,5.417
23.0,99.0,5.418
29.0,-90.0,5.419
37.0,-254.0,5.42
41.0,-389.0,5.421
33.0,-496.0,5.422
34.0,-559.0,5.423
50.0,-546.0,5.424
52.0,-445.0,5.425
12.0,-306.0,5.426
-39.0,-203.0,5.427
-43.0,-150.0,5.428
-3.0,-108.0,5.429
14.0,-50.0,5.43
-25.0,-11.0,5.431
-59.0,-20.0,5.432
-20.0,-58.0,5.433
77.0,-91.0,5.434
150.0,-103.0,5.435
155.0,-79.0,5.436
117.0,-7.0,5.437
73.0,111.0,5.438
38.0,216.0,5.439
-8.0,266.0,5.44
-71.0,264.0,5.441
-118.0,231.0,5.442
-119.0,151.0,5.443
-78.0,18.0,5.444
-47.0,-117.0,5.445
-62.0,-206.0,5.446
-85.0,-236.0,5.447
-64.0,-213.0,5.448
-17.0,-148.0,5.449
0.0,-66.0,5.45
-15.0,-12.0,5.451
-16.0,3.0,5.452
9.0,3.0,5.453
21.0,1.0,5.454
13.0,0.0,5.455
23.0,24.0,5.456
59.0,92.0,5.457
72.0,184.0,5.458
40.0,238.0,5.459
3.0,223.0,5.46
-3.0,175.0,5.461
3.0,139.0,5.462
2.0,107.0,5.463
7.0,53.0,5.464
27.0,-25.0,5.465
38.0,-108.0,5.466
26.0,-175.0,5.467
11.0,-217.0,5.468
13.0,-236.0,5.469
24.0,-247.0,5.47
33.0,-254.0,5.471
36.0,-220.0,5.472
31.0,-117.0,5.473
17.0,8.0,5.474
1.0,77.0,5.475
-4.0,71.0,5.476
-4.0,44.0,5.477
-7.0,42.0,5.478
-11.0,67.0,5.479
-11.0,94.0,5.48
-12.0,104.0,5.481
-18.0,110.0,5.482
-19.0,142.0,5.483
-14.0,204.0,5.484
-13.0,231.0,5.485
-20.0,160.0,5.486
-13.0,39.0,5.487
14.0,-14.0,5.488
37.0,21.0,5.489
33.0,38.0,5.49
17.0,-14.0,5.491
17.0,-54.0,5.492
32.0,-23.0,5.493
41.0,19.0,5.494
32.0,13.0,5.495
20.0,7.0,5.496
23.0,44.0,5.497
33.0,58.0,5.498
34.0,6.0,5.499
15.0,-34.0,5.5
-10.0,-34.0,5.501
-22.0,-35.0,5.502
-14.0,-36.0,5.503
-5.0,-34.0,5.504
-17.0,-23.0,5.505
-46.0,-14.0,5.506
-62.0,-15.0,5.507
-51.0,-18.0,5.508
-31.0,-24.0,5.509
-22.0,-29.0,5.51
-26.0,-24.0,5.511
-26.0,-19.0,5.512
-9.0,-16.0,5.513
19.0,-16.0,5.514
34.0,-29.0,5.515
26.0,-37.0,5.516
3.0,-31.0,5.517
-20.0,-25.0,5.518
-31.0,-26.0,5.519
-27.0,-29.0,5.52
-14.0,-26.0,5.521
-2.0,-18.0,5.522
6.0,-19.0,5.523
7.0,-32.0,5.524
1.0,-54.0,5.525
-10.0,-80.0,5.526
-23.0,-88.0,5.527
-24.0,-66.0,5.528
-13.0,-17.0,5.529
0.0,36.0,5.53
2.0,80.0,5.531
-1.0,111.0,5.532
9.0,123.0,5.533
31.0,119.0,5.534
56.0,108.0,5.535
75.0,95.0,5.536
89.0,82.0,5.537
82.0,61.0,5.538
56.0,37.0,5.539
30.0,22.0,5.54
3.0,11.0,5.541
-14.0,5.0,5.542
-3.0,-4.0,5.543
6.0,-11.0,5.544
12.0,-16.0,5.545
15.0,-16.0,5.546
8.0,-11.0,5.547
2.0,-7.0,5.548
2.0,-4.0,5.549
-1.0,-3.0,5.55
-14.0,-3.0,5.551
-24.0,-8.0,5.552
-25.0,-14.0,5.553
-25.0,-14.0,5.554
-21.0,-9.0,5.555
-17.0,-3.0,5.556
-11.0,0.0,5.557
-5.0,-3.0,5.558
-1.0,-14.0,5.559
0.0,-25.0,5.56
2.0,-36.0,5.561
6.0,-35.0,5.562
7.0,-29.0,5.563
4.0,-26.0,5.564
-1.0,-24.0,5.565
-7.0,-22.0,5.566
-14.0,-21.0,5.567
-14.0,-26.0,5.568
-9.0,-30.0,5.569
-3.0,-25.0,5.57
-3.0,-20.0,5.571
-4.0,-22.0,5.572
-7.0,-27.0,5.573
-8.0,-26.0,5.574
-10.0,-20.0,5.575
-11.0,-18.0,5.576
-12.0,-17.0,5.577
-15.0,-15.0,5.578
-18.0,-13.0,5.579
-22.0,-15.0,5.58
-26.0,-20.0,5.581
-26.0,-16.0,5.582
-20.0,-9.0,5.583
-15.0,-6.0,5.584
-16.0,-6.0,5.585
-24.0,-9.0,5.586
-30.0,-19.0,5.587
-29.0,-33.0,5.588
-28.0,-35.0,5.589
-26.0,-21.0,5.59
-19.0,-3.0,5.591
-11.0,7.0,5.592
-5.0,15.0,5.593
-2.0,25.0,5.594
5.0,31.0,5.595
15.0,26.0,5.596
23.0,13.0,5.597
28.0,-7.0,5.598
31.0,-32.0,5.599
29.0,-56.0,5.6
24.0,-69.0,5.601
20.0,-60.0,5.602
23.0,-35.0,5.603
30.0,2.0,5.604
34.0,50.0,5.605
33.0,82.0,5.606
31.0,73.0,5.607
31.0,35.0,5.608
33.0,10.0,5.609
33.0,9.0,5.61
36.0,3.0,5.611
40.0,-13.0,5.612
42.0,-16.0,5.613
38.0,1.0,5.614
34.0,10.0,5.615
34.0,4.0,5.616
33.0,5.0,5.617
25.0,-1.0,5.618
19.0,-10.0,5.619
19.0,-16.0,5.62
27.0,-10.0,5.621
38.0,-4.0,5.622
50.0,-3.0,5.623
54.0,0.0,5.624
43.0,3.0,5.625
29.0,7.0,5.626
29.0,14.0,5.627
33.0,20.0,5.628
12.0,19.0,5.629
-38.0,14.0,5.63
-77.0,0.0,5.631
-73.0,-13.0,5.632
-49.0,-22.0,5.633
-40.0,-29.0,5.634
-38.0,-26.0,5.635
-20.0,-20.0,5.636
4.0,-11.0,5.637
13.0,0.0,5.638
16.0,-12.0,5.639
30.0,-19.0,5.64
46.0,-12.0,5.641
34.0,-5.0,5.642
9.0,-2.0,5.643
-3.0,1.0,5.644
-4.0,5.0,5.645
-14.0,10.0,5.646
-23.0,19.0,5.647
-12.0,26.0,5.648
8.0,25.0,5.649
14.0,19.0,5.65
7.0,1.0,5.651
4.0,-15.0,5.652
2.0,-27.0,5.653
0.0,-35.0,5.654
4.0,-31.0,5.655
16.0,-24.0,5.656
19.0,-13.0,5.657
13.0,-4.0,5.658
10.0,-9.0,5.659
25.0,-13.0,5.66
43.0,-10.0,5.661
49.0,-5.0,5.662
47.0,0.0,5.663
47.0,10.0,5.664
37.0,29.0,5.665
7.0,41.0,5.666
-35.0,28.0,5.667
-71.0,9.0,5.668
-91.0,3.0,5.669
-98.0,10.0,5.67
-90.0,11.0,5.671
-68.0,7.0,5.672
-42.0,6.0,5.673
-22.0,11.0,5.674
-8.0,12.0,5.675
5.0,8.0,5.676
15.0,6.0,5.677
10.0,4.0,5.678
2.0,-6.0,5.679
-2.0,-24.0,5.68
10.0,-42.0,5.681
20.0,-42.0,5.682
24.0,-30.0,5.683
26.0,-19.0,5.684
23.0,-10.0,5.685
6.0,0.0,5.686
-51.0,6.0,5.687
-84.0,2.0,5.688
-43.0,-6.0,5.689
7.0,-11.0,5.69
83.0,-16.0,5.691
138.0,-17.0,5.692
130.0,-5.0,5.693
109.0,47.0,5.694
50.0,154.0,5.695
-7.0,274.0,5.696
-56.0,323.0,5.697
-94.0,238.0,5.698
-79.0,63.0,5.699
-60.0,-91.0,5.7
-42.0,-163.0,5.701
-10.0,-189.0,5.702
19.0,-221.0,5.703
-1.0,-232.0,5.704
-67.0,-178.0,5.705
-109.0,-81.0,5.706
-79.0,10.0,5.707
-26.0,97.0,5.708
-11.0,174.0,5.709
-24.0,181.0,5.71
-14.0,95.0,5.711
21.0,-3.0,5.712
37.0,-41.0,5.713
27.0,-65.0,5.714
20.0,-141.0,5.715
26.0,-224.0,5.716
30.0,-237.0,5.717
33.0,-208.0,5.718
48.0,-200.0,5.719
66.0,-193.0,5.72
69.0,-128.0,5.721
64.0,-14.0,5.722
72.0,80.0,5.723
75.0,144.0,5.724
55.0,211.0,5.725
29.0,280.0,5.726
23.0,326.0,5.727
24.0,335.0,5.728
4.0,287.0,5.729
-22.0,187.0,5.73
-19.0,122.0,5.731
16.0,194.0,5.732
52.0,351.0,5.733
60.0,393.0,5.734
35.0,194.0,5.735
-11.0,-153.0,5.736
-50.0,-445.0,5.737
-73.0,-616.0,5.738
-87.0,-673.0,5.739
-100.0,-651.0,5.74
-85.0,-554.0,5.741
-35.0,-398.0,5.742
-21.0,-233.0,5.743
-97.0,-99.0,5.744
-189.0,24.0,5.745
-179.0,153.0,5.746
-92.0,240.0,5.747
-46.0,228.0,5.748
-56.0,147.0,5.749
-20.0,94.0,5.75
95.0,117.0,5.751
201.0,174.0,5.752
229.0,203.0,5.753
211.0,200.0,5.754
176.0,208.0,5.755
112.0,272.0,5.756
31.0,383.0,5.757
-36.0,500.0,5.758
-62.0,545.0,5.759
-66.0,473.0,5.76
-82.0,277.0,5.761
-112.0,-2.0,5.762
-135.0,-287.0,5.763
-115.0,-468.0,5.764
-41.0,-481.0,5.765
35.0,-347.0,5.766
53.0,-109.0,5.767
24.0,172.0,5.768
24.0,351.0,5.769
67.0,293.0,5.77
89.0,68.0,5.771
58.0,-99.0,5.772
23.0,-148.0,5.773
32.0,-234.0,5.774
53.0,-400.0,5.775
44.0,-457.0,5.776
21.0,-324.0,5.777
9.0,-192.0,5.778
3.0,-267.0,5.779
-12.0,-446.0,5.78
-26.0,-490.0,5.781
-25.0,-373.0,5.782
-13.0,-246.0,5.783
0.0,-156.0,5.784
8.0,-41.0,5.785
16.0,97.0,5.786
16.0,178.0,5.787
11.0,191.0,5.788
14.0,238.0,5.789
29.0,412.0,5.79
44.0,667.0,5.791
50.0,798.0,5.792
54.0,614.0,5.793
56.0,173.0,5.794
48.0,-236.0,5.795
28.0,-391.0,5.796
9.0,-356.0,5.797
-8.0,-321.0,5.798
-23.0,-351.0,5.799
-39.0,-373.0,5.8
-49.0,-325.0,5.801
-55.0,-234.0,5.802
-62.0,-157.0,5.803
-71.0,-95.0,5.804
-74.0,-17.0,5.805
-69.0,98.0,5.806
-62.0,219.0,5.807
-55.0,295.0,5.808
-33.0,347.0,5.809
3.0,440.0,5.81
34.0,560.0,5.811
42.0,571.0,5.812
41.0,381.0,5.813
58.0,63.0,5.814
89.0,-244.0,5.815
100.0,-459.0,5.816
76.0,-561.0,5.817
25.0,-544.0,5.818
-21.0,-410.0,5.819
-51.0,-224.0,5.82
-78.0,-54.0,5.821
-109.0,84.0,5.822
-125.0,163.0,5.823
-97.0,165.0,5.824
-33.0,154.0,5.825
21.0,220.0,5.826
34.0,315.0,5.827
20.0,274.0,5.828
16.0,82.0,5.829
30.0,-47.0,5.83
47.0,36.0,5.831
53.0,197.0,5.832
43.0,217.0,5.833
29.0,114.0,5.834
27.0,84.0,5.835
44.0,170.0,5.836
67.0,205.0,5.837
73.0,77.0,5.838
61.0,-111.0,5.839
46.0,-214.0,5.84
36.0,-224.0,5.841
18.0,-212.0,5.842
-4.0,-214.0,5.843
-7.0,-240.0,5.844
3.0,-311.0,5.845
4.0,-401.0,5.846
-17.0,-419.0,5.847
-36.0,-343.0,5.848
-31.0,-263.0,5.849
-13.0,-236.0,5.85
-13.0,-192.0,5.851
-36.0,-58.0,5.852
-55.0,123.0,5.853
-50.0,241.0,5.854
-29.0,247.0,5.855
-15.0,199.0,5.856
-15.0,167.0,5.857
-21.0,184.0,5.858
-20.0,253.0,5.859
-14.0,350.0,5.86
-10.0,419.0,5.861
-5.0,406.0,5.862
14.0,303.0,5.863
51.0,181.0,5.864
81.0,111.0,5.865
85.0,65.0,5.866
67.0,-40.0,5.867
53.0,-192.0,5.868
45.0,-289.0,5.869
34.0,-294.0,5.87
21.0,-284.0,5.871
14.0,-292.0,5.872
13.0,-256.0,5.873
1.0,-143.0,5.874
-26.0,-33.0,5.875
-51.0,-13.0,5.876
-56.0,-59.0,5.877
-44.0,-111.0,5.878
-29.0,-138.0,5.879
-19.0,-138.0,5.88
-31.0,-126.0,5.881
-41.0,-121.0,5.882
-45.0,-150.0,5.883
-50.0,-180.0,5.884
-58.0,-156.0,5.885
-55.0,-82.0,5.886
-21.0,-9.0,5.887
10.0,54.0,5.888
36.0,141.0,5.889
57.0,256.0,5.89
55.0,366.0,5.891
56.0,466.0,5.892
64.0,558.0,5.893
66.0,603.0,5.894
52.0,559.0,5.895
40.0,487.0,5.896
38.0,480.0,5.897
35.0,530.0,5.898
39.0,538.0,5.899
58.0,448.0,5.9
80.0,306.0,5.901
78.0,183.0,5.902
57.0,74.0,5.903
32.0,-61.0,5.904
5.0,-237.0,5.905
-29.0,-443.0,5.906
-52.0,-661.0,5.907
-49.0,-862.0,5.908
-37.0,-991.0,5.909
-43.0,-980.0,5.91
-67.0,-802.0,5.911
-88.0,-521.0,5.912
-91.0,-261.0,5.913
-72.0,-100.0,5.914
-37.0,-9.0,5.915
-5.0,79.0,5.916
8.0,159.0,5.917
-1.0,203.0,5.918
-11.0,222.0,5.919
-15.0,267.0,5.92
-16.0,315.0,5.921
-21.0,300.0,5.922
-29.0,209.0,5.923
-38.0,117.0,5.924
-36.0,76.0,5.925
-18.0,61.0,5.926
7.0,28.0,5.927
15.0,-22.0,5.928
4.0,-75.0,5.929
0.0,-135.0,5.93
12.0,-201.0,5.931
20.0,-243.0,5.932
20.0,-228.0,5.933
24.0,-152.0,5.934
38.0,-48.0,5.935
43.0,42.0,5.936
31.0,88.0,5.937
14.0,80.0,5.938
13.0,51.0,5.939
16.0,45.0,5.94
16.0,78.0,5.941
12.0,124.0,5.942
8.0,144.0,5.943
4.0,134.0,5.944
5.0,120.0,5.945
15.0,113.0,5.946
29.0,102.0,5.947
24.0,80.0,5.948
0.0,59.0,5.949
-17.0,56.0,5.95
-5.0,63.0,5.951
21.0,58.0,5.952
36.0,37.0,5.953
33.0,15.0,5.954
33.0,7.0,5.955
39.0,5.0,5.956
41.0,-1.0,5.957
26.0,-13.0,5.958
7.0,-23.0,5.959
-1.0,-32.0,5.96
-5.0,-46.0,5.961
-16.0,-54.0,5.962
-25.0,-47.0,5.963
-19.0,-31.0,5.964
0.0,-27.0,5.965
13.0,-35.0,5.966
15.0,-41.0,5.967
6.0,-38.0,5.968
-8.0,-34.0,5.969
-27.0,-37.0,5.97
-44.0,-45.0,5.971
-48.0,-57.0,5.972
-41.0,-65.0,5.973
-28.0,-48.0,5.974
-9.0,-7.0,5.975
15.0,19.0,5.976
31.0,1.0,5.977
30.0,-46.0,5.978
16.0,-73.0,5.979
3.0,-65.0,5.98
1.0,-56.0,5.981
7.0,-56.0,5.982
14.0,-46.0,5.983
17.0,-11.0,5.984
18.0,28.0,5.985
20.0,53.0,5.986
18.0,61.0,5.987
10.0,56.0,5.988
-5.0,45.0,5.989
-15.0,38.0,5.99
-14.0,45.0,5.991
-12.0,54.0,5.992
-19.0,45.0,5.993
-28.0,21.0,5.994
-25.0,4.0,5.995
-7.0,4.0,5.996
13.0,4.0,5.997
20.0,-5.0,5.998
19.0,-15.0,5.999
16.0,-16.0,6.0
15.0,-14.0,6.001
21.0,-15.0,6.002
31.0,-27.0,6.003
35.0,-48.0,6.004
26.0,-71.0,6.005
10.0,-78.0,6.006
1.0,-47.0,6.007
-4.0,16.0,6.008
-15.0,78.0,6.009
-28.0,109.0,6.01
-30.0,109.0,6.011
-20.0,94.0,6.012
-13.0,73.0,6.013
-16.0,54.0,6.014
-15.0,36.0,6.015
-3.0,25.0,6.016
11.0,16.0,6.017
20.0,4.0,6.018
26.0,-2.0,6.019
29.0,0.0,6.02
19.0,8.0,6.021
10.0,14.0,6.022
4.0,11.0,6.023
1.0,-1.0,6.024
6.0,-11.0,6.025
10.0,-12.0,6.026
11.0,-10.0,6.027
13.0,-13.0,6.028
14.0,-20.0,6.029
13.0,-19.0,6.03
6.0,-8.0,6.031
1.0,0.0,6.032
0.0,-4.0,6.033
0.0,-15.0,6.034
5.0,-26.0,6.035
9.0,-28.0,6.036
12.0,-24.0,6.037
13.0,-23.0,6.038
-2.0,-25.0,6.039
-20.0,-27.0,6.04
-25.0,-30.0,6.041
-18.0,-32.0,6.042
-8.0,-31.0,6.043
-6.0,-26.0,6.044
-14.0,-16.0,6.045
-23.0,-7.0,6.046
-29.0,-3.0,6.047
-28.0,-5.0,6.048
-24.0,-8.0,6.049
-24.0,-12.0,6.05
-26.0,-25.0,6.051
-30.0,-42.0,6.052
-29.0,-52.0,6.053
-25.0,-44.0,6.054
-23.0,-30.0,6.055
-21.0,-15.0,6.056
-18.0,-6.0,6.057
-12.0,-3.0,6.058
-7.0,-4.0,6.059
-6.0,-8.0,6.06
-5.0,-11.0,6.061
3.0,-5.0,6.062
20.0,5.0,6.063
31.0,9.0,6.064
24.0,7.0,6.065
2.0,8.0,6.066
-11.0,9.0,6.067
-2.0,9.0,6.068
15.0,5.0,6.069
9.0,0.0,6.07
-25.0,-2.0,6.071
-52.0,4.0,6.072
-44.0,27.0,6.073
-11.0,54.0,6.074
8.0,62.0,6.075
-5.0,40.0,6.076
-23.0,6.0,6.077
-24.0,-21.0,6.078
-2.0,-24.0,6.079
33.0,-10.0,6.08
65.0,-5.0,6.081
95.0,-15.0,6.082
113.0,-29.0,6.083
104.0,-25.0,6.084
72.0,-9.0,6.085
39.0,0.0,6.086
22.0,-6.0,6.087
19.0,-11.0,6.088
12.0,-6.0,6.089
-5.0,0.0,6.09
-7.0,-3.0,6.091
20.0,-8.0,6.092
51.0,-7.0,6.093
50.0,-5.0,6.094
26.0,-6.0,6.095
17.0,-2.0,6.096
29.0,7.0,6.097
41.0,5.0,6.098
45.0,-1.0,6.099
48.0,-9.0,6.1
53.0,-12.0,6.101
39.0,-14.0,6.102
8.0,-14.0,6.103
-24.0,-13.0,6.104
-47.0,-6.0,6.105
-60.0,2.0,6.106
-51.0,11.0,6.107
-12.0,20.0,6.108
33.0,20.0,6.109
50.0,18.0,6.11
29.0,17.0,6.111
-25.0,15.0,6.112
-86.0,12.0,6.113
-116.0,9.0,6.114
-85.0,6.0,6.115
-9.0,4.0,6.116
59.0,9.0,6.117
88.0,6.0,6.118
86.0,-4.0,6.119
74.0,-14.0,6.12
60.0,-18.0,6.121
46.0,-21.0,6.122
42.0,-21.0,6.123
39.0,-20.0,6.124
23.0,-10.0,6.125
-8.0,0.0,6.126
-36.0,14.0,6.127
-52.0,26.0,6.128
-50.0,26.0,6.129
-33.0,24.0,6.13
-10.0,22.0,6.131
1.0,20.0,6.132
-3.0,16.0,6.133
-4.0,11.0,6.134
3.0,7.0,6.135
0.0,5.0,6.136
-19.0,11.0,6.137
-40.0,16.0,6.138
-44.0,10.0,6.139
-45.0,-1.0,6.14
-54.0,-12.0,6.141
-57.0,-20.0,6.142
-40.0,-29.0,6.143
-21.0,-36.0,6.144
-14.0,-32.0,6.145
0.0,-9.0,6.146
38.0,17.0,6.147
73.0,35.0,6.148
65.0,37.0,6.149
28.0,32.0,6.15
9.0,28.0,6.151
9.0,47.0,6.152
-1.0,115.0,6.153
-25.0,213.0,6.154
-29.0,261.0,6.155
-6.0,198.0,6.156
22.0,68.0,6.157
42.0,-58.0,6.158
67.0,-146.0,6.159
88.0,-232.0,6.16
82.0,-313.0,6.161
53.0,-367.0,6.162
35.0,-340.0,6.163
30.0,-306.0,6.164
-3.0,-251.0,6.165
-76.0,-182.0,6.166
-139.0,-71.0,6.167
-152.0,49.0,6.168
-122.0,199.0,6.169
-89.0,323.0,6.17
-75.0,363.0,6.171
-73.0,350.0,6.172
-57.0,180.0,6.173
-20.0,53.0,6.174
13.0,57.0,6.175
15.0,54.0,6.176
4.0,30.0,6.177
16.0,-6.0,6.178
50.0,-39.0,6.179
63.0,38.0,6.18
46.0,188.0,6.181
34.0,321.0,6.182
42.0,381.0,6.183
45.0,385.0,6.184
23.0,341.0,6.185
2.0,181.0,6.186
1.0,-125.0,6.187
5.0,-441.0,6.188
-1.0,-563.0,6.189
-6.0,-479.0,6.19
2.0,-389.0,6.191
9.0,-415.0,6.192
1.0,-467.0,6.193
-7.0,-407.0,6.194
-4.0,-227.0,6.195
2.0,21.0,6.196
9.0,274.0,6.197
22.0,475.0,6.198
42.0,517.0,6.199
57.0,386.0,6.2
57.0,192.0,6.201
58.0,16.0,6.202
56.0,-174.0,6.203
46.0,-388.0,6.204
9.0,-529.0,6.205
-22.0,-518.0,6.206
-36.0,-397.0,6.207
-50.0,-235.0,6.208
-59.0,-43.0,6.209
-60.0,152.0,6.21
-33.0,260.0,6.211
-1.0,237.0,6.212
44.0,187.0,6.213
90.0,219.0,6.214
137.0,309.0,6.215
160.0,388.0,6.216
110.0,469.0,6.217
57.0,596.0,6.218
9.0,694.0,6.219
-31.0,612.0,6.22
-104.0,292.0,6.221
-201.0,-173.0,6.222
-257.0,-636.0,6.223
-213.0,-946.0,6.224
-84.0,-1010.0,6.225
50.0,-866.0,6.226
120.0,-648.0,6.227
122.0,-454.0,6.228
104.0,-282.0,6.229
94.0,-106.0,6.23
81.0,75.0,6.231
43.0,273.0,6.232
-18.0,481.0,6.233
-94.0,613.0,6.234
-164.0,576.0,6.235
-188.0,396.0,6.236
-142.0,203.0,6.237
-49.0,53.0,6.238
30.0,-39.0,6.239
66.0,-61.0,6.24
80.0,12.0,6.241
88.0,152.0,6.242
76.0,270.0,6.243
46.0,345.0,6.244
30.0,450.0,6.245
36.0,615.0,6.246
36.0,716.0,6.247
18.0,599.0,6.248
13.0,263.0,6.249
30.0,-119.0,6.25
35.0,-381.0,6.251
10.0,-496.0,6.252
-10.0,-542.0,6.253
-1.0,-566.0,6.254
12.0,-556.0,6.255
-8.0,-514.0,6.256
-44.0,-472.0,6.257
-67.0,-449.0,6.258
-67.0,-422.0,6.259
-50.0,-367.0,6.26
-24.0,-285.0,6.261
-1.0,-176.0,6.262
6.0,-45.0,6.263
0.0,82.0,6.264
3.0,164.0,6.265
14.0,185.0,6.266
9.0,187.0,6.267
-13.0,226.0,6.268
-25.0,316.0,6.269
-17.0,387.0,6.27
2.0,356.0,6.271
22.0,212.0,6.272
44.0,24.0,6.273
64.0,-157.0,6.274
76.0,-328.0,6.275
83.0,-441.0,6.276
97.0,-425.0,6.277
113.0,-267.0,6.278
107.0,-67.0,6.279
70.0,94.0,6.28
17.0,203.0,6.281
-33.0,242.0,6.282
-79.0,165.0,6.283
-123.0,27.0,6.284
-141.0,-1.0,6.285
-121.0,133.0,6.286
-76.0,284.0,6.287
-40.0,309.0,6.288
-22.0,245.0,6.289
-3.0,188.0,6.29
26.0,137.0,6.291
37.0,46.0,6.292
22.0,-46.0,6.293
0.0,-74.0,6.294
-11.0,-59.0,6.295
-25.0,-73.0,6.296
-44.0,-97.0,6.297
-42.0,-39.0,6.298
4.0,123.0,6.299
53.0,256.0,6.3
50.0,216.0,6.301
6.0,77.0,6.302
-18.0,36.0,6.303
2.0,134.0,6.304
36.0,163.0,6.305
53.0,-74.0,6.306
59.0,-478.0,6.307
52.0,-752.0,6.308
31.0,-734.0,6.309
12.0,-495.0,6.31
15.0,-158.0,6.311
25.0,208.0,6.312
22.0,505.0,6.313
14.0,570.0,6.314
12.0,358.0,6.315
0.0,61.0,6.316
-34.0,-81.0,6.317
-73.0,-17.0,6.318
-79.0,143.0,6.319
-73.0,282.0,6.32
-95.0,384.0,6.321
-120.0,489.0,6.322
-86.0,538.0,6.323
4.0,380.0,6.324
78.0,-37.0,6.325
98.0,-504.0,6.326
98.0,-671.0,6.327
98.0,-412.0,6.328
82.0,12.0,6.329
59.0,224.0,6.33
61.0,78.0,6.331
84.0,-255.0,6.332
79.0,-500.0,6.333
43.0,-530.0,6.334
21.0,-462.0,6.335
26.0,-482.0,6.336
25.0,-572.0,6.337
7.0,-571.0,6.338
-8.0,-431.0,6.339
3.0,-319.0,6.34
31.0,-346.0,6.341
51.0,-360.0,6.342
58.0,-225.0,6.343
35.0,-52.0,6.344
-46.0,8.0,6.345
-152.0,33.0,6.346
-197.0,172.0,6.347
-153.0,386.0,6.348
-90.0,536.0,6.349
-73.0,612.0,6.35
-83.0,691.0,6.351
-72.0,756.0,6.352
-48.0,713.0,6.353
-37.0,560.0,6.354
-22.0,386.0,6.355
12.0,263.0,6.356
43.0,192.0,6.357
50.0,113.0,6.358
54.0,-13.0,6.359
79.0,-178.0,6.36
109.0,-313.0,6.361
118.0,-349.0,6.362
111.0,-309.0,6.363
106.0,-249.0,6.364
98.0,-184.0,6.365
74.0,-87.0,6.366
40.0,38.0,6.367
3.0,146.0,6.368
-28.0,202.0,6.369
-47.0,201.0,6.37
-52.0,163.0,6.371
-63.0,122.0,6.372
-93.0,95.0,6.373
-114.0,57.0,6.374
-92.0,4.0,6.375
-40.0,-17.0,6.376
-13.0,31.0,6.377
-22.0,113.0,6.378
-33.0,161.0,6.379
-22.0,183.0,6.38
-7.0,229.0,6.381
-4.0,269.0,6.382
2.0,212.0,6.383
20.0,67.0,6.384
25.0,-63.0,6.385
10.0,-133.0,6.386
3.0,-180.0,6.387
26.0,-225.0,6.388
56.0,-255.0,6.389
70.0,-305.0,6.39
77.0,-420.0,6.391
86.0,-547.0,6.392
84.0,-582.0,6.393
59.0,-512.0,6.394
32.0,-409.0,6.395
30.0,-280.0,6.396
49.0,-102.0,6.397
60.0,97.0,6.398
49.0,206.0,6.399
15.0,195.0,6.4
-25.0,150.0,6.401
-54.0,127.0,6.402
-60.0,87.0,6.403
-49.0,19.0,6.404
-42.0,-13.0,6.405
-43.0,20.0,6.406
-35.0,65.0,6.407
-7.0,78.0,6.408
23.0,84.0,6.409
25.0,105.0,6.41
2.0,101.0,6.411
-20.0,59.0,6.412
-25.0,30.0,6.413
-22.0,54.0,6.414
-20.0,98.0,6.415
-15.0,112.0,6.416
-6.0,110.0,6.417
0.0,125.0,6.418
-3.0,152.0,6.419
-8.0,151.0,6.42
-1.0,111.0,6.421
12.0,69.0,6.422
10.0,44.0,6.423
-8.0,35.0,6.424
-29.0,25.0,6.425
-38.0,6.0,6.426
-34.0,-17.0,6.427
-31.0,-32.0,6.428
-30.0,-29.0,6.429
-28.0,-18.0,6.43
-28.0,-20.0,6.431
-34.0,-33.0,6.432
-43.0,-28.0,6.433
-38.0,14.0,6.434
-9.0,60.0,6.435
25.0,68.0,6.436
41.0,38.0,6.437
42.0,-3.0,6.438
41.0,-32.0,6.439
44.0,-50.0,6.44
47.0,-65.0,6.441
41.0,-69.0,6.442
34.0,-62.0,6.443
31.0,-62.0,6.444
28.0,-68.0,6.445
21.0,-60.0,6.446
17.0,-31.0,6.447
13.0,-4.0,6.448
11.0,0.0,6.449
11.0,-4.0,6.45
18.0,-1.0,6.451
27.0,3.0,6.452
33.0,-7.0,6.453
30.0,-25.0,6.454
22.0,-36.0,6.455
18.0,-35.0,6.456
20.0,-30.0,6.457
19.0,-24.0,6.458
16.0,-13.0,6.459
8.0,-12.0,6.46
1.0,-33.0,6.461
0.0,-63.0,6.462
9.0,-80.0,6.463
17.0,-78.0,6.464
17.0,-59.0,6.465
8.0,-30.0,6.466
0.0,-3.0,6.467
-1.0,8.0,6.468
-2.0,-4.0,6.469
-10.0,-18.0,6.47
-18.0,-11.0,6.471
-14.0,21.0,6.472
0.0,52.0,6.473
1.0,65.0,6.474
-16.0,61.0,6.475
-35.0,50.0,6.476
-39.0,35.0,6.477
-36.0,11.0,6.478
-42.0,-7.0,6.479
-64.0,-9.0,6.48
-84.0,1.0,6.481
-82.0,14.0,6.482
-60.0,12.0,6.483
-30.0,-1.0,6.484
-3.0,-8.0,6.485
19.0,2.0,6.486
35.0,26.0,6.487
48.0,48.0,6.488
57.0,59.0,6.489
61.0,59.0,6.49
56.0,53.0,6.491
46.0,41.0,6.492
36.0,25.0,6.493
34.0,7.0,6.494
34.0,-6.0,6.495
32.0,-12.0,6.496
24.0,-6.0,6.497
14.0,0.0,6.498
8.0,6.0,6.499
3.0,5.0,6.5
-2.0,-1.0,6.501
-6.0,-6.0,6.502
-5.0,-6.0,6.503
-4.0,1.0,6.504
-6.0,11.0,6.505
-9.0,12.0,6.506
-8.0,3.0,6.507
-6.0,-2.0,6.508
-2.0,1.0,6.509
0.0,8.0,6.51
-2.0,7.0,6.511
-3.0,0.0,6.512
2.0,-2.0,6.513
7.0,0.0,6.514
8.0,-3.0,6.515
9.0,-8.0,6.516
6.0,-7.0,6.517
4.0,0.0,6.518
4.0,5.0,6.519
3.0,3.0,6.52
2.0,-2.0,6.521
4.0,-3.0,6.522
9.0,-3.0,6.523
13.0,-8.0,6.524
7.0,-8.0,6.525
0.0,-6.0,6.526
-4.0,-6.0,6.527
-5.0,-9.0,6.528
-7.0,-14.0,6.529
-10.0,-17.0,6.53
-11.0,-17.0,6.531
-7.0,-16.0,6.532
-4.0,-16.0,6.533
-6.0,-15.0,6.534
-8.0,-15.0,6.535
-11.0,-16.0,6.536
-12.0,-18.0,6.537
-14.0,-24.0,6.538
-13.0,-25.0,6.539
-14.0,-23.0,6.54
-21.0,-20.0,6.541
-26.0,-19.0,6.542
-24.0,-17.0,6.543
-18.0,-14.0,6.544
-15.0,-10.0,6.545
-21.0,-9.0,6.546
-23.0,-13.0,6.547
-20.0,-15.0,6.548
-18.0,-14.0,6.549
-19.0,-13.0,6.55
-14.0,-13.0,6.551
6.0,-12.0,6.552
37.0,-12.0,6.553
60.0,-17.0,6.554
55.0,-19.0,6.555
18.0,-13.0,6.556
-31.0,0.0,6.557
-75.0,-22.0,6.558
-97.0,-17.0,6.559
-99.0,-9.0,6.56
-91.0,5.0,6.561
-65.0,17.0,6.562
-16.0,16.0,6.563
32.0,15.0,6.564
44.0,18.0,6.565
27.0,19.0,6.566
28.0,13.0,6.567
70.0,7.0,6.568
110.0,1.0,6.569
103.0,-3.0,6.57
63.0,-5.0,6.571
32.0,-1.0,6.572
20.0,22.0,6.573
10.0,39.0,6.574
3.0,37.0,6.575
7.0,29.0,6.576
14.0,7.0,6.577
14.0,-7.0,6.578
12.0,-5.0,6.579
16.0,0.0,6.58
21.0,7.0,6.581
20.0,13.0,6.582
25.0,12.0,6.583
41.0,12.0,6.584
57.0,13.0,6.585
63.0,14.0,6.586
67.0,11.0,6.587
71.0,8.0,6.588
65.0,5.0,6.589
40.0,3.0,6.59
12.0,2.0,6.591
0.0,4.0,6.592
1.0,16.0,6.593
-8.0,25.0,6.594
-42.0,24.0,6.595
-78.0,19.0,6.596
-71.0,8.0,6.597
5.0,-22.0,6.598
119.0,-17.0,6.599
190.0,-9.0,6.6
169.0,5.0,6.601
82.0,17.0,6.602
-14.0,16.0,6.603
-92.0,15.0,6.604
-151.0,18.0,6.605
-179.0,19.0,6.606
-165.0,13.0,6.607
-127.0,7.0,6.608
-87.0,1.0,6.609
-43.0,-3.0,6.61
5.0,-5.0,6.611
37.0,-1.0,6.612
39.0,22.0,6.613
35.0,39.0,6.614
42.0,37.0,6.615
37.0,29.0,6.616
15.0,7.0,6.617
3.0,-9.0,6.618
26.0,-9.0,6.619
52.0,-14.0,6.62
51.0,-23.0,6.621
44.0,-23.0,6.622
56.0,-23.0,6.623
60.0,-33.0,6.624
31.0,-41.0,6.625
-4.0,-27.0,6.626
-9.0,4.0,6.627
-1.0,24.0,6.628
-8.0,26.0,6.629
-21.0,27.0,6.63
-11.0,36.0,6.631
10.0,47.0,6.632
12.0,55.0,6.633
-5.0,70.0,6.634
-14.0,82.0,6.635
-8.0,66.0,6.636
1.0,30.0,6.637
11.0,-12.0,6.638
20.0,-33.0,6.639
17.0,-39.0,6.64
2.0,-54.0,6.641
-8.0,-78.0,6.642
-5.0,-98.0,6.643
2.0,-93.0,6.644
3.0,-56.0,6.645
5.0,2.0,6.646
25.0,54.0,6.647
49.0,68.0,6.648
56.0,31.0,6.649
48.0,-29.0,6.65
22.0,-69.0,6.651
-43.0,-64.0,6.652
-152.0,-19.0,6.653
-244.0,56.0,6.654
-239.0,156.0,6.655
-140.0,248.0,6.656
-46.0,275.0,6.657
-18.0,201.0,6.658
-26.0,73.0,6.659
-12.0,-43.0,6.66
24.0,-117.0,6.661
39.0,-140.0,6.662
30.0,-98.0,6.663
31.0,13.0,6.664
43.0,128.0,6.665
51.0,147.0,6.666
59.0,34.0,6.667
67.0,-123.0,6.668
51.0,-196.0,6.669
7.0,-153.0,6.67
-22.0,-88.0,6.671
0.0,-101.0,6.672
44.0,-188.0,6.673
57.0,-243.0,6.674
38.0,-202.0,6.675
19.0,-110.0,6.676
16.0,-53.0,6.677
13.0,-48.0,6.678
7.0,-30.0,6.679
3.0,46.0,6.68
5.0,126.0,6.681
6.0,111.0,6.682
-2.0,-13.0,6.683
-8.0,-144.0,6.684
-8.0,-173.0,6.685
-3.0,-89.0,6.686
13.0,51.0,6.687
25.0,200.0,6.688
26.0,294.0,6.689
31.0,263.0,6.69
46.0,117.0,6.691
65.0,-26.0,6.692
95.0,-72.0,6.693
122.0,-61.0,6.694
134.0,-60.0,6.695
132.0,-63.0,6.696
87.0,-55.0,6.697
31.0,-71.0,6.698
-57.0,-116.0,6.699
-125.0,-121.0,6.7
-159.0,-46.0,6.701
-175.0,38.0,6.702
-188.0,59.0,6.703
-186.0,49.0,6.704
-168.0,65.0,6.705
-141.0,80.0,6.706
-122.0,67.0,6.707
-108.0,102.0,6.708
-87.0,290.0,6.709
-35.0,598.0,6.71
41.0,821.0,6.711
110.0,763.0,6.712
140.0,428.0,6.713
131.0,40.0,6.714
100.0,-182.0,6.715
58.0,-256.0,6.716
18.0,-335.0,6.717
-6.0,-477.0,6.718
-4.0,-534.0,6.719
10.0,-398.0,6.72
33.0,-184.0,6.721
70.0,-73.0,6.722
103.0,-120.0,6.723
102.0,-243.0,6.724
69.0,-340.0,6.725
41.0,-363.0,6.726
32.0,-297.0,6.727
17.0,-172.0,6.728
-4.0,-29.0,6.729
-5.0,115.0,6.73
12.0,253.0,6.731
7.0,353.0,6.732
-22.0,369.0,6.733
-39.0,298.0,6.734
-25.0,190.0,6.735
-16.0,108.0,6.736
-20.0,85.0,6.737
-24.0,114.0,6.738
-11.0,163.0,6.739
-3.0,181.0,6.74
-8.0,127.0,6.741
-9.0,23.0,6.742
16.0,-54.0,6.743
51.0,-11.0,6.744
73.0,195.0,6.745
73.0,531.0,6.746
63.0,848.0,6.747
46.0,912.0,6.748
25.0,576.0,6.749
6.0,-47.0,6.75
-6.0,-652.0,6.751
4.0,-1046.0,6.752
40.0,-1246.0,6.753
67.0,-1289.0,6.754
22.0,-1111.0,6.755
-101.0,-739.0,6.756
-216.0,-411.0,6.757
-250.0,-288.0,6.758
-203.0,-300.0,6.759
-153.0,-254.0,6.76
-129.0,-122.0,6.761
-86.0,-37.0,6.762
7.0,-45.0,6.763
99.0,-28.0,6.764
135.0,113.0,6.765
130.0,338.0,6.766
127.0,547.0,6.767
109.0,674.0,6.768
28.0,674.0,6.769
-84.0,490.0,6.77
-133.0,136.0,6.771
-83.0,-205.0,6.772
-7.0,-312.0,6.773
21.0,-179.0,6.774
14.0,-25.0,6.775
25.0,-12.0,6.776
62.0,-53.0,6.777
98.0,-23.0,6.778
112.0,58.0,6.779
99.0,103.0,6.78
59.0,156.0,6.781
6.0,311.0,6.782
-16.0,489.0,6.783
6.0,544.0,6.784
24.0,501.0,6.785
-9.0,511.0,6.786
-60.0,564.0,6.787
-74.0,472.0,6.788
-53.0,161.0,6.789
-39.0,-194.0,6.79
-37.0,-399.0,6.791
-15.0,-440.0,6.792
23.0,-426.0,6.793
43.0,-410.0,6.794
39.0,-365.0,6.795
30.0,-276.0,6.796
22.0,-197.0,6.797
3.0,-180.0,6.798
-14.0,-216.0,6.799
-11.0,-245.0,6.8
10.0,-216.0,6.801
25.0,-133.0,6.802
24.0,-40.0,6.803
17.0,41.0,6.804
5.0,104.0,6.805
-7.0,152.0,6.806
-4.0,200.0,6.807
34.0,243.0,6.808
83.0,225.0,6.809
98.0,110.0,6.81
63.0,-12.0,6.811
9.0,-4.0,6.812
-31.0,138.0,6.813
-47.0,243.0,6.814
-47.0,175.0,6.815
-36.0,-27.0,6.816
-15.0,-224.0,6.817
11.0,-348.0,6.818
31.0,-372.0,6.819
36.0,-319.0,6.82
32.0,-250.0,6.821
28.0,-194.0,6.822
32.0,-127.0,6.823
34.0,-43.0,6.824
27.0,9.0,6.825
3.0,14.0,6.826
-28.0,53.0,6.827
-54.0,193.0,6.828
-53.0,371.0,6.829
-20.0,473.0,6.83
19.0,477.0,6.831
30.0,414.0,6.832
7.0,286.0,6.833
-22.0,123.0,6.834
-45.0,14.0,6.835
-64.0,0.0,6.836
-75.0,0.0,6.837
-63.0,-61.0,6.838
-32.0,-143.0,6.839
-11.0,-169.0,6.84
-9.0,-155.0,6.841
-7.0,-148.0,6.842
6.0,-142.0,6.843
22.0,-108.0,6.844
32.0,-59.0,6.845
45.0,-1.0,6.846
55.0,85.0,6.847
50.0,181.0,6.848
24.0,211.0,6.849
0.0,155.0,6.85
-5.0,80.0,6.851
-8.0,35.0,6.852
-21.0,-7.0,6.853
-28.0,-69.0,6.854
-17.0,-124.0,6.855
-4.0,-150.0,6.856
-5.0,-168.0,6.857
-15.0,-182.0,6.858
-16.0,-140.0,6.859
-9.0,-16.0,6.86
-5.0,118.0,6.861
2.0,184.0,6.862
20.0,166.0,6.863
31.0,120.0,6.864
21.0,99.0,6.865
4.0,111.0,6.866
7.0,117.0,6.867
28.0,84.0,6.868
38.0,41.0,6.869
31.0,43.0,6.87
27.0,76.0,6.871
42.0,52.0,6.872
61.0,-59.0,6.873
63.0,-189.0,6.874
42.0,-278.0,6.875
18.0,-349.0,6.876
10.0,-420.0,6.877
7.0,-462.0,6.878
-1.0,-424.0,6.879
-20.0,-321.0,6.88
-35.0,-210.0,6.881
-42.0,-101.0,6.882
-48.0,2.0,6.883
-58.0,82.0,6.884
-54.0,133.0,6.885
-25.0,168.0,6.886
7.0,189.0,6.887
18.0,177.0,6.888
9.0,137.0,6.889
-3.0,106.0,6.89
-6.0,95.0,6.891
-7.0,84.0,6.892
-4.0,73.0,6.893
0.0,98.0,6.894
0.0,168.0,6.895
-15.0,220.0,6.896
-31.0,204.0,6.897
-37.0,134.0,6.898
-27.0,72.0,6.899
-13.0,20.0,6.9
-1.0,-65.0,6.901
12.0,-169.0,6.902
24.0,-228.0,6.903
28.0,-212.0,6.904
24.0,-160.0,6.905
16.0,-103.0,6.906
17.0,-36.0,6.907
27.0,29.0,6.908
36.0,57.0,6.909
31.0,44.0,6.91
19.0,37.0,6.911
16.0,63.0,6.912
20.0,91.0,6.913
20.0,88.0,6.914
8.0,65.0,6.915
-3.0,55.0,6.916
-3.0,58.0,6.917
-2.0,53.0,6.918
-9.0,37.0,6.919
-17.0,22.0,6.92
-13.0,11.0,6.921
-6.0,11.0,6.922
-5.0,19.0,6.923
-4.0,34.0,6.924
7.0,47.0,6.925
21.0,51.0,6.926
22.0,47.0,6.927
8.0,47.0,6.928
-4.0,56.0,6.929
-10.0,68.0,6.93
-10.0,73.0,6.931
-7.0,67.0,6.932
-2.0,55.0,6.933
-2.0,35.0,6.934
-2.0,7.0,6.935
4.0,-28.0,6.936
17.0,-60.0,6.937
22.0,-96.0,6.938
18.0,-146.0,6.939
13.0,-206.0,6.94
17.0,-251.0,6.941
30.0,-249.0,6.942
37.0,-210.0,6.943
33.0,-167.0,6.944
16.0,-128.0,6.945
3.0,-82.0,6.946
4.0,-27.0,6.947
17.0,7.0,6.948
20.0,18.0,6.949
6.0,26.0,6.95
-12.0,42.0,6.951
-22.0,54.0,6.952
-23.0,49.0,6.953
-25.0,41.0,6.954
-27.0,46.0,6.955
-28.0,51.0,6.956
-25.0,46.0,6.957
-23.0,33.0,6.958
-20.0,29.0,6.959
-14.0,26.0,6.96
-2.0,15.0,6.961
11.0,3.0,6.962
22.0,-5.0,6.963
29.0,-8.0,6.964
29.0,-2.0,6.965
20.0,18.0,6.966
0.0,41.0,6.967
-17.0,48.0,6.968
-16.0,39.0,6.969
4.0,35.0,6.97
25.0,39.0,6.971
25.0,40.0,6.972
16.0,30.0,6.973
22.0,20.0,6.974
43.0,18.0,6.975
43.0,13.0,6.976
5.0,2.0,6.977
-51.0,-8.0,6.978
-85.0,-8.0,6.979
-91.0,-1.0,6.98
-89.0,1.0,6.981
-81.0,4.0,6.982
-56.0,8.0,6.983
-28.0,10.0,6.984
-13.0,8.0,6.985
-6.0,9.0,6.986
10.0,13.0,6.987
29.0,20.0,6.988
35.0,22.0,6.989
38.0,20.0,6.99
46.0,18.0,6.991
56.0,18.0,6.992
54.0,19.0,6.993
49.0,23.0,6.994
49.0,26.0,6.995
46.0,24.0,6.996
36.0,17.0,6.997
26.0,5.0,6.998
23.0,-3.0,6.999
18.0,-5.0,7.0
10.0,-6.0,7.001
11.0,-7.0,7.002
25.0,-8.0,7.003
32.0,-5.0,7.004
21.0,-3.0,7.005
3.0,-3.0,7.006
-4.0,-6.0,7.007
-3.0,-8.0,7.008
-6.0,-7.0,7.009
-14.0,-7.0,7.01
-21.0,-6.0,7.011
-21.0,-6.0,7.012
-15.0,-7.0,7.013
-7.0,-11.0,7.014
0.0,-17.0,7.015
0.0,-22.0,7.016
-1.0,-24.0,7.017
-2.0,-29.0,7.018
4.0,-36.0,7.019
7.0,-38.0,7.02
-3.0,-34.0,7.021
-17.0,-24.0,7.022
-18.0,-19.0,7.023
-6.0,-20.0,7.024
2.0,-21.0,7.025
0.0,-15.0,7.026
-8.0,-6.0,7.027
-11.0,-3.0,7.028
-11.0,-7.0,7.029
-12.0,-11.0,7.03
-13.0,-10.0,7.031
-15.0,-9.0,7.032
-20.0,-15.0,7.033
-25.0,-25.0,7.034
-29.0,-31.0,7.035
-26.0,-29.0,7.036
-21.0,-16.0,7.037
-21.0,-4.0,7.038
-22.0,1.0,7.039
-25.0,-3.0,7.04
-26.0,-9.0,7.041
-25.0,-7.0,7.042
-22.0,-2.0,7.043
-16.0,3.0,7.044
-9.0,6.0,7.045
-3.0,8.0,7.046
-6.0,7.0,7.047
-9.0,6.0,7.048
-8.0,7.0,7.049
-2.0,9.0,7.05
2.0,5.0,7.051
2.0,-3.0,7.052
2.0,-8.0,7.053
8.0,-8.0,7.054
19.0,-2.0,7.055
28.0,6.0,7.056
36.0,16.0,7.057
41.0,-8.0,7.058
46.0,-1.0,7.059
52.0,5.0,7.06
58.0,5.0,7.061
61.0,3.0,7.062
58.0,-1.0,7.063
51.0,-4.0,7.064
40.0,-1.0,7.065
23.0,1.0,7.066
8.0,1.0,7.067
1.0,1.0,7.068
4.0,1.0,7.069
10.0,1.0,7.07
15.0,1.0,7.071
18.0,2.0,7.072
17.0,2.0,7.073
16.0,3.0,7.074
24.0,10.0,7.075
37.0,14.0,7.076
35.0,10.0,7.077
-2.0,-4.0,7.078
-46.0,0.0,7.079
-56.0,4.0,7.08
-18.0,4.0,7.081
25.0,3.0,7.082
36.0,0.0,7.083
20.0,-2.0,7.084
10.0,0.0,7.085
13.0,1.0,7.086
14.0,1.0,7.087
10.0,1.0,7.088
26.0,1.0,7.089
67.0,1.0,7.09
101.0,1.0,7.091
98.0,2.0,7.092
64.0,2.0,7.093
23.0,3.0,7.094
-17.0,7.0,7.095
-66.0,9.0,7.096
-111.0,7.0,7.097
-127.0,4.0,7.098
-93.0,-1.0,7.099
-39.0,-4.0,7.1
-5.0,-7.0,7.101
4.0,-5.0,7.102
10.0,-4.0,7.103
15.0,0.0,7.104
7.0,7.0,7.105
-2.0,16.0,7.106
8.0,26.0,7.107
24.0,30.0,7.108
16.0,31.0,7.109
-7.0,23.0,7.11
-6.0,6.0,7.111
19.0,-10.0,7.112
33.0,-18.0,7.113
23.0,-17.0,7.114
12.0,-15.0,7.115
16.0,-13.0,7.116
21.0,-12.0,7.117
14.0,-11.0,7.118
-3.0,-9.0,7.119
-20.0,-8.0,7.12
-32.0,-8.0,7.121
-28.0,-7.0,7.122
-9.0,0.0,7.123
9.0,7.0,7.124
14.0,18.0,7.125
16.0,27.0,7.126
27.0,29.0,7.127
31.0,30.0,7.128
5.0,24.0,7.129
-33.0,14.0,7.13
-48.0,-11.0,7.131
-35.0,-22.0,7.132
-18.0,8.0,7.133
-10.0,45.0,7.134
-7.0,97.0,7.135
-5.0,130.0,7.136
-3.0,103.0,7.137
4.0,65.0,7.138
24.0,-15.0,7.139
34.0,-99.0,7.14
19.0,-162.0,7.141
1.0,-180.0,7.142
7.0,-164.0,7.143
24.0,-144.0,7.144
12.0,-124.0,7.145
-26.0,-79.0,7.146
-56.0,-12.0,7.147
-64.0,44.0,7.148
-62.0,83.0,7.149
-42.0,129.0,7.15
4.0,171.0,7.151
49.0,147.0,7.152
56.0,47.0,7.153
35.0,-48.0,7.154
19.0,-56.0,7.155
19.0,-5.0,7.156
18.0,20.0,7.157
12.0,-11.0,7.158
16.0,-50.0,7.159
18.0,-41.0,7.16
14.0,23.0,7.161
10.0,113.0,7.162
6.0,186.0,7.163
0.0,237.0,7.164
-9.0,263.0,7.165
-18.0,221.0,7.166
-24.0,65.0,7.167
-29.0,-150.0,7.168
-25.0,-288.0,7.169
-19.0,-306.0,7.17
-13.0,-302.0,7.171
-9.0,-343.0,7.172
-7.0,-341.0,7.173
0.0,-207.0,7.174
24.0,-15.0,7.175
46.0,88.0,7.176
62.0,70.0,7.177
72.0,-7.0,7.178
51.0,-56.0,7.179
19.0,-18.0,7.18
-9.0,102.0,7.181
-25.0,228.0,7.182
-29.0,262.0,7.183
-24.0,224.0,7.184
-15.0,208.0,7.185
-7.0,213.0,7.186
-7.0,147.0,7.187
-16.0,31.0,7.188
-24.0,17.0,7.189
-25.0,134.0,7.19
-17.0,188.0,7.191
-3.0,55.0,7.192
13.0,-94.0,7.193
28.0,-33.0,7.194
28.0,164.0,7.195
14.0,209.0,7.196
12.0,15.0,7.197
38.0,-262.0,7.198
89.0,-407.0,7.199
119.0,-422.0,7.2
90.0,-439.0,7.201
10.0,-467.0,7.202
-57.0,-404.0,7.203
-84.0,-226.0,7.204
-104.0,-40.0,7.205
-155.0,41.0,7.206
-204.0,30.0,7.207
-181.0,31.0,7.208
-85.0,115.0,7.209
8.0,278.0,7.21
46.0,466.0,7.211
46.0,584.0,7.212
45.0,559.0,7.213
45.0,432.0,7.214
36.0,353.0,7.215
23.0,378.0,7.216
19.0,370.0,7.217
30.0,177.0,7.218
56.0,-80.0,7.219
80.0,-184.0,7.22
81.0,-181.0,7.221
64.0,-312.0,7.222
54.0,-608.0,7.223
60.0,-797.0,7.224
54.0,-706.0,7.225
24.0,-477.0,7.226
3.0,-289.0,7.227
7.0,-141.0,7.228
7.0,8.0,7.229
-16.0,121.0,7.23
-38.0,189.0,7.231
-23.0,268.0,7.232
15.0,327.0,7.233
51.0,242.0,7.234
74.0,1.0,7.235
77.0,-208.0,7.236
52.0,-222.0,7.237
-2.0,-62.0,7.238
-51.0,127.0,7.239
-73.0,209.0,7.24
-68.0,125.0,7.241
-38.0,-71.0,7.242
4.0,-259.0,7.243
29.0,-316.0,7.244
9.0,-220.0,7.245
-27.0,-52.0,7.246
-41.0,54.0,7.247
-37.0,28.0,7.248
-46.0,-43.0,7.249
-57.0,6.0,7.25
-31.0,197.0,7.251
21.0,318.0,7.252
43.0,215.0,7.253
23.0,42.0,7.254
1.0,44.0,7.255
-3.0,166.0,7.256
-13.0,173.0,7.257
-41.0,57.0,7.258
-57.0,94.0,7.259
-38.0,355.0,7.26
-11.0,512.0,7.261
-2.0,312.0,7.262
5.0,-58.0,7.263
25.0,-283.0,7.264
40.0,-344.0,7.265
38.0,-386.0,7.266
41.0,-402.0,7.267
56.0,-329.0,7.268
63.0,-263.0,7.269
41.0,-295.0,7.27
6.0,-296.0,7.271
-8.0,-111.0,7.272
4.0,155.0,7.273
24.0,291.0,7.274
33.0,277.0,7.275
25.0,242.0,7.276
5.0,225.0,7.277
-26.0,179.0,7.278
-49.0,148.0,7.279
-54.0,229.0,7.28
-34.0,404.0,7.281
-3.0,517.0,7.282
19.0,428.0,7.283
17.0,143.0,7.284
-4.0,-215.0,7.285
-23.0,-503.0,7.286
-28.0,-644.0,7.287
-17.0,-649.0,7.288
10.0,-536.0,7.289
42.0,-326.0,7.29
63.0,-78.0,7.291
51.0,106.0,7.292
3.0,183.0,7.293
-50.0,165.0,7.294
-64.0,65.0,7.295
-24.0,-90.0,7.296
27.0,-191.0,7.297
47.0,-103.0,7.298
34.0,206.0,7.299
21.0,588.0,7.3
14.0,837.0,7.301
-6.0,878.0,7.302
-38.0,748.0,7.303
-42.0,506.0,7.304
-10.0,170.0,7.305
28.0,-222.0,7.306
44.0,-556.0,7.307
42.0,-714.0,7.308
31.0,-706.0,7.309
15.0,-654.0,7.31
-1.0,-632.0,7.311
0.0,-592.0,7.312
14.0,-488.0,7.313
19.0,-368.0,7.314
17.0,-297.0,7.315
20.0,-252.0,7.316
29.0,-190.0,7.317
23.0,-108.0,7.318
7.0,-30.0,7.319
-6.0,67.0,7.32
-4.0,204.0,7.321
-6.0,346.0,7.322
-18.0,428.0,7.323
-29.0,430.0,7.324
-37.0,371.0,7.325
-39.0,276.0,7.326
-23.0,197.0,7.327
-10.0,223.0,7.328
-7.0,385.0,7.329
-5.0,545.0,7.33
-13.0,506.0,7.331
-16.0,233.0,7.332
-6.0,-71.0,7.333
3.0,-197.0,7.334
12.0,-163.0,7.335
17.0,-133.0,7.336
7.0,-151.0,7.337
0.0,-121.0,7.338
14.0,-4.0,7.339
33.0,88.0,7.34
35.0,66.0,7.341
23.0,11.0,7.342
18.0,26.0,7.343
24.0,81.0,7.344
30.0,94.0,7.345
28.0,75.0,7.346
19.0,69.0,7.347
11.0,62.0,7.348
4.0,17.0,7.349
2.0,-45.0,7.35
0.0,-82.0,7.351
-13.0,-105.0,7.352
-34.0,-156.0,7.353
-40.0,-233.0,7.354
-22.0,-294.0,7.355
-4.0,-294.0,7.356
-3.0,-203.0,7.357
-8.0,-29.0,7.358
0.0,126.0,7.359
15.0,152.0,7.36
18.0,55.0,7.361
13.0,-47.0,7.362
11.0,-106.0,7.363
15.0,-175.0,7.364
11.0,-274.0,7.365
-6.0,-323.0,7.366
-25.0,-258.0,7.367
-34.0,-130.0,7.368
-28.0,-31.0,7.369
-21.0,19.0,7.37
-24.0,52.0,7.371
-41.0,83.0,7.372
-55.0,121.0,7.373
-57.0,169.0,7.374
-47.0,207.0,7.375
-38.0,201.0,7.376
-26.0,167.0,7.377
3.0,148.0,7.378
54.0,166.0,7.379
95.0,176.0,7.38
99.0,143.0,7.381
73.0,97.0,7.382
50.0,68.0,7.383
52.0,39.0,7.384
58.0,-14.0,7.385
50.0,-75.0,7.386
29.0,-112.0,7.387
9.0,-111.0,7.388
-5.0,-75.0,7.389
