Deltoid,Bicep,Time
10.0,7.0,0.0
7.0,7.0,0.001
7.0,9.0,0.002
11.0,9.0,0.003
13.0,8.0,0.004
7.0,8.0,0.005
0.0,9.0,0.006
-3.0,5.0,0.007
-3.0,-4.0,0.008
-4.0,-15.0,0.009
-6.0,-20.0,0.01
-5.0,-16.0,0.011
-3.0,-12.0,0.012
-3.0,-13.0,0.013
0.0,-18.0,0.014
7.0,-19.0,0.015
11.0,-16.0,0.016
10.0,-13.0,0.017
8.0,-16.0,0.018
7.0,-16.0,0.019
5.0,-12.0,0.02
2.0,-11.0,0.021
0.0,-13.0,0.022
6.0,-14.0,0.023
10.0,-9.0,0.024
7.0,-2.0,0.025
5.0,3.0,0.026
5.0,1.0,0.027
4.0,0.0,0.028
0.0,4.0,0.029
-4.0,9.0,0.03
-7.0,13.0,0.031
-8.0,14.0,0.032
-1.0,14.0,0.033
3.0,12.0,0.034
1.0,11.0,0.035
0.0,11.0,0.036
4.0,12.0,0.037
9.0,7.0,0.038
15.0,3.0,0.039
12.0,0.0,0.04
7.0,-5.0,0.041
6.0,-4.0,0.042
11.0,2.0,0.043
15.0,7.0,0.044
11.0,8.0,0.045
2.0,6.0,0.046
-3.0,5.0,0.047
-4.0,7.0,0.048
-4.0,9.0,0.049
-6.0,8.0,0.05
-10.0,7.0,0.051
-9.0,5.0,0.052
-6.0,2.0,0.053
-3.0,2.0,0.054
-1.0,3.0,0.055
1.0,2.0,0.056
6.0,0.0,0.057
9.0,-4.0,0.058
7.0,-5.0,0.059
5.0,-6.0,0.06
5.0,-8.0,0.061
5.0,-9.0,0.062
9.0,-3.0,0.063
11.0,1.0,0.064
7.0,1.0,0.065
3.0,1.0,0.066
-2.0,1.0,0.067
-7.0,0.0,0.068
-7.0,0.0,0.069
-8.0,1.0,0.07
-6.0,0.0,0.071
-5.0,-1.0,0.072
-5.0,-3.0,0.073
-5.0,-6.0,0.074
-3.0,-6.0,0.075
-1.0,-7.0,0.076
4.0,-6.0,0.077
7.0,-5.0,0.078
9.0,-7.0,0.079
8.0,-8.0,0.08
6.0,-10.0,0.081
4.0,-8.0,0.082
8.0,-8.0,0.083
14.0,-6.0,0.084
13.0,0.0,0.085
4.0,4.0,0.086
0.0,3.0,0.087
3.0,-2.0,0.088
4.0,-2.0,0.089
-1.0,3.0,0.09
-5.0,4.0,0.091
-4.0,2.0,0.092
-2.0,0.0,0.093
-3.0,3.0,0.094
-1.0,1.0,0.095
4.0,-5.0,0.096
9.0,-7.0,0.097
8.0,-3.0,0.098
8.0,0.0,0.099
7.0,-3.0,0.1
4.0,-9.0,0.101
3.0,-9.0,0.102
8.0,-3.0,0.103
11.0,0.0,0.104
7.0,1.0,0.105
3.0,5.0,0.106
-1.0,5.0,0.107
-4.0,2.0,0.108
-4.0,-2.0,0.109
-3.0,0.0,0.11
-5.0,6.0,0.111
-7.0,5.0,0.112
-5.0,1.0,0.113
-3.0,0.0,0.114
-3.0,1.0,0.115
0.0,1.0,0.116
5.0,0.0,0.117
10.0,-1.0,0.118
11.0,-3.0,0.119
7.0,-6.0,0.12
2.0,-11.0,0.121
0.0,-8.0,0.122
4.0,-2.0,0.123
10.0,1.0,0.124
10.0,4.0,0.125
2.0,5.0,0.126
-3.0,5.0,0.127
-1.0,3.0,0.128
-1.0,3.0,0.129
-8.0,7.0,0.13
-13.0,7.0,0.131
-8.0,3.0,0.132
0.0,-1.0,0.133
6.0,-1.0,0.134
9.0,-1.0,0.135
11.0,-5.0,0.136
12.0,-6.0,0.137
12.0,-4.0,0.138
15.0,-4.0,0.139
14.0,-3.0,0.14
10.0,-6.0,0.141
9.0,-4.0,0.142
12.0,-3.0,0.143
15.0,-2.0,0.144
11.0,1.0,0.145
4.0,4.0,0.146
-1.0,3.0,0.147
-1.0,2.0,0.148
-2.0,4.0,0.149
-6.0,6.0,0.15
-11.0,5.0,0.151
-10.0,1.0,0.152
-6.0,-1.0,0.153
-6.0,-2.0,0.154
-5.0,-3.0,0.155
-1.0,-4.0,0.156
8.0,-2.0,0.157
13.0,-3.0,0.158
13.0,-3.0,0.159
11.0,-5.0,0.16
8.0,-7.0,0.161
5.0,-8.0,0.162
9.0,-5.0,0.163
11.0,0.0,0.164
6.0,6.0,0.165
1.0,7.0,0.166
-4.0,3.0,0.167
-8.0,0.0,0.168
-6.0,1.0,0.169
-5.0,1.0,0.17
-7.0,-1.0,0.171
-9.0,0.0,0.172
-7.0,1.0,0.173
-4.0,1.0,0.174
1.0,-2.0,0.175
6.0,-3.0,0.176
11.0,-1.0,0.177
14.0,-2.0,0.178
13.0,-6.0,0.179
9.0,-8.0,0.18
7.0,-8.0,0.181
8.0,-7.0,0.182
12.0,-6.0,0.183
15.0,-3.0,0.184
12.0,3.0,0.185
4.0,7.0,0.186
-1.0,6.0,0.187
0.0,5.0,0.188
0.0,8.0,0.189
-7.0,10.0,0.19
-13.0,7.0,0.191
-9.0,3.0,0.192
-3.0,2.0,0.193
-1.0,2.0,0.194
-1.0,-1.0,0.195
3.0,-4.0,0.196
11.0,-1.0,0.197
14.0,0.0,0.198
11.0,-2.0,0.199
8.0,-4.0,0.2
6.0,-4.0,0.201
5.0,-3.0,0.202
7.0,-1.0,0.203
9.0,0.0,0.204
7.0,2.0,0.205
4.0,5.0,0.206
-1.0,5.0,0.207
-6.0,5.0,0.208
-7.0,2.0,0.209
-8.0,0.0,0.21
-8.0,0.0,0.211
-8.0,-1.0,0.212
-6.0,-2.0,0.213
-3.0,-4.0,0.214
2.0,-4.0,0.215
8.0,-4.0,0.216
12.0,-4.0,0.217
13.0,-4.0,0.218
9.0,-6.0,0.219
6.0,-5.0,0.22
7.0,-5.0,0.221
7.0,-4.0,0.222
9.0,-3.0,0.223
12.0,0.0,0.224
10.0,4.0,0.225
0.0,6.0,0.226
-6.0,2.0,0.227
-5.0,0.0,0.228
-3.0,3.0,0.229
-5.0,9.0,0.23
-9.0,9.0,0.231
-7.0,4.0,0.232
-4.0,0.0,0.233
-3.0,0.0,0.234
-1.0,-1.0,0.235
5.0,-6.0,0.236
9.0,-8.0,0.237
9.0,-7.0,0.238
10.0,-6.0,0.239
10.0,-9.0,0.24
7.0,-13.0,0.241
5.0,-11.0,0.242
5.0,-6.0,0.243
5.0,-3.0,0.244
6.0,0.0,0.245
5.0,2.0,0.246
0.0,0.0,0.247
-6.0,-1.0,0.248
-5.0,0.0,0.249
-4.0,4.0,0.25
-6.0,7.0,0.251
-8.0,4.0,0.252
-5.0,0.0,0.253
-1.0,0.0,0.254
4.0,-1.0,0.255
8.0,-4.0,0.256
9.0,-6.0,0.257
10.0,1.0,0.258
10.0,-1.0,0.259
6.0,-4.0,0.26
1.0,-7.0,0.261
1.0,-9.0,0.262
8.0,-1.0,0.263
14.0,5.0,0.264
9.0,8.0,0.265
-3.0,11.0,0.266
-8.0,9.0,0.267
-4.0,8.0,0.268
0.0,6.0,0.269
-2.0,5.0,0.27
-7.0,5.0,0.271
-5.0,5.0,0.272
-4.0,2.0,0.273
-4.0,1.0,0.274
-2.0,2.0,0.275
2.0,2.0,0.276
7.0,-4.0,0.277
7.0,1.0,0.278
5.0,0.0,0.279
3.0,-2.0,0.28
3.0,-4.0,0.281
3.0,-5.0,0.282
8.0,0.0,0.283
12.0,4.0,0.284
10.0,6.0,0.285
8.0,8.0,0.286
4.0,7.0,0.287
0.0,6.0,0.288
-1.0,5.0,0.289
-3.0,4.0,0.29
-4.0,4.0,0.291
-5.0,4.0,0.292
-1.0,2.0,0.293
3.0,1.0,0.294
7.0,2.0,0.295
10.0,2.0,0.296
11.0,-2.0,0.297
11.0,-7.0,0.298
10.0,-8.0,0.299
10.0,-5.0,0.3
9.0,-8.0,0.301
2.0,-11.0,0.302
1.0,-11.0,0.303
7.0,-7.0,0.304
8.0,0.0,0.305
1.0,3.0,0.306
-4.0,1.0,0.307
-2.0,-1.0,0.308
-2.0,0.0,0.309
-9.0,2.0,0.31
-12.0,1.0,0.311
-8.0,-2.0,0.312
-5.0,-4.0,0.313
-5.0,-4.0,0.314
-3.0,-3.0,0.315
5.0,-3.0,0.316
9.0,-7.0,0.317
6.0,-8.0,0.318
4.0,-8.0,0.319
2.0,-5.0,0.32
1.0,-7.0,0.321
0.0,-8.0,0.322
2.0,-7.0,0.323
3.0,-3.0,0.324
1.0,3.0,0.325
0.0,7.0,0.326
-1.0,8.0,0.327
-3.0,6.0,0.328
-5.0,4.0,0.329
-7.0,4.0,0.33
-8.0,7.0,0.331
-8.0,8.0,0.332
-5.0,5.0,0.333
-2.0,0.0,0.334
1.0,-2.0,0.335
5.0,-4.0,0.336
10.0,-5.0,0.337
14.0,-6.0,0.338
12.0,-7.0,0.339
9.0,-8.0,0.34
10.0,-11.0,0.341
9.0,-11.0,0.342
8.0,-7.0,0.343
11.0,-1.0,0.344
10.0,3.0,0.345
4.0,6.0,0.346
-4.0,6.0,0.347
-3.0,3.0,0.348
-2.0,0.0,0.349
-5.0,2.0,0.35
-8.0,3.0,0.351
-5.0,3.0,0.352
1.0,0.0,0.353
6.0,0.0,0.354
4.0,0.0,0.355
3.0,-3.0,0.356
7.0,-3.0,0.357
10.0,-2.0,0.358
8.0,0.0,0.359
4.0,0.0,0.36
4.0,-3.0,0.361
6.0,-5.0,0.362
8.0,-2.0,0.363
7.0,0.0,0.364
4.0,2.0,0.365
-1.0,5.0,0.366
-2.0,4.0,0.367
-2.0,3.0,0.368
-5.0,5.0,0.369
-9.0,6.0,0.37
-9.0,4.0,0.371
-2.0,2.0,0.372
2.0,0.0,0.373
2.0,-3.0,0.374
2.0,-2.0,0.375
6.0,-1.0,0.376
10.0,-4.0,0.377
11.0,-7.0,0.378
13.0,-9.0,0.379
14.0,-10.0,0.38
10.0,-11.0,0.381
3.0,-8.0,0.382
3.0,-3.0,0.383
8.0,-2.0,0.384
8.0,1.0,0.385
1.0,4.0,0.386
-3.0,5.0,0.387
-1.0,3.0,0.388
0.0,3.0,0.389
-5.0,6.0,0.39
-10.0,8.0,0.391
-6.0,2.0,0.392
-1.0,-1.0,0.393
0.0,0.0,0.394
-2.0,2.0,0.395
0.0,0.0,0.396
6.0,-2.0,0.397
9.0,-3.0,0.398
7.0,-3.0,0.399
5.0,-6.0,0.4
3.0,-9.0,0.401
3.0,-8.0,0.402
9.0,-5.0,0.403
14.0,-1.0,0.404
10.0,1.0,0.405
5.0,2.0,0.406
0.0,2.0,0.407
-5.0,1.0,0.408
-5.0,3.0,0.409
-6.0,7.0,0.41
-6.0,7.0,0.411
-6.0,1.0,0.412
-4.0,-1.0,0.413
-1.0,2.0,0.414
0.0,4.0,0.415
4.0,0.0,0.416
10.0,-3.0,0.417
13.0,-2.0,0.418
11.0,0.0,0.419
5.0,-1.0,0.42
2.0,-8.0,0.421
3.0,-9.0,0.422
8.0,-5.0,0.423
15.0,-1.0,0.424
13.0,2.0,0.425
4.0,3.0,0.426
-3.0,3.0,0.427
-3.0,4.0,0.428
-3.0,4.0,0.429
-5.0,6.0,0.43
-9.0,6.0,0.431
-8.0,4.0,0.432
-1.0,2.0,0.433
1.0,1.0,0.434
0.0,-1.0,0.435
-1.0,-3.0,0.436
2.0,-1.0,0.437
8.0,-3.0,0.438
7.0,-7.0,0.439
2.0,-8.0,0.44
0.0,-9.0,0.441
2.0,-5.0,0.442
8.0,-2.0,0.443
12.0,-1.0,0.444
11.0,3.0,0.445
4.0,8.0,0.446
-1.0,8.0,0.447
-2.0,6.0,0.448
-2.0,2.0,0.449
-4.0,2.0,0.45
-6.0,2.0,0.451
-5.0,2.0,0.452
-2.0,2.0,0.453
-1.0,1.0,0.454
-1.0,0.0,0.455
3.0,-2.0,0.456
8.0,-1.0,0.457
10.0,-3.0,0.458
9.0,-6.0,0.459
6.0,-9.0,0.46
3.0,-12.0,0.461
3.0,-10.0,0.462
9.0,-7.0,0.463
15.0,-3.0,0.464
10.0,2.0,0.465
-2.0,7.0,0.466
-7.0,5.0,0.467
-3.0,0.0,0.468
0.0,0.0,0.469
-5.0,5.0,0.47
-11.0,5.0,0.471
-7.0,3.0,0.472
-1.0,0.0,0.473
0.0,-2.0,0.474
0.0,-3.0,0.475
4.0,-2.0,0.476
10.0,-1.0,0.477
12.0,-3.0,0.478
11.0,-8.0,0.479
10.0,-12.0,0.48
8.0,-11.0,0.481
7.0,-6.0,0.482
11.0,-3.0,0.483
13.0,-2.0,0.484
9.0,2.0,0.485
5.0,7.0,0.486
1.0,7.0,0.487
-2.0,4.0,0.488
-3.0,2.0,0.489
-5.0,2.0,0.49
-10.0,1.0,0.491
-13.0,2.0,0.492
-7.0,4.0,0.493
-2.0,2.0,0.494
1.0,-3.0,0.495
4.0,-6.0,0.496
6.0,-4.0,0.497
7.0,-1.0,0.498
11.0,-3.0,0.499
10.0,-5.0,0.5
10.0,-7.0,0.501
5.0,-8.0,0.502
7.0,-4.0,0.503
14.0,0.0,0.504
14.0,2.0,0.505
4.0,4.0,0.506
-4.0,3.0,0.507
-3.0,2.0,0.508
0.0,5.0,0.509
-2.0,7.0,0.51
-8.0,5.0,0.511
-9.0,3.0,0.512
-5.0,1.0,0.513
-3.0,0.0,0.514
0.0,-4.0,0.515
2.0,-6.0,0.516
6.0,-4.0,0.517
10.0,-1.0,0.518
6.0,-3.0,0.519
3.0,-5.0,0.52
3.0,-7.0,0.521
4.0,-8.0,0.522
9.0,-4.0,0.523
12.0,0.0,0.524
11.0,2.0,0.525
8.0,4.0,0.526
0.0,3.0,0.527
-7.0,2.0,0.528
-8.0,5.0,0.529
-9.0,7.0,0.53
-10.0,5.0,0.531
-9.0,3.0,0.532
-2.0,1.0,0.533
2.0,0.0,0.534
3.0,-4.0,0.535
5.0,-6.0,0.536
8.0,-4.0,0.537
7.0,-2.0,0.538
5.0,-6.0,0.539
2.0,-10.0,0.54
2.0,-10.0,0.541
3.0,-7.0,0.542
7.0,-4.0,0.543
9.0,-2.0,0.544
8.0,1.0,0.545
6.0,4.0,0.546
1.0,6.0,0.547
-5.0,4.0,0.548
-5.0,5.0,0.549
-6.0,7.0,0.55
-7.0,7.0,0.551
-6.0,4.0,0.552
-1.0,3.0,0.553
1.0,2.0,0.554
2.0,1.0,0.555
4.0,-2.0,0.556
6.0,-2.0,0.557
9.0,-3.0,0.558
6.0,-2.0,0.559
3.0,-4.0,0.56
3.0,-8.0,0.561
4.0,-7.0,0.562
8.0,-2.0,0.563
11.0,2.0,0.564
10.0,4.0,0.565
7.0,4.0,0.566
0.0,5.0,0.567
-6.0,3.0,0.568
-7.0,2.0,0.569
-8.0,1.0,0.57
-9.0,2.0,0.571
-8.0,0.0,0.572
-2.0,0.0,0.573
2.0,1.0,0.574
3.0,0.0,0.575
5.0,-3.0,0.576
7.0,-5.0,0.577
9.0,-3.0,0.578
13.0,-3.0,0.579
10.0,-4.0,0.58
5.0,-7.0,0.581
1.0,-8.0,0.582
5.0,-3.0,0.583
12.0,0.0,0.584
9.0,1.0,0.585
0.0,2.0,0.586
-9.0,2.0,0.587
-7.0,3.0,0.588
-5.0,3.0,0.589
-8.0,4.0,0.59
-12.0,4.0,0.591
-8.0,2.0,0.592
0.0,0.0,0.593
5.0,-1.0,0.594
6.0,-1.0,0.595
8.0,-1.0,0.596
12.0,-3.0,0.597
14.0,-4.0,0.598
9.0,-4.0,0.599
4.0,-5.0,0.6
2.0,-9.0,0.601
2.0,-10.0,0.602
6.0,-4.0,0.603
8.0,1.0,0.604
4.0,2.0,0.605
0.0,3.0,0.606
-1.0,3.0,0.607
-3.0,4.0,0.608
-4.0,4.0,0.609
-6.0,5.0,0.61
-7.0,5.0,0.611
-8.0,3.0,0.612
-4.0,0.0,0.613
0.0,-2.0,0.614
4.0,-2.0,0.615
7.0,-2.0,0.616
11.0,-4.0,0.617
14.0,-7.0,0.618
13.0,-8.0,0.619
9.0,-8.0,0.62
5.0,-9.0,0.621
3.0,-6.0,0.622
7.0,-2.0,0.623
10.0,-1.0,0.624
6.0,1.0,0.625
-3.0,6.0,0.626
-9.0,8.0,0.627
-7.0,7.0,0.628
-5.0,4.0,0.629
-5.0,4.0,0.63
-5.0,4.0,0.631
-2.0,2.0,0.632
0.0,0.0,0.633
2.0,-2.0,0.634
3.0,-3.0,0.635
8.0,-3.0,0.636
14.0,-2.0,0.637
13.0,-4.0,0.638
9.0,-6.0,0.639
4.0,-8.0,0.64
2.0,-8.0,0.641
1.0,-4.0,0.642
9.0,-2.0,0.643
14.0,0.0,0.644
8.0,2.0,0.645
3.0,5.0,0.646
0.0,6.0,0.647
-3.0,4.0,0.648
-7.0,1.0,0.649
-11.0,0.0,0.65
-10.0,2.0,0.651
-9.0,3.0,0.652
-7.0,2.0,0.653
-5.0,-2.0,0.654
0.0,-6.0,0.655
4.0,-6.0,0.656
6.0,-1.0,0.657
8.0,-1.0,0.658
10.0,-4.0,0.659
10.0,-7.0,0.66
5.0,-9.0,0.661
3.0,-6.0,0.662
7.0,-4.0,0.663
12.0,-2.0,0.664
9.0,3.0,0.665
1.0,7.0,0.666
-2.0,8.0,0.667
-3.0,7.0,0.668
-6.0,7.0,0.669
-12.0,7.0,0.67
-13.0,3.0,0.671
-9.0,-2.0,0.672
-4.0,-5.0,0.673
0.0,-4.0,0.674
1.0,-1.0,0.675
5.0,0.0,0.676
8.0,0.0,0.677
10.0,-2.0,0.678
10.0,-4.0,0.679
10.0,-5.0,0.68
4.0,-9.0,0.681
3.0,-9.0,0.682
7.0,-7.0,0.683
11.0,-1.0,0.684
9.0,7.0,0.685
0.0,11.0,0.686
-4.0,11.0,0.687
-4.0,6.0,0.688
-6.0,4.0,0.689
-11.0,4.0,0.69
-12.0,3.0,0.691
-7.0,-1.0,0.692
-1.0,-5.0,0.693
3.0,-5.0,0.694
7.0,-3.0,0.695
8.0,-2.0,0.696
9.0,-3.0,0.697
9.0,-8.0,0.698
9.0,-9.0,0.699
5.0,-7.0,0.7
-2.0,-7.0,0.701
-8.0,-5.0,0.702
0.0,-3.0,0.703
15.0,0.0,0.704
21.0,3.0,0.705
14.0,6.0,0.706
1.0,4.0,0.707
-1.0,0.0,0.708
0.0,0.0,0.709
0.0,7.0,0.71
-2.0,9.0,0.711
-1.0,3.0,0.712
3.0,-2.0,0.713
5.0,-1.0,0.714
3.0,1.0,0.715
3.0,0.0,0.716
9.0,-4.0,0.717
11.0,-6.0,0.718
9.0,-3.0,0.719
6.0,-6.0,0.72
0.0,-12.0,0.721
-3.0,-12.0,0.722
2.0,-6.0,0.723
6.0,-1.0,0.724
4.0,0.0,0.725
1.0,2.0,0.726
0.0,4.0,0.727
-2.0,5.0,0.728
-2.0,5.0,0.729
-3.0,6.0,0.73
-5.0,7.0,0.731
-7.0,4.0,0.732
-6.0,0.0,0.733
-5.0,-1.0,0.734
-3.0,-3.0,0.735
-2.0,-6.0,0.736
-3.0,-6.0,0.737
-3.0,-6.0,0.738
-1.0,-8.0,0.739
5.0,-9.0,0.74
10.0,-9.0,0.741
10.0,-2.0,0.742
13.0,1.0,0.743
19.0,-2.0,0.744
21.0,-3.0,0.745
16.0,2.0,0.746
6.0,9.0,0.747
3.0,6.0,0.748
1.0,0.0,0.749
-5.0,0.0,0.75
-10.0,5.0,0.751
-8.0,8.0,0.752
-3.0,5.0,0.753
-1.0,1.0,0.754
-2.0,1.0,0.755
1.0,-3.0,0.756
8.0,-4.0,0.757
9.0,-2.0,0.758
7.0,3.0,0.759
4.0,3.0,0.76
1.0,-5.0,0.761
-1.0,-7.0,0.762
1.0,-3.0,0.763
4.0,0.0,0.764
3.0,2.0,0.765
1.0,1.0,0.766
-3.0,4.0,0.767
-7.0,4.0,0.768
-9.0,3.0,0.769
-11.0,4.0,0.77
-9.0,7.0,0.771
-7.0,4.0,0.772
-4.0,-2.0,0.773
0.0,-6.0,0.774
3.0,-7.0,0.775
6.0,-8.0,0.776
8.0,-7.0,0.777
10.0,-8.0,0.778
9.0,-7.0,0.779
11.0,-7.0,0.78
10.0,-10.0,0.781
3.0,-10.0,0.782
2.0,-6.0,0.783
9.0,-2.0,0.784
9.0,0.0,0.785
0.0,2.0,0.786
-5.0,0.0,0.787
-2.0,0.0,0.788
1.0,-1.0,0.789
-2.0,0.0,0.79
-5.0,-1.0,0.791
-1.0,-3.0,0.792
2.0,-2.0,0.793
2.0,0.0,0.794
3.0,-3.0,0.795
8.0,-5.0,0.796
11.0,-4.0,0.797
9.0,-2.0,0.798
8.0,-3.0,0.799
6.0,-7.0,0.8
0.0,-8.0,0.801
-2.0,-5.0,0.802
3.0,1.0,0.803
8.0,3.0,0.804
4.0,7.0,0.805
0.0,11.0,0.806
-3.0,12.0,0.807
-6.0,7.0,0.808
-8.0,6.0,0.809
-9.0,9.0,0.81
-6.0,10.0,0.811
-3.0,4.0,0.812
1.0,0.0,0.813
4.0,1.0,0.814
5.0,3.0,0.815
8.0,0.0,0.816
13.0,-2.0,0.817
18.0,-2.0,0.818
16.0,-4.0,0.819
14.0,-8.0,0.82
12.0,-10.0,0.821
12.0,-4.0,0.822
11.0,0.0,0.823
12.0,0.0,0.824
9.0,2.0,0.825
3.0,8.0,0.826
-2.0,10.0,0.827
-2.0,5.0,0.828
1.0,0.0,0.829
-1.0,1.0,0.83
-5.0,1.0,0.831
-6.0,0.0,0.832
-1.0,-1.0,0.833
5.0,2.0,0.834
7.0,3.0,0.835
6.0,-1.0,0.836
9.0,-6.0,0.837
9.0,-7.0,0.838
8.0,-6.0,0.839
6.0,-6.0,0.84
1.0,-10.0,0.841
-2.0,-12.0,0.842
2.0,-7.0,0.843
5.0,-3.0,0.844
0.0,-1.0,0.845
-6.0,0.0,0.846
-10.0,-1.0,0.847
-13.0,-2.0,0.848
-13.0,2.0,0.849
-14.0,4.0,0.85
-14.0,2.0,0.851
-14.0,1.0,0.852
-9.0,1.0,0.853
-4.0,1.0,0.854
-1.0,-3.0,0.855
2.0,-6.0,0.856
6.0,-6.0,0.857
10.0,-6.0,0.858
12.0,-3.0,0.859
8.0,-4.0,0.86
3.0,-8.0,0.861
-2.0,-9.0,0.862
0.0,-4.0,0.863
6.0,2.0,0.864
10.0,5.0,0.865
5.0,6.0,0.866
-2.0,4.0,0.867
-3.0,4.0,0.868
-1.0,5.0,0.869
-2.0,7.0,0.87
-3.0,6.0,0.871
-1.0,4.0,0.872
5.0,2.0,0.873
11.0,0.0,0.874
9.0,-3.0,0.875
9.0,-6.0,0.876
13.0,-6.0,0.877
18.0,-4.0,0.878
16.0,-5.0,0.879
12.0,-7.0,0.88
2.0,-9.0,0.881
-4.0,-5.0,0.882
1.0,-3.0,0.883
6.0,0.0,0.884
5.0,2.0,0.885
3.0,5.0,0.886
-1.0,7.0,0.887
-4.0,5.0,0.888
-4.0,4.0,0.889
-5.0,2.0,0.89
-6.0,1.0,0.891
-6.0,2.0,0.892
-4.0,2.0,0.893
-2.0,0.0,0.894
1.0,-5.0,0.895
5.0,-9.0,0.896
9.0,-5.0,0.897
12.0,-2.0,0.898
11.0,-2.0,0.899
12.0,-3.0,0.9
11.0,-4.0,0.901
5.0,-6.0,0.902
3.0,-6.0,0.903
5.0,-3.0,0.904
4.0,2.0,0.905
-4.0,6.0,0.906
-10.0,4.0,0.907
-7.0,2.0,0.908
-4.0,4.0,0.909
-6.0,6.0,0.91
-10.0,5.0,0.911
-6.0,3.0,0.912
0.0,0.0,0.913
4.0,-2.0,0.914
7.0,-4.0,0.915
12.0,-7.0,0.916
16.0,-6.0,0.917
13.0,-4.0,0.918
11.0,0.0,0.919
10.0,1.0,0.92
9.0,-4.0,0.921
8.0,-7.0,0.922
8.0,-5.0,0.923
8.0,0.0,0.924
5.0,6.0,0.925
2.0,7.0,0.926
-3.0,5.0,0.927
-8.0,4.0,0.928
-8.0,4.0,0.929
-7.0,2.0,0.93
-8.0,-1.0,0.931
-9.0,-1.0,0.932
-5.0,1.0,0.933
0.0,0.0,0.934
1.0,-5.0,0.935
5.0,-9.0,0.936
12.0,-7.0,0.937
18.0,-5.0,0.938
11.0,-5.0,0.939
5.0,-5.0,0.94
4.0,-5.0,0.941
3.0,-5.0,0.942
4.0,-3.0,0.943
5.0,0.0,0.944
3.0,5.0,0.945
-1.0,9.0,0.946
-5.0,7.0,0.947
-4.0,6.0,0.948
-4.0,6.0,0.949
-8.0,5.0,0.95
-10.0,5.0,0.951
-4.0,4.0,0.952
4.0,0.0,0.953
7.0,-3.0,0.954
7.0,-4.0,0.955
8.0,-4.0,0.956
13.0,-2.0,0.957
11.0,-1.0,0.958
9.0,-3.0,0.959
6.0,-7.0,0.96
3.0,-12.0,0.961
1.0,-8.0,0.962
3.0,-2.0,0.963
5.0,0.0,0.964
3.0,1.0,0.965
1.0,5.0,0.966
-2.0,5.0,0.967
-5.0,1.0,0.968
-4.0,-1.0,0.969
-4.0,1.0,0.97
-8.0,4.0,0.971
-11.0,2.0,0.972
-7.0,0.0,0.973
-2.0,0.0,0.974
3.0,2.0,0.975
7.0,2.0,0.976
10.0,0.0,0.977
12.0,-5.0,0.978
6.0,-6.0,0.979
3.0,-7.0,0.98
4.0,-5.0,0.981
3.0,-2.0,0.982
2.0,2.0,0.983
4.0,5.0,0.984
9.0,6.0,0.985
3.0,6.0,0.986
-4.0,4.0,0.987
-6.0,3.0,0.988
-5.0,4.0,0.989
-5.0,5.0,0.99
-8.0,4.0,0.991
-4.0,3.0,0.992
4.0,2.0,0.993
8.0,0.0,0.994
5.0,-2.0,0.995
5.0,-5.0,0.996
9.0,-6.0,0.997
12.0,-6.0,0.998
10.0,-7.0,0.999
8.0,-8.0,1.0
6.0,-6.0,1.001
5.0,-2.0,1.002
5.0,2.0,1.003
4.0,6.0,1.004
2.0,7.0,1.005
0.0,7.0,1.006
-1.0,4.0,1.007
-4.0,3.0,1.008
-8.0,4.0,1.009
-12.0,6.0,1.01
-12.0,4.0,1.011
-10.0,3.0,1.012
-4.0,2.0,1.013
0.0,0.0,1.014
3.0,-2.0,1.015
6.0,-6.0,1.016
10.0,-7.0,1.017
14.0,-5.0,1.018
12.0,-6.0,1.019
8.0,-7.0,1.02
3.0,-5.0,1.021
1.0,-2.0,1.022
7.0,2.0,1.023
13.0,5.0,1.024
10.0,6.0,1.025
0.0,6.0,1.026
-5.0,4.0,1.027
-6.0,3.0,1.028
-6.0,4.0,1.029
-8.0,5.0,1.03
-6.0,4.0,1.031
0.0,3.0,1.032
3.0,2.0,1.033
4.0,0.0,1.034
3.0,-2.0,1.035
7.0,-5.0,1.036
10.0,-6.0,1.037
9.0,-8.0,1.038
11.0,-8.0,1.039
12.0,-6.0,1.04
8.0,-8.0,1.041
4.0,-6.0,1.042
4.0,-5.0,1.043
3.0,-2.0,1.044
1.0,2.0,1.045
-1.0,4.0,1.046
-4.0,4.0,1.047
-7.0,4.0,1.048
-9.0,3.0,1.049
-10.0,4.0,1.05
-8.0,4.0,1.051
-6.0,3.0,1.052
-2.0,0.0,1.053
1.0,-5.0,1.054
4.0,-6.0,1.055
7.0,-7.0,1.056
9.0,-3.0,1.057
11.0,0.0,1.058
8.0,3.0,1.059
8.0,0.0,1.06
7.0,-9.0,1.061
7.0,-9.0,1.062
8.0,-4.0,1.063
8.0,1.0,1.064
5.0,3.0,1.065
-1.0,5.0,1.066
-4.0,8.0,1.067
-5.0,7.0,1.068
-7.0,4.0,1.069
-10.0,0.0,1.07
-9.0,0.0,1.071
-4.0,0.0,1.072
0.0,0.0,1.073
5.0,0.0,1.074
10.0,0.0,1.075
12.0,-3.0,1.076
12.0,-6.0,1.077
10.0,-9.0,1.078
10.0,-10.0,1.079
8.0,-9.0,1.08
2.0,-11.0,1.081
-2.0,-9.0,1.082
1.0,-4.0,1.083
3.0,0.0,1.084
1.0,3.0,1.085
0.0,3.0,1.086
-2.0,4.0,1.087
-4.0,4.0,1.088
-6.0,3.0,1.089
-8.0,4.0,1.09
-9.0,4.0,1.091
-9.0,3.0,1.092
-2.0,-1.0,1.093
4.0,-2.0,1.094
4.0,-4.0,1.095
5.0,-4.0,1.096
9.0,-3.0,1.097
13.0,-3.0,1.098
10.0,-3.0,1.099
5.0,-5.0,1.1
7.0,-9.0,1.101
6.0,-11.0,1.102
4.0,-5.0,1.103
4.0,0.0,1.104
2.0,6.0,1.105
-4.0,10.0,1.106
-8.0,7.0,1.107
-3.0,4.0,1.108
0.0,4.0,1.109
-3.0,3.0,1.11
-9.0,1.0,1.111
-9.0,-1.0,1.112
-4.0,-1.0,1.113
0.0,-1.0,1.114
2.0,-2.0,1.115
8.0,-4.0,1.116
12.0,-2.0,1.117
9.0,-1.0,1.118
6.0,-3.0,1.119
3.0,-8.0,1.12
6.0,-9.0,1.121
9.0,-4.0,1.122
9.0,-2.0,1.123
8.0,-3.0,1.124
6.0,0.0,1.125
3.0,8.0,1.126
-2.0,9.0,1.127
-7.0,3.0,1.128
-7.0,-1.0,1.129
-7.0,0.0,1.13
-6.0,1.0,1.131
-4.0,-1.0,1.132
1.0,-4.0,1.133
6.0,-1.0,1.134
10.0,1.0,1.135
13.0,0.0,1.136
14.0,-2.0,1.137
15.0,-4.0,1.138
11.0,-6.0,1.139
9.0,-5.0,1.14
8.0,-6.0,1.141
4.0,-4.0,1.142
2.0,-1.0,1.143
4.0,3.0,1.144
4.0,7.0,1.145
-2.0,8.0,1.146
-6.0,7.0,1.147
-4.0,4.0,1.148
-4.0,2.0,1.149
-9.0,2.0,1.15
-13.0,0.0,1.151
-7.0,0.0,1.152
3.0,-1.0,1.153
6.0,-4.0,1.154
5.0,-7.0,1.155
3.0,-7.0,1.156
9.0,-3.0,1.157
11.0,0.0,1.158
9.0,-3.0,1.159
7.0,-8.0,1.16
4.0,-9.0,1.161
3.0,-5.0,1.162
8.0,-1.0,1.163
11.0,0.0,1.164
6.0,0.0,1.165
1.0,6.0,1.166
-4.0,10.0,1.167
-8.0,9.0,1.168
-8.0,6.0,1.169
-7.0,7.0,1.17
-7.0,6.0,1.171
-5.0,2.0,1.172
0.0,-1.0,1.173
4.0,-3.0,1.174
7.0,-4.0,1.175
10.0,-6.0,1.176
10.0,-6.0,1.177
9.0,-7.0,1.178
12.0,-5.0,1.179
12.0,-4.0,1.18
8.0,-7.0,1.181
0.0,-9.0,1.182
0.0,-3.0,1.183
6.0,1.0,1.184
8.0,1.0,1.185
2.0,0.0,1.186
-3.0,1.0,1.187
-2.0,3.0,1.188
0.0,4.0,1.189
-4.0,5.0,1.19
-7.0,4.0,1.191
-4.0,2.0,1.192
0.0,-2.0,1.193
0.0,-5.0,1.194
-1.0,-3.0,1.195
1.0,-1.0,1.196
9.0,-2.0,1.197
14.0,-3.0,1.198
13.0,-4.0,1.199
11.0,-7.0,1.2
5.0,-10.0,1.201
2.0,-7.0,1.202
8.0,-3.0,1.203
11.0,0.0,1.204
3.0,5.0,1.205
-3.0,10.0,1.206
-5.0,10.0,1.207
-8.0,6.0,1.208
-8.0,2.0,1.209
-8.0,3.0,1.21
-6.0,4.0,1.211
-3.0,2.0,1.212
0.0,-2.0,1.213
2.0,-3.0,1.214
4.0,-4.0,1.215
7.0,-7.0,1.216
9.0,-7.0,1.217
11.0,-5.0,1.218
10.0,-4.0,1.219
7.0,-5.0,1.22
5.0,-10.0,1.221
4.0,-6.0,1.222
8.0,0.0,1.223
10.0,2.0,1.224
8.0,4.0,1.225
0.0,8.0,1.226
-4.0,9.0,1.227
-4.0,7.0,1.228
-5.0,4.0,1.229
-9.0,7.0,1.23
-9.0,10.0,1.231
-4.0,7.0,1.232
-1.0,0.0,1.233
0.0,-4.0,1.234
2.0,-4.0,1.235
8.0,-3.0,1.236
11.0,-2.0,1.237
11.0,-1.0,1.238
10.0,-3.0,1.239
8.0,-6.0,1.24
6.0,-11.0,1.241
5.0,-8.0,1.242
7.0,0.0,1.243
9.0,3.0,1.244
4.0,1.0,1.245
0.0,1.0,1.246
-2.0,2.0,1.247
-5.0,2.0,1.248
-9.0,2.0,1.249
-11.0,2.0,1.25
-8.0,3.0,1.251
-5.0,2.0,1.252
-1.0,0.0,1.253
4.0,-1.0,1.254
8.0,-4.0,1.255
11.0,-7.0,1.256
12.0,-7.0,1.257
14.0,-8.0,1.258
11.0,-8.0,1.259
6.0,-8.0,1.26
1.0,-8.0,1.261
0.0,-5.0,1.262
5.0,-3.0,1.263
9.0,1.0,1.264
7.0,6.0,1.265
0.0,8.0,1.266
-4.0,7.0,1.267
-5.0,4.0,1.268
-7.0,2.0,1.269
-10.0,3.0,1.27
-8.0,4.0,1.271
-1.0,3.0,1.272
3.0,1.0,1.273
1.0,0.0,1.274
0.0,-2.0,1.275
7.0,-4.0,1.276
14.0,-1.0,1.277
12.0,-2.0,1.278
6.0,-5.0,1.279
2.0,-7.0,1.28
0.0,-9.0,1.281
-1.0,-7.0,1.282
2.0,-4.0,1.283
8.0,1.0,1.284
6.0,5.0,1.285
-3.0,5.0,1.286
-8.0,2.0,1.287
-5.0,-1.0,1.288
-5.0,0.0,1.289
-7.0,5.0,1.29
-7.0,6.0,1.291
-2.0,4.0,1.292
0.0,1.0,1.293
-1.0,0.0,1.294
2.0,-1.0,1.295
11.0,-5.0,1.296
18.0,-5.0,1.297
17.0,-4.0,1.298
12.0,-3.0,1.299
5.0,-4.0,1.3
-2.0,-9.0,1.301
-5.0,-10.0,1.302
0.0,-4.0,1.303
8.0,3.0,1.304
4.0,6.0,1.305
-5.0,2.0,1.306
-9.0,0.0,1.307
-5.0,-1.0,1.308
-3.0,-1.0,1.309
-5.0,0.0,1.31
-7.0,1.0,1.311
-2.0,0.0,1.312
3.0,-2.0,1.313
4.0,-5.0,1.314
4.0,-8.0,1.315
9.0,-7.0,1.316
15.0,-8.0,1.317
15.0,-9.0,1.318
12.0,-8.0,1.319
8.0,-6.0,1.32
5.0,-7.0,1.321
2.0,-7.0,1.322
2.0,-4.0,1.323
2.0,2.0,1.324
0.0,4.0,1.325
-1.0,3.0,1.326
-4.0,2.0,1.327
-7.0,3.0,1.328
-7.0,5.0,1.329
-6.0,7.0,1.33
-3.0,6.0,1.331
0.0,3.0,1.332
2.0,2.0,1.333
4.0,2.0,1.334
2.0,2.0,1.335
1.0,3.0,1.336
5.0,4.0,1.337
8.0,1.0,1.338
7.0,0.0,1.339
4.0,1.0,1.34
2.0,0.0,1.341
2.0,0.0,1.342
9.0,0.0,1.343
16.0,4.0,1.344
15.0,10.0,1.345
6.0,13.0,1.346
0.0,9.0,1.347
0.0,4.0,1.348
3.0,3.0,1.349
0.0,5.0,1.35
-5.0,7.0,1.351
-4.0,5.0,1.352
0.0,2.0,1.353
5.0,-1.0,1.354
9.0,-4.0,1.355
12.0,-7.0,1.356
14.0,-6.0,1.357
12.0,-8.0,1.358
10.0,-9.0,1.359
6.0,-9.0,1.36
1.0,-11.0,1.361
-2.0,-8.0,1.362
2.0,-6.0,1.363
9.0,-3.0,1.364
6.0,0.0,1.365
-4.0,3.0,1.366
-9.0,2.0,1.367
-5.0,-1.0,1.368
-3.0,-1.0,1.369
-7.0,1.0,1.37
-8.0,2.0,1.371
-1.0,-1.0,1.372
4.0,-3.0,1.373
2.0,-4.0,1.374
1.0,-4.0,1.375
7.0,-6.0,1.376
12.0,-4.0,1.377
13.0,-3.0,1.378
10.0,-4.0,1.379
7.0,-4.0,1.38
2.0,-8.0,1.381
-4.0,-8.0,1.382
-4.0,-5.0,1.383
0.0,-1.0,1.384
2.0,4.0,1.385
-4.0,8.0,1.386
-10.0,6.0,1.387
-8.0,4.0,1.388
-4.0,4.0,1.389
-5.0,6.0,1.39
-7.0,4.0,1.391
-4.0,1.0,1.392
-1.0,0.0,1.393
2.0,0.0,1.394
4.0,-1.0,1.395
7.0,-4.0,1.396
11.0,-5.0,1.397
9.0,-6.0,1.398
9.0,-6.0,1.399
8.0,-6.0,1.4
5.0,-8.0,1.401
3.0,-7.0,1.402
8.0,-5.0,1.403
10.0,0.0,1.404
2.0,3.0,1.405
-4.0,6.0,1.406
-5.0,7.0,1.407
-7.0,6.0,1.408
-6.0,2.0,1.409
-4.0,-1.0,1.41
-2.0,-3.0,1.411
0.0,-1.0,1.412
1.0,-1.0,1.413
2.0,-1.0,1.414
5.0,-3.0,1.415
8.0,-5.0,1.416
11.0,-4.0,1.417
14.0,-6.0,1.418
12.0,-6.0,1.419
9.0,-7.0,1.42
4.0,-7.0,1.421
2.0,-5.0,1.422
5.0,0.0,1.423
11.0,6.0,1.424
6.0,9.0,1.425
-4.0,9.0,1.426
-7.0,7.0,1.427
-3.0,7.0,1.428
-4.0,6.0,1.429
-8.0,4.0,1.43
-10.0,0.0,1.431
-2.0,-1.0,1.432
4.0,-1.0,1.433
5.0,-1.0,1.434
3.0,-4.0,1.435
4.0,-6.0,1.436
8.0,-3.0,1.437
9.0,-5.0,1.438
9.0,-5.0,1.439
9.0,-5.0,1.44
6.0,-7.0,1.441
3.0,-5.0,1.442
5.0,0.0,1.443
9.0,3.0,1.444
7.0,7.0,1.445
-2.0,9.0,1.446
-7.0,7.0,1.447
-5.0,3.0,1.448
-2.0,3.0,1.449
-4.0,5.0,1.45
-5.0,3.0,1.451
0.0,-1.0,1.452
3.0,-4.0,1.453
3.0,-3.0,1.454
5.0,-2.0,1.455
14.0,-7.0,1.456
21.0,-11.0,1.457
17.0,-11.0,1.458
9.0,-7.0,1.459
3.0,-4.0,1.46
-1.0,-5.0,1.461
-4.0,-6.0,1.462
-2.0,0.0,1.463
1.0,4.0,1.464
1.0,4.0,1.465
-6.0,3.0,1.466
-10.0,7.0,1.467
-9.0,9.0,1.468
-8.0,7.0,1.469
-12.0,4.0,1.47
-10.0,2.0,1.471
-1.0,0.0,1.472
4.0,-4.0,1.473
3.0,-6.0,1.474
3.0,-4.0,1.475
11.0,-2.0,1.476
18.0,-4.0,1.477
18.0,-7.0,1.478
15.0,-6.0,1.479
10.0,-2.0,1.48
4.0,-2.0,1.481
-1.0,-4.0,1.482
0.0,-4.0,1.483
2.0,-1.0,1.484
0.0,2.0,1.485
-1.0,3.0,1.486
-3.0,4.0,1.487
-6.0,7.0,1.488
-6.0,8.0,1.489
-5.0,6.0,1.49
-4.0,1.0,1.491
-2.0,-2.0,1.492
0.0,-1.0,1.493
2.0,0.0,1.494
6.0,-4.0,1.495
10.0,-6.0,1.496
12.0,-2.0,1.497
15.0,-2.0,1.498
11.0,-4.0,1.499
7.0,-6.0,1.5
4.0,-6.0,1.501
2.0,-4.0,1.502
4.0,-2.0,1.503
9.0,1.0,1.504
8.0,5.0,1.505
-2.0,7.0,1.506
-12.0,4.0,1.507
-13.0,2.0,1.508
-12.0,2.0,1.509
-8.0,2.0,1.51
-3.0,3.0,1.511
1.0,4.0,1.512
2.0,-1.0,1.513
1.0,-5.0,1.514
3.0,-4.0,1.515
8.0,-3.0,1.516
12.0,-3.0,1.517
13.0,-4.0,1.518
13.0,-5.0,1.519
11.0,-6.0,1.52
5.0,-7.0,1.521
1.0,-2.0,1.522
4.0,4.0,1.523
6.0,6.0,1.524
1.0,4.0,1.525
-3.0,4.0,1.526
-3.0,4.0,1.527
-3.0,4.0,1.528
-5.0,4.0,1.529
-8.0,5.0,1.53
-7.0,4.0,1.531
-5.0,2.0,1.532
0.0,0.0,1.533
5.0,-2.0,1.534
8.0,-3.0,1.535
11.0,-7.0,1.536
13.0,-6.0,1.537
15.0,-6.0,1.538
8.0,-2.0,1.539
3.0,1.0,1.54
1.0,-4.0,1.541
0.0,-7.0,1.542
1.0,-3.0,1.543
5.0,1.0,1.544
3.0,1.0,1.545
-3.0,2.0,1.546
-7.0,4.0,1.547
-7.0,6.0,1.548
-5.0,4.0,1.549
-6.0,2.0,1.55
-6.0,1.0,1.551
-1.0,0.0,1.552
4.0,0.0,1.553
5.0,-1.0,1.554
5.0,-3.0,1.555
10.0,-5.0,1.556
14.0,-5.0,1.557
11.0,-6.0,1.558
9.0,-2.0,1.559
7.0,1.0,1.56
4.0,-4.0,1.561
2.0,-7.0,1.562
2.0,-3.0,1.563
1.0,1.0,1.564
-1.0,1.0,1.565
-4.0,2.0,1.566
-4.0,4.0,1.567
-3.0,6.0,1.568
-4.0,4.0,1.569
-4.0,2.0,1.57
-2.0,1.0,1.571
0.0,0.0,1.572
5.0,0.0,1.573
9.0,-1.0,1.574
9.0,-3.0,1.575
10.0,-5.0,1.576
8.0,-5.0,1.577
8.0,-4.0,1.578
13.0,-4.0,1.579
13.0,-6.0,1.58
7.0,-7.0,1.581
4.0,-4.0,1.582
7.0,0.0,1.583
7.0,0.0,1.584
2.0,1.0,1.585
-3.0,6.0,1.586
-2.0,7.0,1.587
-1.0,4.0,1.588
-3.0,4.0,1.589
-6.0,8.0,1.59
-5.0,7.0,1.591
-2.0,2.0,1.592
1.0,-2.0,1.593
4.0,-2.0,1.594
8.0,-2.0,1.595
9.0,-5.0,1.596
11.0,-7.0,1.597
10.0,-7.0,1.598
8.0,-7.0,1.599
3.0,-6.0,1.6
-1.0,-7.0,1.601
-2.0,-6.0,1.602
0.0,-3.0,1.603
5.0,3.0,1.604
4.0,10.0,1.605
-2.0,12.0,1.606
-7.0,5.0,1.607
-6.0,-1.0,1.608
-6.0,0.0,1.609
-8.0,3.0,1.61
-8.0,1.0,1.611
-2.0,-2.0,1.612
4.0,-3.0,1.613
5.0,-4.0,1.614
5.0,-6.0,1.615
6.0,-7.0,1.616
11.0,-1.0,1.617
13.0,3.0,1.618
11.0,-1.0,1.619
7.0,-8.0,1.62
5.0,-11.0,1.621
2.0,-6.0,1.622
2.0,-1.0,1.623
4.0,0.0,1.624
1.0,2.0,1.625
-5.0,4.0,1.626
-8.0,6.0,1.627
-6.0,7.0,1.628
-5.0,7.0,1.629
-5.0,4.0,1.63
-3.0,2.0,1.631
0.0,0.0,1.632
1.0,-2.0,1.633
3.0,-3.0,1.634
7.0,-2.0,1.635
14.0,-1.0,1.636
17.0,0.0,1.637
15.0,-2.0,1.638
12.0,-3.0,1.639
6.0,-4.0,1.64
1.0,-4.0,1.641
-2.0,-4.0,1.642
1.0,-3.0,1.643
7.0,-1.0,1.644
7.0,1.0,1.645
0.0,4.0,1.646
-5.0,5.0,1.647
-6.0,5.0,1.648
-7.0,3.0,1.649
-7.0,1.0,1.65
-3.0,1.0,1.651
2.0,0.0,1.652
4.0,0.0,1.653
3.0,0.0,1.654
4.0,0.0,1.655
9.0,0.0,1.656
13.0,0.0,1.657
11.0,0.0,1.658
11.0,-1.0,1.659
7.0,-2.0,1.66
0.0,-5.0,1.661
-4.0,-3.0,1.662
-2.0,-2.0,1.663
3.0,0.0,1.664
4.0,2.0,1.665
0.0,5.0,1.666
-4.0,6.0,1.667
-4.0,4.0,1.668
-5.0,2.0,1.669
-6.0,1.0,1.67
-3.0,0.0,1.671
3.0,-2.0,1.672
4.0,-4.0,1.673
1.0,-3.0,1.674
2.0,-3.0,1.675
6.0,-5.0,1.676
10.0,-4.0,1.677
6.0,-3.0,1.678
4.0,-2.0,1.679
3.0,-4.0,1.68
1.0,-9.0,1.681
-1.0,-8.0,1.682
0.0,-4.0,1.683
5.0,-2.0,1.684
5.0,2.0,1.685
-1.0,9.0,1.686
-7.0,11.0,1.687
-7.0,5.0,1.688
-4.0,-1.0,1.689
-3.0,-2.0,1.69
-2.0,2.0,1.691
0.0,2.0,1.692
2.0,1.0,1.693
8.0,0.0,1.694
13.0,-1.0,1.695
16.0,-4.0,1.696
14.0,-7.0,1.697
12.0,0.0,1.698
14.0,-1.0,1.699
9.0,-3.0,1.7
0.0,-4.0,1.701
-3.0,-6.0,1.702
1.0,-3.0,1.703
7.0,0.0,1.704
2.0,4.0,1.705
-7.0,8.0,1.706
-10.0,6.0,1.707
-7.0,4.0,1.708
-6.0,1.0,1.709
-9.0,-1.0,1.71
-8.0,-1.0,1.711
-2.0,-1.0,1.712
3.0,-1.0,1.713
5.0,-2.0,1.714
9.0,-1.0,1.715
14.0,0.0,1.716
18.0,-1.0,1.717
17.0,-1.0,1.718
15.0,-2.0,1.719
12.0,-4.0,1.72
6.0,-6.0,1.721
2.0,-8.0,1.722
4.0,-4.0,1.723
5.0,1.0,1.724
0.0,6.0,1.725
-4.0,10.0,1.726
-6.0,8.0,1.727
-9.0,6.0,1.728
-9.0,2.0,1.729
-9.0,-2.0,1.73
-8.0,-2.0,1.731
-5.0,-2.0,1.732
1.0,-2.0,1.733
7.0,-3.0,1.734
7.0,-2.0,1.735
7.0,-1.0,1.736
11.0,-2.0,1.737
15.0,-3.0,1.738
15.0,-6.0,1.739
8.0,-6.0,1.74
-2.0,-5.0,1.741
-4.0,-3.0,1.742
0.0,-2.0,1.743
6.0,-1.0,1.744
4.0,2.0,1.745
-3.0,5.0,1.746
-6.0,4.0,1.747
-4.0,3.0,1.748
-3.0,6.0,1.749
-5.0,8.0,1.75
-7.0,4.0,1.751
-3.0,-1.0,1.752
0.0,-1.0,1.753
2.0,0.0,1.754
5.0,-1.0,1.755
8.0,-6.0,1.756
11.0,-4.0,1.757
12.0,-1.0,1.758
10.0,-1.0,1.759
6.0,-6.0,1.76
1.0,-7.0,1.761
0.0,-1.0,1.762
6.0,4.0,1.763
7.0,4.0,1.764
1.0,5.0,1.765
-6.0,6.0,1.766
-5.0,6.0,1.767
-1.0,1.0,1.768
-5.0,0.0,1.769
-10.0,2.0,1.77
-7.0,2.0,1.771
1.0,-2.0,1.772
6.0,-4.0,1.773
4.0,-2.0,1.774
5.0,-2.0,1.775
10.0,-4.0,1.776
13.0,-5.0,1.777
11.0,-5.0,1.778
10.0,-3.0,1.779
6.0,-2.0,1.78
0.0,-5.0,1.781
-3.0,-7.0,1.782
2.0,-4.0,1.783
7.0,0.0,1.784
2.0,3.0,1.785
-6.0,7.0,1.786
-8.0,4.0,1.787
-5.0,2.0,1.788
-6.0,3.0,1.789
-10.0,4.0,1.79
-10.0,4.0,1.791
-2.0,4.0,1.792
5.0,2.0,1.793
8.0,0.0,1.794
9.0,0.0,1.795
10.0,-3.0,1.796
11.0,-2.0,1.797
10.0,-6.0,1.798
10.0,-4.0,1.799
8.0,-3.0,1.8
3.0,-6.0,1.801
-1.0,-8.0,1.802
0.0,-5.0,1.803
2.0,-1.0,1.804
0.0,4.0,1.805
-1.0,8.0,1.806
-1.0,5.0,1.807
-2.0,3.0,1.808
-3.0,4.0,1.809
-4.0,5.0,1.81
-1.0,5.0,1.811
1.0,5.0,1.812
3.0,3.0,1.813
5.0,1.0,1.814
9.0,-1.0,1.815
12.0,-4.0,1.816
11.0,-3.0,1.817
10.0,-1.0,1.818
10.0,-1.0,1.819
7.0,0.0,1.82
0.0,-2.0,1.821
-3.0,-3.0,1.822
2.0,-4.0,1.823
10.0,-3.0,1.824
7.0,0.0,1.825
-2.0,4.0,1.826
-5.0,5.0,1.827
-3.0,3.0,1.828
-5.0,4.0,1.829
-10.0,5.0,1.83
-9.0,4.0,1.831
-1.0,0.0,1.832
5.0,-3.0,1.833
4.0,-4.0,1.834
6.0,-6.0,1.835
11.0,-8.0,1.836
15.0,-7.0,1.837
13.0,-6.0,1.838
7.0,-6.0,1.839
2.0,-6.0,1.84
-1.0,-9.0,1.841
-2.0,-9.0,1.842
-1.0,-7.0,1.843
2.0,-4.0,1.844
3.0,5.0,1.845
-1.0,10.0,1.846
-6.0,8.0,1.847
-9.0,3.0,1.848
-10.0,2.0,1.849
-12.0,5.0,1.85
-10.0,5.0,1.851
-3.0,0.0,1.852
3.0,-1.0,1.853
6.0,0.0,1.854
7.0,-1.0,1.855
8.0,-4.0,1.856
10.0,-4.0,1.857
11.0,-3.0,1.858
13.0,-3.0,1.859
8.0,-4.0,1.86
0.0,-2.0,1.861
-5.0,0.0,1.862
0.0,4.0,1.863
4.0,7.0,1.864
2.0,9.0,1.865
-5.0,12.0,1.866
-10.0,12.0,1.867
-7.0,11.0,1.868
-3.0,8.0,1.869
-3.0,5.0,1.87
-4.0,4.0,1.871
-2.0,2.0,1.872
1.0,0.0,1.873
5.0,-1.0,1.874
10.0,-1.0,1.875
14.0,0.0,1.876
18.0,-3.0,1.877
16.0,-6.0,1.878
13.0,-8.0,1.879
9.0,-7.0,1.88
4.0,-7.0,1.881
1.0,-2.0,1.882
7.0,1.0,1.883
11.0,3.0,1.884
7.0,4.0,1.885
3.0,3.0,1.886
0.0,0.0,1.887
-2.0,0.0,1.888
-1.0,1.0,1.889
0.0,1.0,1.89
2.0,0.0,1.891
4.0,-1.0,1.892
4.0,0.0,1.893
4.0,0.0,1.894
7.0,-3.0,1.895
10.0,-9.0,1.896
12.0,-10.0,1.897
13.0,-7.0,1.898
11.0,-3.0,1.899
7.0,-2.0,1.9
1.0,-5.0,1.901
-3.0,-7.0,1.902
-3.0,-7.0,1.903
1.0,-3.0,1.904
1.0,2.0,1.905
-7.0,6.0,1.906
-11.0,5.0,1.907
-9.0,2.0,1.908
-5.0,0.0,1.909
-7.0,3.0,1.91
-10.0,4.0,1.911
-9.0,0.0,1.912
-4.0,-6.0,1.913
-1.0,-8.0,1.914
4.0,-5.0,1.915
9.0,-1.0,1.916
13.0,-1.0,1.917
15.0,-6.0,1.918
11.0,-9.0,1.919
4.0,-8.0,1.92
-3.0,-7.0,1.921
-5.0,-7.0,1.922
-2.0,-6.0,1.923
1.0,-1.0,1.924
0.0,7.0,1.925
-4.0,12.0,1.926
-5.0,8.0,1.927
-3.0,4.0,1.928
-4.0,4.0,1.929
-7.0,6.0,1.93
-5.0,3.0,1.931
2.0,-1.0,1.932
9.0,-2.0,1.933
11.0,-1.0,1.934
11.0,-2.0,1.935
13.0,-4.0,1.936
15.0,-4.0,1.937
12.0,-4.0,1.938
9.0,-4.0,1.939
3.0,-5.0,1.94
-3.0,-4.0,1.941
-4.0,-2.0,1.942
-2.0,0.0,1.943
2.0,3.0,1.944
1.0,1.0,1.945
-2.0,0.0,1.946
-5.0,3.0,1.947
-5.0,6.0,1.948
-6.0,6.0,1.949
-8.0,5.0,1.95
-6.0,2.0,1.951
0.0,-1.0,1.952
5.0,-1.0,1.953
8.0,-1.0,1.954
10.0,-1.0,1.955
13.0,-1.0,1.956
16.0,-1.0,1.957
14.0,-2.0,1.958
12.0,-4.0,1.959
10.0,-4.0,1.96
4.0,-3.0,1.961
0.0,0.0,1.962
1.0,1.0,1.963
2.0,0.0,1.964
-1.0,0.0,1.965
-4.0,7.0,1.966
-4.0,9.0,1.967
-4.0,6.0,1.968
-4.0,1.0,1.969
-3.0,0.0,1.97
-3.0,-2.0,1.971
-1.0,-2.0,1.972
2.0,-2.0,1.973
6.0,-2.0,1.974
10.0,-5.0,1.975
13.0,-8.0,1.976
14.0,-6.0,1.977
16.0,-3.0,1.978
16.0,-2.0,1.979
12.0,-6.0,1.98
4.0,-8.0,1.981
0.0,-3.0,1.982
4.0,1.0,1.983
7.0,2.0,1.984
3.0,3.0,1.985
-5.0,6.0,1.986
-11.0,6.0,1.987
-11.0,2.0,1.988
-10.0,0.0,1.989
-9.0,3.0,1.99
-5.0,5.0,1.991
1.0,1.0,1.992
4.0,-5.0,1.993
5.0,-4.0,1.994
7.0,-2.0,1.995
10.0,-3.0,1.996
13.0,-4.0,1.997
15.0,-5.0,1.998
15.0,-5.0,1.999
9.0,-5.0,2.0
1.0,-9.0,2.001
-4.0,-8.0,2.002
-1.0,-4.0,2.003
3.0,0.0,2.004
1.0,5.0,2.005
-6.0,7.0,2.006
-11.0,2.0,2.007
-7.0,-2.0,2.008
-3.0,-2.0,2.009
-2.0,1.0,2.01
-3.0,2.0,2.011
-1.0,-4.0,2.012
1.0,-4.0,2.013
2.0,0.0,2.014
5.0,2.0,2.015
11.0,-1.0,2.016
15.0,-4.0,2.017
13.0,-4.0,2.018
10.0,-3.0,2.019
3.0,-5.0,2.02
-1.0,-6.0,2.021
-3.0,-3.0,2.022
0.0,2.0,2.023
6.0,5.0,2.024
7.0,7.0,2.025
-1.0,9.0,2.026
-9.0,9.0,2.027
-10.0,5.0,2.028
-4.0,2.0,2.029
0.0,2.0,2.03
3.0,1.0,2.031
5.0,-4.0,2.032
4.0,-7.0,2.033
0.0,-4.0,2.034
0.0,-1.0,2.035
6.0,-2.0,2.036
14.0,-5.0,2.037
14.0,-8.0,2.038
11.0,-6.0,2.039
7.0,-3.0,2.04
1.0,-3.0,2.041
-3.0,0.0,2.042
-3.0,2.0,2.043
-2.0,3.0,2.044
-5.0,3.0,2.045
-8.0,3.0,2.046
-9.0,3.0,2.047
-9.0,3.0,2.048
-5.0,3.0,2.049
-2.0,4.0,2.05
-1.0,5.0,2.051
1.0,3.0,2.052
6.0,-3.0,2.053
10.0,-6.0,2.054
12.0,-5.0,2.055
14.0,-3.0,2.056
12.0,0.0,2.057
12.0,-2.0,2.058
13.0,-3.0,2.059
9.0,-2.0,2.06
2.0,-6.0,2.061
-1.0,-9.0,2.062
2.0,-7.0,2.063
6.0,-2.0,2.064
3.0,4.0,2.065
-5.0,7.0,2.066
-11.0,4.0,2.067
-12.0,0.0,2.068
-9.0,1.0,2.069
-3.0,2.0,2.07
1.0,1.0,2.071
3.0,-1.0,2.072
2.0,-2.0,2.073
0.0,-2.0,2.074
3.0,-2.0,2.075
11.0,-2.0,2.076
16.0,0.0,2.077
15.0,-1.0,2.078
10.0,-3.0,2.079
6.0,-5.0,2.08
2.0,-7.0,2.081
-2.0,-4.0,2.082
-1.0,0.0,2.083
2.0,4.0,2.084
6.0,7.0,2.085
2.0,9.0,2.086
-5.0,6.0,2.087
-7.0,2.0,2.088
-6.0,1.0,2.089
-5.0,4.0,2.09
-3.0,4.0,2.091
4.0,0.0,2.092
9.0,-3.0,2.093
10.0,-3.0,2.094
8.0,-4.0,2.095
10.0,-5.0,2.096
13.0,-4.0,2.097
11.0,-4.0,2.098
7.0,-4.0,2.099
0.0,-7.0,2.1
-3.0,-10.0,2.101
-3.0,-5.0,2.102
0.0,2.0,2.103
0.0,4.0,2.104
-3.0,3.0,2.105
-7.0,7.0,2.106
-6.0,8.0,2.107
-4.0,3.0,2.108
-4.0,-2.0,2.109
-4.0,-2.0,2.11
-1.0,1.0,2.111
2.0,-2.0,2.112
2.0,-5.0,2.113
1.0,-4.0,2.114
6.0,-1.0,2.115
14.0,-3.0,2.116
18.0,-7.0,2.117
15.0,-6.0,2.118
11.0,-1.0,2.119
5.0,0.0,2.12
0.0,-4.0,2.121
-3.0,-5.0,2.122
0.0,-1.0,2.123
4.0,3.0,2.124
3.0,6.0,2.125
-2.0,7.0,2.126
-5.0,7.0,2.127
-5.0,2.0,2.128
-5.0,1.0,2.129
-5.0,1.0,2.13
-2.0,1.0,2.131
3.0,0.0,2.132
7.0,-1.0,2.133
9.0,0.0,2.134
13.0,-1.0,2.135
15.0,-5.0,2.136
14.0,-4.0,2.137
11.0,-4.0,2.138
9.0,-3.0,2.139
7.0,-2.0,2.14
0.0,-1.0,2.141
-7.0,0.0,2.142
-6.0,0.0,2.143
-2.0,0.0,2.144
-1.0,3.0,2.145
-6.0,8.0,2.146
-8.0,9.0,2.147
-5.0,3.0,2.148
-4.0,1.0,2.149
-5.0,3.0,2.15
-6.0,4.0,2.151
-3.0,-1.0,2.152
0.0,-5.0,2.153
2.0,-6.0,2.154
3.0,-7.0,2.155
10.0,-9.0,2.156
15.0,-8.0,2.157
15.0,-6.0,2.158
13.0,-4.0,2.159
9.0,-4.0,2.16
2.0,-6.0,2.161
-2.0,-6.0,2.162
0.0,-4.0,2.163
7.0,0.0,2.164
5.0,5.0,2.165
-3.0,10.0,2.166
-7.0,10.0,2.167
-5.0,8.0,2.168
-3.0,6.0,2.169
-3.0,5.0,2.17
0.0,3.0,2.171
4.0,0.0,2.172
6.0,0.0,2.173
3.0,-3.0,2.174
6.0,-5.0,2.175
12.0,-5.0,2.176
16.0,-2.0,2.177
12.0,-3.0,2.178
11.0,-6.0,2.179
8.0,-6.0,2.18
0.0,-6.0,2.181
-6.0,-4.0,2.182
-3.0,-2.0,2.183
6.0,0.0,2.184
7.0,1.0,2.185
-3.0,1.0,2.186
-10.0,0.0,2.187
-5.0,0.0,2.188
-2.0,1.0,2.189
-3.0,0.0,2.19
-5.0,-3.0,2.191
0.0,-3.0,2.192
8.0,0.0,2.193
9.0,1.0,2.194
10.0,-1.0,2.195
12.0,-4.0,2.196
14.0,-4.0,2.197
11.0,-2.0,2.198
6.0,-3.0,2.199
0.0,-4.0,2.2
-6.0,-7.0,2.201
-7.0,-8.0,2.202
-2.0,-5.0,2.203
3.0,1.0,2.204
-1.0,9.0,2.205
-8.0,12.0,2.206
-12.0,10.0,2.207
-10.0,7.0,2.208
-7.0,7.0,2.209
-4.0,5.0,2.21
0.0,0.0,2.211
4.0,-3.0,2.212
3.0,-1.0,2.213
2.0,0.0,2.214
7.0,-3.0,2.215
14.0,-7.0,2.216
18.0,-7.0,2.217
16.0,-5.0,2.218
13.0,-4.0,2.219
8.0,-3.0,2.22
0.0,-4.0,2.221
-2.0,-3.0,2.222
3.0,0.0,2.223
8.0,2.0,2.224
2.0,4.0,2.225
-8.0,5.0,2.226
-11.0,7.0,2.227
-5.0,6.0,2.228
-3.0,6.0,2.229
-4.0,4.0,2.23
-3.0,2.0,2.231
4.0,-1.0,2.232
9.0,-3.0,2.233
10.0,-6.0,2.234
12.0,-5.0,2.235
16.0,-5.0,2.236
17.0,-2.0,2.237
12.0,-4.0,2.238
9.0,-7.0,2.239
7.0,-8.0,2.24
3.0,-8.0,2.241
-2.0,-3.0,2.242
-1.0,0.0,2.243
1.0,1.0,2.244
-2.0,5.0,2.245
-9.0,6.0,2.246
-11.0,4.0,2.247
-7.0,2.0,2.248
-5.0,5.0,2.249
-6.0,7.0,2.25
-3.0,4.0,2.251
3.0,-3.0,2.252
6.0,-5.0,2.253
7.0,-3.0,2.254
9.0,-4.0,2.255
12.0,-6.0,2.256
13.0,-4.0,2.257
10.0,-3.0,2.258
10.0,-2.0,2.259
7.0,-3.0,2.26
-1.0,-4.0,2.261
-8.0,-3.0,2.262
-6.0,0.0,2.263
1.0,2.0,2.264
0.0,4.0,2.265
-6.0,6.0,2.266
-6.0,5.0,2.267
-4.0,4.0,2.268
-5.0,2.0,2.269
-10.0,0.0,2.27
-9.0,-4.0,2.271
0.0,-3.0,2.272
7.0,-1.0,2.273
8.0,-1.0,2.274
9.0,-3.0,2.275
11.0,-3.0,2.276
13.0,-1.0,2.277
16.0,-4.0,2.278
15.0,-7.0,2.279
9.0,-7.0,2.28
2.0,-6.0,2.281
-1.0,-4.0,2.282
1.0,-4.0,2.283
5.0,0.0,2.284
3.0,6.0,2.285
-4.0,9.0,2.286
-5.0,6.0,2.287
-4.0,3.0,2.288
-5.0,2.0,2.289
-6.0,2.0,2.29
-3.0,0.0,2.291
3.0,-1.0,2.292
4.0,0.0,2.293
1.0,0.0,2.294
3.0,0.0,2.295
9.0,-3.0,2.296
13.0,-3.0,2.297
11.0,-3.0,2.298
10.0,-1.0,2.299
8.0,0.0,2.3
2.0,-2.0,2.301
-3.0,-4.0,2.302
0.0,-2.0,2.303
6.0,0.0,2.304
5.0,6.0,2.305
-3.0,10.0,2.306
-9.0,5.0,2.307
-9.0,1.0,2.308
-9.0,0.0,2.309
-8.0,-1.0,2.31
-4.0,-3.0,2.311
3.0,-5.0,2.312
7.0,-5.0,2.313
7.0,-4.0,2.314
7.0,-4.0,2.315
12.0,-3.0,2.316
17.0,-1.0,2.317
15.0,0.0,2.318
12.0,-2.0,2.319
7.0,-4.0,2.32
-1.0,-7.0,2.321
-7.0,-5.0,2.322
-2.0,-2.0,2.323
2.0,-1.0,2.324
1.0,1.0,2.325
-1.0,5.0,2.326
-5.0,9.0,2.327
-8.0,6.0,2.328
-6.0,3.0,2.329
-4.0,0.0,2.33
-1.0,-1.0,2.331
1.0,-3.0,2.332
4.0,-4.0,2.333
7.0,-4.0,2.334
7.0,-4.0,2.335
8.0,-3.0,2.336
12.0,-1.0,2.337
15.0,-2.0,2.338
10.0,-3.0,2.339
2.0,-3.0,2.34
-3.0,-5.0,2.341
-5.0,-4.0,2.342
-2.0,-2.0,2.343
1.0,0.0,2.344
0.0,3.0,2.345
-7.0,7.0,2.346
-12.0,6.0,2.347
-9.0,3.0,2.348
-3.0,2.0,2.349
-2.0,5.0,2.35
-4.0,5.0,2.351
-2.0,0.0,2.352
5.0,-6.0,2.353
10.0,-5.0,2.354
12.0,-2.0,2.355
11.0,-1.0,2.356
16.0,-1.0,2.357
17.0,-5.0,2.358
14.0,-7.0,2.359
6.0,-7.0,2.36
1.0,-6.0,2.361
1.0,-3.0,2.362
3.0,-3.0,2.363
3.0,-5.0,2.364
0.0,-5.0,2.365
-7.0,-3.0,2.366
-11.0,0.0,2.367
-7.0,-1.0,2.368
-4.0,0.0,2.369
-6.0,1.0,2.37
-8.0,-2.0,2.371
-2.0,-6.0,2.372
7.0,-8.0,2.373
12.0,-8.0,2.374
9.0,-6.0,2.375
9.0,-5.0,2.376
12.0,-2.0,2.377
14.0,0.0,2.378
10.0,-1.0,2.379
4.0,-2.0,2.38
-1.0,-4.0,2.381
-1.0,-3.0,2.382
2.0,-2.0,2.383
4.0,0.0,2.384
-2.0,4.0,2.385
-12.0,7.0,2.386
-14.0,5.0,2.387
-7.0,2.0,2.388
-2.0,4.0,2.389
-5.0,7.0,2.39
-6.0,6.0,2.391
-1.0,1.0,2.392
6.0,0.0,2.393
8.0,0.0,2.394
5.0,1.0,2.395
10.0,0.0,2.396
18.0,2.0,2.397
17.0,2.0,2.398
12.0,0.0,2.399
4.0,-3.0,2.4
2.0,-5.0,2.401
4.0,-3.0,2.402
8.0,0.0,2.403
12.0,3.0,2.404
9.0,6.0,2.405
0.0,9.0,2.406
-5.0,9.0,2.407
-5.0,6.0,2.408
-2.0,5.0,2.409
-1.0,7.0,2.41
0.0,6.0,2.411
3.0,0.0,2.412
5.0,-3.0,2.413
6.0,-2.0,2.414
8.0,-2.0,2.415
11.0,-3.0,2.416
13.0,-5.0,2.417
11.0,-8.0,2.418
7.0,-6.0,2.419
3.0,-4.0,2.42
0.0,-5.0,2.421
-3.0,-3.0,2.422
0.0,0.0,2.423
3.0,1.0,2.424
1.0,2.0,2.425
-6.0,5.0,2.426
-13.0,4.0,2.427
-11.0,1.0,2.428
-6.0,-2.0,2.429
-5.0,-1.0,2.43
-5.0,1.0,2.431
-5.0,0.0,2.432
-1.0,-3.0,2.433
5.0,-4.0,2.434
7.0,-5.0,2.435
5.0,-9.0,2.436
7.0,-10.0,2.437
9.0,-9.0,2.438
8.0,-7.0,2.439
0.0,-6.0,2.44
-9.0,-7.0,2.441
-10.0,-5.0,2.442
-2.0,-2.0,2.443
1.0,1.0,2.444
-3.0,3.0,2.445
-9.0,7.0,2.446
-10.0,9.0,2.447
-6.0,6.0,2.448
-3.0,1.0,2.449
-3.0,0.0,2.45
-1.0,1.0,2.451
3.0,0.0,2.452
8.0,-3.0,2.453
10.0,-4.0,2.454
13.0,-2.0,2.455
16.0,0.0,2.456
17.0,2.0,2.457
15.0,1.0,2.458
12.0,2.0,2.459
5.0,2.0,2.46
-1.0,-5.0,2.461
-5.0,-11.0,2.462
-4.0,-15.0,2.463
0.0,-14.0,2.464
1.0,-12.0,2.465
-1.0,-11.0,2.466
-3.0,-7.0,2.467
-3.0,-2.0,2.468
-3.0,3.0,2.469
-1.0,8.0,2.47
1.0,9.0,2.471
7.0,6.0,2.472
10.0,2.0,2.473
9.0,-1.0,2.474
8.0,-2.0,2.475
9.0,-2.0,2.476
11.0,-2.0,2.477
11.0,-2.0,2.478
10.0,-2.0,2.479
5.0,-2.0,2.48
-1.0,-1.0,2.481
-5.0,1.0,2.482
-4.0,2.0,2.483
1.0,-1.0,2.484
1.0,2.0,2.485
-4.0,9.0,2.486
-8.0,10.0,2.487
-6.0,7.0,2.488
-3.0,4.0,2.489
-3.0,7.0,2.49
0.0,9.0,2.491
6.0,7.0,2.492
7.0,6.0,2.493
6.0,8.0,2.494
10.0,14.0,2.495
15.0,22.0,2.496
19.0,26.0,2.497
15.0,12.0,2.498
12.0,-19.0,2.499
7.0,-50.0,2.5
0.0,-63.0,2.501
-4.0,-49.0,2.502
-2.0,-29.0,2.503
4.0,-14.0,2.504
2.0,-2.0,2.505
-5.0,9.0,2.506
-10.0,17.0,2.507
-6.0,17.0,2.508
-4.0,18.0,2.509
-6.0,25.0,2.51
-7.0,29.0,2.511
-3.0,20.0,2.512
4.0,6.0,2.513
7.0,1.0,2.514
11.0,3.0,2.515
13.0,8.0,2.516
14.0,14.0,2.517
8.0,20.0,2.518
2.0,26.0,2.519
-3.0,28.0,2.52
-13.0,19.0,2.521
-21.0,5.0,2.522
-19.0,-13.0,2.523
-3.0,-38.0,2.524
13.0,-58.0,2.525
14.0,-68.0,2.526
-1.0,-64.0,2.527
-13.0,-52.0,2.528
-11.0,-33.0,2.529
4.0,-12.0,2.53
17.0,9.0,2.531
19.0,34.0,2.532
14.0,63.0,2.533
10.0,87.0,2.534
13.0,89.0,2.535
15.0,68.0,2.536
13.0,44.0,2.537
5.0,17.0,2.538
0.0,-20.0,2.539
-2.0,-69.0,2.54
-2.0,-112.0,2.541
0.0,-120.0,2.542
3.0,-100.0,2.543
4.0,-76.0,2.544
0.0,-51.0,2.545
-5.0,-14.0,2.546
-4.0,34.0,2.547
2.0,76.0,2.548
5.0,101.0,2.549
6.0,114.0,2.55
11.0,117.0,2.551
18.0,102.0,2.552
21.0,65.0,2.553
22.0,18.0,2.554
21.0,-29.0,2.555
20.0,-75.0,2.556
16.0,-108.0,2.557
8.0,-122.0,2.558
3.0,-105.0,2.559
-1.0,-72.0,2.56
-4.0,-45.0,2.561
-5.0,-33.0,2.562
-4.0,-26.0,2.563
-2.0,-8.0,2.564
-5.0,20.0,2.565
-12.0,53.0,2.566
-18.0,71.0,2.567
-21.0,72.0,2.568
-27.0,61.0,2.569
-30.0,38.0,2.57
-26.0,3.0,2.571
-16.0,-37.0,2.572
-15.0,-60.0,2.573
-19.0,-46.0,2.574
-21.0,-1.0,2.575
-17.0,35.0,2.576
-8.0,39.0,2.577
-1.0,21.0,2.578
11.0,8.0,2.579
24.0,11.0,2.58
30.0,12.0,2.581
21.0,1.0,2.582
7.0,-13.0,2.583
-10.0,-20.0,2.584
-30.0,-14.0,2.585
-57.0,-8.0,2.586
-84.0,-7.0,2.587
-102.0,-12.0,2.588
-92.0,-13.0,2.589
-41.0,-10.0,2.59
32.0,-7.0,2.591
87.0,-5.0,2.592
106.0,1.0,2.593
114.0,25.0,2.594
145.0,67.0,2.595
176.0,119.0,2.596
170.0,176.0,2.597
118.0,238.0,2.598
60.0,299.0,2.599
22.0,328.0,2.6
0.0,290.0,2.601
-17.0,188.0,2.602
-30.0,57.0,2.603
-34.0,-52.0,2.604
-32.0,-142.0,2.605
-32.0,-248.0,2.606
-34.0,-379.0,2.607
-38.0,-474.0,2.608
-46.0,-472.0,2.609
-48.0,-392.0,2.61
-35.0,-311.0,2.611
-11.0,-269.0,2.612
6.0,-228.0,2.613
10.0,-135.0,2.614
8.0,8.0,2.615
9.0,175.0,2.616
7.0,325.0,2.617
-7.0,444.0,2.618
-25.0,501.0,2.619
-39.0,472.0,2.62
-46.0,351.0,2.621
-49.0,172.0,2.622
-36.0,-21.0,2.623
-10.0,-172.0,2.624
15.0,-246.0,2.625
20.0,-263.0,2.626
17.0,-279.0,2.627
14.0,-325.0,2.628
15.0,-374.0,2.629
17.0,-359.0,2.63
22.0,-232.0,2.631
30.0,-16.0,2.632
31.0,200.0,2.633
29.0,331.0,2.634
30.0,333.0,2.635
31.0,224.0,2.636
16.0,69.0,2.637
-28.0,-92.0,2.638
-73.0,-205.0,2.639
-94.0,-251.0,2.64
-89.0,-228.0,2.641
-70.0,-119.0,2.642
-46.0,89.0,2.643
-28.0,357.0,2.644
-32.0,583.0,2.645
-35.0,683.0,2.646
0.0,668.0,2.647
66.0,611.0,2.648
109.0,520.0,2.649
106.0,317.0,2.65
90.0,-25.0,2.651
92.0,-411.0,2.652
88.0,-714.0,2.653
59.0,-881.0,2.654
29.0,-908.0,2.655
26.0,-781.0,2.656
35.0,-544.0,2.657
19.0,-297.0,2.658
-11.0,-137.0,2.659
-31.0,4.0,2.66
-44.0,90.0,2.661
-65.0,180.0,2.662
-83.0,282.0,2.663
-77.0,386.0,2.664
-55.0,493.0,2.665
-38.0,603.0,2.666
-29.0,720.0,2.667
-19.0,809.0,2.668
-6.0,809.0,2.669
8.0,728.0,2.67
22.0,405.0,2.671
34.0,82.0,2.672
38.0,-236.0,2.673
32.0,-516.0,2.674
33.0,-677.0,2.675
38.0,-837.0,2.676
38.0,-991.0,2.677
27.0,-1138.0,2.678
21.0,-1177.0,2.679
19.0,-990.0,2.68
29.0,-632.0,2.681
37.0,-259.0,2.682
41.0,65.0,2.683
39.0,400.0,2.684
17.0,764.0,2.685
-1.0,1051.0,2.686
-12.0,1133.0,2.687
-22.0,987.0,2.688
-28.0,683.0,2.689
-31.0,328.0,2.69
-24.0,24.0,2.691
-18.0,-162.0,2.692
-15.0,-272.0,2.693
-11.0,-417.0,2.694
-5.0,-652.0,2.695
7.0,-901.0,2.696
36.0,-1034.0,2.697
62.0,-1002.0,2.698
75.0,-821.0,2.699
76.0,-555.0,2.7
61.0,-264.0,2.701
25.0,5.0,2.702
-7.0,214.0,2.703
-12.0,350.0,2.704
5.0,422.0,2.705
5.0,472.0,2.706
-46.0,571.0,2.707
-131.0,776.0,2.708
-186.0,1030.0,2.709
-162.0,1188.0,2.71
-90.0,1154.0,2.711
-48.0,958.0,2.712
-71.0,642.0,2.713
-104.0,171.0,2.714
-77.0,-419.0,2.715
10.0,-935.0,2.716
89.0,-1173.0,2.717
112.0,-1142.0,2.718
81.0,-948.0,2.719
21.0,-689.0,2.72
-39.0,-451.0,2.721
-75.0,-338.0,2.722
-61.0,-361.0,2.723
-11.0,-341.0,2.724
31.0,-102.0,2.725
41.0,310.0,2.726
37.0,690.0,2.727
51.0,889.0,2.728
76.0,833.0,2.729
90.0,460.0,2.73
98.0,-166.0,2.731
108.0,-775.0,2.732
108.0,-1039.0,2.733
82.0,-846.0,2.734
54.0,-345.0,2.735
44.0,199.0,2.736
30.0,560.0,2.737
-16.0,709.0,2.738
-70.0,732.0,2.739
-84.0,721.0,2.74
-63.0,602.0,2.741
-56.0,262.0,2.742
-79.0,-177.0,2.743
-89.0,-389.0,2.744
-68.0,-204.0,2.745
-37.0,239.0,2.746
-18.0,719.0,2.747
-9.0,1080.0,2.748
-5.0,1165.0,2.749
-8.0,903.0,2.75
-10.0,498.0,2.751
8.0,274.0,2.752
37.0,243.0,2.753
55.0,105.0,2.754
59.0,-288.0,2.755
67.0,-772.0,2.756
78.0,-1160.0,2.757
74.0,-1485.0,2.758
52.0,-1652.0,2.759
35.0,-1466.0,2.76
33.0,-935.0,2.761
29.0,-343.0,2.762
7.0,107.0,2.763
-26.0,487.0,2.764
-50.0,854.0,2.765
-51.0,1021.0,2.766
-32.0,815.0,2.767
-13.0,382.0,2.768
-18.0,45.0,2.769
-38.0,-73.0,2.77
-47.0,-112.0,2.771
-43.0,-232.0,2.772
-46.0,-428.0,2.773
-52.0,-577.0,2.774
-19.0,-531.0,2.775
65.0,-182.0,2.776
150.0,364.0,2.777
188.0,907.0,2.778
173.0,1196.0,2.779
131.0,1291.0,2.78
76.0,1433.0,2.781
13.0,1554.0,2.782
-35.0,1174.0,2.783
-64.0,6.0,2.784
-81.0,-1541.0,2.785
-90.0,-2695.0,2.786
-68.0,-3009.0,2.787
-16.0,-2592.0,2.788
18.0,-1844.0,2.789
-6.0,-1163.0,2.79
-65.0,-774.0,2.791
-115.0,-610.0,2.792
-149.0,-418.0,2.793
-173.0,-79.0,2.794
-153.0,265.0,2.795
-59.0,476.0,2.796
52.0,621.0,2.797
93.0,829.0,2.798
48.0,1056.0,2.799
-4.0,1182.0,2.8
3.0,1205.0,2.801
43.0,1199.0,2.802
61.0,1143.0,2.803
58.0,944.0,2.804
61.0,568.0,2.805
67.0,112.0,2.806
56.0,-230.0,2.807
39.0,-288.0,2.808
29.0,-87.0,2.809
18.0,132.0,2.81
0.0,174.0,2.811
-9.0,114.0,2.812
3.0,154.0,2.813
23.0,312.0,2.814
30.0,460.0,2.815
37.0,565.0,2.816
50.0,720.0,2.817
48.0,943.0,2.818
14.0,1044.0,2.819
-29.0,835.0,2.82
-44.0,364.0,2.821
-28.0,-126.0,2.822
-9.0,-458.0,2.823
4.0,-673.0,2.824
20.0,-949.0,2.825
35.0,-1322.0,2.826
39.0,-1571.0,2.827
33.0,-1471.0,2.828
33.0,-1078.0,2.829
42.0,-588.0,2.83
46.0,-44.0,2.831
43.0,577.0,2.832
46.0,1044.0,2.833
59.0,1006.0,2.834
56.0,476.0,2.835
10.0,-149.0,2.836
-56.0,-591.0,2.837
-101.0,-979.0,2.838
-91.0,-1359.0,2.839
-52.0,-1531.0,2.84
-25.0,-1309.0,2.841
-26.0,-764.0,2.842
-37.0,-78.0,2.843
-38.0,595.0,2.844
-20.0,1005.0,2.845
16.0,865.0,2.846
66.0,244.0,2.847
107.0,-368.0,2.848
104.0,-550.0,2.849
34.0,-297.0,2.85
-79.0,156.0,2.851
-175.0,581.0,2.852
-200.0,746.0,2.853
-157.0,495.0,2.854
-99.0,-11.0,2.855
-74.0,-359.0,2.856
-76.0,-334.0,2.857
-83.0,-91.0,2.858
-84.0,121.0,2.859
-98.0,287.0,2.86
-127.0,312.0,2.861
-145.0,325.0,2.862
-111.0,300.0,2.863
-27.0,308.0,2.864
67.0,416.0,2.865
144.0,524.0,2.866
205.0,634.0,2.867
257.0,723.0,2.868
274.0,745.0,2.869
227.0,779.0,2.87
140.0,849.0,2.871
73.0,880.0,2.872
52.0,792.0,2.873
58.0,628.0,2.874
83.0,236.0,2.875
158.0,-161.0,2.876
261.0,-571.0,2.877
274.0,-992.0,2.878
138.0,-1369.0,2.879
19.0,-1518.0,2.88
-48.0,-1440.0,2.881
-98.0,-1245.0,2.882
-92.0,-942.0,2.883
-119.0,-471.0,2.884
-244.0,47.0,2.885
-324.0,319.0,2.886
-269.0,208.0,2.887
-231.0,-70.0,2.888
-243.0,-189.0,2.889
-222.0,-71.0,2.89
-99.0,103.0,2.891
3.0,191.0,2.892
43.0,252.0,2.893
81.0,415.0,2.894
110.0,648.0,2.895
144.0,764.0,2.896
194.0,667.0,2.897
236.0,437.0,2.898
224.0,319.0,2.899
151.0,441.0,2.9
20.0,622.0,2.901
-87.0,432.0,2.902
-92.0,-423.0,2.903
-27.0,-1674.0,2.904
18.0,-2561.0,2.905
33.0,-2513.0,2.906
64.0,-1709.0,2.907
110.0,-835.0,2.908
124.0,-341.0,2.909
85.0,-117.0,2.91
22.0,150.0,2.911
-60.0,571.0,2.912
-155.0,1039.0,2.913
-215.0,1440.0,2.914
-190.0,1694.0,2.915
-107.0,1688.0,2.916
-42.0,1389.0,2.917
-12.0,905.0,2.918
14.0,598.0,2.919
48.0,720.0,2.92
73.0,1135.0,2.921
77.0,1497.0,2.922
83.0,1585.0,2.923
95.0,1370.0,2.924
89.0,768.0,2.925
50.0,-323.0,2.926
-8.0,-1679.0,2.927
-68.0,-2724.0,2.928
-123.0,-3065.0,2.929
-157.0,-2850.0,2.93
-146.0,-2453.0,2.931
-99.0,-2016.0,2.932
-56.0,-1475.0,2.933
-51.0,-807.0,2.934
-67.0,-20.0,2.935
-62.0,861.0,2.936
-21.0,1604.0,2.937
44.0,1978.0,2.938
114.0,1929.0,2.939
178.0,1778.0,2.94
211.0,1755.0,2.941
185.0,1634.0,2.942
110.0,1081.0,2.943
52.0,167.0,2.944
44.0,-665.0,2.945
40.0,-940.0,2.946
-10.0,-457.0,2.947
-73.0,396.0,2.948
-76.0,682.0,2.949
-4.0,-221.0,2.95
90.0,-1724.0,2.951
158.0,-2546.0,2.952
188.0,-2246.0,2.953
169.0,-1629.0,2.954
100.0,-1488.0,2.955
10.0,-1629.0,2.956
-45.0,-1445.0,2.957
-60.0,-733.0,2.958
-72.0,158.0,2.959
-117.0,835.0,2.96
-177.0,1072.0,2.961
-205.0,835.0,2.962
-188.0,398.0,2.963
-150.0,273.0,2.964
-108.0,757.0,2.965
-51.0,1652.0,2.966
32.0,2514.0,2.967
126.0,3053.0,2.968
193.0,3176.0,2.969
215.0,2848.0,2.97
192.0,2030.0,2.971
130.0,728.0,2.972
41.0,-876.0,2.973
-58.0,-2347.0,2.974
-151.0,-3191.0,2.975
-214.0,-3258.0,2.976
-217.0,-2881.0,2.977
-157.0,-2341.0,2.978
-88.0,-1719.0,2.979
-76.0,-984.0,2.98
-106.0,-274.0,2.981
-107.0,233.0,2.982
-59.0,574.0,2.983
-34.0,911.0,2.984
-80.0,1304.0,2.985
-141.0,1697.0,2.986
-135.0,2010.0,2.987
-80.0,2125.0,2.988
-46.0,1983.0,2.989
-45.0,1730.0,2.99
-18.0,1478.0,2.991
63.0,943.0,2.992
165.0,-263.0,2.993
244.0,-1865.0,2.994
290.0,-2893.0,2.995
298.0,-2675.0,2.996
275.0,-1625.0,2.997
231.0,-463.0,2.998
193.0,235.0,2.999
148.0,519.0,3.0
74.0,731.0,3.001
-17.0,975.0,3.002
-73.0,939.0,3.003
-77.0,316.0,3.004
-71.0,-673.0,3.005
-86.0,-1361.0,3.006
-112.0,-1335.0,3.007
-108.0,-811.0,3.008
-61.0,-221.0,3.009
-2.0,264.0,3.01
21.0,641.0,3.011
-12.0,849.0,3.012
-59.0,879.0,3.013
-45.0,901.0,3.014
43.0,1044.0,3.015
142.0,1184.0,3.016
190.0,1153.0,3.017
195.0,888.0,3.018
184.0,418.0,3.019
142.0,-322.0,3.02
54.0,-1385.0,3.021
-40.0,-2563.0,3.022
-70.0,-3367.0,3.023
-36.0,-3318.0,3.024
-20.0,-2353.0,3.025
-83.0,-980.0,3.026
-168.0,99.0,3.027
-173.0,620.0,3.028
-98.0,894.0,3.029
-47.0,1257.0,3.03
-78.0,1594.0,3.031
-117.0,1628.0,3.032
-83.0,1461.0,3.033
-14.0,1441.0,3.034
1.0,1594.0,3.035
-41.0,1529.0,3.036
-67.0,1062.0,3.037
-51.0,396.0,3.038
-21.0,-12.0,3.039
-5.0,-117.0,3.04
11.0,-334.0,3.041
38.0,-920.0,3.042
63.0,-1547.0,3.043
69.0,-1662.0,3.044
41.0,-1226.0,3.045
-25.0,-774.0,3.046
-106.0,-657.0,3.047
-143.0,-519.0,3.048
-105.0,140.0,3.049
-13.0,1092.0,3.05
85.0,1525.0,3.051
166.0,1073.0,3.052
232.0,242.0,3.053
294.0,-324.0,3.054
344.0,-593.0,3.055
341.0,-904.0,3.056
253.0,-1288.0,3.057
84.0,-1486.0,3.058
-82.0,-1204.0,3.059
-186.0,-436.0,3.06
-259.0,506.0,3.061
-341.0,1121.0,3.062
-382.0,1017.0,3.063
-305.0,343.0,3.064
-144.0,-288.0,3.065
-25.0,-457.0,3.066
3.0,-310.0,3.067
3.0,-172.0,3.068
24.0,-59.0,3.069
38.0,198.0,3.07
24.0,634.0,3.071
18.0,1125.0,3.072
50.0,1463.0,3.073
102.0,1384.0,3.074
133.0,807.0,3.075
126.0,135.0,3.076
74.0,-108.0,3.077
-12.0,-6.0,3.078
-69.0,-188.0,3.079
-47.0,-937.0,3.08
20.0,-1616.0,3.081
65.0,-1456.0,3.082
71.0,-572.0,3.083
59.0,286.0,3.084
40.0,733.0,3.085
15.0,981.0,3.086
0.0,1253.0,3.087
-1.0,1495.0,3.088
-15.0,1667.0,3.089
-32.0,1776.0,3.09
5.0,1546.0,3.091
101.0,598.0,3.092
166.0,-791.0,3.093
135.0,-1640.0,3.094
56.0,-1395.0,3.095
17.0,-792.0,3.096
25.0,-967.0,3.097
24.0,-2135.0,3.098
-19.0,-3165.0,3.099
-82.0,-2955.0,3.1
-109.0,-1703.0,3.101
-87.0,-543.0,3.102
-51.0,-182.0,3.103
-55.0,-325.0,3.104
-104.0,-337.0,3.105
-154.0,-25.0,3.106
-170.0,369.0,3.107
-142.0,648.0,3.108
-65.0,856.0,3.109
39.0,1082.0,3.11
109.0,1315.0,3.111
77.0,1493.0,3.112
-33.0,1612.0,3.113
-109.0,1726.0,3.114
-71.0,1880.0,3.115
45.0,2041.0,3.116
148.0,2142.0,3.117
195.0,2215.0,3.118
193.0,2367.0,3.119
176.0,2528.0,3.12
172.0,2242.0,3.121
168.0,1016.0,3.122
116.0,-1063.0,3.123
-15.0,-3159.0,3.124
-178.0,-4000.0,3.125
-276.0,-4000.0,3.126
-262.0,-3891.0,3.127
-176.0,-3354.0,3.128
-91.0,-2724.0,3.129
-37.0,-1839.0,3.13
-4.0,-823.0,3.131
13.0,-35.0,3.132
4.0,473.0,3.133
-13.0,987.0,3.134
-5.0,1591.0,3.135
35.0,2028.0,3.136
82.0,2203.0,3.137
122.0,2349.0,3.138
156.0,2476.0,3.139
170.0,2123.0,3.14
160.0,1019.0,3.141
141.0,-259.0,3.142
136.0,-861.0,3.143
132.0,-686.0,3.144
98.0,-405.0,3.145
40.0,-570.0,3.146
-10.0,-1070.0,3.147
-42.0,-1463.0,3.148
-87.0,-1498.0,3.149
-156.0,-1199.0,3.15
-233.0,-720.0,3.151
-275.0,-248.0,3.152
-259.0,58.0,3.153
-200.0,163.0,3.154
-143.0,165.0,3.155
-112.0,209.0,3.156
-89.0,361.0,3.157
-55.0,622.0,3.158
-13.0,913.0,3.159
29.0,1184.0,3.16
87.0,1487.0,3.161
157.0,1913.0,3.162
209.0,2361.0,3.163
222.0,2555.0,3.164
213.0,2312.0,3.165
203.0,1653.0,3.166
180.0,590.0,3.167
137.0,-935.0,3.168
98.0,-2640.0,3.169
74.0,-3715.0,3.17
45.0,-3480.0,3.171
-3.0,-2180.0,3.172
-69.0,-776.0,3.173
-151.0,-16.0,3.174
-236.0,-1.0,3.175
-262.0,-504.0,3.176
-189.0,-1181.0,3.177
-60.0,-1728.0,3.178
12.0,-1793.0,3.179
0.0,-1389.0,3.18
-14.0,-827.0,3.181
12.0,-278.0,3.182
34.0,293.0,3.183
34.0,812.0,3.184
57.0,1062.0,3.185
102.0,1026.0,3.186
98.0,976.0,3.187
26.0,1153.0,3.188
-25.0,1516.0,3.189
-9.0,1830.0,3.19
11.0,1912.0,3.191
-31.0,1793.0,3.192
-93.0,1660.0,3.193
-105.0,1520.0,3.194
-68.0,1064.0,3.195
-15.0,123.0,3.196
39.0,-782.0,3.197
87.0,-992.0,3.198
99.0,-372.0,3.199
93.0,301.0,3.2
117.0,219.0,3.201
163.0,-608.0,3.202
152.0,-1642.0,3.203
60.0,-2470.0,3.204
-47.0,-2859.0,3.205
-128.0,-2577.0,3.206
-214.0,-1676.0,3.207
-317.0,-752.0,3.208
-364.0,-442.0,3.209
-287.0,-686.0,3.21
-130.0,-822.0,3.211
-10.0,-403.0,3.212
21.0,366.0,3.213
34.0,1002.0,3.214
110.0,1249.0,3.215
217.0,1149.0,3.216
260.0,871.0,3.217
224.0,541.0,3.218
188.0,359.0,3.219
180.0,453.0,3.22
140.0,736.0,3.221
62.0,953.0,3.222
50.0,869.0,3.223
130.0,488.0,3.224
154.0,64.0,3.225
27.0,-145.0,3.226
-115.0,-132.0,3.227
-110.0,-108.0,3.228
-19.0,-197.0,3.229
-16.0,-272.0,3.23
-102.0,-168.0,3.231
-139.0,88.0,3.232
-85.0,354.0,3.233
-40.0,589.0,3.234
-67.0,809.0,3.235
-112.0,942.0,3.236
-120.0,878.0,3.237
-103.0,619.0,3.238
-88.0,378.0,3.239
-72.0,343.0,3.24
-40.0,474.0,3.241
12.0,608.0,3.242
84.0,705.0,3.243
162.0,885.0,3.244
199.0,1177.0,3.245
159.0,1330.0,3.246
57.0,963.0,3.247
-48.0,-126.0,3.248
-96.0,-1745.0,3.249
-78.0,-3257.0,3.25
-44.0,-3796.0,3.251
-49.0,-2921.0,3.252
-87.0,-1294.0,3.253
-99.0,-297.0,3.254
-60.0,-616.0,3.255
-20.0,-1463.0,3.256
-26.0,-1671.0,3.257
-59.0,-1061.0,3.258
-55.0,-393.0,3.259
-6.0,-169.0,3.26
47.0,-115.0,3.261
82.0,118.0,3.262
118.0,419.0,3.263
154.0,620.0,3.264
160.0,875.0,3.265
131.0,1343.0,3.266
102.0,1875.0,3.267
87.0,2203.0,3.268
59.0,2263.0,3.269
18.0,2163.0,3.27
9.0,1923.0,3.271
56.0,1299.0,3.272
105.0,-34.0,3.273
96.0,-1930.0,3.274
53.0,-3491.0,3.275
44.0,-3738.0,3.276
72.0,-2768.0,3.277
87.0,-1393.0,3.278
62.0,-498.0,3.279
15.0,-104.0,3.28
-37.0,254.0,3.281
-112.0,726.0,3.282
-196.0,1102.0,3.283
-219.0,1320.0,3.284
-172.0,1555.0,3.285
-143.0,1877.0,3.286
-191.0,2060.0,3.287
-230.0,1810.0,3.288
-170.0,1090.0,3.289
-66.0,214.0,3.29
-36.0,-460.0,3.291
-70.0,-843.0,3.292
-47.0,-1007.0,3.293
64.0,-856.0,3.294
161.0,-173.0,3.295
172.0,920.0,3.296
130.0,1794.0,3.297
63.0,1882.0,3.298
-16.0,889.0,3.299
-82.0,-939.0,3.3
-79.0,-2796.0,3.301
-23.0,-3655.0,3.302
11.0,-3082.0,3.303
6.0,-1780.0,3.304
19.0,-894.0,3.305
57.0,-749.0,3.306
62.0,-695.0,3.307
26.0,-211.0,3.308
25.0,464.0,3.309
91.0,924.0,3.31
164.0,1232.0,3.311
194.0,1615.0,3.312
200.0,1984.0,3.313
180.0,2076.0,3.314
101.0,1830.0,3.315
-7.0,1365.0,3.316
-55.0,792.0,3.317
-35.0,58.0,3.318
-38.0,-732.0,3.319
-91.0,-1391.0,3.32
-87.0,-1684.0,3.321
42.0,-1465.0,3.322
184.0,-908.0,3.323
191.0,-443.0,3.324
75.0,-290.0,3.325
-56.0,-207.0,3.326
-171.0,65.0,3.327
-295.0,350.0,3.328
-395.0,320.0,3.329
-391.0,55.0,3.33
-281.0,-79.0,3.331
-145.0,52.0,3.332
-39.0,307.0,3.333
49.0,589.0,3.334
133.0,854.0,3.335
185.0,923.0,3.336
188.0,668.0,3.337
146.0,229.0,3.338
86.0,2.0,3.339
30.0,93.0,3.34
-2.0,200.0,3.341
-5.0,121.0,3.342
-4.0,45.0,3.343
-23.0,197.0,3.344
-52.0,424.0,3.345
-48.0,404.0,3.346
10.0,139.0,3.347
85.0,-82.0,3.348
107.0,-202.0,3.349
64.0,-477.0,3.35
15.0,-931.0,3.351
15.0,-1108.0,3.352
37.0,-707.0,3.353
18.0,-204.0,3.354
-36.0,-369.0,3.355
-52.0,-1231.0,3.356
3.0,-1956.0,3.357
90.0,-1891.0,3.358
133.0,-1066.0,3.359
98.0,-33.0,3.36
27.0,767.0,3.361
-25.0,1275.0,3.362
-37.0,1603.0,3.363
-18.0,1878.0,3.364
15.0,2138.0,3.365
46.0,2239.0,3.366
42.0,1985.0,3.367
-19.0,1416.0,3.368
-115.0,848.0,3.369
-178.0,504.0,3.37
-151.0,189.0,3.371
-21.0,-531.0,3.372
183.0,-1743.0,3.373
380.0,-2880.0,3.374
457.0,-3162.0,3.375
347.0,-2472.0,3.376
126.0,-1583.0,3.377
-93.0,-1139.0,3.378
-201.0,-1129.0,3.379
-219.0,-964.0,3.38
-243.0,-363.0,3.381
-318.0,337.0,3.382
-375.0,737.0,3.383
-325.0,763.0,3.384
-182.0,462.0,3.385
-52.0,-94.0,3.386
3.0,-581.0,3.387
34.0,-547.0,3.388
91.0,35.0,3.389
134.0,650.0,3.39
116.0,860.0,3.391
78.0,766.0,3.392
84.0,730.0,3.393
120.0,907.0,3.394
133.0,1222.0,3.395
120.0,1577.0,3.396
116.0,1885.0,3.397
105.0,2119.0,3.398
63.0,2272.0,3.399
12.0,2294.0,3.4
-69.0,1943.0,3.401
-132.0,972.0,3.402
-141.0,-492.0,3.403
-130.0,-1909.0,3.404
-52.0,-2789.0,3.405
8.0,-3028.0,3.406
20.0,-2757.0,3.407
28.0,-2138.0,3.408
25.0,-1418.0,3.409
21.0,-917.0,3.41
15.0,-755.0,3.411
16.0,-672.0,3.412
37.0,-298.0,3.413
49.0,428.0,3.414
34.0,1182.0,3.415
19.0,1587.0,3.416
4.0,1579.0,3.417
-14.0,1308.0,3.418
-15.0,913.0,3.419
43.0,387.0,3.42
131.0,-216.0,3.421
180.0,-600.0,3.422
180.0,-493.0,3.423
166.0,-16.0,3.424
119.0,399.0,3.425
6.0,492.0,3.426
-134.0,409.0,3.427
-208.0,422.0,3.428
-201.0,518.0,3.429
-191.0,409.0,3.43
-223.0,-103.0,3.431
-257.0,-866.0,3.432
-228.0,-1525.0,3.433
-130.0,-1831.0,3.434
-13.0,-1752.0,3.435
65.0,-1347.0,3.436
75.0,-749.0,3.437
28.0,-62.0,3.438
-15.0,474.0,3.439
-35.0,782.0,3.44
-42.0,1032.0,3.441
-26.0,1384.0,3.442
26.0,1720.0,3.443
94.0,1795.0,3.444
119.0,1520.0,3.445
86.0,990.0,3.446
43.0,323.0,3.447
43.0,-371.0,3.448
69.0,-955.0,3.449
59.0,-1383.0,3.45
8.0,-1714.0,3.451
-24.0,-1868.0,3.452
10.0,-1534.0,3.453
86.0,-613.0,3.454
137.0,383.0,3.455
133.0,768.0,3.456
111.0,548.0,3.457
94.0,347.0,3.458
72.0,661.0,3.459
22.0,1169.0,3.46
-30.0,1121.0,3.461
-31.0,322.0,3.462
12.0,-605.0,3.463
29.0,-891.0,3.464
-12.0,-410.0,3.465
-44.0,226.0,3.466
-6.0,347.0,3.467
61.0,-70.0,3.468
81.0,-420.0,3.469
70.0,-207.0,3.47
78.0,375.0,3.471
78.0,689.0,3.472
11.0,341.0,3.473
-98.0,-458.0,3.474
-165.0,-1137.0,3.475
-151.0,-1251.0,3.476
-110.0,-866.0,3.477
-85.0,-339.0,3.478
-80.0,-71.0,3.479
-81.0,-65.0,3.48
-66.0,-24.0,3.481
-15.0,191.0,3.482
64.0,422.0,3.483
125.0,566.0,3.484
119.0,756.0,3.485
61.0,1097.0,3.486
8.0,1471.0,3.487
-16.0,1676.0,3.488
-24.0,1637.0,3.489
-37.0,1422.0,3.49
-46.0,1178.0,3.491
-32.0,943.0,3.492
9.0,392.0,3.493
57.0,-932.0,3.494
92.0,-2790.0,3.495
101.0,-3939.0,3.496
81.0,-3675.0,3.497
27.0,-2159.0,3.498
-35.0,-787.0,3.499
-73.0,-312.0,3.5
-97.0,-256.0,3.501
-143.0,89.0,3.502
-203.0,728.0,3.503
-214.0,1289.0,3.504
-158.0,1641.0,3.505
-102.0,1809.0,3.506
-108.0,1636.0,3.507
-137.0,1016.0,3.508
-106.0,274.0,3.509
-14.0,-101.0,3.51
61.0,-98.0,3.511
75.0,-226.0,3.512
72.0,-775.0,3.513
100.0,-1318.0,3.514
154.0,-1286.0,3.515
204.0,-841.0,3.516
238.0,-674.0,3.517
247.0,-1000.0,3.518
215.0,-1225.0,3.519
138.0,-795.0,3.52
69.0,-12.0,3.521
54.0,430.0,3.522
71.0,402.0,3.523
46.0,329.0,3.524
-25.0,461.0,3.525
-74.0,637.0,3.526
-72.0,702.0,3.527
-69.0,718.0,3.528
-85.0,743.0,3.529
-49.0,725.0,3.53
49.0,639.0,3.531
76.0,538.0,3.532
-59.0,455.0,3.533
-227.0,396.0,3.534
-232.0,382.0,3.535
-92.0,394.0,3.536
9.0,364.0,3.537
9.0,279.0,3.538
5.0,272.0,3.539
52.0,421.0,3.54
74.0,558.0,3.541
24.0,462.0,3.542
-26.0,153.0,3.543
-18.0,-151.0,3.544
0.0,-379.0,3.545
-16.0,-696.0,3.546
-35.0,-1185.0,3.547
-14.0,-1578.0,3.548
38.0,-1491.0,3.549
104.0,-886.0,3.55
176.0,-143.0,3.551
215.0,368.0,3.552
172.0,626.0,3.553
74.0,787.0,3.554
-3.0,814.0,3.555
-41.0,535.0,3.556
-77.0,31.0,3.557
-132.0,-381.0,3.558
-160.0,-643.0,3.559
-126.0,-676.0,3.56
-66.0,-653.0,3.561
-30.0,-532.0,3.562
-18.0,-162.0,3.563
3.0,365.0,3.564
33.0,743.0,3.565
41.0,844.0,3.566
22.0,816.0,3.567
4.0,732.0,3.568
4.0,445.0,3.569
-3.0,-107.0,3.57
-44.0,-619.0,3.571
-86.0,-646.0,3.572
-79.0,-93.0,3.573
-22.0,576.0,3.574
30.0,654.0,3.575
39.0,-209.0,3.576
27.0,-1482.0,3.577
22.0,-2402.0,3.578
25.0,-2082.0,3.579
16.0,-1168.0,3.58
5.0,-537.0,3.581
14.0,-382.0,3.582
31.0,-239.0,3.583
20.0,155.0,3.584
-22.0,492.0,3.585
-54.0,500.0,3.586
-46.0,385.0,3.587
-10.0,449.0,3.588
24.0,630.0,3.589
47.0,708.0,3.59
58.0,676.0,3.591
64.0,652.0,3.592
73.0,636.0,3.593
84.0,572.0,3.594
92.0,499.0,3.595
87.0,481.0,3.596
74.0,472.0,3.597
46.0,403.0,3.598
6.0,304.0,3.599
-34.0,237.0,3.6
-57.0,183.0,3.601
-55.0,110.0,3.602
-49.0,42.0,3.603
-53.0,10.0,3.604
-62.0,-1.0,3.605
-71.0,-12.0,3.606
-78.0,-6.0,3.607
-77.0,16.0,3.608
-48.0,15.0,3.609
3.0,-26.0,3.61
46.0,-67.0,3.611
56.0,-79.0,3.612
35.0,-89.0,3.613
11.0,-118.0,3.614
4.0,-136.0,3.615
16.0,-116.0,3.616
32.0,-84.0,3.617
37.0,-78.0,3.618
27.0,-95.0,3.619
11.0,-102.0,3.62
3.0,-89.0,3.621
1.0,-67.0,3.622
-3.0,-45.0,3.623
-16.0,-24.0,3.624
-19.0,-10.0,3.625
-1.0,-8.0,3.626
28.0,-9.0,3.627
47.0,-7.0,3.628
51.0,0.0,3.629
47.0,4.0,3.63
25.0,-7.0,3.631
-33.0,-59.0,3.632
-113.0,-147.0,3.633
-155.0,-200.0,3.634
-125.0,-124.0,3.635
-55.0,67.0,3.636
-5.0,243.0,3.637
12.0,307.0,3.638
9.0,278.0,3.639
4.0,222.0,3.64
9.0,122.0,3.641
22.0,-79.0,3.642
37.0,-305.0,3.643
41.0,-357.0,3.644
35.0,-190.0,3.645
34.0,-42.0,3.646
41.0,-173.0,3.647
45.0,-502.0,3.648
44.0,-661.0,3.649
47.0,-440.0,3.65
51.0,-55.0,3.651
45.0,118.0,3.652
33.0,-4.0,3.653
29.0,-171.0,3.654
34.0,-161.0,3.655
33.0,-61.0,3.656
26.0,-93.0,3.657
22.0,-318.0,3.658
22.0,-532.0,3.659
18.0,-519.0,3.66
13.0,-275.0,3.661
13.0,24.0,3.662
18.0,223.0,3.663
20.0,301.0,3.664
12.0,323.0,3.665
2.0,341.0,3.666
-6.0,352.0,3.667
-20.0,339.0,3.668
-38.0,309.0,3.669
-49.0,286.0,3.67
-52.0,287.0,3.671
-52.0,292.0,3.672
-54.0,273.0,3.673
-59.0,229.0,3.674
-61.0,187.0,3.675
-59.0,164.0,3.676
-53.0,147.0,3.677
-41.0,117.0,3.678
-28.0,82.0,3.679
-23.0,56.0,3.68
-24.0,35.0,3.681
-24.0,16.0,3.682
-14.0,1.0,3.683
6.0,-6.0,3.684
21.0,-9.0,3.685
22.0,-18.0,3.686
18.0,-30.0,3.687
19.0,-38.0,3.688
24.0,-42.0,3.689
24.0,-48.0,3.69
21.0,-53.0,3.691
26.0,-53.0,3.692
33.0,-52.0,3.693
33.0,-52.0,3.694
30.0,-56.0,3.695
32.0,-59.0,3.696
36.0,-58.0,3.697
33.0,-57.0,3.698
22.0,-56.0,3.699
11.0,-53.0,3.7
5.0,-47.0,3.701
1.0,-34.0,3.702
2.0,-31.0,3.703
7.0,-40.0,3.704
10.0,-51.0,3.705
3.0,-43.0,3.706
-3.0,-23.0,3.707
3.0,-13.0,3.708
12.0,-18.0,3.709
12.0,-24.0,3.71
3.0,-25.0,3.711
4.0,-28.0,3.712
12.0,-32.0,3.713
14.0,-28.0,3.714
8.0,-17.0,3.715
6.0,-11.0,3.716
12.0,-10.0,3.717
11.0,-10.0,3.718
3.0,-5.0,3.719
-4.0,-2.0,3.72
-10.0,-7.0,3.721
-16.0,-9.0,3.722
-17.0,-5.0,3.723
-10.0,0.0,3.724
-2.0,5.0,3.725
-2.0,9.0,3.726
-8.0,10.0,3.727
-11.0,8.0,3.728
-12.0,3.0,3.729
-17.0,-1.0,3.73
-24.0,-1.0,3.731
-28.0,-2.0,3.732
-24.0,0.0,3.733
-14.0,3.0,3.734
-1.0,4.0,3.735
10.0,4.0,3.736
16.0,4.0,3.737
14.0,0.0,3.738
10.0,-5.0,3.739
4.0,-11.0,3.74
-1.0,-13.0,3.741
-6.0,-8.0,3.742
-4.0,0.0,3.743
1.0,13.0,3.744
5.0,30.0,3.745
9.0,42.0,3.746
14.0,42.0,3.747
17.0,30.0,3.748
16.0,16.0,3.749
12.0,7.0,3.75
8.0,1.0,3.751
12.0,-1.0,3.752
19.0,-2.0,3.753
18.0,-2.0,3.754
-9.0,-2.0,3.755
-47.0,0.0,3.756
-63.0,5.0,3.757
-36.0,6.0,3.758
6.0,6.0,3.759
23.0,2.0,3.76
12.0,-6.0,3.761
4.0,-11.0,3.762
14.0,-14.0,3.763
17.0,-14.0,3.764
3.0,-12.0,3.765
-9.0,-7.0,3.766
-4.0,1.0,3.767
3.0,6.0,3.768
-3.0,6.0,3.769
-7.0,3.0,3.77
8.0,0.0,3.771
41.0,-2.0,3.772
68.0,-4.0,3.773
86.0,-4.0,3.774
100.0,3.0,3.775
107.0,10.0,3.776
102.0,21.0,3.777
78.0,31.0,3.778
45.0,36.0,3.779
9.0,21.0,3.78
-28.0,-15.0,3.781
-58.0,-44.0,3.782
-68.0,-44.0,3.783
-56.0,-22.0,3.784
-42.0,-5.0,3.785
-47.0,-1.0,3.786
-69.0,-5.0,3.787
-90.0,-10.0,3.788
-97.0,-12.0,3.789
-75.0,-10.0,3.79
-6.0,-8.0,3.791
90.0,-8.0,3.792
148.0,-10.0,3.793
121.0,-6.0,3.794
46.0,6.0,3.795
0.0,9.0,3.796
-1.0,4.0,3.797
3.0,-2.0,3.798
-4.0,2.0,3.799
-13.0,9.0,3.8
-10.0,2.0,3.801
-14.0,-9.0,3.802
-24.0,-10.0,3.803
-28.0,4.0,3.804
-26.0,18.0,3.805
-30.0,24.0,3.806
-36.0,21.0,3.807
-37.0,9.0,3.808
-38.0,-4.0,3.809
-41.0,-8.0,3.81
-29.0,7.0,3.811
-5.0,28.0,3.812
-4.0,31.0,3.813
-40.0,16.0,3.814
-85.0,-4.0,3.815
-106.0,-14.0,3.816
-102.0,-18.0,3.817
-76.0,-21.0,3.818
-31.0,-13.0,3.819
13.0,1.0,3.82
35.0,10.0,3.821
47.0,11.0,3.822
93.0,5.0,3.823
157.0,-3.0,3.824
165.0,-6.0,3.825
99.0,-5.0,3.826
35.0,-3.0,3.827
35.0,-8.0,3.828
64.0,-13.0,3.829
56.0,-16.0,3.83
25.0,-17.0,3.831
21.0,-24.0,3.832
45.0,-25.0,3.833
52.0,-12.0,3.834
22.0,7.0,3.835
-20.0,13.0,3.836
-43.0,8.0,3.837
-36.0,-2.0,3.838
-1.0,1.0,3.839
42.0,9.0,3.84
61.0,9.0,3.841
47.0,5.0,3.842
27.0,0.0,3.843
14.0,-6.0,3.844
-10.0,-8.0,3.845
-41.0,-10.0,3.846
-46.0,-14.0,3.847
-12.0,-20.0,3.848
9.0,-21.0,3.849
-17.0,-16.0,3.85
-54.0,-7.0,3.851
-52.0,0.0,3.852
-27.0,10.0,3.853
-33.0,24.0,3.854
-65.0,32.0,3.855
-83.0,26.0,3.856
-70.0,17.0,3.857
-50.0,14.0,3.858
-41.0,27.0,3.859
-40.0,53.0,3.86
-36.0,79.0,3.861
-23.0,92.0,3.862
2.0,79.0,3.863
20.0,45.0,3.864
6.0,-1.0,3.865
-37.0,-55.0,3.866
-67.0,-110.0,3.867
-56.0,-143.0,3.868
-22.0,-137.0,3.869
7.0,-98.0,3.87
35.0,-59.0,3.871
71.0,-36.0,3.872
101.0,-24.0,3.873
106.0,-12.0,3.874
90.0,-5.0,3.875
72.0,-1.0,3.876
58.0,8.0,3.877
41.0,18.0,3.878
29.0,24.0,3.879
12.0,20.0,3.88
-13.0,16.0,3.881
-38.0,25.0,3.882
-57.0,33.0,3.883
-69.0,36.0,3.884
-57.0,43.0,3.885
-46.0,63.0,3.886
-38.0,83.0,3.887
-27.0,96.0,3.888
-7.0,110.0,3.889
19.0,128.0,3.89
62.0,136.0,3.891
96.0,112.0,3.892
104.0,56.0,3.893
100.0,-17.0,3.894
62.0,-87.0,3.895
17.0,-138.0,3.896
-47.0,-161.0,3.897
-97.0,-163.0,3.898
-69.0,-153.0,3.899
-10.0,-142.0,3.9
12.0,-132.0,3.901
-5.0,-112.0,3.902
-5.0,-73.0,3.903
35.0,-21.0,3.904
66.0,33.0,3.905
55.0,71.0,3.906
35.0,84.0,3.907
40.0,80.0,3.908
57.0,70.0,3.909
66.0,52.0,3.91
71.0,27.0,3.911
76.0,3.0,3.912
60.0,-10.0,3.913
22.0,-21.0,3.914
-4.0,-37.0,3.915
-12.0,-53.0,3.916
-32.0,-48.0,3.917
-76.0,-28.0,3.918
-105.0,-2.0,3.919
-86.0,10.0,3.92
-50.0,8.0,3.921
-38.0,8.0,3.922
-43.0,10.0,3.923
-42.0,20.0,3.924
-35.0,36.0,3.925
-31.0,51.0,3.926
-22.0,51.0,3.927
-1.0,40.0,3.928
11.0,33.0,3.929
-3.0,37.0,3.93
-23.0,40.0,3.931
-22.0,35.0,3.932
-7.0,32.0,3.933
0.0,29.0,3.934
3.0,21.0,3.935
14.0,0.0,3.936
31.0,-21.0,3.937
43.0,-38.0,3.938
54.0,-44.0,3.939
59.0,-41.0,3.94
51.0,-31.0,3.941
27.0,-13.0,3.942
-4.0,3.0,3.943
-35.0,9.0,3.944
-68.0,9.0,3.945
-91.0,6.0,3.946
-85.0,0.0,3.947
-49.0,-6.0,3.948
-11.0,-8.0,3.949
7.0,-6.0,3.95
14.0,-2.0,3.951
28.0,0.0,3.952
49.0,5.0,3.953
61.0,15.0,3.954
58.0,25.0,3.955
50.0,31.0,3.956
43.0,30.0,3.957
30.0,8.0,3.958
11.0,-30.0,3.959
-7.0,-65.0,3.96
-15.0,-69.0,3.961
-16.0,-41.0,3.962
-10.0,-12.0,3.963
-6.0,-1.0,3.964
-15.0,-1.0,3.965
-35.0,2.0,3.966
-49.0,5.0,3.967
-41.0,0.0,3.968
-15.0,-2.0,3.969
5.0,3.0,3.97
13.0,10.0,3.971
15.0,9.0,3.972
21.0,2.0,3.973
31.0,1.0,3.974
36.0,11.0,3.975
36.0,32.0,3.976
30.0,58.0,3.977
18.0,87.0,3.978
4.0,103.0,3.979
-6.0,96.0,3.98
-13.0,58.0,3.981
-19.0,0.0,3.982
-23.0,-65.0,3.983
-27.0,-108.0,3.984
-38.0,-108.0,3.985
-50.0,-82.0,3.986
-40.0,-66.0,3.987
-2.0,-69.0,3.988
43.0,-67.0,3.989
67.0,-47.0,3.99
69.0,-28.0,3.991
65.0,-26.0,3.992
62.0,-24.0,3.993
50.0,-14.0,3.994
31.0,-6.0,3.995
11.0,-3.0,3.996
0.0,8.0,3.997
-9.0,36.0,3.998
-7.0,63.0,3.999
5.0,70.0,4.0
19.0,56.0,4.001
28.0,43.0,4.002
31.0,35.0,4.003
27.0,24.0,4.004
13.0,10.0,4.005
-3.0,-1.0,4.006
-11.0,-5.0,4.007
-13.0,8.0,4.008
-28.0,37.0,4.009
-59.0,65.0,4.01
-78.0,72.0,4.011
-56.0,55.0,4.012
-8.0,26.0,4.013
21.0,-14.0,4.014
24.0,-61.0,4.015
21.0,-94.0,4.016
36.0,-91.0,4.017
56.0,-61.0,4.018
53.0,-35.0,4.019
16.0,-19.0,4.02
-23.0,-37.0,4.021
-42.0,-52.0,4.022
-39.0,-51.0,4.023
-27.0,-44.0,4.024
-13.0,-18.0,4.025
-7.0,4.0,4.026
-18.0,16.0,4.027
-37.0,24.0,4.028
-47.0,17.0,4.029
-36.0,10.0,4.03
-12.0,8.0,4.031
11.0,7.0,4.032
26.0,9.0,4.033
38.0,11.0,4.034
59.0,13.0,4.035
85.0,16.0,4.036
91.0,18.0,4.037
64.0,18.0,4.038
23.0,12.0,4.039
-9.0,10.0,4.04
-23.0,11.0,4.041
-30.0,13.0,4.042
-33.0,9.0,4.043
-24.0,2.0,4.044
-8.0,2.0,4.045
1.0,10.0,4.046
4.0,19.0,4.047
9.0,18.0,4.048
12.0,6.0,4.049
3.0,-4.0,4.05
-15.0,-4.0,4.051
-33.0,0.0,4.052
-41.0,0.0,4.053
-39.0,-3.0,4.054
-28.0,-5.0,4.055
-22.0,-6.0,4.056
-19.0,-7.0,4.057
-13.0,-9.0,4.058
2.0,-7.0,4.059
11.0,-2.0,4.06
0.0,-3.0,4.061
-10.0,-4.0,4.062
2.0,-4.0,4.063
20.0,0.0,4.064
17.0,4.0,4.065
3.0,6.0,4.066
10.0,3.0,4.067
34.0,-6.0,4.068
40.0,-13.0,4.069
23.0,-14.0,4.07
12.0,-8.0,4.071
22.0,-2.0,4.072
28.0,-6.0,4.073
19.0,-9.0,4.074
12.0,-8.0,4.075
17.0,-5.0,4.076
20.0,-5.0,4.077
11.0,-10.0,4.078
1.0,-8.0,4.079
-4.0,-2.0,4.08
-15.0,0.0,4.081
-23.0,0.0,4.082
-23.0,1.0,4.083
-13.0,3.0,4.084
-10.0,6.0,4.085
-17.0,9.0,4.086
-20.0,7.0,4.087
-11.0,1.0,4.088
-4.0,-5.0,4.089
-2.0,-7.0,4.09
0.0,-3.0,4.091
8.0,-1.0,4.092
14.0,-2.0,4.093
17.0,-3.0,4.094
16.0,-2.0,4.095
14.0,-1.0,4.096
11.0,-2.0,4.097
5.0,-2.0,4.098
4.0,0.0,4.099
0.0,0.0,4.1
-6.0,-1.0,4.101
-11.0,0.0,4.102
-7.0,3.0,4.103
0.0,6.0,4.104
2.0,6.0,4.105
-2.0,6.0,4.106
-2.0,7.0,4.107
3.0,7.0,4.108
5.0,6.0,4.109
0.0,4.0,4.11
-3.0,2.0,4.111
1.0,-4.0,4.112
10.0,-12.0,4.113
17.0,-17.0,4.114
23.0,-19.0,4.115
29.0,-15.0,4.116
30.0,-8.0,4.117
23.0,1.0,4.118
15.0,11.0,4.119
8.0,16.0,4.12
4.0,15.0,4.121
4.0,16.0,4.122
10.0,14.0,4.123
10.0,9.0,4.124
-9.0,9.0,4.125
-44.0,14.0,4.126
-73.0,20.0,4.127
-65.0,12.0,4.128
-25.0,0.0,4.129
14.0,-7.0,4.13
17.0,-3.0,4.131
-5.0,3.0,4.132
-22.0,1.0,4.133
-13.0,-8.0,4.134
11.0,-19.0,4.135
30.0,-25.0,4.136
35.0,-19.0,4.137
34.0,-10.0,4.138
42.0,-6.0,4.139
50.0,-7.0,4.14
47.0,-10.0,4.141
33.0,-7.0,4.142
28.0,-5.0,4.143
41.0,-3.0,4.144
48.0,0.0,4.145
26.0,2.0,4.146
-8.0,-1.0,4.147
-19.0,-5.0,4.148
-8.0,-3.0,4.149
-8.0,1.0,4.15
-23.0,0.0,4.151
-32.0,-3.0,4.152
-28.0,-4.0,4.153
-22.0,-4.0,4.154
-21.0,-7.0,4.155
-15.0,-9.0,4.156
-2.0,-6.0,4.157
1.0,-2.0,4.158
-4.0,-4.0,4.159
-13.0,-6.0,4.16
-15.0,-7.0,4.161
-15.0,-3.0,4.162
-16.0,4.0,4.163
-15.0,10.0,4.164
-16.0,15.0,4.165
-22.0,16.0,4.166
-26.0,9.0,4.167
-23.0,0.0,4.168
-11.0,-5.0,4.169
2.0,-8.0,4.17
11.0,-12.0,4.171
16.0,-15.0,4.172
16.0,-10.0,4.173
15.0,-5.0,4.174
15.0,-3.0,4.175
20.0,-3.0,4.176
24.0,2.0,4.177
19.0,15.0,4.178
9.0,26.0,4.179
2.0,23.0,4.18
0.0,4.0,4.181
1.0,-9.0,4.182
3.0,-11.0,4.183
6.0,-5.0,4.184
5.0,6.0,4.185
1.0,15.0,4.186
-4.0,20.0,4.187
-13.0,20.0,4.188
-25.0,20.0,4.189
-28.0,20.0,4.19
-6.0,13.0,4.191
33.0,2.0,4.192
52.0,0.0,4.193
39.0,7.0,4.194
20.0,9.0,4.195
23.0,-4.0,4.196
38.0,-20.0,4.197
29.0,-26.0,4.198
-7.0,-21.0,4.199
-43.0,-22.0,4.2
-51.0,-33.0,4.201
-35.0,-36.0,4.202
-18.0,-29.0,4.203
-13.0,-23.0,4.204
-20.0,-14.0,4.205
-18.0,6.0,4.206
8.0,37.0,4.207
41.0,54.0,4.208
46.0,46.0,4.209
30.0,21.0,4.21
26.0,1.0,4.211
45.0,-5.0,4.212
54.0,-3.0,4.213
35.0,-5.0,4.214
17.0,-12.0,4.215
22.0,-16.0,4.216
27.0,-11.0,4.217
18.0,-9.0,4.218
15.0,-8.0,4.219
24.0,-8.0,4.22
20.0,-6.0,4.221
-9.0,1.0,4.222
-29.0,4.0,4.223
-21.0,1.0,4.224
-22.0,-2.0,4.225
-51.0,-4.0,4.226
-74.0,-5.0,4.227
-59.0,-7.0,4.228
-27.0,-7.0,4.229
-12.0,-10.0,4.23
-5.0,-17.0,4.231
10.0,-19.0,4.232
24.0,-14.0,4.233
19.0,-11.0,4.234
2.0,-15.0,4.235
-4.0,-14.0,4.236
-4.0,-1.0,4.237
-10.0,19.0,4.238
-18.0,34.0,4.239
-20.0,37.0,4.24
-25.0,31.0,4.241
-33.0,30.0,4.242
-38.0,26.0,4.243
-38.0,18.0,4.244
-33.0,8.0,4.245
-28.0,3.0,4.246
-11.0,0.0,4.247
11.0,-5.0,4.248
19.0,-14.0,4.249
18.0,-16.0,4.25
26.0,-11.0,4.251
45.0,-8.0,4.252
48.0,-12.0,4.253
16.0,-17.0,4.254
-17.0,-16.0,4.255
-8.0,-11.0,4.256
38.0,-10.0,4.257
70.0,-11.0,4.258
62.0,-12.0,4.259
47.0,-12.0,4.26
73.0,-17.0,4.261
115.0,-19.0,4.262
116.0,-12.0,4.263
69.0,1.0,4.264
17.0,14.0,4.265
-11.0,23.0,4.266
-35.0,32.0,4.267
-65.0,39.0,4.268
-73.0,38.0,4.269
-53.0,24.0,4.27
-37.0,4.0,4.271
-47.0,-9.0,4.272
-57.0,-9.0,4.273
-35.0,-7.0,4.274
0.0,-10.0,4.275
20.0,-13.0,4.276
29.0,-14.0,4.277
54.0,-19.0,4.278
85.0,-24.0,4.279
83.0,-15.0,4.28
41.0,0.0,4.281
-6.0,11.0,4.282
-33.0,7.0,4.283
-53.0,8.0,4.284
-75.0,24.0,4.285
-86.0,34.0,4.286
-74.0,17.0,4.287
-45.0,-13.0,4.288
-9.0,-27.0,4.289
21.0,-19.0,4.29
28.0,-11.0,4.291
2.0,-9.0,4.292
-27.0,-2.0,4.293
-17.0,14.0,4.294
22.0,24.0,4.295
47.0,19.0,4.296
44.0,9.0,4.297
40.0,4.0,4.298
46.0,4.0,4.299
27.0,4.0,4.3
-23.0,-1.0,4.301
-51.0,-3.0,4.302
-19.0,-4.0,4.303
25.0,-4.0,4.304
9.0,0.0,4.305
-48.0,1.0,4.306
-64.0,-2.0,4.307
-15.0,-8.0,4.308
38.0,-11.0,4.309
36.0,-9.0,4.31
4.0,-9.0,4.311
-12.0,-13.0,4.312
-11.0,-21.0,4.313
-12.0,-28.0,4.314
-13.0,-32.0,4.315
-4.0,-31.0,4.316
11.0,-29.0,4.317
22.0,-30.0,4.318
26.0,-27.0,4.319
23.0,-8.0,4.32
13.0,22.0,4.321
4.0,50.0,4.322
6.0,59.0,4.323
8.0,59.0,4.324
0.0,63.0,4.325
-10.0,65.0,4.326
-3.0,45.0,4.327
7.0,10.0,4.328
3.0,-6.0,4.329
-14.0,3.0,4.33
-23.0,11.0,4.331
-13.0,1.0,4.332
1.0,-14.0,4.333
7.0,-20.0,4.334
1.0,-16.0,4.335
-5.0,-16.0,4.336
-4.0,-14.0,4.337
5.0,-13.0,4.338
21.0,-10.0,4.339
39.0,-10.0,4.34
65.0,-9.0,4.341
93.0,0.0,4.342
100.0,6.0,4.343
68.0,0.0,4.344
16.0,-14.0,4.345
-15.0,-25.0,4.346
-19.0,-19.0,4.347
-16.0,-8.0,4.348
-21.0,-6.0,4.349
-32.0,-13.0,4.35
-43.0,-17.0,4.351
-45.0,-5.0,4.352
-30.0,9.0,4.353
-1.0,8.0,4.354
16.0,-7.0,4.355
10.0,-16.0,4.356
1.0,-13.0,4.357
4.0,-15.0,4.358
17.0,-26.0,4.359
23.0,-44.0,4.36
8.0,-56.0,4.361
-5.0,-55.0,4.362
-14.0,-44.0,4.363
-23.0,-24.0,4.364
-33.0,10.0,4.365
-42.0,55.0,4.366
-48.0,101.0,4.367
-50.0,119.0,4.368
-35.0,93.0,4.369
-21.0,40.0,4.37
-13.0,-5.0,4.371
-2.0,-16.0,4.372
18.0,-4.0,4.373
32.0,11.0,4.374
28.0,23.0,4.375
24.0,30.0,4.376
25.0,26.0,4.377
22.0,5.0,4.378
-7.0,-10.0,4.379
-48.0,-4.0,4.38
-65.0,5.0,4.381
-50.0,2.0,4.382
-25.0,-8.0,4.383
-2.0,-10.0,4.384
38.0,-5.0,4.385
94.0,-5.0,4.386
118.0,-14.0,4.387
80.0,-22.0,4.388
33.0,-23.0,4.389
35.0,-22.0,4.39
53.0,-23.0,4.391
21.0,-22.0,4.392
-33.0,-20.0,4.393
-31.0,-20.0,4.394
23.0,-16.0,4.395
44.0,-11.0,4.396
23.0,-2.0,4.397
25.0,1.0,4.398
68.0,-2.0,4.399
80.0,-11.0,4.4
29.0,-27.0,4.401
-23.0,-36.0,4.402
-22.0,-32.0,4.403
-4.0,-13.0,4.404
-15.0,9.0,4.405
-32.0,32.0,4.406
-25.0,47.0,4.407
-15.0,51.0,4.408
-28.0,42.0,4.409
-50.0,25.0,4.41
-57.0,9.0,4.411
-47.0,2.0,4.412
-27.0,-1.0,4.413
-1.0,-7.0,4.414
22.0,-9.0,4.415
32.0,-6.0,4.416
34.0,-3.0,4.417
31.0,-6.0,4.418
21.0,-10.0,4.419
5.0,-8.0,4.42
6.0,-3.0,4.421
32.0,-1.0,4.422
51.0,0.0,4.423
29.0,5.0,4.424
-25.0,13.0,4.425
-72.0,14.0,4.426
-101.0,0.0,4.427
-105.0,-15.0,4.428
-75.0,-15.0,4.429
-19.0,-7.0,4.43
19.0,-4.0,4.431
10.0,-11.0,4.432
-10.0,-15.0,4.433
0.0,-7.0,4.434
22.0,5.0,4.435
20.0,11.0,4.436
12.0,7.0,4.437
27.0,-3.0,4.438
59.0,-7.0,4.439
60.0,-3.0,4.44
19.0,-2.0,4.441
-38.0,-7.0,4.442
-81.0,-11.0,4.443
-99.0,-4.0,4.444
-85.0,16.0,4.445
-44.0,31.0,4.446
0.0,22.0,4.447
31.0,-4.0,4.448
52.0,-19.0,4.449
70.0,-10.0,4.45
72.0,2.0,4.451
52.0,0.0,4.452
34.0,-9.0,4.453
41.0,-3.0,4.454
50.0,15.0,4.455
25.0,18.0,4.456
-16.0,3.0,4.457
-35.0,-19.0,4.458
-7.0,-27.0,4.459
31.0,-20.0,4.46
41.0,-7.0,4.461
20.0,14.0,4.462
-12.0,33.0,4.463
-47.0,37.0,4.464
-86.0,26.0,4.465
-108.0,13.0,4.466
-76.0,4.0,4.467
7.0,-4.0,4.468
89.0,-6.0,4.469
114.0,6.0,4.47
78.0,23.0,4.471
20.0,20.0,4.472
-10.0,-3.0,4.473
4.0,-21.0,4.474
34.0,-16.0,4.475
40.0,-5.0,4.476
3.0,-8.0,4.477
-67.0,-28.0,4.478
-108.0,-38.0,4.479
-116.0,-26.0,4.48
-23.0,-9.0,4.481
54.0,2.0,4.482
82.0,-2.0,4.483
118.0,-12.0,4.484
178.0,-20.0,4.485
206.0,-22.0,4.486
139.0,-23.0,4.487
65.0,-19.0,4.488
-29.0,-5.0,4.489
-97.0,18.0,4.49
-83.0,26.0,4.491
-75.0,7.0,4.492
-91.0,-22.0,4.493
-93.0,-33.0,4.494
-52.0,-25.0,4.495
-20.0,-21.0,4.496
-17.0,-26.0,4.497
-9.0,-16.0,4.498
1.0,28.0,4.499
-7.0,90.0,4.5
-6.0,120.0,4.501
33.0,99.0,4.502
70.0,53.0,4.503
51.0,16.0,4.504
-6.0,-1.0,4.505
-49.0,-22.0,4.506
-65.0,-54.0,4.507
-77.0,-78.0,4.508
-98.0,-69.0,4.509
-118.0,-18.0,4.51
-111.0,57.0,4.511
-50.0,122.0,4.512
49.0,131.0,4.513
125.0,72.0,4.514
136.0,-11.0,4.515
111.0,-59.0,4.516
95.0,-60.0,4.517
91.0,-52.0,4.518
92.0,-58.0,4.519
89.0,-58.0,4.52
71.0,-26.0,4.521
33.0,28.0,4.522
-12.0,65.0,4.523
-68.0,54.0,4.524
-154.0,11.0,4.525
-227.0,-23.0,4.526
-187.0,-28.0,4.527
-32.0,-18.0,4.528
105.0,-17.0,4.529
139.0,-27.0,4.53
126.0,-29.0,4.531
135.0,-21.0,4.532
122.0,-17.0,4.533
40.0,-22.0,4.534
-70.0,-21.0,4.535
-161.0,-12.0,4.536
-221.0,-3.0,4.537
-229.0,1.0,4.538
-135.0,12.0,4.539
25.0,21.0,4.54
146.0,11.0,4.541
193.0,-10.0,4.542
222.0,-23.0,4.543
233.0,-18.0,4.544
165.0,-6.0,4.545
43.0,2.0,4.546
-23.0,4.0,4.547
-9.0,-3.0,4.548
0.0,-24.0,4.549
-35.0,-48.0,4.55
-60.0,-59.0,4.551
-45.0,-51.0,4.552
-37.0,-34.0,4.553
-64.0,-13.0,4.554
-94.0,4.0,4.555
-101.0,1.0,4.556
-91.0,-18.0,4.557
-67.0,-35.0,4.558
-29.0,-14.0,4.559
-5.0,37.0,4.56
-23.0,63.0,4.561
-30.0,38.0,4.562
-3.0,-11.0,4.563
19.0,-10.0,4.564
24.0,84.0,4.565
35.0,219.0,4.566
63.0,293.0,4.567
67.0,270.0,4.568
-1.0,213.0,4.569
-63.0,191.0,4.57
-108.0,175.0,4.571
-128.0,91.0,4.572
-71.0,-58.0,4.573
1.0,-195.0,4.574
118.0,-279.0,4.575
198.0,-329.0,4.576
167.0,-358.0,4.577
115.0,-346.0,4.578
18.0,-281.0,4.579
-23.0,-199.0,4.58
-40.0,-135.0,4.581
-54.0,-85.0,4.582
-42.0,-45.0,4.583
-31.0,-15.0,4.584
-75.0,5.0,4.585
-128.0,31.0,4.586
-86.0,53.0,4.587
38.0,56.0,4.588
108.0,41.0,4.589
80.0,24.0,4.59
55.0,11.0,4.591
91.0,10.0,4.592
110.0,39.0,4.593
63.0,111.0,4.594
3.0,192.0,4.595
-35.0,213.0,4.596
-91.0,157.0,4.597
-160.0,68.0,4.598
-148.0,27.0,4.599
-35.0,48.0,4.6
63.0,75.0,4.601
68.0,75.0,4.602
37.0,63.0,4.603
23.0,56.0,4.604
-12.0,45.0,4.605
-69.0,28.0,4.606
-71.0,17.0,4.607
-3.0,15.0,4.608
59.0,0.0,4.609
82.0,-29.0,4.61
117.0,-44.0,4.611
158.0,-36.0,4.612
123.0,-29.0,4.613
9.0,-36.0,4.614
-79.0,-45.0,4.615
-90.0,-44.0,4.616
-66.0,-39.0,4.617
-29.0,-38.0,4.618
41.0,-35.0,4.619
112.0,-28.0,4.62
94.0,-25.0,4.621
-18.0,-18.0,4.622
-116.0,-5.0,4.623
-129.0,-7.0,4.624
-97.0,-41.0,4.625
-73.0,-83.0,4.626
-51.0,-84.0,4.627
-18.0,-26.0,4.628
-4.0,53.0,4.629
-29.0,107.0,4.63
-62.0,109.0,4.631
-66.0,65.0,4.632
-40.0,5.0,4.633
-5.0,-31.0,4.634
27.0,-34.0,4.635
59.0,-33.0,4.636
90.0,-30.0,4.637
119.0,-3.0,4.638
143.0,49.0,4.639
147.0,65.0,4.64
132.0,11.0,4.641
95.0,-54.0,4.642
45.0,-57.0,4.643
9.0,-14.0,4.644
18.0,10.0,4.645
53.0,1.0,4.646
43.0,-4.0,4.647
-53.0,5.0,4.648
-180.0,-1.0,4.649
-245.0,-17.0,4.65
-218.0,-12.0,4.651
-142.0,19.0,4.652
-69.0,53.0,4.653
-4.0,64.0,4.654
58.0,56.0,4.655
112.0,38.0,4.656
137.0,13.0,4.657
97.0,-14.0,4.658
-4.0,-30.0,4.659
-90.0,-34.0,4.66
-64.0,-42.0,4.661
49.0,-62.0,4.662
123.0,-87.0,4.663
92.0,-105.0,4.664
24.0,-94.0,4.665
-3.0,-57.0,4.666
-14.0,-14.0,4.667
-46.0,4.0,4.668
-61.0,-4.0,4.669
-11.0,-14.0,4.67
55.0,-7.0,4.671
54.0,10.0,4.672
-6.0,14.0,4.673
-56.0,8.0,4.674
-62.0,11.0,4.675
-24.0,34.0,4.676
54.0,58.0,4.677
142.0,70.0,4.678
147.0,72.0,4.679
16.0,77.0,4.68
-171.0,73.0,4.681
-272.0,50.0,4.682
-217.0,23.0,4.683
-52.0,23.0,4.684
115.0,54.0,4.685
201.0,80.0,4.686
202.0,70.0,4.687
193.0,29.0,4.688
208.0,-23.0,4.689
181.0,-78.0,4.69
67.0,-128.0,4.691
-52.0,-159.0,4.692
-66.0,-155.0,4.693
-1.0,-121.0,4.694
25.0,-73.0,4.695
-3.0,-28.0,4.696
-16.0,11.0,4.697
-16.0,46.0,4.698
-62.0,68.0,4.699
-154.0,64.0,4.7
-195.0,27.0,4.701
-152.0,-23.0,4.702
-97.0,-60.0,4.703
-74.0,-66.0,4.704
-39.0,-39.0,4.705
17.0,-4.0,4.706
39.0,5.0,4.707
8.0,-7.0,4.708
-12.0,-11.0,4.709
15.0,15.0,4.71
38.0,45.0,4.711
27.0,46.0,4.712
14.0,25.0,4.713
29.0,15.0,4.714
43.0,24.0,4.715
26.0,29.0,4.716
0.0,24.0,4.717
-7.0,23.0,4.718
2.0,33.0,4.719
12.0,43.0,4.72
23.0,41.0,4.721
27.0,38.0,4.722
6.0,37.0,4.723
-35.0,34.0,4.724
-58.0,27.0,4.725
-38.0,12.0,4.726
4.0,-9.0,4.727
32.0,-38.0,4.728
36.0,-58.0,4.729
14.0,-63.0,4.73
-17.0,-55.0,4.731
-29.0,-31.0,4.732
-10.0,10.0,4.733
12.0,49.0,4.734
7.0,52.0,4.735
-1.0,17.0,4.736
24.0,-17.0,4.737
67.0,-31.0,4.738
79.0,-30.0,4.739
52.0,-24.0,4.74
31.0,-11.0,4.741
28.0,12.0,4.742
9.0,33.0,4.743
-30.0,41.0,4.744
-58.0,44.0,4.745
-67.0,48.0,4.746
-87.0,44.0,4.747
-117.0,35.0,4.748
-110.0,29.0,4.749
-48.0,26.0,4.75
34.0,16.0,4.751
106.0,8.0,4.752
177.0,13.0,4.753
236.0,18.0,4.754
236.0,6.0,4.755
162.0,-22.0,4.756
78.0,-48.0,4.757
27.0,-76.0,4.758
-3.0,-105.0,4.759
-44.0,-127.0,4.76
-75.0,-129.0,4.761
-82.0,-113.0,4.762
-102.0,-86.0,4.763
-152.0,-48.0,4.764
-160.0,1.0,4.765
-65.0,34.0,4.766
66.0,26.0,4.767
116.0,-2.0,4.768
74.0,-12.0,4.769
11.0,5.0,4.77
-34.0,27.0,4.771
-61.0,37.0,4.772
-53.0,43.0,4.773
-12.0,49.0,4.774
20.0,45.0,4.775
14.0,34.0,4.776
-1.0,31.0,4.777
-5.0,34.0,4.778
-11.0,30.0,4.779
-25.0,12.0,4.78
-18.0,-1.0,4.781
16.0,16.0,4.782
30.0,51.0,4.783
-4.0,68.0,4.784
-40.0,46.0,4.785
-38.0,3.0,4.786
-15.0,-26.0,4.787
-13.0,-21.0,4.788
-37.0,5.0,4.789
-66.0,30.0,4.79
-78.0,42.0,4.791
-56.0,40.0,4.792
-7.0,19.0,4.793
31.0,-19.0,4.794
22.0,-62.0,4.795
-21.0,-91.0,4.796
-53.0,-94.0,4.797
-50.0,-72.0,4.798
-4.0,-44.0,4.799
69.0,-35.0,4.8
141.0,-45.0,4.801
177.0,-50.0,4.802
166.0,-42.0,4.803
135.0,-31.0,4.804
113.0,-16.0,4.805
109.0,14.0,4.806
107.0,58.0,4.807
83.0,77.0,4.808
10.0,52.0,4.809
-114.0,11.0,4.81
-227.0,-2.0,4.811
-244.0,17.0,4.812
-146.0,41.0,4.813
-9.0,64.0,4.814
78.0,101.0,4.815
98.0,151.0,4.816
82.0,186.0,4.817
43.0,186.0,4.818
-21.0,156.0,4.819
-93.0,108.0,4.82
-131.0,33.0,4.821
-109.0,-71.0,4.822
-41.0,-182.0,4.823
47.0,-259.0,4.824
112.0,-276.0,4.825
116.0,-240.0,4.826
48.0,-177.0,4.827
-42.0,-118.0,4.828
-75.0,-83.0,4.829
-30.0,-70.0,4.83
31.0,-56.0,4.831
46.0,-14.0,4.832
25.0,64.0,4.833
15.0,146.0,4.834
23.0,188.0,4.835
26.0,162.0,4.836
18.0,89.0,4.837
8.0,10.0,4.838
-1.0,-74.0,4.839
-10.0,-127.0,4.84
-15.0,-141.0,4.841
-14.0,-109.0,4.842
10.0,-49.0,4.843
23.0,0.0,4.844
1.0,14.0,4.845
-34.0,5.0,4.846
-108.0,4.0,4.847
-165.0,21.0,4.848
-173.0,40.0,4.849
-141.0,48.0,4.85
8.0,51.0,4.851
139.0,56.0,4.852
208.0,55.0,4.853
246.0,43.0,4.854
188.0,34.0,4.855
129.0,50.0,4.856
64.0,87.0,4.857
8.0,120.0,4.858
0.0,109.0,4.859
-10.0,67.0,4.86
-44.0,22.0,4.861
-78.0,-15.0,4.862
-77.0,-59.0,4.863
-48.0,-105.0,4.864
-23.0,-116.0,4.865
-13.0,-80.0,4.866
-15.0,-28.0,4.867
-25.0,-7.0,4.868
-39.0,-8.0,4.869
-46.0,2.0,4.87
-42.0,21.0,4.871
-37.0,17.0,4.872
-18.0,-12.0,4.873
18.0,-28.0,4.874
58.0,-5.0,4.875
79.0,41.0,4.876
81.0,95.0,4.877
86.0,158.0,4.878
87.0,216.0,4.879
50.0,232.0,4.88
-30.0,185.0,4.881
-112.0,110.0,4.882
-142.0,41.0,4.883
-123.0,-10.0,4.884
-97.0,-49.0,4.885
-79.0,-86.0,4.886
-48.0,-124.0,4.887
5.0,-168.0,4.888
51.0,-216.0,4.889
65.0,-257.0,4.89
51.0,-281.0,4.891
22.0,-278.0,4.892
-17.0,-228.0,4.893
-38.0,-137.0,4.894
-15.0,-42.0,4.895
44.0,14.0,4.896
99.0,27.0,4.897
132.0,13.0,4.898
145.0,2.0,4.899
129.0,4.0,4.9
80.0,22.0,4.901
26.0,58.0,4.902
-1.0,88.0,4.903
-9.0,91.0,4.904
-24.0,71.0,4.905
-38.0,57.0,4.906
-37.0,61.0,4.907
-21.0,66.0,4.908
1.0,58.0,4.909
22.0,46.0,4.91
25.0,38.0,4.911
-9.0,34.0,4.912
-58.0,28.0,4.913
-74.0,20.0,4.914
-49.0,23.0,4.915
-31.0,37.0,4.916
-41.0,51.0,4.917
-65.0,49.0,4.918
-80.0,29.0,4.919
-81.0,5.0,4.92
-39.0,-5.0,4.921
5.0,1.0,4.922
59.0,8.0,4.923
95.0,15.0,4.924
69.0,25.0,4.925
49.0,40.0,4.926
45.0,48.0,4.927
31.0,54.0,4.928
-10.0,65.0,4.929
-34.0,75.0,4.93
-3.0,60.0,4.931
26.0,15.0,4.932
48.0,-41.0,4.933
62.0,-83.0,4.934
48.0,-101.0,4.935
26.0,-98.0,4.936
-22.0,-83.0,4.937
-51.0,-66.0,4.938
0.0,-44.0,4.939
49.0,-13.0,4.94
40.0,21.0,4.941
-5.0,45.0,4.942
-32.0,59.0,4.943
-48.0,79.0,4.944
-77.0,102.0,4.945
-102.0,97.0,4.946
-78.0,47.0,4.947
-23.0,-27.0,4.948
-1.0,-100.0,4.949
-26.0,-169.0,4.95
-42.0,-216.0,4.951
0.0,-203.0,4.952
71.0,-139.0,4.953
115.0,-88.0,4.954
118.0,-91.0,4.955
103.0,-107.0,4.956
79.0,-81.0,4.957
40.0,-21.0,4.958
-7.0,26.0,4.959
-48.0,50.0,4.96
-72.0,67.0,4.961
-72.0,80.0,4.962
-46.0,74.0,4.963
-16.0,64.0,4.964
-5.0,67.0,4.965
1.0,74.0,4.966
36.0,61.0,4.967
79.0,41.0,4.968
77.0,37.0,4.969
15.0,38.0,4.97
-52.0,28.0,4.971
-84.0,5.0,4.972
-84.0,-5.0,4.973
-60.0,11.0,4.974
-3.0,44.0,4.975
59.0,71.0,4.976
81.0,76.0,4.977
54.0,63.0,4.978
27.0,74.0,4.979
15.0,116.0,4.98
-10.0,136.0,4.981
-53.0,106.0,4.982
-75.0,63.0,4.983
-61.0,46.0,4.984
-44.0,27.0,4.985
-34.0,-36.0,4.986
-9.0,-113.0,4.987
19.0,-141.0,4.988
13.0,-126.0,4.989
-12.0,-118.0,4.99
-12.0,-127.0,4.991
24.0,-124.0,4.992
65.0,-104.0,4.993
103.0,-90.0,4.994
127.0,-77.0,4.995
104.0,-47.0,4.996
40.0,-11.0,4.997
-22.0,9.0,4.998
-33.0,13.0,4.999
-10.0,10.0,5.0
10.0,-9.0,5.001
29.0,-42.0,5.002
42.0,-57.0,5.003
22.0,-28.0,5.004
-25.0,23.0,5.005
-43.0,56.0,5.006
-15.0,63.0,5.007
3.0,65.0,5.008
-15.0,56.0,5.009
-25.0,25.0,5.01
-7.0,-9.0,5.011
3.0,-9.0,5.012
-8.0,20.0,5.013
-2.0,41.0,5.014
27.0,32.0,5.015
31.0,10.0,5.016
2.0,-6.0,5.017
-20.0,-37.0,5.018
-12.0,-73.0,5.019
-7.0,-90.0,5.02
-25.0,-78.0,5.021
-31.0,-46.0,5.022
-3.0,-17.0,5.023
21.0,4.0,5.024
13.0,24.0,5.025
-5.0,40.0,5.026
-6.0,54.0,5.027
-5.0,63.0,5.028
-15.0,63.0,5.029
-21.0,50.0,5.03
-10.0,28.0,5.031
9.0,12.0,5.032
19.0,5.0,5.033
22.0,-2.0,5.034
17.0,-9.0,5.035
-11.0,2.0,5.036
-51.0,35.0,5.037
-69.0,72.0,5.038
-30.0,91.0,5.039
49.0,84.0,5.04
109.0,55.0,5.041
108.0,28.0,5.042
52.0,17.0,5.043
-18.0,19.0,5.044
-58.0,19.0,5.045
-57.0,12.0,5.046
-39.0,13.0,5.047
-36.0,29.0,5.048
-50.0,44.0,5.049
-58.0,41.0,5.05
-51.0,25.0,5.051
-51.0,9.0,5.052
-72.0,-6.0,5.053
-78.0,-35.0,5.054
-38.0,-73.0,5.055
32.0,-100.0,5.056
83.0,-108.0,5.057
115.0,-109.0,5.058
143.0,-109.0,5.059
147.0,-105.0,5.06
102.0,-89.0,5.061
32.0,-58.0,5.062
-1.0,-27.0,5.063
8.0,-2.0,5.064
13.0,22.0,5.065
0.0,50.0,5.066
-5.0,70.0,5.067
7.0,68.0,5.068
8.0,43.0,5.069
-4.0,15.0,5.07
-3.0,0.0,5.071
11.0,8.0,5.072
14.0,59.0,5.073
-1.0,152.0,5.074
-10.0,239.0,5.075
-11.0,243.0,5.076
-15.0,151.0,5.077
-21.0,17.0,5.078
-15.0,-88.0,5.079
-1.0,-179.0,5.08
0.0,-229.0,5.081
-11.0,-269.0,5.082
-18.0,-275.0,5.083
-18.0,-273.0,5.084
-21.0,-245.0,5.085
-25.0,-202.0,5.086
-19.0,-118.0,5.087
-6.0,-45.0,5.088
-2.0,-7.0,5.089
-5.0,23.0,5.09
-4.0,32.0,5.091
9.0,43.0,5.092
28.0,56.0,5.093
44.0,66.0,5.094
36.0,67.0,5.095
4.0,70.0,5.096
-19.0,82.0,5.097
-9.0,96.0,5.098
15.0,124.0,5.099
28.0,155.0,5.1
4.0,168.0,5.101
-13.0,152.0,5.102
-4.0,107.0,5.103
1.0,47.0,5.104
-8.0,3.0,5.105
-17.0,-11.0,5.106
-26.0,-8.0,5.107
-29.0,-7.0,5.108
-13.0,-8.0,5.109
-7.0,2.0,5.11
-35.0,16.0,5.111
-54.0,16.0,5.112
-45.0,2.0,5.113
-22.0,-3.0,5.114
39.0,11.0,5.115
76.0,35.0,5.116
31.0,49.0,5.117
-10.0,39.0,5.118
-5.0,11.0,5.119
37.0,-12.0,5.12
49.0,-13.0,5.121
20.0,3.0,5.122
7.0,14.0,5.123
32.0,15.0,5.124
43.0,24.0,5.125
24.0,38.0,5.126
26.0,34.0,5.127
61.0,7.0,5.128
54.0,-9.0,5.129
-34.0,2.0,5.13
-127.0,15.0,5.131
-127.0,-2.0,5.132
-51.0,-42.0,5.133
20.0,-77.0,5.134
51.0,-94.0,5.135
53.0,-100.0,5.136
41.0,-100.0,5.137
12.0,-86.0,5.138
-6.0,-51.0,5.139
2.0,-17.0,5.14
18.0,-21.0,5.141
16.0,-73.0,5.142
2.0,-134.0,5.143
-3.0,-141.0,5.144
-7.0,-65.0,5.145
-17.0,58.0,5.146
-14.0,172.0,5.147
3.0,238.0,5.148
16.0,237.0,5.149
5.0,175.0,5.15
-6.0,85.0,5.151
1.0,1.0,5.152
20.0,-66.0,5.153
29.0,-137.0,5.154
24.0,-214.0,5.155
15.0,-264.0,5.156
9.0,-260.0,5.157
2.0,-201.0,5.158
-8.0,-111.0,5.159
-25.0,-16.0,5.16
-31.0,57.0,5.161
-5.0,99.0,5.162
46.0,112.0,5.163
81.0,112.0,5.164
79.0,108.0,5.165
51.0,92.0,5.166
9.0,63.0,5.167
-48.0,35.0,5.168
-102.0,22.0,5.169
-113.0,23.0,5.17
-73.0,28.0,5.171
-25.0,35.0,5.172
0.0,40.0,5.173
0.0,38.0,5.174
-20.0,32.0,5.175
-51.0,40.0,5.176
-60.0,77.0,5.177
-14.0,129.0,5.178
58.0,157.0,5.179
84.0,128.0,5.18
39.0,42.0,5.181
-23.0,-54.0,5.182
-37.0,-117.0,5.183
-12.0,-128.0,5.184
6.0,-111.0,5.185
-2.0,-97.0,5.186
-5.0,-93.0,5.187
23.0,-82.0,5.188
64.0,-56.0,5.189
77.0,-23.0,5.19
41.0,-1.0,5.191
-17.0,9.0,5.192
-51.0,18.0,5.193
-34.0,40.0,5.194
14.0,69.0,5.195
54.0,84.0,5.196
68.0,63.0,5.197
64.0,4.0,5.198
57.0,-59.0,5.199
38.0,-97.0,5.2
12.0,-101.0,5.201
-8.0,-74.0,5.202
-1.0,-40.0,5.203
19.0,-32.0,5.204
27.0,-55.0,5.205
21.0,-79.0,5.206
8.0,-68.0,5.207
-9.0,-29.0,5.208
-34.0,2.0,5.209
-56.0,7.0,5.21
-52.0,2.0,5.211
-23.0,3.0,5.212
0.0,22.0,5.213
4.0,66.0,5.214
-1.0,137.0,5.215
-5.0,210.0,5.216
-6.0,250.0,5.217
-6.0,228.0,5.218
-2.0,151.0,5.219
-1.0,44.0,5.22
-5.0,-61.0,5.221
-10.0,-138.0,5.222
9.0,-184.0,5.223
52.0,-196.0,5.224
89.0,-169.0,5.225
92.0,-119.0,5.226
62.0,-75.0,5.227
20.0,-39.0,5.228
-21.0,4.0,5.229
-55.0,47.0,5.23
-84.0,63.0,5.231
-108.0,50.0,5.232
-124.0,40.0,5.233
-118.0,44.0,5.234
-98.0,44.0,5.235
-75.0,35.0,5.236
-34.0,44.0,5.237
38.0,76.0,5.238
83.0,107.0,5.239
39.0,105.0,5.24
-39.0,67.0,5.241
-35.0,11.0,5.242
48.0,-45.0,5.243
82.0,-68.0,5.244
30.0,-46.0,5.245
-3.0,-24.0,5.246
38.0,-62.0,5.247
61.0,-142.0,5.248
5.0,-189.0,5.249
-47.0,-164.0,5.25
-17.0,-102.0,5.251
35.0,-36.0,5.252
33.0,30.0,5.253
4.0,78.0,5.254
7.0,78.0,5.255
26.0,38.0,5.256
26.0,7.0,5.257
23.0,0.0,5.258
44.0,1.0,5.259
61.0,1.0,5.26
38.0,9.0,5.261
3.0,33.0,5.262
-2.0,54.0,5.263
7.0,56.0,5.264
-5.0,34.0,5.265
-22.0,-6.0,5.266
-6.0,-38.0,5.267
36.0,-16.0,5.268
62.0,59.0,5.269
62.0,116.0,5.27
58.0,87.0,5.271
39.0,0.0,5.272
-22.0,-65.0,5.273
-104.0,-83.0,5.274
-127.0,-86.0,5.275
-65.0,-87.0,5.276
10.0,-67.0,5.277
27.0,-28.0,5.278
1.0,-6.0,5.279
-4.0,-10.0,5.28
28.0,-8.0,5.281
47.0,26.0,5.282
32.0,70.0,5.283
25.0,110.0,5.284
47.0,150.0,5.285
60.0,174.0,5.286
45.0,137.0,5.287
32.0,36.0,5.288
33.0,-63.0,5.289
7.0,-104.0,5.29
-69.0,-92.0,5.291
-144.0,-67.0,5.292
-150.0,-43.0,5.293
-90.0,-21.0,5.294
-9.0,-14.0,5.295
60.0,-17.0,5.296
98.0,-16.0,5.297
79.0,-10.0,5.298
7.0,-12.0,5.299
-77.0,-15.0,5.3
-130.0,-13.0,5.301
-151.0,-11.0,5.302
-139.0,-6.0,5.303
-69.0,-6.0,5.304
42.0,-24.0,5.305
119.0,-37.0,5.306
102.0,-30.0,5.307
39.0,-13.0,5.308
22.0,32.0,5.309
60.0,64.0,5.31
98.0,50.0,5.311
95.0,30.0,5.312
63.0,-11.0,5.313
13.0,-38.0,5.314
-50.0,-22.0,5.315
-101.0,-10.0,5.316
-108.0,-16.0,5.317
-68.0,-17.0,5.318
-11.0,3.0,5.319
27.0,18.0,5.32
43.0,18.0,5.321
50.0,17.0,5.322
44.0,11.0,5.323
15.0,-3.0,5.324
-17.0,-18.0,5.325
-11.0,-20.0,5.326
25.0,-14.0,5.327
34.0,-4.0,5.328
-15.0,16.0,5.329
-60.0,46.0,5.33
-21.0,57.0,5.331
84.0,35.0,5.332
148.0,2.0,5.333
113.0,-10.0,5.334
26.0,-8.0,5.335
-29.0,-13.0,5.336
-37.0,-24.0,5.337
-26.0,-42.0,5.338
-20.0,-47.0,5.339
-27.0,-19.0,5.34
-50.0,52.0,5.341
-68.0,130.0,5.342
-55.0,124.0,5.343
-17.0,-1.0,5.344
13.0,-169.0,5.345
23.0,-245.0,5.346
34.0,-174.0,5.347
42.0,-33.0,5.348
19.0,68.0,5.349
-18.0,91.0,5.35
-24.0,80.0,5.351
-6.0,79.0,5.352
-10.0,88.0,5.353
-25.0,90.0,5.354
-6.0,86.0,5.355
35.0,80.0,5.356
43.0,54.0,5.357
10.0,-10.0,5.358
-16.0,-79.0,5.359
-11.0,-106.0,5.36
6.0,-89.0,5.361
30.0,-61.0,5.362
56.0,-43.0,5.363
62.0,-19.0,5.364
53.0,8.0,5.365
72.0,4.0,5.366
102.0,-42.0,5.367
57.0,-80.0,5.368
-51.0,-61.0,5.369
-97.0,-4.0,5.37
-54.0,39.0,5.371
-51.0,53.0,5.372
-126.0,57.0,5.373
-131.0,53.0,5.374
2.0,33.0,5.375
120.0,21.0,5.376
99.0,38.0,5.377
-14.0,60.0,5.378
-105.0,48.0,5.379
-165.0,8.0,5.38
-189.0,-20.0,5.381
-117.0,-20.0,5.382
43.0,-17.0,5.383
164.0,-25.0,5.384
179.0,-32.0,5.385
155.0,-37.0,5.386
138.0,-52.0,5.387
88.0,-67.0,5.388
12.0,-53.0,5.389
-17.0,-7.0,5.39
-9.0,32.0,5.391
-38.0,37.0,5.392
-84.0,27.0,5.393
-44.0,31.0,5.394
80.0,43.0,5.395
154.0,40.0,5.396
122.0,16.0,5.397
62.0,-20.0,5.398
50.0,-42.0,5.399
40.0,-35.0,5.4
-42.0,-1.0,5.401
-160.0,42.0,5.402
-199.0,57.0,5.403
-115.0,32.0,5.404
0.0,-11.0,5.405
39.0,-36.0,5.406
-5.0,-31.0,5.407
-51.0,-17.0,5.408
-49.0,-16.0,5.409
-40.0,-20.0,5.41
-34.0,-11.0,5.411
26.0,23.0,5.412
152.0,55.0,5.413
213.0,38.0,5.414
98.0,-41.0,5.415
-119.0,-123.0,5.416
-255.0,-133.0,5.417
-253.0,-63.0,5.418
-179.0,22.0,5.419
-109.0,83.0,5.42
-53.0,69.0,5.421
18.0,56.0,5.422
110.0,44.0,5.423
202.0,35.0,5.424
237.0,33.0,5.425
174.0,25.0,5.426
44.0,-2.0,5.427
-47.0,-21.0,5.428
-31.0,-15.0,5.429
56.0,-8.0,5.43
118.0,-1.0,5.431
93.0,2.0,5.432
5.0,-11.0,5.433
-64.0,-22.0,5.434
-38.0,-22.0,5.435
50.0,-20.0,5.436
73.0,-8.0,5.437
-55.0,3.0,5.438
-244.0,-3.0,5.439
-314.0,-19.0,5.44
-212.0,-35.0,5.441
-65.0,-36.0,5.442
15.0,-29.0,5.443
40.0,-31.0,5.444
71.0,-46.0,5.445
106.0,-69.0,5.446
105.0,-80.0,5.447
52.0,-69.0,5.448
-17.0,-31.0,5.449
-40.0,42.0,5.45
17.0,142.0,5.451
108.0,206.0,5.452
141.0,164.0,5.453
104.0,30.0,5.454
71.0,-80.0,5.455
71.0,-86.0,5.456
68.0,-28.0,5.457
48.0,-42.0,5.458
63.0,-10.0,5.459
120.0,13.0,5.46
158.0,13.0,5.461
145.0,12.0,5.462
117.0,13.0,5.463
84.0,14.0,5.464
16.0,12.0,5.465
-90.0,-5.0,5.466
-202.0,-61.0,5.467
-291.0,-100.0,5.468
-338.0,-85.0,5.469
-327.0,-61.0,5.47
-261.0,-14.0,5.471
-132.0,28.0,5.472
81.0,58.0,5.473
300.0,69.0,5.474
333.0,20.0,5.475
125.0,-21.0,5.476
-95.0,-38.0,5.477
-149.0,-52.0,5.478
-113.0,-11.0,5.479
-151.0,20.0,5.48
-191.0,19.0,5.481
-87.0,18.0,5.482
58.0,20.0,5.483
70.0,21.0,5.484
23.0,18.0,5.485
65.0,-3.0,5.486
121.0,-75.0,5.487
65.0,-125.0,5.488
14.0,-106.0,5.489
111.0,-76.0,5.49
229.0,-16.0,5.491
182.0,38.0,5.492
57.0,77.0,5.493
31.0,91.0,5.494
67.0,28.0,5.495
39.0,-25.0,5.496
-17.0,-46.0,5.497
-40.0,-44.0,5.498
-93.0,50.0,5.499
-221.0,139.0,5.5
-271.0,156.0,5.501
-120.0,106.0,5.502
93.0,56.0,5.503
181.0,50.0,5.504
188.0,53.0,5.505
233.0,3.0,5.506
266.0,-83.0,5.507
182.0,-123.0,5.508
5.0,-86.0,5.509
-168.0,-28.0,5.51
-287.0,3.0,5.511
-287.0,11.0,5.512
-92.0,15.0,5.513
207.0,20.0,5.514
358.0,39.0,5.515
248.0,67.0,5.516
29.0,70.0,5.517
-181.0,22.0,5.518
-372.0,-30.0,5.519
-519.0,-34.0,5.52
-479.0,-16.0,5.521
-233.0,-25.0,5.522
-27.0,-49.0,5.523
-51.0,-40.0,5.524
-145.0,-8.0,5.525
-49.0,-5.0,5.526
176.0,-24.0,5.527
278.0,-24.0,5.528
225.0,-6.0,5.529
190.0,-7.0,5.53
189.0,-24.0,5.531
98.0,-24.0,5.532
-40.0,-5.0,5.533
-38.0,1.0,5.534
91.0,-7.0,5.535
151.0,-6.0,5.536
101.0,1.0,5.537
63.0,-8.0,5.538
92.0,-27.0,5.539
84.0,-30.0,5.54
14.0,-15.0,5.541
-16.0,3.0,5.542
11.0,21.0,5.543
2.0,33.0,5.544
-52.0,29.0,5.545
-63.0,0.0,5.546
-14.0,-31.0,5.547
17.0,-46.0,5.548
8.0,-53.0,5.549
3.0,-58.0,5.55
5.0,-25.0,5.551
-21.0,61.0,5.552
-52.0,142.0,5.553
-41.0,131.0,5.554
-12.0,30.0,5.555
-6.0,-64.0,5.556
1.0,-73.0,5.557
40.0,-23.0,5.558
48.0,8.0,5.559
-41.0,-3.0,5.56
-150.0,-16.0,5.561
-138.0,-2.0,5.562
-2.0,9.0,5.563
117.0,-10.0,5.564
128.0,-37.0,5.565
72.0,-38.0,5.566
25.0,-20.0,5.567
10.0,-2.0,5.568
3.0,19.0,5.569
-19.0,43.0,5.57
-63.0,56.0,5.571
-94.0,56.0,5.572
-62.0,49.0,5.573
28.0,37.0,5.574
97.0,16.0,5.575
85.0,-4.0,5.576
28.0,-2.0,5.577
-18.0,8.0,5.578
-30.0,-1.0,5.579
-42.0,-29.0,5.58
-64.0,-49.0,5.581
-73.0,-54.0,5.582
-42.0,-63.0,5.583
8.0,-76.0,5.584
35.0,-68.0,5.585
23.0,-30.0,5.586
10.0,17.0,5.587
24.0,57.0,5.588
52.0,92.0,5.589
61.0,115.0,5.59
46.0,103.0,5.591
24.0,55.0,5.592
0.0,8.0,5.593
-22.0,-3.0,5.594
-25.0,11.0,5.595
-2.0,14.0,5.596
22.0,-1.0,5.597
20.0,-18.0,5.598
16.0,-15.0,5.599
45.0,-8.0,5.6
111.0,-17.0,5.601
174.0,-33.0,5.602
192.0,-38.0,5.603
135.0,-32.0,5.604
4.0,-29.0,5.605
-145.0,-34.0,5.606
-241.0,-44.0,5.607
-275.0,-56.0,5.608
-282.0,-65.0,5.609
-266.0,-59.0,5.61
-186.0,-36.0,5.611
-54.0,-15.0,5.612
44.0,-6.0,5.613
51.0,8.0,5.614
14.0,43.0,5.615
11.0,72.0,5.616
44.0,70.0,5.617
66.0,49.0,5.618
65.0,46.0,5.619
62.0,64.0,5.62
73.0,60.0,5.621
80.0,26.0,5.622
70.0,-1.0,5.623
69.0,6.0,5.624
101.0,20.0,5.625
152.0,8.0,5.626
185.0,-14.0,5.627
173.0,-20.0,5.628
121.0,-16.0,5.629
39.0,-19.0,5.63
-77.0,-26.0,5.631
-215.0,-23.0,5.632
-303.0,-14.0,5.633
-267.0,-13.0,5.634
-135.0,-15.0,5.635
-28.0,-13.0,5.636
-4.0,-8.0,5.637
-7.0,-11.0,5.638
18.0,-17.0,5.639
41.0,-22.0,5.64
54.0,-30.0,5.641
60.0,-38.0,5.642
44.0,-41.0,5.643
29.0,-35.0,5.644
15.0,-23.0,5.645
13.0,-11.0,5.646
46.0,2.0,5.647
66.0,25.0,5.648
42.0,59.0,5.649
25.0,86.0,5.65
34.0,84.0,5.651
39.0,55.0,5.652
26.0,29.0,5.653
16.0,25.0,5.654
19.0,24.0,5.655
19.0,11.0,5.656
7.0,4.0,5.657
-2.0,11.0,5.658
-7.0,16.0,5.659
-27.0,0.0,5.66
-49.0,-26.0,5.661
-27.0,-26.0,5.662
46.0,-10.0,5.663
121.0,-1.0,5.664
134.0,1.0,5.665
75.0,11.0,5.666
-7.0,25.0,5.667
-41.0,27.0,5.668
-5.0,15.0,5.669
42.0,4.0,5.67
24.0,-7.0,5.671
-64.0,-24.0,5.672
-145.0,-44.0,5.673
-153.0,-63.0,5.674
-103.0,-88.0,5.675
-54.0,-111.0,5.676
-28.0,-110.0,5.677
-18.0,-80.0,5.678
-13.0,-38.0,5.679
-19.0,-11.0,5.68
-25.0,-2.0,5.681
-15.0,12.0,5.682
12.0,31.0,5.683
35.0,39.0,5.684
51.0,32.0,5.685
81.0,22.0,5.686
137.0,18.0,5.687
199.0,15.0,5.688
221.0,9.0,5.689
160.0,5.0,5.69
14.0,7.0,5.691
-151.0,11.0,5.692
-229.0,14.0,5.693
-159.0,18.0,5.694
1.0,18.0,5.695
100.0,11.0,5.696
33.0,6.0,5.697
-165.0,4.0,5.698
-309.0,5.0,5.699
-264.0,-4.0,5.7
-97.0,-26.0,5.701
19.0,-38.0,5.702
24.0,-27.0,5.703
-11.0,-1.0,5.704
-30.0,31.0,5.705
-39.0,58.0,5.706
-15.0,66.0,5.707
68.0,45.0,5.708
156.0,13.0,5.709
157.0,-3.0,5.71
102.0,-6.0,5.711
80.0,-10.0,5.712
93.0,-12.0,5.713
74.0,-7.0,5.714
36.0,-4.0,5.715
36.0,-6.0,5.716
53.0,9.0,5.717
31.0,38.0,5.718
7.0,43.0,5.719
57.0,37.0,5.72
153.0,-3.0,5.721
178.0,-30.0,5.722
92.0,-14.0,5.723
-41.0,-5.0,5.724
-156.0,-20.0,5.725
-214.0,-31.0,5.726
-175.0,-29.0,5.727
-53.0,-26.0,5.728
40.0,-24.0,5.729
14.0,-17.0,5.73
-60.0,4.0,5.731
-59.0,16.0,5.732
8.0,2.0,5.733
24.0,-11.0,5.734
-35.0,-21.0,5.735
-77.0,-25.0,5.736
-54.0,-7.0,5.737
-19.0,13.0,5.738
-6.0,37.0,5.739
11.0,40.0,5.74
46.0,27.0,5.741
59.0,11.0,5.742
54.0,-5.0,5.743
84.0,-11.0,5.744
150.0,-5.0,5.745
188.0,-2.0,5.746
176.0,-15.0,5.747
139.0,-33.0,5.748
64.0,-31.0,5.749
-67.0,-16.0,5.75
-198.0,-7.0,5.751
-222.0,-7.0,5.752
-122.0,-2.0,5.753
7.0,3.0,5.754
64.0,-5.0,5.755
15.0,-14.0,5.756
-94.0,-11.0,5.757
-203.0,2.0,5.758
-224.0,12.0,5.759
-160.0,13.0,5.76
-80.0,15.0,5.761
-28.0,16.0,5.762
15.0,4.0,5.763
55.0,-12.0,5.764
64.0,-12.0,5.765
54.0,0.0,5.766
75.0,13.0,5.767
119.0,26.0,5.768
119.0,34.0,5.769
65.0,29.0,5.77
15.0,3.0,5.771
3.0,-17.0,5.772
14.0,-12.0,5.773
39.0,-1.0,5.774
88.0,-6.0,5.775
123.0,-19.0,5.776
95.0,-15.0,5.777
20.0,-2.0,5.778
-22.0,2.0,5.779
-22.0,-5.0,5.78
-43.0,-7.0,5.781
-91.0,-1.0,5.782
-89.0,-1.0,5.783
-23.0,-9.0,5.784
16.0,-16.0,5.785
-27.0,-19.0,5.786
-82.0,-21.0,5.787
-82.0,-18.0,5.788
-47.0,-2.0,5.789
-14.0,23.0,5.79
30.0,38.0,5.791
85.0,37.0,5.792
106.0,20.0,5.793
77.0,3.0,5.794
51.0,-3.0,5.795
52.0,-3.0,5.796
46.0,-9.0,5.797
12.0,-25.0,5.798
-13.0,-39.0,5.799
-7.0,-37.0,5.8
-2.0,-22.0,5.801
-11.0,0.0,5.802
-2.0,23.0,5.803
32.0,33.0,5.804
55.0,20.0,5.805
51.0,-6.0,5.806
50.0,-13.0,5.807
56.0,13.0,5.808
22.0,46.0,5.809
-65.0,51.0,5.81
-137.0,33.0,5.811
-130.0,14.0,5.812
-67.0,6.0,5.813
-16.0,-3.0,5.814
0.0,-18.0,5.815
11.0,-36.0,5.816
43.0,-51.0,5.817
88.0,-59.0,5.818
110.0,-46.0,5.819
85.0,-9.0,5.82
4.0,41.0,5.821
-110.0,81.0,5.822
-200.0,88.0,5.823
-186.0,59.0,5.824
-51.0,27.0,5.825
102.0,13.0,5.826
147.0,8.0,5.827
89.0,-9.0,5.828
33.0,-31.0,5.829
9.0,-36.0,5.83
-37.0,-29.0,5.831
-89.0,-33.0,5.832
-61.0,-45.0,5.833
28.0,-41.0,5.834
67.0,-20.0,5.835
38.0,-4.0,5.836
35.0,0.0,5.837
77.0,-2.0,5.838
80.0,-13.0,5.839
13.0,-32.0,5.84
-43.0,-46.0,5.841
-57.0,-29.0,5.842
-72.0,6.0,5.843
-85.0,33.0,5.844
-52.0,39.0,5.845
-3.0,30.0,5.846
-1.0,12.0,5.847
-28.0,-7.0,5.848
-15.0,-16.0,5.849
26.0,-12.0,5.85
24.0,-3.0,5.851
-14.0,4.0,5.852
-8.0,8.0,5.853
43.0,4.0,5.854
61.0,-3.0,5.855
5.0,-5.0,5.856
-67.0,5.0,5.857
-110.0,16.0,5.858
-107.0,13.0,5.859
-56.0,0.0,5.86
33.0,-16.0,5.861
120.0,-25.0,5.862
154.0,-30.0,5.863
119.0,-25.0,5.864
59.0,-4.0,5.865
21.0,23.0,5.866
8.0,31.0,5.867
-8.0,10.0,5.868
-26.0,-20.0,5.869
-21.0,-31.0,5.87
14.0,-17.0,5.871
43.0,6.0,5.872
38.0,24.0,5.873
20.0,31.0,5.874
19.0,32.0,5.875
24.0,26.0,5.876
12.0,21.0,5.877
-12.0,26.0,5.878
-19.0,45.0,5.879
-8.0,56.0,5.88
-2.0,42.0,5.881
-1.0,27.0,5.882
17.0,5.0,5.883
54.0,-14.0,5.884
86.0,-29.0,5.885
83.0,-37.0,5.886
39.0,-23.0,5.887
-25.0,-13.0,5.888
-57.0,-11.0,5.889
-59.0,-13.0,5.89
-95.0,-26.0,5.891
-179.0,-34.0,5.892
-209.0,-22.0,5.893
-114.0,-10.0,5.894
14.0,2.0,5.895
46.0,11.0,5.896
13.0,6.0,5.897
0.0,0.0,5.898
19.0,-7.0,5.899
10.0,-12.0,5.9
4.0,-10.0,5.901
60.0,3.0,5.902
120.0,13.0,5.903
102.0,6.0,5.904
48.0,-8.0,5.905
51.0,-11.0,5.906
76.0,-10.0,5.907
32.0,-16.0,5.908
-52.0,-21.0,5.909
-79.0,-14.0,5.91
-39.0,7.0,5.911
-4.0,22.0,5.912
-7.0,20.0,5.913
-23.0,6.0,5.914
-41.0,-18.0,5.915
-64.0,-47.0,5.916
-70.0,-57.0,5.917
-41.0,-31.0,5.918
9.0,19.0,5.919
41.0,59.0,5.92
44.0,64.0,5.921
30.0,49.0,5.922
9.0,32.0,5.923
-12.0,24.0,5.924
-22.0,20.0,5.925
-8.0,22.0,5.926
24.0,18.0,5.927
53.0,7.0,5.928
51.0,-7.0,5.929
17.0,-18.0,5.93
-16.0,-25.0,5.931
-3.0,-26.0,5.932
65.0,-22.0,5.933
154.0,-20.0,5.934
197.0,-24.0,5.935
169.0,-24.0,5.936
93.0,-15.0,5.937
-13.0,-7.0,5.938
-136.0,-11.0,5.939
-239.0,-17.0,5.94
-245.0,-29.0,5.941
-127.0,-39.0,5.942
15.0,-39.0,5.943
49.0,-34.0,5.944
-12.0,-12.0,5.945
-51.0,10.0,5.946
-29.0,32.0,5.947
-19.0,49.0,5.948
-47.0,46.0,5.949
-53.0,37.0,5.95
-14.0,14.0,5.951
15.0,-6.0,5.952
10.0,-22.0,5.953
18.0,-28.0,5.954
56.0,-4.0,5.955
83.0,24.0,5.956
83.0,66.0,5.957
85.0,104.0,5.958
110.0,101.0,5.959
130.0,48.0,5.96
128.0,-33.0,5.961
115.0,-89.0,5.962
96.0,-92.0,5.963
54.0,-65.0,5.964
-12.0,-30.0,5.965
-91.0,16.0,5.966
-177.0,85.0,5.967
-248.0,129.0,5.968
-264.0,88.0,5.969
-210.0,-4.0,5.97
-115.0,-47.0,5.971
-8.0,-19.0,5.972
89.0,5.0,5.973
140.0,-23.0,5.974
108.0,-53.0,5.975
29.0,-38.0,5.976
-13.0,-14.0,5.977
22.0,-19.0,5.978
89.0,-27.0,5.979
125.0,-2.0,5.98
114.0,28.0,5.981
88.0,28.0,5.982
74.0,11.0,5.983
56.0,11.0,5.984
-13.0,10.0,5.985
-137.0,-6.0,5.986
-234.0,-25.0,5.987
-195.0,-25.0,5.988
-20.0,-20.0,5.989
138.0,-24.0,5.99
130.0,-29.0,5.991
15.0,-23.0,5.992
-34.0,-17.0,5.993
31.0,-12.0,5.994
96.0,-10.0,5.995
83.0,-6.0,5.996
59.0,-6.0,5.997
77.0,-10.0,5.998
87.0,-4.0,5.999
20.0,7.0,6.0
-93.0,3.0,6.001
-180.0,-7.0,6.002
-202.0,-10.0,6.003
-156.0,-6.0,6.004
-65.0,-9.0,6.005
14.0,-24.0,6.006
28.0,-35.0,6.007
5.0,-37.0,6.008
5.0,-27.0,6.009
32.0,-11.0,6.01
42.0,-2.0,6.011
30.0,-12.0,6.012
28.0,-31.0,6.013
37.0,-20.0,6.014
32.0,40.0,6.015
10.0,117.0,6.016
-4.0,162.0,6.017
-6.0,152.0,6.018
-3.0,107.0,6.019
6.0,62.0,6.02
25.0,34.0,6.021
42.0,22.0,6.022
50.0,14.0,6.023
55.0,7.0,6.024
47.0,1.0,6.025
16.0,-9.0,6.026
-30.0,-30.0,6.027
-74.0,-47.0,6.028
-93.0,-44.0,6.029
-63.0,-35.0,6.03
30.0,-42.0,6.031
134.0,-59.0,6.032
162.0,-51.0,6.033
104.0,-23.0,6.034
31.0,-9.0,6.035
-16.0,-19.0,6.036
-67.0,-27.0,6.037
-127.0,-21.0,6.038
-113.0,-11.0,6.039
-9.0,-9.0,6.04
61.0,-10.0,6.041
14.0,-4.0,6.042
-55.0,-3.0,6.043
-30.0,-8.0,6.044
30.0,-9.0,6.045
3.0,-2.0,6.046
-71.0,6.0,6.047
-64.0,6.0,6.048
29.0,2.0,6.049
91.0,-3.0,6.05
81.0,-9.0,6.051
48.0,-12.0,6.052
18.0,-11.0,6.053
-26.0,-6.0,6.054
-64.0,-3.0,6.055
-55.0,0.0,6.056
-18.0,7.0,6.057
-4.0,10.0,6.058
-16.0,8.0,6.059
-18.0,3.0,6.06
-5.0,-4.0,6.061
-1.0,-9.0,6.062
-4.0,-13.0,6.063
5.0,-7.0,6.064
16.0,5.0,6.065
9.0,19.0,6.066
0.0,18.0,6.067
9.0,6.0,6.068
23.0,-3.0,6.069
21.0,-7.0,6.07
16.0,-8.0,6.071
22.0,-7.0,6.072
28.0,-3.0,6.073
22.0,-3.0,6.074
15.0,-16.0,6.075
17.0,-34.0,6.076
18.0,-25.0,6.077
5.0,13.0,6.078
-7.0,64.0,6.079
-7.0,99.0,6.08
-9.0,105.0,6.081
-22.0,91.0,6.082
-33.0,61.0,6.083
-23.0,37.0,6.084
-6.0,30.0,6.085
3.0,20.0,6.086
17.0,-6.0,6.087
48.0,-32.0,6.088
79.0,-36.0,6.089
75.0,-30.0,6.09
31.0,-35.0,6.091
-23.0,-47.0,6.092
-50.0,-42.0,6.093
-25.0,-24.0,6.094
38.0,-16.0,6.095
79.0,-19.0,6.096
49.0,-19.0,6.097
-49.0,-19.0,6.098
-138.0,-21.0,6.099
-158.0,-23.0,6.1
-108.0,-19.0,6.101
-20.0,-13.0,6.102
61.0,-9.0,6.103
73.0,-6.0,6.104
4.0,0.0,6.105
-62.0,-2.0,6.106
-44.0,-15.0,6.107
24.0,-26.0,6.108
53.0,-22.0,6.109
41.0,-13.0,6.11
47.0,-14.0,6.111
72.0,-16.0,6.112
64.0,-11.0,6.113
22.0,-6.0,6.114
-8.0,-2.0,6.115
-17.0,4.0,6.116
-28.0,16.0,6.117
-44.0,26.0,6.118
-39.0,32.0,6.119
-14.0,38.0,6.12
10.0,36.0,6.121
33.0,23.0,6.122
57.0,5.0,6.123
67.0,3.0,6.124
45.0,13.0,6.125
11.0,14.0,6.126
-5.0,2.0,6.127
-3.0,-7.0,6.128
0.0,-6.0,6.129
9.0,-9.0,6.13
17.0,-21.0,6.131
5.0,-32.0,6.132
-21.0,-36.0,6.133
-33.0,-38.0,6.134
-25.0,-34.0,6.135
-15.0,-17.0,6.136
-9.0,9.0,6.137
11.0,18.0,6.138
34.0,6.0,6.139
27.0,-1.0,6.14
-4.0,22.0,6.141
-15.0,64.0,6.142
1.0,83.0,6.143
-4.0,61.0,6.144
-43.0,24.0,6.145
-58.0,4.0,6.146
-23.0,2.0,6.147
11.0,3.0,6.148
-15.0,4.0,6.149
-76.0,6.0,6.15
-111.0,6.0,6.151
-107.0,-1.0,6.152
-89.0,-9.0,6.153
-66.0,-11.0,6.154
-8.0,-4.0,6.155
101.0,0.0,6.156
218.0,-2.0,6.157
285.0,-14.0,6.158
270.0,-25.0,6.159
191.0,-36.0,6.16
82.0,-55.0,6.161
-39.0,-82.0,6.162
-133.0,-108.0,6.163
-147.0,-122.0,6.164
-89.0,-109.0,6.165
-20.0,-60.0,6.166
27.0,16.0,6.167
72.0,98.0,6.168
94.0,150.0,6.169
59.0,174.0,6.17
4.0,175.0,6.171
-5.0,143.0,6.172
11.0,70.0,6.173
-20.0,-5.0,6.174
-73.0,-27.0,6.175
-68.0,-4.0,6.176
-25.0,6.0,6.177
-28.0,-18.0,6.178
-76.0,-36.0,6.179
-93.0,-28.0,6.18
-77.0,-26.0,6.181
-114.0,-40.0,6.182
-219.0,-46.0,6.183
-300.0,-31.0,6.184
-273.0,-21.0,6.185
-139.0,-27.0,6.186
66.0,-31.0,6.187
290.0,-26.0,6.188
448.0,-22.0,6.189
455.0,-25.0,6.19
318.0,-21.0,6.191
139.0,-14.0,6.192
29.0,-20.0,6.193
0.0,-29.0,6.194
-9.0,-18.0,6.195
-37.0,12.0,6.196
-53.0,31.0,6.197
-30.0,19.0,6.198
0.0,-3.0,6.199
-8.0,-7.0,6.2
-34.0,7.0,6.201
-46.0,22.0,6.202
-53.0,20.0,6.203
-73.0,3.0,6.204
-92.0,-15.0,6.205
-83.0,-27.0,6.206
-63.0,-25.0,6.207
-58.0,3.0,6.208
-63.0,53.0,6.209
-53.0,87.0,6.21
-20.0,67.0,6.211
15.0,10.0,6.212
36.0,-25.0,6.213
35.0,-13.0,6.214
20.0,3.0,6.215
6.0,-9.0,6.216
-3.0,-32.0,6.217
-13.0,-36.0,6.218
-13.0,-23.0,6.219
-9.0,-18.0,6.22
-19.0,-21.0,6.221
-36.0,-18.0,6.222
3.0,-23.0,6.223
127.0,-49.0,6.224
242.0,-61.0,6.225
214.0,-12.0,6.226
41.0,76.0,6.227
-135.0,127.0,6.228
-191.0,105.0,6.229
-129.0,48.0,6.23
-28.0,11.0,6.231
37.0,10.0,6.232
34.0,12.0,6.233
-8.0,-2.0,6.234
-27.0,-18.0,6.235
-6.0,-16.0,6.236
8.0,-1.0,6.237
-25.0,3.0,6.238
-77.0,-4.0,6.239
-110.0,-10.0,6.24
-130.0,-12.0,6.241
-136.0,-15.0,6.242
-66.0,-21.0,6.243
107.0,-22.0,6.244
279.0,-13.0,6.245
307.0,-7.0,6.246
200.0,-10.0,6.247
92.0,-12.0,6.248
60.0,-9.0,6.249
47.0,0.0,6.25
4.0,5.0,6.251
-20.0,6.0,6.252
15.0,8.0,6.253
56.0,17.0,6.254
32.0,40.0,6.255
-18.0,65.0,6.256
-24.0,84.0,6.257
1.0,89.0,6.258
-9.0,81.0,6.259
-62.0,54.0,6.26
-98.0,-1.0,6.261
-86.0,-70.0,6.262
-51.0,-124.0,6.263
-13.0,-142.0,6.264
24.0,-126.0,6.265
35.0,-96.0,6.266
0.0,-73.0,6.267
-50.0,-63.0,6.268
-69.0,-64.0,6.269
-51.0,-69.0,6.27
-25.0,-76.0,6.271
-2.0,-77.0,6.272
15.0,-65.0,6.273
22.0,-37.0,6.274
19.0,-3.0,6.275
13.0,30.0,6.276
4.0,58.0,6.277
-14.0,73.0,6.278
-25.0,69.0,6.279
-14.0,52.0,6.28
5.0,41.0,6.281
0.0,48.0,6.282
-22.0,57.0,6.283
-29.0,55.0,6.284
-19.0,51.0,6.285
-14.0,47.0,6.286
-18.0,39.0,6.287
-14.0,30.0,6.288
-10.0,29.0,6.289
-15.0,29.0,6.29
1.0,17.0,6.291
70.0,-1.0,6.292
158.0,-4.0,6.293
185.0,5.0,6.294
114.0,7.0,6.295
-8.0,-3.0,6.296
-106.0,-12.0,6.297
-152.0,-14.0,6.298
-130.0,-4.0,6.299
-73.0,11.0,6.3
-32.0,46.0,6.301
-29.0,71.0,6.302
-18.0,61.0,6.303
28.0,49.0,6.304
68.0,29.0,6.305
47.0,13.0,6.306
3.0,13.0,6.307
5.0,11.0,6.308
45.0,4.0,6.309
61.0,-2.0,6.31
42.0,-4.0,6.311
13.0,-7.0,6.312
-35.0,-7.0,6.313
-117.0,-9.0,6.314
-184.0,-14.0,6.315
-165.0,-21.0,6.316
-71.0,-34.0,6.317
49.0,-46.0,6.318
168.0,-50.0,6.319
259.0,-56.0,6.32
265.0,-58.0,6.321
238.0,-46.0,6.322
105.0,-30.0,6.323
3.0,-22.0,6.324
-6.0,-20.0,6.325
-21.0,-15.0,6.326
-50.0,-8.0,6.327
-67.0,1.0,6.328
-46.0,15.0,6.329
-29.0,29.0,6.33
-27.0,32.0,6.331
-23.0,32.0,6.332
-13.0,49.0,6.333
-12.0,82.0,6.334
-38.0,84.0,6.335
-52.0,33.0,6.336
-27.0,-37.0,6.337
-2.0,-94.0,6.338
-9.0,-127.0,6.339
-53.0,-153.0,6.34
-66.0,-172.0,6.341
-36.0,-154.0,6.342
-15.0,-106.0,6.343
-25.0,-59.0,6.344
-33.0,-31.0,6.345
-14.0,-3.0,6.346
8.0,27.0,6.347
15.0,56.0,6.348
18.0,83.0,6.349
29.0,110.0,6.35
45.0,129.0,6.351
66.0,124.0,6.352
85.0,104.0,6.353
86.0,89.0,6.354
53.0,85.0,6.355
6.0,73.0,6.356
-25.0,49.0,6.357
-39.0,12.0,6.358
-42.0,-25.0,6.359
-39.0,-60.0,6.36
-36.0,-86.0,6.361
-49.0,-92.0,6.362
-62.0,-76.0,6.363
-49.0,-48.0,6.364
-17.0,-24.0,6.365
-2.0,-7.0,6.366
-9.0,-1.0,6.367
-14.0,-3.0,6.368
0.0,-7.0,6.369
20.0,-8.0,6.37
30.0,-13.0,6.371
26.0,-17.0,6.372
13.0,-16.0,6.373
11.0,-4.0,6.374
35.0,9.0,6.375
59.0,16.0,6.376
44.0,23.0,6.377
-1.0,28.0,6.378
-12.0,29.0,6.379
16.0,25.0,6.38
25.0,22.0,6.381
-12.0,36.0,6.382
-36.0,62.0,6.383
-10.0,79.0,6.384
31.0,78.0,6.385
43.0,60.0,6.386
39.0,31.0,6.387
33.0,-7.0,6.388
19.0,-46.0,6.389
4.0,-71.0,6.39
16.0,-77.0,6.391
33.0,-73.0,6.392
14.0,-66.0,6.393
-40.0,-46.0,6.394
-70.0,-10.0,6.395
-52.0,32.0,6.396
-23.0,59.0,6.397
-20.0,55.0,6.398
-25.0,34.0,6.399
-22.0,18.0,6.4
-14.0,16.0,6.401
-10.0,26.0,6.402
-5.0,29.0,6.403
3.0,23.0,6.404
9.0,11.0,6.405
7.0,-8.0,6.406
11.0,-36.0,6.407
28.0,-60.0,6.408
53.0,-68.0,6.409
78.0,-64.0,6.41
93.0,-59.0,6.411
85.0,-52.0,6.412
43.0,-31.0,6.413
-12.0,4.0,6.414
-51.0,41.0,6.415
-64.0,68.0,6.416
-64.0,82.0,6.417
-51.0,72.0,6.418
-13.0,48.0,6.419
29.0,27.0,6.42
29.0,22.0,6.421
-19.0,28.0,6.422
-62.0,22.0,6.423
-56.0,5.0,6.424
-29.0,0.0,6.425
-13.0,13.0,6.426
-4.0,25.0,6.427
5.0,11.0,6.428
-3.0,-19.0,6.429
-34.0,-46.0,6.43
-36.0,-53.0,6.431
25.0,-50.0,6.432
106.0,-44.0,6.433
125.0,-34.0,6.434
75.0,-16.0,6.435
18.0,3.0,6.436
-5.0,7.0,6.437
-5.0,-19.0,6.438
6.0,-62.0,6.439
36.0,-93.0,6.44
66.0,-102.0,6.441
57.0,-95.0,6.442
10.0,-85.0,6.443
-29.0,-68.0,6.444
-42.0,-35.0,6.445
-53.0,-3.0,6.446
-67.0,10.0,6.447
-56.0,7.0,6.448
-20.0,12.0,6.449
8.0,28.0,6.45
15.0,40.0,6.451
18.0,55.0,6.452
13.0,85.0,6.453
-17.0,114.0,6.454
-50.0,107.0,6.455
-39.0,64.0,6.456
-1.0,23.0,6.457
19.0,-2.0,6.458
11.0,-16.0,6.459
0.0,-26.0,6.46
-3.0,-23.0,6.461
-15.0,0.0,6.462
-17.0,19.0,6.463
17.0,17.0,6.464
53.0,7.0,6.465
42.0,4.0,6.466
4.0,4.0,6.467
5.0,-4.0,6.468
42.0,-8.0,6.469
47.0,1.0,6.47
6.0,13.0,6.471
-22.0,11.0,6.472
-12.0,0.0,6.473
8.0,-2.0,6.474
16.0,9.0,6.475
31.0,24.0,6.476
55.0,33.0,6.477
49.0,37.0,6.478
-3.0,41.0,6.479
-57.0,44.0,6.48
-68.0,41.0,6.481
-48.0,32.0,6.482
-23.0,19.0,6.483
0.0,13.0,6.484
18.0,9.0,6.485
14.0,-4.0,6.486
0.0,-26.0,6.487
13.0,-40.0,6.488
45.0,-41.0,6.489
46.0,-37.0,6.49
6.0,-32.0,6.491
-30.0,-14.0,6.492
-33.0,3.0,6.493
-20.0,-14.0,6.494
-15.0,-66.0,6.495
-13.0,-106.0,6.496
0.0,-98.0,6.497
13.0,-67.0,6.498
23.0,-49.0,6.499
33.0,-41.0,6.5
40.0,-24.0,6.501
27.0,1.0,6.502
-14.0,11.0,6.503
-59.0,8.0,6.504
-71.0,11.0,6.505
-42.0,11.0,6.506
-1.0,-9.0,6.507
22.0,-32.0,6.508
30.0,-31.0,6.509
47.0,-6.0,6.51
67.0,15.0,6.511
52.0,27.0,6.512
4.0,41.0,6.513
-24.0,51.0,6.514
-6.0,39.0,6.515
30.0,15.0,6.516
40.0,5.0,6.517
16.0,11.0,6.518
-15.0,21.0,6.519
-39.0,27.0,6.52
-47.0,32.0,6.521
-37.0,44.0,6.522
-21.0,55.0,6.523
-20.0,54.0,6.524
-23.0,44.0,6.525
6.0,27.0,6.526
83.0,11.0,6.527
155.0,1.0,6.528
162.0,-6.0,6.529
94.0,-15.0,6.53
-19.0,-30.0,6.531
-136.0,-50.0,6.532
-204.0,-70.0,6.533
-178.0,-80.0,6.534
-82.0,-66.0,6.535
-8.0,-28.0,6.536
-5.0,9.0,6.537
-27.0,32.0,6.538
-14.0,43.0,6.539
19.0,60.0,6.54
28.0,75.0,6.541
16.0,65.0,6.542
22.0,20.0,6.543
35.0,-24.0,6.544
17.0,-39.0,6.545
-19.0,-32.0,6.546
-29.0,-26.0,6.547
-5.0,-20.0,6.548
20.0,-7.0,6.549
42.0,9.0,6.55
80.0,19.0,6.551
114.0,26.0,6.552
108.0,34.0,6.553
70.0,20.0,6.554
39.0,-32.0,6.555
24.0,-86.0,6.556
8.0,-100.0,6.557
-11.0,-81.0,6.558
-15.0,-67.0,6.559
-18.0,-71.0,6.56
-16.0,-62.0,6.561
-12.0,-21.0,6.562
1.0,17.0,6.563
11.0,29.0,6.564
14.0,30.0,6.565
14.0,43.0,6.566
2.0,56.0,6.567
-10.0,48.0,6.568
-22.0,26.0,6.569
-27.0,14.0,6.57
-12.0,17.0,6.571
3.0,21.0,6.572
19.0,24.0,6.573
27.0,31.0,6.574
10.0,40.0,6.575
-4.0,37.0,6.576
-12.0,23.0,6.577
-13.0,5.0,6.578
-9.0,6.0,6.579
-37.0,34.0,6.58
-64.0,72.0,6.581
-49.0,100.0,6.582
-16.0,88.0,6.583
-13.0,31.0,6.584
-25.0,-43.0,6.585
-9.0,-91.0,6.586
24.0,-85.0,6.587
28.0,-44.0,6.588
7.0,-8.0,6.589
3.0,-1.0,6.59
14.0,-1.0,6.591
-3.0,3.0,6.592
-47.0,0.0,6.593
-69.0,-16.0,6.594
-45.0,-21.0,6.595
-3.0,6.0,6.596
25.0,42.0,6.597
34.0,51.0,6.598
27.0,27.0,6.599
12.0,-19.0,6.6
7.0,-83.0,6.601
18.0,-132.0,6.602
36.0,-141.0,6.603
58.0,-114.0,6.604
86.0,-90.0,6.605
91.0,-80.0,6.606
42.0,-57.0,6.607
-38.0,-12.0,6.608
-67.0,22.0,6.609
-4.0,25.0,6.61
75.0,18.0,6.611
82.0,22.0,6.612
8.0,29.0,6.613
-69.0,31.0,6.614
-95.0,38.0,6.615
-78.0,52.0,6.616
-51.0,61.0,6.617
-24.0,69.0,6.618
-6.0,92.0,6.619
-1.0,120.0,6.62
0.0,119.0,6.621
19.0,98.0,6.622
48.0,87.0,6.623
53.0,80.0,6.624
24.0,20.0,6.625
-3.0,-97.0,6.626
-1.0,-190.0,6.627
17.0,-182.0,6.628
24.0,-101.0,6.629
22.0,-28.0,6.63
23.0,13.0,6.631
20.0,56.0,6.632
4.0,94.0,6.633
-10.0,81.0,6.634
-4.0,23.0,6.635
5.0,-18.0,6.636
2.0,-21.0,6.637
-7.0,-25.0,6.638
-12.0,-57.0,6.639
-16.0,-96.0,6.64
-20.0,-100.0,6.641
-11.0,-75.0,6.642
34.0,-51.0,6.643
64.0,-26.0,6.644
44.0,11.0,6.645
26.0,46.0,6.646
18.0,56.0,6.647
11.0,56.0,6.648
10.0,77.0,6.649
6.0,103.0,6.65
-7.0,83.0,6.651
-27.0,11.0,6.652
-64.0,-64.0,6.653
-87.0,-91.0,6.654
-61.0,-62.0,6.655
-45.0,-9.0,6.656
-59.0,30.0,6.657
-70.0,53.0,6.658
-29.0,64.0,6.659
54.0,66.0,6.66
97.0,46.0,6.661
67.0,11.0,6.662
26.0,-10.0,6.663
17.0,-3.0,6.664
14.0,13.0,6.665
-13.0,14.0,6.666
-37.0,-6.0,6.667
-34.0,-41.0,6.668
-7.0,-75.0,6.669
36.0,-94.0,6.67
89.0,-91.0,6.671
122.0,-71.0,6.672
101.0,-38.0,6.673
42.0,9.0,6.674
-8.0,59.0,6.675
-51.0,83.0,6.676
-98.0,66.0,6.677
-106.0,15.0,6.678
-23.0,-32.0,6.679
70.0,-60.0,6.68
77.0,-74.0,6.681
26.0,-75.0,6.682
16.0,-61.0,6.683
36.0,-36.0,6.684
4.0,-7.0,6.685
-77.0,23.0,6.686
-118.0,47.0,6.687
-94.0,48.0,6.688
-48.0,27.0,6.689
3.0,17.0,6.69
66.0,48.0,6.691
94.0,97.0,6.692
56.0,107.0,6.693
-3.0,65.0,6.694
-20.0,21.0,6.695
-14.0,17.0,6.696
-27.0,36.0,6.697
-52.0,37.0,6.698
-53.0,5.0,6.699
-36.0,-48.0,6.7
-13.0,-93.0,6.701
44.0,-97.0,6.702
121.0,-59.0,6.703
149.0,-22.0,6.704
99.0,-32.0,6.705
43.0,-73.0,6.706
40.0,-89.0,6.707
62.0,-55.0,6.708
62.0,-6.0,6.709
23.0,28.0,6.71
-62.0,48.0,6.711
-175.0,60.0,6.712
-228.0,52.0,6.713
-161.0,26.0,6.714
-52.0,11.0,6.715
0.0,30.0,6.716
19.0,65.0,6.717
63.0,82.0,6.718
93.0,73.0,6.719
36.0,49.0,6.72
-47.0,23.0,6.721
-45.0,4.0,6.722
25.0,4.0,6.723
69.0,29.0,6.724
81.0,59.0,6.725
109.0,50.0,6.726
139.0,-8.0,6.727
115.0,-76.0,6.728
51.0,-107.0,6.729
-18.0,-109.0,6.73
-113.0,-120.0,6.731
-233.0,-125.0,6.732
-279.0,-73.0,6.733
-181.0,22.0,6.734
-22.0,86.0,6.735
85.0,84.0,6.736
136.0,55.0,6.737
181.0,36.0,6.738
187.0,12.0,6.739
107.0,-31.0,6.74
0.0,-64.0,6.741
-31.0,-39.0,6.742
2.0,24.0,6.743
17.0,65.0,6.744
1.0,35.0,6.745
11.0,-63.0,6.746
42.0,-171.0,6.747
42.0,-213.0,6.748
18.0,-166.0,6.749
22.0,-85.0,6.75
46.0,-32.0,6.751
39.0,3.0,6.752
-1.0,69.0,6.753
-25.0,162.0,6.754
-42.0,219.0,6.755
-102.0,200.0,6.756
-176.0,134.0,6.757
-177.0,61.0,6.758
-70.0,5.0,6.759
38.0,-41.0,6.76
53.0,-77.0,6.761
13.0,-78.0,6.762
-1.0,-43.0,6.763
15.0,-6.0,6.764
36.0,9.0,6.765
90.0,8.0,6.766
159.0,20.0,6.767
127.0,45.0,6.768
-49.0,70.0,6.769
-208.0,85.0,6.77
-173.0,79.0,6.771
0.0,41.0,6.772
87.0,-32.0,6.773
-2.0,-109.0,6.774
-138.0,-144.0,6.775
-165.0,-125.0,6.776
-94.0,-85.0,6.777
-32.0,-54.0,6.778
-38.0,-22.0,6.779
-37.0,26.0,6.78
57.0,83.0,6.781
190.0,122.0,6.782
228.0,118.0,6.783
164.0,76.0,6.784
119.0,21.0,6.785
150.0,-23.0,6.786
165.0,-49.0,6.787
93.0,-62.0,6.788
-35.0,-66.0,6.789
-152.0,-57.0,6.79
-226.0,-35.0,6.791
-208.0,-22.0,6.792
-57.0,-32.0,6.793
117.0,-50.0,6.794
123.0,-40.0,6.795
-47.0,7.0,6.796
-172.0,55.0,6.797
-124.0,82.0,6.798
-17.0,94.0,6.799
-18.0,99.0,6.8
-95.0,82.0,6.801
-99.0,44.0,6.802
-2.0,3.0,6.803
105.0,-28.0,6.804
159.0,-57.0,6.805
166.0,-81.0,6.806
141.0,-78.0,6.807
104.0,-37.0,6.808
88.0,18.0,6.809
78.0,53.0,6.81
31.0,47.0,6.811
-49.0,-2.0,6.812
-91.0,-55.0,6.813
-54.0,-55.0,6.814
11.0,-7.0,6.815
33.0,13.0,6.816
-2.0,-18.0,6.817
-61.0,-35.0,6.818
-104.0,37.0,6.819
-129.0,135.0,6.82
-144.0,119.0,6.821
-124.0,-8.0,6.822
-37.0,-110.0,6.823
78.0,-106.0,6.824
148.0,-61.0,6.825
157.0,-60.0,6.826
152.0,-85.0,6.827
137.0,-73.0,6.828
76.0,-23.0,6.829
-7.0,28.0,6.83
-28.0,66.0,6.831
-1.0,83.0,6.832
-25.0,56.0,6.833
-100.0,-11.0,6.834
-107.0,-59.0,6.835
-16.0,-43.0,6.836
55.0,1.0,6.837
42.0,6.0,6.838
7.0,11.0,6.839
-11.0,17.0,6.84
-67.0,21.0,6.841
-156.0,21.0,6.842
-159.0,11.0,6.843
-43.0,-1.0,6.844
59.0,-25.0,6.845
67.0,-45.0,6.846
53.0,-50.0,6.847
79.0,-49.0,6.848
98.0,-28.0,6.849
78.0,-10.0,6.85
52.0,-2.0,6.851
26.0,11.0,6.852
-17.0,45.0,6.853
-36.0,61.0,6.854
7.0,26.0,6.855
39.0,-4.0,6.856
-14.0,-24.0,6.857
-117.0,11.0,6.858
-165.0,21.0,6.859
-156.0,31.0,6.86
-149.0,38.0,6.861
-100.0,39.0,6.862
49.0,21.0,6.863
196.0,-2.0,6.864
167.0,-46.0,6.865
-23.0,-81.0,6.866
-169.0,-90.0,6.867
-119.0,-88.0,6.868
69.0,-51.0,6.869
226.0,-19.0,6.87
238.0,-4.0,6.871
108.0,21.0,6.872
-62.0,81.0,6.873
-126.0,110.0,6.874
-9.0,47.0,6.875
197.0,-8.0,6.876
300.0,-44.0,6.877
209.0,-58.0,6.878
21.0,-23.0,6.879
-117.0,-34.0,6.88
-165.0,-51.0,6.881
-170.0,-10.0,6.882
-135.0,54.0,6.883
-45.0,63.0,6.884
58.0,9.0,6.885
110.0,-42.0,6.886
120.0,-52.0,6.887
108.0,-32.0,6.888
46.0,8.0,6.889
-57.0,74.0,6.89
-112.0,130.0,6.891
-95.0,119.0,6.892
-111.0,39.0,6.893
-179.0,-40.0,6.894
-140.0,-70.0,6.895
50.0,-72.0,6.896
177.0,-80.0,6.897
84.0,-96.0,6.898
-72.0,-91.0,6.899
-83.0,-66.0,6.9
-40.0,-46.0,6.901
-137.0,-29.0,6.902
-273.0,2.0,6.903
-207.0,45.0,6.904
31.0,62.0,6.905
189.0,35.0,6.906
174.0,-7.0,6.907
108.0,-13.0,6.908
63.0,28.0,6.909
25.0,71.0,6.91
31.0,67.0,6.911
114.0,27.0,6.912
185.0,0.0,6.913
159.0,3.0,6.914
89.0,16.0,6.915
37.0,15.0,6.916
-36.0,7.0,6.917
-146.0,-3.0,6.918
-164.0,-14.0,6.919
-18.0,-24.0,6.92
152.0,-29.0,6.921
188.0,-23.0,6.922
117.0,-21.0,6.923
54.0,-24.0,6.924
20.0,-15.0,6.925
-18.0,6.0,6.926
-59.0,26.0,6.927
-114.0,32.0,6.928
-199.0,27.0,6.929
-243.0,14.0,6.93
-149.0,-5.0,6.931
22.0,-16.0,6.932
104.0,-7.0,6.933
71.0,7.0,6.934
44.0,-3.0,6.935
63.0,-38.0,6.936
50.0,-67.0,6.937
-18.0,-61.0,6.938
-39.0,-12.0,6.939
17.0,38.0,6.94
62.0,93.0,6.941
47.0,121.0,6.942
33.0,67.0,6.943
47.0,24.0,6.944
35.0,18.0,6.945
-17.0,11.0,6.946
-38.0,-1.0,6.947
5.0,-11.0,6.948
59.0,-11.0,6.949
87.0,-11.0,6.95
96.0,-18.0,6.951
70.0,-25.0,6.952
-17.0,-29.0,6.953
-117.0,-35.0,6.954
-125.0,-43.0,6.955
-37.0,-47.0,6.956
18.0,-40.0,6.957
-55.0,-28.0,6.958
-198.0,-2.0,6.959
-268.0,5.0,6.96
-203.0,5.0,6.961
-67.0,15.0,6.962
50.0,30.0,6.963
99.0,46.0,6.964
80.0,61.0,6.965
48.0,57.0,6.966
59.0,12.0,6.967
98.0,-45.0,6.968
93.0,-66.0,6.969
34.0,-43.0,6.97
-5.0,-24.0,6.971
6.0,-33.0,6.972
23.0,-33.0,6.973
22.0,2.0,6.974
55.0,41.0,6.975
124.0,41.0,6.976
133.0,9.0,6.977
22.0,-33.0,6.978
-115.0,-50.0,6.979
-138.0,-51.0,6.98
-35.0,-35.0,6.981
69.0,9.0,6.982
79.0,73.0,6.983
26.0,117.0,6.984
-5.0,107.0,6.985
23.0,58.0,6.986
69.0,19.0,6.987
73.0,16.0,6.988
16.0,21.0,6.989
-58.0,0.0,6.99
-91.0,-35.0,6.991
-64.0,-54.0,6.992
-6.0,-51.0,6.993
33.0,-45.0,6.994
35.0,-31.0,6.995
25.0,-10.0,6.996
39.0,6.0,6.997
75.0,-1.0,6.998
99.0,-15.0,6.999
108.0,-14.0,7.0
68.0,-1.0,7.001
19.0,8.0,7.002
-57.0,12.0,7.003
-124.0,17.0,7.004
-165.0,23.0,7.005
-199.0,20.0,7.006
-208.0,8.0,7.007
-187.0,-3.0,7.008
-73.0,-10.0,7.009
17.0,-16.0,7.01
37.0,-19.0,7.011
43.0,-22.0,7.012
3.0,-26.0,7.013
-20.0,-29.0,7.014
5.0,-29.0,7.015
26.0,-22.0,7.016
25.0,-13.0,7.017
33.0,12.0,7.018
64.0,6.0,7.019
52.0,-2.0,7.02
23.0,-12.0,7.021
26.0,-22.0,7.022
47.0,-20.0,7.023
46.0,-14.0,7.024
31.0,1.0,7.025
34.0,18.0,7.026
44.0,31.0,7.027
37.0,35.0,7.028
23.0,9.0,7.029
24.0,-9.0,7.03
27.0,-13.0,7.031
18.0,-16.0,7.032
5.0,-20.0,7.033
5.0,-21.0,7.034
13.0,-12.0,7.035
18.0,-5.0,7.036
21.0,-5.0,7.037
14.0,13.0,7.038
-5.0,7.0,7.039
-15.0,-1.0,7.04
4.0,-13.0,7.041
19.0,-23.0,7.042
18.0,-21.0,7.043
12.0,-15.0,7.044
-8.0,2.0,7.045
-16.0,19.0,7.046
13.0,32.0,7.047
42.0,36.0,7.048
68.0,10.0,7.049
85.0,-10.0,7.05
71.0,-14.0,7.051
35.0,-17.0,7.052
-66.0,-21.0,7.053
-144.0,-22.0,7.054
-145.0,-13.0,7.055
-127.0,-6.0,7.056
-47.0,-6.0,7.057
29.0,-6.0,7.058
64.0,-1.0,7.059
63.0,4.0,7.06
71.0,8.0,7.061
115.0,21.0,7.062
144.0,35.0,7.063
90.0,39.0,7.064
-43.0,30.0,7.065
-171.0,18.0,7.066
-221.0,3.0,7.067
-192.0,-18.0,7.068
-120.0,-35.0,7.069
-49.0,-28.0,7.07
-18.0,-2.0,7.071
-34.0,19.0,7.072
-52.0,16.0,7.073
-27.0,-13.0,7.074
23.0,-45.0,7.075
52.0,-52.0,7.076
56.0,-28.0,7.077
52.0,3.0,7.078
43.0,9.0,7.079
17.0,-2.0,7.08
8.0,-5.0,7.081
51.0,5.0,7.082
109.0,2.0,7.083
126.0,-17.0,7.084
113.0,-30.0,7.085
137.0,-29.0,7.086
187.0,-28.0,7.087
164.0,-27.0,7.088
19.0,-13.0,7.089
-162.0,11.0,7.09
-267.0,32.0,7.091
-247.0,46.0,7.092
-132.0,61.0,7.093
4.0,70.0,7.094
67.0,56.0,7.095
25.0,18.0,7.096
-44.0,-13.0,7.097
-53.0,-31.0,7.098
-11.0,-43.0,7.099
4.0,-59.0,7.1
-12.0,-68.0,7.101
4.0,-48.0,7.102
45.0,-18.0,7.103
46.0,-4.0,7.104
12.0,-5.0,7.105
22.0,-4.0,7.106
92.0,0.0,7.107
155.0,-4.0,7.108
174.0,-12.0,7.109
167.0,-9.0,7.11
119.0,1.0,7.111
7.0,6.0,7.112
-123.0,1.0,7.113
-184.0,5.0,7.114
-149.0,23.0,7.115
-76.0,38.0,7.116
-19.0,37.0,7.117
6.0,27.0,7.118
-2.0,21.0,7.119
-38.0,27.0,7.12
-72.0,29.0,7.121
-73.0,24.0,7.122
-43.0,14.0,7.123
-5.0,8.0,7.124
23.0,7.0,7.125
40.0,6.0,7.126
53.0,0.0,7.127
58.0,-7.0,7.128
52.0,-12.0,7.129
39.0,-15.0,7.13
37.0,-18.0,7.131
60.0,-15.0,7.132
104.0,-12.0,7.133
132.0,-8.0,7.134
114.0,-9.0,7.135
62.0,-9.0,7.136
7.0,-6.0,7.137
-57.0,47.0,7.138
-135.0,11.0,7.139
-195.0,-9.0,7.14
-185.0,11.0,7.141
-122.0,21.0,7.142
-77.0,-5.0,7.143
-79.0,-27.0,7.144
-77.0,-23.0,7.145
-39.0,-23.0,7.146
-2.0,-31.0,7.147
7.0,-39.0,7.148
18.0,-39.0,7.149
48.0,-39.0,7.15
58.0,-35.0,7.151
40.0,-25.0,7.152
33.0,5.0,7.153
57.0,25.0,7.154
79.0,19.0,7.155
72.0,13.0,7.156
61.0,15.0,7.157
50.0,21.0,7.158
37.0,3.0,7.159
38.0,-7.0,7.16
84.0,3.0,7.161
120.0,8.0,7.162
127.0,-5.0,7.163
107.0,-16.0,7.164
4.0,-14.0,7.165
-93.0,-14.0,7.166
-171.0,-18.0,7.167
-193.0,-22.0,7.168
-43.0,-22.0,7.169
60.0,-22.0,7.17
23.0,-20.0,7.171
-18.0,-15.0,7.172
-73.0,0.0,7.173
-94.0,10.0,7.174
-12.0,7.0,7.175
41.0,4.0,7.176
3.0,5.0,7.177
-21.0,5.0,7.178
-1.0,-1.0,7.179
-7.0,-3.0,7.18
-22.0,-4.0,7.181
14.0,-9.0,7.182
70.0,-16.0,7.183
64.0,-19.0,7.184
15.0,-14.0,7.185
15.0,-7.0,7.186
58.0,-2.0,7.187
69.0,0.0,7.188
39.0,2.0,7.189
25.0,0.0,7.19
30.0,0.0,7.191
-1.0,1.0,7.192
-69.0,3.0,7.193
-100.0,4.0,7.194
-69.0,1.0,7.195
-24.0,-5.0,7.196
-5.0,-9.0,7.197
-4.0,-15.0,7.198
-8.0,-19.0,7.199
-22.0,-23.0,7.2
-34.0,-19.0,7.201
-14.0,-1.0,7.202
28.0,24.0,7.203
50.0,37.0,7.204
34.0,35.0,7.205
12.0,27.0,7.206
8.0,30.0,7.207
7.0,35.0,7.208
0.0,30.0,7.209
1.0,13.0,7.21
18.0,-1.0,7.211
27.0,-1.0,7.212
20.0,1.0,7.213
10.0,-3.0,7.214
13.0,-9.0,7.215
19.0,-12.0,7.216
27.0,-7.0,7.217
41.0,-3.0,7.218
58.0,-5.0,7.219
62.0,-9.0,7.22
51.0,-16.0,7.221
41.0,-21.0,7.222
30.0,-26.0,7.223
-4.0,-33.0,7.224
-74.0,-42.0,7.225
-145.0,-45.0,7.226
-162.0,-41.0,7.227
-113.0,-25.0,7.228
-45.0,-5.0,7.229
-19.0,21.0,7.23
-26.0,53.0,7.231
-16.0,77.0,7.232
18.0,79.0,7.233
34.0,57.0,7.234
19.0,34.0,7.235
10.0,24.0,7.236
29.0,16.0,7.237
46.0,-1.0,7.238
32.0,-17.0,7.239
12.0,-22.0,7.24
17.0,-20.0,7.241
34.0,-16.0,7.242
52.0,-10.0,7.243
90.0,-1.0,7.244
148.0,5.0,7.245
174.0,2.0,7.246
117.0,-4.0,7.247
-5.0,-6.0,7.248
-133.0,-9.0,7.249
-225.0,-18.0,7.25
-254.0,-23.0,7.251
-186.0,-17.0,7.252
-33.0,-11.0,7.253
101.0,-12.0,7.254
114.0,-11.0,7.255
47.0,-8.0,7.256
17.0,-7.0,7.257
43.0,-15.0,7.258
41.0,-19.0,7.259
-33.0,-8.0,7.26
-99.0,7.0,7.261
-88.0,15.0,7.262
-35.0,14.0,7.263
4.0,17.0,7.264
36.0,20.0,7.265
75.0,12.0,7.266
89.0,-4.0,7.267
61.0,-16.0,7.268
26.0,-14.0,7.269
16.0,-8.0,7.27
21.0,-8.0,7.271
24.0,-14.0,7.272
27.0,-14.0,7.273
32.0,-5.0,7.274
27.0,-1.0,7.275
14.0,-4.0,7.276
14.0,-6.0,7.277
24.0,-10.0,7.278
35.0,-15.0,7.279
31.0,-17.0,7.28
13.0,-8.0,7.281
-24.0,1.0,7.282
-74.0,12.0,7.283
-98.0,21.0,7.284
-70.0,23.0,7.285
-16.0,29.0,7.286
9.0,42.0,7.287
-5.0,46.0,7.288
-18.0,24.0,7.289
-3.0,3.0,7.29
16.0,-14.0,7.291
16.0,-25.0,7.292
3.0,-16.0,7.293
-6.0,-5.0,7.294
-3.0,12.0,7.295
6.0,24.0,7.296
21.0,18.0,7.297
34.0,11.0,7.298
39.0,1.0,7.299
31.0,1.0,7.3
12.0,9.0,7.301
-14.0,16.0,7.302
-33.0,4.0,7.303
-30.0,-20.0,7.304
-14.0,-30.0,7.305
-23.0,-24.0,7.306
-69.0,-25.0,7.307
-99.0,-35.0,7.308
-60.0,-36.0,7.309
16.0,-17.0,7.31
69.0,10.0,7.311
89.0,29.0,7.312
102.0,24.0,7.313
98.0,4.0,7.314
39.0,-14.0,7.315
-62.0,-16.0,7.316
-131.0,-2.0,7.317
-124.0,8.0,7.318
-62.0,12.0,7.319
-8.0,13.0,7.32
13.0,20.0,7.321
12.0,27.0,7.322
16.0,25.0,7.323
21.0,11.0,7.324
2.0,-6.0,7.325
-29.0,-19.0,7.326
-38.0,-21.0,7.327
-9.0,-19.0,7.328
29.0,-23.0,7.329
57.0,-31.0,7.33
94.0,-29.0,7.331
156.0,-13.0,7.332
205.0,-1.0,7.333
198.0,-2.0,7.334
145.0,-7.0,7.335
86.0,0.0,7.336
36.0,16.0,7.337
