Deltoid,Bicep,Time
15,-2,0.0
20,4,0.001
12,10,0.002
2,8,0.003
-1,0,0.004
-3,-6,0.005
-10,-1,0.006
-21,3,0.007
-21,2,0.008
-15,-2,0.009
-7,-2,0.01
-3,-1,0.011
-1,-2,0.012
2,1,0.013
6,3,0.014
8,3,0.015
9,0,0.016
7,-4,0.017
9,-1,0.018
14,2,0.019
18,4,0.02
17,4,0.021
9,4,0.022
0,2,0.023
-2,-1,0.024
-3,-4,0.025
-3,-3,0.026
-2,-2,0.027
-1,-2,0.028
-2,-4,0.029
-3,-2,0.03
0,1,0.031
8,4,0.032
14,4,0.033
10,0,0.034
5,0,0.035
0,0,0.036
-1,-2,0.037
-2,-5,0.038
0,-3,0.039
2,-2,0.04
3,0,0.041
3,1,0.042
-2,0,0.043
-6,-1,0.044
0,-2,0.045
6,-3,0.046
6,-2,0.047
4,-1,0.048
1,0,0.049
-1,1,0.05
-1,1,0.051
-1,0,0.052
-3,-2,0.053
-6,-4,0.054
-8,-4,0.055
-10,-4,0.056
-10,-5,0.057
-6,-3,0.058
4,-1,0.059
15,-1,0.06
13,-3,0.061
4,-1,0.062
2,0,0.063
8,0,0.064
10,-2,0.065
1,-2,0.066
-3,1,0.067
2,2,0.068
16,0,0.069
24,0,0.07
28,2,0.071
29,2,0.072
26,0,0.073
16,0,0.074
9,5,0.075
4,5,0.076
-2,-3,0.077
-9,-10,0.078
-8,-8,0.079
4,-3,0.08
11,3,0.081
4,4,0.082
-1,2,0.083
1,0,0.084
3,-1,0.085
-2,0,0.086
-6,0,0.087
-2,-3,0.088
-3,-5,0.089
-9,-1,0.09
-14,2,0.091
-12,2,0.092
-11,0,0.093
-16,-1,0.094
-21,-3,0.095
-23,-5,0.096
-22,-11,0.097
-16,-9,0.098
-1,-5,0.099
20,-2,0.1
30,0,0.101
26,3,0.102
21,6,0.103
23,5,0.104
24,1,0.105
14,1,0.106
0,2,0.107
-5,0,0.108
-4,-1,0.109
-3,0,0.11
-2,2,0.111
5,1,0.112
17,-1,0.113
25,-2,0.114
24,2,0.115
13,5,0.116
-1,-1,0.117
-11,-3,0.118
-7,-3,0.119
3,0,0.12
8,2,0.121
3,3,0.122
-3,2,0.123
-5,0,0.124
-5,-2,0.125
-7,1,0.126
-8,2,0.127
-4,-1,0.128
-1,-3,0.129
-4,0,0.13
-5,3,0.131
-4,1,0.132
0,-3,0.133
-3,-5,0.134
-8,-4,0.135
-11,-7,0.136
-11,-9,0.137
-10,-6,0.138
-6,-2,0.139
3,-2,0.14
11,-3,0.141
12,1,0.142
17,5,0.143
28,1,0.144
33,-4,0.145
25,-2,0.146
11,1,0.147
4,1,0.148
3,-3,0.149
0,-3,0.15
-6,-3,0.151
-9,-2,0.152
-9,0,0.153
-13,2,0.154
-16,0,0.155
-15,-4,0.156
-12,-7,0.157
-7,-3,0.158
0,3,0.159
12,5,0.16
19,4,0.161
23,3,0.162
28,1,0.163
33,0,0.164
27,0,0.165
14,3,0.166
6,4,0.167
9,1,0.168
11,-3,0.169
2,-5,0.17
-6,-3,0.171
-7,-1,0.172
-6,1,0.173
-14,-2,0.174
-19,-6,0.175
-19,-10,0.176
-15,-12,0.177
-12,-7,0.178
-5,-2,0.179
5,0,0.18
11,3,0.181
6,5,0.182
1,7,0.183
3,4,0.184
8,0,0.185
7,-4,0.186
4,-6,0.187
4,-5,0.188
6,-2,0.189
3,0,0.19
0,0,0.191
3,-1,0.192
8,1,0.193
0,2,0.194
-8,2,0.195
-15,2,0.196
-16,-3,0.197
-15,-6,0.198
-8,-2,0.199
4,1,0.2
10,3,0.201
5,6,0.202
0,4,0.203
3,3,0.204
8,3,0.205
10,3,0.206
3,3,0.207
-2,4,0.208
-3,3,0.209
-4,1,0.21
-6,0,0.211
-8,-2,0.212
-8,-2,0.213
-6,-1,0.214
3,0,0.215
11,-2,0.216
14,-7,0.217
15,-6,0.218
19,1,0.219
28,4,0.22
30,3,0.221
24,0,0.222
16,1,0.223
9,1,0.224
1,0,0.225
-3,0,0.226
-2,2,0.227
2,0,0.228
2,-4,0.229
0,-5,0.23
4,-3,0.231
10,-1,0.232
10,0,0.233
4,-1,0.234
-2,-2,0.235
-11,0,0.236
-22,-1,0.237
-23,0,0.238
-12,-1,0.239
0,-3,0.24
-2,1,0.241
-11,6,0.242
-10,7,0.243
0,1,0.244
7,-3,0.245
7,-2,0.246
9,0,0.247
13,0,0.248
14,0,0.249
9,2,0.25
6,1,0.251
8,-3,0.252
8,-2,0.253
3,0,0.254
-2,0,0.255
-6,-4,0.256
-9,-10,0.257
-10,-8,0.258
-4,-3,0.259
1,0,0.26
9,-1,0.261
15,1,0.262
15,1,0.263
14,0,0.264
12,0,0.265
10,0,0.266
7,1,0.267
4,-1,0.268
4,-2,0.269
3,-4,0.27
1,-4,0.271
-1,-5,0.272
-3,-3,0.273
-7,-1,0.274
-8,0,0.275
-9,-1,0.276
-9,-6,0.277
-8,-6,0.278
-3,-4,0.279
6,-1,0.28
12,4,0.281
7,6,0.282
3,5,0.283
2,3,0.284
2,1,0.285
-1,2,0.286
-6,4,0.287
-6,3,0.288
-6,1,0.289
-8,1,0.29
-9,0,0.291
-2,-1,0.292
9,-1,0.293
20,-1,0.294
21,0,0.295
15,-2,0.296
5,-6,0.297
5,-6,0.298
17,-3,0.299
29,1,0.3
28,4,0.301
16,6,0.302
7,5,0.303
5,1,0.304
2,-2,0.305
-3,-1,0.306
-3,0,0.307
2,-3,0.308
3,-6,0.309
-2,-4,0.31
-4,-3,0.311
7,-4,0.312
20,-3,0.313
23,0,0.314
15,3,0.315
3,2,0.316
-7,-4,0.317
-14,-3,0.318
-11,-1,0.319
-4,1,0.32
-1,3,0.321
-5,6,0.322
-8,7,0.323
-7,1,0.324
-7,-2,0.325
-10,-1,0.326
-11,0,0.327
-9,-1,0.328
-8,-3,0.329
-15,-1,0.33
-20,1,0.331
-18,0,0.332
-10,0,0.333
-10,-2,0.334
-14,-2,0.335
-17,-1,0.336
-11,-2,0.337
-4,-4,0.338
9,-3,0.339
22,-2,0.34
30,-2,0.341
36,-1,0.342
35,0,0.343
30,1,0.344
16,0,0.345
7,-1,0.346
12,-1,0.347
16,-1,0.348
17,-1,0.349
18,-2,0.35
17,-1,0.351
15,0,0.352
11,0,0.353
3,0,0.354
-6,-3,0.355
-9,-5,0.356
-9,-5,0.357
-10,-5,0.358
-8,-5,0.359
-5,-3,0.36
-7,1,0.361
-13,7,0.362
-14,10,0.363
-4,8,0.364
6,4,0.365
6,1,0.366
3,0,0.367
7,-3,0.368
16,-5,0.369
18,-5,0.37
12,-3,0.371
2,-2,0.372
-8,-2,0.373
-16,-2,0.374
-20,-1,0.375
-19,-1,0.376
-15,-5,0.377
-5,-5,0.378
10,-3,0.379
23,0,0.38
29,0,0.381
26,1,0.382
22,0,0.383
17,-4,0.384
4,-4,0.385
-16,-2,0.386
-28,-1,0.387
-27,-1,0.388
-17,0,0.389
-7,3,0.39
-1,3,0.391
7,0,0.392
17,-1,0.393
22,-2,0.394
24,0,0.395
21,0,0.396
13,-4,0.397
2,-4,0.398
-2,-3,0.399
2,-1,0.4
5,3,0.401
1,4,0.402
-6,1,0.403
-8,-2,0.404
-2,-1,0.405
6,3,0.406
12,2,0.407
13,-2,0.408
9,-4,0.409
8,-3,0.41
11,0,0.411
12,1,0.412
6,5,0.413
-6,4,0.414
-15,2,0.415
-22,2,0.416
-22,0,0.417
-17,-1,0.418
-1,-4,0.419
11,-4,0.42
12,2,0.421
14,5,0.422
16,4,0.423
18,0,0.424
15,-1,0.425
12,0,0.426
9,2,0.427
5,5,0.428
0,4,0.429
-5,1,0.43
-5,-2,0.431
-6,-2,0.432
-6,1,0.433
-6,0,0.434
-7,-3,0.435
-5,-6,0.436
-1,-8,0.437
4,-6,0.438
12,-5,0.439
22,-1,0.44
26,3,0.441
22,6,0.442
17,3,0.443
15,-1,0.444
8,-4,0.445
-2,-5,0.446
-7,-5,0.447
-4,-7,0.448
-5,-9,0.449
-13,-6,0.45
-16,-3,0.451
-8,-2,0.452
0,-2,0.453
2,-1,0.454
1,2,0.455
2,1,0.456
2,-3,0.457
-1,-5,0.458
5,-5,0.459
18,-2,0.46
20,-2,0.461
8,0,0.462
-3,0,0.463
-4,-1,0.464
-5,-3,0.465
-14,-2,0.466
-20,-2,0.467
-17,-3,0.468
-13,-4,0.469
-13,-3,0.47
-6,0,0.471
9,3,0.472
20,7,0.473
20,9,0.474
18,8,0.475
18,3,0.476
15,-4,0.477
9,-1,0.478
6,4,0.479
11,7,0.48
8,7,0.481
-1,7,0.482
-6,7,0.483
-1,4,0.484
3,2,0.485
0,2,0.486
-6,5,0.487
-5,6,0.488
-5,4,0.489
-8,0,0.49
-11,-3,0.491
-6,-5,0.492
3,-2,0.493
7,-2,0.494
7,0,0.495
5,0,0.496
1,-3,0.497
-3,-5,0.498
-2,-3,0.499
-1,-1,0.5
-3,0,0.501
-5,1,0.502
-2,0,0.503
1,-1,0.504
5,0,0.505
10,2,0.506
17,2,0.507
24,2,0.508
30,0,0.509
32,-2,0.51
16,-2,0.511
1,-2,0.512
-5,-2,0.513
-13,-2,0.514
-18,0,0.515
-19,0,0.516
-13,-3,0.517
0,-5,0.518
17,-3,0.519
30,-1,0.52
26,0,0.521
12,1,0.522
2,0,0.523
6,-1,0.524
6,0,0.525
-2,2,0.526
-7,2,0.527
-2,2,0.528
2,0,0.529
0,-2,0.53
1,-2,0.531
11,-2,0.532
15,-2,0.533
1,0,0.534
-7,1,0.535
-13,-2,0.536
-8,-8,0.537
-3,-6,0.538
0,-3,0.539
3,0,0.54
11,1,0.541
15,3,0.542
7,3,0.543
0,0,0.544
-2,-2,0.545
-5,0,0.546
-6,0,0.547
-6,-2,0.548
-2,-3,0.549
0,-1,0.55
-1,1,0.551
-1,1,0.552
4,3,0.553
11,5,0.554
15,3,0.555
15,-3,0.556
9,-7,0.557
4,-1,0.558
5,4,0.559
11,4,0.56
12,2,0.561
4,4,0.562
-3,5,0.563
-5,2,0.564
-4,-2,0.565
-9,-3,0.566
-18,-2,0.567
-22,-4,0.568
-16,-6,0.569
-7,-5,0.57
-1,-3,0.571
2,-1,0.572
7,0,0.573
8,-1,0.574
9,-2,0.575
8,-2,0.576
1,-4,0.577
-1,-3,0.578
12,-1,0.579
22,-2,0.58
20,-3,0.581
18,-2,0.582
13,-2,0.583
9,-2,0.584
9,-1,0.585
9,0,0.586
11,0,0.587
14,-2,0.588
18,-3,0.589
19,0,0.59
13,0,0.591
7,-2,0.592
1,0,0.593
-4,2,0.594
-6,3,0.595
-6,-1,0.596
-9,-6,0.597
-9,-2,0.598
-5,4,0.599
-3,6,0.6
-5,5,0.601
-8,6,0.602
-6,6,0.603
1,2,0.604
6,-2,0.605
1,-4,0.606
-11,-2,0.607
-20,-3,0.608
-15,-6,0.609
-3,-5,0.61
6,-1,0.611
11,0,0.612
17,2,0.613
17,2,0.614
14,4,0.615
2,1,0.616
-3,-7,0.617
-1,-9,0.618
7,-4,0.619
11,0,0.62
5,0,0.621
-5,-1,0.622
-11,0,0.623
-9,0,0.624
-6,-2,0.625
-6,-4,0.626
-3,-2,0.627
9,-2,0.628
23,-4,0.629
26,-6,0.63
18,-7,0.631
9,-8,0.632
10,-7,0.633
14,-2,0.634
16,3,0.635
10,4,0.636
0,0,0.637
-10,-2,0.638
-14,-2,0.639
-8,-1,0.64
0,1,0.641
1,4,0.642
0,1,0.643
1,-4,0.644
0,-5,0.645
-6,2,0.646
-8,5,0.647
-3,1,0.648
1,-3,0.649
1,0,0.65
2,0,0.651
5,-1,0.652
2,0,0.653
-5,3,0.654
-6,3,0.655
-7,-3,0.656
-1,-10,0.657
5,-8,0.658
13,-3,0.659
16,0,0.66
4,4,0.661
-4,6,0.662
0,6,0.663
4,2,0.664
8,-1,0.665
12,0,0.666
12,-1,0.667
11,-3,0.668
9,-1,0.669
8,1,0.67
11,0,0.671
13,-1,0.672
9,1,0.673
4,2,0.674
0,-1,0.675
-2,-6,0.676
-6,-9,0.677
-8,-4,0.678
-4,-1,0.679
1,2,0.68
2,7,0.681
0,8,0.682
-1,2,0.683
-3,-5,0.684
-3,-4,0.685
2,1,0.686
8,1,0.687
4,-3,0.688
-4,-5,0.689
-8,-4,0.69
-2,-2,0.691
2,0,0.692
2,1,0.693
0,0,0.694
-1,-1,0.695
-4,0,0.696
-7,-1,0.697
-5,0,0.698
4,-2,0.699
13,-4,0.7
10,-3,0.701
0,-1,0.702
-2,1,0.703
2,2,0.704
5,3,0.705
4,5,0.706
2,3,0.707
7,-1,0.708
9,-2,0.709
3,0,0.71
-7,2,0.711
-12,-2,0.712
-8,-3,0.713
-3,-2,0.714
-3,1,0.715
-4,2,0.716
-4,-1,0.717
-3,-2,0.718
-2,-2,0.719
-1,-2,0.72
-4,1,0.721
-6,7,0.722
-3,7,0.723
6,2,0.724
15,0,0.725
20,0,0.726
25,0,0.727
35,-3,0.728
38,-4,0.729
30,-1,0.73
21,2,0.731
25,0,0.732
32,0,0.733
22,0,0.734
3,0,0.735
-11,-2,0.736
-12,-5,0.737
-13,-4,0.738
-11,-4,0.739
-8,-6,0.74
0,-4,0.741
7,-1,0.742
7,-2,0.743
5,-8,0.744
0,-10,0.745
-7,-6,0.746
-15,-1,0.747
-19,0,0.748
-11,0,0.749
-4,3,0.75
-2,2,0.751
-1,1,0.752
-3,5,0.753
-3,10,0.754
1,8,0.755
-2,5,0.756
-15,0,0.757
-22,-5,0.758
-13,-2,0.759
6,1,0.76
16,1,0.761
13,1,0.762
10,1,0.763
12,2,0.764
12,2,0.765
4,2,0.766
2,2,0.767
9,1,0.768
15,0,0.769
15,-2,0.77
11,-3,0.771
8,-3,0.772
4,-1,0.773
-2,1,0.774
-3,0,0.775
-4,-3,0.776
-5,-8,0.777
-8,-8,0.778
-5,-7,0.779
2,-5,0.78
3,0,0.781
1,4,0.782
1,3,0.783
1,2,0.784
-6,4,0.785
-14,5,0.786
-11,2,0.787
0,0,0.788
6,0,0.789
3,0,0.79
-2,0,0.791
-3,-2,0.792
-1,0,0.793
0,0,0.794
-2,-3,0.795
-4,-7,0.796
-5,-11,0.797
-2,-8,0.798
4,-1,0.799
13,5,0.8
20,8,0.801
30,6,0.802
43,1,0.803
49,-1,0.804
41,-1,0.805
20,0,0.806
-2,0,0.807
-20,-3,0.808
-31,-6,0.809
-31,-6,0.81
-24,-3,0.811
-13,-1,0.812
-7,-1,0.813
-3,-2,0.814
2,-2,0.815
8,-1,0.816
15,-5,0.817
22,-8,0.818
28,-6,0.819
31,-1,0.82
22,1,0.821
14,1,0.822
9,4,0.823
3,9,0.824
-2,11,0.825
-7,7,0.826
-5,2,0.827
-4,-1,0.828
-5,-2,0.829
-7,-2,0.83
-8,-2,0.831
-8,-2,0.832
-3,-1,0.833
0,-3,0.834
-3,-4,0.835
-14,-4,0.836
-23,-6,0.837
-24,-5,0.838
-11,-1,0.839
8,3,0.84
19,4,0.841
17,5,0.842
16,5,0.843
20,4,0.844
22,2,0.845
13,-1,0.846
2,-2,0.847
0,0,0.848
5,-1,0.849
7,-2,0.85
3,-4,0.851
0,-5,0.852
-1,-1,0.853
-2,0,0.854
-3,0,0.855
-4,0,0.856
-6,-3,0.857
-8,-3,0.858
-1,-1,0.859
14,0,0.86
19,2,0.861
9,3,0.862
-7,3,0.863
-13,2,0.864
-9,1,0.865
-2,2,0.866
5,1,0.867
13,0,0.868
15,-1,0.869
8,-2,0.87
1,-2,0.871
1,-3,0.872
7,-2,0.873
8,0,0.874
5,2,0.875
1,2,0.876
-3,-1,0.877
-3,-4,0.878
1,-3,0.879
9,-1,0.88
12,1,0.881
5,0,0.882
0,-2,0.883
-1,-1,0.884
0,0,0.885
-3,2,0.886
-6,0,0.887
-7,-2,0.888
-3,-4,0.889
0,-5,0.89
3,-5,0.891
5,-2,0.892
5,1,0.893
2,-2,0.894
2,0,0.895
3,1,0.896
3,1,0.897
3,2,0.898
5,0,0.899
7,0,0.9
8,1,0.901
9,3,0.902
7,1,0.903
5,-1,0.904
3,-2,0.905
1,-3,0.906
-2,-3,0.907
-4,-3,0.908
-2,-3,0.909
0,-3,0.91
4,1,0.911
7,4,0.912
4,0,0.913
1,-2,0.914
-4,0,0.915
-5,1,0.916
-5,1,0.917
-5,2,0.918
0,0,0.919
10,0,0.92
12,1,0.921
4,3,0.922
-5,1,0.923
-4,-1,0.924
0,-2,0.925
-1,-3,0.926
-5,-3,0.927
-5,-3,0.928
4,-3,0.929
14,-3,0.93
20,1,0.931
24,4,0.932
27,0,0.933
24,-5,0.934
19,-6,0.935
13,-6,0.936
8,-8,0.937
2,-6,0.938
-2,-2,0.939
-4,0,0.94
-2,2,0.941
0,3,0.942
1,2,0.943
1,0,0.944
2,0,0.945
3,2,0.946
5,3,0.947
8,0,0.948
5,-4,0.949
0,-5,0.95
-4,-3,0.951
-6,-1,0.952
-5,2,0.953
-5,4,0.954
-5,4,0.955
-10,0,0.956
-16,-4,0.957
-15,-2,0.958
-6,2,0.959
5,3,0.96
8,1,0.961
5,3,0.962
3,4,0.963
1,1,0.964
-3,-3,0.965
-6,-4,0.966
-1,-1,0.967
7,0,0.968
11,1,0.969
9,2,0.97
9,2,0.971
11,0,0.972
12,-1,0.973
7,-3,0.974
1,-3,0.975
-4,-3,0.976
-10,-6,0.977
-14,-5,0.978
-7,-3,0.979
0,-3,0.98
7,-3,0.981
13,-1,0.982
14,0,0.983
14,-1,0.984
11,-2,0.985
7,0,0.986
2,2,0.987
-1,0,0.988
0,-3,0.989
2,-2,0.99
0,0,0.991
-3,0,0.992
-4,0,0.993
-6,0,0.994
-11,1,0.995
-10,2,0.996
-3,0,0.997
4,-2,0.998
10,-1,0.999
15,0,1.0
14,4,1.001
6,6,1.002
-2,3,1.003
-2,0,1.004
0,1,1.005
-1,3,1.006
-3,1,1.007
-2,0,1.008
-1,-1,1.009
-3,-2,1.01
-6,-1,1.011
-7,0,1.012
-5,0,1.013
-4,1,1.014
-3,0,1.015
-5,-1,1.016
-9,-8,1.017
-10,-7,1.018
-2,-3,1.019
11,-1,1.02
21,1,1.021
21,3,1.022
21,1,1.023
26,0,1.024
27,0,1.025
24,2,1.026
18,0,1.027
11,-5,1.028
3,-4,1.029
-2,0,1.03
-1,0,1.031
1,-3,1.032
-2,-3,1.033
-8,1,1.034
-10,0,1.035
-12,-5,1.036
-19,-9,1.037
-23,-4,1.038
-15,0,1.039
2,-1,1.04
12,-1,1.041
10,2,1.042
8,2,1.043
14,-3,1.044
18,-6,1.045
16,-2,1.046
10,1,1.047
1,0,1.048
-16,0,1.049
-41,4,1.05
-63,5,1.051
-67,2,1.052
-51,2,1.053
-25,-6,1.054
2,-4,1.055
25,-3,1.056
35,-5,1.057
42,-6,1.058
36,-2,1.059
25,2,1.06
1,1,1.061
-12,1,1.062
9,5,1.063
34,7,1.064
66,4,1.065
89,1,1.066
84,3,1.067
73,5,1.068
46,3,1.069
22,0,1.07
11,-3,1.071
4,-6,1.072
13,-6,1.073
15,-6,1.074
-18,-4,1.075
-51,-3,1.076
-69,-5,1.077
-68,-6,1.078
-48,-2,1.079
-15,2,1.08
2,1,1.081
-13,1,1.082
-40,5,1.083
-47,7,1.084
-31,4,1.085
-12,1,1.086
0,3,1.087
9,5,1.088
11,3,1.089
11,0,1.09
15,-3,1.091
26,-6,1.092
37,-6,1.093
34,-6,1.094
23,-4,1.095
5,-1,1.096
-15,-6,1.097
-27,-7,1.098
-22,-4,1.099
-9,0,1.1
-7,6,1.101
-13,11,1.102
-12,8,1.103
-4,1,1.104
-2,-5,1.105
-5,-5,1.106
-3,-1,1.107
3,-4,1.108
4,-7,1.109
1,-6,1.11
1,-4,1.111
4,-4,1.112
7,-7,1.113
5,-8,1.114
6,-4,1.115
5,-2,1.116
0,-7,1.117
-3,-9,1.118
0,-7,1.119
11,-2,1.12
15,1,1.121
11,6,1.122
5,9,1.123
6,8,1.124
11,3,1.125
15,3,1.126
13,8,1.127
7,9,1.128
3,4,1.129
3,0,1.13
9,3,1.131
14,6,1.132
16,8,1.133
13,6,1.134
8,3,1.135
1,-1,1.136
-2,-5,1.137
0,-5,1.138
7,-2,1.139
10,0,1.14
6,1,1.141
0,5,1.142
-2,5,1.143
-2,-1,1.144
-1,-8,1.145
-2,-6,1.146
-4,0,1.147
-3,2,1.148
0,0,1.149
2,-2,1.15
0,-1,1.151
-2,0,1.152
-1,1,1.153
1,0,1.154
2,-2,1.155
-2,-3,1.156
-5,-6,1.157
-5,-6,1.158
-1,-4,1.159
6,-3,1.16
12,-3,1.161
13,-3,1.162
12,-2,1.163
8,0,1.164
2,1,1.165
-1,2,1.166
-1,-2,1.167
5,-4,1.168
13,-2,1.169
16,2,1.17
9,3,1.171
3,3,1.172
3,5,1.173
3,4,1.174
1,3,1.175
-4,0,1.176
-8,-7,1.177
-6,-8,1.178
0,-7,1.179
9,-4,1.18
10,1,1.181
0,4,1.182
-8,4,1.183
-5,-1,1.184
3,-4,1.185
6,-2,1.186
1,1,1.187
-3,3,1.188
-3,1,1.189
-1,1,1.19
-2,2,1.191
0,2,1.192
2,3,1.193
3,1,1.194
0,0,1.195
-3,-3,1.196
-4,-6,1.197
-5,-4,1.198
-3,-2,1.199
4,-2,1.2
13,-1,1.201
13,2,1.202
6,4,1.203
4,2,1.204
7,-2,1.205
7,-3,1.206
3,-2,1.207
1,-3,1.208
5,-4,1.209
8,-2,1.21
6,0,1.211
3,-1,1.212
4,-2,1.213
6,-4,1.214
3,-3,1.215
-1,-1,1.216
-5,-4,1.217
-4,-3,1.218
-1,0,1.219
3,2,1.22
3,3,1.221
-1,2,1.222
-1,0,1.223
3,-3,1.224
5,-4,1.225
2,-2,1.226
0,0,1.227
3,1,1.228
5,1,1.229
3,0,1.23
2,-1,1.231
6,-1,1.232
8,0,1.233
2,0,1.234
-2,0,1.235
-3,0,1.236
-7,-4,1.237
-12,-7,1.238
-7,-7,1.239
6,-4,1.24
14,1,1.241
9,6,1.242
1,5,1.243
5,1,1.244
14,-2,1.245
15,-1,1.246
10,0,1.247
7,0,1.248
5,2,1.249
-1,6,1.25
-3,5,1.251
0,2,1.252
3,1,1.253
2,2,1.254
2,-1,1.255
1,-5,1.256
-3,-8,1.257
-9,-3,1.258
-6,0,1.259
2,-2,1.26
8,-2,1.261
3,2,1.262
0,4,1.263
6,0,1.264
9,-2,1.265
4,2,1.266
0,5,1.267
2,0,1.268
5,-6,1.269
2,-5,1.27
-2,-2,1.271
-1,-1,1.272
3,-2,1.273
1,-2,1.274
0,-1,1.275
-3,-4,1.276
-4,-6,1.277
-3,-4,1.278
4,-1,1.279
14,0,1.28
15,1,1.281
6,3,1.282
-1,1,1.283
0,-2,1.284
2,-3,1.285
1,0,1.286
0,2,1.287
0,1,1.288
0,-2,1.289
0,0,1.29
3,0,1.291
8,-3,1.292
7,-4,1.293
4,-1,1.294
5,3,1.295
3,4,1.296
-2,-2,1.297
-3,-3,1.298
5,-1,1.299
17,2,1.3
14,0,1.301
3,1,1.302
-1,4,1.303
1,4,1.304
2,1,1.305
-3,1,1.306
-4,2,1.307
-2,0,1.308
0,-5,1.309
-1,-7,1.31
-1,-4,1.311
1,0,1.312
0,1,1.313
-1,0,1.314
-2,0,1.315
-2,-1,1.316
-4,-8,1.317
-4,-12,1.318
3,-9,1.319
10,-1,1.32
8,4,1.321
2,3,1.322
1,-3,1.323
6,-4,1.324
7,-1,1.325
2,1,1.326
0,0,1.327
0,-3,1.328
-2,-3,1.329
-4,-3,1.33
-5,-3,1.331
0,-2,1.332
5,1,1.333
4,2,1.334
0,0,1.335
-4,-3,1.336
-6,-6,1.337
-5,-5,1.338
2,-1,1.339
11,0,1.34
13,3,1.341
9,5,1.342
5,2,1.343
7,-3,1.344
9,-4,1.345
8,-2,1.346
3,-3,1.347
2,-3,1.348
5,-1,1.349
6,2,1.35
5,0,1.351
5,-2,1.352
8,-2,1.353
9,-1,1.354
7,1,1.355
2,1,1.356
-2,-1,1.357
-5,-4,1.358
-3,-7,1.359
4,-5,1.36
8,1,1.361
4,5,1.362
0,3,1.363
0,0,1.364
2,1,1.365
2,3,1.366
2,2,1.367
2,0,1.368
0,0,1.369
-2,-1,1.37
1,-3,1.371
7,-3,1.372
9,1,1.373
1,3,1.374
-5,0,1.375
-9,-5,1.376
-9,-6,1.377
-6,-3,1.378
2,-2,1.379
11,-3,1.38
10,-1,1.381
0,4,1.382
-3,4,1.383
2,-2,1.384
10,-5,1.385
7,-2,1.386
3,1,1.387
3,1,1.388
6,-1,1.389
5,0,1.39
2,0,1.391
4,-2,1.392
7,-1,1.393
6,1,1.394
3,3,1.395
-3,1,1.396
-7,-4,1.397
-9,-6,1.398
-2,-4,1.399
10,-1,1.4
15,2,1.401
10,5,1.402
5,4,1.403
6,0,1.404
7,-2,1.405
1,-2,1.406
-2,-3,1.407
0,-5,1.408
0,-5,1.409
0,-2,1.41
-1,0,1.411
0,0,1.412
0,2,1.413
-3,2,1.414
-5,0,1.415
-4,-3,1.416
-3,-5,1.417
-2,-2,1.418
0,0,1.419
7,-1,1.42
11,0,1.421
6,3,1.422
3,-1,1.423
5,-5,1.424
7,-6,1.425
6,-3,1.426
2,0,1.427
2,-2,1.428
5,-5,1.429
6,-3,1.43
6,1,1.431
5,2,1.432
5,2,1.433
2,0,1.434
0,3,1.435
-3,3,1.436
-4,-1,1.437
-3,-3,1.438
4,-2,1.439
12,1,1.44
11,4,1.441
5,5,1.442
1,4,1.443
1,1,1.444
0,-1,1.445
-1,-1,1.446
-3,2,1.447
-2,2,1.448
1,0,1.449
3,-2,1.45
4,-2,1.451
7,-1,1.452
9,0,1.453
7,-2,1.454
3,-1,1.455
-2,0,1.456
-5,-3,1.457
-3,-3,1.458
4,-2,1.459
10,0,1.46
7,0,1.461
2,0,1.462
2,0,1.463
5,0,1.464
10,1,1.465
8,2,1.466
6,1,1.467
4,-2,1.468
5,-4,1.469
6,-4,1.47
6,-2,1.471
4,-2,1.472
2,-2,1.473
0,-1,1.474
-2,0,1.475
-4,0,1.476
-5,-4,1.477
-5,-3,1.478
0,0,1.479
9,3,1.48
12,4,1.481
4,5,1.482
-2,4,1.483
-2,2,1.484
-1,0,1.485
-3,-1,1.486
-4,0,1.487
-1,0,1.488
3,0,1.489
2,-1,1.49
-3,-1,1.491
-3,-1,1.492
0,-1,1.493
2,-2,1.494
0,-3,1.495
-3,-5,1.496
-4,-8,1.497
-3,-7,1.498
-1,-4,1.499
3,-1,1.5
10,0,1.501
11,1,1.502
9,2,1.503
7,1,1.504
5,0,1.505
2,1,1.506
1,2,1.507
1,0,1.508
2,-1,1.509
4,-2,1.51
7,-2,1.511
6,-1,1.512
4,0,1.513
0,0,1.514
0,-2,1.515
2,-5,1.516
2,-7,1.517
2,-5,1.518
6,-1,1.519
9,2,1.52
4,4,1.521
-1,3,1.522
0,1,1.523
7,-2,1.524
6,-1,1.525
1,1,1.526
0,0,1.527
4,0,1.528
4,-1,1.529
0,-1,1.53
-1,-1,1.531
0,-1,1.532
4,0,1.533
2,-1,1.534
-1,-1,1.535
-4,-3,1.536
-6,-5,1.537
-3,-3,1.538
3,-2,1.539
12,-1,1.54
12,1,1.541
7,2,1.542
4,1,1.543
8,-2,1.544
11,0,1.545
6,4,1.546
2,4,1.547
3,0,1.548
5,-2,1.549
5,-1,1.55
1,1,1.551
0,1,1.552
3,2,1.553
3,1,1.554
3,-2,1.555
1,-4,1.556
1,-8,1.557
3,-7,1.558
5,-5,1.559
6,-3,1.56
4,3,1.561
0,6,1.562
-1,5,1.563
3,1,1.564
7,0,1.565
6,1,1.566
0,1,1.567
-1,-1,1.568
-1,-2,1.569
-1,0,1.57
-3,3,1.571
-2,0,1.572
2,-3,1.573
2,-4,1.574
-2,-2,1.575
-7,0,1.576
-9,-3,1.577
-6,-3,1.578
0,-1,1.579
6,1,1.58
9,3,1.581
5,6,1.582
1,7,1.583
5,5,1.584
9,0,1.585
8,-4,1.586
4,-4,1.587
2,-2,1.588
3,0,1.589
3,-1,1.59
0,-3,1.591
-2,-3,1.592
0,0,1.593
0,2,1.594
2,0,1.595
1,-2,1.596
-1,-6,1.597
-4,-7,1.598
-1,-4,1.599
6,-1,1.6
9,1,1.601
8,2,1.602
5,0,1.603
7,-3,1.604
6,-2,1.605
2,-1,1.606
-2,-2,1.607
0,-3,1.608
3,-3,1.609
2,-1,1.61
-2,1,1.611
-2,1,1.612
1,1,1.613
3,-1,1.614
2,-1,1.615
-3,-1,1.616
-7,-4,1.617
-6,-3,1.618
2,0,1.619
12,1,1.62
15,3,1.621
9,3,1.622
5,4,1.623
6,3,1.624
9,2,1.625
6,1,1.626
3,0,1.627
0,-2,1.628
0,-2,1.629
1,-2,1.63
3,0,1.631
2,0,1.632
2,0,1.633
2,-4,1.634
4,-6,1.635
2,-6,1.636
-1,-8,1.637
-4,-7,1.638
1,-5,1.639
7,-3,1.64
9,0,1.641
4,4,1.642
1,4,1.643
1,0,1.644
0,-2,1.645
-3,1,1.646
0,4,1.647
7,2,1.648
9,2,1.649
4,1,1.65
1,0,1.651
2,-2,1.652
5,0,1.653
7,3,1.654
3,0,1.655
0,-4,1.656
-2,-6,1.657
-3,-1,1.658
1,1,1.659
8,1,1.66
9,1,1.661
2,3,1.662
-2,3,1.663
1,2,1.664
4,2,1.665
1,4,1.666
-4,3,1.667
-4,-1,1.668
-2,-2,1.669
-2,1,1.67
-3,4,1.671
-3,2,1.672
0,-2,1.673
3,-7,1.674
1,-5,1.675
-1,-2,1.676
-4,-4,1.677
-2,-6,1.678
4,-5,1.679
12,1,1.68
13,4,1.681
7,4,1.682
-1,1,1.683
-2,-1,1.684
1,0,1.685
2,0,1.686
1,-1,1.687
1,-4,1.688
5,-6,1.689
7,-4,1.69
4,0,1.691
0,3,1.692
1,3,1.693
2,0,1.694
4,-1,1.695
3,0,1.696
0,-4,1.697
0,-6,1.698
5,-5,1.699
12,-2,1.7
11,1,1.701
4,2,1.702
1,0,1.703
4,-1,1.704
8,-3,1.705
6,-2,1.706
2,0,1.707
1,0,1.708
2,-2,1.709
1,-2,1.71
-1,0,1.711
0,0,1.712
2,0,1.713
0,0,1.714
-1,-1,1.715
-4,-2,1.716
-4,-7,1.717
-3,-6,1.718
-1,-1,1.719
1,1,1.72
3,1,1.721
1,1,1.722
0,3,1.723
1,0,1.724
3,-4,1.725
5,-4,1.726
5,-1,1.727
6,0,1.728
6,1,1.729
5,3,1.73
5,4,1.731
7,2,1.732
12,-1,1.733
15,-2,1.734
13,-1,1.735
6,0,1.736
-1,-2,1.737
-2,-4,1.738
4,-4,1.739
10,0,1.74
8,4,1.741
0,7,1.742
-3,5,1.743
-1,1,1.744
2,0,1.745
0,0,1.746
-2,-1,1.747
-1,-4,1.748
1,-4,1.749
2,-2,1.75
3,-1,1.751
7,-1,1.752
11,0,1.753
7,0,1.754
1,1,1.755
-3,-1,1.756
-3,-6,1.757
0,-6,1.758
5,-3,1.759
8,0,1.76
8,2,1.761
3,1,1.762
1,-2,1.763
1,-5,1.764
3,-5,1.765
1,-2,1.766
-1,0,1.767
-1,0,1.768
0,-2,1.769
-1,-4,1.77
-3,-5,1.771
-4,-3,1.772
-4,-1,1.773
-6,-1,1.774
-6,-2,1.775
-7,-2,1.776
-8,-4,1.777
-9,-3,1.778
-5,-1,1.779
-1,-1,1.78
-1,0,1.781
-1,1,1.782
0,2,1.783
2,0,1.784
2,-1,1.785
1,0,1.786
4,2,1.787
7,3,1.788
7,5,1.789
6,7,1.79
6,8,1.791
6,8,1.792
6,7,1.793
5,4,1.794
5,3,1.795
5,2,1.796
1,1,1.797
2,0,1.798
11,0,1.799
18,1,1.8
14,5,1.801
2,6,1.802
0,3,1.803
4,0,1.804
4,0,1.805
-2,2,1.806
-5,3,1.807
-2,0,1.808
1,0,1.809
0,1,1.81
0,-1,1.811
3,-4,1.812
6,-4,1.813
1,-3,1.814
-1,-3,1.815
-1,-6,1.816
2,-8,1.817
4,-7,1.818
7,-5,1.819
13,-3,1.82
16,-1,1.821
12,0,1.822
6,-3,1.823
2,-8,1.824
1,-7,1.825
1,-6,1.826
3,-7,1.827
4,-8,1.828
2,-4,1.829
-2,1,1.83
-1,0,1.831
6,-3,1.832
11,-3,1.833
2,-2,1.834
-1,-1,1.835
-4,0,1.836
-4,-1,1.837
-3,0,1.838
2,-1,1.839
7,-1,1.84
8,0,1.841
8,3,1.842
5,0,1.843
2,-3,1.844
4,-3,1.845
6,0,1.846
4,3,1.847
3,0,1.848
3,-1,1.849
1,-1,1.85
0,0,1.851
-1,0,1.852
0,2,1.853
2,2,1.854
-1,2,1.855
-4,1,1.856
-4,0,1.857
-3,-1,1.858
2,-2,1.859
7,-3,1.86
8,-1,1.861
8,0,1.862
5,0,1.863
2,0,1.864
4,0,1.865
6,0,1.866
4,-1,1.867
3,-2,1.868
3,-2,1.869
1,0,1.87
0,1,1.871
-1,3,1.872
0,-2,1.873
4,-6,1.874
7,-6,1.875
6,-5,1.876
1,-6,1.877
0,-5,1.878
6,-2,1.879
13,1,1.88
10,3,1.881
3,4,1.882
1,2,1.883
5,0,1.884
5,-3,1.885
0,-2,1.886
-2,-1,1.887
-1,-2,1.888
0,-3,1.889
-2,-1,1.89
-1,2,1.891
1,4,1.892
4,2,1.893
2,-3,1.894
2,-5,1.895
-1,-5,1.896
-3,-5,1.897
-4,-5,1.898
2,-5,1.899
10,-2,1.9
10,2,1.901
2,6,1.902
-1,4,1.903
4,-1,1.904
7,-2,1.905
4,2,1.906
0,2,1.907
1,-1,1.908
3,-5,1.909
1,-3,1.91
0,1,1.911
0,3,1.912
7,2,1.913
5,-1,1.914
2,-2,1.915
0,-3,1.916
-2,-5,1.917
-2,-4,1.918
5,-4,1.919
10,-4,1.92
6,-3,1.921
2,-1,1.922
0,1,1.923
-2,1,1.924
0,1,1.925
1,3,1.926
0,3,1.927
-1,1,1.928
0,-1,1.929
2,0,1.93
3,2,1.931
5,1,1.932
7,1,1.933
5,-1,1.934
2,-1,1.935
0,-1,1.936
-2,-5,1.937
-2,-7,1.938
5,-1,1.939
10,3,1.94
6,4,1.941
2,5,1.942
0,4,1.943
-2,2,1.944
0,0,1.945
1,-1,1.946
0,0,1.947
-1,1,1.948
0,0,1.949
2,-2,1.95
3,-4,1.951
5,-5,1.952
7,-3,1.953
7,-1,1.954
6,-1,1.955
0,-4,1.956
-6,-7,1.957
-8,-4,1.958
-1,0,1.959
9,1,1.96
13,0,1.961
8,0,1.962
2,-1,1.963
2,-3,1.964
4,-3,1.965
2,1,1.966
0,4,1.967
1,1,1.968
2,-5,1.969
-1,-5,1.97
-4,-2,1.971
-3,0,1.972
1,0,1.973
3,-3,1.974
0,-3,1.975
-3,-1,1.976
-4,-4,1.977
-2,-5,1.978
4,-5,1.979
12,-2,1.98
15,0,1.981
13,1,1.982
10,0,1.983
9,-2,1.984
10,-3,1.985
8,-2,1.986
5,-1,1.987
3,1,1.988
0,2,1.989
-1,4,1.99
0,2,1.991
2,-2,1.992
5,0,1.993
5,0,1.994
4,4,1.995
0,2,1.996
-6,-4,1.997
-7,-7,1.998
1,-5,1.999
10,-1,2.0
6,3,2.001
-2,4,2.002
-4,2,2.003
2,0,2.004
7,-1,2.005
4,-1,2.006
1,0,2.007
5,0,2.008
6,0,2.009
4,-1,2.01
4,-3,2.011
7,-2,2.012
10,1,2.013
4,2,2.014
2,1,2.015
-1,0,2.016
-5,-3,2.017
-7,-3,2.018
1,-1,2.019
7,0,2.02
7,0,2.021
6,-1,2.022
4,-2,2.023
3,-1,2.024
1,-1,2.025
0,-2,2.026
0,-2,2.027
1,0,2.028
1,2,2.029
2,1,2.03
2,0,2.031
3,-1,2.032
3,1,2.033
0,-1,2.034
-3,-3,2.035
-7,-2,2.036
-6,-4,2.037
-4,-5,2.038
2,-6,2.039
8,-2,2.04
6,4,2.041
1,7,2.042
0,2,2.043
6,-1,2.044
8,-1,2.045
4,0,2.046
5,0,2.047
8,-2,2.048
7,-3,2.049
1,-2,2.05
1,-1,2.051
4,-1,2.052
5,1,2.053
3,3,2.054
1,4,2.055
-2,1,2.056
-6,-5,2.057
-6,-5,2.058
1,-3,2.059
12,0,2.06
11,0,2.061
3,0,2.062
1,0,2.063
6,1,2.064
8,3,2.065
3,5,2.066
0,4,2.067
2,1,2.068
5,-3,2.069
4,-3,2.07
0,-2,2.071
-2,0,2.072
-2,1,2.073
0,0,2.074
-1,-1,2.075
-4,-3,2.076
-7,-6,2.077
-8,-4,2.078
-2,-2,2.079
2,0,2.08
2,0,2.081
1,-1,2.082
0,0,2.083
-1,-1,2.084
3,-1,2.085
7,-1,2.086
2,-2,2.087
-2,-2,2.088
0,-2,2.089
1,-1,2.09
1,0,2.091
2,1,2.092
3,2,2.093
0,-3,2.094
-1,0,2.095
-4,2,2.096
-6,-2,2.097
-7,-4,2.098
-2,-2,2.099
2,-1,2.1
2,0,2.101
1,1,2.102
0,0,2.103
-1,-2,2.104
3,0,2.105
6,1,2.106
2,0,2.107
-2,-1,2.108
0,-2,2.109
1,-4,2.11
1,-3,2.111
2,-1,2.112
3,2,2.113
5,-3,2.114
5,0,2.115
4,2,2.116
2,-2,2.117
-1,-4,2.118
0,-2,2.119
6,-1,2.12
9,0,2.121
5,1,2.122
1,0,2.123
6,-2,2.124
11,0,2.125
7,1,2.126
0,0,2.127
0,-1,2.128
2,-2,2.129
2,-4,2.13
0,-3,2.131
1,-1,2.132
5,2,2.133
4,5,2.134
-1,3,2.135
-4,-2,2.136
-5,-6,2.137
-5,-4,2.138
0,-3,2.139
6,0,2.14
8,4,2.141
2,7,2.142
-1,1,2.143
2,-6,2.144
7,-5,2.145
4,2,2.146
0,2,2.147
0,-3,2.148
2,-7,2.149
1,-3,2.15
-1,1,2.151
2,1,2.152
8,1,2.153
11,-1,2.154
7,-2,2.155
-1,-2,2.156
-7,-5,2.157
-8,-3,2.158
-3,-1,2.159
4,1,2.16
4,2,2.161
1,2,2.162
1,-1,2.163
5,-4,2.164
6,-3,2.165
3,0,2.166
4,-1,2.167
9,-1,2.168
10,0,2.169
6,2,2.17
2,3,2.171
2,1,2.172
3,1,2.173
0,-1,2.174
-1,-2,2.175
-3,-3,2.176
-5,-4,2.177
-6,-3,2.178
0,-3,2.179
5,-3,2.18
5,1,2.181
5,5,2.182
3,3,2.183
2,-1,2.184
4,-3,2.185
5,-1,2.186
1,-1,2.187
-1,-3,2.188
0,-3,2.189
2,0,2.19
2,3,2.191
3,0,2.192
5,-1,2.193
7,-2,2.194
4,0,2.195
-2,1,2.196
-4,-1,2.197
-1,-2,2.198
4,-2,2.199
11,0,2.2
11,3,2.201
9,5,2.202
7,3,2.203
5,0,2.204
3,0,2.205
0,4,2.206
1,4,2.207
5,1,2.208
7,-2,2.209
7,0,2.21
4,3,2.211
4,3,2.212
6,2,2.213
7,1,2.214
4,-1,2.215
-2,-4,2.216
-6,-8,2.217
-4,-8,2.218
3,-6,2.219
9,-4,2.22
5,0,2.221
0,2,2.222
0,1,2.223
4,-2,2.224
6,0,2.225
2,3,2.226
0,3,2.227
1,-2,2.228
3,-4,2.229
1,-1,2.23
0,-1,2.231
-1,-4,2.232
0,-1,2.233
-1,1,2.234
-2,5,2.235
-5,2,2.236
-8,-5,2.237
-7,-5,2.238
0,-4,2.239
10,-1,2.24
13,0,2.241
5,1,2.242
-1,-1,2.243
1,-3,2.244
2,-3,2.245
0,0,2.246
0,3,2.247
5,2,2.248
7,1,2.249
2,0,2.25
-3,-2,2.251
-1,-5,2.252
5,-5,2.253
3,-4,2.254
1,-2,2.255
-1,0,2.256
-1,-2,2.257
-1,-3,2.258
4,-1,2.259
8,0,2.26
8,1,2.261
8,2,2.262
6,2,2.263
5,2,2.264
3,3,2.265
2,4,2.266
1,2,2.267
0,2,2.268
1,2,2.269
2,1,2.27
3,-3,2.271
4,-3,2.272
4,0,2.273
4,0,2.274
0,-3,2.275
-2,-5,2.276
-1,-6,2.277
0,-4,2.278
7,-4,2.279
12,-4,2.28
11,1,2.281
3,4,2.282
2,1,2.283
6,-4,2.284
8,-4,2.285
2,0,2.286
-2,2,2.287
-1,-1,2.288
2,-3,2.289
1,0,2.29
0,0,2.291
2,-1,2.292
3,0,2.293
0,0,2.294
-2,2,2.295
-4,0,2.296
-6,-5,2.297
-8,-3,2.298
-3,-1,2.299
6,1,2.3
8,2,2.301
3,4,2.302
1,5,2.303
5,3,2.304
7,0,2.305
1,0,2.306
-1,0,2.307
2,1,2.308
7,0,2.309
6,0,2.31
2,-1,2.311
4,0,2.312
11,0,2.313
3,-2,2.314
1,-3,2.315
0,-1,2.316
-4,-3,2.317
-5,-4,2.318
3,-4,2.319
9,-1,2.32
6,2,2.321
3,4,2.322
3,3,2.323
2,0,2.324
2,0,2.325
3,0,2.326
4,0,2.327
5,1,2.328
5,2,2.329
4,1,2.33
0,-1,2.331
-2,-3,2.332
1,-1,2.333
3,0,2.334
1,-2,2.335
0,-6,2.336
-4,-10,2.337
-5,-9,2.338
3,-7,2.339
9,-4,2.34
6,1,2.341
3,4,2.342
3,3,2.343
2,-1,2.344
2,-1,2.345
3,4,2.346
4,4,2.347
5,2,2.348
5,1,2.349
4,5,2.35
0,5,2.351
-2,2,2.352
1,1,2.353
4,1,2.354
0,1,2.355
-4,0,2.356
-5,-3,2.357
-3,-5,2.358
3,-3,2.359
10,-2,2.36
8,-1,2.361
3,0,2.362
1,0,2.363
4,0,2.364
5,0,2.365
2,0,2.366
-1,-1,2.367
1,-3,2.368
6,-3,2.369
8,-1,2.37
6,2,2.371
4,4,2.372
4,1,2.373
4,-1,2.374
2,-4,2.375
0,-5,2.376
-1,-7,2.377
-2,-5,2.378
3,-4,2.379
7,-1,2.38
7,1,2.381
7,3,2.382
5,2,2.383
4,-2,2.384
3,-3,2.385
2,0,2.386
0,2,2.387
0,-1,2.388
1,-3,2.389
3,0,2.39
0,4,2.391
-2,2,2.392
-3,-2,2.393
-3,-5,2.394
-2,-3,2.395
-3,-1,2.396
-4,-4,2.397
-5,-6,2.398
-3,-4,2.399
3,-3,2.4
5,-3,2.401
4,-2,2.402
6,-1,2.403
11,0,2.404
12,1,2.405
11,2,2.406
6,1,2.407
2,0,2.408
-1,3,2.409
-1,6,2.41
1,5,2.411
1,3,2.412
0,0,2.413
-3,-2,2.414
-3,-1,2.415
-3,0,2.416
-2,-2,2.417
0,-4,2.418
3,-4,2.419
6,-2,2.42
4,3,2.421
2,5,2.422
4,1,2.423
6,-3,2.424
5,-2,2.425
3,0,2.426
5,1,2.427
4,-1,2.428
1,-1,2.429
-1,0,2.43
1,1,2.431
3,0,2.432
6,1,2.433
6,1,2.434
5,0,2.435
0,-3,2.436
-3,-6,2.437
-3,-5,2.438
1,-2,2.439
5,0,2.44
4,3,2.441
1,5,2.442
1,3,2.443
3,-1,2.444
4,-1,2.445
4,2,2.446
4,3,2.447
4,0,2.448
3,-2,2.449
2,-1,2.45
2,-2,2.451
4,-6,2.452
3,-4,2.453
0,-2,2.454
-2,-2,2.455
-3,-8,2.456
-3,-14,2.457
-2,-11,2.458
1,-6,2.459
6,-3,2.46
7,-2,2.461
1,0,2.462
-2,-1,2.463
0,-5,2.464
1,-5,2.465
-2,-1,2.466
-5,0,2.467
-4,-1,2.468
-4,-1,2.469
-5,0,2.47
-5,0,2.471
0,-3,2.472
5,0,2.473
5,3,2.474
2,6,2.475
-3,4,2.476
-6,0,2.477
-7,1,2.478
1,3,2.479
11,5,2.48
12,6,2.481
4,7,2.482
1,6,2.483
6,4,2.484
9,3,2.485
7,6,2.486
4,6,2.487
6,3,2.488
9,0,2.489
6,0,2.49
1,2,2.491
2,1,2.492
4,1,2.493
2,2,2.494
0,2,2.495
-1,1,2.496
-2,-3,2.497
-3,-5,2.498
2,-5,2.499
6,-4,2.5
5,-3,2.501
4,-2,2.502
4,-3,2.503
5,-1,2.504
5,1,2.505
4,1,2.506
1,-2,2.507
-1,-6,2.508
0,-7,2.509
2,-4,2.51
6,-1,2.511
8,0,2.512
6,-1,2.513
3,-4,2.514
0,-5,2.515
-2,-6,2.516
-3,-8,2.517
-3,-10,2.518
3,-7,2.519
10,-4,2.52
9,-3,2.521
2,-2,2.522
-1,-2,2.523
3,-3,2.524
7,-3,2.525
7,-2,2.526
6,0,2.527
8,1,2.528
6,2,2.529
0,2,2.53
-4,0,2.531
-2,-2,2.532
2,-2,2.533
3,-1,2.534
1,0,2.535
-2,0,2.536
-3,-2,2.537
-4,-3,2.538
-1,-1,2.539
6,0,2.54
8,-1,2.541
2,-1,2.542
-3,1,2.543
-2,1,2.544
1,-1,2.545
2,-2,2.546
0,0,2.547
0,2,2.548
2,0,2.549
5,0,2.55
8,1,2.551
10,5,2.552
8,7,2.553
2,2,2.554
0,-4,2.555
0,-6,2.556
1,-6,2.557
1,-2,2.558
1,0,2.559
4,0,2.56
4,0,2.561
-1,2,2.562
-2,4,2.563
1,2,2.564
4,-2,2.565
3,-6,2.566
2,-6,2.567
4,-2,2.568
2,2,2.569
-2,3,2.57
-3,-1,2.571
1,-4,2.572
6,-1,2.573
3,3,2.574
1,3,2.575
0,-3,2.576
-1,-10,2.577
-1,-10,2.578
2,-4,2.579
5,1,2.58
8,5,2.581
10,4,2.582
7,1,2.583
4,0,2.584
4,2,2.585
3,4,2.586
1,4,2.587
0,-1,2.588
3,-4,2.589
6,-2,2.59
6,-1,2.591
4,-1,2.592
2,-1,2.593
1,-1,2.594
-2,0,2.595
-4,1,2.596
-5,-3,2.597
0,-5,2.598
6,-2,2.599
12,0,2.6
10,2,2.601
4,3,2.602
2,0,2.603
3,-2,2.604
4,0,2.605
3,3,2.606
1,2,2.607
2,1,2.608
2,2,2.609
-1,4,2.61
-2,2,2.611
2,1,2.612
6,0,2.613
2,-1,2.614
-2,0,2.615
-5,-1,2.616
-7,-4,2.617
-8,-4,2.618
-1,-4,2.619
9,-4,2.62
11,-2,2.621
3,0,2.622
-2,0,2.623
4,-1,2.624
7,-1,2.625
2,2,2.626
-3,2,2.627
0,0,2.628
6,-2,2.629
5,-2,2.63
0,0,2.631
-2,0,2.632
1,0,2.633
0,-2,2.634
2,-3,2.635
4,-2,2.636
1,-4,2.637
0,-4,2.638
2,-4,2.639
10,-3,2.64
12,-1,2.641
7,2,2.642
2,0,2.643
2,-2,2.644
1,-3,2.645
-2,0,2.646
-2,0,2.647
0,-1,2.648
0,-2,2.649
-1,0,2.65
1,1,2.651
7,0,2.652
11,0,2.653
6,0,2.654
2,0,2.655
-2,-3,2.656
-2,-8,2.657
-1,-6,2.658
4,-3,2.659
7,-5,2.66
5,-6,2.661
3,-2,2.662
2,2,2.663
1,3,2.664
1,2,2.665
2,0,2.666
2,-1,2.667
2,-1,2.668
6,1,2.669
8,3,2.67
5,1,2.671
2,0,2.672
2,2,2.673
4,5,2.674
2,3,2.675
-2,1,2.676
-5,-3,2.677
-4,-6,2.678
1,-1,2.679
11,3,2.68
13,3,2.681
9,2,2.682
5,0,2.683
6,0,2.684
6,1,2.685
3,2,2.686
1,-1,2.687
1,-4,2.688
0,-5,2.689
-1,-4,2.69
1,1,2.691
5,6,2.692
6,3,2.693
0,0,2.694
-2,-3,2.695
1,-4,2.696
4,-7,2.697
1,-6,2.698
1,-4,2.699
5,-2,2.7
2,0,2.701
-6,0,2.702
-10,-2,2.703
-3,-3,2.704
7,-1,2.705
7,0,2.706
4,3,2.707
9,5,2.708
16,4,2.709
12,0,2.71
7,-1,2.711
6,0,2.712
7,2,2.713
1,0,2.714
-8,-2,2.715
-13,-2,2.716
-15,-4,2.717
-18,-5,2.718
-16,-7,2.719
-6,-6,2.72
2,-1,2.721
0,0,2.722
-6,0,2.723
-5,-2,2.724
3,-3,2.725
10,-1,2.726
10,0,2.727
7,-1,2.728
8,-1,2.729
8,-1,2.73
7,1,2.731
5,1,2.732
4,0,2.733
0,0,2.734
-5,2,2.735
-8,3,2.736
-4,1,2.737
1,6,2.738
12,27,2.739
21,68,2.74
21,128,2.741
20,185,2.742
20,198,2.743
18,131,2.744
16,-5,2.745
10,-146,2.746
-6,-221,2.747
-18,-220,2.748
-16,-177,2.749
-14,-130,2.75
-8,-81,2.751
-3,-37,2.752
0,-8,2.753
3,18,2.754
7,59,2.755
10,84,2.756
11,60,2.757
9,24,2.758
6,-44,2.759
6,-97,2.76
1,-104,2.761
-7,-101,2.762
-14,-63,2.763
-14,-20,2.764
-10,37,2.765
-4,95,2.766
6,151,2.767
17,195,2.768
23,207,2.769
19,187,2.77
11,72,2.771
8,-35,2.772
11,-120,2.773
7,-178,2.774
-2,-112,2.775
-14,0,2.776
-30,108,2.777
-40,165,2.778
-27,128,2.779
-10,17,2.78
16,-85,2.781
38,-134,2.782
43,-171,2.783
45,-224,2.784
38,-246,2.785
28,-198,2.786
7,-130,2.787
-11,-89,2.788
-19,-62,2.789
-33,-14,2.79
-61,35,2.791
-74,58,2.792
-37,70,2.793
6,87,2.794
50,99,2.795
57,106,2.796
45,97,2.797
37,88,2.798
45,82,2.799
59,86,2.8
58,119,2.801
40,177,2.802
18,310,2.803
12,388,2.804
13,301,2.805
10,154,2.806
0,-171,2.807
-11,-416,2.808
-18,-416,2.809
-20,-389,2.81
-20,-277,2.811
-20,-173,2.812
-20,-94,2.813
-24,-22,2.814
-22,3,2.815
-21,7,2.816
-22,22,2.817
-22,45,2.818
-18,55,2.819
-14,64,2.82
-13,93,2.821
-11,113,2.822
-9,97,2.823
-7,66,2.824
-7,53,2.825
-8,54,2.826
-9,48,2.827
-10,34,2.828
-8,27,2.829
-6,22,2.83
-4,14,2.831
0,6,2.832
5,5,2.833
9,2,2.834
6,-6,2.835
4,-13,2.836
7,-16,2.837
10,-16,2.838
13,-19,2.839
12,-18,2.84
1,-12,2.841
-10,-11,2.842
-6,-16,2.843
16,-21,2.844
28,-16,2.845
13,-8,2.846
-5,-8,2.847
4,-12,2.848
33,-14,2.849
50,-11,2.85
50,-9,2.851
49,-8,2.852
54,-6,2.853
-430,-9,2.854
-241,-10,2.855
-111,-9,2.856
-156,-8,2.857
-164,-4,2.858
-57,-3,2.859
35,-7,2.86
89,-12,2.861
112,-14,2.862
38,-13,2.863
-21,-10,2.864
-35,-5,2.865
-39,2,2.866
-17,5,2.867
5,3,2.868
25,0,2.869
41,0,2.87
44,4,2.871
49,8,2.872
66,10,2.873
-779,7,2.874
-423,4,2.875
-176,1,2.876
-261,-2,2.877
-277,-3,2.878
-76,-7,2.879
100,-14,2.88
201,-18,2.881
244,-14,2.882
104,-11,2.883
-7,-9,2.884
-33,-4,2.885
-41,7,2.886
2,20,2.887
43,30,2.888
80,35,2.889
111,35,2.89
115,28,2.891
126,17,2.892
157,13,2.893
-377,9,2.894
-214,3,2.895
-101,-6,2.896
-140,-15,2.897
-147,-20,2.898
-55,-17,2.899
26,-8,2.9
72,0,2.901
92,-1,2.902
28,-15,2.903
-23,-28,2.904
-35,-23,2.905
-39,-10,2.906
-19,-2,2.907
0,-4,2.908
17,-7,2.909
31,-5,2.91
33,6,2.911
38,19,2.912
52,29,2.913
58,26,2.914
26,23,2.915
-5,21,2.916
-8,21,2.917
8,23,2.918
26,28,2.919
34,32,2.92
29,30,2.921
19,19,2.922
20,-18,2.923
29,-47,2.924
19,-45,2.925
-8,-42,2.926
-11,-34,2.927
41,-26,2.928
103,-24,2.929
115,-16,2.93
77,9,2.931
42,39,2.932
34,79,2.933
-22,111,2.934
-21,90,2.935
-20,21,2.936
-16,-50,2.937
-13,-76,2.938
-13,-56,2.939
-6,-24,2.94
21,-2,2.941
47,5,2.942
64,-17,2.943
81,-56,2.944
92,-58,2.945
94,16,2.946
67,132,2.947
24,227,2.948
-69,262,2.949
-119,191,2.95
-36,-30,2.951
26,-335,2.952
33,-524,2.953
-36,-491,2.954
-35,-316,2.955
-33,-159,2.956
-28,-68,2.957
-24,17,2.958
-24,92,2.959
-14,109,2.96
27,99,2.961
64,135,2.962
88,223,2.963
111,311,2.964
127,353,2.965
130,332,2.966
92,279,2.967
30,275,2.968
-103,348,2.969
-174,338,2.97
-56,47,2.971
34,-440,2.972
43,-778,2.973
5,-791,2.974
-168,-554,2.975
-243,-209,2.976
-151,206,2.977
15,582,2.978
97,627,2.979
46,213,2.98
-54,-361,2.981
-109,-670,2.982
-107,-615,2.983
-67,-409,2.984
-8,-230,2.985
26,-90,2.986
-2,26,2.987
-57,104,2.988
-65,148,2.989
-30,176,2.99
-21,172,2.991
-79,125,2.992
-161,93,2.993
-195,119,2.994
-106,173,2.995
107,190,2.996
325,159,2.997
396,132,2.998
316,117,2.999
230,89,3.0
216,45,3.001
184,7,3.002
66,-19,3.003
-44,-37,3.004
-39,-30,3.005
25,0,3.006
27,23,3.007
-34,17,3.008
-76,6,3.009
-67,20,3.01
-46,57,3.011
-43,91,3.012
-55,111,3.013
-75,106,3.014
-76,82,3.015
-68,63,3.016
-28,64,3.017
-24,60,3.018
-130,-8,3.019
-187,-170,3.02
-93,-359,3.021
0,-456,3.022
92,-397,3.023
141,-233,3.024
56,-76,3.025
16,9,3.026
112,43,3.027
153,90,3.028
27,187,3.029
-66,315,3.03
-62,415,3.031
-53,452,3.032
-30,432,3.033
-13,334,3.034
-7,106,3.035
13,-206,3.036
3,-398,3.037
-34,-333,3.038
-46,-179,3.039
-11,-207,3.04
27,-406,3.041
19,-532,3.042
-27,-495,3.043
-65,-389,3.044
-64,-261,3.045
-48,-59,3.046
-56,169,3.047
-67,306,3.048
-2,345,3.049
151,354,3.05
264,336,3.051
215,281,3.052
63,250,3.053
-39,273,3.054
4,303,3.055
98,304,3.056
105,264,3.057
39,83,3.058
25,-305,3.059
106,-649,3.06
168,-576,3.061
53,-150,3.062
-236,144,3.063
-470,71,3.064
-401,-76,3.065
-81,-2,3.066
164,174,3.067
151,190,3.068
66,24,3.069
116,-155,3.07
179,-208,3.071
49,-81,3.072
-152,178,3.073
-173,444,3.074
9,503,3.075
144,249,3.076
87,-229,3.077
-43,-672,3.078
-119,-765,3.079
-129,-346,3.08
-94,371,3.081
-30,875,3.082
15,798,3.083
18,237,3.084
20,-394,3.085
46,-748,3.086
50,-759,3.087
6,-566,3.088
-21,-306,3.089
12,-25,3.09
73,226,3.091
108,355,3.092
116,395,3.093
108,561,3.094
94,892,3.095
88,959,3.096
83,314,3.097
30,-739,3.098
-72,-1349,3.099
-141,-1145,3.1
-118,-611,3.101
-68,-279,3.102
-69,-114,3.103
-90,89,3.104
-71,225,3.105
-41,165,3.106
-63,91,3.107
-127,188,3.108
-193,325,3.109
-258,326,3.11
-277,271,3.111
-155,268,3.112
90,257,3.113
326,159,3.114
393,42,3.115
320,-32,3.116
237,-51,3.117
168,61,3.118
73,285,3.119
-17,326,3.12
-44,-17,3.121
-31,-416,3.122
-48,-407,3.123
-103,-135,3.124
-141,-87,3.125
-141,-226,3.126
-128,-80,3.127
-113,360,3.128
-78,560,3.129
9,330,3.13
153,45,3.131
286,-82,3.132
303,-240,3.133
185,-496,3.134
51,-491,3.135
0,19,3.136
-28,817,3.137
-138,1434,3.138
-252,1362,3.139
-189,320,3.14
57,-1169,3.141
279,-1894,3.142
315,-1318,3.143
213,-386,3.144
118,-213,3.145
71,-554,3.146
21,-457,3.147
-68,155,3.148
-165,620,3.149
-229,734,3.15
-260,731,3.151
-298,483,3.152
-362,-145,3.153
-428,-779,3.154
-407,-750,3.155
-248,-163,3.156
-6,331,3.157
205,517,3.158
318,541,3.159
341,322,3.16
321,-170,3.161
296,-437,3.162
248,-19,3.163
77,773,3.164
-301,1269,3.165
-755,1181,3.166
-897,592,3.167
-456,-304,3.168
311,-1077,3.169
809,-1259,3.17
769,-940,3.171
533,-658,3.172
505,-579,3.173
620,-400,3.174
522,-71,3.175
144,58,3.176
-159,-83,3.177
-154,-103,3.178
-37,154,3.179
-79,446,3.18
-241,696,3.181
-328,1039,3.182
-319,1217,3.183
-334,681,3.184
-394,-485,3.185
-416,-1380,3.186
-347,-1311,3.187
-173,-546,3.188
126,189,3.189
471,558,3.19
654,683,3.191
558,660,3.192
332,393,3.193
130,-225,3.194
-23,-854,3.195
-193,-949,3.196
-346,-383,3.197
-415,300,3.198
-409,470,3.199
-342,161,3.2
-155,-76,3.201
125,81,3.202
341,491,3.203
398,924,3.204
381,1226,3.205
325,1119,3.206
145,358,3.207
-132,-799,3.208
-305,-1641,3.209
-317,-1710,3.21
-349,-1207,3.211
-443,-622,3.212
-377,-227,3.213
-33,61,3.214
287,353,3.215
252,652,3.216
-31,782,3.217
-236,550,3.218
-258,77,3.219
-193,-139,3.22
-66,270,3.221
120,1046,3.222
244,1509,3.223
228,1178,3.224
182,115,3.225
179,-1088,3.226
109,-1616,3.227
-49,-1031,3.228
-85,142,3.229
90,764,3.23
225,232,3.231
154,-888,3.232
120,-1569,3.233
379,-1437,3.234
701,-811,3.235
616,-243,3.236
107,59,3.237
-340,289,3.238
-384,602,3.239
-178,845,3.24
-46,780,3.241
-80,478,3.242
-188,242,3.243
-327,182,3.244
-515,134,3.245
-665,25,3.246
-583,13,3.247
-224,170,3.248
205,358,3.249
444,493,3.25
447,605,3.251
344,531,3.252
253,46,3.253
186,-795,3.254
140,-1286,3.255
75,-873,3.256
-49,162,3.257
-171,991,3.258
-164,1015,3.259
-30,254,3.26
67,-740,3.261
60,-1250,3.262
57,-974,3.263
75,-342,3.264
-40,0,3.265
-294,-36,3.266
-412,-46,3.267
-226,181,3.268
52,520,3.269
169,930,3.27
185,1437,3.271
250,1681,3.272
271,1218,3.273
87,3,3.274
-163,-1225,3.275
-205,-1793,3.276
-46,-1673,3.277
56,-1231,3.278
29,-743,3.279
22,-293,3.28
81,106,3.281
82,423,3.282
-20,543,3.283
-141,363,3.284
-242,35,3.285
-314,-43,3.286
-243,348,3.287
19,943,3.288
274,1256,3.289
300,1005,3.29
184,252,3.291
174,-672,3.292
267,-1272,3.293
246,-1235,3.294
32,-773,3.295
-192,-331,3.296
-241,50,3.297
-148,455,3.298
-32,932,3.299
40,1088,3.3
61,278,3.301
40,-389,3.302
1,-627,3.303
-44,-672,3.304
-120,-134,3.305
-234,260,3.306
-320,224,3.307
-293,173,3.308
-166,79,3.309
-36,56,3.31
23,248,3.311
52,418,3.312
138,524,3.313
288,444,3.314
370,-378,3.315
271,-1102,3.316
92,-1211,3.317
40,-799,3.318
140,-239,3.319
206,309,3.32
104,756,3.321
-62,826,3.322
-94,395,3.323
58,-117,3.324
247,-205,3.325
314,1,3.326
225,-20,3.327
55,-344,3.328
-152,-547,3.329
-445,-445,3.33
-783,-296,3.331
-912,-251,3.332
-633,-169,3.333
-42,33,3.334
430,209,3.335
574,310,3.336
596,464,3.337
660,623,3.338
579,540,3.339
196,225,3.34
-243,10,3.341
-411,59,3.342
-338,168,3.343
-246,167,3.344
-138,164,3.345
90,253,3.346
303,256,3.347
270,-2,3.348
68,-370,3.349
-30,-511,3.35
15,-277,3.351
6,157,3.352
-98,454,3.353
-146,353,3.354
-67,-177,3.355
-14,-781,3.356
-81,-946,3.357
-152,-567,3.358
-160,-87,3.359
-224,92,3.36
-384,137,3.361
-450,445,3.362
-304,937,3.363
-113,1069,3.364
-55,550,3.365
-35,-226,3.366
111,-623,3.367
321,-463,3.368
420,-175,3.369
398,-230,3.37
340,-531,3.371
223,-513,3.372
45,50,3.373
-79,708,3.374
-23,877,3.375
94,840,3.376
78,180,3.377
-30,-383,3.378
-58,-659,3.379
-11,-849,3.38
-14,-783,3.381
-45,-721,3.382
19,-673,3.383
136,-458,3.384
142,255,3.385
25,651,3.386
-93,97,3.387
-181,-346,3.388
-289,-454,3.389
-374,-440,3.39
-337,-61,3.391
-196,241,3.392
-60,310,3.393
51,382,3.394
117,350,3.395
62,179,3.396
-104,225,3.397
-174,643,3.398
16,992,3.399
290,730,3.4
353,-126,3.401
204,-959,3.402
112,-1150,3.403
202,-661,3.404
337,19,3.405
380,484,3.406
354,763,3.407
317,961,3.408
244,899,3.409
94,474,3.41
-102,33,3.411
-239,-105,3.412
-233,-200,3.413
-134,-654,3.414
-110,-1165,3.415
-230,-1070,3.416
-321,-367,3.417
-220,310,3.418
-57,660,3.419
-41,888,3.42
-81,936,3.421
50,456,3.422
296,-374,3.423
366,-824,3.424
196,-628,3.425
-5,-273,3.426
-118,-139,3.427
-185,-57,3.428
-199,103,3.429
-112,121,3.43
-29,-57,3.431
-79,-143,3.432
-151,-30,3.433
-70,62,3.434
97,7,3.435
97,-13,3.436
-107,88,3.437
-291,144,3.438
-302,137,3.439
-212,296,3.44
-121,619,3.441
-32,702,3.442
80,284,3.443
207,-339,3.444
301,-684,3.445
265,-651,3.446
60,-507,3.447
-168,-425,3.448
-192,-297,3.449
-17,7,3.45
111,387,3.451
50,599,3.452
-65,565,3.453
-113,482,3.454
-135,570,3.455
-195,607,3.456
-187,487,3.457
13,237,3.458
286,-400,3.459
377,-697,3.46
217,32,3.461
5,581,3.462
-29,590,3.463
104,287,3.464
192,-957,3.465
70,-1875,3.466
-170,-1816,3.467
-280,-1620,3.468
-141,-1016,3.469
93,-468,3.47
192,-90,3.471
125,252,3.472
67,489,3.473
135,688,3.474
258,672,3.475
279,459,3.476
167,193,3.477
47,170,3.478
21,434,3.479
29,604,3.48
-59,451,3.481
-241,351,3.482
-337,659,3.483
-208,916,3.484
36,385,3.485
162,-730,3.486
107,-1380,3.487
17,-1011,3.488
-25,-122,3.489
-88,637,3.49
-173,1109,3.491
-139,1190,3.492
27,675,3.493
164,-340,3.494
144,-1027,3.495
99,-831,3.496
173,-248,3.497
238,-59,3.498
90,-280,3.499
-208,-383,3.5
-413,-203,3.501
-417,36,3.502
-294,302,3.503
-137,674,3.504
7,867,3.505
89,460,3.506
107,-366,3.507
128,-880,3.508
157,-704,3.509
93,-214,3.51
-90,76,3.511
-237,132,3.512
-225,172,3.513
-118,230,3.514
-20,203,3.515
100,111,3.516
291,74,3.517
386,114,3.518
190,176,3.519
4,272,3.52
-145,377,3.521
-224,340,3.522
-88,76,3.523
15,-241,3.524
15,-371,3.525
35,-280,3.526
111,-71,3.527
153,186,3.528
94,354,3.529
33,185,3.53
-32,-314,3.531
-89,-699,3.532
-113,-624,3.533
-136,-322,3.534
-143,-176,3.535
-103,-14,3.536
-26,191,3.537
-4,305,3.538
-71,139,3.539
-142,44,3.54
-135,166,3.541
-70,470,3.542
2,1318,3.543
78,1647,3.544
143,420,3.545
161,-788,3.546
167,-1940,3.547
211,-2420,3.548
238,-886,3.549
163,349,3.55
47,691,3.551
28,806,3.552
86,238,3.553
84,-331,3.554
8,-782,3.555
-22,-842,3.556
22,-486,3.557
26,-31,3.558
-41,232,3.559
-70,242,3.56
-25,18,3.561
-4,-296,3.562
-45,-341,3.563
-69,100,3.564
-42,768,3.565
-41,1185,3.566
-85,1090,3.567
-98,502,3.568
-55,-317,3.569
-23,-865,3.57
-32,-775,3.571
-30,-291,3.572
2,33,3.573
18,102,3.574
-3,211,3.575
-24,417,3.576
-24,405,3.577
-26,106,3.578
-32,-126,3.579
-20,-77,3.58
0,62,3.581
2,102,3.582
-5,96,3.583
6,101,3.584
20,47,3.585
12,-47,3.586
1,-56,3.587
22,27,3.588
50,73,3.589
45,54,3.59
21,45,3.591
11,52,3.592
14,19,3.593
12,-40,3.594
10,-45,3.595
7,-11,3.596
4,-20,3.597
2,-60,3.598
2,-58,3.599
3,-18,3.6
5,-4,3.601
6,-16,3.602
-1,-18,3.603
-6,-15,3.604
-2,-34,3.605
2,-51,3.606
2,-44,3.607
1,-36,3.608
2,-46,3.609
2,-50,3.61
-6,-27,3.611
-9,-7,3.612
3,-10,3.613
15,-18,3.614
19,-12,3.615
13,-9,3.616
1,-14,3.617
-5,-15,3.618
0,1,3.619
9,10,3.62
11,-5,3.621
10,-17,3.622
13,-21,3.623
15,-25,3.624
8,-31,3.625
1,-33,3.626
3,-23,3.627
8,-15,3.628
4,-15,3.629
-2,-7,3.63
-4,29,3.631
-1,55,3.632
2,45,3.633
1,28,3.634
4,-10,3.635
8,-26,3.636
8,-20,3.637
5,-4,3.638
8,6,3.639
12,20,3.64
10,53,3.641
3,103,3.642
-4,131,3.643
-6,88,3.644
-4,-35,3.645
-2,-164,3.646
-1,-198,3.647
-1,-120,3.648
-1,-14,3.649
2,38,3.65
8,32,3.651
16,14,3.652
19,4,3.653
15,-2,3.654
6,6,3.655
0,19,3.656
0,43,3.657
2,70,3.658
5,110,3.659
8,151,3.66
7,196,3.661
3,182,3.662
0,-11,3.663
0,-181,3.664
0,-284,3.665
2,-322,3.666
5,-164,3.667
8,-41,3.668
7,-27,3.669
1,24,3.67
0,191,3.671
1,346,3.672
0,466,3.673
-7,528,3.674
-14,269,3.675
-21,-199,3.676
-26,-575,3.677
-30,-610,3.678
-25,-403,3.679
-19,-227,3.68
-10,-153,3.681
-3,-69,3.682
-3,32,3.683
0,58,3.684
13,25,3.685
24,50,3.686
24,127,3.687
22,142,3.688
12,86,3.689
4,52,3.69
4,62,3.691
7,55,3.692
16,24,3.693
23,12,3.694
20,22,3.695
13,26,3.696
5,10,3.697
-9,0,3.698
-29,14,3.699
-46,24,3.7
-61,16,3.701
-85,10,3.702
-117,12,3.703
-121,12,3.704
-69,4,3.705
16,-1,3.706
82,2,3.707
109,4,3.708
132,2,3.709
177,0,3.71
212,1,3.711
190,2,3.712
126,-2,3.713
56,-4,3.714
15,-5,3.715
-5,-17,3.716
-26,-30,3.717
-52,-28,3.718
-78,-20,3.719
-104,-15,3.72
-126,-5,3.721
-121,1,3.722
-66,-2,3.723
20,-14,3.724
83,-17,3.725
83,-8,3.726
46,0,3.727
18,10,3.728
9,27,3.729
-5,40,3.73
-25,31,3.731
-23,10,3.732
2,-5,3.733
16,-16,3.734
1,-26,3.735
-25,-27,3.736
-38,-13,3.737
-38,3,3.738
-40,2,3.739
-48,-9,3.74
-61,-9,3.741
-68,0,3.742
-59,2,3.743
-31,2,3.744
-2,13,3.745
14,23,3.746
20,15,3.747
26,2,3.748
26,-1,3.749
15,5,3.75
8,5,3.751
16,2,3.752
27,3,3.753
28,3,3.754
30,-2,3.755
42,-7,3.756
48,-7,3.757
29,-5,3.758
5,-8,3.759
2,-12,3.76
10,-8,3.761
7,0,3.762
-5,4,3.763
-6,5,3.764
2,6,3.765
4,4,3.766
-4,0,3.767
-15,-2,3.768
-29,-2,3.769
-52,-4,3.77
-68,-9,3.771
-64,-11,3.772
-49,-5,3.773
-40,-1,3.774
-26,-3,3.775
6,-4,3.776
36,-2,3.777
27,0,3.778
-15,0,3.779
-38,-1,3.78
-9,-1,3.781
52,0,3.782
111,2,3.783
143,5,3.784
136,3,3.785
98,1,3.786
69,0,3.787
77,-2,3.788
94,-2,3.789
80,-2,3.79
39,0,3.791
4,1,3.792
-13,0,3.793
-31,-2,3.794
-46,0,3.795
-49,-2,3.796
-44,-9,3.797
-45,-6,3.798
-43,-2,3.799
-33,-2,3.8
-31,-4,3.801
-48,-2,3.802
-64,4,3.803
-55,9,3.804
-32,13,3.805
-27,16,3.806
-35,16,3.807
-34,13,3.808
-19,10,3.809
0,6,3.81
8,-2,3.811
-13,-8,3.812
-67,-8,3.813
-126,-3,3.814
-121,1,3.815
-26,1,3.816
94,-6,3.817
154,-12,3.818
150,-14,3.819
139,-12,3.82
136,-6,3.821
101,1,3.822
34,3,3.823
-5,1,3.824
16,0,3.825
41,0,3.826
11,0,3.827
-44,-1,3.828
-59,-2,3.829
-30,-1,3.83
-11,0,3.831
-34,1,3.832
-76,0,3.833
-110,0,3.834
-115,1,3.835
-82,4,3.836
-14,6,3.837
58,6,3.838
94,-1,3.839
91,-5,3.84
84,-3,3.841
85,5,3.842
51,7,3.843
-46,3,3.844
-150,2,3.845
-168,9,3.846
-96,12,3.847
-23,4,3.848
-5,-3,3.849
-9,-3,3.85
20,0,3.851
67,-2,3.852
85,-4,3.853
67,-5,3.854
53,-6,3.855
49,-8,3.856
75,-12,3.857
85,-10,3.858
45,-7,3.859
4,-5,3.86
-34,-5,3.861
-47,0,3.862
22,5,3.863
81,3,3.864
106,-2,3.865
119,-4,3.866
97,-1,3.867
55,3,3.868
-46,3,3.869
-130,2,3.87
-165,2,3.871
-171,3,3.872
-89,7,3.873
-10,8,3.874
28,9,3.875
33,10,3.876
57,6,3.877
106,2,3.878
125,0,3.879
80,-1,3.88
12,-1,3.881
-13,-2,3.882
-2,-10,3.883
-1,-16,3.884
-26,-17,3.885
-46,-19,3.886
-41,-19,3.887
-26,-17,3.888
-22,-5,3.889
-28,6,3.89
-32,10,3.891
-32,12,3.892
-27,9,3.893
-21,3,3.894
-17,-6,3.895
-18,-6,3.896
-22,-4,3.897
-22,-6,3.898
-12,-11,3.899
3,-6,3.9
11,8,3.901
7,13,3.902
-1,5,3.903
-1,0,3.904
3,2,3.905
5,4,3.906
3,2,3.907
2,0,3.908
5,4,3.909
8,9,3.91
10,11,3.911
12,11,3.912
17,4,3.913
17,-9,3.914
10,-16,3.915
1,-9,3.916
-2,-3,3.917
-1,-8,3.918
3,-19,3.919
9,-17,3.92
13,-7,3.921
10,-4,3.922
6,-11,3.923
4,-11,3.924
2,1,3.925
-1,9,3.926
-3,4,3.927
2,-2,3.928
11,0,3.929
14,7,3.93
15,10,3.931
21,11,3.932
33,10,3.933
33,3,3.934
17,-4,3.935
-8,-5,3.936
-27,-1,3.937
-32,0,3.938
-28,-3,3.939
-20,-2,3.94
-12,5,3.941
-4,10,3.942
8,8,3.943
20,1,3.944
24,-2,3.945
15,-3,3.946
8,-3,3.947
11,-1,3.948
20,2,3.949
22,0,3.95
14,0,3.951
12,1,3.952
15,2,3.953
0,-2,3.954
-41,-8,3.955
-83,-6,3.956
-82,-2,3.957
-30,1,3.958
34,2,3.959
65,5,3.96
61,6,3.961
47,-2,3.962
44,-17,3.963
38,-25,3.964
12,-15,3.965
-25,0,3.966
-44,5,3.967
-31,0,3.968
1,-1,3.969
28,2,3.97
36,4,3.971
26,1,3.972
12,-1,3.973
-1,2,3.974
-5,8,3.975
-5,8,3.976
-2,-1,3.977
6,-7,3.978
21,-5,3.979
38,5,3.98
46,11,3.981
39,10,3.982
24,2,3.983
7,-3,3.984
-11,-4,3.985
-25,-2,3.986
-30,0,3.987
-27,-1,3.988
-25,-2,3.989
-26,1,3.99
-25,3,3.991
-21,3,3.992
-17,5,3.993
-18,6,3.994
-22,8,3.995
-28,7,3.996
-35,2,3.997
-33,0,3.998
-20,3,3.999
-2,7,4.0
6,9,4.001
3,11,4.002
3,32,4.003
11,86,4.004
17,158,4.005
12,186,4.006
2,118,4.007
0,-15,4.008
4,-128,4.009
8,-163,4.01
9,-129,4.011
14,-69,4.012
23,-12,4.013
31,25,4.014
31,43,4.015
21,54,4.016
11,71,4.017
6,74,4.018
10,6,4.019
16,-141,4.02
20,-281,4.021
20,-314,4.022
20,-217,4.023
19,-57,4.024
14,59,4.025
6,61,4.026
1,-32,4.027
0,-134,4.028
-2,-166,4.029
-6,-126,4.03
-9,-59,4.031
-11,8,4.032
-9,73,4.033
-5,131,4.034
-3,161,4.035
-6,164,4.036
-11,155,4.037
-13,129,4.038
-10,80,4.039
-6,35,4.04
-8,36,4.041
-13,76,4.042
-16,106,4.043
-18,95,4.044
-19,57,4.045
-16,14,4.046
-2,-23,4.047
17,-48,4.048
27,-56,4.049
27,-49,4.05
22,-34,4.051
17,-14,4.052
10,8,4.053
-2,17,4.054
-8,7,4.055
-7,-10,4.056
-6,-16,4.057
-8,-5,4.058
-5,5,4.059
6,7,4.06
16,0,4.061
12,-6,4.062
5,-10,4.063
4,-9,4.064
7,-5,4.065
10,-7,4.066
15,-13,4.067
20,-14,4.068
23,-9,4.069
21,-8,4.07
17,-15,4.071
16,-18,4.072
14,-11,4.073
5,-7,4.074
-5,-7,4.075
-12,-7,4.076
-13,-4,4.077
-8,-1,4.078
-3,-3,4.079
0,-4,4.08
-5,-1,4.081
-15,1,4.082
-23,1,4.083
-26,0,4.084
-24,3,4.085
-20,8,4.086
-13,20,4.087
-6,44,4.088
-1,105,4.089
7,153,4.09
17,157,4.091
24,137,4.092
25,40,4.093
22,-58,4.094
23,-148,4.095
25,-217,4.096
23,-251,4.097
22,-214,4.098
22,-116,4.099
22,-28,4.1
20,-8,4.101
17,-16,4.102
11,45,4.103
7,201,4.104
13,323,4.105
19,255,4.106
19,-8,4.107
18,-289,4.108
17,-392,4.109
13,-271,4.11
3,-20,4.111
-6,246,4.112
-16,437,4.113
-27,437,4.114
-32,199,4.115
-26,-53,4.116
-20,-352,4.117
-16,-550,4.118
-15,-442,4.119
-8,-321,4.12
-3,-166,4.121
-7,-23,4.122
-14,82,4.123
-15,147,4.124
-10,89,4.125
-6,52,4.126
-9,81,4.127
-10,110,4.128
-8,140,4.129
-8,158,4.13
-8,136,4.131
-4,112,4.132
1,85,4.133
0,61,4.134
-5,58,4.135
-9,56,4.136
-6,36,4.137
0,8,4.138
5,-7,4.139
12,-4,4.14
16,9,4.141
16,37,4.142
13,99,4.143
16,198,4.144
21,270,4.145
21,205,4.146
14,-18,4.147
13,-266,4.148
18,-373,4.149
18,-327,4.15
10,-239,4.151
1,-177,4.152
-1,-117,4.153
-3,38,4.154
-3,27,4.155
0,-3,4.156
8,-13,4.157
14,-13,4.158
11,17,4.159
7,38,4.16
3,27,4.161
-2,-3,4.162
-7,-13,4.163
-11,-33,4.164
-8,-13,4.165
-3,-3,4.166
2,-13,4.167
6,-23,4.168
1,-33,4.169
-5,-44,4.17
-14,-64,4.171
-19,-75,4.172
-9,-23,4.173
0,1,4.174
6,0,4.175
10,-3,4.176
17,-4,4.177
23,-4,4.178
31,-1,4.179
41,1,4.18
40,0,4.181
20,-3,4.182
-3,-4,4.183
-10,-6,4.184
-2,-4,4.185
-1,-3,4.186
-9,-4,4.187
-12,-5,4.188
-7,-6,4.189
-7,-7,4.19
-12,-9,4.191
-10,-10,4.192
-2,-5,4.193
-1,-1,4.194
-4,-5,4.195
-4,-9,4.196
-1,-9,4.197
-1,-6,4.198
-1,-2,4.199
1,3,4.2
2,9,4.201
-1,7,4.202
-6,-2,4.203
-4,-8,4.204
1,-1,4.205
5,7,4.206
5,8,4.207
8,3,4.208
16,1,4.209
22,4,4.21
21,2,4.211
15,0,4.212
12,2,4.213
10,0,4.214
8,-3,4.215
4,-4,4.216
1,-5,4.217
5,-3,4.218
7,-3,4.219
4,0,4.22
-4,6,4.221
-11,11,4.222
-14,8,4.223
-13,-2,4.224
-13,-9,4.225
-12,-11,4.226
-5,-8,4.227
1,-4,4.228
6,0,4.229
7,2,4.23
6,2,4.231
2,-4,4.232
2,-8,4.233
0,-9,4.234
-3,-5,4.235
-9,-1,4.236
-15,-5,4.237
-16,-7,4.238
-15,-3,4.239
-12,2,4.24
-8,6,4.241
-3,6,4.242
1,5,4.243
8,7,4.244
14,10,4.245
21,9,4.246
26,8,4.247
27,4,4.248
23,1,4.249
17,2,4.25
15,5,4.251
16,8,4.252
18,10,4.253
15,4,4.254
8,-6,4.255
-1,-12,4.256
-13,-11,4.257
-26,-4,4.258
-37,1,4.259
-37,0,4.26
-29,-3,4.261
-21,-8,4.262
-12,-14,4.263
-3,-16,4.264
1,-8,4.265
-1,5,4.266
0,9,4.267
11,1,4.268
23,-5,4.269
28,-6,4.27
36,-2,4.271
51,0,4.272
67,5,4.273
66,4,4.274
58,-1,4.275
50,-8,4.276
42,-12,4.277
22,-7,4.278
1,2,4.279
-4,10,4.28
-6,13,4.281
-21,9,4.282
-36,-3,4.283
-35,-9,4.284
-25,-6,4.285
-25,2,4.286
-27,4,4.287
-17,1,4.288
-2,3,4.289
-2,9,4.29
-13,7,4.291
-22,-1,4.292
-25,-6,4.293
-27,0,4.294
-28,9,4.295
-26,10,4.296
-27,-3,4.297
-28,-16,4.298
-17,-20,4.299
10,-13,4.3
31,-1,4.301
29,8,4.302
17,8,4.303
14,1,4.304
19,-2,4.305
23,-4,4.306
25,-6,4.307
25,-9,4.308
18,-10,4.309
4,-9,4.31
-9,-8,4.311
-17,-2,4.312
-20,9,4.313
-19,18,4.314
-8,19,4.315
6,14,4.316
23,11,4.317
37,12,4.318
42,8,4.319
35,-7,4.32
21,-20,4.321
11,-20,4.322
6,-14,4.323
2,-10,4.324
-2,-7,4.325
-4,-5,4.326
-4,-7,4.327
-4,-10,4.328
-6,-7,4.329
-6,4,4.33
-7,16,4.331
-11,23,4.332
-13,27,4.333
-14,27,4.334
-13,17,4.335
-14,-10,4.336
-16,-44,4.337
-16,-58,4.338
-10,-47,4.339
-3,-29,4.34
3,-17,4.341
7,-9,4.342
7,2,4.343
7,12,4.344
9,18,4.345
8,23,4.346
7,29,4.347
10,31,4.348
19,29,4.349
26,28,4.35
21,26,4.351
11,19,4.352
11,12,4.353
22,9,4.354
28,6,4.355
16,1,4.356
0,-5,4.357
-6,-9,4.358
-4,-1,4.359
-4,3,4.36
-9,-6,4.361
-11,-15,4.362
-9,-14,4.363
-5,-13,4.364
-5,-12,4.365
-8,-11,4.366
-9,-11,4.367
-3,-10,4.368
8,-8,4.369
14,-4,4.37
8,9,4.371
-2,15,4.372
-3,1,4.373
8,-16,4.374
18,-32,4.375
16,-29,4.376
9,-18,4.377
11,-5,4.378
21,6,4.379
24,17,4.38
15,24,4.381
-2,21,4.382
-12,10,4.383
-14,5,4.384
-17,9,4.385
-23,14,4.386
-29,9,4.387
-28,-5,4.388
-17,-15,4.389
0,-11,4.39
12,-1,4.391
18,7,4.392
20,6,4.393
17,-4,4.394
15,-12,4.395
11,-19,4.396
5,-29,4.397
2,-34,4.398
6,-32,4.399
11,-26,4.4
8,-14,4.401
-4,3,4.402
-11,20,4.403
-7,30,4.404
-3,28,4.405
-6,20,4.406
-13,17,4.407
-9,16,4.408
5,12,4.409
17,7,4.41
21,4,4.411
22,3,4.412
23,3,4.413
21,2,4.414
13,0,4.415
1,-1,4.416
-7,-8,4.417
-10,-9,4.418
-9,-8,4.419
-8,-5,4.42
-11,-1,4.421
-14,3,4.422
-15,5,4.423
-10,1,4.424
-1,-6,4.425
9,-6,4.426
17,-2,4.427
18,-5,4.428
15,-11,4.429
10,-17,4.43
7,-18,4.431
9,-16,4.432
11,-13,4.433
5,-6,4.434
-2,3,4.435
-9,11,4.436
-14,12,4.437
-16,18,4.438
-13,27,4.439
-6,28,4.44
0,17,4.441
0,2,4.442
-4,-3,4.443
-1,2,4.444
8,6,4.445
14,4,4.446
13,-5,4.447
13,-14,4.448
18,-17,4.449
24,-16,4.45
26,-12,4.451
28,-6,4.452
32,3,4.453
27,8,4.454
13,15,4.455
-5,38,4.456
-14,75,4.457
-14,102,4.458
-12,75,4.459
-14,-4,4.46
-13,-91,4.461
-10,-136,4.462
-7,-135,4.463
-5,-111,4.464
-3,-83,4.465
-3,-52,4.466
-5,-15,4.467
-4,15,4.468
1,30,4.469
6,29,4.47
3,24,4.471
-2,25,4.472
0,32,4.473
3,40,4.474
0,46,4.475
-10,48,4.476
-17,39,4.477
-12,29,4.478
1,16,4.479
16,5,4.48
24,2,4.481
21,2,4.482
12,-4,4.483
2,-12,4.484
1,5,4.485
6,66,4.486
11,127,4.487
11,113,4.488
11,2,4.489
9,-123,4.49
5,-168,4.491
0,-126,4.492
0,-68,4.493
3,-36,4.494
-1,-14,4.495
-14,8,4.496
-25,17,4.497
-24,11,4.498
-9,6,4.499
6,9,4.5
12,10,4.501
9,3,4.502
4,5,4.503
1,13,4.504
-1,10,4.505
-1,0,4.506
5,0,4.507
11,10,4.508
11,9,4.509
6,-5,4.51
3,-10,4.511
5,-1,4.512
4,5,4.513
0,-1,4.514
-3,-6,4.515
-7,-4,4.516
-11,-2,4.517
-13,2,4.518
-8,10,4.519
-3,21,4.52
0,27,4.521
1,29,4.522
0,50,4.523
-2,102,4.524
-2,152,4.525
0,133,4.526
9,19,4.527
18,-113,4.528
20,-136,4.529
21,-20,4.53
19,143,4.531
17,270,4.532
19,344,4.533
23,257,4.534
33,-71,4.535
36,-362,4.536
31,-542,4.537
24,-525,4.538
25,81,4.539
28,475,4.54
22,229,4.541
13,-92,4.542
3,-641,4.543
-1,-958,4.544
-7,-577,4.545
-18,-244,4.546
-24,-55,4.547
-23,115,4.548
-20,228,4.549
-17,302,4.55
-17,255,4.551
-15,228,4.552
-15,261,4.553
-20,283,4.554
-19,208,4.555
-15,108,4.556
-12,112,4.557
-12,165,4.558
-12,134,4.559
-8,53,4.56
-8,28,4.561
-16,42,4.562
-21,24,4.563
-14,-8,4.564
0,2,4.565
14,26,4.566
20,8,4.567
21,2,4.568
20,134,4.569
15,399,4.57
11,557,4.571
11,336,4.572
13,-190,4.573
10,-683,4.574
9,-732,4.575
4,-398,4.576
-3,-121,4.577
-7,-119,4.578
0,-199,4.579
15,-157,4.58
21,-72,4.581
13,-63,4.582
1,-60,4.583
0,19,4.584
1,85,4.585
-6,76,4.586
-16,98,4.587
-19,240,4.588
-19,363,4.589
-19,275,4.59
-18,11,4.591
-9,-212,4.592
3,-255,4.593
10,-164,4.594
15,-56,4.595
13,-5,4.596
6,17,4.597
1,94,4.598
6,268,4.599
17,508,4.6
19,695,4.601
14,663,4.602
13,310,4.603
20,-246,4.604
23,-711,4.605
21,-856,4.606
19,-713,4.607
21,-477,4.608
17,-277,4.609
8,-122,4.61
3,-1,4.611
5,80,4.612
4,128,4.613
-5,150,4.614
-7,139,4.615
-7,97,4.616
2,57,4.617
11,45,4.618
19,44,4.619
24,90,4.62
22,277,4.621
18,561,4.622
12,654,4.623
7,304,4.624
5,-319,4.625
2,-717,4.626
0,-617,4.627
-2,-262,4.628
-4,-50,4.629
-8,-51,4.63
-12,-58,4.631
-16,18,4.632
-18,73,4.633
-20,72,4.634
-18,90,4.635
-16,108,4.636
-16,124,4.637
-16,136,4.638
-12,133,4.639
-5,126,4.64
-5,112,4.641
-11,107,4.642
-11,133,4.643
-5,134,4.644
2,60,4.645
3,-24,4.646
3,-143,4.647
5,-218,4.648
6,-158,4.649
4,-108,4.65
1,-94,4.651
3,-62,4.652
7,23,4.653
6,113,4.654
5,171,4.655
2,79,4.656
1,-167,4.657
2,-375,4.658
12,-338,4.659
25,-94,4.66
29,95,4.661
21,93,4.662
11,48,4.663
7,126,4.664
7,258,4.665
3,236,4.666
-3,-2,4.667
-5,-288,4.668
-1,-391,4.669
0,-245,4.67
-2,-8,4.671
-4,114,4.672
0,109,4.673
3,110,4.674
4,197,4.675
0,302,4.676
-4,331,4.677
-2,271,4.678
5,129,4.679
11,-56,4.68
12,-159,4.681
9,-102,4.682
10,1,4.683
13,-4,4.684
11,-88,4.685
3,-120,4.686
-2,-110,4.687
-3,-152,4.688
-6,-219,4.689
-12,-212,4.69
-12,-145,4.691
-1,-103,4.692
12,-76,4.693
12,-6,4.694
5,76,4.695
-1,105,4.696
-3,88,4.697
-5,92,4.698
-5,102,4.699
-1,76,4.7
0,46,4.701
-5,57,4.702
-6,79,4.703
5,64,4.704
17,38,4.705
18,61,4.706
14,176,4.707
14,373,4.708
14,527,4.709
9,401,4.71
3,-78,4.711
-1,-587,4.712
-5,-705,4.713
-10,-414,4.714
-7,-103,4.715
2,-47,4.716
6,-97,4.717
1,-45,4.718
0,45,4.719
11,42,4.72
18,8,4.721
13,27,4.722
4,25,4.723
3,-48,4.724
7,-91,4.725
4,-33,4.726
-2,24,4.727
-7,2,4.728
-9,-20,4.729
-12,24,4.73
-14,68,4.731
-11,52,4.732
-3,42,4.733
2,83,4.734
2,117,4.735
2,80,4.736
0,10,4.737
1,-21,4.738
15,-20,4.739
27,-22,4.74
29,-15,4.741
29,27,4.742
18,139,4.743
8,364,4.744
5,635,4.745
1,660,4.746
-1,169,4.747
-4,-648,4.748
-8,-1170,4.749
-11,-1005,4.75
-11,-438,4.751
-9,-29,4.752
-6,58,4.753
-3,51,4.754
-1,104,4.755
-7,126,4.756
-14,62,4.757
-14,33,4.758
-5,97,4.759
5,161,4.76
1,168,4.761
-11,175,4.762
-17,194,4.763
-10,156,4.764
-4,66,4.765
-5,20,4.766
-7,39,4.767
-1,42,4.768
4,4,4.769
6,-13,4.77
12,4,4.771
19,3,4.772
22,-25,4.773
18,-13,4.774
14,95,4.775
16,269,4.776
17,396,4.777
12,356,4.778
9,110,4.779
14,-219,4.78
17,-438,4.781
14,-463,4.782
8,-365,4.783
12,-239,4.784
13,-113,4.785
3,-23,4.786
-9,-13,4.787
-10,-56,4.788
0,-67,4.789
5,-28,4.79
-2,2,4.791
-10,7,4.792
-11,20,4.793
-11,43,4.794
-13,46,4.795
-13,30,4.796
-7,35,4.797
3,62,4.798
8,55,4.799
6,12,4.8
0,-8,4.801
-5,26,4.802
-5,86,4.803
-2,121,4.804
4,101,4.805
9,18,4.806
11,-80,4.807
10,-113,4.808
5,-44,4.809
1,68,4.81
-1,141,4.811
-2,142,4.812
-1,85,4.813
1,-7,4.814
5,-67,4.815
4,-53,4.816
2,-8,4.817
7,10,4.818
18,26,4.819
26,102,4.82
22,225,4.821
11,300,4.822
5,220,4.823
6,-67,4.824
2,-462,4.825
-7,-694,4.826
-12,-547,4.827
-6,-163,4.828
4,97,4.829
11,118,4.83
12,111,4.831
14,203,4.832
14,265,4.833
9,200,4.834
4,157,4.835
1,241,4.836
-2,268,4.837
-8,43,4.838
-9,-298,4.839
-2,-432,4.84
6,-297,4.841
10,-118,4.842
11,-69,4.843
12,-89,4.844
8,-69,4.845
2,-21,4.846
-3,5,4.847
-4,17,4.848
-7,44,4.849
-8,69,4.85
-4,71,4.851
2,67,4.852
6,90,4.853
2,136,4.854
-2,166,4.855
-6,135,4.856
-7,31,4.857
-4,-83,4.858
0,-128,4.859
0,-76,4.86
-9,10,4.861
-18,57,4.862
-21,50,4.863
-18,21,4.864
-14,0,4.865
-10,-2,4.866
-9,19,4.867
-8,45,4.868
-7,48,4.869
-1,23,4.87
7,-4,4.871
14,-14,4.872
18,-9,4.873
22,7,4.874
26,44,4.875
22,70,4.876
11,22,4.877
1,-97,4.878
5,-184,4.879
13,-137,4.88
11,-11,4.881
9,35,4.882
10,-51,4.883
19,-139,4.884
23,-103,4.885
20,20,4.886
13,128,4.887
5,203,4.888
2,267,4.889
3,276,4.89
6,174,4.891
11,-11,4.892
16,-198,4.893
17,-353,4.894
17,-411,4.895
14,-312,4.896
6,-103,4.897
0,85,4.898
-1,200,4.899
-3,297,4.9
-4,333,4.901
-7,155,4.902
-15,-202,4.903
-21,-429,4.904
-17,-317,4.905
-12,-39,4.906
-6,106,4.907
-1,83,4.908
-2,52,4.909
-4,75,4.91
-6,78,4.911
-8,49,4.912
-8,51,4.913
-6,84,4.914
-7,91,4.915
-12,57,4.916
-14,22,4.917
-3,2,4.918
13,-22,4.919
18,-34,4.92
13,-11,4.921
10,22,4.922
15,45,4.923
14,84,4.924
2,115,4.925
-6,36,4.926
-5,-160,4.927
-3,-302,4.928
-8,-230,4.929
-12,-35,4.93
-1,71,4.931
15,48,4.932
21,17,4.933
16,27,4.934
10,19,4.935
6,-36,4.936
2,-77,4.937
1,-55,4.938
10,-10,4.939
19,30,4.94
16,84,4.941
2,125,4.942
0,85,4.943
13,-31,4.944
19,-129,4.945
10,-134,4.946
0,-66,4.947
-1,26,4.948
4,121,4.949
5,197,4.95
4,234,4.951
8,241,4.952
10,239,4.953
2,138,4.954
-8,-107,4.955
-13,-307,4.956
-10,-366,4.957
-7,-358,4.958
-6,-146,4.959
-2,10,4.96
5,-6,4.961
16,-6,4.962
23,43,4.963
24,74,4.964
19,42,4.965
6,24,4.966
-5,49,4.967
-5,79,4.968
2,124,4.969
3,136,4.97
-3,46,4.971
-12,-40,4.972
-12,-120,4.973
-9,-136,4.974
-6,52,4.975
-6,114,4.976
-7,14,4.977
-7,-58,4.978
-3,-17,4.979
-1,28,4.98
-6,15,4.981
-20,17,4.982
-30,64,4.983
-30,78,4.984
-24,28,4.985
-19,-23,4.986
-5,-35,4.987
16,-24,4.988
32,23,4.989
27,126,4.99
18,207,4.991
26,160,4.992
44,27,4.993
50,-83,4.994
38,-120,4.995
19,-137,4.996
6,-162,4.997
-4,-154,4.998
-8,-136,4.999
-3,-170,5.0
3,-233,5.001
4,-227,5.002
0,-127,5.003
-2,-18,5.004
-2,53,5.005
-4,120,5.006
-1,196,5.007
5,227,5.008
6,177,5.009
-1,91,5.01
-4,38,5.011
5,28,5.012
18,25,5.013
17,-3,5.014
9,-41,5.015
0,-43,5.016
-7,18,5.017
-13,104,5.018
-12,102,5.019
-8,-34,5.02
-9,-191,5.021
-12,-196,5.022
-6,-36,5.023
6,132,5.024
10,183,5.025
3,170,5.026
1,190,5.027
10,199,5.028
16,93,5.029
12,-91,5.03
7,-183,5.031
10,-105,5.032
12,14,5.033
3,32,5.034
-5,-61,5.035
-10,-140,5.036
-16,-110,5.037
-22,-17,5.038
-19,8,5.039
-9,-81,5.04
-8,-168,5.041
-21,-108,5.042
-25,62,5.043
-5,159,5.044
21,107,5.045
35,27,5.046
38,24,5.047
39,36,5.048
36,-25,5.049
24,-100,5.05
14,-97,5.051
11,-51,5.052
12,-56,5.053
5,-93,5.054
-1,-56,5.055
-6,76,5.056
-11,185,5.057
-13,180,5.058
-10,95,5.059
-2,29,5.06
-1,15,5.061
-9,10,5.062
-13,-16,5.063
-6,-42,5.064
0,-32,5.065
0,0,5.066
0,9,5.067
2,-28,5.068
4,-81,5.069
5,-98,5.07
7,-65,5.071
8,-15,5.072
6,17,5.073
0,34,5.074
1,37,5.075
2,-13,5.076
2,-121,5.077
-1,-182,5.078
0,-93,5.079
5,71,5.08
10,129,5.081
11,33,5.082
14,-73,5.083
20,-68,5.084
21,5,5.085
15,55,5.086
8,61,5.087
5,51,5.088
4,30,5.089
0,7,5.09
-5,14,5.091
-8,49,5.092
-6,69,5.093
-4,59,5.094
-3,54,5.095
-5,71,5.096
-12,77,5.097
-15,66,5.098
-7,65,5.099
3,74,5.1
5,51,5.101
-2,-11,5.102
-11,-65,5.103
-10,-81,5.104
-6,-94,5.105
-3,-118,5.106
0,-113,5.107
6,-61,5.108
11,-5,5.109
12,5,5.11
13,-16,5.111
22,-50,5.112
36,-113,5.113
35,-216,5.114
18,-277,5.115
-8,-198,5.116
-19,-24,5.117
-13,91,5.118
2,78,5.119
14,53,5.12
10,141,5.121
-7,278,5.122
-21,313,5.123
-17,231,5.124
-4,139,5.125
1,65,5.126
-3,-58,5.127
-5,-185,5.128
3,-148,5.129
11,67,5.13
9,245,5.131
9,215,5.132
21,83,5.133
28,8,5.134
17,20,5.135
0,19,5.136
-4,-31,5.137
1,-71,5.138
4,-86,5.139
-1,-105,5.14
-4,-125,5.141
-4,-127,5.142
-5,-136,5.143
-8,-161,5.144
-8,-145,5.145
-4,-57,5.146
-1,37,5.147
-1,49,5.148
1,-18,5.149
11,-104,5.15
22,-171,5.151
26,-181,5.152
20,-97,5.153
10,79,5.154
5,230,5.155
6,252,5.156
2,166,5.157
-3,67,5.158
-1,-7,5.159
9,-50,5.16
13,-44,5.161
2,0,5.162
-9,29,5.163
-8,11,5.164
-2,-6,5.165
-2,13,5.166
-8,36,5.167
-13,33,5.168
-14,33,5.169
-18,62,5.17
-21,80,5.171
-13,46,5.172
3,-21,5.173
8,-93,5.174
-3,-131,5.175
-16,-91,5.176
-12,39,5.177
0,182,5.178
6,209,5.179
3,104,5.18
1,-11,5.181
1,-54,5.182
0,-49,5.183
-3,-41,5.184
-2,-33,5.185
4,-30,5.186
15,-52,5.187
25,-87,5.188
34,-89,5.189
39,-62,5.19
38,-56,5.191
27,-98,5.192
14,-179,5.193
-1,-311,5.194
-11,-422,5.195
-17,-360,5.196
-17,-62,5.197
-10,287,5.198
1,426,5.199
10,341,5.2
6,240,5.201
-4,225,5.202
-7,197,5.203
0,81,5.204
7,-37,5.205
10,-60,5.206
7,-1,5.207
7,88,5.208
10,173,5.209
17,200,5.21
20,121,5.211
17,3,5.212
8,-45,5.213
-2,-29,5.214
-1,-28,5.215
10,-73,5.216
20,-116,5.217
20,-144,5.218
13,-196,5.219
0,-245,5.22
-17,-216,5.221
-41,-132,5.222
-58,-90,5.223
-58,-91,5.224
-41,-21,5.225
-23,141,5.226
-14,250,5.227
-7,206,5.228
6,101,5.229
28,74,5.23
52,111,5.231
67,103,5.232
67,41,5.233
46,-6,5.234
16,-3,5.235
-9,0,5.236
-17,-32,5.237
-8,-58,5.238
7,-62,5.239
20,-83,5.24
18,-146,5.241
9,-197,5.242
3,-160,5.243
4,-33,5.244
3,103,5.245
-5,147,5.246
-11,52,5.247
-4,-125,5.248
6,-264,5.249
6,-267,5.25
-5,-171,5.251
-16,-111,5.252
-17,-127,5.253
-10,-71,5.254
-5,211,5.255
-12,577,5.256
-23,667,5.257
-23,394,5.258
-6,85,5.259
18,33,5.26
27,123,5.261
17,98,5.262
4,-21,5.263
-1,-54,5.264
-2,-2,5.265
-2,-12,5.266
3,-86,5.267
14,-117,5.268
16,-96,5.269
6,-98,5.27
-3,-118,5.271
1,-98,5.272
12,-67,5.273
8,-82,5.274
-2,-113,5.275
-7,-101,5.276
-5,-66,5.277
-2,-58,5.278
0,-63,5.279
10,-42,5.28
18,-15,5.281
18,-13,5.282
14,-15,5.283
15,3,5.284
15,13,5.285
5,-26,5.286
-6,-98,5.287
-6,-152,5.288
-4,-145,5.289
-10,-64,5.29
-20,60,5.291
-21,152,5.292
-12,168,5.293
-7,133,5.294
-2,108,5.295
1,101,5.296
4,82,5.297
2,65,5.298
1,80,5.299
5,102,5.3
10,73,5.301
10,-13,5.302
8,-105,5.303
7,-140,5.304
3,-94,5.305
-8,6,5.306
-19,92,5.307
-23,102,5.308
-20,54,5.309
-18,10,5.31
-14,-3,5.311
-1,-16,5.312
17,-39,5.313
27,-42,5.314
31,-10,5.315
34,20,5.316
34,12,5.317
34,-17,5.318
34,-69,5.319
31,-164,5.32
20,-257,5.321
8,-234,5.322
-6,-66,5.323
-20,91,5.324
-32,78,5.325
-40,-37,5.326
-35,-30,5.327
-27,155,5.328
-13,308,5.329
2,235,5.33
20,26,5.331
40,-77,5.332
60,-6,5.333
79,117,5.334
76,137,5.335
46,44,5.336
13,-68,5.337
-3,-113,5.338
-1,-85,5.339
-5,-26,5.34
-18,23,5.341
-28,54,5.342
-31,75,5.343
-35,87,5.344
-39,70,5.345
-35,21,5.346
-24,-24,5.347
-12,-34,5.348
-2,-17,5.349
12,-4,5.35
26,0,5.351
32,3,5.352
23,4,5.353
8,-10,5.354
-2,-41,5.355
-12,-72,5.356
-22,-83,5.357
-25,-65,5.358
-12,-37,5.359
3,-22,5.36
1,-21,5.361
-13,-25,5.362
-17,-30,5.363
-5,-40,5.364
8,-46,5.365
12,-34,5.366
18,-6,5.367
32,17,5.368
43,21,5.369
43,8,5.37
34,-7,5.371
21,-15,5.372
5,-14,5.373
-6,-11,5.374
-10,-14,5.375
-8,-28,5.376
-3,-53,5.377
1,-66,5.378
9,-48,5.379
7,7,5.38
-3,65,5.381
-12,84,5.382
-1,64,5.383
16,38,5.384
18,28,5.385
5,22,5.386
-1,8,5.387
3,-5,5.388
4,-7,5.389
-6,-7,5.39
-17,-12,5.391
-21,-11,5.392
-23,5,5.393
-23,17,5.394
-17,14,5.395
-9,4,5.396
5,3,5.397
17,8,5.398
19,6,5.399
17,4,5.4
1,10,5.401
-10,17,5.402
-6,15,5.403
0,8,5.404
5,3,5.405
13,0,5.406
24,-3,5.407
30,-2,5.408
17,3,5.409
3,3,5.41
-14,-5,5.411
-26,-15,5.412
-19,-19,5.413
-8,-17,5.414
9,-11,5.415
13,-6,5.416
3,-6,5.417
-2,-4,5.418
9,2,5.419
20,8,5.42
17,11,5.421
9,12,5.422
9,6,5.423
16,1,5.424
16,0,5.425
7,-6,5.426
0,-22,5.427
-1,-28,5.428
3,-6,5.429
12,14,5.43
18,31,5.431
17,40,5.432
12,26,5.433
-2,6,5.434
-14,-28,5.435
-23,-44,5.436
-24,-21,5.437
-20,25,5.438
-12,58,5.439
-12,64,5.44
-19,63,5.441
-19,65,5.442
-9,55,5.443
8,30,5.444
18,6,5.445
23,-2,5.446
30,-2,5.447
39,-9,5.448
42,-48,5.449
27,-150,5.45
4,-281,5.451
-9,-295,5.452
-9,-110,5.453
-6,195,5.454
-12,369,5.455
-22,304,5.456
-29,145,5.457
-28,71,5.458
-24,57,5.459
-21,11,5.46
-19,-42,5.461
-17,-37,5.462
-6,4,5.463
15,13,5.464
47,-2,5.465
75,-5,5.466
86,-11,5.467
73,-42,5.468
46,-65,5.469
25,-54,5.47
14,-41,5.471
0,-55,5.472
-17,-65,5.473
-26,-50,5.474
-20,-28,5.475
-17,-29,5.476
-28,-39,5.477
-34,-30,5.478
-24,-18,5.479
-13,-20,5.48
-2,-23,5.481
5,-17,5.482
0,-13,5.483
-10,-15,5.484
-34,-13,5.485
-52,-1,5.486
-54,2,5.487
-51,-6,5.488
-29,-12,5.489
-11,-8,5.49
-4,-4,5.491
7,-9,5.492
27,-9,5.493
50,-7,5.494
71,-6,5.495
55,-9,5.496
13,-12,5.497
-10,-7,5.498
15,0,5.499
53,2,5.5
56,5,5.501
37,6,5.502
40,5,5.503
64,6,5.504
67,10,5.505
37,11,5.506
1,2,5.507
-17,-8,5.508
-26,-11,5.509
-30,-9,5.51
-24,-7,5.511
-20,-7,5.512
-25,-5,5.513
-36,-6,5.514
-35,-12,5.515
-22,-16,5.516
-16,-14,5.517
-18,-5,5.518
-17,2,5.519
-11,9,5.52
-7,20,5.521
-7,30,5.522
-2,29,5.523
5,23,5.524
2,24,5.525
-6,25,5.526
-5,17,5.527
3,9,5.528
9,10,5.529
4,14,5.53
2,11,5.531
3,4,5.532
3,-1,5.533
-1,-7,5.534
-2,-26,5.535
0,-70,5.536
-1,-148,5.537
-2,-233,5.538
7,-264,5.539
24,-183,5.54
26,-17,5.541
7,116,5.542
-8,140,5.543
0,101,5.544
18,93,5.545
23,123,5.546
10,137,5.547
-4,118,5.548
-6,104,5.549
4,114,5.55
26,126,5.551
49,126,5.552
60,123,5.553
50,109,5.554
26,68,5.555
3,-15,5.556
-11,-142,5.557
-17,-278,5.558
-21,-332,5.559
-24,-207,5.56
-22,54,5.561
-21,252,5.562
-18,241,5.563
-13,107,5.564
-8,30,5.565
0,39,5.566
0,34,5.567
-10,-13,5.568
-28,-29,5.569
-43,4,5.57
-40,24,5.571
-19,8,5.572
5,-4,5.573
23,-5,5.574
34,-26,5.575
42,-62,5.576
49,-73,5.577
52,-53,5.578
48,-42,5.579
34,-46,5.58
14,-39,5.581
1,-25,5.582
0,-33,5.583
7,-53,5.584
11,-50,5.585
12,-24,5.586
15,-13,5.587
14,-21,5.588
2,-25,5.589
-14,-17,5.59
-21,-15,5.591
-18,-19,5.592
-19,-15,5.593
-24,-2,5.594
-28,7,5.595
-24,8,5.596
-17,7,5.597
-15,8,5.598
-12,8,5.599
-9,10,5.6
-15,15,5.601
-28,17,5.602
-38,12,5.603
-31,10,5.604
-13,14,5.605
5,14,5.606
22,6,5.607
36,-4,5.608
45,-4,5.609
48,-1,5.61
43,-4,5.611
33,-9,5.612
19,-9,5.613
4,-8,5.614
1,-15,5.615
8,-24,5.616
9,-23,5.617
4,-7,5.618
0,8,5.619
-2,13,5.62
-11,15,5.621
-23,16,5.622
-26,9,5.623
-16,-7,5.624
-1,-16,5.625
13,-3,5.626
26,24,5.627
42,38,5.628
47,20,5.629
35,-43,5.63
19,-147,5.631
7,-236,5.632
0,-212,5.633
-13,-38,5.634
-29,178,5.635
-41,277,5.636
-42,228,5.637
-36,154,5.638
-21,130,5.639
-3,122,5.64
13,85,5.641
24,43,5.642
27,23,5.643
28,5,5.644
33,-15,5.645
47,-10,5.646
63,20,5.647
61,30,5.648
39,-1,5.649
11,-34,5.65
-4,-40,5.651
-8,-40,5.652
-12,-51,5.653
-19,-62,5.654
-24,-62,5.655
-26,-59,5.656
-29,-61,5.657
-28,-49,5.658
-18,-32,5.659
-8,-32,5.66
-9,-56,5.661
-16,-77,5.662
-16,-79,5.663
-9,-65,5.664
-6,-36,5.665
-8,13,5.666
-7,54,5.667
0,56,5.668
3,27,5.669
0,9,5.67
-1,15,5.671
0,25,5.672
0,21,5.673
-2,7,5.674
-7,-1,5.675
-14,-5,5.676
-17,-9,5.677
-14,-8,5.678
-4,0,5.679
4,6,5.68
8,5,5.681
11,3,5.682
19,1,5.683
30,-3,5.684
34,-6,5.685
25,-3,5.686
13,7,5.687
10,10,5.688
14,3,5.689
15,-6,5.69
5,-2,5.691
-8,17,5.692
-18,32,5.693
-25,16,5.694
-31,-30,5.695
-34,-73,5.696
-28,-78,5.697
-24,-46,5.698
-26,-16,5.699
-19,-7,5.7
7,-4,5.701
40,1,5.702
58,-4,5.703
57,-27,5.704
49,-46,5.705
43,-35,5.706
37,-1,5.707
25,29,5.708
13,41,5.709
10,47,5.71
22,55,5.711
38,60,5.712
44,53,5.713
33,29,5.714
17,9,5.715
0,10,5.716
-13,23,5.717
-16,28,5.718
-3,10,5.719
16,-23,5.72
21,-49,5.721
10,-60,5.722
4,-65,5.723
13,-66,5.724
20,-45,5.725
13,13,5.726
0,87,5.727
-7,144,5.728
-13,176,5.729
-23,194,5.73
-26,185,5.731
-19,120,5.732
-13,21,5.733
-20,-64,5.734
-30,-99,5.735
-33,-103,5.736
-30,-99,5.737
-27,-67,5.738
-21,-8,5.739
-12,26,5.74
-8,8,5.741
-14,-10,5.742
-20,15,5.743
-15,53,5.744
-7,51,5.745
-6,14,5.746
-6,-16,5.747
-4,-33,5.748
0,-50,5.749
1,-61,5.75
5,-62,5.751
14,-61,5.752
23,-66,5.753
21,-68,5.754
17,-56,5.755
9,-48,5.756
4,-56,5.757
5,-37,5.758
10,28,5.759
14,95,5.76
9,72,5.761
0,-60,5.762
-1,-208,5.763
6,-242,5.764
10,-141,5.765
6,-10,5.766
5,50,5.767
8,54,5.768
5,64,5.769
0,88,5.77
-2,91,5.771
1,74,5.772
3,70,5.773
-1,75,5.774
-6,66,5.775
-11,44,5.776
-14,30,5.777
-11,32,5.778
-2,28,5.779
11,14,5.78
14,7,5.781
9,5,5.782
7,-1,5.783
12,-13,5.784
9,-16,5.785
-6,-10,5.786
-19,-5,5.787
-14,7,5.788
5,26,5.789
22,18,5.79
31,-31,5.791
37,-91,5.792
43,-106,5.793
46,-73,5.794
39,-29,5.795
22,-8,5.796
3,0,5.797
-9,9,5.798
-12,12,5.799
-11,3,5.8
-17,2,5.801
-25,23,5.802
-23,54,5.803
-15,70,5.804
-6,61,5.805
0,28,5.806
8,-10,5.807
12,-28,5.808
6,-15,5.809
-1,5,5.81
0,29,5.811
6,85,5.812
6,177,5.813
2,220,5.814
3,87,5.815
8,-196,5.816
14,-406,5.817
15,-351,5.818
18,-120,5.819
18,56,5.82
14,118,5.821
7,201,5.822
4,327,5.823
3,306,5.824
-1,21,5.825
-6,-327,5.826
-8,-446,5.827
-3,-303,5.828
1,-106,5.829
3,5,5.83
2,83,5.831
1,183,5.832
0,245,5.833
-2,193,5.834
-4,59,5.835
-7,-41,5.836
-7,-28,5.837
-5,68,5.838
0,133,5.839
3,89,5.84
-1,-38,5.841
-7,-142,5.842
-15,-150,5.843
-22,-87,5.844
-27,-21,5.845
-30,10,5.846
-26,20,5.847
-20,19,5.848
-6,11,5.849
7,1,5.85
20,2,5.851
31,23,5.852
37,76,5.853
44,160,5.854
43,195,5.855
38,70,5.856
27,-185,5.857
15,-351,5.858
9,-281,5.859
8,-92,5.86
7,0,5.861
2,-30,5.862
0,-43,5.863
-1,10,5.864
-4,39,5.865
-12,14,5.866
-17,7,5.867
-15,47,5.868
-15,74,5.869
-15,62,5.87
-17,51,5.871
-18,58,5.872
-13,61,5.873
-8,51,5.874
-4,62,5.875
0,89,5.876
-2,87,5.877
-1,54,5.878
12,16,5.879
22,-12,5.88
19,-31,5.881
16,-42,5.882
10,-48,5.883
6,-51,5.884
6,-39,5.885
6,2,5.886
3,41,5.887
1,38,5.888
0,8,5.889
-1,-8,5.89
0,-16,5.891
1,-47,5.892
0,-93,5.893
-2,-127,5.894
-6,-130,5.895
-4,-101,5.896
2,24,5.897
7,139,5.898
12,216,5.899
17,214,5.9
16,-27,5.901
10,-210,5.902
5,-215,5.903
7,-189,5.904
8,-65,5.905
3,37,5.906
-3,77,5.907
-6,118,5.908
-9,166,5.909
-12,160,5.91
-10,-5,5.911
-3,-133,5.912
8,-144,5.913
14,-126,5.914
14,-21,5.915
6,69,5.916
-3,155,5.917
-3,227,5.918
5,216,5.919
14,117,5.92
11,22,5.921
0,-16,5.922
-3,-51,5.923
0,-98,5.924
0,-55,5.925
-5,73,5.926
-7,64,5.927
-5,-204,5.928
-4,-461,5.929
-7,-378,5.93
-9,-55,5.931
-6,125,5.932
-1,83,5.933
0,49,5.934
0,164,5.935
-1,287,5.936
-1,274,5.937
2,165,5.938
11,27,5.939
16,-97,5.94
13,-123,5.941
3,-31,5.942
1,-3,5.943
6,-157,5.944
9,-319,5.945
6,-268,5.946
1,-88,5.947
0,-12,5.948
1,-31,5.949
4,47,5.95
13,269,5.951
23,483,5.952
26,511,5.953
17,234,5.954
6,-252,5.955
-3,-573,5.956
-7,-397,5.957
-9,61,5.958
0,219,5.959
6,-76,5.96
4,-355,5.961
2,-250,5.962
0,35,5.963
1,187,5.964
10,229,5.965
16,284,5.966
10,285,5.967
4,198,5.968
0,155,5.969
-2,142,5.97
1,-58,5.971
4,-418,5.972
5,-564,5.973
5,-348,5.974
-1,-87,5.975
-5,97,5.976
-4,49,5.977
-5,42,5.978
-8,159,5.979
-7,231,5.98
-5,169,5.981
-3,78,5.982
3,-97,5.983
12,-213,5.984
15,-149,5.985
8,-66,5.986
-2,71,5.987
-6,156,5.988
-5,84,5.989
-7,18,5.99
-10,-29,5.991
-8,-80,5.992
-6,-142,5.993
-9,-164,5.994
-13,-39,5.995
-15,57,5.996
-12,113,5.997
-9,162,5.998
-4,143,5.999
1,10,6.0
8,-119,6.001
13,-94,6.002
9,76,6.003
7,242,6.004
16,283,6.005
23,170,6.006
21,-45,6.007
20,-235,6.008
20,-272,6.009
18,-167,6.01
15,-52,6.011
12,8,6.012
6,62,6.013
0,110,6.014
-5,87,6.015
-6,59,6.016
-3,21,6.017
-4,-30,6.018
-6,-122,6.019
-2,-224,6.02
5,-352,6.021
8,-384,6.022
3,-125,6.023
3,78,6.024
10,111,6.025
13,157,6.026
9,243,6.027
3,279,6.028
3,164,6.029
2,64,6.03
0,11,6.031
-1,-19,6.032
-4,22,6.033
-7,51,6.034
-11,41,6.035
-16,40,6.036
-19,31,6.037
-16,14,6.038
-2,34,6.039
12,109,6.04
13,124,6.041
2,-63,6.042
-4,-354,6.043
-3,-424,6.044
1,-130,6.045
4,211,6.046
9,199,6.047
15,-110,6.048
18,-290,6.049
14,-133,6.05
9,139,6.051
8,246,6.052
8,176,6.053
1,18,6.054
-5,-159,6.055
-12,-285,6.056
-17,-254,6.057
-15,-57,6.058
-3,153,6.059
14,236,6.06
23,202,6.061
22,114,6.062
19,3,6.063
21,-79,6.064
19,-33,6.065
7,149,6.066
-6,303,6.067
-7,222,6.068
4,-90,6.069
14,-377,6.07
16,-390,6.071
17,-158,6.072
23,57,6.073
18,107,6.074
0,55,6.075
-14,41,6.076
-22,57,6.077
-25,31,6.078
-14,-17,6.079
-5,-9,6.08
-3,29,6.081
-2,16,6.082
-5,-40,6.083
-8,-46,6.084
-9,45,6.085
-10,189,6.086
-6,301,6.087
-1,279,6.088
0,66,6.089
1,-214,6.09
-2,-312,6.091
-5,-141,6.092
-3,69,6.093
0,94,6.094
10,-28,6.095
19,-103,6.096
20,-79,6.097
16,-58,6.098
19,-72,6.099
34,-39,6.1
38,66,6.101
23,164,6.102
2,169,6.103
-2,49,6.104
2,-143,6.105
0,-270,6.106
-8,-228,6.107
-9,-85,6.108
0,7,6.109
8,26,6.11
6,47,6.111
-1,49,6.112
-7,-12,6.113
-14,-63,6.114
-18,10,6.115
-18,94,6.116
-20,-2,6.117
-21,-166,6.118
-13,-126,6.119
0,96,6.12
6,201,6.121
2,105,6.122
2,39,6.123
12,108,6.124
15,152,6.125
5,80,6.126
-3,17,6.127
1,41,6.128
9,45,6.129
6,-36,6.13
-5,-111,6.131
-12,-114,6.132
-10,-97,6.133
-5,-87,6.134
-2,-36,6.135
-1,57,6.136
1,94,6.137
3,44,6.138
8,-12,6.139
14,-4,6.14
15,36,6.141
11,40,6.142
8,6,6.143
8,-36,6.144
12,-70,6.145
17,-91,6.146
17,-96,6.147
11,-89,6.148
4,-82,6.149
1,-71,6.15
4,-44,6.151
9,6,6.152
8,67,6.153
0,112,6.154
-8,118,6.155
-13,81,6.156
-9,42,6.157
-4,45,6.158
4,73,6.159
12,74,6.16
17,37,6.161
20,-2,6.162
12,-11,6.163
4,3,6.164
1,13,6.165
-2,-9,6.166
-4,-89,6.167
-7,-202,6.168
-5,-255,6.169
-4,-171,6.17
-3,-3,6.171
-2,103,6.172
-2,103,6.173
-2,71,6.174
0,85,6.175
5,114,6.176
7,98,6.177
2,65,6.178
3,73,6.179
13,109,6.18
17,104,6.181
9,47,6.182
0,-5,6.183
2,-14,6.184
9,2,6.185
7,9,6.186
3,-7,6.187
7,-38,6.188
11,-77,6.189
5,-116,6.19
-5,-142,6.191
-6,-131,6.192
0,-88,6.193
2,-60,6.194
-2,-104,6.195
-6,-180,6.196
-9,-164,6.197
-12,0,6.198
-13,179,6.199
-15,207,6.2
-15,105,6.201
-14,34,6.202
-15,38,6.203
-15,25,6.204
-6,-43,6.205
3,-92,6.206
12,-76,6.207
20,-39,6.208
22,3,6.209
24,86,6.21
22,167,6.211
20,154,6.212
17,59,6.213
15,-10,6.214
13,-10,6.215
5,-13,6.216
-4,-24,6.217
-14,-29,6.218
-16,-14,6.219
-15,-9,6.22
-14,-35,6.221
-10,-48,6.222
-7,-19,6.223
-6,6,6.224
0,19,6.225
23,27,6.226
55,19,6.227
69,1,6.228
51,-44,6.229
23,-72,6.23
9,-42,6.231
7,-21,6.232
0,-29,6.233
-15,-44,6.234
-18,-37,6.235
-18,70,6.236
-7,191,6.237
2,208,6.238
7,121,6.239
11,32,6.24
12,3,6.241
14,-2,6.242
12,-26,6.243
11,-59,6.244
10,-84,6.245
7,-112,6.246
0,-140,6.247
-5,-123,6.248
-9,-54,6.249
-14,3,6.25
-26,-26,6.251
-34,-127,6.252
-30,-190,6.253
-23,-137,6.254
-16,-7,6.255
-10,99,6.256
-11,135,6.257
-18,165,6.258
-18,175,6.259
-6,175,6.26
10,140,6.261
19,106,6.262
23,75,6.263
31,42,6.264
37,8,6.265
34,-23,6.266
25,-48,6.267
20,-95,6.268
20,-207,6.269
18,-270,6.27
12,-184,6.271
3,-83,6.272
-2,66,6.273
-5,174,6.274
-6,99,6.275
-8,-15,6.276
-13,-105,6.277
-15,-129,6.278
-11,-36,6.279
-9,156,6.28
-14,302,6.281
-20,260,6.282
-25,95,6.283
-25,-5,6.284
-20,-2,6.285
-6,-20,6.286
10,-112,6.287
17,-176,6.288
13,-133,6.289
7,-43,6.29
9,0,6.291
12,-19,6.292
12,-76,6.293
10,-137,6.294
22,-124,6.295
38,11,6.296
42,178,6.297
33,236,6.298
24,167,6.299
18,88,6.3
1,64,6.301
-24,35,6.302
-38,-47,6.303
-32,-139,6.304
-21,-193,6.305
-17,-208,6.306
-10,-160,6.307
4,-27,6.308
19,116,6.309
30,149,6.31
36,73,6.311
31,8,6.312
17,12,6.313
-1,22,6.314
-5,1,6.315
1,0,6.316
4,46,6.317
2,81,6.318
7,49,6.319
20,-6,6.32
24,-13,6.321
14,17,6.322
2,25,6.323
-4,-11,6.324
-9,-61,6.325
-17,-91,6.326
-25,-86,6.327
-29,-48,6.328
-25,2,6.329
-12,32,6.33
1,31,6.331
3,21,6.332
-5,21,6.333
-12,19,6.334
-7,13,6.335
0,17,6.336
2,31,6.337
2,38,6.338
8,17,6.339
17,-16,6.34
18,-40,6.341
13,-57,6.342
12,-90,6.343
19,-147,6.344
25,-206,6.345
24,-208,6.346
16,-100,6.347
7,79,6.348
-1,200,6.349
-14,149,6.35
-22,-46,6.351
-16,-253,6.352
4,-334,6.353
19,-219,6.354
10,73,6.355
-14,393,6.356
-22,536,6.357
3,452,6.358
45,271,6.359
66,139,6.36
49,77,6.361
16,36,6.362
-6,-3,6.363
-10,-26,6.364
-7,-30,6.365
-10,-25,6.366
-13,-25,6.367
-14,-47,6.368
-17,-87,6.369
-27,-111,6.37
-36,-107,6.371
-33,-101,6.372
-24,-104,6.373
-20,-98,6.374
-17,-72,6.375
-10,-54,6.376
4,-63,6.377
17,-63,6.378
26,-38,6.379
35,-29,6.38
34,-73,6.381
19,-128,6.382
-3,-120,6.383
-14,-24,6.384
-7,90,6.385
4,139,6.386
8,101,6.387
13,36,6.388
21,19,6.389
30,50,6.39
37,71,6.391
41,35,6.392
39,-49,6.393
22,-176,6.394
-6,-293,6.395
-34,-296,6.396
-50,-122,6.397
-50,149,6.398
-33,320,6.399
-10,291,6.4
7,155,6.401
17,49,6.402
23,17,6.403
23,35,6.404
11,78,6.405
-13,113,6.406
-32,93,6.407
-39,25,6.408
-34,-18,6.409
-21,-8,6.41
-1,8,6.411
9,-5,6.412
4,-21,6.413
-10,-16,6.414
-10,-8,6.415
7,-15,6.416
27,-27,6.417
35,-27,6.418
37,-25,6.419
36,-33,6.42
44,-41,6.421
70,-45,6.422
97,-54,6.423
95,-68,6.424
49,-74,6.425
-2,-66,6.426
-20,-47,6.427
-17,-23,6.428
-24,2,6.429
-38,9,6.43
-21,0,6.431
16,-3,6.432
31,10,6.433
8,25,6.434
-16,27,6.435
-23,21,6.436
-32,13,6.437
-51,8,6.438
-54,-2,6.439
-33,-3,6.44
-15,6,6.441
-16,10,6.442
-11,-5,6.443
14,-19,6.444
29,-20,6.445
12,-16,6.446
-9,-20,6.447
-1,-28,6.448
26,-27,6.449
40,-14,6.45
38,2,6.451
32,18,6.452
26,33,6.453
11,41,6.454
-7,43,6.455
-24,49,6.456
-37,54,6.457
-51,51,6.458
-55,23,6.459
-43,-32,6.46
-27,-101,6.461
-20,-142,6.462
-15,-107,6.463
4,-6,6.464
27,87,6.465
36,109,6.466
28,79,6.467
23,60,6.468
24,68,6.469
20,72,6.47
10,41,6.471
6,-73,6.472
11,-319,6.473
1,-703,6.474
-27,-949,6.475
-46,-711,6.476
-33,-3,6.477
-16,702,6.478
11,947,6.479
27,770,6.48
9,531,6.481
-2,407,6.482
10,304,6.483
17,170,6.484
4,99,6.485
-3,118,6.486
10,117,6.487
24,43,6.488
43,-31,6.489
55,-64,6.49
43,-97,6.491
34,-139,6.492
33,-147,6.493
32,-53,6.494
30,-71,6.495
20,-76,6.496
3,-34,6.497
-13,6,6.498
-27,31,6.499
-53,54,6.5
-87,73,6.501
-99,84,6.502
-70,77,6.503
-32,73,6.504
-15,73,6.505
-5,73,6.506
25,66,6.507
52,59,6.508
46,66,6.509
22,66,6.51
23,42,6.511
55,24,6.512
85,15,6.513
94,-5,6.514
80,-13,6.515
47,-15,6.516
0,3,6.517
-35,20,6.518
-40,31,6.519
-31,41,6.52
-41,49,6.521
-59,54,6.522
-60,51,6.523
-48,49,6.524
-39,49,6.525
-26,49,6.526
12,46,6.527
62,43,6.528
88,46,6.529
78,46,6.53
47,36,6.531
6,28,6.532
-32,24,6.533
-53,19,6.534
-42,14,6.535
-20,9,6.536
-18,3,6.537
-33,-5,6.538
-31,-15,6.539
-3,-20,6.54
20,-22,6.541
15,-29,6.542
-3,-38,6.543
-9,-37,6.544
-10,-24,6.545
-29,-12,6.546
-59,-9,6.547
-64,-9,6.548
-29,-1,6.549
12,10,6.55
23,15,6.551
17,14,6.552
28,11,6.553
-1,6,6.554
-6,3,6.555
-13,0,6.556
-23,-10,6.557
-33,-17,6.558
-38,-7,6.559
-37,17,6.56
-22,34,6.561
-5,27,6.562
18,6,6.563
42,-5,6.564
69,-5,6.565
85,-2,6.566
72,-6,6.567
58,-8,6.568
45,-9,6.569
29,-11,6.57
6,-16,6.571
-15,-17,6.572
-27,-19,6.573
2,21,6.574
-1,-7,6.575
-7,-30,6.576
-14,-44,6.577
-21,-60,6.578
-25,-84,6.579
-24,-95,6.58
-13,-67,6.581
-1,-42,6.582
15,-21,6.583
34,4,6.584
53,42,6.585
65,63,6.586
55,37,6.587
45,16,6.588
35,16,6.589
24,14,6.59
7,-7,6.591
-8,-28,6.592
-17,-42,6.593
-12,40,6.594
-22,-4,6.595
-36,-39,6.596
-57,-61,6.597
-76,-86,6.598
-85,-122,6.599
-84,-140,6.6
-54,-97,6.601
-20,-57,6.602
26,-24,6.603
75,14,6.604
127,72,6.605
160,105,6.606
133,65,6.607
106,33,6.608
80,33,6.609
48,29,6.61
1,-4,6.611
-40,-35,6.612
-64,-57,6.613
-77,1,6.614
-50,-11,6.615
-26,-21,6.616
2,-27,6.617
57,-34,6.618
134,-44,6.619
178,-49,6.62
145,-37,6.621
58,-26,6.622
-9,-17,6.623
-24,-6,6.624
-17,10,6.625
-29,19,6.626
-57,8,6.627
-67,-1,6.628
-55,-1,6.629
-48,-2,6.63
-59,-11,6.631
-63,-20,6.632
-46,-26,6.633
-23,-30,6.634
-13,-17,6.635
-16,-2,6.636
-6,9,6.637
16,20,6.638
29,30,6.639
16,34,6.64
-4,30,6.641
-10,21,6.642
-2,13,6.643
0,6,6.644
-11,-1,6.645
-18,-1,6.646
-14,4,6.647
-13,10,6.648
-21,11,6.649
-24,14,6.65
-6,24,6.651
21,31,6.652
32,30,6.653
23,17,6.654
15,10,6.655
9,6,6.656
2,-3,6.657
-6,-12,6.658
-5,-15,6.659
-1,-14,6.66
-10,-14,6.661
-30,-16,6.662
-42,-17,6.663
-38,-16,6.664
-31,-13,6.665
-17,-13,6.666
14,-23,6.667
56,-59,6.668
85,-118,6.669
86,-158,6.67
68,-124,6.671
40,-19,6.672
13,85,6.673
-7,126,6.674
-6,106,6.675
-3,78,6.676
5,62,6.677
8,36,6.678
-8,-6,6.679
-19,-31,6.68
-11,-25,6.681
-2,-12,6.682
4,-9,6.683
14,-4,6.684
33,2,6.685
49,-18,6.686
53,-67,6.687
53,-96,6.688
38,-64,6.689
23,7,6.69
13,62,6.691
6,61,6.692
6,14,6.693
4,-56,6.694
-11,-110,6.695
-40,-138,6.696
-64,-87,6.697
-76,-33,6.698
-88,31,6.699
-92,88,6.7
-70,120,6.701
-22,139,6.702
23,120,6.703
48,93,6.704
58,47,6.705
54,10,6.706
26,4,6.707
-8,-5,6.708
-13,-22,6.709
15,-32,6.71
34,-22,6.711
10,-17,6.712
-35,-26,6.713
-68,-33,6.714
-65,-35,6.715
-39,-43,6.716
-9,-55,6.717
19,-53,6.718
54,-43,6.719
99,-38,6.72
124,-27,6.721
103,-8,6.722
54,10,6.723
25,19,6.724
32,30,6.725
45,38,6.726
34,32,6.727
8,11,6.728
-14,-2,6.729
-26,0,6.73
-29,0,6.731
-27,-12,6.732
-24,-18,6.733
-27,-15,6.734
-34,-10,6.735
-36,-10,6.736
-34,-13,6.737
-32,-6,6.738
-26,5,6.739
-18,15,6.74
-14,25,6.741
-17,28,6.742
-18,21,6.743
-9,10,6.744
-3,6,6.745
-5,5,6.746
-5,-1,6.747
-1,-7,6.748
0,-7,6.749
-3,-3,6.75
-3,-5,6.751
6,-14,6.752
18,-26,6.753
20,-41,6.754
19,-58,6.755
14,-71,6.756
5,-84,6.757
-7,-97,6.758
-10,-103,6.759
0,-92,6.76
15,-53,6.761
18,14,6.762
12,103,6.763
2,187,6.764
-5,217,6.765
-15,175,6.766
-28,105,6.767
-33,59,6.768
-24,48,6.769
-5,50,6.77
13,59,6.771
29,73,6.772
54,56,6.773
76,-46,6.774
67,-212,6.775
24,-331,6.776
-4,-281,6.777
25,-51,6.778
76,210,6.779
83,321,6.78
46,241,6.781
25,94,6.782
38,13,6.783
45,15,6.784
23,51,6.785
2,91,6.786
2,114,6.787
1,98,6.788
-18,52,6.789
-35,11,6.79
-37,-19,6.791
-37,-61,6.792
-43,-104,6.793
-50,-113,6.794
-50,-82,6.795
-53,-58,6.796
-57,-63,6.797
-44,-62,6.798
-13,-45,6.799
7,-42,6.8
0,-54,6.801
-16,-48,6.802
-17,-17,6.803
-5,0,6.804
1,-12,6.805
3,-31,6.806
15,-36,6.807
35,-39,6.808
56,-54,6.809
63,-70,6.81
47,-73,6.811
17,-59,6.812
-7,-28,6.813
-17,8,6.814
-19,27,6.815
-27,22,6.816
-40,14,6.817
-39,25,6.818
-17,36,6.819
10,30,6.82
27,19,6.821
28,16,6.822
23,11,6.823
19,1,6.824
17,2,6.825
16,15,6.826
14,15,6.827
12,-3,6.828
8,-14,6.829
1,-5,6.83
-7,1,6.831
-9,-8,6.832
-5,-15,6.833
-3,-4,6.834
-5,10,6.835
-13,1,6.836
-17,-24,6.837
-18,-33,6.838
-15,-13,6.839
-14,19,6.84
-20,40,6.841
-31,41,6.842
-41,33,6.843
-44,31,6.844
-34,33,6.845
-12,30,6.846
23,20,6.847
57,11,6.848
76,12,6.849
81,13,6.85
87,2,6.851
88,-18,6.852
70,-45,6.853
32,-84,6.854
3,-117,6.855
-11,-107,6.856
-34,-45,6.857
-68,29,6.858
-76,61,6.859
-48,38,6.86
-17,-13,6.861
2,-62,6.862
41,-84,6.863
112,-60,6.864
162,-4,6.865
137,31,6.866
57,29,6.867
-8,52,6.868
-31,149,6.869
-28,245,6.87
-22,236,6.871
-26,142,6.872
-32,74,6.873
-39,56,6.874
-38,46,6.875
-37,10,6.876
-37,-18,6.877
-35,-22,6.878
-25,-44,6.879
-11,-82,6.88
-4,-79,6.881
-6,-30,6.882
-9,-4,6.883
-11,-30,6.884
-14,-56,6.885
-13,-41,6.886
-8,-30,6.887
-4,-65,6.888
-6,-112,6.889
-6,-110,6.89
0,-58,6.891
9,-5,6.892
12,22,6.893
8,22,6.894
6,0,6.895
3,-33,6.896
1,-51,6.897
3,-19,6.898
8,36,6.899
12,38,6.9
7,-39,6.901
1,-120,6.902
1,-110,6.903
3,-19,6.904
2,55,6.905
0,62,6.906
3,47,6.907
7,54,6.908
4,65,6.909
0,52,6.91
-2,35,6.911
-1,47,6.912
-1,73,6.913
-4,75,6.914
-4,45,6.915
-8,9,6.916
-15,-6,6.917
-16,-10,6.918
-5,-17,6.919
7,-30,6.92
16,-36,6.921
22,-31,6.922
30,-24,6.923
33,-23,6.924
24,-26,6.925
11,-29,6.926
7,-28,6.927
12,-29,6.928
15,-33,6.929
11,-36,6.93
8,-35,6.931
-2,-34,6.932
-19,-36,6.933
-38,-40,6.934
-37,-35,6.935
-18,-16,6.936
1,6,6.937
7,26,6.938
16,40,6.939
37,53,6.94
56,63,6.941
55,49,6.942
40,9,6.943
31,-22,6.944
35,-9,6.945
34,23,6.946
18,32,6.947
-9,27,6.948
-26,46,6.949
-30,84,6.95
-30,65,6.951
-39,-34,6.952
-46,-127,6.953
-41,-135,6.954
-22,-62,6.955
-6,9,6.956
2,30,6.957
12,33,6.958
27,42,6.959
41,44,6.96
45,33,6.961
42,26,6.962
40,33,6.963
35,38,6.964
17,36,6.965
-6,44,6.966
-17,58,6.967
-13,54,6.968
-11,16,6.969
-18,-29,6.97
-21,-70,6.971
-13,-122,6.972
-6,-164,6.973
-11,-151,6.974
-18,-70,6.975
-18,11,6.976
-15,40,6.977
-13,43,6.978
-10,63,6.979
-2,98,6.98
3,117,6.981
0,105,6.982
-5,36,6.983
-2,-97,6.984
3,-217,6.985
3,-209,6.986
1,-84,6.987
2,25,6.988
10,46,6.989
14,46,6.99
13,88,6.991
9,127,6.992
9,105,6.993
11,43,6.994
11,20,6.995
5,40,6.996
-2,15,6.997
-2,-101,6.998
5,-230,6.999
12,-243,7.0
12,-121,7.001
7,17,7.002
2,59,7.003
0,21,7.004
-2,-11,7.005
-2,-5,7.006
3,28,7.007
6,70,7.008
3,123,7.009
-2,178,7.01
-2,223,7.011
-1,230,7.012
-3,168,7.013
-7,18,7.014
-8,-128,7.015
-6,-161,7.016
-2,-89,7.017
6,-18,7.018
19,-11,7.019
30,-15,7.02
28,26,7.021
18,77,7.022
10,62,7.023
11,-34,7.024
11,-146,7.025
3,-193,7.026
-5,-141,7.027
-7,-43,7.028
-4,10,7.029
-2,-3,7.03
-7,-19,7.031
-17,4,7.032
-23,34,7.033
-6,28,7.034
8,15,7.035
16,44,7.036
-9,115,7.037
-26,180,7.038
-6,175,7.039
11,50,7.04
8,-133,7.041
6,-225,7.042
6,-135,7.043
8,16,7.044
8,48,7.045
8,-40,7.046
23,-103,7.047
33,-83,7.048
23,-51,7.049
11,-22,7.05
-4,85,7.051
-21,279,7.052
-34,415,7.053
-2,362,7.054
4,97,7.055
7,-267,7.056
-3,-537,7.057
-10,-535,7.058
-2,-277,7.059
5,-3,7.06
4,78,7.061
3,13,7.062
3,-25,7.063
4,2,7.064
4,13,7.065
4,-3,7.066
10,12,7.067
14,52,7.068
10,69,7.069
5,99,7.07
-1,211,7.071
-8,346,7.072
-13,369,7.073
-16,249,7.074
-17,106,7.075
-21,-12,7.076
-27,-58,7.077
-28,-114,7.078
-17,-199,7.079
5,-264,7.08
21,-264,7.081
31,-230,7.082
43,-95,7.083
57,14,7.084
59,43,7.085
48,72,7.086
31,96,7.087
22,96,7.088
19,26,7.089
14,-40,7.09
7,-93,7.091
0,-115,7.092
-4,-38,7.093
-10,24,7.094
-12,34,7.095
-13,71,7.096
-11,119,7.097
-10,119,7.098
-9,70,7.099
-7,33,7.1
-9,34,7.101
-17,41,7.102
-20,33,7.103
-15,27,7.104
-8,42,7.105
-5,91,7.106
-6,144,7.107
-6,122,7.108
-3,-26,7.109
-1,-204,7.11
2,-239,7.111
6,-78,7.112
6,121,7.113
1,203,7.114
0,123,7.115
-1,-52,7.116
1,-218,7.117
4,-285,7.118
2,-217,7.119
2,-74,7.12
6,70,7.121
9,200,7.122
9,278,7.123
10,186,7.124
8,-87,7.125
6,-290,7.126
4,-200,7.127
4,21,7.128
11,33,7.129
15,-165,7.13
8,-262,7.131
2,-139,7.132
4,-4,7.133
5,13,7.134
1,18,7.135
-12,90,7.136
-20,128,7.137
-15,76,7.138
-2,36,7.139
3,68,7.14
-2,102,7.141
-7,97,7.142
0,104,7.143
16,120,7.144
21,92,7.145
10,51,7.146
-1,63,7.147
4,67,7.148
14,-28,7.149
13,-116,7.15
7,-13,7.151
8,190,7.152
16,194,7.153
18,-123,7.154
13,-462,7.155
10,-457,7.156
5,-123,7.157
-3,201,7.158
-6,241,7.159
-3,19,7.16
0,-251,7.161
-1,-364,7.162
0,-255,7.163
4,-34,7.164
2,125,7.165
-9,163,7.166
-17,160,7.167
-14,173,7.168
-13,161,7.169
-22,93,7.17
-25,29,7.171
-17,21,7.172
-5,33,7.173
-1,14,7.174
4,-18,7.175
21,-31,7.176
41,-26,7.177
52,3,7.178
52,79,7.179
48,190,7.18
40,256,7.181
27,226,7.182
15,139,7.183
14,57,7.184
18,-18,7.185
15,-137,7.186
1,-305,7.187
-13,-440,7.188
-17,-446,7.189
-16,-314,7.19
-16,-130,7.191
-19,6,7.192
-20,58,7.193
-22,62,7.194
-26,60,7.195
-28,72,7.196
-24,94,7.197
-17,129,7.198
-5,161,7.199
4,170,7.2
5,147,7.201
7,111,7.202
9,85,7.203
12,64,7.204
17,35,7.205
18,2,7.206
8,1,7.207
1,48,7.208
5,96,7.209
7,72,7.21
5,-39,7.211
3,-158,7.212
1,-195,7.213
0,-146,7.214
-6,-77,7.215
-6,-39,7.216
-2,-24,7.217
-4,-10,7.218
-7,-10,7.219
-1,-25,7.22
8,-30,7.221
5,-16,7.222
-6,-17,7.223
-7,-47,7.224
0,-47,7.225
5,72,7.226
0,264,7.227
0,323,7.228
5,92,7.229
7,-281,7.23
1,-460,7.231
-2,-308,7.232
5,-65,7.233
14,36,7.234
19,15,7.235
16,40,7.236
9,126,7.237
2,157,7.238
3,165,7.239
13,313,7.24
23,550,7.241
25,550,7.242
18,132,7.243
13,-431,7.244
13,-700,7.245
16,-571,7.246
15,-313,7.247
9,-162,7.248
-3,-83,7.249
-22,9,7.25
-37,66,7.251
-41,28,7.252
-36,-15,7.253
-29,19,7.254
-21,92,7.255
-10,112,7.256
-2,98,7.257
4,116,7.258
13,137,7.259
17,117,7.26
12,87,7.261
2,99,7.262
0,144,7.263
4,185,7.264
3,183,7.265
-1,79,7.266
2,-121,7.267
15,-267,7.268
21,-193,7.269
17,26,7.27
15,131,7.271
20,15,7.272
23,-146,7.273
15,-193,7.274
2,-143,7.275
-5,-117,7.276
-7,-131,7.277
-5,-97,7.278
4,4,7.279
18,82,7.28
19,81,7.281
5,51,7.282
-8,72,7.283
-6,125,7.284
2,121,7.285
2,24,7.286
-9,-88,7.287
-25,-118,7.288
-42,-53,7.289
-53,17,7.29
-45,28,7.291
-22,7,7.292
0,19,7.293
8,66,7.294
9,90,7.295
24,66,7.296
54,38,7.297
82,38,7.298
84,18,7.299
59,-87,7.3
23,-229,7.301
2,-267,7.302
5,-130,7.303
15,88,7.304
11,225,7.305
-4,206,7.306
-14,61,7.307
-21,-110,7.308
-33,-192,7.309
-45,-113,7.31
-39,54,7.311
-16,143,7.312
5,92,7.313
12,-8,7.314
8,-41,7.315
8,-32,7.316
14,-53,7.317
17,-58,7.318
16,15,7.319
11,115,7.32
3,134,7.321
-1,82,7.322
0,49,7.323
4,53,7.324
-2,38,7.325
-18,-10,7.326
-26,-42,7.327
-16,-51,7.328
2,-68,7.329
8,-83,7.33
2,-61,7.331
2,-6,7.332
7,17,7.333
6,-19,7.334
-4,-59,7.335
-15,-39,7.336
-16,21,7.337
-10,62,7.338
-2,52,7.339
9,25,7.34
17,13,7.341
14,5,7.342
6,-19,7.343
8,-46,7.344
16,-51,7.345
10,-40,7.346
-9,-28,7.347
-21,-20,7.348
-10,-5,7.349
12,7,7.35
22,0,7.351
15,-5,7.352
5,15,7.353
-2,55,7.354
-3,76,7.355
-6,62,7.356
-14,36,7.357
-17,26,7.358
-7,27,7.359
3,14,7.36
12,-27,7.361
21,-92,7.362
27,-146,7.363
33,-135,7.364
37,-46,7.365
36,55,7.366
20,93,7.367
6,54,7.368
0,3,7.369
-8,-6,7.37
-17,18,7.371
-24,45,7.372
-20,60,7.373
-16,52,7.374
-18,25,7.375
-21,-8,7.376
-21,-29,7.377
-18,-29,7.378
-9,-36,7.379
2,-66,7.38
1,-109,7.381
-12,-134,7.382
-14,-104,7.383
3,-16,7.384
25,70,7.385
33,87,7.386
31,37,7.387
33,-12,7.388
38,-22,7.389
42,-24,7.39
45,-56,7.391
38,-96,7.392
24,-83,7.393
7,2,7.394
0,110,7.395
-7,147,7.396
-18,70,7.397
-25,-53,7.398
-18,-118,7.399
-12,-71,7.4
-11,74,7.401
-11,250,7.402
-15,347,7.403
-16,287,7.404
-8,126,7.405
0,10,7.406
3,2,7.407
2,12,7.408
-15,-37,7.409
-28,-92,7.41
-25,-67,7.411
-15,5,7.412
15,46,7.413
40,43,7.414
31,28,7.415
9,-6,7.416
-3,-74,7.417
4,-165,7.418
24,-341,7.419
39,-670,7.42
37,-960,7.421
30,-762,7.422
30,59,7.423
32,924,7.424
20,1099,7.425
-5,609,7.426
-20,148,7.427
-17,110,7.428
-9,198,7.429
-9,80,7.43
-11,-100,7.431
-12,-103,7.432
-11,-14,7.433
-13,-9,7.434
-13,-57,7.435
-16,-47,7.436
-27,-27,7.437
-41,-70,7.438
-42,-101,7.439
-23,-58,7.44
1,-22,7.441
16,-60,7.442
19,-100,7.443
20,-90,7.444
26,-101,7.445
33,-195,7.446
37,-298,7.447
31,-300,7.448
15,-163,7.449
-7,49,7.45
-26,218,7.451
-37,242,7.452
-35,147,7.453
-20,45,7.454
4,21,7.455
20,25,7.456
21,-12,7.457
21,-53,7.458
28,-42,7.459
35,-3,7.46
23,23,7.461
1,43,7.462
-8,69,7.463
-4,73,7.464
1,48,7.465
0,27,7.466
-5,25,7.467
-8,-8,7.468
-2,-103,7.469
17,-188,7.47
33,-144,7.471
29,48,7.472
11,257,7.473
7,334,7.474
23,221,7.475
28,26,7.476
4,-87,7.477
-26,-51,7.478
-34,38,7.479
-34,70,7.48
-47,28,7.481
-63,-15,7.482
-55,-7,7.483
-22,23,7.484
9,26,7.485
31,-1,7.486
55,-26,7.487
83,-44,7.488
95,-100,7.489
77,-211,7.49
31,-300,7.491
-20,-258,7.492
-48,-80,7.493
-42,120,7.494
-13,190,7.495
11,127,7.496
19,83,7.497
27,123,7.498
44,123,7.499
52,-8,7.5
28,-156,7.501
-12,-164,7.502
-42,-51,7.503
-57,58,7.504
-65,115,7.505
-62,150,7.506
-48,154,7.507
-33,95,7.508
-28,9,7.509
-29,-35,7.51
-17,-44,7.511
7,-55,7.512
32,-68,7.513
53,-62,7.514
70,-50,7.515
73,-46,7.516
56,-68,7.517
27,-80,7.518
5,-58,7.519
-10,-45,7.52
-26,-57,7.521
-38,-62,7.522
-32,-44,7.523
-11,-24,7.524
9,5,7.525
22,38,7.526
29,79,7.527
28,103,7.528
21,76,7.529
15,55,7.53
13,56,7.531
0,49,7.532
-24,17,7.533
-54,-28,7.534
-56,-132,7.535
-21,-273,7.536
22,-363,7.537
38,-256,7.538
24,59,7.539
4,375,7.54
9,470,7.541
21,356,7.542
18,205,7.543
-2,113,7.544
-9,55,7.545
5,6,7.546
14,-11,7.547
-6,-10,7.548
-27,-21,7.549
-16,-36,7.55
15,-31,7.551
29,-26,7.552
25,-53,7.553
17,-105,7.554
5,-132,7.555
-22,-124,7.556
-50,-112,7.557
-49,-100,7.558
-26,-86,7.559
-8,-77,7.56
1,-76,7.561
23,-78,7.562
52,-90,7.563
58,-124,7.564
31,-134,7.565
0,-50,7.566
-16,116,7.567
-19,248,7.568
-14,265,7.569
-1,205,7.57
17,143,7.571
25,84,7.572
22,24,7.573
12,-19,7.574
4,-16,7.575
-3,-1,7.576
-16,-16,7.577
-39,-28,7.578
-64,-2,7.579
-74,32,7.58
-59,25,7.581
-29,-4,7.582
-6,-11,7.583
11,-5,7.584
39,-9,7.585
83,-18,7.586
106,-9,7.587
78,5,7.588
15,-9,7.589
-34,-42,7.59
-39,-64,7.591
-6,-65,7.592
34,-60,7.593
52,-63,7.594
44,-67,7.595
31,-74,7.596
37,-82,7.597
50,-74,7.598
38,-44,7.599
-5,-3,7.6
-36,34,7.601
-20,52,7.602
26,55,7.603
42,49,7.604
17,44,7.605
-9,43,7.606
-4,42,7.607
3,33,7.608
-18,19,7.609
-49,11,7.61
-54,2,7.611
-39,-4,7.612
-32,-4,7.613
-39,2,7.614
-44,9,7.615
-43,12,7.616
-42,13,7.617
-39,20,7.618
-30,23,7.619
-25,18,7.62
-26,14,7.621
-23,15,7.622
-18,14,7.623
-24,1,7.624
-25,-23,7.625
15,-56,7.626
86,-78,7.627
129,-63,7.628
117,-11,7.629
87,36,7.63
72,40,7.631
56,13,7.632
15,-1,7.633
-34,-4,7.634
-59,-24,7.635
-53,-75,7.636
-31,-107,7.637
-1,-70,7.638
31,12,7.639
45,77,7.64
26,88,7.641
-6,66,7.642
-19,46,7.643
-12,37,7.644
0,31,7.645
15,21,7.646
31,12,7.647
40,8,7.648
30,12,7.649
10,26,7.65
-7,41,7.651
-15,41,7.652
-18,25,7.653
-14,-3,7.654
-5,-18,7.655
0,-18,7.656
-5,-21,7.657
-14,-28,7.658
-20,-33,7.659
-27,-32,7.66
-37,-30,7.661
-43,-33,7.662
-43,-35,7.663
-43,-28,7.664
-42,-12,7.665
-20,1,7.666
36,0,7.667
90,-15,7.668
93,-26,7.669
45,-25,7.67
0,-22,7.671
7,-25,7.672
42,-27,7.673
55,-18,7.674
38,-5,7.675
23,-1,7.676
27,-1,7.677
30,9,7.678
9,23,7.679
-23,28,7.68
-43,24,7.681
-42,23,7.682
-30,25,7.683
-27,23,7.684
-41,19,7.685
-49,18,7.686
-26,15,7.687
15,1,7.688
34,-18,7.689
22,-33,7.69
17,-38,7.691
39,-37,7.692
57,-30,7.693
30,-19,7.694
-16,-6,7.695
-50,1,7.696
-44,3,7.697
-34,10,7.698
-12,18,7.699
5,27,7.7
8,30,7.701
7,28,7.702
-6,14,7.703
-10,-7,7.704
23,-22,7.705
50,-21,7.706
54,-10,7.707
56,-11,7.708
54,-35,7.709
40,-70,7.71
-5,-85,7.711
-42,-52,7.712
-51,11,7.713
-52,32,7.714
-29,-21,7.715
0,-64,7.716
22,-72,7.717
24,-46,7.718
6,87,7.719
-14,187,7.72
-22,185,7.721
-14,177,7.722
7,148,7.723
27,112,7.724
38,58,7.725
43,18,7.726
47,16,7.727
41,11,7.728
20,-3,7.729
0,-16,7.73
5,-23,7.731
21,-31,7.732
19,-42,7.733
-9,-52,7.734
-30,-52,7.735
-35,-48,7.736
-36,-62,7.737
-45,-85,7.738
-42,-103,7.739
-21,-107,7.74
-4,-80,7.741
-6,-22,7.742
-18,29,7.743
-25,30,7.744
-25,-5,7.745
-18,-20,7.746
2,-1,7.747
30,10,7.748
53,-4,7.749
61,-10,7.75
57,6,7.751
42,24,7.752
20,24,7.753
-9,17,7.754
-33,14,7.755
-53,1,7.756
-67,-21,7.757
-66,-24,7.758
-29,2,7.759
33,31,7.76
81,42,7.761
87,44,7.762
72,46,7.763
64,40,7.764
61,25,7.765
43,14,7.766
9,18,7.767
-10,33,7.768
-7,47,7.769
4,59,7.77
2,68,7.771
-9,68,7.772
-21,57,7.773
-36,30,7.774
-54,-2,7.775
-67,-34,7.776
-63,-64,7.777
-44,-67,7.778
-18,-37,7.779
7,1,7.78
27,9,7.781
39,-14,7.782
39,-22,7.783
29,15,7.784
6,64,7.785
-14,71,7.786
-19,45,7.787
-10,27,7.788
-9,24,7.789
-17,6,7.79
-20,-18,7.791
-14,-21,7.792
-6,2,7.793
-9,14,7.794
-16,6,7.795
-18,-6,7.796
-12,-19,7.797
-6,-49,7.798
0,-98,7.799
4,-128,7.8
3,-111,7.801
0,-65,7.802
2,-35,7.803
6,-32,7.804
6,-34,7.805
2,-28,7.806
1,-28,7.807
6,-45,7.808
8,-66,7.809
3,-64,7.81
-14,-27,7.811
-42,23,7.812
-74,58,7.813
-91,57,7.814
-74,35,7.815
-41,15,7.816
-26,-2,7.817
-21,-28,7.818
20,-61,7.819
102,-73,7.82
158,-49,7.821
136,-30,7.822
75,-88,7.823
56,-215,7.824
80,-282,7.825
82,-155,7.826
36,115,7.827
-9,315,7.828
-12,305,7.829
9,175,7.83
27,90,7.831
44,77,7.832
64,59,7.833
70,0,7.834
55,-43,7.835
32,-38,7.836
15,-18,7.837
-5,-1,7.838
-32,10,7.839
-52,4,7.84
-55,-24,7.841
-50,-45,7.842
-46,-28,7.843
-42,0,7.844
-39,0,7.845
-35,-17,7.846
-32,-22,7.847
-23,-16,7.848
-15,-25,7.849
-13,-48,7.85
-15,-63,7.851
-15,-54,7.852
-13,-22,7.853
-15,20,7.854
-19,49,7.855
-24,46,7.856
-26,26,7.857
-24,23,7.858
-14,30,7.859
5,25,7.86
20,13,7.861
23,16,7.862
19,34,7.863
16,35,7.864
17,12,7.865
19,-23,7.866
20,-55,7.867
17,-73,7.868
5,-51,7.869
-8,8,7.87
-7,69,7.871
4,90,7.872
17,74,7.873
20,35,7.874
15,-21,7.875
5,-87,7.876
-6,-183,7.877
-11,-233,7.878
-7,-147,7.879
-8,-45,7.88
-27,104,7.881
-57,221,7.882
-73,243,7.883
-60,256,7.884
-26,236,7.885
19,202,7.886
67,129,7.887
113,64,7.888
140,24,7.889
138,-17,7.89
111,-59,7.891
73,-101,7.892
44,-137,7.893
24,-160,7.894
7,-102,7.895
-16,25,7.896
-34,122,7.897
-34,110,7.898
-21,27,7.899
-18,-41,7.9
-32,-89,7.901
-49,-136,7.902
-56,-143,7.903
-51,-62,7.904
-36,46,7.905
-17,83,7.906
-2,49,7.907
-3,22,7.908
-9,22,7.909
-2,7,7.91
16,-24,7.911
29,-32,7.912
29,-14,7.913
25,-10,7.914
22,-24,7.915
10,-35,7.916
-9,-29,7.917
-25,-29,7.918
-27,-47,7.919
-21,-58,7.92
-17,-40,7.921
-14,-25,7.922
-5,-16,7.923
8,-9,7.924
11,-11,7.925
1,-13,7.926
-2,-8,7.927
8,-2,7.928
20,6,7.929
15,12,7.93
-1,10,7.931
-4,9,7.932
14,11,7.933
35,13,7.934
45,6,7.935
49,-3,7.936
27,-14,7.937
7,-16,7.938
-6,-6,7.939
-15,8,7.94
-4,10,7.941
3,3,7.942
-3,-1,7.943
-12,0,7.944
-24,0,7.945
-39,-11,7.946
-64,-36,7.947
-81,-65,7.948
-71,-83,7.949
-56,-71,7.95
-24,-38,7.951
12,0,7.952
61,47,7.953
106,98,7.954
116,128,7.955
96,140,7.956
66,94,7.957
42,61,7.958
26,66,7.959
14,70,7.96
3,68,7.961
-2,61,7.962
-4,39,7.963
-2,10,7.964
0,-43,7.965
1,-93,7.966
-1,-130,7.967
-6,-173,7.968
-11,-235,7.969
-16,-246,7.97
-20,-100,7.971
-22,42,7.972
-23,170,7.973
-21,273,7.974
-23,257,7.975
-26,181,7.976
-26,89,7.977
-20,34,7.978
-10,24,7.979
-5,21,7.98
-4,3,7.981
-4,-16,7.982
-2,-16,7.983
4,-12,7.984
11,-28,7.985
15,-63,7.986
12,-97,7.987
6,-112,7.988
4,-107,7.989
6,-91,7.99
13,-76,7.991
13,-58,7.992
12,-22,7.993
6,16,7.994
1,37,7.995
-3,54,7.996
-4,54,7.997
-4,41,7.998
2,-12,7.999
10,-56,8.0
9,-70,8.001
1,-67,8.002
-3,-9,8.003
-3,31,8.004
0,17,8.005
0,9,8.006
4,17,8.007
6,23,8.008
2,19,8.009
-9,17,8.01
-22,28,8.011
-31,29,8.012
-34,-3,8.013
-36,-28,8.014
-34,-22,8.015
-26,-11,8.016
-14,-17,8.017
7,-25,8.018
27,-28,8.019
38,-26,8.02
39,-19,8.021
49,-7,8.022
72,-6,8.023
88,-26,8.024
83,-51,8.025
64,-59,8.026
47,-41,8.027
35,-9,8.028
23,32,8.029
14,66,8.03
12,74,8.031
14,52,8.032
15,32,8.033
14,30,8.034
7,37,8.035
-9,29,8.036
-27,5,8.037
-34,-1,8.038
-26,15,8.039
-20,28,8.04
-20,18,8.041
-21,-7,8.042
-20,-21,8.043
-28,-8,8.044
-41,27,8.045
-42,59,8.046
-27,62,8.047
-11,41,8.048
-8,23,8.049
-12,17,8.05
-8,22,8.051
1,38,8.052
10,67,8.053
9,82,8.054
4,38,8.055
-5,-65,8.056
-10,-144,8.057
-9,-121,8.058
-1,-38,8.059
6,-13,8.06
4,-83,8.061
-2,-152,8.062
-2,-126,8.063
4,-40,8.064
11,12,8.065
10,11,8.066
4,9,8.067
6,31,8.068
9,45,8.069
9,36,8.07
7,26,8.071
8,39,8.072
10,68,8.073
9,90,8.074
5,80,8.075
1,14,8.076
0,-91,8.077
1,-162,8.078
6,-143,8.079
14,-56,8.08
17,31,8.081
12,90,8.082
8,125,8.083
13,109,8.084
17,10,8.085
14,-118,8.086
8,-154,8.087
6,-68,8.088
6,40,8.089
1,70,8.09
-2,46,8.091
-2,39,8.092
0,59,8.093
-3,74,8.094
-6,81,8.095
-9,86,8.096
-12,64,8.097
-16,7,8.098
-15,-52,8.099
-6,-76,8.1
0,-70,8.101
-2,-59,8.102
-7,-39,8.103
-10,-10,8.104
-9,2,8.105
-6,-11,8.106
8,-15,8.107
25,17,8.108
32,73,8.109
26,105,8.11
19,76,8.111
22,-7,8.112
29,-86,8.113
20,-103,8.114
5,-47,8.115
-7,10,8.116
-14,0,8.117
-19,-47,8.118
-17,-67,8.119
-14,-29,8.12
-11,55,8.121
-6,151,8.122
1,199,8.123
4,132,8.124
-9,-47,8.125
-22,-238,8.126
-30,-326,8.127
-34,-276,8.128
-20,-142,8.129
-11,-6,8.13
-16,68,8.131
-16,74,8.132
-1,63,8.133
18,63,8.134
40,74,8.135
54,97,8.136
62,152,8.137
72,227,8.138
86,212,8.139
102,44,8.14
110,-173,8.141
99,-260,8.142
72,-174,8.143
33,-43,8.144
-4,-3,8.145
-24,-36,8.146
-24,-2,8.147
-25,145,8.148
-38,230,8.149
-54,53,8.15
-52,-291,8.151
-38,-453,8.152
-29,-290,8.153
-36,-6,8.154
-42,103,8.155
-41,63,8.156
-32,74,8.157
-21,161,8.158
-12,186,8.159
-6,144,8.16
-9,149,8.161
-16,202,8.162
-16,208,8.163
-8,146,8.164
-3,64,8.165
-5,-24,8.166
-8,-105,8.167
-6,-102,8.168
-3,-15,8.169
-2,38,8.17
3,-13,8.171
11,-85,8.172
13,-101,8.173
6,-121,8.174
-1,-177,8.175
-6,-188,8.176
-9,-102,8.177
-9,1,8.178
-3,26,8.179
6,6,8.18
10,8,8.181
13,19,8.182
18,3,8.183
24,-14,8.184
23,-15,8.185
16,-7,8.186
14,20,8.187
16,72,8.188
12,90,8.189
1,2,8.19
-5,-127,8.191
-9,-155,8.192
-13,-65,8.193
-14,25,8.194
-4,42,8.195
13,50,8.196
21,132,8.197
18,254,8.198
16,326,8.199
24,350,8.2
33,348,8.201
32,218,8.202
21,-156,8.203
9,-630,8.204
1,-820,8.205
-4,-553,8.206
-9,-120,8.207
-12,87,8.208
-11,54,8.209
-7,29,8.21
1,97,8.211
12,131,8.212
17,116,8.213
14,190,8.214
8,399,8.215
4,546,8.216
6,403,8.217
12,-15,8.218
17,-445,8.219
19,-561,8.22
10,-284,8.221
-6,97,8.222
-20,202,8.223
-29,-6,8.224
-38,-225,8.225
-46,-231,8.226
-47,-111,8.227
-34,-18,8.228
-14,54,8.229
10,151,8.23
34,210,8.231
49,154,8.232
51,37,8.233
46,-63,8.234
44,-95,8.235
41,-72,8.236
33,-29,8.237
25,0,8.238
22,-12,8.239
17,-38,8.24
11,-37,8.241
5,-10,8.242
-4,26,8.243
-12,89,8.244
-12,146,8.245
-11,92,8.246
-15,-99,8.247
-18,-260,8.248
-20,-216,8.249
-23,-33,8.25
-25,88,8.251
-26,89,8.252
-24,83,8.253
-19,106,8.254
-13,106,8.255
-11,100,8.256
-11,74,8.257
-10,54,8.258
-4,52,8.259
-3,68,8.26
-7,138,8.261
-12,180,8.262
-8,136,8.263
-4,60,8.264
-5,-113,8.265
-7,-198,8.266
0,-14,8.267
14,82,8.268
22,-87,8.269
22,-239,8.27
21,-334,8.271
23,-333,8.272
26,-42,8.273
25,185,8.274
19,99,8.275
7,-77,8.276
-1,-176,8.277
2,-169,8.278
11,-59,8.279
18,137,8.28
16,276,8.281
9,181,8.282
7,-86,8.283
10,-250,8.284
14,-174,8.285
18,-34,8.286
18,-11,8.287
14,-24,8.288
7,75,8.289
-2,204,8.29
-8,183,8.291
-14,69,8.292
-16,80,8.293
-21,237,8.294
-26,296,8.295
-30,93,8.296
-27,-197,8.297
-15,-290,8.298
1,-162,8.299
16,-24,8.3
22,-15,8.301
22,-51,8.302
20,1,8.303
14,122,8.304
7,163,8.305
0,45,8.306
0,-135,8.307
7,-213,8.308
14,-144,8.309
11,-26,8.31
4,40,8.311
1,52,8.312
3,58,8.313
-1,58,8.314
-10,40,8.315
-17,37,8.316
-19,89,8.317
-19,162,8.318
-11,150,8.319
-3,29,8.32
6,-98,8.321
14,-133,8.322
12,-100,8.323
11,-82,8.324
9,-93,8.325
9,-86,8.326
14,-47,8.327
19,-14,8.328
23,-4,8.329
25,11,8.33
23,41,8.331
22,62,8.332
24,70,8.333
23,132,8.334
13,322,8.335
-8,569,8.336
-27,609,8.337
-36,246,8.338
-27,-370,8.339
-7,-809,8.34
2,-800,8.341
-5,-498,8.342
-13,-222,8.343
-5,-83,8.344
5,6,8.345
-2,85,8.346
-22,108,8.347
-34,85,8.348
-31,83,8.349
-21,106,8.35
-4,102,8.351
14,71,8.352
26,51,8.353
27,43,8.354
20,48,8.355
14,147,8.356
13,398,8.357
14,634,8.358
17,492,8.359
20,-139,8.36
21,-823,8.361
18,-967,8.362
13,-523,8.363
9,-30,8.364
2,94,8.365
-6,7,8.366
-18,26,8.367
-29,124,8.368
-37,116,8.369
-30,54,8.37
-7,103,8.371
18,204,8.372
31,197,8.373
29,92,8.374
29,46,8.375
34,70,8.376
33,45,8.377
20,-24,8.378
0,-37,8.379
-8,8,8.38
-4,22,8.381
4,-3,8.382
1,-1,8.383
-14,31,8.384
-22,29,8.385
-14,-4,8.386
1,-14,8.387
4,2,8.388
-1,3,8.389
-4,-20,8.39
-1,-37,8.391
0,-38,8.392
-1,-35,8.393
-4,-23,8.394
-5,9,8.395
-7,38,8.396
-10,34,8.397
-10,42,8.398
0,105,8.399
6,170,8.4
0,114,8.401
-4,-82,8.402
-4,-246,8.403
-4,-195,8.404
-8,12,8.405
-9,121,8.406
-3,12,8.407
4,-135,8.408
12,-112,8.409
18,16,8.41
18,28,8.411
16,-78,8.412
11,-95,8.413
4,51,8.414
1,147,8.415
-1,-11,8.416
-6,-288,8.417
-16,-366,8.418
-18,-183,8.419
-9,27,8.42
4,87,8.421
11,71,8.422
12,113,8.423
12,206,8.424
12,242,8.425
9,183,8.426
7,73,8.427
12,-29,8.428
14,-87,8.429
5,-98,8.43
-4,-98,8.431
-3,-104,8.432
3,-78,8.433
7,12,8.434
4,114,8.435
3,142,8.436
5,101,8.437
10,74,8.438
17,75,8.439
23,50,8.44
20,-8,8.441
12,-51,8.442
8,-56,8.443
18,-52,8.444
32,-60,8.445
31,-77,8.446
17,-105,8.447
4,-135,8.448
3,-119,8.449
5,-7,8.45
1,150,8.451
-9,226,8.452
-18,147,8.453
-23,-51,8.454
-23,-198,8.455
-24,-161,8.456
-26,10,8.457
-22,137,8.458
-9,121,8.459
9,39,8.46
20,8,8.461
20,27,8.462
14,38,8.463
6,39,8.464
-2,59,8.465
-9,63,8.466
-15,6,8.467
-18,-73,8.468
-17,-96,8.469
-13,-56,8.47
-9,-11,8.471
-4,11,8.472
5,20,8.473
15,2,8.474
17,-50,8.475
15,-100,8.476
-2,-98,8.477
-13,-45,8.478
0,-3,8.479
9,9,8.48
1,24,8.481
-5,47,8.482
0,51,8.483
8,27,8.484
27,9,8.485
38,17,8.486
22,27,8.487
6,16,8.488
-4,6,8.489
-13,20,8.49
-15,32,8.491
-14,3,8.492
-3,-58,8.493
4,-114,8.494
-4,-118,8.495
-22,-59,8.496
-28,30,8.497
-14,110,8.498
10,134,8.499
28,108,8.5
25,69,8.501
9,46,8.502
4,31,8.503
21,9,8.504
45,-7,8.505
57,-14,8.506
52,-33,8.507
39,-71,8.508
20,-103,8.509
-5,-108,8.51
-23,-94,8.511
-27,-78,8.512
-23,-50,8.513
-17,0,8.514
-14,50,8.515
-11,64,8.516
-13,24,8.517
-13,-30,8.518
-2,-53,8.519
6,-4,8.52
3,102,8.521
1,177,8.522
5,145,8.523
8,32,8.524
9,-51,8.525
9,-48,8.526
0,-16,8.527
-8,-40,8.528
-15,-130,8.529
-21,-228,8.53
-21,-270,8.531
-18,-212,8.532
-1,-64,8.533
13,116,8.534
16,235,8.535
9,255,8.536
4,221,8.537
1,174,8.538
6,105,8.539
18,4,8.54
29,-75,8.541
25,-59,8.542
8,55,8.543
-3,176,8.544
-1,184,8.545
2,43,8.546
-1,-159,8.547
-4,-300,8.548
2,-311,8.549
8,-203,8.55
2,-36,8.551
-11,98,8.552
-17,116,8.553
-15,-8,8.554
-18,-183,8.555
-22,-248,8.556
-17,-96,8.557
-4,208,8.558
10,424,8.559
21,378,8.56
27,165,8.561
26,28,8.562
24,38,8.563
19,41,8.564
12,-52,8.565
2,-131,8.566
0,-103,8.567
4,-49,8.568
12,-68,8.569
13,-117,8.57
15,-134,8.571
22,-160,8.572
29,-238,8.573
21,-324,8.574
0,-319,8.575
-28,-209,8.576
-53,-73,8.577
-73,38,8.578
-77,130,8.579
-55,214,8.58
-13,271,8.581
22,260,8.582
33,187,8.583
34,131,8.584
49,159,8.585
82,236,8.586
109,260,8.587
99,202,8.588
55,131,8.589
7,99,8.59
-9,70,8.591
-1,16,8.592
3,-33,8.593
-12,-45,8.594
-33,-30,8.595
-46,-31,8.596
-40,-65,8.597
-19,-104,8.598
8,-124,8.599
22,-113,8.6
15,-80,8.601
-6,-54,8.602
-15,-63,8.603
-15,-93,8.604
-17,-113,8.605
-21,-113,8.606
-14,-107,8.607
5,-104,8.608
16,-97,8.609
13,-80,8.61
10,-56,8.611
15,-26,8.612
19,1,8.613
4,4,8.614
-16,-36,8.615
-29,-92,8.616
-37,-104,8.617
-50,-45,8.618
-59,24,8.619
-52,22,8.62
-31,-33,8.621
-10,-16,8.622
11,133,8.623
32,290,8.624
46,287,8.625
47,131,8.626
46,-13,8.627
55,-54,8.628
68,-57,8.629
58,-97,8.63
25,-126,8.631
-6,-64,8.632
-21,54,8.633
-30,145,8.634
-43,161,8.635
-54,135,8.636
-48,102,8.637
-29,65,8.638
-11,19,8.639
6,-8,8.64
24,-11,8.641
42,-17,8.642
56,-47,8.643
60,-82,8.644
53,-116,8.645
28,-150,8.646
-7,-161,8.647
-34,-116,8.648
-42,-31,8.649
-43,26,8.65
-50,16,8.651
-56,-30,8.652
-45,-54,8.653
-21,-28,8.654
10,56,8.655
38,169,8.656
63,240,8.657
75,230,8.658
65,161,8.659
36,96,8.66
8,58,8.661
-3,32,8.662
-5,4,8.663
-7,-19,8.664
-8,-60,8.665
-4,-155,8.666
-4,-297,8.667
-9,-400,8.668
-7,-372,8.669
6,-192,8.67
15,65,8.671
0,266,8.672
-19,316,8.673
-10,234,8.674
28,136,8.675
56,97,8.676
43,78,8.677
15,16,8.678
6,-78,8.679
15,-138,8.68
7,-153,8.681
-19,-161,8.682
-32,-185,8.683
-18,-198,8.684
-4,-159,8.685
-13,-30,8.686
-31,191,8.687
-34,416,8.688
-19,496,8.689
1,385,8.69
16,202,8.691
21,87,8.692
12,49,8.693
-16,13,8.694
-47,-38,8.695
-68,-73,8.696
-81,-95,8.697
-90,-122,8.698
-76,-139,8.699
-31,-122,8.7
23,-94,8.701
54,-86,8.702
62,-87,8.703
71,-74,8.704
88,-61,8.705
103,-68,8.706
97,-76,8.707
70,-70,8.708
37,-62,8.709
23,-78,8.71
28,-111,8.711
31,-143,8.712
14,-139,8.713
-31,-61,8.714
-74,74,8.715
-96,165,8.716
-87,125,8.717
-53,25,8.718
-10,-4,8.719
29,39,8.72
53,47,8.721
61,-10,8.722
53,-36,8.723
24,9,8.724
-16,51,8.725
-38,34,8.726
-26,6,8.727
-4,16,8.728
8,33,8.729
13,17,8.73
23,-7,8.731
23,-18,8.732
2,-32,8.733
-25,-53,8.734
-28,-34,8.735
-10,40,8.736
3,103,8.737
10,102,8.738
25,60,8.739
38,32,8.74
14,28,8.741
-38,14,8.742
-65,-9,8.743
-45,-22,8.744
-15,-16,8.745
-11,-9,8.746
-8,-10,8.747
18,-14,8.748
45,-18,8.749
37,-16,8.75
1,-5,8.751
-18,4,8.752
-7,4,8.753
5,-7,8.754
-6,-12,8.755
-32,-3,8.756
-46,5,8.757
-41,6,8.758
-26,1,8.759
-3,-2,8.76
28,-4,8.761
53,-6,8.762
60,-6,8.763
55,-2,8.764
50,0,8.765
50,-3,8.766
44,-8,8.767
29,-29,8.768
12,-114,8.769
2,-298,8.77
-2,-527,8.771
-8,-622,8.772
-17,-447,8.773
-26,-22,8.774
-31,396,8.775
-34,589,8.776
-35,572,8.777
-38,494,8.778
-49,414,8.779
-70,310,8.78
-92,211,8.781
-87,170,8.782
-39,161,8.783
26,110,8.784
79,9,8.785
114,-72,8.786
153,-97,8.787
181,-95,8.788
144,-111,8.789
34,-141,8.79
-67,-149,8.791
-78,-111,8.792
-23,-51,8.793
20,-39,8.794
17,-106,8.795
15,-181,8.796
46,-163,8.797
66,-55,8.798
29,27,8.799
-26,26,8.8
-44,-7,8.801
-29,-23,8.802
-32,-33,8.803
-58,-53,8.804
-63,-52,8.805
-39,-17,8.806
-16,15,8.807
-13,21,8.808
-11,11,8.809
0,-2,8.81
2,-23,8.811
-15,-41,8.812
-36,-34,8.813
-43,-14,8.814
-37,-8,8.815
-27,-15,8.816
-5,-20,8.817
17,-17,8.818
42,-23,8.819
58,-29,8.82
44,-17,8.821
32,-4,8.822
23,-12,8.823
16,-31,8.824
17,-35,8.825
22,-28,8.826
34,-26,8.827
42,-25,8.828
32,-7,8.829
17,18,8.83
-15,28,8.831
-37,25,8.832
-28,30,8.833
-19,41,8.834
-15,44,8.835
-23,40,8.836
-21,45,8.837
-4,58,8.838
7,57,8.839
-2,42,8.84
-17,29,8.841
-15,29,8.842
-3,32,8.843
3,32,8.844
2,32,8.845
5,28,8.846
11,11,8.847
13,-7,8.848
2,-20,8.849
-10,-31,8.85
-11,-47,8.851
4,-60,8.852
24,-61,8.853
29,-59,8.854
12,-60,8.855
0,-56,8.856
2,-37,8.857
4,-8,8.858
-10,4,8.859
-30,-11,8.86
-34,-38,8.861
-12,-60,8.862
10,-66,8.863
15,-41,8.864
13,10,8.865
40,56,8.866
94,69,8.867
130,55,8.868
109,41,8.869
57,38,8.87
31,40,8.871
37,39,8.872
34,39,8.873
-2,37,8.874
-36,33,8.875
-41,17,8.876
-31,-20,8.877
-30,-71,8.878
-27,-111,8.879
-8,-97,8.88
9,-22,8.881
2,60,8.882
-9,94,8.883
-5,80,8.884
2,62,8.885
0,58,8.886
-5,53,8.887
-2,35,8.888
-3,16,8.889
-21,3,8.89
-41,-7,8.891
-46,-14,8.892
-39,-7,8.893
-37,1,8.894
-33,2,8.895
-27,-4,8.896
-19,-5,8.897
-10,5,8.898
1,12,8.899
9,10,8.9
6,11,8.901
3,17,8.902
-2,22,8.903
-6,25,8.904
-6,33,8.905
-7,40,8.906
-13,37,8.907
-16,31,8.908
-10,32,8.909
-6,37,8.91
-8,39,8.911
-9,37,8.912
-6,37,8.913
-1,33,8.914
-2,20,8.915
-6,9,8.916
-4,5,8.917
2,8,8.918
6,3,8.919
4,-8,8.92
10,-17,8.921
28,-16,8.922
46,-12,8.923
45,-8,8.924
32,-7,8.925
25,-11,8.926
24,-17,8.927
10,-26,8.928
-18,-36,8.929
-39,-46,8.93
-43,-53,8.931
-38,-53,8.932
-38,-51,8.933
-41,-52,8.934
-36,-51,8.935
-30,-40,8.936
-30,-21,8.937
-25,-7,8.938
-5,-4,8.939
39,-8,8.94
112,-9,8.941
198,-5,8.942
244,1,8.943
201,-1,8.944
93,-7,8.945
3,-18,8.946
-15,-27,8.947
5,-34,8.948
8,-35,8.949
-20,-33,8.95
-45,-35,8.951
-46,-44,8.952
-34,-52,8.953
-31,-54,8.954
-36,-48,8.955
-41,-44,8.956
-42,-46,8.957
-42,-43,8.958
-41,-32,8.959
-38,-14,8.96
-35,7,8.961
-33,28,8.962
-24,29,8.963
-10,11,8.964
-3,-6,8.965
-15,-8,8.966
-32,1,8.967
-38,7,8.968
-27,8,8.969
-16,8,8.97
-14,5,8.971
-9,-3,8.972
-1,-9,8.973
1,-11,8.974
-2,-14,8.975
-4,-25,8.976
-2,-36,8.977
2,-33,8.978
11,-21,8.979
17,-10,8.98
14,-3,8.981
11,11,8.982
12,23,8.983
14,22,8.984
17,17,8.985
18,23,8.986
12,37,8.987
6,46,8.988
-3,47,8.989
-11,52,8.99
-11,53,8.991
-8,45,8.992
8,33,8.993
24,22,8.994
36,12,8.995
41,4,8.996
32,-7,8.997
11,-10,8.998
-2,-10,8.999
7,-11,9.0
25,-8,9.001
31,2,9.002
20,11,9.003
4,12,9.004
-9,11,9.005
-17,14,9.006
-16,19,9.007
-15,19,9.008
-18,14,9.009
-18,11,9.01
-7,12,9.011
-3,11,9.012
-11,12,9.013
-2,12,9.014
51,19,9.015
88,20,9.016
78,5,9.017
65,-9,9.018
46,-11,9.019
37,0,9.02
57,13,9.021
69,15,9.022
52,12,9.023
41,16,9.024
52,30,9.025
49,38,9.026
0,36,9.027
-35,29,9.028
-27,25,9.029
-25,15,9.03
-46,-10,9.031
-59,-42,9.032
-48,-65,9.033
-38,-71,9.034
-48,-64,9.035
-61,-57,9.036
-55,-54,9.037
-39,-47,9.038
-31,-27,9.039
-26,-7,9.04
-20,10,9.041
-13,25,9.042
-14,27,9.043
-13,29,9.044
-5,32,9.045
0,32,9.046
0,20,9.047
4,8,9.048
11,0,9.049
11,-13,9.05
3,-38,9.051
0,-64,9.052
1,-92,9.053
-1,-117,9.054
-5,-118,9.055
-7,-78,9.056
-2,-4,9.057
2,74,9.058
6,122,9.059
9,136,9.06
13,126,9.061
16,104,9.062
15,82,9.063
14,69,9.064
16,71,9.065
16,67,9.066
5,33,9.067
-6,-37,9.068
-20,-98,9.069
-39,-91,9.07
-71,-11,9.071
-97,68,9.072
-102,80,9.073
-101,24,9.074
-65,-25,9.075
-13,-32,9.076
54,-29,9.077
137,-39,9.078
222,-40,9.079
268,-5,9.08
226,43,9.081
122,61,9.082
35,44,9.083
5,21,9.084
1,6,9.085
-18,-9,9.086
-40,-28,9.087
-47,-38,9.088
-50,-42,9.089
-56,-52,9.09
-46,-68,9.091
-18,-75,9.092
-1,-60,9.093
-16,-34,9.094
-31,-11,9.095
-25,4,9.096
-20,19,9.097
-42,36,9.098
-70,35,9.099
-66,5,9.1
-26,-33,9.101
22,-60,9.102
50,-68,9.103
51,-70,9.104
42,-64,9.105
40,-40,9.106
44,-6,9.107
27,14,9.108
-12,14,9.109
-42,6,9.11
-36,5,9.111
-13,7,9.112
0,5,9.113
-3,-1,9.114
-9,0,9.115
-19,3,9.116
-25,6,9.117
-21,11,9.118
-3,22,9.119
13,30,9.12
12,30,9.121
5,23,9.122
6,7,9.123
10,-22,9.124
4,-64,9.125
0,-94,9.126
0,-83,9.127
1,-25,9.128
-3,41,9.129
-9,78,9.13
-10,81,9.131
-7,74,9.132
-5,77,9.133
-6,76,9.134
-4,66,9.135
-4,57,9.136
-6,54,9.137
-3,50,9.138
9,29,9.139
25,3,9.14
30,-1,9.141
23,6,9.142
17,-5,9.143
20,-47,9.144
23,-91,9.145
19,-96,9.146
9,-55,9.147
2,-10,9.148
2,4,9.149
-3,-19,9.15
-12,-49,9.151
-16,-56,9.152
-10,-38,9.153
-7,-27,9.154
-12,-43,9.155
-20,-68,9.156
-14,-49,9.157
11,46,9.158
36,165,9.159
43,224,9.16
42,196,9.161
53,129,9.162
77,76,9.163
84,42,9.164
56,16,9.165
11,4,9.166
-25,4,9.167
-51,-7,9.168
-66,-52,9.169
-64,-101,9.17
-45,-109,9.171
-35,-77,9.172
-43,-46,9.173
-48,-42,9.174
-19,-49,9.175
24,-44,9.176
46,-35,9.177
44,-32,9.178
53,-35,9.179
74,-30,9.18
71,-11,9.181
29,7,9.182
-13,13,9.183
-20,8,9.184
-7,-1,9.185
-7,-5,9.186
-17,-8,9.187
-19,-17,9.188
-11,-36,9.189
-9,-51,9.19
-18,-56,9.191
-22,-51,9.192
-19,-41,9.193
-17,-27,9.194
-16,-6,9.195
-16,16,9.196
-14,29,9.197
-11,36,9.198
-7,41,9.199
0,41,9.2
2,29,9.201
-2,11,9.202
-6,18,9.203
-3,58,9.204
2,95,9.205
2,73,9.206
1,0,9.207
3,-43,9.208
6,-4,9.209
2,51,9.21
0,30,9.211
2,-44,9.212
4,-66,9.213
63,-7,9.214
55,51,9.215
47,40,9.216
38,-7,9.217
31,-27,9.218
39,-33,9.219
43,-46,9.22
28,-42,9.221
15,9,9.222
12,64,9.223
8,64,9.224
-2,3,9.225
-10,-58,9.226
-10,-66,9.227
-12,-14,9.228
-22,26,9.229
-30,-15,9.23
-29,-94,9.231
-27,-91,9.232
-29,18,9.233
50,89,9.234
44,7,9.235
38,-27,9.236
31,70,9.237
26,156,9.238
32,175,9.239
35,152,9.24
24,4,9.241
14,-101,9.242
12,-89,9.243
8,-78,9.244
1,-54,9.245
-5,-38,9.246
-5,-38,9.247
-7,-35,9.248
-14,-50,9.249
-20,-50,9.25
-19,1,9.251
-18,35,9.252
-19,27,9.253
-21,26,9.254
-21,5,9.255
-22,-4,9.256
-21,21,9.257
-15,43,9.258
-1,48,9.259
11,42,9.26
15,4,9.261
13,-23,9.262
10,-20,9.263
6,-17,9.264
1,-11,9.265
-2,-7,9.266
-5,-7,9.267
-7,-6,9.268
-9,-10,9.269
-7,-10,9.27
0,3,9.271
6,12,9.272
8,10,9.273
4,5,9.274
1,-6,9.275
1,-12,9.276
1,-12,9.277
2,1,9.278
6,21,9.279
11,60,9.28
11,136,9.281
7,218,9.282
4,207,9.283
2,50,9.284
-2,-159,9.285
-6,-260,9.286
-5,-211,9.287
0,-118,9.288
3,-75,9.289
2,-57,9.29
3,-22,9.291
10,3,9.292
15,0,9.293
11,3,9.294
4,66,9.295
0,167,9.296
1,228,9.297
5,191,9.298
10,46,9.299
12,-134,9.3
8,-230,9.301
0,-187,9.302
-8,-71,9.303
-8,33,9.304
-3,93,9.305
1,86,9.306
0,-27,9.307
0,-190,9.308
1,-240,9.309
4,-122,9.31
5,20,9.311
7,59,9.312
11,58,9.313
9,149,9.314
3,320,9.315
-2,425,9.316
-3,365,9.317
-3,186,9.318
2,-50,9.319
7,-301,9.32
6,-486,9.321
5,-474,9.322
4,-260,9.323
4,-60,9.324
10,-73,9.325
15,-207,9.326
17,-214,9.327
18,-53,9.328
14,91,9.329
9,136,9.33
7,182,9.331
5,253,9.332
4,239,9.333
3,106,9.334
0,-18,9.335
-6,-109,9.336
-13,-98,9.337
-16,-75,9.338
-9,-17,9.339
-2,41,9.34
-2,102,9.341
-7,145,9.342
-6,127,9.343
3,97,9.344
10,31,9.345
10,-8,9.346
6,34,9.347
5,54,9.348
3,2,9.349
-1,-6,9.35
-5,116,9.351
-5,207,9.352
-4,198,9.353
-5,114,9.354
-6,-219,9.355
-8,-418,9.356
-10,-327,9.357
-5,-77,9.358
7,68,9.359
20,47,9.36
24,20,9.361
19,93,9.362
16,189,9.363
15,223,9.364
15,251,9.365
11,341,9.366
7,415,9.367
3,315,9.368
-2,-27,9.369
-4,-492,9.37
-4,-819,9.371
0,-802,9.372
2,-525,9.373
1,-218,9.374
-2,-59,9.375
-6,15,9.376
-12,129,9.377
-12,231,9.378
-3,202,9.379
4,82,9.38
4,33,9.381
-3,94,9.382
-5,147,9.383
-4,104,9.384
-5,12,9.385
-7,-39,9.386
-7,-11,9.387
-2,88,9.388
4,228,9.389
9,320,9.39
13,244,9.391
15,-4,9.392
13,-242,9.393
5,-310,9.394
2,-202,9.395
-1,-90,9.396
0,-96,9.397
2,-155,9.398
6,-141,9.399
8,-25,9.4
5,121,9.401
2,200,9.402
2,159,9.403
2,34,9.404
6,-74,9.405
10,-109,9.406
15,-102,9.407
17,-96,9.408
11,-75,9.409
7,-22,9.41
7,24,9.411
7,29,9.412
9,24,9.413
12,46,9.414
12,75,9.415
4,69,9.416
-8,54,9.417
-14,108,9.418
-4,258,9.419
9,408,9.42
10,373,9.421
0,73,9.422
-7,-313,9.423
-9,-483,9.424
-11,-356,9.425
-13,-152,9.426
-8,-77,9.427
3,-76,9.428
9,-26,9.429
6,31,9.43
5,23,9.431
10,41,9.432
14,184,9.433
9,374,9.434
0,391,9.435
-7,163,9.436
-17,-157,9.437
-23,-380,9.438
-19,-430,9.439
-3,-320,9.44
11,-136,9.441
14,3,9.442
8,42,9.443
5,39,9.444
3,81,9.445
0,181,9.446
-4,297,9.447
-1,385,9.448
-1,354,9.449
-6,97,9.45
-9,-316,9.451
-5,-576,9.452
2,-474,9.453
5,-133,9.454
9,95,9.455
15,96,9.456
24,103,9.457
28,302,9.458
30,500,9.459
29,384,9.46
25,-43,9.461
20,-435,9.462
19,-495,9.463
22,-299,9.464
19,-142,9.465
3,-145,9.466
-13,-159,9.467
-18,-60,9.468
-16,72,9.469
-14,140,9.47
-14,187,9.471
-12,257,9.472
-8,260,9.473
-7,118,9.474
-4,-48,9.475
-1,-83,9.476
-1,-18,9.477
1,27,9.478
7,53,9.479
12,138,9.48
12,230,9.481
11,174,9.482
3,-55,9.483
-3,-286,9.484
-3,-348,9.485
-3,-244,9.486
-8,-101,9.487
-13,-10,9.488
-11,34,9.489
-10,63,9.49
-12,86,9.491
-12,87,9.492
-1,71,9.493
8,50,9.494
11,43,9.495
3,59,9.496
-8,96,9.497
-15,116,9.498
-7,66,9.499
10,-41,9.5
19,-117,9.501
17,-101,9.502
15,-29,9.503
17,46,9.504
16,126,9.505
8,198,9.506
1,155,9.507
0,-63,9.508
0,-309,9.509
-9,-359,9.51
-17,-207,9.511
-18,-66,9.512
-14,-54,9.513
-9,-83,9.514
0,-47,9.515
4,8,9.516
0,9,9.517
-5,7,9.518
3,67,9.519
19,142,9.52
25,153,9.521
20,109,9.522
16,63,9.523
17,19,9.524
8,-4,9.525
-6,75,9.526
-11,263,9.527
2,377,9.528
18,213,9.529
22,-165,9.53
13,-434,9.531
2,-382,9.532
3,-162,9.533
16,-26,9.534
26,-54,9.535
23,-95,9.536
4,-36,9.537
-12,60,9.538
-14,114,9.539
-7,162,9.54
-6,239,9.541
-10,261,9.542
-11,108,9.543
-8,-173,9.544
-9,-376,9.545
-11,-342,9.546
-8,-130,9.547
-2,40,9.548
1,53,9.549
3,0,9.55
10,17,9.551
19,80,9.552
21,97,9.553
16,62,9.554
9,51,9.555
5,61,9.556
2,18,9.557
-4,-37,9.558
-5,17,9.559
-1,193,9.56
-1,299,9.561
-8,140,9.562
-11,-217,9.563
-9,-465,9.564
-8,-388,9.565
-11,-115,9.566
-8,64,9.567
2,66,9.568
6,57,9.569
4,135,9.57
5,196,9.571
11,158,9.572
13,95,9.573
6,77,9.574
0,65,9.575
2,7,9.576
6,-44,9.577
1,-29,9.578
-6,3,9.579
-10,-8,9.58
-9,-31,9.581
-10,-31,9.582
-8,-47,9.583
0,-117,9.584
7,-180,9.585
6,-159,9.586
3,-69,9.587
12,10,9.588
26,54,9.589
34,83,9.59
29,93,9.591
22,50,9.592
20,-21,9.593
18,-52,9.594
9,0,9.595
-1,75,9.596
-9,78,9.597
-13,1,9.598
-13,-81,9.599
-7,-108,9.6
0,-90,9.601
1,-72,9.602
3,-56,9.603
9,-3,9.604
15,81,9.605
12,132,9.606
5,109,9.607
5,74,9.608
6,108,9.609
-2,178,9.61
-14,157,9.611
-17,18,9.612
-12,-107,9.613
-12,-107,9.614
-13,1,9.615
-10,91,9.616
-4,72,9.617
-5,-38,9.618
-7,-165,9.619
-3,-216,9.62
0,-147,9.621
-1,-22,9.622
-2,31,9.623
4,-20,9.624
10,-71,9.625
11,-41,9.626
18,14,9.627
32,11,9.628
42,-29,9.629
32,-45,9.63
14,-31,9.631
1,-17,9.632
-2,4,9.633
-5,43,9.634
-11,75,9.635
-16,69,9.636
-20,33,9.637
-20,-5,9.638
-11,-37,9.639
4,-43,9.64
13,-5,9.641
8,46,9.642
2,67,9.643
0,60,9.644
-4,69,9.645
-11,99,9.646
-9,101,9.647
1,40,9.648
10,-68,9.649
13,-162,9.65
16,-162,9.651
20,-28,9.652
19,145,9.653
6,220,9.654
-3,129,9.655
-5,-29,9.656
-5,-141,9.657
-6,-185,9.658
1,-165,9.659
11,-45,9.66
11,131,9.661
2,209,9.662
3,120,9.663
16,-10,9.664
21,-61,9.665
10,-70,9.666
-1,-104,9.667
0,-105,9.668
-1,-8,9.669
-17,107,9.67
-37,124,9.671
-41,56,9.672
-27,-3,9.673
-9,-25,9.674
3,-25,9.675
5,-13,9.676
5,0,9.677
6,-4,9.678
12,-30,9.679
20,-44,9.68
21,-36,9.681
13,-33,9.682
9,-44,9.683
17,-38,9.684
30,-11,9.685
35,5,9.686
32,0,9.687
26,-7,9.688
21,-11,9.689
15,-26,9.69
11,-52,9.691
9,-62,9.692
9,-56,9.693
2,-53,9.694
-5,-44,9.695
-14,-11,9.696
-23,34,9.697
-30,62,9.698
-32,61,9.699
-27,63,9.7
-23,80,9.701
-22,93,9.702
-21,91,9.703
-17,88,9.704
-11,87,9.705
-7,69,9.706
0,24,9.707
12,-26,9.708
18,-55,9.709
18,-67,9.71
14,-84,9.711
12,-126,9.712
13,-181,9.713
11,-219,9.714
3,-176,9.715
-1,-46,9.716
-1,84,9.717
1,125,9.718
3,75,9.719
11,13,9.72
20,-24,9.721
24,-76,9.722
23,-170,9.723
21,-234,9.724
18,-161,9.725
9,36,9.726
-7,210,9.727
-18,234,9.728
-17,148,9.729
-16,84,9.73
-21,91,9.731
-22,129,9.732
-9,176,9.733
5,190,9.734
15,88,9.735
10,-24,9.736
-9,-169,9.737
-32,-194,9.738
-44,145,9.739
-34,379,9.74
-9,294,9.741
8,199,9.742
16,77,9.743
32,-17,9.744
59,-26,9.745
92,-43,9.746
112,-79,9.747
107,-102,9.748
76,-87,9.749
37,-86,9.75
11,-128,9.751
4,-154,9.752
1,-124,9.753
-13,-96,9.754
-35,-95,9.755
-52,-116,9.756
-58,-114,9.757
-57,-78,9.758
-50,-45,9.759
-37,-39,9.76
-28,-37,9.761
-32,-13,9.762
-39,17,9.763
-35,28,9.764
-20,16,9.765
-4,-5,9.766
6,-19,9.767
14,-11,9.768
17,25,9.769
22,67,9.77
35,79,9.771
52,55,9.772
51,19,9.773
21,-15,9.774
-9,-44,9.775
-21,-85,9.776
-19,-139,9.777
-22,-160,9.778
-21,-105,9.779
0,-13,9.78
26,-8,9.781
34,-157,9.782
30,-321,9.783
19,-270,9.784
-9,43,9.785
-54,377,9.786
-88,480,9.787
-78,368,9.788
-35,253,9.789
7,245,9.79
41,258,9.791
78,205,9.792
111,139,9.793
119,133,9.794
97,145,9.795
59,66,9.796
19,-107,9.797
-10,-252,9.798
-19,-281,9.799
-9,-221,9.8
-5,-134,9.801
-19,-59,9.802
-34,-14,9.803
-45,-9,9.804
-61,-31,9.805
-79,-50,9.806
-79,-51,9.807
-47,-51,9.808
-10,-59,9.809
7,-63,9.81
10,-59,9.811
20,-50,9.812
41,-38,9.813
56,-17,9.814
63,7,9.815
56,17,9.816
34,5,9.817
6,-5,9.818
-4,-4,9.819
0,1,9.82
4,0,9.821
-1,-4,9.822
-4,-3,9.823
1,0,9.824
0,-1,9.825
-13,-6,9.826
-25,-9,9.827
-25,-6,9.828
-26,1,9.829
-24,13,9.83
-11,17,9.831
15,11,9.832
38,7,9.833
46,5,9.834
37,4,9.835
15,-3,9.836
-11,-22,9.837
-36,-48,9.838
-53,-72,9.839
-62,-72,9.84
-65,-29,9.841
-64,37,9.842
-50,82,9.843
