Deltoid,Bicep,Time
16,-4,0.0
14,0,0.001
5,5,0.002
0,6,0.003
3,4,0.004
4,3,0.005
2,1,0.006
1,-2,0.007
0,-3,0.008
-1,0,0.009
-3,3,0.01
-2,1,0.011
-1,-2,0.012
0,-2,0.013
0,-5,0.014
0,-8,0.015
-2,-7,0.016
-5,-5,0.017
-5,-2,0.018
0,-3,0.019
9,-3,0.02
8,1,0.021
3,5,0.022
0,4,0.023
2,1,0.024
1,-1,0.025
0,0,0.026
0,0,0.027
1,0,0.028
2,3,0.029
2,3,0.03
3,0,0.031
5,-3,0.032
5,-4,0.033
1,-2,0.034
-1,-2,0.035
-2,-3,0.036
-2,-5,0.037
-2,-3,0.038
1,-1,0.039
8,0,0.04
9,3,0.041
3,5,0.042
-2,5,0.043
1,4,0.044
5,2,0.045
3,1,0.046
-1,0,0.047
-3,0,0.048
-2,1,0.049
-1,0,0.05
-1,-2,0.051
2,-3,0.052
7,-2,0.053
4,-3,0.054
-1,-4,0.055
-5,-4,0.056
-3,-5,0.057
0,-3,0.058
5,-2,0.059
11,0,0.06
14,2,0.061
13,2,0.062
11,1,0.063
13,0,0.064
12,1,0.065
8,2,0.066
4,2,0.067
6,0,0.068
6,-1,0.069
1,-1,0.07
-3,0,0.071
-1,0,0.072
3,2,0.073
1,1,0.074
-5,-2,0.075
-10,-5,0.076
-12,-9,0.077
-10,-8,0.078
-4,-4,0.079
8,-1,0.08
14,1,0.081
9,2,0.082
5,1,0.083
9,0,0.084
11,0,0.085
4,0,0.086
-3,2,0.087
-1,2,0.088
4,2,0.089
4,2,0.09
3,4,0.091
3,2,0.092
3,2,0.093
0,1,0.094
-5,0,0.095
-8,-3,0.096
-7,-8,0.097
-4,-9,0.098
3,-5,0.099
9,1,0.1
8,3,0.101
3,4,0.102
2,3,0.103
5,0,0.104
6,-3,0.105
1,-2,0.106
0,0,0.107
4,2,0.108
9,1,0.109
7,1,0.11
1,2,0.111
0,2,0.112
1,1,0.113
1,-2,0.114
0,-2,0.115
-4,-3,0.116
-9,-8,0.117
-8,-8,0.118
-1,-5,0.119
7,-2,0.12
10,0,0.121
6,1,0.122
2,1,0.123
3,1,0.124
4,0,0.125
0,-2,0.126
-3,0,0.127
-2,1,0.128
2,2,0.129
3,0,0.13
3,-2,0.131
6,-2,0.132
10,2,0.133
8,4,0.134
4,0,0.135
0,-4,0.136
-2,-6,0.137
-1,-1,0.138
1,0,0.139
4,0,0.14
6,-1,0.141
4,3,0.142
5,4,0.143
12,0,0.144
16,-2,0.145
14,0,0.146
7,3,0.147
3,4,0.148
4,4,0.149
5,4,0.15
2,2,0.151
-1,-1,0.152
0,-1,0.153
1,-1,0.154
1,2,0.155
-3,3,0.156
-7,-4,0.157
-6,-8,0.158
-2,-7,0.159
3,-6,0.16
4,-3,0.161
4,-1,0.162
3,-1,0.163
3,-2,0.164
4,-3,0.165
4,-3,0.166
3,-1,0.167
3,-1,0.168
5,-4,0.169
6,-5,0.17
5,-4,0.171
2,-3,0.172
1,-2,0.173
0,-4,0.174
-1,-6,0.175
-3,-6,0.176
-3,-8,0.177
-2,-6,0.178
0,-4,0.179
5,-3,0.18
7,-1,0.181
4,3,0.182
0,3,0.183
-1,1,0.184
3,1,0.185
4,5,0.186
1,6,0.187
-1,3,0.188
-1,3,0.189
1,7,0.19
1,8,0.191
1,6,0.192
1,4,0.193
-2,3,0.194
-5,2,0.195
-8,-1,0.196
-8,-6,0.197
-6,-4,0.198
-3,1,0.199
1,3,0.2
1,1,0.201
-2,0,0.202
-3,0,0.203
-2,1,0.204
1,1,0.205
3,0,0.206
3,-1,0.207
6,-2,0.208
7,-2,0.209
5,-1,0.21
2,-1,0.211
3,0,0.212
6,3,0.213
6,1,0.214
5,-2,0.215
6,-6,0.216
6,-9,0.217
3,-6,0.218
5,-4,0.219
12,-1,0.22
14,1,0.221
8,0,0.222
2,0,0.223
5,-3,0.224
9,-3,0.225
5,-2,0.226
-2,-4,0.227
-1,-6,0.228
4,-5,0.229
6,-4,0.23
5,-3,0.231
6,-4,0.232
8,-1,0.233
7,-2,0.234
5,-3,0.235
3,-3,0.236
-1,-5,0.237
-5,-3,0.238
-1,0,0.239
4,1,0.24
1,4,0.241
-5,7,0.242
-2,6,0.243
5,3,0.244
8,-1,0.245
3,-2,0.246
3,-2,0.247
8,0,0.248
8,3,0.249
0,5,0.25
-4,2,0.251
-1,-2,0.252
3,-2,0.253
1,-2,0.254
-1,-2,0.255
-1,-4,0.256
-1,-3,0.257
-2,0,0.258
0,1,0.259
8,-1,0.26
10,0,0.261
3,5,0.262
-1,7,0.263
0,2,0.264
0,-1,0.265
-2,2,0.266
-5,4,0.267
-3,1,0.268
0,-2,0.269
2,0,0.27
1,2,0.271
1,2,0.272
1,3,0.273
0,3,0.274
0,1,0.275
-4,-3,0.276
-7,-8,0.277
-7,-7,0.278
1,-1,0.279
13,0,0.28
14,-1,0.281
5,0,0.282
-2,1,0.283
0,0,0.284
3,-2,0.285
3,-2,0.286
1,-2,0.287
2,-3,0.288
5,-5,0.289
6,-3,0.29
5,0,0.291
4,-1,0.292
3,-2,0.293
4,0,0.294
4,0,0.295
0,0,0.296
-4,-4,0.297
-5,-4,0.298
0,0,0.299
6,2,0.3
6,3,0.301
2,4,0.302
1,4,0.303
5,2,0.304
7,2,0.305
7,4,0.306
7,3,0.307
6,0,0.308
5,-2,0.309
4,-1,0.31
3,-1,0.311
5,-2,0.312
5,-2,0.313
2,-1,0.314
1,-2,0.315
-2,-4,0.316
-7,-7,0.317
-8,-3,0.318
-2,1,0.319
9,1,0.32
11,0,0.321
5,1,0.322
4,0,0.323
11,-2,0.324
13,-2,0.325
7,-1,0.326
1,0,0.327
4,-2,0.328
9,-1,0.329
7,0,0.33
0,-1,0.331
-1,-1,0.332
1,1,0.333
1,-2,0.334
-1,-5,0.335
-3,-5,0.336
-5,-4,0.337
-7,-4,0.338
-2,-7,0.339
7,-7,0.34
10,0,0.341
4,7,0.342
0,7,0.343
4,3,0.344
6,3,0.345
2,3,0.346
-1,4,0.347
1,2,0.348
4,0,0.349
2,0,0.35
0,-1,0.351
2,1,0.352
7,3,0.353
4,0,0.354
0,-4,0.355
-2,-6,0.356
-2,-7,0.357
-4,-5,0.358
-2,-5,0.359
5,-3,0.36
8,2,0.361
3,3,0.362
0,1,0.363
2,0,0.364
6,2,0.365
3,3,0.366
-1,0,0.367
1,-2,0.368
7,0,0.369
5,3,0.37
2,2,0.371
0,-1,0.372
3,0,0.373
4,1,0.374
0,0,0.375
-3,-3,0.376
-5,-7,0.377
-3,-7,0.378
2,-8,0.379
8,-6,0.38
6,0,0.381
0,2,0.382
-2,1,0.383
1,-2,0.384
5,-2,0.385
0,0,0.386
-3,2,0.387
0,3,0.388
3,3,0.389
-1,3,0.39
-3,1,0.391
-1,-1,0.392
3,-1,0.393
1,-4,0.394
1,-5,0.395
-2,-4,0.396
-6,-5,0.397
-8,-6,0.398
-2,-5,0.399
1,-2,0.4
1,1,0.401
-1,2,0.402
1,1,0.403
1,0,0.404
2,1,0.405
4,5,0.406
2,4,0.407
1,1,0.408
3,-1,0.409
6,0,0.41
6,1,0.411
7,3,0.412
9,4,0.413
1,0,0.414
0,-4,0.415
-3,-6,0.416
-7,-7,0.417
-9,-3,0.418
-3,0,0.419
1,1,0.42
0,1,0.421
-2,1,0.422
0,0,0.423
1,-2,0.424
3,-3,0.425
5,1,0.426
3,3,0.427
2,1,0.428
4,-2,0.429
7,0,0.43
7,2,0.431
8,1,0.432
10,0,0.433
12,0,0.434
8,-1,0.435
-1,-5,0.436
-8,-9,0.437
-11,-6,0.438
-4,-4,0.439
6,-6,0.44
12,-6,0.441
7,-1,0.442
0,4,0.443
-2,1,0.444
0,-5,0.445
2,-4,0.446
3,-2,0.447
3,-1,0.448
2,-2,0.449
0,0,0.45
1,1,0.451
2,0,0.452
3,0,0.453
0,-3,0.454
-3,-4,0.455
-5,-2,0.456
-6,-3,0.457
-5,-3,0.458
1,-1,0.459
9,3,0.46
9,5,0.461
4,3,0.462
2,0,0.463
6,1,0.464
9,3,0.465
7,5,0.466
4,4,0.467
4,5,0.468
4,6,0.469
2,5,0.47
1,1,0.471
3,1,0.472
5,4,0.473
2,2,0.474
0,0,0.475
-3,-1,0.476
-4,-4,0.477
-4,-7,0.478
1,-6,0.479
6,-4,0.48
4,-1,0.481
3,1,0.482
4,0,0.483
5,-1,0.484
8,2,0.485
10,4,0.486
6,1,0.487
3,-2,0.488
2,-3,0.489
1,-5,0.49
2,-5,0.491
3,-3,0.492
3,-1,0.493
2,1,0.494
3,2,0.495
0,1,0.496
-2,-3,0.497
-5,-7,0.498
-3,-6,0.499
5,0,0.5
11,4,0.501
7,3,0.502
2,0,0.503
4,-2,0.504
6,-1,0.505
4,0,0.506
1,1,0.507
1,2,0.508
3,1,0.509
3,0,0.51
4,-2,0.511
2,-2,0.512
2,1,0.513
0,2,0.514
0,1,0.515
-1,-1,0.516
-4,-6,0.517
-4,-7,0.518
1,-6,0.519
8,-2,0.52
7,1,0.521
1,3,0.522
0,2,0.523
4,-3,0.524
5,-4,0.525
1,-1,0.526
-1,4,0.527
0,4,0.528
2,0,0.529
0,0,0.53
0,2,0.531
0,3,0.532
1,1,0.533
0,-4,0.534
0,-7,0.535
-3,-6,0.536
-7,-8,0.537
-10,-7,0.538
-4,-5,0.539
5,-3,0.54
9,1,0.541
6,2,0.542
1,0,0.543
0,-2,0.544
0,-3,0.545
1,0,0.546
6,2,0.547
8,0,0.548
7,0,0.549
7,3,0.55
9,5,0.551
9,3,0.552
6,1,0.553
3,1,0.554
4,1,0.555
4,-1,0.556
0,-7,0.557
-4,-8,0.558
0,-4,0.559
9,-1,0.56
8,3,0.561
0,5,0.562
-1,6,0.563
3,2,0.564
5,-1,0.565
1,1,0.566
-2,5,0.567
1,5,0.568
1,0,0.569
-3,-2,0.57
-5,0,0.571
-1,4,0.572
2,2,0.573
0,-1,0.574
-3,-2,0.575
-6,-1,0.576
-6,-5,0.577
-2,-8,0.578
6,-7,0.579
11,-4,0.58
9,-2,0.581
4,0,0.582
3,0,0.583
5,0,0.584
5,0,0.585
3,-1,0.586
1,-1,0.587
2,-2,0.588
1,-1,0.589
1,0,0.59
1,0,0.591
1,-2,0.592
0,-1,0.593
-2,0,0.594
-3,0,0.595
-3,-2,0.596
-6,-6,0.597
-8,-4,0.598
-4,-1,0.599
1,0,0.6
4,0,0.601
4,4,0.602
7,5,0.603
11,2,0.604
9,-1,0.605
0,1,0.606
-4,4,0.607
-5,5,0.608
-6,2,0.609
-6,1,0.61
-1,-1,0.611
10,-6,0.612
20,-8,0.613
23,-8,0.614
21,-3,0.615
15,0,0.616
10,-6,0.617
6,-8,0.618
7,-6,0.619
11,0,0.62
11,4,0.621
6,8,0.622
1,9,0.623
1,3,0.624
3,-1,0.625
2,-1,0.626
-3,2,0.627
-4,1,0.628
-2,-1,0.629
-1,-2,0.63
-2,1,0.631
1,3,0.632
3,2,0.633
0,-1,0.634
-4,-2,0.635
-7,-2,0.636
-7,-4,0.637
-6,-4,0.638
-3,-2,0.639
3,0,0.64
6,1,0.641
2,3,0.642
-1,2,0.643
0,0,0.644
3,-2,0.645
2,0,0.646
0,2,0.647
0,0,0.648
2,-2,0.649
4,-3,0.65
5,-2,0.651
6,0,0.652
7,0,0.653
3,-1,0.654
1,-3,0.655
-2,-6,0.656
-2,-9,0.657
0,-6,0.658
6,-3,0.659
10,0,0.66
9,1,0.661
2,2,0.662
0,3,0.663
2,2,0.664
3,0,0.665
1,0,0.666
1,-2,0.667
5,-3,0.668
5,-2,0.669
0,1,0.67
-1,1,0.671
3,-1,0.672
7,-2,0.673
5,-1,0.674
1,0,0.675
-3,0,0.676
-8,-3,0.677
-11,-2,0.678
-5,-2,0.679
5,-3,0.68
8,-1,0.681
1,4,0.682
-4,5,0.683
0,0,0.684
4,-3,0.685
3,-1,0.686
2,0,0.687
5,0,0.688
8,-2,0.689
4,-3,0.69
1,-1,0.691
3,0,0.692
5,1,0.693
2,-1,0.694
0,-4,0.695
-2,-4,0.696
-2,-5,0.697
-1,-2,0.698
1,-2,0.699
4,-3,0.7
4,0,0.701
2,4,0.702
2,4,0.703
6,-1,0.704
5,-5,0.705
2,-4,0.706
3,-1,0.707
8,-1,0.708
9,0,0.709
4,2,0.71
3,5,0.711
6,2,0.712
7,1,0.713
2,0,0.714
-1,-1,0.715
-3,-3,0.716
-6,-8,0.717
-7,-8,0.718
1,-4,0.719
13,1,0.72
13,4,0.721
3,7,0.722
-4,4,0.723
-1,0,0.724
4,-1,0.725
3,0,0.726
1,0,0.727
4,-2,0.728
8,-3,0.729
5,1,0.73
1,1,0.731
0,-2,0.732
1,-3,0.733
1,-1,0.734
0,2,0.735
-3,1,0.736
-7,-4,0.737
-8,-7,0.738
-1,-7,0.739
8,-4,0.74
11,0,0.741
5,3,0.742
1,4,0.743
2,3,0.744
3,3,0.745
0,6,0.746
-2,6,0.747
-3,2,0.748
-2,-4,0.749
-1,-6,0.75
2,-3,0.751
5,-2,0.752
4,0,0.753
0,-3,0.754
-1,-4,0.755
-1,-2,0.756
-2,-4,0.757
-1,-5,0.758
4,-7,0.759
9,-6,0.76
5,0,0.761
0,4,0.762
1,3,0.763
8,-2,0.764
6,-3,0.765
1,1,0.766
2,5,0.767
8,3,0.768
10,0,0.769
6,-1,0.77
2,0,0.771
3,1,0.772
6,1,0.773
5,0,0.774
2,0,0.775
-2,-2,0.776
-5,-6,0.777
-6,-4,0.778
-2,-1,0.779
6,-1,0.78
9,-1,0.781
6,1,0.782
3,2,0.783
3,0,0.784
4,-2,0.785
2,1,0.786
0,3,0.787
0,0,0.788
1,-1,0.789
1,0,0.79
1,1,0.791
2,-1,0.792
2,-2,0.793
0,-2,0.794
-2,-1,0.795
-4,-2,0.796
-4,-6,0.797
-2,-5,0.798
2,-3,0.799
8,0,0.8
7,5,0.801
2,8,0.802
1,4,0.803
5,0,0.804
7,-1,0.805
3,1,0.806
0,2,0.807
4,-1,0.808
8,-3,0.809
5,-1,0.81
1,0,0.811
2,-1,0.812
6,0,0.813
3,-1,0.814
-1,-1,0.815
-5,-4,0.816
-5,-8,0.817
-4,-6,0.818
0,-4,0.819
5,0,0.82
8,3,0.821
3,3,0.822
-1,2,0.823
1,1,0.824
4,1,0.825
5,2,0.826
4,0,0.827
3,-3,0.828
3,-4,0.829
2,-3,0.83
3,-1,0.831
5,2,0.832
5,5,0.833
1,4,0.834
-1,-3,0.835
-1,-6,0.836
-2,-6,0.837
-4,-1,0.838
-1,-3,0.839
6,-6,0.84
8,-4,0.841
3,0,0.842
-2,1,0.843
0,-2,0.844
5,-2,0.845
3,0,0.846
1,0,0.847
4,-3,0.848
9,-5,0.849
9,-5,0.85
3,-3,0.851
1,-1,0.852
5,0,0.853
5,0,0.854
0,-2,0.855
-5,-3,0.856
-8,-6,0.857
-4,-6,0.858
3,-5,0.859
9,-1,0.86
9,3,0.861
4,5,0.862
2,4,0.863
2,3,0.864
3,4,0.865
3,7,0.866
3,9,0.867
4,8,0.868
6,3,0.869
6,0,0.87
5,0,0.871
3,1,0.872
2,1,0.873
2,-1,0.874
5,0,0.875
4,1,0.876
-1,-3,0.877
-3,-7,0.878
1,-4,0.879
9,3,0.88
8,8,0.881
2,4,0.882
0,0,0.883
4,-3,0.884
8,-2,0.885
5,0,0.886
0,2,0.887
0,3,0.888
3,0,0.889
6,-2,0.89
6,-2,0.891
6,-1,0.892
3,0,0.893
-2,-2,0.894
-5,-2,0.895
-6,-2,0.896
-6,-6,0.897
-5,-8,0.898
-2,-5,0.899
4,0,0.9
7,0,0.901
5,1,0.902
1,2,0.903
2,1,0.904
4,0,0.905
2,-2,0.906
0,-1,0.907
1,0,0.908
2,0,0.909
0,-2,0.91
0,-2,0.911
3,-2,0.912
7,0,0.913
6,0,0.914
1,0,0.915
-2,-1,0.916
-3,-5,0.917
-3,-6,0.918
-1,-3,0.919
7,-1,0.92
10,0,0.921
6,2,0.922
1,3,0.923
3,0,0.924
5,-4,0.925
4,-3,0.926
1,-3,0.927
2,-3,0.928
2,-2,0.929
0,0,0.93
-1,1,0.931
3,0,0.932
6,-2,0.933
4,-5,0.934
2,-8,0.935
0,-8,0.936
-1,-9,0.937
-1,-6,0.938
4,-3,0.939
8,-2,0.94
6,-1,0.941
5,1,0.942
3,0,0.943
2,-3,0.944
5,-1,0.945
8,1,0.946
8,2,0.947
7,0,0.948
4,1,0.949
2,4,0.95
2,6,0.951
1,4,0.952
1,5,0.953
-2,4,0.954
-5,4,0.955
-8,5,0.956
-11,2,0.957
-15,1,0.958
-9,0,0.959
3,0,0.96
7,4,0.961
1,7,0.962
-3,5,0.963
1,0,0.964
6,0,0.965
5,4,0.966
1,5,0.967
1,3,0.968
1,1,0.969
0,2,0.97
-1,0,0.971
0,-2,0.972
1,-2,0.973
2,-3,0.974
0,-3,0.975
-1,-3,0.976
-1,-6,0.977
1,-6,0.978
9,-5,0.979
16,-2,0.98
14,1,0.981
13,3,0.982
11,0,0.983
10,-2,0.984
10,-1,0.985
10,2,0.986
6,1,0.987
3,-3,0.988
4,-6,0.989
5,-4,0.99
5,-1,0.991
5,-1,0.992
3,-1,0.993
1,-1,0.994
2,-5,0.995
0,-8,0.996
-5,-11,0.997
-9,-9,0.998
-3,-5,0.999
6,-5,1.0
9,-3,1.001
6,0,1.002
3,5,1.003
5,4,1.004
5,0,1.005
2,1,1.006
2,2,1.007
3,2,1.008
2,-1,1.009
0,-2,1.01
0,-1,1.011
2,1,1.012
3,1,1.013
3,2,1.014
2,2,1.015
0,0,1.016
-3,-4,1.017
-4,-7,1.018
1,-3,1.019
6,1,1.02
4,2,1.021
3,4,1.022
3,3,1.023
2,1,1.024
2,0,1.025
2,-2,1.026
2,0,1.027
3,2,1.028
3,0,1.029
2,-1,1.03
0,-2,1.031
0,-3,1.032
2,-4,1.033
4,-5,1.034
0,-3,1.035
-8,-3,1.036
-10,-7,1.037
-8,-6,1.038
-2,-3,1.039
3,0,1.04
4,2,1.041
2,6,1.042
1,8,1.043
2,6,1.044
5,3,1.045
7,0,1.046
5,-1,1.047
3,-2,1.048
0,-2,1.049
0,0,1.05
3,0,1.051
6,0,1.052
8,1,1.053
8,1,1.054
11,0,1.055
13,-1,1.056
13,-4,1.057
10,-3,1.058
8,-1,1.059
8,1,1.06
5,3,1.061
1,4,1.062
0,2,1.063
2,0,1.064
1,0,1.065
-2,2,1.066
-6,3,1.067
-6,1,1.068
0,-1,1.069
5,0,1.07
4,2,1.071
-1,4,1.072
-2,4,1.073
0,1,1.074
0,-2,1.075
-3,-5,1.076
-5,-8,1.077
-1,-7,1.078
7,-3,1.079
12,-1,1.08
8,0,1.081
3,0,1.082
4,0,1.083
5,0,1.084
5,-1,1.085
0,0,1.086
-2,2,1.087
-2,4,1.088
1,5,1.089
2,3,1.09
0,1,1.091
0,0,1.092
2,0,1.093
0,-4,1.094
-2,-5,1.095
-6,-3,1.096
-9,-3,1.097
-7,-5,1.098
-1,-6,1.099
8,-3,1.1
12,1,1.101
8,2,1.102
1,0,1.103
1,-1,1.104
6,0,1.105
6,1,1.106
1,1,1.107
0,-3,1.108
6,-5,1.109
10,-4,1.11
7,-4,1.111
2,-2,1.112
2,1,1.113
2,1,1.114
2,2,1.115
-3,0,1.116
-6,-4,1.117
-6,-3,1.118
-2,1,1.119
4,4,1.12
8,4,1.121
5,0,1.122
2,-1,1.123
5,0,1.124
10,1,1.125
9,4,1.126
5,2,1.127
2,0,1.128
3,-2,1.129
3,-1,1.13
3,-2,1.131
4,-4,1.132
3,-2,1.133
0,-2,1.134
-2,-2,1.135
-4,-4,1.136
-6,-8,1.137
-6,-5,1.138
0,-2,1.139
11,-4,1.14
13,-2,1.141
6,2,1.142
2,3,1.143
8,0,1.144
12,-2,1.145
6,1,1.146
0,2,1.147
0,-1,1.148
2,-5,1.149
-1,-5,1.15
-4,-2,1.151
-3,0,1.152
0,0,1.153
1,0,1.154
1,-3,1.155
0,-4,1.156
-4,-5,1.157
-6,-1,1.158
-3,1,1.159
6,-1,1.16
9,0,1.161
3,5,1.162
0,7,1.163
6,4,1.164
9,1,1.165
4,4,1.166
-1,8,1.167
0,6,1.168
4,2,1.169
7,3,1.17
6,2,1.171
5,0,1.172
2,0,1.173
-1,-1,1.174
-1,-3,1.175
0,-6,1.176
-1,-8,1.177
-2,-5,1.178
1,-2,1.179
5,-2,1.18
3,-1,1.181
-1,3,1.182
-2,2,1.183
3,-2,1.184
5,-3,1.185
3,0,1.186
4,3,1.187
6,1,1.188
5,-1,1.189
1,-1,1.19
-1,-1,1.191
0,-2,1.192
2,0,1.193
0,0,1.194
1,0,1.195
2,-3,1.196
0,-8,1.197
-3,-8,1.198
0,-5,1.199
6,-2,1.2
9,-1,1.201
6,0,1.202
4,2,1.203
7,2,1.204
7,3,1.205
3,4,1.206
1,2,1.207
4,-1,1.208
6,-1,1.209
5,2,1.21
1,4,1.211
1,1,1.212
1,0,1.213
1,0,1.214
0,0,1.215
-2,-2,1.216
-3,-8,1.217
-2,-7,1.218
4,-6,1.219
10,-2,1.22
10,1,1.221
8,2,1.222
5,2,1.223
2,-1,1.224
4,-2,1.225
5,0,1.226
3,1,1.227
2,1,1.228
2,1,1.229
2,2,1.23
2,4,1.231
2,3,1.232
0,0,1.233
-4,-3,1.234
-4,-4,1.235
-6,-3,1.236
-11,-4,1.237
-11,-2,1.238
0,-1,1.239
13,-2,1.24
14,-1,1.241
5,1,1.242
-1,4,1.243
0,2,1.244
4,-2,1.245
2,-2,1.246
-1,0,1.247
-2,0,1.248
-1,-1,1.249
0,-3,1.25
1,-4,1.251
3,-1,1.252
3,2,1.253
7,3,1.254
11,1,1.255
13,-4,1.256
8,-8,1.257
2,-9,1.258
3,-5,1.259
9,-1,1.26
12,3,1.261
7,5,1.262
6,3,1.263
10,0,1.264
10,0,1.265
4,1,1.266
-1,0,1.267
-2,-4,1.268
-2,-4,1.269
-5,0,1.27
-6,2,1.271
0,0,1.272
6,-1,1.273
6,-3,1.274
1,-2,1.275
-3,-2,1.276
-8,-4,1.277
-10,-3,1.278
-6,0,1.279
0,2,1.28
3,4,1.281
0,5,1.282
-3,2,1.283
-3,-2,1.284
1,-3,1.285
2,0,1.286
1,3,1.287
2,2,1.288
10,-2,1.289
20,-2,1.29
29,1,1.291
33,4,1.292
27,5,1.293
16,2,1.294
2,-2,1.295
-16,-2,1.296
-51,-3,1.297
-97,-3,1.298
-124,-6,1.299
-106,-7,1.3
-55,-2,1.301
-4,3,1.302
28,1,1.303
51,-4,1.304
80,-5,1.305
118,-1,1.306
150,3,1.307
159,4,1.308
124,3,1.309
51,5,1.31
-16,6,1.311
-32,5,1.312
-11,3,1.313
-6,-4,1.314
-49,-8,1.315
-103,-8,1.316
-119,-9,1.317
-103,-12,1.318
-73,-18,1.319
-19,-20,1.32
53,-11,1.321
95,1,1.322
79,10,1.323
37,16,1.324
8,23,1.325
-7,25,1.326
-6,16,1.327
21,3,1.328
42,0,1.329
-1,4,1.33
-99,5,1.331
-173,-2,1.332
-172,-6,1.333
-115,-6,1.334
-27,-2,1.335
72,-2,1.336
154,-6,1.337
191,-7,1.338
191,-7,1.339
173,-6,1.34
124,-3,1.341
42,-2,1.342
-41,-5,1.343
-93,-8,1.344
-122,-7,1.345
-142,-4,1.346
-137,-3,1.347
-104,-8,1.348
-71,-13,1.349
-68,-9,1.35
-107,-5,1.351
-171,-6,1.352
-197,-8,1.353
-109,-9,1.354
72,1,1.355
202,15,1.356
192,16,1.357
137,10,1.358
145,6,1.359
109,13,1.36
-135,36,1.361
-494,84,1.362
-630,156,1.363
-384,230,1.364
-7,258,1.365
111,204,1.366
-103,94,1.367
-331,-8,1.368
-236,-72,1.369
151,-124,1.37
494,-188,1.371
557,-225,1.372
437,-203,1.373
305,-147,1.374
239,-109,1.375
219,-81,1.376
258,-24,1.377
337,36,1.378
352,33,1.379
247,-32,1.38
150,-71,1.381
196,-40,1.382
336,25,1.383
402,96,1.384
339,187,1.385
234,295,1.386
168,390,1.387
115,449,1.388
24,453,1.389
-83,326,1.39
-160,-1,1.391
-239,-453,1.392
-390,-810,1.393
-619,-954,1.394
-759,-862,1.395
-696,-600,1.396
-514,-264,1.397
-345,30,1.398
-177,185,1.399
60,222,1.4
305,259,1.401
434,353,1.402
459,449,1.403
455,470,1.404
353,400,1.405
-1,235,1.406
-528,-6,1.407
-860,-230,1.408
-723,-310,1.409
-263,-229,1.41
116,-121,1.411
190,-132,1.412
76,-254,1.413
-51,-390,1.414
-114,-441,1.415
-139,-401,1.416
-163,-300,1.417
-221,-128,1.418
-323,89,1.419
-382,240,1.42
-305,228,1.421
-139,133,1.422
-35,114,1.423
-20,184,1.424
23,219,1.425
128,174,1.426
188,135,1.427
159,145,1.428
127,139,1.429
138,83,1.43
127,32,1.431
116,16,1.432
231,0,1.433
472,-44,1.434
570,-74,1.435
362,-63,1.436
125,-42,1.437
199,-34,1.438
458,-19,1.439
471,7,1.44
137,28,1.441
-182,39,1.442
-169,61,1.443
118,96,1.444
481,123,1.445
833,138,1.446
1127,146,1.447
1223,144,1.448
1001,126,1.449
524,109,1.45
9,112,1.451
-363,123,1.452
-548,123,1.453
-620,112,1.454
-631,111,1.455
-621,121,1.456
-545,115,1.457
-481,85,1.458
-455,26,1.459
-432,-47,1.46
-414,-110,1.461
-445,-120,1.462
-622,-73,1.463
-816,-31,1.464
-1064,-62,1.465
-1221,-142,1.466
-1103,-178,1.467
-884,-124,1.468
-360,-33,1.469
136,9,1.47
551,-14,1.471
949,-61,1.472
1295,-87,1.473
1551,-102,1.474
1322,-121,1.475
874,-143,1.476
564,-152,1.477
454,-141,1.478
347,-129,1.479
152,-117,1.48
-25,-93,1.481
-127,-52,1.482
-234,-11,1.483
-382,25,1.484
-487,60,1.485
-525,86,1.486
-613,81,1.487
-837,53,1.488
-1080,33,1.489
-1127,29,1.49
-889,15,1.491
-491,-14,1.492
-142,-19,1.493
107,16,1.494
283,63,1.495
409,67,1.496
382,25,1.497
385,-25,1.498
483,-73,1.499
590,-115,1.5
726,-122,1.501
767,-78,1.502
521,-20,1.503
294,13,1.504
123,36,1.505
-119,66,1.506
-574,85,1.507
-843,67,1.508
-552,40,1.509
-204,48,1.51
312,73,1.511
754,74,1.512
972,59,1.513
1148,52,1.514
1021,53,1.515
642,56,1.516
398,90,1.517
445,191,1.518
445,331,1.519
145,478,1.52
-206,672,1.521
-349,914,1.522
-457,1036,1.523
-731,840,1.524
-947,348,1.525
-837,-204,1.526
-529,-625,1.527
-271,-887,1.528
-43,-966,1.529
204,-819,1.53
294,-540,1.531
132,-345,1.532
-45,-304,1.533
-54,-288,1.534
-56,-209,1.535
-220,-161,1.536
-387,-215,1.537
-381,-259,1.538
-280,-213,1.539
-220,-186,1.54
-159,-276,1.541
-17,-413,1.542
147,-485,1.543
251,-472,1.544
296,-326,1.545
291,33,1.546
209,472,1.547
91,626,1.548
41,342,1.549
57,-90,1.55
1,-333,1.551
-189,-407,1.552
-373,-489,1.553
-401,-564,1.554
-267,-460,1.555
-116,-181,1.556
-54,91,1.557
-24,290,1.558
72,506,1.559
164,777,1.56
52,1035,1.561
-295,1187,1.562
-623,1134,1.563
-701,790,1.564
-638,237,1.565
-653,-271,1.566
-630,-586,1.567
-255,-792,1.568
433,-953,1.569
1013,-925,1.57
1253,-604,1.571
1341,-182,1.572
1439,63,1.573
1416,124,1.574
1133,160,1.575
724,241,1.576
346,300,1.577
-85,351,1.578
-644,503,1.579
-1110,762,1.58
-1180,942,1.581
-807,864,1.582
-144,554,1.583
634,184,1.584
1258,-100,1.585
1347,-255,1.586
781,-311,1.587
-35,-314,1.588
-555,-271,1.589
-667,-137,1.59
-667,114,1.591
-698,380,1.592
-616,478,1.593
-370,347,1.594
-226,117,1.595
-346,-92,1.596
-451,-330,1.597
-258,-659,1.598
53,-933,1.599
165,-918,1.6
145,-607,1.601
240,-253,1.602
379,-61,1.603
282,-16,1.604
-63,-9,1.605
-430,6,1.606
-715,27,1.607
-934,58,1.608
-1009,104,1.609
-860,151,1.61
-563,212,1.611
-153,328,1.612
428,480,1.613
1145,569,1.614
1484,489,1.615
1091,262,1.616
382,24,1.617
66,-136,1.618
234,-236,1.619
384,-277,1.62
275,-205,1.621
177,-25,1.622
259,136,1.623
274,168,1.624
11,94,1.625
-359,-20,1.626
-581,-185,1.627
-623,-392,1.628
-578,-516,1.629
-498,-439,1.63
-416,-225,1.631
-357,-53,1.632
-270,2,1.633
-72,17,1.634
179,70,1.635
366,138,1.636
449,150,1.637
371,76,1.638
-40,-52,1.639
-805,-137,1.64
-1480,-80,1.641
-1438,74,1.642
-543,160,1.643
699,85,1.644
1690,-48,1.645
2152,-105,1.646
2011,-85,1.647
1296,-31,1.648
326,80,1.649
-324,250,1.65
-389,360,1.651
-188,323,1.652
-143,249,1.653
-242,247,1.654
-254,234,1.655
-254,133,1.656
-212,-228,1.657
-230,-525,1.658
-427,-626,1.659
-585,-681,1.66
-625,-598,1.661
-541,-492,1.662
-85,-315,1.663
323,-136,1.664
588,45,1.665
801,225,1.666
857,399,1.667
834,569,1.668
571,722,1.669
317,840,1.67
93,848,1.671
-124,777,1.672
-319,470,1.673
-474,160,1.674
-424,-108,1.675
-313,-295,1.676
-303,-426,1.677
-391,-508,1.678
-486,-539,1.679
-580,-494,1.68
-707,-332,1.681
-826,-99,1.682
-877,76,1.683
-844,143,1.684
-688,163,1.685
-322,134,1.686
235,-46,1.687
770,-320,1.688
1062,-413,1.689
1075,-212,1.69
856,11,1.691
405,-43,1.692
-189,-276,1.693
-767,-405,1.694
-1148,-350,1.695
-1437,-294,1.696
-1445,-234,1.697
-1276,-165,1.698
-574,-72,1.699
189,10,1.7
1133,59,1.701
1857,116,1.702
1917,196,1.703
1855,266,1.704
1424,303,1.705
936,331,1.706
277,329,1.707
-213,311,1.708
-199,243,1.709
-90,170,1.71
303,84,1.711
673,14,1.712
970,-11,1.713
1241,-10,1.714
1208,96,1.715
675,182,1.716
-66,157,1.717
-541,58,1.718
-653,-7,1.719
-755,7,1.72
-1119,30,1.721
-1511,-5,1.722
-1451,-76,1.723
-877,-125,1.724
-292,-135,1.725
-89,-96,1.726
-24,13,1.727
350,167,1.728
903,269,1.729
1029,266,1.73
463,214,1.731
-391,148,1.732
-943,36,1.733
-923,-157,1.734
-463,-320,1.735
-15,-339,1.736
397,-250,1.737
694,-149,1.738
641,-39,1.739
533,125,1.74
261,286,1.741
3,318,1.742
-210,216,1.743
-381,108,1.744
-426,78,1.745
-463,73,1.746
-477,-7,1.747
-475,-165,1.748
-424,-311,1.749
-378,-383,1.75
-347,-405,1.751
-306,-434,1.752
-234,-470,1.753
-166,-465,1.754
-137,-364,1.755
-141,-193,1.756
-129,-34,1.757
-56,83,1.758
53,212,1.759
130,409,1.76
179,604,1.761
258,637,1.762
329,443,1.763
275,141,1.764
81,-104,1.765
-125,-264,1.766
-320,-394,1.767
-627,-473,1.768
-1021,-413,1.769
-1202,-225,1.77
-917,-52,1.771
-280,-2,1.772
348,-18,1.773
909,2,1.774
1481,77,1.775
1955,138,1.776
2135,142,1.777
2044,134,1.778
1142,142,1.779
339,142,1.78
-168,112,1.781
-618,90,1.782
-898,116,1.783
-1106,171,1.784
-1100,214,1.785
-872,240,1.786
22,255,1.787
754,257,1.788
997,251,1.789
1090,254,1.79
729,271,1.791
341,281,1.792
-127,285,1.793
-537,275,1.794
-625,210,1.795
-568,64,1.796
-518,-104,1.797
-410,-212,1.798
-179,-300,1.799
68,-470,1.8
227,-694,1.801
304,-806,1.802
277,-698,1.803
89,-421,1.804
-153,-102,1.805
-228,176,1.806
-113,361,1.807
-35,409,1.808
-141,308,1.809
-342,78,1.81
-524,-221,1.811
-688,-493,1.812
-793,-626,1.813
-668,-579,1.814
-348,-402,1.815
-38,-210,1.816
243,27,1.817
491,226,1.818
640,308,1.819
670,339,1.82
344,209,1.821
60,82,1.822
-98,-39,1.823
-218,-128,1.824
-218,-119,1.825
-166,-89,1.826
35,1,1.827
200,96,1.828
253,201,1.829
247,268,1.83
61,222,1.831
-84,188,1.832
-108,189,1.833
-148,190,1.834
-280,165,1.835
-448,138,1.836
-595,166,1.837
-630,238,1.838
-440,270,1.839
-22,220,1.84
417,107,1.841
668,-38,1.842
712,-170,1.843
643,-234,1.844
516,-223,1.845
391,-187,1.846
364,-155,1.847
415,-117,1.848
361,-80,1.849
144,-74,1.85
-36,-84,1.851
-36,-60,1.852
5,-3,1.853
-57,32,1.854
-127,23,1.855
-175,7,1.856
-149,7,1.857
-149,8,1.858
-227,2,1.859
-285,7,1.86
-283,21,1.861
-283,13,1.862
-287,-7,1.863
-258,-6,1.864
-126,12,1.865
-17,12,1.866
20,-5,1.867
39,-4,1.868
0,15,1.869
-30,21,1.87
-31,5,1.871
-22,-2,1.872
22,7,1.873
54,10,1.874
40,-1,1.875
31,-11,1.876
-2,-9,1.877
-66,-1,1.878
-109,9,1.879
-115,23,1.88
-127,34,1.881
-148,31,1.882
-127,16,1.883
-52,0,1.884
41,-12,1.885
140,-28,1.886
234,-42,1.887
270,-42,1.888
209,-31,1.889
115,-18,1.89
86,-17,1.891
135,-23,1.892
197,-30,1.893
230,-29,1.894
216,-18,1.895
155,-4,1.896
90,0,1.897
74,5,1.898
80,25,1.899
15,61,1.9
-112,94,1.901
-179,109,1.902
-129,103,1.903
-53,83,1.904
-28,57,1.905
-21,37,1.906
1,35,1.907
-3,35,1.908
-53,0,1.909
-84,-77,1.91
-59,-158,1.911
-33,-204,1.912
-43,-206,1.913
-54,-180,1.914
-32,-137,1.915
-16,-92,1.916
-31,-67,1.917
-45,-56,1.918
-26,-36,1.919
-4,1,1.92
-10,27,1.921
-22,30,1.922
-14,28,1.923
-1,40,1.924
-2,51,1.925
-5,49,1.926
-1,42,1.927
3,45,1.928
1,51,1.929
2,50,1.93
6,45,1.931
6,41,1.932
2,39,1.933
1,35,1.934
3,34,1.935
5,32,1.936
0,26,1.937
-1,21,1.938
9,19,1.939
17,16,1.94
15,13,1.941
14,10,1.942
15,7,1.943
15,3,1.944
9,0,1.945
5,-3,1.946
7,-1,1.947
9,0,1.948
4,-1,1.949
1,-2,1.95
6,-6,1.951
10,-9,1.952
8,-8,1.953
8,-7,1.954
11,-7,1.955
6,-8,1.956
-2,-12,1.957
-5,-13,1.958
0,-10,1.959
10,-5,1.96
13,-1,1.961
11,0,1.962
10,-1,1.963
11,-2,1.964
10,-2,1.965
7,-1,1.966
6,-1,1.967
4,0,1.968
6,-1,1.969
7,-3,1.97
6,-7,1.971
3,-10,1.972
1,-8,1.973
0,-7,1.974
-2,-3,1.975
-8,-3,1.976
-13,-7,1.977
-11,-8,1.978
-5,-7,1.979
-1,-2,1.98
0,0,1.981
-6,1,1.982
-14,2,1.983
-16,1,1.984
-10,0,1.985
-3,-2,1.986
-1,-4,1.987
-1,-4,1.988
4,-2,1.989
14,-1,1.99
23,-2,1.991
26,-4,1.992
27,-2,1.993
25,0,1.994
22,2,1.995
15,-2,1.996
12,-9,1.997
17,-12,1.998
25,-10,1.999
25,-7,2.0
16,-4,2.001
6,-1,2.002
2,2,2.003
0,3,2.004
-4,2,2.005
-6,1,2.006
3,0,2.007
14,-1,2.008
17,0,2.009
15,-1,2.01
19,-1,2.011
26,-2,2.012
28,-1,2.013
19,-1,2.014
8,-1,2.015
-2,-1,2.016
-7,-4,2.017
-9,-4,2.018
-3,-1,2.019
0,2,2.02
-1,4,2.021
-5,4,2.022
-14,2,2.023
-20,2,2.024
-17,2,2.025
-15,4,2.026
-15,3,2.027
-14,1,2.028
-14,-2,2.029
-12,-2,2.03
-9,0,2.031
-6,1,2.032
-6,4,2.033
-7,4,2.034
-8,2,2.035
-11,-1,2.036
-14,-5,2.037
-12,-4,2.038
-4,-4,2.039
3,-1,2.04
3,3,2.041
-2,8,2.042
-6,8,2.043
-3,3,2.044
2,-1,2.045
5,-1,2.046
7,0,2.047
9,0,2.048
10,0,2.049
7,1,2.05
2,0,2.051
1,-2,2.052
4,-1,2.053
4,0,2.054
2,1,2.055
0,3,2.056
-4,-1,2.057
-5,-4,2.058
2,-2,2.059
8,0,2.06
8,2,2.061
9,4,2.062
7,2,2.063
6,1,2.064
5,1,2.065
5,2,2.066
9,5,2.067
11,7,2.068
9,3,2.069
8,0,2.07
6,-1,2.071
5,-2,2.072
5,-4,2.073
3,-6,2.074
0,-6,2.075
-3,-4,2.076
-4,-7,2.077
-6,-6,2.078
-4,-2,2.079
3,2,2.08
10,2,2.081
14,0,2.082
15,0,2.083
13,1,2.084
8,0,2.085
2,-2,2.086
-2,-3,2.087
-4,-3,2.088
-6,-3,2.089
-5,-5,2.09
0,-3,2.091
8,0,2.092
13,3,2.093
10,1,2.094
5,0,2.095
1,-2,2.096
0,-6,2.097
2,-8,2.098
11,-6,2.099
20,-3,2.1
20,0,2.101
15,3,2.102
8,4,2.103
5,4,2.104
-1,1,2.105
-8,-2,2.106
-8,0,2.107
-2,1,2.108
1,1,2.109
-3,1,2.11
-8,2,2.111
-7,3,2.112
-3,0,2.113
-8,-2,2.114
-18,-2,2.115
-27,0,2.116
-30,-2,2.117
-30,-5,2.118
-25,-5,2.119
-18,-2,2.12
-9,0,2.121
-2,-1,2.122
8,-2,2.123
23,-4,2.124
36,-3,2.125
42,-2,2.126
42,0,2.127
36,0,2.128
26,-2,2.129
17,-2,2.13
12,0,2.131
13,-1,2.132
14,-1,2.133
11,-2,2.134
5,0,2.135
0,2,2.136
-3,-3,2.137
-4,-5,2.138
2,-2,2.139
12,2,2.14
15,5,2.141
10,4,2.142
3,2,2.143
1,-1,2.144
-2,-1,2.145
-9,3,2.146
-10,6,2.147
-5,5,2.148
-2,-1,2.149
-6,-2,2.15
-12,3,2.151
-11,4,2.152
-8,1,2.153
-11,-2,2.154
-17,0,2.155
-20,2,2.156
-16,-3,2.157
-10,-4,2.158
-3,-2,2.159
4,-2,2.16
7,-3,2.161
2,0,2.162
-1,6,2.163
0,7,2.164
7,0,2.165
10,-3,2.166
7,0,2.167
5,0,2.168
6,-2,2.169
7,-3,2.17
7,2,2.171
6,4,2.172
9,3,2.173
10,0,2.174
8,0,2.175
2,-1,2.176
-1,-7,2.177
2,-7,2.178
8,-3,2.179
10,2,2.18
1,5,2.181
-6,6,2.182
-10,4,2.183
-9,2,2.184
-8,1,2.185
-13,1,2.186
-15,1,2.187
-7,-3,2.188
10,-4,2.189
29,-1,2.19
41,1,2.191
42,0,2.192
35,-6,2.193
22,-9,2.194
5,-6,2.195
-8,0,2.196
-12,1,2.197
-8,-2,2.198
-3,-7,2.199
1,-6,2.2
6,0,2.201
16,1,2.202
21,0,2.203
20,0,2.204
11,2,2.205
1,1,2.206
-2,-2,2.207
-2,-1,2.208
0,4,2.209
-2,5,2.21
-2,-1,2.211
-2,-5,2.212
-3,-1,2.213
-7,1,2.214
-11,2,2.215
-13,0,2.216
-14,-3,2.217
-11,-2,2.218
-5,-2,2.219
2,-4,2.22
5,-2,2.221
0,-1,2.222
-3,-1,2.223
0,-1,2.224
4,0,2.225
-1,1,2.226
-7,3,2.227
-6,3,2.228
0,1,2.229
8,1,2.23
11,2,2.231
12,2,2.232
16,1,2.233
15,-1,2.234
12,-3,2.235
6,-3,2.236
4,-6,2.237
4,-7,2.238
3,-5,2.239
4,-1,2.24
5,0,2.241
2,0,2.242
1,0,2.243
4,-1,2.244
7,-2,2.245
7,-1,2.246
4,1,2.247
5,0,2.248
5,1,2.249
0,3,2.25
-5,5,2.251
-4,3,2.252
1,0,2.253
1,-3,2.254
0,-3,2.255
-2,-3,2.256
-1,-7,2.257
-1,-7,2.258
1,-1,2.259
12,2,2.26
18,0,2.261
14,-2,2.262
5,-3,2.263
3,-2,2.264
4,0,2.265
2,1,2.266
0,4,2.267
2,2,2.268
5,0,2.269
3,-2,2.27
1,-4,2.271
3,-3,2.272
7,0,2.273
2,3,2.274
-2,3,2.275
-6,-1,2.276
-7,-7,2.277
-4,-2,2.278
4,1,2.279
13,0,2.28
14,0,2.281
2,4,2.282
-6,7,2.283
-3,2,2.284
1,-4,2.285
-1,-3,2.286
-4,2,2.287
-3,3,2.288
0,-1,2.289
-2,-2,2.29
-4,1,2.291
-2,3,2.292
1,2,2.293
1,-1,2.294
-1,-4,2.295
-3,-4,2.296
-6,-7,2.297
-10,-6,2.298
-6,-5,2.299
4,-4,2.3
10,0,2.301
4,2,2.302
1,3,2.303
10,1,2.304
19,-2,2.305
20,-1,2.306
14,0,2.307
10,2,2.308
4,1,2.309
1,1,2.31
1,2,2.311
3,2,2.312
1,2,2.313
-4,0,2.314
-7,-3,2.315
-9,-4,2.316
-11,-6,2.317
-11,-5,2.318
-2,-2,2.319
9,1,2.32
12,4,2.321
5,4,2.322
8,2,2.323
15,0,2.324
16,1,2.325
8,0,2.326
2,-2,2.327
3,-6,2.328
3,-3,2.329
0,1,2.33
0,1,2.331
10,-4,2.332
22,-5,2.333
25,-4,2.334
17,-2,2.335
-4,-1,2.336
-21,-3,2.337
-23,-6,2.338
-12,-6,2.339
0,-2,2.34
0,2,2.341
-5,6,2.342
-4,5,2.343
1,2,2.344
6,0,2.345
6,0,2.346
6,0,2.347
5,-1,2.348
3,0,2.349
0,1,2.35
1,-2,2.351
3,-5,2.352
2,-5,2.353
-1,-5,2.354
-1,-4,2.355
0,-4,2.356
-2,-6,2.357
-4,-3,2.358
-1,-1,2.359
6,-1,2.36
8,-2,2.361
3,1,2.362
1,4,2.363
4,1,2.364
3,-1,2.365
-1,-1,2.366
-3,2,2.367
0,1,2.368
4,-2,2.369
3,-2,2.37
2,0,2.371
6,0,2.372
11,1,2.373
10,1,2.374
7,0,2.375
3,-2,2.376
0,-7,2.377
0,-6,2.378
5,-4,2.379
10,-1,2.38
7,3,2.381
2,7,2.382
3,5,2.383
6,1,2.384
5,1,2.385
-2,4,2.386
-3,1,2.387
4,-4,2.388
9,-4,2.389
6,2,2.39
3,6,2.391
4,2,2.392
7,0,2.393
4,-1,2.394
0,-1,2.395
-3,-1,2.396
-7,-5,2.397
-7,-6,2.398
-2,-5,2.399
6,-7,2.4
10,-5,2.401
5,-1,2.402
4,0,2.403
8,-2,2.404
10,-5,2.405
6,-4,2.406
1,-3,2.407
2,-4,2.408
2,-3,2.409
0,-1,2.41
3,-3,2.411
9,-4,2.412
12,-3,2.413
5,-1,2.414
0,-2,2.415
-6,-6,2.416
-6,-10,2.417
-6,-8,2.418
0,-5,2.419
4,-3,2.42
4,-1,2.421
2,2,2.422
-2,2,2.423
-5,2,2.424
-5,2,2.425
-4,4,2.426
-4,5,2.427
-3,3,2.428
-3,1,2.429
-2,3,2.43
0,4,2.431
4,5,2.432
10,6,2.433
14,4,2.434
13,4,2.435
8,3,2.436
3,2,2.437
0,3,2.438
2,5,2.439
9,6,2.44
9,7,2.441
2,5,2.442
-4,1,2.443
-4,-2,2.444
-4,-3,2.445
-3,-1,2.446
-2,1,2.447
0,3,2.448
1,3,2.449
0,4,2.45
0,5,2.451
1,2,2.452
1,0,2.453
0,-5,2.454
0,-7,2.455
0,-6,2.456
-2,-9,2.457
-3,-9,2.458
0,-9,2.459
7,-5,2.46
9,-1,2.461
4,0,2.462
3,-1,2.463
7,0,2.464
7,1,2.465
4,3,2.466
4,4,2.467
6,4,2.468
6,2,2.469
4,0,2.47
9,0,2.471
16,0,2.472
18,-3,2.473
13,-7,2.474
9,-9,2.475
5,-7,2.476
1,-8,2.477
-1,-9,2.478
3,-7,2.479
8,-4,2.48
7,-1,2.481
-1,-2,2.482
-2,-5,2.483
2,-4,2.484
6,-3,2.485
2,0,2.486
-2,0,2.487
-2,0,2.488
-1,0,2.489
-3,2,2.49
-4,2,2.491
-1,0,2.492
1,0,2.493
0,-1,2.494
-1,-4,2.495
-1,-5,2.496
-4,-6,2.497
-4,-3,2.498
2,0,2.499
13,-2,2.5
14,-4,2.501
6,0,2.502
0,3,2.503
3,1,2.504
6,0,2.505
3,1,2.506
0,5,2.507
4,4,2.508
6,0,2.509
4,-2,2.51
-1,-1,2.511
-3,0,2.512
-1,1,2.513
0,0,2.514
-1,0,2.515
-4,0,2.516
-6,-4,2.517
-2,-6,2.518
7,-5,2.519
15,-3,2.52
11,0,2.521
0,3,2.522
-4,4,2.523
-3,2,2.524
-2,0,2.525
-6,1,2.526
-8,3,2.527
-4,5,2.528
0,4,2.529
-1,1,2.53
0,1,2.531
5,1,2.532
11,1,2.533
16,-2,2.534
17,-6,2.535
13,-6,2.536
7,-6,2.537
3,-4,2.538
8,-3,2.539
15,-2,2.54
16,2,2.541
7,5,2.542
1,4,2.543
0,0,2.544
1,-3,2.545
0,-2,2.546
-2,-1,2.547
-1,-1,2.548
-2,0,2.549
-3,1,2.55
-3,0,2.551
1,0,2.552
4,3,2.553
1,4,2.554
-2,0,2.555
-4,-4,2.556
-6,-7,2.557
-6,-6,2.558
-4,-3,2.559
-3,-2,2.56
-9,-1,2.561
-20,2,2.562
-23,0,2.563
-15,-4,2.564
-4,-6,2.565
0,-3,2.566
5,0,2.567
16,2,2.568
33,2,2.569
47,2,2.57
53,1,2.571
49,0,2.572
38,-1,2.573
22,-3,2.574
10,-1,2.575
-2,0,2.576
-10,-1,2.577
-15,-2,2.578
-13,0,2.579
-10,1,2.58
-4,2,2.581
0,2,2.582
-4,-2,2.583
-6,-4,2.584
-3,0,2.585
-1,3,2.586
-1,1,2.587
-1,0,2.588
-3,0,2.589
-5,-1,2.59
-3,-1,2.591
-2,0,2.592
-2,0,2.593
-2,1,2.594
-7,2,2.595
-10,1,2.596
-8,-2,2.597
-6,-3,2.598
-2,-3,2.599
3,-2,2.6
5,-1,2.601
2,0,2.602
0,1,2.603
3,1,2.604
7,2,2.605
4,1,2.606
0,-1,2.607
1,-2,2.608
5,-2,2.609
4,0,2.61
-1,0,2.611
-2,0,2.612
0,0,2.613
-2,-2,2.614
-4,-4,2.615
-4,-5,2.616
1,-8,2.617
7,-7,2.618
15,-4,2.619
25,-2,2.62
29,1,2.621
27,3,2.622
22,1,2.623
22,1,2.624
21,3,2.625
16,6,2.626
7,4,2.627
1,0,2.628
0,0,2.629
0,1,2.63
-2,3,2.631
-2,2,2.632
0,1,2.633
-2,-2,2.634
-6,-3,2.635
-11,-2,2.636
-11,-5,2.637
-6,-7,2.638
-3,-6,2.639
-3,-2,2.64
-4,1,2.641
-2,2,2.642
1,0,2.643
2,1,2.644
0,2,2.645
-3,1,2.646
-2,0,2.647
3,-1,2.648
4,1,2.649
0,1,2.65
-2,-1,2.651
-1,-1,2.652
1,1,2.653
-2,2,2.654
-7,1,2.655
-11,0,2.656
-13,-1,2.657
-15,-2,2.658
-13,0,2.659
-11,1,2.66
-6,2,2.661
0,2,2.662
5,0,2.663
11,-2,2.664
13,0,2.665
17,2,2.666
23,2,2.667
30,1,2.668
35,0,2.669
36,-3,2.67
25,-2,2.671
15,-1,2.672
11,-1,2.673
7,0,2.674
2,0,2.675
-4,-2,2.676
-10,-8,2.677
-11,-7,2.678
-7,-3,2.679
1,2,2.68
4,3,2.681
-2,1,2.682
-6,0,2.683
-1,-1,2.684
4,-2,2.685
1,-3,2.686
-6,-3,2.687
-6,0,2.688
-2,3,2.689
0,1,2.69
-4,0,2.691
-6,-1,2.692
-6,1,2.693
-10,1,2.694
-11,-1,2.695
-13,-4,2.696
-11,-8,2.697
-9,-7,2.698
-2,-5,2.699
7,-2,2.7
12,0,2.701
9,0,2.702
11,0,2.703
16,0,2.704
19,1,2.705
14,1,2.706
11,0,2.707
13,-1,2.708
14,0,2.709
9,1,2.71
3,2,2.711
2,0,2.712
5,0,2.713
1,-3,2.714
-6,-4,2.715
-11,-2,2.716
-12,-3,2.717
-6,-2,2.718
4,-1,2.719
12,0,2.72
13,2,2.721
7,4,2.722
3,4,2.723
3,2,2.724
0,-1,2.725
-3,-2,2.726
-1,-3,2.727
5,-3,2.728
7,-2,2.729
3,-1,2.73
1,1,2.731
7,2,2.732
12,0,2.733
10,-4,2.734
4,-8,2.735
-1,-8,2.736
-5,-6,2.737
-7,-5,2.738
-4,-3,2.739
-1,-2,2.74
-1,-1,2.741
0,1,2.742
-4,0,2.743
-6,-3,2.744
-1,-1,2.745
2,1,2.746
0,4,2.747
-1,2,2.748
0,0,2.749
2,0,2.75
0,1,2.751
-2,0,2.752
-3,0,2.753
-4,-2,2.754
-4,-3,2.755
-1,-2,2.756
2,-4,2.757
11,-3,2.758
22,0,2.759
32,2,2.76
31,4,2.761
22,5,2.762
14,3,2.763
10,0,2.764
7,-1,2.765
1,0,2.766
-2,1,2.767
-2,0,2.768
-2,-1,2.769
-3,0,2.77
-3,2,2.771
-3,2,2.772
-4,1,2.773
-9,-1,2.774
-11,-3,2.775
-10,-4,2.776
-8,-8,2.777
-6,-7,2.778
-1,-4,2.779
11,0,2.78
19,5,2.781
16,6,2.782
9,2,2.783
6,-3,2.784
5,-3,2.785
3,-1,2.786
-2,0,2.787
-4,-1,2.788
-3,-3,2.789
0,-2,2.79
4,-4,2.791
4,-4,2.792
0,0,2.793
-5,4,2.794
-6,2,2.795
-6,-5,2.796
-9,-10,2.797
-11,-7,2.798
-8,-2,2.799
-1,-1,2.8
-3,0,2.801
-13,3,2.802
-17,3,2.803
-8,0,2.804
2,-1,2.805
9,-1,2.806
16,-2,2.807
26,-3,2.808
29,-1,2.809
25,2,2.81
22,0,2.811
22,-3,2.812
18,-4,2.813
4,-2,2.814
-7,-1,2.815
-10,-2,2.816
-10,-4,2.817
-7,-3,2.818
3,-2,2.819
16,0,2.82
17,2,2.821
11,6,2.822
11,9,2.823
20,6,2.824
23,1,2.825
17,-1,2.826
11,0,2.827
11,2,2.828
9,1,2.829
3,-2,2.83
1,-5,2.831
0,-3,2.832
-5,2,2.833
-16,0,2.834
-23,-4,2.835
-23,-4,2.836
-19,-6,2.837
-20,-5,2.838
-12,-4,2.839
1,-3,2.84
5,1,2.841
-2,2,2.842
-8,0,2.843
-3,-1,2.844
2,-1,2.845
-1,0,2.846
-2,-2,2.847
1,-1,2.848
1,0,2.849
-6,0,2.85
-10,-2,2.851
-5,-5,2.852
0,-2,2.853
-1,1,2.854
0,1,2.855
2,0,2.856
3,-4,2.857
2,-4,2.858
6,-2,2.859
15,-1,2.86
18,0,2.861
13,1,2.862
10,0,2.863
13,1,2.864
12,1,2.865
6,3,2.866
1,3,2.867
3,0,2.868
6,0,2.869
5,0,2.87
1,1,2.871
1,0,2.872
2,0,2.873
-1,-1,2.874
-3,-2,2.875
-4,-1,2.876
-7,-3,2.877
-9,-4,2.878
-5,-4,2.879
3,0,2.88
11,4,2.881
12,5,2.882
11,2,2.883
11,0,2.884
8,-1,2.885
4,-1,2.886
6,0,2.887
10,-2,2.888
11,-4,2.889
9,-5,2.89
8,-4,2.891
11,-3,2.892
11,1,2.893
2,2,2.894
-3,0,2.895
-5,-3,2.896
-8,-8,2.897
-11,-7,2.898
-7,-5,2.899
1,-1,2.9
7,4,2.901
5,8,2.902
1,5,2.903
0,0,2.904
0,-1,2.905
3,4,2.906
6,5,2.907
6,3,2.908
6,2,2.909
8,5,2.91
13,5,2.911
17,0,2.912
16,-2,2.913
13,-3,2.914
7,-3,2.915
-1,-5,2.916
-9,-9,2.917
-11,-6,2.918
-5,-3,2.919
0,0,2.92
1,2,2.921
-3,3,2.922
-4,4,2.923
-2,0,2.924
-2,-1,2.925
-5,0,2.926
-4,0,2.927
-1,0,2.928
2,-2,2.929
-2,-2,2.93
-8,-3,2.931
-9,-4,2.932
-7,0,2.933
-8,1,2.934
-15,-1,2.935
-23,-4,2.936
-25,-7,2.937
-19,-6,2.938
-3,-3,2.939
15,-2,2.94
25,1,2.941
29,4,2.942
32,4,2.943
35,1,2.944
33,1,2.945
24,2,2.946
17,2,2.947
13,1,2.948
6,0,2.949
-3,0,2.95
-7,-2,2.951
-4,-2,2.952
1,0,2.953
2,1,2.954
1,-2,2.955
-1,-4,2.956
-5,-7,2.957
-8,-5,2.958
-5,-4,2.959
1,-4,2.96
1,-2,2.961
-4,2,2.962
-7,2,2.963
-3,-1,2.964
0,-3,2.965
-2,-1,2.966
-3,1,2.967
1,0,2.968
4,-2,2.969
1,-1,2.97
0,-1,2.971
2,-2,2.972
3,-2,2.973
-2,-2,2.974
-8,-2,2.975
-12,-4,2.976
-15,-7,2.977
-17,-6,2.978
-12,-3,2.979
-4,0,2.98
-2,0,2.981
-2,2,2.982
4,3,2.983
22,2,2.984
35,0,2.985
33,-2,2.986
23,0,2.987
18,2,2.988
19,2,2.989
18,2,2.99
17,2,2.991
17,2,2.992
13,2,2.993
5,1,2.994
0,1,2.995
-3,0,2.996
-9,-7,2.997
-15,-8,2.998
-10,-4,2.999
2,0,3.0
4,2,3.001
-6,1,3.002
-12,3,3.003
-5,1,3.004
-2,0,3.005
-6,0,3.006
-8,0,3.007
-3,1,3.008
1,0,3.009
-1,0,3.01
-5,0,3.011
-2,-2,3.012
-2,-1,3.013
-12,-2,3.014
-21,-3,3.015
-29,-4,3.016
-30,-9,3.017
-24,-9,3.018
-12,-4,3.019
3,0,3.02
17,3,3.021
34,4,3.022
56,3,3.023
74,3,3.024
70,3,3.025
49,4,3.026
28,3,3.027
17,0,3.028
8,1,3.029
-2,4,3.03
-6,4,3.031
-4,0,3.032
-4,-1,3.033
-9,-1,3.034
-12,0,3.035
-12,-4,3.036
-14,-10,3.037
-17,-9,3.038
-14,-5,3.039
-4,-3,3.04
0,-2,3.041
-5,1,3.042
-11,2,3.043
-7,0,3.044
0,0,3.045
1,2,3.046
-1,4,3.047
-2,0,3.048
-1,-3,3.049
-1,-2,3.05
-2,0,3.051
-1,-1,3.052
1,-2,3.053
3,-3,3.054
2,0,3.055
-3,1,3.056
-6,-5,3.057
-6,-6,3.058
0,-5,3.059
6,-1,3.06
7,0,3.061
3,0,3.062
2,0,3.063
6,-1,3.064
9,0,3.065
4,3,3.066
0,5,3.067
3,3,3.068
9,0,3.069
8,0,3.07
4,1,3.071
1,0,3.072
2,0,3.073
3,-1,3.074
3,0,3.075
2,-2,3.076
0,-6,3.077
0,-4,3.078
4,-1,3.079
8,0,3.08
10,0,3.081
5,0,3.082
3,0,3.083
5,0,3.084
6,0,3.085
6,1,3.086
4,1,3.087
4,-2,3.088
5,-2,3.089
2,-1,3.09
-1,0,3.091
0,-2,3.092
2,-3,3.093
3,-1,3.094
4,-1,3.095
0,-1,3.096
-4,-4,3.097
-6,-2,3.098
2,1,3.099
12,2,3.1
11,3,3.101
3,5,3.102
-1,5,3.103
1,2,3.104
3,1,3.105
0,2,3.106
-1,1,3.107
2,0,3.108
4,1,3.109
1,1,3.11
-1,0,3.111
1,-1,3.112
3,0,3.113
2,-2,3.114
0,-4,3.115
-3,-5,3.116
-4,-6,3.117
-4,-6,3.118
3,-6,3.119
11,-4,3.12
8,-2,3.121
0,1,3.122
-3,0,3.123
3,-4,3.124
7,-4,3.125
3,-2,3.126
-1,0,3.127
1,-1,3.128
5,-3,3.129
6,-2,3.13
7,-1,3.131
11,-2,3.132
15,-3,3.133
13,-4,3.134
10,-5,3.135
6,-6,3.136
1,-8,3.137
-2,-6,3.138
3,-2,3.139
8,0,3.14
6,0,3.141
4,2,3.142
1,3,3.143
-1,3,3.144
-2,5,3.145
-3,7,3.146
-3,6,3.147
-4,4,3.148
-4,4,3.149
-4,7,3.15
-4,9,3.151
-3,6,3.152
-5,5,3.153
-7,5,3.154
-8,5,3.155
-7,3,3.156
-7,0,3.157
-9,0,3.158
-5,0,3.159
1,-1,3.16
5,2,3.161
3,6,3.162
2,6,3.163
5,2,3.164
7,-1,3.165
4,0,3.166
4,1,3.167
10,-1,3.168
16,-2,3.169
17,-3,3.17
13,-3,3.171
10,-5,3.172
6,-4,3.173
0,-2,3.174
-2,-4,3.175
-5,-7,3.176
-9,-11,3.177
-10,-8,3.178
-4,-2,3.179
8,-2,3.18
12,-2,3.181
5,-1,3.182
1,0,3.183
5,0,3.184
9,-1,3.185
5,-1,3.186
2,0,3.187
5,-1,3.188
7,-2,3.189
4,-2,3.19
2,0,3.191
7,-2,3.192
13,-4,3.193
12,-5,3.194
4,-5,3.195
-3,-5,3.196
-4,-8,3.197
-2,-8,3.198
4,-5,3.199
13,0,3.2
16,3,3.201
14,4,3.202
10,3,3.203
6,3,3.204
3,2,3.205
2,2,3.206
5,2,3.207
7,2,3.208
4,2,3.209
0,2,3.21
-2,-1,3.211
-2,-2,3.212
-1,0,3.213
-3,0,3.214
-7,-1,3.215
-10,-4,3.216
-12,-5,3.217
-13,-6,3.218
-6,-3,3.219
0,0,3.22
0,1,3.221
0,3,3.222
-4,3,3.223
-6,3,3.224
0,1,3.225
4,0,3.226
4,0,3.227
3,-1,3.228
4,0,3.229
7,1,3.23
11,3,3.231
15,4,3.232
18,2,3.233
19,0,3.234
14,-2,3.235
3,-3,3.236
-2,-6,3.237
-4,-6,3.238
-2,-4,3.239
1,-1,3.24
5,4,3.241
3,8,3.242
1,6,3.243
2,0,3.244
5,-2,3.245
8,-1,3.246
8,0,3.247
7,-3,3.248
6,-2,3.249
3,0,3.25
0,0,3.251
-2,-2,3.252
0,-3,3.253
1,-4,3.254
0,-2,3.255
-4,-1,3.256
-10,-4,3.257
-10,-5,3.258
-3,-3,3.259
2,0,3.26
4,2,3.261
2,-1,3.262
0,-5,3.263
4,-2,3.264
3,3,3.265
-1,5,3.266
-3,-1,3.267
1,-4,3.268
3,-2,3.269
1,2,3.27
0,2,3.271
0,2,3.272
2,4,3.273
-1,2,3.274
-5,-2,3.275
-8,-7,3.276
-7,-6,3.277
-1,0,3.278
8,3,3.279
16,4,3.28
15,1,3.281
7,0,3.282
2,1,3.283
3,0,3.284
4,0,3.285
5,-1,3.286
9,-1,3.287
14,0,3.288
10,1,3.289
3,1,3.29
2,0,3.291
5,0,3.292
9,0,3.293
3,-6,3.294
-1,-9,3.295
-6,-6,3.296
-10,12,3.297
-13,49,3.298
-9,88,3.299
0,100,3.3
6,63,3.301
5,-10,3.302
5,-79,3.303
8,-110,3.304
7,-102,3.305
2,-74,3.306
-1,-39,3.307
-2,-6,3.308
-2,6,3.309
-1,-6,3.31
2,-21,3.311
8,-14,3.312
11,7,3.313
7,14,3.314
2,4,3.315
2,-4,3.316
1,-3,3.317
0,5,3.318
3,8,3.319
13,10,3.32
17,16,3.321
11,21,3.322
0,17,3.323
-3,11,3.324
-1,7,3.325
0,7,3.326
-1,7,3.327
-1,8,3.328
0,7,3.329
1,4,3.33
2,2,3.331
3,3,3.332
4,7,3.333
1,5,3.334
-3,1,3.335
-8,-2,3.336
-12,-3,3.337
-12,-4,3.338
-7,-2,3.339
1,1,3.34
5,9,3.341
6,18,3.342
3,32,3.343
4,44,3.344
9,49,3.345
12,50,3.346
10,38,3.347
7,23,3.348
2,-1,3.349
0,-26,3.35
-2,-55,3.351
0,-77,3.352
7,-77,3.353
13,-72,3.354
13,-53,3.355
6,-33,3.356
0,-17,3.357
-1,-2,3.358
3,4,3.359
5,-2,3.36
1,-8,3.361
-1,-1,3.362
0,13,3.363
4,22,3.364
8,23,3.365
6,29,3.366
4,40,3.367
-1,39,3.368
-4,17,3.369
-5,-7,3.37
0,0,3.371
5,39,3.372
8,76,3.373
6,86,3.374
3,64,3.375
-1,9,3.376
-4,-70,3.377
-5,-136,3.378
0,-149,3.379
8,-104,3.38
6,-42,3.381
-3,-3,3.382
-7,2,3.383
-5,-20,3.384
-3,-52,3.385
-5,-57,3.386
-6,-23,3.387
0,18,3.388
7,23,3.389
11,-10,3.39
12,-39,3.391
15,-44,3.392
18,-33,3.393
17,-19,3.394
10,10,3.395
3,47,3.396
1,66,3.397
3,62,3.398
7,52,3.399
8,46,3.4
6,41,3.401
2,33,3.402
0,30,3.403
1,35,3.404
0,40,3.405
-2,37,3.406
-4,27,3.407
-2,15,3.408
2,7,3.409
2,5,3.41
-1,24,3.411
-3,77,3.412
-2,149,3.413
-3,188,3.414
-6,146,3.415
-12,56,3.416
-15,-3,3.417
-12,6,3.418
-1,16,3.419
8,-41,3.42
8,-150,3.421
0,-242,3.422
-3,-287,3.423
-2,-295,3.424
2,-272,3.425
1,-206,3.426
1,-113,3.427
3,-34,3.428
1,11,3.429
-3,35,3.43
0,64,3.431
11,113,3.432
23,157,3.433
27,160,3.434
27,114,3.435
24,51,3.436
19,9,3.437
14,-1,3.438
11,-4,3.439
14,-4,3.44
14,12,3.441
6,39,3.442
0,56,3.443
-1,59,3.444
-2,60,3.445
-6,62,3.446
-11,44,3.447
-12,17,3.448
-16,19,3.449
-22,64,3.45
-24,113,3.451
-20,121,3.452
-13,82,3.453
-6,19,3.454
1,-38,3.455
5,-83,3.456
3,-121,3.457
1,-145,3.458
9,-146,3.459
19,-133,3.46
17,-126,3.461
4,-126,3.462
-3,-105,3.463
0,-46,3.464
4,18,3.465
3,47,3.466
3,47,3.467
6,51,3.468
7,64,3.469
1,67,3.47
0,51,3.471
5,32,3.472
8,20,3.473
6,10,3.474
6,7,3.475
8,9,3.476
8,1,3.477
3,-10,3.478
3,-10,3.479
9,11,3.48
10,37,3.481
5,45,3.482
0,35,3.483
2,12,3.484
5,-24,3.485
2,-60,3.486
-1,-75,3.487
2,-60,3.488
5,-30,3.489
1,-2,3.49
-4,21,3.491
-6,34,3.492
-4,38,3.493
-9,41,3.494
-13,50,3.495
-16,60,3.496
-17,57,3.497
-16,37,3.498
-10,8,3.499
-3,-17,3.5
1,-33,3.501
5,-40,3.502
12,-45,3.503
22,-53,3.504
27,-58,3.505
22,-57,3.506
14,-53,3.507
9,-43,3.508
9,-22,3.509
7,3,3.51
2,19,3.511
0,18,3.512
1,16,3.513
5,18,3.514
8,19,3.515
5,11,3.516
1,1,3.517
-2,2,3.518
2,11,3.519
9,15,3.52
12,16,3.521
7,19,3.522
0,18,3.523
-3,10,3.524
-4,4,3.525
-4,4,3.526
-6,7,3.527
-8,6,3.528
-7,3,3.529
-3,3,3.53
0,2,3.531
3,-3,3.532
4,-3,3.533
-2,2,3.534
-11,10,3.535
-17,19,3.536
-16,25,3.537
-10,28,3.538
-1,28,3.539
8,33,3.54
18,47,3.541
24,51,3.542
23,26,3.543
17,-9,3.544
10,-22,3.545
7,-19,3.546
5,-31,3.547
1,-52,3.548
-3,-48,3.549
-5,-21,3.55
-5,-2,3.551
-1,12,3.552
5,50,3.553
10,100,3.554
9,95,3.555
4,2,3.556
0,-124,3.557
2,-211,3.558
9,-241,3.559
17,-226,3.56
20,-159,3.561
14,-66,3.562
4,-7,3.563
0,-5,3.564
0,-7,3.565
-1,27,3.566
-2,64,3.567
0,64,3.568
2,50,3.569
0,55,3.57
-4,67,3.571
-5,66,3.572
-2,64,3.573
-2,76,3.574
-6,90,3.575
-9,83,3.576
-6,61,3.577
-3,45,3.578
2,20,3.579
10,-18,3.58
11,-51,3.581
8,-58,3.582
5,-49,3.583
6,-39,3.584
4,-23,3.585
-2,3,3.586
-4,24,3.587
0,25,3.588
4,15,3.589
5,15,3.59
5,20,3.591
9,19,3.592
10,14,3.593
3,10,3.594
-3,6,3.595
-7,0,3.596
-8,-6,3.597
-7,-5,3.598
2,-3,3.599
12,-2,3.6
11,-1,3.601
0,0,3.602
-6,0,3.603
-7,-2,3.604
-6,-1,3.605
-10,0,3.606
-9,0,3.607
-3,-2,3.608
-2,1,3.609
-2,11,3.61
-1,20,3.611
2,21,3.612
5,15,3.613
2,7,3.614
1,9,3.615
2,29,3.616
2,45,3.617
5,46,3.618
14,31,3.619
20,15,3.62
16,11,3.621
2,4,3.622
-3,-21,3.623
1,-58,3.624
8,-87,3.625
7,-107,3.626
2,-128,3.627
4,-143,3.628
12,-130,3.629
15,-86,3.63
11,-41,3.631
3,-11,3.632
1,9,3.633
0,24,3.634
-2,33,3.635
-7,30,3.636
-7,28,3.637
1,39,3.638
11,50,3.639
13,50,3.64
9,43,3.641
4,40,3.642
3,36,3.643
5,25,3.644
4,15,3.645
0,15,3.646
-3,18,3.647
0,14,3.648
-1,8,3.649
-5,8,3.65
-6,10,3.651
-1,10,3.652
5,9,3.653
4,5,3.654
-1,2,3.655
-5,-1,3.656
-6,-5,3.657
-1,-4,3.658
11,-4,3.659
23,-6,3.66
26,-5,3.661
17,-2,3.662
4,-4,3.663
0,-7,3.664
-3,-4,3.665
-12,0,3.666
-25,0,3.667
-32,-1,3.668
-23,-2,3.669
-8,-3,3.67
-2,-5,3.671
-4,-6,3.672
-7,-2,3.673
-6,-2,3.674
-2,-4,3.675
-6,-7,3.676
-11,-9,3.677
-9,-7,3.678
-1,-6,3.679
6,-1,3.68
8,4,3.681
12,6,3.682
24,5,3.683
36,3,3.684
37,8,3.685
28,20,3.686
18,33,3.687
16,37,3.688
20,25,3.689
22,0,3.69
16,-18,3.691
9,-21,3.692
4,-14,3.693
0,-16,3.694
-4,-25,3.695
-9,-35,3.696
-9,-48,3.697
-7,-60,3.698
-5,-65,3.699
-2,-54,3.7
1,-31,3.701
1,-8,3.702
-3,2,3.703
-5,7,3.704
-4,13,3.705
-4,22,3.706
-4,28,3.707
-1,28,3.708
2,27,3.709
2,26,3.71
-1,22,3.711
-3,16,3.712
0,12,3.713
-1,10,3.714
-2,12,3.715
-4,12,3.716
-6,5,3.717
-4,-1,3.718
2,-3,3.719
9,1,3.72
9,7,3.721
6,11,3.722
3,8,3.723
5,2,3.724
8,-2,3.725
6,-2,3.726
6,0,3.727
6,1,3.728
6,1,3.729
3,3,3.73
0,7,3.731
-2,12,3.732
-2,15,3.733
-3,9,3.734
-4,0,3.735
-8,-4,3.736
-13,-4,3.737
-12,0,3.738
-4,0,3.739
2,-4,3.74
5,-8,3.741
9,-5,3.742
16,-1,3.743
17,-3,3.744
12,-9,3.745
10,-11,3.746
15,-10,3.747
21,-14,3.748
19,-20,3.749
12,-20,3.75
7,-14,3.751
6,-12,3.752
3,-13,3.753
-4,-13,3.754
-9,-7,3.755
-12,0,3.756
-14,-1,3.757
-14,0,3.758
-10,2,3.759
-4,6,3.76
-2,10,3.761
-4,13,3.762
-4,13,3.763
1,9,3.764
12,10,3.765
25,11,3.766
32,13,3.767
33,16,3.768
33,24,3.769
33,31,3.77
26,25,3.771
7,8,3.772
-14,-4,3.773
-32,-7,3.774
-40,-6,3.775
-42,-8,3.776
-37,-19,3.777
-20,-22,3.778
-3,-18,3.779
4,-15,3.78
6,-20,3.781
7,-30,3.782
10,-38,3.783
13,-39,3.784
11,-34,3.785
11,-25,3.786
13,-11,3.787
9,7,3.788
1,30,3.789
-2,53,3.79
3,63,3.791
8,56,3.792
9,38,3.793
7,13,3.794
6,-2,3.795
6,-7,3.796
3,-12,3.797
2,-16,3.798
6,-12,3.799
11,2,3.8
11,16,3.801
9,14,3.802
10,1,3.803
13,-8,3.804
13,-11,3.805
4,-15,3.806
-3,-27,3.807
-4,-36,3.808
-4,-35,3.809
-6,-21,3.81
-11,1,3.811
-14,36,3.812
-16,83,3.813
-14,128,3.814
-7,140,3.815
2,93,3.816
4,-5,3.817
0,-104,3.818
3,-165,3.819
15,-174,3.82
20,-141,3.821
15,-87,3.822
7,-42,3.823
4,-26,3.824
5,-29,3.825
4,-26,3.826
2,-8,3.827
2,12,3.828
0,32,3.829
-3,49,3.83
-3,56,3.831
3,47,3.832
9,38,3.833
5,42,3.834
2,50,3.835
2,43,3.836
3,21,3.837
4,9,3.838
3,15,3.839
5,23,3.84
3,20,3.841
-4,17,3.842
-9,17,3.843
-8,14,3.844
-5,7,3.845
-6,4,3.846
-9,5,3.847
-9,4,3.848
-3,0,3.849
6,-1,3.85
14,1,3.851
18,2,3.852
18,3,3.853
12,7,3.854
2,18,3.855
-11,32,3.856
-21,37,3.857
-23,47,3.858
-15,66,3.859
-4,91,3.86
1,106,3.861
0,99,3.862
0,71,3.863
7,38,3.864
12,9,3.865
13,-27,3.866
13,-90,3.867
10,-171,3.868
3,-232,3.869
-4,-249,3.87
-2,-227,3.871
10,-184,3.872
21,-125,3.873
22,-52,3.874
15,10,3.875
8,40,3.876
2,48,3.877
-3,66,3.878
-2,96,3.879
4,127,3.88
8,150,3.881
3,152,3.882
1,101,3.883
10,-16,3.884
18,-152,3.885
14,-237,3.886
4,-254,3.887
1,-218,3.888
4,-141,3.889
5,-44,3.89
3,23,3.891
2,42,3.892
5,52,3.893
7,92,3.894
7,135,3.895
2,132,3.896
-2,94,3.897
-3,72,3.898
2,71,3.899
10,62,3.9
8,50,3.901
-2,50,3.902
-10,57,3.903
-11,48,3.904
-7,28,3.905
-3,24,3.906
0,27,3.907
0,23,3.908
-3,16,3.909
-8,19,3.91
-10,27,3.911
-7,30,3.912
-2,30,3.913
-1,24,3.914
-1,4,3.915
-4,-21,3.916
-7,-42,3.917
-6,-51,3.918
1,-57,3.919
11,-58,3.92
11,-45,3.921
7,-26,3.922
9,-18,3.923
16,-20,3.924
16,-18,3.925
7,-9,3.926
-2,-6,3.927
-4,-5,3.928
-1,1,3.929
0,13,3.93
0,15,3.931
-1,9,3.932
0,6,3.933
1,7,3.934
1,9,3.935
-2,7,3.936
-3,3,3.937
4,2,3.938
17,5,3.939
22,12,3.94
19,20,3.941
13,21,3.942
13,14,3.943
13,9,3.944
3,12,3.945
-11,11,3.946
-19,-6,3.947
-20,-36,3.948
-20,-66,3.949
-17,-85,3.95
-7,-89,3.951
3,-78,3.952
6,-54,3.953
5,-26,3.954
10,-3,3.955
14,9,3.956
9,10,3.957
0,15,3.958
4,27,3.959
15,33,3.96
18,35,3.961
7,41,3.962
-2,48,3.963
-2,47,3.964
1,35,3.965
2,21,3.966
3,12,3.967
5,3,3.968
2,-15,3.969
-2,-33,3.97
-6,-39,3.971
-4,-34,3.972
-1,-26,3.973
-1,-21,3.974
0,-14,3.975
1,-7,3.976
0,-5,3.977
-2,-3,3.978
0,4,3.979
1,14,3.98
1,23,3.981
1,26,3.982
5,27,3.983
8,30,3.984
8,31,3.985
7,28,3.986
10,21,3.987
12,14,3.988
9,11,3.989
5,8,3.99
0,-5,3.991
-2,-23,3.992
5,-37,3.993
11,-44,3.994
5,-40,3.995
-3,-35,3.996
-7,-33,3.997
-6,-30,3.998
2,-22,3.999
14,-8,4.0
19,8,4.001
13,22,4.002
3,28,4.003
0,23,4.004
1,15,4.005
1,11,4.006
-2,9,4.007
-2,4,4.008
0,-1,4.009
1,-6,4.01
1,-6,4.011
2,-7,4.012
4,-7,4.013
5,-9,4.014
4,-9,4.015
-4,-7,4.016
-13,-7,4.017
-15,-4,4.018
-6,1,4.019
5,7,4.02
6,10,4.021
1,11,4.022
1,10,4.023
10,8,4.024
13,7,4.025
6,6,4.026
-1,6,4.027
-2,11,4.028
-5,23,4.029
-9,37,4.03
-7,40,4.031
0,26,4.032
3,5,4.033
-2,-12,4.034
-6,-21,4.035
-6,-33,4.036
-3,-49,4.037
-3,-56,4.038
2,-50,4.039
10,-37,4.04
12,-24,4.041
3,-13,4.042
0,-7,4.043
6,-3,4.044
14,1,4.045
14,8,4.046
14,15,4.047
14,18,4.048
9,16,4.049
0,12,4.05
-2,10,4.051
3,10,4.052
8,12,4.053
4,12,4.054
-1,10,4.055
-3,4,4.056
-3,-2,4.057
-2,-2,4.058
5,0,4.059
14,1,4.06
16,2,4.061
9,3,4.062
4,6,4.063
6,7,4.064
8,4,4.065
5,2,4.066
3,2,4.067
5,2,4.068
6,1,4.069
5,-1,4.07
4,-1,4.071
6,1,4.072
7,3,4.073
2,-3,4.074
-1,-7,4.075
-7,-6,4.076
-12,-8,4.077
-12,-8,4.078
-3,-6,4.079
8,0,4.08
5,5,4.081
-4,7,4.082
-8,6,4.083
-5,5,4.084
-2,4,4.085
-1,3,4.086
2,3,4.087
6,1,4.088
5,-3,4.089
1,-6,4.09
2,-8,4.091
4,-8,4.092
4,-6,4.093
3,-7,4.094
4,-6,4.095
4,-4,4.096
0,-8,4.097
-2,-9,4.098
3,-4,4.099
12,0,4.1
12,0,4.101
5,-2,4.102
2,-3,4.103
4,0,4.104
3,4,4.105
-2,8,4.106
-3,9,4.107
3,7,4.108
7,3,4.109
1,0,4.11
-4,-1,4.111
-6,-1,4.112
-2,1,4.113
0,2,4.114
-2,1,4.115
-4,-2,4.116
-4,-7,4.117
0,-11,4.118
10,-10,4.119
17,-10,4.12
15,-12,4.121
10,-12,4.122
8,-10,4.123
10,-3,4.124
9,3,4.125
5,6,4.126
3,5,4.127
2,2,4.128
1,5,4.129
-4,12,4.13
-7,21,4.131
-4,24,4.132
-2,23,4.133
-5,17,4.134
-7,12,4.135
-9,7,4.136
-11,1,4.137
-11,-3,4.138
0,-6,4.139
14,-7,4.14
17,-11,4.141
12,-14,4.142
8,-18,4.143
11,-22,4.144
12,-21,4.145
5,-15,4.146
-3,-7,4.147
-5,-1,4.148
-5,2,4.149
-5,7,4.15
-6,9,4.151
-2,7,4.152
1,5,4.153
3,1,4.154
2,-1,4.155
0,-1,4.156
-2,-7,4.157
-2,-9,4.158
6,-9,4.159
17,-5,4.16
19,0,4.161
15,2,4.162
12,0,4.163
12,-3,4.164
8,-2,4.165
3,1,4.166
2,4,4.167
3,3,4.168
2,2,4.169
-2,2,4.17
-4,1,4.171
-3,-2,4.172
-2,-1,4.173
-4,0,4.174
-6,2,4.175
-9,-1,4.176
-7,-8,4.177
0,-7,4.178
12,-5,4.179
18,-3,4.18
15,-1,4.181
8,2,4.182
3,2,4.183
2,-2,4.184
0,-5,4.185
1,0,4.186
3,4,4.187
8,4,4.188
10,1,4.189
11,0,4.19
11,-1,4.191
8,-2,4.192
5,0,4.193
1,3,4.194
-2,7,4.195
-6,6,4.196
-10,-1,4.197
-9,-7,4.198
-2,-6,4.199
3,0,4.2
2,4,4.201
-2,7,4.202
-3,7,4.203
-1,4,4.204
-2,1,4.205
-2,-2,4.206
-1,-1,4.207
0,0,4.208
0,0,4.209
-1,0,4.21
-1,-1,4.211
1,-2,4.212
3,-3,4.213
0,-5,4.214
0,-2,4.215
-1,-2,4.216
-2,-8,4.217
-2,-10,4.218
2,-6,4.219
10,1,4.22
12,5,4.221
8,4,4.222
6,1,4.223
8,-1,4.224
6,-1,4.225
-1,-2,4.226
-5,-1,4.227
-3,1,4.228
0,2,4.229
0,2,4.23
0,0,4.231
3,-1,4.232
9,0,4.233
11,-1,4.234
8,-1,4.235
1,-1,4.236
-4,-4,4.237
-8,-3,4.238
-2,-4,4.239
8,-2,4.24
13,0,4.241
8,2,4.242
2,0,4.243
3,-4,4.244
5,-4,4.245
5,0,4.246
0,2,4.247
1,1,4.248
2,-1,4.249
0,-1,4.25
-2,1,4.251
-4,0,4.252
-4,-1,4.253
-5,-4,4.254
0,-5,4.255
5,-5,4.256
6,-10,4.257
0,-9,4.258
0,-6,4.259
9,-4,4.26
12,-5,4.261
6,-5,4.262
1,-2,4.263
3,5,4.264
4,11,4.265
-1,15,4.266
-6,12,4.267
-6,7,4.268
-7,7,4.269
-10,10,4.27
-8,11,4.271
5,6,4.272
21,0,4.273
25,-3,4.274
18,-3,4.275
6,-4,4.276
-1,-5,4.277
-2,-1,4.278
2,0,4.279
7,1,4.28
4,3,4.281
-4,5,4.282
-8,3,4.283
-2,-4,4.284
9,-9,4.285
14,-7,4.286
13,-4,4.287
12,-5,4.288
11,-4,4.289
8,0,4.29
4,5,4.291
2,10,4.292
1,18,4.293
-2,23,4.294
-4,24,4.295
-9,20,4.296
-13,8,4.297
-15,-1,4.298
-9,-12,4.299
3,-26,4.3
14,-39,4.301
18,-46,4.302
16,-44,4.303
15,-34,4.304
11,-20,4.305
6,-8,4.306
3,0,4.307
5,7,4.308
4,20,4.309
1,30,4.31
0,29,4.311
1,20,4.312
3,13,4.313
0,11,4.314
-1,12,4.315
-2,6,4.316
-2,-3,4.317
-2,-5,4.318
0,-4,4.319
8,-4,4.32
12,-5,4.321
8,-2,4.322
2,10,4.323
3,22,4.324
6,30,4.325
3,22,4.326
-2,2,4.327
-5,-23,4.328
-5,-38,4.329
-5,-39,4.33
-2,-36,4.331
4,-34,4.332
10,-23,4.333
8,0,4.334
0,21,4.335
-7,34,4.336
-10,18,4.337
-7,5,4.338
-1,3,4.339
5,2,4.34
5,1,4.341
3,-1,4.342
6,-5,4.343
11,-8,4.344
9,-9,4.345
3,-11,4.346
4,-12,4.347
13,-13,4.348
16,-11,4.349
12,-9,4.35
7,-7,4.351
4,-4,4.352
3,2,4.353
-1,9,4.354
-5,13,4.355
-8,14,4.356
-8,10,4.357
-7,11,4.358
-2,13,4.359
2,12,4.36
5,9,4.361
8,8,4.362
11,9,4.363
13,7,4.364
8,3,4.365
1,3,4.366
0,5,4.367
2,4,4.368
2,-2,4.369
-1,-6,4.37
-2,-3,4.371
-1,0,4.372
-1,-1,4.373
-8,-7,4.374
-15,-7,4.375
-18,-5,4.376
-16,-8,4.377
-8,-13,4.378
3,-12,4.379
12,-7,4.38
10,-4,4.381
-1,-1,4.382
-4,1,4.383
4,0,4.384
14,-2,4.385
15,1,4.386
10,5,4.387
8,7,4.388
10,4,4.389
8,0,4.39
4,-1,4.391
3,2,4.392
6,7,4.393
5,9,4.394
3,6,4.395
1,2,4.396
-1,2,4.397
-3,13,4.398
-4,30,4.399
0,46,4.4
7,60,4.401
6,67,4.402
3,69,4.403
4,63,4.404
2,45,4.405
-4,12,4.406
-12,-30,4.407
-9,-75,4.408
-1,-113,4.409
0,-139,4.41
-6,-147,4.411
-7,-127,4.412
0,-84,4.413
7,-30,4.414
12,18,4.415
9,54,4.416
6,69,4.417
5,63,4.418
9,40,4.419
11,25,4.42
7,27,4.421
1,31,4.422
3,24,4.423
10,11,4.424
12,0,4.425
7,-17,4.426
5,-49,4.427
6,-81,4.428
5,-88,4.429
-1,-63,4.43
-5,-16,4.431
-4,41,4.432
1,101,4.433
3,142,4.434
3,149,4.435
2,117,4.436
0,58,4.437
-1,-17,4.438
4,-96,4.439
13,-157,4.44
15,-179,4.441
9,-164,4.442
3,-133,4.443
0,-101,4.444
-4,-60,4.445
-7,-10,4.446
-6,24,4.447
-1,32,4.448
0,30,4.449
-4,39,4.45
-5,57,4.451
3,67,4.452
14,73,4.453
15,82,4.454
11,100,4.455
7,122,4.456
6,135,4.457
7,132,4.458
5,105,4.459
4,65,4.46
3,32,4.461
0,1,4.462
-3,-40,4.463
-4,-89,4.464
-4,-109,4.465
-5,-84,4.466
-7,-37,4.467
-6,5,4.468
-3,27,4.469
-1,13,4.47
-1,-43,4.471
1,-121,4.472
7,-166,4.473
13,-153,4.474
11,-92,4.475
2,-15,4.476
-4,46,4.477
-4,70,4.478
5,51,4.479
15,28,4.48
15,42,4.481
8,86,4.482
4,115,4.483
9,117,4.484
12,112,4.485
10,98,4.486
6,43,4.487
3,-40,4.488
0,-103,4.489
-4,-126,4.49
-6,-138,4.491
-6,-146,4.492
-7,-128,4.493
-14,-79,4.494
-18,-35,4.495
-16,-23,4.496
-12,-17,4.497
-6,16,4.498
3,67,4.499
14,112,4.5
15,140,4.501
9,143,4.502
7,107,4.503
13,36,4.504
16,-43,4.505
12,-105,4.506
10,-138,4.507
11,-135,4.508
9,-89,4.509
1,-24,4.51
-1,26,4.511
3,46,4.512
7,62,4.513
-1,101,4.514
-9,165,4.515
-12,218,4.516
-11,221,4.517
-13,187,4.518
-12,144,4.519
-3,98,4.52
9,5,4.521
12,-145,4.522
9,-276,4.523
8,-305,4.524
13,-245,4.525
14,-184,4.526
9,-149,4.527
5,-97,4.528
0,-19,4.529
-4,26,4.53
-3,13,4.531
1,-11,4.532
8,-14,4.533
11,-28,4.534
12,-74,4.535
11,-110,4.536
7,-91,4.537
4,-29,4.538
8,29,4.539
14,75,4.54
14,121,4.541
6,160,4.542
3,174,4.543
7,178,4.544
9,180,4.545
3,158,4.546
-3,88,4.547
-5,-6,4.548
-8,-86,4.549
-14,-134,4.55
-15,-156,4.551
-8,-145,4.552
-3,-95,4.553
-9,-21,4.554
-15,34,4.555
-16,55,4.556
-10,64,4.557
-2,84,4.558
6,96,4.559
13,77,4.56
12,32,4.561
3,-9,4.562
-2,-38,4.563
0,-59,4.564
3,-76,4.565
1,-76,4.566
-1,-55,4.567
2,-33,4.568
5,-20,4.569
6,-2,4.57
7,43,4.571
11,103,4.572
13,141,4.573
8,144,4.574
2,136,4.575
0,130,4.576
-1,97,4.577
-3,22,4.578
0,-75,4.579
7,-153,4.58
10,-182,4.581
4,-164,4.582
-3,-120,4.583
-3,-77,4.584
-1,-53,4.585
-2,-39,4.586
-3,-22,4.587
1,-2,4.588
4,19,4.589
4,55,4.59
3,99,4.591
7,113,4.592
12,77,4.593
7,11,4.594
1,-39,4.595
-2,-84,4.596
-2,-146,4.597
-1,-183,4.598
2,-151,4.599
7,-77,4.6
6,-25,4.601
2,-1,4.602
2,26,4.603
2,54,4.604
0,53,4.605
-4,51,4.606
-1,87,4.607
5,141,4.608
7,153,4.609
1,121,4.61
-2,96,4.611
-1,101,4.612
3,105,4.613
4,73,4.614
2,18,4.615
-3,-31,4.616
-5,-65,4.617
-3,-85,4.618
4,-111,4.619
11,-144,4.62
11,-169,4.621
7,-168,4.622
4,-148,4.623
4,-119,4.624
5,-74,4.625
10,-6,4.626
14,59,4.627
16,93,4.628
12,91,4.629
4,86,4.63
0,100,4.631
0,126,4.632
0,145,4.633
-2,134,4.634
-4,89,4.635
-7,32,4.636
-12,4,4.637
-12,25,4.638
-7,59,4.639
-1,68,4.64
0,44,4.641
-2,-9,4.642
-3,-91,4.643
0,-179,4.644
0,-223,4.645
-2,-188,4.646
-4,-104,4.647
-3,-28,4.648
-3,17,4.649
-5,36,4.65
-4,29,4.651
-2,-1,4.652
3,-24,4.653
8,-26,4.654
13,-24,4.655
10,-34,4.656
1,-34,4.657
-3,5,4.658
6,67,4.659
20,114,4.66
29,135,4.661
23,148,4.662
10,144,4.663
1,114,4.664
2,56,4.665
8,-23,4.666
13,-125,4.667
10,-214,4.668
2,-237,4.669
-4,-191,4.67
-7,-130,4.671
-8,-84,4.672
-8,-38,4.673
-8,6,4.674
-7,47,4.675
-9,66,4.676
-10,88,4.677
-9,125,4.678
1,136,4.679
14,102,4.68
18,70,4.681
14,82,4.682
10,121,4.683
8,128,4.684
3,84,4.685
-3,13,4.686
-7,-48,4.687
-5,-84,4.688
-1,-101,4.689
-1,-113,4.69
0,-115,4.691
0,-91,4.692
-2,-41,4.693
-4,21,4.694
-5,56,4.695
-3,69,4.696
-3,66,4.697
-1,67,4.698
8,82,4.699
20,102,4.7
19,82,4.701
10,1,4.702
5,-105,4.703
9,-175,4.704
13,-188,4.705
11,-171,4.706
4,-142,4.707
1,-98,4.708
1,-46,4.709
3,-12,4.71
4,-10,4.711
3,-23,4.712
2,-28,4.713
0,-26,4.714
-1,-25,4.715
-3,-12,4.716
-6,22,4.717
-5,79,4.718
3,129,4.719
13,165,4.72
15,196,4.721
7,210,4.722
0,178,4.723
0,101,4.724
1,22,4.725
1,-30,4.726
1,-73,4.727
0,-116,4.728
-5,-123,4.729
-9,-65,4.73
-6,23,4.731
-2,84,4.732
1,93,4.733
2,66,4.734
2,14,4.735
1,-65,4.736
-2,-158,4.737
-3,-218,4.738
1,-215,4.739
7,-155,4.74
6,-71,4.741
2,4,4.742
3,43,4.743
7,42,4.744
9,22,4.745
9,11,4.746
12,18,4.747
16,30,4.748
16,35,4.749
10,38,4.75
3,46,4.751
1,58,4.752
3,72,4.753
2,92,4.754
-1,123,4.755
-5,150,4.756
-8,147,4.757
-5,104,4.758
2,26,4.759
6,-59,4.76
1,-125,4.761
-4,-156,4.762
-3,-146,4.763
2,-88,4.764
3,6,4.765
0,89,4.766
-3,120,4.767
0,105,4.768
4,85,4.769
7,66,4.77
8,22,4.771
4,-49,4.772
3,-101,4.773
1,-115,4.774
1,-113,4.775
-2,-120,4.776
-5,-128,4.777
-3,-115,4.778
2,-103,4.779
9,-108,4.78
10,-104,4.781
7,-62,4.782
8,-9,4.783
12,18,4.784
13,27,4.785
8,48,4.786
3,75,4.787
6,84,4.788
11,82,4.789
10,96,4.79
3,122,4.791
-2,145,4.792
-1,156,4.793
0,150,4.794
-3,119,4.795
-12,74,4.796
-19,36,4.797
-17,23,4.798
-7,25,4.799
4,41,4.8
7,65,4.801
0,66,4.802
-4,12,4.803
-4,-75,4.804
-1,-151,4.805
-4,-206,4.806
-10,-257,4.807
-8,-296,4.808
-1,-296,4.809
5,-255,4.81
8,-186,4.811
13,-86,4.812
18,24,4.813
17,98,4.814
9,101,4.815
-1,82,4.816
-5,109,4.817
-6,165,4.818
-4,181,4.819
5,149,4.82
15,114,4.821
16,75,4.822
12,15,4.823
12,-38,4.824
17,-32,4.825
19,25,4.826
15,66,4.827
7,61,4.828
1,36,4.829
-5,15,4.83
-11,-6,4.831
-11,-21,4.832
-6,-23,4.833
-3,-22,4.834
-5,-39,4.835
-13,-71,4.836
-17,-101,4.837
-15,-118,4.838
-4,-121,4.839
7,-102,4.84
11,-60,4.841
5,-17,4.842
2,7,4.843
4,26,4.844
8,56,4.845
12,80,4.846
15,74,4.847
18,52,4.848
19,49,4.849
18,72,4.85
16,94,4.851
11,105,4.852
5,107,4.853
0,95,4.854
-2,68,4.855
-5,43,4.856
-8,26,4.857
-11,5,4.858
-6,-42,4.859
2,-111,4.86
1,-158,4.861
-7,-155,4.862
-10,-103,4.863
-2,-29,4.864
6,29,4.865
6,43,4.866
2,19,4.867
3,-10,4.868
9,-32,4.869
6,-58,4.87
-2,-95,4.871
-7,-108,4.872
-6,-75,4.873
-3,-96,4.874
-5,-139,4.875
-10,-163,4.876
-12,-130,4.877
-5,-92,4.878
6,-39,4.879
17,11,4.88
15,63,4.881
5,97,4.882
0,82,4.883
3,71,4.884
11,79,4.885
14,76,4.886
11,38,4.887
7,9,4.888
5,1,4.889
4,-11,4.89
4,-40,4.891
8,-63,4.892
13,-60,4.893
12,-116,4.894
7,-169,4.895
-1,-199,4.896
-8,-158,4.897
-13,-111,4.898
-9,-46,4.899
-1,18,4.9
7,82,4.901
10,125,4.902
10,106,4.903
12,93,4.904
13,102,4.905
12,98,4.906
5,52,4.907
1,15,4.908
-2,6,4.909
-5,-10,4.91
-11,-47,4.911
-13,-75,4.912
-11,-72,4.913
-7,-75,4.914
-5,-108,4.915
-10,-132,4.916
-16,-110,4.917
-16,-56,4.918
-7,-20,4.919
4,-12,4.92
11,0,4.921
12,26,4.922
14,48,4.923
14,59,4.924
14,78,4.925
13,126,4.926
10,205,4.927
11,286,4.928
11,316,4.929
9,250,4.93
6,99,4.931
0,-69,4.932
-1,-183,4.933
-3,-238,4.934
-4,-231,4.935
-7,-183,4.936
-6,-117,4.937
-1,-47,4.938
7,14,4.939
12,61,4.94
10,79,4.941
2,44,4.942
1,-30,4.943
5,-98,4.944
8,-116,4.945
4,-93,4.946
-1,-73,4.947
-2,-82,4.948
0,-98,4.949
2,-76,4.95
5,-9,4.951
9,79,4.952
10,162,4.953
5,235,4.954
-2,279,4.955
-5,254,4.956
-4,153,4.957
-1,30,4.958
4,-64,4.959
13,-132,4.96
15,-194,4.961
8,-225,4.962
-1,-190,4.963
-3,-107,4.964
-2,-40,4.965
-1,-21,4.966
1,-30,4.967
9,-42,4.968
14,-53,4.969
11,-58,4.97
4,-45,4.971
2,-17,4.972
4,12,4.973
0,31,4.974
-4,43,4.975
-10,59,4.976
-15,87,4.977
-16,114,4.978
-7,141,4.979
8,155,4.98
17,128,4.981
12,95,4.982
4,43,4.983
3,2,4.984
6,-7,4.985
2,-14,4.986
-3,-14,4.987
-5,-22,4.988
-5,-56,4.989
-5,-81,4.99
-9,-73,4.991
-10,-65,4.992
-9,-62,4.993
-7,-46,4.994
-1,13,4.995
1,53,4.996
-2,39,4.997
-4,14,4.998
1,29,4.999
12,84,5.0
14,133,5.001
8,131,5.002
5,65,5.003
7,-33,5.004
6,-120,5.005
1,-167,5.006
-1,-174,5.007
-2,-145,5.008
-11,-83,5.009
-19,-9,5.01
-12,42,5.011
4,47,5.012
11,24,5.013
2,-1,5.014
-8,-5,5.015
-9,7,5.016
-5,20,5.017
-3,26,5.018
6,30,5.019
31,36,5.02
64,40,5.021
86,35,5.022
85,22,5.023
55,14,5.024
10,16,5.025
-18,25,5.026
-23,50,5.027
-23,104,5.028
-42,159,5.029
-66,151,5.03
-68,53,5.031
-46,-70,5.032
-18,-136,5.033
9,-123,5.034
38,-67,5.035
58,-9,5.036
48,54,5.037
36,98,5.038
14,81,5.039
-3,31,5.04
-8,-114,5.041
-9,-241,5.042
8,-306,5.043
19,-336,5.044
13,-257,5.045
8,-163,5.046
12,-28,5.047
15,79,5.048
13,103,5.049
12,119,5.05
10,113,5.051
8,110,5.052
4,122,5.053
0,127,5.054
-3,123,5.055
-12,146,5.056
-23,162,5.057
-27,131,5.058
-19,60,5.059
-13,-15,5.06
-19,-76,5.061
-26,-107,5.062
-26,-88,5.063
-22,-44,5.064
-24,-41,5.065
-28,-88,5.066
-24,-112,5.067
-15,-68,5.068
-7,-3,5.069
-1,24,5.07
3,32,5.071
2,57,5.072
-2,74,5.073
-3,39,5.074
6,-27,5.075
15,-68,5.076
13,-68,5.077
12,-41,5.078
16,-4,5.079
21,24,5.08
21,12,5.081
23,-18,5.082
34,-2,5.083
44,77,5.084
39,146,5.085
27,138,5.086
19,75,5.087
19,19,5.088
15,-16,5.089
7,-49,5.09
2,-75,5.091
0,-73,5.092
-4,-50,5.093
-14,-32,5.094
-18,-55,5.095
-18,-112,5.096
-18,-152,5.097
-19,-113,5.098
-12,-20,5.099
0,36,5.1
8,27,5.101
5,21,5.102
-1,78,5.103
-4,163,5.104
-7,207,5.105
-12,199,5.106
-12,154,5.107
-7,63,5.108
-2,-72,5.109
-2,-193,5.11
-2,-235,5.111
1,-181,5.112
8,-62,5.113
9,55,5.114
7,95,5.115
5,95,5.116
3,-26,5.117
4,-116,5.118
16,-107,5.119
23,-95,5.12
17,-75,5.121
11,-47,5.122
8,-1,5.123
9,40,5.124
21,65,5.125
28,96,5.126
20,148,5.127
13,211,5.128
10,307,5.129
7,333,5.13
4,144,5.131
-1,-40,5.132
-9,-212,5.133
-17,-346,5.134
-22,-340,5.135
-21,-303,5.136
-17,-194,5.137
-17,-2,5.138
-11,162,5.139
1,220,5.14
8,216,5.141
4,185,5.142
2,74,5.143
8,-113,5.144
10,-246,5.145
5,-237,5.146
1,-159,5.147
0,-109,5.148
-5,-67,5.149
-14,-2,5.15
-17,41,5.151
-10,43,5.152
-3,64,5.153
1,135,5.154
7,180,5.155
13,130,5.156
12,25,5.157
9,-55,5.158
13,-103,5.159
17,-138,5.16
7,-134,5.161
-10,-81,5.162
-20,-14,5.163
-18,33,5.164
-8,72,5.165
-1,130,5.166
5,243,5.167
11,444,5.168
15,682,5.169
14,768,5.17
18,528,5.171
23,24,5.172
26,-451,5.173
24,-756,5.174
19,-868,5.175
9,-833,5.176
-4,-648,5.177
-15,-327,5.178
-16,-21,5.179
-8,104,5.18
0,71,5.181
4,37,5.182
7,86,5.183
13,163,5.184
17,198,5.185
15,214,5.186
11,275,5.187
10,387,5.188
6,469,5.189
-3,410,5.19
-10,176,5.191
-10,-116,5.192
-6,-290,5.193
-8,-312,5.194
-11,-264,5.195
-11,-232,5.196
-11,-205,5.197
-12,-145,5.198
-12,-86,5.199
-8,-59,5.2
-4,-23,5.201
-4,41,5.202
-5,73,5.203
-3,45,5.204
0,33,5.205
5,98,5.206
13,152,5.207
22,82,5.208
28,-69,5.209
24,-166,5.21
14,-167,5.211
1,-130,5.212
-5,-83,5.213
-5,7,5.214
-2,117,5.215
1,154,5.216
3,95,5.217
6,41,5.218
13,49,5.219
18,57,5.22
13,11,5.221
2,-35,5.222
-2,-14,5.223
0,39,5.224
1,55,5.225
0,31,5.226
0,10,5.227
0,2,5.228
-1,-11,5.229
-4,-3,5.23
-5,51,5.231
-3,112,5.232
-1,113,5.233
-1,62,5.234
0,31,5.235
-3,53,5.236
-8,90,5.237
-12,108,5.238
-9,98,5.239
-5,31,5.24
-7,-117,5.241
-15,-279,5.242
-14,-334,5.243
-3,-262,5.244
8,-176,5.245
8,-142,5.246
4,-99,5.247
5,4,5.248
9,108,5.249
7,148,5.25
3,142,5.251
5,130,5.252
15,101,5.253
17,42,5.254
17,2,5.255
15,-24,5.256
11,-10,5.257
7,6,5.258
4,30,5.259
0,50,5.26
-7,59,5.261
-13,99,5.262
-13,235,5.263
-10,320,5.264
3,251,5.265
13,119,5.266
11,-202,5.267
9,-439,5.268
7,-423,5.269
4,-383,5.27
1,-274,5.271
-1,-168,5.272
-1,-74,5.273
1,-6,5.274
0,-36,5.275
0,-9,5.276
0,124,5.277
3,284,5.278
9,388,5.279
15,399,5.28
13,293,5.281
2,69,5.282
-3,-172,5.283
2,-302,5.284
8,-294,5.285
4,-178,5.286
2,26,5.287
5,233,5.288
9,249,5.289
5,-1,5.29
-1,-298,5.291
-1,-379,5.292
4,-277,5.293
7,-167,5.294
9,-102,5.295
8,0,5.296
4,134,5.297
0,208,5.298
0,236,5.299
5,301,5.3
7,360,5.301
1,297,5.302
-4,115,5.303
-2,-60,5.304
1,-156,5.305
-1,-186,5.306
-7,-167,5.307
-10,-112,5.308
-11,-51,5.309
-12,-11,5.31
-13,19,5.311
-11,44,5.312
-4,48,5.313
0,12,5.314
3,-61,5.315
10,-154,5.316
16,-229,5.317
15,-227,5.318
8,-152,5.319
3,-49,5.32
3,70,5.321
1,248,5.322
-5,453,5.323
-12,525,5.324
-11,337,5.325
-2,-22,5.326
8,-322,5.327
17,-430,5.328
19,-383,5.329
12,-256,5.33
0,-78,5.331
-3,79,5.332
1,122,5.333
4,62,5.334
0,52,5.335
-9,166,5.336
-9,268,5.337
2,232,5.338
21,141,5.339
34,137,5.34
31,163,5.341
12,48,5.342
-5,-176,5.343
-10,-286,5.344
-5,-196,5.345
-2,-94,5.346
1,-137,5.347
12,-200,5.348
26,-110,5.349
28,60,5.35
14,110,5.351
-6,26,5.352
-18,-34,5.353
-27,-28,5.354
-34,-24,5.355
-35,-28,5.356
-27,20,5.357
-17,83,5.358
-5,46,5.359
5,-50,5.36
13,-58,5.361
15,27,5.362
15,71,5.363
15,60,5.364
15,88,5.365
8,113,5.366
-1,-2,5.367
-7,-191,5.368
-13,-223,5.369
-18,-68,5.37
-18,56,5.371
-10,32,5.372
2,-26,5.373
13,-33,5.374
23,-35,5.375
32,-58,5.376
35,-37,5.377
32,39,5.378
24,69,5.379
17,31,5.38
6,24,5.381
-7,87,5.382
-15,138,5.383
-9,128,5.384
-2,101,5.385
-3,80,5.386
-7,25,5.387
-1,-54,5.388
8,-84,5.389
10,-35,5.39
6,42,5.391
4,82,5.392
9,66,5.393
12,2,5.394
8,-100,5.395
-2,-177,5.396
-9,-189,5.397
-10,-142,5.398
-6,-54,5.399
-1,69,5.4
-2,186,5.401
-4,220,5.402
-2,155,5.403
6,81,5.404
10,83,5.405
2,122,5.406
-7,99,5.407
-8,-12,5.408
-1,-134,5.409
0,-200,5.41
-6,-225,5.411
-14,-249,5.412
-17,-256,5.413
-14,-198,5.414
-12,-120,5.415
-11,-75,5.416
-5,-31,5.417
11,108,5.418
31,334,5.419
42,477,5.42
37,391,5.421
28,141,5.422
22,-78,5.423
21,-177,5.424
13,-223,5.425
3,-248,5.426
2,-184,5.427
6,-41,5.428
6,15,5.429
1,-81,5.43
0,-148,5.431
1,-21,5.432
6,184,5.433
8,294,5.434
15,283,5.435
13,232,5.436
0,136,5.437
-14,-37,5.438
-11,-203,5.439
2,-249,5.44
7,-198,5.441
-2,-155,5.442
-13,-145,5.443
-17,-117,5.444
-18,-49,5.445
-14,30,5.446
-5,96,5.447
5,128,5.448
11,114,5.449
14,75,5.45
19,53,5.451
23,63,5.452
23,81,5.453
13,91,5.454
0,121,5.455
-10,210,5.456
-16,325,5.457
-17,354,5.458
-11,194,5.459
-3,-117,5.46
-1,-422,5.461
-4,-590,5.462
-7,-593,5.463
-7,-439,5.464
-6,-168,5.465
-5,69,5.466
-3,104,5.467
0,-28,5.468
6,-100,5.469
13,0,5.47
17,133,5.471
17,156,5.472
11,124,5.473
6,134,5.474
6,157,5.475
12,127,5.476
13,86,5.477
5,92,5.478
0,91,5.479
3,49,5.48
6,49,5.481
3,135,5.482
0,185,5.483
2,95,5.484
5,-38,5.485
3,-64,5.486
-2,2,5.487
-1,61,5.488
1,110,5.489
-2,171,5.49
-7,137,5.491
-4,-74,5.492
5,-309,5.493
9,-368,5.494
7,-208,5.495
1,5,5.496
0,114,5.497
0,77,5.498
3,-94,5.499
12,-302,5.5
19,-367,5.501
21,-206,5.502
21,63,5.503
22,256,5.504
19,284,5.505
10,143,5.506
-2,-86,5.507
-10,-227,5.508
-15,-141,5.509
-19,83,5.51
-21,221,5.511
-20,185,5.512
-13,61,5.513
-3,-89,5.514
7,-209,5.515
7,-227,5.516
-3,-132,5.517
-13,-31,5.518
-12,-18,5.519
-3,-43,5.52
-2,-25,5.521
-6,13,5.522
-6,51,5.523
8,141,5.524
24,256,5.525
30,239,5.526
29,47,5.527
25,-123,5.528
20,-120,5.529
14,-53,5.53
1,-58,5.531
-12,-65,5.532
-21,7,5.533
-19,79,5.534
-11,48,5.535
-8,-8,5.536
-14,30,5.537
-15,107,5.538
-3,92,5.539
13,29,5.54
16,45,5.541
13,125,5.542
12,144,5.543
16,74,5.544
16,1,5.545
13,-13,5.546
10,-6,5.547
6,-26,5.548
-4,-86,5.549
-15,-147,5.55
-14,-148,5.551
0,-63,5.552
13,36,5.553
11,52,5.554
-4,-30,5.555
-16,-105,5.556
-16,-70,5.557
-7,61,5.558
4,176,5.559
12,182,5.56
13,83,5.561
12,-17,5.562
13,-24,5.563
16,19,5.564
15,-11,5.565
7,-120,5.566
2,-164,5.567
1,-86,5.568
0,-18,5.569
-4,-47,5.57
-9,-80,5.571
-9,-27,5.572
0,53,5.573
6,110,5.574
7,161,5.575
2,141,5.576
0,-67,5.577
2,-351,5.578
11,-424,5.579
17,-225,5.58
13,-11,5.581
5,54,5.582
4,102,5.583
12,248,5.584
14,392,5.585
6,401,5.586
-2,270,5.587
-6,56,5.588
-7,-168,5.589
-9,-297,5.59
-10,-286,5.591
-12,-193,5.592
-16,-73,5.593
-19,32,5.594
-14,36,5.595
-9,8,5.596
-9,-116,5.597
-12,-178,5.598
-5,-48,5.599
8,40,5.6
14,6,5.601
10,-3,5.602
11,61,5.603
20,113,5.604
22,129,5.605
11,165,5.606
-1,261,5.607
0,267,5.608
6,1,5.609
9,-196,5.61
8,-189,5.611
4,-155,5.612
0,-41,5.613
-11,84,5.614
-18,200,5.615
-18,144,5.616
-11,-68,5.617
-8,-237,5.618
-7,-261,5.619
-5,-210,5.62
-2,-145,5.621
1,-51,5.622
10,50,5.623
21,92,5.624
32,71,5.625
35,59,5.626
32,93,5.627
25,141,5.628
21,158,5.629
19,121,5.63
17,35,5.631
11,-59,5.632
4,-101,5.633
-2,-85,5.634
-7,-41,5.635
-11,19,5.636
-17,99,5.637
-17,169,5.638
-9,166,5.639
2,100,5.64
8,47,5.641
7,26,5.642
5,-19,5.643
6,-104,5.644
3,-157,5.645
-3,-129,5.646
-11,-79,5.647
-15,-77,5.648
-16,-110,5.649
-14,-118,5.65
-13,-78,5.651
-15,2,5.652
-13,116,5.653
-4,257,5.654
9,316,5.655
16,183,5.656
16,-85,5.657
19,-273,5.658
27,-247,5.659
29,-101,5.66
16,-15,5.661
-1,-32,5.662
-5,-58,5.663
-2,-25,5.664
-2,69,5.665
-7,215,5.666
-7,372,5.667
-3,403,5.668
0,191,5.669
1,-172,5.67
4,-441,5.671
8,-477,5.672
8,-371,5.673
3,-233,5.674
5,-90,5.675
8,52,5.676
3,136,5.677
-9,135,5.678
-16,104,5.679
-14,86,5.68
-11,62,5.681
-8,35,5.682
-2,49,5.683
8,91,5.684
17,91,5.685
16,39,5.686
10,-10,5.687
8,-37,5.688
7,-67,5.689
6,-91,5.69
5,-93,5.691
5,-105,5.692
5,-126,5.693
3,-78,5.694
4,63,5.695
8,163,5.696
12,114,5.697
11,18,5.698
13,20,5.699
17,81,5.7
16,80,5.701
2,27,5.702
-14,32,5.703
-21,123,5.704
-16,211,5.705
-13,207,5.706
-10,86,5.707
-9,-116,5.708
-5,-289,5.709
-5,-325,5.71
-7,-223,5.711
-6,-69,5.712
1,64,5.713
11,151,5.714
14,130,5.715
9,3,5.716
2,-109,5.717
-5,-95,5.718
-9,-17,5.719
-6,9,5.72
0,7,5.721
5,51,5.722
6,109,5.723
7,97,5.724
9,43,5.725
6,25,5.726
1,22,5.727
1,-27,5.728
7,-82,5.729
14,-55,5.73
14,16,5.731
12,13,5.732
12,-77,5.733
12,-150,5.734
10,-111,5.735
4,4,5.736
0,90,5.737
-3,99,5.738
-1,37,5.739
7,-55,5.74
9,-105,5.741
4,-34,5.742
-1,179,5.743
0,423,5.744
-1,494,5.745
-6,263,5.746
-9,-156,5.747
-3,-467,5.748
8,-505,5.749
13,-368,5.75
13,-211,5.751
11,-62,5.752
10,78,5.753
-3,156,5.754
-21,131,5.755
-29,75,5.756
-20,39,5.757
-1,-14,5.758
15,-87,5.759
18,-95,5.76
13,-29,5.761
3,12,5.762
-3,-13,5.763
-3,-32,5.764
0,-5,5.765
8,28,5.766
14,49,5.767
18,76,5.768
22,91,5.769
26,63,5.77
28,36,5.771
22,73,5.772
9,126,5.773
-9,100,5.774
-18,13,5.775
-22,-31,5.776
-21,-3,5.777
-17,29,5.778
-11,27,5.779
-8,25,5.78
-15,17,5.781
-21,-52,5.782
-17,-153,5.783
-5,-153,5.784
4,-15,5.785
3,127,5.786
-1,157,5.787
-2,114,5.788
-3,69,5.789
-1,3,5.79
5,-107,5.791
14,-197,5.792
20,-206,5.793
19,-155,5.794
15,-86,5.795
12,-17,5.796
11,31,5.797
15,36,5.798
26,25,5.799
37,54,5.8
36,114,5.801
27,141,5.802
17,114,5.803
10,66,5.804
3,4,5.805
-6,-68,5.806
-14,-100,5.807
-20,-54,5.808
-27,22,5.809
-31,46,5.81
-24,2,5.811
-9,-54,5.812
3,-60,5.813
5,0,5.814
2,78,5.815
-3,70,5.816
-8,-66,5.817
-9,-216,5.818
-2,-240,5.819
8,-139,5.82
10,-23,5.821
7,64,5.822
10,141,5.823
17,164,5.824
17,94,5.825
6,53,5.826
2,180,5.827
12,355,5.828
19,303,5.829
10,11,5.83
-4,-212,5.831
-8,-158,5.832
-4,39,5.833
-12,172,5.834
-24,130,5.835
-28,-83,5.836
-14,-391,5.837
5,-595,5.838
20,-526,5.839
26,-266,5.84
23,-46,5.841
16,42,5.842
12,95,5.843
18,167,5.844
24,230,5.845
22,289,5.846
15,325,5.847
10,223,5.848
10,-27,5.849
13,-199,5.85
15,-94,5.851
16,155,5.852
13,264,5.853
7,162,5.854
1,-16,5.855
-7,-159,5.856
-21,-258,5.857
-31,-291,5.858
-31,-236,5.859
-24,-136,5.86
-24,-54,5.861
-28,-2,5.862
-26,28,5.863
-19,31,5.864
-10,24,5.865
-4,40,5.866
6,74,5.867
21,96,5.868
30,106,5.869
27,118,5.87
20,121,5.871
17,119,5.872
17,149,5.873
14,246,5.874
6,359,5.875
-3,389,5.876
-7,272,5.877
-4,18,5.878
0,-288,5.879
4,-510,5.88
3,-548,5.881
0,-423,5.882
-3,-255,5.883
-2,-137,5.884
-2,-80,5.885
-2,-40,5.886
3,23,5.887
16,102,5.888
24,147,5.889
28,145,5.89
28,154,5.891
29,207,5.892
25,239,5.893
9,178,5.894
-12,69,5.895
-21,-4,5.896
-9,-62,5.897
7,-153,5.898
12,-231,5.899
4,-204,5.9
-6,-90,5.901
-12,37,5.902
-12,179,5.903
-8,327,5.904
-3,343,5.905
3,125,5.906
7,-183,5.907
9,-349,5.908
4,-345,5.909
-4,-302,5.91
-9,-240,5.911
-8,-102,5.912
-2,49,5.913
0,99,5.914
0,74,5.915
1,95,5.916
5,152,5.917
12,152,5.918
14,117,5.919
16,144,5.92
13,177,5.921
6,84,5.922
-1,-83,5.923
-5,-148,5.924
-7,-100,5.925
-13,-77,5.926
-20,-95,5.927
-21,-38,5.928
-14,81,5.929
-2,106,5.93
3,5,5.931
6,-71,5.932
13,-55,5.933
22,-37,5.934
24,-76,5.935
16,-93,5.936
3,-30,5.937
0,55,5.938
5,108,5.939
14,142,5.94
16,144,5.941
11,69,5.942
8,-40,5.943
9,-74,5.944
6,-44,5.945
0,-54,5.946
-3,-100,5.947
-4,-90,5.948
-4,-31,5.949
-4,-13,5.95
-3,-26,5.951
-3,8,5.952
-6,52,5.953
-16,15,5.954
-21,-60,5.955
-21,-48,5.956
-19,36,5.957
-15,73,5.958
-2,56,5.959
17,77,5.96
31,134,5.961
33,148,5.962
32,153,5.963
28,245,5.964
20,347,5.965
5,273,5.966
-6,18,5.967
-10,-203,5.968
-12,-280,5.969
-13,-287,5.97
-9,-253,5.971
1,-92,5.972
8,133,5.973
1,210,5.974
-7,17,5.975
-7,-251,5.976
-2,-364,5.977
-4,-344,5.978
-10,-312,5.979
-11,-236,5.98
-9,-48,5.981
-8,159,5.982
-4,266,5.983
12,309,5.984
31,355,5.985
36,324,5.986
26,129,5.987
15,-133,5.988
10,-286,5.989
12,-297,5.99
14,-245,5.991
11,-165,5.992
6,-56,5.993
-1,38,5.994
-5,45,5.995
-5,0,5.996
1,1,5.997
11,55,5.998
18,76,5.999
20,53,6.0
14,53,6.001
4,86,6.002
-4,91,6.003
-4,52,6.004
-2,26,6.005
-1,29,6.006
-4,24,6.007
-6,5,6.008
-5,13,6.009
-4,54,6.01
-4,92,6.011
-3,101,6.012
3,87,6.013
7,43,6.014
2,-10,6.015
-11,-38,6.016
-21,-32,6.017
-19,-22,6.018
-8,-28,6.019
2,-22,6.02
9,13,6.021
11,51,6.022
12,62,6.023
15,51,6.024
18,26,6.025
19,-23,6.026
17,-85,6.027
12,-117,6.028
4,-96,6.029
-6,-53,6.03
-14,-30,6.031
-14,-38,6.032
-7,-48,6.033
-9,-36,6.034
-14,22,6.035
-18,121,6.036
-15,220,6.037
-8,260,6.038
-2,184,6.039
1,15,6.04
-1,-116,6.041
-5,-55,6.042
-5,195,6.043
6,421,6.044
20,379,6.045
23,32,6.046
14,-416,6.047
9,-704,6.048
10,-717,6.049
11,-511,6.05
5,-244,6.051
6,-56,6.052
19,-7,6.053
28,-61,6.054
27,-135,6.055
26,-157,6.056
33,-99,6.057
38,25,6.058
30,149,6.059
12,206,6.06
-4,187,6.061
-12,155,6.062
-12,152,6.063
-7,156,6.064
-2,136,6.065
0,117,6.066
1,124,6.067
-1,127,6.068
-9,90,6.069
-20,38,6.07
-27,22,6.071
-24,48,6.072
-20,91,6.073
-21,142,6.074
-24,180,6.075
-25,152,6.076
-28,33,6.077
-31,-118,6.078
-25,-227,6.079
-7,-268,6.08
9,-242,6.081
8,-148,6.082
2,-26,6.083
8,58,6.084
21,88,6.085
29,112,6.086
33,143,6.087
35,129,6.088
32,46,6.089
29,-42,6.09
27,-76,6.091
26,-59,6.092
21,-30,6.093
6,-22,6.094
-2,-37,6.095
1,-54,6.096
5,-32,6.097
2,37,6.098
-1,99,6.099
2,109,6.1
6,85,6.101
2,70,6.102
-3,63,6.103
-7,66,6.104
-18,125,6.105
-28,261,6.106
-26,379,6.107
-12,353,6.108
2,181,6.109
4,-49,6.11
3,-289,6.111
3,-547,6.112
2,-756,6.113
-4,-819,6.114
-8,-684,6.115
-7,-426,6.116
-9,-166,6.117
-16,34,6.118
-15,135,6.119
0,126,6.12
21,71,6.121
36,67,6.122
39,118,6.123
32,166,6.124
19,207,6.125
13,278,6.126
17,332,6.127
21,271,6.128
15,118,6.129
6,2,6.13
4,-25,6.131
8,-31,6.132
6,-44,6.133
-6,-9,6.134
-20,89,6.135
-34,175,6.136
-47,200,6.137
-45,208,6.138
-21,210,6.139
8,153,6.14
14,35,6.141
4,-61,6.142
1,-102,6.143
11,-139,6.144
17,-204,6.145
16,-255,6.146
17,-244,6.147
24,-136,6.148
23,112,6.149
15,450,6.15
5,643,6.151
1,452,6.152
1,-15,6.153
1,-475,6.154
3,-602,6.155
0,-377,6.156
-9,-48,6.157
-11,110,6.158
-2,-1,6.159
3,-253,6.16
-8,-438,6.161
-23,-496,6.162
-21,-511,6.163
-3,-482,6.164
10,-291,6.165
12,52,6.166
10,339,6.167
10,442,6.168
12,428,6.169
14,366,6.17
18,218,6.171
19,33,6.172
19,-10,6.173
19,150,6.174
24,339,6.175
22,356,6.176
8,209,6.177
-10,41,6.178
-14,-67,6.179
-7,-123,6.18
-5,-160,6.181
-13,-200,6.182
-16,-216,6.183
-11,-142,6.184
-6,21,6.185
-3,158,6.186
2,176,6.187
12,133,6.188
19,154,6.189
22,262,6.19
23,370,6.191
21,392,6.192
16,334,6.193
1,248,6.194
-13,190,6.195
-21,118,6.196
-22,-91,6.197
-16,-450,6.198
-5,-796,6.199
2,-950,6.2
4,-923,6.201
1,-814,6.202
-2,-610,6.203
-4,-269,6.204
-6,70,6.205
-6,212,6.206
0,189,6.207
13,221,6.208
26,358,6.209
32,447,6.21
25,439,6.211
10,481,6.212
-2,607,6.213
-8,641,6.214
-16,440,6.215
-25,96,6.216
-28,-219,6.217
-22,-449,6.218
-12,-576,6.219
-8,-527,6.22
-7,-328,6.221
-1,-166,6.222
10,-147,6.223
20,-142,6.224
26,-13,6.225
31,156,6.226
39,235,6.227
42,250,6.228
36,284,6.229
26,302,6.23
20,246,6.231
20,170,6.232
18,144,6.233
11,127,6.234
0,70,6.235
-13,13,6.236
-24,11,6.237
-29,44,6.238
-25,69,6.239
-19,105,6.24
-17,151,6.241
-17,126,6.242
-15,-18,6.243
-14,-209,6.244
-8,-345,6.245
-2,-417,6.246
6,-463,6.247
9,-469,6.248
7,-388,6.249
3,-236,6.25
4,-90,6.251
14,12,6.252
30,87,6.253
41,137,6.254
40,137,6.255
14,95,6.256
-19,75,6.257
-37,114,6.258
-33,168,6.259
-25,195,6.26
-22,221,6.261
-12,252,6.262
10,236,6.263
20,141,6.264
-7,16,6.265
-46,-89,6.266
-53,-203,6.267
-26,-326,6.268
-3,-346,6.269
-9,-175,6.27
-20,61,6.271
-20,138,6.272
-8,26,6.273
-1,-120,6.274
4,-111,6.275
12,80,6.276
25,344,6.277
44,543,6.278
69,541,6.279
84,284,6.28
72,-117,6.281
49,-459,6.282
38,-611,6.283
42,-577,6.284
33,-417,6.285
13,-193,6.286
-3,19,6.287
-8,142,6.288
-11,149,6.289
-15,88,6.29
-5,37,6.291
22,39,6.292
50,84,6.293
61,153,6.294
45,238,6.295
2,313,6.296
-49,295,6.297
-78,146,6.298
-67,-35,6.299
-40,-114,6.3
-27,-95,6.301
-31,-71,6.302
-34,-42,6.303
-24,35,6.304
-5,71,6.305
6,-58,6.306
2,-255,6.307
-8,-283,6.308
-17,-116,6.309
-14,27,6.31
-7,39,6.311
-6,30,6.312
-7,51,6.313
-10,-1,6.314
-12,-163,6.315
-12,-265,6.316
-5,-180,6.317
14,-1,6.318
35,116,6.319
46,165,6.32
46,186,6.321
39,145,6.322
34,20,6.323
35,-94,6.324
39,-93,6.325
45,12,6.326
54,138,6.327
63,223,6.328
65,239,6.329
47,184,6.33
7,92,6.331
-39,22,6.332
-65,22,6.333
-69,116,6.334
-63,266,6.335
-64,348,6.336
-69,215,6.337
-67,-128,6.338
-46,-518,6.339
-18,-762,6.34
5,-785,6.341
9,-636,6.342
0,-415,6.343
-4,-191,6.344
4,1,6.345
17,126,6.346
24,145,6.347
32,90,6.348
43,80,6.349
51,177,6.35
43,297,6.351
26,326,6.352
13,273,6.353
12,207,6.354
16,155,6.355
15,103,6.356
4,68,6.357
-14,92,6.358
-23,154,6.359
-21,196,6.36
-18,210,6.361
-24,198,6.362
-27,128,6.363
-16,4,6.364
-3,-80,6.365
-2,-57,6.366
-8,-16,6.367
-6,-88,6.368
3,-241,6.369
8,-307,6.37
4,-244,6.371
5,-182,6.372
15,-210,6.373
25,-249,6.374
36,-192,6.375
41,-60,6.376
40,51,6.377
34,127,6.378
27,206,6.379
15,306,6.38
-7,440,6.381
-28,614,6.382
-31,768,6.383
-20,767,6.384
-16,523,6.385
-22,83,6.386
-23,-425,6.387
-16,-878,6.388
-11,-1193,6.389
-15,-1323,6.39
-11,-1250,6.391
9,-972,6.392
32,-560,6.393
43,-101,6.394
46,221,6.395
45,341,6.396
36,383,6.397
25,501,6.398
21,689,6.399
16,823,6.4
-4,812,6.401
-31,655,6.402
-32,388,6.403
-8,65,6.404
12,-241,6.405
5,-474,6.406
-11,-601,6.407
-15,-597,6.408
-15,-453,6.409
-21,-222,6.41
-22,-3,6.411
-3,142,6.412
21,207,6.413
24,208,6.414
14,189,6.415
7,231,6.416
13,365,6.417
13,491,6.418
8,459,6.419
5,267,6.42
1,38,6.421
-9,-143,6.422
-18,-292,6.423
-14,-410,6.424
-3,-427,6.425
2,-312,6.426
7,-150,6.427
23,-49,6.428
47,-11,6.429
63,52,6.43
53,175,6.431
14,274,6.432
-36,271,6.433
-81,174,6.434
-90,58,6.435
-69,-41,6.436
-49,-144,6.437
-46,-207,6.438
-40,-132,6.439
-15,98,6.44
14,360,6.441
19,502,6.442
8,468,6.443
2,299,6.444
8,63,6.445
16,-181,6.446
18,-399,6.447
18,-570,6.448
16,-648,6.449
10,-565,6.45
4,-321,6.451
4,-35,6.452
9,136,6.453
15,153,6.454
25,85,6.455
31,24,6.456
32,-15,6.457
35,-68,6.458
46,-157,6.459
57,-247,6.46
52,-286,6.461
36,-248,6.462
22,-128,6.463
16,66,6.464
7,301,6.465
-3,503,6.466
-9,616,6.467
-9,650,6.468
-6,638,6.469
-7,561,6.47
-3,364,6.471
7,45,6.472
18,-290,6.473
24,-566,6.474
18,-700,6.475
-2,-709,6.476
-26,-668,6.477
-39,-611,6.478
-32,-503,6.479
-18,-305,6.48
-15,-53,6.481
-23,167,6.482
-28,302,6.483
-16,367,6.484
2,396,6.485
14,412,6.486
9,414,6.487
1,408,6.488
0,406,6.489
7,394,6.49
9,332,6.491
0,207,6.492
-6,80,6.493
-2,-17,6.494
15,-98,6.495
26,-236,6.496
25,-420,6.497
17,-539,6.498
11,-511,6.499
3,-351,6.5
-8,-125,6.501
-16,102,6.502
-15,232,6.503
-16,174,6.504
-24,-30,6.505
-33,-214,6.506
-31,-254,6.507
-14,-175,6.508
6,-59,6.509
23,63,6.51
31,174,6.511
25,250,6.512
11,299,6.513
1,369,6.514
3,429,6.515
9,374,6.516
13,182,6.517
18,-18,6.518
22,-127,6.519
17,-178,6.52
5,-241,6.521
0,-295,6.522
7,-282,6.523
6,-209,6.524
-9,-125,6.525
-22,-70,6.526
-16,-56,6.527
1,-68,6.528
12,-62,6.529
12,2,6.53
8,119,6.531
6,244,6.532
6,338,6.533
1,359,6.534
0,289,6.535
0,174,6.536
-3,89,6.537
-9,34,6.538
-11,-61,6.539
-9,-193,6.54
-10,-259,6.541
-16,-193,6.542
-17,-24,6.543
-11,182,6.544
-7,341,6.545
-6,328,6.546
-1,89,6.547
8,-238,6.548
18,-449,6.549
21,-478,6.55
24,-408,6.551
30,-345,6.552
35,-350,6.553
27,-449,6.554
11,-552,6.555
-1,-503,6.556
-2,-268,6.557
6,35,6.558
21,293,6.559
29,475,6.56
24,539,6.561
13,436,6.562
9,256,6.563
13,142,6.564
13,94,6.565
4,8,6.566
-4,-102,6.567
-4,-109,6.568
-5,-7,6.569
-14,80,6.57
-23,126,6.571
-22,205,6.572
-15,303,6.573
-4,322,6.574
5,241,6.575
5,157,6.576
-3,102,6.577
-11,5,6.578
-6,-147,6.579
4,-249,6.58
1,-241,6.581
-10,-184,6.582
-7,-132,6.583
17,-60,6.584
33,40,6.585
20,118,6.586
-6,150,6.587
-21,169,6.588
-21,172,6.589
-15,111,6.59
-2,-5,6.591
14,-82,6.592
18,-49,6.593
1,69,6.594
-18,199,6.595
-20,270,6.596
-10,244,6.597
-2,139,6.598
-1,7,6.599
3,-99,6.6
12,-181,6.601
12,-262,6.602
1,-326,6.603
-9,-340,6.604
-7,-324,6.605
2,-323,6.606
9,-318,6.607
6,-242,6.608
4,-89,6.609
8,57,6.61
14,125,6.611
17,132,6.612
17,141,6.613
15,173,6.614
10,208,6.615
3,246,6.616
0,315,6.617
2,388,6.618
9,346,6.619
14,139,6.62
11,-99,6.621
1,-214,6.622
-8,-221,6.623
-12,-245,6.624
-12,-298,6.625
-12,-283,6.626
-10,-192,6.627
-2,-126,6.628
2,-119,6.629
1,-96,6.63
-2,-45,6.631
4,-44,6.632
22,-101,6.633
38,-122,6.634
42,-26,6.635
30,141,6.636
15,275,6.637
11,317,6.638
18,269,6.639
20,203,6.64
14,182,6.641
3,146,6.642
1,-45,6.643
8,-358,6.644
11,-558,6.645
1,-502,6.646
-4,-283,6.647
-2,-17,6.648
-1,264,6.649
-4,455,6.65
-5,393,6.651
2,150,6.652
13,-2,6.653
15,0,6.654
9,-17,6.655
-1,-113,6.656
-13,-99,6.657
-21,85,6.658
-23,196,6.659
-19,92,6.66
-16,-50,6.661
-15,-76,6.662
-11,-95,6.663
-5,-205,6.664
-6,-270,6.665
-11,-177,6.666
-14,-46,6.667
-10,-8,6.668
-14,-3,6.669
-23,57,6.67
-21,125,6.671
0,146,6.672
32,167,6.673
52,219,6.674
50,239,6.675
28,182,6.676
6,115,6.677
-1,106,6.678
5,106,6.679
4,64,6.68
-19,10,6.681
-51,-4,6.682
-65,2,6.683
-55,-5,6.684
-34,-22,6.685
-18,-33,6.686
-8,-54,6.687
2,-103,6.688
18,-165,6.689
25,-208,6.69
23,-202,6.691
18,-138,6.692
20,-35,6.693
24,84,6.694
26,235,6.695
20,465,6.696
13,757,6.697
9,968,6.698
12,936,6.699
21,662,6.7
29,287,6.701
23,-109,6.702
6,-562,6.703
-5,-1039,6.704
-3,-1348,6.705
-2,-1322,6.706
-8,-1021,6.707
-15,-646,6.708
-16,-341,6.709
-10,-162,6.71
-3,-126,6.711
8,-157,6.712
23,-118,6.713
38,30,6.714
48,121,6.715
44,5,6.716
32,-192,6.717
17,-211,6.718
10,-22,6.719
9,201,6.72
11,348,6.721
11,453,6.722
12,526,6.723
17,523,6.724
21,463,6.725
16,425,6.726
7,399,6.727
0,311,6.728
-5,176,6.729
-13,96,6.73
-16,121,6.731
-16,211,6.732
-17,320,6.733
-27,411,6.734
-37,387,6.735
-40,172,6.736
-40,-158,6.737
-39,-433,6.738
-29,-596,6.739
-15,-699,6.74
-5,-756,6.741
2,-716,6.742
16,-570,6.743
25,-363,6.744
14,-139,6.745
-13,53,6.746
-19,137,6.747
4,113,6.748
28,96,6.749
30,165,6.75
20,255,6.751
19,282,6.752
20,282,6.753
13,309,6.754
5,318,6.755
2,230,6.756
-1,81,6.757
-8,-14,6.758
-3,-35,6.759
9,-18,6.76
7,22,6.761
-13,95,6.762
-25,159,6.763
-18,170,6.764
-7,144,6.765
-7,106,6.766
-8,41,6.767
-1,-48,6.768
3,-108,6.769
0,-106,6.77
0,-83,6.771
6,-72,6.772
10,-51,6.773
5,-6,6.774
1,14,6.775
1,-5,6.776
-2,8,6.777
-8,96,6.778
-3,178,6.779
18,190,6.78
31,189,6.781
28,215,6.782
21,181,6.783
17,55,6.784
12,3,6.785
0,154,6.786
-4,321,6.787
0,221,6.788
6,-104,6.789
4,-371,6.79
1,-482,6.791
-1,-606,6.792
-2,-788,6.793
-1,-852,6.794
2,-633,6.795
4,-255,6.796
2,34,6.797
2,140,6.798
12,106,6.799
20,42,6.8
19,93,6.801
13,296,6.802
11,429,6.803
12,229,6.804
3,-168,6.805
-11,-357,6.806
-13,-272,6.807
0,-305,6.808
13,-642,6.809
15,-928,6.81
14,-826,6.811
17,-520,6.812
18,-330,6.813
9,-194,6.814
2,93,6.815
3,457,6.816
12,668,6.817
16,756,6.818
16,940,6.819
14,1231,6.82
5,1393,6.821
-10,1225,6.822
-21,714,6.823
-21,27,6.824
-20,-531,6.825
-23,-706,6.826
-29,-562,6.827
-28,-418,6.828
-21,-440,6.829
-15,-494,6.83
-7,-451,6.831
-2,-353,6.832
-5,-243,6.833
-16,-53,6.834
-18,183,6.835
-2,296,6.836
17,255,6.837
16,233,6.838
6,306,6.839
9,342,6.84
20,264,6.841
22,187,6.842
14,203,6.843
9,226,6.844
8,174,6.845
7,110,6.846
5,106,6.847
7,137,6.848
4,162,6.849
-4,172,6.85
-12,148,6.851
-11,78,6.852
-8,43,6.853
-13,155,6.854
-15,373,6.855
-7,485,6.856
1,357,6.857
3,105,6.858
4,-114,6.859
9,-358,6.86
9,-778,6.861
0,-1286,6.862
-3,-1547,6.863
4,-1371,6.864
13,-947,6.865
13,-546,6.866
17,-197,6.867
29,176,6.868
40,497,6.869
39,630,6.87
39,633,6.871
45,656,6.872
48,677,6.873
34,550,6.874
15,282,6.875
1,38,6.876
-5,-64,6.877
-11,-34,6.878
-13,97,6.879
-12,284,6.88
-15,423,6.881
-24,409,6.882
-29,234,6.883
-25,-70,6.884
-21,-481,6.885
-20,-921,6.886
-20,-1202,6.887
-13,-1169,6.888
-13,-853,6.889
-19,-431,6.89
-15,-43,6.891
1,254,6.892
19,425,6.893
24,446,6.894
25,343,6.895
28,226,6.896
29,198,6.897
20,245,6.898
9,283,6.899
4,271,6.9
0,245,6.901
-9,232,6.902
-13,222,6.903
-6,210,6.904
3,209,6.905
3,198,6.906
-2,135,6.907
-2,40,6.908
5,-6,6.909
11,27,6.91
12,65,6.911
10,45,6.912
7,11,6.913
1,34,6.914
-1,109,6.915
-1,164,6.916
-3,153,6.917
-9,89,6.918
-12,-38,6.919
-4,-242,6.92
5,-466,6.921
7,-610,6.922
2,-619,6.923
-1,-494,6.924
-2,-265,6.925
-1,-3,6.926
1,177,6.927
4,221,6.928
5,194,6.929
8,187,6.93
15,202,6.931
17,198,6.932
15,185,6.933
5,186,6.934
0,188,6.935
-1,156,6.936
-6,99,6.937
-12,32,6.938
-10,-78,6.939
-5,-233,6.94
-7,-345,6.941
-12,-329,6.942
-8,-223,6.943
1,-129,6.944
9,-90,6.945
12,-93,6.946
14,-139,6.947
15,-221,6.948
3,-266,6.949
-10,-199,6.95
-16,-57,6.951
-9,65,6.952
1,140,6.953
12,218,6.954
21,315,6.955
24,374,6.956
21,365,6.957
17,337,6.958
18,317,6.959
25,269,6.96
25,172,6.961
14,75,6.962
0,31,6.963
-9,9,6.964
-16,-44,6.965
-17,-121,6.966
-14,-163,6.967
-11,-160,6.968
-10,-184,6.969
-9,-272,6.97
-7,-309,6.971
-5,-137,6.972
-6,181,6.973
-4,431,6.974
5,430,6.975
16,260,6.976
20,91,6.977
15,-72,6.978
8,-301,6.979
3,-508,6.98
-1,-554,6.981
-6,-507,6.982
-10,-536,6.983
-12,-614,6.984
-11,-544,6.985
-8,-270,6.986
0,48,6.987
11,282,6.988
21,452,6.989
27,602,6.99
26,715,6.991
21,761,6.992
14,737,6.993
7,602,6.994
0,348,6.995
-9,48,6.996
-18,-197,6.997
-22,-349,6.998
-16,-435,6.999
-8,-459,7.0
-2,-414,7.001
2,-356,7.002
7,-341,7.003
5,-343,7.004
-3,-291,7.005
-12,-173,7.006
-7,-33,7.007
12,105,7.008
31,234,7.009
43,322,7.01
49,333,7.011
48,286,7.012
42,237,7.013
32,196,7.014
26,163,7.015
13,129,7.016
-15,89,7.017
-46,40,7.018
-58,-21,7.019
-43,-71,7.02
-18,-80,7.021
-6,-58,7.022
-9,-38,7.023
-21,-36,7.024
-29,-37,7.025
-25,-26,7.026
-3,1,7.027
28,41,7.028
51,99,7.029
56,171,7.03
48,243,7.031
38,298,7.032
27,326,7.033
3,301,7.034
-33,181,7.035
-71,-54,7.036
-90,-341,7.037
-83,-539,7.038
-59,-555,7.039
-36,-427,7.04
-17,-257,7.041
8,-97,7.042
37,55,7.043
55,164,7.044
51,159,7.045
43,42,7.046
48,-79,7.047
57,-96,7.048
43,0,7.049
9,151,7.05
-24,281,7.051
-40,334,7.052
-47,290,7.053
-47,141,7.054
-32,-71,7.055
-9,-288,7.056
1,-448,7.057
-5,-496,7.058
-5,-442,7.059
6,-330,7.06
11,-202,7.061
0,-73,7.062
-5,42,7.063
11,122,7.064
30,154,7.065
38,128,7.066
37,49,7.067
39,-30,7.068
41,-41,7.069
37,18,7.07
30,82,7.071
24,106,7.072
18,96,7.073
6,51,7.074
-1,0,7.075
-4,20,7.076
-10,150,7.077
-14,286,7.078
-9,300,7.079
0,215,7.08
4,132,7.081
3,42,7.082
7,-98,7.083
12,-206,7.084
6,-176,7.085
-6,-78,7.086
-13,-56,7.087
-10,-87,7.088
-7,-23,7.089
-11,158,7.09
-10,325,7.091
-6,391,7.092
-2,383,7.093
-7,319,7.094
-11,198,7.095
-9,39,7.096
-3,-146,7.097
3,-368,7.098
8,-585,7.099
8,-662,7.1
6,-509,7.101
0,-205,7.102
-2,77,7.103
-2,234,7.104
1,241,7.105
5,117,7.106
12,-55,7.107
17,-151,7.108
18,-137,7.109
14,-82,7.11
7,-38,7.111
1,22,7.112
-4,93,7.113
-10,120,7.114
-12,85,7.115
-12,62,7.116
-11,107,7.117
-6,170,7.118
10,181,7.119
27,154,7.12
27,161,7.121
10,225,7.122
-9,304,7.123
-16,332,7.124
-15,273,7.125
-15,132,7.126
-15,-57,7.127
-8,-266,7.128
0,-468,7.129
4,-624,7.13
3,-677,7.131
4,-598,7.132
12,-431,7.133
17,-219,7.134
13,-17,7.135
3,139,7.136
0,227,7.137
5,242,7.138
12,201,7.139
13,153,7.14
9,141,7.141
3,185,7.142
-1,276,7.143
-6,364,7.144
-15,382,7.145
-21,308,7.146
-14,192,7.147
0,82,7.148
11,-48,7.149
13,-230,7.15
14,-403,7.151
19,-463,7.152
22,-403,7.153
13,-306,7.154
1,-252,7.155
-2,-243,7.156
2,-231,7.157
10,-188,7.158
18,-136,7.159
28,-96,7.16
28,-54,7.161
17,25,7.162
7,154,7.163
10,291,7.164
18,369,7.165
18,355,7.166
4,284,7.167
-6,207,7.168
-8,144,7.169
-6,70,7.17
-9,-10,7.171
-15,-48,7.172
-15,-8,7.173
-15,88,7.174
-18,186,7.175
-23,256,7.176
-24,300,7.177
-20,307,7.178
-10,229,7.179
1,51,7.18
8,-159,7.181
7,-308,7.182
1,-351,7.183
-2,-309,7.184
-3,-234,7.185
-3,-164,7.186
-3,-120,7.187
1,-90,7.188
11,-53,7.189
19,-9,7.19
21,14,7.191
21,12,7.192
22,10,7.193
20,11,7.194
14,-8,7.195
4,-53,7.196
-3,-97,7.197
-3,-115,7.198
-2,-129,7.199
-8,-132,7.2
-15,-88,7.201
-17,2,7.202
-6,83,7.203
8,119,7.204
18,142,7.205
18,165,7.206
15,172,7.207
12,170,7.208
10,199,7.209
8,230,7.21
6,178,7.211
3,24,7.212
2,-124,7.213
0,-203,7.214
-3,-212,7.215
-11,-185,7.216
-17,-118,7.217
-17,-12,7.218
-7,74,7.219
8,107,7.22
17,135,7.221
15,208,7.222
11,280,7.223
8,262,7.224
7,123,7.225
3,-94,7.226
2,-309,7.227
6,-421,7.228
11,-370,7.229
11,-211,7.23
6,-50,7.231
-1,52,7.232
-6,86,7.233
-13,48,7.234
-14,-77,7.235
-15,-207,7.236
-17,-215,7.237
-16,-90,7.238
-9,46,7.239
1,114,7.24
3,149,7.241
-2,194,7.242
-5,211,7.243
-2,177,7.244
3,126,7.245
7,82,7.246
11,21,7.247
18,-60,7.248
22,-118,7.249
21,-138,7.25
17,-147,7.251
10,-137,7.252
1,-76,7.253
-11,40,7.254
-16,80,7.255
-13,21,7.256
-1,-60,7.257
12,-90,7.258
21,-77,7.259
24,-53,7.26
18,-18,7.261
9,26,7.262
6,66,7.263
14,93,7.264
21,111,7.265
18,113,7.266
11,88,7.267
6,48,7.268
9,19,7.269
11,9,7.27
9,16,7.271
11,52,7.272
14,115,7.273
7,164,7.274
-9,149,7.275
-31,68,7.276
-47,-28,7.277
-50,-92,7.278
-44,-116,7.279
-39,-106,7.28
-38,-69,7.281
-27,-17,7.282
-2,27,7.283
23,53,7.284
25,62,7.285
11,51,7.286
9,9,7.287
24,-66,7.288
36,-140,7.289
33,-148,7.29
29,-49,7.291
31,125,7.292
31,285,7.293
15,365,7.294
1,325,7.295
-5,159,7.296
-7,-106,7.297
-6,-391,7.298
4,-595,7.299
21,-663,7.3
25,-615,7.301
12,-479,7.302
0,-256,7.303
2,8,7.304
6,202,7.305
-3,272,7.306
-16,284,7.307
-22,321,7.308
-21,352,7.309
-17,322,7.31
-9,255,7.311
-1,204,7.312
1,160,7.313
-3,82,7.314
-2,0,7.315
2,-40,7.316
2,-50,7.317
-2,-70,7.318
-2,-100,7.319
5,-122,7.32
5,-132,7.321
-5,-119,7.322
-14,-64,7.323
-17,-6,7.324
-15,-3,7.325
-4,-33,7.326
17,-22,7.327
34,34,7.328
31,57,7.329
15,33,7.33
10,27,7.331
21,51,7.332
31,37,7.333
24,-49,7.334
8,-118,7.335
-4,-112,7.336
-7,-93,7.337
-7,-131,7.338
-6,-184,7.339
-7,-168,7.34
-5,-94,7.341
0,-32,7.342
8,8,7.343
9,77,7.344
0,167,7.345
-3,222,7.346
4,228,7.347
12,225,7.348
9,230,7.349
0,222,7.35
-2,202,7.351
0,185,7.352
2,152,7.353
-3,76,7.354
-10,-3,7.355
-17,-33,7.356
-20,-52,7.357
-14,-115,7.358
-1,-184,7.359
9,-186,7.36
10,-138,7.361
11,-123,7.362
15,-152,7.363
16,-169,7.364
9,-180,7.365
0,-228,7.366
-1,-266,7.367
2,-201,7.368
0,-40,7.369
-2,112,7.37
3,190,7.371
9,202,7.372
12,160,7.373
9,63,7.374
8,-28,7.375
6,-53,7.376
0,-37,7.377
-1,-34,7.378
6,-38,7.379
14,-17,7.38
8,16,7.381
-3,39,7.382
-3,67,7.383
8,109,7.384
16,140,7.385
16,149,7.386
15,160,7.387
15,177,7.388
10,174,7.389
0,168,7.39
-6,199,7.391
-9,233,7.392
-14,205,7.393
-22,105,7.394
-25,24,7.395
-24,-14,7.396
-22,-80,7.397
-21,-205,7.398
-17,-319,7.399
-9,-355,7.4
-13,-340,7.401
-18,-331,7.402
-14,-341,7.403
0,-355,7.404
13,-346,7.405
16,-256,7.406
18,-41,7.407
23,231,7.408
24,396,7.409
20,364,7.41
17,205,7.411
16,63,7.412
18,8,7.413
18,10,7.414
21,17,7.415
20,-16,7.416
17,-104,7.417
16,-195,7.418
19,-209,7.419
17,-110,7.42
4,55,7.421
-4,204,7.422
1,295,7.423
11,332,7.424
10,337,7.425
3,309,7.426
3,244,7.427
6,144,7.428
1,24,7.429
-9,-112,7.43
-17,-262,7.431
-22,-386,7.432
-24,-416,7.433
-22,-323,7.434
-9,-165,7.435
5,-37,7.436
7,12,7.437
2,3,7.438
6,-49,7.439
17,-118,7.44
20,-144,7.441
10,-79,7.442
2,41,7.443
4,133,7.444
9,158,7.445
3,141,7.446
-4,129,7.447
-8,144,7.448
-10,183,7.449
-9,225,7.45
-4,240,7.451
3,214,7.452
12,150,7.453
15,50,7.454
16,-46,7.455
12,-101,7.456
4,-115,7.457
0,-110,7.458
1,-95,7.459
6,-58,7.46
1,-13,7.461
-6,-9,7.462
-10,-62,7.463
-5,-122,7.464
-1,-129,7.465
-1,-75,7.466
2,6,7.467
5,76,7.468
4,108,7.469
0,84,7.47
-2,18,7.471
-1,-47,7.472
1,-94,7.473
2,-131,7.474
2,-145,7.475
-2,-108,7.476
-9,-30,7.477
-13,36,7.478
-6,54,7.479
6,57,7.48
10,88,7.481
6,125,7.482
5,110,7.483
11,42,7.484
11,-16,7.485
5,-33,7.486
2,-48,7.487
8,-92,7.488
12,-128,7.489
7,-114,7.49
1,-70,7.491
3,-48,7.492
10,-42,7.493
10,-9,7.494
5,66,7.495
-1,150,7.496
-3,199,7.497
-2,189,7.498
5,114,7.499
12,20,7.5
13,-19,7.501
10,9,7.502
6,43,7.503
2,37,7.504
-3,-3,7.505
-6,-67,7.506
-3,-152,7.507
2,-223,7.508
3,-247,7.509
-2,-235,7.51
-7,-202,7.511
-8,-132,7.512
-8,-35,7.513
-9,52,7.514
-8,105,7.515
-10,150,7.516
-8,177,7.517
1,131,7.518
19,24,7.519
32,-40,7.52
26,2,7.521
12,112,7.522
4,233,7.523
9,337,7.524
13,369,7.525
7,282,7.526
-1,123,7.527
-4,-23,7.528
-5,-152,7.529
-7,-303,7.53
-11,-437,7.531
-11,-460,7.532
-9,-375,7.533
-7,-257,7.534
-3,-132,7.535
-2,50,7.536
-3,293,7.537
-5,502,7.538
-1,577,7.539
10,526,7.54
20,404,7.541
22,217,7.542
20,-60,7.543
21,-379,7.544
24,-623,7.545
21,-712,7.546
10,-671,7.547
-4,-559,7.548
-12,-396,7.549
-13,-201,7.55
-9,-23,7.551
-1,91,7.552
7,154,7.553
9,198,7.554
9,230,7.555
11,245,7.556
18,250,7.557
28,245,7.558
31,214,7.559
23,167,7.56
8,145,7.561
-4,165,7.562
-6,191,7.563
-3,200,7.564
-3,205,7.565
-8,232,7.566
-11,280,7.567
-9,317,7.568
-10,275,7.569
-15,115,7.57
-17,-110,7.571
-13,-288,7.572
-10,-365,7.573
-12,-373,7.574
-12,-330,7.575
-12,-232,7.576
-12,-130,7.577
-9,-99,7.578
-3,-143,7.579
1,-172,7.58
-4,-135,7.581
-10,-72,7.582
-5,-35,7.583
9,-16,7.584
15,-11,7.585
12,-20,7.586
13,3,7.587
19,116,7.588
18,276,7.589
9,349,7.59
6,257,7.591
14,56,7.592
19,-134,7.593
16,-281,7.594
8,-340,7.595
2,-277,7.596
-4,-106,7.597
-11,72,7.598
-13,148,7.599
-10,133,7.6
-8,139,7.601
-11,201,7.602
-6,212,7.603
6,82,7.604
15,-123,7.605
12,-260,7.606
7,-296,7.607
13,-281,7.608
22,-229,7.609
21,-112,7.61
12,25,7.611
4,99,7.612
3,110,7.613
-1,127,7.614
-5,164,7.615
-5,162,7.616
6,114,7.617
21,85,7.618
27,88,7.619
21,66,7.62
6,14,7.621
-8,-14,7.622
-15,-9,7.623
-13,-12,7.624
-12,-25,7.625
-15,-17,7.626
-15,0,7.627
-5,-4,7.628
11,-3,7.629
20,43,7.63
20,100,7.631
20,107,7.632
22,83,7.633
18,80,7.634
5,105,7.635
-11,117,7.636
-16,98,7.637
-10,74,7.638
-4,45,7.639
-4,-13,7.64
-11,-93,7.641
-16,-170,7.642
-14,-227,7.643
-7,-248,7.644
-4,-211,7.645
-6,-129,7.646
-7,-59,7.647
0,-41,7.648
11,-52,7.649
16,-53,7.65
18,-40,7.651
18,-34,7.652
19,-23,7.653
16,13,7.654
9,86,7.655
2,174,7.656
-2,260,7.657
-3,354,7.658
0,426,7.659
5,400,7.66
5,234,7.661
0,-11,7.662
-4,-228,7.663
-5,-365,7.664
-6,-433,7.665
-9,-438,7.666
-11,-368,7.667
-7,-249,7.668
-2,-145,7.669
-2,-86,7.67
-2,-64,7.671
2,-58,7.672
14,-57,7.673
24,-40,7.674
33,13,7.675
38,86,7.676
37,142,7.677
29,168,7.678
13,166,7.679
-2,141,7.68
-14,111,7.681
-23,105,7.682
-28,128,7.683
-29,157,7.684
-31,168,7.685
-26,161,7.686
-9,140,7.687
18,108,7.688
34,59,7.689
35,-8,7.69
38,-95,7.691
51,-173,7.692
51,-204,7.693
12,-178,7.694
-35,-122,7.695
-51,-70,7.696
-32,-34,7.697
-10,-8,7.698
1,2,7.699
15,4,7.7
25,9,7.701
0,14,7.702
-50,9,7.703
-76,0,7.704
-43,4,7.705
8,23,7.706
31,43,7.707
21,65,7.708
4,90,7.709
-2,104,7.71
3,95,7.711
14,73,7.712
24,55,7.713
24,26,7.714
12,-25,7.715
-1,-83,7.716
-4,-121,7.717
0,-129,7.718
8,-132,7.719
15,-129,7.72
22,-108,7.721
24,-66,7.722
16,-13,7.723
2,46,7.724
-8,96,7.725
-12,111,7.726
-11,96,7.727
-8,99,7.728
-3,147,7.729
3,185,7.73
9,138,7.731
13,3,7.732
13,-135,7.733
11,-240,7.734
4,-288,7.735
-10,-275,7.736
-24,-200,7.737
-26,-90,7.738
-8,0,7.739
19,49,7.74
38,95,7.741
42,166,7.742
38,242,7.743
31,274,7.744
22,230,7.745
12,133,7.746
7,21,7.747
7,-76,7.748
7,-156,7.749
5,-205,7.75
2,-190,7.751
-2,-112,7.752
-9,-28,7.753
-20,13,7.754
-27,4,7.755
-28,-38,7.756
-23,-102,7.757
-16,-152,7.758
-6,-145,7.759
-1,-78,7.76
0,-7,7.761
0,13,7.762
1,-23,7.763
4,-81,7.764
7,-105,7.765
10,-63,7.766
16,32,7.767
20,127,7.768
17,177,7.769
6,184,7.77
0,157,7.771
0,105,7.772
1,56,7.773
-4,33,7.774
-7,51,7.775
-7,93,7.776
-8,146,7.777
-11,199,7.778
-11,209,7.779
-11,144,7.78
-15,45,7.781
-16,-15,7.782
-7,-24,7.783
8,-24,7.784
13,-36,7.785
10,-65,7.786
8,-126,7.787
10,-209,7.788
5,-234,7.789
-1,-153,7.79
5,-22,7.791
16,67,7.792
19,105,7.793
14,123,7.794
12,110,7.795
17,38,7.796
18,-69,7.797
14,-150,7.798
12,-202,7.799
13,-254,7.8
6,-281,7.801
-5,-236,7.802
-7,-132,7.803
-1,-25,7.804
0,69,7.805
-7,159,7.806
-8,216,7.807
3,196,7.808
17,128,7.809
26,92,7.81
33,111,7.811
42,113,7.812
43,43,7.813
22,-83,7.814
-10,-163,7.815
-35,-161,7.816
-49,-121,7.817
-59,-78,7.818
-62,-32,7.819
-50,11,7.82
-30,14,7.821
-20,-19,7.822
-17,-27,7.823
-11,15,7.824
2,56,7.825
16,61,7.826
29,64,7.827
40,102,7.828
43,132,7.829
32,98,7.83
14,30,7.831
3,-4,7.832
2,12,7.833
0,40,7.834
-3,65,7.835
-4,97,7.836
-4,138,7.837
-7,182,7.838
-5,234,7.839
5,303,7.84
11,352,7.841
4,309,7.842
-2,132,7.843
2,-141,7.844
12,-417,7.845
8,-606,7.846
-2,-664,7.847
-6,-601,7.848
-6,-463,7.849
-9,-302,7.85
-11,-146,7.851
-4,-1,7.852
12,108,7.853
28,165,7.854
39,168,7.855
35,151,7.856
22,140,7.857
12,139,7.858
13,143,7.859
20,158,7.86
17,173,7.861
7,155,7.862
-2,101,7.863
-3,53,7.864
-1,59,7.865
0,136,7.866
2,268,7.867
2,387,7.868
-4,400,7.869
-10,243,7.87
-9,-41,7.871
-4,-337,7.872
-4,-542,7.873
-13,-632,7.874
-19,-588,7.875
-24,-429,7.876
-26,-255,7.877
-23,-156,7.878
-11,-130,7.879
4,-99,7.88
10,-34,7.881
8,23,7.882
14,62,7.883
27,116,7.884
29,174,7.885
19,173,7.886
9,115,7.887
8,96,7.888
9,158,7.889
5,225,7.89
4,238,7.891
12,235,7.892
20,259,7.893
24,269,7.894
25,199,7.895
22,60,7.896
10,-71,7.897
-4,-140,7.898
-9,-133,7.899
-9,-41,7.9
-13,131,7.901
-18,303,7.902
-16,339,7.903
-6,160,7.904
-2,-166,7.905
-5,-457,7.906
-7,-579,7.907
-4,-540,7.908
-2,-419,7.909
-5,-236,7.91
-10,20,7.911
-14,274,7.912
-18,372,7.913
-22,256,7.914
-21,38,7.915
-11,-122,7.916
3,-175,7.917
21,-154,7.918
37,-88,7.919
38,6,7.92
24,77,7.921
13,75,7.922
15,20,7.923
22,-34,7.924
19,-64,7.925
7,-71,7.926
5,-46,7.927
14,8,7.928
17,61,7.929
9,86,7.93
1,90,7.931
-2,79,7.932
-7,47,7.933
-19,0,7.934
-22,-3,7.935
-13,58,7.936
-2,133,7.937
1,178,7.938
3,217,7.939
5,294,7.94
1,377,7.941
-6,371,7.942
-10,230,7.943
-3,-19,7.944
3,-303,7.945
4,-539,7.946
2,-635,7.947
2,-553,7.948
0,-359,7.949
-3,-183,7.95
-2,-88,7.951
4,-45,7.952
9,-21,7.953
11,-17,7.954
8,-21,7.955
3,4,7.956
-1,74,7.957
1,155,7.958
14,208,7.959
27,246,7.96
27,289,7.961
12,329,7.962
0,333,7.963
-1,277,7.964
3,153,7.965
7,-11,7.966
19,-146,7.967
39,-194,7.968
43,-177,7.969
22,-168,7.97
-4,-181,7.971
-12,-143,7.972
-4,-8,7.973
-7,242,7.974
-29,413,7.975
-48,395,7.976
-41,141,7.977
-17,-250,7.978
10,-573,7.979
25,-673,7.98
20,-548,7.981
-3,-305,7.982
-23,-62,7.983
-18,85,7.984
10,102,7.985
31,70,7.986
24,110,7.987
1,225,7.988
-11,295,7.989
-12,259,7.99
-14,167,7.991
-18,54,7.992
-12,-65,7.993
0,-152,7.994
-1,-108,7.995
-23,41,7.996
-44,150,7.997
-43,146,7.998
-29,84,7.999
-23,31,8.0
-23,-7,8.001
-12,-22,8.002
6,1,8.003
17,23,8.004
18,7,8.005
22,12,8.006
30,102,8.007
36,207,8.008
32,182,8.009
28,8,8.01
28,-177,8.011
29,-265,8.012
28,-277,8.013
26,-276,8.014
24,-248,8.015
20,-163,8.016
16,-63,8.017
16,-18,8.018
18,-25,8.019
17,-15,8.02
8,40,8.021
2,98,8.022
8,115,8.023
16,114,8.024
15,125,8.025
7,132,8.026
0,106,8.027
3,63,8.028
4,32,8.029
1,20,8.03
-2,8,8.031
-4,-2,8.032
-7,-4,8.033
-17,-5,8.034
-26,-14,8.035
-33,-21,8.036
-31,-10,8.037
-21,29,8.038
-7,96,8.039
7,186,8.04
13,259,8.041
10,254,8.042
4,158,8.043
1,32,8.044
3,-76,8.045
2,-203,8.046
-2,-373,8.047
-4,-497,8.048
0,-472,8.049
5,-335,8.05
7,-207,8.051
3,-110,8.052
0,5,8.053
0,135,8.054
3,215,8.055
1,255,8.056
-2,317,8.057
0,361,8.058
12,274,8.059
24,88,8.06
26,-28,8.061
20,-11,8.062
17,59,8.063
19,129,8.064
18,212,8.065
4,244,8.066
-9,118,8.067
-15,-113,8.068
-14,-275,8.069
-14,-316,8.07
-10,-353,8.071
-1,-437,8.072
8,-466,8.073
5,-389,8.074
-11,-280,8.075
-28,-208,8.076
-28,-109,8.077
-8,69,8.078
19,235,8.079
36,273,8.08
37,210,8.081
28,156,8.082
22,157,8.083
20,198,8.084
19,284,8.085
14,374,8.086
9,360,8.087
2,186,8.088
-7,-38,8.089
-14,-165,8.09
-16,-168,8.091
-9,-117,8.092
-2,-59,8.093
-4,-28,8.094
-7,-67,8.095
-8,-166,8.096
-7,-230,8.097
-8,-195,8.098
-11,-124,8.099
-12,-74,8.1
-14,-14,8.101
-13,81,8.102
-10,151,8.103
-4,161,8.104
0,192,8.105
6,315,8.106
16,434,8.107
16,387,8.108
5,172,8.109
-9,-44,8.11
-8,-131,8.111
4,-133,8.112
14,-172,8.113
11,-288,8.114
0,-384,8.115
-10,-354,8.116
-15,-190,8.117
-12,28,8.118
-2,174,8.119
3,152,8.12
4,-37,8.121
8,-263,8.122
22,-364,8.123
37,-279,8.124
38,-91,8.125
27,79,8.126
15,157,8.127
2,148,8.128
-10,134,8.129
-14,209,8.13
-4,359,8.131
14,439,8.132
22,345,8.133
16,98,8.134
8,-140,8.135
1,-265,8.136
-2,-275,8.137
-5,-188,8.138
-2,-34,8.139
11,95,8.14
20,110,8.141
11,42,8.142
-14,1,8.143
-36,-10,8.144
-37,-85,8.145
-24,-205,8.146
-12,-227,8.147
-9,-113,8.148
-11,-6,8.149
-14,6,8.15
-16,27,8.151
-13,139,8.152
-4,255,8.153
9,293,8.154
19,294,8.155
23,302,8.156
26,223,8.157
31,0,8.158
41,-235,8.159
50,-328,8.16
45,-324,8.161
22,-357,8.162
-4,-397,8.163
-12,-312,8.164
-7,-122,8.165
-7,19,8.166
-21,63,8.167
-31,106,8.168
-22,198,8.169
0,260,8.17
22,233,8.171
31,148,8.172
32,62,8.173
24,-14,8.174
13,-32,8.175
3,42,8.176
3,126,8.177
13,99,8.178
19,-41,8.179
7,-151,8.18
-16,-137,8.181
-33,-52,8.182
-30,13,8.183
-21,36,8.184
-22,22,8.185
-34,-35,8.186
-36,-107,8.187
-20,-130,8.188
-2,-86,8.189
3,-28,8.19
1,0,8.191
0,16,8.192
0,50,8.193
0,101,8.194
9,182,8.195
21,312,8.196
27,444,8.197
22,449,8.198
21,244,8.199
27,-85,8.2
27,-370,8.201
15,-515,8.202
4,-530,8.203
-1,-431,8.204
-14,-245,8.205
-31,-54,8.206
-32,49,8.207
-10,83,8.208
18,151,8.209
37,285,8.21
45,387,8.211
45,366,8.212
36,247,8.213
14,98,8.214
-1,-27,8.215
-13,-140,8.216
-13,-210,8.217
-12,-231,8.218
-5,-100,8.219
-1,-4,8.22
-5,-18,8.221
-10,-67,8.222
-17,-219,8.223
-22,-318,8.224
-16,-256,8.225
-11,-177,8.226
-6,-47,8.227
2,73,8.228
18,168,8.229
28,224,8.23
17,161,8.231
8,113,8.232
6,110,8.233
5,96,8.234
6,42,8.235
12,23,8.236
24,40,8.237
36,73,8.238
37,140,8.239
24,239,8.24
-1,284,8.241
-28,215,8.242
-45,65,8.243
-46,-116,8.244
-36,-299,8.245
-21,-406,8.246
0,-364,8.247
26,-259,8.248
38,-234,8.249
28,-251,8.25
7,-158,8.251
-8,31,8.252
-14,144,8.253
-10,141,8.254
-2,134,8.255
0,160,8.256
-12,137,8.257
-27,76,8.258
-22,73,8.259
0,122,8.26
12,126,8.261
4,87,8.262
-4,87,8.263
0,104,8.264
5,60,8.265
3,0,8.266
1,39,8.267
6,142,8.268
7,177,8.269
-3,97,8.27
-9,-26,8.271
-2,-135,8.272
11,-210,8.273
12,-246,8.274
7,-230,8.275
2,-199,8.276
0,-179,8.277
2,-127,8.278
13,-15,8.279
23,110,8.28
25,171,8.281
18,141,8.282
12,60,8.283
9,0,8.284
2,14,8.285
-6,74,8.286
-8,93,8.287
-5,51,8.288
-10,15,8.289
-20,13,8.29
-21,-19,8.291
-8,-113,8.292
12,-179,8.293
23,-128,8.294
25,21,8.295
19,171,8.296
12,244,8.297
10,187,8.298
12,-35,8.299
15,-319,8.3
16,-448,8.301
15,-328,8.302
21,-108,8.303
28,25,8.304
22,53,8.305
8,61,8.306
-3,77,8.307
-5,106,8.308
-7,187,8.309
-11,301,8.31
-14,302,8.311
-7,95,8.312
5,-177,8.313
11,-340,8.314
6,-314,8.315
-2,-190,8.316
-8,-43,8.317
-10,122,8.318
-9,246,8.319
-10,223,8.32
-14,66,8.321
-18,-76,8.322
-20,-112,8.323
-15,-96,8.324
-2,-78,8.325
12,-28,8.326
18,62,8.327
18,119,8.328
24,115,8.329
37,108,8.33
43,126,8.331
31,101,8.332
12,17,8.333
-10,-70,8.334
-29,-80,8.335
-46,-14,8.336
-55,106,8.337
-55,250,8.338
-29,297,8.339
-6,127,8.34
8,-174,8.341
21,-377,8.342
29,-392,8.343
30,-327,8.344
12,-252,8.345
-3,-128,8.346
-9,11,8.347
-8,55,8.348
17,25,8.349
37,80,8.35
38,229,8.351
41,281,8.352
50,159,8.353
61,-10,8.354
61,-67,8.355
36,-43,8.356
-6,-43,8.357
-44,-34,8.358
-57,53,8.359
-47,156,8.36
-39,143,8.361
-45,9,8.362
-54,-105,8.363
-50,-120,8.364
-36,-84,8.365
-26,-60,8.366
-21,-22,8.367
-16,79,8.368
-6,227,8.369
4,333,8.37
15,299,8.371
24,86,8.372
34,-195,8.373
35,-418,8.374
30,-467,8.375
24,-368,8.376
24,-215,8.377
28,-67,8.378
27,34,8.379
24,77,8.38
19,113,8.381
18,185,8.382
20,228,8.383
22,163,8.384
18,56,8.385
16,44,8.386
19,119,8.387
28,157,8.388
29,139,8.389
16,154,8.39
-2,194,8.391
-14,133,8.392
-20,-34,8.393
-24,-196,8.394
-23,-266,8.395
-17,-327,8.396
-12,-441,8.397
-16,-481,8.398
-17,-329,8.399
-5,-78,8.4
11,108,8.401
18,207,8.402
16,265,8.403
18,252,8.404
20,153,8.405
17,57,8.406
7,25,8.407
2,-26,8.408
2,-133,8.409
2,-167,8.41
1,-43,8.411
-2,110,8.412
-9,156,8.413
-18,128,8.414
-16,123,8.415
-6,128,8.416
2,96,8.417
4,69,8.418
6,61,8.419
8,2,8.42
11,-121,8.421
18,-200,8.422
27,-166,8.423
26,-89,8.424
10,-51,8.425
-5,-27,8.426
-1,20,8.427
12,67,8.428
16,85,8.429
11,91,8.43
5,89,8.431
-2,63,8.432
-13,29,8.433
-19,5,8.434
-15,-13,8.435
-15,-54,8.436
-29,-94,8.437
-40,-90,8.438
-28,-67,8.439
-5,-58,8.44
0,-28,8.441
-9,73,8.442
-11,191,8.443
0,231,8.444
16,178,8.445
25,85,8.446
26,-14,8.447
23,-102,8.448
12,-148,8.449
-3,-158,8.45
-18,-187,8.451
-22,-230,8.452
-18,-194,8.453
-6,420,8.454
3,287,8.455
2,182,8.456
2,160,8.457
15,117,8.458
35,19,8.459
47,-51,8.46
40,-43,8.461
26,-62,8.462
15,-170,8.463
6,-218,8.464
0,-85,8.465
-3,47,8.466
-4,179,8.467
-9,270,8.468
-15,230,8.469
-5,120,8.47
22,-201,8.471
44,-435,8.472
44,-384,8.473
24,161,8.474
9,114,8.475
6,77,8.476
12,69,8.477
16,54,8.478
18,19,8.479
10,-6,8.48
-8,-3,8.481
-28,-10,8.482
-28,-48,8.483
-11,-65,8.484
7,-18,8.485
12,29,8.486
1,76,8.487
-17,108,8.488
-34,94,8.489
-38,55,8.49
-22,-59,8.491
-5,-142,8.492
0,-124,8.493
-10,-70,8.494
-17,97,8.495
-15,188,8.496
-10,116,8.497
-7,-66,8.498
1,-222,8.499
15,-266,8.5
16,-213,8.501
6,-133,8.502
0,-55,8.503
7,7,8.504
13,49,8.505
10,83,8.506
8,125,8.507
11,144,8.508
12,93,8.509
11,7,8.51
21,-4,8.511
39,93,8.512
45,199,8.513
25,203,8.514
-2,90,8.515
-20,-68,8.516
-33,-174,8.517
-43,-175,8.518
-42,-109,8.519
-26,-64,8.52
-11,-59,8.521
-7,-38,8.522
-10,33,8.523
-8,151,8.524
-7,298,8.525
-9,391,8.526
-6,252,8.527
2,-143,8.528
6,-512,8.529
7,-560,8.53
17,-359,8.531
31,-163,8.532
37,-43,8.533
28,107,8.534
14,248,8.535
3,246,8.536
3,128,8.537
13,82,8.538
25,191,8.539
31,380,8.54
25,522,8.541
20,448,8.542
20,41,8.543
17,-536,8.544
-9,-887,8.545
-38,-810,8.546
-39,-484,8.547
-12,-174,8.548
14,39,8.549
18,147,8.55
10,113,8.551
4,19,8.552
-1,34,8.553
-7,165,8.554
-8,225,8.555
-4,131,8.556
-1,38,8.557
1,59,8.558
8,103,8.559
17,83,8.56
14,68,8.561
2,98,8.562
-4,104,8.563
-3,60,8.564
-3,38,8.565
-7,63,8.566
-8,75,8.567
-4,83,8.568
-1,151,8.569
2,216,8.57
7,127,8.571
14,-92,8.572
19,-216,8.573
19,-104,8.574
16,115,8.575
8,191,8.576
-4,20,8.577
-12,-266,8.578
-8,-476,8.579
1,-486,8.58
-3,-296,8.581
-18,-24,8.582
-28,151,8.583
-24,147,8.584
-17,48,8.585
-9,-1,8.586
4,36,8.587
20,89,8.588
22,112,8.589
14,120,8.59
10,102,8.591
13,37,8.592
10,-25,8.593
-2,-33,8.594
-7,-17,8.595
-1,-63,8.596
3,-143,8.597
-1,-162,8.598
-3,-139,8.599
2,-131,8.6
8,-93,8.601
5,37,8.602
5,139,8.603
13,72,8.604
18,-81,8.605
12,-126,8.606
4,-49,8.607
4,22,8.608
3,51,8.609
-11,100,8.61
-30,174,8.611
-30,222,8.612
-9,229,8.613
10,180,8.614
5,67,8.615
-13,-66,8.616
-19,-123,8.617
-9,-95,8.618
4,-72,8.619
8,-77,8.62
7,-54,8.621
8,-4,8.622
15,1,8.623
22,-20,8.624
26,20,8.625
27,100,8.626
28,111,8.627
30,70,8.628
27,143,8.629
21,375,8.63
14,553,8.631
9,431,8.632
5,59,8.633
-2,-337,8.634
-11,-496,8.635
-16,-433,8.636
-17,-361,8.637
-14,-368,8.638
-1,-337,8.639
24,-198,8.64
49,-68,8.641
52,-48,8.642
36,-49,8.643
20,35,8.644
15,133,8.645
9,129,8.646
-3,72,8.647
-14,70,8.648
-25,110,8.649
-43,114,8.65
-59,79,8.651
-54,38,8.652
-30,-5,8.653
-12,-47,8.654
-14,-30,8.655
-25,37,8.656
-27,65,8.657
-16,35,8.658
2,28,8.659
25,66,8.66
42,69,8.661
42,21,8.662
22,5,8.663
5,54,8.664
3,88,8.665
6,74,8.666
3,68,8.667
-3,59,8.668
-3,-39,8.669
-1,-183,8.67
-1,-193,8.671
2,-28,8.672
11,130,8.673
16,154,8.674
13,90,8.675
6,18,8.676
8,-82,8.677
16,-209,8.678
22,-264,8.679
25,-194,8.68
27,-86,8.681
21,-10,8.682
7,58,8.683
-9,125,8.684
-16,138,8.685
-15,97,8.686
-9,67,8.687
-1,78,8.688
6,106,8.689
8,166,8.69
5,262,8.691
3,307,8.692
3,226,8.693
1,50,8.694
-1,-114,8.695
-1,-271,8.696
4,-475,8.697
9,-618,8.698
12,-532,8.699
12,-243,8.7
3,19,8.701
-11,104,8.702
-20,70,8.703
-14,22,8.704
-5,-3,8.705
-5,1,8.706
-7,43,8.707
3,91,8.708
20,103,8.709
23,96,8.71
11,111,8.711
-1,128,8.712
0,120,8.713
6,104,8.714
14,101,8.715
19,75,8.716
25,7,8.717
28,-11,8.718
30,98,8.719
25,258,8.72
13,297,8.721
-6,157,8.722
-23,-70,8.723
-39,-249,8.724
-59,-309,8.725
-76,-267,8.726
-74,-187,8.727
-49,-123,8.728
-22,-75,8.729
-8,-26,8.73
2,5,8.731
21,7,8.732
39,30,8.733
41,124,8.734
32,228,8.735
24,226,8.736
20,117,8.737
15,40,8.738
12,74,8.739
16,133,8.74
26,76,8.741
33,-122,8.742
35,-350,8.743
27,-460,8.744
10,-372,8.745
-12,-119,8.746
-26,168,8.747
-30,330,8.748
-27,291,8.749
-26,114,8.75
-24,-68,8.751
-17,-156,8.752
-2,-160,8.753
13,-136,8.754
22,-97,8.755
20,-10,8.756
12,142,8.757
3,314,8.758
1,399,8.759
10,299,8.76
18,21,8.761
17,-278,8.762
14,-409,8.763
13,-326,8.764
14,-149,8.765
14,-8,8.766
9,54,8.767
1,61,8.768
-8,32,8.769
-11,3,8.77
-7,4,8.771
-2,23,8.772
-2,31,8.773
-7,21,8.774
-8,16,8.775
-10,18,8.776
-14,16,8.777
-9,10,8.778
8,2,8.779
26,1,8.78
24,22,8.781
10,67,8.782
3,98,8.783
6,78,8.784
0,25,8.785
-13,-7,8.786
-19,-21,8.787
-11,-56,8.788
-4,-100,8.789
-4,-85,8.79
-5,22,8.791
2,177,8.792
11,295,8.793
11,307,8.794
4,173,8.795
-3,-68,8.796
-9,-300,8.797
-5,-402,8.798
11,-354,8.799
27,-206,8.8
28,-31,8.801
17,78,8.802
20,56,8.803
41,-44,8.804
56,-81,8.805
41,0,8.806
4,83,8.807
-26,70,8.808
-32,46,8.809
-16,152,8.81
2,358,8.811
-5,480,8.812
-34,422,8.813
-60,203,8.814
-43,-76,8.815
1,-334,8.816
31,-489,8.817
23,-475,8.818
3,-339,8.819
-2,-188,8.82
-1,-78,8.821
-1,6,8.822
7,60,8.823
27,56,8.824
37,26,8.825
29,36,8.826
17,94,8.827
17,175,8.828
20,278,8.829
17,362,8.83
7,297,8.831
-4,31,8.832
-16,-228,8.833
-29,-270,8.834
-34,-107,8.835
-35,6,8.836
-35,-75,8.837
-36,-224,8.838
-26,-290,8.839
-9,-264,8.84
-2,-182,8.841
-6,-39,8.842
-5,127,8.843
14,209,8.844
36,173,8.845
40,109,8.846
30,88,8.847
26,87,8.848
29,58,8.849
23,27,8.85
-1,20,8.851
-29,13,8.852
-40,-8,8.853
-33,-15,8.854
-14,22,8.855
2,88,8.856
19,143,8.857
37,172,8.858
50,155,8.859
47,86,8.86
30,7,8.861
4,-23,8.862
-18,2,8.863
-28,48,8.864
-24,78,8.865
-10,43,8.866
3,-107,8.867
13,-316,8.868
20,-421,8.869
24,-342,8.87
14,-191,8.871
-9,-83,8.872
-26,5,8.873
-18,134,8.874
5,225,8.875
24,183,8.876
36,62,8.877
50,-3,8.878
55,-14,8.879
36,-54,8.88
5,-105,8.881
-14,-92,8.882
-15,-29,8.883
-25,6,8.884
-44,53,8.885
-52,209,8.886
-38,412,8.887
-21,440,8.888
-12,225,8.889
-5,-30,8.89
4,-136,8.891
11,-131,8.892
12,-127,8.893
4,-134,8.894
-2,-143,8.895
-9,-232,8.896
-13,-396,8.897
-9,-452,8.898
3,-290,8.899
13,-73,8.9
15,9,8.901
11,1,8.902
11,31,8.903
20,86,8.904
31,107,8.905
33,138,8.906
27,221,8.907
22,279,8.908
21,238,8.909
23,139,8.91
17,49,8.911
1,-23,8.912
-23,-79,8.913
-54,-94,8.914
-70,-60,8.915
-62,-8,8.916
-38,38,8.917
-13,90,8.918
12,134,8.919
35,144,8.92
42,128,8.921
22,104,8.922
-2,63,8.923
-3,-3,8.924
12,-78,8.925
14,-128,8.926
2,-139,8.927
-4,-104,8.928
-1,-36,8.929
4,7,8.93
11,-14,8.931
24,-71,8.932
35,-94,8.933
28,-69,8.934
15,-13,8.935
9,66,8.936
5,160,8.937
-2,200,8.938
-2,118,8.939
13,-25,8.94
19,-100,8.941
1,-93,8.942
-22,-103,8.943
-28,-166,8.944
-31,-204,8.945
-46,-171,8.946
-54,-117,8.947
-32,-78,8.948
2,-27,8.949
16,45,8.95
18,106,8.951
28,151,8.952
39,210,8.953
34,263,8.954
22,231,8.955
17,94,8.956
17,-57,8.957
10,-132,8.958
8,-138,8.959
20,-112,8.96
31,-33,8.961
28,132,8.962
31,336,8.963
48,440,8.964
56,327,8.965
26,29,8.966
-24,-286,8.967
-54,-471,8.968
-57,-498,8.969
-55,-403,8.97
-62,-229,8.971
-62,-64,8.972
-45,2,8.973
-19,-14,8.974
7,5,8.975
20,85,8.976
18,109,8.977
15,34,8.978
19,-18,8.979
30,24,8.98
28,72,8.981
7,65,8.982
-16,77,8.983
-19,137,8.984
3,136,8.985
33,28,8.986
46,-65,8.987
38,-59,8.988
23,-19,8.989
18,-13,8.99
21,-5,8.991
21,32,8.992
18,42,8.993
14,3,8.994
4,-10,8.995
-25,38,8.996
-68,76,8.997
-90,51,8.998
-73,7,8.999
-29,-5,9.0
19,0,9.001
55,9,9.002
62,38,9.003
37,87,9.004
6,114,9.005
-1,92,9.006
9,33,9.007
0,-50,9.008
-35,-128,9.009
-66,-163,9.01
-70,-134,9.011
-52,-49,9.012
-29,73,9.013
-8,207,9.014
4,253,9.015
7,131,9.016
9,-67,9.017
23,-137,9.018
43,-31,9.019
53,85,9.02
46,56,9.021
36,-99,9.022
31,-269,9.023
31,-381,9.024
31,-390,9.025
28,-270,9.026
21,-71,9.027
11,87,9.028
2,120,9.029
-2,61,9.03
-3,9,9.031
-6,32,9.032
-6,101,9.033
-3,150,9.034
3,138,9.035
4,84,9.036
9,33,9.037
20,10,9.038
28,1,9.039
23,-3,9.04
9,7,9.041
0,42,9.042
2,82,9.043
5,95,9.044
1,72,9.045
-3,45,9.046
-5,46,9.047
-9,62,9.048
-19,58,9.049
-33,35,9.05
-35,41,9.051
-16,89,9.052
14,115,9.053
37,30,9.054
40,-159,9.055
21,-335,9.056
-4,-385,9.057
-24,-288,9.058
-42,-112,9.059
-61,49,9.06
-69,121,9.061
-54,87,9.062
-18,13,9.063
15,-12,9.064
26,16,9.065
23,48,9.066
16,80,9.067
11,157,9.068
4,261,9.069
2,317,9.07
9,309,9.071
19,264,9.072
24,168,9.073
17,-55,9.074
5,-343,9.075
-2,-529,9.076
6,-536,9.077
29,-425,9.078
57,-251,9.079
68,-27,9.08
47,153,9.081
4,162,9.082
-32,51,9.083
-43,22,9.084
-37,125,9.085
-30,205,9.086
-28,185,9.087
-25,154,9.088
-17,146,9.089
0,62,9.09
18,-101,9.091
31,-190,9.092
36,-144,9.093
28,-73,9.094
16,-75,9.095
-3,-91,9.096
-21,-57,9.097
-23,-12,9.098
-9,13,9.099
6,89,9.1
10,217,9.101
7,259,9.102
15,138,9.103
31,-28,9.104
44,-104,9.105
43,-116,9.106
34,-145,9.107
22,-162,9.108
9,-117,9.109
-1,-67,9.11
-5,-74,9.111
-17,-78,9.112
-42,-9,9.113
-76,84,9.114
-86,94,9.115
-60,38,9.116
-22,37,9.117
-3,154,9.118
-1,323,9.119
4,433,9.12
17,364,9.121
25,72,9.122
22,-296,9.123
18,-501,9.124
21,-461,9.125
24,-302,9.126
23,-147,9.127
21,3,9.128
18,140,9.129
8,196,9.13
-9,183,9.131
-19,179,9.132
-12,178,9.133
-1,95,9.134
2,-30,9.135
-6,-70,9.136
-5,-32,9.137
12,-34,9.138
36,-98,9.139
47,-133,9.14
40,-124,9.141
28,-135,9.142
20,-134,9.143
20,-30,9.144
29,146,9.145
45,281,9.146
50,348,9.147
32,358,9.148
-4,243,9.149
-30,-33,9.15
-40,-312,9.151
-49,-396,9.152
-62,-318,9.153
-68,-229,9.154
-53,-166,9.155
-28,-51,9.156
-6,101,9.157
10,193,9.158
26,214,9.159
38,233,9.16
35,215,9.161
20,65,9.162
2,-166,9.163
-6,-293,9.164
-5,-252,9.165
-6,-166,9.166
-14,-128,9.167
-24,-78,9.168
-22,45,9.169
-2,181,9.17
20,230,9.171
33,185,9.172
41,116,9.173
43,47,9.174
40,-6,9.175
26,-36,9.176
4,-41,9.177
-18,-38,9.178
-37,-42,9.179
-50,-36,9.18
-48,1,9.181
-30,74,9.182
-10,167,9.183
2,242,9.184
11,242,9.185
29,147,9.186
53,18,9.187
57,-82,9.188
35,-181,9.189
6,-317,9.19
-7,-421,9.191
-15,-377,9.192
-31,-209,9.193
-57,-30,9.194
-62,63,9.195
-43,85,9.196
-22,95,9.197
-16,142,9.198
-9,255,9.199
5,398,9.2
16,471,9.201
13,399,9.202
14,225,9.203
24,45,9.204
31,-109,9.205
22,-262,9.206
15,-422,9.207
25,-543,9.208
37,-559,9.209
35,-422,9.21
27,-182,9.211
26,20,9.212
30,83,9.213
28,57,9.214
21,49,9.215
17,80,9.216
20,87,9.217
17,65,9.218
4,49,9.219
-13,21,9.22
-28,-45,9.221
-38,-93,9.222
-34,-49,9.223
-11,51,9.224
18,112,9.225
30,109,9.226
22,92,9.227
6,92,9.228
-1,128,9.229
-4,216,9.23
-9,303,9.231
-7,272,9.232
3,110,9.233
14,-89,9.234
12,-182,9.235
0,-162,9.236
-11,-86,9.237
-14,15,9.238
-9,78,9.239
-4,4,9.24
-13,-164,9.241
-35,-224,9.242
-49,-72,9.243
-34,139,9.244
-2,227,9.245
20,198,9.246
24,156,9.247
23,126,9.248
19,67,9.249
6,-28,9.25
-7,-145,9.251
-7,-264,9.252
1,-321,9.253
1,-247,9.254
-5,-59,9.255
-3,107,9.256
12,122,9.257
22,2,9.258
14,-122,9.259
-3,-139,9.26
-8,-63,9.261
3,4,9.262
19,3,9.263
21,-16,9.264
3,10,9.265
-6,68,9.266
21,102,9.267
62,107,9.268
70,93,9.269
41,43,9.27
17,-35,9.271
20,-65,9.272
20,7,9.273
-13,148,9.274
-62,238,9.275
-96,180,9.276
-109,-7,9.277
-105,-194,9.278
-80,-250,9.279
-38,-166,9.28
-5,-46,9.281
2,33,9.282
-3,75,9.283
-1,68,9.284
10,-32,9.285
32,-146,9.286
67,-83,9.287
94,175,9.288
90,361,9.289
64,251,9.29
45,-64,9.291
38,-352,9.292
21,-504,9.293
-14,-517,9.294
-32,-346,9.295
-18,-43,9.296
7,185,9.297
15,224,9.298
9,188,9.299
6,226,9.3
4,312,9.301
2,334,9.302
1,257,9.303
7,90,9.304
8,-151,9.305
2,-372,9.306
-1,-434,9.307
3,-311,9.308
10,-102,9.309
13,94,9.31
17,219,9.311
24,212,9.312
27,112,9.313
16,52,9.314
0,115,9.315
-11,174,9.316
-18,103,9.317
-27,0,9.318
-30,-5,9.319
-26,9,9.32
-23,-71,9.321
-24,-163,9.322
-24,-130,9.323
-13,-32,9.324
2,6,9.325
8,35,9.326
8,162,9.327
10,312,9.328
15,299,9.329
19,87,9.33
11,-184,9.331
-7,-383,9.332
-27,-467,9.333
-39,-435,9.334
-37,-273,9.335
-25,-20,9.336
-13,199,9.337
-1,268,9.338
10,198,9.339
21,122,9.34
31,132,9.341
32,163,9.342
26,135,9.343
25,105,9.344
43,160,9.345
71,216,9.346
78,119,9.347
49,-108,9.348
-2,-279,9.349
-48,-297,9.35
-74,-205,9.351
-84,-29,9.352
-76,206,9.353
-43,393,9.354
3,340,9.355
34,49,9.356
31,-231,9.357
11,-309,9.358
-3,-233,9.359
-7,-150,9.36
-10,-121,9.361
-13,-140,9.362
-6,-182,9.363
7,-192,9.364
19,-118,9.365
26,-12,9.366
32,18,9.367
35,-49,9.368
29,-143,9.369
23,-198,9.37
21,-181,9.371
26,-64,9.372
22,107,9.373
-2,216,9.374
-32,181,9.375
-37,108,9.376
-13,125,9.377
8,186,9.378
1,158,9.379
-18,68,9.38
-15,31,9.381
7,55,9.382
19,85,9.383
13,125,9.384
11,169,9.385
20,108,9.386
19,-88,9.387
5,-242,9.388
-5,-195,9.389
-2,-38,9.39
-2,69,9.391
-8,139,9.392
-3,230,9.393
16,284,9.394
21,197,9.395
-1,18,9.396
-24,-127,9.397
-11,-208,9.398
28,-270,9.399
57,-298,9.4
56,-249,9.401
36,-145,9.402
13,-38,9.403
-6,53,9.404
-17,114,9.405
-19,125,9.406
-22,120,9.407
-30,175,9.408
-35,297,9.409
-27,395,9.41
-15,361,9.411
-7,182,9.412
-4,-37,9.413
0,-201,9.414
8,-240,9.415
7,-175,9.416
-3,-57,9.417
-7,104,9.418
4,307,9.419
23,494,9.42
33,570,9.421
22,445,9.422
-6,95,9.423
-34,-389,9.424
-37,-817,9.425
-19,-1045,9.426
-8,-1062,9.427
-23,-915,9.428
-44,-625,9.429
-40,-275,9.43
-11,-28,9.431
19,49,9.432
41,57,9.433
56,85,9.434
58,106,9.435
39,98,9.436
18,141,9.437
17,278,9.438
37,410,9.439
52,465,9.44
44,496,9.441
19,517,9.442
2,429,9.443
8,199,9.444
18,-23,9.445
12,-116,9.446
-11,-147,9.447
-25,-220,9.448
-23,-299,9.449
-17,-275,9.45
-13,-147,9.451
-14,0,9.452
-26,115,9.453
-53,204,9.454
-64,270,9.455
-44,330,9.456
-23,410,9.457
-35,461,9.458
-48,326,9.459
-20,-42,9.46
27,-449,9.461
41,-637,9.462
25,-542,9.463
26,-297,9.464
46,-47,9.465
48,126,9.466
29,172,9.467
20,100,9.468
22,14,9.469
11,7,9.47
-4,55,9.471
5,79,9.472
27,73,9.473
22,78,9.474
-3,121,9.475
-15,180,9.476
-3,229,9.477
7,250,9.478
7,197,9.479
9,55,9.48
12,-134,9.481
0,-293,9.482
-17,-373,9.483
-18,-380,9.484
-7,-366,9.485
-7,-362,9.486
-16,-324,9.487
-17,-182,9.488
-3,41,9.489
13,215,9.49
29,257,9.491
46,212,9.492
57,140,9.493
52,-1,9.494
42,-210,9.495
36,-368,9.496
22,-360,9.497
-9,-205,9.498
-42,0,9.499
-50,215,9.5
-42,407,9.501
-34,488,9.502
-24,422,9.503
-2,285,9.504
22,159,9.505
27,23,9.506
20,-160,9.507
17,-333,9.508
20,-399,9.509
17,-332,9.51
-1,-185,9.511
-20,-35,9.512
-25,52,9.513
-19,54,9.514
-13,19,9.515
-20,18,9.516
-30,69,9.517
-27,136,9.518
-11,197,9.519
-1,255,9.52
-4,315,9.521
-5,362,9.522
2,372,9.523
13,303,9.524
18,139,9.525
22,-48,9.526
27,-137,9.527
26,-87,9.528
17,10,9.529
10,33,9.53
8,-78,9.531
5,-286,9.532
-2,-466,9.533
-17,-511,9.534
-27,-377,9.535
-29,-177,9.536
-19,-79,9.537
6,-138,9.538
42,-265,9.539
69,-324,9.54
65,-241,9.541
32,-30,9.542
-11,208,9.543
-38,356,9.544
-42,372,9.545
-30,331,9.546
-14,330,9.547
0,372,9.548
0,370,9.549
-9,256,9.55
-14,86,9.551
-7,-21,9.552
2,-21,9.553
1,20,9.554
-8,29,9.555
-17,0,9.556
-20,-39,9.557
-14,-66,9.558
6,-53,9.559
29,25,9.56
37,98,9.561
32,29,9.562
30,-211,9.563
30,-495,9.564
14,-692,9.565
-16,-768,9.566
-33,-699,9.567
-26,-429,9.568
-10,2,9.569
0,398,9.57
11,588,9.571
20,590,9.572
25,529,9.573
17,438,9.574
12,282,9.575
17,55,9.576
25,-150,9.577
25,-255,9.578
25,-289,9.579
32,-311,9.58
37,-314,9.581
26,-272,9.582
5,-217,9.583
-6,-167,9.584
-3,-78,9.585
6,71,9.586
14,216,9.587
9,333,9.588
-10,485,9.589
-25,652,9.59
-14,637,9.591
31,324,9.592
76,-84,9.593
74,-356,9.594
22,-391,9.595
-43,-287,9.596
-78,-126,9.597
-85,66,9.598
-87,197,9.599
-90,180,9.6
-80,85,9.601
-51,21,9.602
-19,-40,9.603
2,-165,9.604
14,-266,9.605
26,-235,9.606
39,-129,9.607
44,-53,9.608
35,14,9.609
25,112,9.61
28,146,9.611
33,58,9.612
29,-19,9.613
17,18,9.614
12,89,9.615
14,76,9.616
11,23,9.617
6,4,9.618
12,-51,9.619
22,-198,9.62
20,-298,9.621
-3,-227,9.622
-23,-65,9.623
-25,51,9.624
-13,115,9.625
1,180,9.626
12,242,9.627
16,286,9.628
13,317,9.629
9,313,9.63
8,251,9.631
2,170,9.632
-8,99,9.633
-16,-38,9.634
-17,-260,9.635
-16,-438,9.636
-10,-447,9.637
-2,-355,9.638
10,-306,9.639
21,-285,9.64
29,-196,9.641
40,-58,9.642
49,56,9.643
34,171,9.644
-18,307,9.645
-72,365,9.646
-76,273,9.647
-30,140,9.648
24,92,9.649
52,89,9.65
65,54,9.651
72,41,9.652
63,97,9.653
32,121,9.654
-1,-8,9.655
-35,-213,9.656
-82,-303,9.657
-121,-248,9.658
-105,-152,9.659
-39,-46,9.66
7,105,9.661
-3,225,9.662
-27,191,9.663
-22,39,9.664
0,-74,9.665
13,-89,9.666
21,-88,9.667
32,-113,9.668
38,-130,9.669
25,-138,9.67
16,-179,9.671
25,-220,9.672
42,-193,9.673
45,-81,9.674
35,64,9.675
21,196,9.676
8,256,9.677
1,172,9.678
10,-54,9.679
26,-291,9.68
31,-406,9.681
20,-405,9.682
10,-338,9.683
8,-193,9.684
9,25,9.685
7,203,9.686
10,257,9.687
21,271,9.688
28,353,9.689
23,454,9.69
5,451,9.691
-14,349,9.692
-24,238,9.693
-19,129,9.694
-11,12,9.695
-15,-63,9.696
-26,-59,9.697
-28,-36,9.698
-16,-50,9.699
-7,-29,9.7
-13,88,9.701
-19,186,9.702
-15,110,9.703
-6,-80,9.704
0,-226,9.705
6,-292,9.706
11,-346,9.707
8,-356,9.708
-1,-258,9.709
-9,-119,9.71
-8,-54,9.711
-3,-33,9.712
3,35,9.713
12,128,9.714
18,130,9.715
11,52,9.716
-2,7,9.717
-5,26,9.718
5,34,9.719
11,12,9.72
3,26,9.721
-2,86,9.722
9,125,9.723
29,111,9.724
30,76,9.725
10,41,9.726
-12,9,9.727
-16,-2,9.728
-7,17,9.729
-3,42,9.73
-9,57,9.731
-10,84,9.732
-3,117,9.733
1,107,9.734
-4,45,9.735
-15,1,9.736
-21,25,9.737
-25,61,9.738
-25,20,9.739
-13,-81,9.74
10,-164,9.741
23,-191,9.742
20,-156,9.743
14,-26,9.744
17,195,9.745
23,380,9.746
21,385,9.747
13,228,9.748
6,61,9.749
13,-41,9.75
30,-134,9.751
46,-234,9.752
41,-268,9.753
10,-206,9.754
-21,-115,9.755
-32,-34,9.756
-27,94,9.757
-26,282,9.758
-27,390,9.759
-17,303,9.76
1,126,9.761
14,28,9.762
17,-39,9.763
17,-300,9.764
15,-819,9.765
8,-1344,9.766
8,-1541,9.767
23,-1288,9.768
39,-733,9.769
42,-135,9.77
32,295,9.771
27,482,9.772
32,501,9.773
33,490,9.774
22,514,9.775
6,503,9.776
-3,388,9.777
-6,282,9.778
-17,203,9.779
-36,157,9.78
-54,215,9.781
-58,274,9.782
-58,331,9.783
-57,367,9.784
-47,335,9.785
-18,284,9.786
13,182,9.787
21,97,9.788
9,61,9.789
-1,52,9.79
1,129,9.791
4,154,9.792
4,24,9.793
2,-148,9.794
2,-420,9.795
-2,-560,9.796
-7,-555,9.797
-2,-451,9.798
13,-273,9.799
26,-71,9.8
28,58,9.801
28,86,9.802
36,93,9.803
54,139,9.804
66,180,9.805
57,167,9.806
25,132,9.807
