Deltoid,Bicep,Time
0,3,0.0
1,6,0.001
-1,7,0.002
-2,4,0.003
0,0,0.004
5,0,0.005
6,2,0.006
7,1,0.007
7,0,0.008
7,0,0.009
4,2,0.01
1,0,0.011
4,-6,0.012
11,-6,0.013
10,-4,0.014
3,-2,0.015
-5,-1,0.016
-7,-3,0.017
-4,-5,0.018
2,-3,0.019
8,-1,0.02
6,0,0.021
0,3,0.022
-2,4,0.023
1,5,0.024
4,1,0.025
3,-2,0.026
2,-1,0.027
6,0,0.028
10,0,0.029
8,-1,0.03
3,-2,0.031
1,-3,0.032
2,-1,0.033
0,0,0.034
-2,-4,0.035
-2,-6,0.036
-2,-7,0.037
-3,-3,0.038
-2,0,0.039
0,0,0.04
0,4,0.041
0,6,0.042
2,2,0.043
7,-4,0.044
9,-4,0.045
5,-1,0.046
1,0,0.047
1,-1,0.048
3,-1,0.049
3,1,0.05
0,0,0.051
-1,-2,0.052
0,-1,0.053
2,1,0.054
3,0,0.055
1,-5,0.056
-1,-11,0.057
0,-7,0.058
8,0,0.059
15,2,0.06
11,3,0.061
2,5,0.062
0,5,0.063
7,3,0.064
9,0,0.065
6,1,0.066
7,2,0.067
8,0,0.068
5,-3,0.069
-3,-4,0.07
-5,-2,0.071
-4,-2,0.072
0,-1,0.073
0,-1,0.074
0,-3,0.075
-2,-5,0.076
-6,-10,0.077
-9,-8,0.078
-3,-3,0.079
5,2,0.08
9,6,0.081
6,7,0.082
3,4,0.083
6,0,0.084
9,0,0.085
11,4,0.086
9,8,0.087
6,8,0.088
1,3,0.089
0,-2,0.09
0,-4,0.091
3,-3,0.092
4,-2,0.093
1,0,0.094
-1,0,0.095
-2,0,0.096
-3,-3,0.097
-2,-5,0.098
3,-2,0.099
7,1,0.1
4,2,0.101
-3,3,0.102
-4,4,0.103
0,5,0.104
3,3,0.105
1,2,0.106
0,0,0.107
4,-1,0.108
10,-2,0.109
9,-3,0.11
2,-1,0.111
-1,-1,0.112
1,-5,0.113
1,-8,0.114
0,-5,0.115
-4,-3,0.116
-8,-4,0.117
-7,-7,0.118
-2,-7,0.119
6,-2,0.12
8,4,0.121
2,7,0.122
0,5,0.123
2,1,0.124
2,2,0.125
0,7,0.126
1,8,0.127
9,1,0.128
13,-5,0.129
7,-5,0.13
2,-2,0.131
1,1,0.132
4,1,0.133
1,0,0.134
-4,-2,0.135
-11,-6,0.136
-12,-11,0.137
-7,-10,0.138
1,-5,0.139
9,-1,0.14
11,3,0.141
10,7,0.142
12,8,0.143
15,4,0.144
12,0,0.145
5,2,0.146
4,4,0.147
5,4,0.148
2,1,0.149
-2,-1,0.15
0,-2,0.151
5,-2,0.152
7,-2,0.153
4,-1,0.154
1,-2,0.155
-1,-2,0.156
-5,-5,0.157
-8,-4,0.158
-1,-3,0.159
9,-2,0.16
12,1,0.161
5,6,0.162
0,7,0.163
1,3,0.164
1,-4,0.165
-1,-4,0.166
1,-1,0.167
4,2,0.168
5,4,0.169
2,4,0.17
1,0,0.171
5,-3,0.172
9,-4,0.173
5,-3,0.174
1,-3,0.175
-2,-5,0.176
-3,-7,0.177
0,-5,0.178
7,-4,0.179
13,-4,0.18
12,-1,0.181
4,3,0.182
-2,3,0.183
-3,-1,0.184
-2,-2,0.185
-1,0,0.186
0,2,0.187
-1,-2,0.188
-1,-3,0.189
2,0,0.19
7,1,0.191
10,-3,0.192
9,-4,0.193
6,-4,0.194
3,-2,0.195
-1,-3,0.196
-7,-6,0.197
-10,-5,0.198
-3,-3,0.199
4,-2,0.2
5,2,0.201
0,6,0.202
0,4,0.203
6,1,0.204
5,3,0.205
1,7,0.206
2,6,0.207
7,0,0.208
10,-3,0.209
3,0,0.21
-1,0,0.211
2,-3,0.212
5,-3,0.213
1,-3,0.214
-4,-2,0.215
-3,-1,0.216
1,-5,0.217
0,-6,0.218
0,0,0.219
4,4,0.22
9,4,0.221
8,2,0.222
2,-2,0.223
2,-4,0.224
2,-2,0.225
0,0,0.226
1,0,0.227
7,-1,0.228
13,-1,0.229
13,0,0.23
10,0,0.231
11,-1,0.232
13,-2,0.233
7,-4,0.234
-2,-5,0.235
-8,-5,0.236
-10,-5,0.237
-9,-2,0.238
-4,-1,0.239
1,-2,0.24
3,0,0.241
0,4,0.242
-2,3,0.243
0,-1,0.244
2,-2,0.245
-1,1,0.246
-3,4,0.247
1,4,0.248
7,5,0.249
6,4,0.25
-1,0,0.251
-4,-3,0.252
-1,-4,0.253
1,-5,0.254
0,-5,0.255
-3,-4,0.256
-4,-5,0.257
-4,-4,0.258
1,-3,0.259
7,-1,0.26
8,3,0.261
5,6,0.262
5,5,0.263
11,1,0.264
14,3,0.265
11,8,0.266
7,10,0.267
7,4,0.268
6,-2,0.269
2,-3,0.27
-2,-2,0.271
-1,-3,0.272
0,-3,0.273
-3,-3,0.274
-7,-2,0.275
-6,-3,0.276
-3,-6,0.277
-1,-4,0.278
1,-2,0.279
6,-1,0.28
8,0,0.281
2,3,0.282
-1,5,0.283
3,3,0.284
8,2,0.285
6,4,0.286
1,2,0.287
4,-1,0.288
10,-3,0.289
9,-2,0.29
6,-1,0.291
6,-1,0.292
8,0,0.293
6,-2,0.294
0,-5,0.295
-5,-8,0.296
-7,-10,0.297
-5,-9,0.298
1,-9,0.299
5,-7,0.3
4,-1,0.301
0,3,0.302
1,1,0.303
6,-4,0.304
8,-3,0.305
4,3,0.306
4,5,0.307
6,0,0.308
7,0,0.309
3,3,0.31
1,4,0.311
2,0,0.312
3,-1,0.313
0,-1,0.314
0,-1,0.315
-1,-4,0.316
-3,-7,0.317
-6,-4,0.318
-2,0,0.319
9,-1,0.32
12,0,0.321
5,2,0.322
-1,3,0.323
1,0,0.324
2,-3,0.325
-2,-1,0.326
-4,0,0.327
-1,1,0.328
4,1,0.329
4,0,0.33
1,-4,0.331
2,-6,0.332
6,-3,0.333
6,0,0.334
1,2,0.335
-1,-2,0.336
0,-9,0.337
2,-10,0.338
4,-6,0.339
6,-1,0.34
5,2,0.341
3,4,0.342
0,4,0.343
2,2,0.344
5,0,0.345
8,-1,0.346
8,1,0.347
10,3,0.348
13,2,0.349
13,2,0.35
6,1,0.351
-3,2,0.352
-5,2,0.353
-2,0,0.354
2,-3,0.355
-1,-3,0.356
-4,-3,0.357
-4,-4,0.358
-3,-6,0.359
0,-2,0.36
0,4,0.361
-1,6,0.362
0,2,0.363
4,0,0.364
4,2,0.365
0,3,0.366
-3,0,0.367
-2,-3,0.368
0,-5,0.369
0,-2,0.37
0,0,0.371
0,0,0.372
7,1,0.373
14,-2,0.374
15,-5,0.375
9,-3,0.376
0,-4,0.377
-4,-3,0.378
1,-5,0.379
10,-3,0.38
8,3,0.381
2,8,0.382
-1,6,0.383
2,0,0.384
4,-1,0.385
2,1,0.386
-1,4,0.387
0,2,0.388
0,-2,0.389
-4,-4,0.39
-7,-2,0.391
-4,-1,0.392
4,0,0.393
5,-4,0.394
0,-6,0.395
-5,-3,0.396
-6,-2,0.397
-5,-3,0.398
-1,-3,0.399
7,1,0.4
12,7,0.401
11,7,0.402
7,2,0.403
3,-1,0.404
1,-2,0.405
2,-1,0.406
6,-1,0.407
10,1,0.408
9,3,0.409
5,2,0.41
4,0,0.411
6,-1,0.412
10,0,0.413
7,-3,0.414
3,-3,0.415
-3,-2,0.416
-8,-6,0.417
-9,-9,0.418
-4,-8,0.419
1,-3,0.42
3,2,0.421
3,4,0.422
7,2,0.423
10,0,0.424
8,1,0.425
4,2,0.426
0,3,0.427
-1,2,0.428
0,1,0.429
3,-1,0.43
8,-3,0.431
8,-3,0.432
6,-2,0.433
5,-3,0.434
7,0,0.435
6,-1,0.436
-1,-4,0.437
-8,-6,0.438
-6,-7,0.439
2,-2,0.44
6,3,0.441
3,5,0.442
2,2,0.443
3,0,0.444
0,-1,0.445
-8,0,0.446
-10,-1,0.447
-3,-3,0.448
3,-4,0.449
2,-3,0.45
-1,-3,0.451
2,-2,0.452
9,2,0.453
12,6,0.454
9,5,0.455
4,-1,0.456
-1,-7,0.457
-4,-4,0.458
0,-1,0.459
11,2,0.46
14,3,0.461
11,5,0.462
8,6,0.463
10,4,0.464
11,3,0.465
6,5,0.466
1,5,0.467
-1,1,0.468
-4,-2,0.469
-6,-3,0.47
-3,-3,0.471
0,-4,0.472
0,-3,0.473
-5,-2,0.474
-6,-3,0.475
-5,-4,0.476
-6,-7,0.477
-7,-7,0.478
0,-5,0.479
8,-1,0.48
11,3,0.481
6,5,0.482
4,4,0.483
6,3,0.484
8,4,0.485
6,3,0.486
5,-1,0.487
6,-2,0.488
6,1,0.489
3,3,0.49
3,1,0.491
5,-2,0.492
7,0,0.493
3,1,0.494
-1,0,0.495
-7,-3,0.496
-11,-6,0.497
-7,-6,0.498
2,-4,0.499
10,0,0.5
7,4,0.501
0,6,0.502
0,1,0.503
7,-2,0.504
10,1,0.505
6,6,0.506
3,5,0.507
4,0,0.508
4,-2,0.509
0,-3,0.51
-1,-3,0.511
3,-4,0.512
8,-3,0.513
6,-3,0.514
0,-3,0.515
-6,-4,0.516
-6,-7,0.517
-4,-6,0.518
-1,-3,0.519
2,-1,0.52
3,-1,0.521
2,-1,0.522
1,0,0.523
0,2,0.524
-3,5,0.525
-5,5,0.526
-3,2,0.527
3,-1,0.528
7,-1,0.529
7,2,0.53
7,5,0.531
11,4,0.532
12,2,0.533
8,-1,0.534
0,-2,0.535
-3,-3,0.536
-4,-5,0.537
-1,-3,0.538
3,1,0.539
6,1,0.54
4,0,0.541
0,0,0.542
1,2,0.543
8,0,0.544
11,-2,0.545
4,-1,0.546
-3,1,0.547
-4,0,0.548
0,0,0.549
6,1,0.55
10,2,0.551
11,-1,0.552
11,-3,0.553
9,-2,0.554
11,-1,0.555
9,-3,0.556
1,-9,0.557
-5,-8,0.558
-2,-4,0.559
7,-3,0.56
11,-2,0.561
4,0,0.562
-1,1,0.563
1,2,0.564
3,1,0.565
-1,1,0.566
-6,1,0.567
-8,0,0.568
-10,0,0.569
-12,2,0.57
-10,1,0.571
-6,-2,0.572
-3,-4,0.573
-4,-4,0.574
-4,-4,0.575
-2,-4,0.576
2,-6,0.577
12,-4,0.578
25,-2,0.579
31,-1,0.58
20,0,0.581
4,2,0.582
0,4,0.583
3,4,0.584
-1,4,0.585
-11,5,0.586
-8,5,0.587
4,2,0.588
8,1,0.589
1,1,0.59
0,-2,0.591
11,-5,0.592
18,-4,0.593
13,-2,0.594
5,0,0.595
-3,0,0.596
-7,-4,0.597
-9,-2,0.598
-5,0,0.599
0,2,0.6
1,2,0.601
3,4,0.602
3,3,0.603
3,0,0.604
7,-1,0.605
11,0,0.606
12,1,0.607
13,0,0.608
13,-3,0.609
11,-4,0.61
3,-2,0.611
-3,-1,0.612
-1,0,0.613
0,-2,0.614
-5,-2,0.615
-8,-1,0.616
-3,-3,0.617
3,-5,0.618
5,-3,0.619
5,-1,0.62
3,1,0.621
-1,4,0.622
-3,3,0.623
-2,2,0.624
0,3,0.625
0,5,0.626
-1,5,0.627
1,4,0.628
4,4,0.629
5,3,0.63
4,0,0.631
3,-2,0.632
3,-5,0.633
2,-7,0.634
2,-6,0.635
0,-5,0.636
-4,-7,0.637
-7,-5,0.638
-2,-2,0.639
8,-4,0.64
10,-3,0.641
5,1,0.642
3,4,0.643
7,2,0.644
10,-1,0.645
5,0,0.646
0,2,0.647
0,2,0.648
4,-2,0.649
7,-4,0.65
9,-5,0.651
9,-3,0.652
8,-2,0.653
4,-2,0.654
3,-3,0.655
1,-3,0.656
-2,-5,0.657
-5,-5,0.658
-3,-2,0.659
2,4,0.66
2,8,0.661
-2,8,0.662
-3,3,0.663
0,-1,0.664
0,-2,0.665
-1,0,0.666
1,1,0.667
5,5,0.668
7,7,0.669
7,4,0.67
9,-1,0.671
8,-4,0.672
3,-3,0.673
-1,-2,0.674
4,-2,0.675
8,-4,0.676
4,-7,0.677
-4,-5,0.678
-3,-3,0.679
3,2,0.68
9,6,0.681
12,7,0.682
16,5,0.683
15,2,0.684
4,1,0.685
-7,2,0.686
-5,0,0.687
3,-1,0.688
5,0,0.689
-3,2,0.69
-7,1,0.691
-4,-2,0.692
0,-3,0.693
-2,-5,0.694
-3,-4,0.695
-4,-3,0.696
-3,-3,0.697
-1,-4,0.698
6,-4,0.699
14,-2,0.7
12,3,0.701
7,8,0.702
8,3,0.703
12,-1,0.704
12,-2,0.705
3,-4,0.706
-1,-3,0.707
0,-2,0.708
0,-3,0.709
-2,-5,0.71
0,-4,0.711
8,-3,0.712
9,-4,0.713
-1,-6,0.714
-8,-8,0.715
-7,-6,0.716
-5,-5,0.717
-5,-4,0.718
-1,-3,0.719
8,0,0.72
9,6,0.721
-1,11,0.722
-5,8,0.723
2,2,0.724
12,0,0.725
8,1,0.726
-1,1,0.727
-1,-1,0.728
1,-2,0.729
-2,0,0.73
-3,3,0.731
2,2,0.732
9,0,0.733
4,-1,0.734
-1,-1,0.735
-2,0,0.736
-3,-3,0.737
-5,-5,0.738
-2,-5,0.739
7,-3,0.74
12,-1,0.741
4,1,0.742
0,2,0.743
3,2,0.744
6,3,0.745
0,3,0.746
-1,3,0.747
7,0,0.748
13,-2,0.749
10,-2,0.75
7,-1,0.751
9,-1,0.752
11,0,0.753
9,-1,0.754
8,2,0.755
4,2,0.756
-5,-5,0.757
-14,-9,0.758
-8,-8,0.759
8,-4,0.76
15,-1,0.761
9,1,0.762
5,2,0.763
8,-1,0.764
5,-3,0.765
-7,-1,0.766
-14,2,0.767
-9,4,0.768
-3,1,0.769
-1,2,0.77
7,2,0.771
18,2,0.772
23,0,0.773
18,-2,0.774
12,-2,0.775
4,-2,0.776
-5,-6,0.777
-11,-8,0.778
-6,-4,0.779
2,0,0.78
2,3,0.781
-5,5,0.782
-6,3,0.783
4,1,0.784
15,0,0.785
16,0,0.786
14,1,0.787
17,3,0.788
18,1,0.789
12,-1,0.79
0,-2,0.791
-5,-4,0.792
-7,-4,0.793
-8,-4,0.794
-9,-3,0.795
-9,-5,0.796
-11,-8,0.797
-8,-8,0.798
1,-5,0.799
10,-3,0.8
7,-1,0.801
-2,0,0.802
-5,0,0.803
1,-1,0.804
6,0,0.805
4,4,0.806
1,6,0.807
3,4,0.808
5,2,0.809
3,3,0.81
0,3,0.811
1,0,0.812
3,-3,0.813
0,-5,0.814
-1,-3,0.815
-4,-2,0.816
-5,-5,0.817
-6,-6,0.818
0,-8,0.819
4,-8,0.82
4,-3,0.821
0,5,0.822
2,7,0.823
5,2,0.824
4,0,0.825
1,2,0.826
0,3,0.827
0,0,0.828
-1,-1,0.829
-3,0,0.83
0,0,0.831
5,-3,0.832
8,-3,0.833
5,-1,0.834
7,3,0.835
13,4,0.836
18,0,0.837
16,-1,0.838
11,-4,0.839
7,-3,0.84
6,1,0.841
5,3,0.842
6,0,0.843
11,-4,0.844
12,-3,0.845
6,1,0.846
-4,1,0.847
-7,-2,0.848
0,-4,0.849
11,-2,0.85
14,-3,0.851
5,-4,0.852
-1,-1,0.853
-2,0,0.854
0,0,0.855
-6,-2,0.856
-15,-6,0.857
-12,-8,0.858
4,-5,0.859
14,-1,0.86
10,0,0.861
-2,3,0.862
-4,2,0.863
-2,1,0.864
-1,2,0.865
-2,4,0.866
-1,2,0.867
0,1,0.868
1,1,0.869
1,0,0.87
2,0,0.871
2,1,0.872
2,2,0.873
3,4,0.874
5,4,0.875
3,1,0.876
-2,-4,0.877
-6,-4,0.878
-2,-2,0.879
7,0,0.88
11,2,0.881
5,3,0.882
0,3,0.883
0,1,0.884
3,3,0.885
5,6,0.886
5,5,0.887
6,2,0.888
7,1,0.889
5,3,0.89
2,4,0.891
0,2,0.892
1,0,0.893
0,-3,0.894
0,-5,0.895
-2,-6,0.896
-1,-9,0.897
7,-9,0.898
17,-5,0.899
19,-1,0.9
11,2,0.901
0,3,0.902
-1,1,0.903
5,-2,0.904
10,-1,0.905
7,0,0.906
3,0,0.907
3,-2,0.908
3,-1,0.909
0,1,0.91
-5,1,0.911
-7,-3,0.912
-4,-5,0.913
0,-7,0.914
1,-8,0.915
2,-6,0.916
0,-6,0.917
0,-4,0.918
7,-1,0.919
15,0,0.92
12,3,0.921
0,5,0.922
-8,4,0.923
-4,1,0.924
2,3,0.925
3,5,0.926
1,2,0.927
1,-1,0.928
2,-3,0.929
-2,-2,0.93
-5,-1,0.931
-7,-3,0.932
-6,-3,0.933
-8,-2,0.934
-9,0,0.935
-7,0,0.936
-4,-4,0.937
0,-7,0.938
7,-5,0.939
14,-2,0.94
14,3,0.941
10,7,0.942
9,1,0.943
10,-2,0.944
9,0,0.945
4,1,0.946
2,1,0.947
4,1,0.948
3,0,0.949
-2,-1,0.95
-2,-2,0.951
3,-4,0.952
8,-3,0.953
2,-1,0.954
-3,0,0.955
-6,-1,0.956
-7,-5,0.957
-7,-6,0.958
-2,-1,0.959
7,2,0.96
9,5,0.961
2,5,0.962
-1,4,0.963
4,4,0.964
12,3,0.965
14,0,0.966
12,-1,0.967
10,-3,0.968
5,-4,0.969
1,-2,0.97
3,-2,0.971
7,-2,0.972
9,0,0.973
3,-3,0.974
-2,-1,0.975
-5,0,0.976
-9,-2,0.977
-10,-3,0.978
-4,-1,0.979
1,0,0.98
3,2,0.981
-2,4,0.982
-2,2,0.983
4,1,0.984
6,0,0.985
1,0,0.986
-2,1,0.987
0,2,0.988
1,-2,0.989
1,-6,0.99
4,-5,0.991
11,-3,0.992
15,-1,0.993
11,1,0.994
5,1,0.995
2,0,0.996
2,-4,0.997
2,-5,0.998
8,-1,0.999
12,1,1.0
6,3,1.001
-3,3,1.002
-5,4,1.003
2,3,1.004
6,0,1.005
2,-1,1.006
-1,0,1.007
3,1,1.008
8,0,1.009
8,-3,1.01
4,-2,1.011
4,0,1.012
3,2,1.013
-4,0,1.014
-13,-1,1.015
-18,-2,1.016
-17,-3,1.017
-11,-4,1.018
-3,-2,1.019
5,-1,1.02
11,0,1.021
11,1,1.022
13,1,1.023
19,0,1.024
25,-1,1.025
26,-3,1.026
19,0,1.027
10,2,1.028
3,0,1.029
2,-1,1.03
4,-1,1.031
5,-2,1.032
4,-2,1.033
0,0,1.034
-5,0,1.035
-12,-2,1.036
-15,-6,1.037
-15,-8,1.038
-8,-5,1.039
-3,-1,1.04
-1,3,1.041
-1,8,1.042
1,7,1.043
6,3,1.044
7,0,1.045
4,0,1.046
0,0,1.047
-4,-2,1.048
-7,-2,1.049
-10,-1,1.05
-7,-2,1.051
-1,-3,1.052
7,-2,1.053
12,-1,1.054
17,-1,1.055
19,-2,1.056
21,-6,1.057
21,-9,1.058
19,-7,1.059
15,-4,1.06
6,2,1.061
-1,7,1.062
-4,5,1.063
-4,4,1.064
-5,4,1.065
-8,3,1.066
-7,3,1.067
-3,1,1.068
-2,-2,1.069
-2,-5,1.07
-2,-3,1.071
-2,-2,1.072
0,0,1.073
1,0,1.074
1,-1,1.075
0,-1,1.076
-6,-4,1.077
-10,-6,1.078
-2,-2,1.079
4,2,1.08
2,5,1.081
2,2,1.082
6,-2,1.083
9,-2,1.084
12,0,1.085
14,0,1.086
8,-1,1.087
4,-2,1.088
4,-1,1.089
2,0,1.09
0,-2,1.091
0,-3,1.092
1,-1,1.093
4,1,1.094
6,1,1.095
2,1,1.096
-2,-1,1.097
-2,-4,1.098
4,-4,1.099
8,-2,1.1
1,3,1.101
-5,6,1.102
-7,3,1.103
-3,0,1.104
0,-1,1.105
0,-2,1.106
-1,-1,1.107
7,0,1.108
18,-2,1.109
22,-5,1.11
13,-5,1.111
0,-5,1.112
-2,-3,1.113
4,-2,1.114
7,-5,1.115
0,-7,1.116
-8,-7,1.117
-4,-2,1.118
9,0,1.119
20,2,1.12
21,3,1.121
18,5,1.122
17,5,1.123
14,1,1.124
4,1,1.125
-8,3,1.126
-13,0,1.127
-11,-3,1.128
-6,-2,1.129
-2,4,1.13
0,7,1.131
3,1,1.132
3,-3,1.133
-3,-4,1.134
-12,-2,1.135
-19,0,1.136
-18,-4,1.137
-11,-6,1.138
0,-1,1.139
12,3,1.14
16,3,1.141
17,3,1.142
17,3,1.143
19,1,1.144
18,-1,1.145
9,-4,1.146
1,-4,1.147
0,-2,1.148
1,0,1.149
0,1,1.15
-3,1,1.151
-2,0,1.152
0,-1,1.153
1,-3,1.154
0,-7,1.155
-3,-8,1.156
-6,-9,1.157
-6,-4,1.158
-2,1,1.159
1,2,1.16
0,3,1.161
-2,2,1.162
-2,2,1.163
0,4,1.164
-3,5,1.165
-10,5,1.166
-10,1,1.167
-1,-1,1.168
7,-1,1.169
6,-1,1.17
1,-2,1.171
2,-2,1.172
14,-2,1.173
22,-2,1.174
25,-1,1.175
25,0,1.176
14,-4,1.177
8,-7,1.178
16,-6,1.179
21,0,1.18
12,10,1.181
4,10,1.182
-1,4,1.183
-5,-1,1.184
-6,-1,1.185
-7,-1,1.186
-6,-2,1.187
-5,-3,1.188
-8,0,1.189
-11,1,1.19
-11,-3,1.191
-11,-5,1.192
-9,0,1.193
-7,2,1.194
-12,0,1.195
-15,-1,1.196
-12,-5,1.197
-2,-7,1.198
12,-3,1.199
22,0,1.2
23,3,1.201
18,5,1.202
11,2,1.203
2,0,1.204
-6,0,1.205
-15,0,1.206
-18,-3,1.207
-16,-6,1.208
-10,-4,1.209
-2,-3,1.21
5,-3,1.211
11,-2,1.212
17,-1,1.213
22,0,1.214
27,-2,1.215
23,-4,1.216
14,-7,1.217
12,-4,1.218
17,-1,1.219
20,2,1.22
13,3,1.221
1,4,1.222
-6,5,1.223
-7,4,1.224
-6,1,1.225
-2,0,1.226
7,0,1.227
14,2,1.228
14,0,1.229
11,-3,1.23
9,-3,1.231
5,0,1.232
-2,1,1.233
-12,0,1.234
-18,0,1.235
-20,1,1.236
-23,-1,1.237
-21,-2,1.238
-11,-1,1.239
8,0,1.24
20,1,1.241
17,0,1.242
3,-4,1.243
-5,-3,1.244
-4,-2,1.245
-1,-1,1.246
1,-3,1.247
1,-4,1.248
1,-1,1.249
1,1,1.25
1,2,1.251
1,0,1.252
3,-1,1.253
4,-4,1.254
4,-5,1.255
0,-4,1.256
-2,-6,1.257
-4,-4,1.258
-2,-2,1.259
-1,2,1.26
-2,4,1.261
-1,5,1.262
2,4,1.263
10,2,1.264
16,0,1.265
18,0,1.266
14,1,1.267
9,-2,1.268
4,-3,1.269
4,1,1.27
6,5,1.271
8,0,1.272
8,-7,1.273
5,-10,1.274
5,-4,1.275
6,0,1.276
4,-4,1.277
0,-8,1.278
-2,-6,1.279
1,0,1.28
4,3,1.281
1,4,1.282
-2,3,1.283
0,1,1.284
2,0,1.285
-1,2,1.286
-4,4,1.287
-6,3,1.288
-6,-2,1.289
-8,-3,1.29
-6,-1,1.291
1,0,1.292
9,0,1.293
11,-1,1.294
11,0,1.295
11,0,1.296
7,-4,1.297
0,-5,1.298
-2,-3,1.299
2,0,1.3
5,2,1.301
-2,3,1.302
-4,3,1.303
2,3,1.304
11,3,1.305
12,3,1.306
9,0,1.307
9,-3,1.308
9,-4,1.309
1,-4,1.31
-7,-2,1.311
-11,-3,1.312
-13,-1,1.313
-18,-1,1.314
-20,-1,1.315
-12,-3,1.316
2,-6,1.317
12,-4,1.318
15,0,1.319
10,1,1.32
-1,3,1.321
-12,3,1.322
-14,1,1.323
-3,-2,1.324
1,-4,1.325
-6,-2,1.326
-15,1,1.327
-12,0,1.328
0,-2,1.329
15,-2,1.33
27,-2,1.331
35,-2,1.332
38,-2,1.333
39,-1,1.334
43,3,1.335
38,4,1.336
17,0,1.337
-3,-2,1.338
-6,-2,1.339
6,-1,1.34
6,1,1.341
-7,4,1.342
-11,2,1.343
-2,-2,1.344
-1,-1,1.345
-15,3,1.346
-22,4,1.347
-11,1,1.348
5,0,1.349
9,1,1.35
3,0,1.351
-1,-5,1.352
-4,-5,1.353
-9,-3,1.354
-12,0,1.355
-11,-1,1.356
-5,-5,1.357
1,-4,1.358
7,-4,1.359
7,-3,1.36
0,-1,1.361
-5,1,1.362
-1,4,1.363
1,4,1.364
-4,3,1.365
-11,4,1.366
-5,3,1.367
8,1,1.368
15,0,1.369
12,-1,1.37
15,-3,1.371
23,-4,1.372
23,0,1.373
6,0,1.374
-15,-1,1.375
-27,-4,1.376
-27,-7,1.377
-19,-5,1.378
-4,-2,1.379
12,-1,1.38
22,4,1.381
27,8,1.382
29,5,1.383
28,-1,1.384
11,-3,1.385
-12,1,1.386
-19,1,1.387
0,-3,1.388
16,-3,1.389
7,0,1.39
-15,4,1.391
-25,2,1.392
-20,1,1.393
-14,-2,1.394
-8,-5,1.395
1,-9,1.396
14,-12,1.397
22,-10,1.398
25,-5,1.399
31,-2,1.4
37,3,1.401
37,8,1.402
31,8,1.403
27,2,1.404
33,-2,1.405
37,-1,1.406
29,2,1.407
12,0,1.408
-7,-1,1.409
-17,0,1.41
-18,0,1.411
-16,-1,1.412
-13,-1,1.413
-10,2,1.414
-8,1,1.415
-7,-7,1.416
-7,-13,1.417
-17,-8,1.418
-38,0,1.419
-65,4,1.42
-87,3,1.421
-97,5,1.422
-92,6,1.423
-67,4,1.424
-24,0,1.425
22,-1,1.426
59,-2,1.427
76,-4,1.428
82,-6,1.429
86,-5,1.43
96,-3,1.431
104,-1,1.432
91,1,1.433
52,2,1.434
23,3,1.435
26,0,1.436
42,-4,1.437
28,-2,1.438
-3,-1,1.439
-18,-1,1.44
-16,-1,1.441
-20,0,1.442
-36,-1,1.443
-50,-6,1.444
-53,-7,1.445
-52,-4,1.446
-45,-3,1.447
-24,-4,1.448
-2,-3,1.449
5,0,1.45
3,2,1.451
0,0,1.452
-4,1,1.453
-14,4,1.454
-11,5,1.455
7,2,1.456
20,-5,1.457
15,-6,1.458
10,-3,1.459
17,-1,1.46
18,3,1.461
5,4,1.462
-10,4,1.463
-11,2,1.464
-6,2,1.465
-5,2,1.466
-4,-1,1.467
3,-4,1.468
5,-3,1.469
-1,-1,1.47
-5,-1,1.471
-3,-5,1.472
-4,-4,1.473
-14,0,1.474
-20,4,1.475
-24,2,1.476
-20,-3,1.477
-13,-3,1.478
-1,-1,1.479
9,0,1.48
17,1,1.481
23,4,1.482
22,4,1.483
21,3,1.484
23,1,1.485
23,0,1.486
17,0,1.487
14,0,1.488
20,-1,1.489
25,-1,1.49
23,-3,1.491
18,-5,1.492
3,-4,1.493
-7,-4,1.494
-2,-4,1.495
3,-3,1.496
-2,-4,1.497
-13,-5,1.498
-13,-3,1.499
1,-1,1.5
18,0,1.501
25,3,1.502
24,4,1.503
16,5,1.504
3,6,1.505
-8,7,1.506
-10,5,1.507
-7,3,1.508
-7,-1,1.509
-9,-4,1.51
-9,1,1.511
-9,4,1.512
-11,-1,1.513
-13,-6,1.514
-14,-5,1.515
-19,-2,1.516
-26,-7,1.517
-25,-10,1.518
-8,-8,1.519
13,-2,1.52
16,3,1.521
-6,5,1.522
-34,4,1.523
-52,3,1.524
-50,3,1.525
-27,6,1.526
7,5,1.527
38,-1,1.528
54,-7,1.529
62,-7,1.53
76,-3,1.531
99,-2,1.532
114,-2,1.533
92,-3,1.534
35,-4,1.535
-15,-2,1.536
-20,-4,1.537
5,-3,1.538
13,-2,1.539
-7,-4,1.54
-20,-1,1.541
-7,3,1.542
3,1,1.543
-16,0,1.544
-48,0,1.545
-61,1,1.546
-50,-3,1.547
-34,-9,1.548
-22,-7,1.549
-7,3,1.55
13,9,1.551
21,10,1.552
16,9,1.553
3,7,1.554
-2,4,1.555
-4,-1,1.556
-3,-7,1.557
4,-7,1.558
23,-7,1.559
49,-6,1.56
62,0,1.561
58,7,1.562
47,6,1.563
45,-1,1.564
47,-6,1.565
37,-5,1.566
2,-2,1.567
-49,-3,1.568
-89,-4,1.569
-91,-1,1.57
-46,1,1.571
18,0,1.572
59,-1,1.573
52,-1,1.574
5,0,1.575
-52,-2,1.576
-92,-8,1.577
-100,-7,1.578
-79,0,1.579
-31,7,1.58
21,8,1.581
43,6,1.582
24,5,1.583
1,5,1.584
14,3,1.585
47,0,1.586
55,-2,1.587
32,-3,1.588
16,-1,1.589
25,0,1.59
32,1,1.591
14,-1,1.592
-7,0,1.593
-16,3,1.594
-16,5,1.595
-20,2,1.596
-20,-6,1.597
-7,-7,1.598
1,-5,1.599
-9,-1,1.6
-31,0,1.601
-35,1,1.602
-16,2,1.603
2,3,1.604
10,2,1.605
23,2,1.606
51,1,1.607
76,0,1.608
73,-3,1.609
47,-5,1.61
27,-6,1.611
23,-7,1.612
10,-5,1.613
-58,-6,1.614
-164,-8,1.615
-208,-8,1.616
-97,-9,1.617
114,-9,1.618
252,-9,1.619
225,-8,1.62
116,-2,1.621
40,1,1.622
0,1,1.623
-56,-1,1.624
-109,-1,1.625
-113,2,1.626
-95,6,1.627
-108,7,1.628
-116,9,1.629
-42,11,1.63
80,10,1.631
125,4,1.632
50,-2,1.633
-69,-5,1.634
-104,-7,1.635
-29,-9,1.636
86,-14,1.637
145,-11,1.638
118,-7,1.639
42,-4,1.64
-13,-2,1.641
-16,0,1.642
7,2,1.643
17,3,1.644
8,6,1.645
-4,11,1.646
-13,16,1.647
-16,16,1.648
-8,11,1.649
3,3,1.65
-9,0,1.651
-44,1,1.652
-63,6,1.653
-49,2,1.654
-15,-6,1.655
12,-10,1.656
36,-11,1.657
64,-5,1.658
90,-4,1.659
99,-4,1.66
90,-2,1.661
65,-1,1.662
16,-4,1.663
-41,-10,1.664
-70,-7,1.665
-60,0,1.666
-49,1,1.667
-65,-4,1.668
-75,-4,1.669
-42,7,1.67
15,14,1.671
38,8,1.672
27,2,1.673
25,3,1.674
45,7,1.675
49,0,1.676
17,-13,1.677
-18,-12,1.678
-22,-1,1.679
-10,7,1.68
-11,7,1.681
-20,4,1.682
-14,2,1.683
-2,-2,1.684
0,-6,1.685
-12,-4,1.686
-29,-1,1.687
-49,-2,1.688
-69,-5,1.689
-65,-7,1.69
-23,-6,1.691
35,-4,1.692
69,-1,1.693
61,-2,1.694
40,-5,1.695
38,-5,1.696
64,-5,1.697
83,-3,1.698
56,-4,1.699
-17,-3,1.7
-93,3,1.701
-116,9,1.702
-77,8,1.703
-24,2,1.704
6,0,1.705
35,2,1.706
95,3,1.707
143,-1,1.708
107,-1,1.709
13,0,1.71
-23,0,1.711
44,-3,1.712
115,-5,1.713
89,-4,1.714
-6,-2,1.715
-67,-3,1.716
-59,-5,1.717
-36,-5,1.718
-27,-5,1.719
-9,-3,1.72
21,1,1.721
23,9,1.722
-19,12,1.723
-62,7,1.724
-71,2,1.725
-62,5,1.726
-60,12,1.727
-53,14,1.728
-11,9,1.729
56,3,1.73
93,0,1.731
52,0,1.732
-28,-1,1.733
-85,-2,1.734
-75,-4,1.735
-26,-6,1.736
10,-9,1.737
28,-9,1.738
44,-5,1.739
54,-1,1.74
44,1,1.741
22,2,1.742
9,1,1.743
2,-3,1.744
-3,-6,1.745
-5,-4,1.746
4,-1,1.747
11,-1,1.748
0,-3,1.749
-11,-1,1.75
-7,2,1.751
6,3,1.752
4,5,1.753
-7,5,1.754
-8,2,1.755
2,-4,1.756
5,-12,1.757
-1,-13,1.758
0,-10,1.759
10,-5,1.76
12,3,1.761
1,9,1.762
-3,6,1.763
3,0,1.764
7,-2,1.765
6,2,1.766
6,2,1.767
11,-1,1.768
10,-3,1.769
7,-1,1.77
6,2,1.771
8,-2,1.772
5,-3,1.773
0,-2,1.774
-4,-1,1.775
-4,-2,1.776
-5,-7,1.777
-2,-6,1.778
7,-2,1.779
17,0,1.78
15,3,1.781
8,6,1.782
0,5,1.783
-2,0,1.784
-4,-3,1.785
-3,-3,1.786
4,-1,1.787
8,0,1.788
5,0,1.789
0,2,1.79
-1,1,1.791
-1,-2,1.792
0,-2,1.793
2,-2,1.794
9,-2,1.795
10,-2,1.796
2,-5,1.797
-5,-5,1.798
-3,-4,1.799
7,-3,1.8
14,0,1.801
12,6,1.802
9,6,1.803
2,3,1.804
-5,2,1.805
-11,4,1.806
-11,5,1.807
-10,1,1.808
-15,0,1.809
-21,1,1.81
-19,-1,1.811
-13,-3,1.812
-13,0,1.813
-17,0,1.814
-10,-2,1.815
6,-7,1.816
16,-9,1.817
7,-3,1.818
-6,-1,1.819
5,-1,1.82
29,0,1.821
30,4,1.822
-5,5,1.823
-35,1,1.824
-15,0,1.825
41,4,1.826
76,6,1.827
72,1,1.828
66,-4,1.829
75,-4,1.83
72,-2,1.831
38,-5,1.832
1,-6,1.833
-15,-7,1.834
-16,-6,1.835
-18,-4,1.836
-12,-4,1.837
11,-1,1.838
31,1,1.839
22,4,1.84
-4,6,1.841
-14,6,1.842
-3,2,1.843
1,-4,1.844
-19,-4,1.845
-46,3,1.846
-58,9,1.847
-45,7,1.848
-20,0,1.849
-2,-6,1.85
-2,-9,1.851
-12,-8,1.852
-24,-3,1.853
-40,0,1.854
-61,1,1.855
-75,0,1.856
-59,-4,1.857
-10,-7,1.858
45,-7,1.859
71,-5,1.86
57,-2,1.861
30,1,1.862
16,1,1.863
10,-1,1.864
-9,-3,1.865
-47,-2,1.866
-81,-2,1.867
-87,-3,1.868
-67,-5,1.869
-31,-7,1.87
21,-7,1.871
85,-6,1.872
124,-7,1.873
97,-6,1.874
27,-3,1.875
-15,-1,1.876
14,-2,1.877
67,-2,1.878
82,4,1.879
59,11,1.88
52,15,1.881
83,16,1.882
102,8,1.883
59,0,1.884
-28,-1,1.885
-96,-3,1.886
-108,-3,1.887
-92,-3,1.888
-86,-4,1.889
-73,-5,1.89
-22,-3,1.891
53,-1,1.892
102,-2,1.893
91,-3,1.894
40,0,1.895
-9,4,1.896
-21,3,1.897
1,3,1.898
24,4,1.899
15,4,1.9
-19,4,1.901
-40,5,1.902
-27,6,1.903
-4,2,1.904
-2,-3,1.905
-15,-4,1.906
-19,-3,1.907
-13,0,1.908
-13,-1,1.909
-18,-1,1.91
-14,-3,1.911
-5,-7,1.912
-1,-9,1.913
-5,-9,1.914
-5,-5,1.915
-4,0,1.916
-9,0,1.917
-15,3,1.918
-13,4,1.919
-7,4,1.92
-5,3,1.921
-12,3,1.922
-19,1,1.923
-29,0,1.924
-44,0,1.925
-52,3,1.926
-42,1,1.927
-19,-7,1.928
-1,-10,1.929
16,-5,1.93
61,-1,1.931
143,-1,1.932
210,-3,1.933
196,-3,1.934
108,-3,1.935
34,-6,1.936
28,-13,1.937
39,-11,1.938
6,-3,1.939
-43,-1,1.94
-48,0,1.941
-18,-1,1.942
-5,-2,1.943
-11,-3,1.944
-13,-6,1.945
-16,-4,1.946
-39,-1,1.947
-57,-2,1.948
-43,-2,1.949
-15,3,1.95
-6,10,1.951
-11,11,1.952
-9,8,1.953
-12,4,1.954
-30,4,1.955
-51,2,1.956
-48,-3,1.957
-26,-3,1.958
-11,3,1.959
-9,10,1.96
-6,12,1.961
11,9,1.962
36,5,1.963
51,0,1.964
46,-2,1.965
28,-4,1.966
18,-4,1.967
16,-6,1.968
15,-5,1.969
9,-2,1.97
8,-1,1.971
11,-1,1.972
14,0,1.973
17,-3,1.974
25,-6,1.975
28,-11,1.976
4,-15,1.977
-46,-11,1.978
-92,-2,1.979
-94,1,1.98
-43,-1,1.981
35,-2,1.982
101,0,1.983
118,5,1.984
72,8,1.985
0,8,1.986
-56,2,1.987
-74,0,1.988
-72,1,1.989
-62,4,1.99
-34,4,1.991
8,-1,1.992
35,-3,1.993
25,-2,1.994
3,0,1.995
-3,0,1.996
0,-8,1.997
-9,-8,1.998
-24,-5,1.999
-30,0,2.0
-44,4,2.001
-77,6,2.002
-89,5,2.003
-35,2,2.004
48,-1,2.005
83,-1,2.006
74,0,2.007
98,1,2.008
168,0,2.009
197,-1,2.01
132,-3,2.011
46,-3,2.012
25,0,2.013
55,1,2.014
65,0,2.015
22,-1,2.016
-28,-4,2.017
-51,-2,2.018
-50,-2,2.019
-45,-5,2.02
-43,-7,2.021
-44,-7,2.022
-47,-4,2.023
-44,-2,2.024
-36,-1,2.025
-33,-2,2.026
-37,-1,2.027
-34,3,2.028
-22,8,2.029
-15,7,2.03
-18,3,2.031
-19,0,2.032
-16,3,2.033
-13,3,2.034
-15,0,2.035
-16,-1,2.036
-9,-3,2.037
-3,-3,2.038
1,-2,2.039
16,1,2.04
38,8,2.041
51,10,2.042
41,4,2.043
10,-5,2.044
-20,-7,2.045
-31,-4,2.046
-21,-3,2.047
-13,-3,2.048
-25,-4,2.049
-52,-2,2.05
-57,-4,2.051
-18,-7,2.052
33,-5,2.053
49,-4,2.054
18,-4,2.055
-7,-6,2.056
20,-8,2.057
69,-5,2.058
79,-2,2.059
48,0,2.06
30,4,2.061
63,7,2.062
109,4,2.063
106,-1,2.064
47,-3,2.065
-20,-1,2.066
-45,0,2.067
-30,-2,2.068
-17,-1,2.069
-27,0,2.07
-44,0,2.071
-44,-1,2.072
-28,2,2.073
-23,6,2.074
-23,5,2.075
-22,0,2.076
-16,-8,2.077
-11,-5,2.078
-7,1,2.079
-1,5,2.08
4,8,2.081
0,11,2.082
-4,12,2.083
3,10,2.084
12,8,2.085
9,6,2.086
3,4,2.087
5,-2,2.088
12,-5,2.089
11,-3,2.09
6,1,2.091
5,3,2.092
8,1,2.093
2,-2,2.094
-7,-6,2.095
-15,-4,2.096
-16,-5,2.097
-11,-8,2.098
1,-9,2.099
13,-7,2.1
13,-3,2.101
0,0,2.102
-7,-1,2.103
-5,-2,2.104
2,-3,2.105
3,-5,2.106
6,-6,2.107
15,-6,2.108
17,-3,2.109
-11,-2,2.11
-65,-3,2.111
-108,-4,2.112
-101,-1,2.113
-44,-1,2.114
19,-3,2.115
56,-7,2.116
85,-8,2.117
130,-5,2.118
171,-4,2.119
162,-1,2.12
103,4,2.121
39,9,2.122
3,8,2.123
-20,5,2.124
-43,1,2.125
-54,1,2.126
-45,4,2.127
-34,6,2.128
-41,6,2.129
-51,1,2.13
-45,-4,2.131
-27,-4,2.132
-13,0,2.133
-3,-1,2.134
14,-7,2.135
34,-8,2.136
54,-7,2.137
64,-2,2.138
40,0,2.139
16,0,2.14
-4,4,2.141
-20,8,2.142
-18,10,2.143
-17,9,2.144
-17,4,2.145
-18,-1,2.146
-18,-7,2.147
-19,-5,2.148
-18,-2,2.149
-17,-1,2.15
-16,0,2.151
-15,0,2.152
-13,3,2.153
-10,0,2.154
-8,-6,2.155
-11,-6,2.156
-16,-3,2.157
-12,2,2.158
-2,2,2.159
6,0,2.16
8,0,2.161
6,3,2.162
5,3,2.163
5,0,2.164
5,-2,2.165
5,-2,2.166
7,-2,2.167
8,-4,2.168
8,-4,2.169
8,0,2.17
9,0,2.171
9,-2,2.172
8,-3,2.173
3,-3,2.174
0,-3,2.175
0,-3,2.176
2,-7,2.177
5,-7,2.178
9,-3,2.179
15,0,2.18
13,1,2.181
4,1,2.182
1,2,2.183
5,2,2.184
6,1,2.185
-1,0,2.186
-12,-2,2.187
-16,-3,2.188
-16,-5,2.189
-14,-6,2.19
-8,-4,2.191
3,-1,2.192
7,2,2.193
-2,0,2.194
-15,0,2.195
-16,-1,2.196
-1,-1,2.197
23,0,2.198
41,1,2.199
38,3,2.2
15,3,2.201
-6,4,2.202
0,2,2.203
29,1,2.204
56,2,2.205
62,2,2.206
50,0,2.207
28,-2,2.208
12,0,2.209
6,1,2.21
-2,-1,2.211
-33,-4,2.212
-76,-4,2.213
-97,-2,2.214
-61,0,2.215
11,-2,2.216
77,-7,2.217
113,-7,2.218
118,-6,2.219
93,-7,2.22
50,-5,2.221
13,-1,2.222
-4,5,2.223
-26,10,2.224
-65,12,2.225
-94,11,2.226
-83,7,2.227
-46,3,2.228
-20,2,2.229
-11,2,2.23
0,4,2.231
13,2,2.232
12,0,2.233
-4,-4,2.234
-13,-8,2.235
-10,-10,2.236
-6,-10,2.237
-8,-9,2.238
-6,-8,2.239
0,-6,2.24
3,1,2.241
-3,9,2.242
-7,11,2.243
-4,12,2.244
1,15,2.245
3,14,2.246
4,4,2.247
2,-8,2.248
-1,-10,2.249
-3,-6,2.25
-6,-2,2.251
-13,-3,2.252
-22,-5,2.253
-23,-7,2.254
-9,-9,2.255
4,-9,2.256
17,-7,2.257
28,-1,2.258
34,-2,2.259
40,-4,2.26
39,-1,2.261
27,6,2.262
-17,4,2.263
-44,-4,2.264
-16,-7,2.265
17,-4,2.266
64,0,2.267
94,-2,2.268
70,-5,2.269
46,-4,2.27
26,-4,2.271
1,-5,2.272
-32,-5,2.273
-62,-3,2.274
-47,0,2.275
1,1,2.276
35,-2,2.277
20,-4,2.278
-22,-1,2.279
-36,2,2.28
-10,6,2.281
21,8,2.282
22,4,2.283
-1,0,2.284
-21,-1,2.285
-25,-2,2.286
-20,-2,2.287
-12,0,2.288
-4,1,2.289
7,5,2.29
13,9,2.291
8,12,2.292
3,9,2.293
16,3,2.294
24,-1,2.295
1,-2,2.296
-40,-6,2.297
-62,-7,2.298
-45,-5,2.299
-26,-3,2.3
-31,0,2.301
-42,1,2.302
-23,0,2.303
16,-1,2.304
36,-2,2.305
16,0,2.306
-7,1,2.307
4,-2,2.308
52,-7,2.309
95,-7,2.31
94,-2,2.311
55,-1,2.312
25,-2,2.313
25,-2,2.314
41,-1,2.315
42,-5,2.316
35,-12,2.317
39,-10,2.318
52,-2,2.319
51,3,2.32
28,4,2.321
1,3,2.322
-19,4,2.323
-42,3,2.324
-72,2,2.325
-91,1,2.326
-80,2,2.327
-42,1,2.328
-2,2,2.329
15,3,2.33
-1,1,2.331
-33,-3,2.332
-55,-5,2.333
-54,-1,2.334
-38,5,2.335
-29,8,2.336
-25,2,2.337
-6,-4,2.338
27,-7,2.339
44,-5,2.34
36,1,2.341
23,8,2.342
31,6,2.343
43,0,2.344
32,-3,2.345
3,-3,2.346
-11,-2,2.347
-3,-2,2.348
5,-2,2.349
-4,-1,2.35
-18,-2,2.351
-19,-5,2.352
-16,-4,2.353
-15,-5,2.354
-12,-6,2.355
-4,-6,2.356
1,-5,2.357
-4,-2,2.358
-8,1,2.359
-1,5,2.36
8,8,2.361
7,9,2.362
15,5,2.363
47,-1,2.364
80,0,2.365
77,5,2.366
35,6,2.367
-13,-1,2.368
-46,-6,2.369
-70,-5,2.37
-67,-4,2.371
-18,-6,2.372
49,-6,2.373
86,-4,2.374
72,-2,2.375
46,-2,2.376
37,-7,2.377
28,-9,2.378
5,-8,2.379
-18,-4,2.38
-20,2,2.381
-13,9,2.382
-8,8,2.383
-1,0,2.384
12,-4,2.385
17,-1,2.386
-2,3,2.387
-34,2,2.388
-55,0,2.389
-43,-1,2.39
-1,-2,2.391
49,-6,2.392
92,-7,2.393
120,-5,2.394
109,-3,2.395
31,-3,2.396
-93,-3,2.397
-187,0,2.398
-188,3,2.399
-124,3,2.4
-71,3,2.401
-58,6,2.402
-46,6,2.403
-1,2,2.404
62,0,2.405
110,0,2.406
127,1,2.407
128,-3,2.408
124,-5,2.409
110,-4,2.41
68,-3,2.411
12,-3,2.412
-25,-4,2.413
-33,-4,2.414
-23,-2,2.415
-19,-2,2.416
-23,-6,2.417
-25,-7,2.418
-22,-7,2.419
-22,-6,2.42
-19,-4,2.421
-11,3,2.422
-4,6,2.423
-7,4,2.424
-10,1,2.425
-7,1,2.426
1,2,2.427
3,2,2.428
0,5,2.429
-3,11,2.43
-5,11,2.431
-5,3,2.432
-2,-3,2.433
-2,-3,2.434
-4,0,2.435
-13,1,2.436
-19,-3,2.437
-14,-6,2.438
1,-4,2.439
19,-3,2.44
26,-2,2.441
20,0,2.442
12,1,2.443
10,3,2.444
9,0,2.445
0,-3,2.446
-18,-3,2.447
-32,-3,2.448
-34,-4,2.449
-21,-6,2.45
2,-5,2.451
27,-4,2.452
46,-4,2.453
51,-2,2.454
49,0,2.455
38,0,2.456
16,-4,2.457
-14,-4,2.458
-33,0,2.459
-28,1,2.46
-7,1,2.461
19,2,2.462
38,1,2.463
44,-1,2.464
33,-3,2.465
12,1,2.466
-2,3,2.467
-8,-1,2.468
-19,-7,2.469
-38,-7,2.47
-57,-2,2.471
-76,0,2.472
-101,0,2.473
-128,-2,2.474
-120,-1,2.475
-51,1,2.476
58,0,2.477
148,0,2.478
179,-2,2.479
164,-2,2.48
140,2,2.481
115,7,2.482
77,7,2.483
25,1,2.484
-7,0,2.485
-1,3,2.486
25,5,2.487
34,2,2.488
15,-2,2.489
-19,-3,2.49
-49,-4,2.491
-68,-5,2.492
-78,-3,2.493
-83,-4,2.494
-68,-6,2.495
-36,-6,2.496
-6,-3,2.497
3,4,2.498
-8,6,2.499
-21,6,2.5
-21,8,2.501
-9,10,2.502
7,6,2.503
18,0,2.504
27,-3,2.505
38,-1,2.506
58,2,2.507
67,3,2.508
35,2,2.509
-39,0,2.51
-111,0,2.511
-134,-1,2.512
-109,0,2.513
-69,-3,2.514
-39,-7,2.515
-25,-8,2.516
-23,-8,2.517
-26,-3,2.518
-8,-1,2.519
44,-2,2.52
90,-2,2.521
91,0,2.522
64,0,2.523
52,-2,2.524
49,5,2.525
15,30,2.526
-49,66,2.527
-90,85,2.528
-73,55,2.529
-10,-13,2.53
66,-72,2.531
130,-84,2.532
160,-60,2.533
145,-37,2.534
101,-36,2.535
49,-42,2.536
-3,-41,2.537
-45,-31,2.538
-61,-23,2.539
-45,-13,2.54
-21,11,2.541
-14,51,2.542
-19,84,2.543
-20,85,2.544
-15,47,2.545
-7,-3,2.546
-3,-35,2.547
-20,-42,2.548
-67,-45,2.549
-109,-47,2.55
-89,-40,2.551
-13,-16,2.552
44,5,2.553
39,16,2.554
12,34,2.555
21,74,2.556
61,123,2.557
87,152,2.558
80,138,2.559
54,85,2.56
11,9,2.561
-34,-77,2.562
-54,-153,2.563
-31,-185,2.564
9,-158,2.565
36,-107,2.566
49,-72,2.567
54,-44,2.568
42,16,2.569
12,97,2.57
-14,128,2.571
-17,64,2.572
-9,-36,2.573
-12,-104,2.574
-19,-95,2.575
-24,-45,2.576
-20,-7,2.577
-20,5,2.578
-38,-1,2.579
-53,-14,2.58
-57,-18,2.581
-43,-1,2.582
22,29,2.583
71,47,2.584
68,47,2.585
56,43,2.586
20,50,2.587
-12,54,2.588
-28,45,2.589
-41,28,2.59
-42,19,2.591
-39,22,2.592
-19,26,2.593
-3,17,2.594
3,8,2.595
34,4,2.596
56,0,2.597
37,-2,2.598
16,-5,2.599
36,-7,2.6
68,-4,2.601
49,-2,2.602
-5,-3,2.603
-31,-8,2.604
-13,-15,2.605
-1,-18,2.606
-21,-16,2.607
-44,-14,2.608
-36,-15,2.609
-14,-15,2.61
0,-11,2.611
11,-6,2.612
28,0,2.613
33,0,2.614
3,-5,2.615
-56,-11,2.616
-114,-12,2.617
-137,-7,2.618
-109,-2,2.619
-25,-2,2.62
81,-2,2.621
155,0,2.622
156,4,2.623
106,5,2.624
49,2,2.625
5,1,2.626
-30,2,2.627
-60,1,2.628
-69,6,2.629
-53,22,2.63
-27,40,2.631
-3,39,2.632
16,11,2.633
26,-30,2.634
29,-52,2.635
35,-39,2.636
58,-11,2.637
94,17,2.638
140,46,2.639
190,95,2.64
219,175,2.641
178,261,2.642
46,271,2.643
-100,132,2.644
-158,-103,2.645
-117,-279,2.646
-77,-298,2.647
-115,-235,2.648
-182,-204,2.649
-189,-195,2.65
-131,-141,2.651
-76,-72,2.652
-55,-65,2.653
-46,-105,2.654
-30,-85,2.655
-19,3,2.656
-27,60,2.657
-24,47,2.658
12,24,2.659
46,39,2.66
74,63,2.661
91,72,2.662
71,83,2.663
51,100,2.664
33,101,2.665
19,81,2.666
19,65,2.667
19,61,2.668
24,52,2.669
32,39,2.67
45,43,2.671
49,68,2.672
19,100,2.673
-7,139,2.674
-7,170,2.675
20,146,2.676
36,47,2.677
20,-73,2.678
2,-149,2.679
6,-174,2.68
16,-183,2.681
10,-178,2.682
5,-141,2.683
17,-90,2.684
25,-58,2.685
4,-35,2.686
-29,13,2.687
-40,83,2.688
-33,128,2.689
-29,116,2.69
-26,55,2.691
-19,-19,2.692
-12,-69,2.693
-17,-91,2.694
-16,-85,2.695
8,-62,2.696
42,-35,2.697
49,-9,2.698
26,3,2.699
0,6,2.7
-7,12,2.701
2,23,2.702
9,24,2.703
1,12,2.704
-10,10,2.705
-16,19,2.706
-12,26,2.707
-8,21,2.708
-16,17,2.709
-34,22,2.71
-50,27,2.711
-45,18,2.712
-12,9,2.713
-99,2,2.714
-113,3,2.715
-129,2,2.716
-160,0,2.717
-165,-2,2.718
-100,-1,2.719
-34,1,2.72
30,8,2.721
80,13,2.722
82,8,2.723
77,-2,2.724
49,-5,2.725
18,1,2.726
-16,3,2.727
-36,-1,2.728
-11,-6,2.729
6,-3,2.73
-7,0,2.731
-20,-5,2.732
-34,-9,2.733
-113,-12,2.734
-129,-10,2.735
-149,-9,2.736
-185,-9,2.737
-192,-9,2.738
-114,-4,2.739
-35,0,2.74
42,-1,2.741
101,-3,2.742
104,-5,2.743
98,-7,2.744
64,-8,2.745
28,-8,2.746
-13,-2,2.747
-38,5,2.748
-7,13,2.749
13,19,2.75
-2,17,2.751
-18,15,2.752
-35,14,2.753
-56,12,2.754
-85,10,2.755
-95,5,2.756
-44,-2,2.757
44,-4,2.758
100,-6,2.759
89,-11,2.76
46,-15,2.761
4,-12,2.762
-41,-9,2.763
-91,-13,2.764
-93,-20,2.765
-16,-18,2.766
84,-9,2.767
115,-5,2.768
74,-2,2.769
31,0,2.77
15,3,2.771
-11,0,2.772
-55,-3,2.773
-76,-3,2.774
-51,0,2.775
-38,4,2.776
-61,5,2.777
-67,7,2.778
-13,3,2.779
77,-7,2.78
150,-9,2.781
193,6,2.782
200,42,2.783
145,80,2.784
27,102,2.785
-80,98,2.786
-117,86,2.787
-119,85,2.788
-145,61,2.789
-165,-38,2.79
-104,-184,2.791
13,-262,2.792
88,-221,2.793
94,-122,2.794
86,-55,2.795
93,-24,2.796
66,16,2.797
-7,92,2.798
-48,189,2.799
-21,286,2.8
14,308,2.801
4,156,2.802
-22,-130,2.803
-41,-339,2.804
-76,-309,2.805
-114,-119,2.806
-78,21,2.807
42,13,2.808
141,-79,2.809
144,-159,2.81
103,-185,2.811
94,-153,2.812
91,-77,2.813
49,15,2.814
3,88,2.815
-32,125,2.816
-33,125,2.817
-41,102,2.818
-65,77,2.819
-90,63,2.82
-122,60,2.821
-139,54,2.822
-111,47,2.823
-57,44,2.824
74,42,2.825
168,31,2.826
148,16,2.827
115,9,2.828
49,9,2.829
-6,6,2.83
-27,0,2.831
-29,-2,2.832
27,-1,2.833
82,-2,2.834
120,0,2.835
133,1,2.836
96,0,2.837
5,-4,2.838
-80,-12,2.839
-112,-16,2.84
-104,-5,2.841
-88,8,2.842
-60,32,2.843
-19,44,2.844
-6,20,2.845
-52,-9,2.846
-115,-54,2.847
-124,-74,2.848
-71,-20,2.849
-25,19,2.85
-38,10,2.851
-86,-5,2.852
-98,-38,2.853
-40,-64,2.854
45,-60,2.855
93,-42,2.856
96,-20,2.857
102,12,2.858
132,63,2.859
146,147,2.86
110,261,2.861
50,357,2.862
12,413,2.863
8,467,2.864
19,519,2.865
21,419,2.866
2,2,2.867
-27,-600,2.868
-36,-993,2.869
-4,-971,2.87
38,-744,2.871
49,-580,2.872
27,-462,2.873
-8,-251,2.874
-41,-12,2.875
-59,95,2.876
-34,97,2.877
29,136,2.878
73,205,2.879
54,212,2.88
4,183,2.881
-18,191,2.882
-19,206,2.883
-30,161,2.884
-46,108,2.885
-36,120,2.886
-12,164,2.887
-5,172,2.888
-11,147,2.889
-2,109,2.89
21,39,2.891
33,-54,2.892
14,-103,2.893
-35,-86,2.894
-81,-48,2.895
-84,-27,2.896
-32,-7,2.897
36,26,2.898
73,39,2.899
74,24,2.9
59,16,2.901
41,29,2.902
18,27,2.903
0,0,2.904
-2,-14,2.905
-9,-8,2.906
-37,-6,2.907
-67,-17,2.908
-71,-20,2.909
-52,-10,2.91
-30,-5,2.911
-3,-10,2.912
40,-8,2.913
78,-3,2.914
71,-6,2.915
18,-14,2.916
-44,-11,2.917
-95,4,2.918
-133,26,2.919
-129,53,2.92
-39,80,2.921
114,68,2.922
228,-3,2.923
227,-85,2.924
141,-112,2.925
56,-79,2.926
6,-37,2.927
-20,-17,2.928
-30,-1,2.929
-8,51,2.93
38,195,2.931
61,473,2.932
24,783,2.933
-73,883,2.934
-169,526,2.935
-182,-201,2.936
-91,-868,2.937
27,-1108,2.938
94,-932,2.939
110,-561,2.94
126,-155,2.941
143,197,2.942
111,387,2.943
36,364,2.944
-16,212,2.945
-19,35,2.946
-26,-130,2.947
-78,-241,2.948
-142,-243,2.949
-173,-191,2.95
-171,-211,2.951
-153,-290,2.952
-129,-291,2.953
-114,-165,2.954
-112,-21,2.955
-81,59,2.956
35,112,2.957
146,173,2.958
240,188,2.959
295,148,2.96
230,122,2.961
156,140,2.962
57,160,2.963
-17,150,2.964
-19,136,2.965
-20,135,2.966
-16,123,2.967
-16,88,2.968
-28,55,2.969
-42,51,2.97
-58,103,2.971
-64,207,2.972
-42,292,2.973
0,277,2.974
88,157,2.975
112,13,2.976
57,-92,2.977
-14,-172,2.978
-51,-238,2.979
-51,-237,2.98
-39,-74,2.981
-20,365,2.982
3,1119,2.983
-2,1799,2.984
-65,1583,2.985
-156,67,2.986
-195,-1892,2.987
-151,-2835,2.988
-74,-2332,2.989
-26,-1354,2.99
-7,-803,2.991
29,-490,2.992
88,16,2.993
149,605,2.994
186,829,2.995
198,767,2.996
195,807,2.997
174,911,2.998
128,711,2.999
69,174,3.0
14,-337,3.001
-27,-562,3.002
-65,-539,3.003
-125,-405,3.004
-218,-224,3.005
-325,-31,3.006
-396,140,3.007
-360,292,3.008
-185,471,3.009
54,677,3.01
229,763,3.011
304,542,3.012
374,152,3.013
516,-18,3.014
612,291,3.015
489,723,3.016
186,693,3.017
-57,181,3.018
-102,-392,3.019
-63,-833,3.02
-115,-1213,3.021
-256,-1411,3.022
-361,-1208,3.023
-346,-782,3.024
-222,-515,3.025
-42,-379,3.026
116,-85,3.027
180,296,3.028
126,440,3.029
8,370,3.03
-109,389,3.031
-180,508,3.032
-170,499,3.033
-68,362,3.034
71,363,3.035
141,542,3.036
80,640,3.037
-80,526,3.038
-251,335,3.039
-340,204,3.04
-291,112,3.041
-135,-32,3.042
26,-285,3.043
113,-607,3.044
162,-821,3.045
242,-755,3.046
337,-450,3.047
340,-72,3.048
218,324,3.049
56,693,3.05
-34,805,3.051
-42,466,3.052
-32,-59,3.053
-61,-388,3.054
-129,-386,3.055
-207,-333,3.056
-261,-409,3.057
-261,-435,3.058
-204,-290,3.059
-112,-139,3.06
14,-109,3.061
177,-61,3.062
319,143,3.063
326,413,3.064
179,596,3.065
23,660,3.066
2,618,3.067
86,501,3.068
126,449,3.069
82,547,3.07
27,535,3.071
0,10,3.072
-36,-875,3.073
-67,-1597,3.074
-36,-1618,3.075
9,-1011,3.076
91,-174,3.077
144,661,3.078
102,1262,3.079
75,1212,3.08
94,381,3.081
97,-644,3.082
49,-1116,3.083
20,-909,3.084
44,-342,3.085
63,464,3.086
64,1439,3.087
57,2020,3.088
22,1542,3.089
-15,192,3.09
-52,-1083,3.091
-86,-1693,3.092
-112,-1813,3.093
-123,-1648,3.094
-73,-1186,3.095
-3,-731,3.096
128,-296,3.097
211,61,3.098
145,189,3.099
103,342,3.1
133,573,3.101
138,764,3.102
62,833,3.103
14,862,3.104
54,768,3.105
84,563,3.106
86,27,3.107
75,-374,3.108
17,-368,3.109
-40,-308,3.11
-99,-84,3.111
-153,6,3.112
-193,-311,3.113
-229,-566,3.114
-273,-410,3.115
-316,45,3.116
-245,494,3.117
-15,761,3.118
247,746,3.119
361,404,3.12
312,-99,3.121
257,-405,3.122
299,-331,3.123
331,-53,3.124
196,154,3.125
-75,206,3.126
-281,165,3.127
-277,82,3.128
-154,7,3.129
-106,16,3.13
-183,112,3.131
-251,212,3.132
-188,285,3.133
-21,466,3.134
102,861,3.135
97,1241,3.136
45,1075,3.137
62,96,3.138
146,-1257,3.139
180,-2166,3.14
98,-2235,3.141
-13,-1709,3.142
-38,-933,3.143
10,-26,3.144
24,786,3.145
-33,1027,3.146
-85,519,3.147
-64,-235,3.148
3,-601,3.149
48,-479,3.15
54,-153,3.151
43,192,3.152
17,465,3.153
-46,538,3.154
-135,378,3.155
-195,282,3.156
-184,505,3.157
-109,799,3.158
-8,662,3.159
84,58,3.16
137,-486,3.161
137,-548,3.162
105,-285,3.163
80,-135,3.164
68,-235,3.165
19,-347,3.166
-95,-269,3.167
-213,-86,3.168
-220,24,3.169
-84,44,3.17
84,61,3.171
148,83,3.172
109,92,3.173
77,153,3.174
117,339,3.175
128,566,3.176
54,639,3.177
-10,463,3.178
-47,155,3.179
-47,-49,3.18
65,-22,3.181
162,113,3.182
215,139,3.183
223,57,3.184
91,29,3.185
-51,-49,3.186
-219,-508,3.187
-359,-1227,3.188
-418,-1492,3.189
-408,-920,3.19
-187,-83,3.191
20,267,3.192
187,163,3.193
320,29,3.194
332,-8,3.195
299,-47,3.196
146,128,3.197
-99,830,3.198
-243,1829,3.199
-174,2528,3.2
-21,2525,3.201
73,1657,3.202
148,-24,3.203
265,-1935,3.204
334,-3108,3.205
235,-3117,3.206
33,-2435,3.207
-112,-1639,3.208
-170,-804,3.209
-201,36,3.21
-201,547,3.211
-122,596,3.212
-11,528,3.213
37,579,3.214
1,607,3.215
-44,622,3.216
-56,595,3.217
-78,612,3.218
-141,766,3.219
-193,807,3.22
-183,503,3.221
-103,139,3.222
38,-402,3.223
220,-814,3.224
362,-836,3.225
371,-772,3.226
251,-448,3.227
91,-96,3.228
-38,333,3.229
-113,651,3.23
-119,632,3.231
-59,678,3.232
5,924,3.233
18,1136,3.234
-12,1001,3.235
-46,443,3.236
-85,-223,3.237
-145,-700,3.238
-183,-929,3.239
-138,-1003,3.24
-34,-939,3.241
33,-616,3.242
27,-61,3.243
7,292,3.244
35,29,3.245
89,-556,3.246
100,-692,3.247
61,-169,3.248
23,361,3.249
16,359,3.25
9,86,3.251
-25,34,3.252
-55,165,3.253
-50,194,3.254
-18,106,3.255
14,98,3.256
46,185,3.257
71,238,3.258
78,263,3.259
60,322,3.26
-36,325,3.261
-126,151,3.262
-196,-120,3.263
-238,-285,3.264
-192,-281,3.265
-102,-183,3.266
119,-40,3.267
289,160,3.268
302,394,3.269
280,578,3.27
148,624,3.271
44,475,3.272
25,170,3.273
14,-272,3.274
25,-749,3.275
2,-1135,3.276
-58,-1265,3.277
-108,-1036,3.278
-95,-580,3.279
-38,-161,3.28
5,91,3.281
22,242,3.282
45,343,3.283
72,379,3.284
68,405,3.285
22,524,3.286
-27,657,3.287
-54,577,3.288
-61,221,3.289
-57,-177,3.29
-48,-367,3.291
-40,-330,3.292
-38,-217,3.293
-37,-111,3.294
-37,-17,3.295
-44,61,3.296
-46,107,3.297
-29,145,3.298
3,217,3.299
21,315,3.3
18,345,3.301
6,229,3.302
5,18,3.303
3,-122,3.304
0,-113,3.305
0,-66,3.306
7,-134,3.307
8,-274,3.308
3,-309,3.309
5,-191,3.31
15,-45,3.311
24,46,3.312
28,138,3.313
27,283,3.314
24,389,3.315
15,331,3.316
10,111,3.317
15,-161,3.318
26,-386,3.319
28,-489,3.32
12,-443,3.321
-8,-294,3.322
-17,-139,3.323
-10,-30,3.324
0,46,3.325
9,109,3.326
12,158,3.327
17,189,3.328
20,177,3.329
18,93,3.33
9,-29,3.331
0,-95,3.332
-2,-47,3.333
-2,102,3.334
-3,291,3.335
-4,413,3.336
-1,323,3.337
2,-27,3.338
7,-427,3.339
10,-554,3.34
3,-352,3.341
-3,-98,3.342
-6,-16,3.343
-8,-35,3.344
-4,-13,3.345
-2,36,3.346
-6,43,3.347
-9,47,3.348
-4,92,3.349
-1,120,3.35
-6,84,3.351
-9,39,3.352
-4,51,3.353
2,85,3.354
2,88,3.355
-1,66,3.356
1,44,3.357
9,17,3.358
14,-23,3.359
16,-42,3.36
16,-27,3.361
15,-10,3.362
10,-13,3.363
7,-18,3.364
5,-9,3.365
4,-3,3.366
0,-6,3.367
-1,-6,3.368
0,0,3.369
1,0,3.37
2,-5,3.371
1,-2,3.372
3,6,3.373
2,4,3.374
0,-5,3.375
-5,-7,3.376
-7,-6,3.377
-6,-4,3.378
-2,-8,3.379
4,-10,3.38
10,-7,3.381
11,-3,3.382
9,1,3.383
9,2,3.384
8,-1,3.385
5,-5,3.386
3,-7,3.387
6,-3,3.388
8,-2,3.389
3,-7,3.39
-3,-9,3.391
-3,-5,3.392
4,0,3.393
7,1,3.394
5,0,3.395
-3,1,3.396
-11,-4,3.397
-12,-8,3.398
-5,-7,3.399
5,-3,3.4
8,-1,3.401
2,-2,3.402
-3,-4,3.403
-3,-4,3.404
-4,-4,3.405
-7,-1,3.406
-6,2,3.407
5,0,3.408
14,-5,3.409
10,-8,3.41
-3,-2,3.411
-21,4,3.412
-28,4,3.413
-19,0,3.414
5,-1,3.415
19,0,3.416
5,-3,3.417
-27,-5,3.418
-51,-3,3.419
-54,-1,3.42
-45,-1,3.421
-41,-1,3.422
-43,0,3.423
-23,-1,3.424
46,-2,3.425
141,0,3.426
198,2,3.427
186,0,3.428
145,-5,3.429
117,-4,3.43
88,1,3.431
37,3,3.432
3,2,3.433
19,0,3.434
45,2,3.435
8,2,3.436
-82,-5,3.437
-147,-6,3.438
-151,-3,3.439
-137,2,3.44
-127,4,3.441
-95,2,3.442
-35,0,3.443
2,-6,3.444
-2,-8,3.445
-9,-5,3.446
5,-2,3.447
19,5,3.448
20,13,3.449
28,22,3.45
41,23,3.451
14,13,3.452
-52,0,3.453
-104,-10,3.454
-69,-10,3.455
35,-2,3.456
126,3,3.457
159,7,3.458
156,5,3.459
147,-4,3.46
107,-10,3.461
-3,-7,3.462
-155,2,3.463
-245,2,3.464
-204,-8,3.465
-72,-17,3.466
39,-11,3.467
67,-1,3.468
38,-1,3.469
8,-9,3.47
2,-11,3.471
7,-7,3.472
2,-2,3.473
-10,-6,3.474
-6,-9,3.475
22,-9,3.476
54,-9,3.477
63,-12,3.478
57,-10,3.479
59,3,3.48
65,27,3.481
49,45,3.482
8,47,3.483
-31,32,3.484
-59,13,3.485
-74,2,3.486
-62,-1,3.487
-16,-4,3.488
34,-8,3.489
40,-11,3.49
2,-12,3.491
-37,-14,3.492
-55,-16,3.493
-73,-12,3.494
-82,-1,3.495
-47,8,3.496
36,9,3.497
105,8,3.498
116,2,3.499
93,-3,3.5
71,-4,3.501
50,-5,3.502
19,-7,3.503
-2,-7,3.504
-1,2,3.505
1,7,3.506
-8,1,3.507
-18,-3,3.508
-20,-7,3.509
-21,-10,3.51
-32,-10,3.511
-35,-10,3.512
-23,-9,3.513
-8,-7,3.514
1,-10,3.515
7,-14,3.516
11,-14,3.517
8,-6,3.518
2,4,3.519
0,14,3.52
-3,22,3.521
-11,22,3.522
-19,11,3.523
-12,1,3.524
3,0,3.525
9,2,3.526
-5,-1,3.527
-29,-6,3.528
-47,-6,3.529
-50,0,3.53
-42,3,3.531
-42,2,3.532
-44,3,3.533
-12,0,3.534
75,-3,3.535
157,-5,3.536
145,-4,3.537
39,5,3.538
-49,9,3.539
-56,1,3.54
-28,-8,3.541
-21,-8,3.542
-7,3,3.543
50,13,3.544
113,8,3.545
122,-5,3.546
83,-12,3.547
42,-9,3.548
19,-3,3.549
5,-2,3.55
-3,-4,3.551
-5,-4,3.552
-12,-2,3.553
-23,-4,3.554
-25,-7,3.555
-11,-7,3.556
1,0,3.557
0,13,3.558
-4,20,3.559
0,14,3.56
9,0,3.561
17,-4,3.562
20,3,3.563
13,8,3.564
-18,1,3.565
-62,-7,3.566
-95,-9,3.567
-105,3,3.568
-98,27,3.569
-81,45,3.57
-51,37,3.571
-17,-1,3.572
0,-38,3.573
-2,-1,3.574
-16,19,3.575
-44,33,3.576
-71,19,3.577
-62,7,3.578
11,1,3.579
110,-3,3.58
154,-9,3.581
125,-13,3.582
78,-5,3.583
60,3,3.584
52,3,3.585
28,1,3.586
4,-1,3.587
6,-7,3.588
23,-9,3.589
25,-9,3.59
7,-3,3.591
-11,3,3.592
-15,-1,3.593
-9,0,3.594
-4,10,3.595
-8,17,3.596
-17,10,3.597
-19,4,3.598
-11,1,3.599
-4,-1,3.6
-2,-4,3.601
-2,-6,3.602
2,-2,3.603
15,2,3.604
28,2,3.605
29,1,3.606
9,0,3.607
-26,-3,3.608
-52,-4,3.609
-48,-4,3.61
-22,-1,3.611
-1,2,3.612
5,0,3.613
1,-2,3.614
2,-4,3.615
3,-3,3.616
2,-8,3.617
0,-11,3.618
-2,-9,3.619
0,-2,3.62
4,3,3.621
6,2,3.622
3,1,3.623
3,2,3.624
13,2,3.625
27,1,3.626
36,1,3.627
32,3,3.628
22,4,3.629
15,2,3.63
10,0,3.631
5,2,3.632
1,5,3.633
-3,2,3.634
0,-2,3.635
6,-7,3.636
8,-11,3.637
1,-7,3.638
-3,2,3.639
0,9,3.64
7,9,3.641
4,10,3.642
-4,17,3.643
-5,23,3.644
-2,13,3.645
0,-13,3.646
-1,-37,3.647
-3,-40,3.648
-5,-23,3.649
-8,-1,3.65
-12,7,3.651
-15,6,3.652
-21,4,3.653
-44,-4,3.654
-82,-1,3.655
-128,0,3.656
-160,-5,3.657
-153,-8,3.658
-98,-6,3.659
-17,-3,3.66
64,1,3.661
147,5,3.662
241,9,3.663
317,12,3.664
310,14,3.665
210,14,3.666
88,7,3.667
10,1,3.668
-35,1,3.669
-92,0,3.67
-145,-1,3.671
-138,-3,3.672
-78,-3,3.673
-29,-4,3.674
-35,-1,3.675
-60,0,3.676
-46,-5,3.677
-1,-8,3.678
30,-6,3.679
30,-3,3.68
26,1,3.681
43,5,3.682
77,9,3.683
100,12,3.684
90,14,3.685
46,14,3.686
-9,7,3.687
-51,1,3.688
-71,1,3.689
-74,0,3.69
-63,-1,3.691
-44,-3,3.692
-29,-3,3.693
-24,-6,3.694
-15,-11,3.695
-10,-14,3.696
-19,-14,3.697
-39,-8,3.698
-47,-2,3.699
-34,3,3.7
-23,12,3.701
-21,18,3.702
-9,21,3.703
21,17,3.704
48,9,3.705
53,0,3.706
39,-1,3.707
22,5,3.708
2,10,3.709
-10,7,3.71
-7,1,3.711
5,1,3.712
8,0,3.713
-3,-13,3.714
-4,-29,3.715
5,-32,3.716
11,-27,3.717
9,-16,3.718
10,-9,3.719
17,-7,3.72
16,-3,3.721
9,0,3.722
8,0,3.723
13,-3,3.724
15,-1,3.725
11,6,3.726
6,11,3.727
8,8,3.728
7,3,3.729
3,1,3.73
0,3,3.731
0,5,3.732
3,7,3.733
5,5,3.734
5,1,3.735
-1,-5,3.736
-7,-15,3.737
-7,-18,3.738
-1,-11,3.739
6,0,3.74
6,9,3.741
2,9,3.742
3,4,3.743
5,0,3.744
6,1,3.745
4,3,3.746
3,2,3.747
2,-2,3.748
1,-4,3.749
2,-3,3.75
2,1,3.751
3,4,3.752
4,4,3.753
3,5,3.754
0,3,3.755
-6,1,3.756
-12,-3,3.757
-10,-5,3.758
-1,-1,3.759
7,3,3.76
6,3,3.761
0,3,3.762
-2,4,3.763
-1,4,3.764
-1,1,3.765
-2,-1,3.766
0,-1,3.767
10,0,3.768
18,1,3.769
16,2,3.77
5,2,3.771
-2,1,3.772
2,1,3.773
15,0,3.774
24,0,3.775
19,-1,3.776
12,-5,3.777
20,-4,3.778
44,1,3.779
61,4,3.78
49,4,3.781
15,4,3.782
-10,5,3.783
-16,4,3.784
-17,0,3.785
-20,-6,3.786
-21,-6,3.787
-15,-5,3.788
-7,-6,3.789
-7,-11,3.79
-10,-15,3.791
-10,-8,3.792
-8,0,3.793
-10,3,3.794
-12,0,3.795
-14,1,3.796
-15,4,3.797
-14,6,3.798
-8,1,3.799
-2,-4,3.8
3,-5,3.801
6,-2,3.802
4,3,3.803
3,7,3.804
8,9,3.805
11,4,3.806
5,-5,3.807
1,-13,3.808
0,-12,3.809
-1,-7,3.81
-2,-4,3.811
-3,-3,3.812
-2,0,3.813
0,4,3.814
3,9,3.815
1,12,3.816
-5,6,3.817
-11,1,3.818
-6,-2,3.819
0,-4,3.82
-4,0,3.821
-16,2,3.822
-19,0,3.823
-9,-1,3.824
1,-3,3.825
9,-5,3.826
17,-6,3.827
22,-6,3.828
21,0,3.829
21,4,3.83
28,4,3.831
34,3,3.832
29,2,3.833
16,0,3.834
15,-6,3.835
24,-6,3.836
26,-4,3.837
15,-1,3.838
3,-2,3.839
2,-4,3.84
0,0,3.841
-8,3,3.842
-11,3,3.843
-8,0,3.844
-4,0,3.845
-3,2,3.846
-3,0,3.847
-2,-4,3.848
-5,-1,3.849
-12,5,3.85
-11,7,3.851
-6,3,3.852
-2,1,3.853
-4,2,3.854
-6,0,3.855
-10,-4,3.856
-14,-7,3.857
-16,-4,3.858
-9,1,3.859
-3,3,3.86
-3,1,3.861
-1,-1,3.862
0,-3,3.863
3,-1,3.864
1,0,3.865
0,0,3.866
4,-3,3.867
8,-4,3.868
13,-2,3.869
17,1,3.87
21,2,3.871
24,1,3.872
28,2,3.873
31,-11,3.874
18,-6,3.875
-1,-2,3.876
-9,-4,3.877
0,-7,3.878
18,-5,3.879
21,-2,3.88
13,7,3.881
5,15,3.882
7,12,3.883
7,10,3.884
-4,11,3.885
-17,11,3.886
-22,3,3.887
-28,-1,3.888
-38,0,3.889
-46,1,3.89
-39,-4,3.891
-21,-11,3.892
-6,-11,3.893
-3,-10,3.894
0,-6,3.895
18,-2,3.896
49,-4,3.897
75,-7,3.898
77,-5,3.899
58,-2,3.9
31,7,3.901
13,14,3.902
5,11,3.903
1,9,3.904
-8,10,3.905
-20,10,3.906
-25,3,3.907
-20,-1,3.908
-10,0,3.909
0,1,3.91
3,-4,3.911
-4,-10,3.912
-16,-10,3.913
-20,-8,3.914
-7,0,3.915
7,3,3.916
8,-1,3.917
4,-3,3.918
19,-1,3.919
46,0,3.92
55,0,3.921
40,1,3.922
18,2,3.923
1,1,3.924
-15,1,3.925
-40,5,3.926
-62,7,3.927
-69,4,3.928
-49,-1,3.929
-11,-2,3.93
27,0,3.931
46,2,3.932
47,4,3.933
41,3,3.934
32,3,3.935
7,2,3.936
-28,-2,3.937
-48,-2,3.938
-37,-2,3.939
-10,-2,3.94
2,-1,3.941
-3,1,3.942
-11,1,3.943
-4,-1,3.944
8,1,3.945
15,6,3.946
10,2,3.947
0,-9,3.948
-8,-18,3.949
-10,-17,3.95
-1,-14,3.951
20,-13,3.952
41,-10,3.953
42,-3,3.954
29,1,3.955
18,0,3.956
19,0,3.957
24,6,3.958
21,9,3.959
9,7,3.96
-12,4,3.961
-41,4,3.962
-67,3,3.963
-66,-2,3.964
-32,-5,3.965
13,1,3.966
43,10,3.967
52,10,3.968
51,-3,3.969
46,-17,3.97
38,-20,3.971
20,-9,3.972
-4,6,3.973
-29,10,3.974
-36,5,3.975
-17,2,3.976
15,3,3.977
35,3,3.978
28,-5,3.979
10,-13,3.98
11,-8,3.981
38,1,3.982
60,1,3.983
43,-8,3.984
-6,-11,3.985
-37,-3,3.986
-32,1,3.987
-28,3,3.988
-54,6,3.989
-83,15,3.99
-82,19,3.991
-64,14,3.992
-51,8,3.993
-38,5,3.994
-11,5,3.995
16,5,3.996
27,0,3.997
28,-2,3.998
40,-3,3.999
53,2,4.0
48,12,4.001
32,22,4.002
22,18,4.003
18,4,4.004
14,-4,4.005
8,4,4.006
11,16,4.007
13,17,4.008
9,-4,4.009
6,-33,4.01
8,-52,4.011
8,-57,4.012
2,-55,4.013
-1,-49,4.014
3,-35,4.015
3,-17,4.016
-4,-7,4.017
-7,-4,4.018
-3,3,4.019
1,16,4.02
-1,27,4.021
-5,24,4.022
-2,17,4.023
3,23,4.024
4,42,4.025
1,62,4.026
-3,57,4.027
-5,15,4.028
5,-41,4.029
31,-62,4.03
57,-22,4.031
66,42,4.032
53,62,4.033
22,6,4.034
-9,-79,4.035
-36,-118,4.036
-54,-86,4.037
-64,-21,4.038
-66,30,4.039
-57,57,4.04
-39,91,4.041
-25,160,4.042
-18,245,4.043
-12,275,4.044
3,175,4.045
19,-33,4.046
23,-226,4.047
18,-306,4.048
13,-295,4.049
19,-256,4.05
22,-201,4.051
21,-118,4.052
20,-34,4.053
23,39,4.054
28,128,4.055
22,246,4.056
11,324,4.057
6,277,4.058
11,106,4.059
20,-109,4.06
28,-260,4.061
28,-270,4.062
22,-128,4.063
17,74,4.064
14,192,4.065
10,161,4.066
4,33,4.067
-2,-117,4.068
-3,-246,4.069
-2,-312,4.07
-2,-276,4.071
-8,-149,4.072
-10,-2,4.073
-9,129,4.074
-9,224,4.075
-13,243,4.076
-14,161,4.077
-8,37,4.078
-3,-32,4.079
-6,-24,4.08
-13,3,4.081
-13,14,4.082
-6,30,4.083
-5,57,4.084
-18,70,4.085
-26,55,4.086
-12,35,4.087
17,27,4.088
36,21,4.089
35,11,4.09
27,9,4.091
23,11,4.092
20,11,4.093
5,1,4.094
-19,-3,4.095
-37,-2,4.096
-36,-5,4.097
-20,-12,4.098
-4,-14,4.099
6,-9,4.1
5,-3,4.101
0,-3,4.102
-2,-5,4.103
-1,-6,4.104
-1,-3,4.105
0,-7,4.106
5,-24,4.107
11,-43,4.108
12,-42,4.109
8,-18,4.11
2,4,4.111
0,4,4.112
-2,-6,4.113
-11,-12,4.114
-21,-6,4.115
-19,-2,4.116
7,-7,4.117
45,-10,4.118
70,-5,4.119
70,2,4.12
48,6,4.121
15,7,4.122
-27,7,4.123
-69,4,4.124
-90,1,4.125
-70,3,4.126
-14,8,4.127
40,6,4.128
64,-1,4.129
63,-9,4.13
62,-12,4.131
61,-10,4.132
49,-5,4.133
24,-3,4.134
9,-1,4.135
-3,-1,4.136
-9,-4,4.137
-19,-6,4.138
-37,-6,4.139
-44,-5,4.14
-16,-3,4.141
-1,1,4.142
-29,4,4.143
-48,1,4.144
-42,-4,4.145
-25,-7,4.146
22,-6,4.147
55,-6,4.148
44,-6,4.149
36,-4,4.15
35,7,4.151
34,18,4.152
34,21,4.153
31,11,4.154
7,4,4.155
-28,0,4.156
-63,1,4.157
-79,2,4.158
-57,0,4.159
-4,-3,4.16
50,-2,4.161
79,-2,4.162
76,-6,4.163
55,-8,4.164
34,-4,4.165
22,0,4.166
10,1,4.167
-15,5,4.168
-42,11,4.169
-46,19,4.17
-21,28,4.171
3,30,4.172
0,10,4.173
-25,-8,4.174
-33,-13,4.175
-32,-17,4.176
-6,-30,4.177
16,-38,4.178
24,-34,4.179
27,-21,4.18
12,-13,4.181
-1,-8,4.182
-7,-2,4.183
-12,5,4.184
-8,8,4.185
-5,10,4.186
-5,16,4.187
-4,22,4.188
1,17,4.189
6,3,4.19
6,-5,4.191
4,-5,4.192
-4,1,4.193
-16,4,4.194
-59,5,4.195
-113,4,4.196
-133,-5,4.197
-82,-12,4.198
12,-6,4.199
84,-1,4.2
104,0,4.201
108,2,4.202
126,3,4.203
129,5,4.204
88,4,4.205
25,2,4.206
-10,0,4.207
-5,-1,4.208
5,-3,4.209
0,-6,4.21
-12,-6,4.211
-15,-6,4.212
-17,-3,4.213
-24,1,4.214
-25,3,4.215
-25,0,4.216
-19,-10,4.217
-14,-14,4.218
-12,-12,4.219
-9,-5,4.22
-5,9,4.221
-3,29,4.222
-11,48,4.223
-16,52,4.224
-14,27,4.225
-10,-25,4.226
2,-70,4.227
12,-73,4.228
19,-39,4.229
22,-4,4.23
12,3,4.231
4,0,4.232
4,5,4.233
4,19,4.234
-3,41,4.235
-3,62,4.236
12,80,4.237
29,82,4.238
36,29,4.239
35,-19,4.24
28,-51,4.241
14,-76,4.242
0,-82,4.243
-2,-82,4.244
-2,-56,4.245
-8,-32,4.246
-19,-11,4.247
-24,6,4.248
-22,14,4.249
-24,19,4.25
-24,16,4.251
-16,14,4.252
-1,22,4.253
8,30,4.254
10,30,4.255
-8,23,4.256
-33,15,4.257
-48,13,4.258
-34,4,4.259
5,-8,4.26
45,-12,4.261
59,-5,4.262
58,0,4.263
64,-3,4.264
68,-5,4.265
50,-2,4.266
13,0,4.267
-12,-4,4.268
-10,-7,4.269
-2,-2,4.27
-4,3,4.271
-12,0,4.272
-14,-7,4.273
-17,-12,4.274
-24,-6,4.275
-25,6,4.276
-13,9,4.277
4,3,4.278
11,-2,4.279
9,-2,4.28
3,3,4.281
-2,5,4.282
-7,4,4.283
-10,-2,4.284
-10,-6,4.285
-12,-2,4.286
-17,5,4.287
-20,3,4.288
-16,-12,4.289
-5,-25,4.29
7,-17,4.291
16,4,4.292
21,18,4.293
1,15,4.294
-7,9,4.295
-13,5,4.296
-10,-6,4.297
-6,-17,4.298
-3,-20,4.299
2,-11,4.3
6,-4,4.301
8,-3,4.302
1,3,4.303
-5,25,4.304
-3,52,4.305
0,60,4.306
4,42,4.307
9,10,4.308
20,-17,4.309
29,-29,4.31
30,-32,4.311
30,-33,4.312
23,-29,4.313
1,-20,4.314
-6,-6,4.315
-11,-1,4.316
-8,-8,4.317
-5,-11,4.318
-2,-7,4.319
2,0,4.32
6,4,4.321
8,5,4.322
1,10,4.323
-4,28,4.324
-2,66,4.325
0,105,4.326
4,99,4.327
9,17,4.328
18,-94,4.329
26,-152,4.33
27,-131,4.331
27,-78,4.332
21,-39,4.333
15,-7,4.334
1,22,4.335
-9,40,4.336
-16,17,4.337
-20,0,4.338
-21,-1,4.339
-20,-1,4.34
-19,2,4.341
-20,6,4.342
-16,11,4.343
-3,14,4.344
8,10,4.345
14,8,4.346
17,17,4.347
21,22,4.348
24,9,4.349
24,-2,4.35
20,-8,4.351
15,-14,4.352
9,-13,4.353
3,-8,4.354
3,16,4.355
1,39,4.356
-8,30,4.357
-21,-2,4.358
-24,-26,4.359
-15,-19,4.36
-5,-3,4.361
-1,-2,4.362
7,-6,4.363
22,5,4.364
29,29,4.365
22,31,4.366
12,9,4.367
6,-4,4.368
6,7,4.369
6,19,4.37
8,26,4.371
8,46,4.372
4,100,4.373
-3,181,4.374
-4,237,4.375
-6,186,4.376
-7,0,4.377
-8,-232,4.378
-9,-351,4.379
-10,-280,4.38
-7,-108,4.381
-5,5,4.382
-3,-5,4.383
-2,-78,4.384
-6,-119,4.385
-8,-92,4.386
-6,-30,4.387
-3,15,4.388
0,26,4.389
4,34,4.39
10,87,4.391
16,174,4.392
16,214,4.393
16,122,4.394
20,-65,4.395
25,-202,4.396
25,-178,4.397
18,-23,4.398
15,168,4.399
16,336,4.4
15,400,4.401
4,246,4.402
-5,-102,4.403
-6,-398,4.404
-3,-418,4.405
-8,-236,4.406
-15,-72,4.407
-19,17,4.408
-16,85,4.409
-16,86,4.41
-17,-56,4.411
-17,-217,4.412
-16,-210,4.413
-16,-61,4.414
-14,41,4.415
-12,46,4.416
-12,82,4.417
-9,180,4.418
-3,215,4.419
3,138,4.42
11,46,4.421
18,-4,4.422
24,-38,4.423
30,-53,4.424
36,-2,4.425
41,124,4.426
37,330,4.427
31,611,4.428
18,802,4.429
6,588,4.43
0,-97,4.431
-5,-830,4.432
-7,-1110,4.433
-11,-901,4.434
-17,-538,4.435
-23,-292,4.436
-26,-143,4.437
-29,-15,4.438
-22,58,4.439
-2,58,4.44
20,67,4.441
29,122,4.442
22,171,4.443
9,181,4.444
0,191,4.445
-2,208,4.446
1,181,4.447
6,106,4.448
8,47,4.449
3,34,4.45
-3,32,4.451
-7,18,4.452
-7,26,4.453
-7,72,4.454
-4,144,4.455
-4,238,4.456
-5,350,4.457
-5,390,4.458
-3,183,4.459
-3,-284,4.46
-7,-709,4.461
-12,-751,4.462
-15,-428,4.463
-15,-78,4.464
-13,83,4.465
-2,141,4.466
20,192,4.467
36,162,4.468
34,39,4.469
20,-2,4.47
16,142,4.471
20,290,4.472
26,222,4.473
27,-44,4.474
25,-241,4.475
19,-188,4.476
11,24,4.477
14,174,4.478
28,137,4.479
33,-10,4.48
19,-99,4.481
2,-83,4.482
0,-74,4.483
4,-167,4.484
-1,-283,4.485
-13,-296,4.486
-14,-201,4.487
-4,-86,4.488
-1,16,4.489
-9,129,4.49
-19,222,4.491
-20,235,4.492
-16,187,4.493
-11,136,4.494
-12,97,4.495
-16,40,4.496
-29,-10,4.497
-37,36,4.498
-28,159,4.499
-20,209,4.5
-17,87,4.501
-11,-123,4.502
0,-253,4.503
9,-222,4.504
11,-85,4.505
11,62,4.506
5,138,4.507
0,112,4.508
-1,24,4.509
-2,-26,4.51
-5,39,4.511
-7,195,4.512
-2,306,4.513
4,201,4.514
16,-91,4.515
25,-318,4.516
35,-354,4.517
43,-316,4.518
44,-55,4.519
41,177,4.52
35,325,4.521
29,308,4.522
21,-201,4.523
5,-560,4.524
-16,-466,4.525
-30,-338,4.526
-28,-105,4.527
-14,63,4.528
-9,36,4.529
-25,24,4.53
-49,62,4.531
-52,89,4.532
-22,78,4.533
44,104,4.534
93,207,4.535
103,254,4.536
87,412,4.537
66,671,4.538
49,659,4.539
34,196,4.54
16,-345,4.541
-5,-527,4.542
-23,-398,4.543
-34,-297,4.544
-37,-326,4.545
-32,-336,4.546
-26,-256,4.547
-25,-176,4.548
-23,-133,4.549
-20,-66,4.55
-19,42,4.551
-22,123,4.552
-23,148,4.553
-21,155,4.554
-22,166,4.555
-33,156,4.556
-40,119,4.557
-31,96,4.558
-11,101,4.559
4,107,4.56
10,96,4.561
9,77,4.562
14,60,4.563
22,43,4.564
32,28,4.565
34,16,4.566
23,0,4.567
7,-24,4.568
-2,-41,4.569
0,-39,4.57
3,-28,4.571
-2,-20,4.572
-6,-9,4.573
-6,10,4.574
-3,21,4.575
-3,10,4.576
-12,-13,4.577
-19,-36,4.578
-16,-72,4.579
-13,-118,4.58
-13,-128,4.581
-11,-71,4.582
-3,5,4.583
5,31,4.584
13,25,4.585
19,94,4.586
22,262,4.587
28,363,4.588
40,200,4.589
50,-165,4.59
50,-404,4.591
49,-274,4.592
46,89,4.593
41,437,4.594
39,554,4.595
27,347,4.596
12,-181,4.597
1,-780,4.598
3,-993,4.599
10,-628,4.6
7,-75,4.601
-5,174,4.602
-16,131,4.603
-18,109,4.604
-18,151,4.605
-17,80,4.606
-17,-54,4.607
-13,-35,4.608
-10,127,4.609
-12,232,4.61
-16,222,4.611
-17,170,4.612
-14,79,4.613
-11,-45,4.614
-13,-158,4.615
-16,-122,4.616
-20,-26,4.617
-21,-12,4.618
-13,-37,4.619
-7,6,4.62
-9,80,4.621
-13,92,4.622
-21,77,4.623
-22,106,4.624
1,124,4.625
23,67,4.626
41,-16,4.627
51,-63,4.628
31,-102,4.629
13,-149,4.63
3,-148,4.631
-3,-79,4.632
0,-10,4.633
2,36,4.634
-6,74,4.635
-8,98,4.636
1,76,4.637
17,102,4.638
23,278,4.639
16,401,4.64
7,363,4.641
7,189,4.642
13,-396,4.643
13,-765,4.644
3,-481,4.645
-7,-213,4.646
-12,4,4.647
-10,146,4.648
-7,55,4.649
-4,-26,4.65
0,-74,4.651
7,-96,4.652
15,-34,4.653
15,44,4.654
8,125,4.655
2,129,4.656
-3,158,4.657
-6,215,4.658
-1,155,4.659
5,-35,4.66
14,-175,4.661
22,-144,4.662
26,-28,4.663
29,44,4.664
26,71,4.665
24,152,4.666
22,359,4.667
19,594,4.668
12,557,4.669
6,37,4.67
0,-676,4.671
-4,-970,4.672
-4,-672,4.673
-7,-199,4.674
-13,-48,4.675
-19,-136,4.676
-22,-98,4.677
-23,51,4.678
-21,51,4.679
-11,-52,4.68
-3,-8,4.681
-3,154,4.682
-11,201,4.683
-15,126,4.684
-11,113,4.685
-4,166,4.686
-3,148,4.687
-8,73,4.688
-13,58,4.689
-15,83,4.69
-5,51,4.691
4,-5,4.692
11,-9,4.693
12,7,4.694
14,-17,4.695
15,-64,4.696
11,-52,4.697
2,12,4.698
-15,50,4.699
-29,51,4.7
-32,54,4.701
-28,43,4.702
0,-3,4.703
26,-25,4.704
45,45,4.705
60,164,4.706
61,208,4.707
56,118,4.708
28,-46,4.709
0,-196,4.71
-30,-292,4.711
-52,-334,4.712
-45,-308,4.713
-37,-181,4.714
-27,-40,4.715
-24,45,4.716
-12,62,4.717
26,63,4.718
79,82,4.719
107,108,4.72
80,115,4.721
24,80,4.722
-9,21,4.723
-5,10,4.724
10,95,4.725
6,190,4.726
-9,110,4.727
-17,-167,4.728
-14,-407,4.729
-11,-366,4.73
-14,-101,4.731
-17,105,4.732
-12,119,4.733
-6,45,4.734
-6,28,4.735
-6,47,4.736
-6,30,4.737
-6,12,4.738
-1,59,4.739
3,129,4.74
3,145,4.741
3,125,4.742
5,119,4.743
5,119,4.744
-4,85,4.745
-11,38,4.746
-13,11,4.747
-14,-3,4.748
-9,-22,4.749
-3,-22,4.75
2,10,4.751
7,24,4.752
8,-17,4.753
7,-51,4.754
0,8,4.755
-7,73,4.756
-10,153,4.757
-4,123,4.758
11,-234,4.759
21,-502,4.76
17,-497,4.761
4,-417,4.762
-2,-115,4.763
4,115,4.764
10,128,4.765
11,110,4.766
12,-6,4.767
19,-87,4.768
26,-60,4.769
29,35,4.77
25,334,4.771
15,590,4.772
5,716,4.773
-1,758,4.774
-2,298,4.775
-5,-477,4.776
-10,-979,4.777
-8,-818,4.778
0,-335,4.779
6,-75,4.78
3,-69,4.781
-1,-18,4.782
-1,111,4.783
-8,131,4.784
-28,69,4.785
-42,91,4.786
-33,164,4.787
-8,136,4.788
16,44,4.789
26,24,4.79
27,38,4.791
17,-20,4.792
2,-97,4.793
-10,-94,4.794
-8,-33,4.795
-3,-11,4.796
-9,-24,4.797
-23,-2,4.798
-23,34,4.799
1,35,4.8
39,46,4.801
65,145,4.802
63,310,4.803
43,417,4.804
30,337,4.805
31,43,4.806
29,-338,4.807
10,-557,4.808
-20,-475,4.809
-46,-227,4.81
-51,-53,4.811
-34,-12,4.812
-10,3,4.813
3,50,4.814
-3,70,4.815
-14,42,4.816
-10,31,4.817
1,78,4.818
8,147,4.819
8,232,4.82
8,330,4.821
8,330,4.822
0,116,4.823
-7,-213,4.824
-9,-390,4.825
-7,-307,4.826
-6,-141,4.827
-4,-69,4.828
-1,-52,4.829
-6,5,4.83
-25,67,4.831
-51,64,4.832
-63,40,4.833
-56,63,4.834
-29,91,4.835
5,49,4.836
31,-25,4.837
38,-32,4.838
37,15,4.839
45,41,4.84
55,30,4.841
50,43,4.842
28,141,4.843
5,318,4.844
-2,449,4.845
12,308,4.846
32,-172,4.847
41,-643,4.848
32,-649,4.849
21,-222,4.85
21,100,4.851
24,-4,4.852
19,-248,4.853
8,-269,4.854
6,-71,4.855
3,120,4.856
-5,275,4.857
-8,446,4.858
7,402,4.859
14,-59,4.86
-3,-605,4.861
-22,-676,4.862
-45,-257,4.863
-60,139,4.864
-46,250,4.865
-34,277,4.866
-24,331,4.867
-12,236,4.868
6,-16,4.869
26,-136,4.87
47,-37,4.871
64,32,4.872
67,-39,4.873
66,-65,4.874
44,32,4.875
31,90,4.876
23,27,4.877
7,-14,4.878
-19,11,4.879
-48,20,4.88
-63,-24,4.881
-50,-45,4.882
-21,8,4.883
1,39,4.884
6,1,4.885
1,-19,4.886
2,14,4.887
0,39,4.888
-8,32,4.889
-16,28,4.89
-15,32,4.891
-9,28,4.892
-7,-4,4.893
-13,-51,4.894
-15,-169,4.895
-15,-246,4.896
-9,-148,4.897
-3,75,4.898
5,183,4.899
9,100,4.9
5,25,4.901
0,120,4.902
3,260,4.903
16,247,4.904
23,68,4.905
22,-148,4.906
15,-287,4.907
12,-278,4.908
7,-119,4.909
-5,76,4.91
-19,164,4.911
-19,131,4.912
-4,82,4.913
12,60,4.914
19,34,4.915
18,-15,4.916
19,-23,4.917
20,93,4.918
15,281,4.919
6,334,4.92
-2,61,4.921
-4,-423,4.922
-4,-719,4.923
-4,-575,4.924
-10,-200,4.925
-20,33,4.926
-29,54,4.927
-33,40,4.928
-34,49,4.929
-30,1,4.93
-14,-60,4.931
20,2,4.932
61,145,4.933
99,198,4.934
119,117,4.935
107,51,4.936
66,104,4.937
9,196,4.938
-42,171,4.939
-76,-12,4.94
-86,-223,4.941
-61,-272,4.942
-3,-98,4.943
52,132,4.944
65,197,4.945
42,95,4.946
28,3,4.947
36,0,4.948
33,9,4.949
5,0,4.95
-17,43,4.951
-15,137,4.952
-8,160,4.953
-32,34,4.954
-69,-140,4.955
-96,-189,4.956
-94,-76,4.957
-78,56,4.958
-22,15,4.959
26,-198,4.96
53,-351,4.961
74,-235,4.962
74,70,4.963
74,281,4.964
78,258,4.965
70,123,4.966
20,37,4.967
-15,21,4.968
-7,32,4.969
-3,48,4.97
-13,52,4.971
-21,25,4.972
-19,-9,4.973
-18,-9,4.974
-25,0,4.975
-24,-13,4.976
-11,-101,4.977
1,-162,4.978
0,-137,4.979
-5,-106,4.98
-9,-59,4.981
-12,-20,4.982
-17,-6,4.983
-12,16,4.984
-1,64,4.985
0,85,4.986
-14,23,4.987
-33,-43,4.988
-45,-123,4.989
-44,-141,4.99
-37,28,4.991
-32,181,4.992
-29,281,4.993
-25,318,4.994
-12,100,4.995
9,-116,4.996
30,-178,4.997
41,-79,4.998
50,55,4.999
55,97,5.0
40,30,5.001
-1,-60,5.002
-36,-87,5.003
-26,-56,5.004
25,-9,5.005
71,34,5.006
91,10,5.007
108,-167,5.008
135,-425,5.009
143,-459,5.01
112,-81,5.011
57,418,5.012
4,546,5.013
-59,191,5.014
-116,-224,5.015
-123,-286,5.016
-70,-64,5.017
-26,109,5.018
-56,123,5.019
-122,106,5.02
-122,113,5.021
-28,51,5.022
96,-89,5.023
171,-158,5.024
185,-57,5.025
164,115,5.026
127,204,5.027
79,180,5.028
18,112,5.029
-43,40,5.03
-82,-34,5.031
-87,-83,5.032
-70,-71,5.033
-60,-22,5.034
-60,-6,5.035
-57,-24,5.036
-44,-8,5.037
-35,56,5.038
-34,63,5.039
-35,-47,5.04
-31,-175,5.041
-31,-182,5.042
-28,-91,5.043
-12,-39,5.044
10,-48,5.045
19,-2,5.046
12,133,5.047
0,219,5.048
-7,152,5.049
-16,33,5.05
-15,0,5.051
0,30,5.052
18,19,5.053
23,-28,5.054
15,-27,5.055
0,7,5.056
-21,-9,5.057
-42,-53,5.058
-45,-49,5.059
-25,-28,5.06
0,-79,5.061
15,-150,5.062
29,-99,5.063
47,50,5.064
56,102,5.065
53,-29,5.066
53,-193,5.067
58,-224,5.068
44,-108,5.069
9,78,5.07
-11,237,5.071
7,268,5.072
30,158,5.073
19,7,5.074
-10,-36,5.075
-19,9,5.076
-3,13,5.077
9,-31,5.078
8,-32,5.079
9,13,5.08
12,16,5.081
-17,-18,5.082
-87,-4,5.083
-165,49,5.084
-188,45,5.085
-125,-17,5.086
-8,-46,5.087
84,-25,5.088
100,-11,5.089
78,-1,5.09
95,44,5.091
165,90,5.092
211,72,5.093
178,9,5.094
97,-12,5.095
31,3,5.096
-12,-11,5.097
-60,-54,5.098
-105,-84,5.099
-106,-111,5.1
-52,-146,5.101
6,-128,5.102
10,-17,5.103
-51,88,5.104
-126,67,5.105
-136,-49,5.106
-56,-132,5.107
51,-152,5.108
99,-152,5.109
77,-113,5.11
56,9,5.111
88,152,5.112
137,200,5.113
147,154,5.114
110,120,5.115
54,135,5.116
-1,127,5.117
-52,81,5.118
-82,65,5.119
-76,97,5.12
-46,106,5.121
-25,60,5.122
-24,11,5.123
-30,-18,5.124
-30,-62,5.125
-23,-114,5.126
-15,-109,5.127
-9,-45,5.128
-16,-5,5.129
-33,-33,5.13
-41,-74,5.131
-30,-68,5.132
-15,-32,5.133
-15,-4,5.134
-37,0,5.135
-72,-7,5.136
-95,-39,5.137
-78,-104,5.138
-14,-186,5.139
66,-226,5.14
107,-163,5.141
95,4,5.142
66,180,5.143
49,233,5.144
33,129,5.145
3,-18,5.146
-24,-64,5.147
-46,14,5.148
-79,107,5.149
-113,118,5.15
-107,75,5.151
-40,65,5.152
39,94,5.153
65,101,5.154
35,53,5.155
9,-10,5.156
-7,-43,5.157
-8,-48,5.158
36,-46,5.159
61,-31,5.16
30,-2,5.161
13,6,5.162
37,-24,5.163
44,-77,5.164
1,-127,5.165
-11,-168,5.166
69,-183,5.167
141,-161,5.168
189,-113,5.169
200,-46,5.17
101,51,5.171
19,158,5.172
-14,197,5.173
-46,132,5.174
-73,50,5.175
-98,-1,5.176
-118,40,5.177
-112,67,5.178
-71,53,5.179
-31,30,5.18
-29,-19,5.181
-36,-39,5.182
-3,34,5.183
48,101,5.184
65,152,5.185
35,164,5.186
-15,56,5.187
-71,-15,5.188
-129,22,5.189
-165,31,5.19
-155,-51,5.191
-92,-126,5.192
7,-176,5.193
125,-230,5.194
201,-238,5.195
185,-93,5.196
103,100,5.197
20,143,5.198
-32,36,5.199
-56,-31,5.2
-37,10,5.201
33,44,5.202
106,13,5.203
117,-2,5.204
73,33,5.205
33,44,5.206
28,4,5.207
31,-29,5.208
22,-47,5.209
14,-101,5.21
22,-168,5.211
37,-150,5.212
40,-37,5.213
13,92,5.214
-48,155,5.215
-127,145,5.216
-181,86,5.217
-180,11,5.218
-136,-39,5.219
-86,-26,5.22
-43,27,5.221
5,62,5.222
57,53,5.223
95,30,5.224
104,23,5.225
83,29,5.226
32,26,5.227
-23,10,5.228
-32,-8,5.229
22,-17,5.23
74,-17,5.231
65,-15,5.232
22,-11,5.233
-7,-3,5.234
-28,0,5.235
-64,-13,5.236
-147,-39,5.237
-203,-63,5.238
-177,-87,5.239
-129,-132,5.24
-18,-182,5.241
92,-186,5.242
201,-108,5.243
279,6,5.244
263,68,5.245
226,58,5.246
130,46,5.247
38,86,5.248
-39,131,5.249
-94,128,5.25
-80,91,5.251
-65,74,5.252
-47,82,5.253
-28,90,5.254
-20,88,5.255
-52,75,5.256
-102,24,5.257
-126,-56,5.258
-129,-130,5.259
-140,-186,5.26
-138,-250,5.261
-73,-281,5.262
43,-163,5.263
139,94,5.264
181,282,5.265
200,250,5.266
205,122,5.267
155,105,5.268
50,188,5.269
-31,202,5.27
-25,98,5.271
23,-8,5.272
40,-31,5.273
17,0,5.274
1,28,5.275
-12,30,5.276
-16,2,5.277
-21,-36,5.278
-32,-60,5.279
-39,-70,5.28
-31,-99,5.281
-20,-140,5.282
-6,-143,5.283
7,-92,5.284
20,-55,5.285
28,-85,5.286
21,-139,5.287
10,-132,5.288
-11,-44,5.289
-34,53,5.29
-62,93,5.291
-69,81,5.292
-11,70,5.293
51,72,5.294
89,71,5.295
37,53,5.296
-36,33,5.297
-39,32,5.298
13,37,5.299
26,33,5.3
-44,23,5.301
-131,13,5.302
-152,-4,5.303
-96,-29,5.304
-18,-57,5.305
31,-87,5.306
40,-121,5.307
32,-127,5.308
38,-81,5.309
62,-11,5.31
72,10,5.311
63,-25,5.312
67,-46,5.313
108,-8,5.314
118,51,5.315
55,66,5.316
-52,27,5.317
-131,-11,5.318
-160,-22,5.319
-150,-5,5.32
-109,24,5.321
-43,33,5.322
15,-3,5.323
41,-43,5.324
61,-23,5.325
96,42,5.326
117,65,5.327
89,22,5.328
38,-9,5.329
10,22,5.33
-2,58,5.331
-38,45,5.332
-85,21,5.333
-104,24,5.334
-87,35,5.335
-63,22,5.336
-19,2,5.337
38,2,5.338
136,-10,5.339
200,-47,5.34
158,-69,5.341
115,-56,5.342
72,-43,5.343
33,-53,5.344
11,-49,5.345
-10,-16,5.346
-32,7,5.347
-49,0,5.348
-47,-2,5.349
-39,15,5.35
-12,20,5.351
2,-6,5.352
-23,-19,5.353
-58,-7,5.354
-108,5,5.355
-117,13,5.356
-92,7,5.357
-53,8,5.358
-3,30,5.359
48,47,5.36
69,41,5.361
57,33,5.362
39,19,5.363
28,7,5.364
11,-2,5.365
-15,-10,5.366
-30,-16,5.367
-26,-23,5.368
-13,-33,5.369
5,-39,5.37
27,-31,5.371
36,-21,5.372
22,-5,5.373
-2,9,5.374
-9,11,5.375
-10,9,5.376
-25,4,5.377
-44,-4,5.378
-43,-12,5.379
-28,-10,5.38
-17,2,5.381
3,4,5.382
45,-8,5.383
86,-14,5.384
94,-4,5.385
69,6,5.386
38,5,5.387
3,3,5.388
-40,12,5.389
-74,21,5.39
-68,16,5.391
-36,5,5.392
-17,7,5.393
-18,13,5.394
-23,17,5.395
-30,16,5.396
-34,2,5.397
-2,-7,5.398
85,-4,5.399
167,-2,5.4
165,-3,5.401
96,-11,5.402
57,-37,5.403
73,-55,5.404
60,-43,5.405
-14,-34,5.406
-79,-32,5.407
-64,-26,5.408
-14,-5,5.409
6,16,5.41
4,36,5.411
13,46,5.412
17,27,5.413
-9,17,5.414
-38,36,5.415
-38,40,5.416
-28,23,5.417
-30,17,5.418
-32,32,5.419
-22,46,5.42
-15,44,5.421
-24,42,5.422
-32,47,5.423
-24,49,5.424
-20,40,5.425
-29,31,5.426
-36,26,5.427
-29,13,5.428
-16,-10,5.429
-1,-32,5.43
22,-43,5.431
42,-45,5.432
44,-44,5.433
28,-41,5.434
16,-32,5.435
7,-19,5.436
-5,-10,5.437
-19,-4,5.438
-23,-10,5.439
-24,-36,5.44
-26,-56,5.441
-19,-41,5.442
1,-3,5.443
13,2,5.444
11,-42,5.445
20,-81,5.446
54,-59,5.447
82,-6,5.448
70,19,5.449
33,15,5.45
7,19,5.451
-5,39,5.452
-14,42,5.453
-14,20,5.454
2,13,5.455
20,27,5.456
18,30,5.457
-6,17,5.458
-39,12,5.459
-63,20,5.46
-74,23,5.461
-70,11,5.462
-63,-1,5.463
-49,0,5.464
-8,13,5.465
67,21,5.466
145,9,5.467
183,-19,5.468
180,-50,5.469
152,-65,5.47
99,-52,5.471
21,-22,5.472
-36,5,5.473
224,16,5.474
78,11,5.475
-35,3,5.476
-53,0,5.477
-69,3,5.478
-78,1,5.479
-73,-1,5.48
-28,0,5.481
2,2,5.482
-17,-1,5.483
-26,-2,5.484
0,6,5.485
15,17,5.486
-2,21,5.487
-13,23,5.488
-6,31,5.489
0,34,5.49
2,17,5.491
6,-15,5.492
2,-38,5.493
99,-48,5.494
34,-50,5.495
-17,-51,5.496
-25,-48,5.497
-32,-42,5.498
-36,-26,5.499
-34,-6,5.5
-14,26,5.501
0,39,5.502
-9,-3,5.503
-13,-32,5.504
-1,-16,5.505
6,4,5.506
-2,39,5.507
-7,60,5.508
-4,36,5.509
-1,19,5.51
0,27,5.511
2,33,5.512
0,34,5.513
-2,39,5.514
-4,51,5.515
-9,50,5.516
-20,35,5.517
-29,23,5.518
-20,9,5.519
2,-7,5.52
20,-16,5.521
23,-12,5.522
24,-10,5.523
30,-20,5.524
26,-27,5.525
7,-14,5.526
-5,6,5.527
1,3,5.528
15,-19,5.529
18,-42,5.53
15,-49,5.531
11,-39,5.532
6,-24,5.533
-4,-14,5.534
-7,-12,5.535
1,-12,5.536
9,-11,5.537
6,-6,5.538
7,-7,5.539
17,-12,5.54
20,-13,5.541
8,-9,5.542
0,-6,5.543
4,-5,5.544
8,4,5.545
-1,22,5.546
-10,27,5.547
-8,6,5.548
-4,-14,5.549
-6,-16,5.55
-11,-6,5.551
-8,-2,5.552
-4,-4,5.553
-8,2,5.554
-14,13,5.555
-26,14,5.556
-55,0,5.557
-80,-9,5.558
-67,-11,5.559
-22,-12,5.56
9,-12,5.561
0,-6,5.562
-16,1,5.563
1,4,5.564
38,15,5.565
69,38,5.566
89,55,5.567
109,38,5.568
124,-6,5.569
116,-39,5.57
95,-31,5.571
74,19,5.572
52,90,5.573
14,143,5.574
-24,106,5.575
-34,-56,5.576
-19,-245,5.577
-8,-291,5.578
-11,-167,5.579
-19,-29,5.58
-22,-7,5.581
-27,-37,5.582
-39,-4,5.583
-47,67,5.584
-41,88,5.585
-31,70,5.586
-27,81,5.587
-29,111,5.588
-31,101,5.589
-29,69,5.59
-25,69,5.591
-21,84,5.592
-20,71,5.593
-18,34,5.594
-15,14,5.595
-18,9,5.596
-19,-14,5.597
-10,-36,5.598
13,-31,5.599
35,-17,5.6
39,-29,5.601
30,-49,5.602
26,-46,5.603
30,-29,5.604
29,-28,5.605
21,-37,5.606
16,-22,5.607
15,33,5.608
11,100,5.609
4,111,5.61
-1,11,5.611
-3,-147,5.612
-5,-225,5.613
-12,-157,5.614
-11,-30,5.615
-8,25,5.616
-5,3,5.617
-4,-1,5.618
8,22,5.619
30,17,5.62
40,-14,5.621
19,-13,5.622
-23,20,5.623
-61,36,5.624
-78,24,5.625
-74,21,5.626
-49,31,5.627
-8,27,5.628
38,10,5.629
70,10,5.63
80,17,5.631
76,7,5.632
68,-6,5.633
51,0,5.634
30,17,5.635
11,16,5.636
2,-4,5.637
1,-11,5.638
6,-9,5.639
10,-14,5.64
0,-18,5.641
-16,-8,5.642
-24,3,5.643
-21,1,5.644
-18,-9,5.645
-22,-11,5.646
-25,-12,5.647
-16,-22,5.648
-6,-28,5.649
-5,-4,5.65
-4,48,5.651
2,93,5.652
5,92,5.653
-2,37,5.654
-7,-19,5.655
-3,-59,5.656
1,-47,5.657
4,-41,5.658
6,-57,5.659
7,-64,5.66
0,-46,5.661
-2,-28,5.662
10,-14,5.663
27,4,5.664
28,32,5.665
15,52,5.666
10,43,5.667
22,41,5.668
29,62,5.669
16,70,5.67
-6,35,5.671
-28,9,5.672
-48,17,5.673
-64,25,5.674
-58,22,5.675
-33,12,5.676
-18,13,5.677
-15,15,5.678
9,1,5.679
55,-10,5.68
79,0,5.681
56,17,5.682
27,13,5.683
40,-9,5.684
79,-27,5.685
87,-31,5.686
49,-20,5.687
4,0,5.688
-11,18,5.689
-5,9,5.69
-9,-32,5.691
-28,-69,5.692
-38,-72,5.693
-35,-48,5.694
-26,-31,5.695
-29,-28,5.696
-34,-28,5.697
-30,-18,5.698
-18,-10,5.699
-10,-3,5.7
-14,22,5.701
-22,76,5.702
-23,123,5.703
-12,104,5.704
1,-1,5.705
6,-129,5.706
1,-179,5.707
1,-127,5.708
10,-51,5.709
16,-21,5.71
12,-11,5.711
4,26,5.712
6,71,5.713
14,79,5.714
15,71,5.715
4,88,5.716
-2,102,5.717
0,55,5.718
8,-16,5.719
13,11,5.72
17,153,5.721
22,243,5.722
28,133,5.723
32,-84,5.724
26,-200,5.725
14,-181,5.726
3,-168,5.727
1,-212,5.728
5,-200,5.729
5,-93,5.73
0,-12,5.731
-4,-17,5.732
-4,-11,5.733
6,65,5.734
4,139,5.735
3,173,5.736
7,239,5.737
11,291,5.738
17,131,5.739
22,-224,5.74
19,-433,5.741
14,-285,5.742
6,-16,5.743
0,71,5.744
2,27,5.745
6,54,5.746
17,120,5.747
27,80,5.748
31,-12,5.749
33,-13,5.75
24,53,5.751
17,70,5.752
14,48,5.753
5,-14,5.754
3,-19,5.755
2,-23,5.756
6,-16,5.757
11,-4,5.758
17,23,5.759
22,43,5.76
19,41,5.761
14,29,5.762
6,-15,5.763
-1,-59,5.764
1,-108,5.765
5,-133,5.766
18,-90,5.767
28,-51,5.768
33,-26,5.769
34,-5,5.77
25,7,5.771
17,17,5.772
14,21,5.773
-24,-12,5.774
-32,-20,5.775
-35,-24,5.776
-20,-15,5.777
0,3,5.778
29,40,5.779
49,68,5.78
36,66,5.781
16,49,5.782
-21,-13,5.783
-48,-76,5.784
-41,-145,5.785
-22,-181,5.786
30,-120,5.787
73,-65,5.788
91,-29,5.789
97,1,5.79
61,18,5.791
29,32,5.792
13,38,5.793
0,19,5.794
-1,-26,5.795
0,-48,5.796
-4,5,5.797
-14,94,5.798
-27,286,5.799
-28,429,5.8
-18,419,5.801
-6,332,5.802
-3,14,5.803
-4,-311,5.804
-1,-663,5.805
3,-849,5.806
5,-536,5.807
1,-255,5.808
0,-73,5.809
2,84,5.81
0,170,5.811
-5,243,5.812
-11,274,5.813
-15,236,5.814
-12,-26,5.815
-5,-167,5.816
-2,-119,5.817
-3,10,5.818
0,98,5.819
4,119,5.82
3,112,5.821
-3,111,5.822
-5,102,5.823
5,52,5.824
15,-17,5.825
8,-41,5.826
-6,-12,5.827
-9,10,5.828
0,-8,5.829
9,-16,5.83
8,42,5.831
4,170,5.832
2,307,5.833
0,347,5.834
-8,167,5.835
-16,-196,5.836
-9,-477,5.837
4,-443,5.838
12,-193,5.839
8,-17,5.84
-2,-9,5.841
-4,-35,5.842
2,-8,5.843
15,1,5.844
18,-36,5.845
8,-38,5.846
-4,25,5.847
-11,76,5.848
-13,83,5.849
-19,98,5.85
-24,124,5.851
-25,88,5.852
-30,-2,5.853
-43,-71,5.854
-42,-56,5.855
-1,-10,5.856
60,3,5.857
92,-1,5.858
80,6,5.859
58,9,5.86
51,8,5.861
45,39,5.862
23,119,5.863
-2,198,5.864
-17,211,5.865
-30,142,5.866
-45,13,5.867
-46,-161,5.868
-26,-342,5.869
-4,-432,5.87
10,-350,5.871
19,-155,5.872
23,6,5.873
14,108,5.874
5,218,5.875
15,282,5.876
41,206,5.877
46,96,5.878
27,-113,5.879
13,-252,5.88
14,-178,5.881
13,-87,5.882
-1,50,5.883
-13,162,5.884
-9,191,5.885
-1,168,5.886
2,-12,5.887
-2,-126,5.888
-9,-43,5.889
-16,15,5.89
-16,-6,5.891
-10,-21,5.892
-3,-15,5.893
-6,-3,5.894
-16,15,5.895
-19,41,5.896
-14,113,5.897
-8,236,5.898
-6,312,5.899
-9,189,5.9
-14,-158,5.901
-14,-498,5.902
-5,-529,5.903
6,-254,5.904
10,12,5.905
1,68,5.906
-6,48,5.907
-3,121,5.908
1,204,5.909
1,135,5.91
0,-21,5.911
-2,-75,5.912
-8,-4,5.913
-19,71,5.914
-23,79,5.915
-19,52,5.916
-10,26,5.917
-2,-8,5.918
16,-52,5.919
44,-75,5.92
63,-72,5.921
59,-66,5.922
45,-66,5.923
40,-48,5.924
29,-3,5.925
-3,57,5.926
-43,109,5.927
-53,129,5.928
-23,94,5.929
20,8,5.93
40,-84,5.931
35,-138,5.932
18,-139,5.933
-14,-103,5.934
-53,-46,5.935
-76,18,5.936
-65,74,5.937
-27,127,5.938
7,194,5.939
31,250,5.94
49,200,5.941
58,-14,5.942
43,-279,5.943
30,-374,5.944
54,-233,5.945
101,-30,5.946
111,54,5.947
71,50,5.948
24,96,5.949
-2,215,5.95
-22,307,5.951
-48,279,5.952
-61,120,5.953
-55,-139,5.954
-47,-325,5.955
-49,-287,5.956
-43,-98,5.957
-24,20,5.958
-6,-12,5.959
2,-51,5.96
9,1,5.961
15,52,5.962
12,28,5.963
3,21,5.964
2,128,5.965
4,272,5.966
-2,306,5.967
-11,155,5.968
-13,-130,5.969
-12,-390,5.97
-13,-434,5.971
-12,-233,5.972
-4,-5,5.973
0,69,5.974
-1,42,5.975
-3,86,5.976
6,173,5.977
14,110,5.978
12,-113,5.979
8,-253,5.98
11,-161,5.981
17,2,5.982
14,29,5.983
2,-53,5.984
-7,-73,5.985
-10,18,5.986
-10,120,5.987
-8,145,5.988
-3,118,5.989
3,91,5.99
7,88,5.991
6,112,5.992
9,159,5.993
14,198,5.994
7,159,5.995
-22,19,5.996
-62,-140,5.997
-81,-209,5.998
-63,-171,5.999
-23,-103,6.0
14,-67,6.001
42,-56,6.002
71,-38,6.003
94,-20,6.004
92,-19,6.005
63,-28,6.006
29,-27,6.007
6,-5,6.008
-5,27,6.009
-11,51,6.01
-11,49,6.011
-5,25,6.012
0,0,6.013
2,-9,6.014
2,-11,6.015
1,-16,6.016
-1,-25,6.017
-3,-18,6.018
2,22,6.019
7,111,6.02
9,201,6.021
10,162,6.022
2,-83,6.023
-5,-372,6.024
-6,-396,6.025
-4,-97,6.026
7,208,6.027
15,226,6.028
13,53,6.029
8,-30,6.03
-5,24,6.031
-17,55,6.032
-17,21,6.033
-19,26,6.034
-21,86,6.035
-18,112,6.036
-8,38,6.037
0,-10,6.038
2,23,6.039
-3,72,6.04
-14,172,6.041
-21,200,6.042
-11,14,6.043
11,-178,6.044
28,-388,6.045
25,-469,6.046
14,-158,6.047
7,84,6.048
4,120,6.049
1,129,6.05
4,57,6.051
18,-15,6.052
32,-83,6.053
37,-125,6.054
29,-58,6.055
18,-30,6.056
11,-73,6.057
9,-67,6.058
12,17,6.059
16,65,6.06
10,43,6.061
-12,49,6.062
-31,104,6.063
-37,120,6.064
-36,75,6.065
-39,49,6.066
-35,64,6.067
-12,58,6.068
21,19,6.069
38,1,6.07
23,3,6.071
-3,-27,6.072
-17,-77,6.073
-14,-85,6.074
-4,-48,6.075
-1,-36,6.076
-8,-77,6.077
-20,-117,6.078
-31,-98,6.079
-41,0,6.08
-44,114,6.081
-39,140,6.082
-21,74,6.083
2,50,6.084
23,143,6.085
44,206,6.086
70,76,6.087
87,-131,6.088
78,-168,6.089
50,-29,6.09
25,61,6.091
19,15,6.092
23,-24,6.093
22,20,6.094
15,51,6.095
7,-13,6.096
-6,-84,6.097
-12,-60,6.098
5,13,6.099
19,51,6.1
20,37,6.101
20,-19,6.102
16,-117,6.103
10,-198,6.104
3,-178,6.105
-5,-67,6.106
-13,40,6.107
-20,83,6.108
-24,80,6.109
-27,51,6.11
-23,8,6.111
-19,-19,6.112
-19,-9,6.113
-18,12,6.114
-15,15,6.115
-19,10,6.116
-24,21,6.117
-22,36,6.118
-6,26,6.119
11,5,6.12
16,1,6.121
15,8,6.122
18,8,6.123
21,8,6.124
15,26,6.125
5,37,6.126
3,7,6.127
12,-47,6.128
17,-69,6.129
12,-37,6.13
8,-4,6.131
6,-28,6.132
9,-80,6.133
3,-93,6.134
-4,-36,6.135
-10,26,6.136
-8,34,6.137
-6,16,6.138
-8,45,6.139
-10,118,6.14
-7,173,6.141
-2,165,6.142
0,111,6.143
3,49,6.144
6,5,6.145
11,-9,6.146
11,-10,6.147
7,-26,6.148
2,-64,6.149
-1,-106,6.15
-6,-133,6.151
-13,-146,6.152
-15,-139,6.153
-10,-101,6.154
7,-41,6.155
19,-7,6.156
15,-19,6.157
5,-29,6.158
8,27,6.159
18,155,6.16
19,265,6.161
6,239,6.162
-3,64,6.163
4,-121,6.164
15,-160,6.165
15,-51,6.166
4,51,6.167
-4,47,6.168
-8,2,6.169
-8,13,6.17
-5,52,6.171
0,33,6.172
4,-31,6.173
-3,-72,6.174
-23,-65,6.175
-42,-71,6.176
-43,-121,6.177
-24,-163,6.178
3,-148,6.179
27,-95,6.18
38,-44,6.181
48,2,6.182
65,54,6.183
80,92,6.184
74,73,6.185
46,3,6.186
17,-59,6.187
-1,-57,6.188
-16,-12,6.189
-29,20,6.19
-33,36,6.191
-26,81,6.192
-17,162,6.193
-12,223,6.194
-5,213,6.195
0,163,6.196
-3,126,6.197
-17,98,6.198
-23,44,6.199
-16,-16,6.2
-7,-32,6.201
-7,-12,6.202
-11,-13,6.203
-7,-50,6.204
0,-79,6.205
6,-81,6.206
11,-81,6.207
12,-93,6.208
8,-95,6.209
-1,-78,6.21
-4,-68,6.211
2,-80,6.212
11,-94,6.213
8,-90,6.214
-3,-65,6.215
-15,-39,6.216
-20,-16,6.217
-16,12,6.218
-3,50,6.219
11,84,6.22
14,103,6.221
4,109,6.222
0,102,6.223
8,64,6.224
15,-2,6.225
14,-58,6.226
14,-74,6.227
22,-72,6.228
31,-73,6.229
24,-51,6.23
7,3,6.231
-12,39,6.232
-30,17,6.233
-66,-30,6.234
-107,-35,6.235
-117,-17,6.236
-71,-45,6.237
4,-112,6.238
70,-152,6.239
115,-122,6.24
153,-33,6.241
176,72,6.242
155,132,6.243
81,112,6.244
1,58,6.245
-31,59,6.246
-21,129,6.247
-9,186,6.248
-21,187,6.249
-35,159,6.25
-35,116,6.251
-32,32,6.252
-40,-67,6.253
-49,-115,6.254
-42,-79,6.255
-32,-31,6.256
-16,-36,6.257
1,-53,6.258
23,-35,6.259
39,-11,6.26
29,-27,6.261
18,-64,6.262
3,-82,6.263
-8,-87,6.264
-10,-89,6.265
-12,-63,6.266
-8,2,6.267
-7,61,6.268
-17,66,6.269
-26,38,6.27
-25,27,6.271
-21,46,6.272
-10,70,6.273
-2,62,6.274
3,14,6.275
12,-30,6.276
18,-64,6.277
18,-77,6.278
23,-20,6.279
33,5,6.28
28,-66,6.281
8,-133,6.282
-5,-187,6.283
-3,-199,6.284
-2,-79,6.285
-15,19,6.286
-28,48,6.287
-30,106,6.288
-28,248,6.289
-23,329,6.29
-14,222,6.291
1,134,6.292
12,104,6.293
17,102,6.294
21,124,6.295
27,-5,6.296
26,-153,6.297
19,-157,6.298
15,-73,6.299
22,-30,6.3
30,-45,6.301
33,-64,6.302
30,-69,6.303
24,-66,6.304
15,-48,6.305
5,-30,6.306
-8,-33,6.307
-23,-16,6.308
-37,58,6.309
-44,132,6.31
-41,111,6.311
-39,16,6.312
-39,-42,6.313
-35,-28,6.314
-19,-10,6.315
3,-20,6.316
23,-25,6.317
36,-5,6.318
45,9,6.319
54,6,6.32
56,-6,6.321
44,-24,6.322
16,-52,6.323
-17,-75,6.324
-34,-79,6.325
-29,-72,6.326
-12,-63,6.327
1,-48,6.328
12,-34,6.329
26,-37,6.33
40,-46,6.331
38,-31,6.332
24,8,6.333
16,43,6.334
21,66,6.335
25,83,6.336
25,84,6.337
24,46,6.338
16,-20,6.339
1,-60,6.34
-31,-42,6.341
-61,2,6.342
-81,21,6.343
-102,-1,6.344
-122,-30,6.345
-114,-32,6.346
-19,-16,6.347
63,-22,6.348
108,-72,6.349
133,-126,6.35
99,-140,6.351
69,-99,6.352
51,-20,6.353
27,96,6.354
-20,213,6.355
-52,271,6.356
-52,149,6.357
-33,17,6.358
-11,-148,6.359
11,-226,6.36
27,-43,6.361
36,165,6.362
42,446,6.363
48,581,6.364
42,279,6.365
17,45,6.366
-16,14,6.367
-46,-21,6.368
-64,-69,6.369
-71,-103,6.37
-70,-97,6.371
-65,-86,6.372
-51,-62,6.373
-26,-58,6.374
2,-98,6.375
17,-99,6.376
22,-119,6.377
42,-166,6.378
76,-210,6.379
84,-280,6.38
48,-367,6.381
17,-324,6.382
38,-63,6.383
87,216,6.384
102,255,6.385
63,111,6.386
6,52,6.387
-34,133,6.388
-49,155,6.389
-50,43,6.39
-44,-39,6.391
-43,10,6.392
-42,85,6.393
-36,83,6.394
-24,40,6.395
-22,22,6.396
-30,13,6.397
-34,7,6.398
-26,16,6.399
-21,17,6.4
-26,-45,6.401
-36,-132,6.402
-41,-146,6.403
-40,-74,6.404
-37,3,6.405
-24,42,6.406
2,61,6.407
33,68,6.408
51,49,6.409
56,7,6.41
60,-55,6.411
67,-202,6.412
69,-444,6.413
51,-670,6.414
24,-633,6.415
0,-271,6.416
-16,160,6.417
-24,381,6.418
-7,370,6.419
8,313,6.42
17,332,6.421
23,417,6.422
19,523,6.423
21,579,6.424
41,482,6.425
55,228,6.426
46,-19,6.427
26,-140,6.428
-27,-226,6.429
-66,-358,6.43
-64,-389,6.431
-54,-163,6.432
-20,143,6.433
6,231,6.434
-2,99,6.435
-25,1,6.436
-48,9,6.437
-63,4,6.438
-58,-42,6.439
-24,-73,6.44
9,-55,6.441
-5,-45,6.442
-49,-58,6.443
-53,-69,6.444
12,-70,6.445
71,-72,6.446
40,-75,6.447
-27,-79,6.448
-7,-83,6.449
104,-87,6.45
168,-87,6.451
105,-86,6.452
14,-80,6.453
19,-76,6.454
113,-73,6.455
189,-50,6.456
203,-25,6.457
161,-11,6.458
71,0,6.459
-41,17,6.46
-99,0,6.461
-71,-106,6.462
-31,-273,6.463
-59,-334,6.464
-127,-134,6.465
-151,246,6.466
-127,482,6.467
-106,368,6.468
-106,79,6.469
-91,-55,6.47
-44,9,6.471
7,44,6.472
46,-46,6.473
-92,-140,6.474
-56,-118,6.475
-32,-66,6.476
-28,-95,6.477
-10,-156,6.478
46,-196,6.479
74,-273,6.48
10,-400,6.481
-35,-377,6.482
-39,-13,6.483
-49,544,6.484
-64,892,6.485
-67,820,6.486
-39,527,6.487
-3,323,6.488
46,266,6.489
89,213,6.49
92,106,6.491
99,19,6.492
92,-4,6.493
-26,-25,6.494
-16,-74,6.495
-9,-117,6.496
-8,-145,6.497
-3,-166,6.498
13,-169,6.499
21,-167,6.5
3,-149,6.501
-10,-136,6.502
-11,-141,6.503
-14,-146,6.504
-18,-154,6.505
-19,-173,6.506
-11,-227,6.507
-1,-251,6.508
13,-181,6.509
25,-104,6.51
26,-3,6.511
28,75,6.512
26,85,6.513
26,96,6.514
15,106,6.515
-12,102,6.516
-30,76,6.517
-36,62,6.518
-47,71,6.519
-70,61,6.52
-69,11,6.521
-11,-51,6.522
79,-101,6.523
150,-162,6.524
166,-240,6.525
133,-253,6.526
82,-119,6.527
39,113,6.528
12,274,6.529
-1,224,6.53
5,9,6.531
27,-151,6.532
43,-90,6.533
31,144,6.534
5,303,6.535
-13,243,6.536
-23,101,6.537
-44,75,6.538
-59,138,6.539
-39,145,6.54
6,80,6.541
22,48,6.542
-3,62,6.543
-26,38,6.544
-22,-24,6.545
-16,-52,6.546
-29,-36,6.547
-47,-35,6.548
-50,-60,6.549
-54,-71,6.55
-72,-73,6.551
-84,-91,6.552
-66,-108,6.553
-28,-90,6.554
2,-60,6.555
17,-57,6.556
37,-74,6.557
73,-72,6.558
100,-50,6.559
93,-38,6.56
65,-38,6.561
44,-44,6.562
38,-76,6.563
22,-133,6.564
-8,-164,6.565
-28,-110,6.566
-25,3,6.567
-15,91,6.568
-17,106,6.569
-17,82,6.57
8,73,6.571
49,78,6.572
69,70,6.573
31,50,6.574
45,45,6.575
53,63,6.576
45,66,6.577
35,45,6.578
19,24,6.579
6,23,6.58
0,25,6.581
-9,13,6.582
-29,-4,6.583
-41,-12,6.584
-31,-21,6.585
-25,-35,6.586
-32,-49,6.587
-37,-54,6.588
-26,-46,6.589
-16,-29,6.59
-10,-5,6.591
-7,19,6.592
-11,32,6.593
26,41,6.594
37,31,6.595
44,25,6.596
37,27,6.597
29,33,6.598
16,50,6.599
5,60,6.6
0,55,6.601
-8,49,6.602
-24,32,6.603
-34,18,6.604
-26,10,6.605
-21,17,6.606
-27,65,6.607
-31,103,6.608
-22,106,6.609
-14,104,6.61
-9,87,6.611
-6,74,6.612
-10,74,6.613
-17,-38,6.614
-25,-107,6.615
-6,-154,6.616
17,-135,6.617
22,-92,6.618
22,25,6.619
44,105,6.62
67,74,6.621
60,20,6.622
29,-99,6.623
14,-202,6.624
23,-258,6.625
28,-211,6.626
14,142,6.627
-3,415,6.628
-4,440,6.629
7,427,6.63
15,300,6.631
9,205,6.632
-3,210,6.633
-19,199,6.634
-33,155,6.635
-48,135,6.636
-70,101,6.637
-88,40,6.638
-88,-17,6.639
-62,-53,6.64
-37,-89,6.641
-31,-128,6.642
-30,-144,6.643
-2,-143,6.644
58,-155,6.645
102,-172,6.646
94,-180,6.647
54,-186,6.648
38,-194,6.649
64,-173,6.65
87,-111,6.651
66,-47,6.652
23,-15,6.653
-9,-3,6.654
-17,15,6.655
-25,21,6.656
-36,-5,6.657
-40,-35,6.658
-22,-45,6.659
-7,-46,6.66
-2,-59,6.661
2,-61,6.662
3,-28,6.663
2,21,6.664
-11,38,6.665
-22,16,6.666
-27,-10,6.667
-30,-18,6.668
-24,-22,6.669
-19,-32,6.67
-18,-39,6.671
-16,-35,6.672
-14,-29,6.673
-12,-34,6.674
-9,-41,6.675
-16,-47,6.676
-15,-45,6.677
3,-46,6.678
28,-58,6.679
41,-77,6.68
41,-118,6.681
39,-136,6.682
28,-83,6.683
4,-27,6.684
-14,34,6.685
-11,56,6.686
-2,-46,6.687
-9,-102,6.688
-29,-16,6.689
-39,31,6.69
-29,-42,6.691
-15,-79,6.692
1,-3,6.693
23,121,6.694
42,355,6.695
50,409,6.696
44,277,6.697
29,104,6.698
13,-22,6.699
2,-92,6.7
-10,-104,6.701
-32,-65,6.702
-60,-24,6.703
-70,-18,6.704
-50,-26,6.705
-13,-12,6.706
14,19,6.707
35,44,6.708
65,57,6.709
98,66,6.71
114,67,6.711
103,56,6.712
74,35,6.713
31,-20,6.714
-11,-109,6.715
-33,-192,6.716
-33,-256,6.717
-24,-272,6.718
-13,-145,6.719
7,-82,6.72
28,-210,6.721
20,-268,6.722
-14,-115,6.723
-32,106,6.724
-11,531,6.725
19,774,6.726
18,471,6.727
-3,241,6.728
-9,232,6.729
5,195,6.73
13,76,6.731
2,-10,6.732
-10,0,6.733
-22,25,6.734
-34,34,6.735
-41,-46,6.736
-35,-92,6.737
-31,-89,6.738
-35,-115,6.739
-38,-158,6.74
-38,-149,6.741
-39,-111,6.742
-39,-106,6.743
-30,-114,6.744
1,-86,6.745
38,-48,6.746
92,-51,6.747
128,-70,6.748
102,-64,6.749
81,-51,6.75
73,-57,6.751
58,-67,6.752
27,-62,6.753
-2,-78,6.754
-5,-120,6.755
0,-140,6.756
-14,-92,6.757
-34,11,6.758
-31,109,6.759
-15,160,6.76
-20,148,6.761
-43,97,6.762
-50,62,6.763
-30,83,6.764
-8,126,6.765
-3,128,6.766
-7,85,6.767
-10,49,6.768
-11,40,6.769
-7,35,6.77
4,17,6.771
13,-8,6.772
8,-35,6.773
-3,-73,6.774
2,-128,6.775
18,-159,6.776
19,-147,6.777
7,-98,6.778
11,-27,6.779
33,65,6.78
44,158,6.781
18,200,6.782
-20,158,6.783
-31,57,6.784
-15,-38,6.785
8,-76,6.786
20,-44,6.787
25,28,6.788
27,84,6.789
19,78,6.79
0,34,6.791
-18,0,6.792
-25,-9,6.793
-25,-32,6.794
-23,-66,6.795
-26,-78,6.796
-42,-68,6.797
-47,-53,6.798
-17,-39,6.799
6,-16,6.8
4,1,6.801
9,2,6.802
33,1,6.803
51,21,6.804
47,41,6.805
36,34,6.806
9,15,6.807
-2,20,6.808
35,48,6.809
63,59,6.81
61,21,6.811
52,-62,6.812
26,-143,6.813
4,-173,6.814
-3,-153,6.815
-4,-156,6.816
-14,-210,6.817
-27,-210,6.818
-23,-70,6.819
-8,117,6.82
-8,191,6.821
-25,161,6.822
-33,155,6.823
-27,196,6.824
-25,184,6.825
-30,108,6.826
-32,73,6.827
-39,104,6.828
-67,113,6.829
-85,65,6.83
-44,30,6.831
38,40,6.832
87,42,6.833
72,7,6.834
41,-25,6.835
42,-57,6.836
59,-87,6.837
53,-106,6.838
26,-86,6.839
8,-62,6.84
0,-30,6.841
-6,-5,6.842
-4,-9,6.843
6,-19,6.844
11,-49,6.845
0,-72,6.846
-12,-68,6.847
-14,-54,6.848
-19,-15,6.849
-30,15,6.85
-28,20,6.851
-7,2,6.852
5,-91,6.853
-8,-173,6.854
-30,-150,6.855
-29,-29,6.856
-12,66,6.857
-2,75,6.858
-5,47,6.859
0,46,6.86
22,64,6.861
41,65,6.862
42,57,6.863
34,67,6.864
36,79,6.865
46,68,6.866
50,39,6.867
35,16,6.868
14,10,6.869
0,11,6.87
-10,5,6.871
-14,-12,6.872
-12,-33,6.873
-4,-52,6.874
-5,-57,6.875
-19,-57,6.876
-32,-60,6.877
-32,-53,6.878
-24,-28,6.879
-18,-4,6.88
-12,-4,6.881
0,-20,6.882
21,-23,6.883
50,4,6.884
82,56,6.885
90,106,6.886
47,106,6.887
-27,21,6.888
-77,-100,6.889
-63,-140,6.89
-14,-57,6.891
26,38,6.892
34,34,6.893
8,-46,6.894
-46,-80,6.895
-96,-37,6.896
-90,1,6.897
-26,12,6.898
37,48,6.899
48,104,6.9
30,105,6.901
26,34,6.902
35,-18,6.903
27,-1,6.904
6,40,6.905
0,64,6.906
7,87,6.907
7,106,6.908
0,68,6.909
0,-29,6.91
7,-102,6.911
5,-87,6.912
-6,-31,6.913
-21,-11,6.914
-29,-27,6.915
-29,-40,6.916
-12,-44,6.917
18,-43,6.918
38,-23,6.919
38,-4,6.92
34,13,6.921
34,24,6.922
25,13,6.923
4,12,6.924
-6,44,6.925
3,81,6.926
17,135,6.927
17,147,6.928
12,27,6.929
8,-87,6.93
-2,-185,6.931
-19,-227,6.932
-23,-95,6.933
-12,14,6.934
0,3,6.935
5,-4,6.936
11,93,6.937
19,213,6.938
11,167,6.939
-14,-74,6.94
-36,-308,6.941
-36,-314,6.942
-19,-111,6.943
5,69,6.944
27,77,6.945
39,11,6.946
34,15,6.947
14,65,6.948
-16,56,6.949
-53,12,6.95
-80,20,6.951
-64,62,6.952
-2,71,6.953
69,72,6.954
98,124,6.955
78,147,6.956
54,15,6.957
51,-189,6.958
47,-247,6.959
19,-121,6.96
-13,-9,6.961
-25,-36,6.962
-22,-85,6.963
-17,-25,6.964
-19,69,6.965
-26,63,6.966
-35,-10,6.967
-35,0,6.968
-23,156,6.969
-7,374,6.97
-5,487,6.971
-8,341,6.972
-1,-26,6.973
11,-402,6.974
11,-468,6.975
6,-244,6.976
-11,-73,6.977
-23,-118,6.978
-18,-174,6.979
-12,-67,6.98
-4,60,6.981
0,33,6.982
-14,-34,6.983
-24,19,6.984
-20,122,6.985
-14,123,6.986
-5,54,6.987
8,23,6.988
34,24,6.989
54,5,6.99
51,12,6.991
44,82,6.992
26,145,6.993
15,146,6.994
27,144,6.995
24,120,6.996
4,33,6.997
-7,-51,6.998
2,-129,6.999
9,-160,7.0
-11,-48,7.001
-49,-30,7.002
-87,-301,7.003
-114,-441,7.004
-114,-187,7.005
-70,2,7.006
14,0,7.007
93,12,7.008
127,70,7.009
127,115,7.01
125,117,7.011
120,126,7.012
97,154,7.013
48,193,7.014
-4,198,7.015
-39,146,7.016
-48,205,7.017
-31,323,7.018
-3,238,7.019
5,-84,7.02
-10,-351,7.021
-16,-368,7.022
0,-272,7.023
17,-248,7.024
4,-257,7.025
-23,-193,7.026
-35,-85,7.027
-30,-12,7.028
-28,43,7.029
-26,140,7.03
-18,259,7.031
-9,314,7.032
-7,244,7.033
-14,34,7.034
-18,-197,7.035
-22,-277,7.036
-21,-160,7.037
-1,15,7.038
33,103,7.039
52,109,7.04
33,81,7.041
-5,15,7.042
-16,-32,7.043
10,64,7.044
39,242,7.045
36,218,7.046
14,-104,7.047
-3,-398,7.048
-6,-321,7.049
-5,28,7.05
-5,298,7.051
-2,342,7.052
0,235,7.053
-8,1,7.054
-17,-280,7.055
-22,-398,7.056
-12,-237,7.057
-5,1,7.058
-4,61,7.059
-3,-4,7.06
-3,3,7.061
0,73,7.062
6,81,7.063
8,78,7.064
-5,201,7.065
-17,370,7.066
-24,339,7.067
-22,32,7.068
10,-350,7.069
33,-538,7.07
31,-437,7.071
30,-169,7.072
34,55,7.073
35,149,7.074
20,155,7.075
-12,148,7.076
-39,98,7.077
-45,53,7.078
-22,22,7.079
22,-38,7.08
68,-184,7.081
92,-264,7.082
89,-143,7.083
68,-34,7.084
38,37,7.085
4,88,7.086
-23,78,7.087
-23,92,7.088
6,177,7.089
34,243,7.09
22,249,7.091
-31,216,7.092
-89,65,7.093
-122,-117,7.094
-104,-305,7.095
-59,-254,7.096
-14,-94,7.097
-3,-33,7.098
-20,-63,7.099
-23,-51,7.1
17,17,7.101
70,65,7.102
78,98,7.103
45,144,7.104
24,142,7.105
39,61,7.106
59,29,7.107
54,118,7.108
30,156,7.109
10,-36,7.11
1,-301,7.111
3,-339,7.112
13,-174,7.113
14,-70,7.114
0,-134,7.115
-17,-119,7.116
-17,37,7.117
-7,135,7.118
-7,78,7.119
-18,19,7.12
-25,51,7.121
-27,70,7.122
-30,15,7.123
-30,-16,7.124
-21,50,7.125
-14,123,7.126
-9,108,7.127
-7,8,7.128
-1,-108,7.129
5,-171,7.13
5,-114,7.131
6,55,7.132
11,233,7.133
14,329,7.134
9,286,7.135
6,83,7.136
10,-223,7.137
16,-450,7.138
25,-423,7.139
33,-198,7.14
35,-6,7.141
36,35,7.142
32,35,7.143
25,102,7.144
15,183,7.145
4,169,7.146
-5,72,7.147
-13,-2,7.148
-10,32,7.149
-8,121,7.15
-14,114,7.151
-18,-60,7.152
-12,-239,7.153
-7,-224,7.154
-10,-66,7.155
-16,35,7.156
-20,-30,7.157
-19,-58,7.158
-10,28,7.159
3,93,7.16
9,91,7.161
1,98,7.162
-8,131,7.163
-8,153,7.164
-1,139,7.165
2,131,7.166
2,139,7.167
5,131,7.168
12,77,7.169
15,-6,7.17
15,-177,7.171
15,-293,7.172
17,-243,7.173
17,-195,7.174
13,-228,7.175
8,-319,7.176
8,-254,7.177
14,-20,7.178
18,155,7.179
19,174,7.18
17,141,7.181
7,71,7.182
-6,-116,7.183
-18,-295,7.184
-20,-226,7.185
-21,34,7.186
-26,186,7.187
-25,154,7.188
-15,128,7.189
-4,161,7.19
-12,122,7.191
-28,21,7.192
-26,9,7.193
9,92,7.194
57,113,7.195
77,45,7.196
56,10,7.197
9,31,7.198
-35,6,7.199
-62,-51,7.2
-74,-35,7.201
-78,63,7.202
-68,184,7.203
-45,301,7.204
-7,334,7.205
40,115,7.206
95,-307,7.207
146,-563,7.208
176,-403,7.209
171,-64,7.21
135,71,7.211
81,0,7.212
29,-30,7.213
-11,28,7.214
-24,38,7.215
-20,-25,7.216
-20,-38,7.217
-37,20,7.218
-59,41,7.219
-67,2,7.22
-65,-10,7.221
-59,13,7.222
-51,12,7.223
-37,-2,7.224
-25,37,7.225
-17,111,7.226
-13,132,7.227
-4,66,7.228
3,-50,7.229
7,-161,7.23
4,-200,7.231
-2,-101,7.232
-8,92,7.233
-10,200,7.234
-8,103,7.235
-10,-14,7.236
-15,-191,7.237
-19,-280,7.238
-13,-106,7.239
-4,15,7.24
1,-21,7.241
2,-33,7.242
7,25,7.243
13,76,7.244
17,100,7.245
14,120,7.246
7,128,7.247
-1,125,7.248
-4,87,7.249
4,39,7.25
17,-40,7.251
26,-84,7.252
24,-21,7.253
18,23,7.254
11,-11,7.255
5,-49,7.256
1,-87,7.257
0,-138,7.258
13,-141,7.259
22,-40,7.26
15,86,7.261
10,89,7.262
10,-34,7.263
11,-141,7.264
11,-108,7.265
9,23,7.266
1,124,7.267
-3,123,7.268
5,79,7.269
7,99,7.27
-10,191,7.271
-25,214,7.272
-34,83,7.273
-35,-149,7.274
-4,-193,7.275
35,-75,7.276
39,-5,7.277
-5,-49,7.278
-53,-60,7.279
-49,36,7.28
7,82,7.281
64,-30,7.282
86,-132,7.283
71,-39,7.284
44,141,7.285
19,188,7.286
5,100,7.287
-5,40,7.288
-15,38,7.289
-19,-10,7.29
-14,-110,7.291
-6,-145,7.292
-2,-86,7.293
-4,-29,7.294
1,-35,7.295
3,-52,7.296
-6,-24,7.297
-14,15,7.298
-15,14,7.299
-15,0,7.3
-8,19,7.301
-3,49,7.302
-9,23,7.303
-15,-47,7.304
-21,-81,7.305
-19,-29,7.306
11,50,7.307
34,55,7.308
30,-38,7.309
26,-146,7.31
24,-178,7.311
19,-127,7.312
8,-56,7.313
-8,-4,7.314
-29,29,7.315
-28,58,7.316
-14,66,7.317
-6,78,7.318
-8,102,7.319
-11,116,7.32
-13,98,7.321
-12,73,7.322
-11,27,7.323
-11,-12,7.324
-9,-28,7.325
-2,-41,7.326
7,-48,7.327
7,-40,7.328
-6,14,7.329
-19,51,7.33
-15,31,7.331
7,-8,7.332
33,-100,7.333
54,-194,7.334
57,-253,7.335
51,-205,7.336
46,-65,7.337
38,91,7.338
22,200,7.339
-3,250,7.34
-26,242,7.341
-39,177,7.342
-44,92,7.343
-46,59,7.344
-42,104,7.345
-25,152,7.346
-6,114,7.347
4,5,7.348
10,-71,7.349
13,-63,7.35
11,-26,7.351
7,-30,7.352
6,-63,7.353
16,-91,7.354
29,-110,7.355
33,-132,7.356
34,-116,7.357
48,-32,7.358
72,40,7.359
82,19,7.36
56,-42,7.361
12,-40,7.362
-19,10,7.363
-29,10,7.364
-32,-49,7.365
-39,-66,7.366
-43,-11,7.367
-41,40,7.368
-32,37,7.369
-26,18,7.37
-21,17,7.371
-13,5,7.372
1,-30,7.373
12,-62,7.374
20,-64,7.375
24,-61,7.376
13,-81,7.377
3,-100,7.378
-6,-98,7.379
-13,-92,7.38
-17,-103,7.381
-20,-116,7.382
-19,-103,7.383
-20,-60,7.384
-29,0,7.385
-32,69,7.386
-12,138,7.387
9,185,7.388
36,197,7.389
54,195,7.39
41,209,7.391
29,228,7.392
23,209,7.393
13,119,7.394
-5,-9,7.395
-25,-122,7.396
-31,-189,7.397
-25,-192,7.398
-13,-1,7.399
5,149,7.4
17,180,7.401
10,168,7.402
-15,25,7.403
-42,-88,7.404
-56,-109,7.405
-47,-139,7.406
-18,-198,7.407
19,-208,7.408
50,-69,7.409
65,48,7.41
63,98,7.411
57,137,7.412
54,138,7.413
43,127,7.414
19,65,7.415
-5,5,7.416
-7,-32,7.417
8,-43,7.418
18,-41,7.419
9,-55,7.42
1,-112,7.421
1,-167,7.422
-4,-123,7.423
-21,28,7.424
-33,151,7.425
-25,140,7.426
-13,60,7.427
-23,22,7.428
-48,28,7.429
-60,-1,7.43
-42,-82,7.431
-5,-160,7.432
26,-173,7.433
42,-67,7.434
42,83,7.435
33,163,7.436
30,91,7.437
34,-77,7.438
37,-218,7.439
28,-249,7.44
18,-165,7.441
12,-8,7.442
3,129,7.443
-14,165,7.444
-31,123,7.445
-37,97,7.446
-32,111,7.447
-23,110,7.448
-9,81,7.449
14,77,7.45
29,92,7.451
22,73,7.452
8,26,7.453
-4,1,7.454
-10,-4,7.455
-22,-44,7.456
-29,-118,7.457
-15,-167,7.458
16,-200,7.459
37,-247,7.46
39,-255,7.461
38,-157,7.462
40,-9,7.463
34,57,7.464
17,-8,7.465
2,-143,7.466
-4,-220,7.467
-5,-106,7.468
-8,208,7.469
-7,492,7.47
-6,488,7.471
-11,253,7.472
-18,103,7.473
-22,149,7.474
-19,207,7.475
-18,120,7.476
-14,0,7.477
-6,-5,7.478
-2,38,7.479
-8,12,7.48
-19,-45,7.481
-21,-62,7.482
-16,-69,7.483
-15,-104,7.484
-9,-113,7.485
10,-77,7.486
38,-61,7.487
48,-94,7.488
37,-118,7.489
26,-115,7.49
25,-140,7.491
21,-186,7.492
9,-170,7.493
-4,-55,7.494
-7,62,7.495
-13,86,7.496
-21,31,7.497
-18,-17,7.498
-3,-29,7.499
5,-40,7.5
-4,-86,7.501
-13,-161,7.502
-4,-191,7.503
14,-89,7.504
21,127,7.505
18,297,7.506
14,282,7.507
10,144,7.508
4,50,7.509
-5,55,7.51
-18,63,7.511
-26,5,7.512
-21,-89,7.513
-14,-230,7.514
-18,-427,7.515
-16,-568,7.516
7,-439,7.517
33,28,7.518
65,558,7.519
85,776,7.52
67,585,7.521
54,240,7.522
58,39,7.523
50,11,7.524
6,-19,7.525
-28,-130,7.526
-29,-214,7.527
-28,-207,7.528
-18,-204,7.529
-9,-224,7.53
-2,-72,7.531
-6,316,7.532
-46,610,7.533
-89,574,7.534
-124,296,7.535
-115,84,7.536
-72,95,7.537
-15,118,7.538
54,173,7.539
115,173,7.54
132,18,7.541
90,-93,7.542
32,-15,7.543
0,18,7.544
-26,-115,7.545
-78,-182,7.546
-132,-82,7.547
-132,7,7.548
-72,-48,7.549
4,-93,7.55
80,-93,7.551
160,-126,7.552
214,-249,7.553
201,172,7.554
132,95,7.555
64,36,7.556
1,39,7.557
-47,45,7.558
-51,61,7.559
-48,61,7.56
-22,18,7.561
-3,-12,7.562
-5,9,7.563
-1,18,7.564
27,-19,7.565
38,-37,7.566
-2,-9,7.567
-33,15,7.568
-36,0,7.569
-36,-12,7.57
-26,-12,7.571
-19,-22,7.572
-20,-56,7.573
-24,68,7.574
-32,43,7.575
-24,24,7.576
-8,25,7.577
-1,27,7.578
-11,32,7.579
-26,32,7.58
-31,18,7.581
-26,8,7.582
-20,15,7.583
-19,18,7.584
-17,6,7.585
-5,0,7.586
9,9,7.587
12,17,7.588
9,12,7.589
9,8,7.59
14,8,7.591
18,5,7.592
16,-6,7.593
10,-17,7.594
3,-13,7.595
0,-1,7.596
1,-16,7.597
4,-50,7.598
7,-62,7.599
12,-40,7.6
19,-11,7.601
21,-7,7.602
15,-30,7.603
5,-55,7.604
3,-46,7.605
5,1,7.606
-1,45,7.607
-18,32,7.608
-35,-33,7.609
-34,-77,7.61
-3,-43,7.611
43,35,7.612
76,64,7.613
74,10,7.614
58,-24,7.615
38,80,7.616
10,268,7.617
-17,343,7.618
-43,214,7.619
-62,9,7.62
-55,-113,7.621
-50,-140,7.622
-53,-120,7.623
-38,-32,7.624
33,105,7.625
87,136,7.626
89,-53,7.627
98,-334,7.628
126,-430,7.629
134,-214,7.63
82,169,7.631
32,444,7.632
-12,459,7.633
-39,295,7.634
-1,151,7.635
1,36,7.636
-60,14,7.637
-134,-12,7.638
-149,-52,7.639
-99,-79,7.64
-30,-68,7.641
19,-66,7.642
49,-96,7.643
67,-117,7.644
74,-110,7.645
78,-89,7.646
87,-29,7.647
91,10,7.648
70,-19,7.649
20,-41,7.65
-46,-41,7.651
-112,-39,7.652
-155,-33,7.653
-152,-36,7.654
-113,-43,7.655
-82,-11,7.656
-67,10,7.657
-27,4,7.658
60,2,7.659
138,10,7.66
142,-18,7.661
82,-86,7.662
26,-130,7.663
9,-92,7.664
10,6,7.665
2,98,7.666
-1,130,7.667
14,96,7.668
31,38,7.669
33,-6,7.67
23,-32,7.671
12,-45,7.672
-5,-27,7.673
-31,25,7.674
-53,61,7.675
-52,34,7.676
-39,-17,7.677
-36,-22,7.678
-37,1,7.679
-26,-6,7.68
-1,-35,7.681
18,-36,7.682
22,-16,7.683
25,-18,7.684
35,-19,7.685
48,24,7.686
54,79,7.687
40,73,7.688
-2,3,7.689
-59,-71,7.69
-90,-113,7.691
-61,-106,7.692
3,-34,7.693
47,78,7.694
52,132,7.695
56,61,7.696
56,-62,7.697
50,-110,7.698
21,-51,7.699
-4,62,7.7
-20,159,7.701
-31,177,7.702
-25,98,7.703
-20,1,7.704
-15,-4,7.705
-13,71,7.706
-25,109,7.707
-37,60,7.708
-53,1,7.709
-57,-14,7.71
-27,-26,7.711
-2,-62,7.712
4,-78,7.713
-1,-52,7.714
-50,-22,7.715
-60,-3,7.716
4,-16,7.717
99,-26,7.718
157,-28,7.719
166,-32,7.72
153,-40,7.721
125,-50,7.722
73,-66,7.723
21,-101,7.724
1,-189,7.725
3,-290,7.726
-3,-428,7.727
-18,-459,7.728
-21,-169,7.729
-20,127,7.73
-40,445,7.731
-73,635,7.732
-85,438,7.733
-72,253,7.734
-54,181,7.735
-49,161,7.736
-46,85,7.737
-37,4,7.738
-24,1,7.739
-7,43,7.74
11,34,7.741
13,-38,7.742
-15,-106,7.743
-53,-124,7.744
-65,-103,7.745
-35,-73,7.746
7,-52,7.747
30,-48,7.748
31,-58,7.749
35,-75,7.75
53,-80,7.751
66,-60,7.752
61,-17,7.753
63,17,7.754
92,8,7.755
122,-43,7.756
96,-93,7.757
15,-97,7.758
-46,-60,7.759
-39,-27,7.76
7,-47,7.761
24,-115,7.762
11,-151,7.763
4,-70,7.764
7,104,7.765
-6,239,7.766
-31,243,7.767
-37,170,7.768
-18,123,7.769
-2,116,7.77
-3,95,7.771
-5,56,7.772
-2,47,7.773
132,73,7.774
93,91,7.775
50,66,7.776
-8,17,7.777
-44,-19,7.778
-23,-36,7.779
-11,-41,7.78
-25,-39,7.781
-35,-36,7.782
-29,-32,7.783
-24,-29,7.784
-20,-31,7.785
-18,-55,7.786
-22,-98,7.787
-27,-128,7.788
-31,-127,7.789
-36,-106,7.79
-50,-86,7.791
-57,-41,7.792
-41,50,7.793
138,-39,7.794
98,-70,7.795
53,-110,7.796
-7,-180,7.797
-46,-207,7.798
-24,-102,7.799
-11,1,7.8
-26,105,7.801
-36,170,7.802
-30,115,7.803
-25,66,7.804
-21,33,7.805
-19,-4,7.806
-23,-58,7.807
-28,-83,7.808
-32,-20,7.809
-38,40,7.81
-52,97,7.811
-59,122,7.812
-43,42,7.813
-17,-61,7.814
35,-111,7.815
64,-177,7.816
62,-290,7.817
54,-333,7.818
60,-164,7.819
52,5,7.82
7,173,7.821
-38,278,7.822
-38,190,7.823
-11,110,7.824
-6,56,7.825
-20,-5,7.826
-16,-92,7.827
3,-133,7.828
5,-31,7.829
-15,68,7.83
-13,161,7.831
19,200,7.832
38,72,7.833
9,-37,7.834
-36,-45,7.835
-56,-32,7.836
-37,-64,7.837
-12,-131,7.838
0,-207,7.839
13,-276,7.84
49,-294,7.841
103,-205,7.842
133,-46,7.843
109,56,7.844
55,35,7.845
19,-30,7.846
14,-22,7.847
4,51,7.848
-24,99,7.849
-46,76,7.85
-43,33,7.851
-38,26,7.852
-47,42,7.853
-18,36,7.854
-22,-1,7.855
-27,-33,7.856
-33,-43,7.857
-36,-34,7.858
-24,-17,7.859
-3,15,7.86
36,53,7.861
72,66,7.862
87,32,7.863
92,-32,7.864
71,-96,7.865
50,-149,7.866
27,-180,7.867
4,-148,7.868
-21,-25,7.869
-41,130,7.87
-41,207,7.871
-39,163,7.872
-38,80,7.873
-23,27,7.874
-28,18,7.875
-34,11,7.876
-42,-10,7.877
-45,-21,7.878
-30,-15,7.879
-5,-4,7.88
44,-3,7.881
87,-11,7.882
105,-34,7.883
112,-75,7.884
86,-114,7.885
60,-131,7.886
32,-116,7.887
3,-79,7.888
-27,-41,7.889
-51,-10,7.89
-51,22,7.891
-49,69,7.892
-47,118,7.893
-48,12,7.894
-52,-7,7.895
-40,-29,7.896
-31,-56,7.897
-31,-69,7.898
-16,-42,7.899
20,-1,7.9
47,80,7.901
38,143,7.902
10,145,7.903
-6,142,7.904
-11,121,7.905
-13,103,7.906
-2,93,7.907
29,81,7.908
57,61,7.909
59,48,7.91
42,51,7.911
29,54,7.912
21,51,7.913
9,-89,7.914
2,-162,7.915
10,-242,7.916
22,-342,7.917
22,-392,7.918
17,-291,7.919
18,-138,7.92
14,167,7.921
-1,400,7.922
-7,408,7.923
2,395,7.924
3,318,7.925
-20,251,7.926
-39,215,7.927
-34,169,7.928
-26,96,7.929
-41,44,7.93
-59,60,7.931
-54,69,7.932
-40,58,7.933
-32,39,7.934
-19,-4,7.935
8,-34,7.936
30,-52,7.937
28,-80,7.938
28,-135,7.939
44,-184,7.94
59,-176,7.941
48,-106,7.942
24,-33,7.943
23,-31,7.944
38,-120,7.945
41,-255,7.946
20,-367,7.947
-9,-402,7.948
-23,-349,7.949
-17,-213,7.95
1,0,7.951
7,248,7.952
-22,415,7.953
-87,400,7.954
-134,269,7.955
-103,172,7.956
1,184,7.957
99,182,7.958
126,137,7.959
97,103,7.96
84,103,7.961
108,94,7.962
118,64,7.963
72,31,7.964
5,-7,7.965
-23,-43,7.966
-16,-67,7.967
-22,-83,7.968
-47,-72,7.969
-62,-67,7.97
-51,-83,7.971
-44,-94,7.972
-51,-91,7.973
-61,-82,7.974
-57,-72,7.975
-46,-79,7.976
-40,-81,7.977
-28,-65,7.978
-3,-48,7.979
22,-36,7.98
34,-22,7.981
34,-15,7.982
28,-19,7.983
15,-20,7.984
0,-10,7.985
-6,-6,7.986
-1,-18,7.987
4,-32,7.988
4,-34,7.989
2,-33,7.99
-1,-43,7.991
-8,-55,7.992
-9,-70,7.993
6,-88,7.994
30,-76,7.995
35,16,7.996
15,153,7.997
-13,222,7.998
-29,169,7.999
-28,80,8.0
-23,59,8.001
-14,90,8.002
-3,94,8.003
14,54,8.004
36,18,8.005
52,-3,8.006
51,-39,8.007
27,-95,8.008
-5,-142,8.009
-23,-154,8.01
-14,-127,8.011
11,-80,8.012
30,-45,8.013
26,-32,8.014
18,4,8.015
13,100,8.016
18,195,8.017
24,200,8.018
30,134,8.019
35,90,8.02
34,83,8.021
23,43,8.022
-18,-24,8.023
-50,-41,8.024
-55,14,8.025
-53,66,8.026
-29,71,8.027
-10,57,8.028
-10,35,8.029
-7,-7,8.03
10,-46,8.031
25,-44,8.032
31,-15,8.033
37,-19,8.034
37,-50,8.035
30,-74,8.036
16,-77,8.037
1,-80,8.038
-7,-79,8.039
-14,-82,8.04
-20,-99,8.041
-18,-105,8.042
-4,-79,8.043
2,-39,8.044
-8,41,8.045
-21,89,8.046
-17,43,8.047
-11,13,8.048
-30,32,8.049
-84,45,8.05
-153,36,8.051
-203,26,8.052
-196,12,8.053
-103,-2,8.054
63,-22,8.055
218,-28,8.056
291,-8,8.057
286,18,8.058
254,9,8.059
200,-19,8.06
99,-22,8.061
-15,3,8.062
-73,13,8.063
-65,-5,8.064
-54,-34,8.065
-72,-55,8.066
-84,-70,8.067
-73,-68,8.068
-70,-37,8.069
-84,1,8.07
-72,11,8.071
-23,-4,8.072
20,-6,8.073
-79,16,8.074
-92,34,8.075
-98,35,8.076
-85,24,8.077
-63,7,8.078
-25,-14,8.079
3,-28,8.08
6,-10,8.081
12,28,8.082
25,44,8.083
38,26,8.084
44,9,8.085
50,18,8.086
44,44,8.087
38,57,8.088
31,46,8.089
28,22,8.09
28,9,8.091
25,23,8.092
12,44,8.093
-25,44,8.094
-29,22,8.095
-31,14,8.096
-27,32,8.097
-20,39,8.098
-8,2,8.099
1,-50,8.1
2,-67,8.101
4,-55,8.102
8,-67,8.103
12,-118,8.104
14,-152,8.105
16,-113,8.106
14,-23,8.107
12,42,8.108
10,42,8.109
9,15,8.11
9,15,8.111
8,48,8.112
4,81,8.113
-2,87,8.114
-10,87,8.115
-14,85,8.116
-10,77,8.117
-3,69,8.118
1,66,8.119
6,61,8.12
12,51,8.121
10,32,8.122
3,-15,8.123
-2,-49,8.124
-2,-43,8.125
-1,-41,8.126
-8,-56,8.127
-18,-76,8.128
-16,-109,8.129
2,-127,8.13
12,-97,8.131
-6,-65,8.132
-34,-26,8.133
-43,3,8.134
-14,1,8.135
23,-8,8.136
41,-38,8.137
50,-69,8.138
79,-52,8.139
123,13,8.14
140,64,8.141
106,53,8.142
51,19,8.143
22,12,8.144
31,20,8.145
41,7,8.146
11,-12,8.147
-47,-12,8.148
-90,1,8.149
-101,9,8.15
-102,15,8.151
-120,25,8.152
-136,15,8.153
-110,-26,8.154
-30,-53,8.155
69,-28,8.156
138,2,8.157
152,-7,8.158
125,-25,8.159
91,29,8.16
64,136,8.161
33,168,8.162
-12,71,8.163
-58,-58,8.164
-86,-84,8.165
-92,0,8.166
-89,79,8.167
-71,68,8.168
-29,-2,8.169
16,-47,8.17
20,-27,8.171
-10,26,8.172
-16,54,8.173
6,44,8.174
13,26,8.175
12,5,8.176
-13,-84,8.177
-28,-263,8.178
-9,-403,8.179
5,-326,8.18
6,-52,8.181
8,186,8.182
14,230,8.183
19,163,8.184
19,119,8.185
16,101,8.186
9,69,8.187
2,53,8.188
-3,86,8.189
-7,106,8.19
-4,60,8.191
-2,-8,8.192
-3,-23,8.193
-3,7,8.194
-5,43,8.195
-16,62,8.196
-20,31,8.197
-10,-12,8.198
4,-89,8.199
15,-132,8.2
33,-72,8.201
58,-28,8.202
65,-37,8.203
48,-42,8.204
24,-36,8.205
12,-35,8.206
-1,-48,8.207
-32,-54,8.208
-67,-36,8.209
-79,-23,8.21
-57,-22,8.211
-16,-16,8.212
28,1,8.213
60,20,8.214
66,26,8.215
47,24,8.216
17,20,8.217
-11,8,8.218
-35,-10,8.219
-51,-7,8.22
-50,27,8.221
-43,70,8.222
-45,96,8.223
-55,83,8.224
-32,16,8.225
49,-68,8.226
157,-77,8.227
224,30,8.228
205,150,8.229
117,142,8.23
12,-1,8.231
-65,-149,8.232
-99,-194,8.233
-96,-113,8.234
-69,-4,8.235
-42,31,8.236
-15,-52,8.237
9,-164,8.238
21,-160,8.239
27,-26,8.24
16,82,8.241
4,72,8.242
-7,41,8.243
-15,103,8.244
-9,228,8.245
-6,323,8.246
-10,345,8.247
-16,265,8.248
-30,33,8.249
-40,-271,8.25
-38,-437,8.251
-34,-371,8.252
-23,-225,8.253
-16,-156,8.254
-17,-135,8.255
-13,-53,8.256
-6,71,8.257
-5,155,8.258
-4,194,8.259
4,210,8.26
6,142,8.261
-6,-29,8.262
-11,-161,8.263
5,-122,8.264
29,5,8.265
36,50,8.266
35,7,8.267
43,-11,8.268
51,14,8.269
44,25,8.27
27,12,8.271
19,24,8.272
20,51,8.273
16,17,8.274
6,16,8.275
3,17,8.276
5,29,8.277
3,38,8.278
2,40,8.279
8,32,8.28
12,-6,8.281
1,-32,8.282
-13,-17,8.283
-20,3,8.284
-27,35,8.285
-51,56,8.286
-73,40,8.287
-72,15,8.288
-43,-40,8.289
-10,-67,8.29
16,-11,8.291
37,53,8.292
46,145,8.293
27,14,8.294
-8,11,8.295
-25,15,8.296
-12,47,8.297
20,72,8.298
56,77,8.299
88,56,8.3
99,-46,8.301
68,-114,8.302
14,-74,8.303
-14,-21,8.304
10,64,8.305
55,119,8.306
71,77,8.307
42,9,8.308
-10,-134,8.309
-51,-205,8.31
-57,-59,8.311
-37,110,8.312
-33,349,8.313
-63,550,8.314
-83,485,8.315
-82,54,8.316
-12,-588,8.317
27,-923,8.318
-26,-646,8.319
-61,-134,8.32
-41,70,8.321
-12,20,8.322
43,130,8.323
87,395,8.324
95,405,8.325
100,70,8.326
97,-225,8.327
83,-225,8.328
37,-86,8.329
-1,-12,8.33
-17,15,8.331
-30,64,8.332
-32,118,8.333
-30,158,8.334
-18,187,8.335
-23,151,8.336
-32,12,8.337
-30,-120,8.338
-10,-107,8.339
6,25,8.34
14,125,8.341
16,129,8.342
16,82,8.343
6,24,8.344
-9,-35,8.345
-17,-69,8.346
-12,-58,8.347
-10,-37,8.348
-16,-30,8.349
-20,-16,8.35
-15,25,8.351
-6,48,8.352
-3,23,8.353
-5,-26,8.354
-3,-52,8.355
1,-48,8.356
3,-30,8.357
5,12,8.358
15,69,8.359
29,99,8.36
28,73,8.361
12,18,8.362
-2,-27,8.363
-5,-74,8.364
-11,-143,8.365
-33,-197,8.366
-55,-169,8.367
-54,-72,8.368
-33,4,8.369
-5,10,8.37
23,-1,8.371
52,37,8.372
74,102,8.373
67,133,8.374
31,97,8.375
-16,21,8.376
-46,-50,8.377
-38,-74,8.378
8,-29,8.379
69,90,8.38
105,247,8.381
103,335,8.382
82,258,8.383
60,78,8.384
30,-15,8.385
-9,20,8.386
-36,-18,8.387
-37,-257,8.388
-31,-491,8.389
-37,-474,8.39
-40,-311,8.391
-21,-254,8.392
2,-275,8.393
4,-186,8.394
-9,69,8.395
-23,262,8.396
-40,228,8.397
-61,101,8.398
-59,29,8.399
-8,20,8.4
54,71,8.401
72,188,8.402
47,245,8.403
21,93,8.404
11,-143,8.405
-5,-187,8.406
-30,-16,8.407
-44,112,8.408
-37,75,8.409
-24,28,8.41
-16,87,8.411
-4,164,8.412
10,155,8.413
12,51,8.414
4,-54,8.415
-3,-124,8.416
-6,-112,8.417
-8,6,8.418
-2,128,8.419
4,120,8.42
12,-8,8.421
17,-129,8.422
9,-149,8.423
2,-87,8.424
3,-9,8.425
4,34,8.426
1,40,8.427
0,55,8.428
6,120,8.429
12,191,8.43
13,189,8.431
15,119,8.432
13,90,8.433
11,122,8.434
8,84,8.435
6,-100,8.436
4,-272,8.437
-1,-246,8.438
-10,-165,8.439
-16,-284,8.44
-22,-497,8.441
-30,-424,8.442
-34,9,8.443
-27,447,8.444
-16,582,8.445
-9,414,8.446
8,50,8.447
48,-353,8.448
96,-516,8.449
118,-296,8.45
95,25,8.451
42,70,8.452
-14,-77,8.453
-63,-108,8.454
-83,19,8.455
-62,89,8.456
-20,90,8.457
0,195,8.458
8,298,8.459
41,132,8.46
100,-196,8.461
123,-288,8.462
69,-72,8.463
-8,121,8.464
-35,123,8.465
-11,107,8.466
3,167,8.467
-19,143,8.468
-44,-33,8.469
-40,-171,8.47
-20,-131,8.471
-14,-19,8.472
-24,33,8.473
-29,39,8.474
-23,52,8.475
-17,46,8.476
-17,0,8.477
-13,-29,8.478
-1,-2,8.479
7,50,8.48
0,90,8.481
-15,98,8.482
-21,46,8.483
-15,-55,8.484
-5,-113,8.485
1,-55,8.486
8,49,8.487
22,77,8.488
34,16,8.489
32,-43,8.49
19,-51,8.491
12,-37,8.492
16,-26,8.493
18,5,8.494
12,77,8.495
7,154,8.496
5,153,8.497
3,25,8.498
5,-160,8.499
6,-235,8.5
0,-130,8.501
-3,12,8.502
-1,24,8.503
-1,-46,8.504
-9,-30,8.505
-15,83,8.506
-17,158,8.507
-20,151,8.508
-25,113,8.509
-31,9,8.51
-37,-201,8.511
-33,-353,8.512
6,-223,8.513
46,129,8.514
76,389,8.515
67,481,8.516
49,69,8.517
45,-302,8.518
44,-550,8.519
28,-633,8.52
4,-220,8.521
-6,89,8.522
-1,84,8.523
-1,74,8.524
-9,49,8.525
-16,36,8.526
-16,64,8.527
-13,109,8.528
-9,208,8.529
-9,204,8.53
-23,-112,8.531
-43,-319,8.532
-46,-200,8.533
-20,-55,8.534
0,47,8.535
-1,-10,8.536
-3,0,8.537
8,91,8.538
19,97,8.539
9,29,8.54
-13,31,8.541
-18,84,8.542
-3,60,8.543
13,-1,8.544
13,30,8.545
2,144,8.546
-1,206,8.547
5,132,8.548
17,-52,8.549
34,-246,8.55
59,-302,8.551
75,-150,8.552
61,58,8.553
16,142,8.554
-27,93,8.555
-36,92,8.556
-9,121,8.557
29,53,8.558
56,-80,8.559
69,-105,8.56
63,-1,8.561
40,75,8.562
10,70,8.563
-9,114,8.564
-20,260,8.565
-31,323,8.566
-45,122,8.567
-58,-206,8.568
-67,-315,8.569
-59,-110,8.57
-27,116,8.571
12,99,8.572
31,-49,8.573
19,-144,8.574
7,-213,8.575
13,-367,8.576
21,-466,8.577
8,-297,8.578
-16,-5,8.579
-25,84,8.58
-20,-17,8.581
-14,-41,8.582
-14,54,8.583
-5,85,8.584
10,41,8.585
16,107,8.586
8,275,8.587
2,321,8.588
9,176,8.589
22,30,8.59
27,1,8.591
21,-17,8.592
10,-107,8.593
0,-194,8.594
-1,-145,8.595
-2,-2,8.596
-7,84,8.597
-16,79,8.598
-17,71,8.599
-10,112,8.6
-7,141,8.601
-7,78,8.602
-2,-41,8.603
10,-99,8.604
16,-38,8.605
7,65,8.606
-7,99,8.607
-12,43,8.608
-8,-23,8.609
-3,-39,8.61
0,-21,8.611
3,-6,8.612
10,5,8.613
11,23,8.614
8,14,8.615
4,-49,8.616
3,-111,8.617
3,-48,8.618
-2,124,8.619
-14,201,8.62
-29,42,8.621
-39,-184,8.622
-33,-200,8.623
-13,-30,8.624
18,25,8.625
46,-134,8.626
60,-261,8.627
58,-181,8.628
52,-33,8.629
48,37,8.63
37,134,8.631
14,305,8.632
-1,329,8.633
3,32,8.634
18,-317,8.635
20,-314,8.636
8,-3,8.637
-4,181,8.638
-10,27,8.639
-15,-201,8.64
-21,-197,8.641
-25,-14,8.642
-30,108,8.643
-33,90,8.644
-26,53,8.645
-11,73,8.646
3,94,8.647
2,74,8.648
-4,58,8.649
-10,72,8.65
-18,57,8.651
-24,-21,8.652
-21,-82,8.653
228,-51,8.654
102,31,8.655
8,54,8.656
4,5,8.657
-8,-20,8.658
-36,13,8.659
-54,40,8.66
-41,13,8.661
-32,-39,8.662
-47,-78,8.663
-52,-95,8.664
-32,-85,8.665
-23,-33,8.666
-50,42,8.667
-68,82,8.668
-56,77,8.669
-41,73,8.67
-29,106,8.671
-16,132,8.672
-6,92,8.673
121,-30,8.674
51,-22,8.675
-1,-12,8.676
-3,12,8.677
-10,29,8.678
-26,24,8.679
-36,16,8.68
-29,3,8.681
-24,-1,8.682
-32,23,8.683
-35,43,8.684
-24,48,8.685
-19,37,8.686
-34,-23,8.687
-44,-77,8.688
-37,-106,8.689
-29,-127,8.69
-22,-118,8.691
-15,-84,8.692
-9,19,8.693
-3,-29,8.694
3,-22,8.695
15,-12,8.696
23,8,8.697
16,23,8.698
7,19,8.699
10,12,8.7
13,1,8.701
1,-3,8.702
-18,18,8.703
-20,35,8.704
-7,39,8.705
4,30,8.706
8,-23,8.707
14,-69,8.708
25,-94,8.709
32,-112,8.71
32,-104,8.711
33,-75,8.712
38,14,8.713
38,100,8.714
25,133,8.715
-7,90,8.716
-42,48,8.717
-53,62,8.718
-29,83,8.719
4,59,8.72
9,24,8.721
-18,20,8.722
-44,10,8.723
-45,-46,8.724
-25,-120,8.725
9,-171,8.726
44,-203,8.727
63,-204,8.728
49,-140,8.729
18,-41,8.73
1,-1,8.731
1,-22,8.732
4,2,8.733
1,132,8.734
2,257,8.735
-2,242,8.736
-26,119,8.737
-45,32,8.738
-45,30,8.739
-36,48,8.74
3,36,8.741
36,17,8.742
51,15,8.743
68,20,8.744
89,15,8.745
100,12,8.746
82,9,8.747
58,-4,8.748
18,-15,8.749
-14,-4,8.75
-20,24,8.751
-32,36,8.752
-56,25,8.753
-74,14,8.754
-59,14,8.755
-33,2,8.756
-14,-43,8.757
0,-81,8.758
14,-95,8.759
19,-125,8.76
17,-199,8.761
16,-227,8.762
16,-112,8.763
6,3,8.764
-8,116,8.765
-15,188,8.766
-10,132,8.767
-7,86,8.768
-11,70,8.769
-8,49,8.77
10,16,8.771
26,-6,8.772
24,4,8.773
4,6,8.774
-6,-30,8.775
0,-57,8.776
9,-57,8.777
2,-57,8.778
-14,-72,8.779
-19,-73,8.78
-9,-32,8.781
9,13,8.782
25,-19,8.783
31,-178,8.784
20,-399,8.785
-2,-487,8.786
-15,-250,8.787
-12,234,8.788
-9,599,8.789
-13,554,8.79
-17,253,8.791
-14,73,8.792
-7,108,8.793
-7,143,8.794
-8,46,8.795
-5,-55,8.796
-4,-35,8.797
-6,22,8.798
-5,1,8.799
1,-53,8.8
1,-68,8.801
-6,-59,8.802
-9,-48,8.803
0,-8,8.804
8,44,8.805
-1,46,8.806
-31,8,8.807
-65,-6,8.808
-75,-3,8.809
-45,-34,8.81
2,-84,8.811
33,-95,8.812
36,-82,8.813
34,-102,8.814
58,-145,8.815
96,-170,8.816
118,-197,8.817
103,-253,8.818
67,-277,8.819
44,-175,8.82
52,30,8.821
60,215,8.822
26,304,8.823
-55,316,8.824
-135,288,8.825
-161,238,8.826
-126,190,8.827
-57,159,8.828
4,120,8.829
28,56,8.83
20,1,8.831
32,-17,8.832
94,-24,8.833
170,-51,8.834
174,-73,8.835
85,-91,8.836
-3,-91,8.837
-14,-82,8.838
32,-46,8.839
48,-7,8.84
7,36,8.841
-47,50,8.842
-81,-23,8.843
-99,-130,8.844
-108,-331,8.845
-94,-472,8.846
-54,-430,8.847
-10,-276,8.848
18,217,8.849
40,546,8.85
64,381,8.851
75,247,8.852
56,208,8.853
11,195,8.854
-26,183,8.855
-59,56,8.856
-71,-8,8.857
-74,24,8.858
-44,15,8.859
-18,-58,8.86
-1,-82,8.861
6,-41,8.862
-18,-32,8.863
-29,-65,8.864
3,-58,8.865
27,-16,8.866
25,-22,8.867
26,-67,8.868
35,-74,8.869
40,-40,8.87
30,-27,8.871
27,-39,8.872
49,-34,8.873
77,-32,8.874
95,-84,8.875
39,-173,8.876
-46,-212,8.877
-82,-143,8.878
-48,-11,8.879
-5,89,8.88
-12,115,8.881
-48,93,8.882
-57,86,8.883
-22,115,8.884
17,140,8.885
27,120,8.886
17,78,8.887
24,64,8.888
55,73,8.889
72,61,8.89
52,14,8.891
16,-28,8.892
2,-42,8.893
0,-45,8.894
-27,-56,8.895
-70,-61,8.896
-87,-51,8.897
-67,-32,8.898
-37,-19,8.899
-20,-9,8.9
-4,-1,8.901
12,0,8.902
12,-10,8.903
-17,-18,8.904
-53,-16,8.905
-62,-11,8.906
-35,-6,8.907
8,-3,8.908
54,0,8.909
103,-2,8.91
160,-9,8.911
195,-13,8.912
180,-11,8.913
121,-11,8.914
75,-25,8.915
57,-74,8.916
12,-164,8.917
-84,-226,8.918
-168,-155,8.919
-167,56,8.92
-112,259,8.921
-75,293,8.922
-46,175,8.923
32,63,8.924
141,36,8.925
185,23,8.926
123,-49,8.927
26,-150,8.928
-15,-200,8.929
1,-171,8.93
16,-95,8.931
-4,-14,8.932
-37,55,8.933
-55,129,8.934
-55,215,8.935
-71,263,8.936
-104,212,8.937
-117,100,8.938
-78,32,8.939
-27,41,8.94
-18,53,8.941
-40,20,8.942
-30,-7,8.943
32,7,8.944
89,28,8.945
75,3,8.946
4,-46,8.947
-61,-87,8.948
-67,-121,8.949
-10,-153,8.95
71,-162,8.951
128,-125,8.952
136,-61,8.953
101,-3,8.954
53,26,8.955
17,24,8.956
-12,-2,8.957
-44,-29,8.958
-73,-41,8.959
-82,-34,8.96
-76,-15,8.961
-71,2,8.962
-58,10,8.963
-22,8,8.964
17,3,8.965
28,4,8.966
8,9,8.967
0,12,8.968
25,9,8.969
54,-1,8.97
66,-18,8.971
73,-38,8.972
91,-37,8.973
83,-7,8.974
28,32,8.975
-31,45,8.976
-101,26,8.977
-140,3,8.978
-81,-9,8.979
-20,-20,8.98
49,-29,8.981
90,-19,8.982
42,10,8.983
0,29,8.984
-21,19,8.985
-27,2,8.986
14,-1,8.987
54,5,8.988
88,11,8.989
107,15,8.99
80,20,8.991
48,17,8.992
0,12,8.993
-31,10,8.994
-15,9,8.995
-34,4,8.996
-84,-13,8.997
-93,-25,8.998
-40,-19,8.999
8,-14,9.0
9,-13,9.001
1,-11,9.002
22,-9,9.003
34,-9,9.004
1,-13,9.005
-47,-20,9.006
-65,-38,9.007
-46,-48,9.008
-14,-28,9.009
13,0,9.01
16,56,9.011
-9,91,9.012
-38,61,9.013
-47,32,9.014
-33,17,9.015
-25,23,9.016
-26,14,9.017
-14,2,9.018
14,4,9.019
30,13,9.02
27,5,9.021
30,-15,9.022
65,-20,9.023
130,-7,9.024
190,4,9.025
197,3,9.026
124,0,9.027
5,-1,9.028
-76,-8,9.029
-74,-17,9.03
-26,-13,9.031
-3,-3,9.032
-12,0,9.033
-15,-10,9.034
18,-20,9.035
52,-20,9.036
38,-20,9.037
-11,-20,9.038
-44,-19,9.039
-34,-17,9.04
-12,-17,9.041
-16,-17,9.042
-41,-8,9.043
-53,4,9.044
-43,10,9.045
-31,6,9.046
-31,4,9.047
-34,5,9.048
-36,2,9.049
-39,-6,9.05
-40,-13,9.051
-23,-14,9.052
8,-9,9.053
27,-6,9.054
28,-1,9.055
29,4,9.056
23,-2,9.057
16,-16,9.058
6,-32,9.059
-4,-48,9.06
-15,-65,9.061
-27,-77,9.062
-41,-75,9.063
-47,-51,9.064
-25,-15,9.065
0,8,9.066
32,6,9.067
65,-3,9.068
99,15,9.069
118,66,9.07
90,111,9.071
58,118,9.072
20,103,9.073
-8,91,9.074
-2,92,9.075
5,91,9.076
0,87,9.077
-7,92,9.078
-4,86,9.079
17,28,9.08
41,-63,9.081
40,-109,9.082
0,-39,9.083
-52,101,9.084
-69,192,9.085
-52,160,9.086
-51,59,9.087
-84,-6,9.088
-93,-10,9.089
-27,-6,9.09
78,-26,9.091
145,-44,9.092
153,-41,9.093
134,-35,9.094
108,-33,9.095
58,-26,9.096
-8,-10,9.097
-52,0,9.098
-55,-2,9.099
-38,0,9.1
-32,7,9.101
-46,1,9.102
-57,-18,9.103
-55,-31,9.104
-44,-19,9.105
-34,8,9.106
-29,33,9.107
-22,41,9.108
-8,37,9.109
7,29,9.11
9,31,9.111
-6,38,9.112
-18,39,9.113
-24,29,9.114
-29,21,9.115
-46,17,9.116
-59,3,9.117
-54,-20,9.118
-34,-43,9.119
-10,-48,9.12
10,-33,9.121
25,-11,9.122
39,3,9.123
48,-2,9.124
46,-17,9.125
31,-21,9.126
19,-14,9.127
22,-16,9.128
42,-28,9.129
54,-36,9.13
39,-34,9.131
8,-33,9.132
-10,-40,9.133
-14,-46,9.134
-19,-40,9.135
-28,-36,9.136
-47,-44,9.137
-57,-53,9.138
-39,-55,9.139
-19,-51,9.14
2,-51,9.141
18,-55,9.142
9,-61,9.143
-1,-61,9.144
-15,-51,9.145
-24,-33,9.146
-12,-18,9.147
7,-16,9.148
51,-27,9.149
84,-48,9.15
88,-84,9.151
80,-129,9.152
34,-139,9.153
-10,-98,9.154
-22,-56,9.155
13,-47,9.156
67,-141,9.157
84,-179,9.158
54,-45,9.159
13,79,9.16
-12,175,9.161
-33,228,9.162
-61,147,9.163
-70,85,9.164
-36,81,9.165
7,73,9.166
20,53,9.167
11,35,9.168
9,25,9.169
12,19,9.17
-2,27,9.171
-26,37,9.172
-37,54,9.173
-26,65,9.174
-16,53,9.175
-14,43,9.176
-24,28,9.177
-43,-7,9.178
-58,-54,9.179
-51,-74,9.18
-27,-58,9.181
-3,-45,9.182
15,-52,9.183
30,-63,9.184
43,-53,9.185
42,-35,9.186
32,-40,9.187
25,-96,9.188
26,-203,9.189
29,-290,9.19
27,-244,9.191
31,-36,9.192
46,180,9.193
63,254,9.194
69,172,9.195
55,106,9.196
30,107,9.197
4,103,9.198
-14,57,9.199
-23,25,9.2
-26,38,9.201
-24,55,9.202
-23,49,9.203
-23,46,9.204
-26,51,9.205
-29,37,9.206
-31,13,9.207
-28,12,9.208
-18,26,9.209
-4,13,9.21
4,-13,9.211
4,-14,9.212
4,6,9.213
5,10,9.214
8,-11,9.215
8,-23,9.216
-1,-22,9.217
-14,-24,9.218
-35,-45,9.219
-56,-69,9.22
-72,-97,9.221
-83,-145,9.222
-79,-200,9.223
-65,-208,9.224
-25,-137,9.225
24,-24,9.226
96,72,9.227
150,143,9.228
150,208,9.229
139,255,9.23
94,242,9.231
54,179,9.232
32,131,9.233
23,118,9.234
75,90,9.235
111,2,9.236
107,-97,9.237
110,-114,9.238
118,-50,9.239
51,18,9.24
-114,39,9.241
-246,28,9.242
-225,17,9.243
-111,11,9.244
-33,0,9.245
4,-13,9.246
67,-23,9.247
113,-32,9.248
56,-51,9.249
-50,-89,9.25
-74,-138,9.251
-16,-158,9.252
11,-105,9.253
-35,-6,9.254
-51,90,9.255
-20,70,9.256
-4,-30,9.257
-19,-58,9.258
-16,37,9.259
5,132,9.26
3,108,9.261
-22,12,9.262
-26,-42,9.263
-9,-35,9.264
-7,-24,9.265
-15,-19,9.266
-2,1,9.267
26,27,9.268
32,25,9.269
17,8,9.27
11,4,9.271
18,1,9.272
19,-14,9.273
11,-35,9.274
4,-39,9.275
-4,-44,9.276
-20,-53,9.277
-38,-55,9.278
-42,-33,9.279
-28,-15,9.28
-3,-8,9.281
28,3,9.282
59,28,9.283
69,47,9.284
52,47,9.285
26,48,9.286
13,49,9.287
15,44,9.288
20,15,9.289
21,-6,9.29
19,-2,9.291
13,0,9.292
3,-12,9.293
-11,-26,9.294
-26,-49,9.295
-40,-72,9.296
-50,-86,9.297
-60,-66,9.298
-69,-17,9.299
-75,29,9.3
-73,48,9.301
-55,45,9.302
10,33,9.303
64,15,9.304
85,-4,9.305
108,-14,9.306
139,-7,9.307
159,23,9.308
145,72,9.309
120,107,9.31
60,87,9.311
9,19,9.312
-8,-34,9.313
-19,-43,9.314
-4,-37,9.315
-10,-37,9.316
-42,-53,9.317
-77,-55,9.318
-94,-15,9.319
-103,18,9.32
-110,30,9.321
-101,34,9.322
-77,16,9.323
-56,-4,9.324
-41,-32,9.325
2,-45,9.326
78,-13,9.327
138,17,9.328
137,41,9.329
92,58,9.33
47,56,9.331
13,51,9.332
-24,40,9.333
-63,19,9.334
-77,-26,9.335
-54,-58,9.336
-18,-62,9.337
5,-55,9.338
7,-60,9.339
-2,-64,9.34
-8,-36,9.341
-9,6,9.342
-9,11,9.343
-13,-27,9.344
-12,-66,9.345
4,-59,9.346
27,-10,9.347
31,49,9.348
16,85,9.349
7,80,9.35
13,43,9.351
16,5,9.352
10,-16,9.353
6,-30,9.354
5,-28,9.355
-3,0,9.356
-16,39,9.357
-16,55,9.358
1,33,9.359
16,5,9.36
11,11,9.361
-3,42,9.362
-17,56,9.363
-33,40,9.364
-48,15,9.365
-47,0,9.366
-29,-6,9.367
-8,-14,9.368
14,-24,9.369
39,-32,9.37
64,-40,9.371
62,-41,9.372
38,-36,9.373
9,-34,9.374
-7,-41,9.375
-18,-49,9.376
-12,-44,9.377
7,-15,9.378
68,32,9.379
108,80,9.38
82,98,9.381
58,43,9.382
38,-77,9.383
16,-170,9.384
-8,-145,9.385
-27,-39,9.386
-27,36,9.387
-31,38,9.388
-44,31,9.389
-53,49,9.39
-51,53,9.391
-47,25,9.392
-34,9,9.393
-20,30,9.394
-4,50,9.395
6,52,9.396
-7,-1,9.397
-30,-46,9.398
-18,-62,9.399
30,-63,9.4
67,-19,9.401
58,21,9.402
26,49,9.403
17,56,9.404
32,0,9.405
39,-55,9.406
20,-108,9.407
-5,-134,9.408
-13,-74,9.409
-8,-24,9.41
-11,-8,9.411
-29,21,9.412
-50,86,9.413
-56,149,9.414
-34,188,9.415
-9,186,9.416
26,105,9.417
53,-46,9.418
54,-153,9.419
53,-102,9.42
43,38,9.421
32,95,9.422
18,41,9.423
3,5,9.424
-17,40,9.425
-39,58,9.426
-63,7,9.427
-65,-41,9.428
3,-37,9.429
58,-26,9.43
71,-30,9.431
75,15,9.432
53,136,9.433
31,248,9.434
4,196,9.435
-20,-53,9.436
-20,-326,9.437
-4,-400,9.438
-13,-253,9.439
-53,-74,9.44
-81,-16,9.441
-62,-32,9.442
-24,-14,9.443
-8,30,9.444
-9,37,9.445
1,49,9.446
18,127,9.447
18,190,9.448
0,94,9.449
-8,-126,9.45
-7,-244,9.451
-6,-143,9.452
-10,18,9.453
-5,46,9.454
8,-42,9.455
19,-65,9.456
18,24,9.457
16,72,9.458
13,-9,9.459
10,-73,9.46
10,23,9.461
8,203,9.462
5,299,9.463
3,263,9.464
6,127,9.465
10,-78,9.466
16,-254,9.467
19,-264,9.468
7,-117,9.469
-6,13,9.47
-25,31,9.471
-38,21,9.472
-31,47,9.473
-17,5,9.474
19,5,9.475
41,5,9.476
47,6,9.477
50,8,9.478
63,12,9.479
64,18,9.48
31,28,9.481
-25,40,9.482
-74,57,9.483
-103,61,9.484
-112,26,9.485
-89,-9,9.486
-19,-48,9.487
62,-60,9.488
102,6,9.489
90,50,9.49
69,32,9.491
66,10,9.492
67,-29,9.493
59,-18,9.494
60,-18,9.495
54,-17,9.496
24,-11,9.497
-4,-2,9.498
-26,16,9.499
-38,41,9.5
-19,85,9.501
0,135,9.502
20,207,9.503
27,224,9.504
-5,76,9.505
-29,-75,9.506
-27,-237,9.507
-33,-291,9.508
-63,-13,9.509
-85,176,9.51
-75,101,9.511
-63,4,9.512
-45,-161,9.513
-37,-277,9.514
-60,-192,9.515
-63,-65,9.516
-35,12,9.517
18,39,9.518
78,68,9.519
104,163,9.52
79,315,9.521
41,392,9.522
30,220,9.523
23,-201,9.524
-7,-566,9.525
-34,-550,9.526
-20,-223,9.527
13,31,9.528
21,35,9.529
4,3,9.53
-3,152,9.531
1,363,9.532
-2,412,9.533
-8,269,9.534
1,70,9.535
10,-76,9.536
14,-158,9.537
17,-195,9.538
19,-223,9.539
21,-251,9.54
17,-223,9.541
14,-100,9.542
15,47,9.543
15,130,9.544
5,175,9.545
-1,247,9.546
2,308,9.547
6,257,9.548
12,79,9.549
15,-137,9.55
8,-291,9.551
1,-326,9.552
-3,-246,9.553
-8,-122,9.554
-10,-39,9.555
-11,27,9.556
-10,39,9.557
-12,45,9.558
-14,27,9.559
-13,23,9.56
-18,60,9.561
-27,85,9.562
-29,69,9.563
-12,53,9.564
16,37,9.565
34,23,9.566
33,15,9.567
17,38,9.568
-11,154,9.569
-49,222,9.57
-83,148,9.571
-88,34,9.572
-62,-202,9.573
35,-380,9.574
-4,-259,9.575
-38,-50,9.576
-58,30,9.577
-51,0,9.578
35,-4,9.579
102,52,9.58
75,117,9.581
48,187,9.582
28,258,9.583
8,216,9.584
2,-9,9.585
-4,-257,9.586
-4,-294,9.587
-18,-123,9.588
-51,48,9.589
-71,107,9.59
-51,93,9.591
2,16,9.592
176,-121,9.593
7,-242,9.594
1,-166,9.595
-4,10,9.596
-8,113,9.597
-7,137,9.598
7,183,9.599
19,270,9.6
14,317,9.601
10,242,9.602
6,-21,9.603
3,-444,9.604
2,-763,9.605
1,-674,9.606
1,-258,9.607
-1,60,9.608
-7,74,9.609
-10,8,9.61
-7,69,9.611
2,146,9.612
32,119,9.613
6,-108,9.614
2,-137,9.615
-3,-118,9.616
-6,54,9.617
-5,141,9.618
6,-36,9.619
16,-205,9.62
12,-344,9.621
8,-416,9.622
5,-281,9.623
2,-152,9.624
2,-46,9.625
2,49,9.626
2,145,9.627
0,213,9.628
-5,184,9.629
-8,179,9.63
-5,241,9.631
2,275,9.632
26,198,9.633
7,-109,9.634
1,-138,9.635
-4,-118,9.636
-7,54,9.637
-6,141,9.638
7,-36,9.639
17,-205,9.64
13,-345,9.641
9,-418,9.642
6,-283,9.643
3,-152,9.644
2,-46,9.645
1,49,9.646
1,146,9.647
-1,213,9.648
-6,185,9.649
-9,180,9.65
-6,242,9.651
2,276,9.652
28,199,9.653
48,-29,9.654
41,-35,9.655
31,-31,9.656
27,5,9.657
19,23,9.658
3,-14,9.659
-16,-49,9.66
-31,-78,9.661
