Deltoid,Bicep,Time
-4.0,-4.0,0.0
-4.0,-7.0,0.001
-3.0,-8.0,0.002
-1.0,-5.0,0.003
2.0,0.0,0.004
4.0,2.0,0.005
5.0,4.0,0.006
4.0,6.0,0.007
3.0,8.0,0.008
4.0,8.0,0.009
8.0,5.0,0.01
13.0,1.0,0.011
14.0,-1.0,0.012
12.0,-2.0,0.013
11.0,-1.0,0.014
15.0,1.0,0.015
14.0,3.0,0.016
4.0,4.0,0.017
-7.0,-1.0,0.018
-7.0,-3.0,0.019
-4.0,-4.0,0.02
-3.0,-4.0,0.021
-3.0,-2.0,0.022
2.0,0.0,0.023
8.0,4.0,0.024
-3.0,7.0,0.025
-17.0,7.0,0.026
-13.0,5.0,0.027
8.0,2.0,0.028
22.0,2.0,0.029
24.0,0.0,0.03
26.0,0.0,0.031
29.0,0.0,0.032
16.0,-2.0,0.033
-12.0,-6.0,0.034
-30.0,-7.0,0.035
-25.0,-5.0,0.036
-9.0,1.0,0.037
0.0,3.0,0.038
2.0,2.0,0.039
-7.0,0.0,0.04
-27.0,-5.0,0.041
-42.0,-8.0,0.042
-27.0,-6.0,0.043
5.0,-5.0,0.044
16.0,-3.0,0.045
-4.0,-1.0,0.046
-12.0,0.0,0.047
18.0,2.0,0.048
59.0,0.0,0.049
68.0,-1.0,0.05
40.0,0.0,0.051
10.0,1.0,0.052
0.0,-1.0,0.053
5.0,-4.0,0.054
8.0,-2.0,0.055
4.0,-1.0,0.056
3.0,-4.0,0.057
10.0,-7.0,0.058
24.0,-5.0,0.059
28.0,-2.0,0.06
14.0,-1.0,0.061
-6.0,0.0,0.062
-14.0,1.0,0.063
-9.0,-1.0,0.064
-8.0,-2.0,0.065
-16.0,0.0,0.066
-18.0,4.0,0.067
-12.0,7.0,0.068
-3.0,5.0,0.069
-2.0,3.0,0.07
-4.0,1.0,0.071
-5.0,0.0,0.072
-5.0,0.0,0.073
-9.0,0.0,0.074
-12.0,-3.0,0.075
-11.0,-6.0,0.076
-7.0,-3.0,0.077
-4.0,0.0,0.078
-3.0,-1.0,0.079
-2.0,-6.0,0.08
0.0,-9.0,0.081
5.0,-6.0,0.082
13.0,-2.0,0.083
11.0,-1.0,0.084
-4.0,0.0,0.085
-22.0,4.0,0.086
-29.0,1.0,0.087
-26.0,-2.0,0.088
-19.0,-2.0,0.089
-2.0,2.0,0.09
30.0,3.0,0.091
58.0,0.0,0.092
59.0,-2.0,0.093
30.0,-2.0,0.094
0.0,-3.0,0.095
-3.0,-2.0,0.096
15.0,3.0,0.097
39.0,4.0,0.098
52.0,1.0,0.099
54.0,-2.0,0.1
18.0,-3.0,0.101
-9.0,-4.0,0.102
-10.0,-4.0,0.103
-12.0,-2.0,0.104
-11.0,0.0,0.105
-10.0,1.0,0.106
-10.0,1.0,0.107
-10.0,2.0,0.108
-7.0,4.0,0.109
-5.0,5.0,0.11
-5.0,2.0,0.111
-5.0,-1.0,0.112
-3.0,-2.0,0.113
-2.0,-4.0,0.114
-5.0,-3.0,0.115
-7.0,-2.0,0.116
-3.0,-3.0,0.117
-3.0,-5.0,0.118
-14.0,-4.0,0.119
-20.0,-6.0,0.12
-16.0,-11.0,0.121
-12.0,-11.0,0.122
-6.0,-9.0,0.123
4.0,-8.0,0.124
10.0,-4.0,0.125
6.0,0.0,0.126
0.0,2.0,0.127
4.0,0.0,0.128
11.0,-2.0,0.129
10.0,-2.0,0.13
8.0,-1.0,0.131
8.0,1.0,0.132
8.0,1.0,0.133
5.0,0.0,0.134
3.0,0.0,0.135
5.0,0.0,0.136
8.0,0.0,0.137
6.0,1.0,0.138
5.0,2.0,0.139
3.0,4.0,0.14
-1.0,1.0,0.141
-2.0,-1.0,0.142
2.0,-1.0,0.143
10.0,2.0,0.144
10.0,7.0,0.145
5.0,9.0,0.146
4.0,6.0,0.147
6.0,1.0,0.148
5.0,-1.0,0.149
0.0,0.0,0.15
-1.0,3.0,0.151
2.0,3.0,0.152
3.0,2.0,0.153
1.0,1.0,0.154
0.0,1.0,0.155
2.0,1.0,0.156
4.0,1.0,0.157
2.0,-1.0,0.158
2.0,-4.0,0.159
0.0,-2.0,0.16
-4.0,0.0,0.161
-5.0,2.0,0.162
0.0,2.0,0.163
6.0,2.0,0.164
5.0,4.0,0.165
-1.0,3.0,0.166
-3.0,-1.0,0.167
0.0,-5.0,0.168
2.0,-3.0,0.169
2.0,-1.0,0.17
3.0,-4.0,0.171
6.0,-6.0,0.172
7.0,-3.0,0.173
3.0,2.0,0.174
0.0,2.0,0.175
0.0,-1.0,0.176
5.0,0.0,0.177
5.0,2.0,0.178
3.0,2.0,0.179
-1.0,-1.0,0.18
-3.0,-6.0,0.181
-2.0,-7.0,0.182
2.0,-2.0,0.183
6.0,3.0,0.184
5.0,9.0,0.185
0.0,9.0,0.186
0.0,8.0,0.187
4.0,3.0,0.188
7.0,0.0,0.189
5.0,0.0,0.19
3.0,2.0,0.191
4.0,3.0,0.192
5.0,0.0,0.193
2.0,-1.0,0.194
0.0,0.0,0.195
1.0,1.0,0.196
5.0,2.0,0.197
2.0,0.0,0.198
-2.0,0.0,0.199
-5.0,0.0,0.2
-6.0,-4.0,0.201
-6.0,-7.0,0.202
-2.0,-5.0,0.203
5.0,-3.0,0.204
8.0,-1.0,0.205
6.0,0.0,0.206
3.0,0.0,0.207
5.0,-1.0,0.208
4.0,-1.0,0.209
0.0,0.0,0.21
-1.0,1.0,0.211
3.0,2.0,0.212
8.0,0.0,0.213
4.0,-1.0,0.214
2.0,-1.0,0.215
3.0,-1.0,0.216
5.0,-1.0,0.217
3.0,-3.0,0.218
1.0,-7.0,0.219
0.0,-6.0,0.22
-2.0,-5.0,0.221
-3.0,-5.0,0.222
0.0,-5.0,0.223
3.0,-4.0,0.224
6.0,-2.0,0.225
9.0,1.0,0.226
8.0,3.0,0.227
7.0,3.0,0.228
8.0,2.0,0.229
9.0,1.0,0.23
5.0,0.0,0.231
1.0,0.0,0.232
1.0,-1.0,0.233
2.0,-1.0,0.234
2.0,-1.0,0.235
1.0,-1.0,0.236
5.0,2.0,0.237
7.0,1.0,0.238
0.0,0.0,0.239
-5.0,-3.0,0.24
-3.0,-5.0,0.241
0.0,-6.0,0.242
4.0,-3.0,0.243
9.0,0.0,0.244
9.0,1.0,0.245
4.0,3.0,0.246
-1.0,4.0,0.247
-3.0,4.0,0.248
0.0,2.0,0.249
3.0,1.0,0.25
4.0,1.0,0.251
6.0,0.0,0.252
6.0,-4.0,0.253
2.0,-7.0,0.254
0.0,-6.0,0.255
-1.0,-5.0,0.256
3.0,-5.0,0.257
4.0,-5.0,0.258
3.0,-6.0,0.259
1.0,-4.0,0.26
-1.0,-6.0,0.261
-3.0,-6.0,0.262
2.0,-5.0,0.263
7.0,-3.0,0.264
7.0,1.0,0.265
5.0,4.0,0.266
2.0,6.0,0.267
-1.0,3.0,0.268
-1.0,0.0,0.269
-2.0,0.0,0.27
-2.0,2.0,0.271
0.0,5.0,0.272
1.0,5.0,0.273
3.0,2.0,0.274
4.0,1.0,0.275
5.0,0.0,0.276
3.0,1.0,0.277
1.0,1.0,0.278
-2.0,1.0,0.279
-7.0,1.0,0.28
-9.0,-2.0,0.281
-6.0,-4.0,0.282
3.0,0.0,0.283
11.0,3.0,0.284
9.0,4.0,0.285
2.0,5.0,0.286
1.0,3.0,0.287
3.0,1.0,0.288
4.0,1.0,0.289
2.0,2.0,0.29
4.0,1.0,0.291
7.0,0.0,0.292
6.0,0.0,0.293
2.0,-1.0,0.294
1.0,-2.0,0.295
2.0,-3.0,0.296
3.0,-4.0,0.297
1.0,-5.0,0.298
1.0,-5.0,0.299
0.0,-2.0,0.3
-1.0,-3.0,0.301
-1.0,-6.0,0.302
4.0,-6.0,0.303
10.0,-3.0,0.304
10.0,3.0,0.305
6.0,6.0,0.306
3.0,2.0,0.307
5.0,-1.0,0.308
4.0,1.0,0.309
2.0,5.0,0.31
0.0,1.0,0.311
3.0,-5.0,0.312
6.0,-6.0,0.313
4.0,-1.0,0.314
3.0,1.0,0.315
4.0,0.0,0.316
7.0,0.0,0.317
6.0,-1.0,0.318
2.0,-2.0,0.319
-3.0,-4.0,0.32
-6.0,-6.0,0.321
-3.0,-5.0,0.322
2.0,-3.0,0.323
7.0,-1.0,0.324
4.0,1.0,0.325
-1.0,3.0,0.326
-1.0,1.0,0.327
3.0,0.0,0.328
3.0,3.0,0.329
-1.0,6.0,0.33
-2.0,3.0,0.331
1.0,-1.0,0.332
4.0,-2.0,0.333
4.0,0.0,0.334
3.0,1.0,0.335
7.0,-1.0,0.336
11.0,-2.0,0.337
7.0,-3.0,0.338
2.0,-1.0,0.339
-2.0,0.0,0.34
-1.0,-3.0,0.341
1.0,-5.0,0.342
6.0,-3.0,0.343
7.0,-1.0,0.344
2.0,-1.0,0.345
-5.0,0.0,0.346
-10.0,1.0,0.347
-8.0,2.0,0.348
-3.0,0.0,0.349
1.0,-1.0,0.35
5.0,0.0,0.351
9.0,2.0,0.352
12.0,2.0,0.353
12.0,1.0,0.354
12.0,1.0,0.355
17.0,0.0,0.356
22.0,-1.0,0.357
19.0,-3.0,0.358
6.0,-2.0,0.359
-7.0,0.0,0.36
-10.0,-3.0,0.361
-3.0,-4.0,0.362
2.0,-2.0,0.363
3.0,1.0,0.364
0.0,4.0,0.365
-2.0,4.0,0.366
-2.0,1.0,0.367
-1.0,-1.0,0.368
0.0,0.0,0.369
-2.0,2.0,0.37
-3.0,4.0,0.371
-2.0,3.0,0.372
1.0,2.0,0.373
3.0,2.0,0.374
3.0,2.0,0.375
2.0,0.0,0.376
4.0,0.0,0.377
2.0,-3.0,0.378
-1.0,-4.0,0.379
-5.0,-3.0,0.38
-8.0,-3.0,0.381
-10.0,-3.0,0.382
-8.0,-2.0,0.383
-5.0,-2.0,0.384
-4.0,0.0,0.385
-5.0,4.0,0.386
-5.0,6.0,0.387
1.0,4.0,0.388
10.0,2.0,0.389
14.0,0.0,0.39
15.0,-2.0,0.391
15.0,-4.0,0.392
14.0,-4.0,0.393
9.0,-2.0,0.394
3.0,-3.0,0.395
1.0,-5.0,0.396
2.0,-4.0,0.397
0.0,-2.0,0.398
-3.0,0.0,0.399
-5.0,-3.0,0.4
-3.0,-9.0,0.401
1.0,-9.0,0.402
7.0,-6.0,0.403
12.0,-1.0,0.404
12.0,2.0,0.405
11.0,1.0,0.406
11.0,-1.0,0.407
12.0,-4.0,0.408
12.0,-3.0,0.409
6.0,-2.0,0.41
2.0,-1.0,0.411
1.0,-1.0,0.412
4.0,-1.0,0.413
3.0,0.0,0.414
1.0,-1.0,0.415
1.0,-3.0,0.416
3.0,-1.0,0.417
2.0,0.0,0.418
0.0,0.0,0.419
-3.0,-2.0,0.42
-5.0,-5.0,0.421
-6.0,-3.0,0.422
-2.0,-1.0,0.423
1.0,0.0,0.424
3.0,2.0,0.425
4.0,4.0,0.426
2.0,7.0,0.427
0.0,8.0,0.428
1.0,9.0,0.429
1.0,6.0,0.43
0.0,3.0,0.431
-1.0,2.0,0.432
2.0,2.0,0.433
4.0,4.0,0.434
2.0,3.0,0.435
0.0,0.0,0.436
0.0,1.0,0.437
0.0,2.0,0.438
0.0,1.0,0.439
-2.0,0.0,0.44
-6.0,-5.0,0.441
-11.0,-6.0,0.442
-6.0,-4.0,0.443
4.0,-2.0,0.444
8.0,-1.0,0.445
3.0,0.0,0.446
-1.0,1.0,0.447
6.0,3.0,0.448
16.0,1.0,0.449
13.0,-1.0,0.45
5.0,-3.0,0.451
3.0,-6.0,0.452
5.0,-5.0,0.453
3.0,-1.0,0.454
0.0,0.0,0.455
1.0,-2.0,0.456
6.0,-3.0,0.457
4.0,-3.0,0.458
1.0,-2.0,0.459
-2.0,-2.0,0.46
-6.0,-9.0,0.461
-8.0,-12.0,0.462
-3.0,-8.0,0.463
1.0,-3.0,0.464
1.0,0.0,0.465
1.0,0.0,0.466
3.0,-1.0,0.467
7.0,-2.0,0.468
12.0,0.0,0.469
15.0,1.0,0.47
11.0,0.0,0.471
7.0,-1.0,0.472
9.0,-1.0,0.473
10.0,1.0,0.474
7.0,0.0,0.475
4.0,-3.0,0.476
2.0,-5.0,0.477
1.0,-3.0,0.478
-1.0,0.0,0.479
-2.0,0.0,0.48
-4.0,-5.0,0.481
-5.0,-6.0,0.482
-2.0,-3.0,0.483
2.0,0.0,0.484
0.0,2.0,0.485
-6.0,3.0,0.486
-7.0,2.0,0.487
-2.0,0.0,0.488
0.0,2.0,0.489
-3.0,5.0,0.49
-3.0,6.0,0.491
5.0,4.0,0.492
17.0,3.0,0.493
22.0,4.0,0.494
19.0,4.0,0.495
9.0,2.0,0.496
0.0,3.0,0.497
-6.0,2.0,0.498
-5.0,0.0,0.499
-5.0,-6.0,0.5
-6.0,-10.0,0.501
-6.0,-8.0,0.502
0.0,-6.0,0.503
9.0,-4.0,0.504
9.0,0.0,0.505
3.0,2.0,0.506
1.0,0.0,0.507
3.0,-2.0,0.508
4.0,2.0,0.509
4.0,9.0,0.51
4.0,7.0,0.511
5.0,1.0,0.512
4.0,-1.0,0.513
1.0,2.0,0.514
-1.0,2.0,0.515
-3.0,-1.0,0.516
-4.0,-2.0,0.517
-6.0,-1.0,0.518
-6.0,0.0,0.519
-8.0,0.0,0.52
-8.0,-4.0,0.521
-3.0,-3.0,0.522
7.0,-1.0,0.523
17.0,-1.0,0.524
17.0,-1.0,0.525
12.0,1.0,0.526
10.0,4.0,0.527
14.0,4.0,0.528
16.0,0.0,0.529
11.0,-3.0,0.53
3.0,-4.0,0.531
-1.0,-3.0,0.532
-2.0,-1.0,0.533
-3.0,0.0,0.534
-8.0,0.0,0.535
-13.0,-1.0,0.536
-11.0,-1.0,0.537
0.0,-1.0,0.538
16.0,-1.0,0.539
23.0,-3.0,0.54
17.0,-7.0,0.541
7.0,-7.0,0.542
1.0,-3.0,0.543
0.0,1.0,0.544
-6.0,2.0,0.545
-16.0,1.0,0.546
-19.0,1.0,0.547
-14.0,1.0,0.548
-2.0,2.0,0.549
8.0,4.0,0.55
17.0,3.0,0.551
19.0,0.0,0.552
16.0,-2.0,0.553
17.0,0.0,0.554
23.0,0.0,0.555
26.0,-1.0,0.556
14.0,-1.0,0.557
-9.0,0.0,0.558
-21.0,2.0,0.559
-14.0,0.0,0.56
0.0,-4.0,0.561
6.0,-6.0,0.562
8.0,-5.0,0.563
1.0,-2.0,0.564
-22.0,2.0,0.565
-52.0,4.0,0.566
-52.0,1.0,0.567
-12.0,-3.0,0.568
36.0,-2.0,0.569
57.0,2.0,0.57
62.0,3.0,0.571
67.0,0.0,0.572
69.0,-1.0,0.573
48.0,1.0,0.574
15.0,3.0,0.575
-14.0,0.0,0.576
-23.0,-2.0,0.577
-24.0,-4.0,0.578
-25.0,-4.0,0.579
-31.0,-4.0,0.58
-38.0,-7.0,0.581
-35.0,-5.0,0.582
-21.0,-1.0,0.583
-6.0,2.0,0.584
2.0,5.0,0.585
7.0,6.0,0.586
16.0,4.0,0.587
11.0,1.0,0.588
-24.0,2.0,0.589
-68.0,5.0,0.59
-78.0,6.0,0.591
-37.0,3.0,0.592
22.0,-1.0,0.593
63.0,-4.0,0.594
71.0,-1.0,0.595
57.0,0.0,0.596
35.0,4.0,0.597
6.0,6.0,0.598
-20.0,5.0,0.599
-44.0,0.0,0.6
-62.0,-8.0,0.601
-71.0,-9.0,0.602
-70.0,-5.0,0.603
-68.0,-1.0,0.604
-56.0,2.0,0.605
-12.0,2.0,0.606
67.0,-3.0,0.607
123.0,-5.0,0.608
94.0,-3.0,0.609
-12.0,0.0,0.61
-103.0,-2.0,0.611
-91.0,-6.0,0.612
22.0,-6.0,0.613
156.0,-3.0,0.614
230.0,-7.0,0.615
230.0,-12.0,0.616
205.0,-11.0,0.617
177.0,-7.0,0.618
128.0,-5.0,0.619
38.0,-4.0,0.62
-55.0,-4.0,0.621
-105.0,0.0,0.622
-104.0,3.0,0.623
-81.0,3.0,0.624
-56.0,7.0,0.625
-38.0,12.0,0.626
-40.0,10.0,0.627
-50.0,2.0,0.628
-36.0,-3.0,0.629
8.0,-2.0,0.63
46.0,2.0,0.631
52.0,4.0,0.632
51.0,3.0,0.633
61.0,1.0,0.634
62.0,-1.0,0.635
43.0,-3.0,0.636
28.0,-3.0,0.637
22.0,-3.0,0.638
-16.0,0.0,0.639
-113.0,5.0,0.64
-222.0,8.0,0.641
-279.0,10.0,0.642
-267.0,5.0,0.643
-190.0,-1.0,0.644
-49.0,-3.0,0.645
115.0,-4.0,0.646
211.0,-7.0,0.647
188.0,-7.0,0.648
99.0,-1.0,0.649
20.0,10.0,0.65
-39.0,12.0,0.651
-90.0,4.0,0.652
-101.0,-4.0,0.653
-48.0,-2.0,0.654
12.0,6.0,0.655
7.0,10.0,0.656
-44.0,10.0,0.657
-70.0,6.0,0.658
-13.0,0.0,0.659
100.0,-6.0,0.66
203.0,-17.0,0.661
234.0,-20.0,0.662
169.0,-16.0,0.663
49.0,-10.0,0.664
-39.0,-5.0,0.665
-50.0,2.0,0.666
-34.0,6.0,0.667
-57.0,5.0,0.668
-100.0,6.0,0.669
-93.0,13.0,0.67
-19.0,21.0,0.671
48.0,16.0,0.672
58.0,8.0,0.673
42.0,3.0,0.674
52.0,-1.0,0.675
90.0,-10.0,0.676
112.0,-20.0,0.677
100.0,-21.0,0.678
64.0,-15.0,0.679
15.0,-7.0,0.68
-35.0,-5.0,0.681
-71.0,2.0,0.682
-77.0,12.0,0.683
-66.0,15.0,0.684
-68.0,11.0,0.685
-82.0,7.0,0.686
-79.0,5.0,0.687
-55.0,3.0,0.688
-35.0,0.0,0.689
-33.0,-5.0,0.69
-38.0,-6.0,0.691
-40.0,-4.0,0.692
-44.0,2.0,0.693
-43.0,2.0,0.694
-27.0,-3.0,0.695
6.0,-6.0,0.696
37.0,-2.0,0.697
53.0,0.0,0.698
50.0,-4.0,0.699
33.0,-10.0,0.7
18.0,-10.0,0.701
20.0,-5.0,0.702
37.0,-1.0,0.703
40.0,-4.0,0.704
15.0,-4.0,0.705
-15.0,-1.0,0.706
-20.0,0.0,0.707
-17.0,-4.0,0.708
-30.0,-4.0,0.709
-57.0,0.0,0.71
-57.0,4.0,0.711
-10.0,1.0,0.712
58.0,-8.0,0.713
95.0,-12.0,0.714
83.0,-10.0,0.715
49.0,-7.0,0.716
30.0,-4.0,0.717
26.0,-3.0,0.718
13.0,0.0,0.719
-22.0,1.0,0.72
-52.0,-4.0,0.721
-38.0,-7.0,0.722
12.0,-6.0,0.723
53.0,0.0,0.724
52.0,2.0,0.725
32.0,1.0,0.726
20.0,1.0,0.727
19.0,1.0,0.728
17.0,1.0,0.729
6.0,0.0,0.73
-3.0,-1.0,0.731
-5.0,-1.0,0.732
-2.0,-3.0,0.733
-2.0,-6.0,0.734
-2.0,-8.0,0.735
-1.0,-5.0,0.736
2.0,1.0,0.737
1.0,1.0,0.738
-4.0,1.0,0.739
-9.0,0.0,0.74
-13.0,-5.0,0.741
-10.0,-6.0,0.742
-2.0,-4.0,0.743
7.0,0.0,0.744
8.0,2.0,0.745
1.0,1.0,0.746
-5.0,1.0,0.747
-5.0,1.0,0.748
-1.0,0.0,0.749
1.0,0.0,0.75
2.0,0.0,0.751
7.0,2.0,0.752
14.0,2.0,0.753
19.0,3.0,0.754
18.0,2.0,0.755
12.0,1.0,0.756
2.0,-1.0,0.757
-7.0,-1.0,0.758
-11.0,2.0,0.759
-9.0,5.0,0.76
-5.0,2.0,0.761
-4.0,0.0,0.762
-3.0,3.0,0.763
-3.0,6.0,0.764
-12.0,6.0,0.765
-30.0,4.0,0.766
-34.0,4.0,0.767
-12.0,2.0,0.768
25.0,0.0,0.769
51.0,0.0,0.77
66.0,2.0,0.771
74.0,4.0,0.772
69.0,5.0,0.773
36.0,7.0,0.774
-10.0,6.0,0.775
-34.0,2.0,0.776
-21.0,-1.0,0.777
2.0,-3.0,0.778
10.0,0.0,0.779
-6.0,3.0,0.78
-27.0,-2.0,0.781
-37.0,-7.0,0.782
-39.0,-7.0,0.783
-43.0,-3.0,0.784
-52.0,0.0,0.785
-61.0,2.0,0.786
-58.0,2.0,0.787
-33.0,0.0,0.788
0.0,0.0,0.789
21.0,3.0,0.79
33.0,5.0,0.791
55.0,3.0,0.792
87.0,1.0,0.793
93.0,3.0,0.794
58.0,5.0,0.795
18.0,3.0,0.796
14.0,2.0,0.797
37.0,4.0,0.798
44.0,7.0,0.799
22.0,3.0,0.8
0.0,-6.0,0.801
-8.0,-8.0,0.802
-31.0,-5.0,0.803
-83.0,-3.0,0.804
-136.0,-5.0,0.805
-148.0,-4.0,0.806
-118.0,-3.0,0.807
-62.0,-5.0,0.808
13.0,-8.0,0.809
107.0,-6.0,0.81
187.0,0.0,0.811
214.0,3.0,0.812
174.0,4.0,0.813
94.0,4.0,0.814
6.0,2.0,0.815
-74.0,-3.0,0.816
-132.0,-6.0,0.817
-151.0,-5.0,0.818
-107.0,-4.0,0.819
-22.0,-4.0,0.82
45.0,-8.0,0.821
68.0,-7.0,0.822
72.0,-6.0,0.823
82.0,-5.0,0.824
82.0,-1.0,0.825
52.0,4.0,0.826
15.0,5.0,0.827
2.0,1.0,0.828
0.0,-2.0,0.829
-26.0,0.0,0.83
-64.0,6.0,0.831
-74.0,11.0,0.832
-51.0,13.0,0.833
-32.0,10.0,0.834
-35.0,3.0,0.835
-45.0,-6.0,0.836
-41.0,-9.0,0.837
-23.0,-9.0,0.838
2.0,-10.0,0.839
17.0,-8.0,0.84
20.0,-2.0,0.841
26.0,8.0,0.842
46.0,9.0,0.843
56.0,1.0,0.844
32.0,-3.0,0.845
-3.0,0.0,0.846
-12.0,3.0,0.847
-5.0,0.0,0.848
-27.0,0.0,0.849
-75.0,5.0,0.85
-89.0,6.0,0.851
-39.0,0.0,0.852
20.0,-8.0,0.853
35.0,-8.0,0.854
22.0,-6.0,0.855
22.0,-4.0,0.856
31.0,-3.0,0.857
17.0,-4.0,0.858
-12.0,-5.0,0.859
-17.0,-9.0,0.86
13.0,-13.0,0.861
45.0,-5.0,0.862
57.0,11.0,0.863
55.0,24.0,0.864
45.0,22.0,0.865
20.0,9.0,0.866
-7.0,0.0,0.867
-5.0,-2.0,0.868
24.0,0.0,0.869
44.0,-1.0,0.87
40.0,-7.0,0.871
28.0,-8.0,0.872
5.0,-5.0,0.873
-40.0,-2.0,0.874
-77.0,-3.0,0.875
-62.0,-6.0,0.876
-22.0,-5.0,0.877
-19.0,-5.0,0.878
-58.0,-5.0,0.879
-80.0,-5.0,0.88
-50.0,-6.0,0.881
-5.0,-2.0,0.882
25.0,0.0,0.883
52.0,1.0,0.884
82.0,5.0,0.885
96.0,10.0,0.886
88.0,7.0,0.887
69.0,0.0,0.888
36.0,-5.0,0.889
-5.0,0.0,0.89
-27.0,8.0,0.891
-13.0,8.0,0.892
5.0,3.0,0.893
-5.0,1.0,0.894
-27.0,2.0,0.895
-31.0,1.0,0.896
-26.0,0.0,0.897
-34.0,-2.0,0.898
-44.0,-4.0,0.899
-37.0,-5.0,0.9
-17.0,-9.0,0.901
-5.0,-10.0,0.902
-2.0,-9.0,0.903
5.0,-9.0,0.904
3.0,-6.0,0.905
-10.0,0.0,0.906
-19.0,7.0,0.907
-9.0,9.0,0.908
11.0,2.0,0.909
30.0,-1.0,0.91
52.0,-1.0,0.911
68.0,0.0,0.912
49.0,0.0,0.913
5.0,0.0,0.914
-15.0,-1.0,0.915
9.0,-3.0,0.916
35.0,-3.0,0.917
15.0,-2.0,0.918
-39.0,-3.0,0.919
-80.0,-3.0,0.92
-85.0,-7.0,0.921
-61.0,-7.0,0.922
-24.0,-5.0,0.923
16.0,-1.0,0.924
46.0,5.0,0.925
68.0,8.0,0.926
90.0,5.0,0.927
98.0,0.0,0.928
68.0,1.0,0.929
17.0,5.0,0.93
-5.0,4.0,0.931
12.0,0.0,0.932
27.0,-2.0,0.933
12.0,-1.0,0.934
-3.0,1.0,0.935
0.0,0.0,0.936
0.0,0.0,0.937
-27.0,-2.0,0.938
-49.0,-5.0,0.939
-48.0,-10.0,0.94
-45.0,-14.0,0.941
-50.0,-12.0,0.942
-35.0,-6.0,0.943
7.0,0.0,0.944
34.0,2.0,0.945
15.0,5.0,0.946
-12.0,9.0,0.947
0.0,12.0,0.948
27.0,18.0,0.949
24.0,15.0,0.95
2.0,6.0,0.951
4.0,0.0,0.952
27.0,1.0,0.953
26.0,6.0,0.954
-20.0,3.0,0.955
-69.0,-3.0,0.956
-75.0,-5.0,0.957
-40.0,-3.0,0.958
3.0,0.0,0.959
20.0,-1.0,0.96
29.0,-6.0,0.961
60.0,-7.0,0.962
98.0,-6.0,0.963
95.0,-4.0,0.964
44.0,-3.0,0.965
-3.0,-3.0,0.966
-13.0,-3.0,0.967
-10.0,-2.0,0.968
-27.0,0.0,0.969
-50.0,-1.0,0.97
-48.0,-5.0,0.971
-30.0,-7.0,0.972
-22.0,-3.0,0.973
-9.0,2.0,0.974
31.0,4.0,0.975
70.0,2.0,0.976
70.0,0.0,0.977
35.0,-3.0,0.978
16.0,-5.0,0.979
22.0,-6.0,0.98
22.0,-9.0,0.981
1.0,-7.0,0.982
-14.0,-3.0,0.983
-10.0,0.0,0.984
-10.0,3.0,0.985
-24.0,5.0,0.986
-29.0,8.0,0.987
-20.0,8.0,0.988
-13.0,3.0,0.989
-18.0,-3.0,0.99
-20.0,-5.0,0.991
-13.0,-1.0,0.992
-13.0,1.0,0.993
-20.0,-3.0,0.994
-19.0,-6.0,0.995
-3.0,-4.0,0.996
15.0,3.0,0.997
14.0,6.0,0.998
3.0,5.0,0.999
-6.0,2.0,1.0
-19.0,-3.0,1.001
-44.0,-3.0,1.002
-70.0,1.0,1.003
-70.0,4.0,1.004
-41.0,2.0,1.005
-8.0,-2.0,1.006
6.0,-1.0,1.007
13.0,1.0,1.008
35.0,0.0,1.009
74.0,-4.0,1.01
95.0,-7.0,1.011
89.0,-4.0,1.012
85.0,-1.0,1.013
103.0,-1.0,1.014
110.0,-2.0,1.015
65.0,-2.0,1.016
0.0,0.0,1.017
-27.0,0.0,1.018
-2.0,3.0,1.019
11.0,5.0,1.02
-26.0,3.0,1.021
-66.0,-2.0,1.022
-62.0,-6.0,1.023
-36.0,-4.0,1.024
-23.0,1.0,1.025
-21.0,3.0,1.026
-12.0,0.0,1.027
-8.0,-2.0,1.028
-16.0,0.0,1.029
-6.0,3.0,1.03
30.0,3.0,1.031
51.0,0.0,1.032
31.0,-1.0,1.033
-2.0,0.0,1.034
-21.0,0.0,1.035
-34.0,-1.0,1.036
-46.0,0.0,1.037
-32.0,-1.0,1.038
17.0,-3.0,1.039
55.0,-6.0,1.04
59.0,-10.0,1.041
54.0,-9.0,1.042
20.0,-6.0,1.043
-15.0,1.0,1.044
-59.0,5.0,1.045
-89.0,6.0,1.046
-76.0,3.0,1.047
-54.0,0.0,1.048
-4.0,2.0,1.049
34.0,3.0,1.05
40.0,3.0,1.051
48.0,1.0,1.052
61.0,-1.0,1.053
63.0,-2.0,1.054
31.0,-2.0,1.055
0.0,-1.0,1.056
-27.0,0.0,1.057
-50.0,-1.0,1.058
-58.0,-1.0,1.059
-80.0,-1.0,1.06
-84.0,-3.0,1.061
-40.0,-6.0,1.062
33.0,-5.0,1.063
82.0,-3.0,1.064
86.0,-1.0,1.065
63.0,1.0,1.066
40.0,1.0,1.067
29.0,1.0,1.068
29.0,0.0,1.069
28.0,-2.0,1.07
17.0,-2.0,1.071
6.0,0.0,1.072
13.0,5.0,1.073
24.0,9.0,1.074
17.0,7.0,1.075
-6.0,4.0,1.076
-25.0,-1.0,1.077
-35.0,-5.0,1.078
-42.0,-4.0,1.079
-35.0,-5.0,1.08
-10.0,-7.0,1.081
17.0,-6.0,1.082
23.0,-1.0,1.083
17.0,-1.0,1.084
16.0,0.0,1.085
17.0,1.0,1.086
2.0,2.0,1.087
-23.0,0.0,1.088
-32.0,-2.0,1.089
-23.0,-1.0,1.09
-20.0,0.0,1.091
-29.0,-2.0,1.092
-29.0,-2.0,1.093
-13.0,2.0,1.094
-3.0,6.0,1.095
-18.0,2.0,1.096
-33.0,-2.0,1.097
-16.0,-4.0,1.098
30.0,-1.0,1.099
55.0,-2.0,1.1
42.0,-8.0,1.101
24.0,-9.0,1.102
37.0,-8.0,1.103
68.0,-5.0,1.104
76.0,-1.0,1.105
50.0,2.0,1.106
21.0,3.0,1.107
5.0,2.0,1.108
-4.0,3.0,1.109
-13.0,6.0,1.11
-17.0,5.0,1.111
-13.0,-3.0,1.112
-13.0,-6.0,1.113
-20.0,-1.0,1.114
-21.0,3.0,1.115
-15.0,1.0,1.116
-9.0,-2.0,1.117
-10.0,-3.0,1.118
-12.0,-2.0,1.119
-11.0,-3.0,1.12
-10.0,-8.0,1.121
-11.0,-7.0,1.122
-8.0,-1.0,1.123
-3.0,3.0,1.124
-3.0,5.0,1.125
-10.0,6.0,1.126
-6.0,5.0,1.127
12.0,4.0,1.128
24.0,2.0,1.129
14.0,3.0,1.13
-16.0,2.0,1.131
-48.0,0.0,1.132
-64.0,-3.0,1.133
-51.0,-2.0,1.134
-21.0,-1.0,1.135
5.0,-4.0,1.136
24.0,-3.0,1.137
53.0,0.0,1.138
95.0,1.0,1.139
112.0,0.0,1.14
76.0,-6.0,1.141
20.0,-6.0,1.142
0.0,-3.0,1.143
15.0,-1.0,1.144
18.0,2.0,1.145
0.0,5.0,1.146
-13.0,4.0,1.147
-10.0,-1.0,1.148
-14.0,-2.0,1.149
-26.0,0.0,1.15
-24.0,0.0,1.151
-9.0,-5.0,1.152
-17.0,-7.0,1.153
-48.0,-7.0,1.154
-50.0,-3.0,1.155
0.0,0.0,1.156
49.0,1.0,1.157
49.0,0.0,1.158
12.0,-2.0,1.159
-5.0,-2.0,1.16
0.0,-2.0,1.161
-12.0,0.0,1.162
-59.0,3.0,1.163
-95.0,4.0,1.164
-86.0,6.0,1.165
-55.0,5.0,1.166
-31.0,2.0,1.167
-4.0,-1.0,1.168
56.0,-1.0,1.169
132.0,0.0,1.17
171.0,2.0,1.171
151.0,0.0,1.172
110.0,-1.0,1.173
79.0,-3.0,1.174
49.0,-3.0,1.175
7.0,-4.0,1.176
-28.0,-4.0,1.177
37.0,-2.0,1.178
35.0,0.0,1.179
26.0,0.0,1.18
-4.0,-5.0,1.181
-16.0,-8.0,1.182
29.0,-9.0,1.183
64.0,-7.0,1.184
64.0,-6.0,1.185
61.0,-2.0,1.186
48.0,1.0,1.187
34.0,0.0,1.188
21.0,0.0,1.189
6.0,3.0,1.19
-19.0,7.0,1.191
-32.0,9.0,1.192
-9.0,8.0,1.193
6.0,8.0,1.194
-1.0,6.0,1.195
-6.0,0.0,1.196
-3.0,-4.0,1.197
38.0,-5.0,1.198
37.0,-3.0,1.199
27.0,-2.0,1.2
-5.0,-8.0,1.201
-18.0,-12.0,1.202
30.0,-9.0,1.203
68.0,-4.0,1.204
68.0,1.0,1.205
64.0,7.0,1.206
50.0,8.0,1.207
35.0,9.0,1.208
21.0,6.0,1.209
5.0,3.0,1.21
-21.0,1.0,1.211
-35.0,-1.0,1.212
-11.0,-3.0,1.213
6.0,-5.0,1.214
-3.0,-1.0,1.215
-8.0,2.0,1.216
-5.0,0.0,1.217
48.0,-1.0,1.218
46.0,-2.0,1.219
32.0,-3.0,1.22
-16.0,-8.0,1.221
-34.0,-7.0,1.222
37.0,-6.0,1.223
91.0,-4.0,1.224
91.0,-3.0,1.225
85.0,-2.0,1.226
65.0,-2.0,1.227
44.0,-3.0,1.228
24.0,-3.0,1.229
-1.0,0.0,1.23
-39.0,1.0,1.231
-59.0,1.0,1.232
-24.0,2.0,1.233
0.0,3.0,1.234
-12.0,1.0,1.235
-20.0,-2.0,1.236
-15.0,-3.0,1.237
-15.0,-3.0,1.238
-41.0,-1.0,1.239
-62.0,0.0,1.24
-52.0,-1.0,1.241
-15.0,-2.0,1.242
26.0,-3.0,1.243
54.0,-3.0,1.244
58.0,0.0,1.245
31.0,2.0,1.246
-6.0,4.0,1.247
-26.0,6.0,1.248
-28.0,4.0,1.249
-28.0,3.0,1.25
-32.0,1.0,1.251
-26.0,0.0,1.252
-13.0,0.0,1.253
-4.0,0.0,1.254
-10.0,0.0,1.255
-7.0,2.0,1.256
17.0,7.0,1.257
45.0,12.0,1.258
48.0,9.0,1.259
17.0,2.0,1.26
-13.0,-2.0,1.261
-12.0,-1.0,1.262
12.0,1.0,1.263
27.0,-1.0,1.264
22.0,0.0,1.265
16.0,3.0,1.266
19.0,3.0,1.267
18.0,-1.0,1.268
-3.0,-1.0,1.269
-32.0,3.0,1.27
-46.0,7.0,1.271
-47.0,5.0,1.272
-53.0,0.0,1.273
-60.0,-2.0,1.274
-43.0,-3.0,1.275
0.0,-3.0,1.276
47.0,0.0,1.277
78.0,1.0,1.278
88.0,-3.0,1.279
74.0,-8.0,1.28
48.0,-11.0,1.281
24.0,-6.0,1.282
16.0,-2.0,1.283
15.0,-2.0,1.284
5.0,-1.0,1.285
-12.0,0.0,1.286
-25.0,1.0,1.287
-30.0,-1.0,1.288
-30.0,-3.0,1.289
-21.0,-3.0,1.29
0.0,-5.0,1.291
20.0,-7.0,1.292
30.0,-8.0,1.293
33.0,-5.0,1.294
34.0,-2.0,1.295
22.0,-1.0,1.296
-3.0,3.0,1.297
-25.0,5.0,1.298
-24.0,3.0,1.299
-20.0,-2.0,1.3
-41.0,-8.0,1.301
-83.0,-5.0,1.302
-108.0,0.0,1.303
-90.0,0.0,1.304
-40.0,-2.0,1.305
5.0,-3.0,1.306
19.0,-1.0,1.307
11.0,-1.0,1.308
19.0,-2.0,1.309
70.0,0.0,1.31
134.0,1.0,1.311
158.0,0.0,1.312
126.0,-3.0,1.313
64.0,-1.0,1.314
8.0,0.0,1.315
-20.0,-2.0,1.316
-21.0,-5.0,1.317
-10.0,-6.0,1.318
-6.0,-4.0,1.319
-20.0,-6.0,1.32
-33.0,-13.0,1.321
-32.0,-14.0,1.322
-30.0,-9.0,1.323
-36.0,-5.0,1.324
-36.0,-2.0,1.325
-15.0,3.0,1.326
20.0,5.0,1.327
41.0,1.0,1.328
36.0,-4.0,1.329
15.0,-6.0,1.33
-3.0,-2.0,1.331
-6.0,3.0,1.332
1.0,8.0,1.333
10.0,7.0,1.334
13.0,3.0,1.335
12.0,0.0,1.336
7.0,3.0,1.337
-4.0,3.0,1.338
-14.0,3.0,1.339
-19.0,-1.0,1.34
-21.0,-6.0,1.341
-22.0,-5.0,1.342
-25.0,-5.0,1.343
-36.0,-4.0,1.344
-64.0,-1.0,1.345
-106.0,6.0,1.346
-132.0,11.0,1.347
-105.0,10.0,1.348
-16.0,5.0,1.349
99.0,3.0,1.35
181.0,2.0,1.351
191.0,2.0,1.352
144.0,3.0,1.353
91.0,5.0,1.354
64.0,5.0,1.355
48.0,4.0,1.356
25.0,4.0,1.357
-2.0,1.0,1.358
-18.0,-2.0,1.359
-20.0,-3.0,1.36
-20.0,-3.0,1.361
-25.0,-1.0,1.362
-25.0,-2.0,1.363
-23.0,-4.0,1.364
-22.0,0.0,1.365
-22.0,4.0,1.366
-22.0,4.0,1.367
-17.0,1.0,1.368
-15.0,-1.0,1.369
-16.0,0.0,1.37
-15.0,0.0,1.371
-11.0,-3.0,1.372
-11.0,-4.0,1.373
-11.0,0.0,1.374
-8.0,7.0,1.375
-6.0,11.0,1.376
-6.0,11.0,1.377
-9.0,4.0,1.378
-6.0,0.0,1.379
-3.0,1.0,1.38
-1.0,0.0,1.381
1.0,-1.0,1.382
7.0,-3.0,1.383
13.0,-5.0,1.384
15.0,-3.0,1.385
16.0,-1.0,1.386
9.0,0.0,1.387
1.0,0.0,1.388
-11.0,-1.0,1.389
-21.0,0.0,1.39
-27.0,2.0,1.391
-29.0,-1.0,1.392
-14.0,-3.0,1.393
5.0,-3.0,1.394
38.0,-2.0,1.395
58.0,-2.0,1.396
39.0,-1.0,1.397
12.0,-2.0,1.398
-26.0,-2.0,1.399
-32.0,-2.0,1.4
-11.0,-4.0,1.401
-2.0,-5.0,1.402
-23.0,-3.0,1.403
-50.0,0.0,1.404
-46.0,1.0,1.405
-4.0,3.0,1.406
45.0,1.0,1.407
82.0,0.0,1.408
110.0,0.0,1.409
127.0,1.0,1.41
105.0,2.0,1.411
39.0,2.0,1.412
-25.0,-1.0,1.413
-44.0,-3.0,1.414
-49.0,-1.0,1.415
-87.0,0.0,1.416
-129.0,0.0,1.417
-98.0,-1.0,1.418
0.0,-3.0,1.419
67.0,-2.0,1.42
44.0,-2.0,1.421
25.0,-1.0,1.422
16.0,-3.0,1.423
11.0,-4.0,1.424
22.0,-2.0,1.425
35.0,3.0,1.426
53.0,3.0,1.427
70.0,0.0,1.428
85.0,-2.0,1.429
81.0,0.0,1.43
19.0,2.0,1.431
-27.0,4.0,1.432
-28.0,5.0,1.433
-25.0,8.0,1.434
-3.0,4.0,1.435
10.0,-3.0,1.436
-2.0,-7.0,1.437
-15.0,-8.0,1.438
-32.0,-9.0,1.439
-41.0,-11.0,1.44
-37.0,-13.0,1.441
-26.0,-6.0,1.442
-19.0,4.0,1.443
-21.0,8.0,1.444
-24.0,5.0,1.445
-22.0,0.0,1.446
-20.0,-3.0,1.447
-19.0,0.0,1.448
-19.0,6.0,1.449
-14.0,11.0,1.45
-10.0,12.0,1.451
-8.0,10.0,1.452
-3.0,7.0,1.453
5.0,4.0,1.454
10.0,0.0,1.455
4.0,-5.0,1.456
2.0,-5.0,1.457
2.0,-6.0,1.458
4.0,-7.0,1.459
5.0,-9.0,1.46
2.0,-8.0,1.461
2.0,-4.0,1.462
11.0,-2.0,1.463
17.0,-5.0,1.464
14.0,-5.0,1.465
10.0,1.0,1.466
4.0,5.0,1.467
0.0,0.0,1.468
3.0,-6.0,1.469
6.0,-6.0,1.47
10.0,-2.0,1.471
13.0,0.0,1.472
16.0,-2.0,1.473
19.0,-2.0,1.474
20.0,0.0,1.475
18.0,2.0,1.476
7.0,4.0,1.477
-3.0,0.0,1.478
-10.0,-4.0,1.479
-10.0,-7.0,1.48
-7.0,-8.0,1.481
-5.0,-4.0,1.482
-3.0,-2.0,1.483
-1.0,-1.0,1.484
-3.0,1.0,1.485
-7.0,7.0,1.486
-3.0,9.0,1.487
12.0,4.0,1.488
25.0,-2.0,1.489
28.0,-3.0,1.49
22.0,0.0,1.491
15.0,2.0,1.492
-7.0,1.0,1.493
-40.0,0.0,1.494
-58.0,0.0,1.495
-32.0,-2.0,1.496
15.0,-1.0,1.497
42.0,-2.0,1.498
30.0,-1.0,1.499
-2.0,-1.0,1.5
-24.0,-6.0,1.501
-27.0,-7.0,1.502
-8.0,-6.0,1.503
34.0,-1.0,1.504
62.0,2.0,1.505
41.0,1.0,1.506
-14.0,-1.0,1.507
-53.0,-2.0,1.508
-51.0,-1.0,1.509
-32.0,1.0,1.51
-8.0,1.0,1.511
38.0,0.0,1.512
93.0,-3.0,1.513
111.0,-2.0,1.514
77.0,4.0,1.515
29.0,9.0,1.516
-2.0,9.0,1.517
-25.0,5.0,1.518
-38.0,3.0,1.519
-25.0,1.0,1.52
7.0,-6.0,1.521
24.0,-9.0,1.522
25.0,-7.0,1.523
45.0,-1.0,1.524
85.0,2.0,1.525
96.0,2.0,1.526
52.0,1.0,1.527
-4.0,0.0,1.528
-28.0,-4.0,1.529
-29.0,-7.0,1.53
-35.0,-8.0,1.531
-44.0,-2.0,1.532
-43.0,4.0,1.533
-35.0,4.0,1.534
-33.0,0.0,1.535
-30.0,-2.0,1.536
-30.0,0.0,1.537
-57.0,2.0,1.538
-97.0,2.0,1.539
-112.0,-3.0,1.54
-50.0,-9.0,1.541
6.0,-8.0,1.542
44.0,-2.0,1.543
69.0,5.0,1.544
48.0,10.0,1.545
29.0,13.0,1.546
17.0,9.0,1.547
-1.0,1.0,1.548
-33.0,-2.0,1.549
-45.0,2.0,1.55
3.0,3.0,1.551
47.0,-3.0,1.552
79.0,-7.0,1.553
92.0,-5.0,1.554
46.0,0.0,1.555
12.0,0.0,1.556
16.0,-3.0,1.557
19.0,-5.0,1.558
8.0,-4.0,1.559
-25.0,-7.0,1.56
-39.0,-10.0,1.561
-25.0,-11.0,1.562
-9.0,-7.0,1.563
-10.0,-2.0,1.564
-14.0,0.0,1.565
-9.0,3.0,1.566
-7.0,4.0,1.567
-12.0,5.0,1.568
-14.0,4.0,1.569
-8.0,2.0,1.57
-2.0,0.0,1.571
-2.0,0.0,1.572
-1.0,6.0,1.573
2.0,10.0,1.574
6.0,9.0,1.575
7.0,3.0,1.576
6.0,2.0,1.577
5.0,4.0,1.578
1.0,2.0,1.579
-2.0,-5.0,1.58
2.0,-10.0,1.581
8.0,-7.0,1.582
13.0,-5.0,1.583
15.0,-6.0,1.584
10.0,-7.0,1.585
3.0,-5.0,1.586
-3.0,-2.0,1.587
-2.0,-2.0,1.588
1.0,0.0,1.589
-1.0,2.0,1.59
-12.0,3.0,1.591
-30.0,0.0,1.592
-52.0,-2.0,1.593
-68.0,-1.0,1.594
-61.0,1.0,1.595
-34.0,-1.0,1.596
-7.0,-4.0,1.597
14.0,-6.0,1.598
49.0,-5.0,1.599
116.0,-1.0,1.6
182.0,-1.0,1.601
190.0,-1.0,1.602
130.0,-3.0,1.603
50.0,-2.0,1.604
0.0,2.0,1.605
-16.0,6.0,1.606
-20.0,8.0,1.607
-26.0,5.0,1.608
-29.0,2.0,1.609
-26.0,0.0,1.61
-29.0,-1.0,1.611
-47.0,-2.0,1.612
-69.0,-1.0,1.613
-77.0,-3.0,1.614
-59.0,-5.0,1.615
-24.0,-7.0,1.616
13.0,-5.0,1.617
30.0,-5.0,1.618
23.0,-5.0,1.619
11.0,-4.0,1.62
-11.0,-2.0,1.621
-21.0,3.0,1.622
12.0,7.0,1.623
40.0,7.0,1.624
53.0,7.0,1.625
55.0,6.0,1.626
19.0,2.0,1.627
-7.0,-2.0,1.628
1.0,-1.0,1.629
7.0,3.0,1.63
11.0,2.0,1.631
13.0,-3.0,1.632
10.0,-6.0,1.633
5.0,-5.0,1.634
-8.0,0.0,1.635
-25.0,3.0,1.636
-53.0,6.0,1.637
-79.0,4.0,1.638
-84.0,1.0,1.639
-66.0,-1.0,1.64
-43.0,-4.0,1.641
-46.0,-5.0,1.642
-66.0,-4.0,1.643
-60.0,-4.0,1.644
2.0,-3.0,1.645
101.0,-1.0,1.646
175.0,0.0,1.647
183.0,-2.0,1.648
142.0,-4.0,1.649
87.0,-6.0,1.65
36.0,-7.0,1.651
-12.0,-2.0,1.652
-49.0,4.0,1.653
-56.0,6.0,1.654
-32.0,4.0,1.655
1.0,2.0,1.656
23.0,8.0,1.657
31.0,9.0,1.658
15.0,1.0,1.659
-20.0,-9.0,1.66
-48.0,-13.0,1.661
-42.0,-9.0,1.662
-20.0,-4.0,1.663
-13.0,-2.0,1.664
-22.0,2.0,1.665
-23.0,8.0,1.666
-14.0,9.0,1.667
-9.0,3.0,1.668
-15.0,-3.0,1.669
-17.0,-4.0,1.67
-9.0,-3.0,1.671
-5.0,-3.0,1.672
-10.0,-2.0,1.673
-12.0,3.0,1.674
-8.0,3.0,1.675
-7.0,1.0,1.676
-7.0,0.0,1.677
-11.0,-2.0,1.678
-12.0,-3.0,1.679
-12.0,-4.0,1.68
-2.0,-8.0,1.681
15.0,-8.0,1.682
25.0,-6.0,1.683
22.0,-5.0,1.684
18.0,-3.0,1.685
27.0,-1.0,1.686
38.0,0.0,1.687
27.0,0.0,1.688
-9.0,3.0,1.689
-46.0,6.0,1.69
-59.0,5.0,1.691
-46.0,1.0,1.692
-14.0,-1.0,1.693
21.0,-1.0,1.694
46.0,-1.0,1.695
60.0,-1.0,1.696
74.0,1.0,1.697
86.0,1.0,1.698
76.0,-3.0,1.699
55.0,-6.0,1.7
-1.0,-5.0,1.701
-44.0,1.0,1.702
-45.0,5.0,1.703
-38.0,3.0,1.704
-3.0,5.0,1.705
22.0,8.0,1.706
15.0,6.0,1.707
3.0,-2.0,1.708
-20.0,-4.0,1.709
-38.0,0.0,1.71
-40.0,0.0,1.711
-41.0,-4.0,1.712
-37.0,-6.0,1.713
-12.0,-3.0,1.714
72.0,1.0,1.715
130.0,4.0,1.716
110.0,8.0,1.717
72.0,7.0,1.718
-6.0,1.0,1.719
-37.0,-6.0,1.72
-49.0,-10.0,1.721
-79.0,-7.0,1.722
-97.0,-3.0,1.723
-51.0,0.0,1.724
24.0,6.0,1.725
63.0,6.0,1.726
59.0,1.0,1.727
73.0,-5.0,1.728
109.0,-3.0,1.729
103.0,1.0,1.73
35.0,1.0,1.731
-29.0,0.0,1.732
-36.0,3.0,1.733
-21.0,7.0,1.734
-29.0,8.0,1.735
-47.0,7.0,1.736
-45.0,5.0,1.737
-33.0,-1.0,1.738
-35.0,-9.0,1.739
-50.0,-12.0,1.74
-53.0,-9.0,1.741
-38.0,-4.0,1.742
-20.0,-4.0,1.743
-7.0,-2.0,1.744
4.0,3.0,1.745
1.0,6.0,1.746
-14.0,3.0,1.747
-25.0,0.0,1.748
-24.0,0.0,1.749
-21.0,2.0,1.75
-23.0,0.0,1.751
-13.0,0.0,1.752
18.0,3.0,1.753
44.0,2.0,1.754
45.0,-3.0,1.755
29.0,-6.0,1.756
19.0,-2.0,1.757
14.0,-2.0,1.758
1.0,-6.0,1.759
-20.0,-9.0,1.76
-38.0,-9.0,1.761
-43.0,-7.0,1.762
-33.0,-7.0,1.763
-1.0,-4.0,1.764
47.0,2.0,1.765
91.0,5.0,1.766
106.0,1.0,1.767
89.0,-3.0,1.768
53.0,0.0,1.769
15.0,4.0,1.77
-9.0,2.0,1.771
-12.0,-5.0,1.772
-5.0,-6.0,1.773
-8.0,-4.0,1.774
-15.0,-2.0,1.775
-13.0,-3.0,1.776
0.0,-2.0,1.777
3.0,1.0,1.778
-5.0,2.0,1.779
-12.0,1.0,1.78
-18.0,-1.0,1.781
-22.0,-1.0,1.782
-15.0,0.0,1.783
-8.0,2.0,1.784
-1.0,6.0,1.785
4.0,6.0,1.786
-1.0,3.0,1.787
-3.0,0.0,1.788
2.0,0.0,1.789
5.0,-2.0,1.79
-5.0,-3.0,1.791
-15.0,-4.0,1.792
-22.0,-3.0,1.793
-30.0,-4.0,1.794
-39.0,-5.0,1.795
-42.0,-3.0,1.796
-24.0,0.0,1.797
-4.0,1.0,1.798
4.0,-2.0,1.799
0.0,-4.0,1.8
2.0,-6.0,1.801
28.0,-3.0,1.802
72.0,0.0,1.803
103.0,3.0,1.804
102.0,6.0,1.805
75.0,7.0,1.806
53.0,2.0,1.807
37.0,-6.0,1.808
17.0,-8.0,1.809
-4.0,-4.0,1.81
-11.0,-1.0,1.811
-4.0,0.0,1.812
0.0,-2.0,1.813
-8.0,1.0,1.814
-15.0,3.0,1.815
-15.0,0.0,1.816
-16.0,-2.0,1.817
-20.0,-4.0,1.818
-22.0,-4.0,1.819
-25.0,-3.0,1.82
-28.0,-6.0,1.821
-26.0,-5.0,1.822
-14.0,0.0,1.823
0.0,7.0,1.824
2.0,10.0,1.825
-14.0,10.0,1.826
-46.0,7.0,1.827
-101.0,3.0,1.828
-165.0,3.0,1.829
-187.0,3.0,1.83
-118.0,2.0,1.831
10.0,0.0,1.832
115.0,0.0,1.833
160.0,-2.0,1.834
189.0,-3.0,1.835
232.0,-5.0,1.836
251.0,-3.0,1.837
188.0,-1.0,1.838
70.0,-1.0,1.839
-16.0,-3.0,1.84
-28.0,-9.0,1.841
-12.0,-9.0,1.842
-24.0,-6.0,1.843
-59.0,-4.0,1.844
-79.0,0.0,1.845
-70.0,5.0,1.846
-44.0,5.0,1.847
-13.0,1.0,1.848
10.0,-5.0,1.849
15.0,-6.0,1.85
10.0,-4.0,1.851
8.0,-3.0,1.852
4.0,-6.0,1.853
-13.0,-7.0,1.854
-36.0,-7.0,1.855
-43.0,0.0,1.856
-38.0,14.0,1.857
-44.0,29.0,1.858
-60.0,31.0,1.859
-69.0,19.0,1.86
-55.0,1.0,1.861
-36.0,-6.0,1.862
1.0,-5.0,1.863
28.0,-3.0,1.864
20.0,-3.0,1.865
19.0,0.0,1.866
39.0,7.0,1.867
57.0,10.0,1.868
68.0,7.0,1.869
70.0,1.0,1.87
43.0,1.0,1.871
22.0,4.0,1.872
24.0,4.0,1.873
25.0,0.0,1.874
19.0,-5.0,1.875
11.0,-6.0,1.876
-5.0,-3.0,1.877
-21.0,-5.0,1.878
-32.0,-5.0,1.879
-27.0,-6.0,1.88
-30.0,-10.0,1.881
-50.0,-12.0,1.882
-69.0,-6.0,1.883
-78.0,-1.0,1.884
-80.0,1.0,1.885
-63.0,3.0,1.886
-13.0,0.0,1.887
47.0,-2.0,1.888
67.0,0.0,1.889
45.0,2.0,1.89
27.0,0.0,1.891
33.0,-3.0,1.892
37.0,-4.0,1.893
22.0,-5.0,1.894
15.0,-3.0,1.895
37.0,-2.0,1.896
68.0,-2.0,1.897
83.0,-2.0,1.898
76.0,-2.0,1.899
46.0,-2.0,1.9
-9.0,-5.0,1.901
-74.0,-4.0,1.902
-112.0,-4.0,1.903
-103.0,-4.0,1.904
-57.0,-2.0,1.905
13.0,1.0,1.906
73.0,1.0,1.907
85.0,-2.0,1.908
52.0,-6.0,1.909
28.0,-7.0,1.91
32.0,-7.0,1.911
27.0,-2.0,1.912
-8.0,3.0,1.913
-21.0,6.0,1.914
17.0,3.0,1.915
56.0,-4.0,1.916
46.0,-6.0,1.917
4.0,-7.0,1.918
-20.0,-4.0,1.919
-29.0,-4.0,1.92
-51.0,-6.0,1.921
-75.0,-9.0,1.922
-81.0,-10.0,1.923
-80.0,-9.0,1.924
-97.0,-6.0,1.925
-113.0,-1.0,1.926
-87.0,0.0,1.927
-22.0,-2.0,1.928
51.0,-3.0,1.929
105.0,-1.0,1.93
142.0,0.0,1.931
165.0,3.0,1.932
175.0,8.0,1.933
150.0,12.0,1.934
80.0,12.0,1.935
-10.0,6.0,1.936
-74.0,1.0,1.937
-108.0,0.0,1.938
-130.0,3.0,1.939
-134.0,4.0,1.94
-86.0,1.0,1.941
-1.0,-1.0,1.942
47.0,-3.0,1.943
42.0,-1.0,1.944
40.0,0.0,1.945
79.0,3.0,1.946
107.0,2.0,1.947
75.0,-1.0,1.948
13.0,-4.0,1.949
-23.0,-4.0,1.95
-26.0,-1.0,1.951
-16.0,4.0,1.952
3.0,12.0,1.953
11.0,14.0,1.954
-17.0,10.0,1.955
-56.0,3.0,1.956
-52.0,0.0,1.957
-13.0,-1.0,1.958
9.0,-2.0,1.959
22.0,-6.0,1.96
1.0,-11.0,1.961
-12.0,-9.0,1.962
-2.0,-6.0,1.963
4.0,-3.0,1.964
-5.0,-1.0,1.965
-15.0,3.0,1.966
-23.0,6.0,1.967
-24.0,9.0,1.968
-6.0,11.0,1.969
8.0,13.0,1.97
13.0,12.0,1.971
15.0,6.0,1.972
4.0,0.0,1.973
-3.0,0.0,1.974
-1.0,0.0,1.975
-6.0,-4.0,1.976
-31.0,-7.0,1.977
-51.0,-6.0,1.978
-40.0,-2.0,1.979
-14.0,1.0,1.98
-2.0,-4.0,1.981
-7.0,-8.0,1.982
-8.0,-6.0,1.983
1.0,-5.0,1.984
11.0,-4.0,1.985
13.0,-2.0,1.986
26.0,0.0,1.987
53.0,1.0,1.988
59.0,0.0,1.989
26.0,-3.0,1.99
-15.0,-5.0,1.991
-26.0,-7.0,1.992
-14.0,-5.0,1.993
-9.0,-3.0,1.994
-4.0,1.0,1.995
21.0,4.0,1.996
49.0,4.0,1.997
57.0,4.0,1.998
48.0,0.0,1.999
46.0,-5.0,2.0
53.0,-11.0,2.001
46.0,-12.0,2.002
24.0,-9.0,2.003
4.0,-1.0,2.004
-1.0,8.0,2.005
-5.0,14.0,2.006
-9.0,13.0,2.007
-11.0,7.0,2.008
-15.0,1.0,2.009
-28.0,-1.0,2.01
-41.0,0.0,2.011
-31.0,0.0,2.012
-6.0,0.0,2.013
0.0,3.0,2.014
-22.0,3.0,2.015
-52.0,0.0,2.016
-58.0,0.0,2.017
-43.0,1.0,2.018
-26.0,2.0,2.019
-27.0,1.0,2.02
-42.0,-2.0,2.021
-53.0,-1.0,2.022
-45.0,0.0,2.023
-24.0,-3.0,2.024
-7.0,-6.0,2.025
-5.0,-1.0,2.026
-12.0,5.0,2.027
0.0,6.0,2.028
57.0,4.0,2.029
147.0,2.0,2.03
197.0,0.0,2.031
161.0,-2.0,2.032
93.0,-3.0,2.033
78.0,-3.0,2.034
117.0,-3.0,2.035
123.0,-5.0,2.036
71.0,-4.0,2.037
11.0,-4.0,2.038
-7.0,-5.0,2.039
-5.0,-9.0,2.04
-19.0,-12.0,2.041
-38.0,-9.0,2.042
-41.0,-6.0,2.043
-42.0,-4.0,2.044
-59.0,-3.0,2.045
-70.0,2.0,2.046
-58.0,5.0,2.047
-43.0,2.0,2.048
-45.0,0.0,2.049
-52.0,1.0,2.05
-48.0,5.0,2.051
-43.0,7.0,2.052
-48.0,7.0,2.053
-56.0,4.0,2.054
-52.0,3.0,2.055
-43.0,0.0,2.056
-35.0,-1.0,2.057
-40.0,-3.0,2.058
-12.0,0.0,2.059
16.0,8.0,2.06
47.0,11.0,2.061
71.0,9.0,2.062
75.0,1.0,2.063
73.0,-5.0,2.064
53.0,-3.0,2.065
38.0,1.0,2.066
41.0,1.0,2.067
37.0,-3.0,2.068
11.0,-6.0,2.069
-17.0,-5.0,2.07
-58.0,-4.0,2.071
-88.0,-4.0,2.072
-85.0,-2.0,2.073
-65.0,0.0,2.074
2.0,0.0,2.075
54.0,-4.0,2.076
66.0,-5.0,2.077
-58.0,-3.0,2.078
-20.0,-2.0,2.079
18.0,-2.0,2.08
60.0,-7.0,2.081
93.0,-5.0,2.082
98.0,0.0,2.083
95.0,6.0,2.084
68.0,9.0,2.085
48.0,9.0,2.086
52.0,5.0,2.087
47.0,-1.0,2.088
12.0,-1.0,2.089
-27.0,1.0,2.09
-82.0,2.0,2.091
-123.0,-3.0,2.092
-119.0,-7.0,2.093
-92.0,-5.0,2.094
-2.0,-2.0,2.095
69.0,-2.0,2.096
85.0,-2.0,2.097
101.0,-4.0,2.098
122.0,-5.0,2.099
119.0,-6.0,2.1
67.0,-6.0,2.101
9.0,-4.0,2.102
-1.0,-3.0,2.103
17.0,-2.0,2.104
12.0,3.0,2.105
-12.0,14.0,2.106
-19.0,18.0,2.107
-26.0,13.0,2.108
-75.0,8.0,2.109
-141.0,6.0,2.11
-148.0,0.0,2.111
-77.0,-10.0,2.112
-5.0,-17.0,2.113
8.0,-11.0,2.114
8.0,-4.0,2.115
57.0,-2.0,2.116
128.0,-3.0,2.117
144.0,-2.0,2.118
90.0,6.0,2.119
46.0,11.0,2.12
31.0,5.0,2.121
19.0,-2.0,2.122
17.0,-5.0,2.123
1.0,-5.0,2.124
-56.0,-3.0,2.125
-101.0,-4.0,2.126
-107.0,-6.0,2.127
-112.0,-6.0,2.128
-108.0,-5.0,2.129
-99.0,-6.0,2.13
-73.0,-7.0,2.131
-48.0,-9.0,2.132
-22.0,-12.0,2.133
9.0,-17.0,2.134
59.0,-18.0,2.135
103.0,-10.0,2.136
128.0,6.0,2.137
148.0,18.0,2.138
150.0,19.0,2.139
141.0,10.0,2.14
89.0,-4.0,2.141
-3.0,-9.0,2.142
-72.0,-5.0,2.143
-75.0,5.0,2.144
-47.0,14.0,2.145
-39.0,16.0,2.146
-35.0,12.0,2.147
2.0,9.0,2.148
64.0,7.0,2.149
100.0,5.0,2.15
89.0,1.0,2.151
51.0,-2.0,2.152
5.0,-2.0,2.153
-24.0,-1.0,2.154
-19.0,-6.0,2.155
9.0,-13.0,2.156
20.0,-11.0,2.157
-18.0,-5.0,2.158
-49.0,6.0,2.159
-37.0,14.0,2.16
-7.0,17.0,2.161
-4.0,13.0,2.162
-27.0,2.0,2.163
-45.0,-5.0,2.164
-61.0,-2.0,2.165
-87.0,2.0,2.166
-115.0,-5.0,2.167
-122.0,-18.0,2.168
-101.0,-19.0,2.169
-50.0,-6.0,2.17
28.0,9.0,2.171
110.0,14.0,2.172
152.0,14.0,2.173
132.0,16.0,2.174
82.0,19.0,2.175
38.0,18.0,2.176
7.0,13.0,2.177
-8.0,0.0,2.178
-13.0,-11.0,2.179
-20.0,-15.0,2.18
-34.0,-17.0,2.181
-40.0,-18.0,2.182
-15.0,-19.0,2.183
9.0,-16.0,2.184
31.0,-13.0,2.185
57.0,-10.0,2.186
89.0,-4.0,2.187
105.0,6.0,2.188
71.0,13.0,2.189
41.0,16.0,2.19
24.0,14.0,2.191
14.0,12.0,2.192
20.0,9.0,2.193
24.0,1.0,2.194
20.0,-10.0,2.195
16.0,-23.0,2.196
14.0,-35.0,2.197
-54.0,1.0,2.198
-67.0,5.0,2.199
-86.0,7.0,2.2
-124.0,3.0,2.201
-138.0,-1.0,2.202
-73.0,6.0,2.203
-9.0,9.0,2.204
51.0,6.0,2.205
118.0,5.0,2.206
203.0,5.0,2.207
245.0,3.0,2.208
155.0,6.0,2.209
77.0,11.0,2.21
33.0,23.0,2.211
3.0,34.0,2.212
21.0,34.0,2.213
32.0,29.0,2.214
18.0,5.0,2.215
7.0,-15.0,2.216
3.0,-29.0,2.217
-6.0,3.0,2.218
-33.0,5.0,2.219
-72.0,7.0,2.22
-123.0,4.0,2.221
-154.0,2.0,2.222
-140.0,6.0,2.223
-113.0,8.0,2.224
-108.0,6.0,2.225
-93.0,5.0,2.226
-30.0,5.0,2.227
41.0,4.0,2.228
66.0,6.0,2.229
75.0,9.0,2.23
133.0,16.0,2.231
202.0,22.0,2.232
194.0,22.0,2.233
112.0,19.0,2.234
49.0,5.0,2.235
44.0,-6.0,2.236
43.0,-14.0,2.237
13.0,-17.0,2.238
-16.0,-3.0,2.239
-27.0,9.0,2.24
-48.0,9.0,2.241
-81.0,2.0,2.242
-97.0,-4.0,2.243
-85.0,-8.0,2.244
-80.0,-10.0,2.245
-94.0,-17.0,2.246
-107.0,-30.0,2.247
-115.0,-48.0,2.248
-125.0,-50.0,2.249
-113.0,-29.0,2.25
-50.0,5.0,2.251
34.0,29.0,2.252
85.0,31.0,2.253
109.0,17.0,2.254
148.0,6.0,2.255
197.0,3.0,2.256
201.0,7.0,2.257
133.0,10.0,2.258
41.0,6.0,2.259
-23.0,0.0,2.26
-45.0,-5.0,2.261
-60.0,-4.0,2.262
-93.0,2.0,2.263
-126.0,5.0,2.264
-126.0,5.0,2.265
-78.0,8.0,2.266
-23.0,16.0,2.267
-6.0,22.0,2.268
-21.0,18.0,2.269
-24.0,7.0,2.27
0.0,0.0,2.271
47.0,2.0,2.272
95.0,5.0,2.273
128.0,3.0,2.274
132.0,-10.0,2.275
107.0,-31.0,2.276
77.0,-52.0,2.277
52.0,-68.0,2.278
27.0,-64.0,2.279
-3.0,-42.0,2.28
-13.0,-18.0,2.281
4.0,-4.0,2.282
10.0,-1.0,2.283
-19.0,0.0,2.284
-51.0,1.0,2.285
-50.0,5.0,2.286
-32.0,10.0,2.287
-41.0,12.0,2.288
-78.0,10.0,2.289
-106.0,6.0,2.29
-98.0,2.0,2.291
-58.0,0.0,2.292
-2.0,-2.0,2.293
55.0,-4.0,2.294
99.0,-2.0,2.295
121.0,5.0,2.296
117.0,14.0,2.297
85.0,17.0,2.298
32.0,14.0,2.299
-26.0,7.0,2.3
-74.0,-3.0,2.301
-110.0,-2.0,2.302
-131.0,6.0,2.303
-118.0,14.0,2.304
-57.0,20.0,2.305
27.0,20.0,2.306
92.0,13.0,2.307
113.0,2.0,2.308
103.0,-7.0,2.309
81.0,-9.0,2.31
62.0,-7.0,2.311
44.0,-6.0,2.312
22.0,-5.0,2.313
3.0,0.0,2.314
5.0,6.0,2.315
21.0,9.0,2.316
20.0,7.0,2.317
-12.0,3.0,2.318
-28.0,6.0,2.319
0.0,12.0,2.32
40.0,11.0,2.321
42.0,7.0,2.322
16.0,2.0,2.323
-1.0,2.0,2.324
-10.0,3.0,2.325
-38.0,0.0,2.326
-76.0,-8.0,2.327
-88.0,-10.0,2.328
-73.0,-6.0,2.329
-47.0,-4.0,2.33
-22.0,-7.0,2.331
-1.0,-9.0,2.332
1.0,-5.0,2.333
-23.0,0.0,2.334
-56.0,0.0,2.335
-72.0,1.0,2.336
-70.0,6.0,2.337
-58.0,5.0,2.338
-32.0,-3.0,2.339
4.0,-10.0,2.34
47.0,-9.0,2.341
86.0,-2.0,2.342
116.0,2.0,2.343
124.0,-1.0,2.344
98.0,-2.0,2.345
46.0,0.0,2.346
-5.0,0.0,2.347
-39.0,-5.0,2.348
-49.0,-7.0,2.349
-38.0,-2.0,2.35
-16.0,3.0,2.351
5.0,5.0,2.352
26.0,2.0,2.353
54.0,-3.0,2.354
76.0,-6.0,2.355
64.0,-3.0,2.356
25.0,1.0,2.357
-3.0,-4.0,2.358
2.0,-13.0,2.359
15.0,-20.0,2.36
1.0,-18.0,2.361
-25.0,-8.0,2.362
-45.0,1.0,2.363
-65.0,10.0,2.364
-100.0,17.0,2.365
-131.0,17.0,2.366
-134.0,9.0,2.367
-116.0,1.0,2.368
-86.0,-1.0,2.369
-38.0,-1.0,2.37
34.0,-7.0,2.371
101.0,-13.0,2.372
150.0,-9.0,2.373
194.0,2.0,2.374
226.0,13.0,2.375
206.0,16.0,2.376
138.0,14.0,2.377
72.0,6.0,2.378
58.0,-1.0,2.379
64.0,-3.0,2.38
33.0,-5.0,2.381
-20.0,-5.0,2.382
-48.0,-6.0,2.383
-51.0,-5.0,2.384
-62.0,-4.0,2.385
-80.0,-5.0,2.386
-86.0,-7.0,2.387
-89.0,-7.0,2.388
-113.0,-6.0,2.389
-148.0,-4.0,2.39
-150.0,0.0,2.391
-103.0,2.0,2.392
-32.0,1.0,2.393
30.0,3.0,2.394
81.0,15.0,2.395
124.0,30.0,2.396
147.0,30.0,2.397
127.0,3.0,2.398
72.0,-20.0,2.399
23.0,-15.0,2.4
15.0,3.0,2.401
28.0,13.0,2.402
17.0,6.0,2.403
-17.0,-3.0,2.404
-33.0,-5.0,2.405
-22.0,-3.0,2.406
-15.0,-4.0,2.407
-21.0,-4.0,2.408
-15.0,-3.0,2.409
15.0,-5.0,2.41
32.0,-8.0,2.411
11.0,-10.0,2.412
-22.0,-10.0,2.413
-33.0,-12.0,2.414
-28.0,-10.0,2.415
-32.0,-1.0,2.416
-41.0,12.0,2.417
-44.0,11.0,2.418
-48.0,-2.0,2.419
-70.0,-18.0,2.42
-99.0,-21.0,2.421
-110.0,-12.0,2.422
-87.0,-5.0,2.423
-41.0,0.0,2.424
12.0,2.0,2.425
55.0,7.0,2.426
102.0,8.0,2.427
163.0,7.0,2.428
209.0,8.0,2.429
183.0,8.0,2.43
75.0,10.0,2.431
-40.0,8.0,2.432
-90.0,6.0,2.433
-81.0,2.0,2.434
-53.0,1.0,2.435
-15.0,0.0,2.436
18.0,0.0,2.437
15.0,-5.0,2.438
-12.0,-7.0,2.439
-26.0,-7.0,2.44
3.0,-9.0,2.441
17.0,-10.0,2.442
-16.0,-8.0,2.443
-23.0,-2.0,2.444
52.0,1.0,2.445
116.0,-3.0,2.446
146.0,-7.0,2.447
147.0,0.0,2.448
56.0,19.0,2.449
-19.0,32.0,2.45
-49.0,27.0,2.451
-63.0,10.0,2.452
-27.0,0.0,2.453
-4.0,-1.0,2.454
-24.0,0.0,2.455
-37.0,-4.0,2.456
-26.0,-9.0,2.457
-13.0,-10.0,2.458
-30.0,-5.0,2.459
-90.0,0.0,2.46
-135.0,1.0,2.461
-116.0,2.0,2.462
-39.0,0.0,2.463
53.0,-1.0,2.464
109.0,-3.0,2.465
110.0,-1.0,2.466
74.0,14.0,2.467
38.0,25.0,2.468
14.0,22.0,2.469
-2.0,16.0,2.47
-4.0,4.0,2.471
19.0,-5.0,2.472
50.0,-6.0,2.473
57.0,-8.0,2.474
40.0,-12.0,2.475
17.0,-14.0,2.476
-6.0,-9.0,2.477
-34.0,-2.0,2.478
-46.0,1.0,2.479
-31.0,-2.0,2.48
-35.0,-10.0,2.481
-88.0,-14.0,2.482
-143.0,-17.0,2.483
-134.0,-14.0,2.484
-65.0,-1.0,2.485
17.0,12.0,2.486
103.0,9.0,2.487
180.0,-5.0,2.488
193.0,-11.0,2.489
112.0,-5.0,2.49
11.0,4.0,2.491
-21.0,3.0,2.492
-8.0,0.0,2.493
-21.0,5.0,2.494
-60.0,8.0,2.495
-68.0,5.0,2.496
-44.0,3.0,2.497
-29.0,4.0,2.498
-39.0,7.0,2.499
-52.0,6.0,2.5
-44.0,-1.0,2.501
-5.0,-5.0,2.502
60.0,-7.0,2.503
118.0,-7.0,2.504
131.0,-8.0,2.505
107.0,-8.0,2.506
83.0,-6.0,2.507
57.0,-3.0,2.508
5.0,-1.0,2.509
-54.0,-3.0,2.51
-65.0,-7.0,2.511
-30.0,-8.0,2.512
-13.0,-8.0,2.513
-29.0,-10.0,2.514
-45.0,-15.0,2.515
-41.0,-20.0,2.516
-37.0,-18.0,2.517
-48.0,-13.0,2.518
-59.0,-4.0,2.519
-65.0,2.0,2.52
-74.0,1.0,2.521
-65.0,-1.0,2.522
-19.0,1.0,2.523
28.0,9.0,2.524
32.0,11.0,2.525
10.0,6.0,2.526
15.0,1.0,2.527
47.0,4.0,2.528
58.0,5.0,2.529
43.0,1.0,2.53
39.0,-1.0,2.531
53.0,2.0,2.532
46.0,4.0,2.533
14.0,-1.0,2.534
-2.0,-5.0,2.535
11.0,-2.0,2.536
17.0,3.0,2.537
-15.0,4.0,2.538
-61.0,1.0,2.539
-86.0,1.0,2.54
-81.0,-1.0,2.541
-71.0,-3.0,2.542
-75.0,-4.0,2.543
-90.0,-6.0,2.544
-96.0,-6.0,2.545
-80.0,-6.0,2.546
-55.0,-5.0,2.547
-29.0,1.0,2.548
27.0,11.0,2.549
129.0,19.0,2.55
211.0,21.0,2.551
206.0,15.0,2.552
150.0,9.0,2.553
146.0,6.0,2.554
198.0,3.0,2.555
207.0,0.0,2.556
140.0,-2.0,2.557
62.0,-3.0,2.558
36.0,-3.0,2.559
24.0,-4.0,2.56
-23.0,-5.0,2.561
-71.0,-1.0,2.562
-56.0,1.0,2.563
2.0,-5.0,2.564
42.0,-12.0,2.565
34.0,-9.0,2.566
-2.0,1.0,2.567
-43.0,11.0,2.568
-80.0,12.0,2.569
-104.0,6.0,2.57
-116.0,0.0,2.571
-125.0,0.0,2.572
-133.0,5.0,2.573
-135.0,9.0,2.574
-127.0,6.0,2.575
-108.0,2.0,2.576
-82.0,7.0,2.577
-45.0,13.0,2.578
-12.0,14.0,2.579
-24.0,10.0,2.58
-94.0,4.0,2.581
-142.0,0.0,2.582
-72.0,-10.0,2.583
97.0,-18.0,2.584
214.0,-8.0,2.585
199.0,14.0,2.586
148.0,20.0,2.587
158.0,2.0,2.588
166.0,-10.0,2.589
84.0,-2.0,2.59
-18.0,9.0,2.591
-22.0,3.0,2.592
34.0,-8.0,2.593
33.0,-7.0,2.594
-27.0,-3.0,2.595
-51.0,-10.0,2.596
-31.0,-21.0,2.597
-45.0,-30.0,2.598
-108.0,-40.0,2.599
-156.0,-55.0,2.6
-139.0,-64.0,2.601
-79.0,-40.0,2.602
-2.0,2.0,2.603
77.0,39.0,2.604
132.0,53.0,2.605
149.0,50.0,2.606
158.0,36.0,2.607
164.0,21.0,2.608
131.0,16.0,2.609
55.0,18.0,2.61
1.0,17.0,2.611
0.0,11.0,2.612
-3.0,9.0,2.613
-50.0,9.0,2.614
-100.0,6.0,2.615
-104.0,-6.0,2.616
-91.0,-13.0,2.617
-88.0,-16.0,2.618
-72.0,-16.0,2.619
-24.0,-21.0,2.62
19.0,-28.0,2.621
20.0,-26.0,2.622
0.0,-16.0,2.623
-3.0,-9.0,2.624
12.0,-6.0,2.625
36.0,-5.0,2.626
61.0,0.0,2.627
65.0,9.0,2.628
30.0,20.0,2.629
-10.0,25.0,2.63
-12.0,20.0,2.631
8.0,8.0,2.632
-1.0,0.0,2.633
-37.0,0.0,2.634
-50.0,9.0,2.635
-35.0,8.0,2.636
-23.0,-1.0,2.637
-28.0,-10.0,2.638
-26.0,-11.0,2.639
-21.0,-10.0,2.64
-36.0,-14.0,2.641
-75.0,-15.0,2.642
-98.0,-7.0,2.643
-84.0,6.0,2.644
-47.0,11.0,2.645
2.0,11.0,2.646
59.0,11.0,2.647
104.0,11.0,2.648
108.0,9.0,2.649
78.0,9.0,2.65
52.0,11.0,2.651
54.0,15.0,2.652
71.0,15.0,2.653
74.0,10.0,2.654
44.0,2.0,2.655
-13.0,-6.0,2.656
-61.0,-10.0,2.657
-70.0,-12.0,2.658
-34.0,-10.0,2.659
-1.0,-18.0,2.66
-6.0,-41.0,2.661
-27.0,-58.0,2.662
-29.0,-57.0,2.663
-18.0,-39.0,2.664
-12.0,-19.0,2.665
10.0,-3.0,2.666
70.0,16.0,2.667
125.0,35.0,2.668
101.0,41.0,2.669
-4.0,29.0,2.67
-103.0,13.0,2.671
-116.0,12.0,2.672
-53.0,25.0,2.673
34.0,34.0,2.674
108.0,30.0,2.675
169.0,23.0,2.676
208.0,22.0,2.677
194.0,19.0,2.678
103.0,11.0,2.679
-38.0,6.0,2.68
-142.0,10.0,2.681
-155.0,25.0,2.682
-114.0,45.0,2.683
-88.0,80.0,2.684
-75.0,119.0,2.685
-25.0,130.0,2.686
64.0,92.0,2.687
129.0,36.0,2.688
127.0,-10.0,2.689
69.0,-53.0,2.69
-14.0,-114.0,2.691
-85.0,-180.0,2.692
-95.0,-217.0,2.693
-44.0,-220.0,2.694
7.0,-202.0,2.695
12.0,-163.0,2.696
2.0,-109.0,2.697
23.0,-64.0,2.698
46.0,-46.0,2.699
18.0,-43.0,2.7
-38.0,-24.0,2.701
-55.0,10.0,2.702
-27.0,39.0,2.703
-15.0,55.0,2.704
-41.0,61.0,2.705
-66.0,56.0,2.706
-56.0,44.0,2.707
-32.0,42.0,2.708
-17.0,53.0,2.709
-2.0,64.0,2.71
18.0,59.0,2.711
22.0,51.0,2.712
-10.0,46.0,2.713
-60.0,38.0,2.714
-85.0,24.0,2.715
-54.0,15.0,2.716
12.0,24.0,2.717
76.0,37.0,2.718
99.0,42.0,2.719
81.0,37.0,2.72
60.0,28.0,2.721
55.0,20.0,2.722
54.0,18.0,2.723
35.0,21.0,2.724
5.0,25.0,2.725
-12.0,21.0,2.726
-12.0,9.0,2.727
-10.0,-4.0,2.728
-15.0,-16.0,2.729
-17.0,-25.0,2.73
-11.0,-22.0,2.731
-8.0,-7.0,2.732
-17.0,13.0,2.733
-29.0,23.0,2.734
-36.0,20.0,2.735
-40.0,9.0,2.736
-42.0,1.0,2.737
-43.0,-6.0,2.738
-42.0,-7.0,2.739
-50.0,-9.0,2.74
-64.0,-14.0,2.741
-62.0,-15.0,2.742
-28.0,-10.0,2.743
34.0,-1.0,2.744
96.0,1.0,2.745
131.0,-5.0,2.746
124.0,-10.0,2.747
91.0,-11.0,2.748
54.0,-10.0,2.749
27.0,-12.0,2.75
1.0,-11.0,2.751
-20.0,-7.0,2.752
-12.0,-7.0,2.753
33.0,-10.0,2.754
78.0,-9.0,2.755
84.0,-5.0,2.756
65.0,-4.0,2.757
49.0,-11.0,2.758
50.0,-17.0,2.759
47.0,-18.0,2.76
32.0,-19.0,2.761
10.0,-19.0,2.762
-27.0,-16.0,2.763
-62.0,-10.0,2.764
-90.0,-6.0,2.765
-104.0,-8.0,2.766
-74.0,-10.0,2.767
-43.0,-5.0,2.768
-8.0,12.0,2.769
20.0,37.0,2.77
25.0,50.0,2.771
30.0,38.0,2.772
36.0,10.0,2.773
17.0,-7.0,2.774
-76.0,0.0,2.775
-130.0,15.0,2.776
-62.0,15.0,2.777
11.0,1.0,2.778
51.0,-6.0,2.779
44.0,-4.0,2.78
71.0,-8.0,2.781
94.0,-16.0,2.782
29.0,-16.0,2.783
-72.0,-9.0,2.784
-73.0,-6.0,2.785
22.0,-10.0,2.786
83.0,-17.0,2.787
62.0,-16.0,2.788
41.0,-7.0,2.789
61.0,8.0,2.79
68.0,14.0,2.791
37.0,6.0,2.792
10.0,-6.0,2.793
-1.0,-13.0,2.794
-28.0,-10.0,2.795
-59.0,-4.0,2.796
-49.0,1.0,2.797
-13.0,5.0,2.798
-14.0,4.0,2.799
-57.0,0.0,2.8
-84.0,-3.0,2.801
-75.0,4.0,2.802
-70.0,12.0,2.803
-75.0,5.0,2.804
-51.0,-9.0,2.805
0.0,-15.0,2.806
39.0,-5.0,2.807
51.0,13.0,2.808
53.0,24.0,2.809
53.0,16.0,2.81
37.0,-3.0,2.811
10.0,-11.0,2.812
-13.0,-1.0,2.813
-25.0,13.0,2.814
-29.0,12.0,2.815
-19.0,1.0,2.816
0.0,-1.0,2.817
5.0,6.0,2.818
-27.0,7.0,2.819
-78.0,-6.0,2.82
-96.0,-18.0,2.821
-59.0,-18.0,2.822
10.0,-15.0,2.823
71.0,-15.0,2.824
105.0,-11.0,2.825
134.0,-5.0,2.826
169.0,-4.0,2.827
169.0,-8.0,2.828
89.0,-4.0,2.829
-34.0,4.0,2.83
-96.0,0.0,2.831
-58.0,-11.0,2.832
-1.0,-12.0,2.833
-13.0,-2.0,2.834
-79.0,10.0,2.835
-105.0,21.0,2.836
-65.0,35.0,2.837
-8.0,36.0,2.838
12.0,20.0,2.839
12.0,5.0,2.84
35.0,-4.0,2.841
62.0,-12.0,2.842
27.0,-11.0,2.843
-58.0,-10.0,2.844
-108.0,-10.0,2.845
-64.0,-9.0,2.846
21.0,-3.0,2.847
75.0,1.0,2.848
111.0,1.0,2.849
173.0,2.0,2.85
226.0,2.0,2.851
183.0,3.0,2.852
49.0,12.0,2.853
-71.0,17.0,2.854
-99.0,6.0,2.855
-63.0,-3.0,2.856
-25.0,-4.0,2.857
-6.0,-7.0,2.858
-6.0,-18.0,2.859
-24.0,-36.0,2.86
-29.0,-47.0,2.861
8.0,-41.0,2.862
56.0,-20.0,2.863
43.0,5.0,2.864
-41.0,25.0,2.865
-108.0,25.0,2.866
-89.0,13.0,2.867
-28.0,7.0,2.868
7.0,12.0,2.869
10.0,21.0,2.87
21.0,19.0,2.871
35.0,13.0,2.872
18.0,16.0,2.873
-22.0,24.0,2.874
-46.0,22.0,2.875
-35.0,9.0,2.876
-9.0,4.0,2.877
8.0,5.0,2.878
16.0,6.0,2.879
9.0,4.0,2.88
-44.0,12.0,2.881
-83.0,39.0,2.882
-80.0,61.0,2.883
-70.0,53.0,2.884
-37.0,22.0,2.885
-13.0,-12.0,2.886
-18.0,-37.0,2.887
-23.0,-56.0,2.888
-27.0,-78.0,2.889
-4.0,-99.0,2.89
101.0,-109.0,2.891
180.0,-97.0,2.892
176.0,-63.0,2.893
161.0,-22.0,2.894
117.0,1.0,2.895
64.0,4.0,2.896
-16.0,3.0,2.897
-100.0,17.0,2.898
-151.0,5.0,2.899
-118.0,-3.0,2.9
-76.0,-4.0,2.901
-58.0,-4.0,2.902
-32.0,0.0,2.903
-10.0,2.0,2.904
-37.0,0.0,2.905
-85.0,-3.0,2.906
-69.0,-7.0,2.907
5.0,-10.0,2.908
55.0,-6.0,2.909
59.0,-1.0,2.91
76.0,2.0,2.911
121.0,5.0,2.912
130.0,3.0,2.913
90.0,1.0,2.914
74.0,-3.0,2.915
123.0,-2.0,2.916
174.0,23.0,2.917
146.0,23.0,2.918
49.0,7.0,2.919
-41.0,-5.0,2.92
-80.0,-6.0,2.921
-89.0,-6.0,2.922
-98.0,0.0,2.923
-98.0,3.0,2.924
-79.0,0.0,2.925
-64.0,-4.0,2.926
-66.0,-10.0,2.927
-69.0,-14.0,2.928
-53.0,-8.0,2.929
-34.0,-2.0,2.93
-25.0,3.0,2.931
-12.0,7.0,2.932
20.0,5.0,2.933
38.0,2.0,2.934
6.0,-5.0,2.935
-45.0,-3.0,2.936
-62.0,30.0,2.937
-41.0,57.0,2.938
-17.0,46.0,2.939
-16.0,9.0,2.94
-34.0,-13.0,2.941
-74.0,-7.0,2.942
-124.0,2.0,2.943
-114.0,-5.0,2.944
9.0,-16.0,2.945
180.0,-13.0,2.946
267.0,-6.0,2.947
233.0,-6.0,2.948
166.0,-9.0,2.949
126.0,-8.0,2.95
89.0,-7.0,2.951
21.0,-13.0,2.952
-48.0,-21.0,2.953
-78.0,-19.0,2.954
-75.0,-12.0,2.955
-67.0,-13.0,2.956
-64.0,-18.0,2.957
-55.0,-20.0,2.958
-33.0,-16.0,2.959
-15.0,-9.0,2.96
-12.0,3.0,2.961
-17.0,17.0,2.962
-47.0,20.0,2.963
-60.0,6.0,2.964
-17.0,-6.0,2.965
26.0,-7.0,2.966
68.0,-2.0,2.967
104.0,1.0,2.968
119.0,7.0,2.969
125.0,14.0,2.97
103.0,15.0,2.971
75.0,6.0,2.972
32.0,-2.0,2.973
-15.0,-1.0,2.974
-73.0,2.0,2.975
-114.0,1.0,2.976
-102.0,-3.0,2.977
-88.0,-10.0,2.978
-82.0,-12.0,2.979
-77.0,-14.0,2.98
-74.0,-12.0,2.981
-74.0,-11.0,2.982
-54.0,-9.0,2.983
9.0,-4.0,2.984
86.0,9.0,2.985
117.0,18.0,2.986
97.0,12.0,2.987
64.0,8.0,2.988
35.0,8.0,2.989
2.0,8.0,2.99
-25.0,5.0,2.991
-21.0,3.0,2.992
8.0,7.0,2.993
16.0,6.0,2.994
-3.0,-7.0,2.995
-14.0,-15.0,2.996
-7.0,-1.0,2.997
-26.0,12.0,2.998
-81.0,13.0,2.999
-116.0,-2.0,3.0
-72.0,-15.0,3.001
17.0,-16.0,3.002
80.0,-16.0,3.003
94.0,-13.0,3.004
95.0,-2.0,3.005
88.0,8.0,3.006
44.0,7.0,3.007
-19.0,0.0,3.008
-40.0,3.0,3.009
1.0,14.0,3.01
48.0,15.0,3.011
65.0,6.0,3.012
85.0,-3.0,3.013
113.0,-4.0,3.014
77.0,-3.0,3.015
-58.0,-1.0,3.016
-190.0,1.0,3.017
-213.0,0.0,3.018
-118.0,-8.0,3.019
1.0,-19.0,3.02
97.0,-26.0,3.021
174.0,-19.0,3.022
209.0,-4.0,3.023
149.0,10.0,3.024
31.0,19.0,3.025
-44.0,20.0,3.026
-38.0,15.0,3.027
-25.0,0.0,3.028
-61.0,-12.0,3.029
-102.0,-17.0,3.03
-96.0,-10.0,3.031
-63.0,-2.0,3.032
-47.0,2.0,3.033
-41.0,6.0,3.034
-29.0,12.0,3.035
-18.0,14.0,3.036
-19.0,3.0,3.037
-18.0,-14.0,3.038
0.0,-22.0,3.039
10.0,-12.0,3.04
-3.0,4.0,3.041
-16.0,23.0,3.042
-32.0,35.0,3.043
-51.0,37.0,3.044
-82.0,28.0,3.045
-93.0,10.0,3.046
-43.0,-5.0,3.047
11.0,-14.0,3.048
75.0,-15.0,3.049
122.0,-11.0,3.05
120.0,-7.0,3.051
107.0,-3.0,3.052
61.0,1.0,3.053
22.0,4.0,3.054
3.0,-1.0,3.055
-10.0,-9.0,3.056
-7.0,-9.0,3.057
3.0,-8.0,3.058
39.0,-5.0,3.059
68.0,-7.0,3.06
68.0,-10.0,3.061
49.0,-11.0,3.062
30.0,-10.0,3.063
0.0,-9.0,3.064
-53.0,-3.0,3.065
-116.0,1.0,3.066
-167.0,1.0,3.067
-195.0,-4.0,3.068
-166.0,-5.0,3.069
-45.0,3.0,3.07
109.0,10.0,3.071
179.0,9.0,3.072
140.0,3.0,3.073
102.0,1.0,3.074
130.0,2.0,3.075
150.0,-1.0,3.076
115.0,-6.0,3.077
82.0,-9.0,3.078
96.0,-7.0,3.079
68.0,0.0,3.08
-69.0,-4.0,3.081
-190.0,-7.0,3.082
-152.0,-2.0,3.083
-22.0,12.0,3.084
30.0,17.0,3.085
8.0,4.0,3.086
26.0,-16.0,3.087
71.0,-28.0,3.088
25.0,-30.0,3.089
-105.0,-30.0,3.09
-182.0,-27.0,3.091
-139.0,-15.0,3.092
-56.0,10.0,3.093
3.0,32.0,3.094
45.0,37.0,3.095
78.0,27.0,3.096
77.0,18.0,3.097
37.0,18.0,3.098
-6.0,26.0,3.099
-35.0,30.0,3.1
-43.0,16.0,3.101
-13.0,-7.0,3.102
45.0,-22.0,3.103
67.0,-22.0,3.104
14.0,-12.0,3.105
-56.0,-4.0,3.106
-61.0,-4.0,3.107
-7.0,-3.0,3.108
41.0,-2.0,3.109
63.0,-8.0,3.11
70.0,-14.0,3.111
60.0,-18.0,3.112
20.0,-13.0,3.113
-27.0,-10.0,3.114
-57.0,-12.0,3.115
-75.0,-14.0,3.116
-96.0,-12.0,3.117
-97.0,-8.0,3.118
-57.0,-7.0,3.119
-20.0,-12.0,3.12
7.0,-20.0,3.121
34.0,-14.0,3.122
58.0,2.0,3.123
75.0,16.0,3.124
73.0,14.0,3.125
59.0,5.0,3.126
13.0,0.0,3.127
-20.0,2.0,3.128
-12.0,2.0,3.129
-7.0,-2.0,3.13
-16.0,-4.0,3.131
-6.0,-3.0,3.132
63.0,1.0,3.133
97.0,8.0,3.134
27.0,14.0,3.135
-21.0,14.0,3.136
0.0,11.0,3.137
22.0,5.0,3.138
13.0,2.0,3.139
-33.0,0.0,3.14
-59.0,-3.0,3.141
-67.0,-5.0,3.142
-66.0,0.0,3.143
-26.0,4.0,3.144
46.0,4.0,3.145
80.0,4.0,3.146
46.0,6.0,3.147
6.0,9.0,3.148
-2.0,9.0,3.149
-27.0,8.0,3.15
-86.0,5.0,3.151
-93.0,3.0,3.152
7.0,4.0,3.153
134.0,4.0,3.154
185.0,-5.0,3.155
152.0,-10.0,3.156
87.0,0.0,3.157
2.0,13.0,3.158
-82.0,31.0,3.159
-126.0,25.0,3.16
-111.0,4.0,3.161
-78.0,-6.0,3.162
-58.0,-7.0,3.163
-36.0,-9.0,3.164
-3.0,-10.0,3.165
14.0,-7.0,3.166
-2.0,-3.0,3.167
-27.0,-6.0,3.168
-30.0,-13.0,3.169
-2.0,-16.0,3.17
44.0,-14.0,3.171
85.0,-10.0,3.172
98.0,-6.0,3.173
76.0,-1.0,3.174
29.0,2.0,3.175
-36.0,0.0,3.176
-103.0,-3.0,3.177
-154.0,-4.0,3.178
-171.0,-2.0,3.179
-147.0,-3.0,3.18
-63.0,-11.0,3.181
102.0,-15.0,3.182
286.0,-8.0,3.183
366.0,4.0,3.184
300.0,20.0,3.185
177.0,32.0,3.186
78.0,34.0,3.187
-18.0,15.0,3.188
-125.0,-12.0,3.189
-168.0,-21.0,3.19
-108.0,-3.0,3.191
-29.0,20.0,3.192
0.0,27.0,3.193
23.0,20.0,3.194
78.0,13.0,3.195
99.0,4.0,3.196
33.0,-9.0,3.197
-59.0,-24.0,3.198
-76.0,-29.0,3.199
-41.0,-24.0,3.2
-40.0,-21.0,3.201
-74.0,-9.0,3.202
-75.0,10.0,3.203
-45.0,29.0,3.204
-40.0,32.0,3.205
-60.0,23.0,3.206
-51.0,12.0,3.207
-7.0,4.0,3.208
21.0,-6.0,3.209
21.0,-16.0,3.21
9.0,-17.0,3.211
-21.0,-7.0,3.212
-75.0,2.0,3.213
-116.0,2.0,3.214
-107.0,-2.0,3.215
-71.0,-4.0,3.216
-48.0,-1.0,3.217
-28.0,0.0,3.218
17.0,0.0,3.219
69.0,-2.0,3.22
87.0,-6.0,3.221
90.0,-9.0,3.222
126.0,-12.0,3.223
177.0,-11.0,3.224
176.0,-4.0,3.225
105.0,3.0,3.226
32.0,4.0,3.227
10.0,0.0,3.228
16.0,-7.0,3.229
3.0,-14.0,3.23
-27.0,-20.0,3.231
-43.0,-21.0,3.232
-42.0,-15.0,3.233
-49.0,-5.0,3.234
-73.0,4.0,3.235
-90.0,6.0,3.236
-72.0,3.0,3.237
-23.0,-1.0,3.238
22.0,0.0,3.239
21.0,8.0,3.24
-25.0,8.0,3.241
-72.0,1.0,3.242
-76.0,2.0,3.243
-48.0,17.0,3.244
-36.0,37.0,3.245
-52.0,40.0,3.246
-51.0,20.0,3.247
7.0,-2.0,3.248
97.0,-6.0,3.249
161.0,-1.0,3.25
183.0,0.0,3.251
198.0,-7.0,3.252
216.0,-8.0,3.253
192.0,-6.0,3.254
88.0,-6.0,3.255
-25.0,-10.0,3.256
-50.0,-10.0,3.257
16.0,-11.0,3.258
64.0,-14.0,3.259
13.0,-21.0,3.26
-76.0,-24.0,3.261
-102.0,-14.0,3.262
-69.0,2.0,3.263
-58.0,14.0,3.264
-89.0,14.0,3.265
-107.0,2.0,3.266
-90.0,-11.0,3.267
-61.0,-12.0,3.268
-34.0,-5.0,3.269
0.0,-4.0,3.27
41.0,-8.0,3.271
64.0,-3.0,3.272
55.0,11.0,3.273
20.0,19.0,3.274
-26.0,9.0,3.275
-65.0,0.0,3.276
-81.0,11.0,3.277
-91.0,32.0,3.278
-109.0,39.0,3.279
-122.0,29.0,3.28
-102.0,13.0,3.281
-76.0,4.0,3.282
-95.0,-7.0,3.283
-148.0,-18.0,3.284
-141.0,-16.0,3.285
-25.0,-3.0,3.286
151.0,4.0,3.287
315.0,-7.0,3.288
433.0,-24.0,3.289
459.0,-24.0,3.29
343.0,-6.0,3.291
126.0,18.0,3.292
-25.0,32.0,3.293
-16.0,22.0,3.294
53.0,-2.0,3.295
39.0,-18.0,3.296
-40.0,-14.0,3.297
-91.0,-7.0,3.298
-90.0,-9.0,3.299
-103.0,-21.0,3.3
-139.0,-26.0,3.301
-132.0,-19.0,3.302
-66.0,-13.0,3.303
-17.0,-11.0,3.304
-25.0,-8.0,3.305
-44.0,-9.0,3.306
-30.0,-23.0,3.307
-7.0,-31.0,3.308
-9.0,-7.0,3.309
-27.0,40.0,3.31
-40.0,70.0,3.311
-47.0,58.0,3.312
-59.0,26.0,3.313
-81.0,2.0,3.314
-117.0,-5.0,3.315
-158.0,-9.0,3.316
-166.0,-9.0,3.317
-97.0,-3.0,3.318
27.0,6.0,3.319
130.0,9.0,3.32
166.0,2.0,3.321
165.0,0.0,3.322
160.0,0.0,3.323
128.0,-10.0,3.324
51.0,-23.0,3.325
-28.0,-31.0,3.326
-50.0,-24.0,3.327
-24.0,-5.0,3.328
-11.0,15.0,3.329
-27.0,29.0,3.33
-21.0,20.0,3.331
37.0,-4.0,3.332
97.0,-21.0,3.333
80.0,-17.0,3.334
0.0,-7.0,3.335
-39.0,-10.0,3.336
16.0,-18.0,3.337
108.0,-16.0,3.338
129.0,5.0,3.339
68.0,26.0,3.34
10.0,27.0,3.341
-2.0,13.0,3.342
-1.0,0.0,3.343
-5.0,-8.0,3.344
9.0,-7.0,3.345
37.0,-1.0,3.346
35.0,0.0,3.347
-7.0,-7.0,3.348
-42.0,-18.0,3.349
-36.0,-24.0,3.35
-12.0,-15.0,3.351
-9.0,0.0,3.352
-35.0,12.0,3.353
-69.0,16.0,3.354
-89.0,11.0,3.355
-80.0,7.0,3.356
-48.0,6.0,3.357
-12.0,6.0,3.358
7.0,11.0,3.359
8.0,18.0,3.36
1.0,21.0,3.361
-6.0,18.0,3.362
-15.0,12.0,3.363
-21.0,4.0,3.364
-25.0,-3.0,3.365
-37.0,-5.0,3.366
-54.0,-1.0,3.367
-66.0,1.0,3.368
-58.0,-4.0,3.369
-14.0,-10.0,3.37
74.0,-4.0,3.371
169.0,12.0,3.372
193.0,16.0,3.373
118.0,4.0,3.374
22.0,-6.0,3.375
0.0,-5.0,3.376
31.0,0.0,3.377
20.0,-6.0,3.378
-53.0,-18.0,3.379
-111.0,-25.0,3.38
-101.0,-28.0,3.381
-72.0,-25.0,3.382
-69.0,-16.0,3.383
-61.0,-4.0,3.384
-5.0,1.0,3.385
74.0,-9.0,3.386
106.0,-27.0,3.387
74.0,-35.0,3.388
24.0,-30.0,3.389
10.0,-20.0,3.39
50.0,-9.0,3.391
98.0,5.0,3.392
91.0,15.0,3.393
14.0,14.0,3.394
-74.0,10.0,3.395
-111.0,25.0,3.396
-102.0,50.0,3.397
-87.0,54.0,3.398
-89.0,28.0,3.399
-89.0,-1.0,3.4
-57.0,-10.0,3.401
2.0,-5.0,3.402
31.0,-7.0,3.403
-23.0,-18.0,3.404
-115.0,-14.0,3.405
-97.0,0.0,3.406
89.0,12.0,3.407
300.0,10.0,3.408
365.0,7.0,3.409
317.0,6.0,3.41
297.0,7.0,3.411
297.0,9.0,3.412
187.0,11.0,3.413
-6.0,8.0,3.414
-102.0,-2.0,3.415
-62.0,-9.0,3.416
-39.0,-10.0,3.417
-120.0,-15.0,3.418
-203.0,-28.0,3.419
-195.0,-38.0,3.42
-152.0,-36.0,3.421
-142.0,-26.0,3.422
-132.0,-18.0,3.423
-95.0,-11.0,3.424
-83.0,3.0,3.425
-114.0,26.0,3.426
-118.0,42.0,3.427
-61.0,37.0,3.428
1.0,12.0,3.429
35.0,-8.0,3.43
84.0,10.0,3.431
143.0,61.0,3.432
130.0,90.0,3.433
30.0,60.0,3.434
-51.0,3.0,3.435
-41.0,-22.0,3.436
-5.0,-10.0,3.437
-16.0,-2.0,3.438
-42.0,-16.0,3.439
-20.0,-28.0,3.44
28.0,-23.0,3.441
41.0,-16.0,3.442
26.0,-25.0,3.443
22.0,-35.0,3.444
26.0,-28.0,3.445
4.0,-10.0,3.446
-23.0,2.0,3.447
-19.0,4.0,3.448
12.0,-3.0,3.449
31.0,-11.0,3.45
32.0,-15.0,3.451
27.0,-2.0,3.452
15.0,19.0,3.453
-16.0,24.0,3.454
-49.0,5.0,3.455
-59.0,-10.0,3.456
-40.0,-8.0,3.457
-10.0,-3.0,3.458
19.0,-7.0,3.459
41.0,-14.0,3.46
49.0,-13.0,3.461
42.0,-6.0,3.462
31.0,-7.0,3.463
19.0,-9.0,3.464
-2.0,0.0,3.465
-35.0,14.0,3.466
-65.0,15.0,3.467
-87.0,2.0,3.468
-98.0,-7.0,3.469
-98.0,-4.0,3.47
-96.0,1.0,3.471
-117.0,-1.0,3.472
-153.0,-6.0,3.473
-131.0,-5.0,3.474
5.0,0.0,3.475
199.0,0.0,3.476
334.0,-3.0,3.477
382.0,-3.0,3.478
382.0,4.0,3.479
340.0,13.0,3.48
168.0,11.0,3.481
26.0,3.0,3.482
-25.0,-4.0,3.483
-40.0,-5.0,3.484
56.0,1.0,3.485
101.0,10.0,3.486
-7.0,11.0,3.487
-100.0,2.0,3.488
-152.0,-7.0,3.489
-179.0,-14.0,3.49
-130.0,-13.0,3.491
-81.0,-8.0,3.492
-32.0,-3.0,3.493
-6.0,-3.0,3.494
-50.0,-8.0,3.495
-85.0,-14.0,3.496
-90.0,-12.0,3.497
-77.0,3.0,3.498
-4.0,38.0,3.499
35.0,68.0,3.5
30.0,60.0,3.501
12.0,16.0,3.502
-20.0,-25.0,3.503
-106.0,-23.0,3.504
-214.0,8.0,3.505
-230.0,27.0,3.506
-111.0,13.0,3.507
55.0,-9.0,3.508
180.0,-13.0,3.509
266.0,-6.0,3.51
313.0,-5.0,3.511
262.0,-12.0,3.512
117.0,-14.0,3.513
6.0,-2.0,3.514
13.0,15.0,3.515
51.0,15.0,3.516
12.0,-3.0,3.517
-74.0,-28.0,3.518
-96.0,-31.0,3.519
-58.0,-9.0,3.52
-54.0,10.0,3.521
-103.0,15.0,3.522
-127.0,6.0,3.523
-102.0,-4.0,3.524
-78.0,-4.0,3.525
-65.0,7.0,3.526
-22.0,21.0,3.527
41.0,22.0,3.528
67.0,14.0,3.529
45.0,19.0,3.53
13.0,38.0,3.531
-6.0,52.0,3.532
-13.0,36.0,3.533
-6.0,5.0,3.534
6.0,-8.0,3.535
2.0,-6.0,3.536
-14.0,-8.0,3.537
-14.0,-34.0,3.538
10.0,-56.0,3.539
22.0,-55.0,3.54
7.0,-41.0,3.541
-1.0,-27.0,3.542
16.0,-12.0,3.543
34.0,10.0,3.544
30.0,37.0,3.545
17.0,54.0,3.546
16.0,61.0,3.547
17.0,67.0,3.548
4.0,64.0,3.549
-9.0,37.0,3.55
-9.0,-8.0,3.551
-1.0,-49.0,3.552
-2.0,-70.0,3.553
-9.0,-85.0,3.554
-12.0,-109.0,3.555
-14.0,-130.0,3.556
-14.0,-135.0,3.557
-13.0,-131.0,3.558
-10.0,-137.0,3.559
-13.0,-146.0,3.56
-23.0,-132.0,3.561
-22.0,-80.0,3.562
-1.0,-29.0,3.563
28.0,-3.0,3.564
51.0,10.0,3.565
60.0,31.0,3.566
53.0,53.0,3.567
17.0,62.0,3.568
-44.0,63.0,3.569
-99.0,63.0,3.57
-107.0,67.0,3.571
-68.0,64.0,3.572
-3.0,54.0,3.573
69.0,51.0,3.574
137.0,51.0,3.575
175.0,50.0,3.576
174.0,46.0,3.577
140.0,45.0,3.578
93.0,45.0,3.579
34.0,43.0,3.58
-22.0,36.0,3.581
-41.0,33.0,3.582
-18.0,36.0,3.583
-2.0,43.0,3.584
-19.0,51.0,3.585
-38.0,56.0,3.586
-30.0,52.0,3.587
-18.0,41.0,3.588
-22.0,32.0,3.589
-29.0,26.0,3.59
-21.0,20.0,3.591
-14.0,8.0,3.592
-19.0,-10.0,3.593
-21.0,-29.0,3.594
-13.0,-37.0,3.595
-8.0,-30.0,3.596
-15.0,-7.0,3.597
-20.0,17.0,3.598
-11.0,32.0,3.599
-2.0,29.0,3.6
-8.0,10.0,3.601
-15.0,-3.0,3.602
-7.0,-5.0,3.603
2.0,0.0,3.604
1.0,-4.0,3.605
-4.0,-20.0,3.606
-1.0,-36.0,3.607
2.0,-46.0,3.608
-5.0,-53.0,3.609
-22.0,-55.0,3.61
-48.0,-49.0,3.611
-76.0,-40.0,3.612
-91.0,-34.0,3.613
-72.0,-32.0,3.614
-29.0,-30.0,3.615
2.0,-25.0,3.616
16.0,-19.0,3.617
49.0,-13.0,3.618
128.0,-5.0,3.619
195.0,3.0,3.62
171.0,6.0,3.621
74.0,9.0,3.622
6.0,13.0,3.623
15.0,18.0,3.624
38.0,22.0,3.625
18.0,30.0,3.626
-10.0,36.0,3.627
-6.0,35.0,3.628
5.0,32.0,3.629
-11.0,34.0,3.63
-32.0,39.0,3.631
-26.0,35.0,3.632
-13.0,20.0,3.633
-21.0,3.0,3.634
-32.0,-16.0,3.635
-25.0,-40.0,3.636
-11.0,-61.0,3.637
-12.0,-71.0,3.638
-16.0,-67.0,3.639
-10.0,-56.0,3.64
-4.0,-38.0,3.641
-8.0,-3.0,3.642
-12.0,35.0,3.643
-3.0,51.0,3.644
0.0,37.0,3.645
-11.0,15.0,3.646
-19.0,7.0,3.647
-13.0,14.0,3.648
-6.0,18.0,3.649
-5.0,12.0,3.65
-6.0,2.0,3.651
-3.0,-2.0,3.652
-6.0,-3.0,3.653
-13.0,-7.0,3.654
-14.0,-12.0,3.655
-7.0,-11.0,3.656
-3.0,-7.0,3.657
-4.0,-5.0,3.658
-1.0,-6.0,3.659
11.0,-8.0,3.66
21.0,-8.0,3.661
22.0,-7.0,3.662
25.0,-6.0,3.663
35.0,-3.0,3.664
41.0,2.0,3.665
38.0,9.0,3.666
28.0,6.0,3.667
19.0,2.0,3.668
9.0,6.0,3.669
0.0,17.0,3.67
-5.0,31.0,3.671
-6.0,40.0,3.672
-7.0,51.0,3.673
-6.0,66.0,3.674
-1.0,83.0,3.675
1.0,98.0,3.676
2.0,104.0,3.677
3.0,85.0,3.678
10.0,41.0,3.679
14.0,-16.0,3.68
8.0,-67.0,3.681
-2.0,-96.0,3.682
-3.0,-111.0,3.683
7.0,-129.0,3.684
13.0,-154.0,3.685
5.0,-164.0,3.686
-3.0,-143.0,3.687
-5.0,-99.0,3.688
-3.0,-56.0,3.689
-4.0,-30.0,3.69
-4.0,-11.0,3.691
4.0,10.0,3.692
12.0,26.0,3.693
15.0,31.0,3.694
17.0,26.0,3.695
17.0,23.0,3.696
15.0,22.0,3.697
6.0,10.0,3.698
1.0,-3.0,3.699
0.0,0.0,3.7
-5.0,23.0,3.701
-12.0,49.0,3.702
-11.0,51.0,3.703
-1.0,27.0,3.704
6.0,4.0,3.705
0.0,0.0,3.706
-9.0,0.0,3.707
-11.0,-3.0,3.708
-4.0,-3.0,3.709
-2.0,6.0,3.71
-8.0,12.0,3.711
-14.0,-1.0,3.712
-10.0,-16.0,3.713
4.0,-25.0,3.714
18.0,-30.0,3.715
20.0,-34.0,3.716
16.0,-25.0,3.717
7.0,-2.0,3.718
8.0,22.0,3.719
14.0,26.0,3.72
18.0,17.0,3.721
16.0,16.0,3.722
-1.0,23.0,3.723
-35.0,28.0,3.724
-80.0,30.0,3.725
-104.0,29.0,3.726
-83.0,29.0,3.727
-18.0,27.0,3.728
54.0,27.0,3.729
104.0,27.0,3.73
115.0,22.0,3.731
85.0,17.0,3.732
41.0,14.0,3.733
21.0,18.0,3.734
36.0,21.0,3.735
55.0,17.0,3.736
46.0,11.0,3.737
15.0,5.0,3.738
-16.0,2.0,3.739
-40.0,-1.0,3.74
-54.0,-8.0,3.741
-53.0,-12.0,3.742
-34.0,-10.0,3.743
-17.0,-5.0,3.744
-14.0,1.0,3.745
-24.0,4.0,3.746
-44.0,2.0,3.747
-70.0,3.0,3.748
-85.0,11.0,3.749
-67.0,18.0,3.75
-28.0,17.0,3.751
0.0,9.0,3.752
7.0,-4.0,3.753
8.0,-16.0,3.754
15.0,-24.0,3.755
19.0,-23.0,3.756
20.0,-16.0,3.757
20.0,-13.0,3.758
25.0,-12.0,3.759
28.0,-8.0,3.76
24.0,-5.0,3.761
21.0,0.0,3.762
27.0,3.0,3.763
31.0,4.0,3.764
27.0,5.0,3.765
23.0,2.0,3.766
21.0,-4.0,3.767
20.0,-7.0,3.768
19.0,-3.0,3.769
18.0,3.0,3.77
17.0,4.0,3.771
15.0,1.0,3.772
12.0,-2.0,3.773
9.0,-4.0,3.774
10.0,-7.0,3.775
11.0,-11.0,3.776
9.0,-12.0,3.777
7.0,-11.0,3.778
1.0,-9.0,3.779
-3.0,-7.0,3.78
-4.0,-9.0,3.781
0.0,-12.0,3.782
10.0,-12.0,3.783
20.0,-10.0,3.784
22.0,-4.0,3.785
16.0,0.0,3.786
9.0,-1.0,3.787
8.0,-2.0,3.788
9.0,-2.0,3.789
0.0,-1.0,3.79
-15.0,0.0,3.791
-28.0,1.0,3.792
-27.0,-2.0,3.793
-18.0,-4.0,3.794
-8.0,-1.0,3.795
-8.0,2.0,3.796
-13.0,2.0,3.797
-13.0,1.0,3.798
-4.0,-5.0,3.799
0.0,-8.0,3.8
-1.0,-6.0,3.801
-4.0,0.0,3.802
1.0,2.0,3.803
10.0,4.0,3.804
7.0,4.0,3.805
-1.0,3.0,3.806
-2.0,-1.0,3.807
5.0,-6.0,3.808
8.0,-7.0,3.809
3.0,-3.0,3.81
2.0,1.0,3.811
8.0,2.0,3.812
10.0,5.0,3.813
7.0,9.0,3.814
5.0,11.0,3.815
6.0,8.0,3.816
9.0,3.0,3.817
6.0,-2.0,3.818
3.0,0.0,3.819
1.0,3.0,3.82
-2.0,0.0,3.821
-12.0,-5.0,3.822
-25.0,-8.0,3.823
-46.0,-7.0,3.824
-72.0,-5.0,3.825
-84.0,-4.0,3.826
-57.0,-1.0,3.827
7.0,1.0,3.828
74.0,2.0,3.829
110.0,0.0,3.83
100.0,2.0,3.831
59.0,6.0,3.832
9.0,5.0,3.833
-19.0,-1.0,3.834
-12.0,-5.0,3.835
15.0,0.0,3.836
34.0,4.0,3.837
42.0,-2.0,3.838
58.0,-8.0,3.839
65.0,-4.0,3.84
45.0,0.0,3.841
26.0,-5.0,3.842
10.0,-14.0,3.843
-3.0,-15.0,3.844
-1.0,-6.0,3.845
0.0,1.0,3.846
2.0,0.0,3.847
4.0,-3.0,3.848
2.0,1.0,3.849
-2.0,10.0,3.85
-12.0,13.0,3.851
-20.0,8.0,3.852
-20.0,0.0,3.853
-24.0,-2.0,3.854
-39.0,1.0,3.855
-52.0,4.0,3.856
-58.0,5.0,3.857
-72.0,4.0,3.858
-120.0,5.0,3.859
-181.0,5.0,3.86
-222.0,0.0,3.861
-204.0,-2.0,3.862
-113.0,-3.0,3.863
5.0,-4.0,3.864
101.0,-6.0,3.865
160.0,1.0,3.866
201.0,18.0,3.867
227.0,31.0,3.868
223.0,26.0,3.869
188.0,8.0,3.87
119.0,-7.0,3.871
14.0,-13.0,3.872
-85.0,-10.0,3.873
-107.0,-7.0,3.874
-46.0,-7.0,3.875
28.0,-9.0,3.876
69.0,-11.0,3.877
108.0,-17.0,3.878
150.0,-19.0,3.879
148.0,-17.0,3.88
80.0,-12.0,3.881
2.0,-13.0,3.882
-32.0,-21.0,3.883
-46.0,-20.0,3.884
-69.0,0.0,3.885
-81.0,18.0,3.886
-66.0,15.0,3.887
-55.0,-2.0,3.888
-71.0,-2.0,3.889
-87.0,18.0,3.89
-78.0,34.0,3.891
-65.0,32.0,3.892
-64.0,17.0,3.893
-56.0,1.0,3.894
-31.0,-14.0,3.895
-4.0,-20.0,3.896
10.0,-13.0,3.897
16.0,1.0,3.898
15.0,12.0,3.899
-3.0,16.0,3.9
-23.0,19.0,3.901
-19.0,21.0,3.902
5.0,11.0,3.903
16.0,-3.0,3.904
10.0,-8.0,3.905
9.0,-4.0,3.906
17.0,-7.0,3.907
15.0,-20.0,3.908
2.0,-27.0,3.909
-7.0,-22.0,3.91
-17.0,-12.0,3.911
-41.0,-7.0,3.912
-92.0,-8.0,3.913
-155.0,-6.0,3.914
-197.0,0.0,3.915
-166.0,7.0,3.916
-58.0,14.0,3.917
76.0,14.0,3.918
140.0,6.0,3.919
125.0,0.0,3.92
116.0,-3.0,3.921
149.0,0.0,3.922
161.0,-1.0,3.923
120.0,-2.0,3.924
99.0,0.0,3.925
152.0,4.0,3.926
205.0,1.0,3.927
154.0,-1.0,3.928
31.0,1.0,3.929
-48.0,6.0,3.93
-40.0,7.0,3.931
-7.0,4.0,3.932
11.0,2.0,3.933
26.0,-1.0,3.934
32.0,-9.0,3.935
1.0,-20.0,3.936
-38.0,-29.0,3.937
-41.0,-34.0,3.938
-22.0,-35.0,3.939
-44.0,-30.0,3.94
-94.0,-15.0,3.941
-83.0,13.0,3.942
15.0,50.0,3.943
104.0,84.0,3.944
109.0,99.0,3.945
69.0,85.0,3.946
45.0,45.0,3.947
29.0,4.0,3.948
-17.0,-17.0,3.949
-73.0,-19.0,3.95
-92.0,-11.0,3.951
-80.0,-1.0,3.952
-70.0,1.0,3.953
-71.0,-19.0,3.954
-68.0,-54.0,3.955
-57.0,-69.0,3.956
-46.0,-48.0,3.957
-45.0,-14.0,3.958
-43.0,1.0,3.959
-42.0,-2.0,3.96
-38.0,-5.0,3.961
-31.0,-3.0,3.962
-22.0,-9.0,3.963
-14.0,-16.0,3.964
-6.0,-9.0,3.965
0.0,5.0,3.966
4.0,12.0,3.967
5.0,12.0,3.968
5.0,15.0,3.969
6.0,15.0,3.97
8.0,9.0,3.971
11.0,10.0,3.972
13.0,37.0,3.973
12.0,68.0,3.974
6.0,61.0,3.975
0.0,19.0,3.976
1.0,-18.0,3.977
6.0,-23.0,3.978
7.0,-5.0,3.979
1.0,-8.0,3.98
-2.0,-49.0,3.981
5.0,-89.0,3.982
17.0,-93.0,3.983
21.0,-74.0,3.984
19.0,-66.0,3.985
19.0,-74.0,3.986
23.0,-66.0,3.987
26.0,-37.0,3.988
23.0,-3.0,3.989
18.0,18.0,3.99
16.0,29.0,3.991
18.0,37.0,3.992
21.0,36.0,3.993
24.0,32.0,3.994
25.0,27.0,3.995
23.0,26.0,3.996
19.0,23.0,3.997
10.0,17.0,3.998
0.0,16.0,3.999
-4.0,20.0,4.0
0.0,19.0,4.001
5.0,19.0,4.002
10.0,20.0,4.003
12.0,18.0,4.004
10.0,14.0,4.005
6.0,12.0,4.006
3.0,11.0,4.007
3.0,11.0,4.008
3.0,13.0,4.009
0.0,15.0,4.01
-3.0,12.0,4.011
0.0,3.0,4.012
9.0,-1.0,4.013
12.0,0.0,4.014
6.0,-1.0,4.015
0.0,-15.0,4.016
1.0,-36.0,4.017
1.0,-48.0,4.018
0.0,-38.0,4.019
-3.0,-15.0,4.02
-7.0,-1.0,4.021
-14.0,0.0,4.022
-16.0,0.0,4.023
-13.0,6.0,4.024
-13.0,18.0,4.025
-20.0,21.0,4.026
-23.0,14.0,4.027
-11.0,7.0,4.028
6.0,6.0,4.029
12.0,0.0,4.03
7.0,-11.0,4.031
1.0,-13.0,4.032
-1.0,1.0,4.033
-6.0,17.0,4.034
-6.0,15.0,4.035
2.0,5.0,4.036
14.0,3.0,4.037
13.0,5.0,4.038
9.0,4.0,4.039
7.0,1.0,4.04
15.0,-3.0,4.041
20.0,-5.0,4.042
14.0,-7.0,4.043
10.0,-6.0,4.044
11.0,0.0,4.045
12.0,0.0,4.046
13.0,-11.0,4.047
12.0,-14.0,4.048
6.0,-2.0,4.049
0.0,11.0,4.05
-5.0,7.0,4.051
-10.0,-7.0,4.052
-9.0,-12.0,4.053
-8.0,-7.0,4.054
-8.0,-1.0,4.055
-7.0,2.0,4.056
-11.0,6.0,4.057
-13.0,5.0,4.058
-13.0,0.0,4.059
-14.0,-4.0,4.06
-14.0,-4.0,4.061
-9.0,0.0,4.062
2.0,3.0,4.063
16.0,6.0,4.064
25.0,12.0,4.065
28.0,15.0,4.066
31.0,11.0,4.067
34.0,3.0,4.068
35.0,-2.0,4.069
28.0,-8.0,4.07
11.0,-12.0,4.071
-12.0,-15.0,4.072
-23.0,-15.0,4.073
-17.0,-17.0,4.074
-1.0,-18.0,4.075
12.0,-18.0,4.076
24.0,-15.0,4.077
40.0,-13.0,4.078
50.0,-10.0,4.079
42.0,-6.0,4.08
25.0,-4.0,4.081
0.0,-5.0,4.082
-38.0,-6.0,4.083
-84.0,-2.0,4.084
-98.0,8.0,4.085
-59.0,13.0,4.086
-3.0,10.0,4.087
16.0,4.0,4.088
0.0,5.0,4.089
-4.0,14.0,4.09
15.0,21.0,4.091
28.0,13.0,4.092
20.0,-2.0,4.093
9.0,-10.0,4.094
3.0,-4.0,4.095
-5.0,13.0,4.096
-18.0,28.0,4.097
-15.0,28.0,4.098
9.0,20.0,4.099
28.0,20.0,4.1
24.0,31.0,4.101
15.0,28.0,4.102
20.0,-16.0,4.103
29.0,-80.0,4.104
16.0,-103.0,4.105
-10.0,-65.0,4.106
-19.0,-15.0,4.107
-5.0,-4.0,4.108
8.0,-18.0,4.109
5.0,-13.0,4.11
-3.0,11.0,4.111
-11.0,22.0,4.112
-14.0,9.0,4.113
-9.0,4.0,4.114
0.0,11.0,4.115
6.0,8.0,4.116
4.0,-7.0,4.117
-1.0,-15.0,4.118
8.0,1.0,4.119
16.0,19.0,4.12
16.0,12.0,4.121
16.0,7.0,4.122
21.0,20.0,4.123
20.0,31.0,4.124
2.0,16.0,4.125
-11.0,-7.0,4.126
-13.0,-7.0,4.127
-12.0,11.0,4.128
1.0,16.0,4.129
11.0,-2.0,4.13
3.0,-23.0,4.131
-3.0,-31.0,4.132
1.0,-27.0,4.133
5.0,-19.0,4.134
10.0,-8.0,4.135
16.0,1.0,4.136
20.0,4.0,4.137
23.0,1.0,4.138
18.0,6.0,4.139
6.0,10.0,4.14
-7.0,12.0,4.141
-14.0,13.0,4.142
-9.0,11.0,4.143
-2.0,8.0,4.144
-6.0,1.0,4.145
-17.0,-5.0,4.146
-14.0,-9.0,4.147
1.0,-11.0,4.148
10.0,-4.0,4.149
0.0,1.0,4.15
-17.0,1.0,4.151
-22.0,0.0,4.152
-14.0,2.0,4.153
1.0,6.0,4.154
12.0,10.0,4.155
13.0,12.0,4.156
6.0,8.0,4.157
3.0,3.0,4.158
13.0,0.0,4.159
22.0,-5.0,4.16
21.0,-17.0,4.161
12.0,-17.0,4.162
8.0,-1.0,4.163
9.0,12.0,4.164
1.0,10.0,4.165
-15.0,-3.0,4.166
-17.0,-6.0,4.167
3.0,0.0,4.168
25.0,-1.0,4.169
22.0,-5.0,4.17
0.0,-6.0,4.171
-11.0,-7.0,4.172
-3.0,-12.0,4.173
0.0,-15.0,4.174
-12.0,-3.0,4.175
-17.0,9.0,4.176
0.0,8.0,4.177
19.0,0.0,4.178
19.0,4.0,4.179
4.0,18.0,4.18
2.0,18.0,4.181
9.0,5.0,4.182
6.0,-4.0,4.183
-2.0,-2.0,4.184
1.0,2.0,4.185
15.0,2.0,4.186
28.0,-3.0,4.187
38.0,-6.0,4.188
40.0,-5.0,4.189
20.0,0.0,4.19
-25.0,4.0,4.191
-71.0,1.0,4.192
-94.0,1.0,4.193
-88.0,7.0,4.194
-55.0,10.0,4.195
2.0,6.0,4.196
56.0,2.0,4.197
73.0,8.0,4.198
46.0,20.0,4.199
13.0,24.0,4.2
5.0,14.0,4.201
13.0,0.0,4.202
19.0,-13.0,4.203
24.0,-19.0,4.204
20.0,-13.0,4.205
-10.0,-2.0,4.206
-45.0,-1.0,4.207
-47.0,-10.0,4.208
-12.0,-17.0,4.209
25.0,-11.0,4.21
42.0,0.0,4.211
45.0,8.0,4.212
41.0,4.0,4.213
28.0,-19.0,4.214
5.0,-47.0,4.215
-16.0,-48.0,4.216
-29.0,-18.0,4.217
-32.0,12.0,4.218
-16.0,11.0,4.219
4.0,-1.0,4.22
12.0,0.0,4.221
6.0,14.0,4.222
15.0,14.0,4.223
41.0,9.0,4.224
59.0,18.0,4.225
58.0,23.0,4.226
50.0,7.0,4.227
40.0,-7.0,4.228
3.0,-1.0,4.229
-64.0,13.0,4.23
-119.0,7.0,4.231
-122.0,-10.0,4.232
-86.0,-13.0,4.233
-43.0,-6.0,4.234
-18.0,-9.0,4.235
-4.0,-17.0,4.236
6.0,-14.0,4.237
20.0,0.0,4.238
36.0,13.0,4.239
44.0,13.0,4.24
40.0,0.0,4.241
37.0,-7.0,4.242
50.0,-11.0,4.243
80.0,-14.0,4.244
106.0,-15.0,4.245
109.0,-9.0,4.246
91.0,7.0,4.247
57.0,24.0,4.248
3.0,20.0,4.249
-79.0,-9.0,4.25
-157.0,-47.0,4.251
-164.0,-61.0,4.252
-87.0,-37.0,4.253
-4.0,-2.0,4.254
0.0,9.0,4.255
-57.0,-4.0,4.256
-88.0,-12.0,4.257
-64.0,-1.0,4.258
-17.0,17.0,4.259
35.0,25.0,4.26
101.0,22.0,4.261
158.0,28.0,4.262
185.0,34.0,4.263
183.0,35.0,4.264
90.0,45.0,4.265
-8.0,65.0,4.266
-121.0,70.0,4.267
-204.0,40.0,4.268
-193.0,-9.0,4.269
-161.0,-50.0,4.27
-69.0,-71.0,4.271
12.0,-73.0,4.272
62.0,-57.0,4.273
99.0,-34.0,4.274
93.0,-22.0,4.275
75.0,-17.0,4.276
20.0,1.0,4.277
-22.0,22.0,4.278
-36.0,22.0,4.279
-125.0,22.0,4.28
-274.0,18.0,4.281
-359.0,16.0,4.282
-296.0,20.0,4.283
-133.0,19.0,4.284
37.0,-1.0,4.285
172.0,-20.0,4.286
261.0,-35.0,4.287
297.0,-45.0,4.288
308.0,-37.0,4.289
336.0,-22.0,4.29
368.0,11.0,4.291
317.0,35.0,4.292
155.0,26.0,4.293
-14.0,17.0,4.294
-83.0,7.0,4.295
-72.0,3.0,4.296
-76.0,16.0,4.297
-110.0,29.0,4.298
-116.0,28.0,4.299
-83.0,7.0,4.3
-66.0,-12.0,4.301
-81.0,-14.0,4.302
-80.0,-11.0,4.303
-42.0,-17.0,4.304
-9.0,-29.0,4.305
-9.0,-34.0,4.306
-15.0,-20.0,4.307
1.0,6.0,4.308
20.0,26.0,4.309
25.0,23.0,4.31
33.0,23.0,4.311
57.0,46.0,4.312
70.0,65.0,4.313
43.0,43.0,4.314
-3.0,-1.0,4.315
-35.0,-20.0,4.316
-54.0,-12.0,4.317
-87.0,-18.0,4.318
-128.0,-41.0,4.319
-147.0,-40.0,4.32
-121.0,-13.0,4.321
-57.0,-2.0,4.322
-7.0,-20.0,4.323
-44.0,-23.0,4.324
-177.0,10.0,4.325
-290.0,37.0,4.326
-247.0,24.0,4.327
-78.0,2.0,4.328
57.0,5.0,4.329
78.0,23.0,4.33
100.0,31.0,4.331
254.0,32.0,4.332
480.0,26.0,4.333
578.0,5.0,4.334
434.0,-16.0,4.335
164.0,-17.0,4.336
-19.0,-8.0,4.337
-43.0,-22.0,4.338
21.0,-57.0,4.339
66.0,-67.0,4.34
76.0,-40.0,4.341
66.0,-12.0,4.342
-6.0,-10.0,4.343
-174.0,-13.0,4.344
-354.0,-5.0,4.345
-413.0,2.0,4.346
-328.0,-2.0,4.347
-187.0,0.0,4.348
-62.0,10.0,4.349
38.0,0.0,4.35
101.0,-32.0,4.351
112.0,-42.0,4.352
94.0,-2.0,4.353
81.0,58.0,4.354
69.0,85.0,4.355
29.0,70.0,4.356
-28.0,53.0,4.357
-92.0,48.0,4.358
-148.0,47.0,4.359
-174.0,32.0,4.36
-134.0,4.0,4.361
-32.0,-17.0,4.362
67.0,-35.0,4.363
107.0,-47.0,4.364
101.0,-46.0,4.365
72.0,-39.0,4.366
16.0,-43.0,4.367
-42.0,-50.0,4.368
-31.0,-33.0,4.369
37.0,10.0,4.37
35.0,45.0,4.371
-110.0,55.0,4.372
-275.0,49.0,4.373
-269.0,29.0,4.374
-69.0,-15.0,4.375
152.0,-64.0,4.376
244.0,-77.0,4.377
206.0,-46.0,4.378
146.0,-4.0,4.379
155.0,17.0,4.38
218.0,25.0,4.381
253.0,24.0,4.382
217.0,2.0,4.383
133.0,-30.0,4.384
23.0,-26.0,4.385
-110.0,24.0,4.386
-216.0,77.0,4.387
-219.0,77.0,4.388
-137.0,24.0,4.389
-99.0,-38.0,4.39
-157.0,-70.0,4.391
-182.0,-61.0,4.392
-45.0,-41.0,4.393
176.0,-32.0,4.394
285.0,-15.0,4.395
217.0,33.0,4.396
90.0,87.0,4.397
0.0,96.0,4.398
-26.0,54.0,4.399
10.0,4.0,4.4
125.0,-29.0,4.401
270.0,-54.0,4.402
319.0,-73.0,4.403
221.0,-57.0,4.404
96.0,12.0,4.405
80.0,113.0,4.406
117.0,191.0,4.407
38.0,179.0,4.408
-183.0,60.0,4.409
-351.0,-97.0,4.41
-311.0,-198.0,4.411
-149.0,-212.0,4.412
-69.0,-174.0,4.413
-133.0,-114.0,4.414
-227.0,-44.0,4.415
-256.0,-1.0,4.416
-245.0,-6.0,4.417
-226.0,-23.0,4.418
-160.0,0.0,4.419
-1.0,43.0,4.42
178.0,60.0,4.421
215.0,70.0,4.422
20.0,105.0,4.423
-305.0,121.0,4.424
-523.0,64.0,4.425
-480.0,-22.0,4.426
-262.0,-62.0,4.427
-69.0,-67.0,4.428
36.0,-79.0,4.429
176.0,-60.0,4.43
431.0,34.0,4.431
662.0,125.0,4.432
659.0,103.0,4.433
394.0,9.0,4.434
62.0,-23.0,4.435
-117.0,30.0,4.436
-100.0,81.0,4.437
0.0,72.0,4.438
56.0,49.0,4.439
60.0,42.0,4.44
87.0,34.0,4.441
142.0,12.0,4.442
132.0,-11.0,4.443
46.0,-22.0,4.444
-23.0,-33.0,4.445
-34.0,-59.0,4.446
-62.0,-97.0,4.447
-129.0,-122.0,4.448
-149.0,-116.0,4.449
-75.0,-95.0,4.45
0.0,-86.0,4.451
18.0,-68.0,4.452
46.0,-11.0,4.453
137.0,55.0,4.454
186.0,48.0,4.455
93.0,-22.0,4.456
-60.0,-54.0,4.457
-139.0,-3.0,4.458
-113.0,56.0,4.459
-89.0,57.0,4.46
-156.0,40.0,4.461
-266.0,72.0,4.462
-296.0,114.0,4.463
-195.0,101.0,4.464
-56.0,56.0,4.465
-8.0,37.0,4.466
-48.0,23.0,4.467
-48.0,-31.0,4.468
48.0,-94.0,4.469
151.0,-89.0,4.47
181.0,-14.0,4.471
183.0,42.0,4.472
209.0,22.0,4.473
214.0,-43.0,4.474
150.0,-76.0,4.475
71.0,-41.0,4.476
17.0,23.0,4.477
-81.0,58.0,4.478
-245.0,45.0,4.479
-346.0,9.0,4.48
-260.0,-29.0,4.481
-76.0,-77.0,4.482
-2.0,-114.0,4.483
-92.0,-93.0,4.484
-217.0,-10.0,4.485
-224.0,69.0,4.486
-70.0,101.0,4.487
189.0,109.0,4.488
398.0,109.0,4.489
401.0,79.0,4.49
229.0,21.0,4.491
111.0,-7.0,4.492
208.0,6.0,4.493
414.0,5.0,4.494
498.0,-35.0,4.495
387.0,-62.0,4.496
208.0,-43.0,4.497
56.0,-13.0,4.498
-49.0,-12.0,4.499
-129.0,-19.0,4.5
-169.0,-13.0,4.501
-130.0,-6.0,4.502
-41.0,-20.0,4.503
-12.0,-39.0,4.504
-96.0,-37.0,4.505
-217.0,-23.0,4.506
-269.0,-8.0,4.507
-283.0,8.0,4.508
-348.0,24.0,4.509
-425.0,27.0,4.51
-369.0,13.0,4.511
-168.0,-3.0,4.512
18.0,-15.0,4.513
114.0,-6.0,4.514
207.0,44.0,4.515
321.0,111.0,4.516
333.0,137.0,4.517
172.0,106.0,4.518
-8.0,72.0,4.519
-50.0,66.0,4.52
-11.0,38.0,4.521
-39.0,-33.0,4.522
-135.0,-98.0,4.523
-198.0,-113.0,4.524
-187.0,-108.0,4.525
-120.0,-111.0,4.526
1.0,-91.0,4.527
132.0,-25.0,4.528
160.0,27.0,4.529
45.0,4.0,4.53
-82.0,-59.0,4.531
-91.0,-79.0,4.532
-17.0,-36.0,4.533
35.0,18.0,4.534
53.0,35.0,4.535
81.0,16.0,4.536
111.0,-9.0,4.537
106.0,-25.0,4.538
90.0,-31.0,4.539
97.0,-33.0,4.54
107.0,-34.0,4.541
82.0,-17.0,4.542
55.0,13.0,4.543
68.0,26.0,4.544
91.0,7.0,4.545
90.0,-14.0,4.546
110.0,-16.0,4.547
176.0,-8.0,4.548
196.0,9.0,4.549
54.0,71.0,4.55
-178.0,173.0,4.551
-306.0,220.0,4.552
-288.0,142.0,4.553
-283.0,7.0,4.554
-372.0,-47.0,4.555
-406.0,5.0,4.556
-270.0,73.0,4.557
-60.0,75.0,4.558
18.0,16.0,4.559
-36.0,-62.0,4.56
-42.0,-131.0,4.561
62.0,-153.0,4.562
161.0,-122.0,4.563
171.0,-62.0,4.564
161.0,-14.0,4.565
227.0,12.0,4.566
354.0,21.0,4.567
445.0,11.0,4.568
408.0,-8.0,4.569
230.0,-18.0,4.57
1.0,-28.0,4.571
-160.0,-67.0,4.572
-235.0,-120.0,4.573
-287.0,-131.0,4.574
-302.0,-83.0,4.575
-186.0,-29.0,4.576
30.0,-3.0,4.577
183.0,15.0,4.578
139.0,49.0,4.579
-4.0,71.0,4.58
-53.0,64.0,4.581
-6.0,60.0,4.582
-14.0,70.0,4.583
-129.0,58.0,4.584
-219.0,19.0,4.585
-171.0,-1.0,4.586
-56.0,15.0,4.587
-33.0,25.0,4.588
-140.0,7.0,4.589
-219.0,-7.0,4.59
-87.0,5.0,4.591
245.0,25.0,4.592
553.0,43.0,4.593
625.0,75.0,4.594
479.0,110.0,4.595
296.0,109.0,4.596
191.0,75.0,4.597
103.0,43.0,4.598
-20.0,41.0,4.599
-137.0,43.0,4.6
-175.0,28.0,4.601
-154.0,10.0,4.602
-150.0,-12.0,4.603
-183.0,-52.0,4.604
-207.0,-86.0,4.605
-193.0,-73.0,4.606
-163.0,-26.0,4.607
-136.0,-15.0,4.608
-108.0,-78.0,4.609
-92.0,-162.0,4.61
-118.0,-183.0,4.611
-199.0,-125.0,4.612
-273.0,-41.0,4.613
-237.0,17.0,4.614
-51.0,51.0,4.615
196.0,75.0,4.616
358.0,86.0,4.617
384.0,77.0,4.618
330.0,62.0,4.619
281.0,42.0,4.62
242.0,-1.0,4.621
161.0,-58.0,4.622
40.0,-83.0,4.623
-59.0,-60.0,4.624
-116.0,-37.0,4.625
-167.0,-49.0,4.626
-225.0,-55.0,4.627
-247.0,-10.0,4.628
-219.0,48.0,4.629
-171.0,62.0,4.63
-108.0,45.0,4.631
-17.0,43.0,4.632
23.0,42.0,4.633
-93.0,4.0,4.634
-298.0,-40.0,4.635
-373.0,-23.0,4.636
-255.0,51.0,4.637
-97.0,125.0,4.638
-4.0,129.0,4.639
106.0,56.0,4.64
268.0,-40.0,4.641
390.0,-95.0,4.642
392.0,-101.0,4.643
410.0,-95.0,4.644
470.0,-92.0,4.645
486.0,-58.0,4.646
372.0,8.0,4.647
233.0,39.0,4.648
15.0,0.0,4.649
-142.0,-26.0,4.65
-119.0,26.0,4.651
-138.0,103.0,4.652
-282.0,98.0,4.653
-354.0,21.0,4.654
-208.0,-22.0,4.655
-87.0,6.0,4.656
-37.0,43.0,4.657
-46.0,43.0,4.658
-162.0,31.0,4.659
-10.0,30.0,4.66
324.0,17.0,4.661
549.0,-31.0,4.662
525.0,-105.0,4.663
314.0,-167.0,4.664
19.0,-174.0,4.665
-266.0,-106.0,4.666
-422.0,0.0,4.667
-400.0,63.0,4.668
-309.0,36.0,4.669
-272.0,-25.0,4.67
-267.0,-33.0,4.671
-205.0,21.0,4.672
-99.0,69.0,4.673
-38.0,70.0,4.674
-38.0,46.0,4.675
-31.0,23.0,4.676
3.0,15.0,4.677
30.0,23.0,4.678
42.0,41.0,4.679
49.0,46.0,4.68
43.0,28.0,4.681
34.0,21.0,4.682
20.0,51.0,4.683
13.0,88.0,4.684
27.0,93.0,4.685
44.0,54.0,4.686
68.0,-16.0,4.687
112.0,-96.0,4.688
219.0,-136.0,4.689
286.0,-91.0,4.69
232.0,-1.0,4.691
168.0,42.0,4.692
78.0,21.0,4.693
-42.0,2.0,4.694
-252.0,17.0,4.695
-382.0,17.0,4.696
-269.0,-12.0,4.697
-140.0,-27.0,4.698
-40.0,1.0,4.699
-43.0,29.0,4.7
-8.0,9.0,4.701
112.0,-25.0,4.702
198.0,-31.0,4.703
147.0,-29.0,4.704
10.0,-50.0,4.705
-90.0,-78.0,4.706
-100.0,-70.0,4.707
-56.0,-18.0,4.708
-23.0,39.0,4.709
-31.0,66.0,4.71
-69.0,67.0,4.711
-101.0,53.0,4.712
-115.0,25.0,4.713
-124.0,-21.0,4.714
-139.0,-71.0,4.715
-146.0,-102.0,4.716
-117.0,-96.0,4.717
-42.0,-60.0,4.718
41.0,-10.0,4.719
82.0,28.0,4.72
111.0,42.0,4.721
241.0,52.0,4.722
518.0,74.0,4.723
764.0,95.0,4.724
725.0,82.0,4.725
378.0,24.0,4.726
-2.0,-40.0,4.727
-165.0,-53.0,4.728
-135.0,-10.0,4.729
-72.0,31.0,4.73
-48.0,18.0,4.731
-45.0,-35.0,4.732
-82.0,-80.0,4.733
-194.0,-92.0,4.734
-322.0,-65.0,4.735
-356.0,-6.0,4.736
-270.0,51.0,4.737
-105.0,62.0,4.738
76.0,19.0,4.739
227.0,-25.0,4.74
290.0,-23.0,4.741
230.0,30.0,4.742
86.0,106.0,4.743
-45.0,160.0,4.744
-101.0,135.0,4.745
-77.0,22.0,4.746
-27.0,-92.0,4.747
-24.0,-118.0,4.748
-91.0,-78.0,4.749
-179.0,-55.0,4.75
-219.0,-55.0,4.751
-206.0,-34.0,4.752
-159.0,-14.0,4.753
-71.0,-39.0,4.754
52.0,-76.0,4.755
146.0,-58.0,4.756
162.0,-8.0,4.757
134.0,17.0,4.758
117.0,19.0,4.759
75.0,37.0,4.76
-30.0,49.0,4.761
-114.0,28.0,4.762
-63.0,2.0,4.763
56.0,3.0,4.764
61.0,2.0,4.765
-81.0,-28.0,4.766
-202.0,-45.0,4.767
-178.0,-10.0,4.768
-83.0,34.0,4.769
-42.0,41.0,4.77
-49.0,30.0,4.771
-39.0,21.0,4.772
-9.0,-2.0,4.773
11.0,-31.0,4.774
31.0,-15.0,4.775
76.0,46.0,4.776
120.0,86.0,4.777
136.0,74.0,4.778
132.0,51.0,4.779
130.0,38.0,4.78
120.0,-2.0,4.781
64.0,-58.0,4.782
-32.0,-69.0,4.783
-121.0,-16.0,4.784
-140.0,28.0,4.785
-71.0,4.0,4.786
27.0,-56.0,4.787
66.0,-94.0,4.788
24.0,-79.0,4.789
-12.0,-27.0,4.79
27.0,28.0,4.791
95.0,49.0,4.792
93.0,38.0,4.793
24.0,32.0,4.794
-30.0,45.0,4.795
-33.0,48.0,4.796
-22.0,27.0,4.797
-17.0,0.0,4.798
5.0,-6.0,4.799
49.0,-11.0,4.8
83.0,-40.0,4.801
88.0,-64.0,4.802
87.0,-55.0,4.803
91.0,-32.0,4.804
80.0,-23.0,4.805
39.0,-20.0,4.806
-22.0,-9.0,4.807
-69.0,-2.0,4.808
-79.0,-3.0,4.809
-49.0,6.0,4.81
-12.0,30.0,4.811
-14.0,45.0,4.812
-52.0,39.0,4.813
-77.0,32.0,4.814
-56.0,32.0,4.815
-11.0,22.0,4.816
25.0,3.0,4.817
49.0,-11.0,4.818
65.0,-9.0,4.819
67.0,-4.0,4.82
47.0,-5.0,4.821
16.0,-7.0,4.822
-10.0,-4.0,4.823
-27.0,0.0,4.824
-33.0,4.0,4.825
-23.0,5.0,4.826
-4.0,0.0,4.827
8.0,-6.0,4.828
5.0,2.0,4.829
2.0,21.0,4.83
3.0,28.0,4.831
0.0,7.0,4.832
-5.0,-25.0,4.833
5.0,-42.0,4.834
22.0,-33.0,4.835
15.0,-4.0,4.836
-16.0,24.0,4.837
-34.0,32.0,4.838
-20.0,19.0,4.839
-14.0,9.0,4.84
-50.0,15.0,4.841
-93.0,21.0,4.842
-87.0,4.0,4.843
-40.0,-28.0,4.844
0.0,-41.0,4.845
12.0,-23.0,4.846
5.0,0.0,4.847
-14.0,8.0,4.848
-34.0,-1.0,4.849
-33.0,-9.0,4.85
-8.0,-8.0,4.851
6.0,0.0,4.852
1.0,3.0,4.853
23.0,0.0,4.854
87.0,-4.0,4.855
139.0,-3.0,4.856
125.0,1.0,4.857
61.0,5.0,4.858
6.0,8.0,4.859
-24.0,8.0,4.86
-53.0,3.0,4.861
-76.0,2.0,4.862
-68.0,2.0,4.863
-38.0,2.0,4.864
-14.0,2.0,4.865
-1.0,3.0,4.866
29.0,-3.0,4.867
83.0,-17.0,4.868
137.0,-24.0,4.869
159.0,-11.0,4.87
139.0,8.0,4.871
83.0,7.0,4.872
1.0,-9.0,4.873
-96.0,-15.0,4.874
-173.0,-7.0,4.875
-167.0,-5.0,4.876
-67.0,-14.0,4.877
57.0,-17.0,4.878
99.0,-2.0,4.879
38.0,13.0,4.88
-29.0,10.0,4.881
-41.0,3.0,4.882
-32.0,4.0,4.883
-48.0,7.0,4.884
-67.0,9.0,4.885
-57.0,13.0,4.886
-29.0,11.0,4.887
-5.0,-8.0,4.888
20.0,-31.0,4.889
49.0,-31.0,4.89
56.0,-6.0,4.891
38.0,18.0,4.892
24.0,26.0,4.893
25.0,28.0,4.894
29.0,26.0,4.895
25.0,9.0,4.896
21.0,-12.0,4.897
13.0,-23.0,4.898
-1.0,-11.0,4.899
-15.0,6.0,4.9
-12.0,8.0,4.901
2.0,0.0,4.902
12.0,-8.0,4.903
8.0,-8.0,4.904
1.0,-4.0,4.905
0.0,2.0,4.906
0.0,5.0,4.907
-3.0,3.0,4.908
-3.0,0.0,4.909
2.0,-1.0,4.91
12.0,-1.0,4.911
17.0,-1.0,4.912
16.0,-4.0,4.913
9.0,-6.0,4.914
2.0,-7.0,4.915
-4.0,-4.0,4.916
-6.0,4.0,4.917
-10.0,7.0,4.918
-8.0,3.0,4.919
-5.0,-3.0,4.92
-3.0,-7.0,4.921
0.0,-3.0,4.922
12.0,2.0,4.923
17.0,7.0,4.924
1.0,8.0,4.925
-11.0,3.0,4.926
-13.0,-10.0,4.927
-12.0,-23.0,4.928
1.0,-24.0,4.929
11.0,-11.0,4.93
8.0,3.0,4.931
7.0,7.0,4.932
15.0,1.0,4.933
20.0,-3.0,4.934
14.0,-3.0,4.935
10.0,0.0,4.936
13.0,6.0,4.937
12.0,4.0,4.938
-8.0,0.0,4.939
-15.0,-3.0,4.94
4.0,-4.0,4.941
20.0,-5.0,4.942
7.0,-3.0,4.943
-15.0,0.0,4.944
-12.0,5.0,4.945
6.0,9.0,4.946
0.0,3.0,4.947
-37.0,-1.0,4.948
-64.0,0.0,4.949
-43.0,1.0,4.95
2.0,3.0,4.951
24.0,5.0,4.952
13.0,9.0,4.953
0.0,11.0,4.954
6.0,9.0,4.955
22.0,6.0,4.956
25.0,2.0,4.957
21.0,0.0,4.958
21.0,2.0,4.959
19.0,-4.0,4.96
5.0,-10.0,4.961
-10.0,-8.0,4.962
-9.0,-7.0,4.963
4.0,-13.0,4.964
9.0,-9.0,4.965
0.0,10.0,4.966
-5.0,20.0,4.967
2.0,-2.0,4.968
14.0,-31.0,4.969
17.0,-30.0,4.97
13.0,-5.0,4.971
10.0,8.0,4.972
4.0,-1.0,4.973
-4.0,-6.0,4.974
-5.0,1.0,4.975
1.0,9.0,4.976
15.0,6.0,4.977
-32.0,0.0,4.978
-29.0,2.0,4.979
-22.0,6.0,4.98
-4.0,0.0,4.981
24.0,-3.0,4.982
86.0,1.0,4.983
132.0,6.0,4.984
132.0,7.0,4.985
118.0,6.0,4.986
57.0,6.0,4.987
6.0,6.0,4.988
-15.0,7.0,4.989
-37.0,7.0,4.99
-50.0,8.0,4.991
-60.0,2.0,4.992
-55.0,-4.0,4.993
-50.0,-6.0,4.994
-42.0,-2.0,4.995
-34.0,-1.0,4.996
-25.0,-1.0,4.997
-43.0,8.0,4.998
-39.0,7.0,4.999
-30.0,4.0,5.0
-6.0,-3.0,5.001
30.0,-11.0,5.002
109.0,-15.0,5.003
169.0,-14.0,5.004
170.0,4.0,5.005
151.0,19.0,5.006
73.0,17.0,5.007
6.0,14.0,5.008
-21.0,5.0,5.009
-49.0,-1.0,5.01
-66.0,1.0,5.011
-79.0,4.0,5.012
-73.0,4.0,5.013
-66.0,1.0,5.014
-56.0,-2.0,5.015
-45.0,-7.0,5.016
-34.0,-12.0,5.017
-44.0,6.0,5.018
-40.0,5.0,5.019
-31.0,3.0,5.02
-7.0,-2.0,5.021
31.0,-7.0,5.022
111.0,-10.0,5.023
171.0,-9.0,5.024
172.0,3.0,5.025
153.0,13.0,5.026
74.0,12.0,5.027
7.0,10.0,5.028
-22.0,4.0,5.029
-50.0,0.0,5.03
-67.0,1.0,5.031
-80.0,3.0,5.032
-74.0,3.0,5.033
-67.0,1.0,5.034
-57.0,-1.0,5.035
-46.0,-4.0,5.036
-35.0,-7.0,5.037
-23.0,11.0,5.038
-23.0,9.0,5.039
-36.0,5.0,5.04
-35.0,-5.0,5.041
-15.0,-15.0,5.042
0.0,-21.0,5.043
-1.0,-19.0,5.044
-5.0,6.0,5.045
-5.0,25.0,5.046
-11.0,23.0,5.047
-22.0,19.0,5.048
-23.0,7.0,5.049
-17.0,-2.0,5.05
-21.0,2.0,5.051
-41.0,5.0,5.052
-54.0,5.0,5.053
-52.0,2.0,5.054
-49.0,-3.0,5.055
-44.0,-10.0,5.056
-25.0,-16.0,5.057
18.0,-21.0,5.058
70.0,-20.0,5.059
114.0,-14.0,5.06
130.0,-10.0,5.061
128.0,-7.0,5.062
73.0,-10.0,5.063
21.0,-8.0,5.064
-16.0,0.0,5.065
-36.0,3.0,5.066
-2.0,-1.0,5.067
27.0,-5.0,5.068
39.0,0.0,5.069
50.0,1.0,5.07
58.0,-2.0,5.071
58.0,-6.0,5.072
36.0,-2.0,5.073
14.0,0.0,5.074
-4.0,-5.0,5.075
-21.0,-7.0,5.076
-32.0,2.0,5.077
-47.0,11.0,5.078
-64.0,12.0,5.079
-78.0,9.0,5.08
-76.0,11.0,5.081
-55.0,17.0,5.082
-21.0,16.0,5.083
9.0,10.0,5.084
22.0,7.0,5.085
25.0,1.0,5.086
35.0,-8.0,5.087
44.0,-12.0,5.088
27.0,-5.0,5.089
-11.0,3.0,5.09
-34.0,1.0,5.091
-23.0,-4.0,5.092
3.0,-2.0,5.093
13.0,5.0,5.094
1.0,7.0,5.095
-9.0,2.0,5.096
-10.0,-2.0,5.097
-3.0,-7.0,5.098
2.0,-9.0,5.099
3.0,-7.0,5.1
-4.0,-5.0,5.101
-10.0,-6.0,5.102
4.0,-7.0,5.103
29.0,-2.0,5.104
41.0,7.0,5.105
32.0,13.0,5.106
15.0,14.0,5.107
4.0,11.0,5.108
0.0,4.0,5.109
-6.0,-6.0,5.11
-19.0,-11.0,5.111
-40.0,-12.0,5.112
-67.0,-12.0,5.113
-86.0,-10.0,5.114
-88.0,-6.0,5.115
-80.0,-3.0,5.116
-72.0,-6.0,5.117
-54.0,-9.0,5.118
-12.0,-6.0,5.119
37.0,1.0,5.12
66.0,0.0,5.121
73.0,-3.0,5.122
94.0,0.0,5.123
149.0,5.0,5.124
202.0,6.0,5.125
195.0,1.0,5.126
123.0,-1.0,5.127
39.0,0.0,5.128
-5.0,2.0,5.129
-6.0,0.0,5.13
-1.0,-1.0,5.131
-11.0,0.0,5.132
-25.0,5.0,5.133
-32.0,15.0,5.134
-38.0,22.0,5.135
-50.0,18.0,5.136
-56.0,7.0,5.137
-35.0,-8.0,5.138
-37.0,-17.0,5.139
-34.0,-18.0,5.14
-12.0,-16.0,5.141
10.0,-11.0,5.142
31.0,-6.0,5.143
51.0,3.0,5.144
63.0,16.0,5.145
76.0,21.0,5.146
88.0,12.0,5.147
90.0,0.0,5.148
61.0,1.0,5.149
36.0,14.0,5.15
22.0,20.0,5.151
10.0,10.0,5.152
14.0,-2.0,5.153
19.0,-4.0,5.154
31.0,-1.0,5.155
44.0,-7.0,5.156
56.0,-12.0,5.157
-40.0,-11.0,5.158
-42.0,-5.0,5.159
-39.0,0.0,5.16
-15.0,3.0,5.161
8.0,5.0,5.162
32.0,-4.0,5.163
53.0,-23.0,5.164
66.0,-33.0,5.165
80.0,-25.0,5.166
93.0,-12.0,5.167
95.0,-5.0,5.168
64.0,1.0,5.169
37.0,10.0,5.17
21.0,8.0,5.171
8.0,-7.0,5.172
12.0,-15.0,5.173
18.0,-11.0,5.174
32.0,-6.0,5.175
46.0,-8.0,5.176
58.0,-7.0,5.177
55.0,0.0,5.178
-14.0,5.0,5.179
-77.0,8.0,5.18
-94.0,6.0,5.181
-79.0,5.0,5.182
-62.0,9.0,5.183
-45.0,12.0,5.184
-19.0,12.0,5.185
-1.0,8.0,5.186
-11.0,-5.0,5.187
-41.0,-13.0,5.188
-65.0,-6.0,5.189
-77.0,0.0,5.19
-86.0,8.0,5.191
-91.0,12.0,5.192
-83.0,6.0,5.193
-52.0,2.0,5.194
5.0,4.0,5.195
69.0,8.0,5.196
105.0,16.0,5.197
87.0,22.0,5.198
46.0,19.0,5.199
34.0,7.0,5.2
62.0,-1.0,5.201
87.0,5.0,5.202
89.0,11.0,5.203
81.0,2.0,5.204
78.0,-15.0,5.205
68.0,-27.0,5.206
35.0,-26.0,5.207
-8.0,-17.0,5.208
-51.0,-9.0,5.209
-78.0,-5.0,5.21
-83.0,-1.0,5.211
-71.0,1.0,5.212
-56.0,0.0,5.213
-40.0,-2.0,5.214
-9.0,0.0,5.215
29.0,11.0,5.216
40.0,26.0,5.217
-7.0,31.0,5.218
-6.0,17.0,5.219
-6.0,-1.0,5.22
-11.0,-10.0,5.221
-24.0,-5.0,5.222
-63.0,-5.0,5.223
-91.0,-16.0,5.224
-84.0,-29.0,5.225
-70.0,-32.0,5.226
-35.0,-32.0,5.227
-9.0,-30.0,5.228
-10.0,-22.0,5.229
-3.0,-3.0,5.23
33.0,11.0,5.231
70.0,12.0,5.232
101.0,8.0,5.233
118.0,7.0,5.234
92.0,2.0,5.235
61.0,-11.0,5.236
15.0,-20.0,5.237
-14.0,-15.0,5.238
-12.0,2.0,5.239
-13.0,24.0,5.24
-21.0,33.0,5.241
-43.0,30.0,5.242
-108.0,13.0,5.243
-154.0,-3.0,5.244
-142.0,-4.0,5.245
-118.0,8.0,5.246
-60.0,20.0,5.247
-17.0,16.0,5.248
-20.0,-1.0,5.249
-7.0,-16.0,5.25
54.0,-20.0,5.251
115.0,-17.0,5.252
167.0,-20.0,5.253
195.0,-25.0,5.254
152.0,-12.0,5.255
100.0,28.0,5.256
24.0,71.0,5.257
-38.0,88.0,5.258
-37.0,100.0,5.259
-30.0,110.0,5.26
-41.0,115.0,5.261
-45.0,89.0,5.262
-20.0,-34.0,5.263
7.0,-131.0,5.264
1.0,-148.0,5.265
-26.0,-154.0,5.266
-35.0,-124.0,5.267
-27.0,-91.0,5.268
-33.0,-48.0,5.269
-52.0,-8.0,5.27
-56.0,21.0,5.271
-35.0,47.0,5.272
-18.0,59.0,5.273
-14.0,56.0,5.274
-5.0,8.0,5.275
12.0,-27.0,5.276
12.0,-25.0,5.277
-13.0,-15.0,5.278
-31.0,8.0,5.279
-24.0,17.0,5.28
-3.0,45.0,5.281
13.0,82.0,5.282
25.0,68.0,5.283
35.0,7.0,5.284
39.0,-42.0,5.285
43.0,-58.0,5.286
51.0,-70.0,5.287
50.0,-84.0,5.288
21.0,-72.0,5.289
-28.0,-39.0,5.29
-60.0,-29.0,5.291
-59.0,-40.0,5.292
-45.0,-28.0,5.293
-41.0,14.0,5.294
-33.0,37.0,5.295
-4.0,24.0,5.296
28.0,16.0,5.297
-220.0,40.0,5.298
-153.0,68.0,5.299
-94.0,66.0,5.3
-67.0,39.0,5.301
-41.0,22.0,5.302
-25.0,13.0,5.303
-7.0,2.0,5.304
16.0,-12.0,5.305
20.0,-26.0,5.306
-38.0,-40.0,5.307
-65.0,-61.0,5.308
-3.0,-76.0,5.309
45.0,-71.0,5.31
54.0,-46.0,5.311
63.0,-19.0,5.312
71.0,-5.0,5.313
85.0,-2.0,5.314
127.0,2.0,5.315
147.0,15.0,5.316
100.0,29.0,5.317
-121.0,33.0,5.318
-84.0,33.0,5.319
-52.0,31.0,5.32
-37.0,25.0,5.321
-23.0,20.0,5.322
-14.0,18.0,5.323
-4.0,17.0,5.324
9.0,17.0,5.325
11.0,17.0,5.326
-21.0,15.0,5.327
-36.0,18.0,5.328
-2.0,37.0,5.329
25.0,50.0,5.33
30.0,42.0,5.331
35.0,35.0,5.332
39.0,39.0,5.333
47.0,41.0,5.334
70.0,38.0,5.335
81.0,29.0,5.336
55.0,5.0,5.337
28.0,-14.0,5.338
1.0,-10.0,5.339
-23.0,-6.0,5.34
-52.0,-15.0,5.341
-90.0,-27.0,5.342
-134.0,-29.0,5.343
-177.0,-22.0,5.344
-203.0,-15.0,5.345
-186.0,-9.0,5.346
-116.0,1.0,5.347
-22.0,7.0,5.348
68.0,7.0,5.349
158.0,5.0,5.35
248.0,5.0,5.351
295.0,0.0,5.352
252.0,-8.0,5.353
139.0,-9.0,5.354
33.0,-2.0,5.355
-17.0,3.0,5.356
-26.0,1.0,5.357
-32.0,-4.0,5.358
-39.0,-5.0,5.359
-50.0,-4.0,5.36
-76.0,-10.0,5.361
-123.0,-15.0,5.362
-160.0,-15.0,5.363
-133.0,-10.0,5.364
-34.0,-7.0,5.365
73.0,-8.0,5.366
118.0,-15.0,5.367
103.0,-31.0,5.368
96.0,-40.0,5.369
125.0,-36.0,5.37
139.0,-21.0,5.371
93.0,-3.0,5.372
30.0,13.0,5.373
7.0,28.0,5.374
4.0,27.0,5.375
-36.0,9.0,5.376
-90.0,-6.0,5.377
-98.0,-5.0,5.378
-52.0,4.0,5.379
-26.0,3.0,5.38
-59.0,-10.0,5.381
-97.0,-13.0,5.382
-82.0,-4.0,5.383
-35.0,1.0,5.384
-13.0,-7.0,5.385
-24.0,-13.0,5.386
-31.0,-6.0,5.387
-13.0,5.0,5.388
24.0,7.0,5.389
51.0,5.0,5.39
42.0,14.0,5.391
-13.0,29.0,5.392
-89.0,28.0,5.393
-131.0,9.0,5.394
-118.0,-8.0,5.395
-63.0,-10.0,5.396
9.0,0.0,5.397
100.0,1.0,5.398
187.0,-3.0,5.399
224.0,-4.0,5.4
191.0,-8.0,5.401
121.0,-12.0,5.402
69.0,-15.0,5.403
46.0,-9.0,5.404
-2.0,0.0,5.405
-116.0,1.0,5.406
-245.0,-1.0,5.407
-277.0,-1.0,5.408
-161.0,-2.0,5.409
26.0,-8.0,5.41
167.0,-17.0,5.411
207.0,-15.0,5.412
176.0,-5.0,5.413
130.0,1.0,5.414
101.0,1.0,5.415
85.0,4.0,5.416
53.0,17.0,5.417
-10.0,25.0,5.418
-60.0,19.0,5.419
-55.0,7.0,5.42
-22.0,-1.0,5.421
-12.0,-1.0,5.422
-15.0,-5.0,5.423
3.0,-10.0,5.424
14.0,-5.0,5.425
-50.0,11.0,5.426
-168.0,18.0,5.427
-229.0,8.0,5.428
-187.0,-3.0,5.429
-99.0,-2.0,5.43
-15.0,4.0,5.431
88.0,6.0,5.432
209.0,2.0,5.433
292.0,1.0,5.434
291.0,4.0,5.435
227.0,2.0,5.436
149.0,-5.0,5.437
75.0,-11.0,5.438
23.0,-9.0,5.439
-10.0,0.0,5.44
-60.0,4.0,5.441
-150.0,4.0,5.442
-242.0,0.0,5.443
-269.0,-7.0,5.444
-219.0,-14.0,5.445
-141.0,-18.0,5.446
-75.0,-19.0,5.447
-32.0,-20.0,5.448
-9.0,-19.0,5.449
-8.0,-20.0,5.45
-15.0,-16.0,5.451
-12.0,-7.0,5.452
-3.0,8.0,5.453
-5.0,23.0,5.454
-18.0,30.0,5.455
-24.0,28.0,5.456
-17.0,20.0,5.457
-6.0,9.0,5.458
3.0,2.0,5.459
9.0,3.0,5.46
14.0,4.0,5.461
25.0,4.0,5.462
42.0,2.0,5.463
43.0,5.0,5.464
9.0,10.0,5.465
-35.0,7.0,5.466
-50.0,0.0,5.467
-34.0,-2.0,5.468
-19.0,4.0,5.469
-10.0,7.0,5.47
28.0,-2.0,5.471
110.0,-11.0,5.472
190.0,-12.0,5.473
217.0,-10.0,5.474
195.0,-10.0,5.475
164.0,-9.0,5.476
144.0,-3.0,5.477
109.0,-4.0,5.478
56.0,-11.0,5.479
16.0,-18.0,5.48
27.0,-20.0,5.481
67.0,-16.0,5.482
71.0,-11.0,5.483
10.0,-5.0,5.484
-71.0,2.0,5.485
-105.0,2.0,5.486
-85.0,-5.0,5.487
-69.0,-7.0,5.488
-90.0,4.0,5.489
-117.0,19.0,5.49
-103.0,20.0,5.491
-55.0,8.0,5.492
-19.0,-2.0,5.493
-23.0,2.0,5.494
-58.0,16.0,5.495
-88.0,25.0,5.496
-78.0,22.0,5.497
-22.0,8.0,5.498
39.0,0.0,5.499
54.0,1.0,5.5
33.0,3.0,5.501
29.0,0.0,5.502
56.0,-6.0,5.503
61.0,-6.0,5.504
12.0,0.0,5.505
-58.0,4.0,5.506
-101.0,0.0,5.507
-116.0,-11.0,5.508
-129.0,-15.0,5.509
-123.0,-11.0,5.51
-51.0,-6.0,5.511
82.0,-8.0,5.512
198.0,-12.0,5.513
216.0,-15.0,5.514
150.0,-19.0,5.515
92.0,-16.0,5.516
98.0,1.0,5.517
116.0,29.0,5.518
65.0,40.0,5.519
-39.0,22.0,5.52
-83.0,-7.0,5.521
-16.0,-21.0,5.522
60.0,-17.0,5.523
34.0,-12.0,5.524
-54.0,-13.0,5.525
-80.0,-12.0,5.526
-11.0,-8.0,5.527
65.0,-7.0,5.528
74.0,-10.0,5.529
36.0,-14.0,5.53
-7.0,-16.0,5.531
-52.0,-15.0,5.532
-110.0,-8.0,5.533
-162.0,6.0,5.534
-176.0,22.0,5.535
-148.0,34.0,5.536
-103.0,44.0,5.537
-62.0,52.0,5.538
-23.0,60.0,5.539
23.0,59.0,5.54
78.0,49.0,5.541
124.0,36.0,5.542
142.0,14.0,5.543
131.0,-8.0,5.544
108.0,-31.0,5.545
84.0,-46.0,5.546
52.0,-49.0,5.547
-5.0,-33.0,5.548
-77.0,-8.0,5.549
-123.0,1.0,5.55
-127.0,-16.0,5.551
-119.0,-39.0,5.552
-131.0,-41.0,5.553
-140.0,-23.0,5.554
-113.0,-13.0,5.555
-79.0,-15.0,5.556
-71.0,-12.0,5.557
-50.0,-3.0,5.558
62.0,2.0,5.559
226.0,-4.0,5.56
291.0,-13.0,5.561
209.0,-3.0,5.562
116.0,21.0,5.563
127.0,53.0,5.564
170.0,77.0,5.565
117.0,81.0,5.566
-16.0,51.0,5.567
-104.0,3.0,5.568
-101.0,-27.0,5.569
-64.0,-33.0,5.57
-33.0,-28.0,5.571
18.0,-26.0,5.572
105.0,-20.0,5.573
182.0,-8.0,5.574
187.0,3.0,5.575
110.0,8.0,5.576
12.0,19.0,5.577
-50.0,32.0,5.578
-62.0,34.0,5.579
-97.0,18.0,5.58
-200.0,-12.0,5.581
-287.0,-44.0,5.582
-257.0,-70.0,5.583
-173.0,-74.0,5.584
-168.0,-48.0,5.585
-206.0,-15.0,5.586
-125.0,-6.0,5.587
71.0,-17.0,5.588
193.0,-24.0,5.589
176.0,-19.0,5.59
174.0,-15.0,5.591
275.0,-14.0,5.592
331.0,-8.0,5.593
209.0,-5.0,5.594
-9.0,-13.0,5.595
-171.0,-20.0,5.596
-254.0,-12.0,5.597
-300.0,0.0,5.598
-266.0,3.0,5.599
-120.0,1.0,5.6
58.0,1.0,5.601
186.0,-2.0,5.602
315.0,-20.0,5.603
502.0,-39.0,5.604
616.0,-34.0,5.605
463.0,-2.0,5.606
88.0,30.0,5.607
-234.0,44.0,5.608
-343.0,34.0,5.609
-343.0,19.0,5.61
-374.0,13.0,5.611
-378.0,32.0,5.612
-255.0,65.0,5.613
-91.0,84.0,5.614
-70.0,65.0,5.615
-210.0,25.0,5.616
-352.0,-1.0,5.617
-426.0,-9.0,5.618
-458.0,-18.0,5.619
-444.0,-41.0,5.62
-278.0,-58.0,5.621
56.0,-44.0,5.622
413.0,-5.0,5.623
664.0,31.0,5.624
849.0,52.0,5.625
990.0,61.0,5.626
939.0,61.0,5.627
593.0,50.0,5.628
149.0,32.0,5.629
-84.0,15.0,5.63
-78.0,2.0,5.631
-62.0,-4.0,5.632
-151.0,-5.0,5.633
-219.0,-6.0,5.634
-177.0,-11.0,5.635
-122.0,-21.0,5.636
-142.0,-21.0,5.637
-190.0,-9.0,5.638
-188.0,3.0,5.639
-163.0,4.0,5.64
-145.0,-6.0,5.641
-83.0,-21.0,5.642
40.0,-44.0,5.643
117.0,-61.0,5.644
58.0,-47.0,5.645
-57.0,5.0,5.646
-97.0,65.0,5.647
-62.0,85.0,5.648
-41.0,51.0,5.649
-53.0,0.0,5.65
-47.0,-29.0,5.651
-16.0,-24.0,5.652
-13.0,-8.0,5.653
-58.0,-3.0,5.654
-124.0,-6.0,5.655
-178.0,10.0,5.656
-202.0,52.0,5.657
-172.0,89.0,5.658
-78.0,76.0,5.659
41.0,-3.0,5.66
131.0,-82.0,5.661
175.0,-65.0,5.662
170.0,41.0,5.663
119.0,110.0,5.664
46.0,47.0,5.665
8.0,-87.0,5.666
19.0,-167.0,5.667
31.0,-162.0,5.668
12.0,-140.0,5.669
-10.0,-133.0,5.67
-8.0,-104.0,5.671
-7.0,-44.0,5.672
-27.0,-1.0,5.673
-39.0,-1.0,5.674
-15.0,-9.0,5.675
11.0,0.0,5.676
-6.0,17.0,5.677
-60.0,29.0,5.678
-99.0,45.0,5.679
-91.0,65.0,5.68
-43.0,67.0,5.681
27.0,49.0,5.682
102.0,35.0,5.683
155.0,34.0,5.684
172.0,33.0,5.685
172.0,28.0,5.686
180.0,24.0,5.687
169.0,25.0,5.688
77.0,19.0,5.689
-90.0,7.0,5.69
-222.0,0.0,5.691
-217.0,1.0,5.692
-92.0,3.0,5.693
58.0,2.0,5.694
180.0,1.0,5.695
262.0,-1.0,5.696
252.0,-1.0,5.697
94.0,-2.0,5.698
-119.0,0.0,5.699
-212.0,-2.0,5.7
-135.0,-17.0,5.701
-35.0,-30.0,5.702
-16.0,-33.0,5.703
-14.0,-25.0,5.704
40.0,-12.0,5.705
65.0,3.0,5.706
7.0,28.0,5.707
-28.0,53.0,5.708
62.0,66.0,5.709
171.0,60.0,5.71
135.0,39.0,5.711
-4.0,20.0,5.712
-68.0,7.0,5.713
-33.0,1.0,5.714
-24.0,4.0,5.715
-76.0,15.0,5.716
-98.0,29.0,5.717
-65.0,26.0,5.718
-50.0,-1.0,5.719
-87.0,-34.0,5.72
-115.0,-51.0,5.721
-99.0,-43.0,5.722
-78.0,-35.0,5.723
-64.0,-34.0,5.724
-28.0,-26.0,5.725
24.0,-8.0,5.726
54.0,0.0,5.727
56.0,-11.0,5.728
46.0,-13.0,5.729
13.0,6.0,5.73
-59.0,27.0,5.731
-146.0,26.0,5.732
-210.0,13.0,5.733
-233.0,11.0,5.734
-193.0,5.0,5.735
-61.0,-19.0,5.736
123.0,-40.0,5.737
301.0,-45.0,5.738
426.0,-44.0,5.739
492.0,-58.0,5.74
456.0,-81.0,5.741
283.0,-77.0,5.742
73.0,-56.0,5.743
-19.0,-41.0,5.744
-2.0,-30.0,5.745
-25.0,-5.0,5.746
-119.0,23.0,5.747
-157.0,29.0,5.748
-95.0,15.0,5.749
-59.0,15.0,5.75
-106.0,31.0,5.751
-119.0,36.0,5.752
-34.0,20.0,5.753
32.0,0.0,5.754
-14.0,-7.0,5.755
-81.0,-15.0,5.756
-68.0,-32.0,5.757
-18.0,-42.0,5.758
-15.0,-14.0,5.759
-39.0,41.0,5.76
-36.0,80.0,5.761
-35.0,77.0,5.762
-72.0,42.0,5.763
-81.0,16.0,5.764
-24.0,18.0,5.765
11.0,29.0,5.766
-61.0,28.0,5.767
-170.0,17.0,5.768
-188.0,13.0,5.769
-111.0,18.0,5.77
-11.0,22.0,5.771
80.0,17.0,5.772
188.0,15.0,5.773
301.0,15.0,5.774
370.0,13.0,5.775
349.0,5.0,5.776
246.0,-1.0,5.777
92.0,-4.0,5.778
-31.0,-6.0,5.779
-85.0,-8.0,5.78
-111.0,-9.0,5.781
-144.0,-1.0,5.782
-141.0,2.0,5.783
-80.0,-6.0,5.784
-31.0,-16.0,5.785
-57.0,-19.0,5.786
-101.0,-14.0,5.787
-78.0,-13.0,5.788
-16.0,-13.0,5.789
17.0,-11.0,5.79
26.0,-14.0,5.791
40.0,-22.0,5.792
20.0,-24.0,5.793
-63.0,-11.0,5.794
-149.0,7.0,5.795
-167.0,15.0,5.796
-135.0,16.0,5.797
-87.0,17.0,5.798
-19.0,22.0,5.799
73.0,23.0,5.8
162.0,19.0,5.801
222.0,15.0,5.802
227.0,10.0,5.803
137.0,1.0,5.804
-40.0,-4.0,5.805
-171.0,-2.0,5.806
-135.0,-2.0,5.807
5.0,-6.0,5.808
92.0,-13.0,5.809
97.0,-16.0,5.81
97.0,-25.0,5.811
99.0,-38.0,5.812
45.0,-41.0,5.813
-39.0,-25.0,5.814
-82.0,-8.0,5.815
-100.0,0.0,5.816
-158.0,8.0,5.817
-240.0,20.0,5.818
-240.0,20.0,5.819
-133.0,-6.0,5.82
5.0,-31.0,5.821
130.0,-16.0,5.822
266.0,23.0,5.823
389.0,45.0,5.824
402.0,30.0,5.825
270.0,4.0,5.826
86.0,-9.0,5.827
-21.0,-14.0,5.828
-34.0,-14.0,5.829
-36.0,0.0,5.83
-74.0,30.0,5.831
-116.0,51.0,5.832
-109.0,43.0,5.833
-64.0,12.0,5.834
-25.0,-15.0,5.835
-16.0,-25.0,5.836
-20.0,-23.0,5.837
-25.0,-26.0,5.838
-34.0,-35.0,5.839
-38.0,-40.0,5.84
-27.0,-38.0,5.841
-7.0,-28.0,5.842
0.0,-14.0,5.843
-7.0,14.0,5.844
-14.0,50.0,5.845
-14.0,65.0,5.846
-20.0,42.0,5.847
-42.0,7.0,5.848
-79.0,-5.0,5.849
-135.0,2.0,5.85
-201.0,-1.0,5.851
-219.0,-20.0,5.852
-132.0,-34.0,5.853
41.0,-30.0,5.854
206.0,-25.0,5.855
300.0,-24.0,5.856
323.0,-18.0,5.857
280.0,-4.0,5.858
171.0,8.0,5.859
31.0,9.0,5.86
-53.0,8.0,5.861
-48.0,17.0,5.862
-17.0,27.0,5.863
-22.0,27.0,5.864
-53.0,23.0,5.865
-68.0,18.0,5.866
-67.0,4.0,5.867
-69.0,-13.0,5.868
-72.0,-30.0,5.869
-75.0,-38.0,5.87
-89.0,-39.0,5.871
-91.0,-39.0,5.872
-30.0,-45.0,5.873
97.0,-62.0,5.874
223.0,-83.0,5.875
274.0,-81.0,5.876
235.0,-46.0,5.877
112.0,5.0,5.878
-45.0,40.0,5.879
-156.0,42.0,5.88
-165.0,24.0,5.881
-101.0,15.0,5.882
-41.0,24.0,5.883
-20.0,34.0,5.884
-25.0,37.0,5.885
-59.0,36.0,5.886
-142.0,36.0,5.887
-263.0,36.0,5.888
-357.0,24.0,5.889
-356.0,7.0,5.89
-248.0,-4.0,5.891
-82.0,-9.0,5.892
73.0,-19.0,5.893
187.0,-33.0,5.894
289.0,-39.0,5.895
387.0,-35.0,5.896
429.0,-27.0,5.897
370.0,-22.0,5.898
273.0,-8.0,5.899
207.0,25.0,5.9
235.0,64.0,5.901
223.0,83.0,5.902
93.0,59.0,5.903
-29.0,15.0,5.904
-133.0,-7.0,5.905
-213.0,5.0,5.906
-223.0,21.0,5.907
-236.0,17.0,5.908
-254.0,2.0,5.909
-246.0,-3.0,5.91
-160.0,-9.0,5.911
-48.0,-32.0,5.912
141.0,-58.0,5.913
269.0,-52.0,5.914
207.0,-17.0,5.915
163.0,16.0,5.916
171.0,30.0,5.917
158.0,33.0,5.918
20.0,33.0,5.919
-116.0,31.0,5.92
-100.0,29.0,5.921
-12.0,31.0,5.922
-33.0,47.0,5.923
-149.0,52.0,5.924
-200.0,25.0,5.925
-149.0,3.0,5.926
-94.0,-3.0,5.927
-70.0,-13.0,5.928
-5.0,-32.0,5.929
104.0,-47.0,5.93
165.0,-47.0,5.931
123.0,-38.0,5.932
28.0,-7.0,5.933
-41.0,15.0,5.934
-56.0,13.0,5.935
-32.0,13.0,5.936
-13.0,21.0,5.937
-22.0,27.0,5.938
-42.0,20.0,5.939
-38.0,5.0,5.94
-17.0,-12.0,5.941
-13.0,-18.0,5.942
-23.0,-12.0,5.943
-16.0,-11.0,5.944
1.0,-21.0,5.945
-1.0,-33.0,5.946
-19.0,-34.0,5.947
-21.0,-29.0,5.948
-9.0,-26.0,5.949
-6.0,-18.0,5.95
-11.0,2.0,5.951
-3.0,19.0,5.952
10.0,16.0,5.953
7.0,1.0,5.954
-1.0,-5.0,5.955
5.0,-3.0,5.956
19.0,-4.0,5.957
22.0,-10.0,5.958
18.0,-9.0,5.959
19.0,-3.0,5.96
25.0,-6.0,5.961
26.0,-13.0,5.962
27.0,-14.0,5.963
33.0,-6.0,5.964
35.0,1.0,5.965
28.0,5.0,5.966
20.0,9.0,5.967
21.0,12.0,5.968
21.0,15.0,5.969
17.0,16.0,5.97
15.0,15.0,5.971
20.0,11.0,5.972
20.0,5.0,5.973
13.0,1.0,5.974
7.0,2.0,5.975
8.0,2.0,5.976
9.0,0.0,5.977
-2.0,-6.0,5.978
-10.0,-10.0,5.979
-16.0,-15.0,5.98
-13.0,-22.0,5.981
-8.0,-22.0,5.982
-2.0,-15.0,5.983
2.0,-10.0,5.984
-1.0,-10.0,5.985
-7.0,-11.0,5.986
-23.0,-9.0,5.987
-40.0,-3.0,5.988
-62.0,1.0,5.989
-84.0,3.0,5.99
-100.0,3.0,5.991
-108.0,6.0,5.992
-93.0,10.0,5.993
-68.0,12.0,5.994
-11.0,10.0,5.995
38.0,6.0,5.996
65.0,7.0,5.997
97.0,7.0,5.998
157.0,8.0,5.999
231.0,6.0,6.0
246.0,0.0,6.001
203.0,-2.0,6.002
187.0,0.0,6.003
214.0,4.0,6.004
184.0,9.0,6.005
23.0,13.0,6.006
-228.0,12.0,6.007
-484.0,2.0,6.008
-654.0,-11.0,6.009
-612.0,-15.0,6.01
-318.0,-10.0,6.011
40.0,-4.0,6.012
217.0,-9.0,6.013
217.0,-21.0,6.014
251.0,-30.0,6.015
359.0,-27.0,6.016
364.0,-12.0,6.017
217.0,4.0,6.018
163.0,10.0,6.019
349.0,3.0,6.02
529.0,-4.0,6.021
398.0,18.0,6.022
56.0,61.0,6.023
-153.0,95.0,6.024
-141.0,95.0,6.025
-103.0,65.0,6.026
-144.0,24.0,6.027
-172.0,-18.0,6.028
-138.0,-63.0,6.029
-128.0,-98.0,6.03
-177.0,-109.0,6.031
-211.0,-93.0,6.032
-204.0,-59.0,6.033
-216.0,-25.0,6.034
-253.0,8.0,6.035
-234.0,53.0,6.036
-130.0,103.0,6.037
11.0,135.0,6.038
119.0,123.0,6.039
163.0,74.0,6.04
137.0,42.0,6.041
71.0,56.0,6.042
40.0,64.0,6.043
67.0,20.0,6.044
70.0,-38.0,6.045
7.0,-54.0,6.046
-35.0,-34.0,6.047
6.0,-32.0,6.048
46.0,-49.0,6.049
-6.0,-45.0,6.05
-95.0,-24.0,6.051
-125.0,-27.0,6.052
-118.0,-59.0,6.053
-129.0,-77.0,6.054
-118.0,-70.0,6.055
-39.0,-61.0,6.056
46.0,-67.0,6.057
59.0,-78.0,6.058
27.0,-69.0,6.059
18.0,-27.0,6.06
32.0,36.0,6.061
22.0,90.0,6.062
1.0,97.0,6.063
10.0,64.0,6.064
29.0,31.0,6.065
25.0,19.0,6.066
19.0,14.0,6.067
40.0,3.0,6.068
64.0,-1.0,6.069
49.0,-1.0,6.07
19.0,-9.0,6.071
20.0,-24.0,6.072
42.0,-21.0,6.073
46.0,1.0,6.074
35.0,17.0,6.075
34.0,15.0,6.076
39.0,7.0,6.077
17.0,-3.0,6.078
-22.0,-11.0,6.079
-34.0,-15.0,6.08
-3.0,-13.0,6.081
25.0,-8.0,6.082
-2.0,-13.0,6.083
-73.0,-18.0,6.084
-110.0,-12.0,6.085
-54.0,-4.0,6.086
61.0,1.0,6.087
139.0,8.0,6.088
137.0,18.0,6.089
107.0,19.0,6.09
85.0,4.0,6.091
46.0,-10.0,6.092
-17.0,-8.0,6.093
-49.0,1.0,6.094
-18.0,4.0,6.095
16.0,-1.0,6.096
9.0,-3.0,6.097
-15.0,-6.0,6.098
-19.0,-14.0,6.099
-33.0,-22.0,6.1
-69.0,-27.0,6.101
-70.0,-23.0,6.102
-1.0,-16.0,6.103
73.0,-2.0,6.104
83.0,16.0,6.105
40.0,27.0,6.106
-9.0,22.0,6.107
-43.0,7.0,6.108
-54.0,-3.0,6.109
-35.0,0.0,6.11
-8.0,18.0,6.111
-9.0,38.0,6.112
-24.0,43.0,6.113
-13.0,31.0,6.114
20.0,17.0,6.115
32.0,17.0,6.116
24.0,29.0,6.117
28.0,35.0,6.118
45.0,25.0,6.119
40.0,3.0,6.12
22.0,-18.0,6.121
26.0,-28.0,6.122
41.0,-27.0,6.123
18.0,-21.0,6.124
-34.0,-16.0,6.125
-60.0,-11.0,6.126
-58.0,-2.0,6.127
-71.0,11.0,6.128
-90.0,15.0,6.129
-48.0,2.0,6.13
37.0,-18.0,6.131
62.0,-31.0,6.132
-16.0,-24.0,6.133
-116.0,-11.0,6.134
-192.0,-6.0,6.135
-297.0,-5.0,6.136
-406.0,-5.0,6.137
-364.0,-11.0,6.138
-73.0,-29.0,6.139
282.0,-43.0,6.14
438.0,-42.0,6.141
388.0,-34.0,6.142
315.0,-43.0,6.143
267.0,-56.0,6.144
140.0,-40.0,6.145
-30.0,14.0,6.146
-61.0,73.0,6.147
74.0,103.0,6.148
184.0,99.0,6.149
143.0,77.0,6.15
57.0,47.0,6.151
49.0,18.0,6.152
77.0,-2.0,6.153
55.0,-8.0,6.154
17.0,-13.0,6.155
22.0,-25.0,6.156
35.0,-36.0,6.157
-9.0,-36.0,6.158
-81.0,-18.0,6.159
-106.0,-4.0,6.16
-84.0,-7.0,6.161
-85.0,-6.0,6.162
-116.0,25.0,6.163
-123.0,69.0,6.164
-94.0,77.0,6.165
-73.0,26.0,6.166
-77.0,-35.0,6.167
-72.0,-47.0,6.168
-46.0,-8.0,6.169
-29.0,31.0,6.17
-29.0,37.0,6.171
-27.0,24.0,6.172
-16.0,13.0,6.173
-9.0,4.0,6.174
-10.0,-11.0,6.175
-4.0,-22.0,6.176
7.0,-23.0,6.177
9.0,-22.0,6.178
5.0,-25.0,6.179
1.0,-23.0,6.18
-3.0,-16.0,6.181
-13.0,-12.0,6.182
-15.0,-20.0,6.183
0.0,-27.0,6.184
18.0,-15.0,6.185
22.0,1.0,6.186
17.0,1.0,6.187
19.0,-10.0,6.188
25.0,-15.0,6.189
24.0,-9.0,6.19
21.0,-4.0,6.191
21.0,-6.0,6.192
23.0,-8.0,6.193
21.0,-8.0,6.194
21.0,-8.0,6.195
21.0,-8.0,6.196
22.0,-6.0,6.197
24.0,-2.0,6.198
26.0,1.0,6.199
6.0,2.0,6.2
-39.0,-1.0,6.201
-80.0,-1.0,6.202
-74.0,3.0,6.203
-24.0,8.0,6.204
48.0,11.0,6.205
127.0,10.0,6.206
189.0,4.0,6.207
179.0,0.0,6.208
85.0,1.0,6.209
-6.0,3.0,6.21
-18.0,1.0,6.211
11.0,-3.0,6.212
-5.0,-1.0,6.213
-77.0,13.0,6.214
-159.0,23.0,6.215
-227.0,14.0,6.216
-262.0,-2.0,6.217
-213.0,-9.0,6.218
-76.0,-5.0,6.219
49.0,-4.0,6.22
82.0,-14.0,6.221
69.0,-21.0,6.222
88.0,-15.0,6.223
123.0,-3.0,6.224
123.0,4.0,6.225
101.0,6.0,6.226
84.0,7.0,6.227
52.0,11.0,6.228
2.0,12.0,6.229
-29.0,10.0,6.23
-26.0,6.0,6.231
-25.0,6.0,6.232
-30.0,6.0,6.233
-3.0,-3.0,6.234
47.0,-12.0,6.235
61.0,-2.0,6.236
38.0,26.0,6.237
22.0,43.0,6.238
26.0,22.0,6.239
7.0,-19.0,6.24
-35.0,-35.0,6.241
-46.0,-9.0,6.242
-19.0,24.0,6.243
-10.0,33.0,6.244
-27.0,24.0,6.245
-24.0,12.0,6.246
7.0,-1.0,6.247
2.0,-9.0,6.248
-59.0,-9.0,6.249
-105.0,-1.0,6.25
-71.0,0.0,6.251
14.0,-4.0,6.252
85.0,-4.0,6.253
115.0,2.0,6.254
108.0,-1.0,6.255
59.0,-11.0,6.256
-14.0,-15.0,6.257
-66.0,-12.0,6.258
-51.0,-12.0,6.259
-15.0,-18.0,6.26
-33.0,-21.0,6.261
-90.0,-12.0,6.262
-88.0,-6.0,6.263
-1.0,-5.0,6.264
79.0,-1.0,6.265
82.0,6.0,6.266
26.0,9.0,6.267
-47.0,2.0,6.268
-132.0,-6.0,6.269
-189.0,-6.0,6.27
-158.0,0.0,6.271
-44.0,3.0,6.272
87.0,4.0,6.273
229.0,2.0,6.274
402.0,0.0,6.275
501.0,4.0,6.276
416.0,12.0,6.277
197.0,17.0,6.278
55.0,19.0,6.279
37.0,15.0,6.28
0.0,4.0,6.281
-110.0,-4.0,6.282
-169.0,-9.0,6.283
-130.0,-11.0,6.284
-107.0,-14.0,6.285
-144.0,-21.0,6.286
-144.0,-38.0,6.287
-85.0,-55.0,6.288
-62.0,-70.0,6.289
-94.0,-77.0,6.29
-94.0,-76.0,6.291
-40.0,-58.0,6.292
-10.0,-18.0,6.293
-30.0,37.0,6.294
-60.0,89.0,6.295
-127.0,121.0,6.296
-262.0,134.0,6.297
-387.0,123.0,6.298
-361.0,86.0,6.299
-222.0,39.0,6.3
-149.0,7.0,6.301
-143.0,11.0,6.302
-38.0,28.0,6.303
185.0,29.0,6.304
338.0,20.0,6.305
388.0,22.0,6.306
533.0,26.0,6.307
782.0,16.0,6.308
810.0,-2.0,6.309
449.0,-8.0,6.31
24.0,-7.0,6.311
-97.0,-19.0,6.312
-14.0,-42.0,6.313
-35.0,-56.0,6.314
-158.0,-65.0,6.315
-176.0,-77.0,6.316
-100.0,-84.0,6.317
-97.0,-75.0,6.318
-177.0,-58.0,6.319
-200.0,-61.0,6.32
-156.0,-86.0,6.321
-177.0,-102.0,6.322
-274.0,-90.0,6.323
-340.0,-62.0,6.324
-342.0,-27.0,6.325
-309.0,9.0,6.326
-206.0,52.0,6.327
-6.0,105.0,6.328
199.0,156.0,6.329
326.0,171.0,6.33
397.0,126.0,6.331
418.0,49.0,6.332
308.0,0.0,6.333
96.0,3.0,6.334
-26.0,21.0,6.335
21.0,16.0,6.336
76.0,-1.0,6.337
9.0,-8.0,6.338
-87.0,-7.0,6.339
-95.0,-11.0,6.34
-75.0,-21.0,6.341
-117.0,-22.0,6.342
-145.0,-19.0,6.343
-75.0,-28.0,6.344
4.0,-47.0,6.345
-36.0,-60.0,6.346
-178.0,-71.0,6.347
-306.0,-82.0,6.348
-332.0,-76.0,6.349
-211.0,-33.0,6.35
23.0,40.0,6.351
244.0,100.0,6.352
358.0,109.0,6.353
406.0,75.0,6.354
419.0,40.0,6.355
312.0,27.0,6.356
99.0,28.0,6.357
-43.0,24.0,6.358
22.0,16.0,6.359
111.0,12.0,6.36
13.0,14.0,6.361
-158.0,20.0,6.362
-184.0,23.0,6.363
-127.0,21.0,6.364
-164.0,23.0,6.365
-237.0,26.0,6.366
-190.0,28.0,6.367
-67.0,28.0,6.368
-10.0,24.0,6.369
11.0,13.0,6.37
95.0,-14.0,6.371
170.0,-49.0,6.372
129.0,-60.0,6.373
37.0,-36.0,6.374
21.0,-9.0,6.375
45.0,-29.0,6.376
24.0,-94.0,6.377
-35.0,-166.0,6.378
-63.0,-189.0,6.379
-84.0,-156.0,6.38
-136.0,-114.0,6.381
-148.0,-90.0,6.382
-54.0,-82.0,6.383
80.0,-65.0,6.384
144.0,-30.0,6.385
132.0,3.0,6.386
99.0,18.0,6.387
48.0,23.0,6.388
-16.0,32.0,6.389
-50.0,54.0,6.39
-35.0,75.0,6.391
-22.0,81.0,6.392
-36.0,72.0,6.393
-33.0,66.0,6.394
1.0,71.0,6.395
19.0,79.0,6.396
4.0,81.0,6.397
-5.0,79.0,6.398
12.0,88.0,6.399
16.0,104.0,6.4
-11.0,103.0,6.401
-28.0,82.0,6.402
-16.0,63.0,6.403
0.0,68.0,6.404
2.0,82.0,6.405
20.0,66.0,6.406
57.0,15.0,6.407
75.0,-30.0,6.408
51.0,-43.0,6.409
5.0,-50.0,6.41
-38.0,-91.0,6.411
-69.0,-155.0,6.412
-71.0,-190.0,6.413
-30.0,-167.0,6.414
31.0,-105.0,6.415
71.0,-52.0,6.416
67.0,-29.0,6.417
13.0,-34.0,6.418
-75.0,-43.0,6.419
-149.0,-34.0,6.42
-135.0,-12.0,6.421
-15.0,6.0,6.422
137.0,8.0,6.423
238.0,5.0,6.424
278.0,17.0,6.425
282.0,45.0,6.426
218.0,77.0,6.427
47.0,104.0,6.428
-162.0,123.0,6.429
-275.0,120.0,6.43
-225.0,88.0,6.431
-91.0,36.0,6.432
17.0,-8.0,6.433
58.0,-33.0,6.434
76.0,-47.0,6.435
117.0,-63.0,6.436
161.0,-74.0,6.437
159.0,-81.0,6.438
98.0,-76.0,6.439
14.0,-63.0,6.44
-51.0,-39.0,6.441
-94.0,11.0,6.442
-115.0,76.0,6.443
-94.0,119.0,6.444
-43.0,113.0,6.445
-13.0,80.0,6.446
-31.0,59.0,6.447
-67.0,48.0,6.448
-77.0,18.0,6.449
-57.0,-20.0,6.45
-36.0,-24.0,6.451
-44.0,11.0,6.452
-93.0,25.0,6.453
-144.0,-25.0,6.454
-123.0,-88.0,6.455
-27.0,-86.0,6.456
42.0,-20.0,6.457
2.0,44.0,6.458
-81.0,50.0,6.459
-88.0,16.0,6.46
-4.0,1.0,6.461
75.0,35.0,6.462
106.0,77.0,6.463
126.0,82.0,6.464
136.0,50.0,6.465
93.0,13.0,6.466
0.0,-16.0,6.467
-91.0,-47.0,6.468
-141.0,-79.0,6.469
-132.0,-90.0,6.47
-37.0,-80.0,6.471
118.0,-68.0,6.472
240.0,-74.0,6.473
271.0,-87.0,6.474
250.0,-96.0,6.475
212.0,-102.0,6.476
132.0,-99.0,6.477
1.0,-72.0,6.478
-76.0,-28.0,6.479
-43.0,15.0,6.48
1.0,52.0,6.481
-32.0,90.0,6.482
-94.0,126.0,6.483
-107.0,165.0,6.484
-114.0,209.0,6.485
-169.0,237.0,6.486
-209.0,213.0,6.487
-163.0,131.0,6.488
-92.0,-118.0,6.489
-85.0,-301.0,6.49
-90.0,-282.0,6.491
0.0,-255.0,6.492
163.0,-203.0,6.493
259.0,-142.0,6.494
230.0,-55.0,6.495
153.0,21.0,6.496
106.0,61.0,6.497
86.0,93.0,6.498
75.0,112.0,6.499
70.0,145.0,6.5
65.0,141.0,6.501
39.0,93.0,6.502
-9.0,44.0,6.503
-55.0,24.0,6.504
-100.0,16.0,6.505
-159.0,2.0,6.506
-216.0,-19.0,6.507
-223.0,-23.0,6.508
-160.0,11.0,6.509
-64.0,68.0,6.51
9.0,73.0,6.511
64.0,-32.0,6.512
134.0,-194.0,6.513
214.0,-281.0,6.514
237.0,-232.0,6.515
156.0,-126.0,6.516
26.0,-57.0,6.517
-80.0,-24.0,6.518
-114.0,20.0,6.519
-104.0,67.0,6.52
-98.0,70.0,6.521
-78.0,59.0,6.522
-3.0,99.0,6.523
95.0,185.0,6.524
107.0,236.0,6.525
-24.0,203.0,6.526
-200.0,120.0,6.527
-262.0,38.0,6.528
-173.0,-28.0,6.529
-60.0,-76.0,6.53
-11.0,-102.0,6.531
36.0,-120.0,6.532
162.0,-144.0,6.533
299.0,-156.0,6.534
320.0,-124.0,6.535
234.0,-52.0,6.536
158.0,10.0,6.537
115.0,40.0,6.538
53.0,62.0,6.539
-44.0,106.0,6.54
-110.0,153.0,6.541
-124.0,166.0,6.542
-129.0,128.0,6.543
-139.0,74.0,6.544
-110.0,38.0,6.545
-30.0,21.0,6.546
42.0,-5.0,6.547
60.0,-48.0,6.548
30.0,-91.0,6.549
-26.0,-118.0,6.55
-96.0,-129.0,6.551
-145.0,-117.0,6.552
-128.0,-73.0,6.553
-38.0,-18.0,6.554
62.0,20.0,6.555
114.0,42.0,6.556
112.0,71.0,6.557
90.0,104.0,6.558
77.0,99.0,6.559
71.0,39.0,6.56
48.0,-32.0,6.561
1.0,-55.0,6.562
-50.0,-42.0,6.563
-71.0,-34.0,6.564
-56.0,-44.0,6.565
-36.0,-41.0,6.566
-64.0,-14.0,6.567
-149.0,16.0,6.568
-238.0,33.0,6.569
-262.0,39.0,6.57
-217.0,52.0,6.571
-170.0,78.0,6.572
-158.0,104.0,6.573
-107.0,99.0,6.574
54.0,46.0,6.575
255.0,-28.0,6.576
357.0,-76.0,6.577
359.0,-89.0,6.578
395.0,-88.0,6.579
499.0,-87.0,6.58
504.0,-72.0,6.581
288.0,-20.0,6.582
7.0,38.0,6.583
-97.0,73.0,6.584
-26.0,89.0,6.585
39.0,104.0,6.586
33.0,99.0,6.587
39.0,46.0,6.588
63.0,-20.0,6.589
11.0,-44.0,6.59
-111.0,-37.0,6.591
-186.0,-76.0,6.592
-179.0,-174.0,6.593
-175.0,-239.0,6.594
-187.0,-202.0,6.595
-149.0,-117.0,6.596
-87.0,-65.0,6.597
-96.0,-33.0,6.598
-156.0,37.0,6.599
-142.0,130.0,6.6
-29.0,159.0,6.601
67.0,108.0,6.602
90.0,61.0,6.603
95.0,96.0,6.604
87.0,184.0,6.605
13.0,232.0,6.606
-93.0,175.0,6.607
-118.0,43.0,6.608
-48.0,-71.0,6.609
9.0,-104.0,6.61
2.0,-82.0,6.611
-2.0,-79.0,6.612
39.0,-122.0,6.613
78.0,-170.0,6.614
65.0,-190.0,6.615
-6.0,-184.0,6.616
-96.0,-159.0,6.617
-149.0,-114.0,6.618
-114.0,-54.0,6.619
-73.0,-7.0,6.62
-17.0,20.0,6.621
20.0,55.0,6.622
-4.0,106.0,6.623
-24.0,144.0,6.624
-31.0,143.0,6.625
-31.0,117.0,6.626
-7.0,100.0,6.627
17.0,108.0,6.628
42.0,115.0,6.629
83.0,91.0,6.63
168.0,38.0,6.631
225.0,-16.0,6.632
196.0,-45.0,6.633
151.0,-46.0,6.634
60.0,-34.0,6.635
1.0,-20.0,6.636
43.0,-10.0,6.637
62.0,-12.0,6.638
-7.0,-28.0,6.639
-51.0,-50.0,6.64
-41.0,-66.0,6.641
-40.0,-68.0,6.642
-54.0,-73.0,6.643
-35.0,-90.0,6.644
3.0,-97.0,6.645
7.0,-59.0,6.646
-22.0,8.0,6.647
-30.0,57.0,6.648
-29.0,67.0,6.649
-59.0,72.0,6.65
-92.0,102.0,6.651
-76.0,130.0,6.652
-28.0,106.0,6.653
-8.0,28.0,6.654
-23.0,-42.0,6.655
-35.0,-53.0,6.656
-39.0,-24.0,6.657
-58.0,-15.0,6.658
-98.0,-58.0,6.659
-111.0,-111.0,6.66
-62.0,-114.0,6.661
21.0,-65.0,6.662
90.0,-21.0,6.663
132.0,-12.0,6.664
155.0,-10.0,6.665
161.0,16.0,6.666
141.0,44.0,6.667
106.0,54.0,6.668
84.0,61.0,6.669
78.0,82.0,6.67
46.0,99.0,6.671
-39.0,98.0,6.672
-136.0,96.0,6.673
-175.0,107.0,6.674
-137.0,106.0,6.675
-70.0,66.0,6.676
-16.0,13.0,6.677
51.0,-26.0,6.678
89.0,-43.0,6.679
71.0,-61.0,6.68
-25.0,-89.0,6.681
-152.0,-113.0,6.682
-216.0,-119.0,6.683
-159.0,-103.0,6.684
-22.0,-65.0,6.685
106.0,-24.0,6.686
186.0,-5.0,6.687
248.0,-7.0,6.688
302.0,-3.0,6.689
282.0,16.0,6.69
144.0,32.0,6.691
-38.0,34.0,6.692
-131.0,34.0,6.693
-104.0,35.0,6.694
-32.0,28.0,6.695
12.0,13.0,6.696
23.0,0.0,6.697
14.0,-11.0,6.698
10.0,-25.0,6.699
37.0,-30.0,6.7
88.0,-21.0,6.701
88.0,0.0,6.702
10.0,10.0,6.703
-66.0,1.0,6.704
-60.0,-15.0,6.705
-25.0,-27.0,6.706
-67.0,-26.0,6.707
-151.0,0.0,6.708
-165.0,41.0,6.709
-94.0,63.0,6.71
-28.0,41.0,6.711
-4.0,-11.0,6.712
29.0,-50.0,6.713
82.0,-59.0,6.714
100.0,-61.0,6.715
58.0,-80.0,6.716
3.0,-101.0,6.717
-36.0,-105.0,6.718
-60.0,-80.0,6.719
-80.0,-33.0,6.72
-89.0,21.0,6.721
-79.0,73.0,6.722
-57.0,99.0,6.723
-37.0,93.0,6.724
-28.0,80.0,6.725
-30.0,85.0,6.726
-23.0,96.0,6.727
8.0,90.0,6.728
48.0,74.0,6.729
58.0,64.0,6.73
35.0,56.0,6.731
13.0,33.0,6.732
16.0,5.0,6.733
29.0,-7.0,6.734
39.0,-15.0,6.735
45.0,-36.0,6.736
45.0,-54.0,6.737
26.0,-54.0,6.738
-8.0,-41.0,6.739
-33.0,-38.0,6.74
-40.0,-43.0,6.741
-49.0,-37.0,6.742
-73.0,-28.0,6.743
-90.0,-32.0,6.744
-75.0,-45.0,6.745
-36.0,-47.0,6.746
-8.0,-36.0,6.747
-3.0,-26.0,6.748
1.0,-11.0,6.749
34.0,11.0,6.75
92.0,24.0,6.751
139.0,13.0,6.752
153.0,5.0,6.753
148.0,14.0,6.754
138.0,29.0,6.755
112.0,25.0,6.756
51.0,15.0,6.757
-57.0,8.0,6.758
-166.0,0.0,6.759
-237.0,-19.0,6.76
-188.0,-43.0,6.761
-109.0,-48.0,6.762
56.0,-40.0,6.763
197.0,-29.0,6.764
257.0,-13.0,6.765
281.0,7.0,6.766
191.0,15.0,6.767
106.0,4.0,6.768
35.0,-4.0,6.769
-13.0,6.0,6.77
7.0,26.0,6.771
23.0,37.0,6.772
31.0,41.0,6.773
29.0,43.0,6.774
-3.0,38.0,6.775
-23.0,20.0,6.776
-6.0,4.0,6.777
-4.0,4.0,6.778
-70.0,12.0,6.779
-130.0,15.0,6.78
-133.0,-1.0,6.781
-114.0,-11.0,6.782
-112.0,-1.0,6.783
-102.0,8.0,6.784
-64.0,13.0,6.785
-38.0,19.0,6.786
-54.0,24.0,6.787
-97.0,22.0,6.788
-143.0,0.0,6.789
-184.0,-13.0,6.79
-179.0,-1.0,6.791
-71.0,8.0,6.792
96.0,4.0,6.793
203.0,-2.0,6.794
213.0,-16.0,6.795
189.0,-25.0,6.796
170.0,-17.0,6.797
105.0,-12.0,6.798
-3.0,-22.0,6.799
-67.0,-35.0,6.8
-40.0,-41.0,6.801
-1.0,-29.0,6.802
-14.0,-10.0,6.803
-33.0,4.0,6.804
-18.0,14.0,6.805
-21.0,20.0,6.806
-86.0,19.0,6.807
-151.0,9.0,6.808
-141.0,-1.0,6.809
-81.0,-1.0,6.81
-33.0,4.0,6.811
9.0,4.0,6.812
82.0,-3.0,6.813
166.0,-7.0,6.814
210.0,-1.0,6.815
212.0,4.0,6.816
193.0,3.0,6.817
132.0,-4.0,6.818
13.0,-10.0,6.819
-104.0,-13.0,6.82
-122.0,-19.0,6.821
-45.0,-19.0,6.822
32.0,-15.0,6.823
32.0,-11.0,6.824
-24.0,-8.0,6.825
-78.0,-3.0,6.826
-98.0,1.0,6.827
-89.0,4.0,6.828
-63.0,2.0,6.829
-32.0,-1.0,6.83
-3.0,-2.0,6.831
20.0,0.0,6.832
35.0,4.0,6.833
37.0,4.0,6.834
16.0,3.0,6.835
-24.0,8.0,6.836
-58.0,20.0,6.837
-48.0,24.0,6.838
13.0,12.0,6.839
74.0,-1.0,6.84
128.0,-3.0,6.841
152.0,5.0,6.842
83.0,6.0,6.843
9.0,0.0,6.844
-80.0,0.0,6.845
-111.0,2.0,6.846
36.0,-3.0,6.847
158.0,-13.0,6.848
203.0,-14.0,6.849
238.0,-8.0,6.85
244.0,-4.0,6.851
226.0,-1.0,6.852
135.0,4.0,6.853
35.0,10.0,6.854
-94.0,11.0,6.855
-184.0,15.0,6.856
-153.0,24.0,6.857
-133.0,28.0,6.858
-153.0,18.0,6.859
-153.0,8.0,6.86
-113.0,8.0,6.861
-87.0,17.0,6.862
-87.0,12.0,6.863
-84.0,-4.0,6.864
-66.0,-18.0,6.865
-33.0,-27.0,6.866
21.0,-40.0,6.867
86.0,-55.0,6.868
107.0,-57.0,6.869
61.0,-39.0,6.87
-6.0,-8.0,6.871
-43.0,24.0,6.872
-52.0,39.0,6.873
-49.0,25.0,6.874
-31.0,-10.0,6.875
-10.0,-31.0,6.876
-16.0,-17.0,6.877
-39.0,8.0,6.878
-23.0,21.0,6.879
27.0,31.0,6.88
56.0,35.0,6.881
46.0,37.0,6.882
37.0,33.0,6.883
42.0,25.0,6.884
34.0,9.0,6.885
4.0,-4.0,6.886
-18.0,-9.0,6.887
-21.0,-17.0,6.888
-21.0,-33.0,6.889
-22.0,-44.0,6.89
-19.0,-42.0,6.891
-43.0,-38.0,6.892
-119.0,-30.0,6.893
-182.0,-25.0,6.894
-153.0,-29.0,6.895
-67.0,-31.0,6.896
-35.0,-25.0,6.897
-66.0,-17.0,6.898
-79.0,-1.0,6.899
12.0,21.0,6.9
144.0,34.0,6.901
204.0,24.0,6.902
214.0,0.0,6.903
240.0,-13.0,6.904
253.0,-4.0,6.905
188.0,6.0,6.906
113.0,-3.0,6.907
136.0,-24.0,6.908
210.0,-29.0,6.909
187.0,-17.0,6.91
49.0,-4.0,6.911
-60.0,0.0,6.912
-68.0,5.0,6.913
-44.0,12.0,6.914
-57.0,19.0,6.915
-81.0,18.0,6.916
-82.0,12.0,6.917
-84.0,0.0,6.918
-97.0,-8.0,6.919
-107.0,-7.0,6.92
-105.0,7.0,6.921
-113.0,27.0,6.922
-151.0,36.0,6.923
-172.0,34.0,6.924
-142.0,27.0,6.925
-106.0,18.0,6.926
-50.0,13.0,6.927
7.0,22.0,6.928
65.0,45.0,6.929
104.0,63.0,6.93
81.0,53.0,6.931
55.0,16.0,6.932
24.0,-16.0,6.933
5.0,-19.0,6.934
25.0,-9.0,6.935
8.0,-5.0,6.936
-117.0,-6.0,6.937
-246.0,-10.0,6.938
-306.0,-12.0,6.939
-199.0,-17.0,6.94
-32.0,-22.0,6.941
80.0,-18.0,6.942
172.0,-12.0,6.943
308.0,-11.0,6.944
389.0,-12.0,6.945
276.0,-11.0,6.946
48.0,-12.0,6.947
-55.0,-21.0,6.948
29.0,-30.0,6.949
116.0,-30.0,6.95
70.0,-19.0,6.951
-11.0,-8.0,6.952
-5.0,1.0,6.953
46.0,3.0,6.954
51.0,-3.0,6.955
28.0,-13.0,6.956
25.0,-14.0,6.957
18.0,-5.0,6.958
-30.0,5.0,6.959
-98.0,6.0,6.96
-151.0,-6.0,6.961
-188.0,-17.0,6.962
-196.0,-13.0,6.963
-144.0,8.0,6.964
-53.0,42.0,6.965
17.0,68.0,6.966
64.0,68.0,6.967
119.0,46.0,6.968
142.0,30.0,6.969
73.0,28.0,6.97
-26.0,18.0,6.971
-32.0,-18.0,6.972
37.0,-61.0,6.973
42.0,-74.0,6.974
-44.0,-57.0,6.975
-96.0,-42.0,6.976
-59.0,-42.0,6.977
-18.0,-40.0,6.978
-29.0,-22.0,6.979
-51.0,-6.0,6.98
-103.0,-8.0,6.981
-150.0,-13.0,6.982
-181.0,-7.0,6.983
-159.0,1.0,6.984
26.0,2.0,6.985
173.0,0.0,6.986
204.0,7.0,6.987
231.0,17.0,6.988
244.0,25.0,6.989
228.0,37.0,6.99
124.0,58.0,6.991
48.0,78.0,6.992
57.0,76.0,6.993
51.0,50.0,6.994
-2.0,11.0,6.995
-40.0,-16.0,6.996
-30.0,-23.0,6.997
-16.0,-27.0,6.998
-27.0,-43.0,6.999
-77.0,-56.0,7.0
-93.0,-54.0,7.001
-74.0,-48.0,7.002
-68.0,-27.0,7.003
-71.0,-11.0,7.004
-40.0,-12.0,7.005
16.0,-11.0,7.006
39.0,2.0,7.007
2.0,18.0,7.008
-60.0,38.0,7.009
-96.0,51.0,7.01
-84.0,39.0,7.011
-54.0,28.0,7.012
-50.0,20.0,7.013
-69.0,12.0,7.014
-56.0,7.0,7.015
15.0,1.0,7.016
81.0,-5.0,7.017
79.0,-8.0,7.018
41.0,-2.0,7.019
54.0,-10.0,7.02
119.0,-26.0,7.021
150.0,-25.0,7.022
114.0,-9.0,7.023
74.0,-1.0,7.024
64.0,1.0,7.025
39.0,3.0,7.026
-20.0,4.0,7.027
-58.0,0.0,7.028
-50.0,-6.0,7.029
-47.0,-9.0,7.03
-85.0,-7.0,7.031
-119.0,-6.0,7.032
-117.0,-6.0,7.033
-108.0,-5.0,7.034
-98.0,0.0,7.035
-31.0,6.0,7.036
89.0,11.0,7.037
182.0,12.0,7.038
161.0,9.0,7.039
63.0,8.0,7.04
-5.0,8.0,7.041
-18.0,15.0,7.042
-13.0,21.0,7.043
-20.0,16.0,7.044
-48.0,6.0,7.045
-125.0,3.0,7.046
-267.0,6.0,7.047
-386.0,8.0,7.048
-353.0,6.0,7.049
-166.0,8.0,7.05
19.0,11.0,7.051
99.0,6.0,7.052
147.0,-10.0,7.053
255.0,-25.0,7.054
355.0,-29.0,7.055
339.0,-24.0,7.056
270.0,-12.0,7.057
278.0,-4.0,7.058
357.0,-2.0,7.059
356.0,-5.0,7.06
226.0,-8.0,7.061
84.0,-1.0,7.062
8.0,9.0,7.063
-47.0,19.0,7.064
-109.0,31.0,7.065
-125.0,40.0,7.066
-98.0,30.0,7.067
-98.0,-8.0,7.068
-137.0,-49.0,7.069
-144.0,-61.0,7.07
-112.0,-52.0,7.071
-111.0,-51.0,7.072
-158.0,-62.0,7.073
-189.0,-56.0,7.074
-169.0,-24.0,7.075
-123.0,1.0,7.076
-72.0,-1.0,7.077
-9.0,-12.0,7.078
32.0,4.0,7.079
26.0,47.0,7.08
13.0,71.0,7.081
38.0,60.0,7.082
69.0,37.0,7.083
54.0,25.0,7.084
21.0,26.0,7.085
27.0,28.0,7.086
46.0,25.0,7.087
28.0,18.0,7.088
-9.0,7.0,7.089
-11.0,-7.0,7.09
1.0,-14.0,7.091
-23.0,-9.0,7.092
-67.0,2.0,7.093
-73.0,10.0,7.094
-45.0,7.0,7.095
-33.0,2.0,7.096
-50.0,9.0,7.097
-86.0,20.0,7.098
-133.0,19.0,7.099
-185.0,-9.0,7.1
-192.0,-47.0,7.101
-119.0,-61.0,7.102
-19.0,-45.0,7.103
35.0,-25.0,7.104
47.0,-21.0,7.105
91.0,-23.0,7.106
177.0,-20.0,7.107
237.0,-15.0,7.108
230.0,-13.0,7.109
219.0,-12.0,7.11
263.0,-9.0,7.111
316.0,-5.0,7.112
291.0,0.0,7.113
195.0,9.0,7.114
118.0,22.0,7.115
88.0,30.0,7.116
56.0,34.0,7.117
-19.0,35.0,7.118
-85.0,30.0,7.119
-93.0,11.0,7.12
-89.0,-12.0,7.121
-133.0,-23.0,7.122
-197.0,-23.0,7.123
-219.0,-28.0,7.124
-209.0,-36.0,7.125
-240.0,-31.0,7.126
-315.0,-13.0,7.127
-340.0,6.0,7.128
-232.0,21.0,7.129
-14.0,34.0,7.13
226.0,47.0,7.131
410.0,55.0,7.132
476.0,56.0,7.133
367.0,51.0,7.134
111.0,40.0,7.135
-138.0,29.0,7.136
-238.0,24.0,7.137
-212.0,16.0,7.138
-172.0,7.0,7.139
-141.0,-7.0,7.14
-41.0,-22.0,7.141
127.0,-31.0,7.142
237.0,-37.0,7.143
199.0,-38.0,7.144
56.0,-32.0,7.145
-95.0,-19.0,7.146
-191.0,-8.0,7.147
-185.0,-6.0,7.148
-76.0,-13.0,7.149
52.0,-17.0,7.15
119.0,-11.0,7.151
144.0,3.0,7.152
190.0,20.0,7.153
223.0,31.0,7.154
159.0,35.0,7.155
5.0,29.0,7.156
-128.0,19.0,7.157
-186.0,13.0,7.158
-164.0,16.0,7.159
-83.0,17.0,7.16
14.0,0.0,7.161
61.0,-18.0,7.162
42.0,-17.0,7.163
24.0,-3.0,7.164
53.0,-7.0,7.165
58.0,-43.0,7.166
-28.0,-76.0,7.167
-145.0,-71.0,7.168
-187.0,-41.0,7.169
-171.0,-24.0,7.17
-198.0,-25.0,7.171
-280.0,-11.0,7.172
-312.0,34.0,7.173
-209.0,86.0,7.174
-16.0,103.0,7.175
158.0,71.0,7.176
251.0,18.0,7.177
290.0,-22.0,7.178
326.0,-37.0,7.179
359.0,-42.0,7.18
355.0,-61.0,7.181
299.0,-82.0,7.182
214.0,-76.0,7.183
117.0,-37.0,7.184
11.0,2.0,7.185
-69.0,5.0,7.186
-93.0,-32.0,7.187
-88.0,-69.0,7.188
-110.0,-69.0,7.189
-165.0,-36.0,7.19
-209.0,-5.0,7.191
-220.0,7.0,7.192
-213.0,11.0,7.193
-181.0,25.0,7.194
-110.0,36.0,7.195
-30.0,37.0,7.196
6.0,34.0,7.197
-19.0,39.0,7.198
-59.0,59.0,7.199
-58.0,81.0,7.2
67.0,84.0,7.201
177.0,70.0,7.202
245.0,47.0,7.203
279.0,30.0,7.204
213.0,27.0,7.205
157.0,26.0,7.206
133.0,15.0,7.207
91.0,-5.0,7.208
-1.0,-14.0,7.209
-57.0,-3.0,7.21
-5.0,9.0,7.211
14.0,7.0,7.212
-63.0,-4.0,7.213
-132.0,-10.0,7.214
-169.0,-14.0,7.215
-206.0,-25.0,7.216
-238.0,-40.0,7.217
-248.0,-59.0,7.218
-143.0,-80.0,7.219
12.0,-96.0,7.22
149.0,-98.0,7.221
198.0,-71.0,7.222
131.0,-35.0,7.223
18.0,-12.0,7.224
-32.0,-5.0,7.225
-22.0,12.0,7.226
-48.0,47.0,7.227
-115.0,62.0,7.228
-118.0,38.0,7.229
-24.0,8.0,7.23
71.0,20.0,7.231
116.0,66.0,7.232
146.0,90.0,7.233
173.0,68.0,7.234
155.0,23.0,7.235
106.0,-19.0,7.236
78.0,-41.0,7.237
68.0,-36.0,7.238
32.0,-6.0,7.239
-21.0,21.0,7.24
-50.0,20.0,7.241
-57.0,6.0,7.242
-63.0,7.0,7.243
-68.0,23.0,7.244
-101.0,35.0,7.245
-203.0,36.0,7.246
-314.0,28.0,7.247
-287.0,6.0,7.248
-101.0,-17.0,7.249
77.0,-26.0,7.25
151.0,-28.0,7.251
206.0,-54.0,7.252
273.0,-103.0,7.253
210.0,-126.0,7.254
-27.0,-94.0,7.255
-217.0,-39.0,7.256
-188.0,-8.0,7.257
-49.0,1.0,7.258
11.0,25.0,7.259
27.0,59.0,7.26
135.0,73.0,7.261
265.0,66.0,7.262
271.0,60.0,7.263
203.0,59.0,7.264
181.0,39.0,7.265
153.0,-8.0,7.266
33.0,-55.0,7.267
-69.0,-83.0,7.268
-19.0,-98.0,7.269
74.0,-100.0,7.27
33.0,-75.0,7.271
-94.0,-12.0,7.272
-130.0,61.0,7.273
-64.0,87.0,7.274
-28.0,54.0,7.275
-53.0,2.0,7.276
-70.0,-16.0,7.277
-78.0,-4.0,7.278
-119.0,10.0,7.279
-169.0,11.0,7.28
-161.0,9.0,7.281
-122.0,19.0,7.282
-119.0,27.0,7.283
-131.0,27.0,7.284
-74.0,28.0,7.285
49.0,30.0,7.286
140.0,17.0,7.287
142.0,-2.0,7.288
100.0,-5.0,7.289
61.0,12.0,7.29
21.0,23.0,7.291
-29.0,18.0,7.292
-52.0,12.0,7.293
-23.0,14.0,7.294
22.0,13.0,7.295
42.0,2.0,7.296
50.0,-5.0,7.297
63.0,-7.0,7.298
54.0,-7.0,7.299
-3.0,-9.0,7.3
-58.0,-5.0,7.301
-42.0,8.0,7.302
12.0,14.0,7.303
3.0,10.0,7.304
-83.0,5.0,7.305
-127.0,6.0,7.306
-52.0,16.0,7.307
60.0,29.0,7.308
107.0,42.0,7.309
100.0,41.0,7.31
114.0,12.0,7.311
131.0,-35.0,7.312
85.0,-73.0,7.313
-1.0,-77.0,7.314
-40.0,-56.0,7.315
-19.0,-36.0,7.316
-15.0,-32.0,7.317
