Deltoid,Bicep,Time
-10.0,-2.0,0.0
-3.0,-3.0,0.001
-2.0,-5.0,0.002
1.0,-7.0,0.003
12.0,-6.0,0.004
20.0,-2.0,0.005
14.0,-1.0,0.006
7.0,-2.0,0.007
10.0,-2.0,0.008
15.0,-1.0,0.009
13.0,0.0,0.01
10.0,1.0,0.011
11.0,1.0,0.012
13.0,1.0,0.013
9.0,0.0,0.014
6.0,-2.0,0.015
9.0,-3.0,0.016
9.0,0.0,0.017
4.0,3.0,0.018
-2.0,4.0,0.019
-5.0,0.0,0.02
-8.0,-4.0,0.021
-11.0,-5.0,0.022
-10.0,-4.0,0.023
-3.0,-3.0,0.024
0.0,-5.0,0.025
-4.0,-5.0,0.026
-7.0,-4.0,0.027
-3.0,-4.0,0.028
0.0,-3.0,0.029
-1.0,-2.0,0.03
-5.0,-1.0,0.031
-4.0,0.0,0.032
1.0,0.0,0.033
5.0,2.0,0.034
5.0,3.0,0.035
5.0,4.0,0.036
7.0,3.0,0.037
8.0,0.0,0.038
6.0,-2.0,0.039
0.0,-5.0,0.04
-3.0,-7.0,0.041
-3.0,-7.0,0.042
2.0,-4.0,0.043
10.0,-1.0,0.044
13.0,2.0,0.045
10.0,6.0,0.046
5.0,7.0,0.047
6.0,3.0,0.048
12.0,1.0,0.049
13.0,3.0,0.05
11.0,4.0,0.051
6.0,0.0,0.052
4.0,-4.0,0.053
4.0,-5.0,0.054
1.0,-2.0,0.055
0.0,-1.0,0.056
2.0,0.0,0.057
3.0,-1.0,0.058
4.0,-1.0,0.059
-2.0,-3.0,0.06
-6.0,-6.0,0.061
-5.0,-3.0,0.062
0.0,1.0,0.063
2.0,1.0,0.064
-2.0,-1.0,0.065
-7.0,2.0,0.066
-5.0,9.0,0.067
2.0,13.0,0.068
14.0,10.0,0.069
22.0,5.0,0.07
24.0,1.0,0.071
21.0,0.0,0.072
19.0,1.0,0.073
18.0,4.0,0.074
17.0,6.0,0.075
7.0,7.0,0.076
-10.0,6.0,0.077
-30.0,0.0,0.078
-43.0,-7.0,0.079
-42.0,-14.0,0.08
-30.0,-21.0,0.081
-17.0,-21.0,0.082
-7.0,-17.0,0.083
-1.0,-12.0,0.084
4.0,-8.0,0.085
10.0,-4.0,0.086
17.0,-2.0,0.087
29.0,-2.0,0.088
47.0,1.0,0.089
61.0,7.0,0.09
56.0,11.0,0.091
35.0,10.0,0.092
7.0,8.0,0.093
-21.0,8.0,0.094
-48.0,11.0,0.095
-61.0,8.0,0.096
-45.0,5.0,0.097
-5.0,1.0,0.098
20.0,-1.0,0.099
0.0,-4.0,0.1
-42.0,-15.0,0.101
-59.0,-20.0,0.102
-35.0,-16.0,0.103
-6.0,-8.0,0.104
3.0,-4.0,0.105
-1.0,-4.0,0.106
2.0,-5.0,0.107
11.0,-1.0,0.108
18.0,5.0,0.109
20.0,5.0,0.11
22.0,2.0,0.111
22.0,2.0,0.112
20.0,5.0,0.113
18.0,7.0,0.114
19.0,5.0,0.115
17.0,3.0,0.116
13.0,4.0,0.117
11.0,3.0,0.118
14.0,0.0,0.119
10.0,-1.0,0.12
3.0,-4.0,0.121
0.0,0.0,0.122
6.0,4.0,0.123
13.0,4.0,0.124
11.0,2.0,0.125
8.0,1.0,0.126
6.0,1.0,0.127
8.0,1.0,0.128
9.0,2.0,0.129
7.0,2.0,0.13
4.0,1.0,0.131
4.0,0.0,0.132
3.0,0.0,0.133
1.0,1.0,0.134
0.0,2.0,0.135
1.0,0.0,0.136
2.0,-1.0,0.137
4.0,-3.0,0.138
3.0,0.0,0.139
-2.0,0.0,0.14
-8.0,-6.0,0.141
-11.0,-9.0,0.142
-4.0,-9.0,0.143
4.0,-4.0,0.144
3.0,4.0,0.145
-6.0,9.0,0.146
-13.0,7.0,0.147
-9.0,0.0,0.148
-2.0,-4.0,0.149
2.0,-3.0,0.15
3.0,-1.0,0.151
8.0,0.0,0.152
15.0,0.0,0.153
21.0,1.0,0.154
21.0,1.0,0.155
15.0,0.0,0.156
4.0,0.0,0.157
-13.0,0.0,0.158
-28.0,-2.0,0.159
-40.0,-6.0,0.16
-44.0,-11.0,0.161
-32.0,-10.0,0.162
-2.0,-6.0,0.163
26.0,-4.0,0.164
29.0,-4.0,0.165
14.0,-1.0,0.166
7.0,-1.0,0.167
16.0,-2.0,0.168
19.0,-4.0,0.169
5.0,-2.0,0.17
-7.0,1.0,0.171
-5.0,0.0,0.172
2.0,-2.0,0.173
3.0,-1.0,0.174
2.0,0.0,0.175
6.0,2.0,0.176
7.0,5.0,0.177
0.0,5.0,0.178
1.0,3.0,0.179
8.0,1.0,0.18
12.0,-4.0,0.181
8.0,-4.0,0.182
13.0,-3.0,0.183
24.0,0.0,0.184
32.0,7.0,0.185
40.0,10.0,0.186
61.0,7.0,0.187
75.0,0.0,0.188
47.0,0.0,0.189
-20.0,4.0,0.19
-77.0,5.0,0.191
-86.0,0.0,0.192
-63.0,-1.0,0.193
-38.0,2.0,0.194
-20.0,2.0,0.195
-7.0,-4.0,0.196
-4.0,-6.0,0.197
-11.0,-6.0,0.198
-13.0,-4.0,0.199
-9.0,-5.0,0.2
-6.0,-10.0,0.201
-9.0,-8.0,0.202
-5.0,-6.0,0.203
8.0,0.0,0.204
16.0,4.0,0.205
13.0,7.0,0.206
12.0,2.0,0.207
17.0,-4.0,0.208
18.0,-3.0,0.209
13.0,3.0,0.21
12.0,1.0,0.211
18.0,-6.0,0.212
19.0,-6.0,0.213
14.0,1.0,0.214
7.0,7.0,0.215
7.0,3.0,0.216
9.0,0.0,0.217
4.0,0.0,0.218
2.0,2.0,0.219
1.0,0.0,0.22
-1.0,-5.0,0.221
-5.0,-6.0,0.222
-1.0,-5.0,0.223
7.0,-2.0,0.224
9.0,0.0,0.225
3.0,1.0,0.226
2.0,1.0,0.227
6.0,-1.0,0.228
9.0,-1.0,0.229
4.0,0.0,0.23
0.0,-2.0,0.231
1.0,-3.0,0.232
2.0,-4.0,0.233
0.0,-2.0,0.234
-2.0,-2.0,0.235
-1.0,-3.0,0.236
3.0,-2.0,0.237
3.0,0.0,0.238
3.0,1.0,0.239
5.0,0.0,0.24
11.0,-4.0,0.241
20.0,-4.0,0.242
27.0,-3.0,0.243
19.0,0.0,0.244
-3.0,2.0,0.245
-21.0,3.0,0.246
-24.0,1.0,0.247
-25.0,-1.0,0.248
-28.0,-3.0,0.249
-28.0,-1.0,0.25
-17.0,0.0,0.251
-2.0,0.0,0.252
7.0,0.0,0.253
9.0,-1.0,0.254
10.0,-2.0,0.255
11.0,-3.0,0.256
11.0,-4.0,0.257
9.0,-3.0,0.258
8.0,0.0,0.259
5.0,1.0,0.26
0.0,-2.0,0.261
-1.0,-5.0,0.262
5.0,-2.0,0.263
13.0,4.0,0.264
13.0,7.0,0.265
7.0,4.0,0.266
1.0,1.0,0.267
3.0,0.0,0.268
6.0,1.0,0.269
8.0,3.0,0.27
9.0,5.0,0.271
9.0,7.0,0.272
6.0,8.0,0.273
2.0,5.0,0.274
1.0,1.0,0.275
2.0,-1.0,0.276
3.0,-2.0,0.277
1.0,-4.0,0.278
0.0,-5.0,0.279
-2.0,-4.0,0.28
-7.0,-7.0,0.281
-7.0,-6.0,0.282
1.0,-3.0,0.283
13.0,1.0,0.284
13.0,4.0,0.285
4.0,4.0,0.286
-2.0,2.0,0.287
2.0,0.0,0.288
7.0,0.0,0.289
5.0,2.0,0.29
3.0,2.0,0.291
4.0,2.0,0.292
4.0,2.0,0.293
2.0,2.0,0.294
2.0,0.0,0.295
6.0,-4.0,0.296
9.0,-3.0,0.297
5.0,0.0,0.298
2.0,0.0,0.299
-2.0,-4.0,0.3
-7.0,-8.0,0.301
-7.0,-8.0,0.302
-1.0,-4.0,0.303
8.0,-2.0,0.304
10.0,-1.0,0.305
4.0,2.0,0.306
2.0,3.0,0.307
2.0,0.0,0.308
1.0,-3.0,0.309
-1.0,0.0,0.31
-2.0,5.0,0.311
0.0,6.0,0.312
1.0,2.0,0.313
3.0,0.0,0.314
5.0,-1.0,0.315
5.0,-3.0,0.316
5.0,-3.0,0.317
3.0,-3.0,0.318
3.0,-1.0,0.319
0.0,1.0,0.32
-5.0,-1.0,0.321
-7.0,-5.0,0.322
-3.0,-6.0,0.323
1.0,-5.0,0.324
0.0,-1.0,0.325
-4.0,1.0,0.326
-4.0,0.0,0.327
-2.0,-1.0,0.328
-2.0,-1.0,0.329
-1.0,-1.0,0.33
3.0,1.0,0.331
6.0,4.0,0.332
4.0,3.0,0.333
2.0,0.0,0.334
4.0,-3.0,0.335
8.0,0.0,0.336
9.0,6.0,0.337
6.0,3.0,0.338
3.0,-2.0,0.339
0.0,-5.0,0.34
-3.0,-5.0,0.341
-2.0,-4.0,0.342
5.0,-5.0,0.343
12.0,-4.0,0.344
10.0,0.0,0.345
5.0,2.0,0.346
5.0,0.0,0.347
9.0,-2.0,0.348
7.0,-2.0,0.349
2.0,0.0,0.35
6.0,2.0,0.351
23.0,4.0,0.352
43.0,5.0,0.353
44.0,4.0,0.354
21.0,2.0,0.355
-19.0,2.0,0.356
-50.0,4.0,0.357
-61.0,0.0,0.358
-52.0,-5.0,0.359
-36.0,-7.0,0.36
-16.0,-8.0,0.361
10.0,-9.0,0.362
30.0,-10.0,0.363
35.0,-7.0,0.364
33.0,-1.0,0.365
40.0,0.0,0.366
45.0,-3.0,0.367
26.0,-4.0,0.368
-11.0,-1.0,0.369
-30.0,2.0,0.37
-25.0,1.0,0.371
-22.0,-2.0,0.372
-29.0,-1.0,0.373
-27.0,1.0,0.374
-5.0,2.0,0.375
13.0,2.0,0.376
12.0,4.0,0.377
1.0,4.0,0.378
2.0,2.0,0.379
4.0,-2.0,0.38
0.0,-5.0,0.381
-1.0,-2.0,0.382
11.0,-2.0,0.383
21.0,-3.0,0.384
17.0,0.0,0.385
6.0,7.0,0.386
6.0,8.0,0.387
10.0,4.0,0.388
9.0,3.0,0.389
3.0,5.0,0.39
4.0,5.0,0.391
9.0,0.0,0.392
9.0,0.0,0.393
2.0,4.0,0.394
1.0,3.0,0.395
5.0,0.0,0.396
9.0,-2.0,0.397
7.0,0.0,0.398
2.0,-1.0,0.399
-2.0,-4.0,0.4
-3.0,-7.0,0.401
0.0,-4.0,0.402
8.0,0.0,0.403
12.0,1.0,0.404
12.0,1.0,0.405
6.0,3.0,0.406
0.0,3.0,0.407
-2.0,-2.0,0.408
-2.0,-6.0,0.409
-4.0,-5.0,0.41
-7.0,-3.0,0.411
-11.0,-4.0,0.412
-10.0,-7.0,0.413
-5.0,-6.0,0.414
0.0,-4.0,0.415
0.0,-3.0,0.416
0.0,-1.0,0.417
1.0,2.0,0.418
5.0,3.0,0.419
4.0,1.0,0.42
-3.0,-6.0,0.421
-6.0,-7.0,0.422
1.0,-3.0,0.423
14.0,0.0,0.424
16.0,2.0,0.425
8.0,4.0,0.426
2.0,5.0,0.427
5.0,3.0,0.428
7.0,0.0,0.429
6.0,-3.0,0.43
5.0,-4.0,0.431
8.0,-2.0,0.432
6.0,0.0,0.433
0.0,3.0,0.434
-2.0,2.0,0.435
5.0,0.0,0.436
13.0,0.0,0.437
21.0,-2.0,0.438
32.0,-1.0,0.439
41.0,-1.0,0.44
32.0,-4.0,0.441
1.0,-4.0,0.442
-30.0,-1.0,0.443
-40.0,5.0,0.444
-36.0,7.0,0.445
-35.0,3.0,0.446
-41.0,-1.0,0.447
-40.0,-4.0,0.448
-31.0,-5.0,0.449
-17.0,-5.0,0.45
3.0,-7.0,0.451
27.0,-10.0,0.452
39.0,-13.0,0.453
28.0,-10.0,0.454
9.0,-4.0,0.455
5.0,0.0,0.456
18.0,2.0,0.457
23.0,-1.0,0.458
15.0,-1.0,0.459
2.0,1.0,0.46
-1.0,-2.0,0.461
3.0,-4.0,0.462
9.0,-2.0,0.463
15.0,3.0,0.464
16.0,7.0,0.465
12.0,6.0,0.466
5.0,2.0,0.467
5.0,2.0,0.468
9.0,3.0,0.469
7.0,4.0,0.47
2.0,7.0,0.471
1.0,6.0,0.472
3.0,2.0,0.473
6.0,2.0,0.474
13.0,3.0,0.475
22.0,1.0,0.476
20.0,0.0,0.477
-5.0,-3.0,0.478
-31.0,-2.0,0.479
-38.0,0.0,0.48
-27.0,-3.0,0.481
-13.0,-4.0,0.482
-1.0,-5.0,0.483
7.0,-5.0,0.484
9.0,-6.0,0.485
3.0,-3.0,0.486
0.0,0.0,0.487
8.0,0.0,0.488
15.0,-2.0,0.489
9.0,-3.0,0.49
0.0,-2.0,0.491
-1.0,0.0,0.492
5.0,3.0,0.493
8.0,6.0,0.494
7.0,3.0,0.495
5.0,-1.0,0.496
4.0,-1.0,0.497
2.0,0.0,0.498
0.0,1.0,0.499
-2.0,-2.0,0.5
-3.0,-8.0,0.501
-4.0,-7.0,0.502
-2.0,-4.0,0.503
2.0,-2.0,0.504
4.0,-1.0,0.505
1.0,0.0,0.506
0.0,0.0,0.507
3.0,0.0,0.508
5.0,1.0,0.509
3.0,4.0,0.51
-1.0,4.0,0.511
-3.0,-1.0,0.512
-2.0,-6.0,0.513
-1.0,-3.0,0.514
-1.0,0.0,0.515
0.0,1.0,0.516
2.0,2.0,0.517
5.0,-1.0,0.518
5.0,0.0,0.519
1.0,-2.0,0.52
0.0,-5.0,0.521
9.0,-4.0,0.522
25.0,-1.0,0.523
35.0,-2.0,0.524
24.0,-3.0,0.525
-1.0,1.0,0.526
-19.0,6.0,0.527
-20.0,7.0,0.528
-14.0,4.0,0.529
-15.0,0.0,0.53
-15.0,-1.0,0.531
-6.0,0.0,0.532
6.0,-1.0,0.533
9.0,0.0,0.534
3.0,-1.0,0.535
3.0,-2.0,0.536
11.0,-1.0,0.537
13.0,-3.0,0.538
9.0,-3.0,0.539
3.0,-3.0,0.54
1.0,-3.0,0.541
1.0,-3.0,0.542
3.0,-3.0,0.543
10.0,-3.0,0.544
15.0,-1.0,0.545
12.0,0.0,0.546
6.0,0.0,0.547
3.0,1.0,0.548
3.0,1.0,0.549
1.0,0.0,0.55
0.0,-1.0,0.551
1.0,-4.0,0.552
3.0,-2.0,0.553
3.0,-1.0,0.554
4.0,-1.0,0.555
7.0,-1.0,0.556
8.0,-1.0,0.557
2.0,0.0,0.558
-3.0,0.0,0.559
-6.0,-1.0,0.56
-6.0,-7.0,0.561
-4.0,-7.0,0.562
0.0,-4.0,0.563
5.0,0.0,0.564
7.0,4.0,0.565
4.0,5.0,0.566
2.0,2.0,0.567
4.0,-1.0,0.568
7.0,-2.0,0.569
6.0,-1.0,0.57
5.0,1.0,0.571
5.0,-1.0,0.572
2.0,0.0,0.573
-1.0,1.0,0.574
0.0,2.0,0.575
2.0,4.0,0.576
5.0,2.0,0.577
3.0,0.0,0.578
0.0,0.0,0.579
0.0,0.0,0.58
-2.0,-1.0,0.581
-3.0,-3.0,0.582
0.0,-4.0,0.583
4.0,-2.0,0.584
7.0,-1.0,0.585
6.0,0.0,0.586
5.0,1.0,0.587
5.0,1.0,0.588
3.0,1.0,0.589
-1.0,0.0,0.59
-2.0,0.0,0.591
2.0,0.0,0.592
6.0,1.0,0.593
5.0,1.0,0.594
1.0,3.0,0.595
0.0,2.0,0.596
4.0,1.0,0.597
3.0,-1.0,0.598
-2.0,-1.0,0.599
-8.0,-4.0,0.6
-6.0,-9.0,0.601
-2.0,-8.0,0.602
2.0,-5.0,0.603
6.0,-1.0,0.604
9.0,1.0,0.605
9.0,0.0,0.606
8.0,-1.0,0.607
5.0,-2.0,0.608
4.0,-4.0,0.609
0.0,-1.0,0.61
-1.0,3.0,0.611
-1.0,6.0,0.612
-1.0,5.0,0.613
-2.0,0.0,0.614
-2.0,-2.0,0.615
0.0,-2.0,0.616
4.0,0.0,0.617
5.0,0.0,0.618
2.0,-1.0,0.619
-2.0,-1.0,0.62
-6.0,-5.0,0.621
-7.0,-6.0,0.622
0.0,-4.0,0.623
8.0,0.0,0.624
11.0,1.0,0.625
8.0,2.0,0.626
4.0,4.0,0.627
3.0,4.0,0.628
2.0,3.0,0.629
0.0,2.0,0.63
2.0,2.0,0.631
7.0,1.0,0.632
9.0,0.0,0.633
7.0,-1.0,0.634
5.0,0.0,0.635
3.0,-1.0,0.636
1.0,-2.0,0.637
-2.0,-2.0,0.638
-3.0,0.0,0.639
-4.0,0.0,0.64
-4.0,-6.0,0.641
-2.0,-9.0,0.642
2.0,-6.0,0.643
9.0,-2.0,0.644
9.0,-3.0,0.645
6.0,-3.0,0.646
4.0,-1.0,0.647
8.0,3.0,0.648
10.0,3.0,0.649
5.0,0.0,0.65
0.0,-3.0,0.651
0.0,-3.0,0.652
2.0,-2.0,0.653
3.0,-1.0,0.654
0.0,-1.0,0.655
-1.0,0.0,0.656
-2.0,0.0,0.657
-2.0,2.0,0.658
-1.0,0.0,0.659
-1.0,-1.0,0.66
-3.0,-3.0,0.661
-2.0,-1.0,0.662
4.0,0.0,0.663
13.0,0.0,0.664
16.0,2.0,0.665
12.0,7.0,0.666
9.0,7.0,0.667
13.0,2.0,0.668
15.0,0.0,0.669
8.0,3.0,0.67
0.0,5.0,0.671
-3.0,3.0,0.672
-2.0,1.0,0.673
-3.0,3.0,0.674
-5.0,3.0,0.675
-7.0,0.0,0.676
-6.0,-2.0,0.677
-6.0,-3.0,0.678
-3.0,-3.0,0.679
-3.0,-3.0,0.68
-6.0,-9.0,0.681
-8.0,-11.0,0.682
-5.0,-10.0,0.683
1.0,-9.0,0.684
5.0,-5.0,0.685
3.0,-1.0,0.686
2.0,1.0,0.687
4.0,0.0,0.688
6.0,-1.0,0.689
4.0,-3.0,0.69
0.0,-3.0,0.691
1.0,-1.0,0.692
5.0,1.0,0.693
9.0,0.0,0.694
10.0,-3.0,0.695
9.0,-3.0,0.696
10.0,2.0,0.697
7.0,4.0,0.698
3.0,2.0,0.699
-1.0,-1.0,0.7
-7.0,-5.0,0.701
-7.0,-6.0,0.702
-1.0,-3.0,0.703
6.0,0.0,0.704
6.0,4.0,0.705
2.0,2.0,0.706
3.0,-4.0,0.707
12.0,-6.0,0.708
14.0,-5.0,0.709
10.0,-1.0,0.71
6.0,0.0,0.711
7.0,-1.0,0.712
10.0,1.0,0.713
6.0,3.0,0.714
1.0,2.0,0.715
1.0,0.0,0.716
4.0,1.0,0.717
2.0,2.0,0.718
-2.0,4.0,0.719
-5.0,3.0,0.72
-6.0,-2.0,0.721
-4.0,-5.0,0.722
1.0,-6.0,0.723
8.0,-4.0,0.724
9.0,0.0,0.725
5.0,5.0,0.726
0.0,6.0,0.727
0.0,3.0,0.728
2.0,0.0,0.729
0.0,-1.0,0.73
-2.0,0.0,0.731
0.0,2.0,0.732
2.0,3.0,0.733
2.0,4.0,0.734
3.0,4.0,0.735
6.0,3.0,0.736
5.0,3.0,0.737
0.0,2.0,0.738
-3.0,1.0,0.739
-4.0,0.0,0.74
-5.0,-6.0,0.741
-3.0,-6.0,0.742
5.0,-5.0,0.743
14.0,-1.0,0.744
12.0,1.0,0.745
2.0,0.0,0.746
-2.0,-2.0,0.747
0.0,-2.0,0.748
0.0,0.0,0.749
-3.0,1.0,0.75
-3.0,-2.0,0.751
0.0,-5.0,0.752
3.0,-6.0,0.753
2.0,-3.0,0.754
0.0,-2.0,0.755
4.0,-2.0,0.756
11.0,-1.0,0.757
14.0,-1.0,0.758
13.0,-4.0,0.759
7.0,-9.0,0.76
0.0,-13.0,0.761
0.0,-8.0,0.762
7.0,-1.0,0.763
14.0,-1.0,0.764
12.0,-2.0,0.765
1.0,0.0,0.766
-3.0,1.0,0.767
1.0,-2.0,0.768
3.0,-5.0,0.769
0.0,-2.0,0.77
-3.0,1.0,0.771
-2.0,0.0,0.772
-1.0,-2.0,0.773
-3.0,-1.0,0.774
-5.0,2.0,0.775
-2.0,1.0,0.776
2.0,0.0,0.777
-1.0,0.0,0.778
-2.0,3.0,0.779
-1.0,5.0,0.78
0.0,0.0,0.781
-2.0,-2.0,0.782
0.0,1.0,0.783
5.0,2.0,0.784
8.0,2.0,0.785
4.0,1.0,0.786
2.0,1.0,0.787
3.0,2.0,0.788
3.0,3.0,0.789
0.0,3.0,0.79
-1.0,1.0,0.791
3.0,-2.0,0.792
8.0,-2.0,0.793
6.0,0.0,0.794
2.0,1.0,0.795
1.0,2.0,0.796
4.0,3.0,0.797
4.0,1.0,0.798
3.0,-1.0,0.799
1.0,-3.0,0.8
0.0,-5.0,0.801
0.0,-5.0,0.802
5.0,-5.0,0.803
13.0,-4.0,0.804
14.0,-1.0,0.805
6.0,0.0,0.806
-2.0,-2.0,0.807
-4.0,-2.0,0.808
-3.0,0.0,0.809
-2.0,2.0,0.81
0.0,0.0,0.811
8.0,-4.0,0.812
12.0,-6.0,0.813
6.0,-3.0,0.814
0.0,0.0,0.815
2.0,2.0,0.816
9.0,2.0,0.817
9.0,1.0,0.818
4.0,-1.0,0.819
-4.0,-3.0,0.82
-5.0,-7.0,0.821
-3.0,-5.0,0.822
2.0,-2.0,0.823
5.0,-2.0,0.824
5.0,-2.0,0.825
2.0,-1.0,0.826
0.0,0.0,0.827
0.0,1.0,0.828
0.0,1.0,0.829
-1.0,2.0,0.83
-4.0,2.0,0.831
-4.0,1.0,0.832
-3.0,2.0,0.833
-2.0,5.0,0.834
-1.0,9.0,0.835
1.0,5.0,0.836
7.0,2.0,0.837
16.0,-1.0,0.838
30.0,-2.0,0.839
37.0,-6.0,0.84
25.0,-11.0,0.841
-3.0,-9.0,0.842
-21.0,-4.0,0.843
-15.0,0.0,0.844
-4.0,0.0,0.845
-4.0,1.0,0.846
-6.0,3.0,0.847
0.0,1.0,0.848
3.0,-5.0,0.849
-5.0,-7.0,0.85
-18.0,-5.0,0.851
-17.0,-2.0,0.852
-6.0,-1.0,0.853
-3.0,-1.0,0.854
-7.0,2.0,0.855
-6.0,5.0,0.856
1.0,5.0,0.857
5.0,1.0,0.858
0.0,-1.0,0.859
-4.0,0.0,0.86
-1.0,-2.0,0.861
4.0,-4.0,0.862
10.0,-4.0,0.863
13.0,-2.0,0.864
15.0,2.0,0.865
16.0,4.0,0.866
15.0,2.0,0.867
14.0,1.0,0.868
11.0,1.0,0.869
7.0,2.0,0.87
7.0,2.0,0.871
10.0,1.0,0.872
9.0,1.0,0.873
2.0,2.0,0.874
-3.0,1.0,0.875
-4.0,-1.0,0.876
-4.0,-2.0,0.877
-6.0,-3.0,0.878
-4.0,-2.0,0.879
1.0,-1.0,0.88
2.0,-3.0,0.881
0.0,-3.0,0.882
3.0,-1.0,0.883
11.0,2.0,0.884
12.0,5.0,0.885
6.0,5.0,0.886
4.0,3.0,0.887
8.0,0.0,0.888
9.0,1.0,0.889
4.0,4.0,0.89
0.0,7.0,0.891
0.0,5.0,0.892
-3.0,0.0,0.893
-11.0,-3.0,0.894
-17.0,-7.0,0.895
-16.0,-10.0,0.896
-10.0,-11.0,0.897
-6.0,-12.0,0.898
-6.0,-9.0,0.899
-6.0,-7.0,0.9
-5.0,-8.0,0.901
-1.0,-8.0,0.902
8.0,-3.0,0.903
16.0,1.0,0.904
13.0,3.0,0.905
10.0,6.0,0.906
10.0,4.0,0.907
10.0,3.0,0.908
9.0,1.0,0.909
8.0,0.0,0.91
8.0,0.0,0.911
7.0,0.0,0.912
5.0,1.0,0.913
4.0,2.0,0.914
3.0,0.0,0.915
2.0,-2.0,0.916
4.0,-1.0,0.917
5.0,0.0,0.918
1.0,-1.0,0.919
-1.0,0.0,0.92
-2.0,0.0,0.921
-2.0,0.0,0.922
-1.0,-4.0,0.923
5.0,-6.0,0.924
11.0,-1.0,0.925
8.0,4.0,0.926
2.0,2.0,0.927
0.0,-2.0,0.928
3.0,-3.0,0.929
6.0,1.0,0.93
5.0,3.0,0.931
5.0,0.0,0.932
3.0,-2.0,0.933
1.0,0.0,0.934
-1.0,1.0,0.935
0.0,1.0,0.936
2.0,2.0,0.937
-2.0,1.0,0.938
-4.0,-2.0,0.939
-5.0,-5.0,0.94
-5.0,-11.0,0.941
-3.0,-9.0,0.942
0.0,-4.0,0.943
4.0,-2.0,0.944
4.0,-2.0,0.945
0.0,0.0,0.946
0.0,2.0,0.947
8.0,1.0,0.948
13.0,0.0,0.949
8.0,-3.0,0.95
2.0,-2.0,0.951
5.0,0.0,0.952
7.0,3.0,0.953
5.0,5.0,0.954
1.0,4.0,0.955
2.0,0.0,0.956
4.0,-2.0,0.957
0.0,-2.0,0.958
-5.0,0.0,0.959
-5.0,0.0,0.96
-3.0,-4.0,0.961
-3.0,-5.0,0.962
-2.0,-5.0,0.963
2.0,-3.0,0.964
7.0,-1.0,0.965
7.0,0.0,0.966
3.0,1.0,0.967
5.0,0.0,0.968
7.0,-1.0,0.969
4.0,1.0,0.97
0.0,2.0,0.971
0.0,1.0,0.972
4.0,-1.0,0.973
6.0,0.0,0.974
4.0,3.0,0.975
0.0,3.0,0.976
1.0,3.0,0.977
3.0,1.0,0.978
2.0,0.0,0.979
-2.0,-1.0,0.98
-7.0,-5.0,0.981
-7.0,-3.0,0.982
0.0,-1.0,0.983
9.0,0.0,0.984
11.0,-1.0,0.985
6.0,-3.0,0.986
3.0,-2.0,0.987
5.0,-2.0,0.988
9.0,-2.0,0.989
9.0,0.0,0.99
4.0,0.0,0.991
2.0,0.0,0.992
1.0,1.0,0.993
0.0,2.0,0.994
0.0,3.0,0.995
2.0,1.0,0.996
5.0,1.0,0.997
3.0,2.0,0.998
1.0,2.0,0.999
-3.0,-2.0,1.0
-5.0,-8.0,1.001
-6.0,-9.0,1.002
0.0,-5.0,1.003
9.0,-3.0,1.004
11.0,-1.0,1.005
4.0,2.0,1.006
1.0,5.0,1.007
5.0,2.0,1.008
8.0,-2.0,1.009
1.0,-2.0,1.01
-3.0,1.0,1.011
3.0,1.0,1.012
8.0,-1.0,1.013
3.0,-3.0,1.014
-3.0,-2.0,1.015
-2.0,0.0,1.016
1.0,3.0,1.017
1.0,4.0,1.018
-1.0,1.0,1.019
-4.0,-5.0,1.02
-4.0,-9.0,1.021
-3.0,-5.0,1.022
0.0,0.0,1.023
6.0,1.0,1.024
9.0,1.0,1.025
6.0,1.0,1.026
4.0,1.0,1.027
9.0,0.0,1.028
9.0,-1.0,1.029
4.0,0.0,1.03
2.0,1.0,1.031
3.0,0.0,1.032
4.0,0.0,1.033
1.0,1.0,1.034
-1.0,0.0,1.035
1.0,-2.0,1.036
4.0,-1.0,1.037
2.0,1.0,1.038
-1.0,3.0,1.039
-4.0,0.0,1.04
-7.0,-8.0,1.041
-6.0,-9.0,1.042
2.0,-7.0,1.043
12.0,-2.0,1.044
13.0,-2.0,1.045
2.0,0.0,1.046
-3.0,0.0,1.047
0.0,0.0,1.048
6.0,-1.0,1.049
6.0,0.0,1.05
3.0,2.0,1.051
0.0,4.0,1.052
0.0,4.0,1.053
-1.0,3.0,1.054
-1.0,2.0,1.055
1.0,2.0,1.056
4.0,3.0,1.057
3.0,0.0,1.058
1.0,-1.0,1.059
0.0,-4.0,1.06
-1.0,-9.0,1.061
-2.0,-8.0,1.062
2.0,-6.0,1.063
6.0,-3.0,1.064
6.0,0.0,1.065
5.0,1.0,1.066
5.0,-1.0,1.067
4.0,-4.0,1.068
4.0,-4.0,1.069
2.0,0.0,1.07
0.0,0.0,1.071
0.0,-2.0,1.072
2.0,-3.0,1.073
5.0,0.0,1.074
5.0,2.0,1.075
3.0,2.0,1.076
1.0,1.0,1.077
-1.0,0.0,1.078
-4.0,-2.0,1.079
-5.0,-2.0,1.08
-5.0,-6.0,1.081
-4.0,-6.0,1.082
0.0,-3.0,1.083
7.0,0.0,1.084
10.0,5.0,1.085
5.0,6.0,1.086
2.0,3.0,1.087
5.0,0.0,1.088
7.0,0.0,1.089
6.0,1.0,1.09
2.0,1.0,1.091
1.0,2.0,1.092
0.0,4.0,1.093
0.0,6.0,1.094
0.0,3.0,1.095
-1.0,0.0,1.096
-1.0,0.0,1.097
-3.0,1.0,1.098
-2.0,-1.0,1.099
-2.0,-4.0,1.1
-5.0,-4.0,1.101
-6.0,-3.0,1.102
0.0,-5.0,1.103
10.0,-5.0,1.104
11.0,0.0,1.105
6.0,3.0,1.106
3.0,0.0,1.107
7.0,-5.0,1.108
9.0,-4.0,1.109
4.0,0.0,1.11
0.0,1.0,1.111
2.0,0.0,1.112
8.0,0.0,1.113
9.0,0.0,1.114
4.0,-1.0,1.115
-3.0,-2.0,1.116
-3.0,0.0,1.117
-2.0,0.0,1.118
0.0,-1.0,1.119
-3.0,-2.0,1.12
-6.0,-5.0,1.121
-4.0,-4.0,1.122
4.0,-2.0,1.123
10.0,1.0,1.124
9.0,4.0,1.125
6.0,4.0,1.126
7.0,0.0,1.127
7.0,-4.0,1.128
4.0,0.0,1.129
1.0,4.0,1.13
1.0,4.0,1.131
3.0,0.0,1.132
2.0,-2.0,1.133
1.0,0.0,1.134
3.0,1.0,1.135
5.0,-1.0,1.136
3.0,0.0,1.137
-1.0,0.0,1.138
-2.0,2.0,1.139
-4.0,1.0,1.14
-5.0,-6.0,1.141
-5.0,-7.0,1.142
3.0,-5.0,1.143
10.0,-3.0,1.144
9.0,-1.0,1.145
8.0,-1.0,1.146
8.0,0.0,1.147
7.0,1.0,1.148
3.0,0.0,1.149
0.0,1.0,1.15
2.0,2.0,1.151
4.0,3.0,1.152
4.0,1.0,1.153
2.0,-1.0,1.154
0.0,0.0,1.155
-1.0,1.0,1.156
0.0,3.0,1.157
2.0,1.0,1.158
4.0,0.0,1.159
2.0,-1.0,1.16
-3.0,-6.0,1.161
-4.0,-5.0,1.162
0.0,-3.0,1.163
10.0,-1.0,1.164
9.0,-1.0,1.165
1.0,0.0,1.166
-1.0,1.0,1.167
4.0,2.0,1.168
7.0,2.0,1.169
3.0,1.0,1.17
-1.0,2.0,1.171
1.0,3.0,1.172
2.0,2.0,1.173
0.0,-2.0,1.174
-2.0,-5.0,1.175
-1.0,-4.0,1.176
2.0,-2.0,1.177
3.0,-2.0,1.178
1.0,-3.0,1.179
-1.0,-5.0,1.18
-2.0,-8.0,1.181
-2.0,-7.0,1.182
2.0,-5.0,1.183
9.0,-4.0,1.184
8.0,-2.0,1.185
2.0,0.0,1.186
-1.0,0.0,1.187
3.0,-4.0,1.188
6.0,-4.0,1.189
3.0,-1.0,1.19
2.0,0.0,1.191
2.0,-1.0,1.192
1.0,0.0,1.193
-1.0,4.0,1.194
1.0,5.0,1.195
7.0,3.0,1.196
7.0,3.0,1.197
4.0,0.0,1.198
2.0,0.0,1.199
2.0,-3.0,1.2
0.0,-7.0,1.201
-3.0,-7.0,1.202
0.0,-7.0,1.203
9.0,-3.0,1.204
11.0,2.0,1.205
3.0,4.0,1.206
-2.0,2.0,1.207
-1.0,0.0,1.208
2.0,1.0,1.209
2.0,3.0,1.21
0.0,1.0,1.211
-1.0,-4.0,1.212
0.0,-5.0,1.213
0.0,0.0,1.214
2.0,2.0,1.215
5.0,1.0,1.216
5.0,1.0,1.217
1.0,0.0,1.218
0.0,-1.0,1.219
-3.0,-4.0,1.22
-3.0,-8.0,1.221
-1.0,-7.0,1.222
4.0,-6.0,1.223
8.0,-3.0,1.224
6.0,0.0,1.225
5.0,2.0,1.226
6.0,0.0,1.227
7.0,-3.0,1.228
6.0,0.0,1.229
5.0,6.0,1.23
3.0,5.0,1.231
2.0,0.0,1.232
3.0,-2.0,1.233
5.0,0.0,1.234
5.0,0.0,1.235
5.0,-1.0,1.236
5.0,0.0,1.237
4.0,2.0,1.238
0.0,2.0,1.239
-3.0,-1.0,1.24
-4.0,-6.0,1.241
-4.0,-6.0,1.242
2.0,-6.0,1.243
10.0,-4.0,1.244
12.0,-2.0,1.245
5.0,-2.0,1.246
-1.0,-2.0,1.247
-1.0,-2.0,1.248
3.0,0.0,1.249
5.0,2.0,1.25
3.0,3.0,1.251
2.0,1.0,1.252
3.0,2.0,1.253
2.0,4.0,1.254
-1.0,4.0,1.255
-1.0,2.0,1.256
0.0,2.0,1.257
0.0,1.0,1.258
0.0,0.0,1.259
-1.0,-2.0,1.26
-3.0,-2.0,1.261
-4.0,-2.0,1.262
0.0,-1.0,1.263
4.0,0.0,1.264
4.0,1.0,1.265
5.0,1.0,1.266
5.0,0.0,1.267
4.0,-1.0,1.268
4.0,0.0,1.269
4.0,3.0,1.27
2.0,3.0,1.271
0.0,1.0,1.272
1.0,0.0,1.273
2.0,-3.0,1.274
0.0,-3.0,1.275
-1.0,-3.0,1.276
1.0,-2.0,1.277
4.0,-1.0,1.278
1.0,-3.0,1.279
-4.0,-4.0,1.28
-7.0,-7.0,1.281
-6.0,-7.0,1.282
1.0,-4.0,1.283
9.0,-2.0,1.284
11.0,-1.0,1.285
6.0,-1.0,1.286
2.0,-2.0,1.287
4.0,-2.0,1.288
7.0,0.0,1.289
7.0,1.0,1.29
5.0,0.0,1.291
6.0,0.0,1.292
9.0,1.0,1.293
8.0,2.0,1.294
6.0,3.0,1.295
4.0,2.0,1.296
4.0,2.0,1.297
0.0,0.0,1.298
-1.0,-2.0,1.299
-3.0,-5.0,1.3
-4.0,-11.0,1.301
-4.0,-12.0,1.302
1.0,-7.0,1.303
5.0,-1.0,1.304
4.0,3.0,1.305
3.0,5.0,1.306
3.0,4.0,1.307
2.0,1.0,1.308
5.0,-1.0,1.309
7.0,0.0,1.31
3.0,3.0,1.311
0.0,3.0,1.312
2.0,2.0,1.313
4.0,1.0,1.314
5.0,2.0,1.315
5.0,1.0,1.316
2.0,2.0,1.317
-1.0,0.0,1.318
-5.0,-1.0,1.319
-6.0,-4.0,1.32
-4.0,-8.0,1.321
-2.0,-7.0,1.322
1.0,-2.0,1.323
9.0,0.0,1.324
12.0,3.0,1.325
6.0,5.0,1.326
0.0,5.0,1.327
1.0,1.0,1.328
3.0,0.0,1.329
2.0,1.0,1.33
-1.0,4.0,1.331
0.0,3.0,1.332
2.0,1.0,1.333
3.0,1.0,1.334
2.0,0.0,1.335
4.0,-1.0,1.336
5.0,0.0,1.337
5.0,0.0,1.338
2.0,2.0,1.339
-1.0,0.0,1.34
-5.0,-6.0,1.341
-5.0,-8.0,1.342
0.0,-7.0,1.343
8.0,-3.0,1.344
9.0,1.0,1.345
6.0,5.0,1.346
3.0,4.0,1.347
7.0,2.0,1.348
9.0,-1.0,1.349
3.0,0.0,1.35
-1.0,0.0,1.351
-1.0,0.0,1.352
1.0,-2.0,1.353
3.0,0.0,1.354
4.0,3.0,1.355
4.0,3.0,1.356
2.0,2.0,1.357
-1.0,-1.0,1.358
0.0,-2.0,1.359
-1.0,-4.0,1.36
-5.0,-7.0,1.361
-7.0,-8.0,1.362
-3.0,-6.0,1.363
4.0,-3.0,1.364
5.0,1.0,1.365
0.0,3.0,1.366
-1.0,2.0,1.367
4.0,-1.0,1.368
8.0,-1.0,1.369
3.0,3.0,1.37
0.0,5.0,1.371
2.0,3.0,1.372
5.0,0.0,1.373
0.0,0.0,1.374
-2.0,1.0,1.375
0.0,0.0,1.376
4.0,2.0,1.377
6.0,3.0,1.378
5.0,2.0,1.379
2.0,-2.0,1.38
-4.0,-9.0,1.381
-9.0,-9.0,1.382
-3.0,-8.0,1.383
10.0,-4.0,1.384
13.0,0.0,1.385
5.0,4.0,1.386
-1.0,1.0,1.387
2.0,-3.0,1.388
5.0,-4.0,1.389
2.0,-2.0,1.39
0.0,-2.0,1.391
7.0,-5.0,1.392
8.0,-4.0,1.393
1.0,-2.0,1.394
-3.0,-1.0,1.395
0.0,-4.0,1.396
4.0,-4.0,1.397
0.0,-3.0,1.398
-1.0,-1.0,1.399
-3.0,-2.0,1.4
-3.0,-5.0,1.401
-3.0,-5.0,1.402
0.0,-3.0,1.403
4.0,0.0,1.404
8.0,3.0,1.405
10.0,4.0,1.406
5.0,2.0,1.407
1.0,0.0,1.408
5.0,1.0,1.409
7.0,4.0,1.41
4.0,3.0,1.411
1.0,0.0,1.412
2.0,0.0,1.413
3.0,5.0,1.414
1.0,6.0,1.415
-1.0,1.0,1.416
0.0,-1.0,1.417
0.0,1.0,1.418
-4.0,2.0,1.419
-6.0,-1.0,1.42
-5.0,-7.0,1.421
-3.0,-9.0,1.422
0.0,-6.0,1.423
9.0,-3.0,1.424
13.0,0.0,1.425
7.0,0.0,1.426
3.0,-2.0,1.427
5.0,-4.0,1.428
7.0,-3.0,1.429
3.0,-1.0,1.43
0.0,0.0,1.431
-2.0,2.0,1.432
-2.0,3.0,1.433
-2.0,2.0,1.434
0.0,1.0,1.435
1.0,0.0,1.436
3.0,0.0,1.437
1.0,-3.0,1.438
2.0,-5.0,1.439
2.0,-6.0,1.44
-1.0,-7.0,1.441
-3.0,-5.0,1.442
4.0,-5.0,1.443
14.0,-4.0,1.444
14.0,-4.0,1.445
5.0,-4.0,1.446
3.0,-4.0,1.447
7.0,-3.0,1.448
9.0,-1.0,1.449
3.0,1.0,1.45
-1.0,2.0,1.451
1.0,1.0,1.452
3.0,1.0,1.453
0.0,1.0,1.454
-2.0,2.0,1.455
1.0,1.0,1.456
5.0,0.0,1.457
4.0,-3.0,1.458
1.0,-5.0,1.459
-4.0,-3.0,1.46
-7.0,-4.0,1.461
-5.0,-3.0,1.462
1.0,-2.0,1.463
9.0,0.0,1.464
8.0,1.0,1.465
-1.0,-1.0,1.466
-3.0,-2.0,1.467
1.0,-2.0,1.468
3.0,1.0,1.469
1.0,4.0,1.47
-1.0,4.0,1.471
1.0,2.0,1.472
2.0,2.0,1.473
0.0,2.0,1.474
0.0,1.0,1.475
4.0,-1.0,1.476
6.0,0.0,1.477
6.0,0.0,1.478
5.0,-1.0,1.479
1.0,-3.0,1.48
-5.0,-5.0,1.481
-8.0,-6.0,1.482
1.0,-5.0,1.483
14.0,-3.0,1.484
14.0,0.0,1.485
3.0,3.0,1.486
0.0,2.0,1.487
6.0,-3.0,1.488
7.0,-4.0,1.489
0.0,-1.0,1.49
0.0,1.0,1.491
5.0,0.0,1.492
6.0,-1.0,1.493
-2.0,0.0,1.494
-8.0,0.0,1.495
-4.0,-3.0,1.496
2.0,-2.0,1.497
1.0,0.0,1.498
-2.0,2.0,1.499
-5.0,0.0,1.5
-3.0,-5.0,1.501
-2.0,-6.0,1.502
2.0,-6.0,1.503
9.0,-4.0,1.504
10.0,-2.0,1.505
5.0,3.0,1.506
3.0,4.0,1.507
7.0,1.0,1.508
11.0,0.0,1.509
8.0,1.0,1.51
2.0,3.0,1.511
-1.0,0.0,1.512
-1.0,-2.0,1.513
0.0,0.0,1.514
1.0,3.0,1.515
1.0,1.0,1.516
1.0,0.0,1.517
1.0,-3.0,1.518
1.0,-3.0,1.519
2.0,-3.0,1.52
0.0,-6.0,1.521
-1.0,-7.0,1.522
2.0,-7.0,1.523
9.0,-3.0,1.524
11.0,4.0,1.525
5.0,8.0,1.526
0.0,5.0,1.527
0.0,-3.0,1.528
4.0,-4.0,1.529
5.0,1.0,1.53
2.0,3.0,1.531
2.0,0.0,1.532
4.0,-3.0,1.533
3.0,-1.0,1.534
1.0,2.0,1.535
1.0,0.0,1.536
5.0,-3.0,1.537
5.0,-4.0,1.538
1.0,-3.0,1.539
-4.0,-3.0,1.54
-5.0,-6.0,1.541
-2.0,-5.0,1.542
3.0,-3.0,1.543
6.0,-2.0,1.544
5.0,1.0,1.545
1.0,4.0,1.546
0.0,3.0,1.547
1.0,0.0,1.548
4.0,-3.0,1.549
2.0,2.0,1.55
-2.0,7.0,1.551
-5.0,8.0,1.552
-3.0,5.0,1.553
-1.0,3.0,1.554
0.0,3.0,1.555
0.0,5.0,1.556
1.0,7.0,1.557
2.0,6.0,1.558
2.0,4.0,1.559
0.0,1.0,1.56
-3.0,-4.0,1.561
-4.0,-4.0,1.562
0.0,-3.0,1.563
8.0,0.0,1.564
12.0,1.0,1.565
7.0,2.0,1.566
1.0,1.0,1.567
0.0,0.0,1.568
2.0,-3.0,1.569
2.0,-6.0,1.57
0.0,-7.0,1.571
0.0,-5.0,1.572
1.0,-2.0,1.573
1.0,0.0,1.574
0.0,-2.0,1.575
0.0,-5.0,1.576
3.0,-2.0,1.577
5.0,-1.0,1.578
4.0,-3.0,1.579
-1.0,-5.0,1.58
-4.0,-6.0,1.581
-3.0,-3.0,1.582
0.0,-2.0,1.583
8.0,-5.0,1.584
12.0,-3.0,1.585
13.0,0.0,1.586
8.0,0.0,1.587
5.0,-4.0,1.588
5.0,-4.0,1.589
7.0,-2.0,1.59
7.0,-1.0,1.591
6.0,-4.0,1.592
6.0,-4.0,1.593
8.0,-1.0,1.594
7.0,1.0,1.595
2.0,1.0,1.596
0.0,0.0,1.597
0.0,-2.0,1.598
2.0,-3.0,1.599
-1.0,-4.0,1.6
-3.0,-6.0,1.601
-1.0,-4.0,1.602
4.0,-3.0,1.603
4.0,-1.0,1.604
0.0,1.0,1.605
-2.0,3.0,1.606
0.0,2.0,1.607
5.0,0.0,1.608
7.0,0.0,1.609
5.0,4.0,1.61
4.0,3.0,1.611
5.0,-1.0,1.612
3.0,-3.0,1.613
0.0,0.0,1.614
-2.0,2.0,1.615
1.0,0.0,1.616
7.0,-2.0,1.617
2.0,-2.0,1.618
-5.0,0.0,1.619
-8.0,0.0,1.62
-4.0,-5.0,1.621
0.0,-6.0,1.622
6.0,-2.0,1.623
9.0,1.0,1.624
10.0,2.0,1.625
6.0,3.0,1.626
1.0,4.0,1.627
0.0,2.0,1.628
1.0,-2.0,1.629
1.0,-4.0,1.63
2.0,0.0,1.631
3.0,5.0,1.632
1.0,7.0,1.633
-4.0,7.0,1.634
-4.0,8.0,1.635
0.0,7.0,1.636
6.0,6.0,1.637
13.0,1.0,1.638
3.0,-3.0,1.639
-4.0,-6.0,1.64
-5.0,-10.0,1.641
-5.0,-10.0,1.642
1.0,-8.0,1.643
8.0,-3.0,1.644
7.0,-1.0,1.645
4.0,0.0,1.646
2.0,0.0,1.647
1.0,1.0,1.648
1.0,1.0,1.649
2.0,0.0,1.65
4.0,0.0,1.651
7.0,0.0,1.652
7.0,0.0,1.653
5.0,0.0,1.654
2.0,-1.0,1.655
0.0,-4.0,1.656
0.0,-5.0,1.657
11.0,-5.0,1.658
3.0,-2.0,1.659
-3.0,0.0,1.66
-4.0,-1.0,1.661
-4.0,-3.0,1.662
1.0,-1.0,1.663
7.0,0.0,1.664
6.0,-1.0,1.665
4.0,-2.0,1.666
2.0,0.0,1.667
1.0,1.0,1.668
1.0,3.0,1.669
2.0,4.0,1.67
4.0,2.0,1.671
6.0,1.0,1.672
6.0,0.0,1.673
5.0,-1.0,1.674
2.0,-3.0,1.675
0.0,-4.0,1.676
0.0,-2.0,1.677
1.0,0.0,1.678
0.0,-2.0,1.679
-1.0,-4.0,1.68
-2.0,-4.0,1.681
-5.0,-2.0,1.682
-2.0,0.0,1.683
6.0,0.0,1.684
12.0,2.0,1.685
7.0,3.0,1.686
-1.0,1.0,1.687
-1.0,-3.0,1.688
2.0,-5.0,1.689
1.0,-1.0,1.69
-4.0,2.0,1.691
-4.0,5.0,1.692
1.0,5.0,1.693
4.0,3.0,1.694
3.0,2.0,1.695
1.0,1.0,1.696
2.0,4.0,1.697
0.0,3.0,1.698
-1.0,-1.0,1.699
-4.0,-3.0,1.7
-6.0,-4.0,1.701
-5.0,-4.0,1.702
2.0,-4.0,1.703
11.0,-5.0,1.704
11.0,-4.0,1.705
4.0,0.0,1.706
0.0,0.0,1.707
2.0,-2.0,1.708
4.0,-2.0,1.709
4.0,0.0,1.71
4.0,2.0,1.711
6.0,0.0,1.712
5.0,-2.0,1.713
2.0,-1.0,1.714
2.0,1.0,1.715
7.0,0.0,1.716
9.0,-2.0,1.717
8.0,-4.0,1.718
6.0,-3.0,1.719
3.0,-4.0,1.72
-1.0,-8.0,1.721
-5.0,-10.0,1.722
-3.0,-10.0,1.723
5.0,-6.0,1.724
9.0,-1.0,1.725
5.0,2.0,1.726
0.0,3.0,1.727
1.0,0.0,1.728
4.0,0.0,1.729
2.0,0.0,1.73
-2.0,0.0,1.731
0.0,-2.0,1.732
6.0,-3.0,1.733
7.0,0.0,1.734
3.0,2.0,1.735
0.0,1.0,1.736
1.0,1.0,1.737
0.0,1.0,1.738
-1.0,0.0,1.739
-2.0,-1.0,1.74
-3.0,-4.0,1.741
-2.0,-3.0,1.742
1.0,-3.0,1.743
7.0,-3.0,1.744
6.0,-2.0,1.745
1.0,4.0,1.746
0.0,6.0,1.747
3.0,3.0,1.748
3.0,1.0,1.749
0.0,2.0,1.75
1.0,2.0,1.751
6.0,0.0,1.752
5.0,-2.0,1.753
0.0,0.0,1.754
0.0,0.0,1.755
5.0,-1.0,1.756
8.0,-1.0,1.757
3.0,0.0,1.758
1.0,0.0,1.759
3.0,-3.0,1.76
2.0,-8.0,1.761
-1.0,-5.0,1.762
0.0,0.0,1.763
9.0,1.0,1.764
12.0,2.0,1.765
5.0,2.0,1.766
0.0,3.0,1.767
2.0,0.0,1.768
4.0,-4.0,1.769
0.0,-1.0,1.77
0.0,2.0,1.771
5.0,1.0,1.772
5.0,0.0,1.773
-2.0,1.0,1.774
-7.0,3.0,1.775
-6.0,1.0,1.776
-3.0,0.0,1.777
-1.0,2.0,1.778
1.0,2.0,1.779
4.0,-1.0,1.78
2.0,-8.0,1.781
0.0,-8.0,1.782
6.0,-3.0,1.783
17.0,-1.0,1.784
21.0,-2.0,1.785
16.0,-2.0,1.786
7.0,0.0,1.787
3.0,1.0,1.788
0.0,0.0,1.789
-1.0,0.0,1.79
-1.0,2.0,1.791
0.0,0.0,1.792
2.0,-2.0,1.793
1.0,-4.0,1.794
0.0,-4.0,1.795
-2.0,-2.0,1.796
-2.0,2.0,1.797
-2.0,4.0,1.798
0.0,4.0,1.799
-3.0,0.0,1.8
-5.0,-6.0,1.801
-4.0,-6.0,1.802
2.0,-4.0,1.803
7.0,-2.0,1.804
4.0,-1.0,1.805
0.0,2.0,1.806
-1.0,0.0,1.807
3.0,-4.0,1.808
6.0,-4.0,1.809
4.0,-1.0,1.81
1.0,0.0,1.811
0.0,1.0,1.812
-2.0,3.0,1.813
-1.0,5.0,1.814
2.0,3.0,1.815
6.0,-1.0,1.816
6.0,-3.0,1.817
3.0,-4.0,1.818
0.0,-2.0,1.819
-4.0,-1.0,1.82
-5.0,-5.0,1.821
-3.0,-6.0,1.822
2.0,-7.0,1.823
7.0,-3.0,1.824
6.0,1.0,1.825
3.0,0.0,1.826
4.0,-3.0,1.827
6.0,-4.0,1.828
8.0,0.0,1.829
6.0,5.0,1.83
3.0,6.0,1.831
1.0,2.0,1.832
2.0,0.0,1.833
5.0,1.0,1.834
5.0,5.0,1.835
2.0,4.0,1.836
1.0,4.0,1.837
0.0,-1.0,1.838
-2.0,-3.0,1.839
-6.0,-2.0,1.84
-7.0,-4.0,1.841
-6.0,-4.0,1.842
0.0,-3.0,1.843
6.0,-2.0,1.844
7.0,1.0,1.845
3.0,3.0,1.846
3.0,1.0,1.847
5.0,-1.0,1.848
6.0,-3.0,1.849
4.0,-3.0,1.85
3.0,-3.0,1.851
3.0,-3.0,1.852
2.0,-2.0,1.853
1.0,-1.0,1.854
0.0,0.0,1.855
4.0,0.0,1.856
7.0,0.0,1.857
5.0,1.0,1.858
0.0,-1.0,1.859
-3.0,-4.0,1.86
-5.0,-9.0,1.861
-4.0,-6.0,1.862
4.0,-1.0,1.863
12.0,2.0,1.864
13.0,1.0,1.865
4.0,0.0,1.866
-2.0,1.0,1.867
0.0,1.0,1.868
6.0,0.0,1.869
5.0,0.0,1.87
0.0,-1.0,1.871
-1.0,-1.0,1.872
1.0,0.0,1.873
4.0,0.0,1.874
4.0,1.0,1.875
3.0,0.0,1.876
2.0,0.0,1.877
2.0,0.0,1.878
3.0,0.0,1.879
0.0,-3.0,1.88
-5.0,-7.0,1.881
-5.0,-6.0,1.882
0.0,-3.0,1.883
9.0,0.0,1.884
8.0,0.0,1.885
7.0,1.0,1.886
17.0,4.0,1.887
38.0,2.0,1.888
53.0,-1.0,1.889
40.0,-1.0,1.89
4.0,3.0,1.891
-28.0,3.0,1.892
-38.0,0.0,1.893
-32.0,-2.0,1.894
-25.0,0.0,1.895
-24.0,3.0,1.896
-19.0,6.0,1.897
-8.0,3.0,1.898
-1.0,-2.0,1.899
-6.0,-5.0,1.9
-17.0,-8.0,1.901
-16.0,-8.0,1.902
-1.0,-5.0,1.903
13.0,0.0,1.904
17.0,3.0,1.905
11.0,4.0,1.906
9.0,0.0,1.907
14.0,-7.0,1.908
19.0,-7.0,1.909
19.0,-1.0,1.91
18.0,3.0,1.911
19.0,1.0,1.912
16.0,-1.0,1.913
10.0,-1.0,1.914
4.0,0.0,1.915
5.0,0.0,1.916
10.0,1.0,1.917
7.0,-1.0,1.918
2.0,-4.0,1.919
-2.0,-5.0,1.92
-4.0,-8.0,1.921
-3.0,-7.0,1.922
-1.0,-4.0,1.923
5.0,-1.0,1.924
7.0,4.0,1.925
3.0,8.0,1.926
1.0,7.0,1.927
4.0,2.0,1.928
6.0,0.0,1.929
1.0,3.0,1.93
-2.0,6.0,1.931
-2.0,5.0,1.932
0.0,3.0,1.933
1.0,4.0,1.934
0.0,4.0,1.935
0.0,2.0,1.936
2.0,1.0,1.937
1.0,-1.0,1.938
0.0,-4.0,1.939
0.0,-4.0,1.94
-2.0,-5.0,1.941
-4.0,-5.0,1.942
-1.0,-5.0,1.943
3.0,-4.0,1.944
3.0,0.0,1.945
-2.0,3.0,1.946
-3.0,0.0,1.947
1.0,-3.0,1.948
5.0,-2.0,1.949
2.0,1.0,1.95
-1.0,2.0,1.951
0.0,-2.0,1.952
3.0,-3.0,1.953
4.0,-1.0,1.954
4.0,1.0,1.955
7.0,0.0,1.956
8.0,0.0,1.957
6.0,0.0,1.958
4.0,0.0,1.959
1.0,-1.0,1.96
-2.0,-5.0,1.961
-5.0,-8.0,1.962
-3.0,-6.0,1.963
3.0,-4.0,1.964
7.0,0.0,1.965
5.0,2.0,1.966
4.0,0.0,1.967
4.0,-2.0,1.968
4.0,-1.0,1.969
2.0,0.0,1.97
2.0,0.0,1.971
4.0,-1.0,1.972
4.0,-1.0,1.973
2.0,0.0,1.974
0.0,0.0,1.975
-1.0,-1.0,1.976
-2.0,-1.0,1.977
-3.0,0.0,1.978
-2.0,0.0,1.979
-2.0,-1.0,1.98
-3.0,-5.0,1.981
-2.0,-3.0,1.982
3.0,-2.0,1.983
9.0,-2.0,1.984
12.0,-2.0,1.985
17.0,0.0,1.986
33.0,0.0,1.987
47.0,-1.0,1.988
38.0,0.0,1.989
1.0,5.0,1.99
-35.0,6.0,1.991
-43.0,5.0,1.992
-30.0,3.0,1.993
-21.0,4.0,1.994
-20.0,4.0,1.995
-13.0,-1.0,1.996
0.0,-3.0,1.997
11.0,-2.0,1.998
11.0,1.0,1.999
8.0,0.0,2.0
8.0,-7.0,2.001
9.0,-6.0,2.002
10.0,-3.0,2.003
13.0,-2.0,2.004
15.0,0.0,2.005
8.0,3.0,2.006
0.0,4.0,2.007
0.0,1.0,2.008
7.0,-1.0,2.009
7.0,1.0,2.01
0.0,3.0,2.011
0.0,0.0,2.012
3.0,-2.0,2.013
1.0,0.0,2.014
-3.0,4.0,2.015
-1.0,2.0,2.016
4.0,-2.0,2.017
6.0,-5.0,2.018
2.0,-4.0,2.019
-1.0,-1.0,2.02
-1.0,-4.0,2.021
-1.0,-5.0,2.022
-1.0,-3.0,2.023
4.0,-1.0,2.024
9.0,1.0,2.025
7.0,1.0,2.026
2.0,0.0,2.027
2.0,-1.0,2.028
2.0,0.0,2.029
2.0,2.0,2.03
1.0,1.0,2.031
2.0,-2.0,2.032
3.0,-2.0,2.033
2.0,2.0,2.034
0.0,4.0,2.035
1.0,1.0,2.036
3.0,-1.0,2.037
1.0,-2.0,2.038
-2.0,0.0,2.039
-4.0,-3.0,2.04
-4.0,-8.0,2.041
-1.0,-8.0,2.042
7.0,-3.0,2.043
15.0,1.0,2.044
14.0,4.0,2.045
4.0,6.0,2.046
-1.0,3.0,2.047
2.0,-2.0,2.048
3.0,-3.0,2.049
1.0,3.0,2.05
1.0,7.0,2.051
6.0,3.0,2.052
8.0,-2.0,2.053
3.0,-1.0,2.054
1.0,3.0,2.055
5.0,2.0,2.056
10.0,-1.0,2.057
6.0,-4.0,2.058
1.0,-3.0,2.059
-4.0,-2.0,2.06
-7.0,-5.0,2.061
-7.0,-5.0,2.062
-1.0,-4.0,2.063
5.0,-3.0,2.064
5.0,1.0,2.065
0.0,4.0,2.066
1.0,2.0,2.067
8.0,-2.0,2.068
10.0,-2.0,2.069
4.0,2.0,2.07
1.0,4.0,2.071
6.0,1.0,2.072
17.0,0.0,2.073
30.0,3.0,2.074
40.0,4.0,2.075
35.0,-1.0,2.076
14.0,-4.0,2.077
-18.0,-3.0,2.078
-36.0,-2.0,2.079
-36.0,-5.0,2.08
-31.0,-11.0,2.081
-30.0,-10.0,2.082
-21.0,-5.0,2.083
-2.0,-3.0,2.084
10.0,-2.0,2.085
3.0,0.0,2.086
-5.0,1.0,2.087
0.0,2.0,2.088
7.0,0.0,2.089
6.0,0.0,2.09
1.0,2.0,2.091
3.0,4.0,2.092
8.0,4.0,2.093
5.0,3.0,2.094
2.0,1.0,2.095
6.0,0.0,2.096
13.0,-2.0,2.097
13.0,-4.0,2.098
12.0,-2.0,2.099
12.0,0.0,2.1
10.0,-2.0,2.101
4.0,-5.0,2.102
4.0,-5.0,2.103
8.0,-2.0,2.104
8.0,3.0,2.105
2.0,5.0,2.106
0.0,2.0,2.107
6.0,0.0,2.108
10.0,-1.0,2.109
6.0,-1.0,2.11
0.0,-1.0,2.111
1.0,-1.0,2.112
4.0,0.0,2.113
3.0,2.0,2.114
1.0,3.0,2.115
0.0,1.0,2.116
3.0,1.0,2.117
2.0,0.0,2.118
0.0,0.0,2.119
-5.0,-1.0,2.12
-7.0,-3.0,2.121
-5.0,-4.0,2.122
3.0,-2.0,2.123
9.0,-1.0,2.124
4.0,-3.0,2.125
-5.0,-2.0,2.126
-9.0,-2.0,2.127
-3.0,0.0,2.128
2.0,4.0,2.129
4.0,8.0,2.13
2.0,5.0,2.131
2.0,0.0,2.132
3.0,-3.0,2.133
1.0,0.0,2.134
1.0,3.0,2.135
2.0,0.0,2.136
5.0,0.0,2.137
5.0,0.0,2.138
1.0,-2.0,2.139
-5.0,-5.0,2.14
-8.0,-9.0,2.141
-4.0,-7.0,2.142
4.0,-3.0,2.143
10.0,-2.0,2.144
9.0,-1.0,2.145
4.0,2.0,2.146
2.0,5.0,2.147
3.0,1.0,2.148
4.0,-4.0,2.149
4.0,-4.0,2.15
5.0,0.0,2.151
8.0,0.0,2.152
5.0,-1.0,2.153
0.0,0.0,2.154
-3.0,0.0,2.155
-3.0,-2.0,2.156
-3.0,-2.0,2.157
-2.0,-1.0,2.158
1.0,0.0,2.159
2.0,-2.0,2.16
-1.0,-8.0,2.161
-5.0,-7.0,2.162
-1.0,-3.0,2.163
7.0,0.0,2.164
11.0,4.0,2.165
5.0,7.0,2.166
2.0,6.0,2.167
5.0,2.0,2.168
8.0,-1.0,2.169
5.0,0.0,2.17
1.0,0.0,2.171
3.0,-3.0,2.172
11.0,-4.0,2.173
22.0,-3.0,2.174
32.0,0.0,2.175
36.0,0.0,2.176
22.0,0.0,2.177
-11.0,-3.0,2.178
-38.0,-4.0,2.179
-46.0,-2.0,2.18
-38.0,-1.0,2.181
-28.0,-2.0,2.182
-15.0,-4.0,2.183
1.0,-5.0,2.184
11.0,-1.0,2.185
12.0,3.0,2.186
10.0,3.0,2.187
15.0,-2.0,2.188
19.0,-4.0,2.189
14.0,-1.0,2.19
4.0,1.0,2.191
0.0,3.0,2.192
3.0,5.0,2.193
4.0,7.0,2.194
2.0,6.0,2.195
1.0,3.0,2.196
3.0,2.0,2.197
3.0,1.0,2.198
2.0,-1.0,2.199
0.0,-4.0,2.2
0.0,-7.0,2.201
-1.0,-7.0,2.202
2.0,-5.0,2.203
8.0,-1.0,2.204
8.0,3.0,2.205
5.0,5.0,2.206
2.0,4.0,2.207
4.0,2.0,2.208
5.0,1.0,2.209
0.0,0.0,2.21
-2.0,-1.0,2.211
0.0,-2.0,2.212
3.0,1.0,2.213
3.0,2.0,2.214
0.0,-1.0,2.215
1.0,-3.0,2.216
6.0,0.0,2.217
4.0,0.0,2.218
1.0,-5.0,2.219
0.0,-8.0,2.22
2.0,-8.0,2.221
4.0,-4.0,2.222
6.0,-6.0,2.223
5.0,-7.0,2.224
3.0,-1.0,2.225
-1.0,5.0,2.226
-2.0,3.0,2.227
2.0,-2.0,2.228
5.0,-1.0,2.229
1.0,5.0,2.23
-1.0,8.0,2.231
0.0,4.0,2.232
2.0,1.0,2.233
2.0,0.0,2.234
1.0,-1.0,2.235
2.0,-3.0,2.236
6.0,0.0,2.237
2.0,2.0,2.238
-2.0,1.0,2.239
-4.0,-2.0,2.24
-3.0,-6.0,2.241
-3.0,-5.0,2.242
-1.0,-3.0,2.243
2.0,-2.0,2.244
5.0,0.0,2.245
7.0,2.0,2.246
14.0,2.0,2.247
30.0,0.0,2.248
44.0,-1.0,2.249
38.0,-1.0,2.25
12.0,-2.0,2.251
-16.0,0.0,2.252
-28.0,4.0,2.253
-31.0,5.0,2.254
-31.0,0.0,2.255
-34.0,-3.0,2.256
-29.0,0.0,2.257
-19.0,0.0,2.258
-8.0,-1.0,2.259
0.0,-3.0,2.26
-3.0,-4.0,2.261
-3.0,-5.0,2.262
10.0,-6.0,2.263
21.0,-6.0,2.264
22.0,0.0,2.265
23.0,3.0,2.266
22.0,1.0,2.267
19.0,-1.0,2.268
13.0,-1.0,2.269
9.0,-1.0,2.27
9.0,0.0,2.271
7.0,1.0,2.272
5.0,0.0,2.273
3.0,-2.0,2.274
1.0,0.0,2.275
0.0,2.0,2.276
0.0,0.0,2.277
2.0,0.0,2.278
1.0,2.0,2.279
-3.0,0.0,2.28
-7.0,-5.0,2.281
-7.0,-5.0,2.282
0.0,-2.0,2.283
8.0,0.0,2.284
8.0,0.0,2.285
2.0,3.0,2.286
-1.0,5.0,2.287
1.0,3.0,2.288
4.0,-1.0,2.289
2.0,-1.0,2.29
-1.0,0.0,2.291
-1.0,1.0,2.292
3.0,1.0,2.293
5.0,2.0,2.294
2.0,2.0,2.295
0.0,0.0,2.296
1.0,1.0,2.297
2.0,0.0,2.298
3.0,-2.0,2.299
1.0,-6.0,2.3
-2.0,-9.0,2.301
-4.0,-6.0,2.302
0.0,-2.0,2.303
6.0,-2.0,2.304
9.0,-3.0,2.305
4.0,-1.0,2.306
0.0,1.0,2.307
0.0,1.0,2.308
5.0,0.0,2.309
7.0,2.0,2.31
3.0,3.0,2.311
1.0,2.0,2.312
0.0,2.0,2.313
1.0,3.0,2.314
2.0,2.0,2.315
0.0,-2.0,2.316
0.0,0.0,2.317
-3.0,3.0,2.318
-2.0,5.0,2.319
-2.0,-1.0,2.32
-5.0,-11.0,2.321
-6.0,-9.0,2.322
-1.0,-3.0,2.323
11.0,0.0,2.324
20.0,0.0,2.325
27.0,-1.0,2.326
32.0,-2.0,2.327
30.0,-3.0,2.328
9.0,-2.0,2.329
-18.0,3.0,2.33
-30.0,6.0,2.331
-25.0,4.0,2.332
-20.0,0.0,2.333
-21.0,-1.0,2.334
-15.0,-1.0,2.335
0.0,-2.0,2.336
11.0,-2.0,2.337
7.0,-1.0,2.338
0.0,-2.0,2.339
-4.0,-5.0,2.34
-2.0,-7.0,2.341
0.0,-5.0,2.342
6.0,-2.0,2.343
12.0,0.0,2.344
12.0,2.0,2.345
12.0,2.0,2.346
8.0,0.0,2.347
5.0,-2.0,2.348
9.0,-2.0,2.349
12.0,-1.0,2.35
8.0,0.0,2.351
4.0,-1.0,2.352
5.0,0.0,2.353
6.0,1.0,2.354
6.0,2.0,2.355
5.0,2.0,2.356
3.0,4.0,2.357
2.0,5.0,2.358
2.0,3.0,2.359
1.0,-2.0,2.36
-2.0,-7.0,2.361
-7.0,-8.0,2.362
-6.0,-8.0,2.363
0.0,-4.0,2.364
5.0,-1.0,2.365
3.0,0.0,2.366
2.0,-1.0,2.367
5.0,-3.0,2.368
7.0,-2.0,2.369
6.0,0.0,2.37
8.0,0.0,2.371
13.0,2.0,2.372
14.0,2.0,2.373
11.0,2.0,2.374
9.0,0.0,2.375
8.0,0.0,2.376
6.0,3.0,2.377
0.0,3.0,2.378
-3.0,0.0,2.379
-4.0,-2.0,2.38
-7.0,-5.0,2.381
-8.0,-5.0,2.382
0.0,-4.0,2.383
9.0,-1.0,2.384
9.0,4.0,2.385
2.0,7.0,2.386
0.0,6.0,2.387
5.0,6.0,2.388
5.0,7.0,2.389
0.0,5.0,2.39
-4.0,1.0,2.391
4.0,0.0,2.392
18.0,2.0,2.393
28.0,1.0,2.394
27.0,-1.0,2.395
10.0,-1.0,2.396
-12.0,3.0,2.397
-31.0,2.0,2.398
-33.0,-3.0,2.399
-32.0,-6.0,2.4
-32.0,-8.0,2.401
-26.0,-8.0,2.402
-9.0,-7.0,2.403
11.0,-6.0,2.404
12.0,-2.0,2.405
1.0,2.0,2.406
2.0,0.0,2.407
12.0,-1.0,2.408
17.0,-2.0,2.409
11.0,0.0,2.41
6.0,0.0,2.411
11.0,-1.0,2.412
14.0,-1.0,2.413
11.0,-2.0,2.414
10.0,-3.0,2.415
16.0,0.0,2.416
19.0,4.0,2.417
1.0,1.0,2.418
0.0,-4.0,2.419
-2.0,-7.0,2.42
-3.0,-6.0,2.421
-3.0,-2.0,2.422
0.0,0.0,2.423
5.0,0.0,2.424
5.0,0.0,2.425
2.0,1.0,2.426
-5.0,-1.0,2.427
-10.0,-3.0,2.428
-6.0,-1.0,2.429
-4.0,2.0,2.43
-3.0,4.0,2.431
-1.0,3.0,2.432
0.0,0.0,2.433
1.0,-1.0,2.434
1.0,-2.0,2.435
3.0,-1.0,2.436
8.0,1.0,2.437
2.0,0.0,2.438
0.0,-2.0,2.439
-3.0,-4.0,2.44
-4.0,-4.0,2.441
-4.0,-4.0,2.442
1.0,-2.0,2.443
6.0,-1.0,2.444
6.0,0.0,2.445
3.0,1.0,2.446
-6.0,0.0,2.447
-12.0,-1.0,2.448
-8.0,0.0,2.449
-5.0,2.0,2.45
-4.0,0.0,2.451
-2.0,-1.0,2.452
0.0,0.0,2.453
2.0,1.0,2.454
2.0,4.0,2.455
4.0,6.0,2.456
10.0,4.0,2.457
16.0,3.0,2.458
16.0,1.0,2.459
7.0,-2.0,2.46
1.0,-7.0,2.461
4.0,-4.0,2.462
12.0,-2.0,2.463
17.0,0.0,2.464
16.0,0.0,2.465
10.0,2.0,2.466
5.0,2.0,2.467
8.0,0.0,2.468
21.0,-2.0,2.469
31.0,0.0,2.47
23.0,2.0,2.471
-5.0,1.0,2.472
-28.0,0.0,2.473
-32.0,1.0,2.474
-27.0,3.0,2.475
-25.0,0.0,2.476
-23.0,-2.0,2.477
-16.0,0.0,2.478
-4.0,2.0,2.479
-3.0,0.0,2.48
-7.0,-8.0,2.481
-8.0,-11.0,2.482
2.0,-8.0,2.483
13.0,-5.0,2.484
14.0,-3.0,2.485
9.0,-2.0,2.486
7.0,-2.0,2.487
9.0,-2.0,2.488
9.0,-2.0,2.489
7.0,0.0,2.49
9.0,1.0,2.491
10.0,-1.0,2.492
10.0,-3.0,2.493
7.0,-2.0,2.494
5.0,2.0,2.495
8.0,3.0,2.496
9.0,3.0,2.497
3.0,0.0,2.498
1.0,-1.0,2.499
0.0,-2.0,2.5
0.0,-4.0,2.501
1.0,-5.0,2.502
2.0,-5.0,2.503
4.0,-6.0,2.504
5.0,-5.0,2.505
6.0,-1.0,2.506
4.0,2.0,2.507
3.0,1.0,2.508
4.0,0.0,2.509
4.0,0.0,2.51
1.0,1.0,2.511
-1.0,-1.0,2.512
1.0,-2.0,2.513
4.0,2.0,2.514
3.0,7.0,2.515
2.0,5.0,2.516
5.0,0.0,2.517
8.0,-4.0,2.518
2.0,-1.0,2.519
-3.0,0.0,2.52
-7.0,-5.0,2.521
-5.0,-9.0,2.522
1.0,-6.0,2.523
10.0,0.0,2.524
13.0,2.0,2.525
6.0,3.0,2.526
-2.0,5.0,2.527
-3.0,4.0,2.528
-2.0,0.0,2.529
-2.0,-1.0,2.53
-4.0,0.0,2.531
1.0,3.0,2.532
8.0,2.0,2.533
8.0,0.0,2.534
3.0,-1.0,2.535
-1.0,-1.0,2.536
0.0,0.0,2.537
5.0,-2.0,2.538
11.0,-6.0,2.539
13.0,-8.0,2.54
7.0,-11.0,2.541
-3.0,-8.0,2.542
-2.0,-3.0,2.543
9.0,-1.0,2.544
16.0,0.0,2.545
13.0,2.0,2.546
15.0,1.0,2.547
30.0,-3.0,2.548
35.0,-4.0,2.549
13.0,0.0,2.55
-18.0,4.0,2.551
-33.0,3.0,2.552
-30.0,1.0,2.553
-28.0,1.0,2.554
-28.0,2.0,2.555
-19.0,-2.0,2.556
-1.0,-2.0,2.557
9.0,0.0,2.558
5.0,1.0,2.559
-4.0,-1.0,2.56
-5.0,-4.0,2.561
1.0,-1.0,2.562
9.0,2.0,2.563
15.0,1.0,2.564
16.0,0.0,2.565
13.0,4.0,2.566
8.0,7.0,2.567
10.0,4.0,2.568
11.0,0.0,2.569
7.0,0.0,2.57
5.0,3.0,2.571
7.0,4.0,2.572
9.0,2.0,2.573
6.0,0.0,2.574
1.0,-1.0,2.575
0.0,-1.0,2.576
4.0,1.0,2.577
4.0,0.0,2.578
2.0,-4.0,2.579
0.0,-8.0,2.58
-2.0,-9.0,2.581
-4.0,-7.0,2.582
0.0,-6.0,2.583
3.0,-5.0,2.584
3.0,-3.0,2.585
2.0,1.0,2.586
1.0,3.0,2.587
0.0,2.0,2.588
1.0,2.0,2.589
3.0,2.0,2.59
3.0,1.0,2.591
3.0,0.0,2.592
1.0,-1.0,2.593
0.0,-1.0,2.594
0.0,-1.0,2.595
0.0,0.0,2.596
1.0,-1.0,2.597
4.0,-4.0,2.598
4.0,-3.0,2.599
2.0,-2.0,2.6
0.0,-5.0,2.601
1.0,-6.0,2.602
10.0,-6.0,2.603
18.0,-2.0,2.604
14.0,0.0,2.605
3.0,0.0,2.606
-5.0,0.0,2.607
-5.0,0.0,2.608
0.0,0.0,2.609
2.0,2.0,2.61
4.0,4.0,2.611
11.0,4.0,2.612
22.0,4.0,2.613
30.0,5.0,2.614
32.0,5.0,2.615
19.0,5.0,2.616
3.0,4.0,2.617
-11.0,3.0,2.618
-18.0,3.0,2.619
-26.0,0.0,2.62
-35.0,-9.0,2.621
-31.0,-11.0,2.622
-11.0,-6.0,2.623
8.0,-2.0,2.624
6.0,-2.0,2.625
-8.0,-4.0,2.626
-11.0,-4.0,2.627
0.0,-2.0,2.628
10.0,-1.0,2.629
15.0,-2.0,2.63
22.0,-1.0,2.631
30.0,0.0,2.632
31.0,0.0,2.633
26.0,2.0,2.634
22.0,4.0,2.635
19.0,4.0,2.636
13.0,4.0,2.637
4.0,2.0,2.638
-5.0,-1.0,2.639
-21.0,-5.0,2.64
-38.0,-11.0,2.641
-48.0,-12.0,2.642
-43.0,-8.0,2.643
-31.0,-7.0,2.644
-21.0,-5.0,2.645
-14.0,0.0,2.646
-9.0,3.0,2.647
-8.0,1.0,2.648
-7.0,-2.0,2.649
1.0,0.0,2.65
13.0,4.0,2.651
18.0,3.0,2.652
16.0,-2.0,2.653
15.0,-2.0,2.654
19.0,0.0,2.655
18.0,2.0,2.656
15.0,1.0,2.657
13.0,0.0,2.658
15.0,2.0,2.659
10.0,0.0,2.66
5.0,-4.0,2.661
6.0,-2.0,2.662
15.0,0.0,2.663
21.0,2.0,2.664
17.0,0.0,2.665
9.0,-1.0,2.666
6.0,-4.0,2.667
6.0,-4.0,2.668
6.0,-1.0,2.669
5.0,4.0,2.67
8.0,6.0,2.671
12.0,5.0,2.672
9.0,4.0,2.673
2.0,3.0,2.674
-1.0,5.0,2.675
1.0,5.0,2.676
4.0,3.0,2.677
5.0,-1.0,2.678
5.0,-2.0,2.679
0.0,-2.0,2.68
-3.0,-2.0,2.681
-3.0,-3.0,2.682
2.0,-4.0,2.683
9.0,-3.0,2.684
11.0,-1.0,2.685
6.0,0.0,2.686
2.0,-1.0,2.687
1.0,-2.0,2.688
0.0,0.0,2.689
-2.0,3.0,2.69
-5.0,1.0,2.691
-7.0,-1.0,2.692
-8.0,-1.0,2.693
-7.0,1.0,2.694
-6.0,0.0,2.695
-5.0,-2.0,2.696
-4.0,-2.0,2.697
-5.0,-2.0,2.698
-3.0,-5.0,2.699
3.0,-8.0,2.7
10.0,-9.0,2.701
10.0,-5.0,2.702
4.0,-2.0,2.703
0.0,-1.0,2.704
2.0,5.0,2.705
8.0,9.0,2.706
11.0,7.0,2.707
9.0,0.0,2.708
3.0,-2.0,2.709
1.0,1.0,2.71
4.0,3.0,2.711
11.0,2.0,2.712
17.0,-1.0,2.713
23.0,-3.0,2.714
30.0,-4.0,2.715
37.0,-6.0,2.716
40.0,-3.0,2.717
39.0,0.0,2.718
32.0,1.0,2.719
16.0,0.0,2.72
-9.0,-5.0,2.721
-37.0,-5.0,2.722
-55.0,-3.0,2.723
-58.0,-1.0,2.724
-57.0,-1.0,2.725
-56.0,0.0,2.726
-48.0,1.0,2.727
-31.0,2.0,2.728
-16.0,3.0,2.729
-10.0,6.0,2.73
-7.0,6.0,2.731
1.0,5.0,2.732
12.0,2.0,2.733
16.0,0.0,2.734
20.0,-1.0,2.735
24.0,-1.0,2.736
25.0,-1.0,2.737
17.0,-3.0,2.738
11.0,-2.0,2.739
6.0,-1.0,2.74
4.0,-5.0,2.741
3.0,-7.0,2.742
3.0,-5.0,2.743
4.0,-2.0,2.744
7.0,0.0,2.745
10.0,2.0,2.746
8.0,0.0,2.747
7.0,-1.0,2.748
11.0,-1.0,2.749
13.0,-1.0,2.75
10.0,0.0,2.751
7.0,2.0,2.752
7.0,0.0,2.753
7.0,-2.0,2.754
4.0,0.0,2.755
3.0,2.0,2.756
8.0,0.0,2.757
12.0,-2.0,2.758
7.0,0.0,2.759
0.0,-1.0,2.76
-5.0,-8.0,2.761
-5.0,-10.0,2.762
0.0,-4.0,2.763
8.0,1.0,2.764
10.0,1.0,2.765
6.0,0.0,2.766
3.0,-2.0,2.767
3.0,-5.0,2.768
2.0,-7.0,2.769
2.0,-2.0,2.77
5.0,5.0,2.771
8.0,8.0,2.772
2.0,7.0,2.773
-4.0,8.0,2.774
-3.0,9.0,2.775
5.0,6.0,2.776
11.0,3.0,2.777
5.0,0.0,2.778
-1.0,2.0,2.779
-4.0,3.0,2.78
-6.0,-1.0,2.781
-6.0,-2.0,2.782
0.0,-2.0,2.783
10.0,-5.0,2.784
11.0,-5.0,2.785
2.0,-3.0,2.786
-2.0,0.0,2.787
0.0,-2.0,2.788
4.0,-4.0,2.789
1.0,0.0,2.79
0.0,4.0,2.791
4.0,4.0,2.792
7.0,2.0,2.793
4.0,3.0,2.794
4.0,6.0,2.795
7.0,8.0,2.796
9.0,12.0,2.797
5.0,11.0,2.798
1.0,6.0,2.799
-3.0,-3.0,2.8
-5.0,-11.0,2.801
-3.0,-11.0,2.802
3.0,-8.0,2.803
10.0,-6.0,2.804
7.0,-2.0,2.805
2.0,2.0,2.806
1.0,0.0,2.807
5.0,-5.0,2.808
5.0,-7.0,2.809
1.0,-4.0,2.81
-1.0,3.0,2.811
1.0,5.0,2.812
1.0,3.0,2.813
-2.0,-1.0,2.814
-2.0,-3.0,2.815
1.0,-2.0,2.816
3.0,1.0,2.817
0.0,1.0,2.818
-2.0,-2.0,2.819
-3.0,-7.0,2.82
-6.0,-9.0,2.821
-8.0,-6.0,2.822
-4.0,-3.0,2.823
4.0,-1.0,2.824
6.0,0.0,2.825
2.0,3.0,2.826
0.0,2.0,2.827
6.0,-2.0,2.828
7.0,-5.0,2.829
1.0,-3.0,2.83
-1.0,0.0,2.831
3.0,0.0,2.832
5.0,-2.0,2.833
1.0,-2.0,2.834
-1.0,0.0,2.835
3.0,1.0,2.836
9.0,0.0,2.837
3.0,-1.0,2.838
-3.0,-2.0,2.839
-6.0,-3.0,2.84
-6.0,-6.0,2.841
-4.0,-5.0,2.842
0.0,-4.0,2.843
8.0,-2.0,2.844
10.0,1.0,2.845
3.0,4.0,2.846
0.0,3.0,2.847
5.0,1.0,2.848
9.0,0.0,2.849
6.0,1.0,2.85
2.0,3.0,2.851
4.0,1.0,2.852
6.0,0.0,2.853
7.0,0.0,2.854
13.0,0.0,2.855
25.0,-1.0,2.856
32.0,0.0,2.857
20.0,0.0,2.858
-4.0,-1.0,2.859
-23.0,-4.0,2.86
-30.0,-9.0,2.861
-27.0,-10.0,2.862
-18.0,-8.0,2.863
-3.0,-5.0,2.864
13.0,0.0,2.865
17.0,1.0,2.866
10.0,-3.0,2.867
0.0,-4.0,2.868
-1.0,-1.0,2.869
2.0,4.0,2.87
1.0,3.0,2.871
-3.0,-3.0,2.872
-3.0,-4.0,2.873
0.0,2.0,2.874
4.0,5.0,2.875
8.0,3.0,2.876
14.0,1.0,2.877
17.0,1.0,2.878
16.0,2.0,2.879
10.0,-2.0,2.88
7.0,-7.0,2.881
8.0,-8.0,2.882
10.0,-6.0,2.883
12.0,-3.0,2.884
10.0,0.0,2.885
2.0,4.0,2.886
-9.0,3.0,2.887
-11.0,-2.0,2.888
-7.0,-2.0,2.889
-6.0,3.0,2.89
-10.0,5.0,2.891
-10.0,1.0,2.892
-3.0,-1.0,2.893
3.0,1.0,2.894
3.0,3.0,2.895
2.0,4.0,2.896
7.0,6.0,2.897
12.0,6.0,2.898
12.0,2.0,2.899
7.0,-6.0,2.9
7.0,-12.0,2.901
11.0,-11.0,2.902
13.0,-6.0,2.903
12.0,-2.0,2.904
8.0,0.0,2.905
2.0,4.0,2.906
0.0,3.0,2.907
2.0,-2.0,2.908
5.0,-4.0,2.909
4.0,2.0,2.91
0.0,7.0,2.911
-2.0,6.0,2.912
0.0,0.0,2.913
2.0,0.0,2.914
1.0,2.0,2.915
0.0,2.0,2.916
0.0,3.0,2.917
3.0,2.0,2.918
12.0,0.0,2.919
22.0,-4.0,2.92
24.0,-8.0,2.921
12.0,-5.0,2.922
-5.0,-3.0,2.923
-18.0,-2.0,2.924
-24.0,-1.0,2.925
-30.0,-1.0,2.926
-35.0,-2.0,2.927
-33.0,-4.0,2.928
-21.0,-2.0,2.929
-9.0,1.0,2.93
-2.0,-1.0,2.931
2.0,-3.0,2.932
10.0,0.0,2.933
17.0,4.0,2.934
18.0,3.0,2.935
14.0,-2.0,2.936
15.0,-2.0,2.937
21.0,0.0,2.938
22.0,0.0,2.939
12.0,-3.0,2.94
5.0,-6.0,2.941
8.0,-5.0,2.942
18.0,-4.0,2.943
18.0,-1.0,2.944
7.0,3.0,2.945
-3.0,3.0,2.946
-4.0,-1.0,2.947
-2.0,-2.0,2.948
-3.0,1.0,2.949
-5.0,3.0,2.95
-6.0,0.0,2.951
-3.0,-3.0,2.952
0.0,0.0,2.953
2.0,3.0,2.954
2.0,0.0,2.955
2.0,-6.0,2.956
2.0,-4.0,2.957
2.0,0.0,2.958
-1.0,-1.0,2.959
-6.0,-4.0,2.96
-8.0,-6.0,2.961
-1.0,-4.0,2.962
10.0,-1.0,2.963
18.0,0.0,2.964
14.0,2.0,2.965
6.0,5.0,2.966
5.0,4.0,2.967
11.0,0.0,2.968
12.0,-3.0,2.969
5.0,0.0,2.97
1.0,3.0,2.971
1.0,2.0,2.972
2.0,0.0,2.973
1.0,-1.0,2.974
-2.0,-2.0,2.975
-4.0,-2.0,2.976
-1.0,1.0,2.977
0.0,1.0,2.978
0.0,1.0,2.979
0.0,0.0,2.98
7.0,-3.0,2.981
15.0,-6.0,2.982
24.0,-5.0,2.983
26.0,-3.0,2.984
6.0,1.0,2.985
-11.0,4.0,2.986
-16.0,2.0,2.987
-19.0,1.0,2.988
-16.0,2.0,2.989
-11.0,3.0,2.99
0.0,2.0,2.991
7.0,0.0,2.992
3.0,-1.0,2.993
0.0,-3.0,2.994
-2.0,-1.0,2.995
-2.0,0.0,2.996
5.0,0.0,2.997
12.0,-1.0,2.998
14.0,-2.0,2.999
7.0,-5.0,3.0
-4.0,-11.0,3.001
-8.0,-8.0,3.002
1.0,-3.0,3.003
13.0,-1.0,3.004
13.0,-1.0,3.005
4.0,0.0,3.006
3.0,4.0,3.007
9.0,2.0,3.008
7.0,-1.0,3.009
-1.0,0.0,3.01
-2.0,3.0,3.011
5.0,1.0,3.012
7.0,-1.0,3.013
3.0,-1.0,3.014
1.0,3.0,3.015
3.0,3.0,3.016
4.0,1.0,3.017
-1.0,-1.0,3.018
-4.0,0.0,3.019
-5.0,0.0,3.02
-7.0,-2.0,3.021
-8.0,-3.0,3.022
-3.0,-3.0,3.023
4.0,-6.0,3.024
5.0,-2.0,3.025
4.0,5.0,3.026
7.0,6.0,3.027
15.0,0.0,3.028
17.0,-4.0,3.029
11.0,-1.0,3.03
6.0,5.0,3.031
5.0,4.0,3.032
5.0,0.0,3.033
2.0,-3.0,3.034
0.0,-5.0,3.035
3.0,-4.0,3.036
7.0,-3.0,3.037
5.0,-2.0,3.038
0.0,-2.0,3.039
-6.0,-5.0,3.04
-8.0,-7.0,3.041
-7.0,-7.0,3.042
0.0,-4.0,3.043
7.0,-2.0,3.044
7.0,2.0,3.045
0.0,4.0,3.046
-1.0,3.0,3.047
4.0,1.0,3.048
7.0,1.0,3.049
0.0,1.0,3.05
-4.0,0.0,3.051
-3.0,-3.0,3.052
0.0,0.0,3.053
-1.0,3.0,3.054
-1.0,1.0,3.055
4.0,0.0,3.056
11.0,4.0,3.057
11.0,7.0,3.058
15.0,4.0,3.059
21.0,-3.0,3.06
27.0,-7.0,3.061
19.0,-4.0,3.062
0.0,-5.0,3.063
-19.0,-6.0,3.064
-34.0,-4.0,3.065
-41.0,2.0,3.066
-40.0,5.0,3.067
-30.0,2.0,3.068
-17.0,0.0,3.069
-5.0,0.0,3.07
3.0,-1.0,3.071
8.0,-3.0,3.072
10.0,-2.0,3.073
12.0,1.0,3.074
19.0,1.0,3.075
21.0,-1.0,3.076
17.0,0.0,3.077
9.0,0.0,3.078
5.0,-1.0,3.079
4.0,-2.0,3.08
-1.0,-4.0,3.081
-2.0,-2.0,3.082
5.0,-2.0,3.083
15.0,-2.0,3.084
14.0,2.0,3.085
5.0,4.0,3.086
3.0,2.0,3.087
10.0,0.0,3.088
12.0,0.0,3.089
7.0,2.0,3.09
2.0,0.0,3.091
-1.0,-1.0,3.092
-4.0,0.0,3.093
-9.0,2.0,3.094
-9.0,0.0,3.095
-5.0,-2.0,3.096
0.0,-1.0,3.097
3.0,0.0,3.098
7.0,0.0,3.099
9.0,-1.0,3.1
10.0,-5.0,3.101
17.0,-8.0,3.102
25.0,-8.0,3.103
31.0,-7.0,3.104
27.0,-4.0,3.105
16.0,-2.0,3.106
10.0,-2.0,3.107
11.0,-2.0,3.108
12.0,-1.0,3.109
11.0,0.0,3.11
17.0,1.0,3.111
26.0,2.0,3.112
25.0,1.0,3.113
5.0,0.0,3.114
-20.0,3.0,3.115
-35.0,5.0,3.116
-38.0,3.0,3.117
-42.0,0.0,3.118
-48.0,-1.0,3.119
-47.0,-2.0,3.12
-36.0,-3.0,3.121
-23.0,-5.0,3.122
-11.0,-7.0,3.123
-4.0,-4.0,3.124
2.0,-3.0,3.125
9.0,0.0,3.126
12.0,0.0,3.127
14.0,-1.0,3.128
16.0,0.0,3.129
18.0,1.0,3.13
17.0,2.0,3.131
14.0,0.0,3.132
13.0,0.0,3.133
12.0,2.0,3.134
12.0,5.0,3.135
11.0,4.0,3.136
11.0,3.0,3.137
9.0,2.0,3.138
5.0,0.0,3.139
2.0,-2.0,3.14
2.0,-6.0,3.141
2.0,-5.0,3.142
5.0,-5.0,3.143
8.0,-4.0,3.144
10.0,-2.0,3.145
5.0,3.0,3.146
2.0,3.0,3.147
3.0,0.0,3.148
6.0,-1.0,3.149
8.0,3.0,3.15
6.0,6.0,3.151
5.0,5.0,3.152
1.0,3.0,3.153
0.0,0.0,3.154
1.0,-3.0,3.155
4.0,-6.0,3.156
7.0,-4.0,3.157
4.0,-2.0,3.158
-3.0,0.0,3.159
-10.0,-1.0,3.16
-12.0,-6.0,3.161
-8.0,-7.0,3.162
-2.0,-4.0,3.163
3.0,0.0,3.164
4.0,3.0,3.165
4.0,4.0,3.166
8.0,3.0,3.167
15.0,1.0,3.168
16.0,2.0,3.169
9.0,4.0,3.17
4.0,4.0,3.171
5.0,0.0,3.172
7.0,-1.0,3.173
3.0,2.0,3.174
0.0,6.0,3.175
-2.0,6.0,3.176
2.0,3.0,3.177
2.0,1.0,3.178
1.0,0.0,3.179
-2.0,-1.0,3.18
-5.0,-6.0,3.181
-3.0,-9.0,3.182
4.0,-9.0,3.183
13.0,-8.0,3.184
9.0,-7.0,3.185
-7.0,-3.0,3.186
-21.0,-2.0,3.187
-21.0,-3.0,3.188
-16.0,-6.0,3.189
-14.0,-7.0,3.19
-14.0,-5.0,3.191
-6.0,-5.0,3.192
4.0,-5.0,3.193
9.0,-5.0,3.194
9.0,-4.0,3.195
12.0,-3.0,3.196
18.0,-4.0,3.197
17.0,-4.0,3.198
10.0,-3.0,3.199
0.0,-3.0,3.2
-2.0,-7.0,3.201
0.0,-7.0,3.202
6.0,-3.0,3.203
13.0,2.0,3.204
19.0,3.0,3.205
27.0,3.0,3.206
33.0,3.0,3.207
28.0,0.0,3.208
10.0,1.0,3.209
-9.0,4.0,3.21
-19.0,8.0,3.211
-21.0,7.0,3.212
-26.0,4.0,3.213
-32.0,2.0,3.214
-25.0,2.0,3.215
-10.0,0.0,3.216
0.0,0.0,3.217
-2.0,-3.0,3.218
-5.0,-3.0,3.219
-3.0,-2.0,3.22
2.0,-4.0,3.221
7.0,-5.0,3.222
15.0,-3.0,3.223
23.0,0.0,3.224
22.0,3.0,3.225
12.0,2.0,3.226
6.0,0.0,3.227
7.0,0.0,3.228
8.0,1.0,3.229
4.0,4.0,3.23
1.0,4.0,3.231
4.0,5.0,3.232
7.0,5.0,3.233
4.0,6.0,3.234
1.0,3.0,3.235
2.0,-1.0,3.236
7.0,-2.0,3.237
7.0,-3.0,3.238
4.0,-3.0,3.239
0.0,-4.0,3.24
-4.0,-9.0,3.241
-4.0,-9.0,3.242
2.0,-7.0,3.243
9.0,-3.0,3.244
9.0,1.0,3.245
4.0,3.0,3.246
2.0,4.0,3.247
4.0,2.0,3.248
4.0,2.0,3.249
1.0,3.0,3.25
-1.0,3.0,3.251
1.0,2.0,3.252
2.0,2.0,3.253
0.0,2.0,3.254
-1.0,3.0,3.255
-1.0,1.0,3.256
0.0,-1.0,3.257
-1.0,-3.0,3.258
-1.0,-2.0,3.259
0.0,-1.0,3.26
-2.0,-3.0,3.261
-4.0,-4.0,3.262
-2.0,-2.0,3.263
5.0,-2.0,3.264
10.0,-1.0,3.265
5.0,0.0,3.266
-1.0,-1.0,3.267
-2.0,-4.0,3.268
2.0,-3.0,3.269
3.0,3.0,3.27
4.0,5.0,3.271
4.0,0.0,3.272
5.0,-6.0,3.273
0.0,-5.0,3.274
-2.0,0.0,3.275
0.0,1.0,3.276
6.0,-1.0,3.277
6.0,-5.0,3.278
1.0,-4.0,3.279
-5.0,-5.0,3.28
-8.0,-7.0,3.281
-5.0,-8.0,3.282
2.0,-5.0,3.283
8.0,0.0,3.284
9.0,1.0,3.285
3.0,1.0,3.286
1.0,-2.0,3.287
5.0,-3.0,3.288
7.0,-2.0,3.289
2.0,0.0,3.29
1.0,0.0,3.291
4.0,0.0,3.292
7.0,1.0,3.293
3.0,4.0,3.294
0.0,4.0,3.295
1.0,2.0,3.296
4.0,1.0,3.297
2.0,0.0,3.298
-1.0,-1.0,3.299
-1.0,-2.0,3.3
1.0,-5.0,3.301
3.0,-5.0,3.302
6.0,-4.0,3.303
12.0,-2.0,3.304
14.0,0.0,3.305
7.0,1.0,3.306
3.0,0.0,3.307
5.0,0.0,3.308
4.0,1.0,3.309
-2.0,3.0,3.31
-5.0,0.0,3.311
-3.0,-2.0,3.312
0.0,0.0,3.313
-1.0,4.0,3.314
-2.0,6.0,3.315
0.0,1.0,3.316
3.0,-1.0,3.317
0.0,-1.0,3.318
-3.0,-1.0,3.319
-5.0,-3.0,3.32
-6.0,-8.0,3.321
-5.0,-6.0,3.322
3.0,-2.0,3.323
20.0,-3.0,3.324
33.0,-4.0,3.325
32.0,0.0,3.326
16.0,3.0,3.327
-2.0,0.0,3.328
-12.0,-2.0,3.329
-13.0,0.0,3.33
-8.0,5.0,3.331
-4.0,5.0,3.332
0.0,1.0,3.333
3.0,-1.0,3.334
3.0,-1.0,3.335
-2.0,-4.0,3.336
-4.0,-4.0,3.337
-4.0,-1.0,3.338
-3.0,0.0,3.339
-4.0,-1.0,3.34
-5.0,-6.0,3.341
-3.0,-6.0,3.342
5.0,-3.0,3.343
14.0,0.0,3.344
15.0,1.0,3.345
11.0,5.0,3.346
9.0,5.0,3.347
11.0,0.0,3.348
11.0,-5.0,3.349
6.0,-5.0,3.35
3.0,-2.0,3.351
5.0,0.0,3.352
6.0,0.0,3.353
3.0,2.0,3.354
-1.0,2.0,3.355
-2.0,0.0,3.356
0.0,0.0,3.357
0.0,2.0,3.358
-1.0,4.0,3.359
-3.0,-1.0,3.36
-4.0,-8.0,3.361
-4.0,-9.0,3.362
0.0,-5.0,3.363
4.0,0.0,3.364
5.0,2.0,3.365
3.0,4.0,3.366
3.0,1.0,3.367
6.0,-4.0,3.368
7.0,-4.0,3.369
3.0,0.0,3.37
-1.0,4.0,3.371
1.0,4.0,3.372
4.0,3.0,3.373
3.0,3.0,3.374
0.0,2.0,3.375
0.0,2.0,3.376
2.0,4.0,3.377
0.0,4.0,3.378
-1.0,2.0,3.379
-4.0,-3.0,3.38
-7.0,-9.0,3.381
-8.0,-9.0,3.382
-2.0,-5.0,3.383
7.0,0.0,3.384
9.0,4.0,3.385
4.0,7.0,3.386
1.0,5.0,3.387
4.0,0.0,3.388
10.0,-6.0,3.389
12.0,-7.0,3.39
12.0,-5.0,3.391
9.0,-3.0,3.392
8.0,-3.0,3.393
5.0,-3.0,3.394
6.0,0.0,3.395
6.0,1.0,3.396
3.0,0.0,3.397
-4.0,-3.0,3.398
-10.0,-4.0,3.399
-11.0,-3.0,3.4
-11.0,-6.0,3.401
-10.0,-5.0,3.402
-4.0,-2.0,3.403
3.0,0.0,3.404
9.0,-1.0,3.405
12.0,-1.0,3.406
20.0,0.0,3.407
31.0,1.0,3.408
31.0,0.0,3.409
13.0,-1.0,3.41
-8.0,1.0,3.411
-13.0,3.0,3.412
-6.0,1.0,3.413
-6.0,-1.0,3.414
-13.0,-2.0,3.415
-15.0,0.0,3.416
-2.0,1.0,3.417
4.0,-1.0,3.418
-5.0,-4.0,3.419
-25.0,-6.0,3.42
-35.0,-9.0,3.421
-25.0,-9.0,3.422
-5.0,-4.0,3.423
15.0,2.0,3.424
21.0,5.0,3.425
18.0,4.0,3.426
13.0,1.0,3.427
15.0,-1.0,3.428
21.0,-1.0,3.429
24.0,0.0,3.43
19.0,1.0,3.431
13.0,3.0,3.432
7.0,3.0,3.433
5.0,0.0,3.434
5.0,-2.0,3.435
5.0,-2.0,3.436
5.0,1.0,3.437
3.0,3.0,3.438
1.0,2.0,3.439
2.0,-2.0,3.44
1.0,-7.0,3.441
0.0,-5.0,3.442
3.0,-3.0,3.443
12.0,-2.0,3.444
19.0,0.0,3.445
23.0,4.0,3.446
25.0,8.0,3.447
26.0,6.0,3.448
15.0,2.0,3.449
-10.0,0.0,3.45
-34.0,1.0,3.451
-42.0,0.0,3.452
-37.0,0.0,3.453
-35.0,0.0,3.454
-38.0,0.0,3.455
-31.0,-1.0,3.456
-13.0,-2.0,3.457
1.0,-1.0,3.458
2.0,1.0,3.459
-2.0,1.0,3.46
0.0,-5.0,3.461
8.0,-6.0,3.462
12.0,-4.0,3.463
15.0,-1.0,3.464
19.0,-1.0,3.465
22.0,-1.0,3.466
21.0,-1.0,3.467
17.0,0.0,3.468
14.0,1.0,3.469
10.0,0.0,3.47
2.0,0.0,3.471
-2.0,0.0,3.472
6.0,-1.0,3.473
18.0,-2.0,3.474
20.0,0.0,3.475
13.0,3.0,3.476
6.0,6.0,3.477
4.0,2.0,3.478
4.0,-3.0,3.479
0.0,-6.0,3.48
-6.0,-10.0,3.481
-13.0,-13.0,3.482
-13.0,-12.0,3.483
-6.0,-7.0,3.484
0.0,1.0,3.485
-2.0,8.0,3.486
-3.0,6.0,3.487
4.0,2.0,3.488
15.0,-1.0,3.489
15.0,-2.0,3.49
8.0,-2.0,3.491
6.0,0.0,3.492
14.0,2.0,3.493
18.0,2.0,3.494
18.0,0.0,3.495
19.0,0.0,3.496
29.0,1.0,3.497
44.0,0.0,3.498
56.0,-3.0,3.499
54.0,-5.0,3.5
32.0,-6.0,3.501
-6.0,-4.0,3.502
-40.0,0.0,3.503
-55.0,1.0,3.504
-64.0,2.0,3.505
-75.0,2.0,3.506
-76.0,2.0,3.507
-53.0,2.0,3.508
-26.0,0.0,3.509
-19.0,-3.0,3.51
-22.0,-4.0,3.511
-14.0,-3.0,3.512
7.0,0.0,3.513
16.0,0.0,3.514
11.0,-2.0,3.515
10.0,-3.0,3.516
18.0,-3.0,3.517
20.0,-2.0,3.518
12.0,-1.0,3.519
1.0,-1.0,3.52
2.0,-5.0,3.521
7.0,-4.0,3.522
12.0,-1.0,3.523
19.0,3.0,3.524
23.0,6.0,3.525
20.0,6.0,3.526
17.0,2.0,3.527
21.0,-2.0,3.528
27.0,-3.0,3.529
30.0,0.0,3.53
31.0,3.0,3.531
30.0,5.0,3.532
26.0,8.0,3.533
20.0,10.0,3.534
18.0,10.0,3.535
23.0,6.0,3.536
24.0,1.0,3.537
8.0,-5.0,3.538
-11.0,-7.0,3.539
-16.0,-9.0,3.54
4.0,-13.0,3.541
39.0,-11.0,3.542
59.0,-9.0,3.543
42.0,-6.0,3.544
-9.0,-2.0,3.545
-58.0,0.0,3.546
-76.0,3.0,3.547
-69.0,6.0,3.548
-63.0,7.0,3.549
-64.0,6.0,3.55
-61.0,1.0,3.551
-50.0,-3.0,3.552
-40.0,-8.0,3.553
-27.0,-12.0,3.554
-5.0,-15.0,3.555
26.0,-12.0,3.556
62.0,-6.0,3.557
90.0,-2.0,3.558
89.0,1.0,3.559
48.0,4.0,3.56
-12.0,2.0,3.561
-45.0,0.0,3.562
-34.0,-1.0,3.563
-16.0,2.0,3.564
-18.0,6.0,3.565
-24.0,3.0,3.566
-8.0,-3.0,3.567
19.0,-4.0,3.568
25.0,2.0,3.569
14.0,6.0,3.57
8.0,4.0,3.571
16.0,0.0,3.572
24.0,0.0,3.573
24.0,-2.0,3.574
21.0,-4.0,3.575
23.0,-4.0,3.576
32.0,1.0,3.577
42.0,3.0,3.578
49.0,2.0,3.579
37.0,-2.0,3.58
17.0,-8.0,3.581
10.0,-14.0,3.582
22.0,-15.0,3.583
15.0,-8.0,3.584
-25.0,2.0,3.585
-68.0,6.0,3.586
-78.0,0.0,3.587
-66.0,-6.0,3.588
-61.0,-7.0,3.589
-57.0,-13.0,3.59
-36.0,-24.0,3.591
-12.0,-34.0,3.592
-8.0,-26.0,3.593
-18.0,-2.0,3.594
-11.0,21.0,3.595
11.0,28.0,3.596
31.0,22.0,3.597
52.0,15.0,3.598
88.0,12.0,3.599
118.0,2.0,3.6
100.0,-16.0,3.601
34.0,-19.0,3.602
-21.0,7.0,3.603
-26.0,37.0,3.604
-4.0,32.0,3.605
6.0,-8.0,3.606
3.0,-43.0,3.607
4.0,-44.0,3.608
7.0,-18.0,3.609
13.0,15.0,3.61
37.0,47.0,3.611
66.0,66.0,3.612
47.0,58.0,3.613
-39.0,24.0,3.614
-120.0,-12.0,3.615
-126.0,-30.0,3.616
-83.0,-29.0,3.617
-51.0,-25.0,3.618
-41.0,-21.0,3.619
-19.0,-12.0,3.62
8.0,-7.0,3.621
9.0,-17.0,3.622
-11.0,-52.0,3.623
-10.0,-97.0,3.624
5.0,-119.0,3.625
5.0,-110.0,3.626
-5.0,-88.0,3.627
-1.0,-65.0,3.628
18.0,-26.0,3.629
27.0,28.0,3.63
27.0,65.0,3.631
34.0,68.0,3.632
40.0,66.0,3.633
28.0,86.0,3.634
14.0,105.0,3.635
15.0,83.0,3.636
24.0,32.0,3.637
18.0,-10.0,3.638
-2.0,-31.0,3.639
-17.0,-38.0,3.64
-16.0,-24.0,3.641
-7.0,32.0,3.642
6.0,101.0,3.643
20.0,139.0,3.644
53.0,141.0,3.645
132.0,123.0,3.646
257.0,83.0,3.647
346.0,21.0,3.648
292.0,-19.0,3.649
109.0,-7.0,3.65
-72.0,17.0,3.651
-158.0,4.0,3.652
-179.0,-28.0,3.653
-201.0,-29.0,3.654
-216.0,-3.0,3.655
-195.0,6.0,3.656
-161.0,-4.0,3.657
-138.0,-17.0,3.658
-84.0,-27.0,3.659
35.0,-42.0,3.66
156.0,-50.0,3.661
163.0,-26.0,3.662
39.0,6.0,3.663
-113.0,14.0,3.664
-194.0,-1.0,3.665
-193.0,-15.0,3.666
-152.0,-32.0,3.667
-90.0,-56.0,3.668
-5.0,-64.0,3.669
81.0,-43.0,3.67
120.0,-29.0,3.671
96.0,-53.0,3.672
47.0,-83.0,3.673
21.0,-79.0,3.674
17.0,-74.0,3.675
14.0,-124.0,3.676
12.0,-209.0,3.677
20.0,-260.0,3.678
45.0,-237.0,3.679
94.0,-183.0,3.68
167.0,-156.0,3.681
218.0,-148.0,3.682
170.0,-132.0,3.683
10.0,-98.0,3.684
-155.0,-38.0,3.685
-207.0,46.0,3.686
-152.0,133.0,3.687
-90.0,185.0,3.688
-61.0,215.0,3.689
-26.0,292.0,3.69
29.0,451.0,3.691
67.0,620.0,3.692
77.0,697.0,3.693
89.0,660.0,3.694
101.0,544.0,3.695
68.0,364.0,3.696
3.0,131.0,3.697
-32.0,-125.0,3.698
-2.0,-262.0,3.699
47.0,-217.0,3.7
67.0,-96.0,3.701
85.0,-29.0,3.702
137.0,-24.0,3.703
184.0,-24.0,3.704
144.0,-35.0,3.705
2.0,-102.0,3.706
-162.0,-191.0,3.707
-262.0,-226.0,3.708
-266.0,-211.0,3.709
-196.0,-206.0,3.71
-67.0,-204.0,3.711
103.0,-158.0,3.712
262.0,-79.0,3.713
312.0,-41.0,3.714
213.0,-65.0,3.715
47.0,-107.0,3.716
-70.0,-131.0,3.717
-122.0,-150.0,3.718
-153.0,-173.0,3.719
-186.0,-204.0,3.72
-185.0,-259.0,3.721
-123.0,-349.0,3.722
-33.0,-446.0,3.723
28.0,-461.0,3.724
22.0,-324.0,3.725
-49.0,-38.0,3.726
-136.0,312.0,3.727
-178.0,609.0,3.728
-147.0,750.0,3.729
-73.0,692.0,3.73
-13.0,474.0,3.731
23.0,205.0,3.732
51.0,-6.0,3.733
83.0,-118.0,3.734
113.0,-148.0,3.735
145.0,-105.0,3.736
220.0,2.0,3.737
368.0,94.0,3.738
521.0,75.0,3.739
552.0,20.0,3.74
217.0,-145.0,3.741
-77.0,-278.0,3.742
-249.0,-315.0,3.743
-342.0,-318.0,3.744
-198.0,-216.0,3.745
-110.0,-91.0,3.746
-194.0,106.0,3.747
-247.0,272.0,3.748
-206.0,344.0,3.749
-195.0,378.0,3.75
-279.0,300.0,3.751
-301.0,216.0,3.752
-137.0,113.0,3.753
-5.0,19.0,3.754
32.0,-46.0,3.755
71.0,-86.0,3.756
115.0,-42.0,3.757
164.0,4.0,3.758
218.0,19.0,3.759
216.0,-30.0,3.76
148.0,-106.0,3.761
54.0,-159.0,3.762
17.0,-178.0,3.763
59.0,-170.0,3.764
103.0,-169.0,3.765
69.0,-192.0,3.766
-5.0,-221.0,3.767
-48.0,-226.0,3.768
-65.0,-214.0,3.769
-99.0,-211.0,3.77
-138.0,-219.0,3.771
-136.0,-215.0,3.772
-95.0,-180.0,3.773
-51.0,-104.0,3.774
-28.0,-5.0,3.775
-18.0,81.0,3.776
0.0,135.0,3.777
69.0,199.0,3.778
146.0,271.0,3.779
142.0,294.0,3.78
29.0,224.0,3.781
-101.0,131.0,3.782
-130.0,74.0,3.783
-46.0,4.0,3.784
96.0,-146.0,3.785
252.0,-294.0,3.786
358.0,-282.0,3.787
319.0,-74.0,3.788
150.0,227.0,3.789
12.0,510.0,3.79
3.0,683.0,3.791
31.0,655.0,3.792
-16.0,416.0,3.793
-103.0,116.0,3.794
-142.0,-82.0,3.795
-138.0,-167.0,3.796
-124.0,-214.0,3.797
-77.0,-243.0,3.798
5.0,-223.0,3.799
44.0,-188.0,3.8
2.0,-183.0,3.801
-35.0,-148.0,3.802
3.0,-5.0,3.803
54.0,208.0,3.804
37.0,389.0,3.805
-15.0,507.0,3.806
-36.0,557.0,3.807
-30.0,471.0,3.808
-27.0,210.0,3.809
14.0,-101.0,3.81
111.0,-291.0,3.811
189.0,-346.0,3.812
154.0,-367.0,3.813
30.0,-365.0,3.814
-69.0,-258.0,3.815
-72.0,-55.0,3.816
-20.0,104.0,3.817
13.0,133.0,3.818
-8.0,69.0,3.819
-70.0,-6.0,3.82
-120.0,-62.0,3.821
-122.0,-96.0,3.822
-84.0,-116.0,3.823
-45.0,-138.0,3.824
-36.0,-180.0,3.825
-38.0,-224.0,3.826
-19.0,-231.0,3.827
14.0,-209.0,3.828
12.0,-186.0,3.829
-38.0,-148.0,3.83
-86.0,-61.0,3.831
-81.0,35.0,3.832
-54.0,41.0,3.833
-77.0,-70.0,3.834
-147.0,-213.0,3.835
-170.0,-294.0,3.836
-78.0,-312.0,3.837
60.0,-322.0,3.838
189.0,-318.0,3.839
194.0,-235.0,3.84
109.0,-40.0,3.841
24.0,202.0,3.842
-15.0,361.0,3.843
-15.0,356.0,3.844
10.0,222.0,3.845
53.0,61.0,3.846
95.0,-25.0,3.847
104.0,-2.0,3.848
67.0,108.0,3.849
9.0,253.0,3.85
-20.0,363.0,3.851
14.0,371.0,3.852
89.0,223.0,3.853
142.0,-90.0,3.854
141.0,-482.0,3.855
120.0,-779.0,3.856
113.0,-822.0,3.857
102.0,-572.0,3.858
53.0,-162.0,3.859
-10.0,176.0,3.86
-64.0,302.0,3.861
-111.0,289.0,3.862
-154.0,329.0,3.863
-162.0,541.0,3.864
-128.0,858.0,3.865
-117.0,1105.0,3.866
-165.0,1180.0,3.867
-205.0,1121.0,3.868
-148.0,968.0,3.869
-25.0,640.0,3.87
53.0,54.0,3.871
54.0,-639.0,3.872
30.0,-1104.0,3.873
12.0,-1170.0,3.874
-23.0,-987.0,3.875
-60.0,-792.0,3.876
-44.0,-677.0,3.877
29.0,-582.0,3.878
93.0,-400.0,3.879
91.0,-36.0,3.88
47.0,446.0,3.881
4.0,755.0,3.882
-23.0,662.0,3.883
-27.0,350.0,3.884
5.0,170.0,3.885
60.0,158.0,3.886
102.0,140.0,3.887
124.0,178.0,3.888
143.0,432.0,3.889
150.0,684.0,3.89
113.0,540.0,3.891
24.0,48.0,3.892
-65.0,-407.0,3.893
-97.0,-740.0,3.894
-52.0,-1117.0,3.895
35.0,-1347.0,3.896
106.0,-1009.0,3.897
128.0,12.0,3.898
109.0,1206.0,3.899
64.0,2056.0,3.9
3.0,2400.0,3.901
-51.0,2214.0,3.902
-59.0,1487.0,3.903
-18.0,448.0,3.904
9.0,-475.0,3.905
-30.0,-1021.0,3.906
-99.0,-1192.0,3.907
-126.0,-1086.0,3.908
-102.0,-848.0,3.909
-74.0,-678.0,3.91
-59.0,-668.0,3.911
-41.0,-772.0,3.912
-8.0,-1022.0,3.913
34.0,-1534.0,3.914
77.0,-2126.0,3.915
97.0,-2268.0,3.916
72.0,-1664.0,3.917
15.0,-384.0,3.918
9.0,1054.0,3.919
96.0,2184.0,3.92
188.0,2729.0,3.921
170.0,2603.0,3.922
67.0,1927.0,3.923
0.0,1016.0,3.924
7.0,179.0,3.925
19.0,-427.0,3.926
0.0,-756.0,3.927
-17.0,-829.0,3.928
-23.0,-767.0,3.929
-46.0,-707.0,3.93
-66.0,-687.0,3.931
-47.0,-651.0,3.932
-24.0,-572.0,3.933
-60.0,-489.0,3.934
-125.0,-425.0,3.935
-148.0,-365.0,3.936
-133.0,-304.0,3.937
-121.0,-249.0,3.938
-90.0,-202.0,3.939
-2.0,-164.0,3.94
84.0,-141.0,3.941
77.0,-115.0,3.942
6.0,-56.0,3.943
-20.0,33.0,3.944
4.0,108.0,3.945
-1.0,129.0,3.946
-44.0,108.0,3.947
-37.0,85.0,3.948
60.0,87.0,3.949
161.0,112.0,3.95
155.0,127.0,3.951
36.0,101.0,3.952
-107.0,57.0,3.953
-182.0,61.0,3.954
-165.0,127.0,3.955
-112.0,179.0,3.956
-97.0,160.0,3.957
-131.0,88.0,3.958
-151.0,0.0,3.959
-119.0,-117.0,3.96
-57.0,-239.0,3.961
-5.0,-219.0,3.962
23.0,49.0,3.963
42.0,465.0,3.964
80.0,827.0,3.965
170.0,1031.0,3.966
298.0,1068.0,3.967
365.0,905.0,3.968
280.0,543.0,3.969
98.0,106.0,3.97
-24.0,-260.0,3.971
-21.0,-511.0,3.972
12.0,-620.0,3.973
-18.0,-512.0,3.974
-89.0,-192.0,3.975
-139.0,146.0,3.976
-159.0,302.0,3.977
-178.0,248.0,3.978
-199.0,71.0,3.979
-224.0,-153.0,3.98
-248.0,-358.0,3.981
-219.0,-447.0,3.982
-99.0,-361.0,3.983
74.0,-124.0,3.984
219.0,198.0,3.985
308.0,507.0,3.986
333.0,684.0,3.987
267.0,684.0,3.988
133.0,580.0,3.989
53.0,432.0,3.99
85.0,217.0,3.991
135.0,-51.0,3.992
113.0,-269.0,3.993
91.0,-385.0,3.994
177.0,-469.0,3.995
294.0,-530.0,3.996
281.0,-475.0,3.997
108.0,-280.0,3.998
-37.0,-106.0,3.999
-8.0,-79.0,4.0
108.0,-146.0,4.001
100.0,-238.0,4.002
-66.0,-400.0,4.003
-228.0,-621.0,4.004
-270.0,-743.0,4.005
-269.0,-649.0,4.006
-325.0,-388.0,4.007
-382.0,-39.0,4.008
-324.0,366.0,4.009
-184.0,732.0,4.01
-90.0,891.0,4.011
-80.0,784.0,4.012
-72.0,524.0,4.013
-19.0,237.0,4.014
36.0,-15.0,4.015
57.0,-161.0,4.016
73.0,-139.0,4.017
104.0,14.0,4.018
114.0,143.0,4.019
64.0,134.0,4.02
-5.0,7.0,4.021
-25.0,-131.0,4.022
12.0,-207.0,4.023
49.0,-199.0,4.024
46.0,-132.0,4.025
27.0,-53.0,4.026
42.0,-8.0,4.027
100.0,-11.0,4.028
160.0,-75.0,4.029
174.0,-217.0,4.03
122.0,-407.0,4.031
39.0,-562.0,4.032
-24.0,-588.0,4.033
-49.0,-434.0,4.034
-57.0,-115.0,4.035
-60.0,288.0,4.036
-39.0,645.0,4.037
6.0,882.0,4.038
45.0,932.0,4.039
49.0,807.0,4.04
46.0,583.0,4.041
60.0,355.0,4.042
72.0,172.0,4.043
60.0,39.0,4.044
39.0,-35.0,4.045
17.0,-60.0,4.046
-15.0,-72.0,4.047
-31.0,-106.0,4.048
5.0,-150.0,4.049
68.0,-176.0,4.05
63.0,-194.0,4.051
-33.0,-233.0,4.052
-127.0,-277.0,4.053
-158.0,-290.0,4.054
-171.0,-281.0,4.055
-205.0,-307.0,4.056
-203.0,-378.0,4.057
-98.0,-472.0,4.058
60.0,-514.0,4.059
165.0,-441.0,4.06
190.0,-232.0,4.061
171.0,67.0,4.062
125.0,332.0,4.063
55.0,459.0,4.064
-4.0,433.0,4.065
-23.0,319.0,4.066
-32.0,178.0,4.067
-62.0,43.0,4.068
-96.0,-63.0,4.069
-99.0,-118.0,4.07
-70.0,-98.0,4.071
-18.0,-10.0,4.072
50.0,102.0,4.073
101.0,177.0,4.074
85.0,184.0,4.075
16.0,133.0,4.076
-33.0,51.0,4.077
-30.0,-67.0,4.078
-2.0,-193.0,4.079
15.0,-262.0,4.08
33.0,-228.0,4.081
69.0,-112.0,4.082
103.0,3.0,4.083
97.0,60.0,4.084
40.0,48.0,4.085
-42.0,-9.0,4.086
-100.0,-85.0,4.087
-93.0,-168.0,4.088
-42.0,-243.0,4.089
-25.0,-262.0,4.09
-72.0,-161.0,4.091
-129.0,80.0,4.092
-123.0,383.0,4.093
-38.0,621.0,4.094
88.0,685.0,4.095
210.0,540.0,4.096
274.0,250.0,4.097
240.0,-137.0,4.098
130.0,-495.0,4.099
9.0,-694.0,4.1
-84.0,-660.0,4.101
-154.0,-419.0,4.102
-196.0,-104.0,4.103
-193.0,149.0,4.104
-163.0,288.0,4.105
-133.0,319.0,4.106
-106.0,257.0,4.107
-90.0,143.0,4.108
-100.0,65.0,4.109
-96.0,81.0,4.11
4.0,172.0,4.111
176.0,312.0,4.112
263.0,499.0,4.113
178.0,662.0,4.114
36.0,675.0,4.115
-13.0,496.0,4.116
21.0,244.0,4.117
52.0,-30.0,4.118
53.0,-296.0,4.119
50.0,-493.0,4.12
47.0,-509.0,4.121
27.0,-350.0,4.122
-2.0,-193.0,4.123
-26.0,-154.0,4.124
-33.0,-165.0,4.125
-9.0,-138.0,4.126
54.0,-117.0,4.127
92.0,-171.0,4.128
38.0,-264.0,4.129
-63.0,-314.0,4.13
-98.0,-290.0,4.131
-39.0,-189.0,4.132
18.0,-24.0,4.133
3.0,131.0,4.134
-43.0,180.0,4.135
-63.0,137.0,4.136
-61.0,114.0,4.137
-68.0,176.0,4.138
-70.0,260.0,4.139
-31.0,293.0,4.14
56.0,171.0,4.141
144.0,43.0,4.142
188.0,-105.0,4.143
179.0,-254.0,4.144
137.0,-406.0,4.145
79.0,-541.0,4.146
16.0,-623.0,4.147
-38.0,-571.0,4.148
-46.0,-115.0,4.149
0.0,314.0,4.15
60.0,659.0,4.151
78.0,856.0,4.152
53.0,608.0,4.153
17.0,342.0,4.154
-11.0,27.0,4.155
-45.0,-208.0,4.156
-76.0,-206.0,4.157
-86.0,-190.0,4.158
-78.0,-152.0,4.159
-75.0,-124.0,4.16
-92.0,-84.0,4.161
-92.0,-39.0,4.162
-39.0,-6.0,4.163
14.0,12.0,4.164
69.0,20.0,4.165
105.0,6.0,4.166
83.0,-20.0,4.167
48.0,-37.0,4.168
-29.0,-38.0,4.169
-88.0,-30.0,4.17
-92.0,-24.0,4.171
-69.0,-56.0,4.172
37.0,-153.0,4.173
138.0,-275.0,4.174
220.0,-339.0,4.175
249.0,-340.0,4.176
111.0,-348.0,4.177
-26.0,-401.0,4.178
-68.0,-424.0,4.179
0.0,-333.0,4.18
-17.0,-118.0,4.181
-179.0,180.0,4.182
-321.0,491.0,4.183
-323.0,705.0,4.184
-270.0,734.0,4.185
-271.0,606.0,4.186
-257.0,455.0,4.187
-131.0,383.0,4.188
40.0,411.0,4.189
122.0,492.0,4.19
109.0,545.0,4.191
90.0,470.0,4.192
88.0,230.0,4.193
74.0,-88.0,4.194
61.0,-348.0,4.195
74.0,-490.0,4.196
94.0,-530.0,4.197
102.0,-485.0,4.198
135.0,-347.0,4.199
192.0,-157.0,4.2
197.0,15.0,4.201
127.0,162.0,4.202
73.0,285.0,4.203
79.0,329.0,4.204
44.0,216.0,4.205
-84.0,-15.0,4.206
-186.0,-231.0,4.207
-162.0,-367.0,4.208
-95.0,-459.0,4.209
-90.0,-512.0,4.21
-98.0,-463.0,4.211
-41.0,-325.0,4.212
41.0,-221.0,4.213
77.0,-202.0,4.214
77.0,-149.0,4.215
64.0,45.0,4.216
30.0,298.0,4.217
92.0,17.0,4.218
-74.0,23.0,4.219
-188.0,62.0,4.22
-146.0,202.0,4.221
-87.0,305.0,4.222
21.0,294.0,4.223
109.0,276.0,4.224
133.0,234.0,4.225
122.0,177.0,4.226
3.0,74.0,4.227
-70.0,13.0,4.228
-4.0,70.0,4.229
45.0,104.0,4.23
45.0,60.0,4.231
41.0,-3.0,4.232
22.0,-125.0,4.233
23.0,-245.0,4.234
89.0,-357.0,4.235
122.0,-435.0,4.236
57.0,-413.0,4.237
86.0,17.0,4.238
-66.0,21.0,4.239
-170.0,46.0,4.24
-132.0,136.0,4.241
-78.0,202.0,4.242
21.0,195.0,4.243
101.0,183.0,4.244
123.0,156.0,4.245
113.0,120.0,4.246
4.0,54.0,4.247
-63.0,14.0,4.248
-3.0,51.0,4.249
43.0,73.0,4.25
43.0,45.0,4.251
39.0,4.0,4.252
22.0,-74.0,4.253
23.0,-151.0,4.254
83.0,-223.0,4.255
113.0,-273.0,4.256
54.0,-259.0,4.257
-1.0,-234.0,4.258
-22.0,-167.0,4.259
-21.0,-139.0,4.26
-45.0,-249.0,4.261
-84.0,-449.0,4.262
-99.0,-507.0,4.263
-112.0,-235.0,4.264
-164.0,305.0,4.265
-227.0,872.0,4.266
-220.0,1250.0,4.267
-128.0,1317.0,4.268
-8.0,1057.0,4.269
108.0,586.0,4.27
217.0,123.0,4.271
263.0,-157.0,4.272
184.0,-205.0,4.273
50.0,-95.0,4.274
-2.0,9.0,4.275
28.0,-44.0,4.276
30.0,-238.0,4.277
-13.0,-441.0,4.278
-4.0,-524.0,4.279
63.0,-525.0,4.28
64.0,-548.0,4.281
-23.0,-592.0,4.282
-75.0,-638.0,4.283
-30.0,-727.0,4.284
31.0,-834.0,4.285
73.0,-794.0,4.286
154.0,-491.0,4.287
228.0,-37.0,4.288
158.0,378.0,4.289
-31.0,693.0,4.29
-141.0,889.0,4.291
-111.0,879.0,4.292
-105.0,641.0,4.293
-211.0,349.0,4.294
-288.0,166.0,4.295
-225.0,59.0,4.296
-108.0,-44.0,4.297
-29.0,-83.0,4.298
37.0,27.0,4.299
117.0,184.0,4.3
149.0,230.0,4.301
84.0,202.0,4.302
-13.0,216.0,4.303
-83.0,242.0,4.304
-133.0,182.0,4.305
-135.0,73.0,4.306
-23.0,-3.0,4.307
167.0,-86.0,4.308
283.0,-240.0,4.309
242.0,-379.0,4.31
127.0,-381.0,4.311
46.0,-272.0,4.312
12.0,-152.0,4.313
-12.0,-36.0,4.314
-34.0,94.0,4.315
-44.0,166.0,4.316
-40.0,110.0,4.317
-55.0,-36.0,4.318
-109.0,-156.0,4.319
-155.0,-235.0,4.32
-172.0,-192.0,4.321
-146.0,-128.0,4.322
12.0,1.0,4.323
146.0,99.0,4.324
204.0,104.0,4.325
233.0,136.0,4.326
168.0,244.0,4.327
94.0,321.0,4.328
-5.0,299.0,4.329
-80.0,250.0,4.33
-82.0,119.0,4.331
-73.0,13.0,4.332
-29.0,-13.0,4.333
-6.0,-41.0,4.334
-51.0,-73.0,4.335
-84.0,-104.0,4.336
-78.0,-133.0,4.337
-57.0,-157.0,4.338
6.0,-160.0,4.339
46.0,-167.0,4.34
50.0,-179.0,4.341
18.0,-168.0,4.342
-36.0,-141.0,4.343
-94.0,-135.0,4.344
-128.0,-151.0,4.345
-115.0,-152.0,4.346
-46.0,-121.0,4.347
70.0,-108.0,4.348
188.0,-169.0,4.349
233.0,-284.0,4.35
165.0,-350.0,4.351
61.0,-246.0,4.352
41.0,48.0,4.353
135.0,405.0,4.354
232.0,619.0,4.355
213.0,568.0,4.356
82.0,329.0,4.357
-88.0,24.0,4.358
-203.0,-193.0,4.359
-245.0,-270.0,4.36
-256.0,-261.0,4.361
-267.0,-234.0,4.362
-246.0,-214.0,4.363
-145.0,-161.0,4.364
13.0,-38.0,4.365
140.0,129.0,4.366
179.0,267.0,4.367
148.0,331.0,4.368
81.0,328.0,4.369
22.0,302.0,4.37
24.0,294.0,4.371
99.0,298.0,4.372
167.0,259.0,4.373
151.0,145.0,4.374
99.0,2.0,4.375
89.0,-91.0,4.376
85.0,-122.0,4.377
-18.0,-146.0,4.378
-190.0,-184.0,4.379
-276.0,-204.0,4.38
-206.0,-187.0,4.381
-83.0,-153.0,4.382
-21.0,-122.0,4.383
-10.0,-70.0,4.384
3.0,24.0,4.385
17.0,129.0,4.386
11.0,184.0,4.387
-8.0,168.0,4.388
-17.0,115.0,4.389
-16.0,56.0,4.39
-13.0,3.0,4.391
-5.0,-54.0,4.392
9.0,-114.0,4.393
20.0,-172.0,4.394
21.0,-213.0,4.395
21.0,-203.0,4.396
33.0,-129.0,4.397
53.0,-22.0,4.398
61.0,50.0,4.399
51.0,51.0,4.4
-18.0,10.0,4.401
-52.0,-19.0,4.402
21.0,-24.0,4.403
82.0,0.0,4.404
104.0,58.0,4.405
89.0,125.0,4.406
-43.0,137.0,4.407
-127.0,64.0,4.408
-67.0,-41.0,4.409
-18.0,-91.0,4.41
-3.0,-51.0,4.411
8.0,41.0,4.412
9.0,114.0,4.413
6.0,114.0,4.414
-11.0,56.0,4.415
-26.0,-8.0,4.416
-30.0,-46.0,4.417
-23.0,-95.0,4.418
27.0,-177.0,4.419
73.0,-281.0,4.42
81.0,-349.0,4.421
42.0,-327.0,4.422
-10.0,-186.0,4.423
-32.0,61.0,4.424
-19.0,341.0,4.425
-4.0,544.0,4.426
-20.0,593.0,4.427
-49.0,494.0,4.428
-58.0,311.0,4.429
-34.0,130.0,4.43
-5.0,6.0,4.431
2.0,-51.0,4.432
-4.0,-76.0,4.433
14.0,-85.0,4.434
89.0,-62.0,4.435
204.0,-6.0,4.436
284.0,35.0,4.437
263.0,23.0,4.438
144.0,-26.0,4.439
3.0,-72.0,4.44
-80.0,-114.0,4.441
-114.0,-167.0,4.442
-142.0,-222.0,4.443
-165.0,-239.0,4.444
-149.0,-212.0,4.445
-94.0,-172.0,4.446
-48.0,-137.0,4.447
-46.0,-95.0,4.448
-68.0,-41.0,4.449
-76.0,2.0,4.45
-61.0,23.0,4.451
-43.0,27.0,4.452
-27.0,13.0,4.453
1.0,-15.0,4.454
50.0,-27.0,4.455
91.0,19.0,4.456
97.0,114.0,4.457
78.0,206.0,4.458
76.0,240.0,4.459
92.0,207.0,4.46
73.0,123.0,4.461
2.0,7.0,4.462
-73.0,-128.0,4.463
-95.0,-230.0,4.464
-74.0,-252.0,4.465
-49.0,-209.0,4.466
-35.0,-162.0,4.467
-22.0,-146.0,4.468
-13.0,-132.0,4.469
-3.0,-78.0,4.47
14.0,0.0,4.471
27.0,66.0,4.472
9.0,115.0,4.473
-28.0,164.0,4.474
-40.0,208.0,4.475
-13.0,219.0,4.476
27.0,193.0,4.477
54.0,139.0,4.478
74.0,76.0,4.479
79.0,2.0,4.48
41.0,-77.0,4.481
10.0,-126.0,4.482
3.0,-133.0,4.483
-6.0,-109.0,4.484
-18.0,-63.0,4.485
-33.0,0.0,4.486
-57.0,39.0,4.487
-73.0,-20.0,4.488
-65.0,-188.0,4.489
-45.0,-351.0,4.49
8.0,-357.0,4.491
65.0,-124.0,4.492
127.0,280.0,4.493
153.0,660.0,4.494
71.0,811.0,4.495
16.0,679.0,4.496
41.0,411.0,4.497
74.0,153.0,4.498
87.0,-1.0,4.499
18.0,-89.0,4.5
-74.0,-182.0,4.501
-110.0,-286.0,4.502
-68.0,-380.0,4.503
9.0,-459.0,4.504
64.0,-514.0,4.505
86.0,-504.0,4.506
104.0,-410.0,4.507
120.0,-294.0,4.508
93.0,-230.0,4.509
5.0,-204.0,4.51
-92.0,-134.0,4.511
-138.0,11.0,4.512
-135.0,178.0,4.513
-120.0,328.0,4.514
-112.0,479.0,4.515
-97.0,625.0,4.516
-74.0,706.0,4.517
-41.0,676.0,4.518
13.0,562.0,4.519
84.0,419.0,4.52
122.0,269.0,4.521
86.0,109.0,4.522
13.0,-57.0,4.523
-19.0,-199.0,4.524
6.0,-302.0,4.525
24.0,-373.0,4.526
-6.0,-414.0,4.527
-29.0,-406.0,4.528
6.0,-334.0,4.529
54.0,-226.0,4.53
28.0,-144.0,4.531
-60.0,-116.0,4.532
-108.0,-127.0,4.533
-73.0,-149.0,4.534
-16.0,-162.0,4.535
3.0,-122.0,4.536
0.0,17.0,4.537
5.0,270.0,4.538
12.0,513.0,4.539
11.0,590.0,4.54
17.0,461.0,4.541
39.0,229.0,4.542
47.0,16.0,4.543
21.0,-122.0,4.544
-17.0,-182.0,4.545
-34.0,-185.0,4.546
-32.0,-171.0,4.547
-37.0,-186.0,4.548
-48.0,-224.0,4.549
-34.0,-255.0,4.55
28.0,-264.0,4.551
127.0,-258.0,4.552
218.0,-240.0,4.553
242.0,-212.0,4.554
169.0,-177.0,4.555
26.0,-127.0,4.556
-91.0,-47.0,4.557
-129.0,47.0,4.558
-109.0,107.0,4.559
-101.0,160.0,4.56
-130.0,190.0,4.561
-135.0,223.0,4.562
-67.0,261.0,4.563
-9.0,279.0,4.564
16.0,235.0,4.565
32.0,189.0,4.566
21.0,143.0,4.567
20.0,96.0,4.568
51.0,45.0,4.569
84.0,-3.0,4.57
121.0,-39.0,4.571
149.0,-73.0,4.572
143.0,-101.0,4.573
117.0,-134.0,4.574
27.0,-183.0,4.575
-54.0,-230.0,4.576
-111.0,-270.0,4.577
-165.0,-295.0,4.578
-206.0,-268.0,4.579
-232.0,-244.0,4.58
-204.0,-223.0,4.581
-129.0,-183.0,4.582
-61.0,-149.0,4.583
-25.0,-162.0,4.584
29.0,-214.0,4.585
130.0,-211.0,4.586
214.0,-39.0,4.587
217.0,326.0,4.588
165.0,766.0,4.589
120.0,1065.0,4.59
87.0,1070.0,4.591
49.0,826.0,4.592
28.0,511.0,4.593
45.0,269.0,4.594
61.0,104.0,4.595
36.0,-35.0,4.596
0.0,-156.0,4.597
-18.0,-244.0,4.598
-26.0,-282.0,4.599
-44.0,-290.0,4.6
-43.0,-297.0,4.601
-7.0,-296.0,4.602
11.0,-263.0,4.603
-33.0,-185.0,4.604
-103.0,-88.0,4.605
-128.0,-23.0,4.606
-105.0,-29.0,4.607
-76.0,-92.0,4.608
-63.0,-153.0,4.609
-51.0,-175.0,4.61
-35.0,-166.0,4.611
-18.0,-148.0,4.612
2.0,-124.0,4.613
33.0,-92.0,4.614
58.0,-61.0,4.615
56.0,-45.0,4.616
30.0,-38.0,4.617
7.0,-28.0,4.618
15.0,-15.0,4.619
42.0,-13.0,4.62
57.0,-34.0,4.621
44.0,-55.0,4.622
26.0,-58.0,4.623
16.0,-38.0,4.624
0.0,-17.0,4.625
-33.0,-24.0,4.626
-55.0,-59.0,4.627
-40.0,-92.0,4.628
-11.0,-84.0,4.629
3.0,-16.0,4.63
14.0,89.0,4.631
41.0,189.0,4.632
66.0,250.0,4.633
53.0,281.0,4.634
11.0,302.0,4.635
-12.0,310.0,4.636
-6.0,281.0,4.637
0.0,199.0,4.638
-5.0,105.0,4.639
-10.0,33.0,4.64
-8.0,-20.0,4.641
-5.0,-58.0,4.642
-2.0,-71.0,4.643
5.0,-48.0,4.644
25.0,-16.0,4.645
37.0,-4.0,4.646
26.0,-18.0,4.647
21.0,-38.0,4.648
37.0,-47.0,4.649
40.0,-44.0,4.65
6.0,-39.0,4.651
-21.0,-40.0,4.652
-29.0,-54.0,4.653
-29.0,-69.0,4.654
-3.0,-74.0,4.655
17.0,-76.0,4.656
23.0,-84.0,4.657
23.0,-97.0,4.658
-11.0,-95.0,4.659
-46.0,-80.0,4.66
-55.0,-70.0,4.661
-32.0,-62.0,4.662
4.0,-43.0,4.663
28.0,-7.0,4.664
28.0,35.0,4.665
29.0,53.0,4.666
49.0,35.0,4.667
59.0,-2.0,4.668
15.0,-19.0,4.669
-59.0,1.0,4.67
-83.0,40.0,4.671
-21.0,57.0,4.672
66.0,48.0,4.673
93.0,34.0,4.674
37.0,25.0,4.675
-44.0,11.0,4.676
-83.0,-3.0,4.677
-75.0,-12.0,4.678
-66.0,-16.0,4.679
-89.0,-22.0,4.68
-115.0,-33.0,4.681
-98.0,-29.0,4.682
-46.0,-11.0,4.683
-3.0,1.0,4.684
14.0,4.0,4.685
24.0,7.0,4.686
38.0,14.0,4.687
43.0,17.0,4.688
36.0,15.0,4.689
33.0,17.0,4.69
35.0,25.0,4.691
34.0,26.0,4.692
33.0,25.0,4.693
37.0,27.0,4.694
45.0,32.0,4.695
45.0,34.0,4.696
38.0,29.0,4.697
34.0,16.0,4.698
37.0,5.0,4.699
38.0,-1.0,4.7
32.0,-3.0,4.701
21.0,2.0,4.702
9.0,4.0,4.703
1.0,-2.0,4.704
-4.0,-5.0,4.705
-5.0,-4.0,4.706
-8.0,-6.0,4.707
-10.0,-12.0,4.708
-8.0,-15.0,4.709
-3.0,-10.0,4.71
3.0,-6.0,4.711
17.0,-9.0,4.712
35.0,-10.0,4.713
45.0,-7.0,4.714
27.0,-3.0,4.715
-8.0,-4.0,4.716
-32.0,-7.0,4.717
-38.0,-8.0,4.718
-33.0,-8.0,4.719
-29.0,-11.0,4.72
-32.0,-15.0,4.721
-32.0,-16.0,4.722
-18.0,-15.0,4.723
-7.0,-11.0,4.724
-4.0,-2.0,4.725
-1.0,7.0,4.726
4.0,8.0,4.727
10.0,3.0,4.728
14.0,-1.0,4.729
16.0,-1.0,4.73
7.0,0.0,4.731
2.0,1.0,4.732
13.0,4.0,4.733
21.0,3.0,4.734
19.0,0.0,4.735
19.0,0.0,4.736
23.0,5.0,4.737
25.0,10.0,4.738
13.0,9.0,4.739
4.0,5.0,4.74
10.0,1.0,4.741
14.0,0.0,4.742
8.0,-1.0,4.743
-4.0,-1.0,4.744
-22.0,0.0,4.745
-39.0,-1.0,4.746
-41.0,-8.0,4.747
-20.0,-12.0,4.748
4.0,-7.0,4.749
9.0,2.0,4.75
-3.0,7.0,4.751
-10.0,2.0,4.752
-9.0,0.0,4.753
-11.0,3.0,4.754
-14.0,6.0,4.755
-9.0,3.0,4.756
0.0,1.0,4.757
2.0,-4.0,4.758
-3.0,-8.0,4.759
-7.0,-12.0,4.76
-5.0,-15.0,4.761
3.0,-11.0,4.762
32.0,-2.0,4.763
60.0,6.0,4.764
81.0,13.0,4.765
84.0,16.0,4.766
29.0,16.0,4.767
-14.0,12.0,4.768
-23.0,8.0,4.769
-29.0,5.0,4.77
-26.0,2.0,4.771
-27.0,-1.0,4.772
-47.0,-5.0,4.773
-57.0,-5.0,4.774
-35.0,-5.0,4.775
-15.0,-7.0,4.776
-1.0,-9.0,4.777
15.0,-9.0,4.778
26.0,-6.0,4.779
22.0,-2.0,4.78
19.0,-5.0,4.781
30.0,-7.0,4.782
45.0,-8.0,4.783
39.0,-9.0,4.784
10.0,-5.0,4.785
-13.0,4.0,4.786
-14.0,17.0,4.787
4.0,28.0,4.788
31.0,26.0,4.789
61.0,7.0,4.79
73.0,-8.0,4.791
53.0,-9.0,4.792
18.0,-1.0,4.793
-5.0,3.0,4.794
-16.0,-1.0,4.795
-28.0,-3.0,4.796
-35.0,1.0,4.797
-35.0,1.0,4.798
-36.0,-1.0,4.799
-41.0,2.0,4.8
-56.0,3.0,4.801
-64.0,0.0,4.802
-50.0,-4.0,4.803
-39.0,1.0,4.804
-35.0,9.0,4.805
-27.0,4.0,4.806
-7.0,-17.0,4.807
9.0,-34.0,4.808
13.0,-36.0,4.809
25.0,-23.0,4.81
57.0,-8.0,4.811
74.0,2.0,4.812
47.0,8.0,4.813
25.0,10.0,4.814
17.0,14.0,4.815
7.0,16.0,4.816
-6.0,17.0,4.817
-22.0,15.0,4.818
-26.0,15.0,4.819
16.0,10.0,4.82
74.0,-7.0,4.821
97.0,-22.0,4.822
64.0,-23.0,4.823
-1.0,-12.0,4.824
-55.0,-2.0,4.825
-72.0,3.0,4.826
-64.0,4.0,4.827
-50.0,1.0,4.828
-25.0,-2.0,4.829
24.0,-1.0,4.83
79.0,4.0,4.831
98.0,6.0,4.832
64.0,2.0,4.833
-10.0,0.0,4.834
-92.0,-1.0,4.835
-145.0,-3.0,4.836
-136.0,-2.0,4.837
-71.0,1.0,4.838
-16.0,6.0,4.839
-25.0,-1.0,4.84
-63.0,-19.0,4.841
-61.0,-24.0,4.842
-11.0,-14.0,4.843
29.0,-6.0,4.844
36.0,-7.0,4.845
38.0,-5.0,4.846
57.0,3.0,4.847
75.0,9.0,4.848
75.0,5.0,4.849
60.0,5.0,4.85
41.0,12.0,4.851
27.0,17.0,4.852
25.0,11.0,4.853
50.0,6.0,4.854
91.0,6.0,4.855
115.0,6.0,4.856
91.0,2.0,4.857
15.0,-1.0,4.858
-65.0,0.0,4.859
-118.0,0.0,4.86
-89.0,-12.0,4.861
-54.0,-20.0,4.862
-3.0,-17.0,4.863
37.0,-9.0,4.864
41.0,8.0,4.865
41.0,22.0,4.866
27.0,19.0,4.867
17.0,14.0,4.868
21.0,5.0,4.869
19.0,-1.0,4.87
-1.0,4.0,4.871
-12.0,7.0,4.872
8.0,0.0,4.873
25.0,-5.0,4.874
31.0,0.0,4.875
33.0,4.0,4.876
22.0,1.0,4.877
10.0,1.0,4.878
-1.0,6.0,4.879
-7.0,9.0,4.88
-1.0,1.0,4.881
14.0,-5.0,4.882
30.0,-9.0,4.883
46.0,-14.0,4.884
46.0,-20.0,4.885
19.0,-18.0,4.886
-21.0,-13.0,4.887
-49.0,-7.0,4.888
-59.0,-7.0,4.889
-68.0,-7.0,4.89
-79.0,-3.0,4.891
-79.0,3.0,4.892
-67.0,7.0,4.893
-59.0,5.0,4.894
-55.0,-3.0,4.895
-41.0,-10.0,4.896
-18.0,-11.0,4.897
0.0,-9.0,4.898
7.0,-7.0,4.899
11.0,-6.0,4.9
16.0,-6.0,4.901
20.0,-4.0,4.902
26.0,-4.0,4.903
34.0,-2.0,4.904
36.0,6.0,4.905
29.0,11.0,4.906
22.0,5.0,4.907
22.0,-1.0,4.908
26.0,0.0,4.909
28.0,7.0,4.91
30.0,12.0,4.911
31.0,10.0,4.912
36.0,10.0,4.913
45.0,10.0,4.914
53.0,9.0,4.915
39.0,2.0,4.916
2.0,-1.0,4.917
-37.0,-4.0,4.918
-49.0,-4.0,4.919
-34.0,-4.0,4.92
-26.0,-7.0,4.921
-37.0,-9.0,4.922
-43.0,-9.0,4.923
-29.0,-6.0,4.924
-12.0,-1.0,4.925
-9.0,-1.0,4.926
-10.0,-4.0,4.927
-2.0,-4.0,4.928
9.0,-1.0,4.929
12.0,1.0,4.93
11.0,4.0,4.931
16.0,6.0,4.932
24.0,6.0,4.933
26.0,3.0,4.934
22.0,3.0,4.935
19.0,4.0,4.936
17.0,3.0,4.937
9.0,-4.0,4.938
1.0,-10.0,4.939
-2.0,-9.0,4.94
0.0,-7.0,4.941
1.0,-2.0,4.942
8.0,3.0,4.943
18.0,9.0,4.944
24.0,11.0,4.945
18.0,6.0,4.946
4.0,-4.0,4.947
-1.0,-5.0,4.948
-1.0,-3.0,4.949
-2.0,-3.0,4.95
-8.0,-9.0,4.951
-9.0,-11.0,4.952
-9.0,-5.0,4.953
-7.0,3.0,4.954
-5.0,7.0,4.955
0.0,5.0,4.956
5.0,3.0,4.957
3.0,-1.0,4.958
0.0,-4.0,4.959
-3.0,-4.0,4.96
-5.0,-3.0,4.961
-3.0,-2.0,4.962
4.0,1.0,4.963
12.0,4.0,4.964
12.0,3.0,4.965
8.0,3.0,4.966
14.0,0.0,4.967
24.0,-1.0,4.968
25.0,-3.0,4.969
7.0,-2.0,4.97
-8.0,0.0,4.971
-13.0,2.0,4.972
-16.0,1.0,4.973
-22.0,-2.0,4.974
-13.0,-7.0,4.975
13.0,-10.0,4.976
23.0,-9.0,4.977
-3.0,-8.0,4.978
-40.0,-5.0,4.979
-48.0,-3.0,4.98
-23.0,-4.0,4.981
6.0,-2.0,4.982
24.0,3.0,4.983
41.0,5.0,4.984
53.0,3.0,4.985
45.0,3.0,4.986
18.0,5.0,4.987
-6.0,6.0,4.988
-12.0,5.0,4.989
-3.0,0.0,4.99
17.0,-8.0,4.991
32.0,-12.0,4.992
17.0,-9.0,4.993
-40.0,-2.0,4.994
-107.0,-3.0,4.995
-130.0,-12.0,4.996
-99.0,-12.0,4.997
-58.0,-2.0,4.998
-40.0,4.0,4.999
-25.0,-4.0,5.0
-18.0,-14.0,5.001
-8.0,-9.0,5.002
12.0,0.0,5.003
29.0,3.0,5.004
37.0,3.0,5.005
44.0,9.0,5.006
44.0,14.0,5.007
44.0,11.0,5.008
45.0,3.0,5.009
45.0,3.0,5.01
43.0,7.0,5.011
40.0,8.0,5.012
34.0,3.0,5.013
29.0,0.0,5.014
26.0,1.0,5.015
22.0,1.0,5.016
19.0,0.0,5.017
17.0,0.0,5.018
16.0,3.0,5.019
16.0,11.0,5.02
16.0,9.0,5.021
14.0,2.0,5.022
9.0,-3.0,5.023
4.0,-1.0,5.024
0.0,4.0,5.025
0.0,5.0,5.026
5.0,1.0,5.027
8.0,-2.0,5.028
2.0,-3.0,5.029
-5.0,-6.0,5.03
-7.0,-8.0,5.031
-3.0,-8.0,5.032
0.0,-3.0,5.033
5.0,1.0,5.034
15.0,2.0,5.035
20.0,0.0,5.036
10.0,0.0,5.037
-15.0,-1.0,5.038
-28.0,-1.0,5.039
-39.0,-2.0,5.04
-41.0,-6.0,5.041
-39.0,-8.0,5.042
-25.0,-5.0,5.043
-12.0,-3.0,5.044
-4.0,-3.0,5.045
3.0,-3.0,5.046
1.0,-3.0,5.047
3.0,-1.0,5.048
19.0,0.0,5.049
31.0,2.0,5.05
32.0,4.0,5.051
32.0,6.0,5.052
26.0,1.0,5.053
21.0,-3.0,5.054
18.0,-3.0,5.055
22.0,-2.0,5.056
50.0,0.0,5.057
76.0,4.0,5.058
76.0,9.0,5.059
42.0,14.0,5.06
-10.0,11.0,5.061
-55.0,4.0,5.062
-64.0,-6.0,5.063
-33.0,-13.0,5.064
-7.0,-17.0,5.065
-24.0,-14.0,5.066
-68.0,-13.0,5.067
-91.0,-18.0,5.068
-77.0,-22.0,5.069
-55.0,-15.0,5.07
-45.0,-4.0,5.071
-32.0,1.0,5.072
-10.0,-2.0,5.073
-2.0,-7.0,5.074
-18.0,-6.0,5.075
-27.0,-1.0,5.076
-3.0,2.0,5.077
30.0,0.0,5.078
34.0,0.0,5.079
11.0,5.0,5.08
5.0,8.0,5.081
29.0,13.0,5.082
51.0,14.0,5.083
46.0,12.0,5.084
37.0,10.0,5.085
44.0,7.0,5.086
61.0,5.0,5.087
73.0,4.0,5.088
82.0,7.0,5.089
93.0,15.0,5.09
93.0,20.0,5.091
79.0,18.0,5.092
90.0,12.0,5.093
155.0,11.0,5.094
217.0,10.0,5.095
146.0,7.0,5.096
-56.0,2.0,5.097
-266.0,-2.0,5.098
-320.0,-1.0,5.099
-229.0,-1.0,5.1
-141.0,-8.0,5.101
-130.0,-22.0,5.102
-133.0,-40.0,5.103
-97.0,-53.0,5.104
-46.0,-50.0,5.105
-26.0,-35.0,5.106
-36.0,-19.0,5.107
-36.0,-8.0,5.108
5.0,0.0,5.109
80.0,10.0,5.11
124.0,19.0,5.111
81.0,25.0,5.112
-25.0,31.0,5.113
-106.0,34.0,5.114
-103.0,26.0,5.115
-42.0,5.0,5.116
20.0,-11.0,5.117
61.0,-25.0,5.118
73.0,-35.0,5.119
68.0,-42.0,5.12
76.0,-42.0,5.121
99.0,-32.0,5.122
106.0,-20.0,5.123
72.0,-7.0,5.124
30.0,11.0,5.125
19.0,33.0,5.126
28.0,41.0,5.127
40.0,31.0,5.128
76.0,11.0,5.129
142.0,-3.0,5.13
153.0,-8.0,5.131
45.0,-9.0,5.132
-109.0,-7.0,5.133
-166.0,-5.0,5.134
-108.0,-2.0,5.135
-45.0,-2.0,5.136
-49.0,-1.0,5.137
-71.0,-1.0,5.138
-45.0,0.0,5.139
7.0,4.0,5.14
33.0,8.0,5.141
38.0,13.0,5.142
59.0,15.0,5.143
88.0,14.0,5.144
85.0,19.0,5.145
48.0,26.0,5.146
0.0,25.0,5.147
-28.0,13.0,5.148
-31.0,1.0,5.149
-20.0,1.0,5.15
-7.0,7.0,5.151
-2.0,7.0,5.152
-2.0,2.0,5.153
-3.0,-2.0,5.154
-5.0,-2.0,5.155
-5.0,-5.0,5.156
-2.0,-12.0,5.157
-8.0,-19.0,5.158
-31.0,-10.0,5.159
-59.0,3.0,5.16
-61.0,7.0,5.161
-31.0,-1.0,5.162
3.0,-10.0,5.163
21.0,-13.0,5.164
34.0,-12.0,5.165
55.0,-14.0,5.166
76.0,-17.0,5.167
72.0,-13.0,5.168
46.0,-6.0,5.169
23.0,0.0,5.17
28.0,-2.0,5.171
56.0,-6.0,5.172
76.0,-7.0,5.173
49.0,-6.0,5.174
-31.0,-3.0,5.175
-117.0,4.0,5.176
-149.0,19.0,5.177
-124.0,27.0,5.178
-86.0,18.0,5.179
-71.0,-2.0,5.18
-46.0,-19.0,5.181
33.0,-15.0,5.182
136.0,-1.0,5.183
173.0,3.0,5.184
113.0,-4.0,5.185
27.0,-7.0,5.186
-15.0,4.0,5.187
0.0,16.0,5.188
46.0,22.0,5.189
90.0,19.0,5.19
82.0,16.0,5.191
-22.0,9.0,5.192
-182.0,-6.0,5.193
-285.0,-28.0,5.194
-270.0,-48.0,5.195
-201.0,-53.0,5.196
-157.0,-42.0,5.197
-121.0,-20.0,5.198
-44.0,6.0,5.199
54.0,30.0,5.2
108.0,36.0,5.201
116.0,31.0,5.202
128.0,21.0,5.203
161.0,15.0,5.204
179.0,17.0,5.205
171.0,17.0,5.206
144.0,12.0,5.207
80.0,1.0,5.208
-39.0,-11.0,5.209
-171.0,-27.0,5.21
-222.0,-43.0,5.211
-174.0,-43.0,5.212
-95.0,-23.0,5.213
-39.0,1.0,5.214
5.0,12.0,5.215
56.0,13.0,5.216
92.0,20.0,5.217
94.0,23.0,5.218
80.0,11.0,5.219
74.0,-6.0,5.22
68.0,-9.0,5.221
56.0,4.0,5.222
58.0,12.0,5.223
74.0,8.0,5.224
73.0,8.0,5.225
32.0,15.0,5.226
-14.0,17.0,5.227
-24.0,12.0,5.228
-9.0,13.0,5.229
-3.0,12.0,5.23
-7.0,-6.0,5.231
-11.0,-28.0,5.232
-18.0,-27.0,5.233
-20.0,-6.0,5.234
17.0,6.0,5.235
89.0,1.0,5.236
125.0,-4.0,5.237
63.0,-7.0,5.238
-44.0,-10.0,5.239
-95.0,-13.0,5.24
-66.0,-11.0,5.241
-30.0,3.0,5.242
-26.0,14.0,5.243
-20.0,12.0,5.244
4.0,2.0,5.245
13.0,-6.0,5.246
-10.0,-13.0,5.247
-21.0,-20.0,5.248
1.0,-17.0,5.249
15.0,-6.0,5.25
-11.0,2.0,5.251
-31.0,2.0,5.252
-8.0,2.0,5.253
21.0,6.0,5.254
3.0,8.0,5.255
-35.0,-2.0,5.256
-43.0,-16.0,5.257
-36.0,-20.0,5.258
-63.0,-8.0,5.259
-92.0,12.0,5.26
-46.0,24.0,5.261
54.0,21.0,5.262
94.0,4.0,5.263
40.0,-15.0,5.264
-12.0,-28.0,5.265
4.0,-25.0,5.266
32.0,-15.0,5.267
11.0,-6.0,5.268
-18.0,-2.0,5.269
0.0,0.0,5.27
37.0,2.0,5.271
44.0,1.0,5.272
27.0,2.0,5.273
15.0,5.0,5.274
-2.0,13.0,5.275
-19.0,21.0,5.276
2.0,30.0,5.277
83.0,33.0,5.278
169.0,33.0,5.279
181.0,26.0,5.28
124.0,14.0,5.281
51.0,8.0,5.282
-12.0,5.0,5.283
-74.0,2.0,5.284
-138.0,-5.0,5.285
-189.0,-14.0,5.286
-202.0,-25.0,5.287
-157.0,-44.0,5.288
-68.0,-68.0,5.289
10.0,-80.0,5.29
37.0,-63.0,5.291
44.0,-22.0,5.292
83.0,10.0,5.293
129.0,22.0,5.294
117.0,23.0,5.295
54.0,30.0,5.296
28.0,42.0,5.297
43.0,37.0,5.298
28.0,15.0,5.299
-5.0,-3.0,5.3
-95.0,-7.0,5.301
-166.0,-2.0,5.302
-177.0,0.0,5.303
-189.0,5.0,5.304
-203.0,12.0,5.305
-188.0,13.0,5.306
-81.0,2.0,5.307
18.0,-4.0,5.308
96.0,-1.0,5.309
177.0,-1.0,5.31
261.0,-11.0,5.311
283.0,-19.0,5.312
119.0,-10.0,5.313
-28.0,8.0,5.314
-126.0,17.0,5.315
-188.0,11.0,5.316
-135.0,5.0,5.317
-90.0,-5.0,5.318
-56.0,-17.0,5.319
33.0,-27.0,5.32
124.0,-33.0,5.321
135.0,-29.0,5.322
93.0,-17.0,5.323
86.0,2.0,5.324
115.0,26.0,5.325
125.0,33.0,5.326
142.0,20.0,5.327
236.0,10.0,5.328
381.0,25.0,5.329
448.0,50.0,5.33
356.0,61.0,5.331
128.0,57.0,5.332
-169.0,55.0,5.333
-440.0,53.0,5.334
-549.0,30.0,5.335
-425.0,-20.0,5.336
-211.0,-72.0,5.337
-112.0,-103.0,5.338
-195.0,-105.0,5.339
-301.0,-87.0,5.34
-273.0,-67.0,5.341
-153.0,-48.0,5.342
-50.0,-36.0,5.343
25.0,-24.0,5.344
105.0,-12.0,5.345
152.0,-7.0,5.346
115.0,-8.0,5.347
54.0,-4.0,5.348
59.0,17.0,5.349
114.0,42.0,5.35
137.0,46.0,5.351
105.0,24.0,5.352
56.0,1.0,5.353
10.0,1.0,5.354
-36.0,17.0,5.355
-53.0,27.0,5.356
-27.0,25.0,5.357
11.0,18.0,5.358
33.0,25.0,5.359
57.0,33.0,5.36
106.0,22.0,5.361
152.0,-3.0,5.362
151.0,-18.0,5.363
117.0,-8.0,5.364
93.0,9.0,5.365
84.0,7.0,5.366
47.0,-8.0,5.367
-48.0,-5.0,5.368
-160.0,20.0,5.369
-184.0,36.0,5.37
-75.0,24.0,5.371
62.0,1.0,5.372
87.0,-9.0,5.373
20.0,-14.0,5.374
0.0,-25.0,5.375
56.0,-28.0,5.376
67.0,-17.0,5.377
-27.0,-10.0,5.378
-123.0,-21.0,5.379
-114.0,-36.0,5.38
-53.0,-32.0,5.381
-29.0,-9.0,5.382
-21.0,9.0,5.383
20.0,17.0,5.384
59.0,28.0,5.385
34.0,41.0,5.386
-11.0,50.0,5.387
2.0,49.0,5.388
47.0,40.0,5.389
28.0,21.0,5.39
-50.0,-12.0,5.391
-84.0,-45.0,5.392
-29.0,-62.0,5.393
37.0,-52.0,5.394
33.0,-30.0,5.395
-12.0,-11.0,5.396
-27.0,-6.0,5.397
-4.0,-7.0,5.398
12.0,-2.0,5.399
2.0,10.0,5.4
-3.0,13.0,5.401
11.0,9.0,5.402
21.0,3.0,5.403
17.0,1.0,5.404
13.0,-3.0,5.405
18.0,-13.0,5.406
24.0,-18.0,5.407
21.0,-12.0,5.408
15.0,-1.0,5.409
12.0,3.0,5.41
7.0,3.0,5.411
3.0,6.0,5.412
2.0,9.0,5.413
-3.0,8.0,5.414
-10.0,1.0,5.415
-15.0,-4.0,5.416
-13.0,-2.0,5.417
-13.0,1.0,5.418
-17.0,3.0,5.419
-14.0,5.0,5.42
2.0,7.0,5.421
24.0,11.0,5.422
42.0,7.0,5.423
44.0,-1.0,5.424
15.0,-6.0,5.425
-34.0,-8.0,5.426
-66.0,-14.0,5.427
-53.0,-21.0,5.428
-16.0,-16.0,5.429
5.0,1.0,5.43
4.0,18.0,5.431
-1.0,20.0,5.432
-8.0,10.0,5.433
-20.0,4.0,5.434
-17.0,14.0,5.435
19.0,35.0,5.436
60.0,49.0,5.437
63.0,41.0,5.438
34.0,19.0,5.439
19.0,3.0,5.44
24.0,-3.0,5.441
2.0,-9.0,5.442
-49.0,-30.0,5.443
-62.0,-47.0,5.444
-20.0,-45.0,5.445
11.0,-37.0,5.446
-18.0,-39.0,5.447
-63.0,-48.0,5.448
-69.0,-43.0,5.449
-50.0,-23.0,5.45
-45.0,-10.0,5.451
-44.0,-13.0,5.452
-16.0,-20.0,5.453
54.0,-12.0,5.454
172.0,14.0,5.455
306.0,55.0,5.456
358.0,87.0,5.457
234.0,91.0,5.458
1.0,65.0,5.459
-161.0,39.0,5.46
-180.0,31.0,5.461
-164.0,24.0,5.462
-193.0,-11.0,5.463
-192.0,-62.0,5.464
-110.0,-82.0,5.465
-46.0,-64.0,5.466
-77.0,-36.0,5.467
-105.0,-20.0,5.468
-33.0,-14.0,5.469
64.0,-9.0,5.47
90.0,-7.0,5.471
103.0,-5.0,5.472
186.0,-2.0,5.473
259.0,0.0,5.474
199.0,1.0,5.475
36.0,3.0,5.476
-100.0,10.0,5.477
-185.0,13.0,5.478
-232.0,12.0,5.479
-206.0,10.0,5.48
-85.0,4.0,5.481
56.0,-3.0,5.482
118.0,-10.0,5.483
99.0,-10.0,5.484
59.0,-5.0,5.485
25.0,2.0,5.486
5.0,12.0,5.487
20.0,28.0,5.488
56.0,34.0,5.489
62.0,21.0,5.49
34.0,3.0,5.491
24.0,3.0,5.492
45.0,14.0,5.493
54.0,13.0,5.494
50.0,1.0,5.495
79.0,-2.0,5.496
122.0,3.0,5.497
100.0,0.0,5.498
-2.0,-9.0,5.499
-95.0,-7.0,5.5
-111.0,3.0,5.501
-98.0,14.0,5.502
-109.0,13.0,5.503
-113.0,2.0,5.504
-63.0,-7.0,5.505
11.0,-10.0,5.506
47.0,-12.0,5.507
35.0,-17.0,5.508
17.0,-25.0,5.509
12.0,-28.0,5.51
10.0,-23.0,5.511
0.0,-14.0,5.512
-7.0,-14.0,5.513
-6.0,-19.0,5.514
-3.0,-14.0,5.515
-2.0,4.0,5.516
5.0,28.0,5.517
19.0,41.0,5.518
29.0,38.0,5.519
18.0,16.0,5.52
-3.0,-9.0,5.521
-10.0,-16.0,5.522
4.0,-7.0,5.523
21.0,1.0,5.524
26.0,3.0,5.525
35.0,10.0,5.526
66.0,24.0,5.527
100.0,27.0,5.528
96.0,14.0,5.529
55.0,7.0,5.53
40.0,19.0,5.531
83.0,33.0,5.532
100.0,27.0,5.533
1.0,1.0,5.534
-137.0,-22.0,5.535
-131.0,-38.0,5.536
11.0,-48.0,5.537
81.0,-52.0,5.538
-65.0,-40.0,5.539
-258.0,-12.0,5.54
-240.0,15.0,5.541
-75.0,20.0,5.542
-37.0,-5.0,5.543
-175.0,-40.0,5.544
-261.0,-50.0,5.545
-171.0,-27.0,5.546
-35.0,-1.0,5.547
19.0,-4.0,5.548
44.0,-32.0,5.549
119.0,-62.0,5.55
183.0,-71.0,5.551
159.0,-43.0,5.552
91.0,14.0,5.553
64.0,69.0,5.554
74.0,76.0,5.555
63.0,34.0,5.556
38.0,-4.0,5.557
29.0,-3.0,5.558
40.0,16.0,5.559
38.0,17.0,5.56
17.0,-1.0,5.561
9.0,0.0,5.562
24.0,19.0,5.563
36.0,27.0,5.564
28.0,16.0,5.565
9.0,11.0,5.566
0.0,16.0,5.567
4.0,16.0,5.568
9.0,8.0,5.569
9.0,6.0,5.57
12.0,17.0,5.571
12.0,24.0,5.572
5.0,16.0,5.573
3.0,3.0,5.574
15.0,-12.0,5.575
29.0,-26.0,5.576
26.0,-28.0,5.577
1.0,-17.0,5.578
-17.0,-2.0,5.579
-13.0,8.0,5.58
0.0,8.0,5.581
4.0,7.0,5.582
1.0,4.0,5.583
0.0,0.0,5.584
4.0,1.0,5.585
6.0,9.0,5.586
5.0,10.0,5.587
5.0,1.0,5.588
3.0,-2.0,5.589
-3.0,2.0,5.59
-6.0,1.0,5.591
-2.0,-12.0,5.592
13.0,-21.0,5.593
30.0,-15.0,5.594
39.0,-4.0,5.595
33.0,6.0,5.596
16.0,18.0,5.597
3.0,34.0,5.598
19.0,38.0,5.599
55.0,15.0,5.6
76.0,-19.0,5.601
68.0,-28.0,5.602
71.0,-8.0,5.603
96.0,13.0,5.604
68.0,16.0,5.605
-72.0,9.0,5.606
-234.0,9.0,5.607
-274.0,14.0,5.608
-215.0,15.0,5.609
-214.0,11.0,5.61
-282.0,1.0,5.611
-254.0,-19.0,5.612
-94.0,-50.0,5.613
16.0,-79.0,5.614
-30.0,-92.0,5.615
-85.0,-82.0,5.616
-20.0,-62.0,5.617
92.0,-44.0,5.618
119.0,-37.0,5.619
81.0,-36.0,5.62
79.0,-30.0,5.621
96.0,-11.0,5.622
72.0,11.0,5.623
43.0,30.0,5.624
63.0,44.0,5.625
101.0,61.0,5.626
109.0,71.0,5.627
108.0,62.0,5.628
134.0,37.0,5.629
155.0,15.0,5.63
130.0,10.0,5.631
80.0,11.0,5.632
41.0,10.0,5.633
21.0,7.0,5.634
18.0,8.0,5.635
27.0,7.0,5.636
33.0,5.0,5.637
14.0,-2.0,5.638
-13.0,-5.0,5.639
-23.0,-7.0,5.64
-20.0,-12.0,5.641
-4.0,-11.0,5.642
38.0,4.0,5.643
107.0,26.0,5.644
141.0,38.0,5.645
99.0,34.0,5.646
28.0,30.0,5.647
9.0,36.0,5.648
25.0,47.0,5.649
-9.0,41.0,5.65
-110.0,13.0,5.651
-188.0,-23.0,5.652
-196.0,-51.0,5.653
-191.0,-67.0,5.654
-241.0,-75.0,5.655
-295.0,-73.0,5.656
-265.0,-60.0,5.657
-149.0,-45.0,5.658
-42.0,-35.0,5.659
1.0,-32.0,5.66
17.0,-30.0,5.661
39.0,-20.0,5.662
59.0,-8.0,5.663
64.0,-3.0,5.664
65.0,4.0,5.665
72.0,15.0,5.666
81.0,26.0,5.667
82.0,28.0,5.668
81.0,25.0,5.669
77.0,21.0,5.67
67.0,19.0,5.671
62.0,17.0,5.672
66.0,18.0,5.673
72.0,23.0,5.674
70.0,29.0,5.675
60.0,30.0,5.676
48.0,27.0,5.677
32.0,22.0,5.678
13.0,16.0,5.679
4.0,11.0,5.68
21.0,5.0,5.681
64.0,5.0,5.682
108.0,10.0,5.683
104.0,11.0,5.684
30.0,0.0,5.685
-60.0,-18.0,5.686
-77.0,-24.0,5.687
-23.0,-10.0,5.688
-11.0,8.0,5.689
-107.0,15.0,5.69
-216.0,11.0,5.691
-206.0,9.0,5.692
-95.0,10.0,5.693
-18.0,5.0,5.694
-22.0,-11.0,5.695
-17.0,-35.0,5.696
53.0,-55.0,5.697
145.0,-65.0,5.698
172.0,-52.0,5.699
127.0,-20.0,5.7
69.0,0.0,5.701
19.0,-2.0,5.702
-41.0,-20.0,5.703
-101.0,-34.0,5.704
-116.0,-29.0,5.705
-36.0,0.0,5.706
138.0,41.0,5.707
305.0,74.0,5.708
315.0,70.0,5.709
111.0,38.0,5.71
-158.0,13.0,5.711
-293.0,14.0,5.712
-256.0,23.0,5.713
-178.0,15.0,5.714
-139.0,3.0,5.715
-95.0,6.0,5.716
-23.0,17.0,5.717
21.0,5.0,5.718
4.0,-24.0,5.719
-17.0,-48.0,5.72
21.0,-55.0,5.721
83.0,-50.0,5.722
111.0,-39.0,5.723
115.0,-15.0,5.724
125.0,15.0,5.725
113.0,31.0,5.726
47.0,19.0,5.727
-34.0,1.0,5.728
-89.0,-2.0,5.729
-113.0,7.0,5.73
-123.0,11.0,5.731
-106.0,3.0,5.732
-58.0,-9.0,5.733
-14.0,-21.0,5.734
-5.0,-23.0,5.735
0.0,-15.0,5.736
49.0,-5.0,5.737
131.0,-1.0,5.738
178.0,5.0,5.739
131.0,25.0,5.74
20.0,48.0,5.741
-81.0,48.0,5.742
-111.0,17.0,5.743
-63.0,-24.0,5.744
12.0,-42.0,5.745
70.0,-29.0,5.746
108.0,0.0,5.747
161.0,25.0,5.748
215.0,36.0,5.749
189.0,37.0,5.75
26.0,34.0,5.751
-190.0,26.0,5.752
-304.0,11.0,5.753
-271.0,-10.0,5.754
-188.0,-36.0,5.755
-142.0,-58.0,5.756
-108.0,-64.0,5.757
-47.0,-58.0,5.758
9.0,-49.0,5.759
19.0,-45.0,5.76
15.0,-37.0,5.761
31.0,-15.0,5.762
50.0,13.0,5.763
61.0,30.0,5.764
98.0,35.0,5.765
151.0,34.0,5.766
153.0,34.0,5.767
107.0,35.0,5.768
102.0,36.0,5.769
161.0,36.0,5.77
183.0,33.0,5.771
114.0,31.0,5.772
20.0,36.0,5.773
-42.0,38.0,5.774
-111.0,16.0,5.775
-194.0,-28.0,5.776
-204.0,-66.0,5.777
-102.0,-80.0,5.778
5.0,-69.0,5.779
19.0,-41.0,5.78
-12.0,-10.0,5.781
6.0,13.0,5.782
48.0,11.0,5.783
44.0,1.0,5.784
12.0,5.0,5.785
8.0,21.0,5.786
25.0,24.0,5.787
21.0,13.0,5.788
6.0,10.0,5.789
12.0,19.0,5.79
31.0,20.0,5.791
44.0,11.0,5.792
64.0,15.0,5.793
106.0,30.0,5.794
150.0,32.0,5.795
181.0,22.0,5.796
189.0,14.0,5.797
128.0,11.0,5.798
-25.0,-4.0,5.799
-189.0,-35.0,5.8
-248.0,-61.0,5.801
-218.0,-64.0,5.802
-217.0,-51.0,5.803
-263.0,-40.0,5.804
-255.0,-35.0,5.805
-158.0,-27.0,5.806
-55.0,-9.0,5.807
11.0,17.0,5.808
83.0,43.0,5.809
147.0,49.0,5.81
112.0,35.0,5.811
-16.0,9.0,5.812
-116.0,-21.0,5.813
-118.0,-49.0,5.814
-76.0,-59.0,5.815
-34.0,-40.0,5.816
15.0,-7.0,5.817
69.0,12.0,5.818
81.0,16.0,5.819
63.0,22.0,5.82
67.0,28.0,5.821
87.0,22.0,5.822
71.0,-1.0,5.823
28.0,-21.0,5.824
15.0,-21.0,5.825
30.0,-5.0,5.826
27.0,6.0,5.827
15.0,8.0,5.828
31.0,9.0,5.829
64.0,13.0,5.83
66.0,22.0,5.831
42.0,21.0,5.832
44.0,12.0,5.833
84.0,9.0,5.834
118.0,15.0,5.835
109.0,22.0,5.836
57.0,21.0,5.837
-28.0,14.0,5.838
-92.0,10.0,5.839
-97.0,2.0,5.84
-68.0,-15.0,5.841
-63.0,-27.0,5.842
-77.0,-19.0,5.843
-56.0,0.0,5.844
3.0,6.0,5.845
27.0,-11.0,5.846
2.0,-32.0,5.847
17.0,-30.0,5.848
137.0,-1.0,5.849
280.0,38.0,5.85
284.0,69.0,5.851
106.0,79.0,5.852
-122.0,59.0,5.853
-221.0,18.0,5.854
-139.0,-15.0,5.855
33.0,-25.0,5.856
153.0,-22.0,5.857
142.0,-26.0,5.858
-12.0,-33.0,5.859
-227.0,-24.0,5.86
-353.0,-7.0,5.861
-317.0,-7.0,5.862
-190.0,-33.0,5.863
-100.0,-62.0,5.864
-74.0,-72.0,5.865
-48.0,-69.0,5.866
19.0,-64.0,5.867
98.0,-49.0,5.868
140.0,-18.0,5.869
134.0,13.0,5.87
110.0,31.0,5.871
107.0,35.0,5.872
125.0,36.0,5.873
113.0,39.0,5.874
41.0,37.0,5.875
-47.0,31.0,5.876
-93.0,24.0,5.877
-107.0,14.0,5.878
-121.0,0.0,5.879
-125.0,-15.0,5.88
-77.0,-23.0,5.881
8.0,-11.0,5.882
76.0,10.0,5.883
104.0,21.0,5.884
109.0,15.0,5.885
114.0,11.0,5.886
139.0,15.0,5.887
183.0,18.0,5.888
195.0,16.0,5.889
110.0,7.0,5.89
-38.0,-3.0,5.891
-130.0,-17.0,5.892
-116.0,-35.0,5.893
-74.0,-42.0,5.894
-77.0,-29.0,5.895
-86.0,-10.0,5.896
-49.0,1.0,5.897
3.0,3.0,5.898
17.0,4.0,5.899
-4.0,4.0,5.9
-5.0,-4.0,5.901
34.0,-13.0,5.902
113.0,-13.0,5.903
213.0,-3.0,5.904
251.0,20.0,5.905
147.0,51.0,5.906
-39.0,71.0,5.907
-147.0,61.0,5.908
-138.0,31.0,5.909
-144.0,4.0,5.91
-208.0,-12.0,5.911
-204.0,-36.0,5.912
-84.0,-61.0,5.913
9.0,-66.0,5.914
-25.0,-43.0,5.915
-80.0,-17.0,5.916
-46.0,-2.0,5.917
25.0,6.0,5.918
36.0,14.0,5.919
11.0,10.0,5.92
20.0,-4.0,5.921
35.0,-4.0,5.922
14.0,8.0,5.923
-1.0,13.0,5.924
35.0,7.0,5.925
85.0,9.0,5.926
101.0,25.0,5.927
105.0,36.0,5.928
111.0,27.0,5.929
83.0,11.0,5.93
14.0,1.0,5.931
-39.0,-3.0,5.932
-37.0,-8.0,5.933
-15.0,-11.0,5.934
-9.0,-11.0,5.935
-6.0,-9.0,5.936
7.0,-4.0,5.937
6.0,-2.0,5.938
-18.0,-2.0,5.939
-37.0,-9.0,5.94
-20.0,-18.0,5.941
9.0,-20.0,5.942
15.0,-14.0,5.943
0.0,-3.0,5.944
-3.0,13.0,5.945
9.0,19.0,5.946
21.0,6.0,5.947
30.0,-13.0,5.948
37.0,-18.0,5.949
36.0,-4.0,5.95
15.0,6.0,5.951
-8.0,3.0,5.952
-13.0,0.0,5.953
-15.0,1.0,5.954
-36.0,1.0,5.955
-60.0,-5.0,5.956
-60.0,-6.0,5.957
-39.0,-2.0,5.958
-17.0,4.0,5.959
1.0,10.0,5.96
26.0,15.0,5.961
49.0,14.0,5.962
55.0,0.0,5.963
37.0,-19.0,5.964
6.0,-20.0,5.965
-22.0,-7.0,5.966
-2.0,0.0,5.967
123.0,0.0,5.968
334.0,9.0,5.969
468.0,33.0,5.97
329.0,57.0,5.971
-56.0,72.0,5.972
-393.0,80.0,5.973
-451.0,73.0,5.974
-326.0,33.0,5.975
-256.0,-36.0,5.976
-264.0,-100.0,5.977
-206.0,-135.0,5.978
-68.0,-138.0,5.979
-1.0,-124.0,5.98
-20.0,-104.0,5.981
16.0,-70.0,5.982
119.0,-28.0,5.983
129.0,1.0,5.984
30.0,9.0,5.985
-5.0,14.0,5.986
69.0,31.0,5.987
79.0,47.0,5.988
-27.0,43.0,5.989
-84.0,24.0,5.99
-13.0,16.0,5.991
51.0,21.0,5.992
20.0,18.0,5.993
-6.0,0.0,5.994
36.0,-12.0,5.995
64.0,-3.0,5.996
43.0,20.0,5.997
45.0,42.0,5.998
107.0,56.0,5.999
150.0,62.0,6.0
134.0,58.0,6.001
110.0,47.0,6.002
92.0,31.0,6.003
33.0,8.0,6.004
-41.0,-13.0,6.005
-45.0,-26.0,6.006
26.0,-25.0,6.007
65.0,-17.0,6.008
23.0,-7.0,6.009
-39.0,2.0,6.01
-69.0,3.0,6.011
-75.0,-7.0,6.012
-42.0,-25.0,6.013
59.0,-33.0,6.014
172.0,-26.0,6.015
168.0,-13.0,6.016
37.0,-7.0,6.017
-111.0,-6.0,6.018
-149.0,-2.0,6.019
-120.0,7.0,6.02
-132.0,9.0,6.021
-172.0,3.0,6.022
-142.0,-7.0,6.023
-48.0,-11.0,6.024
12.0,-8.0,6.025
15.0,-2.0,6.026
34.0,1.0,6.027
88.0,3.0,6.028
93.0,2.0,6.029
26.0,-3.0,6.03
-30.0,-3.0,6.031
-21.0,6.0,6.032
7.0,17.0,6.033
7.0,15.0,6.034
14.0,3.0,6.035
58.0,-4.0,6.036
84.0,1.0,6.037
50.0,9.0,6.038
-1.0,13.0,6.039
-2.0,11.0,6.04
33.0,2.0,6.041
35.0,-10.0,6.042
-11.0,-18.0,6.043
-55.0,-9.0,6.044
-64.0,6.0,6.045
-47.0,13.0,6.046
-25.0,8.0,6.047
-6.0,2.0,6.048
10.0,-2.0,6.049
25.0,-9.0,6.05
33.0,-21.0,6.051
24.0,-24.0,6.052
8.0,-10.0,6.053
40.0,7.0,6.054
142.0,13.0,6.055
246.0,10.0,6.056
267.0,8.0,6.057
225.0,9.0,6.058
208.0,10.0,6.059
171.0,0.0,6.06
-18.0,-17.0,6.061
-320.0,-30.0,6.062
-487.0,-31.0,6.063
-406.0,-23.0,6.064
-260.0,-15.0,6.065
-221.0,-19.0,6.066
-207.0,-27.0,6.067
-106.0,-22.0,6.068
-3.0,7.0,6.069
-7.0,43.0,6.07
-34.0,47.0,6.071
27.0,14.0,6.072
107.0,-20.0,6.073
99.0,-20.0,6.074
59.0,5.0,6.075
84.0,18.0,6.076
127.0,9.0,6.077
107.0,-7.0,6.078
56.0,-6.0,6.079
50.0,5.0,6.08
86.0,9.0,6.081
116.0,13.0,6.082
128.0,23.0,6.083
112.0,30.0,6.084
36.0,24.0,6.085
-67.0,8.0,6.086
-107.0,-10.0,6.087
-70.0,-23.0,6.088
-40.0,-34.0,6.089
-52.0,-40.0,6.09
-44.0,-34.0,6.091
14.0,-22.0,6.092
68.0,-8.0,6.093
76.0,0.0,6.094
53.0,3.0,6.095
25.0,1.0,6.096
4.0,2.0,6.097
8.0,7.0,6.098
41.0,13.0,6.099
59.0,12.0,6.1
26.0,-2.0,6.101
-24.0,-10.0,6.102
-49.0,-9.0,6.103
-57.0,0.0,6.104
-60.0,11.0,6.105
-41.0,24.0,6.106
-2.0,28.0,6.107
13.0,14.0,6.108
15.0,-13.0,6.109
80.0,-35.0,6.11
206.0,-34.0,6.111
248.0,-16.0,6.112
99.0,3.0,6.113
-138.0,12.0,6.114
-269.0,10.0,6.115
-246.0,9.0,6.116
-181.0,11.0,6.117
-139.0,12.0,6.118
-87.0,12.0,6.119
1.0,15.0,6.12
75.0,23.0,6.121
84.0,28.0,6.122
54.0,13.0,6.123
37.0,-10.0,6.124
37.0,-18.0,6.125
30.0,-9.0,6.126
13.0,-1.0,6.127
-4.0,-6.0,6.128
-17.0,-13.0,6.129
-5.0,-11.0,6.13
45.0,-9.0,6.131
114.0,-16.0,6.132
147.0,-18.0,6.133
118.0,0.0,6.134
52.0,23.0,6.135
-5.0,30.0,6.136
-26.0,19.0,6.137
-16.0,3.0,6.138
4.0,-2.0,6.139
0.0,1.0,6.14
-43.0,2.0,6.141
-100.0,-7.0,6.142
-130.0,-26.0,6.143
-127.0,-35.0,6.144
-121.0,-26.0,6.145
-126.0,-5.0,6.146
-105.0,5.0,6.147
-20.0,3.0,6.148
106.0,3.0,6.149
204.0,8.0,6.15
212.0,2.0,6.151
130.0,-11.0,6.152
12.0,-14.0,6.153
-66.0,0.0,6.154
-68.0,9.0,6.155
-20.0,7.0,6.156
28.0,5.0,6.157
66.0,10.0,6.158
96.0,16.0,6.159
109.0,15.0,6.16
88.0,12.0,6.161
48.0,18.0,6.162
34.0,24.0,6.163
58.0,18.0,6.164
81.0,9.0,6.165
55.0,2.0,6.166
-24.0,0.0,6.167
-133.0,0.0,6.168
-209.0,0.0,6.169
-219.0,-14.0,6.17
-187.0,-43.0,6.171
-168.0,-63.0,6.172
-152.0,-52.0,6.173
-84.0,-21.0,6.174
17.0,-3.0,6.175
63.0,-6.0,6.176
30.0,-3.0,6.177
-2.0,10.0,6.178
30.0,15.0,6.179
73.0,2.0,6.18
65.0,-11.0,6.181
39.0,-5.0,6.182
44.0,7.0,6.183
55.0,10.0,6.184
34.0,9.0,6.185
4.0,11.0,6.186
-1.0,9.0,6.187
1.0,3.0,6.188
-1.0,3.0,6.189
7.0,10.0,6.19
32.0,13.0,6.191
44.0,6.0,6.192
36.0,-1.0,6.193
35.0,2.0,6.194
48.0,7.0,6.195
51.0,5.0,6.196
42.0,4.0,6.197
46.0,7.0,6.198
84.0,12.0,6.199
133.0,14.0,6.2
161.0,21.0,6.201
157.0,36.0,6.202
105.0,45.0,6.203
-2.0,41.0,6.204
-137.0,24.0,6.205
-224.0,-6.0,6.206
-222.0,-49.0,6.207
-168.0,-91.0,6.208
-129.0,-103.0,6.209
-119.0,-77.0,6.21
-96.0,-40.0,6.211
-29.0,-14.0,6.212
51.0,-1.0,6.213
119.0,9.0,6.214
178.0,15.0,6.215
200.0,11.0,6.216
128.0,7.0,6.217
-48.0,6.0,6.218
-184.0,7.0,6.219
-175.0,0.0,6.22
-95.0,-14.0,6.221
-76.0,-16.0,6.222
-88.0,-3.0,6.223
-19.0,9.0,6.224
106.0,12.0,6.225
167.0,17.0,6.226
145.0,34.0,6.227
118.0,55.0,6.228
95.0,60.0,6.229
18.0,42.0,6.23
-85.0,8.0,6.231
-133.0,-19.0,6.232
-116.0,-30.0,6.233
-101.0,-28.0,6.234
-99.0,-19.0,6.235
-62.0,-10.0,6.236
12.0,-2.0,6.237
75.0,-1.0,6.238
88.0,-3.0,6.239
61.0,-6.0,6.24
39.0,-17.0,6.241
47.0,-27.0,6.242
76.0,-25.0,6.243
91.0,-9.0,6.244
71.0,6.0,6.245
34.0,8.0,6.246
14.0,1.0,6.247
6.0,-3.0,6.248
-2.0,1.0,6.249
-1.0,6.0,6.25
19.0,7.0,6.251
33.0,9.0,6.252
12.0,12.0,6.253
-18.0,14.0,6.254
-26.0,12.0,6.255
-21.0,8.0,6.256
-23.0,4.0,6.257
-28.0,-8.0,6.258
-13.0,-21.0,6.259
10.0,-24.0,6.26
19.0,-19.0,6.261
13.0,-7.0,6.262
10.0,2.0,6.263
9.0,8.0,6.264
4.0,8.0,6.265
13.0,4.0,6.266
36.0,-1.0,6.267
45.0,-3.0,6.268
7.0,1.0,6.269
-50.0,10.0,6.27
-77.0,20.0,6.271
-69.0,24.0,6.272
-48.0,19.0,6.273
8.0,9.0,6.274
135.0,-3.0,6.275
266.0,-12.0,6.276
262.0,-12.0,6.277
72.0,-2.0,6.278
-145.0,14.0,6.279
-220.0,19.0,6.28
-172.0,0.0,6.281
-146.0,-26.0,6.282
-165.0,-46.0,6.283
-134.0,-47.0,6.284
-63.0,-29.0,6.285
-60.0,-4.0,6.286
-118.0,7.0,6.287
-111.0,2.0,6.288
-11.0,-6.0,6.289
56.0,-2.0,6.29
32.0,3.0,6.291
8.0,-4.0,6.292
37.0,-22.0,6.293
58.0,-32.0,6.294
32.0,-25.0,6.295
22.0,-11.0,6.296
60.0,5.0,6.297
101.0,16.0,6.298
106.0,15.0,6.299
102.0,9.0,6.3
110.0,7.0,6.301
93.0,20.0,6.302
39.0,29.0,6.303
-12.0,24.0,6.304
-30.0,15.0,6.305
-23.0,13.0,6.306
1.0,16.0,6.307
27.0,12.0,6.308
28.0,8.0,6.309
12.0,1.0,6.31
26.0,-8.0,6.311
65.0,-17.0,6.312
52.0,-15.0,6.313
-25.0,-3.0,6.314
-82.0,2.0,6.315
-62.0,-2.0,6.316
-24.0,-1.0,6.317
-32.0,5.0,6.318
-59.0,8.0,6.319
-49.0,0.0,6.32
-8.0,-7.0,6.321
29.0,-2.0,6.322
49.0,3.0,6.323
51.0,2.0,6.324
25.0,-1.0,6.325
-10.0,-1.0,6.326
-7.0,0.0,6.327
29.0,0.0,6.328
44.0,1.0,6.329
43.0,7.0,6.33
100.0,9.0,6.331
205.0,9.0,6.332
234.0,12.0,6.333
93.0,15.0,6.334
-125.0,6.0,6.335
-248.0,-6.0,6.336
-235.0,-6.0,6.337
-174.0,-2.0,6.338
-139.0,-9.0,6.339
-99.0,-22.0,6.34
-1.0,-26.0,6.341
117.0,-11.0,6.342
179.0,1.0,6.343
153.0,5.0,6.344
62.0,15.0,6.345
-49.0,35.0,6.346
-139.0,41.0,6.347
-176.0,19.0,6.348
-164.0,-16.0,6.349
-109.0,-47.0,6.35
-13.0,-70.0,6.351
90.0,-77.0,6.352
123.0,-57.0,6.353
67.0,-18.0,6.354
14.0,9.0,6.355
23.0,8.0,6.356
41.0,-4.0,6.357
2.0,-3.0,6.358
-49.0,13.0,6.359
-43.0,24.0,6.36
-7.0,13.0,6.361
-7.0,3.0,6.362
-26.0,3.0,6.363
-10.0,7.0,6.364
25.0,7.0,6.365
29.0,4.0,6.366
16.0,3.0,6.367
29.0,10.0,6.368
76.0,24.0,6.369
160.0,31.0,6.37
301.0,23.0,6.371
456.0,7.0,6.372
458.0,-3.0,6.373
200.0,-5.0,6.374
-185.0,-15.0,6.375
-431.0,-36.0,6.376
-444.0,-53.0,6.377
-355.0,-47.0,6.378
-301.0,-8.0,6.379
-260.0,44.0,6.38
-149.0,70.0,6.381
-17.0,57.0,6.382
35.0,23.0,6.383
14.0,2.0,6.384
2.0,7.0,6.385
25.0,16.0,6.386
46.0,15.0,6.387
69.0,8.0,6.388
111.0,5.0,6.389
138.0,3.0,6.39
108.0,-6.0,6.391
54.0,-20.0,6.392
36.0,-26.0,6.393
41.0,-22.0,6.394
25.0,-18.0,6.395
0.0,-17.0,6.396
13.0,-14.0,6.397
51.0,-12.0,6.398
59.0,-6.0,6.399
27.0,2.0,6.4
13.0,7.0,6.401
33.0,8.0,6.402
53.0,3.0,6.403
51.0,1.0,6.404
47.0,1.0,6.405
44.0,-4.0,6.406
17.0,-15.0,6.407
-27.0,-22.0,6.408
-49.0,-17.0,6.409
-33.0,-1.0,6.41
-17.0,10.0,6.411
-28.0,13.0,6.412
-55.0,11.0,6.413
-78.0,10.0,6.414
-83.0,11.0,6.415
-57.0,8.0,6.416
0.0,0.0,6.417
54.0,-10.0,6.418
53.0,-13.0,6.419
-2.0,-8.0,6.42
-40.0,-5.0,6.421
-18.0,-3.0,6.422
32.0,0.0,6.423
62.0,0.0,6.424
65.0,-5.0,6.425
56.0,-16.0,6.426
49.0,-23.0,6.427
72.0,-14.0,6.428
141.0,12.0,6.429
193.0,40.0,6.43
110.0,49.0,6.431
-115.0,34.0,6.432
-313.0,10.0,6.433
-339.0,-12.0,6.434
-247.0,-36.0,6.435
-170.0,-53.0,6.436
-127.0,-53.0,6.437
-44.0,-33.0,6.438
63.0,-13.0,6.439
138.0,-13.0,6.44
115.0,-22.0,6.441
93.0,-14.0,6.442
73.0,7.0,6.443
56.0,21.0,6.444
50.0,19.0,6.445
31.0,19.0,6.446
-28.0,25.0,6.447
-71.0,19.0,6.448
-61.0,-5.0,6.449
-54.0,-28.0,6.45
-56.0,-37.0,6.451
-48.0,-36.0,6.452
-10.0,-25.0,6.453
25.0,1.0,6.454
53.0,40.0,6.455
70.0,66.0,6.456
52.0,66.0,6.457
45.0,34.0,6.458
72.0,-21.0,6.459
115.0,-80.0,6.46
181.0,-104.0,6.461
213.0,-53.0,6.462
123.0,45.0,6.463
-65.0,124.0,6.464
-213.0,140.0,6.465
-220.0,106.0,6.466
-130.0,51.0,6.467
-55.0,-13.0,6.468
-42.0,-68.0,6.469
-57.0,-88.0,6.47
-54.0,-70.0,6.471
-37.0,-47.0,6.472
-25.0,-37.0,6.473
-11.0,-20.0,6.474
30.0,20.0,6.475
78.0,69.0,6.476
96.0,94.0,6.477
95.0,83.0,6.478
119.0,54.0,6.479
169.0,22.0,6.48
186.0,-3.0,6.481
128.0,-12.0,6.482
27.0,-15.0,6.483
-62.0,-24.0,6.484
-107.0,-37.0,6.485
-97.0,-44.0,6.486
-45.0,-45.0,6.487
6.0,-47.0,6.488
17.0,-49.0,6.489
-12.0,-46.0,6.49
-43.0,-38.0,6.491
-52.0,-30.0,6.492
-38.0,-13.0,6.493
-10.0,17.0,6.494
29.0,53.0,6.495
60.0,75.0,6.496
61.0,77.0,6.497
18.0,61.0,6.498
-44.0,41.0,6.499
-87.0,22.0,6.5
-89.0,5.0,6.501
-52.0,-4.0,6.502
17.0,-7.0,6.503
102.0,-7.0,6.504
159.0,-3.0,6.505
144.0,3.0,6.506
59.0,4.0,6.507
-41.0,-1.0,6.508
-110.0,-11.0,6.509
-152.0,-23.0,6.51
-192.0,-36.0,6.511
-222.0,-42.0,6.512
-216.0,-31.0,6.513
-143.0,-12.0,6.514
9.0,-10.0,6.515
187.0,-40.0,6.516
271.0,-79.0,6.517
190.0,-91.0,6.518
43.0,-57.0,6.519
4.0,-10.0,6.52
91.0,9.0,6.521
136.0,17.0,6.522
59.0,39.0,6.523
-27.0,65.0,6.524
-34.0,62.0,6.525
-44.0,29.0,6.526
-125.0,0.0,6.527
-178.0,-9.0,6.528
-111.0,-13.0,6.529
8.0,-21.0,6.53
73.0,-17.0,6.531
90.0,-1.0,6.532
93.0,5.0,6.533
56.0,-10.0,6.534
-16.0,-22.0,6.535
-37.0,-14.0,6.536
19.0,1.0,6.537
61.0,0.0,6.538
18.0,-3.0,6.539
-51.0,2.0,6.54
-58.0,3.0,6.541
-19.0,-10.0,6.542
4.0,-25.0,6.543
18.0,-18.0,6.544
47.0,3.0,6.545
69.0,17.0,6.546
56.0,12.0,6.547
36.0,3.0,6.548
35.0,-4.0,6.549
37.0,-19.0,6.55
23.0,-42.0,6.551
27.0,-51.0,6.552
96.0,-17.0,6.553
219.0,56.0,6.554
305.0,131.0,6.555
235.0,159.0,6.556
0.0,137.0,6.557
-301.0,81.0,6.558
-459.0,26.0,6.559
-416.0,-6.0,6.56
-303.0,-12.0,6.561
-219.0,0.0,6.562
-105.0,3.0,6.563
57.0,-19.0,6.564
128.0,-51.0,6.565
23.0,-61.0,6.566
-120.0,-49.0,6.567
-140.0,-40.0,6.568
-71.0,-43.0,6.569
-25.0,-40.0,6.57
19.0,-22.0,6.571
132.0,-5.0,6.572
249.0,5.0,6.573
256.0,15.0,6.574
164.0,32.0,6.575
83.0,38.0,6.576
51.0,30.0,6.577
32.0,14.0,6.578
30.0,0.0,6.579
73.0,-17.0,6.58
134.0,-42.0,6.581
147.0,-50.0,6.582
108.0,-33.0,6.583
74.0,-9.0,6.584
65.0,0.0,6.585
41.0,-5.0,6.586
-11.0,-9.0,6.587
-42.0,-12.0,6.588
-9.0,-20.0,6.589
38.0,-27.0,6.59
2.0,-23.0,6.591
-122.0,-9.0,6.592
-221.0,7.0,6.593
-197.0,20.0,6.594
-91.0,29.0,6.595
-21.0,31.0,6.596
-32.0,29.0,6.597
-70.0,23.0,6.598
-73.0,21.0,6.599
-27.0,15.0,6.6
63.0,-5.0,6.601
155.0,-21.0,6.602
155.0,-21.0,6.603
9.0,-12.0,6.604
-180.0,-13.0,6.605
-240.0,-13.0,6.606
-159.0,1.0,6.607
-84.0,22.0,6.608
-87.0,21.0,6.609
-78.0,-1.0,6.61
2.0,-17.0,6.611
70.0,-14.0,6.612
52.0,-7.0,6.613
22.0,-5.0,6.614
70.0,-1.0,6.615
143.0,6.0,6.616
148.0,10.0,6.617
89.0,1.0,6.618
46.0,-1.0,6.619
38.0,5.0,6.62
18.0,6.0,6.621
-17.0,-1.0,6.622
-16.0,-6.0,6.623
45.0,-6.0,6.624
97.0,-12.0,6.625
66.0,-34.0,6.626
-22.0,-59.0,6.627
-67.0,-72.0,6.628
-17.0,-61.0,6.629
66.0,-31.0,6.63
95.0,15.0,6.631
59.0,63.0,6.632
7.0,95.0,6.633
-21.0,97.0,6.634
-25.0,73.0,6.635
-1.0,43.0,6.636
53.0,18.0,6.637
125.0,0.0,6.638
170.0,-12.0,6.639
150.0,-11.0,6.64
67.0,-2.0,6.641
-37.0,8.0,6.642
-112.0,3.0,6.643
-157.0,-14.0,6.644
-199.0,-27.0,6.645
-229.0,-33.0,6.646
-181.0,-42.0,6.647
-35.0,-55.0,6.648
125.0,-54.0,6.649
192.0,-33.0,6.65
121.0,-6.0,6.651
-33.0,10.0,6.652
-165.0,13.0,6.653
-197.0,14.0,6.654
-136.0,10.0,6.655
-62.0,-9.0,6.656
-26.0,-38.0,6.657
-31.0,-63.0,6.658
-57.0,-62.0,6.659
-74.0,-25.0,6.66
-62.0,32.0,6.661
-32.0,89.0,6.662
49.0,109.0,6.663
111.0,85.0,6.664
105.0,44.0,6.665
103.0,19.0,6.666
113.0,12.0,6.667
112.0,7.0,6.668
75.0,-15.0,6.669
40.0,-47.0,6.67
14.0,-71.0,6.671
-4.0,-76.0,6.672
5.0,-58.0,6.673
18.0,-20.0,6.674
42.0,33.0,6.675
44.0,84.0,6.676
-21.0,111.0,6.677
-71.0,105.0,6.678
-39.0,81.0,6.679
-3.0,53.0,6.68
-4.0,26.0,6.681
9.0,-2.0,6.682
77.0,-24.0,6.683
144.0,-33.0,6.684
135.0,-29.0,6.685
59.0,-24.0,6.686
-10.0,-23.0,6.687
-22.0,-23.0,6.688
14.0,-10.0,6.689
47.0,12.0,6.69
25.0,31.0,6.691
-54.0,33.0,6.692
-119.0,21.0,6.693
-87.0,6.0,6.694
45.0,-3.0,6.695
179.0,-10.0,6.696
222.0,-12.0,6.697
153.0,-11.0,6.698
38.0,-8.0,6.699
-61.0,-17.0,6.7
-127.0,-35.0,6.701
-176.0,-39.0,6.702
-219.0,-27.0,6.703
-255.0,-23.0,6.704
-272.0,-48.0,6.705
-247.0,-88.0,6.706
-166.0,-106.0,6.707
-54.0,-87.0,6.708
31.0,-50.0,6.709
40.0,-21.0,6.71
-11.0,-9.0,6.711
-59.0,-5.0,6.712
-45.0,0.0,6.713
26.0,5.0,6.714
99.0,5.0,6.715
130.0,1.0,6.716
127.0,0.0,6.717
125.0,3.0,6.718
130.0,10.0,6.719
122.0,21.0,6.72
109.0,33.0,6.721
117.0,44.0,6.722
139.0,51.0,6.723
126.0,57.0,6.724
56.0,66.0,6.725
-27.0,69.0,6.726
-64.0,53.0,6.727
-54.0,25.0,6.728
-27.0,5.0,6.729
-8.0,1.0,6.73
12.0,0.0,6.731
37.0,-3.0,6.732
59.0,-6.0,6.733
57.0,-3.0,6.734
29.0,1.0,6.735
-19.0,-6.0,6.736
-68.0,-29.0,6.737
-94.0,-68.0,6.738
-73.0,-97.0,6.739
-31.0,-92.0,6.74
1.0,-58.0,6.741
52.0,-12.0,6.742
195.0,27.0,6.743
395.0,66.0,6.744
457.0,106.0,6.745
229.0,132.0,6.746
-165.0,120.0,6.747
-442.0,75.0,6.748
-487.0,12.0,6.749
-431.0,-61.0,6.75
-373.0,-118.0,6.751
-260.0,-126.0,6.752
-83.0,-79.0,6.753
20.0,-28.0,6.754
-5.0,-13.0,6.755
-29.0,-21.0,6.756
36.0,-17.0,6.757
106.0,-9.0,6.758
86.0,-15.0,6.759
48.0,-20.0,6.76
87.0,16.0,6.761
144.0,90.0,6.762
137.0,143.0,6.763
100.0,139.0,6.764
87.0,104.0,6.765
74.0,66.0,6.766
36.0,34.0,6.767
23.0,6.0,6.768
60.0,-10.0,6.769
93.0,-16.0,6.77
88.0,-21.0,6.771
82.0,-23.0,6.772
62.0,-17.0,6.773
-30.0,-13.0,6.774
-173.0,-24.0,6.775
-228.0,-53.0,6.776
-136.0,-86.0,6.777
27.0,-119.0,6.778
122.0,-138.0,6.779
110.0,-127.0,6.78
57.0,-86.0,6.781
23.0,-30.0,6.782
19.0,15.0,6.783
15.0,39.0,6.784
-20.0,40.0,6.785
-67.0,27.0,6.786
-77.0,20.0,6.787
-46.0,31.0,6.788
-23.0,35.0,6.789
-18.0,12.0,6.79
44.0,-14.0,6.791
165.0,-13.0,6.792
211.0,14.0,6.793
75.0,34.0,6.794
-132.0,38.0,6.795
-217.0,42.0,6.796
-155.0,51.0,6.797
-80.0,49.0,6.798
-55.0,39.0,6.799
-23.0,29.0,6.8
30.0,20.0,6.801
56.0,10.0,6.802
0.0,-3.0,6.803
-19.0,-13.0,6.804
73.0,-13.0,6.805
147.0,-14.0,6.806
167.0,-24.0,6.807
142.0,-37.0,6.808
-19.0,-54.0,6.809
-145.0,-64.0,6.81
-165.0,-51.0,6.811
-170.0,-38.0,6.812
-126.0,-27.0,6.813
-71.0,-16.0,6.814
14.0,-6.0,6.815
75.0,5.0,6.816
59.0,23.0,6.817
38.0,33.0,6.818
11.0,8.0,6.819
-5.0,-7.0,6.82
-19.0,-4.0,6.821
-11.0,9.0,6.822
26.0,23.0,6.823
67.0,34.0,6.824
82.0,45.0,6.825
78.0,48.0,6.826
75.0,42.0,6.827
84.0,26.0,6.828
89.0,9.0,6.829
76.0,-1.0,6.83
35.0,0.0,6.831
-39.0,10.0,6.832
-133.0,14.0,6.833
-207.0,8.0,6.834
-189.0,4.0,6.835
-20.0,8.0,6.836
212.0,15.0,6.837
282.0,13.0,6.838
98.0,10.0,6.839
-64.0,9.0,6.84
-158.0,4.0,6.841
-209.0,-10.0,6.842
-131.0,-28.0,6.843
-64.0,-37.0,6.844
-30.0,-32.0,6.845
4.0,-21.0,6.846
41.0,-16.0,6.847
56.0,-22.0,6.848
0.0,-30.0,6.849
-27.0,-34.0,6.85
38.0,-34.0,6.851
85.0,-31.0,6.852
79.0,-26.0,6.853
62.0,-19.0,6.854
14.0,-18.0,6.855
-15.0,-38.0,6.856
18.0,-76.0,6.857
71.0,-112.0,6.858
113.0,-106.0,6.859
-4.0,-53.0,6.86
-127.0,12.0,6.861
-82.0,58.0,6.862
42.0,76.0,6.863
54.0,76.0,6.864
-41.0,67.0,6.865
-101.0,49.0,6.866
-105.0,31.0,6.867
-117.0,20.0,6.868
-99.0,20.0,6.869
24.0,21.0,6.87
188.0,20.0,6.871
258.0,18.0,6.872
209.0,16.0,6.873
93.0,6.0,6.874
-41.0,-19.0,6.875
-140.0,-47.0,6.876
-150.0,-64.0,6.877
-102.0,-78.0,6.878
-76.0,-81.0,6.879
-84.0,-51.0,6.88
-64.0,28.0,6.881
-13.0,131.0,6.882
7.0,198.0,6.883
7.0,198.0,6.884
44.0,157.0,6.885
96.0,112.0,6.886
108.0,69.0,6.887
90.0,33.0,6.888
75.0,17.0,6.889
30.0,18.0,6.89
-32.0,11.0,6.891
-4.0,-17.0,6.892
133.0,-42.0,6.893
215.0,-48.0,6.894
125.0,-53.0,6.895
-22.0,-71.0,6.896
-76.0,-85.0,6.897
-68.0,-93.0,6.898
-97.0,-112.0,6.899
-153.0,-139.0,6.9
-159.0,-145.0,6.901
-111.0,-109.0,6.902
-62.0,-64.0,6.903
-21.0,-43.0,6.904
28.0,-31.0,6.905
70.0,0.0,6.906
114.0,38.0,6.907
179.0,71.0,6.908
214.0,101.0,6.909
124.0,127.0,6.91
-57.0,136.0,6.911
-170.0,116.0,6.912
-137.0,80.0,6.913
-48.0,42.0,6.914
32.0,0.0,6.915
148.0,-40.0,6.916
283.0,-55.0,6.917
310.0,-49.0,6.918
136.0,-50.0,6.919
-129.0,-64.0,6.92
-301.0,-73.0,6.921
-323.0,-65.0,6.922
-248.0,-57.0,6.923
-115.0,-62.0,6.924
11.0,-63.0,6.925
25.0,-46.0,6.926
-88.0,-24.0,6.927
-184.0,-10.0,6.928
-150.0,-2.0,6.929
-49.0,6.0,6.93
3.0,17.0,6.931
18.0,32.0,6.932
53.0,48.0,6.933
82.0,59.0,6.934
88.0,67.0,6.935
136.0,74.0,6.936
227.0,78.0,6.937
212.0,64.0,6.938
-7.0,36.0,6.939
-255.0,15.0,6.94
-268.0,6.0,6.941
-66.0,2.0,6.942
97.0,-7.0,6.943
110.0,-12.0,6.944
75.0,-5.0,6.945
79.0,8.0,6.946
78.0,16.0,6.947
41.0,17.0,6.948
16.0,10.0,6.949
29.0,-4.0,6.95
35.0,-33.0,6.951
15.0,-75.0,6.952
-8.0,-117.0,6.953
-25.0,-135.0,6.954
-56.0,-115.0,6.955
-75.0,-67.0,6.956
-45.0,-16.0,6.957
21.0,25.0,6.958
55.0,57.0,6.959
32.0,77.0,6.96
9.0,69.0,6.961
33.0,26.0,6.962
79.0,-38.0,6.963
93.0,-94.0,6.964
68.0,-104.0,6.965
44.0,-55.0,6.966
47.0,26.0,6.967
64.0,93.0,6.968
64.0,122.0,6.969
33.0,122.0,6.97
-5.0,109.0,6.971
2.0,76.0,6.972
73.0,27.0,6.973
135.0,-15.0,6.974
74.0,-31.0,6.975
-98.0,-26.0,6.976
-227.0,-15.0,6.977
-232.0,3.0,6.978
-189.0,37.0,6.979
-191.0,62.0,6.98
-175.0,50.0,6.981
-56.0,8.0,6.982
82.0,-28.0,6.983
105.0,-32.0,6.984
44.0,-9.0,6.985
24.0,12.0,6.986
39.0,18.0,6.987
5.0,8.0,6.988
-47.0,-4.0,6.989
-18.0,-19.0,6.99
73.0,-40.0,6.991
125.0,-57.0,6.992
129.0,-57.0,6.993
141.0,-44.0,6.994
146.0,-40.0,6.995
82.0,-51.0,6.996
-27.0,-56.0,6.997
-136.0,-37.0,6.998
-205.0,3.0,6.999
-227.0,42.0,7.0
-171.0,63.0,7.001
-46.0,73.0,7.002
74.0,72.0,7.003
123.0,57.0,7.004
99.0,23.0,7.005
29.0,-31.0,7.006
-49.0,-90.0,7.007
-74.0,-122.0,7.008
-9.0,-113.0,7.009
86.0,-94.0,7.01
121.0,-86.0,7.011
77.0,-71.0,7.012
0.0,-27.0,7.013
-72.0,26.0,7.014
-103.0,51.0,7.015
-64.0,58.0,7.016
22.0,80.0,7.017
121.0,120.0,7.018
219.0,148.0,7.019
306.0,147.0,7.02
290.0,136.0,7.021
95.0,136.0,7.022
-173.0,123.0,7.023
-311.0,75.0,7.024
-287.0,10.0,7.025
-235.0,-35.0,7.026
-214.0,-53.0,7.027
-159.0,-74.0,7.028
-62.0,-105.0,7.029
4.0,-119.0,7.03
36.0,-102.0,7.031
87.0,-77.0,7.032
122.0,-65.0,7.033
77.0,-62.0,7.034
16.0,-51.0,7.035
59.0,-44.0,7.036
171.0,-47.0,7.037
228.0,-58.0,7.038
183.0,-59.0,7.039
100.0,-62.0,7.04
19.0,-67.0,7.041
-84.0,-72.0,7.042
-179.0,-72.0,7.043
-179.0,-72.0,7.044
-88.0,-70.0,7.045
2.0,-64.0,7.046
38.0,-46.0,7.047
49.0,-15.0,7.048
60.0,58.0,7.049
48.0,139.0,7.05
7.0,245.0,7.051
-23.0,313.0,7.052
-11.0,265.0,7.053
9.0,201.0,7.054
-3.0,94.0,7.055
-38.0,0.0,7.056
-60.0,-49.0,7.057
-55.0,-86.0,7.058
-25.0,-60.0,7.059
8.0,-22.0,7.06
8.0,0.0,7.061
-45.0,7.0,7.062
-88.0,11.0,7.063
-25.0,24.0,7.064
161.0,47.0,7.065
354.0,66.0,7.066
405.0,62.0,7.067
270.0,35.0,7.068
43.0,4.0,7.069
-144.0,-22.0,7.07
-255.0,-55.0,7.071
-318.0,-93.0,7.072
-323.0,-125.0,7.073
-216.0,-137.0,7.074
-51.0,-121.0,7.075
15.0,-73.0,7.076
-56.0,-17.0,7.077
-138.0,12.0,7.078
-86.0,-3.0,7.079
53.0,-45.0,7.08
126.0,-85.0,7.081
95.0,-120.0,7.082
49.0,-153.0,7.083
37.0,-144.0,7.084
28.0,-67.0,7.085
3.0,28.0,7.086
-17.0,75.0,7.087
-11.0,79.0,7.088
18.0,99.0,7.089
59.0,142.0,7.09
91.0,167.0,7.091
109.0,158.0,7.092
132.0,136.0,7.093
172.0,114.0,7.094
183.0,88.0,7.095
110.0,67.0,7.096
8.0,60.0,7.097
-31.0,43.0,7.098
10.0,-6.0,7.099
57.0,-72.0,7.1
93.0,-122.0,7.101
181.0,-141.0,7.102
278.0,-145.0,7.103
219.0,-136.0,7.104
-43.0,-98.0,7.105
-337.0,-38.0,7.106
-499.0,5.0,7.107
-522.0,4.0,7.108
-439.0,-37.0,7.109
-257.0,-81.0,7.11
-56.0,-92.0,7.111
26.0,-57.0,7.112
-10.0,5.0,7.113
-20.0,72.0,7.114
39.0,123.0,7.115
68.0,144.0,7.116
35.0,125.0,7.117
10.0,65.0,7.118
29.0,-6.0,7.119
44.0,-49.0,7.12
59.0,-53.0,7.121
120.0,-25.0,7.122
181.0,13.0,7.123
150.0,56.0,7.124
62.0,92.0,7.125
46.0,115.0,7.126
124.0,121.0,7.127
175.0,101.0,7.128
128.0,43.0,7.129
26.0,-48.0,7.13
-65.0,-140.0,7.131
-117.0,-194.0,7.132
-115.0,-200.0,7.133
-81.0,-179.0,7.134
-63.0,-149.0,7.135
-67.0,-112.0,7.136
-40.0,-68.0,7.137
27.0,-21.0,7.138
58.0,28.0,7.139
4.0,78.0,7.14
-49.0,131.0,7.141
7.0,178.0,7.142
149.0,202.0,7.143
244.0,215.0,7.144
214.0,197.0,7.145
110.0,170.0,7.146
43.0,112.0,7.147
61.0,56.0,7.148
105.0,6.0,7.149
81.0,-32.0,7.15
-27.0,-33.0,7.151
-141.0,-38.0,7.152
-183.0,-50.0,7.153
-172.0,-72.0,7.154
-181.0,-125.0,7.155
-230.0,-165.0,7.156
-247.0,-167.0,7.157
-176.0,-157.0,7.158
-51.0,-107.0,7.159
53.0,-78.0,7.16
140.0,-63.0,7.161
260.0,-30.0,7.162
362.0,8.0,7.163
298.0,28.0,7.164
40.0,20.0,7.165
-228.0,8.0,7.166
-318.0,5.0,7.167
-232.0,12.0,7.168
-91.0,41.0,7.169
7.0,83.0,7.17
11.0,102.0,7.171
-93.0,72.0,7.172
-208.0,22.0,7.173
-187.0,-6.0,7.174
-26.0,-15.0,7.175
113.0,-26.0,7.176
134.0,-29.0,7.177
97.0,-11.0,7.178
88.0,9.0,7.179
96.0,-1.0,7.18
79.0,-35.0,7.181
58.0,-56.0,7.182
54.0,-57.0,7.183
42.0,-48.0,7.184
13.0,-21.0,7.185
33.0,27.0,7.186
133.0,79.0,7.187
226.0,109.0,7.188
177.0,117.0,7.189
-13.0,109.0,7.19
-177.0,74.0,7.191
-158.0,14.0,7.192
-3.0,-41.0,7.193
99.0,-65.0,7.194
60.0,-56.0,7.195
-37.0,-31.0,7.196
-92.0,-4.0,7.197
-109.0,15.0,7.198
-104.0,12.0,7.199
-57.0,-24.0,7.2
10.0,-79.0,7.201
7.0,-126.0,7.202
-77.0,-154.0,7.203
-125.0,-162.0,7.204
-65.0,-158.0,7.205
14.0,-141.0,7.206
22.0,-101.0,7.207
7.0,-30.0,7.208
48.0,58.0,7.209
115.0,143.0,7.21
159.0,207.0,7.211
212.0,241.0,7.212
305.0,237.0,7.213
377.0,192.0,7.214
354.0,122.0,7.215
229.0,51.0,7.216
41.0,-14.0,7.217
-220.0,-91.0,7.218
-464.0,-170.0,7.219
-555.0,-224.0,7.22
-461.0,-238.0,7.221
-306.0,-194.0,7.222
-184.0,-102.0,7.223
-37.0,16.0,7.224
192.0,125.0,7.225
380.0,199.0,7.226
314.0,243.0,7.227
-6.0,272.0,7.228
-325.0,275.0,7.229
-386.0,221.0,7.23
-200.0,117.0,7.231
24.0,11.0,7.232
136.0,-54.0,7.233
147.0,-78.0,7.234
132.0,-83.0,7.235
128.0,-77.0,7.236
137.0,-61.0,7.237
139.0,-42.0,7.238
100.0,-34.0,7.239
-1.0,-34.0,7.24
-102.0,-42.0,7.241
-121.0,-54.0,7.242
-85.0,-75.0,7.243
-110.0,-87.0,7.244
-196.0,-69.0,7.245
-199.0,-33.0,7.246
-43.0,-8.0,7.247
149.0,-11.0,7.248
230.0,-36.0,7.249
215.0,-70.0,7.25
201.0,-97.0,7.251
208.0,-102.0,7.252
200.0,-76.0,7.253
197.0,-28.0,7.254
238.0,17.0,7.255
274.0,41.0,7.256
215.0,43.0,7.257
35.0,32.0,7.258
-154.0,18.0,7.259
-238.0,-6.0,7.26
-213.0,-45.0,7.261
-163.0,-70.0,7.262
-147.0,-49.0,7.263
-154.0,10.0,7.264
-154.0,65.0,7.265
-140.0,79.0,7.266
-108.0,59.0,7.267
-35.0,27.0,7.268
71.0,-19.0,7.269
155.0,-65.0,7.27
187.0,-84.0,7.271
212.0,-57.0,7.272
285.0,-10.0,7.273
343.0,29.0,7.274
230.0,41.0,7.275
-116.0,34.0,7.276
-508.0,29.0,7.277
-724.0,51.0,7.278
-623.0,103.0,7.279
-325.0,147.0,7.28
-79.0,154.0,7.281
-10.0,143.0,7.282
-34.0,134.0,7.283
-8.0,113.0,7.284
94.0,61.0,7.285
168.0,3.0,7.286
145.0,-34.0,7.287
84.0,-66.0,7.288
87.0,-109.0,7.289
153.0,-140.0,7.29
188.0,-155.0,7.291
145.0,-181.0,7.292
70.0,-217.0,7.293
16.0,-192.0,7.294
-23.0,-65.0,7.295
-60.0,84.0,7.296
-66.0,157.0,7.297
-36.0,160.0,7.298
-8.0,156.0,7.299
13.0,138.0,7.3
13.0,82.0,7.301
45.0,35.0,7.302
179.0,15.0,7.303
286.0,3.0,7.304
314.0,20.0,7.305
306.0,30.0,7.306
191.0,17.0,7.307
60.0,-7.0,7.308
-121.0,-64.0,7.309
-269.0,-116.0,7.31
-320.0,-154.0,7.311
-323.0,-169.0,7.312
-181.0,-113.0,7.313
-44.0,-58.0,7.314
73.0,-11.0,7.315
187.0,24.0,7.316
291.0,21.0,7.317
338.0,20.0,7.318
110.0,36.0,7.319
-190.0,58.0,7.32
-375.0,48.0,7.321
-398.0,2.0,7.322
-317.0,-58.0,7.323
-180.0,-114.0,7.324
0.0,-140.0,7.325
193.0,-111.0,7.326
313.0,-29.0,7.327
254.0,57.0,7.328
0.0,102.0,7.329
-288.0,99.0,7.33
-372.0,70.0,7.331
-197.0,35.0,7.332
48.0,-6.0,7.333
157.0,-56.0,7.334
134.0,-112.0,7.335
80.0,-151.0,7.336
40.0,-149.0,7.337
20.0,-94.0,7.338
56.0,-4.0,7.339
79.0,89.0,7.34
62.0,194.0,7.341
42.0,285.0,7.342
16.0,334.0,7.343
7.0,352.0,7.344
48.0,277.0,7.345
56.0,194.0,7.346
-39.0,90.0,7.347
-76.0,-2.0,7.348
61.0,-55.0,7.349
149.0,-104.0,7.35
82.0,-137.0,7.351
28.0,-157.0,7.352
10.0,-135.0,7.353
-11.0,-109.0,7.354
-43.0,-70.0,7.355
-24.0,-39.0,7.356
145.0,-36.0,7.357
265.0,-32.0,7.358
59.0,-43.0,7.359
-306.0,-79.0,7.36
-482.0,-112.0,7.361
-360.0,-120.0,7.362
-135.0,-127.0,7.363
-1.0,-147.0,7.364
26.0,-144.0,7.365
5.0,-97.0,7.366
-25.0,-35.0,7.367
-6.0,4.0,7.368
115.0,26.0,7.369
288.0,37.0,7.37
401.0,26.0,7.371
399.0,22.0,7.372
305.0,85.0,7.373
128.0,208.0,7.374
-113.0,289.0,7.375
-325.0,256.0,7.376
-388.0,164.0,7.377
-283.0,75.0,7.378
-98.0,5.0,7.379
53.0,-61.0,7.38
107.0,-97.0,7.381
66.0,-72.0,7.382
-7.0,-28.0,7.383
-12.0,-17.0,7.384
87.0,-22.0,7.385
188.0,-12.0,7.386
148.0,2.0,7.387
-47.0,-6.0,7.388
-233.0,-22.0,7.389
-238.0,-29.0,7.39
-45.0,-41.0,7.391
203.0,-66.0,7.392
331.0,-76.0,7.393
246.0,-45.0,7.394
-10.0,-6.0,7.395
-269.0,-1.0,7.396
-365.0,-25.0,7.397
-268.0,-41.0,7.398
-99.0,-32.0,7.399
-9.0,-13.0,7.4
-10.0,-3.0,7.401
-15.0,14.0,7.402
29.0,38.0,7.403
91.0,45.0,7.404
112.0,16.0,7.405
79.0,-32.0,7.406
17.0,-59.0,7.407
-49.0,-49.0,7.408
-95.0,-17.0,7.409
-82.0,14.0,7.41
23.0,37.0,7.411
175.0,42.0,7.412
231.0,27.0,7.413
95.0,-1.0,7.414
-133.0,-21.0,7.415
-247.0,-32.0,7.416
-168.0,-43.0,7.417
16.0,-60.0,7.418
172.0,-61.0,7.419
249.0,-38.0,7.42
243.0,-3.0,7.421
168.0,36.0,7.422
97.0,78.0,7.423
94.0,117.0,7.424
116.0,139.0,7.425
62.0,138.0,7.426
-43.0,113.0,7.427
-94.0,72.0,7.428
-70.0,28.0,7.429
-70.0,-8.0,7.43
-126.0,-45.0,7.431
-148.0,-112.0,7.432
-61.0,-204.0,7.433
69.0,-251.0,7.434
113.0,-190.0,7.435
1.0,-55.0,7.436
-174.0,50.0,7.437
-285.0,75.0,7.438
-249.0,70.0,7.439
-151.0,105.0,7.44
-123.0,172.0,7.441
-148.0,206.0,7.442
-111.0,174.0,7.443
-6.0,112.0,7.444
69.0,60.0,7.445
107.0,14.0,7.446
195.0,-42.0,7.447
322.0,-103.0,7.448
363.0,-153.0,7.449
264.0,-179.0,7.45
92.0,-162.0,7.451
-102.0,-85.0,7.452
-275.0,36.0,7.453
-318.0,131.0,7.454
-177.0,131.0,7.455
-2.0,34.0,7.456
23.0,-85.0,7.457
-51.0,-164.0,7.458
-8.0,-157.0,7.459
198.0,-77.0,7.46
385.0,8.0,7.461
403.0,57.0,7.462
281.0,62.0,7.463
103.0,55.0,7.464
-43.0,61.0,7.465
-63.0,73.0,7.466
59.0,87.0,7.467
173.0,105.0,7.468
108.0,115.0,7.469
-118.0,94.0,7.47
-335.0,44.0,7.471
-424.0,-3.0,7.472
-388.0,-29.0,7.473
-271.0,-53.0,7.474
-129.0,-91.0,7.475
-25.0,-119.0,7.476
15.0,-111.0,7.477
25.0,-71.0,7.478
37.0,-33.0,7.479
44.0,-3.0,7.48
16.0,25.0,7.481
-68.0,63.0,7.482
-204.0,87.0,7.483
-307.0,81.0,7.484
-230.0,48.0,7.485
74.0,-8.0,7.486
427.0,-86.0,7.487
560.0,-164.0,7.488
397.0,-193.0,7.489
119.0,-155.0,7.49
-40.0,-101.0,7.491
-15.0,-74.0,7.492
