Deltoid,Bicep,Time
-19.0,-3.0,0.0
-21.0,-8.0,0.001
-21.0,-7.0,0.002
-13.0,-4.0,0.003
2.0,-2.0,0.004
11.0,-1.0,0.005
6.0,1.0,0.006
1.0,1.0,0.007
3.0,0.0,0.008
7.0,-2.0,0.009
7.0,-2.0,0.01
6.0,-2.0,0.011
9.0,-8.0,0.012
13.0,-14.0,0.013
13.0,-13.0,0.014
10.0,-9.0,0.015
6.0,-6.0,0.016
1.0,-2.0,0.017
-4.0,-1.0,0.018
-5.0,2.0,0.019
-4.0,4.0,0.02
-4.0,-1.0,0.021
-3.0,-5.0,0.022
2.0,0.0,0.023
13.0,4.0,0.024
16.0,2.0,0.025
9.0,1.0,0.026
4.0,2.0,0.027
4.0,4.0,0.028
3.0,4.0,0.029
0.0,5.0,0.03
0.0,6.0,0.031
4.0,8.0,0.032
4.0,8.0,0.033
0.0,7.0,0.034
-5.0,8.0,0.035
-4.0,9.0,0.036
-3.0,9.0,0.037
-4.0,9.0,0.038
-3.0,8.0,0.039
-1.0,6.0,0.04
1.0,4.0,0.041
5.0,4.0,0.042
10.0,7.0,0.043
15.0,11.0,0.044
16.0,13.0,0.045
18.0,12.0,0.046
18.0,8.0,0.047
18.0,3.0,0.048
18.0,0.0,0.049
17.0,-2.0,0.05
15.0,-4.0,0.051
11.0,-5.0,0.052
5.0,-3.0,0.053
-1.0,0.0,0.054
-5.0,0.0,0.055
-8.0,-3.0,0.056
-10.0,-6.0,0.057
-10.0,-3.0,0.058
-5.0,3.0,0.059
-2.0,9.0,0.06
-3.0,5.0,0.061
-4.0,-1.0,0.062
-1.0,-2.0,0.063
7.0,1.0,0.064
12.0,2.0,0.065
12.0,-1.0,0.066
11.0,-7.0,0.067
12.0,-8.0,0.068
12.0,-5.0,0.069
9.0,0.0,0.07
8.0,2.0,0.071
8.0,1.0,0.072
8.0,-1.0,0.073
6.0,-5.0,0.074
1.0,-6.0,0.075
-1.0,-4.0,0.076
-1.0,-1.0,0.077
-4.0,-2.0,0.078
-11.0,-4.0,0.079
-16.0,-5.0,0.08
-17.0,-7.0,0.081
-12.0,-5.0,0.082
-6.0,-3.0,0.083
-1.0,-2.0,0.084
-1.0,-2.0,0.085
-2.0,-2.0,0.086
0.0,-1.0,0.087
7.0,2.0,0.088
14.0,6.0,0.089
14.0,9.0,0.09
12.0,9.0,0.091
11.0,2.0,0.092
9.0,-4.0,0.093
3.0,-6.0,0.094
-3.0,-4.0,0.095
-6.0,-3.0,0.096
-4.0,-1.0,0.097
-8.0,-1.0,0.098
-15.0,0.0,0.099
-19.0,0.0,0.1
-17.0,-4.0,0.101
-11.0,-7.0,0.102
-5.0,-7.0,0.103
3.0,-7.0,0.104
8.0,-4.0,0.105
5.0,-2.0,0.106
2.0,-1.0,0.107
5.0,-1.0,0.108
13.0,-6.0,0.109
18.0,-11.0,0.11
16.0,-9.0,0.111
14.0,-8.0,0.112
13.0,-6.0,0.113
8.0,-3.0,0.114
2.0,2.0,0.115
0.0,7.0,0.116
4.0,5.0,0.117
1.0,3.0,0.118
-6.0,4.0,0.119
-14.0,5.0,0.12
-15.0,2.0,0.121
-10.0,2.0,0.122
0.0,5.0,0.123
12.0,7.0,0.124
14.0,5.0,0.125
9.0,4.0,0.126
6.0,4.0,0.127
12.0,3.0,0.128
15.0,1.0,0.129
8.0,1.0,0.13
-1.0,2.0,0.131
-1.0,-2.0,0.132
1.0,-6.0,0.133
-4.0,-6.0,0.134
-12.0,-4.0,0.135
-15.0,-5.0,0.136
-13.0,-7.0,0.137
-14.0,-7.0,0.138
-16.0,-8.0,0.139
-15.0,-7.0,0.14
-13.0,-7.0,0.141
-9.0,-1.0,0.142
-2.0,8.0,0.143
8.0,13.0,0.144
13.0,16.0,0.145
10.0,19.0,0.146
6.0,17.0,0.147
7.0,8.0,0.148
9.0,0.0,0.149
7.0,-1.0,0.15
5.0,0.0,0.151
6.0,-1.0,0.152
8.0,-3.0,0.153
7.0,-4.0,0.154
6.0,-5.0,0.155
8.0,-7.0,0.156
9.0,-7.0,0.157
4.0,-9.0,0.158
-1.0,-13.0,0.159
-4.0,-18.0,0.16
-4.0,-20.0,0.161
-2.0,-14.0,0.162
7.0,-8.0,0.163
18.0,-7.0,0.164
21.0,-8.0,0.165
17.0,-5.0,0.166
13.0,-3.0,0.167
14.0,0.0,0.168
17.0,0.0,0.169
17.0,4.0,0.17
14.0,8.0,0.171
11.0,10.0,0.172
7.0,10.0,0.173
2.0,4.0,0.174
-1.0,0.0,0.175
-3.0,-5.0,0.176
-2.0,-2.0,0.177
-2.0,0.0,0.178
-3.0,-1.0,0.179
-5.0,-6.0,0.18
-4.0,-13.0,0.181
-1.0,-11.0,0.182
4.0,-6.0,0.183
8.0,-5.0,0.184
10.0,-5.0,0.185
8.0,-2.0,0.186
9.0,1.0,0.187
10.0,0.0,0.188
9.0,-2.0,0.189
7.0,-2.0,0.19
2.0,1.0,0.191
-2.0,2.0,0.192
-5.0,0.0,0.193
-6.0,-1.0,0.194
-8.0,-5.0,0.195
-12.0,-9.0,0.196
-14.0,-7.0,0.197
-12.0,-4.0,0.198
-8.0,2.0,0.199
-8.0,3.0,0.2
-10.0,-3.0,0.201
-6.0,-4.0,0.202
7.0,0.0,0.203
18.0,6.0,0.204
20.0,10.0,0.205
16.0,8.0,0.206
13.0,1.0,0.207
13.0,-2.0,0.208
10.0,4.0,0.209
7.0,12.0,0.21
3.0,13.0,0.211
1.0,8.0,0.212
0.0,5.0,0.213
-2.0,3.0,0.214
-5.0,2.0,0.215
-10.0,1.0,0.216
-12.0,5.0,0.217
-9.0,8.0,0.218
-4.0,7.0,0.219
-1.0,3.0,0.22
0.0,0.0,0.221
2.0,0.0,0.222
8.0,0.0,0.223
16.0,-2.0,0.224
16.0,-1.0,0.225
14.0,4.0,0.226
9.0,9.0,0.227
10.0,8.0,0.228
13.0,6.0,0.229
11.0,6.0,0.23
9.0,5.0,0.231
10.0,2.0,0.232
13.0,-1.0,0.233
8.0,-2.0,0.234
0.0,-2.0,0.235
-3.0,-3.0,0.236
-1.0,-1.0,0.237
-1.0,0.0,0.238
-5.0,0.0,0.239
-12.0,-2.0,0.24
-14.0,-6.0,0.241
-10.0,-10.0,0.242
-1.0,-10.0,0.243
4.0,-11.0,0.244
3.0,-11.0,0.245
-3.0,-14.0,0.246
-5.0,-17.0,0.247
-1.0,-18.0,0.248
4.0,-15.0,0.249
6.0,-12.0,0.25
3.0,-11.0,0.251
2.0,-11.0,0.252
0.0,-9.0,0.253
-2.0,-5.0,0.254
-4.0,-3.0,0.255
-4.0,-3.0,0.256
-2.0,0.0,0.257
-3.0,2.0,0.258
-3.0,4.0,0.259
-2.0,6.0,0.26
-2.0,2.0,0.261
-2.0,-4.0,0.262
3.0,-10.0,0.263
12.0,-14.0,0.264
15.0,-12.0,0.265
12.0,-5.0,0.266
9.0,1.0,0.267
12.0,3.0,0.268
12.0,2.0,0.269
6.0,2.0,0.27
0.0,5.0,0.271
0.0,7.0,0.272
1.0,8.0,0.273
-1.0,9.0,0.274
-1.0,10.0,0.275
1.0,12.0,0.276
3.0,11.0,0.277
-1.0,7.0,0.278
-4.0,1.0,0.279
-2.0,-2.0,0.28
-1.0,-5.0,0.281
-1.0,0.0,0.282
4.0,5.0,0.283
11.0,7.0,0.284
12.0,9.0,0.285
7.0,9.0,0.286
6.0,10.0,0.287
12.0,8.0,0.288
12.0,9.0,0.289
7.0,13.0,0.29
3.0,16.0,0.291
2.0,17.0,0.292
0.0,14.0,0.293
-5.0,13.0,0.294
-8.0,10.0,0.295
-6.0,5.0,0.296
-5.0,1.0,0.297
-7.0,0.0,0.298
-6.0,-3.0,0.299
-6.0,-8.0,0.3
-8.0,-16.0,0.301
-8.0,-19.0,0.302
0.0,-17.0,0.303
15.0,-15.0,0.304
19.0,-13.0,0.305
14.0,-11.0,0.306
15.0,-10.0,0.307
20.0,-11.0,0.308
22.0,-12.0,0.309
18.0,-13.0,0.31
11.0,-11.0,0.311
9.0,-10.0,0.312
9.0,-10.0,0.313
6.0,-10.0,0.314
2.0,-9.0,0.315
0.0,-7.0,0.316
0.0,-3.0,0.317
-3.0,1.0,0.318
-9.0,5.0,0.319
-15.0,4.0,0.32
-16.0,0.0,0.321
-12.0,-3.0,0.322
-3.0,-3.0,0.323
2.0,-2.0,0.324
3.0,0.0,0.325
1.0,6.0,0.326
2.0,8.0,0.327
4.0,6.0,0.328
6.0,4.0,0.329
5.0,6.0,0.33
4.0,9.0,0.331
4.0,9.0,0.332
3.0,5.0,0.333
-1.0,2.0,0.334
-3.0,2.0,0.335
-3.0,4.0,0.336
0.0,6.0,0.337
1.0,4.0,0.338
0.0,4.0,0.339
-5.0,5.0,0.34
-9.0,3.0,0.341
-9.0,3.0,0.342
-2.0,5.0,0.343
7.0,8.0,0.344
14.0,8.0,0.345
14.0,3.0,0.346
12.0,-2.0,0.347
11.0,-2.0,0.348
11.0,0.0,0.349
10.0,1.0,0.35
8.0,0.0,0.351
8.0,0.0,0.352
7.0,3.0,0.353
1.0,7.0,0.354
-2.0,5.0,0.355
-1.0,0.0,0.356
0.0,-2.0,0.357
-3.0,-5.0,0.358
-8.0,-7.0,0.359
-11.0,-8.0,0.36
-11.0,-11.0,0.361
-9.0,-10.0,0.362
-3.0,-10.0,0.363
4.0,-11.0,0.364
9.0,-8.0,0.365
8.0,-5.0,0.366
6.0,-3.0,0.367
10.0,-3.0,0.368
14.0,-3.0,0.369
13.0,2.0,0.37
8.0,4.0,0.371
6.0,0.0,0.372
7.0,-2.0,0.373
3.0,1.0,0.374
-1.0,3.0,0.375
-3.0,0.0,0.376
-5.0,-6.0,0.377
-8.0,-13.0,0.378
-12.0,-13.0,0.379
-14.0,-9.0,0.38
-13.0,-7.0,0.381
-9.0,-4.0,0.382
1.0,0.0,0.383
11.0,3.0,0.384
15.0,5.0,0.385
14.0,5.0,0.386
13.0,6.0,0.387
13.0,8.0,0.388
14.0,8.0,0.389
13.0,9.0,0.39
14.0,9.0,0.391
14.0,7.0,0.392
11.0,5.0,0.393
6.0,5.0,0.394
3.0,6.0,0.395
1.0,9.0,0.396
0.0,9.0,0.397
-4.0,6.0,0.398
-7.0,2.0,0.399
-10.0,0.0,0.4
-15.0,-3.0,0.401
-18.0,-4.0,0.402
-11.0,-5.0,0.403
0.0,-3.0,0.404
6.0,-1.0,0.405
5.0,-3.0,0.406
6.0,-7.0,0.407
11.0,-9.0,0.408
15.0,-7.0,0.409
13.0,-4.0,0.41
11.0,-5.0,0.411
10.0,-8.0,0.412
8.0,-10.0,0.413
5.0,-11.0,0.414
3.0,-10.0,0.415
2.0,-10.0,0.416
0.0,-9.0,0.417
-3.0,-11.0,0.418
-2.0,-13.0,0.419
1.0,-11.0,0.42
2.0,-6.0,0.421
2.0,1.0,0.422
8.0,5.0,0.423
16.0,5.0,0.424
17.0,0.0,0.425
9.0,-2.0,0.426
7.0,-2.0,0.427
9.0,-1.0,0.428
9.0,-2.0,0.429
7.0,-1.0,0.43
6.0,0.0,0.431
10.0,1.0,0.432
11.0,2.0,0.433
6.0,4.0,0.434
3.0,5.0,0.435
2.0,4.0,0.436
1.0,5.0,0.437
-3.0,8.0,0.438
-7.0,11.0,0.439
-11.0,12.0,0.44
-13.0,11.0,0.441
-13.0,12.0,0.442
-6.0,14.0,0.443
3.0,15.0,0.444
6.0,13.0,0.445
3.0,12.0,0.446
1.0,9.0,0.447
3.0,2.0,0.448
4.0,0.0,0.449
1.0,3.0,0.45
-2.0,6.0,0.451
-3.0,2.0,0.452
-4.0,-4.0,0.453
-5.0,-7.0,0.454
-8.0,-9.0,0.455
-9.0,-9.0,0.456
-7.0,-9.0,0.457
-8.0,-6.0,0.458
-9.0,-4.0,0.459
-11.0,-5.0,0.46
-10.0,-7.0,0.461
-3.0,-7.0,0.462
8.0,-6.0,0.463
19.0,-3.0,0.464
22.0,-2.0,0.465
19.0,-5.0,0.466
16.0,-10.0,0.467
16.0,-12.0,0.468
14.0,-9.0,0.469
9.0,-5.0,0.47
5.0,-6.0,0.471
1.0,-12.0,0.472
-3.0,-13.0,0.473
-10.0,-6.0,0.474
-15.0,2.0,0.475
-11.0,4.0,0.476
-6.0,5.0,0.477
-5.0,4.0,0.478
-7.0,4.0,0.479
-11.0,2.0,0.48
-13.0,-1.0,0.481
-13.0,-3.0,0.482
-5.0,0.0,0.483
5.0,3.0,0.484
11.0,3.0,0.485
11.0,4.0,0.486
12.0,6.0,0.487
16.0,7.0,0.488
16.0,5.0,0.489
13.0,3.0,0.49
11.0,1.0,0.491
13.0,0.0,0.492
13.0,-3.0,0.493
6.0,-6.0,0.494
1.0,-5.0,0.495
0.0,-4.0,0.496
1.0,-4.0,0.497
0.0,-5.0,0.498
0.0,-4.0,0.499
2.0,1.0,0.5
3.0,5.0,0.501
3.0,5.0,0.502
5.0,6.0,0.503
13.0,12.0,0.504
17.0,20.0,0.505
17.0,23.0,0.506
16.0,17.0,0.507
20.0,12.0,0.508
21.0,8.0,0.509
18.0,3.0,0.51
11.0,-4.0,0.511
9.0,-10.0,0.512
8.0,-15.0,0.513
3.0,-17.0,0.514
-3.0,-14.0,0.515
-6.0,-10.0,0.516
-5.0,-7.0,0.517
-8.0,-5.0,0.518
-13.0,-5.0,0.519
-16.0,-2.0,0.52
-16.0,-1.0,0.521
-12.0,-2.0,0.522
-4.0,-2.0,0.523
3.0,2.0,0.524
3.0,8.0,0.525
-4.0,10.0,0.526
-7.0,7.0,0.527
-3.0,3.0,0.528
4.0,2.0,0.529
4.0,0.0,0.53
4.0,-4.0,0.531
7.0,-11.0,0.532
10.0,-16.0,0.533
6.0,-17.0,0.534
0.0,-16.0,0.535
-2.0,-15.0,0.536
-1.0,-11.0,0.537
-3.0,-6.0,0.538
-4.0,-1.0,0.539
-5.0,2.0,0.54
-9.0,4.0,0.541
-10.0,8.0,0.542
-4.0,15.0,0.543
2.0,19.0,0.544
0.0,19.0,0.545
-5.0,17.0,0.546
-3.0,15.0,0.547
7.0,9.0,0.548
14.0,3.0,0.549
12.0,-3.0,0.55
10.0,-9.0,0.551
16.0,-17.0,0.552
20.0,-19.0,0.553
19.0,-13.0,0.554
15.0,-6.0,0.555
9.0,-8.0,0.556
4.0,-10.0,0.557
0.0,-11.0,0.558
-1.0,-8.0,0.559
-3.0,-7.0,0.56
-7.0,-11.0,0.561
-11.0,-11.0,0.562
-5.0,-7.0,0.563
3.0,0.0,0.564
4.0,3.0,0.565
-2.0,2.0,0.566
-2.0,-3.0,0.567
9.0,-8.0,0.568
21.0,-6.0,0.569
22.0,-2.0,0.57
16.0,0.0,0.571
9.0,-3.0,0.572
3.0,-9.0,0.573
-2.0,-9.0,0.574
-6.0,-7.0,0.575
-5.0,-8.0,0.576
-6.0,-5.0,0.577
-13.0,-4.0,0.578
-18.0,-3.0,0.579
-20.0,-5.0,0.58
-19.0,-6.0,0.581
-19.0,2.0,0.582
-15.0,7.0,0.583
-4.0,4.0,0.584
9.0,2.0,0.585
12.0,4.0,0.586
15.0,8.0,0.587
20.0,7.0,0.588
28.0,9.0,0.589
34.0,14.0,0.59
38.0,16.0,0.591
39.0,11.0,0.592
34.0,6.0,0.593
23.0,4.0,0.594
15.0,4.0,0.595
8.0,2.0,0.596
1.0,5.0,0.597
-14.0,10.0,0.598
-26.0,15.0,0.599
-35.0,13.0,0.6
-38.0,4.0,0.601
-32.0,0.0,0.602
-17.0,-2.0,0.603
-1.0,-4.0,0.604
2.0,-2.0,0.605
-1.0,2.0,0.606
0.0,3.0,0.607
9.0,2.0,0.608
10.0,4.0,0.609
-1.0,8.0,0.61
-7.0,6.0,0.611
-1.0,-2.0,0.612
11.0,-4.0,0.613
20.0,1.0,0.614
18.0,8.0,0.615
16.0,9.0,0.616
20.0,8.0,0.617
19.0,5.0,0.618
1.0,2.0,0.619
-23.0,-3.0,0.62
-31.0,-8.0,0.621
-15.0,-6.0,0.622
11.0,0.0,0.623
25.0,2.0,0.624
27.0,0.0,0.625
30.0,-3.0,0.626
32.0,-6.0,0.627
24.0,-7.0,0.628
10.0,-7.0,0.629
5.0,-4.0,0.63
12.0,-4.0,0.631
11.0,-6.0,0.632
-4.0,-6.0,0.633
-15.0,-4.0,0.634
-8.0,-3.0,0.635
3.0,-2.0,0.636
3.0,4.0,0.637
-8.0,6.0,0.638
-17.0,2.0,0.639
-22.0,-5.0,0.64
-31.0,-7.0,0.641
-42.0,-2.0,0.642
-41.0,-1.0,0.643
-26.0,-4.0,0.644
-9.0,-3.0,0.645
2.0,2.0,0.646
13.0,2.0,0.647
23.0,-4.0,0.648
25.0,-8.0,0.649
17.0,-4.0,0.65
6.0,-2.0,0.651
-1.0,-7.0,0.652
-9.0,-11.0,0.653
-8.0,-9.0,0.654
3.0,-5.0,0.655
17.0,-4.0,0.656
20.0,-3.0,0.657
11.0,-5.0,0.658
9.0,-4.0,0.659
19.0,-1.0,0.66
27.0,0.0,0.661
23.0,0.0,0.662
16.0,3.0,0.663
15.0,6.0,0.664
13.0,9.0,0.665
7.0,10.0,0.666
4.0,12.0,0.667
7.0,9.0,0.668
10.0,2.0,0.669
13.0,-1.0,0.67
13.0,-1.0,0.671
14.0,-3.0,0.672
8.0,-9.0,0.673
-3.0,-15.0,0.674
-15.0,-16.0,0.675
-19.0,-18.0,0.676
-19.0,-24.0,0.677
-21.0,-28.0,0.678
-22.0,-24.0,0.679
-21.0,-13.0,0.68
-16.0,-9.0,0.681
-9.0,-7.0,0.682
-6.0,0.0,0.683
-5.0,9.0,0.684
-4.0,13.0,0.685
-2.0,13.0,0.686
0.0,11.0,0.687
1.0,10.0,0.688
0.0,9.0,0.689
0.0,6.0,0.69
3.0,5.0,0.691
8.0,5.0,0.692
10.0,6.0,0.693
4.0,8.0,0.694
-3.0,8.0,0.695
-4.0,3.0,0.696
-2.0,0.0,0.697
-2.0,-2.0,0.698
-5.0,-1.0,0.699
-5.0,-3.0,0.7
1.0,-5.0,0.701
12.0,-1.0,0.702
19.0,9.0,0.703
25.0,13.0,0.704
26.0,9.0,0.705
25.0,4.0,0.706
22.0,2.0,0.707
22.0,0.0,0.708
24.0,-1.0,0.709
22.0,-2.0,0.71
19.0,0.0,0.711
15.0,-1.0,0.712
11.0,-3.0,0.713
4.0,-3.0,0.714
-4.0,2.0,0.715
-7.0,6.0,0.716
-5.0,9.0,0.717
-5.0,4.0,0.718
-10.0,-2.0,0.719
-18.0,-5.0,0.72
-22.0,-6.0,0.721
-19.0,0.0,0.722
-8.0,2.0,0.723
5.0,0.0,0.724
11.0,0.0,0.725
9.0,6.0,0.726
6.0,11.0,0.727
8.0,11.0,0.728
10.0,8.0,0.729
9.0,4.0,0.73
9.0,-1.0,0.731
14.0,-4.0,0.732
17.0,-4.0,0.733
16.0,-4.0,0.734
13.0,-6.0,0.735
10.0,-9.0,0.736
6.0,-7.0,0.737
-2.0,-5.0,0.738
-7.0,-6.0,0.739
-7.0,-8.0,0.74
-4.0,-10.0,0.741
-2.0,-5.0,0.742
3.0,-1.0,0.743
11.0,-1.0,0.744
13.0,0.0,0.745
8.0,3.0,0.746
5.0,3.0,0.747
11.0,1.0,0.748
14.0,1.0,0.749
8.0,4.0,0.75
0.0,5.0,0.751
-3.0,1.0,0.752
-4.0,-1.0,0.753
-7.0,-3.0,0.754
-11.0,-3.0,0.755
-15.0,-6.0,0.756
-16.0,-8.0,0.757
-20.0,-6.0,0.758
-20.0,-6.0,0.759
-20.0,-6.0,0.76
-15.0,-11.0,0.761
-8.0,-12.0,0.762
1.0,-8.0,0.763
8.0,-6.0,0.764
12.0,-5.0,0.765
13.0,-6.0,0.766
16.0,-8.0,0.767
16.0,-7.0,0.768
14.0,-4.0,0.769
12.0,0.0,0.77
12.0,0.0,0.771
9.0,-2.0,0.772
3.0,-3.0,0.773
0.0,-2.0,0.774
-1.0,-1.0,0.775
-2.0,0.0,0.776
-2.0,3.0,0.777
0.0,3.0,0.778
1.0,3.0,0.779
0.0,0.0,0.78
-4.0,-1.0,0.781
-5.0,3.0,0.782
-1.0,6.0,0.783
5.0,4.0,0.784
7.0,6.0,0.785
6.0,11.0,0.786
4.0,14.0,0.787
3.0,7.0,0.788
1.0,0.0,0.789
0.0,-2.0,0.79
-1.0,2.0,0.791
0.0,3.0,0.792
2.0,1.0,0.793
6.0,1.0,0.794
8.0,5.0,0.795
8.0,5.0,0.796
11.0,2.0,0.797
8.0,-4.0,0.798
3.0,-3.0,0.799
-3.0,1.0,0.8
-5.0,0.0,0.801
-2.0,-2.0,0.802
5.0,-4.0,0.803
12.0,-4.0,0.804
14.0,0.0,0.805
10.0,3.0,0.806
7.0,4.0,0.807
6.0,4.0,0.808
7.0,7.0,0.809
7.0,12.0,0.81
6.0,11.0,0.811
4.0,5.0,0.812
2.0,1.0,0.813
-1.0,0.0,0.814
-9.0,-5.0,0.815
-15.0,-11.0,0.816
-16.0,-13.0,0.817
-14.0,-12.0,0.818
-7.0,-11.0,0.819
-4.0,-13.0,0.82
-1.0,-14.0,0.821
5.0,-9.0,0.822
18.0,-5.0,0.823
25.0,-4.0,0.824
21.0,-1.0,0.825
11.0,3.0,0.826
8.0,5.0,0.827
10.0,2.0,0.828
3.0,0.0,0.829
-8.0,1.0,0.83
-14.0,1.0,0.831
-15.0,-1.0,0.832
-17.0,-1.0,0.833
-20.0,1.0,0.834
-17.0,2.0,0.835
-5.0,0.0,0.836
8.0,0.0,0.837
16.0,-2.0,0.838
16.0,-7.0,0.839
15.0,-12.0,0.84
11.0,-16.0,0.841
7.0,-7.0,0.842
9.0,0.0,0.843
10.0,3.0,0.844
5.0,2.0,0.845
3.0,3.0,0.846
11.0,3.0,0.847
16.0,0.0,0.848
10.0,0.0,0.849
6.0,4.0,0.85
9.0,6.0,0.851
9.0,1.0,0.852
-2.0,-5.0,0.853
-10.0,-5.0,0.854
-6.0,-2.0,0.855
-2.0,1.0,0.856
0.0,5.0,0.857
0.0,8.0,0.858
0.0,8.0,0.859
-4.0,4.0,0.86
-11.0,-1.0,0.861
-14.0,0.0,0.862
-4.0,0.0,0.863
11.0,-1.0,0.864
14.0,-4.0,0.865
7.0,-6.0,0.866
6.0,-7.0,0.867
10.0,-8.0,0.868
10.0,-8.0,0.869
3.0,-1.0,0.87
-3.0,4.0,0.871
-2.0,7.0,0.872
-4.0,6.0,0.873
-10.0,5.0,0.874
-14.0,4.0,0.875
-10.0,0.0,0.876
-7.0,-2.0,0.877
-11.0,-2.0,0.878
-16.0,1.0,0.879
-16.0,1.0,0.88
-14.0,-6.0,0.881
-7.0,-7.0,0.882
2.0,-2.0,0.883
14.0,7.0,0.884
14.0,11.0,0.885
7.0,10.0,0.886
8.0,9.0,0.887
17.0,11.0,0.888
22.0,13.0,0.889
17.0,11.0,0.89
14.0,4.0,0.891
16.0,-1.0,0.892
15.0,-3.0,0.893
6.0,-7.0,0.894
-1.0,-9.0,0.895
-2.0,-8.0,0.896
-1.0,-3.0,0.897
-5.0,-4.0,0.898
-12.0,-10.0,0.899
-12.0,-15.0,0.9
-9.0,-13.0,0.901
-5.0,-11.0,0.902
0.0,-8.0,0.903
6.0,-5.0,0.904
6.0,-3.0,0.905
4.0,-2.0,0.906
5.0,-2.0,0.907
13.0,-2.0,0.908
18.0,-2.0,0.909
20.0,-1.0,0.91
20.0,-2.0,0.911
21.0,-3.0,0.912
18.0,-4.0,0.913
13.0,-5.0,0.914
9.0,-2.0,0.915
7.0,1.0,0.916
0.0,1.0,0.917
-10.0,0.0,0.918
-16.0,-1.0,0.919
-14.0,-1.0,0.92
-7.0,-3.0,0.921
-1.0,-2.0,0.922
6.0,1.0,0.923
12.0,6.0,0.924
14.0,11.0,0.925
17.0,14.0,0.926
18.0,13.0,0.927
14.0,11.0,0.928
9.0,10.0,0.929
10.0,10.0,0.93
19.0,8.0,0.931
22.0,6.0,0.932
11.0,5.0,0.933
-4.0,2.0,0.934
-10.0,-4.0,0.935
-10.0,-8.0,0.936
-11.0,-7.0,0.937
-16.0,-8.0,0.938
-15.0,-9.0,0.939
-13.0,-12.0,0.94
-13.0,-14.0,0.941
-14.0,-11.0,0.942
-4.0,-7.0,0.943
9.0,-4.0,0.944
15.0,-3.0,0.945
11.0,-5.0,0.946
12.0,-7.0,0.947
16.0,-6.0,0.948
14.0,-1.0,0.949
2.0,2.0,0.95
-7.0,0.0,0.951
-6.0,-3.0,0.952
-2.0,-2.0,0.953
0.0,2.0,0.954
-1.0,2.0,0.955
1.0,-2.0,0.956
5.0,-1.0,0.957
4.0,0.0,0.958
-1.0,2.0,0.959
-5.0,2.0,0.96
-4.0,1.0,0.961
1.0,4.0,0.962
5.0,4.0,0.963
4.0,-1.0,0.964
4.0,-5.0,0.965
11.0,0.0,0.966
21.0,8.0,0.967
22.0,10.0,0.968
10.0,7.0,0.969
0.0,-2.0,0.97
5.0,-8.0,0.971
13.0,-10.0,0.972
8.0,-9.0,0.973
-4.0,-8.0,0.974
-9.0,-8.0,0.975
-5.0,-7.0,0.976
-3.0,-4.0,0.977
-12.0,-3.0,0.978
-18.0,-2.0,0.979
-20.0,0.0,0.98
-19.0,0.0,0.981
-17.0,5.0,0.982
-13.0,7.0,0.983
-4.0,7.0,0.984
-2.0,7.0,0.985
-3.0,10.0,0.986
0.0,13.0,0.987
10.0,15.0,0.988
13.0,15.0,0.989
12.0,12.0,0.99
13.0,6.0,0.991
18.0,0.0,0.992
19.0,-3.0,0.993
14.0,-3.0,0.994
10.0,-2.0,0.995
11.0,-6.0,0.996
11.0,-7.0,0.997
4.0,-5.0,0.998
0.0,0.0,0.999
-2.0,4.0,1.0
-4.0,-1.0,1.001
-3.0,-5.0,1.002
4.0,-6.0,1.003
13.0,-5.0,1.004
13.0,-3.0,1.005
8.0,-3.0,1.006
7.0,-5.0,1.007
15.0,-6.0,1.008
20.0,-6.0,1.009
20.0,-6.0,1.01
14.0,-9.0,1.011
7.0,-15.0,1.012
0.0,-16.0,1.013
-7.0,-13.0,1.014
-14.0,-12.0,1.015
-18.0,-16.0,1.016
-17.0,-18.0,1.017
-17.0,-14.0,1.018
-18.0,-5.0,1.019
-17.0,2.0,1.02
-12.0,3.0,1.021
-3.0,6.0,1.022
4.0,9.0,1.023
5.0,10.0,1.024
3.0,8.0,1.025
2.0,7.0,1.026
1.0,8.0,1.027
1.0,9.0,1.028
3.0,9.0,1.029
6.0,8.0,1.03
7.0,8.0,1.031
8.0,6.0,1.032
5.0,2.0,1.033
1.0,0.0,1.034
1.0,-1.0,1.035
5.0,1.0,1.036
10.0,7.0,1.037
10.0,10.0,1.038
6.0,12.0,1.039
5.0,7.0,1.04
6.0,0.0,1.041
10.0,1.0,1.042
15.0,5.0,1.043
19.0,5.0,1.044
15.0,5.0,1.045
8.0,9.0,1.046
4.0,13.0,1.047
7.0,10.0,1.048
7.0,3.0,1.049
3.0,2.0,1.05
-2.0,6.0,1.051
-5.0,6.0,1.052
-6.0,0.0,1.053
-9.0,-6.0,1.054
-12.0,-5.0,1.055
-12.0,1.0,1.056
-9.0,5.0,1.057
-8.0,2.0,1.058
-10.0,-2.0,1.059
-14.0,-5.0,1.06
-13.0,-9.0,1.061
-4.0,-10.0,1.062
10.0,-9.0,1.063
21.0,-6.0,1.064
26.0,-3.0,1.065
25.0,-1.0,1.066
24.0,1.0,1.067
22.0,3.0,1.068
17.0,1.0,1.069
12.0,-4.0,1.07
10.0,-9.0,1.071
14.0,-9.0,1.072
14.0,-3.0,1.073
5.0,2.0,1.074
-5.0,3.0,1.075
-10.0,0.0,1.076
-5.0,-1.0,1.077
-3.0,-4.0,1.078
-3.0,-8.0,1.079
-7.0,-12.0,1.08
-5.0,-16.0,1.081
5.0,-13.0,1.082
17.0,-7.0,1.083
19.0,-3.0,1.084
9.0,-4.0,1.085
-3.0,-7.0,1.086
-5.0,-9.0,1.087
2.0,-8.0,1.088
6.0,-7.0,1.089
7.0,-7.0,1.09
12.0,-4.0,1.091
17.0,0.0,1.092
11.0,6.0,1.093
-5.0,6.0,1.094
-20.0,1.0,1.095
-21.0,0.0,1.096
-20.0,4.0,1.097
-23.0,5.0,1.098
-24.0,3.0,1.099
-25.0,1.0,1.1
-23.0,1.0,1.101
-22.0,2.0,1.102
-22.0,1.0,1.103
-19.0,1.0,1.104
-9.0,7.0,1.105
-1.0,11.0,1.106
4.0,8.0,1.107
13.0,0.0,1.108
29.0,-3.0,1.109
41.0,0.0,1.11
40.0,3.0,1.111
35.0,1.0,1.112
18.0,-6.0,1.113
2.0,-11.0,1.114
-8.0,-12.0,1.115
-18.0,-12.0,1.116
-23.0,-10.0,1.117
-26.0,-11.0,1.118
-19.0,-7.0,1.119
-9.0,-5.0,1.12
8.0,-6.0,1.121
28.0,-6.0,1.122
50.0,-3.0,1.123
68.0,4.0,1.124
74.0,14.0,1.125
67.0,17.0,1.126
53.0,15.0,1.127
35.0,12.0,1.128
16.0,9.0,1.129
0.0,7.0,1.13
-6.0,1.0,1.131
-10.0,-4.0,1.132
-15.0,-5.0,1.133
-21.0,0.0,1.134
-27.0,8.0,1.135
-35.0,11.0,1.136
-37.0,8.0,1.137
-32.0,2.0,1.138
-25.0,2.0,1.139
-25.0,6.0,1.14
-30.0,3.0,1.141
-26.0,-4.0,1.142
-12.0,-8.0,1.143
4.0,-8.0,1.144
14.0,-7.0,1.145
20.0,-9.0,1.146
27.0,-12.0,1.147
30.0,-9.0,1.148
22.0,-3.0,1.149
11.0,2.0,1.15
6.0,2.0,1.151
6.0,0.0,1.152
3.0,1.0,1.153
-3.0,4.0,1.154
-3.0,4.0,1.155
-4.0,1.0,1.156
-6.0,-1.0,1.157
-10.0,-2.0,1.158
-7.0,-5.0,1.159
-1.0,-5.0,1.16
-3.0,-5.0,1.161
-13.0,-3.0,1.162
-16.0,-3.0,1.163
-5.0,-5.0,1.164
5.0,-4.0,1.165
8.0,3.0,1.166
9.0,8.0,1.167
16.0,7.0,1.168
22.0,5.0,1.169
15.0,9.0,1.17
-3.0,13.0,1.171
-13.0,11.0,1.172
-8.0,4.0,1.173
-2.0,-1.0,1.174
-3.0,-2.0,1.175
-8.0,0.0,1.176
-11.0,0.0,1.177
-17.0,-3.0,1.178
-22.0,-7.0,1.179
-20.0,-10.0,1.18
-3.0,-13.0,1.181
21.0,-14.0,1.182
37.0,-12.0,1.183
45.0,-7.0,1.184
47.0,2.0,1.185
45.0,12.0,1.186
42.0,15.0,1.187
34.0,9.0,1.188
23.0,3.0,1.189
9.0,1.0,1.19
0.0,4.0,1.191
-1.0,0.0,1.192
1.0,-3.0,1.193
2.0,-4.0,1.194
2.0,-3.0,1.195
3.0,-5.0,1.196
0.0,-5.0,1.197
-8.0,-8.0,1.198
-16.0,-11.0,1.199
-18.0,-14.0,1.2
-17.0,-13.0,1.201
-19.0,-4.0,1.202
-16.0,3.0,1.203
-8.0,3.0,1.204
-2.0,3.0,1.205
-4.0,7.0,1.206
-5.0,4.0,1.207
-2.0,-6.0,1.208
2.0,-13.0,1.209
1.0,-9.0,1.21
0.0,-2.0,1.211
3.0,0.0,1.212
5.0,-1.0,1.213
2.0,5.0,1.214
0.0,9.0,1.215
5.0,5.0,1.216
7.0,1.0,1.217
-1.0,-1.0,1.218
-15.0,0.0,1.219
-24.0,0.0,1.22
-26.0,-2.0,1.221
-24.0,2.0,1.222
-16.0,7.0,1.223
0.0,6.0,1.224
15.0,6.0,1.225
24.0,8.0,1.226
33.0,11.0,1.227
46.0,8.0,1.228
57.0,4.0,1.229
54.0,5.0,1.23
39.0,8.0,1.231
29.0,4.0,1.232
24.0,-1.0,1.233
17.0,-6.0,1.234
7.0,-6.0,1.235
-1.0,-3.0,1.236
-5.0,0.0,1.237
-4.0,2.0,1.238
-11.0,-1.0,1.239
-23.0,-5.0,1.24
-32.0,-8.0,1.241
-30.0,-6.0,1.242
-16.0,-2.0,1.243
-4.0,0.0,1.244
-1.0,2.0,1.245
-4.0,0.0,1.246
-5.0,-7.0,1.247
1.0,-13.0,1.248
4.0,-12.0,1.249
1.0,-6.0,1.25
-1.0,-3.0,1.251
0.0,-4.0,1.252
-2.0,-3.0,1.253
-9.0,0.0,1.254
-12.0,0.0,1.255
-7.0,0.0,1.256
3.0,2.0,1.257
6.0,3.0,1.258
6.0,5.0,1.259
2.0,4.0,1.26
-1.0,1.0,1.261
-5.0,0.0,1.262
-4.0,3.0,1.263
2.0,9.0,1.264
7.0,14.0,1.265
4.0,10.0,1.266
1.0,-1.0,1.267
-2.0,-7.0,1.268
-6.0,-4.0,1.269
-17.0,0.0,1.27
-26.0,-3.0,1.271
-25.0,-8.0,1.272
-13.0,-10.0,1.273
5.0,-11.0,1.274
21.0,-13.0,1.275
29.0,-12.0,1.276
32.0,-6.0,1.277
27.0,-2.0,1.278
20.0,-1.0,1.279
7.0,1.0,1.28
-6.0,6.0,1.281
-12.0,11.0,1.282
-5.0,11.0,1.283
10.0,11.0,1.284
20.0,14.0,1.285
21.0,15.0,1.286
18.0,9.0,1.287
19.0,-1.0,1.288
21.0,-6.0,1.289
17.0,-6.0,1.29
4.0,-6.0,1.291
-7.0,-4.0,1.292
-9.0,2.0,1.293
-5.0,5.0,1.294
-5.0,4.0,1.295
-4.0,2.0,1.296
6.0,1.0,1.297
21.0,0.0,1.298
25.0,-1.0,1.299
13.0,-3.0,1.3
-1.0,-10.0,1.301
-6.0,-12.0,1.302
-4.0,-9.0,1.303
-4.0,-2.0,1.304
-4.0,1.0,1.305
1.0,-2.0,1.306
12.0,-6.0,1.307
21.0,-3.0,1.308
22.0,7.0,1.309
15.0,14.0,1.31
7.0,10.0,1.311
7.0,-1.0,1.312
10.0,-7.0,1.313
3.0,-4.0,1.314
-17.0,2.0,1.315
-34.0,2.0,1.316
-33.0,-4.0,1.317
-22.0,-12.0,1.318
-13.0,-13.0,1.319
-14.0,-10.0,1.32
-18.0,-11.0,1.321
-14.0,-9.0,1.322
2.0,-4.0,1.323
20.0,5.0,1.324
24.0,10.0,1.325
17.0,10.0,1.326
15.0,8.0,1.327
27.0,3.0,1.328
36.0,0.0,1.329
25.0,-4.0,1.33
7.0,-8.0,1.331
1.0,-12.0,1.332
2.0,-12.0,1.333
-4.0,-9.0,1.334
-16.0,-6.0,1.335
-23.0,-5.0,1.336
-27.0,-2.0,1.337
-31.0,-3.0,1.338
-28.0,-4.0,1.339
-11.0,-7.0,1.34
12.0,-9.0,1.341
29.0,-4.0,1.342
40.0,0.0,1.343
46.0,5.0,1.344
43.0,10.0,1.345
25.0,16.0,1.346
8.0,17.0,1.347
1.0,13.0,1.348
3.0,9.0,1.349
3.0,4.0,1.35
-1.0,-1.0,1.351
0.0,-3.0,1.352
1.0,-2.0,1.353
-2.0,-3.0,1.354
-9.0,-7.0,1.355
-12.0,-13.0,1.356
-12.0,-13.0,1.357
-14.0,-13.0,1.358
-16.0,-12.0,1.359
-18.0,-11.0,1.36
-16.0,-12.0,1.361
-13.0,-9.0,1.362
-8.0,-8.0,1.363
-1.0,-7.0,1.364
1.0,-1.0,1.365
1.0,10.0,1.366
7.0,20.0,1.367
20.0,24.0,1.368
24.0,26.0,1.369
16.0,27.0,1.37
4.0,27.0,1.371
4.0,21.0,1.372
8.0,11.0,1.373
4.0,3.0,1.374
-4.0,0.0,1.375
-8.0,0.0,1.376
-8.0,1.0,1.377
-13.0,-3.0,1.378
-23.0,-6.0,1.379
-31.0,-7.0,1.38
-31.0,-10.0,1.381
-19.0,-14.0,1.382
1.0,-17.0,1.383
19.0,-14.0,1.384
24.0,-7.0,1.385
18.0,-5.0,1.386
14.0,-11.0,1.387
14.0,-16.0,1.388
7.0,-15.0,1.389
-9.0,-10.0,1.39
-25.0,-10.0,1.391
-35.0,-12.0,1.392
-40.0,-13.0,1.393
-36.0,-11.0,1.394
-20.0,-10.0,1.395
4.0,-7.0,1.396
23.0,0.0,1.397
40.0,4.0,1.398
60.0,8.0,1.399
67.0,13.0,1.4
47.0,17.0,1.401
18.0,20.0,1.402
14.0,15.0,1.403
33.0,6.0,1.404
39.0,3.0,1.405
22.0,8.0,1.406
13.0,15.0,1.407
19.0,14.0,1.408
13.0,13.0,1.409
-22.0,10.0,1.41
-46.0,5.0,1.411
-34.0,-4.0,1.412
-9.0,-10.0,1.413
-5.0,-7.0,1.414
-17.0,-2.0,1.415
-19.0,-4.0,1.416
-8.0,-6.0,1.417
4.0,-10.0,1.418
15.0,-7.0,1.419
21.0,-3.0,1.42
24.0,-3.0,1.421
23.0,-2.0,1.422
26.0,0.0,1.423
30.0,3.0,1.424
29.0,6.0,1.425
22.0,5.0,1.426
20.0,2.0,1.427
24.0,1.0,1.428
20.0,2.0,1.429
-2.0,2.0,1.43
-30.0,-4.0,1.431
-43.0,-9.0,1.432
-38.0,-12.0,1.433
-28.0,-13.0,1.434
-22.0,-14.0,1.435
-8.0,-16.0,1.436
16.0,-13.0,1.437
40.0,-8.0,1.438
46.0,0.0,1.439
28.0,7.0,1.44
4.0,2.0,1.441
-7.0,-6.0,1.442
-2.0,-8.0,1.443
6.0,0.0,1.444
6.0,11.0,1.445
0.0,14.0,1.446
-1.0,6.0,1.447
2.0,-5.0,1.448
1.0,-11.0,1.449
-5.0,-10.0,1.45
-9.0,-6.0,1.451
-7.0,-4.0,1.452
-7.0,-4.0,1.453
-15.0,-4.0,1.454
-22.0,-1.0,1.455
-22.0,3.0,1.456
-16.0,6.0,1.457
-13.0,6.0,1.458
-15.0,8.0,1.459
-17.0,8.0,1.46
-18.0,0.0,1.461
-9.0,-8.0,1.462
3.0,-7.0,1.463
7.0,4.0,1.464
-1.0,12.0,1.465
-6.0,11.0,1.466
6.0,7.0,1.467
25.0,10.0,1.468
39.0,17.0,1.469
44.0,18.0,1.47
48.0,14.0,1.471
42.0,12.0,1.472
17.0,13.0,1.473
-9.0,11.0,1.474
-14.0,4.0,1.475
-6.0,0.0,1.476
-8.0,0.0,1.477
-19.0,-4.0,1.478
-20.0,-7.0,1.479
-13.0,-9.0,1.48
-11.0,-9.0,1.481
-16.0,-9.0,1.482
-13.0,-8.0,1.483
0.0,-5.0,1.484
6.0,-3.0,1.485
0.0,-1.0,1.486
-2.0,-2.0,1.487
2.0,-4.0,1.488
4.0,-5.0,1.489
-1.0,-5.0,1.49
-2.0,-4.0,1.491
3.0,-6.0,1.492
6.0,-8.0,1.493
-1.0,-11.0,1.494
-12.0,-11.0,1.495
-18.0,-10.0,1.496
-18.0,-9.0,1.497
-15.0,-10.0,1.498
-13.0,-12.0,1.499
-10.0,-13.0,1.5
-2.0,-15.0,1.501
9.0,-14.0,1.502
22.0,-10.0,1.503
31.0,-4.0,1.504
30.0,3.0,1.505
26.0,3.0,1.506
25.0,-2.0,1.507
30.0,-6.0,1.508
35.0,-7.0,1.509
37.0,-3.0,1.51
36.0,4.0,1.511
28.0,11.0,1.512
13.0,13.0,1.513
-6.0,7.0,1.514
-15.0,1.0,1.515
-12.0,4.0,1.516
-7.0,11.0,1.517
-8.0,12.0,1.518
-12.0,8.0,1.519
-12.0,6.0,1.52
-12.0,5.0,1.521
-12.0,6.0,1.522
-10.0,5.0,1.523
-2.0,7.0,1.524
3.0,11.0,1.525
8.0,12.0,1.526
12.0,9.0,1.527
19.0,5.0,1.528
21.0,2.0,1.529
20.0,1.0,1.53
19.0,2.0,1.531
20.0,1.0,1.532
13.0,0.0,1.533
0.0,-2.0,1.534
-5.0,1.0,1.535
-3.0,4.0,1.536
-2.0,5.0,1.537
-7.0,2.0,1.538
-7.0,-3.0,1.539
-4.0,-5.0,1.54
-3.0,-5.0,1.541
-6.0,-4.0,1.542
-5.0,0.0,1.543
3.0,5.0,1.544
5.0,7.0,1.545
-3.0,7.0,1.546
-13.0,0.0,1.547
-11.0,-8.0,1.548
-5.0,-13.0,1.549
-2.0,-12.0,1.55
3.0,-11.0,1.551
15.0,-14.0,1.552
25.0,-14.0,1.553
30.0,-6.0,1.554
28.0,6.0,1.555
25.0,16.0,1.556
20.0,18.0,1.557
7.0,9.0,1.558
-2.0,-1.0,1.559
-10.0,-5.0,1.56
-10.0,-3.0,1.561
-8.0,0.0,1.562
-4.0,-1.0,1.563
0.0,0.0,1.564
3.0,3.0,1.565
5.0,7.0,1.566
3.0,5.0,1.567
2.0,0.0,1.568
2.0,-2.0,1.569
3.0,-4.0,1.57
3.0,-7.0,1.571
1.0,-8.0,1.572
-3.0,-7.0,1.573
-8.0,-6.0,1.574
-13.0,-7.0,1.575
-17.0,-7.0,1.576
-18.0,-3.0,1.577
-17.0,-3.0,1.578
-12.0,-6.0,1.579
-9.0,-9.0,1.58
-9.0,-13.0,1.581
-9.0,-12.0,1.582
-4.0,-8.0,1.583
4.0,-6.0,1.584
9.0,-4.0,1.585
8.0,-1.0,1.586
8.0,1.0,1.587
13.0,3.0,1.588
14.0,4.0,1.589
9.0,3.0,1.59
5.0,3.0,1.591
6.0,3.0,1.592
7.0,2.0,1.593
3.0,1.0,1.594
1.0,-1.0,1.595
6.0,0.0,1.596
8.0,4.0,1.597
1.0,5.0,1.598
-6.0,3.0,1.599
-9.0,1.0,1.6
-8.0,-3.0,1.601
-7.0,-5.0,1.602
-1.0,-5.0,1.603
12.0,-5.0,1.604
22.0,0.0,1.605
22.0,8.0,1.606
20.0,11.0,1.607
19.0,7.0,1.608
15.0,3.0,1.609
6.0,0.0,1.61
-1.0,-1.0,1.611
1.0,-6.0,1.612
5.0,-9.0,1.613
1.0,-10.0,1.614
-8.0,-7.0,1.615
-18.0,-2.0,1.616
-20.0,1.0,1.617
-16.0,-5.0,1.618
-10.0,-11.0,1.619
-10.0,-12.0,1.62
-15.0,-8.0,1.621
-16.0,-4.0,1.622
-8.0,-5.0,1.623
1.0,-6.0,1.624
-1.0,1.0,1.625
-3.0,12.0,1.626
9.0,13.0,1.627
31.0,8.0,1.628
40.0,7.0,1.629
37.0,12.0,1.63
37.0,14.0,1.631
45.0,10.0,1.632
42.0,6.0,1.633
23.0,9.0,1.634
0.0,9.0,1.635
-6.0,3.0,1.636
-1.0,-3.0,1.637
-1.0,-7.0,1.638
-6.0,-7.0,1.639
-18.0,-8.0,1.64
-28.0,-12.0,1.641
-32.0,-11.0,1.642
-24.0,-8.0,1.643
-6.0,-5.0,1.644
8.0,0.0,1.645
5.0,3.0,1.646
0.0,3.0,1.647
0.0,0.0,1.648
0.0,-2.0,1.649
-5.0,-1.0,1.65
-11.0,-3.0,1.651
-8.0,-8.0,1.652
4.0,-9.0,1.653
10.0,-6.0,1.654
6.0,-4.0,1.655
1.0,-6.0,1.656
11.0,-4.0,1.657
-3.0,-17.0,1.658
-3.0,-15.0,1.659
-5.0,-15.0,1.66
-11.0,-21.0,1.661
-14.0,-25.0,1.662
-10.0,-19.0,1.663
-4.0,-13.0,1.664
4.0,-7.0,1.665
9.0,-4.0,1.666
15.0,-4.0,1.667
19.0,-3.0,1.668
22.0,0.0,1.669
23.0,3.0,1.67
20.0,6.0,1.671
16.0,9.0,1.672
13.0,9.0,1.673
11.0,6.0,1.674
14.0,-4.0,1.675
15.0,-12.0,1.676
9.0,-15.0,1.677
-18.0,-20.0,1.678
-19.0,-18.0,1.679
-23.0,-18.0,1.68
-37.0,-26.0,1.681
-45.0,-30.0,1.682
-34.0,-23.0,1.683
-20.0,-15.0,1.684
-2.0,-8.0,1.685
14.0,-3.0,1.686
26.0,-3.0,1.687
37.0,-1.0,1.688
43.0,2.0,1.689
47.0,6.0,1.69
38.0,10.0,1.691
29.0,14.0,1.692
22.0,14.0,1.693
18.0,10.0,1.694
25.0,-3.0,1.695
27.0,-14.0,1.696
12.0,-18.0,1.697
-4.0,-21.0,1.698
-20.0,-23.0,1.699
-18.0,-23.0,1.7
-11.0,-21.0,1.701
-7.0,-14.0,1.702
-2.0,-7.0,1.703
14.0,0.0,1.704
27.0,4.0,1.705
23.0,6.0,1.706
7.0,4.0,1.707
-2.0,5.0,1.708
1.0,9.0,1.709
10.0,11.0,1.71
12.0,10.0,1.711
5.0,9.0,1.712
-2.0,12.0,1.713
-1.0,17.0,1.714
3.0,19.0,1.715
2.0,17.0,1.716
-6.0,17.0,1.717
-17.0,15.0,1.718
-20.0,11.0,1.719
-21.0,4.0,1.72
-21.0,-4.0,1.721
-18.0,-4.0,1.722
-3.0,0.0,1.723
13.0,4.0,1.724
15.0,7.0,1.725
7.0,9.0,1.726
4.0,8.0,1.727
14.0,5.0,1.728
21.0,7.0,1.729
15.0,12.0,1.73
0.0,14.0,1.731
-7.0,7.0,1.732
-6.0,0.0,1.733
-7.0,-2.0,1.734
-16.0,-5.0,1.735
-21.0,-15.0,1.736
-16.0,-23.0,1.737
-12.0,-22.0,1.738
-18.0,-12.0,1.739
-28.0,-5.0,1.74
-22.0,-5.0,1.741
3.0,-3.0,1.742
28.0,3.0,1.743
40.0,9.0,1.744
40.0,11.0,1.745
39.0,10.0,1.746
35.0,5.0,1.747
24.0,-4.0,1.748
10.0,-13.0,1.749
0.0,-15.0,1.75
-4.0,-12.0,1.751
-4.0,-12.0,1.752
-7.0,-14.0,1.753
-12.0,-15.0,1.754
-13.0,-13.0,1.755
-13.0,-10.0,1.756
-12.0,-4.0,1.757
-13.0,-1.0,1.758
-11.0,-2.0,1.759
-3.0,-7.0,1.76
9.0,-9.0,1.761
19.0,-1.0,1.762
20.0,9.0,1.763
18.0,10.0,1.764
15.0,5.0,1.765
17.0,4.0,1.766
20.0,11.0,1.767
20.0,19.0,1.768
13.0,19.0,1.769
9.0,12.0,1.77
9.0,5.0,1.771
10.0,2.0,1.772
4.0,2.0,1.773
-4.0,1.0,1.774
-10.0,-1.0,1.775
-13.0,-5.0,1.776
-14.0,-6.0,1.777
-14.0,-9.0,1.778
-15.0,-8.0,1.779
-16.0,-6.0,1.78
-17.0,-8.0,1.781
-16.0,-10.0,1.782
-7.0,-12.0,1.783
5.0,-14.0,1.784
11.0,-14.0,1.785
5.0,-13.0,1.786
0.0,-12.0,1.787
2.0,-10.0,1.788
8.0,-5.0,1.789
5.0,1.0,1.79
-4.0,3.0,1.791
-13.0,3.0,1.792
-20.0,7.0,1.793
-29.0,12.0,1.794
-35.0,13.0,1.795
-30.0,11.0,1.796
-19.0,11.0,1.797
-10.0,9.0,1.798
0.0,9.0,1.799
21.0,8.0,1.8
51.0,5.0,1.801
68.0,8.0,1.802
63.0,10.0,1.803
47.0,7.0,1.804
36.0,1.0,1.805
29.0,-1.0,1.806
22.0,0.0,1.807
13.0,0.0,1.808
2.0,0.0,1.809
-7.0,-2.0,1.81
-9.0,-4.0,1.811
-6.0,-4.0,1.812
-4.0,-7.0,1.813
-7.0,-11.0,1.814
-13.0,-13.0,1.815
-14.0,-12.0,1.816
-11.0,-10.0,1.817
-11.0,-9.0,1.818
-12.0,-5.0,1.819
-11.0,-1.0,1.82
-6.0,-7.0,1.821
-2.0,-9.0,1.822
5.0,-5.0,1.823
16.0,3.0,1.824
20.0,6.0,1.825
15.0,2.0,1.826
8.0,-1.0,1.827
9.0,-2.0,1.828
12.0,-1.0,1.829
9.0,-1.0,1.83
2.0,0.0,1.831
0.0,1.0,1.832
0.0,0.0,1.833
-2.0,0.0,1.834
-5.0,0.0,1.835
-5.0,3.0,1.836
-3.0,6.0,1.837
-7.0,4.0,1.838
-11.0,5.0,1.839
-10.0,7.0,1.84
-5.0,6.0,1.841
-1.0,5.0,1.842
4.0,5.0,1.843
13.0,6.0,1.844
20.0,9.0,1.845
20.0,10.0,1.846
18.0,7.0,1.847
16.0,0.0,1.848
13.0,-7.0,1.849
10.0,-11.0,1.85
6.0,-14.0,1.851
3.0,-15.0,1.852
0.0,-12.0,1.853
-2.0,-7.0,1.854
-2.0,-3.0,1.855
-1.0,-2.0,1.856
-2.0,-1.0,1.857
-6.0,-1.0,1.858
-11.0,0.0,1.859
-18.0,0.0,1.86
-22.0,-3.0,1.861
-17.0,0.0,1.862
-4.0,3.0,1.863
12.0,9.0,1.864
21.0,11.0,1.865
23.0,12.0,1.866
23.0,9.0,1.867
16.0,5.0,1.868
4.0,1.0,1.869
-1.0,3.0,1.87
3.0,5.0,1.871
9.0,1.0,1.872
6.0,-5.0,1.873
1.0,-8.0,1.874
0.0,-7.0,1.875
0.0,-6.0,1.876
-4.0,-4.0,1.877
-8.0,-6.0,1.878
-8.0,-6.0,1.879
-8.0,-6.0,1.88
-13.0,-7.0,1.881
-13.0,-5.0,1.882
-4.0,-3.0,1.883
8.0,0.0,1.884
10.0,2.0,1.885
2.0,3.0,1.886
0.0,0.0,1.887
6.0,-3.0,1.888
10.0,-5.0,1.889
9.0,-4.0,1.89
7.0,-7.0,1.891
5.0,-8.0,1.892
3.0,-9.0,1.893
0.0,-7.0,1.894
2.0,-5.0,1.895
4.0,-5.0,1.896
3.0,-1.0,1.897
-1.0,0.0,1.898
0.0,0.0,1.899
5.0,-1.0,1.9
6.0,-3.0,1.901
5.0,-1.0,1.902
9.0,-1.0,1.903
13.0,-5.0,1.904
13.0,-5.0,1.905
10.0,-1.0,1.906
10.0,4.0,1.907
12.0,6.0,1.908
11.0,8.0,1.909
8.0,8.0,1.91
9.0,8.0,1.911
9.0,7.0,1.912
4.0,8.0,1.913
-1.0,8.0,1.914
-2.0,10.0,1.915
-3.0,10.0,1.916
-6.0,11.0,1.917
-10.0,7.0,1.918
-11.0,2.0,1.919
-12.0,-5.0,1.92
-17.0,-10.0,1.921
-20.0,-11.0,1.922
-15.0,-8.0,1.923
-4.0,-4.0,1.924
3.0,0.0,1.925
8.0,1.0,1.926
15.0,0.0,1.927
22.0,1.0,1.928
26.0,5.0,1.929
24.0,8.0,1.93
21.0,7.0,1.931
23.0,8.0,1.932
27.0,11.0,1.933
23.0,12.0,1.934
11.0,5.0,1.935
-3.0,-2.0,1.936
-8.0,-2.0,1.937
-10.0,0.0,1.938
-11.0,2.0,1.939
-16.0,2.0,1.94
-21.0,1.0,1.941
-25.0,0.0,1.942
-25.0,-1.0,1.943
-19.0,-2.0,1.944
-12.0,-4.0,1.945
-6.0,-7.0,1.946
-4.0,-13.0,1.947
-2.0,-17.0,1.948
0.0,-15.0,1.949
-3.0,-13.0,1.95
-9.0,-12.0,1.951
-8.0,-13.0,1.952
3.0,-13.0,1.953
17.0,-9.0,1.954
18.0,-3.0,1.955
7.0,4.0,1.956
-3.0,10.0,1.957
-8.0,8.0,1.958
-4.0,6.0,1.959
0.0,2.0,1.96
6.0,-2.0,1.961
19.0,-3.0,1.962
38.0,3.0,1.963
54.0,12.0,1.964
54.0,13.0,1.965
36.0,4.0,1.966
14.0,-3.0,1.967
-5.0,-2.0,1.968
-16.0,5.0,1.969
-21.0,6.0,1.97
-18.0,-1.0,1.971
-7.0,-8.0,1.972
4.0,-10.0,1.973
10.0,-8.0,1.974
11.0,-4.0,1.975
6.0,-7.0,1.976
-1.0,-10.0,1.977
-13.0,-15.0,1.978
-17.0,-12.0,1.979
-14.0,-7.0,1.98
-5.0,-5.0,1.981
0.0,-4.0,1.982
2.0,1.0,1.983
7.0,8.0,1.984
7.0,12.0,1.985
6.0,10.0,1.986
3.0,7.0,1.987
7.0,6.0,1.988
7.0,5.0,1.989
-1.0,0.0,1.99
-9.0,-3.0,1.991
-13.0,-4.0,1.992
-13.0,-3.0,1.993
-11.0,-5.0,1.994
-10.0,-4.0,1.995
-10.0,-2.0,1.996
-13.0,-1.0,1.997
-15.0,-1.0,1.998
-11.0,-2.0,1.999
-4.0,-4.0,2.0
-1.0,-11.0,2.001
0.0,-18.0,2.002
9.0,-19.0,2.003
21.0,-16.0,2.004
22.0,-11.0,2.005
18.0,-7.0,2.006
18.0,-4.0,2.007
22.0,0.0,2.008
18.0,4.0,2.009
7.0,6.0,2.01
7.0,5.0,2.011
19.0,5.0,2.012
26.0,9.0,2.013
18.0,13.0,2.014
5.0,16.0,2.015
2.0,13.0,2.016
6.0,12.0,2.017
8.0,10.0,2.018
5.0,11.0,2.019
1.0,10.0,2.02
0.0,8.0,2.021
0.0,8.0,2.022
4.0,5.0,2.023
11.0,2.0,2.024
12.0,3.0,2.025
6.0,6.0,2.026
3.0,7.0,2.027
4.0,2.0,2.028
5.0,0.0,2.029
5.0,0.0,2.03
5.0,-4.0,2.031
8.0,-10.0,2.032
1.0,-12.0,2.033
-10.0,-7.0,2.034
-17.0,-3.0,2.035
-10.0,-3.0,2.036
-4.0,-3.0,2.037
-6.0,-2.0,2.038
-8.0,1.0,2.039
-4.0,1.0,2.04
-1.0,-3.0,2.041
-8.0,-2.0,2.042
-15.0,-1.0,2.043
-7.0,0.0,2.044
6.0,1.0,2.045
10.0,4.0,2.046
6.0,4.0,2.047
8.0,0.0,2.048
8.0,-4.0,2.049
5.0,-1.0,2.05
-4.0,2.0,2.051
-6.0,1.0,2.052
-5.0,-4.0,2.053
-5.0,-4.0,2.054
-7.0,-1.0,2.055
-8.0,-2.0,2.056
-6.0,-5.0,2.057
-6.0,-7.0,2.058
-4.0,-6.0,2.059
-3.0,-5.0,2.06
-3.0,-10.0,2.061
-3.0,-12.0,2.062
2.0,-10.0,2.063
11.0,-4.0,2.064
15.0,0.0,2.065
12.0,2.0,2.066
11.0,2.0,2.067
14.0,3.0,2.068
17.0,6.0,2.069
12.0,8.0,2.07
7.0,6.0,2.071
6.0,2.0,2.072
10.0,1.0,2.073
9.0,1.0,2.074
3.0,3.0,2.075
-1.0,2.0,2.076
1.0,2.0,2.077
5.0,0.0,2.078
4.0,0.0,2.079
-3.0,-1.0,2.08
-8.0,-3.0,2.081
-4.0,-3.0,2.082
7.0,-2.0,2.083
15.0,0.0,2.084
14.0,2.0,2.085
10.0,4.0,2.086
10.0,2.0,2.087
14.0,0.0,2.088
17.0,0.0,2.089
15.0,-1.0,2.09
9.0,-1.0,2.091
7.0,0.0,2.092
7.0,1.0,2.093
6.0,2.0,2.094
0.0,0.0,2.095
-6.0,-1.0,2.096
-8.0,-1.0,2.097
-9.0,0.0,2.098
-7.0,1.0,2.099
-8.0,0.0,2.1
-8.0,-2.0,2.101
-6.0,-2.0,2.102
0.0,-2.0,2.103
9.0,-1.0,2.104
12.0,-1.0,2.105
8.0,-1.0,2.106
3.0,-5.0,2.107
3.0,-10.0,2.108
4.0,-10.0,2.109
2.0,-7.0,2.11
-1.0,-6.0,2.111
-2.0,-6.0,2.112
-1.0,-6.0,2.113
-3.0,-3.0,2.114
-6.0,-1.0,2.115
-9.0,-3.0,2.116
-8.0,-2.0,2.117
-5.0,0.0,2.118
-4.0,1.0,2.119
-5.0,-1.0,2.12
-5.0,-5.0,2.121
0.0,-5.0,2.122
10.0,-5.0,2.123
19.0,-3.0,2.124
21.0,4.0,2.125
17.0,12.0,2.126
13.0,13.0,2.127
14.0,11.0,2.128
16.0,7.0,2.129
14.0,7.0,2.13
9.0,3.0,2.131
4.0,-2.0,2.132
0.0,-2.0,2.133
-4.0,0.0,2.134
-6.0,0.0,2.135
-6.0,-5.0,2.136
-5.0,-7.0,2.137
-5.0,-9.0,2.138
-5.0,-9.0,2.139
-5.0,-8.0,2.14
-8.0,-10.0,2.141
-9.0,-9.0,2.142
-3.0,-7.0,2.143
5.0,-4.0,2.144
7.0,-2.0,2.145
5.0,-3.0,2.146
6.0,-3.0,2.147
11.0,-1.0,2.148
14.0,2.0,2.149
7.0,3.0,2.15
1.0,2.0,2.151
-1.0,4.0,2.152
-3.0,10.0,2.153
-5.0,12.0,2.154
-5.0,10.0,2.155
-4.0,8.0,2.156
-4.0,7.0,2.157
-8.0,7.0,2.158
-6.0,7.0,2.159
-1.0,6.0,2.16
3.0,0.0,2.161
7.0,-5.0,2.162
15.0,-4.0,2.163
20.0,3.0,2.164
17.0,16.0,2.165
9.0,23.0,2.166
9.0,21.0,2.167
14.0,12.0,2.168
12.0,4.0,2.169
-1.0,0.0,2.17
-9.0,-3.0,2.171
-7.0,-7.0,2.172
-3.0,-7.0,2.173
-4.0,-5.0,2.174
-4.0,-5.0,2.175
-1.0,-5.0,2.176
2.0,-3.0,2.177
-1.0,-3.0,2.178
-7.0,-3.0,2.179
-13.0,-2.0,2.18
-14.0,-5.0,2.181
-10.0,-6.0,2.182
1.0,-7.0,2.183
15.0,-7.0,2.184
18.0,-4.0,2.185
14.0,-2.0,2.186
12.0,-2.0,2.187
16.0,-4.0,2.188
16.0,-3.0,2.189
12.0,-1.0,2.19
8.0,-1.0,2.191
7.0,-4.0,2.192
5.0,-6.0,2.193
2.0,-7.0,2.194
1.0,-8.0,2.195
0.0,-10.0,2.196
0.0,-8.0,2.197
-1.0,-9.0,2.198
-2.0,-9.0,2.199
-5.0,-11.0,2.2
-10.0,-14.0,2.201
-7.0,-10.0,2.202
8.0,-5.0,2.203
20.0,2.0,2.204
20.0,7.0,2.205
15.0,9.0,2.206
15.0,9.0,2.207
17.0,7.0,2.208
14.0,4.0,2.209
8.0,3.0,2.21
6.0,4.0,2.211
3.0,4.0,2.212
-4.0,1.0,2.213
-13.0,-3.0,2.214
-15.0,-4.0,2.215
-14.0,-2.0,2.216
-15.0,1.0,2.217
-16.0,1.0,2.218
-14.0,0.0,2.219
-12.0,0.0,2.22
-13.0,0.0,2.221
-10.0,4.0,2.222
3.0,8.0,2.223
17.0,9.0,2.224
18.0,9.0,2.225
9.0,6.0,2.226
4.0,3.0,2.227
8.0,3.0,2.228
11.0,1.0,2.229
2.0,-1.0,2.23
-6.0,-3.0,2.231
-8.0,-5.0,2.232
-5.0,-7.0,2.233
-3.0,-7.0,2.234
-5.0,-4.0,2.235
-4.0,1.0,2.236
0.0,7.0,2.237
6.0,6.0,2.238
14.0,3.0,2.239
15.0,2.0,2.24
11.0,0.0,2.241
7.0,2.0,2.242
11.0,6.0,2.243
21.0,9.0,2.244
24.0,8.0,2.245
19.0,6.0,2.246
13.0,3.0,2.247
14.0,2.0,2.248
14.0,0.0,2.249
7.0,-1.0,2.25
0.0,-1.0,2.251
-2.0,0.0,2.252
-5.0,2.0,2.253
-10.0,2.0,2.254
-13.0,-3.0,2.255
-10.0,-9.0,2.256
-6.0,-11.0,2.257
-8.0,-11.0,2.258
-7.0,-6.0,2.259
-5.0,-3.0,2.26
-4.0,-4.0,2.261
-5.0,-3.0,2.262
-1.0,-2.0,2.263
9.0,0.0,2.264
16.0,1.0,2.265
17.0,1.0,2.266
14.0,-2.0,2.267
10.0,-8.0,2.268
4.0,-11.0,2.269
-4.0,-10.0,2.27
-4.0,-8.0,2.271
-2.0,-10.0,2.272
-3.0,-12.0,2.273
-6.0,-9.0,2.274
-8.0,-5.0,2.275
-5.0,-2.0,2.276
-3.0,1.0,2.277
-4.0,0.0,2.278
2.0,0.0,2.279
13.0,0.0,2.28
16.0,-3.0,2.281
13.0,0.0,2.282
20.0,4.0,2.283
30.0,7.0,2.284
29.0,10.0,2.285
14.0,13.0,2.286
4.0,13.0,2.287
9.0,7.0,2.288
11.0,1.0,2.289
-1.0,0.0,2.29
-15.0,0.0,2.291
-17.0,-4.0,2.292
-18.0,-8.0,2.293
-21.0,-9.0,2.294
-23.0,-8.0,2.295
-19.0,-10.0,2.296
-15.0,-7.0,2.297
-17.0,1.0,2.298
-16.0,9.0,2.299
-10.0,12.0,2.3
-3.0,6.0,2.301
0.0,3.0,2.302
7.0,5.0,2.303
18.0,7.0,2.304
20.0,5.0,2.305
13.0,2.0,2.306
11.0,-3.0,2.307
21.0,-6.0,2.308
32.0,-7.0,2.309
29.0,-7.0,2.31
21.0,-7.0,2.311
15.0,-9.0,2.312
9.0,-10.0,2.313
-2.0,-9.0,2.314
-11.0,-7.0,2.315
-9.0,-7.0,2.316
-1.0,-7.0,2.317
0.0,-4.0,2.318
-4.0,1.0,2.319
-5.0,7.0,2.32
-1.0,8.0,2.321
3.0,13.0,2.322
7.0,15.0,2.323
10.0,14.0,2.324
8.0,11.0,2.325
2.0,11.0,2.326
1.0,8.0,2.327
8.0,3.0,2.328
13.0,3.0,2.329
10.0,7.0,2.33
3.0,8.0,2.331
-1.0,1.0,2.332
-4.0,-6.0,2.333
-7.0,-7.0,2.334
-10.0,-6.0,2.335
-11.0,-6.0,2.336
-11.0,-5.0,2.337
-14.0,-4.0,2.338
-14.0,0.0,2.339
-12.0,-2.0,2.34
-13.0,-9.0,2.341
-16.0,-11.0,2.342
-12.0,-7.0,2.343
0.0,-3.0,2.344
9.0,-4.0,2.345
11.0,-9.0,2.346
12.0,-10.0,2.347
17.0,-9.0,2.348
16.0,-5.0,2.349
9.0,3.0,2.35
-1.0,11.0,2.351
-7.0,11.0,2.352
-9.0,7.0,2.353
-8.0,7.0,2.354
-5.0,12.0,2.355
-3.0,14.0,2.356
-3.0,12.0,2.357
-4.0,8.0,2.358
0.0,5.0,2.359
1.0,5.0,2.36
-1.0,1.0,2.361
-3.0,0.0,2.362
3.0,1.0,2.363
18.0,0.0,2.364
24.0,1.0,2.365
22.0,1.0,2.366
19.0,0.0,2.367
21.0,-3.0,2.368
24.0,-8.0,2.369
21.0,-8.0,2.37
17.0,-8.0,2.371
16.0,-10.0,2.372
13.0,-14.0,2.373
6.0,-13.0,2.374
0.0,-8.0,2.375
-1.0,-7.0,2.376
1.0,-7.0,2.377
4.0,-8.0,2.378
4.0,-7.0,2.379
2.0,-7.0,2.38
0.0,-9.0,2.381
-1.0,-10.0,2.382
1.0,-8.0,2.383
5.0,-7.0,2.384
6.0,-6.0,2.385
4.0,-3.0,2.386
2.0,-1.0,2.387
1.0,1.0,2.388
0.0,4.0,2.389
-1.0,5.0,2.39
-2.0,5.0,2.391
-2.0,3.0,2.392
-3.0,4.0,2.393
-5.0,8.0,2.394
-4.0,10.0,2.395
-3.0,7.0,2.396
-4.0,3.0,2.397
-7.0,-1.0,2.398
-5.0,0.0,2.399
-3.0,4.0,2.4
-3.0,3.0,2.401
-5.0,2.0,2.402
0.0,3.0,2.403
7.0,8.0,2.404
10.0,11.0,2.405
4.0,9.0,2.406
2.0,5.0,2.407
7.0,3.0,2.408
11.0,3.0,2.409
10.0,1.0,2.41
4.0,-2.0,2.411
1.0,-6.0,2.412
-3.0,-8.0,2.413
-8.0,-10.0,2.414
-9.0,-11.0,2.415
-5.0,-8.0,2.416
-2.0,-2.0,2.417
-1.0,0.0,2.418
1.0,3.0,2.419
3.0,4.0,2.42
2.0,2.0,2.421
2.0,1.0,2.422
8.0,1.0,2.423
18.0,4.0,2.424
20.0,6.0,2.425
14.0,5.0,2.426
10.0,0.0,2.427
15.0,-3.0,2.428
18.0,-3.0,2.429
12.0,-2.0,2.43
3.0,-2.0,2.431
1.0,-4.0,2.432
-2.0,-8.0,2.433
-6.0,-9.0,2.434
-11.0,-10.0,2.435
-12.0,-9.0,2.436
-11.0,-6.0,2.437
-13.0,-9.0,2.438
-10.0,-10.0,2.439
-5.0,-7.0,2.44
-1.0,-1.0,2.441
2.0,5.0,2.442
9.0,5.0,2.443
20.0,3.0,2.444
25.0,7.0,2.445
22.0,13.0,2.446
16.0,13.0,2.447
8.0,8.0,2.448
1.0,3.0,2.449
-1.0,1.0,2.45
0.0,0.0,2.451
2.0,-4.0,2.452
-1.0,-5.0,2.453
-7.0,-5.0,2.454
-9.0,-5.0,2.455
-9.0,-7.0,2.456
-9.0,-7.0,2.457
-10.0,-6.0,2.458
-6.0,-3.0,2.459
-3.0,-3.0,2.46
-3.0,-7.0,2.461
-5.0,-8.0,2.462
0.0,-7.0,2.463
9.0,-2.0,2.464
13.0,6.0,2.465
10.0,10.0,2.466
7.0,9.0,2.467
9.0,6.0,2.468
10.0,7.0,2.469
4.0,8.0,2.47
-3.0,4.0,2.471
-7.0,-2.0,2.472
-8.0,-6.0,2.473
-9.0,-6.0,2.474
-10.0,-5.0,2.475
-10.0,-4.0,2.476
-8.0,-1.0,2.477
-7.0,2.0,2.478
-5.0,3.0,2.479
-3.0,0.0,2.48
0.0,-5.0,2.481
7.0,-5.0,2.482
14.0,-1.0,2.483
22.0,4.0,2.484
25.0,8.0,2.485
23.0,10.0,2.486
21.0,6.0,2.487
23.0,0.0,2.488
21.0,-3.0,2.489
13.0,0.0,2.49
3.0,3.0,2.491
0.0,4.0,2.492
-1.0,3.0,2.493
-6.0,1.0,2.494
-13.0,-2.0,2.495
-13.0,-5.0,2.496
-4.0,-5.0,2.497
3.0,-4.0,2.498
3.0,-4.0,2.499
-4.0,-4.0,2.5
-8.0,-6.0,2.501
-6.0,-6.0,2.502
2.0,-6.0,2.503
11.0,-5.0,2.504
13.0,0.0,2.505
9.0,6.0,2.506
6.0,6.0,2.507
6.0,0.0,2.508
3.0,-6.0,2.509
-3.0,-5.0,2.51
-7.0,-2.0,2.511
-8.0,0.0,2.512
-7.0,0.0,2.513
-6.0,1.0,2.514
-4.0,0.0,2.515
-4.0,-3.0,2.516
-3.0,-1.0,2.517
-3.0,3.0,2.518
2.0,5.0,2.519
9.0,4.0,2.52
9.0,-1.0,2.521
2.0,-3.0,2.522
0.0,1.0,2.523
6.0,7.0,2.524
12.0,9.0,2.525
9.0,7.0,2.526
0.0,3.0,2.527
-1.0,1.0,2.528
4.0,-3.0,2.529
4.0,-12.0,2.53
1.0,-19.0,2.531
2.0,-20.0,2.532
5.0,-14.0,2.533
3.0,-9.0,2.534
-3.0,-8.0,2.535
-9.0,-8.0,2.536
-9.0,-5.0,2.537
-6.0,-4.0,2.538
-5.0,-3.0,2.539
-7.0,-2.0,2.54
-7.0,-6.0,2.541
-5.0,-9.0,2.542
2.0,-9.0,2.543
15.0,-7.0,2.544
23.0,-4.0,2.545
23.0,0.0,2.546
22.0,3.0,2.547
22.0,5.0,2.548
22.0,5.0,2.549
16.0,6.0,2.55
9.0,5.0,2.551
6.0,2.0,2.552
7.0,0.0,2.553
5.0,2.0,2.554
1.0,8.0,2.555
1.0,11.0,2.556
2.0,11.0,2.557
2.0,8.0,2.558
0.0,8.0,2.559
-1.0,8.0,2.56
-4.0,3.0,2.561
-5.0,2.0,2.562
-2.0,5.0,2.563
4.0,8.0,2.564
2.0,6.0,2.565
-4.0,3.0,2.566
-7.0,4.0,2.567
-3.0,5.0,2.568
4.0,2.0,2.569
2.0,0.0,2.57
-2.0,4.0,2.571
-5.0,6.0,2.572
-7.0,7.0,2.573
-7.0,6.0,2.574
-7.0,5.0,2.575
-9.0,0.0,2.576
-11.0,-3.0,2.577
-12.0,-5.0,2.578
-9.0,-1.0,2.579
-6.0,0.0,2.58
-7.0,-3.0,2.581
-4.0,-3.0,2.582
7.0,0.0,2.583
19.0,0.0,2.584
22.0,-5.0,2.585
19.0,-8.0,2.586
17.0,-6.0,2.587
16.0,-6.0,2.588
13.0,-8.0,2.589
6.0,-6.0,2.59
0.0,-3.0,2.591
0.0,-2.0,2.592
3.0,-2.0,2.593
3.0,0.0,2.594
-2.0,4.0,2.595
-6.0,5.0,2.596
-7.0,6.0,2.597
-8.0,7.0,2.598
-7.0,6.0,2.599
-7.0,2.0,2.6
-4.0,-4.0,2.601
-1.0,-6.0,2.602
6.0,-6.0,2.603
12.0,-8.0,2.604
13.0,-8.0,2.605
9.0,-6.0,2.606
4.0,-4.0,2.607
6.0,-4.0,2.608
7.0,-5.0,2.609
2.0,-3.0,2.61
-4.0,-1.0,2.611
-5.0,-2.0,2.612
-5.0,-5.0,2.613
-6.0,-8.0,2.614
-9.0,-9.0,2.615
-9.0,-9.0,2.616
-4.0,-5.0,2.617
-3.0,-2.0,2.618
-3.0,-2.0,2.619
-2.0,-4.0,2.62
-2.0,-7.0,2.621
2.0,-5.0,2.622
10.0,0.0,2.623
16.0,6.0,2.624
17.0,10.0,2.625
13.0,12.0,2.626
11.0,11.0,2.627
11.0,9.0,2.628
7.0,7.0,2.629
-2.0,6.0,2.63
-6.0,5.0,2.631
-3.0,0.0,2.632
-2.0,-4.0,2.633
-3.0,-4.0,2.634
-4.0,-2.0,2.635
-3.0,-1.0,2.636
0.0,1.0,2.637
0.0,1.0,2.638
-1.0,1.0,2.639
1.0,1.0,2.64
5.0,0.0,2.641
7.0,-1.0,2.642
12.0,-1.0,2.643
18.0,-2.0,2.644
20.0,0.0,2.645
14.0,3.0,2.646
10.0,2.0,2.647
12.0,-2.0,2.648
13.0,-2.0,2.649
9.0,-1.0,2.65
2.0,-2.0,2.651
5.0,-7.0,2.652
8.0,-8.0,2.653
4.0,-4.0,2.654
-3.0,-3.0,2.655
-5.0,-3.0,2.656
-2.0,-3.0,2.657
-4.0,-5.0,2.658
-8.0,-7.0,2.659
-11.0,-7.0,2.66
-9.0,-8.0,2.661
-4.0,-5.0,2.662
-1.0,-5.0,2.663
1.0,-5.0,2.664
0.0,-2.0,2.665
-4.0,2.0,2.666
-5.0,3.0,2.667
-2.0,5.0,2.668
-2.0,12.0,2.669
-5.0,20.0,2.67
-3.0,24.0,2.671
5.0,21.0,2.672
14.0,20.0,2.673
14.0,17.0,2.674
10.0,10.0,2.675
10.0,3.0,2.676
11.0,0.0,2.677
10.0,-2.0,2.678
5.0,-9.0,2.679
1.0,-16.0,2.68
-1.0,-19.0,2.681
1.0,-15.0,2.682
7.0,-11.0,2.683
16.0,-7.0,2.684
20.0,-4.0,2.685
16.0,-3.0,2.686
10.0,-5.0,2.687
8.0,-7.0,2.688
8.0,-5.0,2.689
2.0,-2.0,2.69
-2.0,-4.0,2.691
-4.0,-6.0,2.692
-3.0,-5.0,2.693
-4.0,-4.0,2.694
-4.0,-5.0,2.695
-1.0,-6.0,2.696
1.0,-3.0,2.697
1.0,0.0,2.698
0.0,0.0,2.699
0.0,-4.0,2.7
2.0,-6.0,2.701
3.0,-4.0,2.702
5.0,1.0,2.703
11.0,2.0,2.704
13.0,3.0,2.705
11.0,3.0,2.706
8.0,1.0,2.707
6.0,-1.0,2.708
6.0,-1.0,2.709
4.0,5.0,2.71
1.0,9.0,2.711
-2.0,8.0,2.712
-3.0,5.0,2.713
-5.0,8.0,2.714
-6.0,13.0,2.715
-5.0,13.0,2.716
-5.0,10.0,2.717
-4.0,2.0,2.718
-3.0,-1.0,2.719
-3.0,-2.0,2.72
-2.0,-4.0,2.721
2.0,-3.0,2.722
12.0,-2.0,2.723
19.0,0.0,2.724
19.0,0.0,2.725
13.0,3.0,2.726
9.0,4.0,2.727
8.0,0.0,2.728
6.0,-5.0,2.729
4.0,-6.0,2.73
4.0,-5.0,2.731
4.0,-4.0,2.732
-1.0,-7.0,2.733
-8.0,-10.0,2.734
-13.0,-9.0,2.735
-14.0,-9.0,2.736
-12.0,-9.0,2.737
-11.0,-12.0,2.738
-7.0,-8.0,2.739
-6.0,-3.0,2.74
-7.0,-4.0,2.741
-4.0,-5.0,2.742
4.0,-2.0,2.743
15.0,6.0,2.744
16.0,12.0,2.745
12.0,11.0,2.746
11.0,5.0,2.747
14.0,4.0,2.748
15.0,5.0,2.749
10.0,6.0,2.75
2.0,5.0,2.751
-1.0,2.0,2.752
-4.0,0.0,2.753
-7.0,0.0,2.754
-9.0,3.0,2.755
-10.0,8.0,2.756
-9.0,12.0,2.757
-9.0,10.0,2.758
-8.0,4.0,2.759
-8.0,-1.0,2.76
-8.0,-4.0,2.761
-5.0,-2.0,2.762
4.0,1.0,2.763
16.0,2.0,2.764
18.0,2.0,2.765
15.0,4.0,2.766
10.0,6.0,2.767
9.0,3.0,2.768
5.0,-3.0,2.769
-3.0,-5.0,2.77
-9.0,-5.0,2.771
-6.0,-6.0,2.772
-2.0,-7.0,2.773
-3.0,-6.0,2.774
-4.0,-6.0,2.775
-4.0,-7.0,2.776
-1.0,-8.0,2.777
0.0,-3.0,2.778
-2.0,1.0,2.779
-6.0,-2.0,2.78
-10.0,-11.0,2.781
-8.0,-11.0,2.782
3.0,0.0,2.783
22.0,9.0,2.784
31.0,10.0,2.785
29.0,11.0,2.786
23.0,14.0,2.787
20.0,12.0,2.788
16.0,4.0,2.789
7.0,-1.0,2.79
1.0,-1.0,2.791
1.0,1.0,2.792
2.0,2.0,2.793
-1.0,1.0,2.794
-3.0,0.0,2.795
-1.0,-1.0,2.796
0.0,-1.0,2.797
-1.0,-2.0,2.798
0.0,-4.0,2.799
4.0,-6.0,2.8
5.0,-10.0,2.801
6.0,-9.0,2.802
7.0,-7.0,2.803
10.0,-4.0,2.804
9.0,-4.0,2.805
4.0,-5.0,2.806
6.0,-8.0,2.807
9.0,-10.0,2.808
8.0,-11.0,2.809
3.0,-12.0,2.81
-3.0,-10.0,2.811
-7.0,-7.0,2.812
-8.0,-5.0,2.813
-8.0,-2.0,2.814
-7.0,1.0,2.815
-6.0,4.0,2.816
-4.0,7.0,2.817
-4.0,4.0,2.818
-3.0,0.0,2.819
-4.0,-2.0,2.82
-7.0,-8.0,2.821
-6.0,-8.0,2.822
0.0,-8.0,2.823
8.0,-5.0,2.824
12.0,1.0,2.825
11.0,8.0,2.826
7.0,11.0,2.827
4.0,6.0,2.828
4.0,0.0,2.829
5.0,-2.0,2.83
6.0,2.0,2.831
3.0,4.0,2.832
0.0,4.0,2.833
-1.0,3.0,2.834
2.0,3.0,2.835
6.0,2.0,2.836
6.0,2.0,2.837
5.0,0.0,2.838
6.0,-2.0,2.839
7.0,-2.0,2.84
4.0,-5.0,2.841
1.0,-4.0,2.842
3.0,-2.0,2.843
5.0,-1.0,2.844
8.0,-1.0,2.845
11.0,0.0,2.846
10.0,1.0,2.847
8.0,1.0,2.848
5.0,1.0,2.849
1.0,5.0,2.85
-2.0,6.0,2.851
-5.0,4.0,2.852
-5.0,0.0,2.853
-5.0,1.0,2.854
-7.0,5.0,2.855
-9.0,7.0,2.856
-5.0,9.0,2.857
-1.0,10.0,2.858
4.0,11.0,2.859
3.0,10.0,2.86
0.0,5.0,2.861
-1.0,2.0,2.862
4.0,3.0,2.863
15.0,4.0,2.864
18.0,4.0,2.865
14.0,1.0,2.866
10.0,-4.0,2.867
12.0,-8.0,2.868
13.0,-9.0,2.869
5.0,-6.0,2.87
-6.0,-2.0,2.871
-8.0,-2.0,2.872
-4.0,-3.0,2.873
-7.0,-4.0,2.874
-15.0,-5.0,2.875
-18.0,-5.0,2.876
-12.0,0.0,2.877
-4.0,2.0,2.878
-1.0,4.0,2.879
-2.0,4.0,2.88
-2.0,2.0,2.881
2.0,3.0,2.882
12.0,4.0,2.883
22.0,4.0,2.884
24.0,4.0,2.885
20.0,6.0,2.886
16.0,9.0,2.887
17.0,10.0,2.888
15.0,8.0,2.889
7.0,2.0,2.89
0.0,-5.0,2.891
3.0,-9.0,2.892
5.0,-7.0,2.893
3.0,-4.0,2.894
0.0,-1.0,2.895
-2.0,-2.0,2.896
-3.0,-1.0,2.897
-5.0,-3.0,2.898
-5.0,-4.0,2.899
-3.0,-7.0,2.9
-1.0,-15.0,2.901
1.0,-17.0,2.902
9.0,-12.0,2.903
18.0,-4.0,2.904
20.0,0.0,2.905
15.0,-1.0,2.906
12.0,-5.0,2.907
12.0,-9.0,2.908
7.0,-11.0,2.909
-3.0,-10.0,2.91
-7.0,-11.0,2.911
-5.0,-12.0,2.912
-5.0,-11.0,2.913
-10.0,-8.0,2.914
-14.0,-3.0,2.915
-12.0,-3.0,2.916
-11.0,-6.0,2.917
-11.0,-4.0,2.918
-11.0,2.0,2.919
-10.0,8.0,2.92
-10.0,8.0,2.921
-7.0,8.0,2.922
1.0,11.0,2.923
14.0,13.0,2.924
17.0,11.0,2.925
12.0,10.0,2.926
10.0,10.0,2.927
13.0,10.0,2.928
15.0,3.0,2.929
12.0,-5.0,2.93
7.0,-8.0,2.931
5.0,-6.0,2.932
5.0,-3.0,2.933
2.0,-3.0,2.934
-3.0,-4.0,2.935
-8.0,-6.0,2.936
-7.0,-9.0,2.937
-2.0,-10.0,2.938
0.0,-8.0,2.939
1.0,-4.0,2.94
1.0,-6.0,2.941
2.0,-5.0,2.942
6.0,2.0,2.943
13.0,10.0,2.944
15.0,11.0,2.945
11.0,11.0,2.946
6.0,12.0,2.947
2.0,11.0,2.948
1.0,9.0,2.949
-2.0,4.0,2.95
-9.0,4.0,2.951
-15.0,3.0,2.952
-18.0,-1.0,2.953
-20.0,-6.0,2.954
-20.0,-9.0,2.955
-20.0,-7.0,2.956
-18.0,-5.0,2.957
-14.0,-5.0,2.958
-5.0,-2.0,2.959
0.0,0.0,2.96
7.0,-1.0,2.961
15.0,-2.0,2.962
23.0,0.0,2.963
27.0,2.0,2.964
22.0,6.0,2.965
15.0,8.0,2.966
12.0,4.0,2.967
12.0,-2.0,2.968
13.0,-5.0,2.969
18.0,-2.0,2.97
27.0,-2.0,2.971
31.0,-6.0,2.972
22.0,-11.0,2.973
10.0,-7.0,2.974
5.0,-2.0,2.975
8.0,-2.0,2.976
10.0,-2.0,2.977
5.0,-3.0,2.978
2.0,-1.0,2.979
1.0,0.0,2.98
-1.0,-1.0,2.981
-1.0,3.0,2.982
6.0,8.0,2.983
18.0,8.0,2.984
22.0,5.0,2.985
14.0,4.0,2.986
4.0,6.0,2.987
3.0,6.0,2.988
1.0,3.0,2.989
-11.0,4.0,2.99
-27.0,5.0,2.991
-41.0,0.0,2.992
-51.0,-8.0,2.993
-57.0,-12.0,2.994
-50.0,-12.0,2.995
-29.0,-14.0,2.996
-2.0,-18.0,2.997
28.0,-21.0,2.998
59.0,-13.0,2.999
77.0,-4.0,3.0
72.0,2.0,3.001
50.0,10.0,3.002
33.0,18.0,3.003
30.0,22.0,3.004
30.0,20.0,3.005
21.0,18.0,3.006
10.0,17.0,3.007
10.0,12.0,3.008
15.0,6.0,3.009
16.0,2.0,3.01
12.0,5.0,3.011
5.0,6.0,3.012
-9.0,2.0,3.013
-33.0,-3.0,3.014
-47.0,-5.0,3.015
-45.0,-3.0,3.016
-36.0,0.0,3.017
-37.0,0.0,3.018
-42.0,-2.0,3.019
-37.0,-10.0,3.02
-20.0,-22.0,3.021
-8.0,-22.0,3.022
-16.0,-10.0,3.023
-32.0,-2.0,3.024
-46.0,-2.0,3.025
-51.0,-7.0,3.026
-52.0,-7.0,3.027
-42.0,-2.0,3.028
-7.0,1.0,3.029
44.0,-3.0,3.03
86.0,-8.0,3.031
97.0,-8.0,3.032
92.0,-4.0,3.033
91.0,4.0,3.034
82.0,13.0,3.035
47.0,18.0,3.036
3.0,16.0,3.037
-15.0,4.0,3.038
-3.0,-5.0,3.039
6.0,-12.0,3.04
2.0,-8.0,3.041
2.0,-5.0,3.042
14.0,-5.0,3.043
17.0,-3.0,3.044
-8.0,2.0,3.045
-36.0,7.0,3.046
-70.0,7.0,3.047
-98.0,6.0,3.048
-103.0,-2.0,3.049
-95.0,-8.0,3.05
-46.0,-11.0,3.051
-3.0,-14.0,3.052
22.0,-14.0,3.053
43.0,-14.0,3.054
50.0,-13.0,3.055
56.0,-9.0,3.056
59.0,4.0,3.057
57.0,17.0,3.058
30.0,28.0,3.059
9.0,29.0,3.06
2.0,19.0,3.061
7.0,10.0,3.062
13.0,-1.0,3.063
11.0,-9.0,3.064
3.0,-12.0,3.065
1.0,-10.0,3.066
13.0,-9.0,3.067
23.0,-9.0,3.068
21.0,-12.0,3.069
18.0,-12.0,3.07
29.0,-8.0,3.071
49.0,0.0,3.072
52.0,8.0,3.073
30.0,11.0,3.074
1.0,11.0,3.075
-19.0,10.0,3.076
-29.0,12.0,3.077
-37.0,13.0,3.078
-40.0,10.0,3.079
-36.0,4.0,3.08
-27.0,-1.0,3.081
-24.0,0.0,3.082
-29.0,0.0,3.083
-35.0,-2.0,3.084
-35.0,-3.0,3.085
-29.0,0.0,3.086
-23.0,0.0,3.087
-22.0,-4.0,3.088
-26.0,-7.0,3.089
-24.0,-5.0,3.09
-12.0,-3.0,3.091
7.0,-8.0,3.092
25.0,-12.0,3.093
30.0,-14.0,3.094
26.0,-15.0,3.095
23.0,-11.0,3.096
28.0,0.0,3.097
41.0,18.0,3.098
60.0,23.0,3.099
73.0,11.0,3.1
75.0,0.0,3.101
65.0,12.0,3.102
53.0,31.0,3.103
37.0,34.0,3.104
14.0,22.0,3.105
-12.0,12.0,3.106
-26.0,8.0,3.107
-25.0,-3.0,3.108
-24.0,-13.0,3.109
-33.0,-14.0,3.11
-40.0,-9.0,3.111
-36.0,-10.0,3.112
-32.0,-16.0,3.113
-34.0,-15.0,3.114
-33.0,-9.0,3.115
-23.0,-5.0,3.116
-10.0,-4.0,3.117
-8.0,-1.0,3.118
-10.0,5.0,3.119
-9.0,6.0,3.12
-5.0,-3.0,3.121
-3.0,-11.0,3.122
1.0,-13.0,3.123
12.0,-12.0,3.124
21.0,-10.0,3.125
21.0,-7.0,3.126
19.0,-1.0,3.127
24.0,5.0,3.128
33.0,13.0,3.129
34.0,22.0,3.13
22.0,28.0,3.131
9.0,20.0,3.132
0.0,7.0,3.133
-4.0,-2.0,3.134
-7.0,-5.0,3.135
-9.0,-7.0,3.136
-7.0,-9.0,3.137
-4.0,-12.0,3.138
-1.0,-13.0,3.139
-1.0,-14.0,3.14
-3.0,-19.0,3.141
-1.0,-21.0,3.142
7.0,-15.0,3.143
12.0,-7.0,3.144
7.0,0.0,3.145
0.0,0.0,3.146
-2.0,-3.0,3.147
-6.0,-7.0,3.148
-14.0,-9.0,3.149
-19.0,-8.0,3.15
-11.0,-6.0,3.151
2.0,-6.0,3.152
6.0,-9.0,3.153
0.0,-11.0,3.154
3.0,-5.0,3.155
16.0,5.0,3.156
20.0,13.0,3.157
11.0,13.0,3.158
7.0,11.0,3.159
23.0,11.0,3.16
40.0,10.0,3.161
40.0,10.0,3.162
33.0,9.0,3.163
41.0,6.0,3.164
50.0,8.0,3.165
34.0,14.0,3.166
7.0,14.0,3.167
-8.0,9.0,3.168
-6.0,3.0,3.169
-11.0,1.0,3.17
-22.0,-2.0,3.171
-24.0,-5.0,3.172
-18.0,-4.0,3.173
-14.0,-3.0,3.174
-15.0,-6.0,3.175
-11.0,-9.0,3.176
-5.0,-6.0,3.177
-7.0,-4.0,3.178
-11.0,-7.0,3.179
-11.0,-12.0,3.18
-5.0,-15.0,3.181
-3.0,-13.0,3.182
-1.0,-12.0,3.183
2.0,-11.0,3.184
3.0,-5.0,3.185
-2.0,5.0,3.186
-4.0,9.0,3.187
0.0,9.0,3.188
5.0,8.0,3.189
4.0,8.0,3.19
4.0,4.0,3.191
10.0,1.0,3.192
12.0,2.0,3.193
4.0,6.0,3.194
-4.0,4.0,3.195
-4.0,0.0,3.196
-1.0,3.0,3.197
-1.0,9.0,3.198
-3.0,11.0,3.199
-7.0,5.0,3.2
-10.0,0.0,3.201
-10.0,0.0,3.202
-2.0,3.0,3.203
9.0,3.0,3.204
13.0,3.0,3.205
8.0,2.0,3.206
5.0,0.0,3.207
8.0,-4.0,3.208
4.0,-7.0,3.209
-4.0,-5.0,3.21
-11.0,-2.0,3.211
-9.0,-3.0,3.212
-5.0,-9.0,3.213
-4.0,-10.0,3.214
-4.0,-7.0,3.215
-3.0,-6.0,3.216
-1.0,-4.0,3.217
0.0,-3.0,3.218
1.0,-2.0,3.219
3.0,-3.0,3.22
5.0,-7.0,3.221
8.0,-7.0,3.222
17.0,-1.0,3.223
25.0,5.0,3.224
27.0,8.0,3.225
21.0,6.0,3.226
18.0,-1.0,3.227
16.0,-6.0,3.228
12.0,-8.0,3.229
5.0,-4.0,3.23
2.0,-2.0,3.231
4.0,-3.0,3.232
2.0,-3.0,3.233
-5.0,-3.0,3.234
-10.0,-2.0,3.235
-7.0,-3.0,3.236
-4.0,-2.0,3.237
-5.0,-4.0,3.238
-6.0,-7.0,3.239
-3.0,-10.0,3.24
3.0,-12.0,3.241
13.0,-7.0,3.242
23.0,-2.0,3.243
28.0,1.0,3.244
19.0,5.0,3.245
7.0,8.0,3.246
4.0,10.0,3.247
6.0,8.0,3.248
0.0,4.0,3.249
-14.0,3.0,3.25
-17.0,5.0,3.251
-15.0,9.0,3.252
-16.0,12.0,3.253
-22.0,12.0,3.254
-24.0,10.0,3.255
-14.0,4.0,3.256
-3.0,1.0,3.257
-1.0,-1.0,3.258
0.0,1.0,3.259
5.0,0.0,3.26
13.0,-4.0,3.261
15.0,-7.0,3.262
18.0,-8.0,3.263
25.0,-6.0,3.264
28.0,-2.0,3.265
18.0,1.0,3.266
5.0,1.0,3.267
-1.0,-4.0,3.268
2.0,-7.0,3.269
3.0,-6.0,3.27
1.0,-5.0,3.271
6.0,-9.0,3.272
20.0,-10.0,3.273
34.0,-5.0,3.274
31.0,2.0,3.275
10.0,4.0,3.276
-9.0,2.0,3.277
-19.0,-2.0,3.278
-22.0,-2.0,3.279
-25.0,0.0,3.28
-25.0,1.0,3.281
-17.0,9.0,3.282
-4.0,12.0,3.283
7.0,7.0,3.284
10.0,-3.0,3.285
11.0,-4.0,3.286
12.0,2.0,3.287
10.0,1.0,3.288
5.0,-4.0,3.289
4.0,-4.0,3.29
4.0,3.0,3.291
-1.0,5.0,3.292
-10.0,-3.0,3.293
-8.0,-9.0,3.294
8.0,-6.0,3.295
26.0,1.0,3.296
31.0,6.0,3.297
25.0,11.0,3.298
19.0,13.0,3.299
12.0,10.0,3.3
-7.0,0.0,3.301
-24.0,-6.0,3.302
-19.0,-3.0,3.303
9.0,3.0,3.304
30.0,8.0,3.305
30.0,7.0,3.306
29.0,5.0,3.307
39.0,2.0,3.308
40.0,1.0,3.309
17.0,-1.0,3.31
-10.0,-8.0,3.311
-18.0,-14.0,3.312
-16.0,-11.0,3.313
-24.0,-7.0,3.314
-36.0,-6.0,3.315
-37.0,-6.0,3.316
-30.0,-3.0,3.317
-29.0,1.0,3.318
-31.0,4.0,3.319
-27.0,7.0,3.32
-19.0,9.0,3.321
-13.0,10.0,3.322
-12.0,8.0,3.323
-8.0,7.0,3.324
-4.0,7.0,3.325
-2.0,7.0,3.326
-2.0,5.0,3.327
3.0,3.0,3.328
17.0,0.0,3.329
28.0,-2.0,3.33
34.0,-5.0,3.331
35.0,-8.0,3.332
40.0,-10.0,3.333
42.0,-13.0,3.334
36.0,-14.0,3.335
18.0,-16.0,3.336
2.0,-16.0,3.337
0.0,-15.0,3.338
6.0,-9.0,3.339
1.0,-4.0,3.34
-8.0,-3.0,3.341
-5.0,-2.0,3.342
13.0,0.0,3.343
25.0,6.0,3.344
16.0,10.0,3.345
4.0,9.0,3.346
5.0,3.0,3.347
8.0,-1.0,3.348
0.0,-1.0,3.349
-13.0,1.0,3.35
-16.0,2.0,3.351
-9.0,2.0,3.352
-3.0,3.0,3.353
-3.0,6.0,3.354
-4.0,3.0,3.355
1.0,-1.0,3.356
10.0,0.0,3.357
13.0,6.0,3.358
0.0,9.0,3.359
-17.0,0.0,3.36
-23.0,-16.0,3.361
-14.0,-21.0,3.362
-4.0,-14.0,3.363
-5.0,-9.0,3.364
-7.0,-9.0,3.365
1.0,-7.0,3.366
15.0,0.0,3.367
21.0,11.0,3.368
18.0,16.0,3.369
13.0,13.0,3.37
6.0,4.0,3.371
-3.0,-4.0,3.372
-9.0,-1.0,3.373
-12.0,5.0,3.374
-13.0,8.0,3.375
-10.0,3.0,3.376
1.0,1.0,3.377
18.0,1.0,3.378
26.0,4.0,3.379
22.0,4.0,3.38
17.0,2.0,3.381
19.0,3.0,3.382
18.0,5.0,3.383
9.0,3.0,3.384
-3.0,0.0,3.385
-10.0,0.0,3.386
-9.0,-3.0,3.387
-5.0,-8.0,3.388
-1.0,-12.0,3.389
2.0,-12.0,3.39
3.0,-10.0,3.391
4.0,-13.0,3.392
5.0,-18.0,3.393
3.0,-22.0,3.394
-4.0,-21.0,3.395
-10.0,-14.0,3.396
-9.0,-7.0,3.397
-5.0,-4.0,3.398
-5.0,-4.0,3.399
-13.0,-2.0,3.4
-17.0,1.0,3.401
-10.0,6.0,3.402
-1.0,6.0,3.403
4.0,7.0,3.404
2.0,10.0,3.405
-1.0,12.0,3.406
-3.0,8.0,3.407
-4.0,3.0,3.408
-8.0,1.0,3.409
-15.0,0.0,3.41
-24.0,-2.0,3.411
-33.0,-1.0,3.412
-32.0,2.0,3.413
-15.0,6.0,3.414
12.0,4.0,3.415
36.0,5.0,3.416
50.0,12.0,3.417
55.0,16.0,3.418
58.0,14.0,3.419
51.0,8.0,3.42
37.0,7.0,3.421
26.0,12.0,3.422
26.0,13.0,3.423
29.0,10.0,3.424
20.0,10.0,3.425
1.0,14.0,3.426
-10.0,13.0,3.427
-10.0,4.0,3.428
-10.0,-5.0,3.429
-16.0,-7.0,3.43
-18.0,-7.0,3.431
-14.0,-9.0,3.432
-11.0,-12.0,3.433
-16.0,-10.0,3.434
-22.0,-9.0,3.435
-19.0,-11.0,3.436
-12.0,-12.0,3.437
-6.0,-10.0,3.438
-4.0,-9.0,3.439
-4.0,-11.0,3.44
-3.0,-18.0,3.441
-3.0,-16.0,3.442
4.0,-8.0,3.443
16.0,-2.0,3.444
20.0,0.0,3.445
13.0,-1.0,3.446
3.0,-1.0,3.447
0.0,0.0,3.448
-2.0,5.0,3.449
-10.0,8.0,3.45
-16.0,7.0,3.451
-9.0,2.0,3.452
5.0,0.0,3.453
21.0,1.0,3.454
30.0,1.0,3.455
28.0,0.0,3.456
23.0,3.0,3.457
16.0,7.0,3.458
13.0,10.0,3.459
8.0,8.0,3.46
2.0,3.0,3.461
0.0,4.0,3.462
9.0,5.0,3.463
17.0,6.0,3.464
13.0,9.0,3.465
3.0,12.0,3.466
-2.0,8.0,3.467
0.0,2.0,3.468
1.0,0.0,3.469
-3.0,4.0,3.47
-5.0,4.0,3.471
-5.0,-1.0,3.472
-9.0,-3.0,3.473
-14.0,-1.0,3.474
-15.0,-2.0,3.475
-13.0,-7.0,3.476
-10.0,-7.0,3.477
-9.0,-3.0,3.478
-6.0,-1.0,3.479
-5.0,-4.0,3.48
-5.0,-9.0,3.481
-5.0,-4.0,3.482
0.0,0.0,3.483
1.0,2.0,3.484
-4.0,6.0,3.485
-13.0,11.0,3.486
-13.0,10.0,3.487
-2.0,2.0,3.488
11.0,-3.0,3.489
21.0,-2.0,3.49
31.0,0.0,3.491
40.0,-2.0,3.492
42.0,0.0,3.493
35.0,3.0,3.494
24.0,0.0,3.495
14.0,-4.0,3.496
5.0,-2.0,3.497
-3.0,-1.0,3.498
-9.0,-4.0,3.499
-11.0,-12.0,3.5
-13.0,-19.0,3.501
-12.0,-17.0,3.502
-6.0,-13.0,3.503
1.0,-13.0,3.504
2.0,-12.0,3.505
1.0,-7.0,3.506
3.0,-7.0,3.507
4.0,-14.0,3.508
5.0,-15.0,3.509
17.0,-3.0,3.51
36.0,13.0,3.511
39.0,22.0,3.512
19.0,23.0,3.513
-1.0,15.0,3.514
1.0,7.0,3.515
10.0,3.0,3.516
7.0,5.0,3.517
-4.0,5.0,3.518
0.0,0.0,3.519
15.0,-7.0,3.52
25.0,-8.0,3.521
28.0,0.0,3.522
31.0,4.0,3.523
31.0,-1.0,3.524
19.0,-7.0,3.525
1.0,-5.0,3.526
-2.0,2.0,3.527
0.0,7.0,3.528
-8.0,6.0,3.529
-24.0,5.0,3.53
-36.0,3.0,3.531
-42.0,-3.0,3.532
-56.0,-8.0,3.533
-76.0,-11.0,3.534
-79.0,-11.0,3.535
-57.0,-14.0,3.536
-27.0,-17.0,3.537
-7.0,-19.0,3.538
2.0,-19.0,3.539
12.0,-16.0,3.54
19.0,-12.0,3.541
14.0,-5.0,3.542
9.0,-3.0,3.543
19.0,-4.0,3.544
40.0,-3.0,3.545
47.0,0.0,3.546
37.0,3.0,3.547
27.0,3.0,3.548
28.0,4.0,3.549
27.0,11.0,3.55
15.0,17.0,3.551
1.0,20.0,3.552
-1.0,19.0,3.553
-2.0,16.0,3.554
-10.0,10.0,3.555
-18.0,8.0,3.556
-20.0,13.0,3.557
-14.0,20.0,3.558
-5.0,19.0,3.559
3.0,8.0,3.56
9.0,-2.0,3.561
11.0,-4.0,3.562
12.0,-3.0,3.563
16.0,-2.0,3.564
19.0,0.0,3.565
15.0,0.0,3.566
8.0,-2.0,3.567
0.0,-8.0,3.568
-7.0,-7.0,3.569
-19.0,-4.0,3.57
-26.0,-5.0,3.571
-23.0,-12.0,3.572
-11.0,-16.0,3.573
0.0,-14.0,3.574
7.0,-11.0,3.575
13.0,-8.0,3.576
17.0,0.0,3.577
12.0,8.0,3.578
2.0,10.0,3.579
-4.0,5.0,3.58
-4.0,-2.0,3.581
0.0,-1.0,3.582
8.0,2.0,3.583
21.0,4.0,3.584
29.0,6.0,3.585
26.0,6.0,3.586
20.0,0.0,3.587
18.0,-7.0,3.588
18.0,-6.0,3.589
11.0,3.0,3.59
-4.0,8.0,3.591
-12.0,4.0,3.592
-10.0,-5.0,3.593
-4.0,-8.0,3.594
-1.0,-8.0,3.595
0.0,-11.0,3.596
2.0,-13.0,3.597
3.0,-13.0,3.598
2.0,-8.0,3.599
-1.0,-1.0,3.6
-5.0,3.0,3.601
-2.0,5.0,3.602
10.0,1.0,3.603
18.0,-4.0,3.604
8.0,-4.0,3.605
-9.0,-2.0,3.606
-11.0,-4.0,3.607
-1.0,-9.0,3.608
3.0,-10.0,3.609
-2.0,-3.0,3.61
-4.0,1.0,3.611
0.0,0.0,3.612
0.0,-2.0,3.613
1.0,0.0,3.614
10.0,0.0,3.615
18.0,2.0,3.616
13.0,6.0,3.617
-2.0,5.0,3.618
-6.0,-1.0,3.619
-1.0,-6.0,3.62
0.0,-6.0,3.621
0.0,3.0,3.622
11.0,12.0,3.623
22.0,13.0,3.624
15.0,10.0,3.625
-3.0,6.0,3.626
-9.0,4.0,3.627
0.0,3.0,3.628
8.0,7.0,3.629
6.0,9.0,3.63
11.0,6.0,3.631
23.0,2.0,3.632
26.0,5.0,3.633
9.0,9.0,3.634
-10.0,6.0,3.635
-15.0,-3.0,3.636
-9.0,-6.0,3.637
-4.0,-1.0,3.638
-6.0,8.0,3.639
-9.0,14.0,3.64
-10.0,6.0,3.641
-13.0,-1.0,3.642
-16.0,-1.0,3.643
-17.0,-1.0,3.644
-18.0,2.0,3.645
-21.0,3.0,3.646
-26.0,-3.0,3.647
-21.0,-9.0,3.648
-10.0,-13.0,3.649
-1.0,-16.0,3.65
6.0,-16.0,3.651
17.0,-14.0,3.652
30.0,-11.0,3.653
37.0,-6.0,3.654
29.0,2.0,3.655
18.0,7.0,3.656
20.0,2.0,3.657
31.0,-3.0,3.658
38.0,-3.0,3.659
34.0,0.0,3.66
34.0,-1.0,3.661
39.0,-3.0,3.662
35.0,-2.0,3.663
16.0,2.0,3.664
-2.0,2.0,3.665
-5.0,0.0,3.666
-3.0,-1.0,3.667
-6.0,1.0,3.668
-15.0,3.0,3.669
-18.0,2.0,3.67
-19.0,0.0,3.671
-23.0,0.0,3.672
-28.0,2.0,3.673
-28.0,5.0,3.674
-27.0,5.0,3.675
-26.0,4.0,3.676
-25.0,4.0,3.677
-23.0,3.0,3.678
-21.0,2.0,3.679
-23.0,-3.0,3.68
-26.0,-11.0,3.681
-18.0,-16.0,3.682
1.0,-18.0,3.683
18.0,-21.0,3.684
24.0,-19.0,3.685
26.0,-14.0,3.686
31.0,-6.0,3.687
36.0,4.0,3.688
34.0,15.0,3.689
25.0,19.0,3.69
18.0,10.0,3.691
15.0,-4.0,3.692
11.0,-9.0,3.693
-1.0,-7.0,3.694
-14.0,-8.0,3.695
-18.0,-16.0,3.696
-9.0,-17.0,3.697
1.0,-11.0,3.698
5.0,-3.0,3.699
4.0,0.0,3.7
12.0,-3.0,3.701
21.0,-2.0,3.702
21.0,0.0,3.703
13.0,0.0,3.704
5.0,-1.0,3.705
7.0,-2.0,3.706
10.0,1.0,3.707
8.0,8.0,3.708
1.0,14.0,3.709
-7.0,11.0,3.71
-14.0,0.0,3.711
-17.0,-7.0,3.712
-15.0,-2.0,3.713
-14.0,3.0,3.714
-15.0,-1.0,3.715
-11.0,-5.0,3.716
-3.0,-1.0,3.717
1.0,8.0,3.718
0.0,14.0,3.719
-6.0,12.0,3.72
-9.0,7.0,3.721
-4.0,4.0,3.722
5.0,0.0,3.723
14.0,-1.0,3.724
19.0,1.0,3.725
18.0,4.0,3.726
13.0,5.0,3.727
6.0,3.0,3.728
2.0,3.0,3.729
0.0,3.0,3.73
-2.0,1.0,3.731
-5.0,-2.0,3.732
-5.0,-6.0,3.733
0.0,-6.0,3.734
10.0,-6.0,3.735
12.0,-7.0,3.736
12.0,-5.0,3.737
12.0,-3.0,3.738
17.0,-1.0,3.739
18.0,-2.0,3.74
9.0,-7.0,3.741
1.0,-7.0,3.742
5.0,-5.0,3.743
18.0,-1.0,3.744
24.0,3.0,3.745
21.0,9.0,3.746
21.0,9.0,3.747
26.0,3.0,3.748
24.0,-1.0,3.749
10.0,0.0,3.75
-2.0,4.0,3.751
-4.0,4.0,3.752
-3.0,2.0,3.753
-7.0,5.0,3.754
-12.0,8.0,3.755
-10.0,9.0,3.756
-6.0,8.0,3.757
-7.0,9.0,3.758
-10.0,10.0,3.759
-10.0,10.0,3.76
-7.0,5.0,3.761
-5.0,4.0,3.762
2.0,3.0,3.763
11.0,-1.0,3.764
12.0,-3.0,3.765
2.0,-1.0,3.766
-4.0,0.0,3.767
-5.0,-4.0,3.768
-8.0,-8.0,3.769
-13.0,-3.0,3.77
-14.0,3.0,3.771
-4.0,1.0,3.772
1.0,-4.0,3.773
-3.0,-8.0,3.774
-6.0,-12.0,3.775
0.0,-16.0,3.776
10.0,-16.0,3.777
7.0,-9.0,3.778
0.0,-4.0,3.779
-3.0,-7.0,3.78
-1.0,-18.0,3.781
1.0,-21.0,3.782
3.0,-15.0,3.783
9.0,-9.0,3.784
13.0,-6.0,3.785
9.0,-2.0,3.786
2.0,-1.0,3.787
-1.0,-4.0,3.788
-3.0,-5.0,3.789
-5.0,-5.0,3.79
-7.0,-3.0,3.791
-5.0,-2.0,3.792
-5.0,-2.0,3.793
-8.0,0.0,3.794
-12.0,4.0,3.795
-11.0,8.0,3.796
-7.0,12.0,3.797
-4.0,15.0,3.798
-1.0,13.0,3.799
3.0,7.0,3.8
7.0,1.0,3.801
12.0,2.0,3.802
19.0,6.0,3.803
26.0,10.0,3.804
25.0,13.0,3.805
16.0,13.0,3.806
8.0,11.0,3.807
3.0,7.0,3.808
0.0,4.0,3.809
-1.0,1.0,3.81
1.0,-1.0,3.811
6.0,-5.0,3.812
6.0,-9.0,3.813
2.0,-13.0,3.814
5.0,-17.0,3.815
15.0,-18.0,3.816
20.0,-11.0,3.817
12.0,-7.0,3.818
-1.0,-3.0,3.819
-9.0,0.0,3.82
-10.0,-1.0,3.821
-6.0,-2.0,3.822
1.0,-4.0,3.823
11.0,-3.0,3.824
19.0,4.0,3.825
22.0,8.0,3.826
20.0,5.0,3.827
16.0,2.0,3.828
9.0,5.0,3.829
-1.0,9.0,3.83
-3.0,6.0,3.831
1.0,0.0,3.832
7.0,-1.0,3.833
1.0,1.0,3.834
-10.0,1.0,3.835
-17.0,-1.0,3.836
-10.0,2.0,3.837
-6.0,7.0,3.838
-7.0,7.0,3.839
-13.0,7.0,3.84
-17.0,4.0,3.841
-16.0,5.0,3.842
-7.0,9.0,3.843
2.0,12.0,3.844
10.0,16.0,3.845
10.0,18.0,3.846
6.0,15.0,3.847
7.0,9.0,3.848
10.0,7.0,3.849
3.0,9.0,3.85
-7.0,7.0,3.851
-13.0,-4.0,3.852
-12.0,-14.0,3.853
-9.0,-20.0,3.854
-7.0,-21.0,3.855
-5.0,-22.0,3.856
-1.0,-19.0,3.857
5.0,-17.0,3.858
16.0,-17.0,3.859
24.0,-19.0,3.86
25.0,-23.0,3.861
21.0,-22.0,3.862
19.0,-20.0,3.863
21.0,-19.0,3.864
19.0,-15.0,3.865
9.0,-6.0,3.866
0.0,-2.0,3.867
-1.0,-8.0,3.868
0.0,-13.0,3.869
-3.0,-7.0,3.87
-6.0,3.0,3.871
-6.0,5.0,3.872
-6.0,4.0,3.873
-12.0,9.0,3.874
-14.0,14.0,3.875
-9.0,14.0,3.876
-3.0,10.0,3.877
-4.0,3.0,3.878
-6.0,0.0,3.879
-4.0,-3.0,3.88
-5.0,-8.0,3.881
-9.0,-8.0,3.882
-9.0,-5.0,3.883
0.0,2.0,3.884
7.0,9.0,3.885
5.0,12.0,3.886
9.0,5.0,3.887
25.0,-8.0,3.888
40.0,-15.0,3.889
46.0,-10.0,3.89
44.0,0.0,3.891
44.0,8.0,3.892
37.0,13.0,3.893
17.0,14.0,3.894
-2.0,10.0,3.895
-7.0,1.0,3.896
-4.0,-4.0,3.897
-6.0,-6.0,3.898
-12.0,-3.0,3.899
-14.0,1.0,3.9
-12.0,2.0,3.901
-10.0,7.0,3.902
-5.0,10.0,3.903
2.0,10.0,3.904
6.0,11.0,3.905
-1.0,12.0,3.906
-6.0,8.0,3.907
-5.0,0.0,3.908
-2.0,-3.0,3.909
-4.0,-1.0,3.91
-11.0,-4.0,3.911
-15.0,-10.0,3.912
-17.0,-11.0,3.913
-19.0,-7.0,3.914
-22.0,-5.0,3.915
-20.0,-9.0,3.916
-15.0,-9.0,3.917
-5.0,-7.0,3.918
8.0,-7.0,3.919
16.0,-8.0,3.92
17.0,-10.0,3.921
18.0,-6.0,3.922
28.0,-3.0,3.923
38.0,-2.0,3.924
34.0,1.0,3.925
21.0,5.0,3.926
12.0,7.0,3.927
13.0,6.0,3.928
11.0,9.0,3.929
2.0,10.0,3.93
-3.0,6.0,3.931
-2.0,2.0,3.932
-2.0,5.0,3.933
-6.0,12.0,3.934
-10.0,11.0,3.935
-12.0,7.0,3.936
-12.0,4.0,3.937
-10.0,2.0,3.938
-7.0,0.0,3.939
-9.0,-3.0,3.94
-15.0,-5.0,3.941
-16.0,-2.0,3.942
-2.0,-1.0,3.943
15.0,-3.0,3.944
19.0,-3.0,3.945
12.0,1.0,3.946
11.0,4.0,3.947
18.0,0.0,3.948
22.0,-2.0,3.949
17.0,3.0,3.95
7.0,7.0,3.951
2.0,2.0,3.952
2.0,-5.0,3.953
0.0,-8.0,3.954
-5.0,-6.0,3.955
-6.0,-6.0,3.956
-4.0,-8.0,3.957
-1.0,-10.0,3.958
1.0,-9.0,3.959
3.0,-9.0,3.96
4.0,-12.0,3.961
4.0,-8.0,3.962
4.0,0.0,3.963
8.0,7.0,3.964
11.0,11.0,3.965
8.0,16.0,3.966
3.0,19.0,3.967
0.0,14.0,3.968
1.0,4.0,3.969
-1.0,-1.0,3.97
-6.0,0.0,3.971
-7.0,0.0,3.972
-5.0,-3.0,3.973
-5.0,-3.0,3.974
-7.0,2.0,3.975
-10.0,4.0,3.976
-9.0,1.0,3.977
-12.0,-6.0,3.978
-15.0,-7.0,3.979
-17.0,-4.0,3.98
-12.0,-5.0,3.981
-1.0,-7.0,3.982
12.0,-8.0,3.983
23.0,-7.0,3.984
29.0,-2.0,3.985
29.0,-1.0,3.986
25.0,-3.0,3.987
21.0,-4.0,3.988
15.0,0.0,3.989
9.0,6.0,3.99
4.0,7.0,3.991
-3.0,4.0,3.992
-13.0,0.0,3.993
-23.0,-4.0,3.994
-22.0,-5.0,3.995
-16.0,-4.0,3.996
-7.0,3.0,3.997
-1.0,9.0,3.998
4.0,8.0,3.999
6.0,5.0,4.0
4.0,3.0,4.001
-1.0,3.0,4.002
0.0,-2.0,4.003
7.0,-8.0,4.004
11.0,-8.0,4.005
10.0,-5.0,4.006
13.0,-6.0,4.007
23.0,-9.0,4.008
30.0,-6.0,4.009
25.0,4.0,4.01
18.0,10.0,4.011
10.0,9.0,4.012
4.0,5.0,4.013
-3.0,1.0,4.014
-8.0,-4.0,4.015
-8.0,-8.0,4.016
-4.0,-9.0,4.017
-1.0,-10.0,4.018
-4.0,-11.0,4.019
-12.0,-9.0,4.02
-21.0,-7.0,4.021
-27.0,-5.0,4.022
-31.0,-5.0,4.023
-28.0,-6.0,4.024
-22.0,-3.0,4.025
-18.0,-1.0,4.026
-18.0,-2.0,4.027
-13.0,-5.0,4.028
0.0,-3.0,4.029
16.0,0.0,4.03
26.0,3.0,4.031
32.0,5.0,4.032
44.0,10.0,4.033
64.0,12.0,4.034
83.0,5.0,4.035
88.0,-6.0,4.036
87.0,-6.0,4.037
69.0,1.0,4.038
39.0,13.0,4.039
14.0,12.0,4.04
2.0,-1.0,4.041
-9.0,-7.0,4.042
-13.0,0.0,4.043
-17.0,9.0,4.044
-18.0,5.0,4.045
-15.0,-8.0,4.046
0.0,-14.0,4.047
10.0,-10.0,4.048
4.0,-4.0,4.049
-1.0,-2.0,4.05
-7.0,-2.0,4.051
-13.0,0.0,4.052
-11.0,-3.0,4.053
-12.0,-6.0,4.054
-20.0,-6.0,4.055
-25.0,-1.0,4.056
-21.0,4.0,4.057
-15.0,5.0,4.058
-17.0,3.0,4.059
-20.0,-1.0,4.06
-18.0,-9.0,4.061
-14.0,-11.0,4.062
-8.0,-9.0,4.063
0.0,-2.0,4.064
6.0,4.0,4.065
5.0,7.0,4.066
-4.0,6.0,4.067
-8.0,7.0,4.068
-4.0,7.0,4.069
-4.0,8.0,4.07
-12.0,5.0,4.071
-17.0,1.0,4.072
-13.0,-2.0,4.073
-6.0,-2.0,4.074
-5.0,2.0,4.075
-9.0,4.0,4.076
-7.0,6.0,4.077
-3.0,5.0,4.078
1.0,3.0,4.079
1.0,1.0,4.08
1.0,-2.0,4.081
7.0,-5.0,4.082
16.0,-5.0,4.083
21.0,-5.0,4.084
20.0,-4.0,4.085
18.0,-3.0,4.086
18.0,-4.0,4.087
17.0,-5.0,4.088
14.0,-5.0,4.089
8.0,-4.0,4.09
4.0,-2.0,4.091
2.0,0.0,4.092
-1.0,1.0,4.093
-5.0,3.0,4.094
-5.0,4.0,4.095
0.0,6.0,4.096
4.0,6.0,4.097
5.0,5.0,4.098
4.0,2.0,4.099
5.0,-3.0,4.1
7.0,-12.0,4.101
9.0,-15.0,4.102
11.0,-10.0,4.103
14.0,-3.0,4.104
17.0,0.0,4.105
15.0,0.0,4.106
10.0,-3.0,4.107
5.0,-5.0,4.108
2.0,-4.0,4.109
-1.0,1.0,4.11
-4.0,5.0,4.111
-6.0,7.0,4.112
-8.0,6.0,4.113
-10.0,5.0,4.114
-10.0,5.0,4.115
-9.0,4.0,4.116
-6.0,4.0,4.117
-2.0,5.0,4.118
3.0,6.0,4.119
2.0,4.0,4.12
-1.0,-3.0,4.121
-1.0,-5.0,4.122
7.0,-4.0,4.123
16.0,-1.0,4.124
17.0,1.0,4.125
14.0,4.0,4.126
14.0,6.0,4.127
17.0,7.0,4.128
12.0,7.0,4.129
4.0,7.0,4.13
0.0,2.0,4.131
2.0,-5.0,4.132
1.0,-8.0,4.133
-3.0,-5.0,4.134
-6.0,-2.0,4.135
-5.0,-5.0,4.136
-3.0,-9.0,4.137
-5.0,-11.0,4.138
-4.0,-11.0,4.139
-2.0,-12.0,4.14
0.0,-14.0,4.141
3.0,-11.0,4.142
13.0,-9.0,4.143
22.0,-6.0,4.144
23.0,0.0,4.145
15.0,6.0,4.146
4.0,6.0,4.147
0.0,3.0,4.148
-1.0,2.0,4.149
-4.0,3.0,4.15
-6.0,0.0,4.151
-8.0,-6.0,4.152
-12.0,-8.0,4.153
-19.0,-6.0,4.154
-22.0,-5.0,4.155
-23.0,-7.0,4.156
-21.0,-7.0,4.157
-18.0,-4.0,4.158
-11.0,0.0,4.159
-3.0,3.0,4.16
2.0,0.0,4.161
8.0,-3.0,4.162
14.0,-2.0,4.163
23.0,0.0,4.164
35.0,6.0,4.165
44.0,10.0,4.166
48.0,6.0,4.167
50.0,2.0,4.168
44.0,6.0,4.169
30.0,8.0,4.17
-8.0,5.0,4.171
-34.0,1.0,4.172
-19.0,-7.0,4.173
-5.0,-14.0,4.174
4.0,-18.0,4.175
13.0,-19.0,4.176
19.0,-11.0,4.177
27.0,0.0,4.178
25.0,14.0,4.179
18.0,23.0,4.18
13.0,24.0,4.181
9.0,23.0,4.182
0.0,19.0,4.183
-5.0,14.0,4.184
-11.0,11.0,4.185
-30.0,12.0,4.186
-65.0,6.0,4.187
-84.0,-6.0,4.188
-63.0,-13.0,4.189
-19.0,-11.0,4.19
13.0,-8.0,4.191
27.0,-8.0,4.192
32.0,-11.0,4.193
40.0,-10.0,4.194
45.0,-1.0,4.195
47.0,12.0,4.196
41.0,20.0,4.197
25.0,12.0,4.198
-2.0,-3.0,4.199
-44.0,-14.0,4.2
-97.0,-17.0,4.201
-137.0,-16.0,4.202
-138.0,-17.0,4.203
-90.0,-18.0,4.204
-20.0,-14.0,4.205
46.0,-11.0,4.206
102.0,-13.0,4.207
148.0,-15.0,4.208
168.0,-5.0,4.209
141.0,14.0,4.21
79.0,31.0,4.211
11.0,31.0,4.212
-42.0,18.0,4.213
-85.0,3.0,4.214
-108.0,-6.0,4.215
-96.0,-12.0,4.216
-47.0,-18.0,4.217
7.0,-26.0,4.218
26.0,-28.0,4.219
10.0,-23.0,4.22
7.0,-15.0,4.221
42.0,-1.0,4.222
87.0,24.0,4.223
105.0,49.0,4.224
104.0,48.0,4.225
115.0,27.0,4.226
128.0,11.0,4.227
107.0,14.0,4.228
45.0,18.0,4.229
-19.0,9.0,4.23
-57.0,-6.0,4.231
-81.0,-9.0,4.232
-120.0,-8.0,4.233
-193.0,-11.0,4.234
-292.0,-19.0,4.235
-375.0,-22.0,4.236
-374.0,-22.0,4.237
-253.0,-27.0,4.238
-61.0,-33.0,4.239
106.0,-40.0,4.24
207.0,-46.0,4.241
271.0,-36.0,4.242
312.0,2.0,4.243
305.0,57.0,4.244
247.0,86.0,4.245
186.0,72.0,4.246
154.0,40.0,4.247
109.0,21.0,4.248
2.0,15.0,4.249
-137.0,12.0,4.25
-233.0,6.0,4.251
-230.0,-2.0,4.252
-151.0,-11.0,4.253
-52.0,-22.0,4.254
34.0,-27.0,4.255
105.0,-27.0,4.256
155.0,-23.0,4.257
166.0,-18.0,4.258
124.0,-2.0,4.259
52.0,9.0,4.26
-6.0,0.0,4.261
-40.0,-20.0,4.262
-64.0,-27.0,4.263
-88.0,-16.0,4.264
-106.0,-9.0,4.265
-101.0,-14.0,4.266
-66.0,-21.0,4.267
-13.0,-18.0,4.268
21.0,-8.0,4.269
13.0,-3.0,4.27
-27.0,1.0,4.271
-72.0,9.0,4.272
-104.0,16.0,4.273
-123.0,12.0,4.274
-116.0,-3.0,4.275
-61.0,-14.0,4.276
31.0,-13.0,4.277
122.0,-3.0,4.278
169.0,11.0,4.279
167.0,26.0,4.28
149.0,39.0,4.281
134.0,47.0,4.282
107.0,42.0,4.283
58.0,34.0,4.284
8.0,34.0,4.285
-26.0,35.0,4.286
-58.0,25.0,4.287
-98.0,1.0,4.288
-131.0,-14.0,4.289
-132.0,-16.0,4.29
-103.0,-17.0,4.291
-63.0,-26.0,4.292
-9.0,-29.0,4.293
58.0,-19.0,4.294
113.0,-6.0,4.295
135.0,-4.0,4.296
133.0,-2.0,4.297
116.0,11.0,4.298
80.0,27.0,4.299
24.0,25.0,4.3
-20.0,4.0,4.301
-25.0,-8.0,4.302
-14.0,-2.0,4.303
-22.0,2.0,4.304
-44.0,-8.0,4.305
-50.0,-20.0,4.306
-40.0,-21.0,4.307
-36.0,-16.0,4.308
-44.0,-15.0,4.309
-43.0,-14.0,4.31
-29.0,-11.0,4.311
-23.0,-9.0,4.312
-30.0,-6.0,4.313
-32.0,3.0,4.314
-24.0,19.0,4.315
-20.0,29.0,4.316
-22.0,30.0,4.317
-21.0,28.0,4.318
-8.0,24.0,4.319
10.0,9.0,4.32
21.0,-12.0,4.321
26.0,-25.0,4.322
30.0,-27.0,4.323
35.0,-26.0,4.324
34.0,-23.0,4.325
26.0,-10.0,4.326
18.0,7.0,4.327
17.0,19.0,4.328
21.0,16.0,4.329
25.0,4.0,4.33
30.0,-5.0,4.331
35.0,-8.0,4.332
32.0,-4.0,4.333
14.0,4.0,4.334
-16.0,11.0,4.335
-43.0,14.0,4.336
-53.0,18.0,4.337
-52.0,19.0,4.338
-43.0,16.0,4.339
-30.0,15.0,4.34
-13.0,14.0,4.341
3.0,18.0,4.342
10.0,22.0,4.343
-1.0,19.0,4.344
-41.0,4.0,4.345
-109.0,-26.0,4.346
-159.0,-59.0,4.347
-136.0,-79.0,4.348
-41.0,-84.0,4.349
63.0,-85.0,4.35
138.0,-79.0,4.351
201.0,-43.0,4.352
250.0,20.0,4.353
231.0,76.0,4.354
133.0,82.0,4.355
41.0,44.0,4.356
24.0,4.0,4.357
33.0,-19.0,4.358
-11.0,-32.0,4.359
-100.0,-51.0,4.36
-159.0,-74.0,4.361
-172.0,-76.0,4.362
-175.0,-49.0,4.363
-153.0,-21.0,4.364
-63.0,-14.0,4.365
63.0,-20.0,4.366
141.0,-4.0,4.367
145.0,36.0,4.368
125.0,78.0,4.369
107.0,98.0,4.37
74.0,102.0,4.371
19.0,96.0,4.372
-53.0,75.0,4.373
-148.0,37.0,4.374
-269.0,8.0,4.375
-357.0,11.0,4.376
-329.0,31.0,4.377
-154.0,30.0,4.378
90.0,0.0,4.379
286.0,-30.0,4.38
396.0,-31.0,4.381
447.0,10.0,4.382
441.0,77.0,4.383
339.0,143.0,4.384
154.0,209.0,4.385
-17.0,280.0,4.386
-93.0,345.0,4.387
-99.0,361.0,4.388
-97.0,299.0,4.389
-92.0,170.0,4.39
-62.0,10.0,4.391
-33.0,-145.0,4.392
-37.0,-264.0,4.393
-51.0,-312.0,4.394
-34.0,-294.0,4.395
-12.0,-271.0,4.396
-30.0,-302.0,4.397
-103.0,-385.0,4.398
-185.0,-455.0,4.399
-220.0,-463.0,4.4
-175.0,-429.0,4.401
-76.0,-391.0,4.402
4.0,-353.0,4.403
-2.0,-287.0,4.404
-67.0,-175.0,4.405
-101.0,-31.0,4.406
-70.0,109.0,4.407
-21.0,212.0,4.408
9.0,275.0,4.409
31.0,333.0,4.41
50.0,417.0,4.411
39.0,512.0,4.412
-3.0,561.0,4.413
-43.0,521.0,4.414
-69.0,394.0,4.415
-98.0,216.0,4.416
-109.0,37.0,4.417
-54.0,-133.0,4.418
68.0,-276.0,4.419
180.0,-397.0,4.42
235.0,-508.0,4.421
259.0,-564.0,4.422
256.0,-513.0,4.423
175.0,-350.0,4.424
5.0,-152.0,4.425
-151.0,5.0,4.426
-188.0,116.0,4.427
-123.0,209.0,4.428
-60.0,280.0,4.429
-38.0,315.0,4.43
-6.0,338.0,4.431
67.0,397.0,4.432
137.0,475.0,4.433
153.0,492.0,4.434
134.0,409.0,4.435
126.0,281.0,4.436
128.0,192.0,4.437
95.0,133.0,4.438
1.0,57.0,4.439
-128.0,-55.0,4.44
-233.0,-162.0,4.441
-271.0,-216.0,4.442
-229.0,-231.0,4.443
-144.0,-233.0,4.444
-55.0,-218.0,4.445
36.0,-172.0,4.446
155.0,-119.0,4.447
269.0,-106.0,4.448
284.0,-146.0,4.449
144.0,-208.0,4.45
-97.0,-273.0,4.451
-303.0,-357.0,4.452
-350.0,-444.0,4.453
-199.0,-456.0,4.454
66.0,-333.0,4.455
291.0,-114.0,4.456
381.0,106.0,4.457
371.0,334.0,4.458
312.0,619.0,4.459
185.0,965.0,4.46
-1.0,1248.0,4.461
-120.0,1300.0,4.462
-68.0,1084.0,4.463
50.0,744.0,4.464
58.0,428.0,4.465
-14.0,124.0,4.466
5.0,-238.0,4.467
137.0,-593.0,4.468
237.0,-794.0,4.469
238.0,-835.0,4.47
190.0,-837.0,4.471
75.0,-854.0,4.472
-148.0,-814.0,4.473
-356.0,-678.0,4.474
-360.0,-517.0,4.475
-220.0,-409.0,4.476
-177.0,-378.0,4.477
-282.0,-415.0,4.478
-317.0,-467.0,4.479
-159.0,-452.0,4.48
20.0,-364.0,4.481
47.0,-285.0,4.482
6.0,-256.0,4.483
28.0,-185.0,4.484
64.0,0.0,4.485
15.0,213.0,4.486
-64.0,327.0,4.487
-65.0,345.0,4.488
-16.0,326.0,4.489
-29.0,281.0,4.49
-109.0,215.0,4.491
-192.0,199.0,4.492
-270.0,261.0,4.493
-397.0,321.0,4.494
-520.0,328.0,4.495
-467.0,345.0,4.496
-177.0,425.0,4.497
242.0,501.0,4.498
513.0,470.0,4.499
516.0,361.0,4.5
389.0,281.0,4.501
306.0,241.0,4.502
287.0,142.0,4.503
283.0,-46.0,4.504
298.0,-214.0,4.505
314.0,-260.0,4.506
210.0,-208.0,4.507
-64.0,-175.0,4.508
-329.0,-215.0,4.509
-347.0,-280.0,4.51
-118.0,-285.0,4.511
151.0,-212.0,4.512
285.0,-119.0,4.513
253.0,-60.0,4.514
96.0,-23.0,4.515
-127.0,28.0,4.516
-313.0,92.0,4.517
-408.0,163.0,4.518
-396.0,273.0,4.519
-295.0,461.0,4.52
-109.0,674.0,4.521
121.0,795.0,4.522
277.0,760.0,4.523
283.0,630.0,4.524
218.0,512.0,4.525
199.0,449.0,4.526
202.0,420.0,4.527
147.0,388.0,4.528
118.0,318.0,4.529
273.0,184.0,4.53
544.0,-18.0,4.531
676.0,-284.0,4.532
566.0,-599.0,4.533
361.0,-897.0,4.534
175.0,-1040.0,4.535
-19.0,-962.0,4.536
-191.0,-792.0,4.537
-274.0,-698.0,4.538
-280.0,-711.0,4.539
-318.0,-692.0,4.54
-377.0,-557.0,4.541
-360.0,-379.0,4.542
-328.0,-216.0,4.543
-431.0,-9.0,4.544
-614.0,252.0,4.545
-654.0,425.0,4.546
-480.0,427.0,4.547
-222.0,389.0,4.548
-2.0,446.0,4.549
140.0,507.0,4.55
162.0,388.0,4.551
64.0,114.0,4.552
-36.0,-126.0,4.553
-68.0,-244.0,4.554
-96.0,-335.0,4.555
-169.0,-496.0,4.556
-207.0,-709.0,4.557
-163.0,-943.0,4.558
-114.0,-1114.0,4.559
-93.0,-1130.0,4.56
3.0,-941.0,4.561
210.0,-573.0,4.562
372.0,-93.0,4.563
395.0,448.0,4.564
389.0,995.0,4.565
425.0,1450.0,4.566
351.0,1728.0,4.567
85.0,1781.0,4.568
-168.0,1593.0,4.569
-212.0,1201.0,4.57
-163.0,750.0,4.571
-233.0,402.0,4.572
-384.0,159.0,4.573
-416.0,-129.0,4.574
-265.0,-541.0,4.575
27.0,-964.0,4.576
407.0,-1215.0,4.577
809.0,-1243.0,4.578
955.0,-1080.0,4.579
662.0,-796.0,4.58
130.0,-426.0,4.581
-282.0,31.0,4.582
-458.0,527.0,4.583
-483.0,920.0,4.584
-384.0,1070.0,4.585
-169.0,948.0,4.586
-44.0,635.0,4.587
-195.0,219.0,4.588
-413.0,-217.0,4.589
-293.0,-578.0,4.59
177.0,-786.0,4.591
590.0,-856.0,4.592
698.0,-842.0,4.593
660.0,-732.0,4.594
646.0,-481.0,4.595
581.0,-141.0,4.596
409.0,119.0,4.597
167.0,232.0,4.598
-107.0,249.0,4.599
-475.0,254.0,4.6
-830.0,244.0,4.601
-860.0,207.0,4.602
-458.0,222.0,4.603
72.0,374.0,4.604
372.0,564.0,4.605
387.0,558.0,4.606
256.0,300.0,4.607
79.0,10.0,4.608
-70.0,-102.0,4.609
-70.0,-83.0,4.61
103.0,-83.0,4.611
269.0,-87.0,4.612
214.0,31.0,4.613
-86.0,241.0,4.614
-469.0,365.0,4.615
-725.0,330.0,4.616
-723.0,227.0,4.617
-468.0,72.0,4.618
-151.0,-179.0,4.619
5.0,-497.0,4.62
11.0,-695.0,4.621
91.0,-647.0,4.622
346.0,-468.0,4.623
584.0,-356.0,4.624
573.0,-362.0,4.625
354.0,-376.0,4.626
145.0,-299.0,4.627
48.0,-118.0,4.628
-3.0,123.0,4.629
-76.0,372.0,4.63
-162.0,584.0,4.631
-272.0,738.0,4.632
-428.0,836.0,4.633
-562.0,864.0,4.634
-540.0,792.0,4.635
-319.0,591.0,4.636
-20.0,306.0,4.637
252.0,-21.0,4.638
393.0,-285.0,4.639
364.0,-433.0,4.64
206.0,-490.0,4.641
37.0,-487.0,4.642
-25.0,-432.0,4.643
28.0,-358.0,4.644
99.0,-340.0,4.645
96.0,-399.0,4.646
27.0,-443.0,4.647
-39.0,-381.0,4.648
-45.0,-264.0,4.649
-5.0,-196.0,4.65
30.0,-159.0,4.651
29.0,-70.0,4.652
6.0,35.0,4.653
-16.0,43.0,4.654
-49.0,-21.0,4.655
-105.0,-13.0,4.656
-162.0,86.0,4.657
-217.0,152.0,4.658
-235.0,117.0,4.659
-124.0,96.0,4.66
185.0,199.0,4.661
558.0,371.0,4.662
706.0,485.0,4.663
509.0,497.0,4.664
175.0,403.0,4.665
-31.0,165.0,4.666
-82.0,-193.0,4.667
-83.0,-525.0,4.668
-62.0,-684.0,4.669
-44.0,-685.0,4.67
-209.0,-629.0,4.671
-666.0,-538.0,4.672
-1144.0,-347.0,4.673
-1175.0,-53.0,4.674
-638.0,246.0,4.675
85.0,461.0,4.676
574.0,601.0,4.677
813.0,727.0,4.678
892.0,817.0,4.679
799.0,803.0,4.68
551.0,666.0,4.681
377.0,497.0,4.682
447.0,367.0,4.683
587.0,238.0,4.684
526.0,17.0,4.685
297.0,-282.0,4.686
94.0,-511.0,4.687
-79.0,-558.0,4.688
-303.0,-465.0,4.689
-468.0,-342.0,4.69
-441.0,-232.0,4.691
-345.0,-118.0,4.692
-341.0,9.0,4.693
-328.0,140.0,4.694
-160.0,275.0,4.695
24.0,370.0,4.696
26.0,365.0,4.697
-87.0,252.0,4.698
-113.0,132.0,4.699
-49.0,51.0,4.7
-24.0,-79.0,4.701
-18.0,-344.0,4.702
51.0,-676.0,4.703
86.0,-932.0,4.704
-47.0,-1047.0,4.705
-248.0,-1031.0,4.706
-313.0,-888.0,4.707
-241.0,-623.0,4.708
-156.0,-260.0,4.709
-69.0,171.0,4.71
59.0,635.0,4.711
127.0,1037.0,4.712
5.0,1254.0,4.713
-203.0,1276.0,4.714
-251.0,1223.0,4.715
-92.0,1147.0,4.716
67.0,945.0,4.717
103.0,452.0,4.718
103.0,-208.0,4.719
192.0,-751.0,4.72
303.0,-1029.0,4.721
291.0,-1120.0,4.722
178.0,-1094.0,4.723
98.0,-869.0,4.724
32.0,-437.0,4.725
-144.0,-8.0,4.726
-360.0,228.0,4.727
-367.0,354.0,4.728
-141.0,528.0,4.729
-14.0,679.0,4.73
-236.0,618.0,4.731
-575.0,358.0,4.732
-566.0,97.0,4.733
-56.0,-91.0,4.734
641.0,-313.0,4.735
1091.0,-607.0,4.736
1143.0,-829.0,4.737
919.0,-866.0,4.738
637.0,-714.0,4.739
402.0,-484.0,4.74
197.0,-293.0,4.741
-5.0,-164.0,4.742
-187.0,-50.0,4.743
-309.0,89.0,4.744
-341.0,226.0,4.745
-260.0,307.0,4.746
-95.0,361.0,4.747
26.0,465.0,4.748
-17.0,598.0,4.749
-194.0,653.0,4.75
-335.0,596.0,4.751
-317.0,515.0,4.752
-185.0,452.0,4.753
-50.0,319.0,4.754
46.0,67.0,4.755
115.0,-184.0,4.756
122.0,-293.0,4.757
0.0,-274.0,4.758
-208.0,-223.0,4.759
-336.0,-167.0,4.76
-274.0,-74.0,4.761
-129.0,25.0,4.762
-83.0,35.0,4.763
-152.0,-35.0,4.764
-189.0,-61.0,4.765
-123.0,14.0,4.766
-39.0,133.0,4.767
-11.0,248.0,4.768
22.0,354.0,4.769
113.0,370.0,4.77
189.0,165.0,4.771
155.0,-223.0,4.772
46.0,-530.0,4.773
-24.0,-548.0,4.774
-2.0,-356.0,4.775
83.0,-152.0,4.776
159.0,-14.0,4.777
175.0,81.0,4.778
128.0,105.0,4.779
79.0,12.0,4.78
52.0,-153.0,4.781
4.0,-297.0,4.782
-32.0,-380.0,4.783
71.0,-406.0,4.784
275.0,-362.0,4.785
305.0,-255.0,4.786
27.0,-106.0,4.787
-338.0,98.0,4.788
-580.0,361.0,4.789
-790.0,569.0,4.79
-1054.0,586.0,4.791
-1147.0,456.0,4.792
-863.0,352.0,4.793
-365.0,330.0,4.794
114.0,312.0,4.795
618.0,296.0,4.796
1154.0,352.0,4.797
1526.0,388.0,4.798
1469.0,258.0,4.799
1106.0,115.0,4.8
761.0,-65.0,4.801
531.0,-232.0,4.802
370.0,-360.0,4.803
315.0,-484.0,4.804
345.0,-595.0,4.805
269.0,-624.0,4.806
-6.0,-405.0,4.807
-329.0,-196.0,4.808
-533.0,-21.0,4.809
-625.0,139.0,4.81
-652.0,255.0,4.811
-634.0,305.0,4.812
-636.0,152.0,4.813
-684.0,-26.0,4.814
-619.0,-278.0,4.815
-288.0,-493.0,4.816
147.0,-594.0,4.817
443.0,-646.0,4.818
477.0,-511.0,4.819
354.0,-361.0,4.82
218.0,-221.0,4.821
134.0,-55.0,4.822
118.0,116.0,4.823
107.0,223.0,4.824
-2.0,235.0,4.825
-192.0,186.0,4.826
-329.0,119.0,4.827
-364.0,72.0,4.828
-359.0,78.0,4.829
-317.0,153.0,4.83
-208.0,271.0,4.831
-124.0,391.0,4.832
-167.0,479.0,4.833
-228.0,496.0,4.834
-136.0,395.0,4.835
57.0,178.0,4.836
182.0,-68.0,4.837
250.0,-288.0,4.838
343.0,-424.0,4.839
392.0,-455.0,4.84
281.0,-346.0,4.841
102.0,-92.0,4.842
21.0,196.0,4.843
-18.0,364.0,4.844
-136.0,360.0,4.845
-262.0,266.0,4.846
-279.0,159.0,4.847
-263.0,53.0,4.848
-282.0,-18.0,4.849
-208.0,12.0,4.85
-32.0,113.0,4.851
-52.0,146.0,4.852
-370.0,39.0,4.853
-546.0,-122.0,4.854
-218.0,-238.0,4.855
268.0,-320.0,4.856
412.0,-382.0,4.857
297.0,-354.0,4.858
303.0,-168.0,4.859
400.0,89.0,4.86
350.0,268.0,4.861
372.0,378.0,4.862
770.0,527.0,4.863
1167.0,719.0,4.864
964.0,833.0,4.865
349.0,816.0,4.866
-18.0,741.0,4.867
-75.0,631.0,4.868
-255.0,407.0,4.869
-543.0,73.0,4.87
-534.0,-223.0,4.871
-251.0,-394.0,4.872
-86.0,-523.0,4.873
-78.0,-695.0,4.874
49.0,-878.0,4.875
239.0,-1048.0,4.876
208.0,-1240.0,4.877
-53.0,-1447.0,4.878
-263.0,-1492.0,4.879
-388.0,-1259.0,4.88
-619.0,-842.0,4.881
-876.0,-376.0,4.882
-800.0,130.0,4.883
-307.0,651.0,4.884
258.0,1023.0,4.885
549.0,1114.0,4.886
554.0,1028.0,4.887
455.0,982.0,4.888
362.0,1036.0,4.889
261.0,1054.0,4.89
139.0,916.0,4.891
31.0,642.0,4.892
-36.0,339.0,4.893
-97.0,65.0,4.894
-200.0,-222.0,4.895
-286.0,-586.0,4.896
-243.0,-963.0,4.897
-51.0,-1221.0,4.898
138.0,-1168.0,4.899
162.0,-796.0,4.9
24.0,-292.0,4.901
-154.0,157.0,4.902
-274.0,479.0,4.903
-287.0,644.0,4.904
-184.0,606.0,4.905
-42.0,387.0,4.906
5.0,113.0,4.907
-74.0,-115.0,4.908
-154.0,-325.0,4.909
-113.0,-538.0,4.91
30.0,-648.0,4.911
168.0,-553.0,4.912
219.0,-324.0,4.913
165.0,-144.0,4.914
63.0,-100.0,4.915
30.0,-132.0,4.916
98.0,-158.0,4.917
164.0,-158.0,4.918
74.0,-117.0,4.919
-149.0,-2.0,4.92
-309.0,192.0,4.921
-280.0,413.0,4.922
-132.0,579.0,4.923
-32.0,654.0,4.924
-61.0,659.0,4.925
-136.0,664.0,4.926
-101.0,705.0,4.927
70.0,721.0,4.928
217.0,597.0,4.929
218.0,330.0,4.93
179.0,76.0,4.931
274.0,-19.0,4.932
425.0,-5.0,4.933
401.0,-23.0,4.934
184.0,-102.0,4.935
-6.0,-194.0,4.936
-83.0,-324.0,4.937
-244.0,-608.0,4.938
-570.0,-981.0,4.939
-771.0,-1198.0,4.94
-492.0,-1106.0,4.941
164.0,-817.0,4.942
721.0,-511.0,4.943
892.0,-187.0,4.944
766.0,244.0,4.945
513.0,722.0,4.946
198.0,1036.0,4.947
-62.0,1080.0,4.948
-87.0,957.0,4.949
98.0,804.0,4.95
244.0,644.0,4.951
204.0,450.0,4.952
76.0,240.0,4.953
-13.0,25.0,4.954
-54.0,-224.0,4.955
-50.0,-483.0,4.956
-5.0,-632.0,4.957
10.0,-569.0,4.958
-81.0,-343.0,4.959
-211.0,-134.0,4.96
-244.0,23.0,4.961
-198.0,143.0,4.962
-195.0,141.0,4.963
-248.0,119.0,4.964
-276.0,33.0,4.965
-269.0,-63.0,4.966
-287.0,-193.0,4.967
-307.0,-323.0,4.968
-269.0,-451.0,4.969
-192.0,-579.0,4.97
-149.0,-708.0,4.971
-144.0,-753.0,4.972
-132.0,-545.0,4.973
-105.0,-290.0,4.974
-96.0,103.0,4.975
-96.0,431.0,4.976
-80.0,560.0,4.977
-57.0,623.0,4.978
-50.0,429.0,4.979
-42.0,201.0,4.98
18.0,-11.0,4.981
141.0,-241.0,4.982
257.0,-475.0,4.983
274.0,-597.0,4.984
159.0,-529.0,4.985
-15.0,-306.0,4.986
-92.0,12.0,4.987
7.0,370.0,4.988
173.0,667.0,4.989
228.0,794.0,4.99
152.0,767.0,4.991
92.0,706.0,4.992
137.0,657.0,4.993
207.0,545.0,4.994
222.0,332.0,4.995
210.0,57.0,4.996
206.0,-245.0,4.997
171.0,-646.0,4.998
79.0,-1052.0,4.999
-24.0,-1236.0,5.0
-89.0,-1081.0,5.001
-134.0,-708.0,5.002
-177.0,-320.0,5.003
-179.0,0.0,5.004
-123.0,261.0,5.005
-62.0,452.0,5.006
-44.0,551.0,5.007
-52.0,572.0,5.008
-64.0,536.0,5.009
-91.0,439.0,5.01
-117.0,319.0,5.011
-93.0,242.0,5.012
1.0,220.0,5.013
118.0,191.0,5.014
207.0,124.0,5.015
239.0,61.0,5.016
204.0,23.0,5.017
100.0,-29.0,5.018
-8.0,-112.0,5.019
-46.0,-177.0,5.02
-26.0,-181.0,5.021
-26.0,-146.0,5.022
-64.0,-119.0,5.023
-71.0,-99.0,5.024
-16.0,-61.0,5.025
25.0,-3.0,5.026
-6.0,51.0,5.027
-59.0,89.0,5.028
-59.0,98.0,5.029
-24.0,70.0,5.03
-22.0,16.0,5.031
-53.0,-30.0,5.032
-58.0,-36.0,5.033
-25.0,-4.0,5.034
13.0,37.0,5.035
46.0,63.0,5.036
86.0,70.0,5.037
119.0,62.0,5.038
108.0,49.0,5.039
52.0,39.0,5.04
13.0,35.0,5.041
20.0,37.0,5.042
38.0,34.0,5.043
33.0,25.0,5.044
12.0,8.0,5.045
-3.0,-10.0,5.046
-5.0,-28.0,5.047
-5.0,-37.0,5.048
-6.0,-37.0,5.049
-7.0,-38.0,5.05
-10.0,-45.0,5.051
-15.0,-54.0,5.052
-22.0,-56.0,5.053
-27.0,-52.0,5.054
-31.0,-49.0,5.055
-24.0,-48.0,5.056
-3.0,-48.0,5.057
18.0,-49.0,5.058
21.0,-48.0,5.059
11.0,-45.0,5.06
5.0,-41.0,5.061
7.0,-34.0,5.062
5.0,-28.0,5.063
-3.0,-25.0,5.064
-5.0,-23.0,5.065
-1.0,-20.0,5.066
1.0,-18.0,5.067
-2.0,-22.0,5.068
-6.0,-29.0,5.069
-11.0,-31.0,5.07
-16.0,-24.0,5.071
-19.0,-14.0,5.072
-22.0,-11.0,5.073
-27.0,-12.0,5.074
-31.0,-8.0,5.075
-28.0,-4.0,5.076
-19.0,0.0,5.077
-15.0,-5.0,5.078
-19.0,-5.0,5.079
-20.0,-1.0,5.08
-10.0,-5.0,5.081
2.0,-12.0,5.082
10.0,-15.0,5.083
13.0,-9.0,5.084
10.0,0.0,5.085
4.0,5.0,5.086
6.0,7.0,5.087
15.0,11.0,5.088
19.0,8.0,5.089
8.0,-3.0,5.09
2.0,-11.0,5.091
13.0,-10.0,5.092
24.0,-2.0,5.093
13.0,1.0,5.094
-6.0,-4.0,5.095
-11.0,-3.0,5.096
-3.0,6.0,5.097
0.0,14.0,5.098
7.0,12.0,5.099
15.0,7.0,5.1
17.0,2.0,5.101
11.0,1.0,5.102
15.0,0.0,5.103
29.0,3.0,5.104
27.0,8.0,5.105
5.0,11.0,5.106
-5.0,4.0,5.107
4.0,-5.0,5.108
10.0,-13.0,5.109
-4.0,-16.0,5.11
-9.0,-12.0,5.111
9.0,-6.0,5.112
27.0,2.0,5.113
28.0,5.0,5.114
22.0,0.0,5.115
19.0,-3.0,5.116
7.0,-1.0,5.117
-20.0,2.0,5.118
-42.0,4.0,5.119
-45.0,1.0,5.12
-36.0,-9.0,5.121
-28.0,-13.0,5.122
-20.0,-7.0,5.123
-10.0,3.0,5.124
-8.0,3.0,5.125
-8.0,-6.0,5.126
0.0,-9.0,5.127
13.0,-1.0,5.128
14.0,7.0,5.129
10.0,5.0,5.13
22.0,2.0,5.131
44.0,6.0,5.132
39.0,11.0,5.133
-5.0,7.0,5.134
-51.0,2.0,5.135
-62.0,9.0,5.136
-46.0,22.0,5.137
-25.0,21.0,5.138
-9.0,8.0,5.139
13.0,-3.0,5.14
45.0,-1.0,5.141
83.0,12.0,5.142
115.0,23.0,5.143
118.0,23.0,5.144
85.0,19.0,5.145
37.0,18.0,5.146
8.0,20.0,5.147
-1.0,20.0,5.148
-6.0,16.0,5.149
-9.0,6.0,5.15
-6.0,-3.0,5.151
0.0,-5.0,5.152
0.0,0.0,5.153
-4.0,5.0,5.154
-8.0,4.0,5.155
-16.0,-3.0,5.156
-30.0,-10.0,5.157
-54.0,-14.0,5.158
-71.0,-13.0,5.159
-76.0,-12.0,5.16
-62.0,-15.0,5.161
-27.0,-15.0,5.162
20.0,-11.0,5.163
50.0,-4.0,5.164
53.0,3.0,5.165
38.0,9.0,5.166
26.0,12.0,5.167
16.0,11.0,5.168
-1.0,1.0,5.169
-24.0,-9.0,5.17
-43.0,-13.0,5.171
-45.0,-10.0,5.172
-33.0,-6.0,5.173
-17.0,-7.0,5.174
-4.0,-8.0,5.175
1.0,-7.0,5.176
5.0,-3.0,5.177
7.0,1.0,5.178
11.0,4.0,5.179
12.0,1.0,5.18
15.0,-6.0,5.181
21.0,-9.0,5.182
21.0,-11.0,5.183
11.0,-15.0,5.184
-4.0,-16.0,5.185
-13.0,-12.0,5.186
-12.0,-6.0,5.187
-7.0,-4.0,5.188
-3.0,-5.0,5.189
-6.0,-5.0,5.19
-13.0,-3.0,5.191
-19.0,-5.0,5.192
-30.0,-7.0,5.193
-41.0,-3.0,5.194
-38.0,1.0,5.195
-10.0,1.0,5.196
29.0,3.0,5.197
57.0,8.0,5.198
67.0,15.0,5.199
67.0,18.0,5.2
65.0,15.0,5.201
50.0,16.0,5.202
18.0,16.0,5.203
-16.0,10.0,5.204
-40.0,4.0,5.205
-58.0,3.0,5.206
-76.0,2.0,5.207
-76.0,-3.0,5.208
-36.0,-5.0,5.209
31.0,1.0,5.21
87.0,3.0,5.211
101.0,-5.0,5.212
88.0,-13.0,5.213
75.0,-2.0,5.214
71.0,20.0,5.215
60.0,32.0,5.216
30.0,25.0,5.217
-19.0,6.0,5.218
-52.0,-7.0,5.219
-46.0,-13.0,5.22
-7.0,0.0,5.221
36.0,11.0,5.222
68.0,9.0,5.223
87.0,9.0,5.224
81.0,15.0,5.225
42.0,20.0,5.226
-5.0,17.0,5.227
-22.0,11.0,5.228
-10.0,1.0,5.229
-14.0,-6.0,5.23
-47.0,-6.0,5.231
-74.0,-6.0,5.232
-72.0,-10.0,5.233
-62.0,-14.0,5.234
-63.0,-12.0,5.235
-61.0,-11.0,5.236
-43.0,-13.0,5.237
-14.0,-15.0,5.238
12.0,-18.0,5.239
26.0,-19.0,5.24
28.0,-17.0,5.241
16.0,-10.0,5.242
-2.0,-6.0,5.243
-13.0,-12.0,5.244
-17.0,-20.0,5.245
-28.0,-24.0,5.246
-43.0,-24.0,5.247
-38.0,-18.0,5.248
-17.0,-5.0,5.249
-2.0,9.0,5.25
0.0,9.0,5.251
-1.0,-6.0,5.252
3.0,-21.0,5.253
3.0,-19.0,5.254
4.0,-7.0,5.255
17.0,0.0,5.256
37.0,-1.0,5.257
38.0,-3.0,5.258
26.0,17.0,5.259
34.0,51.0,5.26
80.0,76.0,5.261
122.0,85.0,5.262
124.0,76.0,5.263
89.0,57.0,5.264
51.0,30.0,5.265
19.0,0.0,5.266
-1.0,-26.0,5.267
-3.0,-43.0,5.268
11.0,-55.0,5.269
13.0,-65.0,5.27
-10.0,-63.0,5.271
-41.0,-43.0,5.272
-57.0,-5.0,5.273
-69.0,37.0,5.274
-97.0,72.0,5.275
-119.0,100.0,5.276
-106.0,121.0,5.277
-56.0,122.0,5.278
0.0,102.0,5.279
35.0,66.0,5.28
47.0,23.0,5.281
46.0,-13.0,5.282
38.0,-44.0,5.283
29.0,-69.0,5.284
21.0,-87.0,5.285
16.0,-105.0,5.286
6.0,-127.0,5.287
-3.0,-153.0,5.288
-3.0,-163.0,5.289
-1.0,-144.0,5.29
-8.0,-95.0,5.291
-21.0,-38.0,5.292
-26.0,-3.0,5.293
-19.0,0.0,5.294
-15.0,-14.0,5.295
-20.0,-21.0,5.296
-28.0,-10.0,5.297
-33.0,0.0,5.298
-34.0,-2.0,5.299
-31.0,-10.0,5.3
-17.0,-11.0,5.301
3.0,0.0,5.302
18.0,13.0,5.303
17.0,23.0,5.304
8.0,32.0,5.305
3.0,40.0,5.306
0.0,42.0,5.307
-8.0,42.0,5.308
-13.0,51.0,5.309
-9.0,80.0,5.31
2.0,122.0,5.311
13.0,163.0,5.312
17.0,199.0,5.313
17.0,233.0,5.314
15.0,270.0,5.315
16.0,293.0,5.316
22.0,273.0,5.317
34.0,185.0,5.318
48.0,65.0,5.319
59.0,-37.0,5.32
65.0,-114.0,5.321
67.0,-207.0,5.322
65.0,-330.0,5.323
60.0,-436.0,5.324
51.0,-483.0,5.325
37.0,-490.0,5.326
20.0,-477.0,5.327
0.0,-416.0,5.328
-25.0,-283.0,5.329
-51.0,-109.0,5.33
-68.0,33.0,5.331
-73.0,113.0,5.332
-70.0,144.0,5.333
-66.0,156.0,5.334
-57.0,176.0,5.335
-35.0,219.0,5.336
-4.0,279.0,5.337
24.0,333.0,5.338
39.0,352.0,5.339
38.0,317.0,5.34
31.0,228.0,5.341
20.0,115.0,5.342
4.0,0.0,5.343
-12.0,-111.0,5.344
-20.0,-209.0,5.345
-13.0,-264.0,5.346
-1.0,-251.0,5.347
6.0,-198.0,5.348
11.0,-155.0,5.349
19.0,-134.0,5.35
26.0,-96.0,5.351
17.0,-34.0,5.352
-8.0,22.0,5.353
-29.0,65.0,5.354
-35.0,125.0,5.355
-28.0,202.0,5.356
-18.0,244.0,5.357
-7.0,225.0,5.358
4.0,189.0,5.359
4.0,150.0,5.36
-1.0,104.0,5.361
8.0,48.0,5.362
41.0,-40.0,5.363
77.0,-101.0,5.364
90.0,-83.0,5.365
73.0,-63.0,5.366
46.0,-39.0,5.367
23.0,-24.0,5.368
5.0,-37.0,5.369
-5.0,-47.0,5.37
-12.0,-47.0,5.371
-22.0,-42.0,5.372
-34.0,-23.0,5.373
-44.0,-6.0,5.374
-43.0,2.0,5.375
-37.0,8.0,5.376
-32.0,4.0,5.377
-28.0,-8.0,5.378
-24.0,-45.0,5.379
-22.0,-56.0,5.38
-26.0,-23.0,5.381
-28.0,31.0,5.382
-23.0,62.0,5.383
-16.0,55.0,5.384
-13.0,30.0,5.385
-12.0,3.0,5.386
-5.0,-19.0,5.387
9.0,-20.0,5.388
20.0,27.0,5.389
25.0,115.0,5.39
27.0,185.0,5.391
40.0,187.0,5.392
72.0,131.0,5.393
106.0,64.0,5.394
119.0,5.0,5.395
102.0,-62.0,5.396
82.0,-144.0,5.397
73.0,-235.0,5.398
65.0,-296.0,5.399
37.0,-307.0,5.4
-6.0,-284.0,5.401
-46.0,-236.0,5.402
-73.0,-170.0,5.403
-96.0,-86.0,5.404
-122.0,-3.0,5.405
-144.0,53.0,5.406
-148.0,76.0,5.407
-121.0,84.0,5.408
-59.0,96.0,5.409
25.0,110.0,5.41
102.0,124.0,5.411
147.0,145.0,5.412
161.0,167.0,5.413
154.0,165.0,5.414
131.0,135.0,5.415
85.0,105.0,5.416
18.0,107.0,5.417
-50.0,121.0,5.418
-81.0,117.0,5.419
-65.0,88.0,5.42
-30.0,54.0,5.421
-1.0,40.0,5.422
31.0,37.0,5.423
69.0,42.0,5.424
88.0,49.0,5.425
70.0,48.0,5.426
28.0,41.0,5.427
-7.0,44.0,5.428
-29.0,57.0,5.429
-47.0,54.0,5.43
-54.0,14.0,5.431
-44.0,-39.0,5.432
-32.0,-66.0,5.433
-34.0,-65.0,5.434
-42.0,-76.0,5.435
-38.0,-115.0,5.436
-28.0,-156.0,5.437
-28.0,-179.0,5.438
-32.0,-179.0,5.439
-28.0,-167.0,5.44
-20.0,-150.0,5.441
-16.0,-111.0,5.442
-12.0,-52.0,5.443
-3.0,9.0,5.444
1.0,39.0,5.445
-7.0,23.0,5.446
-16.0,-20.0,5.447
-17.0,-69.0,5.448
-17.0,-134.0,5.449
-24.0,-227.0,5.45
-30.0,-310.0,5.451
-20.0,-319.0,5.452
-4.0,-238.0,5.453
0.0,-117.0,5.454
-8.0,-6.0,5.455
-17.0,85.0,5.456
-21.0,157.0,5.457
-26.0,203.0,5.458
-29.0,217.0,5.459
-27.0,205.0,5.46
-24.0,177.0,5.461
-25.0,151.0,5.462
-24.0,140.0,5.463
-14.0,146.0,5.464
4.0,149.0,5.465
29.0,119.0,5.466
63.0,55.0,5.467
96.0,-21.0,5.468
104.0,-81.0,5.469
84.0,-110.0,5.47
66.0,-102.0,5.471
68.0,-57.0,5.472
74.0,13.0,5.473
55.0,80.0,5.474
21.0,113.0,5.475
6.0,100.0,5.476
12.0,67.0,5.477
12.0,40.0,5.478
-1.0,27.0,5.479
-15.0,6.0,5.48
-14.0,-22.0,5.481
-4.0,-34.0,5.482
1.0,-13.0,5.483
0.0,21.0,5.484
-4.0,48.0,5.485
-5.0,70.0,5.486
-1.0,85.0,5.487
15.0,85.0,5.488
32.0,72.0,5.489
43.0,58.0,5.49
49.0,53.0,5.491
52.0,43.0,5.492
47.0,18.0,5.493
26.0,-25.0,5.494
0.0,-93.0,5.495
-14.0,-167.0,5.496
-15.0,-205.0,5.497
-23.0,-166.0,5.498
-40.0,-65.0,5.499
-55.0,31.0,5.5
-59.0,48.0,5.501
-56.0,-7.0,5.502
-53.0,-73.0,5.503
-47.0,-93.0,5.504
-40.0,-75.0,5.505
-33.0,-67.0,5.506
-23.0,-82.0,5.507
0.0,-88.0,5.508
23.0,-68.0,5.509
29.0,-46.0,5.51
16.0,-46.0,5.511
2.0,-50.0,5.512
-4.0,-44.0,5.513
-9.0,-41.0,5.514
-16.0,-50.0,5.515
-20.0,-50.0,5.516
-16.0,-25.0,5.517
-17.0,16.0,5.518
-18.0,54.0,5.519
-14.0,81.0,5.52
-2.0,91.0,5.521
10.0,88.0,5.522
16.0,74.0,5.523
18.0,64.0,5.524
19.0,61.0,5.525
22.0,55.0,5.526
27.0,45.0,5.527
32.0,45.0,5.528
32.0,52.0,5.529
28.0,50.0,5.53
24.0,40.0,5.531
23.0,35.0,5.532
23.0,35.0,5.533
20.0,28.0,5.534
16.0,16.0,5.535
16.0,15.0,5.536
21.0,26.0,5.537
20.0,25.0,5.538
13.0,12.0,5.539
4.0,-2.0,5.54
3.0,-8.0,5.541
9.0,-5.0,5.542
15.0,0.0,5.543
17.0,0.0,5.544
13.0,-4.0,5.545
8.0,-9.0,5.546
6.0,-9.0,5.547
2.0,0.0,5.548
-9.0,4.0,5.549
-26.0,-5.0,5.55
-35.0,-17.0,5.551
-30.0,-20.0,5.552
-17.0,-9.0,5.553
-8.0,-3.0,5.554
-1.0,-6.0,5.555
4.0,-12.0,5.556
9.0,-16.0,5.557
6.0,-20.0,5.558
0.0,-18.0,5.559
-7.0,-14.0,5.56
-11.0,-15.0,5.561
-11.0,-21.0,5.562
-3.0,-26.0,5.563
3.0,-20.0,5.564
4.0,-11.0,5.565
-1.0,-10.0,5.566
-1.0,-14.0,5.567
3.0,-15.0,5.568
1.0,-15.0,5.569
-10.0,-14.0,5.57
-15.0,-10.0,5.571
-2.0,3.0,5.572
14.0,15.0,5.573
10.0,12.0,5.574
-6.0,-3.0,5.575
-11.0,-13.0,5.576
3.0,-11.0,5.577
12.0,-8.0,5.578
4.0,-12.0,5.579
-11.0,-19.0,5.58
-20.0,-24.0,5.581
-21.0,-25.0,5.582
-20.0,-29.0,5.583
-18.0,-34.0,5.584
-16.0,-31.0,5.585
-5.0,-19.0,5.586
14.0,3.0,5.587
33.0,26.0,5.588
37.0,40.0,5.589
26.0,37.0,5.59
17.0,30.0,5.591
11.0,27.0,5.592
7.0,25.0,5.593
0.0,15.0,5.594
2.0,10.0,5.595
13.0,16.0,5.596
19.0,27.0,5.597
16.0,25.0,5.598
14.0,13.0,5.599
15.0,4.0,5.6
10.0,-2.0,5.601
0.0,-4.0,5.602
-2.0,-8.0,5.603
7.0,-7.0,5.604
13.0,-7.0,5.605
9.0,-9.0,5.606
8.0,-8.0,5.607
13.0,-5.0,5.608
8.0,-3.0,5.609
-5.0,-5.0,5.61
-11.0,-7.0,5.611
-1.0,1.0,5.612
8.0,12.0,5.613
6.0,16.0,5.614
2.0,14.0,5.615
5.0,16.0,5.616
8.0,22.0,5.617
2.0,32.0,5.618
-3.0,58.0,5.619
-6.0,104.0,5.62
-6.0,141.0,5.621
-4.0,138.0,5.622
4.0,94.0,5.623
14.0,57.0,5.624
17.0,51.0,5.625
14.0,52.0,5.626
13.0,16.0,5.627
17.0,-52.0,5.628
18.0,-109.0,5.629
15.0,-142.0,5.63
7.0,-171.0,5.631
-1.0,-209.0,5.632
-6.0,-232.0,5.633
-6.0,-223.0,5.634
-5.0,-196.0,5.635
-5.0,-160.0,5.636
-8.0,-116.0,5.637
-13.0,-57.0,5.638
-17.0,12.0,5.639
-22.0,84.0,5.64
-31.0,159.0,5.641
-34.0,213.0,5.642
-13.0,200.0,5.643
4.0,182.0,5.644
11.0,150.0,5.645
18.0,119.0,5.646
25.0,94.0,5.647
29.0,55.0,5.648
20.0,-25.0,5.649
11.0,-102.0,5.65
4.0,-171.0,5.651
-3.0,-225.0,5.652
-10.0,-229.0,5.653
-16.0,-217.0,5.654
-18.0,-155.0,5.655
-19.0,-99.0,5.656
-9.0,-57.0,5.657
-1.0,-15.0,5.658
-4.0,27.0,5.659
-16.0,76.0,5.66
-24.0,132.0,5.661
-18.0,182.0,5.662
1.0,198.0,5.663
19.0,184.0,5.664
28.0,171.0,5.665
33.0,164.0,5.666
42.0,140.0,5.667
49.0,92.0,5.668
48.0,49.0,5.669
39.0,17.0,5.67
30.0,-36.0,5.671
20.0,-118.0,5.672
5.0,-184.0,5.673
-11.0,-193.0,5.674
-31.0,-170.0,5.675
-49.0,-154.0,5.676
-56.0,-143.0,5.677
-48.0,-119.0,5.678
-32.0,-87.0,5.679
-25.0,-72.0,5.68
-27.0,-69.0,5.681
-28.0,-43.0,5.682
-20.0,8.0,5.683
-9.0,59.0,5.684
-7.0,99.0,5.685
-14.0,141.0,5.686
-15.0,201.0,5.687
-6.0,268.0,5.688
6.0,318.0,5.689
10.0,323.0,5.69
8.0,266.0,5.691
14.0,170.0,5.692
37.0,88.0,5.693
72.0,53.0,5.694
103.0,40.0,5.695
115.0,11.0,5.696
109.0,-41.0,5.697
89.0,-124.0,5.698
70.0,-233.0,5.699
43.0,-340.0,5.7
1.0,-398.0,5.701
-47.0,-370.0,5.702
-74.0,-281.0,5.703
-67.0,-189.0,5.704
-51.0,-122.0,5.705
-59.0,-82.0,5.706
-81.0,-51.0,5.707
-88.0,-6.0,5.708
-86.0,64.0,5.709
-96.0,133.0,5.71
-105.0,163.0,5.711
-69.0,165.0,5.712
10.0,178.0,5.713
78.0,211.0,5.714
118.0,229.0,5.715
158.0,205.0,5.716
204.0,165.0,5.717
206.0,127.0,5.718
143.0,105.0,5.719
65.0,84.0,5.72
35.0,64.0,5.721
39.0,27.0,5.722
31.0,-62.0,5.723
6.0,-143.0,5.724
-12.0,-197.0,5.725
-20.0,-238.0,5.726
-34.0,-234.0,5.727
-53.0,-236.0,5.728
-65.0,-264.0,5.729
-67.0,-293.0,5.73
-72.0,-327.0,5.731
-89.0,-333.0,5.732
-121.0,-249.0,5.733
-156.0,-142.0,5.734
-164.0,31.0,5.735
-130.0,200.0,5.736
-80.0,353.0,5.737
-44.0,490.0,5.738
-28.0,521.0,5.739
-6.0,460.0,5.74
41.0,365.0,5.741
87.0,270.0,5.742
109.0,147.0,5.743
113.0,2.0,5.744
111.0,-90.0,5.745
107.0,-97.0,5.746
99.0,-81.0,5.747
84.0,-110.0,5.748
62.0,-170.0,5.749
35.0,-203.0,5.75
9.0,-211.0,5.751
-9.0,-237.0,5.752
-29.0,-286.0,5.753
-50.0,-317.0,5.754
-58.0,-293.0,5.755
-41.0,-202.0,5.756
-18.0,-51.0,5.757
-15.0,189.0,5.758
-29.0,368.0,5.759
-35.0,437.0,5.76
-19.0,415.0,5.761
0.0,367.0,5.762
7.0,311.0,5.763
11.0,233.0,5.764
23.0,153.0,5.765
46.0,121.0,5.766
70.0,145.0,5.767
83.0,167.0,5.768
84.0,128.0,5.769
73.0,25.0,5.77
55.0,-93.0,5.771
31.0,-185.0,5.772
-3.0,-237.0,5.773
-42.0,-262.0,5.774
-68.0,-281.0,5.775
-68.0,-311.0,5.776
-51.0,-350.0,5.777
-37.0,-405.0,5.778
-38.0,-452.0,5.779
-52.0,-453.0,5.78
-73.0,-389.0,5.781
-87.0,-268.0,5.782
-89.0,-126.0,5.783
-73.0,15.0,5.784
-39.0,162.0,5.785
-3.0,310.0,5.786
24.0,436.0,5.787
35.0,511.0,5.788
42.0,519.0,5.789
57.0,471.0,5.79
71.0,397.0,5.791
74.0,324.0,5.792
67.0,269.0,5.793
68.0,233.0,5.794
80.0,198.0,5.795
84.0,130.0,5.796
74.0,18.0,5.797
64.0,-135.0,5.798
64.0,-279.0,5.799
66.0,-405.0,5.8
54.0,-480.0,5.801
29.0,-537.0,5.802
11.0,-537.0,5.803
8.0,-524.0,5.804
3.0,-468.0,5.805
-20.0,-391.0,5.806
-68.0,-253.0,5.807
-121.0,-103.0,5.808
-157.0,85.0,5.809
-161.0,279.0,5.81
-137.0,488.0,5.811
-104.0,662.0,5.812
-77.0,726.0,5.813
-53.0,711.0,5.814
-24.0,453.0,5.815
11.0,207.0,5.816
39.0,-4.0,5.817
53.0,-184.0,5.818
59.0,-245.0,5.819
66.0,-293.0,5.82
75.0,-348.0,5.821
74.0,-380.0,5.822
58.0,-378.0,5.823
31.0,-316.0,5.824
-1.0,-166.0,5.825
-28.0,46.0,5.826
-33.0,232.0,5.827
-18.0,317.0,5.828
3.0,325.0,5.829
17.0,334.0,5.83
29.0,371.0,5.831
44.0,381.0,5.832
57.0,282.0,5.833
56.0,58.0,5.834
39.0,-212.0,5.835
5.0,-418.0,5.836
-35.0,-497.0,5.837
-69.0,-464.0,5.838
-60.0,-340.0,5.839
-21.0,-162.0,5.84
12.0,-2.0,5.841
26.0,82.0,5.842
46.0,108.0,5.843
76.0,150.0,5.844
73.0,201.0,5.845
22.0,169.0,5.846
-27.0,31.0,5.847
-26.0,-98.0,5.848
-1.0,-109.0,5.849
-12.0,-30.0,5.85
-57.0,41.0,5.851
-85.0,84.0,5.852
-71.0,139.0,5.853
-39.0,202.0,5.854
-13.0,226.0,5.855
9.0,195.0,5.856
36.0,136.0,5.857
70.0,44.0,5.858
106.0,-81.0,5.859
128.0,-215.0,5.86
120.0,-319.0,5.861
78.0,-361.0,5.862
23.0,-318.0,5.863
-31.0,-177.0,5.864
-83.0,9.0,5.865
-130.0,139.0,5.866
-154.0,166.0,5.867
-147.0,142.0,5.868
-127.0,129.0,5.869
-117.0,156.0,5.87
-97.0,277.0,5.871
-21.0,529.0,5.872
115.0,766.0,5.873
242.0,744.0,5.874
271.0,438.0,5.875
211.0,113.0,5.876
158.0,-38.0,5.877
158.0,-151.0,5.878
165.0,-403.0,5.879
120.0,-747.0,5.88
53.0,-996.0,5.881
25.0,-1096.0,5.882
13.0,-1093.0,5.883
-39.0,-981.0,5.884
-114.0,-754.0,5.885
-153.0,-533.0,5.886
-159.0,-422.0,5.887
-182.0,-343.0,5.888
-227.0,-170.0,5.889
-250.0,59.0,5.89
-234.0,206.0,5.891
-204.0,260.0,5.892
-169.0,329.0,5.893
-132.0,465.0,5.894
-105.0,584.0,5.895
-83.0,617.0,5.896
-32.0,597.0,5.897
73.0,584.0,5.898
194.0,596.0,5.899
285.0,599.0,5.9
336.0,595.0,5.901
342.0,638.0,5.902
286.0,702.0,5.903
185.0,630.0,5.904
100.0,298.0,5.905
62.0,-172.0,5.906
34.0,-504.0,5.907
-12.0,-562.0,5.908
-53.0,-458.0,5.909
-60.0,-335.0,5.91
-57.0,-202.0,5.911
-79.0,-49.0,5.912
-116.0,56.0,5.913
-133.0,95.0,5.914
-125.0,168.0,5.915
-104.0,309.0,5.916
-74.0,393.0,5.917
-31.0,343.0,5.918
15.0,272.0,5.919
42.0,328.0,5.92
49.0,441.0,5.921
47.0,410.0,5.922
56.0,129.0,5.923
76.0,-321.0,5.924
89.0,-779.0,5.925
72.0,-1087.0,5.926
32.0,-1179.0,5.927
-1.0,-1131.0,5.928
-11.0,-1061.0,5.929
-19.0,-963.0,5.93
-57.0,-749.0,5.931
-118.0,-436.0,5.932
-161.0,-154.0,5.933
-150.0,48.0,5.934
-105.0,258.0,5.935
-69.0,546.0,5.936
-59.0,835.0,5.937
-52.0,1028.0,5.938
-29.0,1020.0,5.939
-5.0,778.0,5.94
2.0,384.0,5.941
7.0,-1.0,5.942
37.0,-258.0,5.943
89.0,-373.0,5.944
130.0,-387.0,5.945
139.0,-339.0,5.946
121.0,-267.0,5.947
83.0,-203.0,5.948
28.0,-124.0,5.949
-22.0,26.0,5.95
-41.0,245.0,5.951
-26.0,433.0,5.952
-7.0,489.0,5.953
-1.0,421.0,5.954
6.0,340.0,5.955
25.0,353.0,5.956
41.0,434.0,5.957
35.0,399.0,5.958
25.0,162.0,5.959
20.0,-82.0,5.96
15.0,-349.0,5.961
3.0,-555.0,5.962
1.0,-575.0,5.963
18.0,-546.0,5.964
27.0,-368.0,5.965
6.0,-181.0,5.966
-35.0,35.0,5.967
-66.0,234.0,5.968
-81.0,381.0,5.969
-77.0,469.0,5.97
-50.0,377.0,5.971
-4.0,250.0,5.972
42.0,17.0,5.973
67.0,-169.0,5.974
76.0,-214.0,5.975
84.0,-251.0,5.976
83.0,-261.0,5.977
59.0,-250.0,5.978
22.0,-206.0,5.979
-1.0,-281.0,5.98
0.0,-386.0,5.981
9.0,-351.0,5.982
-8.0,-218.0,5.983
-56.0,-148.0,5.984
-107.0,-137.0,5.985
-130.0,-49.0,5.986
-117.0,104.0,5.987
-85.0,177.0,5.988
-56.0,144.0,5.989
-36.0,123.0,5.99
-18.0,167.0,5.991
3.0,209.0,5.992
36.0,231.0,5.993
75.0,287.0,5.994
105.0,375.0,5.995
108.0,430.0,5.996
86.0,434.0,5.997
65.0,402.0,5.998
63.0,323.0,5.999
74.0,166.0,6.0
74.0,-15.0,6.001
58.0,-113.0,6.002
41.0,-121.0,6.003
31.0,-118.0,6.004
27.0,-143.0,6.005
23.0,-157.0,6.006
20.0,-125.0,6.007
18.0,-67.0,6.008
18.0,-30.0,6.009
20.0,-45.0,6.01
19.0,-98.0,6.011
10.0,-128.0,6.012
-8.0,-94.0,6.013
-26.0,-36.0,6.014
-35.0,-18.0,6.015
-39.0,-31.0,6.016
-39.0,-31.0,6.017
-30.0,-36.0,6.018
-15.0,-91.0,6.019
-7.0,-158.0,6.02
-14.0,-130.0,6.021
-25.0,11.0,6.022
-26.0,139.0,6.023
-25.0,149.0,6.024
-30.0,84.0,6.025
-34.0,38.0,6.026
-24.0,24.0,6.027
-9.0,-31.0,6.028
-13.0,-157.0,6.029
-35.0,-288.0,6.03
-56.0,-330.0,6.031
-71.0,-267.0,6.032
-89.0,-160.0,6.033
-102.0,-65.0,6.034
-89.0,15.0,6.035
-38.0,85.0,6.036
20.0,142.0,6.037
60.0,176.0,6.038
76.0,181.0,6.039
83.0,135.0,6.04
88.0,36.0,6.041
90.0,-59.0,6.042
88.0,-92.0,6.043
86.0,-65.0,6.044
75.0,-25.0,6.045
58.0,2.0,6.046
47.0,28.0,6.047
44.0,65.0,6.048
31.0,102.0,6.049
1.0,133.0,6.05
-27.0,149.0,6.051
-34.0,140.0,6.052
-24.0,118.0,6.053
-13.0,115.0,6.054
-2.0,127.0,6.055
6.0,91.0,6.056
7.0,-10.0,6.057
0.0,-132.0,6.058
-4.0,-187.0,6.059
-7.0,-162.0,6.06
-20.0,-119.0,6.061
-38.0,-82.0,6.062
-47.0,-36.0,6.063
-38.0,13.0,6.064
-27.0,40.0,6.065
-22.0,45.0,6.066
-20.0,53.0,6.067
-18.0,66.0,6.068
-11.0,71.0,6.069
-5.0,77.0,6.07
2.0,103.0,6.071
3.0,135.0,6.072
7.0,136.0,6.073
18.0,88.0,6.074
34.0,4.0,6.075
41.0,-85.0,6.076
39.0,-140.0,6.077
34.0,-156.0,6.078
32.0,-163.0,6.079
26.0,-173.0,6.08
8.0,-189.0,6.081
-8.0,-187.0,6.082
-21.0,-127.0,6.083
-33.0,-76.0,6.084
-40.0,-53.0,6.085
-44.0,-29.0,6.086
-38.0,-6.0,6.087
-33.0,11.0,6.088
-29.0,9.0,6.089
-23.0,11.0,6.09
-11.0,23.0,6.091
-1.0,33.0,6.092
1.0,33.0,6.093
7.0,36.0,6.094
19.0,53.0,6.095
28.0,68.0,6.096
27.0,76.0,6.097
25.0,86.0,6.098
31.0,113.0,6.099
36.0,143.0,6.1
33.0,155.0,6.101
29.0,140.0,6.102
35.0,96.0,6.103
48.0,21.0,6.104
45.0,-71.0,6.105
24.0,-150.0,6.106
1.0,-195.0,6.107
-11.0,-204.0,6.108
-22.0,-179.0,6.109
-35.0,-120.0,6.11
-47.0,-42.0,6.111
-57.0,33.0,6.112
-62.0,76.0,6.113
-56.0,83.0,6.114
-30.0,74.0,6.115
0.0,68.0,6.116
17.0,64.0,6.117
23.0,47.0,6.118
23.0,22.0,6.119
21.0,3.0,6.12
17.0,-10.0,6.121
15.0,-22.0,6.122
21.0,-26.0,6.123
29.0,-13.0,6.124
28.0,7.0,6.125
16.0,11.0,6.126
3.0,-5.0,6.127
-4.0,-18.0,6.128
-10.0,-13.0,6.129
-22.0,-2.0,6.13
-39.0,3.0,6.131
-52.0,13.0,6.132
-50.0,31.0,6.133
-27.0,40.0,6.134
7.0,32.0,6.135
43.0,19.0,6.136
70.0,11.0,6.137
85.0,3.0,6.138
84.0,-5.0,6.139
79.0,-5.0,6.14
65.0,20.0,6.141
54.0,41.0,6.142
50.0,47.0,6.143
42.0,48.0,6.144
23.0,29.0,6.145
8.0,-1.0,6.146
6.0,-67.0,6.147
2.0,-115.0,6.148
-10.0,-104.0,6.149
-22.0,-88.0,6.15
-30.0,-60.0,6.151
-40.0,-29.0,6.152
-56.0,10.0,6.153
-67.0,40.0,6.154
-57.0,41.0,6.155
-47.0,43.0,6.156
-36.0,51.0,6.157
-26.0,54.0,6.158
-18.0,25.0,6.159
-5.0,-16.0,6.16
10.0,-29.0,6.161
22.0,-15.0,6.162
26.0,-12.0,6.163
17.0,-26.0,6.164
2.0,-28.0,6.165
-9.0,-13.0,6.166
-7.0,-3.0,6.167
-2.0,-2.0,6.168
-3.0,3.0,6.169
-8.0,13.0,6.17
-10.0,17.0,6.171
-6.0,20.0,6.172
-3.0,27.0,6.173
-4.0,29.0,6.174
-3.0,15.0,6.175
-1.0,-3.0,6.176
0.0,-9.0,6.177
2.0,-15.0,6.178
14.0,-30.0,6.179
25.0,-43.0,6.18
28.0,-44.0,6.181
14.0,-31.0,6.182
0.0,-22.0,6.183
3.0,-13.0,6.184
17.0,-1.0,6.185
19.0,9.0,6.186
9.0,12.0,6.187
0.0,10.0,6.188
3.0,11.0,6.189
3.0,11.0,6.19
-3.0,8.0,6.191
-8.0,8.0,6.192
-5.0,13.0,6.193
-2.0,22.0,6.194
-3.0,24.0,6.195
-5.0,25.0,6.196
-2.0,27.0,6.197
0.0,25.0,6.198
0.0,19.0,6.199
-3.0,15.0,6.2
-5.0,13.0,6.201
-5.0,13.0,6.202
-2.0,9.0,6.203
2.0,7.0,6.204
3.0,10.0,6.205
-3.0,9.0,6.206
-8.0,1.0,6.207
-7.0,-5.0,6.208
-7.0,-5.0,6.209
-11.0,-4.0,6.21
-15.0,-6.0,6.211
-11.0,-7.0,6.212
-10.0,-6.0,6.213
-12.0,-3.0,6.214
-16.0,-3.0,6.215
-16.0,-6.0,6.216
-12.0,-1.0,6.217
-12.0,1.0,6.218
-8.0,0.0,6.219
0.0,-5.0,6.22
6.0,-12.0,6.221
9.0,-16.0,6.222
16.0,-19.0,6.223
25.0,-20.0,6.224
33.0,-14.0,6.225
34.0,-6.0,6.226
31.0,-1.0,6.227
26.0,0.0,6.228
21.0,-2.0,6.229
15.0,-4.0,6.23
13.0,-6.0,6.231
13.0,-8.0,6.232
11.0,-9.0,6.233
2.0,-9.0,6.234
-4.0,-8.0,6.235
5.0,-4.0,6.236
20.0,6.0,6.237
26.0,12.0,6.238
13.0,10.0,6.239
-8.0,3.0,6.24
-19.0,-6.0,6.241
-16.0,-9.0,6.242
-7.0,-7.0,6.243
-5.0,-4.0,6.244
-15.0,6.0,6.245
-25.0,16.0,6.246
-25.0,17.0,6.247
-15.0,10.0,6.248
-1.0,3.0,6.249
8.0,1.0,6.25
14.0,0.0,6.251
16.0,-3.0,6.252
12.0,-5.0,6.253
3.0,-3.0,6.254
1.0,-1.0,6.255
2.0,0.0,6.256
0.0,4.0,6.257
-7.0,9.0,6.258
-10.0,19.0,6.259
-4.0,31.0,6.26
10.0,29.0,6.261
25.0,9.0,6.262
40.0,-16.0,6.263
50.0,-25.0,6.264
47.0,-15.0,6.265
33.0,-5.0,6.266
18.0,-7.0,6.267
4.0,-12.0,6.268
-13.0,-7.0,6.269
-32.0,-3.0,6.27
-41.0,-7.0,6.271
-37.0,-10.0,6.272
-26.0,-4.0,6.273
-13.0,3.0,6.274
3.0,5.0,6.275
19.0,12.0,6.276
30.0,31.0,6.277
33.0,44.0,6.278
37.0,36.0,6.279
39.0,9.0,6.28
27.0,-15.0,6.281
1.0,-28.0,6.282
-11.0,-37.0,6.283
6.0,-45.0,6.284
36.0,-44.0,6.285
56.0,-32.0,6.286
67.0,-29.0,6.287
87.0,-41.0,6.288
117.0,-51.0,6.289
133.0,-37.0,6.29
112.0,3.0,6.291
59.0,51.0,6.292
-4.0,86.0,6.293
-53.0,105.0,6.294
-69.0,115.0,6.295
-55.0,117.0,6.296
-34.0,100.0,6.297
-28.0,43.0,6.298
-33.0,-28.0,6.299
-36.0,-73.0,6.3
-33.0,-79.0,6.301
-30.0,-67.0,6.302
-28.0,-64.0,6.303
-29.0,-74.0,6.304
-37.0,-86.0,6.305
-44.0,-94.0,6.306
-49.0,-92.0,6.307
-55.0,-70.0,6.308
-59.0,-30.0,6.309
-61.0,13.0,6.31
-52.0,49.0,6.311
-39.0,76.0,6.312
-17.0,98.0,6.313
2.0,120.0,6.314
16.0,149.0,6.315
28.0,166.0,6.316
33.0,148.0,6.317
38.0,80.0,6.318
36.0,-6.0,6.319
36.0,-79.0,6.32
39.0,-130.0,6.321
38.0,-160.0,6.322
31.0,-170.0,6.323
16.0,-167.0,6.324
-7.0,-163.0,6.325
-32.0,-148.0,6.326
-56.0,-103.0,6.327
-60.0,-35.0,6.328
-39.0,21.0,6.329
-5.0,46.0,6.33
16.0,57.0,6.331
13.0,65.0,6.332
0.0,53.0,6.333
-8.0,25.0,6.334
-11.0,12.0,6.335
-18.0,26.0,6.336
-25.0,47.0,6.337
-24.0,63.0,6.338
-9.0,93.0,6.339
12.0,134.0,6.34
36.0,148.0,6.341
71.0,130.0,6.342
121.0,117.0,6.343
165.0,135.0,6.344
174.0,150.0,6.345
143.0,114.0,6.346
92.0,37.0,6.347
46.0,-25.0,6.348
7.0,-49.0,6.349
-30.0,-84.0,6.35
-59.0,-165.0,6.351
-62.0,-260.0,6.352
-41.0,-295.0,6.353
-27.0,-246.0,6.354
-39.0,-159.0,6.355
-60.0,-74.0,6.356
-61.0,4.0,6.357
-46.0,83.0,6.358
-37.0,129.0,6.359
-46.0,124.0,6.36
-51.0,108.0,6.361
-27.0,136.0,6.362
7.0,188.0,6.363
24.0,191.0,6.364
18.0,95.0,6.365
9.0,-73.0,6.366
9.0,-246.0,6.367
5.0,-357.0,6.368
-14.0,-380.0,6.369
-43.0,-334.0,6.37
-64.0,-256.0,6.371
-68.0,-148.0,6.372
-58.0,11.0,6.373
-48.0,200.0,6.374
-42.0,343.0,6.375
-30.0,374.0,6.376
0.0,318.0,6.377
35.0,237.0,6.378
51.0,195.0,6.379
50.0,172.0,6.38
57.0,118.0,6.381
79.0,26.0,6.382
90.0,-66.0,6.383
72.0,-138.0,6.384
41.0,-206.0,6.385
16.0,-273.0,6.386
-6.0,-296.0,6.387
-28.0,-246.0,6.388
-46.0,-165.0,6.389
-65.0,-104.0,6.39
-85.0,-64.0,6.391
-88.0,-4.0,6.392
-65.0,77.0,6.393
-39.0,127.0,6.394
-35.0,108.0,6.395
-38.0,48.0,6.396
-23.0,3.0,6.397
2.0,-2.0,6.398
9.0,20.0,6.399
2.0,60.0,6.4
19.0,126.0,6.401
58.0,253.0,6.402
91.0,427.0,6.403
94.0,552.0,6.404
76.0,516.0,6.405
49.0,314.0,6.406
29.0,71.0,6.407
26.0,-90.0,6.408
39.0,-190.0,6.409
52.0,-315.0,6.41
58.0,-471.0,6.411
60.0,-572.0,6.412
56.0,-569.0,6.413
21.0,-489.0,6.414
-48.0,-367.0,6.415
-113.0,-195.0,6.416
-132.0,18.0,6.417
-107.0,224.0,6.418
-69.0,361.0,6.419
-39.0,462.0,6.42
-4.0,453.0,6.421
42.0,435.0,6.422
80.0,393.0,6.423
92.0,324.0,6.424
80.0,174.0,6.425
67.0,54.0,6.426
62.0,26.0,6.427
55.0,-18.0,6.428
34.0,-107.0,6.429
10.0,-187.0,6.43
9.0,-241.0,6.431
39.0,-251.0,6.432
64.0,-128.0,6.433
49.0,-60.0,6.434
0.0,-157.0,6.435
-36.0,-230.0,6.436
-41.0,-232.0,6.437
-47.0,-174.0,6.438
-81.0,82.0,6.439
-128.0,201.0,6.44
-145.0,32.0,6.441
-122.0,-269.0,6.442
-79.0,-458.0,6.443
-30.0,-479.0,6.444
24.0,-416.0,6.445
70.0,-289.0,6.446
79.0,-78.0,6.447
42.0,126.0,6.448
-10.0,215.0,6.449
-33.0,229.0,6.45
-3.0,302.0,6.451
67.0,451.0,6.452
137.0,572.0,6.453
166.0,563.0,6.454
132.0,391.0,6.455
51.0,93.0,6.456
-18.0,-168.0,6.457
-38.0,-263.0,6.458
-21.0,-214.0,6.459
-5.0,-103.0,6.46
-18.0,-37.0,6.461
-41.0,28.0,6.462
-34.0,79.0,6.463
-12.0,-24.0,6.464
-13.0,-303.0,6.465
-40.0,-538.0,6.466
-57.0,-548.0,6.467
-44.0,-406.0,6.468
-24.0,-247.0,6.469
-17.0,-36.0,6.47
-17.0,293.0,6.471
-12.0,616.0,6.472
-2.0,767.0,6.473
14.0,770.0,6.474
44.0,708.0,6.475
84.0,490.0,6.476
101.0,59.0,6.477
67.0,-525.0,6.478
15.0,-785.0,6.479
-20.0,-805.0,6.48
-36.0,-855.0,6.481
-61.0,-951.0,6.482
-99.0,-875.0,6.483
-135.0,-583.0,6.484
-160.0,-304.0,6.485
-179.0,-179.0,6.486
-182.0,-93.0,6.487
-152.0,71.0,6.488
-91.0,249.0,6.489
-26.0,361.0,6.49
22.0,427.0,6.491
55.0,466.0,6.492
72.0,466.0,6.493
62.0,477.0,6.494
35.0,579.0,6.495
16.0,718.0,6.496
20.0,748.0,6.497
34.0,626.0,6.498
50.0,476.0,6.499
67.0,388.0,6.5
84.0,303.0,6.501
94.0,135.0,6.502
95.0,-112.0,6.503
95.0,-361.0,6.504
95.0,-538.0,6.505
83.0,-597.0,6.506
66.0,-549.0,6.507
54.0,-444.0,6.508
42.0,-321.0,6.509
19.0,-168.0,6.51
-21.0,3.0,6.511
-55.0,118.0,6.512
-59.0,140.0,6.513
-27.0,136.0,6.514
27.0,181.0,6.515
81.0,230.0,6.516
115.0,218.0,6.517
119.0,157.0,6.518
105.0,124.0,6.519
88.0,97.0,6.52
62.0,91.0,6.521
36.0,77.0,6.522
11.0,43.0,6.523
-12.0,0.0,6.524
-31.0,-73.0,6.525
-43.0,-131.0,6.526
-33.0,-144.0,6.527
-24.0,-141.0,6.528
-20.0,-85.0,6.529
-15.0,-43.0,6.53
-9.0,-43.0,6.531
-12.0,-36.0,6.532
-44.0,-5.0,6.533
-65.0,17.0,6.534
-55.0,11.0,6.535
-41.0,7.0,6.536
-15.0,5.0,6.537
6.0,8.0,6.538
7.0,16.0,6.539
-3.0,5.0,6.54
-23.0,-5.0,6.541
-49.0,4.0,6.542
-67.0,16.0,6.543
-72.0,20.0,6.544
-65.0,31.0,6.545
-47.0,53.0,6.546
-14.0,67.0,6.547
25.0,54.0,6.548
50.0,28.0,6.549
49.0,9.0,6.55
39.0,-1.0,6.551
41.0,-12.0,6.552
57.0,-17.0,6.553
64.0,-17.0,6.554
54.0,-17.0,6.555
39.0,-24.0,6.556
33.0,-29.0,6.557
20.0,-32.0,6.558
-3.0,-31.0,6.559
-26.0,-30.0,6.56
-46.0,-30.0,6.561
-61.0,-29.0,6.562
-59.0,-29.0,6.563
-55.0,-29.0,6.564
-44.0,-29.0,6.565
-28.0,-30.0,6.566
0.0,-32.0,6.567
26.0,-33.0,6.568
49.0,-27.0,6.569
61.0,-22.0,6.57
36.0,-20.0,6.571
17.0,-18.0,6.572
17.0,-19.0,6.573
20.0,-20.0,6.574
37.0,-21.0,6.575
52.0,-22.0,6.576
57.0,-22.0,6.577
65.0,-20.0,6.578
70.0,-16.0,6.579
56.0,-10.0,6.58
17.0,-7.0,6.581
-22.0,-5.0,6.582
-35.0,-6.0,6.583
-23.0,-7.0,6.584
-16.0,-3.0,6.585
-21.0,1.0,6.586
-27.0,-1.0,6.587
-26.0,-9.0,6.588
-22.0,-11.0,6.589
-23.0,-4.0,6.59
-26.0,6.0,6.591
-26.0,10.0,6.592
-24.0,8.0,6.593
-23.0,9.0,6.594
-24.0,11.0,6.595
-21.0,10.0,6.596
-15.0,10.0,6.597
-12.0,4.0,6.598
-10.0,4.0,6.599
-8.0,3.0,6.6
-6.0,-3.0,6.601
-6.0,-6.0,6.602
-4.0,-3.0,6.603
-1.0,2.0,6.604
-2.0,7.0,6.605
-11.0,11.0,6.606
-19.0,10.0,6.607
-24.0,5.0,6.608
-28.0,-1.0,6.609
-30.0,-5.0,6.61
-26.0,-8.0,6.611
-11.0,-8.0,6.612
11.0,-4.0,6.613
37.0,7.0,6.614
61.0,18.0,6.615
73.0,24.0,6.616
63.0,25.0,6.617
37.0,19.0,6.618
15.0,9.0,6.619
-2.0,0.0,6.62
-8.0,-5.0,6.621
-13.0,-10.0,6.622
-11.0,-10.0,6.623
-10.0,-10.0,6.624
-10.0,-8.0,6.625
-9.0,-7.0,6.626
-7.0,-6.0,6.627
-8.0,-5.0,6.628
-17.0,-7.0,6.629
-28.0,-9.0,6.63
-43.0,-7.0,6.631
-53.0,-6.0,6.632
-46.0,-7.0,6.633
-37.0,-8.0,6.634
-23.0,-11.0,6.635
-4.0,-14.0,6.636
26.0,-12.0,6.637
54.0,-8.0,6.638
50.0,1.0,6.639
24.0,5.0,6.64
0.0,2.0,6.641
1.0,2.0,6.642
25.0,2.0,6.643
47.0,2.0,6.644
55.0,4.0,6.645
61.0,9.0,6.646
71.0,15.0,6.647
70.0,16.0,6.648
47.0,11.0,6.649
22.0,0.0,6.65
15.0,-10.0,6.651
17.0,-13.0,6.652
8.0,-9.0,6.653
-17.0,-4.0,6.654
-38.0,-5.0,6.655
-48.0,-5.0,6.656
-49.0,2.0,6.657
-62.0,6.0,6.658
-87.0,0.0,6.659
-120.0,-10.0,6.66
-142.0,-19.0,6.661
-143.0,-19.0,6.662
-119.0,-16.0,6.663
-77.0,-12.0,6.664
-27.0,-5.0,6.665
24.0,-1.0,6.666
66.0,1.0,6.667
86.0,6.0,6.668
82.0,18.0,6.669
66.0,30.0,6.67
54.0,34.0,6.671
50.0,33.0,6.672
49.0,24.0,6.673
48.0,6.0,6.674
60.0,-3.0,6.675
82.0,4.0,6.676
96.0,13.0,6.677
80.0,-4.0,6.678
44.0,-32.0,6.679
9.0,-36.0,6.68
-10.0,-11.0,6.681
-19.0,10.0,6.682
-22.0,14.0,6.683
-16.0,19.0,6.684
-16.0,31.0,6.685
-36.0,17.0,6.686
-74.0,-28.0,6.687
-101.0,-59.0,6.688
-95.0,-45.0,6.689
-69.0,-16.0,6.69
-43.0,-6.0,6.691
-22.0,7.0,6.692
14.0,68.0,6.693
68.0,168.0,6.694
121.0,233.0,6.695
139.0,206.0,6.696
108.0,107.0,6.697
51.0,-21.0,6.698
21.0,-111.0,6.699
4.0,-152.0,6.7
32.0,-174.0,6.701
48.0,-189.0,6.702
30.0,-177.0,6.703
17.0,-110.0,6.704
23.0,-9.0,6.705
28.0,67.0,6.706
25.0,74.0,6.707
28.0,33.0,6.708
49.0,5.0,6.709
61.0,11.0,6.71
45.0,19.0,6.711
33.0,2.0,6.712
41.0,-25.0,6.713
42.0,-38.0,6.714
24.0,-37.0,6.715
11.0,-25.0,6.716
13.0,20.0,6.717
19.0,105.0,6.718
18.0,177.0,6.719
-2.0,171.0,6.72
-12.0,95.0,6.721
-6.0,11.0,6.722
-3.0,-53.0,6.723
-9.0,-110.0,6.724
-11.0,-155.0,6.725
-9.0,-166.0,6.726
-26.0,-147.0,6.727
-60.0,-120.0,6.728
-83.0,-84.0,6.729
-83.0,-32.0,6.73
-80.0,19.0,6.731
-82.0,43.0,6.732
-72.0,46.0,6.733
-40.0,52.0,6.734
-8.0,58.0,6.735
5.0,54.0,6.736
11.0,68.0,6.737
30.0,140.0,6.738
66.0,273.0,6.739
93.0,402.0,6.74
96.0,445.0,6.741
92.0,373.0,6.742
91.0,218.0,6.743
88.0,55.0,6.744
72.0,-74.0,6.745
47.0,-169.0,6.746
33.0,-208.0,6.747
27.0,-147.0,6.748
8.0,-23.0,6.749
-34.0,25.0,6.75
-88.0,-70.0,6.751
-132.0,-186.0,6.752
-157.0,-185.0,6.753
-165.0,-122.0,6.754
-149.0,-144.0,6.755
-98.0,-241.0,6.756
-21.0,-285.0,6.757
57.0,-248.0,6.758
102.0,-211.0,6.759
103.0,-186.0,6.76
84.0,-91.0,6.761
73.0,66.0,6.762
74.0,134.0,6.763
61.0,46.0,6.764
19.0,-63.0,6.765
-29.0,-39.0,6.766
-46.0,136.0,6.767
-32.0,384.0,6.768
-23.0,605.0,6.769
-47.0,676.0,6.77
-84.0,512.0,6.771
-90.0,211.0,6.772
-54.0,-11.0,6.773
-17.0,-93.0,6.774
-18.0,-193.0,6.775
-39.0,-415.0,6.776
-41.0,-617.0,6.777
-25.0,-665.0,6.778
-31.0,-607.0,6.779
-71.0,-605.0,6.78
-107.0,-677.0,6.781
-103.0,-698.0,6.782
-76.0,-605.0,6.783
-66.0,-442.0,6.784
-88.0,-239.0,6.785
-126.0,18.0,6.786
-153.0,298.0,6.787
-157.0,500.0,6.788
-116.0,539.0,6.789
-26.0,420.0,6.79
86.0,239.0,6.791
182.0,102.0,6.792
240.0,45.0,6.793
262.0,20.0,6.794
248.0,-20.0,6.795
193.0,-50.0,6.796
127.0,-36.0,6.797
84.0,6.0,6.798
81.0,51.0,6.799
90.0,115.0,6.8
93.0,216.0,6.801
107.0,317.0,6.802
130.0,362.0,6.803
117.0,362.0,6.804
49.0,350.0,6.805
-23.0,314.0,6.806
-63.0,243.0,6.807
-99.0,173.0,6.808
-159.0,139.0,6.809
-197.0,108.0,6.81
-142.0,46.0,6.811
-8.0,-10.0,6.812
124.0,-8.0,6.813
189.0,48.0,6.814
171.0,120.0,6.815
92.0,206.0,6.816
-1.0,316.0,6.817
-72.0,441.0,6.818
-87.0,516.0,6.819
-59.0,486.0,6.82
-19.0,341.0,6.821
28.0,122.0,6.822
87.0,-100.0,6.823
127.0,-276.0,6.824
100.0,-403.0,6.825
8.0,-503.0,6.826
-81.0,-565.0,6.827
-113.0,-545.0,6.828
-101.0,-422.0,6.829
-85.0,-247.0,6.83
-73.0,-105.0,6.831
-49.0,-38.0,6.832
-13.0,3.0,6.833
14.0,86.0,6.834
11.0,191.0,6.835
-13.0,231.0,6.836
-28.0,170.0,6.837
-27.0,54.0,6.838
-2.0,-55.0,6.839
28.0,-161.0,6.84
47.0,-250.0,6.841
44.0,-319.0,6.842
27.0,-323.0,6.843
5.0,-332.0,6.844
-7.0,-352.0,6.845
-1.0,-299.0,6.846
13.0,-21.0,6.847
15.0,261.0,6.848
0.0,559.0,6.849
-8.0,727.0,6.85
-1.0,504.0,6.851
9.0,254.0,6.852
14.0,-75.0,6.853
28.0,-364.0,6.854
62.0,-525.0,6.855
94.0,-615.0,6.856
95.0,-485.0,6.857
55.0,-333.0,6.858
-7.0,-149.0,6.859
-75.0,-33.0,6.86
-131.0,86.0,6.861
-143.0,300.0,6.862
-103.0,576.0,6.863
-49.0,747.0,6.864
-28.0,649.0,6.865
-37.0,270.0,6.866
-36.0,-202.0,6.867
-13.0,-515.0,6.868
-1.0,-558.0,6.869
-20.0,-421.0,6.87
-49.0,-270.0,6.871
-50.0,-181.0,6.872
-21.0,-125.0,6.873
0.0,-58.0,6.874
-16.0,11.0,6.875
-54.0,50.0,6.876
-64.0,63.0,6.877
-29.0,78.0,6.878
25.0,85.0,6.879
61.0,28.0,6.88
74.0,-96.0,6.881
83.0,-176.0,6.882
89.0,-106.0,6.883
83.0,91.0,6.884
71.0,264.0,6.885
67.0,269.0,6.886
70.0,92.0,6.887
60.0,-123.0,6.888
30.0,-230.0,6.889
-10.0,-223.0,6.89
-49.0,-221.0,6.891
-75.0,-274.0,6.892
-82.0,-300.0,6.893
-68.0,-228.0,6.894
-37.0,-113.0,6.895
-7.0,-9.0,6.896
15.0,118.0,6.897
23.0,310.0,6.898
20.0,448.0,6.899
12.0,409.0,6.9
16.0,253.0,6.901
37.0,149.0,6.902
57.0,130.0,6.903
53.0,117.0,6.904
31.0,94.0,6.905
21.0,131.0,6.906
36.0,235.0,6.907
53.0,330.0,6.908
48.0,364.0,6.909
37.0,329.0,6.91
37.0,220.0,6.911
44.0,48.0,6.912
33.0,-128.0,6.913
-2.0,-290.0,6.914
-41.0,-483.0,6.915
-67.0,-700.0,6.916
-85.0,-803.0,6.917
-111.0,-670.0,6.918
-136.0,-342.0,6.919
-128.0,28.0,6.92
-78.0,338.0,6.921
-9.0,562.0,6.922
47.0,659.0,6.923
63.0,582.0,6.924
36.0,365.0,6.925
-3.0,94.0,6.926
-9.0,-147.0,6.927
29.0,-277.0,6.928
63.0,-202.0,6.929
51.0,74.0,6.93
6.0,384.0,6.931
-23.0,524.0,6.932
-16.0,440.0,6.933
9.0,241.0,6.934
35.0,42.0,6.935
55.0,-144.0,6.936
60.0,-329.0,6.937
44.0,-504.0,6.938
23.0,-589.0,6.939
10.0,-548.0,6.94
2.0,-424.0,6.941
-13.0,-257.0,6.942
-33.0,-76.0,6.943
-46.0,84.0,6.944
-42.0,178.0,6.945
-27.0,199.0,6.946
-7.0,196.0,6.947
11.0,200.0,6.948
19.0,202.0,6.949
22.0,182.0,6.95
32.0,160.0,6.951
46.0,149.0,6.952
56.0,139.0,6.953
56.0,114.0,6.954
56.0,87.0,6.955
60.0,74.0,6.956
65.0,67.0,6.957
62.0,50.0,6.958
48.0,30.0,6.959
25.0,15.0,6.96
-1.0,-1.0,6.961
-15.0,-19.0,6.962
-9.0,-32.0,6.963
10.0,-32.0,6.964
20.0,-26.0,6.965
10.0,-29.0,6.966
-9.0,-40.0,6.967
-21.0,-51.0,6.968
-26.0,-60.0,6.969
-28.0,-66.0,6.97
-26.0,-69.0,6.971
-20.0,-70.0,6.972
-11.0,-71.0,6.973
0.0,-70.0,6.974
6.0,-65.0,6.975
2.0,-59.0,6.976
-7.0,-56.0,6.977
-14.0,-55.0,6.978
-12.0,-49.0,6.979
-12.0,-45.0,6.98
-18.0,-47.0,6.981
-23.0,-49.0,6.982
-27.0,-49.0,6.983
-30.0,-47.0,6.984
-32.0,-43.0,6.985
-33.0,-38.0,6.986
-30.0,-34.0,6.987
-26.0,-30.0,6.988
-24.0,-28.0,6.989
-25.0,-27.0,6.99
-34.0,-28.0,6.991
-39.0,-29.0,6.992
-31.0,-26.0,6.993
-20.0,-22.0,6.994
1.0,-15.0,6.995
22.0,-10.0,6.996
45.0,-9.0,6.997
72.0,-7.0,6.998
98.0,-3.0,6.999
91.0,7.0,7.0
56.0,10.0,7.001
32.0,10.0,7.002
38.0,13.0,7.003
49.0,20.0,7.004
35.0,24.0,7.005
10.0,17.0,7.006
3.0,5.0,7.007
13.0,1.0,7.008
13.0,4.0,7.009
-9.0,9.0,7.01
-29.0,11.0,7.011
-36.0,11.0,7.012
-35.0,10.0,7.013
-35.0,6.0,7.014
-35.0,0.0,7.015
-34.0,1.0,7.016
-33.0,7.0,7.017
-37.0,8.0,7.018
-39.0,9.0,7.019
-45.0,8.0,7.02
-55.0,4.0,7.021
-61.0,1.0,7.022
-59.0,0.0,7.023
-54.0,3.0,7.024
-64.0,6.0,7.025
-84.0,5.0,7.026
-89.0,1.0,7.027
-66.0,-1.0,7.028
-34.0,-1.0,7.029
-5.0,0.0,7.03
29.0,9.0,7.031
77.0,23.0,7.032
115.0,32.0,7.033
117.0,26.0,7.034
97.0,10.0,7.035
92.0,-2.0,7.036
106.0,-2.0,7.037
106.0,2.0,7.038
72.0,7.0,7.039
40.0,12.0,7.04
48.0,10.0,7.041
76.0,9.0,7.042
79.0,13.0,7.043
41.0,12.0,7.044
-13.0,-1.0,7.045
-56.0,-16.0,7.046
-91.0,-33.0,7.047
-119.0,-44.0,7.048
-129.0,-38.0,7.049
-120.0,-28.0,7.05
-109.0,-10.0,7.051
-114.0,7.0,7.052
-138.0,19.0,7.053
-160.0,30.0,7.054
-148.0,38.0,7.055
-92.0,34.0,7.056
-22.0,-6.0,7.057
24.0,-49.0,7.058
39.0,-85.0,7.059
67.0,-77.0,7.06
137.0,-31.0,7.061
196.0,47.0,7.062
166.0,138.0,7.063
63.0,190.0,7.064
-9.0,154.0,7.065
25.0,53.0,7.066
108.0,-34.0,7.067
145.0,-73.0,7.068
130.0,-110.0,7.069
126.0,-159.0,7.07
151.0,-147.0,7.071
149.0,-18.0,7.072
84.0,160.0,7.073
9.0,257.0,7.074
-19.0,222.0,7.075
-18.0,98.0,7.076
-27.0,-52.0,7.077
-53.0,-216.0,7.078
-60.0,-336.0,7.079
-55.0,-355.0,7.08
-67.0,-290.0,7.081
-94.0,-202.0,7.082
-108.0,-110.0,7.083
-117.0,40.0,7.084
-138.0,268.0,7.085
-150.0,492.0,7.086
-113.0,591.0,7.087
-44.0,513.0,7.088
4.0,287.0,7.089
40.0,-20.0,7.09
107.0,-323.0,7.091
189.0,-519.0,7.092
208.0,-532.0,7.093
148.0,-397.0,7.094
69.0,-238.0,7.095
16.0,-143.0,7.096
-30.0,-90.0,7.097
-101.0,-9.0,7.098
-174.0,97.0,7.099
-218.0,167.0,7.1
-216.0,161.0,7.101
-169.0,115.0,7.102
-80.0,63.0,7.103
33.0,18.0,7.104
151.0,-9.0,7.105
263.0,7.0,7.106
345.0,70.0,7.107
347.0,131.0,7.108
251.0,149.0,7.109
124.0,128.0,7.11
50.0,103.0,7.111
29.0,104.0,7.112
9.0,128.0,7.113
-20.0,145.0,7.114
-35.0,124.0,7.115
-33.0,59.0,7.116
-37.0,-15.0,7.117
-35.0,-77.0,7.118
-64.0,-106.0,7.119
-93.0,-97.0,7.12
-117.0,-52.0,7.121
-128.0,11.0,7.122
-99.0,49.0,7.123
-67.0,47.0,7.124
-32.0,48.0,7.125
-3.0,95.0,7.126
2.0,165.0,7.127
7.0,193.0,7.128
2.0,178.0,7.129
1.0,158.0,7.13
11.0,132.0,7.131
12.0,42.0,7.132
-10.0,-121.0,7.133
-28.0,-272.0,7.134
-29.0,-351.0,7.135
-28.0,-396.0,7.136
-19.0,-441.0,7.137
-35.0,-424.0,7.138
-59.0,-301.0,7.139
-83.0,-178.0,7.14
-103.0,-55.0,7.141
-112.0,73.0,7.142
-88.0,218.0,7.143
-62.0,354.0,7.144
-32.0,463.0,7.145
-8.0,521.0,7.146
-4.0,424.0,7.147
0.0,294.0,7.148
-4.0,67.0,7.149
-5.0,-157.0,7.15
3.0,-373.0,7.151
4.0,-540.0,7.152
-14.0,-558.0,7.153
-29.0,-529.0,7.154
-30.0,-356.0,7.155
-29.0,-193.0,7.156
-21.0,-63.0,7.157
-20.0,64.0,7.158
-34.0,160.0,7.159
-12.0,201.0,7.16
41.0,195.0,7.161
73.0,180.0,7.162
64.0,141.0,7.163
35.0,46.0,7.164
17.0,-74.0,7.165
-1.0,-155.0,7.166
-32.0,-194.0,7.167
-53.0,-229.0,7.168
-41.0,-244.0,7.169
-14.0,-191.0,7.17
-6.0,-83.0,7.171
-11.0,12.0,7.172
0.0,83.0,7.173
34.0,166.0,7.174
62.0,265.0,7.175
73.0,323.0,7.176
81.0,316.0,7.177
83.0,272.0,7.178
67.0,250.0,7.179
36.0,283.0,7.18
23.0,363.0,7.181
37.0,439.0,7.182
61.0,422.0,7.183
70.0,286.0,7.184
58.0,109.0,7.185
31.0,-1.0,7.186
-9.0,-45.0,7.187
-53.0,-92.0,7.188
-84.0,-169.0,7.189
-81.0,-236.0,7.19
-39.0,-282.0,7.191
16.0,-340.0,7.192
49.0,-398.0,7.193
50.0,-396.0,7.194
36.0,-319.0,7.195
27.0,-225.0,7.196
16.0,-156.0,7.197
-4.0,-88.0,7.198
-21.0,-7.0,7.199
-25.0,52.0,7.2
-31.0,52.0,7.201
-49.0,43.0,7.202
-58.0,78.0,7.203
-43.0,140.0,7.204
-15.0,160.0,7.205
1.0,141.0,7.206
3.0,155.0,7.207
3.0,232.0,7.208
-5.0,295.0,7.209
-30.0,252.0,7.21
-48.0,110.0,7.211
-36.0,-53.0,7.212
-9.0,-188.0,7.213
-8.0,-302.0,7.214
-50.0,-378.0,7.215
-100.0,-347.0,7.216
-117.0,-192.0,7.217
-89.0,22.0,7.218
-38.0,168.0,7.219
24.0,202.0,7.22
105.0,215.0,7.221
190.0,330.0,7.222
231.0,543.0,7.223
202.0,721.0,7.224
134.0,706.0,7.225
79.0,456.0,7.226
40.0,58.0,7.227
-12.0,-347.0,7.228
-74.0,-648.0,7.229
-107.0,-795.0,7.23
-98.0,-802.0,7.231
-77.0,-737.0,7.232
-52.0,-663.0,7.233
-11.0,-551.0,7.234
37.0,-314.0,7.235
52.0,11.0,7.236
35.0,247.0,7.237
19.0,282.0,7.238
22.0,162.0,7.239
30.0,28.0,7.24
31.0,-39.0,7.241
35.0,-11.0,7.242
35.0,109.0,7.243
14.0,238.0,7.244
-14.0,244.0,7.245
-24.0,144.0,7.246
-23.0,145.0,7.247
-30.0,354.0,7.248
-42.0,576.0,7.249
-39.0,529.0,7.25
-29.0,185.0,7.251
-39.0,-248.0,7.252
-71.0,-573.0,7.253
-93.0,-715.0,7.254
-77.0,-667.0,7.255
-30.0,-467.0,7.256
19.0,-247.0,7.257
49.0,-151.0,7.258
44.0,-260.0,7.259
4.0,-479.0,7.26
-47.0,-608.0,7.261
-92.0,-513.0,7.262
-107.0,-232.0,7.263
-78.0,91.0,7.264
-13.0,340.0,7.265
59.0,512.0,7.266
103.0,677.0,7.267
112.0,864.0,7.268
106.0,993.0,7.269
102.0,959.0,7.27
112.0,760.0,7.271
142.0,499.0,7.272
170.0,243.0,7.273
161.0,-32.0,7.274
99.0,-318.0,7.275
17.0,-525.0,7.276
-41.0,-588.0,7.277
-75.0,-570.0,7.278
-94.0,-558.0,7.279
-101.0,-538.0,7.28
-94.0,-395.0,7.281
-86.0,-33.0,7.282
-98.0,493.0,7.283
-119.0,956.0,7.284
-125.0,1079.0,7.285
-103.0,781.0,7.286
-60.0,305.0,7.287
-5.0,-53.0,7.288
45.0,-281.0,7.289
71.0,-554.0,7.29
63.0,-882.0,7.291
47.0,-1067.0,7.292
45.0,-1000.0,7.293
45.0,-744.0,7.294
27.0,-358.0,7.295
8.0,117.0,7.296
11.0,502.0,7.297
26.0,649.0,7.298
20.0,584.0,7.299
-10.0,489.0,7.3
-22.0,402.0,7.301
11.0,225.0,7.302
66.0,-8.0,7.303
99.0,-111.0,7.304
88.0,-54.0,7.305
44.0,1.0,7.306
-15.0,-15.0,7.307
-69.0,-2.0,7.308
-100.0,81.0,7.309
-110.0,147.0,7.31
-108.0,151.0,7.311
-88.0,153.0,7.312
-40.0,170.0,7.313
17.0,150.0,7.314
55.0,110.0,7.315
66.0,121.0,7.316
68.0,169.0,7.317
63.0,174.0,7.318
42.0,117.0,7.319
13.0,59.0,7.32
12.0,16.0,7.321
44.0,-58.0,7.322
68.0,-159.0,7.323
57.0,-206.0,7.324
29.0,-158.0,7.325
14.0,-70.0,7.326
13.0,3.0,7.327
4.0,65.0,7.328
-12.0,113.0,7.329
-19.0,106.0,7.33
-7.0,27.0,7.331
10.0,-81.0,7.332
23.0,-169.0,7.333
26.0,-226.0,7.334
20.0,-254.0,7.335
14.0,-243.0,7.336
17.0,-190.0,7.337
21.0,-118.0,7.338
19.0,-54.0,7.339
8.0,-12.0,7.34
2.0,7.0,7.341
9.0,13.0,7.342
16.0,17.0,7.343
13.0,24.0,7.344
1.0,31.0,7.345
-7.0,28.0,7.346
-4.0,19.0,7.347
4.0,16.0,7.348
10.0,17.0,7.349
6.0,13.0,7.35
-1.0,8.0,7.351
-3.0,6.0,7.352
-2.0,3.0,7.353
-8.0,-2.0,7.354
-20.0,-5.0,7.355
-29.0,-3.0,7.356
-31.0,3.0,7.357
-32.0,0.0,7.358
-37.0,-4.0,7.359
-37.0,-7.0,7.36
