Deltoid,Bicep,Time
-6.0,1.0,0.0
-8.0,-1.0,0.001
-11.0,-1.0,0.002
-6.0,-1.0,0.003
1.0,-3.0,0.004
2.0,0.0,0.005
-4.0,3.0,0.006
-3.0,4.0,0.007
5.0,2.0,0.008
6.0,2.0,0.009
-4.0,5.0,0.01
-9.0,4.0,0.011
-2.0,-1.0,0.012
10.0,-3.0,0.013
15.0,0.0,0.014
16.0,1.0,0.015
16.0,1.0,0.016
13.0,1.0,0.017
3.0,0.0,0.018
-5.0,-2.0,0.019
-9.0,-4.0,0.02
-12.0,-7.0,0.021
-11.0,-4.0,0.022
-6.0,1.0,0.023
0.0,2.0,0.024
-5.0,3.0,0.025
-19.0,3.0,0.026
-24.0,2.0,0.027
-16.0,0.0,0.028
-6.0,0.0,0.029
-5.0,1.0,0.03
-7.0,0.0,0.031
-7.0,-2.0,0.032
-6.0,-2.0,0.033
-10.0,-1.0,0.034
-14.0,-2.0,0.035
-15.0,-2.0,0.036
-5.0,1.0,0.037
15.0,2.0,0.038
33.0,0.0,0.039
30.0,-1.0,0.04
9.0,-2.0,0.041
-5.0,1.0,0.042
4.0,1.0,0.043
21.0,0.0,0.044
20.0,3.0,0.045
3.0,6.0,0.046
3.0,3.0,0.047
22.0,-3.0,0.048
30.0,-4.0,0.049
11.0,0.0,0.05
-9.0,1.0,0.051
-4.0,0.0,0.052
9.0,1.0,0.053
0.0,5.0,0.054
-24.0,5.0,0.055
-26.0,0.0,0.056
-1.0,-1.0,0.057
23.0,0.0,0.058
20.0,1.0,0.059
0.0,-1.0,0.06
-9.0,-6.0,0.061
-5.0,-5.0,0.062
0.0,-3.0,0.063
-1.0,-1.0,0.064
0.0,-1.0,0.065
10.0,-2.0,0.066
20.0,-4.0,0.067
23.0,-7.0,0.068
16.0,-7.0,0.069
9.0,-5.0,0.07
14.0,-6.0,0.071
27.0,-5.0,0.072
33.0,2.0,0.073
26.0,10.0,0.074
9.0,7.0,0.075
-4.0,0.0,0.076
-4.0,-3.0,0.077
3.0,-2.0,0.078
4.0,-1.0,0.079
-15.0,-2.0,0.08
-42.0,-7.0,0.081
-55.0,-6.0,0.082
-49.0,-2.0,0.083
-36.0,0.0,0.084
-25.0,1.0,0.085
-7.0,4.0,0.086
13.0,7.0,0.087
22.0,3.0,0.088
17.0,-1.0,0.089
14.0,-5.0,0.09
17.0,-5.0,0.091
21.0,-5.0,0.092
18.0,-4.0,0.093
22.0,-3.0,0.094
30.0,0.0,0.095
33.0,2.0,0.096
27.0,3.0,0.097
19.0,2.0,0.098
17.0,1.0,0.099
15.0,-1.0,0.1
9.0,-5.0,0.101
3.0,-5.0,0.102
3.0,-3.0,0.103
4.0,0.0,0.104
-5.0,2.0,0.105
-19.0,4.0,0.106
-28.0,3.0,0.107
-23.0,2.0,0.108
-4.0,-1.0,0.109
13.0,-3.0,0.11
15.0,-3.0,0.111
4.0,-2.0,0.112
-5.0,0.0,0.113
-6.0,-1.0,0.114
-9.0,-4.0,0.115
-14.0,-2.0,0.116
-15.0,3.0,0.117
-12.0,3.0,0.118
-3.0,-1.0,0.119
2.0,-6.0,0.12
6.0,-7.0,0.121
11.0,-3.0,0.122
18.0,-3.0,0.123
29.0,-2.0,0.124
33.0,1.0,0.125
25.0,4.0,0.126
18.0,2.0,0.127
16.0,-4.0,0.128
10.0,-5.0,0.129
-15.0,-3.0,0.13
-44.0,0.0,0.131
-48.0,1.0,0.132
-23.0,0.0,0.133
-1.0,-1.0,0.134
-8.0,-4.0,0.135
-31.0,-4.0,0.136
-38.0,0.0,0.137
-21.0,2.0,0.138
4.0,2.0,0.139
17.0,5.0,0.14
16.0,7.0,0.141
7.0,7.0,0.142
4.0,1.0,0.143
9.0,-1.0,0.144
19.0,2.0,0.145
20.0,8.0,0.146
15.0,5.0,0.147
8.0,-2.0,0.148
10.0,-2.0,0.149
22.0,1.0,0.15
32.0,0.0,0.151
31.0,-5.0,0.152
22.0,-6.0,0.153
18.0,-2.0,0.154
19.0,0.0,0.155
21.0,-3.0,0.156
18.0,-3.0,0.157
10.0,-1.0,0.158
2.0,-1.0,0.159
-3.0,-3.0,0.16
-11.0,-8.0,0.161
-18.0,-7.0,0.162
-16.0,-2.0,0.163
-3.0,3.0,0.164
11.0,5.0,0.165
19.0,1.0,0.166
21.0,-4.0,0.167
21.0,-6.0,0.168
15.0,-4.0,0.169
5.0,0.0,0.17
-3.0,1.0,0.171
-3.0,-2.0,0.172
0.0,-4.0,0.173
-5.0,-2.0,0.174
-15.0,-1.0,0.175
-19.0,-1.0,0.176
-17.0,-1.0,0.177
-24.0,1.0,0.178
-38.0,3.0,0.179
-45.0,0.0,0.18
-32.0,-7.0,0.181
-11.0,-8.0,0.182
1.0,-3.0,0.183
2.0,3.0,0.184
7.0,5.0,0.185
17.0,4.0,0.186
24.0,1.0,0.187
20.0,0.0,0.188
12.0,1.0,0.189
10.0,3.0,0.19
13.0,2.0,0.191
13.0,-2.0,0.192
10.0,-3.0,0.193
9.0,0.0,0.194
12.0,1.0,0.195
15.0,-3.0,0.196
20.0,-6.0,0.197
27.0,-6.0,0.198
43.0,-3.0,0.199
50.0,-1.0,0.2
35.0,-6.0,0.201
2.0,-6.0,0.202
-21.0,-2.0,0.203
-26.0,5.0,0.204
-33.0,8.0,0.205
-55.0,6.0,0.206
-71.0,5.0,0.207
-53.0,3.0,0.208
-7.0,3.0,0.209
30.0,4.0,0.21
38.0,3.0,0.211
24.0,0.0,0.212
7.0,-3.0,0.213
-6.0,-6.0,0.214
-18.0,-8.0,0.215
-24.0,-10.0,0.216
-25.0,-8.0,0.217
-13.0,-4.0,0.218
11.0,0.0,0.219
29.0,-1.0,0.22
32.0,-5.0,0.221
36.0,-6.0,0.222
44.0,-4.0,0.223
47.0,-2.0,0.224
36.0,0.0,0.225
21.0,1.0,0.226
-3.0,1.0,0.227
-25.0,0.0,0.228
-40.0,3.0,0.229
-51.0,10.0,0.23
-49.0,13.0,0.231
-38.0,8.0,0.232
2.0,1.0,0.233
33.0,-2.0,0.234
35.0,-1.0,0.235
35.0,2.0,0.236
25.0,8.0,0.237
16.0,7.0,0.238
15.0,1.0,0.239
14.0,-6.0,0.24
5.0,-10.0,0.241
-7.0,-8.0,0.242
-6.0,-6.0,0.243
10.0,-5.0,0.244
22.0,-2.0,0.245
20.0,2.0,0.246
11.0,2.0,0.247
9.0,-2.0,0.248
12.0,-4.0,0.249
12.0,-2.0,0.25
9.0,-1.0,0.251
8.0,-4.0,0.252
8.0,-5.0,0.253
8.0,-2.0,0.254
4.0,0.0,0.255
2.0,-1.0,0.256
4.0,-3.0,0.257
12.0,-5.0,0.258
24.0,-5.0,0.259
30.0,-4.0,0.26
25.0,-7.0,0.261
10.0,-8.0,0.262
-4.0,-7.0,0.263
-9.0,-3.0,0.264
-16.0,2.0,0.265
-32.0,4.0,0.266
-47.0,2.0,0.267
-47.0,0.0,0.268
-31.0,1.0,0.269
-19.0,1.0,0.27
-16.0,0.0,0.271
-18.0,-3.0,0.272
-18.0,-3.0,0.273
-17.0,0.0,0.274
-13.0,0.0,0.275
-3.0,2.0,0.276
9.0,5.0,0.277
14.0,3.0,0.278
14.0,2.0,0.279
10.0,1.0,0.28
3.0,-1.0,0.281
-5.0,-1.0,0.282
-10.0,-4.0,0.283
4.0,-5.0,0.284
35.0,-1.0,0.285
63.0,2.0,0.286
61.0,4.0,0.287
32.0,2.0,0.288
-1.0,1.0,0.289
-22.0,0.0,0.29
-39.0,0.0,0.291
-60.0,1.0,0.292
-68.0,3.0,0.293
-52.0,5.0,0.294
-21.0,2.0,0.295
-2.0,-1.0,0.296
2.0,-1.0,0.297
10.0,-1.0,0.298
31.0,-3.0,0.299
44.0,-5.0,0.3
33.0,-7.0,0.301
14.0,-3.0,0.302
6.0,0.0,0.303
10.0,1.0,0.304
11.0,5.0,0.305
3.0,9.0,0.306
-1.0,5.0,0.307
3.0,-3.0,0.308
5.0,-5.0,0.309
-2.0,-2.0,0.31
-6.0,-2.0,0.311
5.0,-8.0,0.312
24.0,-10.0,0.313
31.0,-8.0,0.314
26.0,-6.0,0.315
21.0,-8.0,0.316
21.0,-6.0,0.317
16.0,0.0,0.318
4.0,4.0,0.319
-5.0,2.0,0.32
-3.0,-3.0,0.321
6.0,-5.0,0.322
14.0,-7.0,0.323
12.0,-8.0,0.324
0.0,-4.0,0.325
-21.0,4.0,0.326
-41.0,7.0,0.327
-44.0,3.0,0.328
-25.0,-1.0,0.329
5.0,-2.0,0.33
26.0,-1.0,0.331
24.0,1.0,0.332
1.0,6.0,0.333
-21.0,10.0,0.334
-26.0,4.0,0.335
-22.0,-6.0,0.336
-22.0,-10.0,0.337
-23.0,-5.0,0.338
-14.0,2.0,0.339
5.0,1.0,0.34
17.0,-5.0,0.341
10.0,-5.0,0.342
-3.0,0.0,0.343
-4.0,6.0,0.344
9.0,9.0,0.345
20.0,10.0,0.346
16.0,5.0,0.347
4.0,0.0,0.348
1.0,-1.0,0.349
11.0,-1.0,0.35
19.0,0.0,0.351
15.0,-2.0,0.352
8.0,-3.0,0.353
10.0,-3.0,0.354
16.0,-2.0,0.355
16.0,-3.0,0.356
16.0,-2.0,0.357
13.0,-3.0,0.358
7.0,-3.0,0.359
-4.0,-6.0,0.36
-13.0,-8.0,0.361
-14.0,-4.0,0.362
-11.0,0.0,0.363
-6.0,1.0,0.364
4.0,2.0,0.365
19.0,3.0,0.366
33.0,3.0,0.367
38.0,-2.0,0.368
33.0,-4.0,0.369
18.0,-2.0,0.37
0.0,0.0,0.371
-8.0,0.0,0.372
-5.0,-2.0,0.373
0.0,-1.0,0.374
1.0,1.0,0.375
1.0,0.0,0.376
6.0,0.0,0.377
20.0,1.0,0.378
5.0,2.0,0.379
-10.0,3.0,0.38
-27.0,-1.0,0.381
-35.0,-2.0,0.382
-17.0,-1.0,0.383
-1.0,0.0,0.384
8.0,1.0,0.385
16.0,3.0,0.386
10.0,3.0,0.387
7.0,1.0,0.388
13.0,0.0,0.389
15.0,-1.0,0.39
3.0,-3.0,0.391
-8.0,-4.0,0.392
-16.0,-2.0,0.393
-21.0,0.0,0.394
-11.0,-1.0,0.395
-2.0,-4.0,0.396
7.0,-3.0,0.397
20.0,-3.0,0.398
5.0,-3.0,0.399
-10.0,-2.0,0.4
-27.0,-2.0,0.401
-35.0,-1.0,0.402
-17.0,0.0,0.403
-1.0,2.0,0.404
8.0,2.0,0.405
16.0,3.0,0.406
10.0,3.0,0.407
7.0,1.0,0.408
13.0,-2.0,0.409
15.0,-4.0,0.41
3.0,-2.0,0.411
-8.0,-1.0,0.412
-16.0,-2.0,0.413
-21.0,-3.0,0.414
-11.0,-3.0,0.415
-2.0,-1.0,0.416
7.0,0.0,0.417
15.0,2.0,0.418
11.0,1.0,0.419
7.0,0.0,0.42
8.0,-4.0,0.421
12.0,-4.0,0.422
13.0,-2.0,0.423
13.0,-1.0,0.424
13.0,0.0,0.425
11.0,3.0,0.426
7.0,4.0,0.427
1.0,0.0,0.428
-1.0,-2.0,0.429
1.0,-1.0,0.43
1.0,1.0,0.431
-4.0,1.0,0.432
-9.0,0.0,0.433
-7.0,1.0,0.434
1.0,2.0,0.435
7.0,0.0,0.436
6.0,-1.0,0.437
1.0,-4.0,0.438
-2.0,-4.0,0.439
-5.0,-4.0,0.44
-9.0,-8.0,0.441
-10.0,-8.0,0.442
-1.0,-4.0,0.443
7.0,0.0,0.444
9.0,3.0,0.445
2.0,3.0,0.446
-3.0,2.0,0.447
-1.0,0.0,0.448
2.0,0.0,0.449
4.0,1.0,0.45
8.0,2.0,0.451
12.0,1.0,0.452
10.0,-1.0,0.453
0.0,-1.0,0.454
-10.0,-1.0,0.455
-18.0,-2.0,0.456
-22.0,-2.0,0.457
-25.0,0.0,0.458
-20.0,3.0,0.459
-8.0,2.0,0.46
2.0,-3.0,0.461
1.0,-4.0,0.462
-1.0,-2.0,0.463
5.0,-1.0,0.464
14.0,0.0,0.465
14.0,2.0,0.466
10.0,4.0,0.467
19.0,0.0,0.468
34.0,-4.0,0.469
38.0,-5.0,0.47
25.0,-3.0,0.471
11.0,-3.0,0.472
4.0,-3.0,0.473
-2.0,-2.0,0.474
-13.0,0.0,0.475
-19.0,-1.0,0.476
-13.0,-1.0,0.477
-6.0,-3.0,0.478
-5.0,-4.0,0.479
-12.0,-4.0,0.48
-13.0,-4.0,0.481
-7.0,-2.0,0.482
3.0,0.0,0.483
10.0,-1.0,0.484
10.0,2.0,0.485
1.0,6.0,0.486
-6.0,6.0,0.487
-6.0,3.0,0.488
1.0,-1.0,0.489
6.0,0.0,0.49
5.0,0.0,0.491
4.0,-2.0,0.492
6.0,-3.0,0.493
6.0,1.0,0.494
3.0,4.0,0.495
3.0,3.0,0.496
10.0,0.0,0.497
11.0,-4.0,0.498
14.0,-4.0,0.499
15.0,-3.0,0.5
9.0,-5.0,0.501
3.0,-7.0,0.502
0.0,-2.0,0.503
-3.0,2.0,0.504
-5.0,3.0,0.505
-7.0,5.0,0.506
-9.0,3.0,0.507
-10.0,1.0,0.508
-3.0,0.0,0.509
3.0,-2.0,0.51
5.0,-2.0,0.511
7.0,-1.0,0.512
8.0,-1.0,0.513
9.0,0.0,0.514
6.0,0.0,0.515
4.0,-1.0,0.516
3.0,-1.0,0.517
22.0,0.0,0.518
29.0,2.0,0.519
31.0,3.0,0.52
17.0,0.0,0.521
4.0,-1.0,0.522
-4.0,0.0,0.523
-12.0,0.0,0.524
-16.0,3.0,0.525
-20.0,5.0,0.526
-26.0,5.0,0.527
-27.0,2.0,0.528
-11.0,-3.0,0.529
3.0,-4.0,0.53
8.0,-4.0,0.531
13.0,-2.0,0.532
16.0,-1.0,0.533
17.0,-2.0,0.534
11.0,-2.0,0.535
6.0,-3.0,0.536
3.0,0.0,0.537
1.0,0.0,0.538
2.0,-3.0,0.539
2.0,-7.0,0.54
0.0,-9.0,0.541
-2.0,-5.0,0.542
1.0,-2.0,0.543
6.0,-1.0,0.544
5.0,0.0,0.545
-2.0,1.0,0.546
-5.0,1.0,0.547
0.0,-1.0,0.548
7.0,-3.0,0.549
4.0,0.0,0.55
-1.0,2.0,0.551
-1.0,0.0,0.552
4.0,-1.0,0.553
8.0,-2.0,0.554
6.0,-1.0,0.555
2.0,0.0,0.556
2.0,2.0,0.557
1.0,4.0,0.558
0.0,1.0,0.559
-2.0,-2.0,0.56
-3.0,-5.0,0.561
3.0,-3.0,0.562
19.0,-1.0,0.563
34.0,-1.0,0.564
34.0,1.0,0.565
21.0,4.0,0.566
11.0,1.0,0.567
10.0,-6.0,0.568
11.0,-6.0,0.569
3.0,0.0,0.57
-10.0,3.0,0.571
-19.0,0.0,0.572
-17.0,-2.0,0.573
-14.0,3.0,0.574
-19.0,4.0,0.575
-25.0,0.0,0.576
-24.0,-2.0,0.577
-16.0,-1.0,0.578
-9.0,0.0,0.579
-9.0,-3.0,0.58
-6.0,-6.0,0.581
5.0,-4.0,0.582
13.0,1.0,0.583
7.0,3.0,0.584
-2.0,3.0,0.585
-1.0,4.0,0.586
7.0,5.0,0.587
12.0,2.0,0.588
11.0,0.0,0.589
9.0,0.0,0.59
7.0,0.0,0.591
9.0,-1.0,0.592
11.0,-5.0,0.593
16.0,-5.0,0.594
18.0,-4.0,0.595
16.0,-1.0,0.596
13.0,2.0,0.597
7.0,3.0,0.598
5.0,2.0,0.599
1.0,-1.0,0.6
-2.0,-5.0,0.601
-3.0,-7.0,0.602
0.0,-7.0,0.603
4.0,-4.0,0.604
5.0,1.0,0.605
3.0,5.0,0.606
1.0,4.0,0.607
2.0,0.0,0.608
2.0,-2.0,0.609
-1.0,0.0,0.61
-5.0,0.0,0.611
-6.0,-1.0,0.612
-3.0,-2.0,0.613
-2.0,-2.0,0.614
-1.0,-3.0,0.615
0.0,-3.0,0.616
3.0,0.0,0.617
4.0,0.0,0.618
3.0,-1.0,0.619
-1.0,-2.0,0.62
-3.0,-7.0,0.621
-2.0,-7.0,0.622
2.0,-5.0,0.623
8.0,-4.0,0.624
11.0,0.0,0.625
9.0,2.0,0.626
4.0,0.0,0.627
2.0,0.0,0.628
4.0,0.0,0.629
5.0,2.0,0.63
6.0,1.0,0.631
4.0,-2.0,0.632
0.0,-2.0,0.633
-3.0,0.0,0.634
-4.0,0.0,0.635
-4.0,0.0,0.636
-3.0,1.0,0.637
-3.0,1.0,0.638
-5.0,0.0,0.639
-6.0,0.0,0.64
-4.0,-2.0,0.641
-1.0,-4.0,0.642
4.0,-4.0,0.643
9.0,-3.0,0.644
7.0,0.0,0.645
5.0,2.0,0.646
5.0,2.0,0.647
5.0,2.0,0.648
10.0,1.0,0.649
13.0,0.0,0.65
7.0,0.0,0.651
3.0,0.0,0.652
2.0,0.0,0.653
0.0,-1.0,0.654
-1.0,0.0,0.655
-4.0,0.0,0.656
-2.0,0.0,0.657
1.0,2.0,0.658
6.0,0.0,0.659
4.0,-1.0,0.66
1.0,-3.0,0.661
0.0,-6.0,0.662
5.0,-6.0,0.663
10.0,-5.0,0.664
10.0,0.0,0.665
2.0,4.0,0.666
-1.0,4.0,0.667
0.0,4.0,0.668
4.0,2.0,0.669
4.0,1.0,0.67
2.0,1.0,0.671
2.0,1.0,0.672
2.0,0.0,0.673
1.0,-2.0,0.674
1.0,-1.0,0.675
2.0,0.0,0.676
7.0,1.0,0.677
10.0,2.0,0.678
9.0,-2.0,0.679
4.0,-5.0,0.68
-1.0,-9.0,0.681
0.0,-6.0,0.682
7.0,-2.0,0.683
15.0,0.0,0.684
18.0,3.0,0.685
13.0,6.0,0.686
8.0,6.0,0.687
6.0,2.0,0.688
3.0,-3.0,0.689
3.0,-2.0,0.69
4.0,0.0,0.691
3.0,0.0,0.692
-1.0,-1.0,0.693
-4.0,-2.0,0.694
-2.0,-1.0,0.695
0.0,-1.0,0.696
0.0,-1.0,0.697
-2.0,1.0,0.698
-2.0,1.0,0.699
-2.0,-1.0,0.7
-5.0,-7.0,0.701
-4.0,-7.0,0.702
2.0,-4.0,0.703
9.0,-1.0,0.704
6.0,2.0,0.705
-1.0,5.0,0.706
-1.0,6.0,0.707
4.0,3.0,0.708
5.0,-2.0,0.709
0.0,-2.0,0.71
-3.0,-1.0,0.711
-3.0,-1.0,0.712
-3.0,-3.0,0.713
-5.0,-1.0,0.714
-5.0,2.0,0.715
-4.0,0.0,0.716
-3.0,-2.0,0.717
-4.0,-3.0,0.718
-4.0,0.0,0.719
-3.0,1.0,0.72
-5.0,-3.0,0.721
-5.0,-6.0,0.722
0.0,-7.0,0.723
10.0,-4.0,0.724
14.0,1.0,0.725
10.0,7.0,0.726
8.0,7.0,0.727
8.0,4.0,0.728
8.0,2.0,0.729
6.0,3.0,0.73
4.0,2.0,0.731
5.0,-1.0,0.732
7.0,-2.0,0.733
10.0,0.0,0.734
9.0,2.0,0.735
6.0,-1.0,0.736
3.0,-2.0,0.737
0.0,-2.0,0.738
0.0,-1.0,0.739
-4.0,-2.0,0.74
-6.0,-5.0,0.741
-4.0,-4.0,0.742
4.0,-3.0,0.743
12.0,-4.0,0.744
14.0,-3.0,0.745
8.0,2.0,0.746
7.0,5.0,0.747
8.0,2.0,0.748
7.0,-2.0,0.749
4.0,-4.0,0.75
2.0,-2.0,0.751
3.0,0.0,0.752
4.0,1.0,0.753
3.0,-1.0,0.754
2.0,-4.0,0.755
4.0,-6.0,0.756
6.0,-5.0,0.757
3.0,-4.0,0.758
0.0,-1.0,0.759
-4.0,0.0,0.76
-4.0,-4.0,0.761
-2.0,-5.0,0.762
1.0,-4.0,0.763
6.0,1.0,0.764
6.0,7.0,0.765
1.0,7.0,0.766
0.0,3.0,0.767
2.0,1.0,0.768
4.0,3.0,0.769
3.0,3.0,0.77
4.0,0.0,0.771
7.0,0.0,0.772
9.0,0.0,0.773
10.0,-1.0,0.774
10.0,-4.0,0.775
12.0,-3.0,0.776
13.0,2.0,0.777
9.0,1.0,0.778
5.0,-4.0,0.779
0.0,-7.0,0.78
-4.0,-6.0,0.781
-4.0,-4.0,0.782
2.0,-3.0,0.783
11.0,-2.0,0.784
11.0,3.0,0.785
5.0,6.0,0.786
-1.0,2.0,0.787
-1.0,-1.0,0.788
-1.0,-1.0,0.789
-2.0,0.0,0.79
-4.0,0.0,0.791
-2.0,-1.0,0.792
1.0,0.0,0.793
0.0,0.0,0.794
-2.0,-3.0,0.795
-3.0,-4.0,0.796
-4.0,1.0,0.797
-6.0,3.0,0.798
-8.0,2.0,0.799
-8.0,0.0,0.8
-6.0,-2.0,0.801
-3.0,0.0,0.802
2.0,1.0,0.803
5.0,2.0,0.804
4.0,4.0,0.805
0.0,7.0,0.806
0.0,5.0,0.807
3.0,0.0,0.808
4.0,-2.0,0.809
4.0,2.0,0.81
2.0,5.0,0.811
-1.0,1.0,0.812
-3.0,-4.0,0.813
-2.0,-5.0,0.814
4.0,-4.0,0.815
10.0,-1.0,0.816
14.0,1.0,0.817
15.0,-3.0,0.818
15.0,-6.0,0.819
9.0,-6.0,0.82
-1.0,-7.0,0.821
-6.0,-6.0,0.822
-4.0,-4.0,0.823
-1.0,-1.0,0.824
-5.0,4.0,0.825
-13.0,7.0,0.826
-16.0,6.0,0.827
-10.0,2.0,0.828
-5.0,0.0,0.829
-3.0,0.0,0.83
-5.0,2.0,0.831
0.0,2.0,0.832
12.0,0.0,0.833
19.0,-2.0,0.834
17.0,-2.0,0.835
11.0,0.0,0.836
12.0,0.0,0.837
19.0,-3.0,0.838
22.0,-5.0,0.839
17.0,-5.0,0.84
12.0,-10.0,0.841
8.0,-10.0,0.842
1.0,-2.0,0.843
-10.0,7.0,0.844
-21.0,11.0,0.845
-19.0,9.0,0.846
-16.0,5.0,0.847
-21.0,2.0,0.848
-30.0,-2.0,0.849
-25.0,-2.0,0.85
-6.0,0.0,0.851
12.0,1.0,0.852
11.0,1.0,0.853
2.0,1.0,0.854
1.0,3.0,0.855
8.0,4.0,0.856
13.0,2.0,0.857
10.0,-3.0,0.858
10.0,-5.0,0.859
10.0,-5.0,0.86
8.0,-7.0,0.861
7.0,-8.0,0.862
14.0,-7.0,0.863
20.0,-3.0,0.864
18.0,1.0,0.865
9.0,4.0,0.866
5.0,2.0,0.867
10.0,-1.0,0.868
13.0,-3.0,0.869
15.0,0.0,0.87
15.0,3.0,0.871
12.0,1.0,0.872
1.0,-3.0,0.873
-8.0,-4.0,0.874
-6.0,-3.0,0.875
6.0,0.0,0.876
19.0,1.0,0.877
29.0,3.0,0.878
35.0,1.0,0.879
27.0,-1.0,0.88
3.0,-5.0,0.881
-13.0,-8.0,0.882
-6.0,-4.0,0.883
11.0,0.0,0.884
5.0,4.0,0.885
-25.0,6.0,0.886
-48.0,2.0,0.887
-46.0,-1.0,0.888
-34.0,-1.0,0.889
-38.0,-2.0,0.89
-46.0,-2.0,0.891
-37.0,-1.0,0.892
-9.0,-1.0,0.893
16.0,0.0,0.894
28.0,0.0,0.895
36.0,0.0,0.896
47.0,0.0,0.897
45.0,0.0,0.898
25.0,0.0,0.899
-1.0,2.0,0.9
-8.0,1.0,0.901
4.0,0.0,0.902
13.0,2.0,0.903
6.0,5.0,0.904
-4.0,8.0,0.905
-3.0,7.0,0.906
9.0,1.0,0.907
18.0,-5.0,0.908
14.0,-6.0,0.909
4.0,-4.0,0.91
0.0,-5.0,0.911
10.0,-8.0,0.912
23.0,-8.0,0.913
28.0,-4.0,0.914
24.0,-2.0,0.915
18.0,-3.0,0.916
16.0,-2.0,0.917
9.0,0.0,0.918
-3.0,-1.0,0.919
-20.0,-4.0,0.92
-31.0,-6.0,0.921
-31.0,-3.0,0.922
-23.0,0.0,0.923
-16.0,0.0,0.924
-15.0,1.0,0.925
-14.0,2.0,0.926
-3.0,2.0,0.927
8.0,-3.0,0.928
10.0,-5.0,0.929
9.0,-1.0,0.93
15.0,0.0,0.931
17.0,-2.0,0.932
11.0,-4.0,0.933
1.0,-3.0,0.934
4.0,-1.0,0.935
14.0,-2.0,0.936
16.0,-3.0,0.937
4.0,-3.0,0.938
-5.0,-2.0,0.939
-6.0,-2.0,0.94
-1.0,-4.0,0.941
7.0,-4.0,0.942
15.0,-2.0,0.943
18.0,-2.0,0.944
18.0,0.0,0.945
15.0,3.0,0.946
14.0,4.0,0.947
14.0,1.0,0.948
11.0,0.0,0.949
7.0,2.0,0.95
7.0,5.0,0.951
7.0,1.0,0.952
3.0,-2.0,0.953
0.0,0.0,0.954
-1.0,3.0,0.955
0.0,-1.0,0.956
0.0,-5.0,0.957
-4.0,-5.0,0.958
-11.0,0.0,0.959
-22.0,3.0,0.96
-28.0,0.0,0.961
-21.0,-2.0,0.962
0.0,0.0,0.963
18.0,2.0,0.964
17.0,2.0,0.965
7.0,3.0,0.966
1.0,3.0,0.967
1.0,0.0,0.968
-2.0,0.0,0.969
-3.0,2.0,0.97
2.0,5.0,0.971
13.0,3.0,0.972
19.0,0.0,0.973
20.0,4.0,0.974
17.0,8.0,0.975
8.0,8.0,0.976
-5.0,9.0,0.977
-18.0,6.0,0.978
-20.0,4.0,0.979
-18.0,0.0,0.98
-14.0,-5.0,0.981
-13.0,-4.0,0.982
-6.0,0.0,0.983
2.0,0.0,0.984
10.0,-2.0,0.985
11.0,-3.0,0.986
7.0,-2.0,0.987
5.0,-4.0,0.988
5.0,-5.0,0.989
2.0,-2.0,0.99
-1.0,0.0,0.991
-4.0,-1.0,0.992
1.0,-4.0,0.993
11.0,-1.0,0.994
18.0,2.0,0.995
14.0,0.0,0.996
7.0,-3.0,0.997
0.0,-3.0,0.998
-4.0,-1.0,0.999
-10.0,-1.0,1.0
-19.0,-6.0,1.001
-19.0,-6.0,1.002
-10.0,-2.0,1.003
5.0,-1.0,1.004
11.0,-3.0,1.005
3.0,-2.0,1.006
-3.0,-1.0,1.007
0.0,-1.0,1.008
7.0,-4.0,1.009
5.0,-5.0,1.01
1.0,-2.0,1.011
4.0,-1.0,1.012
10.0,-3.0,1.013
6.0,-2.0,1.014
1.0,-1.0,1.015
9.0,-1.0,1.016
23.0,0.0,1.017
28.0,4.0,1.018
20.0,4.0,1.019
8.0,-2.0,1.02
1.0,-12.0,1.021
-1.0,-12.0,1.022
-2.0,-4.0,1.023
4.0,0.0,1.024
9.0,0.0,1.025
6.0,2.0,1.026
-1.0,6.0,1.027
-1.0,6.0,1.028
-1.0,1.0,1.029
-9.0,1.0,1.03
-21.0,2.0,1.031
-21.0,1.0,1.032
-11.0,-2.0,1.033
-3.0,0.0,1.034
-2.0,3.0,1.035
0.0,5.0,1.036
7.0,4.0,1.037
11.0,2.0,1.038
10.0,3.0,1.039
8.0,1.0,1.04
8.0,-6.0,1.041
11.0,-8.0,1.042
18.0,-6.0,1.043
28.0,-2.0,1.044
34.0,-2.0,1.045
30.0,-3.0,1.046
20.0,-1.0,1.047
17.0,0.0,1.048
21.0,0.0,1.049
25.0,-2.0,1.05
24.0,-3.0,1.051
10.0,-2.0,1.052
-11.0,0.0,1.053
-28.0,0.0,1.054
-27.0,-2.0,1.055
-19.0,-4.0,1.056
-18.0,-1.0,1.057
-29.0,0.0,1.058
-35.0,0.0,1.059
-29.0,1.0,1.06
-16.0,1.0,1.061
-7.0,3.0,1.062
3.0,0.0,1.063
14.0,0.0,1.064
18.0,3.0,1.065
15.0,5.0,1.066
11.0,0.0,1.067
12.0,-5.0,1.068
11.0,-4.0,1.069
11.0,1.0,1.07
12.0,-1.0,1.071
14.0,-7.0,1.072
13.0,-8.0,1.073
12.0,-4.0,1.074
11.0,-3.0,1.075
11.0,-6.0,1.076
11.0,-6.0,1.077
11.0,-2.0,1.078
15.0,-1.0,1.079
17.0,-3.0,1.08
20.0,-8.0,1.081
26.0,-8.0,1.082
32.0,-2.0,1.083
25.0,0.0,1.084
2.0,1.0,1.085
-23.0,4.0,1.086
-40.0,4.0,1.087
-51.0,2.0,1.088
-53.0,-2.0,1.089
-42.0,-1.0,1.09
-19.0,2.0,1.091
-3.0,3.0,1.092
0.0,3.0,1.093
1.0,5.0,1.094
5.0,5.0,1.095
11.0,0.0,1.096
12.0,-3.0,1.097
11.0,-4.0,1.098
11.0,0.0,1.099
5.0,-1.0,1.1
-1.0,-5.0,1.101
-1.0,-6.0,1.102
9.0,-4.0,1.103
22.0,1.0,1.104
22.0,4.0,1.105
16.0,6.0,1.106
12.0,5.0,1.107
12.0,0.0,1.108
11.0,-2.0,1.109
6.0,-1.0,1.11
4.0,1.0,1.111
2.0,0.0,1.112
-2.0,0.0,1.113
-7.0,-1.0,1.114
-8.0,0.0,1.115
-3.0,0.0,1.116
2.0,0.0,1.117
1.0,-1.0,1.118
0.0,-2.0,1.119
-3.0,-4.0,1.12
-4.0,-7.0,1.121
-4.0,-7.0,1.122
2.0,-4.0,1.123
11.0,-1.0,1.124
10.0,2.0,1.125
1.0,3.0,1.126
-1.0,2.0,1.127
4.0,0.0,1.128
6.0,-2.0,1.129
3.0,0.0,1.13
3.0,2.0,1.131
13.0,3.0,1.132
18.0,1.0,1.133
11.0,-1.0,1.134
-2.0,-3.0,1.135
-4.0,-2.0,1.136
0.0,-1.0,1.137
-2.0,-2.0,1.138
-10.0,-4.0,1.139
-18.0,-6.0,1.14
-14.0,-8.0,1.141
-5.0,-7.0,1.142
4.0,-3.0,1.143
11.0,-1.0,1.144
14.0,1.0,1.145
14.0,4.0,1.146
14.0,6.0,1.147
15.0,4.0,1.148
12.0,1.0,1.149
7.0,-1.0,1.15
3.0,-2.0,1.151
3.0,-1.0,1.152
3.0,1.0,1.153
-1.0,3.0,1.154
-2.0,4.0,1.155
-1.0,1.0,1.156
-1.0,1.0,1.157
-5.0,0.0,1.158
-4.0,1.0,1.159
1.0,0.0,1.16
3.0,-5.0,1.161
0.0,-7.0,1.162
7.0,-5.0,1.163
18.0,-2.0,1.164
20.0,4.0,1.165
9.0,6.0,1.166
-1.0,2.0,1.167
1.0,-2.0,1.168
7.0,-2.0,1.169
4.0,1.0,1.17
1.0,2.0,1.171
4.0,-1.0,1.172
8.0,-5.0,1.173
5.0,-4.0,1.174
1.0,-3.0,1.175
3.0,-2.0,1.176
6.0,0.0,1.177
1.0,1.0,1.178
-5.0,2.0,1.179
-9.0,1.0,1.18
-9.0,-2.0,1.181
-11.0,-4.0,1.182
-7.0,-3.0,1.183
0.0,0.0,1.184
3.0,3.0,1.185
0.0,7.0,1.186
-3.0,3.0,1.187
1.0,-2.0,1.188
5.0,-1.0,1.189
3.0,3.0,1.19
0.0,3.0,1.191
0.0,0.0,1.192
0.0,-2.0,1.193
-2.0,-1.0,1.194
-4.0,-1.0,1.195
-1.0,-2.0,1.196
2.0,-1.0,1.197
-1.0,-1.0,1.198
-5.0,-2.0,1.199
-8.0,-5.0,1.2
-9.0,-7.0,1.201
-6.0,-4.0,1.202
0.0,0.0,1.203
8.0,2.0,1.204
12.0,0.0,1.205
13.0,0.0,1.206
16.0,-1.0,1.207
20.0,-1.0,1.208
17.0,0.0,1.209
7.0,3.0,1.21
0.0,1.0,1.211
-1.0,-3.0,1.212
-2.0,-5.0,1.213
-3.0,-1.0,1.214
2.0,2.0,1.215
19.0,2.0,1.216
32.0,2.0,1.217
33.0,-1.0,1.218
23.0,-3.0,1.219
7.0,-5.0,1.22
-12.0,-9.0,1.221
-26.0,-8.0,1.222
-29.0,-6.0,1.223
-23.0,-3.0,1.224
-17.0,1.0,1.225
-14.0,6.0,1.226
-9.0,5.0,1.227
-2.0,2.0,1.228
-2.0,0.0,1.229
-5.0,3.0,1.23
-3.0,4.0,1.231
10.0,3.0,1.232
24.0,0.0,1.233
30.0,0.0,1.234
27.0,-2.0,1.235
20.0,-4.0,1.236
11.0,-4.0,1.237
-2.0,-2.0,1.238
-13.0,-1.0,1.239
-20.0,-4.0,1.24
-20.0,-10.0,1.241
-13.0,-8.0,1.242
1.0,-2.0,1.243
13.0,3.0,1.244
14.0,4.0,1.245
9.0,5.0,1.246
8.0,5.0,1.247
13.0,4.0,1.248
14.0,2.0,1.249
9.0,2.0,1.25
2.0,0.0,1.251
-3.0,-2.0,1.252
-4.0,-2.0,1.253
-3.0,0.0,1.254
0.0,1.0,1.255
-1.0,0.0,1.256
-4.0,-1.0,1.257
-8.0,-3.0,1.258
-6.0,-3.0,1.259
-1.0,-5.0,1.26
3.0,-7.0,1.261
5.0,-5.0,1.262
12.0,-1.0,1.263
20.0,3.0,1.264
24.0,5.0,1.265
20.0,5.0,1.266
15.0,3.0,1.267
17.0,2.0,1.268
21.0,1.0,1.269
21.0,2.0,1.27
15.0,1.0,1.271
9.0,4.0,1.272
6.0,8.0,1.273
6.0,6.0,1.274
2.0,0.0,1.275
-3.0,-7.0,1.276
-4.0,-5.0,1.277
-8.0,-4.0,1.278
-13.0,-5.0,1.279
-16.0,-7.0,1.28
-12.0,-7.0,1.281
-6.0,-2.0,1.282
-1.0,0.0,1.283
3.0,-1.0,1.284
10.0,0.0,1.285
20.0,2.0,1.286
26.0,2.0,1.287
24.0,0.0,1.288
14.0,-1.0,1.289
2.0,-2.0,1.29
-6.0,-4.0,1.291
-9.0,-5.0,1.292
-9.0,-2.0,1.293
-5.0,2.0,1.294
1.0,2.0,1.295
5.0,-1.0,1.296
2.0,0.0,1.297
-7.0,0.0,1.298
-18.0,1.0,1.299
-27.0,4.0,1.3
-34.0,2.0,1.301
-33.0,0.0,1.302
-16.0,-2.0,1.303
10.0,-1.0,1.304
21.0,3.0,1.305
11.0,3.0,1.306
0.0,-2.0,1.307
3.0,-4.0,1.308
11.0,1.0,1.309
11.0,7.0,1.31
5.0,4.0,1.311
4.0,-1.0,1.312
10.0,-3.0,1.313
10.0,-2.0,1.314
8.0,-3.0,1.315
13.0,-2.0,1.316
16.0,1.0,1.317
13.0,5.0,1.318
5.0,2.0,1.319
-2.0,-2.0,1.32
-4.0,-6.0,1.321
-5.0,-4.0,1.322
-3.0,-2.0,1.323
2.0,-1.0,1.324
4.0,0.0,1.325
-1.0,3.0,1.326
-6.0,4.0,1.327
-3.0,3.0,1.328
2.0,2.0,1.329
5.0,3.0,1.33
5.0,1.0,1.331
9.0,-1.0,1.332
13.0,0.0,1.333
12.0,3.0,1.334
4.0,2.0,1.335
0.0,-1.0,1.336
-1.0,0.0,1.337
-3.0,0.0,1.338
-5.0,-4.0,1.339
-6.0,-9.0,1.34
-4.0,-10.0,1.341
-1.0,-8.0,1.342
3.0,-6.0,1.343
7.0,-5.0,1.344
10.0,-1.0,1.345
10.0,4.0,1.346
8.0,3.0,1.347
2.0,-2.0,1.348
-2.0,-1.0,1.349
-4.0,2.0,1.35
-5.0,2.0,1.351
-4.0,-2.0,1.352
-2.0,-2.0,1.353
3.0,0.0,1.354
8.0,-1.0,1.355
7.0,-5.0,1.356
1.0,-2.0,1.357
-7.0,3.0,1.358
-9.0,1.0,1.359
-7.0,-5.0,1.36
-3.0,-9.0,1.361
0.0,-6.0,1.362
6.0,-3.0,1.363
13.0,0.0,1.364
16.0,5.0,1.365
13.0,10.0,1.366
12.0,5.0,1.367
13.0,-3.0,1.368
14.0,-2.0,1.369
12.0,3.0,1.37
10.0,3.0,1.371
11.0,-2.0,1.372
12.0,-4.0,1.373
10.0,0.0,1.374
7.0,2.0,1.375
6.0,1.0,1.376
7.0,1.0,1.377
6.0,1.0,1.378
1.0,-1.0,1.379
-5.0,-4.0,1.38
-9.0,-6.0,1.381
-5.0,-3.0,1.382
2.0,-2.0,1.383
11.0,0.0,1.384
14.0,3.0,1.385
11.0,2.0,1.386
8.0,-2.0,1.387
7.0,-4.0,1.388
0.0,0.0,1.389
-2.0,4.0,1.39
4.0,4.0,1.391
17.0,0.0,1.392
24.0,0.0,1.393
20.0,0.0,1.394
12.0,1.0,1.395
4.0,-1.0,1.396
-4.0,0.0,1.397
-17.0,-1.0,1.398
-29.0,-3.0,1.399
-39.0,-5.0,1.4
-43.0,-5.0,1.401
-40.0,-3.0,1.402
-21.0,0.0,1.403
9.0,2.0,1.404
28.0,4.0,1.405
28.0,3.0,1.406
18.0,1.0,1.407
14.0,-1.0,1.408
10.0,0.0,1.409
-3.0,3.0,1.41
-20.0,5.0,1.411
-25.0,3.0,1.412
-15.0,1.0,1.413
4.0,-1.0,1.414
20.0,-1.0,1.415
20.0,-2.0,1.416
8.0,-1.0,1.417
0.0,-1.0,1.418
-2.0,-1.0,1.419
-4.0,-2.0,1.42
-9.0,-3.0,1.421
-12.0,-4.0,1.422
7.0,-2.0,1.423
21.0,-1.0,1.424
19.0,0.0,1.425
14.0,1.0,1.426
4.0,0.0,1.427
-2.0,-1.0,1.428
0.0,3.0,1.429
0.0,7.0,1.43
-12.0,3.0,1.431
-24.0,1.0,1.432
-14.0,1.0,1.433
-4.0,0.0,1.434
-4.0,0.0,1.435
-2.0,-1.0,1.436
2.0,-1.0,1.437
0.0,-1.0,1.438
-1.0,-1.0,1.439
-2.0,-2.0,1.44
-4.0,-3.0,1.441
-5.0,-4.0,1.442
3.0,-2.0,1.443
9.0,-1.0,1.444
8.0,0.0,1.445
6.0,1.0,1.446
2.0,0.0,1.447
-1.0,-1.0,1.448
0.0,3.0,1.449
0.0,6.0,1.45
-5.0,3.0,1.451
-10.0,1.0,1.452
-6.0,1.0,1.453
-2.0,0.0,1.454
-2.0,0.0,1.455
-1.0,-1.0,1.456
1.0,-1.0,1.457
4.0,-1.0,1.458
-1.0,-2.0,1.459
-7.0,-5.0,1.46
-9.0,-10.0,1.461
-6.0,-8.0,1.462
-1.0,-2.0,1.463
5.0,-1.0,1.464
9.0,-2.0,1.465
9.0,-3.0,1.466
10.0,-2.0,1.467
13.0,-1.0,1.468
13.0,-1.0,1.469
9.0,-1.0,1.47
8.0,0.0,1.471
7.0,0.0,1.472
5.0,1.0,1.473
0.0,3.0,1.474
0.0,3.0,1.475
5.0,0.0,1.476
9.0,-1.0,1.477
7.0,-3.0,1.478
5.0,-3.0,1.479
1.0,-5.0,1.48
-5.0,-9.0,1.481
-9.0,-8.0,1.482
-2.0,-3.0,1.483
11.0,0.0,1.484
17.0,1.0,1.485
17.0,2.0,1.486
20.0,1.0,1.487
28.0,0.0,1.488
26.0,0.0,1.489
12.0,3.0,1.49
1.0,3.0,1.491
2.0,0.0,1.492
6.0,-1.0,1.493
1.0,0.0,1.494
-5.0,-1.0,1.495
-5.0,-3.0,1.496
-3.0,-4.0,1.497
-29.0,-3.0,1.498
-11.0,0.0,1.499
3.0,1.0,1.5
7.0,-2.0,1.501
15.0,-3.0,1.502
33.0,-1.0,1.503
47.0,0.0,1.504
41.0,4.0,1.505
35.0,7.0,1.506
27.0,7.0,1.507
17.0,3.0,1.508
7.0,0.0,1.509
-3.0,1.0,1.51
-9.0,2.0,1.511
-11.0,0.0,1.512
-3.0,-2.0,1.513
5.0,1.0,1.514
7.0,3.0,1.515
10.0,4.0,1.516
11.0,3.0,1.517
-10.0,2.0,1.518
-1.0,3.0,1.519
6.0,3.0,1.52
8.0,-2.0,1.521
13.0,-6.0,1.522
22.0,-3.0,1.523
29.0,0.0,1.524
26.0,1.0,1.525
23.0,3.0,1.526
19.0,3.0,1.527
14.0,2.0,1.528
8.0,1.0,1.529
3.0,0.0,1.53
0.0,-1.0,1.531
-1.0,-3.0,1.532
3.0,-3.0,1.533
7.0,-4.0,1.534
8.0,-4.0,1.535
10.0,-3.0,1.536
11.0,-3.0,1.537
13.0,-1.0,1.538
11.0,0.0,1.539
3.0,0.0,1.54
-2.0,-5.0,1.541
-5.0,-5.0,1.542
-3.0,-2.0,1.543
0.0,-2.0,1.544
4.0,-1.0,1.545
6.0,-1.0,1.546
7.0,-1.0,1.547
7.0,-2.0,1.548
6.0,-3.0,1.549
4.0,-4.0,1.55
3.0,-2.0,1.551
4.0,-1.0,1.552
10.0,-1.0,1.553
14.0,-3.0,1.554
8.0,-2.0,1.555
-3.0,-2.0,1.556
-8.0,0.0,1.557
-8.0,0.0,1.558
-6.0,-2.0,1.559
-9.0,-4.0,1.56
-8.0,-8.0,1.561
1.0,-10.0,1.562
17.0,-7.0,1.563
26.0,-4.0,1.564
24.0,3.0,1.565
15.0,9.0,1.566
6.0,9.0,1.567
0.0,4.0,1.568
-1.0,3.0,1.569
-5.0,4.0,1.57
-11.0,5.0,1.571
-16.0,2.0,1.572
-13.0,0.0,1.573
-2.0,4.0,1.574
14.0,6.0,1.575
22.0,4.0,1.576
19.0,1.0,1.577
-2.0,0.0,1.578
2.0,0.0,1.579
5.0,-3.0,1.58
5.0,-9.0,1.581
7.0,-9.0,1.582
16.0,-3.0,1.583
26.0,2.0,1.584
33.0,4.0,1.585
38.0,5.0,1.586
32.0,4.0,1.587
25.0,0.0,1.588
14.0,-4.0,1.589
5.0,-4.0,1.59
3.0,-2.0,1.591
-1.0,-1.0,1.592
-17.0,-2.0,1.593
-27.0,-1.0,1.594
-22.0,0.0,1.595
-18.0,-2.0,1.596
-18.0,-2.0,1.597
-7.0,-3.0,1.598
0.0,-3.0,1.599
6.0,-4.0,1.6
6.0,-6.0,1.601
8.0,-4.0,1.602
24.0,-1.0,1.603
40.0,0.0,1.604
51.0,2.0,1.605
59.0,6.0,1.606
50.0,6.0,1.607
39.0,2.0,1.608
19.0,-1.0,1.609
4.0,-2.0,1.61
2.0,-4.0,1.611
-6.0,-5.0,1.612
-31.0,-5.0,1.613
-48.0,0.0,1.614
-39.0,2.0,1.615
-32.0,-4.0,1.616
-32.0,-7.0,1.617
2.0,-3.0,1.618
4.0,-2.0,1.619
5.0,-2.0,1.62
5.0,-8.0,1.621
5.0,-12.0,1.622
10.0,-6.0,1.623
15.0,-2.0,1.624
18.0,-2.0,1.625
20.0,-1.0,1.626
17.0,-2.0,1.627
14.0,-2.0,1.628
9.0,-2.0,1.629
5.0,-3.0,1.63
5.0,-2.0,1.631
2.0,0.0,1.632
-5.0,0.0,1.633
-10.0,-1.0,1.634
-7.0,-1.0,1.635
-5.0,0.0,1.636
-5.0,0.0,1.637
-4.0,-4.0,1.638
1.0,-3.0,1.639
5.0,-3.0,1.64
5.0,-9.0,1.641
7.0,-13.0,1.642
19.0,-7.0,1.643
30.0,-3.0,1.644
38.0,-1.0,1.645
44.0,0.0,1.646
38.0,-1.0,1.647
29.0,-2.0,1.648
15.0,-3.0,1.649
5.0,-4.0,1.65
3.0,-1.0,1.651
-3.0,1.0,1.652
-21.0,1.0,1.653
-33.0,0.0,1.654
-27.0,0.0,1.655
-22.0,1.0,1.656
-22.0,1.0,1.657
0.0,0.0,1.658
3.0,2.0,1.659
5.0,7.0,1.66
5.0,5.0,1.661
6.0,2.0,1.662
13.0,-1.0,1.663
20.0,0.0,1.664
25.0,2.0,1.665
28.0,6.0,1.666
24.0,9.0,1.667
19.0,12.0,1.668
11.0,15.0,1.669
5.0,11.0,1.67
4.0,3.0,1.671
1.0,-1.0,1.672
-10.0,0.0,1.673
-18.0,2.0,1.674
-14.0,0.0,1.675
-11.0,-1.0,1.676
-11.0,-1.0,1.677
-6.0,-3.0,1.678
0.0,-3.0,1.679
6.0,-4.0,1.68
6.0,-4.0,1.681
8.0,-4.0,1.682
22.0,-2.0,1.683
36.0,0.0,1.684
46.0,1.0,1.685
53.0,2.0,1.686
45.0,-1.0,1.687
35.0,-4.0,1.688
18.0,-4.0,1.689
4.0,-4.0,1.69
2.0,-4.0,1.691
-5.0,-5.0,1.692
-27.0,-5.0,1.693
-42.0,-4.0,1.694
-34.0,-2.0,1.695
-28.0,0.0,1.696
-28.0,1.0,1.697
-26.0,2.0,1.698
-19.0,-1.0,1.699
-10.0,-1.0,1.7
-3.0,-4.0,1.701
5.0,-5.0,1.702
17.0,-5.0,1.703
24.0,-3.0,1.704
25.0,0.0,1.705
23.0,1.0,1.706
26.0,-2.0,1.707
29.0,-3.0,1.708
23.0,0.0,1.709
13.0,4.0,1.71
7.0,3.0,1.711
15.0,-2.0,1.712
28.0,-2.0,1.713
36.0,1.0,1.714
35.0,1.0,1.715
28.0,-5.0,1.716
18.0,-9.0,1.717
7.0,-8.0,1.718
9.0,-6.0,1.719
10.0,-6.0,1.72
7.0,-6.0,1.721
6.0,-3.0,1.722
10.0,2.0,1.723
14.0,5.0,1.724
16.0,8.0,1.725
18.0,8.0,1.726
19.0,3.0,1.727
20.0,-4.0,1.728
20.0,-6.0,1.729
21.0,-4.0,1.73
19.0,-3.0,1.731
16.0,-4.0,1.732
12.0,0.0,1.733
7.0,8.0,1.734
-3.0,13.0,1.735
-12.0,13.0,1.736
-18.0,8.0,1.737
5.0,0.0,1.738
8.0,-7.0,1.739
10.0,-8.0,1.74
5.0,-5.0,1.741
2.0,1.0,1.742
10.0,7.0,1.743
17.0,10.0,1.744
21.0,12.0,1.745
24.0,7.0,1.746
25.0,-3.0,1.747
27.0,-13.0,1.748
28.0,-19.0,1.749
29.0,-21.0,1.75
25.0,-21.0,1.751
20.0,-16.0,1.752
14.0,-7.0,1.753
5.0,-3.0,1.754
-12.0,-3.0,1.755
-27.0,-5.0,1.756
-37.0,-2.0,1.757
-53.0,0.0,1.758
-78.0,2.0,1.759
-88.0,3.0,1.76
-68.0,3.0,1.761
-45.0,5.0,1.762
-34.0,7.0,1.763
-25.0,8.0,1.764
-3.0,6.0,1.765
15.0,4.0,1.766
19.0,2.0,1.767
19.0,0.0,1.768
26.0,-1.0,1.769
27.0,1.0,1.77
16.0,3.0,1.771
9.0,5.0,1.772
16.0,8.0,1.773
22.0,12.0,1.774
14.0,17.0,1.775
4.0,22.0,1.776
7.0,24.0,1.777
15.0,24.0,1.778
13.0,24.0,1.779
12.0,18.0,1.78
10.0,-7.0,1.781
11.0,-28.0,1.782
20.0,-36.0,1.783
27.0,-39.0,1.784
29.0,-25.0,1.785
29.0,-13.0,1.786
21.0,-7.0,1.787
13.0,0.0,1.788
10.0,9.0,1.789
6.0,16.0,1.79
0.0,18.0,1.791
-7.0,19.0,1.792
-12.0,17.0,1.793
-18.0,14.0,1.794
-23.0,12.0,1.795
-24.0,8.0,1.796
-10.0,-1.0,1.797
1.0,-11.0,1.798
-1.0,-17.0,1.799
-7.0,-16.0,1.8
-7.0,-9.0,1.801
-8.0,-1.0,1.802
-9.0,0.0,1.803
-6.0,-6.0,1.804
4.0,-11.0,1.805
14.0,-13.0,1.806
19.0,-12.0,1.807
23.0,-2.0,1.808
26.0,21.0,1.809
28.0,40.0,1.81
32.0,29.0,1.811
40.0,-17.0,1.812
44.0,-67.0,1.813
36.0,-93.0,1.814
20.0,-82.0,1.815
7.0,-44.0,1.816
5.0,8.0,1.817
0.0,61.0,1.818
-10.0,109.0,1.819
-22.0,150.0,1.82
-34.0,173.0,1.821
-41.0,168.0,1.822
-33.0,119.0,1.823
-29.0,39.0,1.824
-38.0,-31.0,1.825
-43.0,-63.0,1.826
-33.0,-65.0,1.827
-23.0,-76.0,1.828
-9.0,-117.0,1.829
0.0,-168.0,1.83
-1.0,-188.0,1.831
-3.0,-155.0,1.832
-3.0,-76.0,1.833
-2.0,9.0,1.834
-2.0,62.0,1.835
-1.0,69.0,1.836
5.0,61.0,1.837
14.0,66.0,1.838
27.0,92.0,1.839
34.0,106.0,1.84
23.0,84.0,1.841
-1.0,45.0,1.842
-3.0,2.0,1.843
37.0,-41.0,1.844
89.0,-88.0,1.845
111.0,-121.0,1.846
92.0,-101.0,1.847
65.0,-20.0,1.848
56.0,80.0,1.849
46.0,124.0,1.85
13.0,82.0,1.851
-32.0,-1.0,1.852
-55.0,-68.0,1.853
-47.0,-92.0,1.854
-30.0,-75.0,1.855
-32.0,-1.0,1.856
-43.0,134.0,1.857
-50.0,289.0,1.858
-45.0,341.0,1.859
-32.0,220.0,1.86
-6.0,-1.0,1.861
32.0,-181.0,1.862
59.0,-269.0,1.863
60.0,-312.0,1.864
49.0,-332.0,1.865
52.0,-294.0,1.866
62.0,-199.0,1.867
53.0,-116.0,1.868
24.0,-72.0,1.869
-2.0,1.0,1.87
-19.0,151.0,1.871
-47.0,309.0,1.872
-86.0,383.0,1.873
-114.0,358.0,1.874
-115.0,276.0,1.875
-98.0,163.0,1.876
-75.0,49.0,1.877
-42.0,-34.0,1.878
-5.0,-47.0,1.879
22.0,-18.0,1.88
35.0,-14.0,1.881
43.0,-63.0,1.882
45.0,-154.0,1.883
37.0,-250.0,1.884
31.0,-322.0,1.885
42.0,-350.0,1.886
72.0,-349.0,1.887
126.0,-329.0,1.888
204.0,-264.0,1.889
269.0,-122.0,1.89
253.0,64.0,1.891
127.0,199.0,1.892
-53.0,253.0,1.893
-204.0,292.0,1.894
-282.0,355.0,1.895
-304.0,346.0,1.896
-305.0,186.0,1.897
-293.0,-70.0,1.898
-239.0,-211.0,1.899
-158.0,-161.0,1.9
6.0,-61.0,1.901
153.0,-38.0,1.902
247.0,-44.0,1.903
322.0,9.0,1.904
339.0,81.0,1.905
314.0,69.0,1.906
162.0,-13.0,1.907
29.0,-73.0,1.908
-44.0,-82.0,1.909
-124.0,-97.0,1.91
-221.0,-148.0,1.911
-273.0,-186.0,1.912
-186.0,-154.0,1.913
-116.0,-68.0,1.914
-94.0,-11.0,1.915
-75.0,-28.0,1.916
-62.0,-58.0,1.917
-41.0,-23.0,1.918
-25.0,71.0,1.919
-48.0,137.0,1.92
-60.0,162.0,1.921
-27.0,235.0,1.922
31.0,363.0,1.923
79.0,402.0,1.924
95.0,263.0,1.925
76.0,61.0,1.926
51.0,-38.0,1.927
57.0,-36.0,1.928
97.0,-48.0,1.929
125.0,-118.0,1.93
107.0,-187.0,1.931
71.0,-218.0,1.932
64.0,-211.0,1.933
87.0,-155.0,1.934
99.0,-40.0,1.935
80.0,67.0,1.936
45.0,82.0,1.937
-3.0,-10.0,1.938
-55.0,-112.0,1.939
-95.0,-132.0,1.94
-73.0,-85.0,1.941
31.0,-51.0,1.942
173.0,-57.0,1.943
275.0,-38.0,1.944
303.0,55.0,1.945
277.0,155.0,1.946
208.0,154.0,1.947
85.0,59.0,1.948
-88.0,-12.0,1.949
-274.0,3.0,1.95
-406.0,31.0,1.951
-432.0,-7.0,1.952
-345.0,-57.0,1.953
-211.0,-19.0,1.954
-100.0,114.0,1.955
-23.0,251.0,1.956
37.0,329.0,1.957
49.0,331.0,1.958
-26.0,277.0,1.959
-147.0,218.0,1.96
-227.0,142.0,1.961
-248.0,71.0,1.962
-229.0,18.0,1.963
-147.0,-30.0,1.964
-2.0,-63.0,1.965
126.0,-88.0,1.966
163.0,-88.0,1.967
159.0,-96.0,1.968
178.0,-129.0,1.969
165.0,-125.0,1.97
72.0,-5.0,1.971
0.0,90.0,1.972
57.0,113.0,1.973
177.0,125.0,1.974
214.0,102.0,1.975
159.0,84.0,1.976
107.0,80.0,1.977
84.0,61.0,1.978
56.0,-3.0,1.979
42.0,-51.0,1.98
75.0,-84.0,1.981
103.0,-118.0,1.982
116.0,-137.0,1.983
118.0,-125.0,1.984
83.0,-110.0,1.985
44.0,-118.0,1.986
-9.0,-136.0,1.987
-62.0,-142.0,1.988
-113.0,-131.0,1.989
-161.0,-91.0,1.99
-197.0,-23.0,1.991
-220.0,18.0,1.992
-202.0,-16.0,1.993
-173.0,-71.0,1.994
-111.0,-48.0,1.995
-36.0,-2.0,1.996
76.0,-68.0,1.997
179.0,-276.0,1.998
204.0,-424.0,1.999
169.0,-361.0,2.0
148.0,-193.0,2.001
162.0,-94.0,2.002
155.0,-64.0,2.003
97.0,-2.0,2.004
29.0,93.0,2.005
-7.0,147.0,2.006
-32.0,167.0,2.007
-88.0,226.0,2.008
-151.0,310.0,2.009
-160.0,324.0,2.01
-104.0,261.0,2.011
-37.0,195.0,2.012
-10.0,154.0,2.013
-23.0,91.0,2.014
-38.0,16.0,2.015
-43.0,17.0,2.016
-54.0,115.0,2.017
-73.0,227.0,2.018
-66.0,240.0,2.019
-13.0,160.0,2.02
40.0,62.0,2.021
22.0,0.0,2.022
-58.0,-41.0,2.023
-112.0,-72.0,2.024
-95.0,-83.0,2.025
-70.0,-82.0,2.026
-100.0,-105.0,2.027
-146.0,-162.0,2.028
-127.0,-219.0,2.029
-33.0,-241.0,2.03
78.0,-250.0,2.031
163.0,-285.0,2.032
209.0,-319.0,2.033
211.0,-268.0,2.034
181.0,-109.0,2.035
170.0,48.0,2.036
199.0,86.0,2.037
197.0,0.0,2.038
100.0,-97.0,2.039
-35.0,-110.0,2.04
-82.0,-47.0,2.041
-23.0,20.0,2.042
29.0,46.0,2.043
7.0,54.0,2.044
-40.0,93.0,2.045
-58.0,159.0,2.046
-72.0,187.0,2.047
-123.0,146.0,2.048
-175.0,82.0,2.049
-152.0,44.0,2.05
-32.0,10.0,2.051
106.0,-51.0,2.052
152.0,-106.0,2.053
84.0,-101.0,2.054
-14.0,-54.0,2.055
-70.0,-18.0,2.056
-98.0,1.0,2.057
-63.0,26.0,2.058
-55.0,52.0,2.059
-46.0,60.0,2.06
-30.0,86.0,2.061
-15.0,169.0,2.062
-1.0,239.0,2.063
19.0,192.0,2.064
56.0,58.0,2.065
71.0,-21.0,2.066
18.0,-3.0,2.067
-36.0,14.0,2.068
-94.0,-28.0,2.069
-142.0,-49.0,2.07
-158.0,16.0,2.071
-169.0,99.0,2.072
-162.0,119.0,2.073
-140.0,98.0,2.074
-70.0,83.0,2.075
-17.0,50.0,2.076
-12.0,-13.0,2.077
-81.0,-51.0,2.078
-61.0,-9.0,2.079
-35.0,27.0,2.08
5.0,47.0,2.081
43.0,70.0,2.082
79.0,98.0,2.083
130.0,105.0,2.084
226.0,44.0,2.085
264.0,-20.0,2.086
129.0,-92.0,2.087
-10.0,-157.0,2.088
-160.0,-204.0,2.089
-283.0,-239.0,2.09
-324.0,-235.0,2.091
-351.0,-221.0,2.092
-335.0,-181.0,2.093
-277.0,-151.0,2.094
-99.0,-158.0,2.095
38.0,-160.0,2.096
52.0,-144.0,2.097
63.0,-126.0,2.098
78.0,-84.0,2.099
106.0,-1.0,2.1
101.0,76.0,2.101
89.0,122.0,2.102
117.0,161.0,2.103
152.0,221.0,2.104
143.0,285.0,2.105
109.0,332.0,2.106
88.0,358.0,2.107
71.0,357.0,2.108
39.0,324.0,2.109
24.0,268.0,2.11
43.0,192.0,2.111
54.0,93.0,2.112
15.0,-13.0,2.113
-50.0,-94.0,2.114
-94.0,-158.0,2.115
-102.0,-247.0,2.116
-72.0,-357.0,2.117
0.0,-451.0,2.118
83.0,-486.0,2.119
101.0,-469.0,2.12
38.0,-400.0,2.121
-34.0,-289.0,2.122
-36.0,-204.0,2.123
16.0,-190.0,2.124
49.0,-159.0,2.125
34.0,-2.0,2.126
20.0,221.0,2.127
50.0,354.0,2.128
99.0,358.0,2.129
108.0,316.0,2.13
70.0,256.0,2.131
35.0,152.0,2.132
31.0,52.0,2.133
25.0,44.0,2.134
-21.0,91.0,2.135
-68.0,80.0,2.136
-65.0,16.0,2.137
-39.0,-16.0,2.138
-45.0,11.0,2.139
-49.0,29.0,2.14
-46.0,13.0,2.141
-34.0,24.0,2.142
0.0,64.0,2.143
14.0,76.0,2.144
-31.0,59.0,2.145
-67.0,55.0,2.146
-68.0,52.0,2.147
-72.0,17.0,2.148
-84.0,-6.0,2.149
-86.0,44.0,2.15
-59.0,117.0,2.151
-51.0,118.0,2.152
-99.0,61.0,2.153
-129.0,26.0,2.154
-103.0,9.0,2.155
-66.0,-46.0,2.156
3.0,-130.0,2.157
61.0,-197.0,2.158
91.0,-234.0,2.159
147.0,-254.0,2.16
186.0,-244.0,2.161
145.0,-193.0,2.162
66.0,-153.0,2.163
42.0,-148.0,2.164
78.0,-121.0,2.165
106.0,-33.0,2.166
102.0,68.0,2.167
103.0,121.0,2.168
110.0,151.0,2.169
80.0,179.0,2.17
19.0,166.0,2.171
-4.0,89.0,2.172
21.0,10.0,2.173
18.0,-4.0,2.174
-64.0,18.0,2.175
-179.0,33.0,2.176
-235.0,41.0,2.177
-218.0,58.0,2.178
-167.0,78.0,2.179
-125.0,93.0,2.18
-97.0,122.0,2.181
-66.0,156.0,2.182
-34.0,142.0,2.183
-22.0,74.0,2.184
-25.0,27.0,2.185
-6.0,45.0,2.186
59.0,52.0,2.187
139.0,-44.0,2.188
190.0,-205.0,2.189
193.0,-301.0,2.19
152.0,-276.0,2.191
85.0,-197.0,2.192
32.0,-139.0,2.193
16.0,-99.0,2.194
-5.0,-39.0,2.195
-84.0,31.0,2.196
-182.0,65.0,2.197
-210.0,39.0,2.198
-112.0,-35.0,2.199
32.0,-122.0,2.2
109.0,-174.0,2.201
105.0,-146.0,2.202
92.0,-52.0,2.203
106.0,32.0,2.204
100.0,57.0,2.205
44.0,62.0,2.206
-12.0,109.0,2.207
-12.0,179.0,2.208
24.0,196.0,2.209
19.0,146.0,2.21
-52.0,102.0,2.211
-129.0,106.0,2.212
-155.0,121.0,2.213
-132.0,107.0,2.214
-78.0,88.0,2.215
3.0,96.0,2.216
97.0,99.0,2.217
158.0,41.0,2.218
152.0,-52.0,2.219
120.0,-118.0,2.22
7.0,-102.0,2.221
-79.0,-88.0,2.222
-84.0,-85.0,2.223
-73.0,-68.0,2.224
-15.0,-14.0,2.225
30.0,42.0,2.226
41.0,109.0,2.227
46.0,145.0,2.228
31.0,85.0,2.229
15.0,36.0,2.23
-5.0,23.0,2.231
-22.0,9.0,2.232
-30.0,-5.0,2.233
-28.0,-27.0,2.234
6.0,-67.0,2.235
33.0,-100.0,2.236
31.0,-110.0,2.237
6.0,-109.0,2.238
-99.0,-70.0,2.239
-146.0,-68.0,2.24
-89.0,-108.0,2.241
25.0,-133.0,2.242
113.0,-106.0,2.243
111.0,-36.0,2.244
33.0,46.0,2.245
-39.0,109.0,2.246
-32.0,144.0,2.247
20.0,169.0,2.248
22.0,199.0,2.249
-38.0,209.0,2.25
-67.0,146.0,2.251
-19.0,18.0,2.252
26.0,-85.0,2.253
-13.0,-100.0,2.254
-92.0,-69.0,2.255
-101.0,-68.0,2.256
-25.0,-98.0,2.257
76.0,-111.0,2.258
150.0,-94.0,2.259
184.0,-96.0,2.26
173.0,-135.0,2.261
104.0,-139.0,2.262
14.0,-60.0,2.263
-36.0,43.0,2.264
-54.0,86.0,2.265
-87.0,61.0,2.266
-127.0,12.0,2.267
-106.0,-40.0,2.268
-19.0,-83.0,2.269
47.0,-80.0,2.27
61.0,-27.0,2.271
89.0,10.0,2.272
166.0,-25.0,2.273
205.0,-71.0,2.274
130.0,-38.0,2.275
3.0,39.0,2.276
-60.0,42.0,2.277
-68.0,-52.0,2.278
-104.0,-114.0,2.279
-175.0,-41.0,2.28
-176.0,84.0,2.281
-61.0,135.0,2.282
67.0,109.0,2.283
104.0,107.0,2.284
66.0,160.0,2.285
27.0,192.0,2.286
7.0,161.0,2.287
-2.0,103.0,2.288
8.0,42.0,2.289
15.0,-32.0,2.29
-24.0,-115.0,2.291
-80.0,-172.0,2.292
-89.0,-206.0,2.293
-70.0,-249.0,2.294
-122.0,-279.0,2.295
-233.0,-237.0,2.296
-262.0,-131.0,2.297
-162.0,-26.0,2.298
-46.0,51.0,2.299
44.0,125.0,2.3
56.0,191.0,2.301
70.0,242.0,2.302
92.0,242.0,2.303
109.0,236.0,2.304
111.0,214.0,2.305
125.0,186.0,2.306
174.0,139.0,2.307
203.0,81.0,2.308
172.0,-8.0,2.309
137.0,-71.0,2.31
88.0,-53.0,2.311
45.0,-39.0,2.312
21.0,-41.0,2.313
-17.0,-31.0,2.314
-94.0,22.0,2.315
-161.0,60.0,2.316
-196.0,53.0,2.317
-206.0,28.0,2.318
-136.0,-40.0,2.319
-93.0,-103.0,2.32
-80.0,-190.0,2.321
-70.0,-265.0,2.322
-57.0,-259.0,2.323
-37.0,-183.0,2.324
3.0,-121.0,2.325
57.0,-101.0,2.326
95.0,-70.0,2.327
111.0,0.0,2.328
118.0,58.0,2.329
123.0,58.0,2.33
125.0,27.0,2.331
134.0,21.0,2.332
151.0,65.0,2.333
140.0,135.0,2.334
81.0,184.0,2.335
30.0,189.0,2.336
36.0,177.0,2.337
49.0,168.0,2.338
-7.0,148.0,2.339
-114.0,86.0,2.34
-151.0,-2.0,2.341
-84.0,-61.0,2.342
-12.0,-91.0,2.343
-15.0,-110.0,2.344
-44.0,-106.0,2.345
-36.0,-84.0,2.346
-12.0,-105.0,2.347
-17.0,-192.0,2.348
-34.0,-240.0,2.349
-29.0,-128.0,2.35
-9.0,84.0,2.351
-2.0,226.0,2.352
6.0,219.0,2.353
36.0,131.0,2.354
65.0,45.0,2.355
54.0,-12.0,2.356
21.0,-39.0,2.357
0.0,-55.0,2.358
-6.0,-75.0,2.359
-13.0,-83.0,2.36
-19.0,-50.0,2.361
-4.0,-3.0,2.362
32.0,-31.0,2.363
72.0,-139.0,2.364
127.0,-225.0,2.365
214.0,-222.0,2.366
279.0,-178.0,2.367
219.0,-138.0,2.368
26.0,-75.0,2.369
-159.0,14.0,2.37
-214.0,58.0,2.371
-168.0,36.0,2.372
-136.0,29.0,2.373
-169.0,85.0,2.374
-231.0,139.0,2.375
-272.0,127.0,2.376
-255.0,87.0,2.377
-162.0,62.0,2.378
-48.0,38.0,2.379
8.0,-12.0,2.38
17.0,-66.0,2.381
62.0,-84.0,2.382
144.0,-69.0,2.383
165.0,-16.0,2.384
100.0,91.0,2.385
36.0,211.0,2.386
12.0,271.0,2.387
-30.0,275.0,2.388
-90.0,293.0,2.389
-77.0,313.0,2.39
21.0,246.0,2.391
90.0,99.0,2.392
70.0,-5.0,2.393
37.0,-12.0,2.394
47.0,-3.0,2.395
49.0,-30.0,2.396
4.0,-24.0,2.397
-41.0,59.0,2.398
-29.0,128.0,2.399
19.0,73.0,2.4
40.0,-64.0,2.401
28.0,-155.0,2.402
16.0,-188.0,2.403
23.0,-244.0,2.404
40.0,-334.0,2.405
56.0,-384.0,2.406
68.0,-360.0,2.407
69.0,-312.0,2.408
57.0,-266.0,2.409
37.0,-192.0,2.41
18.0,-79.0,2.411
2.0,22.0,2.412
-14.0,85.0,2.413
-19.0,138.0,2.414
-4.0,215.0,2.415
33.0,283.0,2.416
74.0,280.0,2.417
93.0,182.0,2.418
80.0,57.0,2.419
40.0,-12.0,2.42
-2.0,-12.0,2.421
-19.0,2.0,2.422
-7.0,-16.0,2.423
4.0,-44.0,2.424
-17.0,-43.0,2.425
-59.0,-26.0,2.426
-72.0,-27.0,2.427
-46.0,-47.0,2.428
-25.0,-53.0,2.429
-42.0,-38.0,2.43
-67.0,-9.0,2.431
-72.0,33.0,2.432
-67.0,87.0,2.433
-81.0,130.0,2.434
-92.0,149.0,2.435
-69.0,154.0,2.436
-22.0,146.0,2.437
16.0,111.0,2.438
32.0,60.0,2.439
49.0,14.0,2.44
82.0,-52.0,2.441
122.0,-162.0,2.442
146.0,-256.0,2.443
139.0,-224.0,2.444
103.0,-72.0,2.445
53.0,62.0,2.446
8.0,91.0,2.447
-33.0,83.0,2.448
-86.0,119.0,2.449
-149.0,180.0,2.45
-187.0,227.0,2.451
-178.0,284.0,2.452
-140.0,356.0,2.453
-93.0,369.0,2.454
-34.0,257.0,2.455
49.0,63.0,2.456
131.0,-116.0,2.457
176.0,-265.0,2.458
171.0,-370.0,2.459
141.0,-421.0,2.46
107.0,-414.0,2.461
63.0,-373.0,2.462
-3.0,-334.0,2.463
-63.0,-314.0,2.464
-68.0,-325.0,2.465
-12.0,-363.0,2.466
51.0,-390.0,2.467
61.0,-358.0,2.468
11.0,-253.0,2.469
-43.0,-94.0,2.47
-47.0,94.0,2.471
-1.0,272.0,2.472
41.0,379.0,2.473
39.0,393.0,2.474
4.0,366.0,2.475
-36.0,344.0,2.476
-69.0,308.0,2.477
-98.0,215.0,2.478
-102.0,107.0,2.479
-53.0,50.0,2.48
25.0,51.0,2.481
64.0,54.0,2.482
30.0,30.0,2.483
-35.0,-2.0,2.484
-70.0,-23.0,2.485
-71.0,-37.0,2.486
-65.0,-41.0,2.487
-59.0,-34.0,2.488
-35.0,-39.0,2.489
10.0,-66.0,2.49
52.0,-93.0,2.491
64.0,-85.0,2.492
49.0,-41.0,2.493
33.0,13.0,2.494
36.0,69.0,2.495
55.0,131.0,2.496
76.0,191.0,2.497
82.0,220.0,2.498
68.0,213.0,2.499
51.0,192.0,2.5
22.0,134.0,2.501
0.0,71.0,2.502
4.0,-9.0,2.503
0.0,-70.0,2.504
-30.0,-68.0,2.505
-42.0,-66.0,2.506
7.0,-63.0,2.507
64.0,-71.0,2.508
144.0,-111.0,2.509
201.0,-129.0,2.51
189.0,-76.0,2.511
151.0,-45.0,2.512
37.0,-82.0,2.513
-72.0,-112.0,2.514
-165.0,-119.0,2.515
-242.0,-109.0,2.516
-273.0,-43.0,2.517
-288.0,19.0,2.518
-234.0,64.0,2.519
-142.0,98.0,2.52
-36.0,89.0,2.521
58.0,36.0,2.522
112.0,-6.0,2.523
101.0,4.0,2.524
32.0,31.0,2.525
-41.0,11.0,2.526
-65.0,-38.0,2.527
-42.0,-47.0,2.528
-20.0,-19.0,2.529
-21.0,-15.0,2.53
-13.0,-60.0,2.531
28.0,-106.0,2.532
72.0,-117.0,2.533
96.0,-105.0,2.534
128.0,-87.0,2.535
203.0,-80.0,2.536
277.0,-102.0,2.537
259.0,-142.0,2.538
137.0,-116.0,2.539
-5.0,22.0,2.54
-80.0,179.0,2.541
-81.0,228.0,2.542
-56.0,177.0,2.543
-41.0,141.0,2.544
-36.0,168.0,2.545
-30.0,184.0,2.546
-19.0,147.0,2.547
-17.0,102.0,2.548
-38.0,83.0,2.549
-63.0,65.0,2.55
-58.0,33.0,2.551
-41.0,15.0,2.552
-48.0,24.0,2.553
-77.0,24.0,2.554
-85.0,-3.0,2.555
-50.0,-40.0,2.556
11.0,-62.0,2.557
97.0,-69.0,2.558
181.0,-63.0,2.559
199.0,-60.0,2.56
110.0,-84.0,2.561
-18.0,-136.0,2.562
-58.0,-183.0,2.563
9.0,-200.0,2.564
78.0,-208.0,2.565
58.0,-218.0,2.566
-30.0,-191.0,2.567
-122.0,-100.0,2.568
-179.0,3.0,2.569
-189.0,45.0,2.57
-156.0,27.0,2.571
-119.0,19.0,2.572
-99.0,67.0,2.573
-62.0,140.0,2.574
16.0,186.0,2.575
82.0,190.0,2.576
88.0,173.0,2.577
68.0,142.0,2.578
91.0,114.0,2.579
122.0,94.0,2.58
92.0,74.0,2.581
34.0,32.0,2.582
33.0,-42.0,2.583
74.0,-111.0,2.584
71.0,-128.0,2.585
23.0,-107.0,2.586
0.0,-87.0,2.587
2.0,-63.0,2.588
-34.0,8.0,2.589
-105.0,121.0,2.59
-125.0,209.0,2.591
-70.0,238.0,2.592
-8.0,231.0,2.593
19.0,209.0,2.594
36.0,151.0,2.595
57.0,56.0,2.596
63.0,-24.0,2.597
54.0,-73.0,2.598
71.0,-121.0,2.599
115.0,-193.0,2.6
140.0,-261.0,2.601
131.0,-288.0,2.602
125.0,-293.0,2.603
133.0,-306.0,2.604
103.0,-313.0,2.605
10.0,-280.0,2.606
-93.0,-215.0,2.607
-145.0,-148.0,2.608
-167.0,-79.0,2.609
-206.0,11.0,2.61
-249.0,117.0,2.611
-236.0,208.0,2.612
-168.0,260.0,2.613
-97.0,275.0,2.614
-44.0,261.0,2.615
20.0,230.0,2.616
96.0,198.0,2.617
137.0,167.0,2.618
116.0,134.0,2.619
77.0,77.0,2.62
70.0,-3.0,2.621
71.0,-64.0,2.622
55.0,-72.0,2.623
46.0,-40.0,2.624
63.0,-3.0,2.625
69.0,30.0,2.626
34.0,62.0,2.627
-7.0,73.0,2.628
-18.0,39.0,2.629
-24.0,-11.0,2.63
-63.0,-23.0,2.631
-103.0,-2.0,2.632
-93.0,1.0,2.633
-43.0,-32.0,2.634
-4.0,-64.0,2.635
10.0,-64.0,2.636
18.0,-53.0,2.637
30.0,-61.0,2.638
48.0,-85.0,2.639
57.0,-97.0,2.64
45.0,-81.0,2.641
13.0,-30.0,2.642
-1.0,42.0,2.643
32.0,99.0,2.644
83.0,114.0,2.645
87.0,94.0,2.646
29.0,64.0,2.647
-38.0,42.0,2.648
-65.0,28.0,2.649
-60.0,13.0,2.65
-52.0,-7.0,2.651
-43.0,-40.0,2.652
-23.0,-90.0,2.653
7.0,-146.0,2.654
28.0,-192.0,2.655
22.0,-207.0,2.656
-4.0,-179.0,2.657
-26.0,-122.0,2.658
-19.0,-69.0,2.659
9.0,-47.0,2.66
25.0,-31.0,2.661
14.0,40.0,2.662
2.0,158.0,2.663
22.0,237.0,2.664
59.0,216.0,2.665
77.0,137.0,2.666
61.0,85.0,2.667
32.0,82.0,2.668
18.0,80.0,2.669
19.0,69.0,2.67
22.0,80.0,2.671
11.0,121.0,2.672
-22.0,143.0,2.673
-61.0,112.0,2.674
-86.0,52.0,2.675
-92.0,-9.0,2.676
-84.0,-76.0,2.677
-70.0,-172.0,2.678
-50.0,-252.0,2.679
-29.0,-272.0,2.68
-19.0,-246.0,2.681
-25.0,-207.0,2.682
-31.0,-170.0,2.683
-23.0,-119.0,2.684
-7.0,-55.0,2.685
13.0,-2.0,2.686
40.0,35.0,2.687
79.0,67.0,2.688
120.0,98.0,2.689
140.0,117.0,2.69
133.0,100.0,2.691
110.0,43.0,2.692
75.0,-23.0,2.693
40.0,-50.0,2.694
20.0,-22.0,2.695
24.0,19.0,2.696
31.0,23.0,2.697
21.0,-8.0,2.698
-8.0,-24.0,2.699
-42.0,-6.0,2.7
-65.0,15.0,2.701
-72.0,29.0,2.702
-66.0,45.0,2.703
-65.0,66.0,2.704
-79.0,72.0,2.705
-87.0,60.0,2.706
-67.0,49.0,2.707
-41.0,50.0,2.708
-46.0,51.0,2.709
-62.0,51.0,2.71
-41.0,57.0,2.711
3.0,56.0,2.712
12.0,30.0,2.713
-16.0,-2.0,2.714
-10.0,-12.0,2.715
50.0,-11.0,2.716
97.0,-27.0,2.717
80.0,-58.0,2.718
37.0,-57.0,2.719
34.0,-15.0,2.72
61.0,21.0,2.721
60.0,23.0,2.722
15.0,4.0,2.723
-31.0,-10.0,2.724
-41.0,-22.0,2.725
-33.0,-32.0,2.726
-38.0,-21.0,2.727
-56.0,12.0,2.728
-62.0,50.0,2.729
-50.0,70.0,2.73
-29.0,68.0,2.731
-10.0,52.0,2.732
13.0,33.0,2.733
38.0,30.0,2.734
60.0,41.0,2.735
83.0,37.0,2.736
113.0,-2.0,2.737
128.0,-66.0,2.738
102.0,-102.0,2.739
39.0,-96.0,2.74
-13.0,-75.0,2.741
-22.0,-66.0,2.742
-15.0,-72.0,2.743
-24.0,-80.0,2.744
-45.0,-85.0,2.745
-44.0,-74.0,2.746
-18.0,-36.0,2.747
7.0,33.0,2.748
24.0,110.0,2.749
45.0,151.0,2.75
61.0,125.0,2.751
47.0,47.0,2.752
2.0,-25.0,2.753
-37.0,-48.0,2.754
-50.0,-26.0,2.755
-47.0,0.0,2.756
-40.0,2.0,2.757
-21.0,-19.0,2.758
6.0,-53.0,2.759
18.0,-93.0,2.76
4.0,-134.0,2.761
-11.0,-153.0,2.762
0.0,-147.0,2.763
16.0,-131.0,2.764
-1.0,-102.0,2.765
-42.0,-41.0,2.766
-53.0,40.0,2.767
-3.0,99.0,2.768
69.0,112.0,2.769
101.0,113.0,2.77
75.0,131.0,2.771
15.0,148.0,2.772
-29.0,131.0,2.773
-33.0,96.0,2.774
-5.0,74.0,2.775
19.0,54.0,2.776
18.0,11.0,2.777
5.0,-61.0,2.778
-6.0,-119.0,2.779
-33.0,-131.0,2.78
-75.0,-111.0,2.781
-79.0,-91.0,2.782
-18.0,-82.0,2.783
45.0,-63.0,2.784
34.0,-15.0,2.785
-15.0,34.0,2.786
-12.0,49.0,2.787
37.0,34.0,2.788
48.0,24.0,2.789
10.0,26.0,2.79
-12.0,19.0,2.791
6.0,1.0,2.792
9.0,3.0,2.793
-16.0,29.0,2.794
-17.0,46.0,2.795
25.0,38.0,2.796
63.0,31.0,2.797
62.0,28.0,2.798
44.0,22.0,2.799
36.0,3.0,2.8
30.0,-11.0,2.801
4.0,-4.0,2.802
-23.0,15.0,2.803
-31.0,32.0,2.804
-26.0,43.0,2.805
-31.0,53.0,2.806
-42.0,52.0,2.807
-42.0,41.0,2.808
-25.0,29.0,2.809
-12.0,20.0,2.81
-18.0,14.0,2.811
-23.0,7.0,2.812
-3.0,-3.0,2.813
29.0,-16.0,2.814
40.0,-30.0,2.815
23.0,-34.0,2.816
3.0,-25.0,2.817
0.0,-17.0,2.818
1.0,-14.0,2.819
-6.0,-16.0,2.82
-15.0,-16.0,2.821
-9.0,-9.0,2.822
3.0,-3.0,2.823
7.0,2.0,2.824
4.0,6.0,2.825
2.0,4.0,2.826
1.0,-4.0,2.827
-1.0,-7.0,2.828
-2.0,-3.0,2.829
-2.0,0.0,2.83
-4.0,-3.0,2.831
-9.0,-8.0,2.832
-9.0,-8.0,2.833
-4.0,-4.0,2.834
-1.0,-5.0,2.835
-2.0,-9.0,2.836
-3.0,-8.0,2.837
-3.0,-4.0,2.838
-1.0,-5.0,2.839
-1.0,-12.0,2.84
-1.0,-21.0,2.841
0.0,-16.0,2.842
3.0,-7.0,2.843
10.0,-1.0,2.844
14.0,2.0,2.845
14.0,5.0,2.846
9.0,4.0,2.847
7.0,0.0,2.848
11.0,-4.0,2.849
14.0,-6.0,2.85
11.0,-4.0,2.851
7.0,0.0,2.852
5.0,1.0,2.853
3.0,2.0,2.854
1.0,1.0,2.855
1.0,0.0,2.856
3.0,2.0,2.857
3.0,0.0,2.858
3.0,-2.0,2.859
3.0,-3.0,2.86
3.0,-6.0,2.861
0.0,-8.0,2.862
2.0,-7.0,2.863
7.0,-6.0,2.864
6.0,1.0,2.865
-1.0,7.0,2.866
-5.0,5.0,2.867
-1.0,0.0,2.868
6.0,-3.0,2.869
2.0,1.0,2.87
-5.0,4.0,2.871
-4.0,0.0,2.872
12.0,-9.0,2.873
26.0,-18.0,2.874
28.0,-18.0,2.875
16.0,-10.0,2.876
1.0,0.0,2.877
-6.0,3.0,2.878
-3.0,0.0,2.879
2.0,-3.0,2.88
2.0,-6.0,2.881
0.0,-5.0,2.882
1.0,0.0,2.883
7.0,8.0,2.884
9.0,12.0,2.885
7.0,10.0,2.886
6.0,3.0,2.887
4.0,0.0,2.888
-2.0,3.0,2.889
-6.0,7.0,2.89
-7.0,5.0,2.891
-5.0,1.0,2.892
-7.0,-1.0,2.893
-10.0,1.0,2.894
-7.0,3.0,2.895
-2.0,2.0,2.896
1.0,3.0,2.897
-3.0,0.0,2.898
-8.0,-2.0,2.899
-12.0,-3.0,2.9
-11.0,-5.0,2.901
-9.0,-5.0,2.902
-2.0,-7.0,2.903
6.0,-6.0,2.904
11.0,-2.0,2.905
9.0,3.0,2.906
8.0,2.0,2.907
10.0,-3.0,2.908
10.0,-4.0,2.909
5.0,-1.0,2.91
0.0,0.0,2.911
-1.0,-2.0,2.912
-3.0,-4.0,2.913
-5.0,-2.0,2.914
-4.0,1.0,2.915
0.0,1.0,2.916
6.0,0.0,2.917
8.0,-2.0,2.918
13.0,-4.0,2.919
18.0,-3.0,2.92
23.0,-6.0,2.921
22.0,-6.0,2.922
18.0,-5.0,2.923
10.0,1.0,2.924
-6.0,9.0,2.925
-23.0,10.0,2.926
-27.0,6.0,2.927
-20.0,1.0,2.928
-15.0,0.0,2.929
-17.0,2.0,2.93
-14.0,2.0,2.931
0.0,1.0,2.932
12.0,0.0,2.933
2.0,-2.0,2.934
-8.0,-5.0,2.935
0.0,-6.0,2.936
22.0,-1.0,2.937
24.0,1.0,2.938
13.0,2.0,2.939
5.0,3.0,2.94
3.0,-1.0,2.941
0.0,-4.0,2.942
-5.0,-4.0,2.943
-10.0,-3.0,2.944
-10.0,-1.0,2.945
-7.0,0.0,2.946
10.0,-3.0,2.947
24.0,-6.0,2.948
30.0,-5.0,2.949
33.0,-3.0,2.95
20.0,-1.0,2.951
9.0,2.0,2.952
7.0,7.0,2.953
3.0,9.0,2.954
-10.0,2.0,2.955
-17.0,-2.0,2.956
-2.0,0.0,2.957
15.0,1.0,2.958
23.0,-1.0,2.959
14.0,-5.0,2.96
2.0,-6.0,2.961
4.0,-2.0,2.962
17.0,0.0,2.963
21.0,0.0,2.964
15.0,2.0,2.965
15.0,6.0,2.966
29.0,3.0,2.967
45.0,-4.0,2.968
45.0,-9.0,2.969
36.0,-8.0,2.97
28.0,-5.0,2.971
10.0,-2.0,2.972
-30.0,0.0,2.973
-71.0,5.0,2.974
-74.0,5.0,2.975
-43.0,-1.0,2.976
-17.0,-4.0,2.977
-16.0,0.0,2.978
-21.0,8.0,2.979
-14.0,7.0,2.98
3.0,-3.0,2.981
11.0,-9.0,2.982
16.0,-8.0,2.983
30.0,-2.0,2.984
42.0,2.0,2.985
31.0,4.0,2.986
11.0,2.0,2.987
13.0,-3.0,2.988
34.0,-7.0,2.989
40.0,-6.0,2.99
22.0,-4.0,2.991
3.0,-4.0,2.992
3.0,-3.0,2.993
19.0,2.0,2.994
35.0,2.0,2.995
45.0,-5.0,2.996
47.0,-9.0,2.997
38.0,-9.0,2.998
13.0,-2.0,2.999
-31.0,6.0,3.0
-84.0,10.0,3.001
-122.0,13.0,3.002
-135.0,11.0,3.003
-121.0,9.0,3.004
-90.0,12.0,3.005
-44.0,15.0,3.006
8.0,6.0,3.007
47.0,-9.0,3.008
64.0,-13.0,3.009
70.0,-6.0,3.01
72.0,-2.0,3.011
66.0,-7.0,3.012
55.0,-11.0,3.013
55.0,-8.0,3.014
61.0,-5.0,3.015
56.0,-7.0,3.016
40.0,-8.0,3.017
18.0,-8.0,3.018
-12.0,-7.0,3.019
-59.0,-3.0,3.02
-102.0,2.0,3.021
-100.0,9.0,3.022
-53.0,12.0,3.023
-4.0,8.0,3.024
12.0,4.0,3.025
14.0,2.0,3.026
22.0,0.0,3.027
31.0,-5.0,3.028
22.0,-7.0,3.029
7.0,-5.0,3.03
8.0,-4.0,3.031
28.0,-4.0,3.032
41.0,-2.0,3.033
31.0,0.0,3.034
5.0,0.0,3.035
-16.0,-2.0,3.036
-20.0,-3.0,3.037
-8.0,-3.0,3.038
8.0,-2.0,3.039
25.0,-1.0,3.04
44.0,-4.0,3.041
53.0,-5.0,3.042
38.0,-1.0,3.043
4.0,5.0,3.044
-25.0,7.0,3.045
-32.0,6.0,3.046
-18.0,4.0,3.047
8.0,6.0,3.048
27.0,8.0,3.049
13.0,3.0,3.05
-30.0,-7.0,3.051
-68.0,-13.0,3.052
-66.0,-11.0,3.053
-39.0,-7.0,3.054
-20.0,-6.0,3.055
-18.0,-7.0,3.056
-20.0,-3.0,3.057
-12.0,0.0,3.058
5.0,4.0,3.059
18.0,6.0,3.06
20.0,2.0,3.061
24.0,-2.0,3.062
32.0,-3.0,3.063
40.0,-3.0,3.064
51.0,2.0,3.065
54.0,5.0,3.066
32.0,1.0,3.067
13.0,-2.0,3.068
5.0,-3.0,3.069
-10.0,-3.0,3.07
-44.0,5.0,3.071
-64.0,12.0,3.072
-38.0,11.0,3.073
-5.0,8.0,3.074
49.0,0.0,3.075
87.0,-6.0,3.076
71.0,-7.0,3.077
51.0,-8.0,3.078
21.0,-8.0,3.079
-12.0,-11.0,3.08
-46.0,-17.0,3.081
-71.0,-14.0,3.082
-80.0,-7.0,3.083
-78.0,3.0,3.084
-68.0,13.0,3.085
-40.0,19.0,3.086
-1.0,18.0,3.087
26.0,11.0,3.088
25.0,5.0,3.089
14.0,3.0,3.09
15.0,2.0,3.091
32.0,0.0,3.092
39.0,-2.0,3.093
17.0,-1.0,3.094
-30.0,5.0,3.095
-78.0,9.0,3.096
-92.0,12.0,3.097
-13.0,-83.0,3.098
-58.0,-81.0,3.099
-94.0,-75.0,3.1
-101.0,-58.0,3.101
-108.0,-42.0,3.102
-110.0,-27.0,3.103
-102.0,-14.0,3.104
-66.0,0.0,3.105
-38.0,11.0,3.106
-32.0,15.0,3.107
-18.0,17.0,3.108
25.0,10.0,3.109
59.0,6.0,3.11
57.0,12.0,3.111
57.0,21.0,3.112
63.0,40.0,3.113
64.0,54.0,3.114
45.0,57.0,3.115
28.0,53.0,3.116
21.0,35.0,3.117
-13.0,-81.0,3.118
-56.0,-79.0,3.119
-90.0,-73.0,3.12
-97.0,-57.0,3.121
-103.0,-41.0,3.122
-105.0,-27.0,3.123
-98.0,-14.0,3.124
-64.0,0.0,3.125
-37.0,11.0,3.126
-32.0,15.0,3.127
-18.0,17.0,3.128
23.0,10.0,3.129
55.0,6.0,3.13
53.0,12.0,3.131
53.0,21.0,3.132
59.0,39.0,3.133
60.0,53.0,3.134
42.0,55.0,3.135
26.0,52.0,3.136
19.0,34.0,3.137
14.0,15.0,3.138
5.0,-1.0,3.139
-7.0,-15.0,3.14
-10.0,-26.0,3.141
0.0,-28.0,3.142
10.0,-25.0,3.143
16.0,-23.0,3.144
19.0,-21.0,3.145
24.0,-21.0,3.146
30.0,-15.0,3.147
34.0,-7.0,3.148
30.0,2.0,3.149
24.0,7.0,3.15
30.0,5.0,3.151
42.0,3.0,3.152
28.0,10.0,3.153
-18.0,20.0,3.154
-52.0,20.0,3.155
-45.0,11.0,3.156
-19.0,5.0,3.157
-21.0,3.0,3.158
-46.0,7.0,3.159
-63.0,9.0,3.16
-56.0,6.0,3.161
-36.0,5.0,3.162
-14.0,3.0,3.163
9.0,-1.0,3.164
24.0,-2.0,3.165
26.0,-3.0,3.166
24.0,-4.0,3.167
27.0,-5.0,3.168
22.0,-6.0,3.169
2.0,-3.0,3.17
-11.0,-2.0,3.171
-4.0,-3.0,3.172
8.0,-3.0,3.173
6.0,-2.0,3.174
-11.0,0.0,3.175
-25.0,0.0,3.176
-25.0,0.0,3.177
-3.0,-1.0,3.178
33.0,-3.0,3.179
56.0,-3.0,3.18
43.0,-5.0,3.181
7.0,-3.0,3.182
-15.0,-1.0,3.183
-10.0,-1.0,3.184
-4.0,1.0,3.185
-12.0,5.0,3.186
-16.0,5.0,3.187
-7.0,0.0,3.188
-4.0,-4.0,3.189
-16.0,-2.0,3.19
-20.0,0.0,3.191
0.0,-4.0,3.192
22.0,-6.0,3.193
29.0,-6.0,3.194
27.0,-3.0,3.195
27.0,-3.0,3.196
19.0,-4.0,3.197
-4.0,-4.0,3.198
-27.0,-1.0,3.199
-46.0,2.0,3.2
-53.0,2.0,3.201
-52.0,1.0,3.202
-24.0,4.0,3.203
1.0,6.0,3.204
17.0,1.0,3.205
28.0,-4.0,3.206
20.0,-9.0,3.207
14.0,-13.0,3.208
19.0,-12.0,3.209
26.0,-10.0,3.21
38.0,-7.0,3.211
46.0,-3.0,3.212
36.0,2.0,3.213
26.0,6.0,3.214
15.0,9.0,3.215
5.0,11.0,3.216
1.0,9.0,3.217
-1.0,6.0,3.218
8.0,-1.0,3.219
9.0,-8.0,3.22
-10.0,-10.0,3.221
-25.0,-4.0,3.222
-17.0,-2.0,3.223
10.0,-3.0,3.224
35.0,-1.0,3.225
41.0,7.0,3.226
23.0,14.0,3.227
-5.0,15.0,3.228
-9.0,13.0,3.229
27.0,8.0,3.23
63.0,0.0,3.231
50.0,-6.0,3.232
-8.0,-4.0,3.233
-47.0,1.0,3.234
-32.0,-1.0,3.235
21.0,-8.0,3.236
73.0,-10.0,3.237
91.0,-6.0,3.238
50.0,-5.0,3.239
-32.0,-4.0,3.24
-88.0,0.0,3.241
-83.0,12.0,3.242
-64.0,15.0,3.243
-81.0,11.0,3.244
-103.0,13.0,3.245
-72.0,19.0,3.246
-20.0,14.0,3.247
-6.0,-2.0,3.248
-14.0,-11.0,3.249
18.0,-8.0,3.25
74.0,-5.0,3.251
75.0,-11.0,3.252
10.0,-18.0,3.253
-40.0,-20.0,3.254
-32.0,-21.0,3.255
-9.0,-23.0,3.256
-13.0,-22.0,3.257
-24.0,-17.0,3.258
-13.0,-10.0,3.259
13.0,-8.0,3.26
23.0,-11.0,3.261
27.0,-6.0,3.262
48.0,5.0,3.263
76.0,16.0,3.264
79.0,17.0,3.265
57.0,12.0,3.266
39.0,3.0,3.267
34.0,-4.0,3.268
24.0,-4.0,3.269
0.0,2.0,3.27
-21.0,11.0,3.271
-18.0,14.0,3.272
2.0,11.0,3.273
18.0,7.0,3.274
10.0,4.0,3.275
-20.0,3.0,3.276
-51.0,2.0,3.277
-62.0,-2.0,3.278
-42.0,-3.0,3.279
-26.0,-1.0,3.28
-39.0,-1.0,3.281
-48.0,0.0,3.282
-13.0,3.0,3.283
44.0,6.0,3.284
59.0,10.0,3.285
24.0,13.0,3.286
3.0,11.0,3.287
22.0,3.0,3.288
40.0,-4.0,3.289
36.0,-11.0,3.29
35.0,-18.0,3.291
54.0,-21.0,3.292
67.0,-18.0,3.293
51.0,-8.0,3.294
17.0,1.0,3.295
-16.0,6.0,3.296
-39.0,7.0,3.297
-51.0,1.0,3.298
-43.0,-5.0,3.299
-29.0,-9.0,3.3
-24.0,-9.0,3.301
-20.0,-4.0,3.302
-9.0,-2.0,3.303
-3.0,3.0,3.304
-9.0,14.0,3.305
-9.0,22.0,3.306
16.0,14.0,3.307
54.0,-2.0,3.308
67.0,-8.0,3.309
36.0,0.0,3.31
-25.0,8.0,3.311
-64.0,6.0,3.312
-47.0,3.0,3.313
-6.0,9.0,3.314
-9.0,21.0,3.315
-59.0,27.0,3.316
-82.0,22.0,3.317
-31.0,3.0,3.318
36.0,-22.0,3.319
44.0,-42.0,3.32
13.0,-48.0,3.321
6.0,-38.0,3.322
30.0,-24.0,3.323
39.0,-11.0,3.324
22.0,-1.0,3.325
14.0,4.0,3.326
23.0,3.0,3.327
27.0,2.0,3.328
18.0,3.0,3.329
15.0,4.0,3.33
18.0,3.0,3.331
14.0,2.0,3.332
3.0,3.0,3.333
0.0,3.0,3.334
2.0,2.0,3.335
-1.0,3.0,3.336
-3.0,6.0,3.337
4.0,3.0,3.338
13.0,0.0,3.339
1.0,1.0,3.34
-21.0,1.0,3.341
-28.0,-2.0,3.342
-13.0,-6.0,3.343
5.0,-4.0,3.344
7.0,3.0,3.345
-6.0,7.0,3.346
-18.0,5.0,3.347
-19.0,6.0,3.348
-9.0,10.0,3.349
-1.0,11.0,3.35
0.0,5.0,3.351
-4.0,-1.0,3.352
-2.0,-1.0,3.353
9.0,1.0,3.354
24.0,-2.0,3.355
40.0,-7.0,3.356
47.0,-12.0,3.357
39.0,-18.0,3.358
26.0,-18.0,3.359
16.0,-10.0,3.36
11.0,-6.0,3.361
-4.0,-4.0,3.362
-27.0,-1.0,3.363
-43.0,6.0,3.364
-40.0,12.0,3.365
-31.0,12.0,3.366
-25.0,8.0,3.367
-20.0,5.0,3.368
-10.0,5.0,3.369
-4.0,4.0,3.37
-1.0,3.0,3.371
8.0,4.0,3.372
25.0,6.0,3.373
37.0,5.0,3.374
36.0,0.0,3.375
35.0,-2.0,3.376
41.0,-1.0,3.377
37.0,-3.0,3.378
20.0,-8.0,3.379
2.0,-15.0,3.38
-2.0,-19.0,3.381
1.0,-16.0,3.382
-2.0,-7.0,3.383
-10.0,3.0,3.384
-19.0,11.0,3.385
-24.0,11.0,3.386
-26.0,4.0,3.387
-21.0,-1.0,3.388
-6.0,4.0,3.389
15.0,10.0,3.39
34.0,12.0,3.391
48.0,10.0,3.392
57.0,6.0,3.393
55.0,2.0,3.394
35.0,-2.0,3.395
5.0,-6.0,3.396
-14.0,-9.0,3.397
-20.0,-13.0,3.398
-20.0,-16.0,3.399
-18.0,-14.0,3.4
-15.0,-16.0,3.401
-9.0,-15.0,3.402
-3.0,-11.0,3.403
2.0,-4.0,3.404
3.0,2.0,3.405
-1.0,2.0,3.406
-4.0,0.0,3.407
-2.0,0.0,3.408
1.0,2.0,3.409
-4.0,2.0,3.41
-14.0,0.0,3.411
-18.0,1.0,3.412
-9.0,3.0,3.413
-1.0,4.0,3.414
-2.0,3.0,3.415
-5.0,2.0,3.416
-2.0,5.0,3.417
4.0,2.0,3.418
16.0,-5.0,3.419
25.0,-11.0,3.42
28.0,-13.0,3.421
23.0,-10.0,3.422
17.0,-6.0,3.423
10.0,-1.0,3.424
-15.0,4.0,3.425
-64.0,11.0,3.426
-98.0,14.0,3.427
-73.0,15.0,3.428
-9.0,12.0,3.429
27.0,9.0,3.43
13.0,5.0,3.431
2.0,0.0,3.432
29.0,-2.0,3.433
55.0,-3.0,3.434
37.0,-5.0,3.435
1.0,-6.0,3.436
-7.0,-4.0,3.437
3.0,-3.0,3.438
2.0,-4.0,3.439
-9.0,-5.0,3.44
-3.0,-6.0,3.441
15.0,-4.0,3.442
13.0,4.0,3.443
-10.0,9.0,3.444
-23.0,8.0,3.445
-13.0,5.0,3.446
-4.0,2.0,3.447
-10.0,4.0,3.448
-16.0,11.0,3.449
-8.0,14.0,3.45
4.0,11.0,3.451
9.0,4.0,3.452
9.0,-1.0,3.453
15.0,-6.0,3.454
20.0,-11.0,3.455
19.0,-17.0,3.456
12.0,-17.0,3.457
7.0,-20.0,3.458
6.0,-21.0,3.459
3.0,-23.0,3.46
-5.0,-24.0,3.461
-10.0,-19.0,3.462
-2.0,-15.0,3.463
6.0,-9.0,3.464
12.0,-3.0,3.465
18.0,6.0,3.466
24.0,12.0,3.467
29.0,14.0,3.468
29.0,13.0,3.469
25.0,12.0,3.47
7.0,8.0,3.471
-6.0,1.0,3.472
-10.0,-3.0,3.473
-13.0,0.0,3.474
-17.0,6.0,3.475
-18.0,5.0,3.476
-9.0,2.0,3.477
0.0,2.0,3.478
1.0,8.0,3.479
-7.0,11.0,3.48
-7.0,4.0,3.481
4.0,-5.0,3.482
19.0,-13.0,3.483
24.0,-15.0,3.484
20.0,-8.0,3.485
17.0,5.0,3.486
17.0,11.0,3.487
14.0,6.0,3.488
8.0,0.0,3.489
2.0,9.0,3.49
1.0,26.0,3.491
3.0,38.0,3.492
6.0,41.0,3.493
10.0,35.0,3.494
20.0,22.0,3.495
30.0,5.0,3.496
26.0,0.0,3.497
5.0,7.0,3.498
-17.0,23.0,3.499
-24.0,34.0,3.5
-19.0,39.0,3.501
-14.0,50.0,3.502
-6.0,75.0,3.503
-1.0,120.0,3.504
-1.0,170.0,3.505
-9.0,184.0,3.506
-12.0,133.0,3.507
-4.0,35.0,3.508
3.0,-59.0,3.509
-1.0,-117.0,3.51
-9.0,-139.0,3.511
-12.0,-140.0,3.512
-9.0,-143.0,3.513
-8.0,-157.0,3.514
-9.0,-158.0,3.515
-2.0,-107.0,3.516
10.0,-22.0,3.517
18.0,31.0,3.518
21.0,2.0,3.519
21.0,-61.0,3.52
25.0,-91.0,3.521
30.0,-85.0,3.522
30.0,-85.0,3.523
29.0,-74.0,3.524
26.0,5.0,3.525
20.0,125.0,3.526
6.0,179.0,3.527
-12.0,109.0,3.528
-28.0,-21.0,3.529
-38.0,-120.0,3.53
-49.0,-181.0,3.531
-59.0,-243.0,3.532
-55.0,-305.0,3.533
-34.0,-325.0,3.534
-12.0,-277.0,3.535
0.0,-164.0,3.536
7.0,-18.0,3.537
23.0,136.0,3.538
33.0,224.0,3.539
22.0,208.0,3.54
6.0,150.0,3.541
16.0,159.0,3.542
48.0,243.0,3.543
67.0,301.0,3.544
60.0,267.0,3.545
54.0,192.0,3.546
63.0,148.0,3.547
69.0,124.0,3.548
49.0,97.0,3.549
19.0,117.0,3.55
4.0,222.0,3.551
1.0,305.0,3.552
-21.0,220.0,3.553
-70.0,1.0,3.554
-122.0,-144.0,3.555
-149.0,-128.0,3.556
-148.0,-93.0,3.557
-127.0,-183.0,3.558
-71.0,-327.0,3.559
16.0,-348.0,3.56
95.0,-252.0,3.561
112.0,-211.0,3.562
71.0,-293.0,3.563
25.0,-370.0,3.564
-6.0,-346.0,3.565
-41.0,-303.0,3.566
-69.0,-334.0,3.567
-38.0,-356.0,3.568
66.0,-255.0,3.569
179.0,-79.0,3.57
226.0,28.0,3.571
193.0,51.0,3.572
107.0,94.0,3.573
15.0,204.0,3.574
-45.0,332.0,3.575
-60.0,450.0,3.576
-46.0,586.0,3.577
-39.0,804.0,3.578
-59.0,1058.0,3.579
-96.0,1199.0,3.58
-116.0,1043.0,3.581
-103.0,577.0,3.582
-89.0,14.0,3.583
-98.0,-405.0,3.584
-96.0,-645.0,3.585
-46.0,-778.0,3.586
16.0,-772.0,3.587
16.0,-583.0,3.588
-26.0,-355.0,3.589
-23.0,-281.0,3.59
31.0,-308.0,3.591
52.0,-245.0,3.592
13.0,-117.0,3.593
-7.0,-120.0,3.594
42.0,-262.0,3.595
106.0,-349.0,3.596
129.0,-318.0,3.597
119.0,-279.0,3.598
106.0,-269.0,3.599
83.0,-199.0,3.6
38.0,-48.0,3.601
-8.0,89.0,3.602
-24.0,169.0,3.603
-7.0,244.0,3.604
34.0,314.0,3.605
69.0,325.0,3.606
72.0,304.0,3.607
38.0,317.0,3.608
-7.0,349.0,3.609
-49.0,358.0,3.61
-89.0,415.0,3.611
-121.0,584.0,3.612
-126.0,750.0,3.613
-102.0,727.0,3.614
-72.0,509.0,3.615
-42.0,257.0,3.616
2.0,85.0,3.617
52.0,-60.0,3.618
69.0,-215.0,3.619
34.0,-355.0,3.62
-10.0,-450.0,3.621
-20.0,-503.0,3.622
-16.0,-551.0,3.623
-26.0,-620.0,3.624
-39.0,-698.0,3.625
-12.0,-726.0,3.626
45.0,-656.0,3.627
79.0,-519.0,3.628
84.0,-382.0,3.629
100.0,-258.0,3.63
128.0,-126.0,3.631
120.0,-1.0,3.632
69.0,96.0,3.633
25.0,181.0,3.634
19.0,245.0,3.635
17.0,246.0,3.636
-14.0,198.0,3.637
-65.0,192.0,3.638
-83.0,281.0,3.639
-50.0,380.0,3.64
-2.0,400.0,3.641
18.0,372.0,3.642
2.0,335.0,3.643
-15.0,249.0,3.644
-16.0,103.0,3.645
-15.0,-12.0,3.646
-35.0,-27.0,3.647
-62.0,9.0,3.648
-67.0,37.0,3.649
-50.0,75.0,3.65
-29.0,126.0,3.651
-11.0,121.0,3.652
9.0,40.0,3.653
14.0,-35.0,3.654
2.0,-65.0,3.655
-2.0,-112.0,3.656
10.0,-213.0,3.657
18.0,-308.0,3.658
5.0,-299.0,3.659
-15.0,-193.0,3.66
-17.0,-55.0,3.661
-8.0,99.0,3.662
-1.0,241.0,3.663
9.0,315.0,3.664
29.0,292.0,3.665
42.0,221.0,3.666
33.0,152.0,3.667
20.0,86.0,3.668
18.0,15.0,3.669
23.0,-47.0,3.67
23.0,-97.0,3.671
17.0,-139.0,3.672
7.0,-149.0,3.673
-6.0,-85.0,3.674
-18.0,63.0,3.675
-22.0,204.0,3.676
-19.0,199.0,3.677
-19.0,-33.0,3.678
-21.0,-384.0,3.679
-20.0,-637.0,3.68
-8.0,-690.0,3.681
0.0,-620.0,3.682
0.0,-507.0,3.683
-1.0,-317.0,3.684
0.0,-43.0,3.685
2.0,187.0,3.686
5.0,250.0,3.687
14.0,192.0,3.688
21.0,134.0,3.689
25.0,118.0,3.69
29.0,121.0,3.691
36.0,143.0,3.692
35.0,188.0,3.693
21.0,212.0,3.694
3.0,177.0,3.695
-6.0,118.0,3.696
-9.0,85.0,3.697
-18.0,59.0,3.698
-25.0,19.0,3.699
-27.0,15.0,3.7
-25.0,137.0,3.701
-28.0,356.0,3.702
-35.0,489.0,3.703
-36.0,387.0,3.704
-27.0,113.0,3.705
-12.0,-147.0,3.706
9.0,-292.0,3.707
25.0,-373.0,3.708
22.0,-436.0,3.709
10.0,-435.0,3.71
9.0,-333.0,3.711
17.0,-196.0,3.712
15.0,-107.0,3.713
0.0,-47.0,3.714
-6.0,57.0,3.715
7.0,218.0,3.716
30.0,365.0,3.717
46.0,454.0,3.718
58.0,445.0,3.719
57.0,332.0,3.72
39.0,175.0,3.721
10.0,77.0,3.722
-11.0,42.0,3.723
-14.0,-33.0,3.724
-6.0,-194.0,3.725
1.0,-308.0,3.726
5.0,-246.0,3.727
-2.0,-73.0,3.728
-20.0,54.0,3.729
-30.0,96.0,3.73
-23.0,105.0,3.731
-7.0,88.0,3.732
3.0,12.0,3.733
5.0,-85.0,3.734
11.0,-142.0,3.735
19.0,-164.0,3.736
21.0,-182.0,3.737
16.0,-185.0,3.738
8.0,-142.0,3.739
4.0,-90.0,3.74
8.0,-93.0,3.741
20.0,-139.0,3.742
32.0,-161.0,3.743
38.0,-128.0,3.744
38.0,-53.0,3.745
37.0,52.0,3.746
34.0,162.0,3.747
23.0,205.0,3.748
6.0,129.0,3.749
-12.0,3.0,3.75
-24.0,-54.0,3.751
-31.0,-27.0,3.752
-33.0,14.0,3.753
-32.0,35.0,3.754
-31.0,72.0,3.755
-34.0,131.0,3.756
-34.0,176.0,3.757
-32.0,226.0,3.758
-29.0,371.0,3.759
-26.0,600.0,3.76
-19.0,719.0,3.761
-4.0,540.0,3.762
13.0,125.0,3.763
23.0,-269.0,3.764
25.0,-476.0,3.765
19.0,-556.0,3.766
10.0,-621.0,3.767
3.0,-655.0,3.768
1.0,-577.0,3.769
5.0,-391.0,3.77
5.0,-168.0,3.771
1.0,32.0,3.772
0.0,159.0,3.773
4.0,186.0,3.774
11.0,170.0,3.775
25.0,210.0,3.776
44.0,289.0,3.777
58.0,270.0,3.778
52.0,144.0,3.779
27.0,57.0,3.78
0.0,86.0,3.781
-18.0,92.0,3.782
-27.0,28.0,3.783
-32.0,-53.0,3.784
-27.0,-185.0,3.785
-12.0,-287.0,3.786
1.0,-303.0,3.787
6.0,-294.0,3.788
6.0,-210.0,3.789
7.0,-118.0,3.79
7.0,0.0,3.791
2.0,100.0,3.792
0.0,150.0,3.793
3.0,176.0,3.794
9.0,124.0,3.795
9.0,80.0,3.796
7.0,66.0,3.797
10.0,30.0,3.798
12.0,-79.0,3.799
1.0,-110.0,3.8
-14.0,22.0,3.801
-20.0,259.0,3.802
-11.0,462.0,3.803
-3.0,507.0,3.804
-4.0,340.0,3.805
-1.0,33.0,3.806
20.0,-213.0,3.807
48.0,-240.0,3.808
70.0,-130.0,3.809
75.0,-88.0,3.81
65.0,-163.0,3.811
40.0,-215.0,3.812
9.0,-162.0,3.813
-7.0,-97.0,3.814
-3.0,-86.0,3.815
4.0,-35.0,3.816
1.0,118.0,3.817
-17.0,275.0,3.818
-46.0,248.0,3.819
-81.0,29.0,3.82
-106.0,-192.0,3.821
-101.0,-272.0,3.822
-71.0,-251.0,3.823
-52.0,-223.0,3.824
-55.0,-194.0,3.825
-54.0,-131.0,3.826
-23.0,-61.0,3.827
18.0,-48.0,3.828
40.0,-86.0,3.829
51.0,-102.0,3.83
66.0,-69.0,3.831
82.0,-40.0,3.832
81.0,-41.0,3.833
70.0,-20.0,3.834
62.0,79.0,3.835
56.0,214.0,3.836
42.0,283.0,3.837
14.0,244.0,3.838
-10.0,143.0,3.839
-26.0,44.0,3.84
-38.0,-16.0,3.841
-44.0,-25.0,3.842
-36.0,8.0,3.843
-26.0,65.0,3.844
-24.0,131.0,3.845
-30.0,192.0,3.846
-33.0,224.0,3.847
-26.0,216.0,3.848
-16.0,187.0,3.849
-4.0,182.0,3.85
2.0,198.0,3.851
3.0,179.0,3.852
0.0,103.0,3.853
3.0,33.0,3.854
21.0,49.0,3.855
47.0,138.0,3.856
70.0,194.0,3.857
86.0,129.0,3.858
91.0,-36.0,3.859
73.0,-216.0,3.86
31.0,-337.0,3.861
-10.0,-388.0,3.862
-25.0,-391.0,3.863
-26.0,-367.0,3.864
-36.0,-339.0,3.865
-48.0,-318.0,3.866
-35.0,-296.0,3.867
0.0,-259.0,3.868
30.0,-211.0,3.869
41.0,-159.0,3.87
40.0,-88.0,3.871
25.0,9.0,3.872
-14.0,99.0,3.873
-64.0,140.0,3.874
-90.0,136.0,3.875
-80.0,129.0,3.876
-57.0,139.0,3.877
-43.0,156.0,3.878
-30.0,167.0,3.879
-11.0,150.0,3.88
18.0,94.0,3.881
41.0,29.0,3.882
53.0,10.0,3.883
56.0,57.0,3.884
50.0,123.0,3.885
42.0,170.0,3.886
33.0,207.0,3.887
21.0,245.0,3.888
6.0,240.0,3.889
-3.0,157.0,3.89
-5.0,59.0,3.891
-7.0,35.0,3.892
-12.0,89.0,3.893
-16.0,122.0,3.894
-11.0,63.0,3.895
-6.0,-67.0,3.896
-5.0,-189.0,3.897
-8.0,-261.0,3.898
-5.0,-277.0,3.899
2.0,-287.0,3.9
3.0,-276.0,3.901
-6.0,-258.0,3.902
-9.0,-222.0,3.903
9.0,-196.0,3.904
32.0,-204.0,3.905
33.0,-206.0,3.906
15.0,-190.0,3.907
1.0,-158.0,3.908
2.0,-78.0,3.909
-2.0,-24.0,3.91
-23.0,-52.0,3.911
-43.0,-64.0,3.912
-46.0,-27.0,3.913
-40.0,26.0,3.914
-38.0,128.0,3.915
-40.0,215.0,3.916
-34.0,259.0,3.917
-19.0,290.0,3.918
11.0,285.0,3.919
42.0,295.0,3.92
71.0,305.0,3.921
91.0,273.0,3.922
85.0,199.0,3.923
78.0,154.0,3.924
72.0,184.0,3.925
64.0,242.0,3.926
48.0,236.0,3.927
27.0,156.0,3.928
-3.0,50.0,3.929
-40.0,-78.0,3.93
-92.0,-297.0,3.931
-128.0,-605.0,3.932
-111.0,-858.0,3.933
-93.0,-880.0,3.934
-75.0,-622.0,3.935
-54.0,-209.0,3.936
-21.0,149.0,3.937
7.0,357.0,3.938
11.0,516.0,3.939
6.0,631.0,3.94
15.0,676.0,3.941
27.0,592.0,3.942
38.0,419.0,3.943
58.0,277.0,3.944
90.0,183.0,3.945
115.0,44.0,3.946
114.0,-143.0,3.947
88.0,-252.0,3.948
47.0,-241.0,3.949
15.0,-208.0,3.95
16.0,-222.0,3.951
38.0,-237.0,3.952
44.0,-221.0,3.953
20.0,-213.0,3.954
-10.0,-213.0,3.955
-23.0,-165.0,3.956
-23.0,-74.0,3.957
-12.0,-24.0,3.958
11.0,-88.0,3.959
27.0,-188.0,3.96
13.0,-230.0,3.961
-26.0,-169.0,3.962
-54.0,-28.0,3.963
-63.0,123.0,3.964
-69.0,215.0,3.965
-73.0,225.0,3.966
-57.0,177.0,3.967
-36.0,84.0,3.968
-41.0,-44.0,3.969
-64.0,-141.0,3.97
-58.0,-130.0,3.971
-6.0,-48.0,3.972
57.0,-19.0,3.973
94.0,-84.0,3.974
98.0,-126.0,3.975
77.0,-44.0,3.976
40.0,113.0,3.977
7.0,278.0,3.978
-4.0,432.0,3.979
-5.0,568.0,3.98
-7.0,608.0,3.981
-3.0,475.0,3.982
16.0,213.0,3.983
25.0,-28.0,3.984
14.0,-148.0,3.985
16.0,-174.0,3.986
52.0,-182.0,3.987
78.0,-229.0,3.988
45.0,-322.0,3.989
-27.0,-405.0,3.99
-72.0,-384.0,3.991
-69.0,-213.0,3.992
-41.0,22.0,3.993
-7.0,178.0,3.994
25.0,209.0,3.995
34.0,181.0,3.996
19.0,150.0,3.997
3.0,82.0,3.998
9.0,-22.0,3.999
15.0,-117.0,4.0
16.0,-183.0,4.001
13.0,-246.0,4.002
-1.0,-297.0,4.003
-28.0,-309.0,4.004
-89.0,-201.0,4.005
-129.0,-94.0,4.006
-107.0,3.0,4.007
-90.0,57.0,4.008
-85.0,-24.0,4.009
-76.0,-97.0,4.01
-55.0,-143.0,4.011
-35.0,-156.0,4.012
-17.0,-68.0,4.013
1.0,16.0,4.014
22.0,87.0,4.015
45.0,156.0,4.016
69.0,217.0,4.017
87.0,295.0,4.018
75.0,402.0,4.019
46.0,423.0,4.02
9.0,349.0,4.021
-4.0,264.0,4.022
23.0,192.0,4.023
78.0,89.0,4.024
122.0,-40.0,4.025
140.0,-115.0,4.026
144.0,-112.0,4.027
131.0,-108.0,4.028
94.0,-146.0,4.029
44.0,-171.0,4.03
-1.0,-148.0,4.031
-46.0,-127.0,4.032
-81.0,-152.0,4.033
-86.0,-198.0,4.034
-63.0,-227.0,4.035
-49.0,-226.0,4.036
-59.0,-167.0,4.037
-61.0,-16.0,4.038
-25.0,184.0,4.039
15.0,351.0,4.04
22.0,442.0,4.041
18.0,456.0,4.042
35.0,364.0,4.043
52.0,185.0,4.044
32.0,25.0,4.045
-8.0,-47.0,4.046
-34.0,-109.0,4.047
-62.0,-246.0,4.048
-111.0,-390.0,4.049
-145.0,-413.0,4.05
-122.0,-307.0,4.051
-70.0,-156.0,4.052
-39.0,0.0,4.053
-20.0,156.0,4.054
29.0,254.0,4.055
107.0,238.0,4.056
164.0,158.0,4.057
167.0,92.0,4.058
125.0,84.0,4.059
63.0,92.0,4.06
13.0,60.0,4.061
-5.0,0.0,4.062
0.0,-62.0,4.063
0.0,-117.0,4.064
-21.0,-193.0,4.065
-47.0,-319.0,4.066
-63.0,-457.0,4.067
-79.0,-488.0,4.068
-106.0,-333.0,4.069
-123.0,-84.0,4.07
-105.0,74.0,4.071
-57.0,84.0,4.072
-10.0,50.0,4.073
23.0,59.0,4.074
47.0,108.0,4.075
70.0,194.0,4.076
81.0,323.0,4.077
70.0,438.0,4.078
44.0,450.0,4.079
25.0,420.0,4.08
30.0,258.0,4.081
61.0,107.0,4.082
107.0,-13.0,4.083
163.0,-118.0,4.084
202.0,-179.0,4.085
189.0,-214.0,4.086
109.0,-172.0,4.087
0.0,-126.0,4.088
-90.0,-68.0,4.089
-149.0,-45.0,4.09
-188.0,-125.0,4.091
-201.0,-170.0,4.092
-155.0,-108.0,4.093
-65.0,-50.0,4.094
22.0,-1.0,4.095
78.0,34.0,4.096
111.0,27.0,4.097
126.0,25.0,4.098
107.0,50.0,4.099
53.0,73.0,4.1
9.0,82.0,4.101
-11.0,79.0,4.102
-37.0,60.0,4.103
-86.0,17.0,4.104
-114.0,-67.0,4.105
-89.0,-223.0,4.106
-51.0,-434.0,4.107
-49.0,-610.0,4.108
-72.0,-631.0,4.109
-91.0,-453.0,4.11
-102.0,-151.0,4.111
-93.0,162.0,4.112
-31.0,434.0,4.113
64.0,623.0,4.114
112.0,629.0,4.115
82.0,381.0,4.116
48.0,33.0,4.117
62.0,-185.0,4.118
87.0,-126.0,4.119
67.0,68.0,4.12
25.0,201.0,4.121
14.0,300.0,4.122
20.0,467.0,4.123
7.0,626.0,4.124
-13.0,606.0,4.125
0.0,409.0,4.126
29.0,202.0,4.127
16.0,54.0,4.128
-31.0,-101.0,4.129
-43.0,-268.0,4.13
0.0,-368.0,4.131
36.0,-390.0,4.132
18.0,-410.0,4.133
-20.0,-438.0,4.134
-25.0,-401.0,4.135
0.0,-285.0,4.136
23.0,-164.0,4.137
15.0,-93.0,4.138
27.0,-60.0,4.139
19.0,-31.0,4.14
-41.0,-16.0,4.141
-76.0,5.0,4.142
-26.0,48.0,4.143
16.0,88.0,4.144
40.0,116.0,4.145
58.0,155.0,4.146
56.0,227.0,4.147
51.0,263.0,4.148
36.0,193.0,4.149
18.0,111.0,4.15
-2.0,-10.0,4.151
-17.0,-97.0,4.152
-9.0,-77.0,4.153
-2.0,-59.0,4.154
-2.0,-53.0,4.155
6.0,-53.0,4.156
30.0,-71.0,4.157
18.0,-88.0,4.158
34.0,-101.0,4.159
24.0,-102.0,4.16
-63.0,-78.0,4.161
-111.0,-42.0,4.162
-41.0,-35.0,4.163
19.0,-61.0,4.164
53.0,-82.0,4.165
78.0,-76.0,4.166
76.0,-57.0,4.167
69.0,-43.0,4.168
47.0,-32.0,4.169
22.0,-12.0,4.17
-8.0,12.0,4.171
-29.0,26.0,4.172
-17.0,16.0,4.173
-7.0,-12.0,4.174
-7.0,-35.0,4.175
3.0,-31.0,4.176
39.0,-11.0,4.177
63.0,-7.0,4.178
10.0,-32.0,4.179
-62.0,-61.0,4.18
-90.0,-62.0,4.181
-57.0,-36.0,4.182
-6.0,-13.0,4.183
15.0,-5.0,4.184
-9.0,16.0,4.185
-50.0,70.0,4.186
-74.0,143.0,4.187
-68.0,193.0,4.188
-50.0,184.0,4.189
-48.0,128.0,4.19
-52.0,76.0,4.191
-30.0,60.0,4.192
21.0,57.0,4.193
64.0,39.0,4.194
66.0,6.0,4.195
50.0,-19.0,4.196
55.0,-36.0,4.197
79.0,-62.0,4.198
84.0,-84.0,4.199
49.0,-74.0,4.2
0.0,-44.0,4.201
-32.0,-18.0,4.202
-38.0,-6.0,4.203
-28.0,12.0,4.204
-10.0,29.0,4.205
18.0,17.0,4.206
48.0,-45.0,4.207
62.0,-138.0,4.208
61.0,-205.0,4.209
57.0,-184.0,4.21
59.0,-66.0,4.211
60.0,81.0,4.212
48.0,167.0,4.213
18.0,178.0,4.214
-31.0,166.0,4.215
-89.0,154.0,4.216
-126.0,125.0,4.217
-110.0,92.0,4.218
-48.0,47.0,4.219
0.0,0.0,4.22
1.0,-49.0,4.221
-16.0,-91.0,4.222
-8.0,-105.0,4.223
28.0,-124.0,4.224
61.0,-155.0,4.225
76.0,-172.0,4.226
86.0,-143.0,4.227
98.0,-107.0,4.228
111.0,-47.0,4.229
121.0,-3.0,4.23
113.0,-3.0,4.231
68.0,1.0,4.232
-9.0,15.0,4.233
-71.0,27.0,4.234
-92.0,32.0,4.235
-96.0,37.0,4.236
-112.0,41.0,4.237
-125.0,145.0,4.238
-106.0,81.0,4.239
-91.0,15.0,4.24
-88.0,-56.0,4.241
-79.0,-115.0,4.242
-57.0,-135.0,4.243
-33.0,-161.0,4.244
-3.0,-205.0,4.245
19.0,-229.0,4.246
17.0,-189.0,4.247
20.0,-138.0,4.248
40.0,-53.0,4.249
53.0,11.0,4.25
43.0,11.0,4.251
38.0,16.0,4.252
46.0,36.0,4.253
49.0,53.0,4.254
37.0,60.0,4.255
29.0,67.0,4.256
34.0,73.0,4.257
38.0,82.0,4.258
31.0,82.0,4.259
22.0,57.0,4.26
19.0,28.0,4.261
18.0,14.0,4.262
25.0,-3.0,4.263
34.0,-35.0,4.264
31.0,-62.0,4.265
17.0,-62.0,4.266
11.0,-40.0,4.267
14.0,-17.0,4.268
-1.0,-1.0,4.269
-33.0,11.0,4.27
-51.0,20.0,4.271
-34.0,23.0,4.272
-4.0,26.0,4.273
13.0,26.0,4.274
25.0,24.0,4.275
44.0,21.0,4.276
57.0,24.0,4.277
33.0,24.0,4.278
-16.0,20.0,4.279
-50.0,13.0,4.28
-56.0,6.0,4.281
-51.0,7.0,4.282
-48.0,9.0,4.283
-37.0,9.0,4.284
-19.0,7.0,4.285
-3.0,5.0,4.286
6.0,4.0,4.287
16.0,5.0,4.288
21.0,10.0,4.289
18.0,15.0,4.29
12.0,20.0,4.291
12.0,21.0,4.292
12.0,21.0,4.293
6.0,20.0,4.294
1.0,16.0,4.295
5.0,5.0,4.296
13.0,-11.0,4.297
7.0,-31.0,4.298
-1.0,-31.0,4.299
-1.0,7.0,4.3
11.0,67.0,4.301
22.0,106.0,4.302
26.0,95.0,4.303
24.0,53.0,4.304
14.0,14.0,4.305
2.0,-30.0,4.306
-2.0,-95.0,4.307
-5.0,-153.0,4.308
-25.0,-154.0,4.309
-51.0,-106.0,4.31
-46.0,-68.0,4.311
-7.0,-62.0,4.312
24.0,-64.0,4.313
35.0,-59.0,4.314
54.0,-65.0,4.315
76.0,-69.0,4.316
51.0,-52.0,4.317
-30.0,-22.0,4.318
-78.0,-5.0,4.319
-35.0,8.0,4.32
25.0,35.0,4.321
19.0,64.0,4.322
-21.0,62.0,4.323
-14.0,39.0,4.324
27.0,35.0,4.325
39.0,44.0,4.326
22.0,37.0,4.327
21.0,20.0,4.328
28.0,24.0,4.329
11.0,43.0,4.33
-31.0,48.0,4.331
-78.0,39.0,4.332
-126.0,38.0,4.333
-164.0,41.0,4.334
-160.0,29.0,4.335
-94.0,11.0,4.336
-1.0,8.0,4.337
78.0,12.0,4.338
122.0,8.0,4.339
140.0,-1.0,4.34
147.0,0.0,4.341
112.0,10.0,4.342
-2.0,12.0,4.343
-150.0,8.0,4.344
-201.0,9.0,4.345
-78.0,11.0,4.346
128.0,5.0,4.347
254.0,-3.0,4.348
241.0,3.0,4.349
155.0,23.0,4.35
70.0,28.0,4.351
7.0,8.0,4.352
-32.0,-21.0,4.353
-48.0,-39.0,4.354
-49.0,-39.0,4.355
-47.0,-33.0,4.356
-31.0,-30.0,4.357
-6.0,-34.0,4.358
-4.0,-30.0,4.359
-69.0,-13.0,4.36
-177.0,-6.0,4.361
-229.0,-12.0,4.362
-149.0,-25.0,4.363
28.0,-19.0,4.364
179.0,6.0,4.365
229.0,33.0,4.366
199.0,46.0,4.367
140.0,54.0,4.368
68.0,58.0,4.369
-13.0,41.0,4.37
-78.0,6.0,4.371
-111.0,-21.0,4.372
-125.0,-24.0,4.373
-109.0,-23.0,4.374
-39.0,-39.0,4.375
67.0,-61.0,4.376
148.0,-57.0,4.377
158.0,-30.0,4.378
102.0,7.0,4.379
34.0,37.0,4.38
-66.0,47.0,4.381
-127.0,51.0,4.382
-67.0,29.0,4.383
-13.0,13.0,4.384
24.0,13.0,4.385
46.0,10.0,4.386
17.0,0.0,4.387
-7.0,-9.0,4.388
-17.0,-15.0,4.389
-34.0,-20.0,4.39
-69.0,-22.0,4.391
-90.0,-24.0,4.392
-68.0,-22.0,4.393
-35.0,-21.0,4.394
30.0,-20.0,4.395
69.0,-18.0,4.396
30.0,-13.0,4.397
-2.0,-7.0,4.398
7.0,0.0,4.399
34.0,8.0,4.4
15.0,11.0,4.401
-42.0,9.0,4.402
-75.0,-3.0,4.403
-58.0,-20.0,4.404
-33.0,-33.0,4.405
-29.0,-29.0,4.406
-32.0,-17.0,4.407
-9.0,-10.0,4.408
26.0,-9.0,4.409
41.0,-5.0,4.41
34.0,10.0,4.411
25.0,29.0,4.412
14.0,44.0,4.413
-11.0,61.0,4.414
-38.0,77.0,4.415
-31.0,79.0,4.416
7.0,64.0,4.417
43.0,-16.0,4.418
45.0,-38.0,4.419
28.0,-64.0,4.42
17.0,-106.0,4.421
12.0,-143.0,4.422
0.0,-169.0,4.423
-14.0,-184.0,4.424
-13.0,-165.0,4.425
-1.0,-140.0,4.426
3.0,-101.0,4.427
-2.0,-67.0,4.428
-1.0,-44.0,4.429
9.0,-26.0,4.43
17.0,-19.0,4.431
18.0,-12.0,4.432
17.0,-5.0,4.433
19.0,1.0,4.434
18.0,9.0,4.435
8.0,14.0,4.436
-3.0,10.0,4.437
-15.0,-13.0,4.438
-23.0,-37.0,4.439
-29.0,-64.0,4.44
-27.0,-108.0,4.441
-16.0,-148.0,4.442
-1.0,-176.0,4.443
5.0,-192.0,4.444
3.0,-171.0,4.445
-4.0,-145.0,4.446
-3.0,-104.0,4.447
3.0,-67.0,4.448
12.0,-43.0,4.449
15.0,-23.0,4.45
16.0,-16.0,4.451
17.0,-9.0,4.452
17.0,-2.0,4.453
14.0,5.0,4.454
10.0,13.0,4.455
11.0,19.0,4.456
16.0,14.0,4.457
18.0,7.0,4.458
18.0,-27.0,4.459
18.0,-65.0,4.46
18.0,-126.0,4.461
20.0,-181.0,4.462
23.0,-220.0,4.463
26.0,-242.0,4.464
26.0,-213.0,4.465
21.0,-177.0,4.466
15.0,-120.0,4.467
14.0,-69.0,4.468
14.0,-35.0,4.469
13.0,-8.0,4.47
9.0,2.0,4.471
4.0,13.0,4.472
6.0,22.0,4.473
12.0,32.0,4.474
17.0,43.0,4.475
17.0,50.0,4.476
12.0,44.0,4.477
4.0,64.0,4.478
-2.0,4.0,4.479
-13.0,-68.0,4.48
-30.0,-178.0,4.481
-47.0,-278.0,4.482
-50.0,-348.0,4.483
-41.0,-388.0,4.484
-27.0,-336.0,4.485
-14.0,-270.0,4.486
-5.0,-167.0,4.487
-3.0,-74.0,4.488
-5.0,-12.0,4.489
-4.0,38.0,4.49
3.0,56.0,4.491
12.0,75.0,4.492
13.0,92.0,4.493
11.0,110.0,4.494
10.0,130.0,4.495
8.0,143.0,4.496
7.0,132.0,4.497
4.0,116.0,4.498
4.0,86.0,4.499
1.0,55.0,4.5
-4.0,17.0,4.501
-6.0,-19.0,4.502
5.0,-44.0,4.503
23.0,-42.0,4.504
33.0,-16.0,4.505
29.0,9.0,4.506
19.0,14.0,4.507
13.0,3.0,4.508
12.0,-8.0,4.509
3.0,-11.0,4.51
-16.0,-7.0,4.511
-39.0,7.0,4.512
-53.0,32.0,4.513
-51.0,54.0,4.514
-37.0,56.0,4.515
-19.0,46.0,4.516
-8.0,41.0,4.517
-4.0,36.0,4.518
-3.0,23.0,4.519
0.0,8.0,4.52
7.0,3.0,4.521
15.0,14.0,4.522
21.0,26.0,4.523
30.0,24.0,4.524
35.0,13.0,4.525
32.0,2.0,4.526
22.0,-3.0,4.527
19.0,-5.0,4.528
25.0,-5.0,4.529
28.0,-7.0,4.53
22.0,-14.0,4.531
12.0,-22.0,4.532
8.0,-28.0,4.533
8.0,-22.0,4.534
7.0,-8.0,4.535
5.0,-1.0,4.536
4.0,-15.0,4.537
0.0,-53.0,4.538
-5.0,-82.0,4.539
-12.0,-76.0,4.54
-17.0,-48.0,4.541
-16.0,-25.0,4.542
-15.0,-22.0,4.543
-13.0,-22.0,4.544
-8.0,0.0,4.545
-5.0,31.0,4.546
1.0,44.0,4.547
10.0,30.0,4.548
16.0,11.0,4.549
12.0,7.0,4.55
3.0,15.0,4.551
1.0,23.0,4.552
6.0,28.0,4.553
6.0,33.0,4.554
1.0,34.0,4.555
-6.0,27.0,4.556
-12.0,22.0,4.557
-19.0,15.0,4.558
-21.0,4.0,4.559
-17.0,-10.0,4.56
-7.0,-23.0,4.561
4.0,-28.0,4.562
14.0,-31.0,4.563
22.0,-32.0,4.564
22.0,-22.0,4.565
9.0,-7.0,4.566
-5.0,1.0,4.567
-3.0,3.0,4.568
11.0,9.0,4.569
21.0,22.0,4.57
24.0,29.0,4.571
27.0,22.0,4.572
30.0,12.0,4.573
31.0,16.0,4.574
29.0,31.0,4.575
23.0,43.0,4.576
17.0,43.0,4.577
2.0,21.0,4.578
-11.0,-7.0,4.579
-21.0,-29.0,4.58
-26.0,-42.0,4.581
-26.0,-51.0,4.582
-18.0,-60.0,4.583
-11.0,-58.0,4.584
-9.0,-42.0,4.585
-11.0,-28.0,4.586
-9.0,-32.0,4.587
-3.0,-50.0,4.588
-3.0,-64.0,4.589
-6.0,-59.0,4.59
-5.0,-37.0,4.591
0.0,-10.0,4.592
1.0,10.0,4.593
-2.0,18.0,4.594
-5.0,19.0,4.595
-3.0,28.0,4.596
-3.0,52.0,4.597
-8.0,92.0,4.598
-13.0,121.0,4.599
-17.0,114.0,4.6
-20.0,63.0,4.601
-20.0,1.0,4.602
-14.0,-42.0,4.603
-4.0,-60.0,4.604
2.0,-62.0,4.605
2.0,-55.0,4.606
0.0,-44.0,4.607
1.0,-26.0,4.608
3.0,7.0,4.609
6.0,60.0,4.61
12.0,101.0,4.611
16.0,82.0,4.612
17.0,-6.0,4.613
17.0,-107.0,4.614
19.0,-150.0,4.615
24.0,-124.0,4.616
29.0,-65.0,4.617
27.0,-12.0,4.618
20.0,23.0,4.619
12.0,33.0,4.62
2.0,19.0,4.621
-4.0,0.0,4.622
1.0,-12.0,4.623
5.0,-21.0,4.624
7.0,-26.0,4.625
9.0,-28.0,4.626
9.0,-27.0,4.627
11.0,-19.0,4.628
16.0,7.0,4.629
19.0,66.0,4.63
16.0,143.0,4.631
12.0,196.0,4.632
9.0,182.0,4.633
7.0,104.0,4.634
10.0,7.0,4.635
11.0,-54.0,4.636
3.0,-64.0,4.637
-6.0,-56.0,4.638
-12.0,-56.0,4.639
-18.0,-60.0,4.64
-21.0,-84.0,4.641
-23.0,-96.0,4.642
-19.0,-74.0,4.643
-11.0,-50.0,4.644
-7.0,-19.0,4.645
-6.0,0.0,4.646
-5.0,-16.0,4.647
4.0,-29.0,4.648
18.0,-28.0,4.649
28.0,-18.0,4.65
29.0,16.0,4.651
24.0,53.0,4.652
19.0,94.0,4.653
18.0,131.0,4.654
20.0,152.0,4.655
18.0,160.0,4.656
11.0,126.0,4.657
0.0,89.0,4.658
-6.0,49.0,4.659
-13.0,15.0,4.66
-22.0,-40.0,4.661
-25.0,-117.0,4.662
-15.0,-174.0,4.663
-4.0,-174.0,4.664
-7.0,-139.0,4.665
-19.0,-110.0,4.666
-26.0,-79.0,4.667
-19.0,-5.0,4.668
-8.0,109.0,4.669
0.0,200.0,4.67
2.0,210.0,4.671
-2.0,145.0,4.672
-10.0,50.0,4.673
-15.0,-40.0,4.674
-8.0,-120.0,4.675
0.0,-181.0,4.676
0.0,-208.0,4.677
-1.0,-196.0,4.678
3.0,-157.0,4.679
7.0,-106.0,4.68
4.0,-50.0,4.681
0.0,18.0,4.682
3.0,94.0,4.683
14.0,157.0,4.684
19.0,180.0,4.685
18.0,155.0,4.686
28.0,104.0,4.687
44.0,54.0,4.688
50.0,15.0,4.689
42.0,-30.0,4.69
26.0,-82.0,4.691
18.0,-100.0,4.692
15.0,-51.0,4.693
13.0,41.0,4.694
7.0,119.0,4.695
-2.0,152.0,4.696
-9.0,150.0,4.697
-12.0,122.0,4.698
-5.0,65.0,4.699
0.0,-14.0,4.7
2.0,-90.0,4.701
2.0,-123.0,4.702
5.0,-119.0,4.703
6.0,-110.0,4.704
-4.0,-123.0,4.705
-19.0,-154.0,4.706
-23.0,-173.0,4.707
-20.0,-162.0,4.708
-18.0,-124.0,4.709
-20.0,-73.0,4.71
-14.0,-13.0,4.711
4.0,57.0,4.712
22.0,140.0,4.713
26.0,224.0,4.714
19.0,268.0,4.715
11.0,232.0,4.716
6.0,126.0,4.717
0.0,-5.0,4.718
1.0,-103.0,4.719
6.0,-151.0,4.72
9.0,-175.0,4.721
11.0,-177.0,4.722
30.0,-153.0,4.723
68.0,-113.0,4.724
86.0,-75.0,4.725
51.0,-37.0,4.726
-14.0,6.0,4.727
-57.0,41.0,4.728
-66.0,57.0,4.729
-67.0,68.0,4.73
-72.0,90.0,4.731
-61.0,113.0,4.732
-33.0,121.0,4.733
-15.0,113.0,4.734
-21.0,98.0,4.735
-31.0,74.0,4.736
-32.0,46.0,4.737
-28.0,33.0,4.738
-24.0,76.0,4.739
-20.0,181.0,4.74
-16.0,281.0,4.741
-12.0,283.0,4.742
0.0,146.0,4.743
31.0,-53.0,4.744
63.0,-198.0,4.745
73.0,-257.0,4.746
65.0,-271.0,4.747
58.0,-252.0,4.748
56.0,-163.0,4.749
46.0,-21.0,4.75
25.0,88.0,4.751
5.0,117.0,4.752
-8.0,108.0,4.753
-22.0,89.0,4.754
-32.0,43.0,4.755
-32.0,-4.0,4.756
-22.0,4.0,4.757
-18.0,60.0,4.758
-16.0,76.0,4.759
-12.0,3.0,4.76
-5.0,-84.0,4.761
-1.0,-106.0,4.762
-2.0,-107.0,4.763
0.0,-155.0,4.764
8.0,-218.0,4.765
16.0,-208.0,4.766
24.0,-121.0,4.767
36.0,-43.0,4.768
42.0,-33.0,4.769
34.0,-73.0,4.77
19.0,-114.0,4.771
15.0,-129.0,4.772
18.0,-107.0,4.773
18.0,-50.0,4.774
8.0,28.0,4.775
3.0,108.0,4.776
11.0,176.0,4.777
19.0,238.0,4.778
16.0,285.0,4.779
4.0,292.0,4.78
-2.0,257.0,4.781
5.0,213.0,4.782
19.0,181.0,4.783
27.0,161.0,4.784
30.0,169.0,4.785
29.0,207.0,4.786
24.0,198.0,4.787
17.0,37.0,4.788
6.0,-243.0,4.789
0.0,-463.0,4.79
-4.0,-518.0,4.791
-11.0,-489.0,4.792
-22.0,-464.0,4.793
-29.0,-398.0,4.794
-27.0,-247.0,4.795
-28.0,-92.0,4.796
-38.0,-16.0,4.797
-50.0,28.0,4.798
-45.0,113.0,4.799
-26.0,211.0,4.8
-3.0,245.0,4.801
20.0,234.0,4.802
43.0,232.0,4.803
55.0,235.0,4.804
42.0,210.0,4.805
15.0,147.0,4.806
-7.0,48.0,4.807
-19.0,-81.0,4.808
-29.0,-206.0,4.809
-43.0,-263.0,4.81
-52.0,-233.0,4.811
-57.0,-136.0,4.812
-64.0,16.0,4.813
-72.0,200.0,4.814
-72.0,342.0,4.815
-62.0,365.0,4.816
-44.0,301.0,4.817
-20.0,214.0,4.818
2.0,135.0,4.819
14.0,40.0,4.82
20.0,-54.0,4.821
34.0,-96.0,4.822
57.0,-85.0,4.823
74.0,-86.0,4.824
80.0,-125.0,4.825
80.0,-162.0,4.826
77.0,-165.0,4.827
63.0,-151.0,4.828
42.0,-139.0,4.829
28.0,-121.0,4.83
26.0,-100.0,4.831
23.0,-113.0,4.832
9.0,-170.0,4.833
-11.0,-233.0,4.834
-24.0,-260.0,4.835
-26.0,-247.0,4.836
-20.0,-200.0,4.837
-9.0,-94.0,4.838
3.0,58.0,4.839
14.0,179.0,4.84
23.0,196.0,4.841
33.0,147.0,4.842
46.0,121.0,4.843
58.0,159.0,4.844
62.0,229.0,4.845
54.0,278.0,4.846
41.0,279.0,4.847
23.0,227.0,4.848
2.0,139.0,4.849
-13.0,60.0,4.85
-14.0,18.0,4.851
-7.0,-3.0,4.852
-15.0,-24.0,4.853
-42.0,-44.0,4.854
-67.0,-36.0,4.855
-75.0,14.0,4.856
-73.0,96.0,4.857
-70.0,185.0,4.858
-51.0,207.0,4.859
-8.0,113.0,4.86
29.0,-62.0,4.861
35.0,-225.0,4.862
20.0,-324.0,4.863
15.0,-372.0,4.864
30.0,-380.0,4.865
57.0,-311.0,4.866
91.0,-140.0,4.867
113.0,80.0,4.868
91.0,248.0,4.869
30.0,302.0,4.87
-19.0,266.0,4.871
-29.0,200.0,4.872
-31.0,142.0,4.873
-52.0,86.0,4.874
-70.0,35.0,4.875
-62.0,11.0,4.876
-45.0,27.0,4.877
-50.0,63.0,4.878
-58.0,117.0,4.879
-57.0,210.0,4.88
-23.0,308.0,4.881
7.0,279.0,4.882
28.0,23.0,4.883
43.0,-347.0,4.884
37.0,-586.0,4.885
31.0,-591.0,4.886
23.0,-481.0,4.887
16.0,-390.0,4.888
10.0,-313.0,4.889
5.0,-185.0,4.89
0.0,-27.0,4.891
-5.0,88.0,4.892
-11.0,132.0,4.893
-12.0,145.0,4.894
8.0,167.0,4.895
29.0,196.0,4.896
54.0,206.0,4.897
72.0,159.0,4.898
68.0,75.0,4.899
59.0,12.0,4.9
52.0,10.0,4.901
37.0,29.0,4.902
12.0,112.0,4.903
-14.0,173.0,4.904
-34.0,166.0,4.905
-49.0,134.0,4.906
-54.0,26.0,4.907
-52.0,-72.0,4.908
-50.0,-136.0,4.909
-52.0,-180.0,4.91
-54.0,-166.0,4.911
-51.0,-155.0,4.912
-47.0,-153.0,4.913
-46.0,-154.0,4.914
-38.0,-162.0,4.915
-12.0,-146.0,4.916
22.0,-60.0,4.917
49.0,19.0,4.918
47.0,43.0,4.919
26.0,29.0,4.92
8.0,37.0,4.921
3.0,97.0,4.922
8.0,170.0,4.923
10.0,201.0,4.924
4.0,184.0,4.925
-1.0,154.0,4.926
0.0,126.0,4.927
20.0,76.0,4.928
56.0,-4.0,4.929
91.0,-84.0,4.93
115.0,-116.0,4.931
119.0,-96.0,4.932
105.0,-70.0,4.933
64.0,-69.0,4.934
-1.0,-81.0,4.935
-59.0,-70.0,4.936
-73.0,-35.0,4.937
-59.0,-16.0,4.938
-46.0,-52.0,4.939
-53.0,-131.0,4.94
-52.0,-182.0,4.941
-34.0,-143.0,4.942
-20.0,-31.0,4.943
-30.0,82.0,4.944
-46.0,147.0,4.945
-34.0,175.0,4.946
3.0,200.0,4.947
32.0,235.0,4.948
36.0,267.0,4.949
24.0,279.0,4.95
16.0,261.0,4.951
11.0,208.0,4.952
-2.0,136.0,4.953
-28.0,83.0,4.954
-54.0,79.0,4.955
-55.0,124.0,4.956
-28.0,167.0,4.957
2.0,157.0,4.958
5.0,72.0,4.959
-21.0,-52.0,4.96
-39.0,-158.0,4.961
-20.0,-198.0,4.962
27.0,-172.0,4.963
71.0,-109.0,4.964
103.0,-41.0,4.965
131.0,13.0,4.966
157.0,52.0,4.967
168.0,63.0,4.968
154.0,34.0,4.969
123.0,-40.0,4.97
83.0,-138.0,4.971
34.0,-239.0,4.972
-33.0,-346.0,4.973
-114.0,-468.0,4.974
-185.0,-567.0,4.975
-219.0,-564.0,4.976
-210.0,-440.0,4.977
-178.0,-266.0,4.978
-140.0,-133.0,4.979
-98.0,-20.0,4.98
-42.0,30.0,4.981
10.0,77.0,4.982
48.0,109.0,4.983
80.0,149.0,4.984
89.0,214.0,4.985
93.0,266.0,4.986
77.0,280.0,4.987
62.0,266.0,4.988
54.0,164.0,4.989
43.0,52.0,4.99
29.0,-90.0,4.991
15.0,-192.0,4.992
5.0,-169.0,4.993
-10.0,-129.0,4.994
-42.0,-37.0,4.995
-68.0,52.0,4.996
-73.0,132.0,4.997
-71.0,239.0,4.998
-58.0,423.0,4.999
-62.0,513.0,5.0
-62.0,461.0,5.001
-36.0,347.0,5.002
8.0,228.0,5.003
46.0,92.0,5.004
69.0,-36.0,5.005
82.0,-78.0,5.006
93.0,-16.0,5.007
99.0,52.0,5.008
92.0,53.0,5.009
74.0,24.0,5.01
56.0,31.0,5.011
48.0,48.0,5.012
44.0,0.0,5.013
32.0,-105.0,5.014
10.0,-201.0,5.015
-10.0,-253.0,5.016
-17.0,-286.0,5.017
-23.0,-345.0,5.018
-43.0,-442.0,5.019
-71.0,-551.0,5.02
-89.0,-591.0,5.021
-93.0,-483.0,5.022
-86.0,-283.0,5.023
-68.0,-146.0,5.024
-43.0,-129.0,5.025
-25.0,-102.0,5.026
-19.0,57.0,5.027
-9.0,262.0,5.028
8.0,336.0,5.029
24.0,265.0,5.03
28.0,210.0,5.031
33.0,256.0,5.032
44.0,305.0,5.033
43.0,238.0,5.034
20.0,69.0,5.035
-1.0,-107.0,5.036
0.0,-204.0,5.037
11.0,-181.0,5.038
11.0,-28.0,5.039
10.0,164.0,5.04
4.0,265.0,5.041
0.0,270.0,5.042
2.0,279.0,5.043
3.0,317.0,5.044
-2.0,293.0,5.045
-5.0,192.0,5.046
3.0,125.0,5.047
6.0,160.0,5.048
-10.0,208.0,5.049
-25.0,183.0,5.05
-37.0,108.0,5.051
-35.0,38.0,5.052
6.0,-33.0,5.053
36.0,-118.0,5.054
28.0,-200.0,5.055
24.0,-296.0,5.056
36.0,-406.0,5.057
47.0,-464.0,5.058
40.0,-358.0,5.059
20.0,-134.0,5.06
6.0,30.0,5.061
0.0,67.0,5.062
-6.0,52.0,5.063
-7.0,25.0,5.064
1.0,-41.0,5.065
10.0,-104.0,5.066
10.0,-84.0,5.067
6.0,-36.0,5.068
1.0,-89.0,5.069
-5.0,-182.0,5.07
-15.0,-126.0,5.071
-17.0,59.0,5.072
-8.0,126.0,5.073
0.0,-18.0,5.074
8.0,-172.0,5.075
18.0,-135.0,5.076
25.0,26.0,5.077
20.0,165.0,5.078
12.0,201.0,5.079
11.0,150.0,5.08
15.0,67.0,5.081
5.0,44.0,5.082
-8.0,128.0,5.083
1.0,231.0,5.084
28.0,217.0,5.085
41.0,91.0,5.086
33.0,6.0,5.087
28.0,47.0,5.088
44.0,124.0,5.089
56.0,111.0,5.09
48.0,-9.0,5.091
30.0,-150.0,5.092
19.0,-212.0,5.093
9.0,-164.0,5.094
-7.0,-77.0,5.095
-24.0,-57.0,5.096
-35.0,-122.0,5.097
-46.0,-228.0,5.098
-58.0,-324.0,5.099
-70.0,-376.0,5.1
-75.0,-294.0,5.101
-56.0,-170.0,5.102
-11.0,83.0,5.103
38.0,240.0,5.104
55.0,106.0,5.105
33.0,-3.0,5.106
3.0,-39.0,5.107
-4.0,-25.0,5.108
-1.0,136.0,5.109
-11.0,290.0,5.11
-37.0,414.0,5.111
-63.0,509.0,5.112
-60.0,518.0,5.113
-11.0,494.0,5.114
82.0,370.0,5.115
184.0,228.0,5.116
240.0,34.0,5.117
219.0,-124.0,5.118
143.0,-137.0,5.119
62.0,-157.0,5.12
5.0,-230.0,5.121
-43.0,-277.0,5.122
-111.0,-250.0,5.123
-190.0,-193.0,5.124
-253.0,-150.0,5.125
-265.0,-114.0,5.126
-227.0,-88.0,5.127
-171.0,-86.0,5.128
-137.0,-97.0,5.129
-122.0,-96.0,5.13
-84.0,-96.0,5.131
-11.0,-115.0,5.132
54.0,-134.0,5.133
65.0,-143.0,5.134
49.0,-181.0,5.135
58.0,-254.0,5.136
84.0,-280.0,5.137
85.0,-183.0,5.138
53.0,-4.0,5.139
27.0,140.0,5.14
26.0,207.0,5.141
38.0,256.0,5.142
53.0,297.0,5.143
85.0,277.0,5.144
129.0,184.0,5.145
158.0,81.0,5.146
164.0,30.0,5.147
152.0,25.0,5.148
109.0,34.0,5.149
33.0,37.0,5.15
-38.0,26.0,5.151
-47.0,-8.0,5.152
8.0,-45.0,5.153
57.0,-60.0,5.154
45.0,-42.0,5.155
-12.0,-12.0,5.156
-62.0,0.0,5.157
-89.0,-24.0,5.158
-93.0,-67.0,5.159
-68.0,-103.0,5.16
-11.0,-132.0,5.161
47.0,-166.0,5.162
68.0,-180.0,5.163
46.0,-121.0,5.164
12.0,10.0,5.165
-3.0,132.0,5.166
11.0,169.0,5.167
28.0,131.0,5.168
0.0,82.0,5.169
-88.0,53.0,5.17
-172.0,40.0,5.171
-173.0,36.0,5.172
-98.0,33.0,5.173
-30.0,20.0,5.174
-16.0,11.0,5.175
-16.0,22.0,5.176
4.0,35.0,5.177
10.0,10.0,5.178
-46.0,-37.0,5.179
-130.0,-56.0,5.18
-155.0,-38.0,5.181
-102.0,-24.0,5.182
-36.0,-38.0,5.183
-6.0,-28.0,5.184
14.0,29.0,5.185
65.0,82.0,5.186
135.0,82.0,5.187
177.0,72.0,5.188
168.0,100.0,5.189
129.0,133.0,5.19
100.0,102.0,5.191
102.0,17.0,5.192
106.0,-53.0,5.193
57.0,-75.0,5.194
-46.0,-65.0,5.195
-121.0,-40.0,5.196
-109.0,-12.0,5.197
-38.0,1.0,5.198
14.0,-8.0,5.199
30.0,-26.0,5.2
46.0,-34.0,5.201
47.0,-31.0,5.202
-5.0,-42.0,5.203
-85.0,-66.0,5.204
-107.0,-89.0,5.205
-43.0,-100.0,5.206
46.0,-88.0,5.207
96.0,-54.0,5.208
110.0,-9.0,5.209
108.0,29.0,5.21
85.0,54.0,5.211
38.0,68.0,5.212
-15.0,63.0,5.213
-47.0,33.0,5.214
-39.0,-7.0,5.215
0.0,-31.0,5.216
38.0,-25.0,5.217
33.0,-12.0,5.218
-15.0,-10.0,5.219
-57.0,-15.0,5.22
-58.0,-40.0,5.221
-49.0,-56.0,5.222
-58.0,-40.0,5.223
-67.0,-19.0,5.224
-50.0,10.0,5.225
-29.0,34.0,5.226
-21.0,34.0,5.227
-10.0,42.0,5.228
28.0,79.0,5.229
58.0,107.0,5.23
45.0,109.0,5.231
9.0,101.0,5.232
6.0,62.0,5.233
39.0,10.0,5.234
70.0,-79.0,5.235
73.0,-149.0,5.236
67.0,-161.0,5.237
67.0,-152.0,5.238
67.0,-84.0,5.239
46.0,-61.0,5.24
19.0,-79.0,5.241
4.0,-102.0,5.242
-8.0,-134.0,5.243
-46.0,-160.0,5.244
-95.0,-123.0,5.245
-94.0,-3.0,5.246
-32.0,129.0,5.247
10.0,201.0,5.248
-22.0,232.0,5.249
-77.0,252.0,5.25
-61.0,244.0,5.251
18.0,181.0,5.252
70.0,100.0,5.253
45.0,53.0,5.254
-2.0,40.0,5.255
-19.0,38.0,5.256
-20.0,48.0,5.257
-46.0,59.0,5.258
-88.0,51.0,5.259
-105.0,25.0,5.26
-84.0,12.0,5.261
-49.0,21.0,5.262
-10.0,10.0,5.263
42.0,-31.0,5.264
100.0,-61.0,5.265
133.0,-73.0,5.266
121.0,-135.0,5.267
86.0,-279.0,5.268
51.0,-411.0,5.269
5.0,-398.0,5.27
-60.0,-236.0,5.271
-118.0,-45.0,5.272
-135.0,85.0,5.273
-118.0,181.0,5.274
-95.0,292.0,5.275
-68.0,382.0,5.276
-26.0,383.0,5.277
21.0,285.0,5.278
42.0,167.0,5.279
36.0,86.0,5.28
33.0,34.0,5.281
42.0,-12.0,5.282
49.0,-53.0,5.283
44.0,-80.0,5.284
44.0,-99.0,5.285
53.0,-112.0,5.286
66.0,-114.0,5.287
73.0,-111.0,5.288
75.0,-112.0,5.289
74.0,-106.0,5.29
75.0,-80.0,5.291
75.0,-53.0,5.292
68.0,-46.0,5.293
54.0,-52.0,5.294
40.0,-49.0,5.295
29.0,-38.0,5.296
14.0,-31.0,5.297
-17.0,-35.0,5.298
-41.0,-31.0,5.299
-45.0,-19.0,5.3
-35.0,-14.0,5.301
-28.0,-16.0,5.302
-22.0,-13.0,5.303
-9.0,0.0,5.304
0.0,13.0,5.305
-4.0,14.0,5.306
-9.0,2.0,5.307
-7.0,-8.0,5.308
-13.0,-7.0,5.309
-35.0,-3.0,5.31
-56.0,0.0,5.311
-53.0,1.0,5.312
-35.0,7.0,5.313
-26.0,17.0,5.314
-25.0,20.0,5.315
-17.0,8.0,5.316
1.0,-8.0,5.317
19.0,-24.0,5.318
27.0,-29.0,5.319
21.0,-11.0,5.32
5.0,28.0,5.321
-3.0,78.0,5.322
3.0,109.0,5.323
16.0,112.0,5.324
13.0,98.0,5.325
-5.0,80.0,5.326
-16.0,59.0,5.327
-11.0,30.0,5.328
-1.0,1.0,5.329
8.0,-22.0,5.33
23.0,-48.0,5.331
39.0,-82.0,5.332
40.0,-115.0,5.333
20.0,-131.0,5.334
0.0,-115.0,5.335
-14.0,-72.0,5.336
-22.0,-28.0,5.337
-30.0,-7.0,5.338
-26.0,-1.0,5.339
-10.0,16.0,5.34
0.0,64.0,5.341
-2.0,103.0,5.342
-4.0,116.0,5.343
5.0,120.0,5.344
16.0,90.0,5.345
18.0,54.0,5.346
19.0,-3.0,5.347
22.0,-48.0,5.348
20.0,-56.0,5.349
11.0,-61.0,5.35
4.0,-54.0,5.351
8.0,-48.0,5.352
8.0,-45.0,5.353
-3.0,-43.0,5.354
-15.0,-49.0,5.355
-17.0,-47.0,5.356
-11.0,-17.0,5.357
-6.0,11.0,5.358
-3.0,28.0,5.359
-3.0,38.0,5.36
-4.0,55.0,5.361
-2.0,70.0,5.362
9.0,68.0,5.363
21.0,58.0,5.364
23.0,54.0,5.365
16.0,45.0,5.366
9.0,29.0,5.367
10.0,17.0,5.368
13.0,18.0,5.369
11.0,13.0,5.37
8.0,-7.0,5.371
5.0,-27.0,5.372
3.0,-36.0,5.373
-1.0,-37.0,5.374
-3.0,-31.0,5.375
-2.0,-18.0,5.376
0.0,-5.0,5.377
0.0,466.0,5.378
2.0,432.0,5.379
5.0,374.0,5.38
3.0,246.0,5.381
0.0,142.0,5.382
4.0,106.0,5.383
12.0,64.0,5.384
13.0,3.0,5.385
5.0,-67.0,5.386
1.0,-163.0,5.387
3.0,-227.0,5.388
4.0,-192.0,5.389
-3.0,-179.0,5.39
-13.0,-230.0,5.391
-19.0,-257.0,5.392
-22.0,-207.0,5.393
-25.0,-133.0,5.394
-25.0,11.0,5.395
-20.0,124.0,5.396
-11.0,140.0,5.397
-1.0,370.0,5.398
8.0,343.0,5.399
11.0,298.0,5.4
9.0,198.0,5.401
12.0,116.0,5.402
30.0,88.0,5.403
58.0,55.0,5.404
77.0,7.0,5.405
80.0,-48.0,5.406
68.0,-123.0,5.407
41.0,-173.0,5.408
5.0,-146.0,5.409
-24.0,-136.0,5.41
-31.0,-176.0,5.411
-22.0,-197.0,5.412
-13.0,-158.0,5.413
-12.0,-100.0,5.414
-10.0,13.0,5.415
-3.0,102.0,5.416
1.0,115.0,5.417
3.0,122.0,5.418
3.0,112.0,5.419
-1.0,94.0,5.42
-8.0,59.0,5.421
-14.0,24.0,5.422
-9.0,-7.0,5.423
0.0,-40.0,5.424
3.0,-82.0,5.425
0.0,-127.0,5.426
-2.0,-161.0,5.427
-6.0,-157.0,5.428
-7.0,-105.0,5.429
-2.0,-32.0,5.43
12.0,8.0,5.431
26.0,4.0,5.432
26.0,-11.0,5.433
11.0,-14.0,5.434
-2.0,-15.0,5.435
-8.0,-21.0,5.436
-11.0,-18.0,5.437
-17.0,7.0,5.438
-20.0,26.0,5.439
-17.0,22.0,5.44
-11.0,7.0,5.441
-6.0,5.0,5.442
-2.0,11.0,5.443
3.0,14.0,5.444
6.0,12.0,5.445
9.0,13.0,5.446
19.0,12.0,5.447
28.0,9.0,5.448
22.0,7.0,5.449
7.0,10.0,5.45
9.0,12.0,5.451
26.0,9.0,5.452
27.0,-4.0,5.453
-9.0,-21.0,5.454
-56.0,-22.0,5.455
-79.0,8.0,5.456
-76.0,44.0,5.457
-65.0,53.0,5.458
-47.0,27.0,5.459
-24.0,-4.0,5.46
6.0,-23.0,5.461
39.0,-30.0,5.462
65.0,-26.0,5.463
62.0,10.0,5.464
30.0,75.0,5.465
-3.0,114.0,5.466
-14.0,85.0,5.467
-22.0,22.0,5.468
-36.0,-7.0,5.469
-27.0,11.0,5.47
23.0,36.0,5.471
75.0,43.0,5.472
75.0,51.0,5.473
34.0,66.0,5.474
8.0,57.0,5.475
20.0,16.0,5.476
53.0,-18.0,5.477
81.0,-31.0,5.478
90.0,-33.0,5.479
75.0,-36.0,5.48
48.0,-22.0,5.481
18.0,22.0,5.482
-20.0,50.0,5.483
-67.0,13.0,5.484
-93.0,-63.0,5.485
-69.0,-113.0,5.486
-17.0,-112.0,5.487
16.0,-81.0,5.488
11.0,-43.0,5.489
-8.0,0.0,5.49
-29.0,42.0,5.491
-43.0,62.0,5.492
-34.0,41.0,5.493
-2.0,-9.0,5.494
15.0,-56.0,5.495
8.0,-76.0,5.496
12.0,-66.0,5.497
34.0,-40.0,5.498
35.0,-13.0,5.499
-3.0,4.0,5.5
-25.0,-9.0,5.501
-7.0,-21.0,5.502
6.0,-21.0,5.503
-18.0,-16.0,5.504
-35.0,4.0,5.505
-15.0,21.0,5.506
2.0,27.0,5.507
-5.0,38.0,5.508
5.0,62.0,5.509
55.0,73.0,5.51
88.0,42.0,5.511
63.0,15.0,5.512
19.0,3.0,5.513
-1.0,-17.0,5.514
-5.0,-61.0,5.515
-18.0,-91.0,5.516
-27.0,-79.0,5.517
-21.0,-59.0,5.518
-17.0,-23.0,5.519
-26.0,9.0,5.52
-32.0,68.0,5.521
-21.0,172.0,5.522
-4.0,248.0,5.523
13.0,200.0,5.524
35.0,32.0,5.525
55.0,-121.0,5.526
54.0,-150.0,5.527
28.0,-92.0,5.528
-13.0,-60.0,5.529
-73.0,-78.0,5.53
-129.0,-84.0,5.531
-130.0,-65.0,5.532
-68.0,-62.0,5.533
-9.0,-51.0,5.534
0.0,45.0,5.535
5.0,219.0,5.536
47.0,337.0,5.537
82.0,264.0,5.538
58.0,35.0,5.539
7.0,-214.0,5.54
0.0,-361.0,5.541
18.0,-355.0,5.542
7.0,-235.0,5.543
-27.0,-81.0,5.544
-38.0,50.0,5.545
-23.0,119.0,5.546
0.0,83.0,5.547
29.0,-44.0,5.548
49.0,-154.0,5.549
26.0,-141.0,5.55
-26.0,-30.0,5.551
-42.0,78.0,5.552
0.0,141.0,5.553
43.0,182.0,5.554
65.0,187.0,5.555
104.0,125.0,5.556
151.0,40.0,5.557
125.0,-9.0,5.558
7.0,-18.0,5.559
-83.0,-39.0,5.56
-58.0,-74.0,5.561
-9.0,-69.0,5.562
-66.0,-29.0,5.563
-179.0,-3.0,5.564
-188.0,5.0,5.565
-63.0,24.0,5.566
50.0,45.0,5.567
38.0,50.0,5.568
-46.0,60.0,5.569
-84.0,93.0,5.57
-41.0,113.0,5.571
24.0,85.0,5.572
44.0,47.0,5.573
9.0,52.0,5.574
-38.0,88.0,5.575
-48.0,106.0,5.576
-17.0,95.0,5.577
11.0,69.0,5.578
15.0,44.0,5.579
22.0,18.0,5.58
36.0,-7.0,5.581
51.0,-49.0,5.582
64.0,-133.0,5.583
75.0,-200.0,5.584
73.0,-212.0,5.585
65.0,-206.0,5.586
39.0,-147.0,5.587
3.0,-105.0,5.588
-62.0,-117.0,5.589
-108.0,-125.0,5.59
-89.0,-122.0,5.591
-66.0,-110.0,5.592
-35.0,-72.0,5.593
-3.0,-34.0,5.594
34.0,4.0,5.595
68.0,38.0,5.596
95.0,57.0,5.597
116.0,77.0,5.598
111.0,91.0,5.599
95.0,97.0,5.6
59.0,95.0,5.601
14.0,90.0,5.602
0.0,77.0,5.603
27.0,62.0,5.604
58.0,56.0,5.605
56.0,57.0,5.606
35.0,50.0,5.607
29.0,36.0,5.608
37.0,26.0,5.609
30.0,26.0,5.61
-8.0,31.0,5.611
-57.0,31.0,5.612
-82.0,25.0,5.613
-80.0,16.0,5.614
-69.0,4.0,5.615
-61.0,-6.0,5.616
-48.0,-11.0,5.617
-22.0,-10.0,5.618
1.0,-10.0,5.619
11.0,-14.0,5.62
18.0,-17.0,5.621
32.0,-8.0,5.622
35.0,4.0,5.623
9.0,10.0,5.624
-28.0,5.0,5.625
-48.0,-2.0,5.626
-45.0,-6.0,5.627
-33.0,-6.0,5.628
-16.0,-7.0,5.629
22.0,-13.0,5.63
73.0,-23.0,5.631
101.0,-26.0,5.632
74.0,-18.0,5.633
12.0,-5.0,5.634
-26.0,2.0,5.635
-15.0,0.0,5.636
8.0,-1.0,5.637
-20.0,-3.0,5.638
-88.0,-2.0,5.639
-122.0,-4.0,5.64
-83.0,-15.0,5.641
-21.0,-28.0,5.642
-1.0,-29.0,5.643
-1.0,-17.0,5.644
36.0,-6.0,5.645
107.0,-1.0,5.646
140.0,-2.0,5.647
95.0,1.0,5.648
23.0,7.0,5.649
-13.0,10.0,5.65
-9.0,7.0,5.651
-2.0,1.0,5.652
-10.0,-2.0,5.653
-24.0,-2.0,5.654
-29.0,-2.0,5.655
-20.0,-3.0,5.656
-11.0,-2.0,5.657
-14.0,-3.0,5.658
-21.0,-3.0,5.659
-17.0,-3.0,5.66
3.0,4.0,5.661
20.0,24.0,5.662
20.0,48.0,5.663
14.0,58.0,5.664
15.0,45.0,5.665
20.0,23.0,5.666
14.0,2.0,5.667
-1.0,-9.0,5.668
-13.0,-10.0,5.669
-20.0,6.0,5.67
-26.0,28.0,5.671
-26.0,30.0,5.672
-17.0,-3.0,5.673
-7.0,-45.0,5.674
-3.0,-70.0,5.675
-1.0,-84.0,5.676
12.0,-97.0,5.677
32.0,-113.0,5.678
46.0,-110.0,5.679
48.0,-88.0,5.68
45.0,-59.0,5.681
46.0,-25.0,5.682
46.0,10.0,5.683
40.0,38.0,5.684
28.0,47.0,5.685
13.0,43.0,5.686
1.0,40.0,5.687
-5.0,51.0,5.688
-6.0,76.0,5.689
-8.0,113.0,5.69
-12.0,150.0,5.691
-15.0,158.0,5.692
-11.0,117.0,5.693
-6.0,39.0,5.694
2.0,-38.0,5.695
28.0,-84.0,5.696
73.0,-96.0,5.697
114.0,-86.0,5.698
118.0,-69.0,5.699
82.0,-45.0,5.7
38.0,-5.0,5.701
0.0,54.0,5.702
-39.0,102.0,5.703
-85.0,110.0,5.704
-122.0,96.0,5.705
-144.0,84.0,5.706
-153.0,50.0,5.707
-151.0,-46.0,5.708
-135.0,-151.0,5.709
-114.0,-172.0,5.71
-95.0,-102.0,5.711
-62.0,-19.0,5.712
-11.0,27.0,5.713
27.0,88.0,5.714
32.0,183.0,5.715
18.0,245.0,5.716
18.0,199.0,5.717
30.0,40.0,5.718
37.0,-126.0,5.719
38.0,-190.0,5.72
43.0,-135.0,5.721
54.0,-48.0,5.722
58.0,-50.0,5.723
54.0,-155.0,5.724
47.0,-262.0,5.725
41.0,-283.0,5.726
39.0,-242.0,5.727
48.0,-206.0,5.728
62.0,-186.0,5.729
72.0,-149.0,5.73
76.0,-96.0,5.731
76.0,-52.0,5.732
81.0,-17.0,5.733
83.0,33.0,5.734
80.0,100.0,5.735
73.0,155.0,5.736
66.0,186.0,5.737
51.0,196.0,5.738
29.0,195.0,5.739
0.0,189.0,5.74
-32.0,195.0,5.741
-63.0,234.0,5.742
-85.0,304.0,5.743
-99.0,397.0,5.744
-115.0,475.0,5.745
-129.0,470.0,5.746
-125.0,326.0,5.747
-91.0,77.0,5.748
-38.0,-165.0,5.749
1.0,-317.0,5.75
15.0,-378.0,5.751
17.0,-378.0,5.752
23.0,-334.0,5.753
24.0,-275.0,5.754
7.0,-249.0,5.755
-19.0,-269.0,5.756
-30.0,-290.0,5.757
-34.0,-285.0,5.758
-41.0,-260.0,5.759
-47.0,-232.0,5.76
-28.0,-188.0,5.761
13.0,-121.0,5.762
50.0,-51.0,5.763
59.0,17.0,5.764
47.0,117.0,5.765
37.0,255.0,5.766
38.0,348.0,5.767
40.0,314.0,5.768
37.0,178.0,5.769
30.0,64.0,5.77
21.0,30.0,5.771
11.0,19.0,5.772
-1.0,-15.0,5.773
-7.0,-35.0,5.774
-5.0,-3.0,5.775
2.0,51.0,5.776
9.0,75.0,5.777
7.0,69.0,5.778
-9.0,61.0,5.779
-37.0,50.0,5.78
-58.0,25.0,5.781
-56.0,2.0,5.782
-29.0,-18.0,5.783
2.0,-54.0,5.784
24.0,-94.0,5.785
33.0,-103.0,5.786
36.0,-76.0,5.787
38.0,-37.0,5.788
37.0,4.0,5.789
35.0,57.0,5.79
26.0,110.0,5.791
6.0,150.0,5.792
-21.0,207.0,5.793
-40.0,302.0,5.794
-39.0,377.0,5.795
-31.0,347.0,5.796
-28.0,241.0,5.797
-31.0,160.0,5.798
-33.0,186.0,5.799
-34.0,243.0,5.8
-30.0,183.0,5.801
-13.0,-38.0,5.802
17.0,-330.0,5.803
44.0,-562.0,5.804
56.0,-674.0,5.805
67.0,-677.0,5.806
81.0,-616.0,5.807
81.0,-525.0,5.808
46.0,-420.0,5.809
-5.0,-299.0,5.81
-24.0,-167.0,5.811
0.0,-51.0,5.812
25.0,28.0,5.813
14.0,83.0,5.814
-18.0,154.0,5.815
-33.0,243.0,5.816
-27.0,311.0,5.817
-24.0,330.0,5.818
-25.0,310.0,5.819
-19.0,267.0,5.82
-1.0,213.0,5.821
9.0,184.0,5.822
4.0,217.0,5.823
2.0,301.0,5.824
10.0,365.0,5.825
11.0,383.0,5.826
0.0,402.0,5.827
-6.0,453.0,5.828
-3.0,470.0,5.829
4.0,357.0,5.83
10.0,126.0,5.831
21.0,-99.0,5.832
33.0,-218.0,5.833
36.0,-244.0,5.834
25.0,-278.0,5.835
19.0,-372.0,5.836
26.0,-465.0,5.837
34.0,-478.0,5.838
35.0,-402.0,5.839
34.0,-325.0,5.84
43.0,-323.0,5.841
56.0,-358.0,5.842
60.0,-358.0,5.843
56.0,-299.0,5.844
54.0,-198.0,5.845
48.0,-77.0,5.846
20.0,23.0,5.847
-27.0,46.0,5.848
-72.0,-25.0,5.849
-102.0,-126.0,5.85
-126.0,-185.0,5.851
-152.0,-190.0,5.852
-159.0,-159.0,5.853
-127.0,-91.0,5.854
-60.0,2.0,5.855
5.0,78.0,5.856
49.0,110.0,5.857
82.0,133.0,5.858
116.0,186.0,5.859
136.0,243.0,5.86
133.0,252.0,5.861
110.0,224.0,5.862
81.0,201.0,5.863
37.0,193.0,5.864
-33.0,185.0,5.865
-94.0,178.0,5.866
-97.0,173.0,5.867
-44.0,154.0,5.868
1.0,127.0,5.869
-3.0,144.0,5.87
-34.0,220.0,5.871
-48.0,287.0,5.872
-48.0,271.0,5.873
-47.0,198.0,5.874
-43.0,147.0,5.875
-20.0,131.0,5.876
2.0,97.0,5.877
0.0,5.0,5.878
-18.0,-98.0,5.879
-26.0,-159.0,5.88
-19.0,-183.0,5.881
-21.0,-203.0,5.882
-30.0,-242.0,5.883
-30.0,-282.0,5.884
-11.0,-283.0,5.885
16.0,-239.0,5.886
38.0,-190.0,5.887
41.0,-159.0,5.888
32.0,-98.0,5.889
20.0,34.0,5.89
18.0,170.0,5.891
17.0,193.0,5.892
8.0,103.0,5.893
5.0,15.0,5.894
27.0,-5.0,5.895
58.0,-12.0,5.896
70.0,-57.0,5.897
57.0,-125.0,5.898
53.0,-167.0,5.899
67.0,-189.0,5.9
77.0,-222.0,5.901
54.0,-265.0,5.902
12.0,-318.0,5.903
-30.0,-366.0,5.904
-68.0,-340.0,5.905
-97.0,-165.0,5.906
-104.0,134.0,5.907
-88.0,432.0,5.908
-68.0,619.0,5.909
-58.0,677.0,5.91
-50.0,641.0,5.911
-34.0,553.0,5.912
-12.0,447.0,5.913
14.0,346.0,5.914
49.0,228.0,5.915
85.0,77.0,5.916
108.0,-58.0,5.917
113.0,-143.0,5.918
109.0,-190.0,5.919
91.0,-262.0,5.92
55.0,-340.0,5.921
17.0,-305.0,5.922
7.0,-118.0,5.923
23.0,91.0,5.924
30.0,178.0,5.925
18.0,134.0,5.926
15.0,50.0,5.927
36.0,-13.0,5.928
68.0,-63.0,5.929
86.0,-131.0,5.93
77.0,-253.0,5.931
40.0,-455.0,5.932
-21.0,-689.0,5.933
-80.0,-819.0,5.934
-111.0,-736.0,5.935
-120.0,-477.0,5.936
-127.0,-211.0,5.937
-138.0,-24.0,5.938
-131.0,86.0,5.939
-110.0,185.0,5.94
-104.0,294.0,5.941
-119.0,352.0,5.942
-106.0,290.0,5.943
-29.0,162.0,5.944
72.0,114.0,5.945
121.0,231.0,5.946
103.0,423.0,5.947
66.0,532.0,5.948
53.0,496.0,5.949
51.0,367.0,5.95
33.0,193.0,5.951
5.0,-2.0,5.952
-7.0,-154.0,5.953
1.0,-180.0,5.954
-2.0,-123.0,5.955
-35.0,-153.0,5.956
-70.0,-332.0,5.957
-75.0,-531.0,5.958
-55.0,-528.0,5.959
-42.0,-315.0,5.96
-46.0,-79.0,5.961
-42.0,100.0,5.962
-16.0,295.0,5.963
18.0,504.0,5.964
39.0,591.0,5.965
49.0,508.0,5.966
56.0,371.0,5.967
64.0,252.0,5.968
64.0,103.0,5.969
52.0,-74.0,5.97
33.0,-173.0,5.971
21.0,-154.0,5.972
29.0,-75.0,5.973
50.0,25.0,5.974
58.0,108.0,5.975
40.0,87.0,5.976
23.0,-23.0,5.977
30.0,-64.0,5.978
54.0,84.0,5.979
57.0,247.0,5.98
42.0,205.0,5.981
42.0,53.0,5.982
66.0,15.0,5.983
76.0,14.0,5.984
52.0,-289.0,5.985
21.0,-1021.0,5.986
6.0,-1820.0,5.987
-15.0,-2071.0,5.988
-54.0,-1448.0,5.989
-87.0,-267.0,5.99
-93.0,771.0,5.991
-93.0,1285.0,5.992
-99.0,1491.0,5.993
-86.0,1662.0,5.994
-39.0,1648.0,5.995
17.0,1219.0,5.996
58.0,604.0,5.997
92.0,102.0,5.998
117.0,-190.0,5.999
112.0,-443.0,6.0
76.0,-681.0,6.001
44.0,-717.0,6.002
31.0,-507.0,6.003
20.0,-222.0,6.004
-4.0,-25.0,6.005
-19.0,42.0,6.006
-17.0,13.0,6.007
-29.0,-37.0,6.008
-62.0,-90.0,6.009
-80.0,-267.0,6.01
-66.0,-634.0,6.011
-50.0,-928.0,6.012
-50.0,-787.0,6.013
-50.0,-284.0,6.014
-37.0,126.0,6.015
-25.0,269.0,6.016
-19.0,416.0,6.017
4.0,744.0,6.018
49.0,943.0,6.019
90.0,730.0,6.02
103.0,333.0,6.021
97.0,112.0,6.022
76.0,0.0,6.023
40.0,-238.0,6.024
-3.0,-472.0,6.025
-35.0,-402.0,6.026
-54.0,-90.0,6.027
-81.0,118.0,6.028
-118.0,93.0,6.029
-131.0,-3.0,6.03
-99.0,-63.0,6.031
-46.0,-142.0,6.032
-10.0,-266.0,6.033
3.0,-370.0,6.034
14.0,-393.0,6.035
27.0,-305.0,6.036
34.0,-106.0,6.037
29.0,166.0,6.038
25.0,368.0,6.039
26.0,438.0,6.04
34.0,444.0,6.041
51.0,441.0,6.042
82.0,359.0,6.043
103.0,159.0,6.044
86.0,-61.0,6.045
36.0,-188.0,6.046
-2.0,-213.0,6.047
-9.0,-186.0,6.048
-12.0,-161.0,6.049
-43.0,-211.0,6.05
-86.0,-405.0,6.051
-107.0,-658.0,6.052
-92.0,-739.0,6.053
-61.0,-502.0,6.054
-29.0,-85.0,6.055
-8.0,253.0,6.056
-4.0,434.0,6.057
-17.0,580.0,6.058
-14.0,733.0,6.059
19.0,762.0,6.06
59.0,560.0,6.061
71.0,250.0,6.062
54.0,8.0,6.063
34.0,-140.0,6.064
18.0,-292.0,6.065
-9.0,-490.0,6.066
-50.0,-673.0,6.067
-93.0,-762.0,6.068
-114.0,-716.0,6.069
-88.0,-566.0,6.07
-10.0,-392.0,6.071
83.0,-204.0,6.072
142.0,86.0,6.073
146.0,503.0,6.074
121.0,890.0,6.075
105.0,1052.0,6.076
94.0,1000.0,6.077
49.0,846.0,6.078
-24.0,664.0,6.079
-82.0,478.0,6.08
-88.0,276.0,6.081
-80.0,95.0,6.082
-25.0,-26.0,6.083
9.0,-139.0,6.084
-24.0,-227.0,6.085
-47.0,-295.0,6.086
-37.0,-304.0,6.087
-24.0,-327.0,6.088
0.0,-394.0,6.089
11.0,-431.0,6.09
-22.0,-377.0,6.091
-40.0,-316.0,6.092
-10.0,-234.0,6.093
14.0,-154.0,6.094
23.0,-78.0,6.095
27.0,-4.0,6.096
9.0,60.0,6.097
-3.0,105.0,6.098
8.0,23.0,6.099
29.0,-213.0,6.1
26.0,-563.0,6.101
-14.0,-875.0,6.102
-56.0,-955.0,6.103
-57.0,-708.0,6.104
-27.0,-273.0,6.105
-10.0,85.0,6.106
-16.0,239.0,6.107
-9.0,327.0,6.108
28.0,523.0,6.109
76.0,773.0,6.11
109.0,872.0,6.111
121.0,781.0,6.112
116.0,699.0,6.113
92.0,771.0,6.114
64.0,875.0,6.115
58.0,796.0,6.116
61.0,541.0,6.117
27.0,257.0,6.118
-36.0,100.0,6.119
-68.0,30.0,6.12
-4.0,-83.0,6.121
56.0,-243.0,6.122
103.0,-364.0,6.123
109.0,-407.0,6.124
-12.0,-418.0,6.125
-107.0,-437.0,6.126
-126.0,-486.0,6.127
-136.0,-640.0,6.128
-117.0,-982.0,6.129
-104.0,-1366.0,6.13
-111.0,-1420.0,6.131
-102.0,-936.0,6.132
-42.0,-164.0,6.133
4.0,475.0,6.134
6.0,881.0,6.135
21.0,1224.0,6.136
77.0,1493.0,6.137
135.0,1353.0,6.138
173.0,759.0,6.139
162.0,243.0,6.14
139.0,-40.0,6.141
121.0,-237.0,6.142
109.0,-174.0,6.143
99.0,-131.0,6.144
87.0,-153.0,6.145
57.0,-156.0,6.146
-5.0,-101.0,6.147
-107.0,-67.0,6.148
-227.0,-97.0,6.149
-285.0,-120.0,6.15
-216.0,-116.0,6.151
-78.0,-125.0,6.152
-5.0,-176.0,6.153
-26.0,-207.0,6.154
-42.0,-175.0,6.155
2.0,-150.0,6.156
38.0,-147.0,6.157
9.0,-133.0,6.158
-21.0,-86.0,6.159
-8.0,-71.0,6.16
8.0,-90.0,6.161
-2.0,-102.0,6.162
-6.0,-105.0,6.163
2.0,-109.0,6.164
-11.0,-91.0,6.165
-34.0,-29.0,6.166
-16.0,54.0,6.167
40.0,125.0,6.168
77.0,170.0,6.169
82.0,185.0,6.17
82.0,161.0,6.171
65.0,113.0,6.172
20.0,79.0,6.173
2.0,57.0,6.174
65.0,21.0,6.175
166.0,-21.0,6.176
214.0,-26.0,6.177
175.0,16.0,6.178
72.0,9.0,6.179
-76.0,-1.0,6.18
-220.0,-17.0,6.181
-273.0,-31.0,6.182
-205.0,-39.0,6.183
-126.0,-40.0,6.184
-137.0,-18.0,6.185
-188.0,8.0,6.186
-162.0,41.0,6.187
-55.0,71.0,6.188
45.0,88.0,6.189
111.0,102.0,6.19
193.0,104.0,6.191
277.0,100.0,6.192
272.0,75.0,6.193
160.0,56.0,6.194
46.0,49.0,6.195
9.0,44.0,6.196
9.0,43.0,6.197
-15.0,-35.0,6.198
-42.0,-63.0,6.199
-32.0,-101.0,6.2
-17.0,-164.0,6.201
-47.0,-220.0,6.202
-93.0,-252.0,6.203
-99.0,-254.0,6.204
-80.0,-167.0,6.205
-91.0,-68.0,6.206
-114.0,66.0,6.207
-89.0,185.0,6.208
2.0,252.0,6.209
109.0,305.0,6.21
170.0,313.0,6.211
174.0,295.0,6.212
149.0,201.0,6.213
135.0,124.0,6.214
121.0,99.0,6.215
58.0,78.0,6.216
-44.0,75.0,6.217
-125.0,-97.0,6.218
-117.0,-151.0,6.219
-67.0,-223.0,6.22
-54.0,-343.0,6.221
-73.0,-449.0,6.222
-63.0,-509.0,6.223
-24.0,-513.0,6.224
-11.0,-347.0,6.225
-31.0,-159.0,6.226
-29.0,97.0,6.227
1.0,322.0,6.228
18.0,450.0,6.229
15.0,550.0,6.23
27.0,565.0,6.231
61.0,532.0,6.232
75.0,353.0,6.233
56.0,207.0,6.234
35.0,159.0,6.235
29.0,120.0,6.236
25.0,114.0,6.237
12.0,96.0,6.238
1.0,43.0,6.239
-2.0,-4.0,6.24
-9.0,-58.0,6.241
-14.0,-124.0,6.242
-3.0,-179.0,6.243
17.0,-196.0,6.244
18.0,-177.0,6.245
-2.0,-164.0,6.246
-16.0,-171.0,6.247
-14.0,-173.0,6.248
-6.0,-150.0,6.249
-5.0,-122.0,6.25
-10.0,-105.0,6.251
-16.0,-91.0,6.252
-17.0,-71.0,6.253
-11.0,-63.0,6.254
-1.0,-72.0,6.255
1.0,-73.0,6.256
-2.0,-51.0,6.257
-5.0,-30.0,6.258
-4.0,-21.0,6.259
-3.0,-24.0,6.26
-2.0,-18.0,6.261
9.0,-2.0,6.262
34.0,5.0,6.263
50.0,4.0,6.264
33.0,7.0,6.265
-6.0,10.0,6.266
-35.0,2.0,6.267
-35.0,-9.0,6.268
-8.0,-13.0,6.269
18.0,-7.0,6.27
27.0,-3.0,6.271
18.0,-1.0,6.272
0.0,12.0,6.273
-16.0,35.0,6.274
-34.0,53.0,6.275
-62.0,55.0,6.276
-85.0,40.0,6.277
-75.0,20.0,6.278
-34.0,15.0,6.279
0.0,24.0,6.28
10.0,26.0,6.281
11.0,19.0,6.282
19.0,11.0,6.283
28.0,13.0,6.284
30.0,16.0,6.285
29.0,13.0,6.286
33.0,8.0,6.287
39.0,7.0,6.288
37.0,7.0,6.289
32.0,5.0,6.29
26.0,5.0,6.291
21.0,7.0,6.292
15.0,6.0,6.293
12.0,-2.0,6.294
12.0,-19.0,6.295
7.0,-54.0,6.296
1.0,-98.0,6.297
0.0,-127.0,6.298
9.0,-92.0,6.299
11.0,9.0,6.3
3.0,112.0,6.301
-4.0,153.0,6.302
-1.0,137.0,6.303
7.0,114.0,6.304
8.0,100.0,6.305
2.0,67.0,6.306
-3.0,10.0,6.307
-5.0,-41.0,6.308
-8.0,-77.0,6.309
-11.0,-111.0,6.31
-8.0,-121.0,6.311
-3.0,-70.0,6.312
2.0,22.0,6.313
2.0,83.0,6.314
3.0,82.0,6.315
6.0,63.0,6.316
5.0,62.0,6.317
1.0,53.0,6.318
2.0,22.0,6.319
5.0,-6.0,6.32
8.0,-24.0,6.321
8.0,-45.0,6.322
12.0,-73.0,6.323
18.0,-93.0,6.324
16.0,-85.0,6.325
6.0,-72.0,6.326
2.0,-49.0,6.327
5.0,-27.0,6.328
7.0,-5.0,6.329
2.0,10.0,6.33
0.0,6.0,6.331
5.0,5.0,6.332
7.0,15.0,6.333
3.0,20.0,6.334
2.0,10.0,6.335
8.0,2.0,6.336
13.0,-1.0,6.337
9.0,-5.0,6.338
2.0,-10.0,6.339
-3.0,-1.0,6.34
-7.0,23.0,6.341
-13.0,46.0,6.342
-12.0,53.0,6.343
-2.0,49.0,6.344
2.0,42.0,6.345
-2.0,30.0,6.346
-2.0,15.0,6.347
7.0,7.0,6.348
19.0,8.0,6.349
19.0,8.0,6.35
15.0,5.0,6.351
7.0,3.0,6.352
-4.0,2.0,6.353
-19.0,0.0,6.354
-25.0,-1.0,6.355
-20.0,2.0,6.356
-12.0,6.0,6.357
-11.0,3.0,6.358
-11.0,4.0,6.359
-9.0,13.0,6.36
-2.0,25.0,6.361
6.0,32.0,6.362
16.0,33.0,6.363
22.0,37.0,6.364
21.0,34.0,6.365
17.0,18.0,6.366
16.0,-5.0,6.367
24.0,-18.0,6.368
30.0,-21.0,6.369
25.0,-29.0,6.37
11.0,-53.0,6.371
-5.0,-88.0,6.372
-20.0,-115.0,6.373
-26.0,-121.0,6.374
-14.0,-108.0,6.375
12.0,-86.0,6.376
30.0,-67.0,6.377
22.0,-46.0,6.378
5.0,-13.0,6.379
-6.0,22.0,6.38
0.0,64.0,6.381
5.0,97.0,6.382
0.0,103.0,6.383
-5.0,105.0,6.384
-6.0,92.0,6.385
-8.0,78.0,6.386
-13.0,61.0,6.387
-16.0,40.0,6.388
-6.0,10.0,6.389
1.0,-30.0,6.39
5.0,-102.0,6.391
8.0,-177.0,6.392
8.0,-262.0,6.393
5.0,-321.0,6.394
-1.0,-303.0,6.395
-5.0,-245.0,6.396
0.0,-65.0,6.397
9.0,109.0,6.398
15.0,210.0,6.399
10.0,229.0,6.4
2.0,226.0,6.401
-1.0,237.0,6.402
8.0,251.0,6.403
21.0,249.0,6.404
25.0,233.0,6.405
19.0,207.0,6.406
18.0,155.0,6.407
36.0,75.0,6.408
53.0,-8.0,6.409
46.0,-70.0,6.41
12.0,-116.0,6.411
-23.0,-161.0,6.412
-42.0,-199.0,6.413
-42.0,-196.0,6.414
-31.0,-148.0,6.415
-12.0,-88.0,6.416
0.0,-54.0,6.417
0.0,-43.0,6.418
-1.0,-30.0,6.419
3.0,-10.0,6.42
14.0,-3.0,6.421
18.0,-6.0,6.422
11.0,-4.0,6.423
1.0,11.0,6.424
-5.0,23.0,6.425
-11.0,20.0,6.426
-13.0,9.0,6.427
-7.0,-3.0,6.428
0.0,-18.0,6.429
-1.0,-35.0,6.43
-11.0,-37.0,6.431
-21.0,-16.0,6.432
-29.0,13.0,6.433
-35.0,31.0,6.434
-37.0,32.0,6.435
-33.0,35.0,6.436
-22.0,50.0,6.437
-8.0,68.0,6.438
5.0,76.0,6.439
10.0,69.0,6.44
9.0,49.0,6.441
12.0,33.0,6.442
25.0,21.0,6.443
41.0,17.0,6.444
41.0,16.0,6.445
28.0,11.0,6.446
21.0,-6.0,6.447
32.0,-29.0,6.448
43.0,-39.0,6.449
38.0,-26.0,6.45
23.0,-3.0,6.451
11.0,0.0,6.452
9.0,-25.0,6.453
4.0,-51.0,6.454
-6.0,-48.0,6.455
-17.0,-20.0,6.456
-22.0,6.0,6.457
-26.0,14.0,6.458
-26.0,12.0,6.459
-22.0,9.0,6.46
-14.0,3.0,6.461
-6.0,7.0,6.462
0.0,42.0,6.463
9.0,72.0,6.464
19.0,87.0,6.465
22.0,75.0,6.466
21.0,-22.0,6.467
18.0,-91.0,6.468
17.0,-72.0,6.469
16.0,-49.0,6.47
10.0,-14.0,6.471
1.0,16.0,6.472
-6.0,29.0,6.473
-8.0,40.0,6.474
-8.0,43.0,6.475
-10.0,39.0,6.476
-11.0,12.0,6.477
-8.0,-11.0,6.478
0.0,-31.0,6.479
9.0,-62.0,6.48
17.0,-98.0,6.481
19.0,-118.0,6.482
20.0,-107.0,6.483
11.0,-65.0,6.484
-5.0,-22.0,6.485
-18.0,-13.0,6.486
-17.0,-37.0,6.487
-3.0,-60.0,6.488
5.0,-66.0,6.489
1.0,-66.0,6.49
-4.0,-69.0,6.491
-5.0,-47.0,6.492
-3.0,11.0,6.493
-4.0,68.0,6.494
-1.0,81.0,6.495
6.0,47.0,6.496
15.0,13.0,6.497
19.0,6.0,6.498
24.0,27.0,6.499
27.0,54.0,6.5
21.0,64.0,6.501
6.0,54.0,6.502
0.0,33.0,6.503
10.0,18.0,6.504
18.0,34.0,6.505
4.0,76.0,6.506
-24.0,109.0,6.507
-41.0,92.0,6.508
-38.0,29.0,6.509
-32.0,-30.0,6.51
-42.0,-39.0,6.511
-64.0,4.0,6.512
-71.0,58.0,6.513
-44.0,65.0,6.514
7.0,6.0,6.515
43.0,-72.0,6.516
49.0,-105.0,6.517
39.0,-71.0,6.518
37.0,-2.0,6.519
39.0,56.0,6.52
36.0,80.0,6.521
34.0,68.0,6.522
41.0,18.0,6.523
45.0,-47.0,6.524
29.0,-84.0,6.525
6.0,-64.0,6.526
0.0,-5.0,6.527
-1.0,56.0,6.528
-26.0,98.0,6.529
-76.0,120.0,6.53
-106.0,98.0,6.531
-86.0,0.0,6.532
-36.0,-155.0,6.533
3.0,-272.0,6.534
16.0,-273.0,6.535
21.0,-187.0,6.536
35.0,-103.0,6.537
54.0,-45.0,6.538
51.0,21.0,6.539
13.0,111.0,6.54
-23.0,188.0,6.541
-18.0,223.0,6.542
29.0,228.0,6.543
63.0,223.0,6.544
45.0,198.0,6.545
-2.0,123.0,6.546
-24.0,-3.0,6.547
1.0,-130.0,6.548
40.0,-197.0,6.549
51.0,-195.0,6.55
37.0,-170.0,6.551
26.0,-160.0,6.552
32.0,-149.0,6.553
29.0,-123.0,6.554
-4.0,-74.0,6.555
-54.0,31.0,6.556
-82.0,204.0,6.557
-81.0,368.0,6.558
-66.0,355.0,6.559
-52.0,143.0,6.56
-37.0,-74.0,6.561
-19.0,-129.0,6.562
-11.0,-97.0,6.563
-20.0,-118.0,6.564
-35.0,-174.0,6.565
-40.0,-153.0,6.566
-30.0,-70.0,6.567
0.0,-28.0,6.568
54.0,-41.0,6.569
109.0,-33.0,6.57
126.0,21.0,6.571
94.0,61.0,6.572
55.0,28.0,6.573
52.0,-69.0,6.574
64.0,-170.0,6.575
42.0,-205.0,6.576
-9.0,-161.0,6.577
-47.0,-84.0,6.578
-43.0,-53.0,6.579
-30.0,-74.0,6.58
-42.0,-79.0,6.581
-58.0,-12.0,6.582
-48.0,102.0,6.583
-26.0,217.0,6.584
-21.0,305.0,6.585
-37.0,337.0,6.586
-42.0,276.0,6.587
-20.0,127.0,6.588
11.0,-26.0,6.589
29.0,-117.0,6.59
29.0,-150.0,6.591
29.0,-166.0,6.592
47.0,-153.0,6.593
76.0,-69.0,6.594
83.0,82.0,6.595
54.0,220.0,6.596
13.0,259.0,6.597
-12.0,169.0,6.598
-14.0,14.0,6.599
-14.0,-95.0,6.6
-22.0,-108.0,6.601
-32.0,-59.0,6.602
-27.0,-3.0,6.603
-10.0,77.0,6.604
2.0,201.0,6.605
-2.0,300.0,6.606
-16.0,271.0,6.607
-19.0,114.0,6.608
-4.0,-72.0,6.609
15.0,-218.0,6.61
27.0,-322.0,6.611
42.0,-382.0,6.612
64.0,-372.0,6.613
72.0,-297.0,6.614
47.0,-203.0,6.615
1.0,-107.0,6.616
-31.0,-5.0,6.617
-44.0,91.0,6.618
-47.0,133.0,6.619
-53.0,116.0,6.62
-52.0,95.0,6.621
-26.0,99.0,6.622
18.0,106.0,6.623
50.0,99.0,6.624
52.0,111.0,6.625
36.0,152.0,6.626
21.0,186.0,6.627
9.0,203.0,6.628
-12.0,238.0,6.629
-31.0,277.0,6.63
-34.0,251.0,6.631
-20.0,139.0,6.632
-7.0,1.0,6.633
-4.0,-124.0,6.634
7.0,-265.0,6.635
42.0,-396.0,6.636
76.0,-421.0,6.637
76.0,-298.0,6.638
41.0,-143.0,6.639
-3.0,-85.0,6.64
-39.0,-95.0,6.641
-70.0,-54.0,6.642
-90.0,37.0,6.643
-81.0,77.0,6.644
-49.0,36.0,6.645
-19.0,-9.0,6.646
3.0,-9.0,6.647
26.0,-3.0,6.648
38.0,-21.0,6.649
17.0,-19.0,6.65
-7.0,38.0,6.651
7.0,98.0,6.652
41.0,92.0,6.653
29.0,39.0,6.654
-23.0,-2.0,6.655
-37.0,-13.0,6.656
2.0,-11.0,6.657
35.0,10.0,6.658
25.0,49.0,6.659
11.0,67.0,6.66
27.0,24.0,6.661
41.0,-45.0,6.662
31.0,-90.0,6.663
18.0,-108.0,6.664
22.0,-118.0,6.665
21.0,-119.0,6.666
9.0,-104.0,6.667
8.0,-91.0,6.668
26.0,-93.0,6.669
34.0,-83.0,6.67
21.0,-45.0,6.671
9.0,0.0,6.672
7.0,38.0,6.673
-3.0,95.0,6.674
-18.0,191.0,6.675
-20.0,278.0,6.676
-6.0,303.0,6.677
-1.0,273.0,6.678
-7.0,243.0,6.679
-12.0,243.0,6.68
-8.0,235.0,6.681
-2.0,164.0,6.682
1.0,22.0,6.683
2.0,-113.0,6.684
-5.0,-155.0,6.685
-23.0,-110.0,6.686
-34.0,-84.0,6.687
-28.0,-132.0,6.688
-16.0,-197.0,6.689
-12.0,-212.0,6.69
-11.0,-212.0,6.691
2.0,-236.0,6.692
25.0,-234.0,6.693
39.0,-136.0,6.694
40.0,22.0,6.695
41.0,134.0,6.696
45.0,169.0,6.697
40.0,167.0,6.698
27.0,155.0,6.699
5.0,112.0,6.7
-14.0,38.0,6.701
-18.0,-9.0,6.702
-9.0,9.0,6.703
0.0,79.0,6.704
3.0,147.0,6.705
-2.0,154.0,6.706
-15.0,74.0,6.707
-26.0,-56.0,6.708
-31.0,-170.0,6.709
-24.0,-231.0,6.71
-12.0,-247.0,6.711
-4.0,-217.0,6.712
1.0,-121.0,6.713
9.0,19.0,6.714
13.0,125.0,6.715
11.0,140.0,6.716
11.0,98.0,6.717
-27.0,43.0,6.718
-27.0,-7.0,6.719
-24.0,-52.0,6.72
-18.0,-75.0,6.721
-9.0,-55.0,6.722
8.0,-26.0,6.723
20.0,-25.0,6.724
16.0,-30.0,6.725
13.0,0.0,6.726
10.0,51.0,6.727
6.0,60.0,6.728
2.0,11.0,6.729
3.0,-49.0,6.73
20.0,-88.0,6.731
36.0,-111.0,6.732
38.0,-134.0,6.733
44.0,-145.0,6.734
49.0,-124.0,6.735
53.0,-81.0,6.736
54.0,-43.0,6.737
-18.0,-22.0,6.738
-18.0,-1.0,6.739
-16.0,29.0,6.74
-11.0,85.0,6.741
-4.0,137.0,6.742
9.0,179.0,6.743
19.0,206.0,6.744
16.0,188.0,6.745
13.0,172.0,6.746
10.0,162.0,6.747
7.0,154.0,6.748
4.0,149.0,6.749
5.0,132.0,6.75
19.0,78.0,6.751
31.0,20.0,6.752
33.0,-52.0,6.753
37.0,-101.0,6.754
41.0,-76.0,6.755
44.0,-55.0,6.756
45.0,-46.0,6.757
46.0,-40.0,6.758
46.0,-47.0,6.759
45.0,-58.0,6.76
43.0,-69.0,6.761
37.0,-44.0,6.762
25.0,40.0,6.763
12.0,148.0,6.764
-9.0,209.0,6.765
-32.0,175.0,6.766
-53.0,63.0,6.767
-65.0,-71.0,6.768
-72.0,-176.0,6.769
-69.0,-227.0,6.77
-50.0,-217.0,6.771
-22.0,-127.0,6.772
-3.0,36.0,6.773
-3.0,184.0,6.774
-8.0,186.0,6.775
-6.0,31.0,6.776
1.0,-133.0,6.777
4.0,-200.0,6.778
11.0,-177.0,6.779
22.0,-127.0,6.78
31.0,-31.0,6.781
31.0,158.0,6.782
23.0,349.0,6.783
16.0,364.0,6.784
5.0,172.0,6.785
-4.0,-71.0,6.786
-3.0,-217.0,6.787
8.0,-272.0,6.788
15.0,-302.0,6.789
13.0,-318.0,6.79
12.0,-277.0,6.791
21.0,-181.0,6.792
24.0,-94.0,6.793
10.0,-68.0,6.794
-9.0,-92.0,6.795
-16.0,-129.0,6.796
-14.0,-156.0,6.797
-14.0,-178.0,6.798
-14.0,-189.0,6.799
-5.0,-196.0,6.8
9.0,-212.0,6.801
15.0,-215.0,6.802
7.0,-165.0,6.803
1.0,-45.0,6.804
7.0,109.0,6.805
22.0,250.0,6.806
37.0,361.0,6.807
49.0,436.0,6.808
55.0,437.0,6.809
54.0,363.0,6.81
48.0,282.0,6.811
37.0,261.0,6.812
20.0,278.0,6.813
4.0,273.0,6.814
-8.0,246.0,6.815
-15.0,236.0,6.816
-21.0,243.0,6.817
-29.0,231.0,6.818
-40.0,194.0,6.819
-54.0,158.0,6.82
-64.0,122.0,6.821
-60.0,70.0,6.822
-40.0,12.0,6.823
-19.0,-20.0,6.824
-18.0,-27.0,6.825
-25.0,-25.0,6.826
-22.0,-3.0,6.827
4.0,27.0,6.828
38.0,-2.0,6.829
59.0,-125.0,6.83
62.0,-252.0,6.831
54.0,-268.0,6.832
36.0,-195.0,6.833
15.0,-164.0,6.834
7.0,-229.0,6.835
19.0,-315.0,6.836
36.0,-338.0,6.837
36.0,-312.0,6.838
14.0,-282.0,6.839
-16.0,-252.0,6.84
-35.0,-222.0,6.841
-42.0,-157.0,6.842
-37.0,9.0,6.843
-28.0,166.0,6.844
-27.0,290.0,6.845
-30.0,344.0,6.846
-19.0,190.0,6.847
8.0,57.0,6.848
28.0,-16.0,6.849
26.0,-106.0,6.85
19.0,-249.0,6.851
30.0,-357.0,6.852
47.0,-357.0,6.853
41.0,-354.0,6.854
10.0,-340.0,6.855
-22.0,-298.0,6.856
-31.0,-176.0,6.857
-24.0,-19.0,6.858
-6.0,214.0,6.859
6.0,325.0,6.86
2.0,360.0,6.861
-1.0,412.0,6.862
0.0,452.0,6.863
5.0,427.0,6.864
18.0,357.0,6.865
24.0,289.0,6.866
8.0,219.0,6.867
-4.0,115.0,6.868
-6.0,-17.0,6.869
-11.0,-161.0,6.87
-19.0,-294.0,6.871
-26.0,-365.0,6.872
-27.0,-344.0,6.873
-28.0,-281.0,6.874
-30.0,-253.0,6.875
-26.0,-256.0,6.876
-4.0,-236.0,6.877
13.0,-189.0,6.878
6.0,-140.0,6.879
-20.0,-63.0,6.88
-30.0,63.0,6.881
-22.0,166.0,6.882
-10.0,159.0,6.883
-5.0,99.0,6.884
-1.0,122.0,6.885
9.0,240.0,6.886
26.0,339.0,6.887
46.0,345.0,6.888
68.0,299.0,6.889
83.0,259.0,6.89
84.0,233.0,6.891
75.0,196.0,6.892
65.0,112.0,6.893
54.0,-25.0,6.894
40.0,-147.0,6.895
23.0,-148.0,6.896
15.0,-21.0,6.897
13.0,134.0,6.898
9.0,183.0,6.899
-2.0,69.0,6.9
-23.0,-132.0,6.901
-52.0,-279.0,6.902
-87.0,-266.0,6.903
-117.0,-118.0,6.904
-122.0,45.0,6.905
-85.0,132.0,6.906
-26.0,154.0,6.907
24.0,151.0,6.908
58.0,146.0,6.909
89.0,161.0,6.91
108.0,192.0,6.911
111.0,156.0,6.912
122.0,-21.0,6.913
165.0,-241.0,6.914
194.0,-247.0,6.915
142.0,85.0,6.916
33.0,516.0,6.917
-66.0,664.0,6.918
-135.0,285.0,6.919
-227.0,-397.0,6.92
-318.0,-866.0,6.921
-312.0,-847.0,6.922
-213.0,-546.0,6.923
-164.0,-295.0,6.924
-199.0,-150.0,6.925
-176.0,3.0,6.926
-31.0,156.0,6.927
91.0,207.0,6.928
92.0,192.0,6.929
105.0,221.0,6.93
241.0,257.0,6.931
370.0,186.0,6.932
328.0,46.0,6.933
184.0,-23.0,6.934
106.0,-15.0,6.935
75.0,-31.0,6.936
-11.0,-79.0,6.937
-142.0,-97.0,6.938
-175.0,-77.0,6.939
-87.0,-78.0,6.94
-6.0,-114.0,6.941
1.0,-132.0,6.942
-6.0,-130.0,6.943
15.0,-128.0,6.944
27.0,-106.0,6.945
3.0,-35.0,6.946
-19.0,50.0,6.947
-12.0,92.0,6.948
7.0,95.0,6.949
8.0,90.0,6.95
-1.0,63.0,6.951
-5.0,-16.0,6.952
-5.0,-136.0,6.953
-10.0,-234.0,6.954
-19.0,-255.0,6.955
-26.0,-202.0,6.956
-32.0,-146.0,6.957
-36.0,-169.0,6.958
-38.0,-230.0,6.959
-41.0,-235.0,6.96
-42.0,-72.0,6.961
-36.0,69.0,6.962
-23.0,149.0,6.963
-11.0,240.0,6.964
-5.0,365.0,6.965
0.0,468.0,6.966
3.0,506.0,6.967
-2.0,498.0,6.968
-6.0,350.0,6.969
18.0,240.0,6.97
73.0,250.0,6.971
128.0,262.0,6.972
144.0,275.0,6.973
131.0,285.0,6.974
132.0,286.0,6.975
160.0,287.0,6.976
178.0,281.0,6.977
136.0,276.0,6.978
42.0,245.0,6.979
-43.0,153.0,6.98
-78.0,36.0,6.981
-94.0,-67.0,6.982
-140.0,-196.0,6.983
-201.0,-374.0,6.984
-222.0,-553.0,6.985
-191.0,-671.0,6.986
-151.0,-706.0,6.987
-129.0,-633.0,6.988
-93.0,-442.0,6.989
-12.0,-212.0,6.99
78.0,-83.0,6.991
126.0,-84.0,6.992
121.0,-88.0,6.993
92.0,-20.0,6.994
54.0,8.0,6.995
0.0,-124.0,6.996
-49.0,-321.0,6.997
-63.0,-397.0,6.998
-40.0,-285.0,6.999
-19.0,-130.0,7.0
-25.0,-93.0,7.001
-39.0,-177.0,7.002
-36.0,-328.0,7.003
-26.0,-508.0,7.004
-29.0,-645.0,7.005
-36.0,-603.0,7.006
-26.0,-348.0,7.007
-2.0,-43.0,7.008
15.0,138.0,7.009
21.0,207.0,7.01
33.0,296.0,7.011
55.0,446.0,7.012
72.0,570.0,7.013
79.0,592.0,7.014
82.0,504.0,7.015
79.0,333.0,7.016
70.0,140.0,7.017
52.0,-12.0,7.018
34.0,-24.0,7.019
9.0,102.0,7.02
-27.0,250.0,7.021
-61.0,329.0,7.022
-67.0,337.0,7.023
-47.0,324.0,7.024
-24.0,294.0,7.025
-7.0,228.0,7.026
8.0,147.0,7.027
27.0,101.0,7.028
42.0,82.0,7.029
44.0,35.0,7.03
38.0,-51.0,7.031
34.0,-116.0,7.032
31.0,-122.0,7.033
25.0,-106.0,7.034
20.0,-109.0,7.035
23.0,-108.0,7.036
32.0,-70.0,7.037
38.0,-12.0,7.038
35.0,18.0,7.039
36.0,5.0,7.04
51.0,-25.0,7.041
63.0,-35.0,7.042
35.0,7.0,7.043
-28.0,132.0,7.044
-80.0,340.0,7.045
-85.0,546.0,7.046
-70.0,618.0,7.047
-79.0,481.0,7.048
-108.0,200.0,7.049
-120.0,-84.0,7.05
-101.0,-285.0,7.051
-79.0,-402.0,7.052
-72.0,-440.0,7.053
-56.0,-370.0,7.054
-11.0,-223.0,7.055
47.0,-103.0,7.056
85.0,-60.0,7.057
92.0,-34.0,7.058
91.0,28.0,7.059
93.0,72.0,7.06
97.0,33.0,7.061
90.0,-34.0,7.062
73.0,-57.0,7.063
43.0,-68.0,7.064
-5.0,-141.0,7.065
-54.0,-242.0,7.066
-83.0,-274.0,7.067
-86.0,-225.0,7.068
-73.0,-163.0,7.069
-59.0,-126.0,7.07
-44.0,-116.0,7.071
-39.0,-152.0,7.072
-41.0,-222.0,7.073
-39.0,-226.0,7.074
-17.0,-103.0,7.075
19.0,66.0,7.076
51.0,169.0,7.077
76.0,213.0,7.078
105.0,249.0,7.079
141.0,254.0,7.08
170.0,189.0,7.081
172.0,129.0,7.082
149.0,150.0,7.083
114.0,193.0,7.084
69.0,150.0,7.085
11.0,27.0,7.086
-45.0,-100.0,7.087
-74.0,-212.0,7.088
-65.0,-316.0,7.089
-49.0,-362.0,7.09
-48.0,-300.0,7.091
-45.0,-157.0,7.092
-4.0,6.0,7.093
64.0,163.0,7.094
106.0,303.0,7.095
95.0,405.0,7.096
66.0,450.0,7.097
41.0,430.0,7.098
12.0,352.0,7.099
-45.0,232.0,7.1
-125.0,101.0,7.101
-201.0,-39.0,7.102
-257.0,-207.0,7.103
-278.0,-361.0,7.104
-251.0,-432.0,7.105
-182.0,-431.0,7.106
-106.0,-443.0,7.107
-70.0,-489.0,7.108
-69.0,-498.0,7.109
-45.0,-443.0,7.11
27.0,-357.0,7.111
105.0,-234.0,7.112
135.0,-28.0,7.113
130.0,224.0,7.114
130.0,399.0,7.115
152.0,447.0,7.116
186.0,431.0,7.117
230.0,404.0,7.118
269.0,362.0,7.119
251.0,295.0,7.12
152.0,218.0,7.121
24.0,139.0,7.122
-55.0,30.0,7.123
-86.0,-105.0,7.124
-123.0,-227.0,7.125
-191.0,-280.0,7.126
-252.0,-226.0,7.127
-254.0,-120.0,7.128
-185.0,-145.0,7.129
-90.0,-414.0,7.13
-33.0,-708.0,7.131
-23.0,-623.0,7.132
-13.0,-86.0,7.133
26.0,497.0,7.134
67.0,745.0,7.135
88.0,734.0,7.136
114.0,768.0,7.137
161.0,934.0,7.138
190.0,1043.0,7.139
170.0,917.0,7.14
150.0,587.0,7.141
166.0,214.0,7.142
167.0,-92.0,7.143
89.0,-327.0,7.144
-30.0,-519.0,7.145
-99.0,-637.0,7.146
-90.0,-614.0,7.147
-34.0,-494.0,7.148
44.0,-401.0,7.149
133.0,-345.0,7.15
205.0,-194.0,7.151
234.0,85.0,7.152
234.0,335.0,7.153
212.0,416.0,7.154
141.0,359.0,7.155
8.0,239.0,7.156
-139.0,90.0,7.157
-271.0,-64.0,7.158
-354.0,-156.0,7.159
-381.0,-225.0,7.16
-362.0,-393.0,7.161
-331.0,-646.0,7.162
-303.0,-795.0,7.163
-238.0,-686.0,7.164
-114.0,-366.0,7.165
26.0,3.0,7.166
128.0,307.0,7.167
196.0,518.0,7.168
242.0,636.0,7.169
242.0,643.0,7.17
181.0,528.0,7.171
110.0,354.0,7.172
58.0,221.0,7.173
-20.0,142.0,7.174
-134.0,22.0,7.175
-202.0,-185.0,7.176
-167.0,-370.0,7.177
-74.0,-443.0,7.178
-17.0,-407.0,7.179
-10.0,-360.0,7.18
-14.0,-334.0,7.181
-23.0,-271.0,7.182
-47.0,-168.0,7.183
-76.0,-94.0,7.184
-91.0,-96.0,7.185
-93.0,-131.0,7.186
-81.0,-117.0,7.187
-54.0,-28.0,7.188
-33.0,81.0,7.189
-37.0,129.0,7.19
-34.0,96.0,7.191
9.0,51.0,7.192
65.0,58.0,7.193
88.0,112.0,7.194
99.0,164.0,7.195
136.0,187.0,7.196
173.0,176.0,7.197
162.0,113.0,7.198
121.0,11.0,7.199
99.0,-73.0,7.2
90.0,-94.0,7.201
58.0,-76.0,7.202
24.0,-93.0,7.203
35.0,-169.0,7.204
62.0,-259.0,7.205
41.0,-301.0,7.206
-12.0,-248.0,7.207
-32.0,-104.0,7.208
-12.0,53.0,7.209
-4.0,126.0,7.21
-25.0,121.0,7.211
-37.0,124.0,7.212
-27.0,184.0,7.213
-14.0,251.0,7.214
-5.0,261.0,7.215
7.0,223.0,7.216
18.0,197.0,7.217
18.0,211.0,7.218
19.0,276.0,7.219
23.0,352.0,7.22
36.0,355.0,7.221
47.0,231.0,7.222
51.0,31.0,7.223
48.0,-110.0,7.224
20.0,-124.0,7.225
-6.0,-92.0,7.226
-25.0,-143.0,7.227
-36.0,-276.0,7.228
-20.0,-363.0,7.229
-10.0,-321.0,7.23
-18.0,-205.0,7.231
-30.0,-107.0,7.232
-50.0,-39.0,7.233
-59.0,35.0,7.234
