Deltoid,Bicep,Time
0.0,-5.0,0.0
-1.0,-7.0,0.001
1.0,-6.0,0.002
8.0,-3.0,0.003
18.0,2.0,0.004
19.0,7.0,0.005
12.0,10.0,0.006
9.0,11.0,0.007
10.0,9.0,0.008
9.0,6.0,0.009
4.0,5.0,0.01
2.0,5.0,0.011
5.0,4.0,0.012
3.0,3.0,0.013
-3.0,1.0,0.014
-6.0,0.0,0.015
-3.0,0.0,0.016
-1.0,0.0,0.017
-3.0,-4.0,0.018
-3.0,-8.0,0.019
-2.0,-9.0,0.02
-2.0,-10.0,0.021
-3.0,-7.0,0.022
-1.0,-4.0,0.023
3.0,-2.0,0.024
4.0,1.0,0.025
2.0,6.0,0.026
3.0,6.0,0.027
6.0,2.0,0.028
6.0,-2.0,0.029
3.0,0.0,0.03
1.0,5.0,0.031
2.0,6.0,0.032
1.0,3.0,0.033
-2.0,-1.0,0.034
-3.0,-4.0,0.035
1.0,-5.0,0.036
5.0,-3.0,0.037
4.0,-4.0,0.038
3.0,-7.0,0.039
0.0,-10.0,0.04
-4.0,-13.0,0.041
-9.0,-11.0,0.042
-7.0,-7.0,0.043
1.0,-3.0,0.044
9.0,3.0,0.045
7.0,8.0,0.046
4.0,6.0,0.047
6.0,1.0,0.048
10.0,1.0,0.049
6.0,5.0,0.05
1.0,5.0,0.051
2.0,2.0,0.052
9.0,2.0,0.053
11.0,4.0,0.054
5.0,1.0,0.055
0.0,-3.0,0.056
3.0,-3.0,0.057
3.0,-2.0,0.058
2.0,-3.0,0.059
-2.0,-5.0,0.06
-3.0,-6.0,0.061
-3.0,-7.0,0.062
2.0,-4.0,0.063
9.0,0.0,0.064
10.0,3.0,0.065
7.0,6.0,0.066
4.0,6.0,0.067
5.0,6.0,0.068
9.0,4.0,0.069
7.0,3.0,0.07
3.0,5.0,0.071
1.0,6.0,0.072
0.0,2.0,0.073
0.0,-2.0,0.074
0.0,-2.0,0.075
5.0,-2.0,0.076
9.0,-2.0,0.077
5.0,-2.0,0.078
-2.0,-4.0,0.079
-8.0,-7.0,0.08
-8.0,-12.0,0.081
-2.0,-9.0,0.082
4.0,-5.0,0.083
9.0,-2.0,0.084
6.0,2.0,0.085
2.0,6.0,0.086
2.0,8.0,0.087
3.0,5.0,0.088
1.0,5.0,0.089
0.0,7.0,0.09
0.0,8.0,0.091
1.0,4.0,0.092
0.0,0.0,0.093
0.0,1.0,0.094
1.0,3.0,0.095
2.0,-1.0,0.096
4.0,-5.0,0.097
4.0,-4.0,0.098
1.0,-4.0,0.099
-3.0,-5.0,0.1
-5.0,-11.0,0.101
-4.0,-9.0,0.102
1.0,-3.0,0.103
6.0,0.0,0.104
6.0,1.0,0.105
1.0,3.0,0.106
0.0,5.0,0.107
1.0,3.0,0.108
4.0,-1.0,0.109
3.0,0.0,0.11
0.0,3.0,0.111
2.0,4.0,0.112
6.0,0.0,0.113
7.0,-3.0,0.114
5.0,-1.0,0.115
3.0,1.0,0.116
4.0,1.0,0.117
2.0,-1.0,0.118
0.0,-7.0,0.119
-3.0,-7.0,0.12
-4.0,-5.0,0.121
-5.0,-2.0,0.122
0.0,-2.0,0.123
4.0,-4.0,0.124
4.0,-1.0,0.125
5.0,6.0,0.126
5.0,7.0,0.127
5.0,2.0,0.128
7.0,0.0,0.129
9.0,5.0,0.13
9.0,8.0,0.131
7.0,4.0,0.132
5.0,0.0,0.133
3.0,0.0,0.134
3.0,-1.0,0.135
2.0,-3.0,0.136
2.0,-4.0,0.137
1.0,-6.0,0.138
-4.0,-7.0,0.139
-6.0,-8.0,0.14
-4.0,-9.0,0.141
-1.0,-9.0,0.142
3.0,-3.0,0.143
7.0,1.0,0.144
8.0,3.0,0.145
3.0,6.0,0.146
0.0,5.0,0.147
1.0,4.0,0.148
3.0,4.0,0.149
1.0,5.0,0.15
1.0,5.0,0.151
2.0,4.0,0.152
2.0,2.0,0.153
1.0,0.0,0.154
2.0,-1.0,0.155
6.0,-4.0,0.156
9.0,-2.0,0.157
5.0,-1.0,0.158
4.0,-3.0,0.159
2.0,-5.0,0.16
0.0,-10.0,0.161
-3.0,-11.0,0.162
0.0,-6.0,0.163
8.0,-1.0,0.164
11.0,4.0,0.165
3.0,7.0,0.166
-2.0,8.0,0.167
2.0,5.0,0.168
8.0,3.0,0.169
6.0,2.0,0.17
1.0,3.0,0.171
0.0,2.0,0.172
2.0,0.0,0.173
3.0,-1.0,0.174
3.0,-3.0,0.175
2.0,-5.0,0.176
3.0,-6.0,0.177
0.0,-7.0,0.178
0.0,-9.0,0.179
-2.0,-7.0,0.18
-5.0,-8.0,0.181
-7.0,-7.0,0.182
-1.0,-4.0,0.183
8.0,0.0,0.184
11.0,6.0,0.185
4.0,9.0,0.186
1.0,7.0,0.187
5.0,3.0,0.188
8.0,0.0,0.189
4.0,2.0,0.19
2.0,5.0,0.191
3.0,4.0,0.192
3.0,1.0,0.193
-1.0,-1.0,0.194
-2.0,0.0,0.195
1.0,2.0,0.196
2.0,0.0,0.197
-2.0,-5.0,0.198
-3.0,-9.0,0.199
-3.0,-10.0,0.2
-3.0,-10.0,0.201
-4.0,-8.0,0.202
1.0,-3.0,0.203
12.0,3.0,0.204
16.0,5.0,0.205
12.0,5.0,0.206
6.0,4.0,0.207
6.0,4.0,0.208
8.0,6.0,0.209
7.0,7.0,0.21
7.0,7.0,0.211
6.0,4.0,0.212
3.0,0.0,0.213
0.0,-1.0,0.214
1.0,-2.0,0.215
2.0,-2.0,0.216
1.0,-2.0,0.217
-2.0,-3.0,0.218
-3.0,-4.0,0.219
-4.0,-5.0,0.22
-7.0,-6.0,0.221
-9.0,-7.0,0.222
-4.0,-5.0,0.223
6.0,-2.0,0.224
11.0,3.0,0.225
9.0,8.0,0.226
7.0,6.0,0.227
11.0,5.0,0.228
11.0,6.0,0.229
3.0,7.0,0.23
-1.0,5.0,0.231
2.0,3.0,0.232
6.0,1.0,0.233
1.0,0.0,0.234
-4.0,-1.0,0.235
-2.0,-3.0,0.236
4.0,-5.0,0.237
5.0,-8.0,0.238
2.0,-8.0,0.239
-1.0,-7.0,0.24
-3.0,-12.0,0.241
-5.0,-12.0,0.242
-4.0,-8.0,0.243
0.0,-3.0,0.244
5.0,3.0,0.245
6.0,5.0,0.246
5.0,5.0,0.247
5.0,4.0,0.248
4.0,4.0,0.249
2.0,7.0,0.25
3.0,7.0,0.251
7.0,2.0,0.252
9.0,-1.0,0.253
8.0,-2.0,0.254
9.0,0.0,0.255
9.0,0.0,0.256
9.0,0.0,0.257
5.0,-1.0,0.258
3.0,-5.0,0.259
-1.0,-7.0,0.26
-7.0,-9.0,0.261
-11.0,-6.0,0.262
-4.0,-2.0,0.263
6.0,-1.0,0.264
8.0,0.0,0.265
2.0,1.0,0.266
0.0,2.0,0.267
4.0,3.0,0.268
6.0,5.0,0.269
1.0,6.0,0.27
-1.0,4.0,0.271
0.0,0.0,0.272
0.0,-1.0,0.273
-1.0,1.0,0.274
2.0,0.0,0.275
6.0,-4.0,0.276
5.0,-7.0,0.277
0.0,-5.0,0.278
-3.0,-3.0,0.279
-3.0,-6.0,0.28
-3.0,-11.0,0.281
-1.0,-10.0,0.282
7.0,-3.0,0.283
15.0,2.0,0.284
11.0,3.0,0.285
3.0,4.0,0.286
4.0,5.0,0.287
11.0,6.0,0.288
10.0,6.0,0.289
2.0,6.0,0.29
1.0,7.0,0.291
7.0,3.0,0.292
8.0,-2.0,0.293
3.0,-5.0,0.294
-1.0,-4.0,0.295
-2.0,-3.0,0.296
-3.0,-2.0,0.297
-6.0,-3.0,0.298
-8.0,-3.0,0.299
-7.0,-3.0,0.3
-7.0,-5.0,0.301
-7.0,-7.0,0.302
-3.0,-4.0,0.303
5.0,-2.0,0.304
8.0,-2.0,0.305
6.0,-2.0,0.306
6.0,1.0,0.307
10.0,4.0,0.308
10.0,3.0,0.309
3.0,2.0,0.31
-1.0,6.0,0.311
1.0,8.0,0.312
5.0,2.0,0.313
4.0,-2.0,0.314
2.0,-3.0,0.315
3.0,-5.0,0.316
6.0,-6.0,0.317
3.0,-9.0,0.318
-1.0,-11.0,0.319
-4.0,-10.0,0.32
-6.0,-9.0,0.321
-4.0,-7.0,0.322
2.0,-4.0,0.323
9.0,0.0,0.324
12.0,4.0,0.325
9.0,5.0,0.326
4.0,3.0,0.327
2.0,3.0,0.328
0.0,4.0,0.329
1.0,4.0,0.33
5.0,4.0,0.331
9.0,4.0,0.332
5.0,2.0,0.333
0.0,-1.0,0.334
-4.0,-4.0,0.335
-1.0,-3.0,0.336
1.0,0.0,0.337
2.0,1.0,0.338
1.0,-2.0,0.339
-1.0,-7.0,0.34
-4.0,-10.0,0.341
-3.0,-8.0,0.342
3.0,-3.0,0.343
10.0,-2.0,0.344
7.0,-1.0,0.345
1.0,2.0,0.346
1.0,6.0,0.347
6.0,5.0,0.348
8.0,3.0,0.349
4.0,4.0,0.35
3.0,4.0,0.351
7.0,3.0,0.352
8.0,0.0,0.353
5.0,-1.0,0.354
4.0,-3.0,0.355
7.0,-5.0,0.356
8.0,-3.0,0.357
3.0,-2.0,0.358
1.0,-2.0,0.359
0.0,-2.0,0.36
-2.0,-3.0,0.361
-5.0,-2.0,0.362
1.0,3.0,0.363
12.0,7.0,0.364
13.0,5.0,0.365
3.0,4.0,0.366
-2.0,4.0,0.367
1.0,3.0,0.368
3.0,3.0,0.369
1.0,3.0,0.37
0.0,3.0,0.371
2.0,2.0,0.372
2.0,0.0,0.373
0.0,-2.0,0.374
0.0,-3.0,0.375
5.0,-5.0,0.376
6.0,-5.0,0.377
2.0,-5.0,0.378
0.0,-4.0,0.379
-2.0,-6.0,0.38
-1.0,-9.0,0.381
0.0,-5.0,0.382
4.0,0.0,0.383
10.0,4.0,0.384
10.0,7.0,0.385
5.0,7.0,0.386
1.0,6.0,0.387
0.0,2.0,0.388
-1.0,0.0,0.389
-2.0,1.0,0.39
0.0,2.0,0.391
4.0,1.0,0.392
3.0,0.0,0.393
0.0,-1.0,0.394
-2.0,-1.0,0.395
0.0,-4.0,0.396
2.0,-6.0,0.397
1.0,-5.0,0.398
-1.0,-5.0,0.399
-3.0,-6.0,0.4
-5.0,-11.0,0.401
-2.0,-10.0,0.402
7.0,-6.0,0.403
16.0,1.0,0.404
15.0,6.0,0.405
6.0,10.0,0.406
4.0,9.0,0.407
8.0,4.0,0.408
6.0,0.0,0.409
-2.0,0.0,0.41
-6.0,3.0,0.411
-4.0,3.0,0.412
-3.0,3.0,0.413
-5.0,2.0,0.414
-6.0,0.0,0.415
-3.0,-3.0,0.416
1.0,-5.0,0.417
1.0,-6.0,0.418
0.0,-6.0,0.419
-3.0,-5.0,0.42
-4.0,-8.0,0.421
-4.0,-6.0,0.422
4.0,-2.0,0.423
13.0,0.0,0.424
14.0,0.0,0.425
7.0,3.0,0.426
3.0,5.0,0.427
5.0,4.0,0.428
5.0,0.0,0.429
2.0,-1.0,0.43
1.0,2.0,0.431
2.0,3.0,0.432
0.0,-1.0,0.433
-4.0,-4.0,0.434
-3.0,-3.0,0.435
2.0,-3.0,0.436
4.0,-4.0,0.437
3.0,-7.0,0.438
0.0,-5.0,0.439
1.0,-4.0,0.44
0.0,-8.0,0.441
0.0,-10.0,0.442
6.0,-8.0,0.443
11.0,-5.0,0.444
9.0,-1.0,0.445
0.0,3.0,0.446
0.0,1.0,0.447
7.0,0.0,0.448
12.0,1.0,0.449
8.0,2.0,0.45
0.0,4.0,0.451
0.0,5.0,0.452
2.0,3.0,0.453
1.0,1.0,0.454
0.0,0.0,0.455
0.0,-2.0,0.456
4.0,-4.0,0.457
5.0,-7.0,0.458
5.0,-7.0,0.459
-1.0,-7.0,0.46
-6.0,-9.0,0.461
-3.0,-4.0,0.462
5.0,5.0,0.463
10.0,10.0,0.464
5.0,11.0,0.465
-2.0,12.0,0.466
-2.0,13.0,0.467
0.0,12.0,0.468
-1.0,9.0,0.469
0.0,9.0,0.47
4.0,8.0,0.471
8.0,6.0,0.472
6.0,1.0,0.473
2.0,-2.0,0.474
2.0,-3.0,0.475
5.0,-3.0,0.476
9.0,-4.0,0.477
9.0,-4.0,0.478
8.0,-5.0,0.479
4.0,-7.0,0.48
-2.0,-11.0,0.481
-3.0,-11.0,0.482
2.0,-4.0,0.483
8.0,-1.0,0.484
12.0,0.0,0.485
13.0,0.0,0.486
15.0,4.0,0.487
13.0,6.0,0.488
9.0,4.0,0.489
4.0,3.0,0.49
2.0,4.0,0.491
1.0,4.0,0.492
0.0,-1.0,0.493
0.0,-5.0,0.494
4.0,-7.0,0.495
6.0,-7.0,0.496
3.0,-5.0,0.497
-2.0,-4.0,0.498
-3.0,-5.0,0.499
-2.0,-7.0,0.5
-4.0,-11.0,0.501
-6.0,-9.0,0.502
-2.0,-6.0,0.503
4.0,-1.0,0.504
3.0,4.0,0.505
-1.0,7.0,0.506
0.0,8.0,0.507
4.0,6.0,0.508
2.0,2.0,0.509
-3.0,1.0,0.51
-1.0,2.0,0.511
4.0,0.0,0.512
5.0,-2.0,0.513
-1.0,-3.0,0.514
-5.0,-2.0,0.515
-2.0,-3.0,0.516
5.0,-3.0,0.517
5.0,-6.0,0.518
0.0,-6.0,0.519
-2.0,-7.0,0.52
-4.0,-5.0,0.521
-1.0,-3.0,0.522
2.0,-1.0,0.523
7.0,0.0,0.524
5.0,2.0,0.525
1.0,5.0,0.526
0.0,3.0,0.527
4.0,2.0,0.528
3.0,3.0,0.529
-2.0,5.0,0.53
-4.0,5.0,0.531
-1.0,4.0,0.532
2.0,1.0,0.533
2.0,-1.0,0.534
0.0,-1.0,0.535
0.0,-1.0,0.536
1.0,-4.0,0.537
2.0,-6.0,0.538
5.0,-6.0,0.539
3.0,-5.0,0.54
-2.0,-7.0,0.541
-1.0,-4.0,0.542
8.0,0.0,0.543
17.0,1.0,0.544
18.0,2.0,0.545
11.0,5.0,0.546
7.0,7.0,0.547
8.0,4.0,0.548
9.0,2.0,0.549
6.0,2.0,0.55
1.0,4.0,0.551
1.0,0.0,0.552
1.0,-3.0,0.553
0.0,-3.0,0.554
-1.0,1.0,0.555
-1.0,1.0,0.556
1.0,0.0,0.557
3.0,-3.0,0.558
1.0,-3.0,0.559
-4.0,-5.0,0.56
-7.0,-6.0,0.561
-5.0,-2.0,0.562
3.0,2.0,0.563
12.0,-1.0,0.564
13.0,-5.0,0.565
6.0,0.0,0.566
0.0,7.0,0.567
0.0,8.0,0.568
6.0,2.0,0.569
9.0,1.0,0.57
5.0,4.0,0.571
-1.0,4.0,0.572
-5.0,-1.0,0.573
-5.0,-2.0,0.574
0.0,0.0,0.575
3.0,0.0,0.576
6.0,-3.0,0.577
8.0,-6.0,0.578
8.0,-7.0,0.579
4.0,-10.0,0.58
-1.0,-13.0,0.581
-2.0,-10.0,0.582
2.0,-3.0,0.583
8.0,1.0,0.584
9.0,5.0,0.585
6.0,6.0,0.586
4.0,5.0,0.587
6.0,2.0,0.588
4.0,1.0,0.589
-1.0,3.0,0.59
-3.0,4.0,0.591
-1.0,1.0,0.592
1.0,0.0,0.593
0.0,2.0,0.594
0.0,0.0,0.595
0.0,-4.0,0.596
3.0,-8.0,0.597
1.0,-8.0,0.598
-1.0,-5.0,0.599
-5.0,-3.0,0.6
-5.0,-4.0,0.601
0.0,-5.0,0.602
9.0,-2.0,0.603
15.0,1.0,0.604
13.0,4.0,0.605
5.0,6.0,0.606
1.0,4.0,0.607
3.0,3.0,0.608
5.0,2.0,0.609
4.0,1.0,0.61
5.0,1.0,0.611
6.0,0.0,0.612
4.0,-1.0,0.613
-1.0,-3.0,0.614
-4.0,-3.0,0.615
-3.0,-2.0,0.616
1.0,-2.0,0.617
3.0,-3.0,0.618
3.0,-6.0,0.619
1.0,-6.0,0.62
-2.0,-6.0,0.621
-4.0,-4.0,0.622
-1.0,-4.0,0.623
6.0,-3.0,0.624
8.0,1.0,0.625
2.0,6.0,0.626
-2.0,5.0,0.627
-1.0,1.0,0.628
2.0,0.0,0.629
3.0,1.0,0.63
3.0,2.0,0.631
3.0,0.0,0.632
3.0,0.0,0.633
2.0,-1.0,0.634
1.0,-4.0,0.635
2.0,-7.0,0.636
3.0,-6.0,0.637
-1.0,-2.0,0.638
-5.0,-3.0,0.639
-6.0,-6.0,0.64
-3.0,-7.0,0.641
2.0,-4.0,0.642
9.0,0.0,0.643
13.0,1.0,0.644
10.0,3.0,0.645
0.0,7.0,0.646
-1.0,8.0,0.647
5.0,7.0,0.648
13.0,4.0,0.649
13.0,3.0,0.65
8.0,2.0,0.651
6.0,2.0,0.652
9.0,1.0,0.653
7.0,0.0,0.654
3.0,-3.0,0.655
0.0,-4.0,0.656
2.0,-4.0,0.657
3.0,-5.0,0.658
3.0,-5.0,0.659
0.0,-4.0,0.66
-1.0,-5.0,0.661
-2.0,-5.0,0.662
0.0,-3.0,0.663
7.0,-1.0,0.664
9.0,2.0,0.665
3.0,5.0,0.666
0.0,6.0,0.667
0.0,7.0,0.668
3.0,6.0,0.669
3.0,5.0,0.67
0.0,4.0,0.671
-1.0,2.0,0.672
0.0,-1.0,0.673
1.0,-3.0,0.674
2.0,-6.0,0.675
0.0,-7.0,0.676
-1.0,-4.0,0.677
-2.0,-6.0,0.678
-1.0,-6.0,0.679
-1.0,-6.0,0.68
-3.0,-9.0,0.681
-3.0,-10.0,0.682
0.0,-2.0,0.683
4.0,5.0,0.684
4.0,7.0,0.685
1.0,8.0,0.686
0.0,4.0,0.687
2.0,1.0,0.688
6.0,3.0,0.689
5.0,5.0,0.69
3.0,3.0,0.691
3.0,1.0,0.692
5.0,0.0,0.693
6.0,-3.0,0.694
4.0,-3.0,0.695
4.0,-3.0,0.696
4.0,-3.0,0.697
1.0,-2.0,0.698
-3.0,-3.0,0.699
-3.0,-4.0,0.7
-2.0,-8.0,0.701
1.0,-7.0,0.702
5.0,-4.0,0.703
9.0,0.0,0.704
10.0,4.0,0.705
9.0,7.0,0.706
11.0,4.0,0.707
13.0,0.0,0.708
13.0,0.0,0.709
10.0,3.0,0.71
5.0,4.0,0.711
4.0,1.0,0.712
5.0,-1.0,0.713
4.0,0.0,0.714
1.0,1.0,0.715
-1.0,-1.0,0.716
1.0,-2.0,0.717
2.0,-3.0,0.718
0.0,-5.0,0.719
-6.0,-8.0,0.72
-8.0,-12.0,0.721
-4.0,-8.0,0.722
1.0,-3.0,0.723
6.0,-1.0,0.724
8.0,2.0,0.725
6.0,10.0,0.726
6.0,13.0,0.727
4.0,8.0,0.728
2.0,2.0,0.729
2.0,2.0,0.73
2.0,3.0,0.731
3.0,-1.0,0.732
3.0,-5.0,0.733
1.0,-5.0,0.734
0.0,-3.0,0.735
0.0,-3.0,0.736
0.0,-3.0,0.737
-1.0,-6.0,0.738
-1.0,-8.0,0.739
-2.0,-9.0,0.74
-2.0,-8.0,0.741
0.0,-1.0,0.742
5.0,1.0,0.743
13.0,0.0,0.744
12.0,1.0,0.745
2.0,4.0,0.746
-2.0,5.0,0.747
2.0,2.0,0.748
8.0,3.0,0.749
7.0,7.0,0.75
3.0,8.0,0.751
1.0,5.0,0.752
1.0,-1.0,0.753
0.0,-4.0,0.754
0.0,-6.0,0.755
3.0,-8.0,0.756
7.0,-6.0,0.757
5.0,-4.0,0.758
0.0,-6.0,0.759
-6.0,-8.0,0.76
-9.0,-8.0,0.761
-7.0,-8.0,0.762
-1.0,-6.0,0.763
4.0,-3.0,0.764
4.0,1.0,0.765
2.0,5.0,0.766
2.0,5.0,0.767
3.0,6.0,0.768
3.0,6.0,0.769
-1.0,6.0,0.77
-1.0,4.0,0.771
3.0,1.0,0.772
3.0,0.0,0.773
1.0,-2.0,0.774
0.0,-2.0,0.775
3.0,-3.0,0.776
6.0,-4.0,0.777
6.0,-4.0,0.778
10.0,-5.0,0.779
12.0,-7.0,0.78
11.0,-7.0,0.781
8.0,-7.0,0.782
8.0,-5.0,0.783
10.0,-3.0,0.784
7.0,1.0,0.785
2.0,4.0,0.786
1.0,4.0,0.787
1.0,5.0,0.788
-2.0,5.0,0.789
-8.0,5.0,0.79
-7.0,3.0,0.791
-2.0,1.0,0.792
1.0,0.0,0.793
0.0,-2.0,0.794
3.0,-2.0,0.795
9.0,-3.0,0.796
13.0,-4.0,0.797
10.0,-6.0,0.798
6.0,-9.0,0.799
2.0,-8.0,0.8
0.0,-5.0,0.801
-1.0,-3.0,0.802
4.0,-3.0,0.803
7.0,-2.0,0.804
5.0,3.0,0.805
4.0,8.0,0.806
4.0,7.0,0.807
3.0,5.0,0.808
3.0,4.0,0.809
2.0,3.0,0.81
1.0,0.0,0.811
0.0,-2.0,0.812
1.0,0.0,0.813
2.0,2.0,0.814
1.0,2.0,0.815
0.0,-1.0,0.816
-2.0,-2.0,0.817
-5.0,-4.0,0.818
-6.0,-6.0,0.819
-5.0,-7.0,0.82
-2.0,-8.0,0.821
0.0,-7.0,0.822
3.0,-2.0,0.823
9.0,2.0,0.824
10.0,7.0,0.825
7.0,8.0,0.826
1.0,5.0,0.827
1.0,1.0,0.828
3.0,2.0,0.829
3.0,4.0,0.83
1.0,4.0,0.831
1.0,0.0,0.832
3.0,-1.0,0.833
1.0,-1.0,0.834
-2.0,-1.0,0.835
-1.0,-2.0,0.836
2.0,-1.0,0.837
5.0,-2.0,0.838
3.0,-3.0,0.839
-2.0,-5.0,0.84
-6.0,-6.0,0.841
-6.0,-7.0,0.842
1.0,-4.0,0.843
9.0,-1.0,0.844
11.0,1.0,0.845
7.0,4.0,0.846
6.0,4.0,0.847
11.0,4.0,0.848
12.0,4.0,0.849
5.0,3.0,0.85
0.0,2.0,0.851
-1.0,1.0,0.852
0.0,1.0,0.853
0.0,1.0,0.854
1.0,0.0,0.855
5.0,-2.0,0.856
9.0,-5.0,0.857
4.0,-7.0,0.858
0.0,-5.0,0.859
-1.0,-5.0,0.86
0.0,-10.0,0.861
1.0,-8.0,0.862
3.0,-4.0,0.863
7.0,-2.0,0.864
8.0,-1.0,0.865
4.0,2.0,0.866
3.0,4.0,0.867
7.0,4.0,0.868
11.0,5.0,0.869
8.0,7.0,0.87
1.0,5.0,0.871
-2.0,-1.0,0.872
-2.0,-5.0,0.873
-1.0,-4.0,0.874
-1.0,-5.0,0.875
0.0,-9.0,0.876
3.0,-7.0,0.877
1.0,-3.0,0.878
-1.0,-1.0,0.879
-4.0,-4.0,0.88
-7.0,-6.0,0.881
-5.0,-3.0,0.882
2.0,2.0,0.883
9.0,3.0,0.884
9.0,6.0,0.885
5.0,9.0,0.886
2.0,8.0,0.887
3.0,3.0,0.888
3.0,1.0,0.889
1.0,4.0,0.89
0.0,6.0,0.891
1.0,4.0,0.892
-1.0,0.0,0.893
-3.0,-1.0,0.894
-1.0,-2.0,0.895
1.0,-2.0,0.896
1.0,-1.0,0.897
0.0,-4.0,0.898
0.0,-5.0,0.899
0.0,-7.0,0.9
-4.0,-7.0,0.901
-6.0,-6.0,0.902
2.0,-4.0,0.903
15.0,-1.0,0.904
15.0,2.0,0.905
5.0,4.0,0.906
0.0,1.0,0.907
4.0,0.0,0.908
6.0,1.0,0.909
1.0,4.0,0.91
0.0,4.0,0.911
5.0,4.0,0.912
8.0,2.0,0.913
3.0,0.0,0.914
0.0,-1.0,0.915
2.0,-3.0,0.916
5.0,-3.0,0.917
3.0,-2.0,0.918
4.0,-5.0,0.919
5.0,-6.0,0.92
5.0,-7.0,0.921
4.0,-4.0,0.922
4.0,0.0,0.923
4.0,2.0,0.924
4.0,6.0,0.925
2.0,8.0,0.926
0.0,8.0,0.927
-1.0,4.0,0.928
2.0,2.0,0.929
4.0,2.0,0.93
2.0,0.0,0.931
1.0,-4.0,0.932
1.0,-5.0,0.933
2.0,-3.0,0.934
2.0,-1.0,0.935
2.0,-3.0,0.936
0.0,-6.0,0.937
-1.0,-8.0,0.938
-1.0,-9.0,0.939
-1.0,-7.0,0.94
-1.0,-8.0,0.941
-2.0,-4.0,0.942
0.0,0.0,0.943
5.0,3.0,0.944
6.0,1.0,0.945
4.0,0.0,0.946
3.0,0.0,0.947
4.0,1.0,0.948
3.0,3.0,0.949
3.0,4.0,0.95
5.0,5.0,0.951
10.0,4.0,0.952
9.0,4.0,0.953
4.0,4.0,0.954
4.0,2.0,0.955
5.0,-1.0,0.956
4.0,-3.0,0.957
0.0,-3.0,0.958
0.0,-1.0,0.959
0.0,-2.0,0.96
-5.0,-7.0,0.961
-11.0,-9.0,0.962
-7.0,-6.0,0.963
6.0,-1.0,0.964
13.0,3.0,0.965
8.0,5.0,0.966
1.0,4.0,0.967
2.0,2.0,0.968
3.0,3.0,0.969
0.0,5.0,0.97
-4.0,5.0,0.971
-7.0,1.0,0.972
-4.0,-4.0,0.973
-1.0,-4.0,0.974
6.0,-2.0,0.975
13.0,-1.0,0.976
14.0,-1.0,0.977
8.0,-5.0,0.978
5.0,-6.0,0.979
5.0,-5.0,0.98
6.0,-5.0,0.981
5.0,-2.0,0.982
8.0,-1.0,0.983
12.0,0.0,0.984
12.0,0.0,0.985
4.0,2.0,0.986
-1.0,3.0,0.987
1.0,0.0,0.988
3.0,-1.0,0.989
1.0,1.0,0.99
0.0,3.0,0.991
1.0,1.0,0.992
3.0,-2.0,0.993
1.0,-3.0,0.994
0.0,0.0,0.995
1.0,1.0,0.996
0.0,3.0,0.997
-3.0,0.0,0.998
-5.0,-1.0,0.999
-5.0,-2.0,1.0
-4.0,-4.0,1.001
-7.0,-2.0,1.002
-4.0,2.0,1.003
6.0,5.0,1.004
10.0,6.0,1.005
4.0,7.0,1.006
0.0,6.0,1.007
3.0,2.0,1.008
8.0,0.0,1.009
5.0,0.0,1.01
1.0,-2.0,1.011
2.0,-5.0,1.012
5.0,-4.0,1.013
6.0,-3.0,1.014
5.0,-3.0,1.015
3.0,-7.0,1.016
2.0,-9.0,1.017
0.0,-10.0,1.018
0.0,-10.0,1.019
0.0,-11.0,1.02
-2.0,-12.0,1.021
-4.0,-10.0,1.022
1.0,-5.0,1.023
11.0,-1.0,1.024
11.0,0.0,1.025
1.0,1.0,1.026
-4.0,2.0,1.027
-1.0,0.0,1.028
4.0,0.0,1.029
2.0,-2.0,1.03
-2.0,-3.0,1.031
-3.0,-4.0,1.032
-1.0,-2.0,1.033
-1.0,3.0,1.034
-3.0,6.0,1.035
-3.0,3.0,1.036
-1.0,1.0,1.037
2.0,-2.0,1.038
4.0,-4.0,1.039
3.0,-3.0,1.04
1.0,-5.0,1.041
1.0,-4.0,1.042
8.0,-2.0,1.043
15.0,2.0,1.044
14.0,6.0,1.045
5.0,10.0,1.046
-1.0,12.0,1.047
1.0,11.0,1.048
4.0,10.0,1.049
1.0,9.0,1.05
-1.0,5.0,1.051
0.0,1.0,1.052
6.0,-1.0,1.053
9.0,0.0,1.054
8.0,3.0,1.055
7.0,3.0,1.056
6.0,2.0,1.057
6.0,-2.0,1.058
5.0,-2.0,1.059
2.0,-2.0,1.06
0.0,-5.0,1.061
-1.0,-4.0,1.062
3.0,-1.0,1.063
13.0,2.0,1.064
16.0,4.0,1.065
10.0,3.0,1.066
2.0,3.0,1.067
3.0,3.0,1.068
7.0,3.0,1.069
8.0,3.0,1.07
5.0,0.0,1.071
4.0,-3.0,1.072
6.0,-6.0,1.073
5.0,-4.0,1.074
3.0,-2.0,1.075
4.0,-4.0,1.076
8.0,-7.0,1.077
5.0,-11.0,1.078
-1.0,-9.0,1.079
-7.0,-8.0,1.08
-9.0,-8.0,1.081
-8.0,-7.0,1.082
-4.0,-5.0,1.083
2.0,-2.0,1.084
4.0,0.0,1.085
0.0,3.0,1.086
-4.0,3.0,1.087
-2.0,2.0,1.088
1.0,2.0,1.089
2.0,0.0,1.09
0.0,-1.0,1.091
0.0,-3.0,1.092
1.0,-3.0,1.093
0.0,-2.0,1.094
-3.0,-2.0,1.095
-2.0,-3.0,1.096
0.0,-3.0,1.097
-1.0,-3.0,1.098
-5.0,-2.0,1.099
-9.0,-4.0,1.1
-10.0,-6.0,1.101
-6.0,-4.0,1.102
-1.0,0.0,1.103
6.0,2.0,1.104
11.0,5.0,1.105
10.0,8.0,1.106
10.0,8.0,1.107
10.0,4.0,1.108
8.0,0.0,1.109
3.0,3.0,1.11
-2.0,6.0,1.111
1.0,2.0,1.112
6.0,-2.0,1.113
5.0,-1.0,1.114
2.0,0.0,1.115
0.0,0.0,1.116
1.0,-1.0,1.117
-2.0,-6.0,1.118
-4.0,-8.0,1.119
-5.0,-12.0,1.12
-3.0,-13.0,1.121
0.0,-7.0,1.122
5.0,-1.0,1.123
11.0,0.0,1.124
12.0,1.0,1.125
7.0,5.0,1.126
3.0,7.0,1.127
4.0,6.0,1.128
7.0,3.0,1.129
5.0,4.0,1.13
4.0,4.0,1.131
3.0,1.0,1.132
1.0,-1.0,1.133
0.0,0.0,1.134
3.0,-1.0,1.135
8.0,-4.0,1.136
9.0,-4.0,1.137
4.0,-5.0,1.138
0.0,-4.0,1.139
0.0,-4.0,1.14
-2.0,-6.0,1.141
-3.0,-5.0,1.142
1.0,-4.0,1.143
11.0,0.0,1.144
12.0,7.0,1.145
4.0,10.0,1.146
-2.0,6.0,1.147
1.0,0.0,1.148
5.0,0.0,1.149
5.0,3.0,1.15
2.0,0.0,1.151
0.0,-4.0,1.152
-1.0,-5.0,1.153
-1.0,-2.0,1.154
0.0,-3.0,1.155
2.0,-6.0,1.156
4.0,-4.0,1.157
2.0,-2.0,1.158
0.0,-5.0,1.159
-2.0,-7.0,1.16
-2.0,-6.0,1.161
-2.0,0.0,1.162
4.0,5.0,1.163
9.0,4.0,1.164
10.0,5.0,1.165
5.0,9.0,1.166
3.0,11.0,1.167
4.0,7.0,1.168
1.0,1.0,1.169
-5.0,-1.0,1.17
-5.0,0.0,1.171
-1.0,-1.0,1.172
2.0,-1.0,1.173
2.0,0.0,1.174
2.0,3.0,1.175
4.0,1.0,1.176
7.0,-1.0,1.177
4.0,-4.0,1.178
4.0,-6.0,1.179
0.0,-6.0,1.18
-3.0,-6.0,1.181
-5.0,-4.0,1.182
0.0,-1.0,1.183
8.0,0.0,1.184
8.0,1.0,1.185
3.0,4.0,1.186
1.0,6.0,1.187
1.0,2.0,1.188
-2.0,-2.0,1.189
-4.0,-2.0,1.19
-3.0,0.0,1.191
0.0,0.0,1.192
0.0,-2.0,1.193
0.0,-4.0,1.194
3.0,-5.0,1.195
4.0,-6.0,1.196
1.0,-6.0,1.197
-1.0,-5.0,1.198
1.0,-3.0,1.199
1.0,-3.0,1.2
-3.0,-5.0,1.201
-8.0,-3.0,1.202
-3.0,0.0,1.203
7.0,2.0,1.204
14.0,2.0,1.205
12.0,5.0,1.206
7.0,8.0,1.207
6.0,7.0,1.208
8.0,3.0,1.209
7.0,2.0,1.21
2.0,1.0,1.211
-1.0,-1.0,1.212
0.0,-4.0,1.213
2.0,-5.0,1.214
2.0,-6.0,1.215
0.0,-7.0,1.216
1.0,-5.0,1.217
3.0,-5.0,1.218
4.0,-2.0,1.219
-1.0,0.0,1.22
-6.0,-3.0,1.221
-3.0,-6.0,1.222
5.0,-6.0,1.223
12.0,-3.0,1.224
12.0,3.0,1.225
6.0,9.0,1.226
3.0,9.0,1.227
4.0,8.0,1.228
6.0,8.0,1.229
3.0,8.0,1.23
0.0,5.0,1.231
-1.0,1.0,1.232
0.0,0.0,1.233
0.0,-3.0,1.234
-1.0,-4.0,1.235
-1.0,-5.0,1.236
2.0,-5.0,1.237
5.0,-4.0,1.238
7.0,-8.0,1.239
4.0,-10.0,1.24
1.0,-9.0,1.241
0.0,-5.0,1.242
4.0,0.0,1.243
12.0,4.0,1.244
12.0,9.0,1.245
2.0,9.0,1.246
-3.0,6.0,1.247
2.0,0.0,1.248
12.0,0.0,1.249
10.0,3.0,1.25
1.0,2.0,1.251
-4.0,-1.0,1.252
-1.0,-2.0,1.253
2.0,0.0,1.254
0.0,-1.0,1.255
-2.0,-2.0,1.256
1.0,0.0,1.257
3.0,0.0,1.258
1.0,-1.0,1.259
-4.0,-2.0,1.26
-6.0,-4.0,1.261
-3.0,-5.0,1.262
3.0,-2.0,1.263
8.0,0.0,1.264
10.0,4.0,1.265
6.0,7.0,1.266
4.0,6.0,1.267
7.0,4.0,1.268
9.0,2.0,1.269
6.0,1.0,1.27
1.0,1.0,1.271
0.0,1.0,1.272
2.0,-1.0,1.273
1.0,-4.0,1.274
-1.0,-5.0,1.275
0.0,-7.0,1.276
5.0,-5.0,1.277
4.0,-3.0,1.278
1.0,-5.0,1.279
-2.0,-8.0,1.28
-2.0,-9.0,1.281
-3.0,-4.0,1.282
-2.0,0.0,1.283
0.0,3.0,1.284
1.0,4.0,1.285
3.0,7.0,1.286
1.0,8.0,1.287
0.0,7.0,1.288
2.0,3.0,1.289
4.0,2.0,1.29
4.0,3.0,1.291
3.0,3.0,1.292
6.0,1.0,1.293
8.0,-1.0,1.294
4.0,-4.0,1.295
1.0,-6.0,1.296
4.0,-6.0,1.297
7.0,-6.0,1.298
0.0,-5.0,1.299
-5.0,-4.0,1.3
-3.0,-8.0,1.301
0.0,-6.0,1.302
0.0,-3.0,1.303
2.0,-1.0,1.304
5.0,2.0,1.305
7.0,5.0,1.306
6.0,5.0,1.307
5.0,2.0,1.308
4.0,1.0,1.309
1.0,3.0,1.31
-1.0,3.0,1.311
2.0,0.0,1.312
4.0,-2.0,1.313
3.0,-4.0,1.314
3.0,-3.0,1.315
7.0,-3.0,1.316
9.0,-1.0,1.317
3.0,-1.0,1.318
-2.0,-2.0,1.319
-4.0,-4.0,1.32
-3.0,-6.0,1.321
-3.0,-7.0,1.322
0.0,-3.0,1.323
8.0,0.0,1.324
10.0,2.0,1.325
3.0,5.0,1.326
-1.0,5.0,1.327
3.0,6.0,1.328
9.0,4.0,1.329
7.0,2.0,1.33
4.0,-1.0,1.331
7.0,-3.0,1.332
11.0,-1.0,1.333
8.0,0.0,1.334
2.0,0.0,1.335
0.0,-1.0,1.336
0.0,-1.0,1.337
0.0,0.0,1.338
0.0,0.0,1.339
-1.0,-3.0,1.34
-3.0,-7.0,1.341
-7.0,-5.0,1.342
-6.0,-2.0,1.343
2.0,-1.0,1.344
8.0,2.0,1.345
5.0,7.0,1.346
5.0,9.0,1.347
10.0,4.0,1.348
13.0,-2.0,1.349
6.0,-1.0,1.35
-1.0,3.0,1.351
-2.0,3.0,1.352
-2.0,0.0,1.353
-2.0,-2.0,1.354
0.0,-1.0,1.355
4.0,-2.0,1.356
4.0,-3.0,1.357
0.0,-5.0,1.358
-1.0,-4.0,1.359
0.0,-4.0,1.36
-1.0,-6.0,1.361
-2.0,-3.0,1.362
2.0,2.0,1.363
10.0,5.0,1.364
11.0,4.0,1.365
6.0,3.0,1.366
4.0,5.0,1.367
9.0,4.0,1.368
9.0,1.0,1.369
2.0,2.0,1.37
-2.0,3.0,1.371
-1.0,2.0,1.372
0.0,-2.0,1.373
-1.0,-5.0,1.374
-1.0,-4.0,1.375
0.0,-2.0,1.376
3.0,-1.0,1.377
3.0,-5.0,1.378
2.0,-7.0,1.379
-2.0,-6.0,1.38
-6.0,-5.0,1.381
-5.0,-1.0,1.382
-1.0,-1.0,1.383
7.0,-1.0,1.384
9.0,1.0,1.385
7.0,7.0,1.386
5.0,9.0,1.387
8.0,5.0,1.388
11.0,0.0,1.389
9.0,1.0,1.39
7.0,3.0,1.391
7.0,0.0,1.392
5.0,-4.0,1.393
3.0,-4.0,1.394
1.0,-1.0,1.395
3.0,-1.0,1.396
5.0,-5.0,1.397
1.0,-7.0,1.398
-1.0,-4.0,1.399
-4.0,-2.0,1.4
-3.0,-6.0,1.401
-1.0,-9.0,1.402
2.0,-5.0,1.403
8.0,2.0,1.404
7.0,8.0,1.405
0.0,10.0,1.406
-2.0,6.0,1.407
2.0,2.0,1.408
8.0,0.0,1.409
3.0,-1.0,1.41
-3.0,-1.0,1.411
-4.0,-1.0,1.412
0.0,-3.0,1.413
3.0,-5.0,1.414
3.0,-4.0,1.415
3.0,-3.0,1.416
4.0,-2.0,1.417
1.0,-5.0,1.418
-1.0,-4.0,1.419
-1.0,-2.0,1.42
-1.0,0.0,1.421
-2.0,0.0,1.422
1.0,0.0,1.423
6.0,0.0,1.424
9.0,0.0,1.425
4.0,2.0,1.426
0.0,4.0,1.427
3.0,4.0,1.428
6.0,3.0,1.429
2.0,2.0,1.43
-2.0,2.0,1.431
2.0,0.0,1.432
6.0,-3.0,1.433
2.0,-4.0,1.434
-3.0,-5.0,1.435
-2.0,-4.0,1.436
4.0,-2.0,1.437
3.0,-1.0,1.438
1.0,-2.0,1.439
3.0,-4.0,1.44
8.0,-5.0,1.441
8.0,-3.0,1.442
3.0,2.0,1.443
4.0,4.0,1.444
8.0,7.0,1.445
8.0,8.0,1.446
4.0,5.0,1.447
6.0,1.0,1.448
10.0,2.0,1.449
8.0,5.0,1.45
1.0,2.0,1.451
-2.0,-5.0,1.452
-1.0,-8.0,1.453
0.0,-2.0,1.454
1.0,0.0,1.455
2.0,-4.0,1.456
3.0,-7.0,1.457
1.0,-4.0,1.458
-1.0,-2.0,1.459
-1.0,-3.0,1.46
-2.0,-8.0,1.461
-1.0,-6.0,1.462
4.0,1.0,1.463
10.0,2.0,1.464
11.0,3.0,1.465
3.0,5.0,1.466
-2.0,5.0,1.467
0.0,3.0,1.468
3.0,1.0,1.469
2.0,2.0,1.47
-1.0,1.0,1.471
-1.0,-4.0,1.472
0.0,-6.0,1.473
0.0,-5.0,1.474
-2.0,-3.0,1.475
0.0,-3.0,1.476
4.0,-3.0,1.477
5.0,-4.0,1.478
5.0,-3.0,1.479
0.0,-2.0,1.48
-2.0,-2.0,1.481
-4.0,-2.0,1.482
0.0,0.0,1.483
4.0,3.0,1.484
5.0,7.0,1.485
4.0,9.0,1.486
5.0,3.0,1.487
6.0,-1.0,1.488
3.0,-1.0,1.489
-1.0,0.0,1.49
-1.0,-1.0,1.491
2.0,-2.0,1.492
5.0,0.0,1.493
5.0,0.0,1.494
6.0,-4.0,1.495
7.0,-7.0,1.496
7.0,-7.0,1.497
2.0,-6.0,1.498
0.0,-4.0,1.499
-3.0,-2.0,1.5
-7.0,-1.0,1.501
-7.0,-1.0,1.502
-1.0,-4.0,1.503
9.0,-3.0,1.504
11.0,3.0,1.505
6.0,8.0,1.506
2.0,5.0,1.507
7.0,1.0,1.508
7.0,0.0,1.509
4.0,2.0,1.51
2.0,4.0,1.511
6.0,4.0,1.512
9.0,3.0,1.513
5.0,2.0,1.514
0.0,-2.0,1.515
1.0,-5.0,1.516
5.0,-2.0,1.517
9.0,-3.0,1.518
7.0,-5.0,1.519
2.0,-4.0,1.52
-4.0,-5.0,1.521
-6.0,-3.0,1.522
-1.0,0.0,1.523
7.0,1.0,1.524
7.0,3.0,1.525
1.0,3.0,1.526
-1.0,1.0,1.527
5.0,1.0,1.528
8.0,2.0,1.529
2.0,1.0,1.53
-1.0,-2.0,1.531
3.0,-5.0,1.532
9.0,-4.0,1.533
7.0,-1.0,1.534
0.0,0.0,1.535
-2.0,-1.0,1.536
-3.0,-3.0,1.537
-5.0,-6.0,1.538
-6.0,-7.0,1.539
-3.0,-6.0,1.54
-3.0,-7.0,1.541
-4.0,-7.0,1.542
-1.0,-1.0,1.543
7.0,5.0,1.544
9.0,8.0,1.545
6.0,9.0,1.546
5.0,8.0,1.547
9.0,8.0,1.548
13.0,5.0,1.549
10.0,0.0,1.55
7.0,-3.0,1.551
9.0,-3.0,1.552
10.0,-2.0,1.553
8.0,-2.0,1.554
1.0,-2.0,1.555
-3.0,-3.0,1.556
-4.0,-4.0,1.557
-4.0,-3.0,1.558
0.0,-2.0,1.559
0.0,-1.0,1.56
-4.0,-1.0,1.561
-9.0,0.0,1.562
-4.0,4.0,1.563
5.0,8.0,1.564
7.0,8.0,1.565
4.0,5.0,1.566
2.0,3.0,1.567
5.0,2.0,1.568
6.0,2.0,1.569
3.0,1.0,1.57
0.0,0.0,1.571
1.0,-1.0,1.572
4.0,-2.0,1.573
5.0,-3.0,1.574
1.0,-3.0,1.575
0.0,-2.0,1.576
3.0,-6.0,1.577
4.0,-3.0,1.578
3.0,-2.0,1.579
0.0,-1.0,1.58
-1.0,-1.0,1.581
1.0,0.0,1.582
7.0,4.0,1.583
11.0,7.0,1.584
12.0,7.0,1.585
6.0,5.0,1.586
1.0,3.0,1.587
2.0,2.0,1.588
4.0,2.0,1.589
0.0,1.0,1.59
-5.0,0.0,1.591
-6.0,-1.0,1.592
0.0,-2.0,1.593
4.0,-3.0,1.594
3.0,-3.0,1.595
2.0,-2.0,1.596
4.0,-6.0,1.597
4.0,-8.0,1.598
2.0,-6.0,1.599
0.0,-5.0,1.6
-1.0,-6.0,1.601
-3.0,-5.0,1.602
2.0,-3.0,1.603
6.0,-3.0,1.604
4.0,0.0,1.605
2.0,1.0,1.606
0.0,5.0,1.607
-2.0,5.0,1.608
-2.0,1.0,1.609
-3.0,-2.0,1.61
-1.0,-4.0,1.611
0.0,-2.0,1.612
1.0,-1.0,1.613
3.0,-4.0,1.614
2.0,-6.0,1.615
1.0,-6.0,1.616
1.0,0.0,1.617
2.0,2.0,1.618
4.0,-1.0,1.619
3.0,-3.0,1.62
-4.0,-6.0,1.621
-8.0,-5.0,1.622
-3.0,-3.0,1.623
10.0,-1.0,1.624
15.0,5.0,1.625
7.0,10.0,1.626
1.0,10.0,1.627
2.0,9.0,1.628
5.0,9.0,1.629
4.0,9.0,1.63
1.0,7.0,1.631
1.0,4.0,1.632
0.0,4.0,1.633
0.0,3.0,1.634
-1.0,0.0,1.635
0.0,-2.0,1.636
2.0,-3.0,1.637
3.0,-3.0,1.638
6.0,-2.0,1.639
6.0,-1.0,1.64
3.0,-1.0,1.641
6.0,0.0,1.642
13.0,3.0,1.643
18.0,6.0,1.644
13.0,7.0,1.645
3.0,7.0,1.646
4.0,5.0,1.647
12.0,3.0,1.648
14.0,2.0,1.649
9.0,0.0,1.65
6.0,-4.0,1.651
9.0,-6.0,1.652
8.0,-4.0,1.653
2.0,-2.0,1.654
1.0,-4.0,1.655
5.0,-7.0,1.656
8.0,-7.0,1.657
6.0,-8.0,1.658
3.0,-9.0,1.659
0.0,-9.0,1.66
-3.0,-8.0,1.661
-5.0,-6.0,1.662
-1.0,-5.0,1.663
5.0,-3.0,1.664
4.0,0.0,1.665
-3.0,3.0,1.666
-5.0,1.0,1.667
-2.0,-2.0,1.668
2.0,-1.0,1.669
0.0,2.0,1.67
-2.0,3.0,1.671
-3.0,0.0,1.672
-3.0,-6.0,1.673
-1.0,-6.0,1.674
-1.0,-5.0,1.675
-4.0,-5.0,1.676
-5.0,-3.0,1.677
-4.0,-3.0,1.678
-2.0,-4.0,1.679
-3.0,-6.0,1.68
-8.0,-9.0,1.681
-9.0,-4.0,1.682
-1.0,4.0,1.683
5.0,6.0,1.684
3.0,5.0,1.685
-1.0,7.0,1.686
0.0,9.0,1.687
9.0,7.0,1.688
10.0,2.0,1.689
4.0,1.0,1.69
2.0,3.0,1.691
5.0,2.0,1.692
5.0,-2.0,1.693
2.0,-4.0,1.694
0.0,-2.0,1.695
3.0,0.0,1.696
5.0,0.0,1.697
0.0,-2.0,1.698
-2.0,-4.0,1.699
-3.0,-1.0,1.7
-3.0,0.0,1.701
-3.0,1.0,1.702
2.0,0.0,1.703
12.0,0.0,1.704
14.0,2.0,1.705
9.0,5.0,1.706
4.0,4.0,1.707
6.0,1.0,1.708
12.0,0.0,1.709
13.0,3.0,1.71
6.0,2.0,1.711
1.0,-2.0,1.712
1.0,-5.0,1.713
6.0,-5.0,1.714
9.0,-4.0,1.715
6.0,-4.0,1.716
5.0,-3.0,1.717
1.0,-3.0,1.718
0.0,-1.0,1.719
-5.0,0.0,1.72
-6.0,-1.0,1.721
-4.0,-3.0,1.722
0.0,-1.0,1.723
7.0,1.0,1.724
10.0,5.0,1.725
9.0,8.0,1.726
6.0,6.0,1.727
5.0,5.0,1.728
4.0,4.0,1.729
3.0,2.0,1.73
3.0,-2.0,1.731
3.0,-5.0,1.732
2.0,-5.0,1.733
0.0,-6.0,1.734
-3.0,-7.0,1.735
-2.0,-7.0,1.736
1.0,-5.0,1.737
0.0,-3.0,1.738
-2.0,-3.0,1.739
-6.0,-7.0,1.74
-8.0,-8.0,1.741
-6.0,-3.0,1.742
-2.0,0.0,1.743
1.0,3.0,1.744
4.0,4.0,1.745
3.0,6.0,1.746
4.0,5.0,1.747
5.0,0.0,1.748
4.0,1.0,1.749
0.0,5.0,1.75
-1.0,6.0,1.751
2.0,3.0,1.752
3.0,0.0,1.753
0.0,-1.0,1.754
-2.0,-3.0,1.755
-1.0,-4.0,1.756
1.0,-1.0,1.757
1.0,1.0,1.758
0.0,1.0,1.759
-1.0,-1.0,1.76
-1.0,-2.0,1.761
0.0,1.0,1.762
4.0,4.0,1.763
9.0,3.0,1.764
10.0,4.0,1.765
6.0,6.0,1.766
2.0,7.0,1.767
5.0,4.0,1.768
11.0,1.0,1.769
11.0,2.0,1.77
10.0,1.0,1.771
8.0,-4.0,1.772
5.0,-7.0,1.773
3.0,-8.0,1.774
3.0,-3.0,1.775
7.0,-1.0,1.776
11.0,-3.0,1.777
6.0,-4.0,1.778
3.0,-4.0,1.779
2.0,-3.0,1.78
3.0,-4.0,1.781
0.0,-3.0,1.782
0.0,1.0,1.783
4.0,4.0,1.784
6.0,4.0,1.785
3.0,2.0,1.786
0.0,2.0,1.787
3.0,3.0,1.788
7.0,3.0,1.789
4.0,1.0,1.79
-2.0,-1.0,1.791
-5.0,-3.0,1.792
-4.0,-3.0,1.793
-3.0,-3.0,1.794
-1.0,-3.0,1.795
1.0,-4.0,1.796
1.0,-6.0,1.797
0.0,-7.0,1.798
0.0,-4.0,1.799
1.0,-1.0,1.8
-1.0,-1.0,1.801
-5.0,-1.0,1.802
-1.0,0.0,1.803
8.0,3.0,1.804
11.0,7.0,1.805
5.0,9.0,1.806
0.0,7.0,1.807
3.0,4.0,1.808
6.0,1.0,1.809
4.0,-1.0,1.81
3.0,-3.0,1.811
7.0,-5.0,1.812
6.0,-5.0,1.813
0.0,-4.0,1.814
-1.0,-4.0,1.815
3.0,-4.0,1.816
8.0,-4.0,1.817
6.0,-3.0,1.818
2.0,0.0,1.819
-2.0,-1.0,1.82
-5.0,-6.0,1.821
-7.0,-5.0,1.822
-5.0,0.0,1.823
2.0,2.0,1.824
5.0,5.0,1.825
1.0,8.0,1.826
-2.0,7.0,1.827
1.0,2.0,1.828
7.0,0.0,1.829
7.0,0.0,1.83
4.0,0.0,1.831
2.0,-2.0,1.832
1.0,-5.0,1.833
0.0,-3.0,1.834
1.0,-3.0,1.835
5.0,-6.0,1.836
10.0,-6.0,1.837
5.0,-4.0,1.838
0.0,-2.0,1.839
-3.0,-2.0,1.84
0.0,-5.0,1.841
2.0,-7.0,1.842
4.0,-6.0,1.843
5.0,-3.0,1.844
5.0,5.0,1.845
1.0,11.0,1.846
-1.0,13.0,1.847
1.0,8.0,1.848
4.0,2.0,1.849
2.0,0.0,1.85
0.0,-1.0,1.851
0.0,-2.0,1.852
4.0,-2.0,1.853
3.0,-1.0,1.854
1.0,-3.0,1.855
2.0,-5.0,1.856
7.0,-4.0,1.857
7.0,-5.0,1.858
3.0,-9.0,1.859
-2.0,-10.0,1.86
-4.0,-9.0,1.861
-3.0,-3.0,1.862
0.0,1.0,1.863
7.0,2.0,1.864
11.0,5.0,1.865
7.0,8.0,1.866
2.0,5.0,1.867
0.0,0.0,1.868
2.0,-1.0,1.869
3.0,0.0,1.87
3.0,1.0,1.871
3.0,-2.0,1.872
3.0,-2.0,1.873
3.0,0.0,1.874
3.0,-1.0,1.875
2.0,-3.0,1.876
2.0,-2.0,1.877
1.0,0.0,1.878
2.0,-1.0,1.879
0.0,-2.0,1.88
-3.0,-3.0,1.881
-4.0,-3.0,1.882
2.0,-1.0,1.883
14.0,1.0,1.884
14.0,5.0,1.885
6.0,8.0,1.886
2.0,7.0,1.887
7.0,5.0,1.888
8.0,3.0,1.889
3.0,1.0,1.89
-2.0,1.0,1.891
-2.0,1.0,1.892
0.0,0.0,1.893
-2.0,-2.0,1.894
-3.0,-4.0,1.895
0.0,-6.0,1.896
4.0,-6.0,1.897
2.0,0.0,1.898
-1.0,-1.0,1.899
-3.0,-2.0,1.9
-4.0,-3.0,1.901
-3.0,-3.0,1.902
1.0,-1.0,1.903
10.0,1.0,1.904
14.0,5.0,1.905
11.0,8.0,1.906
8.0,7.0,1.907
7.0,5.0,1.908
5.0,3.0,1.909
1.0,1.0,1.91
-2.0,1.0,1.911
-1.0,1.0,1.912
0.0,0.0,1.913
1.0,-2.0,1.914
2.0,-4.0,1.915
2.0,-6.0,1.916
2.0,-6.0,1.917
-2.0,-6.0,1.918
-3.0,-5.0,1.919
-4.0,-1.0,1.92
-6.0,-2.0,1.921
-7.0,-1.0,1.922
-1.0,0.0,1.923
10.0,2.0,1.924
15.0,4.0,1.925
11.0,7.0,1.926
3.0,8.0,1.927
2.0,6.0,1.928
5.0,4.0,1.929
5.0,0.0,1.93
2.0,-2.0,1.931
0.0,-4.0,1.932
1.0,-3.0,1.933
3.0,-2.0,1.934
5.0,-1.0,1.935
6.0,-1.0,1.936
7.0,-1.0,1.937
4.0,-3.0,1.938
-1.0,-5.0,1.939
-5.0,-5.0,1.94
-9.0,-6.0,1.941
-10.0,-4.0,1.942
-7.0,-2.0,1.943
0.0,0.0,1.944
1.0,4.0,1.945
-2.0,10.0,1.946
-3.0,10.0,1.947
1.0,3.0,1.948
1.0,0.0,1.949
-1.0,-2.0,1.95
0.0,-2.0,1.951
5.0,-5.0,1.952
10.0,-7.0,1.953
7.0,-4.0,1.954
5.0,-1.0,1.955
6.0,-1.0,1.956
8.0,-1.0,1.957
6.0,-1.0,1.958
4.0,0.0,1.959
2.0,1.0,1.96
0.0,0.0,1.961
-2.0,-3.0,1.962
1.0,-1.0,1.963
6.0,0.0,1.964
7.0,2.0,1.965
5.0,4.0,1.966
8.0,1.0,1.967
12.0,0.0,1.968
10.0,1.0,1.969
4.0,3.0,1.97
2.0,1.0,1.971
6.0,-1.0,1.972
8.0,-5.0,1.973
5.0,-8.0,1.974
1.0,-8.0,1.975
1.0,-7.0,1.976
2.0,-6.0,1.977
1.0,-5.0,1.978
-1.0,-2.0,1.979
-4.0,0.0,1.98
-3.0,-1.0,1.981
2.0,0.0,1.982
7.0,3.0,1.983
7.0,3.0,1.984
3.0,5.0,1.985
-1.0,6.0,1.986
-4.0,4.0,1.987
-4.0,1.0,1.988
-1.0,0.0,1.989
3.0,3.0,1.99
5.0,1.0,1.991
3.0,-3.0,1.992
0.0,-6.0,1.993
0.0,-5.0,1.994
2.0,-4.0,1.995
3.0,-3.0,1.996
6.0,-4.0,1.997
8.0,-2.0,1.998
10.0,-3.0,1.999
4.0,-2.0,2.0
-1.0,-3.0,2.001
-2.0,-3.0,2.002
1.0,0.0,2.003
5.0,1.0,2.004
6.0,4.0,2.005
3.0,4.0,2.006
2.0,1.0,2.007
4.0,-3.0,2.008
5.0,-4.0,2.009
0.0,-1.0,2.01
-4.0,0.0,2.011
-4.0,-2.0,2.012
0.0,-3.0,2.013
1.0,-4.0,2.014
0.0,-3.0,2.015
0.0,-1.0,2.016
3.0,1.0,2.017
6.0,2.0,2.018
7.0,1.0,2.019
3.0,-1.0,2.02
0.0,-4.0,2.021
0.0,-3.0,2.022
5.0,-1.0,2.023
12.0,-1.0,2.024
12.0,1.0,2.025
6.0,6.0,2.026
1.0,8.0,2.027
1.0,6.0,2.028
1.0,3.0,2.029
0.0,2.0,2.03
0.0,-2.0,2.031
1.0,-7.0,2.032
0.0,-8.0,2.033
-1.0,-3.0,2.034
-3.0,-1.0,2.035
0.0,-4.0,2.036
5.0,-6.0,2.037
6.0,-6.0,2.038
3.0,-1.0,2.039
-1.0,2.0,2.04
-4.0,0.0,2.041
-5.0,-1.0,2.042
0.0,3.0,2.043
5.0,6.0,2.044
8.0,6.0,2.045
5.0,5.0,2.046
6.0,6.0,2.047
11.0,7.0,2.048
11.0,5.0,2.049
6.0,3.0,2.05
2.0,0.0,2.051
1.0,-3.0,2.052
2.0,-3.0,2.053
0.0,-4.0,2.054
0.0,-4.0,2.055
2.0,-3.0,2.056
4.0,-3.0,2.057
2.0,-2.0,2.058
0.0,-3.0,2.059
-1.0,-4.0,2.06
-1.0,-7.0,2.061
-1.0,-5.0,2.062
1.0,1.0,2.063
4.0,4.0,2.064
6.0,6.0,2.065
8.0,5.0,2.066
5.0,2.0,2.067
2.0,0.0,2.068
3.0,-1.0,2.069
4.0,0.0,2.07
1.0,0.0,2.071
-2.0,-2.0,2.072
-1.0,-3.0,2.073
0.0,-3.0,2.074
1.0,-3.0,2.075
3.0,-4.0,2.076
3.0,-6.0,2.077
2.0,-5.0,2.078
2.0,-4.0,2.079
0.0,-4.0,2.08
-4.0,-5.0,2.081
-6.0,-2.0,2.082
0.0,0.0,2.083
8.0,2.0,2.084
9.0,3.0,2.085
1.0,6.0,2.086
-1.0,5.0,2.087
4.0,1.0,2.088
9.0,-1.0,2.089
4.0,0.0,2.09
2.0,1.0,2.091
6.0,-2.0,2.092
8.0,-5.0,2.093
3.0,-6.0,2.094
-2.0,-5.0,2.095
0.0,-5.0,2.096
4.0,-4.0,2.097
5.0,-5.0,2.098
3.0,-7.0,2.099
1.0,-8.0,2.1
-3.0,-8.0,2.101
-6.0,-6.0,2.102
-3.0,-3.0,2.103
7.0,0.0,2.104
13.0,6.0,2.105
9.0,9.0,2.106
4.0,6.0,2.107
4.0,4.0,2.108
4.0,3.0,2.109
1.0,4.0,2.11
1.0,1.0,2.111
5.0,-1.0,2.112
5.0,-2.0,2.113
2.0,0.0,2.114
2.0,-1.0,2.115
4.0,-4.0,2.116
5.0,-3.0,2.117
1.0,-4.0,2.118
0.0,-1.0,2.119
1.0,1.0,2.12
0.0,0.0,2.121
0.0,-2.0,2.122
2.0,0.0,2.123
9.0,2.0,2.124
10.0,6.0,2.125
0.0,9.0,2.126
-6.0,7.0,2.127
-5.0,5.0,2.128
-2.0,2.0,2.129
-1.0,0.0,2.13
-1.0,-1.0,2.131
2.0,-2.0,2.132
4.0,-5.0,2.133
3.0,-8.0,2.134
3.0,-8.0,2.135
5.0,-7.0,2.136
5.0,-3.0,2.137
5.0,0.0,2.138
5.0,-2.0,2.139
3.0,-2.0,2.14
-2.0,-3.0,2.141
-4.0,-2.0,2.142
4.0,-1.0,2.143
16.0,-1.0,2.144
14.0,3.0,2.145
2.0,8.0,2.146
-2.0,8.0,2.147
4.0,6.0,2.148
9.0,1.0,2.149
5.0,-1.0,2.15
2.0,-4.0,2.151
3.0,-7.0,2.152
3.0,-6.0,2.153
0.0,-4.0,2.154
-1.0,-5.0,2.155
2.0,-7.0,2.156
7.0,-6.0,2.157
6.0,-4.0,2.158
2.0,-1.0,2.159
-2.0,-2.0,2.16
-5.0,-4.0,2.161
-6.0,-3.0,2.162
0.0,1.0,2.163
10.0,6.0,2.164
11.0,10.0,2.165
5.0,9.0,2.166
0.0,6.0,2.167
3.0,3.0,2.168
5.0,3.0,2.169
0.0,1.0,2.17
-2.0,-2.0,2.171
-1.0,-4.0,2.172
2.0,-3.0,2.173
1.0,-2.0,2.174
0.0,-5.0,2.175
2.0,-7.0,2.176
6.0,-7.0,2.177
2.0,-7.0,2.178
-2.0,-9.0,2.179
-4.0,-8.0,2.18
-2.0,-7.0,2.181
-1.0,-6.0,2.182
0.0,-4.0,2.183
4.0,1.0,2.184
5.0,7.0,2.185
2.0,9.0,2.186
0.0,4.0,2.187
1.0,0.0,2.188
2.0,0.0,2.189
3.0,0.0,2.19
4.0,-2.0,2.191
9.0,-4.0,2.192
9.0,-3.0,2.193
4.0,-2.0,2.194
1.0,-2.0,2.195
3.0,-4.0,2.196
5.0,-4.0,2.197
1.0,-7.0,2.198
-1.0,-6.0,2.199
-4.0,-5.0,2.2
-7.0,-5.0,2.201
-9.0,-3.0,2.202
-6.0,1.0,2.203
1.0,4.0,2.204
7.0,7.0,2.205
6.0,9.0,2.206
6.0,6.0,2.207
11.0,4.0,2.208
13.0,2.0,2.209
8.0,0.0,2.21
4.0,-1.0,2.211
4.0,-3.0,2.212
4.0,-1.0,2.213
-1.0,1.0,2.214
-3.0,1.0,2.215
-1.0,0.0,2.216
1.0,1.0,2.217
0.0,1.0,2.218
0.0,0.0,2.219
2.0,1.0,2.22
1.0,-1.0,2.221
-4.0,-3.0,2.222
-3.0,0.0,2.223
5.0,6.0,2.224
10.0,9.0,2.225
8.0,8.0,2.226
5.0,7.0,2.227
9.0,7.0,2.228
10.0,5.0,2.229
3.0,3.0,2.23
-1.0,2.0,2.231
0.0,0.0,2.232
4.0,0.0,2.233
4.0,-1.0,2.234
4.0,-2.0,2.235
8.0,-2.0,2.236
12.0,-3.0,2.237
11.0,-3.0,2.238
9.0,-2.0,2.239
6.0,0.0,2.24
2.0,-3.0,2.241
1.0,-3.0,2.242
5.0,0.0,2.243
12.0,4.0,2.244
10.0,8.0,2.245
3.0,8.0,2.246
0.0,5.0,2.247
3.0,2.0,2.248
5.0,-1.0,2.249
2.0,-5.0,2.25
0.0,-6.0,2.251
1.0,-6.0,2.252
3.0,-5.0,2.253
4.0,-6.0,2.254
5.0,-7.0,2.255
4.0,-7.0,2.256
1.0,-4.0,2.257
-3.0,-4.0,2.258
-7.0,-4.0,2.259
-10.0,-3.0,2.26
-11.0,-3.0,2.261
-9.0,-1.0,2.262
-2.0,-1.0,2.263
6.0,-2.0,2.264
4.0,0.0,2.265
-5.0,3.0,2.266
-8.0,4.0,2.267
-2.0,1.0,2.268
1.0,-2.0,2.269
-2.0,-3.0,2.27
-7.0,-4.0,2.271
-4.0,-5.0,2.272
0.0,-6.0,2.273
1.0,-4.0,2.274
1.0,-2.0,2.275
8.0,-4.0,2.276
15.0,-5.0,2.277
14.0,-5.0,2.278
8.0,-3.0,2.279
0.0,-2.0,2.28
-3.0,-2.0,2.281
-4.0,-1.0,2.282
1.0,0.0,2.283
9.0,2.0,2.284
14.0,3.0,2.285
9.0,4.0,2.286
4.0,5.0,2.287
5.0,5.0,2.288
4.0,2.0,2.289
1.0,-1.0,2.29
-2.0,-1.0,2.291
0.0,-1.0,2.292
4.0,-1.0,2.293
5.0,0.0,2.294
5.0,0.0,2.295
7.0,0.0,2.296
6.0,0.0,2.297
3.0,-2.0,2.298
3.0,-5.0,2.299
2.0,-5.0,2.3
1.0,-5.0,2.301
-1.0,-4.0,2.302
3.0,-3.0,2.303
12.0,1.0,2.304
12.0,6.0,2.305
5.0,7.0,2.306
0.0,5.0,2.307
1.0,3.0,2.308
1.0,3.0,2.309
0.0,2.0,2.31
-2.0,1.0,2.311
-1.0,-1.0,2.312
-2.0,-3.0,2.313
-3.0,-4.0,2.314
-3.0,-4.0,2.315
0.0,-2.0,2.316
5.0,2.0,2.317
4.0,0.0,2.318
1.0,-1.0,2.319
-4.0,-2.0,2.32
-8.0,-1.0,2.321
-6.0,-1.0,2.322
5.0,-2.0,2.323
16.0,0.0,2.324
17.0,5.0,2.325
11.0,7.0,2.326
6.0,5.0,2.327
3.0,3.0,2.328
2.0,0.0,2.329
0.0,-2.0,2.33
1.0,-5.0,2.331
5.0,-6.0,2.332
5.0,-5.0,2.333
2.0,-2.0,2.334
-3.0,-2.0,2.335
-5.0,-4.0,2.336
-4.0,-2.0,2.337
-2.0,-2.0,2.338
3.0,-2.0,2.339
3.0,-2.0,2.34
-3.0,-4.0,2.341
-5.0,-2.0,2.342
2.0,-1.0,2.343
14.0,0.0,2.344
15.0,6.0,2.345
5.0,12.0,2.346
-1.0,12.0,2.347
-1.0,4.0,2.348
0.0,-6.0,2.349
0.0,-7.0,2.35
1.0,-2.0,2.351
2.0,-2.0,2.352
3.0,-6.0,2.353
2.0,-7.0,2.354
3.0,-3.0,2.355
4.0,-1.0,2.356
5.0,-2.0,2.357
6.0,-3.0,2.358
5.0,0.0,2.359
1.0,1.0,2.36
-3.0,-1.0,2.361
-2.0,-4.0,2.362
5.0,-4.0,2.363
9.0,-2.0,2.364
4.0,2.0,2.365
-1.0,6.0,2.366
1.0,6.0,2.367
7.0,4.0,2.368
7.0,2.0,2.369
3.0,0.0,2.37
2.0,0.0,2.371
2.0,-1.0,2.372
2.0,-3.0,2.373
1.0,-6.0,2.374
2.0,-4.0,2.375
4.0,-3.0,2.376
5.0,-1.0,2.377
4.0,0.0,2.378
2.0,-1.0,2.379
-3.0,-3.0,2.38
-8.0,-6.0,2.381
-10.0,-5.0,2.382
-3.0,0.0,2.383
7.0,5.0,2.384
9.0,8.0,2.385
5.0,8.0,2.386
1.0,7.0,2.387
0.0,7.0,2.388
-1.0,6.0,2.389
-2.0,4.0,2.39
-1.0,2.0,2.391
1.0,-1.0,2.392
5.0,-4.0,2.393
10.0,-6.0,2.394
14.0,-5.0,2.395
15.0,-3.0,2.396
14.0,-2.0,2.397
7.0,-3.0,2.398
4.0,-4.0,2.399
-3.0,-4.0,2.4
-13.0,-5.0,2.401
-19.0,-2.0,2.402
-10.0,-1.0,2.403
1.0,1.0,2.404
3.0,3.0,2.405
-3.0,5.0,2.406
-3.0,4.0,2.407
6.0,0.0,2.408
15.0,-3.0,2.409
13.0,-4.0,2.41
10.0,-6.0,2.411
13.0,-7.0,2.412
15.0,-5.0,2.413
10.0,-1.0,2.414
3.0,0.0,2.415
3.0,-3.0,2.416
7.0,-4.0,2.417
4.0,-5.0,2.418
-1.0,-3.0,2.419
-2.0,0.0,2.42
0.0,-1.0,2.421
-1.0,-1.0,2.422
1.0,1.0,2.423
5.0,5.0,2.424
7.0,10.0,2.425
2.0,10.0,2.426
-1.0,8.0,2.427
3.0,4.0,2.428
4.0,3.0,2.429
-2.0,3.0,2.43
-6.0,0.0,2.431
-1.0,-7.0,2.432
3.0,-10.0,2.433
0.0,-9.0,2.434
-4.0,-2.0,2.435
-3.0,2.0,2.436
1.0,3.0,2.437
4.0,4.0,2.438
3.0,4.0,2.439
2.0,4.0,2.44
1.0,-1.0,2.441
-1.0,-4.0,2.442
0.0,-2.0,2.443
3.0,1.0,2.444
4.0,7.0,2.445
3.0,11.0,2.446
6.0,5.0,2.447
8.0,-1.0,2.448
3.0,-7.0,2.449
-4.0,-12.0,2.45
-5.0,-10.0,2.451
-1.0,-8.0,2.452
2.0,-6.0,2.453
6.0,-5.0,2.454
14.0,-5.0,2.455
22.0,-6.0,2.456
23.0,-7.0,2.457
13.0,-8.0,2.458
1.0,-3.0,2.459
-10.0,1.0,2.46
-14.0,-1.0,2.461
-15.0,0.0,2.462
-5.0,4.0,2.463
2.0,9.0,2.464
2.0,9.0,2.465
3.0,7.0,2.466
2.0,4.0,2.467
1.0,2.0,2.468
1.0,9.0,2.469
2.0,28.0,2.47
4.0,50.0,2.471
7.0,59.0,2.472
8.0,42.0,2.473
9.0,15.0,2.474
6.0,-4.0,2.475
4.0,-15.0,2.476
5.0,-25.0,2.477
6.0,-30.0,2.478
3.0,-26.0,2.479
-5.0,-8.0,2.48
-11.0,15.0,2.481
-9.0,43.0,2.482
1.0,51.0,2.483
14.0,21.0,2.484
17.0,-30.0,2.485
14.0,-68.0,2.486
14.0,-77.0,2.487
14.0,-76.0,2.488
9.0,-58.0,2.489
1.0,2.0,2.49
1.0,88.0,2.491
5.0,134.0,2.492
6.0,108.0,2.493
2.0,60.0,2.494
-1.0,59.0,2.495
-1.0,105.0,2.496
1.0,132.0,2.497
0.0,94.0,2.498
0.0,9.0,2.499
2.0,-78.0,2.5
3.0,-155.0,2.501
2.0,-215.0,2.502
0.0,-242.0,2.503
1.0,-214.0,2.504
3.0,-149.0,2.505
9.0,-96.0,2.506
16.0,-83.0,2.507
18.0,-88.0,2.508
12.0,-87.0,2.509
9.0,-76.0,2.51
13.0,-66.0,2.511
15.0,-58.0,2.512
6.0,-46.0,2.513
-8.0,-30.0,2.514
-15.0,-16.0,2.515
-15.0,0.0,2.516
-16.0,25.0,2.517
-21.0,60.0,2.518
-19.0,100.0,2.519
-15.0,127.0,2.52
-12.0,117.0,2.521
-8.0,107.0,2.522
1.0,101.0,2.523
14.0,98.0,2.524
11.0,102.0,2.525
2.0,115.0,2.526
-3.0,152.0,2.527
-3.0,187.0,2.528
-4.0,211.0,2.529
-4.0,214.0,2.53
-2.0,155.0,2.531
1.0,88.0,2.532
1.0,-2.0,2.533
0.0,-77.0,2.534
-2.0,-104.0,2.535
-6.0,-125.0,2.536
-10.0,-125.0,2.537
-13.0,-133.0,2.538
-9.0,-174.0,2.539
-4.0,-209.0,2.54
-4.0,-213.0,2.541
0.0,-164.0,2.542
14.0,-75.0,2.543
26.0,8.0,2.544
23.0,52.0,2.545
9.0,78.0,2.546
3.0,127.0,2.547
7.0,190.0,2.548
12.0,209.0,2.549
11.0,158.0,2.55
7.0,77.0,2.551
5.0,11.0,2.552
4.0,-33.0,2.553
11.0,-74.0,2.554
34.0,-111.0,2.555
65.0,-133.0,2.556
85.0,-127.0,2.557
84.0,-46.0,2.558
68.0,75.0,2.559
43.0,147.0,2.56
8.0,89.0,2.561
-24.0,-38.0,2.562
-36.0,-100.0,2.563
-35.0,-44.0,2.564
-43.0,37.0,2.565
-58.0,43.0,2.566
-56.0,-21.0,2.567
-31.0,-84.0,2.568
-7.0,-120.0,2.569
-6.0,-160.0,2.57
-14.0,-209.0,2.571
-7.0,-225.0,2.572
10.0,-193.0,2.573
15.0,-149.0,2.574
5.0,-128.0,2.575
-4.0,-112.0,2.576
-5.0,-70.0,2.577
-9.0,0.0,2.578
-15.0,67.0,2.579
-18.0,106.0,2.58
-12.0,122.0,2.581
0.0,141.0,2.582
11.0,162.0,2.583
23.0,157.0,2.584
30.0,112.0,2.585
23.0,59.0,2.586
0.0,43.0,2.587
-21.0,71.0,2.588
-24.0,99.0,2.589
-13.0,104.0,2.59
2.0,108.0,2.591
11.0,123.0,2.592
15.0,112.0,2.593
20.0,49.0,2.594
28.0,-28.0,2.595
32.0,-58.0,2.596
26.0,-45.0,2.597
8.0,27.0,2.598
-17.0,66.0,2.599
-52.0,103.0,2.6
-85.0,135.0,2.601
-95.0,154.0,2.602
-70.0,131.0,2.603
-27.0,130.0,2.604
-1.0,195.0,2.605
5.0,280.0,2.606
14.0,422.0,2.607
24.0,507.0,2.608
19.0,423.0,2.609
0.0,298.0,2.61
2.0,52.0,2.611
30.0,-170.0,2.612
60.0,-312.0,2.613
68.0,-371.0,2.614
64.0,-179.0,2.615
67.0,-37.0,2.616
76.0,-47.0,2.617
72.0,-14.0,2.618
55.0,50.0,2.619
30.0,112.0,2.62
10.0,164.0,2.621
-2.0,195.0,2.622
-11.0,158.0,2.623
-18.0,156.0,2.624
-5.0,262.0,2.625
49.0,401.0,2.626
113.0,633.0,2.627
128.0,773.0,2.628
91.0,635.0,2.629
67.0,431.0,2.63
69.0,27.0,2.631
22.0,-335.0,2.632
-95.0,-568.0,2.633
-176.0,-664.0,2.634
-128.0,-350.0,2.635
-27.0,-118.0,2.636
-4.0,-135.0,2.637
-55.0,-230.0,2.638
-76.0,-600.0,2.639
-42.0,-994.0,2.64
-32.0,-1382.0,2.641
-68.0,-1709.0,2.642
-73.0,-1801.0,2.643
-18.0,-1495.0,2.644
34.0,-871.0,2.645
50.0,-239.0,2.646
68.0,163.0,2.647
94.0,372.0,2.648
80.0,552.0,2.649
6.0,774.0,2.65
-76.0,1004.0,2.651
-117.0,1205.0,2.652
-116.0,1334.0,2.653
-89.0,1305.0,2.654
-55.0,1073.0,2.655
-42.0,706.0,2.656
-47.0,334.0,2.657
-40.0,-55.0,2.658
2.0,-425.0,2.659
39.0,-681.0,2.66
39.0,-736.0,2.661
25.0,-625.0,2.662
23.0,-453.0,2.663
4.0,-238.0,2.664
-39.0,50.0,2.665
-51.0,339.0,2.666
-14.0,482.0,2.667
8.0,452.0,2.668
-16.0,364.0,2.669
-18.0,286.0,2.67
38.0,166.0,2.671
75.0,-10.0,2.672
27.0,-143.0,2.673
-28.0,-153.0,2.674
-8.0,-66.0,2.675
48.0,68.0,2.676
58.0,203.0,2.677
37.0,286.0,2.678
57.0,291.0,2.679
110.0,333.0,2.68
135.0,549.0,2.681
130.0,848.0,2.682
138.0,952.0,2.683
144.0,753.0,2.684
104.0,436.0,2.685
48.0,137.0,2.686
40.0,-243.0,2.687
71.0,-764.0,2.688
68.0,-1201.0,2.689
9.0,-1293.0,2.69
-50.0,-1066.0,2.691
-71.0,-734.0,2.692
-80.0,-366.0,2.693
-105.0,95.0,2.694
-136.0,583.0,2.695
-154.0,883.0,2.696
-160.0,897.0,2.697
-163.0,650.0,2.698
-154.0,229.0,2.699
-128.0,-207.0,2.7
-91.0,-691.0,2.701
-54.0,-1013.0,2.702
-20.0,-849.0,2.703
5.0,-633.0,2.704
17.0,-264.0,2.705
20.0,40.0,2.706
36.0,149.0,2.707
65.0,247.0,2.708
84.0,312.0,2.709
79.0,381.0,2.71
65.0,461.0,2.711
65.0,481.0,2.712
81.0,322.0,2.713
117.0,103.0,2.714
172.0,-297.0,2.715
206.0,-670.0,2.716
163.0,-959.0,2.717
27.0,-1200.0,2.718
-105.0,-1120.0,2.719
-119.0,-713.0,2.72
-36.0,-214.0,2.721
13.0,109.0,2.722
-40.0,309.0,2.723
-124.0,645.0,2.724
-133.0,1127.0,2.725
-67.0,1416.0,2.726
-2.0,1235.0,2.727
4.0,668.0,2.728
-35.0,2.0,2.729
-63.0,-537.0,2.73
-46.0,-836.0,2.731
3.0,-826.0,2.732
42.0,-543.0,2.733
53.0,-177.0,2.734
65.0,74.0,2.735
102.0,175.0,2.736
141.0,209.0,2.737
149.0,216.0,2.738
125.0,194.0,2.739
72.0,176.0,2.74
-7.0,172.0,2.741
-101.0,180.0,2.742
-163.0,226.0,2.743
-174.0,301.0,2.744
-177.0,457.0,2.745
-188.0,612.0,2.746
-153.0,763.0,2.747
-44.0,844.0,2.748
59.0,714.0,2.749
67.0,538.0,2.75
21.0,224.0,2.751
13.0,-67.0,2.752
42.0,-290.0,2.753
38.0,-442.0,2.754
6.0,-380.0,2.755
9.0,-276.0,2.756
48.0,-49.0,2.757
62.0,136.0,2.758
37.0,27.0,2.759
21.0,-303.0,2.76
32.0,-596.0,2.761
38.0,-815.0,2.762
35.0,-1135.0,2.763
55.0,-1477.0,2.764
83.0,-1478.0,2.765
75.0,-1027.0,2.766
44.0,-489.0,2.767
45.0,-188.0,2.768
78.0,-39.0,2.769
95.0,161.0,2.77
83.0,403.0,2.771
67.0,611.0,2.772
50.0,812.0,2.773
9.0,980.0,2.774
-32.0,984.0,2.775
-27.0,795.0,2.776
8.0,558.0,2.777
20.0,480.0,2.778
-9.0,350.0,2.779
-43.0,240.0,2.78
-50.0,193.0,2.781
-51.0,193.0,2.782
-62.0,338.0,2.783
-56.0,454.0,2.784
-18.0,478.0,2.785
21.0,457.0,2.786
17.0,304.0,2.787
-21.0,162.0,2.788
-48.0,56.0,2.789
-37.0,-23.0,2.79
-17.0,-17.0,2.791
-33.0,-22.0,2.792
-88.0,-58.0,2.793
-148.0,-135.0,2.794
-186.0,-335.0,2.795
-191.0,-546.0,2.796
-157.0,-793.0,2.797
-83.0,495.0,2.798
-7.0,360.0,2.799
21.0,246.0,2.8
9.0,197.0,2.801
5.0,197.0,2.802
26.0,348.0,2.803
36.0,468.0,2.804
11.0,493.0,2.805
-10.0,472.0,2.806
15.0,313.0,2.807
84.0,165.0,2.808
160.0,54.0,2.809
203.0,-28.0,2.81
183.0,-22.0,2.811
109.0,-27.0,2.812
50.0,-64.0,2.813
53.0,-144.0,2.814
78.0,-352.0,2.815
46.0,-571.0,2.816
-32.0,-827.0,2.817
-86.0,-1084.0,2.818
-73.0,-1255.0,2.819
-47.0,-1198.0,2.82
-58.0,-918.0,2.821
-76.0,-493.0,2.822
-54.0,20.0,2.823
-11.0,602.0,2.824
15.0,1164.0,2.825
21.0,1520.0,2.826
24.0,1506.0,2.827
28.0,1121.0,2.828
29.0,487.0,2.829
40.0,-259.0,2.83
66.0,-942.0,2.831
91.0,-1289.0,2.832
106.0,-1102.0,2.833
124.0,-545.0,2.834
148.0,-68.0,2.835
161.0,50.0,2.836
157.0,-61.0,2.837
131.0,-196.0,2.838
86.0,-262.0,2.839
7.0,-317.0,2.84
-89.0,-294.0,2.841
-141.0,-77.0,2.842
-118.0,313.0,2.843
-75.0,752.0,2.844
-93.0,1092.0,2.845
-164.0,1212.0,2.846
-194.0,1071.0,2.847
-147.0,761.0,2.848
-82.0,385.0,2.849
-45.0,-33.0,2.85
-15.0,-438.0,2.851
31.0,-622.0,2.852
57.0,-446.0,2.853
31.0,-73.0,2.854
-10.0,184.0,2.855
-24.0,165.0,2.856
-20.0,-92.0,2.857
-16.0,-1619.0,2.858
10.0,-1039.0,2.859
72.0,-483.0,2.86
127.0,2.0,2.861
119.0,296.0,2.862
49.0,16.0,2.863
-51.0,-273.0,2.864
-150.0,-592.0,2.865
-203.0,-746.0,2.866
-177.0,-401.0,2.867
-94.0,-38.0,2.868
-26.0,374.0,2.869
3.0,722.0,2.87
41.0,876.0,2.871
101.0,997.0,2.872
133.0,1020.0,2.873
108.0,992.0,2.874
76.0,809.0,2.875
82.0,539.0,2.876
98.0,8.0,2.877
79.0,-1465.0,2.878
43.0,-938.0,2.879
21.0,-433.0,2.88
7.0,8.0,2.881
-25.0,276.0,2.882
-67.0,21.0,2.883
-87.0,-242.0,2.884
-78.0,-532.0,2.885
-50.0,-672.0,2.886
-29.0,-358.0,2.887
-50.0,-28.0,2.888
-111.0,347.0,2.889
-148.0,663.0,2.89
-100.0,803.0,2.891
-11.0,913.0,2.892
23.0,934.0,2.893
-12.0,908.0,2.894
-24.0,742.0,2.895
40.0,497.0,2.896
123.0,13.0,2.897
160.0,-513.0,2.898
154.0,-1129.0,2.899
144.0,-1570.0,2.9
139.0,-1716.0,2.901
123.0,-1492.0,2.902
105.0,-953.0,2.903
102.0,-352.0,2.904
96.0,52.0,2.905
64.0,247.0,2.906
14.0,391.0,2.907
-31.0,524.0,2.908
-70.0,533.0,2.909
-103.0,400.0,2.91
-113.0,298.0,2.911
-96.0,401.0,2.912
-72.0,711.0,2.913
-63.0,1073.0,2.914
-59.0,1310.0,2.915
-37.0,1303.0,2.916
-1.0,1081.0,2.917
33.0,712.0,2.918
62.0,283.0,2.919
81.0,-201.0,2.92
99.0,-666.0,2.921
118.0,-856.0,2.922
135.0,-601.0,2.923
119.0,-129.0,2.924
43.0,84.0,2.925
-65.0,-172.0,2.926
-147.0,-660.0,2.927
-172.0,-1012.0,2.928
-165.0,-1057.0,2.929
-165.0,-771.0,2.93
-172.0,-204.0,2.931
-157.0,463.0,2.932
-104.0,920.0,2.933
-41.0,962.0,2.934
-15.0,660.0,2.935
-33.0,243.0,2.936
-51.0,-73.0,2.937
-31.0,-240.0,2.938
20.0,330.0,2.939
67.0,871.0,2.94
110.0,1326.0,2.941
165.0,1679.0,2.942
222.0,1717.0,2.943
233.0,1636.0,2.944
195.0,1201.0,2.945
136.0,700.0,2.946
81.0,9.0,2.947
34.0,-544.0,2.948
11.0,-687.0,2.949
15.0,-709.0,2.95
2.0,-363.0,2.951
-58.0,-27.0,2.952
-126.0,269.0,2.953
-141.0,508.0,2.954
-121.0,578.0,2.955
-129.0,637.0,2.956
-149.0,660.0,2.957
-110.0,77.0,2.958
-4.0,395.0,2.959
74.0,698.0,2.96
77.0,952.0,2.961
60.0,1149.0,2.962
81.0,1170.0,2.963
106.0,1125.0,2.964
86.0,882.0,2.965
38.0,602.0,2.966
-1.0,216.0,2.967
-26.0,-93.0,2.968
-38.0,-173.0,2.969
-18.0,-185.0,2.97
27.0,8.0,2.971
58.0,196.0,2.972
59.0,361.0,2.973
51.0,495.0,2.974
41.0,534.0,2.975
0.0,567.0,2.976
-74.0,580.0,2.977
-154.0,563.0,2.978
-198.0,369.0,2.979
-204.0,71.0,2.98
-180.0,-113.0,2.981
-123.0,8.0,2.982
-48.0,382.0,2.983
4.0,762.0,2.984
28.0,950.0,2.985
51.0,918.0,2.986
92.0,689.0,2.987
127.0,216.0,2.988
136.0,-557.0,2.989
123.0,-1502.0,2.99
103.0,-2233.0,2.991
84.0,-2352.0,2.992
73.0,-1816.0,2.993
67.0,-966.0,2.994
53.0,-172.0,2.995
24.0,392.0,2.996
0.0,674.0,2.997
-18.0,676.0,2.998
-36.0,483.0,2.999
-55.0,219.0,3.0
-43.0,-153.0,3.001
9.0,-731.0,3.002
52.0,-1286.0,3.003
47.0,-1327.0,3.004
26.0,-730.0,3.005
30.0,39.0,3.006
32.0,535.0,3.007
0.0,795.0,3.008
-30.0,1012.0,3.009
1.0,1094.0,3.01
74.0,852.0,3.011
112.0,363.0,3.012
100.0,-145.0,3.013
76.0,-565.0,3.014
45.0,-797.0,3.015
-22.0,-647.0,3.016
-105.0,-143.0,3.017
-146.0,1460.0,3.018
-108.0,1978.0,3.019
-49.0,2249.0,3.02
-34.0,1780.0,3.021
-69.0,1070.0,3.022
-100.0,-354.0,3.023
-102.0,-1509.0,3.024
-94.0,-1853.0,3.025
-87.0,-1889.0,3.026
-62.0,-1001.0,3.027
-19.0,-228.0,3.028
13.0,203.0,3.029
12.0,545.0,3.03
-1.0,615.0,3.031
-6.0,607.0,3.032
-5.0,360.0,3.033
-2.0,159.0,3.034
20.0,90.0,3.035
55.0,-39.0,3.036
69.0,-343.0,3.037
40.0,1561.0,3.038
-8.0,2120.0,3.039
-41.0,2413.0,3.04
-53.0,1906.0,3.041
-45.0,1140.0,3.042
-6.0,-398.0,3.043
53.0,-1645.0,3.044
89.0,-2016.0,3.045
72.0,-2055.0,3.046
43.0,-1097.0,3.047
54.0,-262.0,3.048
98.0,204.0,3.049
134.0,573.0,3.05
147.0,649.0,3.051
156.0,640.0,3.052
153.0,374.0,3.053
112.0,156.0,3.054
42.0,81.0,3.055
-15.0,-58.0,3.056
-31.0,-386.0,3.057
-17.0,-732.0,3.058
6.0,-968.0,3.059
14.0,-775.0,3.06
-24.0,-104.0,3.061
-107.0,717.0,3.062
-180.0,1161.0,3.063
-188.0,969.0,3.064
-142.0,358.0,3.065
-105.0,-275.0,3.066
-103.0,-685.0,3.067
-107.0,-805.0,3.068
-84.0,-643.0,3.069
-40.0,-280.0,3.07
12.0,110.0,3.071
65.0,399.0,3.072
101.0,605.0,3.073
106.0,823.0,3.074
95.0,1080.0,3.075
88.0,1295.0,3.076
81.0,1396.0,3.077
56.0,1412.0,3.078
26.0,1441.0,3.079
5.0,1451.0,3.08
-14.0,1151.0,3.081
-52.0,269.0,3.082
-88.0,-1033.0,3.083
-85.0,-2155.0,3.084
-46.0,-2607.0,3.085
-2.0,-2416.0,3.086
31.0,-1922.0,3.087
54.0,-1365.0,3.088
59.0,-789.0,3.089
45.0,-153.0,3.09
19.0,589.0,3.091
-21.0,1454.0,3.092
-78.0,2323.0,3.093
-117.0,2904.0,3.094
-93.0,2869.0,3.095
-20.0,2049.0,3.096
35.0,693.0,3.097
46.0,1979.0,3.098
48.0,1856.0,3.099
64.0,1674.0,3.1
67.0,1320.0,3.101
49.0,899.0,3.102
42.0,274.0,3.103
68.0,-157.0,3.104
92.0,-5.0,3.105
85.0,2.0,3.106
50.0,-427.0,3.107
17.0,-952.0,3.108
5.0,-1763.0,3.109
23.0,-2343.0,3.11
52.0,-2228.0,3.111
45.0,-1956.0,3.112
-13.0,-1213.0,3.113
-69.0,-451.0,3.114
-80.0,369.0,3.115
-79.0,986.0,3.116
-116.0,991.0,3.117
-152.0,1912.0,3.118
-116.0,1793.0,3.119
-75.0,1617.0,3.12
-21.0,1275.0,3.121
15.0,868.0,3.122
1.0,263.0,3.123
-6.0,-154.0,3.124
11.0,-6.0,3.125
24.0,1.0,3.126
22.0,-415.0,3.127
26.0,-923.0,3.128
48.0,-1707.0,3.129
60.0,-2267.0,3.13
37.0,-2156.0,3.131
23.0,-1893.0,3.132
35.0,-1175.0,3.133
50.0,-438.0,3.134
78.0,355.0,3.135
91.0,952.0,3.136
60.0,957.0,3.137
29.0,923.0,3.138
8.0,673.0,3.139
-5.0,222.0,3.14
-31.0,-115.0,3.141
-53.0,-17.0,3.142
-37.0,346.0,3.143
6.0,616.0,3.144
42.0,795.0,3.145
62.0,1070.0,3.146
76.0,1368.0,3.147
80.0,1430.0,3.148
54.0,1202.0,3.149
12.0,816.0,3.15
-11.0,310.0,3.151
-7.0,-284.0,3.152
3.0,-736.0,3.153
5.0,-825.0,3.154
2.0,-686.0,3.155
-12.0,-632.0,3.156
-53.0,-724.0,3.157
-126.0,-783.0,3.158
-190.0,-673.0,3.159
-202.0,-446.0,3.16
-161.0,-177.0,3.161
-115.0,120.0,3.162
-107.0,412.0,3.163
-131.0,648.0,3.164
-130.0,823.0,3.165
-66.0,932.0,3.166
31.0,965.0,3.167
92.0,978.0,3.168
88.0,943.0,3.169
56.0,524.0,3.17
46.0,-636.0,3.171
77.0,-2204.0,3.172
135.0,-3149.0,3.173
198.0,-2800.0,3.174
234.0,-1621.0,3.175
212.0,-617.0,3.176
147.0,-233.0,3.177
59.0,-142.0,3.178
-19.0,3.0,3.179
-70.0,177.0,3.18
-77.0,430.0,3.181
-43.0,625.0,3.182
-1.0,645.0,3.183
10.0,606.0,3.184
-17.0,390.0,3.185
-45.0,203.0,3.186
-37.0,103.0,3.187
6.0,121.0,3.188
48.0,496.0,3.189
63.0,802.0,3.19
57.0,901.0,3.191
47.0,1001.0,3.192
21.0,1102.0,3.193
-32.0,1204.0,3.194
-69.0,1308.0,3.195
-43.0,1178.0,3.196
20.0,346.0,3.197
58.0,-543.0,3.198
56.0,-1453.0,3.199
52.0,-1886.0,3.2
47.0,-1739.0,3.201
3.0,-1191.0,3.202
-70.0,-532.0,3.203
-105.0,18.0,3.204
-88.0,312.0,3.205
-73.0,278.0,3.206
-98.0,43.0,3.207
-132.0,-153.0,3.208
-144.0,-236.0,3.209
-136.0,-302.0,3.21
-105.0,-337.0,3.211
-46.0,-227.0,3.212
10.0,-69.0,3.213
27.0,-93.0,3.214
21.0,-203.0,3.215
40.0,19.0,3.216
88.0,662.0,3.217
129.0,1370.0,3.218
151.0,1527.0,3.219
163.0,888.0,3.22
166.0,-249.0,3.221
140.0,-1268.0,3.222
91.0,-1602.0,3.223
45.0,-1136.0,3.224
5.0,-342.0,3.225
-23.0,178.0,3.226
-11.0,261.0,3.227
54.0,131.0,3.228
120.0,-46.0,3.229
111.0,-235.0,3.23
7.0,-293.0,3.231
-125.0,-25.0,3.232
-192.0,508.0,3.233
-154.0,968.0,3.234
-49.0,1012.0,3.235
28.0,526.0,3.236
21.0,-216.0,3.237
-60.0,-446.0,3.238
-140.0,-426.0,3.239
-170.0,-281.0,3.24
-158.0,242.0,3.241
-128.0,692.0,3.242
-81.0,914.0,3.243
-25.0,1171.0,3.244
20.0,1535.0,3.245
43.0,1605.0,3.246
63.0,786.0,3.247
95.0,59.0,3.248
134.0,-395.0,3.249
162.0,-715.0,3.25
180.0,-630.0,3.251
189.0,-509.0,3.252
177.0,-286.0,3.253
128.0,-74.0,3.254
39.0,103.0,3.255
-65.0,132.0,3.256
-140.0,-283.0,3.257
-154.0,-267.0,3.258
-112.0,-253.0,3.259
-71.0,-151.0,3.26
-71.0,218.0,3.261
-91.0,534.0,3.262
-85.0,690.0,3.263
-50.0,871.0,3.264
-13.0,1127.0,3.265
23.0,1176.0,3.266
69.0,600.0,3.267
97.0,88.0,3.268
74.0,-231.0,3.269
17.0,-456.0,3.27
-31.0,-396.0,3.271
-46.0,-311.0,3.272
-35.0,-154.0,3.273
-5.0,-5.0,3.274
29.0,119.0,3.275
62.0,140.0,3.276
102.0,-152.0,3.277
134.0,-410.0,3.278
124.0,-323.0,3.279
89.0,106.0,3.28
-17.0,408.0,3.281
-108.0,263.0,3.282
-149.0,-182.0,3.283
-171.0,-544.0,3.284
-134.0,-582.0,3.285
-90.0,-314.0,3.286
-24.0,64.0,3.287
25.0,336.0,3.288
27.0,379.0,3.289
34.0,225.0,3.29
53.0,-51.0,3.291
67.0,-454.0,3.292
61.0,-970.0,3.293
52.0,-1387.0,3.294
31.0,-1370.0,3.295
13.0,-822.0,3.296
3.0,-106.0,3.297
7.0,-1557.0,3.298
56.0,-1006.0,3.299
91.0,-390.0,3.3
107.0,407.0,3.301
116.0,890.0,3.302
111.0,422.0,3.303
78.0,-43.0,3.304
23.0,-498.0,3.305
-26.0,-727.0,3.306
-49.0,-277.0,3.307
-32.0,203.0,3.308
-4.0,782.0,3.309
-20.0,1161.0,3.31
-88.0,935.0,3.311
-126.0,699.0,3.312
-68.0,434.0,3.313
27.0,185.0,3.314
53.0,-12.0,3.315
5.0,-158.0,3.316
-33.0,-148.0,3.317
-45.0,-1123.0,3.318
-79.0,-719.0,3.319
-145.0,-268.0,3.32
-167.0,315.0,3.321
-109.0,669.0,3.322
-29.0,326.0,3.323
9.0,-14.0,3.324
8.0,-347.0,3.325
9.0,-515.0,3.326
18.0,-185.0,3.327
19.0,166.0,3.328
17.0,590.0,3.329
21.0,868.0,3.33
30.0,702.0,3.331
39.0,529.0,3.332
45.0,335.0,3.333
43.0,153.0,3.334
26.0,8.0,3.335
7.0,-98.0,3.336
10.0,-91.0,3.337
33.0,-580.0,3.338
58.0,-361.0,3.339
61.0,-116.0,3.34
47.0,201.0,3.341
39.0,393.0,3.342
44.0,207.0,3.343
47.0,22.0,3.344
36.0,-159.0,3.345
23.0,-250.0,3.346
27.0,-71.0,3.347
48.0,120.0,3.348
53.0,350.0,3.349
28.0,501.0,3.35
-2.0,411.0,3.351
-5.0,317.0,3.352
10.0,212.0,3.353
18.0,113.0,3.354
19.0,34.0,3.355
25.0,-24.0,3.356
28.0,-20.0,3.357
4.0,-1.0,3.358
-44.0,37.0,3.359
-89.0,43.0,3.36
-110.0,52.0,3.361
-114.0,80.0,3.362
-99.0,109.0,3.363
-67.0,132.0,3.364
-31.0,143.0,3.365
-10.0,124.0,3.366
-11.0,89.0,3.367
-33.0,104.0,3.368
-84.0,203.0,3.369
-149.0,331.0,3.37
-167.0,402.0,3.371
-99.0,384.0,3.372
10.0,285.0,3.373
79.0,126.0,3.374
89.0,-70.0,3.375
92.0,-281.0,3.376
114.0,-445.0,3.377
121.0,841.0,3.378
92.0,966.0,3.379
59.0,1019.0,3.38
68.0,856.0,3.381
94.0,703.0,3.382
91.0,578.0,3.383
65.0,459.0,3.384
50.0,366.0,3.385
48.0,250.0,3.386
28.0,79.0,3.387
-12.0,-80.0,3.388
-33.0,-187.0,3.389
-19.0,-265.0,3.39
5.0,-262.0,3.391
15.0,-262.0,3.392
20.0,-280.0,3.393
26.0,-305.0,3.394
20.0,-346.0,3.395
-2.0,-393.0,3.396
-16.0,-440.0,3.397
-9.0,1114.0,3.398
5.0,1289.0,3.399
1.0,1364.0,3.4
-12.0,1136.0,3.401
-14.0,921.0,3.402
-6.0,746.0,3.403
-6.0,579.0,3.404
-12.0,447.0,3.405
-19.0,285.0,3.406
-33.0,45.0,3.407
-51.0,-178.0,3.408
-60.0,-328.0,3.409
-52.0,-437.0,3.41
-43.0,-433.0,3.411
-40.0,-433.0,3.412
-31.0,-459.0,3.413
-9.0,-494.0,3.414
4.0,-551.0,3.415
-6.0,-617.0,3.416
-20.0,-683.0,3.417
-17.0,380.0,3.418
4.0,420.0,3.419
24.0,437.0,3.42
40.0,385.0,3.421
50.0,336.0,3.422
42.0,296.0,3.423
26.0,258.0,3.424
-8.0,228.0,3.425
-40.0,191.0,3.426
-60.0,136.0,3.427
-72.0,85.0,3.428
-57.0,51.0,3.429
-32.0,26.0,3.43
21.0,27.0,3.431
69.0,27.0,3.432
100.0,21.0,3.433
119.0,13.0,3.434
101.0,0.0,3.435
81.0,-15.0,3.436
55.0,-30.0,3.437
34.0,-47.0,3.438
33.0,-61.0,3.439
48.0,-59.0,3.44
61.0,-54.0,3.441
52.0,-51.0,3.442
15.0,-53.0,3.443
-25.0,-56.0,3.444
-47.0,-66.0,3.445
-53.0,-83.0,3.446
-54.0,-90.0,3.447
-58.0,-74.0,3.448
-58.0,-43.0,3.449
-53.0,-26.0,3.45
-55.0,-35.0,3.451
-72.0,-54.0,3.452
-88.0,-67.0,3.453
-78.0,-73.0,3.454
-38.0,-72.0,3.455
1.0,-54.0,3.456
12.0,-21.0,3.457
-7.0,10.0,3.458
-17.0,20.0,3.459
11.0,13.0,3.46
59.0,2.0,3.461
79.0,-4.0,3.462
56.0,-12.0,3.463
19.0,-15.0,3.464
-3.0,-10.0,3.465
-36.0,-10.0,3.466
-105.0,-24.0,3.467
-185.0,-36.0,3.468
-201.0,-35.0,3.469
-118.0,-26.0,3.47
20.0,-22.0,3.471
133.0,-24.0,3.472
165.0,-21.0,3.473
135.0,-14.0,3.474
108.0,-6.0,3.475
131.0,6.0,3.476
184.0,20.0,3.477
210.0,21.0,3.478
176.0,11.0,3.479
105.0,0.0,3.48
51.0,-2.0,3.481
41.0,3.0,3.482
49.0,3.0,3.483
40.0,0.0,3.484
0.0,3.0,3.485
-43.0,11.0,3.486
-70.0,17.0,3.487
-88.0,22.0,3.488
-115.0,25.0,3.489
-141.0,14.0,3.49
-150.0,-8.0,3.491
-146.0,-30.0,3.492
-134.0,-36.0,3.493
-98.0,-28.0,3.494
-33.0,-19.0,3.495
25.0,-13.0,3.496
45.0,-8.0,3.497
51.0,-10.0,3.498
84.0,-16.0,3.499
118.0,-14.0,3.5
105.0,-3.0,3.501
50.0,10.0,3.502
9.0,13.0,3.503
-3.0,13.0,3.504
-22.0,22.0,3.505
-55.0,34.0,3.506
-63.0,42.0,3.507
-45.0,43.0,3.508
-39.0,37.0,3.509
-63.0,14.0,3.51
-87.0,-23.0,3.511
-80.0,-48.0,3.512
-54.0,-40.0,3.513
-29.0,-10.0,3.514
-15.0,14.0,3.515
-4.0,19.0,3.516
12.0,17.0,3.517
48.0,15.0,3.518
105.0,12.0,3.519
140.0,5.0,3.52
121.0,-3.0,3.521
78.0,-4.0,3.522
56.0,-3.0,3.523
49.0,-3.0,3.524
18.0,-6.0,3.525
-27.0,-5.0,3.526
-34.0,-3.0,3.527
6.0,-5.0,3.528
40.0,-10.0,3.529
30.0,-11.0,3.53
2.0,-10.0,3.531
-4.0,-10.0,3.532
6.0,-11.0,3.533
2.0,-9.0,3.534
-13.0,0.0,3.535
-19.0,8.0,3.536
-10.0,16.0,3.537
-5.0,19.0,3.538
-13.0,14.0,3.539
-26.0,0.0,3.54
-31.0,-12.0,3.541
-28.0,-9.0,3.542
-22.0,6.0,3.543
-19.0,18.0,3.544
-20.0,24.0,3.545
-25.0,22.0,3.546
-34.0,14.0,3.547
-42.0,3.0,3.548
-41.0,-4.0,3.549
-24.0,-4.0,3.55
3.0,-3.0,3.551
20.0,-8.0,3.552
12.0,-15.0,3.553
-8.0,-17.0,3.554
-12.0,-14.0,3.555
1.0,-7.0,3.556
16.0,2.0,3.557
19.0,10.0,3.558
15.0,10.0,3.559
11.0,0.0,3.56
17.0,-9.0,3.561
37.0,-6.0,3.562
67.0,1.0,3.563
82.0,1.0,3.564
65.0,-6.0,3.565
31.0,-9.0,3.566
16.0,-3.0,3.567
26.0,9.0,3.568
32.0,21.0,3.569
15.0,26.0,3.57
-15.0,20.0,3.571
-34.0,9.0,3.572
-36.0,-1.0,3.573
-29.0,-2.0,3.574
-25.0,0.0,3.575
-26.0,3.0,3.576
-22.0,5.0,3.577
0.0,5.0,3.578
32.0,4.0,3.579
37.0,-1.0,3.58
-4.0,-11.0,3.581
-62.0,-16.0,3.582
-82.0,-18.0,3.583
-49.0,-19.0,3.584
3.0,-19.0,3.585
37.0,-15.0,3.586
51.0,-16.0,3.587
63.0,-21.0,3.588
85.0,-22.0,3.589
107.0,-15.0,3.59
103.0,-2.0,3.591
69.0,20.0,3.592
31.0,49.0,3.593
9.0,66.0,3.594
-4.0,50.0,3.595
-24.0,18.0,3.596
-42.0,13.0,3.597
-51.0,52.0,3.598
-50.0,102.0,3.599
-55.0,113.0,3.6
-61.0,80.0,3.601
-58.0,34.0,3.602
-53.0,-24.0,3.603
-61.0,-107.0,3.604
-72.0,-191.0,3.605
-53.0,-222.0,3.606
2.0,-184.0,3.607
50.0,-119.0,3.608
59.0,-67.0,3.609
42.0,-29.0,3.61
37.0,3.0,3.611
46.0,26.0,3.612
48.0,27.0,3.613
41.0,19.0,3.614
38.0,23.0,3.615
37.0,34.0,3.616
31.0,39.0,3.617
21.0,30.0,3.618
24.0,18.0,3.619
31.0,16.0,3.62
22.0,18.0,3.621
2.0,25.0,3.622
-4.0,32.0,3.623
-10.0,40.0,3.624
-40.0,47.0,3.625
-80.0,46.0,3.626
-90.0,37.0,3.627
-71.0,27.0,3.628
-61.0,23.0,3.629
-67.0,24.0,3.63
-51.0,21.0,3.631
-3.0,7.0,3.632
37.0,-4.0,3.633
41.0,-5.0,3.634
23.0,5.0,3.635
9.0,8.0,3.636
-1.0,1.0,3.637
-14.0,-8.0,3.638
-12.0,-12.0,3.639
17.0,-11.0,3.64
59.0,-14.0,3.641
79.0,-13.0,3.642
69.0,-10.0,3.643
46.0,-10.0,3.644
38.0,-12.0,3.645
45.0,-12.0,3.646
42.0,-8.0,3.647
19.0,-6.0,3.648
-10.0,-9.0,3.649
-21.0,-14.0,3.65
-12.0,-16.0,3.651
-6.0,-15.0,3.652
-14.0,-14.0,3.653
-28.0,-9.0,3.654
-34.0,3.0,3.655
-31.0,17.0,3.656
-23.0,25.0,3.657
-12.0,18.0,3.658
4.0,4.0,3.659
14.0,-6.0,3.66
12.0,-12.0,3.661
6.0,-11.0,3.662
1.0,-8.0,3.663
-5.0,-5.0,3.664
-25.0,-9.0,3.665
-56.0,-13.0,3.666
-92.0,-14.0,3.667
-114.0,-13.0,3.668
-101.0,-17.0,3.669
-46.0,-23.0,3.67
37.0,-23.0,3.671
105.0,-11.0,3.672
131.0,1.0,3.673
125.0,9.0,3.674
117.0,18.0,3.675
104.0,30.0,3.676
74.0,37.0,3.677
36.0,28.0,3.678
16.0,8.0,3.679
14.0,-8.0,3.68
3.0,-6.0,3.681
-15.0,13.0,3.682
-14.0,30.0,3.683
3.0,27.0,3.684
5.0,9.0,3.685
-11.0,-6.0,3.686
-20.0,-12.0,3.687
-18.0,-14.0,3.688
-21.0,-22.0,3.689
-27.0,-30.0,3.69
-13.0,-32.0,3.691
11.0,-34.0,3.692
8.0,-39.0,3.693
-20.0,-42.0,3.694
-30.0,-32.0,3.695
-11.0,-2.0,3.696
-1.0,42.0,3.697
-20.0,86.0,3.698
-42.0,102.0,3.699
-34.0,75.0,3.7
-14.0,25.0,3.701
-15.0,-6.0,3.702
-30.0,-6.0,3.703
-30.0,4.0,3.704
-11.0,2.0,3.705
0.0,-7.0,3.706
-8.0,-10.0,3.707
-17.0,-6.0,3.708
-9.0,-7.0,3.709
11.0,-8.0,3.71
40.0,-7.0,3.711
81.0,-10.0,3.712
113.0,-22.0,3.713
86.0,-31.0,3.714
-1.0,-28.0,3.715
-79.0,-17.0,3.716
-76.0,-14.0,3.717
-10.0,-13.0,3.718
45.0,-3.0,3.719
59.0,13.0,3.72
71.0,12.0,3.721
103.0,-4.0,3.722
112.0,-20.0,3.723
76.0,-19.0,3.724
38.0,-6.0,3.725
33.0,6.0,3.726
25.0,7.0,3.727
-28.0,-1.0,3.728
-95.0,-5.0,3.729
-118.0,-3.0,3.73
-97.0,-3.0,3.731
-71.0,-6.0,3.732
-60.0,-2.0,3.733
-51.0,9.0,3.734
-28.0,13.0,3.735
5.0,10.0,3.736
37.0,5.0,3.737
59.0,3.0,3.738
56.0,1.0,3.739
18.0,0.0,3.74
-35.0,2.0,3.741
-72.0,10.0,3.742
-68.0,6.0,3.743
-37.0,-8.0,3.744
-9.0,-22.0,3.745
5.0,-32.0,3.746
22.0,-45.0,3.747
51.0,-47.0,3.748
74.0,-15.0,3.749
61.0,28.0,3.75
25.0,43.0,3.751
-4.0,27.0,3.752
-8.0,22.0,3.753
-2.0,40.0,3.754
-3.0,47.0,3.755
-13.0,28.0,3.756
-13.0,13.0,3.757
3.0,24.0,3.758
18.0,39.0,3.759
4.0,25.0,3.76
-33.0,-5.0,3.761
-54.0,-14.0,3.762
-25.0,-7.0,3.763
45.0,-5.0,3.764
106.0,-13.0,3.765
143.0,-18.0,3.766
172.0,-13.0,3.767
180.0,-12.0,3.768
96.0,-15.0,3.769
-90.0,-12.0,3.77
-244.0,-4.0,3.771
-233.0,-3.0,3.772
-128.0,-10.0,3.773
-108.0,-18.0,3.774
-176.0,-18.0,3.775
-157.0,-17.0,3.776
-16.0,-15.0,3.777
91.0,-12.0,3.778
65.0,-10.0,3.779
22.0,-9.0,3.78
73.0,-8.0,3.781
122.0,1.0,3.782
75.0,9.0,3.783
16.0,5.0,3.784
43.0,-2.0,3.785
82.0,2.0,3.786
46.0,15.0,3.787
1.0,19.0,3.788
20.0,9.0,3.789
44.0,-5.0,3.79
7.0,-13.0,3.791
-39.0,-16.0,3.792
-32.0,-15.0,3.793
-11.0,-8.0,3.794
-18.0,4.0,3.795
-19.0,8.0,3.796
13.0,3.0,3.797
31.0,-3.0,3.798
5.0,0.0,3.799
-25.0,3.0,3.8
-21.0,0.0,3.801
-7.0,1.0,3.802
-10.0,7.0,3.803
-15.0,12.0,3.804
-10.0,7.0,3.805
-1.0,-1.0,3.806
23.0,-11.0,3.807
78.0,-21.0,3.808
126.0,-31.0,3.809
112.0,-37.0,3.81
45.0,-41.0,3.811
-6.0,-41.0,3.812
-17.0,-26.0,3.813
-11.0,5.0,3.814
-13.0,42.0,3.815
-16.0,57.0,3.816
-16.0,52.0,3.817
-23.0,49.0,3.818
-30.0,57.0,3.819
-26.0,57.0,3.82
-17.0,27.0,3.821
-16.0,-5.0,3.822
-17.0,-8.0,3.823
-11.0,5.0,3.824
-9.0,3.0,3.825
-11.0,-11.0,3.826
-12.0,-15.0,3.827
-12.0,-5.0,3.828
-21.0,-4.0,3.829
-27.0,-14.0,3.83
-5.0,-21.0,3.831
30.0,-14.0,3.832
30.0,-11.0,3.833
-11.0,-15.0,3.834
-33.0,-17.0,3.835
0.0,-15.0,3.836
45.0,-14.0,3.837
55.0,-20.0,3.838
33.0,-24.0,3.839
19.0,-29.0,3.84
21.0,-37.0,3.841
12.0,-38.0,3.842
-9.0,-19.0,3.843
-17.0,3.0,3.844
-5.0,34.0,3.845
3.0,58.0,3.846
-2.0,59.0,3.847
-8.0,55.0,3.848
-2.0,33.0,3.849
4.0,12.0,3.85
0.0,-9.0,3.851
-7.0,-23.0,3.852
-7.0,-11.0,3.853
1.0,4.0,3.854
7.0,25.0,3.855
-3.0,36.0,3.856
-33.0,17.0,3.857
-77.0,-3.0,3.858
-106.0,-22.0,3.859
-118.0,-31.0,3.86
-78.0,-38.0,3.861
-26.0,-42.0,3.862
55.0,-43.0,3.863
119.0,-27.0,3.864
130.0,3.0,3.865
121.0,37.0,3.866
51.0,53.0,3.867
14.0,42.0,3.868
75.0,14.0,3.869
116.0,-5.0,3.87
94.0,-1.0,3.871
61.0,20.0,3.872
-3.0,39.0,3.873
-50.0,39.0,3.874
-42.0,18.0,3.875
-35.0,-5.0,3.876
-38.0,-17.0,3.877
-35.0,-19.0,3.878
-24.0,-16.0,3.879
-28.0,-17.0,3.88
4.0,-22.0,3.881
112.0,-22.0,3.882
212.0,-18.0,3.883
178.0,-15.0,3.884
21.0,-15.0,3.885
-112.0,-14.0,3.886
-148.0,-13.0,3.887
-136.0,-13.0,3.888
-129.0,-16.0,3.889
-99.0,-14.0,3.89
-17.0,-10.0,3.891
61.0,-10.0,3.892
72.0,-11.0,3.893
24.0,-7.0,3.894
-19.0,1.0,3.895
-29.0,2.0,3.896
-22.0,0.0,3.897
-23.0,-1.0,3.898
-28.0,0.0,3.899
-31.0,-3.0,3.9
-29.0,-15.0,3.901
-26.0,-22.0,3.902
-18.0,-23.0,3.903
-2.0,-19.0,3.904
8.0,-11.0,3.905
5.0,4.0,3.906
-1.0,28.0,3.907
1.0,46.0,3.908
8.0,44.0,3.909
11.0,19.0,3.91
8.0,-2.0,3.911
7.0,7.0,3.912
5.0,43.0,3.913
0.0,66.0,3.914
-2.0,53.0,3.915
5.0,19.0,3.916
15.0,-2.0,3.917
6.0,-12.0,3.918
-19.0,-26.0,3.919
-47.0,-46.0,3.92
-67.0,-57.0,3.921
-81.0,-48.0,3.922
-72.0,-34.0,3.923
-32.0,-19.0,3.924
8.0,2.0,3.925
18.0,34.0,3.926
25.0,59.0,3.927
85.0,58.0,3.928
187.0,30.0,3.929
247.0,-17.0,3.93
237.0,-56.0,3.931
205.0,-60.0,3.932
184.0,-18.0,3.933
132.0,33.0,3.934
25.0,57.0,3.935
-79.0,46.0,3.936
-114.0,26.0,3.937
-76.0,3.0,3.938
-13.0,-10.0,3.939
23.0,-13.0,3.94
10.0,1.0,3.941
-28.0,28.0,3.942
-48.0,40.0,3.943
-40.0,25.0,3.944
-38.0,-3.0,3.945
-66.0,-20.0,3.946
-106.0,-19.0,3.947
-130.0,-16.0,3.948
-126.0,-22.0,3.949
-97.0,-32.0,3.95
-58.0,-33.0,3.951
-53.0,-23.0,3.952
-99.0,-14.0,3.953
-136.0,-15.0,3.954
-102.0,-23.0,3.955
-30.0,-24.0,3.956
14.0,-17.0,3.957
34.0,-8.0,3.958
63.0,-6.0,3.959
81.0,-8.0,3.96
59.0,-13.0,3.961
45.0,-10.0,3.962
54.0,-8.0,3.963
61.0,-7.0,3.964
64.0,-6.0,3.965
62.0,-5.0,3.966
43.0,-10.0,3.967
25.0,-20.0,3.968
11.0,-30.0,3.969
2.0,-37.0,3.97
9.0,-35.0,3.971
11.0,-24.0,3.972
-6.0,0.0,3.973
-19.0,34.0,3.974
-19.0,69.0,3.975
-18.0,87.0,3.976
-18.0,76.0,3.977
-11.0,46.0,3.978
21.0,30.0,3.979
37.0,43.0,3.98
32.0,61.0,3.981
31.0,59.0,3.982
33.0,41.0,3.983
6.0,37.0,3.984
-49.0,48.0,3.985
-88.0,44.0,3.986
-72.0,19.0,3.987
-14.0,0.0,3.988
50.0,-1.0,3.989
89.0,-11.0,3.99
84.0,-52.0,3.991
52.0,-98.0,3.992
32.0,-114.0,3.993
45.0,-95.0,3.994
75.0,-65.0,3.995
104.0,-35.0,3.996
130.0,3.0,3.997
127.0,56.0,3.998
60.0,113.0,3.999
-57.0,165.0,4.0
-139.0,222.0,4.001
-130.0,301.0,4.002
-67.0,366.0,4.003
-18.0,355.0,4.004
-3.0,239.0,4.005
-5.0,55.0,4.006
-7.0,-152.0,4.007
-3.0,-373.0,4.008
12.0,-588.0,4.009
17.0,-714.0,4.01
-3.0,-669.0,4.011
-28.0,-486.0,4.012
-28.0,-289.0,4.013
-13.0,-163.0,4.014
-12.0,-88.0,4.015
-22.0,-19.0,4.016
-18.0,42.0,4.017
-6.0,85.0,4.018
-17.0,111.0,4.019
-49.0,120.0,4.02
-67.0,109.0,4.021
-66.0,104.0,4.022
-59.0,130.0,4.023
-40.0,178.0,4.024
15.0,202.0,4.025
81.0,179.0,4.026
107.0,136.0,4.027
87.0,102.0,4.028
62.0,85.0,4.029
56.0,71.0,4.03
49.0,55.0,4.031
26.0,43.0,4.032
-1.0,40.0,4.033
-14.0,43.0,4.034
-15.0,51.0,4.035
-11.0,59.0,4.036
-19.0,73.0,4.037
-45.0,94.0,4.038
-68.0,114.0,4.039
-83.0,110.0,4.04
-69.0,75.0,4.041
-55.0,29.0,4.042
-40.0,1.0,4.043
-9.0,29.0,4.044
69.0,129.0,4.045
118.0,272.0,4.046
75.0,371.0,4.047
37.0,351.0,4.048
17.0,218.0,4.049
8.0,40.0,4.05
33.0,-152.0,4.051
45.0,-369.0,4.052
17.0,-580.0,4.053
0.0,-686.0,4.054
18.0,-625.0,4.055
32.0,-456.0,4.056
32.0,-304.0,4.057
11.0,-219.0,4.058
-68.0,-184.0,4.059
-94.0,-150.0,4.06
-50.0,-90.0,4.061
-11.0,-12.0,4.062
-3.0,58.0,4.063
22.0,115.0,4.064
72.0,164.0,4.065
73.0,191.0,4.066
10.0,172.0,4.067
-27.0,131.0,4.068
9.0,125.0,4.069
45.0,157.0,4.07
19.0,159.0,4.071
-22.0,100.0,4.072
-18.0,45.0,4.073
1.0,60.0,4.074
-12.0,116.0,4.075
-43.0,145.0,4.076
-68.0,152.0,4.077
-128.0,183.0,4.078
-192.0,244.0,4.079
-181.0,280.0,4.08
-76.0,251.0,4.081
30.0,173.0,4.082
80.0,68.0,4.083
133.0,-54.0,4.084
231.0,-172.0,4.085
288.0,-249.0,4.086
221.0,-261.0,4.087
79.0,-229.0,4.088
-51.0,-192.0,4.089
-158.0,-176.0,4.09
-222.0,-170.0,4.091
-168.0,-144.0,4.092
-14.0,-78.0,4.093
84.0,19.0,4.094
55.0,120.0,4.095
19.0,184.0,4.096
67.0,166.0,4.097
114.0,40.0,4.098
66.0,-115.0,4.099
0.0,-187.0,4.1
38.0,-149.0,4.101
111.0,-69.0,4.102
91.0,-10.0,4.103
6.0,40.0,4.104
-43.0,92.0,4.105
-53.0,106.0,4.106
-65.0,59.0,4.107
-60.0,-2.0,4.108
-16.0,-31.0,4.109
18.0,-46.0,4.11
2.0,-80.0,4.111
-26.0,-126.0,4.112
-36.0,-159.0,4.113
-57.0,-169.0,4.114
-97.0,-149.0,4.115
-122.0,-90.0,4.116
-125.0,-19.0,4.117
-114.0,18.0,4.118
-58.0,18.0,4.119
17.0,21.0,4.12
149.0,49.0,4.121
237.0,78.0,4.122
195.0,81.0,4.123
157.0,78.0,4.124
131.0,90.0,4.125
85.0,116.0,4.126
-16.0,142.0,4.127
-91.0,161.0,4.128
-81.0,161.0,4.129
-64.0,139.0,4.13
-26.0,118.0,4.131
3.0,115.0,4.132
6.0,101.0,4.133
10.0,40.0,4.134
16.0,-32.0,4.135
2.0,-50.0,4.136
-76.0,-13.0,4.137
-148.0,14.0,4.138
-167.0,7.0,4.139
-134.0,1.0,4.14
-76.0,0.0,4.141
-11.0,-12.0,4.142
41.0,-48.0,4.143
51.0,-78.0,4.144
13.0,-90.0,4.145
-23.0,-105.0,4.146
-13.0,-129.0,4.147
19.0,-142.0,4.148
32.0,-121.0,4.149
35.0,-90.0,4.15
57.0,-30.0,4.151
81.0,30.0,4.152
74.0,88.0,4.153
47.0,134.0,4.154
37.0,145.0,4.155
40.0,145.0,4.156
26.0,109.0,4.157
-8.0,69.0,4.158
-28.0,7.0,4.159
-42.0,-68.0,4.16
-36.0,-122.0,4.161
-35.0,-125.0,4.162
-47.0,-96.0,4.163
-48.0,-61.0,4.164
-17.0,-18.0,4.165
29.0,15.0,4.166
117.0,3.0,4.167
177.0,-46.0,4.168
150.0,-75.0,4.169
124.0,-61.0,4.17
100.0,-57.0,4.171
55.0,-96.0,4.172
-50.0,-128.0,4.173
-120.0,-99.0,4.174
-80.0,-38.0,4.175
-50.0,2.0,4.176
-57.0,33.0,4.177
-68.0,81.0,4.178
-65.0,118.0,4.179
-31.0,131.0,4.18
-6.0,69.0,4.181
30.0,28.0,4.182
104.0,48.0,4.183
181.0,82.0,4.184
194.0,154.0,4.185
123.0,213.0,4.186
-9.0,231.0,4.187
-168.0,235.0,4.188
-296.0,189.0,4.189
-322.0,128.0,4.19
-233.0,19.0,4.191
-90.0,-89.0,4.192
26.0,-194.0,4.193
71.0,-297.0,4.194
39.0,-394.0,4.195
-31.0,-447.0,4.196
-58.0,-364.0,4.197
-3.0,-258.0,4.198
85.0,-123.0,4.199
151.0,-78.0,4.2
151.0,-63.0,4.201
147.0,-15.0,4.202
133.0,34.0,4.203
107.0,46.0,4.204
43.0,53.0,4.205
-3.0,89.0,4.206
7.0,124.0,4.207
12.0,120.0,4.208
-5.0,99.0,4.209
-17.0,98.0,4.21
-11.0,109.0,4.211
-7.0,102.0,4.212
-11.0,79.0,4.213
-14.0,53.0,4.214
-13.0,34.0,4.215
-16.0,25.0,4.216
-34.0,29.0,4.217
-51.0,33.0,4.218
-59.0,35.0,4.219
-55.0,44.0,4.22
-46.0,60.0,4.221
-28.0,62.0,4.222
-8.0,31.0,4.223
2.0,1.0,4.224
-1.0,12.0,4.225
-9.0,42.0,4.226
-12.0,40.0,4.227
-5.0,3.0,4.228
16.0,-26.0,4.229
49.0,-25.0,4.23
69.0,-17.0,4.231
49.0,-19.0,4.232
-14.0,-18.0,4.233
-90.0,-7.0,4.234
-120.0,3.0,4.235
-75.0,6.0,4.236
4.0,12.0,4.237
65.0,20.0,4.238
76.0,24.0,4.239
53.0,22.0,4.24
25.0,18.0,4.241
2.0,18.0,4.242
-11.0,13.0,4.243
-12.0,2.0,4.244
-13.0,-6.0,4.245
-15.0,-18.0,4.246
-3.0,-38.0,4.247
22.0,-59.0,4.248
27.0,-67.0,4.249
2.0,-66.0,4.25
-15.0,-62.0,4.251
3.0,-60.0,4.252
28.0,-59.0,4.253
24.0,-58.0,4.254
12.0,-56.0,4.255
17.0,-41.0,4.256
25.0,-4.0,4.257
16.0,39.0,4.258
1.0,73.0,4.259
5.0,86.0,4.26
21.0,84.0,4.261
32.0,68.0,4.262
48.0,34.0,4.263
85.0,-4.0,4.264
114.0,-24.0,4.265
96.0,-24.0,4.266
32.0,-29.0,4.267
-45.0,-51.0,4.268
-113.0,-76.0,4.269
-146.0,-93.0,4.27
-124.0,-100.0,4.271
-58.0,-98.0,4.272
-3.0,-77.0,4.273
6.0,-38.0,4.274
-9.0,-1.0,4.275
-14.0,20.0,4.276
-15.0,36.0,4.277
-20.0,54.0,4.278
-11.0,77.0,4.279
12.0,94.0,4.28
19.0,106.0,4.281
-4.0,126.0,4.282
-18.0,144.0,4.283
-2.0,138.0,4.284
15.0,96.0,4.285
9.0,27.0,4.286
13.0,-49.0,4.287
44.0,-111.0,4.288
65.0,-147.0,4.289
45.0,-164.0,4.29
20.0,-166.0,4.291
28.0,-149.0,4.292
51.0,-111.0,4.293
53.0,-67.0,4.294
32.0,-37.0,4.295
14.0,-14.0,4.296
4.0,15.0,4.297
-8.0,54.0,4.298
-14.0,88.0,4.299
-9.0,113.0,4.3
-2.0,125.0,4.301
-5.0,122.0,4.302
-13.0,102.0,4.303
-12.0,84.0,4.304
-4.0,80.0,4.305
6.0,79.0,4.306
21.0,74.0,4.307
38.0,81.0,4.308
36.0,114.0,4.309
2.0,126.0,4.31
-37.0,63.0,4.311
-40.0,-76.0,4.312
2.0,-221.0,4.313
46.0,-300.0,4.314
54.0,-291.0,4.315
35.0,-216.0,4.316
13.0,-131.0,4.317
-19.0,-75.0,4.318
-64.0,-62.0,4.319
-106.0,-54.0,4.32
-113.0,-21.0,4.321
-89.0,23.0,4.322
-50.0,39.0,4.323
-12.0,33.0,4.324
17.0,34.0,4.325
22.0,48.0,4.326
11.0,50.0,4.327
5.0,41.0,4.328
12.0,42.0,4.329
17.0,55.0,4.33
23.0,58.0,4.331
46.0,48.0,4.332
77.0,46.0,4.333
86.0,59.0,4.334
65.0,71.0,4.335
33.0,70.0,4.336
11.0,64.0,4.337
-2.0,55.0,4.338
-8.0,41.0,4.339
-23.0,26.0,4.34
-57.0,11.0,4.341
-89.0,2.0,4.342
-84.0,-12.0,4.343
-45.0,-28.0,4.344
-10.0,-37.0,4.345
3.0,-36.0,4.346
5.0,-33.0,4.347
1.0,-29.0,4.348
-6.0,-14.0,4.349
-5.0,4.0,4.35
16.0,11.0,4.351
35.0,12.0,4.352
34.0,15.0,4.353
30.0,27.0,4.354
37.0,33.0,4.355
35.0,22.0,4.356
14.0,2.0,4.357
-6.0,-15.0,4.358
2.0,-19.0,4.359
18.0,-24.0,4.36
20.0,-32.0,4.361
17.0,-41.0,4.362
25.0,-55.0,4.363
22.0,-67.0,4.364
2.0,-75.0,4.365
3.0,-75.0,4.366
43.0,-51.0,4.367
75.0,-24.0,4.368
59.0,8.0,4.369
13.0,33.0,4.37
-26.0,39.0,4.371
-51.0,48.0,4.372
-55.0,60.0,4.373
-21.0,65.0,4.374
23.0,44.0,4.375
15.0,30.0,4.376
-35.0,42.0,4.377
-53.0,53.0,4.378
-2.0,50.0,4.379
47.0,35.0,4.38
46.0,16.0,4.381
31.0,3.0,4.382
38.0,-10.0,4.383
25.0,-17.0,4.384
-26.0,-16.0,4.385
-43.0,-16.0,4.386
11.0,-23.0,4.387
49.0,-24.0,4.388
4.0,-21.0,4.389
-60.0,-23.0,4.39
-52.0,-35.0,4.391
2.0,-43.0,4.392
18.0,-38.0,4.393
-10.0,-33.0,4.394
-29.0,-39.0,4.395
-32.0,-46.0,4.396
-39.0,-41.0,4.397
-47.0,-34.0,4.398
-38.0,-33.0,4.399
-26.0,-34.0,4.4
-28.0,-28.0,4.401
-22.0,-7.0,4.402
3.0,20.0,4.403
19.0,42.0,4.404
7.0,53.0,4.405
3.0,49.0,4.406
31.0,38.0,4.407
59.0,35.0,4.408
55.0,41.0,4.409
34.0,38.0,4.41
23.0,16.0,4.411
20.0,-1.0,4.412
17.0,3.0,4.413
16.0,14.0,4.414
22.0,14.0,4.415
24.0,10.0,4.416
24.0,16.0,4.417
32.0,26.0,4.418
37.0,21.0,4.419
18.0,3.0,4.42
-12.0,-10.0,4.421
-13.0,-11.0,4.422
24.0,-10.0,4.423
53.0,-12.0,4.424
38.0,-12.0,4.425
-2.0,-8.0,4.426
-35.0,-13.0,4.427
-51.0,-28.0,4.428
-55.0,-38.0,4.429
-41.0,-36.0,4.43
-18.0,-26.0,4.431
-7.0,-16.0,4.432
-12.0,-7.0,4.433
-13.0,2.0,4.434
-2.0,9.0,4.435
5.0,6.0,4.436
0.0,-4.0,4.437
-5.0,-15.0,4.438
-2.0,-14.0,4.439
-2.0,-7.0,4.44
-2.0,-3.0,4.441
8.0,0.0,4.442
31.0,5.0,4.443
44.0,9.0,4.444
42.0,11.0,4.445
50.0,9.0,4.446
68.0,7.0,4.447
63.0,5.0,4.448
24.0,-4.0,4.449
-17.0,-11.0,4.45
-43.0,-6.0,4.451
-70.0,11.0,4.452
-95.0,30.0,4.453
-78.0,37.0,4.454
-22.0,30.0,4.455
4.0,8.0,4.456
-23.0,-8.0,4.457
-55.0,-16.0,4.458
-35.0,-8.0,4.459
5.0,1.0,4.46
12.0,4.0,4.461
1.0,13.0,4.462
20.0,25.0,4.463
47.0,20.0,4.464
38.0,3.0,4.465
19.0,-2.0,4.466
34.0,9.0,4.467
65.0,12.0,4.468
58.0,-6.0,4.469
24.0,-23.0,4.47
12.0,-26.0,4.471
27.0,-30.0,4.472
25.0,-39.0,4.473
-10.0,-39.0,4.474
-42.0,-23.0,4.475
-37.0,-7.0,4.476
-11.0,3.0,4.477
3.0,16.0,4.478
-3.0,34.0,4.479
-15.0,44.0,4.48
-20.0,38.0,4.481
-23.0,35.0,4.482
-31.0,41.0,4.483
-29.0,40.0,4.484
-3.0,22.0,4.485
30.0,-8.0,4.486
38.0,-37.0,4.487
19.0,-61.0,4.488
4.0,-75.0,4.489
11.0,-76.0,4.49
18.0,-70.0,4.491
15.0,-66.0,4.492
10.0,-58.0,4.493
12.0,-31.0,4.494
14.0,13.0,4.495
15.0,55.0,4.496
17.0,77.0,4.497
20.0,69.0,4.498
20.0,43.0,4.499
13.0,20.0,4.5
9.0,10.0,4.501
14.0,15.0,4.502
19.0,18.0,4.503
18.0,12.0,4.504
7.0,5.0,4.505
-11.0,9.0,4.506
-32.0,21.0,4.507
-52.0,31.0,4.508
-61.0,32.0,4.509
-46.0,24.0,4.51
2.0,9.0,4.511
63.0,0.0,4.512
92.0,2.0,4.513
70.0,7.0,4.514
26.0,-4.0,4.515
-9.0,-24.0,4.516
-33.0,-29.0,4.517
-56.0,-23.0,4.518
-56.0,-26.0,4.519
-22.0,-34.0,4.52
1.0,-55.0,4.521
-23.0,-71.0,4.522
-56.0,-69.0,4.523
-39.0,-64.0,4.524
14.0,-54.0,4.525
37.0,-44.0,4.526
18.0,-38.0,4.527
-3.0,-28.0,4.528
-10.0,-6.0,4.529
-20.0,15.0,4.53
-22.0,34.0,4.531
8.0,49.0,4.532
43.0,51.0,4.533
41.0,53.0,4.534
11.0,56.0,4.535
0.0,58.0,4.536
14.0,54.0,4.537
20.0,47.0,4.538
9.0,37.0,4.539
0.0,34.0,4.54
3.0,32.0,4.541
2.0,27.0,4.542
-1.0,18.0,4.543
9.0,15.0,4.544
34.0,16.0,4.545
57.0,12.0,4.546
69.0,1.0,4.547
60.0,-8.0,4.548
28.0,-15.0,4.549
-20.0,-29.0,4.55
-54.0,-47.0,4.551
-68.0,-56.0,4.552
-71.0,-51.0,4.553
-55.0,-34.0,4.554
-8.0,-12.0,4.555
44.0,13.0,4.556
64.0,35.0,4.557
50.0,44.0,4.558
33.0,46.0,4.559
21.0,47.0,4.56
3.0,41.0,4.561
-10.0,34.0,4.562
0.0,22.0,4.563
16.0,10.0,4.564
11.0,4.0,4.565
-7.0,-4.0,4.566
-4.0,-20.0,4.567
16.0,-33.0,4.568
28.0,-39.0,4.569
30.0,-46.0,4.57
35.0,-54.0,4.571
36.0,-59.0,4.572
22.0,-51.0,4.573
3.0,-44.0,4.574
-10.0,-38.0,4.575
-28.0,-32.0,4.576
-50.0,-24.0,4.577
-67.0,-17.0,4.578
-68.0,-24.0,4.579
-67.0,-26.0,4.58
-62.0,-11.0,4.581
-38.0,16.0,4.582
-2.0,38.0,4.583
14.0,45.0,4.584
7.0,39.0,4.585
6.0,30.0,4.586
22.0,27.0,4.587
21.0,32.0,4.588
-16.0,40.0,4.589
-69.0,43.0,4.59
-91.0,38.0,4.591
-72.0,33.0,4.592
-44.0,31.0,4.593
-53.0,22.0,4.594
-94.0,5.0,4.595
-102.0,-12.0,4.596
-28.0,-22.0,4.597
90.0,-32.0,4.598
157.0,-44.0,4.599
147.0,-45.0,4.6
126.0,-32.0,4.601
132.0,-13.0,4.602
128.0,-5.0,4.603
97.0,-8.0,4.604
83.0,-6.0,4.605
98.0,10.0,4.606
94.0,25.0,4.607
53.0,20.0,4.608
31.0,4.0,4.609
56.0,-1.0,4.61
74.0,1.0,4.611
43.0,0.0,4.612
-2.0,-6.0,4.613
-17.0,-11.0,4.614
-16.0,-11.0,4.615
-30.0,-7.0,4.616
-47.0,4.0,4.617
-56.0,18.0,4.618
-55.0,23.0,4.619
-58.0,14.0,4.62
-62.0,3.0,4.621
-72.0,10.0,4.622
-83.0,21.0,4.623
-80.0,22.0,4.624
-54.0,10.0,4.625
-28.0,-3.0,4.626
-20.0,-19.0,4.627
-13.0,-39.0,4.628
7.0,-51.0,4.629
27.0,-53.0,4.63
25.0,-48.0,4.631
9.0,-43.0,4.632
-7.0,-33.0,4.633
-30.0,-14.0,4.634
-61.0,4.0,4.635
-85.0,17.0,4.636
-91.0,30.0,4.637
-92.0,35.0,4.638
-82.0,28.0,4.639
-45.0,11.0,4.64
6.0,-3.0,4.641
37.0,-8.0,4.642
48.0,-17.0,4.643
63.0,-37.0,4.644
67.0,-55.0,4.645
33.0,-67.0,4.646
-17.0,-76.0,4.647
-22.0,-80.0,4.648
20.0,-65.0,4.649
57.0,-42.0,4.65
58.0,-34.0,4.651
50.0,-39.0,4.652
48.0,-41.0,4.653
24.0,-36.0,4.654
-25.0,-40.0,4.655
-55.0,-50.0,4.656
-46.0,-45.0,4.657
-17.0,-25.0,4.658
7.0,0.0,4.659
24.0,20.0,4.66
37.0,33.0,4.661
41.0,33.0,4.662
37.0,14.0,4.663
27.0,-9.0,4.664
5.0,-20.0,4.665
-21.0,-27.0,4.666
-24.0,-52.0,4.667
-2.0,-81.0,4.668
16.0,-87.0,4.669
8.0,-71.0,4.67
-6.0,-58.0,4.671
-19.0,-60.0,4.672
-43.0,-61.0,4.673
-68.0,-57.0,4.674
-58.0,-57.0,4.675
-19.0,-57.0,4.676
11.0,-48.0,4.677
33.0,-28.0,4.678
76.0,-4.0,4.679
117.0,24.0,4.68
112.0,51.0,4.681
78.0,70.0,4.682
81.0,65.0,4.683
113.0,48.0,4.684
95.0,41.0,4.685
23.0,45.0,4.686
-22.0,44.0,4.687
-17.0,35.0,4.688
-21.0,31.0,4.689
-63.0,32.0,4.69
-92.0,31.0,4.691
-74.0,24.0,4.692
-31.0,27.0,4.693
13.0,41.0,4.694
50.0,62.0,4.695
61.0,83.0,4.696
24.0,102.0,4.697
-50.0,105.0,4.698
-98.0,95.0,4.699
-95.0,87.0,4.7
-56.0,84.0,4.701
-7.0,81.0,4.702
32.0,79.0,4.703
31.0,77.0,4.704
-7.0,75.0,4.705
-41.0,74.0,4.706
-40.0,76.0,4.707
-12.0,78.0,4.708
17.0,76.0,4.709
44.0,73.0,4.71
64.0,66.0,4.711
57.0,60.0,4.712
26.0,58.0,4.713
3.0,57.0,4.714
9.0,57.0,4.715
21.0,58.0,4.716
14.0,57.0,4.717
-24.0,55.0,4.718
-68.0,50.0,4.719
-102.0,50.0,4.72
-110.0,53.0,4.721
-121.0,52.0,4.722
-141.0,44.0,4.723
-141.0,37.0,4.724
-77.0,32.0,4.725
-18.0,30.0,4.726
22.0,24.0,4.727
65.0,14.0,4.728
116.0,2.0,4.729
150.0,-8.0,4.73
132.0,-11.0,4.731
100.0,-10.0,4.732
28.0,-12.0,4.733
-17.0,-22.0,4.734
23.0,-27.0,4.735
55.0,-20.0,4.736
59.0,-7.0,4.737
69.0,0.0,4.738
101.0,5.0,4.739
131.0,11.0,4.74
140.0,9.0,4.741
115.0,-7.0,4.742
58.0,-30.0,4.743
7.0,-44.0,4.744
0.0,-41.0,4.745
13.0,-32.0,4.746
-3.0,-29.0,4.747
-44.0,-36.0,4.748
-63.0,-53.0,4.749
-56.0,-76.0,4.75
-50.0,-90.0,4.751
-49.0,-87.0,4.752
-24.0,-76.0,4.753
11.0,-71.0,4.754
21.0,-78.0,4.755
3.0,-84.0,4.756
-10.0,-82.0,4.757
-18.0,-77.0,4.758
-36.0,-74.0,4.759
-54.0,-73.0,4.76
-32.0,-59.0,4.761
17.0,-16.0,4.762
40.0,35.0,4.763
18.0,61.0,4.764
1.0,48.0,4.765
17.0,23.0,4.766
33.0,10.0,4.767
18.0,7.0,4.768
8.0,-3.0,4.769
45.0,-22.0,4.77
98.0,-36.0,4.771
99.0,-41.0,4.772
29.0,-47.0,4.773
-58.0,-57.0,4.774
-104.0,-65.0,4.775
-93.0,-66.0,4.776
-54.0,-59.0,4.777
-18.0,-57.0,4.778
13.0,-54.0,4.779
39.0,-46.0,4.78
53.0,-33.0,4.781
38.0,-10.0,4.782
4.0,18.0,4.783
-21.0,40.0,4.784
-34.0,44.0,4.785
-53.0,29.0,4.786
-72.0,7.0,4.787
-60.0,0.0,4.788
-20.0,8.0,4.789
0.0,12.0,4.79
-27.0,1.0,4.791
-58.0,-13.0,4.792
-41.0,-16.0,4.793
9.0,-9.0,4.794
50.0,2.0,4.795
71.0,20.0,4.796
81.0,34.0,4.797
78.0,34.0,4.798
52.0,22.0,4.799
5.0,7.0,4.8
-46.0,-1.0,4.801
-91.0,-3.0,4.802
-106.0,-2.0,4.803
-73.0,-1.0,4.804
-10.0,2.0,4.805
35.0,3.0,4.806
38.0,1.0,4.807
25.0,-3.0,4.808
39.0,-10.0,4.809
75.0,-18.0,4.81
89.0,-19.0,4.811
52.0,-13.0,4.812
-10.0,-3.0,4.813
-54.0,6.0,4.814
-74.0,9.0,4.815
-85.0,7.0,4.816
-77.0,6.0,4.817
-33.0,8.0,4.818
14.0,13.0,4.819
19.0,14.0,4.82
-4.0,11.0,4.821
7.0,18.0,4.822
56.0,30.0,4.823
79.0,31.0,4.824
49.0,16.0,4.825
17.0,0.0,4.826
18.0,-5.0,4.827
26.0,-5.0,4.828
27.0,-6.0,4.829
46.0,-9.0,4.83
79.0,-19.0,4.831
73.0,-31.0,4.832
23.0,-36.0,4.833
-2.0,-24.0,4.834
26.0,-6.0,4.835
46.0,3.0,4.836
5.0,2.0,4.837
-65.0,-1.0,4.838
-108.0,10.0,4.839
-135.0,27.0,4.84
-181.0,39.0,4.841
-213.0,42.0,4.842
-164.0,32.0,4.843
-41.0,22.0,4.844
66.0,27.0,4.845
93.0,44.0,4.846
69.0,49.0,4.847
59.0,16.0,4.848
83.0,-40.0,4.849
92.0,-86.0,4.85
46.0,-95.0,4.851
-26.0,-69.0,4.852
-57.0,-25.0,4.853
-21.0,16.0,4.854
43.0,37.0,4.855
94.0,25.0,4.856
124.0,-2.0,4.857
133.0,-30.0,4.858
113.0,-46.0,4.859
65.0,-58.0,4.86
21.0,-56.0,4.861
0.0,-51.0,4.862
-11.0,-36.0,4.863
-31.0,-21.0,4.864
-64.0,-4.0,4.865
-94.0,11.0,4.866
-103.0,20.0,4.867
-81.0,38.0,4.868
-35.0,82.0,4.869
9.0,106.0,4.87
31.0,70.0,4.871
39.0,32.0,4.872
34.0,-8.0,4.873
11.0,-33.0,4.874
-28.0,-14.0,4.875
-67.0,1.0,4.876
-87.0,1.0,4.877
-80.0,3.0,4.878
-39.0,18.0,4.879
24.0,24.0,4.88
94.0,7.0,4.881
154.0,-7.0,4.882
190.0,-8.0,4.883
179.0,2.0,4.884
102.0,7.0,4.885
-9.0,0.0,4.886
-90.0,-5.0,4.887
-125.0,-4.0,4.888
-148.0,1.0,4.889
-161.0,0.0,4.89
-129.0,-8.0,4.891
-71.0,-15.0,4.892
-55.0,-15.0,4.893
-85.0,-9.0,4.894
-85.0,-6.0,4.895
-29.0,-5.0,4.896
21.0,-7.0,4.897
18.0,-7.0,4.898
1.0,-3.0,4.899
24.0,0.0,4.9
70.0,1.0,4.901
94.0,1.0,4.902
95.0,-1.0,4.903
98.0,1.0,4.904
105.0,23.0,4.905
101.0,40.0,4.906
91.0,40.0,4.907
87.0,38.0,4.908
84.0,24.0,4.909
66.0,16.0,4.91
25.0,28.0,4.911
-24.0,29.0,4.912
-63.0,-1.0,4.913
-86.0,-25.0,4.914
-91.0,-25.0,4.915
-72.0,-22.0,4.916
-33.0,-16.0,4.917
1.0,-11.0,4.918
15.0,-10.0,4.919
25.0,-13.0,4.92
63.0,-25.0,4.921
105.0,-32.0,4.922
105.0,-22.0,4.923
64.0,-3.0,4.924
20.0,8.0,4.925
-15.0,1.0,4.926
-57.0,-12.0,4.927
-100.0,-12.0,4.928
-132.0,8.0,4.929
-169.0,29.0,4.93
-230.0,22.0,4.931
-264.0,-13.0,4.932
-191.0,-50.0,4.933
-16.0,-58.0,4.934
151.0,-35.0,4.935
228.0,-9.0,4.936
243.0,6.0,4.937
251.0,25.0,4.938
243.0,51.0,4.939
156.0,65.0,4.94
-2.0,41.0,4.941
-140.0,2.0,4.942
-172.0,-14.0,4.943
-103.0,-1.0,4.944
1.0,9.0,4.945
89.0,-4.0,4.946
141.0,-25.0,4.947
146.0,-32.0,4.948
90.0,-30.0,4.949
-22.0,-28.0,4.95
-142.0,-18.0,4.951
-191.0,-1.0,4.952
-132.0,4.0,4.953
-20.0,-9.0,4.954
62.0,-23.0,4.955
80.0,-17.0,4.956
66.0,0.0,4.957
31.0,18.0,4.958
-20.0,45.0,4.959
-51.0,69.0,4.96
-33.0,61.0,4.961
-12.0,24.0,4.962
-55.0,-1.0,4.963
-123.0,6.0,4.964
-125.0,16.0,4.965
-71.0,4.0,4.966
-44.0,-3.0,4.967
-43.0,7.0,4.968
11.0,1.0,4.969
105.0,-41.0,4.97
143.0,-79.0,4.971
93.0,-71.0,4.972
22.0,-41.0,4.973
-28.0,-27.0,4.974
-59.0,-17.0,4.975
-48.0,7.0,4.976
11.0,25.0,4.977
56.0,8.0,4.978
18.0,-13.0,4.979
-42.0,-2.0,4.98
-3.0,30.0,4.981
122.0,44.0,4.982
188.0,25.0,4.983
141.0,-3.0,4.984
78.0,-21.0,4.985
69.0,-24.0,4.986
54.0,-14.0,4.987
-20.0,1.0,4.988
-96.0,18.0,4.989
-114.0,32.0,4.99
-115.0,37.0,4.991
-155.0,28.0,4.992
-169.0,11.0,4.993
-64.0,6.0,4.994
125.0,10.0,4.995
239.0,1.0,4.996
217.0,-24.0,4.997
124.0,-48.0,4.998
54.0,-49.0,4.999
3.0,-43.0,5.0
-63.0,-48.0,5.001
-103.0,-41.0,5.002
-61.0,-4.0,5.003
14.0,41.0,5.004
27.0,71.0,5.005
-16.0,83.0,5.006
-34.0,70.0,5.007
-18.0,27.0,5.008
-36.0,-19.0,5.009
-99.0,-18.0,5.01
-135.0,20.0,5.011
-104.0,31.0,5.012
-52.0,-5.0,5.013
-23.0,-39.0,5.014
-9.0,-35.0,5.015
15.0,-24.0,5.016
33.0,-31.0,5.017
20.0,-36.0,5.018
-2.0,-13.0,5.019
21.0,15.0,5.02
96.0,18.0,5.021
152.0,13.0,5.022
125.0,18.0,5.023
47.0,22.0,5.024
5.0,6.0,5.025
18.0,-14.0,5.026
27.0,-13.0,5.027
8.0,1.0,5.028
-12.0,9.0,5.029
-25.0,3.0,5.03
-70.0,0.0,5.031
-126.0,9.0,5.032
-126.0,34.0,5.033
-73.0,65.0,5.034
-35.0,92.0,5.035
-15.0,100.0,5.036
53.0,88.0,5.037
170.0,47.0,5.038
211.0,-18.0,5.039
111.0,-92.0,5.04
-16.0,-145.0,5.041
-56.0,-146.0,5.042
-36.0,-111.0,5.043
-26.0,-75.0,5.044
-10.0,-52.0,5.045
41.0,-36.0,5.046
73.0,-25.0,5.047
42.0,-23.0,5.048
10.0,-21.0,5.049
31.0,-9.0,5.05
46.0,9.0,5.051
-8.0,22.0,5.052
-80.0,20.0,5.053
-90.0,14.0,5.054
-61.0,10.0,5.055
-59.0,10.0,5.056
-70.0,12.0,5.057
-48.0,11.0,5.058
0.0,2.0,5.059
26.0,-9.0,5.06
26.0,-18.0,5.061
27.0,-15.0,5.062
33.0,-7.0,5.063
19.0,8.0,5.064
-9.0,29.0,5.065
-28.0,44.0,5.066
-29.0,46.0,5.067
-18.0,41.0,5.068
6.0,39.0,5.069
36.0,36.0,5.07
50.0,24.0,5.071
42.0,9.0,5.072
22.0,3.0,5.073
-3.0,16.0,5.074
-25.0,46.0,5.075
-31.0,97.0,5.076
-15.0,154.0,5.077
-5.0,185.0,5.078
-24.0,163.0,5.079
-45.0,97.0,5.08
-33.0,21.0,5.081
-6.0,-42.0,5.082
10.0,-100.0,5.083
26.0,-147.0,5.084
68.0,-171.0,5.085
104.0,-170.0,5.086
94.0,-167.0,5.087
64.0,-169.0,5.088
61.0,-167.0,5.089
79.0,-153.0,5.09
73.0,-125.0,5.091
33.0,-80.0,5.092
-5.0,-22.0,5.093
-26.0,31.0,5.094
-46.0,60.0,5.095
-65.0,68.0,5.096
-64.0,75.0,5.097
-45.0,77.0,5.098
-19.0,66.0,5.099
3.0,40.0,5.1
16.0,13.0,5.101
12.0,-1.0,5.102
-3.0,-3.0,5.103
-10.0,0.0,5.104
-3.0,3.0,5.105
3.0,-3.0,5.106
-3.0,-17.0,5.107
-9.0,-23.0,5.108
-4.0,-3.0,5.109
1.0,27.0,5.11
-4.0,45.0,5.111
-17.0,47.0,5.112
-37.0,50.0,5.113
-62.0,67.0,5.114
-70.0,94.0,5.115
-41.0,128.0,5.116
2.0,161.0,5.117
28.0,178.0,5.118
29.0,174.0,5.119
37.0,164.0,5.12
68.0,160.0,5.121
94.0,146.0,5.122
84.0,85.0,5.123
28.0,-24.0,5.124
-61.0,-133.0,5.125
-156.0,-210.0,5.126
-207.0,-258.0,5.127
-172.0,-283.0,5.128
-57.0,-270.0,5.129
68.0,-222.0,5.13
134.0,-173.0,5.131
133.0,-135.0,5.132
114.0,-91.0,5.133
103.0,-42.0,5.134
79.0,-18.0,5.135
28.0,-33.0,5.136
-12.0,-54.0,5.137
-16.0,-57.0,5.138
-5.0,-52.0,5.139
0.0,-56.0,5.14
-13.0,-55.0,5.141
-19.0,-27.0,5.142
2.0,18.0,5.143
17.0,59.0,5.144
7.0,98.0,5.145
1.0,143.0,5.146
5.0,177.0,5.147
4.0,180.0,5.148
-12.0,168.0,5.149
-24.0,168.0,5.15
-19.0,172.0,5.151
-12.0,152.0,5.152
1.0,114.0,5.153
9.0,91.0,5.154
1.0,97.0,5.155
-7.0,108.0,5.156
-14.0,104.0,5.157
-21.0,77.0,5.158
-27.0,27.0,5.159
-36.0,-41.0,5.16
-20.0,-122.0,5.161
19.0,-186.0,5.162
52.0,-226.0,5.163
56.0,-247.0,5.164
45.0,-244.0,5.165
28.0,-207.0,5.166
-3.0,-150.0,5.167
-36.0,-101.0,5.168
-35.0,-61.0,5.169
1.0,-14.0,5.17
26.0,44.0,5.171
22.0,97.0,5.172
15.0,133.0,5.173
19.0,160.0,5.174
20.0,170.0,5.175
13.0,144.0,5.176
16.0,88.0,5.177
27.0,11.0,5.178
13.0,-48.0,5.179
-16.0,-73.0,5.18
-24.0,-72.0,5.181
-9.0,-61.0,5.182
8.0,-61.0,5.183
17.0,-71.0,5.184
16.0,-72.0,5.185
-5.0,-44.0,5.186
-43.0,-5.0,5.187
-64.0,21.0,5.188
-48.0,43.0,5.189
-24.0,79.0,5.19
-19.0,129.0,5.191
-19.0,159.0,5.192
-9.0,159.0,5.193
-2.0,145.0,5.194
-5.0,121.0,5.195
-1.0,79.0,5.196
18.0,27.0,5.197
35.0,-25.0,5.198
37.0,-75.0,5.199
35.0,-126.0,5.2
38.0,-170.0,5.201
35.0,-180.0,5.202
15.0,-160.0,5.203
-6.0,-135.0,5.204
-21.0,-112.0,5.205
-27.0,-76.0,5.206
-18.0,-24.0,5.207
7.0,21.0,5.208
27.0,47.0,5.209
17.0,57.0,5.21
-8.0,62.0,5.211
-22.0,64.0,5.212
-24.0,69.0,5.213
-24.0,77.0,5.214
-22.0,83.0,5.215
-7.0,73.0,5.216
13.0,47.0,5.217
26.0,14.0,5.218
35.0,-14.0,5.219
48.0,-36.0,5.22
60.0,-37.0,5.221
64.0,-36.0,5.222
62.0,-30.0,5.223
52.0,-29.0,5.224
26.0,-46.0,5.225
-24.0,-59.0,5.226
-77.0,-57.0,5.227
-100.0,-51.0,5.228
-78.0,-29.0,5.229
-35.0,-6.0,5.23
-10.0,20.0,5.231
-2.0,35.0,5.232
5.0,10.0,5.233
17.0,-10.0,5.234
18.0,-14.0,5.235
12.0,-19.0,5.236
16.0,-24.0,5.237
23.0,-29.0,5.238
16.0,-31.0,5.239
9.0,-36.0,5.24
2.0,-39.0,5.241
1.0,-12.0,5.242
23.0,54.0,5.243
40.0,125.0,5.244
37.0,154.0,5.245
28.0,122.0,5.246
5.0,54.0,5.247
-13.0,-6.0,5.248
-21.0,-26.0,5.249
-27.0,-14.0,5.25
-28.0,0.0,5.251
-21.0,-1.0,5.252
9.0,1.0,5.253
34.0,22.0,5.254
38.0,41.0,5.255
38.0,32.0,5.256
27.0,1.0,5.257
18.0,-22.0,5.258
26.0,-23.0,5.259
57.0,-23.0,5.26
91.0,-20.0,5.261
86.0,-16.0,5.262
27.0,-14.0,5.263
-51.0,-6.0,5.264
-108.0,15.0,5.265
-119.0,32.0,5.266
-80.0,31.0,5.267
-20.0,21.0,5.268
9.0,-14.0,5.269
3.0,-44.0,5.27
23.0,-58.0,5.271
79.0,-68.0,5.272
94.0,-64.0,5.273
17.0,-53.0,5.274
-87.0,-22.0,5.275
-141.0,4.0,5.276
-146.0,16.0,5.277
-127.0,22.0,5.278
-81.0,14.0,5.279
-42.0,15.0,5.28
-22.0,20.0,5.281
6.0,28.0,5.282
54.0,34.0,5.283
84.0,41.0,5.284
62.0,45.0,5.285
40.0,42.0,5.286
14.0,33.0,5.287
3.0,18.0,5.288
36.0,1.0,5.289
57.0,-15.0,5.29
39.0,-32.0,5.291
26.0,-39.0,5.292
31.0,-29.0,5.293
40.0,-13.0,5.294
61.0,-5.0,5.295
71.0,-15.0,5.296
44.0,-27.0,5.297
10.0,-24.0,5.298
-21.0,-18.0,5.299
-17.0,-19.0,5.3
-4.0,-31.0,5.301
-7.0,-39.0,5.302
-17.0,-35.0,5.303
-22.0,-27.0,5.304
-30.0,-23.0,5.305
-35.0,-26.0,5.306
-18.0,-27.0,5.307
17.0,-15.0,5.308
37.0,2.0,5.309
29.0,16.0,5.31
15.0,19.0,5.311
11.0,19.0,5.312
7.0,25.0,5.313
-6.0,36.0,5.314
-16.0,47.0,5.315
-10.0,54.0,5.316
-5.0,61.0,5.317
-21.0,56.0,5.318
-40.0,41.0,5.319
-36.0,24.0,5.32
-18.0,5.0,5.321
-6.0,-11.0,5.322
-1.0,-19.0,5.323
10.0,-23.0,5.324
23.0,-12.0,5.325
21.0,-3.0,5.326
12.0,-2.0,5.327
26.0,-3.0,5.328
59.0,-11.0,5.329
72.0,-17.0,5.33
37.0,-12.0,5.331
-25.0,-7.0,5.332
-67.0,-5.0,5.333
-57.0,-4.0,5.334
-4.0,-2.0,5.335
37.0,-3.0,5.336
25.0,-12.0,5.337
-30.0,-20.0,5.338
-59.0,-24.0,5.339
-71.0,-35.0,5.34
-26.0,-43.0,5.341
8.0,-30.0,5.342
12.0,-12.0,5.343
19.0,-6.0,5.344
35.0,-5.0,5.345
45.0,4.0,5.346
35.0,12.0,5.347
31.0,5.0,5.348
43.0,-3.0,5.349
46.0,3.0,5.35
24.0,17.0,5.351
3.0,22.0,5.352
-17.0,23.0,5.353
-29.0,32.0,5.354
-17.0,42.0,5.355
0.0,43.0,5.356
28.0,32.0,5.357
47.0,15.0,5.358
19.0,1.0,5.359
-17.0,-5.0,5.36
-25.0,-9.0,5.361
-17.0,-10.0,5.362
-18.0,-12.0,5.363
-26.0,-10.0,5.364
-20.0,-4.0,5.365
0.0,0.0,5.366
20.0,-2.0,5.367
33.0,-2.0,5.368
51.0,2.0,5.369
66.0,3.0,5.37
57.0,-3.0,5.371
11.0,-1.0,5.372
-46.0,11.0,5.373
-71.0,19.0,5.374
-49.0,8.0,5.375
-6.0,-5.0,5.376
16.0,-1.0,5.377
-2.0,13.0,5.378
-34.0,19.0,5.379
-51.0,13.0,5.38
-40.0,8.0,5.381
-15.0,12.0,5.382
11.0,10.0,5.383
28.0,-2.0,5.384
29.0,-9.0,5.385
24.0,-13.0,5.386
26.0,-25.0,5.387
33.0,-46.0,5.388
25.0,-62.0,5.389
4.0,-62.0,5.39
-4.0,-51.0,5.391
0.0,-39.0,5.392
0.0,-28.0,5.393
-6.0,-18.0,5.394
0.0,-4.0,5.395
13.0,17.0,5.396
3.0,36.0,5.397
-28.0,41.0,5.398
-40.0,29.0,5.399
-17.0,11.0,5.4
6.0,0.0,5.401
3.0,3.0,5.402
0.0,7.0,5.403
22.0,5.0,5.404
45.0,4.0,5.405
44.0,7.0,5.406
32.0,13.0,5.407
32.0,15.0,5.408
30.0,18.0,5.409
7.0,20.0,5.41
-24.0,16.0,5.411
-34.0,8.0,5.412
-16.0,0.0,5.413
8.0,-3.0,5.414
16.0,-2.0,5.415
5.0,-6.0,5.416
-9.0,-17.0,5.417
-20.0,-34.0,5.418
-25.0,-47.0,5.419
-32.0,-53.0,5.42
-33.0,-53.0,5.421
-21.0,-38.0,5.422
-4.0,-15.0,5.423
2.0,10.0,5.424
4.0,33.0,5.425
17.0,44.0,5.426
35.0,39.0,5.427
31.0,24.0,5.428
10.0,11.0,5.429
8.0,13.0,5.43
30.0,19.0,5.431
41.0,18.0,5.432
19.0,12.0,5.433
-6.0,9.0,5.434
-2.0,8.0,5.435
13.0,10.0,5.436
15.0,15.0,5.437
16.0,24.0,5.438
32.0,29.0,5.439
45.0,29.0,5.44
28.0,8.0,5.441
-5.0,-8.0,5.442
-19.0,-9.0,5.443
-16.0,-11.0,5.444
-29.0,-16.0,5.445
-56.0,-21.0,5.446
-50.0,-22.0,5.447
-9.0,-24.0,5.448
18.0,-26.0,5.449
5.0,-26.0,5.45
-13.0,-16.0,5.451
-5.0,-6.0,5.452
9.0,5.0,5.453
3.0,13.0,5.454
-2.0,11.0,5.455
12.0,9.0,5.456
31.0,7.0,5.457
33.0,3.0,5.458
20.0,-2.0,5.459
6.0,-12.0,5.46
1.0,-19.0,5.461
-3.0,-13.0,5.462
-7.0,-3.0,5.463
-4.0,0.0,5.464
6.0,-1.0,5.465
16.0,2.0,5.466
21.0,8.0,5.467
13.0,9.0,5.468
-4.0,6.0,5.469
-11.0,4.0,5.47
2.0,0.0,5.471
14.0,-11.0,5.472
3.0,-26.0,5.473
-18.0,-29.0,5.474
-20.0,-13.0,5.475
-7.0,8.0,5.476
-5.0,20.0,5.477
-16.0,13.0,5.478
-14.0,2.0,5.479
0.0,-3.0,5.48
7.0,-4.0,5.481
7.0,-4.0,5.482
16.0,-2.0,5.483
33.0,2.0,5.484
38.0,8.0,5.485
21.0,12.0,5.486
0.0,9.0,5.487
-11.0,4.0,5.488
-10.0,-1.0,5.489
2.0,-4.0,5.49
18.0,-6.0,5.491
22.0,-6.0,5.492
9.0,-4.0,5.493
-7.0,0.0,5.494
-12.0,9.0,5.495
-18.0,22.0,5.496
-31.0,33.0,5.497
-34.0,33.0,5.498
-15.0,28.0,5.499
6.0,23.0,5.5
4.0,12.0,5.501
-8.0,-3.0,5.502
3.0,-13.0,5.503
29.0,-6.0,5.504
33.0,7.0,5.505
16.0,10.0,5.506
9.0,-2.0,5.507
18.0,-14.0,5.508
24.0,-16.0,5.509
25.0,-13.0,5.51
35.0,-14.0,5.511
51.0,-15.0,5.512
49.0,-15.0,5.513
25.0,-18.0,5.514
-7.0,-20.0,5.515
-35.0,-18.0,5.516
-53.0,-9.0,5.517
-56.0,0.0,5.518
-44.0,11.0,5.519
-36.0,24.0,5.52
-31.0,28.0,5.521
-6.0,17.0,5.522
32.0,-7.0,5.523
50.0,-28.0,5.524
35.0,-33.0,5.525
20.0,-30.0,5.526
20.0,-31.0,5.527
14.0,-35.0,5.528
-6.0,-30.0,5.529
-13.0,-13.0,5.53
4.0,1.0,5.531
14.0,5.0,5.532
8.0,3.0,5.533
10.0,1.0,5.534
29.0,2.0,5.535
41.0,6.0,5.536
35.0,14.0,5.537
23.0,21.0,5.538
7.0,16.0,5.539
-23.0,2.0,5.54
-57.0,-15.0,5.541
-65.0,-20.0,5.542
-45.0,-18.0,5.543
-35.0,-17.0,5.544
-53.0,-12.0,5.545
-70.0,-9.0,5.546
-53.0,-16.0,5.547
-14.0,-31.0,5.548
19.0,-38.0,5.549
37.0,-27.0,5.55
38.0,-9.0,5.551
15.0,-6.0,5.552
-12.0,-18.0,5.553
-17.0,-28.0,5.554
2.0,-29.0,5.555
6.0,-28.0,5.556
-11.0,-31.0,5.557
-27.0,-34.0,5.558
-15.0,-25.0,5.559
10.0,-10.0,5.56
26.0,-6.0,5.561
32.0,-6.0,5.562
42.0,-4.0,5.563
56.0,4.0,5.564
63.0,15.0,5.565
57.0,22.0,5.566
45.0,16.0,5.567
28.0,1.0,5.568
2.0,-18.0,5.569
-25.0,-42.0,5.57
-39.0,-66.0,5.571
-26.0,-87.0,5.572
7.0,-99.0,5.573
38.0,-101.0,5.574
48.0,-96.0,5.575
39.0,-88.0,5.576
23.0,-72.0,5.577
1.0,-48.0,5.578
-20.0,-22.0,5.579
-39.0,-6.0,5.58
-51.0,-3.0,5.581
-45.0,-3.0,5.582
-21.0,-1.0,5.583
-8.0,2.0,5.584
-28.0,4.0,5.585
-61.0,1.0,5.586
-67.0,-9.0,5.587
-42.0,-22.0,5.588
-20.0,-30.0,5.589
-17.0,-35.0,5.59
-27.0,-46.0,5.591
-46.0,-56.0,5.592
-67.0,-50.0,5.593
-68.0,-25.0,5.594
-33.0,12.0,5.595
8.0,54.0,5.596
35.0,88.0,5.597
56.0,94.0,5.598
89.0,66.0,5.599
104.0,29.0,5.6
94.0,16.0,5.601
91.0,33.0,5.602
124.0,44.0,5.603
143.0,37.0,5.604
105.0,36.0,5.605
42.0,50.0,5.606
9.0,64.0,5.607
2.0,67.0,5.608
-6.0,71.0,5.609
7.0,84.0,5.61
71.0,91.0,5.611
127.0,84.0,5.612
94.0,76.0,5.613
-15.0,75.0,5.614
-123.0,75.0,5.615
-191.0,74.0,5.616
-224.0,80.0,5.617
-203.0,95.0,5.618
-107.0,109.0,5.619
4.0,119.0,5.62
51.0,115.0,5.621
46.0,106.0,5.622
52.0,94.0,5.623
67.0,87.0,5.624
27.0,85.0,5.625
-56.0,77.0,5.626
-108.0,56.0,5.627
-101.0,36.0,5.628
-80.0,28.0,5.629
-71.0,23.0,5.63
-52.0,18.0,5.631
-10.0,19.0,5.632
33.0,31.0,5.633
67.0,42.0,5.634
91.0,39.0,5.635
91.0,33.0,5.636
68.0,38.0,5.637
44.0,44.0,5.638
38.0,41.0,5.639
34.0,33.0,5.64
10.0,25.0,5.641
-12.0,24.0,5.642
-2.0,22.0,5.643
20.0,20.0,5.644
21.0,22.0,5.645
15.0,19.0,5.646
28.0,4.0,5.647
50.0,-14.0,5.648
52.0,-26.0,5.649
40.0,-33.0,5.65
39.0,-45.0,5.651
50.0,-55.0,5.652
51.0,-53.0,5.653
43.0,-36.0,5.654
39.0,-12.0,5.655
36.0,10.0,5.656
24.0,20.0,5.657
8.0,1.0,5.658
2.0,-31.0,5.659
0.0,-54.0,5.66
-4.0,-66.0,5.661
-6.0,-76.0,5.662
3.0,-91.0,5.663
6.0,-99.0,5.664
-16.0,-96.0,5.665
-55.0,-93.0,5.666
-93.0,-98.0,5.667
-109.0,-98.0,5.668
-92.0,-81.0,5.669
-33.0,-56.0,5.67
55.0,-33.0,5.671
135.0,-16.0,5.672
179.0,-8.0,5.673
174.0,-9.0,5.674
121.0,-16.0,5.675
44.0,-20.0,5.676
-14.0,-22.0,5.677
-24.0,-25.0,5.678
-3.0,-24.0,5.679
-2.0,-16.0,5.68
-32.0,-14.0,5.681
-51.0,-24.0,5.682
-31.0,-34.0,5.683
-2.0,-32.0,5.684
6.0,-26.0,5.685
12.0,-27.0,5.686
35.0,-33.0,5.687
48.0,-33.0,5.688
24.0,-30.0,5.689
-8.0,-33.0,5.69
-15.0,-34.0,5.691
-20.0,-24.0,5.692
-58.0,-11.0,5.693
-101.0,-8.0,5.694
-110.0,-14.0,5.695
-92.0,-23.0,5.696
-81.0,-30.0,5.697
-82.0,-40.0,5.698
-79.0,-43.0,5.699
-69.0,-27.0,5.7
-54.0,5.0,5.701
-29.0,43.0,5.702
-3.0,65.0,5.703
0.0,56.0,5.704
-6.0,26.0,5.705
9.0,-1.0,5.706
32.0,-10.0,5.707
18.0,-5.0,5.708
-18.0,-3.0,5.709
-13.0,-8.0,5.71
38.0,-10.0,5.711
63.0,-1.0,5.712
35.0,11.0,5.713
23.0,17.0,5.714
61.0,12.0,5.715
92.0,4.0,5.716
70.0,0.0,5.717
26.0,0.0,5.718
13.0,6.0,5.719
7.0,8.0,5.72
-28.0,2.0,5.721
-56.0,2.0,5.722
-17.0,15.0,5.723
65.0,31.0,5.724
102.0,31.0,5.725
62.0,17.0,5.726
3.0,8.0,5.727
-13.0,12.0,5.728
14.0,24.0,5.729
39.0,29.0,5.73
34.0,18.0,5.731
-3.0,-3.0,5.732
-47.0,-28.0,5.733
-79.0,-49.0,5.734
-84.0,-59.0,5.735
-69.0,-56.0,5.736
-51.0,-49.0,5.737
-38.0,-44.0,5.738
-24.0,-42.0,5.739
3.0,-39.0,5.74
37.0,-34.0,5.741
57.0,-27.0,5.742
66.0,-13.0,5.743
81.0,-3.0,5.744
99.0,-5.0,5.745
98.0,-8.0,5.746
77.0,-8.0,5.747
58.0,1.0,5.748
35.0,43.0,5.749
-26.0,79.0,5.75
-115.0,96.0,5.751
-159.0,100.0,5.752
-114.0,61.0,5.753
-41.0,29.0,5.754
-25.0,22.0,5.755
-57.0,14.0,5.756
-66.0,4.0,5.757
-33.0,-7.0,5.758
-4.0,-16.0,5.759
11.0,-14.0,5.76
-14.0,-12.0,5.761
-32.0,-16.0,5.762
-23.0,-17.0,5.763
-7.0,-6.0,5.764
29.0,15.0,5.765
54.0,27.0,5.766
41.0,20.0,5.767
20.0,5.0,5.768
-23.0,0.0,5.769
-52.0,11.0,5.77
-37.0,20.0,5.771
-20.0,17.0,5.772
2.0,15.0,5.773
26.0,26.0,5.774
52.0,33.0,5.775
62.0,19.0,5.776
24.0,-7.0,5.777
-5.0,-27.0,5.778
3.0,-26.0,5.779
16.0,-24.0,5.78
16.0,-30.0,5.781
22.0,-31.0,5.782
35.0,-24.0,5.783
17.0,-13.0,5.784
-33.0,-10.0,5.785
-56.0,-8.0,5.786
-19.0,-4.0,5.787
19.0,-3.0,5.788
5.0,-5.0,5.789
-21.0,2.0,5.79
10.0,21.0,5.791
73.0,33.0,5.792
95.0,28.0,5.793
65.0,12.0,5.794
41.0,2.0,5.795
38.0,4.0,5.796
27.0,13.0,5.797
-7.0,15.0,5.798
-27.0,3.0,5.799
-19.0,-20.0,5.8
-4.0,-38.0,5.801
-3.0,-41.0,5.802
3.0,-40.0,5.803
25.0,-40.0,5.804
43.0,-31.0,5.805
38.0,-1.0,5.806
13.0,33.0,5.807
-12.0,47.0,5.808
-30.0,40.0,5.809
-46.0,22.0,5.81
-67.0,8.0,5.811
-85.0,-2.0,5.812
-74.0,-8.0,5.813
-22.0,-14.0,5.814
43.0,-19.0,5.815
66.0,-16.0,5.816
33.0,-5.0,5.817
-27.0,10.0,5.818
-59.0,26.0,5.819
-53.0,33.0,5.82
-35.0,12.0,5.821
-18.0,-4.0,5.822
18.0,-3.0,5.823
77.0,0.0,5.824
114.0,9.0,5.825
86.0,15.0,5.826
9.0,9.0,5.827
-40.0,5.0,5.828
-4.0,5.0,5.829
85.0,1.0,5.83
128.0,-11.0,5.831
73.0,-21.0,5.832
-15.0,-27.0,5.833
-47.0,-33.0,5.834
-21.0,-38.0,5.835
-8.0,-42.0,5.836
-23.0,-42.0,5.837
-35.0,-42.0,5.838
-35.0,-33.0,5.839
-40.0,-14.0,5.84
-58.0,-5.0,5.841
-68.0,-9.0,5.842
-48.0,-15.0,5.843
-35.0,-9.0,5.844
-44.0,6.0,5.845
-39.0,14.0,5.846
13.0,14.0,5.847
52.0,18.0,5.848
50.0,27.0,5.849
43.0,29.0,5.85
21.0,24.0,5.851
-2.0,19.0,5.852
-30.0,26.0,5.853
-46.0,31.0,5.854
-24.0,19.0,5.855
3.0,0.0,5.856
43.0,-7.0,5.857
86.0,-1.0,5.858
128.0,10.0,5.859
150.0,17.0,5.86
139.0,16.0,5.861
87.0,18.0,5.862
-3.0,14.0,5.863
-98.0,7.0,5.864
-147.0,9.0,5.865
-127.0,21.0,5.866
-67.0,20.0,5.867
-22.0,-2.0,5.868
-26.0,-21.0,5.869
-60.0,-16.0,5.87
-76.0,-3.0,5.871
-56.0,-6.0,5.872
-18.0,-19.0,5.873
26.0,-15.0,5.874
85.0,8.0,5.875
131.0,26.0,5.876
112.0,23.0,5.877
14.0,8.0,5.878
-81.0,-1.0,5.879
-118.0,-2.0,5.88
-123.0,-1.0,5.881
-123.0,-2.0,5.882
-62.0,-7.0,5.883
79.0,-16.0,5.884
191.0,-28.0,5.885
183.0,-38.0,5.886
133.0,-45.0,5.887
157.0,-36.0,5.888
211.0,-7.0,5.889
181.0,18.0,5.89
82.0,14.0,5.891
20.0,-11.0,5.892
8.0,-22.0,5.893
-39.0,-5.0,5.894
-123.0,21.0,5.895
-155.0,31.0,5.896
-107.0,33.0,5.897
-68.0,37.0,5.898
-85.0,47.0,5.899
-96.0,45.0,5.9
-89.0,22.0,5.901
-85.0,-1.0,5.902
-95.0,-12.0,5.903
-88.0,-13.0,5.904
-30.0,-13.0,5.905
22.0,-20.0,5.906
54.0,-28.0,5.907
82.0,-32.0,5.908
99.0,-27.0,5.909
113.0,-21.0,5.91
120.0,-27.0,5.911
111.0,-38.0,5.912
51.0,-35.0,5.913
-8.0,-15.0,5.914
-66.0,6.0,5.915
-110.0,12.0,5.916
-108.0,16.0,5.917
-106.0,23.0,5.918
-95.0,32.0,5.919
-50.0,26.0,5.92
12.0,10.0,5.921
27.0,3.0,5.922
-10.0,3.0,5.923
-24.0,-5.0,5.924
10.0,-20.0,5.925
29.0,-24.0,5.926
-1.0,-17.0,5.927
-26.0,-10.0,5.928
3.0,-10.0,5.929
59.0,-8.0,5.93
99.0,-4.0,5.931
117.0,-8.0,5.932
114.0,-13.0,5.933
89.0,-5.0,5.934
61.0,13.0,5.935
48.0,23.0,5.936
28.0,21.0,5.937
-22.0,17.0,5.938
-65.0,18.0,5.939
-73.0,14.0,5.94
-80.0,-4.0,5.941
-115.0,-7.0,5.942
-125.0,15.0,5.943
-65.0,44.0,5.944
2.0,39.0,5.945
9.0,0.0,5.946
1.0,-36.0,5.947
53.0,-37.0,5.948
111.0,-21.0,5.949
87.0,-18.0,5.95
3.0,-25.0,5.951
-36.0,-18.0,5.952
-12.0,1.0,5.953
13.0,21.0,5.954
10.0,45.0,5.955
28.0,71.0,5.956
94.0,71.0,5.957
176.0,35.0,5.958
195.0,-21.0,5.959
119.0,-32.0,5.96
4.0,-14.0,5.961
-68.0,-26.0,5.962
-79.0,-69.0,5.963
-71.0,-71.0,5.964
-57.0,-4.0,5.965
-27.0,65.0,5.966
-3.0,69.0,5.967
-17.0,33.0,5.968
-34.0,13.0,5.969
-9.0,21.0,5.97
17.0,23.0,5.971
-31.0,7.0,5.972
-130.0,-7.0,5.973
-182.0,-10.0,5.974
-166.0,-7.0,5.975
-125.0,-8.0,5.976
-80.0,-13.0,5.977
-22.0,-20.0,5.978
25.0,-23.0,5.979
28.0,-23.0,5.98
20.0,-26.0,5.981
29.0,-27.0,5.982
22.0,-25.0,5.983
-10.0,-20.0,5.984
9.0,-17.0,5.985
111.0,-13.0,5.986
211.0,-6.0,5.987
234.0,1.0,5.988
206.0,7.0,5.989
164.0,11.0,5.99
83.0,11.0,5.991
-26.0,6.0,5.992
-79.0,0.0,5.993
-48.0,1.0,5.994
-23.0,10.0,5.995
-48.0,20.0,5.996
-65.0,24.0,5.997
-40.0,23.0,5.998
-17.0,27.0,5.999
-33.0,24.0,6.0
-52.0,1.0,6.001
-41.0,-20.0,6.002
-34.0,-37.0,6.003
-51.0,-45.0,6.004
-62.0,-23.0,6.005
-42.0,-3.0,6.006
-6.0,11.0,6.007
34.0,17.0,6.008
73.0,-4.0,6.009
94.0,-17.0,6.01
84.0,4.0,6.011
66.0,26.0,6.012
62.0,48.0,6.013
48.0,62.0,6.014
3.0,48.0,6.015
-42.0,29.0,6.016
-52.0,0.0,6.017
-43.0,-35.0,6.018
-38.0,-77.0,6.019
-33.0,-89.0,6.02
-30.0,-77.0,6.021
-40.0,-52.0,6.022
-89.0,-27.0,6.023
-114.0,-5.0,6.024
-65.0,-3.0,6.025
-32.0,-16.0,6.026
-49.0,-25.0,6.027
-49.0,-14.0,6.028
3.0,6.0,6.029
54.0,17.0,6.03
98.0,24.0,6.031
121.0,42.0,6.032
81.0,73.0,6.033
33.0,106.0,6.034
-39.0,126.0,6.035
-80.0,120.0,6.036
-28.0,88.0,6.037
42.0,32.0,6.038
120.0,-18.0,6.039
96.0,-45.0,6.04
49.0,-58.0,6.041
55.0,-52.0,6.042
73.0,-20.0,6.043
40.0,26.0,6.044
4.0,52.0,6.045
28.0,28.0,6.046
53.0,-39.0,6.047
6.0,-117.0,6.048
-61.0,-176.0,6.049
-59.0,-198.0,6.05
-13.0,-178.0,6.051
-8.0,-123.0,6.052
-32.0,-63.0,6.053
-20.0,-27.0,6.054
10.0,-13.0,6.055
0.0,1.0,6.056
-29.0,29.0,6.057
-25.0,52.0,6.058
3.0,59.0,6.059
-1.0,63.0,6.06
-29.0,83.0,6.061
-32.0,118.0,6.062
-7.0,134.0,6.063
17.0,129.0,6.064
44.0,119.0,6.065
92.0,117.0,6.066
123.0,101.0,6.067
94.0,61.0,6.068
24.0,18.0,6.069
-44.0,-7.0,6.07
-99.0,-28.0,6.071
-129.0,-74.0,6.072
-102.0,-135.0,6.073
-35.0,-170.0,6.074
0.0,-158.0,6.075
-25.0,-119.0,6.076
-47.0,-85.0,6.077
-24.0,-64.0,6.078
11.0,-44.0,6.079
-3.0,-20.0,6.08
-40.0,4.0,6.081
-41.0,32.0,6.082
-6.0,57.0,6.083
24.0,75.0,6.084
43.0,79.0,6.085
74.0,73.0,6.086
99.0,59.0,6.087
83.0,45.0,6.088
42.0,32.0,6.089
16.0,18.0,6.09
13.0,-3.0,6.091
6.0,-26.0,6.092
-8.0,-37.0,6.093
-6.0,-32.0,6.094
11.0,-19.0,6.095
13.0,-1.0,6.096
-2.0,26.0,6.097
-14.0,60.0,6.098
-12.0,86.0,6.099
-12.0,84.0,6.1
-16.0,57.0,6.101
-18.0,25.0,6.102
-9.0,-5.0,6.103
-1.0,-35.0,6.104
3.0,-62.0,6.105
12.0,-75.0,6.106
37.0,-71.0,6.107
53.0,-61.0,6.108
41.0,-53.0,6.109
26.0,-42.0,6.11
3.0,-25.0,6.111
-15.0,-5.0,6.112
-22.0,10.0,6.113
-24.0,22.0,6.114
-8.0,41.0,6.115
5.0,59.0,6.116
6.0,59.0,6.117
1.0,38.0,6.118
-33.0,27.0,6.119
-70.0,42.0,6.12
-83.0,61.0,6.121
-59.0,61.0,6.122
-12.0,39.0,6.123
35.0,0.0,6.124
65.0,-47.0,6.125
79.0,-77.0,6.126
85.0,-63.0,6.127
83.0,-19.0,6.128
64.0,8.0,6.129
28.0,6.0,6.13
-9.0,7.0,6.131
-31.0,17.0,6.132
-33.0,3.0,6.133
-31.0,-42.0,6.134
-38.0,-81.0,6.135
-37.0,-90.0,6.136
-7.0,-86.0,6.137
50.0,-82.0,6.138
97.0,-63.0,6.139
85.0,-25.0,6.14
6.0,0.0,6.141
-88.0,11.0,6.142
-126.0,36.0,6.143
-87.0,84.0,6.144
-27.0,133.0,6.145
-4.0,167.0,6.146
-16.0,181.0,6.147
-16.0,161.0,6.148
-2.0,89.0,6.149
0.0,-14.0,6.15
-9.0,-103.0,6.151
2.0,-164.0,6.152
31.0,-198.0,6.153
36.0,-197.0,6.154
13.0,-146.0,6.155
-7.0,-67.0,6.156
-9.0,-7.0,6.157
-4.0,24.0,6.158
2.0,47.0,6.159
19.0,61.0,6.16
38.0,47.0,6.161
40.0,21.0,6.162
27.0,11.0,6.163
24.0,14.0,6.164
29.0,-3.0,6.165
27.0,-38.0,6.166
21.0,-54.0,6.167
27.0,-42.0,6.168
37.0,-29.0,6.169
33.0,-23.0,6.17
15.0,-1.0,6.171
-5.0,41.0,6.172
-16.0,84.0,6.173
-14.0,97.0,6.174
3.0,82.0,6.175
15.0,55.0,6.176
2.0,25.0,6.177
-36.0,-9.0,6.178
-65.0,-34.0,6.179
-65.0,-45.0,6.18
-55.0,-46.0,6.181
-50.0,-27.0,6.182
-30.0,12.0,6.183
14.0,54.0,6.184
55.0,66.0,6.185
54.0,45.0,6.186
18.0,16.0,6.187
-16.0,5.0,6.188
-27.0,5.0,6.189
-16.0,-1.0,6.19
11.0,-11.0,6.191
36.0,-4.0,6.192
41.0,22.0,6.193
27.0,39.0,6.194
11.0,27.0,6.195
5.0,-6.0,6.196
13.0,-31.0,6.197
25.0,-45.0,6.198
39.0,-50.0,6.199
39.0,-53.0,6.2
22.0,-48.0,6.201
-5.0,-30.0,6.202
-34.0,-12.0,6.203
-61.0,-5.0,6.204
-64.0,3.0,6.205
-25.0,24.0,6.206
20.0,46.0,6.207
23.0,52.0,6.208
2.0,42.0,6.209
12.0,31.0,6.21
46.0,21.0,6.211
40.0,6.0,6.212
-5.0,-4.0,6.213
-20.0,-4.0,6.214
7.0,-1.0,6.215
20.0,0.0,6.216
-7.0,5.0,6.217
-28.0,14.0,6.218
-9.0,18.0,6.219
16.0,16.0,6.22
18.0,-4.0,6.221
22.0,-21.0,6.222
51.0,-32.0,6.223
72.0,-43.0,6.224
41.0,-54.0,6.225
-28.0,-59.0,6.226
-71.0,-42.0,6.227
-56.0,-27.0,6.228
-9.0,-21.0,6.229
17.0,-14.0,6.23
2.0,-4.0,6.231
-23.0,2.0,6.232
-28.0,-1.0,6.233
-19.0,0.0,6.234
-13.0,15.0,6.235
-12.0,25.0,6.236
-4.0,16.0,6.237
2.0,5.0,6.238
-2.0,-9.0,6.239
-5.0,-19.0,6.24
13.0,-29.0,6.241
37.0,-20.0,6.242
30.0,3.0,6.243
5.0,24.0,6.244
-2.0,25.0,6.245
4.0,13.0,6.246
-7.0,2.0,6.247
-27.0,-3.0,6.248
-19.0,-1.0,6.249
10.0,5.0,6.25
24.0,9.0,6.251
18.0,10.0,6.252
22.0,7.0,6.253
41.0,9.0,6.254
49.0,11.0,6.255
33.0,12.0,6.256
20.0,12.0,6.257
16.0,14.0,6.258
16.0,17.0,6.259
13.0,15.0,6.26
-3.0,6.0,6.261
-33.0,4.0,6.262
-65.0,10.0,6.263
-68.0,16.0,6.264
-40.0,17.0,6.265
-17.0,12.0,6.266
-15.0,3.0,6.267
-8.0,-12.0,6.268
17.0,-28.0,6.269
32.0,-39.0,6.27
19.0,-38.0,6.271
8.0,-34.0,6.272
25.0,-33.0,6.273
41.0,-34.0,6.274
28.0,-29.0,6.275
9.0,-17.0,6.276
9.0,-8.0,6.277
21.0,-6.0,6.278
25.0,0.0,6.279
25.0,10.0,6.28
30.0,26.0,6.281
20.0,35.0,6.282
-12.0,25.0,6.283
-36.0,17.0,6.284
-35.0,17.0,6.285
-33.0,19.0,6.286
-46.0,23.0,6.287
-47.0,22.0,6.288
-16.0,7.0,6.289
11.0,-5.0,6.29
6.0,-11.0,6.291
0.0,-17.0,6.292
26.0,-24.0,6.293
58.0,-28.0,6.294
57.0,-20.0,6.295
32.0,-13.0,6.296
20.0,-9.0,6.297
10.0,-7.0,6.298
-13.0,-12.0,6.299
-29.0,-20.0,6.3
-22.0,-22.0,6.301
-12.0,-12.0,6.302
-16.0,4.0,6.303
-11.0,20.0,6.304
15.0,32.0,6.305
29.0,34.0,6.306
13.0,21.0,6.307
0.0,2.0,6.308
13.0,-2.0,6.309
34.0,12.0,6.31
38.0,25.0,6.311
36.0,20.0,6.312
34.0,7.0,6.313
20.0,0.0,6.314
-8.0,3.0,6.315
-36.0,6.0,6.316
-55.0,6.0,6.317
-64.0,-3.0,6.318
-38.0,-12.0,6.319
25.0,-19.0,6.32
74.0,-15.0,6.321
58.0,-9.0,6.322
-6.0,-1.0,6.323
-58.0,7.0,6.324
-74.0,11.0,6.325
-64.0,14.0,6.326
-31.0,12.0,6.327
17.0,12.0,6.328
52.0,22.0,6.329
54.0,30.0,6.33
43.0,24.0,6.331
37.0,14.0,6.332
18.0,-10.0,6.333
-22.0,-30.0,6.334
-55.0,-38.0,6.335
-54.0,-41.0,6.336
-28.0,-29.0,6.337
-6.0,-14.0,6.338
9.0,0.0,6.339
20.0,-8.0,6.34
29.0,-27.0,6.341
29.0,-31.0,6.342
19.0,-22.0,6.343
10.0,-15.0,6.344
21.0,-11.0,6.345
43.0,-6.0,6.346
43.0,-8.0,6.347
8.0,-22.0,6.348
-28.0,-31.0,6.349
-30.0,-25.0,6.35
-21.0,-16.0,6.351
-39.0,-13.0,6.352
-64.0,-9.0,6.353
-44.0,2.0,6.354
6.0,17.0,6.355
32.0,30.0,6.356
25.0,48.0,6.357
21.0,62.0,6.358
32.0,64.0,6.359
26.0,50.0,6.36
2.0,29.0,6.361
-3.0,13.0,6.362
19.0,2.0,6.363
28.0,-4.0,6.364
7.0,1.0,6.365
-14.0,12.0,6.366
-14.0,18.0,6.367
-7.0,11.0,6.368
-7.0,-4.0,6.369
-1.0,-10.0,6.37
21.0,-7.0,6.371
47.0,-1.0,6.372
55.0,-1.0,6.373
35.0,-6.0,6.374
1.0,-12.0,6.375
-27.0,-15.0,6.376
-34.0,-10.0,6.377
-23.0,-6.0,6.378
0.0,-7.0,6.379
20.0,-13.0,6.38
26.0,-31.0,6.381
3.0,-43.0,6.382
-34.0,-32.0,6.383
-52.0,-17.0,6.384
-31.0,7.0,6.385
-1.0,26.0,6.386
6.0,33.0,6.387
0.0,36.0,6.388
13.0,25.0,6.389
37.0,15.0,6.39
34.0,8.0,6.391
8.0,2.0,6.392
-8.0,4.0,6.393
1.0,7.0,6.394
9.0,15.0,6.395
-1.0,17.0,6.396
-7.0,1.0,6.397
3.0,-13.0,6.398
27.0,-14.0,6.399
41.0,-8.0,6.4
31.0,-11.0,6.401
1.0,-20.0,6.402
-29.0,-21.0,6.403
-39.0,-12.0,6.404
-27.0,-3.0,6.405
-16.0,-1.0,6.406
-15.0,-8.0,6.407
-11.0,-20.0,6.408
4.0,-35.0,6.409
16.0,-37.0,6.41
15.0,-22.0,6.411
8.0,1.0,6.412
0.0,12.0,6.413
-11.0,1.0,6.414
-20.0,-19.0,6.415
-8.0,-25.0,6.416
18.0,-11.0,6.417
27.0,11.0,6.418
9.0,26.0,6.419
-11.0,33.0,6.42
-6.0,14.0,6.421
20.0,-2.0,6.422
56.0,-10.0,6.423
84.0,-14.0,6.424
76.0,-6.0,6.425
26.0,4.0,6.426
-26.0,16.0,6.427
-31.0,26.0,6.428
-8.0,30.0,6.429
-9.0,30.0,6.43
-28.0,20.0,6.431
-24.0,13.0,6.432
5.0,15.0,6.433
17.0,16.0,6.434
4.0,12.0,6.435
-2.0,9.0,6.436
-1.0,10.0,6.437
-28.0,12.0,6.438
-63.0,11.0,6.439
-60.0,5.0,6.44
-8.0,-6.0,6.441
42.0,-11.0,6.442
65.0,-12.0,6.443
69.0,-12.0,6.444
52.0,-13.0,6.445
-2.0,-18.0,6.446
-69.0,-24.0,6.447
-92.0,-24.0,6.448
-55.0,-19.0,6.449
-7.0,-11.0,6.45
9.0,-11.0,6.451
-1.0,-15.0,6.452
-2.0,-14.0,6.453
13.0,-5.0,6.454
24.0,2.0,6.455
18.0,-2.0,6.456
12.0,-9.0,6.457
15.0,-11.0,6.458
21.0,-4.0,6.459
14.0,8.0,6.46
4.0,15.0,6.461
9.0,16.0,6.462
23.0,14.0,6.463
28.0,12.0,6.464
20.0,20.0,6.465
7.0,34.0,6.466
2.0,38.0,6.467
2.0,31.0,6.468
11.0,20.0,6.469
23.0,10.0,6.47
30.0,-1.0,6.471
25.0,-14.0,6.472
22.0,-23.0,6.473
28.0,-25.0,6.474
30.0,-29.0,6.475
23.0,-30.0,6.476
18.0,-20.0,6.477
21.0,-6.0,6.478
20.0,-4.0,6.479
-7.0,-8.0,6.48
-59.0,-10.0,6.481
-103.0,-4.0,6.482
-108.0,-7.0,6.483
-72.0,-19.0,6.484
-27.0,-28.0,6.485
-11.0,-31.0,6.486
-22.0,-39.0,6.487
-24.0,-47.0,6.488
-11.0,-38.0,6.489
1.0,-6.0,6.49
0.0,27.0,6.491
-3.0,42.0,6.492
9.0,37.0,6.493
26.0,32.0,6.494
35.0,38.0,6.495
40.0,48.0,6.496
40.0,52.0,6.497
32.0,40.0,6.498
24.0,23.0,6.499
27.0,11.0,6.5
35.0,4.0,6.501
39.0,4.0,6.502
38.0,11.0,6.503
38.0,20.0,6.504
27.0,23.0,6.505
-1.0,13.0,6.506
-24.0,3.0,6.507
-25.0,-2.0,6.508
-23.0,-3.0,6.509
-41.0,-14.0,6.51
-57.0,-29.0,6.511
-39.0,-36.0,6.512
7.0,-29.0,6.513
40.0,-14.0,6.514
30.0,3.0,6.515
0.0,16.0,6.516
-10.0,20.0,6.517
2.0,5.0,6.518
16.0,-15.0,6.519
11.0,-28.0,6.52
-2.0,-31.0,6.521
9.0,-26.0,6.522
42.0,-17.0,6.523
60.0,0.0,6.524
35.0,22.0,6.525
-10.0,33.0,6.526
-33.0,25.0,6.527
-28.0,7.0,6.528
-17.0,-2.0,6.529
-6.0,2.0,6.53
18.0,15.0,6.531
42.0,28.0,6.532
35.0,30.0,6.533
-6.0,21.0,6.534
-50.0,10.0,6.535
-79.0,6.0,6.536
-87.0,5.0,6.537
-60.0,-2.0,6.538
10.0,-13.0,6.539
78.0,-28.0,6.54
85.0,-47.0,6.541
43.0,-57.0,6.542
19.0,-57.0,6.543
23.0,-47.0,6.544
4.0,-32.0,6.545
-52.0,-12.0,6.546
-83.0,6.0,6.547
-44.0,16.0,6.548
11.0,10.0,6.549
23.0,-4.0,6.55
2.0,-4.0,6.551
-6.0,6.0,6.552
5.0,12.0,6.553
15.0,3.0,6.554
11.0,-8.0,6.555
9.0,-8.0,6.556
17.0,-4.0,6.557
31.0,-7.0,6.558
44.0,-20.0,6.559
43.0,-36.0,6.56
23.0,-44.0,6.561
-5.0,-33.0,6.562
-16.0,-8.0,6.563
6.0,20.0,6.564
39.0,35.0,6.565
49.0,28.0,6.566
27.0,10.0,6.567
-8.0,0.0,6.568
-25.0,3.0,6.569
-19.0,13.0,6.57
-7.0,12.0,6.571
-10.0,2.0,6.572
-21.0,-7.0,6.573
-22.0,-7.0,6.574
-3.0,-7.0,6.575
25.0,-8.0,6.576
45.0,-7.0,6.577
37.0,-8.0,6.578
10.0,-7.0,6.579
-10.0,-11.0,6.58
-12.0,-16.0,6.581
-14.0,-17.0,6.582
-40.0,-19.0,6.583
-80.0,-27.0,6.584
-104.0,-43.0,6.585
-96.0,-63.0,6.586
-54.0,-77.0,6.587
6.0,-79.0,6.588
42.0,-66.0,6.589
21.0,-43.0,6.59
-29.0,-25.0,6.591
-40.0,-20.0,6.592
0.0,-23.0,6.593
31.0,-20.0,6.594
25.0,-1.0,6.595
15.0,24.0,6.596
32.0,38.0,6.597
50.0,22.0,6.598
42.0,-13.0,6.599
22.0,-37.0,6.6
14.0,-39.0,6.601
7.0,-29.0,6.602
-1.0,-30.0,6.603
3.0,-36.0,6.604
24.0,-26.0,6.605
38.0,0.0,6.606
45.0,14.0,6.607
58.0,2.0,6.608
75.0,-17.0,6.609
61.0,-24.0,6.61
11.0,-18.0,6.611
-37.0,-5.0,6.612
-53.0,11.0,6.613
-44.0,16.0,6.614
-43.0,1.0,6.615
-56.0,-20.0,6.616
-59.0,-21.0,6.617
-23.0,-5.0,6.618
41.0,-3.0,6.619
78.0,-18.0,6.62
53.0,-31.0,6.621
15.0,-22.0,6.622
25.0,-13.0,6.623
63.0,-17.0,6.624
56.0,-17.0,6.625
-8.0,-6.0,6.626
-69.0,9.0,6.627
-90.0,18.0,6.628
-81.0,24.0,6.629
-63.0,32.0,6.63
-48.0,41.0,6.631
-54.0,49.0,6.632
-68.0,46.0,6.633
-48.0,27.0,6.634
14.0,10.0,6.635
56.0,18.0,6.636
42.0,43.0,6.637
6.0,55.0,6.638
8.0,42.0,6.639
28.0,30.0,6.64
28.0,24.0,6.641
19.0,23.0,6.642
35.0,24.0,6.643
60.0,44.0,6.644
57.0,79.0,6.645
34.0,97.0,6.646
25.0,88.0,6.647
33.0,76.0,6.648
38.0,76.0,6.649
30.0,73.0,6.65
11.0,53.0,6.651
-24.0,32.0,6.652
-52.0,24.0,6.653
-36.0,20.0,6.654
9.0,16.0,6.655
14.0,16.0,6.656
-31.0,28.0,6.657
-67.0,34.0,6.658
-37.0,32.0,6.659
14.0,29.0,6.66
10.0,26.0,6.661
-30.0,25.0,6.662
-34.0,29.0,6.663
-4.0,42.0,6.664
0.0,60.0,6.665
-33.0,65.0,6.666
-37.0,55.0,6.667
11.0,53.0,6.668
65.0,64.0,6.669
77.0,70.0,6.67
68.0,58.0,6.671
69.0,43.0,6.672
76.0,35.0,6.673
74.0,31.0,6.674
67.0,23.0,6.675
55.0,18.0,6.676
35.0,22.0,6.677
12.0,20.0,6.678
4.0,8.0,6.679
3.0,-3.0,6.68
-10.0,-9.0,6.681
-18.0,-16.0,6.682
12.0,-21.0,6.683
63.0,-21.0,6.684
82.0,-7.0,6.685
52.0,2.0,6.686
6.0,0.0,6.687
-39.0,-2.0,6.688
-90.0,2.0,6.689
-117.0,6.0,6.69
-78.0,7.0,6.691
-7.0,7.0,6.692
15.0,-1.0,6.693
-20.0,-8.0,6.694
-40.0,-13.0,6.695
-20.0,-18.0,6.696
-2.0,-24.0,6.697
-14.0,-31.0,6.698
-16.0,-42.0,6.699
9.0,-53.0,6.7
27.0,-60.0,6.701
19.0,-58.0,6.702
21.0,-50.0,6.703
51.0,-40.0,6.704
67.0,-30.0,6.705
34.0,-27.0,6.706
-21.0,-28.0,6.707
-51.0,-27.0,6.708
-48.0,-24.0,6.709
-29.0,-27.0,6.71
-8.0,-37.0,6.711
9.0,-47.0,6.712
14.0,-47.0,6.713
13.0,-28.0,6.714
14.0,1.0,6.715
19.0,24.0,6.716
23.0,28.0,6.717
30.0,4.0,6.718
33.0,-28.0,6.719
24.0,-48.0,6.72
5.0,-51.0,6.721
-12.0,-43.0,6.722
-20.0,-32.0,6.723
-19.0,-20.0,6.724
-6.0,-10.0,6.725
20.0,-10.0,6.726
37.0,-16.0,6.727
23.0,-22.0,6.728
-13.0,-20.0,6.729
-23.0,-17.0,6.73
18.0,-21.0,6.731
81.0,-28.0,6.732
107.0,-34.0,6.733
70.0,-42.0,6.734
0.0,-51.0,6.735
-69.0,-50.0,6.736
-120.0,-37.0,6.737
-137.0,-23.0,6.738
-87.0,-17.0,6.739
8.0,-14.0,6.74
71.0,-20.0,6.741
47.0,-20.0,6.742
-7.0,-2.0,6.743
-5.0,13.0,6.744
46.0,21.0,6.745
70.0,24.0,6.746
35.0,13.0,6.747
-11.0,4.0,6.748
-23.0,5.0,6.749
-11.0,5.0,6.75
-4.0,0.0,6.751
-9.0,-5.0,6.752
-11.0,-13.0,6.753
2.0,-18.0,6.754
21.0,-15.0,6.755
24.0,-10.0,6.756
8.0,3.0,6.757
-6.0,12.0,6.758
0.0,0.0,6.759
1.0,-15.0,6.76
-12.0,-24.0,6.761
-25.0,-24.0,6.762
-37.0,-21.0,6.763
-46.0,-14.0,6.764
-44.0,0.0,6.765
-40.0,15.0,6.766
-27.0,22.0,6.767
-14.0,16.0,6.768
-1.0,11.0,6.769
7.0,13.0,6.77
0.0,17.0,6.771
0.0,16.0,6.772
18.0,13.0,6.773
33.0,14.0,6.774
34.0,12.0,6.775
33.0,1.0,6.776
25.0,-11.0,6.777
10.0,-20.0,6.778
-18.0,-20.0,6.779
-25.0,-17.0,6.78
-19.0,-9.0,6.781
-17.0,0.0,6.782
-10.0,10.0,6.783
9.0,17.0,6.784
17.0,9.0,6.785
-1.0,3.0,6.786
-20.0,5.0,6.787
-11.0,10.0,6.788
5.0,18.0,6.789
0.0,25.0,6.79
-10.0,27.0,6.791
-2.0,26.0,6.792
13.0,10.0,6.793
19.0,-2.0,6.794
28.0,3.0,6.795
44.0,8.0,6.796
39.0,8.0,6.797
5.0,6.0,6.798
-18.0,0.0,6.799
-33.0,-1.0,6.8
-22.0,-4.0,6.801
-14.0,1.0,6.802
-15.0,9.0,6.803
-5.0,8.0,6.804
36.0,-7.0,6.805
68.0,-23.0,6.806
68.0,-23.0,6.807
56.0,-17.0,6.808
14.0,-20.0,6.809
-12.0,-24.0,6.81
8.0,-18.0,6.811
25.0,-7.0,6.812
33.0,0.0,6.813
32.0,13.0,6.814
5.0,40.0,6.815
-15.0,65.0,6.816
-10.0,65.0,6.817
-5.0,32.0,6.818
0.0,3.0,6.819
-11.0,-8.0,6.82
-40.0,-9.0,6.821
-83.0,-7.0,6.822
-124.0,-1.0,6.823
-132.0,9.0,6.824
-93.0,12.0,6.825
-27.0,1.0,6.826
21.0,-13.0,6.827
25.0,-19.0,6.828
3.0,-21.0,6.829
0.0,-28.0,6.83
28.0,-35.0,6.831
65.0,-30.0,6.832
75.0,-20.0,6.833
50.0,-18.0,6.834
9.0,-25.0,6.835
-9.0,-27.0,6.836
16.0,-18.0,6.837
73.0,-9.0,6.838
85.0,-10.0,6.839
36.0,-14.0,6.84
-18.0,-22.0,6.841
-31.0,-25.0,6.842
-23.0,-22.0,6.843
-41.0,-11.0,6.844
-71.0,7.0,6.845
-60.0,25.0,6.846
-8.0,36.0,6.847
34.0,38.0,6.848
44.0,34.0,6.849
53.0,32.0,6.85
68.0,37.0,6.851
67.0,48.0,6.852
37.0,51.0,6.853
6.0,37.0,6.854
-5.0,22.0,6.855
-10.0,20.0,6.856
-17.0,24.0,6.857
-21.0,13.0,6.858
-18.0,-7.0,6.859
-19.0,-18.0,6.86
-24.0,-21.0,6.861
-18.0,-25.0,6.862
12.0,-35.0,6.863
42.0,-41.0,6.864
42.0,-36.0,6.865
18.0,-31.0,6.866
-2.0,-27.0,6.867
9.0,-19.0,6.868
45.0,-5.0,6.869
54.0,9.0,6.87
-8.0,24.0,6.871
-104.0,46.0,6.872
-137.0,68.0,6.873
-74.0,67.0,6.874
3.0,39.0,6.875
16.0,1.0,6.876
-4.0,-19.0,6.877
-8.0,-26.0,6.878
-6.0,-26.0,6.879
-8.0,-24.0,6.88
-22.0,-15.0,6.881
-19.0,5.0,6.882
34.0,22.0,6.883
71.0,20.0,6.884
49.0,8.0,6.885
39.0,0.0,6.886
63.0,-4.0,6.887
82.0,-11.0,6.888
87.0,-20.0,6.889
90.0,-24.0,6.89
80.0,-26.0,6.891
52.0,-28.0,6.892
-29.0,-30.0,6.893
-85.0,-23.0,6.894
-61.0,-9.0,6.895
-42.0,5.0,6.896
-40.0,13.0,6.897
-43.0,14.0,6.898
-59.0,16.0,6.899
-85.0,19.0,6.9
-125.0,19.0,6.901
-126.0,18.0,6.902
-41.0,21.0,6.903
60.0,27.0,6.904
73.0,42.0,6.905
6.0,47.0,6.906
-30.0,20.0,6.907
8.0,-3.0,6.908
51.0,-17.0,6.909
47.0,-32.0,6.91
29.0,-49.0,6.911
27.0,-61.0,6.912
12.0,-57.0,6.913
-29.0,-50.0,6.914
-46.0,-39.0,6.915
-6.0,-27.0,6.916
56.0,-16.0,6.917
108.0,-5.0,6.918
122.0,-7.0,6.919
106.0,-19.0,6.92
54.0,-19.0,6.921
-11.0,10.0,6.922
-55.0,48.0,6.923
-80.0,69.0,6.924
-104.0,66.0,6.925
-103.0,48.0,6.926
-60.0,26.0,6.927
-21.0,7.0,6.928
-29.0,0.0,6.929
-32.0,-4.0,6.93
29.0,-19.0,6.931
102.0,-42.0,6.932
103.0,-57.0,6.933
64.0,-62.0,6.934
73.0,-61.0,6.935
122.0,-51.0,6.936
137.0,-31.0,6.937
103.0,-15.0,6.938
61.0,-15.0,6.939
14.0,-15.0,6.94
-50.0,6.0,6.941
-96.0,53.0,6.942
-88.0,82.0,6.943
-83.0,70.0,6.944
-93.0,40.0,6.945
-87.0,27.0,6.946
-29.0,35.0,6.947
1.0,38.0,6.948
-55.0,22.0,6.949
-91.0,7.0,6.95
-61.0,10.0,6.951
-32.0,25.0,6.952
-3.0,30.0,6.953
29.0,24.0,6.954
69.0,15.0,6.955
99.0,10.0,6.956
99.0,5.0,6.957
71.0,-2.0,6.958
-25.0,-4.0,6.959
-50.0,-8.0,6.96
6.0,-17.0,6.961
85.0,-24.0,6.962
153.0,-24.0,6.963
193.0,-21.0,6.964
170.0,-14.0,6.965
67.0,-7.0,6.966
-61.0,-5.0,6.967
-142.0,-6.0,6.968
-150.0,-14.0,6.969
-131.0,-21.0,6.97
-125.0,-20.0,6.971
-136.0,-18.0,6.972
-143.0,-14.0,6.973
-119.0,-10.0,6.974
-73.0,-10.0,6.975
-29.0,-11.0,6.976
-5.0,-15.0,6.977
18.0,-16.0,6.978
45.0,-9.0,6.979
79.0,-11.0,6.98
109.0,-21.0,6.981
121.0,-16.0,6.982
112.0,8.0,6.983
88.0,37.0,6.984
62.0,48.0,6.985
40.0,38.0,6.986
30.0,23.0,6.987
34.0,21.0,6.988
45.0,27.0,6.989
42.0,12.0,6.99
21.0,-26.0,6.991
3.0,-63.0,6.992
-2.0,-66.0,6.993
-27.0,-37.0,6.994
-82.0,1.0,6.995
-124.0,41.0,6.996
-109.0,72.0,6.997
-62.0,71.0,6.998
-39.0,37.0,6.999
-48.0,4.0,7.0
-32.0,2.0,7.001
30.0,10.0,7.002
92.0,-4.0,7.003
99.0,-18.0,7.004
68.0,-5.0,7.005
58.0,8.0,7.006
79.0,-7.0,7.007
89.0,-25.0,7.008
59.0,-13.0,7.009
17.0,1.0,7.01
1.0,-9.0,7.011
8.0,-15.0,7.012
16.0,12.0,7.013
16.0,41.0,7.014
-2.0,30.0,7.015
-43.0,0.0,7.016
-69.0,-8.0,7.017
-45.0,-14.0,7.018
0.0,-50.0,7.019
-10.0,-92.0,7.02
-68.0,-94.0,7.021
-81.0,-49.0,7.022
-38.0,-4.0,7.023
-29.0,20.0,7.024
-86.0,36.0,7.025
-113.0,47.0,7.026
-63.0,40.0,7.027
-19.0,16.0,7.028
-53.0,-4.0,7.029
-103.0,-8.0,7.03
-78.0,-2.0,7.031
2.0,4.0,7.032
72.0,4.0,7.033
105.0,0.0,7.034
105.0,-3.0,7.035
74.0,1.0,7.036
49.0,11.0,7.037
66.0,16.0,7.038
116.0,13.0,7.039
133.0,3.0,7.04
99.0,-11.0,7.041
62.0,-20.0,7.042
57.0,-21.0,7.043
44.0,-15.0,7.044
3.0,-15.0,7.045
-17.0,-23.0,7.046
27.0,-27.0,7.047
87.0,-15.0,7.048
86.0,3.0,7.049
22.0,18.0,7.05
-38.0,20.0,7.051
-60.0,7.0,7.052
-66.0,-13.0,7.053
-75.0,-25.0,7.054
-79.0,-19.0,7.055
-72.0,-13.0,7.056
-63.0,-25.0,7.057
-55.0,-47.0,7.058
-33.0,-49.0,7.059
1.0,-25.0,7.06
29.0,-7.0,7.061
34.0,3.0,7.062
27.0,34.0,7.063
21.0,87.0,7.064
8.0,111.0,7.065
-15.0,70.0,7.066
-39.0,4.0,7.067
-63.0,-16.0,7.068
-97.0,12.0,7.069
-128.0,32.0,7.07
-115.0,21.0,7.071
-49.0,15.0,7.072
19.0,40.0,7.073
38.0,64.0,7.074
18.0,49.0,7.075
14.0,13.0,7.076
57.0,-6.0,7.077
148.0,-5.0,7.078
241.0,-2.0,7.079
264.0,0.0,7.08
182.0,7.0,7.081
37.0,24.0,7.082
-101.0,35.0,7.083
-212.0,33.0,7.084
-286.0,27.0,7.085
-264.0,18.0,7.086
-127.0,-4.0,7.087
30.0,-48.0,7.088
115.0,-85.0,7.089
152.0,-83.0,7.09
191.0,-48.0,7.091
175.0,-23.0,7.092
57.0,-37.0,7.093
-53.0,-75.0,7.094
-37.0,-101.0,7.095
38.0,-97.0,7.096
35.0,-76.0,7.097
-34.0,-61.0,7.098
-53.0,-50.0,7.099
-1.0,-36.0,7.1
24.0,-24.0,7.101
1.0,-10.0,7.102
-5.0,0.0,7.103
12.0,16.0,7.104
-9.0,36.0,7.105
-57.0,51.0,7.106
-45.0,54.0,7.107
35.0,50.0,7.108
87.0,50.0,7.109
46.0,52.0,7.11
-31.0,51.0,7.111
-68.0,43.0,7.112
-53.0,37.0,7.113
-34.0,35.0,7.114
-40.0,34.0,7.115
-58.0,30.0,7.116
-67.0,23.0,7.117
-68.0,15.0,7.118
-72.0,13.0,7.119
-70.0,13.0,7.12
-43.0,17.0,7.121
6.0,20.0,7.122
42.0,21.0,7.123
51.0,20.0,7.124
60.0,14.0,7.125
89.0,3.0,7.126
114.0,-19.0,7.127
109.0,-40.0,7.128
85.0,-56.0,7.129
69.0,-66.0,7.13
56.0,-58.0,7.131
28.0,-53.0,7.132
-4.0,-62.0,7.133
-17.0,-65.0,7.134
-4.0,-45.0,7.135
10.0,-27.0,7.136
11.0,-17.0,7.137
8.0,-9.0,7.138
18.0,1.0,7.139
26.0,25.0,7.14
23.0,43.0,7.141
17.0,67.0,7.142
7.0,111.0,7.143
-6.0,167.0,7.144
-26.0,191.0,7.145
-43.0,155.0,7.146
-47.0,93.0,7.147
-56.0,45.0,7.148
-80.0,4.0,7.149
-86.0,-44.0,7.15
-36.0,-92.0,7.151
-2.0,-111.0,7.152
-14.0,-109.0,7.153
-24.0,-94.0,7.154
-32.0,-56.0,7.155
-37.0,-4.0,7.156
-32.0,18.0,7.157
-38.0,-19.0,7.158
-73.0,-74.0,7.159
-66.0,-91.0,7.16
4.0,-71.0,7.161
100.0,-44.0,7.162
167.0,-21.0,7.163
165.0,7.0,7.164
108.0,17.0,7.165
55.0,-16.0,7.166
35.0,-81.0,7.167
27.0,-131.0,7.168
12.0,-145.0,7.169
3.0,-124.0,7.17
14.0,-65.0,7.171
19.0,46.0,7.172
9.0,185.0,7.173
-3.0,287.0,7.174
-6.0,311.0,7.175
-12.0,269.0,7.176
-24.0,209.0,7.177
-26.0,132.0,7.178
-16.0,29.0,7.179
-13.0,-96.0,7.18
-26.0,-205.0,7.181
-37.0,-257.0,7.182
-29.0,-271.0,7.183
-7.0,-285.0,7.184
7.0,-303.0,7.185
9.0,-293.0,7.186
6.0,-233.0,7.187
12.0,-144.0,7.188
19.0,-64.0,7.189
14.0,-5.0,7.19
-7.0,48.0,7.191
-27.0,105.0,7.192
-33.0,155.0,7.193
-28.0,190.0,7.194
-25.0,211.0,7.195
-14.0,228.0,7.196
6.0,229.0,7.197
14.0,194.0,7.198
-6.0,143.0,7.199
-30.0,117.0,7.2
-23.0,119.0,7.201
6.0,117.0,7.202
24.0,84.0,7.203
23.0,29.0,7.204
30.0,-19.0,7.205
53.0,-54.0,7.206
71.0,-84.0,7.207
62.0,-106.0,7.208
29.0,-104.0,7.209
1.0,-73.0,7.21
0.0,-38.0,7.211
16.0,-25.0,7.212
13.0,-29.0,7.213
-20.0,-16.0,7.214
-51.0,35.0,7.215
-54.0,95.0,7.216
-38.0,137.0,7.217
-18.0,180.0,7.218
7.0,261.0,7.219
25.0,349.0,7.22
22.0,349.0,7.221
17.0,210.0,7.222
9.0,-8.0,7.223
7.0,-207.0,7.224
31.0,-331.0,7.225
50.0,-381.0,7.226
58.0,-367.0,7.227
48.0,-303.0,7.228
-13.0,-229.0,7.229
-67.0,-190.0,7.23
-97.0,-179.0,7.231
-100.0,-151.0,7.232
-22.0,-96.0,7.233
30.0,-46.0,7.234
2.0,-20.0,7.235
-18.0,-1.0,7.236
-15.0,26.0,7.237
-5.0,47.0,7.238
24.0,52.0,7.239
45.0,51.0,7.24
43.0,59.0,7.241
14.0,83.0,7.242
-19.0,112.0,7.243
-25.0,143.0,7.244
-19.0,163.0,7.245
-24.0,154.0,7.246
-27.0,113.0,7.247
11.0,61.0,7.248
76.0,25.0,7.249
110.0,0.0,7.25
87.0,-20.0,7.251
45.0,-31.0,7.252
20.0,-22.0,7.253
4.0,-3.0,7.254
0.0,0.0,7.255
13.0,-11.0,7.256
26.0,-14.0,7.257
6.0,7.0,7.258
-32.0,33.0,7.259
-45.0,35.0,7.26
-35.0,16.0,7.261
-46.0,10.0,7.262
-77.0,22.0,7.263
-69.0,31.0,7.264
-23.0,25.0,7.265
-6.0,13.0,7.266
-28.0,12.0,7.267
-24.0,15.0,7.268
25.0,15.0,7.269
59.0,7.0,7.27
42.0,-15.0,7.271
6.0,-47.0,7.272
-19.0,-71.0,7.273
-31.0,-74.0,7.274
-18.0,-62.0,7.275
23.0,-48.0,7.276
47.0,-34.0,7.277
25.0,-18.0,7.278
2.0,-7.0,7.279
19.0,-5.0,7.28
35.0,-12.0,7.281
6.0,-15.0,7.282
-22.0,-14.0,7.283
0.0,-8.0,7.284
28.0,0.0,7.285
10.0,11.0,7.286
-10.0,13.0,7.287
19.0,1.0,7.288
59.0,-12.0,7.289
50.0,-19.0,7.29
24.0,-22.0,7.291
37.0,-20.0,7.292
65.0,0.0,7.293
55.0,46.0,7.294
12.0,103.0,7.295
-23.0,146.0,7.296
-43.0,160.0,7.297
-61.0,134.0,7.298
-66.0,65.0,7.299
-51.0,-37.0,7.3
-34.0,-138.0,7.301
-24.0,-188.0,7.302
-5.0,-183.0,7.303
18.0,-155.0,7.304
18.0,-134.0,7.305
-4.0,-115.0,7.306
-9.0,-75.0,7.307
6.0,-21.0,7.308
13.0,16.0,7.309
1.0,29.0,7.31
0.0,34.0,7.311
15.0,45.0,7.312
23.0,55.0,7.313
23.0,53.0,7.314
34.0,51.0,7.315
55.0,53.0,7.316
51.0,53.0,7.317
2.0,-20.0,7.318
-49.0,-35.0,7.319
-49.0,-47.0,7.32
5.0,-52.0,7.321
53.0,-51.0,7.322
42.0,-33.0,7.323
0.0,-18.0,7.324
-18.0,-11.0,7.325
-11.0,-5.0,7.326
-24.0,-3.0,7.327
-53.0,-1.0,7.328
-45.0,1.0,7.329
3.0,1.0,7.33
33.0,-4.0,7.331
28.0,-8.0,7.332
32.0,-7.0,7.333
57.0,-2.0,7.334
45.0,11.0,7.335
-18.0,21.0,7.336
-65.0,17.0,7.337
-57.0,-25.0,7.338
-25.0,-47.0,7.339
-14.0,-66.0,7.34
-7.0,-73.0,7.341
12.0,-72.0,7.342
18.0,-45.0,7.343
-1.0,-22.0,7.344
-4.0,-10.0,7.345
22.0,0.0,7.346
35.0,3.0,7.347
10.0,6.0,7.348
-18.0,8.0,7.349
-21.0,9.0,7.35
-14.0,1.0,7.351
-5.0,-5.0,7.352
17.0,-3.0,7.353
38.0,4.0,7.354
24.0,24.0,7.355
-14.0,39.0,7.356
-30.0,33.0,7.357
-37.0,25.0,7.358
-53.0,11.0,7.359
-53.0,1.0,7.36
-3.0,-8.0,7.361
32.0,-10.0,7.362
25.0,-5.0,7.363
20.0,3.0,7.364
20.0,4.0,7.365
23.0,0.0,7.366
39.0,2.0,7.367
45.0,12.0,7.368
15.0,28.0,7.369
-2.0,37.0,7.37
18.0,33.0,7.371
33.0,16.0,7.372
33.0,0.0,7.373
29.0,-3.0,7.374
14.0,-1.0,7.375
-5.0,-9.0,7.376
-34.0,-27.0,7.377
-54.0,-45.0,7.378
-34.0,-48.0,7.379
-4.0,-41.0,7.38
9.0,-37.0,7.381
-2.0,-32.0,7.382
-16.0,-25.0,7.383
-12.0,-16.0,7.384
9.0,-7.0,7.385
30.0,-7.0,7.386
45.0,-8.0,7.387
43.0,-2.0,7.388
21.0,18.0,7.389
-10.0,45.0,7.39
-19.0,58.0,7.391
0.0,50.0,7.392
14.0,35.0,7.393
1.0,26.0,7.394
-16.0,21.0,7.395
-9.0,12.0,7.396
7.0,7.0,7.397
13.0,2.0,7.398
14.0,-1.0,7.399
15.0,-8.0,7.4
1.0,-17.0,7.401
-31.0,-19.0,7.402
-41.0,-15.0,7.403
-5.0,-7.0,7.404
32.0,1.0,7.405
29.0,12.0,7.406
8.0,15.0,7.407
4.0,2.0,7.408
4.0,-18.0,7.409
-17.0,-30.0,7.41
-37.0,-29.0,7.411
-20.0,-25.0,7.412
19.0,-24.0,7.413
36.0,-25.0,7.414
19.0,-26.0,7.415
-12.0,-22.0,7.416
-34.0,-11.0,7.417
-40.0,3.0,7.418
-16.0,16.0,7.419
22.0,22.0,7.42
32.0,17.0,7.421
8.0,14.0,7.422
-12.0,14.0,7.423
-1.0,17.0,7.424
15.0,24.0,7.425
6.0,31.0,7.426
