Deltoid,Bicep,Time
6.0,-16.0,0.0
2.0,-20.0,0.001
-1.0,-18.0,0.002
0.0,-12.0,0.003
1.0,-5.0,0.004
-3.0,4.0,0.005
-9.0,9.0,0.006
-11.0,11.0,0.007
-10.0,12.0,0.008
-11.0,18.0,0.009
-13.0,28.0,0.01
-6.0,31.0,0.011
4.0,25.0,0.012
12.0,14.0,0.013
13.0,6.0,0.014
11.0,0.0,0.015
5.0,-7.0,0.016
0.0,-12.0,0.017
-2.0,-17.0,0.018
2.0,-18.0,0.019
5.0,-15.0,0.02
3.0,-14.0,0.021
2.0,-9.0,0.022
7.0,-5.0,0.023
12.0,0.0,0.024
10.0,5.0,0.025
3.0,11.0,0.026
1.0,12.0,0.027
1.0,10.0,0.028
1.0,12.0,0.029
2.0,16.0,0.03
9.0,17.0,0.031
19.0,10.0,0.032
23.0,1.0,0.033
18.0,0.0,0.034
10.0,2.0,0.035
7.0,2.0,0.036
7.0,-4.0,0.037
3.0,-13.0,0.038
-3.0,-17.0,0.039
-11.0,-19.0,0.04
-13.0,-21.0,0.041
-8.0,-20.0,0.042
2.0,-16.0,0.043
7.0,-10.0,0.044
-1.0,-6.0,0.045
-15.0,-2.0,0.046
-18.0,-1.0,0.047
-7.0,-2.0,0.048
3.0,2.0,0.049
1.0,9.0,0.05
-2.0,9.0,0.051
3.0,3.0,0.052
12.0,-2.0,0.053
12.0,0.0,0.054
9.0,0.0,0.055
11.0,-4.0,0.056
13.0,-6.0,0.057
8.0,-9.0,0.058
2.0,-8.0,0.059
-3.0,-8.0,0.06
-4.0,-9.0,0.061
-4.0,-5.0,0.062
1.0,-2.0,0.063
9.0,0.0,0.064
8.0,4.0,0.065
0.0,9.0,0.066
-3.0,9.0,0.067
-1.0,1.0,0.068
-1.0,-1.0,0.069
-5.0,2.0,0.07
-4.0,6.0,0.071
6.0,3.0,0.072
12.0,-2.0,0.073
10.0,-7.0,0.074
8.0,-14.0,0.075
12.0,-22.0,0.076
16.0,-18.0,0.077
13.0,-8.0,0.078
7.0,4.0,0.079
1.0,9.0,0.08
-3.0,8.0,0.081
-5.0,12.0,0.082
-3.0,15.0,0.083
1.0,11.0,0.084
-1.0,8.0,0.085
-6.0,10.0,0.086
-12.0,15.0,0.087
-12.0,14.0,0.088
-10.0,6.0,0.089
-9.0,-5.0,0.09
-4.0,-18.0,0.091
1.0,-30.0,0.092
3.0,-40.0,0.093
0.0,-45.0,0.094
2.0,-47.0,0.095
7.0,-44.0,0.096
11.0,-31.0,0.097
8.0,-13.0,0.098
4.0,0.0,0.099
3.0,2.0,0.1
0.0,1.0,0.101
-4.0,10.0,0.102
-3.0,26.0,0.103
4.0,32.0,0.104
11.0,28.0,0.105
9.0,20.0,0.106
3.0,0.0,0.107
-1.0,-40.0,0.108
-6.0,-86.0,0.109
-13.0,-96.0,0.11
-14.0,-60.0,0.111
-6.0,-12.0,0.112
-1.0,24.0,0.113
2.0,63.0,0.114
7.0,123.0,0.115
17.0,171.0,0.116
23.0,174.0,0.117
20.0,138.0,0.118
17.0,107.0,0.119
14.0,89.0,0.12
11.0,57.0,0.121
4.0,21.0,0.122
3.0,10.0,0.123
6.0,20.0,0.124
2.0,18.0,0.125
-9.0,-6.0,0.126
-20.0,-26.0,0.127
-21.0,-30.0,0.128
-16.0,-31.0,0.129
-11.0,-36.0,0.13
-7.0,-40.0,0.131
-1.0,-46.0,0.132
5.0,-58.0,0.133
5.0,-66.0,0.134
5.0,-65.0,0.135
12.0,-71.0,0.136
20.0,-98.0,0.137
19.0,-140.0,0.138
10.0,-154.0,0.139
3.0,-125.0,0.14
3.0,-74.0,0.141
6.0,-22.0,0.142
11.0,22.0,0.143
17.0,56.0,0.144
17.0,75.0,0.145
10.0,73.0,0.146
4.0,57.0,0.147
9.0,40.0,0.148
14.0,29.0,0.149
11.0,22.0,0.15
4.0,16.0,0.151
3.0,12.0,0.152
5.0,11.0,0.153
4.0,12.0,0.154
1.0,13.0,0.155
0.0,12.0,0.156
-2.0,8.0,0.157
-7.0,3.0,0.158
-14.0,-1.0,0.159
-16.0,0.0,0.16
-13.0,0.0,0.161
-11.0,0.0,0.162
-9.0,-2.0,0.163
-5.0,-7.0,0.164
-2.0,-9.0,0.165
-3.0,-8.0,0.166
-5.0,-6.0,0.167
-4.0,-8.0,0.168
-1.0,-15.0,0.169
1.0,-26.0,0.17
4.0,-35.0,0.171
10.0,-38.0,0.172
15.0,-41.0,0.173
17.0,-58.0,0.174
19.0,-88.0,0.175
20.0,-100.0,0.176
21.0,-62.0,0.177
18.0,13.0,0.178
13.0,71.0,0.179
7.0,66.0,0.18
2.0,14.0,0.181
3.0,-30.0,0.182
8.0,-39.0,0.183
12.0,-18.0,0.184
10.0,11.0,0.185
3.0,38.0,0.186
-1.0,65.0,0.187
-3.0,104.0,0.188
-6.0,144.0,0.189
-13.0,162.0,0.19
-24.0,147.0,0.191
-41.0,117.0,0.192
-58.0,86.0,0.193
-62.0,48.0,0.194
-44.0,7.0,0.195
-11.0,-20.0,0.196
24.0,-26.0,0.197
3.0,-32.0,0.198
0.0,-50.0,0.199
-4.0,-67.0,0.2
-5.0,-73.0,0.201
-3.0,-63.0,0.202
-1.0,-49.0,0.203
0.0,-31.0,0.204
1.0,-16.0,0.205
-1.0,-10.0,0.206
-4.0,-14.0,0.207
-1.0,-14.0,0.208
3.0,-12.0,0.209
3.0,-13.0,0.21
1.0,-16.0,0.211
4.0,-17.0,0.212
11.0,-14.0,0.213
15.0,-15.0,0.214
12.0,-21.0,0.215
12.0,-25.0,0.216
17.0,-28.0,0.217
19.0,-36.0,0.218
17.0,-40.0,0.219
10.0,-37.0,0.22
0.0,-27.0,0.221
-4.0,-12.0,0.222
-2.0,1.0,0.223
6.0,10.0,0.224
6.0,13.0,0.225
-6.0,12.0,0.226
-19.0,11.0,0.227
-21.0,12.0,0.228
-14.0,12.0,0.229
-13.0,6.0,0.23
-17.0,-8.0,0.231
-22.0,-35.0,0.232
-24.0,-70.0,0.233
-22.0,-99.0,0.234
-18.0,-94.0,0.235
-11.0,-47.0,0.236
-7.0,8.0,0.237
-10.0,26.0,0.238
-10.0,-20.0,0.239
-8.0,-90.0,0.24
-4.0,-113.0,0.241
-3.0,-53.0,0.242
0.0,51.0,0.243
10.0,141.0,0.244
13.0,194.0,0.245
12.0,217.0,0.246
10.0,214.0,0.247
13.0,184.0,0.248
14.0,143.0,0.249
10.0,106.0,0.25
9.0,71.0,0.251
14.0,30.0,0.252
18.0,-18.0,0.253
17.0,-53.0,0.254
15.0,-67.0,0.255
19.0,-61.0,0.256
25.0,-49.0,0.257
22.0,-43.0,0.258
15.0,-45.0,0.259
9.0,-51.0,0.26
9.0,-62.0,0.261
9.0,-67.0,0.262
13.0,-60.0,0.263
16.0,-37.0,0.264
10.0,0.0,0.265
6.0,36.0,0.266
5.0,55.0,0.267
3.0,55.0,0.268
1.0,44.0,0.269
0.0,22.0,0.27
0.0,-15.0,0.271
0.0,-53.0,0.272
1.0,-67.0,0.273
2.0,-47.0,0.274
0.0,-14.0,0.275
-3.0,-2.0,0.276
-2.0,-11.0,0.277
0.0,-22.0,0.278
1.0,-20.0,0.279
-2.0,-22.0,0.28
-6.0,-35.0,0.281
-8.0,-41.0,0.282
-3.0,-19.0,0.283
3.0,-1.0,0.284
5.0,8.0,0.285
0.0,14.0,0.286
-3.0,12.0,0.287
-2.0,9.0,0.288
0.0,4.0,0.289
1.0,-3.0,0.29
2.0,-16.0,0.291
3.0,-32.0,0.292
5.0,-57.0,0.293
8.0,-72.0,0.294
13.0,-55.0,0.295
18.0,-30.0,0.296
21.0,18.0,0.297
22.0,61.0,0.298
20.0,74.0,0.299
15.0,68.0,0.3
9.0,60.0,0.301
10.0,55.0,0.302
14.0,43.0,0.303
10.0,27.0,0.304
-9.0,17.0,0.305
-31.0,10.0,0.306
-41.0,-14.0,0.307
-35.0,-64.0,0.308
-26.0,-108.0,0.309
-22.0,-98.0,0.31
-20.0,-28.0,0.311
-16.0,51.0,0.312
-13.0,75.0,0.313
-13.0,41.0,0.314
-13.0,-9.0,0.315
-8.0,-29.0,0.316
-3.0,-8.0,0.317
-9.0,34.0,0.318
-22.0,61.0,0.319
-33.0,40.0,0.32
-32.0,-23.0,0.321
-19.0,-79.0,0.322
-2.0,-80.0,0.323
10.0,-25.0,0.324
15.0,53.0,0.325
13.0,116.0,0.326
16.0,143.0,0.327
24.0,133.0,0.328
30.0,104.0,0.329
28.0,69.0,0.33
22.0,36.0,0.331
21.0,3.0,0.332
26.0,-15.0,0.333
28.0,-16.0,0.334
26.0,-10.0,0.335
24.0,-12.0,0.336
25.0,-20.0,0.337
25.0,-30.0,0.338
25.0,-41.0,0.339
23.0,-59.0,0.34
18.0,-74.0,0.341
10.0,-70.0,0.342
0.0,-57.0,0.343
-7.0,-54.0,0.344
-18.0,-69.0,0.345
-30.0,-86.0,0.346
-28.0,-87.0,0.347
-6.0,-68.0,0.348
22.0,-36.0,0.349
41.0,-13.0,0.35
55.0,-5.0,0.351
68.0,2.0,0.352
68.0,27.0,0.353
41.0,55.0,0.354
5.0,60.0,0.355
-8.0,44.0,0.356
5.0,30.0,0.357
13.0,24.0,0.358
-2.0,19.0,0.359
-23.0,7.0,0.36
-30.0,-5.0,0.361
-27.0,-7.0,0.362
-30.0,-10.0,0.363
-32.0,-23.0,0.364
-26.0,-46.0,0.365
-21.0,-71.0,0.366
-24.0,-90.0,0.367
-28.0,-96.0,0.368
-22.0,-73.0,0.369
-6.0,-20.0,0.37
5.0,49.0,0.371
10.0,110.0,0.372
13.0,142.0,0.373
16.0,142.0,0.374
13.0,116.0,0.375
10.0,80.0,0.376
18.0,55.0,0.377
27.0,40.0,0.378
28.0,34.0,0.379
13.0,17.0,0.38
-6.0,-23.0,0.381
-16.0,-72.0,0.382
-16.0,-99.0,0.383
-16.0,-70.0,0.384
-26.0,0.0,0.385
-47.0,53.0,0.386
-63.0,47.0,0.387
-51.0,-5.0,0.388
-16.0,-65.0,0.389
16.0,-119.0,0.39
24.0,-156.0,0.391
18.0,-151.0,0.392
17.0,-95.0,0.393
23.0,-33.0,0.394
19.0,-8.0,0.395
8.0,-7.0,0.396
2.0,4.0,0.397
6.0,22.0,0.398
10.0,23.0,0.399
7.0,21.0,0.4
1.0,61.0,0.401
2.0,145.0,0.402
8.0,213.0,0.403
14.0,225.0,0.404
11.0,198.0,0.405
3.0,159.0,0.406
-1.0,104.0,0.407
0.0,26.0,0.408
2.0,-36.0,0.409
7.0,-49.0,0.41
10.0,-23.0,0.411
13.0,-6.0,0.412
14.0,-14.0,0.413
15.0,-25.0,0.414
16.0,-26.0,0.415
15.0,-22.0,0.416
13.0,-25.0,0.417
7.0,-36.0,0.418
0.0,-52.0,0.419
-7.0,-79.0,0.42
-16.0,-120.0,0.421
-17.0,-135.0,0.422
-10.0,-102.0,0.423
-1.0,-40.0,0.424
0.0,5.0,0.425
-4.0,21.0,0.426
-4.0,22.0,0.427
1.0,18.0,0.428
3.0,6.0,0.429
1.0,-11.0,0.43
0.0,-21.0,0.431
4.0,-20.0,0.432
6.0,-20.0,0.433
8.0,-21.0,0.434
13.0,-24.0,0.435
20.0,-26.0,0.436
25.0,-26.0,0.437
23.0,-22.0,0.438
19.0,-9.0,0.439
14.0,0.0,0.44
7.0,1.0,0.441
1.0,-1.0,0.442
-3.0,2.0,0.443
-6.0,10.0,0.444
-12.0,15.0,0.445
-16.0,15.0,0.446
-16.0,4.0,0.447
-12.0,-9.0,0.448
-10.0,-16.0,0.449
-9.0,-10.0,0.45
-4.0,0.0,0.451
0.0,7.0,0.452
2.0,11.0,0.453
2.0,23.0,0.454
9.0,33.0,0.455
17.0,32.0,0.456
20.0,26.0,0.457
16.0,25.0,0.458
8.0,26.0,0.459
1.0,19.0,0.46
-2.0,7.0,0.461
-1.0,1.0,0.462
6.0,1.0,0.463
12.0,0.0,0.464
12.0,-1.0,0.465
6.0,1.0,0.466
0.0,4.0,0.467
0.0,3.0,0.468
2.0,-2.0,0.469
4.0,-5.0,0.47
3.0,-9.0,0.471
2.0,-14.0,0.472
0.0,-15.0,0.473
-3.0,-10.0,0.474
-4.0,-6.0,0.475
-3.0,-10.0,0.476
-3.0,-14.0,0.477
-4.0,-20.0,0.478
-3.0,-30.0,0.479
-8.0,-49.0,0.48
-16.0,-71.0,0.481
-19.0,-70.0,0.482
-11.0,-46.0,0.483
-1.0,-18.0,0.484
-1.0,-1.0,0.485
-7.0,19.0,0.486
-5.0,58.0,0.487
6.0,104.0,0.488
14.0,115.0,0.489
18.0,71.0,0.49
22.0,-1.0,0.491
30.0,-48.0,0.492
33.0,-38.0,0.493
29.0,17.0,0.494
25.0,75.0,0.495
23.0,96.0,0.496
20.0,83.0,0.497
11.0,56.0,0.498
-4.0,36.0,0.499
-18.0,12.0,0.5
-31.0,-18.0,0.501
-39.0,-42.0,0.502
-41.0,-41.0,0.503
-38.0,-42.0,0.504
-32.0,-53.0,0.505
-28.0,-70.0,0.506
-26.0,-103.0,0.507
-24.0,-124.0,0.508
-21.0,-110.0,0.509
-15.0,-93.0,0.51
-7.0,-71.0,0.511
0.0,-48.0,0.512
6.0,-22.0,0.513
14.0,26.0,0.514
21.0,139.0,0.515
25.0,226.0,0.516
28.0,236.0,0.517
29.0,238.0,0.518
30.0,207.0,0.519
26.0,148.0,0.52
21.0,53.0,0.521
18.0,-24.0,0.522
20.0,-55.0,0.523
21.0,-49.0,0.524
21.0,-24.0,0.525
19.0,14.0,0.526
17.0,52.0,0.527
17.0,61.0,0.528
15.0,38.0,0.529
9.0,5.0,0.53
6.0,-27.0,0.531
11.0,-64.0,0.532
16.0,-94.0,0.533
18.0,-104.0,0.534
14.0,-101.0,0.535
7.0,-103.0,0.536
2.0,-105.0,0.537
-2.0,-98.0,0.538
-7.0,-84.0,0.539
-19.0,-75.0,0.54
-26.0,-79.0,0.541
-21.0,-81.0,0.542
-5.0,-80.0,0.543
8.0,-74.0,0.544
10.0,-52.0,0.545
6.0,-21.0,0.546
5.0,4.0,0.547
4.0,14.0,0.548
1.0,22.0,0.549
0.0,36.0,0.55
1.0,50.0,0.551
3.0,56.0,0.552
6.0,59.0,0.553
8.0,64.0,0.554
10.0,63.0,0.555
10.0,51.0,0.556
9.0,36.0,0.557
6.0,18.0,0.558
2.0,4.0,0.559
-5.0,-2.0,0.56
-12.0,-4.0,0.561
-12.0,-4.0,0.562
-10.0,-9.0,0.563
-10.0,-20.0,0.564
-15.0,-26.0,0.565
-18.0,-29.0,0.566
-15.0,-41.0,0.567
-7.0,-55.0,0.568
-3.0,-61.0,0.569
-3.0,-50.0,0.57
-5.0,-26.0,0.571
-1.0,9.0,0.572
5.0,54.0,0.573
6.0,91.0,0.574
2.0,99.0,0.575
-1.0,81.0,0.576
-1.0,61.0,0.577
-2.0,43.0,0.578
-3.0,29.0,0.579
-6.0,12.0,0.58
-3.0,-2.0,0.581
1.0,-11.0,0.582
5.0,-20.0,0.583
6.0,-29.0,0.584
3.0,-27.0,0.585
-3.0,-15.0,0.586
-5.0,-1.0,0.587
-3.0,9.0,0.588
-1.0,12.0,0.589
0.0,8.0,0.59
3.0,-13.0,0.591
10.0,-61.0,0.592
14.0,-131.0,0.593
11.0,-177.0,0.594
6.0,-140.0,0.595
5.0,-21.0,0.596
9.0,93.0,0.597
8.0,127.0,0.598
6.0,97.0,0.599
4.0,77.0,0.6
1.0,87.0,0.601
0.0,89.0,0.602
8.0,64.0,0.603
13.0,45.0,0.604
11.0,40.0,0.605
9.0,20.0,0.606
5.0,-22.0,0.607
1.0,-39.0,0.608
-1.0,-15.0,0.609
-3.0,12.0,0.61
-1.0,10.0,0.611
0.0,-9.0,0.612
2.0,-21.0,0.613
4.0,-26.0,0.614
4.0,-31.0,0.615
4.0,-47.0,0.616
8.0,-71.0,0.617
10.0,-81.0,0.618
3.0,-54.0,0.619
1.0,-22.0,0.62
0.0,25.0,0.621
-1.0,60.0,0.622
-1.0,58.0,0.623
1.0,55.0,0.624
2.0,50.0,0.625
-2.0,40.0,0.626
-2.0,16.0,0.627
3.0,-2.0,0.628
7.0,-5.0,0.629
7.0,-10.0,0.63
7.0,-21.0,0.631
13.0,-30.0,0.632
17.0,-30.0,0.633
18.0,-31.0,0.634
18.0,-35.0,0.635
25.0,-36.0,0.636
31.0,-30.0,0.637
28.0,-27.0,0.638
19.0,-29.0,0.639
8.0,-25.0,0.64
-1.0,-15.0,0.641
-9.0,-7.0,0.642
-16.0,-4.0,0.643
-16.0,-3.0,0.644
-15.0,-10.0,0.645
-19.0,-30.0,0.646
-22.0,-46.0,0.647
-23.0,-36.0,0.648
-21.0,0.0,0.649
-16.0,29.0,0.65
-10.0,32.0,0.651
-3.0,28.0,0.652
-2.0,39.0,0.653
-4.0,56.0,0.654
-6.0,52.0,0.655
-3.0,16.0,0.656
6.0,-27.0,0.657
9.0,-66.0,0.658
8.0,-83.0,0.659
0.0,-76.0,0.66
-3.0,-45.0,0.661
0.0,8.0,0.662
8.0,67.0,0.663
14.0,119.0,0.664
9.0,154.0,0.665
3.0,160.0,0.666
3.0,135.0,0.667
8.0,92.0,0.668
12.0,54.0,0.669
10.0,27.0,0.67
12.0,2.0,0.671
15.0,-23.0,0.672
12.0,-42.0,0.673
8.0,-50.0,0.674
8.0,-51.0,0.675
13.0,-50.0,0.676
14.0,-44.0,0.677
8.0,-39.0,0.678
4.0,-44.0,0.679
1.0,-65.0,0.68
0.0,-92.0,0.681
-3.0,-95.0,0.682
0.0,-57.0,0.683
7.0,4.0,0.684
11.0,49.0,0.685
6.0,45.0,0.686
4.0,3.0,0.687
5.0,-43.0,0.688
6.0,-67.0,0.689
1.0,-69.0,0.69
-3.0,-49.0,0.691
-3.0,-6.0,0.692
0.0,51.0,0.693
5.0,96.0,0.694
6.0,103.0,0.695
6.0,79.0,0.696
7.0,44.0,0.697
7.0,8.0,0.698
6.0,-7.0,0.699
1.0,3.0,0.7
-5.0,25.0,0.701
-10.0,34.0,0.702
-10.0,23.0,0.703
-6.0,8.0,0.704
-5.0,6.0,0.705
-7.0,9.0,0.706
-10.0,4.0,0.707
-11.0,-3.0,0.708
-9.0,-4.0,0.709
-5.0,-4.0,0.71
-3.0,-8.0,0.711
-3.0,-20.0,0.712
-6.0,-30.0,0.713
-5.0,-31.0,0.714
2.0,-34.0,0.715
12.0,-48.0,0.716
19.0,-81.0,0.717
17.0,-142.0,0.718
14.0,-185.0,0.719
11.0,-145.0,0.72
5.0,-15.0,0.721
2.0,121.0,0.722
7.0,164.0,0.723
11.0,115.0,0.724
5.0,59.0,0.725
0.0,46.0,0.726
-2.0,44.0,0.727
-4.0,22.0,0.728
-2.0,-3.0,0.729
0.0,-18.0,0.73
1.0,-30.0,0.731
5.0,-45.0,0.732
11.0,-46.0,0.733
18.0,-14.0,0.734
22.0,38.0,0.735
26.0,85.0,0.736
26.0,102.0,0.737
24.0,76.0,0.738
17.0,18.0,0.739
9.0,-44.0,0.74
5.0,-79.0,0.741
1.0,-64.0,0.742
1.0,-13.0,0.743
2.0,38.0,0.744
0.0,57.0,0.745
-10.0,46.0,0.746
-24.0,24.0,0.747
-33.0,0.0,0.748
-37.0,-22.0,0.749
-35.0,-38.0,0.75
-26.0,-30.0,0.751
-14.0,-3.0,0.752
-2.0,9.0,0.753
3.0,-21.0,0.754
3.0,-86.0,0.755
4.0,-132.0,0.756
9.0,-115.0,0.757
14.0,-34.0,0.758
14.0,54.0,0.759
6.0,90.0,0.76
-2.0,69.0,0.761
-2.0,44.0,0.762
8.0,33.0,0.763
18.0,20.0,0.764
15.0,-1.0,0.765
6.0,-8.0,0.766
2.0,6.0,0.767
5.0,23.0,0.768
5.0,31.0,0.769
3.0,37.0,0.77
4.0,44.0,0.771
8.0,42.0,0.772
9.0,25.0,0.773
8.0,3.0,0.774
10.0,-19.0,0.775
13.0,-48.0,0.776
12.0,-73.0,0.777
4.0,-75.0,0.778
0.0,-37.0,0.779
-3.0,18.0,0.78
-7.0,47.0,0.781
-10.0,38.0,0.782
-6.0,12.0,0.783
0.0,-2.0,0.784
1.0,-2.0,0.785
-2.0,-3.0,0.786
-2.0,-7.0,0.787
3.0,-12.0,0.788
9.0,-22.0,0.789
14.0,-31.0,0.79
18.0,-27.0,0.791
21.0,-9.0,0.792
21.0,6.0,0.793
18.0,4.0,0.794
18.0,-7.0,0.795
18.0,-9.0,0.796
17.0,-7.0,0.797
13.0,-11.0,0.798
8.0,-21.0,0.799
0.0,-22.0,0.8
-6.0,-17.0,0.801
-13.0,-13.0,0.802
-14.0,-12.0,0.803
-17.0,-8.0,0.804
-24.0,0.0,0.805
-35.0,4.0,0.806
-36.0,1.0,0.807
-26.0,-8.0,0.808
-12.0,-23.0,0.809
-3.0,-41.0,0.81
8.0,-60.0,0.811
18.0,-83.0,0.812
24.0,-111.0,0.813
25.0,-120.0,0.814
28.0,-80.0,0.815
30.0,1.0,0.816
28.0,83.0,0.817
19.0,145.0,0.818
8.0,186.0,0.819
-7.0,205.0,0.82
-26.0,188.0,0.821
-45.0,139.0,0.822
-53.0,81.0,0.823
-50.0,28.0,0.824
-43.0,-25.0,0.825
-40.0,-80.0,0.826
-32.0,-118.0,0.827
-16.0,-123.0,0.828
0.0,-108.0,0.829
7.0,-94.0,0.83
11.0,-77.0,0.831
18.0,-35.0,0.832
27.0,42.0,0.833
32.0,136.0,0.834
34.0,201.0,0.835
37.0,206.0,0.836
41.0,163.0,0.837
37.0,98.0,0.838
32.0,49.0,0.839
23.0,12.0,0.84
15.0,-21.0,0.841
13.0,-49.0,0.842
15.0,-73.0,0.843
18.0,-93.0,0.844
13.0,-110.0,0.845
-1.0,-111.0,0.846
-7.0,-94.0,0.847
-4.0,-70.0,0.848
2.0,-50.0,0.849
2.0,-36.0,0.85
0.0,-29.0,0.851
4.0,-28.0,0.852
11.0,-28.0,0.853
14.0,-21.0,0.854
13.0,-10.0,0.855
14.0,-5.0,0.856
16.0,-2.0,0.857
8.0,4.0,0.858
-2.0,12.0,0.859
-11.0,19.0,0.86
-12.0,23.0,0.861
-12.0,27.0,0.862
-6.0,26.0,0.863
-1.0,19.0,0.864
-2.0,11.0,0.865
-4.0,10.0,0.866
-6.0,13.0,0.867
-6.0,11.0,0.868
1.0,5.0,0.869
7.0,3.0,0.87
9.0,0.0,0.871
11.0,-10.0,0.872
9.0,-28.0,0.873
8.0,-35.0,0.874
10.0,-22.0,0.875
12.0,-1.0,0.876
12.0,10.0,0.877
9.0,9.0,0.878
-1.0,4.0,0.879
-8.0,0.0,0.88
-11.0,-3.0,0.881
-14.0,-4.0,0.882
-11.0,-2.0,0.883
-4.0,0.0,0.884
-1.0,1.0,0.885
-3.0,1.0,0.886
-5.0,-1.0,0.887
-3.0,-5.0,0.888
1.0,-9.0,0.889
4.0,-18.0,0.89
6.0,-23.0,0.891
9.0,-17.0,0.892
14.0,5.0,0.893
15.0,37.0,0.894
13.0,56.0,0.895
8.0,51.0,0.896
1.0,38.0,0.897
-6.0,26.0,0.898
-8.0,18.0,0.899
-5.0,6.0,0.9
-5.0,-19.0,0.901
-6.0,-51.0,0.902
-3.0,-78.0,0.903
7.0,-84.0,0.904
10.0,-55.0,0.905
-1.0,-7.0,0.906
-16.0,30.0,0.907
-21.0,46.0,0.908
-17.0,54.0,0.909
-9.0,56.0,0.91
0.0,31.0,0.911
7.0,-26.0,0.912
9.0,-83.0,0.913
9.0,-99.0,0.914
12.0,-64.0,0.915
13.0,2.0,0.916
7.0,71.0,0.917
-5.0,118.0,0.918
-11.0,128.0,0.919
-10.0,105.0,0.92
-11.0,66.0,0.921
-14.0,17.0,0.922
-8.0,-51.0,0.923
0.0,-113.0,0.924
2.0,-115.0,0.925
-1.0,-49.0,0.926
0.0,27.0,0.927
10.0,59.0,0.928
20.0,52.0,0.929
22.0,33.0,0.93
19.0,6.0,0.931
17.0,-24.0,0.932
16.0,-37.0,0.933
14.0,-15.0,0.934
16.0,17.0,0.935
21.0,32.0,0.936
26.0,33.0,0.937
24.0,34.0,0.938
15.0,41.0,0.939
6.0,50.0,0.94
0.0,52.0,0.941
-2.0,43.0,0.942
4.0,15.0,0.943
8.0,-22.0,0.944
2.0,-48.0,0.945
-2.0,-59.0,0.946
-2.0,-62.0,0.947
-2.0,-57.0,0.948
0.0,-38.0,0.949
2.0,-19.0,0.95
8.0,-17.0,0.951
13.0,-25.0,0.952
14.0,-21.0,0.953
15.0,-10.0,0.954
15.0,-10.0,0.955
14.0,-21.0,0.956
8.0,-22.0,0.957
1.0,-16.0,0.958
-5.0,-15.0,0.959
-10.0,-14.0,0.96
-15.0,-16.0,0.961
-17.0,-17.0,0.962
-12.0,-11.0,0.963
-5.0,-6.0,0.964
-4.0,-3.0,0.965
-9.0,0.0,0.966
-9.0,2.0,0.967
-3.0,2.0,0.968
1.0,-3.0,0.969
1.0,-10.0,0.97
1.0,-20.0,0.971
6.0,-26.0,0.972
10.0,-16.0,0.973
10.0,-6.0,0.974
10.0,2.0,0.975
14.0,15.0,0.976
17.0,47.0,0.977
16.0,74.0,0.978
11.0,72.0,0.979
2.0,49.0,0.98
-5.0,29.0,0.981
-11.0,10.0,0.982
-9.0,-11.0,0.983
-4.0,-19.0,0.984
-3.0,2.0,0.985
-12.0,34.0,0.986
-22.0,40.0,0.987
-25.0,21.0,0.988
-25.0,4.0,0.989
-23.0,0.0,0.99
-18.0,-1.0,0.991
-4.0,-2.0,0.992
9.0,-5.0,0.993
8.0,-15.0,0.994
3.0,-38.0,0.995
5.0,-53.0,0.996
13.0,-46.0,0.997
12.0,-22.0,0.998
1.0,3.0,0.999
-7.0,21.0,1.0
-5.0,30.0,1.001
1.0,29.0,1.002
9.0,22.0,1.003
14.0,18.0,1.004
16.0,22.0,1.005
12.0,25.0,1.006
8.0,17.0,1.007
11.0,5.0,1.008
16.0,-5.0,1.009
16.0,-13.0,1.01
12.0,-22.0,1.011
11.0,-28.0,1.012
14.0,-26.0,1.013
10.0,-28.0,1.014
3.0,-46.0,1.015
0.0,-75.0,1.016
3.0,-98.0,1.017
7.0,-115.0,1.018
5.0,-129.0,1.019
3.0,-143.0,1.02
-3.0,-158.0,1.021
-7.0,-153.0,1.022
-5.0,-96.0,1.023
2.0,31.0,1.024
5.0,191.0,1.025
0.0,304.0,1.026
-4.0,324.0,1.027
1.0,280.0,1.028
6.0,223.0,1.029
4.0,165.0,1.03
1.0,95.0,1.031
9.0,28.0,1.032
18.0,-14.0,1.033
20.0,-37.0,1.034
17.0,-57.0,1.035
16.0,-69.0,1.036
20.0,-63.0,1.037
17.0,-56.0,1.038
10.0,-66.0,1.039
2.0,-77.0,1.04
-3.0,-71.0,1.041
-3.0,-51.0,1.042
-1.0,-40.0,1.043
1.0,-38.0,1.044
-1.0,-27.0,1.045
-12.0,-13.0,1.046
-21.0,-10.0,1.047
-19.0,-13.0,1.048
-16.0,-14.0,1.049
-16.0,-13.0,1.05
-16.0,-30.0,1.051
-11.0,-62.0,1.052
-3.0,-92.0,1.053
3.0,-101.0,1.054
7.0,-84.0,1.055
11.0,-50.0,1.056
14.0,-15.0,1.057
8.0,12.0,1.058
2.0,39.0,1.059
-3.0,66.0,1.06
-5.0,82.0,1.061
-7.0,81.0,1.062
-1.0,71.0,1.063
3.0,68.0,1.064
3.0,68.0,1.065
2.0,62.0,1.066
0.0,52.0,1.067
-2.0,49.0,1.068
3.0,46.0,1.069
8.0,31.0,1.07
9.0,6.0,1.071
11.0,-8.0,1.072
12.0,-9.0,1.073
14.0,-7.0,1.074
15.0,-13.0,1.075
17.0,-26.0,1.076
21.0,-33.0,1.077
24.0,-38.0,1.078
19.0,-38.0,1.079
11.0,-37.0,1.08
3.0,-38.0,1.081
0.0,-39.0,1.082
0.0,-36.0,1.083
3.0,-31.0,1.084
2.0,-19.0,1.085
-7.0,-8.0,1.086
-17.0,-1.0,1.087
-18.0,5.0,1.088
-12.0,6.0,1.089
-8.0,7.0,1.09
-8.0,2.0,1.091
-5.0,0.0,1.092
0.0,6.0,1.093
3.0,13.0,1.094
5.0,19.0,1.095
8.0,20.0,1.096
7.0,5.0,1.097
2.0,-8.0,1.098
-1.0,-17.0,1.099
-4.0,-25.0,1.1
-9.0,-27.0,1.101
-22.0,-10.0,1.102
-39.0,16.0,1.103
-46.0,29.0,1.104
-43.0,22.0,1.105
-31.0,12.0,1.106
-6.0,11.0,1.107
23.0,8.0,1.108
43.0,-12.0,1.109
51.0,-43.0,1.11
53.0,-70.0,1.111
52.0,-68.0,1.112
45.0,-37.0,1.113
32.0,5.0,1.114
22.0,30.0,1.115
17.0,30.0,1.116
18.0,24.0,1.117
19.0,18.0,1.118
16.0,20.0,1.119
5.0,24.0,1.12
-10.0,24.0,1.121
-25.0,15.0,1.122
-33.0,-10.0,1.123
-38.0,-40.0,1.124
-41.0,-49.0,1.125
-41.0,-26.0,1.126
-28.0,6.0,1.127
-6.0,38.0,1.128
13.0,72.0,1.129
19.0,105.0,1.13
22.0,113.0,1.131
29.0,87.0,1.132
32.0,52.0,1.133
22.0,29.0,1.134
16.0,8.0,1.135
22.0,-16.0,1.136
31.0,-36.0,1.137
19.0,-44.0,1.138
-3.0,-47.0,1.139
-9.0,-51.0,1.14
3.0,-50.0,1.141
7.0,-35.0,1.142
-9.0,-21.0,1.143
-20.0,-21.0,1.144
-9.0,-25.0,1.145
9.0,-18.0,1.146
12.0,-7.0,1.147
14.0,-5.0,1.148
27.0,-9.0,1.149
32.0,-10.0,1.15
9.0,-9.0,1.151
-19.0,-9.0,1.152
-22.0,-12.0,1.153
-8.0,-11.0,1.154
-2.0,-7.0,1.155
-8.0,-6.0,1.156
-9.0,-7.0,1.157
-3.0,-11.0,1.158
-2.0,-9.0,1.159
-14.0,-5.0,1.16
-19.0,-5.0,1.161
-8.0,-4.0,1.162
11.0,-3.0,1.163
19.0,0.0,1.164
8.0,8.0,1.165
-13.0,14.0,1.166
-19.0,11.0,1.167
-4.0,0.0,1.168
15.0,-15.0,1.169
19.0,-28.0,1.17
10.0,-36.0,1.171
0.0,-35.0,1.172
-6.0,-28.0,1.173
-18.0,-14.0,1.174
-23.0,7.0,1.175
-10.0,30.0,1.176
10.0,44.0,1.177
16.0,39.0,1.178
4.0,27.0,1.179
-4.0,18.0,1.18
1.0,8.0,1.181
8.0,-10.0,1.182
7.0,-33.0,1.183
3.0,-42.0,1.184
3.0,-24.0,1.185
0.0,16.0,1.186
-4.0,54.0,1.187
-6.0,75.0,1.188
-8.0,76.0,1.189
-13.0,65.0,1.19
-18.0,49.0,1.191
-11.0,33.0,1.192
3.0,12.0,1.193
15.0,-18.0,1.194
18.0,-67.0,1.195
17.0,-112.0,1.196
19.0,-112.0,1.197
18.0,-44.0,1.198
16.0,51.0,1.199
12.0,100.0,1.2
13.0,83.0,1.201
17.0,53.0,1.202
22.0,46.0,1.203
18.0,41.0,1.204
0.0,20.0,1.205
-20.0,-1.0,1.206
-22.0,-5.0,1.207
-10.0,-7.0,1.208
0.0,-22.0,1.209
0.0,-39.0,1.21
-5.0,-40.0,1.211
-6.0,-34.0,1.212
-7.0,-34.0,1.213
-4.0,-39.0,1.214
6.0,-38.0,1.215
25.0,-34.0,1.216
42.0,-32.0,1.217
45.0,-28.0,1.218
37.0,-16.0,1.219
22.0,-8.0,1.22
12.0,-11.0,1.221
6.0,-12.0,1.222
4.0,-5.0,1.223
5.0,3.0,1.224
2.0,7.0,1.225
-4.0,8.0,1.226
-9.0,8.0,1.227
-8.0,8.0,1.228
-4.0,8.0,1.229
-2.0,8.0,1.23
0.0,6.0,1.231
2.0,0.0,1.232
4.0,-1.0,1.233
4.0,0.0,1.234
5.0,1.0,1.235
8.0,-3.0,1.236
12.0,-5.0,1.237
11.0,-7.0,1.238
5.0,-9.0,1.239
-3.0,-11.0,1.24
-10.0,-11.0,1.241
-11.0,-4.0,1.242
-6.0,4.0,1.243
0.0,9.0,1.244
0.0,12.0,1.245
-7.0,15.0,1.246
-8.0,15.0,1.247
0.0,12.0,1.248
15.0,9.0,1.249
22.0,7.0,1.25
24.0,2.0,1.251
23.0,-8.0,1.252
25.0,-21.0,1.253
27.0,-29.0,1.254
26.0,-24.0,1.255
24.0,-6.0,1.256
21.0,15.0,1.257
15.0,23.0,1.258
1.0,12.0,1.259
-20.0,2.0,1.26
-46.0,-1.0,1.261
-71.0,-4.0,1.262
-89.0,-25.0,1.263
-94.0,-51.0,1.264
-90.0,-64.0,1.265
-77.0,-65.0,1.266
-61.0,-75.0,1.267
-45.0,-106.0,1.268
-33.0,-138.0,1.269
-21.0,-156.0,1.27
-7.0,-162.0,1.271
10.0,-147.0,1.272
24.0,-73.0,1.273
32.0,83.0,1.274
36.0,273.0,1.275
44.0,406.0,1.276
51.0,442.0,1.277
50.0,403.0,1.278
43.0,337.0,1.279
32.0,253.0,1.28
30.0,152.0,1.281
35.0,61.0,1.282
39.0,-1.0,1.283
37.0,-54.0,1.284
30.0,-114.0,1.285
24.0,-154.0,1.286
24.0,-142.0,1.287
28.0,-106.0,1.288
26.0,-95.0,1.289
23.0,-109.0,1.29
21.0,-109.0,1.291
21.0,-88.0,1.292
21.0,-75.0,1.293
20.0,-76.0,1.294
19.0,-67.0,1.295
17.0,-48.0,1.296
13.0,-38.0,1.297
5.0,-43.0,1.298
0.0,-43.0,1.299
-4.0,-29.0,1.3
-8.0,-21.0,1.301
-10.0,-22.0,1.302
-6.0,-23.0,1.303
-3.0,-14.0,1.304
-7.0,-4.0,1.305
-12.0,0.0,1.306
-12.0,3.0,1.307
-8.0,5.0,1.308
-5.0,4.0,1.309
-6.0,2.0,1.31
-4.0,2.0,1.311
1.0,0.0,1.312
9.0,-3.0,1.313
12.0,-2.0,1.314
10.0,-1.0,1.315
4.0,-2.0,1.316
-2.0,-2.0,1.317
-9.0,0.0,1.318
-15.0,6.0,1.319
-23.0,5.0,1.32
-30.0,-4.0,1.321
-27.0,-6.0,1.322
-14.0,3.0,1.323
0.0,12.0,1.324
1.0,15.0,1.325
-5.0,17.0,1.326
-7.0,18.0,1.327
1.0,16.0,1.328
9.0,12.0,1.329
8.0,9.0,1.33
6.0,9.0,1.331
7.0,8.0,1.332
9.0,5.0,1.333
9.0,5.0,1.334
8.0,4.0,1.335
10.0,1.0,1.336
8.0,-3.0,1.337
4.0,-6.0,1.338
0.0,-6.0,1.339
-1.0,-5.0,1.34
-2.0,-8.0,1.341
-4.0,-8.0,1.342
-3.0,-5.0,1.343
1.0,1.0,1.344
4.0,10.0,1.345
3.0,15.0,1.346
2.0,18.0,1.347
5.0,19.0,1.348
8.0,18.0,1.349
7.0,18.0,1.35
6.0,16.0,1.351
11.0,11.0,1.352
17.0,6.0,1.353
17.0,1.0,1.354
11.0,-5.0,1.355
7.0,-8.0,1.356
8.0,-9.0,1.357
4.0,-10.0,1.358
-5.0,-11.0,1.359
-15.0,-11.0,1.36
-15.0,-12.0,1.361
-7.0,-10.0,1.362
1.0,-17.0,1.363
5.0,-40.0,1.364
7.0,-69.0,1.365
7.0,-93.0,1.366
11.0,-100.0,1.367
14.0,-91.0,1.368
14.0,-63.0,1.369
12.0,-25.0,1.37
6.0,22.0,1.371
-3.0,72.0,1.372
-18.0,119.0,1.373
-35.0,159.0,1.374
-43.0,183.0,1.375
-38.0,187.0,1.376
-23.0,169.0,1.377
-14.0,116.0,1.378
-10.0,31.0,1.379
-6.0,-67.0,1.38
-9.0,-143.0,1.381
-11.0,-153.0,1.382
-8.0,-110.0,1.383
-5.0,-55.0,1.384
-3.0,-16.0,1.385
0.0,8.0,1.386
5.0,27.0,1.387
11.0,15.0,1.388
12.0,-38.0,1.389
14.0,-93.0,1.39
17.0,-93.0,1.391
21.0,-35.0,1.392
28.0,35.0,1.393
33.0,80.0,1.394
30.0,100.0,1.395
26.0,112.0,1.396
22.0,115.0,1.397
18.0,98.0,1.398
13.0,72.0,1.399
5.0,45.0,1.4
0.0,15.0,1.401
-1.0,-12.0,1.402
6.0,-34.0,1.403
13.0,-50.0,1.404
7.0,-44.0,1.405
-5.0,-38.0,1.406
-7.0,-32.0,1.407
5.0,-27.0,1.408
16.0,-30.0,1.409
17.0,-32.0,1.41
17.0,-30.0,1.411
23.0,-28.0,1.412
24.0,-28.0,1.413
19.0,-28.0,1.414
13.0,-30.0,1.415
10.0,-31.0,1.416
6.0,-28.0,1.417
-2.0,-25.0,1.418
-10.0,-23.0,1.419
-15.0,-20.0,1.42
-20.0,-15.0,1.421
-24.0,-8.0,1.422
-21.0,-11.0,1.423
-12.0,-26.0,1.424
-10.0,-49.0,1.425
-15.0,-65.0,1.426
-12.0,-67.0,1.427
-1.0,-52.0,1.428
4.0,-18.0,1.429
1.0,35.0,1.43
1.0,92.0,1.431
10.0,121.0,1.432
16.0,113.0,1.433
11.0,80.0,1.434
5.0,49.0,1.435
6.0,24.0,1.436
10.0,7.0,1.437
4.0,-4.0,1.438
0.0,-8.0,1.439
-1.0,-14.0,1.44
0.0,-25.0,1.441
-2.0,-25.0,1.442
-3.0,-11.0,1.443
1.0,3.0,1.444
3.0,3.0,1.445
-1.0,0.0,1.446
-6.0,4.0,1.447
-3.0,6.0,1.448
2.0,-2.0,1.449
5.0,-10.0,1.45
6.0,-8.0,1.451
9.0,-1.0,1.452
9.0,-3.0,1.453
7.0,-6.0,1.454
7.0,-7.0,1.455
7.0,-8.0,1.456
7.0,-9.0,1.457
4.0,-13.0,1.458
3.0,-8.0,1.459
1.0,-6.0,1.46
0.0,-9.0,1.461
-2.0,-7.0,1.462
1.0,-2.0,1.463
3.0,2.0,1.464
0.0,2.0,1.465
-3.0,4.0,1.466
-2.0,6.0,1.467
0.0,6.0,1.468
1.0,-1.0,1.469
3.0,-7.0,1.47
3.0,-12.0,1.471
2.0,-13.0,1.472
-2.0,-5.0,1.473
-5.0,8.0,1.474
-5.0,16.0,1.475
-4.0,9.0,1.476
-1.0,-3.0,1.477
0.0,-15.0,1.478
-5.0,-29.0,1.479
-16.0,-46.0,1.48
-20.0,-66.0,1.481
-17.0,-73.0,1.482
-10.0,-41.0,1.483
-1.0,-13.0,1.484
2.0,3.0,1.485
4.0,18.0,1.486
7.0,34.0,1.487
12.0,50.0,1.488
16.0,66.0,1.489
18.0,80.0,1.49
16.0,84.0,1.491
14.0,90.0,1.492
16.0,100.0,1.493
21.0,101.0,1.494
23.0,73.0,1.495
18.0,42.0,1.496
9.0,3.0,1.497
-3.0,-40.0,1.498
-9.0,-87.0,1.499
-15.0,-91.0,1.5
-17.0,-57.0,1.501
-14.0,-34.0,1.502
-2.0,-53.0,1.503
11.0,-82.0,1.504
12.0,-75.0,1.505
2.0,-26.0,1.506
-6.0,30.0,1.507
-7.0,63.0,1.508
-3.0,69.0,1.509
2.0,54.0,1.51
10.0,25.0,1.511
19.0,-4.0,1.512
27.0,-20.0,1.513
28.0,-30.0,1.514
24.0,-38.0,1.515
23.0,-38.0,1.516
26.0,-25.0,1.517
23.0,-8.0,1.518
13.0,6.0,1.519
-2.0,21.0,1.52
-16.0,28.0,1.521
-22.0,26.0,1.522
-17.0,19.0,1.523
-8.0,15.0,1.524
-5.0,18.0,1.525
-9.0,16.0,1.526
-11.0,5.0,1.527
-4.0,-5.0,1.528
5.0,-4.0,1.529
7.0,0.0,1.53
2.0,-4.0,1.531
0.0,-10.0,1.532
4.0,-12.0,1.533
8.0,-10.0,1.534
10.0,-10.0,1.535
11.0,-17.0,1.536
10.0,-21.0,1.537
3.0,-25.0,1.538
-1.0,-24.0,1.539
-6.0,-20.0,1.54
-8.0,-18.0,1.541
-5.0,-17.0,1.542
1.0,-16.0,1.543
7.0,-11.0,1.544
7.0,-4.0,1.545
1.0,-1.0,1.546
0.0,1.0,1.547
5.0,0.0,1.548
11.0,0.0,1.549
13.0,-3.0,1.55
12.0,-7.0,1.551
10.0,-7.0,1.552
10.0,-7.0,1.553
8.0,-7.0,1.554
9.0,-7.0,1.555
10.0,-4.0,1.556
7.0,0.0,1.557
0.0,-1.0,1.558
-8.0,-5.0,1.559
-17.0,-5.0,1.56
-28.0,-8.0,1.561
-36.0,-15.0,1.562
-34.0,-32.0,1.563
-20.0,-51.0,1.564
-8.0,-65.0,1.565
-5.0,-70.0,1.566
-5.0,-60.0,1.567
-2.0,-42.0,1.568
3.0,-28.0,1.569
6.0,-29.0,1.57
9.0,-39.0,1.571
13.0,-36.0,1.572
16.0,0.0,1.573
15.0,67.0,1.574
17.0,142.0,1.575
21.0,193.0,1.576
23.0,207.0,1.577
14.0,192.0,1.578
4.0,160.0,1.579
-1.0,118.0,1.58
0.0,76.0,1.581
2.0,45.0,1.582
8.0,18.0,1.583
13.0,-14.0,1.584
9.0,-48.0,1.585
0.0,-68.0,1.586
-5.0,-73.0,1.587
-2.0,-78.0,1.588
5.0,-91.0,1.589
9.0,-98.0,1.59
11.0,-90.0,1.591
11.0,-90.0,1.592
6.0,-120.0,1.593
1.0,-148.0,1.594
-1.0,-121.0,1.595
0.0,-23.0,1.596
-2.0,84.0,1.597
-13.0,139.0,1.598
-24.0,123.0,1.599
-29.0,72.0,1.6
-29.0,15.0,1.601
-27.0,-26.0,1.602
-22.0,-46.0,1.603
-13.0,-42.0,1.604
-4.0,-23.0,1.605
-2.0,2.0,1.606
1.0,42.0,1.607
11.0,94.0,1.608
21.0,137.0,1.609
22.0,143.0,1.61
23.0,112.0,1.611
26.0,68.0,1.612
31.0,23.0,1.613
29.0,-15.0,1.614
25.0,-39.0,1.615
24.0,-45.0,1.616
24.0,-41.0,1.617
18.0,-43.0,1.618
11.0,-43.0,1.619
4.0,-37.0,1.62
2.0,-35.0,1.621
1.0,-39.0,1.622
3.0,-43.0,1.623
4.0,-37.0,1.624
2.0,-28.0,1.625
1.0,-25.0,1.626
0.0,-27.0,1.627
-1.0,-24.0,1.628
3.0,-20.0,1.629
5.0,-18.0,1.63
3.0,-19.0,1.631
2.0,-16.0,1.632
3.0,-13.0,1.633
4.0,-15.0,1.634
4.0,-17.0,1.635
4.0,-15.0,1.636
4.0,-11.0,1.637
2.0,-10.0,1.638
-3.0,-9.0,1.639
-9.0,-7.0,1.64
-12.0,-8.0,1.641
-13.0,-10.0,1.642
-10.0,-7.0,1.643
-6.0,2.0,1.644
-5.0,12.0,1.645
-6.0,19.0,1.646
-4.0,21.0,1.647
1.0,21.0,1.648
5.0,19.0,1.649
1.0,17.0,1.65
2.0,14.0,1.651
8.0,12.0,1.652
13.0,10.0,1.653
12.0,5.0,1.654
9.0,1.0,1.655
12.0,-2.0,1.656
15.0,-2.0,1.657
13.0,-3.0,1.658
5.0,0.0,1.659
-4.0,3.0,1.66
-11.0,2.0,1.661
-12.0,3.0,1.662
-6.0,7.0,1.663
1.0,11.0,1.664
2.0,12.0,1.665
-5.0,12.0,1.666
-11.0,10.0,1.667
-12.0,8.0,1.668
-11.0,4.0,1.669
-13.0,2.0,1.67
-12.0,-1.0,1.671
-6.0,-7.0,1.672
0.0,-24.0,1.673
6.0,-51.0,1.674
13.0,-77.0,1.675
17.0,-78.0,1.676
18.0,-45.0,1.677
14.0,6.0,1.678
10.0,49.0,1.679
2.0,66.0,1.68
-4.0,62.0,1.681
-4.0,56.0,1.682
1.0,44.0,1.683
8.0,28.0,1.684
5.0,17.0,1.685
-3.0,15.0,1.686
-3.0,16.0,1.687
3.0,11.0,1.688
7.0,4.0,1.689
3.0,-2.0,1.69
0.0,-4.0,1.691
3.0,-3.0,1.692
8.0,-1.0,1.693
9.0,-1.0,1.694
12.0,-7.0,1.695
16.0,-14.0,1.696
18.0,-16.0,1.697
13.0,-16.0,1.698
7.0,-17.0,1.699
1.0,-19.0,1.7
-3.0,-19.0,1.701
-6.0,-14.0,1.702
-8.0,-9.0,1.703
-10.0,-6.0,1.704
-8.0,-6.0,1.705
-6.0,-11.0,1.706
-6.0,-20.0,1.707
-3.0,-21.0,1.708
3.0,-7.0,1.709
9.0,13.0,1.71
9.0,22.0,1.711
9.0,19.0,1.712
10.0,14.0,1.713
11.0,10.0,1.714
9.0,2.0,1.715
3.0,-5.0,1.716
-18.0,-10.0,1.717
-41.0,-17.0,1.718
-55.0,-28.0,1.719
-38.0,-32.0,1.72
-2.0,-26.0,1.721
23.0,-13.0,1.722
25.0,-2.0,1.723
21.0,4.0,1.724
26.0,8.0,1.725
40.0,9.0,1.726
49.0,5.0,1.727
47.0,4.0,1.728
43.0,13.0,1.729
44.0,24.0,1.73
43.0,24.0,1.731
22.0,22.0,1.732
-16.0,22.0,1.733
-39.0,22.0,1.734
-28.0,14.0,1.735
-1.0,6.0,1.736
11.0,7.0,1.737
0.0,12.0,1.738
-7.0,11.0,1.739
0.0,1.0,1.74
8.0,-10.0,1.741
-8.0,-12.0,1.742
-37.0,-8.0,1.743
-47.0,-2.0,1.744
-27.0,0.0,1.745
-3.0,-1.0,1.746
1.0,-3.0,1.747
-2.0,-3.0,1.748
4.0,-3.0,1.749
14.0,-9.0,1.75
9.0,-15.0,1.751
0.0,-17.0,1.752
7.0,-15.0,1.753
19.0,-12.0,1.754
13.0,-11.0,1.755
-7.0,-11.0,1.756
-16.0,-8.0,1.757
-9.0,-10.0,1.758
-3.0,-8.0,1.759
-11.0,-4.0,1.76
-21.0,-3.0,1.761
-23.0,-2.0,1.762
-20.0,0.0,1.763
-14.0,4.0,1.764
-1.0,7.0,1.765
9.0,9.0,1.766
9.0,8.0,1.767
2.0,8.0,1.768
5.0,9.0,1.769
16.0,9.0,1.77
17.0,6.0,1.771
8.0,3.0,1.772
5.0,0.0,1.773
10.0,-1.0,1.774
14.0,-6.0,1.775
14.0,-13.0,1.776
23.0,-18.0,1.777
29.0,-18.0,1.778
23.0,-11.0,1.779
19.0,-1.0,1.78
19.0,0.0,1.781
18.0,-3.0,1.782
16.0,-4.0,1.783
13.0,1.0,1.784
3.0,14.0,1.785
0.0,23.0,1.786
13.0,19.0,1.787
20.0,11.0,1.788
3.0,7.0,1.789
-10.0,8.0,1.79
-12.0,5.0,1.791
-13.0,-2.0,1.792
-11.0,-6.0,1.793
-9.0,-5.0,1.794
-11.0,-4.0,1.795
-12.0,-4.0,1.796
-8.0,-3.0,1.797
-4.0,-2.0,1.798
-12.0,-1.0,1.799
-17.0,-1.0,1.8
-11.0,-2.0,1.801
-2.0,-5.0,1.802
4.0,-9.0,1.803
11.0,-9.0,1.804
20.0,-3.0,1.805
30.0,4.0,1.806
34.0,3.0,1.807
32.0,1.0,1.808
28.0,5.0,1.809
28.0,8.0,1.81
25.0,2.0,1.811
9.0,-6.0,1.812
-11.0,-3.0,1.813
-18.0,1.0,1.814
-9.0,-2.0,1.815
-9.0,-7.0,1.816
-19.0,-6.0,1.817
-21.0,-1.0,1.818
-7.0,-1.0,1.819
6.0,-6.0,1.82
4.0,-8.0,1.821
-6.0,-4.0,1.822
-4.0,0.0,1.823
1.0,3.0,1.824
0.0,6.0,1.825
-7.0,8.0,1.826
-12.0,5.0,1.827
-8.0,5.0,1.828
-5.0,9.0,1.829
-5.0,11.0,1.83
-3.0,7.0,1.831
1.0,0.0,1.832
3.0,0.0,1.833
3.0,2.0,1.834
5.0,-3.0,1.835
7.0,-12.0,1.836
11.0,-17.0,1.837
9.0,-16.0,1.838
2.0,-12.0,1.839
-5.0,-10.0,1.84
-12.0,-9.0,1.841
-15.0,-3.0,1.842
-10.0,3.0,1.843
-1.0,4.0,1.844
2.0,4.0,1.845
3.0,7.0,1.846
7.0,12.0,1.847
11.0,10.0,1.848
12.0,4.0,1.849
7.0,1.0,1.85
-1.0,-1.0,1.851
-8.0,-3.0,1.852
-13.0,-5.0,1.853
-6.0,-5.0,1.854
10.0,-5.0,1.855
25.0,-8.0,1.856
33.0,-8.0,1.857
38.0,-6.0,1.858
47.0,-3.0,1.859
49.0,-3.0,1.86
30.0,-6.0,1.861
13.0,-2.0,1.862
3.0,5.0,1.863
-6.0,10.0,1.864
-12.0,9.0,1.865
-17.0,9.0,1.866
-17.0,12.0,1.867
-15.0,15.0,1.868
-13.0,13.0,1.869
-10.0,9.0,1.87
-7.0,6.0,1.871
-4.0,4.0,1.872
0.0,0.0,1.873
3.0,-4.0,1.874
0.0,-4.0,1.875
-2.0,-3.0,1.876
-2.0,-4.0,1.877
-2.0,-7.0,1.878
-7.0,-7.0,1.879
-9.0,-8.0,1.88
-9.0,-12.0,1.881
-9.0,-13.0,1.882
-5.0,-7.0,1.883
0.0,-1.0,1.884
-1.0,5.0,1.885
-8.0,10.0,1.886
-10.0,8.0,1.887
-1.0,5.0,1.888
7.0,2.0,1.889
6.0,-1.0,1.89
6.0,-2.0,1.891
12.0,-3.0,1.892
17.0,-3.0,1.893
18.0,-2.0,1.894
18.0,-2.0,1.895
16.0,-3.0,1.896
15.0,-5.0,1.897
8.0,-7.0,1.898
5.0,-6.0,1.899
0.0,-4.0,1.9
-4.0,-5.0,1.901
-4.0,-5.0,1.902
1.0,-2.0,1.903
5.0,4.0,1.904
-1.0,9.0,1.905
-6.0,10.0,1.906
-5.0,8.0,1.907
1.0,6.0,1.908
2.0,7.0,1.909
2.0,6.0,1.91
6.0,2.0,1.911
14.0,-2.0,1.912
13.0,-4.0,1.913
8.0,-5.0,1.914
6.0,-7.0,1.915
8.0,-8.0,1.916
9.0,-6.0,1.917
5.0,-5.0,1.918
2.0,-6.0,1.919
-3.0,-8.0,1.92
-9.0,-10.0,1.921
-13.0,-6.0,1.922
-8.0,-1.0,1.923
-1.0,2.0,1.924
-2.0,6.0,1.925
-6.0,10.0,1.926
-5.0,13.0,1.927
-1.0,10.0,1.928
1.0,5.0,1.929
3.0,3.0,1.93
4.0,3.0,1.931
7.0,2.0,1.932
8.0,-2.0,1.933
6.0,-7.0,1.934
9.0,-9.0,1.935
12.0,-10.0,1.936
14.0,-7.0,1.937
10.0,-5.0,1.938
5.0,-5.0,1.939
1.0,-5.0,1.94
0.0,-9.0,1.941
-1.0,-7.0,1.942
2.0,-1.0,1.943
5.0,5.0,1.944
7.0,8.0,1.945
9.0,9.0,1.946
11.0,8.0,1.947
13.0,5.0,1.948
11.0,3.0,1.949
9.0,0.0,1.95
7.0,-6.0,1.951
5.0,-14.0,1.952
4.0,-16.0,1.953
1.0,-10.0,1.954
-8.0,2.0,1.955
-16.0,9.0,1.956
-23.0,3.0,1.957
-30.0,-13.0,1.958
-32.0,-30.0,1.959
-28.0,-34.0,1.96
-22.0,-25.0,1.961
-17.0,-4.0,1.962
-12.0,13.0,1.963
-5.0,20.0,1.964
1.0,21.0,1.965
3.0,22.0,1.966
6.0,26.0,1.967
11.0,25.0,1.968
16.0,21.0,1.969
17.0,12.0,1.97
18.0,2.0,1.971
21.0,-4.0,1.972
22.0,-3.0,1.973
17.0,2.0,1.974
15.0,3.0,1.975
17.0,-11.0,1.976
17.0,-42.0,1.977
11.0,-76.0,1.978
1.0,-81.0,1.979
-3.0,-67.0,1.98
-3.0,5.0,1.981
-3.0,64.0,1.982
-3.0,81.0,1.983
0.0,90.0,1.984
0.0,70.0,1.985
-4.0,45.0,1.986
-9.0,5.0,1.987
-7.0,-19.0,1.988
-1.0,6.0,1.989
4.0,26.0,1.99
8.0,28.0,1.991
12.0,22.0,1.992
16.0,-7.0,1.993
13.0,-36.0,1.994
9.0,-60.0,1.995
6.0,-68.0,1.996
6.0,-29.0,1.997
3.0,14.0,1.998
2.0,51.0,1.999
-1.0,46.0,2.0
-5.0,28.0,2.001
-10.0,22.0,2.002
-7.0,17.0,2.003
0.0,4.0,2.004
3.0,-2.0,2.005
0.0,1.0,2.006
-1.0,1.0,2.007
4.0,-9.0,2.008
9.0,-13.0,2.009
6.0,-10.0,2.01
1.0,-13.0,2.011
4.0,-20.0,2.012
10.0,-21.0,2.013
14.0,-19.0,2.014
12.0,-20.0,2.015
7.0,-26.0,2.016
6.0,-24.0,2.017
5.0,-19.0,2.018
1.0,-19.0,2.019
-5.0,-20.0,2.02
-7.0,-21.0,2.021
-5.0,-14.0,2.022
-2.0,-10.0,2.023
-1.0,-8.0,2.024
-3.0,-1.0,2.025
-3.0,8.0,2.026
0.0,9.0,2.027
5.0,6.0,2.028
8.0,5.0,2.029
8.0,9.0,2.03
10.0,12.0,2.031
14.0,10.0,2.032
15.0,9.0,2.033
11.0,8.0,2.034
8.0,5.0,2.035
7.0,0.0,2.036
5.0,-1.0,2.037
1.0,-2.0,2.038
-3.0,-2.0,2.039
-7.0,-4.0,2.04
-12.0,-5.0,2.041
-13.0,-3.0,2.042
-9.0,0.0,2.043
-4.0,0.0,2.044
-8.0,1.0,2.045
-13.0,4.0,2.046
-10.0,4.0,2.047
-3.0,4.0,2.048
-1.0,5.0,2.049
-2.0,8.0,2.05
-1.0,5.0,2.051
6.0,-1.0,2.052
12.0,-5.0,2.053
14.0,-1.0,2.054
16.0,0.0,2.055
17.0,-3.0,2.056
18.0,-7.0,2.057
15.0,-9.0,2.058
10.0,-11.0,2.059
3.0,-11.0,2.06
-1.0,-11.0,2.061
-3.0,-3.0,2.062
0.0,4.0,2.063
6.0,7.0,2.064
5.0,11.0,2.065
0.0,16.0,2.066
-3.0,16.0,2.067
-2.0,10.0,2.068
0.0,7.0,2.069
0.0,9.0,2.07
3.0,8.0,2.071
9.0,-3.0,2.072
11.0,-15.0,2.073
9.0,-17.0,2.074
5.0,-12.0,2.075
3.0,-9.0,2.076
5.0,-10.0,2.077
3.0,-14.0,2.078
0.0,-11.0,2.079
-6.0,-8.0,2.08
-12.0,-8.0,2.081
-13.0,-2.0,2.082
-10.0,8.0,2.083
-4.0,21.0,2.084
-4.0,29.0,2.085
-7.0,28.0,2.086
-7.0,20.0,2.087
-2.0,15.0,2.088
3.0,13.0,2.089
7.0,15.0,2.09
6.0,15.0,2.091
6.0,13.0,2.092
8.0,7.0,2.093
8.0,-1.0,2.094
7.0,-9.0,2.095
7.0,-17.0,2.096
8.0,-19.0,2.097
7.0,-19.0,2.098
3.0,-14.0,2.099
-4.0,-11.0,2.1
-10.0,-13.0,2.101
-10.0,-12.0,2.102
-3.0,-10.0,2.103
4.0,-4.0,2.104
2.0,1.0,2.105
-11.0,0.0,2.106
-22.0,-3.0,2.107
-24.0,-5.0,2.108
-17.0,-3.0,2.109
-5.0,0.0,2.11
6.0,0.0,2.111
16.0,-3.0,2.112
25.0,-6.0,2.113
35.0,-9.0,2.114
39.0,-11.0,2.115
34.0,-8.0,2.116
23.0,-3.0,2.117
13.0,-1.0,2.118
11.0,-2.0,2.119
9.0,-2.0,2.12
1.0,-4.0,2.121
-6.0,-4.0,2.122
-4.0,-5.0,2.123
3.0,-3.0,2.124
3.0,3.0,2.125
-5.0,9.0,2.126
-8.0,8.0,2.127
-3.0,4.0,2.128
0.0,3.0,2.129
-5.0,5.0,2.13
-9.0,5.0,2.131
-5.0,3.0,2.132
3.0,3.0,2.133
5.0,6.0,2.134
3.0,8.0,2.135
10.0,5.0,2.136
20.0,4.0,2.137
18.0,3.0,2.138
4.0,3.0,2.139
-13.0,1.0,2.14
-15.0,-6.0,2.141
-7.0,-8.0,2.142
-1.0,-6.0,2.143
-2.0,0.0,2.144
-6.0,7.0,2.145
-5.0,10.0,2.146
0.0,9.0,2.147
0.0,6.0,2.148
0.0,5.0,2.149
3.0,5.0,2.15
8.0,2.0,2.151
11.0,-3.0,2.152
10.0,-8.0,2.153
12.0,-8.0,2.154
13.0,-8.0,2.155
13.0,-9.0,2.156
14.0,-9.0,2.157
17.0,-11.0,2.158
16.0,-10.0,2.159
5.0,-6.0,2.16
-11.0,-5.0,2.161
-20.0,0.0,2.162
-17.0,3.0,2.163
-13.0,6.0,2.164
-15.0,8.0,2.165
-18.0,7.0,2.166
-15.0,6.0,2.167
-7.0,5.0,2.168
1.0,5.0,2.169
5.0,2.0,2.17
6.0,-2.0,2.171
6.0,-4.0,2.172
11.0,-2.0,2.173
16.0,0.0,2.174
18.0,-3.0,2.175
13.0,-8.0,2.176
9.0,-8.0,2.177
10.0,-5.0,2.178
12.0,-3.0,2.179
6.0,-6.0,2.18
-3.0,-10.0,2.181
-6.0,-5.0,2.182
-1.0,2.0,2.183
3.0,6.0,2.184
0.0,5.0,2.185
-5.0,5.0,2.186
-6.0,5.0,2.187
-4.0,7.0,2.188
-2.0,8.0,2.189
-2.0,7.0,2.19
1.0,2.0,2.191
7.0,-4.0,2.192
15.0,-5.0,2.193
17.0,-4.0,2.194
18.0,-5.0,2.195
17.0,-7.0,2.196
16.0,-6.0,2.197
11.0,-1.0,2.198
5.0,0.0,2.199
-3.0,-3.0,2.2
-11.0,-7.0,2.201
-13.0,-4.0,2.202
-7.0,1.0,2.203
-1.0,3.0,2.204
0.0,6.0,2.205
-1.0,11.0,2.206
-2.0,13.0,2.207
1.0,9.0,2.208
4.0,1.0,2.209
5.0,-3.0,2.21
7.0,-3.0,2.211
8.0,-3.0,2.212
6.0,-3.0,2.213
5.0,-3.0,2.214
7.0,-8.0,2.215
9.0,-10.0,2.216
10.0,-8.0,2.217
5.0,-5.0,2.218
1.0,-5.0,2.219
-3.0,-7.0,2.22
-10.0,-7.0,2.221
-14.0,-2.0,2.222
-8.0,0.0,2.223
-1.0,0.0,2.224
0.0,5.0,2.225
-3.0,12.0,2.226
-3.0,13.0,2.227
0.0,9.0,2.228
-2.0,5.0,2.229
-4.0,6.0,2.23
-1.0,4.0,2.231
7.0,-1.0,2.232
15.0,-4.0,2.233
19.0,-2.0,2.234
22.0,-2.0,2.235
24.0,-5.0,2.236
21.0,-4.0,2.237
13.0,-2.0,2.238
1.0,0.0,2.239
-7.0,-4.0,2.24
-14.0,-11.0,2.241
-19.0,-10.0,2.242
-18.0,-4.0,2.243
-11.0,4.0,2.244
-4.0,8.0,2.245
-2.0,8.0,2.246
0.0,8.0,2.247
3.0,5.0,2.248
10.0,3.0,2.249
11.0,1.0,2.25
6.0,-3.0,2.251
6.0,-7.0,2.252
12.0,-8.0,2.253
13.0,-7.0,2.254
12.0,-5.0,2.255
10.0,-7.0,2.256
12.0,-9.0,2.257
10.0,-10.0,2.258
8.0,-7.0,2.259
8.0,-7.0,2.26
13.0,-9.0,2.261
16.0,-8.0,2.262
12.0,-4.0,2.263
2.0,3.0,2.264
-22.0,10.0,2.265
-38.0,13.0,2.266
-28.0,13.0,2.267
-18.0,12.0,2.268
-4.0,11.0,2.269
5.0,7.0,2.27
1.0,2.0,2.271
0.0,-2.0,2.272
8.0,-3.0,2.273
14.0,-3.0,2.274
8.0,-6.0,2.275
4.0,-4.0,2.276
6.0,-1.0,2.277
8.0,0.0,2.278
1.0,-1.0,2.279
-4.0,-6.0,2.28
-5.0,-9.0,2.281
-3.0,-8.0,2.282
-2.0,-7.0,2.283
0.0,-5.0,2.284
0.0,-1.0,2.285
-2.0,8.0,2.286
-1.0,11.0,2.287
6.0,6.0,2.288
12.0,0.0,2.289
7.0,-2.0,2.29
5.0,0.0,2.291
9.0,-2.0,2.292
16.0,-4.0,2.293
18.0,-5.0,2.294
19.0,-3.0,2.295
21.0,-3.0,2.296
21.0,-3.0,2.297
13.0,-5.0,2.298
2.0,-3.0,2.299
-7.0,-4.0,2.3
-14.0,-8.0,2.301
-18.0,-7.0,2.302
-12.0,1.0,2.303
3.0,8.0,2.304
13.0,12.0,2.305
7.0,10.0,2.306
-9.0,8.0,2.307
-18.0,6.0,2.308
-15.0,5.0,2.309
-7.0,7.0,2.31
-1.0,6.0,2.311
1.0,1.0,2.312
0.0,-4.0,2.313
-1.0,-5.0,2.314
0.0,-3.0,2.315
3.0,-6.0,2.316
7.0,-10.0,2.317
3.0,-12.0,2.318
2.0,-9.0,2.319
0.0,-7.0,2.32
-4.0,-7.0,2.321
-8.0,-2.0,2.322
-2.0,5.0,2.323
8.0,6.0,2.324
11.0,5.0,2.325
5.0,8.0,2.326
3.0,14.0,2.327
8.0,13.0,2.328
9.0,6.0,2.329
5.0,4.0,2.33
5.0,4.0,2.331
11.0,0.0,2.332
16.0,-8.0,2.333
16.0,-12.0,2.334
15.0,-11.0,2.335
11.0,-11.0,2.336
8.0,-12.0,2.337
1.0,-12.0,2.338
0.0,-8.0,2.339
-3.0,-5.0,2.34
-9.0,-6.0,2.341
-12.0,-4.0,2.342
-5.0,0.0,2.343
0.0,6.0,2.344
-1.0,11.0,2.345
-3.0,14.0,2.346
-2.0,12.0,2.347
0.0,8.0,2.348
1.0,3.0,2.349
3.0,2.0,2.35
4.0,1.0,2.351
6.0,-2.0,2.352
8.0,-4.0,2.353
11.0,-6.0,2.354
15.0,-9.0,2.355
17.0,-12.0,2.356
15.0,-10.0,2.357
11.0,-8.0,2.358
-3.0,-6.0,2.359
-12.0,-5.0,2.36
-13.0,-5.0,2.361
-9.0,-4.0,2.362
-5.0,0.0,2.363
-3.0,5.0,2.364
-3.0,9.0,2.365
-3.0,12.0,2.366
-2.0,10.0,2.367
-1.0,9.0,2.368
2.0,7.0,2.369
7.0,5.0,2.37
10.0,2.0,2.371
10.0,0.0,2.372
9.0,-4.0,2.373
10.0,-7.0,2.374
12.0,-8.0,2.375
11.0,-9.0,2.376
6.0,-8.0,2.377
0.0,-6.0,2.378
-3.0,-5.0,2.379
-7.0,-6.0,2.38
-10.0,-8.0,2.381
-11.0,-6.0,2.382
-5.0,-3.0,2.383
2.0,0.0,2.384
1.0,3.0,2.385
-6.0,9.0,2.386
-9.0,12.0,2.387
-1.0,9.0,2.388
8.0,4.0,2.389
9.0,1.0,2.39
6.0,2.0,2.391
11.0,0.0,2.392
17.0,0.0,2.393
19.0,-2.0,2.394
13.0,-7.0,2.395
6.0,-10.0,2.396
3.0,-7.0,2.397
-2.0,-5.0,2.398
-8.0,-3.0,2.399
-15.0,-5.0,2.4
-16.0,-8.0,2.401
-14.0,-5.0,2.402
-9.0,0.0,2.403
-5.0,3.0,2.404
-1.0,6.0,2.405
2.0,10.0,2.406
8.0,13.0,2.407
18.0,10.0,2.408
23.0,5.0,2.409
19.0,1.0,2.41
7.0,0.0,2.411
-1.0,-4.0,2.412
2.0,-5.0,2.413
7.0,-5.0,2.414
5.0,-5.0,2.415
-1.0,-7.0,2.416
-1.0,-9.0,2.417
5.0,-12.0,2.418
10.0,-13.0,2.419
4.0,-10.0,2.42
-2.0,-7.0,2.421
0.0,-2.0,2.422
5.0,2.0,2.423
7.0,7.0,2.424
0.0,13.0,2.425
-3.0,18.0,2.426
-3.0,15.0,2.427
-2.0,8.0,2.428
-4.0,3.0,2.429
-9.0,3.0,2.43
-9.0,3.0,2.431
-1.0,-2.0,2.432
13.0,-5.0,2.433
21.0,-3.0,2.434
17.0,-3.0,2.435
8.0,-6.0,2.436
6.0,-8.0,2.437
10.0,-8.0,2.438
8.0,-4.0,2.439
-4.0,-4.0,2.44
-15.0,-6.0,2.441
-14.0,-4.0,2.442
-4.0,2.0,2.443
1.0,8.0,2.444
-2.0,11.0,2.445
-4.0,12.0,2.446
-4.0,10.0,2.447
-1.0,7.0,2.448
-3.0,2.0,2.449
-6.0,-1.0,2.45
-3.0,-2.0,2.451
9.0,-3.0,2.452
26.0,-5.0,2.453
39.0,-6.0,2.454
45.0,-7.0,2.455
39.0,-9.0,2.456
23.0,-10.0,2.457
-3.0,-10.0,2.458
-24.0,-7.0,2.459
-27.0,-4.0,2.46
-17.0,-5.0,2.461
-2.0,-5.0,2.462
4.0,-4.0,2.463
6.0,-2.0,2.464
5.0,4.0,2.465
0.0,9.0,2.466
-5.0,12.0,2.467
-8.0,10.0,2.468
-12.0,9.0,2.469
-19.0,8.0,2.47
-25.0,5.0,2.471
-23.0,1.0,2.472
-11.0,-3.0,2.473
3.0,-5.0,2.474
14.0,-6.0,2.475
15.0,-9.0,2.476
13.0,-10.0,2.477
8.0,-9.0,2.478
3.0,-7.0,2.479
-1.0,-7.0,2.48
-5.0,-8.0,2.481
-4.0,-3.0,2.482
3.0,4.0,2.483
9.0,10.0,2.484
6.0,12.0,2.485
2.0,11.0,2.486
5.0,9.0,2.487
11.0,5.0,2.488
12.0,2.0,2.489
10.0,0.0,2.49
11.0,-7.0,2.491
15.0,-11.0,2.492
18.0,-10.0,2.493
17.0,-4.0,2.494
14.0,-3.0,2.495
9.0,-8.0,2.496
2.0,-10.0,2.497
-3.0,-8.0,2.498
-3.0,-5.0,2.499
-4.0,-3.0,2.5
-12.0,-4.0,2.501
-16.0,-3.0,2.502
-8.0,0.0,2.503
-2.0,3.0,2.504
-3.0,9.0,2.505
-3.0,16.0,2.506
0.0,17.0,2.507
2.0,10.0,2.508
6.0,2.0,2.509
9.0,-1.0,2.51
10.0,-2.0,2.511
11.0,-1.0,2.512
12.0,-2.0,2.513
13.0,-5.0,2.514
10.0,-9.0,2.515
7.0,-9.0,2.516
7.0,-4.0,2.517
7.0,-3.0,2.518
3.0,-4.0,2.519
-4.0,-5.0,2.52
-12.0,-5.0,2.521
-16.0,-4.0,2.522
-11.0,1.0,2.523
-3.0,5.0,2.524
0.0,9.0,2.525
0.0,12.0,2.526
-1.0,12.0,2.527
4.0,10.0,2.528
5.0,7.0,2.529
0.0,4.0,2.53
-1.0,1.0,2.531
5.0,-2.0,2.532
15.0,-4.0,2.533
19.0,-6.0,2.534
18.0,-6.0,2.535
15.0,-7.0,2.536
10.0,-9.0,2.537
2.0,-11.0,2.538
-3.0,-9.0,2.539
-5.0,-6.0,2.54
-9.0,-6.0,2.541
-13.0,-3.0,2.542
-12.0,3.0,2.543
-5.0,6.0,2.544
-2.0,11.0,2.545
-6.0,13.0,2.546
-13.0,12.0,2.547
-13.0,7.0,2.548
-8.0,2.0,2.549
-5.0,1.0,2.55
0.0,0.0,2.551
8.0,-1.0,2.552
18.0,-3.0,2.553
23.0,-6.0,2.554
21.0,-9.0,2.555
18.0,-12.0,2.556
14.0,-11.0,2.557
4.0,-10.0,2.558
-6.0,-6.0,2.559
-12.0,-5.0,2.56
-8.0,-12.0,2.561
1.0,-17.0,2.562
11.0,-16.0,2.563
20.0,-8.0,2.564
21.0,-1.0,2.565
14.0,0.0,2.566
3.0,-1.0,2.567
-3.0,0.0,2.568
-1.0,1.0,2.569
0.0,1.0,2.57
0.0,1.0,2.571
2.0,5.0,2.572
7.0,11.0,2.573
10.0,14.0,2.574
7.0,15.0,2.575
5.0,18.0,2.576
4.0,23.0,2.577
2.0,24.0,2.578
0.0,19.0,2.579
-2.0,13.0,2.58
-6.0,6.0,2.581
-8.0,6.0,2.582
-6.0,7.0,2.583
-5.0,7.0,2.584
-5.0,4.0,2.585
-6.0,4.0,2.586
-5.0,4.0,2.587
-3.0,3.0,2.588
2.0,-1.0,2.589
6.0,-6.0,2.59
8.0,-7.0,2.591
10.0,-7.0,2.592
8.0,-7.0,2.593
7.0,-7.0,2.594
7.0,-6.0,2.595
7.0,-4.0,2.596
4.0,-3.0,2.597
0.0,-7.0,2.598
-6.0,-8.0,2.599
-10.0,-7.0,2.6
-12.0,-6.0,2.601
-13.0,-4.0,2.602
-10.0,-4.0,2.603
-1.0,0.0,2.604
4.0,4.0,2.605
3.0,4.0,2.606
2.0,0.0,2.607
7.0,-4.0,2.608
12.0,-3.0,2.609
14.0,-2.0,2.61
12.0,-6.0,2.611
12.0,-14.0,2.612
8.0,-22.0,2.613
4.0,-28.0,2.614
6.0,-34.0,2.615
11.0,-38.0,2.616
11.0,-39.0,2.617
2.0,-37.0,2.618
-1.0,-34.0,2.619
-1.0,-29.0,2.62
-5.0,-23.0,2.621
-12.0,-13.0,2.622
-11.0,-4.0,2.623
-5.0,4.0,2.624
-4.0,13.0,2.625
-8.0,26.0,2.626
-6.0,36.0,2.627
4.0,46.0,2.628
12.0,52.0,2.629
12.0,56.0,2.63
10.0,56.0,2.631
14.0,48.0,2.632
18.0,36.0,2.633
17.0,25.0,2.634
12.0,19.0,2.635
6.0,15.0,2.636
1.0,7.0,2.637
-4.0,-3.0,2.638
-4.0,-9.0,2.639
-6.0,-9.0,2.64
-10.0,-12.0,2.641
-13.0,-16.0,2.642
-6.0,-16.0,2.643
11.0,-12.0,2.644
17.0,-9.0,2.645
13.0,-17.0,2.646
6.0,-37.0,2.647
0.0,-62.0,2.648
-12.0,-78.0,2.649
-29.0,-79.0,2.65
-36.0,-65.0,2.651
-26.0,-38.0,2.652
-13.0,-2.0,2.653
-6.0,28.0,2.654
-1.0,41.0,2.655
7.0,42.0,2.656
10.0,38.0,2.657
7.0,32.0,2.658
5.0,26.0,2.659
3.0,21.0,2.66
0.0,18.0,2.661
-1.0,22.0,2.662
4.0,28.0,2.663
8.0,32.0,2.664
11.0,35.0,2.665
13.0,33.0,2.666
11.0,26.0,2.667
9.0,18.0,2.668
11.0,12.0,2.669
14.0,5.0,2.67
15.0,-5.0,2.671
17.0,-12.0,2.672
18.0,-14.0,2.673
18.0,-14.0,2.674
16.0,-19.0,2.675
14.0,-22.0,2.676
11.0,-17.0,2.677
7.0,-11.0,2.678
0.0,-10.0,2.679
-5.0,-13.0,2.68
-7.0,-14.0,2.681
-7.0,-10.0,2.682
-3.0,-6.0,2.683
1.0,-2.0,2.684
2.0,2.0,2.685
-2.0,5.0,2.686
-2.0,3.0,2.687
0.0,-1.0,2.688
5.0,-4.0,2.689
6.0,-5.0,2.69
9.0,-7.0,2.691
12.0,-10.0,2.692
12.0,-13.0,2.693
11.0,-13.0,2.694
12.0,-11.0,2.695
9.0,-11.0,2.696
5.0,-11.0,2.697
0.0,-14.0,2.698
-3.0,-13.0,2.699
-7.0,-6.0,2.7
-13.0,-5.0,2.701
-13.0,-5.0,2.702
-7.0,-4.0,2.703
0.0,2.0,2.704
-2.0,9.0,2.705
-7.0,13.0,2.706
-5.0,12.0,2.707
0.0,13.0,2.708
2.0,11.0,2.709
2.0,7.0,2.71
3.0,1.0,2.711
8.0,0.0,2.712
10.0,2.0,2.713
5.0,-1.0,2.714
3.0,-6.0,2.715
4.0,-7.0,2.716
7.0,-4.0,2.717
7.0,-4.0,2.718
4.0,-6.0,2.719
-1.0,-5.0,2.72
-6.0,-7.0,2.721
-9.0,-5.0,2.722
-4.0,0.0,2.723
0.0,5.0,2.724
1.0,10.0,2.725
-2.0,10.0,2.726
0.0,9.0,2.727
7.0,9.0,2.728
13.0,8.0,2.729
10.0,6.0,2.73
6.0,3.0,2.731
7.0,3.0,2.732
10.0,2.0,2.733
8.0,-2.0,2.734
3.0,-10.0,2.735
2.0,-18.0,2.736
5.0,-20.0,2.737
1.0,-16.0,2.738
-4.0,-12.0,2.739
-9.0,-8.0,2.74
-9.0,-7.0,2.741
-6.0,-5.0,2.742
0.0,0.0,2.743
6.0,5.0,2.744
4.0,10.0,2.745
3.0,13.0,2.746
3.0,12.0,2.747
5.0,8.0,2.748
9.0,3.0,2.749
12.0,0.0,2.75
11.0,6.0,2.751
10.0,14.0,2.752
12.0,21.0,2.753
15.0,21.0,2.754
16.0,17.0,2.755
18.0,10.0,2.756
20.0,4.0,2.757
22.0,1.0,2.758
15.0,-1.0,2.759
2.0,-4.0,2.76
-12.0,-8.0,2.761
-23.0,-10.0,2.762
-25.0,-20.0,2.763
-22.0,-45.0,2.764
-16.0,-78.0,2.765
-10.0,-96.0,2.766
-4.0,-79.0,2.767
0.0,-30.0,2.768
5.0,23.0,2.769
6.0,60.0,2.77
5.0,72.0,2.771
4.0,68.0,2.772
-1.0,55.0,2.773
-12.0,24.0,2.774
-22.0,-40.0,2.775
-26.0,-141.0,2.776
-26.0,-233.0,2.777
-27.0,-266.0,2.778
-28.0,-191.0,2.779
-27.0,-35.0,2.78
-23.0,112.0,2.781
-17.0,199.0,2.782
-5.0,231.0,2.783
5.0,238.0,2.784
10.0,226.0,2.785
11.0,190.0,2.786
17.0,149.0,2.787
24.0,121.0,2.788
29.0,103.0,2.789
27.0,79.0,2.79
26.0,49.0,2.791
28.0,26.0,2.792
27.0,7.0,2.793
23.0,-13.0,2.794
17.0,-37.0,2.795
15.0,-59.0,2.796
13.0,-78.0,2.797
8.0,-98.0,2.798
4.0,-118.0,2.799
0.0,-133.0,2.8
-1.0,-139.0,2.801
-4.0,-121.0,2.802
-1.0,-79.0,2.803
5.0,-28.0,2.804
9.0,14.0,2.805
6.0,38.0,2.806
4.0,49.0,2.807
9.0,46.0,2.808
15.0,31.0,2.809
14.0,11.0,2.81
10.0,-5.0,2.811
7.0,-17.0,2.812
8.0,-31.0,2.813
7.0,-42.0,2.814
4.0,-45.0,2.815
3.0,-43.0,2.816
4.0,-42.0,2.817
1.0,-42.0,2.818
-4.0,-36.0,2.819
-9.0,-26.0,2.82
-13.0,-23.0,2.821
-15.0,-21.0,2.822
-12.0,-16.0,2.823
-7.0,-7.0,2.824
-3.0,-1.0,2.825
1.0,0.0,2.826
12.0,-1.0,2.827
25.0,0.0,2.828
27.0,0.0,2.829
18.0,-3.0,2.83
8.0,-8.0,2.831
7.0,-10.0,2.832
10.0,-7.0,2.833
10.0,2.0,2.834
7.0,12.0,2.835
6.0,18.0,2.836
6.0,21.0,2.837
2.0,19.0,2.838
-1.0,17.0,2.839
-4.0,15.0,2.84
-7.0,9.0,2.841
-11.0,6.0,2.842
-8.0,6.0,2.843
-2.0,10.0,2.844
-2.0,15.0,2.845
-7.0,18.0,2.846
-8.0,16.0,2.847
-2.0,11.0,2.848
2.0,7.0,2.849
-1.0,2.0,2.85
-6.0,-2.0,2.851
-4.0,-6.0,2.852
0.0,-8.0,2.853
0.0,-6.0,2.854
-2.0,-6.0,2.855
-2.0,-8.0,2.856
0.0,-9.0,2.857
5.0,-14.0,2.858
7.0,-23.0,2.859
4.0,-31.0,2.86
-2.0,-35.0,2.861
-6.0,-27.0,2.862
-3.0,-13.0,2.863
4.0,2.0,2.864
9.0,21.0,2.865
6.0,42.0,2.866
4.0,54.0,2.867
7.0,52.0,2.868
11.0,42.0,2.869
9.0,34.0,2.87
3.0,29.0,2.871
-4.0,23.0,2.872
-14.0,14.0,2.873
-23.0,1.0,2.874
-29.0,-27.0,2.875
-30.0,-78.0,2.876
-28.0,-132.0,2.877
-24.0,-169.0,2.878
-19.0,-158.0,2.879
-14.0,-98.0,2.88
-12.0,-15.0,2.881
-12.0,65.0,2.882
-6.0,125.0,2.883
5.0,163.0,2.884
11.0,174.0,2.885
10.0,162.0,2.886
8.0,131.0,2.887
10.0,95.0,2.888
13.0,60.0,2.889
13.0,29.0,2.89
17.0,7.0,2.891
26.0,-5.0,2.892
35.0,-12.0,2.893
39.0,-22.0,2.894
39.0,-36.0,2.895
37.0,-46.0,2.896
31.0,-44.0,2.897
18.0,-40.0,2.898
8.0,-35.0,2.899
3.0,-30.0,2.9
0.0,-28.0,2.901
-3.0,-25.0,2.902
-3.0,-23.0,2.903
4.0,-18.0,2.904
9.0,-10.0,2.905
6.0,-7.0,2.906
1.0,-11.0,2.907
1.0,-16.0,2.908
3.0,-16.0,2.909
4.0,-14.0,2.91
5.0,-16.0,2.911
10.0,-19.0,2.912
9.0,-21.0,2.913
3.0,-19.0,2.914
-4.0,-20.0,2.915
-8.0,-19.0,2.916
-17.0,-16.0,2.917
-31.0,-16.0,2.918
-40.0,-22.0,2.919
-28.0,-43.0,2.92
0.0,-76.0,2.921
22.0,-102.0,2.922
23.0,-91.0,2.923
8.0,-36.0,2.924
-9.0,37.0,2.925
-14.0,89.0,2.926
-1.0,103.0,2.927
13.0,98.0,2.928
10.0,90.0,2.929
-1.0,77.0,2.93
0.0,54.0,2.931
12.0,34.0,2.932
17.0,25.0,2.933
11.0,22.0,2.934
10.0,13.0,2.935
16.0,4.0,2.936
16.0,-2.0,2.937
6.0,-9.0,2.938
-1.0,-18.0,2.939
-3.0,-23.0,2.94
-6.0,-23.0,2.941
-12.0,-21.0,2.942
-10.0,-23.0,2.943
0.0,-26.0,2.944
4.0,-20.0,2.945
-2.0,-12.0,2.946
-4.0,-4.0,2.947
-1.0,-3.0,2.948
4.0,-3.0,2.949
2.0,-2.0,2.95
2.0,-3.0,2.951
7.0,-5.0,2.952
13.0,-6.0,2.953
13.0,-6.0,2.954
10.0,-6.0,2.955
9.0,-8.0,2.956
10.0,-10.0,2.957
10.0,-9.0,2.958
7.0,-8.0,2.959
1.0,-2.0,2.96
-6.0,0.0,2.961
-10.0,3.0,2.962
-5.0,4.0,2.963
2.0,4.0,2.964
4.0,9.0,2.965
2.0,14.0,2.966
7.0,13.0,2.967
16.0,9.0,2.968
16.0,5.0,2.969
11.0,4.0,2.97
11.0,3.0,2.971
13.0,0.0,2.972
9.0,-1.0,2.973
-1.0,-4.0,2.974
-5.0,-14.0,2.975
-3.0,-26.0,2.976
-3.0,-30.0,2.977
-8.0,-26.0,2.978
-10.0,-15.0,2.979
-8.0,-9.0,2.98
-6.0,-10.0,2.981
-6.0,-9.0,2.982
-4.0,-1.0,2.983
3.0,14.0,2.984
6.0,25.0,2.985
-2.0,21.0,2.986
-15.0,14.0,2.987
-22.0,12.0,2.988
-20.0,5.0,2.989
-18.0,-25.0,2.99
-12.0,-81.0,2.991
0.0,-129.0,2.992
15.0,-130.0,2.993
18.0,-80.0,2.994
10.0,-13.0,2.995
1.0,37.0,2.996
-1.0,67.0,2.997
-1.0,88.0,2.998
-5.0,106.0,2.999
-15.0,111.0,3.0
-23.0,94.0,3.001
-25.0,66.0,3.002
-15.0,33.0,3.003
-2.0,2.0,3.004
3.0,-19.0,3.005
-1.0,-22.0,3.006
-7.0,1.0,3.007
-8.0,43.0,3.008
-9.0,87.0,3.009
-8.0,108.0,3.01
0.0,84.0,3.011
12.0,14.0,3.012
17.0,-72.0,3.013
16.0,-117.0,3.014
18.0,-81.0,3.015
25.0,17.0,3.016
28.0,107.0,3.017
21.0,142.0,3.018
16.0,124.0,3.019
15.0,90.0,3.02
17.0,56.0,3.021
16.0,19.0,3.022
15.0,-15.0,3.023
17.0,-29.0,3.024
17.0,-25.0,3.025
14.0,-26.0,3.026
15.0,-45.0,3.027
20.0,-67.0,3.028
23.0,-80.0,3.029
20.0,-81.0,3.03
15.0,-78.0,3.031
13.0,-69.0,3.032
10.0,-63.0,3.033
4.0,-64.0,3.034
4.0,-69.0,3.035
11.0,-70.0,3.036
17.0,-65.0,3.037
12.0,-55.0,3.038
3.0,-36.0,3.039
-4.0,-15.0,3.04
-10.0,-7.0,3.041
-12.0,-8.0,3.042
-12.0,-7.0,3.043
-8.0,-2.0,3.044
-3.0,5.0,3.045
-1.0,8.0,3.046
0.0,10.0,3.047
2.0,11.0,3.048
2.0,7.0,3.049
0.0,0.0,3.05
-3.0,-4.0,3.051
0.0,-9.0,3.052
6.0,-23.0,3.053
7.0,-41.0,3.054
7.0,-50.0,3.055
7.0,-36.0,3.056
7.0,-6.0,3.057
2.0,18.0,3.058
-4.0,23.0,3.059
-12.0,25.0,3.06
-19.0,15.0,3.061
-19.0,12.0,3.062
-12.0,28.0,3.063
-9.0,40.0,3.064
-17.0,39.0,3.065
-25.0,28.0,3.066
-21.0,-12.0,3.067
-4.0,-45.0,3.068
10.0,-55.0,3.069
17.0,-48.0,3.07
22.0,12.0,3.071
26.0,64.0,3.072
25.0,94.0,3.073
20.0,118.0,3.074
16.0,126.0,3.075
8.0,121.0,3.076
-7.0,78.0,3.077
-28.0,30.0,3.078
-41.0,-38.0,3.079
-46.0,-114.0,3.08
-48.0,-181.0,3.081
-46.0,-211.0,3.082
-36.0,-222.0,3.083
-20.0,-233.0,3.084
-13.0,-208.0,3.085
-12.0,-82.0,3.086
-8.0,116.0,3.087
5.0,267.0,3.088
19.0,309.0,3.089
22.0,297.0,3.09
26.0,298.0,3.091
33.0,285.0,3.092
41.0,219.0,3.093
42.0,129.0,3.094
40.0,68.0,3.095
35.0,28.0,3.096
31.0,-18.0,3.097
25.0,-67.0,3.098
23.0,-89.0,3.099
20.0,-89.0,3.1
15.0,-93.0,3.101
6.0,-93.0,3.102
6.0,-80.0,3.103
13.0,-64.0,3.104
16.0,-61.0,3.105
10.0,-64.0,3.106
4.0,-62.0,3.107
7.0,-59.0,3.108
9.0,-62.0,3.109
6.0,-64.0,3.11
2.0,-61.0,3.111
5.0,-56.0,3.112
10.0,-54.0,3.113
10.0,-48.0,3.114
8.0,-41.0,3.115
8.0,-39.0,3.116
6.0,-39.0,3.117
-1.0,-34.0,3.118
-7.0,-20.0,3.119
-11.0,-10.0,3.12
-16.0,-8.0,3.121
-17.0,-7.0,3.122
-11.0,0.0,3.123
-1.0,8.0,3.124
0.0,17.0,3.125
-7.0,23.0,3.126
-11.0,24.0,3.127
-2.0,21.0,3.128
10.0,17.0,3.129
17.0,13.0,3.13
21.0,9.0,3.131
24.0,3.0,3.132
20.0,0.0,3.133
12.0,-5.0,3.134
2.0,-13.0,3.135
-3.0,-16.0,3.136
-9.0,-7.0,3.137
-18.0,9.0,3.138
-24.0,19.0,3.139
-27.0,16.0,3.14
-25.0,6.0,3.141
-20.0,5.0,3.142
-9.0,11.0,3.143
-1.0,17.0,3.144
0.0,24.0,3.145
-2.0,31.0,3.146
-2.0,32.0,3.147
1.0,24.0,3.148
1.0,15.0,3.149
-4.0,12.0,3.15
-11.0,11.0,3.151
-15.0,5.0,3.152
-12.0,-2.0,3.153
-1.0,-3.0,3.154
14.0,-1.0,3.155
20.0,0.0,3.156
14.0,-2.0,3.157
-3.0,-8.0,3.158
-15.0,-14.0,3.159
-12.0,-23.0,3.16
-2.0,-39.0,3.161
7.0,-53.0,3.162
15.0,-59.0,3.163
23.0,-54.0,3.164
26.0,-33.0,3.165
15.0,-1.0,3.166
-7.0,31.0,3.167
-23.0,55.0,3.168
-16.0,71.0,3.169
4.0,77.0,3.17
20.0,71.0,3.171
23.0,62.0,3.172
24.0,55.0,3.173
28.0,50.0,3.174
34.0,43.0,3.175
35.0,32.0,3.176
34.0,22.0,3.177
31.0,5.0,3.178
26.0,-12.0,3.179
16.0,-23.0,3.18
5.0,-29.0,3.181
4.0,-42.0,3.182
13.0,-60.0,3.183
15.0,-70.0,3.184
9.0,-62.0,3.185
0.0,-44.0,3.186
-4.0,-32.0,3.187
-7.0,-23.0,3.188
-15.0,-12.0,3.189
-24.0,-7.0,3.19
-28.0,-19.0,3.191
-28.0,-48.0,3.192
-33.0,-80.0,3.193
-40.0,-100.0,3.194
-39.0,-93.0,3.195
-31.0,-51.0,3.196
-24.0,9.0,3.197
-25.0,60.0,3.198
-26.0,83.0,3.199
-24.0,90.0,3.2
-19.0,90.0,3.201
-13.0,81.0,3.202
-4.0,58.0,3.203
6.0,38.0,3.204
12.0,37.0,3.205
11.0,39.0,3.206
8.0,30.0,3.207
9.0,19.0,3.208
9.0,26.0,3.209
9.0,41.0,3.21
14.0,42.0,3.211
22.0,28.0,3.212
29.0,16.0,3.213
34.0,8.0,3.214
41.0,-6.0,3.215
48.0,-22.0,3.216
51.0,-21.0,3.217
42.0,-8.0,3.218
34.0,4.0,3.219
25.0,5.0,3.22
15.0,-1.0,3.221
7.0,-5.0,3.222
9.0,-12.0,3.223
11.0,-24.0,3.224
8.0,-31.0,3.225
4.0,-28.0,3.226
-2.0,-24.0,3.227
-6.0,-25.0,3.228
0.0,-29.0,3.229
2.0,-32.0,3.23
-9.0,-35.0,3.231
-17.0,-35.0,3.232
-12.0,-32.0,3.233
-4.0,-30.0,3.234
10.0,-30.0,3.235
22.0,-32.0,3.236
23.0,-29.0,3.237
24.0,-24.0,3.238
25.0,-18.0,3.239
33.0,-12.0,3.24
40.0,-5.0,3.241
44.0,4.0,3.242
41.0,16.0,3.243
40.0,26.0,3.244
43.0,26.0,3.245
52.0,21.0,3.246
50.0,3.0,3.247
20.0,-12.0,3.248
-33.0,-18.0,3.249
-70.0,-16.0,3.25
-62.0,11.0,3.251
-34.0,17.0,3.252
-38.0,-43.0,3.253
-78.0,-110.0,3.254
-99.0,-200.0,3.255
-71.0,-260.0,3.256
-36.0,-224.0,3.257
-43.0,-174.0,3.258
-77.0,-96.0,3.259
-94.0,-48.0,3.26
-77.0,-20.0,3.261
-56.0,34.0,3.262
-55.0,119.0,3.263
-65.0,184.0,3.264
-74.0,150.0,3.265
-72.0,-17.0,3.266
-48.0,-224.0,3.267
-5.0,-281.0,3.268
38.0,-81.0,3.269
63.0,237.0,3.27
73.0,423.0,3.271
82.0,414.0,3.272
88.0,373.0,3.273
80.0,411.0,3.274
60.0,443.0,3.275
43.0,388.0,3.276
35.0,326.0,3.277
33.0,323.0,3.278
30.0,301.0,3.279
16.0,167.0,3.28
-14.0,-12.0,3.281
-47.0,-104.0,3.282
-55.0,-126.0,3.283
-30.0,-167.0,3.284
1.0,-225.0,3.285
17.0,-237.0,3.286
23.0,-206.0,3.287
35.0,-186.0,3.288
44.0,-175.0,3.289
40.0,-137.0,3.29
38.0,-83.0,3.291
59.0,-53.0,3.292
87.0,-51.0,3.293
102.0,-50.0,3.294
108.0,-41.0,3.295
121.0,-28.0,3.296
124.0,-14.0,3.297
89.0,-23.0,3.298
40.0,-69.0,3.299
1.0,-132.0,3.3
-4.0,-175.0,3.301
-12.0,-200.0,3.302
-27.0,-244.0,3.303
-34.0,-283.0,3.304
-16.0,-261.0,3.305
2.0,-180.0,3.306
18.0,-106.0,3.307
30.0,-64.0,3.308
30.0,-22.0,3.309
31.0,28.0,3.31
32.0,50.0,3.311
34.0,26.0,3.312
40.0,-6.0,3.313
32.0,-11.0,3.314
-21.0,14.0,3.315
-72.0,60.0,3.316
-114.0,104.0,3.317
-149.0,112.0,3.318
-165.0,51.0,3.319
-193.0,-68.0,3.32
-227.0,-189.0,3.321
-234.0,-264.0,3.322
-185.0,-293.0,3.323
-100.0,-275.0,3.324
-26.0,-186.0,3.325
1.0,-12.0,3.326
-3.0,205.0,3.327
-12.0,401.0,3.328
-15.0,553.0,3.329
-13.0,652.0,3.33
2.0,665.0,3.331
41.0,578.0,3.332
90.0,462.0,3.333
121.0,416.0,3.334
127.0,436.0,3.335
123.0,415.0,3.336
120.0,304.0,3.337
108.0,134.0,3.338
79.0,1.0,3.339
43.0,-57.0,3.34
29.0,-71.0,3.341
41.0,-89.0,3.342
56.0,-147.0,3.343
60.0,-239.0,3.344
57.0,-326.0,3.345
50.0,-392.0,3.346
20.0,-449.0,3.347
-44.0,-482.0,3.348
-107.0,-466.0,3.349
-124.0,-429.0,3.35
-95.0,-439.0,3.351
-68.0,-504.0,3.352
-73.0,-578.0,3.353
-88.0,-641.0,3.354
-79.0,-681.0,3.355
-40.0,-615.0,3.356
6.0,-389.0,3.357
44.0,-33.0,3.358
61.0,299.0,3.359
55.0,544.0,3.36
43.0,716.0,3.361
48.0,806.0,3.362
71.0,804.0,3.363
90.0,770.0,3.364
91.0,757.0,3.365
82.0,707.0,3.366
76.0,554.0,3.367
73.0,364.0,3.368
65.0,233.0,3.369
48.0,142.0,3.37
26.0,35.0,3.371
5.0,-71.0,3.372
-3.0,-138.0,3.373
3.0,-200.0,3.374
24.0,-302.0,3.375
44.0,-419.0,3.376
56.0,-495.0,3.377
44.0,-514.0,3.378
6.0,-459.0,3.379
-31.0,-343.0,3.38
-69.0,-229.0,3.381
-90.0,-165.0,3.382
-56.0,-118.0,3.383
-31.0,-45.0,3.384
-35.0,-23.0,3.385
-34.0,-165.0,3.386
-13.0,-415.0,3.387
8.0,-569.0,3.388
30.0,-492.0,3.389
45.0,-233.0,3.39
34.0,68.0,3.391
17.0,305.0,3.392
-19.0,410.0,3.393
-55.0,368.0,3.394
-94.0,219.0,3.395
-120.0,27.0,3.396
-103.0,-148.0,3.397
-84.0,-285.0,3.398
-73.0,-295.0,3.399
-78.0,-125.0,3.4
-87.0,151.0,3.401
-76.0,379.0,3.402
-35.0,478.0,3.403
17.0,509.0,3.404
48.0,556.0,3.405
49.0,605.0,3.406
50.0,594.0,3.407
64.0,539.0,3.408
77.0,486.0,3.409
67.0,421.0,3.41
51.0,296.0,3.411
56.0,126.0,3.412
82.0,-15.0,3.413
102.0,-100.0,3.414
102.0,-158.0,3.415
98.0,-215.0,3.416
98.0,-256.0,3.417
81.0,-276.0,3.418
35.0,-281.0,3.419
-27.0,-310.0,3.42
-79.0,-422.0,3.421
-114.0,-649.0,3.422
-129.0,-934.0,3.423
-121.0,-1107.0,3.424
-98.0,-1017.0,3.425
-78.0,-677.0,3.426
-69.0,-259.0,3.427
-56.0,51.0,3.428
-30.0,219.0,3.429
-6.0,343.0,3.43
11.0,500.0,3.431
31.0,637.0,3.432
62.0,657.0,3.433
87.0,568.0,3.434
99.0,470.0,3.435
102.0,402.0,3.436
98.0,323.0,3.437
73.0,195.0,3.438
37.0,93.0,3.439
11.0,76.0,3.44
2.0,109.0,3.441
4.0,117.0,3.442
19.0,48.0,3.443
46.0,-124.0,3.444
68.0,-400.0,3.445
51.0,-693.0,3.446
-7.0,-854.0,3.447
-75.0,-767.0,3.448
-131.0,-442.0,3.449
-174.0,-16.0,3.45
-192.0,340.0,3.451
-161.0,526.0,3.452
-93.0,535.0,3.453
-34.0,374.0,3.454
-12.0,76.0,3.455
-8.0,-199.0,3.456
6.0,-234.0,3.457
28.0,40.0,3.458
50.0,394.0,3.459
71.0,546.0,3.46
85.0,492.0,3.461
95.0,448.0,3.462
89.0,481.0,3.463
76.0,460.0,3.464
44.0,314.0,3.465
15.0,120.0,3.466
-6.0,-92.0,3.467
-23.0,-374.0,3.468
-21.0,-659.0,3.469
-13.0,-741.0,3.47
15.0,-548.0,3.471
41.0,-272.0,3.472
62.0,-136.0,3.473
78.0,-150.0,3.474
73.0,-185.0,3.475
65.0,-164.0,3.476
51.0,-100.0,3.477
21.0,-12.0,3.478
-46.0,86.0,3.479
-50.0,169.0,3.48
2.0,216.0,3.481
36.0,242.0,3.482
35.0,251.0,3.483
42.0,229.0,3.484
65.0,169.0,3.485
67.0,97.0,3.486
40.0,41.0,3.487
21.0,-10.0,3.488
29.0,-73.0,3.489
32.0,-140.0,3.49
3.0,-209.0,3.491
-39.0,-283.0,3.492
-61.0,-356.0,3.493
-55.0,-419.0,3.494
-45.0,-482.0,3.495
-68.0,-561.0,3.496
-127.0,-616.0,3.497
-198.0,-587.0,3.498
-230.0,-480.0,3.499
-204.0,-398.0,3.5
-144.0,-379.0,3.501
-92.0,-297.0,3.502
-58.0,-34.0,3.503
-24.0,339.0,3.504
20.0,658.0,3.505
58.0,876.0,3.506
78.0,1040.0,3.507
88.0,1133.0,3.508
101.0,1081.0,3.509
115.0,919.0,3.51
115.0,766.0,3.511
106.0,653.0,3.512
100.0,498.0,3.513
112.0,273.0,3.514
133.0,50.0,3.515
150.0,-120.0,3.516
148.0,-249.0,3.517
114.0,-355.0,3.518
49.0,-390.0,3.519
-25.0,-361.0,3.52
-75.0,-331.0,3.521
-95.0,-316.0,3.522
-121.0,-288.0,3.523
-176.0,-268.0,3.524
-235.0,-323.0,3.525
-243.0,-457.0,3.526
-182.0,-618.0,3.527
-102.0,-800.0,3.528
-39.0,-1013.0,3.529
10.0,-1113.0,3.53
63.0,-866.0,3.531
107.0,-259.0,3.532
120.0,386.0,3.533
117.0,743.0,3.534
120.0,812.0,3.535
130.0,803.0,3.536
134.0,798.0,3.537
128.0,722.0,3.538
125.0,584.0,3.539
111.0,488.0,3.54
65.0,452.0,3.541
18.0,386.0,3.542
-30.0,257.0,3.543
-77.0,135.0,3.544
-117.0,43.0,3.545
-155.0,-78.0,3.546
-184.0,-251.0,3.547
-194.0,-477.0,3.548
-143.0,-837.0,3.549
-91.0,-1354.0,3.55
-40.0,-1766.0,3.551
-4.0,-1663.0,3.552
-17.0,-968.0,3.553
-18.0,-66.0,3.554
19.0,608.0,3.555
53.0,951.0,3.556
75.0,1100.0,3.557
88.0,1172.0,3.558
73.0,1176.0,3.559
77.0,1112.0,3.56
81.0,995.0,3.561
59.0,841.0,3.562
32.0,650.0,3.563
32.0,443.0,3.564
56.0,240.0,3.565
79.0,46.0,3.566
87.0,-129.0,3.567
85.0,-268.0,3.568
63.0,-391.0,3.569
5.0,-550.0,3.57
-77.0,-751.0,3.571
-128.0,-902.0,3.572
-106.0,-905.0,3.573
-36.0,-780.0,3.574
6.0,-662.0,3.575
-7.0,-630.0,3.576
-27.0,-586.0,3.577
-9.0,-375.0,3.578
36.0,5.0,3.579
58.0,385.0,3.58
50.0,619.0,3.581
46.0,723.0,3.582
62.0,745.0,3.583
74.0,674.0,3.584
77.0,502.0,3.585
85.0,299.0,3.586
104.0,142.0,3.587
117.0,36.0,3.588
106.0,-46.0,3.589
69.0,-94.0,3.59
17.0,-102.0,3.591
-38.0,-108.0,3.592
-94.0,-138.0,3.593
-154.0,-173.0,3.594
-207.0,-204.0,3.595
-223.0,-263.0,3.596
-199.0,-370.0,3.597
-168.0,-552.0,3.598
-168.0,-820.0,3.599
-178.0,-1143.0,3.6
-141.0,-1335.0,3.601
-64.0,-1153.0,3.602
-17.0,-617.0,3.603
-27.0,-58.0,3.604
-30.0,265.0,3.605
20.0,477.0,3.606
85.0,806.0,3.607
104.0,1197.0,3.608
93.0,1418.0,3.609
100.0,1424.0,3.61
119.0,1358.0,3.611
119.0,1261.0,3.612
104.0,1062.0,3.613
97.0,795.0,3.614
94.0,564.0,3.615
70.0,349.0,3.616
38.0,83.0,3.617
20.0,-221.0,3.618
18.0,-426.0,3.619
12.0,-543.0,3.62
-5.0,-706.0,3.621
-14.0,-888.0,3.622
3.0,-900.0,3.623
23.0,-690.0,3.624
49.0,-438.0,3.625
65.0,-305.0,3.626
49.0,-240.0,3.627
38.0,-143.0,3.628
50.0,-42.0,3.629
57.0,-13.0,3.63
50.0,-32.0,3.631
39.0,-29.0,3.632
20.0,-12.0,3.633
1.0,-26.0,3.634
-16.0,-55.0,3.635
-32.0,-58.0,3.636
-41.0,-52.0,3.637
-48.0,-89.0,3.638
-49.0,-165.0,3.639
-65.0,-236.0,3.64
-90.0,-279.0,3.641
-108.0,-322.0,3.642
-117.0,-458.0,3.643
-117.0,-763.0,3.644
-105.0,-1121.0,3.645
-75.0,-1170.0,3.646
-40.0,-654.0,3.647
-27.0,134.0,3.648
-48.0,544.0,3.649
-71.0,334.0,3.65
-56.0,-7.0,3.651
-10.0,125.0,3.652
25.0,740.0,3.653
31.0,1349.0,3.654
36.0,1604.0,3.655
57.0,1555.0,3.656
72.0,1403.0,3.657
59.0,1208.0,3.658
40.0,991.0,3.659
33.0,774.0,3.66
38.0,566.0,3.661
59.0,360.0,3.662
96.0,163.0,3.663
124.0,-9.0,3.664
104.0,-175.0,3.665
49.0,-356.0,3.666
1.0,-513.0,3.667
-22.0,-582.0,3.668
-50.0,-566.0,3.669
-98.0,-544.0,3.67
-146.0,-566.0,3.671
-158.0,-607.0,3.672
-110.0,-630.0,3.673
-13.0,-635.0,3.674
83.0,-615.0,3.675
123.0,-523.0,3.676
117.0,-360.0,3.677
117.0,-176.0,3.678
137.0,-46.0,3.679
122.0,35.0,3.68
43.0,113.0,3.681
-39.0,175.0,3.682
-54.0,159.0,3.683
-13.0,71.0,3.684
20.0,-10.0,3.685
30.0,-40.0,3.686
44.0,-49.0,3.687
72.0,-67.0,3.688
92.0,-76.0,3.689
99.0,-55.0,3.69
96.0,-17.0,3.691
80.0,-2.0,3.692
53.0,-20.0,3.693
29.0,-52.0,3.694
19.0,-66.0,3.695
11.0,-52.0,3.696
3.0,-37.0,3.697
-11.0,-70.0,3.698
-37.0,-149.0,3.699
-76.0,-225.0,3.7
-152.0,-243.0,3.701
-212.0,-201.0,3.702
-226.0,-141.0,3.703
-233.0,-92.0,3.704
-213.0,-72.0,3.705
-191.0,-139.0,3.706
-169.0,-395.0,3.707
-141.0,-854.0,3.708
-93.0,-1298.0,3.709
-42.0,-1325.0,3.71
11.0,-712.0,3.711
59.0,282.0,3.712
89.0,1106.0,3.713
116.0,1461.0,3.714
129.0,1509.0,3.715
141.0,1510.0,3.716
149.0,1478.0,3.717
158.0,1300.0,3.718
169.0,1037.0,3.719
160.0,835.0,3.72
126.0,687.0,3.721
75.0,490.0,3.722
19.0,235.0,3.723
-35.0,9.0,3.724
-70.0,-175.0,3.725
-73.0,-363.0,3.726
-52.0,-520.0,3.727
-26.0,-569.0,3.728
-7.0,-526.0,3.729
8.0,-470.0,3.73
11.0,-439.0,3.731
-16.0,-417.0,3.732
-66.0,-384.0,3.733
-96.0,-323.0,3.734
-67.0,-198.0,3.735
1.0,-24.0,3.736
50.0,126.0,3.737
60.0,210.0,3.738
68.0,228.0,3.739
90.0,187.0,3.74
96.0,71.0,3.741
59.0,-97.0,3.742
19.0,-270.0,3.743
13.0,-444.0,3.744
21.0,-641.0,3.745
-5.0,-762.0,3.746
-61.0,-606.0,3.747
-97.0,-153.0,3.748
-88.0,284.0,3.749
-45.0,394.0,3.75
3.0,239.0,3.751
29.0,109.0,3.752
22.0,62.0,3.753
-3.0,-106.0,3.754
-6.0,-456.0,3.755
22.0,-716.0,3.756
55.0,-636.0,3.757
-6.0,-240.0,3.758
-23.0,196.0,3.759
-38.0,468.0,3.76
-45.0,562.0,3.761
-47.0,565.0,3.762
-31.0,528.0,3.763
-14.0,474.0,3.764
5.0,411.0,3.765
19.0,321.0,3.766
20.0,159.0,3.767
21.0,-80.0,3.768
19.0,-307.0,3.769
20.0,-418.0,3.77
28.0,-396.0,3.771
38.0,-313.0,3.772
52.0,-231.0,3.773
63.0,-160.0,3.774
61.0,-106.0,3.775
53.0,-117.0,3.776
26.0,-220.0,3.777
-33.0,-346.0,3.778
-76.0,-362.0,3.779
-113.0,-288.0,3.78
-131.0,53.0,3.781
-135.0,341.0,3.782
-95.0,463.0,3.783
-53.0,541.0,3.784
-5.0,485.0,3.785
31.0,435.0,3.786
34.0,401.0,3.787
36.0,347.0,3.788
33.0,231.0,3.789
35.0,107.0,3.79
55.0,-42.0,3.791
79.0,-145.0,3.792
115.0,-106.0,3.793
141.0,-60.0,3.794
137.0,9.0,3.795
117.0,88.0,3.796
50.0,198.0,3.797
-34.0,347.0,3.798
-163.0,565.0,3.799
-229.0,578.0,3.8
-203.0,386.0,3.801
-148.0,119.0,3.802
-130.0,-204.0,3.803
-122.0,-580.0,3.804
-58.0,-822.0,3.805
42.0,-737.0,3.806
96.0,-423.0,3.807
83.0,-165.0,3.808
70.0,-78.0,3.809
90.0,-44.0,3.81
103.0,31.0,3.811
88.0,105.0,3.812
79.0,130.0,3.813
95.0,121.0,3.814
103.0,83.0,3.815
92.0,6.0,3.816
96.0,-58.0,3.817
119.0,-57.0,3.818
119.0,-23.0,3.819
65.0,-51.0,3.82
3.0,-142.0,3.821
-11.0,-186.0,3.822
10.0,-143.0,3.823
12.0,-81.0,3.824
-20.0,-64.0,3.825
-57.0,-70.0,3.826
-78.0,-73.0,3.827
-89.0,-89.0,3.828
-100.0,-143.0,3.829
-108.0,-256.0,3.83
-96.0,-435.0,3.831
-69.0,-612.0,3.832
-46.0,-616.0,3.833
-48.0,-349.0,3.834
-73.0,15.0,3.835
-91.0,173.0,3.836
-82.0,93.0,3.837
-53.0,9.0,3.838
-27.0,140.0,3.839
-15.0,400.0,3.84
-10.0,563.0,3.841
0.0,559.0,3.842
24.0,429.0,3.843
69.0,212.0,3.844
129.0,-6.0,3.845
189.0,-60.0,3.846
224.0,112.0,3.847
213.0,357.0,3.848
153.0,504.0,3.849
57.0,557.0,3.85
-35.0,580.0,3.851
-85.0,528.0,3.852
-87.0,321.0,3.853
-68.0,-16.0,3.854
-50.0,-384.0,3.855
-21.0,-681.0,3.856
25.0,-790.0,3.857
57.0,-643.0,3.858
41.0,-335.0,3.859
8.0,-99.0,3.86
-72.0,-47.0,3.861
-137.0,-48.0,3.862
-161.0,41.0,3.863
-163.0,205.0,3.864
-101.0,349.0,3.865
-53.0,403.0,3.866
-50.0,293.0,3.867
-45.0,-10.0,3.868
-32.0,-344.0,3.869
-6.0,-431.0,3.87
55.0,-200.0,3.871
113.0,109.0,3.872
157.0,253.0,3.873
180.0,256.0,3.874
136.0,274.0,3.875
94.0,330.0,3.876
63.0,329.0,3.877
32.0,228.0,3.878
-19.0,96.0,3.879
-100.0,-20.0,3.88
-135.0,-91.0,3.881
-89.0,-139.0,3.882
-14.0,-113.0,3.883
13.0,-90.0,3.884
-16.0,-74.0,3.885
-48.0,-87.0,3.886
-48.0,-187.0,3.887
-24.0,-291.0,3.888
-2.0,-409.0,3.889
17.0,-524.0,3.89
44.0,-628.0,3.891
71.0,-678.0,3.892
82.0,-565.0,3.893
79.0,-367.0,3.894
84.0,86.0,3.895
98.0,445.0,3.896
104.0,521.0,3.897
82.0,561.0,3.898
45.0,520.0,3.899
8.0,522.0,3.9
-26.0,492.0,3.901
-56.0,393.0,3.902
-79.0,228.0,3.903
-94.0,7.0,3.904
-94.0,-223.0,3.905
-68.0,-387.0,3.906
-28.0,-474.0,3.907
-23.0,-549.0,3.908
-74.0,-624.0,3.909
-122.0,-598.0,3.91
-99.0,-393.0,3.911
-22.0,-93.0,3.912
28.0,137.0,3.913
28.0,244.0,3.914
23.0,320.0,3.915
36.0,445.0,3.916
40.0,559.0,3.917
25.0,564.0,3.918
28.0,472.0,3.919
60.0,422.0,3.92
89.0,481.0,3.921
88.0,520.0,3.922
83.0,392.0,3.923
84.0,163.0,3.924
57.0,-13.0,3.925
-8.0,-134.0,3.926
-59.0,-292.0,3.927
-52.0,-436.0,3.928
-20.0,-412.0,3.929
-19.0,-249.0,3.93
-34.0,-175.0,3.931
-18.0,-318.0,3.932
27.0,-557.0,3.933
55.0,-683.0,3.934
45.0,-574.0,3.935
34.0,-253.0,3.936
38.0,100.0,3.937
15.0,310.0,3.938
-42.0,309.0,3.939
-77.0,245.0,3.94
-46.0,264.0,3.941
-26.0,319.0,3.942
-38.0,293.0,3.943
-51.0,199.0,3.944
-64.0,119.0,3.945
-58.0,60.0,3.946
11.0,-7.0,3.947
66.0,-50.0,3.948
78.0,-20.0,3.949
80.0,52.0,3.95
52.0,93.0,3.951
26.0,67.0,3.952
6.0,-27.0,3.953
-2.0,-162.0,3.954
27.0,-283.0,3.955
53.0,-329.0,3.956
65.0,-287.0,3.957
72.0,-179.0,3.958
44.0,-61.0,3.959
-12.0,15.0,3.96
-63.0,33.0,3.961
-77.0,27.0,3.962
-57.0,23.0,3.963
-33.0,-7.0,3.964
-16.0,-114.0,3.965
-9.0,-263.0,3.966
-27.0,-331.0,3.967
-73.0,-239.0,3.968
-105.0,-42.0,3.969
-72.0,123.0,3.97
14.0,179.0,3.971
86.0,156.0,3.972
103.0,136.0,3.973
86.0,163.0,3.974
67.0,209.0,3.975
54.0,240.0,3.976
51.0,243.0,3.977
71.0,189.0,3.978
104.0,3.0,3.979
100.0,-359.0,3.98
29.0,-751.0,3.981
-72.0,-871.0,3.982
-142.0,-554.0,3.983
-168.0,-1.0,3.984
-174.0,419.0,3.985
-166.0,547.0,3.986
-141.0,519.0,3.987
-120.0,491.0,3.988
-130.0,467.0,3.989
-147.0,411.0,3.99
-114.0,289.0,3.991
-29.0,-23.0,3.992
51.0,-584.0,3.993
84.0,-1052.0,3.994
92.0,-873.0,3.995
104.0,3.0,3.996
116.0,886.0,3.997
114.0,1254.0,3.998
105.0,1145.0,3.999
97.0,969.0,4.0
87.0,845.0,4.001
73.0,607.0,4.002
77.0,270.0,4.003
104.0,26.0,4.004
119.0,-114.0,4.005
90.0,-305.0,4.006
40.0,-548.0,4.007
7.0,-691.0,4.008
-9.0,-683.0,4.009
-38.0,-594.0,4.01
-79.0,-461.0,4.011
-90.0,-315.0,4.012
-50.0,-223.0,4.013
20.0,-192.0,4.014
69.0,-122.0,4.015
66.0,16.0,4.016
33.0,106.0,4.017
7.0,64.0,4.018
5.0,-29.0,4.019
4.0,-57.0,4.02
8.0,-37.0,4.021
15.0,-35.0,4.022
33.0,-49.0,4.023
39.0,-42.0,4.024
5.0,-24.0,4.025
-20.0,-25.0,4.026
-23.0,-42.0,4.027
-26.0,-58.0,4.028
-28.0,-71.0,4.029
-30.0,-86.0,4.03
-26.0,-121.0,4.031
-21.0,-241.0,4.032
-18.0,-501.0,4.033
-16.0,-797.0,4.034
-17.0,-879.0,4.035
-31.0,-614.0,4.036
-83.0,-195.0,4.037
-130.0,122.0,4.038
-129.0,269.0,4.039
-80.0,406.0,4.04
-40.0,510.0,4.041
-29.0,581.0,4.042
-4.0,549.0,4.043
61.0,500.0,4.044
126.0,402.0,4.045
134.0,328.0,4.046
92.0,332.0,4.047
51.0,330.0,4.048
49.0,309.0,4.049
68.0,283.0,4.05
69.0,244.0,4.051
34.0,215.0,4.052
-10.0,220.0,4.053
-39.0,178.0,4.054
-57.0,-11.0,4.055
-83.0,-207.0,4.056
-108.0,-423.0,4.057
-118.0,-677.0,4.058
-115.0,-1086.0,4.059
-121.0,-1455.0,4.06
-131.0,-1565.0,4.061
-122.0,-1265.0,4.062
-78.0,-611.0,4.063
-7.0,148.0,4.064
71.0,758.0,4.065
130.0,1149.0,4.066
141.0,1373.0,4.067
107.0,1431.0,4.068
66.0,1285.0,4.069
48.0,969.0,4.07
47.0,578.0,4.071
46.0,207.0,4.072
40.0,-20.0,4.073
37.0,7.0,4.074
30.0,198.0,4.075
26.0,257.0,4.076
37.0,71.0,4.077
-52.0,-200.0,4.078
-6.0,-296.0,4.079
34.0,-231.0,4.08
53.0,-180.0,4.081
66.0,-168.0,4.082
53.0,-129.0,4.083
46.0,-124.0,4.084
61.0,-257.0,4.085
74.0,-466.0,4.086
81.0,-590.0,4.087
81.0,-589.0,4.088
63.0,-546.0,4.089
34.0,-495.0,4.09
-22.0,-396.0,4.091
-54.0,-238.0,4.092
-9.0,-39.0,4.093
11.0,161.0,4.094
-41.0,267.0,4.095
-92.0,167.0,4.096
-137.0,-65.0,4.097
-29.0,-200.0,4.098
0.0,-147.0,4.099
26.0,-50.0,4.1
38.0,173.0,4.101
46.0,330.0,4.102
38.0,284.0,4.103
33.0,210.0,4.104
43.0,56.0,4.105
51.0,-32.0,4.106
55.0,79.0,4.107
55.0,202.0,4.108
44.0,361.0,4.109
26.0,471.0,4.11
-10.0,438.0,4.111
-30.0,389.0,4.112
-2.0,297.0,4.113
11.0,187.0,4.114
-22.0,23.0,4.115
-54.0,-122.0,4.116
-82.0,-207.0,4.117
-99.0,-381.0,4.118
-89.0,-299.0,4.119
-81.0,-151.0,4.12
-58.0,193.0,4.121
-19.0,434.0,4.122
16.0,363.0,4.123
40.0,250.0,4.124
61.0,12.0,4.125
87.0,-123.0,4.126
103.0,47.0,4.127
99.0,237.0,4.128
84.0,481.0,4.129
64.0,651.0,4.13
43.0,600.0,4.131
13.0,525.0,4.132
-27.0,383.0,4.133
-63.0,214.0,4.134
-69.0,-39.0,4.135
-44.0,-261.0,4.136
-17.0,-391.0,4.137
-10.0,-517.0,4.138
-10.0,-612.0,4.139
-1.0,-617.0,4.14
-1.0,-525.0,4.141
-42.0,-424.0,4.142
-107.0,-371.0,4.143
-147.0,-337.0,4.144
-144.0,-333.0,4.145
-126.0,-420.0,4.146
-110.0,-524.0,4.147
-76.0,-422.0,4.148
-8.0,-21.0,4.149
65.0,450.0,4.15
99.0,702.0,4.151
97.0,738.0,4.152
94.0,775.0,4.153
101.0,901.0,4.154
95.0,988.0,4.155
72.0,942.0,4.156
65.0,828.0,4.157
89.0,692.0,4.158
112.0,497.0,4.159
95.0,161.0,4.16
50.0,-327.0,4.161
20.0,-842.0,4.162
16.0,-1135.0,4.163
22.0,-1000.0,4.164
22.0,-531.0,4.165
11.0,-100.0,4.166
-11.0,49.0,4.167
-35.0,33.0,4.168
-50.0,51.0,4.169
-61.0,63.0,4.17
-87.0,-65.0,4.171
-123.0,-269.0,4.172
-138.0,-401.0,4.173
-129.0,-497.0,4.174
-117.0,-651.0,4.175
-108.0,-732.0,4.176
-73.0,-541.0,4.177
7.0,-92.0,4.178
93.0,312.0,4.179
137.0,493.0,4.18
135.0,575.0,4.181
122.0,719.0,4.182
112.0,873.0,4.183
88.0,910.0,4.184
48.0,830.0,4.185
18.0,696.0,4.186
13.0,503.0,4.187
17.0,238.0,4.188
23.0,-33.0,4.189
38.0,-230.0,4.19
58.0,-357.0,4.191
65.0,-453.0,4.192
57.0,-509.0,4.193
46.0,-504.0,4.194
28.0,-457.0,4.195
-12.0,-402.0,4.196
-64.0,-349.0,4.197
-117.0,-302.0,4.198
-145.0,-295.0,4.199
-147.0,-331.0,4.2
-120.0,-351.0,4.201
-69.0,-296.0,4.202
-9.0,-197.0,4.203
41.0,-118.0,4.204
75.0,-49.0,4.205
91.0,65.0,4.206
90.0,201.0,4.207
83.0,265.0,4.208
91.0,225.0,4.209
108.0,173.0,4.21
103.0,188.0,4.211
66.0,222.0,4.212
11.0,177.0,4.213
-40.0,22.0,4.214
-75.0,-194.0,4.215
-80.0,-398.0,4.216
-62.0,-492.0,4.217
-50.0,-403.0,4.218
-73.0,-161.0,4.219
-112.0,69.0,4.22
-123.0,152.0,4.221
-107.0,121.0,4.222
-99.0,66.0,4.223
-97.0,-25.0,4.224
-64.0,-180.0,4.225
0.0,-271.0,4.226
46.0,-109.0,4.227
50.0,269.0,4.228
46.0,566.0,4.229
51.0,559.0,4.23
38.0,369.0,4.231
-2.0,269.0,4.232
-34.0,336.0,4.233
-21.0,425.0,4.234
10.0,422.0,4.235
21.0,343.0,4.236
20.0,220.0,4.237
38.0,9.0,4.238
67.0,-235.0,4.239
73.0,-391.0,4.24
54.0,-422.0,4.241
40.0,-399.0,4.242
37.0,-337.0,4.243
29.0,-140.0,4.244
8.0,206.0,4.245
-4.0,525.0,4.246
-1.0,644.0,4.247
4.0,569.0,4.248
12.0,395.0,4.249
24.0,156.0,4.25
28.0,-131.0,4.251
14.0,-347.0,4.252
9.0,-337.0,4.253
37.0,-109.0,4.254
72.0,137.0,4.255
69.0,220.0,4.256
38.0,159.0,4.257
21.0,71.0,4.258
27.0,32.0,4.259
29.0,-7.0,4.26
19.0,-93.0,4.261
7.0,-184.0,4.262
-8.0,-241.0,4.263
-20.0,-297.0,4.264
-22.0,-366.0,4.265
-25.0,-382.0,4.266
-27.0,-292.0,4.267
-39.0,-178.0,4.268
-79.0,-182.0,4.269
-110.0,-340.0,4.27
-115.0,-554.0,4.271
-102.0,-705.0,4.272
-35.0,-741.0,4.273
19.0,-640.0,4.274
39.0,-383.0,4.275
52.0,-6.0,4.276
45.0,346.0,4.277
45.0,564.0,4.278
61.0,651.0,4.279
56.0,715.0,4.28
47.0,707.0,4.281
49.0,673.0,4.282
52.0,560.0,4.283
49.0,432.0,4.284
44.0,259.0,4.285
31.0,104.0,4.286
-4.0,5.0,4.287
-57.0,-72.0,4.288
-97.0,-87.0,4.289
-111.0,-126.0,4.29
-105.0,-234.0,4.291
-83.0,-378.0,4.292
-45.0,-631.0,4.293
0.0,-895.0,4.294
33.0,-1193.0,4.295
46.0,-1352.0,4.296
49.0,-1089.0,4.297
47.0,-720.0,4.298
36.0,-39.0,4.299
9.0,456.0,4.3
-25.0,702.0,4.301
-48.0,901.0,4.302
-54.0,1159.0,4.303
-41.0,1315.0,4.304
-8.0,1219.0,4.305
39.0,968.0,4.306
69.0,738.0,4.307
61.0,576.0,4.308
33.0,439.0,4.309
22.0,337.0,4.31
25.0,270.0,4.311
9.0,168.0,4.312
-37.0,-18.0,4.313
-80.0,-229.0,4.314
-95.0,-376.0,4.315
-93.0,-444.0,4.316
-82.0,-485.0,4.317
-56.0,-588.0,4.318
-1.0,-796.0,4.319
54.0,-1020.0,4.32
80.0,-1041.0,4.321
78.0,-716.0,4.322
73.0,-202.0,4.323
61.0,177.0,4.324
17.0,294.0,4.325
-50.0,306.0,4.326
-77.0,400.0,4.327
-26.0,571.0,4.328
49.0,689.0,4.329
68.0,699.0,4.33
39.0,637.0,4.331
39.0,509.0,4.332
78.0,270.0,4.333
89.0,-68.0,4.334
46.0,-350.0,4.335
8.0,-431.0,4.336
18.0,-359.0,4.337
32.0,-284.0,4.338
7.0,-267.0,4.339
-22.0,-212.0,4.34
-1.0,-58.0,4.341
48.0,107.0,4.342
68.0,171.0,4.343
52.0,153.0,4.344
38.0,123.0,4.345
29.0,79.0,4.346
3.0,-11.0,4.347
-45.0,-116.0,4.348
-92.0,-186.0,4.349
-117.0,-232.0,4.35
-106.0,-306.0,4.351
-50.0,-414.0,4.352
22.0,-557.0,4.353
58.0,-756.0,4.354
43.0,-959.0,4.355
18.0,-988.0,4.356
10.0,-735.0,4.357
-17.0,-269.0,4.358
-79.0,125.0,4.359
-130.0,291.0,4.36
-111.0,368.0,4.361
-27.0,547.0,4.362
66.0,795.0,4.363
115.0,931.0,4.364
97.0,886.0,4.365
25.0,746.0,4.366
-42.0,596.0,4.367
-54.0,441.0,4.368
-34.0,274.0,4.369
-31.0,121.0,4.37
-43.0,-34.0,4.371
-28.0,-240.0,4.372
7.0,-447.0,4.373
20.0,-475.0,4.374
15.0,-241.0,4.375
32.0,43.0,4.376
67.0,95.0,4.377
80.0,-118.0,4.378
66.0,-337.0,4.379
48.0,-356.0,4.38
32.0,-217.0,4.381
-3.0,-38.0,4.382
-37.0,148.0,4.383
-31.0,310.0,4.384
3.0,369.0,4.385
17.0,311.0,4.386
4.0,214.0,4.387
-2.0,133.0,4.388
4.0,58.0,4.389
-5.0,2.0,4.39
-16.0,-15.0,4.391
12.0,-36.0,4.392
70.0,-99.0,4.393
102.0,-141.0,4.394
90.0,-97.0,4.395
68.0,-42.0,4.396
52.0,-82.0,4.397
12.0,-209.0,4.398
-38.0,-307.0,4.399
-51.0,-323.0,4.4
-17.0,-283.0,4.401
13.0,-190.0,4.402
-1.0,-48.0,4.403
-42.0,64.0,4.404
-92.0,68.0,4.405
-156.0,-18.0,4.406
-204.0,-115.0,4.407
-179.0,-167.0,4.408
-82.0,-144.0,4.409
10.0,-48.0,4.41
45.0,36.0,4.411
48.0,2.0,4.412
54.0,-113.0,4.413
46.0,-148.0,4.414
14.0,-41.0,4.415
-11.0,112.0,4.416
-8.0,244.0,4.417
0.0,428.0,4.418
-11.0,685.0,4.419
-25.0,879.0,4.42
-19.0,861.0,4.421
-10.0,637.0,4.422
-15.0,277.0,4.423
-25.0,-165.0,4.424
-25.0,-586.0,4.425
-22.0,-795.0,4.426
-14.0,-676.0,4.427
17.0,-329.0,4.428
70.0,9.0,4.429
101.0,168.0,4.43
89.0,149.0,4.431
70.0,88.0,4.432
80.0,109.0,4.433
97.0,195.0,4.434
84.0,227.0,4.435
47.0,158.0,4.436
26.0,77.0,4.437
23.0,48.0,4.438
17.0,53.0,4.439
-6.0,39.0,4.44
-21.0,13.0,4.441
-20.0,16.0,4.442
-12.0,28.0,4.443
-12.0,13.0,4.444
-18.0,-27.0,4.445
-24.0,-81.0,4.446
-36.0,-154.0,4.447
-52.0,-222.0,4.448
-46.0,-245.0,4.449
6.0,-228.0,4.45
84.0,-225.0,4.451
140.0,-246.0,4.452
151.0,-243.0,4.453
128.0,-193.0,4.454
91.0,-143.0,4.455
31.0,-125.0,4.456
-47.0,-108.0,4.457
-129.0,-69.0,4.458
-168.0,-38.0,4.459
-155.0,-41.0,4.46
-116.0,-56.0,4.461
-68.0,-48.0,4.462
-7.0,-43.0,4.463
55.0,-67.0,4.464
78.0,-87.0,4.465
46.0,-54.0,4.466
-2.0,21.0,4.467
-23.0,89.0,4.468
-11.0,123.0,4.469
0.0,134.0,4.47
-3.0,137.0,4.471
-14.0,129.0,4.472
-14.0,112.0,4.473
-1.0,89.0,4.474
15.0,62.0,4.475
24.0,40.0,4.476
29.0,31.0,4.477
41.0,33.0,4.478
56.0,35.0,4.479
54.0,30.0,4.48
25.0,26.0,4.481
-10.0,33.0,4.482
-26.0,37.0,4.483
-27.0,30.0,4.484
-32.0,19.0,4.485
-36.0,18.0,4.486
-19.0,13.0,4.487
10.0,-13.0,4.488
25.0,-52.0,4.489
16.0,-79.0,4.49
6.0,-89.0,4.491
21.0,-86.0,4.492
49.0,-62.0,4.493
55.0,0.0,4.494
32.0,86.0,4.495
5.0,154.0,4.496
-3.0,175.0,4.497
-5.0,152.0,4.498
-11.0,111.0,4.499
-12.0,65.0,4.5
8.0,13.0,4.501
23.0,-32.0,4.502
19.0,-68.0,4.503
13.0,-100.0,4.504
7.0,-124.0,4.505
0.0,-115.0,4.506
-9.0,-66.0,4.507
-28.0,-4.0,4.508
-74.0,24.0,4.509
-112.0,-3.0,4.51
-125.0,-84.0,4.511
-135.0,-218.0,4.512
-131.0,-379.0,4.513
-115.0,-477.0,4.514
-63.0,-427.0,4.515
-12.0,-245.0,4.516
35.0,-63.0,4.517
71.0,-639.0,4.518
64.0,-479.0,4.519
72.0,-310.0,4.52
90.0,-116.0,4.521
79.0,87.0,4.522
27.0,322.0,4.523
-16.0,515.0,4.524
-20.0,574.0,4.525
-5.0,577.0,4.526
0.0,409.0,4.527
2.0,232.0,4.528
19.0,34.0,4.529
42.0,-134.0,4.53
58.0,-218.0,4.531
73.0,-270.0,4.532
96.0,-227.0,4.533
118.0,-195.0,4.534
119.0,-201.0,4.535
97.0,-213.0,4.536
58.0,-237.0,4.537
-6.0,-436.0,4.538
-82.0,-329.0,4.539
-141.0,-216.0,4.54
-142.0,-86.0,4.541
-88.0,51.0,4.542
-21.0,208.0,4.543
11.0,337.0,4.544
2.0,377.0,4.545
-11.0,379.0,4.546
4.0,266.0,4.547
40.0,148.0,4.548
61.0,15.0,4.549
58.0,-98.0,4.55
54.0,-154.0,4.551
64.0,-189.0,4.552
65.0,-160.0,4.553
28.0,-139.0,4.554
-33.0,-143.0,4.555
-78.0,-151.0,4.556
-83.0,-167.0,4.557
-54.0,-181.0,4.558
-14.0,-198.0,4.559
9.0,-264.0,4.56
-18.0,-406.0,4.561
-91.0,-531.0,4.562
-150.0,-473.0,4.563
-138.0,-191.0,4.564
-69.0,130.0,4.565
-10.0,284.0,4.566
20.0,268.0,4.567
51.0,226.0,4.568
103.0,219.0,4.569
139.0,199.0,4.57
137.0,169.0,4.571
115.0,197.0,4.572
97.0,281.0,4.573
81.0,329.0,4.574
55.0,298.0,4.575
29.0,243.0,4.576
14.0,208.0,4.577
4.0,164.0,4.578
-2.0,95.0,4.579
-4.0,25.0,4.58
-5.0,-22.0,4.581
-8.0,-64.0,4.582
-5.0,-115.0,4.583
1.0,-156.0,4.584
-8.0,-169.0,4.585
-41.0,-173.0,4.586
-72.0,-191.0,4.587
-72.0,-223.0,4.588
-49.0,-253.0,4.589
-30.0,-286.0,4.59
-18.0,-331.0,4.591
-3.0,-374.0,4.592
10.0,-362.0,4.593
10.0,-249.0,4.594
1.0,-52.0,4.595
4.0,144.0,4.596
16.0,277.0,4.597
21.0,356.0,4.598
16.0,392.0,4.599
4.0,377.0,4.6
-2.0,302.0,4.601
-4.0,205.0,4.602
-8.0,140.0,4.603
-12.0,114.0,4.604
-15.0,98.0,4.605
-19.0,70.0,4.606
-21.0,25.0,4.607
-8.0,-43.0,4.608
29.0,-125.0,4.609
65.0,-184.0,4.61
61.0,-210.0,4.611
16.0,-226.0,4.612
-13.0,-240.0,4.613
8.0,-213.0,4.614
35.0,-143.0,4.615
4.0,-88.0,4.616
-66.0,-79.0,4.617
-117.0,-41.0,4.618
-105.0,113.0,4.619
-59.0,327.0,4.62
-23.0,452.0,4.621
-8.0,435.0,4.622
-2.0,353.0,4.623
4.0,271.0,4.624
12.0,179.0,4.625
22.0,75.0,4.626
33.0,5.0,4.627
38.0,-11.0,4.628
40.0,-13.0,4.629
45.0,-16.0,4.63
49.0,-9.0,4.631
49.0,-6.0,4.632
49.0,-38.0,4.633
48.0,-90.0,4.634
43.0,-121.0,4.635
28.0,-134.0,4.636
17.0,-158.0,4.637
9.0,-185.0,4.638
3.0,-172.0,4.639
-1.0,-130.0,4.64
-3.0,-113.0,4.641
-5.0,-126.0,4.642
-7.0,-128.0,4.643
-14.0,-107.0,4.644
-30.0,-101.0,4.645
-46.0,-117.0,4.646
-60.0,-122.0,4.647
-66.0,-113.0,4.648
-47.0,-121.0,4.649
-25.0,-140.0,4.65
4.0,-127.0,4.651
28.0,-72.0,4.652
31.0,-20.0,4.653
36.0,11.0,4.654
46.0,53.0,4.655
53.0,121.0,4.656
44.0,181.0,4.657
33.0,212.0,4.658
15.0,227.0,4.659
-9.0,238.0,4.66
-23.0,227.0,4.661
-19.0,190.0,4.662
-8.0,141.0,4.663
-14.0,86.0,4.664
-37.0,26.0,4.665
-58.0,-25.0,4.666
-62.0,-48.0,4.667
-52.0,-56.0,4.668
-34.0,-99.0,4.669
-8.0,-185.0,4.67
21.0,-280.0,4.671
51.0,-342.0,4.672
74.0,-345.0,4.673
74.0,-266.0,4.674
51.0,-117.0,4.675
27.0,39.0,4.676
27.0,135.0,4.677
40.0,190.0,4.678
38.0,265.0,4.679
17.0,363.0,4.68
0.0,419.0,4.681
3.0,402.0,4.682
17.0,340.0,4.683
24.0,267.0,4.684
31.0,187.0,4.685
47.0,104.0,4.686
66.0,37.0,4.687
79.0,-7.0,4.688
74.0,-42.0,4.689
45.0,-75.0,4.69
-4.0,-103.0,4.691
-60.0,-132.0,4.692
-110.0,-168.0,4.693
-153.0,-211.0,4.694
-180.0,-279.0,4.695
-168.0,-396.0,4.696
-114.0,-520.0,4.697
-35.0,-565.0,4.698
26.0,-447.0,4.699
45.0,-198.0,4.7
37.0,65.0,4.701
21.0,262.0,4.702
5.0,368.0,4.703
-12.0,388.0,4.704
-23.0,333.0,4.705
-20.0,247.0,4.706
-3.0,165.0,4.707
20.0,102.0,4.708
43.0,68.0,4.709
56.0,71.0,4.71
55.0,88.0,4.711
39.0,89.0,4.712
22.0,71.0,4.713
14.0,61.0,4.714
14.0,58.0,4.715
11.0,35.0,4.716
4.0,-8.0,4.717
-6.0,-57.0,4.718
-16.0,-100.0,4.719
-25.0,-148.0,4.72
-31.0,-193.0,4.721
-24.0,-212.0,4.722
2.0,-218.0,4.723
45.0,-224.0,4.724
79.0,-202.0,4.725
79.0,-116.0,4.726
47.0,-2.0,4.727
23.0,68.0,4.728
30.0,81.0,4.729
49.0,88.0,4.73
49.0,102.0,4.731
38.0,89.0,4.732
35.0,48.0,4.733
44.0,24.0,4.734
44.0,43.0,4.735
29.0,73.0,4.736
16.0,79.0,4.737
13.0,67.0,4.738
17.0,59.0,4.739
20.0,50.0,4.74
16.0,27.0,4.741
1.0,-3.0,4.742
-18.0,-30.0,4.743
-30.0,-51.0,4.744
-31.0,-68.0,4.745
-29.0,-88.0,4.746
-37.0,-119.0,4.747
-68.0,-159.0,4.748
-119.0,-179.0,4.749
-161.0,-168.0,4.75
-169.0,-160.0,4.751
-144.0,-191.0,4.752
-118.0,-233.0,4.753
-106.0,-228.0,4.754
-80.0,-169.0,4.755
-17.0,-88.0,4.756
51.0,8.0,4.757
93.0,146.0,4.758
99.0,289.0,4.759
90.0,369.0,4.76
85.0,379.0,4.761
88.0,389.0,4.762
92.0,427.0,4.763
88.0,437.0,4.764
61.0,360.0,4.765
19.0,226.0,4.766
-20.0,119.0,4.767
-45.0,75.0,4.768
-59.0,57.0,4.769
-61.0,0.0,4.77
-49.0,-120.0,4.771
-32.0,-269.0,4.772
-24.0,-393.0,4.773
-28.0,-475.0,4.774
-25.0,-565.0,4.775
-8.0,-718.0,4.776
12.0,-873.0,4.777
21.0,-865.0,4.778
29.0,-548.0,4.779
40.0,-7.0,4.78
59.0,482.0,4.781
73.0,754.0,4.782
70.0,854.0,4.783
63.0,880.0,4.784
43.0,845.0,4.785
21.0,746.0,4.786
-7.0,630.0,4.787
-25.0,520.0,4.788
-11.0,365.0,4.789
11.0,147.0,4.79
56.0,-51.0,4.791
86.0,-160.0,4.792
64.0,-225.0,4.793
41.0,-300.0,4.794
11.0,-363.0,4.795
-9.0,-381.0,4.796
-3.0,-398.0,4.797
5.0,-468.0,4.798
12.0,-545.0,4.799
5.0,-531.0,4.8
-6.0,-408.0,4.801
-17.0,-240.0,4.802
-33.0,-89.0,4.803
-59.0,28.0,4.804
-83.0,103.0,4.805
-79.0,127.0,4.806
-53.0,115.0,4.807
-25.0,105.0,4.808
-7.0,116.0,4.809
11.0,129.0,4.81
28.0,119.0,4.811
36.0,80.0,4.812
40.0,27.0,4.813
52.0,-12.0,4.814
64.0,-15.0,4.815
63.0,2.0,4.816
51.0,16.0,4.817
41.0,12.0,4.818
26.0,2.0,4.819
-7.0,-3.0,4.82
-51.0,-7.0,4.821
-76.0,-4.0,4.822
-73.0,7.0,4.823
-65.0,12.0,4.824
-65.0,-1.0,4.825
-48.0,-24.0,4.826
-4.0,-39.0,4.827
42.0,-45.0,4.828
54.0,-52.0,4.829
42.0,-51.0,4.83
42.0,-32.0,4.831
49.0,-5.0,4.832
36.0,10.0,4.833
-4.0,11.0,4.834
-38.0,9.0,4.835
-34.0,7.0,4.836
-6.0,1.0,4.837
23.0,-8.0,4.838
38.0,-6.0,4.839
37.0,8.0,4.84
26.0,22.0,4.841
7.0,30.0,4.842
-11.0,41.0,4.843
-22.0,61.0,4.844
-30.0,76.0,4.845
-34.0,53.0,4.846
-32.0,-25.0,4.847
-19.0,-136.0,4.848
0.0,-235.0,4.849
17.0,-283.0,4.85
16.0,-263.0,4.851
-8.0,-178.0,4.852
-45.0,-52.0,4.853
-76.0,80.0,4.854
-85.0,194.0,4.855
-86.0,266.0,4.856
-93.0,239.0,4.857
-99.0,36.0,4.858
-83.0,-313.0,4.859
-61.0,-636.0,4.86
-23.0,-707.0,4.861
15.0,-440.0,4.862
56.0,10.0,4.863
91.0,395.0,4.864
107.0,609.0,4.865
111.0,726.0,4.866
81.0,834.0,4.867
60.0,904.0,4.868
66.0,871.0,4.869
81.0,746.0,4.87
125.0,572.0,4.871
150.0,352.0,4.872
118.0,82.0,4.873
73.0,-181.0,4.874
-4.0,-362.0,4.875
-68.0,-450.0,4.876
-88.0,-485.0,4.877
-93.0,-487.0,4.878
-54.0,-455.0,4.879
-45.0,-411.0,4.88
-67.0,-335.0,4.881
-75.0,-260.0,4.882
-52.0,-188.0,4.883
-39.0,-111.0,4.884
-48.0,-20.0,4.885
-29.0,62.0,4.886
35.0,114.0,4.887
87.0,143.0,4.888
83.0,98.0,4.889
60.0,49.0,4.89
65.0,-12.0,4.891
74.0,-63.0,4.892
50.0,-85.0,4.893
17.0,-104.0,4.894
16.0,-114.0,4.895
43.0,-127.0,4.896
56.0,-145.0,4.897
33.0,-151.0,4.898
-19.0,-124.0,4.899
-89.0,-123.0,4.9
-154.0,-138.0,4.901
-179.0,-112.0,4.902
-144.0,-28.0,4.903
-66.0,64.0,4.904
22.0,113.0,4.905
107.0,106.0,4.906
170.0,69.0,4.907
177.0,42.0,4.908
110.0,36.0,4.909
17.0,27.0,4.91
-17.0,0.0,4.911
24.0,-22.0,4.912
66.0,-11.0,4.913
40.0,17.0,4.914
-22.0,40.0,4.915
-50.0,55.0,4.916
-39.0,68.0,4.917
-35.0,67.0,4.918
-50.0,45.0,4.919
-52.0,9.0,4.92
-32.0,-39.0,4.921
-18.0,-85.0,4.922
-17.0,-119.0,4.923
-9.0,-123.0,4.924
6.0,-105.0,4.925
11.0,-81.0,4.926
4.0,-49.0,4.927
9.0,-4.0,4.928
24.0,29.0,4.929
24.0,32.0,4.93
9.0,38.0,4.931
-4.0,94.0,4.932
-16.0,189.0,4.933
-40.0,265.0,4.934
-73.0,297.0,4.935
-86.0,295.0,4.936
-75.0,251.0,4.937
-74.0,103.0,4.938
-106.0,-153.0,4.939
-130.0,-410.0,4.94
-132.0,-510.0,4.941
-104.0,-397.0,4.942
13.0,-185.0,4.943
106.0,-24.0,4.944
126.0,62.0,4.945
136.0,135.0,4.946
117.0,201.0,4.947
109.0,197.0,4.948
134.0,130.0,4.949
146.0,102.0,4.95
120.0,172.0,4.951
105.0,278.0,4.952
121.0,346.0,4.953
121.0,376.0,4.954
70.0,382.0,4.955
22.0,338.0,4.956
-18.0,244.0,4.957
-54.0,133.0,4.958
-74.0,54.0,4.959
-85.0,-5.0,4.96
-99.0,-80.0,4.961
-119.0,-151.0,4.962
-119.0,-195.0,4.963
-80.0,-222.0,4.964
-38.0,-261.0,4.965
-33.0,-296.0,4.966
-41.0,-294.0,4.967
-20.0,-258.0,4.968
14.0,-230.0,4.969
31.0,-223.0,4.97
31.0,-207.0,4.971
40.0,-168.0,4.972
48.0,-136.0,4.973
34.0,-135.0,4.974
8.0,-131.0,4.975
0.0,-86.0,4.976
7.0,-22.0,4.977
11.0,18.0,4.978
9.0,31.0,4.979
12.0,41.0,4.98
22.0,57.0,4.981
34.0,66.0,4.982
50.0,59.0,4.983
65.0,48.0,4.984
64.0,42.0,4.985
46.0,31.0,4.986
32.0,14.0,4.987
34.0,2.0,4.988
39.0,1.0,4.989
31.0,3.0,4.99
16.0,-14.0,4.991
-1.0,-71.0,4.992
-21.0,-161.0,4.993
-48.0,-237.0,4.994
-79.0,-234.0,4.995
-111.0,-141.0,4.996
-135.0,-19.0,4.997
-145.0,83.0,4.998
-125.0,134.0,4.999
-94.0,79.0,5.0
-75.0,-157.0,5.001
-68.0,-516.0,5.002
-48.0,-754.0,5.003
-10.0,-666.0,5.004
18.0,-322.0,5.005
20.0,25.0,5.006
15.0,276.0,5.007
20.0,532.0,5.008
32.0,847.0,5.009
38.0,1101.0,5.01
44.0,1168.0,5.011
52.0,1064.0,5.012
62.0,861.0,5.013
66.0,594.0,5.014
65.0,309.0,5.015
54.0,88.0,5.016
29.0,-27.0,5.017
-20.0,-84.0,5.018
-11.0,-117.0,5.019
-3.0,-122.0,5.02
-2.0,-105.0,5.021
2.0,-96.0,5.022
12.0,-109.0,5.023
24.0,-127.0,5.024
40.0,-137.0,5.025
51.0,-163.0,5.026
45.0,-222.0,5.027
39.0,-297.0,5.028
32.0,-352.0,5.029
19.0,-363.0,5.03
-4.0,-330.0,5.031
-27.0,-276.0,5.032
-42.0,-225.0,5.033
-56.0,-186.0,5.034
-66.0,-157.0,5.035
-66.0,-135.0,5.036
-35.0,-119.0,5.037
-24.0,-102.0,5.038
-13.0,-81.0,5.039
-4.0,-77.0,5.04
-1.0,-99.0,5.041
4.0,-108.0,5.042
16.0,-70.0,5.043
30.0,-18.0,5.044
49.0,-5.0,5.045
62.0,-28.0,5.046
55.0,-40.0,5.047
48.0,-24.0,5.048
39.0,-7.0,5.049
24.0,5.0,5.05
-5.0,34.0,5.051
-32.0,65.0,5.052
-50.0,66.0,5.053
-67.0,35.0,5.054
-79.0,13.0,5.055
-79.0,13.0,5.056
-42.0,2.0,5.057
-11.0,-48.0,5.058
-21.0,-114.0,5.059
-40.0,-151.0,5.06
-19.0,-96.0,5.061
22.0,-25.0,5.062
41.0,88.0,5.063
42.0,176.0,5.064
54.0,186.0,5.065
69.0,194.0,5.066
66.0,195.0,5.067
54.0,188.0,5.068
55.0,151.0,5.069
61.0,119.0,5.07
46.0,104.0,5.071
25.0,88.0,5.072
18.0,66.0,5.073
4.0,50.0,5.074
-40.0,50.0,5.075
-92.0,17.0,5.076
-112.0,-112.0,5.077
-97.0,-243.0,5.078
-97.0,-354.0,5.079
-109.0,-441.0,5.08
-106.0,-521.0,5.081
-72.0,-535.0,5.082
-21.0,-423.0,5.083
20.0,-217.0,5.084
38.0,2.0,5.085
48.0,186.0,5.086
67.0,326.0,5.087
82.0,427.0,5.088
66.0,497.0,5.089
35.0,543.0,5.09
36.0,560.0,5.091
76.0,527.0,5.092
105.0,449.0,5.093
96.0,365.0,5.094
82.0,303.0,5.095
86.0,246.0,5.096
77.0,180.0,5.097
21.0,95.0,5.098
-57.0,5.0,5.099
-115.0,-88.0,5.1
-135.0,-200.0,5.101
-120.0,-334.0,5.102
-62.0,-481.0,5.103
29.0,-601.0,5.104
113.0,-636.0,5.105
146.0,-562.0,5.106
108.0,-418.0,5.107
15.0,-242.0,5.108
-86.0,-36.0,5.109
-143.0,178.0,5.11
-130.0,326.0,5.111
-83.0,361.0,5.112
-56.0,324.0,5.113
-53.0,293.0,5.114
-41.0,286.0,5.115
-10.0,277.0,5.116
19.0,259.0,5.117
33.0,230.0,5.118
39.0,174.0,5.119
37.0,79.0,5.12
27.0,-29.0,5.121
19.0,-96.0,5.122
27.0,-120.0,5.123
43.0,-139.0,5.124
52.0,-159.0,5.125
55.0,-160.0,5.126
61.0,-154.0,5.127
59.0,-170.0,5.128
35.0,-208.0,5.129
3.0,-225.0,5.13
-19.0,-203.0,5.131
-35.0,-173.0,5.132
-54.0,-162.0,5.133
-62.0,-154.0,5.134
-39.0,-134.0,5.135
5.0,-108.0,5.136
30.0,-84.0,5.137
18.0,-54.0,5.138
0.0,-16.0,5.139
6.0,11.0,5.14
32.0,19.0,5.141
45.0,28.0,5.142
41.0,46.0,5.143
35.0,59.0,5.144
39.0,56.0,5.145
38.0,49.0,5.146
29.0,47.0,5.147
22.0,47.0,5.148
15.0,42.0,5.149
2.0,36.0,5.15
-9.0,39.0,5.151
-18.0,48.0,5.152
-29.0,53.0,5.153
-48.0,43.0,5.154
-61.0,20.0,5.155
-55.0,-2.0,5.156
-34.0,-18.0,5.157
-15.0,-57.0,5.158
0.0,-134.0,5.159
13.0,-223.0,5.16
21.0,-256.0,5.161
27.0,-195.0,5.162
43.0,-67.0,5.163
71.0,66.0,5.164
93.0,165.0,5.165
94.0,218.0,5.166
84.0,239.0,5.167
73.0,255.0,5.168
55.0,276.0,5.169
15.0,291.0,5.17
-51.0,282.0,5.171
-124.0,244.0,5.172
-177.0,179.0,5.173
-196.0,84.0,5.174
-186.0,-44.0,5.175
-162.0,-210.0,5.176
-138.0,-432.0,5.177
-109.0,-762.0,5.178
-76.0,-1072.0,5.179
-48.0,-1117.0,5.18
-27.0,-796.0,5.181
-4.0,-293.0,5.182
33.0,131.0,5.183
75.0,455.0,5.184
100.0,789.0,5.185
108.0,1087.0,5.186
111.0,1188.0,5.187
113.0,1097.0,5.188
109.0,973.0,5.189
90.0,860.0,5.19
64.0,659.0,5.191
41.0,357.0,5.192
25.0,89.0,5.193
11.0,-71.0,5.194
-1.0,-177.0,5.195
-3.0,-268.0,5.196
11.0,-306.0,5.197
31.0,-295.0,5.198
33.0,-299.0,5.199
4.0,-344.0,5.2
-30.0,-375.0,5.201
-42.0,-352.0,5.202
-29.0,-321.0,5.203
-8.0,-314.0,5.204
9.0,-307.0,5.205
19.0,-271.0,5.206
19.0,-230.0,5.207
11.0,-209.0,5.208
6.0,-198.0,5.209
6.0,-177.0,5.21
-1.0,-151.0,5.211
-20.0,-128.0,5.212
-29.0,-104.0,5.213
-5.0,-67.0,5.214
36.0,-26.0,5.215
60.0,1.0,5.216
57.0,7.0,5.217
42.0,-3.0,5.218
22.0,-9.0,5.219
-23.0,3.0,5.22
-93.0,18.0,5.221
-140.0,21.0,5.222
-108.0,12.0,5.223
-12.0,10.0,5.224
67.0,21.0,5.225
85.0,28.0,5.226
71.0,29.0,5.227
73.0,32.0,5.228
84.0,47.0,5.229
73.0,65.0,5.23
40.0,76.0,5.231
10.0,77.0,5.232
-4.0,68.0,5.233
-5.0,54.0,5.234
-5.0,40.0,5.235
-17.0,29.0,5.236
-42.0,22.0,5.237
-74.0,10.0,5.238
-84.0,6.0,5.239
-73.0,22.0,5.24
-63.0,45.0,5.241
-64.0,47.0,5.242
-49.0,11.0,5.243
3.0,-47.0,5.244
71.0,-96.0,5.245
116.0,-131.0,5.246
119.0,-170.0,5.247
89.0,-202.0,5.248
53.0,-191.0,5.249
34.0,-122.0,5.25
35.0,-26.0,5.251
32.0,66.0,5.252
13.0,159.0,5.253
-8.0,252.0,5.254
-15.0,314.0,5.255
-12.0,311.0,5.256
-14.0,265.0,5.257
-22.0,195.0,5.258
-34.0,117.0,5.259
-56.0,22.0,5.26
-80.0,-87.0,5.261
-83.0,-179.0,5.262
-61.0,-226.0,5.263
-40.0,-212.0,5.264
-39.0,-142.0,5.265
-39.0,-67.0,5.266
-23.0,-54.0,5.267
-1.0,-110.0,5.268
8.0,-174.0,5.269
0.0,-182.0,5.27
-8.0,-137.0,5.271
-8.0,-69.0,5.272
-2.0,29.0,5.273
0.0,178.0,5.274
-1.0,349.0,5.275
-7.0,467.0,5.276
-12.0,493.0,5.277
-15.0,443.0,5.278
-21.0,366.0,5.279
-23.0,295.0,5.28
-12.0,235.0,5.281
4.0,184.0,5.282
32.0,135.0,5.283
56.0,85.0,5.284
69.0,37.0,5.285
77.0,-8.0,5.286
65.0,-53.0,5.287
54.0,-102.0,5.288
45.0,-149.0,5.289
33.0,-177.0,5.29
14.0,-182.0,5.291
-11.0,-182.0,5.292
-55.0,-199.0,5.293
-87.0,-224.0,5.294
-81.0,-229.0,5.295
-71.0,-207.0,5.296
-48.0,-184.0,5.297
-32.0,-172.0,5.298
-35.0,-158.0,5.299
-10.0,-141.0,5.3
47.0,-119.0,5.301
100.0,-97.0,5.302
142.0,-76.0,5.303
190.0,-57.0,5.304
222.0,-47.0,5.305
197.0,-39.0,5.306
125.0,-37.0,5.307
72.0,-36.0,5.308
51.0,-38.0,5.309
10.0,-42.0,5.31
-66.0,-48.0,5.311
-122.0,-54.0,5.312
-124.0,-54.0,5.313
-104.0,-66.0,5.314
-97.0,-113.0,5.315
-82.0,-167.0,5.316
-41.0,-239.0,5.317
8.0,-292.0,5.318
32.0,-234.0,5.319
27.0,-111.0,5.32
17.0,11.0,5.321
11.0,92.0,5.322
13.0,106.0,5.323
23.0,68.0,5.324
32.0,50.0,5.325
35.0,134.0,5.326
33.0,307.0,5.327
29.0,439.0,5.328
12.0,462.0,5.329
-25.0,433.0,5.33
-69.0,437.0,5.331
-93.0,445.0,5.332
-90.0,383.0,5.333
-68.0,249.0,5.334
-40.0,94.0,5.335
-20.0,-38.0,5.336
-16.0,-110.0,5.337
-24.0,-105.0,5.338
-21.0,-48.0,5.339
-6.0,-12.0,5.34
1.0,-31.0,5.341
-7.0,-47.0,5.342
-10.0,-26.0,5.343
6.0,2.0,5.344
22.0,14.0,5.345
19.0,28.0,5.346
10.0,36.0,5.347
16.0,9.0,5.348
30.0,-55.0,5.349
38.0,-111.0,5.35
43.0,-139.0,5.351
45.0,-153.0,5.352
29.0,-156.0,5.353
-10.0,-145.0,5.354
-50.0,-147.0,5.355
-65.0,-187.0,5.356
-58.0,-221.0,5.357
-46.0,-205.0,5.358
-37.0,-155.0,5.359
-31.0,-128.0,5.36
-21.0,-113.0,5.361
1.0,-69.0,5.362
38.0,-7.0,5.363
68.0,16.0,5.364
77.0,3.0,5.365
74.0,7.0,5.366
77.0,35.0,5.367
81.0,50.0,5.368
79.0,40.0,5.369
78.0,25.0,5.37
76.0,17.0,5.371
52.0,13.0,5.372
5.0,16.0,5.373
-33.0,28.0,5.374
-41.0,31.0,5.375
-43.0,24.0,5.376
-60.0,23.0,5.377
-94.0,25.0,5.378
-120.0,16.0,5.379
-135.0,-2.0,5.38
-139.0,-9.0,5.381
-126.0,-22.0,5.382
-90.0,-118.0,5.383
-54.0,-322.0,5.384
-41.0,-523.0,5.385
-28.0,-580.0,5.386
17.0,-454.0,5.387
87.0,-213.0,5.388
114.0,61.0,5.389
71.0,311.0,5.39
17.0,475.0,5.391
34.0,515.0,5.392
106.0,475.0,5.393
150.0,455.0,5.394
130.0,509.0,5.395
98.0,599.0,5.396
100.0,640.0,5.397
114.0,571.0,5.398
106.0,407.0,5.399
66.0,222.0,5.4
12.0,77.0,5.401
-48.0,-24.0,5.402
-95.0,-122.0,5.403
-104.0,-215.0,5.404
-83.0,-264.0,5.405
-61.0,-259.0,5.406
-56.0,-254.0,5.407
-50.0,-286.0,5.408
-26.0,-325.0,5.409
11.0,-328.0,5.41
50.0,-294.0,5.411
84.0,-256.0,5.412
94.0,-232.0,5.413
72.0,-221.0,5.414
35.0,-220.0,5.415
7.0,-216.0,5.416
-22.0,-197.0,5.417
-82.0,-158.0,5.418
-138.0,-109.0,5.419
-133.0,-56.0,5.42
-78.0,-9.0,5.421
-44.0,31.0,5.422
-56.0,63.0,5.423
-57.0,107.0,5.424
-6.0,175.0,5.425
56.0,237.0,5.426
81.0,254.0,5.427
84.0,225.0,5.428
95.0,182.0,5.429
111.0,147.0,5.43
99.0,119.0,5.431
55.0,91.0,5.432
-1.0,68.0,5.433
-40.0,42.0,5.434
-41.0,0.0,5.435
-19.0,-78.0,5.436
-17.0,-187.0,5.437
-33.0,-319.0,5.438
-12.0,-396.0,5.439
67.0,-344.0,5.44
127.0,-183.0,5.441
97.0,-19.0,5.442
31.0,75.0,5.443
11.0,129.0,5.444
21.0,198.0,5.445
-9.0,269.0,5.446
-72.0,301.0,5.447
-101.0,294.0,5.448
-87.0,263.0,5.449
-71.0,170.0,5.45
-59.0,-35.0,5.451
-26.0,-329.0,5.452
8.0,-603.0,5.453
2.0,-727.0,5.454
-31.0,-640.0,5.455
-42.0,-378.0,5.456
-23.0,-76.0,5.457
-9.0,177.0,5.458
-12.0,326.0,5.459
-17.0,388.0,5.46
-13.0,402.0,5.461
-15.0,417.0,5.462
-22.0,458.0,5.463
-17.0,531.0,5.464
1.0,580.0,5.465
11.0,539.0,5.466
5.0,409.0,5.467
0.0,243.0,5.468
9.0,70.0,5.469
20.0,-111.0,5.47
30.0,-254.0,5.471
39.0,-278.0,5.472
47.0,-191.0,5.473
43.0,-101.0,5.474
31.0,-81.0,5.475
18.0,-92.0,5.476
6.0,-85.0,5.477
-11.0,-87.0,5.478
-29.0,-128.0,5.479
-39.0,-161.0,5.48
-37.0,-148.0,5.481
-27.0,-119.0,5.482
-7.0,-123.0,5.483
29.0,-136.0,5.484
74.0,-128.0,5.485
107.0,-133.0,5.486
112.0,-164.0,5.487
91.0,-170.0,5.488
56.0,-119.0,5.489
21.0,-65.0,5.49
-18.0,-60.0,5.491
-59.0,-77.0,5.492
-89.0,-76.0,5.493
-87.0,-69.0,5.494
-53.0,-67.0,5.495
-10.0,-44.0,5.496
15.0,4.0,5.497
15.0,45.0,5.498
5.0,53.0,5.499
-2.0,49.0,5.5
-6.0,30.0,5.501
-14.0,-42.0,5.502
-21.0,-159.0,5.503
-13.0,-230.0,5.504
17.0,-200.0,5.505
47.0,-144.0,5.506
51.0,-164.0,5.507
30.0,-231.0,5.508
16.0,-223.0,5.509
31.0,-74.0,5.51
51.0,144.0,5.511
55.0,325.0,5.512
46.0,441.0,5.513
42.0,529.0,5.514
37.0,603.0,5.515
16.0,623.0,5.516
-9.0,572.0,5.517
-27.0,463.0,5.518
-34.0,360.0,5.519
-45.0,280.0,5.52
-53.0,194.0,5.521
-46.0,90.0,5.522
-27.0,-18.0,5.523
-14.0,-115.0,5.524
-7.0,-196.0,5.525
16.0,-265.0,5.526
57.0,-321.0,5.527
89.0,-348.0,5.528
83.0,-342.0,5.529
37.0,-316.0,5.53
-16.0,-303.0,5.531
-55.0,-322.0,5.532
-76.0,-362.0,5.533
-89.0,-390.0,5.534
-84.0,-367.0,5.535
-50.0,-270.0,5.536
0.0,-113.0,5.537
32.0,81.0,5.538
34.0,252.0,5.539
18.0,361.0,5.54
5.0,411.0,5.541
-8.0,409.0,5.542
-24.0,327.0,5.543
-32.0,138.0,5.544
-33.0,-123.0,5.545
-38.0,-350.0,5.546
-41.0,-415.0,5.547
-30.0,-271.0,5.548
-13.0,-12.0,5.549
-19.0,198.0,5.55
-44.0,270.0,5.551
-50.0,249.0,5.552
-22.0,201.0,5.553
-14.0,126.0,5.554
-70.0,3.0,5.555
-145.0,-138.0,5.556
-153.0,-246.0,5.557
-77.0,-299.0,5.558
17.0,-251.0,5.559
75.0,-72.0,5.56
123.0,165.0,5.561
205.0,320.0,5.562
293.0,343.0,5.563
311.0,313.0,5.564
237.0,283.0,5.565
135.0,219.0,5.566
70.0,103.0,5.567
48.0,-2.0,5.568
29.0,-57.0,5.569
-4.0,-100.0,5.57
-39.0,-154.0,5.571
-55.0,-185.0,5.572
-52.0,-183.0,5.573
-45.0,-190.0,5.574
-38.0,-215.0,5.575
-28.0,-205.0,5.576
-13.0,-146.0,5.577
4.0,-80.0,5.578
17.0,-39.0,5.579
15.0,4.0,5.58
-2.0,70.0,5.581
-27.0,138.0,5.582
-45.0,180.0,5.583
-46.0,191.0,5.584
-44.0,163.0,5.585
-47.0,74.0,5.586
-54.0,-69.0,5.587
-53.0,-214.0,5.588
-44.0,-317.0,5.589
-35.0,-351.0,5.59
-27.0,-308.0,5.591
-15.0,-197.0,5.592
1.0,-58.0,5.593
9.0,71.0,5.594
2.0,188.0,5.595
-7.0,277.0,5.596
-10.0,287.0,5.597
-12.0,171.0,5.598
-20.0,12.0,5.599
-36.0,-65.0,5.6
-47.0,-25.0,5.601
-34.0,59.0,5.602
4.0,129.0,5.603
51.0,203.0,5.604
77.0,272.0,5.605
77.0,272.0,5.606
68.0,188.0,5.607
60.0,88.0,5.608
42.0,21.0,5.609
9.0,-43.0,5.61
-18.0,-152.0,5.611
-31.0,-306.0,5.612
-42.0,-468.0,5.613
-58.0,-561.0,5.614
-70.0,-494.0,5.615
-62.0,-273.0,5.616
-41.0,-50.0,5.617
-28.0,58.0,5.618
-24.0,76.0,5.619
-19.0,114.0,5.62
5.0,202.0,5.621
34.0,279.0,5.622
42.0,322.0,5.623
18.0,353.0,5.624
-14.0,352.0,5.625
-16.0,284.0,5.626
8.0,172.0,5.627
28.0,80.0,5.628
33.0,39.0,5.629
44.0,45.0,5.63
69.0,92.0,5.631
82.0,156.0,5.632
69.0,191.0,5.633
56.0,176.0,5.634
54.0,140.0,5.635
47.0,95.0,5.636
23.0,33.0,5.637
-2.0,-48.0,5.638
-13.0,-111.0,5.639
-23.0,-151.0,5.64
-29.0,-206.0,5.641
-31.0,-289.0,5.642
-21.0,-382.0,5.643
-10.0,-448.0,5.644
3.0,-445.0,5.645
15.0,-349.0,5.646
23.0,-203.0,5.647
29.0,-95.0,5.648
33.0,-52.0,5.649
38.0,-20.0,5.65
48.0,30.0,5.651
52.0,57.0,5.652
34.0,42.0,5.653
19.0,46.0,5.654
13.0,105.0,5.655
3.0,160.0,5.656
-18.0,160.0,5.657
-40.0,128.0,5.658
-53.0,108.0,5.659
-48.0,75.0,5.66
-43.0,4.0,5.661
-58.0,-66.0,5.662
-86.0,-135.0,5.663
-103.0,-200.0,5.664
-94.0,-254.0,5.665
-59.0,-272.0,5.666
-16.0,-182.0,5.667
21.0,-106.0,5.668
38.0,-69.0,5.669
42.0,-28.0,5.67
39.0,21.0,5.671
36.0,70.0,5.672
32.0,112.0,5.673
29.0,134.0,5.674
31.0,92.0,5.675
32.0,58.0,5.676
21.0,49.0,5.677
-4.0,46.0,5.678
-27.0,47.0,5.679
-42.0,-5.0,5.68
-48.0,-93.0,5.681
-42.0,-110.0,5.682
-22.0,20.0,5.683
2.0,248.0,5.684
12.0,456.0,5.685
7.0,565.0,5.686
2.0,579.0,5.687
-3.0,519.0,5.688
-25.0,389.0,5.689
-49.0,200.0,5.69
-35.0,0.0,5.691
26.0,-142.0,5.692
87.0,-189.0,5.693
96.0,-160.0,5.694
59.0,-115.0,5.695
13.0,-92.0,5.696
-17.0,-83.0,5.697
-33.0,-61.0,5.698
-29.0,-32.0,5.699
-7.0,-25.0,5.7
20.0,-60.0,5.701
31.0,-120.0,5.702
36.0,-188.0,5.703
51.0,-238.0,5.704
65.0,-241.0,5.705
59.0,-195.0,5.706
51.0,-140.0,5.707
68.0,-110.0,5.708
86.0,-106.0,5.709
67.0,-122.0,5.71
18.0,-146.0,5.711
-8.0,-148.0,5.712
-1.0,-95.0,5.713
-7.0,-2.0,5.714
-43.0,79.0,5.715
-75.0,113.0,5.716
-73.0,103.0,5.717
-50.0,47.0,5.718
-33.0,-47.0,5.719
-28.0,-150.0,5.72
-24.0,-231.0,5.721
-17.0,-271.0,5.722
-7.0,-242.0,5.723
-2.0,-100.0,5.724
-2.0,124.0,5.725
-9.0,292.0,5.726
-12.0,303.0,5.727
-10.0,217.0,5.728
-14.0,157.0,5.729
-22.0,153.0,5.73
-24.0,159.0,5.731
-13.0,166.0,5.732
0.0,184.0,5.733
7.0,156.0,5.734
7.0,18.0,5.735
6.0,-164.0,5.736
7.0,-242.0,5.737
9.0,-166.0,5.738
17.0,-22.0,5.739
20.0,81.0,5.74
15.0,138.0,5.741
12.0,193.0,5.742
16.0,218.0,5.743
19.0,172.0,5.744
10.0,99.0,5.745
0.0,76.0,5.746
1.0,97.0,5.747
5.0,89.0,5.748
0.0,25.0,5.749
-4.0,-64.0,5.75
11.0,-154.0,5.751
33.0,-237.0,5.752
40.0,-273.0,5.753
33.0,-229.0,5.754
31.0,-138.0,5.755
37.0,-60.0,5.756
33.0,-7.0,5.757
4.0,45.0,5.758
-32.0,85.0,5.759
-54.0,82.0,5.76
-56.0,43.0,5.761
-42.0,10.0,5.762
-22.0,-1.0,5.763
-11.0,-4.0,5.764
-9.0,-16.0,5.765
-5.0,-65.0,5.766
7.0,-175.0,5.767
21.0,-293.0,5.768
24.0,-305.0,5.769
21.0,-184.0,5.77
29.0,-38.0,5.771
44.0,25.0,5.772
49.0,28.0,5.773
42.0,49.0,5.774
39.0,92.0,5.775
44.0,112.0,5.776
46.0,103.0,5.777
28.0,87.0,5.778
-6.0,71.0,5.779
-33.0,42.0,5.78
-41.0,12.0,5.781
-42.0,19.0,5.782
-59.0,41.0,5.783
-90.0,36.0,5.784
-111.0,-1.0,5.785
-100.0,-36.0,5.786
-63.0,-53.0,5.787
-21.0,-77.0,5.788
9.0,-118.0,5.789
37.0,-144.0,5.79
83.0,-121.0,5.791
139.0,-55.0,5.792
169.0,17.0,5.793
139.0,83.0,5.794
67.0,163.0,5.795
8.0,262.0,5.796
-12.0,344.0,5.797
-19.0,375.0,5.798
-46.0,347.0,5.799
-90.0,282.0,5.8
-112.0,204.0,5.801
-91.0,126.0,5.802
-45.0,45.0,5.803
-11.0,-57.0,5.804
-5.0,-201.0,5.805
-15.0,-359.0,5.806
-17.0,-447.0,5.807
-8.0,-397.0,5.808
-1.0,-239.0,5.809
1.0,-91.0,5.81
9.0,-31.0,5.811
26.0,-46.0,5.812
37.0,-73.0,5.813
35.0,-67.0,5.814
33.0,-24.0,5.815
38.0,35.0,5.816
39.0,75.0,5.817
26.0,76.0,5.818
15.0,52.0,5.819
10.0,39.0,5.82
10.0,61.0,5.821
17.0,108.0,5.822
36.0,136.0,5.823
55.0,118.0,5.824
46.0,68.0,5.825
2.0,30.0,5.826
-41.0,23.0,5.827
-62.0,34.0,5.828
-70.0,27.0,5.829
-74.0,-19.0,5.83
-72.0,-84.0,5.831
-57.0,-135.0,5.832
-41.0,-177.0,5.833
-35.0,-265.0,5.834
-38.0,-403.0,5.835
-34.0,-471.0,5.836
-18.0,-341.0,5.837
11.0,-14.0,5.838
53.0,325.0,5.839
87.0,519.0,5.84
96.0,571.0,5.841
85.0,554.0,5.842
78.0,482.0,5.843
82.0,359.0,5.844
72.0,236.0,5.845
35.0,143.0,5.846
-8.0,46.0,5.847
-27.0,-67.0,5.848
-27.0,-150.0,5.849
-23.0,-186.0,5.85
-22.0,-227.0,5.851
-21.0,-307.0,5.852
-14.0,-397.0,5.853
1.0,-462.0,5.854
23.0,-501.0,5.855
43.0,-492.0,5.856
53.0,-396.0,5.857
47.0,-200.0,5.858
38.0,27.0,5.859
28.0,216.0,5.86
16.0,343.0,5.861
5.0,409.0,5.862
4.0,408.0,5.863
8.0,369.0,5.864
3.0,326.0,5.865
-8.0,279.0,5.866
-6.0,202.0,5.867
3.0,115.0,5.868
-6.0,61.0,5.869
-36.0,41.0,5.87
-61.0,14.0,5.871
-70.0,-40.0,5.872
-76.0,-111.0,5.873
-85.0,-193.0,5.874
-79.0,-292.0,5.875
-63.0,-391.0,5.876
-51.0,-451.0,5.877
-46.0,-464.0,5.878
-28.0,-431.0,5.879
-1.0,-346.0,5.88
18.0,-201.0,5.881
20.0,-11.0,5.882
28.0,162.0,5.883
43.0,264.0,5.884
46.0,297.0,5.885
40.0,301.0,5.886
39.0,310.0,5.887
42.0,332.0,5.888
36.0,357.0,5.889
21.0,370.0,5.89
13.0,354.0,5.891
13.0,297.0,5.892
2.0,205.0,5.893
-18.0,103.0,5.894
-21.0,15.0,5.895
7.0,-51.0,5.896
46.0,-95.0,5.897
74.0,-127.0,5.898
87.0,-141.0,5.899
85.0,-145.0,5.9
69.0,-155.0,5.901
32.0,-170.0,5.902
-8.0,-179.0,5.903
-20.0,-172.0,5.904
0.0,-160.0,5.905
20.0,-157.0,5.906
7.0,-173.0,5.907
-29.0,-198.0,5.908
-48.0,-218.0,5.909
-44.0,-223.0,5.91
-38.0,-199.0,5.911
-37.0,-147.0,5.912
-18.0,-81.0,5.913
23.0,-29.0,5.914
55.0,-7.0,5.915
55.0,3.0,5.916
42.0,26.0,5.917
34.0,76.0,5.918
32.0,139.0,5.919
15.0,183.0,5.92
-12.0,177.0,5.921
-34.0,129.0,5.922
-50.0,54.0,5.923
-68.0,-32.0,5.924
-91.0,-125.0,5.925
-108.0,-197.0,5.926
-108.0,-201.0,5.927
-96.0,-135.0,5.928
-76.0,-75.0,5.929
-57.0,-82.0,5.93
-36.0,-118.0,5.931
-15.0,-105.0,5.932
1.0,-23.0,5.933
14.0,92.0,5.934
29.0,227.0,5.935
53.0,376.0,5.936
75.0,487.0,5.937
81.0,498.0,5.938
77.0,422.0,5.939
68.0,339.0,5.94
57.0,290.0,5.941
45.0,256.0,5.942
40.0,207.0,5.943
44.0,152.0,5.944
44.0,103.0,5.945
38.0,58.0,5.946
41.0,16.0,5.947
53.0,-20.0,5.948
52.0,-71.0,5.949
27.0,-162.0,5.95
1.0,-266.0,5.951
-11.0,-328.0,5.952
-20.0,-323.0,5.953
-31.0,-287.0,5.954
-25.0,-248.0,5.955
5.0,-196.0,5.956
25.0,-120.0,5.957
-3.0,-40.0,5.958
-58.0,-9.0,5.959
-86.0,-46.0,5.96
-79.0,-142.0,5.961
-81.0,-282.0,5.962
-107.0,-423.0,5.963
-112.0,-457.0,5.964
-64.0,-305.0,5.965
1.0,-44.0,5.966
34.0,158.0,5.967
31.0,254.0,5.968
28.0,335.0,5.969
42.0,452.0,5.97
59.0,528.0,5.971
64.0,496.0,5.972
62.0,396.0,5.973
55.0,291.0,5.974
37.0,173.0,5.975
9.0,24.0,5.976
-9.0,-99.0,5.977
-6.0,-157.0,5.978
11.0,-145.0,5.979
27.0,-106.0,5.98
35.0,-84.0,5.981
42.0,-96.0,5.982
47.0,-140.0,5.983
52.0,-180.0,5.984
53.0,-179.0,5.985
54.0,-143.0,5.986
54.0,-110.0,5.987
52.0,-102.0,5.988
47.0,-108.0,5.989
42.0,-110.0,5.99
40.0,-104.0,5.991
36.0,-83.0,5.992
29.0,-47.0,5.993
14.0,-14.0,5.994
-26.0,1.0,5.995
-61.0,14.0,5.996
-83.0,40.0,5.997
-104.0,69.0,5.998
-131.0,84.0,5.999
-166.0,70.0,6.0
-182.0,26.0,6.001
-172.0,-46.0,6.002
-143.0,-135.0,6.003
-108.0,-203.0,6.004
-73.0,-240.0,6.005
-32.0,-296.0,6.006
9.0,-396.0,6.007
41.0,-444.0,6.008
58.0,-289.0,6.009
67.0,62.0,6.01
74.0,415.0,6.011
76.0,598.0,6.012
76.0,636.0,6.013
76.0,661.0,6.014
77.0,701.0,6.015
72.0,682.0,6.016
56.0,572.0,6.017
32.0,387.0,6.018
15.0,194.0,6.019
8.0,25.0,6.02
17.0,-99.0,6.021
39.0,-169.0,6.022
59.0,-216.0,6.023
57.0,-269.0,6.024
33.0,-302.0,6.025
14.0,-288.0,6.026
15.0,-243.0,6.027
20.0,-204.0,6.028
4.0,-171.0,6.029
-20.0,-136.0,6.03
-26.0,-117.0,6.031
-19.0,-124.0,6.032
-20.0,-128.0,6.033
-34.0,-102.0,6.034
-45.0,-73.0,6.035
-44.0,-77.0,6.036
-36.0,-97.0,6.037
-15.0,-106.0,6.038
24.0,-107.0,6.039
56.0,-106.0,6.04
64.0,-96.0,6.041
56.0,-82.0,6.042
54.0,-59.0,6.043
43.0,-42.0,6.044
0.0,-43.0,6.045
-56.0,-22.0,6.046
-72.0,67.0,6.047
-42.0,144.0,6.048
-15.0,182.0,6.049
-23.0,208.0,6.05
-37.0,190.0,6.051
-26.0,165.0,6.052
-8.0,119.0,6.053
-11.0,50.0,6.054
-20.0,-87.0,6.055
-13.0,-199.0,6.056
5.0,-232.0,6.057
11.0,-211.0,6.058
9.0,16.0,6.059
18.0,212.0,6.06
41.0,241.0,6.061
55.0,157.0,6.062
54.0,73.0,6.063
52.0,22.0,6.064
49.0,-20.0,6.065
35.0,-33.0,6.066
13.0,19.0,6.067
-3.0,96.0,6.068
-11.0,128.0,6.069
-20.0,110.0,6.07
-27.0,83.0,6.071
-31.0,42.0,6.072
-42.0,-35.0,6.073
-64.0,-134.0,6.074
-76.0,-208.0,6.075
-55.0,-246.0,6.076
-16.0,-256.0,6.077
12.0,-230.0,6.078
17.0,-159.0,6.079
12.0,-78.0,6.08
11.0,-21.0,6.081
12.0,30.0,6.082
16.0,91.0,6.083
18.0,135.0,6.084
15.0,143.0,6.085
2.0,138.0,6.086
-7.0,153.0,6.087
-7.0,166.0,6.088
-3.0,144.0,6.089
-2.0,101.0,6.09
0.0,72.0,6.091
11.0,44.0,6.092
23.0,-8.0,6.093
29.0,-69.0,6.094
33.0,-90.0,6.095
39.0,-57.0,6.096
40.0,-5.0,6.097
26.0,21.0,6.098
6.0,1.0,6.099
-10.0,-53.0,6.1
-22.0,-95.0,6.101
-38.0,-71.0,6.102
-47.0,-12.0,6.103
-31.0,-3.0,6.104
-2.0,-68.0,6.105
15.0,-125.0,6.106
13.0,-102.0,6.107
20.0,-33.0,6.108
39.0,17.0,6.109
42.0,48.0,6.11
25.0,74.0,6.111
19.0,71.0,6.112
36.0,39.0,6.113
43.0,45.0,6.114
18.0,126.0,6.115
-7.0,218.0,6.116
-3.0,239.0,6.117
6.0,190.0,6.118
-16.0,122.0,6.119
-49.0,64.0,6.12
-39.0,9.0,6.121
14.0,-33.0,6.122
56.0,-56.0,6.123
51.0,-70.0,6.124
22.0,-82.0,6.125
-3.0,-82.0,6.126
-16.0,-76.0,6.127
-23.0,-80.0,6.128
-30.0,-98.0,6.129
-38.0,-123.0,6.13
-43.0,-146.0,6.131
-32.0,-165.0,6.132
1.0,-165.0,6.133
35.0,-142.0,6.134
44.0,-108.0,6.135
24.0,-80.0,6.136
-4.0,-51.0,6.137
-22.0,-24.0,6.138
-22.0,-4.0,6.139
-12.0,12.0,6.14
-13.0,45.0,6.141
-30.0,97.0,6.142
-41.0,134.0,6.143
-20.0,134.0,6.144
18.0,112.0,6.145
31.0,85.0,6.146
-1.0,50.0,6.147
-40.0,11.0,6.148
-39.0,-13.0,6.149
4.0,-17.0,6.15
57.0,-19.0,6.151
80.0,-25.0,6.152
69.0,-19.0,6.153
48.0,0.0,6.154
28.0,12.0,6.155
12.0,6.0,6.156
-4.0,-2.0,6.157
-20.0,-7.0,6.158
-22.0,-12.0,6.159
-16.0,-27.0,6.16
-8.0,-48.0,6.161
4.0,-59.0,6.162
26.0,-65.0,6.163
40.0,-65.0,6.164
36.0,-56.0,6.165
20.0,-39.0,6.166
15.0,-17.0,6.167
13.0,3.0,6.168
-9.0,23.0,6.169
-39.0,42.0,6.17
-51.0,57.0,6.171
-32.0,66.0,6.172
-6.0,69.0,6.173
14.0,63.0,6.174
31.0,52.0,6.175
46.0,37.0,6.176
45.0,13.0,6.177
13.0,-18.0,6.178
-27.0,-36.0,6.179
-53.0,-30.0,6.18
-58.0,-23.0,6.181
-49.0,-42.0,6.182
-27.0,-88.0,6.183
-8.0,-117.0,6.184
-4.0,-91.0,6.185
-17.0,-24.0,6.186
-22.0,47.0,6.187
-5.0,101.0,6.188
23.0,140.0,6.189
41.0,170.0,6.19
45.0,186.0,6.191
47.0,188.0,6.192
43.0,179.0,6.193
30.0,157.0,6.194
18.0,118.0,6.195
20.0,67.0,6.196
34.0,18.0,6.197
40.0,-28.0,6.198
29.0,-64.0,6.199
10.0,-84.0,6.2
-4.0,-90.0,6.201
-15.0,-87.0,6.202
-18.0,-97.0,6.203
-13.0,-125.0,6.204
-3.0,-153.0,6.205
3.0,-161.0,6.206
2.0,-148.0,6.207
-8.0,-124.0,6.208
-37.0,-108.0,6.209
-78.0,-114.0,6.21
-110.0,-138.0,6.211
-123.0,-146.0,6.212
-131.0,-99.0,6.213
-138.0,-14.0,6.214
-124.0,38.0,6.215
-79.0,1.0,6.216
-28.0,-83.0,6.217
9.0,-144.0,6.218
46.0,-108.0,6.219
91.0,10.0,6.22
136.0,132.0,6.221
158.0,199.0,6.222
151.0,231.0,6.223
115.0,289.0,6.224
59.0,378.0,6.225
12.0,424.0,6.226
14.0,374.0,6.227
45.0,265.0,6.228
52.0,162.0,6.229
27.0,70.0,6.23
16.0,-38.0,6.231
38.0,-146.0,6.232
51.0,-192.0,6.233
33.0,-160.0,6.234
10.0,-94.0,6.235
4.0,-39.0,6.236
1.0,-4.0,6.237
-14.0,18.0,6.238
-22.0,25.0,6.239
-21.0,12.0,6.24
-20.0,-19.0,6.241
-26.0,-51.0,6.242
-19.0,-76.0,6.243
1.0,-92.0,6.244
7.0,-101.0,6.245
-11.0,-108.0,6.246
-23.0,-110.0,6.247
-24.0,-103.0,6.248
-28.0,-86.0,6.249
-39.0,-71.0,6.25
-35.0,-73.0,6.251
-27.0,-93.0,6.252
-37.0,-117.0,6.253
-53.0,-122.0,6.254
-46.0,-103.0,6.255
-20.0,-75.0,6.256
2.0,-51.0,6.257
24.0,-36.0,6.258
55.0,-19.0,6.259
74.0,1.0,6.26
55.0,29.0,6.261
22.0,56.0,6.262
11.0,80.0,6.263
12.0,98.0,6.264
-8.0,100.0,6.265
-37.0,100.0,6.266
-34.0,90.0,6.267
0.0,75.0,6.268
33.0,41.0,6.269
55.0,12.0,6.27
81.0,-4.0,6.271
108.0,-17.0,6.272
106.0,-17.0,6.273
61.0,-14.0,6.274
-5.0,-7.0,6.275
-61.0,0.0,6.276
-94.0,7.0,6.277
-102.0,15.0,6.278
-98.0,29.0,6.279
-98.0,39.0,6.28
-93.0,36.0,6.281
-46.0,27.0,6.282
37.0,13.0,6.283
94.0,1.0,6.284
85.0,-10.0,6.285
50.0,-17.0,6.286
47.0,-13.0,6.287
54.0,1.0,6.288
28.0,17.0,6.289
-12.0,28.0,6.29
-10.0,34.0,6.291
27.0,34.0,6.292
53.0,23.0,6.293
63.0,1.0,6.294
83.0,-20.0,6.295
77.0,-31.0,6.296
3.0,-25.0,6.297
-108.0,-16.0,6.298
-153.0,-16.0,6.299
-111.0,-22.0,6.3
-60.0,-27.0,6.301
-40.0,-26.0,6.302
-6.0,-33.0,6.303
54.0,-52.0,6.304
73.0,-65.0,6.305
22.0,-58.0,6.306
-29.0,-46.0,6.307
-34.0,-46.0,6.308
-25.0,-54.0,6.309
-28.0,-51.0,6.31
-7.0,-37.0,6.311
52.0,-19.0,6.312
97.0,-4.0,6.313
84.0,10.0,6.314
48.0,27.0,6.315
31.0,49.0,6.316
22.0,71.0,6.317
3.0,90.0,6.318
-5.0,102.0,6.319
-11.0,110.0,6.32
-7.0,117.0,6.321
-5.0,122.0,6.322
-17.0,112.0,6.323
-29.0,89.0,6.324
-42.0,63.0,6.325
-53.0,43.0,6.326
-57.0,21.0,6.327
-55.0,-10.0,6.328
-34.0,-37.0,6.329
-15.0,-50.0,6.33
-4.0,-59.0,6.331
8.0,-77.0,6.332
21.0,-98.0,6.333
31.0,-106.0,6.334
30.0,-93.0,6.335
26.0,-69.0,6.336
16.0,-47.0,6.337
6.0,-30.0,6.338
-4.0,-14.0,6.339
-11.0,-4.0,6.34
-9.0,-14.0,6.341
0.0,-30.0,6.342
18.0,-66.0,6.343
35.0,-91.0,6.344
40.0,-83.0,6.345
34.0,-58.0,6.346
22.0,12.0,6.347
12.0,72.0,6.348
0.0,98.0,6.349
-5.0,119.0,6.35
-1.0,119.0,6.351
8.0,113.0,6.352
11.0,84.0,6.353
8.0,60.0,6.354
6.0,54.0,6.355
14.0,44.0,6.356
19.0,24.0,6.357
13.0,0.0,6.358
-1.0,-24.0,6.359
-18.0,-47.0,6.36
-27.0,-65.0,6.361
-29.0,-60.0,6.362
-27.0,-39.0,6.363
-26.0,-27.0,6.364
-30.0,-30.0,6.365
-29.0,-32.0,6.366
-4.0,-35.0,6.367
38.0,-53.0,6.368
65.0,-67.0,6.369
57.0,-35.0,6.37
29.0,32.0,6.371
12.0,85.0,6.372
1.0,90.0,6.373
-14.0,68.0,6.374
-28.0,44.0,6.375
-31.0,10.0,6.376
-31.0,-35.0,6.377
-47.0,-70.0,6.378
-69.0,-53.0,6.379
-68.0,-4.0,6.38
-35.0,37.0,6.381
7.0,53.0,6.382
39.0,47.0,6.383
53.0,27.0,6.384
53.0,-1.0,6.385
48.0,-25.0,6.386
46.0,-28.0,6.387
51.0,-16.0,6.388
48.0,-12.0,6.389
31.0,-35.0,6.39
18.0,-85.0,6.391
18.0,-140.0,6.392
25.0,-167.0,6.393
24.0,-145.0,6.394
13.0,-82.0,6.395
6.0,1.0,6.396
6.0,83.0,6.397
5.0,149.0,6.398
2.0,168.0,6.399
-12.0,128.0,6.4
-32.0,70.0,6.401
-42.0,46.0,6.402
-33.0,44.0,6.403
-23.0,18.0,6.404
-30.0,-36.0,6.405
-38.0,-71.0,6.406
-18.0,-61.0,6.407
15.0,-34.0,6.408
29.0,-7.0,6.409
24.0,23.0,6.41
18.0,60.0,6.411
17.0,73.0,6.412
11.0,52.0,6.413
-3.0,31.0,6.414
-11.0,31.0,6.415
-16.0,30.0,6.416
-23.0,-7.0,6.417
-33.0,-80.0,6.418
-27.0,-130.0,6.419
-8.0,-114.0,6.42
8.0,-56.0,6.421
18.0,1.0,6.422
27.0,29.0,6.423
30.0,39.0,6.424
13.0,55.0,6.425
-8.0,79.0,6.426
-3.0,92.0,6.427
31.0,80.0,6.428
53.0,48.0,6.429
38.0,16.0,6.43
8.0,-2.0,6.431
-1.0,-5.0,6.432
10.0,-4.0,6.433
15.0,-13.0,6.434
26.0,-28.0,6.435
74.0,-32.0,6.436
142.0,-25.0,6.437
161.0,-25.0,6.438
73.0,-36.0,6.439
-87.0,-44.0,6.44
-219.0,-38.0,6.441
-270.0,-35.0,6.442
-250.0,-39.0,6.443
-196.0,-41.0,6.444
-131.0,-33.0,6.445
-57.0,-26.0,6.446
26.0,-28.0,6.447
106.0,-36.0,6.448
152.0,-57.0,6.449
139.0,-74.0,6.45
91.0,-73.0,6.451
58.0,-67.0,6.452
56.0,-48.0,6.453
56.0,-23.0,6.454
33.0,14.0,6.455
-14.0,53.0,6.456
-64.0,93.0,6.457
-99.0,133.0,6.458
-86.0,169.0,6.459
-25.0,178.0,6.46
29.0,152.0,6.461
32.0,107.0,6.462
14.0,55.0,6.463
23.0,5.0,6.464
51.0,-30.0,6.465
50.0,-39.0,6.466
25.0,-30.0,6.467
16.0,-25.0,6.468
26.0,-35.0,6.469
33.0,-51.0,6.47
34.0,-59.0,6.471
44.0,-53.0,6.472
60.0,-40.0,6.473
57.0,-30.0,6.474
37.0,-27.0,6.475
18.0,-32.0,6.476
3.0,-32.0,6.477
-19.0,-29.0,6.478
-42.0,-18.0,6.479
-49.0,-8.0,6.48
-46.0,-5.0,6.481
-40.0,-1.0,6.482
-25.0,4.0,6.483
0.0,8.0,6.484
15.0,8.0,6.485
8.0,10.0,6.486
-4.0,20.0,6.487
0.0,34.0,6.488
11.0,38.0,6.489
5.0,20.0,6.49
-11.0,-23.0,6.491
-20.0,-78.0,6.492
-15.0,-109.0,6.493
-6.0,-84.0,6.494
-3.0,-8.0,6.495
-9.0,72.0,6.496
-15.0,113.0,6.497
-12.0,110.0,6.498
0.0,82.0,6.499
12.0,46.0,6.5
16.0,8.0,6.501
22.0,-9.0,6.502
32.0,0.0,6.503
31.0,17.0,6.504
11.0,17.0,6.505
-14.0,0.0,6.506
-30.0,-24.0,6.507
-50.0,-57.0,6.508
-77.0,-96.0,6.509
-89.0,-113.0,6.51
-65.0,-83.0,6.511
-25.0,-30.0,6.512
-7.0,-20.0,6.513
-14.0,-80.0,6.514
-18.0,-148.0,6.515
-21.0,-138.0,6.516
-37.0,-37.0,6.517
-59.0,-278.0,6.518
-55.0,-194.0,6.519
-40.0,-124.0,6.52
9.0,-101.0,6.521
52.0,-72.0,6.522
74.0,-29.0,6.523
92.0,16.0,6.524
90.0,69.0,6.525
81.0,112.0,6.526
51.0,106.0,6.527
33.0,103.0,6.528
51.0,103.0,6.529
76.0,92.0,6.53
121.0,48.0,6.531
138.0,11.0,6.532
64.0,-14.0,6.533
-1.0,-35.0,6.534
-41.0,-26.0,6.535
-75.0,-23.0,6.536
-90.0,-52.0,6.537
-110.0,-104.0,6.538
-128.0,-75.0,6.539
-93.0,-51.0,6.54
-38.0,-43.0,6.541
-10.0,-33.0,6.542
7.0,-18.0,6.543
44.0,-2.0,6.544
81.0,16.0,6.545
87.0,31.0,6.546
76.0,29.0,6.547
74.0,28.0,6.548
75.0,28.0,6.549
50.0,24.0,6.55
2.0,9.0,6.551
-38.0,-4.0,6.552
-53.0,-13.0,6.553
-48.0,-20.0,6.554
-39.0,-17.0,6.555
-40.0,-16.0,6.556
-40.0,-26.0,6.557
-32.0,-35.0,6.558
-23.0,-30.0,6.559
-42.0,-10.0,6.56
-76.0,4.0,6.561
-73.0,5.0,6.562
-16.0,-7.0,6.563
44.0,-11.0,6.564
54.0,1.0,6.565
39.0,18.0,6.566
45.0,25.0,6.567
72.0,26.0,6.568
82.0,32.0,6.569
69.0,39.0,6.57
56.0,32.0,6.571
47.0,10.0,6.572
33.0,-6.0,6.573
10.0,-13.0,6.574
-13.0,-17.0,6.575
-30.0,-18.0,6.576
-41.0,-12.0,6.577
-42.0,-7.0,6.578
-42.0,-13.0,6.579
-55.0,-38.0,6.58
-76.0,-85.0,6.581
-86.0,-139.0,6.582
-79.0,-165.0,6.583
-67.0,-117.0,6.584
-52.0,-12.0,6.585
-17.0,68.0,6.586
32.0,76.0,6.587
66.0,70.0,6.588
69.0,122.0,6.589
60.0,203.0,6.59
57.0,233.0,6.591
52.0,206.0,6.592
33.0,177.0,6.593
5.0,156.0,6.594
-13.0,108.0,6.595
-15.0,37.0,6.596
-3.0,-7.0,6.597
12.0,-30.0,6.598
22.0,-60.0,6.599
29.0,-83.0,6.6
34.0,-86.0,6.601
45.0,-86.0,6.602
58.0,-76.0,6.603
61.0,-67.0,6.604
52.0,-62.0,6.605
46.0,-58.0,6.606
50.0,-57.0,6.607
46.0,-54.0,6.608
18.0,-48.0,6.609
-20.0,-41.0,6.61
-35.0,-34.0,6.611
-19.0,-25.0,6.612
-3.0,-13.0,6.613
-12.0,-2.0,6.614
-27.0,3.0,6.615
-24.0,8.0,6.616
-7.0,9.0,6.617
2.0,10.0,6.618
0.0,0.0,6.619
-8.0,-11.0,6.62
-20.0,-12.0,6.621
-33.0,-10.0,6.622
-31.0,-12.0,6.623
-1.0,-18.0,6.624
34.0,-15.0,6.625
45.0,-7.0,6.626
34.0,-5.0,6.627
24.0,-12.0,6.628
19.0,-22.0,6.629
3.0,-29.0,6.63
-14.0,-31.0,6.631
-18.0,-30.0,6.632
-14.0,-29.0,6.633
-17.0,-43.0,6.634
-18.0,-89.0,6.635
-2.0,-175.0,6.636
17.0,-271.0,6.637
14.0,-279.0,6.638
0.0,-117.0,6.639
-5.0,57.0,6.64
-14.0,269.0,6.641
-62.0,426.0,6.642
-116.0,416.0,6.643
-108.0,385.0,6.644
-32.0,293.0,6.645
29.0,192.0,6.646
30.0,62.0,6.647
14.0,-36.0,6.648
24.0,-41.0,6.649
37.0,-47.0,6.65
28.0,-58.0,6.651
20.0,-68.0,6.652
37.0,-73.0,6.653
53.0,-72.0,6.654
47.0,-53.0,6.655
38.0,-39.0,6.656
47.0,-41.0,6.657
57.0,-46.0,6.658
53.0,-59.0,6.659
39.0,-59.0,6.66
23.0,-50.0,6.661
-3.0,-43.0,6.662
-35.0,-49.0,6.663
-53.0,-58.0,6.664
-52.0,-59.0,6.665
-44.0,-70.0,6.666
-35.0,-107.0,6.667
-22.0,-141.0,6.668
-18.0,-125.0,6.669
-30.0,-54.0,6.67
-37.0,15.0,6.671
-15.0,33.0,6.672
11.0,26.0,6.673
12.0,44.0,6.674
3.0,86.0,6.675
15.0,112.0,6.676
37.0,118.0,6.677
39.0,113.0,6.678
27.0,98.0,6.679
27.0,74.0,6.68
37.0,23.0,6.681
42.0,-20.0,6.682
42.0,-38.0,6.683
49.0,-53.0,6.684
55.0,-53.0,6.685
47.0,-50.0,6.686
31.0,-36.0,6.687
23.0,-26.0,6.688
21.0,-30.0,6.689
14.0,-27.0,6.69
6.0,-5.0,6.691
-1.0,10.0,6.692
-14.0,4.0,6.693
-40.0,-1.0,6.694
-66.0,-1.0,6.695
-72.0,-2.0,6.696
-62.0,-10.0,6.697
-56.0,-16.0,6.698
-60.0,-11.0,6.699
-61.0,-18.0,6.7
-41.0,-40.0,6.701
-8.0,-48.0,6.702
17.0,-34.0,6.703
25.0,-18.0,6.704
26.0,-12.0,6.705
37.0,-8.0,6.706
59.0,0.0,6.707
76.0,8.0,6.708
75.0,7.0,6.709
58.0,6.0,6.71
28.0,10.0,6.711
-2.0,16.0,6.712
-15.0,19.0,6.713
2.0,15.0,6.714
36.0,5.0,6.715
53.0,-9.0,6.716
39.0,-29.0,6.717
9.0,-63.0,6.718
-8.0,-76.0,6.719
-20.0,-40.0,6.72
-48.0,15.0,6.721
-80.0,25.0,6.722
-76.0,-61.0,6.723
-33.0,-202.0,6.724
-2.0,-315.0,6.725
-9.0,-339.0,6.726
-20.0,-256.0,6.727
-12.0,-80.0,6.728
-7.0,137.0,6.729
-27.0,315.0,6.73
-43.0,402.0,6.731
-32.0,415.0,6.732
-15.0,378.0,6.733
-15.0,280.0,6.734
-14.0,140.0,6.735
7.0,46.0,6.736
22.0,65.0,6.737
1.0,157.0,6.738
-36.0,210.0,6.739
-49.0,168.0,6.74
-27.0,67.0,6.741
2.0,-27.0,6.742
30.0,-92.0,6.743
59.0,-123.0,6.744
81.0,-130.0,6.745
80.0,-128.0,6.746
65.0,-131.0,6.747
57.0,-132.0,6.748
56.0,-117.0,6.749
45.0,-97.0,6.75
22.0,-83.0,6.751
0.0,-75.0,6.752
-11.0,-71.0,6.753
-15.0,-77.0,6.754
-8.0,-88.0,6.755
10.0,-85.0,6.756
26.0,-63.0,6.757
32.0,-39.0,6.758
27.0,-24.0,6.759
12.0,-10.0,6.76
-20.0,8.0,6.761
-65.0,28.0,6.762
-89.0,37.0,6.763
-60.0,42.0,6.764
4.0,51.0,6.765
61.0,60.0,6.766
81.0,59.0,6.767
65.0,42.0,6.768
24.0,21.0,6.769
-29.0,4.0,6.77
-84.0,-5.0,6.771
-137.0,-10.0,6.772
-189.0,-15.0,6.773
-221.0,-16.0,6.774
-190.0,-13.0,6.775
-80.0,-3.0,6.776
47.0,7.0,6.777
127.0,5.0,6.778
146.0,-18.0,6.779
155.0,-76.0,6.78
181.0,-156.0,6.781
190.0,-207.0,6.782
152.0,-180.0,6.783
108.0,-77.0,6.784
97.0,42.0,6.785
90.0,127.0,6.786
46.0,173.0,6.787
-10.0,207.0,6.788
-31.0,223.0,6.789
-25.0,199.0,6.79
-27.0,143.0,6.791
-34.0,90.0,6.792
-12.0,54.0,6.793
20.0,19.0,6.794
7.0,-36.0,6.795
-59.0,-101.0,6.796
-113.0,-155.0,6.797
-119.0,-202.0,6.798
-101.0,-235.0,6.799
-107.0,-249.0,6.8
-119.0,-226.0,6.801
-90.0,-139.0,6.802
-19.0,7.0,6.803
35.0,162.0,6.804
31.0,263.0,6.805
-7.0,287.0,6.806
-28.0,265.0,6.807
-20.0,228.0,6.808
-3.0,184.0,6.809
8.0,133.0,6.81
15.0,79.0,6.811
23.0,27.0,6.812
31.0,-26.0,6.813
33.0,-76.0,6.814
31.0,-102.0,6.815
29.0,-93.0,6.816
32.0,-68.0,6.817
43.0,-50.0,6.818
55.0,-39.0,6.819
53.0,-24.0,6.82
36.0,-10.0,6.821
21.0,-9.0,6.822
23.0,-28.0,6.823
29.0,-75.0,6.824
17.0,-166.0,6.825
-15.0,-280.0,6.826
-46.0,-332.0,6.827
-59.0,-246.0,6.828
-57.0,-63.0,6.829
-49.0,96.0,6.83
-37.0,172.0,6.831
-18.0,200.0,6.832
6.0,221.0,6.833
32.0,213.0,6.834
54.0,167.0,6.835
65.0,125.0,6.836
65.0,110.0,6.837
59.0,94.0,6.838
59.0,56.0,6.839
61.0,21.0,6.84
63.0,6.0,6.841
62.0,-10.0,6.842
62.0,-44.0,6.843
56.0,-68.0,6.844
32.0,-64.0,6.845
-13.0,-52.0,6.846
-69.0,-59.0,6.847
-120.0,-71.0,6.848
-155.0,-71.0,6.849
-168.0,-75.0,6.85
-163.0,-116.0,6.851
-149.0,-218.0,6.852
-137.0,-358.0,6.853
-124.0,-457.0,6.854
-104.0,-419.0,6.855
-74.0,-232.0,6.856
-38.0,-23.0,6.857
-3.0,110.0,6.858
23.0,172.0,6.859
29.0,252.0,6.86
24.0,367.0,6.861
23.0,442.0,6.862
35.0,436.0,6.863
64.0,400.0,6.864
95.0,375.0,6.865
113.0,333.0,6.866
97.0,248.0,6.867
63.0,144.0,6.868
68.0,52.0,6.869
152.0,-26.0,6.87
261.0,-95.0,6.871
299.0,-136.0,6.872
248.0,-143.0,6.873
192.0,-143.0,6.874
183.0,-152.0,6.875
173.0,-162.0,6.876
108.0,-171.0,6.877
1.0,-192.0,6.878
-84.0,-230.0,6.879
-133.0,-302.0,6.88
-161.0,-417.0,6.881
-169.0,-514.0,6.882
-144.0,-484.0,6.883
-111.0,-286.0,6.884
-102.0,-20.0,6.885
-105.0,203.0,6.886
-90.0,369.0,6.887
-62.0,490.0,6.888
-47.0,518.0,6.889
-43.0,431.0,6.89
-30.0,305.0,6.891
-8.0,235.0,6.892
5.0,206.0,6.893
7.0,151.0,6.894
11.0,75.0,6.895
20.0,19.0,6.896
21.0,-19.0,6.897
5.0,-69.0,6.898
-16.0,-107.0,6.899
-37.0,-104.0,6.9
-53.0,-92.0,6.901
-64.0,-117.0,6.902
-54.0,-179.0,6.903
-46.0,-232.0,6.904
-43.0,-257.0,6.905
-34.0,-257.0,6.906
-9.0,-227.0,6.907
11.0,-179.0,6.908
15.0,-137.0,6.909
25.0,-96.0,6.91
51.0,-31.0,6.911
74.0,51.0,6.912
83.0,114.0,6.913
85.0,145.0,6.914
63.0,172.0,6.915
45.0,199.0,6.916
37.0,206.0,6.917
32.0,189.0,6.918
33.0,172.0,6.919
26.0,157.0,6.92
2.0,115.0,6.921
-31.0,57.0,6.922
-63.0,15.0,6.923
-93.0,1.0,6.924
-121.0,-5.0,6.925
-128.0,-17.0,6.926
-105.0,-38.0,6.927
-56.0,-76.0,6.928
-4.0,-128.0,6.929
36.0,-161.0,6.93
50.0,-166.0,6.931
44.0,-168.0,6.932
38.0,-192.0,6.933
39.0,-210.0,6.934
35.0,-195.0,6.935
17.0,-172.0,6.936
4.0,-158.0,6.937
16.0,-108.0,6.938
43.0,37.0,6.939
55.0,253.0,6.94
42.0,415.0,6.941
19.0,454.0,6.942
1.0,396.0,6.943
-21.0,315.0,6.944
-44.0,230.0,6.945
-56.0,125.0,6.946
-34.0,-3.0,6.947
8.0,-146.0,6.948
36.0,-298.0,6.949
30.0,-426.0,6.95
7.0,-489.0,6.951
-12.0,-475.0,6.952
-16.0,-404.0,6.953
-13.0,-263.0,6.954
-3.0,-30.0,6.955
12.0,222.0,6.956
24.0,360.0,6.957
29.0,353.0,6.958
38.0,309.0,6.959
56.0,316.0,6.96
75.0,318.0,6.961
83.0,242.0,6.962
79.0,122.0,6.963
70.0,41.0,6.964
52.0,9.0,6.965
17.0,-11.0,6.966
-23.0,-20.0,6.967
-40.0,2.0,6.968
-23.0,25.0,6.969
10.0,12.0,6.97
19.0,-10.0,6.971
-9.0,-6.0,6.972
-36.0,10.0,6.973
-26.0,3.0,6.974
15.0,-24.0,6.975
41.0,-43.0,6.976
32.0,-53.0,6.977
-1.0,-74.0,6.978
-44.0,-105.0,6.979
-81.0,-141.0,6.98
-98.0,-202.0,6.981
-90.0,-299.0,6.982
-77.0,-384.0,6.983
-71.0,-361.0,6.984
-59.0,-210.0,6.985
-31.0,-25.0,6.986
-8.0,68.0,6.987
-3.0,52.0,6.988
-3.0,20.0,6.989
-2.0,65.0,6.99
-21.0,178.0,6.991
-53.0,279.0,6.992
-57.0,319.0,6.993
-13.0,305.0,6.994
27.0,259.0,6.995
25.0,193.0,6.996
16.0,119.0,6.997
49.0,44.0,6.998
126.0,-12.0,6.999
179.0,-48.0,7.0
169.0,-68.0,7.001
118.0,-74.0,7.002
73.0,-86.0,7.003
53.0,-111.0,7.004
43.0,-138.0,7.005
26.0,-155.0,7.006
0.0,-177.0,7.007
-17.0,-207.0,7.008
-18.0,-222.0,7.009
-11.0,-214.0,7.01
-1.0,-219.0,7.011
3.0,-247.0,7.012
-3.0,-234.0,7.013
-18.0,-126.0,7.014
-33.0,36.0,7.015
-34.0,175.0,7.016
-25.0,275.0,7.017
-15.0,384.0,7.018
-2.0,477.0,7.019
14.0,488.0,7.02
27.0,404.0,7.021
27.0,297.0,7.022
18.0,211.0,7.023
11.0,133.0,7.024
2.0,52.0,7.025
-21.0,-10.0,7.026
-64.0,-48.0,7.027
-110.0,-86.0,7.028
-133.0,-140.0,7.029
-124.0,-229.0,7.03
-98.0,-399.0,7.031
-77.0,-654.0,7.032
-72.0,-855.0,7.033
-77.0,-806.0,7.034
-80.0,-468.0,7.035
-75.0,-45.0,7.036
-61.0,221.0,7.037
-30.0,315.0,7.038
17.0,356.0,7.039
70.0,432.0,7.04
106.0,504.0,7.041
117.0,528.0,7.042
101.0,519.0,7.043
75.0,506.0,7.044
54.0,463.0,7.045
44.0,358.0,7.046
40.0,215.0,7.047
43.0,81.0,7.048
51.0,-22.0,7.049
66.0,-100.0,7.05
73.0,-152.0,7.051
57.0,-176.0,7.052
24.0,-180.0,7.053
-4.0,-171.0,7.054
-22.0,-152.0,7.055
-41.0,-137.0,7.056
-54.0,-144.0,7.057
-37.0,-179.0,7.058
9.0,-216.0,7.059
45.0,-238.0,7.06
45.0,-258.0,7.061
30.0,-311.0,7.062
37.0,-397.0,7.063
64.0,-428.0,7.064
73.0,-299.0,7.065
55.0,-31.0,7.066
37.0,220.0,7.067
40.0,327.0,7.068
48.0,314.0,7.069
35.0,276.0,7.07
5.0,234.0,7.071
-14.0,162.0,7.072
-8.0,90.0,7.073
-3.0,71.0,7.074
-22.0,75.0,7.075
-57.0,44.0,7.076
-71.0,-11.0,7.077
-53.0,-47.0,7.078
-31.0,-47.0,7.079
-31.0,-42.0,7.08
-39.0,-38.0,7.081
-26.0,-16.0,7.082
4.0,0.0,7.083
30.0,-11.0,7.084
35.0,-35.0,7.085
27.0,-40.0,7.086
16.0,-47.0,7.087
0.0,-81.0,7.088
-20.0,-120.0,7.089
-38.0,-129.0,7.09
-46.0,-130.0,7.091
-42.0,-171.0,7.092
-32.0,-254.0,7.093
-23.0,-327.0,7.094
-16.0,-336.0,7.095
-5.0,-255.0,7.096
4.0,-95.0,7.097
-8.0,125.0,7.098
-49.0,341.0,7.099
-101.0,490.0,7.1
-189.0,550.0,7.101
-252.0,538.0,7.102
-241.0,459.0,7.103
-200.0,332.0,7.104
-71.0,204.0,7.105
41.0,111.0,7.106
101.0,36.0,7.107
172.0,-53.0,7.108
272.0,-161.0,7.109
327.0,-269.0,7.11
244.0,-371.0,7.111
166.0,-461.0,7.112
108.0,-487.0,7.113
66.0,-388.0,7.114
72.0,-178.0,7.115
71.0,53.0,7.116
47.0,209.0,7.117
34.0,261.0,7.118
51.0,239.0,7.119
32.0,210.0,7.12
-34.0,160.0,7.121
-134.0,125.0,7.122
-254.0,139.0,7.123
-342.0,158.0,7.124
-317.0,191.0,7.125
-163.0,207.0,7.126
17.0,167.0,7.127
123.0,120.0,7.128
169.0,51.0,7.129
219.0,-19.0,7.13
261.0,-94.0,7.131
230.0,-184.0,7.132
135.0,-317.0,7.133
58.0,-435.0,7.134
36.0,-505.0,7.135
20.0,-533.0,7.136
-16.0,-429.0,7.137
-37.0,-320.0,7.138
-21.0,-197.0,7.139
-13.0,-48.0,7.14
-29.0,148.0,7.141
-40.0,343.0,7.142
-37.0,459.0,7.143
-35.0,495.0,7.144
-34.0,499.0,7.145
-29.0,484.0,7.146
-15.0,424.0,7.147
-4.0,313.0,7.148
-3.0,192.0,7.149
-2.0,94.0,7.15
0.0,7.0,7.151
-1.0,-85.0,7.152
-12.0,-184.0,7.153
