Deltoid,Bicep,Time,Bandpass_Filtered_Deltoid,Bandpass_Filtered_Bicep,RMS_Deltoid,RMS_Bicep
6.0,0.0,0.0,,,,
6.0,0.0,0.001,,,,
1.0,3.0,0.002,,,,
-1.0,6.0,0.003,,,,
2.0,4.0,0.004,,,,
5.0,1.0,0.005,,,,
4.0,0.0,0.006,,,,
1.0,0.0,0.006999999999999999,,,,
1.0,1.0,0.008,,,,
1.0,1.0,0.009000000000000001,,,,
0.0,2.0,0.01,,,,
2.0,1.0,0.011000000000000001,,,,
3.0,-2.0,0.012,,,,
4.0,-3.0,0.013000000000000001,,,,
-1.0,-3.0,0.013999999999999999,,,,
-3.0,-4.0,0.015,,,,
-4.0,-5.0,0.016,,,,
-3.0,-9.0,0.017,,,,
-1.0,-7.0,0.018000000000000002,,,,
3.0,-5.0,0.019,,,,
7.0,-4.0,0.02,,,,
8.0,-1.0,0.021,,,,
2.0,5.0,0.022000000000000002,,,,
1.0,6.0,0.023,,,,
3.0,1.0,0.024,,,,
3.0,-3.0,0.025,,,,
0.0,-1.0,0.026000000000000002,,,,
-3.0,1.0,0.027000000000000003,,,,
-1.0,2.0,0.027999999999999997,,,,
0.0,1.0,0.028999999999999998,,,,
-1.0,-1.0,0.03,,,,
-1.0,-2.0,0.031,,,,
0.0,-4.0,0.032,,,,
2.0,-3.0,0.033,,,,
1.0,-1.0,0.034,,,,
0.0,-1.0,0.035,,,,
-1.0,-1.0,0.036000000000000004,,,,
-3.0,-4.0,0.037000000000000005,,,,
-3.0,-3.0,0.038,,,,
4.0,-2.0,0.039,,,,
12.0,0.0,0.04,,,,
11.0,1.0,0.040999999999999995,,,,
5.0,5.0,0.042,,,,
4.0,5.0,0.043,,,,
8.0,0.0,0.044000000000000004,,,,
8.0,-3.0,0.045,,,,
5.0,-2.0,0.046,,,,
4.0,0.0,0.047,,,,
7.0,1.0,0.048,,,,
9.0,-1.0,0.049,,,,
5.0,-1.0,0.05,,,,
1.0,1.0,0.051,,,,
0.0,3.0,0.052000000000000005,,,,
2.0,4.0,0.053,,,,
3.0,0.0,0.054000000000000006,,,,
2.0,-3.0,0.055,,,,
-2.0,-6.0,0.055999999999999994,,,,
-6.0,-8.0,0.057,,,,
-4.0,-6.0,0.057999999999999996,,,,
4.0,-2.0,0.059000000000000004,,,,
11.0,1.0,0.06,,,,
10.0,0.0,0.061,,,,
2.0,-1.0,0.062,,,,
0.0,-2.0,0.063,,,,
4.0,-1.0,0.064,,,,
5.0,0.0,0.065,,,,
2.0,0.0,0.066,,,,
0.0,1.0,0.067,,,,
0.0,1.0,0.068,,,,
-1.0,0.0,0.069,,,,
-3.0,-2.0,0.07,,,,
-3.0,-1.0,0.071,,,,
0.0,0.0,0.07200000000000001,,,,
3.0,2.0,0.073,,,,
1.0,0.0,0.07400000000000001,,,,
-1.0,-2.0,0.075,,,,
-5.0,-2.0,0.076,,,,
-7.0,-5.0,0.077,,,,
-5.0,-6.0,0.078,,,,
2.0,-6.0,0.079,,,,
11.0,-3.0,0.08,,,,
8.0,1.0,0.081,,,,
0.0,4.0,0.08199999999999999,,,,
-2.0,6.0,0.083,,,,
2.0,3.0,0.084,,,,
3.0,0.0,0.085,,,,
0.0,-3.0,0.086,,,,
0.0,-3.0,0.087,,,,
4.0,-1.0,0.08800000000000001,,,,
3.0,1.0,0.08900000000000001,,,,
0.0,0.0,0.09,,,,
0.0,-1.0,0.091,,,,
2.0,-1.0,0.092,,,,
4.0,1.0,0.09300000000000001,,,,
2.0,1.0,0.094,,,,
2.0,-1.0,0.095,,,,
2.0,-3.0,0.096,,,,
-1.0,-5.0,0.09699999999999999,,,,
-3.0,-4.0,0.098,,,,
2.0,-3.0,0.099,,,,
10.0,-2.0,0.1,,,,
10.0,-1.0,0.10099999999999999,,,,
4.0,1.0,0.102,,,,
2.0,0.0,0.10300000000000001,,,,
5.0,-1.0,0.10400000000000001,,,,
4.0,-2.0,0.105,,,,
0.0,-1.0,0.106,,,,
0.0,1.0,0.107,,,,
3.0,1.0,0.10800000000000001,,,,
4.0,0.0,0.109,,,,
0.0,-1.0,0.11,,,,
-1.0,-1.0,0.111,,,,
0.0,0.0,0.11199999999999999,,,,
0.0,0.0,0.113,,,,
0.0,-1.0,0.114,,,,
0.0,-2.0,0.115,,,,
-1.0,-2.0,0.11599999999999999,,,,
-5.0,-4.0,0.11699999999999999,,,,
-5.0,-5.0,0.11800000000000001,,,,
1.0,-4.0,0.11900000000000001,,,,
10.0,-2.0,0.12,,,,
9.0,3.0,0.121,,,,
5.0,7.0,0.122,,,,
4.0,6.0,0.12300000000000001,,,,
6.0,1.0,0.124,,,,
3.0,-1.0,0.125,,,,
0.0,0.0,0.126,,,,
0.0,2.0,0.127,,,,
2.0,1.0,0.128,,,,
4.0,-1.0,0.129,,,,
4.0,-1.0,0.13,,,,
4.0,-1.0,0.131,,,,
3.0,-2.0,0.132,,,,
0.0,0.0,0.133,,,,
-3.0,0.0,0.134,,,,
-1.0,0.0,0.135,,,,
0.0,-4.0,0.136,,,,
-1.0,-9.0,0.13699999999999998,,,,
-3.0,-7.0,0.138,,,,
3.0,-3.0,0.139,,,,
12.0,0.0,0.14,,,,
12.0,2.0,0.141,,,,
3.0,2.0,0.142,,,,
0.0,2.0,0.14300000000000002,,,,
4.0,-1.0,0.14400000000000002,,,,
7.0,-2.0,0.145,,,,
2.0,0.0,0.146,,,,
-2.0,0.0,0.147,,,,
0.0,-2.0,0.14800000000000002,,,,
4.0,-5.0,0.149,,,,
4.0,-2.0,0.15,,,,
1.0,0.0,0.151,,,,
3.0,-1.0,0.152,,,,
9.0,-2.0,0.153,,,,
10.0,-3.0,0.154,,,,
4.0,-1.0,0.155,,,,
-4.0,0.0,0.156,,,,
-6.0,-4.0,0.157,,,,
-3.0,-4.0,0.158,,,,
2.0,-1.0,0.159,,,,
9.0,4.0,0.16,,,,
12.0,6.0,0.161,,,,
10.0,5.0,0.162,,,,
3.0,4.0,0.163,,,,
0.0,0.0,0.16399999999999998,,,,
3.0,-2.0,0.165,,,,
5.0,-2.0,0.166,,,,
2.0,0.0,0.16699999999999998,,,,
0.0,0.0,0.168,,,,
0.0,-3.0,0.16899999999999998,,,,
3.0,-6.0,0.17,,,,
3.0,-4.0,0.171,,,,
0.0,0.0,0.172,,,,
-1.0,1.0,0.17300000000000001,,,,
-1.0,-1.0,0.174,,,,
0.0,-2.0,0.175,,,,
-3.0,0.0,0.17600000000000002,,,,
-3.0,-3.0,0.177,,,,
0.0,-6.0,0.17800000000000002,,,,
7.0,-4.0,0.179,,,,
11.0,1.0,0.18,,,,
8.0,5.0,0.18100000000000002,,,,
3.0,3.0,0.182,,,,
2.0,0.0,0.183,,,,
7.0,-1.0,0.184,,,,
8.0,0.0,0.185,,,,
2.0,0.0,0.18600000000000003,,,,
-3.0,-2.0,0.187,,,,
-1.0,-3.0,0.188,,,,
3.0,-2.0,0.18899999999999997,,,,
4.0,-3.0,0.19,,,,
2.0,-2.0,0.191,,,,
1.0,-2.0,0.192,,,,
2.0,0.0,0.193,,,,
2.0,-2.0,0.19399999999999998,,,,
0.0,-2.0,0.195,,,,
-3.0,-4.0,0.196,,,,
-5.0,-7.0,0.19699999999999998,,,,
-3.0,-8.0,0.198,,,,
4.0,-6.0,0.19899999999999998,,,,
12.0,0.0,0.2,,,,
13.0,5.0,0.201,,,,
6.0,7.0,0.20199999999999999,,,,
1.0,7.0,0.203,,,,
4.0,4.0,0.204,,,,
6.0,0.0,0.205,,,,
4.0,-2.0,0.20600000000000002,,,,
0.0,-2.0,0.207,,,,
0.0,1.0,0.20800000000000002,,,,
2.0,3.0,0.209,,,,
0.0,1.0,0.21,,,,
-1.0,0.0,0.21100000000000002,,,,
2.0,0.0,0.212,,,,
6.0,3.0,0.213,,,,
4.0,3.0,0.214,,,,
0.0,0.0,0.215,,,,
-3.0,-3.0,0.21600000000000003,,,,
-5.0,-6.0,0.217,,,,
-4.0,-5.0,0.218,,,,
-1.0,-3.0,0.21899999999999997,,,,
7.0,0.0,0.22,,,,
9.0,-1.0,0.221,,,,
6.0,-2.0,0.222,,,,
3.0,0.0,0.223,,,,
5.0,0.0,0.22399999999999998,,,,
7.0,-1.0,0.225,,,,
2.0,-4.0,0.226,,,,
0.0,-4.0,0.22699999999999998,,,,
2.0,0.0,0.228,,,,
5.0,1.0,0.22899999999999998,,,,
2.0,2.0,0.23,,,,
-1.0,1.0,0.231,,,,
1.0,1.0,0.23199999999999998,,,,
5.0,3.0,0.233,,,,
3.0,3.0,0.23399999999999999,,,,
-2.0,0.0,0.235,,,,
-5.0,-1.0,0.23600000000000002,,,,
-3.0,-4.0,0.237,,,,
0.0,-6.0,0.23800000000000002,,,,
2.0,-4.0,0.239,,,,
6.0,-2.0,0.24,,,,
10.0,0.0,0.24100000000000002,,,,
10.0,2.0,0.242,,,,
9.0,0.0,0.243,,,,
9.0,-3.0,0.244,,,,
7.0,-4.0,0.245,,,,
3.0,-1.0,0.24600000000000002,,,,
-1.0,0.0,0.247,,,,
-1.0,-2.0,0.248,,,,
3.0,-3.0,0.249,,,,
4.0,-1.0,0.25,,,,
2.0,0.0,0.251,,,,
-1.0,0.0,0.252,,,,
-1.0,0.0,0.253,,,,
-1.0,-1.0,0.254,,,,
0.0,-3.0,0.255,,,,
0.0,-3.0,0.256,,,,
-3.0,-6.0,0.257,,,,
-4.0,-6.0,0.258,,,,
4.0,-4.0,0.259,,,,
13.0,-1.0,0.26,,,,
13.0,3.0,0.261,,,,
6.0,5.0,0.262,,,,
1.0,6.0,0.263,,,,
2.0,3.0,0.264,,,,
4.0,-1.0,0.265,,,,
2.0,-3.0,0.266,,,,
3.0,-2.0,0.267,,,,
5.0,1.0,0.268,,,,
4.0,3.0,0.26899999999999996,,,,
-2.0,3.0,0.27,,,,
-4.0,1.0,0.271,,,,
-3.0,-1.0,0.272,,,,
0.0,0.0,0.273,,,,
-1.0,-3.0,0.27399999999999997,,,,
-1.0,-3.0,0.275,,,,
-1.0,-4.0,0.276,,,,
-4.0,-6.0,0.27699999999999997,,,,
-5.0,-6.0,0.278,,,,
-2.0,-6.0,0.27899999999999997,,,,
3.0,-2.0,0.28,,,,
5.0,3.0,0.281,,,,
4.0,7.0,0.282,,,,
4.0,4.0,0.28300000000000003,,,,
8.0,-1.0,0.284,,,,
10.0,-2.0,0.285,,,,
4.0,0.0,0.28600000000000003,,,,
0.0,1.0,0.287,,,,
2.0,0.0,0.28800000000000003,,,,
5.0,-1.0,0.289,,,,
5.0,0.0,0.29,,,,
3.0,-1.0,0.29100000000000004,,,,
1.0,-1.0,0.292,,,,
3.0,0.0,0.293,,,,
2.0,0.0,0.294,,,,
1.0,-2.0,0.295,,,,
-4.0,-4.0,0.29600000000000004,,,,
-4.0,-7.0,0.297,,,,
-1.0,-6.0,0.298,,,,
4.0,-3.0,0.299,,,,
7.0,0.0,0.3,,,,
5.0,4.0,0.301,,,,
2.0,6.0,0.302,,,,
0.0,1.0,0.303,,,,
1.0,-4.0,0.304,,,,
4.0,-5.0,0.305,,,,
6.0,-1.0,0.306,,,,
5.0,1.0,0.307,,,,
3.0,1.0,0.308,,,,
3.0,0.0,0.309,,,,
4.0,0.0,0.31,,,,
3.0,2.0,0.311,,,,
2.0,0.0,0.312,,,,
4.0,1.0,0.313,,,,
6.0,0.0,0.314,,,,
4.0,-3.0,0.315,,,,
-3.0,-5.0,0.316,,,,
-8.0,-6.0,0.317,,,,
-5.0,-4.0,0.318,,,,
1.0,0.0,0.319,,,,
5.0,1.0,0.32,,,,
5.0,4.0,0.321,,,,
2.0,6.0,0.322,,,,
3.0,3.0,0.32299999999999995,,,,
6.0,0.0,0.324,,,,
8.0,-1.0,0.325,,,,
7.0,0.0,0.326,,,,
4.0,-1.0,0.327,,,,
2.0,-3.0,0.32799999999999996,,,,
2.0,0.0,0.32899999999999996,,,,
1.0,1.0,0.33,,,,
3.0,0.0,0.331,,,,
3.0,-3.0,0.332,,,,
2.0,-2.0,0.33299999999999996,,,,
-1.0,0.0,0.33399999999999996,,,,
-1.0,-1.0,0.335,,,,
-1.0,-4.0,0.336,,,,
-3.0,-8.0,0.337,,,,
-5.0,-8.0,0.33799999999999997,,,,
0.0,-5.0,0.33899999999999997,,,,
10.0,-2.0,0.34,,,,
10.0,4.0,0.341,,,,
1.0,6.0,0.342,,,,
-2.0,3.0,0.34299999999999997,,,,
4.0,-1.0,0.344,,,,
10.0,-2.0,0.345,,,,
5.0,1.0,0.34600000000000003,,,,
0.0,4.0,0.34700000000000003,,,,
2.0,2.0,0.348,,,,
5.0,-2.0,0.349,,,,
3.0,-4.0,0.35,,,,
0.0,-3.0,0.35100000000000003,,,,
0.0,0.0,0.35200000000000004,,,,
1.0,2.0,0.353,,,,
0.0,1.0,0.354,,,,
0.0,0.0,0.355,,,,
0.0,-2.0,0.35600000000000004,,,,
-3.0,-3.0,0.35700000000000004,,,,
-6.0,-4.0,0.358,,,,
-4.0,-4.0,0.359,,,,
6.0,-2.0,0.36,,,,
11.0,1.0,0.361,,,,
5.0,3.0,0.36200000000000004,,,,
-1.0,0.0,0.363,,,,
0.0,-1.0,0.364,,,,
6.0,2.0,0.365,,,,
4.0,3.0,0.366,,,,
-1.0,0.0,0.36700000000000005,,,,
-1.0,-4.0,0.368,,,,
1.0,-2.0,0.369,,,,
2.0,2.0,0.37,,,,
2.0,1.0,0.371,,,,
2.0,-3.0,0.37200000000000005,,,,
4.0,-3.0,0.373,,,,
3.0,-1.0,0.374,,,,
1.0,-2.0,0.375,,,,
0.0,-5.0,0.376,,,,
-1.0,-9.0,0.377,,,,
-1.0,-9.0,0.37799999999999995,,,,
4.0,-7.0,0.379,,,,
12.0,0.0,0.38,,,,
12.0,5.0,0.381,,,,
4.0,6.0,0.382,,,,
2.0,2.0,0.38299999999999995,,,,
5.0,-1.0,0.384,,,,
8.0,1.0,0.385,,,,
5.0,4.0,0.386,,,,
4.0,0.0,0.387,,,,
4.0,-2.0,0.38799999999999996,,,,
0.0,-2.0,0.389,,,,
-6.0,2.0,0.39,,,,
-5.0,4.0,0.391,,,,
2.0,2.0,0.392,,,,
8.0,1.0,0.39299999999999996,,,,
3.0,0.0,0.39399999999999996,,,,
-2.0,-3.0,0.395,,,,
-4.0,-9.0,0.396,,,,
-5.0,-13.0,0.397,,,,
-6.0,-8.0,0.39799999999999996,,,,
0.0,-2.0,0.39899999999999997,,,,
8.0,1.0,0.4,,,,
10.0,3.0,0.401,,,,
3.0,4.0,0.402,,,,
0.0,3.0,0.40299999999999997,,,,
5.0,0.0,0.40399999999999997,,,,
9.0,-1.0,0.405,,,,
6.0,2.0,0.406,,,,
3.0,6.0,0.40700000000000003,,,,
3.0,3.0,0.408,,,,
2.0,-2.0,0.409,,,,
0.0,-3.0,0.41,,,,
0.0,-2.0,0.41100000000000003,,,,
3.0,-1.0,0.41200000000000003,,,,
3.0,0.0,0.413,,,,
-1.0,0.0,0.414,,,,
-1.0,0.0,0.415,,,,
0.0,-2.0,0.41600000000000004,,,,
-2.0,-6.0,0.41700000000000004,,,,
-4.0,-6.0,0.418,,,,
0.0,-4.0,0.419,,,,
9.0,-4.0,0.42,,,,
11.0,-2.0,0.42100000000000004,,,,
6.0,4.0,0.42200000000000004,,,,
4.0,5.0,0.423,,,,
9.0,0.0,0.424,,,,
10.0,-3.0,0.425,,,,
6.0,-1.0,0.426,,,,
4.0,1.0,0.42700000000000005,,,,
5.0,0.0,0.428,,,,
5.0,-2.0,0.429,,,,
0.0,0.0,0.43,,,,
-1.0,3.0,0.431,,,,
2.0,0.0,0.43200000000000005,,,,
7.0,-3.0,0.433,,,,
6.0,-6.0,0.434,,,,
2.0,-4.0,0.435,,,,
-2.0,-2.0,0.436,,,,
-4.0,-5.0,0.43700000000000006,,,,
-3.0,-5.0,0.43799999999999994,,,,
2.0,-2.0,0.439,,,,
9.0,1.0,0.44,,,,
11.0,2.0,0.441,,,,
5.0,2.0,0.442,,,,
-1.0,0.0,0.44299999999999995,,,,
-3.0,-2.0,0.444,,,,
-3.0,-1.0,0.445,,,,
-2.0,4.0,0.446,,,,
0.0,5.0,0.447,,,,
1.0,1.0,0.44799999999999995,,,,
2.0,-5.0,0.449,,,,
2.0,-5.0,0.45,,,,
2.0,-1.0,0.451,,,,
2.0,2.0,0.452,,,,
2.0,4.0,0.45299999999999996,,,,
-1.0,2.0,0.45399999999999996,,,,
-2.0,1.0,0.455,,,,
-6.0,-1.0,0.456,,,,
-11.0,-7.0,0.457,,,,
-10.0,-7.0,0.45799999999999996,,,,
-1.0,-4.0,0.45899999999999996,,,,
8.0,1.0,0.46,,,,
7.0,6.0,0.461,,,,
3.0,9.0,0.462,,,,
4.0,6.0,0.46299999999999997,,,,
6.0,0.0,0.46399999999999997,,,,
3.0,-2.0,0.465,,,,
-1.0,0.0,0.466,,,,
2.0,1.0,0.467,,,,
6.0,0.0,0.46799999999999997,,,,
5.0,-3.0,0.469,,,,
1.0,-2.0,0.47,,,,
0.0,0.0,0.47100000000000003,,,,
4.0,-2.0,0.47200000000000003,,,,
8.0,-3.0,0.473,,,,
7.0,-4.0,0.474,,,,
3.0,-3.0,0.475,,,,
-1.0,-1.0,0.47600000000000003,,,,
-6.0,-4.0,0.47700000000000004,,,,
-7.0,-7.0,0.478,,,,
0.0,-7.0,0.479,,,,
13.0,-7.0,0.48,,,,
17.0,-3.0,0.48100000000000004,,,,
10.0,1.0,0.48200000000000004,,,,
2.0,2.0,0.483,,,,
2.0,0.0,0.484,,,,
7.0,-2.0,0.485,,,,
7.0,0.0,0.486,,,,
1.0,1.0,0.48700000000000004,,,,
-1.0,0.0,0.488,,,,
1.0,-1.0,0.489,,,,
2.0,0.0,0.49,,,,
1.0,-1.0,0.491,,,,
-1.0,-1.0,0.49200000000000005,,,,
2.0,2.0,0.493,,,,
3.0,4.0,0.494,,,,
0.0,0.0,0.495,,,,
-4.0,-5.0,0.496,,,,
-4.0,-8.0,0.49700000000000005,,,,
-2.0,-2.0,0.498,,,,
2.0,2.0,0.499,,,,
8.0,0.0,0.5,,,,
10.0,0.0,0.501,,,,
8.0,1.0,0.502,,,,
4.0,1.0,0.503,,,,
3.0,-2.0,0.504,,,,
4.0,-2.0,0.505,,,,
6.0,0.0,0.506,,,,
5.0,2.0,0.507,,,,
5.0,1.0,0.508,,,,
5.0,0.0,0.509,,,,
1.0,1.0,0.51,,,,
-2.0,1.0,0.511,,,,
0.0,1.0,0.512,,,,
5.0,1.0,0.513,,,,
4.0,0.0,0.514,,,,
0.0,-4.0,0.515,,,,
-2.0,-7.0,0.516,,,,
-2.0,-9.0,0.517,,,,
-3.0,-5.0,0.518,,,,
-3.0,-3.0,0.519,,,,
-1.0,-4.0,0.52,,,,
2.0,-4.0,0.521,,,,
1.0,-2.0,0.522,,,,
0.0,-2.0,0.523,,,,
0.0,-3.0,0.524,,,,
2.0,-1.0,0.525,,,,
0.0,3.0,0.526,,,,
0.0,5.0,0.527,,,,
4.0,3.0,0.528,,,,
6.0,1.0,0.529,,,,
3.0,2.0,0.53,,,,
-1.0,2.0,0.531,,,,
0.0,-1.0,0.532,,,,
3.0,-2.0,0.5329999999999999,,,,
4.0,-2.0,0.534,,,,
1.0,-2.0,0.535,,,,
-1.0,-4.0,0.536,,,,
-6.0,-8.0,0.537,,,,
-6.0,-6.0,0.5379999999999999,,,,
1.0,-1.0,0.539,,,,
10.0,1.0,0.54,,,,
12.0,1.0,0.541,,,,
6.0,1.0,0.542,,,,
5.0,3.0,0.5429999999999999,,,,
8.0,3.0,0.544,,,,
7.0,0.0,0.545,,,,
1.0,0.0,0.546,,,,
0.0,1.0,0.547,,,,
6.0,2.0,0.5479999999999999,,,,
9.0,-1.0,0.5489999999999999,,,,
4.0,-4.0,0.55,,,,
2.0,-4.0,0.551,,,,
5.0,-4.0,0.552,,,,
10.0,-2.0,0.5529999999999999,,,,
8.0,-3.0,0.5539999999999999,,,,
3.0,-4.0,0.555,,,,
-1.0,-8.0,0.556,,,,
-3.0,-13.0,0.557,,,,
-3.0,-11.0,0.5579999999999999,,,,
1.0,-4.0,0.5589999999999999,,,,
7.0,0.0,0.56,,,,
9.0,1.0,0.561,,,,
4.0,1.0,0.562,,,,
2.0,2.0,0.563,,,,
3.0,2.0,0.564,,,,
1.0,0.0,0.565,,,,
-3.0,0.0,0.5660000000000001,,,,
-5.0,3.0,0.5670000000000001,,,,
-4.0,4.0,0.568,,,,
-3.0,3.0,0.569,,,,
-2.0,4.0,0.57,,,,
-1.0,5.0,0.5710000000000001,,,,
1.0,2.0,0.5720000000000001,,,,
3.0,0.0,0.573,,,,
-1.0,1.0,0.574,,,,
-7.0,3.0,0.575,,,,
-11.0,2.0,0.5760000000000001,,,,
-12.0,-3.0,0.5770000000000001,,,,
-10.0,-4.0,0.578,,,,
-3.0,-1.0,0.579,,,,
5.0,1.0,0.58,,,,
10.0,1.0,0.581,,,,
7.0,1.0,0.5820000000000001,,,,
4.0,0.0,0.583,,,,
5.0,-1.0,0.584,,,,
5.0,-1.0,0.585,,,,
2.0,0.0,0.586,,,,
1.0,0.0,0.5870000000000001,,,,
2.0,-3.0,0.588,,,,
4.0,-3.0,0.589,,,,
4.0,2.0,0.59,,,,
4.0,3.0,0.591,,,,
3.0,0.0,0.5920000000000001,,,,
3.0,-1.0,0.593,,,,
3.0,-1.0,0.594,,,,
3.0,0.0,0.595,,,,
0.0,-5.0,0.596,,,,
-4.0,-12.0,0.597,,,,
-5.0,-11.0,0.598,,,,
3.0,-4.0,0.599,,,,
14.0,1.0,0.6,,,,
12.0,1.0,0.601,,,,
3.0,0.0,0.602,,,,
1.0,-2.0,0.603,,,,
6.0,-5.0,0.604,,,,
7.0,-5.0,0.605,,,,
0.0,-1.0,0.606,,,,
0.0,1.0,0.607,,,,
7.0,0.0,0.608,,,,
12.0,-4.0,0.609,,,,
9.0,-5.0,0.61,,,,
4.0,-2.0,0.611,,,,
4.0,-3.0,0.612,,,,
4.0,-2.0,0.613,,,,
1.0,-3.0,0.614,,,,
0.0,-2.0,0.615,,,,
-3.0,-4.0,0.616,,,,
-5.0,-8.0,0.617,,,,
-5.0,-7.0,0.618,,,,
0.0,-5.0,0.619,,,,
9.0,-2.0,0.62,,,,
8.0,0.0,0.621,,,,
1.0,3.0,0.622,,,,
1.0,5.0,0.623,,,,
7.0,4.0,0.624,,,,
8.0,1.0,0.625,,,,
3.0,-1.0,0.626,,,,
2.0,-1.0,0.627,,,,
7.0,0.0,0.628,,,,
9.0,1.0,0.629,,,,
3.0,3.0,0.63,,,,
2.0,2.0,0.631,,,,
4.0,-1.0,0.632,,,,
8.0,0.0,0.633,,,,
4.0,1.0,0.634,,,,
0.0,0.0,0.635,,,,
-5.0,-1.0,0.636,,,,
-10.0,-5.0,0.637,,,,
-10.0,-4.0,0.638,,,,
0.0,0.0,0.639,,,,
11.0,0.0,0.64,,,,
12.0,0.0,0.6409999999999999,,,,
4.0,2.0,0.642,,,,
2.0,3.0,0.643,,,,
7.0,1.0,0.644,,,,
9.0,-2.0,0.645,,,,
5.0,0.0,0.6459999999999999,,,,
1.0,5.0,0.647,,,,
2.0,5.0,0.648,,,,
3.0,-1.0,0.649,,,,
1.0,-5.0,0.65,,,,
0.0,-2.0,0.6509999999999999,,,,
0.0,-1.0,0.652,,,,
2.0,-2.0,0.653,,,,
2.0,-4.0,0.654,,,,
2.0,-4.0,0.655,,,,
0.0,0.0,0.6559999999999999,,,,
-6.0,-2.0,0.657,,,,
-8.0,-4.0,0.6579999999999999,,,,
-4.0,-6.0,0.659,,,,
3.0,-5.0,0.66,,,,
3.0,-1.0,0.6609999999999999,,,,
-1.0,4.0,0.662,,,,
-2.0,6.0,0.6629999999999999,,,,
3.0,3.0,0.664,,,,
6.0,1.0,0.665,,,,
4.0,1.0,0.6659999999999999,,,,
-1.0,2.0,0.667,,,,
-2.0,0.0,0.6679999999999999,,,,
0.0,-3.0,0.669,,,,
3.0,-3.0,0.67,,,,
4.0,-1.0,0.6709999999999999,,,,
2.0,1.0,0.672,,,,
1.0,1.0,0.6729999999999999,,,,
0.0,-3.0,0.674,,,,
-1.0,-6.0,0.675,,,,
-4.0,-7.0,0.6759999999999999,,,,
-6.0,-8.0,0.677,,,,
-2.0,-8.0,0.6779999999999999,,,,
6.0,-7.0,0.679,,,,
10.0,-5.0,0.68,,,,
7.0,-2.0,0.6809999999999999,,,,
3.0,1.0,0.682,,,,
4.0,3.0,0.6829999999999999,,,,
7.0,0.0,0.684,,,,
7.0,-2.0,0.685,,,,
4.0,-1.0,0.6859999999999999,,,,
1.0,4.0,0.687,,,,
0.0,3.0,0.688,,,,
0.0,-2.0,0.6890000000000001,,,,
1.0,-5.0,0.69,,,,
2.0,-1.0,0.691,,,,
2.0,0.0,0.6920000000000001,,,,
1.0,-1.0,0.693,,,,
-2.0,-2.0,0.6940000000000001,,,,
-4.0,0.0,0.695,,,,
-5.0,2.0,0.696,,,,
-4.0,-5.0,0.6970000000000001,,,,
-1.0,-9.0,0.698,,,,
3.0,-7.0,0.6990000000000001,,,,
7.0,-2.0,0.7,,,,
11.0,1.0,0.701,,,,
9.0,0.0,0.7020000000000001,,,,
7.0,-1.0,0.703,,,,
4.0,0.0,0.7040000000000001,,,,
4.0,0.0,0.705,,,,
8.0,-1.0,0.706,,,,
9.0,0.0,0.7070000000000001,,,,
9.0,2.0,0.708,,,,
6.0,5.0,0.7090000000000001,,,,
4.0,6.0,0.71,,,,
5.0,5.0,0.711,,,,
7.0,3.0,0.7120000000000001,,,,
6.0,1.0,0.713,,,,
2.0,-1.0,0.7140000000000001,,,,
0.0,-3.0,0.715,,,,
-1.0,-2.0,0.716,,,,
-2.0,-4.0,0.7170000000000001,,,,
-2.0,-3.0,0.718,,,,
-1.0,-2.0,0.7190000000000001,,,,
4.0,-1.0,0.72,,,,
8.0,0.0,0.721,,,,
6.0,3.0,0.722,,,,
3.0,3.0,0.723,,,,
3.0,0.0,0.7240000000000001,,,,
6.0,-2.0,0.725,,,,
5.0,-2.0,0.726,,,,
3.0,0.0,0.727,,,,
3.0,-1.0,0.728,,,,
2.0,0.0,0.7290000000000001,,,,
1.0,0.0,0.73,,,,
1.0,0.0,0.731,,,,
3.0,-2.0,0.732,,,,
6.0,-2.0,0.733,,,,
5.0,-3.0,0.7340000000000001,,,,
-2.0,-3.0,0.735,,,,
-5.0,-5.0,0.736,,,,
-5.0,-7.0,0.737,,,,
-2.0,-6.0,0.738,,,,
0.0,-4.0,0.7390000000000001,,,,
3.0,-2.0,0.74,,,,
4.0,0.0,0.741,,,,
4.0,3.0,0.742,,,,
3.0,2.0,0.743,,,,
3.0,-2.0,0.7440000000000001,,,,
3.0,-3.0,0.745,,,,
2.0,1.0,0.746,,,,
-1.0,2.0,0.747,,,,
0.0,2.0,0.748,,,,
4.0,2.0,0.7490000000000001,,,,
5.0,3.0,0.75,,,,
2.0,0.0,0.7509999999999999,,,,
0.0,-2.0,0.752,,,,
1.0,1.0,0.753,,,,
3.0,5.0,0.754,,,,
4.0,3.0,0.755,,,,
1.0,-4.0,0.7559999999999999,,,,
-2.0,-9.0,0.757,,,,
-3.0,-5.0,0.758,,,,
1.0,0.0,0.759,,,,
10.0,-1.0,0.76,,,,
12.0,-3.0,0.7609999999999999,,,,
7.0,0.0,0.762,,,,
4.0,6.0,0.763,,,,
7.0,3.0,0.764,,,,
9.0,-1.0,0.765,,,,
5.0,-1.0,0.7659999999999999,,,,
0.0,2.0,0.767,,,,
-1.0,-1.0,0.768,,,,
0.0,-4.0,0.769,,,,
-2.0,0.0,0.77,,,,
-1.0,4.0,0.7709999999999999,,,,
4.0,2.0,0.772,,,,
8.0,-2.0,0.773,,,,
3.0,-4.0,0.774,,,,
-3.0,-2.0,0.775,,,,
-5.0,-2.0,0.7759999999999999,,,,
-5.0,-6.0,0.777,,,,
-6.0,-9.0,0.778,,,,
-2.0,-5.0,0.779,,,,
6.0,-1.0,0.78,,,,
7.0,0.0,0.7809999999999999,,,,
0.0,2.0,0.782,,,,
-3.0,2.0,0.7829999999999999,,,,
1.0,1.0,0.784,,,,
5.0,0.0,0.785,,,,
2.0,-2.0,0.7859999999999999,,,,
-2.0,-2.0,0.787,,,,
0.0,-2.0,0.7879999999999999,,,,
5.0,-2.0,0.789,,,,
2.0,-3.0,0.79,,,,
-2.0,-2.0,0.7909999999999999,,,,
-1.0,-1.0,0.792,,,,
5.0,-1.0,0.7929999999999999,,,,
6.0,-1.0,0.794,,,,
4.0,-1.0,0.795,,,,
0.0,-1.0,0.7959999999999999,,,,
-3.0,-4.0,0.797,,,,
-3.0,-4.0,0.7979999999999999,,,,
3.0,-1.0,0.799,,,,
10.0,0.0,0.8,,,,
10.0,0.0,0.8009999999999999,,,,
4.0,2.0,0.802,,,,
3.0,5.0,0.8029999999999999,,,,
10.0,4.0,0.804,,,,
12.0,1.0,0.805,,,,
6.0,-2.0,0.8059999999999999,,,,
2.0,-1.0,0.807,,,,
4.0,1.0,0.8079999999999999,,,,
7.0,1.0,0.809,,,,
3.0,1.0,0.81,,,,
1.0,1.0,0.8109999999999999,,,,
2.0,2.0,0.812,,,,
5.0,2.0,0.813,,,,
0.0,-2.0,0.8140000000000001,,,,
-3.0,-4.0,0.815,,,,
-7.0,-3.0,0.816,,,,
-7.0,-1.0,0.8170000000000001,,,,
-6.0,0.0,0.818,,,,
-2.0,-3.0,0.8190000000000001,,,,
5.0,-4.0,0.82,,,,
7.0,-2.0,0.821,,,,
2.0,2.0,0.8220000000000001,,,,
-1.0,2.0,0.823,,,,
3.0,0.0,0.8240000000000001,,,,
7.0,1.0,0.825,,,,
4.0,4.0,0.826,,,,
1.0,2.0,0.8270000000000001,,,,
1.0,-2.0,0.828,,,,
1.0,-2.0,0.8290000000000001,,,,
-1.0,1.0,0.83,,,,
0.0,-1.0,0.831,,,,
4.0,-5.0,0.8320000000000001,,,,
7.0,-5.0,0.833,,,,
1.0,-2.0,0.8340000000000001,,,,
-2.0,-2.0,0.835,,,,
-3.0,-6.0,0.836,,,,
-2.0,-9.0,0.8370000000000001,,,,
-2.0,-6.0,0.838,,,,
1.0,-2.0,0.8390000000000001,,,,
9.0,2.0,0.84,,,,
11.0,5.0,0.841,,,,
7.0,8.0,0.8420000000000001,,,,
5.0,4.0,0.843,,,,
9.0,0.0,0.8440000000000001,,,,
11.0,0.0,0.845,,,,
7.0,0.0,0.846,,,,
1.0,-2.0,0.847,,,,
0.0,-4.0,0.848,,,,
1.0,-2.0,0.8490000000000001,,,,
4.0,4.0,0.85,,,,
4.0,5.0,0.851,,,,
4.0,0.0,0.852,,,,
3.0,-2.0,0.853,,,,
1.0,-1.0,0.8540000000000001,,,,
-1.0,-2.0,0.855,,,,
-3.0,-6.0,0.856,,,,
-4.0,-10.0,0.857,,,,
-3.0,-5.0,0.858,,,,
-1.0,0.0,0.8590000000000001,,,,
3.0,1.0,0.86,,,,
3.0,0.0,0.861,,,,
1.0,1.0,0.862,,,,
2.0,0.0,0.863,,,,
7.0,0.0,0.8640000000000001,,,,
9.0,0.0,0.865,,,,
4.0,4.0,0.866,,,,
-2.0,6.0,0.867,,,,
-2.0,3.0,0.868,,,,
1.0,0.0,0.8690000000000001,,,,
4.0,0.0,0.87,,,,
1.0,0.0,0.871,,,,
-3.0,-2.0,0.872,,,,
-1.0,-3.0,0.873,,,,
1.0,-4.0,0.8740000000000001,,,,
1.0,-2.0,0.875,,,,
-3.0,-1.0,0.8759999999999999,,,,
-5.0,-5.0,0.877,,,,
-4.0,-7.0,0.878,,,,
3.0,-4.0,0.879,,,,
10.0,-1.0,0.88,,,,
12.0,1.0,0.8809999999999999,,,,
11.0,2.0,0.882,,,,
10.0,2.0,0.883,,,,
10.0,1.0,0.884,,,,
7.0,0.0,0.885,,,,
2.0,0.0,0.8859999999999999,,,,
0.0,1.0,0.887,,,,
-1.0,-1.0,0.888,,,,
0.0,-2.0,0.889,,,,
1.0,-2.0,0.89,,,,
2.0,-2.0,0.8909999999999999,,,,
3.0,-2.0,0.892,,,,
3.0,-1.0,0.893,,,,
1.0,-3.0,0.894,,,,
-1.0,-3.0,0.895,,,,
-2.0,-4.0,0.8959999999999999,,,,
-2.0,-5.0,0.897,,,,
-1.0,-4.0,0.898,,,,
3.0,-1.0,0.899,,,,
8.0,3.0,0.9,,,,
9.0,4.0,0.9009999999999999,,,,
6.0,5.0,0.902,,,,
5.0,2.0,0.903,,,,
7.0,0.0,0.904,,,,
7.0,0.0,0.905,,,,
2.0,1.0,0.9059999999999999,,,,
0.0,0.0,0.907,,,,
2.0,-4.0,0.9079999999999999,,,,
4.0,-3.0,0.909,,,,
0.0,0.0,0.91,,,,
-5.0,2.0,0.9109999999999999,,,,
-4.0,0.0,0.912,,,,
1.0,0.0,0.9129999999999999,,,,
3.0,-2.0,0.914,,,,
0.0,-3.0,0.915,,,,
-2.0,-4.0,0.9159999999999999,,,,
-2.0,-6.0,0.917,,,,
-2.0,-5.0,0.9179999999999999,,,,
2.0,-5.0,0.919,,,,
8.0,-3.0,0.92,,,,
11.0,0.0,0.9209999999999999,,,,
6.0,1.0,0.922,,,,
1.0,1.0,0.9229999999999999,,,,
3.0,1.0,0.924,,,,
6.0,1.0,0.925,,,,
4.0,2.0,0.9259999999999999,,,,
0.0,2.0,0.927,,,,
0.0,2.0,0.9279999999999999,,,,
0.0,0.0,0.929,,,,
0.0,-2.0,0.93,,,,
-2.0,-3.0,0.9309999999999999,,,,
-3.0,-4.0,0.932,,,,
0.0,-2.0,0.9329999999999999,,,,
1.0,-3.0,0.934,,,,
2.0,-3.0,0.935,,,,
-2.0,-1.0,0.9359999999999999,,,,
-5.0,-1.0,0.937,,,,
-6.0,-1.0,0.938,,,,
-3.0,-1.0,0.9390000000000001,,,,
5.0,0.0,0.94,,,,
11.0,3.0,0.941,,,,
9.0,6.0,0.9420000000000001,,,,
6.0,4.0,0.943,,,,
3.0,1.0,0.9440000000000001,,,,
3.0,0.0,0.945,,,,
4.0,1.0,0.946,,,,
5.0,0.0,0.9470000000000001,,,,
7.0,0.0,0.948,,,,
3.0,0.0,0.9490000000000001,,,,
-1.0,-1.0,0.95,,,,
-3.0,-1.0,0.951,,,,
1.0,-2.0,0.9520000000000001,,,,
5.0,-1.0,0.953,,,,
1.0,-3.0,0.9540000000000001,,,,
-2.0,-5.0,0.955,,,,
-6.0,-4.0,0.956,,,,
-8.0,-5.0,0.9570000000000001,,,,
-5.0,-8.0,0.958,,,,
2.0,-9.0,0.9590000000000001,,,,
11.0,-5.0,0.96,,,,
11.0,2.0,0.961,,,,
1.0,7.0,0.9620000000000001,,,,
-1.0,5.0,0.963,,,,
4.0,1.0,0.9640000000000001,,,,
6.0,0.0,0.965,,,,
1.0,2.0,0.966,,,,
-3.0,1.0,0.9670000000000001,,,,
0.0,-3.0,0.968,,,,
5.0,-5.0,0.9690000000000001,,,,
5.0,-1.0,0.97,,,,
2.0,2.0,0.971,,,,
0.0,2.0,0.972,,,,
0.0,1.0,0.973,,,,
1.0,-1.0,0.9740000000000001,,,,
2.0,-2.0,0.975,,,,
1.0,-4.0,0.976,,,,
0.0,-8.0,0.977,,,,
-1.0,-8.0,0.978,,,,
5.0,-4.0,0.9790000000000001,,,,
13.0,-1.0,0.98,,,,
11.0,-1.0,0.981,,,,
5.0,-1.0,0.982,,,,
2.0,0.0,0.983,,,,
3.0,0.0,0.9840000000000001,,,,
3.0,-2.0,0.985,,,,
2.0,-3.0,0.986,,,,
3.0,-1.0,0.987,,,,
6.0,-1.0,0.988,,,,
5.0,0.0,0.9890000000000001,,,,
3.0,0.0,0.99,,,,
3.0,-1.0,0.991,,,,
5.0,-2.0,0.992,,,,
5.0,1.0,0.993,,,,
1.0,2.0,0.9940000000000001,,,,
-2.0,0.0,0.995,,,,
-5.0,-5.0,0.996,,,,
-9.0,-9.0,0.997,,,,
-9.0,-6.0,0.998,,,,
-1.0,-3.0,0.9990000000000001,,,,
7.0,-1.0,1.0,,,,
9.0,1.0,1.001,,,,
2.0,3.0,1.002,,,,
-1.0,4.0,1.003,,,,
0.0,2.0,1.004,,,,
4.0,3.0,1.005,,,,
2.0,4.0,1.006,,,,
-1.0,1.0,1.0070000000000001,,,,
-1.0,-2.0,1.008,,,,
2.0,-3.0,1.0090000000000001,,,,
3.0,-2.0,1.01,,,,
1.0,-1.0,1.011,,,,
0.0,-1.0,1.012,,,,
2.0,-2.0,1.013,,,,
5.0,-4.0,1.014,,,,
4.0,-6.0,1.015,,,,
-2.0,-4.0,1.016,,,,
-7.0,-6.0,1.0170000000000001,,,,
-9.0,-6.0,1.018,,,,
-2.0,-5.0,1.0190000000000001,,,,
7.0,-2.0,1.02,,,,
11.0,0.0,1.021,,,,
7.0,0.0,1.022,,,,
3.0,-2.0,1.023,,,,
4.0,-3.0,1.024,,,,
7.0,-1.0,1.025,,,,
6.0,2.0,1.026,,,,
5.0,4.0,1.0270000000000001,,,,
6.0,3.0,1.028,,,,
7.0,2.0,1.0290000000000001,,,,
3.0,1.0,1.03,,,,
-1.0,3.0,1.031,,,,
-1.0,2.0,1.032,,,,
1.0,2.0,1.033,,,,
1.0,0.0,1.034,,,,
0.0,-1.0,1.035,,,,
-2.0,-1.0,1.036,,,,
-5.0,-3.0,1.037,,,,
-5.0,-3.0,1.038,,,,
0.0,0.0,1.0390000000000001,,,,
8.0,2.0,1.04,,,,
9.0,2.0,1.041,,,,
2.0,3.0,1.042,,,,
0.0,2.0,1.043,,,,
6.0,0.0,1.044,,,,
8.0,-1.0,1.045,,,,
2.0,-1.0,1.046,,,,
-1.0,1.0,1.047,,,,
3.0,0.0,1.048,,,,
5.0,-3.0,1.0490000000000002,,,,
0.0,-4.0,1.05,,,,
-1.0,-2.0,1.051,,,,
4.0,1.0,1.052,,,,
10.0,-1.0,1.053,,,,
5.0,-6.0,1.054,,,,
0.0,-4.0,1.055,,,,
-2.0,-1.0,1.056,,,,
-3.0,-4.0,1.057,,,,
-3.0,-8.0,1.058,,,,
2.0,-9.0,1.0590000000000002,,,,
11.0,-5.0,1.06,,,,
13.0,-2.0,1.061,,,,
5.0,-1.0,1.062,,,,
-2.0,1.0,1.063,,,,
-1.0,4.0,1.064,,,,
2.0,7.0,1.065,,,,
2.0,6.0,1.0659999999999998,,,,
0.0,1.0,1.067,,,,
1.0,-3.0,1.068,,,,
3.0,-4.0,1.069,,,,
1.0,-1.0,1.07,,,,
-1.0,3.0,1.071,,,,
0.0,0.0,1.072,,,,
3.0,-1.0,1.073,,,,
4.0,-5.0,1.074,,,,
1.0,-5.0,1.075,,,,
-4.0,-3.0,1.0759999999999998,,,,
-8.0,-3.0,1.077,,,,
-7.0,-3.0,1.078,,,,
1.0,-2.0,1.079,,,,
12.0,-1.0,1.08,,,,
14.0,3.0,1.081,,,,
6.0,6.0,1.082,,,,
0.0,5.0,1.083,,,,
2.0,0.0,1.084,,,,
5.0,0.0,1.085,,,,
3.0,3.0,1.0859999999999999,,,,
-1.0,3.0,1.087,,,,
-3.0,-1.0,1.088,,,,
-2.0,-4.0,1.089,,,,
1.0,-2.0,1.09,,,,
4.0,0.0,1.091,,,,
7.0,-4.0,1.092,,,,
6.0,-5.0,1.093,,,,
1.0,-2.0,1.094,,,,
0.0,0.0,1.095,,,,
0.0,-2.0,1.0959999999999999,,,,
0.0,-6.0,1.097,,,,
1.0,-4.0,1.0979999999999999,,,,
7.0,-1.0,1.099,,,,
15.0,0.0,1.1,,,,
15.0,0.0,1.101,,,,
9.0,2.0,1.102,,,,
6.0,2.0,1.103,,,,
9.0,0.0,1.104,,,,
8.0,-3.0,1.105,,,,
5.0,-2.0,1.1059999999999999,,,,
2.0,1.0,1.107,,,,
5.0,2.0,1.1079999999999999,,,,
6.0,3.0,1.109,,,,
2.0,3.0,1.11,,,,
-1.0,2.0,1.111,,,,
2.0,0.0,1.112,,,,
5.0,0.0,1.113,,,,
4.0,-1.0,1.114,,,,
-1.0,-4.0,1.115,,,,
-4.0,-5.0,1.1159999999999999,,,,
-7.0,-6.0,1.117,,,,
-6.0,-5.0,1.1179999999999999,,,,
0.0,-6.0,1.119,,,,
9.0,-6.0,1.12,,,,
12.0,0.0,1.121,,,,
10.0,4.0,1.122,,,,
5.0,2.0,1.123,,,,
4.0,-1.0,1.124,,,,
3.0,0.0,1.125,,,,
2.0,4.0,1.126,,,,
0.0,4.0,1.127,,,,
-1.0,0.0,1.128,,,,
-2.0,-3.0,1.129,,,,
-3.0,-2.0,1.13,,,,
-3.0,-2.0,1.131,,,,
-1.0,-2.0,1.1320000000000001,,,,
0.0,-2.0,1.133,,,,
0.0,-5.0,1.1340000000000001,,,,
-1.0,-7.0,1.135,,,,
-3.0,-8.0,1.136,,,,
-4.0,-5.0,1.137,,,,
-3.0,-2.0,1.138,,,,
4.0,-1.0,1.139,,,,
13.0,-1.0,1.14,,,,
11.0,2.0,1.141,,,,
5.0,5.0,1.1420000000000001,,,,
3.0,5.0,1.143,,,,
6.0,3.0,1.1440000000000001,,,,
7.0,4.0,1.145,,,,
3.0,5.0,1.146,,,,
0.0,1.0,1.147,,,,
3.0,-3.0,1.148,,,,
5.0,-4.0,1.149,,,,
4.0,-1.0,1.15,,,,
2.0,0.0,1.151,,,,
3.0,-2.0,1.1520000000000001,,,,
6.0,-3.0,1.153,,,,
5.0,-2.0,1.1540000000000001,,,,
0.0,-1.0,1.155,,,,
-4.0,-2.0,1.156,,,,
-6.0,-5.0,1.157,,,,
-3.0,-5.0,1.158,,,,
3.0,-5.0,1.159,,,,
9.0,-3.0,1.16,,,,
6.0,0.0,1.161,,,,
0.0,4.0,1.162,,,,
-1.0,3.0,1.163,,,,
3.0,0.0,1.1640000000000001,,,,
3.0,-4.0,1.165,,,,
0.0,0.0,1.166,,,,
-3.0,6.0,1.167,,,,
0.0,9.0,1.168,,,,
3.0,5.0,1.169,,,,
1.0,1.0,1.17,,,,
-1.0,0.0,1.171,,,,
2.0,0.0,1.172,,,,
7.0,0.0,1.173,,,,
7.0,-2.0,1.1740000000000002,,,,
5.0,-4.0,1.175,,,,
0.0,-2.0,1.176,,,,
-4.0,-3.0,1.177,,,,
-7.0,-3.0,1.178,,,,
-4.0,-3.0,1.179,,,,
2.0,-2.0,1.18,,,,
5.0,0.0,1.181,,,,
1.0,1.0,1.182,,,,
0.0,3.0,1.183,,,,
4.0,4.0,1.1840000000000002,,,,
5.0,4.0,1.185,,,,
0.0,2.0,1.186,,,,
0.0,-1.0,1.187,,,,
6.0,-4.0,1.188,,,,
9.0,-4.0,1.189,,,,
4.0,-3.0,1.19,,,,
1.0,-3.0,1.1909999999999998,,,,
5.0,-4.0,1.192,,,,
8.0,-4.0,1.193,,,,
3.0,-6.0,1.194,,,,
0.0,-8.0,1.195,,,,
-2.0,-8.0,1.196,,,,
-4.0,-10.0,1.197,,,,
-5.0,-8.0,1.198,,,,
0.0,-6.0,1.199,,,,
11.0,-2.0,1.2,,,,
12.0,0.0,1.2009999999999998,,,,
3.0,4.0,1.202,,,,
-1.0,3.0,1.203,,,,
2.0,3.0,1.204,,,,
4.0,4.0,1.205,,,,
0.0,6.0,1.206,,,,
-4.0,5.0,1.207,,,,
-2.0,2.0,1.208,,,,
-1.0,2.0,1.209,,,,
-5.0,3.0,1.21,,,,
-7.0,5.0,1.2109999999999999,,,,
-6.0,4.0,1.212,,,,
-2.0,4.0,1.213,,,,
-1.0,3.0,1.214,,,,
-3.0,0.0,1.215,,,,
-7.0,-3.0,1.216,,,,
-11.0,-6.0,1.217,,,,
-7.0,-2.0,1.218,,,,
3.0,0.0,1.219,,,,
13.0,3.0,1.22,,,,
12.0,5.0,1.2209999999999999,,,,
5.0,7.0,1.222,,,,
2.0,6.0,1.2229999999999999,,,,
6.0,2.0,1.224,,,,
8.0,1.0,1.225,,,,
6.0,2.0,1.226,,,,
2.0,0.0,1.227,,,,
3.0,-3.0,1.228,,,,
3.0,-6.0,1.229,,,,
4.0,-6.0,1.23,,,,
5.0,-5.0,1.2309999999999999,,,,
4.0,-6.0,1.232,,,,
3.0,-5.0,1.2329999999999999,,,,
3.0,-4.0,1.234,,,,
3.0,-3.0,1.235,,,,
0.0,-4.0,1.236,,,,
-6.0,-8.0,1.237,,,,
-8.0,-8.0,1.238,,,,
0.0,-4.0,1.239,,,,
11.0,0.0,1.24,,,,
12.0,2.0,1.2409999999999999,,,,
3.0,1.0,1.242,,,,
0.0,-1.0,1.2429999999999999,,,,
8.0,-1.0,1.244,,,,
15.0,0.0,1.245,,,,
11.0,-1.0,1.246,,,,
4.0,-3.0,1.247,,,,
5.0,-4.0,1.248,,,,
9.0,-2.0,1.249,,,,
9.0,-1.0,1.25,,,,
5.0,-3.0,1.251,,,,
4.0,-5.0,1.252,,,,
5.0,-2.0,1.253,,,,
5.0,-1.0,1.254,,,,
1.0,-4.0,1.255,,,,
-3.0,-6.0,1.256,,,,
-6.0,-8.0,1.2570000000000001,,,,
-5.0,-3.0,1.258,,,,
2.0,0.0,1.2590000000000001,,,,
9.0,1.0,1.26,,,,
9.0,3.0,1.261,,,,
2.0,4.0,1.262,,,,
0.0,4.0,1.263,,,,
2.0,-1.0,1.264,,,,
6.0,-4.0,1.265,,,,
2.0,0.0,1.266,,,,
0.0,4.0,1.2670000000000001,,,,
2.0,4.0,1.268,,,,
7.0,2.0,1.2690000000000001,,,,
5.0,0.0,1.27,,,,
-1.0,-1.0,1.271,,,,
-3.0,-1.0,1.272,,,,
0.0,-2.0,1.273,,,,
1.0,-3.0,1.274,,,,
0.0,-5.0,1.275,,,,
-2.0,-4.0,1.276,,,,
-5.0,-6.0,1.2770000000000001,,,,
-5.0,-4.0,1.278,,,,
-2.0,-3.0,1.2790000000000001,,,,
2.0,-1.0,1.28,,,,
3.0,2.0,1.281,,,,
2.0,8.0,1.2819999999999998,,,,
3.0,8.0,1.2830000000000001,,,,
5.0,4.0,1.284,,,,
6.0,1.0,1.285,,,,
3.0,1.0,1.286,,,,
0.0,3.0,1.287,,,,
0.0,1.0,1.288,,,,
2.0,-2.0,1.2890000000000001,,,,
3.0,-2.0,1.29,,,,
1.0,0.0,1.291,,,,
1.0,3.0,1.2919999999999998,,,,
2.0,4.0,1.2930000000000001,,,,
1.0,0.0,1.294,,,,
-3.0,-3.0,1.295,,,,
-8.0,-3.0,1.296,,,,
-8.0,-5.0,1.297,,,,
-3.0,-5.0,1.298,,,,
4.0,-5.0,1.2990000000000002,,,,
11.0,-2.0,1.3,,,,
11.0,0.0,1.301,,,,
6.0,0.0,1.3019999999999998,,,,
3.0,-1.0,1.3030000000000002,,,,
3.0,-2.0,1.304,,,,
4.0,0.0,1.305,,,,
2.0,0.0,1.306,,,,
1.0,2.0,1.307,,,,
1.0,4.0,1.308,,,,
2.0,3.0,1.3090000000000002,,,,
0.0,1.0,1.31,,,,
-1.0,0.0,1.311,,,,
0.0,-2.0,1.3119999999999998,,,,
3.0,-3.0,1.3130000000000002,,,,
1.0,-4.0,1.314,,,,
0.0,-4.0,1.315,,,,
-2.0,-3.0,1.3159999999999998,,,,
-4.0,-8.0,1.317,,,,
-4.0,-8.0,1.318,,,,
1.0,-5.0,1.319,,,,
8.0,0.0,1.32,,,,
10.0,2.0,1.321,,,,
5.0,1.0,1.3219999999999998,,,,
6.0,1.0,1.3230000000000002,,,,
10.0,-2.0,1.324,,,,
9.0,-4.0,1.325,,,,
3.0,-4.0,1.3259999999999998,,,,
1.0,1.0,1.327,,,,
5.0,3.0,1.328,,,,
8.0,2.0,1.329,,,,
4.0,0.0,1.33,,,,
3.0,1.0,1.331,,,,
7.0,2.0,1.3319999999999999,,,,
9.0,2.0,1.3330000000000002,,,,
4.0,1.0,1.334,,,,
1.0,0.0,1.335,,,,
-1.0,-2.0,1.3359999999999999,,,,
-2.0,-6.0,1.337,,,,
-2.0,-5.0,1.338,,,,
2.0,-1.0,1.339,,,,
8.0,0.0,1.34,,,,
7.0,0.0,1.341,,,,
1.0,2.0,1.3419999999999999,,,,
1.0,3.0,1.3430000000000002,,,,
5.0,0.0,1.344,,,,
3.0,-2.0,1.345,,,,
0.0,1.0,1.3459999999999999,,,,
-1.0,4.0,1.347,,,,
3.0,1.0,1.348,,,,
2.0,-3.0,1.349,,,,
-3.0,-2.0,1.35,,,,
-4.0,2.0,1.351,,,,
1.0,3.0,1.3519999999999999,,,,
5.0,1.0,1.3530000000000002,,,,
3.0,-2.0,1.354,,,,
-1.0,-4.0,1.355,,,,
-3.0,-6.0,1.3559999999999999,,,,
-4.0,-7.0,1.357,,,,
-2.0,-4.0,1.358,,,,
2.0,0.0,1.359,,,,
10.0,0.0,1.36,,,,
9.0,0.0,1.361,,,,
3.0,4.0,1.3619999999999999,,,,
1.0,5.0,1.3630000000000002,,,,
8.0,2.0,1.364,,,,
13.0,-2.0,1.365,,,,
9.0,-3.0,1.3659999999999999,,,,
5.0,-1.0,1.367,,,,
4.0,-1.0,1.368,,,,
6.0,-1.0,1.369,,,,
4.0,-1.0,1.37,,,,
0.0,-2.0,1.371,,,,
0.0,-4.0,1.3719999999999999,,,,
4.0,-3.0,1.3730000000000002,,,,
3.0,-4.0,1.374,,,,
-1.0,-4.0,1.375,,,,
-5.0,-4.0,1.376,,,,
-5.0,-6.0,1.3769999999999998,,,,
-4.0,-3.0,1.3780000000000001,,,,
3.0,-1.0,1.379,,,,
10.0,2.0,1.38,,,,
10.0,4.0,1.381,,,,
3.0,5.0,1.382,,,,
-3.0,2.0,1.383,,,,
0.0,0.0,1.3840000000000001,,,,
7.0,2.0,1.385,,,,
7.0,4.0,1.386,,,,
3.0,1.0,1.3869999999999998,,,,
2.0,-2.0,1.3880000000000001,,,,
2.0,-3.0,1.389,,,,
0.0,0.0,1.39,,,,
-2.0,0.0,1.391,,,,
-1.0,-1.0,1.392,,,,
3.0,1.0,1.393,,,,
6.0,-1.0,1.3940000000000001,,,,
6.0,-5.0,1.395,,,,
2.0,-10.0,1.396,,,,
0.0,-12.0,1.3969999999999998,,,,
-1.0,-5.0,1.3980000000000001,,,,
4.0,0.0,1.399,,,,
10.0,3.0,1.4,,,,
10.0,3.0,1.401,,,,
3.0,1.0,1.402,,,,
-1.0,-3.0,1.403,,,,
1.0,-5.0,1.4040000000000001,,,,
4.0,-4.0,1.405,,,,
2.0,0.0,1.406,,,,
0.0,3.0,1.4069999999999998,,,,
4.0,1.0,1.4080000000000001,,,,
6.0,-1.0,1.409,,,,
1.0,-2.0,1.41,,,,
-2.0,-1.0,1.411,,,,
1.0,0.0,1.412,,,,
5.0,0.0,1.413,,,,
2.0,-3.0,1.4140000000000001,,,,
-1.0,-4.0,1.415,,,,
-3.0,-4.0,1.416,,,,
-3.0,-5.0,1.4169999999999998,,,,
-4.0,-5.0,1.4180000000000001,,,,
-2.0,-6.0,1.419,,,,
5.0,-5.0,1.42,,,,
11.0,1.0,1.421,,,,
7.0,7.0,1.422,,,,
2.0,7.0,1.423,,,,
3.0,3.0,1.4240000000000002,,,,
3.0,0.0,1.425,,,,
0.0,1.0,1.426,,,,
-3.0,1.0,1.4269999999999998,,,,
0.0,-3.0,1.4280000000000002,,,,
4.0,-3.0,1.429,,,,
4.0,-1.0,1.43,,,,
2.0,0.0,1.431,,,,
3.0,-1.0,1.432,,,,
5.0,0.0,1.433,,,,
3.0,3.0,1.4340000000000002,,,,
1.0,4.0,1.435,,,,
-1.0,-1.0,1.436,,,,
-5.0,-8.0,1.4369999999999998,,,,
-10.0,-8.0,1.4380000000000002,,,,
-6.0,-3.0,1.439,,,,
5.0,0.0,1.44,,,,
12.0,2.0,1.4409999999999998,,,,
6.0,4.0,1.442,,,,
0.0,3.0,1.443,,,,
1.0,0.0,1.444,,,,
4.0,-1.0,1.445,,,,
4.0,-1.0,1.446,,,,
2.0,0.0,1.4469999999999998,,,,
2.0,1.0,1.4480000000000002,,,,
1.0,0.0,1.449,,,,
-1.0,-1.0,1.45,,,,
-2.0,-1.0,1.4509999999999998,,,,
-1.0,0.0,1.452,,,,
0.0,1.0,1.453,,,,
0.0,0.0,1.454,,,,
1.0,-1.0,1.455,,,,
1.0,-4.0,1.456,,,,
-1.0,-7.0,1.4569999999999999,,,,
-3.0,-7.0,1.4580000000000002,,,,
1.0,-4.0,1.459,,,,
9.0,1.0,1.46,,,,
10.0,5.0,1.4609999999999999,,,,
6.0,5.0,1.462,,,,
5.0,1.0,1.463,,,,
4.0,-1.0,1.464,,,,
2.0,-1.0,1.465,,,,
2.0,-1.0,1.466,,,,
3.0,-2.0,1.4669999999999999,,,,
4.0,-1.0,1.4680000000000002,,,,
2.0,-1.0,1.469,,,,
3.0,0.0,1.47,,,,
7.0,-1.0,1.4709999999999999,,,,
7.0,0.0,1.472,,,,
4.0,4.0,1.473,,,,
0.0,2.0,1.474,,,,
0.0,-3.0,1.475,,,,
-2.0,-4.0,1.476,,,,
-5.0,-3.0,1.4769999999999999,,,,
-4.0,-1.0,1.4780000000000002,,,,
2.0,-2.0,1.479,,,,
9.0,-4.0,1.48,,,,
6.0,0.0,1.4809999999999999,,,,
0.0,4.0,1.482,,,,
0.0,2.0,1.483,,,,
4.0,0.0,1.484,,,,
7.0,0.0,1.485,,,,
8.0,2.0,1.486,,,,
6.0,0.0,1.4869999999999999,,,,
3.0,-5.0,1.4880000000000002,,,,
0.0,-6.0,1.489,,,,
0.0,-3.0,1.49,,,,
4.0,1.0,1.4909999999999999,,,,
5.0,1.0,1.492,,,,
5.0,1.0,1.493,,,,
4.0,-1.0,1.494,,,,
4.0,-2.0,1.495,,,,
2.0,-4.0,1.496,,,,
-3.0,-7.0,1.4969999999999999,,,,
-6.0,-7.0,1.4980000000000002,,,,
0.0,-5.0,1.499,,,,
6.0,-2.0,1.5,,,,
6.0,2.0,1.501,,,,
4.0,4.0,1.5019999999999998,,,,
2.0,2.0,1.5030000000000001,,,,
0.0,0.0,1.504,,,,
2.0,0.0,1.505,,,,
5.0,1.0,1.506,,,,
5.0,0.0,1.507,,,,
6.0,-2.0,1.508,,,,
5.0,0.0,1.5090000000000001,,,,
4.0,2.0,1.51,,,,
4.0,0.0,1.511,,,,
3.0,0.0,1.5119999999999998,,,,
3.0,4.0,1.5130000000000001,,,,
4.0,4.0,1.514,,,,
0.0,1.0,1.515,,,,
-4.0,-2.0,1.516,,,,
-5.0,-5.0,1.517,,,,
-3.0,-3.0,1.518,,,,
1.0,-4.0,1.5190000000000001,,,,
5.0,-5.0,1.52,,,,
5.0,-3.0,1.521,,,,
4.0,0.0,1.5219999999999998,,,,
3.0,1.0,1.5230000000000001,,,,
5.0,-2.0,1.524,,,,
7.0,-3.0,1.525,,,,
3.0,-2.0,1.526,,,,
-1.0,-1.0,1.527,,,,
-3.0,0.0,1.528,,,,
-2.0,1.0,1.5290000000000001,,,,
0.0,2.0,1.53,,,,
4.0,0.0,1.531,,,,
6.0,-2.0,1.5319999999999998,,,,
4.0,1.0,1.5330000000000001,,,,
1.0,1.0,1.534,,,,
0.0,0.0,1.535,,,,
-2.0,-2.0,1.536,,,,
-8.0,-5.0,1.537,,,,
-10.0,-5.0,1.538,,,,
-1.0,-3.0,1.5390000000000001,,,,
12.0,0.0,1.54,,,,
13.0,3.0,1.541,,,,
7.0,4.0,1.5419999999999998,,,,
3.0,1.0,1.5430000000000001,,,,
4.0,-2.0,1.544,,,,
4.0,-2.0,1.545,,,,
4.0,0.0,1.546,,,,
4.0,0.0,1.547,,,,
7.0,-1.0,1.548,,,,
5.0,-3.0,1.5490000000000002,,,,
2.0,-3.0,1.55,,,,
2.0,-3.0,1.551,,,,
4.0,-4.0,1.5519999999999998,,,,
4.0,-3.0,1.5530000000000002,,,,
2.0,-3.0,1.554,,,,
3.0,-4.0,1.555,,,,
1.0,-4.0,1.556,,,,
-3.0,-6.0,1.557,,,,
-6.0,-3.0,1.558,,,,
-1.0,-2.0,1.5590000000000002,,,,
7.0,-2.0,1.56,,,,
8.0,-2.0,1.561,,,,
0.0,0.0,1.5619999999999998,,,,
-2.0,2.0,1.5630000000000002,,,,
1.0,2.0,1.564,,,,
3.0,0.0,1.565,,,,
1.0,-1.0,1.5659999999999998,,,,
-1.0,-1.0,1.567,,,,
0.0,0.0,1.568,,,,
3.0,3.0,1.569,,,,
4.0,3.0,1.57,,,,
5.0,1.0,1.571,,,,
3.0,-2.0,1.5719999999999998,,,,
1.0,0.0,1.5730000000000002,,,,
0.0,0.0,1.574,,,,
0.0,-2.0,1.575,,,,
-2.0,-6.0,1.5759999999999998,,,,
-8.0,-10.0,1.577,,,,
-8.0,-8.0,1.578,,,,
2.0,-2.0,1.579,,,,
13.0,3.0,1.58,,,,
12.0,6.0,1.581,,,,
1.0,7.0,1.5819999999999999,,,,
-1.0,5.0,1.5830000000000002,,,,
4.0,0.0,1.584,,,,
9.0,0.0,1.585,,,,
5.0,4.0,1.5859999999999999,,,,
3.0,5.0,1.587,,,,
5.0,2.0,1.588,,,,
3.0,-1.0,1.589,,,,
-1.0,-2.0,1.59,,,,
0.0,-3.0,1.591,,,,
2.0,-3.0,1.5919999999999999,,,,
2.0,-3.0,1.5930000000000002,,,,
-1.0,-2.0,1.594,,,,
-2.0,0.0,1.595,,,,
-3.0,2.0,1.5959999999999999,,,,
-5.0,-1.0,1.597,,,,
-7.0,-5.0,1.598,,,,
-1.0,-5.0,1.599,,,,
8.0,-1.0,1.6,,,,
8.0,2.0,1.601,,,,
2.0,2.0,1.6019999999999999,,,,
1.0,0.0,1.6030000000000002,,,,
4.0,0.0,1.604,,,,
4.0,2.0,1.605,,,,
0.0,2.0,1.6059999999999999,,,,
2.0,0.0,1.607,,,,
7.0,0.0,1.608,,,,
6.0,0.0,1.609,,,,
2.0,2.0,1.61,,,,
2.0,1.0,1.611,,,,
6.0,2.0,1.6119999999999999,,,,
8.0,1.0,1.6130000000000002,,,,
5.0,-2.0,1.614,,,,
5.0,-4.0,1.615,,,,
4.0,-5.0,1.6159999999999999,,,,
-1.0,-7.0,1.617,,,,
-5.0,-7.0,1.618,,,,
0.0,-8.0,1.619,,,,
11.0,-4.0,1.62,,,,
12.0,3.0,1.621,,,,
5.0,7.0,1.6219999999999999,,,,
1.0,3.0,1.6230000000000002,,,,
4.0,-2.0,1.624,,,,
6.0,-3.0,1.625,,,,
2.0,0.0,1.626,,,,
0.0,-1.0,1.6269999999999998,,,,
2.0,-3.0,1.6280000000000001,,,,
4.0,-4.0,1.629,,,,
3.0,-2.0,1.63,,,,
3.0,-1.0,1.631,,,,
3.0,-3.0,1.632,,,,
5.0,-1.0,1.633,,,,
3.0,2.0,1.6340000000000001,,,,
0.0,3.0,1.635,,,,
-2.0,1.0,1.636,,,,
-3.0,-5.0,1.6369999999999998,,,,
-1.0,-4.0,1.6380000000000001,,,,
2.0,-1.0,1.639,,,,
7.0,-1.0,1.64,,,,
7.0,-1.0,1.641,,,,
2.0,2.0,1.642,,,,
1.0,6.0,1.643,,,,
4.0,4.0,1.6440000000000001,,,,
5.0,0.0,1.645,,,,
3.0,1.0,1.646,,,,
-1.0,3.0,1.6469999999999998,,,,
0.0,0.0,1.6480000000000001,,,,
0.0,-6.0,1.649,,,,
0.0,-6.0,1.65,,,,
0.0,-1.0,1.651,,,,
-1.0,0.0,1.652,,,,
-2.0,-2.0,1.653,,,,
-4.0,-5.0,1.6540000000000001,,,,
-4.0,-3.0,1.655,,,,
-4.0,-1.0,1.656,,,,
-6.0,-5.0,1.6569999999999998,,,,
-5.0,-9.0,1.6580000000000001,,,,
2.0,-5.0,1.659,,,,
8.0,1.0,1.66,,,,
8.0,6.0,1.661,,,,
6.0,5.0,1.662,,,,
4.0,2.0,1.663,,,,
4.0,1.0,1.6640000000000001,,,,
2.0,2.0,1.665,,,,
1.0,2.0,1.666,,,,
2.0,-1.0,1.6669999999999998,,,,
3.0,-3.0,1.6680000000000001,,,,
0.0,-2.0,1.669,,,,
1.0,1.0,1.67,,,,
5.0,2.0,1.671,,,,
7.0,-2.0,1.672,,,,
5.0,-3.0,1.673,,,,
2.0,-3.0,1.6740000000000002,,,,
2.0,0.0,1.675,,,,
2.0,0.0,1.676,,,,
0.0,-2.0,1.6769999999999998,,,,
-1.0,-4.0,1.6780000000000002,,,,
6.0,-2.0,1.679,,,,
13.0,1.0,1.68,,,,
11.0,3.0,1.681,,,,
5.0,3.0,1.682,,,,
2.0,1.0,1.683,,,,
3.0,-1.0,1.6840000000000002,,,,
3.0,-1.0,1.685,,,,
0.0,2.0,1.686,,,,
0.0,2.0,1.6869999999999998,,,,
2.0,0.0,1.6880000000000002,,,,
3.0,0.0,1.689,,,,
0.0,0.0,1.69,,,,
-2.0,0.0,1.6909999999999998,,,,
-2.0,-4.0,1.692,,,,
0.0,-4.0,1.693,,,,
0.0,-3.0,1.694,,,,
0.0,-1.0,1.695,,,,
-2.0,-2.0,1.696,,,,
-3.0,-7.0,1.6969999999999998,,,,
-3.0,-7.0,1.6980000000000002,,,,
2.0,-5.0,1.699,,,,
8.0,-2.0,1.7,,,,
9.0,2.0,1.7009999999999998,,,,
5.0,6.0,1.702,,,,
3.0,5.0,1.703,,,,
5.0,1.0,1.704,,,,
6.0,-2.0,1.705,,,,
2.0,-1.0,1.706,,,,
1.0,1.0,1.7069999999999999,,,,
2.0,2.0,1.7080000000000002,,,,
1.0,2.0,1.709,,,,
-2.0,2.0,1.71,,,,
-2.0,0.0,1.7109999999999999,,,,
1.0,-2.0,1.712,,,,
4.0,-1.0,1.713,,,,
0.0,0.0,1.714,,,,
-2.0,0.0,1.715,,,,
-2.0,-2.0,1.716,,,,
-2.0,-6.0,1.7169999999999999,,,,
-2.0,-5.0,1.7180000000000002,,,,
0.0,-5.0,1.719,,,,
5.0,-6.0,1.72,,,,
6.0,-2.0,1.7209999999999999,,,,
0.0,4.0,1.722,,,,
-1.0,4.0,1.723,,,,
5.0,-1.0,1.724,,,,
8.0,-3.0,1.725,,,,
3.0,-1.0,1.726,,,,
-3.0,2.0,1.7269999999999999,,,,
-2.0,0.0,1.7280000000000002,,,,
1.0,0.0,1.729,,,,
1.0,0.0,1.73,,,,
1.0,0.0,1.7309999999999999,,,,
5.0,-1.0,1.732,,,,
8.0,1.0,1.733,,,,
6.0,3.0,1.734,,,,
3.0,2.0,1.735,,,,
1.0,-4.0,1.736,,,,
0.0,-10.0,1.7369999999999999,,,,
-2.0,-9.0,1.7380000000000002,,,,
2.0,-3.0,1.739,,,,
12.0,-1.0,1.74,,,,
15.0,1.0,1.7409999999999999,,,,
10.0,3.0,1.742,,,,
5.0,2.0,1.743,,,,
5.0,-2.0,1.744,,,,
4.0,-2.0,1.745,,,,
2.0,1.0,1.746,,,,
2.0,3.0,1.7469999999999999,,,,
4.0,1.0,1.7480000000000002,,,,
6.0,0.0,1.749,,,,
1.0,1.0,1.75,,,,
-1.0,0.0,1.751,,,,
0.0,-1.0,1.7519999999999998,,,,
1.0,-2.0,1.7530000000000001,,,,
0.0,-2.0,1.754,,,,
1.0,-4.0,1.755,,,,
1.0,-6.0,1.756,,,,
-2.0,-5.0,1.757,,,,
-5.0,-2.0,1.758,,,,
-1.0,0.0,1.7590000000000001,,,,
7.0,-3.0,1.76,,,,
8.0,-1.0,1.761,,,,
1.0,3.0,1.7619999999999998,,,,
-1.0,6.0,1.7630000000000001,,,,
4.0,1.0,1.764,,,,
9.0,-1.0,1.765,,,,
5.0,1.0,1.766,,,,
-2.0,2.0,1.767,,,,
-3.0,0.0,1.768,,,,
0.0,-2.0,1.7690000000000001,,,,
-1.0,0.0,1.77,,,,
-3.0,1.0,1.771,,,,
1.0,0.0,1.7719999999999998,,,,
5.0,-1.0,1.7730000000000001,,,,
3.0,-4.0,1.774,,,,
-1.0,-6.0,1.775,,,,
-2.0,-8.0,1.776,,,,
-1.0,-8.0,1.777,,,,
1.0,-7.0,1.778,,,,
3.0,-4.0,1.7790000000000001,,,,
7.0,-1.0,1.78,,,,
6.0,1.0,1.781,,,,
1.0,4.0,1.7819999999999998,,,,
-2.0,2.0,1.7830000000000001,,,,
-1.0,1.0,1.784,,,,
1.0,2.0,1.785,,,,
0.0,3.0,1.786,,,,
0.0,0.0,1.787,,,,
4.0,-2.0,1.788,,,,
5.0,-2.0,1.7890000000000001,,,,
2.0,-1.0,1.79,,,,
-2.0,-1.0,1.791,,,,
-1.0,0.0,1.7919999999999998,,,,
3.0,0.0,1.7930000000000001,,,,
1.0,0.0,1.794,,,,
-2.0,0.0,1.795,,,,
-2.0,-1.0,1.796,,,,
0.0,-5.0,1.797,,,,
3.0,-6.0,1.798,,,,
3.0,-3.0,1.7990000000000002,,,,
5.0,0.0,1.8,,,,
7.0,3.0,1.801,,,,
6.0,5.0,1.8019999999999998,,,,
7.0,3.0,1.8030000000000002,,,,
9.0,0.0,1.804,,,,
9.0,-3.0,1.805,,,,
4.0,-3.0,1.806,,,,
0.0,0.0,1.807,,,,
-1.0,1.0,1.808,,,,
-2.0,3.0,1.8090000000000002,,,,
-3.0,4.0,1.81,,,,
0.0,4.0,1.811,,,,
1.0,2.0,1.8119999999999998,,,,
2.0,1.0,1.8130000000000002,,,,
0.0,0.0,1.814,,,,
0.0,-1.0,1.815,,,,
-1.0,-3.0,1.8159999999999998,,,,
-3.0,-5.0,1.817,,,,
-4.0,-4.0,1.818,,,,
2.0,0.0,1.819,,,,
11.0,1.0,1.82,,,,
12.0,1.0,1.821,,,,
5.0,1.0,1.8219999999999998,,,,
-1.0,-2.0,1.8230000000000002,,,,
-1.0,-4.0,1.824,,,,
3.0,-3.0,1.825,,,,
5.0,0.0,1.8259999999999998,,,,
7.0,0.0,1.827,,,,
6.0,-3.0,1.828,,,,
5.0,-3.0,1.829,,,,
2.0,-1.0,1.83,,,,
1.0,0.0,1.831,,,,
3.0,-1.0,1.8319999999999999,,,,
6.0,-4.0,1.8330000000000002,,,,
8.0,-7.0,1.834,,,,
8.0,-7.0,1.835,,,,
4.0,-9.0,1.8359999999999999,,,,
0.0,-12.0,1.837,,,,
0.0,-11.0,1.838,,,,
7.0,-7.0,1.839,,,,
13.0,-2.0,1.84,,,,
12.0,0.0,1.841,,,,
7.0,1.0,1.8419999999999999,,,,
6.0,-2.0,1.8430000000000002,,,,
8.0,-4.0,1.844,,,,
8.0,-3.0,1.845,,,,
1.0,0.0,1.8459999999999999,,,,
-4.0,1.0,1.847,,,,
-4.0,0.0,1.848,,,,
-1.0,2.0,1.849,,,,
0.0,5.0,1.85,,,,
0.0,6.0,1.851,,,,
-2.0,4.0,1.8519999999999999,,,,
-2.0,4.0,1.8530000000000002,,,,
-3.0,3.0,1.854,,,,
-4.0,2.0,1.855,,,,
-7.0,1.0,1.8559999999999999,,,,
-10.0,-3.0,1.857,,,,
-9.0,-1.0,1.858,,,,
-2.0,2.0,1.859,,,,
4.0,2.0,1.86,,,,
1.0,2.0,1.861,,,,
-5.0,3.0,1.8619999999999999,,,,
-5.0,4.0,1.8630000000000002,,,,
1.0,0.0,1.864,,,,
5.0,-3.0,1.865,,,,
0.0,-2.0,1.8659999999999999,,,,
-3.0,2.0,1.867,,,,
-1.0,4.0,1.868,,,,
2.0,2.0,1.869,,,,
1.0,0.0,1.87,,,,
2.0,0.0,1.871,,,,
6.0,1.0,1.8719999999999999,,,,
9.0,1.0,1.8730000000000002,,,,
5.0,-2.0,1.874,,,,
0.0,-3.0,1.875,,,,
-2.0,-4.0,1.876,,,,
-3.0,-10.0,1.8769999999999998,,,,
-2.0,-11.0,1.8780000000000001,,,,
2.0,-7.0,1.879,,,,
10.0,-1.0,1.88,,,,
12.0,4.0,1.881,,,,
6.0,4.0,1.882,,,,
2.0,1.0,1.883,,,,
4.0,-2.0,1.8840000000000001,,,,
6.0,-4.0,1.885,,,,
6.0,-3.0,1.886,,,,
6.0,-3.0,1.8869999999999998,,,,
7.0,-3.0,1.8880000000000001,,,,
8.0,-3.0,1.889,,,,
6.0,-3.0,1.89,,,,
4.0,-2.0,1.891,,,,
6.0,-5.0,1.892,,,,
8.0,-6.0,1.893,,,,
5.0,-5.0,1.8940000000000001,,,,
1.0,-5.0,1.895,,,,
0.0,-4.0,1.896,,,,
0.0,-4.0,1.8969999999999998,,,,
-1.0,-4.0,1.8980000000000001,,,,
3.0,-4.0,1.899,,,,
12.0,-2.0,1.9,,,,
14.0,0.0,1.901,,,,
6.0,3.0,1.902,,,,
-1.0,1.0,1.903,,,,
2.0,-2.0,1.9040000000000001,,,,
9.0,-2.0,1.905,,,,
8.0,1.0,1.906,,,,
1.0,3.0,1.9069999999999998,,,,
0.0,2.0,1.9080000000000001,,,,
1.0,2.0,1.909,,,,
3.0,4.0,1.91,,,,
1.0,3.0,1.911,,,,
1.0,-1.0,1.912,,,,
0.0,-1.0,1.913,,,,
-3.0,-1.0,1.9140000000000001,,,,
-5.0,-2.0,1.915,,,,
-5.0,-3.0,1.916,,,,
-4.0,-5.0,1.9169999999999998,,,,
-3.0,-3.0,1.9180000000000001,,,,
0.0,-2.0,1.919,,,,
7.0,-1.0,1.92,,,,
10.0,3.0,1.921,,,,
4.0,6.0,1.922,,,,
-1.0,4.0,1.923,,,,
1.0,0.0,1.9240000000000002,,,,
4.0,2.0,1.925,,,,
2.0,4.0,1.926,,,,
0.0,2.0,1.9269999999999998,,,,
0.0,-3.0,1.9280000000000002,,,,
2.0,-4.0,1.929,,,,
2.0,0.0,1.93,,,,
1.0,3.0,1.931,,,,
2.0,3.0,1.932,,,,
4.0,3.0,1.933,,,,
0.0,1.0,1.9340000000000002,,,,
0.0,0.0,1.935,,,,
-1.0,-1.0,1.936,,,,
-2.0,-4.0,1.9369999999999998,,,,
-3.0,-3.0,1.9380000000000002,,,,
0.0,-3.0,1.939,,,,
6.0,-2.0,1.94,,,,
10.0,0.0,1.9409999999999998,,,,
4.0,0.0,1.942,,,,
-1.0,-1.0,1.943,,,,
0.0,-4.0,1.944,,,,
3.0,-4.0,1.945,,,,
1.0,-3.0,1.946,,,,
-2.0,-2.0,1.9469999999999998,,,,
1.0,-3.0,1.9480000000000002,,,,
4.0,-2.0,1.949,,,,
5.0,0.0,1.95,,,,
2.0,2.0,1.9509999999999998,,,,
2.0,1.0,1.952,,,,
3.0,1.0,1.953,,,,
2.0,0.0,1.954,,,,
2.0,-3.0,1.955,,,,
0.0,-3.0,1.956,,,,
-3.0,-6.0,1.9569999999999999,,,,
-5.0,-6.0,1.9580000000000002,,,,
0.0,-5.0,1.959,,,,
10.0,-4.0,1.96,,,,
14.0,0.0,1.9609999999999999,,,,
6.0,3.0,1.962,,,,
-1.0,3.0,1.963,,,,
0.0,2.0,1.964,,,,
4.0,3.0,1.965,,,,
4.0,4.0,1.966,,,,
2.0,0.0,1.9669999999999999,,,,
5.0,-4.0,1.9680000000000002,,,,
6.0,-2.0,1.969,,,,
3.0,1.0,1.97,,,,
1.0,-1.0,1.9709999999999999,,,,
5.0,-4.0,1.972,,,,
9.0,-3.0,1.973,,,,
5.0,0.0,1.974,,,,
-3.0,0.0,1.975,,,,
-6.0,-3.0,1.976,,,,
-3.0,-6.0,1.9769999999999999,,,,
0.0,-3.0,1.9780000000000002,,,,
3.0,0.0,1.979,,,,
8.0,0.0,1.98,,,,
10.0,2.0,1.9809999999999999,,,,
7.0,4.0,1.982,,,,
2.0,1.0,1.983,,,,
4.0,-2.0,1.984,,,,
7.0,-2.0,1.985,,,,
3.0,1.0,1.986,,,,
0.0,1.0,1.9869999999999999,,,,
0.0,0.0,1.9880000000000002,,,,
5.0,0.0,1.989,,,,
4.0,1.0,1.99,,,,
0.0,0.0,1.9909999999999999,,,,
0.0,-1.0,1.992,,,,
5.0,-1.0,1.993,,,,
4.0,0.0,1.994,,,,
-2.0,1.0,1.995,,,,
-7.0,0.0,1.996,,,,
-6.0,-5.0,1.9969999999999999,,,,
-3.0,-6.0,1.9980000000000002,,,,
3.0,-6.0,1.999,,,,
11.0,0.0,2.0,,,,
13.0,4.0,2.001,,,,
6.0,5.0,2.002,,,,
0.0,0.0,2.003,,,,
0.0,-2.0,2.004,,,,
4.0,0.0,2.005,,,,
4.0,1.0,2.006,,,,
2.0,-2.0,2.0069999999999997,,,,
3.0,-5.0,2.008,,,,
3.0,-4.0,2.009,,,,
2.0,-2.0,2.01,,,,
1.0,-2.0,2.011,,,,
5.0,-3.0,2.012,,,,
8.0,0.0,2.013,,,,
5.0,0.0,2.0140000000000002,,,,
0.0,-3.0,2.015,,,,
-4.0,-5.0,2.016,,,,
-6.0,-8.0,2.017,,,,
-6.0,-6.0,2.0180000000000002,,,,
0.0,-6.0,2.019,,,,
8.0,-3.0,2.02,,,,
8.0,2.0,2.021,,,,
1.0,6.0,2.022,,,,
0.0,4.0,2.023,,,,
5.0,0.0,2.024,,,,
8.0,-1.0,2.025,,,,
2.0,3.0,2.026,,,,
-3.0,4.0,2.0269999999999997,,,,
-1.0,1.0,2.028,,,,
1.0,0.0,2.029,,,,
1.0,1.0,2.03,,,,
0.0,0.0,2.031,,,,
1.0,-3.0,2.032,,,,
2.0,-3.0,2.033,,,,
1.0,-1.0,2.0340000000000003,,,,
0.0,-2.0,2.035,,,,
0.0,-5.0,2.036,,,,
-3.0,-10.0,2.037,,,,
-4.0,-7.0,2.0380000000000003,,,,
0.0,-1.0,2.039,,,,
9.0,2.0,2.04,,,,
10.0,3.0,2.041,,,,
3.0,3.0,2.042,,,,
-1.0,1.0,2.043,,,,
3.0,0.0,2.044,,,,
6.0,-1.0,2.045,,,,
4.0,0.0,2.046,,,,
2.0,2.0,2.0469999999999997,,,,
4.0,2.0,2.048,,,,
6.0,2.0,2.049,,,,
3.0,2.0,2.05,,,,
1.0,1.0,2.051,,,,
2.0,0.0,2.052,,,,
2.0,0.0,2.053,,,,
0.0,-2.0,2.0540000000000003,,,,
-1.0,-4.0,2.055,,,,
-2.0,-6.0,2.056,,,,
-5.0,-7.0,2.057,,,,
-7.0,-6.0,2.0580000000000003,,,,
0.0,-4.0,2.059,,,,
11.0,-1.0,2.06,,,,
12.0,4.0,2.061,,,,
4.0,6.0,2.062,,,,
0.0,2.0,2.063,,,,
3.0,-5.0,2.064,,,,
4.0,-5.0,2.065,,,,
0.0,-1.0,2.066,,,,
1.0,2.0,2.0669999999999997,,,,
7.0,-1.0,2.068,,,,
8.0,-4.0,2.069,,,,
3.0,-2.0,2.07,,,,
1.0,-1.0,2.0709999999999997,,,,
6.0,-2.0,2.072,,,,
10.0,0.0,2.073,,,,
5.0,1.0,2.074,,,,
2.0,0.0,2.075,,,,
1.0,-5.0,2.076,,,,
-1.0,-8.0,2.077,,,,
-3.0,-3.0,2.0780000000000003,,,,
1.0,0.0,2.079,,,,
11.0,-2.0,2.08,,,,
13.0,-2.0,2.081,,,,
5.0,3.0,2.082,,,,
3.0,5.0,2.083,,,,
9.0,0.0,2.084,,,,
10.0,-4.0,2.085,,,,
2.0,0.0,2.086,,,,
-1.0,4.0,2.0869999999999997,,,,
2.0,4.0,2.088,,,,
5.0,2.0,2.089,,,,
0.0,2.0,2.09,,,,
-2.0,0.0,2.0909999999999997,,,,
1.0,-3.0,2.092,,,,
5.0,0.0,2.093,,,,
2.0,1.0,2.094,,,,
-1.0,0.0,2.095,,,,
-4.0,-3.0,2.096,,,,
-5.0,-6.0,2.097,,,,
-6.0,-1.0,2.0980000000000003,,,,
-1.0,0.0,2.099,,,,
4.0,-3.0,2.1,,,,
7.0,-4.0,2.101,,,,
2.0,0.0,2.102,,,,
-1.0,2.0,2.103,,,,
1.0,-1.0,2.104,,,,
2.0,-4.0,2.105,,,,
1.0,-1.0,2.106,,,,
0.0,0.0,2.1069999999999998,,,,
1.0,-4.0,2.108,,,,
3.0,-4.0,2.109,,,,
2.0,1.0,2.11,,,,
1.0,4.0,2.1109999999999998,,,,
1.0,2.0,2.112,,,,
2.0,0.0,2.113,,,,
2.0,-1.0,2.114,,,,
2.0,-2.0,2.115,,,,
-1.0,-4.0,2.116,,,,
-5.0,-4.0,2.117,,,,
-5.0,-1.0,2.1180000000000003,,,,
0.0,0.0,2.119,,,,
8.0,-3.0,2.12,,,,
8.0,0.0,2.121,,,,
3.0,6.0,2.122,,,,
1.0,6.0,2.123,,,,
6.0,-1.0,2.124,,,,
7.0,-4.0,2.125,,,,
2.0,0.0,2.126,,,,
1.0,2.0,2.127,,,,
3.0,-3.0,2.128,,,,
7.0,-4.0,2.129,,,,
6.0,-1.0,2.13,,,,
1.0,1.0,2.131,,,,
-1.0,-2.0,2.1319999999999997,,,,
3.0,-1.0,2.133,,,,
4.0,1.0,2.134,,,,
1.0,1.0,2.135,,,,
-3.0,-2.0,2.136,,,,
-3.0,-6.0,2.137,,,,
0.0,-3.0,2.138,,,,
5.0,-3.0,2.1390000000000002,,,,
8.0,-3.0,2.14,,,,
5.0,0.0,2.141,,,,
3.0,6.0,2.142,,,,
3.0,6.0,2.1430000000000002,,,,
5.0,-1.0,2.144,,,,
6.0,-5.0,2.145,,,,
4.0,-4.0,2.146,,,,
2.0,-2.0,2.147,,,,
-1.0,-4.0,2.148,,,,
-1.0,-5.0,2.149,,,,
1.0,-1.0,2.15,,,,
4.0,1.0,2.151,,,,
5.0,-1.0,2.1519999999999997,,,,
4.0,-3.0,2.153,,,,
2.0,-5.0,2.154,,,,
0.0,-3.0,2.155,,,,
-4.0,-2.0,2.156,,,,
-6.0,-6.0,2.157,,,,
-4.0,-5.0,2.158,,,,
3.0,-1.0,2.1590000000000003,,,,
10.0,5.0,2.16,,,,
8.0,6.0,2.161,,,,
2.0,5.0,2.162,,,,
1.0,2.0,2.1630000000000003,,,,
3.0,0.0,2.164,,,,
4.0,0.0,2.165,,,,
0.0,1.0,2.166,,,,
-1.0,1.0,2.167,,,,
1.0,-2.0,2.168,,,,
5.0,-4.0,2.169,,,,
2.0,-3.0,2.17,,,,
-2.0,-3.0,2.171,,,,
-2.0,-4.0,2.1719999999999997,,,,
1.0,-4.0,2.173,,,,
3.0,-5.0,2.174,,,,
-1.0,-4.0,2.175,,,,
-6.0,-3.0,2.176,,,,
-7.0,-5.0,2.177,,,,
-5.0,-4.0,2.178,,,,
1.0,-1.0,2.1790000000000003,,,,
7.0,0.0,2.18,,,,
7.0,5.0,2.181,,,,
1.0,8.0,2.182,,,,
-3.0,6.0,2.1830000000000003,,,,
-1.0,0.0,2.184,,,,
3.0,0.0,2.185,,,,
4.0,2.0,2.186,,,,
1.0,2.0,2.187,,,,
1.0,-2.0,2.188,,,,
6.0,-2.0,2.189,,,,
7.0,-1.0,2.19,,,,
4.0,2.0,2.191,,,,
2.0,1.0,2.1919999999999997,,,,
5.0,0.0,2.193,,,,
6.0,-2.0,2.194,,,,
2.0,-2.0,2.195,,,,
-2.0,-2.0,2.1959999999999997,,,,
-3.0,-5.0,2.197,,,,
-2.0,-6.0,2.198,,,,
0.0,-5.0,2.199,,,,
6.0,-3.0,2.2,,,,
13.0,0.0,2.201,,,,
13.0,2.0,2.202,,,,
6.0,0.0,2.2030000000000003,,,,
3.0,-2.0,2.204,,,,
3.0,-1.0,2.205,,,,
1.0,4.0,2.206,,,,
-3.0,4.0,2.207,,,,
-2.0,-3.0,2.208,,,,
3.0,-7.0,2.209,,,,
6.0,-4.0,2.21,,,,
1.0,1.0,2.211,,,,
-1.0,2.0,2.2119999999999997,,,,
2.0,0.0,2.213,,,,
5.0,0.0,2.214,,,,
5.0,1.0,2.215,,,,
0.0,0.0,2.2159999999999997,,,,
-4.0,-6.0,2.217,,,,
-6.0,-8.0,2.218,,,,
0.0,-4.0,2.219,,,,
6.0,2.0,2.22,,,,
7.0,4.0,2.221,,,,
4.0,4.0,2.222,,,,
2.0,2.0,2.2230000000000003,,,,
4.0,2.0,2.224,,,,
6.0,0.0,2.225,,,,
3.0,-1.0,2.226,,,,
1.0,-2.0,2.227,,,,
3.0,-3.0,2.228,,,,
3.0,-1.0,2.229,,,,
2.0,4.0,2.23,,,,
1.0,7.0,2.231,,,,
3.0,4.0,2.2319999999999998,,,,
2.0,1.0,2.233,,,,
1.0,-2.0,2.234,,,,
0.0,-2.0,2.235,,,,
-2.0,-2.0,2.2359999999999998,,,,
-6.0,-5.0,2.237,,,,
-7.0,-5.0,2.238,,,,
-2.0,-3.0,2.239,,,,
7.0,0.0,2.24,,,,
9.0,2.0,2.241,,,,
2.0,0.0,2.242,,,,
-1.0,-2.0,2.2430000000000003,,,,
3.0,-5.0,2.244,,,,
8.0,-4.0,2.245,,,,
5.0,1.0,2.246,,,,
0.0,3.0,2.247,,,,
-1.0,0.0,2.248,,,,
1.0,-6.0,2.249,,,,
2.0,-7.0,2.25,,,,
3.0,-3.0,2.251,,,,
4.0,-2.0,2.252,,,,
6.0,0.0,2.253,,,,
5.0,-3.0,2.254,,,,
2.0,-4.0,2.255,,,,
-2.0,-4.0,2.256,,,,
-5.0,-5.0,2.2569999999999997,,,,
-5.0,-2.0,2.258,,,,
3.0,0.0,2.259,,,,
9.0,2.0,2.26,,,,
7.0,4.0,2.261,,,,
-1.0,5.0,2.262,,,,
-3.0,3.0,2.263,,,,
0.0,0.0,2.2640000000000002,,,,
2.0,0.0,2.265,,,,
4.0,2.0,2.266,,,,
5.0,4.0,2.267,,,,
6.0,3.0,2.2680000000000002,,,,
4.0,1.0,2.269,,,,
-2.0,0.0,2.27,,,,
-3.0,0.0,2.271,,,,
2.0,-3.0,2.272,,,,
7.0,-3.0,2.273,,,,
3.0,-2.0,2.274,,,,
-1.0,-1.0,2.275,,,,
-2.0,-2.0,2.276,,,,
-2.0,-5.0,2.2769999999999997,,,,
-1.0,-6.0,2.278,,,,
3.0,-3.0,2.279,,,,
10.0,-1.0,2.28,,,,
11.0,2.0,2.281,,,,
6.0,4.0,2.282,,,,
2.0,4.0,2.283,,,,
4.0,0.0,2.2840000000000003,,,,
6.0,-3.0,2.285,,,,
4.0,0.0,2.286,,,,
4.0,2.0,2.287,,,,
5.0,1.0,2.2880000000000003,,,,
5.0,0.0,2.289,,,,
2.0,0.0,2.29,,,,
0.0,0.0,2.291,,,,
1.0,0.0,2.292,,,,
1.0,0.0,2.293,,,,
-2.0,0.0,2.294,,,,
-3.0,-3.0,2.295,,,,
-2.0,-5.0,2.296,,,,
-3.0,-5.0,2.2969999999999997,,,,
-3.0,-2.0,2.298,,,,
2.0,-1.0,2.299,,,,
11.0,-1.0,2.3,,,,
11.0,0.0,2.301,,,,
1.0,5.0,2.302,,,,
-4.0,7.0,2.303,,,,
0.0,2.0,2.3040000000000003,,,,
7.0,-4.0,2.305,,,,
7.0,-5.0,2.306,,,,
3.0,-2.0,2.307,,,,
1.0,1.0,2.3080000000000003,,,,
2.0,-1.0,2.309,,,,
0.0,-3.0,2.31,,,,
0.0,-3.0,2.311,,,,
2.0,0.0,2.312,,,,
4.0,4.0,2.313,,,,
4.0,2.0,2.314,,,,
4.0,-1.0,2.315,,,,
2.0,-5.0,2.316,,,,
-1.0,-7.0,2.3169999999999997,,,,
-4.0,-4.0,2.318,,,,
0.0,-1.0,2.319,,,,
8.0,0.0,2.32,,,,
9.0,2.0,2.3209999999999997,,,,
4.0,3.0,2.322,,,,
3.0,1.0,2.323,,,,
7.0,-2.0,2.324,,,,
7.0,-2.0,2.325,,,,
3.0,2.0,2.326,,,,
1.0,2.0,2.327,,,,
6.0,0.0,2.3280000000000003,,,,
6.0,-3.0,2.329,,,,
1.0,-4.0,2.33,,,,
-2.0,-2.0,2.331,,,,
0.0,-3.0,2.332,,,,
6.0,-2.0,2.333,,,,
4.0,-3.0,2.334,,,,
0.0,-3.0,2.335,,,,
-1.0,-3.0,2.336,,,,
-2.0,-6.0,2.3369999999999997,,,,
-1.0,-6.0,2.338,,,,
1.0,-4.0,2.339,,,,
5.0,-2.0,2.34,,,,
6.0,2.0,2.3409999999999997,,,,
4.0,5.0,2.342,,,,
4.0,4.0,2.343,,,,
6.0,0.0,2.344,,,,
5.0,-3.0,2.345,,,,
1.0,0.0,2.346,,,,
-2.0,2.0,2.347,,,,
1.0,-1.0,2.3480000000000003,,,,
5.0,-3.0,2.349,,,,
4.0,-2.0,2.35,,,,
1.0,1.0,2.351,,,,
-2.0,0.0,2.352,,,,
-1.0,-3.0,2.353,,,,
-1.0,-5.0,2.354,,,,
-1.0,-5.0,2.355,,,,
-3.0,-4.0,2.356,,,,
-5.0,-6.0,2.3569999999999998,,,,
-4.0,-5.0,2.358,,,,
0.0,-2.0,2.359,,,,
8.0,0.0,2.36,,,,
10.0,4.0,2.3609999999999998,,,,
4.0,5.0,2.362,,,,
0.0,4.0,2.363,,,,
4.0,4.0,2.364,,,,
9.0,6.0,2.365,,,,
5.0,7.0,2.366,,,,
-1.0,5.0,2.367,,,,
-1.0,1.0,2.3680000000000003,,,,
4.0,-1.0,2.369,,,,
6.0,0.0,2.37,,,,
3.0,2.0,2.371,,,,
1.0,0.0,2.372,,,,
4.0,0.0,2.373,,,,
3.0,-2.0,2.374,,,,
-1.0,-3.0,2.375,,,,
-5.0,-4.0,2.376,,,,
-3.0,-6.0,2.377,,,,
-2.0,-4.0,2.378,,,,
0.0,-2.0,2.379,,,,
4.0,-3.0,2.38,,,,
7.0,-2.0,2.381,,,,
7.0,1.0,2.3819999999999997,,,,
4.0,4.0,2.383,,,,
3.0,3.0,2.384,,,,
1.0,2.0,2.385,,,,
-2.0,3.0,2.386,,,,
-3.0,2.0,2.387,,,,
-2.0,0.0,2.388,,,,
1.0,0.0,2.3890000000000002,,,,
2.0,2.0,2.39,,,,
1.0,3.0,2.391,,,,
3.0,2.0,2.392,,,,
8.0,2.0,2.3930000000000002,,,,
8.0,2.0,2.394,,,,
5.0,1.0,2.395,,,,
1.0,-3.0,2.396,,,,
-1.0,-9.0,2.397,,,,
-1.0,-10.0,2.398,,,,
4.0,-8.0,2.399,,,,
11.0,-4.0,2.4,,,,
12.0,-1.0,2.401,,,,
7.0,0.0,2.4019999999999997,,,,
1.0,-1.0,2.403,,,,
0.0,-1.0,2.404,,,,
0.0,0.0,2.405,,,,
-1.0,3.0,2.406,,,,
-1.0,3.0,2.407,,,,
1.0,1.0,2.408,,,,
1.0,0.0,2.4090000000000003,,,,
0.0,0.0,2.41,,,,
-3.0,0.0,2.411,,,,
-1.0,-1.0,2.412,,,,
1.0,-2.0,2.4130000000000003,,,,
1.0,-3.0,2.414,,,,
2.0,-4.0,2.415,,,,
1.0,-5.0,2.416,,,,
-2.0,-8.0,2.417,,,,
-4.0,-9.0,2.418,,,,
-3.0,-4.0,2.419,,,,
5.0,1.0,2.42,,,,
11.0,3.0,2.421,,,,
6.0,2.0,2.4219999999999997,,,,
1.0,3.0,2.423,,,,
2.0,4.0,2.424,,,,
5.0,5.0,2.425,,,,
5.0,2.0,2.426,,,,
4.0,-1.0,2.427,,,,
5.0,-2.0,2.428,,,,
6.0,-2.0,2.4290000000000003,,,,
3.0,-1.0,2.43,,,,
4.0,0.0,2.431,,,,
7.0,-2.0,2.432,,,,
9.0,-3.0,2.4330000000000003,,,,
3.0,-3.0,2.434,,,,
1.0,-1.0,2.435,,,,
0.0,-2.0,2.436,,,,
-3.0,-8.0,2.437,,,,
-6.0,-8.0,2.438,,,,
-2.0,-4.0,2.439,,,,
9.0,1.0,2.44,,,,
15.0,3.0,2.441,,,,
8.0,5.0,2.4419999999999997,,,,
-1.0,4.0,2.443,,,,
0.0,0.0,2.444,,,,
2.0,-2.0,2.445,,,,
0.0,-1.0,2.4459999999999997,,,,
-4.0,0.0,2.447,,,,
-2.0,-2.0,2.448,,,,
2.0,-5.0,2.449,,,,
0.0,-2.0,2.45,,,,
-2.0,1.0,2.451,,,,
-1.0,2.0,2.452,,,,
4.0,0.0,2.4530000000000003,,,,
4.0,-2.0,2.454,,,,
1.0,-2.0,2.455,,,,
-1.0,-4.0,2.456,,,,
-3.0,-7.0,2.457,,,,
-4.0,-4.0,2.458,,,,
-2.0,-1.0,2.459,,,,
4.0,0.0,2.46,,,,
9.0,0.0,2.461,,,,
5.0,4.0,2.4619999999999997,,,,
1.0,5.0,2.463,,,,
3.0,3.0,2.464,,,,
6.0,-1.0,2.465,,,,
1.0,-2.0,2.4659999999999997,,,,
-4.0,-2.0,2.467,,,,
-3.0,-2.0,2.468,,,,
0.0,-4.0,2.469,,,,
1.0,-3.0,2.47,,,,
0.0,-3.0,2.471,,,,
3.0,-4.0,2.472,,,,
7.0,-1.0,2.4730000000000003,,,,
2.0,1.0,2.474,,,,
-1.0,1.0,2.475,,,,
0.0,-1.0,2.476,,,,
0.0,-5.0,2.477,,,,
-3.0,-3.0,2.478,,,,
-3.0,0.0,2.479,,,,
6.0,2.0,2.48,,,,
12.0,5.0,2.481,,,,
5.0,8.0,2.4819999999999998,,,,
-1.0,6.0,2.483,,,,
2.0,0.0,2.484,,,,
6.0,-3.0,2.485,,,,
5.0,0.0,2.4859999999999998,,,,
3.0,3.0,2.487,,,,
7.0,0.0,2.488,,,,
9.0,-3.0,2.489,,,,
4.0,-3.0,2.49,,,,
1.0,-2.0,2.491,,,,
5.0,-4.0,2.492,,,,
12.0,-4.0,2.4930000000000003,,,,
9.0,-4.0,2.494,,,,
5.0,-4.0,2.495,,,,
2.0,-6.0,2.496,,,,
0.0,-11.0,2.497,,,,
-3.0,-11.0,2.498,,,,
0.0,-5.0,2.499,,,,
7.0,0.0,2.5,,,,
10.0,3.0,2.501,,,,
4.0,2.0,2.502,,,,
0.0,1.0,2.503,,,,
0.0,2.0,2.504,,,,
0.0,3.0,2.505,,,,
-2.0,3.0,2.506,,,,
-2.0,0.0,2.5069999999999997,,,,
0.0,-2.0,2.508,,,,
0.0,-1.0,2.509,,,,
-1.0,2.0,2.51,,,,
-1.0,3.0,2.511,,,,
0.0,2.0,2.512,,,,
0.0,2.0,2.513,,,,
-2.0,4.0,2.5140000000000002,,,,
-3.0,3.0,2.515,,,,
-2.0,0.0,2.516,,,,
-3.0,-4.0,2.517,,,,
-5.0,-3.0,2.5180000000000002,,,,
-1.0,3.0,2.519,,,,
7.0,6.0,2.52,,,,
9.0,7.0,2.521,,,,
5.0,9.0,2.522,,,,
3.0,9.0,2.523,,,,
5.0,5.0,2.524,,,,
5.0,0.0,2.525,,,,
0.0,-1.0,2.526,,,,
-4.0,0.0,2.5269999999999997,,,,
-2.0,0.0,2.528,,,,
1.0,2.0,2.529,,,,
1.0,4.0,2.53,,,,
0.0,0.0,2.531,,,,
0.0,-3.0,2.532,,,,
3.0,-3.0,2.533,,,,
3.0,-3.0,2.5340000000000003,,,,
4.0,-5.0,2.535,,,,
2.0,-8.0,2.536,,,,
-2.0,-8.0,2.537,,,,
-4.0,-3.0,2.5380000000000003,,,,
2.0,0.0,2.539,,,,
11.0,-2.0,2.54,,,,
9.0,-3.0,2.541,,,,
0.0,0.0,2.542,,,,
-2.0,1.0,2.543,,,,
3.0,-3.0,2.544,,,,
6.0,-5.0,2.545,,,,
1.0,-2.0,2.546,,,,
1.0,-2.0,2.5469999999999997,,,,
7.0,-6.0,2.548,,,,
10.0,-9.0,2.549,,,,
5.0,-4.0,2.55,,,,
2.0,0.0,2.551,,,,
6.0,0.0,2.552,,,,
11.0,-1.0,2.553,,,,
6.0,-3.0,2.5540000000000003,,,,
1.0,-3.0,2.555,,,,
-2.0,-4.0,2.556,,,,
-3.0,-9.0,2.557,,,,
-4.0,-8.0,2.5580000000000003,,,,
1.0,-5.0,2.559,,,,
12.0,-2.0,2.56,,,,
15.0,2.0,2.5610000000000004,,,,
5.0,6.0,2.562,,,,
0.0,5.0,2.563,,,,
2.0,-1.0,2.5639999999999996,,,,
6.0,-4.0,2.565,,,,
2.0,-1.0,2.5660000000000003,,,,
-2.0,3.0,2.5669999999999997,,,,
1.0,0.0,2.568,,,,
6.0,-2.0,2.569,,,,
6.0,0.0,2.57,,,,
3.0,3.0,2.571,,,,
1.0,3.0,2.572,,,,
3.0,1.0,2.573,,,,
3.0,-1.0,2.574,,,,
0.0,-2.0,2.575,,,,
-4.0,0.0,2.576,,,,
-5.0,-3.0,2.577,,,,
-4.0,-4.0,2.5780000000000003,,,,
-1.0,-1.0,2.5789999999999997,,,,
4.0,0.0,2.58,,,,
4.0,4.0,2.5810000000000004,,,,
0.0,4.0,2.582,,,,
-1.0,2.0,2.583,,,,
3.0,-1.0,2.5839999999999996,,,,
6.0,0.0,2.585,,,,
6.0,4.0,2.5860000000000003,,,,
4.0,6.0,2.5869999999999997,,,,
6.0,4.0,2.588,,,,
6.0,2.0,2.589,,,,
3.0,0.0,2.59,,,,
2.0,0.0,2.591,,,,
4.0,-2.0,2.592,,,,
7.0,-2.0,2.593,,,,
6.0,0.0,2.594,,,,
3.0,-1.0,2.595,,,,
0.0,-3.0,2.596,,,,
-4.0,-8.0,2.597,,,,
-4.0,-8.0,2.5980000000000003,,,,
-1.0,-4.0,2.5989999999999998,,,,
5.0,-2.0,2.6,,,,
7.0,-1.0,2.6010000000000004,,,,
2.0,2.0,2.602,,,,
-2.0,4.0,2.603,,,,
1.0,2.0,2.6039999999999996,,,,
6.0,-1.0,2.605,,,,
3.0,-1.0,2.6060000000000003,,,,
-1.0,0.0,2.6069999999999998,,,,
0.0,0.0,2.608,,,,
5.0,-2.0,2.609,,,,
8.0,-3.0,2.61,,,,
4.0,-4.0,2.611,,,,
0.0,-3.0,2.612,,,,
0.0,-1.0,2.613,,,,
1.0,-2.0,2.614,,,,
3.0,0.0,2.615,,,,
0.0,0.0,2.616,,,,
-6.0,-2.0,2.617,,,,
-9.0,-5.0,2.6180000000000003,,,,
-3.0,-8.0,2.6189999999999998,,,,
7.0,-7.0,2.62,,,,
11.0,0.0,2.6210000000000004,,,,
5.0,6.0,2.622,,,,
0.0,7.0,2.623,,,,
1.0,2.0,2.6239999999999997,,,,
5.0,1.0,2.625,,,,
3.0,1.0,2.6260000000000003,,,,
0.0,-1.0,2.627,,,,
-2.0,-5.0,2.628,,,,
-1.0,-7.0,2.6289999999999996,,,,
0.0,-4.0,2.63,,,,
-2.0,-1.0,2.6310000000000002,,,,
-3.0,-1.0,2.6319999999999997,,,,
0.0,0.0,2.633,,,,
4.0,0.0,2.634,,,,
6.0,-1.0,2.635,,,,
1.0,-2.0,2.636,,,,
-6.0,-4.0,2.637,,,,
-8.0,-3.0,2.638,,,,
-1.0,-2.0,2.639,,,,
9.0,0.0,2.64,,,,
11.0,2.0,2.641,,,,
3.0,5.0,2.642,,,,
-3.0,4.0,2.6430000000000002,,,,
0.0,0.0,2.6439999999999997,,,,
3.0,0.0,2.645,,,,
1.0,4.0,2.6460000000000004,,,,
-2.0,4.0,2.647,,,,
-2.0,0.0,2.648,,,,
-1.0,-1.0,2.6489999999999996,,,,
0.0,2.0,2.65,,,,
1.0,3.0,2.6510000000000002,,,,
4.0,-1.0,2.6519999999999997,,,,
5.0,-2.0,2.653,,,,
2.0,-2.0,2.654,,,,
1.0,-4.0,2.655,,,,
3.0,-6.0,2.656,,,,
4.0,-7.0,2.657,,,,
3.0,-4.0,2.658,,,,
5.0,-2.0,2.659,,,,
11.0,-2.0,2.66,,,,
14.0,-1.0,2.661,,,,
10.0,3.0,2.662,,,,
5.0,3.0,2.6630000000000003,,,,
7.0,-1.0,2.6639999999999997,,,,
9.0,-2.0,2.665,,,,
5.0,2.0,2.6660000000000004,,,,
2.0,1.0,2.667,,,,
2.0,-1.0,2.668,,,,
3.0,-2.0,2.6689999999999996,,,,
3.0,1.0,2.67,,,,
2.0,4.0,2.6710000000000003,,,,
4.0,1.0,2.6719999999999997,,,,
6.0,-1.0,2.673,,,,
1.0,-1.0,2.674,,,,
-1.0,-1.0,2.675,,,,
-1.0,-5.0,2.676,,,,
-1.0,-8.0,2.677,,,,
-5.0,-7.0,2.678,,,,
-4.0,-6.0,2.679,,,,
3.0,-3.0,2.68,,,,
8.0,0.0,2.681,,,,
3.0,7.0,2.682,,,,
0.0,6.0,2.6830000000000003,,,,
3.0,3.0,2.6839999999999997,,,,
7.0,0.0,2.685,,,,
3.0,2.0,2.6860000000000004,,,,
0.0,4.0,2.687,,,,
-1.0,3.0,2.688,,,,
-2.0,1.0,2.6889999999999996,,,,
-4.0,-1.0,2.69,,,,
-4.0,-4.0,2.6910000000000003,,,,
-2.0,-5.0,2.6919999999999997,,,,
1.0,-2.0,2.693,,,,
1.0,1.0,2.694,,,,
-1.0,2.0,2.695,,,,
-4.0,0.0,2.696,,,,
-7.0,-5.0,2.697,,,,
-9.0,-7.0,2.698,,,,
-5.0,-6.0,2.699,,,,
3.0,-2.0,2.7,,,,
8.0,5.0,2.701,,,,
6.0,8.0,2.702,,,,
5.0,4.0,2.7030000000000003,,,,
5.0,-1.0,2.7039999999999997,,,,
5.0,1.0,2.705,,,,
1.0,6.0,2.7060000000000004,,,,
1.0,6.0,2.707,,,,
4.0,2.0,2.708,,,,
7.0,2.0,2.7089999999999996,,,,
7.0,4.0,2.71,,,,
5.0,3.0,2.7110000000000003,,,,
6.0,-4.0,2.7119999999999997,,,,
5.0,-6.0,2.713,,,,
2.0,-1.0,2.714,,,,
0.0,1.0,2.715,,,,
-2.0,-1.0,2.716,,,,
-2.0,-8.0,2.717,,,,
-1.0,-9.0,2.718,,,,
2.0,-5.0,2.719,,,,
8.0,-2.0,2.72,,,,
7.0,0.0,2.721,,,,
0.0,3.0,2.722,,,,
-2.0,5.0,2.7230000000000003,,,,
1.0,3.0,2.7239999999999998,,,,
4.0,0.0,2.725,,,,
2.0,-1.0,2.7260000000000004,,,,
-1.0,-1.0,2.727,,,,
-1.0,-2.0,2.728,,,,
0.0,-1.0,2.7289999999999996,,,,
1.0,2.0,2.73,,,,
1.0,2.0,2.7310000000000003,,,,
3.0,0.0,2.7319999999999998,,,,
4.0,-2.0,2.733,,,,
3.0,-3.0,2.734,,,,
0.0,-2.0,2.735,,,,
-4.0,-1.0,2.736,,,,
-5.0,-4.0,2.737,,,,
-4.0,-4.0,2.738,,,,
1.0,-1.0,2.739,,,,
8.0,1.0,2.74,,,,
8.0,3.0,2.741,,,,
3.0,1.0,2.742,,,,
-1.0,1.0,2.7430000000000003,,,,
1.0,0.0,2.7439999999999998,,,,
3.0,-1.0,2.745,,,,
1.0,-2.0,2.7460000000000004,,,,
-1.0,-1.0,2.747,,,,
0.0,-1.0,2.748,,,,
3.0,-2.0,2.7489999999999997,,,,
5.0,-3.0,2.75,,,,
4.0,-1.0,2.7510000000000003,,,,
3.0,0.0,2.752,,,,
4.0,0.0,2.753,,,,
2.0,-3.0,2.7539999999999996,,,,
0.0,-4.0,2.755,,,,
-3.0,-3.0,2.7560000000000002,,,,
-5.0,-4.0,2.7569999999999997,,,,
-5.0,-4.0,2.758,,,,
1.0,-5.0,2.759,,,,
9.0,-4.0,2.76,,,,
12.0,-2.0,2.761,,,,
8.0,0.0,2.762,,,,
4.0,1.0,2.763,,,,
5.0,4.0,2.764,,,,
8.0,3.0,2.765,,,,
5.0,1.0,2.766,,,,
3.0,0.0,2.767,,,,
3.0,-2.0,2.7680000000000002,,,,
5.0,-3.0,2.7689999999999997,,,,
5.0,-2.0,2.77,,,,
2.0,-1.0,2.7710000000000004,,,,
3.0,-1.0,2.772,,,,
6.0,0.0,2.773,,,,
7.0,-2.0,2.7739999999999996,,,,
4.0,-3.0,2.775,,,,
-1.0,-4.0,2.7760000000000002,,,,
-6.0,-9.0,2.7769999999999997,,,,
-4.0,-7.0,2.778,,,,
3.0,-3.0,2.779,,,,
11.0,1.0,2.78,,,,
9.0,2.0,2.781,,,,
1.0,3.0,2.782,,,,
-1.0,5.0,2.783,,,,
3.0,3.0,2.784,,,,
8.0,1.0,2.785,,,,
7.0,0.0,2.786,,,,
3.0,2.0,2.787,,,,
2.0,2.0,2.7880000000000003,,,,
1.0,0.0,2.7889999999999997,,,,
0.0,-1.0,2.79,,,,
0.0,0.0,2.7910000000000004,,,,
1.0,-2.0,2.792,,,,
2.0,-4.0,2.793,,,,
1.0,-4.0,2.7939999999999996,,,,
1.0,-2.0,2.795,,,,
-2.0,-2.0,2.7960000000000003,,,,
-8.0,-9.0,2.7969999999999997,,,,
-9.0,-12.0,2.798,,,,
-2.0,-9.0,2.799,,,,
5.0,-3.0,2.8,,,,
4.0,0.0,2.801,,,,
-1.0,1.0,2.802,,,,
0.0,2.0,2.803,,,,
4.0,3.0,2.804,,,,
4.0,4.0,2.805,,,,
-1.0,3.0,2.806,,,,
-2.0,0.0,2.807,,,,
3.0,-3.0,2.8080000000000003,,,,
6.0,-1.0,2.8089999999999997,,,,
3.0,2.0,2.81,,,,
1.0,2.0,2.8110000000000004,,,,
2.0,-1.0,2.812,,,,
3.0,-1.0,2.813,,,,
3.0,-1.0,2.8139999999999996,,,,
4.0,-1.0,2.815,,,,
4.0,-3.0,2.8160000000000003,,,,
0.0,-6.0,2.8169999999999997,,,,
-6.0,-5.0,2.818,,,,
-2.0,-1.0,2.819,,,,
8.0,4.0,2.82,,,,
12.0,5.0,2.821,,,,
5.0,5.0,2.822,,,,
0.0,2.0,2.823,,,,
3.0,-1.0,2.824,,,,
7.0,-1.0,2.825,,,,
5.0,1.0,2.826,,,,
3.0,2.0,2.827,,,,
4.0,0.0,2.8280000000000003,,,,
4.0,-2.0,2.8289999999999997,,,,
-1.0,-1.0,2.83,,,,
-4.0,0.0,2.8310000000000004,,,,
0.0,0.0,2.832,,,,
4.0,1.0,2.833,,,,
3.0,0.0,2.8339999999999996,,,,
0.0,-2.0,2.835,,,,
-3.0,-5.0,2.8360000000000003,,,,
-4.0,-7.0,2.8369999999999997,,,,
0.0,-6.0,2.838,,,,
6.0,-3.0,2.839,,,,
13.0,0.0,2.84,,,,
10.0,2.0,2.841,,,,
1.0,4.0,2.842,,,,
-1.0,5.0,2.843,,,,
3.0,3.0,2.844,,,,
9.0,2.0,2.845,,,,
6.0,1.0,2.846,,,,
2.0,0.0,2.847,,,,
4.0,-1.0,2.8480000000000003,,,,
6.0,-1.0,2.8489999999999998,,,,
6.0,-1.0,2.85,,,,
3.0,-1.0,2.8510000000000004,,,,
1.0,0.0,2.852,,,,
0.0,2.0,2.853,,,,
-1.0,1.0,2.8539999999999996,,,,
-1.0,0.0,2.855,,,,
-1.0,-2.0,2.8560000000000003,,,,
-2.0,-4.0,2.8569999999999998,,,,
-3.0,0.0,2.858,,,,
0.0,0.0,2.859,,,,
6.0,-2.0,2.86,,,,
6.0,-1.0,2.861,,,,
2.0,2.0,2.862,,,,
1.0,4.0,2.863,,,,
5.0,1.0,2.864,,,,
7.0,-2.0,2.865,,,,
3.0,-3.0,2.866,,,,
0.0,-3.0,2.867,,,,
1.0,-4.0,2.8680000000000003,,,,
2.0,-5.0,2.8689999999999998,,,,
1.0,-3.0,2.87,,,,
2.0,-2.0,2.8710000000000004,,,,
5.0,-3.0,2.872,,,,
7.0,-2.0,2.873,,,,
3.0,-2.0,2.8739999999999997,,,,
0.0,-2.0,2.875,,,,
-3.0,-3.0,2.8760000000000003,,,,
-4.0,-7.0,2.877,,,,
-4.0,-7.0,2.878,,,,
1.0,-3.0,2.8789999999999996,,,,
7.0,3.0,2.88,,,,
9.0,6.0,2.8810000000000002,,,,
3.0,6.0,2.8819999999999997,,,,
-2.0,4.0,2.883,,,,
0.0,1.0,2.884,,,,
2.0,-2.0,2.885,,,,
3.0,-3.0,2.886,,,,
1.0,-1.0,2.887,,,,
0.0,3.0,2.888,,,,
0.0,4.0,2.889,,,,
0.0,1.0,2.89,,,,
0.0,-2.0,2.891,,,,
1.0,-2.0,2.892,,,,
5.0,0.0,2.8930000000000002,,,,
5.0,-1.0,2.8939999999999997,,,,
4.0,-3.0,2.895,,,,
0.0,-3.0,2.8960000000000004,,,,
-3.0,-5.0,2.897,,,,
-4.0,-8.0,2.898,,,,
0.0,-7.0,2.8989999999999996,,,,
7.0,-3.0,2.9,,,,
8.0,0.0,2.9010000000000002,,,,
3.0,2.0,2.9019999999999997,,,,
0.0,2.0,2.903,,,,
3.0,1.0,2.904,,,,
6.0,2.0,2.905,,,,
4.0,1.0,2.906,,,,
1.0,-1.0,2.907,,,,
3.0,-3.0,2.908,,,,
8.0,0.0,2.909,,,,
10.0,5.0,2.91,,,,
5.0,3.0,2.911,,,,
1.0,-2.0,2.912,,,,
2.0,-3.0,2.9130000000000003,,,,
4.0,-2.0,2.9139999999999997,,,,
3.0,-1.0,2.915,,,,
-1.0,-4.0,2.9160000000000004,,,,
-5.0,-6.0,2.917,,,,
-5.0,-4.0,2.918,,,,
0.0,-1.0,2.9189999999999996,,,,
8.0,-1.0,2.92,,,,
10.0,1.0,2.9210000000000003,,,,
5.0,6.0,2.9219999999999997,,,,
0.0,5.0,2.923,,,,
0.0,-2.0,2.924,,,,
2.0,-4.0,2.925,,,,
1.0,1.0,2.926,,,,
0.0,7.0,2.927,,,,
0.0,3.0,2.928,,,,
2.0,-1.0,2.929,,,,
1.0,0.0,2.93,,,,
1.0,1.0,2.931,,,,
3.0,-2.0,2.932,,,,
7.0,-4.0,2.9330000000000003,,,,
5.0,-3.0,2.9339999999999997,,,,
3.0,0.0,2.935,,,,
-1.0,-2.0,2.9360000000000004,,,,
-4.0,-7.0,2.937,,,,
-6.0,-6.0,2.938,,,,
-3.0,0.0,2.9389999999999996,,,,
2.0,2.0,2.94,,,,
3.0,3.0,2.9410000000000003,,,,
1.0,4.0,2.9419999999999997,,,,
1.0,3.0,2.943,,,,
2.0,0.0,2.944,,,,
1.0,-1.0,2.945,,,,
0.0,0.0,2.946,,,,
0.0,2.0,2.947,,,,
1.0,0.0,2.948,,,,
2.0,-3.0,2.949,,,,
3.0,-5.0,2.95,,,,
7.0,-2.0,2.951,,,,
8.0,0.0,2.952,,,,
5.0,1.0,2.9530000000000003,,,,
1.0,-2.0,2.9539999999999997,,,,
2.0,-5.0,2.955,,,,
1.0,-5.0,2.9560000000000004,,,,
-2.0,-8.0,2.957,,,,
-2.0,-7.0,2.958,,,,
4.0,-5.0,2.9589999999999996,,,,
9.0,-3.0,2.96,,,,
5.0,2.0,2.9610000000000003,,,,
0.0,6.0,2.9619999999999997,,,,
0.0,5.0,2.963,,,,
5.0,0.0,2.964,,,,
4.0,-1.0,2.965,,,,
0.0,2.0,2.966,,,,
1.0,1.0,2.967,,,,
5.0,-1.0,2.968,,,,
7.0,-3.0,2.969,,,,
3.0,0.0,2.97,,,,
3.0,2.0,2.971,,,,
4.0,0.0,2.972,,,,
4.0,-1.0,2.9730000000000003,,,,
3.0,-3.0,2.9739999999999998,,,,
2.0,-6.0,2.975,,,,
0.0,-8.0,2.9760000000000004,,,,
-3.0,-9.0,2.977,,,,
-3.0,-6.0,2.978,,,,
1.0,-2.0,2.9789999999999996,,,,
9.0,0.0,2.98,,,,
10.0,3.0,2.9810000000000003,,,,
5.0,6.0,2.9819999999999998,,,,
1.0,3.0,2.983,,,,
4.0,-1.0,2.984,,,,
9.0,-2.0,2.985,,,,
5.0,0.0,2.986,,,,
-1.0,1.0,2.987,,,,
-5.0,-2.0,2.988,,,,
-1.0,-3.0,2.989,,,,
2.0,-1.0,2.99,,,,
3.0,1.0,2.991,,,,
2.0,1.0,2.992,,,,
3.0,2.0,2.9930000000000003,,,,
2.0,6.0,2.9939999999999998,,,,
0.0,7.0,2.995,,,,
-2.0,2.0,2.9960000000000004,,,,
-5.0,-6.0,2.997,,,,
-6.0,-5.0,2.998,,,,
-3.0,-2.0,2.9989999999999997,,,,
3.0,0.0,3.0,,,,
6.0,1.0,3.0010000000000003,,,,
1.0,1.0,3.002,,,,
-2.0,0.0,3.003,,,,
0.0,-3.0,3.0039999999999996,,,,
3.0,-4.0,3.005,,,,
2.0,-2.0,3.0060000000000002,,,,
0.0,-1.0,3.0069999999999997,,,,
0.0,-1.0,3.008,,,,
1.0,-3.0,3.009,,,,
-1.0,-1.0,3.01,,,,
-2.0,0.0,3.011,,,,
2.0,-1.0,3.012,,,,
7.0,-2.0,3.013,,,,
7.0,-4.0,3.014,,,,
3.0,-4.0,3.015,,,,
1.0,-5.0,3.016,,,,
0.0,-6.0,3.017,,,,
-3.0,-4.0,3.0180000000000002,,,,
0.0,-3.0,3.0189999999999997,,,,
7.0,-1.0,3.02,,,,
10.0,2.0,3.0210000000000004,,,,
4.0,5.0,3.022,,,,
0.0,3.0,3.023,,,,
1.0,0.0,3.0239999999999996,,,,
3.0,-1.0,3.025,,,,
2.0,0.0,3.0260000000000002,,,,
1.0,0.0,3.0269999999999997,,,,
5.0,-1.0,3.028,,,,
7.0,0.0,3.029,,,,
3.0,1.0,3.03,,,,
-2.0,-1.0,3.031,,,,
0.0,-4.0,3.032,,,,
5.0,-1.0,3.033,,,,
5.0,0.0,3.034,,,,
2.0,-1.0,3.035,,,,
-2.0,-3.0,3.036,,,,
-4.0,-3.0,3.037,,,,
-3.0,0.0,3.0380000000000003,,,,
1.0,1.0,3.0389999999999997,,,,
6.0,-3.0,3.04,,,,
6.0,-3.0,3.0410000000000004,,,,
1.0,0.0,3.042,,,,
-1.0,2.0,3.043,,,,
3.0,-2.0,3.0439999999999996,,,,
6.0,-5.0,3.045,,,,
3.0,-1.0,3.0460000000000003,,,,
0.0,6.0,3.0469999999999997,,,,
0.0,5.0,3.048,,,,
-1.0,-1.0,3.049,,,,
-3.0,-5.0,3.05,,,,
-1.0,-5.0,3.051,,,,
2.0,-4.0,3.052,,,,
4.0,-2.0,3.053,,,,
3.0,0.0,3.054,,,,
1.0,1.0,3.055,,,,
2.0,-2.0,3.056,,,,
0.0,-7.0,3.057,,,,
-2.0,-7.0,3.0580000000000003,,,,
1.0,-4.0,3.0589999999999997,,,,
9.0,1.0,3.06,,,,
10.0,4.0,3.0610000000000004,,,,
3.0,5.0,3.062,,,,
-2.0,4.0,3.063,,,,
2.0,2.0,3.0639999999999996,,,,
8.0,3.0,3.065,,,,
7.0,6.0,3.0660000000000003,,,,
5.0,5.0,3.0669999999999997,,,,
5.0,0.0,3.068,,,,
5.0,-2.0,3.069,,,,
2.0,0.0,3.07,,,,
2.0,0.0,3.071,,,,
4.0,-1.0,3.072,,,,
4.0,-1.0,3.073,,,,
1.0,0.0,3.074,,,,
1.0,0.0,3.075,,,,
1.0,-3.0,3.076,,,,
-1.0,-7.0,3.077,,,,
-3.0,-6.0,3.0780000000000003,,,,
3.0,-4.0,3.0789999999999997,,,,
13.0,-2.0,3.08,,,,
13.0,0.0,3.0810000000000004,,,,
3.0,4.0,3.082,,,,
-2.0,5.0,3.083,,,,
1.0,4.0,3.0839999999999996,,,,
3.0,2.0,3.085,,,,
-1.0,0.0,3.0860000000000003,,,,
-5.0,-3.0,3.0869999999999997,,,,
-5.0,-4.0,3.088,,,,
-1.0,-3.0,3.089,,,,
2.0,-2.0,3.09,,,,
4.0,-3.0,3.091,,,,
3.0,-4.0,3.092,,,,
3.0,-3.0,3.093,,,,
3.0,-4.0,3.094,,,,
2.0,-6.0,3.095,,,,
0.0,-6.0,3.096,,,,
-4.0,-6.0,3.097,,,,
-2.0,-2.0,3.0980000000000003,,,,
5.0,0.0,3.0989999999999998,,,,
10.0,-1.0,3.1,,,,
7.0,1.0,3.1010000000000004,,,,
1.0,4.0,3.102,,,,
-1.0,5.0,3.103,,,,
0.0,3.0,3.1039999999999996,,,,
1.0,0.0,3.105,,,,
3.0,0.0,3.1060000000000003,,,,
2.0,2.0,3.1069999999999998,,,,
2.0,4.0,3.108,,,,
0.0,4.0,3.109,,,,
1.0,4.0,3.11,,,,
2.0,4.0,3.111,,,,
4.0,1.0,3.112,,,,
5.0,-2.0,3.113,,,,
5.0,-4.0,3.114,,,,
3.0,-4.0,3.115,,,,
-1.0,-2.0,3.116,,,,
-4.0,-5.0,3.117,,,,
-5.0,-5.0,3.1180000000000003,,,,
0.0,-1.0,3.1189999999999998,,,,
9.0,2.0,3.12,,,,
13.0,5.0,3.1210000000000004,,,,
8.0,4.0,3.122,,,,
3.0,2.0,3.123,,,,
3.0,-1.0,3.1239999999999997,,,,
4.0,-2.0,3.125,,,,
0.0,-2.0,3.1260000000000003,,,,
-2.0,-1.0,3.127,,,,
-1.0,-1.0,3.128,,,,
3.0,-2.0,3.1289999999999996,,,,
3.0,-4.0,3.13,,,,
0.0,-4.0,3.1310000000000002,,,,
-3.0,-4.0,3.1319999999999997,,,,
-2.0,-3.0,3.133,,,,
0.0,-1.0,3.134,,,,
1.0,0.0,3.135,,,,
0.0,-1.0,3.136,,,,
-2.0,-5.0,3.137,,,,
-2.0,-6.0,3.138,,,,
7.0,-4.0,3.139,,,,
14.0,0.0,3.14,,,,
12.0,0.0,3.141,,,,
5.0,0.0,3.142,,,,
3.0,-1.0,3.1430000000000002,,,,
8.0,-2.0,3.1439999999999997,,,,
10.0,-3.0,3.145,,,,
4.0,-3.0,3.1460000000000004,,,,
0.0,-4.0,3.147,,,,
1.0,-5.0,3.148,,,,
2.0,-6.0,3.1489999999999996,,,,
0.0,-3.0,3.15,,,,
0.0,-2.0,3.1510000000000002,,,,
4.0,-2.0,3.1519999999999997,,,,
7.0,-2.0,3.153,,,,
2.0,-2.0,3.154,,,,
-3.0,0.0,3.155,,,,
-4.0,0.0,3.156,,,,
-5.0,-4.0,3.157,,,,
-8.0,-4.0,3.158,,,,
-6.0,0.0,3.159,,,,
2.0,5.0,3.16,,,,
9.0,7.0,3.161,,,,
3.0,8.0,3.162,,,,
-3.0,7.0,3.1630000000000003,,,,
-1.0,6.0,3.1639999999999997,,,,
4.0,5.0,3.165,,,,
4.0,7.0,3.1660000000000004,,,,
0.0,9.0,3.167,,,,
3.0,7.0,3.168,,,,
7.0,3.0,3.1689999999999996,,,,
3.0,1.0,3.17,,,,
-3.0,2.0,3.1710000000000003,,,,
-2.0,1.0,3.1719999999999997,,,,
3.0,1.0,3.173,,,,
5.0,-1.0,3.174,,,,
3.0,-1.0,3.175,,,,
-2.0,0.0,3.176,,,,
-4.0,-5.0,3.177,,,,
-3.0,-6.0,3.178,,,,
3.0,-6.0,3.179,,,,
8.0,-3.0,3.18,,,,
6.0,0.0,3.181,,,,
3.0,3.0,3.182,,,,
5.0,3.0,3.1830000000000003,,,,
9.0,1.0,3.1839999999999997,,,,
7.0,1.0,3.185,,,,
1.0,1.0,3.1860000000000004,,,,
1.0,0.0,3.187,,,,
7.0,-2.0,3.188,,,,
9.0,-2.0,3.1889999999999996,,,,
5.0,-1.0,3.19,,,,
4.0,-1.0,3.1910000000000003,,,,
4.0,-5.0,3.1919999999999997,,,,
4.0,-7.0,3.193,,,,
0.0,-8.0,3.194,,,,
0.0,-7.0,3.195,,,,
0.0,-5.0,3.196,,,,
-1.0,-7.0,3.197,,,,
0.0,-6.0,3.198,,,,
4.0,-4.0,3.199,,,,
8.0,-3.0,3.2,,,,
8.0,1.0,3.201,,,,
2.0,5.0,3.202,,,,
1.0,3.0,3.2030000000000003,,,,
6.0,-3.0,3.2039999999999997,,,,
9.0,-6.0,3.205,,,,
7.0,-2.0,3.2060000000000004,,,,
5.0,0.0,3.207,,,,
3.0,-3.0,3.208,,,,
0.0,-6.0,3.2089999999999996,,,,
-1.0,-3.0,3.21,,,,
0.0,0.0,3.2110000000000003,,,,
2.0,0.0,3.2119999999999997,,,,
3.0,-1.0,3.213,,,,
3.0,-1.0,3.214,,,,
2.0,0.0,3.215,,,,
-1.0,-2.0,3.216,,,,
-4.0,-6.0,3.217,,,,
-4.0,-5.0,3.218,,,,
0.0,0.0,3.219,,,,
4.0,1.0,3.22,,,,
5.0,0.0,3.221,,,,
5.0,1.0,3.222,,,,
4.0,3.0,3.2230000000000003,,,,
1.0,4.0,3.2239999999999998,,,,
-3.0,2.0,3.225,,,,
-4.0,1.0,3.2260000000000004,,,,
-2.0,1.0,3.227,,,,
2.0,0.0,3.228,,,,
2.0,-1.0,3.2289999999999996,,,,
2.0,-3.0,3.23,,,,
2.0,-3.0,3.2310000000000003,,,,
1.0,-3.0,3.2319999999999998,,,,
0.0,0.0,3.233,,,,
0.0,0.0,3.234,,,,
0.0,1.0,3.235,,,,
-1.0,-1.0,3.236,,,,
-4.0,-6.0,3.237,,,,
-6.0,-4.0,3.238,,,,
-2.0,-2.0,3.239,,,,
6.0,0.0,3.24,,,,
10.0,0.0,3.241,,,,
6.0,0.0,3.242,,,,
1.0,4.0,3.2430000000000003,,,,
0.0,1.0,3.2439999999999998,,,,
1.0,-4.0,3.245,,,,
0.0,-4.0,3.2460000000000004,,,,
-1.0,1.0,3.247,,,,
1.0,5.0,3.248,,,,
3.0,0.0,3.2489999999999997,,,,
3.0,-3.0,3.25,,,,
1.0,-1.0,3.2510000000000003,,,,
1.0,1.0,3.252,,,,
2.0,2.0,3.253,,,,
0.0,-2.0,3.2539999999999996,,,,
-3.0,-4.0,3.255,,,,
-5.0,-3.0,3.2560000000000002,,,,
-7.0,-6.0,3.2569999999999997,,,,
-6.0,-7.0,3.258,,,,
-1.0,-6.0,3.259,,,,
7.0,-4.0,3.26,,,,
10.0,0.0,3.261,,,,
4.0,1.0,3.262,,,,
-1.0,-1.0,3.263,,,,
1.0,-3.0,3.264,,,,
4.0,-2.0,3.265,,,,
3.0,1.0,3.266,,,,
-1.0,3.0,3.267,,,,
0.0,1.0,3.2680000000000002,,,,
3.0,0.0,3.2689999999999997,,,,
3.0,0.0,3.27,,,,
2.0,0.0,3.2710000000000004,,,,
3.0,-3.0,3.272,,,,
7.0,-3.0,3.273,,,,
8.0,-1.0,3.2739999999999996,,,,
5.0,-1.0,3.275,,,,
1.0,-1.0,3.2760000000000002,,,,
-2.0,-3.0,3.2769999999999997,,,,
-2.0,-2.0,3.278,,,,
2.0,-1.0,3.279,,,,
7.0,0.0,3.28,,,,
5.0,1.0,3.281,,,,
0.0,4.0,3.282,,,,
4.0,1.0,3.283,,,,
9.0,-2.0,3.284,,,,
8.0,-2.0,3.285,,,,
2.0,1.0,3.286,,,,
2.0,0.0,3.287,,,,
9.0,-1.0,3.2880000000000003,,,,
8.0,1.0,3.2889999999999997,,,,
1.0,6.0,3.29,,,,
0.0,5.0,3.2910000000000004,,,,
5.0,-1.0,3.292,,,,
9.0,-2.0,3.293,,,,
5.0,0.0,3.2939999999999996,,,,
1.0,-2.0,3.295,,,,
-1.0,-5.0,3.2960000000000003,,,,
-5.0,-7.0,3.2969999999999997,,,,
-9.0,-4.0,3.298,,,,
-2.0,-3.0,3.299,,,,
8.0,-4.0,3.3,,,,
8.0,-2.0,3.301,,,,
0.0,2.0,3.302,,,,
0.0,4.0,3.303,,,,
6.0,1.0,3.304,,,,
7.0,1.0,3.305,,,,
1.0,2.0,3.306,,,,
-1.0,2.0,3.307,,,,
2.0,-3.0,3.3080000000000003,,,,
2.0,-3.0,3.3089999999999997,,,,
-3.0,1.0,3.31,,,,
-4.0,3.0,3.3110000000000004,,,,
1.0,-1.0,3.312,,,,
5.0,-5.0,3.313,,,,
2.0,-4.0,3.3139999999999996,,,,
1.0,-1.0,3.315,,,,
2.0,-1.0,3.3160000000000003,,,,
-1.0,-5.0,3.3169999999999997,,,,
-5.0,-3.0,3.318,,,,
-3.0,-2.0,3.319,,,,
6.0,-3.0,3.32,,,,
11.0,-3.0,3.321,,,,
5.0,4.0,3.322,,,,
0.0,10.0,3.323,,,,
0.0,5.0,3.324,,,,
0.0,0.0,3.325,,,,
0.0,1.0,3.326,,,,
-1.0,2.0,3.327,,,,
1.0,-2.0,3.3280000000000003,,,,
1.0,-6.0,3.3289999999999997,,,,
0.0,-3.0,3.33,,,,
0.0,2.0,3.3310000000000004,,,,
3.0,0.0,3.332,,,,
5.0,-4.0,3.333,,,,
2.0,-6.0,3.3339999999999996,,,,
1.0,-2.0,3.335,,,,
0.0,-1.0,3.3360000000000003,,,,
-2.0,-6.0,3.3369999999999997,,,,
-3.0,-7.0,3.338,,,,
1.0,-3.0,3.339,,,,
10.0,-1.0,3.34,,,,
12.0,1.0,3.341,,,,
6.0,3.0,3.342,,,,
2.0,1.0,3.343,,,,
3.0,-3.0,3.344,,,,
5.0,-5.0,3.345,,,,
5.0,-3.0,3.346,,,,
7.0,0.0,3.347,,,,
9.0,-2.0,3.3480000000000003,,,,
6.0,-5.0,3.3489999999999998,,,,
2.0,-3.0,3.35,,,,
1.0,-2.0,3.3510000000000004,,,,
3.0,-2.0,3.352,,,,
5.0,-2.0,3.353,,,,
2.0,0.0,3.3539999999999996,,,,
1.0,-3.0,3.355,,,,
-1.0,-6.0,3.3560000000000003,,,,
-3.0,-8.0,3.3569999999999998,,,,
-3.0,-4.0,3.358,,,,
3.0,0.0,3.359,,,,
13.0,0.0,3.36,,,,
13.0,-1.0,3.361,,,,
5.0,1.0,3.362,,,,
1.0,3.0,3.363,,,,
6.0,2.0,3.364,,,,
9.0,1.0,3.365,,,,
5.0,2.0,3.366,,,,
0.0,2.0,3.367,,,,
0.0,0.0,3.3680000000000003,,,,
2.0,-2.0,3.3689999999999998,,,,
1.0,-1.0,3.37,,,,
-2.0,0.0,3.3710000000000004,,,,
-4.0,-1.0,3.372,,,,
-1.0,0.0,3.373,,,,
0.0,0.0,3.3739999999999997,,,,
0.0,-1.0,3.375,,,,
0.0,-2.0,3.3760000000000003,,,,
-1.0,-3.0,3.377,,,,
-3.0,-1.0,3.378,,,,
-2.0,0.0,3.3789999999999996,,,,
3.0,1.0,3.38,,,,
6.0,4.0,3.3810000000000002,,,,
4.0,6.0,3.3819999999999997,,,,
1.0,4.0,3.383,,,,
3.0,-2.0,3.384,,,,
4.0,-1.0,3.385,,,,
2.0,2.0,3.386,,,,
-1.0,1.0,3.387,,,,
-1.0,-3.0,3.388,,,,
2.0,-3.0,3.389,,,,
2.0,2.0,3.39,,,,
3.0,5.0,3.391,,,,
6.0,2.0,3.392,,,,
8.0,0.0,3.3930000000000002,,,,
5.0,-2.0,3.3939999999999997,,,,
0.0,-2.0,3.395,,,,
-3.0,-2.0,3.3960000000000004,,,,
-5.0,-5.0,3.397,,,,
-6.0,-5.0,3.398,,,,
-2.0,-4.0,3.3989999999999996,,,,
7.0,-3.0,3.4,,,,
11.0,1.0,3.4010000000000002,,,,
4.0,3.0,3.4019999999999997,,,,
0.0,2.0,3.403,,,,
4.0,0.0,3.404,,,,
8.0,0.0,3.405,,,,
5.0,2.0,3.406,,,,
0.0,-1.0,3.407,,,,
2.0,-4.0,3.408,,,,
6.0,-6.0,3.409,,,,
2.0,-4.0,3.41,,,,
-2.0,-3.0,3.411,,,,
0.0,-3.0,3.412,,,,
6.0,0.0,3.4130000000000003,,,,
7.0,1.0,3.4139999999999997,,,,
3.0,1.0,3.415,,,,
0.0,0.0,3.4160000000000004,,,,
-4.0,-5.0,3.417,,,,
-4.0,-4.0,3.418,,,,
-1.0,-1.0,3.4189999999999996,,,,
8.0,1.0,3.42,,,,
10.0,2.0,3.4210000000000003,,,,
3.0,3.0,3.4219999999999997,,,,
0.0,3.0,3.423,,,,
3.0,2.0,3.424,,,,
8.0,3.0,3.425,,,,
5.0,5.0,3.426,,,,
1.0,2.0,3.427,,,,
2.0,-2.0,3.428,,,,
3.0,-2.0,3.429,,,,
0.0,0.0,3.43,,,,
-1.0,-1.0,3.431,,,,
3.0,-3.0,3.432,,,,
9.0,-3.0,3.4330000000000003,,,,
7.0,-3.0,3.4339999999999997,,,,
1.0,-2.0,3.435,,,,
-3.0,-3.0,3.4360000000000004,,,,
-4.0,-7.0,3.437,,,,
-4.0,-8.0,3.438,,,,
0.0,-8.0,3.4389999999999996,,,,
6.0,-5.0,3.44,,,,
7.0,-3.0,3.4410000000000003,,,,
3.0,0.0,3.4419999999999997,,,,
0.0,0.0,3.443,,,,
3.0,0.0,3.444,,,,
7.0,0.0,3.445,,,,
5.0,2.0,3.446,,,,
4.0,3.0,3.447,,,,
7.0,2.0,3.448,,,,
6.0,0.0,3.449,,,,
1.0,-2.0,3.45,,,,
0.0,-2.0,3.451,,,,
3.0,-1.0,3.452,,,,
6.0,-3.0,3.4530000000000003,,,,
3.0,-7.0,3.4539999999999997,,,,
1.0,-7.0,3.455,,,,
-1.0,-6.0,3.4560000000000004,,,,
-3.0,-5.0,3.457,,,,
-5.0,-1.0,3.458,,,,
-3.0,0.0,3.4589999999999996,,,,
3.0,1.0,3.46,,,,
4.0,0.0,3.4610000000000003,,,,
-1.0,-1.0,3.4619999999999997,,,,
-2.0,-1.0,3.463,,,,
3.0,-1.0,3.464,,,,
6.0,-2.0,3.465,,,,
1.0,-1.0,3.466,,,,
0.0,0.0,3.467,,,,
5.0,0.0,3.468,,,,
8.0,-1.0,3.469,,,,
4.0,-1.0,3.47,,,,
0.0,-1.0,3.471,,,,
1.0,-1.0,3.472,,,,
5.0,0.0,3.4730000000000003,,,,
4.0,1.0,3.4739999999999998,,,,
1.0,4.0,3.475,,,,
-1.0,4.0,3.4760000000000004,,,,
-2.0,-3.0,3.477,,,,
-4.0,-7.0,3.478,,,,
1.0,-6.0,3.4789999999999996,,,,
10.0,0.0,3.48,,,,
13.0,3.0,3.4810000000000003,,,,
8.0,3.0,3.4819999999999998,,,,
2.0,3.0,3.483,,,,
1.0,1.0,3.484,,,,
2.0,-1.0,3.485,,,,
-1.0,-2.0,3.486,,,,
-4.0,-1.0,3.487,,,,
-3.0,-1.0,3.488,,,,
0.0,0.0,3.489,,,,
0.0,-1.0,3.49,,,,
-1.0,0.0,3.491,,,,
0.0,0.0,3.492,,,,
2.0,0.0,3.4930000000000003,,,,
1.0,-1.0,3.4939999999999998,,,,
0.0,-2.0,3.495,,,,
0.0,-2.0,3.4960000000000004,,,,
-2.0,-6.0,3.497,,,,
-2.0,-4.0,3.498,,,,
1.0,-1.0,3.4989999999999997,,,,
9.0,1.0,3.5,,,,
12.0,2.0,3.5010000000000003,,,,
8.0,3.0,3.502,,,,
5.0,3.0,3.503,,,,
6.0,1.0,3.5039999999999996,,,,
5.0,0.0,3.505,,,,
2.0,2.0,3.5060000000000002,,,,
3.0,4.0,3.5069999999999997,,,,
7.0,3.0,3.508,,,,
10.0,2.0,3.509,,,,
6.0,2.0,3.51,,,,
0.0,2.0,3.511,,,,
-1.0,1.0,3.512,,,,
0.0,1.0,3.513,,,,
0.0,1.0,3.514,,,,
0.0,1.0,3.515,,,,
-1.0,-2.0,3.516,,,,
-4.0,-7.0,3.517,,,,
-5.0,-7.0,3.5180000000000002,,,,
0.0,-5.0,3.5189999999999997,,,,
9.0,-3.0,3.52,,,,
8.0,-1.0,3.5210000000000004,,,,
1.0,1.0,3.522,,,,
0.0,2.0,3.523,,,,
4.0,0.0,3.5239999999999996,,,,
3.0,-2.0,3.525,,,,
-2.0,-3.0,3.5260000000000002,,,,
-3.0,-4.0,3.5269999999999997,,,,
2.0,-6.0,3.528,,,,
5.0,-5.0,3.529,,,,
3.0,-2.0,3.53,,,,
1.0,0.0,3.531,,,,
4.0,0.0,3.532,,,,
6.0,0.0,3.533,,,,
3.0,-2.0,3.534,,,,
0.0,-4.0,3.535,,,,
-1.0,-4.0,3.536,,,,
-2.0,-6.0,3.537,,,,
-2.0,-4.0,3.5380000000000003,,,,
3.0,-2.0,3.5389999999999997,,,,
9.0,2.0,3.54,,,,
9.0,5.0,3.5410000000000004,,,,
2.0,5.0,3.542,,,,
-1.0,3.0,3.543,,,,
2.0,2.0,3.5439999999999996,,,,
7.0,2.0,3.545,,,,
4.0,1.0,3.5460000000000003,,,,
1.0,0.0,3.5469999999999997,,,,
1.0,-2.0,3.548,,,,
3.0,-1.0,3.549,,,,
5.0,-1.0,3.55,,,,
5.0,-2.0,3.551,,,,
6.0,-3.0,3.552,,,,
7.0,-3.0,3.553,,,,
6.0,-4.0,3.554,,,,
5.0,-4.0,3.555,,,,
0.0,-5.0,3.556,,,,
-6.0,-7.0,3.557,,,,
-9.0,-5.0,3.5580000000000003,,,,
-4.0,-2.0,3.5589999999999997,,,,
4.0,1.0,3.56,,,,
8.0,3.0,3.5610000000000004,,,,
3.0,5.0,3.562,,,,
1.0,7.0,3.563,,,,
4.0,4.0,3.5639999999999996,,,,
5.0,2.0,3.565,,,,
2.0,2.0,3.5660000000000003,,,,
-1.0,1.0,3.5669999999999997,,,,
0.0,0.0,3.568,,,,
0.0,-3.0,3.569,,,,
0.0,-4.0,3.57,,,,
-1.0,-1.0,3.571,,,,
1.0,3.0,3.572,,,,
4.0,6.0,3.573,,,,
2.0,1.0,3.574,,,,
0.0,-5.0,3.575,,,,
-2.0,-6.0,3.576,,,,
-1.0,-6.0,3.577,,,,
1.0,-2.0,3.5780000000000003,,,,
3.0,-3.0,3.5789999999999997,,,,
8.0,-5.0,3.58,,,,
7.0,-2.0,3.5810000000000004,,,,
1.0,2.0,3.582,,,,
-2.0,1.0,3.583,,,,
-1.0,-3.0,3.5839999999999996,,,,
2.0,-6.0,3.585,,,,
2.0,-4.0,3.5860000000000003,,,,
0.0,-2.0,3.5869999999999997,,,,
2.0,-3.0,3.588,,,,
5.0,-4.0,3.589,,,,
5.0,-1.0,3.59,,,,
4.0,-2.0,3.591,,,,
4.0,-3.0,3.592,,,,
4.0,-2.0,3.593,,,,
4.0,1.0,3.594,,,,
2.0,0.0,3.595,,,,
0.0,-4.0,3.596,,,,
-1.0,-8.0,3.597,,,,
-3.0,-5.0,3.5980000000000003,,,,
-1.0,-1.0,3.5989999999999998,,,,
9.0,-1.0,3.6,,,,
15.0,0.0,3.6010000000000004,,,,
11.0,2.0,3.602,,,,
3.0,3.0,3.603,,,,
1.0,0.0,3.6039999999999996,,,,
3.0,1.0,3.605,,,,
3.0,2.0,3.6060000000000003,,,,
2.0,1.0,3.6069999999999998,,,,
6.0,-1.0,3.608,,,,
8.0,-2.0,3.609,,,,
5.0,-1.0,3.61,,,,
0.0,-2.0,3.611,,,,
-1.0,-1.0,3.612,,,,
3.0,0.0,3.613,,,,
2.0,-2.0,3.614,,,,
-1.0,-4.0,3.615,,,,
-5.0,-5.0,3.616,,,,
-7.0,-6.0,3.617,,,,
-6.0,-3.0,3.6180000000000003,,,,
-2.0,-1.0,3.6189999999999998,,,,
5.0,2.0,3.62,,,,
8.0,4.0,3.6210000000000004,,,,
4.0,2.0,3.622,,,,
0.0,0.0,3.623,,,,
0.0,-1.0,3.6239999999999997,,,,
1.0,0.0,3.625,,,,
0.0,0.0,3.6260000000000003,,,,
0.0,0.0,3.627,,,,
3.0,-2.0,3.628,,,,
6.0,-2.0,3.6289999999999996,,,,
7.0,-1.0,3.63,,,,
4.0,-2.0,3.6310000000000002,,,,
4.0,0.0,3.6319999999999997,,,,
7.0,1.0,3.633,,,,
4.0,0.0,3.634,,,,
0.0,-2.0,3.635,,,,
-3.0,-3.0,3.636,,,,
-5.0,-5.0,3.637,,,,
-5.0,-6.0,3.638,,,,
-2.0,-5.0,3.639,,,,
7.0,0.0,3.64,,,,
15.0,4.0,3.641,,,,
12.0,5.0,3.642,,,,
4.0,2.0,3.6430000000000002,,,,
0.0,-1.0,3.6439999999999997,,,,
0.0,-1.0,3.645,,,,
-1.0,0.0,3.6460000000000004,,,,
-1.0,-1.0,3.647,,,,
0.0,0.0,3.648,,,,
2.0,2.0,3.6489999999999996,,,,
1.0,2.0,3.65,,,,
0.0,0.0,3.6510000000000002,,,,
0.0,-4.0,3.6519999999999997,,,,
3.0,-1.0,3.653,,,,
1.0,0.0,3.654,,,,
0.0,1.0,3.655,,,,
-2.0,-1.0,3.656,,,,
-3.0,-6.0,3.657,,,,
-3.0,-6.0,3.658,,,,
2.0,-3.0,3.659,,,,
7.0,2.0,3.66,,,,
7.0,6.0,3.661,,,,
5.0,8.0,3.662,,,,
2.0,4.0,3.6630000000000003,,,,
0.0,-1.0,3.6639999999999997,,,,
3.0,-4.0,3.665,,,,
5.0,-2.0,3.6660000000000004,,,,
2.0,2.0,3.667,,,,
0.0,1.0,3.668,,,,
2.0,-1.0,3.6689999999999996,,,,
4.0,-2.0,3.67,,,,
4.0,-3.0,3.6710000000000003,,,,
3.0,-5.0,3.6719999999999997,,,,
3.0,-5.0,3.673,,,,
2.0,-3.0,3.674,,,,
-2.0,-1.0,3.675,,,,
-8.0,-4.0,3.676,,,,
-12.0,-8.0,3.677,,,,
-8.0,-7.0,3.678,,,,
1.0,-1.0,3.679,,,,
11.0,3.0,3.68,,,,
8.0,3.0,3.681,,,,
0.0,3.0,3.682,,,,
-2.0,2.0,3.6830000000000003,,,,
4.0,0.0,3.6839999999999997,,,,
10.0,2.0,3.685,,,,
5.0,5.0,3.6860000000000004,,,,
1.0,4.0,3.687,,,,
1.0,0.0,3.688,,,,
2.0,-4.0,3.6889999999999996,,,,
-1.0,0.0,3.69,,,,
-2.0,2.0,3.6910000000000003,,,,
1.0,1.0,3.6919999999999997,,,,
5.0,1.0,3.693,,,,
5.0,2.0,3.694,,,,
3.0,0.0,3.695,,,,
0.0,-6.0,3.696,,,,
-3.0,-11.0,3.697,,,,
-3.0,-5.0,3.698,,,,
3.0,0.0,3.699,,,,
13.0,0.0,3.7,,,,
14.0,-1.0,3.701,,,,
7.0,3.0,3.702,,,,
3.0,4.0,3.7030000000000003,,,,
3.0,0.0,3.7039999999999997,,,,
3.0,-5.0,3.705,,,,
-1.0,-1.0,3.7060000000000004,,,,
-1.0,2.0,3.707,,,,
1.0,0.0,3.708,,,,
2.0,-1.0,3.7089999999999996,,,,
1.0,1.0,3.71,,,,
0.0,4.0,3.7110000000000003,,,,
3.0,0.0,3.7119999999999997,,,,
5.0,-6.0,3.713,,,,
3.0,-7.0,3.714,,,,
0.0,-2.0,3.715,,,,
-1.0,1.0,3.716,,,,
-2.0,-3.0,3.717,,,,
-2.0,-4.0,3.718,,,,
3.0,-3.0,3.719,,,,
8.0,0.0,3.72,,,,
8.0,2.0,3.721,,,,
1.0,3.0,3.722,,,,
0.0,3.0,3.7230000000000003,,,,
5.0,1.0,3.7239999999999998,,,,
8.0,0.0,3.725,,,,
2.0,-1.0,3.7260000000000004,,,,
-3.0,-2.0,3.727,,,,
-3.0,-2.0,3.728,,,,
0.0,-3.0,3.7289999999999996,,,,
-1.0,-2.0,3.73,,,,
-2.0,0.0,3.7310000000000003,,,,
0.0,0.0,3.7319999999999998,,,,
4.0,2.0,3.733,,,,
4.0,-1.0,3.734,,,,
-1.0,-5.0,3.735,,,,
-8.0,-7.0,3.736,,,,
-13.0,-9.0,3.737,,,,
-12.0,-7.0,3.738,,,,
-6.0,-5.0,3.739,,,,
2.0,-3.0,3.74,,,,
3.0,1.0,3.741,,,,
-5.0,4.0,3.742,,,,
-13.0,3.0,3.7430000000000003,,,,
-13.0,-1.0,3.7439999999999998,,,,
-8.0,-2.0,3.745,,,,
-7.0,1.0,3.7460000000000004,,,,
-7.0,3.0,3.747,,,,
-4.0,0.0,3.748,,,,
-1.0,-1.0,3.7489999999999997,,,,
0.0,-1.0,3.75,,,,
7.0,-1.0,3.7510000000000003,,,,
20.0,0.0,3.752,,,,
28.0,3.0,3.753,,,,
23.0,6.0,3.7539999999999996,,,,
15.0,5.0,3.755,,,,
12.0,-2.0,3.7560000000000002,,,,
14.0,-8.0,3.7569999999999997,,,,
7.0,-5.0,3.758,,,,
-2.0,1.0,3.759,,,,
0.0,4.0,3.76,,,,
13.0,4.0,3.761,,,,
27.0,7.0,3.762,,,,
41.0,8.0,3.763,,,,
58.0,4.0,3.764,,,,
67.0,1.0,3.765,,,,
58.0,0.0,3.766,,,,
39.0,-1.0,3.767,,,,
24.0,-2.0,3.7680000000000002,,,,
11.0,-3.0,3.7689999999999997,,,,
-7.0,0.0,3.77,,,,
-22.0,1.0,3.7710000000000004,,,,
-24.0,-1.0,3.772,,,,
-17.0,-3.0,3.773,,,,
-14.0,-6.0,3.7739999999999996,,,,
-19.0,-8.0,3.775,,,,
-28.0,-9.0,3.7760000000000002,,,,
-44.0,-9.0,3.7769999999999997,,,,
-60.0,-5.0,3.778,,,,
-62.0,0.0,3.779,,,,
-49.0,3.0,3.78,,,,
-36.0,2.0,3.781,,,,
-42.0,-3.0,3.782,,,,
-61.0,-9.0,3.783,,,,
-81.0,-9.0,3.784,,,,
-99.0,-4.0,3.785,,,,
-119.0,0.0,3.786,,,,
-131.0,-1.0,3.787,,,,
-121.0,-5.0,3.7880000000000003,,,,
-82.0,-13.0,3.7889999999999997,,,,
-25.0,-15.0,3.79,,,,
45.0,-12.0,3.7910000000000004,,,,
125.0,-5.0,3.792,,,,
205.0,3.0,3.793,,,,
274.0,4.0,3.7939999999999996,,,,
316.0,3.0,3.795,,,,
324.0,3.0,3.7960000000000003,,,,
305.0,4.0,3.7969999999999997,,,,
254.0,6.0,3.798,,,,
176.0,5.0,3.799,,,,
88.0,4.0,3.8,,,,
18.0,6.0,3.801,,,,
-36.0,7.0,3.802,,,,
-100.0,1.0,3.803,,,,
-175.0,-5.0,3.804,,,,
-233.0,-5.0,3.805,,,,
-258.0,0.0,3.806,,,,
-259.0,1.0,3.807,,,,
-249.0,0.0,3.8080000000000003,,,,
-230.0,-2.0,3.8089999999999997,,,,
-195.0,-1.0,3.81,,,,
-128.0,4.0,3.8110000000000004,,,,
-24.0,7.0,3.812,,,,
81.0,10.0,3.813,,,,
142.0,10.0,3.8139999999999996,,,,
156.0,8.0,3.815,,,,
170.0,5.0,3.8160000000000003,,,,
180.0,-4.0,3.8169999999999997,,,,
170.0,-10.0,3.818,,,,
99.0,-4.0,3.819,,,,
13.0,0.0,3.82,,,,
-116.0,2.0,3.821,,,,
-212.0,5.0,3.822,,,,
-205.0,3.0,3.823,,,,
-164.0,2.0,3.824,,,,
-26.0,1.0,3.825,,,,
91.0,0.0,3.826,,,,
150.0,-2.0,3.827,,,,
203.0,-2.0,3.8280000000000003,,,,
236.0,6.0,3.8289999999999997,,,,
250.0,12.0,3.83,,,,
204.0,14.0,3.8310000000000004,,,,
159.0,14.0,3.832,,,,
115.0,4.0,3.833,,,,
65.0,-5.0,3.8339999999999996,,,,
-6.0,-14.0,3.835,,,,
-67.0,-15.0,3.8360000000000003,,,,
-134.0,-14.0,3.8369999999999997,,,,
-238.0,-17.0,3.838,,,,
-351.0,-23.0,3.839,,,,
-428.0,-24.0,3.84,,,,
-470.0,-16.0,3.841,,,,
-480.0,-7.0,3.842,,,,
-420.0,-7.0,3.843,,,,
-268.0,-8.0,3.844,,,,
-59.0,-3.0,3.845,,,,
152.0,9.0,3.846,,,,
349.0,19.0,3.847,,,,
510.0,23.0,3.8480000000000003,,,,
598.0,25.0,3.8489999999999998,,,,
603.0,28.0,3.85,,,,
555.0,22.0,3.8510000000000004,,,,
467.0,8.0,3.852,,,,
337.0,0.0,3.853,,,,
153.0,0.0,3.8539999999999996,,,,
-22.0,5.0,3.855,,,,
-138.0,1.0,3.8560000000000003,,,,
-178.0,-12.0,3.8569999999999998,,,,
-152.0,-21.0,3.858,,,,
-93.0,-19.0,3.859,,,,
-50.0,-14.0,3.86,,,,
-53.0,-9.0,3.861,,,,
-83.0,-3.0,3.862,,,,
-105.0,1.0,3.863,,,,
-111.0,0.0,3.864,,,,
-116.0,0.0,3.865,,,,
-122.0,1.0,3.866,,,,
-119.0,-1.0,3.867,,,,
-107.0,-8.0,3.8680000000000003,,,,
-94.0,-16.0,3.8689999999999998,,,,
-86.0,-14.0,3.87,,,,
-81.0,-8.0,3.8710000000000004,,,,
-78.0,-3.0,3.872,,,,
-76.0,0.0,3.873,,,,
-74.0,-2.0,3.8739999999999997,,,,
-66.0,-3.0,3.875,,,,
-53.0,-3.0,3.8760000000000003,,,,
-36.0,-2.0,3.877,,,,
-24.0,2.0,3.878,,,,
-22.0,1.0,3.8789999999999996,,,,
-25.0,-2.0,3.88,,,,
-24.0,1.0,3.8810000000000002,,,,
-10.0,8.0,3.8819999999999997,,,,
17.0,10.0,3.883,,,,
50.0,5.0,3.884,,,,
82.0,1.0,3.885,,,,
97.0,2.0,3.886,,,,
87.0,2.0,3.887,,,,
62.0,0.0,3.888,,,,
40.0,-1.0,3.889,,,,
24.0,-3.0,3.89,,,,
5.0,-5.0,3.891,,,,
-16.0,-5.0,3.892,,,,
-32.0,-3.0,3.8930000000000002,,,,
-53.0,-3.0,3.8939999999999997,,,,
-101.0,-5.0,3.895,,,,
-189.0,-4.0,3.8960000000000004,,,,
-270.0,-1.0,3.897,,,,
-292.0,-4.0,3.898,,,,
-235.0,-15.0,3.8989999999999996,,,,
-124.0,-22.0,3.9,,,,
13.0,-14.0,3.9010000000000002,,,,
163.0,0.0,3.9019999999999997,,,,
313.0,9.0,3.903,,,,
437.0,10.0,3.904,,,,
499.0,8.0,3.905,,,,
476.0,9.0,3.906,,,,
373.0,12.0,3.907,,,,
231.0,13.0,3.908,,,,
109.0,10.0,3.909,,,,
40.0,4.0,3.91,,,,
7.0,0.0,3.911,,,,
-23.0,0.0,3.912,,,,
-59.0,0.0,3.9130000000000003,,,,
-89.0,-3.0,3.9139999999999997,,,,
-100.0,-6.0,3.915,,,,
-102.0,-6.0,3.9160000000000004,,,,
-100.0,-6.0,3.917,,,,
-87.0,-5.0,3.918,,,,
-71.0,-4.0,3.9189999999999996,,,,
-66.0,-2.0,3.92,,,,
-73.0,0.0,3.9210000000000003,,,,
-75.0,-1.0,3.9219999999999997,,,,
-68.0,0.0,3.923,,,,
-67.0,0.0,3.924,,,,
-71.0,2.0,3.925,,,,
-68.0,2.0,3.926,,,,
-55.0,0.0,3.927,,,,
-45.0,-3.0,3.928,,,,
-44.0,-4.0,3.929,,,,
-40.0,-3.0,3.93,,,,
-32.0,0.0,3.931,,,,
-26.0,2.0,3.932,,,,
-22.0,3.0,3.9330000000000003,,,,
-17.0,0.0,3.9339999999999997,,,,
-12.0,-1.0,3.935,,,,
-11.0,-3.0,3.9360000000000004,,,,
-14.0,-6.0,3.937,,,,
-9.0,-6.0,3.938,,,,
4.0,-4.0,3.9389999999999996,,,,
16.0,1.0,3.94,,,,
15.0,5.0,3.9410000000000003,,,,
12.0,4.0,3.9419999999999997,,,,
15.0,1.0,3.943,,,,
20.0,-2.0,3.944,,,,
21.0,-4.0,3.945,,,,
18.0,0.0,3.946,,,,
17.0,1.0,3.947,,,,
18.0,2.0,3.948,,,,
20.0,3.0,3.949,,,,
19.0,4.0,3.95,,,,
18.0,2.0,3.951,,,,
18.0,1.0,3.952,,,,
18.0,2.0,3.9530000000000003,,,,
17.0,2.0,3.9539999999999997,,,,
13.0,0.0,3.955,,,,
7.0,-1.0,3.9560000000000004,,,,
5.0,-5.0,3.957,,,,
9.0,-8.0,3.958,,,,
15.0,-10.0,3.9589999999999996,,,,
19.0,-8.0,3.96,,,,
17.0,0.0,3.9610000000000003,,,,
15.0,6.0,3.9619999999999997,,,,
14.0,8.0,3.963,,,,
14.0,6.0,3.964,,,,
12.0,7.0,3.965,,,,
12.0,10.0,3.966,,,,
10.0,8.0,3.967,,,,
4.0,0.0,3.968,,,,
0.0,-3.0,3.969,,,,
0.0,-1.0,3.97,,,,
1.0,-2.0,3.971,,,,
3.0,-5.0,3.972,,,,
4.0,-4.0,3.9730000000000003,,,,
5.0,0.0,3.9739999999999998,,,,
7.0,2.0,3.975,,,,
3.0,-2.0,3.9760000000000004,,,,
-2.0,-8.0,3.977,,,,
-1.0,-8.0,3.978,,,,
8.0,-3.0,3.9789999999999996,,,,
16.0,-1.0,3.98,,,,
16.0,2.0,3.9810000000000003,,,,
10.0,3.0,3.9819999999999998,,,,
5.0,2.0,3.983,,,,
6.0,0.0,3.984,,,,
8.0,-1.0,3.985,,,,
2.0,-1.0,3.986,,,,
-7.0,0.0,3.987,,,,
-13.0,-1.0,3.988,,,,
-17.0,-2.0,3.989,,,,
-20.0,-1.0,3.99,,,,
-27.0,0.0,3.991,,,,
-43.0,-1.0,3.992,,,,
-64.0,-4.0,3.9930000000000003,,,,
-89.0,-8.0,3.9939999999999998,,,,
-96.0,-8.0,3.995,,,,
-73.0,-5.0,3.9960000000000004,,,,
-33.0,-5.0,3.997,,,,
2.0,-7.0,3.998,,,,
30.0,-4.0,3.9989999999999997,,,,
71.0,5.0,4.0,,,,
132.0,13.0,4.001,,,,
185.0,13.0,4.002,,,,
192.0,7.0,4.003,,,,
149.0,1.0,4.004,,,,
91.0,1.0,4.005,,,,
48.0,2.0,4.006,,,,
24.0,-1.0,4.007,,,,
11.0,-6.0,4.008,,,,
7.0,-4.0,4.0089999999999995,,,,
19.0,2.0,4.01,,,,
31.0,7.0,4.011,,,,
16.0,4.0,4.012,,,,
-35.0,0.0,4.013,,,,
-128.0,-6.0,4.013999999999999,,,,
-239.0,-11.0,4.015,,,,
-336.0,-14.0,4.016,,,,
-398.0,-16.0,4.0169999999999995,,,,
-422.0,-17.0,4.018,,,,
-424.0,-20.0,4.019,,,,
-407.0,-23.0,4.02,,,,
-355.0,-19.0,4.021,,,,
-227.0,-8.0,4.022,,,,
8.0,2.0,4.023,,,,
329.0,9.0,4.024,,,,
652.0,16.0,4.025,,,,
884.0,28.0,4.026,,,,
999.0,36.0,4.027,,,,
994.0,36.0,4.0280000000000005,,,,
838.0,28.0,4.029,,,,
516.0,18.0,4.03,,,,
137.0,15.0,4.031000000000001,,,,
-119.0,11.0,4.032,,,,
-197.0,4.0,4.033,,,,
-110.0,0.0,4.034,,,,
45.0,8.0,4.035,,,,
203.0,15.0,4.0360000000000005,,,,
357.0,25.0,4.037,,,,
467.0,32.0,4.038,,,,
446.0,30.0,4.039,,,,
378.0,22.0,4.04,,,,
174.0,0.0,4.041,,,,
-3.0,-13.0,4.042,,,,
-98.0,-2.0,4.043,,,,
-162.0,5.0,4.044,,,,
-119.0,-4.0,4.045,,,,
-133.0,-11.0,4.046,,,,
-310.0,-16.0,4.047,,,,
-447.0,-23.0,4.048,,,,
-466.0,-33.0,4.0489999999999995,,,,
-450.0,-40.0,4.05,,,,
-320.0,-35.0,4.051,,,,
-181.0,-30.0,4.052,,,,
-30.0,-21.0,4.053,,,,
-75.0,-2.0,4.053999999999999,,,,
6.0,1.0,4.055,,,,
88.0,4.0,4.056,,,,
168.0,8.0,4.0569999999999995,,,,
225.0,11.0,4.058,,,,
214.0,10.0,4.059,,,,
179.0,7.0,4.06,,,,
73.0,-2.0,4.061,,,,
-19.0,-8.0,4.062,,,,
-69.0,-3.0,4.063,,,,
-102.0,0.0,4.064,,,,
-80.0,-4.0,4.065,,,,
-87.0,-7.0,4.066,,,,
-179.0,-9.0,4.067,,,,
-250.0,-12.0,4.0680000000000005,,,,
-260.0,-16.0,4.069,,,,
-252.0,-19.0,4.07,,,,
-184.0,-17.0,4.071000000000001,,,,
-112.0,-15.0,4.072,,,,
-33.0,-11.0,4.073,,,,
48.0,-6.0,4.074,,,,
102.0,3.0,4.075,,,,
88.0,15.0,4.0760000000000005,,,,
30.0,23.0,4.077,,,,
-5.0,25.0,4.078,,,,
23.0,17.0,4.079,,,,
74.0,7.0,4.08,,,,
93.0,3.0,4.081,,,,
79.0,5.0,4.082,,,,
72.0,4.0,4.083,,,,
81.0,-3.0,4.084,,,,
74.0,-8.0,4.085,,,,
40.0,-4.0,4.086,,,,
1.0,1.0,4.087,,,,
-15.0,0.0,4.088,,,,
-15.0,-4.0,4.0889999999999995,,,,
-17.0,-2.0,4.09,,,,
-23.0,-2.0,4.091,,,,
-24.0,-6.0,4.092,,,,
-21.0,-7.0,4.093,,,,
-18.0,-5.0,4.093999999999999,,,,
-18.0,-4.0,4.095,,,,
-20.0,-6.0,4.096,,,,
-17.0,-9.0,4.0969999999999995,,,,
-14.0,-6.0,4.098,,,,
-9.0,-1.0,4.099,,,,
-6.0,0.0,4.1,,,,
-10.0,-1.0,4.101,,,,
-25.0,0.0,4.102,,,,
-44.0,0.0,4.103,,,,
-50.0,-5.0,4.104,,,,
-32.0,-6.0,4.105,,,,
-2.0,-3.0,4.106,,,,
28.0,-1.0,4.107,,,,
53.0,-2.0,4.1080000000000005,,,,
78.0,1.0,4.109,,,,
97.0,7.0,4.11,,,,
97.0,7.0,4.111000000000001,,,,
61.0,-2.0,4.112,,,,
1.0,-8.0,4.113,,,,
-64.0,-8.0,4.114,,,,
-96.0,-5.0,4.115,,,,
-115.0,-8.0,4.1160000000000005,,,,
-97.0,-15.0,4.117,,,,
-76.0,-12.0,4.118,,,,
-42.0,-2.0,4.119,,,,
10.0,8.0,4.12,,,,
120.0,14.0,4.121,,,,
206.0,15.0,4.122,,,,
218.0,11.0,4.123,,,,
205.0,3.0,4.124,,,,
115.0,0.0,4.125,,,,
37.0,6.0,4.126,,,,
-6.0,11.0,4.127,,,,
-41.0,6.0,4.128,,,,
-49.0,0.0,4.129,,,,
-74.0,-2.0,4.13,,,,
-152.0,-3.0,4.131,,,,
-207.0,-10.0,4.132,,,,
-192.0,-13.0,4.133,,,,
-140.0,-12.0,4.1339999999999995,,,,
34.0,-8.0,4.135,,,,
173.0,-7.0,4.136,,,,
260.0,-9.0,4.137,,,,
341.0,-4.0,4.138,,,,
405.0,8.0,4.138999999999999,,,,
355.0,20.0,4.14,,,,
172.0,29.0,4.141,,,,
-22.0,30.0,4.1419999999999995,,,,
-103.0,17.0,4.143,,,,
-99.0,-3.0,4.144,,,,
-114.0,-14.0,4.145,,,,
-164.0,-10.0,4.146,,,,
-172.0,-4.0,4.147,,,,
-108.0,-7.0,4.148,,,,
-34.0,-11.0,4.149,,,,
-7.0,-8.0,4.15,,,,
-13.0,-4.0,4.151,,,,
-14.0,-6.0,4.152,,,,
-8.0,-8.0,4.1530000000000005,,,,
-11.0,-4.0,4.154,,,,
-15.0,1.0,4.155,,,,
-15.0,-2.0,4.156000000000001,,,,
-15.0,-8.0,4.157,,,,
-17.0,-6.0,4.158,,,,
-12.0,-1.0,4.159,,,,
-11.0,0.0,4.16,,,,
-30.0,-3.0,4.1610000000000005,,,,
-58.0,-1.0,4.162,,,,
-65.0,1.0,4.163,,,,
-51.0,-3.0,4.164,,,,
-42.0,-5.0,4.165,,,,
-46.0,-2.0,4.166,,,,
-42.0,2.0,4.167,,,,
-25.0,0.0,4.168,,,,
-14.0,-5.0,4.169,,,,
-17.0,-4.0,4.17,,,,
-18.0,-4.0,4.171,,,,
-8.0,-4.0,4.172,,,,
2.0,-3.0,4.173,,,,
0.0,-2.0,4.1739999999999995,,,,
-10.0,-1.0,4.175,,,,
-13.0,-3.0,4.176,,,,
-5.0,-5.0,4.177,,,,
5.0,-2.0,4.178,,,,
17.0,-1.0,4.178999999999999,,,,
26.0,-4.0,4.18,,,,
32.0,-7.0,4.181,,,,
36.0,-3.0,4.1819999999999995,,,,
37.0,5.0,4.183,,,,
29.0,9.0,4.184,,,,
13.0,13.0,4.185,,,,
0.0,14.0,4.186,,,,
-10.0,9.0,4.187,,,,
-35.0,0.0,4.188,,,,
-78.0,-5.0,4.189,,,,
-112.0,-6.0,4.19,,,,
-112.0,-6.0,4.191,,,,
-84.0,-8.0,4.192,,,,
-50.0,-6.0,4.1930000000000005,,,,
-14.0,-1.0,4.194,,,,
24.0,0.0,4.195,,,,
62.0,3.0,4.196000000000001,,,,
96.0,3.0,4.197,,,,
134.0,3.0,4.198,,,,
182.0,4.0,4.199,,,,
207.0,5.0,4.2,,,,
164.0,3.0,4.2010000000000005,,,,
123.0,2.0,4.202,,,,
91.0,2.0,4.203,,,,
62.0,-1.0,4.204,,,,
47.0,-9.0,4.205,,,,
24.0,-14.0,4.206,,,,
-19.0,-5.0,4.207,,,,
-48.0,2.0,4.208,,,,
-34.0,6.0,4.209,,,,
-18.0,8.0,4.21,,,,
0.0,5.0,4.211,,,,
9.0,3.0,4.212,,,,
-10.0,3.0,4.213,,,,
-42.0,2.0,4.2139999999999995,,,,
-142.0,0.0,4.215,,,,
-293.0,-6.0,4.216,,,,
-456.0,-16.0,4.217,,,,
-541.0,-20.0,4.218,,,,
-461.0,-18.0,4.218999999999999,,,,
-233.0,-11.0,4.22,,,,
24.0,-5.0,4.221,,,,
228.0,3.0,4.2219999999999995,,,,
401.0,6.0,4.223,,,,
554.0,8.0,4.224,,,,
609.0,10.0,4.225,,,,
504.0,16.0,4.226,,,,
329.0,16.0,4.227,,,,
218.0,9.0,4.228,,,,
163.0,3.0,4.229,,,,
66.0,3.0,4.23,,,,
-68.0,7.0,4.231,,,,
-121.0,5.0,4.232,,,,
-63.0,8.0,4.2330000000000005,,,,
25.0,14.0,4.234,,,,
63.0,17.0,4.235,,,,
61.0,8.0,4.236000000000001,,,,
36.0,-10.0,4.237,,,,
-27.0,-16.0,4.238,,,,
-105.0,-11.0,4.239,,,,
-142.0,-6.0,4.24,,,,
-131.0,-5.0,4.2410000000000005,,,,
-121.0,-3.0,4.242,,,,
-131.0,-4.0,4.243,,,,
-132.0,-8.0,4.244,,,,
-116.0,-9.0,4.245,,,,
-111.0,-6.0,4.246,,,,
-114.0,0.0,4.247,,,,
-105.0,1.0,4.248,,,,
-91.0,-2.0,4.249,,,,
-95.0,-4.0,4.25,,,,
-95.0,-5.0,4.251,,,,
-68.0,-6.0,4.252,,,,
-33.0,-2.0,4.253,,,,
-27.0,-1.0,4.254,,,,
-34.0,-3.0,4.255,,,,
-26.0,-5.0,4.256,,,,
-5.0,-7.0,4.257,,,,
3.0,-5.0,4.258,,,,
3.0,-2.0,4.2589999999999995,,,,
14.0,-1.0,4.26,,,,
25.0,7.0,4.261,,,,
23.0,18.0,4.262,,,,
16.0,25.0,4.263,,,,
19.0,20.0,4.263999999999999,,,,
25.0,7.0,4.265,,,,
21.0,-8.0,4.266,,,,
18.0,-21.0,4.2669999999999995,,,,
24.0,-25.0,4.268,,,,
28.0,-17.0,4.269,,,,
21.0,-5.0,4.27,,,,
12.0,-2.0,4.271,,,,
14.0,-3.0,4.272,,,,
19.0,-1.0,4.273,,,,
10.0,5.0,4.274,,,,
-14.0,8.0,4.275,,,,
-39.0,4.0,4.276,,,,
-58.0,-3.0,4.277,,,,
-62.0,-2.0,4.2780000000000005,,,,
-47.0,2.0,4.279,,,,
-21.0,7.0,4.28,,,,
11.0,14.0,4.281000000000001,,,,
55.0,25.0,4.282,,,,
100.0,27.0,4.283,,,,
103.0,13.0,4.284,,,,
6.0,-6.0,4.285,,,,
-178.0,-21.0,4.2860000000000005,,,,
-354.0,-27.0,4.287,,,,
-425.0,-29.0,4.288,,,,
-368.0,-28.0,4.289,,,,
-208.0,-19.0,4.29,,,,
46.0,-6.0,4.291,,,,
381.0,9.0,4.292,,,,
691.0,17.0,4.293,,,,
829.0,14.0,4.294,,,,
675.0,3.0,4.295,,,,
309.0,-6.0,4.296,,,,
-28.0,-3.0,4.297,,,,
-180.0,14.0,4.298,,,,
-191.0,30.0,4.2989999999999995,,,,
-174.0,31.0,4.3,,,,
-149.0,25.0,4.301,,,,
-63.0,26.0,4.302,,,,
62.0,32.0,4.303,,,,
122.0,31.0,4.303999999999999,,,,
56.0,16.0,4.305,,,,
-88.0,-2.0,4.306,,,,
-242.0,-13.0,4.3069999999999995,,,,
-394.0,-22.0,4.308,,,,
-537.0,-32.0,4.309,,,,
-617.0,-38.0,4.31,,,,
-568.0,-34.0,4.311,,,,
-397.0,-18.0,4.312,,,,
-194.0,2.0,4.313,,,,
17.0,13.0,4.314,,,,
232.0,4.0,4.315,,,,
408.0,-23.0,4.316,,,,
458.0,-44.0,4.317,,,,
394.0,-26.0,4.3180000000000005,,,,
410.0,14.0,4.319,,,,
641.0,39.0,4.32,,,,
920.0,42.0,4.321000000000001,,,,
957.0,46.0,4.322,,,,
722.0,67.0,4.323,,,,
419.0,88.0,4.324,,,,
183.0,89.0,4.325,,,,
-13.0,77.0,4.3260000000000005,,,,
-184.0,51.0,4.327,,,,
-274.0,-6.0,4.328,,,,
-287.0,-93.0,4.329,,,,
-307.0,-162.0,4.33,,,,
-380.0,-156.0,4.331,,,,
-492.0,-76.0,4.332,,,,
-629.0,5.0,4.333,,,,
-809.0,27.0,4.334,,,,
-943.0,-1.0,4.335,,,,
-907.0,-25.0,4.336,,,,
-681.0,-32.0,4.337,,,,
-375.0,-47.0,4.338,,,,
-71.0,-67.0,4.3389999999999995,,,,
258.0,-46.0,4.34,,,,
631.0,9.0,4.341,,,,
894.0,30.0,4.342,,,,
845.0,-1.0,4.343,,,,
523.0,-3.0,4.343999999999999,,,,
260.0,77.0,4.345,,,,
331.0,167.0,4.346,,,,
623.0,207.0,4.3469999999999995,,,,
726.0,297.0,4.348,,,,
366.0,540.0,4.349,,,,
-314.0,817.0,4.35,,,,
-898.0,882.0,4.351,,,,
-1107.0,687.0,4.352,,,,
-994.0,454.0,4.353,,,,
-700.0,310.0,4.354,,,,
-315.0,162.0,4.355,,,,
111.0,-174.0,4.356,,,,
477.0,-658.0,4.357,,,,
710.0,-987.0,4.3580000000000005,,,,
862.0,-928.0,4.359,,,,
1002.0,-556.0,4.36,,,,
1074.0,-181.0,4.361000000000001,,,,
980.0,-24.0,4.362,,,,
722.0,-2.0,4.363,,,,
374.0,86.0,4.364,,,,
-4.0,226.0,4.365,,,,
-347.0,203.0,4.3660000000000005,,,,
-565.0,-26.0,4.367,,,,
-642.0,-261.0,4.368,,,,
-687.0,-435.0,4.369,,,,
-796.0,-723.0,4.37,,,,
-921.0,-1032.0,4.371,,,,
-915.0,-838.0,4.372,,,,
-735.0,-6.0,4.373,,,,
-444.0,835.0,4.374,,,,
-158.0,1042.0,4.375,,,,
109.0,1103.0,4.376,,,,
322.0,725.0,4.377,,,,
466.0,183.0,4.378,,,,
402.0,-850.0,4.379,,,,
243.0,-1775.0,4.38,,,,
-194.0,-2370.0,4.381,,,,
-661.0,-2706.0,4.382,,,,
-1210.0,-2262.0,4.383,,,,
-1626.0,-1774.0,4.3839999999999995,,,,
-1646.0,-1155.0,4.385,,,,
-1442.0,-540.0,4.386,,,,
-567.0,61.0,4.387,,,,
440.0,548.0,4.388,,,,
1844.0,688.0,4.388999999999999,,,,
2909.0,825.0,4.39,,,,
2958.0,954.0,4.391,,,,
2762.0,1072.0,4.3919999999999995,,,,
1832.0,1152.0,4.393,,,,
998.0,1237.0,4.394,,,,
693.0,1321.0,4.395,,,,
533.0,1408.0,4.396,,,,
225.0,1597.0,4.397,,,,
-72.0,1926.0,4.398,,,,
-195.0,2288.0,4.399,,,,
-272.0,2458.0,4.4,,,,
-435.0,2148.0,4.401,,,,
-606.0,1297.0,4.402,,,,
-711.0,376.0,4.4030000000000005,,,,
-821.0,-33.0,4.404,,,,
-963.0,-74.0,4.405,,,,
-1069.0,-501.0,4.406000000000001,,,,
-1185.0,-1540.0,4.407,,,,
-1430.0,-2528.0,4.408,,,,
-1699.0,-2876.0,4.409,,,,
-1656.0,-2649.0,4.41,,,,
-1204.0,-1856.0,4.4110000000000005,,,,
-629.0,-137.0,4.412,,,,
-201.0,2036.0,4.413,,,,
265.0,3453.0,4.414,,,,
710.0,2918.0,4.415,,,,
957.0,1058.0,4.416,,,,
893.0,-563.0,4.417,,,,
728.0,-1584.0,4.418,,,,
675.0,-2736.0,4.419,,,,
658.0,-3866.0,4.42,,,,
543.0,-4000.0,4.421,,,,
391.0,-3293.0,4.422,,,,
298.0,-2052.0,4.423,,,,
241.0,-1229.0,4.4239999999999995,,,,
212.0,-505.0,4.425,,,,
254.0,343.0,4.426,,,,
294.0,836.0,4.427,,,,
205.0,758.0,4.428,,,,
45.0,639.0,4.428999999999999,,,,
-30.0,838.0,4.43,,,,
-94.0,1051.0,4.431,,,,
-348.0,1064.0,4.4319999999999995,,,,
-680.0,1111.0,4.433,,,,
-785.0,1266.0,4.434,,,,
-519.0,1225.0,4.435,,,,
-126.0,930.0,4.436,,,,
160.0,735.0,4.437,,,,
370.0,771.0,4.438,,,,
543.0,806.0,4.439,,,,
530.0,866.0,4.44,,,,
233.0,1213.0,4.441,,,,
-178.0,1676.0,4.442,,,,
-476.0,1767.0,4.4430000000000005,,,,
-611.0,1459.0,4.444,,,,
-597.0,1142.0,4.445,,,,
-395.0,836.0,4.446000000000001,,,,
-40.0,194.0,4.447,,,,
267.0,-693.0,4.448,,,,
387.0,-1261.0,4.449,,,,
395.0,-1312.0,4.45,,,,
367.0,-1193.0,4.4510000000000005,,,,
190.0,-1110.0,4.452,,,,
-180.0,-907.0,4.453,,,,
-584.0,-528.0,4.454,,,,
-729.0,-272.0,4.455,,,,
-623.0,-282.0,4.456,,,,
-468.0,-301.0,4.457,,,,
-239.0,-130.0,4.458,,,,
235.0,47.0,4.459,,,,
759.0,43.0,4.46,,,,
899.0,6.0,4.461,,,,
686.0,135.0,4.462,,,,
620.0,321.0,4.463,,,,
821.0,329.0,4.4639999999999995,,,,
792.0,170.0,4.465,,,,
335.0,45.0,4.466,,,,
-10.0,34.0,4.467,,,,
154.0,40.0,4.468,,,,
397.0,0.0,4.468999999999999,,,,
188.0,-16.0,4.47,,,,
-273.0,58.0,4.471,,,,
-473.0,180.0,4.4719999999999995,,,,
-384.0,227.0,4.473,,,,
-281.0,97.0,4.474,,,,
-231.0,-185.0,4.475,,,,
-150.0,-469.0,4.476,,,,
-143.0,-599.0,4.477,,,,
-345.0,-556.0,4.478,,,,
-584.0,-449.0,4.479,,,,
-607.0,-361.0,4.48,,,,
-454.0,-279.0,4.481,,,,
-336.0,-186.0,4.482,,,,
-308.0,-98.0,4.4830000000000005,,,,
-302.0,-10.0,4.484,,,,
-280.0,115.0,4.485,,,,
-172.0,240.0,4.486000000000001,,,,
113.0,259.0,4.487,,,,
473.0,156.0,4.488,,,,
620.0,47.0,4.489,,,,
446.0,6.0,4.49,,,,
162.0,-54.0,4.4910000000000005,,,,
-19.0,-228.0,4.492,,,,
-109.0,-412.0,4.493,,,,
-176.0,-435.0,4.494,,,,
-115.0,-245.0,4.495,,,,
160.0,-18.0,4.496,,,,
524.0,64.0,4.497,,,,
730.0,28.0,4.498,,,,
669.0,6.0,4.499,,,,
391.0,58.0,4.5,,,,
-9.0,127.0,4.501,,,,
-379.0,170.0,4.502,,,,
-521.0,194.0,4.503,,,,
-365.0,223.0,4.504,,,,
-102.0,247.0,4.505,,,,
15.0,230.0,4.506,,,,
-59.0,139.0,4.507,,,,
-260.0,-17.0,4.508,,,,
-621.0,-150.0,4.5089999999999995,,,,
-1116.0,-156.0,4.51,,,,
-1376.0,-27.0,4.511,,,,
-940.0,130.0,4.512,,,,
61.0,214.0,4.513,,,,
1012.0,207.0,4.513999999999999,,,,
1778.0,154.0,4.515,,,,
1927.0,89.0,4.516,,,,
1627.0,22.0,4.5169999999999995,,,,
1111.0,-33.0,4.518,,,,
593.0,-50.0,4.519,,,,
250.0,-8.0,4.52,,,,
86.0,57.0,4.521,,,,
-36.0,66.0,4.522,,,,
-185.0,1.0,4.523,,,,
-295.0,-54.0,4.524,,,,
-366.0,-39.0,4.525,,,,
-533.0,0.0,4.526,,,,
-832.0,12.0,4.527,,,,
-1059.0,49.0,4.5280000000000005,,,,
-1005.0,154.0,4.529,,,,
-723.0,233.0,4.53,,,,
-439.0,169.0,4.531000000000001,,,,
-266.0,-28.0,4.532,,,,
-127.0,-249.0,4.533,,,,
100.0,-478.0,4.534,,,,
256.0,-660.0,4.535,,,,
202.0,-683.0,4.5360000000000005,,,,
-51.0,-504.0,4.537,,,,
-312.0,-247.0,4.538,,,,
-382.0,-64.0,4.539,,,,
-225.0,51.0,4.54,,,,
16.0,181.0,4.541,,,,
190.0,304.0,4.542,,,,
290.0,336.0,4.543,,,,
432.0,285.0,4.544,,,,
677.0,222.0,4.545,,,,
896.0,159.0,4.546,,,,
869.0,93.0,4.547,,,,
559.0,89.0,4.548,,,,
194.0,188.0,4.5489999999999995,,,,
23.0,301.0,4.55,,,,
29.0,306.0,4.551,,,,
-8.0,221.0,4.552,,,,
-171.0,140.0,4.553,,,,
-350.0,30.0,4.553999999999999,,,,
-400.0,-186.0,4.555,,,,
-368.0,-458.0,4.556,,,,
-360.0,-597.0,4.5569999999999995,,,,
-338.0,-509.0,4.558,,,,
-219.0,-296.0,4.559,,,,
-77.0,-105.0,4.56,,,,
-79.0,4.0,4.561,,,,
-268.0,43.0,4.562,,,,
-554.0,29.0,4.563,,,,
-839.0,-23.0,4.564,,,,
-981.0,-112.0,4.565,,,,
-774.0,-229.0,4.566,,,,
-191.0,-301.0,4.567,,,,
448.0,-202.0,4.5680000000000005,,,,
795.0,77.0,4.569,,,,
898.0,379.0,4.57,,,,
1034.0,532.0,4.571000000000001,,,,
1179.0,509.0,4.572,,,,
1005.0,398.0,4.573,,,,
335.0,237.0,4.574,,,,
-402.0,73.0,4.575,,,,
-614.0,-36.0,4.5760000000000005,,,,
-215.0,-66.0,4.577,,,,
311.0,-61.0,4.578,,,,
494.0,-66.0,4.579,,,,
299.0,-69.0,4.58,,,,
-16.0,-22.0,4.581,,,,
-283.0,100.0,4.582,,,,
-496.0,288.0,4.583,,,,
-652.0,463.0,4.584,,,,
-703.0,481.0,4.585,,,,
-676.0,277.0,4.586,,,,
-729.0,-22.0,4.587,,,,
-978.0,-227.0,4.588,,,,
-1287.0,-313.0,4.5889999999999995,,,,
-1305.0,-383.0,4.59,,,,
-808.0,-453.0,4.591,,,,
68.0,-445.0,4.592,,,,
981.0,-365.0,4.593,,,,
1920.0,-279.0,4.593999999999999,,,,
2762.0,-178.0,4.595,,,,
3119.0,7.0,4.596,,,,
2625.0,227.0,4.5969999999999995,,,,
1565.0,336.0,4.598,,,,
699.0,334.0,4.599,,,,
346.0,404.0,4.6,,,,
107.0,633.0,4.601,,,,
-322.0,848.0,4.602,,,,
-686.0,848.0,4.603,,,,
-726.0,642.0,4.604,,,,
-646.0,341.0,4.605,,,,
-681.0,-53.0,4.606,,,,
-701.0,-565.0,4.607,,,,
-571.0,-1055.0,4.6080000000000005,,,,
-475.0,-1306.0,4.609,,,,
-567.0,-1277.0,4.61,,,,
-681.0,-1098.0,4.611000000000001,,,,
-644.0,-839.0,4.612,,,,
-560.0,-514.0,4.613,,,,
-540.0,-167.0,4.614,,,,
-500.0,43.0,4.615,,,,
-360.0,102.0,4.6160000000000005,,,,
-227.0,141.0,4.617,,,,
-194.0,210.0,4.618,,,,
-187.0,225.0,4.619,,,,
-152.0,197.0,4.62,,,,
-162.0,247.0,4.621,,,,
-216.0,367.0,4.622,,,,
-187.0,407.0,4.623,,,,
-44.0,320.0,4.624,,,,
100.0,227.0,4.625,,,,
210.0,194.0,4.626,,,,
348.0,151.0,4.627,,,,
450.0,81.0,4.628,,,,
356.0,59.0,4.629,,,,
102.0,92.0,4.63,,,,
-68.0,87.0,4.631,,,,
-61.0,19.0,4.632,,,,
-43.0,-28.0,4.633,,,,
-170.0,-24.0,4.6339999999999995,,,,
-390.0,-24.0,4.635,,,,
-576.0,-58.0,4.636,,,,
-673.0,-83.0,4.637,,,,
-662.0,-68.0,4.638,,,,
-527.0,-51.0,4.638999999999999,,,,
-278.0,-43.0,4.64,,,,
59.0,-10.0,4.641,,,,
486.0,41.0,4.6419999999999995,,,,
947.0,61.0,4.643,,,,
1275.0,43.0,4.644,,,,
1352.0,38.0,4.645,,,,
1260.0,71.0,4.646,,,,
1149.0,111.0,4.647,,,,
1033.0,130.0,4.648,,,,
817.0,147.0,4.649,,,,
475.0,190.0,4.65,,,,
90.0,261.0,4.651,,,,
-220.0,304.0,4.652,,,,
-392.0,278.0,4.6530000000000005,,,,
-477.0,186.0,4.654,,,,
-563.0,79.0,4.655,,,,
-696.0,-37.0,4.656000000000001,,,,
-789.0,-206.0,4.657,,,,
-733.0,-394.0,4.658,,,,
-551.0,-468.0,4.659,,,,
-359.0,-365.0,4.66,,,,
-211.0,-183.0,4.6610000000000005,,,,
-83.0,-40.0,4.662,,,,
6.0,56.0,4.663,,,,
13.0,140.0,4.664,,,,
-5.0,163.0,4.665,,,,
75.0,84.0,4.666,,,,
270.0,-30.0,4.667,,,,
445.0,-84.0,4.668,,,,
479.0,-85.0,4.669,,,,
354.0,-90.0,4.67,,,,
115.0,-86.0,4.671,,,,
-142.0,-36.0,4.672,,,,
-273.0,27.0,4.673,,,,
-214.0,50.0,4.6739999999999995,,,,
-68.0,34.0,4.675,,,,
-5.0,25.0,4.676,,,,
-45.0,28.0,4.677,,,,
-84.0,18.0,4.678,,,,
-86.0,-1.0,4.678999999999999,,,,
-117.0,-5.0,4.68,,,,
-177.0,0.0,4.681,,,,
-186.0,-6.0,4.6819999999999995,,,,
-135.0,-17.0,4.683,,,,
-111.0,0.0,4.684,,,,
-146.0,51.0,4.685,,,,
-171.0,106.0,4.686,,,,
-133.0,119.0,4.687,,,,
-61.0,67.0,4.688,,,,
6.0,-31.0,4.689,,,,
64.0,-111.0,4.69,,,,
96.0,-133.0,4.691,,,,
87.0,-119.0,4.692,,,,
64.0,-109.0,4.6930000000000005,,,,
50.0,-108.0,4.694,,,,
27.0,-83.0,4.695,,,,
-20.0,-36.0,4.696000000000001,,,,
-40.0,-16.0,4.697,,,,
24.0,-31.0,4.698,,,,
133.0,-39.0,4.699,,,,
182.0,-11.0,4.7,,,,
142.0,21.0,4.7010000000000005,,,,
91.0,12.0,4.702,,,,
98.0,-35.0,4.703,,,,
150.0,-71.0,4.704,,,,
180.0,-69.0,4.705,,,,
149.0,-37.0,4.706,,,,
65.0,2.0,4.707,,,,
-18.0,35.0,4.708,,,,
-56.0,52.0,4.709,,,,
-54.0,53.0,4.71,,,,
-56.0,50.0,4.711,,,,
-74.0,56.0,4.712,,,,
-74.0,59.0,4.713,,,,
-51.0,38.0,4.7139999999999995,,,,
-45.0,15.0,4.715,,,,
-89.0,15.0,4.716,,,,
-142.0,34.0,4.717,,,,
-146.0,39.0,4.718,,,,
-110.0,21.0,4.718999999999999,,,,
-76.0,10.0,4.72,,,,
-40.0,22.0,4.721,,,,
26.0,34.0,4.7219999999999995,,,,
96.0,24.0,4.723,,,,
112.0,12.0,4.724,,,,
81.0,24.0,4.725,,,,
68.0,45.0,4.726,,,,
104.0,48.0,4.727,,,,
146.0,33.0,4.728,,,,
150.0,24.0,4.729,,,,
122.0,25.0,4.73,,,,
79.0,23.0,4.731,,,,
27.0,19.0,4.732,,,,
-27.0,21.0,4.7330000000000005,,,,
-80.0,17.0,4.734,,,,
-114.0,0.0,4.735,,,,
-118.0,-32.0,4.736000000000001,,,,
-95.0,-60.0,4.737,,,,
-66.0,-58.0,4.738,,,,
-30.0,-16.0,4.739,,,,
44.0,48.0,4.74,,,,
179.0,100.0,4.7410000000000005,,,,
289.0,101.0,4.742,,,,
262.0,48.0,4.743,,,,
99.0,-20.0,4.744,,,,
-59.0,-62.0,4.745,,,,
-103.0,-70.0,4.746,,,,
-63.0,-65.0,4.747,,,,
-27.0,-64.0,4.748,,,,
-16.0,-61.0,4.749,,,,
-8.0,-59.0,4.75,,,,
-14.0,-69.0,4.751,,,,
-47.0,-90.0,4.752,,,,
-77.0,-98.0,4.753,,,,
-75.0,-91.0,4.754,,,,
-47.0,-77.0,4.755,,,,
-34.0,-68.0,4.756,,,,
-42.0,-58.0,4.757,,,,
-43.0,-37.0,4.758,,,,
-27.0,-13.0,4.7589999999999995,,,,
-14.0,5.0,4.76,,,,
-16.0,25.0,4.761,,,,
-21.0,47.0,4.762,,,,
-21.0,59.0,4.763,,,,
-18.0,52.0,4.763999999999999,,,,
-19.0,44.0,4.765,,,,
-19.0,44.0,4.766,,,,
-13.0,46.0,4.7669999999999995,,,,
-8.0,42.0,4.768,,,,
-7.0,39.0,4.769,,,,
-6.0,38.0,4.77,,,,
-4.0,38.0,4.771,,,,
1.0,33.0,4.772,,,,
6.0,30.0,4.773,,,,
7.0,27.0,4.774,,,,
5.0,22.0,4.775,,,,
0.0,17.0,4.776,,,,
-2.0,9.0,4.777,,,,
0.0,9.0,4.7780000000000005,,,,
7.0,8.0,4.779,,,,
13.0,4.0,4.78,,,,
12.0,2.0,4.781000000000001,,,,
11.0,5.0,4.782,,,,
14.0,4.0,4.783,,,,
19.0,0.0,4.784,,,,
22.0,-2.0,4.785,,,,
22.0,-2.0,4.7860000000000005,,,,
21.0,-5.0,4.787,,,,
19.0,-9.0,4.788,,,,
15.0,-13.0,4.789,,,,
11.0,-10.0,4.79,,,,
14.0,-8.0,4.791,,,,
19.0,-5.0,4.792,,,,
16.0,-1.0,4.793,,,,
2.0,1.0,4.794,,,,
-11.0,-1.0,4.795,,,,
-18.0,-4.0,4.796,,,,
-21.0,-6.0,4.797,,,,
-21.0,-6.0,4.798,,,,
-5.0,-12.0,4.7989999999999995,,,,
25.0,-23.0,4.8,,,,
46.0,-26.0,4.801,,,,
42.0,-13.0,4.802,,,,
28.0,-1.0,4.803,,,,
33.0,-6.0,4.803999999999999,,,,
49.0,-20.0,4.805,,,,
50.0,-22.0,4.806,,,,
29.0,-9.0,4.8069999999999995,,,,
10.0,1.0,4.808,,,,
4.0,1.0,4.809,,,,
1.0,-2.0,4.81,,,,
-12.0,1.0,4.811,,,,
-20.0,5.0,4.812,,,,
-14.0,4.0,4.813,,,,
-3.0,0.0,4.814,,,,
-2.0,1.0,4.815,,,,
-8.0,6.0,4.816,,,,
-12.0,3.0,4.817,,,,
-9.0,0.0,4.8180000000000005,,,,
-5.0,-1.0,4.819,,,,
-9.0,0.0,4.82,,,,
-20.0,2.0,4.821000000000001,,,,
-34.0,2.0,4.822,,,,
-47.0,1.0,4.823,,,,
-55.0,0.0,4.824,,,,
-58.0,0.0,4.825,,,,
-58.0,2.0,4.8260000000000005,,,,
-55.0,2.0,4.827,,,,
-64.0,-2.0,4.828,,,,
-106.0,-10.0,4.829,,,,
-166.0,-13.0,4.83,,,,
-192.0,-13.0,4.831,,,,
-147.0,-12.0,4.832,,,,
-54.0,-5.0,4.833,,,,
53.0,5.0,4.834,,,,
174.0,17.0,4.835,,,,
329.0,23.0,4.836,,,,
485.0,18.0,4.837,,,,
541.0,9.0,4.838,,,,
430.0,1.0,4.8389999999999995,,,,
211.0,-1.0,4.84,,,,
23.0,4.0,4.841,,,,
-56.0,9.0,4.842,,,,
-62.0,5.0,4.843,,,,
-63.0,-4.0,4.843999999999999,,,,
-81.0,-9.0,4.845,,,,
-96.0,-9.0,4.846,,,,
-99.0,-9.0,4.8469999999999995,,,,
-101.0,-13.0,4.848,,,,
-106.0,-11.0,4.849,,,,
-105.0,-3.0,4.85,,,,
-96.0,0.0,4.851,,,,
-82.0,-4.0,4.852,,,,
-65.0,-7.0,4.853,,,,
-48.0,-3.0,4.854,,,,
-40.0,0.0,4.855,,,,
-51.0,-2.0,4.856,,,,
-63.0,-8.0,4.857,,,,
-59.0,-6.0,4.8580000000000005,,,,
-41.0,-3.0,4.859,,,,
-28.0,-1.0,4.86,,,,
-28.0,1.0,4.861000000000001,,,,
-28.0,5.0,4.862,,,,
-23.0,6.0,4.863,,,,
-16.0,2.0,4.864,,,,
-15.0,0.0,4.865,,,,
-14.0,1.0,4.8660000000000005,,,,
-9.0,4.0,4.867,,,,
-3.0,1.0,4.868,,,,
-1.0,-1.0,4.869,,,,
0.0,2.0,4.87,,,,
3.0,3.0,4.871,,,,
7.0,3.0,4.872,,,,
12.0,2.0,4.873,,,,
16.0,0.0,4.874,,,,
18.0,-2.0,4.875,,,,
16.0,-5.0,4.876,,,,
13.0,-9.0,4.877,,,,
15.0,-7.0,4.878,,,,
21.0,-4.0,4.879,,,,
24.0,-1.0,4.88,,,,
24.0,0.0,4.881,,,,
23.0,-1.0,4.882,,,,
23.0,-2.0,4.883,,,,
22.0,-2.0,4.8839999999999995,,,,
20.0,-1.0,4.885,,,,
16.0,1.0,4.886,,,,
14.0,0.0,4.887,,,,
9.0,-2.0,4.888,,,,
2.0,-2.0,4.888999999999999,,,,
-4.0,0.0,4.89,,,,
-3.0,0.0,4.891,,,,
10.0,-2.0,4.8919999999999995,,,,
24.0,-2.0,4.893,,,,
23.0,-2.0,4.894,,,,
15.0,-2.0,4.895,,,,
8.0,-2.0,4.896,,,,
10.0,-5.0,4.897,,,,
13.0,-3.0,4.898,,,,
15.0,0.0,4.899,,,,
16.0,4.0,4.9,,,,
13.0,6.0,4.901,,,,
9.0,8.0,4.902,,,,
5.0,5.0,4.9030000000000005,,,,
2.0,2.0,4.904,,,,
0.0,2.0,4.905,,,,
-1.0,2.0,4.906000000000001,,,,
-3.0,0.0,4.907,,,,
-6.0,-1.0,4.908,,,,
-8.0,1.0,4.909,,,,
-16.0,3.0,4.91,,,,
-36.0,0.0,4.9110000000000005,,,,
-57.0,-5.0,4.912,,,,
-77.0,-9.0,4.913,,,,
-97.0,-9.0,4.914,,,,
-107.0,-11.0,4.915,,,,
-95.0,-11.0,4.916,,,,
-52.0,-8.0,4.917,,,,
13.0,1.0,4.918,,,,
96.0,10.0,4.919,,,,
171.0,12.0,4.92,,,,
198.0,14.0,4.921,,,,
164.0,14.0,4.922,,,,
104.0,9.0,4.923,,,,
67.0,1.0,4.9239999999999995,,,,
63.0,-1.0,4.925,,,,
72.0,0.0,4.926,,,,
67.0,1.0,4.927,,,,
48.0,-2.0,4.928,,,,
26.0,-6.0,4.928999999999999,,,,
4.0,-4.0,4.93,,,,
-12.0,0.0,4.931,,,,
-25.0,1.0,4.9319999999999995,,,,
-33.0,-2.0,4.933,,,,
-26.0,-7.0,4.934,,,,
-6.0,-8.0,4.935,,,,
8.0,-6.0,4.936,,,,
-10.0,-9.0,4.937,,,,
-47.0,-9.0,4.938,,,,
-62.0,-8.0,4.939,,,,
-45.0,-4.0,4.94,,,,
-29.0,0.0,4.941,,,,
-38.0,2.0,4.942,,,,
-50.0,0.0,4.9430000000000005,,,,
-46.0,-1.0,4.944,,,,
-35.0,-2.0,4.945,,,,
-32.0,-1.0,4.946000000000001,,,,
-32.0,-2.0,4.947,,,,
-24.0,-4.0,4.948,,,,
-17.0,-3.0,4.949,,,,
-17.0,-2.0,4.95,,,,
-18.0,0.0,4.9510000000000005,,,,
-12.0,-2.0,4.952,,,,
-4.0,-1.0,4.953,,,,
-3.0,0.0,4.954,,,,
-5.0,2.0,4.955,,,,
-6.0,1.0,4.956,,,,
-7.0,-4.0,4.957,,,,
-9.0,-4.0,4.958,,,,
-6.0,-1.0,4.959,,,,
2.0,3.0,4.96,,,,
8.0,5.0,4.961,,,,
7.0,5.0,4.962,,,,
5.0,1.0,4.963,,,,
10.0,0.0,4.9639999999999995,,,,
12.0,0.0,4.965,,,,
12.0,3.0,4.966,,,,
10.0,1.0,4.967,,,,
12.0,-3.0,4.968,,,,
13.0,-3.0,4.968999999999999,,,,
11.0,0.0,4.97,,,,
12.0,1.0,4.971,,,,
18.0,-3.0,4.9719999999999995,,,,
25.0,-4.0,4.973,,,,
24.0,-1.0,4.974,,,,
18.0,0.0,4.975,,,,
4.0,-2.0,4.976,,,,
-8.0,-8.0,4.977,,,,
-20.0,-8.0,4.978,,,,
-27.0,-2.0,4.979,,,,
-27.0,1.0,4.98,,,,
-27.0,1.0,4.981,,,,
-31.0,1.0,4.982,,,,
-32.0,1.0,4.9830000000000005,,,,
-17.0,4.0,4.984,,,,
10.0,6.0,4.985,,,,
29.0,7.0,4.986000000000001,,,,
25.0,5.0,4.987,,,,
15.0,1.0,4.988,,,,
24.0,0.0,4.989,,,,
39.0,0.0,4.99,,,,
23.0,-1.0,4.9910000000000005,,,,
-28.0,-6.0,4.992,,,,
-65.0,-10.0,4.993,,,,
-68.0,-10.0,4.994,,,,
-71.0,-7.0,4.995,,,,
-70.0,-3.0,4.996,,,,
-56.0,0.0,4.997,,,,
-11.0,4.0,4.998,,,,
129.0,8.0,4.999,,,,
228.0,11.0,5.0,,,,
203.0,6.0,5.001,,,,
178.0,2.0,5.002,,,,
156.0,3.0,5.003,,,,
132.0,4.0,5.004,,,,
102.0,2.0,5.005,,,,
71.0,1.0,5.006,,,,
40.0,3.0,5.007,,,,
12.0,5.0,5.008,,,,
-5.0,2.0,5.0089999999999995,,,,
-21.0,-1.0,5.01,,,,
-30.0,-2.0,5.011,,,,
-44.0,-4.0,5.012,,,,
-70.0,-6.0,5.013,,,,
-87.0,-9.0,5.013999999999999,,,,
-66.0,-10.0,5.015,,,,
-63.0,-8.0,5.016,,,,
-78.0,-7.0,5.0169999999999995,,,,
-76.0,-7.0,5.018,,,,
-54.0,-5.0,5.019,,,,
-42.0,-3.0,5.02,,,,
-51.0,-2.0,5.021,,,,
-51.0,-2.0,5.022,,,,
-36.0,-3.0,5.023,,,,
-30.0,-4.0,5.024,,,,
-37.0,-2.0,5.025,,,,
-35.0,-1.0,5.026,,,,
-25.0,-2.0,5.027,,,,
-31.0,-5.0,5.0280000000000005,,,,
-53.0,-8.0,5.029,,,,
-60.0,-6.0,5.03,,,,
-39.0,-4.0,5.031000000000001,,,,
-6.0,-5.0,5.032,,,,
21.0,-3.0,5.033,,,,
45.0,-2.0,5.034,,,,
66.0,-1.0,5.035,,,,
74.0,-2.0,5.0360000000000005,,,,
73.0,-6.0,5.037,,,,
68.0,-4.0,5.038,,,,
58.0,0.0,5.039,,,,
35.0,3.0,5.04,,,,
10.0,5.0,5.041,,,,
4.0,4.0,5.042,,,,
14.0,2.0,5.043,,,,
19.0,1.0,5.044,,,,
10.0,1.0,5.045,,,,
-1.0,4.0,5.046,,,,
-6.0,3.0,5.047,,,,
-13.0,0.0,5.048,,,,
-23.0,-3.0,5.0489999999999995,,,,
-20.0,-2.0,5.05,,,,
-9.0,0.0,5.051,,,,
-1.0,1.0,5.052,,,,
2.0,1.0,5.053,,,,
11.0,-1.0,5.053999999999999,,,,
30.0,-4.0,5.055,,,,
43.0,-4.0,5.056,,,,
35.0,-2.0,5.0569999999999995,,,,
15.0,3.0,5.058,,,,
-1.0,7.0,5.059,,,,
-15.0,6.0,5.06,,,,
-33.0,7.0,5.061,,,,
-41.0,8.0,5.062,,,,
-28.0,8.0,5.063,,,,
-7.0,5.0,5.064,,,,
0.0,4.0,5.065,,,,
-11.0,5.0,5.066,,,,
-18.0,3.0,5.067,,,,
-11.0,-4.0,5.0680000000000005,,,,
-3.0,-5.0,5.069,,,,
-3.0,-3.0,5.07,,,,
-4.0,-3.0,5.071000000000001,,,,
-5.0,-5.0,5.072,,,,
-4.0,-5.0,5.073,,,,
-6.0,-2.0,5.074,,,,
-6.0,-1.0,5.075,,,,
-3.0,-4.0,5.0760000000000005,,,,
1.0,-7.0,5.077,,,,
1.0,-4.0,5.078,,,,
0.0,-2.0,5.079,,,,
2.0,-1.0,5.08,,,,
9.0,-1.0,5.081,,,,
17.0,1.0,5.082,,,,
21.0,0.0,5.083,,,,
23.0,-6.0,5.084,,,,
26.0,-7.0,5.085,,,,
33.0,-1.0,5.086,,,,
38.0,4.0,5.087,,,,
36.0,4.0,5.088,,,,
25.0,0.0,5.0889999999999995,,,,
14.0,0.0,5.09,,,,
13.0,-1.0,5.091,,,,
22.0,-5.0,5.092,,,,
31.0,-3.0,5.093,,,,
24.0,0.0,5.093999999999999,,,,
7.0,1.0,5.095,,,,
-8.0,-3.0,5.096,,,,
-11.0,-9.0,5.0969999999999995,,,,
-8.0,-8.0,5.098,,,,
-4.0,-5.0,5.099,,,,
-3.0,-4.0,5.1,,,,
-4.0,-6.0,5.101,,,,
-7.0,-5.0,5.102,,,,
-12.0,-3.0,5.103,,,,
-14.0,-3.0,5.104,,,,
-14.0,-5.0,5.105,,,,
-19.0,-6.0,5.106,,,,
-28.0,-5.0,5.107,,,,
-40.0,-5.0,5.1080000000000005,,,,
-57.0,-2.0,5.109,,,,
-74.0,0.0,5.11,,,,
-76.0,0.0,5.111000000000001,,,,
-51.0,-1.0,5.112,,,,
-6.0,4.0,5.113,,,,
37.0,9.0,5.114,,,,
57.0,12.0,5.115,,,,
55.0,9.0,5.1160000000000005,,,,
47.0,1.0,5.117,,,,
48.0,0.0,5.118,,,,
62.0,7.0,5.119,,,,
83.0,11.0,5.12,,,,
93.0,11.0,5.121,,,,
83.0,9.0,5.122000000000001,,,,
66.0,8.0,5.122999999999999,,,,
57.0,6.0,5.124,,,,
50.0,3.0,5.125,,,,
30.0,2.0,5.126,,,,
0.0,2.0,5.127000000000001,,,,
-25.0,2.0,5.127999999999999,,,,
-34.0,0.0,5.129,,,,
-30.0,-2.0,5.13,,,,
-23.0,-3.0,5.131,,,,
-25.0,-3.0,5.132000000000001,,,,
-29.0,-1.0,5.132999999999999,,,,
-33.0,-3.0,5.1339999999999995,,,,
-33.0,-7.0,5.135,,,,
-32.0,-9.0,5.136,,,,
-34.0,-9.0,5.1370000000000005,,,,
-35.0,-7.0,5.138,,,,
-32.0,-4.0,5.138999999999999,,,,
-31.0,-3.0,5.14,,,,
-35.0,-4.0,5.141,,,,
-38.0,-2.0,5.142,,,,
-31.0,0.0,5.143,,,,
-18.0,1.0,5.144,,,,
-6.0,0.0,5.145,,,,
-1.0,-1.0,5.146,,,,
7.0,-4.0,5.147,,,,
19.0,-5.0,5.148,,,,
29.0,-4.0,5.149,,,,
31.0,-2.0,5.15,,,,
24.0,-1.0,5.151,,,,
16.0,-3.0,5.152,,,,
13.0,-5.0,5.153,,,,
-6.0,1.0,5.154,,,,
-8.0,3.0,5.155,,,,
-9.0,4.0,5.156000000000001,,,,
-10.0,1.0,5.157,,,,
-10.0,-1.0,5.1579999999999995,,,,
-9.0,1.0,5.159,,,,
-8.0,1.0,5.16,,,,
-8.0,2.0,5.1610000000000005,,,,
-8.0,3.0,5.162000000000001,,,,
-9.0,3.0,5.162999999999999,,,,
-10.0,3.0,5.164,,,,
-10.0,3.0,5.165,,,,
-10.0,2.0,5.166,,,,
-12.0,1.0,5.167000000000001,,,,
-14.0,1.0,5.167999999999999,,,,
-21.0,1.0,5.169,,,,
-28.0,0.0,5.17,,,,
-33.0,-1.0,5.171,,,,
-35.0,-2.0,5.172000000000001,,,,
-28.0,-3.0,5.172999999999999,,,,
16.0,1.0,5.1739999999999995,,,,
9.0,4.0,5.175,,,,
3.0,6.0,5.176,,,,
2.0,1.0,5.1770000000000005,,,,
2.0,-2.0,5.178,,,,
6.0,0.0,5.178999999999999,,,,
9.0,1.0,5.18,,,,
9.0,3.0,5.181,,,,
9.0,5.0,5.182,,,,
5.0,5.0,5.183,,,,
2.0,5.0,5.184,,,,
2.0,4.0,5.185,,,,
0.0,3.0,5.186,,,,
-6.0,1.0,5.187,,,,
-16.0,0.0,5.188,,,,
-40.0,0.0,5.189,,,,
-62.0,-1.0,5.19,,,,
-80.0,-2.0,5.191,,,,
-88.0,-4.0,5.192,,,,
-62.0,-5.0,5.193,,,,
-35.0,-5.0,5.194,,,,
-6.0,-1.0,5.195,,,,
43.0,1.0,5.196000000000001,,,,
119.0,0.0,5.197,,,,
186.0,0.0,5.1979999999999995,,,,
190.0,-1.0,5.199,,,,
119.0,-4.0,5.2,,,,
19.0,-3.0,5.2010000000000005,,,,
-41.0,0.0,5.202000000000001,,,,
-32.0,2.0,5.202999999999999,,,,
10.0,4.0,5.204,,,,
39.0,4.0,5.205,,,,
41.0,6.0,5.206,,,,
31.0,8.0,5.207000000000001,,,,
27.0,6.0,5.207999999999999,,,,
20.0,3.0,5.209,,,,
10.0,2.0,5.21,,,,
0.0,0.0,5.211,,,,
-5.0,-3.0,5.212000000000001,,,,
-13.0,-2.0,5.212999999999999,,,,
-24.0,-4.0,5.2139999999999995,,,,
-33.0,-7.0,5.215,,,,
-39.0,-7.0,5.216,,,,
-40.0,-7.0,5.2170000000000005,,,,
-39.0,-8.0,5.218,,,,
-35.0,-10.0,5.218999999999999,,,,
-41.0,-9.0,5.22,,,,
-63.0,-3.0,5.221,,,,
-83.0,4.0,5.222,,,,
-83.0,6.0,5.223,,,,
-71.0,0.0,5.224,,,,
-69.0,-4.0,5.225,,,,
-75.0,-3.0,5.226,,,,
-58.0,0.0,5.227,,,,
-11.0,0.0,5.228,,,,
43.0,-1.0,5.229,,,,
77.0,-3.0,5.23,,,,
96.0,-4.0,5.231,,,,
110.0,-2.0,5.232,,,,
125.0,3.0,5.233,,,,
134.0,2.0,5.234,,,,
132.0,1.0,5.235,,,,
99.0,0.0,5.236000000000001,,,,
38.0,-2.0,5.237,,,,
-15.0,-1.0,5.2379999999999995,,,,
-24.0,0.0,5.239,,,,
-8.0,2.0,5.24,,,,
-6.0,3.0,5.2410000000000005,,,,
-27.0,3.0,5.242000000000001,,,,
-39.0,2.0,5.242999999999999,,,,
-31.0,0.0,5.244,,,,
-21.0,-1.0,5.245,,,,
-22.0,-1.0,5.246,,,,
-23.0,-1.0,5.247000000000001,,,,
-22.0,-2.0,5.247999999999999,,,,
-22.0,-4.0,5.249,,,,
-25.0,-5.0,5.25,,,,
-23.0,-4.0,5.251,,,,
-15.0,-1.0,5.252000000000001,,,,
-12.0,0.0,5.252999999999999,,,,
-17.0,-1.0,5.254,,,,
-18.0,-2.0,5.255,,,,
-17.0,-3.0,5.256,,,,
-18.0,-7.0,5.257000000000001,,,,
-16.0,-7.0,5.257999999999999,,,,
-5.0,-5.0,5.2589999999999995,,,,
9.0,-2.0,5.26,,,,
13.0,-1.0,5.261,,,,
9.0,0.0,5.2620000000000005,,,,
9.0,3.0,5.263,,,,
18.0,3.0,5.263999999999999,,,,
21.0,0.0,5.265,,,,
15.0,-1.0,5.266,,,,
6.0,2.0,5.267,,,,
7.0,7.0,5.268,,,,
10.0,6.0,5.269,,,,
10.0,1.0,5.27,,,,
7.0,-1.0,5.271,,,,
1.0,1.0,5.272,,,,
-5.0,5.0,5.273,,,,
-17.0,4.0,5.274,,,,
-30.0,-4.0,5.275,,,,
-41.0,-10.0,5.276,,,,
-40.0,-12.0,5.277,,,,
-30.0,-6.0,5.278,,,,
-12.0,3.0,5.279,,,,
10.0,7.0,5.28,,,,
33.0,5.0,5.281000000000001,,,,
51.0,5.0,5.282,,,,
65.0,5.0,5.2829999999999995,,,,
72.0,2.0,5.284,,,,
65.0,0.0,5.285,,,,
49.0,-2.0,5.2860000000000005,,,,
36.0,0.0,5.287000000000001,,,,
32.0,0.0,5.287999999999999,,,,
32.0,1.0,5.289,,,,
27.0,0.0,5.29,,,,
19.0,-2.0,5.291,,,,
6.0,-3.0,5.292000000000001,,,,
-4.0,-3.0,5.292999999999999,,,,
-11.0,-2.0,5.294,,,,
-12.0,-3.0,5.295,,,,
-16.0,-4.0,5.296,,,,
-24.0,-6.0,5.297000000000001,,,,
-32.0,-6.0,5.297999999999999,,,,
-28.0,-5.0,5.2989999999999995,,,,
-20.0,-3.0,5.3,,,,
-17.0,2.0,5.301,,,,
-23.0,6.0,5.3020000000000005,,,,
-29.0,3.0,5.303,,,,
-22.0,-2.0,5.303999999999999,,,,
-9.0,-2.0,5.305,,,,
-1.0,2.0,5.306,,,,
-2.0,4.0,5.307,,,,
-4.0,-1.0,5.308,,,,
-2.0,-6.0,5.309,,,,
2.0,-4.0,5.31,,,,
7.0,1.0,5.311,,,,
13.0,3.0,5.312,,,,
20.0,3.0,5.313,,,,
26.0,1.0,5.314,,,,
24.0,2.0,5.315,,,,
14.0,3.0,5.316,,,,
0.0,0.0,5.317,,,,
-8.0,0.0,5.318,,,,
-7.0,-1.0,5.319,,,,
1.0,-3.0,5.32,,,,
10.0,-1.0,5.321000000000001,,,,
9.0,3.0,5.322,,,,
6.0,2.0,5.3229999999999995,,,,
7.0,-2.0,5.324,,,,
9.0,-2.0,5.325,,,,
5.0,2.0,5.3260000000000005,,,,
-1.0,2.0,5.327000000000001,,,,
-2.0,-1.0,5.327999999999999,,,,
1.0,-3.0,5.329,,,,
4.0,-1.0,5.33,,,,
9.0,1.0,5.331,,,,
13.0,-3.0,5.332000000000001,,,,
15.0,-5.0,5.332999999999999,,,,
9.0,-4.0,5.334,,,,
0.0,0.0,5.335,,,,
-7.0,-1.0,5.336,,,,
-14.0,-6.0,5.337000000000001,,,,
-17.0,-5.0,5.337999999999999,,,,
-14.0,-2.0,5.3389999999999995,,,,
-5.0,-2.0,5.34,,,,
-1.0,-2.0,5.341,,,,
-3.0,0.0,5.3420000000000005,,,,
-4.0,1.0,5.343,,,,
