Deltoid,Bicep,Time
17,1,0.0
15,4,0.001
5,6,0.002
1,2,0.003
4,-1,0.004
5,-2,0.005
1,-1,0.006
-3,-1,0.007
-5,-2,0.008
-5,-1,0.009
-6,0,0.01
-5,2,0.011
1,3,0.012
9,5,0.013
12,4,0.014
10,2,0.015
4,0,0.016
-1,-2,0.017
-1,-5,0.018
7,-3,0.019
16,-1,0.02
15,4,0.021
6,7,0.022
0,2,0.023
2,-2,0.024
3,0,0.025
0,1,0.026
-3,1,0.027
-3,0,0.028
-3,2,0.029
-6,4,0.03
-5,2,0.031
-1,1,0.032
3,0,0.033
2,-2,0.034
-1,-5,0.035
-4,-5,0.036
-5,-6,0.037
-4,-4,0.038
0,-5,0.039
1,-5,0.04
-4,0,0.041
-6,2,0.042
1,0,0.043
15,-4,0.044
17,-2,0.045
10,2,0.046
11,0,0.047
20,-6,0.048
22,-8,0.049
12,-3,0.05
1,1,0.051
0,1,0.052
4,-1,0.053
2,-1,0.054
0,-1,0.055
-4,-1,0.056
-10,-4,0.057
-15,-2,0.058
-9,1,0.059
-1,3,0.06
1,4,0.061
0,4,0.062
3,3,0.063
13,-1,0.064
20,-1,0.065
15,1,0.066
4,4,0.067
-3,2,0.068
-6,-1,0.069
-6,-2,0.07
-4,-4,0.071
0,-3,0.072
0,-1,0.073
-1,0,0.074
-4,-2,0.075
-11,-3,0.076
-15,-2,0.077
-11,-1,0.078
3,-5,0.079
17,-8,0.08
18,-3,0.081
14,5,0.082
17,5,0.083
27,-4,0.084
32,-6,0.085
24,-2,0.086
9,2,0.087
-2,0,0.088
-5,-2,0.089
-2,1,0.09
3,2,0.091
5,0,0.092
0,-1,0.093
-14,-1,0.094
-28,-3,0.095
-35,-5,0.096
-25,-3,0.097
-5,-2,0.098
15,0,0.099
20,1,0.1
10,2,0.101
0,3,0.102
5,1,0.103
14,-1,0.104
10,-2,0.105
-1,-3,0.106
-2,-3,0.107
5,-4,0.108
11,-2,0.109
5,-1,0.11
2,0,0.111
-1,1,0.112
-3,0,0.113
-4,0,0.114
-3,3,0.115
-6,0,0.116
-12,-6,0.117
-12,-4,0.118
2,-1,0.119
16,-2,0.12
17,-1,0.121
13,2,0.122
16,1,0.123
19,-4,0.124
11,-7,0.125
1,-5,0.126
2,-1,0.127
8,0,0.128
2,0,0.129
-7,0,0.13
-8,0,0.131
-3,-2,0.132
-10,-1,0.133
-30,-1,0.134
-42,-1,0.135
-25,-1,0.136
15,-4,0.137
51,-2,0.138
60,2,0.139
43,5,0.14
23,8,0.141
8,7,0.142
-8,2,0.143
-28,-2,0.144
-38,-4,0.145
-20,-3,0.146
12,-1,0.147
27,0,0.148
15,-1,0.149
-3,0,0.15
-6,0,0.151
0,0,0.152
-1,2,0.153
-5,2,0.154
-1,-1,0.155
7,-3,0.156
10,-7,0.157
7,-6,0.158
10,-5,0.159
14,-1,0.16
13,5,0.161
5,8,0.162
3,4,0.163
6,-2,0.164
4,-3,0.165
-2,-2,0.166
-5,-2,0.167
-5,-2,0.168
-5,0,0.169
-6,1,0.17
-4,-3,0.171
0,-6,0.172
3,-1,0.173
1,2,0.174
-1,2,0.175
-4,-2,0.176
-5,-8,0.177
-3,-6,0.178
6,-4,0.179
15,0,0.18
13,2,0.181
4,0,0.182
-1,-2,0.183
2,-3,0.184
5,-1,0.185
3,1,0.186
-1,0,0.187
-3,-1,0.188
-1,0,0.189
-2,2,0.19
-2,1,0.191
0,-1,0.192
5,0,0.193
10,4,0.194
11,4,0.195
6,0,0.196
-1,-8,0.197
-4,-7,0.198
0,-3,0.199
7,0,0.2
7,2,0.201
3,4,0.202
1,6,0.203
2,2,0.204
2,-3,0.205
-2,-2,0.206
-5,1,0.207
-6,1,0.208
-12,-1,0.209
-19,-4,0.21
-19,-3,0.211
-9,-1,0.212
8,1,0.213
19,3,0.214
22,3,0.215
17,2,0.216
15,-2,0.217
18,-4,0.218
27,-3,0.219
27,-1,0.22
18,3,0.221
8,6,0.222
2,4,0.223
1,0,0.224
-1,-2,0.225
-3,-2,0.226
-3,-2,0.227
-4,-3,0.228
-6,-2,0.229
-7,-3,0.23
-4,-4,0.231
-2,-5,0.232
-2,-1,0.233
-3,1,0.234
-3,-1,0.235
-4,-7,0.236
-6,-10,0.237
-6,-6,0.238
-1,0,0.239
3,2,0.24
3,2,0.241
3,3,0.242
11,2,0.243
16,-2,0.244
14,-3,0.245
6,-1,0.246
2,1,0.247
2,0,0.248
1,-2,0.249
-3,0,0.25
-6,1,0.251
-7,0,0.252
-7,0,0.253
-10,0,0.254
-8,0,0.255
-4,-1,0.256
4,-3,0.257
16,-4,0.258
26,-2,0.259
34,0,0.26
33,5,0.261
26,8,0.262
16,4,0.263
4,0,0.264
-7,0,0.265
-10,1,0.266
-5,1,0.267
-2,0,0.268
-4,-1,0.269
-8,-2,0.27
-8,-2,0.271
-5,-3,0.272
-2,-1,0.273
-4,0,0.274
-5,-3,0.275
-7,-4,0.276
-6,-1,0.277
-1,3,0.278
6,1,0.279
11,-3,0.28
10,-2,0.281
5,3,0.282
2,3,0.283
2,-1,0.284
2,-4,0.285
-1,-1,0.286
-4,0,0.287
-3,-1,0.288
0,-1,0.289
-1,0,0.29
-4,-1,0.291
-5,-4,0.292
-1,-4,0.293
5,0,0.294
6,2,0.295
1,0,0.296
-1,-5,0.297
3,-4,0.298
8,-1,0.299
11,0,0.3
11,1,0.301
9,1,0.302
5,2,0.303
2,1,0.304
2,-2,0.305
0,-3,0.306
-1,-1,0.307
0,-2,0.308
1,-3,0.309
3,-2,0.31
2,0,0.311
3,0,0.312
7,2,0.313
9,1,0.314
6,0,0.315
1,-1,0.316
-1,-3,0.317
0,-3,0.318
4,-1,0.319
12,2,0.32
13,6,0.321
8,8,0.322
0,7,0.323
-1,1,0.324
1,-3,0.325
0,-3,0.326
-2,0,0.327
-3,1,0.328
-3,-1,0.329
-2,-2,0.33
-4,-2,0.331
-3,-2,0.332
0,-2,0.333
2,-4,0.334
3,-2,0.335
1,-1,0.336
1,-3,0.337
3,-4,0.338
8,0,0.339
11,3,0.34
9,1,0.341
4,0,0.342
1,-3,0.343
1,-5,0.344
0,-3,0.345
-2,-1,0.346
-2,-1,0.347
-1,0,0.348
0,-3,0.349
-1,-5,0.35
-1,-2,0.351
0,0,0.352
3,-1,0.353
2,-3,0.354
0,-5,0.355
-1,-4,0.356
-1,-5,0.357
1,-2,0.358
6,1,0.359
13,1,0.36
13,2,0.361
8,2,0.362
3,1,0.363
2,-1,0.364
2,-5,0.365
-1,-3,0.366
-2,1,0.367
-3,2,0.368
-3,0,0.369
-2,0,0.37
0,3,0.371
5,4,0.372
8,3,0.373
8,-1,0.374
6,-1,0.375
2,0,0.376
-2,-3,0.377
-1,-6,0.378
4,-6,0.379
14,-3,0.38
16,1,0.381
11,4,0.382
6,3,0.383
4,1,0.384
3,0,0.385
1,1,0.386
0,3,0.387
1,-1,0.388
2,-4,0.389
2,-4,0.39
3,0,0.391
3,1,0.392
4,0,0.393
4,-2,0.394
4,-1,0.395
2,-1,0.396
-1,-4,0.397
-1,-5,0.398
5,-3,0.399
10,-1,0.4
8,0,0.401
1,2,0.402
-2,4,0.403
-1,2,0.404
1,-1,0.405
0,2,0.406
-3,5,0.407
-5,4,0.408
-4,-1,0.409
-3,-2,0.41
-3,0,0.411
-2,1,0.412
0,-1,0.413
3,-3,0.414
2,-1,0.415
-1,0,0.416
-3,-2,0.417
0,-5,0.418
7,-3,0.419
13,-1,0.42
12,0,0.421
7,2,0.422
1,2,0.423
-1,1,0.424
0,0,0.425
1,-2,0.426
3,-2,0.427
4,-3,0.428
5,-3,0.429
1,-2,0.43
-2,0,0.431
-4,2,0.432
-2,0,0.433
2,-2,0.434
4,-3,0.435
1,-2,0.436
-4,-1,0.437
-3,0,0.438
6,0,0.439
13,2,0.44
11,6,0.441
5,7,0.442
5,2,0.443
8,-3,0.444
7,-5,0.445
2,0,0.446
3,3,0.447
5,0,0.448
0,-4,0.449
-6,-4,0.45
-4,-1,0.451
5,-1,0.452
10,-2,0.453
4,-4,0.454
1,-4,0.455
1,-4,0.456
-1,-6,0.457
-1,-6,0.458
4,-6,0.459
15,-4,0.46
14,-1,0.461
1,3,0.462
-4,4,0.463
1,-2,0.464
5,-5,0.465
-1,-3,0.466
-5,1,0.467
-3,0,0.468
-3,-5,0.469
-5,-3,0.47
-4,0,0.471
0,4,0.472
3,5,0.473
0,7,0.474
0,5,0.475
1,0,0.476
1,-4,0.477
-2,-1,0.478
2,4,0.479
11,3,0.48
14,2,0.481
6,4,0.482
2,7,0.483
2,5,0.484
3,-1,0.485
1,-5,0.486
1,-5,0.487
4,-5,0.488
5,-7,0.489
3,-7,0.49
2,-3,0.491
0,-1,0.492
0,0,0.493
0,-2,0.494
3,0,0.495
2,0,0.496
-1,-4,0.497
0,-6,0.498
10,-1,0.499
17,3,0.5
14,4,0.501
7,5,0.502
7,4,0.503
9,2,0.504
5,-2,0.505
-1,-6,0.506
-2,-5,0.507
-1,-4,0.508
-3,-4,0.509
-6,-3,0.51
-5,0,0.511
-3,1,0.512
0,-1,0.513
3,-3,0.514
6,-1,0.515
2,0,0.516
-6,-4,0.517
-9,-4,0.518
-1,0,0.519
11,6,0.52
12,6,0.521
6,2,0.522
1,0,0.523
2,-1,0.524
4,-2,0.525
2,-3,0.526
1,-4,0.527
1,-6,0.528
3,-3,0.529
5,1,0.53
7,1,0.531
6,0,0.532
5,1,0.533
2,3,0.534
0,3,0.535
-2,1,0.536
-2,-3,0.537
0,-4,0.538
7,-3,0.539
14,-1,0.54
13,3,0.541
3,6,0.542
-1,2,0.543
1,-4,0.544
3,-6,0.545
-1,-4,0.546
-5,0,0.547
-5,1,0.548
-3,1,0.549
-1,3,0.55
0,3,0.551
1,2,0.552
3,2,0.553
6,0,0.554
9,0,0.555
9,1,0.556
4,-3,0.557
1,-3,0.558
5,0,0.559
12,3,0.56
13,3,0.561
5,1,0.562
-2,0,0.563
-2,-1,0.564
0,0,0.565
-1,1,0.566
-2,1,0.567
0,-1,0.568
-1,-5,0.569
-2,-6,0.57
-2,-5,0.571
0,-3,0.572
1,0,0.573
1,0,0.574
0,1,0.575
-1,2,0.576
-2,0,0.577
-1,0,0.578
7,1,0.579
16,4,0.58
16,2,0.581
10,0,0.582
4,-1,0.583
6,-3,0.584
5,-4,0.585
0,-6,0.586
-4,-4,0.587
-1,-3,0.588
2,-3,0.589
3,-2,0.59
2,0,0.591
2,1,0.592
5,1,0.593
3,0,0.594
1,0,0.595
0,0,0.596
-1,-3,0.597
0,-3,0.598
5,-2,0.599
10,0,0.6
7,0,0.601
0,1,0.602
-1,2,0.603
5,0,0.604
8,-3,0.605
3,-1,0.606
-1,2,0.607
0,1,0.608
-1,-2,0.609
-4,-3,0.61
-4,-1,0.611
2,2,0.612
6,2,0.613
2,0,0.614
0,-1,0.615
2,1,0.616
3,0,0.617
2,-2,0.618
5,-3,0.619
12,-1,0.62
13,3,0.621
5,5,0.622
-1,3,0.623
-1,-1,0.624
0,0,0.625
-2,3,0.626
-5,2,0.627
-3,-2,0.628
0,-6,0.629
0,-4,0.63
0,0,0.631
3,0,0.632
7,-1,0.633
4,-2,0.634
2,-2,0.635
0,-1,0.636
0,-2,0.637
2,-2,0.638
6,0,0.639
9,3,0.64
8,4,0.641
7,5,0.642
6,3,0.643
4,1,0.644
2,-1,0.645
0,-4,0.646
-2,-4,0.647
-4,-3,0.648
-4,-3,0.649
-5,-2,0.65
-3,-3,0.651
-1,-4,0.652
3,-2,0.653
7,-2,0.654
5,-2,0.655
1,-1,0.656
-2,-2,0.657
1,-2,0.658
9,0,0.659
16,3,0.66
14,4,0.661
6,5,0.662
3,3,0.663
7,1,0.664
8,-1,0.665
1,-4,0.666
-6,-4,0.667
-6,-3,0.668
-1,-3,0.669
0,-2,0.67
-3,-3,0.671
-2,-4,0.672
7,-2,0.673
10,0,0.674
6,0,0.675
-1,-3,0.676
-2,-7,0.677
0,-3,0.678
5,1,0.679
12,0,0.68
14,-4,0.681
10,-5,0.682
1,-2,0.683
-3,1,0.684
-1,2,0.685
0,0,0.686
-3,-5,0.687
-3,-8,0.688
-2,-7,0.689
0,-3,0.69
0,-1,0.691
1,0,0.692
4,3,0.693
2,2,0.694
-1,1,0.695
-2,0,0.696
0,0,0.697
1,0,0.698
4,-2,0.699
10,-2,0.7
13,1,0.701
7,7,0.702
1,7,0.703
2,4,0.704
2,1,0.705
-3,0,0.706
-7,0,0.707
-2,-2,0.708
4,-2,0.709
3,-2,0.71
0,-3,0.711
0,-4,0.712
4,-1,0.713
6,-2,0.714
3,-3,0.715
-1,-2,0.716
-3,-1,0.717
0,1,0.718
9,1,0.719
14,2,0.72
12,5,0.721
5,6,0.722
3,1,0.723
3,-4,0.724
2,-4,0.725
-2,-1,0.726
-3,0,0.727
-1,-1,0.728
0,-3,0.729
-1,-3,0.73
1,-3,0.731
5,-2,0.732
6,0,0.733
1,0,0.734
-1,0,0.735
-3,0,0.736
-2,-4,0.737
1,-6,0.738
9,-4,0.739
15,-1,0.74
16,2,0.741
10,4,0.742
3,0,0.743
0,-3,0.744
-1,1,0.745
-1,3,0.746
0,-1,0.747
0,-4,0.748
-2,-4,0.749
-5,-3,0.75
-5,0,0.751
0,3,0.752
5,3,0.753
6,3,0.754
5,1,0.755
0,-3,0.756
-3,-7,0.757
-1,-4,0.758
8,2,0.759
15,5,0.76
9,7,0.761
2,6,0.762
2,3,0.763
7,-2,0.764
5,-4,0.765
-3,-2,0.766
-5,-2,0.767
-3,-6,0.768
-2,-7,0.769
-4,-2,0.77
-5,3,0.771
0,4,0.772
3,2,0.773
2,0,0.774
3,-2,0.775
3,-3,0.776
1,-4,0.777
2,-1,0.778
8,0,0.779
14,1,0.78
11,3,0.781
4,4,0.782
3,0,0.783
5,-3,0.784
2,-3,0.785
-3,-1,0.786
-3,0,0.787
1,-2,0.788
3,-2,0.789
1,0,0.79
-1,1,0.791
0,0,0.792
5,0,0.793
3,0,0.794
3,0,0.795
3,-3,0.796
2,-8,0.797
1,-6,0.798
5,-3,0.799
7,0,0.8
5,1,0.801
4,1,0.802
2,1,0.803
1,-1,0.804
1,-1,0.805
1,0,0.806
1,0,0.807
1,-1,0.808
0,-1,0.809
0,1,0.81
2,2,0.811
5,0,0.812
5,1,0.813
4,3,0.814
3,2,0.815
2,1,0.816
0,0,0.817
0,-1,0.818
4,0,0.819
8,2,0.82
5,2,0.821
0,1,0.822
0,0,0.823
5,-2,0.824
5,-6,0.825
-1,-8,0.826
-4,-4,0.827
-2,-1,0.828
-1,-2,0.829
-2,-3,0.83
-1,-2,0.831
2,-1,0.832
4,-1,0.833
3,0,0.834
0,-1,0.835
-3,-1,0.836
-5,-5,0.837
-2,-6,0.838
5,-3,0.839
14,0,0.84
15,1,0.841
10,0,0.842
5,0,0.843
5,0,0.844
8,1,0.845
7,1,0.846
2,0,0.847
-2,-2,0.848
-5,-1,0.849
-5,0,0.85
-3,1,0.851
1,1,0.852
6,0,0.853
5,0,0.854
3,1,0.855
1,1,0.856
0,-1,0.857
0,-3,0.858
5,-1,0.859
10,1,0.86
10,1,0.861
8,0,0.862
5,0,0.863
3,0,0.864
2,-1,0.865
0,-2,0.866
-2,-2,0.867
-5,-1,0.868
-6,-4,0.869
-6,-7,0.87
0,-5,0.871
4,-3,0.872
4,-1,0.873
6,1,0.874
5,1,0.875
4,0,0.876
3,-3,0.877
2,-4,0.878
5,-3,0.879
10,-2,0.88
11,0,0.881
6,5,0.882
0,6,0.883
2,4,0.884
4,1,0.885
2,2,0.886
0,3,0.887
-1,2,0.888
-1,1,0.889
-3,2,0.89
-3,1,0.891
1,-2,0.892
4,-1,0.893
3,2,0.894
1,5,0.895
1,7,0.896
0,3,0.897
-2,0,0.898
3,-1,0.899
14,-1,0.9
19,3,0.901
11,5,0.902
3,1,0.903
4,-3,0.904
8,-4,0.905
2,0,0.906
-4,-2,0.907
-3,-8,0.908
2,-9,0.909
1,-4,0.91
-3,-1,0.911
-1,-3,0.912
6,-3,0.913
7,-4,0.914
2,-4,0.915
-4,-5,0.916
-2,-5,0.917
2,-1,0.918
4,0,0.919
5,-1,0.92
4,0,0.921
2,4,0.922
0,4,0.923
-1,0,0.924
0,-2,0.925
1,-3,0.926
2,-3,0.927
0,-3,0.928
-1,1,0.929
-1,5,0.93
0,3,0.931
2,-1,0.932
4,-1,0.933
5,-1,0.934
7,-2,0.935
4,-6,0.936
-1,-9,0.937
-2,-6,0.938
4,-4,0.939
12,-2,0.94
11,1,0.941
2,3,0.942
-3,2,0.943
-3,-1,0.944
-2,-1,0.945
-3,0,0.946
-2,3,0.947
1,2,0.948
2,1,0.949
-1,0,0.95
-4,-2,0.951
-2,-1,0.952
3,2,0.953
4,2,0.954
1,0,0.955
-1,-3,0.956
1,-4,0.957
4,0,0.958
9,-1,0.959
12,-3,0.96
12,0,0.961
7,4,0.962
3,3,0.963
4,-3,0.964
6,-4,0.965
1,1,0.966
-6,3,0.967
-9,0,0.968
-6,-3,0.969
-2,-2,0.97
2,0,0.971
6,-1,0.972
10,0,0.973
8,1,0.974
5,3,0.975
2,1,0.976
0,-3,0.977
-2,-3,0.978
2,0,0.979
9,0,0.98
11,0,0.981
5,0,0.982
1,0,0.983
3,-1,0.984
3,-2,0.985
-1,-2,0.986
-4,-2,0.987
-2,-4,0.988
0,-3,0.989
-1,-1,0.99
-2,2,0.991
-1,2,0.992
3,2,0.993
4,-2,0.994
2,-4,0.995
-1,-5,0.996
-4,-4,0.997
-4,-2,0.998
6,0,0.999
17,0,1.0
19,0,1.001
9,3,1.002
2,3,1.003
5,1,1.004
7,-1,1.005
2,-2,1.006
-3,-1,1.007
-5,-1,1.008
-3,-1,1.009
-2,-1,1.01
0,0,1.011
2,0,1.012
4,1,1.013
0,0,1.014
-2,0,1.015
-2,-1,1.016
2,-5,1.017
6,-5,1.018
9,-3,1.019
11,1,1.02
11,4,1.021
6,4,1.022
2,1,1.023
4,-3,1.024
7,-4,1.025
8,-4,1.026
3,-2,1.027
-1,-2,1.028
-3,-3,1.029
-2,-3,1.03
-2,-2,1.031
-1,-1,1.032
0,1,1.033
1,1,1.034
1,0,1.035
0,-1,1.036
0,-3,1.037
3,-1,1.038
10,-1,1.039
15,-2,1.04
11,-1,1.041
2,1,1.042
-2,3,1.043
-3,2,1.044
-1,0,1.045
-2,-1,1.046
-2,-1,1.047
0,-2,1.048
2,-1,1.049
0,4,1.05
0,5,1.051
1,3,1.052
5,0,1.053
5,-1,1.054
3,0,1.055
0,0,1.056
-2,-1,1.057
-2,-1,1.058
5,0,1.059
13,-1,1.06
11,0,1.061
2,1,1.062
-2,0,1.063
1,-3,1.064
2,-4,1.065
-1,-3,1.066
-2,-2,1.067
1,-3,1.068
2,-3,1.069
-1,0,1.07
-3,1,1.071
1,0,1.072
5,-2,1.073
5,-2,1.074
3,0,1.075
2,2,1.076
3,-1,1.077
4,-3,1.078
6,-2,1.079
11,-1,1.08
13,0,1.081
9,3,1.082
2,4,1.083
0,2,1.084
0,-1,1.085
0,-3,1.086
-2,-1,1.087
-4,-1,1.088
-3,-3,1.089
-2,-5,1.09
0,-3,1.091
1,3,1.092
3,6,1.093
3,3,1.094
3,0,1.095
0,0,1.096
-1,0,1.097
-1,0,1.098
2,2,1.099
8,6,1.1
11,8,1.101
7,7,1.102
1,3,1.103
0,-1,1.104
0,0,1.105
-2,0,1.106
-3,-1,1.107
-1,-3,1.108
2,-5,1.109
2,-3,1.11
1,-2,1.111
2,-2,1.112
5,-1,1.113
3,-2,1.114
0,-1,1.115
-3,-1,1.116
-2,-5,1.117
0,-7,1.118
5,-5,1.119
10,0,1.12
10,5,1.121
4,6,1.122
0,2,1.123
0,-4,1.124
2,-7,1.125
1,-3,1.126
1,2,1.127
2,3,1.128
4,-1,1.129
1,-5,1.13
-3,-3,1.131
-3,0,1.132
2,3,1.133
6,0,1.134
4,-3,1.135
0,-5,1.136
-2,-6,1.137
0,-5,1.138
5,-4,1.139
11,-3,1.14
12,0,1.141
12,2,1.142
7,1,1.143
2,-2,1.144
-1,-3,1.145
-1,-1,1.146
0,0,1.147
0,-4,1.148
-3,-6,1.149
-3,-2,1.15
-1,3,1.151
1,4,1.152
0,3,1.153
-2,-1,1.154
0,-1,1.155
3,-2,1.156
1,-3,1.157
1,-4,1.158
8,-1,1.159
12,2,1.16
6,3,1.161
2,4,1.162
2,1,1.163
2,-2,1.164
0,-2,1.165
-2,-3,1.166
-2,-1,1.167
-2,0,1.168
-3,0,1.169
-4,1,1.17
-1,0,1.171
1,-2,1.172
1,-1,1.173
2,0,1.174
1,2,1.175
2,2,1.176
1,-1,1.177
2,-2,1.178
11,-3,1.179
19,-3,1.18
19,-3,1.181
12,-2,1.182
6,0,1.183
5,0,1.184
2,2,1.185
-2,2,1.186
-4,3,1.187
-3,1,1.188
-4,0,1.189
-3,0,1.19
-1,0,1.191
2,0,1.192
3,0,1.193
1,1,1.194
1,2,1.195
1,3,1.196
1,1,1.197
3,-1,1.198
8,-2,1.199
11,-2,1.2
9,0,1.201
6,2,1.202
5,0,1.203
3,-1,1.204
0,-2,1.205
-3,-2,1.206
-4,0,1.207
-4,2,1.208
-5,2,1.209
-3,1,1.21
2,-1,1.211
6,-4,1.212
6,-4,1.213
4,1,1.214
2,2,1.215
-2,3,1.216
-6,1,1.217
-4,-1,1.218
6,-2,1.219
14,-2,1.22
13,0,1.221
7,2,1.222
4,0,1.223
5,-1,1.224
5,-2,1.225
0,-2,1.226
-4,0,1.227
-4,2,1.228
-3,2,1.229
-3,1,1.23
-2,-1,1.231
1,-4,1.232
4,-4,1.233
3,-3,1.234
2,-4,1.235
1,-5,1.236
1,-6,1.237
1,-4,1.238
5,-2,1.239
11,0,1.24
16,1,1.241
13,3,1.242
8,3,1.243
4,0,1.244
2,-2,1.245
0,-3,1.246
-2,-1,1.247
-4,-1,1.248
-3,-2,1.249
0,-2,1.25
5,-3,1.251
5,-4,1.252
1,-3,1.253
-2,-2,1.254
3,1,1.255
11,2,1.256
10,-2,1.257
2,-3,1.258
1,-2,1.259
8,0,1.26
10,1,1.261
0,3,1.262
-8,2,1.263
-5,-3,1.264
0,-5,1.265
0,-2,1.266
-3,-1,1.267
-3,-2,1.268
-1,-2,1.269
0,1,1.27
0,3,1.271
1,0,1.272
5,-2,1.273
7,-1,1.274
4,3,1.275
-2,3,1.276
-6,-3,1.277
-4,-2,1.278
4,2,1.279
12,1,1.28
9,-1,1.281
2,0,1.282
1,3,1.283
3,3,1.284
0,-1,1.285
-5,-3,1.286
-7,-2,1.287
0,0,1.288
6,2,1.289
6,3,1.29
2,3,1.291
2,1,1.292
8,3,1.293
10,3,1.294
8,2,1.295
4,-2,1.296
4,-7,1.297
6,-5,1.298
12,-1,1.299
15,1,1.3
11,2,1.301
1,3,1.302
-2,0,1.303
3,-2,1.304
8,-2,1.305
4,0,1.306
-2,0,1.307
-3,-3,1.308
-2,-5,1.309
-1,-4,1.31
0,-2,1.311
3,-1,1.312
5,-1,1.313
1,-4,1.314
0,-4,1.315
0,-5,1.316
3,-6,1.317
4,-5,1.318
8,-3,1.319
13,-1,1.32
12,0,1.321
6,3,1.322
1,5,1.323
4,3,1.324
5,1,1.325
2,0,1.326
-2,0,1.327
-1,-2,1.328
0,-5,1.329
0,-4,1.33
-2,-1,1.331
-3,3,1.332
0,4,1.333
0,-2,1.334
2,-5,1.335
2,-2,1.336
-1,-1,1.337
-4,-1,1.338
-1,-4,1.339
6,-3,1.34
9,1,1.341
5,4,1.342
2,2,1.343
6,0,1.344
6,0,1.345
1,2,1.346
-4,1,1.347
-4,-1,1.348
-3,-1,1.349
-1,1,1.35
3,3,1.351
7,0,1.352
8,1,1.353
3,3,1.354
0,6,1.355
1,3,1.356
2,-4,1.357
4,-6,1.358
8,-3,1.359
12,-3,1.36
13,-1,1.361
6,2,1.362
-2,4,1.363
-14,0,1.364
-25,-3,1.365
-30,-3,1.366
-22,-2,1.367
-5,-5,1.368
7,-5,1.369
12,-3,1.37
15,1,1.371
20,1,1.372
24,0,1.373
24,-1,1.374
25,-2,1.375
24,-5,1.376
18,-8,1.377
7,-4,1.378
2,1,1.379
6,1,1.38
9,0,1.381
4,4,1.382
-3,5,1.383
-5,1,1.384
-5,-2,1.385
-5,-1,1.386
-7,2,1.387
-6,1,1.388
-5,-2,1.389
-5,-1,1.39
-5,2,1.391
-3,4,1.392
-1,3,1.393
0,0,1.394
1,-2,1.395
0,-5,1.396
-1,-8,1.397
3,-7,1.398
10,-3,1.399
12,1,1.4
6,1,1.401
0,1,1.402
-1,0,1.403
1,-3,1.404
2,-2,1.405
2,0,1.406
1,1,1.407
0,0,1.408
-2,-3,1.409
-2,-1,1.41
0,0,1.411
2,-2,1.412
6,-3,1.413
5,-3,1.414
4,-1,1.415
2,-1,1.416
-1,-2,1.417
-1,-1,1.418
8,0,1.419
17,0,1.42
17,0,1.421
7,3,1.422
0,6,1.423
0,4,1.424
2,0,1.425
-2,-1,1.426
-4,-2,1.427
-4,-2,1.428
0,-4,1.429
0,-4,1.43
-1,-3,1.431
-1,-2,1.432
2,0,1.433
4,1,1.434
0,1,1.435
-4,-1,1.436
-7,-5,1.437
-4,-3,1.438
3,0,1.439
12,1,1.44
12,1,1.441
8,3,1.442
4,5,1.443
7,4,1.444
9,3,1.445
6,2,1.446
2,-1,1.447
2,-4,1.448
2,-4,1.449
0,-1,1.45
-3,1,1.451
1,-1,1.452
8,-2,1.453
9,-2,1.454
5,-2,1.455
0,-3,1.456
-2,-4,1.457
0,-1,1.458
5,2,1.459
9,4,1.46
9,6,1.461
4,7,1.462
2,5,1.463
2,0,1.464
1,-1,1.465
-5,0,1.466
-11,-1,1.467
-9,-3,1.468
-5,-3,1.469
-3,0,1.47
-3,-1,1.471
-3,-3,1.472
-2,-2,1.473
-3,0,1.474
-1,2,1.475
-2,0,1.476
-2,-3,1.477
1,-2,1.478
10,0,1.479
16,1,1.48
14,2,1.481
7,4,1.482
3,3,1.483
4,-2,1.484
3,-5,1.485
-1,-4,1.486
-3,-2,1.487
-1,-2,1.488
3,-4,1.489
4,-5,1.49
4,-2,1.491
4,0,1.492
7,2,1.493
9,1,1.494
9,2,1.495
6,-1,1.496
3,-7,1.497
4,-9,1.498
9,-5,1.499
10,1,1.5
3,5,1.501
-9,5,1.502
-20,3,1.503
-18,-2,1.504
-3,-4,1.505
10,-4,1.506
11,-4,1.507
5,-4,1.508
7,-3,1.509
15,0,1.51
17,4,1.511
12,2,1.512
11,2,1.513
16,1,1.514
16,0,1.515
12,-2,1.516
2,-8,1.517
-4,-7,1.518
1,-2,1.519
5,-1,1.52
0,0,1.521
-5,2,1.522
-2,3,1.523
0,2,1.524
1,-1,1.525
1,0,1.526
-3,0,1.527
-6,-1,1.528
-3,-3,1.529
-1,-1,1.53
-1,1,1.531
-2,0,1.532
0,-1,1.533
2,-1,1.534
3,-1,1.535
0,0,1.536
0,-2,1.537
0,-3,1.538
5,-1,1.539
8,0,1.54
8,0,1.541
5,1,1.542
2,1,1.543
1,0,1.544
0,-1,1.545
-1,-3,1.546
0,-1,1.547
1,0,1.548
1,0,1.549
-1,0,1.55
-3,0,1.551
-2,-1,1.552
2,-1,1.553
6,1,1.554
7,4,1.555
2,1,1.556
0,-4,1.557
1,-5,1.558
7,-3,1.559
13,-3,1.56
12,-3,1.561
5,-1,1.562
0,1,1.563
0,0,1.564
3,-2,1.565
3,-3,1.566
-1,-5,1.567
-1,-5,1.568
0,-2,1.569
-1,-1,1.57
-2,-2,1.571
-2,-2,1.572
2,4,1.573
4,6,1.574
2,4,1.575
-1,0,1.576
0,-5,1.577
1,-1,1.578
3,1,1.579
7,3,1.58
8,2,1.581
7,1,1.582
4,2,1.583
1,0,1.584
0,-1,1.585
0,-1,1.586
1,0,1.587
0,0,1.588
-1,-2,1.589
-1,-3,1.59
2,-1,1.591
4,1,1.592
5,3,1.593
3,1,1.594
1,-1,1.595
-1,-1,1.596
-2,-4,1.597
0,-4,1.598
7,0,1.599
14,2,1.6
10,1,1.601
1,-1,1.602
-2,0,1.603
2,1,1.604
6,0,1.605
1,0,1.606
-5,0,1.607
-5,-1,1.608
-1,-2,1.609
1,-3,1.61
1,-1,1.611
2,1,1.612
6,3,1.613
5,1,1.614
4,0,1.615
1,-1,1.616
-1,-2,1.617
-1,-2,1.618
5,1,1.619
14,2,1.62
11,1,1.621
-7,-1,1.622
-22,-3,1.623
-18,-1,1.624
-1,0,1.625
11,1,1.626
13,-1,1.627
13,-5,1.628
14,-7,1.629
15,-6,1.63
12,-2,1.631
10,0,1.632
9,3,1.633
7,1,1.634
5,0,1.635
4,0,1.636
3,-4,1.637
3,-7,1.638
6,-7,1.639
9,-3,1.64
5,0,1.641
-2,2,1.642
-5,2,1.643
-1,0,1.644
2,-2,1.645
0,-5,1.646
-3,-5,1.647
-3,-2,1.648
-4,-1,1.649
-10,0,1.65
-16,1,1.651
-12,1,1.652
-3,4,1.653
-1,2,1.654
-2,1,1.655
-1,1,1.656
4,1,1.657
12,3,1.658
19,1,1.659
23,0,1.66
18,2,1.661
7,4,1.662
-1,2,1.663
-1,0,1.664
0,-2,1.665
-1,0,1.666
-2,-2,1.667
0,-5,1.668
1,-4,1.669
-1,-2,1.67
-2,-1,1.671
0,-4,1.672
3,-3,1.673
2,1,1.674
0,2,1.675
-1,-1,1.676
0,-8,1.677
3,-6,1.678
10,0,1.679
14,1,1.68
11,0,1.681
4,0,1.682
-1,2,1.683
-3,0,1.684
-2,-1,1.685
-4,0,1.686
-10,3,1.687
-20,1,1.688
-22,-1,1.689
-12,-3,1.69
5,-3,1.691
18,-4,1.692
24,-2,1.693
26,2,1.694
28,6,1.695
25,3,1.696
18,-4,1.697
12,-7,1.698
16,-5,1.699
17,0,1.7
10,3,1.701
-1,7,1.702
-5,6,1.703
-2,1,1.704
-1,-1,1.705
-5,-1,1.706
-8,0,1.707
-8,0,1.708
-8,0,1.709
-8,3,1.71
-6,3,1.711
0,2,1.712
4,1,1.713
5,0,1.714
4,0,1.715
1,-1,1.716
-2,-5,1.717
-1,-2,1.718
6,0,1.719
14,1,1.72
11,0,1.721
1,1,1.722
-3,0,1.723
1,-3,1.724
5,-5,1.725
1,-3,1.726
-2,1,1.727
-1,2,1.728
2,-1,1.729
2,-2,1.73
-1,0,1.731
-2,3,1.732
0,4,1.733
-3,-1,1.734
-6,-4,1.735
-8,-4,1.736
-4,-6,1.737
2,-3,1.738
10,-1,1.739
17,0,1.74
22,0,1.741
21,0,1.742
15,-2,1.743
11,-3,1.744
6,-2,1.745
1,0,1.746
-1,0,1.747
-1,-2,1.748
-1,-4,1.749
-3,-3,1.75
-4,0,1.751
-2,1,1.752
1,4,1.753
1,4,1.754
1,4,1.755
-1,2,1.756
-1,-4,1.757
0,-6,1.758
6,-3,1.759
12,1,1.76
8,4,1.761
2,3,1.762
0,1,1.763
0,0,1.764
-1,0,1.765
-4,0,1.766
-7,-1,1.767
-5,-4,1.768
-5,-3,1.769
-6,-3,1.77
-3,-3,1.771
3,-2,1.772
8,-1,1.773
2,-2,1.774
-6,-3,1.775
-16,-4,1.776
-17,-6,1.777
-8,-4,1.778
10,0,1.779
23,0,1.78
21,0,1.781
16,2,1.782
17,2,1.783
23,0,1.784
22,-3,1.785
13,-2,1.786
4,0,1.787
0,1,1.788
0,0,1.789
2,1,1.79
10,2,1.791
17,3,1.792
17,3,1.793
8,3,1.794
-4,3,1.795
-16,0,1.796
-22,-4,1.797
-19,-2,1.798
-11,0,1.799
-3,2,1.8
-1,3,1.801
0,4,1.802
7,2,1.803
13,-2,1.804
7,-3,1.805
0,0,1.806
-1,0,1.807
5,-2,1.808
9,-3,1.809
5,-1,1.81
1,2,1.811
2,0,1.812
6,-1,1.813
5,-2,1.814
3,-2,1.815
0,-3,1.816
-3,-6,1.817
-3,-4,1.818
2,-2,1.819
9,-3,1.82
10,-2,1.821
5,1,1.822
1,3,1.823
0,0,1.824
-1,-2,1.825
-3,-1,1.826
-4,0,1.827
-3,-4,1.828
-2,-6,1.829
-2,-3,1.83
-1,2,1.831
1,2,1.832
4,-1,1.833
4,-4,1.834
2,-3,1.835
-1,0,1.836
-1,2,1.837
3,1,1.838
10,-1,1.839
12,-1,1.84
7,3,1.841
1,8,1.842
1,8,1.843
6,1,1.844
6,-4,1.845
2,-5,1.846
0,-4,1.847
1,0,1.848
-1,3,1.849
-3,4,1.85
0,0,1.851
4,-3,1.852
7,0,1.853
5,2,1.854
3,0,1.855
1,-1,1.856
0,-3,1.857
1,-5,1.858
8,-2,1.859
15,1,1.86
15,2,1.861
7,3,1.862
2,1,1.863
2,0,1.864
4,1,1.865
2,2,1.866
0,0,1.867
-3,-1,1.868
-4,-1,1.869
-3,0,1.87
-2,-2,1.871
-2,-3,1.872
-2,1,1.873
-1,4,1.874
1,0,1.875
-3,-3,1.876
-7,-4,1.877
-11,-2,1.878
-13,-3,1.879
-11,-3,1.88
-5,2,1.881
7,6,1.882
18,2,1.883
21,-2,1.884
19,-2,1.885
19,0,1.886
21,-3,1.887
19,-5,1.888
10,-4,1.889
2,-1,1.89
1,-2,1.891
3,-4,1.892
4,0,1.893
2,1,1.894
0,-1,1.895
-1,-3,1.896
-4,-7,1.897
-3,-6,1.898
1,-5,1.899
8,-4,1.9
7,0,1.901
-1,3,1.902
-5,1,1.903
-6,-2,1.904
-4,-2,1.905
-3,0,1.906
0,-1,1.907
1,-3,1.908
-2,-2,1.909
-6,-1,1.91
-5,0,1.911
0,0,1.912
3,3,1.913
3,4,1.914
3,3,1.915
2,1,1.916
0,-2,1.917
-3,0,1.918
2,1,1.919
13,1,1.92
14,1,1.921
7,3,1.922
1,2,1.923
0,0,1.924
0,-1,1.925
0,0,1.926
1,0,1.927
2,0,1.928
-1,-1,1.929
-3,0,1.93
0,-1,1.931
5,-3,1.932
4,-1,1.933
-1,0,1.934
0,1,1.935
2,2,1.936
1,-2,1.937
-1,-5,1.938
2,-3,1.939
11,-1,1.94
12,0,1.941
5,2,1.942
1,3,1.943
2,3,1.944
1,1,1.945
-3,0,1.946
-8,-1,1.947
-5,-3,1.948
-5,-1,1.949
-6,0,1.95
-5,0,1.951
-2,0,1.952
0,0,1.953
-2,0,1.954
-1,-2,1.955
4,-3,1.956
11,-5,1.957
16,-2,1.958
21,0,1.959
30,1,1.96
35,1,1.961
30,1,1.962
22,-3,1.963
15,-6,1.964
9,-6,1.965
-2,-1,1.966
-14,0,1.967
-19,-5,1.968
-15,-7,1.969
-8,-4,1.97
-2,0,1.971
2,-1,1.972
7,-2,1.973
13,-3,1.974
14,-1,1.975
4,0,1.976
-9,-2,1.977
-14,-1,1.978
-7,-1,1.979
2,-2,1.98
3,-2,1.981
-3,-1,1.982
-4,-1,1.983
-2,-1,1.984
-2,-1,1.985
-3,0,1.986
-4,1,1.987
-4,0,1.988
-7,0,1.989
-12,2,1.99
-9,3,1.991
0,0,1.992
8,-3,1.993
7,-5,1.994
4,-3,1.995
2,-1,1.996
4,-5,1.997
9,-4,1.998
19,0,1.999
27,2,2.0
22,2,2.001
17,1,2.002
15,1,2.003
10,3,2.004
-1,2,2.005
-10,0,2.006
-11,-3,2.007
-12,-2,2.008
-7,1,2.009
-4,2,2.01
-10,2,2.011
-15,3,2.012
-9,5,2.013
-1,3,2.014
9,0,2.015
13,-3,2.016
10,-3,2.017
12,-3,2.018
19,-1,2.019
24,0,2.02
20,0,2.021
11,0,2.022
6,0,2.023
6,0,2.024
4,-1,2.025
-1,-2,2.026
-6,0,2.027
-7,0,2.028
-4,-2,2.029
0,-5,2.03
0,-3,2.031
1,-1,2.032
3,0,2.033
3,1,2.034
1,0,2.035
-3,-1,2.036
-5,-5,2.037
-3,-6,2.038
3,-3,2.039
10,2,2.04
12,7,2.041
8,5,2.042
1,0,2.043
0,-2,2.044
3,0,2.045
2,1,2.046
-1,0,2.047
-4,-2,2.048
-4,-2,2.049
-2,-3,2.05
1,-2,2.051
5,-3,2.052
6,0,2.053
2,1,2.054
-2,0,2.055
-4,-1,2.056
-4,-5,2.057
-2,-5,2.058
4,-5,2.059
12,-3,2.06
12,1,2.061
6,2,2.062
2,-1,2.063
9,-5,2.064
16,-6,2.065
14,-3,2.066
5,-1,2.067
-1,-1,2.068
-3,-1,2.069
-5,0,2.07
-7,0,2.071
-4,-1,2.072
0,0,2.073
0,2,2.074
-2,5,2.075
-4,4,2.076
-4,0,2.077
1,-3,2.078
7,-2,2.079
12,-1,2.08
11,3,2.081
4,7,2.082
-1,8,2.083
-2,5,2.084
-3,2,2.085
-5,-1,2.086
-4,-3,2.087
-4,-5,2.088
-6,-2,2.089
-13,1,2.09
-17,-1,2.091
-11,-5,2.092
2,-5,2.093
15,-3,2.094
20,-1,2.095
16,0,2.096
12,-3,2.097
14,-5,2.098
22,-3,2.099
25,-1,2.1
19,3,2.101
10,6,2.102
5,4,2.103
4,2,2.104
0,1,2.105
-4,0,2.106
-3,0,2.107
4,0,2.108
11,-1,2.109
15,-3,2.11
19,-3,2.111
23,-2,2.112
24,0,2.113
16,2,2.114
3,2,2.115
-12,-3,2.116
-27,-7,2.117
-40,-4,2.118
-41,0,2.119
-28,0,2.12
-12,1,2.121
-4,4,2.122
-7,4,2.123
-7,-2,2.124
-2,-6,2.125
-1,-3,2.126
-16,0,2.127
-33,0,2.128
-38,0,2.129
-19,3,2.13
11,3,2.131
37,-2,2.132
50,-3,2.133
58,-1,2.134
65,1,2.135
64,0,2.136
46,-3,2.137
17,-2,2.138
-2,-1,2.139
-6,-1,2.14
-6,1,2.141
-8,6,2.142
-9,5,2.143
-7,0,2.144
-8,-3,2.145
-9,-1,2.146
-5,0,2.147
-1,-2,2.148
-3,-2,2.149
-9,3,2.15
-8,6,2.151
-3,5,2.152
0,2,2.153
-1,0,2.154
-1,0,2.155
0,0,2.156
-1,-3,2.157
-4,-2,2.158
-1,0,2.159
8,0,2.16
11,3,2.161
4,4,2.162
-1,0,2.163
-2,-7,2.164
0,-5,2.165
0,0,2.166
-1,2,2.167
-4,-2,2.168
-5,-4,2.169
-3,1,2.17
1,5,2.171
3,0,2.172
3,-6,2.173
2,-7,2.174
3,-4,2.175
1,-3,2.176
-1,-5,2.177
0,-5,2.178
9,-3,2.179
15,-2,2.18
13,-1,2.181
6,0,2.182
4,1,2.183
5,0,2.184
2,0,2.185
-3,-1,2.186
-6,-2,2.187
-3,-3,2.188
-2,-3,2.189
-7,0,2.19
-9,3,2.191
-4,2,2.192
3,2,2.193
11,0,2.194
16,2,2.195
16,0,2.196
14,-4,2.197
10,-4,2.198
11,0,2.199
13,4,2.2
9,5,2.201
2,2,2.202
-2,0,2.203
1,0,2.204
3,0,2.205
0,3,2.206
-3,2,2.207
-3,-1,2.208
-3,-3,2.209
-3,-2,2.21
-3,-1,2.211
-1,-1,2.212
1,1,2.213
2,2,2.214
2,1,2.215
-2,0,2.216
-5,-5,2.217
-3,-3,2.218
6,3,2.219
15,7,2.22
12,6,2.221
1,1,2.222
-1,0,2.223
4,0,2.224
7,0,2.225
0,1,2.226
-4,1,2.227
-2,0,2.228
2,-1,2.229
2,-3,2.23
3,-7,2.231
5,-8,2.232
0,-4,2.233
-15,2,2.234
-22,2,2.235
-10,0,2.236
7,-3,2.237
16,-3,2.238
19,-5,2.239
25,-7,2.24
29,-5,2.241
25,3,2.242
14,6,2.243
5,1,2.244
0,-2,2.245
-6,-3,2.246
-9,-2,2.247
-6,-3,2.248
-1,-3,2.249
-2,0,2.25
-6,-1,2.251
-4,-4,2.252
2,-3,2.253
8,-1,2.254
12,0,2.255
15,-3,2.256
14,-7,2.257
6,-3,2.258
1,1,2.259
0,3,2.26
-5,5,2.261
-22,6,2.262
-33,2,2.263
-27,-3,2.264
-11,-6,2.265
-1,-4,2.266
0,-1,2.267
0,1,2.268
1,0,2.269
1,0,2.27
3,-1,2.271
7,-4,2.272
12,-3,2.273
10,-2,2.274
7,0,2.275
4,1,2.276
3,0,2.277
3,0,2.278
10,2,2.279
15,5,2.28
13,5,2.281
11,5,2.282
5,4,2.283
1,3,2.284
2,3,2.285
2,1,2.286
0,0,2.287
-3,-2,2.288
-2,1,2.289
-1,4,2.29
-1,4,2.291
0,3,2.292
2,2,2.293
5,1,2.294
4,1,2.295
0,0,2.296
-1,-6,2.297
2,-6,2.298
7,-3,2.299
11,0,2.3
10,0,2.301
8,0,2.302
7,1,2.303
5,2,2.304
4,0,2.305
-1,-2,2.306
-2,-2,2.307
-2,-1,2.308
0,0,2.309
0,-1,2.31
0,-3,2.311
1,-3,2.312
5,0,2.313
6,0,2.314
4,0,2.315
0,-2,2.316
0,-7,2.317
3,-7,2.318
8,-5,2.319
9,0,2.32
6,1,2.321
3,0,2.322
2,-1,2.323
0,-2,2.324
-1,-2,2.325
-3,-4,2.326
-4,-3,2.327
-2,0,2.328
-2,0,2.329
-4,0,2.33
-4,0,2.331
0,1,2.332
7,1,2.333
6,-1,2.334
2,-2,2.335
-5,1,2.336
-6,1,2.337
-4,0,2.338
1,-3,2.339
8,-3,2.34
11,1,2.341
6,4,2.342
-3,2,2.343
-12,0,2.344
-19,-1,2.345
-23,2,2.346
-17,4,2.347
0,1,2.348
14,-3,2.349
20,-4,2.35
26,-2,2.351
36,0,2.352
40,1,2.353
29,0,2.354
12,0,2.355
0,0,2.356
0,-5,2.357
1,-7,2.358
3,-5,2.359
5,-2,2.36
1,0,2.361
-5,-2,2.362
-9,-4,2.363
-7,-2,2.364
-5,-1,2.365
-8,-1,2.366
-7,0,2.367
-1,0,2.368
4,0,2.369
3,-1,2.37
3,-3,2.371
8,-4,2.372
13,-2,2.373
11,0,2.374
5,0,2.375
-1,0,2.376
-5,-5,2.377
-5,-5,2.378
3,-1,2.379
15,3,2.38
14,4,2.381
1,2,2.382
-6,2,2.383
-2,4,2.384
0,7,2.385
-2,6,2.386
-5,2,2.387
-2,-2,2.388
-1,-4,2.389
-5,-1,2.39
-5,0,2.391
2,1,2.392
8,2,2.393
2,2,2.394
-2,3,2.395
-1,3,2.396
1,-1,2.397
2,-2,2.398
6,-2,2.399
10,-1,2.4
8,0,2.401
0,2,2.402
-1,1,2.403
2,-4,2.404
3,-6,2.405
-1,-4,2.406
0,-1,2.407
7,-1,2.408
9,-3,2.409
3,-1,2.41
2,0,2.411
6,-2,2.412
12,-2,2.413
9,-1,2.414
5,0,2.415
2,0,2.416
0,-2,2.417
0,-4,2.418
4,-1,2.419
11,1,2.42
12,2,2.421
4,2,2.422
-1,-1,2.423
3,-4,2.424
7,-4,2.425
2,-4,2.426
-3,-1,2.427
-1,1,2.428
3,0,2.429
0,-2,2.43
-3,-1,2.431
-2,0,2.432
4,-1,2.433
8,-3,2.434
6,-1,2.435
1,-1,2.436
-1,-6,2.437
-1,-4,2.438
1,1,2.439
4,4,2.44
4,3,2.441
1,1,2.442
0,1,2.443
2,0,2.444
0,-2,2.445
-6,-4,2.446
-15,-5,2.447
-20,-3,2.448
-21,-2,2.449
-14,-2,2.45
-2,-1,2.451
10,0,2.452
13,1,2.453
8,0,2.454
9,0,2.455
13,1,2.456
15,-2,2.457
13,-4,2.458
18,-1,2.459
29,3,2.46
29,6,2.461
12,6,2.462
-5,4,2.463
-8,0,2.464
-4,-2,2.465
-5,-2,2.466
-8,-1,2.467
-6,2,2.468
-2,1,2.469
-3,0,2.47
-5,0,2.471
-3,3,2.472
3,6,2.473
4,4,2.474
0,1,2.475
-3,0,2.476
-1,-1,2.477
2,-2,2.478
9,-4,2.479
15,-4,2.48
15,-2,2.481
7,2,2.482
1,1,2.483
5,-3,2.484
8,-4,2.485
3,0,2.486
-3,2,2.487
-3,-1,2.488
2,-4,2.489
5,-2,2.49
5,1,2.491
3,0,2.492
4,0,2.493
5,-2,2.494
3,0,2.495
0,0,2.496
-1,-5,2.497
0,-7,2.498
4,-5,2.499
8,-2,2.5
4,1,2.501
-2,3,2.502
-2,0,2.503
2,-5,2.504
3,-5,2.505
1,1,2.506
0,5,2.507
0,0,2.508
0,-4,2.509
-2,-4,2.51
-1,-3,2.511
1,-3,2.512
4,-2,2.513
5,1,2.514
6,3,2.515
5,2,2.516
0,-3,2.517
-2,-4,2.518
3,-3,2.519
10,-3,2.52
10,-1,2.521
3,1,2.522
-1,0,2.523
0,-3,2.524
-1,-3,2.525
-2,1,2.526
-4,3,2.527
0,0,2.528
2,-1,2.529
1,2,2.53
0,4,2.531
0,1,2.532
3,1,2.533
4,2,2.534
2,3,2.535
-6,1,2.536
-15,-3,2.537
-17,-2,2.538
-3,0,2.539
14,-1,2.54
22,-2,2.541
19,-1,2.542
17,1,2.543
21,2,2.544
24,1,2.545
19,0,2.546
11,0,2.547
3,-2,2.548
-1,0,2.549
-3,2,2.55
-3,2,2.551
-4,0,2.552
-4,-1,2.553
-4,-1,2.554
-3,-1,2.555
-4,-3,2.556
-6,-7,2.557
-5,-7,2.558
3,-5,2.559
10,-4,2.56
9,-1,2.561
1,-1,2.562
-2,-2,2.563
0,-3,2.564
1,-1,2.565
-3,0,2.566
-6,0,2.567
-3,-1,2.568
0,0,2.569
1,1,2.57
1,0,2.571
2,-1,2.572
4,0,2.573
6,1,2.574
5,-1,2.575
4,-6,2.576
1,-10,2.577
0,-6,2.578
3,-2,2.579
9,0,2.58
11,1,2.581
8,1,2.582
5,-2,2.583
6,-6,2.584
3,-5,2.585
-3,0,2.586
-6,1,2.587
-2,-2,2.588
1,-1,2.589
1,3,2.59
0,6,2.591
1,4,2.592
4,3,2.593
3,2,2.594
0,2,2.595
-2,0,2.596
-2,-4,2.597
4,-4,2.598
14,-4,2.599
17,-4,2.6
11,-2,2.601
2,1,2.602
0,1,2.603
1,0,2.604
0,0,2.605
-4,3,2.606
-5,2,2.607
-2,-2,2.608
-1,-3,2.609
-2,-1,2.61
0,1,2.611
6,0,2.612
12,-1,2.613
9,-1,2.614
6,0,2.615
2,0,2.616
0,0,2.617
0,0,2.618
3,0,2.619
9,-2,2.62
7,0,2.621
2,3,2.622
-1,3,2.623
-1,0,2.624
1,-1,2.625
-1,1,2.626
-5,2,2.627
-5,-2,2.628
0,-2,2.629
5,1,2.63
5,3,2.631
2,1,2.632
2,0,2.633
1,-3,2.634
2,-3,2.635
0,-3,2.636
0,-6,2.637
3,-7,2.638
10,-6,2.639
15,-2,2.64
13,1,2.641
6,3,2.642
1,0,2.643
2,-3,2.644
3,-1,2.645
1,1,2.646
-1,0,2.647
-1,-1,2.648
-1,-1,2.649
-2,0,2.65
-3,-1,2.651
-1,-2,2.652
4,0,2.653
9,1,2.654
7,0,2.655
0,-1,2.656
-4,-5,2.657
-1,-7,2.658
10,-9,2.659
19,-6,2.66
16,1,2.661
7,6,2.662
1,4,2.663
1,0,2.664
1,-1,2.665
-1,0,2.666
-2,-1,2.667
0,-4,2.668
6,-2,2.669
7,2,2.67
3,4,2.671
-3,1,2.672
-6,-1,2.673
-15,-1,2.674
-19,1,2.675
-17,3,2.676
-4,-2,2.677
11,-5,2.678
19,-2,2.679
21,0,2.68
22,2,2.681
22,3,2.682
20,-2,2.683
15,-5,2.684
13,-1,2.685
15,2,2.686
15,0,2.687
10,-1,2.688
2,0,2.689
-2,2,2.69
-5,0,2.691
-6,-1,2.692
-4,-1,2.693
-4,0,2.694
-4,0,2.695
-3,-2,2.696
-2,-6,2.697
0,-5,2.698
0,-2,2.699
2,1,2.7
2,3,2.701
-1,4,2.702
-5,2,2.703
-7,-1,2.704
-7,0,2.705
-4,2,2.706
-4,1,2.707
-7,-1,2.708
-8,-1,2.709
-4,1,2.71
0,3,2.711
4,1,2.712
4,0,2.713
5,-1,2.714
7,0,2.715
5,-1,2.716
0,-6,2.717
0,-5,2.718
6,-2,2.719
15,0,2.72
14,-1,2.721
7,0,2.722
6,2,2.723
10,0,2.724
9,-3,2.725
2,-3,2.726
-2,-2,2.727
0,-3,2.728
2,-4,2.729
-1,-1,2.73
-1,4,2.731
3,4,2.732
5,1,2.733
0,-2,2.734
-2,0,2.735
0,1,2.736
3,-3,2.737
2,-3,2.738
4,-2,2.739
12,-1,2.74
14,0,2.741
5,1,2.742
-5,3,2.743
-12,2,2.744
-19,0,2.745
-20,0,2.746
-9,0,2.747
11,-2,2.748
20,-3,2.749
15,-2,2.75
11,3,2.751
18,3,2.752
26,1,2.753
23,-1,2.754
15,0,2.755
8,1,2.756
1,-1,2.757
-5,-2,2.758
-5,-3,2.759
2,-4,2.76
3,-1,2.761
-5,1,2.762
-12,0,2.763
-9,-1,2.764
-5,-3,2.765
-4,-2,2.766
-5,-1,2.767
3,-5,2.768
12,-5,2.769
14,-2,2.77
10,1,2.771
7,2,2.772
7,2,2.773
2,0,2.774
-1,-1,2.775
-2,-4,2.776
-2,-8,2.777
-2,-8,2.778
1,-3,2.779
7,1,2.78
7,1,2.781
0,1,2.782
-5,0,2.783
-1,-1,2.784
3,-5,2.785
-1,-5,2.786
-7,-2,2.787
-4,1,2.788
2,1,2.789
4,-2,2.79
1,-3,2.791
1,-1,2.792
5,1,2.793
5,0,2.794
2,-1,2.795
-1,-1,2.796
-2,-3,2.797
1,-4,2.798
6,-3,2.799
13,0,2.8
15,1,2.801
7,0,2.802
0,0,2.803
1,2,2.804
4,4,2.805
1,2,2.806
-2,0,2.807
-3,-3,2.808
-2,-1,2.809
-2,1,2.81
0,2,2.811
3,3,2.812
5,4,2.813
2,2,2.814
0,0,2.815
2,-1,2.816
3,-3,2.817
0,-5,2.818
1,-1,2.819
6,3,2.82
9,5,2.821
5,6,2.822
1,3,2.823
4,0,2.824
7,1,2.825
5,3,2.826
0,2,2.827
-1,1,2.828
0,1,2.829
1,1,2.83
0,0,2.831
1,-2,2.832
5,-2,2.833
7,0,2.834
10,5,2.835
5,3,2.836
0,-4,2.837
-3,-7,2.838
2,-6,2.839
11,-5,2.84
10,-3,2.841
2,-1,2.842
-3,0,2.843
-1,0,2.844
2,-2,2.845
1,-4,2.846
0,-6,2.847
0,-6,2.848
2,-1,2.849
2,4,2.85
1,5,2.851
0,3,2.852
1,1,2.853
3,-3,2.854
7,-4,2.855
4,-1,2.856
-1,1,2.857
-1,1,2.858
7,-3,2.859
14,-3,2.86
12,0,2.861
3,4,2.862
1,0,2.863
3,-6,2.864
0,-6,2.865
-6,-2,2.866
-8,1,2.867
-2,-1,2.868
2,-3,2.869
2,-2,2.87
1,-1,2.871
5,-2,2.872
7,-1,2.873
2,0,2.874
-2,-1,2.875
-4,-4,2.876
-3,-7,2.877
-2,-4,2.878
1,-2,2.879
6,-5,2.88
7,-6,2.881
3,0,2.882
0,4,2.883
2,1,2.884
3,-2,2.885
2,-2,2.886
-1,0,2.887
-1,0,2.888
2,0,2.889
4,4,2.89
4,5,2.891
6,0,2.892
8,-1,2.893
8,1,2.894
7,5,2.895
3,5,2.896
0,2,2.897
-1,3,2.898
4,5,2.899
11,3,2.9
11,3,2.901
5,5,2.902
2,4,2.903
4,0,2.904
6,-3,2.905
2,-1,2.906
0,-3,2.907
1,-7,2.908
1,-4,2.909
-1,2,2.91
-3,2,2.911
-7,-2,2.912
-13,-3,2.913
-15,2,2.914
-8,5,2.915
3,1,2.916
11,-6,2.917
14,-7,2.918
19,-4,2.919
28,-4,2.92
28,-3,2.921
20,-2,2.922
13,-2,2.923
11,-3,2.924
9,0,2.925
0,5,2.926
-5,5,2.927
-8,-1,2.928
-8,-2,2.929
-9,0,2.93
-9,0,2.931
-3,-2,2.932
4,0,2.933
3,3,2.934
1,2,2.935
-1,-1,2.936
-2,-4,2.937
-5,-1,2.938
-3,0,2.939
4,-2,2.94
8,-3,2.941
1,1,2.942
-4,3,2.943
-2,-3,2.944
1,-8,2.945
1,-8,2.946
-2,-6,2.947
-2,-3,2.948
2,-1,2.949
4,0,2.95
4,-1,2.951
3,-2,2.952
5,1,2.953
3,3,2.954
2,3,2.955
0,1,2.956
-1,-2,2.957
0,0,2.958
4,0,2.959
7,0,2.96
4,1,2.961
0,4,2.962
2,1,2.963
7,-2,2.964
7,-3,2.965
0,0,2.966
-3,1,2.967
-2,-2,2.968
1,-4,2.969
3,-2,2.97
7,0,2.971
11,-1,2.972
12,-1,2.973
7,0,2.974
3,2,2.975
2,1,2.976
0,-3,2.977
-1,-3,2.978
1,-3,2.979
10,-4,2.98
13,-3,2.981
7,-1,2.982
-1,-1,2.983
-1,-2,2.984
0,-1,2.985
-1,3,2.986
-3,4,2.987
-3,1,2.988
0,-1,2.989
2,-1,2.99
1,1,2.991
2,3,2.992
5,3,2.993
6,-1,2.994
3,-3,2.995
-2,-1,2.996
-3,0,2.997
-2,-2,2.998
3,-5,2.999
7,-7,3.0
9,-2,3.001
7,1,3.002
4,1,3.003
3,0,3.004
4,2,3.005
3,3,3.006
-1,0,3.007
-5,-4,3.008
-5,-5,3.009
-1,-1,3.01
2,0,3.011
3,2,3.012
4,3,3.013
3,0,3.014
5,-1,3.015
5,-2,3.016
2,-5,3.017
-1,-6,3.018
1,-5,3.019
8,0,3.02
7,6,3.021
0,7,3.022
-3,1,3.023
-1,-3,3.024
1,-1,3.025
0,2,3.026
1,0,3.027
5,-2,3.028
5,-2,3.029
0,3,3.03
-1,3,3.031
4,0,3.032
8,0,3.033
5,1,3.034
1,4,3.035
0,4,3.036
-2,-2,3.037
-3,-6,3.038
3,-5,3.039
15,-1,3.04
19,4,3.041
10,5,3.042
2,2,3.043
1,-1,3.044
2,-2,3.045
-1,0,3.046
-2,0,3.047
0,0,3.048
2,0,3.049
-1,0,3.05
-2,-1,3.051
0,-2,3.052
5,2,3.053
2,3,3.054
-7,3,3.055
-18,0,3.056
-20,-7,3.057
-12,-8,3.058
5,-6,3.059
20,-1,3.06
23,4,3.061
18,4,3.062
16,-2,3.063
17,-5,3.064
14,-3,3.065
3,-1,3.066
-5,-1,3.067
-5,-1,3.068
-3,0,3.069
-3,2,3.07
-1,2,3.071
3,0,3.072
5,0,3.073
2,-2,3.074
-1,-1,3.075
-1,1,3.076
0,-3,3.077
0,-5,3.078
3,-6,3.079
10,-5,3.08
12,-2,3.081
5,0,3.082
0,0,3.083
0,-1,3.084
0,-3,3.085
-4,-1,3.086
-5,1,3.087
-2,0,3.088
0,-2,3.089
-2,-3,3.09
-2,-1,3.091
2,0,3.092
6,0,3.093
2,1,3.094
0,3,3.095
3,2,3.096
7,-3,3.097
5,-3,3.098
3,2,3.099
5,4,3.1
10,0,3.101
6,-3,3.102
1,-1,3.103
-1,0,3.104
1,-1,3.105
-1,-3,3.106
-4,-2,3.107
-4,0,3.108
-1,0,3.109
1,0,3.11
2,2,3.111
2,3,3.112
6,6,3.113
10,4,3.114
10,2,3.115
4,0,3.116
-2,-4,3.117
-2,-6,3.118
4,-3,3.119
12,0,3.12
12,1,3.121
4,2,3.122
-2,-1,3.123
-3,-4,3.124
1,-4,3.125
5,-3,3.126
4,-1,3.127
1,0,3.128
-1,-1,3.129
-2,-1,3.13
0,0,3.131
0,2,3.132
2,2,3.133
3,2,3.134
3,1,3.135
1,2,3.136
0,-2,3.137
1,-5,3.138
4,-3,3.139
8,0,3.14
7,5,3.141
1,7,3.142
-3,3,3.143
-2,-1,3.144
1,-3,3.145
1,-1,3.146
-1,-2,3.147
-4,-4,3.148
-4,-5,3.149
-1,-3,3.15
4,-1,3.151
7,-2,3.152
8,-1,3.153
5,0,3.154
6,0,3.155
5,-2,3.156
3,-8,3.157
1,-8,3.158
4,-5,3.159
9,-3,3.16
9,-3,3.161
4,-3,3.162
1,-4,3.163
0,-4,3.164
0,-2,3.165
-2,-1,3.166
-2,0,3.167
0,0,3.168
0,2,3.169
0,1,3.17
1,-2,3.171
3,-3,3.172
6,0,3.173
5,2,3.174
7,3,3.175
5,1,3.176
-1,-2,3.177
-3,-2,3.178
3,-1,3.179
10,0,3.18
9,2,3.181
0,3,3.182
-2,2,3.183
1,-1,3.184
2,0,3.185
-1,2,3.186
-4,2,3.187
-6,-1,3.188
-12,-1,3.189
-18,0,3.19
-12,-1,3.191
4,-3,3.192
19,-2,3.193
21,-1,3.194
19,1,3.195
18,-2,3.196
18,-8,3.197
15,-6,3.198
11,-2,3.199
7,-1,3.2
4,0,3.201
0,2,3.202
-4,5,3.203
-3,4,3.204
-2,0,3.205
-2,-1,3.206
-7,-1,3.207
-11,0,3.208
-10,2,3.209
-8,4,3.21
-5,6,3.211
0,3,3.212
6,0,3.213
8,-3,3.214
4,-2,3.215
0,1,3.216
2,-3,3.217
6,-5,3.218
8,-5,3.219
9,-3,3.22
8,-1,3.221
4,0,3.222
-1,2,3.223
-3,1,3.224
-1,0,3.225
1,0,3.226
0,0,3.227
0,-1,3.228
1,-1,3.229
3,-1,3.23
3,1,3.231
2,3,3.232
3,5,3.233
3,2,3.234
3,-2,3.235
0,-5,3.236
-1,-6,3.237
-1,-4,3.238
4,-1,3.239
12,-2,3.24
11,-2,3.241
0,-3,3.242
-7,-4,3.243
-9,-5,3.244
-6,-2,3.245
-4,0,3.246
-3,1,3.247
0,-2,3.248
6,-5,3.249
11,-4,3.25
15,0,3.251
18,3,3.252
15,6,3.253
6,4,3.254
3,3,3.255
4,-2,3.256
3,-6,3.257
-1,-5,3.258
0,-2,3.259
6,2,3.26
8,5,3.261
2,6,3.262
-3,3,3.263
-3,0,3.264
-3,-1,3.265
-4,-1,3.266
-5,-4,3.267
-2,-4,3.268
-1,-2,3.269
-2,-1,3.27
-2,-4,3.271
0,-6,3.272
5,-2,3.273
5,1,3.274
2,1,3.275
0,-2,3.276
-2,-5,3.277
-5,-2,3.278
-9,-2,3.279
-11,-4,3.28
-10,0,3.281
-4,4,3.282
8,3,3.283
17,-1,3.284
18,-2,3.285
15,2,3.286
17,3,3.287
19,-3,3.288
15,-5,3.289
8,-2,3.29
4,3,3.291
3,4,3.292
2,6,3.293
1,7,3.294
3,7,3.295
4,5,3.296
1,0,3.297
-2,0,3.298
0,3,3.299
3,3,3.3
3,1,3.301
-1,2,3.302
-4,4,3.303
-4,3,3.304
-5,-1,3.305
-4,-2,3.306
-3,0,3.307
-1,0,3.308
-1,-4,3.309
-1,-6,3.31
3,-2,3.311
5,0,3.312
7,-1,3.313
5,-4,3.314
4,-2,3.315
3,0,3.316
1,-4,3.317
0,-9,3.318
2,-8,3.319
7,-1,3.32
6,5,3.321
0,4,3.322
-2,-1,3.323
0,-3,3.324
1,-2,3.325
-2,-1,3.326
-2,-2,3.327
3,-3,3.328
7,-1,3.329
1,1,3.33
-10,2,3.331
-14,-1,3.332
-7,-3,3.333
3,-3,3.334
10,0,3.335
10,2,3.336
9,-2,3.337
12,-3,3.338
18,-1,3.339
19,3,3.34
4,3,3.341
-17,4,3.342
-23,3,3.343
-9,-1,3.344
9,-5,3.345
11,-5,3.346
6,-1,3.347
10,1,3.348
19,-1,3.349
19,-2,3.35
13,3,3.351
10,4,3.352
12,3,3.353
11,-2,3.354
5,-2,3.355
-2,-1,3.356
-5,-5,3.357
-2,-5,3.358
3,-3,3.359
7,0,3.36
3,2,3.361
-4,3,3.362
-6,3,3.363
-4,1,3.364
-3,0,3.365
-6,1,3.366
-5,2,3.367
-3,-1,3.368
-3,-6,3.369
-4,-4,3.37
-3,3,3.371
3,3,3.372
10,0,3.373
8,-1,3.374
3,0,3.375
0,-1,3.376
-1,-6,3.377
-1,-7,3.378
3,-1,3.379
10,2,3.38
10,1,3.381
3,-1,3.382
-3,-1,3.383
-2,-1,3.384
2,-3,3.385
1,-3,3.386
-1,-2,3.387
-1,-3,3.388
1,-3,3.389
2,-1,3.39
1,0,3.391
2,0,3.392
5,2,3.393
6,4,3.394
5,0,3.395
2,-5,3.396
0,-9,3.397
0,-8,3.398
4,-3,3.399
10,-1,3.4
9,2,3.401
2,5,3.402
-2,4,3.403
-2,-1,3.404
-1,-2,3.405
-5,0,3.406
-8,0,3.407
-9,-2,3.408
-16,-3,3.409
-25,0,3.41
-27,3,3.411
-12,2,3.412
11,1,3.413
26,0,3.414
31,-1,3.415
32,-2,3.416
30,-5,3.417
26,-4,3.418
20,-3,3.419
15,-1,3.42
12,0,3.421
7,2,3.422
0,1,3.423
-4,0,3.424
-3,0,3.425
-6,3,3.426
-9,4,3.427
-8,3,3.428
-3,1,3.429
1,0,3.43
2,2,3.431
3,4,3.432
6,7,3.433
8,5,3.434
9,3,3.435
5,4,3.436
-1,-1,3.437
-2,-5,3.438
5,-9,3.439
12,-8,3.44
9,-1,3.441
0,3,3.442
-5,-1,3.443
-2,-4,3.444
-1,-3,3.445
-3,0,3.446
-5,-2,3.447
-5,-5,3.448
-3,-3,3.449
-3,0,3.45
-4,1,3.451
-3,-1,3.452
-1,0,3.453
0,1,3.454
3,1,3.455
3,0,3.456
3,-3,3.457
5,-5,3.458
13,0,3.459
21,4,3.46
20,4,3.461
13,4,3.462
5,1,3.463
1,-1,3.464
0,-2,3.465
-3,-2,3.466
-4,0,3.467
-3,1,3.468
-1,0,3.469
-2,-2,3.47
-4,-1,3.471
-3,0,3.472
2,-1,3.473
5,-3,3.474
7,-2,3.475
4,-2,3.476
0,-4,3.477
-1,-4,3.478
3,-3,3.479
9,-2,3.48
7,0,3.481
1,1,3.482
-2,1,3.483
0,0,3.484
-1,-1,3.485
-5,-1,3.486
-8,-1,3.487
-3,0,3.488
1,1,3.489
3,2,3.49
5,1,3.491
9,-2,3.492
11,-3,3.493
5,-3,3.494
-4,0,3.495
-15,1,3.496
-21,-3,3.497
-14,-7,3.498
5,-6,3.499
18,-1,3.5
14,2,3.501
2,1,3.502
6,-2,3.503
18,-4,3.504
21,-2,3.505
15,0,3.506
11,0,3.507
15,0,3.508
14,0,3.509
5,2,3.51
0,3,3.511
1,3,3.512
2,4,3.513
1,3,3.514
2,3,3.515
9,1,3.516
14,-6,3.517
13,-8,3.518
11,-7,3.519
10,-2,3.52
5,3,3.521
-1,5,3.522
-5,3,3.523
-5,0,3.524
-7,-1,3.525
-9,0,3.526
-7,1,3.527
-3,-1,3.528
-2,-4,3.529
-2,-4,3.53
3,0,3.531
11,1,3.532
10,3,3.533
0,0,3.534
-4,-2,3.535
-4,-1,3.536
-2,-3,3.537
-2,-2,3.538
-2,0,3.539
-1,0,3.54
-3,0,3.541
-9,2,3.542
-12,3,3.543
-8,1,3.544
-3,-3,3.545
0,-5,3.546
3,-3,3.547
4,-1,3.548
2,-1,3.549
-2,-1,3.55
0,-1,3.551
6,0,3.552
12,3,3.553
11,4,3.554
8,3,3.555
6,0,3.556
1,-3,3.557
-7,-4,3.558
-13,-5,3.559
-6,-4,3.56
6,-3,3.561
16,0,3.562
20,0,3.563
20,0,3.564
19,0,3.565
18,1,3.566
19,-3,3.567
17,-7,3.568
11,-5,3.569
3,3,3.57
-2,4,3.571
-4,0,3.572
-4,0,3.573
-3,1,3.574
1,4,3.575
3,1,3.576
-1,-4,3.577
-3,-3,3.578
0,-1,3.579
5,-1,3.58
3,-2,3.581
-2,-1,3.582
-3,0,3.583
-1,-3,3.584
-3,-6,3.585
-6,-3,3.586
-6,0,3.587
-1,0,3.588
3,-1,3.589
2,-1,3.59
1,0,3.591
0,1,3.592
0,2,3.593
-2,2,3.594
-1,1,3.595
0,0,3.596
-2,-3,3.597
-1,-1,3.598
7,1,3.599
19,0,3.6
21,2,3.601
15,7,3.602
8,8,3.603
4,4,3.604
1,0,3.605
-2,-2,3.606
0,-2,3.607
3,-3,3.608
1,-3,3.609
-3,-3,3.61
-4,-1,3.611
-2,0,3.612
0,3,3.613
0,1,3.614
-1,-2,3.615
-4,-5,3.616
-5,-6,3.617
-2,-7,3.618
7,-5,3.619
14,-2,3.62
11,2,3.621
6,4,3.622
8,1,3.623
12,-1,3.624
11,0,3.625
4,1,3.626
0,2,3.627
0,2,3.628
-1,-2,3.629
-2,-5,3.63
0,-3,3.631
4,-2,3.632
7,0,3.633
4,2,3.634
2,2,3.635
-1,0,3.636
-2,-6,3.637
0,-4,3.638
4,-2,3.639
6,-1,3.64
1,0,3.641
-4,3,3.642
-7,3,3.643
-7,-1,3.644
-13,-3,3.645
-24,1,3.646
-28,4,3.647
-15,0,3.648
4,-3,3.649
17,-2,3.65
17,-1,3.651
18,-1,3.652
23,-1,3.653
23,0,3.654
15,1,3.655
2,2,3.656
0,-2,3.657
3,-1,3.658
4,0,3.659
2,0,3.66
1,1,3.661
5,1,3.662
13,0,3.663
17,-2,3.664
16,-2,3.665
6,0,3.666
-2,0,3.667
0,-1,3.668
5,-1,3.669
4,0,3.67
-2,1,3.671
-5,0,3.672
-1,0,3.673
0,1,3.674
-2,0,3.675
-5,-4,3.676
-5,-11,3.677
-3,-11,3.678
-1,-7,3.679
0,-6,3.68
0,-4,3.681
-3,0,3.682
-4,3,3.683
0,2,3.684
3,0,3.685
-1,2,3.686
-5,4,3.687
-2,4,3.688
4,1,3.689
5,0,3.69
2,0,3.691
5,1,3.692
10,4,3.693
13,4,3.694
11,3,3.695
8,0,3.696
4,-2,3.697
1,-1,3.698
1,-1,3.699
6,-2,3.7
10,0,3.701
7,4,3.702
2,3,3.703
0,-2,3.704
0,-4,3.705
-3,-1,3.706
-4,0,3.707
-2,-2,3.708
2,-2,3.709
1,0,3.71
1,1,3.711
4,-1,3.712
10,-1,3.713
10,1,3.714
5,0,3.715
0,-4,3.716
-2,-9,3.717
-3,-7,3.718
-2,-3,3.719
4,-1,3.72
8,0,3.721
3,0,3.722
-1,-2,3.723
-2,-6,3.724
1,-5,3.725
0,-1,3.726
-1,3,3.727
-1,0,3.728
1,-4,3.729
2,-3,3.73
2,-1,3.731
0,-2,3.732
-3,-2,3.733
-12,-1,3.734
-13,2,3.735
-1,2,3.736
14,-4,3.737
20,-6,3.738
21,-2,3.739
24,1,3.74
27,3,3.741
20,3,3.742
10,1,3.743
4,-2,3.744
0,-4,3.745
-5,-2,3.746
-6,0,3.747
-5,0,3.748
-4,-2,3.749
-7,-2,3.75
-8,2,3.751
-3,3,3.752
3,5,3.753
7,4,3.754
6,2,3.755
2,1,3.756
1,-2,3.757
4,-2,3.758
14,0,3.759
21,2,3.76
14,2,3.761
0,2,3.762
-5,2,3.763
-5,2,3.764
-9,0,3.765
-16,-1,3.766
-18,-2,3.767
-11,-1,3.768
-5,-1,3.769
-4,-2,3.77
-2,-3,3.771
4,0,3.772
9,4,3.773
9,4,3.774
9,-1,3.775
6,-5,3.776
2,-6,3.777
-1,-6,3.778
3,-3,3.779
8,0,3.78
8,2,3.781
2,3,3.782
-2,-2,3.783
-1,-5,3.784
-1,-2,3.785
-1,0,3.786
-1,-1,3.787
1,-2,3.788
3,1,3.789
3,3,3.79
5,1,3.791
8,0,3.792
10,0,3.793
7,1,3.794
5,0,3.795
3,-4,3.796
1,-6,3.797
-1,-5,3.798
2,-4,3.799
8,-3,3.8
9,0,3.801
2,1,3.802
-2,0,3.803
0,-1,3.804
2,-1,3.805
0,1,3.806
-3,1,3.807
-1,0,3.808
3,0,3.809
5,2,3.81
3,0,3.811
2,-1,3.812
2,-1,3.813
0,-1,3.814
1,-3,3.815
2,-5,3.816
1,-8,3.817
-2,-5,3.818
-1,-3,3.819
4,-1,3.82
5,0,3.821
1,1,3.822
-4,0,3.823
-9,-5,3.824
-15,-6,3.825
-16,-5,3.826
-7,-2,3.827
6,1,3.828
14,3,3.829
14,3,3.83
14,0,3.831
21,-2,3.832
24,0,3.833
19,2,3.834
9,2,3.835
2,0,3.836
0,-5,3.837
1,-5,3.838
4,-2,3.839
6,-1,3.84
3,1,3.841
-3,4,3.842
-6,5,3.843
-4,4,3.844
-1,2,3.845
-4,1,3.846
-6,0,3.847
-3,-3,3.848
0,-3,3.849
0,-3,3.85
-2,-3,3.851
1,-2,3.852
5,0,3.853
2,1,3.854
-3,3,3.855
-7,4,3.856
-7,1,3.857
-4,-2,3.858
2,0,3.859
10,1,3.86
12,0,3.861
12,-1,3.862
14,-1,3.863
16,-1,3.864
10,1,3.865
0,3,3.866
-5,-1,3.867
-6,-4,3.868
-4,-5,3.869
-2,-6,3.87
-1,-4,3.871
0,-2,3.872
1,0,3.873
1,2,3.874
2,0,3.875
1,-4,3.876
-1,-9,3.877
-1,-9,3.878
5,-4,3.879
13,1,3.88
13,5,3.881
8,4,3.882
7,1,3.883
8,0,3.884
5,1,3.885
0,3,3.886
-2,2,3.887
0,2,3.888
2,3,3.889
1,5,3.89
0,5,3.891
1,2,3.892
5,1,3.893
6,-2,3.894
7,-1,3.895
5,0,3.896
0,-3,3.897
-5,-5,3.898
-2,-7,3.899
2,-5,3.9
2,1,3.901
-4,4,3.902
-5,2,3.903
0,0,3.904
2,1,3.905
1,1,3.906
-1,-2,3.907
0,-5,3.908
3,-4,3.909
4,-2,3.91
5,0,3.911
7,0,3.912
6,2,3.913
6,-1,3.914
7,-4,3.915
5,-4,3.916
1,-2,3.917
0,0,3.918
6,1,3.919
11,0,3.92
6,3,3.921
-2,5,3.922
-5,4,3.923
-2,1,3.924
0,0,3.925
0,0,3.926
-1,0,3.927
-1,-1,3.928
-1,1,3.929
-1,3,3.93
1,3,3.931
4,2,3.932
7,4,3.933
9,5,3.934
10,2,3.935
7,-1,3.936
2,-5,3.937
0,-8,3.938
3,-6,3.939
9,-3,3.94
7,-1,3.941
3,0,3.942
1,-2,3.943
3,-5,3.944
1,-5,3.945
-1,-5,3.946
-1,-5,3.947
2,-4,3.948
2,-2,3.949
-1,-1,3.95
-5,-1,3.951
-8,0,3.952
-14,0,3.953
-18,-1,3.954
-12,-4,3.955
2,-5,3.956
12,-5,3.957
10,-2,3.958
11,0,3.959
19,1,3.96
23,2,3.961
14,3,3.962
2,2,3.963
1,1,3.964
4,0,3.965
0,-1,3.966
-3,0,3.967
2,0,3.968
11,1,3.969
10,3,3.97
4,6,3.971
0,6,3.972
2,4,3.973
4,0,3.974
7,0,3.975
8,1,3.976
4,-3,3.977
-4,-6,3.978
-7,-6,3.979
-3,-3,3.98
-1,2,3.981
-6,4,3.982
-8,3,3.983
-3,-2,3.984
2,-5,3.985
0,-4,3.986
-5,-1,3.987
-4,-1,3.988
-2,-1,3.989
-2,-1,3.99
-2,1,3.991
1,1,3.992
7,0,3.993
8,0,3.994
5,1,3.995
0,1,3.996
0,-3,3.997
3,-4,3.998
8,0,3.999
13,2,4.0
12,2,4.001
7,0,4.002
2,-1,4.003
1,0,4.004
0,-1,4.005
-2,-2,4.006
-3,-2,4.007
-2,-3,4.008
-1,-3,4.009
1,-1,4.01
4,2,4.011
6,4,4.012
7,4,4.013
3,1,4.014
4,1,4.015
5,0,4.016
3,-2,4.017
3,-4,4.018
5,-2,4.019
8,0,4.02
6,2,4.021
-1,4,4.022
-3,1,4.023
1,-1,4.024
7,-3,4.025
4,-5,4.026
-4,-3,4.027
-6,-1,4.028
-2,0,4.029
4,1,4.03
7,0,4.031
7,-2,4.032
8,0,4.033
8,0,4.034
5,-2,4.035
0,-3,4.036
-2,-5,4.037
0,-4,4.038
3,-3,4.039
5,0,4.04
2,4,4.041
-1,6,4.042
-1,3,4.043
2,-2,4.044
2,-2,4.045
-1,1,4.046
-3,2,4.047
1,0,4.048
6,0,4.049
6,2,4.05
7,1,4.051
6,-3,4.052
5,-1,4.053
0,1,4.054
0,1,4.055
0,1,4.056
0,-3,4.057
1,-6,4.058
4,-4,4.059
7,-3,4.06
7,-1,4.061
5,0,4.062
2,0,4.063
-1,1,4.064
-1,0,4.065
0,-1,4.066
-1,-1,4.067
-2,-1,4.068
2,0,4.069
6,2,4.07
5,2,4.071
4,3,4.072
7,4,4.073
10,5,4.074
9,4,4.075
7,0,4.076
5,-6,4.077
0,-7,4.078
-1,-7,4.079
2,-9,4.08
0,-6,4.081
-10,-3,4.082
-23,-1,4.083
-26,0,4.084
-19,0,4.085
-4,-2,4.086
12,-4,4.087
24,-5,4.088
29,-2,4.089
27,2,4.09
24,3,4.091
22,0,4.092
20,0,4.093
15,-1,4.094
7,0,4.095
1,0,4.096
0,-1,4.097
-2,-3,4.098
-3,-4,4.099
-2,-4,4.1
-2,1,4.101
-1,5,4.102
-1,1,4.103
-2,-1,4.104
-4,0,4.105
-8,3,4.106
-12,2,4.107
-10,0,4.108
-5,-1,4.109
-1,-2,4.11
1,2,4.111
4,5,4.112
7,4,4.113
6,2,4.114
3,-1,4.115
1,-3,4.116
2,-5,4.117
6,-5,4.118
13,-4,4.119
16,-2,4.12
10,0,4.121
-4,0,4.122
-13,-4,4.123
-13,-7,4.124
-12,-7,4.125
-16,-3,4.126
-17,-3,4.127
-12,-4,4.128
-5,-4,4.129
-1,0,4.13
5,2,4.131
22,0,4.132
42,0,4.133
50,2,4.134
38,4,4.135
15,4,4.136
-2,0,4.137
-4,0,4.138
1,1,4.139
3,-1,4.14
-5,-1,4.141
-21,0,4.142
-33,2,4.143
-30,2,4.144
-15,2,4.145
4,2,4.146
19,0,4.147
24,-1,4.148
20,-2,4.149
13,0,4.15
10,1,4.151
12,1,4.152
18,2,4.153
15,0,4.154
3,-2,4.155
-13,-4,4.156
-18,-7,4.157
-5,-5,4.158
25,-3,4.159
51,-3,4.16
53,-4,4.161
25,-3,4.162
-7,-4,4.163
-19,-5,4.164
-16,-3,4.165
-17,-1,4.166
-25,-1,4.167
-26,0,4.168
-9,6,4.169
10,13,4.17
14,13,4.171
7,1,4.172
4,-11,4.173
0,-17,4.174
-5,-11,4.175
-15,0,4.176
-16,5,4.177
-10,4,4.178
-5,1,4.179
0,0,4.18
5,3,4.181
6,5,4.182
0,5,4.183
-3,5,4.184
1,8,4.185
9,9,4.186
12,4,4.187
10,-10,4.188
8,-24,4.189
9,-25,4.19
14,-13,4.191
17,2,4.192
19,15,4.193
12,18,4.194
3,16,4.195
-2,12,4.196
-8,3,4.197
-15,-8,4.198
-17,-24,4.199
-11,-41,4.2
-5,-51,4.201
-4,-52,4.202
-1,-50,4.203
8,-34,4.204
16,0,4.205
15,40,4.206
10,57,4.207
8,49,4.208
6,41,4.209
-1,50,4.21
-2,68,4.211
4,77,4.212
12,67,4.213
10,18,4.214
8,-52,4.215
11,-89,4.216
15,-59,4.217
14,-1,4.218
16,17,4.219
21,-8,4.22
21,-15,4.221
12,24,4.222
3,76,4.223
1,87,4.224
-2,36,4.225
-10,-63,4.226
-14,-149,4.227
-9,-154,4.228
-8,-74,4.229
-18,1,4.23
-21,17,4.231
-12,12,4.232
8,37,4.233
30,60,4.234
44,51,4.235
42,44,4.236
23,77,4.237
-1,96,4.238
-16,32,4.239
-21,-63,4.24
-27,-88,4.241
-33,-33,4.242
-22,10,4.243
1,-10,4.244
14,-60,4.245
6,-92,4.246
-4,-94,4.247
-4,-64,4.248
0,-19,4.249
0,6,4.25
-1,1,4.251
4,5,4.252
14,38,4.253
13,59,4.254
8,39,4.255
4,26,4.256
1,40,4.257
-1,55,4.258
2,72,4.259
10,80,4.26
13,55,4.261
7,26,4.262
0,-12,4.263
-4,-45,4.264
-3,-61,4.265
-2,-72,4.266
-1,-69,4.267
0,-70,4.268
-1,-84,4.269
-2,-88,4.27
-3,-58,4.271
-5,-21,4.272
-7,32,4.273
-5,90,4.274
4,155,4.275
11,165,4.276
12,71,4.277
14,-83,4.278
25,-172,4.279
39,-121,4.28
41,3,4.281
29,72,4.282
16,57,4.283
8,36,4.284
2,48,4.285
-7,48,4.286
-17,16,4.287
-25,-2,4.288
-30,10,4.289
-25,3,4.29
-11,-42,4.291
5,-72,4.292
21,-44,4.293
29,4,4.294
32,20,4.295
28,14,4.296
17,22,4.297
6,34,4.298
7,10,4.299
17,-37,4.3
12,-64,4.301
-17,-44,4.302
-49,-6,4.303
-58,26,4.304
-46,65,4.305
-40,117,4.306
-38,141,4.307
-23,78,4.308
4,-48,4.309
17,-122,4.31
10,-81,4.311
7,-2,4.312
17,7,4.313
21,-60,4.314
6,-111,4.315
-9,-99,4.316
-1,-61,4.317
26,-25,4.318
43,13,4.319
41,47,4.32
26,51,4.321
10,40,4.322
-2,64,4.323
-3,125,4.324
0,164,4.325
-1,129,4.326
-5,24,4.327
-7,-93,4.328
-9,-161,4.329
-19,-160,4.33
-31,-133,4.331
-30,-127,4.332
-10,-126,4.333
13,-73,4.334
25,24,4.335
25,108,4.336
31,148,4.337
51,162,4.338
71,94,4.339
69,19,4.34
34,-74,4.341
-10,-123,4.342
-30,-34,4.343
-20,30,4.344
-4,18,4.345
-8,12,4.346
-22,24,4.347
-30,37,4.348
-24,54,4.349
-5,59,4.35
31,24,4.351
75,-20,4.352
99,-92,4.353
72,-131,4.354
11,-24,4.355
-35,76,4.356
-45,70,4.357
-41,21,4.358
-43,15,4.359
-38,36,4.36
-18,34,4.361
-5,34,4.362
-16,53,4.363
-29,43,4.364
-31,-36,4.365
-31,-118,4.366
-38,-113,4.367
-32,-34,4.368
-4,41,4.369
17,68,4.37
12,69,4.371
3,74,4.372
12,102,4.373
23,126,4.374
18,86,4.375
7,-64,4.376
11,-252,4.377
22,-316,4.378
31,-200,4.379
41,-32,4.38
51,39,4.381
38,31,4.382
0,49,4.383
-29,129,4.384
-26,197,4.385
-16,164,4.386
-31,8,4.387
-59,-198,4.388
-67,-300,4.389
-40,-204,4.39
9,1,4.391
77,121,4.392
135,102,4.393
123,57,4.394
30,78,4.395
-57,106,4.396
-47,68,4.397
29,20,4.398
69,14,4.399
44,-13,4.4
24,-116,4.401
49,-209,4.402
81,-177,4.403
69,-49,4.404
17,57,4.405
-36,93,4.406
-62,100,4.407
-56,108,4.408
-42,100,4.409
-39,73,4.41
-44,51,4.411
-35,30,4.412
-15,-2,4.413
-6,-12,4.414
-12,22,4.415
-19,31,4.416
-21,-35,4.417
-31,-95,4.418
-52,-134,4.419
-72,-144,4.42
-62,-68,4.421
-3,-15,4.422
85,-30,4.423
132,-34,4.424
87,-8,4.425
1,14,4.426
-25,17,4.427
25,19,4.428
75,16,4.429
67,17,4.43
37,32,4.431
38,45,4.432
57,58,4.433
45,-9,4.434
-6,44,4.435
-77,58,4.436
-139,-47,4.437
-152,-143,4.438
-77,-204,4.439
46,-220,4.44
104,-100,4.441
38,-16,4.442
-60,-38,4.443
-75,-46,4.444
-34,-3,4.445
-29,30,4.446
-52,37,4.447
-18,40,4.448
69,34,4.449
122,37,4.45
106,59,4.451
60,81,4.452
3,100,4.453
-87,-3,4.454
-165,102,4.455
-203,130,4.456
-117,-79,4.457
-39,-266,4.458
18,-386,4.459
70,-417,4.46
106,-182,4.461
132,-17,4.462
126,-62,4.463
99,-76,4.464
9,9,4.465
-66,75,4.466
-101,87,4.467
-106,93,4.468
-18,83,4.469
44,87,4.47
24,131,4.471
12,174,4.472
27,212,4.473
59,202,4.474
143,-40,4.475
203,-294,4.476
220,-320,4.477
204,-131,4.478
171,25,4.479
116,24,4.48
23,-2,4.481
-78,83,4.482
-121,190,4.483
-84,153,4.484
-29,-8,4.485
-14,-142,4.486
-22,-181,4.487
-14,-176,4.488
-11,-114,4.489
-36,95,4.49
-68,375,4.491
-72,433,4.492
-62,143,4.493
-68,-225,4.494
-78,-322,4.495
-67,-350,4.496
-50,-168,4.497
-45,-11,4.498
-42,66,4.499
-22,121,4.5
-2,99,4.501
-1,83,4.502
-3,85,4.503
5,89,4.504
13,99,4.505
17,101,4.506
27,78,4.507
45,60,4.508
41,58,4.509
8,53,4.51
-20,35,4.511
-19,35,4.512
-1,89,4.513
1,138,4.514
-5,125,4.515
-6,-9,4.516
-2,-226,4.517
-1,-332,4.518
2,-219,4.519
9,-34,4.52
10,18,4.521
8,-39,4.522
16,-48,4.523
36,-1,4.524
58,-5,4.525
73,-57,4.526
84,-57,4.527
77,-5,4.528
29,13,4.529
-55,-9,4.53
-128,-17,4.531
-154,-9,4.532
-130,-11,4.533
109,4,4.534
80,75,4.535
65,144,4.536
92,134,4.537
109,81,4.538
89,49,4.539
75,22,4.54
80,-44,4.541
81,-119,4.542
66,-142,4.543
37,-121,4.544
-31,-90,4.545
-80,-42,4.546
-73,27,4.547
-66,73,4.548
-60,51,4.549
-55,-11,4.55
-60,-54,4.551
-58,-65,4.552
-37,-64,4.553
97,-45,4.554
72,28,4.555
59,137,4.556
83,176,4.557
97,87,4.558
80,-13,4.559
68,48,4.56
72,202,4.561
73,146,4.562
60,-218,4.563
35,-545,4.564
-25,-478,4.565
-68,-149,4.566
-62,45,4.567
-56,28,4.568
-50,39,4.569
-46,166,4.57
-50,246,4.571
-49,232,4.572
-30,251,4.573
-8,318,4.574
-2,289,4.575
-47,148,4.576
-115,68,4.577
-145,106,4.578
-120,85,4.579
-82,-91,4.58
-54,-271,4.581
-5,-277,4.582
90,-129,4.583
195,20,4.584
254,64,4.585
254,5,4.586
199,-80,4.587
97,-131,4.588
-13,-163,4.589
-59,-230,4.59
-35,-284,4.591
-18,-209,4.592
-50,-34,4.593
-100,82,4.594
-112,49,4.595
-107,5,4.596
-112,113,4.597
-105,276,4.598
-59,282,4.599
-14,117,4.6
-3,-52,4.601
5,-129,4.602
40,-129,4.603
74,-51,4.604
83,102,4.605
84,198,4.606
69,91,4.607
-9,-150,4.608
-115,-296,4.609
-129,-234,4.61
-12,-78,4.611
96,33,4.612
82,85,4.613
1,134,4.614
-16,184,4.615
20,201,4.616
1,171,4.617
-86,115,4.618
-135,50,4.619
-84,-15,4.62
12,-64,4.621
83,-88,4.622
117,-94,4.623
122,-79,4.624
102,-34,4.625
63,33,4.626
12,80,4.627
-55,75,4.628
-141,36,4.629
-203,7,4.63
-184,3,4.631
-64,-1,4.632
106,-22,4.633
275,-50,4.634
376,-59,4.635
374,-61,4.636
277,-74,4.637
126,-86,4.638
-13,-80,4.639
-94,-58,4.64
-123,-40,4.641
-137,-39,4.642
-152,-50,4.643
-143,-58,4.644
-105,-47,4.645
-72,-2,4.646
-63,52,4.647
-59,76,4.648
-37,65,4.649
-5,47,4.65
16,45,4.651
13,41,4.652
-13,29,4.653
-54,16,4.654
-79,19,4.655
-69,24,4.656
-45,15,4.657
-34,3,4.658
-33,-4,4.659
-27,-9,4.66
-25,-13,4.661
-32,-10,4.662
-29,-5,4.663
-2,-9,4.664
30,-10,4.665
53,-2,4.666
86,10,4.667
129,10,4.668
139,-2,4.669
85,-12,4.67
26,-12,4.671
26,-7,4.672
52,-2,4.673
28,-4,4.674
-42,-8,4.675
-78,-17,4.676
-64,-32,4.677
-73,-43,4.678
-124,-39,4.679
-124,-17,4.68
-24,15,4.681
84,35,4.682
111,31,4.683
90,19,4.684
96,19,4.685
102,31,4.686
56,37,4.687
-9,29,4.688
-23,7,4.689
1,-15,4.69
2,-23,4.691
-30,-11,4.692
-54,3,4.693
-59,0,4.694
-45,-16,4.695
-6,-26,4.696
50,-22,4.697
86,-10,4.698
82,-1,4.699
70,7,4.7
72,13,4.701
51,17,4.702
-15,17,4.703
-79,12,4.704
-90,-6,4.705
-68,-37,4.706
-58,-59,4.707
-59,-48,4.708
-42,-9,4.709
-19,27,4.71
-17,35,4.711
-23,21,4.712
-3,8,4.713
41,8,4.714
68,15,4.715
62,0,4.716
66,-60,4.717
101,-138,4.718
109,-162,4.719
33,-85,4.72
-80,53,4.721
-125,150,4.722
-61,152,4.723
32,101,4.724
81,70,4.725
88,73,4.726
87,66,4.727
77,32,4.728
32,3,4.729
-34,16,4.73
-79,60,4.731
-73,98,4.732
-40,105,4.733
-14,76,4.734
-3,31,4.735
8,-20,4.736
19,-79,4.737
8,-131,4.738
-23,-153,4.739
-34,-124,4.74
-12,-52,4.741
8,20,4.742
1,52,4.743
-10,36,4.744
-6,-12,4.745
-7,-68,4.746
-31,-102,4.747
-46,-89,4.748
-17,-36,4.749
23,9,4.75
20,8,4.751
-19,-27,4.752
-29,-47,4.753
2,-27,4.754
26,10,4.755
30,40,4.756
-23,40,4.757
-50,37,4.758
6,22,4.759
39,0,4.76
-1,-39,4.761
-45,-74,4.762
-101,-97,4.763
-134,-102,4.764
-100,-52,4.765
-53,-5,4.766
32,36,4.767
101,78,4.768
117,120,4.769
128,145,4.77
124,116,4.771
125,90,4.772
145,76,4.773
150,58,4.774
94,22,4.775
42,-12,4.776
7,-20,4.777
-28,-11,4.778
-56,-14,4.779
-59,-26,4.78
-63,-33,4.781
-87,-47,4.782
-94,-79,4.783
-49,-98,4.784
2,-60,4.785
-13,17,4.786
-70,63,4.787
-89,50,4.788
-52,12,4.789
-18,-10,4.79
-8,-18,4.791
2,-34,4.792
20,-53,4.793
26,-58,4.794
17,-39,4.795
11,-13,4.796
13,-2,4.797
5,3,4.798
-6,9,4.799
-1,13,4.8
13,16,4.801
21,29,4.802
30,48,4.803
49,35,4.804
64,-47,4.805
47,-153,4.806
11,-164,4.807
-19,-45,4.808
-38,80,4.809
-56,89,4.81
-59,30,4.811
-37,37,4.812
-3,104,4.813
17,122,4.814
17,61,4.815
9,14,4.816
-4,35,4.817
-19,60,4.818
-18,37,4.819
14,12,4.82
52,23,4.821
61,27,4.822
53,-6,4.823
58,-36,4.824
74,-30,4.825
64,-17,4.826
28,-29,4.827
-5,-40,4.828
-13,-32,4.829
-10,-25,4.83
-11,-30,4.831
-16,-30,4.832
-18,-18,4.833
-20,-12,4.834
-20,-17,4.835
-19,-20,4.836
-19,-14,4.837
-18,-10,4.838
-10,-14,4.839
-3,-15,4.84
-5,-7,4.841
-7,-2,4.842
-7,-7,4.843
-7,-9,4.844
-4,-3,4.845
-1,0,4.846
-1,-1,4.847
-2,-2,4.848
-1,3,4.849
0,6,4.85
1,3,4.851
4,1,4.852
13,2,4.853
19,2,4.854
11,1,4.855
-1,2,4.856
-5,3,4.857
0,1,4.858
9,-2,4.859
11,-1,4.86
5,1,4.861
0,2,4.862
-2,2,4.863
0,3,4.864
0,4,4.865
1,5,4.866
4,5,4.867
8,6,4.868
7,4,4.869
4,1,4.87
3,1,4.871
6,2,4.872
9,2,4.873
8,-1,4.874
6,-1,4.875
2,0,4.876
0,-3,4.877
3,-5,4.878
8,-3,4.879
9,2,4.88
4,7,4.881
0,6,4.882
-1,2,4.883
0,-2,4.884
0,-1,4.885
0,2,4.886
2,5,4.887
4,6,4.888
3,4,4.889
3,1,4.89
5,-1,4.891
7,-1,4.892
9,2,4.893
7,2,4.894
8,1,4.895
5,0,4.896
-1,-1,4.897
-6,0,4.898
-2,0,4.899
6,0,4.9
8,-1,4.901
2,0,4.902
-2,3,4.903
0,3,4.904
3,3,4.905
2,1,4.906
3,0,4.907
6,-1,4.908
8,0,4.909
5,1,4.91
2,2,4.911
2,1,4.912
4,1,4.913
7,2,4.914
18,0,4.915
28,-2,4.916
22,-8,4.917
-6,-8,4.918
-39,-5,4.919
-46,-2,4.92
-29,0,4.921
-11,0,4.922
0,0,4.923
14,-1,4.924
28,-3,4.925
27,-4,4.926
7,-2,4.927
-5,-2,4.928
1,-2,4.929
11,-1,4.93
5,-1,4.931
-1,-1,4.932
1,-1,4.933
0,-3,4.934
-14,-3,4.935
-35,-2,4.936
-75,-4,4.937
-99,-7,4.938
-75,-7,4.939
-29,-4,4.94
84,1,4.941
164,5,4.942
138,3,4.943
111,1,4.944
79,-2,4.945
40,-4,4.946
-13,0,4.947
-59,4,4.948
-82,4,4.949
-96,5,4.95
-78,5,4.951
-55,4,4.952
-14,5,4.953
21,5,4.954
16,1,4.955
14,-3,4.956
58,-8,4.957
110,-9,4.958
107,-6,4.959
48,1,4.96
0,7,4.961
-11,9,4.962
-16,4,4.963
-36,-2,4.964
-49,-3,4.965
-36,-2,4.966
-11,-5,4.967
-1,-6,4.968
-4,-6,4.969
-7,-1,4.97
-1,3,4.971
5,5,4.972
9,5,4.973
11,3,4.974
12,3,4.975
7,2,4.976
-1,-2,4.977
-3,-6,4.978
1,-6,4.979
6,-5,4.98
1,0,4.981
-8,3,4.982
-13,1,4.983
-14,0,4.984
-16,-2,4.985
-21,-4,4.986
-21,-4,4.987
-15,-4,4.988
-4,-3,4.989
4,-2,4.99
12,-2,4.991
21,-2,4.992
31,0,4.993
35,2,4.994
30,1,4.995
15,0,4.996
0,-4,4.997
-4,-5,4.998
1,-3,4.999
8,-2,5.0
5,-1,5.001
-2,0,5.002
-9,1,5.003
-21,3,5.004
-41,4,5.005
-45,3,5.006
-14,0,5.007
38,1,5.008
68,5,5.009
53,6,5.01
17,1,5.011
-1,-3,5.012
8,-1,5.013
19,3,5.014
12,5,5.015
-8,7,5.016
-20,3,5.017
-7,-1,5.018
19,-2,5.019
24,-3,5.02
-10,1,5.021
-66,3,5.022
-100,-2,5.023
-85,-7,5.024
-19,-7,5.025
61,-8,5.026
100,-8,5.027
67,-6,5.028
2,-4,5.029
-17,-2,5.03
33,-2,5.031
90,-1,5.032
93,0,5.033
38,2,5.034
-23,0,5.035
-56,-4,5.036
-62,-7,5.037
-59,-5,5.038
-59,-4,5.039
-51,-4,5.04
-18,0,5.041
27,6,5.042
45,9,5.043
27,1,5.044
9,-5,5.045
23,-5,5.046
45,-2,5.047
37,-1,5.048
9,0,5.049
-12,2,5.05
-15,5,5.051
-11,1,5.052
-4,0,5.053
12,-1,5.054
30,0,5.055
34,0,5.056
20,-3,5.057
6,-5,5.058
3,-2,5.059
11,0,5.06
13,3,5.061
4,6,5.062
-12,4,5.063
-25,3,5.064
-31,2,5.065
-28,1,5.066
-23,3,5.067
-19,4,5.068
-15,0,5.069
-10,-3,5.07
-1,-1,5.071
9,0,5.072
19,1,5.073
30,2,5.074
35,1,5.075
24,-3,5.076
3,-10,5.077
-17,-9,5.078
-25,-4,5.079
-29,0,5.08
-34,0,5.081
-38,2,5.082
-30,1,5.083
-10,-3,5.084
17,-7,5.085
44,-5,5.086
61,-2,5.087
57,-2,5.088
32,-1,5.089
3,1,5.09
-4,2,5.091
5,0,5.092
15,0,5.093
11,1,5.094
3,0,5.095
-1,-5,5.096
-1,-9,5.097
-2,-6,5.098
0,-2,5.099
4,0,5.1
5,1,5.101
2,4,5.102
7,3,5.103
18,0,5.104
24,-2,5.105
18,-1,5.106
8,1,5.107
4,-1,5.108
-2,-2,5.109
-16,1,5.11
-31,3,5.111
-36,3,5.112
-33,4,5.113
-33,3,5.114
-29,0,5.115
-16,-2,5.116
5,-5,5.117
21,-3,5.118
27,-3,5.119
26,-1,5.12
21,0,5.121
11,2,5.122
2,2,5.123
4,0,5.124
12,-1,5.125
14,0,5.126
5,0,5.127
-2,0,5.128
-2,0,5.129
5,1,5.13
15,2,5.131
16,2,5.132
5,3,5.133
-17,3,5.134
-27,2,5.135
-9,0,5.136
18,-3,5.137
18,-6,5.138
-7,-6,5.139
-18,-6,5.14
7,-3,5.141
39,-1,5.142
40,0,5.143
14,0,5.144
-3,-1,5.145
-1,-4,5.146
4,-3,5.147
-2,-2,5.148
-8,0,5.149
-2,1,5.15
3,1,5.151
-2,1,5.152
-6,3,5.153
1,4,5.154
30,-1,5.155
56,-6,5.156
61,-8,5.157
38,-5,5.158
3,0,5.159
-26,0,5.16
-51,0,5.161
-75,0,5.162
-95,-1,5.163
-102,-3,5.164
-92,-6,5.165
-76,-5,5.166
-60,0,5.167
-37,2,5.168
-3,4,5.169
38,4,5.17
90,2,5.171
146,-2,5.172
181,-3,5.173
163,-2,5.174
97,0,5.175
24,0,5.176
-13,-4,5.177
-14,-4,5.178
-8,-2,5.179
-12,-1,5.18
-21,-3,5.181
-26,-3,5.182
-25,-1,5.183
-19,-1,5.184
-14,-2,5.185
-12,-3,5.186
-10,-2,5.187
-7,0,5.188
-5,3,5.189
-4,5,5.19
-3,5,5.191
-1,3,5.192
-2,2,5.193
-8,0,5.194
-15,0,5.195
-18,-1,5.196
-16,-5,5.197
-9,-3,5.198
0,-2,5.199
8,-2,5.2
11,-1,5.201
5,1,5.202
0,2,5.203
1,0,5.204
5,-3,5.205
4,-3,5.206
3,0,5.207
4,3,5.208
7,4,5.209
7,4,5.21
11,4,5.211
21,2,5.212
35,2,5.213
40,3,5.214
29,1,5.215
9,0,5.216
-12,0,5.217
-27,-1,5.218
-38,-1,5.219
-46,-1,5.22
-47,0,5.221
-40,2,5.222
-30,0,5.223
-21,-2,5.224
-14,-2,5.225
-3,-1,5.226
16,-1,5.227
44,-2,5.228
77,-3,5.229
100,-4,5.23
95,-3,5.231
56,-1,5.232
13,0,5.233
-12,3,5.234
-15,1,5.235
-22,0,5.236
-39,0,5.237
-46,-1,5.238
-30,-1,5.239
-10,-1,5.24
-9,0,5.241
-17,2,5.242
-14,0,5.243
-3,-2,5.244
-4,-2,5.245
-14,-1,5.246
-17,-1,5.247
-6,-2,5.248
5,-3,5.249
6,-4,5.25
0,-3,5.251
0,-1,5.252
13,0,5.253
38,1,5.254
60,2,5.255
60,0,5.256
38,-6,5.257
13,-9,5.258
7,-6,5.259
12,-1,5.26
5,0,5.261
-9,2,5.262
-13,1,5.263
-1,1,5.264
10,0,5.265
7,0,5.266
-2,0,5.267
-5,-1,5.268
-5,-1,5.269
-4,0,5.27
-5,-2,5.271
-9,-5,5.272
-14,-4,5.273
-15,0,5.274
-11,0,5.275
-12,-3,5.276
-21,-9,5.277
-27,-9,5.278
-15,-6,5.279
5,-2,5.28
17,0,5.281
14,3,5.282
11,3,5.283
16,0,5.284
21,0,5.285
16,4,5.286
7,7,5.287
-3,2,5.288
-9,-3,5.289
-9,-1,5.29
-3,4,5.291
3,5,5.292
10,3,5.293
13,0,5.294
17,3,5.295
14,5,5.296
6,-2,5.297
-1,-6,5.298
5,-6,5.299
12,-1,5.3
2,4,5.301
-18,4,5.302
-30,0,5.303
-23,-3,5.304
-4,-3,5.305
13,0,5.306
18,0,5.307
5,-1,5.308
-18,-3,5.309
-40,-2,5.31
-47,-2,5.311
-29,-2,5.312
4,0,5.313
40,2,5.314
65,5,5.315
70,4,5.316
70,-2,5.317
70,-5,5.318
63,-6,5.319
38,-3,5.32
6,3,5.321
-13,5,5.322
-18,2,5.323
-19,-1,5.324
-22,0,5.325
-19,3,5.326
-10,3,5.327
-7,-3,5.328
-15,-6,5.329
-18,-4,5.33
-14,-2,5.331
-8,-2,5.332
-1,-1,5.333
15,-1,5.334
30,0,5.335
13,-1,5.336
-36,-6,5.337
-69,-8,5.338
-47,-8,5.339
3,-3,5.34
23,3,5.341
-2,6,5.342
-32,5,5.343
-34,0,5.344
-11,-2,5.345
13,-2,5.346
30,1,5.347
33,3,5.348
25,3,5.349
19,0,5.35
23,-2,5.351
26,-1,5.352
19,2,5.353
3,0,5.354
-5,-1,5.355
-9,-3,5.356
-16,-7,5.357
-20,-8,5.358
-10,-5,5.359
11,1,5.36
19,5,5.361
14,4,5.362
11,2,5.363
16,0,5.364
14,0,5.365
6,0,5.366
5,1,5.367
13,2,5.368
16,4,5.369
7,3,5.37
0,2,5.371
2,1,5.372
7,2,5.373
7,0,5.374
0,-1,5.375
-4,-2,5.376
-8,-6,5.377
-9,-7,5.378
-3,-4,5.379
6,-2,5.38
8,-1,5.381
3,0,5.382
0,0,5.383
4,0,5.384
2,-1,5.385
-6,0,5.386
-15,0,5.387
-17,0,5.388
-18,-2,5.389
-22,-2,5.39
-15,-3,5.391
10,-2,5.392
36,-1,5.393
36,0,5.394
17,3,5.395
0,1,5.396
2,-7,5.397
9,-9,5.398
5,-4,5.399
-3,0,5.4
-1,4,5.401
2,7,5.402
-2,7,5.403
-9,2,5.404
-5,-1,5.405
5,0,5.406
9,2,5.407
4,-1,5.408
0,-4,5.409
2,-3,5.41
4,-1,5.411
5,0,5.412
9,0,5.413
14,1,5.414
16,2,5.415
9,-2,5.416
0,-9,5.417
-2,-8,5.418
4,-2,5.419
5,0,5.42
-11,-3,5.421
-31,-4,5.422
-30,0,5.423
-2,0,5.424
13,-1,5.425
-14,-1,5.426
-49,0,5.427
-31,-1,5.428
43,-1,5.429
110,0,5.43
120,2,5.431
86,3,5.432
48,3,5.433
14,3,5.434
-13,4,5.435
-30,5,5.436
-37,0,5.437
-39,-5,5.438
-40,-4,5.439
-33,-2,5.44
-21,0,5.441
-16,1,5.442
-18,0,5.443
-19,-1,5.444
-9,2,5.445
-3,4,5.446
-2,2,5.447
-1,0,5.448
3,-1,5.449
6,-3,5.45
6,-2,5.451
7,-1,5.452
11,0,5.453
13,2,5.454
10,3,5.455
4,0,5.456
1,-5,5.457
0,-5,5.458
4,-3,5.459
10,-3,5.46
10,-1,5.461
5,2,5.462
-1,4,5.463
-2,0,5.464
0,-3,5.465
1,-4,5.466
1,-3,5.467
5,-5,5.468
14,-6,5.469
21,-4,5.47
23,0,5.471
18,0,5.472
12,-3,5.473
3,-5,5.474
-1,-6,5.475
-4,-5,5.476
-6,-6,5.477
-5,-6,5.478
1,-6,5.479
9,-4,5.48
8,-2,5.481
1,1,5.482
0,0,5.483
5,0,5.484
7,0,5.485
1,2,5.486
-6,1,5.487
-8,0,5.488
-4,1,5.489
5,3,5.49
20,3,5.491
32,0,5.492
26,1,5.493
-10,0,5.494
-57,-4,5.495
-79,-8,5.496
-57,-11,5.497
-21,-8,5.498
-6,-5,5.499
3,-2,5.5
41,2,5.501
99,4,5.502
114,0,5.503
56,-1,5.504
-18,1,5.505
-47,5,5.506
-35,1,5.507
-21,-4,5.508
-12,-4,5.509
4,3,5.51
22,7,5.511
22,4,5.512
11,3,5.513
4,3,5.514
1,2,5.515
-7,-1,5.516
-16,-6,5.517
-6,-4,5.518
13,0,5.519
19,1,5.52
8,4,5.521
-2,6,5.522
-2,6,5.523
-2,2,5.524
-8,-1,5.525
-11,0,5.526
-3,0,5.527
8,-4,5.528
7,-6,5.529
-6,-4,5.53
-18,1,5.531
-16,1,5.532
-6,0,5.533
4,-3,5.534
16,-4,5.535
23,-4,5.536
18,-6,5.537
-5,-3,5.538
-28,-1,5.539
-38,-1,5.54
-39,-1,5.541
-42,-2,5.542
-38,-6,5.543
-6,-9,5.544
42,-5,5.545
75,3,5.546
81,8,5.547
69,4,5.548
47,0,5.549
19,1,5.55
0,0,5.551
-2,-2,5.552
2,-3,5.553
-2,0,5.554
-9,1,5.555
-3,-1,5.556
11,-6,5.557
15,-7,5.558
2,-7,5.559
-11,-8,5.56
-16,-5,5.561
-17,0,5.562
-19,0,5.563
-10,-5,5.564
14,-8,5.565
41,-5,5.566
48,1,5.567
28,6,5.568
3,7,5.569
-8,8,5.57
-9,5,5.571
-13,1,5.572
-19,1,5.573
-19,0,5.574
-13,-3,5.575
-7,-6,5.576
-4,-6,5.577
-5,-2,5.578
-20,-4,5.579
-44,-7,5.58
-52,-4,5.581
-23,1,5.582
17,3,5.583
33,0,5.584
26,2,5.585
17,11,5.586
11,18,5.587
2,12,5.588
0,2,5.589
17,-5,5.59
37,-6,5.591
39,-4,5.592
36,0,5.593
40,5,5.594
43,7,5.595
16,7,5.596
-28,-2,5.597
-40,-11,5.598
-14,-10,5.599
11,-8,5.6
3,-5,5.601
-14,-2,5.602
-14,-2,5.603
-5,-3,5.604
-8,-1,5.605
-16,0,5.606
-11,-1,5.607
1,-3,5.608
7,-3,5.609
4,-2,5.61
6,-2,5.611
9,-1,5.612
8,0,5.613
2,3,5.614
-3,4,5.615
-9,1,5.616
-17,-6,5.617
-22,-7,5.618
-16,-4,5.619
0,4,5.62
17,6,5.621
29,4,5.622
42,1,5.623
53,1,5.624
52,1,5.625
32,1,5.626
5,1,5.627
-12,1,5.628
-19,0,5.629
-28,0,5.63
-44,0,5.631
-54,0,5.632
-48,3,5.633
-33,1,5.634
-15,0,5.635
4,-2,5.636
24,-6,5.637
38,-7,5.638
38,-6,5.639
36,-3,5.64
41,-2,5.641
43,0,5.642
27,3,5.643
0,4,5.644
-21,1,5.645
-26,-4,5.646
-24,-7,5.647
-21,-3,5.648
-16,3,5.649
-3,4,5.65
27,-3,5.651
62,-7,5.652
74,-3,5.653
42,0,5.654
-11,-1,5.655
-42,-3,5.656
-36,-5,5.657
-22,-7,5.658
-21,-7,5.659
-20,-5,5.66
-14,-1,5.661
-13,1,5.662
-25,-1,5.663
-33,-3,5.664
-21,0,5.665
-3,2,5.666
10,2,5.667
17,2,5.668
23,4,5.669
29,5,5.67
32,2,5.671
35,-1,5.672
32,-2,5.673
21,-2,5.674
9,-2,5.675
2,-5,5.676
-2,-9,5.677
-8,-4,5.678
-6,1,5.679
6,0,5.68
22,-2,5.681
27,-2,5.682
18,0,5.683
-8,0,5.684
-35,-2,5.685
-44,1,5.686
-24,6,5.687
-3,6,5.688
-3,1,5.689
-7,-1,5.69
13,1,5.691
44,1,5.692
50,1,5.693
33,-1,5.694
28,-1,5.695
33,0,5.696
14,-2,5.697
-34,-3,5.698
-66,-1,5.699
-48,1,5.7
-14,2,5.701
-3,4,5.702
-7,7,5.703
-1,9,5.704
19,7,5.705
36,5,5.706
43,5,5.707
51,4,5.708
58,1,5.709
55,-2,5.71
37,-4,5.711
11,-6,5.712
-3,-3,5.713
-6,-1,5.714
-12,-4,5.715
-36,-5,5.716
-57,-8,5.717
-43,-9,5.718
-8,-8,5.719
11,-4,5.72
-1,1,5.721
-12,1,5.722
-5,-5,5.723
-6,-8,5.724
-28,-3,5.725
-46,3,5.726
-37,3,5.727
-18,-1,5.728
-12,-1,5.729
-13,1,5.73
-3,2,5.731
9,1,5.732
4,4,5.733
-20,5,5.734
-30,2,5.735
-2,-2,5.736
49,-8,5.737
81,-7,5.738
71,-4,5.739
45,-1,5.74
40,0,5.741
54,-1,5.742
56,-2,5.743
30,-4,5.744
-4,-3,5.745
-30,0,5.746
-51,2,5.747
-61,1,5.748
-45,2,5.749
-10,2,5.75
17,1,5.751
21,-1,5.752
15,0,5.753
6,5,5.754
-3,10,5.755
-16,9,5.756
-20,2,5.757
-12,0,5.758
0,1,5.759
8,3,5.76
13,0,5.761
19,-3,5.762
25,-4,5.763
32,0,5.764
35,4,5.765
32,3,5.766
20,-3,5.767
9,-9,5.768
4,-10,5.769
0,-7,5.77
-15,-4,5.771
-30,-3,5.772
-24,-3,5.773
-1,-3,5.774
12,-2,5.775
-11,-3,5.776
-44,-7,5.777
-53,-7,5.778
-36,-5,5.779
-31,-4,5.78
-46,-2,5.781
-42,0,5.782
1,-1,5.783
53,-3,5.784
69,-3,5.785
58,0,5.786
53,0,5.787
63,-1,5.788
59,-2,5.789
36,0,5.79
21,0,5.791
26,0,5.792
32,1,5.793
14,1,5.794
-21,3,5.795
-49,0,5.796
-55,-7,5.797
-46,-10,5.798
-36,-10,5.799
-31,-5,5.8
-19,1,5.801
3,4,5.802
17,3,5.803
7,3,5.804
-12,5,5.805
-21,4,5.806
-23,2,5.807
-35,3,5.808
-56,9,5.809
-61,8,5.81
-40,-3,5.811
-11,-13,5.812
15,-6,5.813
6,22,5.814
52,22,5.815
82,15,5.816
67,-5,5.817
45,-17,5.818
-1,-12,5.819
-45,-5,5.82
-92,0,5.821
-115,5,5.822
-65,10,5.823
-19,15,5.824
8,0,5.825
30,-10,5.826
23,-17,5.827
9,-22,5.828
-20,-15,5.829
-41,-7,5.83
-28,-5,5.831
-17,0,5.832
-11,2,5.833
5,58,5.834
45,58,5.835
72,38,5.836
59,-12,5.837
39,-45,5.838
-1,-32,5.839
-41,-12,5.84
-82,0,5.841
-102,12,5.842
-58,25,5.843
-18,38,5.844
7,0,5.845
26,-25,5.846
20,-45,5.847
8,-58,5.848
-19,-38,5.849
-37,-19,5.85
-26,-12,5.851
-16,0,5.852
-11,6,5.853
-2,9,5.854
9,9,5.855
-8,6,5.856
-37,-2,5.857
-41,-7,5.858
-19,-5,5.859
-3,-2,5.86
9,0,5.861
38,2,5.862
75,4,5.863
90,6,5.864
78,0,5.865
66,-4,5.866
61,-7,5.867
44,-9,5.868
16,-6,5.869
1,-3,5.87
11,-2,5.871
22,0,5.872
23,1,5.873
21,2,5.874
25,-3,5.875
21,-4,5.876
0,-2,5.877
-21,4,5.878
-23,2,5.879
-14,-3,5.88
-14,-5,5.881
-24,-3,5.882
-33,-4,5.883
-36,-6,5.884
-28,-4,5.885
-8,2,5.886
16,4,5.887
14,2,5.888
-14,2,5.889
-30,5,5.89
-11,1,5.891
15,-4,5.892
8,-4,5.893
-34,0,5.894
-77,4,5.895
-98,1,5.896
-82,-4,5.897
-25,-5,5.898
53,-2,5.899
109,-1,5.9
113,0,5.901
83,2,5.902
45,1,5.903
5,-1,5.904
-30,-3,5.905
-37,2,5.906
-12,7,5.907
7,8,5.908
0,2,5.909
-9,-3,5.91
6,-3,5.911
22,-1,5.912
19,1,5.913
4,0,5.914
5,-1,5.915
15,3,5.916
9,3,5.917
-5,2,5.918
-2,-2,5.919
12,-6,5.92
10,-6,5.921
-12,-2,5.922
-37,3,5.923
-52,7,5.924
-51,13,5.925
-21,18,5.926
36,16,5.927
96,14,5.928
113,23,5.929
76,32,5.93
23,16,5.931
-5,-26,5.932
-8,-67,5.933
-18,-83,5.934
-41,-67,5.935
-58,-46,5.936
-52,-10,5.937
-41,17,5.938
-37,21,5.939
-30,23,5.94
-7,17,5.941
15,12,5.942
17,10,5.943
7,8,5.944
8,2,5.945
19,0,5.946
34,6,5.947
44,10,5.948
42,4,5.949
28,0,5.95
10,1,5.951
0,2,5.952
-2,0,5.953
-7,0,5.954
-16,0,5.955
-15,-5,5.956
-1,-10,5.957
13,-4,5.958
17,2,5.959
11,3,5.96
1,0,5.961
-11,0,5.962
-19,4,5.963
-16,4,5.964
-7,0,5.965
-2,1,5.966
2,2,5.967
12,3,5.968
21,1,5.969
25,0,5.97
22,-2,5.971
13,-3,5.972
2,-1,5.973
-8,0,5.974
-10,0,5.975
-1,-2,5.976
6,-4,5.977
3,-3,5.978
2,-2,5.979
11,-4,5.98
17,-2,5.981
11,0,5.982
0,-1,5.983
-5,-5,5.984
-7,-5,5.985
-10,0,5.986
-14,2,5.987
-9,-2,5.988
1,-4,5.989
11,5,5.99
16,18,5.991
18,21,5.992
18,15,5.993
12,13,5.994
2,23,5.995
-12,35,5.996
-24,24,5.997
-27,-13,5.998
-17,-58,5.999
-1,-89,6.0
6,-88,6.001
3,-60,6.002
0,-20,6.003
1,11,6.004
4,25,6.005
7,20,6.006
12,11,6.007
15,11,6.008
13,15,6.009
8,14,6.01
6,11,6.011
9,15,6.012
21,24,6.013
44,25,6.014
76,19,6.015
84,14,6.016
46,9,6.017
-27,3,6.018
-76,-2,6.019
-72,-5,6.02
-45,0,6.021
-45,4,6.022
-70,2,6.023
-80,0,6.024
-56,-2,6.025
-20,-5,6.026
3,-5,6.027
12,-4,6.028
13,-3,6.029
13,-2,6.03
15,-1,6.031
18,0,6.032
21,0,6.033
21,-1,6.034
25,-1,6.035
28,-3,6.036
31,-9,6.037
31,-11,6.038
21,-8,6.039
12,-5,6.04
10,-4,6.041
8,-6,6.042
4,-8,6.043
0,-7,6.044
1,-4,6.045
2,-1,6.046
4,-3,6.047
5,-5,6.048
2,-4,6.049
-1,-1,6.05
0,0,6.051
4,-2,6.052
12,0,6.053
18,2,6.054
19,3,6.055
16,2,6.056
10,-2,6.057
2,-1,6.058
1,0,6.059
13,1,6.06
18,3,6.061
6,5,6.062
-9,6,6.063
-6,2,6.064
2,-1,6.065
0,0,6.066
-13,1,6.067
-16,0,6.068
-11,-1,6.069
-10,1,6.07
-12,4,6.071
-5,0,6.072
6,-4,6.073
13,-6,6.074
11,-6,6.075
8,-11,6.076
5,-23,6.077
-4,-27,6.078
-13,-18,6.079
-15,-4,6.08
-15,4,6.081
-18,-2,6.082
-19,-16,6.083
-9,-28,6.084
9,-26,6.085
22,-4,6.086
26,21,6.087
25,30,6.088
18,20,6.089
13,5,6.09
14,10,6.091
35,32,6.092
65,57,6.093
75,81,6.094
34,104,6.095
-41,112,6.096
-84,69,6.097
-61,-31,6.098
-19,-143,6.099
-19,-179,6.1
-48,-88,6.101
-47,61,6.102
-16,142,6.103
1,93,6.104
-1,-24,6.105
10,-109,6.106
40,-126,6.107
49,-89,6.108
31,-19,6.109
18,54,6.11
19,78,6.111
3,27,6.112
-30,-37,6.113
-53,-51,6.114
-40,3,6.115
-20,62,6.116
-9,63,6.117
4,10,6.118
27,-54,6.119
40,-75,6.12
37,-33,6.121
32,30,6.122
33,45,6.123
29,2,6.124
17,-34,6.125
14,-2,6.126
20,69,6.127
22,99,6.128
14,51,6.129
2,-36,6.13
-4,-89,6.131
-12,-73,6.132
-15,-15,6.133
-11,25,6.134
-1,25,6.135
0,11,6.136
-4,19,6.137
-3,36,6.138
9,24,6.139
19,-19,6.14
14,-55,6.141
0,-66,6.142
-11,-60,6.143
-11,-37,6.144
-4,2,6.145
2,40,6.146
2,47,6.147
-1,27,6.148
-1,10,6.149
6,4,6.15
10,-4,6.151
1,-15,6.152
-9,-15,6.153
-14,-9,6.154
-12,-7,6.155
-14,-12,6.156
-17,-16,6.157
-12,-16,6.158
5,-16,6.159
25,-16,6.16
35,-9,6.161
32,6,6.162
17,13,6.163
3,12,6.164
10,10,6.165
40,12,6.166
71,14,6.167
76,13,6.168
48,14,6.169
-5,16,6.17
-64,14,6.171
-100,9,6.172
-97,5,6.173
-73,3,6.174
-63,2,6.175
-70,-2,6.176
-57,-8,6.177
-10,-9,6.178
30,-7,6.179
28,-5,6.18
7,-6,6.181
13,-7,6.182
48,-5,6.183
74,-2,6.184
75,1,6.185
64,1,6.186
59,0,6.187
53,-4,6.188
38,-7,6.189
26,-7,6.19
32,-6,6.191
40,-4,6.192
23,-1,6.193
-18,-1,6.194
-51,-1,6.195
-52,1,6.196
-43,0,6.197
-49,-3,6.198
-54,-6,6.199
-39,-2,6.2
-22,5,6.201
-25,7,6.202
-35,4,6.203
-20,1,6.204
8,1,6.205
19,0,6.206
18,-1,6.207
28,0,6.208
43,4,6.209
40,7,6.21
24,6,6.211
17,3,6.212
19,3,6.213
15,5,6.214
5,5,6.215
1,2,6.216
0,-3,6.217
-4,-5,6.218
-6,-6,6.219
-4,-3,6.22
-8,0,6.221
-16,2,6.222
-5,1,6.223
22,-2,6.224
34,-4,6.225
20,-4,6.226
5,-3,6.227
8,-2,6.228
6,0,6.229
-11,-1,6.23
-21,-2,6.231
-9,-3,6.232
5,-1,6.233
2,-1,6.234
0,-1,6.235
0,0,6.236
1,-1,6.237
3,-3,6.238
4,-4,6.239
5,-4,6.24
2,-2,6.241
0,-1,6.242
-1,-3,6.243
-3,-4,6.244
-3,-1,6.245
-4,2,6.246
-2,2,6.247
1,1,6.248
10,0,6.249
20,2,6.25
31,18,6.251
36,38,6.252
22,68,6.253
5,88,6.254
-20,31,6.255
-26,-72,6.256
-31,-143,6.257
-39,-124,6.258
-38,-52,6.259
-18,0,6.26
0,11,6.261
1,9,6.262
0,12,6.263
7,10,6.264
14,4,6.265
11,4,6.266
5,10,6.267
8,8,6.268
14,3,6.269
14,4,6.27
8,14,6.271
3,22,6.272
2,27,6.273
0,28,6.274
-1,23,6.275
-5,12,6.276
-6,-3,6.277
0,-6,6.278
15,-7,6.279
26,-10,6.28
21,-10,6.281
5,-6,6.282
-3,-3,6.283
-1,-4,6.284
-1,-4,6.285
-7,6,6.286
-4,29,6.287
6,71,6.288
13,107,6.289
10,78,6.29
6,-43,6.291
8,-178,6.292
10,-207,6.293
27,-115,6.294
24,-11,6.295
16,6,6.296
0,-35,6.297
-10,-40,6.298
3,16,6.299
12,90,6.3
9,135,6.301
5,124,6.302
3,63,6.303
1,-14,6.304
0,-54,6.305
-2,-46,6.306
0,-24,6.307
1,-12,6.308
1,0,6.309
1,20,6.31
-3,34,6.311
-6,41,6.312
-4,56,6.313
25,68,6.314
22,52,6.315
15,19,6.316
0,-61,6.317
-9,-126,6.318
3,-146,6.319
12,-138,6.32
9,-47,6.321
5,24,6.322
3,32,6.323
1,35,6.324
0,21,6.325
-2,16,6.326
0,37,6.327
1,64,6.328
1,108,6.329
1,112,6.33
-3,-4,6.331
-6,-95,6.332
-4,-113,6.333
-3,-108,6.334
-5,-46,6.335
-7,-20,6.336
-9,-10,6.337
-11,17,6.338
-7,45,6.339
1,59,6.34
1,80,6.341
-8,112,6.342
-11,122,6.343
-5,74,6.344
1,-24,6.345
0,-115,6.346
-3,-138,6.347
-2,-78,6.348
3,13,6.349
6,62,6.35
10,45,6.351
17,-3,6.352
24,-39,6.353
23,-63,6.354
17,-78,6.355
10,-71,6.356
2,-37,6.357
-7,12,6.358
-20,54,6.359
-23,84,6.36
-21,107,6.361
-20,109,6.362
-21,65,6.363
-16,-17,6.364
-10,-103,6.365
-6,-141,6.366
-2,-98,6.367
1,-3,6.368
8,69,6.369
6,67,6.37
4,6,6.371
8,-59,6.372
11,-102,6.373
7,-125,6.374
2,-107,6.375
3,-40,6.376
12,39,6.377
17,83,6.378
21,73,6.379
33,45,6.38
42,52,6.381
40,133,6.382
27,259,6.383
20,308,6.384
17,165,6.385
10,-124,6.386
0,-340,6.387
-4,-338,6.388
-3,-189,6.389
-6,-36,6.39
-13,88,6.391
-14,197,6.392
-4,232,6.393
14,124,6.394
33,-42,6.395
42,-132,6.396
41,-136,6.397
36,-130,6.398
27,-117,6.399
6,-52,6.4
-34,15,6.401
-72,-10,6.402
-80,-108,6.403
-56,-161,6.404
-36,-120,6.405
-47,-38,6.406
-69,36,6.407
-63,86,6.408
-20,93,6.409
27,63,6.41
49,53,6.411
51,108,6.412
53,202,6.413
54,266,6.414
41,221,6.415
15,44,6.416
2,-178,6.417
13,-272,6.418
28,-170,6.419
33,-3,6.42
29,60,6.421
23,26,6.422
9,30,6.423
-18,127,6.424
-51,221,6.425
-71,192,6.426
-62,54,6.427
-27,-65,6.428
2,-58,6.429
0,42,6.43
-16,97,6.431
-4,56,6.432
46,26,6.433
110,92,6.434
160,174,6.435
167,137,6.436
109,36,6.437
8,87,6.438
-62,295,6.439
-65,347,6.44
-55,-13,6.441
-92,-578,6.442
-129,-826,6.443
-93,-552,6.444
-21,-129,6.445
0,-62,6.446
-22,-391,6.447
-16,-708,6.448
22,-675,6.449
27,-324,6.45
0,89,6.451
-7,311,6.452
8,252,6.453
4,-2,6.454
-16,-174,6.455
-13,-72,6.456
16,190,6.457
28,387,6.458
20,463,6.459
20,519,6.46
29,563,6.461
26,479,6.462
14,240,6.463
19,-15,6.464
31,-122,6.465
29,-28,6.466
19,187,6.467
15,361,6.468
13,344,6.469
0,126,6.47
-10,-128,6.471
-11,-231,6.472
-12,-160,6.473
-20,-32,6.474
-26,5,6.475
-19,-116,6.476
-11,-376,6.477
-15,-685,6.478
-19,-907,6.479
-12,-906,6.48
-2,-662,6.481
-1,-298,6.482
-2,29,6.483
6,262,6.484
15,433,6.485
18,582,6.486
22,704,6.487
30,742,6.488
32,637,6.489
24,419,6.49
17,219,6.491
22,139,6.492
33,130,6.493
34,43,6.494
27,-164,6.495
20,-373,6.496
19,-449,6.497
13,-398,6.498
2,-338,6.499
-4,-324,6.5
-7,-304,6.501
-9,-201,6.502
-12,-32,6.503
-11,112,6.504
-4,176,6.505
4,177,6.506
5,166,6.507
6,166,6.508
9,164,6.509
11,146,6.51
4,113,6.511
-7,77,6.512
-15,53,6.513
-15,37,6.514
-11,32,6.515
-13,28,6.516
-20,15,6.517
-24,0,6.518
-20,-12,6.519
-6,-17,6.52
5,-16,6.521
2,-19,6.522
-7,-30,6.523
-10,-44,6.524
-6,-51,6.525
-4,-48,6.526
-8,-43,6.527
-6,-43,6.528
1,-44,6.529
6,-37,6.53
2,-23,6.531
0,-12,6.532
5,-9,6.533
13,-9,6.534
15,-9,6.535
10,-8,6.536
6,-7,6.537
11,-2,6.538
25,0,6.539
36,0,6.54
34,-1,6.541
19,1,6.542
6,3,6.543
3,0,6.544
0,-1,6.545
-6,-1,6.546
-15,0,6.547
-19,-1,6.548
-19,-2,6.549
-17,0,6.55
-12,0,6.551
-5,1,6.552
4,1,6.553
7,2,6.554
6,2,6.555
5,2,6.556
3,-2,6.557
3,-3,6.558
9,-2,6.559
14,-1,6.56
12,0,6.561
8,1,6.562
-1,1,6.563
-11,1,6.564
-15,4,6.565
-18,8,6.566
-16,12,6.567
-14,13,6.568
-10,13,6.569
-4,12,6.57
4,9,6.571
12,8,6.572
16,9,6.573
19,4,6.574
12,-2,6.575
-9,-12,6.576
-37,-26,6.577
-54,-36,6.578
-46,-39,6.579
-18,-33,6.58
5,-23,6.581
14,-15,6.582
18,-8,6.583
26,1,6.584
37,12,6.585
47,18,6.586
56,15,6.587
59,6,6.588
55,0,6.589
51,3,6.59
52,17,6.591
52,34,6.592
39,46,6.593
16,43,6.594
0,29,6.595
-9,19,6.596
-20,20,6.597
-29,27,6.598
-27,16,6.599
-13,-2,6.6
-6,-3,6.601
-8,16,6.602
-11,13,6.603
-17,-39,6.604
-34,-98,6.605
-47,-89,6.606
-28,-11,6.607
17,44,6.608
52,0,6.609
62,-83,6.61
64,-72,6.611
61,59,6.612
34,163,6.613
-30,109,6.614
-92,-78,6.615
-113,-236,6.616
-97,-230,6.617
-73,-39,6.618
-51,237,6.619
-26,406,6.62
-1,285,6.621
10,-58,6.622
14,-303,6.623
22,-244,6.624
30,-64,6.625
27,-49,6.626
19,-183,6.627
16,-240,6.628
14,-153,6.629
5,-43,6.63
-2,37,6.631
1,129,6.632
12,194,6.633
19,162,6.634
22,89,6.635
22,88,6.636
20,134,6.637
15,115,6.638
13,39,6.639
14,2,6.64
12,7,6.641
6,-21,6.642
0,-71,6.643
0,-61,6.644
7,23,6.645
11,118,6.646
9,165,6.647
8,121,6.648
10,-23,6.649
12,-181,6.65
9,-201,6.651
6,-67,6.652
10,67,6.653
12,100,6.654
6,79,6.655
-4,61,6.656
-12,3,6.657
-10,-89,6.658
-1,-109,6.659
4,-12,6.66
4,102,6.661
0,170,6.662
-2,253,6.663
-4,335,6.664
-9,261,6.665
-12,-7,6.666
-12,-258,6.667
-7,-325,6.668
-4,-305,6.669
-2,-362,6.67
4,-467,6.671
13,-488,6.672
18,-384,6.673
18,-174,6.674
15,86,6.675
10,283,6.676
5,318,6.677
2,244,6.678
6,182,6.679
14,150,6.68
17,87,6.681
13,39,6.682
3,90,6.683
-11,168,6.684
-29,109,6.685
-38,-66,6.686
-23,-162,6.687
7,-102,6.688
27,-8,6.689
28,18,6.69
29,19,6.691
43,54,6.692
53,93,6.693
38,82,6.694
8,23,6.695
-19,-44,6.696
-36,-81,6.697
-47,-57,6.698
-45,0,6.699
-32,25,6.7
-24,-7,6.701
-21,-47,6.702
2,-42,6.703
40,-2,6.704
54,43,6.705
17,87,6.706
-28,114,6.707
-34,85,6.708
-6,24,6.709
14,5,6.71
7,40,6.711
1,43,6.712
12,-30,6.713
25,-135,6.714
25,-165,6.715
8,-83,6.716
-7,55,6.717
-10,164,6.718
-3,183,6.719
0,132,6.72
-3,75,6.721
-10,8,6.722
-7,-132,6.723
2,-299,6.724
8,-331,6.725
2,-197,6.726
-5,-73,6.727
-9,-63,6.728
-2,-35,6.729
15,95,6.73
32,132,6.731
35,-79,6.732
14,-318,6.733
-28,-298,6.734
-62,-32,6.735
-70,209,6.736
-59,305,6.737
-44,346,6.738
-27,341,6.739
3,208,6.74
42,-2,6.741
77,-120,6.742
99,-88,6.743
112,12,6.744
117,104,6.745
109,147,6.746
86,102,6.747
52,-6,6.748
19,-86,6.749
-6,-106,6.75
-18,-131,6.751
-21,-173,6.752
-22,-149,6.753
-31,-27,6.754
-38,82,6.755
-42,84,6.756
-44,28,6.757
-45,10,6.758
-38,26,6.759
-28,1,6.76
-23,-77,6.761
-26,-168,6.762
-27,-208,6.763
-21,-163,6.764
-13,-42,6.765
-12,84,6.766
-12,143,6.767
-5,134,6.768
5,108,6.769
13,100,6.77
18,98,6.771
22,93,6.772
24,87,6.773
19,80,6.774
17,76,6.775
19,73,6.776
18,57,6.777
7,13,6.778
-2,-48,6.779
1,-89,6.78
9,-89,6.781
5,-76,6.782
-3,-95,6.783
1,-190,6.784
16,-353,6.785
22,-466,6.786
19,-351,6.787
16,2,6.788
15,332,6.789
9,373,6.79
-3,183,6.791
-13,43,6.792
-19,63,6.793
-29,107,6.794
-41,64,6.795
-53,0,6.796
-63,-11,6.797
-57,-25,6.798
-22,-86,6.799
32,-112,6.8
64,-46,6.801
62,7,6.802
52,-69,6.803
50,-215,6.804
41,-282,6.805
15,-227,6.806
-7,-123,6.807
1,-17,6.808
29,98,6.809
48,212,6.81
30,301,6.811
-36,378,6.812
-110,432,6.813
-135,383,6.814
-74,227,6.815
20,99,6.816
74,67,6.817
85,-12,6.818
94,-233,6.819
96,-350,6.82
49,-99,6.821
-15,321,6.822
-35,448,6.823
-6,205,6.824
14,-54,6.825
3,-114,6.826
-5,-122,6.827
4,-200,6.828
12,-225,6.829
5,-109,6.83
0,16,6.831
2,26,6.832
3,-21,6.833
-2,-43,6.834
-4,-52,6.835
-1,-91,6.836
8,-160,6.837
19,-245,6.838
9,-329,6.839
-37,-358,6.84
-84,-314,6.841
-69,-262,6.842
6,-177,6.843
71,79,6.844
85,436,6.845
73,520,6.846
47,162,6.847
-10,-225,6.848
-85,-167,6.849
-115,195,6.85
-73,361,6.851
-20,225,6.852
-8,100,6.853
-20,116,6.854
-15,114,6.855
5,12,6.856
8,-53,6.857
-4,-26,6.858
-8,-24,6.859
0,-83,6.86
11,-134,6.861
24,-213,6.862
36,-375,6.863
35,-443,6.864
16,-196,6.865
-4,212,6.866
-4,363,6.867
5,129,6.868
3,-165,6.869
-5,-162,6.87
-7,135,6.871
-6,452,6.872
-15,557,6.873
-29,439,6.874
-27,258,6.875
0,161,6.876
38,118,6.877
68,38,6.878
85,-63,6.879
87,-98,6.88
73,-81,6.881
58,-108,6.882
56,-187,6.883
60,-242,6.884
48,-253,6.885
4,-277,6.886
-42,-306,6.887
-64,-270,6.888
-66,-149,6.889
-68,-20,6.89
-73,42,6.891
-66,26,6.892
-47,-35,6.893
-27,-135,6.894
-1,-256,6.895
33,-360,6.896
73,-349,6.897
95,-115,6.898
76,260,6.899
14,449,6.9
-60,194,6.901
-99,-316,6.902
-78,-573,6.903
-28,-281,6.904
3,363,6.905
11,942,6.906
10,1204,6.907
-1,1114,6.908
-29,714,6.909
-50,109,6.91
-34,-444,6.911
5,-628,6.912
28,-377,6.913
26,84,6.914
25,364,6.915
27,331,6.916
21,186,6.917
13,121,6.918
22,83,6.919
41,-18,6.92
47,-122,6.921
39,-143,6.922
36,-158,6.923
53,-257,6.924
83,-371,6.925
108,-405,6.926
107,-405,6.927
76,-433,6.928
32,-385,6.929
-7,-171,6.93
-55,66,6.931
-124,111,6.932
-180,-18,6.933
-182,-186,6.934
-126,-294,6.935
-64,-302,6.936
-35,-115,6.937
-17,282,6.938
16,644,6.939
42,690,6.94
25,454,6.941
-16,166,6.942
-32,-84,6.943
-9,-346,6.944
19,-542,6.945
27,-506,6.946
28,-256,6.947
40,15,6.948
57,202,6.949
58,321,6.95
43,287,6.951
21,-49,6.952
7,-524,6.953
-4,-736,6.954
-13,-344,6.955
-17,407,6.956
-4,934,6.957
32,996,6.958
61,794,6.959
46,510,6.96
-10,105,6.961
-45,-370,6.962
-20,-635,6.963
31,-540,6.964
59,-264,6.965
52,-29,6.966
32,147,6.967
4,267,6.968
-27,237,6.969
-39,77,6.97
-28,-17,6.971
-24,49,6.972
-40,129,6.973
-54,99,6.974
-41,16,6.975
-36,-37,6.976
-54,-89,6.977
-55,-148,6.978
-4,-152,6.979
58,-111,6.98
62,-112,6.981
16,-145,6.982
-7,-110,6.983
16,-15,6.984
43,5,6.985
35,-93,6.986
6,-231,6.987
-10,-351,6.988
-3,-410,6.989
1,-300,6.99
-21,23,6.991
-54,385,6.992
-51,549,6.993
13,475,6.994
93,269,6.995
118,-6,6.996
78,-306,6.997
34,-464,6.998
29,-342,6.999
38,-55,7.0
19,140,7.001
-16,152,7.002
-25,87,7.003
-2,42,7.004
16,58,7.005
7,167,7.006
-5,330,7.007
-3,375,7.008
2,191,7.009
-14,-105,7.01
-46,-331,7.011
-70,-455,7.012
-75,-551,7.013
-74,-661,7.014
-68,-783,7.015
-55,-927,7.016
-32,-969,7.017
-2,-626,7.018
25,173,7.019
45,1066,7.02
58,1587,7.021
61,1619,7.022
48,1324,7.023
22,844,7.024
7,319,7.025
18,10,7.026
35,54,7.027
24,227,7.028
-5,228,7.029
-13,82,7.03
7,-20,7.031
27,-59,7.032
30,-121,7.033
25,-177,7.034
21,-145,7.035
6,-104,7.036
-19,-173,7.037
-31,-284,7.038
-24,-314,7.039
-19,-310,7.04
-19,-377,7.041
-8,-463,7.042
16,-444,7.043
31,-343,7.044
19,-266,7.045
-4,-224,7.046
-13,-161,7.047
-6,-85,7.048
2,-32,7.049
2,27,7.05
2,114,7.051
10,162,7.052
20,132,7.053
23,94,7.054
20,137,7.055
15,201,7.056
12,161,7.057
7,36,7.058
-1,-61,7.059
-5,-90,7.06
-7,-122,7.061
-11,-200,7.062
-18,-286,7.063
-24,-355,7.064
-24,-431,7.065
-21,-482,7.066
-19,-406,7.067
-14,-152,7.068
-6,193,7.069
5,485,7.07
16,632,7.071
26,609,7.072
32,448,7.073
28,191,7.074
20,3,7.075
11,38,7.076
4,289,7.077
1,561,7.078
3,621,7.079
2,420,7.08
-6,123,7.081
-22,-80,7.082
-34,-161,7.083
-34,-207,7.084
-25,-262,7.085
-14,-295,7.086
1,-294,7.087
17,-317,7.088
20,-409,7.089
-7,-498,7.09
-47,-424,7.091
-47,-98,7.092
11,320,7.093
91,599,7.094
111,549,7.095
54,243,7.096
1,-85,7.097
8,-270,7.098
48,-279,7.099
63,-141,7.1
54,59,7.101
48,196,7.102
21,205,7.103
-57,147,7.104
-126,98,7.105
-86,48,7.106
45,-35,7.107
127,-103,7.108
84,-98,7.109
-1,-41,7.11
-19,17,7.111
7,56,7.112
-13,70,7.113
-102,26,7.114
-160,-55,7.115
-107,-114,7.116
0,-100,7.117
43,-97,7.118
-4,-126,7.119
-59,-149,7.12
-34,-153,7.121
57,-160,7.122
141,-179,7.123
153,-174,7.124
85,-94,7.125
-7,-6,7.126
-50,103,7.127
-25,177,7.128
4,142,7.129
-10,106,7.13
-32,64,7.131
0,60,7.132
57,171,7.133
60,255,7.134
-18,174,7.135
-142,18,7.136
-238,-97,7.137
-230,-162,7.138
-76,-217,7.139
155,-238,7.14
307,-173,7.141
306,-32,7.142
244,132,7.143
201,276,7.144
120,338,7.145
-47,269,7.146
-202,114,7.147
-225,1,7.148
-154,-11,7.149
-96,22,7.15
-68,33,7.151
-31,24,7.152
-8,11,7.153
-45,-27,7.154
-102,-78,7.155
-108,-96,7.156
-50,-73,7.157
19,-52,7.158
51,-62,7.159
11,-74,7.16
-95,-70,7.161
-207,-71,7.162
-252,-83,7.163
-216,-73,7.164
-90,-30,7.165
159,8,7.166
487,14,7.167
688,0,7.168
586,-8,7.169
272,-12,7.17
0,-22,7.171
-104,-29,7.172
-120,-21,7.173
-128,9,7.174
-97,49,7.175
1,65,7.176
88,35,7.177
74,-14,7.178
-12,-43,7.179
-77,-46,7.18
-96,-42,7.181
-111,-31,7.182
-129,15,7.183
-115,76,7.184
-70,93,7.185
-43,38,7.186
-59,-67,7.187
-96,-240,7.188
-122,-543,7.189
-121,-986,7.19
-72,-1426,7.191
19,-1571,7.192
105,-1201,7.193
123,-209,7.194
81,1026,7.195
35,2011,7.196
-21,2244,7.197
-49,2240,7.198
12,1520,7.199
71,846,7.2
126,312,7.201
158,-91,7.202
118,-104,7.203
83,-149,7.204
65,-288,7.205
41,-386,7.206
-2,-357,7.207
-28,-341,7.208
-2,-367,7.209
13,-377,7.21
-8,-333,7.211
-30,-310,7.212
-54,-351,7.213
-69,-381,7.214
-55,-352,7.215
-48,-335,7.216
-61,-342,7.217
-79,-253,7.218
-79,-44,7.219
-70,128,7.22
-69,141,7.221
-57,64,7.222
-9,11,7.223
55,-12,7.224
95,-25,7.225
102,5,7.226
85,75,7.227
41,94,7.228
-23,23,7.229
-65,-47,7.23
-55,-29,7.231
-18,32,7.232
14,41,7.233
39,-9,7.234
76,-45,7.235
118,-33,7.236
137,-13,7.237
108,-12,7.238
28,-21,7.239
-81,-16,7.24
-156,-5,7.241
-153,0,7.242
-91,2,7.243
-31,13,7.244
4,33,7.245
26,46,7.246
37,41,7.247
25,21,7.248
-7,8,7.249
-34,11,7.25
-41,19,7.251
-26,15,7.252
3,6,7.253
32,1,7.254
42,1,7.255
26,-5,7.256
-8,-13,7.257
-46,-8,7.258
-71,7,7.259
-60,17,7.26
-10,20,7.261
42,27,7.262
68,37,7.263
88,39,7.264
118,36,7.265
123,37,7.266
61,36,7.267
-19,20,7.268
-30,0,7.269
34,-5,7.27
85,4,7.271
60,7,7.272
6,3,7.273
-23,0,7.274
-22,0,7.275
-25,-4,7.276
-36,-12,7.277
-36,-10,7.278
-24,-4,7.279
-15,-3,7.28
-17,-8,7.281
-21,-8,7.282
-26,-5,7.283
-24,-6,7.284
-15,-6,7.285
-9,-3,7.286
-11,0,7.287
-12,2,7.288
-3,3,7.289
8,4,7.29
12,1,7.291
10,-6,7.292
7,-10,7.293
-9,-12,7.294
-39,-12,7.295
-50,-15,7.296
-9,-17,7.297
60,-21,7.298
104,-51,7.299
105,-129,7.3
83,-242,7.301
47,-335,7.302
-15,-346,7.303
-87,-260,7.304
-122,-120,7.305
-99,17,7.306
-52,128,7.307
-21,232,7.308
1,351,7.309
45,486,7.31
102,600,7.311
123,612,7.312
85,480,7.313
20,233,7.314
-16,28,7.315
-43,-29,7.316
-42,-5,7.317
-39,-21,7.318
-31,-88,7.319
-21,-130,7.32
-11,-125,7.321
-4,-126,7.322
-4,-158,7.323
-4,-204,7.324
0,-295,7.325
3,-494,7.326
2,-747,7.327
3,-841,7.328
11,-579,7.329
15,-11,7.33
5,571,7.331
-1,859,7.332
3,800,7.333
5,533,7.334
-3,294,7.335
3,200,7.336
22,196,7.337
34,165,7.338
33,47,7.339
30,-89,7.34
24,-144,7.341
15,-115,7.342
5,-93,7.343
3,-131,7.344
3,-189,7.345
0,-224,7.346
-5,-255,7.347
-2,-291,7.348
3,-280,7.349
6,-171,7.35
6,-4,7.351
6,148,7.352
5,242,7.353
1,269,7.354
0,221,7.355
0,111,7.356
-2,-2,7.357
-3,-55,7.358
1,-55,7.359
6,-40,7.36
2,-31,7.361
-10,-29,7.362
-18,-35,7.363
-15,-44,7.364
-12,-44,7.365
-15,-32,7.366
-14,-22,7.367
-8,-20,7.368
-3,-17,7.369
-1,-11,7.37
1,-9,7.371
8,-12,7.372
13,-14,7.373
11,-11,7.374
8,-9,7.375
3,-7,7.376
-2,-3,7.377
-4,2,7.378
-1,6,7.379
4,10,7.38
2,11,7.381
-4,12,7.382
-5,11,7.383
-3,10,7.384
-1,11,7.385
0,11,7.386
4,9,7.387
9,8,7.388
12,9,7.389
15,10,7.39
23,10,7.391
29,9,7.392
23,10,7.393
7,11,7.394
-2,6,7.395
-3,3,7.396
-9,0,7.397
-19,-2,7.398
-16,-10,7.399
-1,-16,7.4
12,-10,7.401
15,6,7.402
18,18,7.403
25,22,7.404
28,25,7.405
18,31,7.406
4,30,7.407
2,21,7.408
7,10,7.409
10,6,7.41
9,10,7.411
8,12,7.412
9,10,7.413
5,2,7.414
3,-5,7.415
0,-8,7.416
-2,-10,7.417
-4,-24,7.418
-1,-74,7.419
1,-166,7.42
1,-253,7.421
1,-251,7.422
0,-121,7.423
-2,66,7.424
0,192,7.425
0,199,7.426
-7,118,7.427
-13,-15,7.428
-13,-198,7.429
-12,-393,7.43
-6,-510,7.431
-1,-460,7.432
3,-250,7.433
7,90,7.434
5,447,7.435
2,660,7.436
-4,617,7.437
-12,389,7.438
-18,169,7.439
-13,109,7.44
1,196,7.441
16,312,7.442
25,368,7.443
33,345,7.444
40,266,7.445
38,159,7.446
26,47,7.447
7,-43,7.448
-8,-100,7.449
-14,-137,7.45
-13,-163,7.451
-8,-176,7.452
-4,-170,7.453
-3,-167,7.454
-6,-179,7.455
-14,-186,7.456
-21,-179,7.457
-21,-170,7.458
-15,-160,7.459
-10,-150,7.46
-9,-138,7.461
-6,-125,7.462
0,-112,7.463
7,-98,7.464
12,-82,7.465
14,-66,7.466
14,-50,7.467
13,-34,7.468
7,-23,7.469
1,-12,7.47
0,-6,7.471
0,0,7.472
4,1,7.473
1,4,7.474
-9,8,7.475
-22,11,7.476
-28,12,7.477
-24,16,7.478
-26,18,7.479
-40,20,7.48
-44,30,7.481
-13,47,7.482
19,58,7.483
2,49,7.484
-44,21,7.485
-42,-10,7.486
39,-27,7.487
131,-25,7.488
170,-17,7.489
180,-9,7.49
199,2,7.491
191,15,7.492
117,26,7.493
-5,28,7.494
-89,25,7.495
-104,22,7.496
-94,21,7.497
-92,18,7.498
-84,11,7.499
-64,5,7.5
-41,5,7.501
-20,4,7.502
-10,4,7.503
-25,5,7.504
-66,15,7.505
-86,8,7.506
-50,-49,7.507
10,-114,7.508
49,-201,7.509
52,-226,7.51
40,-62,7.511
14,85,7.512
-17,178,7.513
-29,226,7.514
-5,125,7.515
32,84,7.516
47,113,7.517
47,126,7.518
48,86,7.519
49,47,7.52
31,41,7.521
8,30,7.522
5,-11,7.523
14,-45,7.524
12,-51,7.525
-7,-73,7.526
-22,-138,7.527
-20,-192,7.528
-7,-145,7.529
5,16,7.53
9,176,7.531
2,200,7.532
-6,97,7.533
-14,-11,7.534
-17,-15,7.535
-23,24,7.536
-27,-3,7.537
-23,-73,7.538
-12,-83,7.539
-2,-22,7.54
2,32,7.541
3,44,7.542
3,41,7.543
7,16,7.544
10,-59,7.545
11,-157,7.546
13,-202,7.547
13,-169,7.548
12,-92,7.549
11,-12,7.55
7,50,7.551
4,83,7.552
1,90,7.553
-5,72,7.554
-19,23,7.555
-37,-25,7.556
-49,-69,7.557
-46,-77,7.558
-19,27,7.559
30,102,7.56
80,88,7.561
92,78,7.562
53,81,7.563
7,81,7.564
6,68,7.565
44,55,7.566
59,43,7.567
21,23,7.568
-41,-20,7.569
-82,-46,7.57
-99,-18,7.571
-96,6,7.572
-67,22,7.573
-11,23,7.574
38,-8,7.575
44,-11,7.576
18,-8,7.577
1,-20,7.578
5,-34,7.579
8,-27,7.58
0,-15,7.581
-4,-15,7.582
6,-15,7.583
18,4,7.584
17,30,7.585
10,29,7.586
9,-11,7.587
17,-70,7.588
19,-116,7.589
12,-122,7.59
3,-86,7.591
-3,-28,7.592
-7,17,7.593
-12,32,7.594
-17,16,7.595
-36,4,7.596
-79,4,7.597
-124,11,7.598
-119,9,7.599
-50,5,7.6
42,10,7.601
112,18,7.602
160,15,7.603
201,12,7.604
204,22,7.605
128,33,7.606
10,27,7.607
-54,2,7.608
-34,-10,7.609
0,-4,7.61
-12,6,7.611
-43,2,7.612
-44,-8,7.613
-21,-16,7.614
-12,-18,7.615
-26,-16,7.616
-46,-13,7.617
-65,-9,7.618
-75,-7,7.619
-58,-7,7.62
-14,-6,7.621
24,1,7.622
34,6,7.623
41,6,7.624
59,3,7.625
60,3,7.626
27,9,7.627
-9,12,7.628
-9,14,7.629
10,14,7.63
12,13,7.631
1,11,7.632
0,10,7.633
9,9,7.634
14,8,7.635
8,2,7.636
6,-6,7.637
4,-7,7.638
0,0,7.639
-3,7,7.64
0,9,7.641
4,7,7.642
2,1,7.643
1,-5,7.644
1,-10,7.645
-3,-12,7.646
-7,-9,7.647
-5,-7,7.648
0,-8,7.649
-1,-8,7.65
-2,-6,7.651
10,-7,7.652
28,-10,7.653
28,-14,7.654
17,-16,7.655
7,-13,7.656
6,-11,7.657
6,-9,7.658
5,-10,7.659
10,-12,7.66
15,-9,7.661
8,-2,7.662
-2,3,7.663
-2,3,7.664
4,1,7.665
3,3,7.666
-3,9,7.667
-8,13,7.668
-10,17,7.669
-14,22,7.67
-17,22,7.671
-13,16,7.672
-5,12,7.673
-4,10,7.674
-6,9,7.675
-10,7,7.676
-11,-4,7.677
-10,-16,7.678
-5,-23,7.679
1,-19,7.68
5,-13,7.681
4,-12,7.682
8,-13,7.683
22,2,7.684
39,42,7.685
51,75,7.686
48,52,7.687
30,-37,7.688
12,-134,7.689
6,-150,7.69
7,-52,7.691
1,78,7.692
-12,129,7.693
-23,72,7.694
-22,0,7.695
-21,-12,7.696
-34,6,7.697
-58,1,7.698
-76,-30,7.699
-76,-54,7.7
-68,-69,7.701
-53,-88,7.702
-29,-84,7.703
0,-32,7.704
24,49,7.705
38,117,7.706
47,153,7.707
47,153,7.708
36,114,7.709
19,58,7.71
17,19,7.711
34,0,7.712
51,-23,7.713
45,-52,7.714
13,-59,7.715
-23,-54,7.716
-32,-78,7.717
-12,-122,7.718
14,-134,7.719
26,-100,7.72
25,-62,7.721
27,-43,7.722
38,-22,7.723
48,15,7.724
48,54,7.725
46,77,7.726
49,72,7.727
39,36,7.728
-4,-6,7.729
-65,-15,7.73
-99,17,7.731
-87,57,7.732
-52,76,7.733
-17,82,7.734
14,91,7.735
38,133,7.736
44,235,7.737
29,338,7.738
7,248,7.739
-13,-116,7.74
-41,-528,7.741
-67,-646,7.742
-71,-429,7.743
-44,-158,7.744
-9,-37,7.745
14,-21,7.746
29,-22,7.747
42,-56,7.748
47,-95,7.749
34,-38,7.75
16,120,7.751
5,244,7.752
6,290,7.753
10,387,7.754
13,593,7.755
13,696,7.756
9,421,7.757
3,-144,7.758
2,-576,7.759
4,-577,7.76
4,-300,7.761
-3,-108,7.762
-11,-126,7.763
-14,-189,7.764
-12,-159,7.765
-14,-70,7.766
-15,9,7.767
-11,70,7.768
-5,110,7.769
-3,114,7.77
-3,114,7.771
0,152,7.772
11,171,7.773
15,86,7.774
9,-51,7.775
0,-98,7.776
-2,-36,7.777
2,14,7.778
11,-22,7.779
20,-77,7.78
23,-90,7.781
17,-83,7.782
8,-63,7.783
7,7,7.784
9,97,7.785
7,114,7.786
0,56,7.787
0,49,7.788
4,163,7.789
1,299,7.79
-9,316,7.791
-18,170,7.792
-17,-78,7.793
-12,-378,7.794
-7,-583,7.795
-8,-541,7.796
-11,-257,7.797
-14,106,7.798
-10,418,7.799
5,668,7.8
20,792,7.801
24,667,7.802
14,397,7.803
2,299,7.804
-1,373,7.805
1,132,7.806
5,-648,7.807
7,-1362,7.808
3,-1301,7.809
-3,-666,7.81
-7,-267,7.811
-7,-368,7.812
-3,-521,7.813
1,-412,7.814
11,-161,7.815
21,71,7.816
26,290,7.817
24,396,7.818
25,237,7.819
28,0,7.82
29,34,7.821
22,302,7.822
13,442,7.823
2,365,7.824
-5,314,7.825
-7,361,7.826
-2,334,7.827
3,186,7.828
0,52,7.829
-4,-24,7.83
0,-96,7.831
8,-115,7.832
6,-43,7.833
-15,11,7.834
-38,-53,7.835
-42,-125,7.836
-12,-66,7.837
33,20,7.838
61,-27,7.839
56,-120,7.84
39,-83,7.841
33,58,7.842
29,174,7.843
8,265,7.844
-24,343,7.845
-42,272,7.846
-47,-44,7.847
-52,-457,7.848
-54,-728,7.849
-41,-739,7.85
-21,-424,7.851
-9,176,7.852
-3,680,7.853
8,645,7.854
23,68,7.855
32,-426,7.856
39,-381,7.857
54,-80,7.858
68,75,7.859
56,288,7.86
22,868,7.861
-7,1395,7.862
-10,1106,7.863
-2,7,7.864
-3,-1069,7.865
-12,-1495,7.866
-11,-1368,7.867
3,-1011,7.868
12,-534,7.869
7,-27,7.87
-1,282,7.871
2,253,7.872
20,20,7.873
30,-239,7.874
25,-333,7.875
3,-165,7.876
-16,183,7.877
-22,547,7.878
-24,903,7.879
-39,1247,7.88
-62,1236,7.881
-68,490,7.882
-48,-579,7.883
-18,-926,7.884
-1,-233,7.885
7,578,7.886
16,609,7.887
23,88,7.888
24,-321,7.889
20,-579,7.89
13,-932,7.891
-7,-1137,7.892
-35,-853,7.893
-51,-239,7.894
-32,182,7.895
3,320,7.896
20,571,7.897
14,1198,7.898
10,1963,7.899
13,2240,7.9
11,1541,7.901
0,263,7.902
-1,-419,7.903
12,-101,7.904
20,11,7.905
18,-1181,7.906
17,-2768,7.907
21,-3032,7.908
25,-2007,7.909
27,-1149,7.91
30,-901,7.911
35,-422,7.912
34,437,7.913
28,975,7.914
29,888,7.915
33,889,7.916
45,1375,7.917
57,1717,7.918
67,1291,7.919
73,298,7.92
63,-649,7.921
51,-1055,7.922
35,-732,7.923
14,-20,7.924
-20,367,7.925
-41,148,7.926
-17,-190,7.927
10,-168,7.928
50,44,7.929
55,107,7.93
-42,93,7.931
-116,186,7.932
-113,276,7.933
-95,223,7.934
-46,136,7.935
2,132,7.936
72,97,7.937
125,-44,7.938
98,-141,7.939
6,-96,7.94
-69,-38,7.941
-91,-59,7.942
-94,-61,7.943
-104,-1,7.944
-104,21,7.945
-90,-27,7.946
-83,-37,7.947
-83,9,7.948
-71,10,7.949
-47,-48,7.95
-33,-66,7.951
-41,-32,7.952
-65,-30,7.953
-95,-67,7.954
-94,-60,7.955
-38,-3,7.956
49,15,7.957
112,-18,7.958
131,-40,7.959
135,-37,7.96
150,-40,7.961
169,-31,7.962
191,17,7.963
199,60,7.964
151,33,7.965
35,-27,7.966
-73,-45,7.967
-100,-26,7.968
-78,-13,7.969
-91,-6,7.97
-134,21,7.971
-137,58,7.972
-95,85,7.973
-61,95,7.974
-48,57,7.975
-20,-69,7.976
23,-216,7.977
36,-220,7.978
17,-38,7.979
12,161,7.98
26,213,7.981
24,145,7.982
0,67,7.983
-15,19,7.984
-11,8,7.985
-6,73,7.986
5,179,7.987
32,187,7.988
63,32,7.989
78,-166,7.99
80,-286,7.991
68,-333,7.992
20,-337,7.993
-59,-242,7.994
-93,-17,7.995
-29,217,7.996
82,297,7.997
151,217,7.998
163,72,7.999
166,-68,8.0
178,-182,8.001
159,-212,8.002
94,-100,8.003
1,113,8.004
-88,250,8.005
-138,125,8.006
-123,-207,8.007
-61,-443,8.008
-4,-349,8.009
18,-74,8.01
18,62,8.011
13,22,8.012
-4,24,8.013
-25,118,8.014
-25,132,8.015
-27,103,8.016
-32,-58,8.017
-39,-176,8.018
-53,-157,8.019
-65,-93,8.02
-70,108,8.021
-71,263,8.022
-56,281,8.023
-38,243,8.024
-15,32,8.025
6,-110,8.026
20,-46,8.027
32,21,8.028
34,100,8.029
37,181,8.03
45,266,8.031
51,332,8.032
52,340,8.033
48,299,8.034
14,48,8.035
-14,-301,8.036
-26,-685,8.037
-37,-899,8.038
-59,-622,8.039
-82,106,8.04
-86,600,8.041
-86,245,8.042
-102,-558,8.043
-122,-764,8.044
-106,-79,8.045
-48,636,8.046
15,596,8.047
50,108,8.048
70,-92,8.049
89,47,8.05
96,100,8.051
76,113,8.052
56,490,8.053
58,1161,8.054
74,1290,8.055
68,464,8.056
38,-583,8.057
10,-907,8.058
-1,-553,8.059
-5,-218,8.06
-7,-205,8.061
-1,-314,8.062
11,-523,8.063
18,-1060,8.064
14,-1752,8.065
0,-1810,8.066
-28,-615,8.067
-58,1330,8.068
-56,2560,8.069
-16,2066,8.07
15,480,8.071
-6,-598,8.072
-43,-483,8.073
-43,210,8.074
5,602,8.075
53,631,8.076
69,659,8.077
72,646,8.078
85,351,8.079
102,-51,8.08
103,-198,8.081
81,-91,8.082
47,-16,8.083
16,-111,8.084
-1,-305,8.085
-9,-498,8.086
-19,-608,8.087
-31,-628,8.088
-36,-758,8.089
-35,-1208,8.09
-39,-1730,8.091
-46,-1647,8.092
-36,-704,8.093
-10,682,8.094
8,1493,8.095
-1,1319,8.096
-18,714,8.097
-11,361,8.098
14,286,8.099
21,158,8.1
-18,-85,8.101
-75,-262,8.102
-88,-334,8.103
-40,-353,8.104
11,-285,8.105
15,-172,8.106
-7,-191,8.107
-7,-294,8.108
9,-117,8.109
5,456,8.11
-5,994,8.111
17,1068,8.112
57,780,8.113
64,342,8.114
30,-160,8.115
-9,-601,8.116
-22,-632,8.117
-23,-214,8.118
-20,-77,8.119
-12,-907,8.12
-8,-2180,8.121
-17,-2465,8.122
-23,-1101,8.123
-16,985,8.124
-6,2403,8.125
-9,2711,8.126
-13,2323,8.127
-6,1584,8.128
2,666,8.129
15,-5,8.13
44,-48,8.131
81,223,8.132
95,215,8.133
74,-95,8.134
46,-176,8.135
23,99,8.136
18,230,8.137
13,-81,8.138
7,-568,8.139
-3,-912,8.14
-28,-1028,8.141
-44,-817,8.142
-30,-271,8.143
-14,177,8.144
11,44,8.145
27,-484,8.146
10,-732,8.147
0,-435,8.148
14,44,8.149
24,330,8.15
14,356,8.151
7,179,8.152
7,-75,8.153
12,-208,8.154
30,-74,8.155
45,133,8.156
47,124,8.157
24,-52,8.158
-7,-162,8.159
-29,-183,8.16
-36,-253,8.161
-44,-336,8.162
-58,-275,8.163
-65,-64,8.164
-55,160,8.165
-36,313,8.166
-20,370,8.167
-3,292,8.168
14,104,8.169
22,-65,8.17
11,-148,8.171
-6,-240,8.172
-11,-411,8.173
-6,-601,8.174
-8,-634,8.175
-24,-436,8.176
-42,-83,8.177
-46,291,8.178
-34,560,8.179
-23,633,8.18
-34,471,8.181
-60,106,8.182
-54,-310,8.183
12,-519,8.184
104,-334,8.185
159,149,8.186
157,607,8.187
127,803,8.188
86,758,8.189
39,633,8.19
12,525,8.191
23,432,8.192
42,322,8.193
22,167,8.194
-28,9,8.195
-49,-115,8.196
-30,-140,8.197
-21,-171,8.198
-39,-221,8.199
-42,-251,8.2
-6,-217,8.201
29,-184,8.202
24,-152,8.203
0,-144,8.204
-16,-211,8.205
-25,-277,8.206
-35,-339,8.207
-30,-405,8.208
-6,-481,8.209
15,-519,8.21
16,-440,8.211
7,-293,8.212
0,53,8.213
-13,368,8.214
-38,456,8.215
-57,371,8.216
-54,335,8.217
-42,465,8.218
-23,652,8.219
16,708,8.22
61,566,8.221
65,299,8.222
13,22,8.223
-34,-167,8.224
-23,-225,8.225
20,-195,8.226
35,-182,8.227
20,-217,8.228
17,-232,8.229
34,-187,8.23
47,-136,8.231
42,-125,8.232
34,-130,8.233
25,-136,8.234
13,-179,8.235
0,-276,8.236
-6,-363,8.237
-16,-357,8.238
-35,-237,8.239
-57,-36,8.24
-69,174,8.241
-73,303,8.242
-65,298,8.243
-41,203,8.244
-9,105,8.245
8,41,8.246
10,-1,8.247
7,-15,8.248
13,2,8.249
16,12,8.25
16,-12,8.251
27,-36,8.252
56,-23,8.253
75,0,8.254
56,-9,8.255
1,-37,8.256
-32,-40,8.257
-25,-21,8.258
7,-25,8.259
26,-50,8.26
20,-66,8.261
4,-71,8.262
-9,-82,8.263
-19,-85,8.264
-34,-47,8.265
-46,19,8.266
-48,65,8.267
-36,82,8.268
-19,100,8.269
0,133,8.27
15,152,8.271
16,124,8.272
10,66,8.273
15,16,8.274
36,17,8.275
42,55,8.276
22,74,8.277
14,43,8.278
51,-18,8.279
89,-60,8.28
69,-63,8.281
16,-66,8.282
11,-104,8.283
58,-147,8.284
86,-142,8.285
69,-90,8.286
55,-44,8.287
53,-20,8.288
22,29,8.289
-38,130,8.29
-73,224,8.291
-64,245,8.292
-59,185,8.293
-82,3,8.294
-86,-282,8.295
-78,-485,8.296
-36,-439,8.297
-8,-323,8.298
-26,1,8.299
-38,243,8.3
-25,235,8.301
-9,274,8.302
16,460,8.303
39,562,8.304
55,405,8.305
66,224,8.306
58,-29,8.307
45,-220,8.308
18,-220,8.309
-3,-190,8.31
-9,-73,8.311
-9,-7,8.312
16,-98,8.313
30,-202,8.314
-15,-402,8.315
-56,-764,8.316
-50,-1114,8.317
-19,-1060,8.318
-6,-451,8.319
-13,405,8.32
-14,1097,8.321
-4,1485,8.322
10,1611,8.323
26,1456,8.324
44,1019,8.325
59,487,8.326
59,104,8.327
48,-69,8.328
31,-154,8.329
10,-243,8.33
-14,-341,8.331
-31,-435,8.332
-29,-537,8.333
-9,-680,8.334
18,-815,8.335
35,-838,8.336
43,-661,8.337
43,-307,8.338
36,70,8.339
20,310,8.34
-4,378,8.341
-26,339,8.342
-39,260,8.343
-28,163,8.344
2,61,8.345
25,-35,8.346
5,-108,8.347
-46,-138,8.348
-72,-131,8.349
-38,-119,8.35
21,-122,8.351
44,-123,8.352
26,-101,8.353
-1,-79,8.354
-8,-76,8.355
-11,-70,8.356
-25,-54,8.357
-38,-39,8.358
-31,-29,8.359
-7,-19,8.36
15,-7,8.361
27,3,8.362
26,3,8.363
9,2,8.364
-9,-1,8.365
-16,-11,8.366
-15,-43,8.367
-24,-67,8.368
-47,-67,8.369
-74,-56,8.37
-98,-13,8.371
-113,30,8.372
-93,70,8.373
-20,103,8.374
84,107,8.375
175,120,8.376
234,161,8.377
263,218,8.378
247,235,8.379
165,182,8.38
40,87,8.381
-62,14,8.382
-99,-1,8.383
-91,11,8.384
-77,5,8.385
-73,-16,8.386
-67,-25,8.387
-53,-19,8.388
-34,-20,8.389
-19,-30,8.39
-15,-33,8.391
-18,-28,8.392
-17,-32,8.393
-7,-55,8.394
6,-80,8.395
13,-87,8.396
8,-77,8.397
-2,-50,8.398
-10,-22,8.399
-12,0,8.4
-9,19,8.401
-11,42,8.402
-17,68,8.403
-18,85,8.404
-10,81,8.405
-2,54,8.406
-1,-23,8.407
1,-284,8.408
10,-997,8.409
15,-2253,8.41
6,-3446,8.411
-6,-3371,8.412
-7,-1588,8.413
0,1286,8.414
-1,3481,8.415
-15,3996,8.416
-32,3307,8.417
-32,2344,8.418
-4,1489,8.419
43,866,8.42
80,634,8.421
91,639,8.422
82,434,8.423
72,-50,8.424
56,-382,8.425
21,-382,8.426
-17,-364,8.427
-29,-514,8.428
-19,-622,8.429
-9,-572,8.43
-12,-549,8.431
-12,-625,8.432
-5,-635,8.433
-4,-533,8.434
-11,-477,8.435
-17,-511,8.436
-12,-491,8.437
-9,-386,8.438
-12,-317,8.439
-14,-288,8.44
-9,-198,8.441
-4,-77,8.442
-5,-47,8.443
-8,-72,8.444
-10,-29,8.445
-11,52,8.446
-9,55,8.447
0,10,8.448
11,18,8.449
11,62,8.45
1,58,8.451
-3,29,8.452
2,33,8.453
6,39,8.454
3,-1,8.455
0,-39,8.456
0,-11,8.457
2,40,8.458
11,42,8.459
18,19,8.46
16,30,8.461
12,54,8.462
2,47,8.463
-6,34,8.464
-7,51,8.465
-8,69,8.466
-5,58,8.467
-3,44,8.468
-2,50,8.469
0,54,8.47
6,37,8.471
14,24,8.472
27,30,8.473
39,35,8.474
32,25,8.475
2,16,8.476
-31,16,8.477
-42,17,8.478
-25,10,8.479
-4,13,8.48
0,26,8.481
1,26,8.482
13,11,8.483
20,1,8.484
2,5,8.485
-23,6,8.486
-23,-1,8.487
5,-3,8.488
43,-2,8.489
78,-11,8.49
105,-75,8.491
97,-278,8.492
51,-663,8.493
-9,-1151,8.494
-29,-1274,8.495
-12,-591,8.496
-5,646,8.497
-39,1516,8.498
-92,1385,8.499
-131,657,8.5
-133,201,8.501
-91,248,8.502
-27,342,8.503
10,215,8.504
4,94,8.505
1,134,8.506
40,129,8.507
86,-47,8.508
80,-181,8.509
38,-96,8.51
18,40,8.511
31,-56,8.512
42,-461,8.513
32,-1122,8.514
24,-1610,8.515
29,-1278,8.516
33,48,8.517
23,1471,8.518
10,1769,8.519
0,893,8.52
-8,46,8.521
-14,46,8.522
-18,381,8.523
-22,282,8.524
-29,-79,8.525
-29,-130,8.526
-13,68,8.527
11,84,8.528
26,-79,8.529
34,-109,8.53
35,-31,8.531
36,-82,8.532
30,-205,8.533
20,-209,8.534
9,-126,8.535
-4,-135,8.536
-13,-207,8.537
-16,-188,8.538
-10,-115,8.539
-3,-114,8.54
-3,-147,8.541
-5,-117,8.542
-3,-72,8.543
0,-89,8.544
0,-118,8.545
-1,-91,8.546
0,-56,8.547
2,-65,8.548
2,-66,8.549
-1,-22,8.55
0,8,8.551
5,-8,8.552
6,-16,8.553
-1,5,8.554
-5,13,8.555
-8,20,8.556
-7,20,8.557
-6,20,8.558
0,24,8.559
7,29,8.56
7,34,8.561
0,38,8.562
0,35,8.563
10,32,8.564
23,36,8.565
32,38,8.566
30,36,8.567
19,33,8.568
2,31,8.569
-14,27,8.57
-24,20,8.571
-24,15,8.572
-15,19,8.573
-4,25,8.574
-1,27,8.575
-9,17,8.576
-15,8,8.577
-10,9,8.578
1,3,8.579
6,-5,8.58
2,-3,8.581
0,11,8.582
5,27,8.583
8,35,8.584
6,36,8.585
5,32,8.586
9,25,8.587
15,23,8.588
18,16,8.589
17,3,8.59
9,-13,8.591
-8,-26,8.592
-34,-42,8.593
-62,-73,8.594
-64,-92,8.595
-32,-56,8.596
10,29,8.597
35,100,8.598
57,91,8.599
92,17,8.6
112,-67,8.601
72,-151,8.602
-3,-251,8.603
-37,-300,8.604
-13,-188,8.605
0,59,8.606
-35,264,8.607
-62,299,8.608
-31,244,8.609
21,224,8.61
40,227,8.611
31,177,8.612
31,97,8.613
34,53,8.614
20,54,8.615
-3,40,8.616
-12,-4,8.617
-9,-28,8.618
-6,-37,8.619
-3,-67,8.62
4,-100,8.621
2,-83,8.622
-9,-33,8.623
-17,-14,8.624
-11,-34,8.625
-6,-39,8.626
-11,-17,8.627
-9,-9,8.628
3,-41,8.629
12,-97,8.63
8,-148,8.631
2,-161,8.632
2,-111,8.633
0,-20,8.634
-4,45,8.635
-7,67,8.636
-8,-46,8.637
-9,-125,8.638
-6,-97,8.639
-3,-55,8.64
1,29,8.641
4,79,8.642
4,29,8.643
5,1,8.644
12,39,8.645
14,61,8.646
0,29,8.647
-13,9,8.648
-26,26,8.649
-31,34,8.65
-11,13,8.651
9,0,8.652
29,14,8.653
44,22,8.654
43,2,8.655
44,-1,8.656
37,22,8.657
11,36,8.658
-17,20,8.659
-22,15,8.66
-3,49,8.661
9,84,8.662
0,70,8.663
-7,-8,8.664
-4,-104,8.665
3,-130,8.666
2,-23,8.667
-2,155,8.668
-3,233,8.669
-2,113,8.67
-6,-115,8.671
-10,-302,8.672
-9,-384,8.673
-10,-379,8.674
-16,-273,8.675
-25,-79,8.676
-25,93,8.677
-13,157,8.678
1,157,8.679
13,186,8.68
19,234,8.681
22,214,8.682
23,122,8.683
24,29,8.684
22,-26,8.685
16,-48,8.686
9,-21,8.687
6,47,8.688
6,74,8.689
5,10,8.69
3,-73,8.691
3,-91,8.692
5,-64,8.693
2,-54,8.694
-1,-48,8.695
0,-5,8.696
4,38,8.697
11,36,8.698
19,19,8.699
25,33,8.7
19,54,8.701
1,37,8.702
-13,3,8.703
-16,-8,8.704
-18,-13,8.705
-27,-40,8.706
-35,-67,8.707
-31,-64,8.708
-19,-49,8.709
-9,-44,8.71
-8,-36,8.711
-14,-14,8.712
-17,6,8.713
-17,7,8.714
-14,14,8.715
-17,61,8.716
-27,129,8.717
-35,149,8.718
-26,60,8.719
-2,-113,8.72
18,-240,8.721
21,-217,8.722
18,-90,8.723
25,6,8.724
41,19,8.725
53,13,8.726
55,37,8.727
56,58,8.728
60,46,8.729
68,30,8.73
72,41,8.731
63,55,8.732
46,48,8.733
26,30,8.734
20,24,8.735
17,17,8.736
-21,-3,8.737
-110,-15,8.738
-194,-10,8.739
-185,0,8.74
-71,1,8.741
57,4,8.742
101,12,8.743
69,9,8.744
25,-5,8.745
-3,-8,8.746
-19,13,8.747
-25,52,8.748
-7,81,8.749
20,66,8.75
30,-5,8.751
27,-95,8.752
30,-132,8.753
27,-100,8.754
7,-43,8.755
-17,-20,8.756
-14,-32,8.757
9,-39,8.758
19,-25,8.759
10,1,8.76
6,33,8.761
14,56,8.762
19,40,8.763
17,-10,8.764
13,-27,8.765
8,39,8.766
0,141,8.767
-4,160,8.768
-2,41,8.769
-1,-135,8.77
-4,-211,8.771
-3,-84,8.772
5,172,8.773
6,404,8.774
-2,410,8.775
-9,133,8.776
-8,-257,8.777
-10,-484,8.778
-22,-405,8.779
-31,-121,8.78
-29,151,8.781
-25,252,8.782
-23,144,8.783
-17,-111,8.784
2,-365,8.785
18,-450,8.786
20,-313,8.787
18,-63,8.788
20,129,8.789
24,170,8.79
27,79,8.791
25,-50,8.792
18,-104,8.793
0,-39,8.794
-18,89,8.795
-26,166,8.796
-20,158,8.797
-10,136,8.798
-4,141,8.799
-2,152,8.8
3,192,8.801
12,378,8.802
17,752,8.803
21,1073,8.804
25,917,8.805
31,141,8.806
37,-807,8.807
36,-1235,8.808
30,-919,8.809
24,-309,8.81
21,25,8.811
14,-29,8.812
3,-212,8.813
-9,-339,8.814
-17,-332,8.815
-24,-150,8.816
-33,188,8.817
-36,493,8.818
-24,514,8.819
-6,228,8.82
3,-84,8.821
-1,-70,8.822
-3,357,8.823
3,862,8.824
12,886,8.825
12,167,8.826
8,-905,8.827
7,-1606,8.828
3,-1599,8.829
-4,-1157,8.83
-9,-695,8.831
-6,-321,8.832
0,6,8.833
6,270,8.834
11,357,8.835
12,301,8.836
12,250,8.837
11,273,8.838
13,336,8.839
16,426,8.84
14,537,8.841
9,617,8.842
5,618,8.843
3,549,8.844
1,434,8.845
-3,251,8.846
-6,-1,8.847
-5,-222,8.848
-2,-263,8.849
0,-100,8.85
1,105,8.851
1,135,8.852
1,-49,8.853
-1,-321,8.854
-3,-462,8.855
-1,-388,8.856
6,-156,8.857
19,149,8.858
35,410,8.859
44,446,8.86
32,193,8.861
1,-106,8.862
-25,-136,8.863
-34,77,8.864
-43,233,8.865
-82,205,8.866
-140,152,8.867
-174,122,8.868
-138,-62,8.869
-37,-401,8.87
75,-552,8.871
148,-318,8.872
171,2,8.873
158,24,8.874
130,-302,8.875
93,-693,8.876
63,-869,8.877
64,-743,8.878
94,-360,8.879
108,103,8.88
66,394,8.881
-12,400,8.882
-62,259,8.883
-52,151,8.884
-20,107,8.885
-21,90,8.886
-72,111,8.887
-142,170,8.888
-176,200,8.889
-156,177,8.89
-113,176,8.891
-86,237,8.892
-72,285,8.893
-40,240,8.894
13,131,8.895
53,37,8.896
58,-8,8.897
43,-27,8.898
44,-53,8.899
70,-92,8.9
102,-115,8.901
102,-92,8.902
56,-44,8.903
8,-24,8.904
16,-32,8.905
58,-20,8.906
53,38,8.907
-14,97,8.908
-65,108,8.909
-46,78,8.91
2,44,8.911
26,38,8.912
29,93,8.913
32,201,8.914
24,251,8.915
-2,106,8.916
-24,-193,8.917
-30,-384,8.918
-38,-305,8.919
-61,-121,8.92
-73,-117,8.921
-60,-278,8.922
-42,-310,8.923
-31,-88,8.924
-15,159,8.925
18,192,8.926
43,81,8.927
37,22,8.928
13,15,8.929
4,-52,8.93
19,-157,8.931
38,-164,8.932
45,-60,8.933
37,92,8.934
24,252,8.935
14,391,8.936
9,393,8.937
6,198,8.938
7,-24,8.939
5,-60,8.94
-9,37,8.941
-28,67,8.942
-36,15,8.943
-23,21,8.944
-5,28,8.945
-2,-170,8.946
-6,-537,8.947
6,-752,8.948
32,-619,8.949
46,-252,8.95
36,158,8.951
22,509,8.952
25,666,8.953
40,472,8.954
49,74,8.955
44,-191,8.956
30,-61,8.957
12,14,8.958
-3,-72,8.959
-9,-194,8.96
-6,-420,8.961
-4,-510,8.962
-9,-190,8.963
-16,117,8.964
-17,387,8.965
-6,554,8.966
13,410,8.967
34,273,8.968
44,163,8.969
46,62,8.97
42,-10,8.971
29,-58,8.972
6,-31,8.973
-18,34,8.974
-24,162,8.975
-20,90,8.976
-23,-144,8.977
-36,-339,8.978
-32,-346,8.979
-6,-178,8.98
8,14,8.981
-11,75,8.982
-40,6,8.983
-47,-39,8.984
-29,20,8.985
-19,82,8.986
-26,52,8.987
-39,-8,8.988
-42,0,8.989
-37,42,8.99
-30,40,8.991
-20,26,8.992
-7,69,8.993
-2,158,8.994
-5,212,8.995
-7,188,8.996
7,82,8.997
38,-80,8.998
62,-237,8.999
67,-310,9.0
51,-299,9.001
31,-267,9.002
19,-204,9.003
14,-61,9.004
7,120,9.005
-2,214,9.006
-7,209,9.007
0,208,9.008
11,231,9.009
17,177,9.01
13,12,9.011
1,-142,9.012
-11,-177,9.013
-23,-120,9.014
-30,-51,9.015
-26,-17,9.016
-4,-29,9.017
33,-56,9.018
67,-52,9.019
75,18,9.02
44,117,9.021
0,172,9.022
-23,176,9.023
-18,165,9.024
-7,144,9.025
-9,75,9.026
-20,-45,9.027
-31,-176,9.028
-39,-246,9.029
-33,-191,9.03
-5,-14,9.031
32,174,9.032
52,233,9.033
50,146,9.034
44,27,9.035
34,-37,9.036
15,-89,9.037
2,-166,9.038
7,-206,9.039
17,-146,9.04
42,-36,9.041
62,31,9.042
62,34,9.043
52,18,9.044
17,8,9.045
-11,2,9.046
-17,-4,9.047
-34,-8,9.048
-78,-21,9.049
-108,-38,9.05
-95,-60,9.051
-83,-124,9.052
-73,-273,9.053
-65,-511,9.054
-62,-633,9.055
-54,-373,9.056
-50,231,9.057
-38,716,9.058
-11,634,9.059
18,103,9.06
33,-368,9.061
37,-530,9.062
43,-470,9.063
50,-171,9.064
57,477,9.065
65,1144,9.066
71,1210,9.067
64,574,9.068
44,-169,9.069
22,-543,9.07
5,-616,9.071
-3,-534,9.072
0,-280,9.073
8,39,9.074
1,44,9.075
-19,-271,9.076
-37,-333,9.077
-35,194,9.078
-20,827,9.079
0,913,9.08
29,485,9.081
72,95,9.082
107,38,9.083
95,155,9.084
32,218,9.085
-26,130,9.086
-31,-203,9.087
8,-802,9.088
41,-1339,9.089
44,-1304,9.09
42,-628,9.091
51,160,9.092
47,571,9.093
11,662,9.094
-33,659,9.095
-54,561,9.096
-57,339,9.097
-59,231,9.098
-50,377,9.099
-32,476,9.1
-22,224,9.101
-31,-179,9.102
-41,-393,9.103
-31,-418,9.104
-16,-353,9.105
-5,-88,9.106
7,322,9.107
27,483,9.108
40,166,9.109
38,-386,9.11
29,-884,9.111
20,-1199,9.112
9,-1137,9.113
-8,-601,9.114
-16,-214,9.115
-12,-775,9.116
-9,-1861,9.117
-15,-1952,9.118
-21,-476,9.119
-20,1300,9.12
-14,2052,9.121
-3,2047,9.122
5,2190,9.123
2,2399,9.124
-4,2045,9.125
7,1302,9.126
41,848,9.127
68,617,9.128
58,45,9.129
25,-735,9.13
2,-1045,9.131
-1,-834,9.132
-1,-680,9.133
-11,-728,9.134
-24,-607,9.135
-36,-307,9.136
-41,-306,9.137
-42,-635,9.138
-30,-701,9.139
-12,-277,9.14
0,106,9.141
5,11,9.142
7,-328,9.143
4,-506,9.144
-8,-434,9.145
-20,-158,9.146
-13,282,9.147
4,664,9.148
10,694,9.149
-2,430,9.15
-6,200,9.151
12,105,9.152
34,-2,9.153
39,-178,9.154
29,-276,9.155
15,-265,9.156
3,-275,9.157
-4,-315,9.158
-2,-305,9.159
9,-308,9.16
20,-491,9.161
15,-840,9.162
-1,-1108,9.163
-19,-1062,9.164
-38,-705,9.165
-56,-299,9.166
-59,-214,9.167
-36,-552,9.168
-2,-891,9.169
17,-611,9.17
21,456,9.171
24,1784,9.172
35,2609,9.173
36,2634,9.174
21,1978,9.175
9,1070,9.176
32,321,9.177
80,-128,9.178
114,-405,9.179
92,-603,9.18
24,-588,9.181
-35,-217,9.182
-47,323,9.183
-29,643,9.184
-30,603,9.185
-51,378,9.186
-49,125,9.187
-7,-153,9.188
35,-387,9.189
42,-430,9.19
27,-319,9.191
16,-267,9.192
11,-313,9.193
4,-256,9.194
17,8,9.195
47,226,9.196
67,120,9.197
49,-210,9.198
6,-433,9.199
-32,-417,9.2
-50,-291,9.201
-49,-157,9.202
-39,24,9.203
-31,266,9.204
-29,452,9.205
-24,466,9.206
-16,327,9.207
-11,146,9.208
-8,5,9.209
4,-100,9.21
21,-204,9.211
15,-298,9.212
-22,-340,9.213
-76,-335,9.214
-106,-317,9.215
-89,-286,9.216
-33,-203,9.217
34,-93,9.218
88,-86,9.219
128,-270,9.22
154,-579,9.221
154,-826,9.222
119,-785,9.223
65,-314,9.224
31,448,9.225
21,1062,9.226
6,1142,9.227
-28,736,9.228
-56,222,9.229
-58,-146,9.23
-58,-407,9.231
-88,-617,9.232
-135,-663,9.233
-165,-426,9.234
-148,11,9.235
-92,423,9.236
-28,621,9.237
20,565,9.238
50,342,9.239
64,118,9.24
63,40,9.241
51,98,9.242
35,134,9.243
16,29,9.244
-5,-200,9.245
-17,-469,9.246
-3,-683,9.247
35,-733,9.248
71,-547,9.249
75,-229,9.25
48,0,9.251
13,43,9.252
-1,35,9.253
5,113,9.254
13,267,9.255
2,459,9.256
-18,745,9.257
-30,1121,9.258
-28,1339,9.259
-20,1158,9.26
-9,690,9.261
8,277,9.262
39,54,9.263
89,-101,9.264
144,-253,9.265
168,-324,9.266
126,-323,9.267
34,-374,9.268
-38,-497,9.269
-53,-567,9.27
-36,-520,9.271
-37,-434,9.272
-54,-378,9.273
-61,-332,9.274
-53,-281,9.275
-54,-239,9.276
-60,-184,9.277
-49,-66,9.278
-21,81,9.279
-3,168,9.28
-4,167,9.281
-9,125,9.282
-1,76,9.283
11,14,9.284
13,-46,9.285
6,-65,9.286
4,-31,9.287
19,18,9.288
51,30,9.289
90,-6,9.29
110,-49,9.291
87,-44,9.292
34,-2,9.293
-15,23,9.294
-34,2,9.295
-41,-30,9.296
-67,-41,9.297
-101,-36,9.298
-109,-33,9.299
-89,-19,9.3
-74,24,9.301
-80,65,9.302
-84,65,9.303
-62,35,9.304
-18,14,9.305
35,7,9.306
83,-13,9.307
111,-61,9.308
102,-119,9.309
60,-162,9.31
22,-164,9.311
15,-122,9.312
25,-84,9.313
29,-96,9.314
23,-142,9.315
17,-181,9.316
18,-198,9.317
18,-150,9.318
17,98,9.319
17,359,9.32
17,656,9.321
12,830,9.322
8,632,9.323
20,458,9.324
39,354,9.325
37,249,9.326
0,145,9.327
-48,27,9.328
-70,-127,9.329
-65,-274,9.33
-47,-398,9.331
-28,-486,9.332
-12,-466,9.333
-9,-441,9.334
-19,-459,9.335
-25,-604,9.336
-15,-787,9.337
-8,-805,9.338
-10,-513,9.339
-9,60,9.34
6,673,9.341
25,1031,9.342
53,1035,9.343
77,873,9.344
87,767,9.345
89,709,9.346
63,568,9.347
41,368,9.348
33,258,9.349
25,229,9.35
22,115,9.351
18,-101,9.352
14,-249,9.353
7,-266,9.354
-14,-259,9.355
-37,-316,9.356
-48,-367,9.357
-45,-351,9.358
-33,-356,9.359
-11,-459,9.36
9,-592,9.361
10,-643,9.362
-11,-581,9.363
-35,-438,9.364
-38,-243,9.365
-18,-49,9.366
3,44,9.367
4,-37,9.368
-9,-223,9.369
-28,-293,9.37
-44,-65,9.371
-55,396,9.372
-46,795,9.373
-9,940,9.374
41,825,9.375
62,591,9.376
33,361,9.377
-1,205,9.378
2,140,9.379
19,111,9.38
-4,21,9.381
-28,-128,9.382
23,-209,9.383
112,-178,9.384
100,-140,9.385
-29,-174,9.386
-108,-215,9.387
-26,-191,9.388
91,-150,9.389
78,-150,9.39
-19,-160,9.391
-46,-131,9.392
6,-95,9.393
29,-89,9.394
-8,-92,9.395
-35,-70,9.396
-17,-46,9.397
-7,-41,9.398
-26,-41,9.399
-31,-22,9.4
-13,-1,9.401
-3,3,9.402
-8,3,9.403
0,11,9.404
21,20,9.405
29,22,9.406
23,24,9.407
23,32,9.408
23,31,9.409
11,27,9.41
1,28,9.411
6,31,9.412
8,28,9.413
-7,15,9.414
-21,2,9.415
-21,-36,9.416
-17,-147,9.417
-17,-300,9.418
-2,-379,9.419
16,-257,9.42
10,44,9.421
-18,341,9.422
-21,464,9.423
1,406,9.424
9,290,9.425
-10,210,9.426
-9,168,9.427
21,142,9.428
39,116,9.429
25,78,9.43
12,20,9.431
21,-34,9.432
29,-71,9.433
16,-179,9.434
1,-411,9.435
-10,-592,9.436
-11,-622,9.437
-12,-515,9.438
-7,10,9.439
-2,394,9.44
0,356,9.441
11,251,9.442
44,-58,9.443
69,-232,9.444
71,1,9.445
53,241,9.446
-27,499,9.447
-86,635,9.448
-80,404,9.449
-71,206,9.45
-53,112,9.451
-29,-1,9.452
12,-169,9.453
49,-326,9.454
48,-423,9.455
14,-522,9.456
-10,-573,9.457
-5,-344,9.458
3,138,9.459
0,459,9.46
-10,378,9.461
-13,192,9.462
-14,244,9.463
-16,414,9.464
-12,396,9.465
-3,234,9.466
-1,151,9.467
-7,132,9.468
-14,35,9.469
-13,-94,9.47
-1,-123,9.471
30,-100,9.472
88,-138,9.473
158,-205,9.474
187,-196,9.475
119,-155,9.476
-44,-173,9.477
-227,-201,9.478
-322,-165,9.479
-269,-116,9.48
-117,-125,9.481
26,-144,9.482
123,-115,9.483
215,-78,9.484
302,-75,9.485
292,-66,9.486
141,-23,9.487
-38,-1,9.488
-99,-24,9.489
-40,-37,9.49
19,-12,9.491
11,6,9.492
-22,-5,9.493
-34,-10,9.494
-22,5,9.495
-9,15,9.496
-2,5,9.497
-11,2,9.498
-36,18,9.499
-56,28,9.5
-49,19,9.501
-27,15,9.502
-17,27,9.503
-12,33,9.504
-4,22,9.505
4,15,9.506
0,25,9.507
-5,32,9.508
1,25,9.509
10,20,9.51
8,26,9.511
6,29,9.512
14,22,9.513
21,19,9.514
12,27,9.515
-10,24,9.516
-29,12,9.517
-35,10,9.518
-29,15,9.519
-19,5,9.52
-13,-38,9.521
-6,-113,9.522
14,-167,9.523
43,-131,9.524
56,-7,9.525
48,96,9.526
40,94,9.527
39,49,9.528
17,66,9.529
-33,127,9.53
-70,130,9.531
-58,73,9.532
-22,52,9.533
0,90,9.534
3,117,9.535
13,89,9.536
29,38,9.537
35,5,9.538
19,-26,9.539
-10,-71,9.54
-36,-116,9.541
-44,-144,9.542
-20,-130,9.543
21,-42,9.544
51,75,9.545
65,88,9.546
73,-56,9.547
61,-212,9.548
2,-201,9.549
-90,-50,9.55
-151,56,9.551
-139,37,9.552
-75,-1,9.553
-9,49,9.554
40,150,9.555
84,193,9.556
112,143,9.557
126,77,9.558
100,51,9.559
68,54,9.56
22,47,9.561
-8,22,9.562
5,-10,9.563
12,-41,9.564
-8,-69,9.565
-29,-84,9.566
-56,-81,9.567
-75,-63,9.568
-69,-37,9.569
-46,-14,9.57
25,-3,9.571
68,-12,9.572
22,-39,9.573
-28,-70,9.574
-68,-77,9.575
-55,-54,9.576
-2,-15,9.577
63,24,9.578
99,48,9.579
64,50,9.58
-17,33,9.581
-68,10,9.582
-56,-1,9.583
-23,1,9.584
-11,5,9.585
-8,1,9.586
4,-2,9.587
38,0,9.588
100,5,9.589
153,8,9.59
125,9,9.591
6,6,9.592
-84,-2,9.593
-50,-14,9.594
45,-17,9.595
48,-10,9.596
-48,-9,9.597
-99,-11,9.598
-43,-10,9.599
21,-3,9.6
8,4,9.601
-27,9,9.602
-23,11,9.603
-14,11,9.604
-38,6,9.605
-59,0,9.606
-32,-2,9.607
-5,0,9.608
-30,0,9.609
-71,0,9.61
-56,0,9.611
14,0,9.612
82,1,9.613
125,1,9.614
138,6,9.615
102,10,9.616
20,4,9.617
-44,-3,9.618
-36,-6,9.619
16,-4,9.62
39,0,9.621
19,2,9.622
-1,1,9.623
3,1,9.624
9,-1,9.625
4,-1,9.626
10,0,9.627
31,0,9.628
40,0,9.629
15,0,9.63
-24,0,9.631
-49,1,9.632
-53,0,9.633
-47,0,9.634
-39,0,9.635
-36,-5,9.636
-39,-11,9.637
-45,-11,9.638
-41,-5,9.639
-27,0,9.64
-16,1,9.641
-8,1,9.642
7,0,9.643
29,0,9.644
42,0,9.645
40,5,9.646
31,10,9.647
17,8,9.648
0,-1,9.649
-4,-2,9.65
10,2,9.651
25,3,9.652
21,-3,9.653
6,-9,9.654
3,-9,9.655
6,-9,9.656
-1,-14,9.657
-10,-14,9.658
-2,-8,9.659
13,-3,9.66
13,-2,9.661
3,-2,9.662
4,2,9.663
15,3,9.664
17,0,9.665
9,0,9.666
6,2,9.667
11,4,9.668
14,1,9.669
15,-2,9.67
17,-1,9.671
17,0,9.672
15,2,9.673
13,2,9.674
15,0,9.675
12,-4,9.676
2,-4,9.677
-5,9,9.678
-4,24,9.679
-3,13,9.68
-11,-22,9.681
-20,-32,9.682
-23,38,9.683
-21,173,9.684
-19,246,9.685
-17,114,9.686
-13,-192,9.687
-12,-418,9.688
-10,-338,9.689
-8,-44,9.69
-4,145,9.691
-3,61,9.692
-6,-125,9.693
-9,-203,9.694
-8,-123,9.695
-5,11,9.696
-2,127,9.697
1,215,9.698
10,228,9.699
17,122,9.7
24,-20,9.701
29,-51,9.702
27,60,9.703
18,193,9.704
9,209,9.705
6,81,9.706
9,-108,9.707
11,-237,9.708
6,-230,9.709
2,-124,9.71
1,-16,9.711
2,35,9.712
4,50,9.713
7,47,9.714
8,22,9.715
6,-11,9.716
7,-13,9.717
13,30,9.718
25,69,9.719
33,72,9.72
26,59,9.721
12,59,9.722
2,61,9.723
2,55,9.724
-3,49,9.725
-16,42,9.726
-24,29,9.727
-12,22,9.728
8,41,9.729
9,56,9.73
-12,7,9.731
-33,-105,9.732
-37,-192,9.733
-30,-177,9.734
-23,-50,9.735
-15,84,9.736
-5,85,9.737
4,-85,9.738
6,-310,9.739
0,-399,9.74
-8,-292,9.741
-12,-107,9.742
-9,21,9.743
-4,82,9.744
-7,119,9.745
-11,119,9.746
0,69,9.747
28,27,9.748
50,42,9.749
45,76,9.75
27,75,9.751
27,60,9.752
43,66,9.753
55,88,9.754
43,119,9.755
21,180,9.756
6,239,9.757
7,207,9.758
17,38,9.759
35,-155,9.76
49,-231,9.761
45,-180,9.762
19,-104,9.763
-11,-72,9.764
-27,-68,9.765
-35,-60,9.766
-56,-26,9.767
-89,55,9.768
-109,152,9.769
-97,162,9.77
-66,35,9.771
-42,-118,9.772
-27,-139,9.773
-14,-19,9.774
-3,87,9.775
0,49,9.776
4,-83,9.777
18,-150,9.778
32,-84,9.779
36,53,9.78
33,160,9.781
38,163,9.782
45,53,9.783
45,-105,9.784
35,-204,9.785
23,-189,9.786
14,-103,9.787
10,-18,9.788
10,55,9.789
8,117,9.79
4,115,9.791
2,9,9.792
4,-112,9.793
-2,-121,9.794
-13,10,9.795
-22,151,9.796
-20,176,9.797
-8,110,9.798
5,35,9.799
10,-23,9.8
5,-56,9.801
-6,-31,9.802
-14,63,9.803
-7,175,9.804
9,284,9.805
19,443,9.806
16,598,9.807
10,495,9.808
4,4,9.809
-2,-554,9.81
-9,-692,9.811
-16,-381,9.812
-16,-85,9.813
-7,-83,9.814
17,-163,9.815
33,18,9.816
10,352,9.817
-53,388,9.818
-104,-41,9.819
-96,-533,9.82
-55,-580,9.821
-26,-180,9.822
-7,208,9.823
52,257,9.824
138,99,9.825
174,-43,9.826
119,-228,9.827
22,-566,9.828
-39,-849,9.829
-44,-757,9.83
-19,-314,9.831
15,156,9.832
46,435,9.833
52,545,9.834
30,509,9.835
4,345,9.836
5,188,9.837
20,189,9.838
17,289,9.839
-1,306,9.84
-14,187,9.841
-18,14,9.842
-24,-165,9.843
-30,-291,9.844
-28,-194,9.845
-22,195,9.846
-17,604,9.847
-8,625,9.848
4,199,9.849
10,-306,9.85
3,-518,9.851
-6,-380,9.852
-5,-79,9.853
-4,206,9.854
-8,271,9.855
-17,66,9.856
-20,-172,9.857
-17,-131,9.858
-10,158,9.859
-1,324,9.86
6,125,9.861
10,-284,9.862
15,-598,9.863
18,-677,9.864
11,-539,9.865
-7,-258,9.866
-20,32,9.867
-15,183,9.868
2,161,9.869
15,66,9.87
16,9,9.871
12,30,9.872
11,96,9.873
11,149,9.874
12,129,9.875
14,64,9.876
14,60,9.877
16,160,9.878
24,253,9.879
28,251,9.88
22,209,9.881
16,198,9.882
14,157,9.883
11,14,9.884
2,-140,9.885
-5,-138,9.886
-6,19,9.887
-8,176,9.888
-8,230,9.889
-6,187,9.89
-4,38,9.891
-1,-241,9.892
3,-545,9.893
5,-745,9.894
7,-729,9.895
6,-515,9.896
4,-187,9.897
-3,140,9.898
-8,300,9.899
-7,255,9.9
-6,186,9.901
-7,272,9.902
-9,409,9.903
-6,354,9.904
-2,89,9.905
-1,-167,9.906
-4,-238,9.907
-3,-121,9.908
1,100,9.909
4,311,9.91
1,397,9.911
0,324,9.912
3,143,9.913
1,-175,9.914
-3,-585,9.915
-7,-820,9.916
-6,-574,9.917
0,25,9.918
13,441,9.919
26,407,9.92
32,226,9.921
26,228,9.922
20,281,9.923
21,127,9.924
19,-123,9.925
11,-201,9.926
5,-111,9.927
15,-35,9.928
25,-6,9.929
23,27,9.93
16,-9,9.931
12,-156,9.932
11,-251,9.933
0,-153,9.934
-15,8,9.935
-31,-16,9.936
-48,-231,9.937
-61,-362,9.938
-61,-227,9.939
-53,45,9.94
-26,189,9.941
-4,127,9.942
-1,44,9.943
4,86,9.944
16,142,9.945
28,72,9.946
42,1,9.947
66,117,9.948
121,307,9.949
160,309,9.95
146,161,9.951
123,115,9.952
71,187,9.953
24,179,9.954
-2,53,9.955
-34,-19,9.956
-70,15,9.957
-82,7,9.958
-57,-79,9.959
-23,-100,9.96
-16,-32,9.961
-33,-14,9.962
-46,-86,9.963
-49,-144,9.964
-57,-171,9.965
-80,-242,9.966
-98,-288,9.967
-93,-137,9.968
-73,157,9.969
-61,279,9.97
-61,51,9.971
-66,-328,9.972
-64,-522,9.973
-56,-410,9.974
-42,-107,9.975
-33,163,9.976
-27,258,9.977
-10,216,9.978
36,169,9.979
96,176,9.98
136,166,9.981
141,90,9.982
129,28,9.983
122,47,9.984
107,66,9.985
74,4,9.986
33,-58,9.987
11,-25,9.988
8,30,9.989
3,-26,9.99
-7,-161,9.991
-11,-236,9.992
3,-239,9.993
28,-263,9.994
43,-294,9.995
34,-204,9.996
3,40,9.997
-37,303,9.998
-71,444,9.999
-81,439,10.0
-63,309,10.001
-34,93,10.002
-14,-90,10.003
3,-107,10.004
28,20,10.005
44,114,10.006
36,66,10.007
16,-66,10.008
11,-188,10.009
25,-262,10.01
35,-251,10.011
25,-139,10.012
13,-42,10.013
5,-169,10.014
3,-570,10.015
1,-948,10.016
-4,-849,10.017
-9,-126,10.018
-13,790,10.019
-19,1230,10.02
-28,916,10.021
-35,209,10.022
-34,-302,10.023
-25,-337,10.024
8,-1,10.025
33,423,10.026
35,648,10.027
33,555,10.028
14,330,10.029
-4,261,10.03
-18,324,10.031
-34,193,10.032
-52,-203,10.033
-66,-580,10.034
-59,-547,10.035
-39,-172,10.036
-15,94,10.037
7,-15,10.038
23,-279,10.039
37,-267,10.04
47,87,10.041
52,371,10.042
50,242,10.043
34,-84,10.044
14,-160,10.045
10,44,10.046
31,179,10.047
