Deltoid,Bicep,Time
10,-2,0.0
11,0,0.001
4,4,0.002
0,4,0.003
2,-1,0.004
4,-3,0.005
1,-1,0.006
-2,-1,0.007
0,-3,0.008
2,-4,0.009
0,-1,0.01
-1,0,0.011
3,-5,0.012
8,-5,0.013
7,-3,0.014
3,0,0.015
-1,-1,0.016
-3,-7,0.017
-5,-7,0.018
-1,-2,0.019
9,-1,0.02
16,0,0.021
13,2,0.022
6,1,0.023
4,-1,0.024
5,-1,0.025
5,2,0.026
1,4,0.027
0,1,0.028
2,-1,0.029
1,0,0.03
0,1,0.031
-1,3,0.032
2,6,0.033
1,3,0.034
-1,-2,0.035
-3,-4,0.036
-2,-3,0.037
1,2,0.038
5,3,0.039
10,0,0.04
11,0,0.041
8,4,0.042
3,3,0.043
1,-2,0.044
1,-2,0.045
1,0,0.046
0,-1,0.047
2,-5,0.048
3,-5,0.049
3,1,0.05
2,3,0.051
5,-1,0.052
9,-3,0.053
6,-3,0.054
-1,-1,0.055
-8,-2,0.056
-8,-4,0.057
-4,-3,0.058
3,-5,0.059
10,-7,0.06
10,-3,0.061
3,2,0.062
-2,6,0.063
-1,2,0.064
1,0,0.065
0,-1,0.066
-3,-2,0.067
-2,-3,0.068
2,-3,0.069
4,-3,0.07
2,-2,0.071
-1,-2,0.072
1,1,0.073
5,-3,0.074
6,-4,0.075
1,-3,0.076
-4,-3,0.077
-6,-2,0.078
-1,-3,0.079
5,-2,0.08
6,0,0.081
0,1,0.082
0,-1,0.083
3,0,0.084
7,2,0.085
4,3,0.086
1,0,0.087
1,-1,0.088
1,2,0.089
0,2,0.09
5,0,0.091
12,-3,0.092
14,0,0.093
8,3,0.094
2,1,0.095
0,-3,0.096
-3,-7,0.097
-6,-8,0.098
-2,-6,0.099
4,-3,0.1
7,2,0.101
1,5,0.102
-2,2,0.103
-1,-2,0.104
1,-1,0.105
0,5,0.106
-2,7,0.107
0,1,0.108
2,-3,0.109
3,-1,0.11
4,3,0.111
5,5,0.112
7,6,0.113
3,3,0.114
-2,0,0.115
-6,-2,0.116
-6,-4,0.117
-5,-4,0.118
-3,-3,0.119
2,-2,0.12
7,0,0.121
7,4,0.122
3,4,0.123
4,1,0.124
7,0,0.125
6,2,0.126
2,5,0.127
0,1,0.128
3,-3,0.129
7,-5,0.13
6,-4,0.131
2,0,0.132
1,3,0.133
0,2,0.134
0,-2,0.135
-4,-6,0.136
-5,-9,0.137
-2,-8,0.138
3,-5,0.139
8,-2,0.14
8,-1,0.141
4,2,0.142
2,2,0.143
5,-2,0.144
10,-5,0.145
11,-4,0.146
6,0,0.147
3,0,0.148
4,-2,0.149
5,-3,0.15
3,-3,0.151
2,-4,0.152
5,-3,0.153
8,-4,0.154
5,-3,0.155
-2,-2,0.156
-6,-6,0.157
-6,-7,0.158
0,-6,0.159
5,-4,0.16
7,0,0.161
5,4,0.162
3,5,0.163
2,4,0.164
4,0,0.165
5,0,0.166
6,2,0.167
5,2,0.168
4,1,0.169
1,1,0.17
1,2,0.171
1,2,0.172
2,5,0.173
0,4,0.174
-1,2,0.175
-2,-1,0.176
-4,-5,0.177
-4,-3,0.178
0,0,0.179
7,0,0.18
7,0,0.181
1,2,0.182
-1,2,0.183
1,0,0.184
2,-1,0.185
0,-1,0.186
-3,0,0.187
0,3,0.188
3,3,0.189
2,1,0.19
1,1,0.191
2,0,0.192
3,0,0.193
1,-1,0.194
0,-2,0.195
-2,-2,0.196
-3,-6,0.197
-2,-8,0.198
4,-5,0.199
8,0,0.2
4,5,0.201
-2,4,0.202
-1,1,0.203
5,2,0.204
9,4,0.205
5,4,0.206
5,1,0.207
9,-1,0.208
12,-1,0.209
10,0,0.21
7,-1,0.211
3,-2,0.212
2,0,0.213
-1,-1,0.214
-2,-3,0.215
-3,-6,0.216
-4,-10,0.217
-4,-7,0.218
2,-2,0.219
9,2,0.22
11,1,0.221
6,1,0.222
3,3,0.223
4,3,0.224
6,0,0.225
5,0,0.226
3,4,0.227
2,6,0.228
0,1,0.229
-1,-4,0.23
1,-4,0.231
3,-3,0.232
5,0,0.233
4,-2,0.234
4,-1,0.235
2,-3,0.236
-1,-10,0.237
-4,-9,0.238
-2,-4,0.239
7,0,0.24
9,2,0.241
1,2,0.242
-3,4,0.243
0,4,0.244
5,0,0.245
5,-3,0.246
0,-1,0.247
-2,2,0.248
-1,0,0.249
2,-3,0.25
4,-2,0.251
5,0,0.252
4,0,0.253
2,-3,0.254
0,-4,0.255
-2,-2,0.256
-6,-2,0.257
-9,-1,0.258
-4,-2,0.259
7,-3,0.26
11,-2,0.261
5,-1,0.262
0,0,0.263
0,0,0.264
3,0,0.265
0,0,0.266
-2,-1,0.267
1,-1,0.268
4,1,0.269
3,3,0.27
1,1,0.271
3,0,0.272
5,1,0.273
2,2,0.274
-2,3,0.275
-4,2,0.276
-3,-2,0.277
-2,-4,0.278
3,-2,0.279
11,1,0.28
13,4,0.281
6,5,0.282
1,4,0.283
5,1,0.284
11,0,0.285
8,0,0.286
0,-1,0.287
-2,-2,0.288
0,-2,0.289
3,0,0.29
5,0,0.291
7,-1,0.292
10,-2,0.293
5,-3,0.294
-2,-1,0.295
-9,-2,0.296
-9,-6,0.297
-5,-6,0.298
-1,-4,0.299
3,-1,0.3
5,1,0.301
3,3,0.302
2,6,0.303
4,3,0.304
8,0,0.305
7,0,0.306
2,0,0.307
2,-1,0.308
7,-3,0.309
9,-3,0.31
6,0,0.311
2,0,0.312
2,0,0.313
2,-3,0.314
0,-4,0.315
-3,-6,0.316
-6,-9,0.317
-8,-6,0.318
-4,-1,0.319
3,2,0.32
8,1,0.321
5,0,0.322
0,0,0.323
2,-1,0.324
6,-1,0.325
5,0,0.326
1,0,0.327
0,0,0.328
0,1,0.329
-1,2,0.33
0,2,0.331
1,0,0.332
5,-1,0.333
4,-1,0.334
4,-2,0.335
4,-3,0.336
3,-6,0.337
2,-6,0.338
5,-5,0.339
11,-3,0.34
9,-1,0.341
2,0,0.342
-2,0,0.343
1,-1,0.344
3,-1,0.345
1,0,0.346
-2,1,0.347
1,1,0.348
4,1,0.349
1,0,0.35
-1,0,0.351
1,1,0.352
4,2,0.353
2,1,0.354
-1,0,0.355
-3,-3,0.356
-4,-6,0.357
-3,-8,0.358
2,-7,0.359
8,-3,0.36
10,1,0.361
7,3,0.362
7,2,0.363
8,-1,0.364
7,-2,0.365
2,0,0.366
1,3,0.367
2,2,0.368
2,0,0.369
3,-1,0.37
4,0,0.371
4,1,0.372
2,5,0.373
-3,4,0.374
-5,1,0.375
-5,-2,0.376
-6,-6,0.377
-7,-4,0.378
-2,-3,0.379
5,-1,0.38
8,1,0.381
3,5,0.382
1,5,0.383
3,0,0.384
6,-1,0.385
6,0,0.386
5,0,0.387
3,-1,0.388
2,-1,0.389
2,0,0.39
5,1,0.391
7,0,0.392
8,-1,0.393
7,-2,0.394
5,-4,0.395
-1,-3,0.396
-8,-3,0.397
-11,-2,0.398
-2,-3,0.399
7,-4,0.4
8,-1,0.401
1,3,0.402
-1,0,0.403
6,-3,0.404
9,-1,0.405
6,3,0.406
0,2,0.407
3,-2,0.408
7,-2,0.409
5,0,0.41
0,1,0.411
-2,1,0.412
1,3,0.413
3,3,0.414
2,1,0.415
-1,-1,0.416
-3,-5,0.417
-2,-4,0.418
1,-2,0.419
7,0,0.42
6,3,0.421
0,5,0.422
-4,5,0.423
1,3,0.424
6,2,0.425
3,1,0.426
0,0,0.427
4,0,0.428
10,0,0.429
12,0,0.43
9,-1,0.431
9,0,0.432
12,2,0.433
10,-2,0.434
4,-6,0.435
-2,-7,0.436
-3,-8,0.437
-4,-6,0.438
0,-2,0.439
9,0,0.44
14,1,0.441
8,0,0.442
0,0,0.443
-3,2,0.444
0,3,0.445
1,0,0.446
0,-1,0.447
0,-2,0.448
0,-2,0.449
-2,-1,0.45
-5,-1,0.451
-5,1,0.452
-1,5,0.453
2,2,0.454
3,-4,0.455
-1,-9,0.456
-3,-9,0.457
-3,-4,0.458
0,0,0.459
4,1,0.46
3,2,0.461
0,3,0.462
-2,2,0.463
-1,0,0.464
0,-1,0.465
0,0,0.466
-1,3,0.467
3,0,0.468
6,-4,0.469
6,-3,0.47
5,0,0.471
5,-1,0.472
6,-1,0.473
4,0,0.474
1,4,0.475
-4,2,0.476
-6,-5,0.477
-6,-7,0.478
0,-2,0.479
7,0,0.48
6,-1,0.481
0,-1,0.482
0,2,0.483
6,1,0.484
8,0,0.485
3,0,0.486
-1,1,0.487
0,-1,0.488
5,-3,0.489
6,-3,0.49
6,-1,0.491
9,0,0.492
11,1,0.493
7,0,0.494
2,-2,0.495
-2,-4,0.496
-5,-7,0.497
-5,-4,0.498
1,-2,0.499
10,-4,0.5
11,-3,0.501
5,2,0.502
1,2,0.503
3,-3,0.504
6,-6,0.505
4,0,0.506
4,5,0.507
5,3,0.508
4,-1,0.509
1,1,0.51
0,2,0.511
1,-1,0.512
3,-3,0.513
2,-1,0.514
0,3,0.515
-4,2,0.516
-7,-4,0.517
-8,-5,0.518
-4,-2,0.519
0,-1,0.52
2,0,0.521
0,5,0.522
-1,6,0.523
0,1,0.524
1,-4,0.525
5,-1,0.526
9,1,0.527
11,2,0.528
7,2,0.529
3,4,0.53
3,4,0.531
5,-1,0.532
6,-2,0.533
2,0,0.534
0,2,0.535
-4,-2,0.536
-5,-10,0.537
-4,-10,0.538
2,-6,0.539
7,-2,0.54
8,0,0.541
5,2,0.542
2,1,0.543
0,0,0.544
-1,0,0.545
-1,1,0.546
3,0,0.547
8,-2,0.548
7,-3,0.549
3,-1,0.55
1,2,0.551
1,1,0.552
1,1,0.553
1,0,0.554
2,-3,0.555
1,-6,0.556
-2,-8,0.557
-4,-3,0.558
-1,0,0.559
4,1,0.56
4,1,0.561
-1,2,0.562
-2,1,0.563
3,1,0.564
7,1,0.565
2,4,0.566
-3,3,0.567
0,0,0.568
7,0,0.569
12,0,0.57
8,-3,0.571
5,-6,0.572
7,-3,0.573
10,0,0.574
10,-1,0.575
2,-5,0.576
-3,-6,0.577
-4,-5,0.578
5,-4,0.579
11,-3,0.58
11,1,0.581
4,8,0.582
2,8,0.583
4,2,0.584
4,-1,0.585
3,1,0.586
3,1,0.587
6,-3,0.588
5,-3,0.589
1,1,0.59
-1,1,0.591
2,-3,0.592
6,-3,0.593
5,-2,0.594
3,-1,0.595
-2,-3,0.596
-9,-6,0.597
-13,-5,0.598
-7,-3,0.599
6,-1,0.6
13,2,0.601
9,5,0.602
5,5,0.603
5,1,0.604
4,1,0.605
1,4,0.606
1,3,0.607
2,-1,0.608
1,-1,0.609
-1,0,0.61
-1,0,0.611
2,-1,0.612
4,2,0.613
2,4,0.614
0,5,0.615
-2,1,0.616
-5,-6,0.617
-5,-9,0.618
1,-6,0.619
9,0,0.62
5,5,0.621
-3,4,0.622
-2,0,0.623
8,-3,0.624
12,-2,0.625
9,1,0.626
5,1,0.627
9,-1,0.628
10,-2,0.629
3,0,0.63
-1,-1,0.631
1,-4,0.632
4,-4,0.633
1,-4,0.634
-4,-3,0.635
-8,-3,0.636
-10,-5,0.637
-9,-4,0.638
-3,-3,0.639
5,-3,0.64
8,0,0.641
2,5,0.642
-1,7,0.643
4,2,0.644
9,-1,0.645
11,0,0.646
11,3,0.647
10,2,0.648
6,1,0.649
2,1,0.65
3,0,0.651
5,-3,0.652
4,-4,0.653
1,-2,0.654
1,-1,0.655
1,-4,0.656
-3,-8,0.657
-7,-7,0.658
-1,-2,0.659
9,2,0.66
8,5,0.661
0,5,0.662
-2,0,0.663
2,-5,0.664
5,-5,0.665
4,-2,0.666
3,0,0.667
3,-1,0.668
2,-1,0.669
0,-1,0.67
-1,-2,0.671
0,-3,0.672
0,-2,0.673
-1,-1,0.674
0,-2,0.675
-1,-3,0.676
-5,-4,0.677
-5,-1,0.678
1,2,0.679
10,3,0.68
10,3,0.681
4,2,0.682
0,0,0.683
2,-3,0.684
3,-4,0.685
4,-4,0.686
3,-2,0.687
5,0,0.688
8,2,0.689
6,3,0.69
6,1,0.691
5,0,0.692
7,1,0.693
3,1,0.694
0,2,0.695
-3,0,0.696
-4,-4,0.697
-4,-2,0.698
0,0,0.699
6,2,0.7
8,2,0.701
4,3,0.702
1,3,0.703
1,0,0.704
4,-4,0.705
4,-1,0.706
3,3,0.707
4,1,0.708
5,-6,0.709
2,-8,0.71
-2,-4,0.711
-3,0,0.712
0,1,0.713
1,0,0.714
0,0,0.715
-4,0,0.716
-5,-4,0.717
-3,-5,0.718
1,-3,0.719
5,-3,0.72
5,-2,0.721
1,-1,0.722
0,1,0.723
3,1,0.724
5,-1,0.725
6,-1,0.726
6,1,0.727
8,2,0.728
9,1,0.729
5,1,0.73
0,2,0.731
-3,0,0.732
1,-1,0.733
4,-1,0.734
2,-1,0.735
-3,-3,0.736
-10,-6,0.737
-10,-6,0.738
-3,-2,0.739
4,0,0.74
7,0,0.741
5,2,0.742
3,4,0.743
5,3,0.744
7,0,0.745
2,0,0.746
-1,2,0.747
1,1,0.748
5,-1,0.749
6,0,0.75
5,1,0.751
5,1,0.752
8,1,0.753
5,4,0.754
5,6,0.755
3,0,0.756
1,-9,0.757
1,-8,0.758
4,-4,0.759
8,0,0.76
6,0,0.761
2,5,0.762
3,6,0.763
8,1,0.764
9,-4,0.765
2,-3,0.766
0,0,0.767
3,-1,0.768
4,-4,0.769
1,-1,0.77
-1,2,0.771
1,0,0.772
5,-1,0.773
3,0,0.774
2,0,0.775
0,-4,0.776
-1,-9,0.777
-2,-7,0.778
3,-3,0.779
10,-2,0.78
11,-2,0.781
3,0,0.782
-2,1,0.783
-2,-1,0.784
0,0,0.785
0,2,0.786
-1,3,0.787
0,0,0.788
0,0,0.789
0,3,0.79
-2,4,0.791
-4,2,0.792
-3,2,0.793
-3,1,0.794
-1,1,0.795
-1,0,0.796
-5,-1,0.797
-10,0,0.798
-6,0,0.799
2,0,0.8
6,2,0.801
3,6,0.802
0,6,0.803
4,3,0.804
9,2,0.805
6,4,0.806
0,5,0.807
1,1,0.808
5,-1,0.809
5,2,0.81
1,3,0.811
4,0,0.812
8,-3,0.813
6,-6,0.814
1,-6,0.815
-3,-6,0.816
-4,-7,0.817
-5,-8,0.818
-1,-7,0.819
5,-6,0.82
8,-2,0.821
5,2,0.822
4,0,0.823
10,-5,0.824
14,-7,0.825
9,-5,0.826
5,-1,0.827
7,-1,0.828
11,-3,0.829
7,-4,0.83
4,-6,0.831
6,-6,0.832
9,-4,0.833
4,-2,0.834
0,-2,0.835
-3,-2,0.836
-6,-5,0.837
-8,-5,0.838
-3,-3,0.839
8,0,0.84
14,4,0.841
6,7,0.842
0,5,0.843
0,0,0.844
5,-1,0.845
1,3,0.846
-1,7,0.847
3,3,0.848
9,-2,0.849
6,-4,0.85
0,0,0.851
-2,3,0.852
0,4,0.853
-2,2,0.854
-2,2,0.855
-1,2,0.856
0,-4,0.857
-1,-7,0.858
-1,-6,0.859
6,-3,0.86
10,-1,0.861
6,-1,0.862
0,0,0.863
2,-1,0.864
5,-2,0.865
2,-2,0.866
-2,0,0.867
-2,1,0.868
1,0,0.869
1,0,0.87
-1,0,0.871
0,2,0.872
4,2,0.873
1,-1,0.874
-2,-4,0.875
-4,-3,0.876
-4,-5,0.877
-3,-4,0.878
0,-3,0.879
6,-2,0.88
8,-1,0.881
4,0,0.882
2,-2,0.883
5,-2,0.884
7,-1,0.885
6,0,0.886
9,0,0.887
13,0,0.888
11,1,0.889
3,4,0.89
-1,3,0.891
2,1,0.892
5,1,0.893
3,1,0.894
0,-1,0.895
-2,-5,0.896
-3,-9,0.897
-5,-5,0.898
-2,-1,0.899
1,0,0.9
5,-1,0.901
5,1,0.902
5,3,0.903
6,1,0.904
4,0,0.905
0,1,0.906
1,1,0.907
3,-1,0.908
1,0,0.909
-5,3,0.91
-4,4,0.911
2,0,0.912
9,-1,0.913
5,-2,0.914
1,-1,0.915
-4,-2,0.916
-6,-6,0.917
-7,-7,0.918
-2,-6,0.919
7,0,0.92
11,6,0.921
7,10,0.922
4,7,0.923
4,0,0.924
5,-3,0.925
3,-1,0.926
2,1,0.927
5,2,0.928
6,2,0.929
6,0,0.93
5,-2,0.931
3,-3,0.932
4,0,0.933
1,1,0.934
0,-3,0.935
-4,-8,0.936
-8,-11,0.937
-11,-7,0.938
-6,-4,0.939
1,-1,0.94
6,1,0.941
3,0,0.942
0,-2,0.943
4,-3,0.944
8,-3,0.945
9,-2,0.946
5,-2,0.947
2,-1,0.948
2,0,0.949
4,0,0.95
5,2,0.951
4,4,0.952
3,5,0.953
1,1,0.954
0,-1,0.955
-4,-2,0.956
-9,-5,0.957
-7,-6,0.958
3,-5,0.959
11,-2,0.96
9,1,0.961
2,4,0.962
3,4,0.963
10,3,0.964
12,1,0.965
5,0,0.966
1,0,0.967
3,2,0.968
4,2,0.969
2,0,0.97
0,-1,0.971
2,-1,0.972
3,0,0.973
0,-3,0.974
-4,-3,0.975
-6,-3,0.976
-6,-1,0.977
-5,-1,0.978
0,-2,0.979
7,-3,0.98
9,-1,0.981
5,3,0.982
1,4,0.983
3,1,0.984
4,0,0.985
4,1,0.986
3,4,0.987
7,1,0.988
11,-1,0.989
11,-2,0.99
8,0,0.991
7,0,0.992
8,-1,0.993
2,-2,0.994
-3,-3,0.995
-7,-6,0.996
-7,-8,0.997
-5,-6,0.998
0,0,0.999
7,1,1.0
11,1,1.001
4,6,1.002
0,9,1.003
0,5,1.004
3,-3,1.005
2,-4,1.006
-1,-1,1.007
-1,0,1.008
3,-2,1.009
3,-2,1.01
1,1,1.011
1,-1,1.012
4,-4,1.013
2,-6,1.014
0,-3,1.015
-2,-2,1.016
-4,-6,1.017
-7,-7,1.018
-4,-3,1.019
3,-1,1.02
7,0,1.021
1,3,1.022
-3,5,1.023
1,4,1.024
7,1,1.025
3,1,1.026
-1,-1,1.027
1,-3,1.028
6,-4,1.029
5,-1,1.03
2,1,1.031
1,-1,1.032
2,-1,1.033
0,1,1.034
-1,3,1.035
-1,1,1.036
0,-4,1.037
2,-4,1.038
6,-2,1.039
10,-2,1.04
8,0,1.041
2,3,1.042
0,2,1.043
5,0,1.044
8,0,1.045
6,4,1.046
5,4,1.047
5,-1,1.048
4,-1,1.049
1,2,1.05
0,3,1.051
4,1,1.052
6,0,1.053
2,-1,1.054
0,-2,1.055
-2,-5,1.056
-4,-8,1.057
-4,-7,1.058
3,-4,1.059
13,-2,1.06
12,1,1.061
1,4,1.062
-1,4,1.063
6,2,1.064
11,0,1.065
9,1,1.066
4,3,1.067
6,1,1.068
7,0,1.069
5,0,1.07
1,2,1.071
2,3,1.072
4,4,1.073
0,1,1.074
-2,-1,1.075
-5,-4,1.076
-7,-7,1.077
-7,-5,1.078
-3,-1,1.079
3,2,1.08
7,2,1.081
5,1,1.082
4,0,1.083
6,-1,1.084
6,-1,1.085
4,1,1.086
2,0,1.087
3,-1,1.088
4,-2,1.089
3,-1,1.09
2,0,1.091
2,-1,1.092
1,0,1.093
-1,-1,1.094
-3,-2,1.095
-6,-2,1.096
-7,-5,1.097
-5,-6,1.098
1,-6,1.099
6,-3,1.1
5,2,1.101
0,4,1.102
0,3,1.103
5,2,1.104
8,1,1.105
6,3,1.106
3,2,1.107
2,0,1.108
2,1,1.109
2,3,1.11
3,5,1.111
5,2,1.112
5,0,1.113
1,-2,1.114
-1,-3,1.115
-3,-3,1.116
-7,-5,1.117
-10,-4,1.118
-3,-4,1.119
8,-3,1.12
11,-1,1.121
5,2,1.122
2,1,1.123
6,0,1.124
8,-1,1.125
3,0,1.126
1,2,1.127
6,0,1.128
9,-1,1.129
8,-2,1.13
7,-3,1.131
10,-2,1.132
12,1,1.133
4,2,1.134
-1,0,1.135
-2,-4,1.136
0,-8,1.137
0,-5,1.138
1,0,1.139
4,1,1.14
6,1,1.141
1,0,1.142
-2,0,1.143
0,0,1.144
3,0,1.145
1,1,1.146
-2,2,1.147
-1,1,1.148
-1,0,1.149
-1,0,1.15
1,1,1.151
5,1,1.152
7,3,1.153
2,1,1.154
-2,-1,1.155
-3,-4,1.156
-5,-7,1.157
-9,-5,1.158
-6,-4,1.159
3,-1,1.16
7,2,1.161
3,4,1.162
-1,2,1.163
0,-3,1.164
5,-4,1.165
6,0,1.166
3,3,1.167
4,3,1.168
8,1,1.169
10,0,1.17
10,3,1.171
9,3,1.172
9,3,1.173
8,-1,1.174
4,-1,1.175
-1,0,1.176
-5,-3,1.177
-5,-5,1.178
-3,-7,1.179
0,-5,1.18
1,0,1.181
-2,2,1.182
-1,2,1.183
3,1,1.184
7,1,1.185
4,0,1.186
2,-2,1.187
3,-3,1.188
6,-1,1.189
2,2,1.19
0,1,1.191
2,0,1.192
7,2,1.193
3,3,1.194
-2,0,1.195
-4,-5,1.196
-3,-9,1.197
-2,-7,1.198
1,-2,1.199
6,0,1.2
8,2,1.201
3,4,1.202
-1,4,1.203
0,2,1.204
3,2,1.205
1,1,1.206
0,0,1.207
4,-2,1.208
6,-1,1.209
4,2,1.21
3,3,1.211
5,0,1.212
7,-1,1.213
2,-1,1.214
0,-1,1.215
-2,-4,1.216
-6,-7,1.217
-9,-4,1.218
-3,1,1.219
9,2,1.22
10,-2,1.221
1,-2,1.222
-3,0,1.223
1,0,1.224
5,-1,1.225
0,-2,1.226
-2,-1,1.227
0,-1,1.228
4,-3,1.229
3,-3,1.23
3,-2,1.231
5,0,1.232
5,5,1.233
2,6,1.234
1,3,1.235
1,-4,1.236
0,-9,1.237
0,-7,1.238
5,-1,1.239
13,1,1.24
12,2,1.241
4,4,1.242
1,4,1.243
4,0,1.244
4,-4,1.245
1,-2,1.246
3,0,1.247
8,0,1.248
8,-2,1.249
2,-1,1.25
0,1,1.251
5,0,1.252
9,0,1.253
7,0,1.254
4,1,1.255
0,0,1.256
-1,-5,1.257
-3,-6,1.258
0,-2,1.259
7,1,1.26
10,3,1.261
5,2,1.262
1,0,1.263
3,0,1.264
6,-1,1.265
3,1,1.266
-1,1,1.267
-1,-1,1.268
3,-4,1.269
4,-3,1.27
0,-2,1.271
-2,0,1.272
0,0,1.273
1,-2,1.274
0,-4,1.275
-4,-3,1.276
-7,-4,1.277
-8,-5,1.278
-4,-4,1.279
2,-1,1.28
6,4,1.281
4,8,1.282
1,4,1.283
3,-1,1.284
7,-5,1.285
6,-5,1.286
2,-2,1.287
-2,0,1.288
-3,1,1.289
-2,1,1.29
0,0,1.291
5,-1,1.292
8,-1,1.293
6,-3,1.294
4,-3,1.295
1,-3,1.296
-2,-5,1.297
-1,-6,1.298
4,-5,1.299
12,-2,1.3
12,2,1.301
8,5,1.302
3,2,1.303
4,-3,1.304
4,-4,1.305
1,-1,1.306
1,3,1.307
3,3,1.308
4,1,1.309
1,1,1.31
-1,3,1.311
0,3,1.312
3,3,1.313
2,2,1.314
1,1,1.315
-1,-2,1.316
-4,-7,1.317
-3,-4,1.318
1,-1,1.319
7,1,1.32
6,0,1.321
1,0,1.322
1,0,1.323
3,1,1.324
2,0,1.325
-1,0,1.326
0,2,1.327
2,2,1.328
1,-1,1.329
-1,-3,1.33
1,-1,1.331
5,1,1.332
4,3,1.333
-2,1,1.334
-4,1,1.335
-4,0,1.336
-4,-6,1.337
-3,-9,1.338
3,-8,1.339
13,-3,1.34
13,2,1.341
5,4,1.342
1,3,1.343
4,0,1.344
8,-2,1.345
6,-1,1.346
4,2,1.347
1,0,1.348
0,-2,1.349
-2,-2,1.35
-3,4,1.351
-3,6,1.352
-3,3,1.353
-5,-2,1.354
-4,-3,1.355
-4,-3,1.356
-5,-5,1.357
-4,-6,1.358
3,-2,1.359
12,4,1.36
9,4,1.361
1,2,1.362
-2,-1,1.363
1,-1,1.364
4,0,1.365
0,1,1.366
-4,1,1.367
-2,-2,1.368
2,-5,1.369
4,-3,1.37
3,0,1.371
3,3,1.372
7,3,1.373
10,-1,1.374
12,-2,1.375
7,-3,1.376
0,-7,1.377
-2,-7,1.378
3,-4,1.379
10,0,1.38
11,4,1.381
5,6,1.382
1,4,1.383
5,0,1.384
9,-3,1.385
8,-1,1.386
4,1,1.387
3,-1,1.388
2,-4,1.389
1,-4,1.39
1,0,1.391
1,0,1.392
5,0,1.393
5,-1,1.394
1,-1,1.395
-5,-2,1.396
-9,-7,1.397
-10,-6,1.398
-7,-2,1.399
-5,0,1.4
-18,0,1.401
-45,-3,1.402
-68,-4,1.403
-66,-3,1.404
-37,-1,1.405
-8,0,1.406
10,-2,1.407
31,-6,1.408
71,-4,1.409
112,4,1.41
120,12,1.411
86,13,1.412
43,10,1.413
14,2,1.414
4,-4,1.415
0,-4,1.416
-4,-6,1.417
-6,-6,1.418
-6,-6,1.419
-4,-5,1.42
0,1,1.421
0,4,1.422
-3,1,1.423
-6,-1,1.424
-8,3,1.425
-11,8,1.426
-17,6,1.427
-22,-2,1.428
-23,-3,1.429
-23,1,1.43
-22,3,1.431
-18,1,1.432
-10,2,1.433
-3,3,1.434
-3,-2,1.435
-8,-11,1.436
-14,-17,1.437
-10,-13,1.438
12,-8,1.439
37,-2,1.44
36,4,1.441
7,7,1.442
-12,3,1.443
9,-3,1.444
44,-3,1.445
44,0,1.446
12,2,1.447
-17,-1,1.448
-32,-3,1.449
-67,-1,1.45
-116,0,1.451
-120,2,1.452
-59,8,1.453
6,11,1.454
6,10,1.455
-45,4,1.456
-67,-2,1.457
-33,-3,1.458
12,-5,1.459
32,-8,1.46
39,-11,1.461
68,-11,1.462
129,-11,1.463
190,-14,1.464
195,-14,1.465
138,-5,1.466
71,10,1.467
36,19,1.468
-3,19,1.469
-99,14,1.47
-226,12,1.471
-297,16,1.472
-278,20,1.473
-205,18,1.474
-103,10,1.475
34,0,1.476
193,-11,1.477
316,-12,1.478
366,-4,1.479
362,9,1.48
313,23,1.481
197,30,1.482
24,19,1.483
-137,-6,1.484
-231,-29,1.485
-281,-38,1.486
-354,-35,1.487
-460,-32,1.488
-496,-30,1.489
-347,-17,1.49
-32,8,1.491
253,32,1.492
334,38,1.493
237,23,1.494
149,1,1.495
189,-15,1.496
270,-29,1.497
270,-35,1.498
228,-31,1.499
260,-17,1.5
363,-6,1.501
399,0,1.502
278,11,1.503
53,28,1.504
-181,41,1.505
-377,35,1.506
-518,14,1.507
-586,-6,1.508
-568,-13,1.509
-438,-15,1.51
-184,-14,1.511
112,-13,1.512
295,-7,1.513
322,-7,1.514
292,-15,1.515
294,-22,1.516
280,-17,1.517
181,7,1.518
66,32,1.519
39,35,1.52
69,23,1.521
33,9,1.522
-129,0,1.523
-390,-14,1.524
-665,-37,1.525
-821,-57,1.526
-738,-58,1.527
-448,-41,1.528
-106,-18,1.529
212,0,1.53
553,11,1.531
855,18,1.532
923,30,1.533
677,48,1.534
336,64,1.535
138,54,1.536
40,19,1.537
-102,-8,1.538
-217,-9,1.539
-151,2,1.54
-6,6,1.541
-30,3,1.542
-238,4,1.543
-421,0,1.544
-474,-14,1.545
-447,-30,1.546
-313,-32,1.547
14,-20,1.548
425,-4,1.549
646,8,1.55
593,15,1.551
448,8,1.552
347,-4,1.553
203,-8,1.554
-26,8,1.555
-197,29,1.556
-180,30,1.557
-65,22,1.558
-16,24,1.559
-63,32,1.56
-153,28,1.561
-239,2,1.562
-258,-21,1.563
-153,-22,1.564
11,-9,1.565
95,-3,1.566
68,-6,1.567
6,-8,1.568
-48,-6,1.569
-108,-12,1.57
-135,-20,1.571
-81,-22,1.572
-8,-15,1.573
-5,-11,1.574
-64,-12,1.575
-99,-10,1.576
-79,-9,1.577
-50,-10,1.578
-31,-12,1.579
-13,-10,1.58
-3,-2,1.581
-23,2,1.582
-47,0,1.583
-44,-2,1.584
-21,-2,1.585
11,-1,1.586
47,-1,1.587
67,-5,1.588
48,-6,1.589
23,-4,1.59
48,1,1.591
104,10,1.592
102,17,1.593
11,17,1.594
-61,8,1.595
-29,-2,1.596
51,-5,1.597
66,-1,1.598
13,3,1.599
-20,2,1.6
-16,0,1.601
-29,2,1.602
-80,6,1.603
-134,6,1.604
-167,3,1.605
-155,-1,1.606
-59,-3,1.607
111,-4,1.608
253,-3,1.609
297,-1,1.61
286,1,1.611
283,4,1.612
250,12,1.613
138,12,1.614
20,5,1.615
-14,-7,1.616
1,-14,1.617
-25,-9,1.618
-73,0,1.619
-68,2,1.62
-33,0,1.621
-39,-1,1.622
-69,-2,1.623
-65,-5,1.624
-41,-5,1.625
-49,-1,1.626
-74,0,1.627
-68,-2,1.628
-46,-3,1.629
-50,0,1.63
-61,4,1.631
-40,2,1.632
-5,2,1.633
11,1,1.634
15,1,1.635
22,-2,1.636
24,-9,1.637
7,-10,1.638
-3,-6,1.639
16,-1,1.64
34,2,1.641
21,2,1.642
0,1,1.643
-2,0,1.644
4,0,1.645
0,0,1.646
-2,-2,1.647
9,-2,1.648
18,0,1.649
6,0,1.65
-9,1,1.651
-7,0,1.652
3,0,1.653
3,-2,1.654
-2,-4,1.655
-5,-4,1.656
-5,-8,1.657
-8,-9,1.658
-5,-9,1.659
5,-4,1.66
9,3,1.661
2,5,1.662
-4,1,1.663
-7,-1,1.664
-18,0,1.665
-34,2,1.666
-43,0,1.667
-47,-3,1.668
-65,-5,1.669
-87,-3,1.67
-76,0,1.671
-12,4,1.672
63,4,1.673
108,0,1.674
120,-5,1.675
120,-8,1.676
117,-10,1.677
107,-7,1.678
92,0,1.679
86,7,1.68
73,9,1.681
42,6,1.682
6,2,1.683
-15,0,1.684
-28,2,1.685
-36,3,1.686
-36,2,1.687
-27,0,1.688
-27,-1,1.689
-38,2,1.69
-40,5,1.691
-28,5,1.692
-20,3,1.693
-26,-1,1.694
-30,-3,1.695
-24,-1,1.696
-22,-4,1.697
-26,-6,1.698
-24,-8,1.699
-9,-6,1.7
0,-2,1.701
-3,1,1.702
-7,1,1.703
-2,-1,1.704
0,-1,1.705
-4,-1,1.706
-3,-2,1.707
5,-2,1.708
8,-1,1.709
2,0,1.71
2,1,1.711
9,0,1.712
11,0,1.713
4,0,1.714
0,2,1.715
0,2,1.716
0,-3,1.717
0,-8,1.718
4,-7,1.719
10,-1,1.72
8,7,1.721
0,7,1.722
1,2,1.723
9,-1,1.724
13,0,1.725
7,2,1.726
4,0,1.727
7,-4,1.728
9,-4,1.729
2,-2,1.73
-8,-1,1.731
-23,-1,1.732
-38,-1,1.733
-48,-4,1.734
-36,-5,1.735
-6,-6,1.736
29,-7,1.737
61,-6,1.738
91,-3,1.739
99,0,1.74
64,2,1.741
7,3,1.742
-22,1,1.743
-9,-1,1.744
8,-1,1.745
4,1,1.746
-4,4,1.747
3,2,1.748
13,0,1.749
5,0,1.75
-5,2,1.751
-4,2,1.752
0,0,1.753
-5,-1,1.754
-13,0,1.755
-14,-1,1.756
-13,-8,1.757
-16,-11,1.758
-20,-8,1.759
-26,-2,1.76
-42,0,1.761
-68,0,1.762
-88,-2,1.763
-98,-4,1.764
-101,-5,1.765
-88,-3,1.766
-34,1,1.767
46,1,1.768
105,-3,1.769
130,-8,1.77
173,-9,1.771
246,-4,1.772
252,6,1.773
82,16,1.774
-197,21,1.775
-389,15,1.776
-370,-2,1.777
-214,-8,1.778
-42,-2,1.779
119,3,1.78
291,2,1.781
421,1,1.782
420,7,1.783
281,13,1.784
91,8,1.785
-39,0,1.786
-43,0,1.787
33,8,1.788
55,15,1.789
-39,15,1.79
-153,5,1.791
-171,-10,1.792
-139,-19,1.793
-166,-21,1.794
-230,-17,1.795
-204,-17,1.796
-69,-27,1.797
56,-21,1.798
117,0,1.799
155,20,1.8
187,24,1.801
171,16,1.802
118,9,1.803
83,4,1.804
58,1,1.805
-2,0,1.806
-72,-1,1.807
-87,0,1.808
-62,0,1.809
-64,-4,1.81
-91,-8,1.811
-94,-10,1.812
-70,-11,1.813
-55,-17,1.814
-53,-21,1.815
-45,-17,1.816
-40,-9,1.817
-58,-2,1.818
-82,-3,1.819
-95,-10,1.82
-126,-12,1.821
-199,-9,1.822
-251,-9,1.823
-186,-13,1.824
-14,-10,1.825
135,2,1.826
172,12,1.827
164,8,1.828
237,1,1.829
367,11,1.83
398,28,1.831
264,34,1.832
105,29,1.833
19,21,1.834
-51,21,1.835
-222,20,1.836
-402,8,1.837
-378,-4,1.838
-127,-8,1.839
137,-5,1.84
264,-1,1.841
306,0,1.842
326,0,1.843
273,-3,1.844
131,-2,1.845
12,2,1.846
-13,6,1.847
-23,3,1.848
-106,0,1.849
-211,-2,1.85
-253,-5,1.851
-248,-9,1.852
-246,-11,1.853
-228,-11,1.854
-144,-11,1.855
-13,-11,1.856
123,-11,1.857
277,-2,1.858
460,5,1.859
576,4,1.86
492,0,1.861
206,-3,1.862
-113,2,1.863
-291,10,1.864
-287,15,1.865
-191,15,1.866
-109,9,1.867
-85,6,1.868
-110,6,1.869
-173,10,1.87
-249,13,1.871
-263,10,1.872
-164,3,1.873
0,-9,1.874
76,-15,1.875
1,-14,1.876
-90,-17,1.877
-71,-24,1.878
19,-26,1.879
74,-24,1.88
95,-22,1.881
125,-22,1.882
122,-18,1.883
36,-2,1.884
-56,18,1.885
-55,30,1.886
-8,25,1.887
-26,8,1.888
-80,-3,1.889
-52,-5,1.89
43,1,1.891
72,4,1.892
8,2,1.893
-71,-4,1.894
-80,-6,1.895
-29,-6,1.896
66,-9,1.897
181,-8,1.898
251,0,1.899
219,8,1.9
133,13,1.901
72,11,1.902
46,6,1.903
12,-1,1.904
-24,-6,1.905
-27,-4,1.906
-15,0,1.907
-23,1,1.908
-38,-1,1.909
-30,-2,1.91
-17,0,1.911
-33,2,1.912
-54,2,1.913
-48,0,1.914
-26,0,1.915
-25,-1,1.916
-31,-5,1.917
-19,-5,1.918
6,-4,1.919
17,-2,1.92
14,-2,1.921
21,0,1.922
32,0,1.923
31,0,1.924
21,-1,1.925
16,0,1.926
10,4,1.927
-1,4,1.928
-12,3,1.929
-18,4,1.93
-30,10,1.931
-58,13,1.932
-81,14,1.933
-89,13,1.934
-86,20,1.935
-85,29,1.936
-77,33,1.937
-52,32,1.938
-15,32,1.939
16,37,1.94
29,44,1.941
34,44,1.942
43,34,1.943
62,20,1.944
83,4,1.945
96,-13,1.946
100,-28,1.947
104,-29,1.948
109,-16,1.949
102,1,1.95
68,17,1.951
7,36,1.952
-64,56,1.953
-160,64,1.954
-271,52,1.955
-353,27,1.956
-349,10,1.957
-269,17,1.958
-177,29,1.959
-99,19,1.96
-13,-12,1.961
67,-39,1.962
83,-43,1.963
12,-34,1.964
-104,-31,1.965
-245,-52,1.966
-391,-86,1.967
-422,-113,1.968
-207,-122,1.969
147,-125,1.97
372,-134,1.971
424,-135,1.972
540,-114,1.973
819,-83,1.974
933,-83,1.975
607,-115,1.976
164,-138,1.977
128,-110,1.978
436,-39,1.979
544,57,1.98
278,190,1.981
49,349,1.982
100,483,1.983
86,571,1.984
-284,652,1.985
-644,748,1.986
-446,773,1.987
204,572,1.988
661,91,1.989
580,-534,1.99
213,-1031,1.991
-82,-1189,1.992
-245,-1051,1.993
-399,-818,1.994
-620,-660,1.995
-952,-545,1.996
-1306,-382,1.997
-1363,-223,1.998
-866,-181,1.999
-32,-217,2.0
633,-191,2.001
908,-108,2.002
920,-90,2.003
757,-129,2.004
387,-70,2.005
-45,110,2.006
-276,252,2.007
-245,264,2.008
-105,250,2.009
30,309,2.01
141,393,2.011
221,424,2.012
315,426,2.013
475,434,2.014
519,437,2.015
177,410,2.016
-412,345,2.017
-707,245,2.018
-446,114,2.019
55,24,2.02
439,54,2.021
698,181,2.022
842,333,2.023
657,504,2.024
98,711,2.025
-479,870,2.026
-762,851,2.027
-835,634,2.028
-848,283,2.029
-687,-169,2.03
-259,-674,2.031
183,-1083,2.032
334,-1237,2.033
191,-1157,2.034
-48,-967,2.035
-308,-751,2.036
-611,-527,2.037
-914,-335,2.038
-1181,-225,2.039
-1480,-173,2.04
-1752,-115,2.041
-1661,-42,2.042
-984,28,2.043
0,114,2.044
845,219,2.045
1521,294,2.046
2230,304,2.047
2775,281,2.048
2708,262,2.049
2081,254,2.05
1462,263,2.051
1086,289,2.052
668,294,2.053
-1,225,2.054
-532,109,2.055
-642,24,2.056
-618,-11,2.057
-756,-27,2.058
-845,-35,2.059
-616,-6,2.06
-264,58,2.061
-90,110,2.062
-31,124,2.063
77,111,2.064
123,93,2.065
-46,85,2.066
-308,89,2.067
-480,96,2.068
-620,79,2.069
-801,78,2.07
-859,212,2.071
-611,516,2.072
-181,786,2.073
237,743,2.074
453,314,2.075
376,-212,2.076
50,-487,2.077
-277,-442,2.078
-343,-237,2.079
-213,18,2.08
-174,256,2.081
-267,334,2.082
-245,164,2.083
-41,-110,2.084
128,-316,2.085
163,-540,2.086
228,-950,2.087
400,-1425,2.088
545,-1638,2.089
574,-1480,2.09
511,-1137,2.091
308,-778,2.092
-43,-457,2.093
-392,-170,2.094
-457,34,2.095
-280,234,2.096
-143,578,2.097
-90,1047,2.098
69,1424,2.099
315,1527,2.1
379,1325,2.101
195,863,2.102
17,256,2.103
10,-297,2.104
39,-636,2.105
-62,-770,2.106
-253,-768,2.107
-406,-613,2.108
-454,-301,2.109
-399,32,2.11
-354,246,2.111
-536,342,2.112
-932,370,2.113
-1218,323,2.114
-938,223,2.115
-96,176,2.116
879,184,2.117
1698,75,2.118
2327,-253,2.119
2580,-631,2.12
2132,-830,2.121
1089,-836,2.122
95,-751,2.123
-375,-588,2.124
-471,-317,2.125
-525,-43,2.126
-558,80,2.127
-464,65,2.128
-362,76,2.129
-459,176,2.13
-717,235,2.131
-916,159,2.132
-961,64,2.133
-883,120,2.134
-692,304,2.135
-416,467,2.136
116,564,2.137
603,644,2.138
957,674,2.139
1209,677,2.14
1147,594,2.141
915,512,2.142
169,435,2.143
-459,337,2.144
-735,179,2.145
-830,58,2.146
-380,48,2.147
0,31,2.148
173,-3,2.149
313,-31,2.15
355,-37,2.151
331,-39,2.152
108,-21,2.153
-133,2,2.154
-460,44,2.155
-743,68,2.156
-701,73,2.157
-293,122,2.158
102,214,2.159
212,217,2.16
217,17,2.161
336,-292,2.162
437,-496,2.163
326,-502,2.164
60,-412,2.165
-281,-328,2.166
-721,-227,2.167
-1091,-89,2.168
-1018,-22,2.169
-465,-102,2.17
142,-231,2.171
473,-255,2.172
629,-201,2.173
734,-188,2.174
699,-200,2.175
626,-162,2.176
438,26,2.177
313,190,2.178
379,279,2.179
371,344,2.18
140,334,2.181
-73,303,2.182
-230,213,2.183
-365,163,2.184
-437,237,2.185
-468,250,2.186
-377,75,2.187
-304,-128,2.188
-289,-414,2.189
-253,-679,2.19
-156,-875,2.191
-99,-943,2.192
-166,-629,2.193
-230,-290,2.194
-176,33,2.195
30,115,2.196
137,-60,2.197
33,-350,2.198
-98,-506,2.199
-95,-387,2.2
-34,-123,2.201
-17,95,2.202
9,270,2.203
91,458,2.204
124,534,2.205
8,368,2.206
-210,115,2.207
-442,22,2.208
-653,67,2.209
-771,72,2.21
-651,44,2.211
-236,97,2.212
289,173,2.213
785,145,2.214
1137,90,2.215
1313,159,2.216
1287,268,2.217
1041,250,2.218
658,178,2.219
267,242,2.22
-68,351,2.221
-356,268,2.222
-560,43,2.223
-562,-56,2.224
-279,2,2.225
192,5,2.226
580,-90,2.227
660,-121,2.228
493,-55,2.229
342,-47,2.23
313,-130,2.231
223,-154,2.232
-29,-56,2.233
-284,104,2.234
-275,335,2.235
-90,735,2.236
-46,1216,2.237
-200,1415,2.238
-299,1042,2.239
-242,214,2.24
-208,-655,2.241
-304,-1251,2.242
-393,-1516,2.243
-374,-1514,2.244
-340,-1282,2.245
-367,-859,2.246
-373,-378,2.247
-309,-7,2.248
-261,192,2.249
-273,287,2.25
-257,360,2.251
-160,412,2.252
-60,400,2.253
-13,321,2.254
16,240,2.255
36,185,2.256
-39,105,2.257
-289,-40,2.258
-648,-207,2.259
-940,-333,2.26
-1007,-420,2.261
-808,-494,2.262
-431,-502,2.263
34,-374,2.264
620,-151,2.265
1333,32,2.266
1891,121,2.267
1855,164,2.268
1176,206,2.269
348,234,2.27
-169,222,2.271
-411,193,2.272
-574,179,2.273
-532,209,2.274
-2,291,2.275
843,371,2.276
1389,359,2.277
1293,262,2.278
836,165,2.279
460,114,2.28
251,70,2.281
16,55,2.282
-329,149,2.283
-652,303,2.284
-790,334,2.285
-735,194,2.286
-624,48,2.287
-571,-11,2.288
-545,-102,2.289
-441,-266,2.29
-245,-336,2.291
-43,-233,2.292
95,-145,2.293
164,-229,2.294
143,-384,2.295
18,-451,2.296
-134,-463,2.297
-200,-480,2.298
-156,-423,2.299
-64,-238,2.3
31,-56,2.301
132,16,2.302
199,82,2.303
163,252,2.304
32,456,2.305
-94,563,2.306
-140,570,2.307
-131,519,2.308
-119,384,2.309
-114,170,2.31
-110,-18,2.311
-117,-102,2.312
-140,-146,2.313
-171,-237,2.314
-187,-331,2.315
-188,-347,2.316
-175,-309,2.317
-145,-285,2.318
-114,-261,2.319
-98,-167,2.32
-83,-16,2.321
-26,108,2.322
68,181,2.323
149,252,2.324
183,308,2.325
192,260,2.326
196,93,2.327
204,-76,2.328
210,-162,2.329
149,-208,2.33
-77,-252,2.331
-434,-232,2.332
-682,-117,2.333
-666,18,2.334
-462,74,2.335
-241,66,2.336
59,74,2.337
553,118,2.338
1010,157,2.339
1057,166,2.34
749,140,2.341
504,69,2.342
499,-17,2.343
581,-54,2.344
704,-34,2.345
912,-13,2.346
963,-9,2.347
551,17,2.348
-52,73,2.349
-269,104,2.35
-88,99,2.351
-37,93,2.352
-265,89,2.353
-448,40,2.354
-422,-33,2.355
-476,-46,2.356
-715,28,2.357
-813,118,2.358
-616,124,2.359
-403,34,2.36
-333,-88,2.361
-223,-172,2.362
-17,-187,2.363
49,-141,2.364
-74,-64,2.365
-135,0,2.366
-51,29,2.367
-49,25,2.368
-204,-5,2.369
-281,-69,2.37
-148,-175,2.371
37,-284,2.372
137,-325,2.373
183,-272,2.374
215,-161,2.375
148,-42,2.376
13,68,2.377
-19,156,2.378
87,187,2.379
134,171,2.38
14,170,2.381
-117,204,2.382
-104,222,2.383
-30,183,2.384
-34,127,2.385
-80,86,2.386
-55,38,2.387
30,-32,2.388
77,-76,2.389
43,-57,2.39
-35,-13,2.391
-109,1,2.392
-138,-4,2.393
-104,-8,2.394
-72,-8,2.395
-87,-13,2.396
-94,-20,2.397
-2,-21,2.398
157,-40,2.399
252,-78,2.4
235,-101,2.401
198,-86,2.402
217,-55,2.403
232,-27,2.404
169,5,2.405
67,40,2.406
0,58,2.407
-28,52,2.408
-61,43,2.409
-83,45,2.41
-62,41,2.411
-30,26,2.412
-44,17,2.413
-104,23,2.414
-131,26,2.415
-71,18,2.416
47,14,2.417
153,29,2.418
190,39,2.419
158,28,2.42
107,8,2.421
87,-5,2.422
89,-23,2.423
87,-53,2.424
101,-71,2.425
186,-64,2.426
315,-49,2.427
360,-55,2.428
234,-71,2.429
27,-67,2.43
-81,-41,2.431
-32,-19,2.432
48,-11,2.433
23,-6,2.434
-99,5,2.435
-205,13,2.436
-231,8,2.437
-223,2,2.438
-228,7,2.439
-233,16,2.44
-210,25,2.441
-183,31,2.442
-172,36,2.443
-154,35,2.444
-109,27,2.445
-66,16,2.446
-56,7,2.447
-56,2,2.448
-39,1,2.449
-13,-1,2.45
3,-7,2.451
15,-10,2.452
30,4,2.453
29,39,2.454
8,74,2.455
-15,81,2.456
-19,57,2.457
-16,27,2.458
-8,3,2.459
9,-24,2.46
25,-50,2.461
14,-53,2.462
-18,-34,2.463
-18,-26,2.464
30,-48,2.465
93,-73,2.466
132,-73,2.467
160,-69,2.468
183,-88,2.469
172,-102,2.47
108,-72,2.471
37,-21,2.472
15,3,2.473
33,-5,2.474
47,-2,2.475
27,23,2.476
-4,41,2.477
-20,43,2.478
-26,47,2.479
-31,60,2.48
-37,61,2.481
-36,40,2.482
-18,15,2.483
14,-1,2.484
41,-7,2.485
42,0,2.486
18,19,2.487
-5,35,2.488
-8,30,2.489
2,12,2.49
4,5,2.491
-7,13,2.492
-18,21,2.493
-25,14,2.494
-25,5,2.495
-26,5,2.496
-27,10,2.497
-21,16,2.498
-6,17,2.499
11,8,2.5
12,-5,2.501
0,-15,2.502
-10,-11,2.503
-10,-2,2.504
-8,5,2.505
-15,8,2.506
-25,6,2.507
-30,5,2.508
-33,7,2.509
-42,14,2.51
-49,25,2.511
-37,26,2.512
-13,12,2.513
-2,-1,2.514
-7,-1,2.515
-5,2,2.516
20,-23,2.517
52,-72,2.518
102,-105,2.519
134,-90,2.52
111,-43,2.521
85,-13,2.522
54,-16,2.523
30,-27,2.524
31,-20,2.525
30,-3,2.526
18,5,2.527
4,0,2.528
-9,0,2.529
-20,9,2.53
-22,18,2.531
-24,18,2.532
-23,13,2.533
-22,11,2.534
-27,13,2.535
-36,14,2.536
-39,10,2.537
-33,7,2.538
-21,6,2.539
-14,8,2.54
-14,13,2.541
-16,16,2.542
-16,14,2.543
-9,9,2.544
-1,6,2.545
3,7,2.546
5,7,2.547
9,4,2.548
11,0,2.549
7,-5,2.55
4,-11,2.551
4,-12,2.552
8,-6,2.553
6,0,2.554
-1,-1,2.555
-10,-7,2.556
-12,-8,2.557
-10,0,2.558
-7,6,2.559
-4,9,2.56
-1,18,2.561
1,33,2.562
3,46,2.563
6,49,2.564
5,38,2.565
2,15,2.566
0,-17,2.567
3,-46,2.568
9,-61,2.569
9,-52,2.57
10,-19,2.571
14,32,2.572
17,78,2.573
15,102,2.574
15,113,2.575
20,130,2.576
24,151,2.577
21,155,2.578
13,132,2.579
2,96,2.58
-9,66,2.581
-22,60,2.582
-26,110,2.583
-21,214,2.584
-12,287,2.585
-6,223,2.586
-7,45,2.587
-8,-126,2.588
-8,-261,2.589
-8,-456,2.59
-10,-710,2.591
-11,-842,2.592
-8,-751,2.593
1,-528,2.594
16,-325,2.595
27,-149,2.596
23,-59,2.597
21,-26,2.598
26,-162,2.599
29,-257,2.6
25,-227,2.601
23,-171,2.602
27,-39,2.603
29,101,2.604
26,265,2.605
20,383,2.606
10,361,2.607
3,347,2.608
6,357,2.609
8,342,2.61
5,249,2.611
2,169,2.612
-3,128,2.613
-10,96,2.614
-13,86,2.615
-10,71,2.616
-7,78,2.617
-5,93,2.618
-1,83,2.619
2,65,2.62
0,66,2.621
-9,69,2.622
-14,54,2.623
-13,36,2.624
-11,39,2.625
-15,44,2.626
-17,31,2.627
-18,14,2.628
-19,12,2.629
-19,10,2.63
-14,-2,2.631
-8,-13,2.632
0,-14,2.633
12,-18,2.634
25,-27,2.635
32,-29,2.636
14,-27,2.637
-12,-27,2.638
-64,-34,2.639
-111,-36,2.64
-143,-28,2.641
-145,-23,2.642
-54,-28,2.643
30,-34,2.644
92,-35,2.645
134,-37,2.646
112,-42,2.647
92,-46,2.648
76,-42,2.649
56,-30,2.65
22,-11,2.651
-15,7,2.652
-66,19,2.653
-110,12,2.654
-107,-3,2.655
-60,-12,2.656
-14,-14,2.657
-3,-13,2.658
-10,-17,2.659
5,-22,2.66
45,-20,2.661
76,-14,2.662
77,-9,2.663
69,-10,2.664
72,-11,2.665
80,-8,2.666
72,-4,2.667
52,-4,2.668
35,-5,2.669
25,-9,2.67
11,-12,2.671
-14,-12,2.672
-35,-10,2.673
-41,-6,2.674
-34,-5,2.675
-28,-5,2.676
-27,-8,2.677
-23,-9,2.678
-13,-7,2.679
-4,-4,2.68
-2,0,2.681
-3,3,2.682
-12,1,2.683
-19,-1,2.684
-17,-3,2.685
-15,-2,2.686
-12,1,2.687
-8,2,2.688
0,1,2.689
8,1,2.69
18,3,2.691
26,4,2.692
24,7,2.693
21,5,2.694
19,2,2.695
14,0,2.696
11,-2,2.697
7,2,2.698
11,5,2.699
14,4,2.7
9,0,2.701
-2,0,2.702
-7,2,2.703
-2,3,2.704
2,3,2.705
-2,3,2.706
-8,4,2.707
-8,5,2.708
-4,3,2.709
-3,1,2.71
-3,0,2.711
1,0,2.712
8,2,2.713
7,0,2.714
0,-2,2.715
-4,-4,2.716
-3,-7,2.717
1,-6,2.718
8,-5,2.719
13,-3,2.72
10,0,2.721
0,3,2.722
-3,5,2.723
-1,3,2.724
0,1,2.725
-3,0,2.726
-5,0,2.727
-2,-1,2.728
0,-3,2.729
0,-3,2.73
0,0,2.731
0,2,2.732
-2,3,2.733
-7,2,2.734
-6,1,2.735
-1,0,2.736
0,-6,2.737
1,-6,2.738
12,-1,2.739
26,1,2.74
28,1,2.741
18,-1,2.742
10,-1,2.743
15,0,2.744
20,-2,2.745
16,-4,2.746
7,-4,2.747
4,-4,2.748
5,-1,2.749
2,2,2.75
-1,3,2.751
-4,0,2.752
-3,0,2.753
-3,0,2.754
-5,0,2.755
-11,-2,2.756
-14,-6,2.757
-12,-6,2.758
-3,-3,2.759
2,0,2.76
2,3,2.761
-1,6,2.762
-1,5,2.763
0,2,2.764
-5,0,2.765
-15,2,2.766
-27,3,2.767
-40,2,2.768
-58,0,2.769
-74,1,2.77
-76,0,2.771
-51,-2,2.772
-9,-2,2.773
41,-2,2.774
84,0,2.775
113,0,2.776
126,-3,2.777
116,-3,2.778
88,-4,2.779
53,-3,2.78
23,0,2.781
3,2,2.782
-7,1,2.783
-10,-1,2.784
-6,-3,2.785
-1,-1,2.786
1,-1,2.787
1,-4,2.788
3,-5,2.789
3,-2,2.79
-2,-2,2.791
-14,-5,2.792
-22,-5,2.793
-23,-5,2.794
-22,-4,2.795
-24,-5,2.796
-27,-9,2.797
-27,-6,2.798
-22,-3,2.799
-17,0,2.8
-10,3,2.801
-7,6,2.802
-6,8,2.803
-5,5,2.804
-5,2,2.805
-3,3,2.806
-1,6,2.807
0,7,2.808
0,5,2.809
-3,5,2.81
-6,5,2.811
-8,4,2.812
-6,1,2.813
-5,-1,2.814
-7,2,2.815
-10,5,2.816
-11,0,2.817
-11,-6,2.818
-7,-7,2.819
-3,-3,2.82
-1,2,2.821
0,5,2.822
3,5,2.823
11,3,2.824
18,0,2.825
22,1,2.826
25,2,2.827
28,-2,2.828
26,-7,2.829
20,-7,2.83
14,-3,2.831
11,-2,2.832
13,-2,2.833
10,-5,2.834
4,-4,2.835
-5,-4,2.836
-10,-7,2.837
-6,-7,2.838
4,-4,2.839
10,-2,2.84
8,0,2.841
3,1,2.842
4,1,2.843
10,-1,2.844
13,-1,2.845
14,3,2.846
17,5,2.847
20,0,2.848
18,-4,2.849
15,-3,2.85
12,-2,2.851
12,-4,2.852
10,-5,2.853
4,-4,2.854
-2,-1,2.855
-10,-2,2.856
-15,-8,2.857
-9,-8,2.858
2,-4,2.859
10,0,2.86
6,3,2.861
0,6,2.862
0,5,2.863
3,2,2.864
1,0,2.865
-3,1,2.866
-2,0,2.867
3,-1,2.868
1,-1,2.869
-6,0,2.87
-10,2,2.871
-7,5,2.872
-3,6,2.873
-7,2,2.874
-12,-4,2.875
-17,-6,2.876
-18,-6,2.877
-17,-3,2.878
-7,-2,2.879
2,0,2.88
6,2,2.881
8,3,2.882
6,2,2.883
4,3,2.884
3,5,2.885
3,2,2.886
8,-4,2.887
13,-4,2.888
15,1,2.889
17,3,2.89
14,0,2.891
12,-3,2.892
18,-1,2.893
23,2,2.894
25,1,2.895
18,0,2.896
6,-3,2.897
0,-3,2.898
3,-1,2.899
8,0,2.9
4,3,2.901
-4,3,2.902
-7,3,2.903
-4,3,2.904
0,3,2.905
-3,2,2.906
-5,0,2.907
-5,0,2.908
-4,2,2.909
-7,2,2.91
-7,0,2.911
-6,-2,2.912
-3,-1,2.913
-2,-3,2.914
-2,-3,2.915
-6,-3,2.916
-8,-5,2.917
-6,-7,2.918
5,-7,2.919
12,-3,2.92
7,0,2.921
-2,2,2.922
0,0,2.923
9,-2,2.924
12,0,2.925
8,2,2.926
3,1,2.927
3,0,2.928
7,2,2.929
10,4,2.93
12,2,2.931
4,-2,2.932
-8,-1,2.933
-18,-1,2.934
-12,-1,2.935
-6,0,2.936
-1,-4,2.937
5,-6,2.938
13,-4,2.939
20,-2,2.94
25,-1,2.941
30,0,2.942
30,1,2.943
29,2,2.944
21,3,2.945
11,4,2.946
-2,0,2.947
-11,-3,2.948
-3,-3,2.949
3,-3,2.95
-2,-3,2.951
-4,-2,2.952
4,0,2.953
11,1,2.954
2,0,2.955
-7,-2,2.956
-12,-6,2.957
-12,-5,2.958
-8,-3,2.959
0,0,2.96
3,5,2.961
-4,8,2.962
-12,5,2.963
-14,0,2.964
-16,0,2.965
-21,2,2.966
-19,2,2.967
-4,-2,2.968
8,-5,2.969
8,-4,2.97
5,-1,2.971
10,0,2.972
19,0,2.973
24,-1,2.974
25,-1,2.975
18,-3,2.976
4,-7,2.977
-9,-6,2.978
-9,-4,2.979
0,-1,2.98
2,0,2.981
-2,2,2.982
-3,2,2.983
3,1,2.984
6,0,2.985
3,0,2.986
2,1,2.987
9,0,2.988
15,-2,2.989
15,-3,2.99
15,-3,2.991
14,-1,2.992
9,1,2.993
2,0,2.994
0,-3,2.995
-3,-5,2.996
-10,-7,2.997
-12,-5,2.998
-2,-2,2.999
10,1,3.0
10,4,3.001
5,6,3.002
7,4,3.003
14,1,3.004
10,-1,3.005
-1,1,3.006
-4,2,3.007
0,2,3.008
3,0,3.009
-2,1,3.01
-8,3,3.011
-10,2,3.012
-9,0,3.013
-9,-3,3.014
-7,-3,3.015
-6,-2,3.016
-6,-5,3.017
-5,-6,3.018
0,-6,3.019
8,-2,3.02
10,1,3.021
6,1,3.022
3,0,3.023
3,-1,3.024
1,0,3.025
-2,1,3.026
-4,-1,3.027
-2,-3,3.028
0,-1,3.029
0,-1,3.03
0,-2,3.031
1,-4,3.032
4,-3,3.033
1,-1,3.034
0,-1,3.035
-2,0,3.036
-2,-1,3.037
-1,-3,3.038
4,-1,3.039
10,0,3.04
13,4,3.041
15,6,3.042
13,2,3.043
12,-1,3.044
15,-1,3.045
16,0,3.046
10,4,3.047
6,6,3.048
7,2,3.049
8,-1,3.05
6,2,3.051
4,4,3.052
2,2,3.053
0,0,3.054
-4,-1,3.055
-7,-1,3.056
-8,-5,3.057
-6,-8,3.058
0,-6,3.059
5,0,3.06
3,1,3.061
-2,2,3.062
-4,1,3.063
2,1,3.064
8,2,3.065
7,1,3.066
3,1,3.067
3,0,3.068
4,0,3.069
4,0,3.07
7,2,3.071
11,3,3.072
13,3,3.073
7,0,3.074
-1,-1,3.075
-5,-2,3.076
-6,-5,3.077
-6,-5,3.078
-4,-2,3.079
3,2,3.08
7,2,3.081
2,2,3.082
-1,0,3.083
0,-2,3.084
4,-3,3.085
3,-2,3.086
0,-1,3.087
-2,-3,3.088
0,-5,3.089
1,-1,3.09
2,4,3.091
5,3,3.092
8,-1,3.093
11,-3,3.094
4,-1,3.095
0,0,3.096
-3,-2,3.097
-5,-4,3.098
-1,-1,3.099
1,1,3.1
0,2,3.101
-2,3,3.102
-2,3,3.103
-1,3,3.104
0,2,3.105
3,0,3.106
1,-1,3.107
0,-3,3.108
0,-3,3.109
0,-2,3.11
2,-2,3.111
3,-2,3.112
-1,0,3.113
10,-3,3.114
4,-1,3.115
0,0,3.116
-3,-2,3.117
-5,-4,3.118
-1,-1,3.119
1,1,3.12
0,2,3.121
-2,3,3.122
-2,3,3.123
-1,3,3.124
0,2,3.125
3,0,3.126
1,-1,3.127
0,-3,3.128
0,-3,3.129
0,-2,3.13
2,-2,3.131
3,-2,3.132
-1,0,3.133
-4,3,3.134
-3,5,3.135
0,1,3.136
0,-4,3.137
-3,-3,3.138
-1,0,3.139
8,-1,3.14
13,-2,3.141
7,2,3.142
1,5,3.143
0,4,3.144
2,0,3.145
0,-2,3.146
-1,2,3.147
2,5,3.148
4,3,3.149
1,0,3.15
-2,-2,3.151
-2,-3,3.152
1,-1,3.153
2,-1,3.154
3,-2,3.155
1,-3,3.156
-1,-5,3.157
-2,-2,3.158
1,2,3.159
7,4,3.16
9,5,3.161
6,6,3.162
3,3,3.163
6,-3,3.164
8,-5,3.165
8,-3,3.166
8,-1,3.167
11,-2,3.168
14,-7,3.169
14,-10,3.17
13,-11,3.171
14,-13,3.172
14,-12,3.173
9,-11,3.174
2,-8,3.175
-5,-2,3.176
-11,2,3.177
-10,8,3.178
-1,6,3.179
7,0,3.18
6,-3,3.181
1,-4,3.182
0,-3,3.183
2,-1,3.184
0,2,3.185
-5,5,3.186
-5,4,3.187
-3,-1,3.188
-1,-1,3.189
-3,1,3.19
0,2,3.191
4,0,3.192
4,1,3.193
-1,3,3.194
-2,3,3.195
-4,2,3.196
-8,0,3.197
-9,-2,3.198
-1,-2,3.199
6,0,3.2
6,4,3.201
7,8,3.202
7,6,3.203
6,5,3.204
5,4,3.205
4,3,3.206
4,2,3.207
4,1,3.208
2,0,3.209
1,-1,3.21
1,0,3.211
1,1,3.212
1,0,3.213
1,-3,3.214
3,-1,3.215
4,-2,3.216
0,-6,3.217
-4,-9,3.218
-2,-8,3.219
5,-3,3.22
8,0,3.221
2,2,3.222
0,1,3.223
4,0,3.224
3,-2,3.225
0,0,3.226
0,2,3.227
5,-1,3.228
6,-6,3.229
1,-4,3.23
1,-1,3.231
8,-1,3.232
11,-2,3.233
4,-4,3.234
-1,-2,3.235
-1,-3,3.236
-1,-7,3.237
-2,-5,3.238
-1,-1,3.239
6,0,3.24
8,-3,3.241
0,0,3.242
-2,5,3.243
1,7,3.244
5,4,3.245
3,0,3.246
1,1,3.247
6,0,3.248
11,-1,3.249
11,-1,3.25
11,0,3.251
10,0,3.252
5,0,3.253
-4,0,3.254
-12,0,3.255
-20,0,3.256
-26,-3,3.257
-27,-1,3.258
-15,1,3.259
8,3,3.26
27,1,3.261
32,0,3.262
30,2,3.263
26,2,3.264
20,-2,3.265
14,-3,3.266
12,-2,3.267
15,-1,3.268
14,-3,3.269
11,-4,3.27
7,-2,3.271
7,-2,3.272
5,-3,3.273
0,-4,3.274
-4,-2,3.275
-6,0,3.276
-8,-4,3.277
-11,-6,3.278
-6,-5,3.279
0,-2,3.28
2,3,3.281
-2,7,3.282
-5,7,3.283
-2,4,3.284
0,0,3.285
-3,1,3.286
-4,5,3.287
-3,4,3.288
0,0,3.289
-1,-3,3.29
-3,-2,3.291
-3,-1,3.292
0,0,3.293
0,0,3.294
-1,0,3.295
-5,-3,3.296
-8,-7,3.297
-5,-8,3.298
2,-4,3.299
11,0,3.3
14,2,3.301
9,4,3.302
2,3,3.303
0,0,3.304
0,-1,3.305
0,-1,3.306
3,0,3.307
8,-2,3.308
8,-2,3.309
1,0,3.31
-4,1,3.311
-1,0,3.312
6,0,3.313
6,0,3.314
0,-2,3.315
-5,-6,3.316
-4,-10,3.317
-1,-8,3.318
5,-4,3.319
15,0,3.32
19,0,3.321
16,0,3.322
8,-1,3.323
4,-1,3.324
4,0,3.325
2,3,3.326
-1,6,3.327
-2,3,3.328
-2,-2,3.329
-1,-3,3.33
0,-2,3.331
2,-1,3.332
2,0,3.333
0,-1,3.334
0,-1,3.335
0,-2,3.336
-3,-6,3.337
-5,-4,3.338
1,0,3.339
14,2,3.34
21,4,3.341
16,6,3.342
7,5,3.343
5,2,3.344
6,0,3.345
2,1,3.346
-4,2,3.347
-8,0,3.348
-9,-1,3.349
-6,-2,3.35
-1,-1,3.351
5,0,3.352
11,3,3.353
12,3,3.354
14,2,3.355
16,0,3.356
16,-8,3.357
15,-13,3.358
15,-14,3.359
14,-8,3.36
7,-2,3.361
-2,2,3.362
-6,1,3.363
-4,0,3.364
-5,-1,3.365
-11,1,3.366
-14,4,3.367
-12,3,3.368
-9,1,3.369
-11,-1,3.37
-12,-1,3.371
-10,0,3.372
-3,2,3.373
1,-1,3.374
3,-3,3.375
-1,-5,3.376
-2,-7,3.377
1,-6,3.378
10,-4,3.379
16,-1,3.38
13,3,3.381
5,7,3.382
3,6,3.383
7,0,3.384
10,-2,3.385
7,-1,3.386
3,1,3.387
1,0,3.388
0,-1,3.389
-1,-2,3.39
-2,-2,3.391
-2,-2,3.392
-1,2,3.393
-1,3,3.394
0,2,3.395
2,-2,3.396
0,-9,3.397
0,-7,3.398
5,-1,3.399
13,2,3.4
14,4,3.401
7,5,3.402
4,2,3.403
10,-2,3.404
12,-3,3.405
4,1,3.406
-2,3,3.407
1,1,3.408
8,-1,3.409
5,1,3.41
-2,2,3.411
-6,-1,3.412
-4,-3,3.413
-5,-4,3.414
-5,-4,3.415
-4,-3,3.416
-2,-5,3.417
0,-6,3.418
4,-4,3.419
14,-2,3.42
20,0,3.421
17,1,3.422
8,3,3.423
2,4,3.424
2,2,3.425
1,0,3.426
3,-1,3.427
5,-2,3.428
5,-1,3.429
-2,0,3.43
-8,0,3.431
-11,-1,3.432
-10,-2,3.433
-14,-2,3.434
-20,1,3.435
-23,1,3.436
-20,-6,3.437
-10,-7,3.438
4,-7,3.439
20,-4,3.44
26,0,3.441
23,6,3.442
21,9,3.443
25,5,3.444
30,1,3.445
30,2,3.446
25,6,3.447
21,4,3.448
17,3,3.449
8,3,3.45
0,3,3.451
-2,1,3.452
-2,1,3.453
-5,0,3.454
-10,-2,3.455
-13,-4,3.456
-14,-8,3.457
-14,-9,3.458
-8,-7,3.459
0,-3,3.46
6,-1,3.461
4,0,3.462
3,1,3.463
5,0,3.464
7,-1,3.465
3,-1,3.466
0,0,3.467
1,-4,3.468
5,-7,3.469
6,-7,3.47
7,-4,3.471
6,-3,3.472
3,-2,3.473
-1,-3,3.474
-4,-4,3.475
-8,-7,3.476
-9,-9,3.477
-9,-3,3.478
-4,2,3.479
-1,2,3.48
-2,2,3.481
-7,8,3.482
-7,11,3.483
-2,7,3.484
5,3,3.485
10,5,3.486
12,10,3.487
10,7,3.488
5,3,3.489
0,5,3.49
0,9,3.491
0,6,3.492
0,3,3.493
2,0,3.494
4,0,3.495
0,0,3.496
-6,-4,3.497
-9,-1,3.498
-2,3,3.499
6,0,3.5
7,-2,3.501
4,-3,3.502
5,-1,3.503
7,-2,3.504
5,-5,3.505
0,-3,3.506
1,0,3.507
5,0,3.508
2,-3,3.509
-3,-3,3.51
-6,2,3.511
-7,4,3.512
-8,2,3.513
-12,-3,3.514
-11,-5,3.515
-7,-6,3.516
-3,-7,3.517
2,-7,3.518
14,-2,3.519
29,-1,3.52
38,-1,3.521
38,-1,3.522
34,-1,3.523
30,-2,3.524
23,-5,3.525
17,-6,3.526
14,-6,3.527
10,-8,3.528
4,-7,3.529
-1,-4,3.53
-4,-1,3.531
-6,-2,3.532
-7,-3,3.533
-7,-3,3.534
-5,0,3.535
-9,0,3.536
-16,-5,3.537
-18,-7,3.538
-11,-3,3.539
0,3,3.54
3,6,3.541
0,6,3.542
0,3,3.543
6,0,3.544
9,1,3.545
7,3,3.546
4,2,3.547
4,-1,3.548
5,-2,3.549
1,4,3.55
-4,8,3.551
-4,7,3.552
0,3,3.553
-1,-1,3.554
-4,1,3.555
-10,2,3.556
-12,-3,3.557
-10,-4,3.558
-3,-4,3.559
3,0,3.56
6,3,3.561
1,3,3.562
0,0,3.563
5,0,3.564
10,3,3.565
10,6,3.566
8,5,3.567
8,2,3.568
10,1,3.569
6,2,3.57
3,0,3.571
4,-2,3.572
8,-1,3.573
6,-1,3.574
4,0,3.575
0,-3,3.576
-3,-9,3.577
-2,-10,3.578
3,-5,3.579
10,1,3.58
11,4,3.581
4,3,3.582
1,0,3.583
1,0,3.584
2,1,3.585
-1,1,3.586
-5,0,3.587
-5,-1,3.588
-3,1,3.589
-3,2,3.59
-3,2,3.591
0,0,3.592
6,1,3.593
11,-2,3.594
17,-6,3.595
16,-7,3.596
11,-9,3.597
6,-6,3.598
8,-2,3.599
14,-1,3.6
15,2,3.601
8,6,3.602
2,4,3.603
2,-1,3.604
4,-5,3.605
2,-3,3.606
0,0,3.607
1,0,3.608
0,-2,3.609
-1,-2,3.61
-1,0,3.611
0,0,3.612
1,0,3.613
-1,-3,3.614
-3,-2,3.615
-7,-3,3.616
-11,-6,3.617
-11,-5,3.618
-5,-2,3.619
3,0,3.62
4,2,3.621
0,2,3.622
-2,1,3.623
-1,0,3.624
1,0,3.625
1,1,3.626
0,4,3.627
1,4,3.628
0,3,3.629
-2,2,3.63
-4,1,3.631
-2,-1,3.632
1,-2,3.633
0,-4,3.634
-4,-4,3.635
-7,-4,3.636
-4,-7,3.637
5,-6,3.638
15,-5,3.639
21,-2,3.64
24,2,3.641
21,5,3.642
18,3,3.643
14,-2,3.644
8,-3,3.645
5,0,3.646
4,0,3.647
5,-3,3.648
3,-4,3.649
-2,-2,3.65
-4,2,3.651
-4,2,3.652
-2,2,3.653
0,0,3.654
0,-2,3.655
-4,-2,3.656
-7,-5,3.657
-7,-3,3.658
0,-2,3.659
8,-2,3.66
7,-1,3.661
2,1,3.662
0,3,3.663
4,1,3.664
7,-1,3.665
3,0,3.666
-1,-1,3.667
-1,-3,3.668
0,-1,3.669
0,0,3.67
1,0,3.671
1,0,3.672
3,2,3.673
0,3,3.674
-3,-1,3.675
-8,-6,3.676
-11,-6,3.677
-8,-2,3.678
3,0,3.679
14,-2,3.68
14,0,3.681
9,5,3.682
8,4,3.683
14,0,3.684
15,0,3.685
8,6,3.686
2,6,3.687
3,2,3.688
4,0,3.689
2,5,3.69
-2,4,3.691
0,-1,3.692
6,-2,3.693
8,-2,3.694
2,-2,3.695
-6,-4,3.696
-10,-6,3.697
-6,-6,3.698
-2,-5,3.699
1,-4,3.7
1,-1,3.701
0,4,3.702
0,5,3.703
-1,0,3.704
-2,-2,3.705
-3,1,3.706
-1,5,3.707
5,2,3.708
9,-3,3.709
7,-1,3.71
5,1,3.711
6,0,3.712
9,0,3.713
5,-3,3.714
0,-3,3.715
-6,-3,3.716
-8,-7,3.717
-4,-6,3.718
2,-2,3.719
7,2,3.72
5,5,3.721
0,4,3.722
1,3,3.723
7,1,3.724
12,0,3.725
11,-1,3.726
9,-2,3.727
9,0,3.728
9,1,3.729
6,1,3.73
4,0,3.731
8,-1,3.732
9,1,3.733
2,1,3.734
-2,-1,3.735
-5,-2,3.736
-5,-6,3.737
-7,-5,3.738
-5,-3,3.739
4,1,3.74
9,7,3.741
4,8,3.742
1,5,3.743
5,0,3.744
8,0,3.745
4,4,3.746
-1,3,3.747
-1,-1,3.748
1,-3,3.749
2,-1,3.75
1,0,3.751
4,-4,3.752
5,-4,3.753
0,-4,3.754
-3,-3,3.755
-5,-5,3.756
-5,-9,3.757
-8,-8,3.758
-6,-4,3.759
-1,-2,3.76
0,-1,3.761
-6,-1,3.762
-11,-3,3.763
-8,-2,3.764
0,0,3.765
8,2,3.766
15,1,3.767
19,-2,3.768
15,-4,3.769
9,-1,3.77
9,1,3.771
13,1,3.772
12,0,3.773
5,-1,3.774
-1,1,3.775
-4,3,3.776
-6,0,3.777
-7,-5,3.778
-1,-7,3.779
11,-4,3.78
17,1,3.781
14,4,3.782
9,3,3.783
9,0,3.784
4,0,3.785
-1,1,3.786
-2,1,3.787
0,0,3.788
0,-1,3.789
-3,-1,3.79
-3,-2,3.791
0,-3,3.792
1,-1,3.793
-1,-3,3.794
-3,-4,3.795
-6,-5,3.796
-10,-7,3.797
-11,-6,3.798
-5,-4,3.799
5,-2,3.8
9,2,3.801
5,7,3.802
3,8,3.803
8,4,3.804
9,1,3.805
1,2,3.806
-3,4,3.807
1,3,3.808
4,1,3.809
1,0,3.81
0,-3,3.811
4,-3,3.812
7,0,3.813
0,3,3.814
-4,1,3.815
-5,-2,3.816
-5,-7,3.817
-5,-6,3.818
0,-2,3.819
7,-1,3.82
9,-1,3.821
2,1,3.822
0,4,3.823
4,1,3.824
9,-2,3.825
6,-2,3.826
4,0,3.827
9,0,3.828
12,-1,3.829
6,-1,3.83
0,0,3.831
3,0,3.832
10,-1,3.833
7,-3,3.834
0,-4,3.835
-5,-4,3.836
-5,-6,3.837
-4,-7,3.838
-3,-5,3.839
0,-2,3.84
5,-1,3.841
6,0,3.842
6,2,3.843
6,3,3.844
7,4,3.845
6,4,3.846
3,3,3.847
5,2,3.848
8,1,3.849
8,2,3.85
7,3,3.851
5,2,3.852
5,1,3.853
3,-1,3.854
3,-1,3.855
0,-1,3.856
-4,-4,3.857
-6,-5,3.858
-1,-5,3.859
6,-3,3.86
5,-1,3.861
1,2,3.862
2,4,3.863
10,2,3.864
14,0,3.865
12,-1,3.866
8,-3,3.867
6,-3,3.868
3,-4,3.869
1,-1,3.87
1,0,3.871
3,-3,3.872
5,-3,3.873
4,-3,3.874
0,0,3.875
-7,0,3.876
-15,-5,3.877
-17,-6,3.878
-8,-5,3.879
3,-2,3.88
4,2,3.881
-1,6,3.882
-4,6,3.883
-1,2,3.884
0,-1,3.885
-3,1,3.886
-5,3,3.887
-3,1,3.888
1,0,3.889
7,0,3.89
11,0,3.891
10,-3,3.892
5,-4,3.893
1,-2,3.894
1,-2,3.895
0,-3,3.896
-3,-7,3.897
-6,-6,3.898
-1,-4,3.899
9,-2,3.9
9,0,3.901
1,5,3.902
-2,6,3.903
1,2,3.904
3,-2,3.905
2,-1,3.906
0,2,3.907
0,1,3.908
1,0,3.909
2,0,3.91
3,0,3.911
4,0,3.912
2,-1,3.913
-1,-1,3.914
-3,-1,3.915
-5,-2,3.916
-8,-5,3.917
-7,-6,3.918
2,-2,3.919
12,-1,3.92
12,0,3.921
5,2,3.922
1,5,3.923
5,4,3.924
8,2,3.925
4,2,3.926
1,3,3.927
6,1,3.928
10,0,3.929
7,0,3.93
0,2,3.931
0,1,3.932
3,-1,3.933
5,-4,3.934
4,-2,3.935
0,-3,3.936
-3,-7,3.937
-3,-8,3.938
1,-5,3.939
10,-3,3.94
10,-2,3.941
3,1,3.942
-1,2,3.943
0,1,3.944
3,1,3.945
3,4,3.946
2,5,3.947
4,1,3.948
7,-3,3.949
7,-3,3.95
8,-1,3.951
10,-3,3.952
11,-4,3.953
7,-6,3.954
4,-5,3.955
0,-4,3.956
-6,-7,3.957
-8,-7,3.958
0,-6,3.959
9,-4,3.96
8,0,3.961
0,4,3.962
0,4,3.963
2,0,3.964
1,-2,3.965
-3,0,3.966
-1,4,3.967
2,2,3.968
2,0,3.969
1,0,3.97
5,2,3.971
10,0,3.972
10,-1,3.973
3,-1,3.974
2,1,3.975
0,3,3.976
-5,-1,3.977
-10,-3,3.978
-6,-1,3.979
1,0,3.98
1,1,3.981
-4,2,3.982
-6,2,3.983
-1,3,3.984
6,1,3.985
11,0,3.986
16,0,3.987
19,0,3.988
20,-2,3.989
15,-4,3.99
8,-2,3.991
1,0,3.992
-1,0,3.993
0,-1,3.994
4,-1,3.995
1,0,3.996
-7,-1,3.997
-10,-2,3.998
-3,-2,3.999
7,0,4.0
10,5,4.001
5,7,4.002
2,5,4.003
4,1,4.004
5,0,4.005
2,3,4.006
-2,6,4.007
-1,4,4.008
-1,1,4.009
-2,-2,4.01
-3,-4,4.011
-2,-6,4.012
0,-4,4.013
0,-3,4.014
-1,-2,4.015
-4,-4,4.016
-5,-8,4.017
-3,-6,4.018
4,-4,4.019
11,-1,4.02
9,1,4.021
3,3,4.022
4,3,4.023
8,0,4.024
6,-2,4.025
0,1,4.026
-3,3,4.027
-1,3,4.028
0,2,4.029
-2,3,4.03
-5,4,4.031
-3,1,4.032
0,2,4.033
2,1,4.034
4,0,4.035
2,-3,4.036
-1,-7,4.037
-2,-4,4.038
5,-3,4.039
18,-3,4.04
24,-3,4.041
17,0,4.042
8,2,4.043
6,0,4.044
11,0,4.045
8,3,4.046
0,5,4.047
-2,4,4.048
0,3,4.049
-1,5,4.05
-4,4,4.051
-5,-3,4.052
-2,-6,4.053
-2,-6,4.054
-4,-4,4.055
-7,-5,4.056
-8,-10,4.057
-5,-8,4.058
0,-3,4.059
9,0,4.06
12,0,4.061
6,0,4.062
0,0,4.063
3,0,4.064
6,-1,4.065
3,0,4.066
-3,0,4.067
-3,-1,4.068
0,0,4.069
1,1,4.07
-1,4,4.071
0,1,4.072
4,0,4.073
3,-2,4.074
1,-3,4.075
-1,-3,4.076
-1,-5,4.077
-3,-5,4.078
1,-4,4.079
10,-1,4.08
13,3,4.081
10,4,4.082
6,1,4.083
8,-2,4.084
5,0,4.085
0,4,4.086
0,4,4.087
7,1,4.088
10,-3,4.089
5,-4,4.09
5,-3,4.091
9,0,4.092
10,2,4.093
5,-2,4.094
0,-5,4.095
-7,-5,4.096
-11,-4,4.097
-12,-4,4.098
-5,-6,4.099
8,-6,4.1
10,0,4.101
0,7,4.102
-5,6,4.103
-3,2,4.104
0,1,4.105
-2,2,4.106
-1,2,4.107
4,0,4.108
9,-1,4.109
4,0,4.11
-3,0,4.111
-4,-1,4.112
-3,0,4.113
-2,0,4.114
-3,-1,4.115
-5,-1,4.116
-8,-4,4.117
-5,-5,4.118
7,-5,4.119
23,-4,4.12
26,1,4.121
18,13,4.122
12,36,4.123
13,70,4.124
11,98,4.125
3,88,4.126
0,25,4.127
6,-58,4.128
10,-118,4.129
9,-135,4.13
6,-120,4.131
5,-81,4.132
7,-26,4.133
2,21,4.134
-4,32,4.135
-10,16,4.136
-15,6,4.137
-18,15,4.138
-11,21,4.139
1,15,4.14
6,14,4.141
0,22,4.142
-6,23,4.143
-7,12,4.144
-7,8,4.145
-6,13,4.146
-1,11,4.147
10,1,4.148
22,-3,4.149
26,1,4.15
28,0,4.151
29,-5,4.152
26,-5,4.153
17,-4,4.154
9,-4,4.155
0,-7,4.156
-9,-7,4.157
-14,-2,4.158
-9,-3,4.159
0,-6,4.16
-2,-3,4.161
-12,5,4.162
-16,5,4.163
-11,-3,4.164
-6,-3,4.165
-1,3,4.166
17,5,4.167
38,1,4.168
42,-2,4.169
26,0,4.17
13,2,4.171
11,3,4.172
9,7,4.173
-1,8,4.174
-11,5,4.175
-15,-2,4.176
-20,-9,4.177
-31,-8,4.178
-35,-5,4.179
-23,-3,4.18
-10,0,4.181
-11,4,4.182
-16,5,4.183
-10,3,4.184
2,0,4.185
15,0,4.186
23,-2,4.187
25,-2,4.188
19,-1,4.189
6,2,4.19
-3,3,4.191
-7,2,4.192
-6,4,4.193
-7,5,4.194
-11,4,4.195
-20,1,4.196
-27,-3,4.197
-21,-1,4.198
-3,0,4.199
12,-1,4.2
14,0,4.201
13,2,4.202
18,3,4.203
27,-3,4.204
31,-10,4.205
33,-10,4.206
42,-8,4.207
59,-7,4.208
72,-5,4.209
67,-3,4.21
44,1,4.211
13,1,4.212
-12,-1,4.213
-35,-6,4.214
-53,-7,4.215
-68,-8,4.216
-72,-6,4.217
-67,-3,4.218
-63,4,4.219
-70,11,4.22
-68,16,4.221
-34,19,4.222
28,11,4.223
87,4,4.224
113,-1,4.225
105,-5,4.226
76,-6,4.227
56,-8,4.228
65,-12,4.229
91,-15,4.23
90,-11,4.231
47,-6,4.232
5,-2,4.233
-9,4,4.234
-20,9,4.235
-66,1,4.236
-128,-15,4.237
-153,-22,4.238
-138,-18,4.239
-121,-6,4.24
-110,0,4.241
-80,5,4.242
-37,6,4.243
-17,8,4.244
-20,13,4.245
-16,20,4.246
18,20,4.247
69,14,4.248
118,10,4.249
156,6,4.25
172,-2,4.251
154,-10,4.252
111,-10,4.253
47,-3,4.254
-28,0,4.255
-111,-8,4.256
-181,-19,4.257
-196,-16,4.258
-118,-7,4.259
35,-8,4.26
174,-15,4.261
209,-20,4.262
146,-16,4.263
68,-9,4.264
19,0,4.265
-26,9,4.266
-85,14,4.267
-121,16,4.268
-117,15,4.269
-111,13,4.27
-117,9,4.271
-90,5,4.272
-27,6,4.273
22,4,4.274
23,0,4.275
20,-2,4.276
50,-3,4.277
83,0,4.278
80,1,4.279
57,0,4.28
43,2,4.281
38,3,4.282
38,-1,4.283
50,-5,4.284
59,-2,4.285
47,2,4.286
28,2,4.287
24,0,4.288
28,0,4.289
15,0,4.29
-4,-3,4.291
-6,-3,4.292
-1,0,4.293
-4,-1,4.294
-10,-4,4.295
-5,-6,4.296
-4,-3,4.297
-15,-1,4.298
-19,-4,4.299
-4,-6,4.3
8,-1,4.301
0,2,4.302
-8,-1,4.303
-5,-3,4.304
-1,-1,4.305
-11,0,4.306
-16,-1,4.307
-5,-2,4.308
7,0,4.309
1,2,4.31
-6,2,4.311
-3,2,4.312
0,2,4.313
-3,1,4.314
-8,-1,4.315
-6,-4,4.316
-4,-5,4.317
-11,-4,4.318
-15,-2,4.319
-5,1,4.32
2,4,4.321
-1,4,4.322
-5,1,4.323
5,1,4.324
19,1,4.325
22,-1,4.326
16,-3,4.327
12,-4,4.328
11,0,4.329
5,5,4.33
-2,6,4.331
-6,-1,4.332
-6,-7,4.333
-5,-12,4.334
-5,-10,4.335
-7,-7,4.336
-8,-8,4.337
-9,-8,4.338
-3,-3,4.339
3,3,4.34
2,8,4.341
-3,12,4.342
-6,12,4.343
-2,9,4.344
3,5,4.345
2,2,4.346
-2,3,4.347
0,2,4.348
3,0,4.349
5,-1,4.35
4,-2,4.351
3,-4,4.352
4,0,4.353
2,1,4.354
1,-1,4.355
-2,-3,4.356
-4,-8,4.357
-4,-6,4.358
3,-5,4.359
13,-4,4.36
13,-1,4.361
7,3,4.362
5,4,4.363
8,3,4.364
8,4,4.365
5,6,4.366
5,4,4.367
10,-1,4.368
10,-1,4.369
6,2,4.37
3,3,4.371
2,0,4.372
1,-1,4.373
-2,-1,4.374
-2,-2,4.375
-2,-6,4.376
-3,-11,4.377
-3,-10,4.378
1,-7,4.379
8,-7,4.38
9,-5,4.381
4,-2,4.382
2,-1,4.383
4,0,4.384
2,2,4.385
-1,4,4.386
-2,4,4.387
0,3,4.388
3,2,4.389
2,0,4.39
3,-2,4.391
6,-2,4.392
9,1,4.393
9,0,4.394
4,-3,4.395
-2,-5,4.396
-7,-6,4.397
-8,-5,4.398
-1,-3,4.399
6,0,4.4
8,5,4.401
8,6,4.402
11,1,4.403
16,-2,4.404
14,0,4.405
8,3,4.406
6,5,4.407
9,4,4.408
10,4,4.409
6,4,4.41
0,2,4.411
-1,0,4.412
1,0,4.413
-1,-2,4.414
-3,-6,4.415
-5,-7,4.416
-6,-9,4.417
-8,-5,4.418
-7,0,4.419
-2,3,4.42
2,2,4.421
2,1,4.422
1,3,4.423
3,4,4.424
5,3,4.425
4,4,4.426
0,13,4.427
-1,28,4.428
-1,40,4.429
-2,41,4.43
0,24,4.431
3,-4,4.432
10,-27,4.433
15,-43,4.434
21,-49,4.435
24,-49,4.436
18,-40,4.437
11,-19,4.438
3,0,4.439
-3,2,4.44
-3,-1,4.441
-4,1,4.442
-5,10,4.443
-5,9,4.444
-1,2,4.445
2,1,4.446
2,6,4.447
1,3,4.448
1,-1,4.449
0,0,4.45
-1,7,4.451
-2,7,4.452
-2,1,4.453
-2,-2,4.454
-9,0,4.455
-14,0,4.456
-14,-4,4.457
-10,-4,4.458
-4,3,4.459
6,5,4.46
16,1,4.461
17,0,4.462
12,2,4.463
11,2,4.464
14,1,4.465
14,4,4.466
10,7,4.467
7,6,4.468
6,1,4.469
2,0,4.47
-5,0,4.471
-9,0,4.472
-5,0,4.473
-5,-1,4.474
-8,-3,4.475
-11,-7,4.476
-9,-11,4.477
-3,-5,4.478
3,2,4.479
10,4,4.48
11,4,4.481
8,4,4.482
5,1,4.483
9,-4,4.484
12,-7,4.485
11,-7,4.486
8,-4,4.487
8,-1,4.488
5,3,4.489
-2,9,4.49
-6,6,4.491
2,0,4.492
14,-3,4.493
13,-2,4.494
3,0,4.495
-1,-4,4.496
2,-9,4.497
5,-7,4.498
5,-1,4.499
6,0,4.5
4,-2,4.501
-1,-2,4.502
-6,2,4.503
-4,5,4.504
3,4,4.505
8,3,4.506
10,0,4.507
13,-4,4.508
14,-8,4.509
12,-8,4.51
9,-5,4.511
7,-2,4.512
4,1,4.513
-1,3,4.514
0,3,4.515
5,0,4.516
3,-6,4.517
-2,-3,4.518
-3,6,4.519
7,15,4.52
10,15,4.521
2,10,4.522
-2,1,4.523
5,-4,4.524
11,-5,4.525
3,-2,4.526
-9,-2,4.527
-8,-2,4.528
-4,-2,4.529
-5,-2,4.53
-10,-2,4.531
-8,-5,4.532
-2,-5,4.533
-5,-6,4.534
-15,-6,4.535
-23,-3,4.536
-18,1,4.537
0,8,4.538
19,10,4.539
32,7,4.54
32,5,4.541
23,9,4.542
9,14,4.543
-5,19,4.544
-14,24,4.545
-11,16,4.546
1,-8,4.547
9,-39,4.548
3,-52,4.549
-13,-44,4.55
-28,-30,4.551
-29,-19,4.552
-11,-5,4.553
20,8,4.554
41,11,4.555
26,1,4.556
-5,-6,4.557
-18,0,4.558
-7,8,4.559
4,9,4.56
-1,7,4.561
-9,11,4.562
-6,14,4.563
1,12,4.564
5,9,4.565
8,10,4.566
12,5,4.567
12,-5,4.568
11,-14,4.569
17,-15,4.57
30,-11,4.571
36,-7,4.572
30,0,4.573
18,6,4.574
11,11,4.575
2,12,4.576
-4,11,4.577
-3,11,4.578
10,7,4.579
24,5,4.58
23,20,4.581
5,49,4.582
-15,75,4.583
-21,81,4.584
-5,75,4.585
16,75,4.586
22,92,4.587
11,108,4.588
-9,84,4.589
-27,-8,4.59
-39,-144,4.591
-40,-254,4.592
-32,-292,4.593
-27,-274,4.594
-35,-228,4.595
-44,-157,4.596
-31,-70,4.597
3,0,4.598
34,18,4.599
38,11,4.6
22,28,4.601
6,61,4.602
15,76,4.603
45,67,4.604
67,63,4.605
54,69,4.606
15,65,4.607
-13,52,4.608
-12,45,4.609
-2,43,4.61
-6,35,4.611
-16,26,4.612
-19,28,4.613
-20,31,4.614
-21,23,4.615
-19,11,4.616
1,7,4.617
39,10,4.618
79,5,4.619
102,-1,4.62
91,4,4.621
49,13,4.622
-1,9,4.623
-34,-4,4.624
-55,-11,4.625
-79,-7,4.626
-98,0,4.627
-96,3,4.628
-69,8,4.629
-37,12,4.63
-13,9,4.631
3,2,4.632
19,0,4.633
26,-2,4.634
27,-6,4.635
25,-12,4.636
24,-17,4.637
20,-14,4.638
19,-10,4.639
24,-6,4.64
25,1,4.641
15,5,4.642
0,3,4.643
-5,-3,4.644
-4,-4,4.645
-2,-1,4.646
1,-1,4.647
9,-7,4.648
13,-12,4.649
14,-10,4.65
18,-8,4.651
25,-11,4.652
28,-14,4.653
19,-15,4.654
6,-11,4.655
0,-9,4.656
1,-9,4.657
0,-5,4.658
-2,-2,4.659
1,0,4.66
5,4,4.661
4,9,4.662
1,12,4.663
4,7,4.664
9,0,4.665
11,0,4.666
11,2,4.667
10,3,4.668
5,1,4.669
-5,-1,4.67
-12,-3,4.671
-10,-5,4.672
-4,-5,4.673
-4,-4,4.674
-8,-3,4.675
-12,-3,4.676
-11,-6,4.677
-7,-5,4.678
2,-1,4.679
12,4,4.68
12,9,4.681
3,11,4.682
-3,7,4.683
0,2,4.684
4,-1,4.685
3,0,4.686
0,0,4.687
0,-1,4.688
2,-1,4.689
0,-1,4.69
-3,0,4.691
-2,0,4.692
2,1,4.693
4,0,4.694
1,-3,4.695
-5,-7,4.696
-9,-11,4.697
-4,-9,4.698
5,-6,4.699
12,-1,4.7
11,0,4.701
4,1,4.702
2,2,4.703
5,2,4.704
4,5,4.705
-1,5,4.706
-3,2,4.707
-3,-3,4.708
-4,-4,4.709
-8,-2,4.71
-9,0,4.711
-5,0,4.712
-1,0,4.713
-2,1,4.714
-1,5,4.715
0,8,4.716
3,6,4.717
9,4,4.718
18,2,4.719
23,6,4.72
20,16,4.721
10,22,4.722
2,15,4.723
3,-1,4.724
9,-13,4.725
11,-14,4.726
11,-10,4.727
10,-11,4.728
7,-13,4.729
2,-9,4.73
-4,-3,4.731
-9,-2,4.732
-13,-1,4.733
-12,1,4.734
-4,8,4.735
4,11,4.736
11,3,4.737
11,-4,4.738
10,0,4.739
10,15,4.74
6,26,4.741
0,22,4.742
-5,19,4.743
-8,35,4.744
-10,59,4.745
-9,58,4.746
-5,28,4.747
-1,-11,4.748
1,-47,4.749
2,-81,4.75
1,-110,4.751
1,-119,4.752
2,-106,4.753
1,-83,4.754
-1,-57,4.755
-4,-33,4.756
-1,-16,4.757
7,-4,4.758
16,12,4.759
19,31,4.76
17,39,4.761
11,35,4.762
6,29,4.763
3,34,4.764
0,42,4.765
-3,38,4.766
-4,30,4.767
1,27,4.768
6,25,4.769
4,16,4.77
-1,6,4.771
-2,5,4.772
3,9,4.773
9,6,4.774
16,2,4.775
21,4,4.776
23,7,4.777
19,8,4.778
13,2,4.779
12,-3,4.78
8,-6,4.781
-5,-9,4.782
-23,-11,4.783
-34,-9,4.784
-36,0,4.785
-35,10,4.786
-31,14,4.787
-15,10,4.788
4,5,4.789
12,2,4.79
9,-3,4.791
8,-10,4.792
7,-15,4.793
-2,-19,4.794
-16,-19,4.795
-16,-18,4.796
-2,-15,4.797
9,-7,4.798
11,-3,4.799
12,-2,4.8
17,3,4.801
16,10,4.802
8,12,4.803
8,7,4.804
16,4,4.805
21,8,4.806
20,9,4.807
21,4,4.808
24,0,4.809
21,0,4.81
14,0,4.811
8,-1,4.812
9,1,4.813
7,4,4.814
4,4,4.815
1,-2,4.816
-3,-7,4.817
-7,-3,4.818
-7,2,4.819
-1,3,4.82
0,3,4.821
-4,4,4.822
-9,1,4.823
-9,-6,4.824
-5,-9,4.825
-6,-4,4.826
-6,3,4.827
-2,3,4.828
4,1,4.829
6,0,4.83
5,0,4.831
4,-1,4.832
2,0,4.833
0,1,4.834
2,0,4.835
5,-5,4.836
6,-12,4.837
5,-13,4.838
13,-8,4.839
24,-3,4.84
24,0,4.841
11,3,4.842
-2,5,4.843
-6,4,4.844
-6,3,4.845
-9,2,4.846
-10,1,4.847
-8,-1,4.848
-3,-2,4.849
-1,-1,4.85
-1,0,4.851
0,-1,4.852
0,-2,4.853
-2,-4,4.854
-4,-4,4.855
-8,-4,4.856
-10,-6,4.857
-6,-5,4.858
1,-1,4.859
9,4,4.86
8,8,4.861
3,7,4.862
3,0,4.863
6,-6,4.864
4,-5,4.865
-1,0,4.866
-1,1,4.867
2,-2,4.868
3,-5,4.869
1,0,4.87
2,4,4.871
3,4,4.872
0,2,4.873
-8,1,4.874
-12,1,4.875
-11,-3,4.876
-11,-8,4.877
-9,-4,4.878
1,1,4.879
20,3,4.88
35,1,4.881
34,3,4.882
23,6,4.883
13,7,4.884
1,4,4.885
-4,2,4.886
-3,5,4.887
2,7,4.888
2,2,4.889
0,-6,4.89
-2,-10,4.891
-2,-7,4.892
0,-1,4.893
4,0,4.894
10,-8,4.895
13,-13,4.896
5,-14,4.897
-4,-10,4.898
-5,-9,4.899
1,-8,4.9
2,-2,4.901
-5,1,4.902
-8,-1,4.903
-2,-2,4.904
6,8,4.905
10,18,4.906
15,9,4.907
21,-9,4.908
17,-15,4.909
1,-2,4.91
-11,7,4.911
-10,0,4.912
-6,-5,4.913
-9,0,4.914
-12,12,4.915
-9,11,4.916
0,-1,4.917
10,-8,4.918
20,-3,4.919
26,4,4.92
19,7,4.921
10,3,4.922
13,-2,4.923
25,-3,4.924
27,0,4.925
15,3,4.926
2,1,4.927
1,-2,4.928
3,-2,4.929
0,2,4.93
-5,3,4.931
-8,0,4.932
-6,-2,4.933
-5,-4,4.934
-5,-3,4.935
-8,-5,4.936
-11,-9,4.937
-12,-10,4.938
-7,-7,4.939
2,-2,4.94
4,2,4.941
-1,3,4.942
-6,1,4.943
-5,0,4.944
0,0,4.945
-1,3,4.946
-5,5,4.947
-8,3,4.948
-6,2,4.949
-1,1,4.95
1,2,4.951
0,3,4.952
-3,4,4.953
-7,2,4.954
-8,2,4.955
-5,0,4.956
-2,-4,4.957
3,-5,4.958
10,-1,4.959
15,3,4.96
13,5,4.961
5,3,4.962
0,0,4.963
5,0,4.964
12,1,4.965
12,0,4.966
9,-5,4.967
11,-8,4.968
14,-8,4.969
12,-6,4.97
6,-3,4.971
2,-1,4.972
3,5,4.973
3,8,4.974
0,7,4.975
-3,2,4.976
-3,-3,4.977
2,-3,4.978
11,-3,4.979
16,-3,4.98
14,0,4.981
6,3,4.982
4,2,4.983
8,-2,4.984
10,-3,4.985
5,0,4.986
0,-1,4.987
-1,-4,4.988
-1,-5,4.989
-2,-2,4.99
-2,0,4.991
-1,0,4.992
1,0,4.993
-2,-4,4.994
-3,-6,4.995
-4,-8,4.996
-3,-8,4.997
0,-5,4.998
3,-3,4.999
4,-2,5.0
1,1,5.001
-2,5,5.002
-3,5,5.003
0,0,5.004
3,-4,5.005
2,-2,5.006
1,3,5.007
1,5,5.008
4,2,5.009
6,-2,5.01
5,-3,5.011
2,0,5.012
1,2,5.013
1,1,5.014
3,-1,5.015
1,-1,5.016
-3,-4,5.017
-6,-4,5.018
-2,-3,5.019
6,1,5.02
10,5,5.021
5,2,5.022
2,-2,5.023
3,-3,5.024
6,0,5.025
4,0,5.026
0,-4,5.027
-2,-4,5.028
-1,0,5.029
-4,3,5.03
-9,0,5.031
-8,-4,5.032
-2,-3,5.033
2,-3,5.034
2,-3,5.035
2,-3,5.036
-1,-1,5.037
-3,0,5.038
0,4,5.039
3,6,5.04
5,4,5.041
7,2,5.042
8,-1,5.043
10,-4,5.044
11,-4,5.045
11,-2,5.046
9,0,5.047
7,1,5.048
8,4,5.049
8,7,5.05
6,5,5.051
5,4,5.052
5,3,5.053
3,2,5.054
-4,2,5.055
-12,0,5.056
-15,-6,5.057
-12,-6,5.058
-5,-2,5.059
3,2,5.06
5,3,5.061
4,3,5.062
8,0,5.063
17,-4,5.064
22,-5,5.065
17,0,5.066
8,4,5.067
5,4,5.068
5,-1,5.069
3,-3,5.07
-2,-1,5.071
-5,0,5.072
-7,0,5.073
-14,2,5.074
-18,7,5.075
-19,7,5.076
-9,-2,5.077
6,-7,5.078
19,-5,5.079
25,1,5.08
20,2,5.081
14,2,5.082
11,1,5.083
10,0,5.084
4,0,5.085
-4,2,5.086
-6,3,5.087
-2,0,5.088
2,-6,5.089
-1,-7,5.09
-4,-5,5.091
-3,-5,5.092
2,-5,5.093
2,-3,5.094
-2,-2,5.095
-7,-5,5.096
-7,-10,5.097
-3,-9,5.098
4,-6,5.099
10,-5,5.1
12,-7,5.101
12,-4,5.102
12,2,5.103
12,6,5.104
9,9,5.105
2,11,5.106
1,10,5.107
5,3,5.108
4,-3,5.109
-1,-1,5.11
-4,2,5.111
-2,1,5.112
0,0,5.113
-2,0,5.114
-4,2,5.115
-6,5,5.116
-8,5,5.117
-9,10,5.118
-1,27,5.119
5,40,5.12
7,41,5.121
10,38,5.122
11,24,5.123
13,12,5.124
11,6,5.125
10,-3,5.126
9,-27,5.127
7,-48,5.128
1,-60,5.129
-3,-68,5.13
-1,-63,5.131
0,-55,5.132
2,-41,5.133
5,-25,5.134
0,-8,5.135
-4,-2,5.136
-5,-4,5.137
0,1,5.138
12,10,5.139
21,15,5.14
18,22,5.141
5,32,5.142
-2,34,5.143
-1,28,5.144
4,21,5.145
9,23,5.146
12,29,5.147
14,38,5.148
10,57,5.149
2,89,5.15
-5,106,5.151
-9,91,5.152
-7,64,5.153
-7,46,5.154
-6,31,5.155
-5,-8,5.156
-4,-69,5.157
-5,-106,5.158
-6,-100,5.159
-9,-85,5.16
-13,-95,5.161
-13,-116,5.162
-5,-106,5.163
9,-65,5.164
18,-29,5.165
17,-19,5.166
10,-22,5.167
3,-20,5.168
3,-8,5.169
2,6,5.17
1,14,5.171
3,20,5.172
9,26,5.173
15,28,5.174
14,24,5.175
7,8,5.176
0,-12,5.177
-2,-21,5.178
5,-15,5.179
11,-6,5.18
9,-2,5.181
2,9,5.182
0,31,5.183
6,55,5.184
10,63,5.185
6,59,5.186
1,60,5.187
2,63,5.188
4,48,5.189
6,4,5.19
3,-41,5.191
3,-53,5.192
6,-28,5.193
6,13,5.194
4,53,5.195
-2,91,5.196
-8,119,5.197
-10,126,5.198
-6,95,5.199
0,35,5.2
1,-41,5.201
0,-123,5.202
0,-189,5.203
2,-208,5.204
2,-180,5.205
-1,-130,5.206
-3,-83,5.207
-1,-52,5.208
1,-39,5.209
2,-47,5.21
3,-62,5.211
7,-57,5.212
13,-18,5.213
13,49,5.214
11,121,5.215
6,167,5.216
1,176,5.217
0,169,5.218
0,176,5.219
2,193,5.22
2,170,5.221
2,75,5.222
5,-53,5.223
8,-149,5.224
4,-195,5.225
-3,-215,5.226
-7,-219,5.227
-9,-186,5.228
-11,-116,5.229
-14,-29,5.23
-15,59,5.231
-11,140,5.232
-4,184,5.233
-1,159,5.234
2,76,5.235
2,-8,5.236
0,-53,5.237
1,-66,5.238
8,-76,5.239
16,-78,5.24
18,-47,5.241
13,21,5.242
8,107,5.243
8,184,5.244
8,226,5.245
2,206,5.246
-4,134,5.247
-7,62,5.248
-5,13,5.249
-3,-37,5.25
-1,-97,5.251
2,-129,5.252
7,-108,5.253
13,-76,5.254
14,-81,5.255
11,-112,5.256
1,-140,5.257
-5,-166,5.258
-5,-209,5.259
0,-233,5.26
3,-191,5.261
5,-102,5.262
7,-20,5.263
10,39,5.264
10,97,5.265
2,150,5.266
-4,171,5.267
-3,159,5.268
3,144,5.269
7,138,5.27
7,127,5.271
9,100,5.272
14,68,5.273
15,27,5.274
12,-7,5.275
4,-24,5.276
-3,-22,5.277
-7,-10,5.278
-5,-6,5.279
1,-9,5.28
6,-21,5.281
4,-39,5.282
2,-51,5.283
6,-39,5.284
17,-5,5.285
21,45,5.286
20,114,5.287
15,189,5.288
7,223,5.289
-1,200,5.29
-8,181,5.291
-11,209,5.292
-11,215,5.293
-10,-321,5.294
-10,-189,5.295
-10,-69,5.296
-12,15,5.297
-13,86,5.298
-9,114,5.299
-5,142,5.3
-4,169,5.301
-3,204,5.302
-6,256,5.303
-8,291,5.304
-6,266,5.305
-4,244,5.306
0,233,5.307
3,216,5.308
3,182,5.309
5,117,5.31
11,-39,5.311
15,-174,5.312
13,-244,5.313
11,-268,5.314
7,-154,5.315
5,-50,5.316
0,23,5.317
-1,85,5.318
8,109,5.319
20,133,5.32
21,157,5.321
16,187,5.322
12,232,5.323
13,262,5.324
8,241,5.325
-3,222,5.326
-12,212,5.327
-12,197,5.328
-7,168,5.329
-4,112,5.33
-1,-24,5.331
3,-141,5.332
6,-201,5.333
1,-253,5.334
-7,-282,5.335
-13,-303,5.336
-14,-295,5.337
-7,-236,5.338
6,-144,5.339
17,-53,5.34
20,32,5.341
17,143,5.342
15,276,5.343
17,353,5.344
17,299,5.345
9,146,5.346
1,-14,5.347
2,-135,5.348
8,-228,5.349
7,-291,5.35
0,-286,5.351
-5,-203,5.352
-8,-93,5.353
-11,11,5.354
-15,96,5.355
-17,155,5.356
-12,171,5.357
-4,153,5.358
2,129,5.359
9,111,5.36
12,77,5.361
9,14,5.362
6,-36,5.363
0,-36,5.364
-6,3,5.365
-10,44,5.366
-7,81,5.367
-1,139,5.368
4,206,5.369
6,220,5.37
6,139,5.371
6,8,5.372
6,-96,5.373
5,-157,5.374
5,-185,5.375
4,-188,5.376
2,-174,5.377
1,-151,5.378
6,-149,5.379
9,-159,5.38
5,-143,5.381
1,-81,5.382
0,-2,5.383
-2,57,5.384
-3,101,5.385
-3,160,5.386
3,252,5.387
8,355,5.388
5,388,5.389
3,283,5.39
3,73,5.391
3,-126,5.392
5,-231,5.393
6,-272,5.394
3,-264,5.395
-5,-159,5.396
-13,35,5.397
-16,186,5.398
-8,175,5.399
4,76,5.4
8,9,5.401
6,-53,5.402
7,-203,5.403
17,-363,5.404
26,-374,5.405
25,-250,5.406
17,-155,5.407
8,-156,5.408
4,-155,5.409
0,-80,5.41
-4,30,5.411
-5,120,5.412
-2,193,5.413
7,259,5.414
10,287,5.415
5,246,5.416
0,133,5.417
-2,-17,5.418
1,-148,5.419
5,-195,5.42
4,-151,5.421
3,-81,5.422
3,-43,5.423
5,-25,5.424
6,-2,5.425
5,7,5.426
2,-17,5.427
1,-43,5.428
0,-36,5.429
3,5,5.43
10,70,5.431
15,169,5.432
15,278,5.433
-5,110,5.434
-8,146,5.435
-10,159,5.436
-8,98,5.437
-4,39,5.438
4,-14,5.439
12,-96,5.44
9,-255,5.441
8,-343,5.442
8,-213,5.443
8,-90,5.444
8,14,5.445
8,98,5.446
1,113,5.447
-4,103,5.448
-5,9,5.449
-5,-51,5.45
3,-9,5.451
10,40,5.452
15,117,5.453
-4,76,5.454
-6,101,5.455
-8,110,5.456
-6,68,5.457
-3,27,5.458
4,-10,5.459
10,-67,5.46
8,-177,5.461
7,-238,5.462
7,-148,5.463
7,-63,5.464
7,10,5.465
7,68,5.466
1,78,5.467
-3,71,5.468
-4,6,5.469
-4,-36,5.47
3,-7,5.471
9,28,5.472
13,81,5.473
14,122,5.474
9,80,5.475
7,-42,5.476
3,-184,5.477
-2,-261,5.478
0,-240,5.479
11,-130,5.48
11,26,5.481
-1,148,5.482
-9,157,5.483
-8,51,5.484
-5,-91,5.485
-7,-191,5.486
-5,-232,5.487
0,-217,5.488
1,-148,5.489
-1,-43,5.49
0,56,5.491
7,126,5.492
8,167,5.493
1,204,5.494
-3,252,5.495
-2,304,5.496
2,317,5.497
6,259,5.498
10,137,5.499
15,23,5.5
15,-22,5.501
10,-24,5.502
4,-42,5.503
-1,-90,5.504
-5,-125,5.505
-5,-121,5.506
0,-109,5.507
5,-105,5.508
7,-61,5.509
7,61,5.51
8,204,5.511
6,244,5.512
2,146,5.513
-3,-28,5.514
-5,-165,5.515
-5,-236,5.516
-1,-270,5.517
4,-264,5.518
15,-207,5.519
19,-125,5.52
13,-56,5.521
1,3,5.522
-2,74,5.523
2,122,5.524
5,115,5.525
4,84,5.526
4,89,5.527
11,129,5.528
15,170,5.529
10,215,5.53
2,268,5.531
-1,276,5.532
0,188,5.533
-4,14,5.534
-8,-139,5.535
-9,-211,5.536
-8,-239,5.537
-9,-262,5.538
-5,-262,5.539
0,-220,5.54
1,-165,5.541
-4,-133,5.542
-10,-126,5.543
-5,-108,5.544
1,-58,5.545
4,21,5.546
5,105,5.547
7,154,5.548
13,148,5.549
14,118,5.55
7,115,5.551
1,149,5.552
2,171,5.553
6,135,5.554
4,59,5.555
-4,-18,5.556
-14,-75,5.557
-15,-105,5.558
-10,-106,5.559
-6,-82,5.56
-9,-44,5.561
-15,-4,5.562
-14,22,5.563
-11,23,5.564
-8,5,5.565
-2,-5,5.566
11,4,5.567
26,17,5.568
30,22,5.569
24,25,5.57
14,34,5.571
10,39,5.572
10,43,5.573
8,57,5.574
5,83,5.575
-1,86,5.576
-6,43,5.577
-8,-8,5.578
-3,-22,5.579
2,6,5.58
-1,50,5.581
-9,75,5.582
-11,64,5.583
-4,10,5.584
1,-68,5.585
1,-133,5.586
2,-163,5.587
8,-161,5.588
14,-140,5.589
16,-98,5.59
16,-41,5.591
17,1,5.592
18,13,5.593
16,3,5.594
12,0,5.595
9,8,5.596
6,6,5.597
0,-8,5.598
0,-19,5.599
4,-13,5.6
6,2,5.601
1,20,5.602
-2,35,5.603
1,53,5.604
7,63,5.605
9,51,5.606
6,20,5.607
7,-2,5.608
7,3,5.609
3,30,5.61
-2,65,5.611
-5,118,5.612
-6,190,5.613
-6,255,5.614
-4,249,5.615
-2,138,5.616
-4,-50,5.617
-8,-229,5.618
-8,-334,5.619
-3,-359,5.62
-3,-323,5.621
-5,-241,5.622
-4,-133,5.623
0,-48,5.624
2,-19,5.625
-1,-17,5.626
-5,25,5.627
-3,125,5.628
1,236,5.629
4,300,5.63
7,291,5.631
12,222,5.632
15,139,5.633
17,63,5.634
17,-19,5.635
15,-131,5.636
9,-239,5.637
6,-257,5.638
13,-185,5.639
19,-105,5.64
13,-62,5.641
1,-6,5.642
-4,85,5.643
-3,141,5.644
-4,96,5.645
-5,-5,5.646
1,-80,5.647
12,-105,5.648
16,-103,5.649
7,-91,5.65
0,-74,5.651
-1,-61,5.652
1,-51,5.653
1,-26,5.654
-2,20,5.655
-7,58,5.656
-11,70,5.657
-9,88,5.658
0,128,5.659
10,176,5.66
8,191,5.661
0,156,5.662
-3,84,5.663
-1,9,5.664
-2,-23,5.665
-7,-5,5.666
-12,21,5.667
-12,10,5.668
-9,-34,5.669
-4,-85,5.67
1,-134,5.671
2,-168,5.672
-2,-156,5.673
-7,-88,5.674
-7,-16,5.675
-4,-1,5.676
-3,-24,5.677
-5,-19,5.678
-1,25,5.679
7,59,5.68
14,61,5.681
16,61,5.682
15,76,5.683
14,87,5.684
10,76,5.685
4,43,5.686
2,1,5.687
3,-41,5.688
6,-68,5.689
8,-68,5.69
6,-52,5.691
2,-24,5.692
-3,28,5.693
-9,97,5.694
-8,143,5.695
-6,137,5.696
-3,106,5.697
1,84,5.698
14,46,5.699
26,-33,5.7
24,-115,5.701
9,-133,5.702
-5,-89,5.703
-5,-36,5.704
-1,-1,5.705
0,31,5.706
0,35,5.707
5,-36,5.708
16,-151,5.709
25,-205,5.71
25,-162,5.711
18,-98,5.712
15,-68,5.713
17,-40,5.714
16,17,5.715
3,62,5.716
-13,61,5.717
-20,77,5.718
-15,146,5.719
-3,199,5.72
3,154,5.721
3,37,5.722
-1,-61,5.723
-5,-106,5.724
-7,-117,5.725
-6,-102,5.726
-3,-60,5.727
2,-13,5.728
8,7,5.729
10,6,5.73
4,8,5.731
-1,21,5.732
0,33,5.733
2,34,5.734
0,46,5.735
-7,74,5.736
-10,104,5.737
-4,117,5.738
2,103,5.739
4,63,5.74
0,12,5.741
-2,-25,5.742
-1,-37,5.743
0,-45,5.744
-1,-79,5.745
-4,-126,5.746
-6,-147,5.747
-4,-132,5.748
0,-109,5.749
0,-90,5.75
0,-52,5.751
2,15,5.752
6,68,5.753
4,73,5.754
1,54,5.755
1,48,5.756
3,66,5.757
6,101,5.758
12,169,5.759
18,263,5.76
18,307,5.761
7,216,5.762
-2,-1,5.763
1,-230,5.764
10,-371,5.765
8,-407,5.766
-2,-358,5.767
-4,-235,5.768
-1,-80,5.769
1,27,5.77
-4,58,5.771
-6,86,5.772
0,171,5.773
2,268,5.774
2,245,5.775
-2,61,5.776
-3,-154,5.777
-5,-249,5.778
-4,-214,5.779
-1,-137,5.78
1,-63,5.781
-1,22,5.782
1,100,5.783
6,115,5.784
7,74,5.785
4,57,5.786
5,97,5.787
15,126,5.788
22,93,5.789
25,39,5.79
23,23,5.791
21,39,5.792
14,50,5.793
2,47,5.794
-3,59,5.795
-3,107,5.796
-6,188,5.797
-10,254,5.798
-7,206,5.799
-4,7,5.8
-6,-232,5.801
-15,-352,5.802
-19,-298,5.803
-13,-140,5.804
-9,44,5.805
-11,208,5.806
-8,273,5.807
0,176,5.808
5,-24,5.809
3,-209,5.81
4,-329,5.811
17,-408,5.812
28,-438,5.813
25,-382,5.814
13,-254,5.815
2,-119,5.816
-3,-12,5.817
-7,85,5.818
-2,166,5.819
10,211,5.82
18,229,5.821
16,223,5.822
11,172,5.823
7,95,5.824
4,73,5.825
-1,126,5.826
-3,183,5.827
-3,179,5.828
-5,125,5.829
-10,41,5.83
-2,-81,5.831
15,-208,5.832
26,-254,5.833
22,-197,5.834
12,-104,5.835
5,-42,5.836
0,-13,5.837
-5,15,5.838
-6,35,5.839
-4,49,5.84
-7,80,5.841
-17,116,5.842
-20,123,5.843
-10,97,5.844
4,90,5.845
12,130,5.846
16,160,5.847
19,112,5.848
17,4,5.849
6,-57,5.85
-3,-3,5.851
-3,102,5.852
1,126,5.853
-3,46,5.854
-11,-11,5.855
-19,22,5.856
-18,23,5.857
-12,-153,5.858
-4,-423,5.859
0,-560,5.86
-1,-506,5.861
-2,-401,5.862
2,-308,5.863
9,-125,5.864
12,156,5.865
9,347,5.866
9,341,5.867
11,278,5.868
11,288,5.869
11,284,5.87
16,152,5.871
20,-28,5.872
19,-124,5.873
8,-149,5.874
2,-158,5.875
4,-139,5.876
8,-77,5.877
6,-15,5.878
6,21,5.879
11,76,5.88
9,142,5.881
-3,150,5.882
-13,108,5.883
-9,90,5.884
-1,91,5.885
-4,36,5.886
-13,-56,5.887
-15,-86,5.888
-8,-52,5.889
-4,-33,5.89
-5,-30,5.891
-6,10,5.892
-4,56,5.893
-4,48,5.894
-6,40,5.895
-7,88,5.896
-2,80,5.897
8,-92,5.898
16,-305,5.899
19,-346,5.9
17,-236,5.901
15,-144,5.902
15,-77,5.903
13,71,5.904
6,246,5.905
-1,306,5.906
-3,272,5.907
2,250,5.908
7,198,5.909
3,41,5.91
2,-105,5.911
4,-87,5.912
8,12,5.913
1,3,5.914
-9,-131,5.915
-16,-222,5.916
-17,-187,5.917
-17,-98,5.918
-15,-36,5.919
-4,1,5.92
9,11,5.921
13,-25,5.922
9,-69,5.923
10,-53,5.924
14,20,5.925
15,66,5.926
15,55,5.927
18,40,5.928
21,72,5.929
16,118,5.93
4,122,5.931
-4,90,5.932
-4,73,5.933
-6,76,5.934
-8,60,5.935
-11,-6,5.936
-8,-81,5.937
-3,-88,5.938
3,-29,5.939
10,22,5.94
11,5,5.941
10,-64,5.942
10,-125,5.943
14,-136,5.944
14,-101,5.945
11,-58,5.946
10,-42,5.947
10,-51,5.948
8,-53,5.949
5,-30,5.95
2,4,5.951
4,26,5.952
7,24,5.953
7,0,5.954
4,-15,5.955
-1,13,5.956
-8,117,5.957
-13,279,5.958
-8,404,5.959
0,373,5.96
1,170,5.961
-4,-83,5.962
-10,-262,5.963
-12,-345,5.964
-14,-360,5.965
-16,-286,5.966
-15,-120,5.967
-9,42,5.968
-5,121,5.969
-5,173,5.97
-1,253,5.971
3,248,5.972
6,66,5.973
2,-197,5.974
3,-299,5.975
11,-212,5.976
18,-111,5.977
19,-50,5.978
24,40,5.979
34,125,5.98
39,91,5.981
31,-8,5.982
24,-15,5.983
29,59,5.984
35,68,5.985
26,6,5.986
2,-1,5.987
-14,50,5.988
-20,53,5.989
-19,5,5.99
-19,4,5.991
-15,47,5.992
-10,50,5.993
-9,13,5.994
-12,5,5.995
-15,-3,5.996
-16,-11,5.997
-16,-13,5.998
-7,1,5.999
0,12,6.0
1,10,6.001
1,9,6.002
-1,13,6.003
-4,13,6.004
-3,1,6.005
-2,-8,6.006
-2,-9,6.007
-4,-13,6.008
-8,-25,6.009
-11,-33,6.01
-9,-31,6.011
-7,-29,6.012
-3,-30,6.013
3,-30,6.014
13,-17,6.015
21,-6,6.016
25,-14,6.017
19,-22,6.018
12,-10,6.019
9,10,6.02
10,25,6.021
13,42,6.022
14,83,6.023
12,142,6.024
6,175,6.025
1,130,6.026
2,10,6.027
2,-106,6.028
0,-146,6.029
-2,-123,6.03
1,-99,6.031
5,-87,6.032
5,-60,6.033
2,-26,6.034
2,-41,6.035
1,-74,6.036
-1,-72,6.037
-2,-30,6.038
2,25,6.039
6,126,6.04
0,289,6.041
-7,401,6.042
-9,336,6.043
-4,127,6.044
1,-90,6.045
5,-279,6.046
10,-451,6.047
13,-517,6.048
8,-388,6.049
3,-164,6.05
2,-12,6.051
6,67,6.052
10,157,6.053
10,224,6.054
13,172,6.055
16,66,6.056
15,35,6.057
14,55,6.058
17,17,6.059
19,-37,6.06
17,-4,6.061
12,60,6.062
14,52,6.063
19,18,6.064
18,55,6.065
12,104,6.066
9,64,6.067
14,-7,6.068
14,-3,6.069
6,61,6.07
-4,108,6.071
-12,131,6.072
-17,134,6.073
-25,64,6.074
-31,-65,6.075
-33,-145,6.076
-29,-122,6.077
-20,-87,6.078
-11,-114,6.079
-3,-137,6.08
-4,-85,6.081
-9,-7,6.082
-8,32,6.083
0,46,6.084
8,52,6.085
9,41,6.086
8,45,6.087
11,93,6.088
15,134,6.089
13,108,6.09
8,55,6.091
7,29,6.092
9,-21,6.093
6,-147,6.094
-4,-240,6.095
-17,-282,6.096
-22,-168,6.097
-17,-66,6.098
-7,0,6.099
1,48,6.1
-1,42,6.101
-5,28,6.102
-4,-9,6.103
4,-16,6.104
8,69,6.105
1,135,6.106
-3,136,6.107
0,142,6.108
8,165,6.109
12,174,6.11
12,140,6.111
16,81,6.112
22,-55,6.113
20,-189,6.114
10,-262,6.115
-2,-241,6.116
-6,-204,6.117
-3,-163,6.118
3,-81,6.119
5,11,6.12
0,41,6.121
0,25,6.122
8,43,6.123
18,110,6.124
20,172,6.125
15,177,6.126
8,112,6.127
5,8,6.128
-1,-74,6.129
-8,-85,6.13
-9,-55,6.131
-4,-39,6.132
-1,-35,6.133
-3,-17,6.134
-7,-4,6.135
-13,-16,6.136
-18,-18,6.137
-17,36,6.138
-8,92,6.139
1,84,6.14
1,45,6.141
-1,30,6.142
2,12,6.143
7,-49,6.144
2,-102,6.145
-7,-86,6.146
-9,-42,6.147
-6,-38,6.148
-3,-47,6.149
0,-20,6.15
8,12,6.151
19,11,6.152
24,22,6.153
22,99,6.154
19,211,6.155
13,250,6.156
-2,161,6.157
-17,-7,6.158
-19,-169,6.159
-12,-259,6.16
-9,-258,6.161
-14,-193,6.162
-12,-96,6.163
-3,15,6.164
6,95,6.165
10,84,6.166
15,9,6.167
23,-15,6.168
28,65,6.169
26,179,6.17
23,224,6.171
20,185,6.172
18,96,6.173
11,-31,6.174
-2,-159,6.175
-19,-214,6.176
-28,-159,6.177
-27,-37,6.178
-16,51,6.179
-3,40,6.18
6,-41,6.181
14,-105,6.182
18,-96,6.183
16,-40,6.184
9,6,6.185
7,35,6.186
8,64,6.187
6,91,6.188
0,91,6.189
-3,71,6.19
-3,41,6.191
0,-1,6.192
1,-54,6.193
-2,-90,6.194
-7,-70,6.195
-13,-7,6.196
-13,35,6.197
-10,24,6.198
-6,-19,6.199
-3,-46,6.2
-1,-28,6.201
5,17,6.202
13,64,6.203
18,105,6.204
21,141,6.205
23,153,6.206
23,105,6.207
18,-16,6.208
10,-146,6.209
1,-185,6.21
-6,-107,6.211
-10,-14,6.212
-10,-7,6.213
-12,-77,6.214
-15,-122,6.215
-19,-102,6.216
-18,-67,6.217
-10,-42,6.218
1,3,6.219
12,61,6.22
18,74,6.221
16,38,6.222
14,39,6.223
16,129,6.224
18,234,6.225
17,240,6.226
12,117,6.227
6,-51,6.228
-1,-167,6.229
-11,-198,6.23
-17,-177,6.231
-13,-136,6.232
-4,-79,6.233
-3,-14,6.234
-5,10,6.235
-9,-15,6.236
-4,-22,6.237
3,51,6.238
10,149,6.239
14,171,6.24
11,106,6.241
4,17,6.242
0,-55,6.243
3,-104,6.244
10,-117,6.245
11,-84,6.246
8,-32,6.247
3,-1,6.248
1,9,6.249
0,18,6.25
0,31,6.251
5,36,6.252
13,33,6.253
16,24,6.254
14,32,6.255
11,77,6.256
7,142,6.257
-1,178,6.258
-8,145,6.259
-11,73,6.26
-9,31,6.261
-8,4,6.262
-10,-85,6.263
-12,-227,6.264
-12,-294,6.265
-11,-210,6.266
-10,-81,6.267
-6,-40,6.268
1,-61,6.269
8,-49,6.27
14,-10,6.271
18,-12,6.272
21,-31,6.273
18,0,6.274
16,69,6.275
12,88,6.276
9,51,6.277
4,36,6.278
4,56,6.279
8,58,6.28
7,34,6.281
-2,28,6.282
-9,40,6.283
-4,38,6.284
1,22,6.285
-2,25,6.286
-11,49,6.287
-10,59,6.288
-3,46,6.289
0,21,6.29
0,-16,6.291
3,-60,6.292
12,-88,6.293
13,-91,6.294
8,-78,6.295
5,-54,6.296
4,-7,6.297
1,63,6.298
-2,116,6.299
3,115,6.3
12,69,6.301
14,13,6.302
16,-18,6.303
18,-24,6.304
21,-40,6.305
17,-82,6.306
9,-108,6.307
2,-88,6.308
-3,-60,6.309
-5,-67,6.31
-7,-68,6.311
-9,-6,6.312
-12,87,6.313
-17,168,6.314
-14,257,6.315
-3,369,6.316
4,394,6.317
11,235,6.318
21,-29,6.319
35,-237,6.32
37,-354,6.321
26,-398,6.322
13,-289,6.323
10,16,6.324
10,302,6.325
5,262,6.326
-5,-90,6.327
-10,-421,6.328
-11,-509,6.329
-5,-429,6.33
3,-311,6.331
9,-146,6.332
8,57,6.333
3,191,6.334
1,161,6.335
3,72,6.336
7,80,6.337
12,161,6.338
17,182,6.339
19,129,6.34
11,101,6.341
-7,123,6.342
-21,129,6.343
-24,100,6.344
-15,84,6.345
-4,90,6.346
-1,73,6.347
-5,21,6.348
-11,-24,6.349
-13,-40,6.35
-12,-46,6.351
-10,-50,6.352
-4,-38,6.353
2,-8,6.354
7,19,6.355
4,34,6.356
-1,57,6.357
-2,90,6.358
4,86,6.359
9,9,6.36
3,-104,6.361
-3,-180,6.362
-9,-188,6.363
-14,-146,6.364
-15,-77,6.365
-9,3,6.366
-1,59,6.367
2,66,6.368
0,63,6.369
0,95,6.37
5,142,6.371
12,135,6.372
16,71,6.373
13,0,6.374
6,-35,6.375
-4,-52,6.376
-10,-64,6.377
-6,-32,6.378
4,37,6.379
10,55,6.38
4,-36,6.381
-1,-154,6.382
3,-173,6.383
11,-83,6.384
13,16,6.385
8,78,6.386
5,134,6.387
11,170,6.388
12,114,6.389
3,-49,6.39
-4,-203,6.391
0,-241,6.392
9,-185,6.393
11,-102,6.394
5,4,6.395
0,163,6.396
3,334,6.397
8,389,6.398
9,239,6.399
11,-47,6.4
16,-296,6.401
21,-395,6.402
20,-359,6.403
14,-225,6.404
0,-1,6.405
-8,220,6.406
-10,257,6.407
-6,57,6.408
-1,-175,6.409
2,-228,6.41
5,-154,6.411
8,-104,6.412
8,-61,6.413
3,71,6.414
2,213,6.415
2,205,6.416
0,84,6.417
-6,33,6.418
-7,71,6.419
-1,68,6.42
3,13,6.421
-1,12,6.422
-6,62,6.423
0,52,6.424
11,-22,6.425
11,-45,6.426
1,22,6.427
-4,106,6.428
-1,143,6.429
3,129,6.43
1,53,6.431
-1,-69,6.432
2,-147,6.433
7,-126,6.434
5,-53,6.435
-3,-20,6.436
-9,-37,6.437
-8,-49,6.438
-2,-51,6.439
5,-59,6.44
12,-51,6.441
17,-11,6.442
18,26,6.443
17,32,6.444
14,25,6.445
9,29,6.446
1,29,6.447
-3,23,6.448
-3,37,6.449
-3,68,6.45
-8,83,6.451
-14,93,6.452
-14,155,6.453
-10,297,6.454
-2,449,6.455
7,500,6.456
11,351,6.457
9,-10,6.458
7,-447,6.459
7,-701,6.46
0,-630,6.461
-18,-360,6.462
-35,-129,6.463
-35,-32,6.464
-19,-41,6.465
-5,-143,6.466
3,-304,6.467
10,-385,6.468
20,-293,6.469
25,-118,6.47
21,-2,6.471
14,52,6.472
11,109,6.473
6,162,6.474
0,169,6.475
-8,158,6.476
-12,169,6.477
-9,178,6.478
2,160,6.479
15,159,6.48
24,201,6.481
29,217,6.482
31,145,6.483
33,36,6.484
28,-32,6.485
17,-57,6.486
8,-71,6.487
10,-65,6.488
16,-19,6.489
12,48,6.49
0,103,6.491
-12,130,6.492
-19,127,6.493
-25,94,6.494
-33,49,6.495
-35,5,6.496
-32,-32,6.497
-25,-36,6.498
-14,26,6.499
-4,125,6.5
-4,168,6.501
-8,110,6.502
-8,0,6.503
-1,-100,6.504
5,-196,6.505
8,-304,6.506
12,-376,6.507
17,-359,6.508
18,-264,6.509
13,-149,6.51
9,-46,6.511
6,38,6.512
4,104,6.513
3,143,6.514
7,149,6.515
10,127,6.516
7,84,6.517
8,29,6.518
19,-32,6.519
32,-74,6.52
31,-39,6.521
17,109,6.522
6,313,6.523
0,416,6.524
-11,304,6.525
-25,31,6.526
-25,-223,6.527
-9,-346,6.528
2,-343,6.529
-2,-249,6.53
-9,-73,6.531
-4,110,6.532
6,177,6.533
7,95,6.534
4,-17,6.535
3,-63,6.536
0,-95,6.537
-7,-167,6.538
-9,-196,6.539
0,-99,6.54
10,38,6.541
12,52,6.542
12,-49,6.543
16,-101,6.544
20,-2,6.545
15,168,6.546
3,268,6.547
-7,219,6.548
-9,51,6.549
-4,-120,6.55
8,-190,6.551
19,-157,6.552
24,-100,6.553
20,-51,6.554
12,21,6.555
-1,121,6.556
-13,188,6.557
-13,207,6.558
-4,215,6.559
2,222,6.56
-1,185,6.561
-7,91,6.562
-1,2,6.563
10,-28,6.564
12,-20,6.565
9,-12,6.566
11,8,6.567
15,74,6.568
11,173,6.569
1,233,6.57
-3,164,6.571
0,-36,6.572
-5,-247,6.573
-27,-378,6.574
-50,-404,6.575
-57,-395,6.576
-41,-366,6.577
-13,-243,6.578
14,-28,6.579
27,140,6.58
24,148,6.581
17,52,6.582
18,-31,6.583
26,-71,6.584
29,-91,6.585
23,-69,6.586
18,-7,6.587
13,30,6.588
2,4,6.589
-9,7,6.59
-17,129,6.591
-12,301,6.592
-4,360,6.593
-2,246,6.594
-1,73,6.595
0,-9,6.596
1,30,6.597
0,102,6.598
3,103,6.599
10,5,6.6
13,-153,6.601
5,-316,6.602
-2,-404,6.603
-2,-315,6.604
6,-78,6.605
16,106,6.606
19,72,6.607
17,-80,6.608
13,-130,6.609
10,-19,6.61
13,172,6.611
19,415,6.612
23,660,6.613
22,730,6.614
23,432,6.615
21,-81,6.616
21,-422,6.617
24,-453,6.618
25,-368,6.619
5,-295,6.62
-38,-194,6.621
-68,-126,6.622
-60,-224,6.623
-35,-365,6.624
-24,-256,6.625
-31,106,6.626
-26,440,6.627
-6,672,6.628
1,962,6.629
-13,1230,6.63
-24,1105,6.631
-17,469,6.632
-4,-298,6.633
-2,-942,6.634
-5,-1368,6.635
-5,-1584,6.636
0,-1542,6.637
5,-1247,6.638
12,-832,6.639
18,-407,6.64
23,-9,6.641
27,291,6.642
35,424,6.643
47,458,6.644
53,509,6.645
53,562,6.646
50,530,6.647
45,436,6.648
34,391,6.649
19,419,6.65
4,462,6.651
-6,482,6.652
-10,478,6.653
-14,397,6.654
-18,231,6.655
-23,80,6.656
-29,77,6.657
-32,239,6.658
-27,431,6.659
-19,477,6.66
-15,272,6.661
-14,-132,6.662
-11,-526,6.663
-2,-743,6.664
6,-830,6.665
9,-913,6.666
6,-969,6.667
7,-887,6.668
12,-673,6.669
21,-411,6.67
28,-115,6.671
27,196,6.672
23,383,6.673
17,369,6.674
13,276,6.675
5,271,6.676
-1,320,6.677
1,299,6.678
15,235,6.679
24,222,6.68
15,230,6.681
-2,183,6.682
-11,125,6.683
-10,127,6.684
-10,152,6.685
-13,162,6.686
-6,222,6.687
10,374,6.688
20,505,6.689
18,468,6.69
5,235,6.691
-8,-117,6.692
-20,-465,6.693
-32,-696,6.694
-39,-679,6.695
-43,-462,6.696
-41,-270,6.697
-30,-208,6.698
-14,-188,6.699
-1,-111,6.7
5,-14,6.701
5,43,6.702
8,81,6.703
16,126,6.704
19,143,6.705
13,120,6.706
-1,121,6.707
-11,210,6.708
-7,344,6.709
6,413,6.71
16,338,6.711
16,164,6.712
10,34,6.713
7,-7,6.714
9,-40,6.715
11,-158,6.716
9,-295,6.717
7,-326,6.718
12,-288,6.719
20,-294,6.72
23,-273,6.721
13,-58,6.722
-7,307,6.723
-21,548,6.724
-19,495,6.725
-8,232,6.726
4,-92,6.727
13,-414,6.728
15,-679,6.729
12,-791,6.73
8,-724,6.731
10,-556,6.732
12,-377,6.733
5,-189,6.734
-5,-11,6.735
-11,114,6.736
-4,170,6.737
12,205,6.738
28,251,6.739
38,290,6.74
38,298,6.741
31,282,6.742
23,269,6.743
19,267,6.744
13,278,6.745
1,301,6.746
-6,330,6.747
-6,342,6.748
-3,300,6.749
-2,180,6.75
-5,4,6.751
-9,-152,6.752
-10,-227,6.753
-11,-223,6.754
-12,-167,6.755
-19,-72,6.756
-28,43,6.757
-37,147,6.758
-32,199,6.759
-13,188,6.76
5,130,6.761
11,28,6.762
13,-114,6.763
14,-284,6.764
13,-441,6.765
9,-529,6.766
3,-503,6.767
4,-377,6.768
9,-224,6.769
12,-92,6.77
15,25,6.771
22,149,6.772
30,258,6.773
31,313,6.774
24,293,6.775
9,212,6.776
-7,116,6.777
-16,67,6.778
-12,81,6.779
-4,114,6.78
-6,111,6.781
-19,69,6.782
-27,37,6.783
-26,40,6.784
-20,36,6.785
-10,-34,6.786
1,-161,6.787
8,-269,6.788
7,-299,6.789
0,-255,6.79
-1,-163,6.791
4,-44,6.792
9,57,6.793
9,93,6.794
9,74,6.795
8,79,6.796
10,142,6.797
12,196,6.798
16,169,6.799
19,101,6.8
19,78,6.801
17,123,6.802
13,207,6.803
8,302,6.804
3,395,6.805
-1,458,6.806
-5,456,6.807
-7,352,6.808
-5,111,6.809
-4,-247,6.81
-4,-617,6.811
-4,-856,6.812
-5,-900,6.813
-7,-786,6.814
-15,-589,6.815
-20,-378,6.816
-16,-210,6.817
-8,-91,6.818
1,3,6.819
12,100,6.82
20,180,6.821
20,221,6.822
17,257,6.823
15,324,6.824
11,379,6.825
2,329,6.826
-3,156,6.827
-2,-26,6.828
4,-98,6.829
9,-84,6.83
12,-123,6.831
14,-279,6.832
16,-446,6.833
11,-504,6.834
4,-407,6.835
-2,-209,6.836
-6,16,6.837
-6,233,6.838
-1,403,6.839
10,491,6.84
20,484,6.841
23,384,6.842
19,212,6.843
9,26,6.844
0,-92,6.845
-4,-97,6.846
-5,1,6.847
-9,166,6.848
-17,374,6.849
-24,596,6.85
-25,752,6.851
-18,748,6.852
-10,603,6.853
-5,382,6.854
-1,113,6.855
0,-303,6.856
-4,-897,6.857
-5,-1415,6.858
3,-1545,6.859
18,-1261,6.86
21,-795,6.861
11,-339,6.862
-3,31,6.863
-8,234,6.864
-4,237,6.865
10,185,6.866
35,239,6.867
54,347,6.868
51,351,6.869
32,262,6.87
16,210,6.871
11,216,6.872
4,213,6.873
-5,198,6.874
-11,233,6.875
-13,308,6.876
-20,335,6.877
-26,272,6.878
-22,141,6.879
-10,-10,6.88
-8,-123,6.881
-12,-156,6.882
-11,-138,6.883
-4,-135,6.884
-3,-148,6.885
-8,-127,6.886
-11,-80,6.887
-7,-67,6.888
-4,-90,6.889
-2,-92,6.89
7,-62,6.891
20,-34,6.892
25,-10,6.893
23,53,6.894
22,178,6.895
18,345,6.896
8,518,6.897
-3,625,6.898
-5,576,6.899
-2,421,6.9
-4,334,6.901
-12,319,6.902
-12,100,6.903
-4,-467,6.904
0,-1081,6.905
-6,-1337,6.906
-12,-1226,6.907
-16,-980,6.908
-15,-667,6.909
-10,-282,6.91
2,-27,6.911
19,-67,6.912
31,-183,6.913
34,-77,6.914
35,201,6.915
31,360,6.916
27,354,6.917
25,383,6.918
29,471,6.919
33,478,6.92
27,407,6.921
15,367,6.922
3,338,6.923
-4,247,6.924
-12,157,6.925
-23,145,6.926
-30,145,6.927
-31,95,6.928
-25,104,6.929
-17,270,6.93
-10,476,6.931
-7,510,6.932
-7,312,6.933
-6,-101,6.934
-4,-605,6.935
-8,-1012,6.936
-15,-1161,6.937
-16,-1039,6.938
-4,-778,6.939
16,-479,6.94
27,-198,6.941
25,4,6.942
18,108,6.943
14,190,6.944
12,291,6.945
10,337,6.946
10,283,6.947
11,233,6.948
12,273,6.949
7,334,6.95
1,321,6.951
-2,273,6.952
-3,263,6.953
-7,275,6.954
-13,260,6.955
-16,201,6.956
-13,89,6.957
-11,-78,6.958
-6,-243,6.959
4,-312,6.96
12,-274,6.961
7,-200,6.962
-2,-109,6.963
-4,17,6.964
-1,144,6.965
-7,248,6.966
-21,421,6.967
-31,717,6.968
-28,958,6.969
-22,914,6.97
-21,629,6.971
-23,331,6.972
-16,57,6.973
-3,-427,6.974
9,-1104,6.975
11,-1591,6.976
4,-1536,6.977
0,-1017,6.978
5,-408,6.979
15,44,6.98
23,344,6.981
30,550,6.982
37,692,6.983
42,842,6.984
41,1091,6.985
33,1385,6.986
26,1500,6.987
19,1280,6.988
10,838,6.989
-2,420,6.99
-7,66,6.991
-5,-473,6.992
0,-1317,6.993
0,-2357,6.994
-8,-3052,6.995
-20,-3074,6.996
-28,-2602,6.997
-29,-1940,6.998
-20,-1084,6.999
-6,87,7.0
8,1266,7.001
26,1766,7.002
40,1244,7.003
38,125,7.004
24,-891,7.005
19,-1514,7.006
37,-1772,7.007
63,-1532,7.008
70,-645,7.009
56,491,7.01
35,1142,7.011
19,1114,7.012
17,963,7.013
22,1145,7.014
28,1524,7.015
18,1727,7.016
-2,1664,7.017
-13,1444,7.018
-7,1069,7.019
-2,550,7.02
-9,58,7.021
-23,-248,7.022
-37,-341,7.023
-47,-267,7.024
-58,-127,7.025
-62,-75,7.026
-58,-138,7.027
-52,-139,7.028
-50,19,7.029
-47,163,7.03
-40,141,7.031
-26,77,7.032
-11,118,7.033
-2,162,7.034
5,99,7.035
12,36,7.036
16,-27,7.037
20,-98,7.038
21,-194,7.039
21,-246,7.04
19,-168,7.041
19,-93,7.042
24,-24,7.043
26,34,7.044
20,62,7.045
14,76,7.046
7,49,7.047
1,29,7.048
5,34,7.049
6,32,7.05
0,3,7.051
-6,-18,7.052
-7,-16,7.053
-7,-20,7.054
-3,-60,7.055
-5,-95,7.056
-8,-96,7.057
-5,-69,7.058
7,-28,7.059
17,18,7.06
14,36,7.061
3,0,7.062
-4,-49,7.063
-4,-40,7.064
-6,17,7.065
-10,37,7.066
-8,-6,7.067
-3,-40,7.068
-2,-21,7.069
-4,-14,7.07
-2,-90,7.071
6,-210,7.072
13,-271,7.073
14,-252,7.074
16,-182,7.075
19,-98,7.076
18,-17,7.077
13,35,7.078
16,52,7.079
29,81,7.08
35,153,7.081
23,213,7.082
4,215,7.083
-4,233,7.084
-8,348,7.085
-16,465,7.086
-20,415,7.087
-15,177,7.088
-8,-163,7.089
-5,-588,7.09
-10,-1060,7.091
-13,-1364,7.092
-10,-1311,7.093
-6,-951,7.094
0,-524,7.095
4,-132,7.096
6,269,7.097
7,607,7.098
12,719,7.099
20,668,7.1
26,665,7.101
25,664,7.102
19,383,7.103
11,-206,7.104
5,-736,7.105
-1,-904,7.106
-8,-787,7.107
-18,-579,7.108
-27,-305,7.109
-29,51,7.11
-20,372,7.111
-3,559,7.112
21,668,7.113
43,777,7.114
55,815,7.115
43,704,7.116
16,512,7.117
-1,327,7.118
5,103,7.119
15,-195,7.12
4,-444,7.121
-19,-503,7.122
-31,-404,7.123
-30,-264,7.124
-26,-102,7.125
-22,104,7.126
-11,278,7.127
8,324,7.128
21,286,7.129
24,298,7.13
22,359,7.131
19,318,7.132
13,105,7.133
-1,-218,7.134
-13,-471,7.135
-20,-567,7.136
-21,-555,7.137
-20,-499,7.138
-16,-406,7.139
-9,-272,7.14
-2,-131,7.141
6,-25,7.142
17,55,7.143
21,143,7.144
20,223,7.145
15,245,7.146
16,215,7.147
22,198,7.148
20,226,7.149
7,248,7.15
-6,219,7.151
-8,181,7.152
-3,198,7.153
-1,264,7.154
-4,309,7.155
-9,281,7.156
-14,217,7.157
-15,205,7.158
-8,262,7.159
5,268,7.16
13,60,7.161
7,-350,7.162
-3,-724,7.163
-7,-841,7.164
-6,-738,7.165
-6,-609,7.166
-6,-527,7.167
-1,-423,7.168
9,-265,7.169
18,-104,7.17
23,54,7.171
21,260,7.172
17,474,7.173
13,606,7.174
15,601,7.175
18,500,7.176
17,349,7.177
14,165,7.178
15,-2,7.179
19,-84,7.18
16,-94,7.181
1,-139,7.182
-10,-281,7.183
-13,-461,7.184
-13,-576,7.185
-17,-556,7.186
-18,-370,7.187
-10,-43,7.188
-1,309,7.189
0,517,7.19
-3,498,7.191
0,327,7.192
10,147,7.193
13,-12,7.194
7,-177,7.195
-6,-375,7.196
-16,-555,7.197
-18,-590,7.198
-10,-417,7.199
1,-128,7.2
6,115,7.201
3,258,7.202
4,359,7.203
15,429,7.204
22,394,7.205
19,262,7.206
8,181,7.207
-1,238,7.208
-7,336,7.209
-12,354,7.21
-15,300,7.211
-12,242,7.212
-10,182,7.213
-7,67,7.214
-2,-81,7.215
1,-221,7.216
3,-333,7.217
1,-399,7.218
1,-398,7.219
6,-330,7.22
8,-226,7.221
4,-103,7.222
2,36,7.223
6,165,7.224
16,230,7.225
23,230,7.226
26,211,7.227
24,185,7.228
18,119,7.229
10,11,7.23
2,-81,7.231
-6,-94,7.232
-13,-18,7.233
-21,117,7.234
-23,212,7.235
-21,125,7.236
-9,-168,7.237
8,-467,7.238
24,-549,7.239
31,-404,7.24
22,-228,7.241
8,-175,7.242
-1,-232,7.243
0,-293,7.244
3,-255,7.245
3,-87,7.246
5,135,7.247
9,268,7.248
11,262,7.249
5,215,7.25
-1,209,7.251
-3,216,7.252
-4,180,7.253
-6,120,7.254
-4,110,7.255
-3,179,7.256
-3,276,7.257
-7,313,7.258
-10,205,7.259
-7,-16,7.26
-7,-201,7.261
-14,-246,7.262
-16,-209,7.263
-10,-189,7.264
-5,-174,7.265
-2,-117,7.266
2,-60,7.267
15,-40,7.268
24,5,7.269
21,114,7.27
9,196,7.271
1,188,7.272
6,172,7.273
12,212,7.274
12,224,7.275
2,117,7.276
-5,-30,7.277
-9,-90,7.278
-5,-109,7.279
1,-182,7.28
4,-259,7.281
1,-231,7.282
-3,-118,7.283
-1,-11,7.284
6,77,7.285
14,169,7.286
13,230,7.287
9,225,7.288
5,195,7.289
6,182,7.29
5,163,7.291
1,121,7.292
-1,78,7.293
-3,29,7.294
-6,-36,7.295
-12,-100,7.296
-19,-147,7.297
-18,-222,7.298
-7,-360,7.299
7,-475,7.3
13,-477,7.301
12,-431,7.302
12,-441,7.303
15,-470,7.304
17,-391,7.305
12,-205,7.306
4,-11,7.307
6,153,7.308
14,309,7.309
17,430,7.31
14,473,7.311
6,469,7.312
5,464,7.313
9,432,7.314
12,360,7.315
8,286,7.316
-1,211,7.317
-9,56,7.318
-11,-197,7.319
-8,-413,7.32
-10,-461,7.321
-17,-372,7.322
-21,-246,7.323
-20,-108,7.324
-14,27,7.325
-9,86,7.326
-4,49,7.327
5,32,7.328
17,128,7.329
27,262,7.33
32,311,7.331
31,276,7.332
27,220,7.333
17,133,7.334
9,5,7.335
2,-118,7.336
-4,-196,7.337
-7,-229,7.338
-7,-195,7.339
-4,-35,7.34
-6,203,7.341
-12,339,7.342
-17,274,7.343
-13,126,7.344
-3,27,7.345
6,-65,7.346
10,-231,7.347
5,-376,7.348
-3,-345,7.349
-9,-160,7.35
-9,12,7.351
-5,79,7.352
0,80,7.353
4,51,7.354
5,6,7.355
5,-26,7.356
7,-29,7.357
16,-55,7.358
25,-181,7.359
26,-350,7.36
16,-387,7.361
2,-184,7.362
-3,156,7.363
-3,422,7.364
-3,496,7.365
-2,433,7.366
2,311,7.367
3,112,7.368
-2,-193,7.369
-12,-499,7.37
-18,-631,7.371
-15,-553,7.372
-6,-385,7.373
0,-197,7.374
6,-8,7.375
6,151,7.376
1,222,7.377
0,228,7.378
13,246,7.379
33,293,7.38
38,310,7.381
29,252,7.382
21,131,7.383
22,-22,7.384
24,-158,7.385
18,-212,7.386
8,-150,7.387
3,-15,7.388
2,130,7.389
0,252,7.39
-2,325,7.391
1,307,7.392
3,210,7.393
-3,74,7.394
-17,-22,7.395
-29,-50,7.396
-37,-29,7.397
-36,8,7.398
-31,32,7.399
-25,29,7.4
-25,-6,7.401
-21,-97,7.402
-1,-229,7.403
34,-311,7.404
63,-260,7.405
74,-137,7.406
73,-89,7.407
63,-141,7.408
32,-178,7.409
-13,-154,7.41
-46,-149,7.411
-47,-202,7.412
-37,-227,7.413
-43,-163,7.414
-60,-59,7.415
-61,26,7.416
-40,118,7.417
-30,247,7.418
-47,362,7.419
-75,419,7.42
-83,450,7.421
-64,491,7.422
-26,504,7.423
14,429,7.424
39,286,7.425
37,163,7.426
21,90,7.427
14,-9,7.428
21,-224,7.429
27,-502,7.43
22,-676,7.431
21,-653,7.432
30,-505,7.433
45,-308,7.434
56,-90,7.435
58,135,7.436
59,321,7.437
59,438,7.438
58,455,7.439
57,326,7.44
54,101,7.441
45,-53,7.442
35,-94,7.443
33,-237,7.444
36,-610,7.445
37,-938,7.446
30,-848,7.447
17,-386,7.448
2,92,7.449
-10,406,7.45
-16,599,7.451
-13,631,7.452
-8,442,7.453
-11,121,7.454
-17,-78,7.455
-22,-87,7.456
-27,-37,7.457
-32,4,7.458
-31,24,7.459
-23,-60,7.46
-15,-268,7.461
-12,-417,7.462
-6,-338,7.463
6,-121,7.464
11,73,7.465
2,251,7.466
-9,453,7.467
-11,558,7.468
-10,467,7.469
-13,310,7.47
-17,238,7.471
-10,197,7.472
0,110,7.473
3,52,7.474
3,93,7.475
2,76,7.476
0,-151,7.477
0,-427,7.478
4,-516,7.479
9,-461,7.48
15,-442,7.481
17,-415,7.482
7,-242,7.483
0,-39,7.484
1,-44,7.485
0,-205,7.486
-8,-245,7.487
-14,-85,7.488
-15,88,7.489
-15,192,7.49
-9,327,7.491
-5,495,7.492
-5,556,7.493
-5,474,7.494
-1,303,7.495
2,130,7.496
5,-61,7.497
8,-211,7.498
18,-155,7.499
30,160,7.5
29,540,7.501
13,715,7.502
-1,565,7.503
-1,192,7.504
8,-174,7.505
16,-389,7.506
12,-517,7.507
-12,-650,7.508
-44,-717,7.509
-58,-622,7.51
-37,-475,7.511
-7,-424,7.512
-7,-394,7.513
-28,-225,7.514
-21,-84,7.515
15,-106,7.516
43,-161,7.517
48,-69,7.518
51,99,7.519
50,207,7.52
32,302,7.521
4,440,7.522
-6,493,7.523
2,369,7.524
9,210,7.525
6,184,7.526
7,258,7.527
12,310,7.528
6,316,7.529
-7,294,7.53
-13,253,7.531
-11,229,7.532
-13,270,7.533
-19,351,7.534
-22,402,7.535
-25,388,7.536
-30,282,7.537
-27,-3,7.538
-7,-512,7.539
17,-1044,7.54
21,-1288,7.541
11,-1145,7.542
6,-774,7.543
14,-365,7.544
18,-11,7.545
13,204,7.546
11,226,7.547
19,160,7.548
33,208,7.549
46,433,7.55
59,695,7.551
69,874,7.552
65,966,7.553
41,962,7.554
7,772,7.555
-24,361,7.556
-48,-166,7.557
-63,-673,7.558
-65,-1085,7.559
-58,-1321,7.56
-53,-1285,7.561
-50,-1001,7.562
-38,-627,7.563
-12,-311,7.564
15,-96,7.565
29,32,7.566
28,119,7.567
23,221,7.568
19,338,7.569
18,391,7.57
23,347,7.571
31,296,7.572
35,323,7.573
28,388,7.574
17,405,7.575
5,373,7.576
-5,354,7.577
-14,376,7.578
-15,401,7.579
-10,369,7.58
-9,206,7.581
-14,-102,7.582
-13,-426,7.583
-4,-555,7.584
0,-400,7.585
-4,-98,7.586
-4,129,7.587
5,157,7.588
13,11,7.589
11,-207,7.59
12,-404,7.591
20,-524,7.592
22,-547,7.593
9,-465,7.594
-8,-260,7.595
-13,67,7.596
-5,442,7.597
5,704,7.598
20,692,7.599
34,410,7.6
32,34,7.601
7,-277,7.602
-15,-494,7.603
-12,-587,7.604
0,-463,7.605
1,-113,7.606
-5,264,7.607
-5,440,7.608
6,378,7.609
14,197,7.61
15,0,7.611
12,-176,7.612
11,-282,7.613
7,-281,7.614
5,-157,7.615
4,40,7.616
-2,217,7.617
-10,296,7.618
-9,276,7.619
2,223,7.62
8,154,7.621
-1,2,7.622
-13,-250,7.623
-15,-466,7.624
-8,-486,7.625
-3,-304,7.626
-2,-50,7.627
2,161,7.628
10,269,7.629
11,252,7.63
5,179,7.631
0,178,7.632
3,268,7.633
6,284,7.634
5,151,7.635
2,32,7.636
-7,-41,7.637
-15,-99,7.638
-14,-109,7.639
-13,-100,7.64
-14,-34,7.641
-15,12,7.642
-15,1,7.643
-13,-3,7.644
0,10,7.645
11,9,7.646
17,-36,7.647
22,-67,7.648
20,-53,7.649
15,-13,7.65
4,103,7.651
-3,197,7.652
0,225,7.653
3,223,7.654
4,104,7.655
3,-5,7.656
4,-66,7.657
2,-126,7.658
2,-236,7.659
8,-368,7.66
11,-475,7.661
6,-520,7.662
-4,-432,7.663
-8,-163,7.664
-5,183,7.665
-1,378,7.666
5,324,7.667
17,169,7.668
30,88,7.669
38,69,7.67
33,26,7.671
23,-13,7.672
14,21,7.673
2,103,7.674
-8,124,7.675
-19,22,7.676
-25,-182,7.677
-25,-413,7.678
-19,-539,7.679
-12,-414,7.68
-10,-34,7.681
-11,389,7.682
-10,597,7.683
-5,507,7.684
0,249,7.685
7,-6,7.686
13,-187,7.687
16,-307,7.688
8,-373,7.689
-3,-343,7.69
-4,-184,7.691
11,59,7.692
26,271,7.693
24,382,7.694
10,373,7.695
-5,291,7.696
-6,194,7.697
3,122,7.698
19,66,7.699
28,4,7.7
27,-69,7.701
19,-118,7.702
10,-103,7.703
2,-21,7.704
-9,69,7.705
-17,94,7.706
-16,43,7.707
-7,-18,7.708
-3,-31,7.709
-4,-15,7.71
-3,-45,7.711
0,-146,7.712
1,-258,7.713
-2,-341,7.714
-2,-368,7.715
-3,-327,7.716
-6,-211,7.717
-7,-33,7.718
1,152,7.719
14,325,7.72
19,483,7.721
15,562,7.722
12,449,7.723
15,160,7.724
13,-101,7.725
5,-159,7.726
0,-69,7.727
-1,-3,7.728
-5,-15,7.729
-15,-14,7.73
-21,55,7.731
-21,124,7.732
-18,85,7.733
-16,-126,7.734
-14,-422,7.735
-11,-621,7.736
-11,-596,7.737
-13,-367,7.738
-12,-70,7.739
-5,161,7.74
4,247,7.741
12,205,7.742
20,160,7.743
25,223,7.744
24,329,7.745
20,321,7.746
19,160,7.747
20,-50,7.748
19,-226,7.749
16,-320,7.75
12,-259,7.751
5,-39,7.752
-1,177,7.753
-3,262,7.754
0,233,7.755
0,176,7.756
-7,59,7.757
-12,-148,7.758
-3,-317,7.759
12,-294,7.76
18,-136,7.761
13,0,7.762
5,92,7.763
0,241,7.764
-4,429,7.765
-4,518,7.766
4,396,7.767
22,63,7.768
32,-376,7.769
29,-728,7.77
17,-803,7.771
4,-582,7.772
-5,-254,7.773
-11,28,7.774
-12,170,7.775
-13,173,7.776
-18,107,7.777
-21,90,7.778
-16,180,7.779
-7,307,7.78
-1,346,7.781
0,252,7.782
1,79,7.783
3,-82,7.784
3,-162,7.785
3,-137,7.786
5,-54,7.787
4,29,7.788
-2,111,7.789
-12,220,7.79
-12,352,7.791
-4,456,7.792
7,464,7.793
17,284,7.794
21,-79,7.795
16,-449,7.796
0,-579,7.797
-9,-437,7.798
-6,-259,7.799
-2,-245,7.8
-7,-332,7.801
-13,-335,7.802
-8,-218,7.803
8,-69,7.804
22,59,7.805
28,171,7.806
31,242,7.807
28,224,7.808
19,137,7.809
8,48,7.81
5,-8,7.811
11,-45,7.812
10,-58,7.813
-1,-26,7.814
-10,44,7.815
-15,106,7.816
-13,155,7.817
-11,266,7.818
-4,514,7.819
3,829,7.82
4,966,7.821
1,687,7.822
2,60,7.823
6,-535,7.824
0,-801,7.825
-17,-811,7.826
-29,-787,7.827
-29,-749,7.828
-22,-595,7.829
-17,-392,7.83
-24,-285,7.831
-45,-203,7.832
-70,5,7.833
-86,284,7.834
-70,372,7.835
-30,236,7.836
4,153,7.837
29,286,7.838
63,479,7.839
96,538,7.84
100,426,7.841
71,154,7.842
43,-237,7.843
47,-564,7.844
60,-596,7.845
46,-329,7.846
12,29,7.847
2,315,7.848
33,464,7.849
62,399,7.85
43,118,7.851
-16,-173,7.852
-71,-242,7.853
-112,-105,7.854
-129,57,7.855
-96,162,7.856
-2,259,7.857
104,331,7.858
149,250,7.859
128,4,7.86
97,-238,7.861
84,-303,7.862
76,-176,7.863
65,2,7.864
56,39,7.865
44,-166,7.866
24,-462,7.867
12,-553,7.868
7,-331,7.869
-9,-40,7.87
-39,47,7.871
-53,-35,7.872
-40,-55,7.873
-33,76,7.874
-43,263,7.875
-47,398,7.876
-32,437,7.877
-23,345,7.878
-33,110,7.879
-44,-152,7.88
-53,-300,7.881
-58,-309,7.882
-47,-232,7.883
-32,-106,7.884
-10,28,7.885
7,117,7.886
8,190,7.887
11,324,7.888
15,455,7.889
13,401,7.89
-8,131,7.891
-26,-157,7.892
-28,-294,7.893
-30,-318,7.894
-31,-298,7.895
-31,-236,7.896
-31,-141,7.897
-32,-67,7.898
-25,-29,7.899
-10,32,7.9
5,121,7.901
9,172,7.902
10,161,7.903
16,125,7.904
24,73,7.905
25,-1,7.906
19,-66,7.907
13,-72,7.908
8,-35,7.909
5,21,7.91
3,138,7.911
4,362,7.912
7,631,7.913
4,765,7.914
0,626,7.915
-2,360,7.916
0,-288,7.917
0,-824,7.918
1,-1026,7.919
2,-1126,7.92
1,-916,7.921
-5,-684,7.922
-11,-387,7.923
-8,-103,7.924
0,138,7.925
10,354,7.926
21,492,7.927
37,542,7.928
51,325,7.929
51,141,7.93
39,57,7.931
25,-7,7.932
19,-6,7.933
18,-6,7.934
15,37,7.935
6,138,7.936
-3,179,7.937
-8,113,7.938
-3,18,7.939
8,-13,7.94
15,35,7.941
11,125,7.942
0,199,7.943
-6,215,7.944
-3,165,7.945
4,89,7.946
10,57,7.947
8,108,7.948
6,171,7.949
0,76,7.95
-12,-257,7.951
-20,-637,7.952
-19,-783,7.953
-10,-631,7.954
-2,-340,7.955
-5,-76,7.956
-10,105,7.957
-11,194,7.958
-8,206,7.959
-3,226,7.96
4,286,7.961
14,294,7.962
19,200,7.963
18,121,7.964
13,114,7.965
7,72,7.966
1,-20,7.967
-3,1,7.968
-2,139,7.969
5,114,7.97
10,-187,7.971
14,-459,7.972
17,-446,7.973
17,-265,7.974
16,-135,7.975
12,-23,7.976
2,146,7.977
-8,231,7.978
-13,102,7.979
-9,-58,7.98
-3,-37,7.981
-3,79,7.982
-9,105,7.983
-11,66,7.984
-6,67,7.985
2,66,7.986
8,16,7.987
11,1,7.988
15,65,7.989
20,105,7.99
21,70,7.991
14,70,7.992
-2,143,7.993
-15,180,7.994
-18,150,7.995
-18,127,7.996
-22,123,7.997
-29,69,7.998
-29,-130,7.999
-20,-326,8.0
-12,-511,8.001
-11,-625,8.002
-13,-527,8.003
-8,-391,8.004
4,-145,8.005
23,48,8.006
34,80,8.007
30,126,8.008
14,214,8.009
3,286,8.01
16,311,8.011
41,347,8.012
55,415,8.013
42,442,8.014
11,268,8.015
-19,-13,8.016
-29,-272,8.017
-21,-320,8.018
-5,-77,8.019
5,228,8.02
5,216,8.021
0,-170,8.022
3,-549,8.023
12,-578,8.024
18,-311,8.025
13,4,8.026
0,253,8.027
-4,388,8.028
3,307,8.029
7,9,8.03
-1,-268,8.031
-12,-305,8.032
-5,-164,8.033
14,0,8.034
26,135,8.035
14,245,8.036
-5,251,8.037
-12,119,8.038
-4,0,8.039
3,42,8.04
2,158,8.041
-2,170,8.042
-6,59,8.043
-16,-80,8.044
-33,-193,8.045
-51,-225,8.046
-67,-115,8.047
-76,63,8.048
-71,102,8.049
-47,-61,8.05
-10,-231,8.051
39,-218,8.052
83,-92,8.053
108,-13,8.054
113,-40,8.055
101,-101,8.056
74,-125,8.057
34,-79,8.058
7,28,8.059
20,167,8.06
46,279,8.061
41,345,8.062
8,372,8.063
-9,341,8.064
-3,193,8.065
-6,-59,8.066
-25,-286,8.067
-35,-332,8.068
-32,-155,8.069
-33,154,8.07
-44,419,8.071
-43,424,8.072
-26,97,8.073
-12,-448,8.074
-7,-813,8.075
-3,-726,8.076
2,-332,8.077
-1,23,8.078
-8,177,8.079
-7,206,8.08
-1,196,8.081
-6,160,8.082
-19,155,8.083
-24,244,8.084
-19,345,8.085
-15,287,8.086
-8,54,8.087
6,-185,8.088
20,-293,8.089
26,-280,8.09
35,-203,8.091
46,-96,8.092
46,-14,8.093
26,-4,8.094
-6,-27,8.095
-28,-6,8.096
-29,38,8.097
-13,29,8.098
12,-11,8.099
33,18,8.1
30,102,8.101
12,131,8.102
6,134,8.103
17,254,8.104
20,453,8.105
5,461,8.106
-6,146,8.107
-10,-291,8.108
-29,-579,8.109
-67,-651,8.11
-89,-558,8.111
-67,-321,8.112
-18,-33,8.113
28,169,8.114
66,199,8.115
98,163,8.116
119,174,8.117
123,201,8.118
107,178,8.119
71,136,8.12
10,104,8.121
-60,57,8.122
-113,-6,8.123
-127,-40,8.124
-107,-54,8.125
-68,-95,8.126
-32,-131,8.127
-18,-66,8.128
-18,98,8.129
-10,234,8.13
11,224,8.131
21,72,8.132
15,-103,8.133
20,-216,8.134
75,-233,8.135
158,-197,8.136
207,-136,8.137
178,-28,8.138
106,64,8.139
48,20,8.14
17,-133,8.141
-13,-174,8.142
-48,27,8.143
-62,293,8.144
-48,353,8.145
-30,169,8.146
-22,-57,8.147
-17,-154,8.148
-12,-114,8.149
-20,-23,8.15
-37,67,8.151
-45,146,8.152
-39,192,8.153
-44,146,8.154
-60,-14,8.155
-72,-198,8.156
-71,-250,8.157
-72,-130,8.158
-71,3,8.159
-56,-10,8.16
-29,-131,8.161
-12,-196,8.162
-7,-145,8.163
2,-57,8.164
30,19,8.165
56,116,8.166
63,218,8.167
52,246,8.168
34,220,8.169
24,237,8.17
24,258,8.171
25,118,8.172
18,-145,8.173
3,-313,8.174
-3,-238,8.175
-5,-91,8.176
-9,-73,8.177
-16,-104,8.178
-14,-25,8.179
-4,135,8.18
-1,257,8.181
-8,280,8.182
-10,144,8.183
-5,-167,8.184
-6,-426,8.185
-13,-307,8.186
-17,121,8.187
-9,365,8.188
0,128,8.189
0,-313,8.19
0,-530,8.191
5,-452,8.192
15,-268,8.193
18,-57,8.194
18,161,8.195
17,313,8.196
15,336,8.197
18,289,8.198
27,217,8.199
39,96,8.2
42,-25,8.201
38,-13,8.202
32,127,8.203
27,216,8.204
18,171,8.205
5,97,8.206
-6,54,8.207
-14,-59,8.208
-15,-254,8.209
-16,-351,8.21
-16,-254,8.211
-19,-89,8.212
-29,8,8.213
-45,54,8.214
-51,84,8.215
-44,55,8.216
-34,-36,8.217
-27,-92,8.218
-15,-76,8.219
16,-52,8.22
61,-45,8.221
95,-18,8.222
94,21,8.223
52,11,8.224
-1,-27,8.225
-35,-13,8.226
-38,80,8.227
-33,208,8.228
-33,359,8.229
-23,511,8.23
9,515,8.231
46,197,8.232
72,-332,8.233
87,-701,8.234
93,-631,8.235
84,-493,8.236
23,-149,8.237
-23,99,8.238
-25,60,8.239
-28,48,8.24
-26,116,8.241
-22,166,8.242
-8,156,8.243
3,149,8.244
11,151,8.245
17,152,8.246
19,144,8.247
20,111,8.248
14,8,8.249
7,-71,8.25
1,-82,8.251
-7,-74,8.252
-23,-8,8.253
-36,20,8.254
-27,-95,8.255
-22,-171,8.256
-38,-147,8.257
-53,-106,8.258
-41,-85,8.259
-17,-20,8.26
-13,54,8.261
-24,14,8.262
-22,-107,8.263
-8,-118,8.264
0,23,8.265
-2,121,8.266
2,74,8.267
14,5,8.268
23,24,8.269
24,60,8.27
17,47,8.271
6,48,8.272
2,96,8.273
14,132,8.274
26,104,8.275
18,60,8.276
-5,6,8.277
-20,-66,8.278
-14,-120,8.279
-2,-122,8.28
-1,-121,8.281
-7,-158,8.282
-9,-128,8.283
-7,73,8.284
-5,325,8.285
-5,376,8.286
-5,166,8.287
-6,-89,8.288
-7,-179,8.289
-7,-130,8.29
-7,-100,8.291
-7,-138,8.292
-4,-163,8.293
4,-111,8.294
16,-21,8.295
23,42,8.296
32,76,8.297
47,116,8.298
63,137,8.299
72,95,8.3
67,12,8.301
50,-29,8.302
29,-9,8.303
9,8,8.304
-4,-18,8.305
-9,-59,8.306
-13,-62,8.307
-20,-10,8.308
-28,87,8.309
-35,182,8.31
-37,188,8.311
-30,57,8.312
-21,-133,8.313
-14,-303,8.314
-12,-384,8.315
-17,-354,8.316
-21,-215,8.317
-23,-20,8.318
-25,114,8.319
-24,142,8.32
-17,178,8.321
1,312,8.322
23,438,8.323
38,390,8.324
52,173,8.325
72,-56,8.326
93,-203,8.327
86,-256,8.328
45,-180,8.329
-1,31,8.33
-20,223,8.331
-12,191,8.332
-1,-46,8.333
-6,-292,8.334
-21,-341,8.335
-25,-202,8.336
-6,-10,8.337
30,154,8.338
56,243,8.339
54,192,8.34
27,23,8.341
-1,-101,8.342
-4,-41,8.343
11,126,8.344
16,170,8.345
-1,-7,8.346
-19,-245,8.347
-15,-300,8.348
0,-137,8.349
3,48,8.35
-1,105,8.351
2,125,8.352
15,222,8.353
20,316,8.354
21,210,8.355
23,-72,8.356
19,-271,8.357
-1,-258,8.358
-22,-175,8.359
-24,-152,8.36
-12,-125,8.361
-6,-37,8.362
-13,21,8.363
-17,-3,8.364
-14,-8,8.365
-12,76,8.366
-9,150,8.367
4,99,8.368
16,-15,8.369
18,-60,8.37
15,-24,8.371
14,-15,8.372
16,-94,8.373
6,-213,8.374
-11,-243,8.375
-26,-114,8.376
-38,93,8.377
-37,246,8.378
-19,297,8.379
9,315,8.38
23,354,8.381
18,334,8.382
10,120,8.383
10,-255,8.384
12,-554,8.385
8,-552,8.386
6,-298,8.387
12,-56,8.388
14,0,8.389
4,-24,8.39
-3,54,8.391
-1,200,8.392
7,244,8.393
10,153,8.394
7,102,8.395
2,179,8.396
-6,243,8.397
-15,177,8.398
-14,100,8.399
2,184,8.4
23,343,8.401
32,317,8.402
33,18,8.403
26,-346,8.404
6,-506,8.405
-21,-402,8.406
-36,-175,8.407
-32,20,8.408
-23,127,8.409
-19,117,8.41
-11,-36,8.411
0,-252,8.412
10,-329,8.413
9,-177,8.414
3,26,8.415
-5,30,8.416
-16,-129,8.417
-22,-179,8.418
-18,-42,8.419
-7,86,8.42
-4,84,8.421
-8,66,8.422
-3,120,8.423
12,154,8.424
18,92,8.425
10,14,8.426
4,-1,8.427
8,-1,8.428
9,-37,8.429
0,-53,8.43
-8,0,8.431
-7,77,8.432
-3,113,8.433
-5,79,8.434
-10,-14,8.435
-17,-98,8.436
-22,-78,8.437
-25,44,8.438
-18,119,8.439
-2,41,8.44
11,-93,8.441
10,-123,8.442
7,-46,8.443
13,18,8.444
21,18,8.445
21,15,8.446
17,70,8.447
16,153,8.448
15,160,8.449
10,12,8.45
2,-220,8.451
0,-332,8.452
3,-231,8.453
2,-28,8.454
-3,71,8.455
-9,33,8.456
-14,-21,8.457
-10,-19,8.458
5,2,8.459
22,34,8.46
28,108,8.461
19,183,8.462
10,186,8.463
9,142,8.464
4,127,8.465
-6,101,8.466
-17,-27,8.467
-16,-194,8.468
-10,-218,8.469
-7,-65,8.47
-5,85,8.471
2,92,8.472
9,23,8.473
7,-5,8.474
4,41,8.475
2,107,8.476
2,131,8.477
0,67,8.478
0,-89,8.479
3,-228,8.48
2,-205,8.481
-5,-30,8.482
-10,154,8.483
-8,254,8.484
-7,276,8.485
-8,206,8.486
-7,8,8.487
-2,-252,8.488
-1,-413,8.489
-3,-397,8.49
0,-276,8.491
8,-160,8.492
10,-87,8.493
0,-42,8.494
-8,4,8.495
-7,85,8.496
0,177,8.497
5,209,8.498
13,129,8.499
22,4,8.5
27,-48,8.501
20,12,8.502
10,126,8.503
5,207,8.504
0,193,8.505
-7,65,8.506
-16,-117,8.507
-19,-227,8.508
-14,-182,8.509
-7,-49,8.51
0,10,8.511
8,-86,8.512
15,-235,8.513
15,-298,8.514
8,-218,8.515
-3,-74,8.516
-14,31,8.517
-21,98,8.518
-18,169,8.519
-7,260,8.52
3,332,8.521
8,317,8.522
9,183,8.523
12,-5,8.524
19,-110,8.525
27,-67,8.526
35,37,8.527
40,70,8.528
40,17,8.529
33,-36,8.53
23,-35,8.531
12,-9,8.532
5,13,8.533
0,35,8.534
-3,51,8.535
-12,36,8.536
-23,-16,8.537
-28,-62,8.538
-21,-71,8.539
-10,-61,8.54
-5,-65,8.541
-10,-73,8.542
-15,-56,8.543
-14,-17,8.544
-9,13,8.545
-5,33,8.546
-1,72,8.547
8,130,8.548
18,139,8.549
22,37,8.55
19,-110,8.551
12,-169,8.552
8,-110,8.553
8,-35,8.554
10,-30,8.555
4,-42,8.556
-4,21,8.557
-7,126,8.558
0,147,8.559
7,65,8.56
3,0,8.561
-7,48,8.562
-11,171,8.563
-5,230,8.564
0,115,8.565
2,-150,8.566
7,-392,8.567
13,-447,8.568
15,-335,8.569
14,-206,8.57
10,-139,8.571
7,-79,8.572
2,5,8.573
-5,77,8.574
-4,110,8.575
4,148,8.576
13,235,8.577
16,354,8.578
16,383,8.579
16,179,8.58
13,-223,8.581
6,-536,8.582
4,-475,8.583
8,-146,8.584
11,82,8.585
3,65,8.586
-7,6,8.587
-11,57,8.588
-6,120,8.589
-2,117,8.59
-1,128,8.591
0,178,8.592
-2,170,8.593
-3,76,8.594
-4,48,8.595
-2,151,8.596
-2,223,8.597
-4,121,8.598
3,-84,8.599
22,-217,8.6
37,-206,8.601
33,-109,8.602
17,-22,8.603
6,-10,8.604
5,-55,8.605
4,-64,8.606
-4,18,8.607
-9,121,8.608
-9,141,8.609
-10,90,8.61
-18,65,8.611
-25,83,8.612
-23,65,8.613
-17,-35,8.614
-7,-149,8.615
-4,-199,8.616
-2,-184,8.617
3,-133,8.618
12,-82,8.619
17,-57,8.62
11,-65,8.621
1,-59,8.622
0,-13,8.623
8,28,8.624
16,18,8.625
18,-4,8.626
17,28,8.627
17,94,8.628
13,127,8.629
4,128,8.63
-2,148,8.631
-3,210,8.632
-2,280,8.633
-1,306,8.634
0,215,8.635
0,-25,8.636
-2,-320,8.637
-2,-486,8.638
3,-456,8.639
5,-328,8.64
-5,-202,8.641
-21,-75,8.642
-26,61,8.643
-16,143,8.644
-2,126,8.645
11,68,8.646
18,45,8.647
23,76,8.648
27,156,8.649
24,268,8.65
13,314,8.651
0,161,8.652
-3,-143,8.653
-4,-420,8.654
-5,-439,8.655
-11,-222,8.656
-16,2,8.657
-9,94,8.658
8,90,8.659
25,73,8.66
32,68,8.661
31,69,8.662
30,88,8.663
27,120,8.664
21,139,8.665
7,139,8.666
-7,132,8.667
-17,119,8.668
-20,96,8.669
-20,80,8.67
-19,55,8.671
-17,-38,8.672
-12,-198,8.673
-8,-346,8.674
-4,-361,8.675
-5,-233,8.676
-7,-51,8.677
-2,113,8.678
15,202,8.679
30,158,8.68
31,0,8.681
18,-146,8.682
6,-173,8.683
1,-110,8.684
-6,-56,8.685
-18,-41,8.686
-20,-31,8.687
-14,-10,8.688
-5,10,8.689
-4,25,8.69
-1,45,8.691
12,83,8.692
22,144,8.693
18,215,8.694
7,236,8.695
0,179,8.696
-4,100,8.697
-9,48,8.698
-11,-30,8.699
-8,-163,8.7
-6,-234,8.701
-10,-152,8.702
-8,-35,8.703
1,-49,8.704
13,-151,8.705
20,-171,8.706
26,-79,8.707
30,21,8.708
26,81,8.709
18,119,8.71
13,117,8.711
14,55,8.712
10,1,8.713
-5,33,8.714
-19,152,8.715
-23,266,8.716
-22,264,8.717
-17,103,8.718
-11,-154,8.719
-4,-328,8.72
-6,-294,8.721
-10,-125,8.722
-2,-10,8.723
15,-36,8.724
23,-119,8.725
16,-124,8.726
6,1,8.727
4,165,8.728
3,189,8.729
-2,15,8.73
-2,-194,8.731
7,-233,8.732
16,-110,8.733
19,26,8.734
16,82,8.735
10,102,8.736
1,122,8.737
-4,116,8.738
1,91,8.739
15,99,8.74
22,130,8.741
19,110,8.742
12,50,8.743
7,35,8.744
3,89,8.745
0,128,8.746
-3,87,8.747
-7,-9,8.748
-14,-95,8.749
-19,-133,8.75
-16,-120,8.751
-7,-80,8.752
-4,-33,8.753
-9,16,8.754
-9,38,8.755
-3,-23,8.756
3,-173,8.757
6,-292,8.758
12,-267,8.759
22,-139,8.76
25,-36,8.761
13,12,8.762
3,87,8.763
6,211,8.764
15,280,8.765
15,199,8.766
9,28,8.767
3,-93,8.768
1,-107,8.769
-2,-75,8.77
-6,-58,8.771
-6,-42,8.772
-5,-2,8.773
-12,52,8.774
-18,88,8.775
-17,96,8.776
-12,63,8.777
-11,-6,8.778
-12,-67,8.779
-7,-62,8.78
-1,-20,8.781
-4,-20,8.782
-8,-47,8.783
-9,8,8.784
-7,154,8.785
-7,234,8.786
-5,129,8.787
5,-90,8.788
19,-242,8.789
22,-230,8.79
24,-65,8.791
31,155,8.792
43,287,8.793
47,232,8.794
37,31,8.795
16,-154,8.796
-5,-230,8.797
-17,-231,8.798
-16,-201,8.799
-8,-93,8.8
-2,99,8.801
5,260,8.802
15,276,8.803
24,172,8.804
26,31,8.805
21,-107,8.806
15,-227,8.807
4,-280,8.808
-12,-230,8.809
-30,-112,8.81
-38,7,8.811
-32,94,8.812
-21,152,8.813
-15,167,8.814
-15,122,8.815
-12,50,8.816
-1,10,8.817
13,11,8.818
30,-5,8.819
48,-54,8.82
58,-75,8.821
47,-23,8.822
21,40,8.823
0,45,8.824
-4,16,8.825
-1,16,8.826
-1,37,8.827
-6,35,8.828
-6,22,8.829
-3,53,8.83
1,127,8.831
2,173,8.832
0,134,8.833
-8,17,8.834
-15,-100,8.835
-19,-141,8.836
-19,-86,8.837
-20,23,8.838
-21,118,8.839
-13,144,8.84
-3,98,8.841
-1,-8,8.842
-4,-159,8.843
-10,-336,8.844
-16,-474,8.845
-20,-487,8.846
-19,-358,8.847
-14,-171,8.848
-6,-8,8.849
0,107,8.85
8,183,8.851
16,206,8.852
20,194,8.853
19,192,8.854
20,213,8.855
24,201,8.856
30,114,8.857
31,12,8.858
30,-35,8.859
27,-32,8.86
18,-3,8.861
4,77,8.862
-2,213,8.863
1,331,8.864
8,341,8.865
5,237,8.866
-4,69,8.867
-9,-95,8.868
-9,-204,8.869
-5,-223,8.87
-5,-178,8.871
-7,-133,8.872
-8,-141,8.873
-10,-222,8.874
-9,-326,8.875
-9,-372,8.876
-10,-309,8.877
-14,-167,8.878
-10,-8,8.879
2,134,8.88
17,239,8.881
23,262,8.882
26,213,8.883
36,179,8.884
50,195,8.885
54,172,8.886
46,54,8.887
30,-57,8.888
16,-46,8.889
0,25,8.89
-11,14,8.891
-21,-78,8.892
-32,-115,8.893
-49,-23,8.894
-62,134,8.895
-60,211,8.896
-40,107,8.897
-18,-145,8.898
0,-390,8.899
12,-469,8.9
24,-362,8.901
33,-176,8.902
32,-10,8.903
13,94,8.904
-2,125,8.905
19,104,8.906
80,96,8.907
139,138,8.908
134,175,8.909
52,153,8.91
-57,103,8.911
-132,72,8.912
-152,55,8.913
-129,21,8.914
-80,-2,8.915
-21,3,8.916
22,8,8.917
31,3,8.918
19,14,8.919
14,43,8.92
20,47,8.921
14,21,8.922
-7,18,8.923
-12,69,8.924
11,154,8.925
35,234,8.926
31,267,8.927
12,212,8.928
1,91,8.929
0,-20,8.93
-5,-101,8.931
-14,-205,8.932
-12,-329,8.933
1,-399,8.934
18,-366,8.935
31,-301,8.936
36,-256,8.937
26,-157,8.938
5,10,8.939
-9,110,8.94
-7,59,8.941
0,-34,8.942
0,-39,8.943
9,17,8.944
35,62,8.945
57,110,8.946
50,172,8.947
26,163,8.948
19,47,8.949
26,-55,8.95
20,-42,8.951
-12,14,8.952
-42,14,8.953
-55,-19,8.954
-57,-5,8.955
-62,35,8.956
-57,29,8.957
-33,5,8.958
-1,18,8.959
26,50,8.96
46,54,8.961
61,39,8.962
62,42,8.963
41,50,8.964
8,48,8.965
-13,56,8.966
-18,73,8.967
-14,59,8.968
-17,12,8.969
-25,11,8.97
-29,99,8.971
-23,191,8.972
-11,170,8.973
-2,0,8.974
-7,-208,8.975
-30,-311,8.976
-44,-260,8.977
-21,-123,8.978
34,-5,8.979
74,52,8.98
59,63,8.981
12,26,8.982
-14,-81,8.983
0,-227,8.984
36,-313,8.985
78,-279,8.986
111,-169,8.987
103,-31,8.988
31,125,8.989
-70,262,8.99
-125,282,8.991
-110,161,8.992
-70,38,8.993
-48,9,8.994
-43,40,8.995
-44,41,8.996
-51,40,8.997
-50,108,8.998
-19,174,8.999
40,127,9.0
77,17,9.001
70,4,9.002
48,110,9.003
42,200,9.004
42,176,9.005
30,76,9.006
17,-56,9.007
16,-201,9.008
14,-300,9.009
-1,-289,9.01
-11,-213,9.011
-3,-177,9.012
14,-184,9.013
29,-164,9.014
39,-96,9.015
43,-18,9.016
30,74,9.017
3,207,9.018
-12,303,9.019
-7,265,9.02
5,138,9.021
16,29,9.022
33,-61,9.023
43,-184,9.024
23,-282,9.025
-22,-258,9.026
-63,-146,9.027
-83,-53,9.028
-85,4,9.029
-70,78,9.03
-35,137,9.031
-1,133,9.032
1,110,9.033
-27,113,9.034
-37,101,9.035
-5,73,9.036
41,-4,9.037
63,-56,9.038
63,-30,9.039
65,-7,9.04
74,7,9.041
83,33,9.042
78,90,9.043
45,145,9.044
-11,191,9.045
-55,198,9.046
-58,86,9.047
-41,-31,9.048
-36,-160,9.049
-50,-223,9.05
-52,-89,9.051
-38,24,9.052
-27,72,9.053
-24,90,9.054
-18,3,9.055
-8,-45,9.056
-7,-11,9.057
-10,41,9.058
-1,36,9.059
20,8,9.06
31,21,9.061
26,23,9.062
25,-80,9.063
33,-246,9.064
38,-332,9.065
37,-303,9.066
38,-243,9.067
35,-188,9.068
14,-77,9.069
-19,98,9.07
-27,244,9.071
1,309,9.072
38,332,9.073
56,324,9.074
58,211,9.075
61,-29,9.076
57,-267,9.077
32,-362,9.078
-5,-332,9.079
-40,-257,9.08
-65,-158,9.081
-76,-31,9.082
-71,69,9.083
-54,100,9.084
-37,104,9.085
-15,131,9.086
16,147,9.087
52,115,9.088
71,85,9.089
71,100,9.09
62,118,9.091
45,93,9.092
22,68,9.093
-2,93,9.094
-14,148,9.095
-28,166,9.096
-65,131,9.097
-112,70,9.098
-130,-11,9.099
-114,-95,9.1
-84,-130,9.101
-53,-108,9.102
-23,-96,9.103
-1,-133,9.104
2,-162,9.105
2,-130,9.106
23,-81,9.107
62,-81,9.108
91,-103,9.109
102,-81,9.11
105,-22,9.111
108,33,9.112
99,92,9.113
65,181,9.114
21,237,9.115
-12,165,9.116
-20,-17,9.117
-10,-170,9.118
-2,-204,9.119
-10,-153,9.12
-30,-76,9.121
-38,8,9.122
-20,75,9.123
13,80,9.124
37,38,9.125
47,33,9.126
53,116,9.127
53,245,9.128
31,349,9.129
-18,370,9.13
-69,268,9.131
-90,57,9.132
-85,-123,9.133
-76,-162,9.134
-78,-103,9.135
-81,-137,9.136
-67,-335,9.137
-32,-531,9.138
6,-563,9.139
30,-449,9.14
37,-292,9.141
40,-119,9.142
54,70,9.143
71,228,9.144
76,316,9.145
58,357,9.146
38,367,9.147
29,310,9.148
28,172,9.149
26,16,9.15
12,-105,9.151
-7,-177,9.152
-23,-186,9.153
-33,-135,9.154
-35,-70,9.155
-34,-44,9.156
-31,-36,9.157
-17,19,9.158
16,102,9.159
58,149,9.16
78,155,9.161
61,139,9.162
28,76,9.163
15,-49,9.164
25,-160,9.165
22,-166,9.166
-13,-102,9.167
-46,-56,9.168
-42,-33,9.169
-14,16,9.17
1,70,9.171
-5,77,9.172
-15,51,9.173
-24,40,9.174
-35,45,9.175
-44,32,9.176
-40,4,9.177
-38,6,9.178
-50,36,9.179
-59,53,9.18
-40,48,9.181
-1,37,9.182
24,29,9.183
25,21,9.184
18,25,9.185
24,45,9.186
40,72,9.187
55,90,9.188
62,78,9.189
69,9,9.19
79,-110,9.191
70,-226,9.192
29,-277,9.193
-20,-254,9.194
-30,-176,9.195
-39,-90,9.196
-39,23,9.197
-44,116,9.198
-61,146,9.199
-61,177,9.2
-9,208,9.201
25,213,9.202
3,138,9.203
-13,67,9.204
-7,11,9.205
0,-43,9.206
11,-90,9.207
24,-133,9.208
44,-161,9.209
53,-178,9.21
29,-159,9.211
4,-143,9.212
-24,-136,9.213
-35,-121,9.214
8,-70,9.215
34,0,9.216
25,46,9.217
18,60,9.218
33,70,9.219
49,98,9.22
37,124,9.221
19,128,9.222
10,125,9.223
5,122,9.224
-10,113,9.225
-17,108,9.226
6,142,9.227
34,200,9.228
36,217,9.229
13,168,9.23
0,105,9.231
18,63,9.232
44,11,9.233
46,-116,9.234
7,-308,9.235
-58,-501,9.236
-107,-608,9.237
-113,-544,9.238
-94,-296,9.239
-83,22,9.24
-78,222,9.241
-53,208,9.242
-13,57,9.243
17,-87,9.244
40,-151,9.245
70,-139,9.246
89,-91,9.247
68,-39,9.248
16,-1,9.249
-20,35,9.25
-28,94,9.251
-26,162,9.252
-21,188,9.253
-6,156,9.254
20,116,9.255
35,117,9.256
44,135,9.257
63,131,9.258
87,116,9.259
95,125,9.26
88,152,9.261
73,141,9.262
41,68,9.263
-17,-25,9.264
-75,-95,9.265
-105,-136,9.266
-116,-155,9.267
-116,-141,9.268
-93,-90,9.269
-42,-22,9.27
10,52,9.271
30,151,9.272
26,250,9.273
20,274,9.274
14,160,9.275
5,-42,9.276
7,-195,9.277
23,-221,9.278
36,-185,9.279
34,-170,9.28
20,-170,9.281
7,-136,9.282
0,-71,9.283
4,-29,9.284
19,-23,9.285
29,-5,9.286
20,42,9.287
2,85,9.288
-3,95,9.289
-2,110,9.29
-8,172,9.291
-20,266,9.292
-20,318,9.293
-8,285,9.294
0,180,9.295
-3,58,9.296
-6,-51,9.297
-2,-139,9.298
3,-213,9.299
0,-270,9.3
-6,-311,9.301
-10,-343,9.302
-17,-357,9.303
-28,-329,9.304
-28,-244,9.305
-7,-130,9.306
27,-18,9.307
52,63,9.308
67,106,9.309
78,117,9.31
79,127,9.311
54,148,9.312
11,176,9.313
-22,201,9.314
-26,237,9.315
-23,263,9.316
-33,259,9.317
-38,229,9.318
-12,123,9.319
31,23,9.32
49,-58,9.321
37,-125,9.322
26,-145,9.323
28,-155,9.324
14,-137,9.325
-31,-128,9.326
-73,-146,9.327
-78,-152,9.328
-56,-122,9.329
-42,-87,9.33
-37,-36,9.331
-11,17,9.332
43,80,9.333
88,150,9.334
73,216,9.335
-1,216,9.336
-73,157,9.337
-89,97,9.338
-57,50,9.339
-17,-1,9.34
9,-57,9.341
21,-91,9.342
12,-86,9.343
-15,-53,9.344
-36,-18,9.345
-20,-21,9.346
11,-60,9.347
14,-80,9.348
-11,-40,9.349
-3,5,9.35
64,-14,9.351
139,-99,9.352
167,-184,9.353
151,-262,9.354
112,-316,9.355
37,-285,9.356
-60,-123,9.357
-117,101,9.358
-94,246,9.359
-46,267,9.36
-36,240,9.361
-48,229,9.362
-31,228,9.363
6,207,9.364
29,160,9.365
57,88,9.366
108,-12,9.367
127,-117,9.368
42,-167,9.369
-96,-150,9.37
-171,-104,9.371
-148,-66,9.372
-103,-31,9.373
-89,22,9.374
-74,74,9.375
-18,78,9.376
59,37,9.377
97,3,9.378
77,-3,9.379
32,-16,9.38
5,-58,9.381
10,-100,9.382
31,-103,9.383
45,-73,9.384
45,-39,9.385
44,-8,9.386
53,33,9.387
58,73,9.388
46,87,9.389
24,74,9.39
12,59,9.391
7,56,9.392
4,60,9.393
-1,60,9.394
0,51,9.395
2,29,9.396
-2,-1,9.397
-17,-20,9.398
-33,-14,9.399
-36,15,9.4
-29,47,9.401
-22,64,9.402
-19,61,9.403
-21,61,9.404
-19,84,9.405
-5,120,9.406
16,146,9.407
22,147,9.408
1,130,9.409
-34,92,9.41
-44,16,9.411
-23,-101,9.412
1,-228,9.413
9,-344,9.414
7,-393,9.415
9,-336,9.416
10,-207,9.417
1,-95,9.418
-3,-72,9.419
3,-98,9.42
11,-76,9.421
9,26,9.422
16,166,9.423
36,297,9.424
52,387,9.425
41,383,9.426
15,264,9.427
-4,104,9.428
-9,-3,9.429
0,-91,9.43
16,-232,9.431
25,-384,9.432
21,-438,9.433
7,-395,9.434
-1,-340,9.435
-1,-291,9.436
3,-194,9.437
7,-56,9.438
11,34,9.439
5,56,9.44
-14,64,9.441
-29,75,9.442
-27,70,9.443
-14,76,9.444
0,124,9.445
11,172,9.446
15,163,9.447
7,117,9.448
-11,85,9.449
-22,65,9.45
-12,43,9.451
12,42,9.452
36,68,9.453
62,85,9.454
91,74,9.455
98,67,9.456
62,79,9.457
-2,89,9.458
-56,79,9.459
-84,74,9.46
-96,84,9.461
-103,81,9.462
-96,59,9.463
-75,54,9.464
-56,67,9.465
-39,58,9.466
-17,3,9.467
4,-61,9.468
11,-99,9.469
2,-107,9.47
4,-103,9.471
26,-86,9.472
55,-58,9.473
79,-32,9.474
98,-13,9.475
105,-1,9.476
81,5,9.477
28,9,9.478
-19,9,9.479
-38,14,9.48
-41,19,9.481
-50,14,9.482
-51,-2,9.483
-23,-17,9.484
17,-21,9.485
44,-17,9.486
57,-8,9.487
68,1,9.488
63,9,9.489
29,14,9.49
-7,15,9.491
-17,20,9.492
-12,23,9.493
-25,11,9.494
-57,-16,9.495
-76,-46,9.496
-59,-58,9.497
-25,-40,9.498
3,-2,9.499
15,37,9.5
13,53,9.501
11,36,9.502
14,11,9.503
19,25,9.504
20,77,9.505
18,108,9.506
17,84,9.507
19,41,9.508
23,21,9.509
28,-25,9.51
29,-147,9.511
22,-274,9.512
12,-296,9.513
2,-218,9.514
-1,-145,9.515
-8,-102,9.516
-18,-8,9.517
-19,147,9.518
-7,239,9.519
7,191,9.52
9,89,9.521
1,28,9.522
-6,-20,9.523
-14,-105,9.524
-31,-181,9.525
-47,-188,9.526
-39,-151,9.527
0,-129,9.528
42,-114,9.529
59,-75,9.53
48,-22,9.531
36,24,9.532
43,70,9.533
56,119,9.534
50,147,9.535
19,138,9.536
-10,98,9.537
-23,31,9.538
-29,-62,9.539
-43,-129,9.54
-56,-119,9.541
-52,-65,9.542
-35,-25,9.543
-14,13,9.544
8,100,9.545
27,221,9.546
31,300,9.547
23,305,9.548
20,261,9.549
34,174,9.55
51,58,9.551
47,-47,9.552
28,-95,9.553
4,-103,9.554
-15,-90,9.555
-37,-53,9.556
-59,-4,9.557
-68,16,9.558
-58,-8,9.559
-45,-26,9.56
-38,-17,9.561
-33,-47,9.562
-14,-154,9.563
12,-257,9.564
29,-268,9.565
29,-208,9.566
25,-157,9.567
30,-124,9.568
38,-69,9.569
39,0,9.57
38,45,9.571
41,73,9.572
44,115,9.573
36,156,9.574
23,163,9.575
22,157,9.576
32,177,9.577
31,215,9.578
7,215,9.579
-18,174,9.58
-17,132,9.581
-7,74,9.582
-28,-50,9.583
-80,-216,9.584
-110,-315,9.585
-91,-293,9.586
-51,-203,9.587
-29,-114,9.588
-17,-33,9.589
3,51,9.59
22,111,9.591
22,126,9.592
15,124,9.593
15,144,9.594
21,192,9.595
15,256,9.596
7,324,9.597
20,363,9.598
45,324,9.599
55,190,9.6
41,7,9.601
19,-173,9.602
4,-327,9.603
0,-425,9.604
0,-423,9.605
-3,-323,9.606
-7,-180,9.607
-8,-44,9.608
1,63,9.609
15,99,9.61
25,23,9.611
28,-138,9.612
31,-297,9.613
32,-425,9.614
29,-499,9.615
22,-475,9.616
13,-317,9.617
7,-91,9.618
2,71,9.619
2,141,9.62
4,188,9.621
2,246,9.622
0,277,9.623
-1,291,9.624
0,332,9.625
-4,378,9.626
-19,350,9.627
-31,247,9.628
-33,149,9.629
-24,94,9.63
-16,45,9.631
-12,-16,9.632
-8,-64,9.633
-8,-90,9.634
-7,-87,9.635
-8,-55,9.636
-9,-4,9.637
-5,27,9.638
7,-2,9.639
21,-67,9.64
21,-102,9.641
9,-83,9.642
0,-35,9.643
8,9,9.644
16,32,9.645
11,20,9.646
4,-17,9.647
5,-51,9.648
10,-67,9.649
4,-74,9.65
-3,-77,9.651
1,-51,9.652
13,12,9.653
9,91,9.654
-10,169,9.655
-25,253,9.656
-26,338,9.657
-19,381,9.658
-12,328,9.659
-1,191,9.66
15,45,9.661
22,-66,9.662
3,-175,9.663
-34,-331,9.664
-56,-509,9.665
-38,-626,9.666
3,-625,9.667
29,-522,9.668
25,-364,9.669
11,-185,9.67
9,-18,9.671
17,98,9.672
22,160,9.673
20,206,9.674
23,255,9.675
25,274,9.676
18,238,9.677
5,199,9.678
3,201,9.679
17,224,9.68
23,218,9.681
16,180,9.682
5,125,9.683
4,50,9.684
7,-42,9.685
3,-117,9.686
-8,-144,9.687
-17,-148,9.688
-16,-153,9.689
-9,-141,9.69
-2,-93,9.691
1,-17,9.692
1,69,9.693
-2,169,9.694
-4,274,9.695
-4,340,9.696
-4,328,9.697
-3,237,9.698
6,67,9.699
20,-137,9.7
25,-300,9.701
16,-377,9.702
0,-406,9.703
-7,-423,9.704
-5,-398,9.705
-3,-297,9.706
-2,-162,9.707
3,-43,9.708
14,70,9.709
20,185,9.71
20,248,9.711
16,215,9.712
18,142,9.713
22,87,9.714
20,56,9.715
6,22,9.716
-8,-2,9.717
-11,20,9.718
-4,73,9.719
-5,132,9.72
-16,205,9.721
-20,295,9.722
-10,361,9.723
3,349,9.724
4,273,9.725
-3,175,9.726
-3,59,9.727
1,-101,9.728
1,-286,9.729
-5,-423,9.73
-9,-461,9.731
-12,-434,9.732
-17,-399,9.733
-23,-345,9.734
-26,-230,9.735
-25,-54,9.736
-26,97,9.737
-18,163,9.738
9,138,9.739
40,67,9.74
52,2,9.741
45,-12,9.742
43,43,9.743
48,139,9.744
45,210,9.745
24,216,9.746
2,161,9.747
-6,70,9.748
-10,-35,9.749
-17,-131,9.75
-21,-193,9.751
-14,-203,9.752
-5,-158,9.753
-2,-71,9.754
0,6,9.755
2,31,9.756
2,17,9.757
4,16,9.758
11,36,9.759
17,45,9.76
10,53,9.761
-5,101,9.762
-16,186,9.763
-12,251,9.764
-4,258,9.765
-3,224,9.766
-9,159,9.767
-15,41,9.768
-11,-112,9.769
-2,-217,9.77
6,-211,9.771
6,-133,9.772
4,-74,9.773
2,-63,9.774
0,-63,9.775
-3,-57,9.776
-3,-75,9.777
4,-117,9.778
14,-137,9.779
18,-108,9.78
16,-66,9.781
12,-52,9.782
13,-54,9.783
13,-36,9.784
10,3,9.785
9,40,9.786
7,67,9.787
6,87,9.788
7,94,9.789
13,91,9.79
20,94,9.791
23,129,9.792
20,193,9.793
15,261,9.794
11,288,9.795
6,236,9.796
-3,112,9.797
-12,-18,9.798
-16,-97,9.799
-14,-133,9.8
-12,-168,9.801
-14,-204,9.802
-14,-197,9.803
-11,-141,9.804
-5,-91,9.805
-3,-91,9.806
-6,-115,9.807
-5,-117,9.808
1,-92,9.809
9,-61,9.81
11,-19,9.811
9,36,9.812
5,77,9.813
1,82,9.814
-1,80,9.815
-2,94,9.816
-2,99,9.817
-4,71,9.818
-7,38,9.819
-8,44,9.82
-6,62,9.821
-5,33,9.822
-3,-51,9.823
-3,-134,9.824
-6,-167,9.825
-11,-146,9.826
-13,-88,9.827
-8,-9,9.828
-3,67,9.829
1,111,9.83
10,109,9.831
21,79,9.832
28,52,9.833
20,36,9.834
7,39,9.835
1,59,9.836
1,81,9.837
-1,96,9.838
0,92,9.839
13,78,9.84
27,58,9.841
27,5,9.842
12,-106,9.843
-6,-227,9.844
-17,-268,9.845
-20,-213,9.846
-16,-132,9.847
-5,-74,9.848
7,-19,9.849
11,32,9.85
7,32,9.851
0,-22,9.852
0,-56,9.853
7,-29,9.854
22,19,9.855
37,40,9.856
43,52,9.857
38,87,9.858
29,114,9.859
