Deltoid,Bicep,Time
-33.0,-21.0,0.0
-29.0,-28.0,0.001
-17.0,-18.0,0.002
2.0,0.0,0.003
14.0,19.0,0.004
10.0,29.0,0.005
-1.0,31.0,0.006
-9.0,26.0,0.007
-12.0,16.0,0.008
-9.0,8.0,0.009
-1.0,3.0,0.01
12.0,-2.0,0.011
25.0,-6.0,0.012
28.0,-7.0,0.013
21.0,-7.0,0.014
11.0,-12.0,0.015
3.0,-19.0,0.016
3.0,-20.0,0.017
6.0,-13.0,0.018
5.0,-6.0,0.019
-2.0,-9.0,0.02
-7.0,-16.0,0.021
-3.0,-16.0,0.022
6.0,-12.0,0.023
15.0,-9.0,0.024
16.0,-7.0,0.025
12.0,0.0,0.026
10.0,7.0,0.027
13.0,8.0,0.028
21.0,5.0,0.029
28.0,5.0,0.03
27.0,4.0,0.031
19.0,-1.0,0.032
5.0,-3.0,0.033
-6.0,0.0,0.034
-15.0,1.0,0.035
-20.0,-2.0,0.036
-22.0,-3.0,0.037
-20.0,-2.0,0.038
-13.0,1.0,0.039
-11.0,2.0,0.04
-9.0,-2.0,0.041
-2.0,0.0,0.042
15.0,7.0,0.043
32.0,10.0,0.044
37.0,9.0,0.045
28.0,10.0,0.046
13.0,10.0,0.047
2.0,6.0,0.048
1.0,-1.0,0.049
17.0,-2.0,0.05
43.0,3.0,0.051
58.0,8.0,0.052
38.0,8.0,0.053
-6.0,5.0,0.054
-44.0,1.0,0.055
-56.0,-1.0,0.056
-56.0,-1.0,0.057
-65.0,-4.0,0.058
-78.0,-10.0,0.059
-80.0,-24.0,0.06
-63.0,-40.0,0.061
-34.0,-48.0,0.062
-5.0,-42.0,0.063
24.0,-29.0,0.064
42.0,-18.0,0.065
48.0,-9.0,0.066
44.0,0.0,0.067
32.0,11.0,0.068
18.0,24.0,0.069
2.0,33.0,0.07
-7.0,36.0,0.071
-8.0,36.0,0.072
-2.0,37.0,0.073
9.0,40.0,0.074
19.0,43.0,0.075
25.0,41.0,0.076
36.0,37.0,0.077
51.0,31.0,0.078
63.0,18.0,0.079
55.0,0.0,0.08
24.0,-20.0,0.081
-15.0,-31.0,0.082
-47.0,-35.0,0.083
-63.0,-36.0,0.084
-64.0,-38.0,0.085
-47.0,-42.0,0.086
-21.0,-45.0,0.087
-1.0,-43.0,0.088
3.0,-31.0,0.089
0.0,-9.0,0.09
2.0,8.0,0.091
12.0,15.0,0.092
21.0,16.0,0.093
20.0,21.0,0.094
18.0,25.0,0.095
21.0,26.0,0.096
30.0,25.0,0.097
32.0,22.0,0.098
24.0,16.0,0.099
11.0,7.0,0.1
6.0,-5.0,0.101
8.0,-13.0,0.102
10.0,-19.0,0.103
8.0,-17.0,0.104
3.0,-6.0,0.105
-2.0,5.0,0.106
-6.0,6.0,0.107
-4.0,-6.0,0.108
1.0,-16.0,0.109
7.0,-16.0,0.11
9.0,-13.0,0.111
11.0,-10.0,0.112
13.0,-7.0,0.113
13.0,0.0,0.114
8.0,1.0,0.115
-1.0,-8.0,0.116
-8.0,-18.0,0.117
-19.0,-21.0,0.118
-27.0,-15.0,0.119
-32.0,-5.0,0.12
-31.0,-2.0,0.121
-27.0,-3.0,0.122
-18.0,-8.0,0.123
-3.0,-12.0,0.124
9.0,-10.0,0.125
15.0,-5.0,0.126
19.0,1.0,0.127
32.0,4.0,0.128
41.0,7.0,0.129
39.0,11.0,0.13
32.0,11.0,0.131
33.0,9.0,0.132
31.0,8.0,0.133
15.0,10.0,0.134
-9.0,11.0,0.135
-23.0,6.0,0.136
-26.0,-1.0,0.137
-31.0,-6.0,0.138
-40.0,-7.0,0.139
-45.0,-7.0,0.14
-42.0,-10.0,0.141
-30.0,-6.0,0.142
-14.0,-1.0,0.143
6.0,1.0,0.144
25.0,6.0,0.145
37.0,13.0,0.146
45.0,13.0,0.147
43.0,9.0,0.148
29.0,5.0,0.149
12.0,10.0,0.15
3.0,14.0,0.151
3.0,11.0,0.152
0.0,7.0,0.153
-6.0,7.0,0.154
-11.0,4.0,0.155
-10.0,-5.0,0.156
-10.0,-13.0,0.157
-14.0,-10.0,0.158
-14.0,-2.0,0.159
-8.0,3.0,0.16
-2.0,4.0,0.161
6.0,6.0,0.162
19.0,5.0,0.163
30.0,-2.0,0.164
30.0,-7.0,0.165
18.0,-5.0,0.166
6.0,-4.0,0.167
2.0,-11.0,0.168
1.0,-20.0,0.169
-2.0,-23.0,0.17
-3.0,-22.0,0.171
0.0,-23.0,0.172
12.0,-28.0,0.173
20.0,-34.0,0.174
16.0,-39.0,0.175
0.0,-41.0,0.176
-12.0,-29.0,0.177
-12.0,-2.0,0.178
-9.0,29.0,0.179
-17.0,47.0,0.18
-23.0,46.0,0.181
-16.0,40.0,0.182
-3.0,31.0,0.183
-2.0,22.0,0.184
-10.0,17.0,0.185
-7.0,24.0,0.186
6.0,33.0,0.187
13.0,31.0,0.188
6.0,22.0,0.189
3.0,18.0,0.19
13.0,18.0,0.191
19.0,11.0,0.192
13.0,0.0,0.193
0.0,-5.0,0.194
-8.0,-3.0,0.195
-12.0,-9.0,0.196
-11.0,-16.0,0.197
-9.0,-20.0,0.198
-5.0,-15.0,0.199
-1.0,-13.0,0.2
10.0,-23.0,0.201
25.0,-30.0,0.202
34.0,-26.0,0.203
30.0,-15.0,0.204
21.0,-7.0,0.205
20.0,-6.0,0.206
27.0,-6.0,0.207
33.0,-8.0,0.208
29.0,-11.0,0.209
15.0,-12.0,0.21
-4.0,-12.0,0.211
-19.0,-9.0,0.212
-24.0,-4.0,0.213
-27.0,2.0,0.214
-36.0,6.0,0.215
-43.0,1.0,0.216
-37.0,-4.0,0.217
-21.0,-7.0,0.218
-5.0,-6.0,0.219
1.0,-6.0,0.22
6.0,-13.0,0.221
19.0,-16.0,0.222
37.0,-13.0,0.223
51.0,-6.0,0.224
53.0,0.0,0.225
47.0,4.0,0.226
33.0,5.0,0.227
17.0,4.0,0.228
7.0,4.0,0.229
5.0,9.0,0.23
7.0,15.0,0.231
2.0,15.0,0.232
-13.0,11.0,0.233
-30.0,7.0,0.234
-38.0,4.0,0.235
-36.0,3.0,0.236
-27.0,3.0,0.237
-17.0,1.0,0.238
-6.0,2.0,0.239
-9.0,7.0,0.24
-22.0,10.0,0.241
-27.0,7.0,0.242
-16.0,2.0,0.243
-4.0,1.0,0.244
-6.0,1.0,0.245
-14.0,-8.0,0.246
-2.0,-26.0,0.247
27.0,-38.0,0.248
49.0,-29.0,0.249
50.0,-11.0,0.25
39.0,-5.0,0.251
28.0,-11.0,0.252
15.0,-10.0,0.253
0.0,6.0,0.254
-11.0,30.0,0.255
-18.0,46.0,0.256
-23.0,51.0,0.257
-21.0,41.0,0.258
-5.0,20.0,0.259
12.0,-2.0,0.26
33.0,-14.0,0.261
48.0,-11.0,0.262
42.0,-7.0,0.263
30.0,-5.0,0.264
3.0,0.0,0.265
-19.0,5.0,0.266
-28.0,5.0,0.267
-35.0,-2.0,0.268
-35.0,-8.0,0.269
-29.0,-6.0,0.27
-5.0,-6.0,0.271
14.0,-9.0,0.272
16.0,-10.0,0.273
20.0,-9.0,0.274
25.0,-7.0,0.275
29.0,-11.0,0.276
25.0,-13.0,0.277
19.0,-14.0,0.278
8.0,-11.0,0.279
-8.0,-8.0,0.28
-25.0,-10.0,0.281
-34.0,-8.0,0.282
-26.0,-3.0,0.283
-14.0,4.0,0.284
-5.0,9.0,0.285
-1.0,3.0,0.286
3.0,-6.0,0.287
7.0,-11.0,0.288
9.0,-9.0,0.289
9.0,-3.0,0.29
10.0,-1.0,0.291
8.0,4.0,0.292
2.0,18.0,0.293
-1.0,33.0,0.294
1.0,37.0,0.295
7.0,31.0,0.296
14.0,19.0,0.297
20.0,7.0,0.298
24.0,1.0,0.299
27.0,0.0,0.3
29.0,-3.0,0.301
31.0,-11.0,0.302
29.0,-18.0,0.303
24.0,-16.0,0.304
10.0,-9.0,0.305
-2.0,-6.0,0.306
-12.0,-9.0,0.307
-20.0,-12.0,0.308
-20.0,-11.0,0.309
-19.0,-8.0,0.31
-19.0,-7.0,0.311
-20.0,-9.0,0.312
-19.0,-8.0,0.313
-17.0,-7.0,0.314
-13.0,-8.0,0.315
-8.0,-7.0,0.316
1.0,-4.0,0.317
9.0,-4.0,0.318
14.0,-6.0,0.319
3.0,-8.0,0.32
-6.0,-11.0,0.321
-3.0,-13.0,0.322
7.0,-14.0,0.323
11.0,-10.0,0.324
4.0,1.0,0.325
-5.0,10.0,0.326
-9.0,5.0,0.327
-8.0,-3.0,0.328
-7.0,-1.0,0.329
-4.0,8.0,0.33
-1.0,11.0,0.331
1.0,3.0,0.332
1.0,-2.0,0.333
-2.0,1.0,0.334
-5.0,6.0,0.335
-4.0,4.0,0.336
2.0,2.0,0.337
14.0,1.0,0.338
20.0,4.0,0.339
25.0,4.0,0.34
33.0,0.0,0.341
39.0,0.0,0.342
39.0,2.0,0.343
30.0,1.0,0.344
17.0,-2.0,0.345
7.0,-5.0,0.346
2.0,-7.0,0.347
0.0,-9.0,0.348
0.0,-10.0,0.349
-5.0,-4.0,0.35
-13.0,4.0,0.351
-20.0,13.0,0.352
-18.0,23.0,0.353
-11.0,29.0,0.354
-10.0,27.0,0.355
-12.0,14.0,0.356
-7.0,6.0,0.357
3.0,3.0,0.358
17.0,3.0,0.359
23.0,2.0,0.36
28.0,-4.0,0.361
40.0,-7.0,0.362
57.0,-7.0,0.363
65.0,-8.0,0.364
49.0,-6.0,0.365
12.0,0.0,0.366
-27.0,4.0,0.367
-53.0,4.0,0.368
-63.0,1.0,0.369
-70.0,-5.0,0.37
-72.0,-11.0,0.371
-65.0,-21.0,0.372
-48.0,-25.0,0.373
-31.0,-21.0,0.374
-23.0,-14.0,0.375
-18.0,-7.0,0.376
-8.0,-4.0,0.377
3.0,-8.0,0.378
15.0,-16.0,0.379
26.0,-20.0,0.38
44.0,-17.0,0.381
64.0,-9.0,0.382
78.0,-1.0,0.383
75.0,2.0,0.384
53.0,4.0,0.385
22.0,8.0,0.386
0.0,9.0,0.387
-8.0,6.0,0.388
-11.0,3.0,0.389
-17.0,3.0,0.39
-22.0,7.0,0.391
-19.0,10.0,0.392
-8.0,9.0,0.393
7.0,6.0,0.394
29.0,0.0,0.395
50.0,-7.0,0.396
55.0,-10.0,0.397
35.0,-13.0,0.398
5.0,-16.0,0.399
-17.0,-19.0,0.4
-25.0,-20.0,0.401
-27.0,-12.0,0.402
-25.0,-2.0,0.403
-22.0,9.0,0.404
-21.0,18.0,0.405
-19.0,22.0,0.406
-12.0,25.0,0.407
1.0,28.0,0.408
9.0,30.0,0.409
6.0,30.0,0.41
3.0,22.0,0.411
10.0,12.0,0.412
15.0,8.0,0.413
7.0,4.0,0.414
-8.0,0.0,0.415
-17.0,-5.0,0.416
-12.0,-3.0,0.417
-5.0,-1.0,0.418
-1.0,-1.0,0.419
0.0,-4.0,0.42
-8.0,-13.0,0.421
-9.0,-20.0,0.422
8.0,-17.0,0.423
22.0,-13.0,0.424
24.0,-5.0,0.425
25.0,0.0,0.426
23.0,-6.0,0.427
19.0,-13.0,0.428
11.0,-18.0,0.429
4.0,-21.0,0.43
-1.0,-16.0,0.431
-6.0,-12.0,0.432
-6.0,-16.0,0.433
-4.0,-19.0,0.434
1.0,-19.0,0.435
7.0,-16.0,0.436
15.0,-8.0,0.437
23.0,-1.0,0.438
26.0,0.0,0.439
29.0,4.0,0.44
32.0,9.0,0.441
38.0,15.0,0.442
48.0,21.0,0.443
49.0,26.0,0.444
28.0,27.0,0.445
-14.0,21.0,0.446
-53.0,12.0,0.447
-74.0,7.0,0.448
-82.0,6.0,0.449
-87.0,0.0,0.45
-89.0,-15.0,0.451
-77.0,-26.0,0.452
-53.0,-18.0,0.453
-23.0,1.0,0.454
-5.0,14.0,0.455
-3.0,10.0,0.456
-6.0,-4.0,0.457
0.0,-18.0,0.458
23.0,-20.0,0.459
50.0,-13.0,0.46
60.0,-5.0,0.461
53.0,-2.0,0.462
41.0,-5.0,0.463
35.0,-11.0,0.464
33.0,-17.0,0.465
35.0,-15.0,0.466
42.0,-10.0,0.467
53.0,-4.0,0.468
53.0,3.0,0.469
38.0,14.0,0.47
19.0,23.0,0.471
4.0,28.0,0.472
-7.0,27.0,0.473
-19.0,27.0,0.474
-25.0,30.0,0.475
-25.0,31.0,0.476
-21.0,28.0,0.477
-24.0,18.0,0.478
-32.0,7.0,0.479
-39.0,-1.0,0.48
-40.0,-11.0,0.481
-35.0,-15.0,0.482
-18.0,-17.0,0.483
8.0,-19.0,0.484
28.0,-17.0,0.485
35.0,-13.0,0.486
36.0,-11.0,0.487
36.0,-11.0,0.488
30.0,-9.0,0.489
15.0,-3.0,0.49
-1.0,2.0,0.491
-10.0,-2.0,0.492
-16.0,-10.0,0.493
-20.0,-14.0,0.494
-12.0,-14.0,0.495
7.0,-19.0,0.496
24.0,-24.0,0.497
25.0,-22.0,0.498
18.0,-9.0,0.499
14.0,2.0,0.5
11.0,1.0,0.501
6.0,-4.0,0.502
3.0,-5.0,0.503
3.0,-6.0,0.504
-3.0,-5.0,0.505
-17.0,-2.0,0.506
-25.0,4.0,0.507
-7.0,11.0,0.508
29.0,13.0,0.509
68.0,15.0,0.51
97.0,14.0,0.511
107.0,11.0,0.512
86.0,8.0,0.513
36.0,12.0,0.514
-20.0,15.0,0.515
-61.0,13.0,0.516
-82.0,10.0,0.517
-101.0,12.0,0.518
-116.0,17.0,0.519
-117.0,15.0,0.52
-100.0,-2.0,0.521
-77.0,-18.0,0.522
-55.0,-26.0,0.523
-28.0,-26.0,0.524
0.0,-24.0,0.525
14.0,-22.0,0.526
15.0,-25.0,0.527
25.0,-31.0,0.528
52.0,-34.0,0.529
75.0,-26.0,0.53
80.0,-12.0,0.531
75.0,-1.0,0.532
73.0,6.0,0.533
71.0,17.0,0.534
51.0,31.0,0.535
13.0,38.0,0.536
-16.0,37.0,0.537
-27.0,27.0,0.538
-24.0,14.0,0.539
-25.0,5.0,0.54
-36.0,0.0,0.541
-46.0,-1.0,0.542
-36.0,-5.0,0.543
-13.0,-13.0,0.544
4.0,-16.0,0.545
10.0,-12.0,0.546
12.0,-12.0,0.547
20.0,-12.0,0.548
25.0,-9.0,0.549
21.0,-5.0,0.55
17.0,-6.0,0.551
21.0,-7.0,0.552
27.0,-3.0,0.553
23.0,5.0,0.554
15.0,9.0,0.555
16.0,12.0,0.556
21.0,19.0,0.557
24.0,24.0,0.558
21.0,14.0,0.559
13.0,-2.0,0.56
7.0,-11.0,0.561
12.0,-5.0,0.562
31.0,3.0,0.563
54.0,4.0,0.564
57.0,0.0,0.565
27.0,-1.0,0.566
-17.0,2.0,0.567
-54.0,8.0,0.568
-71.0,10.0,0.569
-75.0,9.0,0.57
-71.0,5.0,0.571
-63.0,-1.0,0.572
-55.0,-8.0,0.573
-44.0,-14.0,0.574
-19.0,-15.0,0.575
25.0,-8.0,0.576
71.0,2.0,0.577
94.0,4.0,0.578
86.0,-1.0,0.579
55.0,-8.0,0.58
26.0,-13.0,0.581
8.0,-16.0,0.582
-3.0,-13.0,0.583
-15.0,-9.0,0.584
-30.0,-5.0,0.585
-49.0,-2.0,0.586
-63.0,-2.0,0.587
-65.0,-1.0,0.588
-59.0,0.0,0.589
-50.0,3.0,0.59
-38.0,4.0,0.591
-23.0,6.0,0.592
-11.0,8.0,0.593
-7.0,9.0,0.594
-3.0,4.0,0.595
9.0,-1.0,0.596
21.0,-6.0,0.597
22.0,-9.0,0.598
20.0,-9.0,0.599
25.0,-5.0,0.6
33.0,0.0,0.601
33.0,7.0,0.602
37.0,5.0,0.603
51.0,0.0,0.604
60.0,1.0,0.605
52.0,7.0,0.606
39.0,9.0,0.607
44.0,2.0,0.608
56.0,-2.0,0.609
49.0,0.0,0.61
26.0,-8.0,0.611
8.0,-25.0,0.612
-3.0,-34.0,0.613
-12.0,-24.0,0.614
-17.0,-5.0,0.615
-13.0,9.0,0.616
-7.0,13.0,0.617
-14.0,10.0,0.618
-30.0,5.0,0.619
-43.0,3.0,0.62
-41.0,3.0,0.621
-26.0,9.0,0.622
-10.0,11.0,0.623
2.0,7.0,0.624
9.0,-1.0,0.625
17.0,-11.0,0.626
25.0,-18.0,0.627
27.0,-18.0,0.628
7.0,-7.0,0.629
-25.0,4.0,0.63
-43.0,10.0,0.631
-41.0,8.0,0.632
-36.0,10.0,0.633
-41.0,11.0,0.634
-43.0,2.0,0.635
-26.0,-11.0,0.636
-4.0,-13.0,0.637
11.0,-5.0,0.638
22.0,2.0,0.639
30.0,2.0,0.64
31.0,-1.0,0.641
26.0,-1.0,0.642
25.0,-3.0,0.643
28.0,-3.0,0.644
23.0,0.0,0.645
18.0,4.0,0.646
30.0,0.0,0.647
57.0,-6.0,0.648
74.0,-2.0,0.649
72.0,5.0,0.65
69.0,6.0,0.651
68.0,-2.0,0.652
54.0,-12.0,0.653
17.0,-21.0,0.654
-30.0,-28.0,0.655
-74.0,-29.0,0.656
-107.0,-23.0,0.657
-129.0,-16.0,0.658
-127.0,-11.0,0.659
-107.0,-3.0,0.66
-78.0,11.0,0.661
-48.0,23.0,0.662
-21.0,27.0,0.663
-4.0,29.0,0.664
6.0,25.0,0.665
16.0,20.0,0.666
28.0,18.0,0.667
35.0,16.0,0.668
28.0,11.0,0.669
15.0,5.0,0.67
10.0,-1.0,0.671
16.0,-8.0,0.672
25.0,-12.0,0.673
29.0,-14.0,0.674
32.0,-8.0,0.675
37.0,-4.0,0.676
40.0,-3.0,0.677
43.0,-1.0,0.678
48.0,-1.0,0.679
46.0,-1.0,0.68
35.0,-5.0,0.681
21.0,-4.0,0.682
20.0,3.0,0.683
30.0,7.0,0.684
30.0,5.0,0.685
8.0,0.0,0.686
-15.0,0.0,0.687
-18.0,5.0,0.688
-8.0,5.0,0.689
-8.0,0.0,0.69
-20.0,-10.0,0.691
-22.0,-18.0,0.692
-13.0,-21.0,0.693
-8.0,-18.0,0.694
-13.0,-12.0,0.695
-14.0,-6.0,0.696
3.0,-4.0,0.697
22.0,-6.0,0.698
21.0,-9.0,0.699
0.0,-9.0,0.7
-21.0,-7.0,0.701
-22.0,-1.0,0.702
-17.0,7.0,0.703
-21.0,11.0,0.704
-29.0,9.0,0.705
-32.0,6.0,0.706
-26.0,3.0,0.707
-19.0,2.0,0.708
-8.0,1.0,0.709
8.0,1.0,0.71
22.0,-2.0,0.711
15.0,-10.0,0.712
-6.0,-14.0,0.713
-15.0,-7.0,0.714
-1.0,9.0,0.715
19.0,20.0,0.716
27.0,18.0,0.717
19.0,-1.0,0.718
12.0,-23.0,0.719
13.0,-41.0,0.72
26.0,-43.0,0.721
52.0,-27.0,0.722
76.0,-7.0,0.723
69.0,7.0,0.724
26.0,15.0,0.725
-15.0,23.0,0.726
-23.0,33.0,0.727
-11.0,39.0,0.728
-13.0,37.0,0.729
-33.0,28.0,0.73
-46.0,15.0,0.731
-41.0,6.0,0.732
-32.0,0.0,0.733
-27.0,0.0,0.734
-23.0,-4.0,0.735
-15.0,-15.0,0.736
-8.0,-22.0,0.737
-3.0,-20.0,0.738
6.0,-10.0,0.739
13.0,-3.0,0.74
12.0,-5.0,0.741
14.0,-8.0,0.742
29.0,-7.0,0.743
45.0,-6.0,0.744
42.0,-6.0,0.745
18.0,-5.0,0.746
0.0,-6.0,0.747
3.0,-6.0,0.748
10.0,-3.0,0.749
9.0,-1.0,0.75
4.0,-6.0,0.751
2.0,-11.0,0.752
-1.0,-11.0,0.753
-6.0,-9.0,0.754
-9.0,-3.0,0.755
0.0,3.0,0.756
21.0,11.0,0.757
34.0,19.0,0.758
35.0,23.0,0.759
26.0,26.0,0.76
13.0,24.0,0.761
0.0,19.0,0.762
-9.0,4.0,0.763
-14.0,-11.0,0.764
-11.0,-13.0,0.765
-6.0,-6.0,0.766
3.0,-5.0,0.767
11.0,-9.0,0.768
17.0,-13.0,0.769
18.0,-11.0,0.77
11.0,-9.0,0.771
-6.0,-13.0,0.772
-26.0,-19.0,0.773
-42.0,-25.0,0.774
-48.0,-29.0,0.775
-41.0,-27.0,0.776
-33.0,-15.0,0.777
-30.0,0.0,0.778
-30.0,13.0,0.779
-23.0,17.0,0.78
-12.0,13.0,0.781
3.0,12.0,0.782
18.0,18.0,0.783
31.0,26.0,0.784
40.0,31.0,0.785
44.0,32.0,0.786
54.0,27.0,0.787
71.0,21.0,0.788
74.0,15.0,0.789
55.0,11.0,0.79
25.0,7.0,0.791
3.0,0.0,0.792
-11.0,-8.0,0.793
-27.0,-17.0,0.794
-40.0,-26.0,0.795
-42.0,-28.0,0.796
-36.0,-21.0,0.797
-28.0,-13.0,0.798
-14.0,-8.0,0.799
4.0,-1.0,0.8
13.0,2.0,0.801
4.0,6.0,0.802
-6.0,10.0,0.803
-4.0,11.0,0.804
-3.0,8.0,0.805
-8.0,0.0,0.806
-4.0,-8.0,0.807
18.0,-12.0,0.808
33.0,-8.0,0.809
26.0,-5.0,0.81
14.0,-5.0,0.811
17.0,-3.0,0.812
21.0,1.0,0.813
6.0,1.0,0.814
-11.0,-6.0,0.815
-12.0,-11.0,0.816
-4.0,-8.0,0.817
-3.0,0.0,0.818
-3.0,4.0,0.819
0.0,5.0,0.82
-8.0,-6.0,0.821
-26.0,-14.0,0.822
-36.0,-12.0,0.823
-26.0,-10.0,0.824
-18.0,-9.0,0.825
-21.0,-8.0,0.826
-19.0,-10.0,0.827
-2.0,-12.0,0.828
14.0,-14.0,0.829
16.0,-14.0,0.83
18.0,-3.0,0.831
27.0,7.0,0.832
33.0,11.0,0.833
31.0,17.0,0.834
36.0,27.0,0.835
48.0,33.0,0.836
50.0,26.0,0.837
37.0,17.0,0.838
21.0,8.0,0.839
5.0,4.0,0.84
-14.0,-3.0,0.841
-31.0,-13.0,0.842
-31.0,-24.0,0.843
-20.0,-27.0,0.844
-17.0,-25.0,0.845
-25.0,-19.0,0.846
-28.0,-13.0,0.847
-18.0,-8.0,0.848
-5.0,-8.0,0.849
4.0,-3.0,0.85
11.0,7.0,0.851
17.0,13.0,0.852
15.0,13.0,0.853
9.0,9.0,0.854
8.0,11.0,0.855
21.0,19.0,0.856
43.0,30.0,0.857
64.0,38.0,0.858
72.0,40.0,0.859
57.0,33.0,0.86
25.0,15.0,0.861
0.0,4.0,0.862
-9.0,0.0,0.863
-18.0,0.0,0.864
-42.0,-3.0,0.865
-65.0,-11.0,0.866
-63.0,-25.0,0.867
-42.0,-39.0,0.868
-25.0,-47.0,0.869
-15.0,-47.0,0.87
-2.0,-40.0,0.871
10.0,-31.0,0.872
8.0,-22.0,0.873
-4.0,-14.0,0.874
-8.0,-6.0,0.875
-2.0,2.0,0.876
0.0,7.0,0.877
-10.0,5.0,0.878
-23.0,0.0,0.879
-31.0,-5.0,0.88
-28.0,-8.0,0.881
-16.0,-4.0,0.882
7.0,-3.0,0.883
29.0,-3.0,0.884
41.0,-2.0,0.885
48.0,-1.0,0.886
58.0,-1.0,0.887
57.0,-7.0,0.888
35.0,-9.0,0.889
7.0,-7.0,0.89
-2.0,-2.0,0.891
3.0,3.0,0.892
5.0,8.0,0.893
1.0,13.0,0.894
8.0,16.0,0.895
26.0,16.0,0.896
39.0,19.0,0.897
31.0,22.0,0.898
10.0,25.0,0.899
-14.0,26.0,0.9
-26.0,18.0,0.901
-21.0,9.0,0.902
-8.0,2.0,0.903
-6.0,-4.0,0.904
-22.0,-10.0,0.905
-42.0,-18.0,0.906
-48.0,-26.0,0.907
-32.0,-30.0,0.908
-8.0,-22.0,0.909
10.0,-12.0,0.91
15.0,-1.0,0.911
14.0,8.0,0.912
21.0,9.0,0.913
35.0,10.0,0.914
47.0,13.0,0.915
46.0,15.0,0.916
33.0,11.0,0.917
10.0,5.0,0.918
-12.0,-5.0,0.919
-25.0,-12.0,0.92
-27.0,-13.0,0.921
-23.0,-3.0,0.922
-22.0,2.0,0.923
-26.0,-5.0,0.924
-30.0,-12.0,0.925
-28.0,-9.0,0.926
-12.0,-2.0,0.927
16.0,0.0,0.928
47.0,-4.0,0.929
68.0,-8.0,0.93
65.0,-9.0,0.931
43.0,-11.0,0.932
19.0,-10.0,0.933
9.0,-3.0,0.934
6.0,3.0,0.935
-4.0,4.0,0.936
-22.0,2.0,0.937
-39.0,-1.0,0.938
-40.0,0.0,0.939
-33.0,5.0,0.94
-29.0,12.0,0.941
-23.0,22.0,0.942
-2.0,27.0,0.943
24.0,27.0,0.944
32.0,23.0,0.945
20.0,20.0,0.946
9.0,15.0,0.947
10.0,9.0,0.948
14.0,6.0,0.949
8.0,4.0,0.95
6.0,-4.0,0.951
16.0,-16.0,0.952
29.0,-25.0,0.953
30.0,-25.0,0.954
19.0,-21.0,0.955
11.0,-14.0,0.956
11.0,-3.0,0.957
9.0,2.0,0.958
7.0,3.0,0.959
2.0,0.0,0.96
-5.0,-5.0,0.961
-22.0,-8.0,0.962
-39.0,-14.0,0.963
-42.0,-14.0,0.964
-31.0,-4.0,0.965
-15.0,7.0,0.966
1.0,5.0,0.967
19.0,-10.0,0.968
32.0,-24.0,0.969
30.0,-23.0,0.97
12.0,-13.0,0.971
-7.0,-2.0,0.972
-14.0,2.0,0.973
-10.0,1.0,0.974
-8.0,0.0,0.975
-3.0,0.0,0.976
14.0,-1.0,0.977
44.0,-7.0,0.978
74.0,-10.0,0.979
89.0,-10.0,0.98
83.0,3.0,0.981
64.0,13.0,0.982
42.0,12.0,0.983
19.0,11.0,0.984
-10.0,10.0,0.985
-45.0,9.0,0.986
-78.0,13.0,0.987
-100.0,15.0,0.988
-106.0,11.0,0.989
-103.0,3.0,0.99
-94.0,-11.0,0.991
-81.0,-23.0,0.992
-60.0,-22.0,0.993
-34.0,-21.0,0.994
-15.0,-20.0,0.995
-7.0,-17.0,0.996
-2.0,-8.0,0.997
8.0,2.0,0.998
22.0,9.0,0.999
31.0,11.0,1.0
33.0,11.0,1.001
40.0,14.0,1.002
53.0,15.0,1.003
63.0,8.0,1.004
65.0,-4.0,1.005
61.0,-11.0,1.006
56.0,-16.0,1.007
48.0,-14.0,1.008
39.0,-8.0,1.009
32.0,-1.0,1.01
27.0,4.0,1.011
22.0,12.0,1.012
17.0,26.0,1.013
13.0,37.0,1.014
8.0,36.0,1.015
-1.0,23.0,1.016
-9.0,12.0,1.017
-14.0,3.0,1.018
-10.0,0.0,1.019
0.0,-3.0,1.02
11.0,-6.0,1.021
7.0,-9.0,1.022
-10.0,-11.0,1.023
-25.0,-11.0,1.024
-26.0,-4.0,1.025
-17.0,2.0,1.026
-13.0,0.0,1.027
-17.0,-2.0,1.028
-17.0,-6.0,1.029
-7.0,-10.0,1.03
7.0,-10.0,1.031
18.0,-10.0,1.032
26.0,-6.0,1.033
32.0,-3.0,1.034
33.0,-3.0,1.035
31.0,-4.0,1.036
32.0,-8.0,1.037
33.0,-12.0,1.038
28.0,-11.0,1.039
3.0,-8.0,1.04
-36.0,-4.0,1.041
-70.0,1.0,1.042
-76.0,-1.0,1.043
-57.0,-14.0,1.044
-39.0,-25.0,1.045
-34.0,-21.0,1.046
-31.0,-8.0,1.047
-21.0,4.0,1.048
-9.0,12.0,1.049
-1.0,17.0,1.05
10.0,14.0,1.051
28.0,6.0,1.052
44.0,0.0,1.053
48.0,1.0,1.054
42.0,5.0,1.055
32.0,2.0,1.056
25.0,-3.0,1.057
22.0,-4.0,1.058
19.0,-2.0,1.059
8.0,-2.0,1.06
-6.0,-7.0,1.061
-7.0,-12.0,1.062
10.0,-10.0,1.063
26.0,-8.0,1.064
23.0,-3.0,1.065
8.0,2.0,1.066
-2.0,6.0,1.067
-7.0,9.0,1.068
-18.0,10.0,1.069
-35.0,12.0,1.07
-45.0,11.0,1.071
-41.0,9.0,1.072
-35.0,6.0,1.073
-40.0,2.0,1.074
-45.0,-4.0,1.075
-37.0,-10.0,1.076
-15.0,-11.0,1.077
9.0,-11.0,1.078
26.0,-3.0,1.079
31.0,-2.0,1.08
35.0,-6.0,1.081
39.0,-6.0,1.082
46.0,-2.0,1.083
49.0,2.0,1.084
46.0,6.0,1.085
47.0,8.0,1.086
50.0,7.0,1.087
46.0,4.0,1.088
30.0,3.0,1.089
12.0,5.0,1.09
4.0,7.0,1.091
0.0,7.0,1.092
-11.0,2.0,1.093
-25.0,-1.0,1.094
-26.0,-3.0,1.095
-14.0,-1.0,1.096
1.0,0.0,1.097
6.0,-4.0,1.098
8.0,-8.0,1.099
14.0,-10.0,1.1
26.0,-9.0,1.101
37.0,-7.0,1.102
37.0,-6.0,1.103
22.0,-8.0,1.104
-7.0,-7.0,1.105
-35.0,-5.0,1.106
-53.0,-8.0,1.107
-60.0,-11.0,1.108
-63.0,-2.0,1.109
-65.0,14.0,1.11
-60.0,24.0,1.111
-46.0,21.0,1.112
-28.0,18.0,1.113
-13.0,19.0,1.114
3.0,14.0,1.115
17.0,2.0,1.116
20.0,-6.0,1.117
18.0,-5.0,1.118
19.0,1.0,1.119
23.0,1.0,1.12
32.0,-9.0,1.121
47.0,-15.0,1.122
75.0,-18.0,1.123
92.0,-18.0,1.124
78.0,-11.0,1.125
36.0,2.0,1.126
2.0,17.0,1.127
-8.0,22.0,1.128
-8.0,18.0,1.129
-12.0,12.0,1.13
-18.0,-2.0,1.131
-21.0,-26.0,1.132
-28.0,-43.0,1.133
-39.0,-38.0,1.134
-44.0,-16.0,1.135
-38.0,-1.0,1.136
-28.0,0.0,1.137
-22.0,-6.0,1.138
-5.0,-8.0,1.139
15.0,-4.0,1.14
23.0,-2.0,1.141
11.0,0.0,1.142
7.0,6.0,1.143
22.0,7.0,1.144
42.0,1.0,1.145
46.0,-3.0,1.146
32.0,-1.0,1.147
12.0,2.0,1.148
-10.0,2.0,1.149
-26.0,-2.0,1.15
-22.0,-2.0,1.151
-5.0,-1.0,1.152
2.0,-1.0,1.153
-6.0,-4.0,1.154
-12.0,-4.0,1.155
-6.0,0.0,1.156
0.0,4.0,1.157
-1.0,3.0,1.158
0.0,5.0,1.159
10.0,8.0,1.16
17.0,5.0,1.161
12.0,1.0,1.162
6.0,2.0,1.163
11.0,7.0,1.164
14.0,11.0,1.165
18.0,11.0,1.166
35.0,9.0,1.167
55.0,8.0,1.168
49.0,9.0,1.169
13.0,8.0,1.17
-21.0,2.0,1.171
-29.0,-6.0,1.172
-29.0,-10.0,1.173
-41.0,-8.0,1.174
-51.0,-9.0,1.175
-40.0,-10.0,1.176
-20.0,-7.0,1.177
-7.0,-5.0,1.178
-3.0,-1.0,1.179
3.0,-2.0,1.18
9.0,-5.0,1.181
12.0,-5.0,1.182
15.0,-4.0,1.183
21.0,-6.0,1.184
20.0,-6.0,1.185
12.0,-3.0,1.186
10.0,1.0,1.187
20.0,5.0,1.188
32.0,2.0,1.189
33.0,-2.0,1.19
28.0,-6.0,1.191
28.0,-7.0,1.192
28.0,-7.0,1.193
18.0,-6.0,1.194
3.0,0.0,1.195
-5.0,5.0,1.196
-10.0,7.0,1.197
-25.0,0.0,1.198
-44.0,-8.0,1.199
-60.0,-14.0,1.2
-62.0,-15.0,1.201
-52.0,-10.0,1.202
-29.0,-4.0,1.203
0.0,-2.0,1.204
26.0,1.0,1.205
50.0,4.0,1.206
85.0,6.0,1.207
117.0,9.0,1.208
114.0,14.0,1.209
60.0,24.0,1.21
-9.0,31.0,1.211
-48.0,31.0,1.212
-57.0,26.0,1.213
-64.0,19.0,1.214
-73.0,8.0,1.215
-69.0,-7.0,1.216
-56.0,-17.0,1.217
-48.0,-18.0,1.218
-39.0,-12.0,1.219
-17.0,-8.0,1.22
13.0,-14.0,1.221
33.0,-20.0,1.222
42.0,-20.0,1.223
47.0,-18.0,1.224
49.0,-16.0,1.225
43.0,-14.0,1.226
31.0,-10.0,1.227
25.0,-7.0,1.228
23.0,-8.0,1.229
14.0,-9.0,1.23
1.0,-7.0,1.231
-1.0,-4.0,1.232
0.0,-1.0,1.233
-4.0,2.0,1.234
-18.0,6.0,1.235
-30.0,10.0,1.236
-29.0,16.0,1.237
-24.0,23.0,1.238
-19.0,23.0,1.239
-13.0,14.0,1.24
-3.0,3.0,1.241
10.0,3.0,1.242
23.0,12.0,1.243
29.0,21.0,1.244
29.0,24.0,1.245
28.0,19.0,1.246
30.0,4.0,1.247
27.0,-12.0,1.248
13.0,-19.0,1.249
-1.0,-13.0,1.25
-4.0,-6.0,1.251
-3.0,-11.0,1.252
-6.0,-21.0,1.253
-11.0,-18.0,1.254
-9.0,-7.0,1.255
0.0,-2.0,1.256
10.0,-2.0,1.257
11.0,-3.0,1.258
8.0,2.0,1.259
2.0,7.0,1.26
1.0,7.0,1.261
8.0,8.0,1.262
17.0,9.0,1.263
21.0,9.0,1.264
21.0,5.0,1.265
20.0,0.0,1.266
17.0,-8.0,1.267
7.0,-15.0,1.268
-2.0,-21.0,1.269
-5.0,-26.0,1.27
-1.0,-24.0,1.271
10.0,-23.0,1.272
25.0,-23.0,1.273
35.0,-21.0,1.274
25.0,-13.0,1.275
-6.0,-6.0,1.276
-31.0,0.0,1.277
-38.0,5.0,1.278
-30.0,9.0,1.279
-25.0,13.0,1.28
-25.0,17.0,1.281
-25.0,20.0,1.282
-24.0,16.0,1.283
-24.0,5.0,1.284
-27.0,1.0,1.285
-21.0,9.0,1.286
-10.0,19.0,1.287
-5.0,19.0,1.288
-7.0,11.0,1.289
-10.0,4.0,1.29
-8.0,4.0,1.291
-5.0,6.0,1.292
0.0,10.0,1.293
11.0,13.0,1.294
22.0,13.0,1.295
25.0,8.0,1.296
20.0,5.0,1.297
8.0,0.0,1.298
-2.0,-9.0,1.299
-9.0,-25.0,1.3
-11.0,-38.0,1.301
-8.0,-33.0,1.302
-1.0,-18.0,1.303
10.0,-11.0,1.304
21.0,-14.0,1.305
35.0,-21.0,1.306
48.0,-25.0,1.307
47.0,-23.0,1.308
27.0,-13.0,1.309
4.0,1.0,1.31
-4.0,12.0,1.311
-1.0,14.0,1.312
8.0,17.0,1.313
20.0,23.0,1.314
34.0,19.0,1.315
37.0,3.0,1.316
22.0,-8.0,1.317
4.0,-8.0,1.318
-9.0,-7.0,1.319
-11.0,-11.0,1.32
-9.0,-17.0,1.321
-12.0,-10.0,1.322
-13.0,3.0,1.323
-11.0,13.0,1.324
-12.0,20.0,1.325
-19.0,28.0,1.326
-21.0,29.0,1.327
-18.0,21.0,1.328
-15.0,12.0,1.329
-14.0,12.0,1.33
-5.0,11.0,1.331
9.0,1.0,1.332
20.0,-13.0,1.333
21.0,-17.0,1.334
20.0,-10.0,1.335
19.0,-4.0,1.336
19.0,-1.0,1.337
23.0,-2.0,1.338
27.0,-5.0,1.339
23.0,-8.0,1.34
6.0,-13.0,1.341
-12.0,-12.0,1.342
-16.0,-11.0,1.343
-4.0,-5.0,1.344
7.0,4.0,1.345
9.0,13.0,1.346
7.0,12.0,1.347
2.0,3.0,1.348
-4.0,-7.0,1.349
-11.0,-11.0,1.35
-15.0,-13.0,1.351
-18.0,-20.0,1.352
-21.0,-26.0,1.353
-19.0,-22.0,1.354
-8.0,-10.0,1.355
2.0,-1.0,1.356
10.0,4.0,1.357
14.0,4.0,1.358
22.0,9.0,1.359
23.0,17.0,1.36
19.0,20.0,1.361
15.0,20.0,1.362
23.0,16.0,1.363
34.0,14.0,1.364
35.0,15.0,1.365
28.0,12.0,1.366
23.0,7.0,1.367
25.0,1.0,1.368
28.0,-3.0,1.369
20.0,-7.0,1.37
-4.0,-11.0,1.371
-31.0,-13.0,1.372
-45.0,-10.0,1.373
-43.0,-11.0,1.374
-38.0,-20.0,1.375
-40.0,-30.0,1.376
-36.0,-25.0,1.377
-23.0,-12.0,1.378
-7.0,-3.0,1.379
-2.0,-3.0,1.38
-4.0,-9.0,1.381
-2.0,-8.0,1.382
4.0,-5.0,1.383
10.0,-7.0,1.384
14.0,-6.0,1.385
20.0,4.0,1.386
22.0,13.0,1.387
17.0,14.0,1.388
9.0,13.0,1.389
8.0,17.0,1.39
16.0,21.0,1.391
21.0,21.0,1.392
18.0,18.0,1.393
12.0,13.0,1.394
3.0,6.0,1.395
-3.0,-5.0,1.396
-4.0,-9.0,1.397
-4.0,-8.0,1.398
-5.0,-7.0,1.399
-16.0,-16.0,1.4
-25.0,-28.0,1.401
-23.0,-25.0,1.402
-14.0,-13.0,1.403
-3.0,-2.0,1.404
9.0,7.0,1.405
22.0,21.0,1.406
30.0,36.0,1.407
28.0,40.0,1.408
21.0,31.0,1.409
22.0,22.0,1.41
26.0,16.0,1.411
22.0,13.0,1.412
9.0,6.0,1.413
-3.0,-5.0,1.414
-9.0,-19.0,1.415
-14.0,-34.0,1.416
-18.0,-44.0,1.417
-14.0,-47.0,1.418
-3.0,-44.0,1.419
3.0,-39.0,1.42
0.0,-27.0,1.421
-2.0,-3.0,1.422
4.0,19.0,1.423
12.0,30.0,1.424
11.0,31.0,1.425
5.0,31.0,1.426
9.0,29.0,1.427
22.0,21.0,1.428
29.0,10.0,1.429
18.0,6.0,1.43
0.0,9.0,1.431
-11.0,9.0,1.432
-13.0,2.0,1.433
-17.0,-6.0,1.434
-25.0,-13.0,1.435
-28.0,-23.0,1.436
-23.0,-27.0,1.437
-18.0,-24.0,1.438
-16.0,-17.0,1.439
-12.0,-15.0,1.44
0.0,-21.0,1.441
14.0,-16.0,1.442
15.0,-3.0,1.443
11.0,12.0,1.444
7.0,19.0,1.445
5.0,17.0,1.446
4.0,10.0,1.447
5.0,2.0,1.448
10.0,0.0,1.449
14.0,4.0,1.45
14.0,8.0,1.451
13.0,7.0,1.452
15.0,1.0,1.453
23.0,-2.0,1.454
33.0,0.0,1.455
37.0,5.0,1.456
31.0,8.0,1.457
15.0,6.0,1.458
0.0,4.0,1.459
-8.0,0.0,1.46
-9.0,-8.0,1.461
-9.0,-14.0,1.462
-5.0,-14.0,1.463
0.0,-8.0,1.464
-1.0,-3.0,1.465
-6.0,-2.0,1.466
-8.0,-5.0,1.467
-1.0,-6.0,1.468
8.0,-3.0,1.469
12.0,-1.0,1.47
12.0,-3.0,1.471
9.0,-6.0,1.472
0.0,-7.0,1.473
-12.0,-8.0,1.474
-19.0,-10.0,1.475
-15.0,-7.0,1.476
-3.0,-2.0,1.477
7.0,0.0,1.478
11.0,-5.0,1.479
1.0,-17.0,1.48
-14.0,-25.0,1.481
-21.0,-15.0,1.482
-7.0,4.0,1.483
16.0,16.0,1.484
23.0,20.0,1.485
9.0,22.0,1.486
-9.0,27.0,1.487
-13.0,28.0,1.488
-4.0,23.0,1.489
4.0,18.0,1.49
11.0,16.0,1.491
18.0,13.0,1.492
19.0,9.0,1.493
8.0,8.0,1.494
-3.0,7.0,1.495
-8.0,3.0,1.496
-7.0,-1.0,1.497
-11.0,-7.0,1.498
-18.0,-13.0,1.499
-28.0,-25.0,1.5
-40.0,-42.0,1.501
-45.0,-51.0,1.502
-37.0,-52.0,1.503
-10.0,-48.0,1.504
16.0,-40.0,1.505
30.0,-24.0,1.506
30.0,-8.0,1.507
26.0,2.0,1.508
26.0,12.0,1.509
27.0,28.0,1.51
30.0,44.0,1.511
29.0,49.0,1.512
23.0,46.0,1.513
18.0,36.0,1.514
15.0,24.0,1.515
15.0,10.0,1.516
15.0,2.0,1.517
13.0,-1.0,1.518
10.0,-3.0,1.519
6.0,-8.0,1.52
3.0,-16.0,1.521
4.0,-16.0,1.522
9.0,-11.0,1.523
14.0,-8.0,1.524
11.0,-3.0,1.525
5.0,5.0,1.526
4.0,7.0,1.527
10.0,3.0,1.528
9.0,-1.0,1.529
2.0,0.0,1.53
-3.0,7.0,1.531
-4.0,8.0,1.532
-7.0,5.0,1.533
-16.0,0.0,1.534
-19.0,-7.0,1.535
-11.0,-10.0,1.536
-1.0,-7.0,1.537
1.0,-3.0,1.538
0.0,-1.0,1.539
0.0,0.0,1.54
6.0,-2.0,1.541
12.0,-4.0,1.542
13.0,-4.0,1.543
13.0,-5.0,1.544
3.0,-5.0,1.545
-4.0,-4.0,1.546
-6.0,-5.0,1.547
-10.0,-7.0,1.548
-14.0,-6.0,1.549
-17.0,-5.0,1.55
-19.0,-9.0,1.551
-19.0,-11.0,1.552
-9.0,-9.0,1.553
-1.0,-6.0,1.554
4.0,-3.0,1.555
11.0,0.0,1.556
20.0,1.0,1.557
29.0,4.0,1.558
31.0,5.0,1.559
21.0,5.0,1.56
6.0,4.0,1.561
-1.0,6.0,1.562
1.0,6.0,1.563
1.0,3.0,1.564
-6.0,1.0,1.565
-18.0,0.0,1.566
-20.0,-2.0,1.567
-16.0,-7.0,1.568
-11.0,-13.0,1.569
-8.0,-17.0,1.57
4.0,-17.0,1.571
20.0,-9.0,1.572
27.0,1.0,1.573
21.0,9.0,1.574
17.0,7.0,1.575
18.0,6.0,1.576
19.0,8.0,1.577
12.0,13.0,1.578
1.0,12.0,1.579
-9.0,5.0,1.58
-17.0,-5.0,1.581
-20.0,-8.0,1.582
-14.0,-5.0,1.583
-2.0,3.0,1.584
9.0,11.0,1.585
13.0,14.0,1.586
20.0,8.0,1.587
29.0,-4.0,1.588
39.0,-12.0,1.589
50.0,-13.0,1.59
56.0,-9.0,1.591
52.0,-2.0,1.592
30.0,4.0,1.593
3.0,7.0,1.594
-14.0,5.0,1.595
-15.0,-5.0,1.596
-12.0,-13.0,1.597
-21.0,-19.0,1.598
-39.0,-18.0,1.599
-59.0,-14.0,1.6
-76.0,-16.0,1.601
-79.0,-20.0,1.602
-68.0,-19.0,1.603
-59.0,-16.0,1.604
-60.0,-12.0,1.605
-56.0,-11.0,1.606
-34.0,-7.0,1.607
-7.0,1.0,1.608
10.0,7.0,1.609
21.0,6.0,1.61
44.0,7.0,1.611
73.0,12.0,1.612
88.0,18.0,1.613
89.0,19.0,1.614
92.0,20.0,1.615
97.0,22.0,1.616
86.0,25.0,1.617
51.0,20.0,1.618
6.0,15.0,1.619
-36.0,9.0,1.62
-69.0,-3.0,1.621
-92.0,-13.0,1.622
-82.0,-12.0,1.623
-70.0,-7.0,1.624
-49.0,-7.0,1.625
-24.0,-9.0,1.626
9.0,-6.0,1.627
37.0,3.0,1.628
45.0,8.0,1.629
47.0,9.0,1.63
33.0,11.0,1.631
21.0,19.0,1.632
16.0,24.0,1.633
8.0,20.0,1.634
-5.0,12.0,1.635
-18.0,6.0,1.636
-23.0,1.0,1.637
-25.0,-9.0,1.638
-12.0,-18.0,1.639
9.0,-23.0,1.64
29.0,-22.0,1.641
46.0,-12.0,1.642
68.0,-3.0,1.643
90.0,0.0,1.644
93.0,-1.0,1.645
77.0,-2.0,1.646
54.0,1.0,1.647
27.0,4.0,1.648
-4.0,4.0,1.649
-25.0,2.0,1.65
-21.0,-6.0,1.651
-10.0,-21.0,1.652
-23.0,-38.0,1.653
-56.0,-40.0,1.654
-71.0,-23.0,1.655
-57.0,-6.0,1.656
-34.0,0.0,1.657
-25.0,-3.0,1.658
-23.0,-3.0,1.659
-20.0,1.0,1.66
-12.0,-2.0,1.661
-4.0,-3.0,1.662
2.0,-2.0,1.663
-1.0,-3.0,1.664
-18.0,-6.0,1.665
-33.0,-7.0,1.666
-26.0,0.0,1.667
-3.0,9.0,1.668
7.0,11.0,1.669
-3.0,5.0,1.67
-10.0,-3.0,1.671
-2.0,-7.0,1.672
9.0,-6.0,1.673
11.0,-3.0,1.674
15.0,1.0,1.675
37.0,3.0,1.676
70.0,5.0,1.677
89.0,10.0,1.678
77.0,15.0,1.679
41.0,15.0,1.68
6.0,11.0,1.681
-6.0,10.0,1.682
0.0,13.0,1.683
8.0,11.0,1.684
-1.0,3.0,1.685
-21.0,-7.0,1.686
-34.0,-17.0,1.687
-33.0,-19.0,1.688
-24.0,-14.0,1.689
-13.0,-8.0,1.69
-5.0,-6.0,1.691
-4.0,-5.0,1.692
-10.0,-1.0,1.693
-17.0,4.0,1.694
-10.0,3.0,1.695
7.0,0.0,1.696
17.0,0.0,1.697
14.0,2.0,1.698
10.0,3.0,1.699
9.0,5.0,1.7
17.0,5.0,1.701
27.0,5.0,1.702
45.0,9.0,1.703
58.0,12.0,1.704
56.0,13.0,1.705
49.0,14.0,1.706
29.0,8.0,1.707
9.0,3.0,1.708
-9.0,-2.0,1.709
-27.0,-5.0,1.71
-39.0,-3.0,1.711
-46.0,-2.0,1.712
-34.0,-10.0,1.713
-24.0,-17.0,1.714
-20.0,-22.0,1.715
-13.0,-23.0,1.716
4.0,-13.0,1.717
22.0,-3.0,1.718
32.0,2.0,1.719
38.0,4.0,1.72
42.0,5.0,1.721
37.0,6.0,1.722
22.0,4.0,1.723
8.0,1.0,1.724
8.0,5.0,1.725
20.0,14.0,1.726
27.0,15.0,1.727
6.0,5.0,1.728
-40.0,-7.0,1.729
-93.0,-17.0,1.73
-125.0,-25.0,1.731
-132.0,-32.0,1.732
-117.0,-34.0,1.733
-90.0,-25.0,1.734
-58.0,-14.0,1.735
-29.0,-7.0,1.736
-6.0,0.0,1.737
11.0,9.0,1.738
24.0,16.0,1.739
30.0,16.0,1.74
36.0,12.0,1.741
42.0,10.0,1.742
44.0,5.0,1.743
38.0,-2.0,1.744
34.0,-3.0,1.745
36.0,2.0,1.746
38.0,2.0,1.747
35.0,-3.0,1.748
32.0,-5.0,1.749
37.0,2.0,1.75
41.0,4.0,1.751
40.0,-1.0,1.752
37.0,-3.0,1.753
35.0,3.0,1.754
31.0,6.0,1.755
28.0,2.0,1.756
30.0,2.0,1.757
33.0,4.0,1.758
25.0,-1.0,1.759
1.0,-12.0,1.76
-21.0,-18.0,1.761
-27.0,-8.0,1.762
-23.0,1.0,1.763
-16.0,1.0,1.764
-9.0,1.0,1.765
-2.0,6.0,1.766
0.0,9.0,1.767
0.0,5.0,1.768
4.0,2.0,1.769
15.0,5.0,1.77
26.0,6.0,1.771
27.0,1.0,1.772
19.0,-5.0,1.773
5.0,-5.0,1.774
-3.0,-5.0,1.775
-5.0,-5.0,1.776
-3.0,0.0,1.777
-8.0,4.0,1.778
-10.0,6.0,1.779
-11.0,8.0,1.78
-5.0,8.0,1.781
0.0,7.0,1.782
0.0,1.0,1.783
1.0,-3.0,1.784
11.0,-3.0,1.785
16.0,-3.0,1.786
4.0,1.0,1.787
-9.0,4.0,1.788
-21.0,6.0,1.789
-34.0,7.0,1.79
-50.0,-1.0,1.791
-66.0,-11.0,1.792
-80.0,-27.0,1.793
-84.0,-40.0,1.794
-55.0,-41.0,1.795
-27.0,-38.0,1.796
-1.0,-20.0,1.797
19.0,-4.0,1.798
19.0,-1.0,1.799
18.0,-3.0,1.8
24.0,-4.0,1.801
34.0,0.0,1.802
38.0,2.0,1.803
39.0,5.0,1.804
41.0,11.0,1.805
39.0,17.0,1.806
33.0,17.0,1.807
31.0,12.0,1.808
33.0,10.0,1.809
35.0,12.0,1.81
29.0,12.0,1.811
22.0,9.0,1.812
19.0,6.0,1.813
18.0,7.0,1.814
16.0,6.0,1.815
19.0,6.0,1.816
29.0,8.0,1.817
36.0,7.0,1.818
29.0,5.0,1.819
14.0,1.0,1.82
3.0,-7.0,1.821
7.0,-14.0,1.822
24.0,-14.0,1.823
34.0,-6.0,1.824
22.0,6.0,1.825
-10.0,12.0,1.826
-36.0,6.0,1.827
-41.0,-5.0,1.828
-41.0,-12.0,1.829
-55.0,-13.0,1.83
-74.0,-13.0,1.831
-71.0,-11.0,1.832
-50.0,-8.0,1.833
-37.0,-6.0,1.834
-38.0,-5.0,1.835
-38.0,-6.0,1.836
-28.0,-9.0,1.837
-23.0,-9.0,1.838
-24.0,-8.0,1.839
-24.0,-6.0,1.84
-14.0,-7.0,1.841
-3.0,-7.0,1.842
8.0,-2.0,1.843
24.0,3.0,1.844
47.0,7.0,1.845
63.0,7.0,1.846
61.0,3.0,1.847
47.0,-1.0,1.848
32.0,-2.0,1.849
20.0,3.0,1.85
14.0,11.0,1.851
14.0,11.0,1.852
18.0,6.0,1.853
22.0,5.0,1.854
23.0,9.0,1.855
21.0,9.0,1.856
21.0,3.0,1.857
21.0,-3.0,1.858
21.0,0.0,1.859
20.0,4.0,1.86
18.0,2.0,1.861
24.0,-1.0,1.862
47.0,2.0,1.863
74.0,11.0,1.864
72.0,17.0,1.865
28.0,16.0,1.866
-33.0,10.0,1.867
-75.0,0.0,1.868
-79.0,-7.0,1.869
-58.0,-12.0,1.87
-41.0,-17.0,1.871
-44.0,-26.0,1.872
-54.0,-39.0,1.873
-48.0,-45.0,1.874
-22.0,-39.0,1.875
1.0,-21.0,1.876
9.0,-4.0,1.877
4.0,2.0,1.878
2.0,-1.0,1.879
0.0,-2.0,1.88
-7.0,-1.0,1.881
-10.0,0.0,1.882
3.0,-6.0,1.883
23.0,-11.0,1.884
35.0,-4.0,1.885
35.0,8.0,1.886
33.0,11.0,1.887
32.0,7.0,1.888
29.0,8.0,1.889
23.0,15.0,1.89
19.0,17.0,1.891
20.0,11.0,1.892
18.0,7.0,1.893
14.0,7.0,1.894
12.0,7.0,1.895
25.0,8.0,1.896
51.0,12.0,1.897
70.0,12.0,1.898
60.0,8.0,1.899
25.0,4.0,1.9
0.0,6.0,1.901
9.0,14.0,1.902
25.0,15.0,1.903
4.0,11.0,1.904
-54.0,8.0,1.905
-108.0,6.0,1.906
-120.0,-6.0,1.907
-104.0,-22.0,1.908
-95.0,-27.0,1.909
-98.0,-23.0,1.91
-92.0,-23.0,1.911
-69.0,-31.0,1.912
-40.0,-31.0,1.913
-17.0,-16.0,1.914
2.0,-1.0,1.915
19.0,1.0,1.916
34.0,0.0,1.917
40.0,1.0,1.918
43.0,7.0,1.919
41.0,9.0,1.92
42.0,4.0,1.921
45.0,2.0,1.922
54.0,4.0,1.923
63.0,9.0,1.924
71.0,14.0,1.925
83.0,20.0,1.926
97.0,22.0,1.927
104.0,16.0,1.928
84.0,10.0,1.929
42.0,7.0,1.93
1.0,7.0,1.931
-19.0,6.0,1.932
-27.0,5.0,1.933
-44.0,1.0,1.934
-68.0,-10.0,1.935
-79.0,-27.0,1.936
-69.0,-35.0,1.937
-53.0,-30.0,1.938
-43.0,-17.0,1.939
-31.0,-8.0,1.94
-4.0,-9.0,1.941
24.0,-8.0,1.942
32.0,-4.0,1.943
18.0,1.0,1.944
0.0,6.0,1.945
-11.0,9.0,1.946
-10.0,6.0,1.947
-3.0,-1.0,1.948
5.0,-9.0,1.949
9.0,-6.0,1.95
7.0,2.0,1.951
4.0,5.0,1.952
2.0,3.0,1.953
7.0,5.0,1.954
20.0,10.0,1.955
40.0,11.0,1.956
59.0,10.0,1.957
63.0,8.0,1.958
49.0,10.0,1.959
22.0,5.0,1.96
-8.0,-10.0,1.961
-29.0,-24.0,1.962
-36.0,-33.0,1.963
-29.0,-37.0,1.964
-14.0,-31.0,1.965
-4.0,-14.0,1.966
-8.0,3.0,1.967
-22.0,9.0,1.968
-29.0,5.0,1.969
-18.0,0.0,1.97
5.0,3.0,1.971
18.0,7.0,1.972
10.0,10.0,1.973
-6.0,10.0,1.974
-10.0,4.0,1.975
-5.0,-5.0,1.976
-4.0,-7.0,1.977
-18.0,0.0,1.978
-28.0,9.0,1.979
-26.0,11.0,1.98
-15.0,7.0,1.981
-8.0,7.0,1.982
-5.0,8.0,1.983
-1.0,2.0,1.984
1.0,-5.0,1.985
3.0,-6.0,1.986
10.0,-2.0,1.987
22.0,2.0,1.988
32.0,7.0,1.989
32.0,10.0,1.99
28.0,9.0,1.991
25.0,2.0,1.992
23.0,-1.0,1.993
19.0,1.0,1.994
17.0,4.0,1.995
18.0,2.0,1.996
21.0,3.0,1.997
15.0,4.0,1.998
7.0,4.0,1.999
0.0,0.0,2.0
-2.0,-6.0,2.001
-1.0,-8.0,2.002
2.0,-6.0,2.003
8.0,-5.0,2.004
8.0,-2.0,2.005
7.0,3.0,2.006
6.0,3.0,2.007
10.0,-2.0,2.008
10.0,-5.0,2.009
5.0,-1.0,2.01
1.0,1.0,2.011
2.0,-2.0,2.012
2.0,-4.0,2.013
-1.0,0.0,2.014
-4.0,3.0,2.015
-2.0,0.0,2.016
5.0,-5.0,2.017
14.0,-8.0,2.018
20.0,-3.0,2.019
22.0,2.0,2.02
23.0,2.0,2.021
29.0,0.0,2.022
36.0,-1.0,2.023
31.0,0.0,2.024
8.0,4.0,2.025
-12.0,7.0,2.026
-14.0,5.0,2.027
3.0,5.0,2.028
19.0,10.0,2.029
8.0,11.0,2.03
-29.0,0.0,2.031
-75.0,-17.0,2.032
-100.0,-27.0,2.033
-97.0,-25.0,2.034
-84.0,-22.0,2.035
-75.0,-21.0,2.036
-64.0,-17.0,2.037
-44.0,-15.0,2.038
-19.0,-16.0,2.039
-7.0,-17.0,2.04
-5.0,-12.0,2.041
6.0,1.0,2.042
28.0,8.0,2.043
44.0,5.0,2.044
47.0,4.0,2.045
45.0,10.0,2.046
52.0,13.0,2.047
56.0,10.0,2.048
57.0,6.0,2.049
58.0,7.0,2.05
63.0,9.0,2.051
62.0,7.0,2.052
46.0,9.0,2.053
21.0,11.0,2.054
-4.0,9.0,2.055
-24.0,-2.0,2.056
-37.0,-12.0,2.057
-46.0,-20.0,2.058
-49.0,-24.0,2.059
-46.0,-25.0,2.06
-36.0,-22.0,2.061
-20.0,-9.0,2.062
-3.0,5.0,2.063
8.0,14.0,2.064
16.0,15.0,2.065
25.0,11.0,2.066
41.0,9.0,2.067
61.0,9.0,2.068
78.0,7.0,2.069
79.0,9.0,2.07
56.0,13.0,2.071
22.0,15.0,2.072
-5.0,11.0,2.073
-19.0,5.0,2.074
-31.0,3.0,2.075
-45.0,1.0,2.076
-51.0,-3.0,2.077
-50.0,-9.0,2.078
-47.0,-7.0,2.079
-48.0,-1.0,2.08
-39.0,-1.0,2.081
-14.0,-3.0,2.082
14.0,-2.0,2.083
31.0,1.0,2.084
37.0,2.0,2.085
45.0,-1.0,2.086
58.0,-4.0,2.087
67.0,-8.0,2.088
62.0,-8.0,2.089
46.0,-2.0,2.09
23.0,10.0,2.091
5.0,12.0,2.092
-3.0,5.0,2.093
-1.0,-2.0,2.094
18.0,0.0,2.095
42.0,4.0,2.096
51.0,5.0,2.097
21.0,2.0,2.098
-41.0,4.0,2.099
-102.0,5.0,2.1
-127.0,-1.0,2.101
-113.0,-7.0,2.102
-89.0,-7.0,2.103
-74.0,-9.0,2.104
-64.0,-19.0,2.105
-39.0,-31.0,2.106
7.0,-36.0,2.107
58.0,-34.0,2.108
76.0,-27.0,2.109
56.0,-14.0,2.11
21.0,4.0,2.111
6.0,21.0,2.112
8.0,28.0,2.113
12.0,24.0,2.114
11.0,16.0,2.115
10.0,6.0,2.116
10.0,-6.0,2.117
3.0,-17.0,2.118
1.0,-23.0,2.119
13.0,-18.0,2.12
26.0,-10.0,2.121
30.0,0.0,2.122
24.0,7.0,2.123
17.0,10.0,2.124
3.0,9.0,2.125
-14.0,7.0,2.126
-20.0,7.0,2.127
-4.0,6.0,2.128
14.0,7.0,2.129
13.0,3.0,2.13
-5.0,-6.0,2.131
-13.0,-14.0,2.132
-7.0,-9.0,2.133
-4.0,7.0,2.134
-11.0,17.0,2.135
-13.0,6.0,2.136
-4.0,-13.0,2.137
7.0,-26.0,2.138
18.0,-23.0,2.139
29.0,-10.0,2.14
43.0,0.0,2.141
48.0,6.0,2.142
40.0,4.0,2.143
26.0,-1.0,2.144
17.0,1.0,2.145
14.0,11.0,2.146
19.0,16.0,2.147
25.0,11.0,2.148
35.0,4.0,2.149
48.0,3.0,2.15
60.0,7.0,2.151
60.0,11.0,2.152
40.0,12.0,2.153
4.0,12.0,2.154
-28.0,9.0,2.155
-48.0,7.0,2.156
-57.0,8.0,2.157
-63.0,6.0,2.158
-65.0,-2.0,2.159
-61.0,-15.0,2.16
-55.0,-25.0,2.161
-50.0,-24.0,2.162
-43.0,-21.0,2.163
-32.0,-16.0,2.164
-17.0,-8.0,2.165
8.0,4.0,2.166
41.0,11.0,2.167
66.0,7.0,2.168
59.0,2.0,2.169
22.0,-1.0,2.17
-13.0,-5.0,2.171
-29.0,-8.0,2.172
-35.0,-6.0,2.173
-48.0,6.0,2.174
-57.0,19.0,2.175
-53.0,21.0,2.176
-41.0,14.0,2.177
-32.0,0.0,2.178
-23.0,-12.0,2.179
-8.0,-25.0,2.18
16.0,-36.0,2.181
43.0,-34.0,2.182
69.0,-21.0,2.183
87.0,-4.0,2.184
80.0,10.0,2.185
50.0,16.0,2.186
21.0,14.0,2.187
14.0,7.0,2.188
16.0,3.0,2.189
6.0,6.0,2.19
-7.0,10.0,2.191
-5.0,7.0,2.192
15.0,1.0,2.193
44.0,-1.0,2.194
74.0,4.0,2.195
89.0,12.0,2.196
76.0,19.0,2.197
34.0,19.0,2.198
0.0,15.0,2.199
-16.0,15.0,2.2
-34.0,12.0,2.201
-72.0,4.0,2.202
-103.0,-18.0,2.203
-99.0,-46.0,2.204
-76.0,-64.0,2.205
-56.0,-60.0,2.206
-42.0,-38.0,2.207
-21.0,-11.0,2.208
0.0,6.0,2.209
7.0,8.0,2.21
8.0,1.0,2.211
14.0,-1.0,2.212
23.0,7.0,2.213
32.0,20.0,2.214
41.0,25.0,2.215
50.0,24.0,2.216
52.0,25.0,2.217
39.0,24.0,2.218
20.0,24.0,2.219
-1.0,16.0,2.22
-17.0,2.0,2.221
-22.0,-8.0,2.222
-17.0,-16.0,2.223
-11.0,-20.0,2.224
-10.0,-19.0,2.225
-12.0,-16.0,2.226
-2.0,-14.0,2.227
16.0,-9.0,2.228
28.0,2.0,2.229
26.0,12.0,2.23
17.0,9.0,2.231
10.0,0.0,2.232
11.0,-3.0,2.233
19.0,1.0,2.234
30.0,4.0,2.235
33.0,4.0,2.236
25.0,5.0,2.237
10.0,5.0,2.238
0.0,3.0,2.239
-8.0,-3.0,2.24
-15.0,-9.0,2.241
-16.0,-9.0,2.242
2.0,-4.0,2.243
24.0,-1.0,2.244
28.0,0.0,2.245
13.0,2.0,2.246
-2.0,4.0,2.247
-7.0,6.0,2.248
-17.0,6.0,2.249
-30.0,7.0,2.25
-34.0,4.0,2.251
-24.0,3.0,2.252
-17.0,3.0,2.253
-29.0,6.0,2.254
-40.0,7.0,2.255
-26.0,5.0,2.256
-4.0,4.0,2.257
2.0,2.0,2.258
-6.0,1.0,2.259
-7.0,0.0,2.26
5.0,-9.0,2.261
14.0,-17.0,2.262
12.0,-21.0,2.263
8.0,-16.0,2.264
6.0,-15.0,2.265
4.0,-23.0,2.266
9.0,-30.0,2.267
25.0,-24.0,2.268
40.0,-7.0,2.269
40.0,7.0,2.27
25.0,7.0,2.271
11.0,5.0,2.272
10.0,9.0,2.273
25.0,16.0,2.274
48.0,18.0,2.275
68.0,14.0,2.276
69.0,11.0,2.277
44.0,9.0,2.278
8.0,9.0,2.279
-26.0,11.0,2.28
-51.0,11.0,2.281
-65.0,6.0,2.282
-69.0,-3.0,2.283
-72.0,-10.0,2.284
-79.0,-13.0,2.285
-81.0,-16.0,2.286
-72.0,-21.0,2.287
-54.0,-21.0,2.288
-31.0,-15.0,2.289
-2.0,-5.0,2.29
23.0,-2.0,2.291
36.0,-7.0,2.292
37.0,-11.0,2.293
47.0,-9.0,2.294
66.0,0.0,2.295
75.0,5.0,2.296
65.0,9.0,2.297
47.0,10.0,2.298
37.0,13.0,2.299
26.0,12.0,2.3
7.0,3.0,2.301
-9.0,-5.0,2.302
-13.0,-9.0,2.303
-9.0,-8.0,2.304
-11.0,-2.0,2.305
-10.0,4.0,2.306
3.0,6.0,2.307
23.0,4.0,2.308
32.0,6.0,2.309
37.0,10.0,2.31
42.0,10.0,2.311
43.0,3.0,2.312
30.0,0.0,2.313
16.0,3.0,2.314
12.0,11.0,2.315
13.0,18.0,2.316
8.0,21.0,2.317
-7.0,14.0,2.318
-20.0,-2.0,2.319
-37.0,-24.0,2.32
-52.0,-42.0,2.321
-51.0,-43.0,2.322
-36.0,-27.0,2.323
-29.0,-8.0,2.324
-42.0,4.0,2.325
-56.0,4.0,2.326
-42.0,-1.0,2.327
-8.0,1.0,2.328
20.0,11.0,2.329
31.0,17.0,2.33
39.0,11.0,2.331
47.0,7.0,2.332
45.0,8.0,2.333
39.0,10.0,2.334
31.0,8.0,2.335
17.0,1.0,2.336
-7.0,-7.0,2.337
-33.0,-17.0,2.338
-42.0,-19.0,2.339
-37.0,-11.0,2.34
-32.0,-8.0,2.341
-28.0,-11.0,2.342
-14.0,-14.0,2.343
7.0,-8.0,2.344
18.0,-2.0,2.345
17.0,2.0,2.346
17.0,2.0,2.347
27.0,3.0,2.348
38.0,5.0,2.349
39.0,3.0,2.35
36.0,1.0,2.351
38.0,6.0,2.352
50.0,11.0,2.353
68.0,13.0,2.354
79.0,14.0,2.355
73.0,18.0,2.356
48.0,20.0,2.357
6.0,13.0,2.358
-38.0,7.0,2.359
-77.0,1.0,2.36
-103.0,-10.0,2.361
-108.0,-21.0,2.362
-93.0,-24.0,2.363
-75.0,-16.0,2.364
-63.0,-10.0,2.365
-49.0,-16.0,2.366
-27.0,-26.0,2.367
-7.0,-24.0,2.368
0.0,-15.0,2.369
2.0,-8.0,2.37
13.0,-5.0,2.371
28.0,-1.0,2.372
38.0,3.0,2.373
42.0,7.0,2.374
40.0,10.0,2.375
38.0,12.0,2.376
38.0,11.0,2.377
41.0,7.0,2.378
42.0,6.0,2.379
34.0,9.0,2.38
25.0,9.0,2.381
31.0,12.0,2.382
62.0,16.0,2.383
91.0,21.0,2.384
84.0,23.0,2.385
39.0,20.0,2.386
-14.0,12.0,2.387
-48.0,2.0,2.388
-60.0,-7.0,2.389
-62.0,-13.0,2.39
-60.0,-23.0,2.391
-50.0,-41.0,2.392
-35.0,-54.0,2.393
-29.0,-46.0,2.394
-37.0,-20.0,2.395
-41.0,-3.0,2.396
-24.0,-1.0,2.397
2.0,-5.0,2.398
18.0,3.0,2.399
10.0,15.0,2.4
3.0,14.0,2.401
15.0,10.0,2.402
31.0,12.0,2.403
35.0,14.0,2.404
30.0,10.0,2.405
25.0,6.0,2.406
17.0,8.0,2.407
7.0,11.0,2.408
5.0,12.0,2.409
18.0,8.0,2.41
30.0,4.0,2.411
27.0,-2.0,2.412
12.0,-7.0,2.413
0.0,-10.0,2.414
-10.0,-11.0,2.415
-19.0,-10.0,2.416
-22.0,-5.0,2.417
-17.0,0.0,2.418
-14.0,1.0,2.419
-20.0,-3.0,2.42
-27.0,-10.0,2.421
-24.0,-13.0,2.422
-7.0,-13.0,2.423
10.0,-10.0,2.424
17.0,-6.0,2.425
15.0,-4.0,2.426
11.0,-5.0,2.427
10.0,-7.0,2.428
15.0,-3.0,2.429
23.0,3.0,2.43
35.0,4.0,2.431
41.0,3.0,2.432
36.0,6.0,2.433
25.0,11.0,2.434
18.0,10.0,2.435
23.0,7.0,2.436
33.0,10.0,2.437
35.0,11.0,2.438
24.0,5.0,2.439
2.0,-2.0,2.44
-20.0,-9.0,2.441
-32.0,-11.0,2.442
-35.0,-12.0,2.443
-41.0,-6.0,2.444
-54.0,5.0,2.445
-71.0,12.0,2.446
-76.0,5.0,2.447
-69.0,-8.0,2.448
-57.0,-12.0,2.449
-38.0,-10.0,2.45
-11.0,-9.0,2.451
16.0,-12.0,2.452
29.0,-13.0,2.453
28.0,-9.0,2.454
28.0,-4.0,2.455
32.0,0.0,2.456
32.0,1.0,2.457
23.0,0.0,2.458
19.0,-2.0,2.459
17.0,-2.0,2.46
11.0,1.0,2.461
1.0,5.0,2.462
7.0,8.0,2.463
28.0,8.0,2.464
39.0,8.0,2.465
31.0,10.0,2.466
25.0,12.0,2.467
35.0,11.0,2.468
51.0,8.0,2.469
56.0,7.0,2.47
49.0,6.0,2.471
32.0,3.0,2.472
10.0,2.0,2.473
-10.0,5.0,2.474
-19.0,11.0,2.475
-15.0,11.0,2.476
-11.0,3.0,2.477
-16.0,-11.0,2.478
-25.0,-20.0,2.479
-28.0,-21.0,2.48
-29.0,-21.0,2.481
-37.0,-18.0,2.482
-43.0,-14.0,2.483
-39.0,-5.0,2.484
-31.0,4.0,2.485
-22.0,11.0,2.486
-12.0,10.0,2.487
0.0,4.0,2.488
5.0,1.0,2.489
0.0,2.0,2.49
-3.0,5.0,2.491
4.0,6.0,2.492
19.0,7.0,2.493
33.0,8.0,2.494
43.0,5.0,2.495
49.0,-3.0,2.496
49.0,-7.0,2.497
46.0,-10.0,2.498
49.0,-8.0,2.499
56.0,-3.0,2.5
56.0,-1.0,2.501
39.0,3.0,2.502
11.0,2.0,2.503
-21.0,-1.0,2.504
-42.0,-4.0,2.505
-48.0,-5.0,2.506
-35.0,-3.0,2.507
-21.0,-4.0,2.508
-19.0,-10.0,2.509
-33.0,-22.0,2.51
-55.0,-35.0,2.511
-69.0,-38.0,2.512
-63.0,-26.0,2.513
-45.0,-7.0,2.514
-29.0,6.0,2.515
-23.0,9.0,2.516
-22.0,5.0,2.517
-20.0,-3.0,2.518
-17.0,-5.0,2.519
-13.0,0.0,2.52
11.0,5.0,2.521
53.0,8.0,2.522
83.0,7.0,2.523
77.0,9.0,2.524
50.0,14.0,2.525
34.0,16.0,2.526
39.0,13.0,2.527
38.0,13.0,2.528
25.0,20.0,2.529
10.0,26.0,2.53
0.0,21.0,2.531
-11.0,8.0,2.532
-26.0,-4.0,2.533
-36.0,-9.0,2.534
-33.0,-12.0,2.535
-23.0,-13.0,2.536
-12.0,-14.0,2.537
-2.0,-17.0,2.538
8.0,-22.0,2.539
14.0,-25.0,2.54
16.0,-24.0,2.541
15.0,-17.0,2.542
18.0,-12.0,2.543
27.0,-6.0,2.544
40.0,1.0,2.545
49.0,10.0,2.546
50.0,16.0,2.547
43.0,19.0,2.548
29.0,18.0,2.549
9.0,16.0,2.55
-8.0,16.0,2.551
-6.0,18.0,2.552
14.0,18.0,2.553
31.0,15.0,2.554
21.0,8.0,2.555
-13.0,1.0,2.556
-40.0,-5.0,2.557
-53.0,-11.0,2.558
-55.0,-11.0,2.559
-54.0,-3.0,2.56
-44.0,4.0,2.561
-19.0,5.0,2.562
13.0,-3.0,2.563
32.0,-8.0,2.564
28.0,-4.0,2.565
9.0,5.0,2.566
-12.0,9.0,2.567
-28.0,4.0,2.568
-39.0,1.0,2.569
-47.0,-1.0,2.57
-48.0,-3.0,2.571
-39.0,-9.0,2.572
-24.0,-16.0,2.573
-10.0,-23.0,2.574
0.0,-25.0,2.575
13.0,-22.0,2.576
30.0,-8.0,2.577
50.0,5.0,2.578
60.0,12.0,2.579
54.0,7.0,2.58
36.0,0.0,2.581
13.0,1.0,2.582
-3.0,4.0,2.583
-8.0,5.0,2.584
-2.0,9.0,2.585
9.0,13.0,2.586
23.0,11.0,2.587
34.0,1.0,2.588
36.0,-5.0,2.589
27.0,-3.0,2.59
13.0,-1.0,2.591
10.0,-3.0,2.592
19.0,-2.0,2.593
30.0,6.0,2.594
30.0,14.0,2.595
17.0,11.0,2.596
-1.0,4.0,2.597
-21.0,-6.0,2.598
-33.0,-14.0,2.599
-35.0,-16.0,2.6
-26.0,-13.0,2.601
-17.0,-7.0,2.602
-17.0,-6.0,2.603
-22.0,-6.0,2.604
-23.0,3.0,2.605
-15.0,16.0,2.606
-1.0,19.0,2.607
12.0,10.0,2.608
21.0,1.0,2.609
30.0,2.0,2.61
37.0,4.0,2.611
35.0,2.0,2.612
24.0,1.0,2.613
14.0,3.0,2.614
8.0,0.0,2.615
1.0,-10.0,2.616
-8.0,-17.0,2.617
-20.0,-17.0,2.618
-23.0,-15.0,2.619
-15.0,-19.0,2.62
-2.0,-25.0,2.621
6.0,-15.0,2.622
6.0,0.0,2.623
2.0,3.0,2.624
6.0,-9.0,2.625
19.0,-19.0,2.626
25.0,-15.0,2.627
16.0,-4.0,2.628
1.0,5.0,2.629
3.0,10.0,2.63
24.0,14.0,2.631
37.0,17.0,2.632
27.0,18.0,2.633
6.0,13.0,2.634
-2.0,8.0,2.635
-7.0,5.0,2.636
-31.0,9.0,2.637
-78.0,10.0,2.638
-103.0,4.0,2.639
-90.0,-7.0,2.64
-57.0,-20.0,2.641
-35.0,-20.0,2.642
-19.0,-13.0,2.643
0.0,-6.0,2.644
10.0,2.0,2.645
0.0,7.0,2.646
-7.0,5.0,2.647
6.0,-1.0,2.648
27.0,-3.0,2.649
29.0,0.0,2.65
18.0,-2.0,2.651
22.0,-10.0,2.652
49.0,-16.0,2.653
75.0,-8.0,2.654
77.0,2.0,2.655
58.0,7.0,2.656
34.0,9.0,2.657
15.0,10.0,2.658
5.0,11.0,2.659
-2.0,5.0,2.66
-10.0,-5.0,2.661
-12.0,-8.0,2.662
-1.0,-4.0,2.663
11.0,0.0,2.664
9.0,2.0,2.665
0.0,5.0,2.666
0.0,7.0,2.667
15.0,3.0,2.668
25.0,-3.0,2.669
23.0,-4.0,2.67
19.0,0.0,2.671
22.0,6.0,2.672
32.0,10.0,2.673
38.0,10.0,2.674
28.0,11.0,2.675
-6.0,10.0,2.676
-41.0,7.0,2.677
-61.0,-1.0,2.678
-58.0,-7.0,2.679
-54.0,-10.0,2.68
-58.0,-9.0,2.681
-59.0,-7.0,2.682
-47.0,-7.0,2.683
-33.0,-8.0,2.684
-25.0,-11.0,2.685
-12.0,-13.0,2.686
15.0,-15.0,2.687
44.0,-11.0,2.688
54.0,-5.0,2.689
43.0,3.0,2.69
32.0,7.0,2.691
32.0,7.0,2.692
35.0,1.0,2.693
32.0,-6.0,2.694
23.0,-12.0,2.695
13.0,-13.0,2.696
5.0,-8.0,2.697
-7.0,-2.0,2.698
-24.0,0.0,2.699
-39.0,-4.0,2.7
-40.0,-11.0,2.701
-22.0,-12.0,2.702
5.0,-5.0,2.703
29.0,6.0,2.704
40.0,12.0,2.705
49.0,12.0,2.706
57.0,7.0,2.707
56.0,7.0,2.708
35.0,12.0,2.709
1.0,12.0,2.71
-28.0,9.0,2.711
-40.0,6.0,2.712
-36.0,8.0,2.713
-32.0,7.0,2.714
-39.0,4.0,2.715
-52.0,3.0,2.716
-62.0,6.0,2.717
-61.0,5.0,2.718
-47.0,0.0,2.719
-29.0,-6.0,2.72
-14.0,-11.0,2.721
-3.0,-13.0,2.722
7.0,-18.0,2.723
15.0,-21.0,2.724
20.0,-15.0,2.725
30.0,-5.0,2.726
50.0,1.0,2.727
69.0,0.0,2.728
73.0,-2.0,2.729
57.0,0.0,2.73
35.0,2.0,2.731
20.0,1.0,2.732
13.0,-1.0,2.733
18.0,1.0,2.734
27.0,4.0,2.735
28.0,3.0,2.736
14.0,-1.0,2.737
-10.0,-4.0,2.738
-21.0,-3.0,2.739
-19.0,0.0,2.74
-16.0,1.0,2.741
-22.0,5.0,2.742
-21.0,9.0,2.743
-11.0,11.0,2.744
-5.0,9.0,2.745
-12.0,4.0,2.746
-13.0,2.0,2.747
5.0,6.0,2.748
26.0,8.0,2.749
37.0,7.0,2.75
43.0,3.0,2.751
51.0,0.0,2.752
54.0,-4.0,2.753
43.0,-9.0,2.754
27.0,-9.0,2.755
14.0,-4.0,2.756
2.0,3.0,2.757
-9.0,0.0,2.758
-9.0,-7.0,2.759
10.0,-10.0,2.76
34.0,-10.0,2.761
33.0,-4.0,2.762
-2.0,4.0,2.763
-47.0,10.0,2.764
-68.0,10.0,2.765
-64.0,5.0,2.766
-58.0,-1.0,2.767
-68.0,-6.0,2.768
-83.0,-13.0,2.769
-84.0,-24.0,2.77
-68.0,-28.0,2.771
-42.0,-16.0,2.772
-8.0,1.0,2.773
25.0,2.0,2.774
45.0,-17.0,2.775
47.0,-34.0,2.776
45.0,-30.0,2.777
38.0,-16.0,2.778
23.0,-6.0,2.779
-4.0,-7.0,2.78
-24.0,-11.0,2.781
-22.0,-9.0,2.782
-11.0,-3.0,2.783
-6.0,5.0,2.784
-6.0,18.0,2.785
1.0,23.0,2.786
11.0,14.0,2.787
14.0,0.0,2.788
18.0,-1.0,2.789
33.0,9.0,2.79
51.0,17.0,2.791
56.0,15.0,2.792
50.0,13.0,2.793
49.0,16.0,2.794
59.0,15.0,2.795
74.0,7.0,2.796
78.0,2.0,2.797
63.0,6.0,2.798
26.0,13.0,2.799
-18.0,15.0,2.8
-48.0,12.0,2.801
-58.0,12.0,2.802
-58.0,11.0,2.803
-57.0,5.0,2.804
-55.0,-3.0,2.805
-53.0,-10.0,2.806
-52.0,-20.0,2.807
-45.0,-33.0,2.808
-19.0,-34.0,2.809
15.0,-18.0,2.81
35.0,0.0,2.811
33.0,6.0,2.812
27.0,2.0,2.813
28.0,2.0,2.814
31.0,6.0,2.815
29.0,3.0,2.816
29.0,-3.0,2.817
31.0,-2.0,2.818
33.0,6.0,2.819
31.0,8.0,2.82
30.0,0.0,2.821
22.0,-3.0,2.822
4.0,1.0,2.823
-16.0,-1.0,2.824
-28.0,-7.0,2.825
-28.0,-8.0,2.826
-18.0,0.0,2.827
-2.0,4.0,2.828
12.0,1.0,2.829
14.0,-2.0,2.83
5.0,2.0,2.831
-2.0,4.0,2.832
0.0,0.0,2.833
6.0,-3.0,2.834
11.0,0.0,2.835
15.0,3.0,2.836
19.0,2.0,2.837
15.0,-2.0,2.838
2.0,-6.0,2.839
-5.0,-10.0,2.84
0.0,-19.0,2.841
8.0,-18.0,2.842
-1.0,-6.0,2.843
-27.0,1.0,2.844
-48.0,-3.0,2.845
-48.0,-9.0,2.846
-31.0,-6.0,2.847
-13.0,-1.0,2.848
-2.0,-4.0,2.849
0.0,-6.0,2.85
-9.0,-1.0,2.851
-21.0,4.0,2.852
-25.0,3.0,2.853
-9.0,1.0,2.854
25.0,7.0,2.855
56.0,9.0,2.856
69.0,2.0,2.857
57.0,-5.0,2.858
41.0,0.0,2.859
27.0,6.0,2.86
19.0,9.0,2.861
3.0,11.0,2.862
-34.0,9.0,2.863
-67.0,5.0,2.864
-85.0,-4.0,2.865
-99.0,-14.0,2.866
-93.0,-22.0,2.867
-81.0,-26.0,2.868
-48.0,-16.0,2.869
-17.0,-7.0,2.87
7.0,1.0,2.871
26.0,7.0,2.872
34.0,2.0,2.873
40.0,-1.0,2.874
40.0,0.0,2.875
40.0,1.0,2.876
35.0,-3.0,2.877
30.0,-5.0,2.878
37.0,-1.0,2.879
40.0,2.0,2.88
38.0,5.0,2.881
43.0,12.0,2.882
61.0,13.0,2.883
86.0,9.0,2.884
87.0,7.0,2.885
58.0,13.0,2.886
22.0,18.0,2.887
5.0,15.0,2.888
7.0,8.0,2.889
9.0,4.0,2.89
2.0,-4.0,2.891
-4.0,-16.0,2.892
-9.0,-24.0,2.893
-15.0,-17.0,2.894
-21.0,-3.0,2.895
-22.0,1.0,2.896
-16.0,-4.0,2.897
-2.0,-14.0,2.898
2.0,-16.0,2.899
-6.0,-11.0,2.9
-22.0,-9.0,2.901
-30.0,-7.0,2.902
-24.0,-7.0,2.903
-19.0,-7.0,2.904
-30.0,-5.0,2.905
-45.0,-5.0,2.906
-47.0,-3.0,2.907
-37.0,0.0,2.908
-31.0,3.0,2.909
-26.0,4.0,2.91
-10.0,2.0,2.911
13.0,0.0,2.912
26.0,4.0,2.913
29.0,3.0,2.914
33.0,1.0,2.915
43.0,1.0,2.916
50.0,7.0,2.917
44.0,10.0,2.918
32.0,8.0,2.919
21.0,1.0,2.92
12.0,-2.0,2.921
1.0,4.0,2.922
-2.0,12.0,2.923
2.0,8.0,2.924
3.0,-7.0,2.925
2.0,-21.0,2.926
8.0,-22.0,2.927
24.0,-9.0,2.928
31.0,5.0,2.929
17.0,9.0,2.93
-7.0,4.0,2.931
-20.0,0.0,2.932
-17.0,-2.0,2.933
-1.0,-3.0,2.934
22.0,-2.0,2.935
43.0,4.0,2.936
51.0,9.0,2.937
38.0,4.0,2.938
10.0,-4.0,2.939
-23.0,-4.0,2.94
-54.0,2.0,2.941
-74.0,3.0,2.942
-74.0,-6.0,2.943
-61.0,-13.0,2.944
-56.0,-15.0,2.945
-59.0,-13.0,2.946
-53.0,-11.0,2.947
-32.0,-8.0,2.948
-8.0,-4.0,2.949
5.0,-5.0,2.95
18.0,-7.0,2.951
34.0,-4.0,2.952
44.0,1.0,2.953
44.0,3.0,2.954
42.0,2.0,2.955
48.0,3.0,2.956
56.0,11.0,2.957
54.0,15.0,2.958
39.0,10.0,2.959
19.0,6.0,2.96
7.0,4.0,2.961
8.0,8.0,2.962
20.0,7.0,2.963
29.0,1.0,2.964
25.0,2.0,2.965
14.0,6.0,2.966
5.0,9.0,2.967
-2.0,3.0,2.968
-14.0,0.0,2.969
-21.0,3.0,2.97
-11.0,5.0,2.971
9.0,1.0,2.972
21.0,-7.0,2.973
16.0,-14.0,2.974
6.0,-19.0,2.975
7.0,-18.0,2.976
16.0,-11.0,2.977
12.0,-5.0,2.978
1.0,-2.0,2.979
-10.0,2.0,2.98
-23.0,2.0,2.981
-33.0,4.0,2.982
-35.0,3.0,2.983
-37.0,5.0,2.984
-32.0,10.0,2.985
-22.0,13.0,2.986
0.0,9.0,2.987
16.0,0.0,2.988
13.0,-6.0,2.989
9.0,-9.0,2.99
0.0,-10.0,2.991
-8.0,-10.0,2.992
-10.0,-9.0,2.993
-14.0,-11.0,2.994
-19.0,-16.0,2.995
-20.0,-16.0,2.996
-9.0,-8.0,2.997
0.0,0.0,2.998
-2.0,3.0,2.999
6.0,0.0,3.0
22.0,-3.0,3.001
39.0,-1.0,3.002
53.0,0.0,3.003
65.0,1.0,3.004
63.0,6.0,3.005
41.0,9.0,3.006
18.0,9.0,3.007
14.0,9.0,3.008
27.0,11.0,3.009
31.0,14.0,3.01
19.0,9.0,3.011
1.0,-1.0,3.012
-3.0,-7.0,3.013
12.0,-5.0,3.014
30.0,-1.0,3.015
25.0,5.0,3.016
-2.0,11.0,3.017
-43.0,10.0,3.018
-70.0,5.0,3.019
-83.0,2.0,3.02
-83.0,2.0,3.021
-72.0,3.0,3.022
-56.0,-6.0,3.023
-53.0,-20.0,3.024
-64.0,-30.0,3.025
-64.0,-29.0,3.026
-32.0,-23.0,3.027
6.0,-21.0,3.028
21.0,-20.0,3.029
17.0,-17.0,3.03
25.0,-10.0,3.031
45.0,-1.0,3.032
55.0,7.0,3.033
50.0,11.0,3.034
48.0,10.0,3.035
54.0,7.0,3.036
54.0,9.0,3.037
45.0,11.0,3.038
41.0,14.0,3.039
45.0,13.0,3.04
44.0,10.0,3.041
32.0,11.0,3.042
22.0,13.0,3.043
21.0,7.0,3.044
20.0,0.0,3.045
2.0,-3.0,3.046
-28.0,1.0,3.047
-52.0,1.0,3.048
-59.0,-6.0,3.049
-51.0,-13.0,3.05
-42.0,-21.0,3.051
-38.0,-29.0,3.052
-36.0,-33.0,3.053
-25.0,-32.0,3.054
-4.0,-22.0,3.055
14.0,-11.0,3.056
17.0,-4.0,3.057
7.0,-2.0,3.058
4.0,0.0,3.059
15.0,8.0,3.06
28.0,18.0,3.061
36.0,29.0,3.062
38.0,27.0,3.063
39.0,19.0,3.064
34.0,12.0,3.065
24.0,10.0,3.066
17.0,5.0,3.067
13.0,-3.0,3.068
8.0,-7.0,3.069
-2.0,-3.0,3.07
-4.0,3.0,3.071
2.0,4.0,3.072
8.0,3.0,3.073
3.0,1.0,3.074
-3.0,-3.0,3.075
-2.0,-5.0,3.076
3.0,-2.0,3.077
6.0,0.0,3.078
16.0,-1.0,3.079
42.0,-2.0,3.08
81.0,0.0,3.081
114.0,7.0,3.082
124.0,9.0,3.083
101.0,5.0,3.084
46.0,4.0,3.085
-21.0,11.0,3.086
-77.0,16.0,3.087
-112.0,10.0,3.088
-133.0,0.0,3.089
-143.0,-10.0,3.09
-137.0,-21.0,3.091
-108.0,-32.0,3.092
-70.0,-33.0,3.093
-45.0,-24.0,3.094
-41.0,-11.0,3.095
-48.0,-7.0,3.096
-46.0,-8.0,3.097
-29.0,-8.0,3.098
-7.0,-3.0,3.099
9.0,0.0,3.1
14.0,-2.0,3.101
14.0,-3.0,3.102
16.0,2.0,3.103
20.0,9.0,3.104
25.0,14.0,3.105
34.0,17.0,3.106
45.0,12.0,3.107
46.0,5.0,3.108
34.0,-8.0,3.109
22.0,-18.0,3.11
31.0,-18.0,3.111
55.0,-18.0,3.112
66.0,-14.0,3.113
56.0,-9.0,3.114
42.0,-6.0,3.115
36.0,-1.0,3.116
35.0,7.0,3.117
24.0,13.0,3.118
10.0,7.0,3.119
1.0,6.0,3.12
3.0,9.0,3.121
8.0,13.0,3.122
9.0,7.0,3.123
8.0,0.0,3.124
6.0,0.0,3.125
3.0,4.0,3.126
-1.0,4.0,3.127
0.0,0.0,3.128
7.0,1.0,3.129
16.0,8.0,3.13
13.0,12.0,3.131
-1.0,11.0,3.132
-18.0,5.0,3.133
-24.0,0.0,3.134
-23.0,-4.0,3.135
-20.0,-7.0,3.136
-21.0,-6.0,3.137
-22.0,-4.0,3.138
-18.0,-3.0,3.139
-13.0,-3.0,3.14
-8.0,-8.0,3.141
0.0,-10.0,3.142
11.0,-12.0,3.143
17.0,-10.0,3.144
10.0,-6.0,3.145
0.0,0.0,3.146
0.0,3.0,3.147
14.0,1.0,3.148
21.0,0.0,3.149
14.0,-1.0,3.15
0.0,-4.0,3.151
-6.0,-7.0,3.152
-3.0,-5.0,3.153
0.0,2.0,3.154
0.0,7.0,3.155
0.0,2.0,3.156
0.0,-1.0,3.157
-2.0,0.0,3.158
-3.0,4.0,3.159
-3.0,4.0,3.16
-4.0,-4.0,3.161
-2.0,-8.0,3.162
8.0,-7.0,3.163
27.0,-4.0,3.164
50.0,0.0,3.165
62.0,5.0,3.166
56.0,6.0,3.167
36.0,0.0,3.168
13.0,-3.0,3.169
-3.0,4.0,3.17
-14.0,14.0,3.171
-27.0,15.0,3.172
-46.0,6.0,3.173
-59.0,-2.0,3.174
-61.0,-8.0,3.175
-55.0,-13.0,3.176
-47.0,-22.0,3.177
62.0,-30.0,3.178
22.0,-27.0,3.179
-12.0,-14.0,3.18
-30.0,-5.0,3.181
-43.0,-2.0,3.182
-32.0,3.0,3.183
-25.0,12.0,3.184
-31.0,18.0,3.185
-37.0,14.0,3.186
-39.0,4.0,3.187
-38.0,0.0,3.188
-22.0,2.0,3.189
-7.0,0.0,3.19
1.0,-2.0,3.191
9.0,-1.0,3.192
14.0,6.0,3.193
23.0,11.0,3.194
43.0,9.0,3.195
55.0,8.0,3.196
45.0,9.0,3.197
61.0,4.0,3.198
22.0,-6.0,3.199
-12.0,-15.0,3.2
-30.0,-20.0,3.201
-42.0,-13.0,3.202
-32.0,-4.0,3.203
-25.0,1.0,3.204
-31.0,-1.0,3.205
-37.0,-11.0,3.206
-39.0,-23.0,3.207
-38.0,-22.0,3.208
-22.0,-11.0,3.209
-7.0,0.0,3.21
1.0,2.0,3.211
9.0,-3.0,3.212
14.0,-3.0,3.213
23.0,6.0,3.214
42.0,12.0,3.215
54.0,6.0,3.216
44.0,1.0,3.217
34.0,5.0,3.218
25.0,18.0,3.219
15.0,21.0,3.22
-4.0,9.0,3.221
-19.0,0.0,3.222
-15.0,5.0,3.223
-2.0,14.0,3.224
-1.0,14.0,3.225
-11.0,2.0,3.226
-11.0,-9.0,3.227
-1.0,-13.0,3.228
4.0,-11.0,3.229
-3.0,-7.0,3.23
-11.0,-6.0,3.231
-11.0,-13.0,3.232
-11.0,-26.0,3.233
-11.0,-27.0,3.234
-4.0,-15.0,3.235
6.0,-2.0,3.236
8.0,4.0,3.237
4.0,4.0,3.238
16.0,6.0,3.239
40.0,9.0,3.24
53.0,4.0,3.241
40.0,0.0,3.242
20.0,3.0,3.243
16.0,13.0,3.244
25.0,22.0,3.245
26.0,25.0,3.246
9.0,23.0,3.247
-20.0,14.0,3.248
-51.0,1.0,3.249
-71.0,-11.0,3.25
-71.0,-18.0,3.251
-53.0,-19.0,3.252
-35.0,-19.0,3.253
-27.0,-14.0,3.254
-20.0,-5.0,3.255
-9.0,-4.0,3.256
3.0,-14.0,3.257
9.0,-20.0,3.258
1.0,-2.0,3.259
-2.0,10.0,3.26
8.0,8.0,3.261
16.0,5.0,3.262
23.0,-3.0,3.263
29.0,-6.0,3.264
35.0,6.0,3.265
36.0,14.0,3.266
26.0,9.0,3.267
15.0,4.0,3.268
2.0,0.0,3.269
-5.0,-4.0,3.27
5.0,-7.0,3.271
12.0,-11.0,3.272
15.0,-15.0,3.273
16.0,-16.0,3.274
12.0,-10.0,3.275
4.0,-5.0,3.276
-6.0,-1.0,3.277
8.0,1.0,3.278
0.0,-4.0,3.279
-4.0,1.0,3.28
7.0,10.0,3.281
17.0,15.0,3.282
24.0,8.0,3.283
31.0,-3.0,3.284
37.0,-2.0,3.285
39.0,9.0,3.286
28.0,19.0,3.287
16.0,14.0,3.288
1.0,2.0,3.289
-7.0,-2.0,3.29
4.0,4.0,3.291
13.0,13.0,3.292
16.0,14.0,3.293
17.0,13.0,3.294
11.0,9.0,3.295
3.0,0.0,3.296
-8.0,-9.0,3.297
-20.0,-12.0,3.298
-34.0,-9.0,3.299
-47.0,-8.0,3.3
-51.0,-12.0,3.301
-48.0,-12.0,3.302
-43.0,-12.0,3.303
-42.0,-13.0,3.304
-36.0,-9.0,3.305
-17.0,0.0,3.306
11.0,10.0,3.307
33.0,9.0,3.308
39.0,1.0,3.309
41.0,1.0,3.31
47.0,3.0,3.311
51.0,0.0,3.312
35.0,-2.0,3.313
-7.0,0.0,3.314
-51.0,5.0,3.315
-65.0,-1.0,3.316
-46.0,-8.0,3.317
-30.0,-12.0,3.318
-41.0,-12.0,3.319
-61.0,-20.0,3.32
-54.0,-29.0,3.321
-24.0,-22.0,3.322
-1.0,-7.0,3.323
11.0,-3.0,3.324
25.0,-11.0,3.325
47.0,-13.0,3.326
60.0,-8.0,3.327
57.0,-1.0,3.328
57.0,1.0,3.329
61.0,4.0,3.33
55.0,6.0,3.331
33.0,6.0,3.332
9.0,7.0,3.333
-4.0,8.0,3.334
-14.0,7.0,3.335
-32.0,-6.0,3.336
-52.0,-21.0,3.337
-60.0,-33.0,3.338
-50.0,-32.0,3.339
-27.0,-19.0,3.34
0.0,-4.0,3.341
18.0,9.0,3.342
24.0,14.0,3.343
28.0,13.0,3.344
35.0,15.0,3.345
41.0,20.0,3.346
39.0,23.0,3.347
30.0,24.0,3.348
22.0,28.0,3.349
16.0,33.0,3.35
8.0,29.0,3.351
1.0,16.0,3.352
-2.0,3.0,3.353
0.0,-4.0,3.354
0.0,-7.0,3.355
0.0,-5.0,3.356
6.0,5.0,3.357
5.0,10.0,3.358
-6.0,2.0,3.359
-17.0,-7.0,3.36
-26.0,-20.0,3.361
-31.0,-30.0,3.362
-20.0,-27.0,3.363
-7.0,-21.0,3.364
13.0,-7.0,3.365
39.0,5.0,3.366
80.0,13.0,3.367
113.0,22.0,3.368
118.0,30.0,3.369
108.0,36.0,3.37
51.0,36.0,3.371
-2.0,33.0,3.372
-42.0,19.0,3.373
-72.0,9.0,3.374
-73.0,9.0,3.375
-68.0,7.0,3.376
-38.0,1.0,3.377
-12.0,-8.0,3.378
-13.0,-27.0,3.379
-27.0,-44.0,3.38
-29.0,-47.0,3.381
-17.0,-30.0,3.382
-2.0,-13.0,3.383
4.0,-13.0,3.384
-2.0,-24.0,3.385
-28.0,-29.0,3.386
-66.0,-23.0,3.387
-97.0,-18.0,3.388
-115.0,-29.0,3.389
-132.0,-58.0,3.39
-142.0,-83.0,3.391
-112.0,-78.0,3.392
-32.0,-39.0,3.393
55.0,7.0,3.394
104.0,33.0,3.395
112.0,39.0,3.396
108.0,51.0,3.397
102.0,66.0,3.398
86.0,66.0,3.399
58.0,40.0,3.4
33.0,7.0,3.401
22.0,-6.0,3.402
26.0,-11.0,3.403
39.0,-20.0,3.404
51.0,-25.0,3.405
54.0,-11.0,3.406
46.0,5.0,3.407
31.0,6.0,3.408
11.0,-9.0,3.409
-17.0,-20.0,3.41
-49.0,-22.0,3.411
-72.0,-24.0,3.412
-79.0,-28.0,3.413
-72.0,-34.0,3.414
-54.0,-39.0,3.415
-25.0,-35.0,3.416
8.0,-13.0,3.417
38.0,14.0,3.418
63.0,36.0,3.419
87.0,50.0,3.42
108.0,69.0,3.421
118.0,89.0,3.422
115.0,83.0,3.423
107.0,49.0,3.424
76.0,18.0,3.425
16.0,10.0,3.426
-44.0,8.0,3.427
-71.0,4.0,3.428
-74.0,4.0,3.429
-90.0,13.0,3.43
-127.0,18.0,3.431
-150.0,20.0,3.432
-137.0,23.0,3.433
-97.0,24.0,3.434
-44.0,17.0,3.435
26.0,21.0,3.436
102.0,46.0,3.437
161.0,68.0,3.438
207.0,57.0,3.439
212.0,1.0,3.44
169.0,-49.0,3.441
86.0,-48.0,3.442
0.0,-20.0,3.443
-44.0,-3.0,3.444
-51.0,1.0,3.445
-62.0,3.0,3.446
-84.0,-9.0,3.447
-83.0,-46.0,3.448
-42.0,-86.0,3.449
0.0,-99.0,3.45
-2.0,-85.0,3.451
-40.0,-58.0,3.452
-70.0,-34.0,3.453
-65.0,-20.0,3.454
-41.0,-24.0,3.455
-24.0,-37.0,3.456
-11.0,-40.0,3.457
28.0,-22.0,3.458
77.0,-2.0,3.459
97.0,12.0,3.46
71.0,21.0,3.461
19.0,33.0,3.462
-26.0,33.0,3.463
-54.0,16.0,3.464
-63.0,-7.0,3.465
-35.0,-21.0,3.466
27.0,-23.0,3.467
88.0,-18.0,3.468
110.0,-11.0,3.469
91.0,-7.0,3.47
65.0,-6.0,3.471
50.0,-15.0,3.472
23.0,-30.0,3.473
-28.0,-36.0,3.474
-78.0,-22.0,3.475
-88.0,7.0,3.476
-56.0,36.0,3.477
-17.0,44.0,3.478
-9.0,24.0,3.479
-37.0,-16.0,3.48
-73.0,-36.0,3.481
-82.0,0.0,3.482
-59.0,70.0,3.483
-19.0,120.0,3.484
21.0,126.0,3.485
51.0,119.0,3.486
67.0,113.0,3.487
64.0,85.0,3.488
47.0,35.0,3.489
19.0,0.0,3.49
-12.0,-8.0,3.491
-34.0,-16.0,3.492
-40.0,-30.0,3.493
-32.0,-28.0,3.494
-12.0,-10.0,3.495
49.0,-14.0,3.496
137.0,-29.0,3.497
185.0,-28.0,3.498
112.0,-5.0,3.499
-44.0,0.0,3.5
-152.0,-33.0,3.501
-163.0,-72.0,3.502
-156.0,-101.0,3.503
-187.0,-118.0,3.504
-200.0,-114.0,3.505
-150.0,-88.0,3.506
-95.0,-70.0,3.507
-85.0,-80.0,3.508
-66.0,-73.0,3.509
32.0,-4.0,3.51
172.0,85.0,3.511
257.0,110.0,3.512
255.0,59.0,3.513
212.0,9.0,3.514
181.0,5.0,3.515
174.0,21.0,3.516
177.0,18.0,3.517
159.0,-10.0,3.518
114.0,-32.0,3.519
65.0,-29.0,3.52
36.0,-10.0,3.521
-1.0,3.0,3.522
-99.0,-6.0,3.523
-238.0,-33.0,3.524
-331.0,-50.0,3.525
-319.0,-37.0,3.526
-242.0,-11.0,3.527
-177.0,-7.0,3.528
-143.0,-23.0,3.529
-93.0,-19.0,3.53
3.0,47.0,3.531
105.0,151.0,3.532
147.0,212.0,3.533
125.0,185.0,3.534
101.0,117.0,3.535
128.0,74.0,3.536
191.0,71.0,3.537
234.0,65.0,3.538
230.0,45.0,3.539
195.0,24.0,3.54
162.0,6.0,3.541
132.0,-14.0,3.542
70.0,-40.0,3.543
-54.0,-57.0,3.544
-212.0,-68.0,3.545
-314.0,-70.0,3.546
-308.0,-52.0,3.547
-237.0,-24.0,3.548
-179.0,-25.0,3.549
-128.0,-72.0,3.55
-32.0,-116.0,3.551
84.0,-115.0,3.552
119.0,-92.0,3.553
56.0,-75.0,3.554
3.0,-54.0,3.555
30.0,-9.0,3.556
76.0,30.0,3.557
60.0,29.0,3.558
2.0,-7.0,3.559
-21.0,-46.0,3.56
2.0,-66.0,3.561
41.0,-55.0,3.562
77.0,-22.0,3.563
90.0,6.0,3.564
50.0,11.0,3.565
-21.0,1.0,3.566
-47.0,8.0,3.567
8.0,30.0,3.568
93.0,40.0,3.569
140.0,29.0,3.57
128.0,12.0,3.571
55.0,2.0,3.572
-67.0,5.0,3.573
-174.0,24.0,3.574
-196.0,40.0,3.575
-155.0,25.0,3.576
-136.0,-9.0,3.577
-158.0,-23.0,3.578
-149.0,3.0,3.579
-85.0,36.0,3.58
-20.0,35.0,3.581
15.0,26.0,3.582
80.0,45.0,3.583
188.0,76.0,3.584
272.0,78.0,3.585
280.0,49.0,3.586
248.0,20.0,3.587
210.0,4.0,3.588
132.0,-11.0,3.589
-1.0,-33.0,3.59
-121.0,-54.0,3.591
-152.0,-57.0,3.592
-103.0,-37.0,3.593
-38.0,-10.0,3.594
23.0,3.0,3.595
82.0,2.0,3.596
120.0,11.0,3.597
113.0,49.0,3.598
65.0,90.0,3.599
5.0,93.0,3.6
-56.0,47.0,3.601
-125.0,-5.0,3.602
-174.0,-20.0,3.603
-154.0,4.0,3.604
-69.0,27.0,3.605
1.0,6.0,3.606
0.0,-41.0,3.607
-49.0,-67.0,3.608
-76.0,-43.0,3.609
-53.0,-1.0,3.61
-19.0,18.0,3.611
-7.0,11.0,3.612
-9.0,-3.0,3.613
-6.0,-19.0,3.614
-5.0,-36.0,3.615
-17.0,-46.0,3.616
-30.0,-45.0,3.617
-40.0,-44.0,3.618
-51.0,-52.0,3.619
-77.0,-69.0,3.62
-96.0,-85.0,3.621
-73.0,-85.0,3.622
-21.0,-63.0,3.623
22.0,-20.0,3.624
44.0,12.0,3.625
64.0,6.0,3.626
94.0,-19.0,3.627
111.0,-14.0,3.628
100.0,36.0,3.629
68.0,76.0,3.63
32.0,57.0,3.631
15.0,13.0,3.632
32.0,12.0,3.633
76.0,55.0,3.634
109.0,77.0,3.635
104.0,50.0,3.636
80.0,21.0,3.637
62.0,29.0,3.638
57.0,54.0,3.639
38.0,44.0,3.64
-13.0,-10.0,3.641
-71.0,-59.0,3.642
-97.0,-70.0,3.643
-82.0,-50.0,3.644
-50.0,-22.0,3.645
-38.0,0.0,3.646
-48.0,11.0,3.647
-57.0,10.0,3.648
-32.0,6.0,3.649
25.0,12.0,3.65
78.0,28.0,3.651
82.0,34.0,3.652
45.0,16.0,3.653
13.0,-18.0,3.654
5.0,-44.0,3.655
0.0,-55.0,3.656
-18.0,-56.0,3.657
-31.0,-55.0,3.658
-19.0,-46.0,3.659
-12.0,-27.0,3.66
-33.0,-6.0,3.661
-41.0,38.0,3.662
18.0,107.0,3.663
109.0,159.0,3.664
140.0,133.0,3.665
88.0,47.0,3.666
27.0,-13.0,3.667
-2.0,-22.0,3.668
-45.0,-33.0,3.669
-115.0,-71.0,3.67
-147.0,-84.0,3.671
-100.0,-45.0,3.672
-34.0,-11.0,3.673
-3.0,-24.0,3.674
32.0,-46.0,3.675
101.0,-42.0,3.676
141.0,-35.0,3.677
79.0,-47.0,3.678
-35.0,-40.0,3.679
-107.0,0.0,3.68
-120.0,32.0,3.681
-132.0,22.0,3.682
-143.0,8.0,3.683
-85.0,31.0,3.684
30.0,65.0,3.685
106.0,59.0,3.686
85.0,13.0,3.687
25.0,-37.0,3.688
8.0,-59.0,3.689
40.0,-39.0,3.69
63.0,6.0,3.691
39.0,33.0,3.692
-3.0,23.0,3.693
0.0,9.0,3.694
78.0,22.0,3.695
196.0,32.0,3.696
275.0,8.0,3.697
264.0,-24.0,3.698
157.0,-14.0,3.699
-17.0,20.0,3.7
-215.0,19.0,3.701
-374.0,-7.0,3.702
-429.0,-8.0,3.703
-372.0,7.0,3.704
-265.0,-22.0,3.705
-179.0,-87.0,3.706
-116.0,-113.0,3.707
-42.0,-68.0,3.708
43.0,-11.0,3.709
113.0,17.0,3.71
150.0,30.0,3.711
162.0,37.0,3.712
148.0,19.0,3.713
112.0,-17.0,3.714
82.0,-23.0,3.715
67.0,6.0,3.716
50.0,22.0,3.717
23.0,-4.0,3.718
20.0,-18.0,3.719
57.0,20.0,3.72
98.0,73.0,3.721
101.0,87.0,3.722
89.0,61.0,3.723
98.0,48.0,3.724
119.0,61.0,3.725
119.0,73.0,3.726
108.0,59.0,3.727
105.0,36.0,3.728
94.0,25.0,3.729
47.0,25.0,3.73
-11.0,18.0,3.731
-29.0,0.0,3.732
-16.0,-19.0,3.733
-25.0,-40.0,3.734
-85.0,-73.0,3.735
-154.0,-114.0,3.736
-184.0,-133.0,3.737
-179.0,-112.0,3.738
-164.0,-68.0,3.739
-136.0,-33.0,3.74
-62.0,-12.0,3.741
38.0,28.0,3.742
108.0,72.0,3.743
127.0,75.0,3.744
142.0,38.0,3.745
189.0,24.0,3.746
221.0,57.0,3.747
162.0,84.0,3.748
16.0,57.0,3.749
-135.0,4.0,3.75
-219.0,-32.0,3.751
-222.0,-53.0,3.752
-178.0,-78.0,3.753
-137.0,-96.0,3.754
-126.0,-92.0,3.755
-128.0,-75.0,3.756
-104.0,-56.0,3.757
-44.0,-29.0,3.758
8.0,6.0,3.759
15.0,25.0,3.76
-6.0,18.0,3.761
-18.0,9.0,3.762
-11.0,10.0,3.763
3.0,13.0,3.764
25.0,12.0,3.765
52.0,17.0,3.766
69.0,19.0,3.767
62.0,9.0,3.768
51.0,-5.0,3.769
49.0,-4.0,3.77
50.0,11.0,3.771
47.0,22.0,3.772
52.0,25.0,3.773
73.0,19.0,3.774
86.0,2.0,3.775
65.0,-17.0,3.776
34.0,-20.0,3.777
32.0,-2.0,3.778
67.0,11.0,3.779
98.0,19.0,3.78
95.0,4.0,3.781
77.0,-7.0,3.782
66.0,-7.0,3.783
40.0,-6.0,3.784
-27.0,-9.0,3.785
-114.0,-12.0,3.786
-165.0,-14.0,3.787
-150.0,-23.0,3.788
-102.0,-48.0,3.789
-75.0,-67.0,3.79
-74.0,-69.0,3.791
-68.0,-60.0,3.792
-31.0,-14.0,3.793
17.0,28.0,3.794
42.0,60.0,3.795
36.0,84.0,3.796
32.0,81.0,3.797
52.0,84.0,3.798
71.0,91.0,3.799
46.0,55.0,3.8
-9.0,-1.0,3.801
-42.0,-14.0,3.802
-31.0,7.0,3.803
-8.0,4.0,3.804
9.0,-25.0,3.805
55.0,-28.0,3.806
146.0,18.0,3.807
223.0,63.0,3.808
233.0,59.0,3.809
180.0,28.0,3.81
107.0,6.0,3.811
31.0,1.0,3.812
-29.0,-6.0,3.813
-58.0,-25.0,3.814
-64.0,-51.0,3.815
-92.0,-69.0,3.816
-135.0,-73.0,3.817
-150.0,-57.0,3.818
-130.0,-34.0,3.819
-119.0,-24.0,3.82
-136.0,-53.0,3.821
-136.0,-71.0,3.822
-78.0,-54.0,3.823
-41.0,-41.0,3.824
-65.0,-39.0,3.825
-76.0,-36.0,3.826
-50.0,-28.0,3.827
-12.0,-4.0,3.828
58.0,63.0,3.829
110.0,106.0,3.83
102.0,74.0,3.831
96.0,50.0,3.832
97.0,54.0,3.833
94.0,53.0,3.834
78.0,34.0,3.835
58.0,17.0,3.836
32.0,11.0,3.837
9.0,8.0,3.838
2.0,5.0,3.839
-2.0,-10.0,3.84
-1.0,-21.0,3.841
6.0,-18.0,3.842
2.0,-21.0,3.843
-29.0,-32.0,3.844
-70.0,-36.0,3.845
-89.0,-30.0,3.846
-82.0,-27.0,3.847
-70.0,-24.0,3.848
-64.0,-5.0,3.849
-56.0,15.0,3.85
-47.0,6.0,3.851
-37.0,-27.0,3.852
5.0,-29.0,3.853
91.0,12.0,3.854
175.0,42.0,3.855
177.0,17.0,3.856
99.0,-25.0,3.857
1.0,-31.0,3.858
-37.0,10.0,3.859
-13.0,58.0,3.86
34.0,76.0,3.861
67.0,64.0,3.862
62.0,26.0,3.863
8.0,-29.0,3.864
-69.0,-68.0,3.865
-112.0,-64.0,3.866
-88.0,-36.0,3.867
-33.0,-26.0,3.868
-9.0,-41.0,3.869
-19.0,-43.0,3.87
-12.0,-8.0,3.871
32.0,42.0,3.872
73.0,68.0,3.873
67.0,53.0,3.874
35.0,16.0,3.875
24.0,-13.0,3.876
39.0,-15.0,3.877
33.0,-3.0,3.878
-6.0,3.0,3.879
-46.0,-3.0,3.88
-46.0,-5.0,3.881
-15.0,17.0,3.882
10.0,45.0,3.883
14.0,49.0,3.884
3.0,28.0,3.885
-6.0,19.0,3.886
-14.0,33.0,3.887
-14.0,37.0,3.888
-9.0,6.0,3.889
-2.0,-34.0,3.89
-1.0,-44.0,3.891
-7.0,-34.0,3.892
-9.0,-34.0,3.893
15.0,-33.0,3.894
62.0,-5.0,3.895
86.0,29.0,3.896
49.0,18.0,3.897
-32.0,-29.0,3.898
-78.0,-38.0,3.899
-49.0,21.0,3.9
3.0,76.0,3.901
19.0,51.0,3.902
21.0,-33.0,3.903
85.0,-84.0,3.904
206.0,-55.0,3.905
272.0,11.0,3.906
193.0,43.0,3.907
6.0,24.0,3.908
-180.0,-12.0,3.909
-289.0,-27.0,3.91
-324.0,-35.0,3.911
-308.0,-61.0,3.912
-256.0,-92.0,3.913
-176.0,-94.0,3.914
-77.0,-51.0,3.915
31.0,8.0,3.916
127.0,47.0,3.917
197.0,52.0,3.918
229.0,46.0,3.919
242.0,50.0,3.92
254.0,64.0,3.921
228.0,71.0,3.922
138.0,56.0,3.923
19.0,37.0,3.924
-57.0,34.0,3.925
-68.0,37.0,3.926
-61.0,21.0,3.927
-64.0,-5.0,3.928
-54.0,-18.0,3.929
-24.0,-18.0,3.93
-18.0,-30.0,3.931
-63.0,-59.0,3.932
-111.0,-84.0,3.933
-112.0,-85.0,3.934
-84.0,-69.0,3.935
-79.0,-64.0,3.936
-89.0,-69.0,3.937
-73.0,-62.0,3.938
-26.0,-28.0,3.939
0.0,11.0,3.94
-9.0,22.0,3.941
-3.0,13.0,3.942
63.0,19.0,3.943
161.0,52.0,3.944
221.0,87.0,3.945
208.0,91.0,3.946
135.0,63.0,3.947
28.0,30.0,3.948
-78.0,14.0,3.949
-141.0,18.0,3.95
-133.0,27.0,3.951
-86.0,24.0,3.952
-51.0,4.0,3.953
-46.0,-27.0,3.954
-54.0,-56.0,3.955
-50.0,-66.0,3.956
-21.0,-48.0,3.957
50.0,-9.0,3.958
137.0,31.0,3.959
160.0,40.0,3.96
81.0,7.0,3.961
-33.0,-31.0,3.962
-78.0,-45.0,3.963
-46.0,-35.0,3.964
-13.0,-21.0,3.965
-9.0,-7.0,3.966
2.0,12.0,3.967
27.0,19.0,3.968
32.0,3.0,3.969
13.0,-17.0,3.97
10.0,-28.0,3.971
40.0,-28.0,3.972
79.0,-17.0,3.973
115.0,15.0,3.974
147.0,59.0,3.975
150.0,80.0,3.976
97.0,73.0,3.977
10.0,59.0,3.978
-39.0,55.0,3.979
-16.0,46.0,3.98
45.0,30.0,3.981
95.0,30.0,3.982
87.0,40.0,3.983
16.0,33.0,3.984
-74.0,5.0,3.985
-112.0,-13.0,3.986
-94.0,-27.0,3.987
-81.0,-68.0,3.988
-99.0,-132.0,3.989
-100.0,-166.0,3.99
-49.0,-139.0,3.991
9.0,-82.0,3.992
18.0,-38.0,3.993
-21.0,-19.0,3.994
-61.0,-8.0,3.995
-67.0,7.0,3.996
-46.0,23.0,3.997
-39.0,19.0,3.998
-87.0,-5.0,3.999
-170.0,-24.0,4.0
-204.0,-9.0,4.001
-155.0,30.0,4.002
-92.0,46.0,4.003
-70.0,30.0,4.004
-48.0,20.0,4.005
25.0,31.0,4.006
112.0,29.0,4.007
132.0,-1.0,4.008
91.0,-24.0,4.009
62.0,-13.0,4.01
72.0,15.0,4.011
82.0,30.0,4.012
66.0,24.0,4.013
44.0,3.0,4.014
37.0,-28.0,4.015
48.0,-48.0,4.016
64.0,-28.0,4.017
72.0,17.0,4.018
78.0,34.0,4.019
94.0,39.0,4.02
150.0,5.0,4.021
244.0,-13.0,4.022
297.0,17.0,4.023
222.0,40.0,4.024
47.0,34.0,4.025
-111.0,33.0,4.026
-183.0,47.0,4.027
-212.0,47.0,4.028
-243.0,4.0,4.029
-240.0,-26.0,4.03
-167.0,-17.0,4.031
-79.0,-9.0,4.032
-54.0,-5.0,4.033
-87.0,-2.0,4.034
-100.0,-3.0,4.035
-47.0,5.0,4.036
47.0,42.0,4.037
125.0,59.0,4.038
122.0,-5.0,4.039
23.0,-59.0,4.04
-106.0,-62.0,4.041
-166.0,-40.0,4.042
-115.0,-29.0,4.043
5.0,-19.0,4.044
130.0,2.0,4.045
219.0,12.0,4.046
252.0,0.0,4.047
230.0,-12.0,4.048
187.0,-5.0,4.049
179.0,1.0,4.05
205.0,-10.0,4.051
214.0,-21.0,4.052
161.0,-1.0,4.053
60.0,37.0,4.054
-60.0,64.0,4.055
-174.0,65.0,4.056
-265.0,41.0,4.057
-319.0,-11.0,4.058
-321.0,-67.0,4.059
-280.0,-96.0,4.06
-224.0,-99.0,4.061
-174.0,-99.0,4.062
-121.0,-99.0,4.063
-48.0,-71.0,4.064
46.0,-17.0,4.065
142.0,14.0,4.066
238.0,3.0,4.067
346.0,2.0,4.068
429.0,54.0,4.069
394.0,120.0,4.07
209.0,139.0,4.071
-19.0,109.0,4.072
-150.0,81.0,4.073
-174.0,68.0,4.074
-187.0,35.0,4.075
-235.0,-36.0,4.076
-267.0,-106.0,4.077
-243.0,-140.0,4.078
-189.0,-120.0,4.079
-169.0,-88.0,4.08
-177.0,-95.0,4.081
-158.0,-129.0,4.082
-92.0,-126.0,4.083
-27.0,-59.0,4.084
-16.0,19.0,4.085
-34.0,49.0,4.086
-8.0,50.0,4.087
92.0,87.0,4.088
209.0,153.0,4.089
272.0,173.0,4.09
269.0,129.0,4.091
236.0,90.0,4.092
208.0,108.0,4.093
184.0,126.0,4.094
158.0,74.0,4.095
136.0,-12.0,4.096
129.0,-35.0,4.097
108.0,6.0,4.098
43.0,31.0,4.099
-59.0,-11.0,4.1
-116.0,-63.0,4.101
-80.0,-58.0,4.102
-2.0,-20.0,4.103
31.0,-2.0,4.104
16.0,-6.0,4.105
10.0,-19.0,4.106
21.0,-50.0,4.107
2.0,-86.0,4.108
-50.0,-84.0,4.109
-83.0,-42.0,4.11
-69.0,-20.0,4.111
-45.0,-39.0,4.112
-37.0,-44.0,4.113
-35.0,-5.0,4.114
-28.0,29.0,4.115
-30.0,21.0,4.116
-41.0,6.0,4.117
-47.0,13.0,4.118
-39.0,18.0,4.119
-36.0,-8.0,4.12
-52.0,-38.0,4.121
-64.0,-29.0,4.122
-35.0,2.0,4.123
22.0,15.0,4.124
56.0,13.0,4.125
44.0,16.0,4.126
17.0,14.0,4.127
-4.0,-9.0,4.128
-31.0,-49.0,4.129
-57.0,-74.0,4.13
-32.0,-64.0,4.131
48.0,-25.0,4.132
104.0,7.0,4.133
62.0,2.0,4.134
-40.0,-12.0,4.135
-100.0,30.0,4.136
-88.0,124.0,4.137
-76.0,168.0,4.138
-119.0,79.0,4.139
-179.0,-63.0,4.14
-159.0,-109.0,4.141
-43.0,-45.0,4.142
76.0,3.0,4.143
121.0,-13.0,4.144
111.0,-20.0,4.145
93.0,21.0,4.146
74.0,47.0,4.147
41.0,17.0,4.148
7.0,-20.0,4.149
2.0,-25.0,4.15
19.0,-26.0,4.151
49.0,-34.0,4.152
102.0,-9.0,4.153
161.0,49.0,4.154
172.0,72.0,4.155
109.0,32.0,4.156
31.0,-5.0,4.157
-12.0,6.0,4.158
-26.0,36.0,4.159
-60.0,19.0,4.16
-113.0,-33.0,4.161
-145.0,-67.0,4.162
-124.0,-73.0,4.163
-66.0,-73.0,4.164
-1.0,-62.0,4.165
59.0,-25.0,4.166
106.0,30.0,4.167
118.0,69.0,4.168
81.0,73.0,4.169
2.0,50.0,4.17
-81.0,17.0,4.171
-123.0,-5.0,4.172
-105.0,0.0,4.173
-51.0,15.0,4.174
-4.0,-9.0,4.175
15.0,-82.0,4.176
25.0,-136.0,4.177
52.0,-120.0,4.178
95.0,-53.0,4.179
99.0,-18.0,4.18
34.0,-34.0,4.181
-46.0,-21.0,4.182
-51.0,69.0,4.183
8.0,164.0,4.184
26.0,165.0,4.185
-25.0,79.0,4.186
-44.0,7.0,4.187
7.0,4.0,4.188
25.0,28.0,4.189
-57.0,29.0,4.19
-139.0,19.0,4.191
-110.0,24.0,4.192
-25.0,36.0,4.193
15.0,43.0,4.194
25.0,44.0,4.195
76.0,38.0,4.196
136.0,32.0,4.197
131.0,25.0,4.198
65.0,8.0,4.199
-4.0,-45.0,4.2
-56.0,-128.0,4.201
-112.0,-174.0,4.202
-155.0,-155.0,4.203
-153.0,-109.0,4.204
-116.0,-78.0,4.205
-81.0,-64.0,4.206
-51.0,-55.0,4.207
4.0,-36.0,4.208
120.0,30.0,4.209
276.0,149.0,4.21
391.0,227.0,4.211
387.0,172.0,4.212
288.0,50.0,4.213
194.0,-6.0,4.214
150.0,11.0,4.215
88.0,-6.0,4.216
-35.0,-69.0,4.217
-186.0,-89.0,4.218
-268.0,-33.0,4.219
-260.0,-1.0,4.22
-186.0,-44.0,4.221
-48.0,-79.0,4.222
119.0,-55.0,4.223
192.0,-40.0,4.224
101.0,-70.0,4.225
-33.0,-51.0,4.226
-59.0,65.0,4.227
-22.0,166.0,4.228
-88.0,125.0,4.229
-244.0,4.0,4.23
-306.0,-56.0,4.231
-227.0,-39.0,4.232
-158.0,-30.0,4.233
-149.0,-46.0,4.234
-61.0,-28.0,4.235
135.0,32.0,4.236
240.0,61.0,4.237
127.0,28.0,4.238
-42.0,-4.0,4.239
-60.0,10.0,4.24
28.0,30.0,4.241
53.0,6.0,4.242
27.0,-39.0,4.243
76.0,-52.0,4.244
197.0,-20.0,4.245
266.0,20.0,4.246
230.0,35.0,4.247
128.0,22.0,4.248
-13.0,-14.0,4.249
-171.0,-64.0,4.25
-267.0,-103.0,4.251
-252.0,-100.0,4.252
-184.0,-43.0,4.253
-154.0,43.0,4.254
-165.0,112.0,4.255
-138.0,135.0,4.256
-40.0,128.0,4.257
95.0,113.0,4.258
177.0,93.0,4.259
154.0,55.0,4.26
67.0,3.0,4.261
15.0,-21.0,4.262
45.0,0.0,4.263
123.0,36.0,4.264
175.0,26.0,4.265
181.0,-37.0,4.266
154.0,-94.0,4.267
104.0,-102.0,4.268
43.0,-77.0,4.269
-8.0,-64.0,4.27
-43.0,-74.0,4.271
-73.0,-77.0,4.272
-97.0,-62.0,4.273
-99.0,-43.0,4.274
-86.0,-42.0,4.275
-86.0,-54.0,4.276
-102.0,-56.0,4.277
-109.0,-30.0,4.278
-75.0,21.0,4.279
-10.0,68.0,4.28
55.0,88.0,4.281
93.0,84.0,4.282
106.0,64.0,4.283
119.0,42.0,4.284
147.0,43.0,4.285
166.0,73.0,4.286
151.0,88.0,4.287
121.0,62.0,4.288
94.0,8.0,4.289
48.0,-40.0,4.29
-44.0,-78.0,4.291
-136.0,-98.0,4.292
-154.0,-77.0,4.293
-111.0,-26.0,4.294
-84.0,6.0,4.295
-90.0,-1.0,4.296
-81.0,-11.0,4.297
-38.0,-4.0,4.298
7.0,-3.0,4.299
33.0,-21.0,4.3
55.0,-27.0,4.301
59.0,6.0,4.302
20.0,37.0,4.303
-32.0,29.0,4.304
-36.0,12.0,4.305
4.0,25.0,4.306
19.0,40.0,4.307
-25.0,16.0,4.308
-76.0,-27.0,4.309
-65.0,-23.0,4.31
11.0,43.0,4.311
112.0,106.0,4.312
197.0,106.0,4.313
241.0,60.0,4.314
225.0,21.0,4.315
147.0,3.0,4.316
47.0,-17.0,4.317
-47.0,-49.0,4.318
-113.0,-63.0,4.319
-166.0,-51.0,4.32
-215.0,-48.0,4.321
-249.0,-67.0,4.322
-251.0,-87.0,4.323
-216.0,-78.0,4.324
-145.0,-53.0,4.325
-56.0,-44.0,4.326
-11.0,-62.0,4.327
-54.0,-82.0,4.328
-125.0,-67.0,4.329
-118.0,-17.0,4.33
-23.0,23.0,4.331
63.0,23.0,4.332
97.0,26.0,4.333
143.0,87.0,4.334
219.0,166.0,4.335
242.0,163.0,4.336
177.0,80.0,4.337
85.0,17.0,4.338
36.0,25.0,4.339
-9.0,28.0,4.34
-86.0,14.0,4.341
-140.0,2.0,4.342
-130.0,-3.0,4.343
-99.0,-12.0,4.344
-60.0,-32.0,4.345
58.0,-33.0,4.346
239.0,23.0,4.347
320.0,49.0,4.348
225.0,-15.0,4.349
85.0,-64.0,4.35
30.0,-64.0,4.351
-1.0,-63.0,4.352
-93.0,-56.0,4.353
-171.0,-49.0,4.354
-139.0,-42.0,4.355
-55.0,-38.0,4.356
-23.0,-47.0,4.357
-28.0,-51.0,4.358
-6.0,-15.0,4.359
17.0,26.0,4.36
-13.0,24.0,4.361
-59.0,5.0,4.362
-35.0,40.0,4.363
46.0,127.0,4.364
94.0,181.0,4.365
72.0,132.0,4.366
20.0,15.0,4.367
-33.0,-82.0,4.368
-78.0,-117.0,4.369
-96.0,-103.0,4.37
-74.0,-80.0,4.371
-36.0,-67.0,4.372
-23.0,-69.0,4.373
-29.0,-71.0,4.374
-17.0,-44.0,4.375
26.0,15.0,4.376
71.0,64.0,4.377
82.0,61.0,4.378
59.0,23.0,4.379
35.0,9.0,4.38
56.0,46.0,4.381
140.0,105.0,4.382
239.0,129.0,4.383
276.0,107.0,4.384
209.0,82.0,4.385
69.0,88.0,4.386
-69.0,101.0,4.387
-154.0,62.0,4.388
-178.0,-24.0,4.389
-169.0,-90.0,4.39
-162.0,-104.0,4.391
-179.0,-112.0,4.392
-202.0,-144.0,4.393
-183.0,-146.0,4.394
-90.0,-74.0,4.395
50.0,18.0,4.396
162.0,50.0,4.397
205.0,16.0,4.398
186.0,-26.0,4.399
147.0,-49.0,4.4
120.0,-56.0,4.401
81.0,-34.0,4.402
-7.0,9.0,4.403
-131.0,25.0,4.404
-218.0,-26.0,4.405
-194.0,-81.0,4.406
-60.0,-57.0,4.407
91.0,35.0,4.408
148.0,110.0,4.409
85.0,122.0,4.41
4.0,107.0,4.411
10.0,105.0,4.412
80.0,108.0,4.413
97.0,100.0,4.414
37.0,81.0,4.415
-5.0,64.0,4.416
12.0,49.0,4.417
14.0,12.0,4.418
-63.0,-53.0,4.419
-151.0,-124.0,4.42
-145.0,-155.0,4.421
-63.0,-120.0,4.422
9.0,-72.0,4.423
49.0,-60.0,4.424
105.0,-64.0,4.425
179.0,-39.0,4.426
197.0,1.0,4.427
102.0,11.0,4.428
-60.0,-6.0,4.429
-193.0,-6.0,4.43
-228.0,17.0,4.431
-178.0,30.0,4.432
-106.0,18.0,4.433
-79.0,-4.0,4.434
-128.0,-52.0,4.435
-227.0,-134.0,4.436
-286.0,-188.0,4.437
-208.0,-144.0,4.438
31.0,20.0,4.439
316.0,201.0,4.44
487.0,252.0,4.441
478.0,168.0,4.442
339.0,54.0,4.443
155.0,-1.0,4.444
-15.0,-3.0,4.445
-136.0,-5.0,4.446
-194.0,-31.0,4.447
-199.0,-62.0,4.448
-167.0,-80.0,4.449
-95.0,-79.0,4.45
29.0,-58.0,4.451
192.0,-11.0,4.452
341.0,53.0,4.453
393.0,103.0,4.454
292.0,114.0,4.455
77.0,86.0,4.456
-114.0,53.0,4.457
-201.0,26.0,4.458
-193.0,-1.0,4.459
-171.0,-41.0,4.46
-173.0,-83.0,4.461
-179.0,-96.0,4.462
-182.0,-78.0,4.463
-181.0,-51.0,4.464
-158.0,-31.0,4.465
-110.0,-30.0,4.466
-81.0,-44.0,4.467
-72.0,-54.0,4.468
-31.0,-32.0,4.469
49.0,14.0,4.47
99.0,44.0,4.471
100.0,36.0,4.472
132.0,22.0,4.473
213.0,23.0,4.474
243.0,21.0,4.475
159.0,1.0,4.476
38.0,-15.0,4.477
-55.0,-19.0,4.478
-130.0,-27.0,4.479
-197.0,-43.0,4.48
-191.0,-39.0,4.481
-85.0,-3.0,4.482
30.0,16.0,4.483
71.0,-2.0,4.484
82.0,-5.0,4.485
138.0,45.0,4.486
191.0,100.0,4.487
156.0,99.0,4.488
53.0,67.0,4.489
-29.0,57.0,4.49
-79.0,48.0,4.491
-141.0,0.0,4.492
-203.0,-60.0,4.493
-187.0,-77.0,4.494
-81.0,-45.0,4.495
27.0,-13.0,4.496
78.0,-2.0,4.497
108.0,11.0,4.498
182.0,60.0,4.499
291.0,126.0,4.5
342.0,141.0,4.501
250.0,66.0,4.502
26.0,-46.0,4.503
-208.0,-88.0,4.504
-322.0,-41.0,4.505
-278.0,4.0,4.506
-158.0,-12.0,4.507
-47.0,-31.0,4.508
44.0,5.0,4.509
136.0,51.0,4.51
201.0,31.0,4.511
197.0,-33.0,4.512
146.0,-55.0,4.513
107.0,-24.0,4.514
95.0,-5.0,4.515
68.0,-23.0,4.516
3.0,-39.0,4.517
-82.0,-26.0,4.518
-136.0,-9.0,4.519
-151.0,-20.0,4.52
-156.0,-58.0,4.521
-167.0,-94.0,4.522
-163.0,-117.0,4.523
-133.0,-122.0,4.524
-106.0,-104.0,4.525
-90.0,-72.0,4.526
-39.0,-44.0,4.527
65.0,-31.0,4.528
147.0,-28.0,4.529
135.0,-19.0,4.53
90.0,26.0,4.531
120.0,111.0,4.532
185.0,178.0,4.533
139.0,147.0,4.534
-35.0,30.0,4.535
-182.0,-61.0,4.536
-205.0,-56.0,4.537
-160.0,1.0,4.538
-120.0,43.0,4.539
-75.0,57.0,4.54
-3.0,55.0,4.541
41.0,31.0,4.542
44.0,-7.0,4.543
69.0,-1.0,4.544
136.0,56.0,4.545
164.0,79.0,4.546
111.0,30.0,4.547
50.0,-15.0,4.548
50.0,1.0,4.549
58.0,29.0,4.55
24.0,18.0,4.551
-15.0,11.0,4.552
-14.0,44.0,4.553
-6.0,68.0,4.554
-31.0,45.0,4.555
-69.0,10.0,4.556
-87.0,-2.0,4.557
-83.0,-18.0,4.558
-43.0,-38.0,4.559
29.0,-20.0,4.56
64.0,29.0,4.561
-6.0,40.0,4.562
-94.0,-3.0,4.563
-58.0,-14.0,4.564
82.0,44.0,4.565
159.0,82.0,4.566
116.0,26.0,4.567
63.0,-57.0,4.568
56.0,-80.0,4.569
21.0,-71.0,4.57
-71.0,-95.0,4.571
-126.0,-124.0,4.572
-96.0,-99.0,4.573
-74.0,-46.0,4.574
-119.0,-31.0,4.575
-156.0,-36.0,4.576
-110.0,-4.0,4.577
-11.0,63.0,4.578
79.0,92.0,4.579
154.0,39.0,4.58
202.0,-60.0,4.581
168.0,-133.0,4.582
61.0,-129.0,4.583
-11.0,-51.0,4.584
2.0,48.0,4.585
8.0,92.0,4.586
-70.0,61.0,4.587
-151.0,21.0,4.588
-118.0,26.0,4.589
-12.0,48.0,4.59
53.0,31.0,4.591
69.0,-11.0,4.592
98.0,-25.0,4.593
117.0,-12.0,4.594
47.0,-23.0,4.595
-77.0,-61.0,4.596
-131.0,-77.0,4.597
-92.0,-59.0,4.598
-32.0,-44.0,4.599
15.0,-42.0,4.6
88.0,-11.0,4.601
147.0,59.0,4.602
95.0,95.0,4.603
-66.0,55.0,4.604
-188.0,-4.0,4.605
-181.0,-10.0,4.606
-90.0,29.0,4.607
1.0,62.0,4.608
59.0,62.0,4.609
52.0,32.0,4.61
-21.0,-22.0,4.611
-82.0,-75.0,4.612
-46.0,-80.0,4.613
40.0,-34.0,4.614
66.0,15.0,4.615
38.0,32.0,4.616
40.0,33.0,4.617
69.0,46.0,4.618
54.0,63.0,4.619
4.0,50.0,4.62
17.0,7.0,4.621
103.0,-16.0,4.622
150.0,-3.0,4.623
113.0,5.0,4.624
66.0,-23.0,4.625
75.0,-46.0,4.626
112.0,-20.0,4.627
124.0,15.0,4.628
98.0,-10.0,4.629
40.0,-69.0,4.63
-28.0,-64.0,4.631
-68.0,11.0,4.632
-73.0,54.0,4.633
-107.0,7.0,4.634
-206.0,-56.0,4.635
-295.0,-61.0,4.636
-285.0,-27.0,4.637
-191.0,-6.0,4.638
-94.0,3.0,4.639
-9.0,29.0,4.64
118.0,74.0,4.641
268.0,119.0,4.642
351.0,142.0,4.643
320.0,130.0,4.644
230.0,85.0,4.645
119.0,33.0,4.646
-22.0,-3.0,4.647
-182.0,-18.0,4.648
-283.0,-19.0,4.649
-272.0,-2.0,4.65
-184.0,8.0,4.651
-89.0,-19.0,4.652
-7.0,-69.0,4.653
62.0,-77.0,4.654
72.0,-27.0,4.655
-16.0,11.0,4.656
-124.0,0.0,4.657
-147.0,-31.0,4.658
-65.0,-33.0,4.659
5.0,-33.0,4.66
-18.0,-71.0,4.661
-78.0,-105.0,4.662
-78.0,-77.0,4.663
-26.0,-13.0,4.664
3.0,7.0,4.665
-9.0,-24.0,4.666
-9.0,-37.0,4.667
41.0,-2.0,4.668
94.0,26.0,4.669
96.0,-4.0,4.67
64.0,-40.0,4.671
60.0,-14.0,4.672
97.0,51.0,4.673
132.0,78.0,4.674
143.0,55.0,4.675
152.0,42.0,4.676
166.0,56.0,4.677
152.0,50.0,4.678
90.0,10.0,4.679
27.0,-18.0,4.68
9.0,-13.0,4.681
9.0,-10.0,4.682
-14.0,-43.0,4.683
-44.0,-88.0,4.684
-49.0,-97.0,4.685
-50.0,-65.0,4.686
-91.0,-17.0,4.687
-161.0,22.0,4.688
-203.0,35.0,4.689
-179.0,28.0,4.69
-96.0,27.0,4.691
2.0,38.0,4.692
66.0,32.0,4.693
79.0,-9.0,4.694
85.0,-33.0,4.695
131.0,14.0,4.696
185.0,87.0,4.697
174.0,101.0,4.698
96.0,45.0,4.699
32.0,-6.0,4.7
39.0,-9.0,4.701
69.0,0.0,4.702
78.0,-4.0,4.703
86.0,11.0,4.704
83.0,52.0,4.705
-4.0,62.0,4.706
-189.0,15.0,4.707
-333.0,-28.0,4.708
-322.0,-26.0,4.709
-229.0,-30.0,4.71
-199.0,-84.0,4.711
-231.0,-127.0,4.712
-227.0,-92.0,4.713
-165.0,-13.0,4.714
-93.0,33.0,4.715
-11.0,41.0,4.716
116.0,53.0,4.717
274.0,64.0,4.718
360.0,29.0,4.719
311.0,-40.0,4.72
172.0,-88.0,4.721
14.0,-87.0,4.722
-101.0,-74.0,4.723
-135.0,-69.0,4.724
-102.0,-51.0,4.725
-68.0,-19.0,4.726
-80.0,-6.0,4.727
-100.0,-10.0,4.728
-68.0,3.0,4.729
31.0,52.0,4.73
176.0,100.0,4.731
320.0,113.0,4.732
377.0,99.0,4.733
272.0,70.0,4.734
59.0,30.0,4.735
-94.0,-3.0,4.736
-105.0,-5.0,4.737
-52.0,17.0,4.738
-46.0,27.0,4.739
-73.0,12.0,4.74
-34.0,1.0,4.741
74.0,15.0,4.742
151.0,15.0,4.743
136.0,-36.0,4.744
74.0,-120.0,4.745
24.0,-169.0,4.746
4.0,-141.0,4.747
10.0,-59.0,4.748
32.0,8.0,4.749
32.0,20.0,4.75
-17.0,10.0,4.751
-51.0,47.0,4.752
19.0,133.0,4.753
154.0,196.0,4.754
200.0,190.0,4.755
93.0,157.0,4.756
-67.0,131.0,4.757
-215.0,78.0,4.758
-349.0,-3.0,4.759
-459.0,-48.0,4.76
-451.0,-24.0,4.761
-286.0,-6.0,4.762
-72.0,-51.0,4.763
56.0,-99.0,4.764
91.0,-73.0,4.765
97.0,-28.0,4.766
96.0,-44.0,4.767
79.0,-92.0,4.768
69.0,-96.0,4.769
75.0,-83.0,4.77
60.0,-111.0,4.771
20.0,-149.0,4.772
33.0,-130.0,4.773
138.0,-69.0,4.774
253.0,-28.0,4.775
262.0,-5.0,4.776
155.0,31.0,4.777
-8.0,64.0,4.778
-144.0,72.0,4.779
-214.0,77.0,4.78
-204.0,73.0,4.781
-134.0,55.0,4.782
-66.0,-6.0,4.783
-66.0,-58.0,4.784
-133.0,-80.0,4.785
-172.0,-79.0,4.786
-121.0,-2.0,4.787
-37.0,55.0,4.788
-18.0,53.0,4.789
-52.0,42.0,4.79
-60.0,7.0,4.791
-36.0,-23.0,4.792
-39.0,-36.0,4.793
-47.0,-29.0,4.794
33.0,39.0,4.795
186.0,87.0,4.796
290.0,77.0,4.797
307.0,57.0,4.798
312.0,46.0,4.799
325.0,94.0,4.8
260.0,105.0,4.801
108.0,37.0,4.802
9.0,-16.0,4.803
30.0,19.0,4.804
51.0,69.0,4.805
-25.0,25.0,4.806
-122.0,-87.0,4.807
-136.0,-156.0,4.808
-112.0,-150.0,4.809
-126.0,-129.0,4.81
-149.0,-130.0,4.811
-133.0,-117.0,4.812
-117.0,-60.0,4.813
-152.0,8.0,4.814
-187.0,44.0,4.815
-146.0,52.0,4.816
-35.0,66.0,4.817
105.0,103.0,4.818
211.0,128.0,4.819
227.0,100.0,4.82
144.0,30.0,4.821
43.0,-12.0,4.822
28.0,4.0,4.823
73.0,37.0,4.824
70.0,33.0,4.825
6.0,-12.0,4.826
-8.0,-41.0,4.827
77.0,-24.0,4.828
149.0,5.0,4.829
109.0,1.0,4.83
10.0,-17.0,4.831
-30.0,10.0,4.832
-13.0,69.0,4.833
-18.0,80.0,4.834
-51.0,38.0,4.835
-29.0,31.0,4.836
61.0,73.0,4.837
122.0,64.0,4.838
64.0,-32.0,4.839
-61.0,-100.0,4.84
-110.0,-47.0,4.841
-54.0,42.0,4.842
-8.0,31.0,4.843
-72.0,-49.0,4.844
-209.0,-87.0,4.845
-314.0,-81.0,4.846
-335.0,-98.0,4.847
-275.0,-123.0,4.848
-150.0,-105.0,4.849
6.0,-70.0,4.85
129.0,-76.0,4.851
166.0,-101.0,4.852
120.0,-91.0,4.853
52.0,-56.0,4.854
19.0,-46.0,4.855
22.0,-49.0,4.856
26.0,-26.0,4.857
-13.0,12.0,4.858
-71.0,27.0,4.859
-80.0,20.0,4.86
0.0,36.0,4.861
118.0,90.0,4.862
204.0,142.0,4.863
237.0,156.0,4.864
220.0,134.0,4.865
148.0,97.0,4.866
41.0,66.0,4.867
-36.0,58.0,4.868
-50.0,63.0,4.869
-48.0,45.0,4.87
-80.0,-5.0,4.871
-120.0,-52.0,4.872
-111.0,-53.0,4.873
-58.0,-24.0,4.874
-3.0,-1.0,4.875
43.0,11.0,4.876
88.0,28.0,4.877
119.0,50.0,4.878
116.0,55.0,4.879
90.0,47.0,4.88
60.0,30.0,4.881
15.0,-4.0,4.882
-46.0,-66.0,4.883
-95.0,-119.0,4.884
-103.0,-116.0,4.885
-79.0,-63.0,4.886
-46.0,-9.0,4.887
1.0,13.0,4.888
68.0,8.0,4.889
128.0,-3.0,4.89
155.0,-1.0,4.891
150.0,23.0,4.892
130.0,48.0,4.893
92.0,44.0,4.894
29.0,15.0,4.895
-47.0,-10.0,4.896
-103.0,-19.0,4.897
-125.0,-42.0,4.898
-101.0,-81.0,4.899
-50.0,-105.0,4.9
-22.0,-96.0,4.901
-58.0,-69.0,4.902
-132.0,-45.0,4.903
-153.0,-11.0,4.904
-84.0,38.0,4.905
-7.0,69.0,4.906
-16.0,48.0,4.907
-86.0,2.0,4.908
-113.0,-17.0,4.909
-66.0,-4.0,4.91
-10.0,11.0,4.911
0.0,13.0,4.912
-17.0,8.0,4.913
-25.0,0.0,4.914
-4.0,-2.0,4.915
55.0,10.0,4.916
130.0,23.0,4.917
170.0,-1.0,4.918
144.0,-52.0,4.919
81.0,-87.0,4.92
51.0,-79.0,4.921
71.0,-45.0,4.922
109.0,-16.0,4.923
125.0,0.0,4.924
101.0,7.0,4.925
32.0,8.0,4.926
-56.0,18.0,4.927
-115.0,50.0,4.928
-115.0,86.0,4.929
-62.0,98.0,4.93
27.0,102.0,4.931
118.0,123.0,4.932
159.0,150.0,4.933
99.0,147.0,4.934
-22.0,121.0,4.935
-104.0,110.0,4.936
-106.0,118.0,4.937
-83.0,111.0,4.938
-97.0,60.0,4.939
-135.0,-21.0,4.94
-142.0,-94.0,4.941
-125.0,-134.0,4.942
-122.0,-152.0,4.943
-120.0,-157.0,4.944
-71.0,-143.0,4.945
23.0,-100.0,4.946
109.0,-51.0,4.947
161.0,-30.0,4.948
215.0,-31.0,4.949
275.0,-14.0,4.95
261.0,28.0,4.951
123.0,46.0,4.952
-49.0,20.0,4.953
-111.0,-2.0,4.954
-51.0,8.0,4.955
-3.0,12.0,4.956
-39.0,-18.0,4.957
-111.0,-56.0,4.958
-141.0,-55.0,4.959
-136.0,-38.0,4.96
-126.0,-55.0,4.961
-79.0,-89.0,4.962
21.0,-94.0,4.963
96.0,-73.0,4.964
67.0,-68.0,4.965
-27.0,-79.0,4.966
-94.0,-71.0,4.967
-105.0,-41.0,4.968
-92.0,-20.0,4.969
-70.0,-12.0,4.97
-30.0,10.0,4.971
11.0,44.0,4.972
35.0,63.0,4.973
65.0,69.0,4.974
126.0,94.0,4.975
197.0,146.0,4.976
236.0,184.0,4.977
249.0,155.0,4.978
259.0,64.0,4.979
245.0,-39.0,4.98
166.0,-100.0,4.981
36.0,-98.0,4.982
-69.0,-65.0,4.983
-108.0,-41.0,4.984
-119.0,-39.0,4.985
-141.0,-38.0,4.986
-159.0,-21.0,4.987
-131.0,11.0,4.988
-59.0,47.0,4.989
10.0,70.0,4.99
42.0,76.0,4.991
40.0,92.0,4.992
12.0,148.0,4.993
-45.0,216.0,4.994
-113.0,221.0,4.995
-148.0,141.0,4.996
-114.0,65.0,4.997
-31.0,65.0,4.998
41.0,112.0,4.999
53.0,105.0,5.0
16.0,17.0,5.001
-24.0,-74.0,5.002
-31.0,-124.0,5.003
-2.0,-166.0,5.004
28.0,-226.0,5.005
25.0,-278.0,5.006
-5.0,-292.0,5.007
-5.0,-273.0,5.008
64.0,-231.0,5.009
153.0,-171.0,5.01
161.0,-111.0,5.011
51.0,-69.0,5.012
-94.0,-36.0,5.013
-180.0,4.0,5.014
-188.0,46.0,5.015
-152.0,78.0,5.016
-98.0,117.0,5.017
-37.0,181.0,5.018
-1.0,240.0,5.019
2.0,241.0,5.02
18.0,189.0,5.021
69.0,150.0,5.022
106.0,151.0,5.023
81.0,153.0,5.024
38.0,108.0,5.025
44.0,29.0,5.026
82.0,-41.0,5.027
90.0,-78.0,5.028
70.0,-99.0,5.029
78.0,-119.0,5.03
106.0,-141.0,5.031
98.0,-156.0,5.032
46.0,-144.0,5.033
1.0,-100.0,5.034
-18.0,-48.0,5.035
-43.0,-26.0,5.036
-88.0,-29.0,5.037
-137.0,-23.0,5.038
-155.0,15.0,5.039
-123.0,53.0,5.04
-39.0,45.0,5.041
53.0,2.0,5.042
73.0,-25.0,5.043
7.0,-6.0,5.044
-51.0,55.0,5.045
-12.0,123.0,5.046
91.0,156.0,5.047
164.0,143.0,5.048
189.0,107.0,5.049
195.0,75.0,5.05
162.0,40.0,5.051
63.0,-20.0,5.052
-29.0,-90.0,5.053
-32.0,-129.0,5.054
5.0,-137.0,5.055
-30.0,-146.0,5.056
-122.0,-160.0,5.057
-178.0,-158.0,5.058
-149.0,-123.0,5.059
-100.0,-75.0,5.06
-85.0,-38.0,5.061
-93.0,-7.0,5.062
-91.0,21.0,5.063
-50.0,48.0,5.064
46.0,69.0,5.065
169.0,85.0,5.066
237.0,90.0,5.067
218.0,93.0,5.068
159.0,110.0,5.069
101.0,130.0,5.07
30.0,120.0,5.071
-62.0,72.0,5.072
-140.0,29.0,5.073
-180.0,10.0,5.074
-209.0,-17.0,5.075
-244.0,-86.0,5.076
-260.0,-169.0,5.077
-231.0,-224.0,5.078
-157.0,-230.0,5.079
-61.0,-205.0,5.08
38.0,-168.0,5.081
104.0,-129.0,5.082
106.0,-97.0,5.083
61.0,-71.0,5.084
12.0,-38.0,5.085
-12.0,9.0,5.086
-1.0,62.0,5.087
66.0,110.0,5.088
184.0,152.0,5.089
265.0,193.0,5.09
226.0,220.0,5.091
97.0,224.0,5.092
-2.0,211.0,5.093
-22.0,186.0,5.094
-25.0,145.0,5.095
-57.0,91.0,5.096
-73.0,40.0,5.097
-40.0,-5.0,5.098
-7.0,-42.0,5.099
-31.0,-72.0,5.1
-67.0,-86.0,5.101
-50.0,-75.0,5.102
1.0,-60.0,5.103
20.0,-62.0,5.104
0.0,-72.0,5.105
-12.0,-64.0,5.106
-5.0,-34.0,5.107
-15.0,-7.0,5.108
-50.0,3.0,5.109
-75.0,9.0,5.11
-73.0,24.0,5.111
-48.0,43.0,5.112
-3.0,59.0,5.113
56.0,67.0,5.114
97.0,70.0,5.115
101.0,64.0,5.116
94.0,47.0,5.117
102.0,34.0,5.118
125.0,44.0,5.119
135.0,52.0,5.12
127.0,17.0,5.121
97.0,-51.0,5.122
42.0,-106.0,5.123
-14.0,-120.0,5.124
-30.0,-119.0,5.125
0.0,-117.0,5.126
30.0,-91.0,5.127
26.0,-32.0,5.128
3.0,7.0,5.129
-3.0,-7.0,5.13
23.0,-29.0,5.131
72.0,3.0,5.132
109.0,62.0,5.133
81.0,71.0,5.134
-28.0,28.0,5.135
-146.0,5.0,5.136
-179.0,31.0,5.137
-115.0,51.0,5.138
-32.0,11.0,5.139
-7.0,-65.0,5.14
-32.0,-117.0,5.141
-68.0,-118.0,5.142
-92.0,-93.0,5.143
-111.0,-68.0,5.144
-124.0,-51.0,5.145
-112.0,-39.0,5.146
-74.0,-29.0,5.147
-41.0,-25.0,5.148
-47.0,-38.0,5.149
-84.0,-68.0,5.15
-98.0,-97.0,5.151
-67.0,-102.0,5.152
-32.0,-85.0,5.153
-33.0,-65.0,5.154
-36.0,-43.0,5.155
8.0,-10.0,5.156
81.0,37.0,5.157
131.0,77.0,5.158
137.0,100.0,5.159
128.0,113.0,5.16
134.0,122.0,5.161
139.0,121.0,5.162
122.0,104.0,5.163
88.0,84.0,5.164
47.0,72.0,5.165
5.0,58.0,5.166
-27.0,36.0,5.167
-40.0,29.0,5.168
-33.0,50.0,5.169
-29.0,72.0,5.17
-41.0,54.0,5.171
-59.0,14.0,5.172
-52.0,6.0,5.173
-24.0,42.0,5.174
-20.0,62.0,5.175
-54.0,33.0,5.176
-76.0,-3.0,5.177
-45.0,-1.0,5.178
6.0,29.0,5.179
20.0,32.0,5.18
12.0,3.0,5.181
53.0,-9.0,5.182
153.0,13.0,5.183
232.0,42.0,5.184
224.0,37.0,5.185
144.0,-4.0,5.186
36.0,-59.0,5.187
-58.0,-80.0,5.188
-94.0,-36.0,5.189
-54.0,40.0,5.19
8.0,69.0,5.191
27.0,17.0,5.192
12.0,-58.0,5.193
29.0,-80.0,5.194
71.0,-44.0,5.195
67.0,-1.0,5.196
6.0,10.0,5.197
-61.0,-10.0,5.198
-74.0,-40.0,5.199
-13.0,-59.0,5.2
128.0,-52.0,5.201
306.0,-30.0,5.202
374.0,-16.0,5.203
221.0,-9.0,5.204
-48.0,17.0,5.205
-216.0,49.0,5.206
-232.0,36.0,5.207
-234.0,-35.0,5.208
-287.0,-110.0,5.209
-318.0,-137.0,5.21
-293.0,-126.0,5.211
-277.0,-128.0,5.212
-272.0,-154.0,5.213
-188.0,-155.0,5.214
-24.0,-85.0,5.215
81.0,33.0,5.216
62.0,111.0,5.217
10.0,82.0,5.218
44.0,-19.0,5.219
150.0,-83.0,5.22
229.0,-62.0,5.221
233.0,-15.0,5.222
176.0,-11.0,5.223
85.0,-29.0,5.224
-19.0,-25.0,5.225
-107.0,-21.0,5.226
-152.0,-47.0,5.227
-155.0,-64.0,5.228
-135.0,-32.0,5.229
-113.0,9.0,5.23
-98.0,3.0,5.231
-76.0,-21.0,5.232
-25.0,2.0,5.233
53.0,78.0,5.234
140.0,166.0,5.235
225.0,258.0,5.236
290.0,331.0,5.237
302.0,335.0,5.238
245.0,246.0,5.239
153.0,139.0,5.24
76.0,102.0,5.241
32.0,117.0,5.242
24.0,99.0,5.243
69.0,26.0,5.244
150.0,-36.0,5.245
200.0,-43.0,5.246
175.0,-23.0,5.247
95.0,-36.0,5.248
-1.0,-104.0,5.249
-92.0,-194.0,5.25
-154.0,-258.0,5.251
-160.0,-272.0,5.252
-138.0,-251.0,5.253
-121.0,-213.0,5.254
-58.0,-154.0,5.255
118.0,-61.0,5.256
295.0,48.0,5.257
252.0,140.0,5.258
-73.0,188.0,5.259
-417.0,211.0,5.26
-485.0,243.0,5.261
-319.0,278.0,5.262
-186.0,264.0,5.263
-203.0,190.0,5.264
-243.0,109.0,5.265
-182.0,77.0,5.266
-51.0,84.0,5.267
65.0,72.0,5.268
134.0,13.0,5.269
163.0,-66.0,5.27
169.0,-113.0,5.271
168.0,-110.0,5.272
155.0,-90.0,5.273
111.0,-99.0,5.274
53.0,-132.0,5.275
31.0,-145.0,5.276
50.0,-131.0,5.277
55.0,-130.0,5.278
-1.0,-166.0,5.279
-94.0,-208.0,5.28
-160.0,-214.0,5.281
-167.0,-190.0,5.282
-128.0,-168.0,5.283
-77.0,-159.0,5.284
-49.0,-150.0,5.285
-54.0,-127.0,5.286
-47.0,-67.0,5.287
10.0,43.0,5.288
83.0,157.0,5.289
97.0,196.0,5.29
33.0,142.0,5.291
-48.0,74.0,5.292
-84.0,57.0,5.293
-41.0,74.0,5.294
67.0,86.0,5.295
187.0,103.0,5.296
256.0,127.0,5.297
270.0,141.0,5.298
286.0,129.0,5.299
320.0,108.0,5.3
302.0,76.0,5.301
184.0,12.0,5.302
40.0,-66.0,5.303
-17.0,-108.0,5.304
7.0,-104.0,5.305
20.0,-102.0,5.306
-16.0,-118.0,5.307
-66.0,-105.0,5.308
-104.0,-48.0,5.309
-136.0,-7.0,5.31
-158.0,-21.0,5.311
-163.0,-53.0,5.312
-159.0,-58.0,5.313
-161.0,-48.0,5.314
-159.0,-49.0,5.315
-149.0,-31.0,5.316
-143.0,36.0,5.317
-141.0,133.0,5.318
-119.0,185.0,5.319
-45.0,165.0,5.32
87.0,122.0,5.321
232.0,112.0,5.322
291.0,111.0,5.323
200.0,71.0,5.324
35.0,0.0,5.325
-54.0,-45.0,5.326
-19.0,-43.0,5.327
47.0,-39.0,5.328
53.0,-59.0,5.329
9.0,-88.0,5.33
-47.0,-107.0,5.331
-113.0,-133.0,5.332
-166.0,-151.0,5.333
-167.0,-136.0,5.334
-130.0,-98.0,5.335
-104.0,-81.0,5.336
-89.0,-74.0,5.337
-53.0,-33.0,5.338
-17.0,48.0,5.339
-23.0,113.0,5.34
-34.0,142.0,5.341
6.0,181.0,5.342
57.0,231.0,5.343
36.0,243.0,5.344
-22.0,197.0,5.345
-21.0,128.0,5.346
37.0,55.0,5.347
69.0,-19.0,5.348
61.0,-53.0,5.349
60.0,-6.0,5.35
76.0,66.0,5.351
75.0,66.0,5.352
63.0,0.0,5.353
81.0,-40.0,5.354
124.0,-20.0,5.355
170.0,9.0,5.356
220.0,21.0,5.357
286.0,37.0,5.358
318.0,39.0,5.359
252.0,-24.0,5.36
112.0,-137.0,5.361
-17.0,-195.0,5.362
-91.0,-171.0,5.363
-131.0,-146.0,5.364
-165.0,-174.0,5.365
-189.0,-196.0,5.366
-205.0,-149.0,5.367
-232.0,-57.0,5.368
-247.0,2.0,5.369
-172.0,19.0,5.37
35.0,27.0,5.371
286.0,52.0,5.372
408.0,87.0,5.373
288.0,115.0,5.374
-4.0,118.0,5.375
-277.0,92.0,5.376
-389.0,53.0,5.377
-357.0,10.0,5.378
-274.0,-24.0,5.379
-209.0,-59.0,5.38
-167.0,-101.0,5.381
-128.0,-132.0,5.382
-32.0,-136.0,5.383
198.0,-116.0,5.384
508.0,-80.0,5.385
655.0,-32.0,5.386
448.0,16.0,5.387
44.0,42.0,5.388
-205.0,36.0,5.389
-182.0,15.0,5.39
-89.0,3.0,5.391
-115.0,-7.0,5.392
-218.0,-22.0,5.393
-288.0,-25.0,5.394
-309.0,7.0,5.395
-297.0,50.0,5.396
-226.0,70.0,5.397
-79.0,65.0,5.398
77.0,79.0,5.399
174.0,124.0,5.4
214.0,163.0,5.401
205.0,167.0,5.402
153.0,138.0,5.403
101.0,98.0,5.404
118.0,61.0,5.405
203.0,32.0,5.406
269.0,15.0,5.407
242.0,2.0,5.408
130.0,-22.0,5.409
7.0,-48.0,5.41
-60.0,-44.0,5.411
-63.0,-9.0,5.412
-59.0,0.0,5.413
-92.0,-50.0,5.414
-140.0,-122.0,5.415
-156.0,-146.0,5.416
-146.0,-131.0,5.417
-146.0,-136.0,5.418
-146.0,-161.0,5.419
-125.0,-140.0,5.42
-42.0,-54.0,5.421
9.0,17.0,5.422
-39.0,-1.0,5.423
-68.0,-47.0,5.424
-41.0,-2.0,5.425
-1.0,135.0,5.426
76.0,242.0,5.427
125.0,234.0,5.428
81.0,164.0,5.429
69.0,125.0,5.43
161.0,132.0,5.431
208.0,119.0,5.432
119.0,47.0,5.433
50.0,-42.0,5.434
42.0,-86.0,5.435
51.0,-75.0,5.436
113.0,-52.0,5.437
159.0,-50.0,5.438
125.0,-72.0,5.439
46.0,-103.0,5.44
-21.0,-130.0,5.441
-14.0,-135.0,5.442
65.0,-100.0,5.443
110.0,-35.0,5.444
10.0,16.0,5.445
-189.0,17.0,5.446
-320.0,-16.0,5.447
-272.0,-36.0,5.448
-107.0,-33.0,5.449
26.0,-32.0,5.45
48.0,-41.0,5.451
-10.0,-33.0,5.452
-73.0,-4.0,5.453
-98.0,8.0,5.454
-108.0,-23.0,5.455
-129.0,-81.0,5.456
-132.0,-117.0,5.457
-21.0,-103.0,5.458
163.0,-58.0,5.459
288.0,-24.0,5.46
272.0,-26.0,5.461
181.0,-36.0,5.462
122.0,-13.0,5.463
82.0,44.0,5.464
-11.0,87.0,5.465
-153.0,91.0,5.466
-250.0,91.0,5.467
-240.0,126.0,5.468
-149.0,173.0,5.469
-46.0,175.0,5.47
6.0,112.0,5.471
-11.0,21.0,5.472
-48.0,-40.0,5.473
-41.0,-60.0,5.474
0.0,-69.0,5.475
8.0,-86.0,5.476
-29.0,-90.0,5.477
-57.0,-51.0,5.478
-37.0,7.0,5.479
0.0,43.0,5.48
40.0,50.0,5.481
111.0,81.0,5.482
199.0,148.0,5.483
224.0,195.0,5.484
165.0,180.0,5.485
112.0,124.0,5.486
123.0,68.0,5.487
122.0,26.0,5.488
37.0,5.0,5.489
-85.0,12.0,5.49
-154.0,34.0,5.491
-144.0,34.0,5.492
-70.0,22.0,5.493
56.0,51.0,5.494
171.0,123.0,5.495
168.0,143.0,5.496
43.0,65.0,5.497
-103.0,-60.0,5.498
-153.0,-123.0,5.499
-121.0,-115.0,5.5
-68.0,-108.0,5.501
-13.0,-118.0,5.502
33.0,-110.0,5.503
20.0,-85.0,5.504
-41.0,-87.0,5.505
-32.0,-111.0,5.506
99.0,-92.0,5.507
229.0,-16.0,5.508
203.0,43.0,5.509
38.0,31.0,5.51
-121.0,-25.0,5.511
-197.0,-66.0,5.512
-212.0,-85.0,5.513
-188.0,-106.0,5.514
-114.0,-126.0,5.515
-9.0,-120.0,5.516
65.0,-88.0,5.517
88.0,-58.0,5.518
70.0,-47.0,5.519
28.0,-50.0,5.52
-27.0,-58.0,5.521
-69.0,-54.0,5.522
-79.0,-27.0,5.523
-69.0,22.0,5.524
-60.0,57.0,5.525
-49.0,44.0,5.526
-28.0,8.0,5.527
3.0,9.0,5.528
50.0,52.0,5.529
105.0,76.0,5.53
133.0,58.0,5.531
115.0,44.0,5.532
82.0,69.0,5.533
80.0,89.0,5.534
101.0,63.0,5.535
102.0,26.0,5.536
86.0,23.0,5.537
65.0,30.0,5.538
30.0,2.0,5.539
-10.0,-53.0,5.54
-66.0,-86.0,5.541
-110.0,-74.0,5.542
-116.0,-48.0,5.543
-119.0,-25.0,5.544
-109.0,-4.0,5.545
-91.0,7.0,5.546
-49.0,2.0,5.547
-10.0,5.0,5.548
19.0,36.0,5.549
66.0,80.0,5.55
158.0,104.0,5.551
211.0,97.0,5.552
147.0,74.0,5.553
86.0,44.0,5.554
39.0,10.0,5.555
4.0,-15.0,5.556
5.0,-23.0,5.557
13.0,-24.0,5.558
23.0,-31.0,5.559
-19.0,-41.0,5.56
-119.0,-24.0,5.561
-203.0,34.0,5.562
-201.0,93.0,5.563
-137.0,99.0,5.564
-66.0,48.0,5.565
22.0,-7.0,5.566
140.0,-22.0,5.567
219.0,-14.0,5.568
169.0,-25.0,5.569
35.0,-61.0,5.57
-55.0,-82.0,5.571
-52.0,-68.0,5.572
-15.0,-29.0,5.573
28.0,4.0,5.574
102.0,20.0,5.575
194.0,24.0,5.576
240.0,28.0,5.577
199.0,30.0,5.578
75.0,12.0,5.579
-119.0,-33.0,5.58
-314.0,-91.0,5.581
-373.0,-116.0,5.582
-246.0,-86.0,5.583
-73.0,-32.0,5.584
-41.0,-8.0,5.585
-136.0,-27.0,5.586
-189.0,-48.0,5.587
-139.0,-38.0,5.588
-83.0,-7.0,5.589
-99.0,15.0,5.59
-137.0,27.0,5.591
-116.0,42.0,5.592
-28.0,62.0,5.593
72.0,71.0,5.594
148.0,58.0,5.595
186.0,45.0,5.596
192.0,48.0,5.597
155.0,55.0,5.598
75.0,37.0,5.599
-13.0,-10.0,5.6
-40.0,-50.0,5.601
22.0,-39.0,5.602
115.0,5.0,5.603
148.0,25.0,5.604
105.0,-14.0,5.605
45.0,-67.0,5.606
17.0,-72.0,5.607
14.0,-30.0,5.608
-5.0,-3.0,5.609
-41.0,-23.0,5.61
-46.0,-52.0,5.611
20.0,-29.0,5.612
119.0,32.0,5.613
147.0,63.0,5.614
70.0,35.0,5.615
-20.0,-3.0,5.616
-26.0,4.0,5.617
27.0,47.0,5.618
46.0,70.0,5.619
2.0,58.0,5.62
-30.0,41.0,5.621
-11.0,46.0,5.622
24.0,51.0,5.623
49.0,39.0,5.624
90.0,24.0,5.625
142.0,22.0,5.626
140.0,20.0,5.627
61.0,-2.0,5.628
-6.0,-28.0,5.629
40.0,-23.0,5.63
153.0,20.0,5.631
160.0,66.0,5.632
6.0,74.0,5.633
-151.0,42.0,5.634
-147.0,-6.0,5.635
-61.0,-46.0,5.636
-76.0,-73.0,5.637
-213.0,-100.0,5.638
-294.0,-121.0,5.639
-244.0,-126.0,5.64
-185.0,-100.0,5.641
-182.0,-40.0,5.642
-129.0,15.0,5.643
21.0,26.0,5.644
142.0,-4.0,5.645
144.0,-33.0,5.646
99.0,-38.0,5.647
72.0,-39.0,5.648
21.0,-64.0,5.649
-48.0,-96.0,5.65
-61.0,-107.0,5.651
-39.0,-99.0,5.652
-94.0,-90.0,5.653
-196.0,-83.0,5.654
-190.0,-62.0,5.655
-46.0,-22.0,5.656
83.0,27.0,5.657
128.0,81.0,5.658
154.0,137.0,5.659
199.0,182.0,5.66
209.0,200.0,5.661
158.0,190.0,5.662
99.0,156.0,5.663
53.0,103.0,5.664
-5.0,48.0,5.665
-52.0,17.0,5.666
-41.0,21.0,5.667
-2.0,42.0,5.668
11.0,49.0,5.669
18.0,32.0,5.67
56.0,1.0,5.671
85.0,-26.0,5.672
38.0,-54.0,5.673
-58.0,-84.0,5.674
-132.0,-109.0,5.675
-164.0,-113.0,5.676
-165.0,-94.0,5.677
-120.0,-64.0,5.678
-27.0,-36.0,5.679
64.0,-16.0,5.68
110.0,0.0,5.681
139.0,27.0,5.682
170.0,58.0,5.683
158.0,68.0,5.684
67.0,38.0,5.685
-37.0,-17.0,5.686
-51.0,-50.0,5.687
34.0,-28.0,5.688
118.0,16.0,5.689
110.0,31.0,5.69
36.0,16.0,5.691
2.0,18.0,5.692
62.0,42.0,5.693
137.0,33.0,5.694
111.0,-42.0,5.695
-39.0,-133.0,5.696
-198.0,-166.0,5.697
-285.0,-133.0,5.698
-256.0,-78.0,5.699
-124.0,-49.0,5.7
68.0,-55.0,5.701
207.0,-50.0,5.702
182.0,9.0,5.703
30.0,112.0,5.704
-69.0,190.0,5.705
-28.0,191.0,5.706
46.0,144.0,5.707
30.0,105.0,5.708
-51.0,72.0,5.709
-124.0,12.0,5.71
-183.0,-54.0,5.711
-234.0,-66.0,5.712
-231.0,-31.0,5.713
-171.0,-18.0,5.714
-118.0,-46.0,5.715
-85.0,-58.0,5.716
-14.0,-40.0,5.717
106.0,-44.0,5.718
175.0,-81.0,5.719
130.0,-88.0,5.72
56.0,-35.0,5.721
36.0,15.0,5.722
49.0,10.0,5.723
60.0,7.0,5.724
97.0,56.0,5.725
149.0,102.0,5.726
128.0,65.0,5.727
9.0,-19.0,5.728
-83.0,-50.0,5.729
-42.0,-1.0,5.73
55.0,59.0,5.731
62.0,78.0,5.732
-22.0,56.0,5.733
-82.0,17.0,5.734
-53.0,-10.0,5.735
7.0,3.0,5.736
32.0,46.0,5.737
40.0,69.0,5.738
73.0,45.0,5.739
120.0,7.0,5.74
135.0,-11.0,5.741
85.0,-29.0,5.742
-27.0,-78.0,5.743
-156.0,-128.0,5.744
-223.0,-124.0,5.745
-185.0,-77.0,5.746
-91.0,-36.0,5.747
-32.0,-24.0,5.748
-35.0,-21.0,5.749
-28.0,-8.0,5.75
55.0,7.0,5.751
196.0,25.0,5.752
303.0,40.0,5.753
302.0,42.0,5.754
209.0,29.0,5.755
134.0,22.0,5.756
158.0,29.0,5.757
230.0,29.0,5.758
218.0,4.0,5.759
66.0,-15.0,5.76
-135.0,0.0,5.761
-290.0,37.0,5.762
-394.0,35.0,5.763
-449.0,-25.0,5.764
-419.0,-90.0,5.765
-309.0,-111.0,5.766
-196.0,-100.0,5.767
-117.0,-85.0,5.768
-14.0,-62.0,5.769
139.0,-18.0,5.77
259.0,20.0,5.771
271.0,24.0,5.772
220.0,12.0,5.773
189.0,22.0,5.774
178.0,38.0,5.775
144.0,27.0,5.776
81.0,10.0,5.777
-1.0,26.0,5.778
-78.0,66.0,5.779
-126.0,76.0,5.78
-137.0,48.0,5.781
-131.0,42.0,5.782
-135.0,75.0,5.783
-141.0,94.0,5.784
-125.0,59.0,5.785
-92.0,4.0,5.786
-52.0,-25.0,5.787
-5.0,-29.0,5.788
32.0,-25.0,5.789
26.0,-12.0,5.79
-2.0,16.0,5.791
6.0,34.0,5.792
61.0,8.0,5.793
99.0,-50.0,5.794
99.0,-84.0,5.795
99.0,-67.0,5.796
107.0,-36.0,5.797
72.0,-40.0,5.798
-10.0,-77.0,5.799
-83.0,-100.0,5.8
-108.0,-79.0,5.801
-105.0,-28.0,5.802
-86.0,14.0,5.803
-34.0,37.0,5.804
46.0,51.0,5.805
127.0,73.0,5.806
209.0,104.0,5.807
274.0,117.0,5.808
265.0,93.0,5.809
153.0,40.0,5.81
18.0,-5.0,5.811
-43.0,-32.0,5.812
-49.0,-60.0,5.813
-68.0,-94.0,5.814
-107.0,-119.0,5.815
-115.0,-113.0,5.816
-81.0,-80.0,5.817
-39.0,-39.0,5.818
-17.0,-7.0,5.819
-22.0,10.0,5.82
-48.0,18.0,5.821
-79.0,28.0,5.822
-75.0,43.0,5.823
-5.0,67.0,5.824
100.0,95.0,5.825
159.0,101.0,5.826
132.0,70.0,5.827
74.0,22.0,5.828
92.0,1.0,5.829
197.0,14.0,5.83
261.0,29.0,5.831
166.0,21.0,5.832
-23.0,12.0,5.833
-139.0,22.0,5.834
-138.0,27.0,5.835
-139.0,1.0,5.836
-209.0,-39.0,5.837
-280.0,-62.0,5.838
-284.0,-54.0,5.839
-282.0,-52.0,5.84
-262.0,-72.0,5.841
-228.0,-90.0,5.842
-158.0,-104.0,5.843
-87.0,-102.0,5.844
-11.0,-47.0,5.845
74.0,-2.0,5.846
183.0,14.0,5.847
270.0,43.0,5.848
293.0,114.0,5.849
298.0,162.0,5.85
245.0,140.0,5.851
189.0,115.0,5.852
123.0,85.0,5.853
58.0,48.0,5.854
-7.0,-8.0,5.855
-65.0,-49.0,5.856
-100.0,-45.0,5.857
-127.0,-36.0,5.858
-114.0,-36.0,5.859
-79.0,-58.0,5.86
-24.0,-62.0,5.861
51.0,-40.0,5.862
121.0,-37.0,5.863
136.0,-62.0,5.864
76.0,-82.0,5.865
-10.0,-73.0,5.866
-56.0,-57.0,5.867
-55.0,-45.0,5.868
-38.0,-32.0,5.869
-31.0,-10.0,5.87
-28.0,16.0,5.871
-19.0,48.0,5.872
-4.0,88.0,5.873
14.0,118.0,5.874
33.0,119.0,5.875
42.0,102.0,5.876
38.0,90.0,5.877
28.0,78.0,5.878
24.0,50.0,5.879
12.0,12.0,5.88
-5.0,-14.0,5.881
5.0,-26.0,5.882
47.0,-37.0,5.883
70.0,-44.0,5.884
26.0,-38.0,5.885
-60.0,-43.0,5.886
-118.0,-79.0,5.887
-110.0,-115.0,5.888
-59.0,-111.0,5.889
-17.0,-81.0,5.89
-30.0,-68.0,5.891
-91.0,-63.0,5.892
-142.0,-32.0,5.893
-134.0,13.0,5.894
-83.0,37.0,5.895
-25.0,36.0,5.896
23.0,43.0,5.897
67.0,58.0,5.898
80.0,51.0,5.899
43.0,22.0,5.9
9.0,3.0,5.901
34.0,12.0,5.902
102.0,19.0,5.903
146.0,0.0,5.904
144.0,-29.0,5.905
125.0,-38.0,5.906
107.0,-19.0,5.907
68.0,11.0,5.908
5.0,32.0,5.909
-60.0,34.0,5.91
-105.0,29.0,5.911
-127.0,27.0,5.912
-124.0,20.0,5.913
-95.0,-2.0,5.914
-56.0,-29.0,5.915
-31.0,-32.0,5.916
-16.0,-3.0,5.917
12.0,28.0,5.918
64.0,39.0,5.919
106.0,46.0,5.92
116.0,38.0,5.921
114.0,31.0,5.922
75.0,32.0,5.923
34.0,33.0,5.924
-10.0,33.0,5.925
-37.0,32.0,5.926
-12.0,25.0,5.927
0.0,7.0,5.928
-27.0,-46.0,5.929
-55.0,-90.0,5.93
-87.0,-109.0,5.931
-106.0,-117.0,5.932
-85.0,-91.0,5.933
-60.0,-68.0,5.934
-22.0,-56.0,5.935
10.0,-44.0,5.936
28.0,-38.0,5.937
40.0,-25.0,5.938
40.0,21.0,5.939
74.0,67.0,5.94
109.0,85.0,5.941
98.0,76.0,5.942
61.0,54.0,5.943
37.0,37.0,5.944
19.0,22.0,5.945
-10.0,4.0,5.946
-13.0,-3.0,5.947
47.0,7.0,5.948
101.0,20.0,5.949
60.0,13.0,5.95
-23.0,0.0,5.951
-26.0,17.0,5.952
44.0,56.0,5.953
49.0,74.0,5.954
-50.0,51.0,5.955
-126.0,17.0,5.956
-106.0,-1.0,5.957
-69.0,-19.0,5.958
-97.0,-38.0,5.959
-132.0,-47.0,5.96
-92.0,-43.0,5.961
-31.0,-37.0,5.962
-35.0,-31.0,5.963
-71.0,-17.0,5.964
-52.0,3.0,5.965
9.0,13.0,5.966
41.0,10.0,5.967
38.0,1.0,5.968
48.0,-11.0,5.969
75.0,-25.0,5.97
80.0,-23.0,5.971
66.0,0.0,5.972
59.0,26.0,5.973
56.0,36.0,5.974
43.0,43.0,5.975
35.0,57.0,5.976
52.0,64.0,5.977
78.0,47.0,5.978
87.0,20.0,5.979
83.0,-7.0,5.98
88.0,-34.0,5.981
90.0,-54.0,5.982
69.0,-55.0,5.983
29.0,-47.0,5.984
-5.0,-47.0,5.985
-22.0,-59.0,5.986
-25.0,-62.0,5.987
-21.0,-41.0,5.988
-23.0,-6.0,5.989
-57.0,22.0,5.99
-124.0,27.0,5.991
-174.0,5.0,5.992
-160.0,-23.0,5.993
-92.0,-33.0,5.994
-28.0,-19.0,5.995
-16.0,-2.0,5.996
-37.0,2.0,5.997
-56.0,2.0,5.998
-52.0,6.0,5.999
-45.0,7.0,6.0
-30.0,-5.0,6.001
-12.0,-16.0,6.002
14.0,-25.0,6.003
24.0,-35.0,6.004
-21.0,-43.0,6.005
-45.0,-47.0,6.006
-7.0,-37.0,6.007
34.0,-23.0,6.008
86.0,5.0,6.009
111.0,30.0,6.01
55.0,45.0,6.011
14.0,52.0,6.012
20.0,34.0,6.013
22.0,16.0,6.014
6.0,0.0,6.015
4.0,-8.0,6.016
48.0,12.0,6.017
87.0,28.0,6.018
82.0,23.0,6.019
31.0,20.0,6.02
-19.0,25.0,6.021
-34.0,29.0,6.022
-9.0,18.0,6.023
21.0,7.0,6.024
29.0,6.0,6.025
29.0,9.0,6.026
47.0,8.0,6.027
69.0,9.0,6.028
44.0,19.0,6.029
-23.0,26.0,6.03
-60.0,21.0,6.031
-38.0,12.0,6.032
-6.0,9.0,6.033
-8.0,13.0,6.034
-14.0,23.0,6.035
24.0,36.0,6.036
82.0,41.0,6.037
103.0,23.0,6.038
66.0,-9.0,6.039
11.0,-28.0,6.04
-11.0,-26.0,6.041
7.0,-9.0,6.042
38.0,1.0,6.043
51.0,3.0,6.044
41.0,0.0,6.045
14.0,-3.0,6.046
-22.0,-10.0,6.047
-57.0,-20.0,6.048
-83.0,-36.0,6.049
-88.0,-53.0,6.05
-79.0,-60.0,6.051
-66.0,-45.0,6.052
-49.0,-13.0,6.053
-31.0,14.0,6.054
-22.0,23.0,6.055
-31.0,22.0,6.056
-37.0,32.0,6.057
-22.0,49.0,6.058
6.0,54.0,6.059
20.0,40.0,6.06
13.0,15.0,6.061
3.0,-9.0,6.062
-3.0,-32.0,6.063
-21.0,-48.0,6.064
-50.0,-52.0,6.065
-61.0,-52.0,6.066
-37.0,-52.0,6.067
-3.0,-42.0,6.068
4.0,-18.0,6.069
-19.0,-3.0,6.07
-37.0,-18.0,6.071
-18.0,-46.0,6.072
27.0,-55.0,6.073
67.0,-51.0,6.074
89.0,-57.0,6.075
98.0,-63.0,6.076
89.0,-44.0,6.077
41.0,-3.0,6.078
-22.0,30.0,6.079
-48.0,37.0,6.08
-13.0,33.0,6.081
41.0,44.0,6.082
53.0,60.0,6.083
12.0,62.0,6.084
-43.0,49.0,6.085
-56.0,44.0,6.086
-14.0,60.0,6.087
47.0,80.0,6.088
65.0,74.0,6.089
30.0,43.0,6.09
-5.0,15.0,6.091
11.0,7.0,6.092
67.0,2.0,6.093
111.0,-19.0,6.094
118.0,-51.0,6.095
75.0,-69.0,6.096
-5.0,-66.0,6.097
-92.0,-58.0,6.098
-116.0,-47.0,6.099
-60.0,-31.0,6.1
9.0,-21.0,6.101
28.0,-23.0,6.102
11.0,-28.0,6.103
4.0,-13.0,6.104
3.0,26.0,6.105
-22.0,59.0,6.106
-69.0,62.0,6.107
-101.0,46.0,6.108
-103.0,35.0,6.109
-79.0,26.0,6.11
-37.0,8.0,6.111
21.0,-1.0,6.112
83.0,15.0,6.113
134.0,38.0,6.114
160.0,30.0,6.115
145.0,-8.0,6.116
97.0,-35.0,6.117
41.0,-37.0,6.118
3.0,-34.0,6.119
-23.0,-52.0,6.12
-64.0,-78.0,6.121
-110.0,-80.0,6.122
-128.0,-58.0,6.123
-106.0,-28.0,6.124
-71.0,-4.0,6.125
-42.0,1.0,6.126
-3.0,-8.0,6.127
59.0,-13.0,6.128
118.0,14.0,6.129
137.0,66.0,6.13
111.0,100.0,6.131
78.0,97.0,6.132
73.0,81.0,6.133
89.0,79.0,6.134
96.0,78.0,6.135
69.0,63.0,6.136
11.0,47.0,6.137
-74.0,34.0,6.138
-158.0,17.0,6.139
-190.0,-4.0,6.14
-133.0,-17.0,6.141
-24.0,-23.0,6.142
40.0,-52.0,6.143
0.0,-102.0,6.144
-98.0,-134.0,6.145
-148.0,-125.0,6.146
-94.0,-93.0,6.147
22.0,-62.0,6.148
116.0,-31.0,6.149
121.0,-3.0,6.15
39.0,10.0,6.151
-56.0,3.0,6.152
-90.0,-1.0,6.153
-57.0,9.0,6.154
-22.0,18.0,6.155
-31.0,9.0,6.156
-60.0,-12.0,6.157
-76.0,-24.0,6.158
-74.0,-17.0,6.159
-64.0,-7.0,6.16
-30.0,6.0,6.161
12.0,21.0,6.162
81.0,35.0,6.163
140.0,48.0,6.164
165.0,58.0,6.165
161.0,63.0,6.166
66.0,46.0,6.167
-6.0,26.0,6.168
-12.0,-1.0,6.169
-11.0,-23.0,6.17
14.0,-29.0,6.171
24.0,-33.0,6.172
-9.0,-30.0,6.173
-34.0,-27.0,6.174
-30.0,-25.0,6.175
-18.0,-20.0,6.176
15.0,-2.0,6.177
54.0,15.0,6.178
90.0,30.0,6.179
88.0,44.0,6.18
59.0,59.0,6.181
25.0,64.0,6.182
-3.0,48.0,6.183
-13.0,17.0,6.184
4.0,-8.0,6.185
39.0,-13.0,6.186
72.0,-8.0,6.187
89.0,-6.0,6.188
81.0,-10.0,6.189
43.0,-10.0,6.19
-14.0,-3.0,6.191
-56.0,3.0,6.192
-58.0,0.0,6.193
-29.0,-12.0,6.194
7.0,-22.0,6.195
34.0,-21.0,6.196
45.0,-11.0,6.197
28.0,-8.0,6.198
-13.0,-11.0,6.199
-60.0,-12.0,6.2
-89.0,-4.0,6.201
-98.0,17.0,6.202
-100.0,31.0,6.203
-99.0,24.0,6.204
-88.0,-3.0,6.205
-59.0,-31.0,6.206
-22.0,-43.0,6.207
9.0,-36.0,6.208
28.0,-23.0,6.209
35.0,-17.0,6.21
33.0,-10.0,6.211
29.0,20.0,6.212
29.0,62.0,6.213
35.0,83.0,6.214
38.0,65.0,6.215
21.0,22.0,6.216
-7.0,-5.0,6.217
-24.0,-11.0,6.218
-7.0,-12.0,6.219
14.0,-28.0,6.22
-4.0,-56.0,6.221
-52.0,-68.0,6.222
-73.0,-62.0,6.223
-47.0,-58.0,6.224
-20.0,-67.0,6.225
-24.0,-70.0,6.226
-31.0,-42.0,6.227
-12.0,3.0,6.228
15.0,36.0,6.229
18.0,42.0,6.23
20.0,32.0,6.231
52.0,17.0,6.232
99.0,7.0,6.233
113.0,0.0,6.234
88.0,-3.0,6.235
59.0,-8.0,6.236
51.0,-13.0,6.237
51.0,-8.0,6.238
49.0,5.0,6.239
40.0,16.0,6.24
11.0,14.0,6.241
-14.0,20.0,6.242
-28.0,52.0,6.243
-37.0,71.0,6.244
-28.0,53.0,6.245
-20.0,36.0,6.246
-16.0,22.0,6.247
-9.0,12.0,6.248
4.0,10.0,6.249
21.0,9.0,6.25
45.0,13.0,6.251
61.0,15.0,6.252
51.0,11.0,6.253
31.0,5.0,6.254
-19.0,0.0,6.255
-57.0,-7.0,6.256
-53.0,-12.0,6.257
-47.0,-20.0,6.258
-44.0,-32.0,6.259
-37.0,-39.0,6.26
-32.0,-47.0,6.261
-40.0,-49.0,6.262
-48.0,-46.0,6.263
-35.0,-42.0,6.264
-9.0,-34.0,6.265
5.0,-15.0,6.266
13.0,13.0,6.267
28.0,29.0,6.268
44.0,28.0,6.269
33.0,18.0,6.27
-2.0,12.0,6.271
-23.0,0.0,6.272
-6.0,-12.0,6.273
29.0,-14.0,6.274
44.0,-8.0,6.275
31.0,-6.0,6.276
12.0,-7.0,6.277
-2.0,-2.0,6.278
-9.0,11.0,6.279
-17.0,17.0,6.28
-20.0,8.0,6.281
-18.0,2.0,6.282
-14.0,2.0,6.283
-16.0,0.0,6.284
-26.0,-4.0,6.285
-35.0,2.0,6.286
-37.0,14.0,6.287
-34.0,14.0,6.288
-27.0,3.0,6.289
-18.0,2.0,6.29
-8.0,12.0,6.291
1.0,11.0,6.292
12.0,-2.0,6.293
30.0,-11.0,6.294
49.0,-11.0,6.295
56.0,-12.0,6.296
47.0,-19.0,6.297
23.0,-22.0,6.298
0.0,-12.0,6.299
-6.0,-1.0,6.3
10.0,-1.0,6.301
33.0,0.0,6.302
53.0,13.0,6.303
67.0,32.0,6.304
67.0,37.0,6.305
46.0,21.0,6.306
19.0,-3.0,6.307
7.0,-16.0,6.308
12.0,-13.0,6.309
13.0,-5.0,6.31
2.0,-2.0,6.311
-3.0,-7.0,6.312
-2.0,-11.0,6.313
-11.0,-11.0,6.314
-31.0,-8.0,6.315
-45.0,-8.0,6.316
-44.0,-7.0,6.317
-40.0,-7.0,6.318
-38.0,-4.0,6.319
-33.0,-4.0,6.32
-15.0,-8.0,6.321
1.0,-11.0,6.322
15.0,-8.0,6.323
28.0,-2.0,6.324
32.0,4.0,6.325
42.0,12.0,6.326
70.0,21.0,6.327
91.0,26.0,6.328
87.0,22.0,6.329
75.0,17.0,6.33
40.0,13.0,6.331
3.0,8.0,6.332
-35.0,0.0,6.333
-72.0,-9.0,6.334
-104.0,-15.0,6.335
-119.0,-13.0,6.336
-83.0,-3.0,6.337
-54.0,4.0,6.338
-57.0,1.0,6.339
-59.0,-10.0,6.34
-51.0,-19.0,6.341
-49.0,-18.0,6.342
-48.0,-14.0,6.343
-21.0,-9.0,6.344
25.0,-4.0,6.345
48.0,1.0,6.346
33.0,0.0,6.347
12.0,-10.0,6.348
12.0,-17.0,6.349
26.0,-12.0,6.35
37.0,0.0,6.351
39.0,14.0,6.352
37.0,22.0,6.353
29.0,26.0,6.354
19.0,29.0,6.355
22.0,29.0,6.356
38.0,29.0,6.357
52.0,22.0,6.358
44.0,9.0,6.359
17.0,-5.0,6.36
-8.0,-19.0,6.361
-18.0,-28.0,6.362
-18.0,-35.0,6.363
-21.0,-36.0,6.364
-32.0,-24.0,6.365
-39.0,-10.0,6.366
-34.0,-6.0,6.367
-27.0,-16.0,6.368
-24.0,-24.0,6.369
-20.0,-18.0,6.37
-4.0,-4.0,6.371
18.0,7.0,6.372
34.0,13.0,6.373
45.0,21.0,6.374
54.0,27.0,6.375
54.0,27.0,6.376
40.0,21.0,6.377
-12.0,14.0,6.378
-5.0,12.0,6.379
1.0,9.0,6.38
1.0,3.0,6.381
-1.0,0.0,6.382
-10.0,5.0,6.383
-14.0,11.0,6.384
-7.0,12.0,6.385
-5.0,12.0,6.386
-20.0,8.0,6.387
-32.0,4.0,6.388
-44.0,0.0,6.389
-51.0,-4.0,6.39
-47.0,-6.0,6.391
-40.0,-9.0,6.392
-27.0,-11.0,6.393
-21.0,-13.0,6.394
-32.0,-9.0,6.395
-39.0,-5.0,6.396
-35.0,-2.0,6.397
10.0,0.0,6.398
32.0,-6.0,6.399
50.0,-12.0,6.4
49.0,-12.0,6.401
42.0,-4.0,6.402
17.0,0.0,6.403
3.0,0.0,6.404
25.0,-2.0,6.405
31.0,-3.0,6.406
-13.0,-9.0,6.407
-54.0,-13.0,6.408
-90.0,-7.0,6.409
-113.0,3.0,6.41
-99.0,2.0,6.411
-79.0,-12.0,6.412
-40.0,-22.0,6.413
-18.0,-20.0,6.414
-53.0,-16.0,6.415
-76.0,-15.0,6.416
-62.0,-9.0,6.417
-43.0,-3.0,6.418
-24.0,0.0,6.419
-14.0,-4.0,6.42
9.0,-6.0,6.421
38.0,5.0,6.422
55.0,14.0,6.423
58.0,18.0,6.424
53.0,21.0,6.425
42.0,23.0,6.426
35.0,19.0,6.427
40.0,13.0,6.428
48.0,13.0,6.429
41.0,19.0,6.43
26.0,19.0,6.431
17.0,11.0,6.432
18.0,5.0,6.433
13.0,4.0,6.434
3.0,1.0,6.435
3.0,-4.0,6.436
15.0,-7.0,6.437
19.0,-10.0,6.438
7.0,-12.0,6.439
-8.0,-16.0,6.44
-10.0,-22.0,6.441
6.0,-22.0,6.442
32.0,-19.0,6.443
56.0,-13.0,6.444
64.0,-2.0,6.445
48.0,6.0,6.446
21.0,8.0,6.447
0.0,4.0,6.448
-11.0,0.0,6.449
-23.0,-2.0,6.45
-34.0,-4.0,6.451
-41.0,-7.0,6.452
-46.0,-11.0,6.453
-52.0,-17.0,6.454
-47.0,-19.0,6.455
-26.0,-14.0,6.456
-3.0,-4.0,6.457
5.0,3.0,6.458
3.0,4.0,6.459
0.0,2.0,6.46
0.0,0.0,6.461
3.0,4.0,6.462
10.0,9.0,6.463
18.0,9.0,6.464
19.0,11.0,6.465
13.0,12.0,6.466
10.0,11.0,6.467
20.0,5.0,6.468
34.0,3.0,6.469
35.0,5.0,6.47
25.0,5.0,6.471
9.0,0.0,6.472
-4.0,-2.0,6.473
-9.0,2.0,6.474
-2.0,4.0,6.475
8.0,-1.0,6.476
11.0,-6.0,6.477
3.0,-5.0,6.478
-2.0,0.0,6.479
-6.0,4.0,6.48
-2.0,-1.0,6.481
1.0,-3.0,6.482
-4.0,2.0,6.483
-10.0,6.0,6.484
-20.0,3.0,6.485
-29.0,0.0,6.486
-29.0,1.0,6.487
-28.0,2.0,6.488
-23.0,-2.0,6.489
-17.0,-6.0,6.49
-8.0,-6.0,6.491
0.0,-5.0,6.492
8.0,-5.0,6.493
20.0,-5.0,6.494
47.0,-8.0,6.495
70.0,-11.0,6.496
79.0,-12.0,6.497
86.0,-14.0,6.498
71.0,-11.0,6.499
31.0,-3.0,6.5
-17.0,3.0,6.501
-39.0,6.0,6.502
-20.0,8.0,6.503
3.0,13.0,6.504
-11.0,18.0,6.505
-53.0,19.0,6.506
-72.0,16.0,6.507
-48.0,16.0,6.508
-15.0,11.0,6.509
-14.0,-9.0,6.51
-32.0,-38.0,6.511
-40.0,-53.0,6.512
-34.0,-43.0,6.513
-35.0,-23.0,6.514
-39.0,-11.0,6.515
-24.0,-9.0,6.516
3.0,-5.0,6.517
14.0,6.0,6.518
-1.0,14.0,6.519
-13.0,11.0,6.52
6.0,0.0,6.521
38.0,-2.0,6.522
56.0,7.0,6.523
64.0,21.0,6.524
77.0,32.0,6.525
88.0,40.0,6.526
77.0,42.0,6.527
38.0,31.0,6.528
-6.0,6.0,6.529
-33.0,-13.0,6.53
-38.0,-21.0,6.531
-35.0,-18.0,6.532
-36.0,-17.0,6.533
-42.0,-17.0,6.534
-39.0,-12.0,6.535
-20.0,-5.0,6.536
2.0,-3.0,6.537
13.0,-9.0,6.538
12.0,-12.0,6.539
11.0,-10.0,6.54
15.0,-11.0,6.541
18.0,-11.0,6.542
21.0,-6.0,6.543
28.0,2.0,6.544
34.0,5.0,6.545
36.0,2.0,6.546
31.0,-3.0,6.547
26.0,-1.0,6.548
22.0,8.0,6.549
10.0,17.0,6.55
-3.0,19.0,6.551
-5.0,16.0,6.552
1.0,10.0,6.553
4.0,3.0,6.554
0.0,-6.0,6.555
-8.0,-14.0,6.556
-8.0,-16.0,6.557
-7.0,-16.0,6.558
-3.0,-14.0,6.559
2.0,-11.0,6.56
14.0,-5.0,6.561
22.0,5.0,6.562
25.0,12.0,6.563
25.0,13.0,6.564
24.0,15.0,6.565
18.0,15.0,6.566
-3.0,9.0,6.567
-30.0,-2.0,6.568
-48.0,-5.0,6.569
-45.0,-5.0,6.57
-25.0,-8.0,6.571
3.0,-15.0,6.572
26.0,-18.0,6.573
25.0,-13.0,6.574
-7.0,-9.0,6.575
-53.0,-6.0,6.576
-70.0,-1.0,6.577
-50.0,2.0,6.578
-21.0,0.0,6.579
-19.0,-6.0,6.58
-24.0,-10.0,6.581
-12.0,-3.0,6.582
27.0,8.0,6.583
75.0,13.0,6.584
107.0,14.0,6.585
102.0,14.0,6.586
50.0,13.0,6.587
-20.0,12.0,6.588
-63.0,12.0,6.589
-57.0,7.0,6.59
-28.0,0.0,6.591
-6.0,-7.0,6.592
0.0,-14.0,6.593
-3.0,-19.0,6.594
-12.0,-19.0,6.595
-14.0,-12.0,6.596
-4.0,0.0,6.597
6.0,3.0,6.598
0.0,-5.0,6.599
-18.0,-18.0,6.6
-21.0,-23.0,6.601
-3.0,-17.0,6.602
14.0,-8.0,6.603
18.0,-7.0,6.604
16.0,-4.0,6.605
15.0,4.0,6.606
17.0,13.0,6.607
15.0,14.0,6.608
14.0,11.0,6.609
13.0,10.0,6.61
9.0,9.0,6.611
7.0,9.0,6.612
12.0,9.0,6.613
18.0,14.0,6.614
19.0,21.0,6.615
19.0,24.0,6.616
23.0,18.0,6.617
31.0,7.0,6.618
37.0,-2.0,6.619
29.0,-5.0,6.62
7.0,-8.0,6.621
-13.0,-11.0,6.622
-18.0,-14.0,6.623
-1.0,-8.0,6.624
23.0,3.0,6.625
41.0,8.0,6.626
41.0,3.0,6.627
33.0,2.0,6.628
16.0,12.0,6.629
1.0,25.0,6.63
6.0,20.0,6.631
31.0,4.0,6.632
42.0,-9.0,6.633
10.0,-12.0,6.634
-45.0,-14.0,6.635
-72.0,-15.0,6.636
-60.0,-11.0,6.637
-40.0,-6.0,6.638
-32.0,-5.0,6.639
-30.0,-12.0,6.64
-24.0,-19.0,6.641
-28.0,-18.0,6.642
-55.0,-17.0,6.643
-79.0,-15.0,6.644
-77.0,-6.0,6.645
-57.0,9.0,6.646
-32.0,14.0,6.647
-6.0,-4.0,6.648
14.0,-22.0,6.649
17.0,-19.0,6.65
5.0,1.0,6.651
1.0,11.0,6.652
15.0,5.0,6.653
30.0,-3.0,6.654
30.0,-3.0,6.655
28.0,2.0,6.656
32.0,5.0,6.657
41.0,6.0,6.658
45.0,10.0,6.659
36.0,10.0,6.66
26.0,-1.0,6.661
20.0,-5.0,6.662
23.0,3.0,6.663
27.0,13.0,6.664
26.0,12.0,6.665
15.0,5.0,6.666
6.0,0.0,6.667
16.0,-2.0,6.668
44.0,-2.0,6.669
75.0,1.0,6.67
96.0,5.0,6.671
99.0,7.0,6.672
80.0,9.0,6.673
40.0,11.0,6.674
-6.0,17.0,6.675
-39.0,16.0,6.676
-51.0,11.0,6.677
-53.0,2.0,6.678
-62.0,-5.0,6.679
-87.0,-14.0,6.68
-108.0,-27.0,6.681
-92.0,-24.0,6.682
-28.0,-8.0,6.683
58.0,6.0,6.684
124.0,8.0,6.685
142.0,4.0,6.686
107.0,0.0,6.687
27.0,-4.0,6.688
-65.0,-3.0,6.689
-111.0,5.0,6.69
-90.0,9.0,6.691
-52.0,-6.0,6.692
-69.0,-31.0,6.693
-144.0,-44.0,6.694
-195.0,-42.0,6.695
-169.0,-42.0,6.696
-102.0,-47.0,6.697
-54.0,-50.0,6.698
-33.0,-33.0,6.699
-5.0,-7.0,6.7
39.0,10.0,6.701
70.0,18.0,6.702
69.0,19.0,6.703
62.0,22.0,6.704
65.0,25.0,6.705
66.0,20.0,6.706
59.0,10.0,6.707
63.0,5.0,6.708
86.0,14.0,6.709
100.0,32.0,6.71
87.0,39.0,6.711
66.0,32.0,6.712
56.0,19.0,6.713
52.0,13.0,6.714
41.0,12.0,6.715
28.0,10.0,6.716
22.0,7.0,6.717
21.0,1.0,6.718
14.0,-2.0,6.719
2.0,-6.0,6.72
-8.0,-15.0,6.721
-14.0,-18.0,6.722
-17.0,-16.0,6.723
-16.0,-11.0,6.724
-13.0,-7.0,6.725
-12.0,-3.0,6.726
-8.0,2.0,6.727
0.0,6.0,6.728
8.0,4.0,6.729
11.0,2.0,6.73
7.0,7.0,6.731
1.0,20.0,6.732
0.0,31.0,6.733
22.0,26.0,6.734
72.0,10.0,6.735
130.0,-4.0,6.736
149.0,-5.0,6.737
95.0,-4.0,6.738
-4.0,-3.0,6.739
-92.0,-2.0,6.74
-142.0,-4.0,6.741
-163.0,-8.0,6.742
-153.0,-18.0,6.743
-90.0,-24.0,6.744
6.0,-13.0,6.745
75.0,0.0,6.746
85.0,3.0,6.747
60.0,-5.0,6.748
27.0,-7.0,6.749
-21.0,-3.0,6.75
-75.0,-6.0,6.751
-87.0,-13.0,6.752
-40.0,-17.0,6.753
8.0,-17.0,6.754
4.0,-20.0,6.755
-30.0,-26.0,6.756
-40.0,-24.0,6.757
-30.0,-22.0,6.758
-35.0,-20.0,6.759
-59.0,-15.0,6.76
-70.0,-4.0,6.761
-56.0,5.0,6.762
-34.0,-1.0,6.763
-15.0,-11.0,6.764
-1.0,-9.0,6.765
0.0,-7.0,6.766
-8.0,-17.0,6.767
-12.0,-27.0,6.768
-7.0,-11.0,6.769
-7.0,25.0,6.77
-13.0,45.0,6.771
-9.0,37.0,6.772
4.0,13.0,6.773
10.0,-8.0,6.774
8.0,-18.0,6.775
22.0,-9.0,6.776
48.0,10.0,6.777
67.0,24.0,6.778
71.0,16.0,6.779
78.0,4.0,6.78
96.0,9.0,6.781
107.0,26.0,6.782
98.0,28.0,6.783
82.0,14.0,6.784
65.0,9.0,6.785
44.0,13.0,6.786
21.0,7.0,6.787
11.0,-9.0,6.788
15.0,-14.0,6.789
14.0,-4.0,6.79
-2.0,6.0,6.791
-13.0,4.0,6.792
3.0,3.0,6.793
34.0,8.0,6.794
44.0,5.0,6.795
15.0,-4.0,6.796
-28.0,-7.0,6.797
-57.0,1.0,6.798
-60.0,13.0,6.799
-57.0,16.0,6.8
-54.0,7.0,6.801
-34.0,-1.0,6.802
3.0,-7.0,6.803
30.0,-6.0,6.804
23.0,-3.0,6.805
4.0,-3.0,6.806
10.0,-11.0,6.807
36.0,-19.0,6.808
44.0,-20.0,6.809
27.0,-15.0,6.81
9.0,-12.0,6.811
2.0,-10.0,6.812
-11.0,0.0,6.813
-39.0,11.0,6.814
-63.0,9.0,6.815
-67.0,-6.0,6.816
-58.0,-19.0,6.817
-52.0,-24.0,6.818
-46.0,-23.0,6.819
-33.0,-19.0,6.82
-12.0,-20.0,6.821
6.0,-15.0,6.822
16.0,-6.0,6.823
17.0,4.0,6.824
13.0,14.0,6.825
14.0,23.0,6.826
19.0,27.0,6.827
16.0,21.0,6.828
0.0,11.0,6.829
-13.0,2.0,6.83
-7.0,0.0,6.831
5.0,0.0,6.832
7.0,-5.0,6.833
5.0,-11.0,6.834
20.0,-13.0,6.835
54.0,-7.0,6.836
83.0,2.0,6.837
85.0,9.0,6.838
54.0,12.0,6.839
-3.0,14.0,6.84
-55.0,14.0,6.841
-70.0,9.0,6.842
-43.0,-3.0,6.843
-11.0,-16.0,6.844
-16.0,-19.0,6.845
-47.0,-16.0,6.846
-68.0,-14.0,6.847
-62.0,-8.0,6.848
-42.0,0.0,6.849
-19.0,6.0,6.85
12.0,4.0,6.851
42.0,1.0,6.852
51.0,2.0,6.853
36.0,-2.0,6.854
24.0,-12.0,6.855
22.0,-17.0,6.856
26.0,-7.0,6.857
26.0,7.0,6.858
26.0,10.0,6.859
27.0,0.0,6.86
27.0,-9.0,6.861
28.0,-5.0,6.862
34.0,3.0,6.863
32.0,7.0,6.864
20.0,5.0,6.865
17.0,2.0,6.866
40.0,-1.0,6.867
72.0,0.0,6.868
80.0,7.0,6.869
57.0,16.0,6.87
30.0,23.0,6.871
11.0,28.0,6.872
-14.0,37.0,6.873
-50.0,42.0,6.874
-83.0,26.0,6.875
-95.0,-6.0,6.876
-91.0,-26.0,6.877
-82.0,-33.0,6.878
-69.0,-36.0,6.879
-54.0,-46.0,6.88
-44.0,-55.0,6.881
-45.0,-44.0,6.882
-44.0,-24.0,6.883
-23.0,-8.0,6.884
7.0,6.0,6.885
29.0,26.0,6.886
38.0,37.0,6.887
42.0,25.0,6.888
44.0,2.0,6.889
42.0,-7.0,6.89
39.0,0.0,6.891
39.0,9.0,6.892
34.0,11.0,6.893
18.0,10.0,6.894
5.0,14.0,6.895
9.0,15.0,6.896
17.0,8.0,6.897
9.0,-6.0,6.898
-4.0,-20.0,6.899
-4.0,-32.0,6.9
7.0,-40.0,6.901
9.0,-37.0,6.902
-2.0,-24.0,6.903
-12.0,-10.0,6.904
-20.0,-4.0,6.905
-25.0,-1.0,6.906
-17.0,5.0,6.907
6.0,14.0,6.908
24.0,16.0,6.909
23.0,11.0,6.91
28.0,13.0,6.911
51.0,22.0,6.912
63.0,25.0,6.913
37.0,18.0,6.914
6.0,15.0,6.915
11.0,27.0,6.916
38.0,37.0,6.917
44.0,34.0,6.918
25.0,22.0,6.919
8.0,15.0,6.92
6.0,9.0,6.921
1.0,-4.0,6.922
-16.0,-18.0,6.923
-31.0,-27.0,6.924
-37.0,-34.0,6.925
-37.0,-44.0,6.926
-29.0,-44.0,6.927
-19.0,-25.0,6.928
-21.0,-4.0,6.929
-50.0,-4.0,6.93
-85.0,-17.0,6.931
-96.0,-18.0,6.932
-76.0,-5.0,6.933
-37.0,-7.0,6.934
13.0,-28.0,6.935
58.0,-46.0,6.936
76.0,-39.0,6.937
48.0,-16.0,6.938
-4.0,3.0,6.939
-38.0,10.0,6.94
-25.0,12.0,6.941
19.0,18.0,6.942
64.0,21.0,6.943
94.0,19.0,6.944
100.0,27.0,6.945
68.0,52.0,6.946
-5.0,72.0,6.947
-82.0,61.0,6.948
-107.0,26.0,6.949
-72.0,-2.0,6.95
-32.0,-13.0,6.951
-33.0,-23.0,6.952
-49.0,-40.0,6.953
-33.0,-51.0,6.954
0.0,-51.0,6.955
14.0,-43.0,6.956
12.0,-30.0,6.957
20.0,-15.0,6.958
41.0,-1.0,6.959
50.0,9.0,6.96
50.0,15.0,6.961
57.0,30.0,6.962
60.0,36.0,6.963
42.0,23.0,6.964
25.0,-1.0,6.965
42.0,-11.0,6.966
75.0,-6.0,6.967
75.0,1.0,6.968
34.0,2.0,6.969
0.0,3.0,6.97
-5.0,9.0,6.971
4.0,15.0,6.972
6.0,13.0,6.973
8.0,5.0,6.974
22.0,2.0,6.975
28.0,4.0,6.976
13.0,2.0,6.977
-17.0,-12.0,6.978
-28.0,-25.0,6.979
-4.0,-23.0,6.98
38.0,-20.0,6.981
54.0,-22.0,6.982
11.0,-19.0,6.983
-81.0,0.0,6.984
-157.0,25.0,6.985
-163.0,29.0,6.986
-104.0,9.0,6.987
-31.0,-5.0,6.988
21.0,0.0,6.989
54.0,7.0,6.99
84.0,1.0,6.991
107.0,-9.0,6.992
100.0,-17.0,6.993
53.0,-32.0,6.994
-16.0,-48.0,6.995
-73.0,-42.0,6.996
-90.0,-11.0,6.997
-70.0,20.0,6.998
-20.0,23.0,6.999
59.0,8.0,7.0
147.0,6.0,7.001
176.0,30.0,7.002
100.0,47.0,7.003
-42.0,39.0,7.004
-145.0,25.0,7.005
-156.0,23.0,7.006
-120.0,24.0,7.007
-106.0,6.0,7.008
-111.0,-23.0,7.009
-108.0,-43.0,7.01
-99.0,-46.0,7.011
-101.0,-44.0,7.012
-82.0,-47.0,7.013
-6.0,-38.0,7.014
102.0,-9.0,7.015
176.0,19.0,7.016
191.0,33.0,7.017
162.0,28.0,7.018
118.0,24.0,7.019
73.0,27.0,7.02
59.0,21.0,7.021
71.0,8.0,7.022
52.0,-4.0,7.023
-28.0,-11.0,7.024
-113.0,-15.0,7.025
-125.0,-18.0,7.026
-76.0,-19.0,7.027
-30.0,-12.0,7.028
-5.0,-1.0,7.029
23.0,10.0,7.03
49.0,17.0,7.031
53.0,12.0,7.032
45.0,-1.0,7.033
46.0,-10.0,7.034
45.0,-10.0,7.035
17.0,-6.0,7.036
-22.0,-5.0,7.037
-42.0,-8.0,7.038
-33.0,-6.0,7.039
-15.0,-5.0,7.04
-4.0,-8.0,7.041
7.0,-5.0,7.042
28.0,5.0,7.043
63.0,15.0,7.044
97.0,16.0,7.045
95.0,12.0,7.046
35.0,8.0,7.047
-52.0,6.0,7.048
-102.0,1.0,7.049
-79.0,-1.0,7.05
-17.0,-3.0,7.051
31.0,-2.0,7.052
38.0,0.0,7.053
24.0,9.0,7.054
15.0,16.0,7.055
18.0,16.0,7.056
16.0,10.0,7.057
-11.0,5.0,7.058
-49.0,6.0,7.059
-58.0,7.0,7.06
-24.0,2.0,7.061
18.0,-2.0,7.062
42.0,-5.0,7.063
55.0,-3.0,7.064
64.0,0.0,7.065
53.0,-6.0,7.066
18.0,-16.0,7.067
-8.0,-22.0,7.068
-2.0,-16.0,7.069
5.0,-9.0,7.07
-20.0,-11.0,7.071
-68.0,-17.0,7.072
-100.0,-15.0,7.073
-97.0,-6.0,7.074
-64.0,1.0,7.075
-19.0,0.0,7.076
16.0,-8.0,7.077
18.0,-22.0,7.078
-11.0,-30.0,7.079
-35.0,-24.0,7.08
-7.0,-9.0,7.081
75.0,2.0,7.082
153.0,4.0,7.083
166.0,5.0,7.084
130.0,16.0,7.085
97.0,35.0,7.086
83.0,44.0,7.087
49.0,37.0,7.088
-32.0,19.0,7.089
-124.0,-1.0,7.09
-184.0,-22.0,7.091
-214.0,-42.0,7.092
-228.0,-51.0,7.093
-202.0,-44.0,7.094
-112.0,-27.0,7.095
-14.0,-10.0,7.096
9.0,-3.0,7.097
-44.0,2.0,7.098
-84.0,8.0,7.099
-57.0,10.0,7.1
-9.0,7.0,7.101
12.0,4.0,7.102
29.0,5.0,7.103
65.0,7.0,7.104
97.0,13.0,7.105
108.0,19.0,7.106
126.0,12.0,7.107
154.0,-8.0,7.108
144.0,-20.0,7.109
85.0,-7.0,7.11
40.0,21.0,7.111
56.0,34.0,7.112
87.0,27.0,7.113
82.0,22.0,7.114
54.0,25.0,7.115
36.0,23.0,7.116
24.0,13.0,7.117
1.0,4.0,7.118
-12.0,-1.0,7.119
-4.0,-12.0,7.12
8.0,-28.0,7.121
7.0,-33.0,7.122
16.0,-22.0,7.123
42.0,-8.0,7.124
47.0,-2.0,7.125
3.0,2.0,7.126
-63.0,6.0,7.127
-109.0,5.0,7.128
-121.0,-1.0,7.129
-108.0,-1.0,7.13
-71.0,3.0,7.131
-13.0,2.0,7.132
52.0,-6.0,7.133
119.0,-7.0,7.134
170.0,8.0,7.135
169.0,29.0,7.136
99.0,39.0,7.137
-21.0,33.0,7.138
-116.0,13.0,7.139
-150.0,-10.0,7.14
-155.0,-28.0,7.141
-179.0,-30.0,7.142
-213.0,-23.0,7.143
-197.0,-25.0,7.144
-114.0,-36.0,7.145
-24.0,-43.0,7.146
10.0,-38.0,7.147
13.0,-24.0,7.148
42.0,-14.0,7.149
87.0,-9.0,7.15
100.0,-7.0,7.151
105.0,0.0,7.152
165.0,11.0,7.153
252.0,25.0,7.154
247.0,36.0,7.155
117.0,43.0,7.156
-8.0,49.0,7.157
-30.0,46.0,7.158
43.0,32.0,7.159
95.0,13.0,7.16
59.0,0.0,7.161
-39.0,-4.0,7.162
-124.0,-11.0,7.163
-150.0,-31.0,7.164
-123.0,-45.0,7.165
-95.0,-42.0,7.166
-103.0,-25.0,7.167
-124.0,-10.0,7.168
-110.0,-6.0,7.169
-65.0,-11.0,7.17
-31.0,-20.0,7.171
-29.0,-27.0,7.172
-32.0,-20.0,7.173
-17.0,-5.0,7.174
15.0,0.0,7.175
44.0,-8.0,7.176
57.0,-13.0,7.177
53.0,-5.0,7.178
65.0,11.0,7.179
122.0,26.0,7.18
194.0,28.0,7.181
205.0,26.0,7.182
118.0,23.0,7.183
-17.0,30.0,7.184
-135.0,52.0,7.185
-208.0,72.0,7.186
-203.0,65.0,7.187
-101.0,32.0,7.188
38.0,0.0,7.189
88.0,-13.0,7.19
13.0,-20.0,7.191
-74.0,-27.0,7.192
-64.0,-30.0,7.193
13.0,-22.0,7.194
68.0,-4.0,7.195
85.0,14.0,7.196
104.0,25.0,7.197
122.0,22.0,7.198
96.0,5.0,7.199
29.0,-7.0,7.2
-25.0,-14.0,7.201
-44.0,-21.0,7.202
-49.0,-36.0,7.203
-55.0,-43.0,7.204
-45.0,-33.0,7.205
-11.0,-17.0,7.206
13.0,-15.0,7.207
6.0,-27.0,7.208
-8.0,-34.0,7.209
3.0,-30.0,7.21
39.0,-28.0,7.211
66.0,-26.0,7.212
68.0,-15.0,7.213
49.0,9.0,7.214
17.0,38.0,7.215
-19.0,54.0,7.216
-29.0,58.0,7.217
15.0,51.0,7.218
108.0,42.0,7.219
168.0,35.0,7.22
125.0,21.0,7.221
7.0,0.0,7.222
-87.0,-22.0,7.223
-113.0,-36.0,7.224
-114.0,-36.0,7.225
-124.0,-29.0,7.226
-110.0,-25.0,7.227
-36.0,-22.0,7.228
54.0,-20.0,7.229
78.0,-27.0,7.23
19.0,-44.0,7.231
-56.0,-54.0,7.232
-79.0,-45.0,7.233
-44.0,-19.0,7.234
-3.0,-1.0,7.235
3.0,1.0,7.236
-17.0,-6.0,7.237
-40.0,-26.0,7.238
-50.0,-47.0,7.239
-53.0,-45.0,7.24
-35.0,-7.0,7.241
-11.0,57.0,7.242
28.0,106.0,7.243
64.0,122.0,7.244
90.0,118.0,7.245
114.0,104.0,7.246
134.0,81.0,7.247
129.0,39.0,7.248
50.0,-2.0,7.249
5.0,-25.0,7.25
69.0,-30.0,7.251
122.0,-30.0,7.252
142.0,-37.0,7.253
120.0,-42.0,7.254
-29.0,-30.0,7.255
-139.0,-6.0,7.256
-131.0,20.0,7.257
-118.0,34.0,7.258
-117.0,38.0,7.259
-143.0,45.0,7.26
-159.0,54.0,7.261
-137.0,60.0,7.262
