Deltoid,Bicep,Time
-1.0,0.0,0.0
-3.0,-4.0,0.001
-2.0,-6.0,0.002
4.0,-5.0,0.003
12.0,-2.0,0.004
12.0,0.0,0.005
5.0,1.0,0.006
1.0,0.0,0.007
6.0,-1.0,0.008
9.0,-1.0,0.009
7.0,1.0,0.01
4.0,4.0,0.011
5.0,3.0,0.012
6.0,0.0,0.013
2.0,0.0,0.014
0.0,2.0,0.015
0.0,1.0,0.016
2.0,-2.0,0.017
-1.0,-4.0,0.018
-3.0,-1.0,0.019
-4.0,0.0,0.02
-4.0,-4.0,0.021
-6.0,-8.0,0.022
-4.0,-7.0,0.023
1.0,-1.0,0.024
2.0,4.0,0.025
-1.0,5.0,0.026
-2.0,2.0,0.027
6.0,-1.0,0.028
11.0,-1.0,0.029
6.0,1.0,0.03
0.0,3.0,0.031
-1.0,3.0,0.032
1.0,3.0,0.033
1.0,5.0,0.034
2.0,4.0,0.035
8.0,-1.0,0.036
14.0,-3.0,0.037
8.0,-2.0,0.038
0.0,0.0,0.039
-5.0,-3.0,0.04
-6.0,-8.0,0.041
-4.0,-7.0,0.042
2.0,-5.0,0.043
11.0,-3.0,0.044
12.0,-1.0,0.045
5.0,0.0,0.046
1.0,2.0,0.047
3.0,-2.0,0.048
8.0,-4.0,0.049
9.0,-1.0,0.05
6.0,1.0,0.051
5.0,0.0,0.052
3.0,-2.0,0.053
0.0,-2.0,0.054
-4.0,0.0,0.055
-5.0,1.0,0.056
-3.0,4.0,0.057
2.0,2.0,0.058
8.0,-1.0,0.059
7.0,-4.0,0.06
-2.0,-9.0,0.061
-8.0,-8.0,0.062
-2.0,-4.0,0.063
12.0,0.0,0.064
21.0,5.0,0.065
21.0,7.0,0.066
14.0,5.0,0.067
1.0,0.0,0.068
-16.0,0.0,0.069
-32.0,2.0,0.07
-34.0,3.0,0.071
-23.0,-1.0,0.072
-2.0,-4.0,0.073
17.0,-2.0,0.074
29.0,0.0,0.075
24.0,-2.0,0.076
8.0,-3.0,0.077
-5.0,-6.0,0.078
-5.0,-5.0,0.079
0.0,-6.0,0.08
1.0,-7.0,0.081
-1.0,-8.0,0.082
2.0,-5.0,0.083
13.0,-1.0,0.084
13.0,1.0,0.085
3.0,4.0,0.086
-2.0,2.0,0.087
0.0,-1.0,0.088
3.0,-3.0,0.089
1.0,-2.0,0.09
0.0,0.0,0.091
2.0,2.0,0.092
0.0,2.0,0.093
-2.0,4.0,0.094
-2.0,5.0,0.095
2.0,3.0,0.096
5.0,3.0,0.097
3.0,1.0,0.098
0.0,1.0,0.099
-4.0,1.0,0.1
-6.0,0.0,0.101
-7.0,-2.0,0.102
-3.0,-3.0,0.103
5.0,-3.0,0.104
11.0,1.0,0.105
13.0,5.0,0.106
12.0,5.0,0.107
12.0,2.0,0.108
9.0,1.0,0.109
5.0,3.0,0.11
4.0,2.0,0.111
3.0,-2.0,0.112
1.0,-1.0,0.113
1.0,1.0,0.114
2.0,3.0,0.115
3.0,1.0,0.116
4.0,3.0,0.117
2.0,3.0,0.118
0.0,2.0,0.119
-3.0,-1.0,0.12
-3.0,-6.0,0.121
-2.0,-6.0,0.122
4.0,-6.0,0.123
8.0,-4.0,0.124
6.0,0.0,0.125
2.0,6.0,0.126
2.0,5.0,0.127
5.0,1.0,0.128
9.0,-2.0,0.129
7.0,0.0,0.13
5.0,2.0,0.131
4.0,0.0,0.132
4.0,-3.0,0.133
4.0,-4.0,0.134
3.0,0.0,0.135
2.0,0.0,0.136
2.0,-1.0,0.137
0.0,-3.0,0.138
-1.0,-3.0,0.139
-3.0,0.0,0.14
-4.0,-5.0,0.141
-4.0,-9.0,0.142
0.0,-10.0,0.143
4.0,-7.0,0.144
4.0,-1.0,0.145
5.0,2.0,0.146
4.0,-1.0,0.147
3.0,-4.0,0.148
4.0,-3.0,0.149
5.0,3.0,0.15
3.0,3.0,0.151
2.0,-1.0,0.152
2.0,-4.0,0.153
3.0,-4.0,0.154
2.0,-3.0,0.155
1.0,-2.0,0.156
2.0,0.0,0.157
3.0,2.0,0.158
1.0,0.0,0.159
-2.0,0.0,0.16
-3.0,-2.0,0.161
-2.0,-1.0,0.162
2.0,-1.0,0.163
7.0,-1.0,0.164
8.0,1.0,0.165
6.0,2.0,0.166
5.0,-2.0,0.167
8.0,-6.0,0.168
11.0,-4.0,0.169
7.0,1.0,0.17
1.0,2.0,0.171
-2.0,1.0,0.172
0.0,2.0,0.173
3.0,3.0,0.174
5.0,0.0,0.175
4.0,-4.0,0.176
4.0,-3.0,0.177
1.0,0.0,0.178
-1.0,1.0,0.179
-4.0,0.0,0.18
-3.0,-2.0,0.181
0.0,-1.0,0.182
5.0,-1.0,0.183
6.0,-1.0,0.184
5.0,-1.0,0.185
4.0,0.0,0.186
5.0,0.0,0.187
7.0,-1.0,0.188
4.0,-2.0,0.189
1.0,0.0,0.19
1.0,2.0,0.191
3.0,0.0,0.192
2.0,-1.0,0.193
-1.0,-1.0,0.194
-2.0,-1.0,0.195
0.0,-1.0,0.196
1.0,-1.0,0.197
1.0,-3.0,0.198
0.0,-5.0,0.199
-3.0,-5.0,0.2
-5.0,-7.0,0.201
-5.0,-7.0,0.202
0.0,-6.0,0.203
8.0,-2.0,0.204
8.0,1.0,0.205
3.0,2.0,0.206
2.0,0.0,0.207
6.0,-2.0,0.208
7.0,-3.0,0.209
2.0,-1.0,0.21
0.0,0.0,0.211
1.0,0.0,0.212
2.0,0.0,0.213
0.0,1.0,0.214
-3.0,0.0,0.215
-2.0,-1.0,0.216
3.0,-2.0,0.217
8.0,-2.0,0.218
16.0,-3.0,0.219
20.0,-4.0,0.22
11.0,-8.0,0.221
2.0,-8.0,0.222
-4.0,-5.0,0.223
-9.0,0.0,0.224
-5.0,3.0,0.225
-1.0,4.0,0.226
0.0,3.0,0.227
3.0,0.0,0.228
1.0,-2.0,0.229
0.0,0.0,0.23
-2.0,2.0,0.231
-4.0,1.0,0.232
0.0,1.0,0.233
2.0,0.0,0.234
-2.0,-1.0,0.235
-5.0,0.0,0.236
-2.0,2.0,0.237
0.0,2.0,0.238
0.0,-1.0,0.239
0.0,-4.0,0.24
4.0,-5.0,0.241
8.0,-3.0,0.242
12.0,-1.0,0.243
15.0,1.0,0.244
14.0,2.0,0.245
9.0,2.0,0.246
3.0,0.0,0.247
2.0,0.0,0.248
5.0,0.0,0.249
3.0,-1.0,0.25
-1.0,0.0,0.251
0.0,5.0,0.252
4.0,7.0,0.253
3.0,4.0,0.254
-2.0,-1.0,0.255
-4.0,-4.0,0.256
-1.0,-1.0,0.257
3.0,2.0,0.258
0.0,2.0,0.259
-6.0,-1.0,0.26
-8.0,-6.0,0.261
-3.0,-5.0,0.262
4.0,-3.0,0.263
12.0,1.0,0.264
9.0,2.0,0.265
2.0,2.0,0.266
0.0,-2.0,0.267
5.0,-5.0,0.268
7.0,-4.0,0.269
2.0,0.0,0.27
0.0,0.0,0.271
5.0,0.0,0.272
7.0,-1.0,0.273
5.0,0.0,0.274
2.0,-1.0,0.275
5.0,-4.0,0.276
10.0,-4.0,0.277
7.0,-3.0,0.278
2.0,-1.0,0.279
-3.0,-2.0,0.28
-5.0,-5.0,0.281
-5.0,-4.0,0.282
-3.0,-4.0,0.283
3.0,-3.0,0.284
6.0,1.0,0.285
6.0,6.0,0.286
8.0,9.0,0.287
9.0,3.0,0.288
5.0,-3.0,0.289
1.0,-4.0,0.29
1.0,-2.0,0.291
3.0,0.0,0.292
2.0,2.0,0.293
-2.0,3.0,0.294
-2.0,1.0,0.295
0.0,-2.0,0.296
1.0,-1.0,0.297
1.0,0.0,0.298
4.0,0.0,0.299
6.0,-3.0,0.3
2.0,-9.0,0.301
0.0,-9.0,0.302
6.0,-7.0,0.303
11.0,-5.0,0.304
8.0,-2.0,0.305
6.0,3.0,0.306
5.0,6.0,0.307
4.0,2.0,0.308
2.0,-2.0,0.309
0.0,-3.0,0.31
-2.0,1.0,0.311
-3.0,0.0,0.312
6.0,-3.0,0.313
14.0,-2.0,0.314
18.0,1.0,0.315
17.0,2.0,0.316
1.0,1.0,0.317
-17.0,0.0,0.318
-32.0,0.0,0.319
-35.0,3.0,0.32
-27.0,0.0,0.321
-16.0,-4.0,0.322
-2.0,-5.0,0.323
9.0,-4.0,0.324
13.0,-2.0,0.325
10.0,1.0,0.326
9.0,1.0,0.327
17.0,-2.0,0.328
23.0,-3.0,0.329
17.0,-1.0,0.33
8.0,2.0,0.331
6.0,0.0,0.332
9.0,-2.0,0.333
6.0,0.0,0.334
2.0,4.0,0.335
2.0,3.0,0.336
4.0,1.0,0.337
-2.0,-1.0,0.338
-8.0,0.0,0.339
-10.0,-2.0,0.34
-5.0,-7.0,0.341
0.0,-6.0,0.342
10.0,-2.0,0.343
23.0,1.0,0.344
31.0,0.0,0.345
22.0,0.0,0.346
0.0,1.0,0.347
-17.0,0.0,0.348
-18.0,-2.0,0.349
-10.0,-1.0,0.35
0.0,2.0,0.351
9.0,1.0,0.352
11.0,0.0,0.353
7.0,-1.0,0.354
1.0,0.0,0.355
-4.0,0.0,0.356
-5.0,1.0,0.357
-6.0,4.0,0.358
-4.0,5.0,0.359
-5.0,0.0,0.36
-7.0,-7.0,0.361
-5.0,-8.0,0.362
3.0,-5.0,0.363
12.0,-2.0,0.364
11.0,0.0,0.365
3.0,1.0,0.366
3.0,0.0,0.367
6.0,-4.0,0.368
5.0,-5.0,0.369
0.0,-1.0,0.37
0.0,0.0,0.371
5.0,-1.0,0.372
4.0,-4.0,0.373
0.0,-3.0,0.374
0.0,0.0,0.375
4.0,2.0,0.376
7.0,3.0,0.377
2.0,0.0,0.378
-1.0,-2.0,0.379
-4.0,-5.0,0.38
-5.0,-6.0,0.381
-5.0,-7.0,0.382
0.0,-4.0,0.383
6.0,-1.0,0.384
11.0,0.0,0.385
15.0,2.0,0.386
12.0,0.0,0.387
9.0,-1.0,0.388
7.0,-1.0,0.389
5.0,-1.0,0.39
5.0,0.0,0.391
4.0,3.0,0.392
2.0,3.0,0.393
0.0,2.0,0.394
1.0,0.0,0.395
1.0,0.0,0.396
0.0,1.0,0.397
-3.0,4.0,0.398
-4.0,4.0,0.399
-2.0,-1.0,0.4
-1.0,-7.0,0.401
-1.0,-7.0,0.402
2.0,-4.0,0.403
11.0,-1.0,0.404
12.0,3.0,0.405
6.0,7.0,0.406
1.0,5.0,0.407
4.0,0.0,0.408
7.0,0.0,0.409
3.0,2.0,0.41
-2.0,4.0,0.411
-2.0,1.0,0.412
1.0,0.0,0.413
3.0,2.0,0.414
3.0,2.0,0.415
3.0,0.0,0.416
4.0,1.0,0.417
6.0,1.0,0.418
12.0,1.0,0.419
14.0,-2.0,0.42
9.0,-8.0,0.421
-6.0,-6.0,0.422
-18.0,-3.0,0.423
-19.0,-1.0,0.424
-10.0,-1.0,0.425
-3.0,0.0,0.426
-2.0,-2.0,0.427
0.0,-6.0,0.428
2.0,-7.0,0.429
4.0,-4.0,0.43
3.0,-2.0,0.431
2.0,-6.0,0.432
1.0,-9.0,0.433
2.0,-5.0,0.434
1.0,0.0,0.435
1.0,1.0,0.436
1.0,0.0,0.437
1.0,-1.0,0.438
3.0,0.0,0.439
6.0,0.0,0.44
8.0,-4.0,0.441
8.0,-4.0,0.442
8.0,-1.0,0.443
9.0,3.0,0.444
11.0,3.0,0.445
11.0,2.0,0.446
11.0,0.0,0.447
11.0,0.0,0.448
10.0,0.0,0.449
13.0,0.0,0.45
17.0,0.0,0.451
16.0,-2.0,0.452
0.0,-3.0,0.453
-20.0,0.0,0.454
-27.0,2.0,0.455
-16.0,1.0,0.456
-1.0,0.0,0.457
2.0,-1.0,0.458
0.0,-2.0,0.459
-1.0,-2.0,0.46
0.0,-6.0,0.461
4.0,-6.0,0.462
14.0,-6.0,0.463
19.0,-6.0,0.464
7.0,-3.0,0.465
-3.0,2.0,0.466
-8.0,5.0,0.467
-11.0,3.0,0.468
-1.0,3.0,0.469
5.0,4.0,0.47
0.0,4.0,0.471
-4.0,0.0,0.472
0.0,-3.0,0.473
2.0,-2.0,0.474
0.0,0.0,0.475
-1.0,-1.0,0.476
0.0,-3.0,0.477
3.0,-3.0,0.478
5.0,-1.0,0.479
1.0,0.0,0.48
-5.0,-4.0,0.481
-9.0,-4.0,0.482
-4.0,0.0,0.483
6.0,2.0,0.484
10.0,0.0,0.485
6.0,-1.0,0.486
2.0,0.0,0.487
4.0,-1.0,0.488
7.0,-2.0,0.489
6.0,-2.0,0.49
3.0,0.0,0.491
3.0,-2.0,0.492
2.0,-4.0,0.493
1.0,-2.0,0.494
2.0,0.0,0.495
6.0,0.0,0.496
8.0,-1.0,0.497
4.0,-1.0,0.498
2.0,1.0,0.499
-1.0,-1.0,0.5
-1.0,-4.0,0.501
-2.0,-1.0,0.502
2.0,2.0,0.503
7.0,0.0,0.504
5.0,-2.0,0.505
1.0,0.0,0.506
1.0,5.0,0.507
7.0,3.0,0.508
10.0,-1.0,0.509
6.0,-1.0,0.51
3.0,3.0,0.511
5.0,3.0,0.512
7.0,0.0,0.513
4.0,0.0,0.514
0.0,1.0,0.515
0.0,2.0,0.516
1.0,2.0,0.517
1.0,1.0,0.518
0.0,0.0,0.519
-4.0,-1.0,0.52
-6.0,-7.0,0.521
-6.0,-9.0,0.522
0.0,-6.0,0.523
8.0,-2.0,0.524
10.0,1.0,0.525
6.0,1.0,0.526
3.0,-1.0,0.527
5.0,-3.0,0.528
7.0,-2.0,0.529
3.0,0.0,0.53
-2.0,0.0,0.531
-4.0,-2.0,0.532
-3.0,-4.0,0.533
-4.0,-1.0,0.534
-3.0,0.0,0.535
1.0,1.0,0.536
5.0,2.0,0.537
8.0,1.0,0.538
8.0,0.0,0.539
8.0,0.0,0.54
6.0,-5.0,0.541
6.0,-6.0,0.542
12.0,-3.0,0.543
16.0,0.0,0.544
10.0,2.0,0.545
4.0,2.0,0.546
2.0,0.0,0.547
0.0,-1.0,0.548
1.0,-1.0,0.549
2.0,-1.0,0.55
0.0,0.0,0.551
-1.0,-1.0,0.552
-2.0,-2.0,0.553
-4.0,-4.0,0.554
-3.0,-2.0,0.555
-2.0,2.0,0.556
-3.0,4.0,0.557
-4.0,1.0,0.558
-3.0,-1.0,0.559
1.0,-2.0,0.56
9.0,-6.0,0.561
19.0,-8.0,0.562
34.0,-7.0,0.563
42.0,0.0,0.564
26.0,3.0,0.565
-10.0,3.0,0.566
-40.0,1.0,0.567
-42.0,1.0,0.568
-23.0,2.0,0.569
-8.0,0.0,0.57
-4.0,0.0,0.571
-5.0,0.0,0.572
-3.0,0.0,0.573
-4.0,1.0,0.574
-7.0,0.0,0.575
-8.0,-1.0,0.576
-2.0,-1.0,0.577
2.0,-1.0,0.578
2.0,0.0,0.579
4.0,1.0,0.58
10.0,0.0,0.581
16.0,-2.0,0.582
18.0,-4.0,0.583
18.0,-5.0,0.584
9.0,-2.0,0.585
0.0,1.0,0.586
-7.0,1.0,0.587
-11.0,2.0,0.588
-3.0,2.0,0.589
4.0,3.0,0.59
8.0,2.0,0.591
14.0,1.0,0.592
23.0,2.0,0.593
31.0,3.0,0.594
31.0,1.0,0.595
27.0,0.0,0.596
17.0,0.0,0.597
7.0,0.0,0.598
3.0,-3.0,0.599
-3.0,-6.0,0.6
-11.0,-9.0,0.601
-16.0,-9.0,0.602
-8.0,-9.0,0.603
2.0,-4.0,0.604
5.0,2.0,0.605
-2.0,5.0,0.606
-6.0,0.0,0.607
-5.0,-3.0,0.608
-2.0,0.0,0.609
-3.0,2.0,0.61
-3.0,0.0,0.611
0.0,-1.0,0.612
0.0,3.0,0.613
-3.0,6.0,0.614
-4.0,3.0,0.615
-1.0,0.0,0.616
2.0,2.0,0.617
0.0,3.0,0.618
-1.0,3.0,0.619
-4.0,2.0,0.62
-4.0,0.0,0.621
-3.0,0.0,0.622
1.0,-1.0,0.623
5.0,-1.0,0.624
4.0,2.0,0.625
3.0,5.0,0.626
2.0,5.0,0.627
1.0,4.0,0.628
0.0,2.0,0.629
-1.0,0.0,0.63
-4.0,-2.0,0.631
-6.0,-4.0,0.632
-2.0,-3.0,0.633
1.0,0.0,0.634
1.0,0.0,0.635
0.0,-1.0,0.636
-1.0,-1.0,0.637
-1.0,-1.0,0.638
0.0,-1.0,0.639
0.0,-4.0,0.64
-4.0,-8.0,0.641
-4.0,-9.0,0.642
4.0,-7.0,0.643
13.0,-6.0,0.644
11.0,-5.0,0.645
4.0,-2.0,0.646
0.0,-1.0,0.647
6.0,-1.0,0.648
13.0,-2.0,0.649
12.0,-4.0,0.65
6.0,-5.0,0.651
7.0,-4.0,0.652
12.0,-2.0,0.653
14.0,0.0,0.654
10.0,4.0,0.655
6.0,4.0,0.656
8.0,2.0,0.657
10.0,-1.0,0.658
8.0,-2.0,0.659
2.0,-4.0,0.66
-2.0,-10.0,0.661
-3.0,-12.0,0.662
-1.0,-8.0,0.663
3.0,-3.0,0.664
7.0,1.0,0.665
7.0,0.0,0.666
5.0,0.0,0.667
7.0,-1.0,0.668
12.0,-2.0,0.669
19.0,-3.0,0.67
22.0,-2.0,0.671
20.0,2.0,0.672
12.0,3.0,0.673
-1.0,2.0,0.674
-8.0,3.0,0.675
-7.0,5.0,0.676
-5.0,7.0,0.677
-14.0,3.0,0.678
-26.0,2.0,0.679
-30.0,2.0,0.68
-21.0,-2.0,0.681
-10.0,-5.0,0.682
-2.0,-5.0,0.683
10.0,-1.0,0.684
22.0,2.0,0.685
20.0,3.0,0.686
6.0,3.0,0.687
-1.0,1.0,0.688
4.0,-1.0,0.689
7.0,-2.0,0.69
1.0,0.0,0.691
-2.0,4.0,0.692
4.0,2.0,0.693
7.0,-1.0,0.694
1.0,-1.0,0.695
-5.0,1.0,0.696
-1.0,3.0,0.697
2.0,0.0,0.698
0.0,-2.0,0.699
-3.0,-1.0,0.7
-4.0,-4.0,0.701
-4.0,-6.0,0.702
1.0,-3.0,0.703
6.0,0.0,0.704
4.0,2.0,0.705
3.0,4.0,0.706
4.0,3.0,0.707
5.0,0.0,0.708
4.0,-2.0,0.709
3.0,0.0,0.71
4.0,3.0,0.711
5.0,3.0,0.712
4.0,1.0,0.713
3.0,3.0,0.714
3.0,6.0,0.715
3.0,5.0,0.716
3.0,1.0,0.717
4.0,-1.0,0.718
1.0,-1.0,0.719
-1.0,-4.0,0.72
-3.0,-10.0,0.721
-4.0,-12.0,0.722
-1.0,-8.0,0.723
8.0,-3.0,0.724
11.0,0.0,0.725
6.0,2.0,0.726
0.0,0.0,0.727
0.0,-3.0,0.728
1.0,-2.0,0.729
0.0,-1.0,0.73
-1.0,0.0,0.731
1.0,-1.0,0.732
5.0,-2.0,0.733
8.0,0.0,0.734
6.0,0.0,0.735
3.0,-3.0,0.736
0.0,-2.0,0.737
-2.0,-1.0,0.738
-2.0,1.0,0.739
-3.0,-1.0,0.74
-5.0,-4.0,0.741
-6.0,-1.0,0.742
1.0,2.0,0.743
11.0,0.0,0.744
13.0,-1.0,0.745
7.0,2.0,0.746
4.0,5.0,0.747
6.0,3.0,0.748
9.0,-3.0,0.749
6.0,-6.0,0.75
3.0,-3.0,0.751
9.0,0.0,0.752
17.0,3.0,0.753
21.0,4.0,0.754
18.0,2.0,0.755
7.0,1.0,0.756
-7.0,3.0,0.757
-20.0,4.0,0.758
-25.0,2.0,0.759
-26.0,-2.0,0.76
-25.0,-8.0,0.761
-21.0,-7.0,0.762
-8.0,-3.0,0.763
7.0,-3.0,0.764
13.0,-5.0,0.765
11.0,-4.0,0.766
14.0,-1.0,0.767
28.0,-1.0,0.768
33.0,-3.0,0.769
22.0,-2.0,0.77
10.0,0.0,0.771
11.0,-2.0,0.772
19.0,-4.0,0.773
19.0,-2.0,0.774
11.0,1.0,0.775
5.0,0.0,0.776
5.0,-2.0,0.777
-1.0,-3.0,0.778
-5.0,-1.0,0.779
-9.0,0.0,0.78
-9.0,0.0,0.781
-8.0,0.0,0.782
-3.0,0.0,0.783
1.0,1.0,0.784
1.0,2.0,0.785
0.0,3.0,0.786
-3.0,1.0,0.787
-5.0,0.0,0.788
0.0,-1.0,0.789
4.0,-1.0,0.79
5.0,2.0,0.791
8.0,4.0,0.792
13.0,2.0,0.793
14.0,1.0,0.794
-3.0,3.0,0.795
-17.0,5.0,0.796
-22.0,2.0,0.797
-24.0,-1.0,0.798
-17.0,0.0,0.799
-8.0,1.0,0.8
-3.0,-4.0,0.801
0.0,-9.0,0.802
2.0,-10.0,0.803
6.0,-8.0,0.804
4.0,-4.0,0.805
4.0,-1.0,0.806
7.0,-1.0,0.807
11.0,-1.0,0.808
12.0,0.0,0.809
11.0,1.0,0.81
11.0,1.0,0.811
12.0,2.0,0.812
8.0,1.0,0.813
3.0,0.0,0.814
5.0,-1.0,0.815
7.0,-2.0,0.816
4.0,0.0,0.817
-2.0,-2.0,0.818
-3.0,-2.0,0.819
-4.0,-2.0,0.82
-5.0,-4.0,0.821
-5.0,-6.0,0.822
0.0,-4.0,0.823
4.0,-2.0,0.824
6.0,3.0,0.825
8.0,6.0,0.826
5.0,3.0,0.827
3.0,0.0,0.828
3.0,2.0,0.829
3.0,3.0,0.83
3.0,1.0,0.831
3.0,-1.0,0.832
2.0,-1.0,0.833
1.0,-1.0,0.834
2.0,-2.0,0.835
4.0,-3.0,0.836
4.0,-4.0,0.837
2.0,-6.0,0.838
0.0,-5.0,0.839
-2.0,-4.0,0.84
-2.0,-6.0,0.841
0.0,-6.0,0.842
3.0,-3.0,0.843
10.0,1.0,0.844
12.0,1.0,0.845
4.0,-1.0,0.846
-1.0,-3.0,0.847
0.0,-3.0,0.848
5.0,-2.0,0.849
8.0,-1.0,0.85
6.0,0.0,0.851
2.0,1.0,0.852
0.0,4.0,0.853
-2.0,3.0,0.854
-2.0,0.0,0.855
0.0,-3.0,0.856
4.0,-2.0,0.857
3.0,-1.0,0.858
0.0,0.0,0.859
-2.0,1.0,0.86
-4.0,-2.0,0.861
-5.0,-4.0,0.862
0.0,-2.0,0.863
6.0,0.0,0.864
5.0,1.0,0.865
3.0,3.0,0.866
1.0,1.0,0.867
0.0,0.0,0.868
2.0,0.0,0.869
4.0,1.0,0.87
4.0,0.0,0.871
4.0,-1.0,0.872
3.0,-1.0,0.873
2.0,0.0,0.874
1.0,1.0,0.875
0.0,3.0,0.876
3.0,1.0,0.877
6.0,-1.0,0.878
1.0,0.0,0.879
-2.0,-1.0,0.88
-2.0,-6.0,0.881
-2.0,-7.0,0.882
0.0,-3.0,0.883
6.0,2.0,0.884
6.0,5.0,0.885
0.0,5.0,0.886
-4.0,2.0,0.887
0.0,-1.0,0.888
6.0,-1.0,0.889
6.0,0.0,0.89
0.0,0.0,0.891
-2.0,0.0,0.892
0.0,-1.0,0.893
1.0,0.0,0.894
1.0,2.0,0.895
3.0,2.0,0.896
5.0,2.0,0.897
1.0,0.0,0.898
-2.0,-3.0,0.899
-4.0,-4.0,0.9
-6.0,-6.0,0.901
-5.0,-6.0,0.902
0.0,-6.0,0.903
10.0,-3.0,0.904
13.0,2.0,0.905
7.0,6.0,0.906
0.0,1.0,0.907
3.0,-3.0,0.908
8.0,-2.0,0.909
7.0,2.0,0.91
4.0,2.0,0.911
7.0,-3.0,0.912
9.0,-3.0,0.913
4.0,-1.0,0.914
-1.0,0.0,0.915
1.0,-2.0,0.916
6.0,-1.0,0.917
6.0,0.0,0.918
2.0,-1.0,0.919
-1.0,-4.0,0.92
-4.0,-8.0,0.921
-5.0,-5.0,0.922
0.0,-2.0,0.923
11.0,0.0,0.924
14.0,0.0,0.925
9.0,2.0,0.926
4.0,3.0,0.927
9.0,0.0,0.928
10.0,-1.0,0.929
1.0,-1.0,0.93
-4.0,-1.0,0.931
-1.0,-2.0,0.932
5.0,-1.0,0.933
6.0,0.0,0.934
3.0,2.0,0.935
3.0,1.0,0.936
4.0,-2.0,0.937
0.0,-3.0,0.938
-3.0,-3.0,0.939
-7.0,-3.0,0.94
-9.0,-4.0,0.941
-9.0,-4.0,0.942
-1.0,-1.0,0.943
9.0,2.0,0.944
11.0,2.0,0.945
4.0,1.0,0.946
0.0,0.0,0.947
3.0,-1.0,0.948
5.0,0.0,0.949
3.0,0.0,0.95
3.0,0.0,0.951
6.0,-1.0,0.952
4.0,-2.0,0.953
-2.0,0.0,0.954
-4.0,0.0,0.955
0.0,1.0,0.956
5.0,2.0,0.957
3.0,0.0,0.958
1.0,0.0,0.959
0.0,0.0,0.96
-3.0,-4.0,0.961
-3.0,-6.0,0.962
3.0,-5.0,0.963
11.0,-2.0,0.964
10.0,3.0,0.965
4.0,6.0,0.966
1.0,2.0,0.967
3.0,-1.0,0.968
5.0,-2.0,0.969
3.0,0.0,0.97
0.0,2.0,0.971
-3.0,4.0,0.972
-2.0,3.0,0.973
0.0,2.0,0.974
1.0,0.0,0.975
0.0,-1.0,0.976
0.0,0.0,0.977
1.0,-1.0,0.978
2.0,-2.0,0.979
0.0,-3.0,0.98
-4.0,-3.0,0.981
-2.0,-3.0,0.982
5.0,-3.0,0.983
13.0,-1.0,0.984
11.0,2.0,0.985
3.0,4.0,0.986
0.0,2.0,0.987
3.0,0.0,0.988
5.0,-2.0,0.989
5.0,-4.0,0.99
4.0,-2.0,0.991
4.0,-1.0,0.992
3.0,-2.0,0.993
2.0,-3.0,0.994
0.0,-1.0,0.995
-1.0,0.0,0.996
0.0,-1.0,0.997
0.0,-3.0,0.998
1.0,-3.0,0.999
-1.0,-2.0,1.0
-4.0,-4.0,1.001
-2.0,-3.0,1.002
4.0,-2.0,1.003
9.0,-2.0,1.004
9.0,-1.0,1.005
5.0,3.0,1.006
2.0,5.0,1.007
3.0,3.0,1.008
4.0,-1.0,1.009
2.0,-2.0,1.01
2.0,0.0,1.011
4.0,0.0,1.012
4.0,-1.0,1.013
0.0,-2.0,1.014
-3.0,-1.0,1.015
-5.0,0.0,1.016
-5.0,0.0,1.017
-6.0,-2.0,1.018
-3.0,-1.0,1.019
-1.0,-1.0,1.02
-1.0,-5.0,1.021
0.0,-8.0,1.022
3.0,-5.0,1.023
6.0,-2.0,1.024
9.0,0.0,1.025
11.0,0.0,1.026
8.0,-2.0,1.027
6.0,-5.0,1.028
14.0,-5.0,1.029
19.0,-4.0,1.03
17.0,-2.0,1.031
13.0,-1.0,1.032
0.0,-1.0,1.033
-10.0,0.0,1.034
-13.0,0.0,1.035
-14.0,1.0,1.036
-7.0,2.0,1.037
0.0,3.0,1.038
-2.0,1.0,1.039
-4.0,-2.0,1.04
-5.0,-8.0,1.041
-3.0,-8.0,1.042
2.0,-4.0,1.043
10.0,0.0,1.044
12.0,0.0,1.045
5.0,0.0,1.046
-2.0,3.0,1.047
-2.0,4.0,1.048
2.0,3.0,1.049
6.0,0.0,1.05
9.0,-1.0,1.051
9.0,0.0,1.052
6.0,0.0,1.053
0.0,2.0,1.054
-1.0,3.0,1.055
0.0,2.0,1.056
3.0,4.0,1.057
-2.0,3.0,1.058
-4.0,0.0,1.059
-6.0,-5.0,1.06
-5.0,-9.0,1.061
0.0,-5.0,1.062
9.0,0.0,1.063
19.0,1.0,1.064
17.0,0.0,1.065
6.0,1.0,1.066
1.0,2.0,1.067
7.0,0.0,1.068
10.0,-4.0,1.069
3.0,-1.0,1.07
-2.0,4.0,1.071
2.0,5.0,1.072
7.0,2.0,1.073
3.0,0.0,1.074
-3.0,1.0,1.075
-5.0,1.0,1.076
-1.0,-1.0,1.077
0.0,-2.0,1.078
-1.0,0.0,1.079
-5.0,2.0,1.08
-8.0,-3.0,1.081
-4.0,-7.0,1.082
3.0,-8.0,1.083
11.0,-4.0,1.084
7.0,0.0,1.085
0.0,2.0,1.086
0.0,0.0,1.087
5.0,-1.0,1.088
6.0,-2.0,1.089
2.0,0.0,1.09
0.0,0.0,1.091
1.0,-4.0,1.092
0.0,-4.0,1.093
-1.0,-1.0,1.094
0.0,2.0,1.095
2.0,1.0,1.096
3.0,0.0,1.097
2.0,-1.0,1.098
3.0,-1.0,1.099
4.0,-3.0,1.1
-2.0,-6.0,1.101
-7.0,-5.0,1.102
-3.0,-3.0,1.103
7.0,-3.0,1.104
11.0,-1.0,1.105
4.0,1.0,1.106
0.0,2.0,1.107
4.0,0.0,1.108
6.0,1.0,1.109
1.0,3.0,1.11
-3.0,3.0,1.111
-1.0,0.0,1.112
3.0,0.0,1.113
7.0,0.0,1.114
10.0,1.0,1.115
11.0,0.0,1.116
8.0,1.0,1.117
2.0,-1.0,1.118
0.0,-4.0,1.119
0.0,-6.0,1.12
0.0,-7.0,1.121
0.0,-3.0,1.122
5.0,-1.0,1.123
16.0,0.0,1.124
22.0,2.0,1.125
22.0,4.0,1.126
19.0,1.0,1.127
10.0,-3.0,1.128
-3.0,-1.0,1.129
-14.0,2.0,1.13
-13.0,1.0,1.131
-6.0,-2.0,1.132
-2.0,-2.0,1.133
-3.0,2.0,1.134
-2.0,2.0,1.135
2.0,-1.0,1.136
3.0,0.0,1.137
-3.0,-2.0,1.138
4.0,0.0,1.139
12.0,0.0,1.14
13.0,-6.0,1.141
15.0,-10.0,1.142
14.0,-7.0,1.143
13.0,-6.0,1.144
14.0,-6.0,1.145
14.0,-5.0,1.146
4.0,-2.0,1.147
-1.0,-1.0,1.148
1.0,-1.0,1.149
1.0,0.0,1.15
0.0,0.0,1.151
-2.0,0.0,1.152
-2.0,0.0,1.153
-1.0,1.0,1.154
-1.0,1.0,1.155
0.0,3.0,1.156
-3.0,3.0,1.157
-4.0,-2.0,1.158
5.0,0.0,1.159
13.0,0.0,1.16
14.0,-5.0,1.161
16.0,-8.0,1.162
15.0,-6.0,1.163
14.0,-5.0,1.164
15.0,-5.0,1.165
15.0,-4.0,1.166
5.0,-2.0,1.167
-2.0,-1.0,1.168
0.0,-1.0,1.169
0.0,0.0,1.17
-1.0,0.0,1.171
-3.0,0.0,1.172
-3.0,0.0,1.173
-2.0,1.0,1.174
-2.0,1.0,1.175
-1.0,2.0,1.176
-4.0,2.0,1.177
-6.0,0.0,1.178
-5.0,-1.0,1.179
-5.0,-2.0,1.18
-9.0,-4.0,1.181
-11.0,-4.0,1.182
-2.0,-3.0,1.183
10.0,0.0,1.184
12.0,4.0,1.185
2.0,5.0,1.186
-4.0,3.0,1.187
0.0,1.0,1.188
4.0,2.0,1.189
3.0,3.0,1.19
2.0,2.0,1.191
6.0,-1.0,1.192
9.0,-1.0,1.193
7.0,1.0,1.194
3.0,3.0,1.195
3.0,0.0,1.196
6.0,0.0,1.197
6.0,-2.0,1.198
7.0,-2.0,1.199
3.0,-1.0,1.2
-1.0,-4.0,1.201
0.0,-6.0,1.202
10.0,-7.0,1.203
22.0,-4.0,1.204
23.0,1.0,1.205
10.0,4.0,1.206
-9.0,-1.0,1.207
-19.0,-6.0,1.208
-17.0,-4.0,1.209
-11.0,3.0,1.21
-6.0,6.0,1.211
0.0,2.0,1.212
5.0,-1.0,1.213
9.0,0.0,1.214
8.0,3.0,1.215
2.0,2.0,1.216
-1.0,2.0,1.217
14.0,0.0,1.218
-3.0,0.0,1.219
-21.0,0.0,1.22
-21.0,-4.0,1.221
-14.0,-7.0,1.222
0.0,-7.0,1.223
14.0,-5.0,1.224
24.0,-3.0,1.225
32.0,-2.0,1.226
17.0,-3.0,1.227
7.0,-3.0,1.228
7.0,-1.0,1.229
3.0,0.0,1.23
0.0,-2.0,1.231
-7.0,-3.0,1.232
-7.0,-1.0,1.233
-10.0,0.0,1.234
-10.0,-2.0,1.235
-3.0,-3.0,1.236
0.0,-1.0,1.237
4.0,0.0,1.238
-1.0,0.0,1.239
-6.0,-1.0,1.24
-6.0,-5.0,1.241
-4.0,-5.0,1.242
0.0,-3.0,1.243
4.0,0.0,1.244
7.0,3.0,1.245
9.0,4.0,1.246
5.0,2.0,1.247
2.0,-1.0,1.248
2.0,-3.0,1.249
1.0,-2.0,1.25
0.0,0.0,1.251
-2.0,1.0,1.252
-2.0,0.0,1.253
-3.0,0.0,1.254
-3.0,-1.0,1.255
-1.0,0.0,1.256
0.0,4.0,1.257
2.0,6.0,1.258
0.0,4.0,1.259
-4.0,-2.0,1.26
-6.0,-8.0,1.261
-6.0,-6.0,1.262
0.0,-2.0,1.263
11.0,0.0,1.264
11.0,0.0,1.265
4.0,3.0,1.266
1.0,5.0,1.267
2.0,2.0,1.268
4.0,-2.0,1.269
3.0,-3.0,1.27
3.0,-2.0,1.271
6.0,-1.0,1.272
7.0,1.0,1.273
6.0,3.0,1.274
6.0,2.0,1.275
7.0,-2.0,1.276
6.0,-2.0,1.277
2.0,0.0,1.278
-1.0,1.0,1.279
-3.0,-1.0,1.28
-8.0,-8.0,1.281
-8.0,-7.0,1.282
0.0,-5.0,1.283
8.0,-2.0,1.284
8.0,2.0,1.285
7.0,6.0,1.286
15.0,6.0,1.287
24.0,2.0,1.288
17.0,0.0,1.289
-3.0,2.0,1.29
-19.0,2.0,1.291
-19.0,-1.0,1.292
-10.0,-6.0,1.293
2.0,-5.0,1.294
14.0,-2.0,1.295
21.0,-3.0,1.296
18.0,-3.0,1.297
0.0,-2.0,1.298
-2.0,-3.0,1.299
-7.0,-4.0,1.3
-10.0,-4.0,1.301
-10.0,-4.0,1.302
3.0,-2.0,1.303
17.0,-1.0,1.304
12.0,0.0,1.305
7.0,1.0,1.306
-2.0,0.0,1.307
-7.0,-1.0,1.308
5.0,-1.0,1.309
15.0,0.0,1.31
10.0,2.0,1.311
7.0,3.0,1.312
7.0,0.0,1.313
10.0,-1.0,1.314
15.0,0.0,1.315
17.0,1.0,1.316
12.0,0.0,1.317
3.0,-2.0,1.318
2.0,1.0,1.319
0.0,0.0,1.32
-1.0,-8.0,1.321
-1.0,-9.0,1.322
4.0,-3.0,1.323
10.0,0.0,1.324
8.0,-2.0,1.325
6.0,0.0,1.326
2.0,4.0,1.327
0.0,6.0,1.328
5.0,4.0,1.329
9.0,3.0,1.33
7.0,4.0,1.331
6.0,1.0,1.332
6.0,-1.0,1.333
7.0,1.0,1.334
9.0,5.0,1.335
10.0,5.0,1.336
8.0,3.0,1.337
6.0,-2.0,1.338
1.0,-3.0,1.339
-2.0,-4.0,1.34
-4.0,-6.0,1.341
-5.0,-3.0,1.342
-2.0,0.0,1.343
3.0,0.0,1.344
5.0,-2.0,1.345
3.0,-1.0,1.346
1.0,0.0,1.347
1.0,0.0,1.348
2.0,-2.0,1.349
1.0,-1.0,1.35
1.0,0.0,1.351
3.0,0.0,1.352
4.0,-2.0,1.353
6.0,-3.0,1.354
8.0,-1.0,1.355
7.0,0.0,1.356
2.0,3.0,1.357
-3.0,2.0,1.358
-3.0,-1.0,1.359
-2.0,-2.0,1.36
-3.0,-6.0,1.361
-3.0,-7.0,1.362
0.0,-6.0,1.363
6.0,-4.0,1.364
8.0,2.0,1.365
5.0,6.0,1.366
9.0,5.0,1.367
18.0,3.0,1.368
18.0,2.0,1.369
3.0,3.0,1.37
-13.0,1.0,1.371
-19.0,-2.0,1.372
-16.0,-3.0,1.373
-13.0,-1.0,1.374
-11.0,0.0,1.375
-4.0,-3.0,1.376
4.0,-3.0,1.377
0.0,-2.0,1.378
0.0,-1.0,1.379
-1.0,-2.0,1.38
1.0,-7.0,1.381
2.0,-9.0,1.382
3.0,-7.0,1.383
5.0,-6.0,1.384
5.0,-2.0,1.385
5.0,1.0,1.386
5.0,1.0,1.387
7.0,0.0,1.388
9.0,-1.0,1.389
9.0,0.0,1.39
4.0,1.0,1.391
0.0,-1.0,1.392
-4.0,-1.0,1.393
-6.0,-1.0,1.394
-2.0,-1.0,1.395
1.0,0.0,1.396
1.0,2.0,1.397
-5.0,4.0,1.398
-6.0,1.0,1.399
-7.0,-1.0,1.4
-2.0,-5.0,1.401
3.0,-2.0,1.402
7.0,-1.0,1.403
11.0,0.0,1.404
11.0,2.0,1.405
11.0,4.0,1.406
13.0,2.0,1.407
17.0,-1.0,1.408
22.0,-1.0,1.409
23.0,4.0,1.41
9.0,5.0,1.411
-4.0,3.0,1.412
-15.0,0.0,1.413
-21.0,2.0,1.414
-11.0,3.0,1.415
-3.0,0.0,1.416
-3.0,0.0,1.417
-4.0,0.0,1.418
-6.0,3.0,1.419
-13.0,1.0,1.42
-19.0,-6.0,1.421
-20.0,-8.0,1.422
-8.0,-7.0,1.423
6.0,-3.0,1.424
8.0,0.0,1.425
1.0,2.0,1.426
0.0,0.0,1.427
10.0,-3.0,1.428
19.0,-3.0,1.429
20.0,-2.0,1.43
16.0,-4.0,1.431
13.0,-7.0,1.432
10.0,-8.0,1.433
9.0,-4.0,1.434
15.0,-3.0,1.435
17.0,-4.0,1.436
7.0,-1.0,1.437
-13.0,-1.0,1.438
-25.0,-2.0,1.439
-22.0,-4.0,1.44
-16.0,-6.0,1.441
-11.0,-5.0,1.442
0.0,-5.0,1.443
15.0,-4.0,1.444
20.0,-1.0,1.445
8.0,2.0,1.446
-2.0,1.0,1.447
2.0,-3.0,1.448
10.0,-2.0,1.449
8.0,1.0,1.45
4.0,1.0,1.451
11.0,-1.0,1.452
17.0,-1.0,1.453
13.0,4.0,1.454
3.0,4.0,1.455
2.0,-1.0,1.456
9.0,-1.0,1.457
2.0,2.0,1.458
1.0,5.0,1.459
-2.0,1.0,1.46
-5.0,-4.0,1.461
-6.0,-1.0,1.462
-3.0,2.0,1.463
0.0,1.0,1.464
2.0,0.0,1.465
3.0,1.0,1.466
3.0,2.0,1.467
4.0,-1.0,1.468
8.0,-3.0,1.469
11.0,0.0,1.47
7.0,0.0,1.471
4.0,-2.0,1.472
4.0,0.0,1.473
3.0,5.0,1.474
2.0,5.0,1.475
2.0,-1.0,1.476
2.0,-3.0,1.477
1.0,0.0,1.478
0.0,2.0,1.479
-4.0,3.0,1.48
-8.0,-2.0,1.481
-10.0,-6.0,1.482
-6.0,-1.0,1.483
-1.0,3.0,1.484
1.0,3.0,1.485
4.0,2.0,1.486
4.0,0.0,1.487
6.0,-3.0,1.488
11.0,-2.0,1.489
15.0,-1.0,1.49
10.0,-1.0,1.491
6.0,0.0,1.492
6.0,-1.0,1.493
4.0,-3.0,1.494
2.0,-2.0,1.495
1.0,-1.0,1.496
1.0,-2.0,1.497
1.0,-3.0,1.498
-1.0,-3.0,1.499
-4.0,-5.0,1.5
-7.0,-7.0,1.501
-5.0,-6.0,1.502
0.0,-4.0,1.503
7.0,-1.0,1.504
9.0,3.0,1.505
4.0,4.0,1.506
1.0,1.0,1.507
1.0,-2.0,1.508
4.0,-1.0,1.509
6.0,0.0,1.51
3.0,0.0,1.511
1.0,-1.0,1.512
0.0,0.0,1.513
0.0,5.0,1.514
2.0,5.0,1.515
4.0,2.0,1.516
5.0,1.0,1.517
1.0,0.0,1.518
-2.0,0.0,1.519
-5.0,-2.0,1.52
-7.0,-5.0,1.521
-5.0,-3.0,1.522
1.0,-3.0,1.523
8.0,-1.0,1.524
9.0,0.0,1.525
6.0,1.0,1.526
5.0,-1.0,1.527
7.0,-3.0,1.528
6.0,-2.0,1.529
3.0,0.0,1.53
3.0,0.0,1.531
10.0,-1.0,1.532
14.0,0.0,1.533
12.0,0.0,1.534
8.0,-2.0,1.535
8.0,-4.0,1.536
8.0,-1.0,1.537
-20.0,2.0,1.538
-17.0,0.0,1.539
-12.0,-1.0,1.54
-5.0,-5.0,1.541
2.0,-4.0,1.542
8.0,-1.0,1.543
8.0,0.0,1.544
-7.0,0.0,1.545
-19.0,2.0,1.546
-5.0,0.0,1.547
6.0,-2.0,1.548
12.0,-5.0,1.549
19.0,-3.0,1.55
17.0,-1.0,1.551
14.0,-1.0,1.552
5.0,-2.0,1.553
-1.0,-1.0,1.554
0.0,0.0,1.555
2.0,0.0,1.556
2.0,0.0,1.557
-16.0,1.0,1.558
-14.0,3.0,1.559
-10.0,3.0,1.56
-4.0,0.0,1.561
2.0,-1.0,1.562
7.0,0.0,1.563
7.0,-1.0,1.564
-6.0,0.0,1.565
-15.0,4.0,1.566
-4.0,5.0,1.567
5.0,1.0,1.568
10.0,-2.0,1.569
15.0,0.0,1.57
14.0,0.0,1.571
11.0,-3.0,1.572
4.0,-4.0,1.573
-1.0,1.0,1.574
0.0,4.0,1.575
2.0,0.0,1.576
2.0,-4.0,1.577
2.0,-6.0,1.578
-1.0,-5.0,1.579
0.0,-6.0,1.58
0.0,-10.0,1.581
-4.0,-9.0,1.582
0.0,-3.0,1.583
10.0,2.0,1.584
13.0,3.0,1.585
5.0,1.0,1.586
-1.0,-1.0,1.587
2.0,-3.0,1.588
10.0,-2.0,1.589
7.0,-1.0,1.59
2.0,1.0,1.591
1.0,3.0,1.592
1.0,2.0,1.593
-4.0,2.0,1.594
-8.0,1.0,1.595
-6.0,0.0,1.596
-3.0,2.0,1.597
-4.0,0.0,1.598
-3.0,0.0,1.599
5.0,-2.0,1.6
12.0,-5.0,1.601
11.0,-7.0,1.602
11.0,-7.0,1.603
19.0,-2.0,1.604
24.0,2.0,1.605
15.0,4.0,1.606
2.0,2.0,1.607
1.0,-2.0,1.608
7.0,-1.0,1.609
7.0,-1.0,1.61
1.0,-2.0,1.611
-2.0,-3.0,1.612
-4.0,0.0,1.613
-6.0,3.0,1.614
-6.0,3.0,1.615
-2.0,0.0,1.616
1.0,0.0,1.617
-1.0,1.0,1.618
-1.0,1.0,1.619
-1.0,1.0,1.62
-13.0,-1.0,1.621
-18.0,0.0,1.622
3.0,0.0,1.623
19.0,0.0,1.624
22.0,1.0,1.625
24.0,1.0,1.626
14.0,-1.0,1.627
7.0,-3.0,1.628
7.0,-4.0,1.629
5.0,-4.0,1.63
5.0,-5.0,1.631
7.0,-6.0,1.632
7.0,-2.0,1.633
7.0,0.0,1.634
1.0,-2.0,1.635
-4.0,-2.0,1.636
3.0,0.0,1.637
1.0,2.0,1.638
1.0,0.0,1.639
1.0,-1.0,1.64
-4.0,-2.0,1.641
-6.0,-3.0,1.642
3.0,0.0,1.643
10.0,3.0,1.644
11.0,3.0,1.645
12.0,2.0,1.646
8.0,0.0,1.647
5.0,-1.0,1.648
5.0,0.0,1.649
4.0,1.0,1.65
4.0,1.0,1.651
5.0,1.0,1.652
5.0,1.0,1.653
5.0,1.0,1.654
2.0,0.0,1.655
0.0,-1.0,1.656
3.0,2.0,1.657
6.0,5.0,1.658
1.0,2.0,1.659
-5.0,-4.0,1.66
-7.0,-8.0,1.661
-7.0,-4.0,1.662
0.0,-4.0,1.663
9.0,-3.0,1.664
10.0,-1.0,1.665
4.0,1.0,1.666
2.0,0.0,1.667
9.0,-2.0,1.668
13.0,-3.0,1.669
8.0,0.0,1.67
2.0,-1.0,1.671
5.0,-4.0,1.672
10.0,-3.0,1.673
8.0,0.0,1.674
1.0,4.0,1.675
1.0,2.0,1.676
5.0,1.0,1.677
7.0,0.0,1.678
2.0,-1.0,1.679
-3.0,-1.0,1.68
-6.0,-3.0,1.681
-9.0,-3.0,1.682
-4.0,-2.0,1.683
4.0,0.0,1.684
9.0,0.0,1.685
4.0,0.0,1.686
-1.0,-1.0,1.687
1.0,-2.0,1.688
5.0,-1.0,1.689
4.0,1.0,1.69
0.0,1.0,1.691
0.0,0.0,1.692
1.0,-1.0,1.693
1.0,0.0,1.694
1.0,1.0,1.695
4.0,0.0,1.696
7.0,0.0,1.697
2.0,0.0,1.698
-4.0,0.0,1.699
-10.0,0.0,1.7
-13.0,-3.0,1.701
-13.0,-4.0,1.702
-7.0,-2.0,1.703
-2.0,0.0,1.704
0.0,0.0,1.705
2.0,2.0,1.706
5.0,3.0,1.707
7.0,1.0,1.708
6.0,-1.0,1.709
3.0,-2.0,1.71
2.0,0.0,1.711
1.0,0.0,1.712
3.0,1.0,1.713
4.0,2.0,1.714
2.0,2.0,1.715
0.0,2.0,1.716
0.0,2.0,1.717
4.0,2.0,1.718
-9.0,0.0,1.719
-20.0,-2.0,1.72
-24.0,-6.0,1.721
-24.0,-8.0,1.722
-13.0,-5.0,1.723
-4.0,-2.0,1.724
0.0,-2.0,1.725
5.0,-2.0,1.726
10.0,-2.0,1.727
14.0,-3.0,1.728
11.0,-2.0,1.729
7.0,-1.0,1.73
5.0,0.0,1.731
3.0,1.0,1.732
7.0,0.0,1.733
9.0,-1.0,1.734
4.0,0.0,1.735
0.0,1.0,1.736
0.0,2.0,1.737
-1.0,2.0,1.738
-6.0,2.0,1.739
-8.0,1.0,1.74
-5.0,-3.0,1.741
-1.0,-3.0,1.742
0.0,-3.0,1.743
4.0,-2.0,1.744
6.0,-1.0,1.745
3.0,0.0,1.746
1.0,0.0,1.747
6.0,0.0,1.748
10.0,1.0,1.749
8.0,0.0,1.75
1.0,-2.0,1.751
-1.0,-4.0,1.752
1.0,-3.0,1.753
2.0,-1.0,1.754
0.0,0.0,1.755
2.0,-1.0,1.756
6.0,-1.0,1.757
7.0,-2.0,1.758
2.0,-3.0,1.759
-1.0,-3.0,1.76
-2.0,-5.0,1.761
-2.0,-3.0,1.762
-1.0,0.0,1.763
5.0,1.0,1.764
11.0,2.0,1.765
8.0,2.0,1.766
1.0,1.0,1.767
0.0,-1.0,1.768
5.0,-1.0,1.769
5.0,1.0,1.77
1.0,4.0,1.771
1.0,4.0,1.772
5.0,1.0,1.773
5.0,0.0,1.774
1.0,0.0,1.775
1.0,1.0,1.776
5.0,2.0,1.777
6.0,0.0,1.778
3.0,0.0,1.779
0.0,0.0,1.78
0.0,-3.0,1.781
1.0,-8.0,1.782
3.0,-9.0,1.783
4.0,-7.0,1.784
4.0,-1.0,1.785
3.0,5.0,1.786
4.0,6.0,1.787
6.0,2.0,1.788
12.0,-4.0,1.789
14.0,-4.0,1.79
5.0,-1.0,1.791
-1.0,0.0,1.792
-2.0,0.0,1.793
-3.0,3.0,1.794
1.0,3.0,1.795
3.0,-1.0,1.796
3.0,-2.0,1.797
9.0,-2.0,1.798
2.0,2.0,1.799
-4.0,4.0,1.8
-4.0,0.0,1.801
-2.0,-3.0,1.802
2.0,-2.0,1.803
5.0,-1.0,1.804
5.0,-2.0,1.805
4.0,-2.0,1.806
6.0,0.0,1.807
10.0,0.0,1.808
20.0,-1.0,1.809
24.0,-3.0,1.81
8.0,-1.0,1.811
-5.0,0.0,1.812
-7.0,-1.0,1.813
-8.0,-3.0,1.814
-2.0,2.0,1.815
2.0,6.0,1.816
2.0,4.0,1.817
1.0,2.0,1.818
-10.0,-1.0,1.819
-22.0,-4.0,1.82
-22.0,-10.0,1.821
-8.0,-7.0,1.822
8.0,-1.0,1.823
17.0,3.0,1.824
15.0,4.0,1.825
8.0,3.0,1.826
4.0,2.0,1.827
5.0,-2.0,1.828
6.0,-5.0,1.829
7.0,-3.0,1.83
8.0,0.0,1.831
5.0,1.0,1.832
0.0,0.0,1.833
-2.0,0.0,1.834
0.0,0.0,1.835
5.0,-1.0,1.836
7.0,0.0,1.837
4.0,0.0,1.838
0.0,0.0,1.839
-3.0,0.0,1.84
-8.0,-4.0,1.841
-10.0,-6.0,1.842
-1.0,-5.0,1.843
9.0,-1.0,1.844
11.0,1.0,1.845
4.0,0.0,1.846
1.0,-2.0,1.847
3.0,-2.0,1.848
3.0,1.0,1.849
1.0,1.0,1.85
4.0,-4.0,1.851
10.0,-8.0,1.852
8.0,-6.0,1.853
1.0,0.0,1.854
-1.0,6.0,1.855
2.0,5.0,1.856
5.0,5.0,1.857
0.0,1.0,1.858
-4.0,-3.0,1.859
-7.0,-6.0,1.86
-8.0,-6.0,1.861
-9.0,-4.0,1.862
-5.0,-2.0,1.863
-1.0,-2.0,1.864
1.0,0.0,1.865
5.0,2.0,1.866
10.0,2.0,1.867
15.0,-2.0,1.868
15.0,-2.0,1.869
12.0,1.0,1.87
5.0,3.0,1.871
0.0,-2.0,1.872
1.0,-6.0,1.873
2.0,-3.0,1.874
-1.0,1.0,1.875
-3.0,1.0,1.876
2.0,0.0,1.877
5.0,-2.0,1.878
3.0,-1.0,1.879
-1.0,-2.0,1.88
-3.0,-4.0,1.881
0.0,-3.0,1.882
8.0,-1.0,1.883
18.0,0.0,1.884
17.0,1.0,1.885
9.0,2.0,1.886
7.0,2.0,1.887
18.0,0.0,1.888
22.0,0.0,1.889
8.0,1.0,1.89
-15.0,2.0,1.891
-24.0,1.0,1.892
-20.0,0.0,1.893
-13.0,-1.0,1.894
-11.0,-1.0,1.895
-9.0,0.0,1.896
-3.0,3.0,1.897
3.0,1.0,1.898
2.0,-2.0,1.899
-2.0,-5.0,1.9
-4.0,-6.0,1.901
4.0,-2.0,1.902
21.0,0.0,1.903
35.0,0.0,1.904
33.0,1.0,1.905
13.0,2.0,1.906
-7.0,3.0,1.907
-11.0,1.0,1.908
-2.0,0.0,1.909
7.0,0.0,1.91
8.0,0.0,1.911
4.0,-2.0,1.912
5.0,-3.0,1.913
2.0,-2.0,1.914
-3.0,0.0,1.915
-7.0,1.0,1.916
-6.0,3.0,1.917
-5.0,2.0,1.918
-5.0,0.0,1.919
-5.0,-3.0,1.92
-3.0,-6.0,1.921
-3.0,-5.0,1.922
0.0,-4.0,1.923
3.0,-5.0,1.924
4.0,-3.0,1.925
-2.0,3.0,1.926
-7.0,4.0,1.927
-4.0,0.0,1.928
2.0,-3.0,1.929
5.0,-2.0,1.93
6.0,-1.0,1.931
15.0,-3.0,1.932
21.0,-3.0,1.933
18.0,-1.0,1.934
11.0,1.0,1.935
7.0,2.0,1.936
11.0,1.0,1.937
8.0,0.0,1.938
0.0,-3.0,1.939
-4.0,-4.0,1.94
2.0,-4.0,1.941
7.0,-3.0,1.942
4.0,-2.0,1.943
1.0,-2.0,1.944
-4.0,0.0,1.945
-8.0,5.0,1.946
-5.0,5.0,1.947
-2.0,0.0,1.948
0.0,-2.0,1.949
0.0,-2.0,1.95
-1.0,-2.0,1.951
-2.0,-3.0,1.952
0.0,-2.0,1.953
1.0,1.0,1.954
0.0,2.0,1.955
0.0,0.0,1.956
1.0,-1.0,1.957
2.0,-2.0,1.958
2.0,-1.0,1.959
0.0,-1.0,1.96
0.0,-2.0,1.961
2.0,-4.0,1.962
9.0,-6.0,1.963
17.0,-4.0,1.964
18.0,0.0,1.965
7.0,4.0,1.966
-10.0,4.0,1.967
-16.0,0.0,1.968
-7.0,-2.0,1.969
5.0,0.0,1.97
13.0,1.0,1.971
14.0,0.0,1.972
14.0,0.0,1.973
14.0,1.0,1.974
9.0,3.0,1.975
2.0,3.0,1.976
0.0,2.0,1.977
1.0,0.0,1.978
-2.0,0.0,1.979
-8.0,-1.0,1.98
-9.0,-6.0,1.981
-4.0,-7.0,1.982
3.0,-6.0,1.983
5.0,-3.0,1.984
5.0,-1.0,1.985
2.0,0.0,1.986
2.0,2.0,1.987
4.0,2.0,1.988
6.0,1.0,1.989
4.0,0.0,1.99
1.0,-1.0,1.991
3.0,-1.0,1.992
7.0,-1.0,1.993
7.0,0.0,1.994
1.0,1.0,1.995
-2.0,0.0,1.996
-1.0,0.0,1.997
0.0,-2.0,1.998
-2.0,-1.0,1.999
-7.0,-1.0,2.0
-8.0,-4.0,2.001
-4.0,-2.0,2.002
0.0,1.0,2.003
4.0,1.0,2.004
6.0,-1.0,2.005
5.0,-2.0,2.006
4.0,0.0,2.007
6.0,1.0,2.008
8.0,-3.0,2.009
5.0,-8.0,2.01
0.0,-5.0,2.011
1.0,0.0,2.012
5.0,2.0,2.013
7.0,-1.0,2.014
5.0,-4.0,2.015
4.0,0.0,2.016
5.0,7.0,2.017
11.0,6.0,2.018
5.0,1.0,2.019
-3.0,-2.0,2.02
-9.0,-5.0,2.021
-13.0,-4.0,2.022
-5.0,0.0,2.023
5.0,1.0,2.024
13.0,2.0,2.025
19.0,2.0,2.026
7.0,1.0,2.027
1.0,0.0,2.028
9.0,-2.0,2.029
13.0,-2.0,2.03
5.0,0.0,2.031
-3.0,-1.0,2.032
5.0,-2.0,2.033
9.0,-2.0,2.034
5.0,-1.0,2.035
3.0,0.0,2.036
5.0,-1.0,2.037
7.0,-3.0,2.038
4.0,-2.0,2.039
0.0,-1.0,2.04
-3.0,0.0,2.041
-5.0,0.0,2.042
-1.0,-1.0,2.043
4.0,-3.0,2.044
8.0,1.0,2.045
11.0,3.0,2.046
5.0,0.0,2.047
2.0,-2.0,2.048
6.0,-1.0,2.049
8.0,0.0,2.05
4.0,1.0,2.051
0.0,1.0,2.052
4.0,0.0,2.053
6.0,-3.0,2.054
4.0,-2.0,2.055
3.0,-1.0,2.056
4.0,-2.0,2.057
5.0,-2.0,2.058
2.0,0.0,2.059
-3.0,0.0,2.06
-6.0,-4.0,2.061
-6.0,-5.0,2.062
0.0,-4.0,2.063
12.0,-2.0,2.064
16.0,1.0,2.065
11.0,3.0,2.066
3.0,2.0,2.067
1.0,-2.0,2.068
3.0,-4.0,2.069
1.0,-2.0,2.07
-1.0,0.0,2.071
0.0,1.0,2.072
3.0,0.0,2.073
2.0,0.0,2.074
-1.0,1.0,2.075
0.0,3.0,2.076
6.0,4.0,2.077
14.0,3.0,2.078
18.0,0.0,2.079
11.0,-3.0,2.08
-5.0,-5.0,2.081
-21.0,-4.0,2.082
-18.0,-2.0,2.083
-1.0,1.0,2.084
13.0,3.0,2.085
11.0,5.0,2.086
4.0,2.0,2.087
2.0,-3.0,2.088
1.0,-6.0,2.089
-3.0,-5.0,2.09
-6.0,-3.0,2.091
-3.0,-3.0,2.092
0.0,-4.0,2.093
-2.0,-3.0,2.094
-6.0,0.0,2.095
-2.0,5.0,2.096
2.0,9.0,2.097
2.0,7.0,2.098
0.0,0.0,2.099
-2.0,-5.0,2.1
-2.0,-6.0,2.101
-1.0,-2.0,2.102
3.0,1.0,2.103
7.0,0.0,2.104
10.0,0.0,2.105
12.0,4.0,2.106
8.0,4.0,2.107
5.0,1.0,2.108
5.0,-1.0,2.109
4.0,0.0,2.11
3.0,0.0,2.111
2.0,0.0,2.112
3.0,0.0,2.113
5.0,3.0,2.114
7.0,3.0,2.115
11.0,3.0,2.116
17.0,4.0,2.117
20.0,3.0,2.118
10.0,0.0,2.119
-11.0,-5.0,2.12
-26.0,-9.0,2.121
-25.0,-7.0,2.122
-12.0,-4.0,2.123
0.0,-2.0,2.124
1.0,-1.0,2.125
-4.0,2.0,2.126
0.0,0.0,2.127
7.0,-7.0,2.128
9.0,-7.0,2.129
5.0,0.0,2.13
12.0,3.0,2.131
25.0,-1.0,2.132
29.0,-5.0,2.133
17.0,-3.0,2.134
5.0,0.0,2.135
8.0,-3.0,2.136
17.0,-4.0,2.137
21.0,-3.0,2.138
11.0,-2.0,2.139
-5.0,-3.0,2.14
-23.0,-6.0,2.141
-32.0,-5.0,2.142
-25.0,-3.0,2.143
-5.0,-2.0,2.144
8.0,-2.0,2.145
5.0,1.0,2.146
-3.0,1.0,2.147
-5.0,-2.0,2.148
0.0,-5.0,2.149
8.0,-3.0,2.15
17.0,-2.0,2.151
22.0,-2.0,2.152
22.0,-2.0,2.153
15.0,0.0,2.154
8.0,0.0,2.155
5.0,2.0,2.156
5.0,5.0,2.157
1.0,7.0,2.158
-2.0,7.0,2.159
-6.0,3.0,2.16
-8.0,-2.0,2.161
-8.0,-1.0,2.162
-2.0,2.0,2.163
7.0,4.0,2.164
7.0,6.0,2.165
0.0,8.0,2.166
-3.0,6.0,2.167
1.0,2.0,2.168
5.0,4.0,2.169
0.0,7.0,2.17
-5.0,4.0,2.171
-4.0,-2.0,2.172
-3.0,-2.0,2.173
-6.0,2.0,2.174
-10.0,3.0,2.175
-9.0,-2.0,2.176
-4.0,-4.0,2.177
-4.0,-5.0,2.178
-4.0,-5.0,2.179
-4.0,-4.0,2.18
-4.0,-8.0,2.181
-3.0,-10.0,2.182
2.0,-8.0,2.183
8.0,-7.0,2.184
12.0,-5.0,2.185
13.0,-4.0,2.186
5.0,-4.0,2.187
0.0,-4.0,2.188
4.0,-4.0,2.189
7.0,-3.0,2.19
7.0,-1.0,2.191
7.0,0.0,2.192
7.0,-1.0,2.193
6.0,-2.0,2.194
0.0,0.0,2.195
-3.0,0.0,2.196
2.0,-1.0,2.197
6.0,-4.0,2.198
9.0,-5.0,2.199
5.0,-2.0,2.2
3.0,-1.0,2.201
2.0,-1.0,2.202
9.0,-1.0,2.203
20.0,2.0,2.204
26.0,4.0,2.205
22.0,5.0,2.206
23.0,3.0,2.207
41.0,3.0,2.208
68.0,2.0,2.209
81.0,0.0,2.21
61.0,0.0,2.211
17.0,0.0,2.212
-19.0,1.0,2.213
-24.0,3.0,2.214
-11.0,5.0,2.215
-18.0,6.0,2.216
-49.0,5.0,2.217
-86.0,-2.0,2.218
-94.0,-7.0,2.219
-93.0,-8.0,2.22
-96.0,-11.0,2.221
-84.0,-9.0,2.222
-36.0,-7.0,2.223
27.0,-6.0,2.224
67.0,-6.0,2.225
76.0,-7.0,2.226
65.0,-6.0,2.227
41.0,-3.0,2.228
18.0,-1.0,2.229
20.0,1.0,2.23
35.0,3.0,2.231
23.0,5.0,2.232
-23.0,5.0,2.233
-54.0,4.0,2.234
-43.0,4.0,2.235
-26.0,2.0,2.236
-29.0,2.0,2.237
-31.0,1.0,2.238
-18.0,1.0,2.239
-13.0,-1.0,2.24
-25.0,-10.0,2.241
-24.0,-17.0,2.242
9.0,-17.0,2.243
42.0,-14.0,2.244
37.0,-7.0,2.245
20.0,0.0,2.246
23.0,4.0,2.247
37.0,8.0,2.248
40.0,11.0,2.249
43.0,12.0,2.25
62.0,9.0,2.251
90.0,3.0,2.252
98.0,0.0,2.253
83.0,2.0,2.254
55.0,3.0,2.255
15.0,4.0,2.256
-30.0,9.0,2.257
-59.0,14.0,2.258
-60.0,14.0,2.259
-61.0,6.0,2.26
-58.0,-5.0,2.261
-50.0,-7.0,2.262
-30.0,-5.0,2.263
-14.0,-4.0,2.264
-18.0,-5.0,2.265
-21.0,-7.0,2.266
-20.0,-8.0,2.267
-17.0,-9.0,2.268
-10.0,-6.0,2.269
1.0,-2.0,2.27
23.0,1.0,2.271
44.0,2.0,2.272
61.0,3.0,2.273
68.0,4.0,2.274
44.0,3.0,2.275
20.0,-1.0,2.276
-1.0,-5.0,2.277
-16.0,-5.0,2.278
2.0,-1.0,2.279
4.0,2.0,2.28
-16.0,4.0,2.281
-27.0,8.0,2.282
-9.0,9.0,2.283
22.0,6.0,2.284
29.0,0.0,2.285
11.0,-1.0,2.286
-17.0,0.0,2.287
-32.0,-1.0,2.288
-29.0,-4.0,2.289
0.0,-8.0,2.29
50.0,-10.0,2.291
96.0,-7.0,2.292
96.0,-1.0,2.293
37.0,5.0,2.294
-42.0,8.0,2.295
-87.0,6.0,2.296
-86.0,3.0,2.297
-75.0,2.0,2.298
-85.0,1.0,2.299
-84.0,-5.0,2.3
-47.0,-15.0,2.301
11.0,-17.0,2.302
78.0,-11.0,2.303
162.0,-1.0,2.304
238.0,6.0,2.305
233.0,10.0,2.306
122.0,9.0,2.307
-17.0,3.0,2.308
-93.0,-7.0,2.309
-113.0,-17.0,2.31
-133.0,-25.0,2.311
-160.0,-32.0,2.312
-158.0,-37.0,2.313
-129.0,-38.0,2.314
-103.0,-37.0,2.315
-81.0,-34.0,2.316
-53.0,-25.0,2.317
-31.0,-16.0,2.318
-30.0,-19.0,2.319
-25.0,-41.0,2.32
10.0,-72.0,2.321
53.0,-86.0,2.322
63.0,-64.0,2.323
52.0,0.0,2.324
48.0,92.0,2.325
54.0,182.0,2.326
55.0,229.0,2.327
54.0,219.0,2.328
60.0,166.0,2.329
60.0,95.0,2.33
44.0,20.0,2.331
30.0,-38.0,2.332
32.0,-66.0,2.333
39.0,-64.0,2.334
36.0,-55.0,2.335
23.0,-52.0,2.336
18.0,-44.0,2.337
20.0,-27.0,2.338
20.0,-12.0,2.339
18.0,-15.0,2.34
11.0,-33.0,2.341
7.0,-41.0,2.342
18.0,-34.0,2.343
28.0,-27.0,2.344
32.0,-28.0,2.345
29.0,-26.0,2.346
5.0,-9.0,2.347
-13.0,21.0,2.348
-10.0,50.0,2.349
0.0,66.0,2.35
29.0,66.0,2.351
44.0,51.0,2.352
13.0,25.0,2.353
-15.0,1.0,2.354
-33.0,-12.0,2.355
-47.0,-10.0,2.356
-45.0,-7.0,2.357
-49.0,-19.0,2.358
-72.0,-40.0,2.359
-90.0,-50.0,2.36
-77.0,-45.0,2.361
-37.0,-32.0,2.362
7.0,-28.0,2.363
32.0,-31.0,2.364
32.0,-30.0,2.365
32.0,-27.0,2.366
47.0,-32.0,2.367
64.0,-48.0,2.368
64.0,-57.0,2.369
60.0,-48.0,2.37
97.0,-33.0,2.371
175.0,-32.0,2.372
208.0,-41.0,2.373
117.0,-40.0,2.374
-56.0,-22.0,2.375
-162.0,0.0,2.376
-115.0,10.0,2.377
46.0,2.0,2.378
117.0,-23.0,2.379
60.0,-61.0,2.38
-46.0,-101.0,2.381
-112.0,-114.0,2.382
-124.0,-85.0,2.383
-127.0,-31.0,2.384
-157.0,8.0,2.385
-214.0,6.0,2.386
-277.0,-18.0,2.387
-304.0,-19.0,2.388
-253.0,15.0,2.389
-133.0,48.0,2.39
-25.0,44.0,2.391
5.0,19.0,2.392
2.0,25.0,2.393
47.0,88.0,2.394
131.0,177.0,2.395
166.0,237.0,2.396
118.0,237.0,2.397
14.0,187.0,2.398
-92.0,141.0,2.399
-166.0,121.0,2.4
-151.0,108.0,2.401
-4.0,104.0,2.402
221.0,129.0,2.403
373.0,184.0,2.404
356.0,201.0,2.405
227.0,139.0,2.406
105.0,56.0,2.407
52.0,21.0,2.408
34.0,8.0,2.409
4.0,-38.0,2.41
-30.0,-89.0,2.411
-27.0,-70.0,2.412
26.0,-10.0,2.413
100.0,-11.0,2.414
140.0,-95.0,2.415
139.0,-175.0,2.416
122.0,-195.0,2.417
103.0,-192.0,2.418
81.0,-200.0,2.419
53.0,-194.0,2.42
6.0,-147.0,2.421
-32.0,-80.0,2.422
-42.0,-17.0,2.423
-59.0,61.0,2.424
-93.0,167.0,2.425
-120.0,252.0,2.426
-126.0,248.0,2.427
-121.0,153.0,2.428
-82.0,46.0,2.429
-34.0,-8.0,2.43
40.0,-25.0,2.431
90.0,-54.0,2.432
61.0,-100.0,2.433
31.0,-110.0,2.434
0.0,-49.0,2.435
-19.0,39.0,2.436
-3.0,82.0,2.437
-9.0,45.0,2.438
-113.0,-26.0,2.439
-197.0,-77.0,2.44
-172.0,-109.0,2.441
-73.0,-145.0,2.442
0.0,-187.0,2.443
-1.0,-196.0,2.444
-36.0,-151.0,2.445
-70.0,-77.0,2.446
-108.0,-4.0,2.447
-136.0,59.0,2.448
-99.0,114.0,2.449
6.0,135.0,2.45
102.0,103.0,2.451
137.0,43.0,2.452
149.0,6.0,2.453
177.0,3.0,2.454
189.0,-6.0,2.455
162.0,-39.0,2.456
140.0,-53.0,2.457
149.0,-22.0,2.458
133.0,6.0,2.459
84.0,-18.0,2.46
91.0,-53.0,2.461
194.0,-16.0,2.462
286.0,61.0,2.463
249.0,74.0,2.464
92.0,8.0,2.465
-77.0,-50.0,2.466
-179.0,-66.0,2.467
-220.0,-84.0,2.468
-237.0,-125.0,2.469
-254.0,-158.0,2.47
-257.0,-179.0,2.471
-232.0,-216.0,2.472
-201.0,-252.0,2.473
-204.0,-238.0,2.474
-239.0,-169.0,2.475
-245.0,-90.0,2.476
-177.0,-22.0,2.477
-46.0,50.0,2.478
56.0,114.0,2.479
67.0,147.0,2.48
32.0,167.0,2.481
37.0,216.0,2.482
80.0,273.0,2.483
72.0,268.0,2.484
6.0,166.0,2.485
-12.0,6.0,2.486
55.0,-134.0,2.487
109.0,-185.0,2.488
81.0,-124.0,2.489
52.0,0.0,2.49
84.0,87.0,2.491
100.0,77.0,2.492
28.0,-10.0,2.493
-62.0,-128.0,2.494
-83.0,-237.0,2.495
-68.0,-282.0,2.496
-74.0,-209.0,2.497
-69.0,-5.0,2.498
-13.0,248.0,2.499
35.0,477.0,2.5
56.0,651.0,2.501
78.0,742.0,2.502
100.0,687.0,2.503
126.0,496.0,2.504
163.0,287.0,2.505
211.0,150.0,2.506
293.0,55.0,2.507
345.0,-59.0,2.508
302.0,-180.0,2.509
222.0,-265.0,2.51
32.0,-307.0,2.511
-124.0,-316.0,2.512
-180.0,-283.0,2.513
-213.0,-221.0,2.514
-171.0,-174.0,2.515
-138.0,-171.0,2.516
-131.0,-189.0,2.517
-122.0,-229.0,2.518
-112.0,-294.0,2.519
-122.0,-357.0,2.52
-139.0,-379.0,2.521
-130.0,-350.0,2.522
-92.0,-302.0,2.523
-45.0,-241.0,2.524
-1.0,-142.0,2.525
38.0,-12.0,2.526
58.0,104.0,2.527
46.0,186.0,2.528
25.0,234.0,2.529
28.0,249.0,2.53
42.0,238.0,2.531
41.0,233.0,2.532
45.0,247.0,2.533
90.0,237.0,2.534
142.0,163.0,2.535
114.0,63.0,2.536
-6.0,6.0,2.537
-165.0,-13.0,2.538
-220.0,-35.0,2.539
-180.0,-46.0,2.54
-91.0,23.0,2.541
18.0,195.0,2.542
123.0,383.0,2.543
171.0,496.0,2.544
143.0,506.0,2.545
79.0,428.0,2.546
36.0,291.0,2.547
29.0,138.0,2.548
42.0,10.0,2.549
65.0,-93.0,2.55
75.0,-205.0,2.551
25.0,-337.0,2.552
-86.0,-470.0,2.553
-191.0,-593.0,2.554
-225.0,-686.0,2.555
-202.0,-689.0,2.556
-173.0,-552.0,2.557
-140.0,-267.0,2.558
-68.0,79.0,2.559
45.0,380.0,2.56
160.0,562.0,2.561
231.0,589.0,2.562
252.0,444.0,2.563
223.0,150.0,2.564
147.0,-232.0,2.565
49.0,-582.0,2.566
-28.0,-763.0,2.567
-52.0,-695.0,2.568
-47.0,-415.0,2.569
-55.0,-31.0,2.57
-83.0,351.0,2.571
-90.0,633.0,2.572
-51.0,719.0,2.573
0.0,586.0,2.574
10.0,322.0,2.575
-14.0,56.0,2.576
-21.0,-135.0,2.577
-3.0,-254.0,2.578
-3.0,-268.0,2.579
-5.0,-176.0,2.58
-16.0,-57.0,2.581
2.0,17.0,2.582
110.0,56.0,2.583
181.0,99.0,2.584
138.0,119.0,2.585
78.0,80.0,2.586
-34.0,31.0,2.587
-120.0,46.0,2.588
-124.0,97.0,2.589
-104.0,80.0,2.59
-13.0,-22.0,2.591
64.0,-119.0,2.592
100.0,-148.0,2.593
113.0,-130.0,2.594
56.0,-105.0,2.595
8.0,-90.0,2.596
-11.0,-100.0,2.597
-39.0,-148.0,2.598
-114.0,-202.0,2.599
-203.0,-235.0,2.6
-235.0,-294.0,2.601
-186.0,-426.0,2.602
-89.0,-564.0,2.603
30.0,-552.0,2.604
151.0,-324.0,2.605
234.0,3.0,2.606
241.0,260.0,2.607
180.0,373.0,2.608
93.0,375.0,2.609
22.0,321.0,2.61
-2.0,250.0,2.611
35.0,212.0,2.612
88.0,280.0,2.613
73.0,486.0,2.614
-32.0,736.0,2.615
-133.0,849.0,2.616
-146.0,738.0,2.617
-117.0,442.0,2.618
-151.0,128.0,2.619
-186.0,-74.0,2.62
-103.0,-126.0,2.621
86.0,-60.0,2.622
240.0,27.0,2.623
274.0,29.0,2.624
225.0,-70.0,2.625
147.0,-191.0,2.626
41.0,-281.0,2.627
-80.0,-374.0,2.628
-148.0,-493.0,2.629
-112.0,-601.0,2.63
-18.0,-682.0,2.631
25.0,-788.0,2.632
-50.0,-905.0,2.633
-188.0,-866.0,2.634
-253.0,-519.0,2.635
-184.0,51.0,2.636
-69.0,543.0,2.637
-22.0,773.0,2.638
-61.0,672.0,2.639
-111.0,326.0,2.64
-125.0,-115.0,2.641
-131.0,-513.0,2.642
-139.0,-778.0,2.643
-112.0,-811.0,2.644
-25.0,-501.0,2.645
82.0,163.0,2.646
159.0,967.0,2.647
176.0,1599.0,2.648
151.0,1907.0,2.649
149.0,1949.0,2.65
204.0,1808.0,2.651
247.0,1499.0,2.652
180.0,1075.0,2.653
39.0,648.0,2.654
-28.0,222.0,2.655
12.0,-342.0,2.656
45.0,-1025.0,2.657
8.0,-1640.0,2.658
-11.0,-1743.0,2.659
-14.0,-1158.0,2.66
31.0,-231.0,2.661
72.0,472.0,2.662
94.0,677.0,2.663
109.0,543.0,2.664
96.0,295.0,2.665
76.0,-90.0,2.666
37.0,-670.0,2.667
-7.0,-1219.0,2.668
-66.0,-1387.0,2.669
-117.0,-1111.0,2.67
-143.0,-654.0,2.671
-156.0,-265.0,2.672
-123.0,3.0,2.673
-87.0,159.0,2.674
-45.0,180.0,2.675
-4.0,57.0,2.676
32.0,-168.0,2.677
36.0,-538.0,2.678
-54.0,-1009.0,2.679
-55.0,-1400.0,2.68
51.0,-1451.0,2.681
140.0,-1020.0,2.682
135.0,-208.0,2.683
90.0,714.0,2.684
67.0,1482.0,2.685
75.0,1954.0,2.686
97.0,2097.0,2.687
118.0,1899.0,2.688
117.0,1347.0,2.689
95.0,522.0,2.69
74.0,-361.0,2.691
55.0,-1038.0,2.692
-3.0,-1321.0,2.693
-109.0,-1189.0,2.694
-218.0,-793.0,2.695
-281.0,-330.0,2.696
-294.0,73.0,2.697
-253.0,442.0,2.698
-177.0,709.0,2.699
-86.0,762.0,2.7
12.0,612.0,2.701
111.0,427.0,2.702
158.0,341.0,2.703
92.0,371.0,2.704
-41.0,469.0,2.705
-95.0,557.0,2.706
-20.0,510.0,2.707
76.0,282.0,2.708
114.0,-3.0,2.709
148.0,-202.0,2.71
216.0,-345.0,2.711
222.0,-505.0,2.712
86.0,-614.0,2.713
-91.0,-584.0,2.714
-168.0,-506.0,2.715
-142.0,-510.0,2.716
-99.0,-540.0,2.717
-64.0,-470.0,2.718
-20.0,-328.0,2.719
8.0,-237.0,2.72
0.0,-187.0,2.721
-4.0,-90.0,2.722
10.0,6.0,2.723
-19.0,-1.0,2.724
-115.0,-59.0,2.725
-199.0,-22.0,2.726
-189.0,101.0,2.727
-97.0,181.0,2.728
17.0,178.0,2.729
102.0,142.0,2.73
113.0,86.0,2.731
65.0,9.0,2.732
68.0,-30.0,2.733
187.0,-3.0,2.734
300.0,5.0,2.735
250.0,-72.0,2.736
96.0,-161.0,2.737
-178.0,-177.0,2.738
-148.0,-151.0,2.739
-119.0,-168.0,2.74
-88.0,-200.0,2.741
-43.0,-151.0,2.742
38.0,-28.0,2.743
93.0,96.0,2.744
69.0,207.0,2.745
50.0,335.0,2.746
45.0,454.0,2.747
43.0,501.0,2.748
48.0,461.0,2.749
54.0,352.0,2.75
60.0,185.0,2.751
64.0,-9.0,2.752
56.0,-147.0,2.753
47.0,-187.0,2.754
41.0,-181.0,2.755
48.0,-196.0,2.756
101.0,-219.0,2.757
-162.0,-200.0,2.758
-135.0,-140.0,2.759
-108.0,-80.0,2.76
-80.0,-20.0,2.761
-39.0,20.0,2.762
36.0,-5.0,2.763
87.0,-54.0,2.764
65.0,-174.0,2.765
47.0,-258.0,2.766
43.0,-235.0,2.767
41.0,-171.0,2.768
46.0,17.0,2.769
51.0,147.0,2.77
57.0,97.0,2.771
60.0,29.0,2.772
53.0,-95.0,2.773
45.0,-91.0,2.774
39.0,298.0,2.775
46.0,666.0,2.776
94.0,964.0,2.777
146.0,1164.0,2.778
157.0,931.0,2.779
96.0,553.0,2.78
44.0,203.0,2.781
39.0,-27.0,2.782
51.0,-138.0,2.783
49.0,-183.0,2.784
43.0,-219.0,2.785
18.0,-274.0,2.786
-50.0,-336.0,2.787
-123.0,-392.0,2.788
-137.0,-447.0,2.789
-70.0,-485.0,2.79
36.0,-450.0,2.791
129.0,-291.0,2.792
161.0,-32.0,2.793
98.0,232.0,2.794
-22.0,408.0,2.795
-126.0,456.0,2.796
-186.0,391.0,2.797
-233.0,218.0,2.798
-250.0,-3.0,2.799
-186.0,-178.0,2.8
-62.0,-239.0,2.801
11.0,-229.0,2.802
-8.0,-253.0,2.803
-47.0,-339.0,2.804
-33.0,-409.0,2.805
17.0,-405.0,2.806
78.0,-340.0,2.807
152.0,-232.0,2.808
181.0,-60.0,2.809
86.0,167.0,2.81
-64.0,374.0,2.811
-98.0,478.0,2.812
20.0,443.0,2.813
122.0,262.0,2.814
91.0,-3.0,2.815
2.0,-210.0,2.816
-41.0,-268.0,2.817
-66.0,-226.0,2.818
-113.0,-182.0,2.819
-150.0,-158.0,2.82
-155.0,-123.0,2.821
-138.0,-87.0,2.822
-52.0,-81.0,2.823
33.0,-80.0,2.824
117.0,-60.0,2.825
165.0,-58.0,2.826
106.0,-102.0,2.827
61.0,-133.0,2.828
59.0,-115.0,2.829
59.0,-113.0,2.83
64.0,-161.0,2.831
60.0,-142.0,2.832
24.0,50.0,2.833
-1.0,319.0,2.834
7.0,450.0,2.835
14.0,351.0,2.836
19.0,125.0,2.837
19.0,-149.0,2.838
9.0,-375.0,2.839
17.0,-446.0,2.84
10.0,-296.0,2.841
-22.0,-7.0,2.842
-45.0,227.0,2.843
-41.0,293.0,2.844
-25.0,216.0,2.845
-1.0,61.0,2.846
28.0,-97.0,2.847
11.0,-133.0,2.848
-70.0,48.0,2.849
-131.0,382.0,2.85
-89.0,678.0,2.851
-4.0,807.0,2.852
22.0,764.0,2.853
17.0,600.0,2.854
63.0,377.0,2.855
137.0,166.0,2.856
150.0,10.0,2.857
102.0,-135.0,2.858
75.0,-273.0,2.859
75.0,-366.0,2.86
49.0,-412.0,2.861
-9.0,-457.0,2.862
-52.0,-505.0,2.863
-77.0,-476.0,2.864
-106.0,-330.0,2.865
-102.0,-140.0,2.866
-28.0,3.0,2.867
52.0,88.0,2.868
49.0,147.0,2.869
-21.0,182.0,2.87
-62.0,181.0,2.871
-49.0,156.0,2.872
-41.0,108.0,2.873
-54.0,25.0,2.874
-41.0,-81.0,2.875
13.0,-173.0,2.876
49.0,-222.0,2.877
26.0,-235.0,2.878
-28.0,-221.0,2.879
-63.0,-202.0,2.88
-60.0,-210.0,2.881
-31.0,-224.0,2.882
1.0,-173.0,2.883
30.0,-20.0,2.884
70.0,156.0,2.885
123.0,236.0,2.886
135.0,190.0,2.887
69.0,79.0,2.888
-8.0,-43.0,2.889
-5.0,-162.0,2.89
44.0,-258.0,2.891
31.0,-294.0,2.892
-37.0,-249.0,2.893
-54.0,-109.0,2.894
0.0,115.0,2.895
26.0,360.0,2.896
3.0,512.0,2.897
-5.0,523.0,2.898
8.0,461.0,2.899
0.0,390.0,2.9
-75.0,290.0,2.901
-122.0,176.0,2.902
-82.0,25.0,2.903
-49.0,-94.0,2.904
-38.0,-119.0,2.905
-13.0,-183.0,2.906
51.0,-364.0,2.907
90.0,-530.0,2.908
52.0,-651.0,2.909
25.0,-624.0,2.91
30.0,-151.0,2.911
38.0,301.0,2.912
55.0,690.0,2.913
63.0,909.0,2.914
37.0,614.0,2.915
13.0,299.0,2.916
-6.0,-77.0,2.917
-16.0,-410.0,2.918
20.0,-530.0,2.919
49.0,-554.0,2.92
25.0,-585.0,2.921
-26.0,-599.0,2.922
-34.0,-477.0,2.923
-1.0,-159.0,2.924
6.0,271.0,2.925
-32.0,669.0,2.926
-58.0,916.0,2.927
-23.0,956.0,2.928
41.0,820.0,2.929
76.0,617.0,2.93
64.0,430.0,2.931
38.0,240.0,2.932
29.0,2.0,2.933
35.0,-286.0,2.934
17.0,-581.0,2.935
-50.0,-836.0,2.936
-143.0,-1008.0,2.937
-211.0,-1077.0,2.938
-209.0,-974.0,2.939
-155.0,-643.0,2.94
-84.0,-99.0,2.941
9.0,515.0,2.942
149.0,985.0,2.943
277.0,1173.0,2.944
265.0,1068.0,2.945
97.0,707.0,2.946
-45.0,162.0,2.947
-3.0,-386.0,2.948
124.0,-710.0,2.949
115.0,-753.0,2.95
-40.0,-675.0,2.951
-138.0,-640.0,2.952
-94.0,-689.0,2.953
-47.0,-803.0,2.954
-114.0,-929.0,2.955
-205.0,-891.0,2.956
-206.0,-521.0,2.957
-133.0,232.0,2.958
-63.0,1079.0,2.959
-17.0,1684.0,2.96
36.0,1911.0,2.961
85.0,1802.0,2.962
107.0,1429.0,2.963
110.0,889.0,2.964
111.0,350.0,2.965
99.0,-29.0,2.966
74.0,-215.0,2.967
70.0,-302.0,2.968
110.0,-372.0,2.969
142.0,-416.0,2.97
92.0,-395.0,2.971
-44.0,-345.0,2.972
-161.0,-367.0,2.973
-146.0,-506.0,2.974
-12.0,-710.0,2.975
108.0,-879.0,2.976
120.0,-932.0,2.977
-2.0,-935.0,2.978
13.0,-968.0,2.979
24.0,-989.0,2.98
15.0,-973.0,2.981
9.0,-958.0,2.982
10.0,-958.0,2.983
14.0,-775.0,2.984
25.0,-56.0,2.985
22.0,609.0,2.986
-26.0,1099.0,2.987
-63.0,1402.0,2.988
-61.0,1140.0,2.989
-61.0,839.0,2.99
-67.0,424.0,2.991
-76.0,75.0,2.992
-87.0,-70.0,2.993
-75.0,-221.0,2.994
12.0,-395.0,2.995
80.0,-499.0,2.996
88.0,-395.0,2.997
-1.0,-518.0,2.998
16.0,-534.0,2.999
28.0,-544.0,3.0
18.0,-536.0,3.001
11.0,-529.0,3.002
12.0,-529.0,3.003
17.0,-441.0,3.004
29.0,-94.0,3.005
25.0,226.0,3.006
-28.0,462.0,3.007
-68.0,608.0,3.008
-66.0,482.0,3.009
-66.0,337.0,3.01
-73.0,137.0,3.011
-82.0,-31.0,3.012
-95.0,-101.0,3.013
-81.0,-174.0,3.014
15.0,-258.0,3.015
89.0,-308.0,3.016
97.0,-258.0,3.017
80.0,-210.0,3.018
-14.0,-200.0,3.019
-63.0,-219.0,3.02
-53.0,-229.0,3.021
-10.0,-227.0,3.022
42.0,-188.0,3.023
73.0,-43.0,3.024
43.0,195.0,3.025
-28.0,394.0,3.026
-71.0,458.0,3.027
-30.0,398.0,3.028
64.0,260.0,3.029
142.0,61.0,3.03
165.0,-132.0,3.031
136.0,-221.0,3.032
79.0,-211.0,3.033
11.0,-223.0,3.034
-36.0,-328.0,3.035
-26.0,-488.0,3.036
56.0,-655.0,3.037
169.0,-832.0,3.038
189.0,-891.0,3.039
60.0,-611.0,3.04
-101.0,53.0,3.041
-141.0,847.0,3.042
-78.0,1400.0,3.043
-76.0,1517.0,3.044
-189.0,1257.0,3.045
-297.0,822.0,3.046
-294.0,416.0,3.047
-218.0,126.0,3.048
-146.0,-81.0,3.049
-92.0,-237.0,3.05
-54.0,-302.0,3.051
-29.0,-253.0,3.052
14.0,-148.0,3.053
105.0,-54.0,3.054
188.0,30.0,3.055
180.0,95.0,3.056
116.0,86.0,3.057
96.0,-14.0,3.058
129.0,-114.0,3.059
144.0,-194.0,3.06
98.0,-214.0,3.061
66.0,-256.0,3.062
78.0,-362.0,3.063
88.0,-438.0,3.064
94.0,-419.0,3.065
97.0,-373.0,3.066
90.0,-250.0,3.067
69.0,-146.0,3.068
6.0,-103.0,3.069
-37.0,-123.0,3.07
-21.0,-338.0,3.071
-17.0,-494.0,3.072
-55.0,-470.0,3.073
-73.0,-325.0,3.074
-27.0,183.0,3.075
1.0,630.0,3.076
-20.0,896.0,3.077
-45.0,1108.0,3.078
-64.0,1081.0,3.079
-58.0,916.0,3.08
-46.0,657.0,3.081
-21.0,424.0,3.082
21.0,282.0,3.083
52.0,173.0,3.084
46.0,-4.0,3.085
33.0,-240.0,3.086
53.0,-436.0,3.087
104.0,-545.0,3.088
135.0,-619.0,3.089
104.0,-689.0,3.09
17.0,-710.0,3.091
-79.0,-596.0,3.092
-139.0,-316.0,3.093
-157.0,86.0,3.094
-151.0,485.0,3.095
-125.0,733.0,3.096
-74.0,758.0,3.097
-18.0,577.0,3.098
-6.0,285.0,3.099
-54.0,-7.0,3.1
-97.0,-219.0,3.101
-76.0,-303.0,3.102
-5.0,-287.0,3.103
57.0,-248.0,3.104
86.0,-236.0,3.105
98.0,-238.0,3.106
86.0,-228.0,3.107
38.0,-204.0,3.108
-6.0,-176.0,3.109
17.0,-153.0,3.11
85.0,-150.0,3.111
89.0,-164.0,3.112
-10.0,-168.0,3.113
-118.0,-124.0,3.114
-129.0,-32.0,3.115
-60.0,72.0,3.116
-6.0,142.0,3.117
-16.0,152.0,3.118
-49.0,113.0,3.119
-35.0,60.0,3.12
56.0,36.0,3.121
174.0,45.0,3.122
227.0,42.0,3.123
168.0,-24.0,3.124
45.0,-141.0,3.125
-41.0,-228.0,3.126
-46.0,-210.0,3.127
-20.0,-115.0,3.128
-23.0,-30.0,3.129
-57.0,7.0,3.13
-82.0,46.0,3.131
-80.0,136.0,3.132
-59.0,245.0,3.133
-31.0,319.0,3.134
5.0,330.0,3.135
44.0,272.0,3.136
68.0,162.0,3.137
41.0,19.0,3.138
-21.0,-76.0,3.139
-56.0,-81.0,3.14
-5.0,-33.0,3.141
47.0,6.0,3.142
91.0,-16.0,3.143
108.0,-144.0,3.144
38.0,-396.0,3.145
-7.0,-681.0,3.146
17.0,-783.0,3.147
35.0,-509.0,3.148
32.0,109.0,3.149
12.0,804.0,3.15
-63.0,1251.0,3.151
-118.0,1282.0,3.152
-109.0,941.0,3.153
-94.0,437.0,3.154
-70.0,4.0,3.155
-48.0,-235.0,3.156
-36.0,-310.0,3.157
33.0,-321.0,3.158
-20.0,-317.0,3.159
-49.0,-294.0,3.16
-5.0,-216.0,3.161
38.0,-123.0,3.162
75.0,17.0,3.163
89.0,121.0,3.164
31.0,118.0,3.165
-7.0,67.0,3.166
13.0,-123.0,3.167
28.0,-305.0,3.168
26.0,-459.0,3.169
9.0,-506.0,3.17
-55.0,-226.0,3.171
-101.0,61.0,3.172
-93.0,368.0,3.173
-81.0,575.0,3.174
-61.0,480.0,3.175
-42.0,371.0,3.176
-32.0,225.0,3.177
-21.0,74.0,3.178
-13.0,-95.0,3.179
-2.0,-243.0,3.18
8.0,-323.0,3.181
16.0,-329.0,3.182
25.0,-292.0,3.183
38.0,-228.0,3.184
49.0,-134.0,3.185
47.0,-18.0,3.186
33.0,88.0,3.187
16.0,154.0,3.188
2.0,166.0,3.189
-4.0,135.0,3.19
-4.0,82.0,3.191
-11.0,12.0,3.192
-35.0,-74.0,3.193
-60.0,-167.0,3.194
-47.0,-242.0,3.195
11.0,-274.0,3.196
70.0,-264.0,3.197
95.0,-217.0,3.198
88.0,-138.0,3.199
77.0,-47.0,3.2
73.0,13.0,3.201
82.0,36.0,3.202
107.0,54.0,3.203
136.0,93.0,3.204
123.0,123.0,3.205
26.0,106.0,3.206
-132.0,57.0,3.207
-268.0,-2.0,3.208
-308.0,-108.0,3.209
-247.0,-292.0,3.21
-157.0,-470.0,3.211
-107.0,-459.0,3.212
-98.0,-168.0,3.213
-65.0,289.0,3.214
33.0,689.0,3.215
154.0,844.0,3.216
209.0,714.0,3.217
-56.0,-2.0,3.218
-83.0,45.0,3.219
-111.0,77.0,3.22
-146.0,52.0,3.221
-171.0,19.0,3.222
-165.0,-39.0,3.223
-151.0,-103.0,3.224
-113.0,-174.0,3.225
-73.0,-200.0,3.226
-30.0,-94.0,3.227
13.0,41.0,3.228
57.0,269.0,3.229
95.0,452.0,3.23
114.0,491.0,3.231
121.0,445.0,3.232
88.0,131.0,3.233
57.0,-124.0,3.234
32.0,-213.0,3.235
15.0,-282.0,3.236
23.0,-282.0,3.237
-81.0,9.0,3.238
-127.0,36.0,3.239
-177.0,54.0,3.24
-238.0,40.0,3.241
-281.0,21.0,3.242
-271.0,-12.0,3.243
-247.0,-48.0,3.244
-180.0,-88.0,3.245
-111.0,-103.0,3.246
-35.0,-43.0,3.247
41.0,34.0,3.248
118.0,163.0,3.249
184.0,266.0,3.25
218.0,288.0,3.251
230.0,262.0,3.252
172.0,85.0,3.253
118.0,-60.0,3.254
74.0,-110.0,3.255
44.0,-149.0,3.256
59.0,-149.0,3.257
54.0,-153.0,3.258
-30.0,-163.0,3.259
-79.0,-199.0,3.26
-51.0,-343.0,3.261
-2.0,-584.0,3.262
17.0,-708.0,3.263
-4.0,-453.0,3.264
-44.0,183.0,3.265
-71.0,890.0,3.266
-42.0,1298.0,3.267
26.0,1270.0,3.268
53.0,926.0,3.269
-3.0,499.0,3.27
-68.0,189.0,3.271
-36.0,44.0,3.272
88.0,-55.0,3.273
191.0,-225.0,3.274
172.0,-409.0,3.275
27.0,-470.0,3.276
-134.0,-410.0,3.277
135.0,-179.0,3.278
116.0,-129.0,3.279
87.0,-73.0,3.28
37.0,1.0,3.281
-7.0,70.0,3.282
-40.0,126.0,3.283
-66.0,178.0,3.284
-69.0,214.0,3.285
-61.0,245.0,3.286
-14.0,259.0,3.287
27.0,278.0,3.288
55.0,310.0,3.289
84.0,313.0,3.29
116.0,224.0,3.291
135.0,132.0,3.292
116.0,30.0,3.293
83.0,-62.0,3.294
11.0,-121.0,3.295
-69.0,-167.0,3.296
-180.0,-179.0,3.297
109.0,-240.0,3.298
94.0,-178.0,3.299
72.0,-109.0,3.3
34.0,-17.0,3.301
0.0,69.0,3.302
-25.0,139.0,3.303
-45.0,204.0,3.304
-47.0,249.0,3.305
-41.0,287.0,3.306
-5.0,305.0,3.307
27.0,328.0,3.308
48.0,368.0,3.309
70.0,371.0,3.31
94.0,261.0,3.311
109.0,147.0,3.312
94.0,19.0,3.313
69.0,-95.0,3.314
14.0,-168.0,3.315
-47.0,-226.0,3.316
-131.0,-240.0,3.317
-191.0,-273.0,3.318
-150.0,-371.0,3.319
-101.0,-428.0,3.32
-89.0,-395.0,3.321
-97.0,-291.0,3.322
-94.0,-155.0,3.323
-79.0,-2.0,3.324
-54.0,138.0,3.325
-29.0,217.0,3.326
-20.0,202.0,3.327
-16.0,92.0,3.328
19.0,-83.0,3.329
71.0,-260.0,3.33
75.0,-378.0,3.331
12.0,-411.0,3.332
-46.0,-323.0,3.333
-36.0,-30.0,3.334
17.0,482.0,3.335
60.0,1014.0,3.336
78.0,1273.0,3.337
80.0,1150.0,3.338
71.0,775.0,3.339
60.0,362.0,3.34
60.0,65.0,3.341
68.0,-49.0,3.342
70.0,-32.0,3.343
60.0,-29.0,3.344
27.0,-141.0,3.345
-43.0,-302.0,3.346
-109.0,-375.0,3.347
-76.0,-337.0,3.348
61.0,-259.0,3.349
161.0,-178.0,3.35
113.0,-88.0,3.351
-15.0,-18.0,3.352
-79.0,-11.0,3.353
-58.0,-56.0,3.354
-34.0,-101.0,3.355
-37.0,-132.0,3.356
-31.0,-166.0,3.357
-26.0,-230.0,3.358
-48.0,-311.0,3.359
-83.0,-375.0,3.36
-93.0,-389.0,3.361
-96.0,-342.0,3.362
-126.0,-276.0,3.363
-144.0,-227.0,3.364
-101.0,-185.0,3.365
-15.0,-120.0,3.366
43.0,-40.0,3.367
73.0,17.0,3.368
111.0,62.0,3.369
155.0,137.0,3.37
171.0,255.0,3.371
156.0,368.0,3.372
127.0,422.0,3.373
90.0,394.0,3.374
43.0,298.0,3.375
15.0,180.0,3.376
29.0,88.0,3.377
54.0,10.0,3.378
36.0,-69.0,3.379
-36.0,-130.0,3.38
-98.0,-121.0,3.381
-112.0,-30.0,3.382
-91.0,63.0,3.383
-57.0,86.0,3.384
-15.0,29.0,3.385
31.0,-103.0,3.386
51.0,-317.0,3.387
31.0,-567.0,3.388
7.0,-743.0,3.389
29.0,-757.0,3.39
101.0,-574.0,3.391
175.0,-183.0,3.392
199.0,367.0,3.393
156.0,895.0,3.394
58.0,1180.0,3.395
-57.0,1180.0,3.396
-136.0,1056.0,3.397
-163.0,918.0,3.398
-150.0,754.0,3.399
-133.0,506.0,3.4
-127.0,206.0,3.401
-118.0,-35.0,3.402
-97.0,-174.0,3.403
-75.0,-252.0,3.404
-59.0,-318.0,3.405
-35.0,-384.0,3.406
18.0,-435.0,3.407
86.0,-461.0,3.408
119.0,-467.0,3.409
90.0,-469.0,3.41
30.0,-471.0,3.411
-15.0,-463.0,3.412
-31.0,-433.0,3.413
-42.0,-394.0,3.414
-48.0,-342.0,3.415
-29.0,-231.0,3.416
14.0,-44.0,3.417
53.0,186.0,3.418
82.0,338.0,3.419
113.0,336.0,3.42
149.0,208.0,3.421
142.0,30.0,3.422
59.0,-120.0,3.423
-57.0,-157.0,3.424
-129.0,-31.0,3.425
-122.0,171.0,3.426
-65.0,305.0,3.427
7.0,314.0,3.428
93.0,267.0,3.429
178.0,194.0,3.43
201.0,64.0,3.431
110.0,-103.0,3.432
-35.0,-217.0,3.433
-117.0,-266.0,3.434
-112.0,-312.0,3.435
-104.0,-336.0,3.436
-144.0,-246.0,3.437
-181.0,-23.0,3.438
-155.0,187.0,3.439
-106.0,268.0,3.44
-94.0,249.0,3.441
-98.0,216.0,3.442
-61.0,192.0,3.443
5.0,195.0,3.444
53.0,235.0,3.445
74.0,248.0,3.446
87.0,151.0,3.447
91.0,-12.0,3.448
85.0,-122.0,3.449
85.0,-146.0,3.45
85.0,-165.0,3.451
54.0,-215.0,3.452
-3.0,-244.0,3.453
-29.0,-222.0,3.454
5.0,-194.0,3.455
64.0,-191.0,3.456
98.0,-188.0,3.457
94.0,-171.0,3.458
61.0,-175.0,3.459
13.0,-224.0,3.46
-2.0,-287.0,3.461
34.0,-304.0,3.462
77.0,-237.0,3.463
66.0,-51.0,3.464
11.0,265.0,3.465
-23.0,641.0,3.466
-17.0,910.0,3.467
-17.0,909.0,3.468
-53.0,631.0,3.469
-93.0,247.0,3.47
-98.0,-33.0,3.471
-66.0,-124.0,3.472
-24.0,-96.0,3.473
15.0,-60.0,3.474
50.0,-60.0,3.475
87.0,-78.0,3.476
121.0,-97.0,3.477
117.0,-140.0,3.478
67.0,-189.0,3.479
14.0,-212.0,3.48
-51.0,-157.0,3.481
-104.0,-118.0,3.482
-124.0,-131.0,3.483
-127.0,-149.0,3.484
-79.0,-184.0,3.485
-38.0,-197.0,3.486
-17.0,-139.0,3.487
2.0,-57.0,3.488
16.0,97.0,3.489
28.0,219.0,3.49
30.0,241.0,3.491
36.0,241.0,3.492
48.0,169.0,3.493
47.0,89.0,3.494
9.0,-12.0,3.495
-16.0,-108.0,3.496
-4.0,-185.0,3.497
14.0,-247.0,3.498
38.0,-259.0,3.499
65.0,-264.0,3.5
124.0,-233.0,3.501
169.0,-122.0,3.502
122.0,42.0,3.503
-7.0,188.0,3.504
-114.0,250.0,3.505
-132.0,235.0,3.506
-110.0,209.0,3.507
-118.0,228.0,3.508
-149.0,265.0,3.509
-141.0,242.0,3.51
-86.0,129.0,3.511
-32.0,-17.0,3.512
-9.0,-98.0,3.513
7.0,-49.0,3.514
39.0,94.0,3.515
67.0,207.0,3.516
58.0,179.0,3.517
19.0,-21.0,3.518
-12.0,-304.0,3.519
-4.0,-547.0,3.52
35.0,-614.0,3.521
81.0,-395.0,3.522
111.0,65.0,3.523
116.0,532.0,3.524
94.0,756.0,3.525
54.0,673.0,3.526
15.0,400.0,3.527
-12.0,78.0,3.528
-21.0,-169.0,3.529
-11.0,-260.0,3.53
9.0,-210.0,3.531
25.0,-137.0,3.532
26.0,-107.0,3.533
20.0,-88.0,3.534
11.0,-54.0,3.535
-8.0,-53.0,3.536
-27.0,-93.0,3.537
-42.0,-126.0,3.538
-47.0,-123.0,3.539
-46.0,-130.0,3.54
-38.0,-167.0,3.541
-23.0,-172.0,3.542
3.0,-131.0,3.543
38.0,-97.0,3.544
63.0,-98.0,3.545
57.0,-92.0,3.546
13.0,-71.0,3.547
-36.0,-67.0,3.548
-46.0,-82.0,3.549
-16.0,-71.0,3.55
3.0,-34.0,3.551
-21.0,-7.0,3.552
-59.0,18.0,3.553
-63.0,77.0,3.554
-38.0,153.0,3.555
-23.0,187.0,3.556
-26.0,170.0,3.557
-23.0,136.0,3.558
1.0,107.0,3.559
22.0,62.0,3.56
18.0,2.0,3.561
-1.0,-39.0,3.562
-5.0,-55.0,3.563
8.0,-58.0,3.564
19.0,-33.0,3.565
18.0,29.0,3.566
10.0,102.0,3.567
8.0,137.0,3.568
17.0,125.0,3.569
27.0,91.0,3.57
28.0,54.0,3.571
18.0,11.0,3.572
9.0,-24.0,3.573
11.0,-43.0,3.574
17.0,-49.0,3.575
16.0,-47.0,3.576
11.0,-39.0,3.577
6.0,-26.0,3.578
7.0,-18.0,3.579
6.0,-20.0,3.58
2.0,-21.0,3.581
2.0,-17.0,3.582
10.0,-14.0,3.583
17.0,-13.0,3.584
20.0,-5.0,3.585
24.0,7.0,3.586
26.0,8.0,3.587
15.0,5.0,3.588
-12.0,9.0,3.589
-39.0,16.0,3.59
-46.0,12.0,3.591
-25.0,2.0,3.592
4.0,0.0,3.593
20.0,5.0,3.594
22.0,6.0,3.595
25.0,3.0,3.596
34.0,3.0,3.597
38.0,-3.0,3.598
33.0,-13.0,3.599
30.0,-19.0,3.6
45.0,-13.0,3.601
72.0,-2.0,3.602
86.0,0.0,3.603
63.0,2.0,3.604
0.0,10.0,3.605
-73.0,13.0,3.606
-116.0,8.0,3.607
-115.0,3.0,3.608
-91.0,9.0,3.609
-75.0,15.0,3.61
-70.0,8.0,3.611
-62.0,-4.0,3.612
-45.0,-7.0,3.613
-32.0,-1.0,3.614
-32.0,3.0,3.615
-39.0,0.0,3.616
-34.0,-5.0,3.617
-19.0,-10.0,3.618
-2.0,-12.0,3.619
5.0,-11.0,3.62
10.0,-7.0,3.621
20.0,-1.0,3.622
39.0,0.0,3.623
60.0,-2.0,3.624
71.0,0.0,3.625
68.0,1.0,3.626
52.0,-2.0,3.627
39.0,-6.0,3.628
36.0,-4.0,3.629
38.0,2.0,3.63
36.0,5.0,3.631
30.0,4.0,3.632
29.0,7.0,3.633
34.0,12.0,3.634
35.0,9.0,3.635
29.0,0.0,3.636
28.0,0.0,3.637
37.0,3.0,3.638
46.0,1.0,3.639
32.0,-6.0,3.64
1.0,-12.0,3.641
-12.0,-11.0,3.642
15.0,-10.0,3.643
45.0,-13.0,3.644
21.0,-6.0,3.645
-57.0,10.0,3.646
-111.0,21.0,3.647
-80.0,21.0,3.648
4.0,22.0,3.649
61.0,24.0,3.65
50.0,13.0,3.651
-8.0,-6.0,3.652
-77.0,-17.0,3.653
-130.0,-13.0,3.654
-142.0,-12.0,3.655
-113.0,-24.0,3.656
-75.0,-33.0,3.657
-44.0,-28.0,3.658
-13.0,-16.0,3.659
54.0,-11.0,3.66
164.0,-12.0,3.661
262.0,-4.0,3.662
263.0,10.0,3.663
135.0,21.0,3.664
-47.0,27.0,3.665
-165.0,30.0,3.666
-179.0,32.0,3.667
-154.0,27.0,3.668
-157.0,16.0,3.669
-160.0,8.0,3.67
-105.0,3.0,3.671
-1.0,-2.0,3.672
81.0,-14.0,3.673
99.0,-23.0,3.674
68.0,-30.0,3.675
36.0,-33.0,3.676
33.0,-33.0,3.677
55.0,-32.0,3.678
76.0,-27.0,3.679
66.0,-16.0,3.68
36.0,-4.0,3.681
20.0,7.0,3.682
25.0,12.0,3.683
25.0,15.0,3.684
7.0,19.0,3.685
-1.0,21.0,3.686
23.0,14.0,3.687
57.0,2.0,3.688
61.0,-8.0,3.689
29.0,-11.0,3.69
-16.0,-8.0,3.691
-47.0,-1.0,3.692
-56.0,8.0,3.693
-56.0,13.0,3.694
-58.0,14.0,3.695
-58.0,12.0,3.696
-52.0,13.0,3.697
-49.0,13.0,3.698
-58.0,11.0,3.699
-61.0,5.0,3.7
-28.0,-4.0,3.701
48.0,-7.0,3.702
126.0,-6.0,3.703
164.0,-7.0,3.704
148.0,-10.0,3.705
123.0,-9.0,3.706
156.0,-2.0,3.707
237.0,4.0,3.708
237.0,0.0,3.709
62.0,-6.0,3.71
-180.0,-9.0,3.711
-284.0,-9.0,3.712
-215.0,-9.0,3.713
-141.0,-9.0,3.714
-159.0,-7.0,3.715
-173.0,-1.0,3.716
-100.0,2.0,3.717
5.0,-1.0,3.718
36.0,-5.0,3.719
-6.0,-4.0,3.72
-51.0,1.0,3.721
-69.0,13.0,3.722
-56.0,20.0,3.723
-4.0,18.0,3.724
57.0,12.0,3.725
76.0,7.0,3.726
52.0,-4.0,3.727
46.0,-18.0,3.728
66.0,-27.0,3.729
72.0,-26.0,3.73
49.0,-21.0,3.731
30.0,-16.0,3.732
31.0,-10.0,3.733
27.0,-3.0,3.734
11.0,-3.0,3.735
2.0,-6.0,3.736
12.0,-6.0,3.737
23.0,0.0,3.738
34.0,4.0,3.739
54.0,1.0,3.74
78.0,-1.0,3.741
83.0,1.0,3.742
59.0,2.0,3.743
23.0,1.0,3.744
-12.0,4.0,3.745
-34.0,13.0,3.746
-39.0,18.0,3.747
-29.0,16.0,3.748
-8.0,15.0,3.749
25.0,19.0,3.75
71.0,25.0,3.751
110.0,27.0,3.752
103.0,27.0,3.753
37.0,24.0,3.754
-49.0,17.0,3.755
-106.0,5.0,3.756
-131.0,-7.0,3.757
-159.0,-27.0,3.758
-196.0,-48.0,3.759
-213.0,-59.0,3.76
-187.0,-56.0,3.761
-135.0,-38.0,3.762
-65.0,-21.0,3.763
38.0,-12.0,3.764
167.0,-7.0,3.765
251.0,0.0,3.766
215.0,5.0,3.767
71.0,7.0,3.768
-71.0,8.0,3.769
-120.0,13.0,3.77
-79.0,17.0,3.771
-19.0,13.0,3.772
7.0,9.0,3.773
9.0,7.0,3.774
12.0,9.0,3.775
17.0,15.0,3.776
18.0,19.0,3.777
2.0,-29.0,3.778
-5.0,-27.0,3.779
-11.0,-24.0,3.78
-13.0,-17.0,3.781
-13.0,-11.0,3.782
-6.0,-11.0,3.783
-1.0,-8.0,3.784
-5.0,1.0,3.785
-9.0,9.0,3.786
-19.0,10.0,3.787
-27.0,12.0,3.788
-35.0,12.0,3.789
-35.0,11.0,3.79
-12.0,12.0,3.791
7.0,11.0,3.792
17.0,5.0,3.793
28.0,-1.0,3.794
41.0,-9.0,3.795
46.0,-13.0,3.796
27.0,-5.0,3.797
6.0,-29.0,3.798
-10.0,-27.0,3.799
-23.0,-24.0,3.8
-28.0,-17.0,3.801
-28.0,-11.0,3.802
-13.0,-11.0,3.803
-2.0,-8.0,3.804
-10.0,1.0,3.805
-20.0,9.0,3.806
-40.0,10.0,3.807
-59.0,12.0,3.808
-75.0,12.0,3.809
-75.0,11.0,3.81
-25.0,12.0,3.811
17.0,11.0,3.812
38.0,5.0,3.813
62.0,-1.0,3.814
91.0,-9.0,3.815
102.0,-13.0,3.816
60.0,-5.0,3.817
23.0,4.0,3.818
29.0,8.0,3.819
61.0,2.0,3.82
75.0,-6.0,3.821
56.0,-6.0,3.822
23.0,-6.0,3.823
-7.0,-8.0,3.824
-19.0,-7.0,3.825
-12.0,0.0,3.826
-10.0,6.0,3.827
-35.0,5.0,3.828
-68.0,2.0,3.829
-68.0,4.0,3.83
-39.0,7.0,3.831
-21.0,5.0,3.832
-27.0,5.0,3.833
-35.0,6.0,3.834
-29.0,5.0,3.835
-24.0,0.0,3.836
-26.0,-2.0,3.837
-28.0,-5.0,3.838
-12.0,-6.0,3.839
11.0,-6.0,3.84
30.0,-10.0,3.841
42.0,-7.0,3.842
46.0,3.0,3.843
39.0,16.0,3.844
28.0,24.0,3.845
23.0,19.0,3.846
28.0,4.0,3.847
37.0,-6.0,3.848
44.0,-4.0,3.849
37.0,2.0,3.85
1.0,0.0,3.851
-54.0,-10.0,3.852
-92.0,-13.0,3.853
-87.0,-9.0,3.854
-61.0,-11.0,3.855
-42.0,-20.0,3.856
-30.0,-22.0,3.857
-16.0,-12.0,3.858
-9.0,-1.0,3.859
0.0,6.0,3.86
9.0,3.0,3.861
26.0,1.0,3.862
62.0,5.0,3.863
81.0,9.0,3.864
51.0,9.0,3.865
23.0,9.0,3.866
3.0,9.0,3.867
-14.0,7.0,3.868
-22.0,2.0,3.869
-29.0,-1.0,3.87
-34.0,3.0,3.871
-34.0,4.0,3.872
-20.0,-5.0,3.873
-6.0,-13.0,3.874
3.0,-11.0,3.875
11.0,-8.0,3.876
11.0,-3.0,3.877
14.0,1.0,3.878
17.0,-1.0,3.879
9.0,-2.0,3.88
1.0,-3.0,3.881
9.0,-1.0,3.882
28.0,0.0,3.883
42.0,3.0,3.884
44.0,5.0,3.885
38.0,5.0,3.886
35.0,3.0,3.887
35.0,-1.0,3.888
32.0,-2.0,3.889
23.0,0.0,3.89
22.0,1.0,3.891
39.0,1.0,3.892
60.0,3.0,3.893
60.0,4.0,3.894
30.0,4.0,3.895
-5.0,0.0,3.896
-21.0,-2.0,3.897
-30.0,-4.0,3.898
-50.0,-2.0,3.899
-79.0,-3.0,3.9
-85.0,-9.0,3.901
-49.0,-10.0,3.902
8.0,-8.0,3.903
42.0,-2.0,3.904
20.0,4.0,3.905
-31.0,3.0,3.906
-63.0,1.0,3.907
-53.0,2.0,3.908
-30.0,7.0,3.909
-21.0,9.0,3.91
-19.0,7.0,3.911
-8.0,2.0,3.912
2.0,-3.0,3.913
-6.0,-9.0,3.914
-25.0,-16.0,3.915
-31.0,-18.0,3.916
-16.0,-13.0,3.917
16.0,-9.0,3.918
79.0,-8.0,3.919
170.0,-12.0,3.92
227.0,-17.0,3.921
171.0,-12.0,3.922
27.0,-2.0,3.923
-88.0,10.0,3.924
-107.0,19.0,3.925
-85.0,23.0,3.926
-101.0,20.0,3.927
-132.0,15.0,3.928
-114.0,12.0,3.929
-52.0,11.0,3.93
-6.0,8.0,3.931
2.0,4.0,3.932
3.0,1.0,3.933
13.0,-3.0,3.934
10.0,-8.0,3.935
-4.0,-13.0,3.936
-14.0,-9.0,3.937
-9.0,-1.0,3.938
8.0,1.0,3.939
26.0,-6.0,3.94
36.0,-19.0,3.941
35.0,-19.0,3.942
25.0,-13.0,3.943
21.0,-12.0,3.944
29.0,-11.0,3.945
40.0,-7.0,3.946
48.0,3.0,3.947
54.0,11.0,3.948
60.0,17.0,3.949
70.0,24.0,3.95
89.0,27.0,3.951
115.0,22.0,3.952
132.0,15.0,3.953
123.0,14.0,3.954
93.0,12.0,3.955
58.0,4.0,3.956
25.0,-4.0,3.957
-32.0,-3.0,3.958
-116.0,3.0,3.959
-198.0,2.0,3.96
-224.0,-12.0,3.961
-182.0,-28.0,3.962
-120.0,-29.0,3.963
-96.0,-17.0,3.964
-103.0,-4.0,3.965
-89.0,-4.0,3.966
-32.0,-15.0,3.967
23.0,-22.0,3.968
50.0,-17.0,3.969
76.0,-5.0,3.97
123.0,5.0,3.971
167.0,13.0,3.972
176.0,19.0,3.973
159.0,20.0,3.974
114.0,19.0,3.975
10.0,13.0,3.976
-124.0,5.0,3.977
-212.0,-9.0,3.978
-194.0,-21.0,3.979
-143.0,-19.0,3.98
-148.0,-9.0,3.981
-178.0,-4.0,3.982
-150.0,-8.0,3.983
-70.0,-8.0,3.984
-2.0,-5.0,3.985
38.0,-7.0,3.986
85.0,-21.0,3.987
123.0,-30.0,3.988
118.0,-18.0,3.989
87.0,10.0,3.99
84.0,31.0,3.991
103.0,32.0,3.992
101.0,21.0,3.993
79.0,13.0,3.994
72.0,13.0,3.995
86.0,15.0,3.996
94.0,14.0,3.997
78.0,10.0,3.998
47.0,8.0,3.999
14.0,7.0,4.0
-10.0,0.0,4.001
-18.0,-8.0,4.002
-9.0,-14.0,4.003
-3.0,-19.0,4.004
-6.0,-21.0,4.005
-7.0,-23.0,4.006
14.0,-20.0,4.007
71.0,-13.0,4.008
134.0,-6.0,4.009
135.0,1.0,4.01
36.0,10.0,4.011
-94.0,21.0,4.012
-148.0,28.0,4.013
-109.0,28.0,4.014
-70.0,23.0,4.015
-89.0,17.0,4.016
-108.0,10.0,4.017
-72.0,-1.0,4.018
-8.0,-7.0,4.019
23.0,-6.0,4.02
27.0,-4.0,4.021
39.0,-5.0,4.022
54.0,-6.0,4.023
43.0,-5.0,4.024
10.0,-1.0,4.025
0.0,3.0,4.026
37.0,2.0,4.027
105.0,0.0,4.028
166.0,1.0,4.029
199.0,6.0,4.03
207.0,9.0,4.031
177.0,8.0,4.032
65.0,10.0,4.033
-142.0,13.0,4.034
-353.0,9.0,4.035
-445.0,-6.0,4.036
-408.0,-23.0,4.037
-323.0,-41.0,4.038
-247.0,-56.0,4.039
-171.0,-64.0,4.04
-85.0,-58.0,4.041
-16.0,-32.0,4.042
31.0,-3.0,4.043
77.0,10.0,4.044
104.0,9.0,4.045
86.0,8.0,4.046
54.0,11.0,4.047
58.0,10.0,4.048
77.0,10.0,4.049
58.0,15.0,4.05
18.0,25.0,4.051
15.0,27.0,4.052
53.0,17.0,4.053
89.0,3.0,4.054
110.0,-7.0,4.055
128.0,-12.0,4.056
128.0,-11.0,4.057
94.0,-9.0,4.058
66.0,-7.0,4.059
76.0,-10.0,4.06
96.0,-10.0,4.061
78.0,3.0,4.062
40.0,19.0,4.063
28.0,19.0,4.064
38.0,9.0,4.065
33.0,7.0,4.066
15.0,12.0,4.067
11.0,12.0,4.068
14.0,3.0,4.069
2.0,-1.0,4.07
-15.0,0.0,4.071
-18.0,-2.0,4.072
-15.0,-9.0,4.073
-20.0,-11.0,4.074
-26.0,-4.0,4.075
-21.0,4.0,4.076
-11.0,11.0,4.077
-14.0,14.0,4.078
-23.0,12.0,4.079
-24.0,6.0,4.08
-11.0,-3.0,4.081
11.0,-3.0,4.082
34.0,-1.0,4.083
43.0,-1.0,4.084
15.0,0.0,4.085
-40.0,3.0,4.086
-81.0,2.0,4.087
-82.0,-2.0,4.088
-62.0,-1.0,4.089
-52.0,7.0,4.09
-49.0,10.0,4.091
-36.0,1.0,4.092
-5.0,-9.0,4.093
43.0,-10.0,4.094
107.0,-5.0,4.095
166.0,-1.0,4.096
181.0,-4.0,4.097
133.0,-8.0,4.098
62.0,-5.0,4.099
3.0,1.0,4.1
-53.0,4.0,4.101
-131.0,4.0,4.102
-204.0,2.0,4.103
-230.0,-3.0,4.104
-213.0,-8.0,4.105
-189.0,-11.0,4.106
-153.0,-16.0,4.107
-61.0,-20.0,4.108
82.0,-20.0,4.109
189.0,-16.0,4.11
167.0,-10.0,4.111
35.0,-8.0,4.112
-94.0,-6.0,4.113
-129.0,1.0,4.114
-97.0,12.0,4.115
-86.0,18.0,4.116
-102.0,13.0,4.117
-78.0,0.0,4.118
18.0,-6.0,4.119
109.0,-6.0,4.12
118.0,-3.0,4.121
83.0,1.0,4.122
77.0,5.0,4.123
97.0,9.0,4.124
93.0,10.0,4.125
68.0,4.0,4.126
52.0,-4.0,4.127
39.0,-10.0,4.128
5.0,-15.0,4.129
-27.0,-16.0,4.13
-7.0,-5.0,4.131
79.0,12.0,4.132
197.0,23.0,4.133
291.0,18.0,4.134
283.0,11.0,4.135
130.0,10.0,4.136
-65.0,12.0,4.137
-175.0,6.0,4.138
-150.0,-4.0,4.139
-98.0,-14.0,4.14
-111.0,-26.0,4.141
-135.0,-37.0,4.142
-84.0,-43.0,4.143
4.0,-36.0,4.144
41.0,-15.0,4.145
16.0,8.0,4.146
-19.0,22.0,4.147
-42.0,28.0,4.148
-69.0,31.0,4.149
-95.0,31.0,4.15
-103.0,20.0,4.151
-82.0,2.0,4.152
-20.0,-12.0,4.153
92.0,-15.0,4.154
236.0,-13.0,4.155
337.0,-16.0,4.156
328.0,-15.0,4.157
187.0,-5.0,4.158
-8.0,15.0,4.159
-148.0,30.0,4.16
-176.0,29.0,4.161
-146.0,24.0,4.162
-123.0,24.0,4.163
-104.0,24.0,4.164
-60.0,14.0,4.165
-18.0,-3.0,4.166
-32.0,-14.0,4.167
-72.0,-12.0,4.168
-60.0,-3.0,4.169
-1.0,0.0,4.17
33.0,-7.0,4.171
18.0,-20.0,4.172
8.0,-26.0,4.173
21.0,-24.0,4.174
23.0,-22.0,4.175
8.0,-23.0,4.176
16.0,-16.0,4.177
52.0,-2.0,4.178
79.0,14.0,4.179
70.0,25.0,4.18
54.0,20.0,4.181
44.0,13.0,4.182
22.0,3.0,4.183
-16.0,-5.0,4.184
-43.0,-9.0,4.185
-50.0,-13.0,4.186
-51.0,-11.0,4.187
-38.0,-9.0,4.188
2.0,-6.0,4.189
55.0,0.0,4.19
84.0,16.0,4.191
87.0,27.0,4.192
98.0,25.0,4.193
118.0,21.0,4.194
106.0,9.0,4.195
46.0,0.0,4.196
-13.0,-3.0,4.197
-48.0,-6.0,4.198
-91.0,-8.0,4.199
-183.0,-6.0,4.2
-255.0,2.0,4.201
-199.0,15.0,4.202
-36.0,15.0,4.203
85.0,3.0,4.204
85.0,-8.0,4.205
39.0,-13.0,4.206
41.0,-22.0,4.207
99.0,-30.0,4.208
188.0,-25.0,4.209
261.0,-4.0,4.21
202.0,16.0,4.211
-61.0,20.0,4.212
-378.0,16.0,4.213
-488.0,15.0,4.214
-359.0,11.0,4.215
-201.0,-9.0,4.216
-138.0,-35.0,4.217
-92.0,-52.0,4.218
-1.0,-48.0,4.219
62.0,-42.0,4.22
59.0,-50.0,4.221
70.0,-53.0,4.222
126.0,-31.0,4.223
147.0,2.0,4.224
106.0,25.0,4.225
87.0,29.0,4.226
114.0,28.0,4.227
117.0,27.0,4.228
73.0,23.0,4.229
51.0,19.0,4.23
67.0,20.0,4.231
61.0,23.0,4.232
22.0,22.0,4.233
11.0,15.0,4.234
35.0,13.0,4.235
46.0,15.0,4.236
33.0,18.0,4.237
36.0,12.0,4.238
64.0,4.0,4.239
74.0,-2.0,4.24
49.0,-10.0,4.241
12.0,-16.0,4.242
-23.0,-15.0,4.243
-66.0,-8.0,4.244
-95.0,0.0,4.245
-82.0,4.0,4.246
-45.0,4.0,4.247
-18.0,3.0,4.248
-4.0,-2.0,4.249
16.0,-10.0,4.25
37.0,-16.0,4.251
38.0,-14.0,4.252
21.0,-6.0,4.253
8.0,3.0,4.254
11.0,12.0,4.255
15.0,19.0,4.256
11.0,19.0,4.257
1.0,9.0,4.258
6.0,-3.0,4.259
19.0,-8.0,4.26
17.0,-8.0,4.261
-21.0,-4.0,4.262
-79.0,-1.0,4.263
-115.0,6.0,4.264
-104.0,19.0,4.265
-68.0,22.0,4.266
-38.0,10.0,4.267
-11.0,-5.0,4.268
33.0,-13.0,4.269
88.0,-19.0,4.27
115.0,-26.0,4.271
90.0,-32.0,4.272
42.0,-30.0,4.273
21.0,-18.0,4.274
43.0,-11.0,4.275
73.0,-11.0,4.276
77.0,-13.0,4.277
53.0,-8.0,4.278
25.0,6.0,4.279
-7.0,23.0,4.28
-46.0,31.0,4.281
-73.0,34.0,4.282
-57.0,29.0,4.283
-9.0,18.0,4.284
8.0,5.0,4.285
-42.0,-7.0,4.286
-142.0,-14.0,4.287
-229.0,-14.0,4.288
-262.0,-8.0,4.289
-234.0,-7.0,4.29
-172.0,-21.0,4.291
-102.0,-41.0,4.292
-23.0,-38.0,4.293
65.0,-7.0,4.294
138.0,17.0,4.295
154.0,10.0,4.296
131.0,-12.0,4.297
112.0,-22.0,4.298
112.0,-12.0,4.299
101.0,-6.0,4.3
66.0,-13.0,4.301
48.0,-15.0,4.302
88.0,-4.0,4.303
166.0,14.0,4.304
228.0,24.0,4.305
212.0,26.0,4.306
100.0,19.0,4.307
-48.0,10.0,4.308
-118.0,9.0,4.309
-90.0,27.0,4.31
-70.0,54.0,4.311
-152.0,63.0,4.312
-259.0,36.0,4.313
-249.0,-6.0,4.314
-114.0,-24.0,4.315
14.0,-9.0,4.316
60.0,12.0,4.317
66.0,9.0,4.318
73.0,-13.0,4.319
54.0,-28.0,4.32
-2.0,-29.0,4.321
-45.0,-25.0,4.322
-26.0,-24.0,4.323
21.0,-23.0,4.324
41.0,-16.0,4.325
34.0,-7.0,4.326
33.0,-3.0,4.327
43.0,0.0,4.328
46.0,7.0,4.329
36.0,12.0,4.33
23.0,11.0,4.331
17.0,-1.0,4.332
12.0,-14.0,4.333
12.0,-19.0,4.334
21.0,-18.0,4.335
37.0,-13.0,4.336
48.0,-2.0,4.337
42.0,14.0,4.338
20.0,30.0,4.339
-9.0,33.0,4.34
-29.0,21.0,4.341
-46.0,13.0,4.342
-61.0,9.0,4.343
-55.0,4.0,4.344
-7.0,2.0,4.345
77.0,5.0,4.346
156.0,10.0,4.347
192.0,7.0,4.348
166.0,-3.0,4.349
75.0,-13.0,4.35
-44.0,-26.0,4.351
-132.0,-44.0,4.352
-152.0,-52.0,4.353
-123.0,-36.0,4.354
-83.0,0.0,4.355
-44.0,29.0,4.356
-9.0,35.0,4.357
8.0,27.0,4.358
-4.0,23.0,4.359
-15.0,22.0,4.36
14.0,16.0,4.361
75.0,12.0,4.362
110.0,9.0,4.363
87.0,2.0,4.364
50.0,-5.0,4.365
72.0,-4.0,4.366
126.0,10.0,4.367
80.0,17.0,4.368
-118.0,8.0,4.369
-315.0,-8.0,4.37
-327.0,-20.0,4.371
-199.0,-30.0,4.372
-122.0,-46.0,4.373
-133.0,-58.0,4.374
-109.0,-62.0,4.375
-22.0,-60.0,4.376
17.0,-53.0,4.377
-23.0,-34.0,4.378
-23.0,-9.0,4.379
62.0,8.0,4.38
118.0,9.0,4.381
77.0,10.0,4.382
38.0,17.0,4.383
77.0,24.0,4.384
113.0,24.0,4.385
89.0,23.0,4.386
71.0,22.0,4.387
115.0,20.0,4.388
151.0,18.0,4.389
109.0,15.0,4.39
21.0,9.0,4.391
-49.0,-2.0,4.392
-85.0,-11.0,4.393
-79.0,-3.0,4.394
-29.0,23.0,4.395
30.0,51.0,4.396
61.0,65.0,4.397
96.0,53.0,4.398
172.0,21.0,4.399
228.0,-12.0,4.4
172.0,-26.0,4.401
35.0,-13.0,4.402
-62.0,2.0,4.403
-81.0,5.0,4.404
-86.0,-1.0,4.405
-95.0,1.0,4.406
-76.0,10.0,4.407
-41.0,12.0,4.408
-49.0,0.0,4.409
-84.0,-22.0,4.41
-77.0,-40.0,4.411
-35.0,-43.0,4.412
-33.0,-30.0,4.413
-63.0,-19.0,4.414
-39.0,-20.0,4.415
48.0,-17.0,4.416
110.0,4.0,4.417
103.0,38.0,4.418
69.0,51.0,4.419
46.0,33.0,4.42
4.0,11.0,4.421
-65.0,11.0,4.422
-120.0,7.0,4.423
-127.0,-21.0,4.424
-104.0,-56.0,4.425
-67.0,-58.0,4.426
-19.0,-28.0,4.427
25.0,-8.0,4.428
76.0,-12.0,4.429
167.0,-20.0,4.43
284.0,-6.0,4.431
311.0,19.0,4.432
158.0,39.0,4.433
-95.0,50.0,4.434
-269.0,52.0,4.435
-302.0,44.0,4.436
-267.0,34.0,4.437
-216.0,17.0,4.438
-118.0,-5.0,4.439
25.0,-27.0,4.44
116.0,-41.0,4.441
90.0,-38.0,4.442
18.0,-36.0,4.443
7.0,-53.0,4.444
45.0,-65.0,4.445
51.0,-51.0,4.446
19.0,-21.0,4.447
17.0,0.0,4.448
57.0,13.0,4.449
74.0,24.0,4.45
42.0,21.0,4.451
15.0,5.0,4.452
28.0,-1.0,4.453
50.0,17.0,4.454
55.0,36.0,4.455
71.0,38.0,4.456
114.0,38.0,4.457
132.0,43.0,4.458
80.0,41.0,4.459
-4.0,24.0,4.46
-49.0,6.0,4.461
-38.0,5.0,4.462
-17.0,5.0,4.463
-16.0,-6.0,4.464
-28.0,-12.0,4.465
-37.0,-6.0,4.466
-40.0,-7.0,4.467
-36.0,-28.0,4.468
-29.0,-43.0,4.469
-36.0,-31.0,4.47
-68.0,-10.0,4.471
-99.0,-9.0,4.472
-95.0,-19.0,4.473
-45.0,-9.0,4.474
26.0,24.0,4.475
81.0,42.0,4.476
95.0,25.0,4.477
71.0,-10.0,4.478
17.0,-26.0,4.479
-40.0,-12.0,4.48
-65.0,5.0,4.481
-48.0,10.0,4.482
-1.0,2.0,4.483
44.0,3.0,4.484
60.0,12.0,4.485
41.0,14.0,4.486
6.0,-1.0,4.487
-8.0,-11.0,4.488
24.0,-3.0,4.489
102.0,14.0,4.49
190.0,21.0,4.491
205.0,19.0,4.492
82.0,23.0,4.493
-124.0,29.0,4.494
-256.0,23.0,4.495
-234.0,-6.0,4.496
-142.0,-45.0,4.497
-85.0,-86.0,4.498
-75.0,-100.0,4.499
-49.0,-67.0,4.5
-25.0,-15.0,4.501
-37.0,19.0,4.502
-26.0,19.0,4.503
66.0,16.0,4.504
169.0,28.0,4.505
175.0,37.0,4.506
123.0,28.0,4.507
129.0,13.0,4.508
180.0,6.0,4.509
143.0,-3.0,4.51
-21.0,-20.0,4.511
-181.0,-25.0,4.512
-218.0,-6.0,4.513
-165.0,15.0,4.514
-105.0,14.0,4.515
-58.0,0.0,4.516
-13.0,-8.0,4.517
21.0,-15.0,4.518
25.0,-23.0,4.519
17.0,-28.0,4.52
15.0,-28.0,4.521
8.0,-19.0,4.522
-8.0,-12.0,4.523
-10.0,-7.0,4.524
7.0,-3.0,4.525
15.0,-4.0,4.526
19.0,-9.0,4.527
67.0,-8.0,4.528
161.0,11.0,4.529
219.0,47.0,4.53
188.0,81.0,4.531
104.0,88.0,4.532
17.0,62.0,4.533
-82.0,25.0,4.534
-190.0,1.0,4.535
-230.0,-5.0,4.536
-161.0,-6.0,4.537
-39.0,-12.0,4.538
23.0,-17.0,4.539
6.0,-22.0,4.54
-3.0,-37.0,4.541
29.0,-44.0,4.542
48.0,-32.0,4.543
26.0,-10.0,4.544
30.0,13.0,4.545
108.0,43.0,4.546
160.0,72.0,4.547
63.0,67.0,4.548
-133.0,20.0,4.549
-228.0,-19.0,4.55
-134.0,-16.0,4.551
17.0,2.0,4.552
68.0,-3.0,4.553
47.0,-26.0,4.554
73.0,-30.0,4.555
131.0,-15.0,4.556
110.0,-5.0,4.557
-8.0,-2.0,4.558
-95.0,-5.0,4.559
-83.0,-18.0,4.56
-57.0,-49.0,4.561
-80.0,-65.0,4.562
-82.0,-50.0,4.563
3.0,-27.0,4.564
88.0,-24.0,4.565
66.0,-35.0,4.566
-10.0,-31.0,4.567
-22.0,-10.0,4.568
21.0,7.0,4.569
17.0,11.0,4.57
-37.0,9.0,4.571
-49.0,11.0,4.572
12.0,13.0,4.573
66.0,19.0,4.574
59.0,26.0,4.575
32.0,24.0,4.576
42.0,14.0,4.577
72.0,14.0,4.578
85.0,33.0,4.579
90.0,45.0,4.58
67.0,34.0,4.581
32.0,24.0,4.582
-37.0,20.0,4.583
-92.0,14.0,4.584
-96.0,3.0,4.585
-78.0,-10.0,4.586
3.0,-28.0,4.587
43.0,-38.0,4.588
-43.0,-23.0,4.589
-103.0,-9.0,4.59
-78.0,0.0,4.591
-54.0,7.0,4.592
-35.0,0.0,4.593
-24.0,-3.0,4.594
-44.0,2.0,4.595
-52.0,7.0,4.596
-26.0,5.0,4.597
1.0,2.0,4.598
31.0,2.0,4.599
59.0,8.0,4.6
76.0,4.0,4.601
82.0,5.0,4.602
85.0,20.0,4.603
79.0,32.0,4.604
51.0,13.0,4.605
17.0,-18.0,4.606
-1.0,-23.0,4.607
-14.0,-3.0,4.608
-28.0,7.0,4.609
-12.0,-4.0,4.61
62.0,-12.0,4.611
142.0,-6.0,4.612
129.0,-1.0,4.613
17.0,0.0,4.614
-82.0,5.0,4.615
-76.0,18.0,4.616
-5.0,26.0,4.617
31.0,27.0,4.618
-1.0,28.0,4.619
-33.0,16.0,4.62
1.0,-12.0,4.621
60.0,-27.0,4.622
34.0,-11.0,4.623
-99.0,9.0,4.624
-223.0,-6.0,4.625
-203.0,-56.0,4.626
-55.0,-94.0,4.627
77.0,-92.0,4.628
107.0,-58.0,4.629
91.0,-18.0,4.63
117.0,16.0,4.631
157.0,36.0,4.632
132.0,39.0,4.633
36.0,32.0,4.634
-61.0,20.0,4.635
-108.0,-2.0,4.636
-115.0,-19.0,4.637
-118.0,-23.0,4.638
-125.0,-15.0,4.639
-121.0,-11.0,4.64
-89.0,-23.0,4.641
-34.0,-27.0,4.642
13.0,-17.0,4.643
31.0,-7.0,4.644
33.0,-5.0,4.645
34.0,-5.0,4.646
30.0,1.0,4.647
17.0,12.0,4.648
15.0,25.0,4.649
37.0,37.0,4.65
57.0,42.0,4.651
65.0,34.0,4.652
77.0,21.0,4.653
89.0,15.0,4.654
65.0,17.0,4.655
5.0,12.0,4.656
-29.0,3.0,4.657
-6.0,-5.0,4.658
25.0,-6.0,4.659
-1.0,-6.0,4.66
-62.0,-7.0,4.661
-72.0,-4.0,4.662
-8.0,-4.0,4.663
61.0,-9.0,4.664
66.0,-9.0,4.665
23.0,4.0,4.666
-5.0,25.0,4.667
8.0,33.0,4.668
34.0,28.0,4.669
36.0,20.0,4.67
17.0,12.0,4.671
4.0,3.0,4.672
13.0,-3.0,4.673
49.0,-3.0,4.674
108.0,-1.0,4.675
164.0,0.0,4.676
163.0,1.0,4.677
68.0,0.0,4.678
-64.0,2.0,4.679
-144.0,7.0,4.68
-154.0,12.0,4.681
-157.0,13.0,4.682
-169.0,3.0,4.683
-142.0,-13.0,4.684
-71.0,-24.0,4.685
-27.0,-27.0,4.686
-41.0,-27.0,4.687
-49.0,-27.0,4.688
-6.0,-26.0,4.689
39.0,-22.0,4.69
50.0,-24.0,4.691
64.0,-35.0,4.692
116.0,-41.0,4.693
141.0,-26.0,4.694
61.0,2.0,4.695
-90.0,21.0,4.696
-190.0,14.0,4.697
-186.0,-11.0,4.698
-111.0,-27.0,4.699
-46.0,-22.0,4.7
-21.0,-8.0,4.701
-3.0,0.0,4.702
43.0,-11.0,4.703
86.0,-27.0,4.704
79.0,-25.0,4.705
28.0,-1.0,4.706
2.0,20.0,4.707
36.0,21.0,4.708
90.0,13.0,4.709
101.0,23.0,4.71
57.0,46.0,4.711
3.0,63.0,4.712
-14.0,61.0,4.713
3.0,48.0,4.714
19.0,24.0,4.715
12.0,-3.0,4.716
8.0,-17.0,4.717
36.0,-12.0,4.718
82.0,8.0,4.719
99.0,20.0,4.72
84.0,6.0,4.721
62.0,-17.0,4.722
42.0,-26.0,4.723
5.0,-15.0,4.724
-38.0,-6.0,4.725
-47.0,-14.0,4.726
-22.0,-29.0,4.727
-3.0,-25.0,4.728
-10.0,0.0,4.729
-12.0,14.0,4.73
1.0,2.0,4.731
4.0,-15.0,4.732
-14.0,-15.0,4.733
-26.0,-5.0,4.734
-14.0,-3.0,4.735
4.0,-4.0,4.736
6.0,3.0,4.737
-5.0,13.0,4.738
-5.0,15.0,4.739
14.0,18.0,4.74
88.0,21.0,4.741
153.0,23.0,4.742
192.0,19.0,4.743
181.0,16.0,4.744
18.0,20.0,4.745
-103.0,24.0,4.746
-99.0,30.0,4.747
-103.0,36.0,4.748
-131.0,36.0,4.749
-163.0,27.0,4.75
-204.0,-8.0,4.751
-227.0,-43.0,4.752
-189.0,-77.0,4.753
-151.0,-103.0,4.754
-111.0,-107.0,4.755
-78.0,-103.0,4.756
-64.0,-75.0,4.757
-45.0,-44.0,4.758
15.0,-18.0,4.759
84.0,-11.0,4.76
99.0,-8.0,4.761
81.0,5.0,4.762
121.0,16.0,4.763
223.0,21.0,4.764
270.0,30.0,4.765
178.0,43.0,4.766
8.0,49.0,4.767
-105.0,43.0,4.768
-136.0,37.0,4.769
-158.0,32.0,4.77
-195.0,20.0,4.771
-169.0,4.0,4.772
-32.0,0.0,4.773
114.0,2.0,4.774
138.0,-2.0,4.775
61.0,-11.0,4.776
24.0,-3.0,4.777
85.0,28.0,4.778
168.0,57.0,4.779
184.0,46.0,4.78
152.0,-4.0,4.781
150.0,-52.0,4.782
199.0,-60.0,4.783
239.0,-35.0,4.784
174.0,-13.0,4.785
-4.0,-10.0,4.786
-182.0,-14.0,4.787
-224.0,-7.0,4.788
-145.0,4.0,4.789
-75.0,7.0,4.79
-57.0,7.0,4.791
-20.0,15.0,4.792
47.0,27.0,4.793
57.0,28.0,4.794
-23.0,21.0,4.795
-105.0,14.0,4.796
-126.0,10.0,4.797
-131.0,-4.0,4.798
-151.0,-23.0,4.799
-148.0,-36.0,4.8
-94.0,-37.0,4.801
-34.0,-26.0,4.802
-3.0,-16.0,4.803
24.0,-7.0,4.804
58.0,6.0,4.805
68.0,18.0,4.806
55.0,21.0,4.807
53.0,19.0,4.808
63.0,25.0,4.809
56.0,34.0,4.81
31.0,35.0,4.811
27.0,24.0,4.812
47.0,16.0,4.813
71.0,15.0,4.814
99.0,7.0,4.815
134.0,-13.0,4.816
146.0,-29.0,4.817
107.0,-36.0,4.818
34.0,-33.0,4.819
-49.0,-25.0,4.82
-128.0,-17.0,4.821
-162.0,-9.0,4.822
-97.0,-6.0,4.823
31.0,-1.0,4.824
107.0,15.0,4.825
91.0,33.0,4.826
61.0,37.0,4.827
57.0,32.0,4.828
1.0,27.0,4.829
-150.0,19.0,4.83
-288.0,-3.0,4.831
-300.0,-35.0,4.832
-215.0,-51.0,4.833
-125.0,-43.0,4.834
-48.0,-26.0,4.835
37.0,-19.0,4.836
115.0,-19.0,4.837
145.0,-23.0,4.838
117.0,-21.0,4.839
63.0,-15.0,4.84
42.0,-14.0,4.841
111.0,-15.0,4.842
259.0,-12.0,4.843
350.0,2.0,4.844
232.0,26.0,4.845
-49.0,40.0,4.846
-265.0,47.0,4.847
-291.0,60.0,4.848
-244.0,77.0,4.849
-267.0,68.0,4.85
-298.0,16.0,4.851
-209.0,-50.0,4.852
-47.0,-82.0,4.853
36.0,-63.0,4.854
39.0,-29.0,4.855
88.0,-12.0,4.856
197.0,-14.0,4.857
269.0,-24.0,4.858
257.0,-27.0,4.859
229.0,-22.0,4.86
223.0,-13.0,4.861
196.0,4.0,4.862
136.0,18.0,4.863
82.0,21.0,4.864
11.0,13.0,4.865
-130.0,10.0,4.866
-255.0,15.0,4.867
-222.0,18.0,4.868
-50.0,8.0,4.869
72.0,-12.0,4.87
49.0,-23.0,4.871
-20.0,-14.0,4.872
-35.0,8.0,4.873
-24.0,24.0,4.874
-38.0,17.0,4.875
-55.0,6.0,4.876
-30.0,7.0,4.877
33.0,15.0,4.878
91.0,20.0,4.879
104.0,16.0,4.88
76.0,14.0,4.881
71.0,18.0,4.882
150.0,19.0,4.883
246.0,13.0,4.884
178.0,3.0,4.885
-104.0,-2.0,4.886
-389.0,-9.0,4.887
-450.0,-19.0,4.888
-329.0,-24.0,4.889
-231.0,-23.0,4.89
-210.0,-24.0,4.891
-152.0,-30.0,4.892
-33.0,-35.0,4.893
43.0,-23.0,4.894
47.0,-3.0,4.895
62.0,9.0,4.896
111.0,6.0,4.897
117.0,-3.0,4.898
65.0,-7.0,4.899
40.0,-8.0,4.9
78.0,-9.0,4.901
104.0,-1.0,4.902
75.0,15.0,4.903
51.0,34.0,4.904
63.0,46.0,4.905
52.0,46.0,4.906
-2.0,33.0,4.907
-40.0,8.0,4.908
-17.0,-17.0,4.909
42.0,-30.0,4.91
99.0,-25.0,4.911
147.0,-9.0,4.912
169.0,4.0,4.913
164.0,5.0,4.914
169.0,-2.0,4.915
197.0,-5.0,4.916
189.0,0.0,4.917
87.0,11.0,4.918
-56.0,23.0,4.919
-154.0,32.0,4.92
-204.0,32.0,4.921
-245.0,19.0,4.922
-258.0,-16.0,4.923
-194.0,-59.0,4.924
-85.0,-81.0,4.925
-7.0,-73.0,4.926
17.0,-49.0,4.927
29.0,-23.0,4.928
62.0,4.0,4.929
121.0,33.0,4.93
180.0,45.0,4.931
173.0,37.0,4.932
53.0,27.0,4.933
-107.0,22.0,4.934
-176.0,6.0,4.935
-128.0,-29.0,4.936
-57.0,-59.0,4.937
8.0,-58.0,4.938
132.0,-27.0,4.939
299.0,5.0,4.94
339.0,26.0,4.941
153.0,45.0,4.942
-96.0,65.0,4.943
-217.0,72.0,4.944
-261.0,63.0,4.945
-368.0,40.0,4.946
-463.0,6.0,4.947
-360.0,-37.0,4.948
-108.0,-76.0,4.949
51.0,-86.0,4.95
41.0,-71.0,4.951
11.0,-47.0,4.952
31.0,-24.0,4.953
21.0,3.0,4.954
-26.0,32.0,4.955
1.0,41.0,4.956
107.0,31.0,4.957
174.0,11.0,4.958
178.0,-1.0,4.959
195.0,-13.0,4.96
249.0,-31.0,4.961
258.0,-34.0,4.962
128.0,-13.0,4.963
15.0,10.0,4.964
-44.0,12.0,4.965
-84.0,1.0,4.966
-63.0,0.0,4.967
-42.0,9.0,4.968
-23.0,13.0,4.969
-15.0,14.0,4.97
-45.0,26.0,4.971
-50.0,40.0,4.972
25.0,41.0,4.973
66.0,29.0,4.974
4.0,22.0,4.975
-46.0,24.0,4.976
-62.0,21.0,4.977
-52.0,-1.0,4.978
18.0,-25.0,4.979
17.0,-33.0,4.98
-25.0,-31.0,4.981
-19.0,-28.0,4.982
34.0,-28.0,4.983
53.0,-21.0,4.984
21.0,-1.0,4.985
18.0,16.0,4.986
62.0,16.0,4.987
86.0,5.0,4.988
63.0,-2.0,4.989
56.0,-1.0,4.99
89.0,2.0,4.991
94.0,4.0,4.992
42.0,6.0,4.993
-10.0,7.0,4.994
-21.0,2.0,4.995
-26.0,-4.0,4.996
-56.0,-10.0,4.997
-96.0,-19.0,4.998
-110.0,-21.0,4.999
-97.0,-9.0,5.0
-56.0,14.0,5.001
23.0,34.0,5.002
153.0,31.0,5.003
290.0,14.0,5.004
325.0,10.0,5.005
164.0,26.0,5.006
-147.0,43.0,5.007
-401.0,47.0,5.008
-436.0,35.0,5.009
-299.0,9.0,5.01
-163.0,-34.0,5.011
-91.0,-82.0,5.012
-43.0,-105.0,5.013
-15.0,-85.0,5.014
-42.0,-41.0,5.015
-83.0,-9.0,5.016
-48.0,-4.0,5.017
49.0,-7.0,5.018
96.0,2.0,5.019
65.0,26.0,5.02
70.0,35.0,5.021
157.0,25.0,5.022
216.0,2.0,5.023
157.0,-19.0,5.024
63.0,-28.0,5.025
59.0,-22.0,5.026
115.0,-7.0,5.027
107.0,2.0,5.028
20.0,-3.0,5.029
-49.0,-11.0,5.03
-50.0,-4.0,5.031
-26.0,11.0,5.032
-15.0,18.0,5.033
12.0,14.0,5.034
80.0,13.0,5.035
157.0,18.0,5.036
188.0,18.0,5.037
130.0,7.0,5.038
-4.0,-1.0,5.039
-136.0,1.0,5.04
-183.0,4.0,5.041
-159.0,5.0,5.042
-144.0,12.0,5.043
-147.0,23.0,5.044
-101.0,34.0,5.045
-6.0,33.0,5.046
47.0,24.0,5.047
20.0,9.0,5.048
-8.0,-10.0,5.049
16.0,-31.0,5.05
40.0,-46.0,5.051
14.0,-42.0,5.052
-15.0,-27.0,5.053
0.0,-12.0,5.054
29.0,-2.0,5.055
32.0,3.0,5.056
18.0,8.0,5.057
0.0,10.0,5.058
-12.0,11.0,5.059
-9.0,6.0,5.06
39.0,-9.0,5.061
84.0,-21.0,5.062
122.0,-19.0,5.063
145.0,-3.0,5.064
117.0,15.0,5.065
74.0,20.0,5.066
-11.0,12.0,5.067
-90.0,-1.0,5.068
-148.0,-17.0,5.069
-182.0,-40.0,5.07
-137.0,-60.0,5.071
-100.0,-60.0,5.072
-90.0,-33.0,5.073
-80.0,0.0,5.074
-72.0,17.0,5.075
-52.0,12.0,5.076
0.0,8.0,5.077
37.0,10.0,5.078
24.0,13.0,5.079
48.0,12.0,5.08
114.0,10.0,5.081
158.0,20.0,5.082
143.0,27.0,5.083
84.0,16.0,5.084
33.0,0.0,5.085
46.0,-5.0,5.086
122.0,1.0,5.087
144.0,9.0,5.088
18.0,15.0,5.089
-161.0,18.0,5.09
-218.0,15.0,5.091
-145.0,9.0,5.092
-89.0,4.0,5.093
-101.0,3.0,5.094
-87.0,3.0,5.095
-19.0,4.0,5.096
27.0,8.0,5.097
20.0,3.0,5.098
28.0,-7.0,5.099
70.0,-17.0,5.1
79.0,-20.0,5.101
46.0,-15.0,5.102
51.0,-11.0,5.103
115.0,-5.0,5.104
166.0,4.0,5.105
157.0,17.0,5.106
111.0,21.0,5.107
50.0,20.0,5.108
-19.0,16.0,5.109
-63.0,8.0,5.11
-64.0,-6.0,5.111
-72.0,-19.0,5.112
-120.0,-24.0,5.113
-153.0,-25.0,5.114
-109.0,-28.0,5.115
-25.0,-29.0,5.116
23.0,-22.0,5.117
25.0,-19.0,5.118
19.0,-21.0,5.119
6.0,-19.0,5.12
-12.0,-4.0,5.121
-16.0,15.0,5.122
14.0,21.0,5.123
54.0,13.0,5.124
78.0,0.0,5.125
81.0,-11.0,5.126
62.0,-20.0,5.127
21.0,-14.0,5.128
-22.0,9.0,5.129
-49.0,31.0,5.13
-56.0,23.0,5.131
-48.0,-7.0,5.132
-26.0,-26.0,5.133
-1.0,-17.0,5.134
3.0,-1.0,5.135
0.0,3.0,5.136
35.0,2.0,5.137
125.0,4.0,5.138
211.0,16.0,5.139
206.0,26.0,5.14
100.0,22.0,5.141
-36.0,13.0,5.142
-130.0,7.0,5.143
-172.0,3.0,5.144
-191.0,0.0,5.145
-183.0,0.0,5.146
-132.0,2.0,5.147
-65.0,4.0,5.148
-28.0,6.0,5.149
-10.0,6.0,5.15
31.0,2.0,5.151
90.0,0.0,5.152
106.0,2.0,5.153
62.0,5.0,5.154
9.0,7.0,5.155
-17.0,9.0,5.156
-31.0,13.0,5.157
-51.0,14.0,5.158
-40.0,13.0,5.159
22.0,16.0,5.16
103.0,21.0,5.161
138.0,23.0,5.162
115.0,11.0,5.163
68.0,-9.0,5.164
27.0,-26.0,5.165
2.0,-32.0,5.166
-20.0,-40.0,5.167
-44.0,-51.0,5.168
-57.0,-54.0,5.169
-46.0,-41.0,5.17
-18.0,-23.0,5.171
1.0,-18.0,5.172
2.0,-24.0,5.173
7.0,-21.0,5.174
22.0,-2.0,5.175
33.0,22.0,5.176
23.0,36.0,5.177
-7.0,36.0,5.178
-24.0,20.0,5.179
5.0,-7.0,5.18
88.0,-25.0,5.181
161.0,-13.0,5.182
132.0,13.0,5.183
-12.0,29.0,5.184
-158.0,24.0,5.185
-188.0,16.0,5.186
-129.0,14.0,5.187
-87.0,11.0,5.188
-90.0,3.0,5.189
-70.0,-2.0,5.19
-13.0,-2.0,5.191
21.0,5.0,5.192
24.0,14.0,5.193
67.0,20.0,5.194
177.0,10.0,5.195
256.0,-12.0,5.196
201.0,-28.0,5.197
16.0,-33.0,5.198
-162.0,-28.0,5.199
-202.0,-24.0,5.2
-104.0,-17.0,5.201
14.0,0.0,5.202
68.0,17.0,5.203
68.0,23.0,5.204
55.0,18.0,5.205
10.0,6.0,5.206
-76.0,-10.0,5.207
-140.0,-25.0,5.208
-134.0,-25.0,5.209
-103.0,-16.0,5.21
-98.0,-9.0,5.211
-80.0,-6.0,5.212
5.0,6.0,5.213
113.0,23.0,5.214
156.0,32.0,5.215
125.0,32.0,5.216
76.0,33.0,5.217
19.0,32.0,5.218
-28.0,16.0,5.219
-36.0,-14.0,5.22
-5.0,-41.0,5.221
8.0,-41.0,5.222
-26.0,-28.0,5.223
-53.0,-19.0,5.224
-21.0,-10.0,5.225
23.0,2.0,5.226
20.0,17.0,5.227
-5.0,22.0,5.228
11.0,14.0,5.229
62.0,7.0,5.23
91.0,4.0,5.231
89.0,3.0,5.232
85.0,-4.0,5.233
84.0,-11.0,5.234
63.0,-15.0,5.235
23.0,-12.0,5.236
-13.0,-7.0,5.237
-42.0,0.0,5.238
-65.0,9.0,5.239
-66.0,19.0,5.24
-35.0,22.0,5.241
22.0,19.0,5.242
113.0,18.0,5.243
254.0,18.0,5.244
372.0,14.0,5.245
329.0,4.0,5.246
87.0,-5.0,5.247
-191.0,-14.0,5.248
-336.0,-25.0,5.249
-369.0,-31.0,5.25
-383.0,-26.0,5.251
-358.0,-18.0,5.252
-232.0,-16.0,5.253
-80.0,-17.0,5.254
-28.0,-8.0,5.255
-45.0,4.0,5.256
-10.0,10.0,5.257
87.0,2.0,5.258
138.0,-4.0,5.259
106.0,-2.0,5.26
74.0,4.0,5.261
85.0,11.0,5.262
101.0,16.0,5.263
92.0,19.0,5.264
76.0,16.0,5.265
64.0,8.0,5.266
47.0,-1.0,5.267
47.0,-6.0,5.268
80.0,-12.0,5.269
115.0,-16.0,5.27
115.0,-16.0,5.271
81.0,-12.0,5.272
28.0,-6.0,5.273
-44.0,-3.0,5.274
-112.0,-1.0,5.275
-126.0,-5.0,5.276
-67.0,-6.0,5.277
31.0,-3.0,5.278
109.0,0.0,5.279
123.0,-3.0,5.28
65.0,-10.0,5.281
-23.0,-8.0,5.282
-72.0,5.0,5.283
-57.0,20.0,5.284
-36.0,24.0,5.285
-47.0,16.0,5.286
-38.0,4.0,5.287
22.0,-4.0,5.288
71.0,-1.0,5.289
44.0,6.0,5.29
-19.0,8.0,5.291
-72.0,-6.0,5.292
-142.0,-24.0,5.293
-234.0,-30.0,5.294
-246.0,-15.0,5.295
-94.0,2.0,5.296
129.0,10.0,5.297
275.0,-1.0,5.298
243.0,-12.0,5.299
87.0,-13.0,5.3
-56.0,-8.0,5.301
-93.0,-5.0,5.302
-60.0,-6.0,5.303
-62.0,1.0,5.304
-127.0,18.0,5.305
-162.0,32.0,5.306
-103.0,31.0,5.307
-20.0,22.0,5.308
-2.0,11.0,5.309
-20.0,-5.0,5.31
-1.0,-25.0,5.311
55.0,-38.0,5.312
96.0,-34.0,5.313
107.0,-21.0,5.314
104.0,-9.0,5.315
95.0,2.0,5.316
83.0,16.0,5.317
77.0,24.0,5.318
81.0,25.0,5.319
89.0,22.0,5.32
106.0,18.0,5.321
132.0,17.0,5.322
134.0,18.0,5.323
76.0,24.0,5.324
-20.0,32.0,5.325
-88.0,35.0,5.326
-104.0,29.0,5.327
-99.0,11.0,5.328
-96.0,-15.0,5.329
-81.0,-40.0,5.33
-51.0,-46.0,5.331
-29.0,-36.0,5.332
-21.0,-24.0,5.333
-2.0,-22.0,5.334
31.0,-18.0,5.335
27.0,-5.0,5.336
-30.0,0.0,5.337
-85.0,-16.0,5.338
-66.0,-36.0,5.339
-2.0,-35.0,5.34
25.0,-28.0,5.341
3.0,-25.0,5.342
2.0,-24.0,5.343
46.0,-8.0,5.344
74.0,15.0,5.345
57.0,27.0,5.346
59.0,24.0,5.347
148.0,24.0,5.348
269.0,33.0,5.349
282.0,37.0,5.35
127.0,29.0,5.351
-111.0,18.0,5.352
-294.0,13.0,5.353
-353.0,11.0,5.354
-323.0,0.0,5.355
-259.0,-11.0,5.356
-179.0,-17.0,5.357
-72.0,-16.0,5.358
30.0,-10.0,5.359
86.0,-4.0,5.36
94.0,-3.0,5.361
88.0,-4.0,5.362
97.0,-7.0,5.363
125.0,-5.0,5.364
161.0,-1.0,5.365
186.0,5.0,5.366
174.0,7.0,5.367
125.0,8.0,5.368
56.0,9.0,5.369
-14.0,10.0,5.37
-94.0,7.0,5.371
-177.0,1.0,5.372
-226.0,-10.0,5.373
-215.0,-26.0,5.374
-155.0,-38.0,5.375
-81.0,-33.0,5.376
-20.0,-12.0,5.377
22.0,7.0,5.378
48.0,11.0,5.379
85.0,7.0,5.38
150.0,5.0,5.381
201.0,16.0,5.382
174.0,31.0,5.383
82.0,41.0,5.384
7.0,45.0,5.385
-10.0,36.0,5.386
-31.0,11.0,5.387
-109.0,-17.0,5.388
-192.0,-39.0,5.389
-185.0,-57.0,5.39
-95.0,-74.0,5.391
-18.0,-76.0,5.392
-1.0,-53.0,5.393
4.0,-18.0,5.394
37.0,2.0,5.395
68.0,8.0,5.396
73.0,14.0,5.397
82.0,25.0,5.398
133.0,33.0,5.399
190.0,37.0,5.4
191.0,41.0,5.401
133.0,46.0,5.402
63.0,38.0,5.403
0.0,13.0,5.404
-70.0,-16.0,5.405
-134.0,-33.0,5.406
-144.0,-34.0,5.407
-95.0,-25.0,5.408
-54.0,-19.0,5.409
-69.0,-23.0,5.41
-96.0,-29.0,5.411
-66.0,-22.0,5.412
-9.0,-3.0,5.413
-8.0,11.0,5.414
-53.0,18.0,5.415
-59.0,25.0,5.416
-7.0,38.0,5.417
36.0,43.0,5.418
27.0,36.0,5.419
9.0,26.0,5.42
24.0,13.0,5.421
52.0,2.0,5.422
70.0,-7.0,5.423
107.0,-11.0,5.424
152.0,-11.0,5.425
144.0,-19.0,5.426
76.0,-31.0,5.427
34.0,-32.0,5.428
57.0,-17.0,5.429
69.0,-6.0,5.43
0.0,-4.0,5.431
-88.0,-6.0,5.432
-94.0,-6.0,5.433
-30.0,-6.0,5.434
24.0,-3.0,5.435
27.0,10.0,5.436
7.0,29.0,5.437
-31.0,30.0,5.438
-93.0,15.0,5.439
-152.0,2.0,5.44
-162.0,-2.0,5.441
-124.0,-6.0,5.442
-89.0,-21.0,5.443
-74.0,-31.0,5.444
-53.0,-22.0,5.445
2.0,-5.0,5.446
84.0,2.0,5.447
177.0,-2.0,5.448
254.0,-3.0,5.449
257.0,0.0,5.45
125.0,-3.0,5.451
-89.0,-11.0,5.452
-231.0,-10.0,5.453
-193.0,7.0,5.454
-42.0,19.0,5.455
56.0,6.0,5.456
44.0,-10.0,5.457
-20.0,-16.0,5.458
-61.0,-9.0,5.459
-74.0,-8.0,5.46
-77.0,-18.0,5.461
-63.0,-18.0,5.462
-23.0,-8.0,5.463
17.0,1.0,5.464
36.0,3.0,5.465
45.0,7.0,5.466
71.0,16.0,5.467
111.0,22.0,5.468
140.0,20.0,5.469
135.0,20.0,5.47
93.0,27.0,5.471
36.0,29.0,5.472
-1.0,25.0,5.473
-1.0,19.0,5.474
12.0,14.0,5.475
13.0,8.0,5.476
0.0,2.0,5.477
-12.0,-3.0,5.478
-25.0,0.0,5.479
-51.0,7.0,5.48
-92.0,6.0,5.481
-130.0,-1.0,5.482
-134.0,-10.0,5.483
-84.0,-18.0,5.484
1.0,-22.0,5.485
86.0,-21.0,5.486
139.0,-21.0,5.487
154.0,-21.0,5.488
127.0,-20.0,5.489
65.0,-21.0,5.49
3.0,-25.0,5.491
-16.0,-26.0,5.492
17.0,-15.0,5.493
59.0,3.0,5.494
80.0,15.0,5.495
91.0,14.0,5.496
103.0,12.0,5.497
85.0,15.0,5.498
15.0,21.0,5.499
-77.0,23.0,5.5
-123.0,19.0,5.501
-109.0,14.0,5.502
-93.0,1.0,5.503
-116.0,-10.0,5.504
-139.0,-10.0,5.505
-105.0,0.0,5.506
-40.0,2.0,5.507
4.0,-6.0,5.508
51.0,-10.0,5.509
164.0,-6.0,5.51
291.0,-4.0,5.511
274.0,-5.0,5.512
50.0,-2.0,5.513
-226.0,0.0,5.514
-355.0,-14.0,5.515
-306.0,-39.0,5.516
-208.0,-54.0,5.517
-141.0,-50.0,5.518
-92.0,-34.0,5.519
-38.0,-13.0,5.52
-4.0,4.0,5.521
-5.0,14.0,5.522
-4.0,9.0,5.523
25.0,0.0,5.524
58.0,-1.0,5.525
66.0,6.0,5.526
72.0,10.0,5.527
96.0,13.0,5.528
125.0,27.0,5.529
136.0,43.0,5.53
129.0,44.0,5.531
98.0,29.0,5.532
33.0,13.0,5.533
-24.0,5.0,5.534
-1.0,2.0,5.535
88.0,4.0,5.536
128.0,8.0,5.537
47.0,2.0,5.538
-77.0,-6.0,5.539
-113.0,-8.0,5.54
-35.0,-5.0,5.541
57.0,-10.0,5.542
80.0,-33.0,5.543
29.0,-46.0,5.544
-53.0,-29.0,5.545
-127.0,-3.0,5.546
-154.0,1.0,5.547
-119.0,-7.0,5.548
-42.0,3.0,5.549
45.0,27.0,5.55
124.0,34.0,5.551
169.0,19.0,5.552
150.0,9.0,5.553
75.0,15.0,5.554
7.0,17.0,5.555
-15.0,8.0,5.556
-16.0,0.0,5.557
-14.0,0.0,5.558
23.0,0.0,5.559
126.0,-5.0,5.56
228.0,-11.0,5.561
203.0,-12.0,5.562
22.0,-20.0,5.563
-189.0,-34.0,5.564
-285.0,-56.0,5.565
-247.0,-86.0,5.566
-179.0,-110.0,5.567
-156.0,-91.0,5.568
-140.0,-10.0,5.569
-75.0,87.0,5.57
8.0,137.0,5.571
57.0,129.0,5.572
108.0,99.0,5.573
211.0,66.0,5.574
300.0,29.0,5.575
244.0,1.0,5.576
65.0,7.0,5.577
-111.0,37.0,5.578
-162.0,47.0,5.579
-138.0,24.0,5.58
-143.0,-11.0,5.581
-162.0,-43.0,5.582
-122.0,-82.0,5.583
-23.0,-114.0,5.584
50.0,-107.0,5.585
58.0,-61.0,5.586
22.0,-20.0,5.587
-9.0,-8.0,5.588
-7.0,-7.0,5.589
22.0,1.0,5.59
35.0,11.0,5.591
6.0,16.0,5.592
-17.0,22.0,5.593
43.0,20.0,5.594
168.0,8.0,5.595
246.0,-2.0,5.596
218.0,1.0,5.597
128.0,11.0,5.598
54.0,14.0,5.599
-13.0,17.0,5.6
-57.0,16.0,5.601
-84.0,12.0,5.602
-57.0,0.0,5.603
-36.0,-9.0,5.604
-38.0,-9.0,5.605
-52.0,-9.0,5.606
-100.0,-15.0,5.607
-117.0,-19.0,5.608
-39.0,-12.0,5.609
47.0,-4.0,5.61
160.0,7.0,5.611
206.0,11.0,5.612
49.0,-7.0,5.613
-103.0,-18.0,5.614
-239.0,-4.0,5.615
-306.0,1.0,5.616
-167.0,-16.0,5.617
-51.0,-32.0,5.618
-45.0,-26.0,5.619
-25.0,-8.0,5.62
48.0,2.0,5.621
89.0,5.0,5.622
71.0,1.0,5.623
64.0,-2.0,5.624
94.0,0.0,5.625
106.0,7.0,5.626
82.0,14.0,5.627
63.0,18.0,5.628
54.0,28.0,5.629
22.0,40.0,5.63
-17.0,43.0,5.631
-27.0,31.0,5.632
-14.0,15.0,5.633
-7.0,7.0,5.634
7.0,-2.0,5.635
54.0,-17.0,5.636
110.0,-26.0,5.637
151.0,-22.0,5.638
170.0,-10.0,5.639
167.0,-2.0,5.64
108.0,-2.0,5.641
-1.0,6.0,5.642
-94.0,15.0,5.643
-121.0,16.0,5.644
-118.0,6.0,5.645
-131.0,-6.0,5.646
-137.0,-17.0,5.647
-100.0,-27.0,5.648
-50.0,-31.0,5.649
-28.0,-23.0,5.65
-20.0,-7.0,5.651
13.0,0.0,5.652
62.0,-8.0,5.653
92.0,-21.0,5.654
106.0,-24.0,5.655
111.0,-11.0,5.656
88.0,4.0,5.657
10.0,9.0,5.658
-87.0,3.0,5.659
-138.0,-10.0,5.66
-121.0,-25.0,5.661
-76.0,-35.0,5.662
-33.0,-36.0,5.663
36.0,-34.0,5.664
139.0,-29.0,5.665
199.0,-4.0,5.666
99.0,48.0,5.667
-132.0,104.0,5.668
-295.0,127.0,5.669
-237.0,106.0,5.67
-64.0,70.0,5.671
20.0,35.0,5.672
-4.0,0.0,5.673
-8.0,-29.0,5.674
38.0,-41.0,5.675
33.0,-41.0,5.676
-36.0,-44.0,5.677
-88.0,-46.0,5.678
-75.0,-24.0,5.679
-52.0,9.0,5.68
-20.0,17.0,5.681
84.0,-4.0,5.682
212.0,-24.0,5.683
207.0,-24.0,5.684
65.0,-15.0,5.685
-27.0,-5.0,5.686
10.0,13.0,5.687
46.0,36.0,5.688
-8.0,46.0,5.689
-46.0,41.0,5.69
10.0,28.0,5.691
67.0,8.0,5.692
38.0,-17.0,5.693
8.0,-37.0,5.694
64.0,-45.0,5.695
140.0,-40.0,5.696
148.0,-22.0,5.697
123.0,0.0,5.698
124.0,16.0,5.699
110.0,14.0,5.7
51.0,8.0,5.701
-19.0,18.0,5.702
-125.0,29.0,5.703
-190.0,17.0,5.704
-130.0,-9.0,5.705
-74.0,-25.0,5.706
-29.0,-30.0,5.707
17.0,-34.0,5.708
67.0,-30.0,5.709
91.0,-18.0,5.71
30.0,-14.0,5.711
-57.0,-29.0,5.712
-222.0,-43.0,5.713
-313.0,-30.0,5.714
-179.0,-2.0,5.715
-75.0,9.0,5.716
-63.0,6.0,5.717
-37.0,3.0,5.718
43.0,10.0,5.719
78.0,14.0,5.72
49.0,11.0,5.721
42.0,11.0,5.722
82.0,17.0,5.723
103.0,27.0,5.724
96.0,35.0,5.725
129.0,42.0,5.726
195.0,43.0,5.727
192.0,36.0,5.728
82.0,17.0,5.729
-42.0,-13.0,5.73
-101.0,-48.0,5.731
-122.0,-75.0,5.732
-147.0,-80.0,5.733
-148.0,-69.0,5.734
-82.0,-51.0,5.735
5.0,-33.0,5.736
35.0,-15.0,5.737
0.0,0.0,5.738
-38.0,13.0,5.739
-36.0,28.0,5.74
-16.0,43.0,5.741
-5.0,57.0,5.742
15.0,64.0,5.743
75.0,61.0,5.744
148.0,53.0,5.745
169.0,49.0,5.746
125.0,51.0,5.747
88.0,52.0,5.748
108.0,38.0,5.749
133.0,6.0,5.75
82.0,-24.0,5.751
-8.0,-37.0,5.752
-35.0,-39.0,5.753
1.0,-43.0,5.754
-6.0,-46.0,5.755
-81.0,-37.0,5.756
-102.0,-19.0,5.757
-10.0,-8.0,5.758
75.0,-6.0,5.759
19.0,-10.0,5.76
-131.0,-16.0,5.761
-220.0,-20.0,5.762
-189.0,-24.0,5.763
-115.0,-20.0,5.764
-79.0,-12.0,5.765
-87.0,0.0,5.766
-96.0,10.0,5.767
-88.0,12.0,5.768
-86.0,10.0,5.769
-90.0,9.0,5.77
-56.0,10.0,5.771
45.0,10.0,5.772
157.0,13.0,5.773
186.0,18.0,5.774
121.0,21.0,5.775
37.0,14.0,5.776
0.0,0.0,5.777
6.0,-15.0,5.778
23.0,-25.0,5.779
31.0,-29.0,5.78
34.0,-34.0,5.781
37.0,-34.0,5.782
39.0,-27.0,5.783
34.0,-11.0,5.784
19.0,8.0,5.785
3.0,13.0,5.786
18.0,-2.0,5.787
55.0,-25.0,5.788
68.0,-32.0,5.789
36.0,-15.0,5.79
1.0,4.0,5.791
15.0,10.0,5.792
46.0,10.0,5.793
31.0,15.0,5.794
-35.0,31.0,5.795
-90.0,41.0,5.796
-86.0,34.0,5.797
-31.0,-4.0,5.798
40.0,-60.0,5.799
91.0,-104.0,5.8
109.0,-103.0,5.801
94.0,-38.0,5.802
81.0,49.0,5.803
93.0,117.0,5.804
126.0,143.0,5.805
143.0,135.0,5.806
118.0,102.0,5.807
44.0,54.0,5.808
-59.0,13.0,5.809
-122.0,-2.0,5.81
-52.0,-4.0,5.811
121.0,-15.0,5.812
205.0,-38.0,5.813
35.0,-48.0,5.814
-299.0,-32.0,5.815
-521.0,-8.0,5.816
-493.0,-1.0,5.817
-320.0,-12.0,5.818
-188.0,-32.0,5.819
-135.0,-44.0,5.82
-66.0,-43.0,5.821
43.0,-22.0,5.822
118.0,0.0,5.823
122.0,10.0,5.824
101.0,8.0,5.825
92.0,7.0,5.826
76.0,4.0,5.827
36.0,-7.0,5.828
1.0,-16.0,5.829
-3.0,-14.0,5.83
13.0,-7.0,5.831
42.0,-5.0,5.832
93.0,-6.0,5.833
155.0,-4.0,5.834
181.0,5.0,5.835
147.0,17.0,5.836
103.0,27.0,5.837
81.0,23.0,5.838
59.0,5.0,5.839
-5.0,-15.0,5.84
-77.0,-31.0,5.841
-94.0,-44.0,5.842
-69.0,-63.0,5.843
-70.0,-72.0,5.844
-97.0,-56.0,5.845
-88.0,-22.0,5.846
-36.0,7.0,5.847
-11.0,32.0,5.848
-29.0,55.0,5.849
-32.0,67.0,5.85
2.0,54.0,5.851
25.0,36.0,5.852
7.0,32.0,5.853
-13.0,35.0,5.854
5.0,24.0,5.855
54.0,1.0,5.856
114.0,-11.0,5.857
181.0,-16.0,5.858
214.0,-22.0,5.859
157.0,-29.0,5.86
50.0,-26.0,5.861
16.0,-11.0,5.862
107.0,-7.0,5.863
201.0,-18.0,5.864
135.0,-23.0,5.865
-76.0,-3.0,5.866
-243.0,21.0,5.867
-235.0,26.0,5.868
-130.0,17.0,5.869
-73.0,16.0,5.87
-95.0,26.0,5.871
-122.0,31.0,5.872
-105.0,24.0,5.873
-63.0,7.0,5.874
-34.0,-17.0,5.875
-37.0,-42.0,5.876
-60.0,-55.0,5.877
-73.0,-49.0,5.878
-52.0,-31.0,5.879
-14.0,-17.0,5.88
0.0,-12.0,5.881
-6.0,-3.0,5.882
7.0,9.0,5.883
46.0,11.0,5.884
72.0,4.0,5.885
64.0,2.0,5.886
53.0,10.0,5.887
63.0,22.0,5.888
71.0,26.0,5.889
52.0,25.0,5.89
26.0,22.0,5.891
17.0,13.0,5.892
17.0,-3.0,5.893
10.0,-21.0,5.894
13.0,-27.0,5.895
38.0,-18.0,5.896
61.0,-5.0,5.897
54.0,0.0,5.898
29.0,5.0,5.899
18.0,14.0,5.9
32.0,20.0,5.901
57.0,16.0,5.902
94.0,7.0,5.903
136.0,1.0,5.904
144.0,-1.0,5.905
78.0,-3.0,5.906
-47.0,-4.0,5.907
-148.0,-7.0,5.908
-168.0,-14.0,5.909
-131.0,-30.0,5.91
-86.0,-44.0,5.911
-37.0,-44.0,5.912
43.0,-31.0,5.913
110.0,-14.0,5.914
59.0,3.0,5.915
-116.0,27.0,5.916
-257.0,49.0,5.917
-243.0,61.0,5.918
-121.0,67.0,5.919
-50.0,66.0,5.92
-53.0,57.0,5.921
-24.0,41.0,5.922
65.0,23.0,5.923
108.0,5.0,5.924
70.0,-20.0,5.925
46.0,-59.0,5.926
80.0,-107.0,5.927
89.0,-152.0,5.928
31.0,-167.0,5.929
-7.0,-131.0,5.93
32.0,-42.0,5.931
64.0,60.0,5.932
18.0,123.0,5.933
-33.0,132.0,5.934
-12.0,102.0,5.935
45.0,61.0,5.936
63.0,28.0,5.937
52.0,6.0,5.938
65.0,3.0,5.939
79.0,6.0,5.94
38.0,-7.0,5.941
-28.0,-32.0,5.942
-26.0,-49.0,5.943
48.0,-54.0,5.944
82.0,-55.0,5.945
-2.0,-40.0,5.946
-137.0,-4.0,5.947
-192.0,37.0,5.948
-133.0,48.0,5.949
-50.0,33.0,5.95
-14.0,19.0,5.951
-3.0,22.0,5.952
31.0,25.0,5.953
71.0,18.0,5.954
80.0,7.0,5.955
66.0,7.0,5.956
69.0,11.0,5.957
100.0,9.0,5.958
123.0,6.0,5.959
97.0,1.0,5.96
21.0,-8.0,5.961
-61.0,-22.0,5.962
-99.0,-34.0,5.963
-80.0,-32.0,5.964
-30.0,-12.0,5.965
9.0,12.0,5.966
30.0,25.0,5.967
53.0,15.0,5.968
115.0,-9.0,5.969
228.0,-37.0,5.97
328.0,-57.0,5.971
291.0,-51.0,5.972
65.0,-16.0,5.973
-218.0,18.0,5.974
-376.0,16.0,5.975
-395.0,-20.0,5.976
-392.0,-51.0,5.977
-403.0,-57.0,5.978
-338.0,-46.0,5.979
-184.0,-38.0,5.98
-74.0,-26.0,5.981
-78.0,7.0,5.982
-91.0,53.0,5.983
-25.0,78.0,5.984
49.0,71.0,5.985
64.0,50.0,5.986
88.0,30.0,5.987
184.0,18.0,5.988
272.0,22.0,5.989
271.0,40.0,5.99
232.0,54.0,5.991
235.0,53.0,5.992
220.0,42.0,5.993
123.0,25.0,5.994
17.0,-2.0,5.995
11.0,-34.0,5.996
61.0,-46.0,5.997
52.0,-31.0,5.998
-18.0,-12.0,5.999
-58.0,-14.0,6.0
-23.0,-28.0,6.001
24.0,-29.0,6.002
26.0,-18.0,6.003
-2.0,-13.0,6.004
-18.0,-10.0,6.005
4.0,1.0,6.006
49.0,15.0,6.007
68.0,16.0,6.008
50.0,8.0,6.009
57.0,-1.0,6.01
102.0,-11.0,6.011
79.0,-18.0,6.012
-80.0,-14.0,6.013
-234.0,-7.0,6.014
-224.0,-18.0,6.015
-133.0,-49.0,6.016
-135.0,-65.0,6.017
-205.0,-47.0,6.018
-160.0,-13.0,6.019
6.0,7.0,6.02
114.0,6.0,6.021
110.0,7.0,6.022
115.0,16.0,6.023
151.0,21.0,6.024
100.0,18.0,6.025
-44.0,16.0,6.026
-145.0,20.0,6.027
-146.0,25.0,6.028
-123.0,28.0,6.029
-90.0,23.0,6.03
10.0,9.0,6.031
128.0,-8.0,6.032
122.0,-19.0,6.033
-34.0,-18.0,6.034
-208.0,-3.0,6.035
-270.0,27.0,6.036
-209.0,57.0,6.037
-64.0,70.0,6.038
96.0,55.0,6.039
206.0,22.0,6.04
232.0,-13.0,6.041
186.0,-40.0,6.042
109.0,-60.0,6.043
50.0,-71.0,6.044
48.0,-68.0,6.045
83.0,-58.0,6.046
85.0,-49.0,6.047
38.0,-33.0,6.048
0.0,-2.0,6.049
13.0,27.0,6.05
35.0,31.0,6.051
18.0,9.0,6.052
-7.0,-16.0,6.053
12.0,-39.0,6.054
63.0,-61.0,6.055
114.0,-64.0,6.056
154.0,-36.0,6.057
155.0,21.0,6.058
62.0,76.0,6.059
-93.0,101.0,6.06
-143.0,89.0,6.061
9.0,52.0,6.062
208.0,-3.0,6.063
203.0,-45.0,6.064
-22.0,-44.0,6.065
-231.0,-2.0,6.066
-255.0,35.0,6.067
-189.0,37.0,6.068
-195.0,14.0,6.069
-260.0,-5.0,6.07
-269.0,-12.0,6.071
-206.0,-14.0,6.072
-152.0,-11.0,6.073
-114.0,-4.0,6.074
-31.0,4.0,6.075
78.0,11.0,6.076
131.0,18.0,6.077
116.0,20.0,6.078
98.0,15.0,6.079
77.0,13.0,6.08
47.0,24.0,6.081
26.0,35.0,6.082
35.0,46.0,6.083
52.0,52.0,6.084
92.0,41.0,6.085
93.0,26.0,6.086
-23.0,-3.0,6.087
-96.0,-28.0,6.088
-39.0,-39.0,6.089
27.0,-49.0,6.09
119.0,-54.0,6.091
171.0,-58.0,6.092
105.0,-58.0,6.093
52.0,-55.0,6.094
39.0,-45.0,6.095
19.0,-35.0,6.096
-22.0,-24.0,6.097
-40.0,-7.0,6.098
16.0,24.0,6.099
28.0,34.0,6.1
-17.0,28.0,6.101
-26.0,30.0,6.102
35.0,35.0,6.103
95.0,29.0,6.104
105.0,12.0,6.105
91.0,-1.0,6.106
82.0,-16.0,6.107
64.0,-32.0,6.108
44.0,-26.0,6.109
75.0,9.0,6.11
150.0,41.0,6.111
171.0,31.0,6.112
41.0,-9.0,6.113
-188.0,-41.0,6.114
-342.0,-52.0,6.115
-327.0,-47.0,6.116
-226.0,-23.0,6.117
-146.0,21.0,6.118
-97.0,68.0,6.119
-46.0,92.0,6.12
-13.0,87.0,6.121
-8.0,68.0,6.122
53.0,33.0,6.123
212.0,-22.0,6.124
331.0,-67.0,6.125
256.0,-77.0,6.126
55.0,-68.0,6.127
-106.0,-71.0,6.128
-189.0,-79.0,6.129
-241.0,-62.0,6.13
-226.0,-27.0,6.131
-127.0,-5.0,6.132
-53.0,-3.0,6.133
-78.0,-10.0,6.134
-85.0,-20.0,6.135
30.0,-27.0,6.136
140.0,-14.0,6.137
80.0,26.0,6.138
-80.0,69.0,6.139
-134.0,86.0,6.14
-41.0,77.0,6.141
39.0,73.0,6.142
39.0,70.0,6.143
51.0,56.0,6.144
114.0,39.0,6.145
136.0,40.0,6.146
73.0,43.0,6.147
12.0,22.0,6.148
28.0,-14.0,6.149
77.0,-34.0,6.15
95.0,-25.0,6.151
97.0,-9.0,6.152
108.0,0.0,6.153
94.0,3.0,6.154
35.0,3.0,6.155
-6.0,-3.0,6.156
22.0,-8.0,6.157
69.0,-14.0,6.158
48.0,-19.0,6.159
-35.0,-25.0,6.16
-88.0,-34.0,6.161
-71.0,-43.0,6.162
5.0,-54.0,6.163
147.0,-59.0,6.164
312.0,-53.0,6.165
342.0,-36.0,6.166
110.0,-20.0,6.167
-241.0,-10.0,6.168
-414.0,-1.0,6.169
-323.0,9.0,6.17
-163.0,12.0,6.171
-91.0,12.0,6.172
-69.0,22.0,6.173
-40.0,46.0,6.174
-60.0,66.0,6.175
-148.0,69.0,6.176
-210.0,57.0,6.177
-182.0,32.0,6.178
-90.0,-5.0,6.179
27.0,-57.0,6.18
165.0,-115.0,6.181
266.0,-157.0,6.182
259.0,-169.0,6.183
162.0,-162.0,6.184
69.0,-136.0,6.185
16.0,-94.0,6.186
-37.0,-41.0,6.187
-85.0,11.0,6.188
-92.0,63.0,6.189
-55.0,122.0,6.19
-7.0,185.0,6.191
40.0,221.0,6.192
81.0,203.0,6.193
90.0,150.0,6.194
63.0,103.0,6.195
58.0,81.0,6.196
131.0,70.0,6.197
283.0,41.0,6.198
408.0,-2.0,6.199
351.0,-36.0,6.2
58.0,-52.0,6.201
-311.0,-56.0,6.202
-492.0,-60.0,6.203
-396.0,-53.0,6.204
-213.0,-30.0,6.205
-141.0,-5.0,6.206
-168.0,9.0,6.207
-178.0,13.0,6.208
-133.0,5.0,6.209
-48.0,-20.0,6.21
70.0,-46.0,6.211
170.0,-45.0,6.212
149.0,-22.0,6.213
35.0,-11.0,6.214
-8.0,-22.0,6.215
86.0,-35.0,6.216
185.0,-31.0,6.217
172.0,-25.0,6.218
87.0,-32.0,6.219
15.0,-51.0,6.22
-40.0,-76.0,6.221
-93.0,-94.0,6.222
-109.0,-102.0,6.223
-72.0,-96.0,6.224
-28.0,-79.0,6.225
-5.0,-46.0,6.226
38.0,14.0,6.227
124.0,93.0,6.228
212.0,152.0,6.229
239.0,160.0,6.23
185.0,127.0,6.231
86.0,85.0,6.232
15.0,44.0,6.233
0.0,5.0,6.234
-13.0,-31.0,6.235
-76.0,-66.0,6.236
-137.0,-92.0,6.237
-136.0,-94.0,6.238
-101.0,-51.0,6.239
-94.0,7.0,6.24
-80.0,21.0,6.241
5.0,-8.0,6.242
130.0,-26.0,6.243
206.0,-4.0,6.244
215.0,29.0,6.245
195.0,56.0,6.246
187.0,99.0,6.247
225.0,166.0,6.248
268.0,204.0,6.249
143.0,172.0,6.25
-235.0,92.0,6.251
-632.0,17.0,6.252
-706.0,-34.0,6.253
-489.0,-72.0,6.254
-311.0,-94.0,6.255
-289.0,-89.0,6.256
-230.0,-60.0,6.257
-42.0,-20.0,6.258
97.0,14.0,6.259
71.0,27.0,6.26
26.0,12.0,6.261
91.0,-10.0,6.262
172.0,-14.0,6.263
155.0,-3.0,6.264
60.0,-6.0,6.265
-38.0,-42.0,6.266
-85.0,-91.0,6.267
-14.0,-125.0,6.268
165.0,-132.0,6.269
288.0,-118.0,6.27
214.0,-90.0,6.271
41.0,-54.0,6.272
-31.0,-18.0,6.273
19.0,5.0,6.274
58.0,12.0,6.275
30.0,2.0,6.276
18.0,-13.0,6.277
58.0,-34.0,6.278
103.0,-42.0,6.279
107.0,-23.0,6.28
98.0,11.0,6.281
101.0,53.0,6.282
85.0,88.0,6.283
18.0,114.0,6.284
-51.0,132.0,6.285
-43.0,134.0,6.286
64.0,119.0,6.287
214.0,91.0,6.288
359.0,63.0,6.289
491.0,40.0,6.29
545.0,17.0,6.291
374.0,-7.0,6.292
-49.0,-28.0,6.293
-489.0,-42.0,6.294
-674.0,-50.0,6.295
-618.0,-66.0,6.296
-529.0,-100.0,6.297
-468.0,-151.0,6.298
-327.0,-170.0,6.299
-93.0,-121.0,6.3
56.0,-26.0,6.301
25.0,53.0,6.302
-73.0,81.0,6.303
-105.0,80.0,6.304
-79.0,81.0,6.305
-38.0,84.0,6.306
22.0,72.0,6.307
88.0,48.0,6.308
120.0,24.0,6.309
140.0,0.0,6.31
184.0,-27.0,6.311
201.0,-58.0,6.312
116.0,-83.0,6.313
-13.0,-97.0,6.314
-55.0,-90.0,6.315
14.0,-49.0,6.316
95.0,10.0,6.317
123.0,63.0,6.318
101.0,78.0,6.319
41.0,55.0,6.32
-41.0,13.0,6.321
-97.0,-20.0,6.322
-78.0,-39.0,6.323
-13.0,-42.0,6.324
21.0,-28.0,6.325
-2.0,-4.0,6.326
-35.0,15.0,6.327
-32.0,29.0,6.328
4.0,43.0,6.329
50.0,60.0,6.33
92.0,62.0,6.331
121.0,41.0,6.332
117.0,15.0,6.333
91.0,5.0,6.334
112.0,8.0,6.335
230.0,10.0,6.336
346.0,12.0,6.337
303.0,16.0,6.338
79.0,26.0,6.339
-151.0,35.0,6.34
-246.0,38.0,6.341
-265.0,28.0,6.342
-280.0,-5.0,6.343
-227.0,-41.0,6.344
-69.0,-57.0,6.345
52.0,-64.0,6.346
12.0,-80.0,6.347
-84.0,-92.0,6.348
-79.0,-70.0,6.349
-11.0,-32.0,6.35
11.0,-32.0,6.351
17.0,-80.0,6.352
88.0,-123.0,6.353
174.0,-138.0,6.354
163.0,-151.0,6.355
48.0,-178.0,6.356
-86.0,-185.0,6.357
-197.0,-138.0,6.358
-232.0,-45.0,6.359
-165.0,57.0,6.36
-57.0,141.0,6.361
-42.0,209.0,6.362
-130.0,268.0,6.363
-170.0,307.0,6.364
-71.0,301.0,6.365
54.0,240.0,6.366
82.0,165.0,6.367
68.0,123.0,6.368
123.0,104.0,6.369
206.0,67.0,6.37
192.0,17.0,6.371
102.0,-8.0,6.372
91.0,-9.0,6.373
205.0,-23.0,6.374
276.0,-55.0,6.375
149.0,-65.0,6.376
-81.0,-47.0,6.377
-217.0,-35.0,6.378
-151.0,-44.0,6.379
-3.0,-53.0,6.38
45.0,-59.0,6.381
-42.0,-72.0,6.382
-161.0,-87.0,6.383
-189.0,-81.0,6.384
-102.0,-64.0,6.385
12.0,-71.0,6.386
51.0,-110.0,6.387
20.0,-143.0,6.388
-3.0,-139.0,6.389
1.0,-99.0,6.39
-28.0,-42.0,6.391
-83.0,13.0,6.392
-67.0,50.0,6.393
40.0,66.0,6.394
120.0,64.0,6.395
91.0,53.0,6.396
9.0,38.0,6.397
-41.0,28.0,6.398
-41.0,33.0,6.399
-30.0,44.0,6.4
-53.0,39.0,6.401
-104.0,16.0,6.402
-125.0,-10.0,6.403
-55.0,-26.0,6.404
81.0,-29.0,6.405
199.0,-13.0,6.406
282.0,14.0,6.407
369.0,24.0,6.408
383.0,-8.0,6.409
186.0,-59.0,6.41
-187.0,-76.0,6.411
-480.0,-50.0,6.412
-507.0,-31.0,6.413
-338.0,-50.0,6.414
-121.0,-73.0,6.415
101.0,-54.0,6.416
314.0,2.0,6.417
425.0,62.0,6.418
373.0,106.0,6.419
290.0,142.0,6.42
116.0,155.0,6.421
-26.0,153.0,6.422
-77.0,107.0,6.423
-130.0,61.0,6.424
-187.0,18.0,6.425
-217.0,-27.0,6.426
-162.0,-78.0,6.427
-83.0,-120.0,6.428
65.0,-134.0,6.429
170.0,-147.0,6.43
141.0,-159.0,6.431
79.0,-148.0,6.432
-81.0,-66.0,6.433
-195.0,10.0,6.434
-168.0,70.0,6.435
-136.0,120.0,6.436
-86.0,141.0,6.437
-86.0,160.0,6.438
-254.0,150.0,6.439
-305.0,101.0,6.44
-144.0,58.0,6.441
52.0,37.0,6.442
115.0,2.0,6.443
98.0,-47.0,6.444
121.0,-63.0,6.445
157.0,-35.0,6.446
123.0,-24.0,6.447
59.0,-70.0,6.448
54.0,-133.0,6.449
86.0,-151.0,6.45
79.0,-113.0,6.451
49.0,-42.0,6.452
54.0,33.0,6.453
64.0,78.0,6.454
15.0,66.0,6.455
-67.0,23.0,6.456
-104.0,8.0,6.457
-64.0,44.0,6.458
-1.0,90.0,6.459
57.0,98.0,6.46
107.0,73.0,6.461
123.0,60.0,6.462
96.0,62.0,6.463
44.0,53.0,6.464
-17.0,32.0,6.465
-74.0,10.0,6.466
-66.0,-7.0,6.467
86.0,-25.0,6.468
340.0,-32.0,6.469
506.0,-18.0,6.47
423.0,-6.0,6.471
147.0,-26.0,6.472
-125.0,-75.0,6.473
-285.0,-114.0,6.474
-376.0,-116.0,6.475
-416.0,-87.0,6.476
-345.0,-50.0,6.477
-146.0,-11.0,6.478
37.0,12.0,6.479
55.0,-1.0,6.48
-76.0,-45.0,6.481
-261.0,-68.0,6.482
-448.0,-43.0,6.483
-560.0,-18.0,6.484
-464.0,-60.0,6.485
-159.0,-140.0,6.486
152.0,-153.0,6.487
319.0,-49.0,6.488
392.0,84.0,6.489
427.0,155.0,6.49
350.0,174.0,6.491
157.0,198.0,6.492
30.0,207.0,6.493
79.0,152.0,6.494
170.0,61.0,6.495
158.0,11.0,6.496
81.0,5.0,6.497
-2.0,-15.0,6.498
-102.0,-55.0,6.499
-193.0,-58.0,6.5
-156.0,-17.0,6.501
29.0,25.0,6.502
199.0,37.0,6.503
235.0,50.0,6.504
216.0,67.0,6.505
244.0,49.0,6.506
251.0,-24.0,6.507
135.0,-113.0,6.508
-38.0,-160.0,6.509
-108.0,-142.0,6.51
-57.0,-80.0,6.511
-23.0,-20.0,6.512
-82.0,2.0,6.513
-169.0,3.0,6.514
-204.0,23.0,6.515
-235.0,60.0,6.516
-310.0,66.0,6.517
-370.0,15.0,6.518
-306.0,-48.0,6.519
-145.0,-74.0,6.52
-15.0,-80.0,6.521
55.0,-87.0,6.522
157.0,-84.0,6.523
285.0,-54.0,6.524
292.0,-10.0,6.525
117.0,31.0,6.526
-74.0,77.0,6.527
-115.0,130.0,6.528
-44.0,165.0,6.529
18.0,158.0,6.53
87.0,120.0,6.531
220.0,57.0,6.532
324.0,-29.0,6.533
252.0,-115.0,6.534
34.0,-169.0,6.535
-161.0,-184.0,6.536
-250.0,-175.0,6.537
-255.0,-136.0,6.538
-163.0,-58.0,6.539
4.0,26.0,6.54
128.0,71.0,6.541
144.0,95.0,6.542
145.0,131.0,6.543
171.0,167.0,6.544
69.0,155.0,6.545
-186.0,103.0,6.546
-273.0,52.0,6.547
24.0,15.0,6.548
362.0,-31.0,6.549
258.0,-80.0,6.55
-182.0,-101.0,6.551
-427.0,-82.0,6.552
-299.0,-48.0,6.553
-124.0,-21.0,6.554
-118.0,-9.0,6.555
-128.0,-5.0,6.556
-19.0,7.0,6.557
128.0,42.0,6.558
198.0,91.0,6.559
215.0,119.0,6.56
198.0,93.0,6.561
91.0,19.0,6.562
-78.0,-92.0,6.563
-177.0,-202.0,6.564
-140.0,-242.0,6.565
-42.0,-161.0,6.566
49.0,-5.0,6.567
115.0,102.0,6.568
116.0,106.0,6.569
33.0,62.0,6.57
-56.0,35.0,6.571
-57.0,21.0,6.572
-2.0,-3.0,6.573
16.0,-11.0,6.574
-8.0,12.0,6.575
-7.0,28.0,6.576
22.0,4.0,6.577
46.0,-28.0,6.578
84.0,-25.0,6.579
120.0,-16.0,6.58
148.0,9.0,6.581
129.0,29.0,6.582
-36.0,33.0,6.583
-147.0,32.0,6.584
-97.0,10.0,6.585
-58.0,-7.0,6.586
-54.0,-12.0,6.587
-43.0,-13.0,6.588
-16.0,0.0,6.589
22.0,13.0,6.59
95.0,24.0,6.591
132.0,33.0,6.592
58.0,35.0,6.593
-13.0,20.0,6.594
-77.0,-48.0,6.595
-89.0,-98.0,6.596
52.0,-96.0,6.597
191.0,-60.0,6.598
212.0,87.0,6.599
59.0,182.0,6.6
-80.0,146.0,6.601
-70.0,43.0,6.602
-13.0,-24.0,6.603
-75.0,-35.0,6.604
-202.0,-40.0,6.605
-217.0,-57.0,6.606
-115.0,-57.0,6.607
-83.0,-28.0,6.608
-168.0,2.0,6.609
-185.0,16.0,6.61
-20.0,27.0,6.611
166.0,38.0,6.612
178.0,40.0,6.613
67.0,31.0,6.614
30.0,16.0,6.615
132.0,-7.0,6.616
274.0,-43.0,6.617
372.0,-77.0,6.618
363.0,-71.0,6.619
215.0,-32.0,6.62
8.0,-6.0,6.621
-121.0,-1.0,6.622
-167.0,7.0,6.623
-257.0,15.0,6.624
-406.0,-7.0,6.625
-454.0,-49.0,6.626
-340.0,-43.0,6.627
-189.0,17.0,6.628
-66.0,44.0,6.629
100.0,-20.0,6.63
271.0,-108.0,6.631
259.0,-119.0,6.632
97.0,-48.0,6.633
64.0,23.0,6.634
221.0,53.0,6.635
260.0,65.0,6.636
45.0,76.0,6.637
-165.0,68.0,6.638
-50.0,31.0,6.639
274.0,-20.0,6.64
447.0,-70.0,6.641
345.0,-99.0,6.642
89.0,-95.0,6.643
-206.0,-51.0,6.644
-449.0,15.0,6.645
-501.0,77.0,6.646
-324.0,123.0,6.647
-80.0,154.0,6.648
45.0,162.0,6.649
21.0,139.0,6.65
-49.0,83.0,6.651
-56.0,14.0,6.652
32.0,-42.0,6.653
126.0,-58.0,6.654
90.0,-43.0,6.655
-38.0,-36.0,6.656
-82.0,-60.0,6.657
18.0,-100.0,6.658
103.0,-103.0,6.659
33.0,-66.0,6.66
-77.0,-29.0,6.661
-61.0,-6.0,6.662
36.0,20.0,6.663
69.0,48.0,6.664
42.0,53.0,6.665
63.0,28.0,6.666
119.0,1.0,6.667
107.0,-4.0,6.668
32.0,-2.0,6.669
14.0,-8.0,6.67
75.0,-18.0,6.671
98.0,-12.0,6.672
17.0,17.0,6.673
-69.0,48.0,6.674
-33.0,61.0,6.675
99.0,53.0,6.676
164.0,44.0,6.677
47.0,35.0,6.678
-161.0,25.0,6.679
-239.0,16.0,6.68
-88.0,15.0,6.681
94.0,34.0,6.682
30.0,50.0,6.683
-264.0,36.0,6.684
-442.0,-30.0,6.685
-216.0,-128.0,6.686
255.0,-198.0,6.687
532.0,-191.0,6.688
392.0,-128.0,6.689
37.0,-69.0,6.69
-212.0,-32.0,6.691
-272.0,16.0,6.692
-238.0,69.0,6.693
-161.0,71.0,6.694
-57.0,20.0,6.695
-9.0,-4.0,6.696
-43.0,33.0,6.697
-39.0,63.0,6.698
112.0,21.0,6.699
287.0,-49.0,6.7
292.0,-73.0,6.701
158.0,-57.0,6.702
71.0,-49.0,6.703
70.0,-33.0,6.704
42.0,24.0,6.705
-72.0,75.0,6.706
-218.0,61.0,6.707
-329.0,18.0,6.708
-317.0,18.0,6.709
-99.0,58.0,6.71
224.0,79.0,6.711
390.0,64.0,6.712
298.0,34.0,6.713
149.0,-9.0,6.714
104.0,-66.0,6.715
58.0,-103.0,6.716
-59.0,-84.0,6.717
-107.0,-22.0,6.718
48.0,36.0,6.719
225.0,66.0,6.72
154.0,70.0,6.721
-114.0,52.0,6.722
-314.0,13.0,6.723
-313.0,-19.0,6.724
-192.0,-29.0,6.725
-52.0,-39.0,6.726
56.0,-72.0,6.727
113.0,-93.0,6.728
131.0,-53.0,6.729
147.0,36.0,6.73
141.0,96.0,6.731
69.0,84.0,6.732
-31.0,48.0,6.733
-78.0,46.0,6.734
-90.0,61.0,6.735
-133.0,31.0,6.736
-173.0,-41.0,6.737
-158.0,-107.0,6.738
-128.0,-105.0,6.739
-154.0,-47.0,6.74
-161.0,-1.0,6.741
-47.0,0.0,6.742
93.0,-21.0,6.743
88.0,-14.0,6.744
-50.0,30.0,6.745
-171.0,71.0,6.746
-203.0,74.0,6.747
-127.0,45.0,6.748
114.0,3.0,6.749
447.0,-43.0,6.75
564.0,-74.0,6.751
290.0,-52.0,6.752
-109.0,17.0,6.753
-246.0,73.0,6.754
-128.0,70.0,6.755
-58.0,47.0,6.756
-118.0,43.0,6.757
-135.0,35.0,6.758
0.0,-4.0,6.759
177.0,-42.0,6.76
277.0,-28.0,6.761
285.0,25.0,6.762
236.0,59.0,6.763
170.0,60.0,6.764
156.0,47.0,6.765
190.0,3.0,6.766
175.0,-88.0,6.767
91.0,-170.0,6.768
29.0,-163.0,6.769
-16.0,-74.0,6.77
-144.0,14.0,6.771
-290.0,59.0,6.772
-246.0,89.0,6.773
-56.0,113.0,6.774
-37.0,100.0,6.775
-269.0,40.0,6.776
-405.0,-18.0,6.777
-219.0,-61.0,6.778
39.0,-112.0,6.779
30.0,-179.0,6.78
-132.0,-210.0,6.781
-133.0,-155.0,6.782
-15.0,-53.0,6.783
-57.0,6.0,6.784
-258.0,0.0,6.785
-320.0,-17.0,6.786
-108.0,4.0,6.787
189.0,49.0,6.788
321.0,78.0,6.789
200.0,80.0,6.79
-81.0,82.0,6.791
-302.0,109.0,6.792
-267.0,147.0,6.793
-2.0,161.0,6.794
296.0,139.0,6.795
525.0,81.0,6.796
684.0,1.0,6.797
699.0,-105.0,6.798
443.0,-181.0,6.799
46.0,-155.0,6.8
-170.0,-31.0,6.801
-144.0,91.0,6.802
-96.0,111.0,6.803
-78.0,44.0,6.804
91.0,-25.0,6.805
357.0,-63.0,6.806
361.0,-89.0,6.807
-23.0,-99.0,6.808
-468.0,-69.0,6.809
-642.0,-27.0,6.81
-562.0,-20.0,6.811
-385.0,-48.0,6.812
-168.0,-66.0,6.813
39.0,-55.0,6.814
148.0,-29.0,6.815
154.0,11.0,6.816
124.0,60.0,6.817
63.0,92.0,6.818
-38.0,99.0,6.819
-93.0,114.0,6.82
-16.0,162.0,6.821
109.0,206.0,6.822
149.0,199.0,6.823
120.0,138.0,6.824
80.0,39.0,6.825
-13.0,-100.0,6.826
-187.0,-241.0,6.827
-290.0,-284.0,6.828
-182.0,-181.0,6.829
11.0,-33.0,6.83
54.0,30.0,6.831
-18.0,14.0,6.832
56.0,26.0,6.833
305.0,92.0,6.834
399.0,125.0,6.835
171.0,63.0,6.836
-47.0,-33.0,6.837
65.0,-107.0,6.838
293.0,-134.0,6.839
162.0,-127.0,6.84
-248.0,-92.0,6.841
-371.0,-35.0,6.842
-69.0,20.0,6.843
155.0,52.0,6.844
2.0,61.0,6.845
-197.0,49.0,6.846
-128.0,14.0,6.847
24.0,-28.0,6.848
33.0,-55.0,6.849
68.0,-53.0,6.85
296.0,-21.0,6.851
450.0,29.0,6.852
211.0,73.0,6.853
-262.0,89.0,6.854
-536.0,91.0,6.855
-480.0,105.0,6.856
-340.0,129.0,6.857
-320.0,129.0,6.858
-363.0,85.0,6.859
-290.0,11.0,6.86
-58.0,-74.0,6.861
202.0,-151.0,6.862
359.0,-196.0,6.863
394.0,-181.0,6.864
323.0,-107.0,6.865
147.0,-20.0,6.866
-75.0,39.0,6.867
-202.0,60.0,6.868
-176.0,53.0,6.869
-115.0,34.0,6.87
-94.0,26.0,6.871
17.0,41.0,6.872
312.0,70.0,6.873
598.0,83.0,6.874
628.0,50.0,6.875
457.0,-46.0,6.876
293.0,-174.0,6.877
105.0,-267.0,6.878
-206.0,-228.0,6.879
-488.0,-79.0,6.88
-453.0,46.0,6.881
-142.0,74.0,6.882
107.0,52.0,6.883
154.0,40.0,6.884
139.0,25.0,6.885
106.0,5.0,6.886
-68.0,42.0,6.887
-355.0,157.0,6.888
-519.0,243.0,6.889
-438.0,200.0,6.89
-214.0,65.0,6.891
2.0,-41.0,6.892
104.0,-78.0,6.893
70.0,-86.0,6.894
65.0,-89.0,6.895
284.0,-72.0,6.896
570.0,-39.0,6.897
533.0,-23.0,6.898
62.0,-32.0,6.899
-408.0,-36.0,6.9
-453.0,-19.0,6.901
-202.0,5.0,6.902
4.0,12.0,6.903
68.0,7.0,6.904
49.0,14.0,6.905
-49.0,39.0,6.906
-137.0,51.0,6.907
-20.0,28.0,6.908
253.0,-11.0,6.909
375.0,-33.0,6.91
227.0,-33.0,6.911
44.0,-27.0,6.912
-23.0,-6.0,6.913
-93.0,44.0,6.914
-192.0,94.0,6.915
-119.0,102.0,6.916
151.0,80.0,6.917
371.0,62.0,6.918
315.0,49.0,6.919
136.0,18.0,6.92
64.0,-19.0,6.921
12.0,-35.0,6.922
-221.0,-57.0,6.923
-520.0,-128.0,6.924
-541.0,-204.0,6.925
-217.0,-196.0,6.926
120.0,-108.0,6.927
189.0,-36.0,6.928
102.0,-26.0,6.929
134.0,-22.0,6.93
303.0,28.0,6.931
364.0,101.0,6.932
155.0,153.0,6.933
-240.0,173.0,6.934
-622.0,154.0,6.935
-830.0,90.0,6.936
-772.0,18.0,6.937
-413.0,-27.0,6.938
95.0,-45.0,6.939
486.0,-77.0,6.94
589.0,-136.0,6.941
434.0,-175.0,6.942
174.0,-167.0,6.943
-25.0,-124.0,6.944
-62.0,-54.0,6.945
39.0,35.0,6.946
144.0,109.0,6.947
154.0,129.0,6.948
106.0,107.0,6.949
75.0,79.0,6.95
47.0,50.0,6.951
-44.0,17.0,6.952
-180.0,2.0,6.953
-249.0,31.0,6.954
-174.0,69.0,6.955
-12.0,70.0,6.956
96.0,36.0,6.957
84.0,-3.0,6.958
29.0,-32.0,6.959
73.0,-55.0,6.96
231.0,-64.0,6.961
345.0,-44.0,6.962
263.0,-12.0,6.963
40.0,6.0,6.964
-124.0,8.0,6.965
-119.0,3.0,6.966
-43.0,-17.0,6.967
-58.0,-57.0,6.968
-180.0,-87.0,6.969
-256.0,-79.0,6.97
-135.0,-34.0,6.971
186.0,18.0,6.972
536.0,68.0,6.973
633.0,115.0,6.974
312.0,164.0,6.975
-248.0,199.0,6.976
-608.0,199.0,6.977
-564.0,137.0,6.978
-311.0,13.0,6.979
-180.0,-142.0,6.98
-171.0,-259.0,6.981
-56.0,-272.0,6.982
135.0,-192.0,6.983
151.0,-98.0,6.984
-27.0,-55.0,6.985
-135.0,-55.0,6.986
-40.0,-49.0,6.987
81.0,-22.0,6.988
80.0,-6.0,6.989
9.0,-5.0,6.99
-35.0,11.0,6.991
-34.0,49.0,6.992
17.0,69.0,6.993
124.0,52.0,6.994
205.0,29.0,6.995
178.0,25.0,6.996
94.0,32.0,6.997
37.0,38.0,6.998
34.0,60.0,6.999
33.0,101.0,7.0
9.0,127.0,7.001
-24.0,113.0,7.002
-50.0,71.0,7.003
-65.0,20.0,7.004
-80.0,-32.0,7.005
-137.0,-77.0,7.006
-229.0,-85.0,7.007
-253.0,-48.0,7.008
-138.0,10.0,7.009
38.0,55.0,7.01
172.0,77.0,7.011
281.0,90.0,7.012
405.0,94.0,7.013
447.0,69.0,7.014
293.0,-7.0,7.015
29.0,-127.0,7.016
-137.0,-237.0,7.017
-161.0,-274.0,7.018
-130.0,-194.0,7.019
-119.0,-51.0,7.02
-123.0,52.0,7.021
-127.0,87.0,7.022
-118.0,105.0,7.023
-53.0,143.0,7.024
66.0,152.0,7.025
152.0,80.0,7.026
141.0,-31.0,7.027
66.0,-102.0,7.028
-11.0,-119.0,7.029
-70.0,-117.0,7.03
-89.0,-110.0,7.031
-62.0,-72.0,7.032
-83.0,-7.0,7.033
-253.0,46.0,7.034
-451.0,67.0,7.035
-394.0,72.0,7.036
-31.0,70.0,7.037
430.0,37.0,7.038
659.0,-21.0,7.039
550.0,-46.0,7.04
271.0,10.0,7.041
57.0,108.0,7.042
20.0,144.0,7.043
56.0,74.0,7.044
-60.0,-40.0,7.045
-352.0,-130.0,7.046
-533.0,-172.0,7.047
-389.0,-149.0,7.048
-114.0,-56.0,7.049
1.0,48.0,7.05
-6.0,75.0,7.051
82.0,15.0,7.052
240.0,-33.0,7.053
283.0,-10.0,7.054
209.0,31.0,7.055
159.0,26.0,7.056
135.0,3.0,7.057
37.0,10.0,7.058
-88.0,39.0,7.059
-121.0,46.0,7.06
-70.0,22.0,7.061
-37.0,5.0,7.062
-44.0,16.0,7.063
-72.0,45.0,7.064
-144.0,66.0,7.065
-247.0,57.0,7.066
-267.0,21.0,7.067
-134.0,-11.0,7.068
64.0,-26.0,7.069
215.0,-43.0,7.07
288.0,-69.0,7.071
278.0,-72.0,7.072
178.0,-40.0,7.073
48.0,-12.0,7.074
-5.0,-14.0,7.075
21.0,-3.0,7.076
4.0,41.0,7.077
-126.0,77.0,7.078
-245.0,53.0,7.079
-193.0,-1.0,7.08
4.0,-26.0,7.081
150.0,-19.0,7.082
129.0,-19.0,7.083
18.0,-21.0,7.084
-28.0,4.0,7.085
31.0,43.0,7.086
119.0,52.0,7.087
144.0,30.0,7.088
76.0,2.0,7.089
-52.0,-14.0,7.09
-184.0,-17.0,7.091
-298.0,4.0,7.092
-395.0,40.0,7.093
-407.0,59.0,7.094
-219.0,33.0,7.095
136.0,-27.0,7.096
409.0,-83.0,7.097
420.0,-115.0,7.098
235.0,-110.0,7.099
61.0,-68.0,7.1
-20.0,-24.0,7.101
-49.0,-6.0,7.102
4.0,-16.0,7.103
157.0,-38.0,7.104
246.0,-66.0,7.105
120.0,-89.0,7.106
-72.0,-77.0,7.107
-82.0,-15.0,7.108
66.0,55.0,7.109
157.0,81.0,7.11
120.0,69.0,7.111
50.0,67.0,7.112
-47.0,88.0,7.113
-214.0,99.0,7.114
-348.0,79.0,7.115
-309.0,48.0,7.116
-158.0,22.0,7.117
-52.0,-6.0,7.118
-23.0,-16.0,7.119
5.0,14.0,7.12
62.0,68.0,7.121
116.0,93.0,7.122
197.0,58.0,7.123
298.0,-17.0,7.124
277.0,-95.0,7.125
54.0,-147.0,7.126
-186.0,-138.0,7.127
-209.0,-62.0,7.128
-59.0,22.0,7.129
35.0,39.0,7.13
3.0,-15.0,7.131
-39.0,-59.0,7.132
-24.0,-41.0,7.133
-1.0,11.0,7.134
-15.0,48.0,7.135
-45.0,62.0,7.136
-37.0,63.0,7.137
36.0,38.0,7.138
148.0,-13.0,7.139
187.0,-58.0,7.14
81.0,-57.0,7.141
-100.0,-19.0,7.142
-213.0,1.0,7.143
-194.0,-10.0,7.144
-68.0,-22.0,7.145
87.0,-3.0,7.146
138.0,20.0,7.147
-14.0,28.0,7.148
-240.0,35.0,7.149
-283.0,58.0,7.15
-121.0,71.0,7.151
-4.0,51.0,7.152
-46.0,11.0,7.153
-52.0,-21.0,7.154
132.0,-47.0,7.155
346.0,-83.0,7.156
379.0,-110.0,7.157
262.0,-108.0,7.158
167.0,-72.0,7.159
116.0,-22.0,7.16
15.0,26.0,7.161
-125.0,66.0,7.162
-184.0,83.0,7.163
-109.0,66.0,7.164
7.0,29.0,7.165
43.0,-8.0,7.166
-30.0,-36.0,7.167
-125.0,-45.0,7.168
-118.0,-36.0,7.169
14.0,-19.0,7.17
153.0,-18.0,7.171
177.0,-24.0,7.172
97.0,-10.0,7.173
9.0,22.0,7.174
-45.0,50.0,7.175
-80.0,63.0,7.176
-70.0,78.0,7.177
35.0,101.0,7.178
193.0,117.0,7.179
251.0,104.0,7.18
111.0,56.0,7.181
-144.0,-14.0,7.182
-321.0,-88.0,7.183
-286.0,-124.0,7.184
-103.0,-101.0,7.185
35.0,-54.0,7.186
17.0,-30.0,7.187
-71.0,-25.0,7.188
-80.0,-5.0,7.189
-7.0,25.0,7.19
35.0,34.0,7.191
30.0,28.0,7.192
62.0,33.0,7.193
118.0,35.0,7.194
59.0,-9.0,7.195
-142.0,-77.0,7.196
-272.0,-94.0,7.197
-163.0,-38.0,7.198
96.0,33.0,7.199
259.0,50.0,7.2
219.0,18.0,7.201
84.0,-11.0,7.202
6.0,-25.0,7.203
45.0,-31.0,7.204
145.0,-28.0,7.205
159.0,-12.0,7.206
-4.0,6.0,7.207
-238.0,19.0,7.208
-326.0,39.0,7.209
-232.0,78.0,7.21
-113.0,107.0,7.211
-56.0,98.0,7.212
19.0,55.0,7.213
110.0,3.0,7.214
83.0,-48.0,7.215
-53.0,-92.0,7.216
-84.0,-101.0,7.217
93.0,-62.0,7.218
258.0,-17.0,7.219
172.0,-24.0,7.22
-53.0,-73.0,7.221
-130.0,-88.0,7.222
-22.0,-50.0,7.223
56.0,-9.0,7.224
-2.0,7.0,7.225
-98.0,24.0,7.226
-131.0,57.0,7.227
-101.0,80.0,7.228
-11.0,73.0,7.229
111.0,61.0,7.23
147.0,53.0,7.231
50.0,31.0,7.232
-28.0,-8.0,7.233
33.0,-37.0,7.234
89.0,-38.0,7.235
-2.0,-22.0,7.236
-57.0,-9.0,7.237
153.0,1.0,7.238
432.0,11.0,7.239
372.0,17.0,7.24
12.0,13.0,7.241
-187.0,-3.0,7.242
-68.0,-45.0,7.243
39.0,-100.0,7.244
-48.0,-121.0,7.245
-86.0,-84.0,7.246
120.0,-25.0,7.247
362.0,10.0,7.248
349.0,17.0,7.249
84.0,31.0,7.25
-245.0,51.0,7.251
-475.0,58.0,7.252
-505.0,48.0,7.253
-339.0,39.0,7.254
-153.0,39.0,7.255
-105.0,35.0,7.256
-131.0,31.0,7.257
-78.0,37.0,7.258
42.0,46.0,7.259
91.0,33.0,7.26
52.0,-17.0,7.261
30.0,-68.0,7.262
47.0,-77.0,7.263
29.0,-36.0,7.264
-38.0,13.0,7.265
-91.0,24.0,7.266
-94.0,5.0,7.267
-44.0,-3.0,7.268
68.0,8.0,7.269
205.0,11.0,7.27
258.0,-8.0,7.271
176.0,-29.0,7.272
53.0,-36.0,7.273
6.0,-39.0,7.274
16.0,-37.0,7.275
-25.0,-9.0,7.276
-131.0,38.0,7.277
-210.0,64.0,7.278
-138.0,46.0,7.279
66.0,12.0,7.28
223.0,-7.0,7.281
155.0,-8.0,7.282
-91.0,-6.0,7.283
-251.0,2.0,7.284
-135.0,22.0,7.285
127.0,38.0,7.286
271.0,35.0,7.287
235.0,21.0,7.288
152.0,11.0,7.289
