Deltoid,Bicep,Time
29.0,-5.0,0.0
24.0,-8.0,0.001
17.0,-7.0,0.002
14.0,-2.0,0.003
12.0,0.0,0.004
4.0,3.0,0.005
-7.0,8.0,0.006
-16.0,12.0,0.007
-20.0,10.0,0.008
-21.0,5.0,0.009
-23.0,5.0,0.01
-21.0,6.0,0.011
-14.0,5.0,0.012
-7.0,3.0,0.013
-2.0,0.0,0.014
8.0,-5.0,0.015
20.0,-6.0,0.016
29.0,-7.0,0.017
29.0,-6.0,0.018
30.0,-8.0,0.019
29.0,-11.0,0.02
25.0,-13.0,0.021
18.0,-6.0,0.022
14.0,0.0,0.023
10.0,0.0,0.024
2.0,0.0,0.025
-8.0,4.0,0.026
-16.0,9.0,0.027
-19.0,8.0,0.028
-22.0,6.0,0.029
-23.0,8.0,0.03
-21.0,11.0,0.031
-18.0,10.0,0.032
-16.0,6.0,0.033
-14.0,1.0,0.034
-8.0,-1.0,0.035
4.0,-4.0,0.036
16.0,-7.0,0.037
21.0,-10.0,0.038
24.0,-10.0,0.039
25.0,-9.0,0.04
18.0,-10.0,0.041
13.0,-11.0,0.042
13.0,-7.0,0.043
12.0,-1.0,0.044
4.0,4.0,0.045
-4.0,10.0,0.046
-13.0,8.0,0.047
-22.0,6.0,0.048
-26.0,2.0,0.049
-29.0,-2.0,0.05
-25.0,-1.0,0.051
-20.0,0.0,0.052
-10.0,-1.0,0.053
0.0,-2.0,0.054
11.0,-4.0,0.055
20.0,-7.0,0.056
20.0,-6.0,0.057
22.0,-4.0,0.058
31.0,-6.0,0.059
40.0,-10.0,0.06
36.0,-14.0,0.061
22.0,-9.0,0.062
14.0,0.0,0.063
12.0,5.0,0.064
2.0,8.0,0.065
-20.0,9.0,0.066
-35.0,9.0,0.067
-34.0,6.0,0.068
-28.0,5.0,0.069
-29.0,5.0,0.07
-31.0,7.0,0.071
-23.0,5.0,0.072
-8.0,4.0,0.073
2.0,1.0,0.074
9.0,-2.0,0.075
15.0,-4.0,0.076
23.0,-3.0,0.077
27.0,-2.0,0.078
29.0,-3.0,0.079
29.0,-5.0,0.08
26.0,-9.0,0.081
20.0,-12.0,0.082
16.0,-8.0,0.083
13.0,-2.0,0.084
8.0,6.0,0.085
-5.0,11.0,0.086
-17.0,8.0,0.087
-22.0,6.0,0.088
-24.0,8.0,0.089
-27.0,10.0,0.09
-26.0,4.0,0.091
-15.0,0.0,0.092
-3.0,0.0,0.093
6.0,0.0,0.094
14.0,-1.0,0.095
23.0,-3.0,0.096
30.0,-3.0,0.097
31.0,-2.0,0.098
30.0,-3.0,0.099
28.0,-5.0,0.1
25.0,-9.0,0.101
21.0,-12.0,0.102
18.0,-8.0,0.103
13.0,-2.0,0.104
2.0,6.0,0.105
-12.0,11.0,0.106
-21.0,8.0,0.107
-22.0,6.0,0.108
-25.0,8.0,0.109
-33.0,10.0,0.11
-37.0,4.0,0.111
-27.0,0.0,0.112
-10.0,0.0,0.113
2.0,0.0,0.114
9.0,-1.0,0.115
16.0,-3.0,0.116
24.0,-3.0,0.117
30.0,-3.0,0.118
33.0,-6.0,0.119
30.0,-10.0,0.12
22.0,-11.0,0.121
14.0,-9.0,0.122
13.0,-3.0,0.123
15.0,2.0,0.124
9.0,5.0,0.125
-7.0,8.0,0.126
-21.0,7.0,0.127
-24.0,5.0,0.128
-22.0,4.0,0.129
-23.0,4.0,0.13
-23.0,6.0,0.131
-14.0,4.0,0.132
-3.0,0.0,0.133
2.0,-3.0,0.134
5.0,-5.0,0.135
15.0,-5.0,0.136
27.0,-3.0,0.137
33.0,-4.0,0.138
33.0,-4.0,0.139
31.0,-4.0,0.14
25.0,-5.0,0.141
18.0,-6.0,0.142
8.0,-3.0,0.143
-2.0,1.0,0.144
-10.0,5.0,0.145
-16.0,8.0,0.146
-20.0,8.0,0.147
-23.0,7.0,0.148
-22.0,5.0,0.149
-20.0,4.0,0.15
-17.0,3.0,0.151
-14.0,1.0,0.152
-10.0,0.0,0.153
-4.0,-3.0,0.154
4.0,-3.0,0.155
11.0,-3.0,0.156
18.0,-5.0,0.157
26.0,-8.0,0.158
30.0,-10.0,0.159
29.0,-10.0,0.16
22.0,-9.0,0.161
14.0,-5.0,0.162
9.0,-1.0,0.163
4.0,0.0,0.164
-4.0,3.0,0.165
-13.0,7.0,0.166
-16.0,6.0,0.167
-16.0,3.0,0.168
-19.0,4.0,0.169
-24.0,7.0,0.17
-24.0,7.0,0.171
-17.0,0.0,0.172
-5.0,-5.0,0.173
4.0,-5.0,0.174
14.0,-4.0,0.175
24.0,-2.0,0.176
31.0,-3.0,0.177
32.0,-5.0,0.178
30.0,-7.0,0.179
26.0,-11.0,0.18
24.0,-12.0,0.181
20.0,-7.0,0.182
16.0,-1.0,0.183
12.0,2.0,0.184
5.0,4.0,0.185
-5.0,8.0,0.186
-14.0,10.0,0.187
-21.0,6.0,0.188
-26.0,1.0,0.189
-31.0,0.0,0.19
-30.0,4.0,0.191
-21.0,4.0,0.192
-8.0,0.0,0.193
0.0,-2.0,0.194
4.0,-3.0,0.195
13.0,-3.0,0.196
22.0,-1.0,0.197
28.0,-3.0,0.198
30.0,-4.0,0.199
26.0,-7.0,0.2
21.0,-9.0,0.201
17.0,-7.0,0.202
14.0,-4.0,0.203
8.0,0.0,0.204
-3.0,5.0,0.205
-15.0,9.0,0.206
-22.0,6.0,0.207
-22.0,2.0,0.208
-21.0,2.0,0.209
-22.0,5.0,0.21
-21.0,5.0,0.211
-16.0,-1.0,0.212
-9.0,-3.0,0.213
-1.0,0.0,0.214
9.0,0.0,0.215
21.0,-2.0,0.216
30.0,-2.0,0.217
35.0,-4.0,0.218
37.0,-8.0,0.219
32.0,-12.0,0.22
25.0,-14.0,0.221
20.0,-7.0,0.222
18.0,-3.0,0.223
11.0,0.0,0.224
-3.0,1.0,0.225
-21.0,3.0,0.226
-27.0,5.0,0.227
-25.0,5.0,0.228
-24.0,7.0,0.229
-30.0,8.0,0.23
-32.0,7.0,0.231
-22.0,5.0,0.232
-8.0,3.0,0.233
2.0,1.0,0.234
7.0,0.0,0.235
13.0,-4.0,0.236
21.0,-5.0,0.237
27.0,-5.0,0.238
31.0,-5.0,0.239
30.0,-6.0,0.24
26.0,-10.0,0.241
18.0,-10.0,0.242
12.0,-8.0,0.243
10.0,-2.0,0.244
4.0,3.0,0.245
-8.0,5.0,0.246
-22.0,4.0,0.247
-27.0,5.0,0.248
-27.0,8.0,0.249
-28.0,10.0,0.25
-28.0,7.0,0.251
-20.0,2.0,0.252
-6.0,1.0,0.253
8.0,-1.0,0.254
19.0,-3.0,0.255
26.0,-5.0,0.256
31.0,-4.0,0.257
30.0,-4.0,0.258
29.0,-5.0,0.259
26.0,-8.0,0.26
20.0,-7.0,0.261
12.0,-4.0,0.262
8.0,0.0,0.263
5.0,4.0,0.264
-1.0,7.0,0.265
-11.0,6.0,0.266
-21.0,4.0,0.267
-25.0,1.0,0.268
-28.0,3.0,0.269
-30.0,5.0,0.27
-27.0,5.0,0.271
-18.0,2.0,0.272
-5.0,-1.0,0.273
4.0,-1.0,0.274
12.0,-3.0,0.275
22.0,-5.0,0.276
31.0,-5.0,0.277
34.0,-6.0,0.278
32.0,-7.0,0.279
28.0,-9.0,0.28
23.0,-11.0,0.281
16.0,-10.0,0.282
8.0,-6.0,0.283
1.0,1.0,0.284
-5.0,10.0,0.285
-13.0,14.0,0.286
-18.0,12.0,0.287
-18.0,8.0,0.288
-18.0,4.0,0.289
-20.0,3.0,0.29
-17.0,2.0,0.291
-5.0,0.0,0.292
6.0,-3.0,0.293
16.0,-5.0,0.294
21.0,-6.0,0.295
24.0,-9.0,0.296
25.0,-7.0,0.297
21.0,-4.0,0.298
20.0,-2.0,0.299
21.0,-2.0,0.3
19.0,-7.0,0.301
13.0,-8.0,0.302
7.0,-4.0,0.303
4.0,2.0,0.304
-2.0,7.0,0.305
-13.0,8.0,0.306
-21.0,6.0,0.307
-26.0,4.0,0.308
-28.0,3.0,0.309
-29.0,6.0,0.31
-25.0,9.0,0.311
-17.0,7.0,0.312
-8.0,2.0,0.313
-2.0,-2.0,0.314
6.0,-2.0,0.315
18.0,-2.0,0.316
28.0,-3.0,0.317
31.0,-5.0,0.318
30.0,-7.0,0.319
28.0,-8.0,0.32
24.0,-11.0,0.321
16.0,-11.0,0.322
6.0,-6.0,0.323
2.0,0.0,0.324
-2.0,5.0,0.325
-9.0,5.0,0.326
-18.0,2.0,0.327
-24.0,-1.0,0.328
-27.0,-1.0,0.329
-30.0,4.0,0.33
-28.0,6.0,0.331
-18.0,3.0,0.332
-7.0,0.0,0.333
-3.0,-2.0,0.334
3.0,-3.0,0.335
15.0,-7.0,0.336
28.0,-8.0,0.337
34.0,-10.0,0.338
33.0,-11.0,0.339
29.0,-12.0,0.34
23.0,-12.0,0.341
19.0,-7.0,0.342
17.0,-2.0,0.343
12.0,1.0,0.344
2.0,3.0,0.345
-10.0,2.0,0.346
-17.0,2.0,0.347
-18.0,4.0,0.348
-22.0,7.0,0.349
-27.0,7.0,0.35
-25.0,4.0,0.351
-14.0,0.0,0.352
-3.0,0.0,0.353
6.0,0.0,0.354
14.0,-4.0,0.355
21.0,-7.0,0.356
26.0,-5.0,0.357
29.0,-4.0,0.358
31.0,-4.0,0.359
30.0,-6.0,0.36
22.0,-7.0,0.361
15.0,-2.0,0.362
15.0,2.0,0.363
15.0,5.0,0.364
5.0,8.0,0.365
-10.0,11.0,0.366
-19.0,12.0,0.367
-17.0,12.0,0.368
-14.0,12.0,0.369
-19.0,13.0,0.37
-23.0,11.0,0.371
-17.0,7.0,0.372
-5.0,3.0,0.373
1.0,1.0,0.374
6.0,0.0,0.375
13.0,-3.0,0.376
25.0,-3.0,0.377
34.0,-4.0,0.378
36.0,-6.0,0.379
31.0,-7.0,0.38
24.0,-9.0,0.381
17.0,-7.0,0.382
10.0,-4.0,0.383
4.0,0.0,0.384
-2.0,6.0,0.385
-16.0,10.0,0.386
-28.0,8.0,0.387
-30.0,4.0,0.388
-29.0,1.0,0.389
-32.0,3.0,0.39
-34.0,5.0,0.391
-26.0,2.0,0.392
-9.0,0.0,0.393
4.0,-1.0,0.394
10.0,0.0,0.395
16.0,-3.0,0.396
24.0,-6.0,0.397
28.0,-10.0,0.398
25.0,-9.0,0.399
21.0,-8.0,0.4
17.0,-9.0,0.401
13.0,-9.0,0.402
9.0,-6.0,0.403
7.0,-1.0,0.404
0.0,2.0,0.405
-10.0,4.0,0.406
-21.0,3.0,0.407
-24.0,1.0,0.408
-25.0,-1.0,0.409
-27.0,0.0,0.41
-26.0,3.0,0.411
-19.0,1.0,0.412
-5.0,-3.0,0.413
7.0,-4.0,0.414
16.0,-3.0,0.415
22.0,-3.0,0.416
29.0,-6.0,0.417
32.0,-9.0,0.418
33.0,-8.0,0.419
29.0,-7.0,0.42
22.0,-9.0,0.421
13.0,-8.0,0.422
8.0,-2.0,0.423
6.0,6.0,0.424
-2.0,10.0,0.425
-12.0,11.0,0.426
-20.0,9.0,0.427
-23.0,5.0,0.428
-23.0,3.0,0.429
-22.0,6.0,0.43
-18.0,7.0,0.431
-12.0,3.0,0.432
-2.0,-3.0,0.433
8.0,-4.0,0.434
20.0,-3.0,0.435
31.0,-6.0,0.436
38.0,-6.0,0.437
38.0,-4.0,0.438
34.0,-2.0,0.439
26.0,-7.0,0.44
17.0,-13.0,0.441
12.0,-9.0,0.442
8.0,0.0,0.443
1.0,4.0,0.444
-11.0,1.0,0.445
-23.0,1.0,0.446
-29.0,6.0,0.447
-27.0,8.0,0.448
-25.0,7.0,0.449
-28.0,5.0,0.45
-28.0,3.0,0.451
-17.0,-1.0,0.452
-3.0,-2.0,0.453
6.0,0.0,0.454
13.0,1.0,0.455
21.0,-3.0,0.456
28.0,-8.0,0.457
28.0,-9.0,0.458
27.0,-8.0,0.459
29.0,-6.0,0.46
29.0,-9.0,0.461
21.0,-7.0,0.462
10.0,-2.0,0.463
2.0,1.0,0.464
-4.0,4.0,0.465
-14.0,6.0,0.466
-23.0,9.0,0.467
-26.0,9.0,0.468
-25.0,9.0,0.469
-25.0,9.0,0.47
-25.0,5.0,0.471
-17.0,-1.0,0.472
-4.0,-5.0,0.473
4.0,-3.0,0.474
11.0,-1.0,0.475
17.0,-2.0,0.476
26.0,-3.0,0.477
32.0,-3.0,0.478
33.0,-4.0,0.479
27.0,-7.0,0.48
20.0,-10.0,0.481
14.0,-9.0,0.482
10.0,-4.0,0.483
7.0,-2.0,0.484
2.0,0.0,0.485
-2.0,3.0,0.486
-8.0,8.0,0.487
-17.0,11.0,0.488
-26.0,10.0,0.489
-32.0,9.0,0.49
-27.0,7.0,0.491
-13.0,5.0,0.492
0.0,1.0,0.493
7.0,-1.0,0.494
11.0,-3.0,0.495
18.0,-4.0,0.496
28.0,-6.0,0.497
33.0,-9.0,0.498
31.0,-7.0,0.499
26.0,-5.0,0.5
21.0,-8.0,0.501
15.0,-10.0,0.502
6.0,-8.0,0.503
-1.0,-1.0,0.504
-6.0,5.0,0.505
-15.0,10.0,0.506
-24.0,9.0,0.507
-28.0,6.0,0.508
-28.0,3.0,0.509
-26.0,5.0,0.51
-20.0,8.0,0.511
-9.0,6.0,0.512
4.0,1.0,0.513
12.0,-1.0,0.514
16.0,-1.0,0.515
20.0,-2.0,0.516
28.0,-3.0,0.517
32.0,-6.0,0.518
33.0,-9.0,0.519
29.0,-13.0,0.52
23.0,-18.0,0.521
14.0,-13.0,0.522
4.0,-7.0,0.523
-2.0,-1.0,0.524
-8.0,2.0,0.525
-15.0,3.0,0.526
-23.0,5.0,0.527
-27.0,7.0,0.528
-28.0,7.0,0.529
-28.0,8.0,0.53
-24.0,10.0,0.531
-15.0,8.0,0.532
-3.0,6.0,0.533
9.0,3.0,0.534
19.0,0.0,0.535
27.0,-3.0,0.536
32.0,-3.0,0.537
32.0,-4.0,0.538
31.0,-5.0,0.539
27.0,-7.0,0.54
21.0,-13.0,0.541
12.0,-13.0,0.542
7.0,-8.0,0.543
6.0,-2.0,0.544
0.0,4.0,0.545
-14.0,7.0,0.546
-25.0,6.0,0.547
-29.0,4.0,0.548
-30.0,6.0,0.549
-32.0,8.0,0.55
-27.0,5.0,0.551
-16.0,2.0,0.552
-3.0,0.0,0.553
4.0,0.0,0.554
9.0,-4.0,0.555
18.0,-8.0,0.556
29.0,-7.0,0.557
36.0,-6.0,0.558
37.0,-7.0,0.559
31.0,-9.0,0.56
24.0,-11.0,0.561
18.0,-8.0,0.562
14.0,-2.0,0.563
11.0,1.0,0.564
1.0,7.0,0.565
-10.0,10.0,0.566
-20.0,10.0,0.567
-26.0,6.0,0.568
-28.0,0.0,0.569
-28.0,1.0,0.57
-24.0,5.0,0.571
-16.0,1.0,0.572
-7.0,-5.0,0.573
-1.0,-5.0,0.574
8.0,-4.0,0.575
21.0,-3.0,0.576
29.0,-4.0,0.577
33.0,-6.0,0.578
36.0,-3.0,0.579
33.0,-1.0,0.58
24.0,-3.0,0.581
10.0,-6.0,0.582
2.0,-7.0,0.583
3.0,-1.0,0.584
0.0,6.0,0.585
-9.0,10.0,0.586
-20.0,10.0,0.587
-24.0,9.0,0.588
-24.0,9.0,0.589
-24.0,5.0,0.59
-23.0,3.0,0.591
-16.0,2.0,0.592
-5.0,3.0,0.593
5.0,1.0,0.594
14.0,-2.0,0.595
23.0,-5.0,0.596
30.0,-3.0,0.597
31.0,-5.0,0.598
31.0,-9.0,0.599
26.0,-11.0,0.6
19.0,-10.0,0.601
10.0,-6.0,0.602
5.0,-3.0,0.603
4.0,1.0,0.604
-1.0,7.0,0.605
-12.0,9.0,0.606
-22.0,6.0,0.607
-25.0,2.0,0.608
-25.0,1.0,0.609
-25.0,6.0,0.61
-22.0,6.0,0.611
-14.0,4.0,0.612
-6.0,1.0,0.613
-2.0,0.0,0.614
6.0,-3.0,0.615
19.0,-7.0,0.616
31.0,-6.0,0.617
36.0,-6.0,0.618
36.0,-8.0,0.619
31.0,-9.0,0.62
23.0,-9.0,0.621
13.0,-6.0,0.622
8.0,-4.0,0.623
5.0,-1.0,0.624
0.0,4.0,0.625
-9.0,10.0,0.626
-17.0,10.0,0.627
-21.0,7.0,0.628
-26.0,2.0,0.629
-31.0,1.0,0.63
-30.0,0.0,0.631
-18.0,-1.0,0.632
-5.0,-2.0,0.633
1.0,-3.0,0.634
9.0,-4.0,0.635
21.0,-4.0,0.636
32.0,-3.0,0.637
34.0,-2.0,0.638
32.0,-4.0,0.639
26.0,-5.0,0.64
21.0,-5.0,0.641
15.0,-3.0,0.642
8.0,0.0,0.643
0.0,2.0,0.644
-7.0,4.0,0.645
-16.0,8.0,0.646
-19.0,7.0,0.647
-18.0,1.0,0.648
-17.0,0.0,0.649
-16.0,6.0,0.65
-14.0,10.0,0.651
-7.0,4.0,0.652
1.0,-6.0,0.653
8.0,-9.0,0.654
14.0,-4.0,0.655
20.0,-1.0,0.656
22.0,-2.0,0.657
21.0,-6.0,0.658
22.0,-7.0,0.659
22.0,-8.0,0.66
18.0,-9.0,0.661
10.0,-9.0,0.662
8.0,-6.0,0.663
10.0,-1.0,0.664
2.0,4.0,0.665
-17.0,9.0,0.666
-32.0,10.0,0.667
-35.0,5.0,0.668
-30.0,3.0,0.669
-27.0,5.0,0.67
-22.0,5.0,0.671
-14.0,1.0,0.672
-4.0,-2.0,0.673
2.0,-1.0,0.674
11.0,-2.0,0.675
21.0,-6.0,0.676
29.0,-9.0,0.677
32.0,-9.0,0.678
35.0,-5.0,0.679
35.0,-7.0,0.68
27.0,-13.0,0.681
14.0,-10.0,0.682
4.0,-2.0,0.683
3.0,4.0,0.684
0.0,6.0,0.685
-11.0,7.0,0.686
-20.0,7.0,0.687
-22.0,3.0,0.688
-22.0,0.0,0.689
-25.0,2.0,0.69
-24.0,5.0,0.691
-13.0,2.0,0.692
2.0,-3.0,0.693
8.0,-4.0,0.694
11.0,-1.0,0.695
15.0,-4.0,0.696
21.0,-7.0,0.697
23.0,-8.0,0.698
22.0,-6.0,0.699
21.0,-5.0,0.7
19.0,-10.0,0.701
12.0,-9.0,0.702
5.0,-2.0,0.703
1.0,4.0,0.704
-2.0,8.0,0.705
-10.0,9.0,0.706
-20.0,8.0,0.707
-21.0,5.0,0.708
-20.0,2.0,0.709
-19.0,2.0,0.71
-20.0,4.0,0.711
-13.0,1.0,0.712
0.0,0.0,0.713
12.0,2.0,0.714
19.0,1.0,0.715
24.0,-6.0,0.716
28.0,-10.0,0.717
32.0,-8.0,0.718
35.0,-6.0,0.719
34.0,-4.0,0.72
27.0,-8.0,0.721
13.0,-9.0,0.722
2.0,-1.0,0.723
0.0,5.0,0.724
-5.0,5.0,0.725
-15.0,6.0,0.726
-25.0,6.0,0.727
-31.0,5.0,0.728
-32.0,5.0,0.729
-30.0,5.0,0.73
-26.0,2.0,0.731
-18.0,-1.0,0.732
-7.0,-2.0,0.733
5.0,-3.0,0.734
17.0,0.0,0.735
26.0,1.0,0.736
33.0,-4.0,0.737
35.0,-9.0,0.738
36.0,-9.0,0.739
36.0,-5.0,0.74
28.0,-4.0,0.741
16.0,-2.0,0.742
4.0,0.0,0.743
-4.0,2.0,0.744
-11.0,5.0,0.745
-19.0,6.0,0.746
-23.0,4.0,0.747
-23.0,2.0,0.748
-25.0,5.0,0.749
-29.0,8.0,0.75
-29.0,6.0,0.751
-22.0,-1.0,0.752
-9.0,-4.0,0.753
5.0,-2.0,0.754
17.0,-2.0,0.755
24.0,-5.0,0.756
31.0,-4.0,0.757
38.0,-3.0,0.758
40.0,-3.0,0.759
34.0,-6.0,0.76
20.0,-11.0,0.761
10.0,-7.0,0.762
10.0,-1.0,0.763
9.0,0.0,0.764
1.0,-1.0,0.765
-13.0,-2.0,0.766
-22.0,1.0,0.767
-24.0,4.0,0.768
-24.0,5.0,0.769
-24.0,6.0,0.77
-22.0,4.0,0.771
-15.0,1.0,0.772
-7.0,0.0,0.773
4.0,0.0,0.774
16.0,-2.0,0.775
25.0,-3.0,0.776
30.0,-2.0,0.777
29.0,-4.0,0.778
27.0,-4.0,0.779
24.0,-5.0,0.78
18.0,-5.0,0.781
11.0,-4.0,0.782
4.0,-2.0,0.783
-2.0,0.0,0.784
-7.0,4.0,0.785
-13.0,7.0,0.786
-18.0,4.0,0.787
-23.0,2.0,0.788
-26.0,7.0,0.789
-26.0,10.0,0.79
-16.0,5.0,0.791
-6.0,0.0,0.792
4.0,-1.0,0.793
13.0,-3.0,0.794
17.0,-5.0,0.795
20.0,-7.0,0.796
21.0,-7.0,0.797
22.0,-4.0,0.798
20.0,-4.0,0.799
19.0,-5.0,0.8
17.0,-5.0,0.801
13.0,-4.0,0.802
8.0,-2.0,0.803
7.0,0.0,0.804
1.0,4.0,0.805
-12.0,7.0,0.806
-25.0,4.0,0.807
-28.0,2.0,0.808
-26.0,7.0,0.809
-23.0,10.0,0.81
-20.0,5.0,0.811
-11.0,0.0,0.812
0.0,-1.0,0.813
7.0,-3.0,0.814
13.0,-5.0,0.815
19.0,-7.0,0.816
29.0,-7.0,0.817
31.0,-7.0,0.818
29.0,-7.0,0.819
26.0,-8.0,0.82
18.0,-9.0,0.821
11.0,-5.0,0.822
6.0,-2.0,0.823
0.0,1.0,0.824
-8.0,7.0,0.825
-15.0,11.0,0.826
-20.0,11.0,0.827
-24.0,8.0,0.828
-24.0,7.0,0.829
-23.0,9.0,0.83
-19.0,10.0,0.831
-14.0,6.0,0.832
-6.0,1.0,0.833
3.0,0.0,0.834
13.0,-1.0,0.835
23.0,-4.0,0.836
29.0,-6.0,0.837
35.0,-7.0,0.838
36.0,-9.0,0.839
29.0,-11.0,0.84
19.0,-14.0,0.841
11.0,-11.0,0.842
11.0,-6.0,0.843
15.0,-2.0,0.844
8.0,3.0,0.845
-7.0,7.0,0.846
-22.0,9.0,0.847
-28.0,6.0,0.848
-30.0,3.0,0.849
-29.0,2.0,0.85
-23.0,4.0,0.851
-13.0,3.0,0.852
-4.0,0.0,0.853
0.0,-4.0,0.854
7.0,-6.0,0.855
17.0,-4.0,0.856
25.0,-3.0,0.857
32.0,-3.0,0.858
34.0,-4.0,0.859
28.0,-5.0,0.86
18.0,-6.0,0.861
8.0,-4.0,0.862
5.0,-2.0,0.863
5.0,0.0,0.864
-3.0,3.0,0.865
-15.0,8.0,0.866
-19.0,8.0,0.867
-20.0,4.0,0.868
-24.0,1.0,0.869
-30.0,4.0,0.87
-27.0,4.0,0.871
-15.0,0.0,0.872
-2.0,-5.0,0.873
9.0,-5.0,0.874
17.0,-4.0,0.875
22.0,-6.0,0.876
26.0,-8.0,0.877
30.0,-10.0,0.878
33.0,-8.0,0.879
29.0,-6.0,0.88
17.0,-8.0,0.881
4.0,-8.0,0.882
0.0,-1.0,0.883
-2.0,5.0,0.884
-8.0,9.0,0.885
-19.0,11.0,0.886
-25.0,9.0,0.887
-26.0,6.0,0.888
-25.0,2.0,0.889
-24.0,0.0,0.89
-16.0,1.0,0.891
-1.0,3.0,0.892
11.0,1.0,0.893
16.0,-1.0,0.894
20.0,-1.0,0.895
23.0,-1.0,0.896
27.0,-3.0,0.897
26.0,-5.0,0.898
26.0,-3.0,0.899
20.0,-4.0,0.9
11.0,-7.0,0.901
4.0,-7.0,0.902
4.0,-3.0,0.903
4.0,3.0,0.904
-4.0,11.0,0.905
-18.0,14.0,0.906
-23.0,11.0,0.907
-26.0,6.0,0.908
-28.0,5.0,0.909
-33.0,6.0,0.91
-28.0,4.0,0.911
-13.0,-2.0,0.912
1.0,-6.0,0.913
9.0,-6.0,0.914
14.0,-4.0,0.915
21.0,-4.0,0.916
29.0,-4.0,0.917
32.0,-6.0,0.918
33.0,-9.0,0.919
29.0,-13.0,0.92
21.0,-13.0,0.921
12.0,-10.0,0.922
3.0,-4.0,0.923
0.0,-2.0,0.924
-3.0,0.0,0.925
-10.0,3.0,0.926
-15.0,3.0,0.927
-19.0,0.0,0.928
-22.0,-3.0,0.929
-24.0,-1.0,0.93
-24.0,0.0,0.931
-13.0,-3.0,0.932
1.0,-6.0,0.933
13.0,-5.0,0.934
18.0,-3.0,0.935
20.0,-4.0,0.936
25.0,-4.0,0.937
27.0,-4.0,0.938
28.0,-3.0,0.939
27.0,-5.0,0.94
22.0,-8.0,0.941
16.0,-4.0,0.942
9.0,1.0,0.943
6.0,4.0,0.944
-1.0,5.0,0.945
-11.0,7.0,0.946
-19.0,8.0,0.947
-21.0,8.0,0.948
-20.0,8.0,0.949
-21.0,9.0,0.95
-20.0,10.0,0.951
-9.0,7.0,0.952
5.0,2.0,0.953
15.0,0.0,0.954
19.0,0.0,0.955
23.0,-1.0,0.956
30.0,-2.0,0.957
35.0,-1.0,0.958
39.0,1.0,0.959
36.0,3.0,0.96
25.0,1.0,0.961
7.0,0.0,0.962
-3.0,1.0,0.963
-3.0,3.0,0.964
-5.0,7.0,0.965
-17.0,9.0,0.966
-31.0,7.0,0.967
-35.0,5.0,0.968
-31.0,4.0,0.969
-28.0,3.0,0.97
-27.0,3.0,0.971
-18.0,1.0,0.972
-2.0,0.0,0.973
7.0,-3.0,0.974
10.0,-3.0,0.975
15.0,-4.0,0.976
24.0,-5.0,0.977
28.0,-7.0,0.978
26.0,-10.0,0.979
20.0,-11.0,0.98
15.0,-13.0,0.981
9.0,-10.0,0.982
3.0,-7.0,0.983
-3.0,-4.0,0.984
-11.0,1.0,0.985
-22.0,5.0,0.986
-30.0,6.0,0.987
-28.0,4.0,0.988
-22.0,2.0,0.989
-21.0,4.0,0.99
-18.0,4.0,0.991
-8.0,-1.0,0.992
0.0,-5.0,0.993
4.0,-5.0,0.994
12.0,-3.0,0.995
26.0,-6.0,0.996
39.0,-8.0,0.997
40.0,-4.0,0.998
33.0,0.0,0.999
26.0,-1.0,1.0
20.0,-8.0,1.001
12.0,-9.0,1.002
6.0,-1.0,1.003
4.0,5.0,1.004
0.0,5.0,1.005
-10.0,5.0,1.006
-19.0,6.0,1.007
-21.0,8.0,1.008
-22.0,4.0,1.009
-24.0,0.0,1.01
-21.0,0.0,1.011
-10.0,1.0,1.012
3.0,0.0,1.013
10.0,-4.0,1.014
13.0,-7.0,1.015
19.0,-5.0,1.016
27.0,-4.0,1.017
33.0,-5.0,1.018
35.0,-8.0,1.019
30.0,-11.0,1.02
21.0,-11.0,1.021
9.0,-8.0,1.022
1.0,-6.0,1.023
-2.0,-4.0,1.024
-4.0,-1.0,1.025
-13.0,9.0,1.026
-23.0,13.0,1.027
-30.0,8.0,1.028
-32.0,4.0,1.029
-28.0,6.0,1.03
-19.0,9.0,1.031
-7.0,6.0,1.032
4.0,0.0,1.033
13.0,-2.0,1.034
20.0,-2.0,1.035
29.0,-2.0,1.036
36.0,-2.0,1.037
36.0,-6.0,1.038
35.0,-6.0,1.039
31.0,-6.0,1.04
23.0,-8.0,1.041
10.0,-9.0,1.042
-1.0,-3.0,1.043
-4.0,2.0,1.044
-8.0,7.0,1.045
-17.0,10.0,1.046
-27.0,6.0,1.047
-32.0,3.0,1.048
-31.0,3.0,1.049
-29.0,3.0,1.05
-24.0,3.0,1.051
-16.0,2.0,1.052
-5.0,-2.0,1.053
5.0,-6.0,1.054
13.0,-7.0,1.055
19.0,-9.0,1.056
24.0,-9.0,1.057
25.0,-8.0,1.058
27.0,-6.0,1.059
26.0,-6.0,1.06
20.0,-8.0,1.061
13.0,-5.0,1.062
8.0,0.0,1.063
4.0,1.0,1.064
-4.0,3.0,1.065
-17.0,8.0,1.066
-24.0,9.0,1.067
-23.0,6.0,1.068
-19.0,3.0,1.069
-21.0,5.0,1.07
-21.0,6.0,1.071
-12.0,1.0,1.072
4.0,-5.0,1.073
15.0,-6.0,1.074
21.0,-2.0,1.075
26.0,-3.0,1.076
33.0,-5.0,1.077
35.0,-8.0,1.078
34.0,-10.0,1.079
28.0,-8.0,1.08
20.0,-8.0,1.081
11.0,-5.0,1.082
5.0,-1.0,1.083
4.0,3.0,1.084
0.0,8.0,1.085
-11.0,9.0,1.086
-21.0,3.0,1.087
-24.0,0.0,1.088
-26.0,3.0,1.089
-28.0,7.0,1.09
-25.0,4.0,1.091
-14.0,-3.0,1.092
0.0,-4.0,1.093
7.0,-3.0,1.094
12.0,-6.0,1.095
22.0,-9.0,1.096
33.0,-8.0,1.097
37.0,-7.0,1.098
37.0,-6.0,1.099
31.0,-5.0,1.1
19.0,-10.0,1.101
4.0,-13.0,1.102
-3.0,-9.0,1.103
-1.0,-3.0,1.104
-3.0,0.0,1.105
-16.0,3.0,1.106
-28.0,3.0,1.107
-31.0,4.0,1.108
-30.0,4.0,1.109
-30.0,5.0,1.11
-26.0,4.0,1.111
-14.0,1.0,1.112
0.0,0.0,1.113
12.0,-2.0,1.114
24.0,-1.0,1.115
36.0,0.0,1.116
43.0,-5.0,1.117
39.0,-8.0,1.118
34.0,-6.0,1.119
32.0,-5.0,1.12
27.0,-10.0,1.121
14.0,-13.0,1.122
3.0,-9.0,1.123
-1.0,-3.0,1.124
-7.0,0.0,1.125
-20.0,3.0,1.126
-34.0,3.0,1.127
-38.0,4.0,1.128
-32.0,4.0,1.129
-27.0,6.0,1.13
-23.0,4.0,1.131
-14.0,1.0,1.132
-2.0,0.0,1.133
7.0,-2.0,1.134
15.0,-1.0,1.135
21.0,0.0,1.136
29.0,-5.0,1.137
31.0,-6.0,1.138
29.0,-5.0,1.139
26.0,-4.0,1.14
17.0,-8.0,1.141
8.0,-10.0,1.142
1.0,-7.0,1.143
-5.0,-3.0,1.144
-9.0,0.0,1.145
-13.0,2.0,1.146
-18.0,2.0,1.147
-23.0,3.0,1.148
-25.0,3.0,1.149
-26.0,4.0,1.15
-18.0,3.0,1.151
-9.0,1.0,1.152
1.0,0.0,1.153
11.0,-2.0,1.154
18.0,-1.0,1.155
25.0,0.0,1.156
29.0,-4.0,1.157
33.0,-8.0,1.158
34.0,-10.0,1.159
31.0,-9.0,1.16
21.0,-8.0,1.161
9.0,-7.0,1.162
1.0,-3.0,1.163
1.0,2.0,1.164
0.0,6.0,1.165
-11.0,6.0,1.166
-22.0,6.0,1.167
-25.0,6.0,1.168
-24.0,6.0,1.169
-23.0,7.0,1.17
-22.0,5.0,1.171
-13.0,0.0,1.172
-2.0,-4.0,1.173
5.0,-5.0,1.174
11.0,-3.0,1.175
21.0,-3.0,1.176
31.0,-3.0,1.177
34.0,-5.0,1.178
31.0,-4.0,1.179
24.0,-6.0,1.18
16.0,-8.0,1.181
7.0,-6.0,1.182
2.0,-3.0,1.183
4.0,-1.0,1.184
0.0,0.0,1.185
-13.0,6.0,1.186
-24.0,10.0,1.187
-26.0,7.0,1.188
-27.0,1.0,1.189
-28.0,1.0,1.19
-24.0,4.0,1.191
-12.0,1.0,1.192
0.0,-4.0,1.193
6.0,-7.0,1.194
10.0,-3.0,1.195
19.0,-4.0,1.196
28.0,-6.0,1.197
30.0,-8.0,1.198
30.0,-6.0,1.199
29.0,-5.0,1.2
24.0,-6.0,1.201
12.0,-6.0,1.202
2.0,-4.0,1.203
-1.0,-2.0,1.204
-9.0,0.0,1.205
-20.0,2.0,1.206
-26.0,6.0,1.207
-25.0,10.0,1.208
-23.0,8.0,1.209
-23.0,7.0,1.21
-16.0,7.0,1.211
-2.0,6.0,1.212
10.0,2.0,1.213
16.0,-1.0,1.214
19.0,-1.0,1.215
25.0,-1.0,1.216
30.0,-2.0,1.217
30.0,-4.0,1.218
27.0,-8.0,1.219
22.0,-10.0,1.22
17.0,-11.0,1.221
10.0,-7.0,1.222
7.0,-2.0,1.223
4.0,2.0,1.224
-4.0,6.0,1.225
-17.0,5.0,1.226
-26.0,2.0,1.227
-28.0,2.0,1.228
-28.0,5.0,1.229
-31.0,7.0,1.23
-31.0,3.0,1.231
-19.0,-3.0,1.232
-4.0,-3.0,1.233
7.0,0.0,1.234
15.0,0.0,1.235
26.0,-3.0,1.236
38.0,-1.0,1.237
42.0,0.0,1.238
34.0,-3.0,1.239
20.0,-6.0,1.24
12.0,-5.0,1.241
7.0,-3.0,1.242
2.0,-1.0,1.243
-6.0,2.0,1.244
-16.0,7.0,1.245
-22.0,10.0,1.246
-23.0,7.0,1.247
-24.0,4.0,1.248
-30.0,5.0,1.249
-32.0,6.0,1.25
-21.0,5.0,1.251
-4.0,3.0,1.252
6.0,1.0,1.253
9.0,-1.0,1.254
16.0,-3.0,1.255
28.0,-6.0,1.256
35.0,-6.0,1.257
32.0,-7.0,1.258
29.0,-8.0,1.259
26.0,-7.0,1.26
20.0,-7.0,1.261
11.0,-5.0,1.262
7.0,-5.0,1.263
8.0,-5.0,1.264
1.0,0.0,1.265
-13.0,6.0,1.266
-25.0,8.0,1.267
-25.0,6.0,1.268
-24.0,5.0,1.269
-25.0,7.0,1.27
-22.0,7.0,1.271
-9.0,4.0,1.272
3.0,-1.0,1.273
11.0,-6.0,1.274
18.0,-7.0,1.275
29.0,-7.0,1.276
38.0,-5.0,1.277
36.0,-7.0,1.278
32.0,-7.0,1.279
26.0,-8.0,1.28
19.0,-8.0,1.281
7.0,-8.0,1.282
0.0,-3.0,1.283
-1.0,0.0,1.284
-10.0,1.0,1.285
-27.0,2.0,1.286
-38.0,2.0,1.287
-31.0,2.0,1.288
-16.0,6.0,1.289
-6.0,10.0,1.29
-1.0,11.0,1.291
7.0,11.0,1.292
16.0,9.0,1.293
17.0,6.0,1.294
14.0,3.0,1.295
18.0,0.0,1.296
27.0,-4.0,1.297
30.0,-6.0,1.298
26.0,-6.0,1.299
21.0,-7.0,1.3
17.0,-7.0,1.301
11.0,-7.0,1.302
4.0,-3.0,1.303
-2.0,0.0,1.304
-4.0,1.0,1.305
-7.0,2.0,1.306
-15.0,2.0,1.307
-21.0,2.0,1.308
-22.0,6.0,1.309
-24.0,9.0,1.31
-24.0,10.0,1.311
-23.0,10.0,1.312
-20.0,8.0,1.313
-14.0,6.0,1.314
2.0,3.0,1.315
16.0,0.0,1.316
23.0,-4.0,1.317
30.0,-8.0,1.318
30.0,-10.0,1.319
29.0,-9.0,1.32
22.0,-10.0,1.321
11.0,-7.0,1.322
4.0,-2.0,1.323
2.0,2.0,1.324
-6.0,6.0,1.325
-19.0,9.0,1.326
-27.0,8.0,1.327
-27.0,3.0,1.328
-26.0,0.0,1.329
-25.0,0.0,1.33
-18.0,0.0,1.331
-3.0,-2.0,1.332
7.0,-5.0,1.333
10.0,-4.0,1.334
14.0,-3.0,1.335
24.0,-8.0,1.336
32.0,-10.0,1.337
31.0,-9.0,1.338
32.0,-3.0,1.339
31.0,-1.0,1.34
24.0,-4.0,1.341
12.0,-5.0,1.342
5.0,-3.0,1.343
7.0,0.0,1.344
1.0,4.0,1.345
-13.0,9.0,1.346
-23.0,10.0,1.347
-23.0,6.0,1.348
-25.0,3.0,1.349
-28.0,4.0,1.35
-23.0,5.0,1.351
-7.0,1.0,1.352
7.0,-3.0,1.353
11.0,-6.0,1.354
13.0,-7.0,1.355
21.0,-8.0,1.356
29.0,-7.0,1.357
30.0,-6.0,1.358
24.0,-6.0,1.359
19.0,-7.0,1.36
17.0,-7.0,1.361
15.0,-6.0,1.362
10.0,-4.0,1.363
4.0,0.0,1.364
-5.0,5.0,1.365
-20.0,10.0,1.366
-32.0,10.0,1.367
-39.0,10.0,1.368
-38.0,8.0,1.369
-32.0,6.0,1.37
-22.0,4.0,1.371
-7.0,2.0,1.372
4.0,-3.0,1.373
16.0,-7.0,1.374
26.0,-7.0,1.375
34.0,-7.0,1.376
38.0,-7.0,1.377
37.0,-6.0,1.378
34.0,-7.0,1.379
28.0,-8.0,1.38
17.0,-10.0,1.381
5.0,-6.0,1.382
0.0,0.0,1.383
-2.0,2.0,1.384
-8.0,4.0,1.385
-21.0,6.0,1.386
-31.0,5.0,1.387
-34.0,4.0,1.388
-32.0,5.0,1.389
-29.0,8.0,1.39
-21.0,7.0,1.391
-7.0,1.0,1.392
7.0,-4.0,1.393
17.0,-3.0,1.394
25.0,0.0,1.395
35.0,-1.0,1.396
42.0,-2.0,1.397
41.0,-2.0,1.398
37.0,-1.0,1.399
30.0,0.0,1.4
19.0,-4.0,1.401
7.0,-6.0,1.402
0.0,-3.0,1.403
0.0,0.0,1.404
-8.0,4.0,1.405
-23.0,7.0,1.406
-34.0,7.0,1.407
-33.0,6.0,1.408
-29.0,6.0,1.409
-26.0,5.0,1.41
-22.0,4.0,1.411
-10.0,2.0,1.412
2.0,-1.0,1.413
10.0,-4.0,1.414
17.0,-6.0,1.415
27.0,-9.0,1.416
37.0,-9.0,1.417
39.0,-7.0,1.418
36.0,-3.0,1.419
28.0,-4.0,1.42
16.0,-10.0,1.421
6.0,-10.0,1.422
2.0,-6.0,1.423
3.0,0.0,1.424
-4.0,7.0,1.425
-17.0,11.0,1.426
-26.0,11.0,1.427
-25.0,7.0,1.428
-25.0,5.0,1.429
-28.0,6.0,1.43
-25.0,1.0,1.431
-11.0,-5.0,1.432
4.0,-5.0,1.433
12.0,-2.0,1.434
15.0,-2.0,1.435
22.0,-7.0,1.436
32.0,-10.0,1.437
36.0,-8.0,1.438
33.0,-8.0,1.439
27.0,-7.0,1.44
19.0,-5.0,1.441
10.0,-3.0,1.442
2.0,2.0,1.443
-2.0,6.0,1.444
-10.0,6.0,1.445
-21.0,6.0,1.446
-29.0,6.0,1.447
-31.0,5.0,1.448
-29.0,7.0,1.449
-25.0,9.0,1.45
-13.0,8.0,1.451
3.0,5.0,1.452
13.0,0.0,1.453
11.0,-5.0,1.454
9.0,-5.0,1.455
15.0,-5.0,1.456
28.0,-7.0,1.457
37.0,-8.0,1.458
39.0,-6.0,1.459
30.0,-9.0,1.46
19.0,-11.0,1.461
11.0,-6.0,1.462
8.0,0.0,1.463
5.0,2.0,1.464
-5.0,3.0,1.465
-16.0,6.0,1.466
-22.0,9.0,1.467
-23.0,7.0,1.468
-25.0,5.0,1.469
-29.0,8.0,1.47
-27.0,7.0,1.471
-20.0,2.0,1.472
-8.0,-4.0,1.473
3.0,-3.0,1.474
13.0,-1.0,1.475
18.0,-4.0,1.476
24.0,-7.0,1.477
30.0,-8.0,1.478
33.0,-5.0,1.479
27.0,-5.0,1.48
17.0,-8.0,1.481
10.0,-8.0,1.482
9.0,-5.0,1.483
8.0,-2.0,1.484
-3.0,3.0,1.485
-16.0,7.0,1.486
-24.0,8.0,1.487
-27.0,5.0,1.488
-30.0,3.0,1.489
-29.0,4.0,1.49
-19.0,1.0,1.491
-5.0,-3.0,1.492
6.0,-4.0,1.493
12.0,-1.0,1.494
19.0,-2.0,1.495
27.0,-8.0,1.496
34.0,-9.0,1.497
35.0,-5.0,1.498
31.0,-4.0,1.499
23.0,-6.0,1.5
13.0,-11.0,1.501
4.0,-7.0,1.502
2.0,0.0,1.503
3.0,3.0,1.504
-3.0,6.0,1.505
-17.0,9.0,1.506
-26.0,10.0,1.507
-26.0,8.0,1.508
-23.0,7.0,1.509
-22.0,9.0,1.51
-22.0,10.0,1.511
-15.0,3.0,1.512
-3.0,-1.0,1.513
5.0,0.0,1.514
15.0,-2.0,1.515
26.0,-9.0,1.516
37.0,-12.0,1.517
37.0,-9.0,1.518
33.0,-6.0,1.519
26.0,-3.0,1.52
16.0,-5.0,1.521
6.0,-7.0,1.522
0.0,-5.0,1.523
-2.0,-2.0,1.524
-8.0,3.0,1.525
-19.0,7.0,1.526
-25.0,7.0,1.527
-26.0,6.0,1.528
-25.0,2.0,1.529
-25.0,-2.0,1.53
-20.0,-3.0,1.531
-7.0,-4.0,1.532
4.0,-5.0,1.533
13.0,-6.0,1.534
20.0,-7.0,1.535
27.0,-9.0,1.536
32.0,-7.0,1.537
30.0,-6.0,1.538
29.0,-9.0,1.539
26.0,-14.0,1.54
18.0,-18.0,1.541
7.0,-11.0,1.542
0.0,0.0,1.543
-1.0,7.0,1.544
-7.0,6.0,1.545
-21.0,4.0,1.546
-33.0,6.0,1.547
-32.0,11.0,1.548
-26.0,15.0,1.549
-21.0,14.0,1.55
-13.0,8.0,1.551
1.0,2.0,1.552
15.0,-1.0,1.553
20.0,-2.0,1.554
22.0,-2.0,1.555
28.0,-1.0,1.556
39.0,0.0,1.557
43.0,0.0,1.558
39.0,-1.0,1.559
28.0,-1.0,1.56
16.0,-3.0,1.561
8.0,-2.0,1.562
6.0,0.0,1.563
5.0,2.0,1.564
-3.0,6.0,1.565
-16.0,10.0,1.566
-25.0,11.0,1.567
-25.0,10.0,1.568
-24.0,8.0,1.569
-23.0,7.0,1.57
-20.0,5.0,1.571
-11.0,0.0,1.572
2.0,-1.0,1.573
13.0,0.0,1.574
19.0,0.0,1.575
21.0,-5.0,1.576
24.0,-8.0,1.577
25.0,-12.0,1.578
26.0,-10.0,1.579
23.0,-8.0,1.58
9.0,-5.0,1.581
-2.0,-4.0,1.582
-2.0,-4.0,1.583
-3.0,-1.0,1.584
-10.0,2.0,1.585
-17.0,6.0,1.586
-24.0,8.0,1.587
-29.0,10.0,1.588
-27.0,8.0,1.589
-24.0,5.0,1.59
-17.0,2.0,1.591
-9.0,1.0,1.592
-1.0,1.0,1.593
7.0,0.0,1.594
13.0,-1.0,1.595
19.0,-2.0,1.596
24.0,-5.0,1.597
29.0,-10.0,1.598
29.0,-8.0,1.599
25.0,-6.0,1.6
16.0,-4.0,1.601
3.0,-3.0,1.602
-2.0,-3.0,1.603
-1.0,-1.0,1.604
-4.0,2.0,1.605
-17.0,5.0,1.606
-26.0,6.0,1.607
-27.0,8.0,1.608
-22.0,6.0,1.609
-21.0,4.0,1.61
-17.0,2.0,1.611
-5.0,1.0,1.612
8.0,1.0,1.613
16.0,0.0,1.614
20.0,-1.0,1.615
25.0,-2.0,1.616
34.0,-4.0,1.617
35.0,-9.0,1.618
29.0,-8.0,1.619
22.0,-6.0,1.62
11.0,-4.0,1.621
1.0,-3.0,1.622
-2.0,-3.0,1.623
-6.0,-1.0,1.624
-14.0,2.0,1.625
-20.0,5.0,1.626
-21.0,6.0,1.627
-23.0,8.0,1.628
-23.0,6.0,1.629
-20.0,4.0,1.63
-12.0,2.0,1.631
-2.0,1.0,1.632
11.0,1.0,1.633
22.0,0.0,1.634
28.0,-1.0,1.635
33.0,-2.0,1.636
34.0,-4.0,1.637
36.0,-7.0,1.638
33.0,-9.0,1.639
27.0,-8.0,1.64
15.0,-8.0,1.641
4.0,-4.0,1.642
0.0,-1.0,1.643
-4.0,0.0,1.644
-11.0,1.0,1.645
-22.0,4.0,1.646
-27.0,5.0,1.647
-25.0,6.0,1.648
-24.0,6.0,1.649
-26.0,6.0,1.65
-22.0,4.0,1.651
-13.0,1.0,1.652
-3.0,0.0,1.653
1.0,1.0,1.654
8.0,0.0,1.655
18.0,-3.0,1.656
27.0,-3.0,1.657
32.0,-4.0,1.658
32.0,-7.0,1.659
27.0,-10.0,1.66
19.0,-13.0,1.661
9.0,-8.0,1.662
2.0,-2.0,1.663
-1.0,0.0,1.664
-8.0,1.0,1.665
-18.0,5.0,1.666
-26.0,8.0,1.667
-30.0,6.0,1.668
-28.0,4.0,1.669
-24.0,4.0,1.67
-16.0,4.0,1.671
-4.0,0.0,1.672
9.0,-6.0,1.673
19.0,-10.0,1.674
25.0,-10.0,1.675
33.0,-8.0,1.676
42.0,-6.0,1.677
45.0,-5.0,1.678
45.0,-3.0,1.679
32.0,-2.0,1.68
12.0,-3.0,1.681
-7.0,-3.0,1.682
-15.0,2.0,1.683
-14.0,7.0,1.684
-15.0,9.0,1.685
-21.0,10.0,1.686
-24.0,7.0,1.687
-22.0,4.0,1.688
-21.0,6.0,1.689
-21.0,7.0,1.69
-18.0,4.0,1.691
-5.0,1.0,1.692
9.0,-2.0,1.693
18.0,-5.0,1.694
22.0,-6.0,1.695
26.0,-8.0,1.696
34.0,-8.0,1.697
35.0,-6.0,1.698
34.0,-4.0,1.699
26.0,-5.0,1.7
13.0,-9.0,1.701
-2.0,-7.0,1.702
-12.0,-4.0,1.703
-16.0,-1.0,1.704
-19.0,-1.0,1.705
-24.0,0.0,1.706
-22.0,2.0,1.707
-13.0,3.0,1.708
-4.0,2.0,1.709
1.0,5.0,1.71
4.0,9.0,1.711
8.0,12.0,1.712
9.0,14.0,1.713
3.0,10.0,1.714
-4.0,3.0,1.715
1.0,-3.0,1.716
18.0,-5.0,1.717
34.0,-6.0,1.718
33.0,-8.0,1.719
16.0,-9.0,1.72
1.0,-11.0,1.721
-1.0,-7.0,1.722
1.0,-2.0,1.723
-4.0,1.0,1.724
-15.0,3.0,1.725
-24.0,5.0,1.726
-26.0,3.0,1.727
-28.0,0.0,1.728
-32.0,0.0,1.729
-31.0,3.0,1.73
-19.0,3.0,1.731
-4.0,-1.0,1.732
3.0,-2.0,1.733
7.0,-1.0,1.734
16.0,-2.0,1.735
28.0,-7.0,1.736
39.0,-8.0,1.737
40.0,-6.0,1.738
34.0,-6.0,1.739
26.0,-11.0,1.74
19.0,-16.0,1.741
11.0,-10.0,1.742
6.0,-2.0,1.743
2.0,1.0,1.744
-4.0,2.0,1.745
-14.0,5.0,1.746
-20.0,8.0,1.747
-22.0,6.0,1.748
-25.0,4.0,1.749
-28.0,5.0,1.75
-19.0,7.0,1.751
-5.0,1.0,1.752
6.0,-6.0,1.753
12.0,-7.0,1.754
18.0,-6.0,1.755
29.0,-5.0,1.756
38.0,-5.0,1.757
41.0,-2.0,1.758
38.0,-4.0,1.759
29.0,-6.0,1.76
15.0,-6.0,1.761
1.0,-6.0,1.762
-2.0,-4.0,1.763
0.0,0.0,1.764
-4.0,5.0,1.765
-18.0,9.0,1.766
-28.0,9.0,1.767
-30.0,9.0,1.768
-27.0,9.0,1.769
-24.0,6.0,1.77
-17.0,4.0,1.771
-1.0,1.0,1.772
14.0,-1.0,1.773
20.0,-5.0,1.774
23.0,-2.0,1.775
29.0,-1.0,1.776
35.0,-5.0,1.777
31.0,-2.0,1.778
22.0,-3.0,1.779
13.0,-5.0,1.78
7.0,-5.0,1.781
0.0,-5.0,1.782
-4.0,-3.0,1.783
-6.0,0.0,1.784
-9.0,4.0,1.785
-18.0,7.0,1.786
-25.0,7.0,1.787
-27.0,7.0,1.788
-26.0,7.0,1.789
-25.0,5.0,1.79
-21.0,3.0,1.791
-8.0,1.0,1.792
5.0,-1.0,1.793
14.0,-4.0,1.794
18.0,-2.0,1.795
24.0,-1.0,1.796
32.0,-4.0,1.797
38.0,-8.0,1.798
35.0,-9.0,1.799
25.0,-8.0,1.8
14.0,-7.0,1.801
4.0,-7.0,1.802
1.0,-5.0,1.803
0.0,0.0,1.804
-6.0,7.0,1.805
-18.0,8.0,1.806
-25.0,4.0,1.807
-26.0,1.0,1.808
-27.0,2.0,1.809
-25.0,5.0,1.81
-18.0,2.0,1.811
-7.0,-1.0,1.812
3.0,2.0,1.813
11.0,5.0,1.814
19.0,2.0,1.815
27.0,-5.0,1.816
32.0,-9.0,1.817
28.0,-3.0,1.818
27.0,-3.0,1.819
25.0,-2.0,1.82
18.0,-5.0,1.821
7.0,-7.0,1.822
1.0,-1.0,1.823
-1.0,1.0,1.824
-11.0,4.0,1.825
-27.0,6.0,1.826
-37.0,5.0,1.827
-35.0,3.0,1.828
-30.0,1.0,1.829
-25.0,-1.0,1.83
-14.0,-1.0,1.831
3.0,-2.0,1.832
19.0,-4.0,1.833
25.0,-6.0,1.834
27.0,-6.0,1.835
29.0,-7.0,1.836
31.0,-7.0,1.837
31.0,-4.0,1.838
29.0,-4.0,1.839
24.0,-3.0,1.84
15.0,-6.0,1.841
4.0,-8.0,1.842
0.0,-2.0,1.843
-2.0,2.0,1.844
-9.0,5.0,1.845
-21.0,8.0,1.846
-29.0,6.0,1.847
-28.0,4.0,1.848
-23.0,2.0,1.849
-21.0,0.0,1.85
-18.0,-1.0,1.851
-10.0,-3.0,1.852
0.0,-5.0,1.853
12.0,-7.0,1.854
20.0,-7.0,1.855
26.0,-8.0,1.856
30.0,-8.0,1.857
34.0,-7.0,1.858
33.0,-5.0,1.859
25.0,-5.0,1.86
12.0,-7.0,1.861
0.0,-3.0,1.862
-2.0,2.0,1.863
-5.0,5.0,1.864
-11.0,6.0,1.865
-21.0,8.0,1.866
-29.0,10.0,1.867
-30.0,6.0,1.868
-27.0,1.0,1.869
-22.0,0.0,1.87
-14.0,0.0,1.871
-2.0,0.0,1.872
8.0,-1.0,1.873
16.0,0.0,1.874
25.0,2.0,1.875
32.0,-2.0,1.876
37.0,-6.0,1.877
35.0,-9.0,1.878
31.0,-10.0,1.879
25.0,-9.0,1.88
14.0,-10.0,1.881
1.0,-5.0,1.882
-1.0,0.0,1.883
0.0,3.0,1.884
-3.0,6.0,1.885
-14.0,10.0,1.886
-24.0,9.0,1.887
-28.0,5.0,1.888
-26.0,2.0,1.889
-22.0,5.0,1.89
-14.0,7.0,1.891
-4.0,3.0,1.892
4.0,-1.0,1.893
11.0,-3.0,1.894
18.0,-5.0,1.895
25.0,-7.0,1.896
29.0,-6.0,1.897
32.0,-3.0,1.898
34.0,-4.0,1.899
27.0,-10.0,1.9
12.0,-13.0,1.901
-3.0,-7.0,1.902
-9.0,-1.0,1.903
-8.0,0.0,1.904
-12.0,1.0,1.905
-21.0,8.0,1.906
-26.0,12.0,1.907
-26.0,7.0,1.908
-24.0,3.0,1.909
-16.0,6.0,1.91
-4.0,8.0,1.911
5.0,1.0,1.912
3.0,-7.0,1.913
-1.0,-9.0,1.914
8.0,-5.0,1.915
26.0,-4.0,1.916
38.0,-5.0,1.917
37.0,-6.0,1.918
30.0,-6.0,1.919
24.0,-6.0,1.92
17.0,-7.0,1.921
7.0,-6.0,1.922
-1.0,0.0,1.923
-4.0,5.0,1.924
-8.0,7.0,1.925
-19.0,10.0,1.926
-28.0,10.0,1.927
-29.0,8.0,1.928
-25.0,5.0,1.929
-20.0,2.0,1.93
-15.0,2.0,1.931
-6.0,1.0,1.932
0.0,0.0,1.933
6.0,-1.0,1.934
14.0,-5.0,1.935
24.0,-8.0,1.936
29.0,-8.0,1.937
29.0,-6.0,1.938
29.0,-6.0,1.939
27.0,-6.0,1.94
17.0,-7.0,1.941
1.0,-6.0,1.942
-4.0,0.0,1.943
-1.0,5.0,1.944
-2.0,7.0,1.945
-15.0,10.0,1.946
-29.0,10.0,1.947
-31.0,8.0,1.948
-27.0,5.0,1.949
-21.0,2.0,1.95
-14.0,2.0,1.951
-3.0,1.0,1.952
5.0,0.0,1.953
11.0,-1.0,1.954
19.0,-5.0,1.955
30.0,-8.0,1.956
38.0,-8.0,1.957
34.0,-7.0,1.958
27.0,-3.0,1.959
19.0,-3.0,1.96
11.0,-8.0,1.961
2.0,-7.0,1.962
-1.0,-1.0,1.963
-2.0,3.0,1.964
-8.0,3.0,1.965
-17.0,3.0,1.966
-23.0,5.0,1.967
-22.0,7.0,1.968
-21.0,5.0,1.969
-20.0,2.0,1.97
-15.0,2.0,1.971
-2.0,2.0,1.972
9.0,0.0,1.973
15.0,-3.0,1.974
17.0,-4.0,1.975
21.0,-3.0,1.976
28.0,-4.0,1.977
31.0,-7.0,1.978
31.0,-8.0,1.979
28.0,-7.0,1.98
21.0,-5.0,1.981
13.0,0.0,1.982
7.0,1.0,1.983
0.0,1.0,1.984
-10.0,4.0,1.985
-21.0,6.0,1.986
-25.0,5.0,1.987
-24.0,2.0,1.988
-23.0,2.0,1.989
-24.0,3.0,1.99
-17.0,3.0,1.991
-5.0,0.0,1.992
2.0,-2.0,1.993
6.0,-2.0,1.994
16.0,-3.0,1.995
26.0,-5.0,1.996
33.0,-6.0,1.997
29.0,-6.0,1.998
25.0,-7.0,1.999
21.0,-8.0,2.0
11.0,-8.0,2.001
0.0,-8.0,2.002
-3.0,-2.0,2.003
0.0,3.0,2.004
-3.0,7.0,2.005
-16.0,9.0,2.006
-23.0,6.0,2.007
-23.0,3.0,2.008
-23.0,1.0,2.009
-23.0,-1.0,2.01
-15.0,-1.0,2.011
-3.0,-1.0,2.012
5.0,-3.0,2.013
7.0,-5.0,2.014
17.0,-5.0,2.015
29.0,-6.0,2.016
38.0,-6.0,2.017
34.0,-6.0,2.018
31.0,-7.0,2.019
25.0,-7.0,2.02
15.0,-9.0,2.021
1.0,-6.0,2.022
-3.0,-1.0,2.023
-4.0,2.0,2.024
-12.0,5.0,2.025
-27.0,7.0,2.026
-35.0,9.0,2.027
-31.0,7.0,2.028
-25.0,4.0,2.029
-20.0,2.0,2.03
-13.0,4.0,2.031
-3.0,2.0,2.032
6.0,-2.0,2.033
14.0,-4.0,2.034
22.0,-2.0,2.035
33.0,-1.0,2.036
39.0,0.0,2.037
36.0,-4.0,2.038
31.0,-8.0,2.039
23.0,-10.0,2.04
12.0,-10.0,2.041
2.0,-7.0,2.042
-2.0,-3.0,2.043
-2.0,0.0,2.044
-9.0,1.0,2.045
-20.0,6.0,2.046
-25.0,9.0,2.047
-22.0,9.0,2.048
-19.0,7.0,2.049
-19.0,6.0,2.05
-15.0,5.0,2.051
-4.0,3.0,2.052
6.0,0.0,2.053
11.0,-3.0,2.054
14.0,-7.0,2.055
22.0,-9.0,2.056
32.0,-8.0,2.057
40.0,-8.0,2.058
38.0,-7.0,2.059
27.0,-4.0,2.06
13.0,-4.0,2.061
1.0,-1.0,2.062
-4.0,2.0,2.063
-9.0,4.0,2.064
-17.0,8.0,2.065
-24.0,10.0,2.066
-25.0,9.0,2.067
-20.0,7.0,2.068
-17.0,7.0,2.069
-18.0,5.0,2.07
-17.0,0.0,2.071
-7.0,-2.0,2.072
5.0,-1.0,2.073
16.0,0.0,2.074
21.0,-4.0,2.075
26.0,-9.0,2.076
31.0,-9.0,2.077
32.0,-6.0,2.078
28.0,-6.0,2.079
18.0,-7.0,2.08
5.0,-7.0,2.081
-5.0,-6.0,2.082
-7.0,-2.0,2.083
-6.0,1.0,2.084
-11.0,6.0,2.085
-21.0,10.0,2.086
-27.0,8.0,2.087
-30.0,7.0,2.088
-31.0,10.0,2.089
-27.0,11.0,2.09
-14.0,3.0,2.091
3.0,-1.0,2.092
15.0,-1.0,2.093
18.0,-2.0,2.094
21.0,-2.0,2.095
28.0,-3.0,2.096
33.0,-3.0,2.097
29.0,-5.0,2.098
24.0,-5.0,2.099
20.0,-6.0,2.1
16.0,-6.0,2.101
6.0,-5.0,2.102
-2.0,-2.0,2.103
-5.0,1.0,2.104
-9.0,5.0,2.105
-18.0,8.0,2.106
-26.0,7.0,2.107
-27.0,6.0,2.108
-23.0,8.0,2.109
-16.0,9.0,2.11
-8.0,3.0,2.111
0.0,-1.0,2.112
5.0,-1.0,2.113
9.0,-2.0,2.114
15.0,-2.0,2.115
22.0,-3.0,2.116
30.0,-3.0,2.117
30.0,-3.0,2.118
29.0,-7.0,2.119
22.0,-9.0,2.12
15.0,-7.0,2.121
8.0,-2.0,2.122
5.0,0.0,2.123
3.0,0.0,2.124
-5.0,5.0,2.125
-16.0,12.0,2.126
-25.0,14.0,2.127
-28.0,13.0,2.128
-25.0,11.0,2.129
-16.0,8.0,2.13
-7.0,3.0,2.131
-4.0,-2.0,2.132
-4.0,-3.0,2.133
2.0,-4.0,2.134
17.0,-8.0,2.135
28.0,-11.0,2.136
32.0,-12.0,2.137
29.0,-10.0,2.138
26.0,-8.0,2.139
19.0,-8.0,2.14
5.0,-9.0,2.141
-5.0,-10.0,2.142
-7.0,-8.0,2.143
-7.0,-5.0,2.144
-15.0,1.0,2.145
-26.0,6.0,2.146
-30.0,5.0,2.147
-27.0,1.0,2.148
-25.0,0.0,2.149
-24.0,1.0,2.15
-15.0,-1.0,2.151
3.0,-5.0,2.152
16.0,-6.0,2.153
19.0,-5.0,2.154
23.0,-5.0,2.155
31.0,-6.0,2.156
40.0,-6.0,2.157
39.0,-8.0,2.158
32.0,-6.0,2.159
20.0,-5.0,2.16
7.0,-4.0,2.161
0.0,-2.0,2.162
1.0,1.0,2.163
3.0,5.0,2.164
-4.0,10.0,2.165
-15.0,13.0,2.166
-21.0,9.0,2.167
-21.0,5.0,2.168
-20.0,4.0,2.169
-19.0,3.0,2.17
-13.0,3.0,2.171
-1.0,3.0,2.172
8.0,2.0,2.173
15.0,1.0,2.174
21.0,0.0,2.175
29.0,-1.0,2.176
36.0,-3.0,2.177
36.0,-5.0,2.178
32.0,-1.0,2.179
22.0,2.0,2.18
9.0,-1.0,2.181
-1.0,1.0,2.182
-3.0,5.0,2.183
-1.0,4.0,2.184
-7.0,4.0,2.185
-20.0,10.0,2.186
-29.0,13.0,2.187
-31.0,12.0,2.188
-31.0,8.0,2.189
-27.0,7.0,2.19
-19.0,6.0,2.191
-6.0,1.0,2.192
4.0,-2.0,2.193
12.0,-3.0,2.194
19.0,-2.0,2.195
26.0,-5.0,2.196
32.0,-8.0,2.197
30.0,-6.0,2.198
26.0,-2.0,2.199
19.0,-3.0,2.2
8.0,-9.0,2.201
-5.0,-9.0,2.202
-10.0,-4.0,2.203
-9.0,0.0,2.204
-13.0,3.0,2.205
-22.0,6.0,2.206
-30.0,7.0,2.207
-31.0,5.0,2.208
-28.0,1.0,2.209
-25.0,0.0,2.21
-19.0,1.0,2.211
-8.0,-4.0,2.212
3.0,-11.0,2.213
12.0,-13.0,2.214
20.0,-9.0,2.215
30.0,-6.0,2.216
42.0,-7.0,2.217
47.0,-9.0,2.218
45.0,-9.0,2.219
33.0,-8.0,2.22
19.0,-8.0,2.221
9.0,-5.0,2.222
3.0,1.0,2.223
-7.0,6.0,2.224
-23.0,8.0,2.225
-37.0,9.0,2.226
-37.0,7.0,2.227
-26.0,5.0,2.228
-20.0,3.0,2.229
-20.0,5.0,2.23
-17.0,5.0,2.231
-6.0,1.0,2.232
6.0,-4.0,2.233
14.0,-4.0,2.234
21.0,-2.0,2.235
30.0,-5.0,2.236
37.0,-7.0,2.237
37.0,-10.0,2.238
33.0,-8.0,2.239
23.0,-6.0,2.24
9.0,-7.0,2.241
-1.0,-7.0,2.242
-3.0,-1.0,2.243
0.0,2.0,2.244
-6.0,6.0,2.245
-20.0,8.0,2.246
-27.0,6.0,2.247
-23.0,4.0,2.248
-18.0,6.0,2.249
-18.0,7.0,2.25
-13.0,3.0,2.251
-2.0,0.0,2.252
7.0,0.0,2.253
11.0,-1.0,2.254
15.0,-1.0,2.255
23.0,-2.0,2.256
30.0,-3.0,2.257
34.0,-12.0,2.258
32.0,-9.0,2.259
25.0,-7.0,2.26
16.0,-8.0,2.261
9.0,-8.0,2.262
7.0,-2.0,2.263
4.0,3.0,2.264
-8.0,7.0,2.265
-25.0,9.0,2.266
-34.0,7.0,2.267
-31.0,5.0,2.268
-24.0,7.0,2.269
-22.0,8.0,2.27
-18.0,4.0,2.271
-8.0,0.0,2.272
4.0,-1.0,2.273
14.0,-2.0,2.274
19.0,-2.0,2.275
27.0,-3.0,2.276
37.0,-4.0,2.277
39.0,-5.0,2.278
34.0,-7.0,2.279
19.0,-9.0,2.28
6.0,-6.0,2.281
-1.0,0.0,2.282
-4.0,1.0,2.283
-7.0,-2.0,2.284
-18.0,-1.0,2.285
-28.0,4.0,2.286
-33.0,7.0,2.287
-30.0,5.0,2.288
-22.0,4.0,2.289
-9.0,6.0,2.29
5.0,4.0,2.291
17.0,0.0,2.292
18.0,-2.0,2.293
16.0,-2.0,2.294
15.0,-7.0,2.295
18.0,-9.0,2.296
25.0,-5.0,2.297
29.0,-2.0,2.298
31.0,-3.0,2.299
26.0,-7.0,2.3
11.0,-6.0,2.301
-4.0,-1.0,2.302
-9.0,2.0,2.303
-8.0,1.0,2.304
-12.0,4.0,2.305
-23.0,10.0,2.306
-31.0,11.0,2.307
-31.0,5.0,2.308
-27.0,0.0,2.309
-21.0,1.0,2.31
-7.0,1.0,2.311
8.0,-4.0,2.312
15.0,-8.0,2.313
15.0,-5.0,2.314
18.0,-2.0,2.315
30.0,-3.0,2.316
38.0,-3.0,2.317
32.0,-2.0,2.318
20.0,-1.0,2.319
10.0,-2.0,2.32
3.0,-7.0,2.321
-1.0,-5.0,2.322
-3.0,0.0,2.323
-6.0,4.0,2.324
-14.0,6.0,2.325
-24.0,6.0,2.326
-28.0,8.0,2.327
-25.0,8.0,2.328
-20.0,7.0,2.329
-18.0,4.0,2.33
-13.0,0.0,2.331
-1.0,-4.0,2.332
12.0,-5.0,2.333
17.0,-4.0,2.334
21.0,-6.0,2.335
28.0,-9.0,2.336
36.0,-9.0,2.337
34.0,-2.0,2.338
27.0,-4.0,2.339
20.0,-6.0,2.34
10.0,-6.0,2.341
2.0,-5.0,2.342
-1.0,-1.0,2.343
-5.0,2.0,2.344
-13.0,6.0,2.345
-20.0,9.0,2.346
-27.0,7.0,2.347
-32.0,6.0,2.348
-28.0,7.0,2.349
-23.0,7.0,2.35
-18.0,2.0,2.351
-11.0,-2.0,2.352
1.0,-3.0,2.353
14.0,-5.0,2.354
27.0,-8.0,2.355
39.0,-10.0,2.356
49.0,-8.0,2.357
57.0,-2.0,2.358
51.0,-4.0,2.359
36.0,-6.0,2.36
15.0,-6.0,2.361
-7.0,-5.0,2.362
-15.0,-1.0,2.363
-8.0,2.0,2.364
-8.0,6.0,2.365
-21.0,9.0,2.366
-35.0,7.0,2.367
-35.0,6.0,2.368
-26.0,7.0,2.369
-21.0,7.0,2.37
-17.0,2.0,2.371
-7.0,-2.0,2.372
5.0,-3.0,2.373
14.0,-5.0,2.374
20.0,-8.0,2.375
29.0,-10.0,2.376
38.0,-8.0,2.377
38.0,-6.0,2.378
30.0,-6.0,2.379
20.0,-4.0,2.38
12.0,-4.0,2.381
2.0,-5.0,2.382
-4.0,-6.0,2.383
-8.0,-1.0,2.384
-14.0,8.0,2.385
-22.0,12.0,2.386
-31.0,10.0,2.387
-34.0,8.0,2.388
-31.0,9.0,2.389
-25.0,7.0,2.39
-14.0,1.0,2.391
1.0,-4.0,2.392
15.0,-5.0,2.393
21.0,-3.0,2.394
23.0,-1.0,2.395
24.0,0.0,2.396
25.0,6.0,2.397
20.0,9.0,2.398
17.0,9.0,2.399
15.0,3.0,2.4
11.0,-7.0,2.401
5.0,-12.0,2.402
1.0,-14.0,2.403
0.0,-15.0,2.404
-4.0,-12.0,2.405
-13.0,-7.0,2.406
-17.0,-3.0,2.407
-17.0,-2.0,2.408
-18.0,-2.0,2.409
-20.0,1.0,2.41
-16.0,2.0,2.411
-3.0,1.0,2.412
8.0,1.0,2.413
12.0,2.0,2.414
12.0,0.0,2.415
16.0,-4.0,2.416
20.0,-5.0,2.417
20.0,-4.0,2.418
13.0,-2.0,2.419
1.0,-2.0,2.42
-10.0,-6.0,2.421
-11.0,-8.0,2.422
1.0,-6.0,2.423
19.0,-2.0,2.424
27.0,6.0,2.425
19.0,12.0,2.426
2.0,14.0,2.427
-12.0,16.0,2.428
-23.0,11.0,2.429
-27.0,6.0,2.43
-16.0,2.0,2.431
2.0,-2.0,2.432
14.0,-3.0,2.433
12.0,-4.0,2.434
13.0,-4.0,2.435
24.0,-3.0,2.436
34.0,-3.0,2.437
34.0,-5.0,2.438
28.0,-8.0,2.439
20.0,-8.0,2.44
10.0,-8.0,2.441
-4.0,-6.0,2.442
-10.0,-3.0,2.443
-10.0,2.0,2.444
-15.0,8.0,2.445
-25.0,12.0,2.446
-32.0,14.0,2.447
-33.0,15.0,2.448
-30.0,18.0,2.449
-27.0,21.0,2.45
-16.0,22.0,2.451
-2.0,20.0,2.452
8.0,12.0,2.453
15.0,-5.0,2.454
24.0,-30.0,2.455
33.0,-50.0,2.456
36.0,-52.0,2.457
31.0,-39.0,2.458
27.0,-22.0,2.459
18.0,-12.0,2.46
0.0,-12.0,2.461
-16.0,-10.0,2.462
-16.0,-3.0,2.463
-5.0,5.0,2.464
-3.0,11.0,2.465
-10.0,12.0,2.466
-21.0,11.0,2.467
-24.0,8.0,2.468
-20.0,4.0,2.469
-13.0,3.0,2.47
-1.0,6.0,2.471
11.0,12.0,2.472
16.0,22.0,2.473
15.0,41.0,2.474
19.0,71.0,2.475
30.0,98.0,2.476
40.0,104.0,2.477
41.0,81.0,2.478
35.0,48.0,2.479
24.0,17.0,2.48
13.0,-14.0,2.481
4.0,-38.0,2.482
3.0,-47.0,2.483
5.0,-32.0,2.484
-1.0,-14.0,2.485
-12.0,-19.0,2.486
-20.0,-56.0,2.487
-20.0,-97.0,2.488
-19.0,-107.0,2.489
-17.0,-90.0,2.49
-13.0,-77.0,2.491
-7.0,-83.0,2.492
-3.0,-92.0,2.493
0.0,-85.0,2.494
2.0,-64.0,2.495
7.0,-44.0,2.496
11.0,-33.0,2.497
11.0,-23.0,2.498
12.0,-8.0,2.499
10.0,13.0,2.5
2.0,49.0,2.501
-6.0,90.0,2.502
-11.0,142.0,2.503
-14.0,187.0,2.504
-18.0,211.0,2.505
-24.0,223.0,2.506
-26.0,197.0,2.507
-22.0,151.0,2.508
-14.0,46.0,2.509
-3.0,-52.0,2.51
7.0,-130.0,2.511
14.0,-197.0,2.512
21.0,-230.0,2.513
28.0,-242.0,2.514
35.0,-190.0,2.515
39.0,-145.0,2.516
41.0,-121.0,2.517
41.0,-99.0,2.518
36.0,-75.0,2.519
22.0,-35.0,2.52
2.0,3.0,2.521
-14.0,38.0,2.522
-22.0,65.0,2.523
-25.0,81.0,2.524
-28.0,83.0,2.525
-30.0,82.0,2.526
-29.0,81.0,2.527
-26.0,74.0,2.528
-22.0,63.0,2.529
-17.0,55.0,2.53
-9.0,51.0,2.531
4.0,44.0,2.532
15.0,37.0,2.533
22.0,34.0,2.534
24.0,33.0,2.535
24.0,31.0,2.536
29.0,29.0,2.537
33.0,29.0,2.538
33.0,26.0,2.539
27.0,17.0,2.54
16.0,1.0,2.541
6.0,-3.0,2.542
0.0,0.0,2.543
1.0,3.0,2.544
-2.0,-1.0,2.545
-12.0,-1.0,2.546
-17.0,0.0,2.547
-14.0,-1.0,2.548
-5.0,-3.0,2.549
0.0,-2.0,2.55
5.0,0.0,2.551
16.0,-1.0,2.552
27.0,-6.0,2.553
32.0,-7.0,2.554
33.0,-4.0,2.555
36.0,-9.0,2.556
37.0,-16.0,2.557
31.0,-21.0,2.558
17.0,-18.0,2.559
1.0,-17.0,2.56
-13.0,-28.0,2.561
-28.0,-38.0,2.562
-39.0,-37.0,2.563
-41.0,-22.0,2.564
-39.0,-6.0,2.565
-38.0,1.0,2.566
-40.0,4.0,2.567
-40.0,4.0,2.568
-36.0,2.0,2.569
-27.0,2.0,2.57
-13.0,0.0,2.571
3.0,-3.0,2.572
14.0,-6.0,2.573
17.0,-10.0,2.574
19.0,-11.0,2.575
23.0,-10.0,2.576
31.0,-8.0,2.577
33.0,-7.0,2.578
33.0,-7.0,2.579
28.0,-2.0,2.58
18.0,2.0,2.581
7.0,9.0,2.582
4.0,11.0,2.583
7.0,11.0,2.584
4.0,14.0,2.585
-5.0,19.0,2.586
-17.0,22.0,2.587
-21.0,20.0,2.588
-20.0,21.0,2.589
-15.0,23.0,2.59
-10.0,22.0,2.591
-7.0,20.0,2.592
-5.0,16.0,2.593
0.0,9.0,2.594
8.0,-11.0,2.595
14.0,-40.0,2.596
16.0,-59.0,2.597
21.0,-57.0,2.598
29.0,-35.0,2.599
33.0,-15.0,2.6
27.0,-3.0,2.601
18.0,7.0,2.602
16.0,14.0,2.603
16.0,20.0,2.604
7.0,20.0,2.605
-9.0,18.0,2.606
-23.0,11.0,2.607
-32.0,1.0,2.608
-42.0,-12.0,2.609
-49.0,-23.0,2.61
-47.0,-23.0,2.611
-36.0,-23.0,2.612
-26.0,-21.0,2.613
-15.0,-18.0,2.614
3.0,-12.0,2.615
24.0,-7.0,2.616
34.0,-3.0,2.617
30.0,-1.0,2.618
23.0,-1.0,2.619
18.0,3.0,2.62
8.0,5.0,2.621
-7.0,4.0,2.622
-15.0,2.0,2.623
-13.0,3.0,2.624
-7.0,7.0,2.625
-5.0,11.0,2.626
-1.0,12.0,2.627
8.0,11.0,2.628
22.0,15.0,2.629
35.0,23.0,2.63
42.0,28.0,2.631
41.0,22.0,2.632
33.0,10.0,2.633
29.0,1.0,2.634
38.0,-1.0,2.635
43.0,-1.0,2.636
31.0,0.0,2.637
3.0,-4.0,2.638
-19.0,-13.0,2.639
-26.0,-25.0,2.64
-26.0,-34.0,2.641
-26.0,-28.0,2.642
-23.0,-12.0,2.643
-25.0,2.0,2.644
-39.0,6.0,2.645
-57.0,2.0,2.646
-62.0,0.0,2.647
-51.0,3.0,2.648
-34.0,6.0,2.649
-20.0,6.0,2.65
2.0,4.0,2.651
29.0,3.0,2.652
44.0,1.0,2.653
44.0,0.0,2.654
51.0,1.0,2.655
65.0,6.0,2.656
71.0,13.0,2.657
55.0,20.0,2.658
34.0,39.0,2.659
26.0,77.0,2.66
25.0,119.0,2.661
16.0,138.0,2.662
2.0,110.0,2.663
-6.0,55.0,2.664
-13.0,5.0,2.665
-26.0,-30.0,2.666
-41.0,-70.0,2.667
-40.0,-107.0,2.668
-28.0,-119.0,2.669
-16.0,-104.0,2.67
-6.0,-85.0,2.671
5.0,-84.0,2.672
12.0,-96.0,2.673
10.0,-106.0,2.674
3.0,-97.0,2.675
0.0,-65.0,2.676
1.0,-18.0,2.677
1.0,21.0,2.678
6.0,32.0,2.679
12.0,22.0,2.68
17.0,13.0,2.681
21.0,13.0,2.682
27.0,-2.0,2.683
35.0,-34.0,2.684
47.0,-52.0,2.685
59.0,-39.0,2.686
49.0,-8.0,2.687
-3.0,15.0,2.688
-71.0,29.0,2.689
-92.0,40.0,2.69
-54.0,48.0,2.691
-12.0,51.0,2.692
-7.0,48.0,2.693
-14.0,43.0,2.694
-1.0,36.0,2.695
19.0,30.0,2.696
23.0,27.0,2.697
15.0,28.0,2.698
12.0,26.0,2.699
6.0,23.0,2.7
-13.0,15.0,2.701
-24.0,9.0,2.702
-13.0,13.0,2.703
6.0,18.0,2.704
7.0,30.0,2.705
0.0,40.0,2.706
2.0,46.0,2.707
2.0,54.0,2.708
-14.0,69.0,2.709
-25.0,80.0,2.71
-14.0,78.0,2.711
8.0,77.0,2.712
11.0,78.0,2.713
-6.0,75.0,2.714
-18.0,53.0,2.715
-9.0,28.0,2.716
10.0,-8.0,2.717
24.0,-31.0,2.718
26.0,5.0,2.719
17.0,34.0,2.72
10.0,9.0,2.721
6.0,-57.0,2.722
3.0,-134.0,2.723
-6.0,-205.0,2.724
-24.0,-269.0,2.725
-46.0,-317.0,2.726
-59.0,-321.0,2.727
-58.0,-271.0,2.728
-44.0,-191.0,2.729
-30.0,-116.0,2.73
-17.0,-57.0,2.731
10.0,-5.0,2.732
54.0,41.0,2.733
85.0,73.0,2.734
82.0,86.0,2.735
67.0,97.0,2.736
73.0,110.0,2.737
88.0,117.0,2.738
74.0,111.0,2.739
26.0,100.0,2.74
-6.0,87.0,2.741
0.0,76.0,2.742
10.0,63.0,2.743
-7.0,55.0,2.744
-34.0,55.0,2.745
-44.0,55.0,2.746
-44.0,50.0,2.747
-46.0,42.0,2.748
-43.0,38.0,2.749
-26.0,36.0,2.75
-13.0,30.0,2.751
-14.0,21.0,2.752
-14.0,15.0,2.753
0.0,12.0,2.754
14.0,12.0,2.755
18.0,12.0,2.756
20.0,14.0,2.757
28.0,16.0,2.758
31.0,16.0,2.759
19.0,3.0,2.76
3.0,-25.0,2.761
-3.0,-49.0,2.762
-4.0,-53.0,2.763
-9.0,-38.0,2.764
-21.0,-21.0,2.765
-33.0,-9.0,2.766
-40.0,-5.0,2.767
-40.0,-4.0,2.768
-33.0,-5.0,2.769
-25.0,-7.0,2.77
-18.0,-4.0,2.771
-9.0,1.0,2.772
5.0,1.0,2.773
20.0,-8.0,2.774
28.0,-13.0,2.775
35.0,-7.0,2.776
46.0,2.0,2.777
50.0,0.0,2.778
39.0,-6.0,2.779
13.0,-7.0,2.78
-5.0,-6.0,2.781
-5.0,-5.0,2.782
-1.0,-6.0,2.783
-3.0,-3.0,2.784
-14.0,8.0,2.785
-23.0,15.0,2.786
-26.0,11.0,2.787
-26.0,0.0,2.788
-25.0,-9.0,2.789
-19.0,-10.0,2.79
-11.0,-9.0,2.791
-2.0,-9.0,2.792
3.0,-6.0,2.793
9.0,-3.0,2.794
20.0,6.0,2.795
37.0,28.0,2.796
47.0,70.0,2.797
45.0,124.0,2.798
39.0,158.0,2.799
37.0,149.0,2.8
38.0,100.0,2.801
37.0,36.0,2.802
35.0,-43.0,2.803
28.0,-133.0,2.804
10.0,-213.0,2.805
-10.0,-247.0,2.806
-15.0,-224.0,2.807
-6.0,-165.0,2.808
-12.0,-98.0,2.809
-40.0,-45.0,2.81
-58.0,-20.0,2.811
-36.0,-14.0,2.812
8.0,-1.0,2.813
32.0,25.0,2.814
27.0,38.0,2.815
19.0,26.0,2.816
25.0,11.0,2.817
33.0,16.0,2.818
25.0,33.0,2.819
2.0,49.0,2.82
-17.0,58.0,2.821
-25.0,73.0,2.822
-24.0,109.0,2.823
-18.0,144.0,2.824
-11.0,178.0,2.825
-12.0,203.0,2.826
-19.0,193.0,2.827
-22.0,165.0,2.828
-12.0,82.0,2.829
12.0,-14.0,2.83
39.0,-152.0,2.831
59.0,-270.0,2.832
64.0,-322.0,2.833
58.0,-338.0,2.834
45.0,-248.0,2.835
26.0,-165.0,2.836
13.0,-100.0,2.837
-10.0,-36.0,2.838
-43.0,14.0,2.839
-77.0,36.0,2.84
-74.0,38.0,2.841
-31.0,45.0,2.842
9.0,57.0,2.843
5.0,68.0,2.844
-26.0,76.0,2.845
-42.0,84.0,2.846
-41.0,80.0,2.847
-42.0,60.0,2.848
-43.0,45.0,2.849
-22.0,42.0,2.85
18.0,39.0,2.851
55.0,30.0,2.852
79.0,24.0,2.853
93.0,25.0,2.854
94.0,23.0,2.855
81.0,16.0,2.856
65.0,13.0,2.857
43.0,15.0,2.858
14.0,17.0,2.859
-22.0,16.0,2.86
-46.0,14.0,2.861
-47.0,14.0,2.862
-32.0,10.0,2.863
-23.0,5.0,2.864
-25.0,4.0,2.865
-32.0,4.0,2.866
-38.0,-4.0,2.867
-40.0,-13.0,2.868
-37.0,-12.0,2.869
-24.0,-6.0,2.87
-12.0,-6.0,2.871
-4.0,-12.0,2.872
5.0,-15.0,2.873
17.0,-11.0,2.874
33.0,-8.0,2.875
41.0,-11.0,2.876
44.0,-12.0,2.877
38.0,-14.0,2.878
26.0,-13.0,2.879
12.0,-11.0,2.88
7.0,-11.0,2.881
10.0,-10.0,2.882
9.0,-9.0,2.883
-5.0,-9.0,2.884
-24.0,-7.0,2.885
-35.0,-2.0,2.886
-40.0,-1.0,2.887
-43.0,-2.0,2.888
-39.0,-1.0,2.889
-21.0,1.0,2.89
2.0,0.0,2.891
21.0,-3.0,2.892
30.0,-6.0,2.893
33.0,-6.0,2.894
33.0,-5.0,2.895
31.0,-4.0,2.896
30.0,0.0,2.897
30.0,1.0,2.898
26.0,-1.0,2.899
11.0,-7.0,2.9
-4.0,-11.0,2.901
-13.0,-3.0,2.902
-15.0,9.0,2.903
-15.0,14.0,2.904
-22.0,10.0,2.905
-33.0,1.0,2.906
-40.0,-2.0,2.907
-37.0,1.0,2.908
-29.0,6.0,2.909
-19.0,7.0,2.91
-8.0,2.0,2.911
5.0,-5.0,2.912
17.0,-9.0,2.913
23.0,-7.0,2.914
31.0,-2.0,2.915
38.0,3.0,2.916
42.0,3.0,2.917
37.0,-3.0,2.918
29.0,-6.0,2.919
18.0,-4.0,2.92
3.0,-5.0,2.921
-11.0,-4.0,2.922
-18.0,-2.0,2.923
-14.0,3.0,2.924
-10.0,8.0,2.925
-15.0,9.0,2.926
-20.0,6.0,2.927
-22.0,1.0,2.928
-16.0,0.0,2.929
-10.0,1.0,2.93
-2.0,1.0,2.931
8.0,-2.0,2.932
18.0,-7.0,2.933
25.0,-8.0,2.934
30.0,-8.0,2.935
37.0,-5.0,2.936
41.0,-3.0,2.937
38.0,-3.0,2.938
31.0,-2.0,2.939
20.0,-1.0,2.94
8.0,-4.0,2.941
-3.0,-3.0,2.942
-7.0,0.0,2.943
-5.0,1.0,2.944
-6.0,5.0,2.945
-15.0,9.0,2.946
-22.0,11.0,2.947
-23.0,9.0,2.948
-20.0,4.0,2.949
-13.0,2.0,2.95
-3.0,2.0,2.951
6.0,1.0,2.952
13.0,-4.0,2.953
16.0,-9.0,2.954
22.0,-8.0,2.955
31.0,-4.0,2.956
35.0,-2.0,2.957
31.0,-5.0,2.958
23.0,-7.0,2.959
13.0,-4.0,2.96
1.0,-2.0,2.961
-7.0,-2.0,2.962
-11.0,-2.0,2.963
-11.0,1.0,2.964
-15.0,6.0,2.965
-22.0,7.0,2.966
-27.0,5.0,2.967
-27.0,4.0,2.968
-24.0,3.0,2.969
-18.0,0.0,2.97
-8.0,-3.0,2.971
3.0,-5.0,2.972
14.0,-4.0,2.973
21.0,-5.0,2.974
26.0,-7.0,2.975
32.0,-7.0,2.976
36.0,-5.0,2.977
32.0,-5.0,2.978
25.0,-4.0,2.979
14.0,-3.0,2.98
2.0,-3.0,2.981
-4.0,-2.0,2.982
-7.0,0.0,2.983
-11.0,2.0,2.984
-19.0,5.0,2.985
-27.0,7.0,2.986
-30.0,6.0,2.987
-29.0,4.0,2.988
-24.0,1.0,2.989
-16.0,0.0,2.99
-5.0,2.0,2.991
7.0,3.0,2.992
18.0,1.0,2.993
25.0,-1.0,2.994
32.0,-3.0,2.995
38.0,-3.0,2.996
42.0,-2.0,2.997
38.0,-3.0,2.998
29.0,-1.0,2.999
15.0,-2.0,3.0
-2.0,-6.0,3.001
-14.0,-5.0,3.002
-16.0,-3.0,3.003
-16.0,1.0,3.004
-21.0,4.0,3.005
-28.0,7.0,3.006
-32.0,10.0,3.007
-33.0,9.0,3.008
-30.0,4.0,3.009
-24.0,-1.0,3.01
-11.0,-4.0,3.011
3.0,-4.0,3.012
13.0,-3.0,3.013
18.0,-4.0,3.014
25.0,-3.0,3.015
32.0,-4.0,3.016
34.0,-4.0,3.017
29.0,-5.0,3.018
22.0,-5.0,3.019
9.0,-4.0,3.02
-4.0,-7.0,3.021
-11.0,-6.0,3.022
-7.0,-5.0,3.023
0.0,-2.0,3.024
1.0,-1.0,3.025
-1.0,2.0,3.026
0.0,9.0,3.027
-1.0,12.0,3.028
-12.0,11.0,3.029
-24.0,6.0,3.03
-23.0,6.0,3.031
-6.0,9.0,3.032
8.0,7.0,3.033
13.0,-1.0,3.034
13.0,-7.0,3.035
19.0,-7.0,3.036
26.0,-3.0,3.037
33.0,-4.0,3.038
36.0,-7.0,3.039
29.0,-7.0,3.04
15.0,-7.0,3.041
4.0,-5.0,3.042
0.0,-1.0,3.043
-4.0,3.0,3.044
-18.0,4.0,3.045
-32.0,2.0,3.046
-36.0,1.0,3.047
-33.0,4.0,3.048
-32.0,5.0,3.049
-29.0,4.0,3.05
-17.0,0.0,3.051
-2.0,-2.0,3.052
6.0,-1.0,3.053
10.0,-1.0,3.054
17.0,0.0,3.055
28.0,-2.0,3.056
35.0,-5.0,3.057
34.0,-7.0,3.058
28.0,-6.0,3.059
18.0,-3.0,3.06
5.0,-5.0,3.061
-4.0,-6.0,3.062
-5.0,-4.0,3.063
-6.0,2.0,3.064
-13.0,7.0,3.065
-23.0,9.0,3.066
-29.0,7.0,3.067
-27.0,4.0,3.068
-20.0,3.0,3.069
-10.0,2.0,3.07
0.0,1.0,3.071
9.0,-1.0,3.072
16.0,-3.0,3.073
24.0,-2.0,3.074
34.0,-2.0,3.075
39.0,-5.0,3.076
40.0,-7.0,3.077
34.0,-6.0,3.078
25.0,-4.0,3.079
12.0,-1.0,3.08
-1.0,-5.0,3.081
-9.0,-6.0,3.082
-9.0,-6.0,3.083
-7.0,-4.0,3.084
-11.0,-2.0,3.085
-22.0,1.0,3.086
-32.0,3.0,3.087
-33.0,3.0,3.088
-24.0,2.0,3.089
-12.0,2.0,3.09
-1.0,2.0,3.091
11.0,0.0,3.092
25.0,-3.0,3.093
37.0,-4.0,3.094
43.0,-3.0,3.095
43.0,-5.0,3.096
45.0,-5.0,3.097
43.0,-3.0,3.098
30.0,2.0,3.099
4.0,6.0,3.1
-19.0,4.0,3.101
-25.0,5.0,3.102
-18.0,6.0,3.103
-12.0,4.0,3.104
-16.0,1.0,3.105
-28.0,3.0,3.106
-34.0,6.0,3.107
-29.0,2.0,3.108
-22.0,-3.0,3.109
-16.0,-3.0,3.11
-7.0,-1.0,3.111
4.0,0.0,3.112
12.0,-3.0,3.113
15.0,-5.0,3.114
18.0,-5.0,3.115
25.0,-5.0,3.116
31.0,-5.0,3.117
30.0,-4.0,3.118
23.0,-3.0,3.119
11.0,-3.0,3.12
-2.0,-6.0,3.121
-11.0,-5.0,3.122
-12.0,-1.0,3.123
-12.0,0.0,3.124
-17.0,0.0,3.125
-25.0,3.0,3.126
-27.0,4.0,3.127
-20.0,3.0,3.128
-14.0,2.0,3.129
-10.0,3.0,3.13
-4.0,3.0,3.131
4.0,-1.0,3.132
13.0,-6.0,3.133
19.0,-5.0,3.134
28.0,-3.0,3.135
38.0,-3.0,3.136
41.0,-3.0,3.137
34.0,-1.0,3.138
27.0,0.0,3.139
18.0,-1.0,3.14
6.0,-6.0,3.141
-4.0,-5.0,3.142
-5.0,-2.0,3.143
-7.0,2.0,3.144
-9.0,4.0,3.145
-12.0,8.0,3.146
-18.0,10.0,3.147
-23.0,7.0,3.148
-23.0,4.0,3.149
-18.0,4.0,3.15
-4.0,1.0,3.151
9.0,-3.0,3.152
18.0,-5.0,3.153
25.0,-2.0,3.154
25.0,-2.0,3.155
28.0,-6.0,3.156
37.0,-7.0,3.157
43.0,0.0,3.158
35.0,-5.0,3.159
19.0,-10.0,3.16
7.0,-10.0,3.161
-2.0,-8.0,3.162
-12.0,-6.0,3.163
-19.0,-5.0,3.164
-25.0,-5.0,3.165
-30.0,-4.0,3.166
-31.0,-4.0,3.167
-28.0,-3.0,3.168
-24.0,-3.0,3.169
-20.0,-4.0,3.17
-12.0,-4.0,3.171
1.0,-4.0,3.172
15.0,-6.0,3.173
22.0,-10.0,3.174
25.0,-15.0,3.175
31.0,-19.0,3.176
36.0,-16.0,3.177
33.0,-1.0,3.178
25.0,-6.0,3.179
15.0,-9.0,3.18
4.0,-9.0,3.181
-4.0,-7.0,3.182
-6.0,-7.0,3.183
-9.0,-6.0,3.184
-17.0,-6.0,3.185
-25.0,-5.0,3.186
-34.0,-5.0,3.187
-38.0,-4.0,3.188
-25.0,-4.0,3.189
-13.0,-5.0,3.19
-5.0,-5.0,3.191
4.0,-5.0,3.192
14.0,-7.0,3.193
23.0,-9.0,3.194
24.0,-14.0,3.195
26.0,-17.0,3.196
31.0,-15.0,3.197
34.0,-2.0,3.198
22.0,-6.0,3.199
10.0,-9.0,3.2
2.0,-9.0,3.201
-4.0,-7.0,3.202
-8.0,-7.0,3.203
-11.0,-6.0,3.204
-15.0,-6.0,3.205
-23.0,-5.0,3.206
-29.0,-5.0,3.207
-25.0,-4.0,3.208
-17.0,-4.0,3.209
-9.0,-5.0,3.21
-1.0,-5.0,3.211
11.0,-5.0,3.212
19.0,-7.0,3.213
23.0,-9.0,3.214
25.0,-13.0,3.215
30.0,-16.0,3.216
36.0,-13.0,3.217
33.0,0.0,3.218
25.0,-5.0,3.219
16.0,-10.0,3.22
6.0,-10.0,3.221
-1.0,-8.0,3.222
-2.0,-6.0,3.223
-5.0,-5.0,3.224
-13.0,-5.0,3.225
-20.0,-4.0,3.226
-25.0,-4.0,3.227
-28.0,-3.0,3.228
-21.0,-3.0,3.229
-13.0,-4.0,3.23
-2.0,-4.0,3.231
8.0,-4.0,3.232
17.0,-6.0,3.233
26.0,-10.0,3.234
33.0,-15.0,3.235
38.0,-19.0,3.236
33.0,-16.0,3.237
25.0,0.0,3.238
9.0,-5.0,3.239
0.0,-10.0,3.24
0.0,-10.0,3.241
-2.0,-8.0,3.242
-1.0,-6.0,3.243
1.0,-5.0,3.244
-2.0,-5.0,3.245
-18.0,-4.0,3.246
-35.0,-4.0,3.247
-37.0,-3.0,3.248
-26.0,-3.0,3.249
-17.0,-4.0,3.25
-10.0,-4.0,3.251
-2.0,-4.0,3.252
8.0,-6.0,3.253
13.0,-10.0,3.254
14.0,-15.0,3.255
17.0,-19.0,3.256
24.0,-16.0,3.257
29.0,-12.0,3.258
25.0,-6.0,3.259
11.0,0.0,3.26
-8.0,4.0,3.261
-24.0,7.0,3.262
-28.0,8.0,3.263
-22.0,11.0,3.264
-23.0,17.0,3.265
-33.0,18.0,3.266
-42.0,12.0,3.267
-35.0,10.0,3.268
-22.0,11.0,3.269
-15.0,11.0,3.27
-9.0,5.0,3.271
0.0,0.0,3.272
14.0,0.0,3.273
19.0,2.0,3.274
24.0,0.0,3.275
32.0,-3.0,3.276
38.0,-5.0,3.277
34.0,4.0,3.278
24.0,2.0,3.279
12.0,-1.0,3.28
0.0,-5.0,3.281
-9.0,-7.0,3.282
-12.0,-5.0,3.283
-10.0,-3.0,3.284
-13.0,0.0,3.285
-21.0,3.0,3.286
-27.0,1.0,3.287
-24.0,0.0,3.288
-19.0,-1.0,3.289
-13.0,-2.0,3.29
-4.0,-2.0,3.291
13.0,-3.0,3.292
31.0,-3.0,3.293
47.0,-3.0,3.294
60.0,-5.0,3.295
62.0,-7.0,3.296
52.0,-1.0,3.297
33.0,4.0,3.298
21.0,2.0,3.299
9.0,-1.0,3.3
2.0,-5.0,3.301
-5.0,-7.0,3.302
-10.0,-5.0,3.303
-15.0,-3.0,3.304
-21.0,0.0,3.305
-26.0,3.0,3.306
-25.0,1.0,3.307
-21.0,0.0,3.308
-7.0,-1.0,3.309
5.0,-2.0,3.31
14.0,-2.0,3.311
23.0,-3.0,3.312
32.0,-3.0,3.313
37.0,-3.0,3.314
31.0,-5.0,3.315
26.0,-7.0,3.316
23.0,-1.0,3.317
23.0,2.0,3.318
26.0,-2.0,3.319
20.0,-7.0,3.32
4.0,-11.0,3.321
-11.0,-6.0,3.322
-15.0,-1.0,3.323
-10.0,0.0,3.324
-13.0,3.0,3.325
-25.0,7.0,3.326
-33.0,9.0,3.327
-30.0,4.0,3.328
-22.0,0.0,3.329
-14.0,-1.0,3.33
-5.0,-1.0,3.331
6.0,-4.0,3.332
15.0,-6.0,3.333
17.0,-6.0,3.334
21.0,-3.0,3.335
28.0,-5.0,3.336
33.0,-8.0,3.337
28.0,-7.0,3.338
18.0,-5.0,3.339
7.0,-4.0,3.34
-4.0,-4.0,3.341
-13.0,-3.0,3.342
-15.0,0.0,3.343
-17.0,4.0,3.344
-17.0,8.0,3.345
-19.0,10.0,3.346
-25.0,6.0,3.347
-30.0,3.0,3.348
-25.0,3.0,3.349
-19.0,3.0,3.35
-10.0,1.0,3.351
0.0,-1.0,3.352
11.0,-5.0,3.353
20.0,-8.0,3.354
24.0,-6.0,3.355
27.0,-5.0,3.356
30.0,-6.0,3.357
33.0,-7.0,3.358
27.0,-7.0,3.359
15.0,-6.0,3.36
2.0,-4.0,3.361
-7.0,-1.0,3.362
-13.0,0.0,3.363
-17.0,3.0,3.364
-23.0,11.0,3.365
-24.0,19.0,3.366
-23.0,17.0,3.367
-19.0,9.0,3.368
-15.0,8.0,3.369
-12.0,10.0,3.37
-4.0,5.0,3.371
4.0,-3.0,3.372
13.0,-7.0,3.373
21.0,-4.0,3.374
29.0,-3.0,3.375
30.0,-6.0,3.376
26.0,-8.0,3.377
16.0,-6.0,3.378
5.0,-6.0,3.379
-3.0,-7.0,3.38
0.0,-9.0,3.381
3.0,-8.0,3.382
10.0,-6.0,3.383
11.0,-3.0,3.384
-7.0,6.0,3.385
-23.0,14.0,3.386
-28.0,13.0,3.387
-31.0,4.0,3.388
-21.0,1.0,3.389
-10.0,4.0,3.39
4.0,4.0,3.391
18.0,0.0,3.392
26.0,-4.0,3.393
32.0,-4.0,3.394
32.0,-4.0,3.395
31.0,-7.0,3.396
32.0,-8.0,3.397
31.0,-6.0,3.398
24.0,-6.0,3.399
10.0,-8.0,3.4
-1.0,-13.0,3.401
-10.0,-11.0,3.402
-15.0,-4.0,3.403
-16.0,1.0,3.404
-18.0,3.0,3.405
-24.0,2.0,3.406
-30.0,2.0,3.407
-27.0,6.0,3.408
-19.0,8.0,3.409
-10.0,5.0,3.41
-3.0,1.0,3.411
8.0,-1.0,3.412
19.0,-2.0,3.413
24.0,-4.0,3.414
25.0,-5.0,3.415
29.0,-6.0,3.416
34.0,-8.0,3.417
37.0,-7.0,3.418
29.0,-4.0,3.419
16.0,0.0,3.42
2.0,3.0,3.421
-6.0,5.0,3.422
-9.0,9.0,3.423
-10.0,11.0,3.424
-18.0,13.0,3.425
-27.0,12.0,3.426
-29.0,9.0,3.427
-22.0,7.0,3.428
-12.0,5.0,3.429
-3.0,5.0,3.43
6.0,3.0,3.431
19.0,-2.0,3.432
27.0,-6.0,3.433
31.0,-5.0,3.434
31.0,-4.0,3.435
32.0,-6.0,3.436
30.0,-7.0,3.437
23.0,-9.0,3.438
16.0,-6.0,3.439
5.0,-4.0,3.44
-6.0,-6.0,3.441
-14.0,-4.0,3.442
-17.0,-1.0,3.443
-18.0,4.0,3.444
-24.0,8.0,3.445
-33.0,9.0,3.446
-39.0,6.0,3.447
-36.0,1.0,3.448
-28.0,0.0,3.449
-20.0,3.0,3.45
-10.0,1.0,3.451
1.0,-4.0,3.452
14.0,-7.0,3.453
23.0,-4.0,3.454
31.0,-2.0,3.455
33.0,-5.0,3.456
32.0,-5.0,3.457
25.0,-4.0,3.458
19.0,-2.0,3.459
11.0,-3.0,3.46
1.0,-6.0,3.461
-9.0,-4.0,3.462
-16.0,-2.0,3.463
-21.0,1.0,3.464
-31.0,4.0,3.465
-46.0,8.0,3.466
-48.0,6.0,3.467
-31.0,0.0,3.468
-3.0,-3.0,3.469
15.0,-2.0,3.47
20.0,-4.0,3.471
21.0,-6.0,3.472
29.0,-4.0,3.473
40.0,-1.0,3.474
37.0,-1.0,3.475
22.0,-5.0,3.476
17.0,-8.0,3.477
23.0,-7.0,3.478
34.0,-3.0,3.479
22.0,0.0,3.48
-6.0,-1.0,3.481
-27.0,-2.0,3.482
-21.0,0.0,3.483
-3.0,4.0,3.484
3.0,9.0,3.485
-6.0,15.0,3.486
-16.0,17.0,3.487
-15.0,15.0,3.488
-7.0,12.0,3.489
-1.0,9.0,3.49
4.0,7.0,3.491
9.0,3.0,3.492
10.0,-1.0,3.493
11.0,-6.0,3.494
15.0,-9.0,3.495
20.0,-9.0,3.496
25.0,-9.0,3.497
23.0,-10.0,3.498
16.0,-10.0,3.499
7.0,-11.0,3.5
-6.0,-13.0,3.501
-16.0,-15.0,3.502
-14.0,-10.0,3.503
-15.0,-5.0,3.504
-24.0,0.0,3.505
-31.0,4.0,3.506
-29.0,4.0,3.507
-27.0,4.0,3.508
-22.0,4.0,3.509
-15.0,5.0,3.51
-3.0,9.0,3.511
9.0,11.0,3.512
17.0,5.0,3.513
25.0,0.0,3.514
31.0,-7.0,3.515
36.0,-14.0,3.516
38.0,-18.0,3.517
40.0,-23.0,3.518
32.0,-27.0,3.519
18.0,-26.0,3.52
4.0,-21.0,3.521
-2.0,-10.0,3.522
-1.0,-2.0,3.523
-3.0,5.0,3.524
-13.0,10.0,3.525
-22.0,14.0,3.526
-23.0,15.0,3.527
-20.0,12.0,3.528
-19.0,10.0,3.529
-17.0,9.0,3.53
-8.0,5.0,3.531
4.0,0.0,3.532
10.0,0.0,3.533
8.0,4.0,3.534
11.0,5.0,3.535
22.0,1.0,3.536
30.0,1.0,3.537
30.0,1.0,3.538
26.0,2.0,3.539
21.0,1.0,3.54
11.0,-1.0,3.541
1.0,1.0,3.542
-9.0,4.0,3.543
-19.0,5.0,3.544
-25.0,7.0,3.545
-30.0,10.0,3.546
-31.0,8.0,3.547
-28.0,3.0,3.548
-10.0,2.0,3.549
3.0,6.0,3.55
3.0,9.0,3.551
2.0,9.0,3.552
-2.0,5.0,3.553
-2.0,0.0,3.554
11.0,-6.0,3.555
23.0,-10.0,3.556
29.0,-9.0,3.557
32.0,-7.0,3.558
22.0,-8.0,3.559
12.0,-10.0,3.56
1.0,-10.0,3.561
-9.0,-6.0,3.562
-12.0,-3.0,3.563
-11.0,1.0,3.564
-13.0,3.0,3.565
-22.0,2.0,3.566
-25.0,-2.0,3.567
-19.0,-4.0,3.568
-11.0,-1.0,3.569
-7.0,1.0,3.57
-2.0,1.0,3.571
7.0,-1.0,3.572
15.0,-1.0,3.573
19.0,3.0,3.574
24.0,4.0,3.575
32.0,2.0,3.576
40.0,2.0,3.577
39.0,4.0,3.578
29.0,7.0,3.579
14.0,6.0,3.58
-3.0,-3.0,3.581
-11.0,-7.0,3.582
-12.0,-6.0,3.583
-15.0,-3.0,3.584
-27.0,-4.0,3.585
-43.0,-7.0,3.586
-43.0,-11.0,3.587
-26.0,-12.0,3.588
-4.0,-13.0,3.589
13.0,-15.0,3.59
26.0,-16.0,3.591
42.0,-13.0,3.592
54.0,-10.0,3.593
55.0,-10.0,3.594
44.0,-10.0,3.595
29.0,-8.0,3.596
19.0,1.0,3.597
13.0,7.0,3.598
2.0,5.0,3.599
-12.0,1.0,3.6
-26.0,0.0,3.601
-27.0,7.0,3.602
-18.0,10.0,3.603
-14.0,11.0,3.604
-21.0,14.0,3.605
-28.0,17.0,3.606
-26.0,15.0,3.607
-20.0,10.0,3.608
-15.0,7.0,3.609
-8.0,8.0,3.61
6.0,4.0,3.611
17.0,-2.0,3.612
20.0,-4.0,3.613
21.0,-3.0,3.614
28.0,-4.0,3.615
35.0,-7.0,3.616
38.0,-8.0,3.617
35.0,-7.0,3.618
28.0,-5.0,3.619
14.0,-4.0,3.62
-3.0,-4.0,3.621
-14.0,-3.0,3.622
-12.0,1.0,3.623
-11.0,4.0,3.624
-18.0,6.0,3.625
-28.0,9.0,3.626
-31.0,9.0,3.627
-25.0,10.0,3.628
-20.0,8.0,3.629
-13.0,7.0,3.63
-1.0,5.0,3.631
15.0,3.0,3.632
22.0,0.0,3.633
22.0,-2.0,3.634
21.0,-2.0,3.635
27.0,-1.0,3.636
35.0,-4.0,3.637
37.0,-6.0,3.638
31.0,-1.0,3.639
15.0,4.0,3.64
-1.0,5.0,3.641
-11.0,10.0,3.642
-11.0,17.0,3.643
-11.0,16.0,3.644
-17.0,1.0,3.645
-26.0,-23.0,3.646
-30.0,-40.0,3.647
-24.0,-39.0,3.648
-18.0,-27.0,3.649
-13.0,-16.0,3.65
-7.0,-10.0,3.651
2.0,-7.0,3.652
14.0,-4.0,3.653
20.0,-2.0,3.654
26.0,-4.0,3.655
32.0,-8.0,3.656
35.0,-9.0,3.657
28.0,-10.0,3.658
18.0,-9.0,3.659
6.0,-9.0,3.66
-3.0,-10.0,3.661
-9.0,-5.0,3.662
-12.0,4.0,3.663
-13.0,12.0,3.664
-19.0,17.0,3.665
-27.0,21.0,3.666
-32.0,21.0,3.667
-27.0,19.0,3.668
-20.0,14.0,3.669
-13.0,11.0,3.67
-3.0,8.0,3.671
12.0,6.0,3.672
24.0,6.0,3.673
29.0,7.0,3.674
32.0,2.0,3.675
36.0,-7.0,3.676
39.0,-14.0,3.677
34.0,-10.0,3.678
26.0,4.0,3.679
15.0,28.0,3.68
5.0,44.0,3.681
-8.0,46.0,3.682
-17.0,33.0,3.683
-17.0,12.0,3.684
-18.0,-6.0,3.685
-25.0,-20.0,3.686
-31.0,-35.0,3.687
-29.0,-45.0,3.688
-20.0,-41.0,3.689
-10.0,-27.0,3.69
-3.0,-17.0,3.691
6.0,-17.0,3.692
15.0,-19.0,3.693
20.0,-16.0,3.694
23.0,-10.0,3.695
30.0,-6.0,3.696
35.0,0.0,3.697
29.0,3.0,3.698
16.0,-6.0,3.699
4.0,-18.0,3.7
-2.0,-24.0,3.701
-8.0,-11.0,3.702
-12.0,11.0,3.703
-14.0,28.0,3.704
-15.0,32.0,3.705
-19.0,24.0,3.706
-23.0,16.0,3.707
-22.0,12.0,3.708
-16.0,10.0,3.709
-8.0,2.0,3.71
3.0,-6.0,3.711
15.0,-12.0,3.712
21.0,-13.0,3.713
24.0,-16.0,3.714
26.0,-21.0,3.715
29.0,-25.0,3.716
33.0,-23.0,3.717
31.0,-18.0,3.718
22.0,-10.0,3.719
7.0,-1.0,3.72
-7.0,5.0,3.721
-16.0,17.0,3.722
-15.0,35.0,3.723
-10.0,55.0,3.724
-10.0,67.0,3.725
-18.0,58.0,3.726
-25.0,32.0,3.727
-23.0,5.0,3.728
-17.0,-12.0,3.729
-8.0,-23.0,3.73
1.0,-32.0,3.731
11.0,-32.0,3.732
18.0,-16.0,3.733
23.0,9.0,3.734
25.0,27.0,3.735
29.0,26.0,3.736
34.0,8.0,3.737
34.0,-9.0,3.738
27.0,-17.0,3.739
13.0,-16.0,3.74
-3.0,-11.0,3.741
-10.0,3.0,3.742
-9.0,20.0,3.743
-9.0,30.0,3.744
-15.0,31.0,3.745
-23.0,33.0,3.746
-27.0,30.0,3.747
-26.0,12.0,3.748
-21.0,-17.0,3.749
-14.0,-40.0,3.75
-1.0,-51.0,3.751
10.0,-60.0,3.752
16.0,-67.0,3.753
18.0,-66.0,3.754
23.0,-58.0,3.755
31.0,-54.0,3.756
34.0,-46.0,3.757
24.0,-29.0,3.758
12.0,-8.0,3.759
0.0,0.0,3.76
-9.0,-3.0,3.761
-17.0,3.0,3.762
-17.0,19.0,3.763
-12.0,29.0,3.764
-11.0,27.0,3.765
-17.0,28.0,3.766
-21.0,33.0,3.767
-20.0,30.0,3.768
-13.0,21.0,3.769
-6.0,18.0,3.77
1.0,21.0,3.771
12.0,16.0,3.772
21.0,7.0,3.773
28.0,3.0,3.774
33.0,4.0,3.775
36.0,1.0,3.776
36.0,-2.0,3.777
28.0,-3.0,3.778
20.0,1.0,3.779
10.0,4.0,3.78
-2.0,-1.0,3.781
-12.0,-3.0,3.782
-12.0,3.0,3.783
-14.0,9.0,3.784
-20.0,9.0,3.785
-25.0,9.0,3.786
-23.0,11.0,3.787
-20.0,14.0,3.788
-14.0,18.0,3.789
-6.0,23.0,3.79
3.0,28.0,3.791
12.0,33.0,3.792
16.0,37.0,3.793
21.0,38.0,3.794
27.0,32.0,3.795
33.0,27.0,3.796
34.0,23.0,3.797
34.0,19.0,3.798
23.0,17.0,3.799
11.0,4.0,3.8
-1.0,-30.0,3.801
-9.0,-77.0,3.802
-10.0,-117.0,3.803
-7.0,-132.0,3.804
-10.0,-119.0,3.805
-20.0,-92.0,3.806
-25.0,-64.0,3.807
-21.0,-40.0,3.808
-14.0,-25.0,3.809
-8.0,-15.0,3.81
-5.0,-9.0,3.811
-2.0,2.0,3.812
0.0,18.0,3.813
5.0,30.0,3.814
16.0,31.0,3.815
26.0,25.0,3.816
31.0,22.0,3.817
29.0,19.0,3.818
22.0,20.0,3.819
11.0,20.0,3.82
-3.0,18.0,3.821
-14.0,20.0,3.822
-15.0,24.0,3.823
-12.0,27.0,3.824
-17.0,28.0,3.825
-26.0,26.0,3.826
-29.0,22.0,3.827
-23.0,18.0,3.828
-14.0,14.0,3.829
-4.0,12.0,3.83
4.0,12.0,3.831
15.0,9.0,3.832
21.0,2.0,3.833
27.0,-3.0,3.834
34.0,-4.0,3.835
38.0,-4.0,3.836
37.0,-3.0,3.837
33.0,-1.0,3.838
23.0,3.0,3.839
10.0,6.0,3.84
-3.0,3.0,3.841
-12.0,4.0,3.842
-11.0,7.0,3.843
-10.0,7.0,3.844
-16.0,3.0,3.845
-26.0,0.0,3.846
-30.0,-3.0,3.847
-21.0,-6.0,3.848
-12.0,-11.0,3.849
-7.0,-15.0,3.85
-3.0,-16.0,3.851
4.0,-18.0,3.852
14.0,-19.0,3.853
17.0,-17.0,3.854
22.0,-13.0,3.855
28.0,-9.0,3.856
34.0,-4.0,3.857
32.0,1.0,3.858
23.0,1.0,3.859
8.0,-1.0,3.86
-7.0,-2.0,3.861
-17.0,0.0,3.862
-16.0,3.0,3.863
-10.0,1.0,3.864
-13.0,3.0,3.865
-23.0,9.0,3.866
-30.0,11.0,3.867
-22.0,10.0,3.868
-10.0,11.0,3.869
-3.0,17.0,3.87
-1.0,16.0,3.871
5.0,-1.0,3.872
16.0,-28.0,3.873
24.0,-49.0,3.874
28.0,-50.0,3.875
34.0,-36.0,3.876
37.0,-18.0,3.877
31.0,-8.0,3.878
17.0,-2.0,3.879
0.0,5.0,3.88
-9.0,8.0,3.881
-12.0,10.0,3.882
-11.0,8.0,3.883
-14.0,9.0,3.884
-25.0,12.0,3.885
-38.0,14.0,3.886
-43.0,11.0,3.887
-36.0,6.0,3.888
-23.0,3.0,3.889
-12.0,2.0,3.89
-2.0,3.0,3.891
8.0,6.0,3.892
18.0,10.0,3.893
24.0,14.0,3.894
27.0,14.0,3.895
29.0,9.0,3.896
32.0,5.0,3.897
35.0,2.0,3.898
29.0,0.0,3.899
14.0,-5.0,3.9
-6.0,-13.0,3.901
-13.0,-17.0,3.902
-9.0,-16.0,3.903
-8.0,-13.0,3.904
-16.0,-11.0,3.905
-25.0,-8.0,3.906
-24.0,-6.0,3.907
-17.0,-8.0,3.908
-12.0,-10.0,3.909
-6.0,-10.0,3.91
2.0,-7.0,3.911
14.0,-4.0,3.912
22.0,-3.0,3.913
26.0,-3.0,3.914
34.0,-4.0,3.915
39.0,-7.0,3.916
39.0,-9.0,3.917
29.0,-6.0,3.918
19.0,0.0,3.919
6.0,1.0,3.92
-3.0,-1.0,3.921
-6.0,3.0,3.922
-7.0,12.0,3.923
-11.0,18.0,3.924
-20.0,16.0,3.925
-28.0,12.0,3.926
-26.0,8.0,3.927
-20.0,4.0,3.928
-12.0,1.0,3.929
-3.0,0.0,3.93
6.0,-2.0,3.931
13.0,-8.0,3.932
17.0,-13.0,3.933
20.0,-11.0,3.934
26.0,-7.0,3.935
32.0,-5.0,3.936
34.0,-3.0,3.937
29.0,-4.0,3.938
18.0,-3.0,3.939
6.0,-5.0,3.94
-4.0,-7.0,3.941
-11.0,-6.0,3.942
-15.0,-2.0,3.943
-19.0,3.0,3.944
-22.0,12.0,3.945
-24.0,26.0,3.946
-26.0,41.0,3.947
-22.0,56.0,3.948
-15.0,68.0,3.949
-4.0,71.0,3.95
4.0,58.0,3.951
13.0,34.0,3.952
19.0,4.0,3.953
24.0,-28.0,3.954
31.0,-69.0,3.955
35.0,-102.0,3.956
37.0,-111.0,3.957
35.0,-96.0,3.958
29.0,-67.0,3.959
15.0,-44.0,3.96
0.0,-30.0,3.961
-12.0,-16.0,3.962
-18.0,-3.0,3.963
-20.0,5.0,3.964
-25.0,10.0,3.965
-32.0,15.0,3.966
-35.0,19.0,3.967
-32.0,20.0,3.968
-23.0,19.0,3.969
-16.0,20.0,3.97
-8.0,19.0,3.971
1.0,14.0,3.972
14.0,10.0,3.973
24.0,9.0,3.974
30.0,10.0,3.975
35.0,9.0,3.976
39.0,9.0,3.977
36.0,11.0,3.978
23.0,12.0,3.979
5.0,10.0,3.98
-7.0,4.0,3.981
-12.0,2.0,3.982
-13.0,4.0,3.983
-14.0,8.0,3.984
-16.0,11.0,3.985
-20.0,12.0,3.986
-23.0,10.0,3.987
-25.0,5.0,3.988
-17.0,1.0,3.989
-2.0,0.0,3.99
12.0,-2.0,3.991
20.0,-6.0,3.992
24.0,-7.0,3.993
30.0,-7.0,3.994
33.0,-7.0,3.995
34.0,-10.0,3.996
34.0,-10.0,3.997
30.0,-8.0,3.998
20.0,-4.0,3.999
6.0,-1.0,4.0
-5.0,-4.0,4.001
-11.0,-3.0,4.002
-12.0,0.0,4.003
-16.0,1.0,4.004
-22.0,2.0,4.005
-30.0,4.0,4.006
-33.0,5.0,4.007
-28.0,1.0,4.008
-20.0,-3.0,4.009
-9.0,-3.0,4.01
-1.0,0.0,4.011
7.0,0.0,4.012
14.0,-4.0,4.013
20.0,-6.0,4.014
26.0,-8.0,4.015
29.0,-10.0,4.016
26.0,-11.0,4.017
19.0,-10.0,4.018
11.0,-7.0,4.019
0.0,-7.0,4.02
-9.0,-10.0,4.021
-16.0,-8.0,4.022
-14.0,-2.0,4.023
-10.0,5.0,4.024
-12.0,10.0,4.025
-20.0,13.0,4.026
-22.0,13.0,4.027
-13.0,10.0,4.028
0.0,9.0,4.029
7.0,10.0,4.03
13.0,7.0,4.031
17.0,0.0,4.032
21.0,-7.0,4.033
27.0,-7.0,4.034
32.0,-5.0,4.035
36.0,-6.0,4.036
38.0,-7.0,4.037
28.0,-8.0,4.038
18.0,-8.0,4.039
7.0,-6.0,4.04
-2.0,-3.0,4.041
-10.0,-1.0,4.042
-14.0,-2.0,4.043
-15.0,-2.0,4.044
-19.0,0.0,4.045
-24.0,3.0,4.046
-27.0,3.0,4.047
-25.0,2.0,4.048
-19.0,0.0,4.049
-12.0,-2.0,4.05
-2.0,-4.0,4.051
9.0,-6.0,4.052
20.0,-6.0,4.053
29.0,-7.0,4.054
33.0,-7.0,4.055
33.0,-6.0,4.056
31.0,-6.0,4.057
24.0,-7.0,4.058
17.0,-8.0,4.059
4.0,-6.0,4.06
-8.0,-6.0,4.061
-16.0,-4.0,4.062
-18.0,-1.0,4.063
-18.0,4.0,4.064
-24.0,9.0,4.065
-31.0,10.0,4.066
-32.0,8.0,4.067
-24.0,6.0,4.068
-11.0,3.0,4.069
-1.0,2.0,4.07
5.0,2.0,4.071
12.0,2.0,4.072
23.0,1.0,4.073
34.0,-1.0,4.074
38.0,-3.0,4.075
39.0,-2.0,4.076
39.0,0.0,4.077
35.0,0.0,4.078
25.0,-2.0,4.079
9.0,-3.0,4.08
-2.0,-2.0,4.081
-9.0,0.0,4.082
-12.0,2.0,4.083
-14.0,4.0,4.084
-16.0,9.0,4.085
-21.0,12.0,4.086
-26.0,11.0,4.087
-26.0,7.0,4.088
-18.0,4.0,4.089
-8.0,4.0,4.09
0.0,1.0,4.091
8.0,-4.0,4.092
18.0,-7.0,4.093
25.0,-4.0,4.094
26.0,-3.0,4.095
27.0,-2.0,4.096
30.0,-1.0,4.097
27.0,-1.0,4.098
16.0,-2.0,4.099
-2.0,-4.0,4.1
-13.0,-4.0,4.101
-15.0,-2.0,4.102
-12.0,2.0,4.103
-15.0,6.0,4.104
-24.0,7.0,4.105
-32.0,9.0,4.106
-33.0,9.0,4.107
-26.0,8.0,4.108
-16.0,2.0,4.109
-7.0,-3.0,4.11
1.0,-3.0,4.111
10.0,-4.0,4.112
17.0,-8.0,4.113
22.0,-11.0,4.114
26.0,-10.0,4.115
32.0,-9.0,4.116
35.0,-10.0,4.117
28.0,-11.0,4.118
16.0,-9.0,4.119
5.0,-6.0,4.12
-3.0,-7.0,4.121
-7.0,-5.0,4.122
-9.0,-2.0,4.123
-13.0,0.0,4.124
-20.0,5.0,4.125
-28.0,8.0,4.126
-30.0,7.0,4.127
-25.0,3.0,4.128
-16.0,0.0,4.129
-6.0,-2.0,4.13
3.0,-2.0,4.131
15.0,-2.0,4.132
23.0,-3.0,4.133
27.0,-4.0,4.134
31.0,-3.0,4.135
35.0,0.0,4.136
35.0,9.0,4.137
27.0,14.0,4.138
18.0,15.0,4.139
9.0,14.0,4.14
-1.0,13.0,4.141
-11.0,12.0,4.142
-19.0,9.0,4.143
-20.0,4.0,4.144
-22.0,4.0,4.145
-27.0,4.0,4.146
-31.0,0.0,4.147
-27.0,-11.0,4.148
-18.0,-22.0,4.149
-9.0,-31.0,4.15
1.0,-37.0,4.151
13.0,-36.0,4.152
22.0,-28.0,4.153
32.0,-14.0,4.154
43.0,-5.0,4.155
52.0,-1.0,4.156
51.0,0.0,4.157
41.0,-2.0,4.158
28.0,-6.0,4.159
15.0,-6.0,4.16
3.0,-5.0,4.161
-6.0,-4.0,4.162
-6.0,-6.0,4.163
-6.0,-6.0,4.164
-16.0,-2.0,4.165
-29.0,0.0,4.166
-34.0,-6.0,4.167
-23.0,-12.0,4.168
-12.0,-9.0,4.169
-8.0,2.0,4.17
-6.0,6.0,4.171
2.0,4.0,4.172
16.0,4.0,4.173
24.0,9.0,4.174
29.0,9.0,4.175
32.0,7.0,4.176
33.0,10.0,4.177
24.0,13.0,4.178
13.0,13.0,4.179
-1.0,11.0,4.18
-13.0,7.0,4.181
-21.0,4.0,4.182
-21.0,6.0,4.183
-20.0,10.0,4.184
-23.0,14.0,4.185
-32.0,18.0,4.186
-34.0,18.0,4.187
-27.0,15.0,4.188
-17.0,9.0,4.189
-9.0,5.0,4.19
0.0,3.0,4.191
14.0,1.0,4.192
22.0,0.0,4.193
25.0,-2.0,4.194
28.0,-2.0,4.195
33.0,-3.0,4.196
35.0,-5.0,4.197
30.0,-6.0,4.198
20.0,-2.0,4.199
9.0,-1.0,4.2
-4.0,-7.0,4.201
-15.0,-6.0,4.202
-20.0,0.0,4.203
-21.0,5.0,4.204
-25.0,9.0,4.205
-32.0,9.0,4.206
-32.0,6.0,4.207
-21.0,0.0,4.208
-8.0,-3.0,4.209
-2.0,0.0,4.21
1.0,1.0,4.211
11.0,-2.0,4.212
24.0,-6.0,4.213
30.0,-8.0,4.214
33.0,-6.0,4.215
39.0,-6.0,4.216
46.0,-6.0,4.217
41.0,-7.0,4.218
24.0,-5.0,4.219
2.0,-3.0,4.22
-11.0,-7.0,4.221
-16.0,-8.0,4.222
-17.0,-5.0,4.223
-19.0,0.0,4.224
-21.0,4.0,4.225
-28.0,5.0,4.226
-32.0,5.0,4.227
-25.0,2.0,4.228
-14.0,1.0,4.229
-5.0,0.0,4.23
2.0,0.0,4.231
12.0,-2.0,4.232
22.0,-7.0,4.233
27.0,-9.0,4.234
28.0,-7.0,4.235
32.0,-6.0,4.236
38.0,-5.0,4.237
36.0,-6.0,4.238
23.0,-5.0,4.239
7.0,-2.0,4.24
-3.0,-3.0,4.241
-8.0,-3.0,4.242
-13.0,-2.0,4.243
-18.0,0.0,4.244
-22.0,4.0,4.245
-27.0,6.0,4.246
-30.0,5.0,4.247
-26.0,2.0,4.248
-17.0,1.0,4.249
-6.0,1.0,4.25
1.0,0.0,4.251
11.0,-6.0,4.252
21.0,-11.0,4.253
29.0,-9.0,4.254
33.0,-3.0,4.255
36.0,-2.0,4.256
40.0,-4.0,4.257
34.0,-6.0,4.258
19.0,-2.0,4.259
5.0,0.0,4.26
-7.0,-5.0,4.261
-16.0,-8.0,4.262
-15.0,-2.0,4.263
-15.0,2.0,4.264
-21.0,4.0,4.265
-26.0,7.0,4.266
-26.0,7.0,4.267
-23.0,5.0,4.268
-12.0,3.0,4.269
-2.0,1.0,4.27
7.0,1.0,4.271
16.0,1.0,4.272
22.0,0.0,4.273
29.0,-1.0,4.274
33.0,-1.0,4.275
35.0,-2.0,4.276
33.0,0.0,4.277
30.0,0.0,4.278
21.0,0.0,4.279
9.0,-1.0,4.28
-3.0,-7.0,4.281
-10.0,-7.0,4.282
-11.0,-2.0,4.283
-10.0,3.0,4.284
-16.0,7.0,4.285
-26.0,7.0,4.286
-32.0,3.0,4.287
-27.0,-1.0,4.288
-16.0,-2.0,4.289
-5.0,0.0,4.29
4.0,0.0,4.291
13.0,-4.0,4.292
22.0,-7.0,4.293
28.0,-5.0,4.294
34.0,0.0,4.295
37.0,1.0,4.296
38.0,0.0,4.297
28.0,0.0,4.298
14.0,1.0,4.299
2.0,1.0,4.3
-4.0,-4.0,4.301
-12.0,-4.0,4.302
-16.0,-1.0,4.303
-17.0,1.0,4.304
-23.0,4.0,4.305
-32.0,8.0,4.306
-36.0,9.0,4.307
-24.0,8.0,4.308
-4.0,2.0,4.309
6.0,-2.0,4.31
10.0,-3.0,4.311
15.0,-2.0,4.312
23.0,-2.0,4.313
29.0,-6.0,4.314
30.0,-8.0,4.315
34.0,-7.0,4.316
38.0,-4.0,4.317
33.0,-2.0,4.318
19.0,-1.0,4.319
1.0,-4.0,4.32
-9.0,-7.0,4.321
-17.0,-6.0,4.322
-17.0,-1.0,4.323
-15.0,3.0,4.324
-19.0,6.0,4.325
-25.0,7.0,4.326
-30.0,6.0,4.327
-21.0,2.0,4.328
-8.0,0.0,4.329
-1.0,0.0,4.33
4.0,-2.0,4.331
13.0,-2.0,4.332
23.0,-3.0,4.333
27.0,-2.0,4.334
30.0,-4.0,4.335
37.0,-5.0,4.336
41.0,-3.0,4.337
31.0,-4.0,4.338
16.0,-4.0,4.339
4.0,-2.0,4.34
-4.0,0.0,4.341
-14.0,1.0,4.342
-20.0,2.0,4.343
-22.0,4.0,4.344
-24.0,6.0,4.345
-32.0,9.0,4.346
-34.0,8.0,4.347
-26.0,6.0,4.348
-12.0,2.0,4.349
-4.0,-2.0,4.35
1.0,-3.0,4.351
11.0,-4.0,4.352
22.0,-4.0,4.353
31.0,-5.0,4.354
35.0,-5.0,4.355
37.0,-5.0,4.356
36.0,-5.0,4.357
27.0,-4.0,4.358
16.0,0.0,4.359
3.0,0.0,4.36
-10.0,-4.0,4.361
-18.0,-3.0,4.362
-19.0,1.0,4.363
-16.0,4.0,4.364
-21.0,4.0,4.365
-33.0,7.0,4.366
-38.0,9.0,4.367
-29.0,4.0,4.368
-14.0,-1.0,4.369
-4.0,-3.0,4.37
6.0,-1.0,4.371
17.0,-4.0,4.372
23.0,-7.0,4.373
22.0,-8.0,4.374
24.0,-3.0,4.375
32.0,0.0,4.376
39.0,-1.0,4.377
33.0,-5.0,4.378
20.0,-6.0,4.379
5.0,-5.0,4.38
-5.0,-7.0,4.381
-14.0,-3.0,4.382
-19.0,2.0,4.383
-22.0,5.0,4.384
-25.0,6.0,4.385
-29.0,6.0,4.386
-31.0,5.0,4.387
-25.0,0.0,4.388
-17.0,-2.0,4.389
-6.0,0.0,4.39
1.0,2.0,4.391
8.0,-1.0,4.392
16.0,-6.0,4.393
25.0,-6.0,4.394
31.0,-6.0,4.395
33.0,-6.0,4.396
34.0,-6.0,4.397
29.0,-3.0,4.398
19.0,-1.0,4.399
2.0,-3.0,4.4
-12.0,-7.0,4.401
-18.0,-3.0,4.402
-17.0,2.0,4.403
-19.0,4.0,4.404
-25.0,5.0,4.405
-30.0,8.0,4.406
-31.0,7.0,4.407
-24.0,4.0,4.408
-14.0,1.0,4.409
-1.0,0.0,4.41
11.0,-2.0,4.411
19.0,-6.0,4.412
25.0,-7.0,4.413
30.0,-4.0,4.414
38.0,-5.0,4.415
42.0,-8.0,4.416
41.0,-9.0,4.417
31.0,-5.0,4.418
17.0,-1.0,4.419
0.0,0.0,4.42
-11.0,-2.0,4.421
-18.0,0.0,4.422
-19.0,2.0,4.423
-18.0,4.0,4.424
-25.0,8.0,4.425
-31.0,9.0,4.426
-28.0,7.0,4.427
-19.0,2.0,4.428
-10.0,0.0,4.429
-3.0,2.0,4.43
6.0,0.0,4.431
17.0,-4.0,4.432
27.0,-5.0,4.433
34.0,-4.0,4.434
40.0,-3.0,4.435
43.0,-5.0,4.436
42.0,-3.0,4.437
31.0,0.0,4.438
16.0,-1.0,4.439
2.0,-5.0,4.44
-9.0,-8.0,4.441
-17.0,-6.0,4.442
-18.0,-2.0,4.443
-19.0,-1.0,4.444
-24.0,5.0,4.445
-32.0,10.0,4.446
-31.0,9.0,4.447
-22.0,1.0,4.448
-11.0,-6.0,4.449
-3.0,-4.0,4.45
3.0,-1.0,4.451
13.0,-2.0,4.452
19.0,-4.0,4.453
25.0,-7.0,4.454
33.0,-7.0,4.455
39.0,-8.0,4.456
39.0,-6.0,4.457
31.0,-3.0,4.458
16.0,-2.0,4.459
1.0,-3.0,4.46
-9.0,-5.0,4.461
-13.0,-4.0,4.462
-11.0,1.0,4.463
-11.0,5.0,4.464
-20.0,8.0,4.465
-30.0,10.0,4.466
-30.0,7.0,4.467
-19.0,1.0,4.468
-5.0,-2.0,4.469
2.0,0.0,4.47
10.0,3.0,4.471
18.0,3.0,4.472
27.0,-1.0,4.473
30.0,-4.0,4.474
31.0,-5.0,4.475
33.0,-5.0,4.476
36.0,-4.0,4.477
29.0,-6.0,4.478
17.0,-4.0,4.479
5.0,-2.0,4.48
-4.0,-4.0,4.481
-10.0,-6.0,4.482
-16.0,-4.0,4.483
-19.0,1.0,4.484
-23.0,7.0,4.485
-28.0,9.0,4.486
-31.0,5.0,4.487
-24.0,1.0,4.488
-12.0,0.0,4.489
-1.0,-1.0,4.49
9.0,-2.0,4.491
18.0,-3.0,4.492
25.0,-5.0,4.493
30.0,-3.0,4.494
32.0,-2.0,4.495
36.0,-4.0,4.496
37.0,-5.0,4.497
31.0,-5.0,4.498
17.0,-1.0,4.499
2.0,1.0,4.5
-9.0,-1.0,4.501
-16.0,-1.0,4.502
-20.0,0.0,4.503
-21.0,1.0,4.504
-26.0,2.0,4.505
-33.0,5.0,4.506
-35.0,6.0,4.507
-27.0,3.0,4.508
-13.0,0.0,4.509
0.0,-1.0,4.51
7.0,-1.0,4.511
16.0,-2.0,4.512
25.0,-5.0,4.513
33.0,-4.0,4.514
34.0,-1.0,4.515
34.0,-2.0,4.516
37.0,-3.0,4.517
36.0,-4.0,4.518
23.0,-2.0,4.519
2.0,-1.0,4.52
-12.0,-5.0,4.521
-16.0,-4.0,4.522
-16.0,0.0,4.523
-19.0,2.0,4.524
-26.0,4.0,4.525
-33.0,5.0,4.526
-33.0,5.0,4.527
-26.0,4.0,4.528
-17.0,2.0,4.529
-4.0,0.0,4.53
8.0,-4.0,4.531
17.0,-6.0,4.532
23.0,-5.0,4.533
28.0,-3.0,4.534
32.0,-3.0,4.535
34.0,-4.0,4.536
35.0,-3.0,4.537
28.0,-1.0,4.538
16.0,0.0,4.539
3.0,1.0,4.54
-10.0,-1.0,4.541
-21.0,-4.0,4.542
-21.0,-4.0,4.543
-21.0,-2.0,4.544
-26.0,3.0,4.545
-30.0,7.0,4.546
-28.0,7.0,4.547
-24.0,7.0,4.548
-13.0,3.0,4.549
-2.0,0.0,4.55
3.0,-2.0,4.551
11.0,-4.0,4.552
21.0,-4.0,4.553
29.0,-5.0,4.554
33.0,-6.0,4.555
35.0,-6.0,4.556
32.0,-3.0,4.557
29.0,0.0,4.558
19.0,0.0,4.559
4.0,-3.0,4.56
-10.0,-7.0,4.561
-17.0,-6.0,4.562
-17.0,-3.0,4.563
-17.0,0.0,4.564
-20.0,5.0,4.565
-26.0,7.0,4.566
-27.0,6.0,4.567
-22.0,2.0,4.568
-11.0,1.0,4.569
0.0,3.0,4.57
11.0,1.0,4.571
19.0,-4.0,4.572
23.0,-7.0,4.573
26.0,-4.0,4.574
31.0,-2.0,4.575
37.0,-3.0,4.576
35.0,-3.0,4.577
27.0,-4.0,4.578
15.0,-5.0,4.579
0.0,-7.0,4.58
-12.0,-9.0,4.581
-19.0,-5.0,4.582
-19.0,0.0,4.583
-17.0,5.0,4.584
-20.0,8.0,4.585
-27.0,9.0,4.586
-30.0,6.0,4.587
-23.0,2.0,4.588
-9.0,1.0,4.589
1.0,2.0,4.59
7.0,-1.0,4.591
14.0,-4.0,4.592
22.0,-3.0,4.593
31.0,1.0,4.594
37.0,1.0,4.595
38.0,-5.0,4.596
36.0,-5.0,4.597
27.0,-2.0,4.598
18.0,0.0,4.599
4.0,0.0,4.6
-7.0,-5.0,4.601
-15.0,-3.0,4.602
-18.0,0.0,4.603
-18.0,2.0,4.604
-23.0,4.0,4.605
-33.0,10.0,4.606
-34.0,9.0,4.607
-25.0,2.0,4.608
-14.0,0.0,4.609
-4.0,3.0,4.61
4.0,3.0,4.611
16.0,-2.0,4.612
26.0,-6.0,4.613
31.0,-5.0,4.614
33.0,-2.0,4.615
35.0,-3.0,4.616
35.0,-3.0,4.617
29.0,-3.0,4.618
19.0,-3.0,4.619
5.0,-4.0,4.62
-7.0,-5.0,4.621
-17.0,-2.0,4.622
-21.0,0.0,4.623
-20.0,0.0,4.624
-22.0,1.0,4.625
-28.0,5.0,4.626
-27.0,5.0,4.627
-18.0,1.0,4.628
-6.0,-1.0,4.629
0.0,0.0,4.63
6.0,-1.0,4.631
17.0,-7.0,4.632
28.0,-9.0,4.633
32.0,-3.0,4.634
32.0,-1.0,4.635
34.0,-5.0,4.636
34.0,-8.0,4.637
27.0,-4.0,4.638
15.0,2.0,4.639
4.0,3.0,4.64
-3.0,-3.0,4.641
-14.0,-4.0,4.642
-22.0,-1.0,4.643
-24.0,4.0,4.644
-23.0,8.0,4.645
-25.0,10.0,4.646
-28.0,7.0,4.647
-22.0,1.0,4.648
-9.0,-3.0,4.649
2.0,-2.0,4.65
10.0,0.0,4.651
17.0,-1.0,4.652
24.0,-4.0,4.653
29.0,-4.0,4.654
33.0,-3.0,4.655
39.0,-4.0,4.656
40.0,-2.0,4.657
31.0,-2.0,4.658
18.0,-1.0,4.659
4.0,-2.0,4.66
-5.0,-4.0,4.661
-14.0,0.0,4.662
-21.0,4.0,4.663
-21.0,3.0,4.664
-22.0,2.0,4.665
-27.0,4.0,4.666
-31.0,6.0,4.667
-25.0,3.0,4.668
-10.0,0.0,4.669
3.0,1.0,4.67
10.0,4.0,4.671
16.0,1.0,4.672
26.0,-4.0,4.673
34.0,-6.0,4.674
36.0,-2.0,4.675
35.0,-4.0,4.676
33.0,-6.0,4.677
24.0,-8.0,4.678
10.0,-6.0,4.679
-3.0,-2.0,4.68
-11.0,-6.0,4.681
-16.0,-5.0,4.682
-21.0,1.0,4.683
-22.0,7.0,4.684
-25.0,10.0,4.685
-29.0,7.0,4.686
-29.0,3.0,4.687
-22.0,0.0,4.688
-9.0,-2.0,4.689
0.0,-2.0,4.69
7.0,-1.0,4.691
17.0,-2.0,4.692
28.0,-3.0,4.693
34.0,-4.0,4.694
35.0,-3.0,4.695
38.0,-3.0,4.696
38.0,-3.0,4.697
29.0,-5.0,4.698
14.0,-6.0,4.699
-3.0,-4.0,4.7
-13.0,-3.0,4.701
-20.0,-4.0,4.702
-20.0,-3.0,4.703
-17.0,1.0,4.704
-18.0,7.0,4.705
-24.0,11.0,4.706
-28.0,7.0,4.707
-20.0,2.0,4.708
-6.0,0.0,4.709
4.0,1.0,4.71
12.0,0.0,4.711
22.0,-6.0,4.712
30.0,-7.0,4.713
32.0,-4.0,4.714
30.0,-1.0,4.715
29.0,-3.0,4.716
30.0,-4.0,4.717
25.0,-4.0,4.718
12.0,-1.0,4.719
-3.0,0.0,4.72
-15.0,-6.0,4.721
-22.0,-5.0,4.722
-24.0,2.0,4.723
-25.0,8.0,4.724
-26.0,7.0,4.725
-30.0,4.0,4.726
-30.0,3.0,4.727
-24.0,4.0,4.728
-10.0,3.0,4.729
0.0,1.0,4.73
8.0,1.0,4.731
15.0,0.0,4.732
21.0,0.0,4.733
27.0,-2.0,4.734
32.0,-3.0,4.735
38.0,-4.0,4.736
40.0,-1.0,4.737
31.0,0.0,4.738
17.0,2.0,4.739
4.0,3.0,4.74
-5.0,1.0,4.741
-13.0,-1.0,4.742
-15.0,-1.0,4.743
-18.0,-1.0,4.744
-24.0,3.0,4.745
-30.0,5.0,4.746
-28.0,3.0,4.747
-24.0,0.0,4.748
-13.0,-1.0,4.749
-2.0,-4.0,4.75
7.0,-5.0,4.751
17.0,-6.0,4.752
25.0,-6.0,4.753
31.0,-5.0,4.754
33.0,-6.0,4.755
34.0,-7.0,4.756
32.0,-9.0,4.757
26.0,-12.0,4.758
15.0,-8.0,4.759
0.0,-4.0,4.76
-12.0,-8.0,4.761
-19.0,-8.0,4.762
-18.0,-6.0,4.763
-15.0,0.0,4.764
-17.0,3.0,4.765
-26.0,2.0,4.766
-30.0,2.0,4.767
-23.0,2.0,4.768
-13.0,1.0,4.769
-4.0,0.0,4.77
3.0,0.0,4.771
15.0,-1.0,4.772
27.0,-5.0,4.773
32.0,-9.0,4.774
32.0,-9.0,4.775
35.0,-5.0,4.776
40.0,-1.0,4.777
33.0,2.0,4.778
17.0,2.0,4.779
0.0,1.0,4.78
-11.0,-2.0,4.781
-17.0,0.0,4.782
-18.0,1.0,4.783
-19.0,5.0,4.784
-22.0,7.0,4.785
-29.0,9.0,4.786
-29.0,9.0,4.787
-17.0,8.0,4.788
-2.0,8.0,4.789
7.0,8.0,4.79
13.0,3.0,4.791
20.0,-1.0,4.792
26.0,-3.0,4.793
29.0,1.0,4.794
32.0,1.0,4.795
36.0,-2.0,4.796
39.0,-4.0,4.797
30.0,-2.0,4.798
14.0,1.0,4.799
-3.0,0.0,4.8
-13.0,-3.0,4.801
-16.0,-4.0,4.802
-17.0,-3.0,4.803
-19.0,0.0,4.804
-26.0,9.0,4.805
-34.0,15.0,4.806
-33.0,13.0,4.807
-23.0,4.0,4.808
-13.0,-1.0,4.809
-5.0,0.0,4.81
3.0,0.0,4.811
14.0,-3.0,4.812
23.0,-8.0,4.813
28.0,-7.0,4.814
32.0,-5.0,4.815
35.0,-5.0,4.816
34.0,-3.0,4.817
26.0,-2.0,4.818
12.0,-2.0,4.819
-2.0,-4.0,4.82
-12.0,-7.0,4.821
-18.0,-4.0,4.822
-21.0,0.0,4.823
-23.0,1.0,4.824
-27.0,2.0,4.825
-31.0,3.0,4.826
-30.0,3.0,4.827
-22.0,1.0,4.828
-10.0,-2.0,4.829
0.0,-3.0,4.83
10.0,-3.0,4.831
19.0,-4.0,4.832
29.0,-4.0,4.833
36.0,-6.0,4.834
39.0,-7.0,4.835
40.0,-8.0,4.836
38.0,-4.0,4.837
31.0,-4.0,4.838
16.0,-5.0,4.839
-1.0,-5.0,4.84
-12.0,-5.0,4.841
-15.0,-3.0,4.842
-16.0,-1.0,4.843
-18.0,0.0,4.844
-20.0,3.0,4.845
-25.0,9.0,4.846
-26.0,9.0,4.847
-21.0,5.0,4.848
-13.0,3.0,4.849
-3.0,3.0,4.85
8.0,2.0,4.851
17.0,-3.0,4.852
26.0,-7.0,4.853
32.0,-6.0,4.854
34.0,-3.0,4.855
34.0,-1.0,4.856
32.0,0.0,4.857
22.0,-1.0,4.858
11.0,-1.0,4.859
0.0,-2.0,4.86
-11.0,-1.0,4.861
-20.0,0.0,4.862
-22.0,1.0,4.863
-25.0,2.0,4.864
-26.0,4.0,4.865
-27.0,5.0,4.866
-25.0,3.0,4.867
-21.0,1.0,4.868
-11.0,-3.0,4.869
-1.0,-5.0,4.87
9.0,-1.0,4.871
19.0,2.0,4.872
26.0,-3.0,4.873
32.0,-7.0,4.874
34.0,-5.0,4.875
35.0,-4.0,4.876
32.0,-5.0,4.877
27.0,-6.0,4.878
14.0,-6.0,4.879
0.0,-4.0,4.88
-11.0,-5.0,4.881
-17.0,-6.0,4.882
-17.0,-5.0,4.883
-17.0,0.0,4.884
-23.0,7.0,4.885
-33.0,9.0,4.886
-35.0,7.0,4.887
-23.0,3.0,4.888
-7.0,1.0,4.889
3.0,0.0,4.89
11.0,-2.0,4.891
19.0,-6.0,4.892
27.0,-9.0,4.893
31.0,-6.0,4.894
33.0,-1.0,4.895
35.0,1.0,4.896
36.0,1.0,4.897
30.0,-1.0,4.898
19.0,0.0,4.899
3.0,1.0,4.9
-9.0,0.0,4.901
-18.0,0.0,4.902
-22.0,2.0,4.903
-22.0,5.0,4.904
-24.0,7.0,4.905
-30.0,6.0,4.906
-29.0,2.0,4.907
-22.0,0.0,4.908
-12.0,-2.0,4.909
-3.0,-1.0,4.91
6.0,-4.0,4.911
18.0,-6.0,4.912
30.0,-4.0,4.913
35.0,0.0,4.914
34.0,0.0,4.915
33.0,-2.0,4.916
33.0,-2.0,4.917
26.0,-2.0,4.918
13.0,-2.0,4.919
-3.0,-3.0,4.92
-15.0,-6.0,4.921
-21.0,-3.0,4.922
-24.0,0.0,4.923
-29.0,4.0,4.924
-34.0,6.0,4.925
-33.0,6.0,4.926
-26.0,4.0,4.927
-18.0,0.0,4.928
-7.0,0.0,4.929
4.0,0.0,4.93
13.0,0.0,4.931
20.0,-2.0,4.932
27.0,-3.0,4.933
34.0,-2.0,4.934
41.0,-5.0,4.935
44.0,-8.0,4.936
42.0,-9.0,4.937
26.0,-5.0,4.938
11.0,-1.0,4.939
-2.0,-1.0,4.94
-11.0,-5.0,4.941
-17.0,-6.0,4.942
-18.0,-4.0,4.943
-19.0,1.0,4.944
-23.0,7.0,4.945
-31.0,10.0,4.946
-32.0,5.0,4.947
-21.0,-2.0,4.948
-6.0,-4.0,4.949
4.0,-1.0,4.95
11.0,0.0,4.951
17.0,-1.0,4.952
24.0,-4.0,4.953
30.0,-4.0,4.954
33.0,-4.0,4.955
34.0,-3.0,4.956
32.0,-2.0,4.957
25.0,-3.0,4.958
15.0,-4.0,4.959
2.0,-3.0,4.96
-11.0,-3.0,4.961
-21.0,-1.0,4.962
-24.0,0.0,4.963
-23.0,1.0,4.964
-24.0,3.0,4.965
-30.0,6.0,4.966
-30.0,6.0,4.967
-21.0,4.0,4.968
-5.0,4.0,4.969
5.0,4.0,4.97
12.0,1.0,4.971
20.0,-2.0,4.972
29.0,-4.0,4.973
35.0,-5.0,4.974
36.0,-7.0,4.975
33.0,-8.0,4.976
31.0,-4.0,4.977
23.0,-3.0,4.978
12.0,-3.0,4.979
-2.0,-4.0,4.98
-15.0,-4.0,4.981
-19.0,-5.0,4.982
-21.0,-5.0,4.983
-22.0,-3.0,4.984
-25.0,0.0,4.985
-31.0,3.0,4.986
-31.0,3.0,4.987
-23.0,2.0,4.988
-9.0,0.0,4.989
4.0,-1.0,4.99
15.0,-1.0,4.991
22.0,-2.0,4.992
28.0,-2.0,4.993
34.0,-1.0,4.994
36.0,0.0,4.995
35.0,2.0,4.996
34.0,0.0,4.997
29.0,-1.0,4.998
20.0,0.0,4.999
7.0,1.0,5.0
-7.0,-1.0,5.001
-19.0,-3.0,5.002
-22.0,-1.0,5.003
-20.0,4.0,5.004
-21.0,7.0,5.005
-27.0,7.0,5.006
-29.0,3.0,5.007
-18.0,0.0,5.008
-2.0,0.0,5.009
6.0,1.0,5.01
10.0,1.0,5.011
18.0,-2.0,5.012
29.0,-3.0,5.013
33.0,-4.0,5.014
31.0,-4.0,5.015
31.0,-3.0,5.016
33.0,-2.0,5.017
28.0,-3.0,5.018
15.0,-3.0,5.019
-3.0,-2.0,5.02
-15.0,-2.0,5.021
-19.0,-1.0,5.022
-17.0,-2.0,5.023
-17.0,0.0,5.024
-23.0,4.0,5.025
-30.0,6.0,5.026
-32.0,3.0,5.027
-20.0,-1.0,5.028
-7.0,-1.0,5.029
3.0,1.0,5.03
9.0,0.0,5.031
16.0,-4.0,5.032
23.0,-6.0,5.033
30.0,-7.0,5.034
36.0,-8.0,5.035
38.0,-9.0,5.036
33.0,-5.0,5.037
19.0,-1.0,5.038
5.0,1.0,5.039
-4.0,1.0,5.04
-12.0,-1.0,5.041
-20.0,0.0,5.042
-24.0,0.0,5.043
-23.0,0.0,5.044
-25.0,2.0,5.045
-28.0,5.0,5.046
-29.0,5.0,5.047
-20.0,1.0,5.048
-8.0,2.0,5.049
2.0,3.0,5.05
10.0,0.0,5.051
21.0,-4.0,5.052
32.0,-3.0,5.053
36.0,1.0,5.054
37.0,3.0,5.055
38.0,-2.0,5.056
37.0,-5.0,5.057
27.0,-4.0,5.058
12.0,-2.0,5.059
-4.0,-1.0,5.06
-14.0,-2.0,5.061
-20.0,-2.0,5.062
-24.0,0.0,5.063
-24.0,3.0,5.064
-25.0,5.0,5.065
-28.0,7.0,5.066
-28.0,5.0,5.067
-19.0,2.0,5.068
-5.0,0.0,5.069
5.0,-2.0,5.07
12.0,-3.0,5.071
20.0,-4.0,5.072
28.0,-5.0,5.073
33.0,-7.0,5.074
33.0,-5.0,5.075
36.0,-4.0,5.076
37.0,-2.0,5.077
29.0,0.0,5.078
15.0,-1.0,5.079
1.0,-1.0,5.08
-9.0,-1.0,5.081
-18.0,0.0,5.082
-21.0,2.0,5.083
-22.0,2.0,5.084
-24.0,5.0,5.085
-30.0,8.0,5.086
-31.0,7.0,5.087
-21.0,3.0,5.088
-8.0,0.0,5.089
2.0,-1.0,5.09
10.0,-6.0,5.091
20.0,-9.0,5.092
27.0,-9.0,5.093
31.0,-6.0,5.094
34.0,-6.0,5.095
37.0,-8.0,5.096
35.0,-6.0,5.097
24.0,-3.0,5.098
9.0,-1.0,5.099
-4.0,-2.0,5.1
-14.0,-4.0,5.101
-22.0,-2.0,5.102
-24.0,1.0,5.103
-24.0,6.0,5.104
-27.0,10.0,5.105
-33.0,11.0,5.106
-31.0,6.0,5.107
-20.0,0.0,5.108
-7.0,0.0,5.109
-1.0,1.0,5.11
5.0,0.0,5.111
15.0,-5.0,5.112
25.0,-7.0,5.113
33.0,-6.0,5.114
38.0,-4.0,5.115
38.0,-6.0,5.116
36.0,-5.0,5.117
26.0,-4.0,5.118
14.0,-1.0,5.119
-1.0,-2.0,5.12
-13.0,-6.0,5.121
-20.0,-6.0,5.122
-19.0,-2.0,5.123
-18.0,0.0,5.124
-24.0,4.0,5.125
-32.0,8.0,5.126
-28.0,7.0,5.127
-16.0,2.0,5.128
-3.0,-1.0,5.129
5.0,0.0,5.13
14.0,0.0,5.131
25.0,-3.0,5.132
32.0,-6.0,5.133
30.0,-5.0,5.134
30.0,-2.0,5.135
34.0,-3.0,5.136
37.0,-3.0,5.137
27.0,-4.0,5.138
11.0,-4.0,5.139
-4.0,-3.0,5.14
-17.0,-4.0,5.141
-25.0,-2.0,5.142
-27.0,1.0,5.143
-22.0,3.0,5.144
-20.0,8.0,5.145
-25.0,13.0,5.146
-24.0,12.0,5.147
-12.0,4.0,5.148
-1.0,-3.0,5.149
4.0,-2.0,5.15
9.0,-1.0,5.151
18.0,-3.0,5.152
28.0,-3.0,5.153
32.0,-2.0,5.154
33.0,-4.0,5.155
33.0,-8.0,5.156
32.0,-9.0,5.157
22.0,-5.0,5.158
7.0,-2.0,5.159
-4.0,-2.0,5.16
-13.0,-5.0,5.161
-20.0,-3.0,5.162
-22.0,-1.0,5.163
-21.0,1.0,5.164
-21.0,6.0,5.165
-25.0,10.0,5.166
-26.0,10.0,5.167
-17.0,4.0,5.168
-5.0,0.0,5.169
4.0,0.0,5.17
12.0,0.0,5.171
21.0,-3.0,5.172
28.0,-5.0,5.173
31.0,-3.0,5.174
33.0,-3.0,5.175
36.0,-6.0,5.176
35.0,-6.0,5.177
23.0,-5.0,5.178
11.0,0.0,5.179
-1.0,1.0,5.18
-12.0,-2.0,5.181
-22.0,-4.0,5.182
-24.0,-3.0,5.183
-21.0,2.0,5.184
-23.0,8.0,5.185
-30.0,10.0,5.186
-30.0,4.0,5.187
-19.0,-3.0,5.188
-5.0,-6.0,5.189
3.0,-4.0,5.19
11.0,-2.0,5.191
21.0,-2.0,5.192
28.0,-3.0,5.193
32.0,-5.0,5.194
35.0,-6.0,5.195
36.0,-5.0,5.196
33.0,-2.0,5.197
20.0,-2.0,5.198
10.0,0.0,5.199
0.0,1.0,5.2
-10.0,0.0,5.201
-19.0,-1.0,5.202
-20.0,0.0,5.203
-21.0,2.0,5.204
-24.0,6.0,5.205
-26.0,8.0,5.206
-24.0,5.0,5.207
-20.0,1.0,5.208
-10.0,0.0,5.209
-1.0,-2.0,5.21
8.0,0.0,5.211
18.0,2.0,5.212
27.0,-2.0,5.213
35.0,-5.0,5.214
37.0,-5.0,5.215
37.0,-5.0,5.216
31.0,-5.0,5.217
23.0,-7.0,5.218
8.0,-4.0,5.219
-2.0,1.0,5.22
-11.0,3.0,5.221
-18.0,1.0,5.222
-22.0,0.0,5.223
-22.0,0.0,5.224
-25.0,4.0,5.225
-35.0,8.0,5.226
-34.0,7.0,5.227
-17.0,1.0,5.228
1.0,-4.0,5.229
7.0,-4.0,5.23
8.0,-3.0,5.231
16.0,-6.0,5.232
29.0,-6.0,5.233
36.0,-5.0,5.234
36.0,-3.0,5.235
37.0,-4.0,5.236
36.0,-5.0,5.237
25.0,-4.0,5.238
10.0,-1.0,5.239
-2.0,0.0,5.24
-13.0,-2.0,5.241
-23.0,1.0,5.242
-26.0,5.0,5.243
-22.0,6.0,5.244
-21.0,4.0,5.245
-27.0,3.0,5.246
-28.0,3.0,5.247
-16.0,4.0,5.248
-2.0,7.0,5.249
6.0,6.0,5.25
14.0,0.0,5.251
23.0,-6.0,5.252
32.0,-7.0,5.253
33.0,-5.0,5.254
34.0,-5.0,5.255
37.0,-7.0,5.256
35.0,-5.0,5.257
20.0,0.0,5.258
6.0,4.0,5.259
-5.0,0.0,5.26
-14.0,-6.0,5.261
-23.0,-3.0,5.262
-26.0,5.0,5.263
-24.0,9.0,5.264
-26.0,8.0,5.265
-32.0,5.0,5.266
-31.0,4.0,5.267
-21.0,0.0,5.268
-7.0,-5.0,5.269
4.0,-4.0,5.27
14.0,-1.0,5.271
22.0,0.0,5.272
28.0,-4.0,5.273
31.0,-4.0,5.274
35.0,-1.0,5.275
37.0,-2.0,5.276
34.0,-3.0,5.277
23.0,-4.0,5.278
12.0,-2.0,5.279
-2.0,0.0,5.28
-15.0,-4.0,5.281
-25.0,-5.0,5.282
-25.0,-3.0,5.283
-22.0,-2.0,5.284
-25.0,1.0,5.285
-29.0,6.0,5.286
-28.0,7.0,5.287
-17.0,3.0,5.288
-3.0,-1.0,5.289
7.0,-1.0,5.29
16.0,-1.0,5.291
27.0,-7.0,5.292
37.0,-11.0,5.293
40.0,-8.0,5.294
38.0,-2.0,5.295
34.0,-1.0,5.296
31.0,-1.0,5.297
23.0,-1.0,5.298
10.0,0.0,5.299
-3.0,-2.0,5.3
-13.0,-5.0,5.301
-20.0,-2.0,5.302
-24.0,3.0,5.303
-27.0,5.0,5.304
-29.0,5.0,5.305
-30.0,7.0,5.306
-26.0,7.0,5.307
-17.0,3.0,5.308
-4.0,-1.0,5.309
7.0,0.0,5.31
16.0,0.0,5.311
22.0,-3.0,5.312
28.0,-6.0,5.313
33.0,-6.0,5.314
37.0,-3.0,5.315
40.0,-2.0,5.316
34.0,0.0,5.317
21.0,-1.0,5.318
9.0,2.0,5.319
-3.0,2.0,5.32
-15.0,-3.0,5.321
-27.0,-6.0,5.322
-30.0,-5.0,5.323
-25.0,-1.0,5.324
-25.0,2.0,5.325
-31.0,4.0,5.326
-32.0,4.0,5.327
-18.0,3.0,5.328
1.0,1.0,5.329
11.0,-2.0,5.33
15.0,-5.0,5.331
20.0,-4.0,5.332
25.0,-2.0,5.333
29.0,1.0,5.334
32.0,0.0,5.335
36.0,-2.0,5.336
35.0,-1.0,5.337
24.0,-4.0,5.338
9.0,-6.0,5.339
-6.0,-5.0,5.34
-18.0,-3.0,5.341
-25.0,0.0,5.342
-25.0,2.0,5.343
-22.0,4.0,5.344
-23.0,6.0,5.345
-26.0,7.0,5.346
-23.0,4.0,5.347
-12.0,-1.0,5.348
-2.0,-4.0,5.349
2.0,-4.0,5.35
11.0,-3.0,5.351
24.0,-2.0,5.352
33.0,-2.0,5.353
34.0,-3.0,5.354
34.0,-4.0,5.355
36.0,-5.0,5.356
35.0,-2.0,5.357
20.0,-2.0,5.358
4.0,-2.0,5.359
-5.0,-3.0,5.36
-13.0,-6.0,5.361
-22.0,-4.0,5.362
-27.0,-1.0,5.363
-24.0,1.0,5.364
-22.0,4.0,5.365
-26.0,7.0,5.366
-27.0,5.0,5.367
-17.0,0.0,5.368
-3.0,-5.0,5.369
9.0,-5.0,5.37
18.0,0.0,5.371
27.0,0.0,5.372
34.0,-3.0,5.373
35.0,-8.0,5.374
36.0,-9.0,5.375
38.0,-8.0,5.376
35.0,-5.0,5.377
23.0,-1.0,5.378
5.0,2.0,5.379
-11.0,1.0,5.38
-22.0,-6.0,5.381
-29.0,-6.0,5.382
-30.0,-1.0,5.383
-27.0,5.0,5.384
-26.0,6.0,5.385
-27.0,7.0,5.386
-25.0,7.0,5.387
-15.0,6.0,5.388
-2.0,3.0,5.389
7.0,2.0,5.39
15.0,0.0,5.391
20.0,-5.0,5.392
27.0,-5.0,5.393
33.0,0.0,5.394
38.0,5.0,5.395
37.0,2.0,5.396
30.0,-1.0,5.397
19.0,-1.0,5.398
12.0,0.0,5.399
3.0,-2.0,5.4
-9.0,-7.0,5.401
-20.0,-5.0,5.402
-24.0,-1.0,5.403
-23.0,2.0,5.404
-24.0,5.0,5.405
-28.0,7.0,5.406
-26.0,2.0,5.407
-14.0,-4.0,5.408
0.0,-5.0,5.409
9.0,1.0,5.41
16.0,2.0,5.411
23.0,-3.0,5.412
29.0,-8.0,5.413
31.0,-5.0,5.414
33.0,-3.0,5.415
33.0,-5.0,5.416
30.0,-6.0,5.417
21.0,-2.0,5.418
11.0,3.0,5.419
0.0,2.0,5.42
-12.0,-4.0,5.421
-23.0,-3.0,5.422
-23.0,2.0,5.423
-17.0,6.0,5.424
-19.0,5.0,5.425
-27.0,4.0,5.426
-30.0,4.0,5.427
-17.0,3.0,5.428
-2.0,0.0,5.429
5.0,-1.0,5.43
9.0,-3.0,5.431
19.0,-3.0,5.432
28.0,-5.0,5.433
30.0,-6.0,5.434
28.0,-6.0,5.435
28.0,-5.0,5.436
28.0,-3.0,5.437
20.0,-4.0,5.438
8.0,-4.0,5.439
-5.0,-2.0,5.44
-17.0,-4.0,5.441
-24.0,-3.0,5.442
-23.0,-2.0,5.443
-20.0,3.0,5.444
-22.0,8.0,5.445
-28.0,9.0,5.446
-26.0,6.0,5.447
-14.0,2.0,5.448
1.0,1.0,5.449
10.0,1.0,5.45
15.0,-2.0,5.451
22.0,-4.0,5.452
28.0,-4.0,5.453
32.0,-2.0,5.454
37.0,0.0,5.455
40.0,0.0,5.456
37.0,2.0,5.457
24.0,0.0,5.458
9.0,0.0,5.459
-3.0,-1.0,5.46
-13.0,-3.0,5.461
-21.0,-4.0,5.462
-24.0,-2.0,5.463
-25.0,0.0,5.464
-28.0,2.0,5.465
-35.0,4.0,5.466
-31.0,4.0,5.467
-18.0,-1.0,5.468
-4.0,-3.0,5.469
2.0,-3.0,5.47
9.0,-2.0,5.471
19.0,-3.0,5.472
31.0,-5.0,5.473
37.0,-6.0,5.474
38.0,-6.0,5.475
34.0,-8.0,5.476
28.0,-9.0,5.477
14.0,-9.0,5.478
2.0,-6.0,5.479
-7.0,-5.0,5.48
-14.0,-7.0,5.481
-19.0,-6.0,5.482
-24.0,0.0,5.483
-27.0,4.0,5.484
-31.0,3.0,5.485
-32.0,1.0,5.486
-26.0,0.0,5.487
-11.0,-1.0,5.488
4.0,-2.0,5.489
10.0,-1.0,5.49
15.0,0.0,5.491
22.0,-2.0,5.492
31.0,-6.0,5.493
35.0,-6.0,5.494
36.0,-3.0,5.495
37.0,-3.0,5.496
34.0,0.0,5.497
21.0,0.0,5.498
7.0,1.0,5.499
-4.0,0.0,5.5
-11.0,-1.0,5.501
-19.0,2.0,5.502
-22.0,9.0,5.503
-19.0,13.0,5.504
-19.0,12.0,5.505
-23.0,13.0,5.506
-22.0,14.0,5.507
-8.0,9.0,5.508
8.0,2.0,5.509
18.0,0.0,5.51
20.0,1.0,5.511
25.0,2.0,5.512
32.0,-1.0,5.513
34.0,-3.0,5.514
33.0,-3.0,5.515
33.0,-4.0,5.516
31.0,-5.0,5.517
21.0,-4.0,5.518
8.0,-3.0,5.519
-6.0,0.0,5.52
-18.0,-2.0,5.521
-24.0,0.0,5.522
-27.0,5.0,5.523
-27.0,8.0,5.524
-31.0,8.0,5.525
-34.0,9.0,5.526
-32.0,12.0,5.527
-24.0,15.0,5.528
-17.0,15.0,5.529
-10.0,17.0,5.53
-1.0,25.0,5.531
13.0,32.0,5.532
26.0,32.0,5.533
31.0,27.0,5.534
31.0,21.0,5.535
31.0,13.0,5.536
33.0,-7.0,5.537
30.0,-46.0,5.538
18.0,-85.0,5.539
0.0,-101.0,5.54
-14.0,-94.0,5.541
-18.0,-66.0,5.542
-16.0,-37.0,5.543
-20.0,-15.0,5.544
-26.0,1.0,5.545
-31.0,11.0,5.546
-25.0,12.0,5.547
-11.0,8.0,5.548
1.0,3.0,5.549
7.0,6.0,5.55
10.0,12.0,5.551
17.0,11.0,5.552
26.0,9.0,5.553
33.0,8.0,5.554
37.0,5.0,5.555
35.0,0.0,5.556
28.0,-2.0,5.557
13.0,1.0,5.558
-1.0,7.0,5.559
-9.0,7.0,5.56
-17.0,0.0,5.561
-21.0,1.0,5.562
-21.0,6.0,5.563
-20.0,11.0,5.564
-23.0,13.0,5.565
-29.0,15.0,5.566
-25.0,13.0,5.567
-12.0,5.0,5.568
-3.0,2.0,5.569
0.0,3.0,5.57
6.0,4.0,5.571
20.0,-1.0,5.572
32.0,-4.0,5.573
37.0,-1.0,5.574
37.0,1.0,5.575
36.0,0.0,5.576
32.0,-1.0,5.577
21.0,0.0,5.578
8.0,0.0,5.579
-6.0,-1.0,5.58
-19.0,-4.0,5.581
-26.0,-4.0,5.582
-26.0,0.0,5.583
-24.0,4.0,5.584
-26.0,7.0,5.585
-28.0,6.0,5.586
-26.0,0.0,5.587
-15.0,-4.0,5.588
-1.0,-4.0,5.589
11.0,0.0,5.59
22.0,0.0,5.591
32.0,-2.0,5.592
38.0,-4.0,5.593
41.0,-5.0,5.594
42.0,-4.0,5.595
40.0,-1.0,5.596
31.0,3.0,5.597
15.0,2.0,5.598
0.0,-1.0,5.599
-9.0,-4.0,5.6
-16.0,-7.0,5.601
-22.0,-5.0,5.602
-25.0,-1.0,5.603
-20.0,3.0,5.604
-14.0,6.0,5.605
-11.0,7.0,5.606
-7.0,6.0,5.607
2.0,4.0,5.608
12.0,1.0,5.609
16.0,-2.0,5.61
19.0,-5.0,5.611
21.0,-5.0,5.612
24.0,-1.0,5.613
28.0,0.0,5.614
31.0,-2.0,5.615
32.0,-6.0,5.616
27.0,-7.0,5.617
11.0,-4.0,5.618
-6.0,0.0,5.619
-18.0,0.0,5.62
-26.0,-3.0,5.621
-31.0,-4.0,5.622
-32.0,-2.0,5.623
-30.0,1.0,5.624
-29.0,2.0,5.625
-31.0,2.0,5.626
-30.0,1.0,5.627
-21.0,-1.0,5.628
-8.0,-1.0,5.629
0.0,2.0,5.63
7.0,3.0,5.631
19.0,-1.0,5.632
33.0,-3.0,5.633
39.0,0.0,5.634
35.0,6.0,5.635
27.0,12.0,5.636
22.0,22.0,5.637
19.0,33.0,5.638
13.0,38.0,5.639
2.0,34.0,5.64
-9.0,18.0,5.641
-15.0,7.0,5.642
-13.0,1.0,5.643
-10.0,-6.0,5.644
-12.0,-22.0,5.645
-16.0,-43.0,5.646
-17.0,-51.0,5.647
-12.0,-34.0,5.648
-2.0,0.0,5.649
7.0,26.0,5.65
17.0,20.0,5.651
25.0,-5.0,5.652
34.0,-27.0,5.653
41.0,-40.0,5.654
40.0,-52.0,5.655
33.0,-58.0,5.656
25.0,-43.0,5.657
16.0,-17.0,5.658
0.0,-6.0,5.659
-28.0,-19.0,5.66
-59.0,-34.0,5.661
-74.0,-24.0,5.662
-65.0,-2.0,5.663
-45.0,10.0,5.664
-31.0,11.0,5.665
-23.0,11.0,5.666
-11.0,9.0,5.667
9.0,5.0,5.668
32.0,7.0,5.669
49.0,16.0,5.67
54.0,23.0,5.671
53.0,16.0,5.672
50.0,10.0,5.673
47.0,12.0,5.674
44.0,17.0,5.675
38.0,22.0,5.676
30.0,27.0,5.677
18.0,31.0,5.678
7.0,32.0,5.679
-5.0,29.0,5.68
-20.0,25.0,5.681
-31.0,28.0,5.682
-37.0,36.0,5.683
-37.0,48.0,5.684
-37.0,62.0,5.685
-36.0,67.0,5.686
-25.0,64.0,5.687
-9.0,67.0,5.688
0.0,88.0,5.689
3.0,105.0,5.69
10.0,91.0,5.691
24.0,48.0,5.692
37.0,2.0,5.693
41.0,-38.0,5.694
41.0,-92.0,5.695
39.0,-158.0,5.696
29.0,-204.0,5.697
4.0,-208.0,5.698
-20.0,-168.0,5.699
-32.0,-94.0,5.7
-28.0,1.0,5.701
-21.0,102.0,5.702
-16.0,161.0,5.703
-16.0,162.0,5.704
-20.0,129.0,5.705
-24.0,98.0,5.706
-18.0,40.0,5.707
-2.0,-75.0,5.708
6.0,-229.0,5.709
0.0,-365.0,5.71
-4.0,-445.0,5.711
8.0,-449.0,5.712
28.0,-369.0,5.713
35.0,-225.0,5.714
27.0,-83.0,5.715
16.0,6.0,5.716
9.0,47.0,5.717
0.0,74.0,5.718
-6.0,104.0,5.719
-9.0,126.0,5.72
-8.0,137.0,5.721
-10.0,149.0,5.722
-14.0,160.0,5.723
-19.0,156.0,5.724
-25.0,141.0,5.725
-30.0,131.0,5.726
-21.0,127.0,5.727
0.0,122.0,5.728
11.0,113.0,5.729
2.0,104.0,5.73
-2.0,91.0,5.731
12.0,73.0,5.732
34.0,59.0,5.733
41.0,61.0,5.734
38.0,71.0,5.735
34.0,74.0,5.736
30.0,71.0,5.737
13.0,77.0,5.738
-10.0,101.0,5.739
-21.0,124.0,5.74
-15.0,122.0,5.741
-4.0,103.0,5.742
4.0,81.0,5.743
14.0,51.0,5.744
18.0,-7.0,5.745
11.0,-87.0,5.746
0.0,-153.0,5.747
-3.0,-161.0,5.748
7.0,-99.0,5.749
26.0,-6.0,5.75
43.0,54.0,5.751
50.0,48.0,5.752
47.0,-1.0,5.753
37.0,-38.0,5.754
33.0,-44.0,5.755
35.0,-45.0,5.756
37.0,-69.0,5.757
32.0,-116.0,5.758
24.0,-164.0,5.759
9.0,-200.0,5.76
-23.0,-211.0,5.761
-71.0,-169.0,5.762
-105.0,-94.0,5.763
-99.0,-44.0,5.764
-62.0,-47.0,5.765
-24.0,-50.0,5.766
0.0,4.0,5.767
13.0,94.0,5.768
17.0,158.0,5.769
14.0,186.0,5.77
2.0,193.0,5.771
-12.0,152.0,5.772
-19.0,26.0,5.773
-12.0,-148.0,5.774
2.0,-266.0,5.775
4.0,-278.0,5.776
-4.0,-226.0,5.777
-5.0,-157.0,5.778
15.0,-85.0,5.779
27.0,-14.0,5.78
12.0,11.0,5.781
-7.0,-30.0,5.782
-2.0,-104.0,5.783
13.0,-144.0,5.784
4.0,-122.0,5.785
-18.0,-57.0,5.786
-18.0,18.0,5.787
7.0,90.0,5.788
25.0,152.0,5.789
24.0,197.0,5.79
18.0,217.0,5.791
11.0,211.0,5.792
-3.0,189.0,5.793
-17.0,167.0,5.794
-19.0,167.0,5.795
-11.0,195.0,5.796
-6.0,239.0,5.797
-15.0,275.0,5.798
-19.0,279.0,5.799
-12.0,234.0,5.8
-1.0,156.0,5.801
6.0,88.0,5.802
12.0,40.0,5.803
19.0,-12.0,5.804
24.0,-81.0,5.805
30.0,-138.0,5.806
45.0,-163.0,5.807
68.0,-188.0,5.808
87.0,-243.0,5.809
88.0,-299.0,5.81
76.0,-289.0,5.811
62.0,-171.0,5.812
58.0,56.0,5.813
63.0,364.0,5.814
60.0,670.0,5.815
35.0,867.0,5.816
-6.0,907.0,5.817
-50.0,810.0,5.818
-84.0,623.0,5.819
-104.0,368.0,5.82
-107.0,83.0,5.821
-95.0,-181.0,5.822
-73.0,-423.0,5.823
-50.0,-648.0,5.824
-27.0,-813.0,5.825
-4.0,-877.0,5.826
18.0,-881.0,5.827
42.0,-884.0,5.828
78.0,-844.0,5.829
122.0,-717.0,5.83
153.0,-605.0,5.831
162.0,-646.0,5.832
156.0,-767.0,5.833
133.0,-764.0,5.834
89.0,-581.0,5.835
36.0,-327.0,5.836
2.0,-63.0,5.837
-25.0,269.0,5.838
-84.0,590.0,5.839
-177.0,745.0,5.84
-239.0,734.0,5.841
-227.0,713.0,5.842
-180.0,716.0,5.843
-155.0,617.0,5.844
-165.0,364.0,5.845
-180.0,77.0,5.846
-188.0,-113.0,5.847
-183.0,-167.0,5.848
-144.0,-106.0,5.849
-74.0,-18.0,5.85
-15.0,-53.0,5.851
4.0,-270.0,5.852
13.0,-523.0,5.853
43.0,-629.0,5.854
78.0,-565.0,5.855
86.0,-416.0,5.856
73.0,-239.0,5.857
69.0,-18.0,5.858
79.0,209.0,5.859
85.0,415.0,5.86
81.0,626.0,5.861
72.0,837.0,5.862
54.0,949.0,5.863
20.0,890.0,5.864
-10.0,724.0,5.865
-10.0,536.0,5.866
15.0,336.0,5.867
31.0,124.0,5.868
20.0,-22.0,5.869
2.0,-46.0,5.87
11.0,-29.0,5.871
47.0,-105.0,5.872
79.0,-287.0,5.873
79.0,-452.0,5.874
62.0,-486.0,5.875
59.0,-376.0,5.876
73.0,-209.0,5.877
87.0,-66.0,5.878
89.0,-18.0,5.879
82.0,-55.0,5.88
70.0,-104.0,5.881
50.0,-93.0,5.882
36.0,0.0,5.883
44.0,168.0,5.884
55.0,370.0,5.885
30.0,515.0,5.886
-30.0,530.0,5.887
-82.0,442.0,5.888
-88.0,346.0,5.889
-59.0,272.0,5.89
-30.0,152.0,5.891
-19.0,-52.0,5.892
-9.0,-264.0,5.893
16.0,-383.0,5.894
45.0,-387.0,5.895
47.0,-312.0,5.896
16.0,-189.0,5.897
-33.0,-31.0,5.898
-65.0,84.0,5.899
-84.0,108.0,5.9
-61.0,78.0,5.901
-31.0,48.0,5.902
18.0,-49.0,5.903
51.0,-288.0,5.904
36.0,-566.0,5.905
27.0,-661.0,5.906
39.0,-505.0,5.907
48.0,-239.0,5.908
49.0,11.0,5.909
46.0,269.0,5.91
31.0,552.0,5.911
20.0,768.0,5.912
24.0,861.0,5.913
26.0,922.0,5.914
22.0,1019.0,5.915
19.0,1055.0,5.916
23.0,911.0,5.917
22.0,586.0,5.918
11.0,280.0,5.919
-5.0,145.0,5.92
-16.0,86.0,5.921
-23.0,-197.0,5.922
-24.0,-941.0,5.923
-11.0,-1992.0,5.924
15.0,-2801.0,5.925
29.0,-2879.0,5.926
9.0,-2258.0,5.927
-26.0,-1417.0,5.928
-46.0,-778.0,5.929
-46.0,-398.0,5.93
-53.0,-128.0,5.931
-86.0,120.0,5.932
-128.0,358.0,5.933
-142.0,612.0,5.934
-121.0,885.0,5.935
-95.0,1083.0,5.936
-102.0,1107.0,5.937
-134.0,976.0,5.938
-133.0,827.0,5.939
-118.0,726.0,5.94
-63.0,594.0,5.941
-19.0,353.0,5.942
-10.0,51.0,5.943
1.0,-168.0,5.944
18.0,-221.0,5.945
39.0,-132.0,5.946
72.0,7.0,5.947
99.0,90.0,5.948
109.0,35.0,5.949
113.0,-159.0,5.95
99.0,-379.0,5.951
85.0,-461.0,5.952
73.0,-309.0,5.953
59.0,24.0,5.954
44.0,350.0,5.955
32.0,470.0,5.956
33.0,366.0,5.957
33.0,155.0,5.958
29.0,-14.0,5.959
17.0,-125.0,5.96
10.0,-223.0,5.961
7.0,-253.0,5.962
1.0,-138.0,5.963
-10.0,97.0,5.964
-16.0,383.0,5.965
-3.0,689.0,5.966
37.0,977.0,5.967
90.0,1131.0,5.968
133.0,1095.0,5.969
157.0,983.0,5.97
167.0,865.0,5.971
172.0,557.0,5.972
182.0,-153.0,5.973
198.0,-1091.0,5.974
192.0,-1755.0,5.975
137.0,-1810.0,5.976
44.0,-1410.0,5.977
-78.0,-845.0,5.978
-164.0,-353.0,5.979
-223.0,25.0,5.98
-259.0,312.0,5.981
-253.0,499.0,5.982
-209.0,574.0,5.983
-160.0,582.0,5.984
-130.0,541.0,5.985
-101.0,402.0,5.986
-58.0,145.0,5.987
-24.0,-125.0,5.988
-14.0,-285.0,5.989
-2.0,-363.0,5.99
35.0,-477.0,5.991
67.0,-612.0,5.992
42.0,-598.0,5.993
-20.0,-357.0,5.994
-68.0,-22.0,5.995
-69.0,220.0,5.996
-43.0,308.0,5.997
-14.0,274.0,5.998
7.0,189.0,5.999
9.0,161.0,6.0
-14.0,289.0,6.001
-45.0,525.0,6.002
-53.0,630.0,6.003
-33.0,405.0,6.004
-17.0,-61.0,6.005
-32.0,-450.0,6.006
-70.0,-511.0,6.007
-86.0,-294.0,6.008
-37.0,-87.0,6.009
79.0,-168.0,6.01
203.0,-558.0,6.011
249.0,-971.0,6.012
192.0,-1039.0,6.013
106.0,-645.0,6.014
77.0,-38.0,6.015
114.0,387.0,6.016
160.0,433.0,6.017
179.0,130.0,6.018
164.0,-328.0,6.019
104.0,-676.0,6.02
2.0,-665.0,6.021
-107.0,-238.0,6.022
-174.0,349.0,6.023
-190.0,730.0,6.024
-176.0,787.0,6.025
-145.0,706.0,6.026
-110.0,686.0,6.027
-104.0,712.0,6.028
-120.0,662.0,6.029
-94.0,514.0,6.03
-1.0,329.0,6.031
88.0,112.0,6.032
98.0,-206.0,6.033
52.0,-603.0,6.034
29.0,-895.0,6.035
41.0,-884.0,6.036
40.0,-606.0,6.037
7.0,-240.0,6.038
-20.0,-15.0,6.039
-11.0,43.0,6.04
21.0,70.0,6.041
47.0,179.0,6.042
51.0,351.0,6.043
31.0,554.0,6.044
5.0,823.0,6.045
-7.0,1191.0,6.046
-5.0,1598.0,6.047
-2.0,1924.0,6.048
-2.0,2051.0,6.049
3.0,1873.0,6.05
8.0,1286.0,6.051
16.0,272.0,6.052
64.0,-992.0,6.053
169.0,-2135.0,6.054
271.0,-2735.0,6.055
285.0,-2568.0,6.056
228.0,-1834.0,6.057
156.0,-798.0,6.058
96.0,211.0,6.059
15.0,1063.0,6.06
-71.0,1588.0,6.061
-99.0,1407.0,6.062
-68.0,270.0,6.063
-63.0,-1375.0,6.064
-117.0,-2543.0,6.065
-159.0,-2589.0,6.066
-146.0,-1750.0,6.067
-154.0,-689.0,6.068
-245.0,220.0,6.069
-338.0,925.0,6.07
-313.0,1303.0,6.071
-183.0,1176.0,6.072
-69.0,649.0,6.073
-34.0,123.0,6.074
-27.0,-115.0,6.075
-8.0,-115.0,6.076
7.0,-55.0,6.077
-6.0,-47.0,6.078
-17.0,-177.0,6.079
3.0,-501.0,6.08
42.0,-935.0,6.081
74.0,-1285.0,6.082
92.0,-1434.0,6.083
97.0,-1374.0,6.084
90.0,-1096.0,6.085
84.0,-624.0,6.086
90.0,-112.0,6.087
96.0,261.0,6.088
63.0,479.0,6.089
1.0,639.0,6.09
-25.0,770.0,6.091
26.0,836.0,6.092
111.0,861.0,6.093
154.0,892.0,6.094
132.0,904.0,6.095
92.0,859.0,6.096
63.0,800.0,6.097
12.0,769.0,6.098
-79.0,739.0,6.099
-174.0,658.0,6.1
-198.0,550.0,6.101
-141.0,490.0,6.102
-57.0,478.0,6.103
-5.0,460.0,6.104
19.0,416.0,6.105
45.0,356.0,6.106
79.0,288.0,6.107
97.0,208.0,6.108
84.0,113.0,6.109
63.0,-14.0,6.11
56.0,-193.0,6.111
57.0,-364.0,6.112
49.0,-428.0,6.113
33.0,-365.0,6.114
28.0,-266.0,6.115
38.0,-204.0,6.116
55.0,-152.0,6.117
69.0,-40.0,6.118
92.0,179.0,6.119
130.0,540.0,6.12
164.0,1051.0,6.121
148.0,1652.0,6.122
44.0,2212.0,6.123
-106.0,2635.0,6.124
-203.0,2789.0,6.125
-177.0,2347.0,6.126
-79.0,982.0,6.127
-18.0,-1082.0,6.128
-22.0,-2940.0,6.129
-24.0,-3741.0,6.13
20.0,-3480.0,6.131
73.0,-2868.0,6.132
82.0,-2502.0,6.133
58.0,-2412.0,6.134
47.0,-2317.0,6.135
49.0,-2033.0,6.136
38.0,-1627.0,6.137
-15.0,-1228.0,6.138
-94.0,-996.0,6.139
-172.0,-886.0,6.14
-222.0,-666.0,6.141
-244.0,-216.0,6.142
-251.0,296.0,6.143
-256.0,658.0,6.144
-251.0,897.0,6.145
-222.0,1186.0,6.146
-164.0,1589.0,6.147
-97.0,2024.0,6.148
-45.0,2351.0,6.149
-15.0,2340.0,6.15
9.0,1726.0,6.151
46.0,524.0,6.152
93.0,-766.0,6.153
131.0,-1485.0,6.154
160.0,-1403.0,6.155
187.0,-890.0,6.156
212.0,-505.0,6.157
227.0,-424.0,6.158
210.0,-457.0,6.159
149.0,-327.0,6.16
80.0,-7.0,6.161
60.0,308.0,6.162
104.0,473.0,6.163
149.0,522.0,6.164
132.0,550.0,6.165
84.0,590.0,6.166
76.0,641.0,6.167
97.0,703.0,6.168
74.0,751.0,6.169
-10.0,740.0,6.17
-86.0,671.0,6.171
-103.0,603.0,6.172
-84.0,560.0,6.173
-62.0,509.0,6.174
-39.0,421.0,6.175
-10.0,315.0,6.176
-1.0,216.0,6.177
-31.0,119.0,6.178
-90.0,51.0,6.179
-148.0,25.0,6.18
-169.0,-11.0,6.181
-136.0,-89.0,6.182
-74.0,-174.0,6.183
-39.0,-214.0,6.184
-58.0,-229.0,6.185
-94.0,-239.0,6.186
-84.0,-172.0,6.187
-17.0,46.0,6.188
66.0,375.0,6.189
125.0,711.0,6.19
153.0,982.0,6.191
166.0,1067.0,6.192
180.0,801.0,6.193
192.0,210.0,6.194
174.0,-379.0,6.195
107.0,-660.0,6.196
21.0,-675.0,6.197
-59.0,-651.0,6.198
-131.0,-630.0,6.199
-205.0,-445.0,6.2
-257.0,-58.0,6.201
-239.0,204.0,6.202
-160.0,-106.0,6.203
-94.0,-1002.0,6.204
-68.0,-1860.0,6.205
-32.0,-1958.0,6.206
48.0,-1311.0,6.207
117.0,-714.0,6.208
124.0,-801.0,6.209
114.0,-1258.0,6.21
143.0,-1289.0,6.211
171.0,-680.0,6.212
137.0,9.0,6.213
74.0,303.0,6.214
51.0,383.0,6.215
50.0,628.0,6.216
23.0,944.0,6.217
-15.0,963.0,6.218
-11.0,566.0,6.219
21.0,94.0,6.22
34.0,-118.0,6.221
43.0,-125.0,6.222
84.0,-166.0,6.223
107.0,-272.0,6.224
58.0,-250.0,6.225
-25.0,55.0,6.226
-68.0,583.0,6.227
-100.0,1072.0,6.228
-171.0,1216.0,6.229
-235.0,951.0,6.23
-200.0,580.0,6.231
-90.0,464.0,6.232
-3.0,534.0,6.233
28.0,326.0,6.234
32.0,-390.0,6.235
19.0,-1241.0,6.236
-13.0,-1648.0,6.237
-41.0,-1445.0,6.238
-40.0,-874.0,6.239
-32.0,-298.0,6.24
-30.0,94.0,6.241
-5.0,307.0,6.242
58.0,405.0,6.243
114.0,453.0,6.244
120.0,488.0,6.245
86.0,521.0,6.246
32.0,546.0,6.247
-48.0,546.0,6.248
-132.0,511.0,6.249
-162.0,463.0,6.25
-115.0,448.0,6.251
-34.0,468.0,6.252
18.0,473.0,6.253
19.0,442.0,6.254
-25.0,419.0,6.255
-84.0,446.0,6.256
-116.0,510.0,6.257
-102.0,572.0,6.258
-62.0,599.0,6.259
-23.0,576.0,6.26
38.0,498.0,6.261
140.0,399.0,6.262
238.0,317.0,6.263
261.0,260.0,6.264
219.0,179.0,6.265
172.0,41.0,6.266
137.0,-122.0,6.267
86.0,-228.0,6.268
29.0,-207.0,6.269
2.0,-30.0,6.27
8.0,249.0,6.271
14.0,371.0,6.272
25.0,-21.0,6.273
68.0,-940.0,6.274
119.0,-1765.0,6.275
124.0,-1687.0,6.276
85.0,-676.0,6.277
26.0,598.0,6.278
-39.0,1011.0,6.279
-107.0,41.0,6.28
-139.0,-1793.0,6.281
-116.0,-3391.0,6.282
-93.0,-3889.0,6.283
-114.0,-3204.0,6.284
-133.0,-1954.0,6.285
-91.0,-862.0,6.286
-25.0,-218.0,6.287
-14.0,174.0,6.288
-51.0,603.0,6.289
-73.0,1100.0,6.29
-80.0,1459.0,6.291
-103.0,1513.0,6.292
-112.0,1334.0,6.293
-53.0,1146.0,6.294
52.0,1073.0,6.295
119.0,1017.0,6.296
128.0,832.0,6.297
130.0,444.0,6.298
154.0,-5.0,6.299
166.0,-308.0,6.3
147.0,-343.0,6.301
119.0,-152.0,6.302
85.0,104.0,6.303
-3.0,317.0,6.304
-157.0,493.0,6.305
-295.0,679.0,6.306
-320.0,873.0,6.307
-234.0,1045.0,6.308
-129.0,1173.0,6.309
-73.0,1227.0,6.31
-47.0,1185.0,6.311
3.0,1056.0,6.312
91.0,858.0,6.313
180.0,517.0,6.314
234.0,-81.0,6.315
253.0,-924.0,6.316
248.0,-1734.0,6.317
199.0,-2266.0,6.318
88.0,-2249.0,6.319
-61.0,-1705.0,6.32
-180.0,-973.0,6.321
-226.0,-385.0,6.322
-203.0,58.0,6.323
-149.0,586.0,6.324
-92.0,1248.0,6.325
-49.0,1800.0,6.326
-37.0,2060.0,6.327
-53.0,2088.0,6.328
-72.0,1909.0,6.329
-64.0,1288.0,6.33
-13.0,67.0,6.331
62.0,-1421.0,6.332
135.0,-2501.0,6.333
179.0,-2722.0,6.334
192.0,-2201.0,6.335
187.0,-1454.0,6.336
175.0,-980.0,6.337
152.0,-869.0,6.338
121.0,-887.0,6.339
92.0,-736.0,6.34
56.0,-420.0,6.341
4.0,-187.0,6.342
-39.0,-146.0,6.343
-30.0,-106.0,6.344
27.0,155.0,6.345
62.0,652.0,6.346
10.0,1233.0,6.347
-114.0,1687.0,6.348
-241.0,1837.0,6.349
-300.0,1697.0,6.35
-265.0,1481.0,6.351
-155.0,1323.0,6.352
-34.0,1028.0,6.353
34.0,326.0,6.354
45.0,-674.0,6.355
32.0,-1474.0,6.356
12.0,-1657.0,6.357
-40.0,-1178.0,6.358
-115.0,-391.0,6.359
-150.0,119.0,6.36
-99.0,-136.0,6.361
-7.0,-1114.0,6.362
45.0,-2149.0,6.363
33.0,-2414.0,6.364
24.0,-1653.0,6.365
80.0,-415.0,6.366
180.0,482.0,6.367
260.0,708.0,6.368
286.0,575.0,6.369
279.0,523.0,6.37
241.0,656.0,6.371
162.0,831.0,6.372
57.0,990.0,6.373
-46.0,1226.0,6.374
-128.0,1552.0,6.375
-190.0,1813.0,6.376
-207.0,1870.0,6.377
-147.0,1729.0,6.378
-36.0,1502.0,6.379
37.0,1199.0,6.38
23.0,676.0,6.381
-36.0,-128.0,6.382
-74.0,-967.0,6.383
-78.0,-1371.0,6.384
-69.0,-1078.0,6.385
-47.0,-361.0,6.386
2.0,104.0,6.387
72.0,-251.0,6.388
134.0,-1385.0,6.389
167.0,-2538.0,6.39
155.0,-2792.0,6.391
91.0,-1896.0,6.392
-3.0,-558.0,6.393
-85.0,257.0,6.394
-111.0,287.0,6.395
-77.0,71.0,6.396
-22.0,146.0,6.397
-11.0,517.0,6.398
-80.0,819.0,6.399
-184.0,855.0,6.4
-224.0,763.0,6.401
-165.0,749.0,6.402
-64.0,869.0,6.403
3.0,1064.0,6.404
20.0,1239.0,6.405
19.0,1296.0,6.406
32.0,1191.0,6.407
68.0,936.0,6.408
108.0,576.0,6.409
133.0,197.0,6.41
140.0,-54.0,6.411
150.0,-151.0,6.412
178.0,-354.0,6.413
205.0,-1001.0,6.414
211.0,-2067.0,6.415
198.0,-3058.0,6.416
174.0,-3451.0,6.417
118.0,-3107.0,6.418
32.0,-2227.0,6.419
-45.0,-1206.0,6.42
-80.0,-403.0,6.421
-111.0,75.0,6.422
-206.0,408.0,6.423
-354.0,824.0,6.424
-458.0,1285.0,6.425
-429.0,1556.0,6.426
-284.0,1559.0,6.427
-124.0,1491.0,6.428
-31.0,1563.0,6.429
-9.0,1759.0,6.43
-8.0,1948.0,6.431
7.0,2095.0,6.432
31.0,2246.0,6.433
59.0,2279.0,6.434
101.0,1752.0,6.435
153.0,213.0,6.436
187.0,-1980.0,6.437
178.0,-3819.0,6.438
138.0,-4000.0,6.439
92.0,-3422.0,6.44
71.0,-1669.0,6.441
101.0,-583.0,6.442
171.0,-358.0,6.443
239.0,-346.0,6.444
263.0,-93.0,6.445
243.0,285.0,6.446
190.0,548.0,6.447
92.0,658.0,6.448
-52.0,707.0,6.449
-217.0,775.0,6.45
-355.0,896.0,6.451
-428.0,1019.0,6.452
-406.0,1071.0,6.453
-289.0,1078.0,6.454
-128.0,1146.0,6.455
0.0,1262.0,6.456
68.0,1299.0,6.457
98.0,1201.0,6.458
101.0,1068.0,6.459
78.0,995.0,6.46
53.0,964.0,6.461
57.0,907.0,6.462
79.0,691.0,6.463
71.0,123.0,6.464
37.0,-794.0,6.465
31.0,-1637.0,6.466
78.0,-1901.0,6.467
125.0,-1602.0,6.468
121.0,-1272.0,6.469
83.0,-1269.0,6.47
57.0,-1393.0,6.471
51.0,-1274.0,6.472
26.0,-836.0,6.473
-48.0,-203.0,6.474
-147.0,526.0,6.475
-198.0,1221.0,6.476
-149.0,1624.0,6.477
-26.0,1603.0,6.478
65.0,1275.0,6.479
49.0,847.0,6.48
-7.0,307.0,6.481
-2.0,-479.0,6.482
54.0,-1336.0,6.483
55.0,-1669.0,6.484
-20.0,-1046.0,6.485
-82.0,173.0,6.486
-75.0,995.0,6.487
-41.0,725.0,6.488
-20.0,-380.0,6.489
8.0,-1498.0,6.49
53.0,-2103.0,6.491
74.0,-2226.0,6.492
56.0,-2045.0,6.493
38.0,-1595.0,6.494
45.0,-953.0,6.495
54.0,-346.0,6.496
48.0,41.0,6.497
12.0,281.0,6.498
-66.0,465.0,6.499
-184.0,611.0,6.5
-263.0,728.0,6.501
-235.0,877.0,6.502
-154.0,1040.0,6.503
-132.0,1083.0,6.504
-154.0,943.0,6.505
-102.0,781.0,6.506
50.0,802.0,6.507
178.0,1010.0,6.508
198.0,1227.0,6.509
177.0,1321.0,6.51
184.0,1342.0,6.511
183.0,1423.0,6.512
124.0,1560.0,6.513
56.0,1509.0,6.514
41.0,1009.0,6.515
61.0,223.0,6.516
72.0,-249.0,6.517
76.0,-98.0,6.518
97.0,187.0,6.519
112.0,-345.0,6.52
94.0,-1905.0,6.521
53.0,-3496.0,6.522
4.0,-3961.0,6.523
-60.0,-3267.0,6.524
-121.0,-2188.0,6.525
-143.0,-1363.0,6.526
-141.0,-725.0,6.527
-156.0,-4.0,6.528
-172.0,743.0,6.529
-131.0,1289.0,6.53
-49.0,1565.0,6.531
-5.0,1632.0,6.532
0.0,1472.0,6.533
41.0,1068.0,6.534
120.0,580.0,6.535
158.0,218.0,6.536
136.0,-19.0,6.537
118.0,-323.0,6.538
134.0,-648.0,6.539
123.0,-731.0,6.54
73.0,-452.0,6.541
51.0,2.0,6.542
76.0,399.0,6.543
63.0,649.0,6.544
-31.0,702.0,6.545
-121.0,542.0,6.546
-115.0,388.0,6.547
-41.0,552.0,6.548
9.0,889.0,6.549
-12.0,768.0,6.55
-84.0,-151.0,6.551
-150.0,-1331.0,6.552
-170.0,-1837.0,6.553
-157.0,-1298.0,6.554
-161.0,-197.0,6.555
-170.0,698.0,6.556
-137.0,1038.0,6.557
-57.0,1033.0,6.558
-6.0,1043.0,6.559
-32.0,1167.0,6.56
-65.0,1162.0,6.561
-34.0,798.0,6.562
35.0,169.0,6.563
84.0,-373.0,6.564
97.0,-593.0,6.565
88.0,-655.0,6.566
78.0,-1019.0,6.567
89.0,-1910.0,6.568
121.0,-2849.0,6.569
132.0,-2939.0,6.57
96.0,-1854.0,6.571
64.0,-354.0,6.572
86.0,518.0,6.573
133.0,578.0,6.574
160.0,466.0,6.575
174.0,584.0,6.576
185.0,662.0,6.577
136.0,378.0,6.578
6.0,-48.0,6.579
-132.0,-167.0,6.58
-209.0,104.0,6.581
-259.0,484.0,6.582
-327.0,735.0,6.583
-355.0,849.0,6.584
-271.0,929.0,6.585
-120.0,1080.0,6.586
2.0,1320.0,6.587
76.0,1518.0,6.588
151.0,1496.0,6.589
235.0,1210.0,6.59
308.0,784.0,6.591
365.0,400.0,6.592
388.0,201.0,6.593
341.0,136.0,6.594
229.0,-134.0,6.595
132.0,-978.0,6.596
81.0,-2188.0,6.597
-1.0,-3229.0,6.598
-155.0,-3370.0,6.599
-294.0,-2485.0,6.6
-324.0,-1169.0,6.601
-288.0,-183.0,6.602
-282.0,139.0,6.603
-277.0,102.0,6.604
-200.0,277.0,6.605
-106.0,875.0,6.606
-116.0,1585.0,6.607
-200.0,2043.0,6.608
-199.0,2199.0,6.609
-63.0,2105.0,6.61
81.0,1663.0,6.611
133.0,836.0,6.612
137.0,-145.0,6.613
164.0,-1045.0,6.614
187.0,-1865.0,6.615
169.0,-2519.0,6.616
126.0,-2620.0,6.617
69.0,-1852.0,6.618
-4.0,-608.0,6.619
-64.0,271.0,6.62
-40.0,413.0,6.621
67.0,265.0,6.622
152.0,412.0,6.623
118.0,886.0,6.624
10.0,1292.0,6.625
-57.0,1363.0,6.626
-55.0,1213.0,6.627
-43.0,1109.0,6.628
-54.0,1103.0,6.629
-42.0,930.0,6.63
30.0,335.0,6.631
116.0,-517.0,6.632
130.0,-1126.0,6.633
64.0,-1186.0,6.634
-2.0,-854.0,6.635
-5.0,-458.0,6.636
28.0,-160.0,6.637
52.0,26.0,6.638
62.0,1.0,6.639
59.0,-261.0,6.64
19.0,-547.0,6.641
-67.0,-564.0,6.642
-122.0,-264.0,6.643
-70.0,116.0,6.644
43.0,269.0,6.645
105.0,80.0,6.646
91.0,-266.0,6.647
60.0,-426.0,6.648
30.0,-185.0,6.649
-50.0,327.0,6.65
-178.0,754.0,6.651
-272.0,801.0,6.652
-284.0,420.0,6.653
-238.0,-150.0,6.654
-145.0,-540.0,6.655
-7.0,-523.0,6.656
107.0,-237.0,6.657
113.0,58.0,6.658
40.0,212.0,6.659
17.0,333.0,6.66
74.0,564.0,6.661
90.0,827.0,6.662
16.0,845.0,6.663
-22.0,494.0,6.664
60.0,96.0,6.665
160.0,209.0,6.666
157.0,929.0,6.667
90.0,1508.0,6.668
67.0,995.0,6.669
87.0,-630.0,6.67
77.0,-2263.0,6.671
29.0,-2770.0,6.672
-9.0,-2077.0,6.673
-19.0,-1041.0,6.674
-28.0,-479.0,6.675
-56.0,-528.0,6.676
-75.0,-756.0,6.677
-61.0,-717.0,6.678
-20.0,-288.0,6.679
-4.0,229.0,6.68
-46.0,465.0,6.681
-108.0,483.0,6.682
-109.0,686.0,6.683
-43.0,1221.0,6.684
8.0,1691.0,6.685
11.0,1633.0,6.686
20.0,1126.0,6.687
57.0,650.0,6.688
61.0,440.0,6.689
2.0,205.0,6.69
-27.0,-405.0,6.691
52.0,-1243.0,6.692
155.0,-1767.0,6.693
143.0,-1632.0,6.694
11.0,-1009.0,6.695
-117.0,-285.0,6.696
-160.0,317.0,6.697
-138.0,854.0,6.698
-93.0,1298.0,6.699
-37.0,1585.0,6.7
51.0,1401.0,6.701
131.0,1069.0,6.702
189.0,296.0,6.703
221.0,-500.0,6.704
169.0,-1366.0,6.705
107.0,-2019.0,6.706
17.0,-2028.0,6.707
-78.0,-1763.0,6.708
-192.0,-673.0,6.709
-279.0,308.0,6.71
-280.0,964.0,6.711
-263.0,1508.0,6.712
-193.0,1714.0,6.713
-117.0,1655.0,6.714
-19.0,795.0,6.715
63.0,-93.0,6.716
99.0,-1065.0,6.717
117.0,-1818.0,6.718
66.0,-1569.0,6.719
18.0,-937.0,6.72
6.0,-358.0,6.721
28.0,-50.0,6.722
49.0,37.0,6.723
50.0,107.0,6.724
51.0,284.0,6.725
70.0,488.0,6.726
73.0,564.0,6.727
36.0,432.0,6.728
2.0,72.0,6.729
27.0,-443.0,6.73
92.0,-861.0,6.731
125.0,-885.0,6.732
100.0,-516.0,6.733
49.0,-77.0,6.734
18.0,189.0,6.735
38.0,367.0,6.736
101.0,604.0,6.737
157.0,906.0,6.738
123.0,1176.0,6.739
6.0,1439.0,6.74
-77.0,1755.0,6.741
-73.0,2002.0,6.742
-63.0,1938.0,6.743
-134.0,1523.0,6.744
-211.0,980.0,6.745
-148.0,506.0,6.746
47.0,-32.0,6.747
202.0,-929.0,6.748
199.0,-2127.0,6.749
89.0,-3007.0,6.75
-8.0,-2958.0,6.751
-55.0,-2167.0,6.752
-80.0,-1527.0,6.753
-104.0,-1561.0,6.754
-126.0,-1744.0,6.755
-154.0,-1251.0,6.756
-169.0,-200.0,6.757
-123.0,724.0,6.758
-22.0,993.0,6.759
39.0,929.0,6.76
-7.0,1097.0,6.761
-86.0,1517.0,6.762
-72.0,1801.0,6.763
27.0,1684.0,6.764
105.0,1187.0,6.765
127.0,514.0,6.766
152.0,3.0,6.767
193.0,-53.0,6.768
185.0,272.0,6.769
111.0,573.0,6.77
33.0,487.0,6.771
-16.0,-88.0,6.772
-59.0,-1084.0,6.773
-84.0,-2181.0,6.774
-55.0,-2712.0,6.775
1.0,-2141.0,6.776
8.0,-879.0,6.777
-41.0,247.0,6.778
-67.0,558.0,6.779
-44.0,348.0,6.78
-43.0,277.0,6.781
-114.0,473.0,6.782
-194.0,665.0,6.783
-205.0,881.0,6.784
-139.0,1377.0,6.785
-45.0,2062.0,6.786
19.0,2539.0,6.787
33.0,2669.0,6.788
36.0,2500.0,6.789
89.0,1676.0,6.79
175.0,-296.0,6.791
198.0,-2923.0,6.792
104.0,-4000.0,6.793
-25.0,-4000.0,6.794
-89.0,-2579.0,6.795
-73.0,-1031.0,6.796
-28.0,-306.0,6.797
34.0,68.0,6.798
115.0,543.0,6.799
186.0,1083.0,6.8
203.0,1457.0,6.801
164.0,1565.0,6.802
116.0,1368.0,6.803
95.0,980.0,6.804
85.0,720.0,6.805
58.0,723.0,6.806
27.0,641.0,6.807
17.0,186.0,6.808
13.0,-302.0,6.809
-20.0,-345.0,6.81
-75.0,-125.0,6.811
-99.0,-201.0,6.812
-60.0,-541.0,6.813
-11.0,-485.0,6.814
-33.0,284.0,6.815
-141.0,1321.0,6.816
-250.0,2004.0,6.817
-277.0,1997.0,6.818
-201.0,1277.0,6.819
-91.0,293.0,6.82
-4.0,-1476.0,6.821
90.0,-2855.0,6.822
219.0,-3060.0,6.823
304.0,-2960.0,6.824
241.0,-1943.0,6.825
67.0,-1096.0,6.826
-62.0,-761.0,6.827
-93.0,-314.0,6.828
-117.0,467.0,6.829
-195.0,1066.0,6.83
-251.0,1117.0,6.831
-216.0,1103.0,6.832
-161.0,893.0,6.833
-168.0,618.0,6.834
-175.0,146.0,6.835
-77.0,-303.0,6.836
85.0,-681.0,6.837
210.0,-821.0,6.838
255.0,-53.0,6.839
261.0,541.0,6.84
256.0,508.0,6.841
213.0,177.0,6.842
131.0,80.0,6.843
31.0,310.0,6.844
-75.0,572.0,6.845
-166.0,677.0,6.846
-181.0,735.0,6.847
-95.0,909.0,6.848
12.0,1054.0,6.849
63.0,779.0,6.85
89.0,-62.0,6.851
170.0,-992.0,6.852
282.0,-1252.0,6.853
313.0,-631.0,6.854
229.0,283.0,6.855
132.0,792.0,6.856
100.0,773.0,6.857
67.0,403.0,6.858
-60.0,-233.0,6.859
-249.0,-1013.0,6.86
-355.0,-1365.0,6.861
-328.0,-702.0,6.862
-252.0,606.0,6.863
-197.0,1322.0,6.864
-123.0,716.0,6.865
5.0,-574.0,6.866
122.0,-1381.0,6.867
149.0,-1370.0,6.868
104.0,-1146.0,6.869
54.0,-1201.0,6.87
20.0,-1275.0,6.871
-8.0,-843.0,6.872
-16.0,65.0,6.873
-4.0,817.0,6.874
-18.0,919.0,6.875
-79.0,585.0,6.876
-126.0,408.0,6.877
-109.0,610.0,6.878
-39.0,839.0,6.879
22.0,650.0,6.88
66.0,98.0,6.881
112.0,-314.0,6.882
148.0,-249.0,6.883
148.0,145.0,6.884
118.0,467.0,6.885
83.0,488.0,6.886
30.0,292.0,6.887
-70.0,108.0,6.888
-184.0,95.0,6.889
-216.0,321.0,6.89
-128.0,774.0,6.891
3.0,1253.0,6.892
60.0,1299.0,6.893
21.0,543.0,6.894
-41.0,-753.0,6.895
-66.0,-1735.0,6.896
-70.0,-1800.0,6.897
-83.0,-1151.0,6.898
-81.0,-543.0,6.899
-42.0,-371.0,6.9
15.0,-329.0,6.901
71.0,-10.0,6.902
132.0,482.0,6.903
178.0,756.0,6.904
145.0,639.0,6.905
30.0,237.0,6.906
-64.0,-304.0,6.907
-65.0,-844.0,6.908
-23.0,-1123.0,6.909
-7.0,-926.0,6.91
16.0,-350.0,6.911
108.0,232.0,6.912
214.0,562.0,6.913
224.0,733.0,6.914
135.0,1011.0,6.915
36.0,1471.0,6.916
-19.0,1904.0,6.917
-63.0,2118.0,6.918
-112.0,2026.0,6.919
-141.0,1615.0,6.92
-119.0,743.0,6.921
-48.0,-726.0,6.922
36.0,-2445.0,6.923
81.0,-3473.0,6.924
55.0,-3083.0,6.925
2.0,-1674.0,6.926
4.0,-487.0,6.927
74.0,-296.0,6.928
135.0,-686.0,6.929
128.0,-804.0,6.93
85.0,-430.0,6.931
62.0,29.0,6.932
49.0,301.0,6.933
-3.0,461.0,6.934
-99.0,528.0,6.935
-178.0,376.0,6.936
-185.0,147.0,6.937
-143.0,189.0,6.938
-126.0,607.0,6.939
-156.0,1053.0,6.94
-166.0,1286.0,6.941
-102.0,1563.0,6.942
-15.0,2023.0,6.943
12.0,2092.0,6.944
-3.0,1074.0,6.945
4.0,-756.0,6.946
21.0,-2196.0,6.947
-7.0,-2392.0,6.948
-55.0,-1698.0,6.949
-41.0,-1065.0,6.95
43.0,-915.0,6.951
123.0,-924.0,6.952
151.0,-714.0,6.953
139.0,-373.0,6.954
110.0,-219.0,6.955
80.0,-303.0,6.956
72.0,-366.0,6.957
73.0,-213.0,6.958
29.0,76.0,6.959
-81.0,297.0,6.96
-163.0,403.0,6.961
-119.0,528.0,6.962
-8.0,726.0,6.963
23.0,899.0,6.964
-52.0,989.0,6.965
-111.0,1074.0,6.966
-81.0,1200.0,6.967
-38.0,1241.0,6.968
-42.0,1036.0,6.969
-40.0,584.0,6.97
25.0,6.0,6.971
104.0,-572.0,6.972
130.0,-991.0,6.973
124.0,-1044.0,6.974
140.0,-634.0,6.975
156.0,80.0,6.976
136.0,742.0,6.977
80.0,1191.0,6.978
25.0,1388.0,6.979
-24.0,1455.0,6.98
-58.0,1491.0,6.981
-31.0,1403.0,6.982
66.0,942.0,6.983
162.0,47.0,6.984
186.0,-915.0,6.985
145.0,-1425.0,6.986
83.0,-1341.0,6.987
11.0,-971.0,6.988
-70.0,-593.0,6.989
-139.0,-198.0,6.99
-174.0,129.0,6.991
-171.0,-96.0,6.992
-118.0,-1221.0,6.993
-23.0,-2672.0,6.994
32.0,-3252.0,6.995
-39.0,-2437.0,6.996
-173.0,-1096.0,6.997
-239.0,-219.0,6.998
-172.0,-127.0,6.999
-89.0,-219.0,7.0
-100.0,17.0,7.001
-144.0,343.0,7.002
-103.0,275.0,7.003
7.0,-205.0,7.004
89.0,-705.0,7.005
119.0,-890.0,7.006
134.0,-677.0,7.007
120.0,-145.0,7.008
37.0,498.0,7.009
-67.0,964.0,7.01
-80.0,1106.0,7.011
21.0,1068.0,7.012
135.0,1078.0,7.013
167.0,1170.0,7.014
128.0,1232.0,7.015
88.0,1225.0,7.016
72.0,1206.0,7.017
65.0,1167.0,7.018
61.0,1056.0,7.019
70.0,864.0,7.02
98.0,619.0,7.021
115.0,294.0,7.022
100.0,-111.0,7.023
53.0,-428.0,7.024
-13.0,-451.0,7.025
-86.0,-222.0,7.026
-153.0,-7.0,7.027
-181.0,18.0,7.028
-159.0,-81.0,7.029
-111.0,-183.0,7.03
-65.0,-262.0,7.031
-24.0,-331.0,7.032
21.0,-336.0,7.033
54.0,-222.0,7.034
53.0,-7.0,7.035
30.0,228.0,7.036
13.0,416.0,7.037
0.0,556.0,7.038
-23.0,615.0,7.039
-47.0,499.0,7.04
-45.0,138.0,7.041
-21.0,-333.0,7.042
-6.0,-584.0,7.043
-5.0,-396.0,7.044
14.0,23.0,7.045
61.0,224.0,7.046
100.0,7.0,7.047
101.0,-429.0,7.048
73.0,-827.0,7.049
37.0,-1106.0,7.05
6.0,-1178.0,7.051
-11.0,-840.0,7.052
0.0,-49.0,7.053
27.0,893.0,7.054
37.0,1674.0,7.055
21.0,2239.0,7.056
22.0,2497.0,7.057
73.0,2023.0,7.058
153.0,526.0,7.059
181.0,-1416.0,7.06
122.0,-2622.0,7.061
14.0,-2588.0,7.062
-71.0,-2047.0,7.063
-118.0,-1937.0,7.064
-155.0,-2215.0,7.065
-190.0,-2109.0,7.066
-183.0,-1280.0,7.067
-125.0,-226.0,7.068
-66.0,444.0,7.069
-63.0,713.0,7.07
-98.0,981.0,7.071
-111.0,1460.0,7.072
-81.0,1936.0,7.073
-37.0,2077.0,7.074
3.0,1807.0,7.075
47.0,1250.0,7.076
77.0,484.0,7.077
55.0,-695.0,7.078
-27.0,-2057.0,7.079
-106.0,-2907.0,7.08
-103.0,-2644.0,7.081
-28.0,-1472.0,7.082
49.0,-252.0,7.083
87.0,349.0,7.084
115.0,352.0,7.085
142.0,176.0,7.086
118.0,151.0,7.087
27.0,353.0,7.088
-46.0,671.0,7.089
-21.0,934.0,7.09
51.0,1031.0,7.091
64.0,1006.0,7.092
14.0,972.0,7.093
0.0,973.0,7.094
47.0,975.0,7.095
87.0,958.0,7.096
75.0,936.0,7.097
45.0,899.0,7.098
33.0,806.0,7.099
22.0,577.0,7.1
-2.0,142.0,7.101
-10.0,-451.0,7.102
9.0,-959.0,7.103
9.0,-1083.0,7.104
-29.0,-782.0,7.105
-60.0,-363.0,7.106
-49.0,-160.0,7.107
-26.0,-190.0,7.108
-19.0,-223.0,7.109
-13.0,-120.0,7.11
7.0,34.0,7.111
24.0,120.0,7.112
20.0,142.0,7.113
12.0,161.0,7.114
18.0,166.0,7.115
25.0,95.0,7.116
25.0,-31.0,7.117
21.0,-122.0,7.118
21.0,-77.0,7.119
11.0,67.0,7.12
-10.0,138.0,7.121
-23.0,12.0,7.122
-20.0,-245.0,7.123
-19.0,-412.0,7.124
-26.0,-329.0,7.125
-28.0,-59.0,7.126
-15.0,193.0,7.127
-1.0,282.0,7.128
2.0,218.0,7.129
5.0,90.0,7.13
17.0,-40.0,7.131
29.0,-161.0,7.132
30.0,-273.0,7.133
24.0,-359.0,7.134
18.0,-388.0,7.135
13.0,-338.0,7.136
5.0,-232.0,7.137
-9.0,-107.0,7.138
-22.0,-18.0,7.139
-30.0,18.0,7.14
-33.0,22.0,7.141
-29.0,27.0,7.142
-21.0,38.0,7.143
-12.0,47.0,7.144
-4.0,50.0,7.145
0.0,56.0,7.146
0.0,71.0,7.147
-3.0,90.0,7.148
-2.0,114.0,7.149
10.0,153.0,7.15
30.0,215.0,7.151
46.0,283.0,7.152
50.0,322.0,7.153
47.0,302.0,7.154
41.0,209.0,7.155
36.0,29.0,7.156
27.0,-216.0,7.157
11.0,-488.0,7.158
-4.0,-636.0,7.159
-20.0,-563.0,7.16
-34.0,-350.0,7.161
-51.0,-157.0,7.162
-60.0,-56.0,7.163
-62.0,10.0,7.164
-63.0,83.0,7.165
-62.0,124.0,7.166
-53.0,113.0,7.167
-30.0,99.0,7.168
0.0,108.0,7.169
22.0,105.0,7.17
34.0,73.0,7.171
40.0,48.0,7.172
51.0,52.0,7.173
57.0,58.0,7.174
52.0,46.0,7.175
40.0,38.0,7.176
29.0,51.0,7.177
19.0,57.0,7.178
7.0,42.0,7.179
-7.0,25.0,7.18
-14.0,23.0,7.181
-13.0,31.0,7.182
-9.0,34.0,7.183
-8.0,40.0,7.184
-8.0,53.0,7.185
-5.0,64.0,7.186
0.0,61.0,7.187
9.0,48.0,7.188
17.0,28.0,7.189
24.0,-14.0,7.19
29.0,-82.0,7.191
31.0,-141.0,7.192
33.0,-149.0,7.193
34.0,-106.0,7.194
30.0,-53.0,7.195
19.0,-25.0,7.196
3.0,-21.0,7.197
-18.0,-26.0,7.198
-37.0,-25.0,7.199
-48.0,-11.0,7.2
-51.0,5.0,7.201
-47.0,16.0,7.202
-39.0,17.0,7.203
-27.0,18.0,7.204
-22.0,26.0,7.205
-19.0,31.0,7.206
-12.0,27.0,7.207
4.0,22.0,7.208
22.0,23.0,7.209
31.0,23.0,7.21
33.0,19.0,7.211
40.0,20.0,7.212
49.0,29.0,7.213
51.0,33.0,7.214
43.0,15.0,7.215
32.0,-16.0,7.216
23.0,-39.0,7.217
14.0,-47.0,7.218
1.0,-33.0,7.219
-13.0,-9.0,7.22
-24.0,2.0,7.221
-29.0,1.0,7.222
-27.0,-3.0,7.223
-23.0,1.0,7.224
-22.0,11.0,7.225
-19.0,13.0,7.226
-9.0,4.0,7.227
0.0,-3.0,7.228
5.0,1.0,7.229
9.0,5.0,7.23
19.0,0.0,7.231
29.0,-5.0,7.232
31.0,-3.0,7.233
26.0,0.0,7.234
23.0,-1.0,7.235
17.0,-3.0,7.236
10.0,0.0,7.237
0.0,3.0,7.238
-6.0,0.0,7.239
-18.0,-4.0,7.24
-35.0,-6.0,7.241
-49.0,-1.0,7.242
-46.0,1.0,7.243
-30.0,-4.0,7.244
-16.0,-8.0,7.245
-7.0,-5.0,7.246
5.0,2.0,7.247
20.0,13.0,7.248
33.0,29.0,7.249
37.0,38.0,7.25
38.0,32.0,7.251
38.0,14.0,7.252
37.0,2.0,7.253
38.0,0.0,7.254
39.0,-4.0,7.255
31.0,-9.0,7.256
12.0,-10.0,7.257
-14.0,-4.0,7.258
-29.0,2.0,7.259
-35.0,3.0,7.26
-34.0,3.0,7.261
-31.0,27.0,7.262
-31.0,102.0,7.263
-30.0,247.0,7.264
-25.0,417.0,7.265
-14.0,501.0,7.266
2.0,408.0,7.267
15.0,161.0,7.268
21.0,-132.0,7.269
25.0,-404.0,7.27
29.0,-639.0,7.271
30.0,-789.0,7.272
28.0,-764.0,7.273
24.0,-559.0,7.274
17.0,-295.0,7.275
4.0,-98.0,7.276
-11.0,6.0,7.277
-23.0,67.0,7.278
-24.0,106.0,7.279
-26.0,123.0,7.28
-32.0,134.0,7.281
-39.0,154.0,7.282
-47.0,161.0,7.283
-51.0,141.0,7.284
-44.0,122.0,7.285
-32.0,124.0,7.286
-7.0,127.0,7.287
13.0,111.0,7.288
19.0,92.0,7.289
26.0,81.0,7.29
33.0,73.0,7.291
40.0,56.0,7.292
44.0,41.0,7.293
45.0,36.0,7.294
39.0,31.0,7.295
32.0,19.0,7.296
23.0,13.0,7.297
13.0,18.0,7.298
-2.0,21.0,7.299
-10.0,13.0,7.3
-14.0,6.0,7.301
-14.0,11.0,7.302
-11.0,17.0,7.303
-5.0,14.0,7.304
1.0,8.0,7.305
9.0,7.0,7.306
20.0,1.0,7.307
29.0,-8.0,7.308
30.0,-9.0,7.309
23.0,-3.0,7.31
22.0,-2.0,7.311
29.0,-10.0,7.312
34.0,-14.0,7.313
32.0,-9.0,7.314
26.0,-6.0,7.315
23.0,-9.0,7.316
19.0,-9.0,7.317
8.0,-6.0,7.318
-1.0,-4.0,7.319
-7.0,-6.0,7.32
-17.0,-9.0,7.321
-26.0,-7.0,7.322
-26.0,-3.0,7.323
-20.0,-4.0,7.324
-22.0,-6.0,7.325
-35.0,-7.0,7.326
-41.0,-8.0,7.327
-32.0,-13.0,7.328
-18.0,-16.0,7.329
-9.0,-17.0,7.33
-1.0,-14.0,7.331
18.0,-5.0,7.332
41.0,12.0,7.333
60.0,46.0,7.334
65.0,102.0,7.335
58.0,175.0,7.336
44.0,237.0,7.337
27.0,240.0,7.338
9.0,157.0,7.339
-15.0,10.0,7.34
-44.0,-143.0,7.341
-63.0,-253.0,7.342
-58.0,-311.0,7.343
-37.0,-320.0,7.344
-21.0,-288.0,7.345
-17.0,-227.0,7.346
-15.0,-158.0,7.347
1.0,-96.0,7.348
20.0,-45.0,7.349
