Deltoid,Bicep,Time
-4.0,0.0,0.0
-5.0,-4.0,0.001
-4.0,-1.0,0.002
3.0,2.0,0.003
11.0,3.0,0.004
13.0,2.0,0.005
7.0,6.0,0.006
1.0,10.0,0.007
0.0,7.0,0.008
2.0,2.0,0.009
1.0,4.0,0.01
-1.0,9.0,0.011
-3.0,10.0,0.012
-3.0,4.0,0.013
0.0,0.0,0.014
4.0,1.0,0.015
6.0,1.0,0.016
6.0,1.0,0.017
0.0,1.0,0.018
0.0,0.0,0.019
2.0,-4.0,0.02
2.0,-11.0,0.021
0.0,-9.0,0.022
0.0,-2.0,0.023
7.0,2.0,0.024
12.0,3.0,0.025
7.0,2.0,0.026
0.0,1.0,0.027
0.0,2.0,0.028
1.0,2.0,0.029
0.0,3.0,0.03
2.0,2.0,0.031
8.0,0.0,0.032
15.0,0.0,0.033
13.0,-1.0,0.034
8.0,-4.0,0.035
6.0,-7.0,0.036
9.0,-6.0,0.037
9.0,-5.0,0.038
4.0,-5.0,0.039
-4.0,-5.0,0.04
-13.0,-9.0,0.041
-16.0,-11.0,0.042
-16.0,-9.0,0.043
-8.0,-5.0,0.044
-2.0,0.0,0.045
-2.0,5.0,0.046
-4.0,2.0,0.047
-1.0,-1.0,0.048
3.0,0.0,0.049
3.0,2.0,0.05
0.0,4.0,0.051
2.0,5.0,0.052
6.0,3.0,0.053
9.0,1.0,0.054
9.0,0.0,0.055
10.0,-1.0,0.056
14.0,-1.0,0.057
16.0,0.0,0.058
15.0,2.0,0.059
8.0,0.0,0.06
0.0,-4.0,0.061
-5.0,-6.0,0.062
-1.0,-6.0,0.063
7.0,-2.0,0.064
9.0,2.0,0.065
3.0,4.0,0.066
-2.0,3.0,0.067
1.0,2.0,0.068
6.0,4.0,0.069
3.0,4.0,0.07
0.0,3.0,0.071
0.0,3.0,0.072
2.0,5.0,0.073
-1.0,5.0,0.074
-6.0,2.0,0.075
-3.0,-3.0,0.076
5.0,-2.0,0.077
6.0,-2.0,0.078
1.0,-4.0,0.079
-7.0,-6.0,0.08
-12.0,-12.0,0.081
-11.0,-15.0,0.082
-2.0,-16.0,0.083
14.0,-12.0,0.084
24.0,-4.0,0.085
28.0,1.0,0.086
29.0,3.0,0.087
33.0,4.0,0.088
28.0,9.0,0.089
6.0,13.0,0.09
-13.0,16.0,0.091
-20.0,13.0,0.092
-16.0,11.0,0.093
-17.0,8.0,0.094
-18.0,3.0,0.095
-9.0,-4.0,0.096
5.0,-6.0,0.097
7.0,-9.0,0.098
0.0,-9.0,0.099
-9.0,-7.0,0.1
-12.0,-7.0,0.101
-9.0,-7.0,0.102
-1.0,-7.0,0.103
8.0,-6.0,0.104
9.0,-1.0,0.105
2.0,3.0,0.106
0.0,3.0,0.107
5.0,1.0,0.108
9.0,1.0,0.109
5.0,4.0,0.11
0.0,4.0,0.111
0.0,2.0,0.112
0.0,2.0,0.113
0.0,3.0,0.114
3.0,1.0,0.115
8.0,-2.0,0.116
9.0,-2.0,0.117
7.0,-2.0,0.118
5.0,-4.0,0.119
3.0,-7.0,0.12
-1.0,-12.0,0.121
-4.0,-10.0,0.122
1.0,-7.0,0.123
10.0,-2.0,0.124
10.0,3.0,0.125
3.0,6.0,0.126
1.0,3.0,0.127
5.0,-2.0,0.128
4.0,-2.0,0.129
1.0,3.0,0.13
2.0,5.0,0.131
5.0,2.0,0.132
5.0,1.0,0.133
2.0,5.0,0.134
2.0,7.0,0.135
5.0,2.0,0.136
6.0,0.0,0.137
4.0,-1.0,0.138
3.0,0.0,0.139
0.0,-1.0,0.14
-3.0,-6.0,0.141
-3.0,-7.0,0.142
4.0,-7.0,0.143
11.0,-2.0,0.144
7.0,2.0,0.145
0.0,6.0,0.146
-1.0,7.0,0.147
4.0,3.0,0.148
8.0,1.0,0.149
3.0,3.0,0.15
-2.0,4.0,0.151
-1.0,3.0,0.152
2.0,0.0,0.153
4.0,-3.0,0.154
4.0,-6.0,0.155
4.0,-7.0,0.156
7.0,-5.0,0.157
5.0,-5.0,0.158
1.0,-5.0,0.159
-3.0,-5.0,0.16
-7.0,-8.0,0.161
-4.0,-6.0,0.162
3.0,-6.0,0.163
11.0,-7.0,0.164
11.0,-7.0,0.165
5.0,-3.0,0.166
2.0,3.0,0.167
2.0,6.0,0.168
2.0,4.0,0.169
-2.0,3.0,0.17
-3.0,2.0,0.171
2.0,0.0,0.172
4.0,-1.0,0.173
0.0,0.0,0.174
-3.0,2.0,0.175
0.0,3.0,0.176
5.0,1.0,0.177
2.0,-1.0,0.178
-2.0,-2.0,0.179
-5.0,-3.0,0.18
-4.0,-7.0,0.181
-1.0,-8.0,0.182
4.0,-7.0,0.183
10.0,-3.0,0.184
10.0,0.0,0.185
4.0,3.0,0.186
1.0,4.0,0.187
3.0,3.0,0.188
4.0,2.0,0.189
1.0,2.0,0.19
0.0,3.0,0.191
5.0,4.0,0.192
8.0,4.0,0.193
8.0,3.0,0.194
7.0,2.0,0.195
6.0,3.0,0.196
5.0,4.0,0.197
2.0,1.0,0.198
3.0,-2.0,0.199
0.0,-5.0,0.2
-7.0,-6.0,0.201
-11.0,-4.0,0.202
-2.0,-4.0,0.203
10.0,-3.0,0.204
11.0,-2.0,0.205
3.0,2.0,0.206
0.0,4.0,0.207
6.0,2.0,0.208
9.0,0.0,0.209
5.0,1.0,0.21
1.0,1.0,0.211
2.0,0.0,0.212
4.0,0.0,0.213
2.0,1.0,0.214
1.0,0.0,0.215
0.0,-3.0,0.216
1.0,-4.0,0.217
1.0,-2.0,0.218
0.0,-2.0,0.219
-4.0,-5.0,0.22
-5.0,-10.0,0.221
-4.0,-10.0,0.222
3.0,-8.0,0.223
9.0,-3.0,0.224
6.0,3.0,0.225
1.0,8.0,0.226
3.0,5.0,0.227
6.0,0.0,0.228
5.0,-2.0,0.229
1.0,2.0,0.23
-1.0,4.0,0.231
0.0,2.0,0.232
0.0,0.0,0.233
-1.0,2.0,0.234
0.0,1.0,0.235
0.0,-3.0,0.236
1.0,-4.0,0.237
0.0,-4.0,0.238
3.0,-3.0,0.239
3.0,-4.0,0.24
1.0,-8.0,0.241
0.0,-8.0,0.242
7.0,-6.0,0.243
14.0,-2.0,0.244
13.0,1.0,0.245
6.0,3.0,0.246
3.0,1.0,0.247
5.0,1.0,0.248
5.0,4.0,0.249
2.0,6.0,0.25
0.0,5.0,0.251
2.0,3.0,0.252
2.0,4.0,0.253
0.0,5.0,0.254
-1.0,2.0,0.255
2.0,-5.0,0.256
6.0,-7.0,0.257
5.0,-5.0,0.258
1.0,-5.0,0.259
-4.0,-7.0,0.26
-7.0,-11.0,0.261
-7.0,-9.0,0.262
1.0,-7.0,0.263
12.0,-5.0,0.264
15.0,1.0,0.265
10.0,5.0,0.266
7.0,7.0,0.267
8.0,4.0,0.268
4.0,3.0,0.269
0.0,3.0,0.27
-1.0,4.0,0.271
1.0,3.0,0.272
3.0,4.0,0.273
2.0,4.0,0.274
2.0,2.0,0.275
1.0,-3.0,0.276
0.0,-2.0,0.277
-3.0,-2.0,0.278
-2.0,-2.0,0.279
-1.0,-6.0,0.28
-2.0,-10.0,0.281
-3.0,-9.0,0.282
0.0,-6.0,0.283
6.0,-1.0,0.284
6.0,3.0,0.285
2.0,6.0,0.286
-3.0,5.0,0.287
-7.0,1.0,0.288
-8.0,0.0,0.289
-5.0,3.0,0.29
1.0,4.0,0.291
5.0,2.0,0.292
6.0,-2.0,0.293
8.0,-3.0,0.294
10.0,-1.0,0.295
11.0,1.0,0.296
8.0,2.0,0.297
2.0,-3.0,0.298
0.0,-5.0,0.299
-2.0,-5.0,0.3
-5.0,-6.0,0.301
-7.0,-4.0,0.302
-1.0,-3.0,0.303
6.0,0.0,0.304
3.0,3.0,0.305
-4.0,3.0,0.306
-5.0,2.0,0.307
3.0,3.0,0.308
12.0,3.0,0.309
14.0,3.0,0.31
11.0,0.0,0.311
11.0,-1.0,0.312
13.0,0.0,0.313
12.0,3.0,0.314
10.0,4.0,0.315
10.0,4.0,0.316
14.0,9.0,0.317
17.0,9.0,0.318
14.0,2.0,0.319
3.0,-5.0,0.32
-8.0,-10.0,0.321
-8.0,-9.0,0.322
-1.0,-8.0,0.323
3.0,-9.0,0.324
1.0,-5.0,0.325
-1.0,1.0,0.326
2.0,5.0,0.327
4.0,2.0,0.328
0.0,-2.0,0.329
-5.0,1.0,0.33
-4.0,6.0,0.331
0.0,5.0,0.332
-2.0,1.0,0.333
-9.0,0.0,0.334
-13.0,0.0,0.335
-14.0,-2.0,0.336
-13.0,-3.0,0.337
-11.0,-4.0,0.338
-4.0,-2.0,0.339
2.0,0.0,0.34
7.0,-4.0,0.341
11.0,-5.0,0.342
22.0,-2.0,0.343
31.0,1.0,0.344
26.0,2.0,0.345
11.0,0.0,0.346
0.0,0.0,0.347
2.0,2.0,0.348
8.0,3.0,0.349
2.0,2.0,0.35
-4.0,0.0,0.351
-3.0,-5.0,0.352
2.0,-10.0,0.353
4.0,-13.0,0.354
0.0,-12.0,0.355
-6.0,-9.0,0.356
-8.0,-8.0,0.357
-8.0,-9.0,0.358
-6.0,-5.0,0.359
-5.0,-3.0,0.36
-6.0,-3.0,0.361
-4.0,-5.0,0.362
3.0,-5.0,0.363
13.0,-2.0,0.364
16.0,2.0,0.365
14.0,8.0,0.366
8.0,11.0,0.367
0.0,10.0,0.368
-11.0,8.0,0.369
-22.0,7.0,0.37
-28.0,5.0,0.371
-35.0,1.0,0.372
-48.0,-5.0,0.373
-60.0,-7.0,0.374
-50.0,-7.0,0.375
-17.0,-7.0,0.376
16.0,-8.0,0.377
36.0,-6.0,0.378
49.0,-1.0,0.379
63.0,5.0,0.38
79.0,4.0,0.381
85.0,1.0,0.382
80.0,3.0,0.383
73.0,12.0,0.384
72.0,22.0,0.385
73.0,23.0,0.386
66.0,17.0,0.387
42.0,10.0,0.388
11.0,7.0,0.389
-10.0,6.0,0.39
-13.0,4.0,0.391
-16.0,2.0,0.392
-28.0,1.0,0.393
-46.0,0.0,0.394
-60.0,-3.0,0.395
-68.0,-6.0,0.396
-63.0,-7.0,0.397
-42.0,-10.0,0.398
-19.0,-11.0,0.399
-13.0,-12.0,0.4
-22.0,-15.0,0.401
-18.0,-12.0,0.402
6.0,-10.0,0.403
27.0,-7.0,0.404
22.0,-1.0,0.405
4.0,4.0,0.406
-5.0,4.0,0.407
-6.0,0.0,0.408
-8.0,-4.0,0.409
-9.0,-1.0,0.41
-5.0,2.0,0.411
0.0,4.0,0.412
-1.0,2.0,0.413
-2.0,0.0,0.414
-3.0,-2.0,0.415
-3.0,-3.0,0.416
0.0,-1.0,0.417
10.0,-3.0,0.418
21.0,-5.0,0.419
18.0,-8.0,0.42
-2.0,-9.0,0.421
-25.0,-8.0,0.422
-47.0,-6.0,0.423
-73.0,-7.0,0.424
-105.0,-7.0,0.425
-115.0,-2.0,0.426
-77.0,1.0,0.427
-14.0,-2.0,0.428
31.0,-7.0,0.429
45.0,-6.0,0.43
41.0,2.0,0.431
37.0,7.0,0.432
35.0,6.0,0.433
45.0,6.0,0.434
67.0,9.0,0.435
83.0,12.0,0.436
78.0,11.0,0.437
57.0,9.0,0.438
55.0,6.0,0.439
77.0,1.0,0.44
92.0,-6.0,0.441
78.0,-12.0,0.442
52.0,-12.0,0.443
45.0,-8.0,0.444
50.0,-1.0,0.445
36.0,5.0,0.446
2.0,4.0,0.447
-18.0,0.0,0.448
-11.0,1.0,0.449
-5.0,9.0,0.45
-23.0,17.0,0.451
-48.0,18.0,0.452
-48.0,16.0,0.453
-31.0,13.0,0.454
-25.0,7.0,0.455
-35.0,-1.0,0.456
-38.0,-2.0,0.457
-30.0,-2.0,0.458
-22.0,-4.0,0.459
-26.0,-12.0,0.46
-31.0,-20.0,0.461
-27.0,-17.0,0.462
-21.0,-13.0,0.463
-23.0,-9.0,0.464
-29.0,-6.0,0.465
-36.0,-2.0,0.466
-45.0,-2.0,0.467
-56.0,-3.0,0.468
-64.0,-1.0,0.469
-67.0,2.0,0.47
-63.0,-2.0,0.471
-39.0,-9.0,0.472
6.0,-12.0,0.473
50.0,-7.0,0.474
63.0,0.0,0.475
58.0,5.0,0.476
78.0,10.0,0.477
129.0,9.0,0.478
158.0,5.0,0.479
116.0,0.0,0.48
34.0,-3.0,0.481
-16.0,3.0,0.482
-4.0,8.0,0.483
34.0,6.0,0.484
52.0,3.0,0.485
34.0,1.0,0.486
5.0,-1.0,0.487
-6.0,-4.0,0.488
2.0,-4.0,0.489
6.0,-3.0,0.49
-15.0,-2.0,0.491
-44.0,-3.0,0.492
-54.0,-1.0,0.493
-44.0,1.0,0.494
-36.0,-1.0,0.495
-40.0,-1.0,0.496
-36.0,6.0,0.497
-26.0,8.0,0.498
-18.0,-1.0,0.499
-19.0,-11.0,0.5
-21.0,-14.0,0.501
-16.0,-10.0,0.502
-2.0,-7.0,0.503
9.0,-7.0,0.504
8.0,-1.0,0.505
1.0,7.0,0.506
1.0,4.0,0.507
8.0,-2.0,0.508
13.0,-1.0,0.509
8.0,2.0,0.51
0.0,3.0,0.511
0.0,0.0,0.512
3.0,1.0,0.513
0.0,4.0,0.514
-5.0,3.0,0.515
-2.0,0.0,0.516
11.0,1.0,0.517
17.0,0.0,0.518
13.0,-4.0,0.519
2.0,-8.0,0.52
0.0,-9.0,0.521
3.0,-6.0,0.522
8.0,-1.0,0.523
14.0,8.0,0.524
16.0,16.0,0.525
15.0,16.0,0.526
17.0,9.0,0.527
21.0,2.0,0.528
19.0,1.0,0.529
10.0,-1.0,0.53
4.0,-7.0,0.531
11.0,-13.0,0.532
12.0,-12.0,0.533
-2.0,-10.0,0.534
-17.0,-9.0,0.535
-9.0,-5.0,0.536
13.0,2.0,0.537
21.0,4.0,0.538
15.0,2.0,0.539
12.0,0.0,0.54
22.0,0.0,0.541
32.0,1.0,0.542
24.0,2.0,0.543
11.0,5.0,0.544
1.0,9.0,0.545
-4.0,8.0,0.546
-13.0,4.0,0.547
-15.0,2.0,0.548
-9.0,3.0,0.549
-5.0,7.0,0.55
-11.0,6.0,0.551
-16.0,2.0,0.552
-11.0,0.0,0.553
-6.0,-2.0,0.554
-13.0,-6.0,0.555
-21.0,-9.0,0.556
-18.0,-7.0,0.557
-4.0,-5.0,0.558
6.0,-7.0,0.559
4.0,-9.0,0.56
0.0,-13.0,0.561
3.0,-11.0,0.562
12.0,-9.0,0.563
17.0,-6.0,0.564
15.0,-4.0,0.565
9.0,0.0,0.566
10.0,5.0,0.567
17.0,6.0,0.568
17.0,3.0,0.569
4.0,2.0,0.57
-10.0,4.0,0.571
-12.0,6.0,0.572
-2.0,3.0,0.573
6.0,-2.0,0.574
9.0,-5.0,0.575
7.0,-4.0,0.576
9.0,-3.0,0.577
7.0,-3.0,0.578
-1.0,-5.0,0.579
-10.0,-7.0,0.58
-19.0,-12.0,0.581
-22.0,-14.0,0.582
-1.0,-3.0,0.583
15.0,3.0,0.584
15.0,7.0,0.585
14.0,8.0,0.586
14.0,5.0,0.587
14.0,0.0,0.588
21.0,-3.0,0.589
25.0,-8.0,0.59
19.0,-5.0,0.591
14.0,-3.0,0.592
11.0,-3.0,0.593
9.0,0.0,0.594
9.0,1.0,0.595
9.0,5.0,0.596
7.0,7.0,0.597
3.0,-2.0,0.598
-7.0,-3.0,0.599
-20.0,-4.0,0.6
-25.0,-7.0,0.601
-23.0,-8.0,0.602
-10.0,-2.0,0.603
6.0,2.0,0.604
12.0,4.0,0.605
5.0,5.0,0.606
-4.0,3.0,0.607
-7.0,0.0,0.608
-6.0,-2.0,0.609
-7.0,-5.0,0.61
-5.0,-3.0,0.611
-3.0,-2.0,0.612
-6.0,-2.0,0.613
-23.0,0.0,0.614
-42.0,1.0,0.615
-43.0,3.0,0.616
-19.0,4.0,0.617
27.0,5.0,0.618
54.0,0.0,0.619
51.0,-2.0,0.62
31.0,-6.0,0.621
19.0,-5.0,0.622
18.0,-1.0,0.623
10.0,5.0,0.624
-7.0,11.0,0.625
-11.0,13.0,0.626
7.0,7.0,0.627
22.0,-1.0,0.628
14.0,-3.0,0.629
-3.0,-1.0,0.63
0.0,0.0,0.631
18.0,1.0,0.632
22.0,4.0,0.633
14.0,4.0,0.634
9.0,-1.0,0.635
7.0,-7.0,0.636
0.0,-8.0,0.637
-13.0,-7.0,0.638
-17.0,-8.0,0.639
-13.0,-10.0,0.64
-10.0,-13.0,0.641
-14.0,-11.0,0.642
-11.0,-8.0,0.643
-3.0,-8.0,0.644
-2.0,-5.0,0.645
-7.0,-1.0,0.646
-11.0,-3.0,0.647
-7.0,-7.0,0.648
-6.0,-9.0,0.649
-6.0,-9.0,0.65
-1.0,-10.0,0.651
10.0,-13.0,0.652
20.0,-11.0,0.653
25.0,-7.0,0.654
27.0,-4.0,0.655
22.0,-4.0,0.656
14.0,1.0,0.657
13.0,8.0,0.658
21.0,18.0,0.659
21.0,21.0,0.66
-4.0,17.0,0.661
-30.0,12.0,0.662
-30.0,8.0,0.663
-11.0,6.0,0.664
-1.0,7.0,0.665
-7.0,6.0,0.666
-9.0,3.0,0.667
-1.0,0.0,0.668
-2.0,3.0,0.669
-11.0,5.0,0.67
-8.0,1.0,0.671
6.0,-4.0,0.672
12.0,-4.0,0.673
5.0,-1.0,0.674
2.0,-3.0,0.675
12.0,-8.0,0.676
17.0,-8.0,0.677
9.0,-7.0,0.678
2.0,-5.0,0.679
1.0,-6.0,0.68
0.0,-10.0,0.681
-8.0,-11.0,0.682
-9.0,-9.0,0.683
-1.0,-8.0,0.684
5.0,-4.0,0.685
2.0,-1.0,0.686
3.0,0.0,0.687
13.0,0.0,0.688
21.0,2.0,0.689
17.0,4.0,0.69
5.0,3.0,0.691
1.0,1.0,0.692
3.0,0.0,0.693
4.0,-1.0,0.694
2.0,0.0,0.695
2.0,1.0,0.696
5.0,4.0,0.697
5.0,2.0,0.698
6.0,0.0,0.699
7.0,-1.0,0.7
9.0,-4.0,0.701
9.0,-4.0,0.702
12.0,-1.0,0.703
16.0,0.0,0.704
14.0,3.0,0.705
6.0,5.0,0.706
1.0,7.0,0.707
1.0,7.0,0.708
0.0,5.0,0.709
-4.0,4.0,0.71
-6.0,5.0,0.711
-8.0,8.0,0.712
-10.0,10.0,0.713
-12.0,8.0,0.714
-11.0,3.0,0.715
-4.0,-1.0,0.716
6.0,-2.0,0.717
10.0,-5.0,0.718
8.0,-6.0,0.719
5.0,-8.0,0.72
-3.0,-13.0,0.721
-7.0,-16.0,0.722
-1.0,-12.0,0.723
4.0,-6.0,0.724
3.0,2.0,0.725
2.0,9.0,0.726
4.0,10.0,0.727
6.0,10.0,0.728
3.0,6.0,0.729
0.0,2.0,0.73
-4.0,4.0,0.731
-8.0,5.0,0.732
-6.0,2.0,0.733
-5.0,0.0,0.734
-5.0,3.0,0.735
-5.0,5.0,0.736
-9.0,2.0,0.737
-13.0,-2.0,0.738
-3.0,-7.0,0.739
6.0,-9.0,0.74
5.0,-11.0,0.741
2.0,-10.0,0.742
12.0,-8.0,0.743
31.0,-8.0,0.744
36.0,-6.0,0.745
19.0,-3.0,0.746
1.0,0.0,0.747
-1.0,1.0,0.748
2.0,2.0,0.749
-6.0,2.0,0.75
-25.0,2.0,0.751
-38.0,3.0,0.752
-28.0,6.0,0.753
1.0,9.0,0.754
32.0,4.0,0.755
45.0,-6.0,0.756
35.0,-10.0,0.757
11.0,-4.0,0.758
0.0,4.0,0.759
-3.0,3.0,0.76
-6.0,-8.0,0.761
-7.0,-13.0,0.762
0.0,-7.0,0.763
7.0,1.0,0.764
5.0,5.0,0.765
2.0,9.0,0.766
6.0,13.0,0.767
9.0,13.0,0.768
4.0,6.0,0.769
-2.0,-3.0,0.77
-1.0,-5.0,0.771
2.0,-3.0,0.772
1.0,-1.0,0.773
1.0,-1.0,0.774
3.0,-1.0,0.775
3.0,-3.0,0.776
2.0,-5.0,0.777
0.0,-7.0,0.778
0.0,-5.0,0.779
-3.0,-5.0,0.78
-6.0,-10.0,0.781
-6.0,-12.0,0.782
4.0,-8.0,0.783
13.0,-3.0,0.784
16.0,-2.0,0.785
13.0,-4.0,0.786
11.0,-3.0,0.787
12.0,0.0,0.788
10.0,0.0,0.789
9.0,-1.0,0.79
10.0,-3.0,0.791
11.0,-4.0,0.792
5.0,-4.0,0.793
-4.0,-3.0,0.794
-6.0,0.0,0.795
5.0,8.0,0.796
18.0,17.0,0.797
12.0,18.0,0.798
-11.0,15.0,0.799
-31.0,10.0,0.8
-28.0,2.0,0.801
-11.0,-4.0,0.802
-1.0,-2.0,0.803
-2.0,0.0,0.804
-1.0,1.0,0.805
11.0,4.0,0.806
22.0,4.0,0.807
20.0,3.0,0.808
8.0,1.0,0.809
1.0,0.0,0.81
0.0,1.0,0.811
-2.0,2.0,0.812
-3.0,-1.0,0.813
0.0,-4.0,0.814
4.0,-4.0,0.815
5.0,-3.0,0.816
4.0,-3.0,0.817
2.0,-4.0,0.818
2.0,-5.0,0.819
0.0,-5.0,0.82
-2.0,-11.0,0.821
2.0,-15.0,0.822
12.0,-13.0,0.823
19.0,-7.0,0.824
16.0,-1.0,0.825
7.0,3.0,0.826
4.0,5.0,0.827
9.0,4.0,0.828
12.0,3.0,0.829
4.0,4.0,0.83
0.0,6.0,0.831
1.0,4.0,0.832
3.0,0.0,0.833
-2.0,-2.0,0.834
-11.0,0.0,0.835
-16.0,0.0,0.836
-15.0,0.0,0.837
-10.0,-5.0,0.838
-4.0,-6.0,0.839
-2.0,-4.0,0.84
-3.0,-8.0,0.841
-6.0,-12.0,0.842
-2.0,-12.0,0.843
6.0,-5.0,0.844
10.0,5.0,0.845
3.0,9.0,0.846
-1.0,4.0,0.847
3.0,-2.0,0.848
12.0,-1.0,0.849
16.0,2.0,0.85
16.0,2.0,0.851
16.0,0.0,0.852
15.0,-2.0,0.853
9.0,0.0,0.854
6.0,4.0,0.855
3.0,5.0,0.856
2.0,4.0,0.857
-3.0,1.0,0.858
-6.0,-1.0,0.859
-11.0,0.0,0.86
-12.0,-3.0,0.861
-7.0,-5.0,0.862
2.0,-6.0,0.863
7.0,-6.0,0.864
7.0,-1.0,0.865
9.0,4.0,0.866
15.0,4.0,0.867
14.0,1.0,0.868
4.0,2.0,0.869
-5.0,5.0,0.87
-3.0,6.0,0.871
3.0,1.0,0.872
4.0,-2.0,0.873
0.0,-2.0,0.874
-3.0,-4.0,0.875
-3.0,-5.0,0.876
-2.0,-2.0,0.877
-1.0,2.0,0.878
0.0,1.0,0.879
-2.0,-5.0,0.88
-5.0,-12.0,0.881
-6.0,-12.0,0.882
0.0,-8.0,0.883
9.0,-4.0,0.884
9.0,0.0,0.885
5.0,7.0,0.886
4.0,9.0,0.887
9.0,3.0,0.888
9.0,-2.0,0.889
4.0,1.0,0.89
1.0,4.0,0.891
4.0,1.0,0.892
5.0,-6.0,0.893
1.0,-3.0,0.894
-2.0,3.0,0.895
-1.0,2.0,0.896
3.0,-4.0,0.897
3.0,-8.0,0.898
4.0,-4.0,0.899
1.0,-2.0,0.9
0.0,-8.0,0.901
-4.0,-11.0,0.902
-1.0,-3.0,0.903
8.0,3.0,0.904
14.0,4.0,0.905
9.0,6.0,0.906
3.0,6.0,0.907
6.0,6.0,0.908
11.0,7.0,0.909
9.0,8.0,0.91
2.0,8.0,0.911
0.0,7.0,0.912
0.0,6.0,0.913
-3.0,5.0,0.914
-7.0,3.0,0.915
-6.0,1.0,0.916
-2.0,-3.0,0.917
-2.0,-7.0,0.918
-1.0,-7.0,0.919
0.0,-7.0,0.92
2.0,-10.0,0.921
1.0,-8.0,0.922
3.0,-6.0,0.923
6.0,-6.0,0.924
5.0,-5.0,0.925
0.0,-2.0,0.926
-1.0,3.0,0.927
6.0,5.0,0.928
13.0,5.0,0.929
12.0,6.0,0.93
5.0,8.0,0.931
1.0,6.0,0.932
-4.0,2.0,0.933
-5.0,-1.0,0.934
-3.0,-2.0,0.935
0.0,-5.0,0.936
-1.0,-6.0,0.937
-8.0,-4.0,0.938
-7.0,-2.0,0.939
0.0,0.0,0.94
3.0,-3.0,0.941
1.0,-5.0,0.942
4.0,-3.0,0.943
12.0,-1.0,0.944
13.0,0.0,0.945
7.0,2.0,0.946
6.0,2.0,0.947
11.0,3.0,0.948
14.0,1.0,0.949
10.0,0.0,0.95
5.0,1.0,0.951
6.0,3.0,0.952
7.0,5.0,0.953
2.0,7.0,0.954
0.0,4.0,0.955
1.0,0.0,0.956
0.0,-3.0,0.957
-5.0,-6.0,0.958
-9.0,-6.0,0.959
-5.0,-8.0,0.96
-2.0,-12.0,0.961
-2.0,-9.0,0.962
-1.0,-6.0,0.963
4.0,-5.0,0.964
5.0,-4.0,0.965
1.0,1.0,0.966
0.0,4.0,0.967
3.0,1.0,0.968
7.0,-1.0,0.969
6.0,4.0,0.97
5.0,8.0,0.971
4.0,5.0,0.972
3.0,0.0,0.973
0.0,-1.0,0.974
-1.0,0.0,0.975
0.0,-2.0,0.976
3.0,-4.0,0.977
2.0,-6.0,0.978
0.0,-7.0,0.979
-2.0,-11.0,0.98
-5.0,-15.0,0.981
-5.0,-11.0,0.982
2.0,-4.0,0.983
15.0,0.0,0.984
17.0,2.0,0.985
8.0,5.0,0.986
0.0,6.0,0.987
3.0,3.0,0.988
6.0,1.0,0.989
0.0,2.0,0.99
-5.0,4.0,0.991
-4.0,3.0,0.992
1.0,0.0,0.993
1.0,2.0,0.994
-2.0,4.0,0.995
-2.0,1.0,0.996
0.0,-1.0,0.997
0.0,-2.0,0.998
0.0,-2.0,0.999
-2.0,-1.0,1.0
-2.0,-3.0,1.001
-2.0,-5.0,1.002
3.0,-2.0,1.003
10.0,0.0,1.004
12.0,1.0,1.005
6.0,2.0,1.006
2.0,2.0,1.007
5.0,3.0,1.008
9.0,4.0,1.009
6.0,5.0,1.01
0.0,3.0,1.011
0.0,2.0,1.012
3.0,4.0,1.013
4.0,5.0,1.014
3.0,3.0,1.015
2.0,1.0,1.016
7.0,1.0,1.017
10.0,2.0,1.018
8.0,2.0,1.019
1.0,-3.0,1.02
-3.0,-11.0,1.021
-1.0,-10.0,1.022
4.0,-7.0,1.023
9.0,-5.0,1.024
9.0,1.0,1.025
6.0,9.0,1.026
4.0,8.0,1.027
8.0,2.0,1.028
7.0,0.0,1.029
2.0,4.0,1.03
0.0,7.0,1.031
2.0,2.0,1.032
4.0,-2.0,1.033
2.0,0.0,1.034
-1.0,2.0,1.035
2.0,0.0,1.036
4.0,-4.0,1.037
0.0,-7.0,1.038
-6.0,-7.0,1.039
-8.0,-8.0,1.04
-6.0,-12.0,1.041
-5.0,-13.0,1.042
-1.0,-11.0,1.043
6.0,-8.0,1.044
11.0,-2.0,1.045
7.0,4.0,1.046
2.0,2.0,1.047
2.0,-3.0,1.048
3.0,-4.0,1.049
0.0,3.0,1.05
-4.0,8.0,1.051
-3.0,4.0,1.052
1.0,1.0,1.053
0.0,3.0,1.054
0.0,4.0,1.055
2.0,0.0,1.056
6.0,-3.0,1.057
3.0,-4.0,1.058
-1.0,-3.0,1.059
-3.0,-4.0,1.06
-4.0,-7.0,1.061
-4.0,-4.0,1.062
-1.0,-3.0,1.063
6.0,-3.0,1.064
10.0,0.0,1.065
5.0,6.0,1.066
0.0,8.0,1.067
0.0,4.0,1.068
4.0,2.0,1.069
4.0,4.0,1.07
3.0,6.0,1.071
3.0,4.0,1.072
5.0,2.0,1.073
6.0,3.0,1.074
3.0,3.0,1.075
2.0,-1.0,1.076
3.0,-3.0,1.077
3.0,-4.0,1.078
4.0,-4.0,1.079
1.0,-6.0,1.08
-2.0,-10.0,1.081
-2.0,-9.0,1.082
1.0,-5.0,1.083
4.0,-4.0,1.084
5.0,0.0,1.085
5.0,1.0,1.086
8.0,3.0,1.087
10.0,3.0,1.088
10.0,4.0,1.089
7.0,5.0,1.09
3.0,5.0,1.091
2.0,1.0,1.092
3.0,0.0,1.093
5.0,-2.0,1.094
6.0,-5.0,1.095
4.0,-6.0,1.096
1.0,-3.0,1.097
-4.0,-2.0,1.098
-6.0,-4.0,1.099
-6.0,-6.0,1.1
-6.0,-6.0,1.101
-7.0,-4.0,1.102
-3.0,-4.0,1.103
5.0,-4.0,1.104
12.0,0.0,1.105
10.0,5.0,1.106
5.0,4.0,1.107
8.0,1.0,1.108
14.0,1.0,1.109
15.0,8.0,1.11
12.0,9.0,1.111
7.0,6.0,1.112
3.0,6.0,1.113
2.0,8.0,1.114
2.0,6.0,1.115
3.0,0.0,1.116
6.0,-4.0,1.117
7.0,-6.0,1.118
3.0,-5.0,1.119
-3.0,-4.0,1.12
-9.0,-4.0,1.121
-10.0,-1.0,1.122
-3.0,-2.0,1.123
9.0,-4.0,1.124
12.0,-2.0,1.125
5.0,3.0,1.126
-2.0,4.0,1.127
2.0,2.0,1.128
7.0,5.0,1.129
2.0,9.0,1.13
-3.0,7.0,1.131
-2.0,1.0,1.132
2.0,0.0,1.133
1.0,1.0,1.134
-2.0,0.0,1.135
-1.0,-5.0,1.136
2.0,-6.0,1.137
1.0,-4.0,1.138
0.0,-4.0,1.139
0.0,-7.0,1.14
0.0,-9.0,1.141
-1.0,-7.0,1.142
0.0,-7.0,1.143
6.0,-6.0,1.144
8.0,0.0,1.145
1.0,7.0,1.146
-1.0,8.0,1.147
2.0,3.0,1.148
7.0,1.0,1.149
6.0,3.0,1.15
0.0,5.0,1.151
-2.0,1.0,1.152
-2.0,-1.0,1.153
-2.0,-2.0,1.154
-2.0,-1.0,1.155
1.0,-1.0,1.156
3.0,0.0,1.157
3.0,-2.0,1.158
3.0,-5.0,1.159
5.0,-5.0,1.16
3.0,-6.0,1.161
-2.0,-5.0,1.162
-2.0,-5.0,1.163
4.0,-3.0,1.164
10.0,4.0,1.165
7.0,7.0,1.166
4.0,1.0,1.167
4.0,-4.0,1.168
5.0,-1.0,1.169
4.0,4.0,1.17
-1.0,5.0,1.171
-1.0,2.0,1.172
0.0,2.0,1.173
0.0,0.0,1.174
1.0,-2.0,1.175
2.0,-3.0,1.176
2.0,0.0,1.177
2.0,1.0,1.178
2.0,-1.0,1.179
-1.0,-5.0,1.18
-6.0,-6.0,1.181
-7.0,-3.0,1.182
-3.0,-3.0,1.183
4.0,-3.0,1.184
8.0,0.0,1.185
7.0,5.0,1.186
6.0,6.0,1.187
8.0,0.0,1.188
4.0,-2.0,1.189
-1.0,-1.0,1.19
-3.0,1.0,1.191
0.0,0.0,1.192
4.0,-3.0,1.193
6.0,-2.0,1.194
6.0,-3.0,1.195
9.0,-5.0,1.196
9.0,-5.0,1.197
2.0,-7.0,1.198
-3.0,-7.0,1.199
-9.0,-8.0,1.2
-14.0,-10.0,1.201
-14.0,-11.0,1.202
-5.0,-8.0,1.203
5.0,-4.0,1.204
5.0,0.0,1.205
0.0,1.0,1.206
-1.0,1.0,1.207
6.0,0.0,1.208
12.0,1.0,1.209
12.0,1.0,1.21
14.0,2.0,1.211
13.0,3.0,1.212
3.0,3.0,1.213
-8.0,3.0,1.214
-10.0,2.0,1.215
-2.0,2.0,1.216
5.0,4.0,1.217
4.0,2.0,1.218
4.0,-2.0,1.219
5.0,-6.0,1.22
3.0,-9.0,1.221
0.0,-8.0,1.222
7.0,-2.0,1.223
17.0,4.0,1.224
17.0,7.0,1.225
8.0,8.0,1.226
4.0,7.0,1.227
9.0,4.0,1.228
10.0,3.0,1.229
4.0,5.0,1.23
1.0,5.0,1.231
3.0,4.0,1.232
4.0,5.0,1.233
0.0,5.0,1.234
-3.0,4.0,1.235
-1.0,0.0,1.236
1.0,0.0,1.237
1.0,2.0,1.238
0.0,1.0,1.239
-4.0,-2.0,1.24
-5.0,-8.0,1.241
-2.0,-8.0,1.242
5.0,-4.0,1.243
11.0,0.0,1.244
7.0,3.0,1.245
-1.0,6.0,1.246
-1.0,7.0,1.247
5.0,4.0,1.248
7.0,3.0,1.249
1.0,5.0,1.25
-4.0,5.0,1.251
-3.0,3.0,1.252
-2.0,1.0,1.253
-3.0,2.0,1.254
-5.0,3.0,1.255
-4.0,1.0,1.256
0.0,-2.0,1.257
2.0,-4.0,1.258
1.0,-5.0,1.259
-1.0,-6.0,1.26
-5.0,-8.0,1.261
-7.0,-10.0,1.262
0.0,-7.0,1.263
5.0,-5.0,1.264
4.0,-3.0,1.265
3.0,-2.0,1.266
5.0,-2.0,1.267
7.0,-1.0,1.268
7.0,-2.0,1.269
8.0,-3.0,1.27
8.0,-3.0,1.271
6.0,-2.0,1.272
2.0,0.0,1.273
-2.0,1.0,1.274
-1.0,0.0,1.275
0.0,-1.0,1.276
-1.0,-4.0,1.277
-2.0,-7.0,1.278
-5.0,-10.0,1.279
-2.0,-11.0,1.28
0.0,-10.0,1.281
-2.0,-8.0,1.282
-1.0,-6.0,1.283
5.0,-5.0,1.284
8.0,0.0,1.285
4.0,5.0,1.286
0.0,6.0,1.287
3.0,4.0,1.288
5.0,6.0,1.289
1.0,10.0,1.29
-1.0,11.0,1.291
2.0,6.0,1.292
3.0,0.0,1.293
-1.0,-1.0,1.294
0.0,-1.0,1.295
8.0,-3.0,1.296
16.0,-5.0,1.297
13.0,-5.0,1.298
5.0,-2.0,1.299
-1.0,-1.0,1.3
-3.0,-5.0,1.301
-4.0,-8.0,1.302
3.0,-6.0,1.303
8.0,-4.0,1.304
3.0,1.0,1.305
-1.0,5.0,1.306
-2.0,5.0,1.307
-1.0,5.0,1.308
7.0,5.0,1.309
13.0,4.0,1.31
11.0,6.0,1.311
9.0,8.0,1.312
7.0,4.0,1.313
5.0,0.0,1.314
4.0,-2.0,1.315
3.0,-4.0,1.316
4.0,-1.0,1.317
3.0,0.0,1.318
-2.0,-3.0,1.319
-5.0,-8.0,1.32
-5.0,-14.0,1.321
-4.0,-10.0,1.322
-1.0,-4.0,1.323
6.0,2.0,1.324
9.0,4.0,1.325
4.0,7.0,1.326
0.0,8.0,1.327
1.0,5.0,1.328
3.0,2.0,1.329
2.0,5.0,1.33
0.0,7.0,1.331
2.0,6.0,1.332
2.0,3.0,1.333
0.0,2.0,1.334
0.0,1.0,1.335
3.0,-1.0,1.336
6.0,-3.0,1.337
3.0,-4.0,1.338
0.0,-4.0,1.339
-3.0,-6.0,1.34
-6.0,-8.0,1.341
-8.0,-7.0,1.342
-1.0,-4.0,1.343
11.0,0.0,1.344
14.0,3.0,1.345
6.0,4.0,1.346
1.0,2.0,1.347
4.0,-2.0,1.348
8.0,-3.0,1.349
2.0,-2.0,1.35
-2.0,0.0,1.351
-1.0,0.0,1.352
1.0,0.0,1.353
-2.0,1.0,1.354
-4.0,-1.0,1.355
-1.0,-7.0,1.356
6.0,-8.0,1.357
6.0,-6.0,1.358
2.0,-3.0,1.359
-3.0,-4.0,1.36
-4.0,-8.0,1.361
-2.0,-8.0,1.362
4.0,-5.0,1.363
14.0,-4.0,1.364
14.0,-2.0,1.365
4.0,1.0,1.366
-1.0,4.0,1.367
4.0,3.0,1.368
8.0,2.0,1.369
5.0,4.0,1.37
1.0,4.0,1.371
2.0,2.0,1.372
4.0,0.0,1.373
5.0,2.0,1.374
4.0,2.0,1.375
4.0,-1.0,1.376
3.0,-1.0,1.377
0.0,-1.0,1.378
-2.0,0.0,1.379
-2.0,-2.0,1.38
-5.0,-7.0,1.381
-6.0,-5.0,1.382
0.0,-2.0,1.383
10.0,-1.0,1.384
10.0,0.0,1.385
2.0,3.0,1.386
-1.0,6.0,1.387
4.0,7.0,1.388
11.0,5.0,1.389
12.0,4.0,1.39
6.0,5.0,1.391
0.0,4.0,1.392
-2.0,2.0,1.393
-2.0,0.0,1.394
0.0,0.0,1.395
3.0,-2.0,1.396
7.0,-2.0,1.397
6.0,-4.0,1.398
3.0,-4.0,1.399
-2.0,-3.0,1.4
-4.0,-6.0,1.401
-4.0,-7.0,1.402
3.0,-7.0,1.403
9.0,-6.0,1.404
8.0,-2.0,1.405
2.0,4.0,1.406
1.0,7.0,1.407
2.0,5.0,1.408
1.0,3.0,1.409
-2.0,5.0,1.41
-2.0,7.0,1.411
1.0,2.0,1.412
5.0,-4.0,1.413
4.0,-3.0,1.414
0.0,1.0,1.415
-1.0,1.0,1.416
0.0,-3.0,1.417
0.0,-8.0,1.418
-1.0,-7.0,1.419
-1.0,-7.0,1.42
-2.0,-12.0,1.421
-3.0,-13.0,1.422
0.0,-8.0,1.423
8.0,-2.0,1.424
13.0,3.0,1.425
10.0,5.0,1.426
6.0,5.0,1.427
5.0,4.0,1.428
6.0,3.0,1.429
3.0,3.0,1.43
-1.0,3.0,1.431
-1.0,3.0,1.432
2.0,2.0,1.433
6.0,1.0,1.434
6.0,0.0,1.435
5.0,-3.0,1.436
6.0,-3.0,1.437
4.0,-5.0,1.438
2.0,-5.0,1.439
-2.0,-5.0,1.44
-4.0,-8.0,1.441
-3.0,-5.0,1.442
3.0,-3.0,1.443
8.0,-2.0,1.444
7.0,-2.0,1.445
2.0,0.0,1.446
0.0,1.0,1.447
1.0,3.0,1.448
3.0,5.0,1.449
1.0,8.0,1.45
0.0,6.0,1.451
3.0,2.0,1.452
5.0,0.0,1.453
3.0,3.0,1.454
0.0,4.0,1.455
0.0,1.0,1.456
3.0,-1.0,1.457
1.0,0.0,1.458
0.0,2.0,1.459
-2.0,-1.0,1.46
-4.0,-9.0,1.461
-5.0,-11.0,1.462
-2.0,-9.0,1.463
6.0,-6.0,1.464
13.0,-3.0,1.465
9.0,4.0,1.466
5.0,8.0,1.467
3.0,6.0,1.468
3.0,3.0,1.469
1.0,3.0,1.47
1.0,6.0,1.471
4.0,5.0,1.472
5.0,3.0,1.473
2.0,1.0,1.474
0.0,-1.0,1.475
3.0,-6.0,1.476
6.0,-7.0,1.477
5.0,-6.0,1.478
5.0,-2.0,1.479
6.0,-1.0,1.48
2.0,-4.0,1.481
-2.0,-5.0,1.482
-2.0,-3.0,1.483
4.0,-2.0,1.484
5.0,3.0,1.485
0.0,8.0,1.486
-1.0,8.0,1.487
3.0,4.0,1.488
5.0,5.0,1.489
1.0,9.0,1.49
0.0,8.0,1.491
3.0,2.0,1.492
3.0,0.0,1.493
-2.0,-1.0,1.494
-5.0,-3.0,1.495
-2.0,-5.0,1.496
2.0,-3.0,1.497
0.0,-3.0,1.498
-2.0,-7.0,1.499
-3.0,-10.0,1.5
-3.0,-10.0,1.501
-2.0,-10.0,1.502
2.0,-8.0,1.503
11.0,-4.0,1.504
13.0,2.0,1.505
9.0,8.0,1.506
6.0,8.0,1.507
8.0,7.0,1.508
10.0,5.0,1.509
5.0,4.0,1.51
1.0,5.0,1.511
0.0,6.0,1.512
0.0,1.0,1.513
-1.0,-3.0,1.514
-3.0,-5.0,1.515
-2.0,-6.0,1.516
0.0,-4.0,1.517
2.0,-1.0,1.518
3.0,-1.0,1.519
0.0,-4.0,1.52
-4.0,-8.0,1.521
-3.0,-5.0,1.522
5.0,-4.0,1.523
12.0,-6.0,1.524
7.0,-3.0,1.525
0.0,5.0,1.526
0.0,9.0,1.527
6.0,4.0,1.528
6.0,-1.0,1.529
0.0,1.0,1.53
-2.0,3.0,1.531
0.0,0.0,1.532
1.0,-2.0,1.533
-1.0,-1.0,1.534
-2.0,0.0,1.535
2.0,-2.0,1.536
4.0,-4.0,1.537
0.0,-5.0,1.538
-4.0,-6.0,1.539
-5.0,-8.0,1.54
-3.0,-11.0,1.541
0.0,-9.0,1.542
7.0,-5.0,1.543
14.0,-2.0,1.544
14.0,1.0,1.545
10.0,4.0,1.546
8.0,7.0,1.547
12.0,5.0,1.548
11.0,2.0,1.549
3.0,3.0,1.55
-2.0,3.0,1.551
0.0,4.0,1.552
3.0,5.0,1.553
-1.0,4.0,1.554
-4.0,1.0,1.555
-2.0,-3.0,1.556
3.0,-4.0,1.557
4.0,-5.0,1.558
0.0,-5.0,1.559
-1.0,-6.0,1.56
0.0,-6.0,1.561
2.0,-5.0,1.562
6.0,-3.0,1.563
11.0,-1.0,1.564
13.0,2.0,1.565
8.0,8.0,1.566
2.0,9.0,1.567
4.0,8.0,1.568
9.0,5.0,1.569
4.0,4.0,1.57
-3.0,4.0,1.571
-5.0,4.0,1.572
-2.0,4.0,1.573
-1.0,4.0,1.574
-3.0,0.0,1.575
-2.0,-3.0,1.576
4.0,-1.0,1.577
3.0,-1.0,1.578
-2.0,-3.0,1.579
-7.0,-6.0,1.58
-5.0,-10.0,1.581
0.0,-12.0,1.582
8.0,-9.0,1.583
12.0,-5.0,1.584
12.0,-1.0,1.585
6.0,2.0,1.586
-1.0,0.0,1.587
-4.0,0.0,1.588
-3.0,4.0,1.589
0.0,8.0,1.59
4.0,8.0,1.591
7.0,8.0,1.592
10.0,5.0,1.593
9.0,3.0,1.594
7.0,2.0,1.595
6.0,0.0,1.596
5.0,-1.0,1.597
0.0,-4.0,1.598
-2.0,-7.0,1.599
-3.0,-7.0,1.6
-4.0,-9.0,1.601
-6.0,-9.0,1.602
-5.0,-7.0,1.603
1.0,-2.0,1.604
6.0,1.0,1.605
2.0,3.0,1.606
0.0,2.0,1.607
3.0,3.0,1.608
6.0,5.0,1.609
3.0,6.0,1.61
0.0,7.0,1.611
3.0,6.0,1.612
13.0,5.0,1.613
18.0,4.0,1.614
15.0,4.0,1.615
9.0,4.0,1.616
7.0,2.0,1.617
4.0,-4.0,1.618
3.0,-8.0,1.619
2.0,-8.0,1.62
3.0,-10.0,1.621
8.0,-10.0,1.622
9.0,-9.0,1.623
4.0,-7.0,1.624
-4.0,-1.0,1.625
-9.0,3.0,1.626
-8.0,4.0,1.627
-5.0,3.0,1.628
-6.0,2.0,1.629
-8.0,3.0,1.63
-6.0,4.0,1.631
0.0,2.0,1.632
2.0,1.0,1.633
0.0,-1.0,1.634
-1.0,-2.0,1.635
1.0,-2.0,1.636
6.0,-2.0,1.637
7.0,-2.0,1.638
5.0,-3.0,1.639
0.0,-6.0,1.64
-4.0,-10.0,1.641
-6.0,-10.0,1.642
0.0,-7.0,1.643
10.0,-4.0,1.644
13.0,1.0,1.645
7.0,4.0,1.646
4.0,6.0,1.647
7.0,5.0,1.648
8.0,3.0,1.649
3.0,3.0,1.65
-1.0,1.0,1.651
0.0,0.0,1.652
8.0,1.0,1.653
11.0,2.0,1.654
9.0,2.0,1.655
4.0,0.0,1.656
0.0,-2.0,1.657
-2.0,-4.0,1.658
-1.0,-6.0,1.659
0.0,-7.0,1.66
0.0,-6.0,1.661
0.0,-6.0,1.662
0.0,-8.0,1.663
4.0,-6.0,1.664
7.0,0.0,1.665
5.0,5.0,1.666
2.0,3.0,1.667
2.0,-2.0,1.668
4.0,-1.0,1.669
1.0,3.0,1.67
0.0,4.0,1.671
2.0,1.0,1.672
5.0,2.0,1.673
4.0,3.0,1.674
3.0,0.0,1.675
4.0,-3.0,1.676
5.0,-2.0,1.677
0.0,-2.0,1.678
-6.0,-5.0,1.679
-10.0,-8.0,1.68
-4.0,-8.0,1.681
8.0,0.0,1.682
17.0,7.0,1.683
16.0,7.0,1.684
4.0,5.0,1.685
-7.0,7.0,1.686
-6.0,8.0,1.687
0.0,5.0,1.688
5.0,1.0,1.689
1.0,3.0,1.69
0.0,6.0,1.691
3.0,5.0,1.692
4.0,0.0,1.693
0.0,-3.0,1.694
-3.0,-3.0,1.695
0.0,-4.0,1.696
3.0,-5.0,1.697
2.0,-8.0,1.698
0.0,-8.0,1.699
1.0,-6.0,1.7
-1.0,-7.0,1.701
-2.0,-7.0,1.702
2.0,-7.0,1.703
11.0,-2.0,1.704
10.0,3.0,1.705
3.0,8.0,1.706
2.0,6.0,1.707
7.0,1.0,1.708
8.0,-1.0,1.709
1.0,1.0,1.71
-3.0,1.0,1.711
0.0,0.0,1.712
3.0,0.0,1.713
2.0,2.0,1.714
1.0,1.0,1.715
2.0,-2.0,1.716
5.0,-3.0,1.717
3.0,-5.0,1.718
2.0,-8.0,1.719
0.0,-9.0,1.72
-2.0,-13.0,1.721
0.0,-10.0,1.722
7.0,-8.0,1.723
14.0,-5.0,1.724
11.0,1.0,1.725
1.0,7.0,1.726
0.0,8.0,1.727
8.0,6.0,1.728
11.0,4.0,1.729
6.0,6.0,1.73
2.0,6.0,1.731
5.0,5.0,1.732
6.0,4.0,1.733
1.0,2.0,1.734
-3.0,-1.0,1.735
-2.0,-4.0,1.736
2.0,-3.0,1.737
3.0,-3.0,1.738
-2.0,-4.0,1.739
-6.0,-8.0,1.74
-5.0,-11.0,1.741
-3.0,-10.0,1.742
2.0,-7.0,1.743
9.0,-2.0,1.744
9.0,4.0,1.745
6.0,7.0,1.746
2.0,6.0,1.747
3.0,5.0,1.748
2.0,6.0,1.749
-4.0,4.0,1.75
-10.0,-1.0,1.751
-7.0,-1.0,1.752
3.0,5.0,1.753
11.0,9.0,1.754
12.0,4.0,1.755
11.0,-3.0,1.756
12.0,-2.0,1.757
12.0,-1.0,1.758
8.0,-2.0,1.759
-1.0,-4.0,1.76
-8.0,-5.0,1.761
-7.0,-2.0,1.762
2.0,0.0,1.763
13.0,0.0,1.764
14.0,1.0,1.765
12.0,4.0,1.766
11.0,4.0,1.767
9.0,1.0,1.768
4.0,0.0,1.769
0.0,3.0,1.77
0.0,2.0,1.771
1.0,-1.0,1.772
-1.0,-3.0,1.773
-3.0,-2.0,1.774
-2.0,-1.0,1.775
3.0,-2.0,1.776
8.0,-1.0,1.777
3.0,-1.0,1.778
-2.0,-4.0,1.779
-6.0,-7.0,1.78
-8.0,-13.0,1.781
-7.0,-10.0,1.782
0.0,-4.0,1.783
9.0,0.0,1.784
11.0,3.0,1.785
6.0,5.0,1.786
3.0,6.0,1.787
5.0,2.0,1.788
5.0,1.0,1.789
2.0,6.0,1.79
0.0,11.0,1.791
3.0,7.0,1.792
5.0,1.0,1.793
1.0,-1.0,1.794
-1.0,0.0,1.795
1.0,-1.0,1.796
4.0,-3.0,1.797
0.0,-4.0,1.798
-3.0,-3.0,1.799
-4.0,-4.0,1.8
-3.0,-8.0,1.801
-3.0,-9.0,1.802
0.0,-6.0,1.803
6.0,-1.0,1.804
9.0,1.0,1.805
4.0,4.0,1.806
-1.0,5.0,1.807
0.0,4.0,1.808
2.0,4.0,1.809
0.0,4.0,1.81
-1.0,1.0,1.811
0.0,0.0,1.812
0.0,0.0,1.813
-1.0,2.0,1.814
0.0,1.0,1.815
4.0,-3.0,1.816
5.0,-5.0,1.817
1.0,-7.0,1.818
-3.0,-8.0,1.819
-3.0,-11.0,1.82
-3.0,-12.0,1.821
-4.0,-9.0,1.822
1.0,-6.0,1.823
10.0,-6.0,1.824
13.0,-4.0,1.825
6.0,-1.0,1.826
0.0,2.0,1.827
3.0,2.0,1.828
5.0,2.0,1.829
2.0,4.0,1.83
2.0,7.0,1.831
2.0,5.0,1.832
0.0,1.0,1.833
-2.0,-1.0,1.834
1.0,-5.0,1.835
7.0,-6.0,1.836
11.0,-2.0,1.837
9.0,-1.0,1.838
8.0,0.0,1.839
8.0,-2.0,1.84
5.0,-8.0,1.841
0.0,-7.0,1.842
0.0,-3.0,1.843
5.0,2.0,1.844
12.0,8.0,1.845
11.0,10.0,1.846
10.0,8.0,1.847
10.0,7.0,1.848
8.0,8.0,1.849
6.0,9.0,1.85
4.0,9.0,1.851
7.0,6.0,1.852
7.0,2.0,1.853
5.0,1.0,1.854
4.0,1.0,1.855
3.0,-1.0,1.856
2.0,-3.0,1.857
-1.0,-7.0,1.858
-1.0,-7.0,1.859
-2.0,-4.0,1.86
-5.0,-5.0,1.861
-7.0,-3.0,1.862
-2.0,-3.0,1.863
2.0,-1.0,1.864
0.0,2.0,1.865
-6.0,5.0,1.866
-6.0,5.0,1.867
0.0,4.0,1.868
1.0,4.0,1.869
-2.0,8.0,1.87
-2.0,10.0,1.871
5.0,6.0,1.872
8.0,3.0,1.873
0.0,0.0,1.874
-4.0,-3.0,1.875
-1.0,-4.0,1.876
4.0,-4.0,1.877
2.0,-6.0,1.878
-7.0,-9.0,1.879
-12.0,-12.0,1.88
-7.0,-12.0,1.881
-1.0,-8.0,1.882
3.0,-4.0,1.883
5.0,-4.0,1.884
6.0,-2.0,1.885
5.0,1.0,1.886
0.0,2.0,1.887
0.0,-2.0,1.888
7.0,-4.0,1.889
14.0,0.0,1.89
15.0,6.0,1.891
10.0,6.0,1.892
5.0,3.0,1.893
2.0,2.0,1.894
3.0,2.0,1.895
4.0,-2.0,1.896
4.0,-5.0,1.897
5.0,-4.0,1.898
4.0,0.0,1.899
1.0,-2.0,1.9
-2.0,-11.0,1.901
-2.0,-12.0,1.902
2.0,-6.0,1.903
9.0,0.0,1.904
6.0,2.0,1.905
-1.0,4.0,1.906
-5.0,6.0,1.907
-1.0,7.0,1.908
4.0,6.0,1.909
3.0,6.0,1.91
-1.0,5.0,1.911
-3.0,3.0,1.912
-1.0,0.0,1.913
0.0,-1.0,1.914
0.0,0.0,1.915
1.0,-2.0,1.916
6.0,-4.0,1.917
8.0,-7.0,1.918
6.0,-7.0,1.919
1.0,-6.0,1.92
0.0,-11.0,1.921
1.0,-13.0,1.922
5.0,-8.0,1.923
11.0,-1.0,1.924
12.0,3.0,1.925
7.0,4.0,1.926
1.0,2.0,1.927
2.0,1.0,1.928
5.0,2.0,1.929
3.0,3.0,1.93
-1.0,4.0,1.931
-2.0,5.0,1.932
0.0,4.0,1.933
1.0,1.0,1.934
0.0,-3.0,1.935
2.0,-5.0,1.936
8.0,-3.0,1.937
6.0,-2.0,1.938
1.0,-5.0,1.939
-5.0,-7.0,1.94
-7.0,-9.0,1.941
-3.0,-6.0,1.942
4.0,-2.0,1.943
10.0,-1.0,1.944
10.0,0.0,1.945
0.0,0.0,1.946
-7.0,3.0,1.947
-5.0,4.0,1.948
2.0,6.0,1.949
7.0,7.0,1.95
8.0,5.0,1.951
4.0,2.0,1.952
-1.0,3.0,1.953
-5.0,8.0,1.954
-1.0,9.0,1.955
8.0,4.0,1.956
15.0,-2.0,1.957
10.0,-7.0,1.958
3.0,-7.0,1.959
0.0,-8.0,1.96
0.0,-10.0,1.961
1.0,-9.0,1.962
6.0,-3.0,1.963
12.0,3.0,1.964
12.0,7.0,1.965
6.0,9.0,1.966
0.0,8.0,1.967
-1.0,1.0,1.968
-4.0,-6.0,1.969
-8.0,-8.0,1.97
-7.0,-3.0,1.971
-1.0,1.0,1.972
1.0,0.0,1.973
-2.0,-3.0,1.974
-3.0,-4.0,1.975
0.0,-4.0,1.976
4.0,-6.0,1.977
2.0,-10.0,1.978
0.0,-7.0,1.979
1.0,-4.0,1.98
5.0,-6.0,1.981
5.0,-8.0,1.982
5.0,-5.0,1.983
10.0,2.0,1.984
10.0,8.0,1.985
3.0,9.0,1.986
-1.0,5.0,1.987
-1.0,3.0,1.988
1.0,4.0,1.989
0.0,7.0,1.99
1.0,8.0,1.991
3.0,7.0,1.992
3.0,5.0,1.993
1.0,3.0,1.994
0.0,2.0,1.995
1.0,-1.0,1.996
1.0,-3.0,1.997
0.0,-6.0,1.998
2.0,-7.0,1.999
4.0,-8.0,2.0
4.0,-9.0,2.001
6.0,10.0,2.002
12.0,59.0,2.003
18.0,128.0,2.004
17.0,178.0,2.005
14.0,169.0,2.006
11.0,99.0,2.007
11.0,22.0,2.008
8.0,-11.0,2.009
7.0,-10.0,2.01
10.0,-26.0,2.011
13.0,-82.0,2.012
13.0,-152.0,2.013
13.0,-196.0,2.014
16.0,-209.0,2.015
18.0,-203.0,2.016
7.0,-184.0,2.017
-15.0,-147.0,2.018
-30.0,-94.0,2.019
-30.0,-46.0,2.02
-24.0,-19.0,2.021
-23.0,-4.0,2.022
-21.0,17.0,2.023
-13.0,42.0,2.024
-6.0,64.0,2.025
-7.0,76.0,2.026
-10.0,79.0,2.027
-6.0,74.0,2.028
1.0,68.0,2.029
4.0,68.0,2.03
1.0,79.0,2.031
0.0,98.0,2.032
2.0,115.0,2.033
3.0,112.0,2.034
0.0,77.0,2.035
-2.0,13.0,2.036
-1.0,-40.0,2.037
1.0,-72.0,2.038
7.0,-77.0,2.039
13.0,-68.0,2.04
22.0,-54.0,2.041
32.0,-31.0,2.042
45.0,-5.0,2.043
52.0,12.0,2.044
50.0,26.0,2.045
43.0,36.0,2.046
39.0,41.0,2.047
36.0,41.0,2.048
25.0,38.0,2.049
5.0,29.0,2.05
-16.0,0.0,2.051
-41.0,-41.0,2.052
-68.0,-67.0,2.053
-80.0,-58.0,2.054
-66.0,-32.0,2.055
-39.0,-17.0,2.056
-24.0,-11.0,2.057
-25.0,-4.0,2.058
-22.0,13.0,2.059
-14.0,26.0,2.06
-6.0,23.0,2.061
-4.0,21.0,2.062
5.0,25.0,2.063
25.0,26.0,2.064
38.0,20.0,2.065
39.0,12.0,2.066
36.0,6.0,2.067
35.0,4.0,2.068
31.0,8.0,2.069
20.0,28.0,2.07
11.0,68.0,2.071
9.0,125.0,2.072
12.0,170.0,2.073
17.0,164.0,2.074
21.0,91.0,2.075
22.0,-23.0,2.076
20.0,-131.0,2.077
12.0,-199.0,2.078
6.0,-165.0,2.079
6.0,14.0,2.08
11.0,267.0,2.081
17.0,411.0,2.082
19.0,319.0,2.083
8.0,73.0,2.084
-16.0,-154.0,2.085
-33.0,-294.0,2.086
-28.0,-369.0,2.087
-19.0,-343.0,2.088
-27.0,-158.0,2.089
-47.0,123.0,2.09
-49.0,357.0,2.091
-30.0,488.0,2.092
-9.0,556.0,2.093
14.0,570.0,2.094
45.0,503.0,2.095
68.0,369.0,2.096
59.0,181.0,2.097
29.0,-150.0,2.098
17.0,-593.0,2.099
27.0,-948.0,2.1
30.0,-1088.0,2.101
8.0,-1124.0,2.102
-15.0,-1184.0,2.103
-23.0,-1161.0,2.104
-25.0,-914.0,2.105
-28.0,-551.0,2.106
-25.0,-265.0,2.107
-25.0,-47.0,2.108
-39.0,208.0,2.109
-57.0,438.0,2.11
-56.0,505.0,2.111
-33.0,445.0,2.112
-10.0,400.0,2.113
12.0,405.0,2.114
38.0,429.0,2.115
57.0,493.0,2.116
57.0,605.0,2.117
59.0,688.0,2.118
75.0,668.0,2.119
89.0,578.0,2.12
84.0,464.0,2.121
82.0,308.0,2.122
108.0,120.0,2.123
127.0,-15.0,2.124
73.0,-87.0,2.125
-33.0,-204.0,2.126
-101.0,-372.0,2.127
-95.0,-433.0,2.128
-68.0,-306.0,2.129
-71.0,-130.0,2.13
-81.0,-63.0,2.131
-57.0,-94.0,2.132
-18.0,-133.0,2.133
-14.0,-142.0,2.134
-35.0,-87.0,2.135
-34.0,65.0,2.136
-1.0,241.0,2.137
25.0,307.0,2.138
22.0,252.0,2.139
30.0,236.0,2.14
96.0,364.0,2.141
178.0,518.0,2.142
188.0,587.0,2.143
118.0,725.0,2.144
51.0,1127.0,2.145
35.0,1605.0,2.146
10.0,1674.0,2.147
-89.0,1115.0,2.148
-215.0,206.0,2.149
-265.0,-697.0,2.15
-227.0,-1525.0,2.151
-185.0,-2271.0,2.152
-175.0,-2695.0,2.153
-148.0,-2576.0,2.154
-82.0,-2089.0,2.155
-31.0,-1602.0,2.156
-36.0,-1225.0,2.157
-65.0,-775.0,2.158
-57.0,-272.0,2.159
-17.0,106.0,2.16
14.0,355.0,2.161
26.0,635.0,2.162
38.0,878.0,2.163
51.0,789.0,2.164
58.0,327.0,2.165
69.0,-159.0,2.166
89.0,-369.0,2.167
99.0,-320.0,2.168
84.0,-98.0,2.169
71.0,348.0,2.17
94.0,978.0,2.171
128.0,1475.0,2.172
117.0,1558.0,2.173
53.0,1293.0,2.174
-11.0,928.0,2.175
-34.0,522.0,2.176
-22.0,16.0,2.177
-111.0,-15.0,2.178
-137.0,173.0,2.179
-149.0,364.0,2.18
-116.0,567.0,2.181
-77.0,705.0,2.182
-14.0,647.0,2.183
39.0,518.0,2.184
71.0,172.0,2.185
95.0,-197.0,2.186
88.0,-639.0,2.187
79.0,-1026.0,2.188
63.0,-1244.0,2.189
50.0,-1375.0,2.19
50.0,-1245.0,2.191
57.0,-1086.0,2.192
82.0,-845.0,2.193
94.0,-643.0,2.194
59.0,-559.0,2.195
29.0,-467.0,2.196
16.0,-351.0,2.197
-135.0,-14.0,2.198
-166.0,174.0,2.199
-180.0,365.0,2.2
-141.0,568.0,2.201
-94.0,707.0,2.202
-20.0,649.0,2.203
44.0,519.0,2.204
83.0,173.0,2.205
111.0,-197.0,2.206
103.0,-640.0,2.207
92.0,-1027.0,2.208
73.0,-1245.0,2.209
58.0,-1377.0,2.21
58.0,-1246.0,2.211
66.0,-1088.0,2.212
96.0,-846.0,2.213
110.0,-643.0,2.214
68.0,-559.0,2.215
33.0,-467.0,2.216
17.0,-351.0,2.217
5.0,380.0,2.218
-16.0,804.0,2.219
-77.0,1236.0,2.22
-147.0,1695.0,2.221
-184.0,2007.0,2.222
-189.0,1877.0,2.223
-188.0,1584.0,2.224
-171.0,803.0,2.225
-106.0,-33.0,2.226
-4.0,-1034.0,2.227
76.0,-1908.0,2.228
97.0,-2401.0,2.229
85.0,-2698.0,2.23
79.0,-2403.0,2.231
84.0,-2045.0,2.232
89.0,-1499.0,2.233
94.0,-1042.0,2.234
107.0,-852.0,2.235
120.0,-644.0,2.236
122.0,-383.0,2.237
100.0,-76.0,2.238
57.0,400.0,2.239
-2.0,886.0,2.24
-65.0,1292.0,2.241
-107.0,1541.0,2.242
-106.0,1541.0,2.243
-72.0,1250.0,2.244
-57.0,777.0,2.245
-111.0,346.0,2.246
-211.0,72.0,2.247
-270.0,-131.0,2.248
-231.0,-348.0,2.249
-137.0,-476.0,2.25
-58.0,-405.0,2.251
-3.0,-249.0,2.252
48.0,-222.0,2.253
96.0,-295.0,2.254
126.0,-221.0,2.255
149.0,133.0,2.256
169.0,580.0,2.257
152.0,899.0,2.258
89.0,939.0,2.259
34.0,773.0,2.26
39.0,584.0,2.261
60.0,451.0,2.262
36.0,264.0,2.263
-7.0,-40.0,2.264
-2.0,-265.0,2.265
51.0,-170.0,2.266
86.0,140.0,2.267
81.0,307.0,2.268
73.0,235.0,2.269
85.0,215.0,2.27
83.0,449.0,2.271
31.0,718.0,2.272
-52.0,721.0,2.273
-129.0,458.0,2.274
-176.0,53.0,2.275
-178.0,-570.0,2.276
-123.0,-1461.0,2.277
-13.0,-3358.0,2.278
99.0,-2424.0,2.279
154.0,-1567.0,2.28
152.0,-939.0,2.281
129.0,-376.0,2.282
94.0,-14.0,2.283
33.0,274.0,2.284
-29.0,334.0,2.285
-50.0,466.0,2.286
-39.0,812.0,2.287
-57.0,1053.0,2.288
-106.0,978.0,2.289
-112.0,950.0,2.29
-46.0,1072.0,2.291
13.0,1249.0,2.292
-2.0,1588.0,2.293
-48.0,1918.0,2.294
-46.0,2227.0,2.295
-20.0,2327.0,2.296
-34.0,1804.0,2.297
-82.0,-2177.0,2.298
-111.0,-1535.0,2.299
-139.0,-946.0,2.3
-159.0,-515.0,2.301
-154.0,-128.0,2.302
-74.0,121.0,2.303
-2.0,319.0,2.304
43.0,360.0,2.305
80.0,451.0,2.306
92.0,689.0,2.307
103.0,855.0,2.308
110.0,803.0,2.309
112.0,784.0,2.31
96.0,868.0,2.311
74.0,989.0,2.312
39.0,1222.0,2.313
17.0,1449.0,2.314
39.0,1661.0,2.315
54.0,1730.0,2.316
48.0,1371.0,2.317
26.0,998.0,2.318
-17.0,666.0,2.319
13.0,400.0,2.32
73.0,-12.0,2.321
102.0,-610.0,2.322
137.0,-1254.0,2.323
219.0,-1800.0,2.324
301.0,-2178.0,2.325
297.0,-2362.0,2.326
211.0,-2328.0,2.327
102.0,-2080.0,2.328
-17.0,-1670.0,2.329
-165.0,-1212.0,2.33
-315.0,-843.0,2.331
-407.0,-627.0,2.332
-420.0,-473.0,2.333
-390.0,-206.0,2.334
-340.0,250.0,2.335
-279.0,776.0,2.336
-227.0,1154.0,2.337
-192.0,1309.0,2.338
-146.0,1275.0,2.339
-57.0,1153.0,2.34
52.0,1017.0,2.341
132.0,920.0,2.342
179.0,885.0,2.343
219.0,881.0,2.344
256.0,804.0,2.345
255.0,585.0,2.346
210.0,270.0,2.347
183.0,-44.0,2.348
223.0,-305.0,2.349
291.0,-525.0,2.35
285.0,-716.0,2.351
162.0,-861.0,2.352
7.0,-860.0,2.353
-76.0,-529.0,2.354
-77.0,180.0,2.355
-47.0,968.0,2.356
-9.0,1385.0,2.357
42.0,1305.0,2.358
68.0,880.0,2.359
26.0,200.0,2.36
-51.0,-769.0,2.361
-107.0,-1788.0,2.362
-141.0,-2274.0,2.363
-167.0,-1944.0,2.364
-151.0,-1174.0,2.365
-71.0,-481.0,2.366
4.0,34.0,2.367
0.0,482.0,2.368
-42.0,816.0,2.369
-27.0,937.0,2.37
36.0,877.0,2.371
60.0,622.0,2.372
27.0,63.0,2.373
-10.0,-668.0,2.374
-32.0,-1084.0,2.375
-73.0,-863.0,2.376
-122.0,-267.0,2.377
-145.0,293.0,2.378
-142.0,639.0,2.379
-133.0,924.0,2.38
-107.0,1022.0,2.381
-68.0,1080.0,2.382
13.0,1017.0,2.383
75.0,857.0,2.384
80.0,410.0,2.385
83.0,11.0,2.386
79.0,-242.0,2.387
70.0,-486.0,2.388
46.0,-695.0,2.389
36.0,-872.0,2.39
68.0,-949.0,2.391
94.0,-980.0,2.392
103.0,-872.0,2.393
108.0,-708.0,2.394
101.0,-374.0,2.395
84.0,-78.0,2.396
42.0,103.0,2.397
0.0,252.0,2.398
-47.0,335.0,2.399
-88.0,458.0,2.4
-100.0,449.0,2.401
-64.0,208.0,2.402
7.0,-163.0,2.403
85.0,-460.0,2.404
154.0,-485.0,2.405
205.0,-128.0,2.406
198.0,506.0,2.407
96.0,1130.0,2.408
-76.0,1513.0,2.409
-232.0,1592.0,2.41
-290.0,1368.0,2.411
-237.0,915.0,2.412
-130.0,435.0,2.413
-33.0,24.0,2.414
33.0,-537.0,2.415
83.0,-1426.0,2.416
114.0,-2248.0,2.417
100.0,-2495.0,2.418
51.0,-2032.0,2.419
18.0,-1315.0,2.42
-3.0,-721.0,2.421
-73.0,-180.0,2.422
-199.0,384.0,2.423
-266.0,801.0,2.424
-202.0,964.0,2.425
-81.0,1006.0,2.426
-18.0,990.0,2.427
-11.0,790.0,2.428
13.0,418.0,2.429
52.0,160.0,2.43
59.0,230.0,2.431
41.0,537.0,2.432
45.0,862.0,2.433
66.0,1046.0,2.434
71.0,945.0,2.435
73.0,446.0,2.436
105.0,-288.0,2.437
146.0,-979.0,2.438
146.0,-1371.0,2.439
110.0,-1583.0,2.44
83.0,-1257.0,2.441
62.0,-853.0,2.442
2.0,-218.0,2.443
-77.0,254.0,2.444
-97.0,234.0,2.445
-22.0,204.0,2.446
74.0,144.0,2.447
119.0,51.0,2.448
126.0,-134.0,2.449
154.0,-293.0,2.45
183.0,-371.0,2.451
135.0,-344.0,2.452
10.0,5.0,2.453
-78.0,302.0,2.454
-67.0,442.0,2.455
-38.0,617.0,2.456
-100.0,897.0,2.457
-242.0,1225.0,2.458
-322.0,1705.0,2.459
-256.0,2069.0,2.46
-121.0,2166.0,2.461
-40.0,1952.0,2.462
-27.0,1371.0,2.463
-5.0,299.0,2.464
74.0,-1232.0,2.465
167.0,-2737.0,2.466
203.0,-3480.0,2.467
157.0,-3139.0,2.468
63.0,-2116.0,2.469
-37.0,-1081.0,2.47
-125.0,-378.0,2.471
-189.0,17.0,2.472
-198.0,211.0,2.473
-119.0,285.0,2.474
26.0,338.0,2.475
147.0,433.0,2.476
168.0,521.0,2.477
96.0,548.0,2.478
7.0,507.0,2.479
-40.0,412.0,2.48
-47.0,299.0,2.481
-44.0,286.0,2.482
-41.0,454.0,2.483
-31.0,679.0,2.484
-9.0,732.0,2.485
22.0,550.0,2.486
60.0,297.0,2.487
90.0,114.0,2.488
89.0,10.0,2.489
59.0,-67.0,2.49
43.0,-171.0,2.491
70.0,-375.0,2.492
105.0,-719.0,2.493
105.0,-1098.0,2.494
75.0,-1298.0,2.495
44.0,-1181.0,2.496
17.0,-841.0,2.497
-16.0,-217.0,2.498
-27.0,-131.0,2.499
-7.0,-141.0,2.5
0.0,-435.0,2.501
-22.0,-696.0,2.502
-20.0,-851.0,2.503
55.0,-927.0,2.504
133.0,-762.0,2.505
129.0,-483.0,2.506
73.0,134.0,2.507
37.0,650.0,2.508
-19.0,856.0,2.509
-180.0,955.0,2.51
-388.0,733.0,2.511
-461.0,541.0,2.512
-329.0,443.0,2.513
-119.0,383.0,2.514
10.0,441.0,2.515
44.0,455.0,2.516
56.0,337.0,2.517
69.0,-270.0,2.518
55.0,-168.0,2.519
32.0,-179.0,2.52
-17.0,-528.0,2.521
-45.0,-837.0,2.522
-7.0,-1021.0,2.523
39.0,-1111.0,2.524
111.0,-915.0,2.525
162.0,-585.0,2.526
150.0,148.0,2.527
124.0,759.0,2.528
61.0,1003.0,2.529
5.0,1120.0,2.53
-32.0,857.0,2.531
-67.0,630.0,2.532
-96.0,514.0,2.533
-106.0,443.0,2.534
-56.0,511.0,2.535
-9.0,528.0,2.536
32.0,388.0,2.537
81.0,252.0,2.538
151.0,109.0,2.539
206.0,-239.0,2.54
229.0,-935.0,2.541
222.0,-1783.0,2.542
188.0,-2395.0,2.543
127.0,-2531.0,2.544
45.0,-2231.0,2.545
-44.0,-1680.0,2.546
-121.0,-1067.0,2.547
-169.0,-546.0,2.548
-176.0,-183.0,2.549
-154.0,90.0,2.55
-119.0,429.0,2.551
-81.0,909.0,2.552
-61.0,1426.0,2.553
-99.0,1767.0,2.554
-189.0,1790.0,2.555
-241.0,1545.0,2.556
-180.0,1215.0,2.557
-25.0,825.0,2.558
93.0,328.0,2.559
93.0,-217.0,2.56
32.0,-523.0,2.561
3.0,-365.0,2.562
14.0,28.0,2.563
10.0,197.0,2.564
-18.0,16.0,2.565
-24.0,-218.0,2.566
24.0,-282.0,2.567
102.0,-297.0,2.568
172.0,-422.0,2.569
205.0,-538.0,2.57
188.0,-431.0,2.571
127.0,-120.0,2.572
56.0,183.0,2.573
1.0,342.0,2.574
-48.0,386.0,2.575
-94.0,386.0,2.576
-104.0,381.0,2.577
-71.0,409.0,2.578
-37.0,525.0,2.579
-50.0,718.0,2.58
-77.0,904.0,2.581
-55.0,1037.0,2.582
16.0,1141.0,2.583
78.0,1216.0,2.584
106.0,1141.0,2.585
133.0,795.0,2.586
191.0,268.0,2.587
248.0,-212.0,2.588
252.0,-521.0,2.589
192.0,-665.0,2.59
117.0,-585.0,2.591
89.0,-242.0,2.592
108.0,25.0,2.593
102.0,-390.0,2.594
15.0,-1627.0,2.595
-125.0,-2976.0,2.596
-236.0,-3511.0,2.597
-286.0,-2932.0,2.598
-288.0,-1624.0,2.599
-273.0,-250.0,2.6
-249.0,692.0,2.601
-213.0,1013.0,2.602
-171.0,831.0,2.603
-131.0,499.0,2.604
-94.0,320.0,2.605
-53.0,307.0,2.606
-11.0,284.0,2.607
21.0,157.0,2.608
33.0,-17.0,2.609
43.0,-197.0,2.61
80.0,-397.0,2.611
135.0,-573.0,2.612
164.0,-578.0,2.613
133.0,-303.0,2.614
59.0,157.0,2.615
-7.0,573.0,2.616
-25.0,778.0,2.617
-4.0,795.0,2.618
23.0,744.0,2.619
23.0,690.0,2.62
11.0,626.0,2.621
32.0,565.0,2.622
86.0,514.0,2.623
119.0,493.0,2.624
99.0,563.0,2.625
70.0,628.0,2.626
73.0,672.0,2.627
74.0,658.0,2.628
16.0,467.0,2.629
-80.0,234.0,2.63
-141.0,-124.0,2.631
-138.0,-446.0,2.632
-94.0,-655.0,2.633
-24.0,-766.0,2.634
62.0,-580.0,2.635
117.0,-386.0,2.636
88.0,-172.0,2.637
-31.0,32.0,2.638
-155.0,199.0,2.639
-206.0,307.0,2.64
-179.0,307.0,2.641
-135.0,258.0,2.642
-108.0,262.0,2.643
-69.0,339.0,2.644
31.0,437.0,2.645
165.0,455.0,2.646
241.0,226.0,2.647
205.0,-315.0,2.648
104.0,-865.0,2.649
17.0,-934.0,2.65
-22.0,-495.0,2.651
-14.0,-96.0,2.652
27.0,-72.0,2.653
79.0,-18.0,2.654
106.0,532.0,2.655
102.0,1245.0,2.656
97.0,1393.0,2.657
107.0,715.0,2.658
119.0,-401.0,2.659
110.0,-1534.0,2.66
77.0,-2461.0,2.661
18.0,-2903.0,2.662
-60.0,-2656.0,2.663
-139.0,-1976.0,2.664
-195.0,-1356.0,2.665
-218.0,-916.0,2.666
-211.0,-427.0,2.667
-181.0,134.0,2.668
-146.0,524.0,2.669
-108.0,704.0,2.67
-54.0,916.0,2.671
37.0,1255.0,2.672
141.0,1530.0,2.673
191.0,1578.0,2.674
156.0,1441.0,2.675
73.0,1203.0,2.676
-3.0,907.0,2.677
-68.0,544.0,2.678
-117.0,196.0,2.679
-130.0,-75.0,2.68
-90.0,-213.0,2.681
-29.0,-165.0,2.682
0.0,2.0,2.683
-9.0,134.0,2.684
-16.0,213.0,2.685
2.0,386.0,2.686
32.0,673.0,2.687
54.0,836.0,2.688
80.0,677.0,2.689
120.0,306.0,2.69
164.0,-48.0,2.691
192.0,-324.0,2.692
197.0,-580.0,2.693
181.0,-773.0,2.694
141.0,-792.0,2.695
82.0,-621.0,2.696
20.0,-379.0,2.697
-53.0,-176.0,2.698
-134.0,-64.0,2.699
-219.0,31.0,2.7
-277.0,79.0,2.701
-261.0,121.0,2.702
-154.0,147.0,2.703
-6.0,197.0,2.704
100.0,317.0,2.705
127.0,437.0,2.706
127.0,558.0,2.707
147.0,640.0,2.708
164.0,606.0,2.709
130.0,513.0,2.71
57.0,246.0,2.711
-14.0,-61.0,2.712
-82.0,-485.0,2.713
-159.0,-753.0,2.714
-201.0,-551.0,2.715
-157.0,-312.0,2.716
-65.0,36.0,2.717
-6.0,364.0,2.718
-5.0,495.0,2.719
-7.0,206.0,2.72
24.0,-533.0,2.721
59.0,-1353.0,2.722
72.0,-1699.0,2.723
84.0,-1296.0,2.724
93.0,-462.0,2.725
65.0,139.0,2.726
-2.0,148.0,2.727
-49.0,-167.0,2.728
-49.0,-260.0,2.729
-35.0,89.0,2.73
-33.0,667.0,2.731
-27.0,1152.0,2.732
-14.0,1331.0,2.733
-16.0,1064.0,2.734
-27.0,310.0,2.735
-12.0,-703.0,2.736
22.0,-1473.0,2.737
31.0,-1704.0,2.738
13.0,-1390.0,2.739
6.0,-866.0,2.74
29.0,-440.0,2.741
37.0,-128.0,2.742
16.0,200.0,2.743
6.0,567.0,2.744
16.0,850.0,2.745
7.0,915.0,2.746
-28.0,723.0,2.747
-46.0,364.0,2.748
-31.0,30.0,2.749
-32.0,-111.0,2.75
-79.0,-70.0,2.751
-133.0,0.0,2.752
-135.0,26.0,2.753
-80.0,55.0,2.754
-10.0,119.0,2.755
33.0,162.0,2.756
52.0,167.0,2.757
82.0,204.0,2.758
132.0,324.0,2.759
155.0,474.0,2.76
117.0,571.0,2.761
59.0,595.0,2.762
39.0,533.0,2.763
48.0,373.0,2.764
37.0,123.0,2.765
14.0,-166.0,2.766
18.0,-423.0,2.767
46.0,-542.0,2.768
51.0,-443.0,2.769
36.0,-174.0,2.77
36.0,94.0,2.771
47.0,239.0,2.772
35.0,280.0,2.773
3.0,245.0,2.774
-13.0,82.0,2.775
-19.0,-223.0,2.776
-35.0,-516.0,2.777
-54.0,-634.0,2.778
-41.0,-519.0,2.779
-14.0,-281.0,2.78
-7.0,-66.0,2.781
-12.0,93.0,2.782
3.0,272.0,2.783
24.0,575.0,2.784
-2.0,993.0,2.785
-76.0,1342.0,2.786
-137.0,1412.0,2.787
-141.0,1166.0,2.788
-97.0,689.0,2.789
-31.0,-13.0,2.79
31.0,-951.0,2.791
69.0,-1881.0,2.792
65.0,-2336.0,2.793
31.0,-2069.0,2.794
-7.0,-1330.0,2.795
-25.0,-591.0,2.796
-16.0,-164.0,2.797
10.0,-56.0,2.798
20.0,-180.0,2.799
-3.0,-350.0,2.8
-29.0,-343.0,2.801
-30.0,-45.0,2.802
-25.0,435.0,2.803
-45.0,856.0,2.804
-68.0,1026.0,2.805
-43.0,921.0,2.806
26.0,658.0,2.807
83.0,408.0,2.808
102.0,267.0,2.809
107.0,200.0,2.81
106.0,114.0,2.811
78.0,4.0,2.812
34.0,-21.0,2.813
19.0,133.0,2.814
42.0,416.0,2.815
57.0,663.0,2.816
41.0,767.0,2.817
11.0,737.0,2.818
-19.0,535.0,2.819
-45.0,39.0,2.82
-68.0,-744.0,2.821
-86.0,-1434.0,2.822
-96.0,-1557.0,2.823
-115.0,-1125.0,2.824
-135.0,-701.0,2.825
-125.0,-720.0,2.826
-71.0,-959.0,2.827
1.0,-910.0,2.828
39.0,-476.0,2.829
27.0,-4.0,2.83
-12.0,246.0,2.831
-45.0,350.0,2.832
-65.0,448.0,2.833
-74.0,537.0,2.834
-58.0,577.0,2.835
-2.0,597.0,2.836
71.0,614.0,2.837
130.0,594.0,2.838
150.0,540.0,2.839
164.0,502.0,2.84
179.0,464.0,2.841
171.0,386.0,2.842
134.0,271.0,2.843
94.0,177.0,2.844
53.0,119.0,2.845
2.0,75.0,2.846
-41.0,39.0,2.847
-39.0,32.0,2.848
1.0,19.0,2.849
23.0,-32.0,2.85
2.0,-102.0,2.851
-28.0,-128.0,2.852
-36.0,-100.0,2.853
-20.0,-58.0,2.854
5.0,-38.0,2.855
30.0,-39.0,2.856
42.0,-48.0,2.857
33.0,-58.0,2.858
12.0,-57.0,2.859
-7.0,-46.0,2.86
-19.0,-41.0,2.861
-27.0,-41.0,2.862
-36.0,-41.0,2.863
-52.0,-43.0,2.864
-75.0,-56.0,2.865
-93.0,-75.0,2.866
-84.0,-77.0,2.867
-49.0,-58.0,2.868
-11.0,-40.0,2.869
17.0,-34.0,2.87
32.0,-29.0,2.871
30.0,-21.0,2.872
12.0,-25.0,2.873
-11.0,-43.0,2.874
-37.0,-62.0,2.875
-65.0,-73.0,2.876
-69.0,-82.0,2.877
-27.0,-88.0,2.878
38.0,-82.0,2.879
61.0,-64.0,2.88
39.0,-52.0,2.881
22.0,-44.0,2.882
42.0,-33.0,2.883
59.0,-19.0,2.884
41.0,-12.0,2.885
12.0,-9.0,2.886
-1.0,2.0,2.887
-7.0,18.0,2.888
-10.0,32.0,2.889
3.0,49.0,2.89
26.0,80.0,2.891
26.0,116.0,2.892
4.0,129.0,2.893
0.0,104.0,2.894
21.0,55.0,2.895
39.0,14.0,2.896
34.0,10.0,2.897
10.0,21.0,2.898
-31.0,0.0,2.899
-89.0,-46.0,2.9
-126.0,-158.0,2.901
-106.0,-235.0,2.902
-57.0,-204.0,2.903
-37.0,-173.0,2.904
-42.0,-140.0,2.905
-14.0,-107.0,2.906
50.0,-74.0,2.907
81.0,-48.0,2.908
48.0,-44.0,2.909
13.0,-35.0,2.91
22.0,-13.0,2.911
48.0,17.0,2.912
42.0,71.0,2.913
22.0,115.0,2.914
31.0,125.0,2.915
61.0,125.0,2.916
73.0,90.0,2.917
55.0,61.0,2.918
31.0,65.0,2.919
17.0,68.0,2.92
7.0,48.0,2.921
-7.0,29.0,2.922
-16.0,31.0,2.923
-18.0,38.0,2.924
-18.0,36.0,2.925
-20.0,30.0,2.926
-20.0,27.0,2.927
-16.0,25.0,2.928
-12.0,18.0,2.929
-14.0,11.0,2.93
-20.0,7.0,2.931
-28.0,0.0,2.932
-28.0,-9.0,2.933
-19.0,-13.0,2.934
-12.0,-12.0,2.935
-18.0,-15.0,2.936
-31.0,-18.0,2.937
-43.0,-18.0,2.938
-44.0,-14.0,2.939
-45.0,-12.0,2.94
-50.0,-14.0,2.941
-36.0,-11.0,2.942
6.0,-2.0,2.943
55.0,5.0,2.944
78.0,2.0,2.945
76.0,-7.0,2.946
79.0,-16.0,2.947
89.0,-16.0,2.948
71.0,-10.0,2.949
2.0,-4.0,2.95
-82.0,-4.0,2.951
-119.0,-10.0,2.952
-90.0,-20.0,2.953
-20.0,-25.0,2.954
44.0,-22.0,2.955
77.0,-17.0,2.956
87.0,-13.0,2.957
96.0,-7.0,2.958
117.0,12.0,2.959
136.0,37.0,2.96
127.0,41.0,2.961
71.0,25.0,2.962
-6.0,6.0,2.963
-50.0,2.0,2.964
-37.0,9.0,2.965
-2.0,8.0,2.966
2.0,-3.0,2.967
-29.0,-10.0,2.968
-52.0,-6.0,2.969
-45.0,0.0,2.97
-33.0,-1.0,2.971
-48.0,-9.0,2.972
-77.0,-17.0,2.973
-93.0,-21.0,2.974
-92.0,-23.0,2.975
-83.0,-21.0,2.976
-63.0,-16.0,2.977
-26.0,-10.0,2.978
15.0,4.0,2.979
42.0,22.0,2.98
57.0,27.0,2.981
67.0,16.0,2.982
72.0,-1.0,2.983
65.0,-5.0,2.984
43.0,8.0,2.985
21.0,11.0,2.986
5.0,-2.0,2.987
-3.0,-13.0,2.988
-5.0,-1.0,2.989
-4.0,21.0,2.99
3.0,23.0,2.991
13.0,6.0,2.992
11.0,-1.0,2.993
-1.0,3.0,2.994
-20.0,5.0,2.995
-39.0,0.0,2.996
-58.0,0.0,2.997
-82.0,3.0,2.998
-84.0,-2.0,2.999
-40.0,-20.0,3.0
39.0,-44.0,3.001
98.0,-54.0,3.002
94.0,-48.0,3.003
51.0,-35.0,3.004
18.0,-19.0,3.005
3.0,1.0,3.006
-24.0,36.0,3.007
-67.0,67.0,3.008
-83.0,71.0,3.009
-44.0,40.0,3.01
15.0,5.0,3.011
36.0,-3.0,3.012
16.0,8.0,3.013
3.0,14.0,3.014
34.0,2.0,3.015
79.0,-7.0,3.016
89.0,-2.0,3.017
54.0,6.0,3.018
22.0,6.0,3.019
20.0,-3.0,3.02
28.0,-14.0,3.021
16.0,-18.0,3.022
-1.0,-14.0,3.023
0.0,-10.0,3.024
5.0,-6.0,3.025
-12.0,-4.0,3.026
-37.0,-9.0,3.027
-40.0,-14.0,3.028
-40.0,-12.0,3.029
-77.0,-3.0,3.03
-129.0,7.0,3.031
-127.0,6.0,3.032
-51.0,-3.0,3.033
26.0,-8.0,3.034
50.0,-4.0,3.035
52.0,0.0,3.036
80.0,1.0,3.037
117.0,-3.0,3.038
116.0,-4.0,3.039
78.0,0.0,3.04
45.0,7.0,3.041
27.0,18.0,3.042
2.0,23.0,3.043
-20.0,16.0,3.044
-14.0,4.0,3.045
2.0,4.0,3.046
-7.0,15.0,3.047
-30.0,17.0,3.048
-29.0,4.0,3.049
-7.0,-6.0,3.05
-4.0,-5.0,3.051
-20.0,-3.0,3.052
-23.0,-9.0,3.053
-8.0,-14.0,3.054
-1.0,-13.0,3.055
-7.0,-12.0,3.056
-12.0,-12.0,3.057
-12.0,-13.0,3.058
-17.0,-9.0,3.059
-25.0,-9.0,3.06
-35.0,-15.0,3.061
-52.0,-15.0,3.062
-77.0,-7.0,3.063
-77.0,-5.0,3.064
-22.0,-10.0,3.065
63.0,-18.0,3.066
117.0,-20.0,3.067
117.0,-22.0,3.068
92.0,-28.0,3.069
76.0,-28.0,3.07
72.0,-16.0,3.071
62.0,-5.0,3.072
42.0,-5.0,3.073
6.0,-12.0,3.074
-52.0,-11.0,3.075
-109.0,14.0,3.076
-120.0,56.0,3.077
-70.0,97.0,3.078
1.0,116.0,3.079
37.0,99.0,3.08
29.0,51.0,3.081
6.0,11.0,3.082
-7.0,0.0,3.083
-20.0,12.0,3.084
-44.0,18.0,3.085
-67.0,2.0,3.086
-76.0,-19.0,3.087
-72.0,-28.0,3.088
-58.0,-24.0,3.089
-19.0,-24.0,3.09
51.0,-36.0,3.091
119.0,-55.0,3.092
133.0,-65.0,3.093
94.0,-41.0,3.094
54.0,20.0,3.095
55.0,78.0,3.096
78.0,85.0,3.097
89.0,29.0,3.098
81.0,-26.0,3.099
52.0,-32.0,3.1
1.0,-11.0,3.101
-44.0,-6.0,3.102
-49.0,-23.0,3.103
-22.0,-28.0,3.104
-8.0,-11.0,3.105
-25.0,-1.0,3.106
-34.0,-10.0,3.107
-12.0,-15.0,3.108
17.0,-7.0,3.109
13.0,-4.0,3.11
-26.0,-11.0,3.111
-78.0,-16.0,3.112
-118.0,-9.0,3.113
-119.0,-2.0,3.114
-74.0,-3.0,3.115
-23.0,1.0,3.116
7.0,11.0,3.117
28.0,11.0,3.118
64.0,-1.0,3.119
89.0,-9.0,3.12
67.0,-6.0,3.121
14.0,-2.0,3.122
-10.0,-8.0,3.123
5.0,-12.0,3.124
16.0,-3.0,3.125
3.0,9.0,3.126
-4.0,11.0,3.127
13.0,2.0,3.128
29.0,-8.0,3.129
24.0,-12.0,3.13
10.0,-7.0,3.131
-1.0,1.0,3.132
-14.0,8.0,3.133
-29.0,8.0,3.134
-37.0,7.0,3.135
-29.0,8.0,3.136
-6.0,8.0,3.137
45.0,-2.0,3.138
123.0,-6.0,3.139
184.0,12.0,3.14
160.0,45.0,3.141
60.0,69.0,3.142
-33.0,61.0,3.143
-58.0,32.0,3.144
-56.0,5.0,3.145
-79.0,-6.0,3.146
-111.0,-10.0,3.147
-105.0,-18.0,3.148
-69.0,-26.0,3.149
-45.0,-23.0,3.15
-38.0,-15.0,3.151
-37.0,-14.0,3.152
-57.0,-18.0,3.153
-102.0,-14.0,3.154
-121.0,-4.0,3.155
-74.0,2.0,3.156
-5.0,0.0,3.157
31.0,-6.0,3.158
51.0,-10.0,3.159
70.0,-11.0,3.16
87.0,-5.0,3.161
96.0,0.0,3.162
82.0,4.0,3.163
68.0,6.0,3.164
52.0,2.0,3.165
36.0,0.0,3.166
26.0,2.0,3.167
19.0,3.0,3.168
27.0,-4.0,3.169
28.0,-10.0,3.17
8.0,-10.0,3.171
-7.0,-9.0,3.172
-3.0,-9.0,3.173
-1.0,-8.0,3.174
-9.0,-7.0,3.175
-12.0,-5.0,3.176
5.0,0.0,3.177
19.0,5.0,3.178
21.0,7.0,3.179
23.0,0.0,3.18
-1.0,-9.0,3.181
-53.0,-12.0,3.182
-83.0,-10.0,3.183
-56.0,-9.0,3.184
-3.0,-6.0,3.185
32.0,-3.0,3.186
62.0,-4.0,3.187
103.0,-13.0,3.188
112.0,-23.0,3.189
52.0,-29.0,3.19
-33.0,-32.0,3.191
-68.0,-34.0,3.192
-48.0,-22.0,3.193
-36.0,12.0,3.194
-45.0,65.0,3.195
-23.0,110.0,3.196
48.0,121.0,3.197
121.0,86.0,3.198
122.0,35.0,3.199
53.0,10.0,3.2
-24.0,17.0,3.201
-78.0,31.0,3.202
-117.0,19.0,3.203
-131.0,-14.0,3.204
-91.0,-42.0,3.205
-25.0,-51.0,3.206
-1.0,-39.0,3.207
-33.0,-12.0,3.208
-73.0,12.0,3.209
-80.0,10.0,3.21
-71.0,-17.0,3.211
-61.0,-41.0,3.212
-28.0,-43.0,3.213
38.0,-32.0,3.214
103.0,-19.0,3.215
140.0,-8.0,3.216
158.0,2.0,3.217
164.0,2.0,3.218
143.0,-5.0,3.219
86.0,-10.0,3.22
19.0,-12.0,3.221
-27.0,-4.0,3.222
-43.0,14.0,3.223
-20.0,35.0,3.224
34.0,39.0,3.225
81.0,26.0,3.226
68.0,13.0,3.227
4.0,17.0,3.228
-55.0,22.0,3.229
-74.0,9.0,3.23
-72.0,-12.0,3.231
-65.0,-19.0,3.232
-53.0,-13.0,3.233
-34.0,-9.0,3.234
-21.0,-14.0,3.235
-8.0,-19.0,3.236
8.0,-18.0,3.237
11.0,-17.0,3.238
-7.0,-14.0,3.239
-33.0,-9.0,3.24
-46.0,-9.0,3.241
-49.0,-7.0,3.242
-43.0,-1.0,3.243
-16.0,6.0,3.244
25.0,7.0,3.245
42.0,2.0,3.246
21.0,-3.0,3.247
0.0,-1.0,3.248
6.0,3.0,3.249
21.0,5.0,3.25
16.0,4.0,3.251
7.0,3.0,3.252
12.0,1.0,3.253
17.0,-2.0,3.254
10.0,-4.0,3.255
2.0,-2.0,3.256
8.0,0.0,3.257
16.0,-2.0,3.258
10.0,-5.0,3.259
-3.0,-7.0,3.26
-10.0,-9.0,3.261
-8.0,-10.0,3.262
1.0,-8.0,3.263
18.0,-5.0,3.264
30.0,1.0,3.265
25.0,8.0,3.266
14.0,10.0,3.267
7.0,12.0,3.268
7.0,16.0,3.269
3.0,19.0,3.27
1.0,14.0,3.271
7.0,8.0,3.272
11.0,4.0,3.273
-1.0,2.0,3.274
-14.0,-4.0,3.275
-3.0,-16.0,3.276
26.0,-23.0,3.277
50.0,-29.0,3.278
60.0,-31.0,3.279
53.0,-28.0,3.28
37.0,-15.0,3.281
14.0,6.0,3.282
-14.0,26.0,3.283
-37.0,34.0,3.284
-36.0,36.0,3.285
-13.0,42.0,3.286
0.0,46.0,3.287
-29.0,38.0,3.288
-67.0,17.0,3.289
-56.0,-5.0,3.29
-11.0,-11.0,3.291
-5.0,-8.0,3.292
-51.0,-9.0,3.293
-76.0,-18.0,3.294
-34.0,-17.0,3.295
34.0,-8.0,3.296
75.0,-3.0,3.297
89.0,-11.0,3.298
89.0,-15.0,3.299
67.0,-7.0,3.3
29.0,-5.0,3.301
5.0,-12.0,3.302
6.0,-12.0,3.303
6.0,2.0,3.304
-11.0,11.0,3.305
-20.0,2.0,3.306
-11.0,-7.0,3.307
-2.0,-4.0,3.308
-5.0,4.0,3.309
-11.0,3.0,3.31
-11.0,-2.0,3.311
-18.0,0.0,3.312
-24.0,4.0,3.313
-19.0,0.0,3.314
-6.0,-11.0,3.315
-1.0,-16.0,3.316
-2.0,-13.0,3.317
-1.0,-15.0,3.318
4.0,-17.0,3.319
2.0,-15.0,3.32
-3.0,-13.0,3.321
-2.0,-8.0,3.322
0.0,-6.0,3.323
-2.0,-3.0,3.324
-1.0,0.0,3.325
14.0,2.0,3.326
29.0,0.0,3.327
31.0,-2.0,3.328
30.0,-3.0,3.329
39.0,0.0,3.33
54.0,0.0,3.331
63.0,-6.0,3.332
68.0,-22.0,3.333
60.0,-32.0,3.334
26.0,-20.0,3.335
-25.0,10.0,3.336
-54.0,43.0,3.337
-74.0,68.0,3.338
-110.0,88.0,3.339
-121.0,93.0,3.34
-55.0,54.0,3.341
-6.0,16.0,3.342
-7.0,-13.0,3.343
-24.0,-33.0,3.344
-86.0,-19.0,3.345
-127.0,-2.0,3.346
-105.0,23.0,3.347
-79.0,36.0,3.348
-43.0,8.0,3.349
5.0,-22.0,3.35
89.0,-56.0,3.351
148.0,-73.0,3.352
128.0,-38.0,3.353
111.0,-5.0,3.354
106.0,18.0,3.355
96.0,33.0,3.356
74.0,20.0,3.357
74.0,-3.0,3.358
116.0,-39.0,3.359
71.0,-25.0,3.36
-10.0,5.0,3.361
-31.0,15.0,3.362
2.0,5.0,3.363
11.0,1.0,3.364
-11.0,0.0,3.365
-22.0,-8.0,3.366
-21.0,-9.0,3.367
-30.0,0.0,3.368
-39.0,2.0,3.369
-29.0,-9.0,3.37
-20.0,-16.0,3.371
-25.0,-10.0,3.372
-30.0,-7.0,3.373
-20.0,-11.0,3.374
-12.0,-11.0,3.375
-15.0,-6.0,3.376
-13.0,-4.0,3.377
0.0,-14.0,3.378
10.0,-18.0,3.379
12.0,-14.0,3.38
20.0,-16.0,3.381
31.0,-16.0,3.382
24.0,-10.0,3.383
-10.0,1.0,3.384
-47.0,8.0,3.385
-62.0,13.0,3.386
-55.0,20.0,3.387
-34.0,24.0,3.388
-11.0,22.0,3.389
0.0,24.0,3.39
-13.0,33.0,3.391
-37.0,41.0,3.392
-34.0,36.0,3.393
11.0,20.0,3.394
78.0,1.0,3.395
129.0,-12.0,3.396
146.0,-15.0,3.397
110.0,-5.0,3.398
11.0,18.0,3.399
-129.0,36.0,3.4
-215.0,30.0,3.401
-170.0,5.0,3.402
-36.0,-25.0,3.403
68.0,-52.0,3.404
106.0,-67.0,3.405
129.0,-64.0,3.406
149.0,-45.0,3.407
112.0,-26.0,3.408
29.0,-25.0,3.409
-15.0,-36.0,3.41
5.0,-35.0,3.411
14.0,-18.0,3.412
-23.0,-3.0,3.413
-51.0,-3.0,3.414
-38.0,-6.0,3.415
-23.0,0.0,3.416
-30.0,12.0,3.417
-29.0,15.0,3.418
-2.0,9.0,3.419
12.0,4.0,3.42
1.0,4.0,3.421
2.0,8.0,3.422
22.0,16.0,3.423
22.0,28.0,3.424
-4.0,41.0,3.425
-9.0,44.0,3.426
21.0,29.0,3.427
34.0,10.0,3.428
9.0,3.0,3.429
-13.0,7.0,3.43
-3.0,11.0,3.431
14.0,4.0,3.432
9.0,-4.0,3.433
-4.0,-5.0,3.434
-4.0,-3.0,3.435
-1.0,-3.0,3.436
-6.0,-6.0,3.437
-13.0,-11.0,3.438
-11.0,-11.0,3.439
-11.0,-6.0,3.44
-18.0,3.0,3.441
-20.0,19.0,3.442
-9.0,38.0,3.443
4.0,52.0,3.444
10.0,62.0,3.445
12.0,72.0,3.446
20.0,80.0,3.447
25.0,69.0,3.448
21.0,25.0,3.449
12.0,-39.0,3.45
4.0,-99.0,3.451
7.0,-130.0,3.452
18.0,-129.0,3.453
40.0,-108.0,3.454
66.0,-82.0,3.455
74.0,-64.0,3.456
53.0,-47.0,3.457
17.0,-21.0,3.458
-10.0,15.0,3.459
-38.0,41.0,3.46
-66.0,45.0,3.461
-84.0,39.0,3.462
-73.0,30.0,3.463
-72.0,22.0,3.464
-107.0,22.0,3.465
-143.0,35.0,3.466
-183.0,44.0,3.467
-194.0,28.0,3.468
-119.0,-1.0,3.469
-40.0,-11.0,3.47
53.0,-2.0,3.471
148.0,6.0,3.472
251.0,1.0,3.473
312.0,6.0,3.474
244.0,33.0,3.475
191.0,56.0,3.476
182.0,48.0,3.477
156.0,6.0,3.478
53.0,-34.0,3.479
-56.0,-45.0,3.48
-103.0,-30.0,3.481
-123.0,-6.0,3.482
-138.0,9.0,3.483
-95.0,12.0,3.484
10.0,3.0,3.485
82.0,-11.0,3.486
68.0,-18.0,3.487
33.0,-5.0,3.488
34.0,18.0,3.489
30.0,29.0,3.49
-18.0,22.0,3.491
-69.0,11.0,3.492
-79.0,15.0,3.493
-62.0,24.0,3.494
-43.0,21.0,3.495
-20.0,8.0,3.496
-14.0,-3.0,3.497
-46.0,-18.0,3.498
-64.0,-35.0,3.499
-31.0,-47.0,3.5
0.0,-49.0,3.501
-19.0,-45.0,3.502
-46.0,-45.0,3.503
-25.0,-41.0,3.504
12.0,-26.0,3.505
10.0,-11.0,3.506
-7.0,-8.0,3.507
4.0,-9.0,3.508
21.0,-1.0,3.509
10.0,10.0,3.51
-2.0,13.0,3.511
12.0,8.0,3.512
23.0,6.0,3.513
7.0,9.0,3.514
0.0,7.0,3.515
38.0,4.0,3.516
98.0,3.0,3.517
146.0,-1.0,3.518
162.0,-10.0,3.519
127.0,-14.0,3.52
41.0,-13.0,3.521
-64.0,-4.0,3.522
-137.0,5.0,3.523
-171.0,13.0,3.524
-182.0,11.0,3.525
-167.0,1.0,3.526
-113.0,-1.0,3.527
-51.0,18.0,3.528
-30.0,37.0,3.529
-47.0,25.0,3.53
-49.0,-13.0,3.531
-8.0,-39.0,3.532
66.0,-42.0,3.533
154.0,-50.0,3.534
237.0,-67.0,3.535
286.0,-49.0,3.536
274.0,24.0,3.537
185.0,118.0,3.538
56.0,157.0,3.539
-47.0,112.0,3.54
-75.0,34.0,3.541
-93.0,-7.0,3.542
-83.0,-4.0,3.543
-81.0,7.0,3.544
-101.0,4.0,3.545
-107.0,0.0,3.546
-66.0,0.0,3.547
-26.0,-4.0,3.548
10.0,-16.0,3.549
44.0,-22.0,3.55
73.0,-17.0,3.551
98.0,-16.0,3.552
110.0,-28.0,3.553
122.0,-45.0,3.554
135.0,-62.0,3.555
146.0,-77.0,3.556
147.0,-84.0,3.557
129.0,-70.0,3.558
20.0,-31.0,3.559
-135.0,21.0,3.56
-288.0,70.0,3.561
-397.0,95.0,3.562
-408.0,74.0,3.563
-281.0,14.0,3.564
-72.0,-30.0,3.565
86.0,-26.0,3.566
115.0,2.0,3.567
72.0,9.0,3.568
46.0,-1.0,3.569
33.0,11.0,3.57
-13.0,51.0,3.571
-58.0,77.0,3.572
-13.0,62.0,3.573
107.0,25.0,3.574
172.0,5.0,3.575
109.0,8.0,3.576
20.0,12.0,3.577
23.0,0.0,3.578
79.0,-21.0,3.579
69.0,-31.0,3.58
11.0,-29.0,3.581
-3.0,-24.0,3.582
27.0,-28.0,3.583
17.0,-30.0,3.584
-43.0,-22.0,3.585
-78.0,-10.0,3.586
-60.0,-7.0,3.587
-30.0,-14.0,3.588
-10.0,-20.0,3.589
19.0,-18.0,3.59
45.0,-17.0,3.591
36.0,-26.0,3.592
11.0,-35.0,3.593
8.0,-30.0,3.594
19.0,-11.0,3.595
23.0,6.0,3.596
45.0,11.0,3.597
130.0,0.0,3.598
228.0,-17.0,3.599
234.0,-45.0,3.6
129.0,-79.0,3.601
7.0,-88.0,3.602
-88.0,-48.0,3.603
-218.0,34.0,3.604
-365.0,106.0,3.605
-368.0,111.0,3.606
-164.0,53.0,3.607
33.0,0.0,3.608
12.0,7.0,3.609
-122.0,53.0,3.61
-123.0,78.0,3.611
9.0,70.0,3.612
85.0,63.0,3.613
58.0,67.0,3.614
41.0,53.0,3.615
59.0,19.0,3.616
45.0,3.0,3.617
14.0,10.0,3.618
52.0,7.0,3.619
123.0,-25.0,3.62
118.0,-53.0,3.621
59.0,-46.0,3.622
54.0,-30.0,3.623
87.0,-33.0,3.624
56.0,-41.0,3.625
-24.0,-33.0,3.626
-62.0,-23.0,3.627
-46.0,-23.0,3.628
-43.0,-23.0,3.629
-42.0,-11.0,3.63
-4.0,-5.0,3.631
36.0,-10.0,3.632
23.0,-13.0,3.633
-9.0,-7.0,3.634
-2.0,-6.0,3.635
15.0,-21.0,3.636
-1.0,-29.0,3.637
-27.0,-25.0,3.638
-19.0,-21.0,3.639
-2.0,-31.0,3.64
-9.0,-35.0,3.641
-13.0,-14.0,3.642
17.0,17.0,3.643
43.0,34.0,3.644
28.0,34.0,3.645
0.0,31.0,3.646
2.0,25.0,3.647
15.0,17.0,3.648
4.0,11.0,3.649
-12.0,12.0,3.65
-5.0,13.0,3.651
15.0,8.0,3.652
26.0,6.0,3.653
31.0,13.0,3.654
40.0,18.0,3.655
47.0,13.0,3.656
39.0,4.0,3.657
24.0,-2.0,3.658
19.0,2.0,3.659
16.0,8.0,3.66
4.0,6.0,3.661
-12.0,0.0,3.662
-19.0,-7.0,3.663
-18.0,-14.0,3.664
-25.0,-20.0,3.665
-42.0,-20.0,3.666
-55.0,-17.0,3.667
-60.0,-17.0,3.668
-66.0,-19.0,3.669
-73.0,-15.0,3.67
-59.0,-2.0,3.671
-13.0,14.0,3.672
34.0,18.0,3.673
57.0,9.0,3.674
62.0,-2.0,3.675
67.0,-5.0,3.676
59.0,0.0,3.677
27.0,0.0,3.678
-1.0,-2.0,3.679
-19.0,-5.0,3.68
-3.0,-5.0,3.681
12.0,-2.0,3.682
21.0,3.0,3.683
44.0,4.0,3.684
105.0,-13.0,3.685
164.0,-35.0,3.686
216.0,-63.0,3.687
242.0,-84.0,3.688
187.0,-81.0,3.689
74.0,-63.0,3.69
-207.0,-4.0,3.691
-454.0,51.0,3.692
-594.0,98.0,3.693
-636.0,130.0,3.694
-386.0,116.0,3.695
-168.0,102.0,3.696
-46.0,91.0,3.697
95.0,75.0,3.698
308.0,44.0,3.699
390.0,24.0,3.7
252.0,24.0,3.701
109.0,23.0,3.702
138.0,0.0,3.703
198.0,-26.0,3.704
118.0,-32.0,3.705
4.0,-25.0,3.706
22.0,-30.0,3.707
98.0,-42.0,3.708
85.0,-47.0,3.709
31.0,-45.0,3.71
37.0,-48.0,3.711
46.0,-54.0,3.712
-24.0,-47.0,3.713
-102.0,-31.0,3.714
-92.0,-22.0,3.715
-37.0,-28.0,3.716
-10.0,-37.0,3.717
10.0,-36.0,3.718
57.0,-11.0,3.719
71.0,26.0,3.72
2.0,43.0,3.721
-89.0,40.0,3.722
-111.0,36.0,3.723
-66.0,42.0,3.724
-14.0,40.0,3.725
16.0,16.0,3.726
17.0,-6.0,3.727
-7.0,-6.0,3.728
-28.0,2.0,3.729
-24.0,-2.0,3.73
-9.0,-10.0,3.731
-3.0,-8.0,3.732
5.0,-4.0,3.733
29.0,-13.0,3.734
47.0,-22.0,3.735
41.0,-15.0,3.736
31.0,-4.0,3.737
24.0,-10.0,3.738
-1.0,-22.0,3.739
-52.0,-11.0,3.74
-90.0,13.0,3.741
-85.0,29.0,3.742
-55.0,25.0,3.743
-21.0,26.0,3.744
17.0,47.0,3.745
48.0,64.0,3.746
46.0,49.0,3.747
15.0,11.0,3.748
5.0,-13.0,3.749
32.0,-6.0,3.75
59.0,8.0,3.751
58.0,0.0,3.752
52.0,-31.0,3.753
55.0,-64.0,3.754
49.0,-91.0,3.755
27.0,-111.0,3.756
14.0,-120.0,3.757
15.0,-100.0,3.758
13.0,-49.0,3.759
-6.0,9.0,3.76
-16.0,43.0,3.761
-11.0,48.0,3.762
-7.0,43.0,3.763
-16.0,47.0,3.764
-22.0,61.0,3.765
-17.0,65.0,3.766
-11.0,42.0,3.767
-9.0,-9.0,3.768
-5.0,-60.0,3.769
1.0,-85.0,3.77
1.0,-81.0,3.771
-3.0,-65.0,3.772
-6.0,-48.0,3.773
-6.0,-28.0,3.774
-9.0,-6.0,3.775
-14.0,9.0,3.776
-15.0,15.0,3.777
-16.0,16.0,3.778
-17.0,23.0,3.779
-20.0,32.0,3.78
-22.0,31.0,3.781
-25.0,27.0,3.782
-25.0,24.0,3.783
-20.0,27.0,3.784
-5.0,31.0,3.785
16.0,29.0,3.786
44.0,19.0,3.787
78.0,11.0,3.788
102.0,14.0,3.789
86.0,29.0,3.79
25.0,39.0,3.791
-43.0,41.0,3.792
-69.0,39.0,3.793
-43.0,43.0,3.794
-2.0,43.0,3.795
22.0,29.0,3.796
24.0,13.0,3.797
6.0,6.0,3.798
-22.0,11.0,3.799
-47.0,8.0,3.8
-50.0,-4.0,3.801
-25.0,-6.0,3.802
18.0,-2.0,3.803
61.0,-11.0,3.804
80.0,-27.0,3.805
66.0,-29.0,3.806
44.0,-12.0,3.807
52.0,-2.0,3.808
71.0,-5.0,3.809
45.0,-8.0,3.81
-26.0,-4.0,3.811
-58.0,-10.0,3.812
-28.0,-35.0,3.813
-19.0,-56.0,3.814
-62.0,-58.0,3.815
-50.0,-53.0,3.816
62.0,-52.0,3.817
97.0,-35.0,3.818
-59.0,20.0,3.819
-179.0,89.0,3.82
-187.0,97.0,3.821
-175.0,39.0,3.822
-104.0,-15.0,3.823
-51.0,-2.0,3.824
-54.0,41.0,3.825
-56.0,47.0,3.826
-53.0,10.0,3.827
-40.0,-22.0,3.828
-2.0,-26.0,3.829
32.0,-28.0,3.83
57.0,-35.0,3.831
90.0,-23.0,3.832
144.0,4.0,3.833
187.0,12.0,3.834
192.0,-12.0,3.835
193.0,-35.0,3.836
182.0,-31.0,3.837
172.0,-5.0,3.838
118.0,23.0,3.839
-10.0,41.0,3.84
-92.0,34.0,3.841
-71.0,7.0,3.842
-28.0,-17.0,3.843
-28.0,-16.0,3.844
-47.0,0.0,3.845
-48.0,2.0,3.846
-32.0,-11.0,3.847
-11.0,-16.0,3.848
12.0,-8.0,3.849
3.0,-3.0,3.85
-30.0,-4.0,3.851
-32.0,-3.0,3.852
12.0,-2.0,3.853
35.0,-16.0,3.854
-12.0,-40.0,3.855
-70.0,-45.0,3.856
-65.0,-24.0,3.857
-17.0,-6.0,3.858
10.0,-8.0,3.859
0.0,-10.0,3.86
-9.0,-10.0,3.861
-6.0,-7.0,3.862
-2.0,8.0,3.863
6.0,18.0,3.864
22.0,12.0,3.865
28.0,8.0,3.866
16.0,11.0,3.867
1.0,13.0,3.868
0.0,10.0,3.869
0.0,7.0,3.87
-5.0,3.0,3.871
0.0,-2.0,3.872
35.0,-12.0,3.873
82.0,-20.0,3.874
111.0,-21.0,3.875
103.0,-21.0,3.876
52.0,-15.0,3.877
-48.0,-7.0,3.878
-174.0,11.0,3.879
-265.0,25.0,3.88
-251.0,23.0,3.881
-148.0,18.0,3.882
-39.0,19.0,3.883
23.0,23.0,3.884
67.0,25.0,3.885
120.0,26.0,3.886
157.0,28.0,3.887
171.0,21.0,3.888
201.0,9.0,3.889
235.0,3.0,3.89
187.0,7.0,3.891
38.0,1.0,3.892
-119.0,-9.0,3.893
-214.0,-6.0,3.894
-255.0,12.0,3.895
-234.0,14.0,3.896
-132.0,-15.0,3.897
0.0,-48.0,3.898
58.0,-36.0,3.899
46.0,10.0,3.9
74.0,37.0,3.901
144.0,30.0,3.902
150.0,14.0,3.903
79.0,16.0,3.904
29.0,14.0,3.905
25.0,-13.0,3.906
-4.0,-46.0,3.907
-58.0,-47.0,3.908
-60.0,-15.0,3.909
-10.0,16.0,3.91
18.0,18.0,3.911
17.0,2.0,3.912
36.0,-5.0,3.913
61.0,-2.0,3.914
39.0,-5.0,3.915
-8.0,-23.0,3.916
-20.0,-37.0,3.917
-17.0,-26.0,3.918
-46.0,0.0,3.919
-70.0,12.0,3.92
-78.0,-13.0,3.921
-85.0,-33.0,3.922
-83.0,-32.0,3.923
-90.0,-28.0,3.924
-122.0,-16.0,3.925
-126.0,-7.0,3.926
-42.0,-8.0,3.927
29.0,-5.0,3.928
58.0,8.0,3.929
91.0,20.0,3.93
135.0,24.0,3.931
146.0,26.0,3.932
59.0,21.0,3.933
-1.0,17.0,3.934
21.0,19.0,3.935
38.0,24.0,3.936
32.0,35.0,3.937
-13.0,47.0,3.938
-145.0,48.0,3.939
-119.0,24.0,3.94
21.0,-9.0,3.941
101.0,-15.0,3.942
98.0,-3.0,3.943
132.0,-3.0,3.944
204.0,-24.0,3.945
168.0,-38.0,3.946
-8.0,-34.0,3.947
-157.0,-25.0,3.948
-153.0,-17.0,3.949
-73.0,-6.0,3.95
-18.0,3.0,3.951
30.0,-5.0,3.952
95.0,-18.0,3.953
92.0,-5.0,3.954
-23.0,34.0,3.955
-145.0,60.0,3.956
-151.0,48.0,3.957
-56.0,2.0,3.958
45.0,-47.0,3.959
104.0,-82.0,3.96
125.0,-92.0,3.961
94.0,-65.0,3.962
-1.0,-16.0,3.963
-116.0,30.0,3.964
-177.0,68.0,3.965
-153.0,94.0,3.966
-73.0,90.0,3.967
-2.0,53.0,3.968
9.0,10.0,3.969
-15.0,-1.0,3.97
3.0,9.0,3.971
89.0,8.0,3.972
162.0,-5.0,3.973
143.0,-16.0,3.974
64.0,-19.0,3.975
-2.0,-15.0,3.976
-44.0,-4.0,3.977
-79.0,4.0,3.978
-57.0,-8.0,3.979
50.0,-40.0,3.98
163.0,-63.0,3.981
155.0,-52.0,3.982
21.0,-22.0,3.983
-145.0,6.0,3.984
-276.0,29.0,3.985
-339.0,50.0,3.986
-291.0,67.0,3.987
-137.0,69.0,3.988
35.0,49.0,3.989
142.0,11.0,3.99
190.0,-27.0,3.991
219.0,-44.0,3.992
225.0,-37.0,3.993
194.0,-29.0,3.994
151.0,-39.0,3.995
115.0,-50.0,3.996
72.0,-52.0,3.997
16.0,-54.0,3.998
-20.0,-60.0,3.999
-53.0,-53.0,4.0
-77.0,-22.0,4.001
-84.0,15.0,4.002
-42.0,27.0,4.003
-5.0,14.0,4.004
20.0,5.0,4.005
35.0,6.0,4.006
14.0,3.0,4.007
7.0,-11.0,4.008
45.0,-23.0,4.009
47.0,-22.0,4.01
-61.0,-9.0,4.011
-166.0,1.0,4.012
-260.0,7.0,4.013
-300.0,17.0,4.014
-178.0,38.0,4.015
-51.0,54.0,4.016
90.0,60.0,4.017
209.0,69.0,4.018
202.0,97.0,4.019
101.0,119.0,4.02
-41.0,93.0,4.021
-122.0,29.0,4.022
-71.0,-24.0,4.023
69.0,-46.0,4.024
201.0,-58.0,4.025
279.0,-79.0,4.026
309.0,-85.0,4.027
264.0,-58.0,4.028
114.0,-24.0,4.029
-82.0,-14.0,4.03
-221.0,-14.0,4.031
-268.0,1.0,4.032
-249.0,17.0,4.033
-180.0,1.0,4.034
-85.0,-34.0,4.035
-26.0,-44.0,4.036
-16.0,-12.0,4.037
-1.0,47.0,4.038
44.0,121.0,4.039
46.0,190.0,4.04
-14.0,222.0,4.041
-30.0,193.0,4.042
70.0,127.0,4.043
174.0,73.0,4.044
154.0,35.0,4.045
62.0,-12.0,4.046
17.0,-68.0,4.047
21.0,-96.0,4.048
15.0,-103.0,4.049
10.0,-144.0,4.05
28.0,-231.0,4.051
21.0,-307.0,4.052
-47.0,-318.0,4.053
-123.0,-277.0,4.054
-126.0,-219.0,4.055
-55.0,-159.0,4.056
28.0,-101.0,4.057
79.0,-40.0,4.058
79.0,26.0,4.059
53.0,94.0,4.06
37.0,138.0,4.061
15.0,145.0,4.062
-54.0,131.0,4.063
-129.0,119.0,4.064
-104.0,106.0,4.065
-8.0,88.0,4.066
-9.0,79.0,4.067
-144.0,91.0,4.068
-218.0,97.0,4.069
-101.0,69.0,4.07
48.0,23.0,4.071
39.0,4.0,4.072
-47.0,24.0,4.073
-18.0,49.0,4.074
96.0,40.0,4.075
120.0,3.0,4.076
52.0,-19.0,4.077
69.0,5.0,4.078
205.0,62.0,4.079
289.0,93.0,4.08
218.0,70.0,4.081
152.0,46.0,4.082
101.0,67.0,4.083
74.0,111.0,4.084
119.0,111.0,4.085
134.0,56.0,4.086
56.0,-3.0,4.087
-29.0,-34.0,4.088
-139.0,-57.0,4.089
-225.0,-96.0,4.09
-238.0,-129.0,4.091
-232.0,-129.0,4.092
-164.0,-105.0,4.093
-91.0,-85.0,4.094
-5.0,-79.0,4.095
39.0,-78.0,4.096
-45.0,-80.0,4.097
-145.0,-81.0,4.098
-263.0,-72.0,4.099
-270.0,-48.0,4.1
-140.0,-23.0,4.101
41.0,-2.0,4.102
156.0,17.0,4.103
189.0,31.0,4.104
198.0,19.0,4.105
198.0,-10.0,4.106
145.0,-27.0,4.107
70.0,-15.0,4.108
76.0,-1.0,4.109
165.0,-14.0,4.11
207.0,-38.0,4.111
117.0,-38.0,4.112
-42.0,-10.0,4.113
-175.0,28.0,4.114
-268.0,62.0,4.115
-331.0,87.0,4.116
-329.0,89.0,4.117
-237.0,57.0,4.118
-121.0,12.0,4.119
-67.0,-15.0,4.12
-60.0,-17.0,4.121
-19.0,-5.0,4.122
89.0,12.0,4.123
209.0,43.0,4.124
268.0,86.0,4.125
262.0,131.0,4.126
251.0,158.0,4.127
266.0,147.0,4.128
263.0,107.0,4.129
188.0,73.0,4.13
58.0,76.0,4.131
-47.0,104.0,4.132
-88.0,114.0,4.133
-77.0,84.0,4.134
-21.0,28.0,4.135
66.0,-49.0,4.136
123.0,-143.0,4.137
77.0,-260.0,4.138
-50.0,-348.0,4.139
-168.0,-354.0,4.14
-234.0,-274.0,4.141
-264.0,-152.0,4.142
-228.0,-60.0,4.143
-89.0,-23.0,4.144
50.0,-5.0,4.145
46.0,34.0,4.146
-70.0,80.0,4.147
-119.0,91.0,4.148
-54.0,70.0,4.149
-5.0,58.0,4.15
-25.0,62.0,4.151
-26.0,55.0,4.152
24.0,37.0,4.153
35.0,40.0,4.154
-15.0,68.0,4.155
-37.0,78.0,4.156
6.0,49.0,4.157
51.0,0.0,4.158
54.0,-34.0,4.159
49.0,-51.0,4.16
50.0,-59.0,4.161
26.0,-52.0,4.162
-3.0,-33.0,4.163
27.0,-24.0,4.164
96.0,-36.0,4.165
115.0,-48.0,4.166
55.0,-46.0,4.167
-22.0,-25.0,4.168
-63.0,2.0,4.169
-76.0,17.0,4.17
-71.0,9.0,4.171
-30.0,-7.0,4.172
49.0,2.0,4.173
126.0,32.0,4.174
148.0,50.0,4.175
91.0,57.0,4.176
-1.0,105.0,4.177
-64.0,206.0,4.178
-51.0,290.0,4.179
-7.0,330.0,4.18
12.0,237.0,4.181
22.0,135.0,4.182
70.0,9.0,4.183
122.0,-120.0,4.184
110.0,-257.0,4.185
53.0,-348.0,4.186
23.0,-295.0,4.187
26.0,-231.0,4.188
5.0,-137.0,4.189
-45.0,-60.0,4.19
-79.0,-38.0,4.191
-87.0,-16.0,4.192
-99.0,8.0,4.193
-115.0,20.0,4.194
-101.0,-5.0,4.195
-59.0,-28.0,4.196
-29.0,-40.0,4.197
-16.0,-53.0,4.198
-3.0,-75.0,4.199
2.0,-89.0,4.2
-11.0,-82.0,4.201
-33.0,-60.0,4.202
-36.0,-45.0,4.203
-20.0,-34.0,4.204
4.0,-16.0,4.205
36.0,9.0,4.206
67.0,41.0,4.207
70.0,84.0,4.208
45.0,136.0,4.209
36.0,173.0,4.21
53.0,189.0,4.211
51.0,208.0,4.212
9.0,242.0,4.213
-23.0,257.0,4.214
-8.0,224.0,4.215
16.0,157.0,4.216
15.0,89.0,4.217
10.0,19.0,4.218
27.0,-48.0,4.219
24.0,-89.0,4.22
-20.0,-89.0,4.221
-55.0,-73.0,4.222
-34.0,-90.0,4.223
3.0,-149.0,4.224
6.0,-211.0,4.225
-16.0,-245.0,4.226
-23.0,-246.0,4.227
-17.0,-215.0,4.228
-12.0,-153.0,4.229
-1.0,-82.0,4.23
23.0,-33.0,4.231
38.0,-4.0,4.232
24.0,20.0,4.233
-12.0,41.0,4.234
-54.0,49.0,4.235
-94.0,50.0,4.236
-111.0,75.0,4.237
-91.0,127.0,4.238
-35.0,169.0,4.239
38.0,176.0,4.24
117.0,159.0,4.241
164.0,142.0,4.242
146.0,113.0,4.243
92.0,52.0,4.244
59.0,-16.0,4.245
45.0,-49.0,4.246
14.0,-50.0,4.247
-3.0,-60.0,4.248
43.0,-93.0,4.249
86.0,-112.0,4.25
26.0,-100.0,4.251
-82.0,-73.0,4.252
-90.0,-41.0,4.253
3.0,5.0,4.254
54.0,46.0,4.255
11.0,37.0,4.256
-27.0,-15.0,4.257
-31.0,-56.0,4.258
-57.0,-51.0,4.259
-83.0,-36.0,4.26
-107.0,9.0,4.261
-112.0,49.0,4.262
-56.0,72.0,4.263
-11.0,80.0,4.264
-4.0,42.0,4.265
-5.0,5.0,4.266
-30.0,-25.0,4.267
-41.0,-50.0,4.268
-8.0,-56.0,4.269
21.0,-60.0,4.27
37.0,-54.0,4.271
50.0,-50.0,4.272
58.0,-52.0,4.273
58.0,-49.0,4.274
35.0,-23.0,4.275
22.0,1.0,4.276
42.0,25.0,4.277
53.0,59.0,4.278
25.0,125.0,4.279
14.0,172.0,4.28
32.0,165.0,4.281
33.0,106.0,4.282
2.0,21.0,4.283
-28.0,-54.0,4.284
-48.0,-84.0,4.285
-76.0,-70.0,4.286
-96.0,-46.0,4.287
-72.0,-25.0,4.288
-20.0,8.0,4.289
12.0,48.0,4.29
23.0,57.0,4.291
42.0,32.0,4.292
56.0,17.0,4.293
37.0,33.0,4.294
13.0,40.0,4.295
23.0,6.0,4.296
46.0,-38.0,4.297
30.0,-54.0,4.298
-6.0,-41.0,4.299
-14.0,-31.0,4.3
4.0,-43.0,4.301
2.0,-57.0,4.302
-24.0,-62.0,4.303
-39.0,-51.0,4.304
-34.0,-29.0,4.305
-23.0,-7.0,4.306
3.0,2.0,4.307
66.0,9.0,4.308
136.0,33.0,4.309
154.0,66.0,4.31
94.0,84.0,4.311
-2.0,73.0,4.312
-66.0,54.0,4.313
-65.0,42.0,4.314
-22.0,18.0,4.315
11.0,-32.0,4.316
21.0,-79.0,4.317
32.0,-89.0,4.318
59.0,-58.0,4.319
59.0,-31.0,4.32
0.0,-32.0,4.321
-88.0,-30.0,4.322
-135.0,-3.0,4.323
-119.0,25.0,4.324
-67.0,20.0,4.325
-9.0,-9.0,4.326
28.0,-26.0,4.327
33.0,-15.0,4.328
21.0,-3.0,4.329
18.0,-1.0,4.33
18.0,2.0,4.331
6.0,17.0,4.332
-2.0,38.0,4.333
10.0,47.0,4.334
17.0,44.0,4.335
-19.0,34.0,4.336
-67.0,25.0,4.337
-88.0,6.0,4.338
-73.0,-8.0,4.339
-52.0,4.0,4.34
-26.0,57.0,4.341
20.0,132.0,4.342
67.0,170.0,4.343
81.0,125.0,4.344
79.0,3.0,4.345
92.0,-134.0,4.346
92.0,-227.0,4.347
43.0,-243.0,4.348
-15.0,-198.0,4.349
-20.0,-137.0,4.35
12.0,-85.0,4.351
22.0,-28.0,4.352
5.0,56.0,4.353
0.0,132.0,4.354
9.0,133.0,4.355
1.0,48.0,4.356
-19.0,-47.0,4.357
-24.0,-92.0,4.358
-16.0,-82.0,4.359
-10.0,-65.0,4.36
-16.0,-27.0,4.361
-20.0,13.0,4.362
-14.0,57.0,4.363
-10.0,90.0,4.364
-15.0,87.0,4.365
-20.0,80.0,4.366
-22.0,66.0,4.367
-20.0,52.0,4.368
-1.0,35.0,4.369
12.0,21.0,4.37
6.0,19.0,4.371
4.0,15.0,4.372
16.0,3.0,4.373
25.0,-8.0,4.374
26.0,-16.0,4.375
29.0,-24.0,4.376
34.0,-32.0,4.377
44.0,-40.0,4.378
54.0,-45.0,4.379
36.0,-48.0,4.38
6.0,-40.0,4.381
-21.0,-21.0,4.382
-36.0,-9.0,4.383
-32.0,-11.0,4.384
-13.0,-13.0,4.385
3.0,1.0,4.386
0.0,22.0,4.387
-9.0,34.0,4.388
9.0,31.0,4.389
56.0,19.0,4.39
92.0,1.0,4.391
92.0,-13.0,4.392
63.0,-17.0,4.393
10.0,-1.0,4.394
-66.0,32.0,4.395
-132.0,71.0,4.396
-130.0,91.0,4.397
-56.0,84.0,4.398
2.0,61.0,4.399
-23.0,38.0,4.4
-74.0,9.0,4.401
-62.0,-15.0,4.402
0.0,-26.0,4.403
38.0,-16.0,4.404
32.0,-4.0,4.405
24.0,-9.0,4.406
22.0,-21.0,4.407
5.0,-14.0,4.408
-18.0,3.0,4.409
-10.0,9.0,4.41
24.0,2.0,4.411
39.0,-1.0,4.412
30.0,-3.0,4.413
24.0,-11.0,4.414
27.0,-12.0,4.415
22.0,3.0,4.416
15.0,24.0,4.417
17.0,15.0,4.418
21.0,-14.0,4.419
10.0,-35.0,4.42
-7.0,-42.0,4.421
-9.0,-49.0,4.422
3.0,-72.0,4.423
10.0,-89.0,4.424
5.0,-74.0,4.425
-2.0,-36.0,4.426
-4.0,-5.0,4.427
1.0,10.0,4.428
16.0,26.0,4.429
34.0,46.0,4.43
41.0,52.0,4.431
30.0,32.0,4.432
5.0,3.0,4.433
-26.0,-14.0,4.434
-52.0,-27.0,4.435
-57.0,-38.0,4.436
-35.0,-43.0,4.437
-9.0,-42.0,4.438
-10.0,-34.0,4.439
-42.0,-25.0,4.44
-63.0,-17.0,4.441
-37.0,-8.0,4.442
24.0,5.0,4.443
73.0,16.0,4.444
80.0,24.0,4.445
60.0,32.0,4.446
42.0,42.0,4.447
28.0,51.0,4.448
9.0,50.0,4.449
-6.0,44.0,4.45
3.0,25.0,4.451
22.0,11.0,4.452
15.0,12.0,4.453
-14.0,11.0,4.454
-26.0,3.0,4.455
-1.0,-5.0,4.456
38.0,-14.0,4.457
63.0,-21.0,4.458
67.0,-20.0,4.459
54.0,-11.0,4.46
-15.0,3.0,4.461
-71.0,21.0,4.462
-87.0,27.0,4.463
-94.0,22.0,4.464
-74.0,20.0,4.465
-51.0,25.0,4.466
-24.0,20.0,4.467
0.0,8.0,4.468
16.0,4.0,4.469
26.0,9.0,4.47
16.0,9.0,4.471
8.0,0.0,4.472
4.0,-8.0,4.473
-2.0,-5.0,4.474
-15.0,-1.0,4.475
-19.0,-7.0,4.476
6.0,-10.0,4.477
28.0,-13.0,4.478
23.0,-13.0,4.479
15.0,-18.0,4.48
9.0,-25.0,4.481
-3.0,-18.0,4.482
-9.0,-3.0,4.483
9.0,8.0,4.484
37.0,7.0,4.485
38.0,0.0,4.486
12.0,-1.0,4.487
-10.0,12.0,4.488
-8.0,20.0,4.489
16.0,7.0,4.49
44.0,-17.0,4.491
54.0,-33.0,4.492
30.0,-39.0,4.493
-19.0,-41.0,4.494
-59.0,-36.0,4.495
-60.0,-25.0,4.496
-30.0,-18.0,4.497
1.0,-20.0,4.498
18.0,-12.0,4.499
20.0,19.0,4.5
25.0,43.0,4.501
42.0,32.0,4.502
57.0,0.0,4.503
48.0,-12.0,4.504
17.0,3.0,4.505
-10.0,18.0,4.506
-17.0,22.0,4.507
-17.0,26.0,4.508
-20.0,30.0,4.509
-19.0,14.0,4.51
-12.0,-16.0,4.511
-14.0,-34.0,4.512
-29.0,-31.0,4.513
-34.0,-25.0,4.514
-14.0,-25.0,4.515
10.0,-23.0,4.516
7.0,-14.0,4.517
-24.0,-7.0,4.518
-56.0,-3.0,4.519
-68.0,1.0,4.52
-55.0,9.0,4.521
-17.0,19.0,4.522
32.0,30.0,4.523
76.0,33.0,4.524
99.0,26.0,4.525
100.0,16.0,4.526
75.0,18.0,4.527
37.0,31.0,4.528
12.0,34.0,4.529
9.0,23.0,4.53
10.0,16.0,4.531
-9.0,21.0,4.532
-40.0,23.0,4.533
-66.0,15.0,4.534
-95.0,9.0,4.535
-144.0,7.0,4.536
-181.0,-3.0,4.537
-152.0,-29.0,4.538
-46.0,-47.0,4.539
72.0,-40.0,4.54
131.0,-22.0,4.541
135.0,-4.0,4.542
132.0,6.0,4.543
143.0,10.0,4.544
151.0,7.0,4.545
133.0,-6.0,4.546
90.0,-19.0,4.547
39.0,-22.0,4.548
5.0,-19.0,4.549
-3.0,-15.0,4.55
-1.0,-14.0,4.551
-11.0,-13.0,4.552
-32.0,-9.0,4.553
-47.0,-3.0,4.554
-45.0,0.0,4.555
-41.0,3.0,4.556
-38.0,5.0,4.557
-34.0,3.0,4.558
-25.0,0.0,4.559
-23.0,-3.0,4.56
-26.0,-9.0,4.561
-32.0,-11.0,4.562
-31.0,-9.0,4.563
-23.0,1.0,4.564
-18.0,15.0,4.565
-17.0,27.0,4.566
-22.0,23.0,4.567
-32.0,3.0,4.568
-42.0,-17.0,4.569
-39.0,-21.0,4.57
-22.0,-11.0,4.571
-3.0,-3.0,4.572
11.0,3.0,4.573
20.0,17.0,4.574
39.0,36.0,4.575
63.0,34.0,4.576
72.0,11.0,4.577
54.0,-10.0,4.578
35.0,-8.0,4.579
23.0,-11.0,4.58
31.0,-30.0,4.581
31.0,-45.0,4.582
1.0,-46.0,4.583
-32.0,-42.0,4.584
-77.0,-20.0,4.585
-118.0,-3.0,4.586
-142.0,-6.0,4.587
-136.0,-12.0,4.588
-41.0,-28.0,4.589
42.0,-40.0,4.59
90.0,-41.0,4.591
132.0,-40.0,4.592
154.0,-34.0,4.593
160.0,-28.0,4.594
110.0,-26.0,4.595
62.0,-20.0,4.596
17.0,-5.0,4.597
-21.0,9.0,4.598
-46.0,17.0,4.599
-83.0,9.0,4.6
-79.0,-7.0,4.601
-25.0,-17.0,4.602
7.0,-20.0,4.603
-17.0,-21.0,4.604
-43.0,-26.0,4.605
-28.0,-34.0,4.606
-3.0,-44.0,4.607
-9.0,-54.0,4.608
-20.0,-53.0,4.609
4.0,-34.0,4.61
57.0,-11.0,4.611
97.0,-2.0,4.612
99.0,-13.0,4.613
73.0,-35.0,4.614
43.0,-57.0,4.615
23.0,-74.0,4.616
-4.0,-75.0,4.617
-78.0,-48.0,4.618
-153.0,-13.0,4.619
-191.0,16.0,4.62
-116.0,37.0,4.621
-32.0,57.0,4.622
76.0,71.0,4.623
141.0,65.0,4.624
78.0,44.0,4.625
24.0,28.0,4.626
2.0,23.0,4.627
-13.0,23.0,4.628
-10.0,19.0,4.629
-8.0,17.0,4.63
-13.0,17.0,4.631
-18.0,18.0,4.632
-20.0,17.0,4.633
-27.0,20.0,4.634
-46.0,25.0,4.635
-52.0,29.0,4.636
-15.0,30.0,4.637
21.0,27.0,4.638
55.0,18.0,4.639
94.0,3.0,4.64
117.0,-14.0,4.641
96.0,-16.0,4.642
39.0,5.0,4.643
-26.0,37.0,4.644
-70.0,57.0,4.645
-71.0,57.0,4.646
-23.0,46.0,4.647
38.0,40.0,4.648
64.0,44.0,4.649
53.0,53.0,4.65
51.0,61.0,4.651
77.0,60.0,4.652
86.0,48.0,4.653
43.0,35.0,4.654
-13.0,30.0,4.655
-32.0,36.0,4.656
-21.0,51.0,4.657
-27.0,71.0,4.658
-62.0,87.0,4.659
-90.0,82.0,4.66
-80.0,53.0,4.661
-54.0,27.0,4.662
-41.0,20.0,4.663
-39.0,31.0,4.664
-32.0,40.0,4.665
-16.0,36.0,4.666
2.0,27.0,4.667
17.0,24.0,4.668
21.0,31.0,4.669
19.0,41.0,4.67
26.0,44.0,4.671
47.0,31.0,4.672
59.0,11.0,4.673
33.0,-2.0,4.674
-22.0,-8.0,4.675
-70.0,-14.0,4.676
-77.0,-17.0,4.677
-36.0,-15.0,4.678
38.0,-9.0,4.679
99.0,-15.0,4.68
97.0,-34.0,4.681
37.0,-50.0,4.682
-11.0,-55.0,4.683
-1.0,-57.0,4.684
25.0,-57.0,4.685
-2.0,-47.0,4.686
-71.0,-34.0,4.687
-93.0,-27.0,4.688
-31.0,-30.0,4.689
50.0,-34.0,4.69
75.0,-35.0,4.691
61.0,-30.0,4.692
72.0,-13.0,4.693
103.0,12.0,4.694
87.0,29.0,4.695
5.0,24.0,4.696
-60.0,13.0,4.697
-47.0,16.0,4.698
6.0,31.0,4.699
11.0,41.0,4.7
-42.0,35.0,4.701
-64.0,19.0,4.702
-10.0,-11.0,4.703
57.0,-54.0,4.704
68.0,-90.0,4.705
48.0,-100.0,4.706
45.0,-89.0,4.707
44.0,-66.0,4.708
11.0,-37.0,4.709
-21.0,-11.0,4.71
-8.0,-13.0,4.711
20.0,-41.0,4.712
0.0,-59.0,4.713
-55.0,-42.0,4.714
-65.0,-19.0,4.715
-12.0,-24.0,4.716
39.0,-45.0,4.717
39.0,-51.0,4.718
0.0,-29.0,4.719
-47.0,-2.0,4.72
-89.0,18.0,4.721
-108.0,41.0,4.722
-81.0,64.0,4.723
-14.0,69.0,4.724
38.0,50.0,4.725
34.0,29.0,4.726
-5.0,13.0,4.727
-27.0,5.0,4.728
-28.0,-2.0,4.729
-39.0,-8.0,4.73
-68.0,-11.0,4.731
-77.0,-9.0,4.732
-41.0,-1.0,4.733
21.0,0.0,4.734
76.0,-14.0,4.735
122.0,-20.0,4.736
163.0,-1.0,4.737
190.0,26.0,4.738
179.0,28.0,4.739
123.0,6.0,4.74
49.0,3.0,4.741
-7.0,36.0,4.742
-28.0,60.0,4.743
-27.0,43.0,4.744
-32.0,6.0,4.745
-53.0,-10.0,4.746
-70.0,-10.0,4.747
-73.0,-18.0,4.748
-80.0,-31.0,4.749
-93.0,-35.0,4.75
-74.0,-32.0,4.751
0.0,-37.0,4.752
75.0,-51.0,4.753
81.0,-55.0,4.754
30.0,-44.0,4.755
-11.0,-24.0,4.756
-25.0,-2.0,4.757
-62.0,23.0,4.758
-120.0,54.0,4.759
-141.0,79.0,4.76
-76.0,83.0,4.761
22.0,71.0,4.762
79.0,63.0,4.763
79.0,69.0,4.764
68.0,64.0,4.765
70.0,27.0,4.766
70.0,-32.0,4.767
39.0,-79.0,4.768
-19.0,-89.0,4.769
-65.0,-75.0,4.77
-60.0,-54.0,4.771
-9.0,-26.0,4.772
45.0,15.0,4.773
71.0,62.0,4.774
82.0,81.0,4.775
97.0,41.0,4.776
107.0,-37.0,4.777
80.0,-115.0,4.778
26.0,-144.0,4.779
-18.0,-131.0,4.78
-35.0,-107.0,4.781
-41.0,-76.0,4.782
-45.0,-40.0,4.783
-36.0,-5.0,4.784
-24.0,26.0,4.785
-41.0,63.0,4.786
-99.0,94.0,4.787
-169.0,85.0,4.788
-197.0,30.0,4.789
-146.0,-32.0,4.79
-29.0,-66.0,4.791
87.0,-72.0,4.792
141.0,-59.0,4.793
142.0,-26.0,4.794
141.0,17.0,4.795
137.0,45.0,4.796
98.0,50.0,4.797
30.0,47.0,4.798
-3.0,60.0,4.799
14.0,79.0,4.8
33.0,80.0,4.801
21.0,63.0,4.802
10.0,32.0,4.803
5.0,-1.0,4.804
-25.0,-19.0,4.805
-78.0,-14.0,4.806
-100.0,0.0,4.807
-79.0,2.0,4.808
-62.0,-13.0,4.809
-60.0,-31.0,4.81
-34.0,-34.0,4.811
1.0,-29.0,4.812
-10.0,-23.0,4.813
-61.0,-15.0,4.814
-75.0,2.0,4.815
-36.0,34.0,4.816
-5.0,58.0,4.817
9.0,59.0,4.818
59.0,47.0,4.819
143.0,39.0,4.82
181.0,51.0,4.821
133.0,59.0,4.822
70.0,53.0,4.823
51.0,42.0,4.824
43.0,14.0,4.825
10.0,-15.0,4.826
-27.0,-47.0,4.827
-37.0,-72.0,4.828
-36.0,-74.0,4.829
-52.0,-71.0,4.83
-76.0,-47.0,4.831
-76.0,-27.0,4.832
-29.0,-18.0,4.833
53.0,-11.0,4.834
106.0,-12.0,4.835
78.0,-8.0,4.836
14.0,13.0,4.837
-9.0,30.0,4.838
28.0,22.0,4.839
32.0,12.0,4.84
-59.0,16.0,4.841
-159.0,32.0,4.842
-145.0,41.0,4.843
-45.0,50.0,4.844
6.0,74.0,4.845
-34.0,108.0,4.846
-60.0,115.0,4.847
16.0,65.0,4.848
130.0,-22.0,4.849
165.0,-101.0,4.85
106.0,-142.0,4.851
39.0,-141.0,4.852
31.0,-116.0,4.853
58.0,-88.0,4.854
58.0,-68.0,4.855
15.0,-47.0,4.856
-21.0,-9.0,4.857
-21.0,39.0,4.858
3.0,87.0,4.859
5.0,136.0,4.86
-20.0,189.0,4.861
-37.0,211.0,4.862
-44.0,137.0,4.863
-78.0,41.0,4.864
-125.0,-124.0,4.865
-118.0,-257.0,4.866
-46.0,-296.0,4.867
9.0,-310.0,4.868
-17.0,-247.0,4.869
-72.0,-179.0,4.87
-63.0,-94.0,4.871
25.0,-25.0,4.872
121.0,-7.0,4.873
149.0,16.0,4.874
103.0,55.0,4.875
47.0,88.0,4.876
37.0,100.0,4.877
36.0,103.0,4.878
-1.0,77.0,4.879
-34.0,61.0,4.88
-48.0,54.0,4.881
-53.0,53.0,4.882
-27.0,51.0,4.883
-11.0,45.0,4.884
-24.0,39.0,4.885
-27.0,39.0,4.886
1.0,49.0,4.887
33.0,56.0,4.888
73.0,41.0,4.889
83.0,11.0,4.89
3.0,-5.0,4.891
-75.0,2.0,4.892
-144.0,22.0,4.893
-170.0,41.0,4.894
-64.0,57.0,4.895
50.0,60.0,4.896
186.0,45.0,4.897
293.0,26.0,4.898
227.0,32.0,4.899
64.0,62.0,4.9
-57.0,71.0,4.901
-99.0,39.0,4.902
-120.0,-21.0,4.903
-112.0,-81.0,4.904
-21.0,-119.0,4.905
102.0,-121.0,4.906
140.0,-90.0,4.907
88.0,-50.0,4.908
51.0,-23.0,4.909
68.0,-6.0,4.91
73.0,7.0,4.911
36.0,10.0,4.912
-15.0,0.0,4.913
-57.0,-8.0,4.914
-74.0,-8.0,4.915
-35.0,-16.0,4.916
32.0,-35.0,4.917
38.0,-40.0,4.918
-56.0,-10.0,4.919
-142.0,29.0,4.92
-112.0,41.0,4.921
-28.0,32.0,4.922
-3.0,27.0,4.923
-25.0,29.0,4.924
-21.0,32.0,4.925
10.0,31.0,4.926
-3.0,28.0,4.927
-59.0,18.0,4.928
-98.0,6.0,4.929
-89.0,4.0,4.93
-47.0,5.0,4.931
10.0,-8.0,4.932
65.0,-34.0,4.933
95.0,-48.0,4.934
102.0,-42.0,4.935
120.0,-22.0,4.936
138.0,-3.0,4.937
100.0,8.0,4.938
9.0,7.0,4.939
-61.0,3.0,4.94
-85.0,14.0,4.941
-118.0,46.0,4.942
-153.0,57.0,4.943
-107.0,13.0,4.944
16.0,-61.0,4.945
70.0,-107.0,4.946
4.0,-103.0,4.947
-44.0,-76.0,4.948
17.0,-59.0,4.949
78.0,-51.0,4.95
25.0,-35.0,4.951
-60.0,-4.0,4.952
-53.0,31.0,4.953
12.0,58.0,4.954
44.0,69.0,4.955
60.0,64.0,4.956
119.0,55.0,4.957
189.0,39.0,4.958
187.0,13.0,4.959
112.0,-15.0,4.96
31.0,-25.0,4.961
-21.0,-5.0,4.962
-52.0,24.0,4.963
-62.0,41.0,4.964
-67.0,47.0,4.965
-96.0,46.0,4.966
-139.0,32.0,4.967
-143.0,2.0,4.968
-86.0,-30.0,4.969
-16.0,-57.0,4.97
25.0,-76.0,4.971
36.0,-81.0,4.972
32.0,-63.0,4.973
14.0,-27.0,4.974
-5.0,-4.0,4.975
8.0,-6.0,4.976
59.0,-16.0,4.977
118.0,-12.0,4.978
138.0,14.0,4.979
91.0,38.0,4.98
-8.0,39.0,4.981
-111.0,32.0,4.982
-145.0,34.0,4.983
-71.0,32.0,4.984
67.0,5.0,4.985
182.0,-39.0,4.986
210.0,-57.0,4.987
150.0,-22.0,4.988
36.0,36.0,4.989
-78.0,75.0,4.99
-133.0,77.0,4.991
-96.0,54.0,4.992
-4.0,24.0,4.993
59.0,1.0,4.994
48.0,-1.0,4.995
-1.0,7.0,4.996
-33.0,8.0,4.997
-49.0,-8.0,4.998
-75.0,-21.0,4.999
-96.0,-18.0,5.0
-94.0,-10.0,5.001
-86.0,-5.0,5.002
-58.0,-4.0,5.003
-37.0,-6.0,5.004
-38.0,-8.0,5.005
-42.0,-11.0,5.006
-52.0,-10.0,5.007
-51.0,-7.0,5.008
-15.0,-7.0,5.009
19.0,-12.0,5.01
49.0,-17.0,5.011
68.0,-19.0,5.012
52.0,-23.0,5.013
41.0,-27.0,5.014
47.0,-22.0,5.015
53.0,-10.0,5.016
54.0,4.0,5.017
43.0,11.0,5.018
-18.0,11.0,5.019
-75.0,20.0,5.02
-52.0,55.0,5.021
52.0,117.0,5.022
160.0,171.0,5.023
192.0,178.0,5.024
148.0,140.0,5.025
81.0,78.0,5.026
40.0,-4.0,5.027
38.0,-107.0,5.028
51.0,-201.0,5.029
41.0,-230.0,5.03
-8.0,-180.0,5.031
-79.0,-91.0,5.032
-123.0,-12.0,5.033
-113.0,36.0,5.034
-73.0,47.0,5.035
-48.0,19.0,5.036
-49.0,-33.0,5.037
-54.0,-87.0,5.038
-36.0,-116.0,5.039
-14.0,-117.0,5.04
-11.0,-102.0,5.041
-25.0,-65.0,5.042
-38.0,-18.0,5.043
-37.0,17.0,5.044
-22.0,23.0,5.045
-4.0,14.0,5.046
-10.0,18.0,5.047
-51.0,36.0,5.048
-73.0,45.0,5.049
-11.0,34.0,5.05
104.0,24.0,5.051
167.0,25.0,5.052
128.0,29.0,5.053
52.0,28.0,5.054
17.0,32.0,5.055
37.0,37.0,5.056
76.0,37.0,5.057
86.0,34.0,5.058
50.0,44.0,5.059
11.0,53.0,5.06
-35.0,53.0,5.061
-65.0,52.0,5.062
-42.0,46.0,5.063
-22.0,44.0,5.064
-15.0,56.0,5.065
-13.0,67.0,5.066
-26.0,72.0,5.067
-34.0,81.0,5.068
-24.0,99.0,5.069
-13.0,120.0,5.07
-3.0,149.0,5.071
5.0,159.0,5.072
5.0,106.0,5.073
4.0,45.0,5.074
0.0,-36.0,5.075
-5.0,-115.0,5.076
-10.0,-180.0,5.077
-11.0,-244.0,5.078
-10.0,-282.0,5.079
-31.0,-271.0,5.08
-51.0,-242.0,5.081
-42.0,-217.0,5.082
-2.0,-190.0,5.083
44.0,-147.0,5.084
76.0,-102.0,5.085
87.0,-76.0,5.086
74.0,-60.0,5.087
30.0,-28.0,5.088
-33.0,23.0,5.089
-85.0,72.0,5.09
-92.0,98.0,5.091
-56.0,102.0,5.092
-12.0,103.0,5.093
18.0,110.0,5.094
48.0,122.0,5.095
78.0,121.0,5.096
81.0,102.0,5.097
47.0,75.0,5.098
17.0,63.0,5.099
15.0,71.0,5.1
15.0,85.0,5.101
-5.0,100.0,5.102
-18.0,107.0,5.103
-3.0,105.0,5.104
14.0,119.0,5.105
8.0,165.0,5.106
0.0,220.0,5.107
8.0,227.0,5.108
12.0,161.0,5.109
-14.0,48.0,5.11
-45.0,-79.0,5.111
-46.0,-209.0,5.112
-5.0,-307.0,5.113
61.0,-320.0,5.114
122.0,-248.0,5.115
143.0,-175.0,5.116
108.0,-171.0,5.117
14.0,-211.0,5.118
-104.0,-218.0,5.119
-196.0,-177.0,5.12
-201.0,-146.0,5.121
-108.0,-145.0,5.122
1.0,-125.0,5.123
28.0,-39.0,5.124
-15.0,89.0,5.125
-32.0,187.0,5.126
6.0,219.0,5.127
28.0,203.0,5.128
-3.0,183.0,5.129
-31.0,172.0,5.13
-7.0,151.0,5.131
28.0,111.0,5.132
33.0,68.0,5.133
32.0,35.0,5.134
54.0,8.0,5.135
71.0,-19.0,5.136
60.0,-38.0,5.137
35.0,-41.0,5.138
20.0,-22.0,5.139
7.0,3.0,5.14
-14.0,22.0,5.141
-24.0,39.0,5.142
-10.0,56.0,5.143
9.0,78.0,5.144
10.0,91.0,5.145
3.0,68.0,5.146
12.0,-9.0,5.147
22.0,-115.0,5.148
15.0,-200.0,5.149
-11.0,-231.0,5.15
-40.0,-213.0,5.151
-55.0,-161.0,5.152
-50.0,-87.0,5.153
-33.0,-21.0,5.154
-26.0,7.0,5.155
-41.0,4.0,5.156
-48.0,6.0,5.157
-15.0,31.0,5.158
47.0,61.0,5.159
97.0,78.0,5.16
126.0,82.0,5.161
147.0,90.0,5.162
149.0,82.0,5.163
97.0,48.0,5.164
21.0,19.0,5.165
-20.0,21.0,5.166
-16.0,43.0,5.167
-20.0,51.0,5.168
-52.0,43.0,5.169
-71.0,37.0,5.17
-47.0,36.0,5.171
-5.0,36.0,5.172
14.0,50.0,5.173
0.0,102.0,5.174
-27.0,160.0,5.175
-43.0,165.0,5.176
-26.0,107.0,5.177
27.0,17.0,5.178
79.0,-45.0,5.179
93.0,-77.0,5.18
69.0,-105.0,5.181
30.0,-128.0,5.182
-5.0,-130.0,5.183
-28.0,-126.0,5.184
-29.0,-137.0,5.185
-17.0,-155.0,5.186
-20.0,-147.0,5.187
-59.0,-107.0,5.188
-123.0,-52.0,5.189
-176.0,17.0,5.19
-178.0,99.0,5.191
-105.0,148.0,5.192
-6.0,118.0,5.193
34.0,46.0,5.194
6.0,4.0,5.195
-18.0,1.0,5.196
8.0,-10.0,5.197
41.0,-40.0,5.198
34.0,-38.0,5.199
7.0,-6.0,5.2
11.0,2.0,5.201
41.0,-25.0,5.202
70.0,-43.0,5.203
97.0,-34.0,5.204
109.0,-31.0,5.205
78.0,-43.0,5.206
3.0,-36.0,5.207
-68.0,-4.0,5.208
-89.0,22.0,5.209
-55.0,29.0,5.21
14.0,32.0,5.211
75.0,31.0,5.212
87.0,12.0,5.213
58.0,-6.0,5.214
34.0,0.0,5.215
37.0,19.0,5.216
35.0,23.0,5.217
9.0,7.0,5.218
-7.0,2.0,5.219
4.0,18.0,5.22
9.0,39.0,5.221
-13.0,59.0,5.222
-23.0,77.0,5.223
-5.0,83.0,5.224
10.0,68.0,5.225
4.0,46.0,5.226
9.0,26.0,5.227
28.0,5.0,5.228
21.0,-24.0,5.229
-12.0,-51.0,5.23
-18.0,-62.0,5.231
14.0,-46.0,5.232
29.0,-1.0,5.233
7.0,56.0,5.234
-7.0,99.0,5.235
3.0,93.0,5.236
2.0,39.0,5.237
-37.0,-54.0,5.238
-78.0,-151.0,5.239
-80.0,-217.0,5.24
-49.0,-220.0,5.241
-2.0,-158.0,5.242
60.0,-65.0,5.243
108.0,19.0,5.244
98.0,87.0,5.245
31.0,141.0,5.246
-33.0,170.0,5.247
-60.0,153.0,5.248
-55.0,84.0,5.249
-17.0,-11.0,5.25
56.0,-84.0,5.251
125.0,-97.0,5.252
134.0,-65.0,5.253
77.0,-36.0,5.254
-9.0,-34.0,5.255
-109.0,-35.0,5.256
-201.0,-16.0,5.257
-223.0,-2.0,5.258
-127.0,-16.0,5.259
11.0,-43.0,5.26
65.0,-47.0,5.261
18.0,-26.0,5.262
-26.0,-11.0,5.263
-21.0,-5.0,5.264
-15.0,13.0,5.265
-33.0,38.0,5.266
-40.0,46.0,5.267
-13.0,36.0,5.268
13.0,31.0,5.269
27.0,32.0,5.27
50.0,25.0,5.271
81.0,17.0,5.272
91.0,22.0,5.273
77.0,29.0,5.274
67.0,19.0,5.275
66.0,0.0,5.276
66.0,-6.0,5.277
54.0,-3.0,5.278
29.0,-5.0,5.279
-15.0,-10.0,5.28
-67.0,-6.0,5.281
-87.0,14.0,5.282
-53.0,31.0,5.283
-2.0,35.0,5.284
17.0,35.0,5.285
8.0,39.0,5.286
8.0,48.0,5.287
19.0,67.0,5.288
16.0,88.0,5.289
1.0,79.0,5.29
0.0,22.0,5.291
25.0,-43.0,5.292
43.0,-67.0,5.293
29.0,-53.0,5.294
-1.0,-46.0,5.295
-19.0,-56.0,5.296
-18.0,-58.0,5.297
-12.0,-50.0,5.298
-15.0,-50.0,5.299
-26.0,-62.0,5.3
-28.0,-63.0,5.301
-21.0,-41.0,5.302
-13.0,-18.0,5.303
-7.0,-12.0,5.304
6.0,-10.0,5.305
25.0,-8.0,5.306
38.0,-10.0,5.307
37.0,-18.0,5.308
31.0,-17.0,5.309
30.0,-5.0,5.31
24.0,7.0,5.311
5.0,14.0,5.312
-18.0,22.0,5.313
-30.0,28.0,5.314
-25.0,27.0,5.315
-1.0,28.0,5.316
22.0,36.0,5.317
29.0,42.0,5.318
16.0,35.0,5.319
2.0,17.0,5.32
-2.0,0.0,5.321
0.0,-9.0,5.322
-1.0,-18.0,5.323
1.0,-18.0,5.324
4.0,0.0,5.325
-7.0,18.0,5.326
-31.0,16.0,5.327
-42.0,0.0,5.328
-22.0,-6.0,5.329
10.0,0.0,5.33
24.0,2.0,5.331
28.0,-3.0,5.332
32.0,-3.0,5.333
24.0,9.0,5.334
-11.0,16.0,5.335
-45.0,10.0,5.336
-42.0,0.0,5.337
-4.0,0.0,5.338
15.0,6.0,5.339
-14.0,9.0,5.34
-61.0,4.0,5.341
-87.0,4.0,5.342
-81.0,8.0,5.343
-43.0,6.0,5.344
23.0,-4.0,5.345
89.0,-13.0,5.346
102.0,-13.0,5.347
52.0,-7.0,5.348
-15.0,-5.0,5.349
-39.0,-1.0,5.35
-13.0,8.0,5.351
23.0,14.0,5.352
31.0,9.0,5.353
23.0,-5.0,5.354
26.0,-8.0,5.355
45.0,-1.0,5.356
56.0,0.0,5.357
47.0,-16.0,5.358
29.0,-34.0,5.359
11.0,-48.0,5.36
-7.0,-44.0,5.361
-21.0,-38.0,5.362
-15.0,-31.0,5.363
11.0,-23.0,5.364
29.0,-10.0,5.365
17.0,2.0,5.366
-3.0,10.0,5.367
-2.0,18.0,5.368
22.0,25.0,5.369
47.0,27.0,5.37
69.0,13.0,5.371
77.0,3.0,5.372
52.0,4.0,5.373
-6.0,5.0,5.374
-71.0,6.0,5.375
-115.0,10.0,5.376
-127.0,20.0,5.377
-112.0,25.0,5.378
-75.0,2.0,5.379
-32.0,-18.0,5.38
-10.0,-20.0,5.381
-12.0,-4.0,5.382
-7.0,11.0,5.383
20.0,27.0,5.384
34.0,46.0,5.385
4.0,52.0,5.386
-36.0,35.0,5.387
-26.0,11.0,5.388
38.0,6.0,5.389
87.0,15.0,5.39
76.0,15.0,5.391
37.0,1.0,5.392
17.0,-12.0,5.393
16.0,-18.0,5.394
9.0,-23.0,5.395
1.0,-28.0,5.396
7.0,-26.0,5.397
20.0,-10.0,5.398
20.0,9.0,5.399
6.0,31.0,5.4
-9.0,55.0,5.401
-19.0,72.0,5.402
-17.0,62.0,5.403
-2.0,49.0,5.404
15.0,27.0,5.405
18.0,8.0,5.406
17.0,0.0,5.407
31.0,-8.0,5.408
50.0,-18.0,5.409
36.0,-27.0,5.41
-7.0,-35.0,5.411
-37.0,-42.0,5.412
-29.0,-39.0,5.413
-8.0,-35.0,5.414
-1.0,-31.0,5.415
-3.0,-26.0,5.416
-6.0,-19.0,5.417
-22.0,-5.0,5.418
-39.0,5.0,5.419
-39.0,18.0,5.42
-14.0,32.0,5.421
7.0,41.0,5.422
12.0,36.0,5.423
13.0,28.0,5.424
14.0,15.0,5.425
6.0,5.0,5.426
-5.0,1.0,5.427
-3.0,-4.0,5.428
14.0,-9.0,5.429
24.0,-15.0,5.43
26.0,-19.0,5.431
27.0,-23.0,5.432
18.0,-22.0,5.433
-10.0,-19.0,5.434
-36.0,-17.0,5.435
-17.0,-14.0,5.436
47.0,-10.0,5.437
116.0,-16.0,5.438
140.0,14.0,5.439
93.0,47.0,5.44
-9.0,84.0,5.441
-119.0,109.0,5.442
-167.0,95.0,5.443
-124.0,75.0,5.444
-42.0,41.0,5.445
0.0,12.0,5.446
-7.0,-1.0,5.447
-13.0,-14.0,5.448
5.0,-28.0,5.449
22.0,-42.0,5.45
22.0,-55.0,5.451
22.0,-65.0,5.452
26.0,-61.0,5.453
25.0,-55.0,5.454
21.0,-48.0,5.455
31.0,-40.0,5.456
42.0,-30.0,5.457
31.0,-20.0,5.458
1.0,-15.0,5.459
-21.0,-13.0,5.46
-23.0,-8.0,5.461
-21.0,3.0,5.462
-18.0,9.0,5.463
-7.0,10.0,5.464
9.0,17.0,5.465
12.0,30.0,5.466
8.0,34.0,5.467
13.0,26.0,5.468
22.0,18.0,5.469
19.0,19.0,5.47
7.0,20.0,5.471
3.0,14.0,5.472
10.0,9.0,5.473
10.0,7.0,5.474
-8.0,3.0,5.475
-28.0,-7.0,5.476
-28.0,-14.0,5.477
0.0,-18.0,5.478
42.0,-19.0,5.479
60.0,-18.0,5.48
44.0,-20.0,5.481
19.0,-17.0,5.482
7.0,-4.0,5.483
-7.0,13.0,5.484
-46.0,28.0,5.485
-87.0,28.0,5.486
-74.0,12.0,5.487
-10.0,-9.0,5.488
37.0,-20.0,5.489
27.0,-16.0,5.49
-3.0,-7.0,5.491
-2.0,-6.0,5.492
18.0,-7.0,5.493
16.0,0.0,5.494
0.0,16.0,5.495
4.0,26.0,5.496
21.0,24.0,5.497
19.0,17.0,5.498
-2.0,16.0,5.499
-13.0,17.0,5.5
-1.0,9.0,5.501
14.0,-1.0,5.502
27.0,-10.0,5.503
44.0,-18.0,5.504
48.0,-26.0,5.505
24.0,-32.0,5.506
-11.0,-31.0,5.507
-29.0,-18.0,5.508
-28.0,1.0,5.509
-19.0,11.0,5.51
-1.0,8.0,5.511
19.0,0.0,5.512
12.0,0.0,5.513
-18.0,5.0,5.514
-32.0,5.0,5.515
-9.0,1.0,5.516
20.0,6.0,5.517
20.0,14.0,5.518
2.0,14.0,5.519
-7.0,7.0,5.52
-5.0,4.0,5.521
-4.0,9.0,5.522
3.0,8.0,5.523
23.0,0.0,5.524
33.0,-2.0,5.525
20.0,5.0,5.526
-3.0,13.0,5.527
-18.0,16.0,5.528
-26.0,19.0,5.529
-31.0,24.0,5.53
-16.0,21.0,5.531
15.0,8.0,5.532
32.0,-1.0,5.533
24.0,0.0,5.534
19.0,7.0,5.535
27.0,9.0,5.536
27.0,8.0,5.537
5.0,5.0,5.538
-8.0,3.0,5.539
7.0,1.0,5.54
25.0,-3.0,5.541
12.0,-2.0,5.542
-9.0,0.0,5.543
-8.0,-1.0,5.544
0.0,-2.0,5.545
-10.0,0.0,5.546
-27.0,4.0,5.547
-27.0,4.0,5.548
-17.0,0.0,5.549
-14.0,-6.0,5.55
-17.0,-11.0,5.551
-12.0,-14.0,5.552
-6.0,-11.0,5.553
-7.0,-9.0,5.554
-5.0,-12.0,5.555
11.0,-20.0,5.556
26.0,-19.0,5.557
21.0,-11.0,5.558
2.0,-4.0,5.559
-18.0,-3.0,5.56
-34.0,-11.0,5.561
-39.0,-18.0,5.562
-20.0,-23.0,5.563
10.0,-27.0,5.564
24.0,-26.0,5.565
19.0,-17.0,5.566
22.0,-10.0,5.567
41.0,-7.0,5.568
54.0,-13.0,5.569
44.0,-20.0,5.57
29.0,-25.0,5.571
24.0,-30.0,5.572
26.0,-34.0,5.573
27.0,-32.0,5.574
32.0,-17.0,5.575
28.0,8.0,5.576
4.0,33.0,5.577
-35.0,48.0,5.578
-61.0,47.0,5.579
-58.0,30.0,5.58
-33.0,2.0,5.581
-6.0,-18.0,5.582
13.0,-30.0,5.583
19.0,-38.0,5.584
15.0,-56.0,5.585
13.0,-82.0,5.586
15.0,-97.0,5.587
18.0,-89.0,5.588
27.0,-68.0,5.589
50.0,-60.0,5.59
72.0,-66.0,5.591
57.0,-69.0,5.592
-6.0,-55.0,5.593
-81.0,-34.0,5.594
-124.0,-18.0,5.595
-122.0,-9.0,5.596
-93.0,-9.0,5.597
-52.0,-21.0,5.598
-13.0,-40.0,5.599
11.0,-45.0,5.6
27.0,-33.0,5.601
44.0,-13.0,5.602
47.0,-2.0,5.603
17.0,2.0,5.604
-20.0,6.0,5.605
-12.0,-1.0,5.606
25.0,-18.0,5.607
25.0,-27.0,5.608
-23.0,-14.0,5.609
-46.0,3.0,5.61
-1.0,1.0,5.611
41.0,-13.0,5.612
26.0,-21.0,5.613
-2.0,-16.0,5.614
13.0,-10.0,5.615
42.0,-13.0,5.616
37.0,-15.0,5.617
15.0,-16.0,5.618
17.0,-11.0,5.619
30.0,-3.0,5.62
24.0,1.0,5.621
10.0,2.0,5.622
17.0,-1.0,5.623
30.0,0.0,5.624
28.0,6.0,5.625
23.0,14.0,5.626
28.0,26.0,5.627
19.0,43.0,5.628
-25.0,67.0,5.629
-76.0,91.0,5.63
-96.0,105.0,5.631
-82.0,101.0,5.632
-52.0,86.0,5.633
-26.0,74.0,5.634
-11.0,71.0,5.635
-5.0,71.0,5.636
11.0,68.0,5.637
45.0,57.0,5.638
79.0,46.0,5.639
93.0,38.0,5.64
102.0,31.0,5.641
116.0,32.0,5.642
116.0,37.0,5.643
81.0,42.0,5.644
28.0,44.0,5.645
-20.0,44.0,5.646
-67.0,48.0,5.647
-128.0,61.0,5.648
-175.0,78.0,5.649
-166.0,94.0,5.65
-111.0,111.0,5.651
-59.0,131.0,5.652
-31.0,144.0,5.653
-4.0,135.0,5.654
35.0,101.0,5.655
66.0,68.0,5.656
68.0,51.0,5.657
49.0,41.0,5.658
29.0,30.0,5.659
19.0,22.0,5.66
19.0,20.0,5.661
18.0,22.0,5.662
18.0,11.0,5.663
15.0,-7.0,5.664
7.0,-18.0,5.665
1.0,-21.0,5.666
2.0,-26.0,5.667
11.0,-37.0,5.668
19.0,-43.0,5.669
17.0,-45.0,5.67
8.0,-51.0,5.671
2.0,-61.0,5.672
2.0,-63.0,5.673
2.0,-52.0,5.674
3.0,-42.0,5.675
7.0,-43.0,5.676
15.0,-44.0,5.677
16.0,-41.0,5.678
17.0,-33.0,5.679
20.0,-25.0,5.68
25.0,-23.0,5.681
23.0,-14.0,5.682
21.0,0.0,5.683
22.0,13.0,5.684
20.0,26.0,5.685
6.0,32.0,5.686
-14.0,29.0,5.687
-21.0,20.0,5.688
-14.0,10.0,5.689
-3.0,6.0,5.69
3.0,0.0,5.691
15.0,-19.0,5.692
28.0,-52.0,5.693
32.0,-85.0,5.694
20.0,-103.0,5.695
0.0,-99.0,5.696
-12.0,-76.0,5.697
-21.0,-46.0,5.698
-21.0,-22.0,5.699
-6.0,-14.0,5.7
29.0,-19.0,5.701
69.0,-21.0,5.702
86.0,-16.0,5.703
67.0,-4.0,5.704
22.0,10.0,5.705
-23.0,22.0,5.706
-46.0,25.0,5.707
-41.0,18.0,5.708
-22.0,5.0,5.709
2.0,-9.0,5.71
37.0,-26.0,5.711
77.0,-39.0,5.712
98.0,-43.0,5.713
72.0,-30.0,5.714
-5.0,-5.0,5.715
-108.0,15.0,5.716
-191.0,21.0,5.717
-231.0,10.0,5.718
-211.0,-4.0,5.719
-158.0,-8.0,5.72
-107.0,0.0,5.721
-70.0,25.0,5.722
-17.0,55.0,5.723
65.0,70.0,5.724
151.0,60.0,5.725
202.0,36.0,5.726
196.0,12.0,5.727
143.0,-13.0,5.728
81.0,-38.0,5.729
49.0,-46.0,5.73
55.0,-38.0,5.731
62.0,-33.0,5.732
38.0,-48.0,5.733
-2.0,-65.0,5.734
-24.0,-61.0,5.735
-30.0,-47.0,5.736
-42.0,-48.0,5.737
-71.0,-60.0,5.738
-100.0,-52.0,5.739
-112.0,-17.0,5.74
-101.0,13.0,5.741
-67.0,24.0,5.742
-23.0,23.0,5.743
-1.0,24.0,5.744
0.0,22.0,5.745
7.0,9.0,5.746
33.0,-3.0,5.747
59.0,-5.0,5.748
70.0,-6.0,5.749
65.0,-14.0,5.75
48.0,-25.0,5.751
25.0,-28.0,5.752
19.0,-23.0,5.753
36.0,-11.0,5.754
50.0,2.0,5.755
38.0,18.0,5.756
10.0,39.0,5.757
-23.0,49.0,5.758
-52.0,49.0,5.759
-65.0,42.0,5.76
-29.0,19.0,5.761
-5.0,-3.0,5.762
-19.0,-21.0,5.763
-31.0,-38.0,5.764
-35.0,-48.0,5.765
-34.0,-51.0,5.766
-14.0,-32.0,5.767
3.0,-18.0,5.768
8.0,-19.0,5.769
25.0,-21.0,5.77
81.0,-20.0,5.771
114.0,-15.0,5.772
80.0,2.0,5.773
40.0,21.0,5.774
-19.0,44.0,5.775
-61.0,59.0,5.776
-51.0,48.0,5.777
-35.0,37.0,5.778
-15.0,31.0,5.779
-28.0,28.0,5.78
-47.0,28.0,5.781
-34.0,37.0,5.782
13.0,43.0,5.783
54.0,30.0,5.784
45.0,11.0,5.785
2.0,11.0,5.786
-21.0,24.0,5.787
-13.0,17.0,5.788
-21.0,-7.0,5.789
-62.0,-19.0,5.79
-73.0,-11.0,5.791
-12.0,-7.0,5.792
62.0,-13.0,5.793
78.0,-15.0,5.794
60.0,-8.0,5.795
63.0,-6.0,5.796
73.0,-10.0,5.797
39.0,-10.0,5.798
-21.0,4.0,5.799
-44.0,14.0,5.8
-16.0,7.0,5.801
11.0,-2.0,5.802
18.0,-3.0,5.803
23.0,-2.0,5.804
25.0,-2.0,5.805
6.0,6.0,5.806
-25.0,26.0,5.807
-43.0,55.0,5.808
-51.0,80.0,5.809
-60.0,83.0,5.81
-58.0,49.0,5.811
-29.0,-19.0,5.812
9.0,-89.0,5.813
41.0,-127.0,5.814
67.0,-127.0,5.815
95.0,-104.0,5.816
112.0,-77.0,5.817
98.0,-55.0,5.818
67.0,-45.0,5.819
30.0,-37.0,5.82
-14.0,-35.0,5.821
-60.0,-28.0,5.822
-88.0,-4.0,5.823
-85.0,18.0,5.824
-56.0,33.0,5.825
-5.0,54.0,5.826
53.0,91.0,5.827
83.0,117.0,5.828
65.0,107.0,5.829
14.0,89.0,5.83
-33.0,47.0,5.831
-62.0,5.0,5.832
-68.0,-36.0,5.833
-39.0,-66.0,5.834
3.0,-54.0,5.835
9.0,-44.0,5.836
-37.0,-41.0,5.837
-90.0,-44.0,5.838
-114.0,-59.0,5.839
-86.0,-47.0,5.84
-39.0,-25.0,5.841
10.0,-16.0,5.842
68.0,-19.0,5.843
121.0,-16.0,5.844
146.0,-2.0,5.845
145.0,13.0,5.846
132.0,21.0,5.847
100.0,26.0,5.848
43.0,35.0,5.849
-12.0,49.0,5.85
-36.0,60.0,5.851
-41.0,58.0,5.852
-63.0,45.0,5.853
-87.0,32.0,5.854
-78.0,24.0,5.855
-42.0,8.0,5.856
-19.0,-16.0,5.857
-26.0,-41.0,5.858
-48.0,-37.0,5.859
-68.0,-15.0,5.86
-81.0,-2.0,5.861
-78.0,1.0,5.862
-47.0,-1.0,5.863
0.0,-5.0,5.864
43.0,-11.0,5.865
71.0,-16.0,5.866
81.0,-15.0,5.867
77.0,-14.0,5.868
69.0,-13.0,5.869
68.0,-7.0,5.87
58.0,5.0,5.871
21.0,11.0,5.872
-36.0,5.0,5.873
-73.0,-8.0,5.874
-59.0,-14.0,5.875
-12.0,-18.0,5.876
36.0,-25.0,5.877
67.0,-31.0,5.878
83.0,-19.0,5.879
84.0,-1.0,5.88
41.0,32.0,5.881
7.0,59.0,5.882
3.0,67.0,5.883
4.0,66.0,5.884
24.0,34.0,5.885
33.0,10.0,5.886
10.0,14.0,5.887
-9.0,22.0,5.888
-14.0,46.0,5.889
-19.0,60.0,5.89
-25.0,45.0,5.891
-30.0,19.0,5.892
-31.0,-39.0,5.893
-27.0,-87.0,5.894
-3.0,-99.0,5.895
15.0,-104.0,5.896
12.0,-83.0,5.897
9.0,-57.0,5.898
7.0,-21.0,5.899
-4.0,-1.0,5.9
-35.0,-5.0,5.901
-93.0,-13.0,5.902
-161.0,-7.0,5.903
-191.0,14.0,5.904
-132.0,44.0,5.905
4.0,76.0,5.906
145.0,88.0,5.907
241.0,57.0,5.908
296.0,-8.0,5.909
308.0,-63.0,5.91
237.0,-68.0,5.911
81.0,-31.0,5.912
-63.0,6.0,5.913
-106.0,22.0,5.914
-94.0,21.0,5.915
-121.0,20.0,5.916
-164.0,23.0,5.917
-146.0,16.0,5.918
-83.0,-4.0,5.919
-92.0,-24.0,5.92
-178.0,-30.0,5.921
-215.0,-21.0,5.922
-123.0,-17.0,5.923
21.0,-27.0,5.924
132.0,-34.0,5.925
198.0,-22.0,5.926
204.0,4.0,5.927
131.0,32.0,5.928
34.0,44.0,5.929
18.0,35.0,5.93
77.0,14.0,5.931
101.0,2.0,5.932
35.0,9.0,5.933
-53.0,19.0,5.934
-107.0,16.0,5.935
-135.0,8.0,5.936
-139.0,8.0,5.937
-103.0,10.0,5.938
-30.0,-2.0,5.939
29.0,-25.0,5.94
52.0,-42.0,5.941
54.0,-32.0,5.942
61.0,-5.0,5.943
72.0,22.0,5.944
81.0,45.0,5.945
69.0,58.0,5.946
22.0,59.0,5.947
-41.0,47.0,5.948
-71.0,37.0,5.949
-54.0,27.0,5.95
-29.0,0.0,5.951
-23.0,-48.0,5.952
-12.0,-87.0,5.953
3.0,-94.0,5.954
-23.0,-79.0,5.955
-98.0,-71.0,5.956
-138.0,-81.0,5.957
-67.0,-90.0,5.958
82.0,-78.0,5.959
194.0,-46.0,5.96
207.0,-7.0,5.961
147.0,40.0,5.962
63.0,92.0,5.963
-14.0,124.0,5.964
-63.0,114.0,5.965
-78.0,64.0,5.966
-72.0,15.0,5.967
-60.0,1.0,5.968
-34.0,12.0,5.969
5.0,18.0,5.97
38.0,12.0,5.971
59.0,9.0,5.972
96.0,9.0,5.973
139.0,-2.0,5.974
142.0,-21.0,5.975
91.0,-29.0,5.976
46.0,-25.0,5.977
46.0,-29.0,5.978
43.0,-36.0,5.979
-13.0,-29.0,5.98
-78.0,-13.0,5.981
-77.0,0.0,5.982
-30.0,8.0,5.983
-24.0,25.0,5.984
-75.0,45.0,5.985
-124.0,42.0,5.986
-141.0,19.0,5.987
-136.0,12.0,5.988
-101.0,26.0,5.989
-25.0,24.0,5.99
30.0,-2.0,5.991
2.0,-16.0,5.992
-67.0,-6.0,5.993
-83.0,-1.0,5.994
-43.0,-20.0,5.995
-22.0,-34.0,5.996
-32.0,-18.0,5.997
-30.0,3.0,5.998
6.0,4.0,5.999
51.0,-9.0,6.0
97.0,-16.0,6.001
132.0,-17.0,6.002
126.0,-28.0,6.003
71.0,-38.0,6.004
23.0,-24.0,6.005
23.0,0.0,6.006
39.0,6.0,6.007
34.0,-9.0,6.008
29.0,-18.0,6.009
48.0,-5.0,6.01
74.0,13.0,6.011
79.0,15.0,6.012
74.0,5.0,6.013
69.0,-3.0,6.014
31.0,-5.0,6.015
-53.0,-12.0,6.016
-130.0,-25.0,6.017
-155.0,-35.0,6.018
-120.0,-27.0,6.019
-62.0,-6.0,6.02
-6.0,10.0,6.021
30.0,22.0,6.022
30.0,36.0,6.023
1.0,54.0,6.024
-11.0,57.0,6.025
6.0,41.0,6.026
15.0,20.0,6.027
-4.0,10.0,6.028
-7.0,12.0,6.029
38.0,8.0,6.03
85.0,-5.0,6.031
78.0,-19.0,6.032
36.0,-23.0,6.033
8.0,-6.0,6.034
-8.0,27.0,6.035
-38.0,62.0,6.036
-60.0,71.0,6.037
-44.0,39.0,6.038
-7.0,-5.0,6.039
-1.0,-32.0,6.04
-20.0,-38.0,6.041
-19.0,-34.0,6.042
-1.0,-32.0,6.043
-5.0,-29.0,6.044
-27.0,-23.0,6.045
-16.0,-19.0,6.046
31.0,-13.0,6.047
55.0,0.0,6.048
25.0,16.0,6.049
-6.0,21.0,6.05
13.0,12.0,6.051
49.0,1.0,6.052
36.0,-10.0,6.053
-21.0,-19.0,6.054
-49.0,-27.0,6.055
-21.0,-39.0,6.056
20.0,-54.0,6.057
29.0,-70.0,6.058
11.0,-67.0,6.059
-4.0,-45.0,6.06
-3.0,-30.0,6.061
4.0,-29.0,6.062
8.0,-31.0,6.063
8.0,-19.0,6.064
1.0,2.0,6.065
-9.0,15.0,6.066
-15.0,27.0,6.067
-14.0,56.0,6.068
-16.0,103.0,6.069
-19.0,138.0,6.07
-14.0,133.0,6.071
2.0,97.0,6.072
12.0,69.0,6.073
3.0,84.0,6.074
-8.0,133.0,6.075
-6.0,168.0,6.076
15.0,151.0,6.077
44.0,72.0,6.078
60.0,-38.0,6.079
46.0,-148.0,6.08
6.0,-246.0,6.081
-35.0,-306.0,6.082
-53.0,-305.0,6.083
-38.0,-246.0,6.084
-10.0,-163.0,6.085
23.0,-94.0,6.086
55.0,-45.0,6.087
77.0,-11.0,6.088
63.0,7.0,6.089
9.0,20.0,6.09
-58.0,39.0,6.091
-96.0,62.0,6.092
-97.0,69.0,6.093
-79.0,55.0,6.094
-47.0,41.0,6.095
0.0,40.0,6.096
56.0,46.0,6.097
93.0,49.0,6.098
96.0,62.0,6.099
81.0,86.0,6.1
68.0,97.0,6.101
50.0,90.0,6.102
13.0,74.0,6.103
-20.0,65.0,6.104
-28.0,54.0,6.105
-8.0,25.0,6.106
21.0,-9.0,6.107
42.0,-24.0,6.108
38.0,-14.0,6.109
4.0,6.0,6.11
-37.0,18.0,6.111
-51.0,22.0,6.112
-34.0,29.0,6.113
-24.0,43.0,6.114
-34.0,41.0,6.115
-35.0,5.0,6.116
-11.0,-46.0,6.117
21.0,-97.0,6.118
29.0,-129.0,6.119
18.0,-139.0,6.12
8.0,-130.0,6.121
-1.0,-98.0,6.122
-23.0,-47.0,6.123
-55.0,10.0,6.124
-74.0,60.0,6.125
-61.0,92.0,6.126
-21.0,101.0,6.127
27.0,92.0,6.128
53.0,81.0,6.129
42.0,77.0,6.13
2.0,62.0,6.131
-33.0,17.0,6.132
-36.0,-38.0,6.133
-16.0,-70.0,6.134
0.0,-66.0,6.135
8.0,-56.0,6.136
25.0,-62.0,6.137
53.0,-88.0,6.138
63.0,-108.0,6.139
28.0,-106.0,6.14
-28.0,-84.0,6.141
-57.0,-51.0,6.142
-35.0,-29.0,6.143
18.0,-26.0,6.144
56.0,-20.0,6.145
51.0,1.0,6.146
25.0,24.0,6.147
24.0,31.0,6.148
50.0,37.0,6.149
49.0,77.0,6.15
1.0,152.0,6.151
-29.0,215.0,6.152
-2.0,224.0,6.153
35.0,182.0,6.154
26.0,119.0,6.155
-1.0,58.0,6.156
1.0,12.0,6.157
15.0,-20.0,6.158
7.0,-25.0,6.159
-7.0,-9.0,6.16
9.0,-16.0,6.161
34.0,-69.0,6.162
26.0,-142.0,6.163
-3.0,-183.0,6.164
-18.0,-176.0,6.165
-21.0,-158.0,6.166
-30.0,-154.0,6.167
-34.0,-148.0,6.168
-14.0,-119.0,6.169
3.0,-68.0,6.17
-11.0,-12.0,6.171
-36.0,39.0,6.172
-28.0,85.0,6.173
17.0,116.0,6.174
56.0,124.0,6.175
52.0,109.0,6.176
16.0,78.0,6.177
-19.0,35.0,6.178
-30.0,-3.0,6.179
-31.0,-28.0,6.18
-34.0,-46.0,6.181
-22.0,-61.0,6.182
20.0,-69.0,6.183
63.0,-67.0,6.184
62.0,-54.0,6.185
27.0,-36.0,6.186
-1.0,-9.0,6.187
-28.0,39.0,6.188
-82.0,104.0,6.189
-135.0,166.0,6.19
-119.0,201.0,6.191
-39.0,205.0,6.192
21.0,198.0,6.193
19.0,194.0,6.194
-2.0,185.0,6.195
6.0,133.0,6.196
30.0,34.0,6.197
36.0,-92.0,6.198
28.0,-186.0,6.199
24.0,-226.0,6.2
33.0,-232.0,6.201
44.0,-220.0,6.202
53.0,-190.0,6.203
63.0,-150.0,6.204
61.0,-117.0,6.205
34.0,-94.0,6.206
-9.0,-62.0,6.207
-41.0,-12.0,6.208
-46.0,40.0,6.209
-29.0,69.0,6.21
-7.0,71.0,6.211
9.0,69.0,6.212
13.0,87.0,6.213
15.0,106.0,6.214
23.0,99.0,6.215
32.0,63.0,6.216
23.0,31.0,6.217
-4.0,17.0,6.218
-27.0,17.0,6.219
-36.0,8.0,6.22
-30.0,-17.0,6.221
-11.0,-40.0,6.222
26.0,-45.0,6.223
64.0,-19.0,6.224
75.0,26.0,6.225
42.0,58.0,6.226
-2.0,47.0,6.227
-22.0,12.0,6.228
-8.0,-11.0,6.229
12.0,-11.0,6.23
14.0,-6.0,6.231
0.0,-5.0,6.232
-11.0,2.0,6.233
-18.0,19.0,6.234
-24.0,25.0,6.235
-18.0,15.0,6.236
3.0,4.0,6.237
21.0,0.0,6.238
7.0,-4.0,6.239
-20.0,-20.0,6.24
-20.0,-44.0,6.241
5.0,-55.0,6.242
19.0,-59.0,6.243
10.0,-67.0,6.244
2.0,-76.0,6.245
0.0,-75.0,6.246
-16.0,-56.0,6.247
-35.0,-26.0,6.248
-26.0,6.0,6.249
4.0,36.0,6.25
12.0,53.0,6.251
-7.0,60.0,6.252
-10.0,67.0,6.253
15.0,81.0,6.254
32.0,106.0,6.255
24.0,130.0,6.256
10.0,138.0,6.257
6.0,102.0,6.258
6.0,18.0,6.259
10.0,-78.0,6.26
21.0,-139.0,6.261
31.0,-143.0,6.262
17.0,-120.0,6.263
-32.0,-101.0,6.264
-89.0,-91.0,6.265
-109.0,-79.0,6.266
-58.0,-56.0,6.267
42.0,-25.0,6.268
111.0,11.0,6.269
94.0,40.0,6.27
42.0,52.0,6.271
36.0,45.0,6.272
74.0,36.0,6.273
86.0,31.0,6.274
41.0,23.0,6.275
-19.0,18.0,6.276
-60.0,32.0,6.277
-89.0,54.0,6.278
-99.0,64.0,6.279
-76.0,54.0,6.28
-34.0,36.0,6.281
-4.0,28.0,6.282
15.0,15.0,6.283
42.0,-7.0,6.284
64.0,-27.0,6.285
53.0,-36.0,6.286
14.0,-42.0,6.287
-14.0,-45.0,6.288
-17.0,-27.0,6.289
-20.0,3.0,6.29
-32.0,14.0,6.291
-40.0,-5.0,6.292
-36.0,-26.0,6.293
-32.0,-29.0,6.294
-27.0,-29.0,6.295
-12.0,-48.0,6.296
9.0,-60.0,6.297
16.0,-42.0,6.298
6.0,-3.0,6.299
-3.0,22.0,6.3
0.0,23.0,6.301
7.0,29.0,6.302
11.0,47.0,6.303
17.0,57.0,6.304
24.0,50.0,6.305
21.0,39.0,6.306
15.0,39.0,6.307
14.0,41.0,6.308
19.0,41.0,6.309
17.0,40.0,6.31
12.0,37.0,6.311
19.0,25.0,6.312
36.0,1.0,6.313
46.0,-22.0,6.314
44.0,-39.0,6.315
41.0,-56.0,6.316
35.0,-69.0,6.317
12.0,-72.0,6.318
-22.0,-59.0,6.319
-36.0,-46.0,6.32
-21.0,-43.0,6.321
-5.0,-35.0,6.322
-9.0,-17.0,6.323
-22.0,-8.0,6.324
-21.0,-14.0,6.325
0.0,-24.0,6.326
32.0,-25.0,6.327
62.0,-17.0,6.328
73.0,-8.0,6.329
56.0,6.0,6.33
21.0,25.0,6.331
-14.0,42.0,6.332
-51.0,61.0,6.333
-97.0,84.0,6.334
-126.0,93.0,6.335
-101.0,72.0,6.336
-38.0,41.0,6.337
12.0,24.0,6.338
18.0,27.0,6.339
0.0,22.0,6.34
-1.0,-3.0,6.341
10.0,-21.0,6.342
17.0,-19.0,6.343
22.0,-13.0,6.344
27.0,-14.0,6.345
30.0,-16.0,6.346
21.0,-8.0,6.347
17.0,9.0,6.348
24.0,27.0,6.349
34.0,31.0,6.35
42.0,19.0,6.351
48.0,-11.0,6.352
47.0,-40.0,6.353
34.0,-59.0,6.354
7.0,-73.0,6.355
-23.0,-92.0,6.356
-45.0,-102.0,6.357
-52.0,-95.0,6.358
-32.0,-65.0,6.359
-16.0,-27.0,6.36
-12.0,5.0,6.361
-10.0,36.0,6.362
-16.0,62.0,6.363
-17.0,81.0,6.364
-1.0,88.0,6.365
12.0,78.0,6.366
14.0,49.0,6.367
15.0,18.0,6.368
5.0,-5.0,6.369
-4.0,-19.0,6.37
-13.0,-33.0,6.371
-10.0,-47.0,6.372
31.0,-53.0,6.373
55.0,-41.0,6.374
25.0,-17.0,6.375
-4.0,7.0,6.376
-32.0,17.0,6.377
-44.0,8.0,6.378
-2.0,-10.0,6.379
29.0,-30.0,6.38
41.0,-47.0,6.381
63.0,-50.0,6.382
97.0,-36.0,6.383
93.0,-10.0,6.384
24.0,17.0,6.385
-60.0,35.0,6.386
-93.0,50.0,6.387
-74.0,68.0,6.388
-52.0,75.0,6.389
-46.0,60.0,6.39
-34.0,34.0,6.391
-6.0,17.0,6.392
9.0,15.0,6.393
-2.0,19.0,6.394
-11.0,22.0,6.395
1.0,24.0,6.396
21.0,22.0,6.397
27.0,7.0,6.398
31.0,-11.0,6.399
32.0,-23.0,6.4
25.0,-26.0,6.401
2.0,-23.0,6.402
-20.0,-23.0,6.403
-19.0,-30.0,6.404
6.0,-36.0,6.405
28.0,-35.0,6.406
28.0,-22.0,6.407
12.0,-2.0,6.408
-8.0,15.0,6.409
-19.0,23.0,6.41
-13.0,19.0,6.411
-2.0,9.0,6.412
2.0,1.0,6.413
0.0,-1.0,6.414
10.0,-1.0,6.415
32.0,-5.0,6.416
48.0,-10.0,6.417
39.0,30.0,6.418
18.0,25.0,6.419
-4.0,16.0,6.42
-32.0,0.0,6.421
-47.0,-10.0,6.422
-25.0,-7.0,6.423
-9.0,-1.0,6.424
-13.0,14.0,6.425
-14.0,25.0,6.426
-5.0,30.0,6.427
4.0,34.0,6.428
15.0,35.0,6.429
18.0,30.0,6.43
-6.0,9.0,6.431
-12.0,-10.0,6.432
33.0,-24.0,6.433
64.0,-38.0,6.434
42.0,-48.0,6.435
20.0,-53.0,6.436
-5.0,-46.0,6.437
-26.0,26.0,6.438
-26.0,22.0,6.439
-12.0,14.0,6.44
-2.0,0.0,6.441
-6.0,-9.0,6.442
-2.0,-6.0,6.443
18.0,-1.0,6.444
27.0,12.0,6.445
12.0,22.0,6.446
-1.0,26.0,6.447
14.0,29.0,6.448
30.0,30.0,6.449
19.0,26.0,6.45
2.0,8.0,6.451
1.0,-9.0,6.452
2.0,-21.0,6.453
-14.0,-33.0,6.454
-35.0,-41.0,6.455
-37.0,-45.0,6.456
-29.0,-39.0,6.457
-31.0,26.0,6.458
-34.0,22.0,6.459
-33.0,14.0,6.46
-17.0,0.0,6.461
2.0,-9.0,6.462
27.0,-6.0,6.463
42.0,-1.0,6.464
20.0,12.0,6.465
6.0,22.0,6.466
15.0,26.0,6.467
22.0,29.0,6.468
22.0,30.0,6.469
21.0,26.0,6.47
25.0,8.0,6.471
23.0,-9.0,6.472
3.0,-21.0,6.473
-10.0,-33.0,6.474
-4.0,-41.0,6.475
2.0,-45.0,6.476
6.0,-39.0,6.477
9.0,-34.0,6.478
20.0,-37.0,6.479
31.0,-37.0,6.48
21.0,-22.0,6.481
-6.0,7.0,6.482
-9.0,37.0,6.483
11.0,58.0,6.484
21.0,73.0,6.485
5.0,75.0,6.486
-11.0,63.0,6.487
-9.0,47.0,6.488
-1.0,40.0,6.489
1.0,31.0,6.49
0.0,-1.0,6.491
-11.0,-54.0,6.492
-41.0,-100.0,6.493
-63.0,-116.0,6.494
-46.0,-103.0,6.495
-2.0,-76.0,6.496
19.0,-49.0,6.497
3.0,-27.0,6.498
-1.0,-18.0,6.499
19.0,-17.0,6.5
29.0,-19.0,6.501
11.0,-11.0,6.502
-2.0,-1.0,6.503
8.0,4.0,6.504
13.0,5.0,6.505
-2.0,6.0,6.506
-11.0,6.0,6.507
4.0,2.0,6.508
22.0,-1.0,6.509
25.0,0.0,6.51
29.0,11.0,6.511
34.0,21.0,6.512
20.0,23.0,6.513
-7.0,22.0,6.514
-12.0,31.0,6.515
8.0,51.0,6.516
15.0,66.0,6.517
-12.0,61.0,6.518
-39.0,40.0,6.519
-38.0,23.0,6.52
-16.0,14.0,6.521
3.0,13.0,6.522
14.0,4.0,6.523
23.0,-12.0,6.524
32.0,-20.0,6.525
39.0,-17.0,6.526
42.0,-12.0,6.527
36.0,-12.0,6.528
10.0,-9.0,6.529
-32.0,0.0,6.53
-60.0,5.0,6.531
-54.0,0.0,6.532
-19.0,-7.0,6.533
15.0,-4.0,6.534
24.0,7.0,6.535
7.0,14.0,6.536
-11.0,17.0,6.537
-12.0,12.0,6.538
2.0,8.0,6.539
12.0,1.0,6.54
4.0,-4.0,6.541
-6.0,-4.0,6.542
-10.0,-1.0,6.543
-9.0,3.0,6.544
-7.0,10.0,6.545
0.0,14.0,6.546
19.0,7.0,6.547
40.0,-9.0,6.548
49.0,-22.0,6.549
39.0,-26.0,6.55
19.0,-25.0,6.551
-3.0,-22.0,6.552
-18.0,-9.0,6.553
-21.0,4.0,6.554
-15.0,10.0,6.555
-1.0,5.0,6.556
17.0,-2.0,6.557
23.0,-11.0,6.558
14.0,-22.0,6.559
3.0,-29.0,6.56
7.0,-30.0,6.561
20.0,-19.0,6.562
19.0,-5.0,6.563
-2.0,2.0,6.564
-20.0,-1.0,6.565
-17.0,-5.0,6.566
-4.0,0.0,6.567
-3.0,15.0,6.568
-22.0,25.0,6.569
-40.0,20.0,6.57
-31.0,13.0,6.571
4.0,15.0,6.572
37.0,21.0,6.573
36.0,20.0,6.574
8.0,13.0,6.575
-16.0,8.0,6.576
-16.0,3.0,6.577
-4.0,-8.0,6.578
4.0,-19.0,6.579
11.0,-26.0,6.58
21.0,-28.0,6.581
32.0,-21.0,6.582
30.0,-6.0,6.583
5.0,11.0,6.584
-30.0,18.0,6.585
-38.0,17.0,6.586
-13.0,12.0,6.587
6.0,12.0,6.588
-9.0,14.0,6.589
-31.0,19.0,6.59
-15.0,29.0,6.591
19.0,35.0,6.592
24.0,27.0,6.593
5.0,11.0,6.594
4.0,1.0,6.595
26.0,4.0,6.596
32.0,3.0,6.597
16.0,-6.0,6.598
6.0,-13.0,6.599
9.0,-11.0,6.6
1.0,-15.0,6.601
-9.0,-24.0,6.602
9.0,-28.0,6.603
49.0,-18.0,6.604
65.0,-5.0,6.605
46.0,6.0,6.606
16.0,18.0,6.607
-10.0,28.0,6.608
-34.0,27.0,6.609
-51.0,12.0,6.61
-36.0,-4.0,6.611
2.0,-12.0,6.612
23.0,-13.0,6.613
8.0,-12.0,6.614
-21.0,-12.0,6.615
-31.0,-20.0,6.616
-24.0,-34.0,6.617
-14.0,-45.0,6.618
-2.0,-36.0,6.619
8.0,-11.0,6.62
12.0,4.0,6.621
0.0,9.0,6.622
-16.0,9.0,6.623
-25.0,9.0,6.624
-24.0,3.0,6.625
-13.0,-6.0,6.626
6.0,-8.0,6.627
23.0,2.0,6.628
21.0,16.0,6.629
8.0,20.0,6.63
10.0,14.0,6.631
28.0,7.0,6.632
36.0,0.0,6.633
19.0,2.0,6.634
0.0,17.0,6.635
-9.0,32.0,6.636
-10.0,33.0,6.637
-15.0,11.0,6.638
-10.0,-10.0,6.639
7.0,-15.0,6.64
20.0,-6.0,6.641
16.0,1.0,6.642
4.0,2.0,6.643
2.0,2.0,6.644
3.0,10.0,6.645
1.0,15.0,6.646
2.0,8.0,6.647
16.0,-9.0,6.648
30.0,-33.0,6.649
27.0,-52.0,6.65
12.0,-62.0,6.651
1.0,-62.0,6.652
5.0,-57.0,6.653
17.0,-55.0,6.654
31.0,-55.0,6.655
45.0,-58.0,6.656
51.0,-54.0,6.657
37.0,-45.0,6.658
4.0,-29.0,6.659
-32.0,-10.0,6.66
-58.0,5.0,6.661
-73.0,16.0,6.662
-75.0,23.0,6.663
-51.0,17.0,6.664
-5.0,-2.0,6.665
29.0,-25.0,6.666
24.0,-34.0,6.667
6.0,-26.0,6.668
12.0,-13.0,6.669
25.0,-8.0,6.67
1.0,-15.0,6.671
-46.0,-27.0,6.672
-55.0,-39.0,6.673
-12.0,-46.0,6.674
26.0,-47.0,6.675
25.0,-49.0,6.676
15.0,-47.0,6.677
16.0,-37.0,6.678
3.0,-14.0,6.679
-40.0,-1.0,6.68
-71.0,-14.0,6.681
-41.0,-39.0,6.682
25.0,-46.0,6.683
61.0,-27.0,6.684
35.0,-1.0,6.685
-15.0,5.0,6.686
-44.0,-12.0,6.687
-32.0,-38.0,6.688
8.0,-51.0,6.689
41.0,-47.0,6.69
43.0,-39.0,6.691
18.0,-37.0,6.692
-1.0,-40.0,6.693
-3.0,-35.0,6.694
-2.0,-20.0,6.695
-9.0,-4.0,6.696
-12.0,4.0,6.697
-2.0,7.0,6.698
15.0,11.0,6.699
18.0,16.0,6.7
11.0,17.0,6.701
7.0,23.0,6.702
14.0,31.0,6.703
23.0,38.0,6.704
25.0,42.0,6.705
15.0,43.0,6.706
3.0,42.0,6.707
5.0,36.0,6.708
20.0,25.0,6.709
29.0,15.0,6.71
19.0,11.0,6.711
-1.0,17.0,6.712
-8.0,32.0,6.713
-6.0,48.0,6.714
-5.0,53.0,6.715
-5.0,49.0,6.716
3.0,49.0,6.717
16.0,54.0,6.718
13.0,54.0,6.719
1.0,43.0,6.72
1.0,26.0,6.721
15.0,24.0,6.722
22.0,33.0,6.723
9.0,50.0,6.724
-9.0,68.0,6.725
-16.0,80.0,6.726
-4.0,78.0,6.727
9.0,69.0,6.728
-2.0,69.0,6.729
-46.0,79.0,6.73
-90.0,84.0,6.731
-87.0,79.0,6.732
-38.0,73.0,6.733
6.0,68.0,6.734
11.0,65.0,6.735
-2.0,63.0,6.736
-5.0,67.0,6.737
5.0,70.0,6.738
16.0,59.0,6.739
17.0,39.0,6.74
18.0,23.0,6.741
22.0,18.0,6.742
26.0,14.0,6.743
25.0,12.0,6.744
16.0,14.0,6.745
4.0,20.0,6.746
8.0,21.0,6.747
28.0,19.0,6.748
41.0,17.0,6.749
33.0,14.0,6.75
20.0,7.0,6.751
22.0,-2.0,6.752
39.0,-9.0,6.753
58.0,-16.0,6.754
71.0,-23.0,6.755
71.0,-25.0,6.756
48.0,-18.0,6.757
8.0,-8.0,6.758
-20.0,4.0,6.759
-26.0,13.0,6.76
-30.0,13.0,6.761
-52.0,7.0,6.762
-76.0,2.0,6.763
-73.0,0.0,6.764
-49.0,-4.0,6.765
-34.0,-14.0,6.766
-41.0,-24.0,6.767
-39.0,-32.0,6.768
-5.0,-42.0,6.769
32.0,-50.0,6.77
27.0,-41.0,6.771
-4.0,-21.0,6.772
-3.0,-7.0,6.773
42.0,-9.0,6.774
83.0,-15.0,6.775
84.0,-13.0,6.776
69.0,-8.0,6.777
56.0,-18.0,6.778
43.0,-34.0,6.779
22.0,-45.0,6.78
13.0,-48.0,6.781
25.0,-44.0,6.782
33.0,-41.0,6.783
20.0,-39.0,6.784
-3.0,-31.0,6.785
-19.0,-23.0,6.786
-33.0,-24.0,6.787
-58.0,-37.0,6.788
-74.0,-46.0,6.789
-62.0,-43.0,6.79
-33.0,-33.0,6.791
-13.0,-26.0,6.792
-8.0,-21.0,6.793
-6.0,-14.0,6.794
0.0,-7.0,6.795
2.0,-4.0,6.796
6.0,-5.0,6.797
21.0,-10.0,6.798
46.0,-15.0,6.799
72.0,-20.0,6.8
86.0,-30.0,6.801
87.0,-35.0,6.802
79.0,-28.0,6.803
62.0,-7.0,6.804
39.0,12.0,6.805
9.0,16.0,6.806
-30.0,6.0,6.807
-62.0,0.0,6.808
-52.0,2.0,6.809
-1.0,-3.0,6.81
32.0,-13.0,6.811
5.0,-12.0,6.812
-45.0,2.0,6.813
-68.0,13.0,6.814
-78.0,14.0,6.815
-98.0,16.0,6.816
-100.0,19.0,6.817
-63.0,11.0,6.818
-31.0,-2.0,6.819
-52.0,-8.0,6.82
-81.0,-8.0,6.821
-49.0,-12.0,6.822
14.0,-20.0,6.823
28.0,-19.0,6.824
-9.0,-7.0,6.825
-41.0,4.0,6.826
-55.0,5.0,6.827
-65.0,0.0,6.828
-52.0,-4.0,6.829
4.0,-4.0,6.83
62.0,4.0,6.831
84.0,21.0,6.832
97.0,30.0,6.833
132.0,21.0,6.834
156.0,3.0,6.835
127.0,-6.0,6.836
83.0,-2.0,6.837
65.0,-3.0,6.838
60.0,-10.0,6.839
26.0,-19.0,6.84
-17.0,-22.0,6.841
-22.0,-16.0,6.842
-6.0,-13.0,6.843
-6.0,-12.0,6.844
-22.0,-9.0,6.845
-23.0,-4.0,6.846
-7.0,0.0,6.847
1.0,-1.0,6.848
6.0,-7.0,6.849
21.0,-16.0,6.85
34.0,-22.0,6.851
27.0,-18.0,6.852
-1.0,-10.0,6.853
-35.0,-2.0,6.854
-63.0,2.0,6.855
-68.0,3.0,6.856
-46.0,2.0,6.857
-23.0,-1.0,6.858
-30.0,-4.0,6.859
-33.0,-3.0,6.86
-22.0,-5.0,6.861
-4.0,-1.0,6.862
30.0,10.0,6.863
43.0,31.0,6.864
-13.0,53.0,6.865
-50.0,69.0,6.866
-27.0,68.0,6.867
-1.0,46.0,6.868
33.0,13.0,6.869
43.0,-11.0,6.87
-24.0,-13.0,6.871
-74.0,-6.0,6.872
-71.0,-13.0,6.873
-62.0,-40.0,6.874
-40.0,-67.0,6.875
-20.0,-70.0,6.876
-6.0,-56.0,6.877
5.0,-41.0,6.878
14.0,-27.0,6.879
39.0,-12.0,6.88
67.0,0.0,6.881
67.0,12.0,6.882
54.0,23.0,6.883
57.0,36.0,6.884
70.0,48.0,6.885
66.0,50.0,6.886
48.0,36.0,6.887
35.0,13.0,6.888
17.0,0.0,6.889
-11.0,-3.0,6.89
-22.0,-2.0,6.891
-1.0,-7.0,6.892
17.0,-12.0,6.893
3.0,-15.0,6.894
-20.0,-15.0,6.895
-21.0,-12.0,6.896
-13.0,-5.0,6.897
-12.0,2.0,6.898
-8.0,4.0,6.899
3.0,0.0,6.9
7.0,-6.0,6.901
-3.0,-1.0,6.902
-5.0,5.0,6.903
6.0,2.0,6.904
15.0,-3.0,6.905
12.0,-4.0,6.906
13.0,-4.0,6.907
24.0,-8.0,6.908
30.0,-9.0,6.909
14.0,-2.0,6.91
-22.0,3.0,6.911
-63.0,-3.0,6.912
-94.0,-9.0,6.913
-106.0,1.0,6.914
-92.0,24.0,6.915
-52.0,33.0,6.916
-1.0,21.0,6.917
38.0,3.0,6.918
62.0,0.0,6.919
94.0,8.0,6.92
152.0,3.0,6.921
197.0,-14.0,6.922
201.0,-30.0,6.923
179.0,-28.0,6.924
79.0,-6.0,6.925
-20.0,22.0,6.926
-120.0,46.0,6.927
-192.0,53.0,6.928
-181.0,34.0,6.929
-166.0,-1.0,6.93
-139.0,-31.0,6.931
-113.0,-33.0,6.932
-87.0,-8.0,6.933
-61.0,20.0,6.934
-31.0,37.0,6.935
6.0,39.0,6.936
70.0,31.0,6.937
141.0,17.0,6.938
184.0,6.0,6.939
104.0,1.0,6.94
9.0,-9.0,6.941
7.0,-23.0,6.942
50.0,-31.0,6.943
42.0,-20.0,6.944
0.0,5.0,6.945
-8.0,38.0,6.946
6.0,72.0,6.947
-3.0,90.0,6.948
-19.0,66.0,6.949
-14.0,-1.0,6.95
-4.0,-72.0,6.951
-15.0,-112.0,6.952
-25.0,-118.0,6.953
-21.0,-107.0,6.954
-17.0,-82.0,6.955
-19.0,-49.0,6.956
-12.0,-23.0,6.957
13.0,-21.0,6.958
24.0,-31.0,6.959
27.0,-32.0,6.96
34.0,-25.0,6.961
32.0,-19.0,6.962
9.0,-15.0,6.963
-23.0,-1.0,6.964
-44.0,18.0,6.965
-49.0,31.0,6.966
-36.0,28.0,6.967
-5.0,23.0,6.968
23.0,28.0,6.969
21.0,36.0,6.97
1.0,36.0,6.971
-3.0,24.0,6.972
0.0,8.0,6.973
-14.0,-5.0,6.974
-42.0,-19.0,6.975
-47.0,-34.0,6.976
-23.0,-37.0,6.977
1.0,-27.0,6.978
18.0,-10.0,6.979
42.0,2.0,6.98
74.0,3.0,6.981
82.0,2.0,6.982
54.0,-8.0,6.983
19.0,-17.0,6.984
-1.0,-10.0,6.985
-11.0,21.0,6.986
-16.0,58.0,6.987
-4.0,76.0,6.988
44.0,69.0,6.989
115.0,44.0,6.99
163.0,9.0,6.991
150.0,-19.0,6.992
88.0,-24.0,6.993
27.0,-4.0,6.994
-17.0,21.0,6.995
-73.0,30.0,6.996
-132.0,28.0,6.997
-129.0,24.0,6.998
-57.0,21.0,6.999
-18.0,17.0,7.0
-82.0,10.0,7.001
-120.0,2.0,7.002
-77.0,-7.0,7.003
-32.0,-16.0,7.004
21.0,-22.0,7.005
58.0,-28.0,7.006
47.0,-27.0,7.007
34.0,-26.0,7.008
17.0,-29.0,7.009
-10.0,-27.0,7.01
-69.0,-8.0,7.011
-111.0,16.0,7.012
-100.0,57.0,7.013
-65.0,81.0,7.014
39.0,51.0,7.015
105.0,24.0,7.016
58.0,6.0,7.017
6.0,-6.0,7.018
-15.0,-6.0,7.019
24.0,-17.0,7.02
31.0,-30.0,7.021
3.0,-36.0,7.022
13.0,-33.0,7.023
60.0,-23.0,7.024
68.0,1.0,7.025
30.0,40.0,7.026
15.0,84.0,7.027
38.0,128.0,7.028
45.0,163.0,7.029
9.0,164.0,7.03
-24.0,108.0,7.031
-26.0,10.0,7.032
-13.0,-88.0,7.033
1.0,-163.0,7.034
16.0,-213.0,7.035
25.0,-241.0,7.036
25.0,-231.0,7.037
11.0,-183.0,7.038
-11.0,-121.0,7.039
-32.0,-69.0,7.04
-30.0,-46.0,7.041
3.0,-19.0,7.042
43.0,14.0,7.043
54.0,40.0,7.044
38.0,41.0,7.045
22.0,41.0,7.046
19.0,35.0,7.047
21.0,32.0,7.048
22.0,40.0,7.049
26.0,53.0,7.05
16.0,83.0,7.051
-28.0,105.0,7.052
-91.0,97.0,7.053
-123.0,82.0,7.054
-96.0,47.0,7.055
-37.0,12.0,7.056
-1.0,-21.0,7.057
-4.0,-50.0,7.058
-26.0,-53.0,7.059
-40.0,-44.0,7.06
-28.0,-36.0,7.061
6.0,-31.0,7.062
50.0,-33.0,7.063
87.0,-37.0,7.064
101.0,-35.0,7.065
62.0,-28.0,7.066
-65.0,-17.0,7.067
-252.0,1.0,7.068
-366.0,30.0,7.069
-270.0,51.0,7.07
-1.0,51.0,7.071
236.0,43.0,7.072
299.0,52.0,7.073
253.0,74.0,7.074
235.0,77.0,7.075
252.0,50.0,7.076
224.0,21.0,7.077
142.0,1.0,7.078
93.0,-15.0,7.079
93.0,-34.0,7.08
51.0,-45.0,7.081
-68.0,-26.0,7.082
-163.0,12.0,7.083
-172.0,60.0,7.084
-163.0,106.0,7.085
-196.0,123.0,7.086
-200.0,74.0,7.087
-122.0,-24.0,7.088
-48.0,-104.0,7.089
-70.0,-129.0,7.09
-121.0,-119.0,7.091
-85.0,-98.0,7.092
4.0,-54.0,7.093
37.0,14.0,7.094
15.0,64.0,7.095
42.0,61.0,7.096
124.0,28.0,7.097
170.0,-1.0,7.098
117.0,-14.0,7.099
29.0,-23.0,7.1
-6.0,-31.0,7.101
0.0,-26.0,7.102
-2.0,-15.0,7.103
-11.0,-13.0,7.104
7.0,-17.0,7.105
36.0,-15.0,7.106
37.0,-3.0,7.107
13.0,11.0,7.108
6.0,15.0,7.109
20.0,8.0,7.11
24.0,-2.0,7.111
0.0,-4.0,7.112
-38.0,0.0,7.113
-77.0,-1.0,7.114
-111.0,-13.0,7.115
-132.0,-23.0,7.116
-133.0,-19.0,7.117
-122.0,-7.0,7.118
-84.0,-3.0,7.119
4.0,-5.0,7.12
137.0,-11.0,7.121
236.0,-19.0,7.122
245.0,-25.0,7.123
202.0,-13.0,7.124
170.0,22.0,7.125
136.0,63.0,7.126
57.0,83.0,7.127
-32.0,77.0,7.128
-62.0,50.0,7.129
-43.0,17.0,7.13
-34.0,-9.0,7.131
-48.0,-19.0,7.132
-43.0,-14.0,7.133
-19.0,-9.0,7.134
-26.0,-12.0,7.135
-60.0,-13.0,7.136
-58.0,-12.0,7.137
3.0,-19.0,7.138
67.0,-34.0,7.139
76.0,-47.0,7.14
36.0,-54.0,7.141
-17.0,-50.0,7.142
-69.0,-33.0,7.143
-126.0,5.0,7.144
-156.0,59.0,7.145
-118.0,95.0,7.146
-28.0,85.0,7.147
56.0,42.0,7.148
88.0,6.0,7.149
85.0,-2.0,7.15
77.0,0.0,7.151
59.0,-6.0,7.152
7.0,-15.0,7.153
-59.0,-15.0,7.154
-89.0,-14.0,7.155
-61.0,-22.0,7.156
-10.0,-28.0,7.157
32.0,-24.0,7.158
58.0,-11.0,7.159
56.0,0.0,7.16
4.0,7.0,7.161
-81.0,22.0,7.162
-115.0,36.0,7.163
-37.0,30.0,7.164
81.0,8.0,7.165
113.0,-4.0,7.166
55.0,3.0,7.167
15.0,9.0,7.168
37.0,-2.0,7.169
44.0,-17.0,7.17
-9.0,-20.0,7.171
-50.0,-14.0,7.172
-19.0,-10.0,7.173
20.0,-9.0,7.174
-1.0,-7.0,7.175
-37.0,-4.0,7.176
-28.0,-1.0,7.177
-12.0,0.0,7.178
-46.0,4.0,7.179
-107.0,11.0,7.18
-124.0,20.0,7.181
-81.0,29.0,7.182
-7.0,16.0,7.183
87.0,-19.0,7.184
174.0,-57.0,7.185
212.0,-63.0,7.186
193.0,-34.0,7.187
151.0,0.0,7.188
103.0,10.0,7.189
33.0,-1.0,7.19
-54.0,-9.0,7.191
-123.0,2.0,7.192
-136.0,23.0,7.193
-89.0,25.0,7.194
-19.0,3.0,7.195
17.0,-8.0,7.196
2.0,0.0,7.197
-27.0,15.0,7.198
-21.0,14.0,7.199
0.0,8.0,7.2
-6.0,21.0,7.201
-26.0,56.0,7.202
-17.0,88.0,7.203
10.0,102.0,7.204
9.0,97.0,7.205
-8.0,74.0,7.206
1.0,36.0,7.207
36.0,-7.0,7.208
52.0,-48.0,7.209
45.0,-81.0,7.21
41.0,-98.0,7.211
33.0,-89.0,7.212
-8.0,-64.0,7.213
-66.0,-46.0,7.214
-76.0,-38.0,7.215
-19.0,-27.0,7.216
37.0,-12.0,7.217
28.0,-10.0,7.218
-27.0,-32.0,7.219
-46.0,-70.0,7.22
3.0,-119.0,7.221
61.0,-166.0,7.222
56.0,-192.0,7.223
-1.0,-169.0,7.224
-46.0,-103.0,7.225
-49.0,-37.0,7.226
-38.0,2.0,7.227
-31.0,28.0,7.228
-20.0,61.0,7.229
0.0,92.0,7.23
3.0,97.0,7.231
-13.0,87.0,7.232
-28.0,81.0,7.233
-18.0,86.0,7.234
4.0,90.0,7.235
16.0,86.0,7.236
18.0,83.0,7.237
25.0,75.0,7.238
37.0,66.0,7.239
38.0,56.0,7.24
26.0,46.0,7.241
15.0,42.0,7.242
16.0,40.0,7.243
22.0,39.0,7.244
16.0,39.0,7.245
-9.0,40.0,7.246
-30.0,41.0,7.247
-28.0,49.0,7.248
-1.0,63.0,7.249
39.0,79.0,7.25
74.0,85.0,7.251
89.0,75.0,7.252
76.0,49.0,7.253
40.0,16.0,7.254
-5.0,-17.0,7.255
-41.0,-40.0,7.256
-52.0,-51.0,7.257
-36.0,-61.0,7.258
-5.0,-76.0,7.259
14.0,-100.0,7.26
12.0,-131.0,7.261
2.0,-153.0,7.262
2.0,-157.0,7.263
10.0,-139.0,7.264
10.0,-99.0,7.265
2.0,-57.0,7.266
-2.0,-32.0,7.267
-8.0,-20.0,7.268
-13.0,1.0,7.269
0.0,38.0,7.27
41.0,61.0,7.271
76.0,54.0,7.272
59.0,31.0,7.273
-7.0,14.0,7.274
-72.0,2.0,7.275
-98.0,-7.0,7.276
-94.0,1.0,7.277
-71.0,38.0,7.278
-24.0,66.0,7.279
24.0,52.0,7.28
26.0,7.0,7.281
-17.0,-21.0,7.282
-35.0,-29.0,7.283
3.0,-35.0,7.284
36.0,-30.0,7.285
9.0,7.0,7.286
-38.0,64.0,7.287
-40.0,116.0,7.288
1.0,169.0,7.289
41.0,225.0,7.29
53.0,237.0,7.291
43.0,164.0,7.292
21.0,34.0,7.293
3.0,-90.0,7.294
12.0,-184.0,7.295
43.0,-252.0,7.296
72.0,-267.0,7.297
76.0,-199.0,7.298
54.0,-75.0,7.299
16.0,20.0,7.3
-11.0,39.0,7.301
-14.0,17.0,7.302
-2.0,-2.0,7.303
-1.0,-25.0,7.304
-7.0,-74.0,7.305
-6.0,-130.0,7.306
4.0,-157.0,7.307
1.0,-153.0,7.308
-15.0,-145.0,7.309
-32.0,-134.0,7.31
-46.0,-93.0,7.311
-56.0,-22.0,7.312
-47.0,38.0,7.313
-20.0,58.0,7.314
-3.0,55.0,7.315
-11.0,61.0,7.316
-14.0,75.0,7.317
8.0,82.0,7.318
33.0,90.0,7.319
23.0,107.0,7.32
-2.0,119.0,7.321
-3.0,112.0,7.322
18.0,94.0,7.323
19.0,83.0,7.324
-7.0,82.0,7.325
-26.0,71.0,7.326
-16.0,51.0,7.327
12.0,38.0,7.328
52.0,38.0,7.329
104.0,39.0,7.33
146.0,28.0,7.331
127.0,7.0,7.332
