Deltoid,Bicep,Time
-11,3,0.0
-23,0,0.001
-17,-2,0.002
17,0,0.003
61,-1,0.004
61,-3,0.005
2,-1,0.006
-65,3,0.007
-85,4,0.008
-67,4,0.009
-49,5,0.01
-25,7,0.011
17,3,0.012
54,-1,0.013
64,-6,0.014
68,-6,0.015
88,-3,0.016
99,-2,0.017
64,1,0.018
4,3,0.019
-36,5,0.02
-47,7,0.021
-52,7,0.022
-56,2,0.023
-46,-6,0.024
-27,-8,0.025
-19,-1,0.026
-20,4,0.027
-15,2,0.028
0,0,0.029
10,2,0.03
9,7,0.031
3,4,0.032
0,-1,0.033
0,-6,0.034
1,-5,0.035
2,-4,0.036
4,-9,0.037
3,-11,0.038
-5,-10,0.039
-18,-4,0.04
-28,3,0.041
-31,4,0.042
-22,0,0.043
-10,-2,0.044
0,0,0.045
15,2,0.046
46,3,0.047
76,1,0.048
82,2,0.049
64,4,0.05
47,1,0.051
36,-2,0.052
21,-1,0.053
-4,-1,0.054
-22,-4,0.055
-24,-7,0.056
-24,-7,0.057
-31,-2,0.058
-28,0,0.059
-12,-2,0.06
2,-1,0.061
0,3,0.062
-12,2,0.063
-20,-3,0.064
-30,-6,0.065
-41,-4,0.066
-39,0,0.067
-24,0,0.068
-7,-2,0.069
1,-4,0.07
8,-6,0.071
22,-5,0.072
34,0,0.073
35,1,0.074
31,-3,0.075
21,-7,0.076
11,-4,0.077
17,4,0.078
63,8,0.079
120,3,0.08
126,1,0.081
65,7,0.082
-4,12,0.083
-23,11,0.084
-10,3,0.085
-8,-3,0.086
-17,-3,0.087
-7,1,0.088
19,4,0.089
32,1,0.09
18,-5,0.091
-10,-9,0.092
-34,-5,0.093
-52,1,0.094
-58,5,0.095
-58,1,0.096
-59,-8,0.097
-52,-12,0.098
-26,-9,0.099
18,-2,0.1
47,2,0.101
37,5,0.102
0,3,0.103
-33,-3,0.104
-52,-7,0.105
-63,-9,0.106
-66,-5,0.107
-59,-3,0.108
-41,-1,0.109
-18,2,0.11
7,4,0.111
32,3,0.112
48,0,0.113
48,-1,0.114
51,1,0.115
64,2,0.116
70,-3,0.117
50,-5,0.118
17,-4,0.119
6,-4,0.12
19,-3,0.121
21,0,0.122
3,4,0.123
-15,3,0.124
-19,1,0.125
-22,6,0.126
-24,9,0.127
-11,3,0.128
14,-7,0.129
23,-10,0.13
10,-6,0.131
-3,-2,0.132
-4,1,0.133
-6,2,0.134
-13,0,0.135
-13,-4,0.136
1,-9,0.137
12,-7,0.138
2,-3,0.139
-18,-3,0.14
-30,-4,0.141
-23,-2,0.142
-1,-2,0.143
11,-3,0.144
-4,-2,0.145
-29,4,0.146
-26,9,0.147
15,9,0.148
55,9,0.149
65,13,0.15
57,10,0.151
58,1,0.152
63,-6,0.153
45,-6,0.154
14,-1,0.155
0,-2,0.156
14,-8,0.157
23,-6,0.158
5,-2,0.159
-16,0,0.16
-6,0,0.161
37,4,0.162
72,9,0.163
55,6,0.164
0,1,0.165
-37,1,0.166
-30,4,0.167
-8,2,0.168
-14,-2,0.169
-39,-1,0.17
-41,2,0.171
-20,4,0.172
-12,2,0.173
-30,-5,0.174
-47,-10,0.175
-47,-13,0.176
-48,-13,0.177
-57,-7,0.178
-45,-4,0.179
-5,-3,0.18
26,-4,0.181
14,-3,0.182
-19,2,0.183
-35,6,0.184
-23,4,0.185
-4,0,0.186
16,-1,0.187
43,0,0.188
70,-1,0.189
73,-4,0.19
49,-4,0.191
18,1,0.192
0,8,0.193
-5,6,0.194
-10,-3,0.195
-17,-7,0.196
-16,-6,0.197
-6,-3,0.198
8,-4,0.199
22,-6,0.2
34,-4,0.201
34,-1,0.202
19,-2,0.203
-3,-4,0.204
-13,-1,0.205
-9,7,0.206
-1,11,0.207
3,10,0.208
10,3,0.209
21,-3,0.21
29,-8,0.211
24,-4,0.212
15,3,0.213
2,1,0.214
-4,-8,0.215
-16,-14,0.216
-28,-11,0.217
-35,-2,0.218
-29,-1,0.219
-25,-4,0.22
-25,-3,0.221
-12,0,0.222
25,2,0.223
60,1,0.224
58,2,0.225
29,5,0.226
12,1,0.227
7,-3,0.228
-30,-1,0.229
-105,5,0.23
-149,5,0.231
-92,0,0.232
36,-2,0.233
144,-2,0.234
165,-2,0.235
120,-3,0.236
80,-4,0.237
56,-1,0.238
21,0,0.239
-27,-4,0.24
-49,-5,0.241
-22,-3,0.242
19,-1,0.243
28,-4,0.244
4,-4,0.245
-22,1,0.246
-30,9,0.247
-22,13,0.248
-3,13,0.249
18,13,0.25
20,11,0.251
-11,7,0.252
-58,3,0.253
-87,-2,0.254
-76,-5,0.255
-43,-5,0.256
-25,-8,0.257
-17,-9,0.258
7,-10,0.259
43,-4,0.26
49,5,0.261
17,10,0.262
-10,5,0.263
-7,-3,0.264
9,-4,0.265
14,-1,0.266
19,-2,0.267
43,-5,0.268
66,-3,0.269
57,2,0.27
23,5,0.271
-2,5,0.272
-13,3,0.273
-29,0,0.274
-53,-5,0.275
-67,-10,0.276
-54,-13,0.277
-18,-10,0.278
22,-7,0.279
58,-3,0.28
84,4,0.281
92,9,0.282
68,6,0.283
18,-4,0.284
-33,-10,0.285
-58,-9,0.286
-58,-7,0.287
-52,-5,0.288
-41,0,0.289
-17,5,0.29
12,3,0.291
22,-3,0.292
19,-4,0.293
17,1,0.294
14,5,0.295
5,3,0.296
-24,-1,0.297
-46,-1,0.298
-44,1,0.299
-34,0,0.3
2,-2,0.301
32,-5,0.302
40,-8,0.303
39,-8,0.304
12,-5,0.305
-6,-3,0.306
3,1,0.307
13,3,0.308
18,4,0.309
25,0,0.31
37,-5,0.311
45,-6,0.312
35,-2,0.313
17,-4,0.314
-31,-8,0.315
-66,-11,0.316
-49,-8,0.317
2,0,0.318
36,10,0.319
31,17,0.32
10,17,0.321
1,12,0.322
8,7,0.323
21,9,0.324
33,12,0.325
34,9,0.326
18,-1,0.327
-6,-5,0.328
-20,-3,0.329
-24,-1,0.33
-27,-5,0.331
-19,-9,0.332
9,-8,0.333
35,-8,0.334
16,-5,0.335
-23,-4,0.336
-27,-8,0.337
8,-8,0.338
31,-5,0.339
9,0,0.34
-22,4,0.341
-23,2,0.342
-3,0,0.343
0,0,0.344
-12,5,0.345
-19,8,0.346
-14,10,0.347
-7,9,0.348
-1,7,0.349
17,3,0.35
37,-1,0.351
42,-4,0.352
31,-3,0.353
16,-3,0.354
8,-2,0.355
0,-1,0.356
-10,-4,0.357
-15,-7,0.358
-6,-8,0.359
9,-4,0.36
16,3,0.361
9,6,0.362
0,3,0.363
-3,-3,0.364
-8,-6,0.365
-27,-4,0.366
-53,-2,0.367
-62,-2,0.368
-36,-2,0.369
6,-1,0.37
32,-3,0.371
31,-3,0.372
23,-3,0.373
21,-1,0.374
27,1,0.375
34,0,0.376
30,-3,0.377
6,-3,0.378
-25,-3,0.379
-31,-3,0.38
3,0,0.381
52,6,0.382
74,7,0.383
61,4,0.384
39,3,0.385
30,7,0.386
27,7,0.387
16,2,0.388
-10,-3,0.389
-29,-3,0.39
-25,-1,0.391
-5,3,0.392
-1,8,0.393
-37,7,0.394
-81,6,0.395
-90,4,0.396
-54,-1,0.397
-5,-6,0.398
30,-8,0.399
48,-4,0.4
51,4,0.401
43,8,0.402
35,7,0.403
30,5,0.404
14,3,0.405
-10,-2,0.406
-23,-7,0.407
-16,-8,0.408
-12,-3,0.409
-29,-1,0.41
-48,-4,0.411
-32,-9,0.412
10,-7,0.413
40,-5,0.414
37,-7,0.415
14,-9,0.416
2,-11,0.417
8,-6,0.418
12,-3,0.419
4,-1,0.42
-5,1,0.421
-5,4,0.422
4,3,0.423
10,1,0.424
3,0,0.425
-5,-1,0.426
-3,-4,0.427
9,-4,0.428
13,-1,0.429
-1,0,0.43
-23,-1,0.431
-34,0,0.432
-34,3,0.433
-37,5,0.434
-54,1,0.435
-76,-3,0.436
-71,-5,0.437
-27,-4,0.438
34,-7,0.439
78,-10,0.44
93,-7,0.441
103,0,0.442
111,5,0.443
99,7,0.444
55,13,0.445
2,17,0.446
-15,11,0.447
4,-2,0.448
24,-7,0.449
15,-4,0.45
-13,1,0.451
-28,3,0.452
-23,4,0.453
-13,4,0.454
-10,3,0.455
-12,2,0.456
-10,-1,0.457
-8,-2,0.458
-9,-2,0.459
-13,-1,0.46
-20,3,0.461
-29,6,0.462
-24,2,0.463
11,-4,0.464
62,-4,0.465
86,-1,0.466
66,2,0.467
25,0,0.468
-8,-1,0.469
-27,0,0.47
-42,-1,0.471
-57,-3,0.472
-65,0,0.473
-79,0,0.474
-97,-4,0.475
-108,-13,0.476
-91,-21,0.477
-46,-16,0.478
17,-9,0.479
84,-4,0.48
131,0,0.481
139,6,0.482
111,8,0.483
69,4,0.484
34,5,0.485
4,12,0.486
-20,17,0.487
-30,14,0.488
-26,5,0.489
-17,-1,0.49
2,0,0.491
36,3,0.492
69,5,0.493
62,1,0.494
31,-1,0.495
12,-1,0.496
31,-4,0.497
36,-5,0.498
-1,-5,0.499
-29,-3,0.5
-26,-1,0.501
-29,0,0.502
-50,0,0.503
-60,0,0.504
-37,0,0.505
-16,-1,0.506
-5,-6,0.507
2,-9,0.508
-3,-7,0.509
-8,0,0.51
-8,0,0.511
-10,-4,0.512
-23,-7,0.513
-34,-6,0.514
-27,-5,0.515
-10,-5,0.516
6,-8,0.517
11,-5,0.518
17,0,0.519
37,-2,0.52
53,-6,0.521
36,-5,0.522
-3,-3,0.523
-16,-4,0.524
5,-6,0.525
19,-1,0.526
1,9,0.527
-16,14,0.528
-7,9,0.529
7,1,0.53
9,-2,0.531
5,-2,0.532
12,-3,0.533
15,-2,0.534
4,1,0.535
-5,3,0.536
-9,-1,0.537
-11,-4,0.538
-7,-2,0.539
0,0,0.54
9,1,0.541
18,1,0.542
18,0,0.543
18,-2,0.544
18,-1,0.545
15,0,0.546
8,1,0.547
4,2,0.548
12,2,0.549
17,1,0.55
13,2,0.551
7,4,0.552
1,4,0.553
-5,1,0.554
-15,-5,0.555
-19,-8,0.556
-18,-11,0.557
-16,-9,0.558
-13,-6,0.559
-10,0,0.56
-15,8,0.561
-23,9,0.562
-14,3,0.563
14,-8,0.564
28,-10,0.565
11,-4,0.566
-19,0,0.567
-38,0,0.568
-49,-3,0.569
-68,-3,0.57
-77,-1,0.571
-34,0,0.572
44,-2,0.573
104,-3,0.574
116,0,0.575
122,5,0.576
107,5,0.577
83,4,0.578
33,5,0.579
-7,7,0.58
-23,10,0.581
-30,11,0.582
-8,6,0.583
8,-1,0.584
8,-4,0.585
4,0,0.586
-10,1,0.587
-25,-2,0.588
-38,-5,0.589
-49,-2,0.59
-51,2,0.591
-45,0,0.592
-14,-4,0.593
18,-8,0.594
47,-8,0.595
45,-7,0.596
14,-9,0.597
-22,-7,0.598
-36,-5,0.599
-21,-3,0.6
3,3,0.601
18,11,0.602
31,13,0.603
45,6,0.604
42,-2,0.605
13,-4,0.606
-27,-3,0.607
-53,-4,0.608
-59,-7,0.609
-60,-7,0.61
-63,-3,0.611
-71,0,0.612
-77,4,0.613
-53,4,0.614
8,0,0.615
78,-5,0.616
114,-9,0.617
111,-6,0.618
102,1,0.619
98,8,0.62
74,11,0.621
30,11,0.622
1,6,0.623
2,1,0.624
12,0,0.625
17,0,0.626
26,-2,0.627
24,-3,0.628
-15,0,0.629
-72,1,0.63
-96,-3,0.631
-78,-8,0.632
-53,-5,0.633
-13,-1,0.634
-7,0,0.635
1,-5,0.636
14,-10,0.637
20,-7,0.638
2,-5,0.639
-15,-5,0.64
-31,-3,0.641
-37,3,0.642
-12,6,0.643
11,2,0.644
32,0,0.645
43,4,0.646
23,4,0.647
4,-3,0.648
-10,-6,0.649
-23,-2,0.65
-26,4,0.651
-26,4,0.652
-13,2,0.653
-32,1,0.654
-14,0,0.655
9,-1,0.656
45,-4,0.657
60,-6,0.658
12,-4,0.659
-36,-3,0.66
-80,-3,0.661
-97,-3,0.662
-29,-1,0.663
37,0,0.664
93,1,0.665
122,3,0.666
67,7,0.667
16,10,0.668
-24,12,0.669
-57,13,0.67
-67,7,0.671
-66,2,0.672
-30,-3,0.673
10,-7,0.674
44,-6,0.675
40,-3,0.676
12,2,0.677
-14,8,0.678
-27,7,0.679
-40,0,0.68
-54,-3,0.681
-51,-1,0.682
-23,-2,0.683
3,-5,0.684
7,-2,0.685
-1,2,0.686
20,0,0.687
69,-6,0.688
105,-8,0.689
93,-3,0.69
61,0,0.691
62,0,0.692
94,-1,0.693
103,-3,0.694
47,-3,0.695
-42,-2,0.696
-86,-3,0.697
-61,-3,0.698
-18,-6,0.699
-10,-8,0.7
-34,-9,0.701
-48,-7,0.702
-32,-3,0.703
-2,5,0.704
21,14,0.705
25,13,0.706
17,6,0.707
1,2,0.708
-12,6,0.709
-26,7,0.71
-35,0,0.711
-30,-6,0.712
-19,-3,0.713
-15,0,0.714
-18,-3,0.715
-14,-9,0.716
12,-12,0.717
30,-6,0.718
18,-1,0.719
9,-2,0.72
15,1,0.721
22,7,0.722
27,8,0.723
31,0,0.724
31,-7,0.725
30,-4,0.726
24,1,0.727
7,2,0.728
-44,2,0.729
-82,2,0.73
-78,1,0.731
-68,-3,0.732
-45,-4,0.733
-21,-5,0.734
6,-5,0.735
25,-4,0.736
22,-5,0.737
-4,-1,0.738
-24,3,0.739
-5,6,0.74
43,9,0.741
71,8,0.742
50,3,0.743
9,-2,0.744
-13,-3,0.745
-14,0,0.746
-9,0,0.747
0,-2,0.748
22,-3,0.749
45,-2,0.75
48,-1,0.751
34,-1,0.752
26,0,0.753
17,-1,0.754
-8,-3,0.755
-34,-5,0.756
-33,-9,0.757
-6,-10,0.758
18,-6,0.759
25,0,0.76
24,7,0.761
23,9,0.762
16,2,0.763
4,-4,0.764
-4,-3,0.765
-10,2,0.766
-19,3,0.767
-18,-2,0.768
9,-5,0.769
54,-2,0.77
77,0,0.771
53,0,0.772
8,3,0.773
-27,4,0.774
-38,4,0.775
-44,-2,0.776
-59,-8,0.777
-72,-3,0.778
-68,3,0.779
-50,4,0.78
-35,3,0.781
-25,0,0.782
-6,-1,0.783
31,-3,0.784
75,-4,0.785
101,-3,0.786
87,-3,0.787
45,-3,0.788
26,-3,0.789
44,0,0.79
51,5,0.791
3,8,0.792
-64,11,0.793
2,6,0.794
-30,0,0.795
-59,-4,0.796
-67,-3,0.797
-72,-1,0.798
-67,-4,0.799
-67,-8,0.8
-84,-6,0.801
-82,0,0.802
-24,3,0.803
33,0,0.804
84,-6,0.805
126,-5,0.806
126,0,0.807
111,6,0.808
43,8,0.809
-8,3,0.81
-10,-2,0.811
-14,-6,0.812
-30,-4,0.813
-1,0,0.814
-17,2,0.815
-31,0,0.816
-35,-7,0.817
-37,-7,0.818
-35,-4,0.819
-35,-1,0.82
-43,3,0.821
-42,6,0.822
-14,6,0.823
14,2,0.824
39,0,0.825
59,7,0.826
59,14,0.827
52,13,0.828
19,6,0.829
-6,0,0.83
-7,1,0.831
-9,3,0.832
-17,0,0.833
-27,-8,0.834
-37,-9,0.835
-28,-4,0.836
-20,-2,0.837
-19,-4,0.838
-10,-4,0.839
4,1,0.84
9,7,0.841
5,4,0.842
12,-1,0.843
32,-5,0.844
33,-2,0.845
3,-1,0.846
-33,-3,0.847
-47,-4,0.848
-33,-3,0.849
-3,0,0.85
26,0,0.851
37,-3,0.852
25,-4,0.853
-54,-5,0.854
-42,-5,0.855
-25,-4,0.856
9,-7,0.857
33,-9,0.858
36,-5,0.859
44,-1,0.86
72,-1,0.861
101,-1,0.862
135,2,0.863
154,5,0.864
129,8,0.865
97,11,0.866
50,9,0.867
3,7,0.868
-50,5,0.869
-93,3,0.87
-86,0,0.871
-78,-3,0.872
-65,-2,0.873
-17,-1,0.874
-11,-1,0.875
-3,-4,0.876
13,-7,0.877
25,-3,0.878
26,0,0.879
30,0,0.88
43,0,0.881
57,2,0.882
73,0,0.883
82,-4,0.884
70,-2,0.885
55,9,0.886
33,15,0.887
10,10,0.888
-15,-2,0.889
-35,-7,0.89
-32,-4,0.891
-28,-3,0.892
-22,-5,0.893
-19,-7,0.894
-22,-7,0.895
-17,-7,0.896
-18,-11,0.897
-25,-12,0.898
-21,-6,0.899
-7,0,0.9
-6,4,0.901
-17,2,0.902
-15,-1,0.903
1,-2,0.904
11,2,0.905
7,4,0.906
13,3,0.907
33,1,0.908
50,3,0.909
47,6,0.91
28,6,0.911
0,2,0.912
-25,-1,0.913
-40,-2,0.914
-37,-2,0.915
-29,-2,0.916
-34,-6,0.917
-36,-7,0.918
-17,-6,0.919
7,-5,0.92
14,-5,0.921
6,-4,0.922
5,-1,0.923
11,1,0.924
13,2,0.925
14,3,0.926
19,4,0.927
18,3,0.928
1,1,0.929
-22,0,0.93
-34,-2,0.931
-29,-2,0.932
-18,-2,0.933
-137,-4,0.934
-152,-5,0.935
-160,-4,0.936
-145,-5,0.937
-111,-3,0.938
-22,-1,0.939
49,-1,0.94
57,0,0.941
60,3,0.942
38,5,0.943
20,2,0.944
14,-2,0.945
9,-2,0.946
9,0,0.947
6,1,0.948
-1,1,0.949
-7,4,0.95
-7,8,0.951
-7,8,0.952
1,8,0.953
-94,5,0.954
-103,3,0.955
-108,1,0.956
-99,0,0.957
-78,-1,0.958
-22,0,0.959
22,2,0.96
27,-2,0.961
29,-4,0.962
15,1,0.963
4,6,0.964
0,5,0.965
-3,4,0.966
-3,3,0.967
-5,2,0.968
-9,0,0.969
-13,-1,0.97
-13,0,0.971
-13,1,0.972
-8,-3,0.973
3,-8,0.974
27,-12,0.975
24,-12,0.976
-1,-12,0.977
-21,-11,0.978
-22,-8,0.979
-16,-5,0.98
-15,-1,0.981
-14,2,0.982
-10,6,0.983
-4,9,0.984
-1,7,0.985
-2,2,0.986
-1,-2,0.987
6,-2,0.988
14,0,0.989
15,-4,0.99
7,-8,0.991
-4,-5,0.992
-11,3,0.993
-13,9,0.994
-10,6,0.995
-6,-2,0.996
-3,-7,0.997
0,-7,0.998
17,-3,0.999
44,1,1.0
68,2,1.001
66,0,1.002
37,-3,1.003
-2,-4,1.004
-42,0,1.005
-70,5,1.006
-68,6,1.007
-31,6,1.008
15,6,1.009
40,4,1.01
46,-2,1.011
51,-7,1.012
57,-7,1.013
39,-5,1.014
0,-5,1.015
-35,-7,1.016
-42,-10,1.017
-36,-6,1.018
-33,-1,1.019
-20,3,1.02
29,2,1.021
100,0,1.022
139,-3,1.023
118,-2,1.024
66,5,1.025
18,11,1.026
-16,15,1.027
-48,12,1.028
-62,5,1.029
-46,-1,1.03
-14,-1,1.031
6,2,1.032
7,8,1.033
-4,4,1.034
-16,-1,1.035
-22,-7,1.036
-9,-7,1.037
2,-8,1.038
10,-8,1.039
10,-8,1.04
-11,-6,1.041
-29,-5,1.042
-33,-5,1.043
-37,-4,1.044
-37,-2,1.045
-34,0,1.046
-27,4,1.047
-21,6,1.048
-21,2,1.049
-18,-1,1.05
-3,-4,1.051
8,-7,1.052
10,-7,1.053
14,-7,1.054
15,-4,1.055
17,-1,1.056
21,-4,1.057
25,-6,1.058
25,-3,1.059
17,0,1.06
0,0,1.061
-13,4,1.062
-20,11,1.063
-22,14,1.064
-21,8,1.065
-6,0,1.066
24,-1,1.067
57,3,1.068
73,6,1.069
67,6,1.07
51,1,1.071
41,-2,1.072
36,-2,1.073
28,1,1.074
17,6,1.075
8,5,1.076
1,-2,1.077
-6,-6,1.078
-14,-4,1.079
-17,-1,1.08
-20,0,1.081
-24,-3,1.082
-23,-5,1.083
-21,-6,1.084
-20,-3,1.085
-20,1,1.086
-13,4,1.087
3,1,1.088
14,-3,1.089
8,-5,1.09
-3,-4,1.091
-12,-4,1.092
-23,-1,1.093
-41,-1,1.094
-42,-3,1.095
-14,-6,1.096
25,-12,1.097
43,-10,1.098
27,-5,1.099
2,2,1.1
-7,5,1.101
5,6,1.102
27,2,1.103
43,-2,1.104
52,-3,1.105
68,-1,1.106
84,0,1.107
65,2,1.108
1,5,1.109
-67,7,1.11
-85,5,1.111
-50,0,1.112
-10,3,1.113
4,5,1.114
8,3,1.115
11,-3,1.116
9,-9,1.117
4,-8,1.118
-8,-6,1.119
-21,-9,1.12
-33,-8,1.121
-45,-1,1.122
-57,5,1.123
-58,3,1.124
-26,-3,1.125
2,-5,1.126
19,-2,1.127
34,1,1.128
40,1,1.129
43,2,1.13
32,7,1.131
26,14,1.132
38,13,1.133
46,0,1.134
34,-9,1.135
20,-8,1.136
18,-5,1.137
13,-4,1.138
2,-4,1.139
-4,-1,1.14
-4,7,1.141
-9,9,1.142
-15,1,1.143
-13,-6,1.144
-8,-5,1.145
-13,-3,1.146
-21,-1,1.147
-20,-2,1.148
-11,-1,1.149
-4,0,1.15
-1,-1,1.151
6,-2,1.152
14,-1,1.153
8,0,1.154
-16,2,1.155
-42,2,1.156
-48,-4,1.157
-27,-7,1.158
9,-6,1.159
38,-2,1.16
54,0,1.161
67,-1,1.162
77,-2,1.163
63,-1,1.164
15,1,1.165
-38,4,1.166
-60,8,1.167
-52,7,1.168
-41,4,1.169
-38,1,1.17
-28,1,1.171
-9,0,1.172
-2,-2,1.173
-17,-4,1.174
-36,-2,1.175
-35,-1,1.176
-9,-7,1.177
24,-9,1.178
45,-7,1.179
56,-4,1.18
55,-1,1.181
35,0,1.182
5,4,1.183
-10,8,1.184
18,10,1.185
72,8,1.186
94,3,1.187
57,-2,1.188
7,-1,1.189
-3,2,1.19
21,3,1.191
34,0,1.192
23,-3,1.193
9,-2,1.194
6,-3,1.195
-1,-5,1.196
-18,-9,1.197
-29,-6,1.198
-19,-1,1.199
-12,0,1.2
-16,-1,1.201
-18,-2,1.202
-16,-2,1.203
-15,-3,1.204
-15,-1,1.205
-15,5,1.206
-16,9,1.207
-18,7,1.208
-18,2,1.209
-17,1,1.21
-19,3,1.211
-20,0,1.212
-14,-1,1.213
-9,-1,1.214
-7,0,1.215
-10,-2,1.216
-14,-9,1.217
-15,-12,1.218
-8,-9,1.219
7,-4,1.22
18,0,1.221
13,2,1.222
-8,3,1.223
-19,2,1.224
-10,1,1.225
12,3,1.226
27,4,1.227
30,1,1.228
29,-2,1.229
28,-4,1.23
30,-3,1.231
31,-1,1.232
31,0,1.233
32,0,1.234
34,-1,1.235
29,0,1.236
17,-2,1.237
2,-3,1.238
-4,-4,1.239
-5,-1,1.24
-7,4,1.241
-10,9,1.242
-7,7,1.243
3,0,1.244
13,0,1.245
13,6,1.246
3,8,1.247
-10,2,1.248
-28,-5,1.249
-48,-6,1.25
-56,-3,1.251
-42,-4,1.252
-11,-6,1.253
33,-8,1.254
48,-7,1.255
48,-5,1.256
37,-8,1.257
21,-8,1.258
-2,-3,1.259
-30,4,1.26
-56,12,1.261
-60,14,1.262
-29,11,1.263
20,3,1.264
47,-2,1.265
41,0,1.266
31,2,1.267
40,3,1.268
53,0,1.269
47,-2,1.27
38,1,1.271
46,7,1.272
55,11,1.273
40,6,1.274
21,-3,1.275
8,-8,1.276
14,-12,1.277
9,-9,1.278
-28,-4,1.279
-61,0,1.28
-74,0,1.281
-87,-1,1.282
-99,-5,1.283
-101,-3,1.284
-75,0,1.285
-42,2,1.286
12,2,1.287
51,-2,1.288
37,-6,1.289
22,-7,1.29
3,-4,1.291
-7,0,1.292
10,4,1.293
23,0,1.294
18,-2,1.295
9,-2,1.296
9,-2,1.297
10,-3,1.298
13,-3,1.299
13,-1,1.3
5,-1,1.301
-4,-2,1.302
-6,-2,1.303
-4,0,1.304
-6,5,1.305
-4,6,1.306
11,3,1.307
26,0,1.308
25,0,1.309
12,2,1.31
1,4,1.311
-3,0,1.312
-8,-4,1.313
-6,-8,1.314
9,-7,1.315
19,-4,1.316
8,-5,1.317
-6,-4,1.318
-9,-3,1.319
-10,0,1.32
-20,-1,1.321
-23,-2,1.322
2,-1,1.323
43,-2,1.324
80,-2,1.325
98,-1,1.326
101,2,1.327
87,4,1.328
58,7,1.329
35,9,1.33
26,8,1.331
14,0,1.332
-13,-5,1.333
-43,-3,1.334
-58,3,1.335
-67,4,1.336
-81,-6,1.337
-83,-9,1.338
-56,-2,1.339
-23,5,1.34
-13,5,1.341
-14,5,1.342
-6,4,1.343
3,1,1.344
-8,-4,1.345
-26,-3,1.346
-18,-1,1.347
13,-2,1.348
33,-2,1.349
32,1,1.35
29,5,1.351
32,1,1.352
30,-2,1.353
12,-3,1.354
-9,-2,1.355
-29,-3,1.356
-41,-9,1.357
-41,-9,1.358
-7,-4,1.359
20,-1,1.36
25,2,1.361
25,5,1.362
5,2,1.363
-4,-5,1.364
17,-9,1.365
35,-3,1.366
35,4,1.367
38,2,1.368
50,-2,1.369
52,1,1.37
22,8,1.371
-5,8,1.372
-27,2,1.373
-40,-4,1.374
-23,-3,1.375
-11,-5,1.376
-3,-10,1.377
5,-13,1.378
15,-9,1.379
17,-2,1.38
13,2,1.381
1,5,1.382
-23,6,1.383
-49,5,1.384
-40,4,1.385
15,5,1.386
78,8,1.387
85,9,1.388
31,7,1.389
-23,5,1.39
-35,0,1.391
-17,-6,1.392
-4,-8,1.393
-10,-7,1.394
-18,-3,1.395
-20,-4,1.396
-21,-10,1.397
-23,-13,1.398
-20,-11,1.399
-12,-5,1.4
-13,0,1.401
-26,1,1.402
-41,-1,1.403
-42,-1,1.404
-23,1,1.405
14,5,1.406
62,6,1.407
96,5,1.408
102,5,1.409
81,7,1.41
45,9,1.411
7,7,1.412
-17,2,1.413
-19,-6,1.414
2,-11,1.415
19,-9,1.416
9,-6,1.417
-16,-3,1.418
-30,-2,1.419
-37,0,1.42
-53,5,1.421
-69,7,1.422
-55,4,1.423
-8,-1,1.424
37,-4,1.425
51,-3,1.426
32,-1,1.427
2,-2,1.428
-15,-3,1.429
-10,-2,1.43
-1,2,1.431
-15,2,1.432
-39,3,1.433
-31,4,1.434
15,8,1.435
43,9,1.436
11,1,1.437
-8,-6,1.438
13,-6,1.439
37,-3,1.44
61,0,1.441
67,0,1.442
15,-3,1.443
-25,-5,1.444
-27,-3,1.445
-23,1,1.446
6,1,1.447
31,-3,1.448
41,-4,1.449
48,2,1.45
44,7,1.451
37,4,1.452
24,-1,1.453
7,-3,1.454
-20,2,1.455
-39,1,1.456
-41,-7,1.457
-27,-13,1.458
0,-9,1.459
25,-1,1.46
31,3,1.461
15,-1,1.462
3,-7,1.463
10,-6,1.464
18,0,1.465
8,8,1.466
-14,11,1.467
-31,9,1.468
-43,4,1.469
-51,0,1.47
-46,-2,1.471
-26,-3,1.472
-8,0,1.473
-4,0,1.474
-10,-1,1.475
-13,-5,1.476
-17,-10,1.477
-26,-9,1.478
-25,-5,1.479
-5,-1,1.48
15,-2,1.481
-5,1,1.482
-64,6,1.483
-110,6,1.484
-80,1,1.485
31,-3,1.486
141,-4,1.487
168,-4,1.488
121,-2,1.489
81,1,1.49
79,5,1.491
60,6,1.492
-1,5,1.493
-65,2,1.494
-70,1,1.495
-31,1,1.496
-5,-4,1.497
-4,-7,1.498
0,-7,1.499
19,-8,1.5
39,-4,1.501
55,5,1.502
65,9,1.503
55,3,1.504
16,-5,1.505
-24,-7,1.506
-42,-1,1.507
-44,2,1.508
-46,0,1.509
-48,-2,1.51
-35,-1,1.511
-21,2,1.512
-19,5,1.513
-36,3,1.514
-53,-3,1.515
-64,-8,1.516
-60,-12,1.517
-30,-9,1.518
21,-6,1.519
58,-8,1.52
66,-6,1.521
70,1,1.522
88,7,1.523
99,8,1.524
77,4,1.525
28,3,1.526
-13,3,1.527
-33,2,1.528
-40,3,1.529
-40,7,1.53
-33,6,1.531
-25,1,1.532
-18,-1,1.533
-16,-4,1.534
-16,-4,1.535
-9,-3,1.536
16,-6,1.537
39,-9,1.538
48,-7,1.539
50,-5,1.54
27,-3,1.541
9,-1,1.542
7,0,1.543
1,2,1.544
-12,2,1.545
-18,3,1.546
0,4,1.547
10,5,1.548
-4,6,1.549
-15,8,1.55
-9,8,1.551
-5,6,1.552
-5,0,1.553
-6,-5,1.554
-7,-7,1.555
-28,-7,1.556
-62,-12,1.557
-74,-14,1.558
-42,-11,1.559
7,-3,1.56
36,8,1.561
36,12,1.562
28,9,1.563
22,2,1.564
22,0,1.565
36,3,1.566
58,5,1.567
57,0,1.568
22,-3,1.569
0,0,1.57
20,4,1.571
33,3,1.572
-11,-2,1.573
-88,-5,1.574
-90,-4,1.575
-41,-1,1.576
-19,-5,1.577
-32,-11,1.578
-13,-10,1.579
55,-1,1.58
106,9,1.581
92,9,1.582
44,-2,1.583
15,-9,1.584
8,-4,1.585
0,7,1.586
-15,7,1.587
-18,1,1.588
-5,-3,1.589
24,-2,1.59
48,-2,1.591
45,-5,1.592
15,-5,1.593
-15,-1,1.594
-18,3,1.595
-13,2,1.596
-24,-2,1.597
-46,-4,1.598
-40,-4,1.599
-8,-5,1.6
11,-6,1.601
6,3,1.602
0,13,1.603
8,15,1.604
10,7,1.605
0,-3,1.606
-2,-6,1.607
8,-1,1.608
14,4,1.609
5,4,1.61
-2,0,1.611
0,-1,1.612
-1,-1,1.613
-23,-3,1.614
-49,-6,1.615
-59,-9,1.616
-45,-10,1.617
-16,-10,1.618
10,-9,1.619
14,-5,1.62
0,0,1.621
-2,7,1.622
19,9,1.623
44,6,1.624
51,3,1.625
56,1,1.626
85,-3,1.627
113,-7,1.628
92,-8,1.629
25,-2,1.63
-34,1,1.631
-49,-3,1.632
-38,-3,1.633
-33,0,1.634
-36,1,1.635
-42,-1,1.636
-54,-9,1.637
-82,-12,1.638
-101,-10,1.639
-79,-6,1.64
-15,-1,1.641
45,3,1.642
71,4,1.643
77,2,1.644
92,4,1.645
110,8,1.646
88,11,1.647
20,10,1.648
-38,9,1.649
-44,13,1.65
-24,13,1.651
-19,7,1.652
-29,2,1.653
-27,1,1.654
-16,2,1.655
-12,-2,1.656
-14,-11,1.657
-4,-13,1.658
7,-9,1.659
1,-6,1.66
-12,-3,1.661
-7,2,1.662
11,5,1.663
23,2,1.664
20,-2,1.665
14,-2,1.666
10,0,1.667
3,2,1.668
-6,2,1.669
-15,0,1.67
-24,-2,1.671
-23,-8,1.672
-3,-8,1.673
27,-4,1.674
42,-2,1.675
48,-4,1.676
23,-7,1.677
5,-7,1.678
9,-6,1.679
9,-4,1.68
-4,-1,1.681
-13,4,1.682
-7,8,1.683
-3,6,1.684
-7,5,1.685
-11,5,1.686
-15,2,1.687
-16,-2,1.688
-5,-3,1.689
0,-1,1.69
-18,-2,1.691
-36,-6,1.692
-49,-6,1.693
-51,-7,1.694
-6,-7,1.695
41,-11,1.696
61,-14,1.697
50,-11,1.698
28,-5,1.699
11,1,1.7
-7,8,1.701
-25,15,1.702
-27,16,1.703
0,12,1.704
37,4,1.705
64,0,1.706
70,-1,1.707
64,1,1.708
47,0,1.709
25,-4,1.71
16,-5,1.711
29,-1,1.712
51,5,1.713
53,7,1.714
19,1,1.715
-29,-6,1.716
-52,-13,1.717
-34,-13,1.718
-6,-9,1.719
-9,-5,1.72
-38,-1,1.721
-50,1,1.722
-30,0,1.723
-13,0,1.724
-20,-1,1.725
-34,2,1.726
-38,8,1.727
-40,9,1.728
-55,6,1.729
-64,4,1.73
-52,2,1.731
-22,1,1.732
16,-1,1.733
41,-4,1.734
37,-4,1.735
29,-4,1.736
13,-8,1.737
3,-11,1.738
17,-9,1.739
26,-5,1.74
17,3,1.741
11,10,1.742
17,10,1.743
19,7,1.744
5,-2,1.745
-4,-9,1.746
5,-6,1.747
10,-2,1.748
-2,0,1.749
-13,2,1.75
-18,2,1.751
-23,2,1.752
-26,-3,1.753
-22,-9,1.754
8,-10,1.755
34,-7,1.756
48,-2,1.757
60,5,1.758
68,9,1.759
55,6,1.76
25,0,1.761
2,0,1.762
0,2,1.763
-1,2,1.764
-17,-3,1.765
-41,-6,1.766
-52,-4,1.767
-39,-4,1.768
-8,-6,1.769
15,-7,1.77
21,-5,1.771
27,-2,1.772
52,4,1.773
79,14,1.774
63,19,1.775
1,13,1.776
-47,-3,1.777
-44,-9,1.778
-22,-6,1.779
-24,-1,1.78
-36,-1,1.781
-29,-2,1.782
-20,0,1.783
-34,1,1.784
-43,1,1.785
5,2,1.786
85,5,1.787
112,3,1.788
64,0,1.789
18,-1,1.79
24,-1,1.791
46,-4,1.792
36,-6,1.793
-1,-6,1.794
-13,-3,1.795
0,-2,1.796
2,-8,1.797
-23,-7,1.798
-46,0,1.799
-45,6,1.8
-30,8,1.801
-19,5,1.802
-13,1,1.803
-3,-3,1.804
17,-4,1.805
29,-1,1.806
16,0,1.807
-21,0,1.808
-58,-2,1.809
-65,0,1.81
-46,0,1.811
-29,-2,1.812
-26,-4,1.813
-24,-4,1.814
-5,0,1.815
26,3,1.816
51,-3,1.817
60,-5,1.818
47,-3,1.819
17,-2,1.82
-17,-2,1.821
-40,1,1.822
-46,6,1.823
-38,8,1.824
-21,3,1.825
3,0,1.826
33,-1,1.827
59,-2,1.828
76,-4,1.829
78,-1,1.83
60,5,1.831
24,5,1.832
-5,1,1.833
-16,-5,1.834
-13,-2,1.835
-20,0,1.836
-44,-5,1.837
-59,-9,1.838
-39,-8,1.839
-3,-2,1.84
18,-2,1.841
24,-5,1.842
40,-2,1.843
61,1,1.844
59,3,1.845
28,0,1.846
5,-1,1.847
7,0,1.848
13,1,1.849
6,2,1.85
4,4,1.851
14,6,1.852
14,9,1.853
-6,7,1.854
-16,4,1.855
-1,0,1.856
5,-2,1.857
-16,0,1.858
-32,2,1.859
-19,0,1.86
-1,-3,1.861
-4,-3,1.862
-11,0,1.863
1,1,1.864
14,-3,1.865
3,-5,1.866
-18,-3,1.867
-21,0,1.868
-7,-1,1.869
2,-4,1.87
0,-6,1.871
-1,-5,1.872
-1,-3,1.873
-14,-3,1.874
-34,-3,1.875
-40,-2,1.876
-8,-4,1.877
40,-4,1.878
69,-4,1.879
61,-6,1.88
40,-3,1.881
32,1,1.882
30,6,1.883
16,7,1.884
-7,4,1.885
-17,4,1.886
-12,5,1.887
-7,5,1.888
-11,2,1.889
-10,-1,1.89
-3,-3,1.891
0,-1,1.892
-4,0,1.893
-14,-1,1.894
-17,-2,1.895
-19,-2,1.896
-23,-3,1.897
-24,-6,1.898
-12,-6,1.899
6,-2,1.9
14,4,1.901
9,6,1.902
6,5,1.903
5,2,1.904
-3,0,1.905
-17,-2,1.906
-23,-5,1.907
-22,-6,1.908
-21,-3,1.909
-12,4,1.91
19,8,1.911
59,8,1.912
75,4,1.913
62,0,1.914
48,1,1.915
34,2,1.916
21,-1,1.917
7,-4,1.918
-9,-4,1.919
-19,-2,1.92
-8,0,1.921
0,2,1.922
-4,3,1.923
-6,5,1.924
-1,5,1.925
2,5,1.926
-1,3,1.927
-4,1,1.928
-7,1,1.929
-10,1,1.93
-12,0,1.931
-12,-3,1.932
-5,-7,1.933
2,-11,1.934
3,-17,1.935
1,-20,1.936
0,-22,1.937
-1,-19,1.938
1,-13,1.939
6,-6,1.94
6,2,1.941
0,7,1.942
-3,8,1.943
-2,7,1.944
-1,7,1.945
-3,9,1.946
1,9,1.947
10,7,1.948
13,3,1.949
9,-2,1.95
6,-6,1.951
7,-6,1.952
10,-3,1.953
9,-1,1.954
3,1,1.955
-2,3,1.956
-5,-2,1.957
-5,-5,1.958
0,-5,1.959
7,0,1.96
11,5,1.961
8,7,1.962
4,4,1.963
3,-1,1.964
3,-2,1.965
2,-1,1.966
2,2,1.967
3,5,1.968
3,5,1.969
3,0,1.97
3,-3,1.971
3,-1,1.972
4,3,1.973
5,0,1.974
4,-5,1.975
1,-6,1.976
-5,-4,1.977
-11,-3,1.978
-12,-5,1.979
-9,-4,1.98
-7,0,1.981
-5,3,1.982
2,3,1.983
13,4,1.984
18,7,1.985
14,8,1.986
11,4,1.987
12,-2,1.988
14,-7,1.989
7,-8,1.99
-7,-5,1.991
-16,1,1.992
-21,8,1.993
-42,6,1.994
-23,-1,1.995
-4,-7,1.996
14,-10,1.997
41,-7,1.998
88,-2,1.999
109,1,2.0
57,1,2.001
11,-4,2.002
-11,-7,2.003
-22,-8,2.004
7,-4,2.005
27,1,2.006
21,3,2.007
15,2,2.008
11,0,2.009
5,-1,2.01
-2,-2,2.011
-8,-4,2.012
-8,-5,2.013
-59,-6,2.014
-35,-3,2.015
-10,1,2.016
15,2,2.017
50,4,2.018
110,7,2.019
138,10,2.02
70,12,2.021
10,12,2.022
-19,7,2.023
-33,-1,2.024
4,-4,2.025
31,0,2.026
24,4,2.027
16,3,2.028
10,2,2.029
2,1,2.03
-7,-2,2.031
-15,-10,2.032
-15,-11,2.033
-13,-8,2.034
-16,-5,2.035
-30,-7,2.036
-49,-11,2.037
-60,-8,2.038
-53,-6,2.039
-42,-9,2.04
-43,-10,2.041
-52,-6,2.042
-38,-2,2.043
7,-3,2.044
44,-5,2.045
37,-3,2.046
1,-3,2.047
-18,-4,2.048
-7,-1,2.049
14,5,2.05
30,11,2.051
43,10,2.052
52,8,2.053
55,4,2.054
55,0,2.055
41,0,2.056
-1,0,2.057
-71,1,2.058
-112,0,2.059
-73,-2,2.06
16,-2,2.061
76,1,2.062
76,1,2.063
50,-2,2.064
39,-2,2.065
38,3,2.066
19,6,2.067
-25,0,2.068
-77,-6,2.069
-109,-2,2.07
-101,6,2.071
-51,6,2.072
16,-2,2.073
79,-11,2.074
109,-9,2.075
92,0,2.076
48,3,2.077
6,0,2.078
-15,0,2.079
-17,7,2.08
-11,12,2.081
-2,10,2.082
11,1,2.083
19,-4,2.084
7,-3,2.085
-15,0,2.086
-21,-3,2.087
-5,-5,2.088
8,-4,2.089
-1,2,2.09
-14,6,2.091
-7,1,2.092
7,-3,2.093
8,-6,2.094
0,-3,2.095
-5,0,2.096
1,-3,2.097
8,-5,2.098
12,-3,2.099
15,-2,2.1
13,0,2.101
11,1,2.102
6,1,2.103
1,0,2.104
0,-1,2.105
0,-2,2.106
9,0,2.107
19,1,2.108
29,1,2.109
28,0,2.11
-9,1,2.111
-47,1,2.112
-85,-3,2.113
-113,-7,2.114
-98,-10,2.115
-70,-10,2.116
-45,-9,2.117
-15,-4,2.118
36,2,2.119
98,7,2.12
132,9,2.121
119,8,2.122
78,8,2.123
46,6,2.124
25,3,2.125
0,3,2.126
-23,3,2.127
-25,4,2.128
1,4,2.129
34,1,2.13
44,-4,2.131
27,-6,2.132
0,-6,2.133
-21,-6,2.134
-24,-6,2.135
-15,-6,2.136
-13,-7,2.137
-30,-7,2.138
-52,-1,2.139
-50,3,2.14
-25,3,2.141
1,2,2.142
9,0,2.143
4,-1,2.144
3,-1,2.145
7,1,2.146
0,8,2.147
-19,13,2.148
-12,9,2.149
38,5,2.15
97,2,2.151
111,0,2.152
77,-3,2.153
22,-6,2.154
-18,-3,2.155
-50,-1,2.156
-78,-8,2.157
-77,-15,2.158
-35,-12,2.159
7,0,2.16
8,9,2.161
-22,3,2.162
-31,-7,2.163
-9,-10,2.164
18,-4,2.165
27,3,2.166
33,3,2.167
52,0,2.168
77,-1,2.169
85,2,2.17
62,4,2.171
16,2,2.172
-26,0,2.173
-47,-2,2.174
-47,0,2.175
-47,2,2.176
-51,-2,2.177
-50,-4,2.178
-36,-2,2.179
-21,-1,2.18
-5,-2,2.181
8,-4,2.182
12,-5,2.183
12,-4,2.184
2,3,2.185
-9,9,2.186
-26,9,2.187
-39,7,2.188
-40,5,2.189
-28,2,2.19
29,-3,2.191
76,-6,2.192
94,-4,2.193
108,-3,2.194
96,0,2.195
69,3,2.196
20,3,2.197
-26,1,2.198
-46,-1,2.199
-42,-1,2.2
-32,2,2.201
-31,3,2.202
-34,2,2.203
-32,0,2.204
-29,-1,2.205
-25,-1,2.206
-13,-2,2.207
7,-4,2.208
28,-4,2.209
40,-2,2.21
44,3,2.211
45,3,2.212
46,0,2.213
39,-6,2.214
24,-8,2.215
0,-7,2.216
-20,-7,2.217
-28,-7,2.218
-31,-5,2.219
-34,0,2.22
-36,2,2.221
-31,1,2.222
-25,2,2.223
-23,4,2.224
-20,8,2.225
-7,9,2.226
9,6,2.227
16,1,2.228
11,-5,2.229
0,-6,2.23
-2,-4,2.231
-1,-1,2.232
0,0,2.233
-41,-5,2.234
10,-2,2.235
52,-1,2.236
60,-2,2.237
59,-3,2.238
30,0,2.239
5,3,2.24
0,2,2.241
-8,1,2.242
-19,2,2.243
-25,2,2.244
-12,0,2.245
-3,0,2.246
-4,0,2.247
-5,2,2.248
-3,2,2.249
-2,4,2.25
-4,4,2.251
-5,3,2.252
-3,0,2.253
-39,-7,2.254
10,-4,2.255
50,-2,2.256
58,-4,2.257
57,-5,2.258
29,0,2.259
5,5,2.26
0,3,2.261
-8,2,2.262
-18,3,2.263
-24,3,2.264
-12,0,2.265
-3,-1,2.266
-4,0,2.267
-5,3,2.268
-3,4,2.269
-2,6,2.27
-4,6,2.271
-5,5,2.272
-3,-1,2.273
1,-7,2.274
6,-10,2.275
9,-10,2.276
6,-11,2.277
3,-8,2.278
10,-6,2.279
19,-5,2.28
19,0,2.281
10,7,2.282
7,9,2.283
15,6,2.284
16,5,2.285
8,6,2.286
0,4,2.287
-3,2,2.288
-7,6,2.289
-14,8,2.29
-13,2,2.291
-5,-7,2.292
1,-5,2.293
0,1,2.294
-6,2,2.295
-13,-3,2.296
-21,-8,2.297
-23,-5,2.298
-13,-1,2.299
4,-1,2.3
9,-3,2.301
-9,0,2.302
-42,2,2.303
-69,0,2.304
-65,-2,2.305
-15,-4,2.306
58,-5,2.307
104,-4,2.308
102,-1,2.309
85,4,2.31
84,9,2.311
80,9,2.312
50,7,2.313
24,-5,2.314
28,-2,2.315
28,0,2.316
15,-2,2.317
5,-5,2.318
5,-5,2.319
5,-5,2.32
7,-4,2.321
10,-3,2.322
20,-3,2.323
22,-1,2.324
1,2,2.325
-20,5,2.326
-45,3,2.327
-64,2,2.328
-65,1,2.329
-58,0,2.33
-26,0,2.331
1,-3,2.332
19,-11,2.333
59,-5,2.334
67,-2,2.335
66,0,2.336
38,-2,2.337
16,-5,2.338
16,-5,2.339
16,-5,2.34
20,-4,2.341
28,-3,2.342
49,-3,2.343
54,-1,2.344
8,2,2.345
-40,5,2.346
-94,3,2.347
-135,2,2.348
-137,1,2.349
-122,0,2.35
-52,0,2.351
9,-3,2.352
47,-11,2.353
78,-17,2.354
74,-12,2.355
51,-2,2.356
18,1,2.357
-5,0,2.358
5,-2,2.359
40,-3,2.36
59,-4,2.361
42,-1,2.362
12,5,2.363
0,9,2.364
8,9,2.365
10,6,2.366
-5,5,2.367
-17,3,2.368
-8,3,2.369
7,4,2.37
6,4,2.371
-9,1,2.372
-22,0,2.373
-40,-1,2.374
-61,-1,2.375
-71,-4,2.376
-48,-9,2.377
-2,-9,2.378
35,-6,2.379
47,-5,2.38
50,-4,2.381
59,-3,2.382
64,1,2.383
53,2,2.384
30,2,2.385
15,5,2.386
16,7,2.387
15,5,2.388
-6,-2,2.389
-38,-5,2.39
-50,-4,2.391
-26,-6,2.392
15,-8,2.393
43,-9,2.394
44,-3,2.395
25,5,2.396
5,7,2.397
-5,7,2.398
-10,3,2.399
-7,-1,2.4
-1,-1,2.401
10,5,2.402
28,9,2.403
44,6,2.404
41,0,2.405
11,0,2.406
-33,1,2.407
-58,0,2.408
-53,-2,2.409
-38,-1,2.41
-30,2,2.411
-25,2,2.412
-15,-1,2.413
7,-4,2.414
41,-4,2.415
63,-4,2.416
48,-5,2.417
29,-6,2.418
0,-5,2.419
-22,-3,2.42
-26,1,2.421
-36,3,2.422
-68,-1,2.423
-86,-5,2.424
-62,-3,2.425
-34,-1,2.426
2,2,2.427
33,4,2.428
45,0,2.429
47,-3,2.43
14,-2,2.431
-11,-1,2.432
-12,-2,2.433
-12,-3,2.434
-7,-5,2.435
1,-6,2.436
17,-8,2.437
32,-6,2.438
40,-1,2.439
42,4,2.44
35,3,2.441
23,-2,2.442
16,-5,2.443
11,-3,2.444
-1,2,2.445
-22,0,2.446
-40,-7,2.447
-47,-10,2.448
-34,-5,2.449
4,0,2.45
70,0,2.451
126,-3,2.452
134,-2,2.453
91,-1,2.454
45,0,2.455
27,3,2.456
15,3,2.457
-15,6,2.458
-45,7,2.459
-52,10,2.46
-50,13,2.461
-52,13,2.462
-38,5,2.463
6,0,2.464
43,2,2.465
33,6,2.466
1,7,2.467
-11,4,2.468
-8,3,2.469
-15,1,2.47
-23,-4,2.471
-14,-6,2.472
-4,-1,2.473
-19,0,2.474
-47,-4,2.475
-54,-9,2.476
-42,-13,2.477
-37,-8,2.478
-40,-1,2.479
-35,3,2.48
-23,4,2.481
-5,1,2.482
31,-1,2.483
82,-3,2.484
111,-6,2.485
91,-7,2.486
40,-4,2.487
-13,1,2.488
-60,6,2.489
-84,5,2.49
-62,2,2.491
-5,-1,2.492
36,-1,2.493
42,0,2.494
39,2,2.495
32,4,2.496
16,0,2.497
3,-4,2.498
6,-4,2.499
10,-3,2.5
14,-3,2.501
13,-3,2.502
-4,-1,2.503
-16,0,2.504
-12,2,2.505
-8,4,2.506
-8,4,2.507
-8,3,2.508
-2,-1,2.509
2,-4,2.51
2,-5,2.511
-2,-6,2.512
-22,-2,2.513
-43,2,2.514
-53,0,2.515
-30,-5,2.516
-1,-9,2.517
14,-6,2.518
23,1,2.519
40,3,2.52
56,5,2.521
55,7,2.522
46,4,2.523
35,-1,2.524
30,-2,2.525
37,2,2.526
57,1,2.527
74,-7,2.528
68,-10,2.529
49,-3,2.53
32,5,2.531
11,6,2.532
-28,4,2.533
-86,1,2.534
-125,0,2.535
-114,-3,2.536
-66,-6,2.537
-21,-3,2.538
-17,-2,2.539
-36,-4,2.54
-37,-5,2.541
6,0,2.542
57,4,2.543
67,-2,2.544
36,-7,2.545
4,-7,2.546
0,-5,2.547
5,-6,2.548
0,-8,2.549
-9,-1,2.55
-8,10,2.551
0,16,2.552
6,14,2.553
-2,6,2.554
-15,-1,2.555
-24,-4,2.556
-15,-6,2.557
9,-4,2.558
24,-2,2.559
5,-1,2.56
-34,-1,2.561
-45,-3,2.562
-8,-2,2.563
47,0,2.564
81,3,2.565
93,5,2.566
104,6,2.567
103,4,2.568
64,3,2.569
-1,0,2.57
-47,-1,2.571
-55,1,2.572
-44,4,2.573
-40,6,2.574
-37,4,2.575
-34,2,2.576
-30,-2,2.577
-27,-5,2.578
-32,-3,2.579
-35,-2,2.58
-31,0,2.581
-18,1,2.582
18,0,2.583
47,-1,2.584
55,-2,2.585
53,-3,2.586
16,-3,2.587
-9,-2,2.588
0,-1,2.589
12,0,2.59
26,3,2.591
37,5,2.592
34,1,2.593
26,-2,2.594
-9,1,2.595
-59,3,2.596
-92,0,2.597
-88,-7,2.598
-48,-10,2.599
-2,-8,2.6
22,-4,2.601
21,0,2.602
11,0,2.603
4,-1,2.604
-2,-1,2.605
-11,-2,2.606
-11,-2,2.607
2,-2,2.608
16,0,2.609
14,3,2.61
-3,4,2.611
-16,4,2.612
-19,6,2.613
-14,4,2.614
-2,-1,2.615
15,-6,2.616
34,-12,2.617
51,-11,2.618
67,-7,2.619
73,-4,2.62
64,-3,2.621
44,1,2.622
25,9,2.623
9,10,2.624
-2,9,2.625
-2,5,2.626
14,5,2.627
27,8,2.628
21,10,2.629
-4,10,2.63
-28,6,2.631
-50,1,2.632
-68,-4,2.633
-74,-9,2.634
-59,-11,2.635
-28,-10,2.636
2,-13,2.637
24,-13,2.638
44,-9,2.639
62,-3,2.64
71,-1,2.641
67,-3,2.642
48,-4,2.643
16,-3,2.644
-21,0,2.645
-50,1,2.646
-61,-3,2.647
-54,-7,2.648
-34,-9,2.649
-7,-8,2.65
12,-5,2.651
-1,0,2.652
-43,6,2.653
-81,8,2.654
-82,9,2.655
-72,10,2.656
-25,6,2.657
18,1,2.658
51,0,2.659
74,0,2.66
67,6,2.661
54,11,2.662
22,8,2.663
-8,4,2.664
-28,0,2.665
-44,-3,2.666
-43,0,2.667
-31,1,2.668
11,0,2.669
46,-2,2.67
56,-3,2.671
59,-5,2.672
39,-3,2.673
29,-1,2.674
54,0,2.675
62,-2,2.676
44,-9,2.677
29,-13,2.678
34,-10,2.679
31,-3,2.68
-2,1,2.681
-42,0,2.682
-51,-1,2.683
-27,0,2.684
7,5,2.685
30,7,2.686
34,3,2.687
16,-2,2.688
-7,-4,2.689
-12,-2,2.69
6,-2,2.691
25,-4,2.692
24,-3,2.693
3,-3,2.694
-21,-1,2.695
-39,-1,2.696
-56,-7,2.697
-70,-8,2.698
-71,-1,2.699
-60,12,2.7
-49,18,2.701
-31,11,2.702
16,0,2.703
86,-6,2.704
120,-5,2.705
81,-3,2.706
2,-5,2.707
-60,-5,2.708
-89,-2,2.709
-105,-1,2.71
-97,-5,2.711
-43,-9,2.712
41,-8,2.713
101,-6,2.714
105,-3,2.715
76,2,2.716
51,4,2.717
27,8,2.718
-10,10,2.719
-38,8,2.72
-28,2,2.721
7,-2,2.722
28,0,2.723
23,4,2.724
18,3,2.725
29,-2,2.726
35,-4,2.727
17,-2,2.728
-18,-2,2.729
-40,-4,2.73
-41,-2,2.731
-28,3,2.732
-16,4,2.733
-8,-2,2.734
1,-8,2.735
13,-6,2.736
23,-7,2.737
30,-8,2.738
28,-6,2.739
18,-1,2.74
9,3,2.741
10,3,2.742
15,-2,2.743
12,-5,2.744
9,-5,2.745
23,-1,2.746
45,5,2.747
50,9,2.748
31,12,2.749
6,12,2.75
-31,6,2.751
-94,-1,2.752
-160,-4,2.753
-186,-5,2.754
-135,-2,2.755
-35,-3,2.756
53,-8,2.757
93,-6,2.758
102,-1,2.759
105,2,2.76
88,2,2.761
32,6,2.762
-32,10,2.763
-41,9,2.764
16,5,2.765
73,4,2.766
77,6,2.767
45,7,2.768
15,3,2.769
-11,-1,2.77
-41,-3,2.771
-50,-6,2.772
-28,-5,2.773
-3,-4,2.774
-7,-2,2.775
-24,-3,2.776
-19,-7,2.777
2,-10,2.778
14,-13,2.779
10,-10,2.78
1,-3,2.781
-17,0,2.782
-42,-4,2.783
-49,-9,2.784
-20,-6,2.785
17,2,2.786
31,3,2.787
26,-3,2.788
28,-3,2.789
41,4,2.79
43,7,2.791
30,2,2.792
20,-2,2.793
23,-1,2.794
31,1,2.795
26,0,2.796
10,-7,2.797
-7,-8,2.798
-22,-4,2.799
-37,0,2.8
-39,3,2.801
-17,4,2.802
14,2,2.803
23,-1,2.804
4,-5,2.805
-18,-3,2.806
-31,0,2.807
-45,4,2.808
-65,5,2.809
-54,6,2.81
17,7,2.811
108,7,2.812
141,5,2.813
99,1,2.814
49,1,2.815
16,2,2.816
32,6,2.817
32,8,2.818
-16,2,2.819
-44,-3,2.82
-6,-4,2.821
15,-6,2.822
-13,-4,2.823
-45,-2,2.824
-86,0,2.825
-110,2,2.826
-80,2,2.827
-46,0,2.828
0,-1,2.829
37,-4,2.83
48,-2,2.831
53,-1,2.832
39,-3,2.833
33,-5,2.834
46,-4,2.835
37,-2,2.836
7,1,2.837
-16,4,2.838
-15,4,2.839
-7,0,2.84
-13,-2,2.841
-20,-2,2.842
-9,-4,2.843
8,-4,2.844
5,0,2.845
-17,2,2.846
-41,-2,2.847
-56,-10,2.848
-60,-11,2.849
-53,-7,2.85
-30,-5,2.851
9,-5,2.852
58,0,2.853
105,5,2.854
127,5,2.855
109,-1,2.856
70,-7,2.857
34,-7,2.858
15,-7,2.859
2,-6,2.86
-13,-5,2.861
-23,1,2.862
-25,5,2.863
-17,6,2.864
-9,7,2.865
-10,9,2.866
-20,7,2.867
-24,2,2.868
-16,-2,2.869
-15,0,2.87
-39,3,2.871
-64,3,2.872
-44,2,2.873
9,-2,2.874
81,-3,2.875
108,-1,2.876
79,-2,2.877
17,-3,2.878
-45,-5,2.879
-90,-7,2.88
-107,-6,2.881
-88,-5,2.882
-39,-6,2.883
18,-5,2.884
49,-2,2.885
40,6,2.886
15,16,2.887
17,19,2.888
54,12,2.889
90,1,2.89
93,-3,2.891
60,0,2.892
8,3,2.893
-44,1,2.894
-64,-1,2.895
-79,-3,2.896
-79,1,2.897
-66,3,2.898
-15,-1,2.899
24,-4,2.9
28,-6,2.901
32,-7,2.902
35,-5,2.903
56,-2,2.904
130,1,2.905
169,4,2.906
96,6,2.907
36,7,2.908
16,1,2.909
-14,-2,2.91
-71,2,2.911
-104,3,2.912
-58,-4,2.913
-10,-10,2.914
2,-9,2.915
-42,-5,2.916
-71,-6,2.917
-51,-6,2.918
-13,-5,2.919
11,-6,2.92
11,-7,2.921
0,-8,2.922
-12,-5,2.923
-12,3,2.924
3,13,2.925
15,18,2.926
6,17,2.927
-10,10,2.928
-8,2,2.929
14,-2,2.93
24,-2,2.931
0,-2,2.932
-42,-1,2.933
-75,-3,2.934
-72,-5,2.935
-33,-5,2.936
15,-9,2.937
47,-11,2.938
54,-12,2.939
49,-13,2.94
42,-9,2.941
42,-4,2.942
54,-1,2.943
66,0,2.944
50,4,2.945
-4,10,2.946
-60,12,2.947
-66,9,2.948
-16,1,2.949
40,-4,2.95
65,-6,2.951
72,-8,2.952
76,-6,2.953
66,-7,2.954
30,-4,2.955
-19,0,2.956
-42,0,2.957
-26,0,2.958
2,3,2.959
21,5,2.96
37,4,2.961
62,0,2.962
74,8,2.963
41,41,2.964
-36,93,2.965
-104,125,2.966
-123,101,2.967
-110,27,2.968
-101,-48,2.969
-99,-85,2.97
-80,-91,2.971
-39,-86,2.972
-2,-76,2.973
7,-54,2.974
-5,-31,2.975
-7,-27,2.976
24,-37,2.977
54,-35,2.978
80,-19,2.979
84,-11,2.98
19,-14,2.981
-32,-11,2.982
-41,3,2.983
-37,19,2.984
8,22,2.985
49,17,2.986
69,15,2.987
83,19,2.988
77,30,2.989
60,45,2.99
14,59,2.991
-22,70,2.992
-34,76,2.993
-42,71,2.994
-32,57,2.995
-22,52,2.996
-1,62,2.997
36,78,2.998
70,76,2.999
80,63,3.0
65,58,3.001
57,41,3.002
83,-32,3.003
110,-155,3.004
73,-253,3.005
-25,-264,3.006
-84,-200,3.007
-21,-109,3.008
90,-42,3.009
80,-33,3.01
-83,-69,3.011
-217,-98,3.012
-165,-82,3.013
33,-48,3.014
100,-22,3.015
22,7,3.016
-56,47,3.017
-68,79,3.018
-78,87,3.019
-125,93,3.02
-165,94,3.021
-170,95,3.022
-154,93,3.023
-103,91,3.024
11,91,3.025
138,81,3.026
180,43,3.027
131,18,3.028
83,37,3.029
76,37,3.03
58,-23,3.031
1,-69,3.032
-35,-74,3.033
-17,-69,3.034
14,-40,3.035
0,-14,3.036
-34,12,3.037
-30,29,3.038
3,33,3.039
16,58,3.04
-3,104,3.041
-17,110,3.042
-10,28,3.043
-3,-83,3.044
-7,-124,3.045
-4,-46,3.046
15,162,3.047
37,461,3.048
38,663,3.049
13,507,3.05
-20,-37,3.051
-41,-621,3.052
-35,-873,3.053
-12,-787,3.054
14,-594,3.055
37,-431,3.056
47,-247,3.057
50,-25,3.058
31,139,3.059
8,226,3.06
-27,307,3.061
-41,371,3.062
9,304,3.063
58,113,3.064
102,-55,3.065
124,-107,3.066
78,-99,3.067
38,-85,3.068
15,-33,3.069
-7,96,3.07
-24,277,3.071
-38,435,3.072
-42,473,3.073
-41,297,3.074
-12,-35,3.075
26,-323,3.076
35,-414,3.077
12,-355,3.078
1,-273,3.079
25,-176,3.08
38,-39,3.081
5,69,3.082
-43,78,3.083
-72,48,3.084
-99,62,3.085
-141,85,3.086
-152,54,3.087
-85,16,3.088
25,31,3.089
117,53,3.09
168,25,3.091
167,-9,3.092
97,9,3.093
-46,53,3.094
-86,56,3.095
24,27,3.096
158,8,3.097
159,5,3.098
49,2,3.099
-34,14,3.1
-40,61,3.101
-41,115,3.102
-73,154,3.103
-93,186,3.104
-72,185,3.105
-47,90,3.106
-47,-98,3.107
-48,-265,3.108
-34,-306,3.109
-28,-237,3.11
-31,-147,3.111
-25,-86,3.112
-10,-42,3.113
-3,-5,3.114
-8,11,3.115
-10,10,3.116
-5,8,3.117
-6,16,3.118
-3,28,3.119
20,43,3.12
46,68,3.121
45,89,3.122
21,82,3.123
11,51,3.124
30,41,3.125
53,110,3.126
50,287,3.127
28,546,3.128
13,790,3.129
17,837,3.13
13,510,3.131
-23,-147,3.132
-76,-789,3.133
-103,-1145,3.134
-77,-1114,3.135
-43,-877,3.136
18,-635,3.137
57,-422,3.138
28,-217,3.139
3,-42,3.14
-7,76,3.141
2,159,3.142
77,199,3.143
123,180,3.144
80,141,3.145
43,142,3.146
25,167,3.147
8,150,3.148
-8,112,3.149
-14,129,3.15
14,212,3.151
37,275,3.152
45,255,3.153
35,149,3.154
-34,22,3.155
-85,-64,3.156
-99,-85,3.157
-90,-69,3.158
-57,-61,3.159
18,-64,3.16
113,-50,3.161
169,-22,3.162
152,-10,3.163
77,-2,3.164
-19,49,3.165
-103,139,3.166
-137,205,3.167
-92,201,3.168
3,153,3.169
61,114,3.17
26,95,3.171
-44,54,3.172
-33,-31,3.173
79,-134,3.174
125,-190,3.175
119,-223,3.176
-46,-188,3.177
-161,-150,3.178
-122,-102,3.179
-93,-60,3.18
-97,-41,3.181
-82,-15,3.182
-11,33,3.183
40,121,3.184
29,326,3.185
-1,469,3.186
-89,422,3.187
-129,267,3.188
-22,-213,3.189
73,-558,3.19
134,-500,3.191
167,-399,3.192
110,-167,3.193
62,97,3.194
56,561,3.195
37,1114,3.196
-23,1413,3.197
-61,1164,3.198
-23,343,3.199
26,-732,3.2
0,-1546,3.201
-79,-1745,3.202
-132,-1412,3.203
-133,-900,3.204
-122,-459,3.205
-120,-146,3.206
-162,4,3.207
-284,1,3.208
-424,-11,3.209
-373,108,3.21
-12,295,3.211
467,386,3.212
734,381,3.213
686,422,3.214
503,579,3.215
330,722,3.216
191,823,3.217
62,759,3.218
-33,197,3.219
-110,-275,3.22
-133,-475,3.221
-167,-569,3.222
-234,-340,3.223
-279,-175,3.224
-256,-204,3.225
-231,-233,3.226
-200,-261,3.227
-157,-198,3.228
-82,140,3.229
24,371,3.23
222,276,3.231
360,146,3.232
310,-85,3.233
262,-211,3.234
257,95,3.235
265,519,3.236
172,942,3.237
0,1128,3.238
-159,738,3.239
-270,-136,3.24
-331,-860,3.241
-316,-926,3.242
-219,-508,3.243
-107,-105,3.244
-58,51,3.245
-88,14,3.246
-186,-132,3.247
-285,-286,3.248
-237,-328,3.249
19,-295,3.25
285,-337,3.251
323,-418,3.252
241,-364,3.253
-296,-168,3.254
-146,-32,3.255
-71,4,3.256
-225,129,3.257
-340,393,3.258
-338,572,3.259
-257,491,3.26
58,198,3.261
323,-167,3.262
425,-462,3.263
406,-553,3.264
17,-434,3.265
-240,-251,3.266
-94,-77,3.267
47,173,3.268
181,520,3.269
295,814,3.27
341,933,3.271
350,909,3.272
249,840,3.273
-138,778,3.274
-60,688,3.275
-21,360,3.276
-101,-388,3.277
-161,-1257,3.278
-160,-1609,3.279
-118,-1267,3.28
47,-779,3.281
185,-625,3.282
238,-608,3.283
228,-393,3.284
25,-125,3.285
-109,-56,3.286
-33,-13,3.287
41,248,3.288
111,605,3.289
170,881,3.29
194,1208,3.291
199,1703,3.292
146,2077,3.293
74,1939,3.294
-50,1122,3.295
-126,-239,3.296
-128,-1697,3.297
-92,-2577,3.298
-70,-2484,3.299
-83,-1752,3.3
-117,-1024,3.301
-147,-504,3.302
-143,-62,3.303
-88,202,3.304
-29,142,3.305
-33,78,3.306
-93,433,3.307
-111,995,3.308
-30,1182,3.309
65,929,3.31
74,669,3.311
22,560,3.312
23,350,3.313
86,-142,3.314
96,-673,3.315
6,-958,3.316
-47,-939,3.317
57,-677,3.318
215,-266,3.319
226,118,3.32
90,312,3.321
-13,288,3.322
-8,145,3.323
-4,1,3.324
-88,-9,3.325
-206,192,3.326
-268,492,3.327
-245,622,3.328
-119,460,3.329
104,203,3.33
330,128,3.331
443,236,3.332
452,343,3.333
400,491,3.334
226,901,3.335
-116,1451,3.336
-421,1438,3.337
-384,369,3.338
-29,-1261,3.339
275,-2402,3.34
306,-2566,3.341
216,-2054,3.342
196,-1288,3.343
164,-481,3.344
-32,111,3.345
-318,269,3.346
-469,190,3.347
-380,307,3.348
-126,657,3.349
141,869,3.35
277,737,3.351
203,435,3.352
31,151,3.353
-74,-132,3.354
-42,-324,3.355
-1,-243,3.356
-53,101,3.357
-129,455,3.358
-122,578,3.359
-71,435,3.36
-78,158,3.361
-141,-39,3.362
-187,3,3.363
-191,233,3.364
-165,468,3.365
-110,669,3.366
-39,871,3.367
14,815,3.368
33,134,3.369
38,-919,3.37
37,-1487,3.371
33,-1175,3.372
45,-621,3.373
16,-487,3.374
-129,-701,3.375
-243,-735,3.376
-259,-502,3.377
-184,-314,3.378
165,-186,3.379
404,232,3.38
305,1111,3.381
288,2168,3.382
517,2804,3.383
638,2353,3.384
431,646,3.385
248,-1510,3.386
142,-2821,3.387
25,-2697,3.388
-127,-1662,3.389
-258,-599,3.39
-324,23,3.391
-336,198,3.392
-186,162,3.393
-61,173,3.394
-32,254,3.395
-25,135,3.396
-27,-289,3.397
-5,-640,3.398
74,-541,3.399
134,-136,3.4
58,221,3.401
-134,479,3.402
-295,713,3.403
-346,783,3.404
-332,575,3.405
-334,320,3.406
-376,275,3.407
-383,336,3.408
-209,282,3.409
188,167,3.41
601,165,3.411
738,212,3.412
597,161,3.413
419,67,3.414
391,134,3.415
390,368,3.416
248,554,3.417
33,538,3.418
-98,303,3.419
-170,-106,3.42
-271,-523,3.421
-332,-662,3.422
-237,-436,3.423
-65,-169,3.424
14,-237,3.425
-18,-591,3.426
-61,-853,3.427
-94,-833,3.428
-146,-627,3.429
-174,-317,3.43
-135,139,3.431
-105,661,3.432
-127,978,3.433
-101,890,3.434
31,446,3.435
103,-75,3.436
-35,-383,3.437
-201,-381,3.438
-144,-193,3.439
38,7,3.44
82,167,3.441
47,327,3.442
210,437,3.443
513,340,3.444
589,32,3.445
336,-195,3.446
67,-94,3.447
-3,121,3.448
-20,15,3.449
-128,-350,3.45
-212,-320,3.451
-160,472,3.452
-88,1401,3.453
-135,1585,3.454
-255,711,3.455
-329,-582,3.456
-357,-1452,3.457
-427,-1648,3.458
-519,-1450,3.459
-491,-1186,3.46
-226,-986,3.461
231,-825,3.462
672,-615,3.463
873,-313,3.464
789,12,3.465
572,254,3.466
355,387,3.467
110,478,3.468
-205,613,3.469
-479,831,3.47
-532,1067,3.471
-348,1184,3.472
-111,1147,3.473
35,1041,3.474
68,878,3.475
96,450,3.476
206,-302,3.477
341,-948,3.478
382,-1017,3.479
305,-627,3.48
202,-250,3.481
100,33,3.482
-72,530,3.483
-295,1178,3.484
-397,1415,3.485
-282,931,3.486
-86,54,3.487
24,-756,3.488
72,-1390,3.489
131,-1835,3.49
122,-1890,3.491
-55,-1455,3.492
-285,-824,3.493
-384,-201,3.494
-287,401,3.495
-138,985,3.496
-96,1243,3.497
-172,920,3.498
-252,319,3.499
-217,38,3.5
-48,207,3.501
161,393,3.502
325,220,3.503
464,-203,3.504
599,-509,3.505
623,-453,3.506
415,-76,3.507
43,342,3.508
-263,464,3.509
-356,174,3.51
-278,-307,3.511
-145,-641,3.512
-54,-670,3.513
-34,-438,3.514
-19,-105,3.515
108,165,3.516
322,325,3.517
387,499,3.518
174,716,3.519
-122,689,3.52
-246,134,3.521
-215,-671,3.522
-209,-1050,3.523
-237,-744,3.524
-182,-184,3.525
-57,174,3.526
23,309,3.527
46,328,3.528
81,199,3.529
90,45,3.53
-1,210,3.531
-119,712,3.532
-124,1041,3.533
-20,828,3.534
62,278,3.535
74,-167,3.536
106,-400,3.537
180,-566,3.538
199,-680,3.539
120,-651,3.54
51,-521,3.541
79,-302,3.542
131,249,3.543
74,1295,3.544
-95,2329,3.545
-252,2349,3.546
-291,937,3.547
-223,-1091,3.548
-126,-2414,3.549
-83,-2513,3.55
-125,-1909,3.551
-203,-1288,3.552
-235,-870,3.553
-177,-566,3.554
-51,-386,3.555
91,-253,3.556
221,45,3.557
315,496,3.558
314,775,3.559
166,790,3.56
-69,937,3.561
-193,1461,3.562
-57,1872,3.563
237,1455,3.564
430,252,3.565
406,-903,3.566
273,-1343,3.567
124,-1148,3.568
-85,-737,3.569
-336,-304,3.57
-425,119,3.571
-228,371,3.572
68,309,3.573
235,44,3.574
233,-107,3.575
214,-31,3.576
224,93,3.577
134,144,3.578
-86,206,3.579
-264,368,3.58
-261,518,3.581
-150,451,3.582
-94,85,3.583
-130,-459,3.584
-184,-891,3.585
-193,-923,3.586
-153,-498,3.587
-89,176,3.588
-18,816,3.589
67,1174,3.59
191,1034,3.591
309,407,3.592
314,-237,3.593
166,-410,3.594
34,-38,3.595
80,314,3.596
185,140,3.597
93,-418,3.598
-166,-887,3.599
-274,-1001,3.6
-117,-757,3.601
42,-253,3.602
19,267,3.603
-17,455,3.604
93,221,3.605
188,-124,3.606
84,-250,3.607
-77,-111,3.608
-78,292,3.609
-5,1042,3.61
-64,1825,3.611
-202,1785,3.612
-218,587,3.613
-105,-1195,3.614
-37,-2217,3.615
-91,-2024,3.616
-161,-1349,3.617
-168,-869,3.618
-137,-515,3.619
-82,-76,3.62
9,332,3.621
93,663,3.622
97,1107,3.623
34,1547,3.624
-12,1460,3.625
-9,669,3.626
-5,-285,3.627
-42,-816,3.628
-113,-892,3.629
-186,-770,3.63
-224,-556,3.631
-183,-268,3.632
-47,51,3.633
185,534,3.634
434,1242,3.635
600,1776,3.636
614,1448,3.637
482,205,3.638
284,-1061,3.639
114,-1409,3.64
1,-775,3.641
-83,175,3.642
-161,734,3.643
-203,541,3.644
-183,-274,3.645
-126,-1093,3.646
-101,-1330,3.647
-159,-1061,3.648
-316,-786,3.649
-531,-610,3.65
-671,-252,3.651
-550,216,3.652
-168,383,3.653
300,245,3.654
560,298,3.655
597,687,3.656
660,885,3.657
806,546,3.658
734,44,3.659
287,-138,3.66
-189,-60,3.661
-260,-18,3.662
-12,-12,3.663
104,116,3.664
-53,334,3.665
-208,500,3.666
-182,563,3.667
-124,492,3.668
-175,229,3.669
-232,-161,3.67
-191,-445,3.671
-135,-485,3.672
-146,-372,3.673
-164,-230,3.674
-109,-100,3.675
-33,1,3.676
-20,30,3.677
-43,3,3.678
-34,-6,3.679
-11,27,3.68
-10,44,3.681
-21,23,3.682
-18,8,3.683
-6,19,3.684
-2,24,3.685
9,26,3.686
23,70,3.687
25,156,3.688
18,201,3.689
19,125,3.69
21,-38,3.691
10,-174,3.692
-2,-196,3.693
2,-137,3.694
15,-84,3.695
12,-85,3.696
2,-100,3.697
7,-77,3.698
22,-26,3.699
24,47,3.7
15,178,3.701
14,345,3.702
23,383,3.703
28,147,3.704
27,-261,3.705
23,-533,3.706
19,-490,3.707
15,-257,3.708
9,-70,3.709
4,-2,3.71
3,15,3.711
4,34,3.712
12,50,3.713
22,75,3.714
33,144,3.715
39,231,3.716
38,244,3.717
27,137,3.718
10,-35,3.719
0,-155,3.72
8,-161,3.721
19,-95,3.722
16,-41,3.723
0,-35,3.724
-8,-40,3.725
-7,-26,3.726
-7,0,3.727
-9,25,3.728
-9,66,3.729
-5,130,3.73
0,174,3.731
4,153,3.732
13,92,3.733
16,32,3.734
8,-2,3.735
-10,-12,3.736
-20,18,3.737
-15,100,3.738
-4,134,3.739
0,7,3.74
-3,-238,3.741
-5,-395,3.742
-5,-350,3.743
-5,-203,3.744
-7,-99,3.745
-5,-45,3.746
0,8,3.747
7,48,3.748
13,41,3.749
20,25,3.75
29,50,3.751
40,91,3.752
46,100,3.753
39,78,3.754
27,66,3.755
15,71,3.756
5,63,3.757
-3,49,3.758
-1,47,3.759
0,50,3.76
-3,40,3.761
-7,27,3.762
-11,19,3.763
-13,12,3.764
-8,-3,3.765
-4,-18,3.766
-6,-21,3.767
-8,-21,3.768
-12,-23,3.769
-14,-21,3.77
-11,-13,3.771
-8,-8,3.772
-12,-10,3.773
-15,-13,3.774
-14,-7,3.775
-12,-5,3.776
-10,-10,3.777
-7,-10,3.778
-1,-6,3.779
5,0,3.78
2,0,3.781
-4,0,3.782
-4,0,3.783
-2,-3,3.784
-3,-6,3.785
-6,-2,3.786
-5,2,3.787
5,2,3.788
15,2,3.789
19,1,3.79
24,-7,3.791
26,-24,3.792
25,-27,3.793
16,0,3.794
6,1,3.795
1,4,3.796
-1,-2,3.797
-3,-3,3.798
2,7,3.799
15,16,3.8
17,13,3.801
2,10,3.802
-9,1,3.803
-5,-5,3.804
4,-3,3.805
2,0,3.806
-3,1,3.807
1,4,3.808
10,4,3.809
12,4,3.81
8,-3,3.811
9,-9,3.812
9,-3,3.813
5,0,3.814
0,1,3.815
-8,3,3.816
-20,-1,3.817
-26,-2,3.818
-12,5,3.819
0,11,3.82
10,9,3.821
16,7,3.822
6,1,3.823
-1,-3,3.824
-5,-2,3.825
-8,0,3.826
-8,1,3.827
-9,3,3.828
-7,3,3.829
-9,3,3.83
-23,-2,3.831
-33,-6,3.832
-26,-2,3.833
-12,1,3.834
20,-2,3.835
49,-6,3.836
61,-5,3.837
45,0,3.838
9,4,3.839
-17,6,3.84
-13,10,3.841
11,13,3.842
40,11,3.843
71,6,3.844
102,7,3.845
120,8,3.846
108,2,3.847
74,-6,3.848
34,-8,3.849
-9,-3,3.85
-52,6,3.851
-82,12,3.852
-84,11,3.853
-74,-4,3.854
-63,-20,3.855
-50,-25,3.856
-24,-19,3.857
-1,-7,3.858
3,0,3.859
-3,0,3.86
-5,-1,3.861
-7,0,3.862
-20,1,3.863
-50,0,3.864
-93,-5,3.865
-143,-8,3.866
-168,-4,3.867
-119,5,3.868
-10,7,3.869
83,-3,3.87
111,-14,3.871
128,-12,3.872
187,5,3.873
245,19,3.874
199,17,3.875
44,9,3.876
-99,-15,3.877
-137,-32,3.878
-84,-29,3.879
-11,-24,3.88
40,-11,3.881
71,-1,3.882
96,-1,3.883
109,-1,3.884
87,2,3.885
17,8,3.886
-53,22,3.887
-70,31,3.888
-34,25,3.889
-6,15,3.89
-13,-9,3.891
-29,-23,3.892
-31,-9,3.893
-33,5,3.894
-46,8,3.895
-56,-4,3.896
-46,-17,3.897
-26,-17,3.898
-14,-6,3.899
-12,1,3.9
-19,4,3.901
-35,2,3.902
-58,-6,3.903
-88,-14,3.904
-133,-17,3.905
-166,-11,3.906
-138,-4,3.907
-25,-6,3.908
146,-9,3.909
311,-9,3.91
397,-6,3.911
348,4,3.912
196,24,3.913
33,40,3.914
-107,39,3.915
-175,21,3.916
-213,6,3.917
-212,11,3.918
-111,18,3.919
66,7,3.92
186,-11,3.921
174,-12,3.922
99,0,3.923
45,6,3.924
-8,-3,3.925
-85,-11,3.926
-128,-10,3.927
-80,-6,3.928
3,-3,3.929
35,3,3.93
16,8,3.931
-3,4,3.932
-20,-5,3.933
-60,-12,3.934
-87,-10,3.935
-89,-6,3.936
-99,-8,3.937
-117,-9,3.938
-90,-9,3.939
-7,-8,3.94
65,-3,3.941
89,1,3.942
111,1,3.943
148,-4,3.944
142,-5,3.945
60,3,3.946
-17,12,3.947
-12,15,3.948
52,11,3.949
102,8,3.95
120,4,3.951
118,-2,3.952
100,-3,3.953
68,2,3.954
50,8,3.955
52,5,3.956
43,-1,3.957
3,5,3.958
-37,12,3.959
-61,5,3.96
-96,-10,3.961
-149,-11,3.962
-173,1,3.963
-147,5,3.964
-120,-8,3.965
-129,-11,3.966
-130,-1,3.967
-80,3,3.968
-15,-8,3.969
2,-20,3.97
-19,-13,3.971
-29,-2,3.972
-9,0,3.973
10,-8,3.974
18,-10,3.975
29,-8,3.976
64,-9,3.977
112,-5,3.978
150,1,3.979
155,3,3.98
121,-1,3.981
61,-3,3.982
-7,0,3.983
-62,6,3.984
-80,6,3.985
-45,4,3.986
14,5,3.987
50,8,3.988
48,7,3.989
31,4,3.99
11,4,3.991
-18,5,3.992
-34,6,3.993
-17,-1,3.994
12,-8,3.995
0,-13,3.996
-46,-12,3.997
-50,-3,3.998
15,8,3.999
82,12,4.0
85,11,4.001
48,9,4.002
29,7,4.003
34,4,4.004
18,7,4.005
-33,19,4.006
-85,30,4.007
-88,27,4.008
-49,13,4.009
-12,2,4.01
-3,-6,4.011
-6,-16,4.012
0,-23,4.013
18,-21,4.014
29,-9,4.015
26,-6,4.016
18,-16,4.017
20,-18,4.018
40,-7,4.019
65,4,4.02
67,7,4.021
39,9,4.022
3,13,4.023
-14,10,4.024
-15,0,4.025
-19,-3,4.026
-29,1,4.027
-38,3,4.028
-40,-5,4.029
-34,-12,4.03
-23,-9,4.031
-10,-2,4.032
-4,3,4.033
-9,-1,4.034
-13,-6,4.035
-11,-11,4.036
-10,-12,4.037
-12,-7,4.038
-10,-1,4.039
-9,0,4.04
-32,0,4.041
-78,2,4.042
-105,4,4.043
-85,5,4.044
-37,5,4.045
9,2,4.046
69,-4,4.047
162,-8,4.048
249,-2,4.049
257,6,4.05
172,7,4.051
51,-1,4.052
-41,-2,4.053
-95,1,4.054
-104,-1,4.055
-71,-6,4.056
-30,-4,4.057
-22,8,4.058
-38,9,4.059
-39,-4,4.06
-21,-8,4.061
-18,6,4.062
-39,16,4.063
-52,1,4.064
-39,-14,4.065
-17,-9,4.066
0,1,4.067
17,-2,4.068
31,-10,4.069
30,-6,4.07
17,4,4.071
11,5,4.072
13,3,4.073
7,5,4.074
-3,5,4.075
-9,-3,4.076
-6,-15,4.077
2,-16,4.078
21,-11,4.079
50,-11,4.08
69,-12,4.081
57,-6,4.082
23,1,4.083
-14,1,4.084
-40,-2,4.085
-43,3,4.086
-19,16,4.087
8,21,4.088
10,18,4.089
-9,19,4.09
-19,27,4.091
-11,32,4.092
-7,32,4.093
-19,23,4.094
-18,12,4.095
5,3,4.096
34,-5,4.097
44,-9,4.098
45,-20,4.099
51,-37,4.1
51,-50,4.101
32,-51,4.102
-4,-46,4.103
-49,-42,4.104
-93,-31,4.105
-114,-14,4.106
-91,2,4.107
-32,11,4.108
26,16,4.109
58,21,4.11
68,21,4.111
66,16,4.112
49,15,4.113
15,16,4.114
-15,17,4.115
-19,8,4.116
-9,-5,4.117
-8,-8,4.118
-16,-1,4.119
-7,5,4.12
21,6,4.121
42,4,4.122
33,4,4.123
14,6,4.124
22,8,4.125
64,7,4.126
99,5,4.127
95,3,4.128
59,4,4.129
21,6,4.13
-7,7,4.131
-31,4,4.132
-50,3,4.133
-52,-1,4.134
-36,-5,4.135
-23,-9,4.136
-28,-14,4.137
-39,-13,4.138
-39,-9,4.139
-27,-7,4.14
-20,-2,4.141
-21,11,4.142
-19,40,4.143
-8,109,4.144
2,228,4.145
2,333,4.146
-3,306,4.147
-5,105,4.148
-4,-156,4.149
-5,-322,4.15
-8,-356,4.151
-5,-337,4.152
6,-312,4.153
15,-253,4.154
16,-153,4.155
5,-66,4.156
-9,-31,4.157
-16,-4,4.158
-11,42,4.159
-4,77,4.16
-2,73,4.161
5,61,4.162
27,71,4.163
47,86,4.164
41,89,4.165
17,97,4.166
-1,118,4.167
-3,117,4.168
-6,79,4.169
-15,36,4.17
-15,22,4.171
-6,27,4.172
0,36,4.173
1,42,4.174
11,32,4.175
19,13,4.176
21,-36,4.177
22,-68,4.178
20,-48,4.179
16,-32,4.18
8,-32,4.181
1,-32,4.182
0,-27,4.183
-7,-22,4.184
-27,-19,4.185
-44,-12,4.186
-50,8,4.187
-52,21,4.188
-35,10,4.189
-9,1,4.19
41,0,4.191
80,-2,4.192
80,0,4.193
70,2,4.194
29,4,4.195
13,1,4.196
20,-9,4.197
27,-14,4.198
21,-5,4.199
4,17,4.2
-14,46,4.201
-20,59,4.202
-15,39,4.203
-22,-10,4.204
-47,-47,4.205
-57,-39,4.206
-35,14,4.207
-6,70,4.208
2,85,4.209
0,45,4.21
8,-12,4.211
18,-26,4.212
8,0,4.213
-11,5,4.214
-14,-56,4.215
3,-141,4.216
28,-165,4.217
58,-118,4.218
83,-61,4.219
76,-27,4.22
25,4,4.221
-23,37,4.222
-16,46,4.223
31,32,4.224
50,27,4.225
9,35,4.226
-54,34,4.227
-87,21,4.228
-78,20,4.229
-44,27,4.23
-1,22,4.231
32,8,4.232
47,10,4.233
-25,22,4.234
-3,22,4.235
19,3,4.236
48,-9,4.237
69,-6,4.238
70,-1,4.239
66,0,4.24
45,2,4.241
25,8,4.242
7,3,4.243
-8,-8,4.244
-13,-11,4.245
-18,-10,4.246
-18,-10,4.247
-17,-9,4.248
-11,-2,4.249
-9,7,4.25
-16,-1,4.251
-25,-14,4.252
-35,-14,4.253
-47,-9,4.254
-11,-5,4.255
27,-1,4.256
75,1,4.257
111,3,4.258
112,1,4.259
105,0,4.26
71,2,4.261
38,4,4.262
7,4,4.263
-18,4,4.264
-27,2,4.265
-35,0,4.266
-36,0,4.267
-34,-1,4.268
-24,-2,4.269
-20,-3,4.27
-32,-1,4.271
-46,0,4.272
-64,2,4.273
-72,3,4.274
-29,0,4.275
27,-5,4.276
75,-9,4.277
105,-8,4.278
118,-3,4.279
115,3,4.28
86,10,4.281
26,11,4.282
-42,7,4.283
-74,0,4.284
-57,-1,4.285
-28,3,4.286
-26,7,4.287
-34,7,4.288
-25,1,4.289
-4,-5,4.29
6,-9,4.291
0,-10,4.292
1,-8,4.293
11,-7,4.294
15,-7,4.295
0,-4,4.296
-17,-1,4.297
-21,2,4.298
-12,1,4.299
-4,-2,4.3
-3,-7,4.301
-3,-5,4.302
-8,0,4.303
-14,3,4.304
-19,0,4.305
-25,-1,4.306
-35,4,4.307
-42,9,4.308
-33,3,4.309
1,-9,4.31
51,-20,4.311
93,-19,4.312
113,-8,4.313
26,3,4.314
28,12,4.315
28,18,4.316
13,11,4.317
4,7,4.318
11,16,4.319
9,25,4.32
-13,30,4.321
-37,27,4.322
-55,1,4.323
-64,-22,4.324
-33,-39,4.325
-6,-47,4.326
8,-25,4.327
26,-9,4.328
51,-9,4.329
59,-5,4.33
4,7,4.331
-41,13,4.332
-66,2,4.333
14,-10,4.334
15,-18,4.335
15,-14,4.336
7,-5,4.337
2,5,4.338
6,5,4.339
5,-4,4.34
-8,-6,4.341
-21,3,4.342
-31,13,4.343
-36,12,4.344
-19,5,4.345
-4,2,4.346
4,2,4.347
14,-2,4.348
28,-4,4.349
32,3,4.35
2,12,4.351
-23,14,4.352
-37,13,4.353
-41,8,4.354
-4,0,4.355
30,-13,4.356
42,-19,4.357
47,-10,4.358
60,2,4.359
68,8,4.36
52,10,4.361
26,12,4.362
13,13,4.363
9,10,4.364
2,10,4.365
-6,12,4.366
-4,5,4.367
2,-10,4.368
1,-20,4.369
-2,-15,4.37
3,-8,4.371
6,-7,4.372
-8,-7,4.373
-32,-2,4.374
-44,2,4.375
-43,-2,4.376
-41,-8,4.377
-44,-8,4.378
-48,-5,4.379
-46,1,4.38
-36,14,4.381
-12,27,4.382
23,21,4.383
52,2,4.384
59,-7,4.385
50,2,4.386
41,9,4.387
39,-5,4.388
39,-23,4.389
37,-28,4.39
33,-23,4.391
30,-21,4.392
23,-21,4.393
7,-17,4.394
-10,-3,4.395
-20,6,4.396
-22,4,4.397
-24,6,4.398
-24,10,4.399
-17,12,4.4
-8,8,4.401
-14,3,4.402
-38,4,4.403
-69,0,4.404
-82,-5,4.405
-67,-6,4.406
-26,-2,4.407
29,1,4.408
83,-2,4.409
113,-6,4.41
108,-4,4.411
81,3,4.412
52,11,4.413
26,18,4.414
-4,22,4.415
-33,22,4.416
-55,6,4.417
-60,-7,4.418
-50,-7,4.419
-29,-5,4.42
-6,0,4.421
5,4,4.422
-5,-2,4.423
-21,-7,4.424
-19,-2,4.425
5,1,4.426
25,-3,4.427
23,-5,4.428
11,3,4.429
7,8,4.43
19,5,4.431
31,1,4.432
37,-3,4.433
33,-7,4.434
25,-4,4.435
18,0,4.436
9,-9,4.437
-5,-20,4.438
-23,-20,4.439
-36,-7,4.44
-35,4,4.441
-24,-1,4.442
-14,-11,4.443
-3,-10,4.444
8,0,4.445
22,7,4.446
32,5,4.447
41,3,4.448
46,5,4.449
45,10,4.45
32,13,4.451
9,12,4.452
-7,10,4.453
-16,4,4.454
-19,-2,4.455
-22,-6,4.456
-22,-8,4.457
-18,-7,4.458
-13,-3,4.459
-12,1,4.46
-8,3,4.461
0,0,4.462
7,-8,4.463
6,-9,4.464
3,-2,4.465
7,9,4.466
8,11,4.467
-3,2,4.468
-18,-3,4.469
-24,3,4.47
-16,11,4.471
-8,11,4.472
-9,9,4.473
-17,19,4.474
-18,58,4.475
-9,106,4.476
10,110,4.477
39,35,4.478
66,-83,4.479
68,-156,4.48
43,-143,4.481
22,-86,4.482
28,-45,4.483
37,-21,4.484
9,5,4.485
-38,23,4.486
-56,14,4.487
-38,-1,4.488
-26,3,4.489
-35,15,4.49
-33,12,4.491
-7,4,4.492
14,5,4.493
9,8,4.494
-1,5,4.495
2,5,4.496
6,9,4.497
0,10,4.498
0,5,4.499
10,3,4.5
8,9,4.501
-12,11,4.502
-24,6,4.503
-18,6,4.504
-4,9,4.505
5,5,4.506
19,-1,4.507
42,0,4.508
62,6,4.509
65,5,4.51
58,-1,4.511
40,-3,4.512
18,0,4.513
0,-1,4.514
-10,-6,4.515
-11,-4,4.516
-14,1,4.517
-34,-2,4.518
-62,-19,4.519
-73,-33,4.52
-49,-27,4.521
6,-7,4.522
57,6,4.523
75,7,4.524
68,1,4.525
66,6,4.526
73,19,4.527
58,30,4.528
14,28,4.529
-21,14,4.53
-17,-5,4.531
10,-22,4.532
23,-27,4.533
7,-18,4.534
-10,-8,4.535
-23,-2,4.536
-23,-7,4.537
-23,-10,4.538
-23,-7,4.539
-23,-4,4.54
-22,1,4.541
-21,4,4.542
-21,1,4.543
-20,-1,4.544
-16,0,4.545
-13,2,4.546
-15,1,4.547
-15,1,4.548
-8,7,4.549
-2,12,4.55
-4,14,4.551
-6,14,4.552
-6,7,4.553
-5,0,4.554
-3,-6,4.555
0,-10,4.556
3,-16,4.557
2,-18,4.558
3,-15,4.559
9,-5,4.56
14,5,4.561
11,7,4.562
7,2,4.563
12,0,4.564
17,4,4.565
12,9,4.566
-1,8,4.567
-9,4,4.568
-5,1,4.569
1,1,4.57
6,-1,4.571
10,-3,4.572
14,-3,4.573
15,-2,4.574
13,1,4.575
13,3,4.576
17,-2,4.577
20,-7,4.578
20,-12,4.579
19,-16,4.58
16,-14,4.581
13,-7,4.582
11,17,4.583
8,50,4.584
2,112,4.585
-2,133,4.586
-1,27,4.587
-2,-64,4.588
-11,-116,4.589
-18,-142,4.59
-15,-92,4.591
-11,-52,4.592
-2,-38,4.593
7,-17,4.594
13,16,4.595
10,18,4.596
0,2,4.597
-8,8,4.598
-6,24,4.599
-2,22,4.6
-5,17,4.601
-16,33,4.602
-20,49,4.603
-10,40,4.604
9,11,4.605
25,-8,4.606
25,-11,4.607
16,-8,4.608
7,-3,4.609
10,3,4.61
16,4,4.611
13,0,4.612
6,-1,4.613
4,-1,4.614
8,-3,4.615
7,-10,4.616
0,-16,4.617
-3,-11,4.618
3,-6,4.619
8,-6,4.62
-1,-1,4.621
-14,15,4.622
-15,23,4.623
-7,12,4.624
-6,-3,4.625
-8,-3,4.626
-6,4,4.627
1,2,4.628
3,-5,4.629
0,-1,4.63
-2,17,4.631
-1,32,4.632
4,34,4.633
6,19,4.634
3,-5,4.635
-9,-28,4.636
-27,-30,4.637
-35,-2,4.638
-23,38,4.639
4,56,4.64
27,40,4.641
29,-8,4.642
21,-69,4.643
11,-105,4.644
4,-84,4.645
3,-9,4.646
9,82,4.647
17,150,4.648
24,161,4.649
25,95,4.65
23,-19,4.651
20,-115,4.652
14,-142,4.653
4,-112,4.654
-2,-64,4.655
-4,-23,4.656
-4,-17,4.657
-4,-55,4.658
-3,-93,4.659
-1,-56,4.66
-2,49,4.661
-5,111,4.662
-4,63,4.663
0,-33,4.664
4,-83,4.665
3,-77,4.666
0,-53,4.667
0,-22,4.668
2,20,4.669
3,55,4.67
8,61,4.671
12,57,4.672
12,63,4.673
0,70,4.674
-13,56,4.675
-20,21,4.676
-13,-11,4.677
-1,-18,4.678
12,-6,4.679
17,7,4.68
12,10,4.681
6,8,4.682
12,9,4.683
20,10,4.684
19,5,4.685
10,-5,4.686
-1,-6,4.687
-10,2,4.688
-20,7,4.689
-33,4,4.69
-38,-2,4.691
-20,2,4.692
9,22,4.693
30,55,4.694
32,75,4.695
22,37,4.696
17,-62,4.697
17,-147,4.698
15,-151,4.699
5,-84,4.7
-4,-15,4.701
-3,19,4.702
-1,43,4.703
-5,78,4.704
-16,107,4.705
-20,99,4.706
-10,68,4.707
0,75,4.708
-2,181,4.709
-7,375,4.71
-7,521,4.711
0,440,4.712
4,129,4.713
2,-218,4.714
-1,-281,4.715
-4,-88,4.716
-5,-80,4.717
-8,-514,4.718
-4,-1030,4.719
0,-1065,4.72
0,-631,4.721
-4,-233,4.722
-4,-111,4.723
0,-23,4.724
1,197,4.725
0,384,4.726
1,412,4.727
10,403,4.728
20,407,4.729
26,302,4.73
35,118,4.731
44,57,4.732
47,104,4.733
39,22,4.734
29,-218,4.735
21,-340,4.736
12,-203,4.737
2,-15,4.738
1,45,4.739
8,76,4.74
9,186,4.741
2,283,4.742
-4,279,4.743
-2,257,4.744
0,277,4.745
-1,234,4.746
-5,51,4.747
-6,-125,4.748
-8,-58,4.749
-12,274,4.75
-14,552,4.751
-10,379,4.752
-5,-194,4.753
-5,-759,4.754
-12,-798,4.755
-19,-320,4.756
-22,204,4.757
-22,406,4.758
-18,245,4.759
-11,-129,4.76
-9,-486,4.761
-18,-567,4.762
-23,-342,4.763
-15,-100,4.764
3,-60,4.765
14,-88,4.766
16,-5,4.767
18,96,4.768
23,61,4.769
24,-16,4.77
20,20,4.771
20,116,4.772
21,148,4.773
17,140,4.774
9,144,4.775
-2,94,4.776
-10,-42,4.777
-12,-115,4.778
-6,-37,4.779
3,71,4.78
9,83,4.781
8,55,4.782
5,73,4.783
2,88,4.784
-7,42,4.785
-23,-9,4.786
-37,-12,4.787
-36,-14,4.788
-17,-50,4.789
20,-65,4.79
62,-28,4.791
89,6,4.792
89,4,4.793
63,-4,4.794
30,11,4.795
-1,32,4.796
-30,47,4.797
-56,92,4.798
-72,159,4.799
-69,185,4.8
-47,124,4.801
-15,-4,4.802
3,-154,4.803
1,-261,4.804
-7,-255,4.805
-6,-120,4.806
3,43,4.807
9,116,4.808
8,87,4.809
8,42,4.81
10,48,4.811
10,116,4.812
12,248,4.813
16,422,4.814
26,472,4.815
31,221,4.816
28,-240,4.817
24,-554,4.818
24,-511,4.819
23,-283,4.82
17,-144,4.821
11,-111,4.822
6,-53,4.823
3,30,4.824
-2,40,4.825
-6,17,4.826
-6,96,4.827
-1,255,4.828
6,296,4.829
10,99,4.83
8,-211,4.831
5,-394,4.832
6,-343,4.833
5,-140,4.834
2,29,4.835
-4,72,4.836
-8,57,4.837
-9,82,4.838
-6,139,4.839
1,172,4.84
6,169,4.841
1,128,4.842
-8,36,4.843
-12,-82,4.844
-7,-126,4.845
-3,-64,4.846
-2,16,4.847
-3,35,4.848
-2,34,4.849
-2,66,4.85
-6,91,4.851
-6,39,4.852
1,-61,4.853
11,-152,4.854
14,-187,4.855
6,-158,4.856
0,-72,4.857
3,52,4.858
15,150,4.859
23,158,4.86
19,69,4.861
8,-62,4.862
1,-161,4.863
0,-179,4.864
2,-101,4.865
2,65,4.866
0,259,4.867
-4,348,4.868
-9,218,4.869
-11,-33,4.87
-10,-149,4.871
-10,-50,4.872
-9,26,4.873
-10,-126,4.874
-9,-357,4.875
-9,-370,4.876
-12,-177,4.877
-11,-38,4.878
-4,-37,4.879
2,-25,4.88
4,51,4.881
4,79,4.882
5,33,4.883
7,28,4.884
9,79,4.885
14,96,4.886
21,65,4.887
29,66,4.888
26,105,4.889
20,109,4.89
17,80,4.891
15,116,4.892
11,227,4.893
0,289,4.894
-5,201,4.895
-11,78,4.896
-16,-146,4.897
-19,-276,4.898
-13,-118,4.899
-6,29,4.9
0,146,4.901
4,175,4.902
4,-66,4.903
4,-254,4.904
2,-282,4.905
1,-270,4.906
0,-140,4.907
0,-39,4.908
1,-25,4.909
6,-3,4.91
14,42,4.911
20,71,4.912
20,51,4.913
19,34,4.914
5,37,4.915
-7,44,4.916
-12,50,4.917
-9,70,4.918
0,79,4.919
8,46,4.92
9,4,4.921
3,0,4.922
-1,26,4.923
-4,37,4.924
-7,24,4.925
-7,6,4.926
0,-3,4.927
13,14,4.928
19,65,4.929
17,112,4.93
12,102,4.931
11,44,4.932
9,-9,4.933
0,-69,4.934
-5,-147,4.935
-10,-205,4.936
-14,-173,4.937
-17,-65,4.938
-11,20,4.939
0,27,4.94
7,-27,4.941
1,-107,4.942
-6,-168,4.943
-7,-135,4.944
-2,3,4.945
-1,148,4.946
0,197,4.947
2,162,4.948
2,77,4.949
1,-79,4.95
2,-267,4.951
5,-310,4.952
3,-132,4.953
-1,124,4.954
0,213,4.955
4,95,4.956
4,-60,4.957
2,-124,4.958
8,-112,4.959
18,-58,4.96
22,19,4.961
18,81,4.962
14,98,4.963
15,102,4.964
14,125,4.965
11,135,4.966
10,88,4.967
13,12,4.968
12,-27,4.969
6,-13,4.97
0,23,4.971
-3,57,4.972
-4,79,4.973
-7,73,4.974
-8,28,4.975
-8,-31,4.976
-8,-53,4.977
-9,34,4.978
-9,243,4.979
-5,433,4.98
-4,349,4.981
-11,-85,4.982
-21,-539,4.983
-29,-592,4.984
-27,-259,4.985
-16,38,4.986
4,48,4.987
27,-60,4.988
46,-95,4.989
51,-95,4.99
47,-115,4.991
38,-64,4.992
31,58,4.993
19,120,4.994
2,76,4.995
-15,57,4.996
-22,128,4.997
-16,177,4.998
-2,145,4.999
4,101,5.0
-4,55,5.001
-18,-64,5.002
-22,-196,5.003
-16,-188,5.004
-4,-60,5.005
9,7,5.006
20,-37,5.007
25,-75,5.008
24,-52,5.009
18,-34,5.01
9,-33,5.011
0,5,5.012
-1,66,5.013
-3,63,5.014
-5,9,5.015
-10,-28,5.016
-15,-11,5.017
-16,8,5.018
-11,35,5.019
-3,64,5.02
3,96,5.021
6,121,5.022
7,127,5.023
9,131,5.024
12,125,5.025
16,86,5.026
15,-52,5.027
12,-141,5.028
10,-79,5.029
7,-35,5.03
5,-49,5.031
-2,-81,5.032
-13,-165,5.033
-22,-216,5.034
-22,-131,5.035
-11,-38,5.036
0,50,5.037
5,217,5.038
9,444,5.039
14,527,5.04
18,263,5.041
18,-244,5.042
16,-588,5.043
9,-486,5.044
-5,-111,5.045
-18,125,5.046
-19,79,5.047
-8,-31,5.048
-3,-24,5.049
-10,22,5.05
-11,-11,5.051
2,-59,5.052
16,-26,5.053
15,44,5.054
10,57,5.055
14,18,5.056
18,-11,5.057
13,-5,5.058
7,33,5.059
14,111,5.06
25,184,5.061
21,147,5.062
8,-15,5.063
1,-170,5.064
2,-180,5.065
0,-77,5.066
-6,17,5.067
-9,56,5.068
-9,67,5.069
-12,56,5.07
-11,7,5.071
0,-39,5.072
14,-17,5.073
16,59,5.074
6,112,5.075
-4,146,5.076
-8,235,5.077
-10,342,5.078
-8,240,5.079
-1,-158,5.08
3,-571,5.081
0,-622,5.082
-8,-312,5.083
-8,-7,5.084
0,56,5.085
6,5,5.086
7,25,5.087
11,81,5.088
18,62,5.089
22,0,5.09
17,-10,5.091
13,29,5.092
12,71,5.093
10,108,5.094
4,119,5.095
-5,45,5.096
-13,-90,5.097
-17,-158,5.098
-16,-106,5.099
-11,-31,5.1
-9,-5,5.101
-13,6,5.102
-16,30,5.103
-12,27,5.104
-7,11,5.105
-7,60,5.106
-8,159,5.107
-1,190,5.108
10,116,5.109
17,25,5.11
17,-13,5.111
17,-23,5.112
20,-29,5.113
18,-12,5.114
14,47,5.115
10,127,5.116
12,181,5.117
13,147,5.118
10,-17,5.119
7,-223,5.12
7,-286,5.121
6,-157,5.122
10,-21,5.123
10,-26,5.124
-3,-89,5.125
-13,-75,5.126
-7,-22,5.127
0,-27,5.128
14,-48,5.129
22,14,5.13
12,133,5.131
3,228,5.132
1,273,5.133
-2,237,5.134
-8,51,5.135
-16,-240,5.136
-16,-416,5.137
-7,-324,5.138
3,-106,5.139
8,4,5.14
0,-6,5.141
-10,6,5.142
-11,80,5.143
-3,118,5.144
0,51,5.145
-4,-64,5.146
-5,-118,5.147
2,-33,5.148
8,154,5.149
4,283,5.15
0,209,5.151
0,0,5.152
5,-131,5.153
12,-109,5.154
13,-37,5.155
11,-53,5.156
4,-133,5.157
-1,-151,5.158
2,-67,5.159
11,48,5.16
15,119,5.161
10,127,5.162
7,103,5.163
11,86,5.164
13,87,5.165
8,79,5.166
4,51,5.167
7,23,5.168
12,10,5.169
9,0,5.17
4,-17,5.171
1,-24,5.172
0,-13,5.173
-6,-14,5.174
-13,-39,5.175
-15,-60,5.176
-12,-57,5.177
-5,-54,5.178
8,-73,5.179
22,-80,5.18
25,-39,5.181
11,18,5.182
-5,35,5.183
-8,18,5.184
-3,24,5.185
-6,51,5.186
-14,53,5.187
-14,25,5.188
-9,14,5.189
-7,32,5.19
-8,19,5.191
-4,-55,5.192
0,-134,5.193
-5,-151,5.194
-18,-93,5.195
-28,-20,5.196
-28,12,5.197
-18,15,5.198
0,20,5.199
14,31,5.2
13,29,5.201
8,11,5.202
16,-5,5.203
33,4,5.204
40,58,5.205
34,136,5.206
31,173,5.207
35,113,5.208
33,-10,5.209
18,-89,5.21
9,-72,5.211
8,-18,5.212
10,-5,5.213
6,-28,5.214
7,-42,5.215
9,-30,5.216
2,-14,5.217
-7,4,5.218
-3,34,5.219
9,51,5.22
10,26,5.221
-5,-33,5.222
-14,-83,5.223
-10,-87,5.224
-9,-35,5.225
-19,39,5.226
-25,66,5.227
-19,-2,5.228
-9,-114,5.229
-9,-148,5.23
-14,-57,5.231
-18,61,5.232
-16,88,5.233
-8,41,5.234
0,19,5.235
-1,14,5.236
-7,58,5.237
-7,86,5.238
5,66,5.239
16,48,5.24
13,37,5.241
7,23,5.242
17,-1,5.243
36,-16,5.244
48,1,5.245
41,9,5.246
28,-8,5.247
27,-23,5.248
35,-23,5.249
37,-19,5.25
28,-9,5.251
14,-2,5.252
7,-2,5.253
4,-4,5.254
-2,-22,5.255
-15,-47,5.256
-24,-65,5.257
-26,-59,5.258
-24,-36,5.259
-30,-10,5.26
-41,4,5.261
-43,10,5.262
-27,13,5.263
-3,12,5.264
10,7,5.265
4,-2,5.266
-4,-14,5.267
1,-29,5.268
14,-30,5.269
19,-3,5.27
15,41,5.271
18,59,5.272
31,41,5.273
38,11,5.274
29,19,5.275
6,59,5.276
-11,75,5.277
-11,52,5.278
4,23,5.279
13,8,5.28
2,-16,5.281
-19,-65,5.282
-30,-100,5.283
-26,-81,5.284
-23,-35,5.285
-25,-20,5.286
-26,-37,5.287
-15,-28,5.288
1,23,5.289
15,65,5.29
24,50,5.291
27,14,5.292
21,12,5.293
7,38,5.294
-4,46,5.295
-5,32,5.296
-4,28,5.297
-3,43,5.298
3,36,5.299
15,-3,5.3
21,-30,5.301
13,-20,5.302
4,-3,5.303
9,-8,5.304
24,-20,5.305
32,-17,5.306
29,-6,5.307
20,-5,5.308
2,-6,5.309
-18,3,5.31
-30,12,5.311
-27,-1,5.312
-21,-34,5.313
-22,-83,5.314
-25,-132,5.315
-28,-165,5.316
-32,-149,5.317
-36,-67,5.318
-33,45,5.319
-16,119,5.32
7,120,5.321
24,81,5.322
39,54,5.323
56,55,5.324
66,57,5.325
63,42,5.326
44,29,5.327
17,29,5.328
-4,23,5.329
-6,-6,5.33
8,-48,5.331
23,-75,5.332
28,-70,5.333
21,-37,5.334
16,10,5.335
15,44,5.336
11,44,5.337
-6,29,5.338
-28,23,5.339
-45,25,5.34
-48,12,5.341
-40,-7,5.342
-25,-14,5.343
0,-16,5.344
30,-40,5.345
42,-87,5.346
25,-119,5.347
-2,-100,5.348
-9,-44,5.349
12,9,5.35
40,42,5.351
53,69,5.352
51,101,5.353
47,125,5.354
46,119,5.355
39,86,5.356
5,48,5.357
-50,20,5.358
-99,1,5.359
-112,-10,5.36
-93,-5,5.361
-62,7,5.362
-31,9,5.363
3,-2,5.364
40,-9,5.365
66,-9,5.366
72,-11,5.367
66,-30,5.368
55,-60,5.369
38,-92,5.37
22,-112,5.371
10,-106,5.372
0,-66,5.373
-14,-7,5.374
-18,46,5.375
-9,66,5.376
0,50,5.377
-2,25,5.378
-9,8,5.379
-7,0,5.38
-3,-8,5.381
-7,-19,5.382
-16,-20,5.383
-20,-15,5.384
-22,-20,5.385
-30,-38,5.386
-43,-43,5.387
-50,-18,5.388
-40,5,5.389
-17,-17,5.39
6,-74,5.391
16,-91,5.392
14,-31,5.393
15,43,5.394
27,52,5.395
41,53,5.396
37,25,5.397
20,18,5.398
5,74,5.399
2,109,5.4
11,77,5.401
19,49,5.402
13,35,5.403
-17,10,5.404
-56,-49,5.405
-78,-113,5.406
-69,-189,5.407
-48,-216,5.408
-49,-95,5.409
-71,17,5.41
-72,105,5.411
-11,163,5.412
91,131,5.413
176,110,5.414
190,120,5.415
136,101,5.416
81,63,5.417
65,43,5.418
76,20,5.419
76,-27,5.42
46,-48,5.421
6,-1,5.422
-21,60,5.423
-33,36,5.424
-41,-100,5.425
-51,-288,5.426
-56,-410,5.427
-57,-333,5.428
-68,-30,5.429
-85,308,5.43
-76,414,5.431
-25,260,5.432
33,92,5.433
58,62,5.434
52,101,5.435
38,65,5.436
27,-21,5.437
11,-57,5.438
-7,-48,5.439
-11,-46,5.44
0,-37,5.441
25,6,5.442
57,23,5.443
76,-32,5.444
49,-97,5.445
-8,-99,5.446
-50,-72,5.447
-58,-79,5.448
-65,-89,5.449
-84,-49,5.45
-83,6,5.451
-47,18,5.452
-14,1,5.453
-5,3,5.454
1,23,5.455
28,20,5.456
53,-9,5.457
51,-23,5.458
34,-18,5.459
26,-39,5.46
18,-105,5.461
-4,-189,5.462
-25,-231,5.463
-27,-183,5.464
-19,-45,5.465
-20,117,5.466
-21,227,5.467
-12,256,5.468
7,231,5.469
17,184,5.47
13,123,5.471
2,68,5.472
1,39,5.473
14,29,5.474
32,15,5.475
35,-7,5.476
21,-30,5.477
11,-51,5.478
28,-77,5.479
56,-109,5.48
61,-125,5.481
32,-108,5.482
-12,-65,5.483
-51,-15,5.484
-69,16,5.485
-42,13,5.486
26,-14,5.487
81,-28,5.488
54,-4,5.489
-45,42,5.49
-125,75,5.491
-111,74,5.492
-38,48,5.493
26,10,5.494
36,-32,5.495
6,-64,5.496
-22,-62,5.497
-36,4,5.498
-34,116,5.499
-10,202,5.5
36,199,5.501
81,123,5.502
98,43,5.503
94,6,5.504
90,-1,5.505
84,-16,5.506
63,-64,5.507
33,-150,5.508
26,-249,5.509
35,-294,5.51
22,-215,5.511
-24,-28,5.512
-56,136,5.513
-48,175,5.514
-22,93,5.515
-24,9,5.516
-44,12,5.517
-40,77,5.518
-10,113,5.519
2,89,5.52
-21,48,5.521
-54,28,5.522
-57,20,5.523
-29,2,5.524
-5,-26,5.525
-13,-54,5.526
-34,-73,5.527
-29,-77,5.528
25,-62,5.529
83,-37,5.53
93,-9,5.531
62,11,5.532
37,24,5.533
41,22,5.534
49,12,5.535
23,0,5.536
-30,-11,5.537
-81,-27,5.538
-135,-44,5.539
-200,-45,5.54
-235,-29,5.541
-174,-17,5.542
-32,-30,5.543
82,-65,5.544
107,-94,5.545
100,-93,5.546
143,-50,5.547
210,32,5.548
218,118,5.549
162,157,5.55
107,122,5.551
74,54,5.552
42,18,5.553
-1,24,5.554
-25,32,5.555
-35,13,5.556
-58,-15,5.557
-109,-23,5.558
-171,-22,5.559
-214,-27,5.56
-202,-29,5.561
-113,-15,5.562
20,-1,5.563
125,5,5.564
176,14,5.565
194,33,5.566
181,44,5.567
99,32,5.568
-18,15,5.569
-82,15,5.57
-62,20,5.571
-20,9,5.572
4,-10,5.573
40,-26,5.574
81,-31,5.575
48,-34,5.576
-69,-57,5.577
-160,-116,5.578
-130,-229,5.579
-35,-370,5.58
18,-451,5.581
13,-373,5.582
-5,-119,5.583
-14,191,5.584
-23,389,5.585
-12,406,5.586
22,333,5.587
44,290,5.588
28,278,5.589
-1,233,5.59
-19,149,5.591
-41,85,5.592
-73,68,5.593
-86,52,5.594
-51,16,5.595
4,-18,5.596
32,-30,5.597
37,-20,5.598
55,0,5.599
88,19,5.6
102,9,5.601
77,-37,5.602
34,-81,5.603
2,-86,5.604
-3,-69,5.605
11,-72,5.606
25,-89,5.607
28,-90,5.608
19,-76,5.609
0,-75,5.61
-24,-89,5.611
-48,-103,5.612
-56,-114,5.613
-44,-126,5.614
-29,-116,5.615
-16,-93,5.616
-14,-34,5.617
-11,14,5.618
-2,26,5.619
0,38,5.62
-22,54,5.621
-38,65,5.622
-30,61,5.623
-15,58,5.624
17,61,5.625
46,59,5.626
68,41,5.627
77,28,5.628
47,31,5.629
10,27,5.63
-47,0,5.631
-87,-22,5.632
-77,-27,5.633
-69,-32,5.634
-75,-43,5.635
-81,-48,5.636
-67,-33,5.637
-47,-12,5.638
-32,-8,5.639
9,-10,5.64
87,0,5.641
145,14,5.642
122,14,5.643
61,8,5.644
56,13,5.645
115,24,5.646
138,20,5.647
77,2,5.648
-1,-11,5.649
-17,-5,5.65
14,11,5.651
32,23,5.652
24,23,5.653
15,9,5.654
11,-14,5.655
2,-37,5.656
-8,-48,5.657
-10,-30,5.658
-12,11,5.659
-23,48,5.66
-33,56,5.661
-31,41,5.662
-22,24,5.663
-20,14,5.664
-19,8,5.665
-18,2,5.666
-21,-5,5.667
-32,-19,5.668
-39,-46,5.669
-34,-66,5.67
-24,-50,5.671
-19,7,5.672
-13,61,5.673
-7,73,5.674
-6,51,5.675
-14,30,5.676
-17,25,5.677
-13,23,5.678
-7,10,5.679
-5,-1,5.68
-5,0,5.681
-5,7,5.682
-8,4,5.683
-12,-5,5.684
-13,-8,5.685
-8,-10,5.686
0,-16,5.687
13,-23,5.688
29,-21,5.689
43,-13,5.69
50,-11,5.691
45,-12,5.692
35,-9,5.693
18,-8,5.694
4,-7,5.695
-6,-4,5.696
0,1,5.697
6,7,5.698
16,8,5.699
26,9,5.7
34,3,5.701
38,-1,5.702
30,-1,5.703
15,-2,5.704
-18,-2,5.705
-42,1,5.706
-32,9,5.707
-27,13,5.708
-37,4,5.709
-40,-4,5.71
-17,-12,5.711
12,-18,5.712
58,-18,5.713
93,-16,5.714
71,-13,5.715
36,-9,5.716
19,-9,5.717
14,-8,5.718
13,-6,5.719
18,-5,5.72
19,-5,5.721
2,-3,5.722
-24,0,5.723
-28,-3,5.724
-6,-7,5.725
11,-3,5.726
7,6,5.727
2,11,5.728
13,9,5.729
18,7,5.73
-1,9,5.731
-24,8,5.732
-25,6,5.733
-15,5,5.734
-13,4,5.735
-23,0,5.736
-27,-7,5.737
-18,-5,5.738
-9,-1,5.739
-8,0,5.74
-15,2,5.741
-20,6,5.742
-22,7,5.743
-20,3,5.744
-18,1,5.745
-19,5,5.746
-23,2,5.747
-26,-4,5.748
-23,-6,5.749
-17,0,5.75
-6,4,5.751
12,0,5.752
33,-2,5.753
51,-3,5.754
65,-1,5.755
72,0,5.756
56,-3,5.757
42,-7,5.758
32,-13,5.759
23,-16,5.76
16,-5,5.761
6,5,5.762
-11,9,5.763
-25,14,5.764
-23,18,5.765
-21,21,5.766
-17,24,5.767
-5,28,5.768
25,36,5.769
44,35,5.77
26,5,5.771
11,-18,5.772
7,-24,5.773
3,-24,5.774
-11,-7,5.775
-34,-1,5.776
-37,-4,5.777
-18,-4,5.778
-12,-6,5.779
-27,-10,5.78
-38,-8,5.781
-24,0,5.782
5,7,5.783
29,5,5.784
45,5,5.785
55,10,5.786
51,11,5.787
28,4,5.788
3,-6,5.789
1,-9,5.79
20,-9,5.791
32,-9,5.792
32,-7,5.793
13,9,5.794
13,11,5.795
13,10,5.796
9,0,5.797
6,-8,5.798
4,-8,5.799
1,-8,5.8
-4,-8,5.801
-6,-8,5.802
0,-11,5.803
8,-12,5.804
26,-4,5.805
44,3,5.806
56,11,5.807
63,17,5.808
55,18,5.809
47,19,5.81
36,17,5.811
25,14,5.812
13,8,5.813
-10,9,5.814
-10,11,5.815
-12,10,5.816
-24,0,5.817
-36,-8,5.818
-46,-8,5.819
-57,-8,5.82
-73,-8,5.821
-80,-8,5.822
-61,-11,5.823
-29,-12,5.824
43,-4,5.825
108,3,5.826
153,11,5.827
181,17,5.828
151,18,5.829
119,19,5.83
80,17,5.831
38,14,5.832
-9,8,5.833
-48,3,5.834
-45,0,5.835
-29,2,5.836
-23,0,5.837
-20,-5,5.838
-9,-8,5.839
-3,-8,5.84
-11,-6,5.841
-22,-7,5.842
-23,-10,5.843
-22,-9,5.844
-24,-6,5.845
-23,-2,5.846
-13,-2,5.847
-8,-3,5.848
-12,-2,5.849
-11,3,5.85
-3,7,5.851
0,7,5.852
-7,7,5.853
-18,1,5.854
-16,0,5.855
-11,-2,5.856
-12,-2,5.857
-14,-1,5.858
-11,0,5.859
-12,1,5.86
-28,3,5.861
-49,6,5.862
-49,6,5.863
-13,6,5.864
43,3,5.865
83,2,5.866
87,2,5.867
70,1,5.868
57,0,5.869
50,0,5.87
32,4,5.871
4,8,5.872
-12,8,5.873
-10,-1,5.874
0,-3,5.875
2,-5,5.876
-5,-5,5.877
-10,-4,5.878
-9,-2,5.879
-5,0,5.88
-8,5,5.881
-22,10,5.882
-44,10,5.883
-56,10,5.884
-42,5,5.885
-12,1,5.886
4,1,5.887
-3,0,5.888
-8,-2,5.889
10,-3,5.89
44,6,5.891
64,13,5.892
61,14,5.893
48,14,5.894
42,9,5.895
40,6,5.896
27,-4,5.897
10,-10,5.898
7,-11,5.899
17,-6,5.9
19,0,5.901
3,1,5.902
-13,-3,5.903
-15,-8,5.904
-8,-9,5.905
-9,-8,5.906
-17,-7,5.907
-22,-9,5.908
-22,-11,5.909
-24,-9,5.91
-27,-7,5.911
-23,-4,5.912
-12,0,5.913
-7,0,5.914
-3,0,5.915
3,-1,5.916
11,-1,5.917
12,5,5.918
9,9,5.919
12,5,5.92
15,-1,5.921
9,-1,5.922
0,3,5.923
-1,4,5.924
3,-1,5.925
3,-5,5.926
0,-3,5.927
3,0,5.928
6,0,5.929
1,-3,5.93
-5,-3,5.931
-3,0,5.932
6,3,5.933
9,-1,5.934
2,-6,5.935
-3,-8,5.936
-3,-10,5.937
0,-11,5.938
4,-11,5.939
6,-8,5.94
2,-2,5.941
-7,4,5.942
-13,14,5.943
-9,37,5.944
-1,62,5.945
1,61,5.946
0,22,5.947
2,-15,5.948
11,-12,5.949
18,7,5.95
21,-14,5.951
19,-79,5.952
15,-120,5.953
8,-98,5.954
1,-43,5.955
-4,0,5.956
-9,41,5.957
-10,119,5.958
-3,195,5.959
8,192,5.96
15,90,5.961
13,-47,5.962
8,-148,5.963
3,-183,5.964
-2,-154,5.965
-7,-91,5.966
-8,-32,5.967
-2,0,5.968
3,16,5.969
3,32,5.97
3,43,5.971
8,43,5.972
16,45,5.973
20,60,5.974
23,79,5.975
24,76,5.976
16,46,5.977
-1,9,5.978
-14,-18,5.979
-6,-34,5.98
9,-39,5.981
6,-37,5.982
-19,-36,5.983
-38,-42,5.984
-36,-47,5.985
-25,-43,5.986
-28,-35,5.987
-47,-26,5.988
-54,-14,5.989
-16,3,5.99
61,12,5.991
131,6,5.992
145,-2,5.993
105,5,5.994
66,44,5.995
51,94,5.996
35,110,5.997
-4,59,5.998
-37,-30,5.999
-36,-88,6.0
-22,-86,6.001
-24,-72,6.002
-33,-75,6.003
-27,-46,6.004
-17,60,6.005
-21,169,6.006
-27,169,6.007
-21,82,6.008
-11,35,6.009
-14,78,6.01
-21,113,6.011
-15,42,6.012
-3,-107,6.013
0,-266,6.014
-3,-345,6.015
-7,-300,6.016
-7,-165,6.017
-7,-26,6.018
-4,45,6.019
2,77,6.02
7,138,6.021
2,225,6.022
0,284,6.023
3,309,6.024
8,327,6.025
12,292,6.026
16,112,6.027
19,-178,6.028
18,-392,6.029
15,-395,6.03
13,-262,6.031
10,-156,6.032
4,-123,6.033
-2,-99,6.034
-3,-60,6.035
-5,-31,6.036
-4,-36,6.037
-1,-28,6.038
5,25,6.039
9,65,6.04
2,62,6.041
-2,62,6.042
6,76,6.043
13,81,6.044
19,59,6.045
24,48,6.046
21,76,6.047
16,106,6.048
6,142,6.049
-2,143,6.05
-6,41,6.051
-9,-54,6.052
-11,-129,6.053
-12,-173,6.054
-2,-100,6.055
3,-31,6.056
0,8,6.057
-6,34,6.058
-8,24,6.059
-5,-34,6.06
-3,-72,6.061
-4,32,6.062
-6,292,6.063
-5,509,6.064
-4,394,6.065
-4,-93,6.066
0,-584,6.067
10,-654,6.068
15,-327,6.069
12,-20,6.07
10,46,6.071
17,59,6.072
23,166,6.073
15,223,6.074
-5,76,6.075
-21,-123,6.076
-23,-148,6.077
-11,-46,6.078
14,3,6.079
37,5,6.08
41,54,6.081
29,121,6.082
18,127,6.083
18,105,6.084
17,103,6.085
3,63,6.086
-7,-44,6.087
-5,-120,6.088
-1,-91,6.089
-8,-27,6.09
-20,-14,6.091
-25,-12,6.092
-20,37,6.093
-25,143,6.094
-42,284,6.095
-60,417,6.096
-60,391,6.097
-37,68,6.098
-1,-413,6.099
27,-666,6.1
37,-511,6.101
36,-198,6.102
41,-38,6.103
53,-19,6.104
51,58,6.105
31,221,6.106
10,312,6.107
2,228,6.108
4,17,6.109
7,-189,6.11
5,-262,6.111
6,-171,6.112
16,-39,6.113
30,-2,6.114
32,-56,6.115
14,-85,6.116
-13,-59,6.117
-26,-61,6.118
-21,-114,6.119
-12,-117,6.12
-11,-18,6.121
-16,104,6.122
-18,162,6.123
-19,169,6.124
-16,167,6.125
-7,165,6.126
1,156,6.127
0,137,6.128
-8,107,6.129
-12,64,6.13
-6,44,6.131
6,81,6.132
20,142,6.133
30,143,6.134
36,32,6.135
28,-140,6.136
15,-252,6.137
7,-215,6.138
9,-78,6.139
13,36,6.14
9,71,6.141
1,71,6.142
-4,77,6.143
-5,64,6.144
-5,20,6.145
-3,-4,6.146
0,2,6.147
1,-40,6.148
0,-177,6.149
0,-304,6.15
1,-294,6.151
1,-168,6.152
2,-54,6.153
-1,8,6.154
-4,76,6.155
-12,176,6.156
-19,208,6.157
-18,98,6.158
-7,-85,6.159
3,-182,6.16
7,-127,6.161
1,-14,6.162
-2,42,6.163
-2,34,6.164
0,24,6.165
0,36,6.166
2,39,6.167
8,35,6.168
11,53,6.169
6,93,6.17
4,107,6.171
7,84,6.172
13,64,6.173
13,60,6.174
14,44,6.175
15,6,6.176
14,-19,6.177
6,0,6.178
2,33,6.179
5,41,6.18
9,28,6.181
3,26,6.182
1,27,6.183
7,-5,6.184
12,-73,6.185
4,-122,6.186
-5,-107,6.187
-8,-49,6.188
-6,-6,6.189
-11,9,6.19
-17,23,6.191
-16,22,6.192
-11,-26,6.193
-6,-118,6.194
-2,-165,6.195
3,-110,6.196
9,-10,6.197
4,57,6.198
-3,70,6.199
-4,61,6.2
3,38,6.201
10,-8,6.202
7,-51,6.203
1,-52,6.204
5,-2,6.205
13,64,6.206
16,107,6.207
17,109,6.208
24,85,6.209
29,59,6.21
25,45,6.211
15,29,6.212
7,5,6.213
0,-15,6.214
-8,-21,6.215
-15,-29,6.216
-20,-43,6.217
-23,-49,6.218
-15,-31,6.219
-8,-17,6.22
-2,-16,6.221
2,-17,6.222
2,-25,6.223
3,-31,6.224
3,-26,6.225
4,-23,6.226
4,-30,6.227
2,-36,6.228
-2,-34,6.229
-5,-30,6.23
-3,-20,6.231
-1,-12,6.232
-1,-10,6.233
-2,-10,6.234
-3,-18,6.235
-3,-33,6.236
-3,-61,6.237
-11,-91,6.238
-15,-85,6.239
-8,-17,6.24
0,82,6.241
4,128,6.242
8,89,6.243
14,32,6.244
13,32,6.245
1,68,6.246
-8,71,6.247
-4,38,6.248
5,28,6.249
9,49,6.25
10,62,6.251
18,52,6.252
29,51,6.253
34,61,6.254
31,55,6.255
25,43,6.256
25,15,6.257
29,-7,6.258
34,-10,6.259
34,-13,6.26
26,-17,6.261
15,-26,6.262
6,-50,6.263
-1,-71,6.264
-8,-81,6.265
-19,-78,6.266
-27,-34,6.267
-28,-2,6.268
-23,-7,6.269
-13,-13,6.27
-7,-23,6.271
-9,-35,6.272
-11,-49,6.273
-12,-64,6.274
-11,-61,6.275
-13,-19,6.276
-12,36,6.277
-5,69,6.278
3,75,6.279
4,73,6.28
1,77,6.281
2,69,6.282
8,41,6.283
8,10,6.284
0,-8,6.285
-7,-20,6.286
-4,-43,6.287
5,-67,6.288
11,-66,6.289
11,-41,6.29
5,-18,6.291
-1,-14,6.292
-5,-14,6.293
-6,-6,6.294
0,1,6.295
8,-11,6.296
14,-52,6.297
16,-91,6.298
18,-97,6.299
16,-61,6.3
10,-7,6.301
1,28,6.302
-1,34,6.303
2,32,6.304
4,37,6.305
3,39,6.306
0,28,6.307
-1,14,6.308
0,10,6.309
2,6,6.31
4,6,6.311
3,28,6.312
1,68,6.313
0,88,6.314
3,68,6.315
5,37,6.316
3,24,6.317
4,20,6.318
18,3,6.319
27,-12,6.32
19,-8,6.321
10,-5,6.322
0,-30,6.323
-8,-71,6.324
-6,-90,6.325
-5,-86,6.326
-11,-84,6.327
-15,-79,6.328
-8,-45,6.329
0,12,6.33
8,51,6.331
13,55,6.332
11,33,6.333
8,-9,6.334
0,-66,6.335
1,-98,6.336
2,-57,6.337
0,49,6.338
0,137,6.339
5,157,6.34
4,141,6.341
-9,134,6.342
-20,121,6.343
-18,65,6.344
-4,-18,6.345
13,-79,6.346
25,-96,6.347
28,-62,6.348
18,9,6.349
5,80,6.35
3,101,6.351
14,67,6.352
18,23,6.353
8,-13,6.354
-1,-55,6.355
-9,-94,6.356
-10,-88,6.357
-9,-40,6.358
-2,-28,6.359
2,-105,6.36
-2,-206,6.361
-6,-226,6.362
-6,-154,6.363
-4,-55,6.364
-2,29,6.365
-2,104,6.366
-6,166,6.367
-9,186,6.368
-5,158,6.369
-1,100,6.37
4,23,6.371
8,-50,6.372
5,-64,6.373
2,8,6.374
2,115,6.375
5,164,6.376
4,128,6.377
0,66,6.378
-1,18,6.379
6,-17,6.38
14,-43,6.381
13,-55,6.382
11,-61,6.383
8,-77,6.384
3,-83,6.385
-3,-61,6.386
-6,-29,6.387
-5,-16,6.388
-1,-19,6.389
4,-17,6.39
16,-13,6.391
30,-20,6.392
39,-29,6.393
35,-38,6.394
22,-50,6.395
1,-70,6.396
-18,-85,6.397
-28,-75,6.398
-23,-48,6.399
-3,-16,6.4
17,11,6.401
20,26,6.402
8,17,6.403
-1,-1,6.404
3,-9,6.405
15,-3,6.406
18,7,6.407
10,11,6.408
1,4,6.409
-4,-19,6.41
-10,-62,6.411
-19,-114,6.412
-24,-170,6.413
-27,-250,6.414
-31,-328,6.415
-38,-316,6.416
-42,-141,6.417
-38,150,6.418
-23,389,6.419
-4,457,6.42
15,403,6.421
25,347,6.422
21,325,6.423
10,286,6.424
8,222,6.425
23,174,6.426
42,156,6.427
46,122,6.428
35,57,6.429
27,-5,6.43
32,-41,6.431
46,-67,6.432
54,-93,6.433
49,-111,6.434
33,-115,6.435
14,-122,6.436
1,-139,6.437
0,-140,6.438
4,-123,6.439
1,-103,6.44
-13,-91,6.441
-28,-83,6.442
-35,-76,6.443
-33,-72,6.444
-29,-66,6.445
-28,-59,6.446
-25,-55,6.447
-20,-57,6.448
-13,-70,6.449
-11,-112,6.45
-15,-189,6.451
-18,-237,6.452
-18,-168,6.453
-13,12,6.454
-6,149,6.455
-4,206,6.456
-7,20,6.457
-12,-99,6.458
-16,-17,6.459
-30,68,6.46
-54,160,6.461
-68,209,6.462
-58,129,6.463
-37,67,6.464
-16,64,6.465
13,59,6.466
61,48,6.467
111,39,6.468
135,42,6.469
130,42,6.47
114,30,6.471
91,16,6.472
59,-4,6.473
13,-24,6.474
-27,-38,6.475
-53,-51,6.476
-65,-64,6.477
-63,-70,6.478
-45,-68,6.479
-24,-60,6.48
-12,-50,6.481
3,-37,6.482
36,-29,6.483
81,-30,6.484
101,-33,6.485
78,-31,6.486
31,-18,6.487
-5,-8,6.488
-23,-31,6.489
-32,-83,6.49
-31,-104,6.491
-14,-25,6.492
10,118,6.493
19,220,6.494
10,193,6.495
-4,88,6.496
-3,18,6.497
1,11,6.498
-8,9,6.499
-36,-10,6.5
-59,-16,6.501
-59,-1,6.502
-41,7,6.503
-25,2,6.504
-21,-1,6.505
-14,-3,6.506
8,-20,6.507
30,-46,6.508
27,-60,6.509
5,-69,6.51
-15,-83,6.511
-19,-81,6.512
-11,-46,6.513
0,-1,6.514
8,-2,6.515
7,-86,6.516
2,-226,6.517
6,-327,6.518
26,-296,6.519
44,-116,6.52
41,131,6.521
24,338,6.522
7,444,6.523
-3,445,6.524
-12,364,6.525
-22,243,6.526
-29,137,6.527
-25,80,6.528
-14,52,6.529
-5,32,6.53
-4,17,6.531
-6,10,6.532
5,-3,6.533
23,-30,6.534
32,-51,6.535
35,-68,6.536
20,-75,6.537
12,-81,6.538
28,-81,6.539
38,-81,6.54
27,-82,6.541
16,-83,6.542
9,-81,6.543
5,-79,6.544
15,-79,6.545
12,-77,6.546
-33,-75,6.547
-66,-69,6.548
-56,-53,6.549
-45,-40,6.55
-30,-36,6.551
-15,-41,6.552
-3,-76,6.553
14,-102,6.554
46,-65,6.555
69,10,6.556
74,56,6.557
65,58,6.558
46,46,6.559
21,46,6.56
-2,46,6.561
-20,32,6.562
-31,19,6.563
-38,19,6.564
-38,22,6.565
-24,23,6.566
0,27,6.567
18,27,6.568
13,14,6.569
1,-1,6.57
5,-7,6.571
11,-6,6.572
-3,-6,6.573
-21,2,6.574
0,25,6.575
40,42,6.576
52,29,6.577
28,6,6.578
8,2,6.579
7,-3,6.58
0,-52,6.581
-29,-140,6.582
-60,-216,6.583
-80,-243,6.584
-100,-235,6.585
-124,-208,6.586
-120,-139,6.587
-68,4,6.588
7,194,6.589
58,342,6.59
76,375,6.591
82,306,6.592
92,224,6.593
99,173,6.594
89,144,6.595
60,106,6.596
33,62,6.597
26,45,6.598
35,41,6.599
30,26,6.6
1,-4,6.601
-22,-29,6.602
-11,-49,6.603
14,-74,6.604
17,-91,6.605
-2,-90,6.606
-12,-83,6.607
-5,-83,6.608
4,-79,6.609
12,-65,6.61
27,-60,6.611
43,-81,6.612
36,-113,6.613
5,-132,6.614
-15,-102,6.615
-13,-20,6.616
-12,72,6.617
-31,118,6.618
-49,98,6.619
-45,51,6.62
-33,19,6.621
-32,3,6.622
-38,-15,6.623
-40,-28,6.624
-33,-18,6.625
-26,-4,6.626
-23,-3,6.627
-21,-6,6.628
-20,-2,6.629
-18,2,6.63
-13,-9,6.631
-5,-24,6.632
5,-24,6.633
16,-19,6.634
19,-18,6.635
14,-19,6.636
13,-14,6.637
19,-2,6.638
22,7,6.639
16,17,6.64
14,30,6.641
35,33,6.642
69,24,6.643
84,12,6.644
74,10,6.645
64,11,6.646
60,3,6.647
39,-12,6.648
-5,-19,6.649
-42,-16,6.65
-44,-10,6.651
-28,-7,6.652
-22,-2,6.653
-20,-1,6.654
-4,-1,6.655
8,0,6.656
10,1,6.657
14,2,6.658
18,0,6.659
18,-4,6.66
1,-16,6.661
-12,-31,6.662
-14,-55,6.663
-16,-66,6.664
-15,-40,6.665
-14,-14,6.666
-17,7,6.667
-19,34,6.668
-17,71,6.669
-16,101,6.67
-21,106,6.671
-24,100,6.672
-16,60,6.673
-7,21,6.674
-7,-7,6.675
-12,-39,6.676
-19,-63,6.677
-27,-56,6.678
-26,-33,6.679
-12,-12,6.68
15,2,6.681
50,10,6.682
81,-10,6.683
91,-83,6.684
78,-198,6.685
62,-285,6.686
52,-247,6.687
33,-55,6.688
1,175,6.689
-29,284,6.69
-29,239,6.691
-7,154,6.692
0,125,6.693
-28,120,6.694
-69,91,6.695
-84,56,6.696
-59,47,6.697
-13,54,6.698
23,48,6.699
44,43,6.7
71,51,6.701
108,49,6.702
127,23,6.703
98,0,6.704
37,4,6.705
-5,12,6.706
-11,2,6.707
-5,-16,6.708
-5,-24,6.709
1,-24,6.71
13,-26,6.711
5,-29,6.712
-18,-31,6.713
-27,-37,6.714
-5,-41,6.715
14,-37,6.716
2,-33,6.717
-21,-33,6.718
-26,-35,6.719
-17,-31,6.72
-17,-26,6.721
-26,-27,6.722
-32,-31,6.723
-32,-33,6.724
-36,-40,6.725
-43,-61,6.726
-49,-84,6.727
-51,-93,6.728
-51,-77,6.729
-44,-35,6.73
-27,17,6.731
1,47,6.732
27,42,6.733
31,16,6.734
22,10,6.735
14,22,6.736
12,24,6.737
5,9,6.738
-12,-2,6.739
-26,0,6.74
-26,0,6.741
-22,-12,6.742
-2,-25,6.743
15,-24,6.744
20,-15,6.745
21,-8,6.746
7,-3,6.747
-4,0,6.748
-10,-3,6.749
-6,-13,6.75
31,-23,6.751
58,-30,6.752
51,-32,6.753
41,-37,6.754
21,-37,6.755
11,-33,6.756
-3,-32,6.757
-27,-27,6.758
-37,-19,6.759
-15,-7,6.76
27,6,6.761
59,20,6.762
73,30,6.763
73,35,6.764
56,35,6.765
25,35,6.766
-3,39,6.767
-13,39,6.768
-18,30,6.769
-35,8,6.77
-49,-15,6.771
-40,-33,6.772
-21,-42,6.773
-11,-43,6.774
-8,-33,6.775
-2,-18,6.776
-2,-10,6.777
-17,-8,6.778
-34,-14,6.779
-39,-21,6.78
-37,-23,6.781
-35,-16,6.782
-29,-1,6.783
-18,14,6.784
-10,24,6.785
-8,29,6.786
0,29,6.787
19,25,6.788
35,18,6.789
39,16,6.79
35,24,6.791
33,35,6.792
40,43,6.793
55,43,6.794
67,38,6.795
50,27,6.796
12,16,6.797
-10,18,6.798
6,29,6.799
30,29,6.8
32,13,6.801
13,-9,6.802
0,-25,6.803
1,-30,6.804
-1,-27,6.805
-10,-17,6.806
-20,-2,6.807
-27,13,6.808
-33,24,6.809
-31,26,6.81
-19,19,6.811
-6,11,6.812
-3,11,6.813
-8,13,6.814
-9,10,6.815
-10,1,6.816
-17,-7,6.817
-24,-6,6.818
-20,-4,6.819
-13,-9,6.82
-15,-15,6.821
-26,-15,6.822
-25,-11,6.823
-1,-7,6.824
30,-4,6.825
52,-3,6.826
67,-4,6.827
72,-11,6.828
52,-15,6.829
15,-12,6.83
-5,-4,6.831
11,2,6.832
36,5,6.833
41,4,6.834
29,3,6.835
25,1,6.836
23,-5,6.837
3,-11,6.838
-24,-14,6.839
-30,-17,6.84
-17,-18,6.841
-11,-16,6.842
-13,-12,6.843
-10,-7,6.844
0,-1,6.845
-6,2,6.846
-27,0,6.847
-35,-5,6.848
-17,-6,6.849
7,3,6.85
15,13,6.851
6,14,6.852
5,13,6.853
19,9,6.854
36,8,6.855
35,5,6.856
23,0,6.857
24,0,6.858
41,1,6.859
48,0,6.86
30,-2,6.861
0,0,6.862
-16,2,6.863
-20,-1,6.864
-25,-5,6.865
-36,-2,6.866
-40,3,6.867
-31,5,6.868
-22,6,6.869
-18,6,6.87
-14,3,6.871
-5,-4,6.872
4,-7,6.873
9,-6,6.874
4,-4,6.875
-9,-6,6.876
-21,-10,6.877
-26,-6,6.878
-20,4,6.879
-4,9,6.88
15,8,6.881
28,4,6.882
32,-1,6.883
25,-7,6.884
15,-6,6.885
2,-1,6.886
-8,-1,6.887
-17,-5,6.888
-13,-4,6.889
-2,6,6.89
7,17,6.891
11,24,6.892
19,26,6.893
32,21,6.894
33,13,6.895
9,2,6.896
-13,-10,6.897
-10,-13,6.898
6,-9,6.899
6,-4,6.9
-14,0,6.901
-23,-1,6.902
-19,-7,6.903
-26,-13,6.904
-62,-15,6.905
-92,-11,6.906
-71,-6,6.907
-7,-3,6.908
60,4,6.909
99,10,6.91
117,10,6.911
125,4,6.912
123,0,6.913
100,-4,6.914
65,-6,6.915
29,-7,6.916
5,-7,6.917
-5,-3,6.918
-6,0,6.919
-5,-2,6.92
-11,-3,6.921
-21,-3,6.922
-28,-5,6.923
-27,-9,6.924
-27,-8,6.925
-35,-4,6.926
-43,-3,6.927
-45,-7,6.928
-42,-10,6.929
-37,-6,6.93
-29,-3,6.931
-17,-4,6.932
-4,-2,6.933
6,-2,6.934
12,-2,6.935
11,-5,6.936
3,-7,6.937
-4,0,6.938
-6,7,6.939
-4,11,6.94
-6,11,6.941
-12,12,6.942
-9,11,6.943
1,5,6.944
9,-4,6.945
9,-12,6.946
8,-26,6.947
12,-47,6.948
15,-61,6.949
10,-44,6.95
5,1,6.951
3,40,6.952
1,52,6.953
0,46,6.954
1,45,6.955
0,47,6.956
-5,38,6.957
-8,20,6.958
-2,10,6.959
6,10,6.96
8,9,6.961
7,4,6.962
8,2,6.963
8,6,6.964
4,6,6.965
4,2,6.966
14,-2,6.967
19,-5,6.968
8,-4,6.969
-7,-2,6.97
-6,0,6.971
10,0,6.972
19,-1,6.973
17,-3,6.974
21,-3,6.975
36,-4,6.976
37,-14,6.977
14,-23,6.978
-14,-26,6.979
-12,-19,6.98
9,-10,6.981
20,-5,6.982
6,-3,6.983
-11,-5,6.984
-11,-5,6.985
0,-4,6.986
2,-2,6.987
-4,-8,6.988
-4,-14,6.989
1,-15,6.99
0,-9,6.991
-13,-2,6.992
-24,0,6.993
-30,-2,6.994
-25,-3,6.995
-18,-2,6.996
-4,-2,6.997
11,2,6.998
24,10,6.999
33,15,7.0
35,7,7.001
28,-10,7.002
16,-17,7.003
4,-4,7.004
-1,13,7.005
-4,2,7.006
-6,-34,7.007
-6,-59,7.008
-4,-48,7.009
-4,-19,7.01
-4,0,7.011
-2,8,7.012
1,20,7.013
5,42,7.014
3,59,7.015
0,61,7.016
-2,40,7.017
-3,4,7.018
-1,-42,7.019
5,-81,7.02
7,-99,7.021
3,-95,7.022
-2,-67,7.023
-1,-13,7.024
-2,50,7.025
-6,88,7.026
-10,93,7.027
-9,84,7.028
-5,79,7.029
-2,72,7.03
1,53,7.031
7,35,7.032
14,31,7.033
14,33,7.034
11,30,7.035
3,15,7.036
-4,-10,7.037
-8,-33,7.038
-7,-46,7.039
-2,-40,7.04
-2,-28,7.041
-6,-25,7.042
-4,-24,7.043
7,-15,7.044
24,-1,7.045
39,0,7.046
50,-11,7.047
54,-25,7.048
47,-33,7.049
33,-43,7.05
19,-51,7.051
10,-46,7.052
4,-22,7.053
-5,8,7.054
-13,27,7.055
-21,28,7.056
-27,17,7.057
-34,21,7.058
-31,51,7.059
-23,85,7.06
-18,75,7.061
-20,0,7.062
-18,-97,7.063
-4,-137,7.064
10,-97,7.065
16,-33,7.066
18,6,7.067
23,26,7.068
25,42,7.069
14,37,7.07
-4,3,7.071
-12,-32,7.072
-11,-30,7.073
-19,-8,7.074
-28,2,7.075
-30,1,7.076
-13,5,7.077
13,13,7.078
34,7,7.079
39,-4,7.08
31,-3,7.081
16,7,7.082
9,11,7.083
13,18,7.084
16,33,7.085
7,37,7.086
-5,15,7.087
-10,9,7.088
-6,69,7.089
-6,150,7.09
-8,111,7.091
-10,-92,7.092
-8,-292,7.093
-12,-321,7.094
-21,-172,7.095
-31,-14,7.096
-38,40,7.097
-35,47,7.098
-24,81,7.099
-11,111,7.1
1,104,7.101
10,90,7.102
21,100,7.103
30,99,7.104
29,74,7.105
25,57,7.106
25,59,7.107
33,45,7.108
42,-1,7.109
52,-37,7.11
60,-41,7.111
67,-34,7.112
66,-31,7.113
50,-37,7.114
27,-46,7.115
5,-61,7.116
-11,-67,7.117
-20,-45,7.118
-21,-16,7.119
-19,-7,7.12
-21,-5,7.121
-28,10,7.122
-29,27,7.123
-19,30,7.124
-8,44,7.125
-8,104,7.126
-15,186,7.127
-19,186,7.128
-16,34,7.129
-9,-187,7.13
-4,-281,7.131
-4,-149,7.132
-5,39,7.133
-5,59,7.134
-3,-120,7.135
-6,-272,7.136
-14,-223,7.137
-18,-49,7.138
-12,69,7.139
-1,93,7.14
4,73,7.141
4,30,7.142
7,-12,7.143
13,1,7.144
14,67,7.145
11,79,7.146
9,2,7.147
10,-59,7.148
9,-19,7.149
5,77,7.15
4,186,7.151
5,305,7.152
7,339,7.153
3,101,7.154
0,-359,7.155
-4,-659,7.156
-12,-516,7.157
-17,-138,7.158
-11,72,7.159
-6,72,7.16
-4,129,7.161
-3,329,7.162
-7,456,7.163
-7,336,7.164
4,49,7.165
13,-193,7.166
16,-242,7.167
22,-94,7.168
34,99,7.169
44,164,7.17
48,94,7.171
49,40,7.172
39,57,7.173
28,54,7.174
19,-11,7.175
7,-56,7.176
0,-27,7.177
-3,-1,7.178
-2,-38,7.179
-4,-83,7.18
-10,-81,7.181
-17,-48,7.182
-17,11,7.183
-11,116,7.184
-8,187,7.185
-8,93,7.186
-9,-131,7.187
-11,-290,7.188
-13,-285,7.189
-16,-215,7.19
-15,-168,7.191
-12,-111,7.192
-15,-23,7.193
-22,31,7.194
-29,29,7.195
-25,51,7.196
-13,149,7.197
0,234,7.198
10,219,7.199
14,165,7.2
14,138,7.201
14,71,7.202
17,-120,7.203
20,-327,7.204
19,-351,7.205
10,-169,7.206
2,20,7.207
4,49,7.208
11,-47,7.209
16,-129,7.21
14,-113,7.211
11,-8,7.212
14,116,7.213
17,196,7.214
19,201,7.215
14,186,7.216
3,242,7.217
-2,358,7.218
3,386,7.219
12,208,7.22
14,-66,7.221
10,-205,7.222
11,-157,7.223
12,-127,7.224
8,-243,7.225
-1,-323,7.226
-6,-168,7.227
-7,80,7.228
-8,132,7.229
-7,-5,7.23
-3,-79,7.231
2,-9,7.232
4,51,7.233
-3,16,7.234
-12,-24,7.235
-19,-8,7.236
-19,-7,7.237
-15,-44,7.238
4,-55,7.239
19,-19,7.24
19,0,7.241
19,-12,7.242
17,-10,7.243
15,7,7.244
9,2,7.245
5,-20,7.246
5,-16,7.247
5,8,7.248
4,22,7.249
3,38,7.25
4,87,7.251
4,135,7.252
1,121,7.253
-5,33,7.254
-14,-57,7.255
-15,-100,7.256
-11,-106,7.257
-10,-83,7.258
-10,-17,7.259
-5,87,7.26
0,166,7.261
1,128,7.262
2,-24,7.263
7,-164,7.264
11,-163,7.265
6,-47,7.266
0,39,7.267
-1,27,7.268
1,-12,7.269
1,-4,7.27
0,23,7.271
3,35,7.272
5,65,7.273
5,128,7.274
2,129,7.275
0,-14,7.276
-6,-205,7.277
-8,-247,7.278
-3,-109,7.279
4,40,7.28
1,48,7.281
-7,-50,7.282
-10,-122,7.283
-3,-84,7.284
1,37,7.285
3,154,7.286
6,204,7.287
15,183,7.288
21,147,7.289
20,121,7.29
18,68,7.291
18,-12,7.292
21,-44,7.293
25,12,7.294
28,71,7.295
26,16,7.296
17,-106,7.297
7,-144,7.298
5,-78,7.299
5,-21,7.3
-1,-29,7.301
-11,-41,7.302
-10,-23,7.303
-5,-26,7.304
-7,-64,7.305
-13,-83,7.306
-14,-52,7.307
-8,-12,7.308
-7,2,7.309
-11,-5,7.31
-9,-30,7.311
1,-73,7.312
13,-105,7.313
17,-100,7.314
18,-50,7.315
8,17,7.316
-12,74,7.317
-24,119,7.318
-20,153,7.319
-6,159,7.32
-4,100,7.321
-11,-32,7.322
-10,-163,7.323
0,-178,7.324
6,-69,7.325
5,46,7.326
6,84,7.327
9,96,7.328
6,150,7.329
0,195,7.33
0,132,7.331
6,-4,7.332
13,-87,7.333
12,-74,7.334
5,-20,7.335
0,7,7.336
0,10,7.337
8,26,7.338
19,36,7.339
24,11,7.34
22,-33,7.341
15,-47,7.342
11,-19,7.343
11,6,7.344
11,-6,7.345
12,-28,7.346
17,-15,7.347
22,25,7.348
19,43,7.349
7,24,7.35
-3,11,7.351
-6,21,7.352
-7,16,7.353
-16,-34,7.354
-23,-94,7.355
-26,-108,7.356
-24,-77,7.357
-19,-38,7.358
-8,-21,7.359
4,-19,7.36
8,-28,7.361
1,-39,7.362
-3,-36,7.363
0,-7,7.364
3,27,7.365
-3,38,7.366
-7,27,7.367
-4,22,7.368
-2,36,7.369
-6,48,7.37
-9,37,7.371
-2,16,7.372
7,9,7.373
10,17,7.374
10,30,7.375
13,33,7.376
15,13,7.377
14,-30,7.378
13,-74,7.379
10,-70,7.38
3,-8,7.381
-4,48,7.382
-7,33,7.383
-6,-51,7.384
-10,-145,7.385
-16,-189,7.386
-5,-150,7.387
22,-23,7.388
39,112,7.389
28,157,7.39
6,103,7.391
-6,62,7.392
-5,88,7.393
-3,119,7.394
-6,81,7.395
-11,11,7.396
-13,-11,7.397
-11,11,7.398
0,26,7.399
18,21,7.4
28,18,7.401
28,3,7.402
23,-28,7.403
24,-43,7.404
23,-22,7.405
12,3,7.406
-4,-2,7.407
-11,-20,7.408
-12,-25,7.409
-13,-29,7.41
-6,-49,7.411
11,-80,7.412
29,-113,7.413
32,-152,7.414
24,-155,7.415
15,-80,7.416
3,41,7.417
-7,127,7.418
-8,135,7.419
-9,112,7.42
-7,104,7.421
-7,98,7.422
-12,64,7.423
-16,18,7.424
-17,-11,7.425
-17,-19,7.426
-15,-18,7.427
-12,-9,7.428
-6,1,7.429
-2,5,7.43
-2,1,7.431
0,-4,7.432
6,-23,7.433
10,-81,7.434
8,-145,7.435
4,-148,7.436
0,-69,7.437
-7,31,7.438
-15,53,7.439
-12,-1,7.44
-5,-30,7.441
-4,31,7.442
-5,115,7.443
-4,115,7.444
-1,38,7.445
-2,-22,7.446
0,-16,7.447
8,7,7.448
15,15,7.449
13,37,7.45
8,77,7.451
8,88,7.452
16,53,7.453
20,9,7.454
12,-5,7.455
4,-11,7.456
-5,-52,7.457
-7,-103,7.458
12,-115,7.459
28,-59,7.46
35,44,7.461
36,135,7.462
15,140,7.463
0,47,7.464
1,-54,7.465
1,-81,7.466
-5,-71,7.467
-10,-113,7.468
-6,-192,7.469
-3,-200,7.47
-4,-111,7.471
-8,-33,7.472
-16,-41,7.473
-20,-99,7.474
-13,-104,7.475
-5,-23,7.476
-5,82,7.477
-9,155,7.478
-11,182,7.479
-7,190,7.48
-1,205,7.481
6,203,7.482
14,143,7.483
27,36,7.484
38,-45,7.485
44,-43,7.486
38,16,7.487
28,78,7.488
19,117,7.489
13,127,7.49
13,101,7.491
9,49,7.492
0,0,7.493
-7,-31,7.494
-4,-55,7.495
1,-80,7.496
-6,-103,7.497
-24,-106,7.498
-34,-94,7.499
-31,-73,7.5
-26,-50,7.501
-25,-37,7.502
-17,-41,7.503
0,-45,7.504
10,-33,7.505
11,-12,7.506
15,-4,7.507
26,-10,7.508
31,-16,7.509
20,-19,7.51
0,-25,7.511
-16,-34,7.512
-26,-34,7.513
-25,-27,7.514
1,-21,7.515
37,-28,7.516
52,-56,7.517
38,-94,7.518
23,-113,7.519
20,-69,7.52
19,23,7.521
6,86,7.522
-7,56,7.523
-15,-40,7.524
-23,-98,7.525
-26,-57,7.526
-18,38,7.527
-3,100,7.528
-1,78,7.529
-15,1,7.53
-25,-58,7.531
-21,-32,7.532
-12,75,7.533
-9,187,7.534
-13,220,7.535
-17,215,7.536
-18,97,7.537
-21,3,7.538
-30,-14,7.539
-37,-25,7.54
-36,-11,7.541
-23,-3,7.542
1,-12,7.543
28,-45,7.544
43,-148,7.545
46,-248,7.546
56,-336,7.547
77,-352,7.548
93,-146,7.549
79,41,7.55
43,173,7.551
16,276,7.552
17,295,7.553
25,309,7.554
24,251,7.555
10,102,7.556
2,-26,7.557
8,-43,7.558
12,0,7.559
-7,17,7.56
-38,3,7.561
-54,-3,7.562
-43,5,7.563
-24,19,7.564
-18,33,7.565
-21,35,7.566
-19,18,7.567
-2,0,7.568
18,-4,7.569
28,-11,7.57
18,-34,7.571
-10,-53,7.572
-35,-51,7.573
-41,-48,7.574
-31,-59,7.575
-35,-69,7.576
-57,-68,7.577
-62,-58,7.578
-26,-53,7.579
26,-45,7.58
57,-38,7.581
63,-55,7.582
72,-101,7.583
92,-132,7.584
100,-96,7.585
80,2,7.586
43,92,7.587
11,108,7.588
-14,62,7.589
-33,16,7.59
-50,8,7.591
-59,9,7.592
-54,-8,7.593
-44,-25,7.594
-38,-4,7.595
-35,37,7.596
-18,45,7.597
17,20,7.598
51,0,7.599
58,5,7.6
36,13,7.601
13,8,7.602
10,-6,7.603
16,-26,7.604
9,-49,7.605
-11,-55,7.606
-22,-21,7.607
-14,27,7.608
-5,40,7.609
-12,11,7.61
-25,-14,7.611
-24,-3,7.612
-11,16,7.613
-1,14,7.614
-1,0,7.615
-9,0,7.616
-24,13,7.617
-44,19,7.618
-55,15,7.619
-47,22,7.62
-32,37,7.621
-22,39,7.622
-11,19,7.623
17,-2,7.624
55,-6,7.625
80,-4,7.626
75,-10,7.627
60,-21,7.628
55,-23,7.629
59,-16,7.63
55,-14,7.631
39,-18,7.632
22,-14,7.633
3,-5,7.634
-15,-2,7.635
-32,-30,7.636
-42,-119,7.637
-43,-274,7.638
-41,-431,7.639
-38,-460,7.64
-24,-291,7.641
1,-12,7.642
23,234,7.643
29,401,7.644
28,514,7.645
42,545,7.646
69,451,7.647
77,287,7.648
47,164,7.649
7,94,7.65
-10,19,7.651
-2,-63,7.652
4,-104,7.653
-4,-113,7.654
-16,-106,7.655
-27,-59,7.656
-37,15,7.657
-40,14,7.658
-25,-125,7.659
-3,-258,7.66
1,-189,7.661
-14,40,7.662
-25,197,7.663
-18,158,7.664
-6,2,7.665
-4,-140,7.666
-2,-201,7.667
6,-151,7.668
10,-17,7.669
4,87,7.67
-2,65,7.671
-3,-22,7.672
-11,-42,7.673
-28,23,7.674
-34,73,7.675
-26,52,7.676
-20,19,7.677
-16,31,7.678
9,51,7.679
55,38,7.68
85,9,7.681
66,-15,7.682
19,-37,7.683
-19,-51,7.684
-37,-46,7.685
-45,-41,7.686
-41,-57,7.687
-19,-70,7.688
16,-43,7.689
53,-9,7.69
84,-15,7.691
97,-43,7.692
90,-44,7.693
71,-23,7.694
57,-32,7.695
42,-78,7.696
12,-109,7.697
-20,-92,7.698
-23,-47,7.699
-3,-1,7.7
0,42,7.701
-26,72,7.702
-44,69,7.703
-35,28,7.704
-28,-25,7.705
-42,-48,7.706
-50,-12,7.707
-37,68,7.708
-27,127,7.709
-38,118,7.71
-46,60,7.711
-32,15,7.712
-16,7,7.713
-12,10,7.714
3,13,7.715
45,23,7.716
79,35,7.717
66,33,7.718
25,17,7.719
2,8,7.72
10,5,7.721
22,-9,7.722
24,-30,7.723
18,-35,7.724
2,-28,7.725
-23,-25,7.726
-43,-31,7.727
-38,-36,7.728
-19,-43,7.729
-6,-63,7.73
-3,-92,7.731
0,-133,7.732
11,-206,7.733
20,-312,7.734
29,-354,7.735
25,-225,7.736
9,64,7.737
-5,363,7.738
0,502,7.739
17,458,7.74
20,334,7.741
4,227,7.742
-17,151,7.743
-31,74,7.744
-35,3,7.745
-26,-26,7.746
-8,-6,7.747
5,18,7.748
8,0,7.749
18,-96,7.75
45,-279,7.751
63,-475,7.752
44,-530,7.753
-2,-362,7.754
-30,-93,7.755
-28,41,7.756
-17,5,7.757
-14,21,7.758
-11,209,7.759
0,401,7.76
2,401,7.761
-3,278,7.762
3,216,7.763
25,238,7.764
36,233,7.765
23,168,7.766
9,101,7.767
11,52,7.768
23,-5,7.769
23,-62,7.77
10,-91,7.771
-4,-104,7.772
-5,-125,7.773
6,-144,7.774
21,-132,7.775
17,-110,7.776
-5,-108,7.777
-14,-111,7.778
5,-98,7.779
29,-81,7.78
29,-77,7.781
19,-74,7.782
23,-61,7.783
35,-51,7.784
24,-51,7.785
-6,-47,7.786
-26,-38,7.787
-21,-57,7.788
-12,-153,7.789
-19,-343,7.79
-31,-581,7.791
-35,-745,7.792
-30,-700,7.793
-27,-371,7.794
-27,145,7.795
-34,636,7.796
-40,897,7.797
-38,873,7.798
-23,664,7.799
-10,448,7.8
-9,333,7.801
-6,297,7.802
26,258,7.803
77,188,7.804
112,114,7.805
110,49,7.806
85,-11,7.807
46,-62,7.808
4,-91,7.809
-24,-106,7.81
-16,-121,7.811
16,-133,7.812
39,-134,7.813
41,-133,7.814
40,-134,7.815
41,-131,7.816
26,-121,7.817
-10,-109,7.818
-39,-102,7.819
-44,-92,7.82
-35,-71,7.821
-26,-56,7.822
-22,-58,7.823
-18,-76,7.824
-20,-103,7.825
-28,-134,7.826
-29,-147,7.827
-23,-106,7.828
-21,-20,7.829
-30,53,7.83
-44,64,7.831
-55,31,7.832
-58,6,7.833
-45,5,7.834
-20,19,7.835
3,37,7.836
16,60,7.837
27,79,7.838
47,79,7.839
58,58,7.84
39,30,7.841
2,-6,7.842
-21,-64,7.843
-18,-125,7.844
-8,-133,7.845
-4,-56,7.846
-1,60,7.847
15,125,7.848
35,102,7.849
53,43,7.85
60,13,7.851
51,9,7.852
27,0,7.853
-3,-22,7.854
-17,-26,7.855
-13,-10,7.856
-5,-5,7.857
-2,-11,7.858
-2,-18,7.859
-5,-20,7.86
-15,-27,7.861
-23,-37,7.862
-18,-35,7.863
-4,-28,7.864
1,-44,7.865
-3,-87,7.866
-8,-123,7.867
-15,-116,7.868
-27,-86,7.869
-38,-89,7.87
-37,-120,7.871
-31,-84,7.872
-37,59,7.873
-46,230,7.874
-33,288,7.875
3,218,7.876
45,143,7.877
73,135,7.878
90,141,7.879
89,106,7.88
61,67,7.881
22,55,7.882
0,45,7.883
0,12,7.884
-2,-20,7.885
-18,-47,7.886
-19,-88,7.887
1,-130,7.888
19,-118,7.889
10,-60,7.89
-9,-33,7.891
-9,-71,7.892
8,-111,7.893
13,-87,7.894
2,-7,7.895
-9,55,7.896
-22,32,7.897
-32,-79,7.898
-32,-233,7.899
-26,-342,7.9
3,-312,7.901
27,-120,7.902
36,145,7.903
45,341,7.904
49,388,7.905
51,320,7.906
47,229,7.907
39,168,7.908
23,137,7.909
9,111,7.91
4,88,7.911
0,70,7.912
-1,53,7.913
-1,23,7.914
5,-13,7.915
0,-41,7.916
-11,-61,7.917
-16,-69,7.918
-11,-70,7.919
-7,-69,7.92
-9,-68,7.921
-13,-69,7.922
-12,-69,7.923
-10,-67,7.924
-10,-63,7.925
-10,-59,7.926
-8,-56,7.927
-6,-49,7.928
-9,-38,7.929
-15,-29,7.93
-16,-26,7.931
-8,-27,7.932
-2,-26,7.933
-4,-25,7.934
-17,-21,7.935
-28,-19,7.936
-35,-22,7.937
-30,-22,7.938
-12,-16,7.939
12,-6,7.94
35,3,7.941
50,8,7.942
61,8,7.943
66,8,7.944
56,6,7.945
32,-9,7.946
11,-40,7.947
4,-69,7.948
5,-58,7.949
2,11,7.95
-4,100,7.951
-8,140,7.952
-6,115,7.953
-3,67,7.954
-4,47,7.955
-11,29,7.956
-15,17,7.957
-8,4,7.958
7,-12,7.959
19,-34,7.96
21,-70,7.961
18,-100,7.962
21,-116,7.963
24,-114,7.964
18,-59,7.965
0,-4,7.966
-11,45,7.967
-12,86,7.968
-8,96,7.969
-10,103,7.97
-11,97,7.971
-6,90,7.972
-1,77,7.973
-2,69,7.974
-4,81,7.975
-2,94,7.976
3,80,7.977
4,44,7.978
2,6,7.979
4,-17,7.98
7,-30,7.981
1,-38,7.982
-5,-42,7.983
-5,-43,7.984
0,-44,7.985
1,-48,7.986
-3,-51,7.987
-2,-49,7.988
0,-43,7.989
1,-35,7.99
-1,-29,7.991
0,-28,7.992
2,-28,7.993
0,-35,7.994
-1,-34,7.995
-5,-29,7.996
-10,-14,7.997
-12,-3,7.998
-6,-4,7.999
-1,-4,8.0
4,-2,8.001
7,-1,8.002
4,-2,8.003
2,-2,8.004
3,4,8.005
4,11,8.006
3,15,8.007
3,15,8.008
8,3,8.009
12,-6,8.01
8,-4,8.011
1,-4,8.012
-8,-9,8.013
-17,-14,8.014
-22,-12,8.015
-18,-7,8.016
-9,-5,8.017
0,-3,8.018
10,1,8.019
21,10,8.02
33,17,8.021
36,18,8.022
29,15,8.023
20,14,8.024
21,7,8.025
29,-9,8.026
32,-35,8.027
21,-47,8.028
5,-24,8.029
0,19,8.03
7,56,8.031
17,68,8.032
22,60,8.033
19,34,8.034
11,-1,8.035
-5,-28,8.036
-18,-30,8.037
-21,-6,8.038
-13,14,8.039
-8,16,8.04
-8,10,8.041
-9,12,8.042
-5,13,8.043
-4,8,8.044
-8,-2,8.045
-13,-9,8.046
-10,-25,8.047
-5,-71,8.048
-5,-143,8.049
-8,-202,8.05
-7,-189,8.051
-5,-80,8.052
-6,63,8.053
-11,163,8.054
-12,181,8.055
-11,154,8.056
-9,136,8.057
-9,127,8.058
-3,102,8.059
5,70,8.06
11,57,8.061
10,50,8.062
12,11,8.063
18,-59,8.064
23,-114,8.065
22,-113,8.066
19,-63,8.067
15,-11,8.068
14,13,8.069
14,17,8.07
17,23,8.071
16,31,8.072
10,32,8.073
1,21,8.074
-2,10,8.075
-4,-1,8.076
-8,-9,8.077
-9,-15,8.078
-1,-15,8.079
8,-23,8.08
8,-52,8.081
0,-73,8.082
-4,-67,8.083
0,-56,8.084
4,-30,8.085
0,-10,8.086
-5,-8,8.087
-3,-5,8.088
4,4,8.089
8,10,8.09
6,8,8.091
5,9,8.092
7,17,8.093
8,21,8.094
2,12,8.095
-10,3,8.096
-15,-7,8.097
-7,-9,8.098
4,-8,8.099
8,-4,8.1
2,0,8.101
-2,3,8.102
-3,5,8.103
-3,0,8.104
-5,-6,8.105
-9,-6,8.106
-8,0,8.107
-2,4,8.108
2,2,8.109
5,-3,8.11
6,-8,8.111
10,-18,8.112
14,-26,8.113
12,-20,8.114
4,-5,8.115
-5,4,8.116
-8,-3,8.117
-5,-9,8.118
0,-8,8.119
2,-1,8.12
2,6,8.121
0,10,8.122
0,19,8.123
2,24,8.124
7,27,8.125
11,31,8.126
15,44,8.127
18,59,8.128
17,52,8.129
12,8,8.13
6,-39,8.131
3,-38,8.132
7,5,8.133
5,25,8.134
0,-37,8.135
-5,-134,8.136
-7,-174,8.137
-8,-126,8.138
-5,-46,8.139
-2,17,8.14
-5,61,8.141
-8,75,8.142
-7,41,8.143
-5,-13,8.144
-1,-14,8.145
3,52,8.146
5,118,8.147
10,128,8.148
18,96,8.149
23,66,8.15
21,51,8.151
20,45,8.152
21,47,8.153
22,37,8.154
19,-8,8.155
12,-66,8.156
6,-77,8.157
2,-12,8.158
4,63,8.159
9,59,8.16
10,-26,8.161
2,-106,8.162
-3,-103,8.163
-3,-31,8.164
0,29,8.165
-1,25,8.166
-4,-10,8.167
-5,-27,8.168
-6,-21,8.169
-6,-19,8.17
-6,-23,8.171
-7,-14,8.172
-6,5,8.173
-8,14,8.174
-7,15,8.175
-5,13,8.176
-8,2,8.177
-11,-23,8.178
-10,-48,8.179
-4,-50,8.18
0,-32,8.181
0,-19,8.182
-2,-14,8.183
0,2,8.184
0,55,8.185
-1,126,8.186
1,156,8.187
5,80,8.188
5,-88,8.189
0,-222,8.19
-3,-213,8.191
-1,-100,8.192
3,-21,8.193
3,-33,8.194
0,-58,8.195
-4,-29,8.196
-6,16,8.197
-5,27,8.198
1,18,8.199
7,29,8.2
4,50,8.201
-2,55,8.202
-6,50,8.203
-1,52,8.204
6,51,8.205
12,41,8.206
14,44,8.207
16,67,8.208
21,75,8.209
23,49,8.21
21,28,8.211
17,52,8.212
16,96,8.213
14,73,8.214
10,-24,8.215
5,-103,8.216
0,-127,8.217
-1,-131,8.218
0,-70,8.219
1,-12,8.22
-1,34,8.221
-4,68,8.222
-5,61,8.223
-1,44,8.224
1,-3,8.225
-3,-35,8.226
-6,-21,8.227
-3,-7,8.228
7,2,8.229
13,17,8.23
13,41,8.231
13,41,8.232
14,-30,8.233
14,-107,8.234
11,-150,8.235
5,-90,8.236
0,-7,8.237
-4,20,8.238
-7,-1,8.239
-7,-15,8.24
-8,-13,8.241
-10,-23,8.242
-6,-36,8.243
1,-32,8.244
10,-19,8.245
10,-12,8.246
5,1,8.247
3,32,8.248
5,59,8.249
5,62,8.25
-1,59,8.251
-6,74,8.252
-5,117,8.253
-3,248,8.254
-2,408,8.255
-8,425,8.256
-12,107,8.257
-7,-415,8.258
3,-728,8.259
10,-591,8.26
6,-234,8.261
0,-20,8.262
-2,7,8.263
-1,35,8.264
0,112,8.265
3,138,8.266
14,110,8.267
24,118,8.268
27,163,8.269
23,172,8.27
21,150,8.271
22,136,8.272
23,106,8.273
16,29,8.274
7,-31,8.275
-1,-83,8.276
-6,-113,8.277
-9,-138,8.278
-6,-146,8.279
-5,-139,8.28
-9,-83,8.281
-12,-37,8.282
-11,-27,8.283
-9,-12,8.284
-6,18,8.285
-2,46,8.286
0,66,8.287
3,76,8.288
4,55,8.289
4,35,8.29
-1,17,8.291
-6,8,8.292
-7,24,8.293
-7,7,8.294
-6,-130,8.295
-5,-213,8.296
-5,-174,8.297
-8,-65,8.298
-5,15,8.299
3,43,8.3
12,62,8.301
13,109,8.302
14,156,8.303
18,140,8.304
16,54,8.305
5,-29,8.306
-5,-42,8.307
-4,7,8.308
2,45,8.309
3,28,8.31
0,-15,8.311
1,-27,8.312
6,9,8.313
4,60,8.314
-2,57,8.315
-9,-28,8.316
-8,-129,8.317
-3,-136,8.318
4,-43,8.319
11,38,8.32
14,42,8.321
12,24,8.322
10,59,8.323
11,114,8.324
8,116,8.325
-4,55,8.326
-10,-26,8.327
-5,-101,8.328
3,-157,8.329
3,-170,8.33
0,-132,8.331
0,-73,8.332
5,-19,8.333
7,36,8.334
4,114,8.335
-2,217,8.336
-5,307,8.337
-8,309,8.338
-3,162,8.339
9,-77,8.34
20,-240,8.341
20,-207,8.342
18,-54,8.343
18,32,8.344
15,-36,8.345
8,-162,8.346
2,-201,8.347
-1,-130,8.348
-4,-42,8.349
-10,-7,8.35
-13,0,8.351
-10,23,8.352
-3,45,8.353
0,29,8.354
3,-2,8.355
5,-5,8.356
5,14,8.357
7,14,8.358
16,-10,8.359
23,-18,8.36
20,2,8.361
9,22,8.362
6,23,8.363
8,18,8.364
4,20,8.365
0,18,8.366
3,11,8.367
8,9,8.368
2,3,8.369
-7,-20,8.37
-11,-44,8.371
-8,-32,8.372
-8,12,8.373
-16,49,8.374
-18,51,8.375
-17,35,8.376
-15,27,8.377
-12,35,8.378
-1,39,8.379
13,34,8.38
18,23,8.381
12,15,8.382
8,21,8.383
9,42,8.384
6,54,8.385
0,25,8.386
-3,-44,8.387
-2,-113,8.388
0,-146,8.389
-2,-145,8.39
0,-121,8.391
3,-64,8.392
7,19,8.393
8,90,8.394
9,97,8.395
9,69,8.396
6,62,8.397
3,91,8.398
8,110,8.399
15,109,8.4
14,118,8.401
4,127,8.402
0,81,8.403
7,-15,8.404
13,-75,8.405
7,-53,8.406
-3,-4,8.407
-7,1,8.408
-8,-28,8.409
-8,-47,8.41
-4,-48,8.411
0,-50,8.412
2,-61,8.413
-1,-79,8.414
-6,-93,8.415
-10,-86,8.416
-14,-51,8.417
-13,-8,8.418
0,5,8.419
12,-8,8.42
18,-9,8.421
20,10,8.422
10,3,8.423
2,-56,8.424
-3,-118,8.425
-8,-112,8.426
-9,-39,8.427
-10,28,8.428
-7,39,8.429
-4,23,8.43
-2,20,8.431
0,28,8.432
4,19,8.433
8,-2,8.434
11,0,8.435
12,30,8.436
12,50,8.437
14,51,8.438
17,46,8.439
19,46,8.44
19,41,8.441
20,32,8.442
25,24,8.443
26,13,8.444
14,-6,8.445
-2,-30,8.446
-9,-30,8.447
-4,-7,8.448
-2,1,8.449
-10,-30,8.45
-14,-73,8.451
-11,-64,8.452
-3,-7,8.453
-5,41,8.454
-7,40,8.455
-9,11,8.456
-8,-3,8.457
-6,-3,8.458
-1,-22,8.459
2,-69,8.46
0,-103,8.461
-1,-85,8.462
3,-16,8.463
6,68,8.464
0,125,8.465
-4,136,8.466
-5,117,8.467
-4,72,8.468
5,-12,8.469
13,-118,8.47
17,-158,8.471
20,-61,8.472
24,118,8.473
26,261,8.474
17,278,8.475
5,195,8.476
-4,97,8.477
-11,20,8.478
-15,-60,8.479
-14,-158,8.48
-8,-228,8.481
0,-213,8.482
9,-118,8.483
13,-18,8.484
10,11,8.485
6,-11,8.486
8,-7,8.487
13,64,8.488
14,138,8.489
12,136,8.49
3,70,8.491
-6,13,8.492
-10,-5,8.493
-7,-19,8.494
-4,-40,8.495
-4,-56,8.496
-18,-58,8.497
-28,-60,8.498
-24,-59,8.499
-20,-57,8.5
-16,-51,8.501
-10,-52,8.502
3,-72,8.503
16,-78,8.504
28,-38,8.505
39,-5,8.506
45,5,8.507
48,2,8.508
38,-43,8.509
28,-81,8.51
19,-89,8.511
10,-73,8.512
4,20,8.513
-2,106,8.514
-11,125,8.515
-13,89,8.516
-13,55,8.517
-20,35,8.518
-26,-8,8.519
-25,-51,8.52
-18,-26,8.521
-9,68,8.522
-1,135,8.523
8,111,8.524
15,50,8.525
11,28,8.526
7,31,8.527
12,11,8.528
21,-22,8.529
18,-29,8.53
2,-17,8.531
-5,-18,8.532
2,-24,8.533
11,-15,8.534
3,0,8.535
-13,-11,8.536
-16,-51,8.537
-6,-87,8.538
-2,-113,8.539
-9,-138,8.54
-19,-163,8.541
-18,-165,8.542
-8,-120,8.543
1,-19,8.544
2,98,8.545
-6,163,8.546
-17,149,8.547
-14,116,8.548
0,123,8.549
14,155,8.55
18,155,8.551
21,118,8.552
38,84,8.553
63,64,8.554
71,48,8.555
54,24,8.556
26,-4,8.557
9,-30,8.558
1,-51,8.559
-6,-60,8.56
-18,-59,8.561
-29,-56,8.562
-31,-59,8.563
-25,-63,8.564
-19,-64,8.565
-16,-63,8.566
-13,-64,8.567
-4,-58,8.568
9,-48,8.569
15,-39,8.57
12,-28,8.571
5,-7,8.572
-2,1,8.573
-5,-57,8.574
-8,-190,8.575
-23,-302,8.576
-49,-279,8.577
-68,-95,8.578
-63,142,8.579
-38,318,8.58
-18,395,8.581
-5,385,8.582
15,308,8.583
51,193,8.584
90,94,8.585
116,39,8.586
123,4,8.587
110,-27,8.588
75,-41,8.589
31,-39,8.59
1,-45,8.591
-18,-58,8.592
-39,-51,8.593
-62,-23,8.594
-58,-13,8.595
-28,-39,8.596
-4,-76,8.597
2,-92,8.598
18,-103,8.599
45,-128,8.6
52,-165,8.601
24,-204,8.602
-10,-232,8.603
-23,-202,8.604
-21,-76,8.605
-23,105,8.606
-23,232,8.607
-14,243,8.608
-5,172,8.609
-4,89,8.61
-2,36,8.611
1,18,8.612
-3,33,8.613
-12,64,8.614
-6,91,8.615
11,98,8.616
16,79,8.617
6,44,8.618
1,8,8.619
9,-2,8.62
14,7,8.621
8,-3,8.622
-1,-47,8.623
-9,-102,8.624
-22,-136,8.625
-31,-145,8.626
-26,-143,8.627
-8,-152,8.628
-1,-194,8.629
-10,-242,8.63
-17,-202,8.631
-11,-24,8.632
-2,178,8.633
-3,247,8.634
-12,150,8.635
-22,36,8.636
-26,40,8.637
-15,116,8.638
10,126,8.639
28,52,8.64
26,11,8.641
20,71,8.642
34,153,8.643
61,151,8.644
68,72,8.645
39,10,8.646
-2,9,8.647
-23,24,8.648
-20,3,8.649
-15,-41,8.65
-16,-68,8.651
-17,-66,8.652
-8,-51,8.653
16,-37,8.654
45,-24,8.655
59,-18,8.656
50,-21,8.657
34,-21,8.658
39,-14,8.659
56,-8,8.66
53,-8,8.661
21,-14,8.662
-13,-25,8.663
-23,-45,8.664
-21,-68,8.665
-32,-78,8.666
-52,-72,8.667
-63,-63,8.668
-60,-57,8.669
-52,-49,8.67
-42,-28,8.671
-25,-5,8.672
-10,8,8.673
0,8,8.674
11,-3,8.675
31,-8,8.676
49,8,8.677
49,37,8.678
36,44,8.679
25,11,8.68
16,-27,8.681
-1,-32,8.682
-16,-4,8.683
-15,20,8.684
-12,22,8.685
-31,33,8.686
-55,62,8.687
-49,77,8.688
-19,48,8.689
-7,-6,8.69
-26,-36,8.691
-29,-45,8.692
9,-76,8.693
69,-151,8.694
94,-177,8.695
75,-45,8.696
47,199,8.697
42,374,8.698
53,348,8.699
55,187,8.7
36,41,8.701
11,-26,8.702
-1,-32,8.703
-3,-5,8.704
-8,33,8.705
-14,39,8.706
-14,7,8.707
-7,-18,8.708
-10,-19,8.709
-23,-35,8.71
-33,-81,8.711
-41,-125,8.712
-52,-163,8.713
-71,-243,8.714
-82,-314,8.715
-77,-246,8.716
-66,-19,8.717
-56,199,8.718
-43,247,8.719
-17,169,8.72
27,105,8.721
81,89,8.722
123,67,8.723
133,27,8.724
117,7,8.725
99,3,8.726
91,-13,8.727
76,-31,8.728
43,-30,8.729
7,-26,8.73
-13,-34,8.731
-20,-39,8.732
-28,-28,8.733
-43,-24,8.734
-49,-48,8.735
-46,-70,8.736
-45,-65,8.737
-50,-45,8.738
-52,-37,8.739
-49,-32,8.74
-43,-15,8.741
-32,6,8.742
-10,18,8.743
17,27,8.744
27,39,8.745
21,49,8.746
20,49,8.747
30,41,8.748
32,33,8.749
21,22,8.75
13,8,8.751
15,-8,8.752
15,-31,8.753
1,-70,8.754
-10,-91,8.755
-5,-57,8.756
8,17,8.757
12,76,8.758
5,85,8.759
3,66,8.76
11,50,8.761
17,36,8.762
12,10,8.763
2,-10,8.764
-3,-16,8.765
-5,-20,8.766
-7,-31,8.767
-5,-34,8.768
1,-21,8.769
5,-20,8.77
-1,-54,8.771
-9,-90,8.772
-11,-78,8.773
-7,-14,8.774
-6,51,8.775
-6,70,8.776
1,42,8.777
17,15,8.778
21,14,8.779
11,31,8.78
-3,37,8.781
-10,35,8.782
-6,39,8.783
6,48,8.784
18,44,8.785
21,24,8.786
18,1,8.787
20,-10,8.788
23,-17,8.789
12,-33,8.79
-4,-60,8.791
-4,-94,8.792
9,-126,8.793
9,-150,8.794
-9,-146,8.795
-27,-120,8.796
-26,-86,8.797
-20,-31,8.798
-17,53,8.799
-15,143,8.8
-10,188,8.801
-8,174,8.802
-12,138,8.803
-21,106,8.804
-37,75,8.805
-54,43,8.806
-45,24,8.807
-4,22,8.808
41,26,8.809
58,28,8.81
59,29,8.811
74,29,8.812
101,19,8.813
109,-2,8.814
82,-21,8.815
40,-38,8.816
13,-55,8.817
2,-64,8.818
-6,-61,8.819
-25,-52,8.82
-42,-45,8.821
-35,-46,8.822
-2,-50,8.823
31,-49,8.824
45,-37,8.825
44,-17,8.826
48,-5,8.827
44,-5,8.828
13,-8,8.829
-23,-5,8.83
-31,-1,8.831
-12,3,8.832
-2,9,8.833
-14,15,8.834
-26,23,8.835
-24,22,8.836
-17,13,8.837
-21,10,8.838
-24,11,8.839
-20,10,8.84
-19,9,8.841
-28,12,8.842
-36,15,8.843
-31,18,8.844
-22,23,8.845
-23,33,8.846
-25,38,8.847
-19,35,8.848
-9,25,8.849
-7,19,8.85
-7,18,8.851
11,17,8.852
38,15,8.853
47,5,8.854
32,-14,8.855
18,-42,8.856
28,-62,8.857
45,-53,8.858
39,-18,8.859
19,19,8.86
1,36,8.861
-7,34,8.862
-18,27,8.863
-32,24,8.864
-41,27,8.865
-35,33,8.866
-18,45,8.867
7,60,8.868
25,70,8.869
24,70,8.87
13,55,8.871
13,24,8.872
25,-11,8.873
37,-46,8.874
34,-67,8.875
19,-75,8.876
4,-84,8.877
-6,-89,8.878
-11,-89,8.879
-9,-82,8.88
-4,-69,8.881
-6,-54,8.882
-11,-39,8.883
-12,-30,8.884
-11,-26,8.885
-11,-19,8.886
-16,-11,8.887
-19,-8,8.888
-14,-8,8.889
-8,-6,8.89
-8,-4,8.891
-14,-9,8.892
-25,-15,8.893
-41,-21,8.894
-53,-20,8.895
-60,-21,8.896
-53,-33,8.897
-42,-54,8.898
-20,-90,8.899
5,-136,8.9
43,-154,8.901
71,-102,8.902
69,6,8.903
68,112,8.904
74,165,8.905
72,164,8.906
45,143,8.907
23,125,8.908
19,111,8.909
15,92,8.91
16,64,8.911
18,35,8.912
17,21,8.913
16,19,8.914
7,18,8.915
-15,11,8.916
-31,-13,8.917
-32,-31,8.918
-23,-34,8.919
-18,-35,8.92
-17,-29,8.921
-16,-25,8.922
-9,-27,8.923
-2,-31,8.924
0,-38,8.925
0,-45,8.926
1,-51,8.927
2,-53,8.928
-3,-41,8.929
-2,-24,8.93
15,8,8.931
35,23,8.932
35,-16,8.933
10,-55,8.934
-7,-57,8.935
-21,-1,8.936
-20,50,8.937
-17,60,8.938
-11,44,8.939
0,37,8.94
21,39,8.941
37,30,8.942
34,15,8.943
32,9,8.944
34,13,8.945
31,21,8.946
13,26,8.947
-2,25,8.948
-7,0,8.949
-11,-56,8.95
-7,-133,8.951
-4,-199,8.952
-10,-227,8.953
-15,-203,8.954
-10,-111,8.955
-6,29,8.956
-8,162,8.957
-10,234,8.958
-5,235,8.959
1,197,8.96
-2,158,8.961
-11,121,8.962
-12,76,8.963
-8,37,8.964
-9,26,8.965
-10,36,8.966
-1,50,8.967
17,49,8.968
29,31,8.969
34,-5,8.97
33,-46,8.971
32,-73,8.972
27,-68,8.973
17,-52,8.974
6,-47,8.975
-5,-43,8.976
-16,-43,8.977
-21,-39,8.978
-7,-28,8.979
3,-17,8.98
5,-6,8.981
10,3,8.982
20,3,8.983
27,1,8.984
22,-7,8.985
16,-19,8.986
9,-44,8.987
0,-63,8.988
-9,-63,8.989
-18,-55,8.99
-22,-22,8.991
-26,5,8.992
-26,13,8.993
-29,19,8.994
-48,18,8.995
-55,16,8.996
-40,10,8.997
-21,3,8.998
-19,-2,8.999
-25,-6,9.0
-19,-8,9.001
1,-9,9.002
15,-6,9.003
19,-6,9.004
31,-11,9.005
62,-15,9.006
92,-8,9.007
104,5,9.008
112,15,9.009
134,12,9.01
147,-2,9.011
109,-16,9.012
36,-17,9.013
-24,0,9.014
-29,26,9.015
-11,38,9.016
-17,27,9.017
-41,12,9.018
-45,4,9.019
-31,0,9.02
-31,-5,9.021
-47,-9,9.022
-49,-12,9.023
-33,-15,9.024
-25,-16,9.025
-29,-12,9.026
-27,-7,9.027
-19,-11,9.028
-18,-24,9.029
-23,-32,9.03
-20,-38,9.031
-13,-51,9.032
-11,-62,9.033
-18,-45,9.034
-19,16,9.035
-16,79,9.036
-14,85,9.037
-13,26,9.038
-4,-39,9.039
7,-49,9.04
11,3,9.041
6,68,9.042
6,86,9.043
9,38,9.044
9,-42,9.045
5,-88,9.046
5,-51,9.047
10,37,9.048
11,87,9.049
11,53,9.05
12,-14,9.051
14,-40,9.052
14,-26,9.053
9,-5,9.054
4,17,9.055
-4,63,9.056
-12,108,9.057
-12,120,9.058
1,109,9.059
17,113,9.06
19,130,9.061
17,115,9.062
21,64,9.063
30,12,9.064
27,-16,9.065
11,-35,9.066
-1,-54,9.067
5,-61,9.068
15,-54,9.069
15,-51,9.07
11,-54,9.071
9,-56,9.072
12,-54,9.073
13,-59,9.074
11,-65,9.075
2,-62,9.076
-8,-53,9.077
-10,-46,9.078
3,-39,9.079
23,-30,9.08
30,-29,9.081
20,-48,9.082
11,-65,9.083
11,-54,9.084
6,-19,9.085
-10,3,9.086
-24,2,9.087
-25,-3,9.088
-21,1,9.089
-19,7,9.09
-18,6,9.091
-14,7,9.092
-7,19,9.093
-4,28,9.094
-9,26,9.095
-21,14,9.096
-32,4,9.097
-33,2,9.098
-19,5,9.099
3,9,9.1
21,14,9.101
31,15,9.102
35,12,9.103
35,4,9.104
22,-4,9.105
7,-6,9.106
3,-7,9.107
5,-14,9.108
3,-34,9.109
-2,-66,9.11
-4,-98,9.111
-4,-106,9.112
-8,-85,9.113
-17,-62,9.114
-15,-67,9.115
-9,-90,9.116
-8,-78,9.117
-12,3,9.118
-8,106,9.119
3,167,9.12
9,186,9.121
8,198,9.122
13,206,9.123
23,179,9.124
26,125,9.125
19,87,9.126
18,88,9.127
28,97,9.128
31,79,9.129
22,24,9.13
15,-39,9.131
16,-78,9.132
18,-80,9.133
9,-93,9.134
-2,-166,9.135
-10,-258,9.136
-13,-243,9.137
-14,-82,9.138
-12,78,9.139
-8,82,9.14
-9,-14,9.141
-17,-37,9.142
-20,38,9.143
-21,92,9.144
-26,66,9.145
-35,45,9.146
-30,73,9.147
-11,78,9.148
11,8,9.149
27,-63,9.15
41,-44,9.151
60,35,9.152
73,74,9.153
68,38,9.154
41,-21,9.155
2,-52,9.156
-27,-64,9.157
-32,-71,9.158
-20,-61,9.159
-8,-18,9.16
-5,33,9.161
-7,56,9.162
-3,50,9.163
8,41,9.164
22,31,9.165
37,2,9.166
44,-32,9.167
43,-38,9.168
31,-13,9.169
10,-6,9.17
-15,-47,9.171
-32,-97,9.172
-33,-97,9.173
-27,-50,9.174
-24,-8,9.175
-26,0,9.176
-18,17,9.177
3,86,9.178
24,146,9.179
29,98,9.18
23,-36,9.181
16,-119,9.182
10,-81,9.183
3,-25,9.184
-4,-51,9.185
-13,-73,9.186
-19,42,9.187
-19,200,9.188
-14,159,9.189
-13,-103,9.19
-12,-317,9.191
-9,-254,9.192
-4,-16,9.193
-6,185,9.194
-11,217,9.195
-14,97,9.196
-11,-74,9.197
-7,-168,9.198
1,-109,9.199
15,31,9.2
21,105,9.201
17,78,9.202
9,46,9.203
8,54,9.204
9,54,9.205
3,26,9.206
-1,21,9.207
2,42,9.208
10,39,9.209
12,6,9.21
11,1,9.211
10,50,9.212
8,123,9.213
1,183,9.214
-3,168,9.215
-6,4,9.216
-3,-268,9.217
0,-450,9.218
1,-404,9.219
3,-218,9.22
1,-76,9.221
0,-21,9.222
-2,18,9.223
-5,60,9.224
-4,66,9.225
-2,51,9.226
1,66,9.227
5,100,9.228
10,103,9.229
12,82,9.23
3,76,9.231
-3,82,9.232
-1,65,9.233
4,23,9.234
18,0,9.235
22,5,9.236
12,13,9.237
-2,13,9.238
1,14,9.239
20,16,9.24
32,18,9.241
25,26,9.242
12,49,9.243
2,91,9.244
-3,144,9.245
-6,181,9.246
0,147,9.247
14,23,9.248
12,-123,9.249
-9,-186,9.25
-26,-153,9.251
-24,-116,9.252
-9,-130,9.253
3,-155,9.254
3,-116,9.255
-3,-23,9.256
-10,41,9.257
-6,23,9.258
11,-48,9.259
25,-87,9.26
18,-12,9.261
0,166,9.262
-1,318,9.263
11,301,9.264
19,111,9.265
14,-95,9.266
12,-165,9.267
18,-105,9.268
18,-56,9.269
0,-131,9.27
-19,-275,9.271
-24,-341,9.272
-19,-267,9.273
-11,-118,9.274
-5,1,9.275
-3,69,9.276
-1,121,9.277
0,152,9.278
7,127,9.279
16,75,9.28
18,62,9.281
12,81,9.282
5,76,9.283
2,31,9.284
-1,-3,9.285
-8,-4,9.286
-13,4,9.287
-13,12,9.288
-9,37,9.289
-5,67,9.29
0,71,9.291
8,48,9.292
16,30,9.293
16,24,9.294
13,21,9.295
10,19,9.296
6,25,9.297
3,30,9.298
3,13,9.299
1,-20,9.3
-3,-51,9.301
-5,-72,9.302
1,-80,9.303
8,-55,9.304
1,31,9.305
-11,180,9.306
-13,321,9.307
-3,321,9.308
8,72,9.309
3,-328,9.31
-4,-581,9.311
-5,-473,9.312
3,-159,9.313
10,81,9.314
8,111,9.315
1,63,9.316
-7,72,9.317
-13,103,9.318
-13,102,9.319
-5,148,9.32
6,302,9.321
15,420,9.322
18,293,9.323
22,-70,9.324
33,-417,9.325
45,-516,9.326
47,-384,9.327
35,-206,9.328
17,-98,9.329
1,-29,9.33
-9,61,9.331
-18,178,9.332
-20,284,9.333
-17,335,9.334
-17,247,9.335
-19,-2,9.336
-19,-247,9.337
-16,-265,9.338
-6,-74,9.339
0,53,9.34
-2,-53,9.341
-11,-245,9.342
-20,-278,9.343
-22,-139,9.344
-14,-2,9.345
1,42,9.346
16,59,9.347
27,113,9.348
33,168,9.349
37,173,9.35
33,137,9.351
25,99,9.352
19,69,9.353
14,35,9.354
11,3,9.355
2,-13,9.356
-7,-18,9.357
-5,-16,9.358
5,-4,9.359
12,40,9.36
8,144,9.361
0,275,9.362
-3,292,9.363
-7,70,9.364
-15,-281,9.365
-20,-463,9.366
-17,-332,9.367
-14,-103,9.368
-16,-36,9.369
-21,-90,9.37
-19,-65,9.371
-14,46,9.372
-7,99,9.373
-4,89,9.374
-2,110,9.375
-3,97,9.376
-1,-22,9.377
4,-108,9.378
12,-92,9.379
15,-51,9.38
11,59,9.381
4,134,9.382
0,98,9.383
0,70,9.384
3,66,9.385
10,61,9.386
22,55,9.387
37,63,9.388
46,117,9.389
41,161,9.39
30,177,9.391
20,146,9.392
16,-24,9.393
10,-221,9.394
-2,-409,9.395
-17,-351,9.396
-29,-139,9.397
-35,20,9.398
-26,94,9.399
-9,186,9.4
4,240,9.401
6,85,9.402
4,-230,9.403
9,-401,9.404
12,-274,9.405
7,-49,9.406
-1,30,9.407
-4,3,9.408
-5,26,9.409
1,88,9.41
20,89,9.411
41,45,9.412
46,41,9.413
25,69,9.414
-3,75,9.415
-26,83,9.416
-44,143,9.417
-50,180,9.418
-34,60,9.419
-5,-166,9.42
11,-264,9.421
5,-116,9.422
4,96,9.423
24,128,9.424
49,-13,9.425
55,-121,9.426
42,-85,9.427
22,3,9.428
2,34,9.429
-16,25,9.43
-27,25,9.431
-33,18,9.432
-33,-20,9.433
-26,-64,9.434
-17,-60,9.435
-14,1,9.436
-16,79,9.437
-15,119,9.438
-3,63,9.439
10,-73,9.44
20,-126,9.441
27,44,9.442
33,296,9.443
31,291,9.444
23,-56,9.445
10,-389,9.446
-4,-377,9.447
-16,-154,9.448
-19,-66,9.449
-12,-141,9.45
-6,-131,9.451
-11,27,9.452
-18,128,9.453
-18,79,9.454
-7,29,9.455
-1,92,9.456
-1,177,9.457
1,192,9.458
14,189,9.459
27,197,9.46
30,130,9.461
24,-29,9.462
16,-134,9.463
12,-82,9.464
8,37,9.465
5,84,9.466
2,59,9.467
1,34,9.468
0,22,9.469
-4,-10,9.47
-6,-74,9.471
-2,-141,9.472
7,-169,9.473
12,-137,9.474
7,-57,9.475
-1,6,9.476
-3,13,9.477
1,8,9.478
3,37,9.479
0,73,9.48
-1,65,9.481
1,29,9.482
6,13,9.483
6,18,9.484
2,21,9.485
-2,29,9.486
-4,46,9.487
0,23,9.488
6,-67,9.489
12,-157,9.49
12,-152,9.491
7,-58,9.492
-2,19,9.493
-13,25,9.494
-17,-4,9.495
-20,-22,9.496
-17,-4,9.497
-11,18,9.498
1,58,9.499
9,83,9.5
7,65,9.501
7,36,9.502
11,-28,9.503
15,-74,9.504
15,-61,9.505
7,-65,9.506
-21,-121,9.507
-39,-141,9.508
-27,-51,9.509
-13,21,9.51
1,38,9.511
14,52,9.512
20,52,9.513
26,62,9.514
30,84,9.515
44,78,9.516
53,75,9.517
39,79,9.518
19,43,9.519
20,-18,9.52
36,-34,9.521
33,0,9.522
8,14,9.523
-10,-29,9.524
-11,-83,9.525
-7,-109,9.526
-12,-104,9.527
-18,-64,9.528
-20,15,9.529
-24,54,9.53
-29,-34,9.531
-23,-168,9.532
-5,-144,9.533
7,84,9.534
5,297,9.535
5,410,9.536
11,222,9.537
17,74,9.538
22,44,9.539
22,3,9.54
7,-74,9.541
-6,-132,9.542
-16,-127,9.543
-22,-111,9.544
-9,-61,9.545
1,-17,9.546
3,10,9.547
6,17,9.548
10,-40,9.549
11,-80,9.55
-2,-64,9.551
-12,-38,9.552
-15,14,9.553
-16,63,9.554
-14,73,9.555
-15,34,9.556
-17,-13,9.557
-21,-34,9.558
-21,-71,9.559
-8,-156,9.56
15,-222,9.561
35,-184,9.562
41,-59,9.563
41,51,9.564
39,98,9.565
29,110,9.566
6,110,9.567
-11,75,9.568
-6,3,9.569
7,-52,9.57
6,-30,9.571
-6,66,9.572
-13,158,9.573
-14,177,9.574
-15,129,9.575
-19,78,9.576
-15,57,9.577
-5,38,9.578
-2,-7,9.579
-10,-56,9.58
-17,-89,9.581
-9,-128,9.582
7,-178,9.583
22,-197,9.584
29,-142,9.585
27,-38,9.586
19,57,9.587
18,111,9.588
27,120,9.589
33,88,9.59
23,36,9.591
6,-15,9.592
-2,-65,9.593
-2,-129,9.594
-9,-162,9.595
-29,-110,9.596
-42,-7,9.597
-28,49,9.598
6,38,9.599
29,52,9.6
29,129,9.601
25,169,9.602
38,95,9.603
56,-25,9.604
45,-80,9.605
6,-62,9.606
-25,-14,9.607
-20,59,9.608
3,139,9.609
15,156,9.61
6,93,9.611
-8,37,9.612
-10,47,9.613
-8,59,9.614
-5,10,9.615
-7,-61,9.616
-12,-88,9.617
-20,-87,9.618
-22,-111,9.619
-17,-141,9.62
-10,-136,9.621
-17,-107,9.622
-30,-78,9.623
-34,-30,9.624
-22,38,9.625
-5,70,9.626
7,36,9.627
18,-5,9.628
35,0,9.629
53,35,9.63
61,46,9.631
56,31,9.632
41,16,9.633
12,5,9.634
-15,-4,9.635
-26,-5,9.636
-21,1,9.637
-7,3,9.638
0,-7,9.639
0,-12,9.64
-2,-5,9.641
-2,1,9.642
1,6,9.643
5,13,9.644
-2,21,9.645
-23,19,9.646
-41,11,9.647
-38,10,9.648
-15,7,9.649
6,-10,9.65
16,-36,9.651
24,-44,9.652
34,-28,9.653
35,-11,9.654
17,-5,9.655
-8,-3,9.656
-18,4,9.657
-16,18,9.658
-15,27,9.659
-21,27,9.66
-25,18,9.661
-19,-13,9.662
2,-72,9.663
33,-116,9.664
55,-89,9.665
61,14,9.666
56,110,9.667
52,114,9.668
41,51,9.669
15,12,9.67
-16,39,9.671
-24,67,9.672
-1,26,9.673
30,-103,9.674
41,-263,9.675
25,-339,9.676
-5,-221,9.677
-32,71,9.678
-51,336,9.679
-66,365,9.68
-79,182,9.681
-83,-12,9.682
-59,-77,9.683
-19,-23,9.684
12,97,9.685
22,227,9.686
32,271,9.687
52,190,9.688
63,80,9.689
48,42,9.69
28,40,9.691
