Deltoid,Bicep,Time
19.0,-9.0,0.0
7.0,-11.0,0.001
-2.0,-9.0,0.002
-1.0,-6.0,0.003
2.0,-3.0,0.004
-1.0,0.0,0.005
-13.0,0.0,0.006
-19.0,-1.0,0.007
-18.0,-4.0,0.008
-16.0,-4.0,0.009
-17.0,-3.0,0.01
-11.0,-4.0,0.011
2.0,-5.0,0.012
11.0,-4.0,0.013
13.0,-4.0,0.014
16.0,-6.0,0.015
24.0,-7.0,0.016
30.0,-3.0,0.017
28.0,10.0,0.018
21.0,6.0,0.019
14.0,1.0,0.02
4.0,0.0,0.021
-3.0,-2.0,0.022
-3.0,0.0,0.023
-3.0,0.0,0.024
-5.0,0.0,0.025
-9.0,0.0,0.026
-16.0,-1.0,0.027
-23.0,-2.0,0.028
-23.0,-4.0,0.029
-20.0,-6.0,0.03
-12.0,-2.0,0.031
-4.0,0.0,0.032
4.0,0.0,0.033
12.0,1.0,0.034
17.0,0.0,0.035
21.0,0.0,0.036
27.0,0.0,0.037
27.0,14.0,0.038
20.0,9.0,0.039
14.0,2.0,0.04
4.0,0.0,0.041
-3.0,-4.0,0.042
-3.0,-1.0,0.043
-3.0,0.0,0.044
-5.0,0.0,0.045
-8.0,-1.0,0.046
-15.0,-2.0,0.047
-21.0,-4.0,0.048
-21.0,-6.0,0.049
-19.0,-9.0,0.05
-12.0,-4.0,0.051
-4.0,0.0,0.052
4.0,1.0,0.053
11.0,2.0,0.054
16.0,1.0,0.055
20.0,0.0,0.056
25.0,-1.0,0.057
25.0,10.0,0.058
19.0,6.0,0.059
13.0,1.0,0.06
4.0,0.0,0.061
-3.0,-2.0,0.062
-3.0,0.0,0.063
-3.0,0.0,0.064
-5.0,0.0,0.065
-8.0,0.0,0.066
-14.0,-1.0,0.067
-20.0,-2.0,0.068
-20.0,-4.0,0.069
-18.0,-6.0,0.07
-11.0,-2.0,0.071
-4.0,0.0,0.072
4.0,0.0,0.073
11.0,1.0,0.074
15.0,0.0,0.075
19.0,0.0,0.076
24.0,0.0,0.077
28.0,11.0,0.078
24.0,7.0,0.079
17.0,2.0,0.08
9.0,0.0,0.081
1.0,-3.0,0.082
0.0,-1.0,0.083
1.0,0.0,0.084
-1.0,0.0,0.085
-11.0,-1.0,0.086
-20.0,-2.0,0.087
-19.0,-3.0,0.088
-15.0,-5.0,0.089
-14.0,-7.0,0.09
-11.0,-3.0,0.091
-1.0,0.0,0.092
12.0,1.0,0.093
18.0,2.0,0.094
16.0,1.0,0.095
15.0,0.0,0.096
19.0,-1.0,0.097
22.0,-3.0,0.098
22.0,-6.0,0.099
21.0,-7.0,0.1
14.0,-8.0,0.101
7.0,-4.0,0.102
5.0,-1.0,0.103
3.0,1.0,0.104
1.0,7.0,0.105
-1.0,11.0,0.106
-6.0,12.0,0.107
-11.0,9.0,0.108
-11.0,7.0,0.109
-9.0,9.0,0.11
-6.0,12.0,0.111
-1.0,9.0,0.112
7.0,3.0,0.113
13.0,0.0,0.114
14.0,-1.0,0.115
17.0,-3.0,0.116
21.0,-5.0,0.117
26.0,-8.0,0.118
28.0,-6.0,0.119
21.0,-4.0,0.12
8.0,-8.0,0.121
-3.0,-12.0,0.122
-3.0,-11.0,0.123
-1.0,-9.0,0.124
-6.0,-3.0,0.125
-16.0,0.0,0.126
-23.0,1.0,0.127
-24.0,-2.0,0.128
-21.0,-5.0,0.129
-18.0,-5.0,0.13
-13.0,-1.0,0.131
-7.0,0.0,0.132
-1.0,0.0,0.133
5.0,0.0,0.134
13.0,2.0,0.135
20.0,1.0,0.136
23.0,-1.0,0.137
22.0,-4.0,0.138
19.0,-4.0,0.139
14.0,-4.0,0.14
5.0,-11.0,0.141
1.0,-12.0,0.142
3.0,-7.0,0.143
7.0,0.0,0.144
0.0,2.0,0.145
-11.0,0.0,0.146
-16.0,1.0,0.147
-15.0,4.0,0.148
-14.0,6.0,0.149
-14.0,6.0,0.15
-5.0,3.0,0.151
5.0,0.0,0.152
9.0,0.0,0.153
9.0,1.0,0.154
15.0,1.0,0.155
23.0,-1.0,0.156
29.0,-3.0,0.157
25.0,0.0,0.158
21.0,0.0,0.159
16.0,0.0,0.16
7.0,-5.0,0.161
-2.0,-3.0,0.162
-2.0,0.0,0.163
2.0,4.0,0.164
-4.0,9.0,0.165
-18.0,11.0,0.166
-25.0,8.0,0.167
-22.0,1.0,0.168
-16.0,-4.0,0.169
-14.0,-5.0,0.17
-12.0,-4.0,0.171
-5.0,-7.0,0.172
1.0,-7.0,0.173
6.0,-5.0,0.174
12.0,-4.0,0.175
19.0,-5.0,0.176
26.0,-2.0,0.177
28.0,1.0,0.178
25.0,3.0,0.179
16.0,-2.0,0.18
8.0,-11.0,0.181
2.0,-13.0,0.182
0.0,-7.0,0.183
-2.0,-5.0,0.184
-6.0,-4.0,0.185
-16.0,0.0,0.186
-22.0,3.0,0.187
-24.0,4.0,0.188
-21.0,3.0,0.189
-15.0,3.0,0.19
-8.0,4.0,0.191
-1.0,4.0,0.192
6.0,1.0,0.193
13.0,-2.0,0.194
19.0,-4.0,0.195
22.0,-3.0,0.196
25.0,0.0,0.197
25.0,0.0,0.198
23.0,1.0,0.199
16.0,4.0,0.2
7.0,4.0,0.201
0.0,1.0,0.202
-1.0,-3.0,0.203
-2.0,-5.0,0.204
-8.0,-3.0,0.205
-16.0,0.0,0.206
-22.0,-6.0,0.207
-22.0,-11.0,0.208
-22.0,-8.0,0.209
-22.0,0.0,0.21
-15.0,7.0,0.211
-3.0,6.0,0.212
7.0,5.0,0.213
10.0,6.0,0.214
14.0,6.0,0.215
21.0,3.0,0.216
27.0,1.0,0.217
28.0,0.0,0.218
25.0,-3.0,0.219
20.0,-8.0,0.22
10.0,-12.0,0.221
0.0,-9.0,0.222
-4.0,-5.0,0.223
-3.0,-1.0,0.224
-5.0,0.0,0.225
-12.0,1.0,0.226
-17.0,0.0,0.227
-17.0,-4.0,0.228
-15.0,-7.0,0.229
-16.0,-7.0,0.23
-11.0,-2.0,0.231
-2.0,4.0,0.232
7.0,8.0,0.233
15.0,7.0,0.234
20.0,4.0,0.235
26.0,2.0,0.236
29.0,5.0,0.237
28.0,6.0,0.238
27.0,5.0,0.239
19.0,4.0,0.24
10.0,0.0,0.241
4.0,-2.0,0.242
3.0,-2.0,0.243
0.0,0.0,0.244
-9.0,5.0,0.245
-19.0,8.0,0.246
-22.0,4.0,0.247
-21.0,-2.0,0.248
-22.0,-2.0,0.249
-23.0,1.0,0.25
-17.0,3.0,0.251
-6.0,2.0,0.252
4.0,0.0,0.253
9.0,-3.0,0.254
16.0,-7.0,0.255
23.0,-9.0,0.256
27.0,-10.0,0.257
27.0,-7.0,0.258
24.0,-5.0,0.259
22.0,-6.0,0.26
16.0,-13.0,0.261
10.0,-12.0,0.262
6.0,-3.0,0.263
7.0,6.0,0.264
0.0,8.0,0.265
-11.0,5.0,0.266
-19.0,2.0,0.267
-19.0,3.0,0.268
-16.0,3.0,0.269
-15.0,3.0,0.27
-12.0,3.0,0.271
-2.0,3.0,0.272
6.0,1.0,0.273
13.0,0.0,0.274
16.0,-1.0,0.275
20.0,-3.0,0.276
24.0,-3.0,0.277
25.0,-4.0,0.278
24.0,-4.0,0.279
18.0,-7.0,0.28
8.0,-9.0,0.281
0.0,-8.0,0.282
-2.0,-5.0,0.283
-3.0,0.0,0.284
-10.0,5.0,0.285
-19.0,7.0,0.286
-24.0,5.0,0.287
-21.0,0.0,0.288
-21.0,-1.0,0.289
-21.0,2.0,0.29
-18.0,6.0,0.291
-10.0,5.0,0.292
-2.0,1.0,0.293
4.0,-2.0,0.294
13.0,-4.0,0.295
21.0,-5.0,0.296
22.0,-2.0,0.297
19.0,-1.0,0.298
18.0,-3.0,0.299
18.0,-6.0,0.3
11.0,-7.0,0.301
-1.0,-4.0,0.302
-5.0,-3.0,0.303
-2.0,-5.0,0.304
-4.0,-4.0,0.305
-13.0,0.0,0.306
-17.0,0.0,0.307
-12.0,-3.0,0.308
-10.0,-3.0,0.309
-10.0,3.0,0.31
-9.0,6.0,0.311
-2.0,6.0,0.312
5.0,1.0,0.313
9.0,0.0,0.314
16.0,0.0,0.315
23.0,-1.0,0.316
28.0,0.0,0.317
28.0,-2.0,0.318
28.0,-5.0,0.319
24.0,-9.0,0.32
16.0,-15.0,0.321
8.0,-16.0,0.322
8.0,-14.0,0.323
10.0,-10.0,0.324
2.0,-4.0,0.325
-12.0,1.0,0.326
-22.0,2.0,0.327
-23.0,3.0,0.328
-21.0,3.0,0.329
-21.0,5.0,0.33
-18.0,7.0,0.331
-8.0,8.0,0.332
3.0,9.0,0.333
12.0,10.0,0.334
16.0,9.0,0.335
20.0,5.0,0.336
25.0,5.0,0.337
27.0,4.0,0.338
27.0,1.0,0.339
21.0,-2.0,0.34
13.0,-6.0,0.341
2.0,-7.0,0.342
0.0,-6.0,0.343
-1.0,-2.0,0.344
-4.0,0.0,0.345
-11.0,2.0,0.346
-15.0,1.0,0.347
-13.0,0.0,0.348
-12.0,-1.0,0.349
-14.0,-1.0,0.35
-12.0,-1.0,0.351
-4.0,-1.0,0.352
6.0,-1.0,0.353
12.0,0.0,0.354
15.0,1.0,0.355
20.0,0.0,0.356
24.0,0.0,0.357
22.0,-2.0,0.358
19.0,-2.0,0.359
16.0,-3.0,0.36
11.0,-9.0,0.361
1.0,-10.0,0.362
-6.0,-6.0,0.363
-6.0,0.0,0.364
-6.0,3.0,0.365
-11.0,2.0,0.366
-18.0,2.0,0.367
-16.0,6.0,0.368
-13.0,8.0,0.369
-11.0,6.0,0.37
-10.0,6.0,0.371
-4.0,10.0,0.372
4.0,10.0,0.373
7.0,10.0,0.374
10.0,4.0,0.375
15.0,1.0,0.376
23.0,1.0,0.377
26.0,-3.0,0.378
26.0,-5.0,0.379
24.0,-2.0,0.38
17.0,-6.0,0.381
9.0,-11.0,0.382
2.0,-12.0,0.383
-4.0,-8.0,0.384
-8.0,-3.0,0.385
-12.0,0.0,0.386
-16.0,2.0,0.387
-19.0,0.0,0.388
-21.0,0.0,0.389
-21.0,3.0,0.39
-9.0,11.0,0.391
2.0,14.0,0.392
12.0,9.0,0.393
20.0,3.0,0.394
18.0,3.0,0.395
16.0,3.0,0.396
16.0,2.0,0.397
16.0,0.0,0.398
19.0,-2.0,0.399
18.0,-4.0,0.4
12.0,-11.0,0.401
5.0,-12.0,0.402
4.0,-7.0,0.403
8.0,-3.0,0.404
6.0,-2.0,0.405
-5.0,-3.0,0.406
-13.0,0.0,0.407
-15.0,1.0,0.408
-19.0,0.0,0.409
-24.0,0.0,0.41
-24.0,2.0,0.411
-14.0,4.0,0.412
-1.0,4.0,0.413
4.0,1.0,0.414
2.0,0.0,0.415
3.0,-1.0,0.416
14.0,-2.0,0.417
26.0,-5.0,0.418
36.0,-5.0,0.419
35.0,-5.0,0.42
26.0,-10.0,0.421
15.0,-14.0,0.422
10.0,-14.0,0.423
8.0,-8.0,0.424
0.0,-1.0,0.425
-14.0,3.0,0.426
-25.0,0.0,0.427
-26.0,-3.0,0.428
-25.0,-5.0,0.429
-25.0,-3.0,0.43
-23.0,-1.0,0.431
-13.0,0.0,0.432
0.0,5.0,0.433
6.0,7.0,0.434
9.0,9.0,0.435
13.0,11.0,0.436
19.0,14.0,0.437
20.0,12.0,0.438
19.0,8.0,0.439
17.0,2.0,0.44
6.0,-4.0,0.441
-5.0,-5.0,0.442
-7.0,-5.0,0.443
-1.0,-3.0,0.444
0.0,-2.0,0.445
-10.0,-3.0,0.446
-21.0,-5.0,0.447
-23.0,-5.0,0.448
-19.0,-1.0,0.449
-11.0,3.0,0.45
1.0,4.0,0.451
20.0,3.0,0.452
36.0,2.0,0.453
39.0,4.0,0.454
33.0,5.0,0.455
29.0,7.0,0.456
29.0,7.0,0.457
29.0,1.0,0.458
30.0,-3.0,0.459
28.0,-5.0,0.46
15.0,-8.0,0.461
-2.0,-7.0,0.462
-15.0,-7.0,0.463
-13.0,-3.0,0.464
-11.0,4.0,0.465
-16.0,8.0,0.466
-23.0,7.0,0.467
-24.0,4.0,0.468
-21.0,5.0,0.469
-26.0,10.0,0.47
-31.0,9.0,0.471
-26.0,4.0,0.472
-12.0,0.0,0.473
1.0,-1.0,0.474
10.0,0.0,0.475
12.0,-1.0,0.476
13.0,-3.0,0.477
17.0,-3.0,0.478
23.0,-4.0,0.479
25.0,-2.0,0.48
20.0,-7.0,0.481
16.0,-9.0,0.482
18.0,-10.0,0.483
20.0,-9.0,0.484
6.0,-6.0,0.485
-15.0,-2.0,0.486
-23.0,-2.0,0.487
-17.0,-3.0,0.488
-5.0,-4.0,0.489
2.0,-2.0,0.49
9.0,2.0,0.491
16.0,4.0,0.492
22.0,5.0,0.493
27.0,6.0,0.494
32.0,5.0,0.495
28.0,3.0,0.496
19.0,2.0,0.497
11.0,1.0,0.498
12.0,-3.0,0.499
11.0,-6.0,0.5
2.0,-10.0,0.501
-11.0,-12.0,0.502
-18.0,-8.0,0.503
-20.0,-5.0,0.504
-26.0,-6.0,0.505
-30.0,-6.0,0.506
-26.0,-2.0,0.507
-17.0,2.0,0.508
-11.0,1.0,0.509
-8.0,0.0,0.51
-3.0,1.0,0.511
2.0,1.0,0.512
6.0,0.0,0.513
8.0,-2.0,0.514
14.0,0.0,0.515
20.0,2.0,0.516
21.0,0.0,0.517
19.0,-1.0,0.518
19.0,-2.0,0.519
17.0,-2.0,0.52
13.0,-5.0,0.521
9.0,-6.0,0.522
8.0,-3.0,0.523
5.0,1.0,0.524
0.0,5.0,0.525
-7.0,8.0,0.526
-12.0,9.0,0.527
-16.0,7.0,0.528
-17.0,3.0,0.529
-16.0,1.0,0.53
-10.0,2.0,0.531
-4.0,4.0,0.532
0.0,5.0,0.533
4.0,4.0,0.534
10.0,1.0,0.535
18.0,-2.0,0.536
27.0,-1.0,0.537
34.0,-1.0,0.538
30.0,-4.0,0.539
23.0,-7.0,0.54
11.0,-12.0,0.541
-3.0,-9.0,0.542
-8.0,-5.0,0.543
-6.0,-1.0,0.544
-8.0,4.0,0.545
-17.0,10.0,0.546
-22.0,12.0,0.547
-19.0,9.0,0.548
-17.0,7.0,0.549
-21.0,10.0,0.55
-18.0,11.0,0.551
-5.0,7.0,0.552
7.0,-2.0,0.553
11.0,-5.0,0.554
15.0,-4.0,0.555
22.0,-3.0,0.556
28.0,-1.0,0.557
24.0,-1.0,0.558
22.0,-5.0,0.559
20.0,-9.0,0.56
15.0,-13.0,0.561
3.0,-12.0,0.562
-4.0,-10.0,0.563
-4.0,-8.0,0.564
-3.0,-2.0,0.565
-6.0,4.0,0.566
-8.0,4.0,0.567
-4.0,-2.0,0.568
0.0,-6.0,0.569
0.0,-3.0,0.57
-3.0,0.0,0.571
-4.0,0.0,0.572
-1.0,-2.0,0.573
5.0,-4.0,0.574
14.0,-7.0,0.575
19.0,-8.0,0.576
25.0,-6.0,0.577
28.0,-5.0,0.578
30.0,-5.0,0.579
25.0,-7.0,0.58
13.0,-10.0,0.581
-1.0,-11.0,0.582
-7.0,-14.0,0.583
-9.0,-17.0,0.584
-14.0,-15.0,0.585
-21.0,-7.0,0.586
-24.0,1.0,0.587
-22.0,6.0,0.588
-23.0,8.0,0.589
-26.0,9.0,0.59
-25.0,10.0,0.591
-18.0,8.0,0.592
-12.0,8.0,0.593
-13.0,9.0,0.594
-7.0,11.0,0.595
5.0,7.0,0.596
22.0,3.0,0.597
35.0,0.0,0.598
40.0,1.0,0.599
34.0,3.0,0.6
21.0,-1.0,0.601
4.0,-2.0,0.602
-6.0,2.0,0.603
-12.0,6.0,0.604
-16.0,8.0,0.605
-13.0,9.0,0.606
0.0,12.0,0.607
16.0,13.0,0.608
20.0,13.0,0.609
16.0,14.0,0.61
14.0,14.0,0.611
16.0,12.0,0.612
17.0,8.0,0.613
14.0,5.0,0.614
11.0,5.0,0.615
9.0,3.0,0.616
11.0,-1.0,0.617
11.0,-7.0,0.618
14.0,-9.0,0.619
13.0,-7.0,0.62
6.0,-9.0,0.621
-1.0,-10.0,0.622
-5.0,-9.0,0.623
-7.0,-5.0,0.624
-11.0,-4.0,0.625
-18.0,-5.0,0.626
-23.0,-7.0,0.627
-25.0,-9.0,0.628
-23.0,-9.0,0.629
-19.0,-6.0,0.63
-14.0,-3.0,0.631
-8.0,-2.0,0.632
-1.0,-1.0,0.633
2.0,0.0,0.634
5.0,0.0,0.635
11.0,0.0,0.636
26.0,2.0,0.637
39.0,4.0,0.638
44.0,4.0,0.639
34.0,1.0,0.64
23.0,-3.0,0.641
14.0,-4.0,0.642
4.0,-2.0,0.643
-7.0,-3.0,0.644
-14.0,-1.0,0.645
-15.0,1.0,0.646
-15.0,-1.0,0.647
-13.0,-5.0,0.648
-9.0,-5.0,0.649
-8.0,2.0,0.65
-10.0,7.0,0.651
-9.0,5.0,0.652
-1.0,2.0,0.653
8.0,2.0,0.654
11.0,2.0,0.655
15.0,-1.0,0.656
20.0,-2.0,0.657
23.0,-2.0,0.658
19.0,-2.0,0.659
9.0,-3.0,0.66
3.0,-7.0,0.661
-2.0,-6.0,0.662
-6.0,-4.0,0.663
-9.0,-2.0,0.664
-10.0,0.0,0.665
-13.0,4.0,0.666
-15.0,3.0,0.667
-17.0,-2.0,0.668
-18.0,-7.0,0.669
-18.0,-6.0,0.67
-11.0,-1.0,0.671
0.0,2.0,0.672
7.0,4.0,0.673
6.0,7.0,0.674
5.0,10.0,0.675
10.0,11.0,0.676
17.0,7.0,0.677
21.0,0.0,0.678
24.0,-3.0,0.679
27.0,-5.0,0.68
24.0,-8.0,0.681
17.0,-10.0,0.682
14.0,-11.0,0.683
15.0,-9.0,0.684
9.0,-8.0,0.685
-4.0,-7.0,0.686
-15.0,-7.0,0.687
-16.0,-6.0,0.688
-15.0,-3.0,0.689
-18.0,1.0,0.69
-13.0,3.0,0.691
-2.0,2.0,0.692
5.0,4.0,0.693
4.0,10.0,0.694
3.0,14.0,0.695
8.0,12.0,0.696
18.0,7.0,0.697
21.0,-2.0,0.698
22.0,-7.0,0.699
21.0,-8.0,0.7
17.0,-12.0,0.701
11.0,-10.0,0.702
6.0,-5.0,0.703
0.0,2.0,0.704
-13.0,6.0,0.705
-32.0,4.0,0.706
-46.0,0.0,0.707
-47.0,0.0,0.708
-36.0,2.0,0.709
-15.0,4.0,0.71
15.0,5.0,0.711
42.0,5.0,0.712
57.0,5.0,0.713
56.0,3.0,0.714
44.0,-3.0,0.715
29.0,-7.0,0.716
19.0,-5.0,0.717
13.0,-3.0,0.718
17.0,-4.0,0.719
20.0,-6.0,0.72
20.0,-8.0,0.721
16.0,-8.0,0.722
11.0,-7.0,0.723
2.0,-4.0,0.724
-8.0,1.0,0.725
-16.0,6.0,0.726
-17.0,7.0,0.727
-17.0,6.0,0.728
-21.0,8.0,0.729
-25.0,11.0,0.73
-23.0,8.0,0.731
-17.0,0.0,0.732
-12.0,-8.0,0.733
-3.0,-14.0,0.734
9.0,-18.0,0.735
14.0,-13.0,0.736
9.0,3.0,0.737
1.0,22.0,0.738
3.0,33.0,0.739
5.0,26.0,0.74
-3.0,6.0,0.741
-13.0,-5.0,0.742
-12.0,-1.0,0.743
-8.0,9.0,0.744
-13.0,12.0,0.745
-23.0,6.0,0.746
-25.0,-5.0,0.747
-20.0,-9.0,0.748
-26.0,-9.0,0.749
-42.0,-13.0,0.75
-49.0,-17.0,0.751
-34.0,-17.0,0.752
-12.0,-12.0,0.753
4.0,-7.0,0.754
25.0,-6.0,0.755
62.0,-4.0,0.756
103.0,0.0,0.757
116.0,0.0,0.758
93.0,-5.0,0.759
56.0,-12.0,0.76
43.0,-18.0,0.761
49.0,-13.0,0.762
46.0,-7.0,0.763
23.0,0.0,0.764
-10.0,8.0,0.765
-36.0,18.0,0.766
-61.0,27.0,0.767
-85.0,25.0,0.768
-96.0,13.0,0.769
-86.0,4.0,0.77
-61.0,1.0,0.771
-31.0,4.0,0.772
0.0,8.0,0.773
27.0,8.0,0.774
32.0,3.0,0.775
13.0,-5.0,0.776
-3.0,-11.0,0.777
7.0,-15.0,0.778
40.0,-14.0,0.779
64.0,-14.0,0.78
64.0,-18.0,0.781
48.0,-21.0,0.782
38.0,-20.0,0.783
43.0,-15.0,0.784
48.0,-5.0,0.785
39.0,10.0,0.786
17.0,21.0,0.787
-7.0,19.0,0.788
-24.0,15.0,0.789
-38.0,19.0,0.79
-52.0,26.0,0.791
-55.0,23.0,0.792
-41.0,9.0,0.793
-21.0,-6.0,0.794
-10.0,-13.0,0.795
-2.0,-12.0,0.796
13.0,-5.0,0.797
30.0,2.0,0.798
32.0,5.0,0.799
14.0,1.0,0.8
-5.0,-8.0,0.801
-1.0,-10.0,0.802
24.0,-5.0,0.803
45.0,0.0,0.804
43.0,0.0,0.805
26.0,-2.0,0.806
6.0,-6.0,0.807
-2.0,-8.0,0.808
-3.0,-6.0,0.809
-5.0,-4.0,0.81
-7.0,-2.0,0.811
-6.0,-3.0,0.812
-4.0,-7.0,0.813
-4.0,-10.0,0.814
-8.0,-13.0,0.815
-9.0,-8.0,0.816
-4.0,-2.0,0.817
-1.0,1.0,0.818
-7.0,-1.0,0.819
-13.0,-1.0,0.82
-17.0,2.0,0.821
-19.0,7.0,0.822
-16.0,6.0,0.823
-15.0,0.0,0.824
-21.0,-1.0,0.825
-28.0,2.0,0.826
-37.0,6.0,0.827
-47.0,8.0,0.828
-56.0,6.0,0.829
-58.0,2.0,0.83
-36.0,-2.0,0.831
-12.0,0.0,0.832
17.0,6.0,0.833
41.0,9.0,0.834
45.0,2.0,0.835
48.0,-6.0,0.836
50.0,-5.0,0.837
53.0,-1.0,0.838
57.0,0.0,0.839
61.0,-3.0,0.84
54.0,-5.0,0.841
31.0,0.0,0.842
2.0,7.0,0.843
-17.0,6.0,0.844
-25.0,-2.0,0.845
-23.0,-10.0,0.846
-11.0,-10.0,0.847
2.0,-5.0,0.848
-3.0,0.0,0.849
-25.0,-4.0,0.85
-34.0,-10.0,0.851
-14.0,-10.0,0.852
16.0,-9.0,0.853
31.0,-7.0,0.854
36.0,-4.0,0.855
43.0,9.0,0.856
47.0,28.0,0.857
31.0,34.0,0.858
-1.0,27.0,0.859
-27.0,12.0,0.86
-26.0,-2.0,0.861
-9.0,-8.0,0.862
1.0,-9.0,0.863
-3.0,-5.0,0.864
-4.0,-1.0,0.865
15.0,0.0,0.866
25.0,-1.0,0.867
-1.0,2.0,0.868
-49.0,5.0,0.869
-67.0,1.0,0.87
-39.0,-7.0,0.871
-4.0,-7.0,0.872
10.0,-1.0,0.873
17.0,0.0,0.874
38.0,-1.0,0.875
56.0,-1.0,0.876
54.0,5.0,0.877
41.0,6.0,0.878
33.0,2.0,0.879
25.0,-2.0,0.88
15.0,-6.0,0.881
13.0,-9.0,0.882
18.0,-9.0,0.883
15.0,-6.0,0.884
0.0,-3.0,0.885
-16.0,-2.0,0.886
-23.0,-3.0,0.887
-29.0,-3.0,0.888
-35.0,-3.0,0.889
-23.0,-3.0,0.89
5.0,-1.0,0.891
25.0,1.0,0.892
20.0,2.0,0.893
7.0,0.0,0.894
6.0,-2.0,0.895
11.0,-3.0,0.896
10.0,-5.0,0.897
4.0,-8.0,0.898
4.0,-7.0,0.899
2.0,-4.0,0.9
-6.0,-6.0,0.901
-13.0,-8.0,0.902
-12.0,-6.0,0.903
-8.0,0.0,0.904
-12.0,4.0,0.905
-20.0,5.0,0.906
-25.0,4.0,0.907
-26.0,5.0,0.908
-29.0,5.0,0.909
-28.0,5.0,0.91
-21.0,3.0,0.911
-9.0,2.0,0.912
-1.0,2.0,0.913
2.0,3.0,0.914
7.0,4.0,0.915
14.0,7.0,0.916
19.0,10.0,0.917
17.0,10.0,0.918
19.0,11.0,0.919
23.0,10.0,0.92
25.0,2.0,0.921
22.0,-4.0,0.922
19.0,-6.0,0.923
18.0,-7.0,0.924
14.0,1.0,0.925
3.0,6.0,0.926
-7.0,1.0,0.927
-11.0,-3.0,0.928
-12.0,-3.0,0.929
-17.0,-2.0,0.93
-18.0,0.0,0.931
-12.0,1.0,0.932
0.0,0.0,0.933
16.0,-3.0,0.934
28.0,-7.0,0.935
36.0,-9.0,0.936
43.0,-2.0,0.937
41.0,4.0,0.938
35.0,0.0,0.939
27.0,-9.0,0.94
13.0,-11.0,0.941
0.0,-2.0,0.942
-10.0,5.0,0.943
-18.0,3.0,0.944
-18.0,2.0,0.945
-19.0,3.0,0.946
-19.0,0.0,0.947
-17.0,-8.0,0.948
-13.0,-14.0,0.949
-10.0,-9.0,0.95
-11.0,0.0,0.951
-14.0,7.0,0.952
-21.0,10.0,0.953
-25.0,7.0,0.954
-17.0,2.0,0.955
-8.0,-3.0,0.956
4.0,-5.0,0.957
15.0,-4.0,0.958
21.0,-3.0,0.959
31.0,-2.0,0.96
38.0,0.0,0.961
42.0,2.0,0.962
48.0,0.0,0.963
53.0,-4.0,0.964
45.0,-1.0,0.965
21.0,3.0,0.966
3.0,3.0,0.967
-2.0,-3.0,0.968
-11.0,-6.0,0.969
-30.0,-5.0,0.97
-42.0,-3.0,0.971
-31.0,-4.0,0.972
-12.0,-3.0,0.973
7.0,0.0,0.974
29.0,4.0,0.975
52.0,7.0,0.976
60.0,10.0,0.977
44.0,8.0,0.978
26.0,1.0,0.979
15.0,-7.0,0.98
1.0,-10.0,0.981
-16.0,-6.0,0.982
-21.0,-3.0,0.983
-17.0,0.0,0.984
-21.0,0.0,0.985
-39.0,-1.0,0.986
-53.0,-2.0,0.987
-57.0,-4.0,0.988
-57.0,-2.0,0.989
-53.0,1.0,0.99
-32.0,1.0,0.991
2.0,-2.0,0.992
25.0,-3.0,0.993
31.0,1.0,0.994
34.0,4.0,0.995
38.0,3.0,0.996
34.0,5.0,0.997
18.0,7.0,0.998
8.0,10.0,0.999
11.0,6.0,1.0
12.0,-4.0,1.001
9.0,-9.0,1.002
9.0,-10.0,1.003
15.0,-9.0,1.004
11.0,-3.0,1.005
-4.0,6.0,1.006
-13.0,15.0,1.007
-15.0,14.0,1.008
-25.0,6.0,1.009
-46.0,0.0,1.01
-53.0,1.0,1.011
-34.0,3.0,1.012
-1.0,1.0,1.013
29.0,-4.0,1.014
52.0,-7.0,1.015
64.0,-7.0,1.016
56.0,-6.0,1.017
27.0,-7.0,1.018
-1.0,-9.0,1.019
-10.0,-12.0,1.02
4.0,-13.0,1.021
24.0,-10.0,1.022
42.0,-7.0,1.023
50.0,-6.0,1.024
43.0,-2.0,1.025
18.0,-1.0,1.026
-12.0,-4.0,1.027
-30.0,-5.0,1.028
-31.0,-5.0,1.029
-25.0,-1.0,1.03
-23.0,0.0,1.031
-21.0,-1.0,1.032
-17.0,-2.0,1.033
-12.0,0.0,1.034
-10.0,3.0,1.035
-5.0,9.0,1.036
4.0,13.0,1.037
13.0,8.0,1.038
17.0,0.0,1.039
14.0,-4.0,1.04
8.0,-1.0,1.041
1.0,2.0,1.042
-6.0,1.0,1.043
-14.0,0.0,1.044
-19.0,5.0,1.045
-23.0,10.0,1.046
-29.0,11.0,1.047
-31.0,10.0,1.048
-23.0,11.0,1.049
-3.0,9.0,1.05
16.0,3.0,1.051
18.0,-1.0,1.052
9.0,2.0,1.053
8.0,7.0,1.054
27.0,3.0,1.055
50.0,-3.0,1.056
56.0,-1.0,1.057
42.0,3.0,1.058
27.0,5.0,1.059
17.0,1.0,1.06
5.0,-5.0,1.061
-9.0,-3.0,1.062
-14.0,0.0,1.063
-7.0,3.0,1.064
-1.0,3.0,1.065
-5.0,2.0,1.066
-11.0,0.0,1.067
-11.0,-4.0,1.068
-14.0,-7.0,1.069
-22.0,-5.0,1.07
-27.0,-4.0,1.071
-18.0,-6.0,1.072
-4.0,-9.0,1.073
1.0,-10.0,1.074
-2.0,-13.0,1.075
0.0,-18.0,1.076
11.0,-18.0,1.077
22.0,-15.0,1.078
21.0,-9.0,1.079
14.0,-6.0,1.08
13.0,-7.0,1.081
20.0,-4.0,1.082
24.0,0.0,1.083
20.0,1.0,1.084
7.0,1.0,1.085
-7.0,4.0,1.086
-16.0,6.0,1.087
-16.0,4.0,1.088
-16.0,0.0,1.089
-20.0,0.0,1.09
-21.0,3.0,1.091
-12.0,4.0,1.092
-2.0,3.0,1.093
3.0,4.0,1.094
4.0,3.0,1.095
7.0,-2.0,1.096
11.0,-6.0,1.097
10.0,-6.0,1.098
2.0,-9.0,1.099
0.0,-15.0,1.1
8.0,-24.0,1.101
18.0,-22.0,1.102
20.0,-12.0,1.103
20.0,-3.0,1.104
18.0,2.0,1.105
11.0,5.0,1.106
-1.0,7.0,1.107
-8.0,8.0,1.108
-5.0,9.0,1.109
-1.0,12.0,1.11
0.0,15.0,1.111
3.0,14.0,1.112
14.0,15.0,1.113
20.0,21.0,1.114
12.0,21.0,1.115
-4.0,15.0,1.116
-14.0,11.0,1.117
-15.0,12.0,1.118
-12.0,9.0,1.119
-12.0,-4.0,1.12
-10.0,-19.0,1.121
-5.0,-18.0,1.122
-1.0,-10.0,1.123
1.0,-3.0,1.124
6.0,0.0,1.125
14.0,5.0,1.126
18.0,4.0,1.127
14.0,0.0,1.128
8.0,0.0,1.129
11.0,9.0,1.13
20.0,13.0,1.131
19.0,6.0,1.132
6.0,-2.0,1.133
-3.0,-1.0,1.134
-1.0,2.0,1.135
4.0,-2.0,1.136
2.0,-6.0,1.137
0.0,-9.0,1.138
6.0,-11.0,1.139
13.0,-16.0,1.14
8.0,-22.0,1.141
-2.0,-18.0,1.142
-1.0,-13.0,1.143
8.0,-12.0,1.144
4.0,-11.0,1.145
-13.0,-6.0,1.146
-28.0,1.0,1.147
-24.0,4.0,1.148
-11.0,2.0,1.149
-4.0,1.0,1.15
-1.0,5.0,1.151
6.0,14.0,1.152
15.0,19.0,1.153
17.0,14.0,1.154
13.0,0.0,1.155
7.0,-7.0,1.156
5.0,0.0,1.157
4.0,9.0,1.158
2.0,11.0,1.159
-3.0,7.0,1.16
-6.0,1.0,1.161
-1.0,-3.0,1.162
5.0,-8.0,1.163
0.0,-11.0,1.164
-15.0,-8.0,1.165
-18.0,-3.0,1.166
0.0,-7.0,1.167
17.0,-9.0,1.168
15.0,-5.0,1.169
11.0,3.0,1.17
26.0,4.0,1.171
43.0,2.0,1.172
32.0,5.0,1.173
5.0,8.0,1.174
-3.0,4.0,1.175
12.0,-3.0,1.176
21.0,-5.0,1.177
13.0,-4.0,1.178
7.0,-9.0,1.179
0.0,-12.0,1.18
-5.0,-15.0,1.181
-12.0,-7.0,1.182
-16.0,0.0,1.183
-16.0,3.0,1.184
-2.0,4.0,1.185
8.0,1.0,1.186
9.0,-5.0,1.187
8.0,-9.0,1.188
1.0,-8.0,1.189
-5.0,-1.0,1.19
-8.0,4.0,1.191
-11.0,7.0,1.192
-15.0,10.0,1.193
-17.0,11.0,1.194
-12.0,7.0,1.195
-6.0,2.0,1.196
3.0,3.0,1.197
13.0,3.0,1.198
16.0,-1.0,1.199
17.0,-7.0,1.2
17.0,-12.0,1.201
14.0,-13.0,1.202
7.0,-15.0,1.203
-4.0,-12.0,1.204
-18.0,-2.0,1.205
-23.0,8.0,1.206
-17.0,9.0,1.207
-9.0,3.0,1.208
-13.0,4.0,1.209
-17.0,14.0,1.21
-9.0,20.0,1.211
6.0,14.0,1.212
12.0,4.0,1.213
6.0,0.0,1.214
4.0,0.0,1.215
14.0,-3.0,1.216
19.0,-5.0,1.217
14.0,-4.0,1.218
12.0,5.0,1.219
18.0,10.0,1.22
24.0,-1.0,1.221
20.0,-11.0,1.222
16.0,-10.0,1.223
18.0,-2.0,1.224
20.0,2.0,1.225
18.0,0.0,1.226
9.0,0.0,1.227
-1.0,4.0,1.228
-3.0,7.0,1.229
0.0,3.0,1.23
0.0,0.0,1.231
-6.0,0.0,1.232
-9.0,-3.0,1.233
-4.0,-9.0,1.234
0.0,-15.0,1.235
-6.0,-13.0,1.236
-10.0,-5.0,1.237
0.0,-4.0,1.238
15.0,-6.0,1.239
15.0,-9.0,1.24
2.0,-10.0,1.241
1.0,-10.0,1.242
15.0,-2.0,1.243
26.0,5.0,1.244
22.0,10.0,1.245
13.0,12.0,1.246
5.0,4.0,1.247
2.0,-1.0,1.248
0.0,1.0,1.249
-2.0,4.0,1.25
-6.0,5.0,1.251
-9.0,7.0,1.252
-6.0,9.0,1.253
0.0,11.0,1.254
-2.0,5.0,1.255
-17.0,1.0,1.256
-25.0,3.0,1.257
-16.0,5.0,1.258
3.0,1.0,1.259
14.0,-5.0,1.26
13.0,-9.0,1.261
15.0,-6.0,1.262
18.0,-2.0,1.263
2.0,0.0,1.264
-34.0,5.0,1.265
-60.0,6.0,1.266
-45.0,-2.0,1.267
-3.0,-10.0,1.268
29.0,-10.0,1.269
36.0,-5.0,1.27
39.0,-2.0,1.271
44.0,-3.0,1.272
31.0,0.0,1.273
0.0,5.0,1.274
-23.0,7.0,1.275
-14.0,4.0,1.276
15.0,1.0,1.277
31.0,-5.0,1.278
31.0,-9.0,1.279
25.0,-11.0,1.28
19.0,-10.0,1.281
12.0,-8.0,1.282
3.0,-7.0,1.283
-4.0,-3.0,1.284
-20.0,1.0,1.285
-36.0,0.0,1.286
-37.0,-6.0,1.287
-26.0,-6.0,1.288
-25.0,0.0,1.289
-33.0,1.0,1.29
-31.0,-1.0,1.291
-14.0,0.0,1.292
1.0,8.0,1.293
3.0,14.0,1.294
1.0,11.0,1.295
6.0,6.0,1.296
13.0,5.0,1.297
9.0,5.0,1.298
6.0,2.0,1.299
5.0,-3.0,1.3
2.0,-7.0,1.301
-1.0,-3.0,1.302
2.0,2.0,1.303
14.0,3.0,1.304
23.0,1.0,1.305
28.0,0.0,1.306
25.0,2.0,1.307
15.0,5.0,1.308
-3.0,5.0,1.309
-11.0,4.0,1.31
-4.0,5.0,1.311
3.0,5.0,1.312
1.0,4.0,1.313
-1.0,0.0,1.314
10.0,-3.0,1.315
27.0,-5.0,1.316
35.0,-7.0,1.317
25.0,-8.0,1.318
5.0,-8.0,1.319
-13.0,-9.0,1.32
-15.0,-15.0,1.321
7.0,-19.0,1.322
41.0,-16.0,1.323
63.0,-11.0,1.324
59.0,-2.0,1.325
39.0,5.0,1.326
15.0,5.0,1.327
-3.0,4.0,1.328
-14.0,2.0,1.329
-22.0,1.0,1.33
-29.0,5.0,1.331
-28.0,8.0,1.332
-20.0,3.0,1.333
-9.0,-1.0,1.334
-5.0,-1.0,1.335
-5.0,0.0,1.336
0.0,0.0,1.337
3.0,0.0,1.338
0.0,-5.0,1.339
-3.0,-7.0,1.34
-3.0,-6.0,1.341
-3.0,-5.0,1.342
-3.0,-4.0,1.343
-4.0,-3.0,1.344
-10.0,2.0,1.345
-16.0,8.0,1.346
-20.0,10.0,1.347
-20.0,3.0,1.348
-10.0,-2.0,1.349
-3.0,-2.0,1.35
-9.0,-1.0,1.351
-12.0,-2.0,1.352
-6.0,-1.0,1.353
0.0,5.0,1.354
4.0,9.0,1.355
7.0,6.0,1.356
11.0,0.0,1.357
13.0,-4.0,1.358
9.0,-2.0,1.359
10.0,-2.0,1.36
20.0,-6.0,1.361
21.0,-11.0,1.362
14.0,-12.0,1.363
11.0,-14.0,1.364
14.0,-10.0,1.365
8.0,2.0,1.366
-7.0,18.0,1.367
-14.0,21.0,1.368
-7.0,8.0,1.369
-2.0,-3.0,1.37
-8.0,-4.0,1.371
-10.0,0.0,1.372
1.0,-1.0,1.373
14.0,-3.0,1.374
19.0,0.0,1.375
25.0,1.0,1.376
36.0,1.0,1.377
40.0,-1.0,1.378
30.0,7.0,1.379
18.0,17.0,1.38
-3.0,15.0,1.381
-19.0,6.0,1.382
-19.0,2.0,1.383
-16.0,2.0,1.384
-2.0,0.0,1.385
7.0,-4.0,1.386
3.0,-4.0,1.387
-3.0,-2.0,1.388
-16.0,-5.0,1.389
-30.0,-7.0,1.39
-43.0,-2.0,1.391
-51.0,3.0,1.392
-44.0,3.0,1.393
-29.0,1.0,1.394
6.0,5.0,1.395
39.0,8.0,1.396
63.0,2.0,1.397
84.0,-8.0,1.398
89.0,-8.0,1.399
70.0,-3.0,1.4
35.0,-5.0,1.401
4.0,-9.0,1.402
3.0,-9.0,1.403
23.0,-8.0,1.404
24.0,-7.0,1.405
4.0,-6.0,1.406
-12.0,-3.0,1.407
-7.0,-2.0,1.408
-1.0,-4.0,1.409
-12.0,-2.0,1.41
-24.0,3.0,1.411
-20.0,6.0,1.412
-8.0,5.0,1.413
-3.0,6.0,1.414
-2.0,7.0,1.415
2.0,6.0,1.416
7.0,4.0,1.417
4.0,0.0,1.418
1.0,0.0,1.419
3.0,-3.0,1.42
3.0,-10.0,1.421
-3.0,-12.0,1.422
-6.0,-9.0,1.423
-7.0,-6.0,1.424
-11.0,-3.0,1.425
-20.0,2.0,1.426
-24.0,3.0,1.427
-22.0,0.0,1.428
-21.0,-3.0,1.429
-26.0,-3.0,1.43
-28.0,-2.0,1.431
-24.0,-2.0,1.432
-15.0,-1.0,1.433
-5.0,2.0,1.434
8.0,4.0,1.435
23.0,1.0,1.436
33.0,1.0,1.437
33.0,4.0,1.438
30.0,12.0,1.439
26.0,16.0,1.44
24.0,8.0,1.441
19.0,-3.0,1.442
14.0,-7.0,1.443
11.0,-1.0,1.444
3.0,4.0,1.445
-10.0,0.0,1.446
-27.0,-4.0,1.447
-35.0,-4.0,1.448
-28.0,0.0,1.449
-14.0,1.0,1.45
-3.0,-2.0,1.451
-1.0,-1.0,1.452
0.0,1.0,1.453
7.0,0.0,1.454
18.0,-5.0,1.455
24.0,-7.0,1.456
26.0,2.0,1.457
21.0,6.0,1.458
9.0,0.0,1.459
-7.0,-12.0,1.46
-11.0,-20.0,1.461
3.0,-12.0,1.462
22.0,-2.0,1.463
32.0,0.0,1.464
35.0,-1.0,1.465
37.0,2.0,1.466
32.0,7.0,1.467
14.0,7.0,1.468
-6.0,3.0,1.469
-17.0,0.0,1.47
-22.0,0.0,1.471
-29.0,-2.0,1.472
-30.0,-5.0,1.473
-18.0,-5.0,1.474
7.0,-2.0,1.475
37.0,-2.0,1.476
60.0,-5.0,1.477
51.0,-3.0,1.478
44.0,2.0,1.479
30.0,6.0,1.48
-1.0,2.0,1.481
-22.0,-2.0,1.482
-15.0,-2.0,1.483
-10.0,-1.0,1.484
-13.0,-1.0,1.485
-19.0,1.0,1.486
-20.0,9.0,1.487
-26.0,14.0,1.488
-43.0,8.0,1.489
-50.0,1.0,1.49
-17.0,-4.0,1.491
12.0,-9.0,1.492
26.0,-7.0,1.493
35.0,-7.0,1.494
23.0,-11.0,1.495
17.0,-13.0,1.496
42.0,-7.0,1.497
30.0,-2.0,1.498
26.0,-4.0,1.499
18.0,-5.0,1.5
0.0,-6.0,1.501
-12.0,-5.0,1.502
-8.0,-7.0,1.503
-5.0,-5.0,1.504
-7.0,1.0,1.505
-10.0,6.0,1.506
-11.0,3.0,1.507
-14.0,-2.0,1.508
-24.0,0.0,1.509
-28.0,9.0,1.51
-9.0,11.0,1.511
8.0,2.0,1.512
16.0,-5.0,1.513
21.0,0.0,1.514
14.0,9.0,1.515
11.0,15.0,1.516
25.0,17.0,1.517
39.0,14.0,1.518
47.0,11.0,1.519
39.0,6.0,1.52
21.0,-4.0,1.521
6.0,-11.0,1.522
3.0,-16.0,1.523
5.0,-16.0,1.524
1.0,-13.0,1.525
-6.0,-12.0,1.526
-11.0,-14.0,1.527
-12.0,-16.0,1.528
-9.0,-14.0,1.529
1.0,-11.0,1.53
19.0,-9.0,1.531
29.0,-8.0,1.532
25.0,-6.0,1.533
13.0,0.0,1.534
4.0,8.0,1.535
1.0,13.0,1.536
0.0,14.0,1.537
-1.0,14.0,1.538
1.0,19.0,1.539
2.0,29.0,1.54
-4.0,28.0,1.541
-12.0,16.0,1.542
-10.0,5.0,1.543
-6.0,7.0,1.544
-8.0,12.0,1.545
-15.0,7.0,1.546
-21.0,-4.0,1.547
-26.0,-8.0,1.548
-29.0,-5.0,1.549
-29.0,-5.0,1.55
-23.0,-8.0,1.551
-21.0,-8.0,1.552
-25.0,-4.0,1.553
-22.0,-4.0,1.554
-5.0,-9.0,1.555
22.0,-11.0,1.556
41.0,-10.0,1.557
50.0,-10.0,1.558
57.0,-9.0,1.559
63.0,-2.0,1.56
60.0,6.0,1.561
46.0,9.0,1.562
24.0,5.0,1.563
3.0,4.0,1.564
-11.0,6.0,1.565
-14.0,9.0,1.566
-10.0,7.0,1.567
-9.0,4.0,1.568
-13.0,0.0,1.569
-13.0,0.0,1.57
-12.0,1.0,1.571
-22.0,3.0,1.572
-43.0,7.0,1.573
-57.0,9.0,1.574
-46.0,9.0,1.575
-13.0,4.0,1.576
26.0,-6.0,1.577
55.0,-18.0,1.578
70.0,-21.0,1.579
68.0,-14.0,1.58
60.0,-11.0,1.581
48.0,-15.0,1.582
33.0,-20.0,1.583
15.0,-18.0,1.584
-5.0,-14.0,1.585
-17.0,-12.0,1.586
-25.0,-13.0,1.587
-37.0,-8.0,1.588
-47.0,3.0,1.589
-47.0,12.0,1.59
-32.0,11.0,1.591
-14.0,5.0,1.592
0.0,2.0,1.593
11.0,7.0,1.594
22.0,11.0,1.595
33.0,9.0,1.596
36.0,7.0,1.597
22.0,5.0,1.598
-5.0,8.0,1.599
-30.0,11.0,1.6
-35.0,7.0,1.601
-18.0,5.0,1.602
3.0,9.0,1.603
16.0,14.0,1.604
24.0,11.0,1.605
34.0,0.0,1.606
38.0,-11.0,1.607
24.0,-14.0,1.608
-2.0,-11.0,1.609
-14.0,-11.0,1.61
-1.0,-12.0,1.611
14.0,-10.0,1.612
10.0,-8.0,1.613
-1.0,-7.0,1.614
1.0,-1.0,1.615
16.0,10.0,1.616
22.0,19.0,1.617
16.0,14.0,1.618
10.0,1.0,1.619
5.0,-6.0,1.62
5.0,-8.0,1.621
6.0,-8.0,1.622
14.0,-12.0,1.623
17.0,-16.0,1.624
6.0,-17.0,1.625
-4.0,-18.0,1.626
-12.0,-16.0,1.627
-22.0,-9.0,1.628
-38.0,-3.0,1.629
-50.0,-2.0,1.63
-49.0,-3.0,1.631
-44.0,-1.0,1.632
-30.0,2.0,1.633
-14.0,1.0,1.634
5.0,0.0,1.635
20.0,6.0,1.636
21.0,15.0,1.637
23.0,13.0,1.638
25.0,6.0,1.639
23.0,2.0,1.64
12.0,2.0,1.641
4.0,6.0,1.642
9.0,9.0,1.643
13.0,9.0,1.644
7.0,7.0,1.645
0.0,2.0,1.646
5.0,1.0,1.647
10.0,7.0,1.648
-11.0,12.0,1.649
-49.0,11.0,1.65
-64.0,9.0,1.651
-38.0,8.0,1.652
4.0,8.0,1.653
31.0,5.0,1.654
38.0,0.0,1.655
49.0,-4.0,1.656
65.0,-5.0,1.657
63.0,-3.0,1.658
42.0,7.0,1.659
18.0,25.0,1.66
7.0,39.0,1.661
1.0,46.0,1.662
-7.0,40.0,1.663
-11.0,25.0,1.664
-9.0,11.0,1.665
-5.0,3.0,1.666
-5.0,-5.0,1.667
-7.0,-22.0,1.668
-16.0,-40.0,1.669
-31.0,-44.0,1.67
-41.0,-39.0,1.671
-37.0,-39.0,1.672
-29.0,-45.0,1.673
-35.0,-42.0,1.674
-38.0,-29.0,1.675
-12.0,-21.0,1.676
30.0,-22.0,1.677
56.0,-24.0,1.678
56.0,-10.0,1.679
51.0,6.0,1.68
46.0,10.0,1.681
29.0,-2.0,1.682
4.0,-15.0,1.683
5.0,-18.0,1.684
29.0,-12.0,1.685
37.0,-6.0,1.686
20.0,-2.0,1.687
6.0,3.0,1.688
12.0,14.0,1.689
6.0,23.0,1.69
-24.0,26.0,1.691
-49.0,26.0,1.692
-41.0,27.0,1.693
-22.0,25.0,1.694
-20.0,15.0,1.695
-25.0,10.0,1.696
-13.0,11.0,1.697
10.0,12.0,1.698
22.0,13.0,1.699
28.0,13.0,1.7
14.0,9.0,1.701
3.0,5.0,1.702
0.0,1.0,1.703
-1.0,1.0,1.704
0.0,8.0,1.705
0.0,11.0,1.706
-5.0,6.0,1.707
-11.0,-4.0,1.708
-13.0,-9.0,1.709
-15.0,-11.0,1.71
-13.0,-12.0,1.711
-10.0,-12.0,1.712
-6.0,-13.0,1.713
-3.0,-13.0,1.714
-7.0,-11.0,1.715
-11.0,-3.0,1.716
-16.0,6.0,1.717
-21.0,6.0,1.718
-14.0,0.0,1.719
7.0,-6.0,1.72
31.0,-9.0,1.721
40.0,-10.0,1.722
40.0,-9.0,1.723
38.0,-8.0,1.724
26.0,-7.0,1.725
-1.0,-6.0,1.726
-21.0,-6.0,1.727
-21.0,-1.0,1.728
-16.0,4.0,1.729
-18.0,7.0,1.73
-19.0,6.0,1.731
-3.0,8.0,1.732
20.0,8.0,1.733
29.0,4.0,1.734
30.0,-2.0,1.735
34.0,-3.0,1.736
36.0,-1.0,1.737
24.0,-3.0,1.738
15.0,-8.0,1.739
17.0,-8.0,1.74
21.0,-2.0,1.741
14.0,6.0,1.742
6.0,4.0,1.743
9.0,-4.0,1.744
6.0,-7.0,1.745
-14.0,-3.0,1.746
-34.0,0.0,1.747
-36.0,-2.0,1.748
-27.0,-3.0,1.749
-25.0,-5.0,1.75
-25.0,-4.0,1.751
-14.0,0.0,1.752
2.0,3.0,1.753
12.0,5.0,1.754
15.0,3.0,1.755
18.0,3.0,1.756
18.0,5.0,1.757
8.0,5.0,1.758
-2.0,2.0,1.759
-2.0,-1.0,1.76
7.0,-5.0,1.761
15.0,-8.0,1.762
15.0,-5.0,1.763
13.0,-2.0,1.764
12.0,2.0,1.765
3.0,5.0,1.766
-6.0,2.0,1.767
-13.0,0.0,1.768
-17.0,0.0,1.769
-20.0,0.0,1.77
-18.0,-1.0,1.771
-3.0,-3.0,1.772
14.0,-3.0,1.773
20.0,-3.0,1.774
14.0,-5.0,1.775
4.0,-6.0,1.776
2.0,1.0,1.777
1.0,11.0,1.778
2.0,25.0,1.779
5.0,19.0,1.78
15.0,0.0,1.781
25.0,-9.0,1.782
29.0,-4.0,1.783
30.0,0.0,1.784
22.0,-1.0,1.785
10.0,-4.0,1.786
-10.0,-1.0,1.787
-28.0,1.0,1.788
-37.0,4.0,1.789
-45.0,6.0,1.79
-47.0,8.0,1.791
-45.0,2.0,1.792
-26.0,-7.0,1.793
-8.0,-9.0,1.794
3.0,-2.0,1.795
18.0,1.0,1.796
44.0,0.0,1.797
71.0,0.0,1.798
82.0,4.0,1.799
66.0,6.0,1.8
47.0,0.0,1.801
40.0,-6.0,1.802
33.0,-10.0,1.803
16.0,-10.0,1.804
-2.0,-5.0,1.805
-5.0,3.0,1.806
-3.0,3.0,1.807
-6.0,-6.0,1.808
-20.0,-12.0,1.809
-38.0,-7.0,1.81
-53.0,-1.0,1.811
-52.0,-3.0,1.812
-27.0,-6.0,1.813
12.0,-2.0,1.814
41.0,6.0,1.815
45.0,12.0,1.816
40.0,18.0,1.817
31.0,22.0,1.818
16.0,20.0,1.819
-10.0,8.0,1.82
-30.0,-5.0,1.821
-35.0,-9.0,1.822
-21.0,-10.0,1.823
0.0,-16.0,1.824
12.0,-19.0,1.825
10.0,-13.0,1.826
-1.0,-6.0,1.827
-15.0,-8.0,1.828
-24.0,-9.0,1.829
-32.0,-7.0,1.83
-38.0,-4.0,1.831
-35.0,-1.0,1.832
-23.0,0.0,1.833
-10.0,1.0,1.834
12.0,2.0,1.835
42.0,0.0,1.836
66.0,-2.0,1.837
60.0,-6.0,1.838
32.0,-8.0,1.839
12.0,-10.0,1.84
14.0,-16.0,1.841
18.0,-16.0,1.842
15.0,-11.0,1.843
10.0,-2.0,1.844
8.0,6.0,1.845
4.0,7.0,1.846
-2.0,3.0,1.847
-1.0,5.0,1.848
0.0,14.0,1.849
-10.0,23.0,1.85
-25.0,24.0,1.851
-25.0,15.0,1.852
-10.0,8.0,1.853
-3.0,6.0,1.854
-11.0,6.0,1.855
-17.0,4.0,1.856
-9.0,-1.0,1.857
-3.0,-7.0,1.858
-4.0,-8.0,1.859
-8.0,-6.0,1.86
-7.0,-10.0,1.861
-4.0,-14.0,1.862
-3.0,-14.0,1.863
-1.0,-9.0,1.864
8.0,-5.0,1.865
20.0,0.0,1.866
33.0,9.0,1.867
40.0,15.0,1.868
37.0,11.0,1.869
25.0,1.0,1.87
9.0,-6.0,1.871
3.0,-3.0,1.872
9.0,1.0,1.873
15.0,6.0,1.874
16.0,8.0,1.875
17.0,6.0,1.876
22.0,0.0,1.877
25.0,-5.0,1.878
13.0,-5.0,1.879
-15.0,-2.0,1.88
-35.0,-4.0,1.881
-35.0,-9.0,1.882
-22.0,-11.0,1.883
-11.0,-7.0,1.884
-1.0,0.0,1.885
12.0,4.0,1.886
22.0,1.0,1.887
18.0,-7.0,1.888
3.0,-12.0,1.889
-7.0,-7.0,1.89
-10.0,5.0,1.891
-8.0,18.0,1.892
-7.0,28.0,1.893
0.0,40.0,1.894
5.0,49.0,1.895
2.0,48.0,1.896
-2.0,37.0,1.897
-3.0,24.0,1.898
-1.0,14.0,1.899
-2.0,5.0,1.9
-5.0,-10.0,1.901
-1.0,-27.0,1.902
3.0,-41.0,1.903
-5.0,-50.0,1.904
-30.0,-53.0,1.905
-54.0,-52.0,1.906
-56.0,-49.0,1.907
-41.0,-45.0,1.908
-23.0,-40.0,1.909
-14.0,-30.0,1.91
-3.0,-19.0,1.911
18.0,-11.0,1.912
43.0,-7.0,1.913
53.0,-4.0,1.914
48.0,2.0,1.915
44.0,8.0,1.916
50.0,15.0,1.917
57.0,17.0,1.918
51.0,14.0,1.919
37.0,10.0,1.92
29.0,6.0,1.921
30.0,9.0,1.922
26.0,12.0,1.923
13.0,10.0,1.924
0.0,2.0,1.925
-9.0,-3.0,1.926
-12.0,-1.0,1.927
-17.0,8.0,1.928
-27.0,25.0,1.929
-40.0,35.0,1.93
-46.0,31.0,1.931
-42.0,16.0,1.932
-36.0,6.0,1.933
-35.0,9.0,1.934
-35.0,16.0,1.935
-29.0,16.0,1.936
-16.0,13.0,1.937
0.0,10.0,1.938
19.0,4.0,1.939
32.0,-7.0,1.94
33.0,-18.0,1.941
19.0,-17.0,1.942
2.0,-12.0,1.943
-5.0,-9.0,1.944
-9.0,-7.0,1.945
-15.0,-1.0,1.946
-9.0,-1.0,1.947
14.0,-10.0,1.948
37.0,-15.0,1.949
36.0,-9.0,1.95
25.0,-2.0,1.951
32.0,0.0,1.952
53.0,-1.0,1.953
57.0,0.0,1.954
37.0,0.0,1.955
25.0,-4.0,1.956
32.0,-3.0,1.957
32.0,2.0,1.958
12.0,10.0,1.959
-9.0,11.0,1.96
-16.0,3.0,1.961
-14.0,-1.0,1.962
-14.0,-2.0,1.963
-17.0,-2.0,1.964
-21.0,-3.0,1.965
-34.0,-8.0,1.966
-48.0,-13.0,1.967
-49.0,-11.0,1.968
-42.0,-1.0,1.969
-43.0,7.0,1.97
-43.0,8.0,1.971
-26.0,7.0,1.972
4.0,11.0,1.973
28.0,19.0,1.974
38.0,24.0,1.975
43.0,27.0,1.976
49.0,34.0,1.977
49.0,36.0,1.978
39.0,34.0,1.979
18.0,25.0,1.98
-4.0,5.0,1.981
-19.0,-17.0,1.982
-28.0,-38.0,1.983
-31.0,-51.0,1.984
-26.0,-56.0,1.985
-15.0,-57.0,1.986
-3.0,-61.0,1.987
2.0,-58.0,1.988
14.0,-44.0,1.989
34.0,-27.0,1.99
53.0,-15.0,1.991
52.0,-7.0,1.992
35.0,-1.0,1.993
21.0,5.0,1.994
12.0,5.0,1.995
-5.0,5.0,1.996
-20.0,10.0,1.997
-14.0,14.0,1.998
14.0,10.0,1.999
36.0,2.0,2.0
38.0,-3.0,2.001
40.0,4.0,2.002
40.0,17.0,2.003
33.0,29.0,2.004
7.0,37.0,2.005
-15.0,42.0,2.006
-27.0,40.0,2.007
-37.0,32.0,2.008
-43.0,22.0,2.009
-47.0,9.0,2.01
-39.0,-6.0,2.011
-32.0,-17.0,2.012
-32.0,-13.0,2.013
-32.0,-4.0,2.014
-28.0,-3.0,2.015
-22.0,-14.0,2.016
-16.0,-23.0,2.017
-13.0,-24.0,2.018
-22.0,-22.0,2.019
-33.0,-15.0,2.02
-27.0,-6.0,2.021
7.0,0.0,2.022
58.0,-3.0,2.023
94.0,-6.0,2.024
105.0,5.0,2.025
95.0,23.0,2.026
72.0,23.0,2.027
34.0,2.0,2.028
-12.0,-14.0,2.029
-45.0,-8.0,2.03
-54.0,10.0,2.031
-46.0,22.0,2.032
-34.0,25.0,2.033
-18.0,24.0,2.034
0.0,21.0,2.035
15.0,14.0,2.036
20.0,8.0,2.037
14.0,2.0,2.038
0.0,-3.0,2.039
-17.0,-7.0,2.04
-25.0,-7.0,2.041
-22.0,-2.0,2.042
-19.0,0.0,2.043
-35.0,-1.0,2.044
-68.0,-1.0,2.045
-88.0,0.0,2.046
-69.0,-3.0,2.047
-18.0,-8.0,2.048
36.0,-12.0,2.049
81.0,-16.0,2.05
119.0,-16.0,2.051
141.0,-12.0,2.052
132.0,-11.0,2.053
100.0,-20.0,2.054
65.0,-31.0,2.055
35.0,-26.0,2.056
10.0,2.0,2.057
-11.0,42.0,2.058
-6.0,77.0,2.059
13.0,102.0,2.06
25.0,122.0,2.061
23.0,141.0,2.062
20.0,156.0,2.063
19.0,143.0,2.064
1.0,94.0,2.065
-30.0,15.0,2.066
-55.0,-61.0,2.067
-68.0,-112.0,2.068
-74.0,-141.0,2.069
-65.0,-162.0,2.07
-34.0,-176.0,2.071
-5.0,-182.0,2.072
-4.0,-182.0,2.073
-17.0,-177.0,2.074
-7.0,-159.0,2.075
19.0,-123.0,2.076
26.0,-82.0,2.077
11.0,-51.0,2.078
5.0,-31.0,2.079
19.0,-9.0,2.08
28.0,18.0,2.081
28.0,43.0,2.082
35.0,60.0,2.083
41.0,71.0,2.084
18.0,76.0,2.085
-24.0,72.0,2.086
-47.0,60.0,2.087
-42.0,48.0,2.088
-36.0,45.0,2.089
-46.0,49.0,2.09
-55.0,57.0,2.091
-65.0,55.0,2.092
-89.0,36.0,2.093
-114.0,16.0,2.094
-107.0,2.0,2.095
-75.0,-11.0,2.096
-51.0,-23.0,2.097
-38.0,-22.0,2.098
1.0,4.0,2.099
74.0,37.0,2.1
135.0,39.0,2.101
128.0,25.0,2.102
70.0,27.0,2.103
4.0,49.0,2.104
-43.0,64.0,2.105
-57.0,54.0,2.106
-15.0,28.0,2.107
76.0,7.0,2.108
161.0,-1.0,2.109
182.0,0.0,2.11
155.0,5.0,2.111
114.0,3.0,2.112
57.0,-3.0,2.113
-38.0,-4.0,2.114
-152.0,8.0,2.115
-239.0,22.0,2.116
-260.0,36.0,2.117
-201.0,61.0,2.118
-60.0,96.0,2.119
104.0,105.0,2.12
206.0,68.0,2.121
216.0,28.0,2.122
196.0,22.0,2.123
181.0,31.0,2.124
126.0,16.0,2.125
6.0,-9.0,2.126
-94.0,-6.0,2.127
-88.0,34.0,2.128
-15.0,69.0,2.129
23.0,75.0,2.13
15.0,58.0,2.131
18.0,18.0,2.132
28.0,-45.0,2.133
-17.0,-106.0,2.134
-114.0,-114.0,2.135
-165.0,-59.0,2.136
-108.0,13.0,2.137
16.0,36.0,2.138
122.0,-24.0,2.139
174.0,-127.0,2.14
192.0,-198.0,2.141
166.0,-201.0,2.142
81.0,-184.0,2.143
-27.0,-180.0,2.144
-78.0,-138.0,2.145
-44.0,-6.0,2.146
11.0,155.0,2.147
25.0,224.0,2.148
5.0,175.0,2.149
3.0,95.0,2.15
33.0,70.0,2.151
65.0,118.0,2.152
67.0,181.0,2.153
38.0,193.0,2.154
5.0,114.0,2.155
-5.0,-24.0,2.156
5.0,-156.0,2.157
12.0,-278.0,2.158
-6.0,-391.0,2.159
-26.0,-472.0,2.16
-12.0,-492.0,2.161
24.0,-454.0,2.162
7.0,-390.0,2.163
-90.0,-284.0,2.164
-214.0,-101.0,2.165
-282.0,115.0,2.166
-286.0,248.0,2.167
-276.0,254.0,2.168
-280.0,210.0,2.169
-275.0,176.0,2.17
-243.0,112.0,2.171
-185.0,-17.0,2.172
-115.0,-145.0,2.173
-38.0,-182.0,2.174
41.0,-147.0,2.175
127.0,-142.0,2.176
225.0,-198.0,2.177
325.0,-265.0,2.178
361.0,-278.0,2.179
300.0,-211.0,2.18
180.0,-53.0,2.181
60.0,193.0,2.182
-47.0,445.0,2.183
-131.0,575.0,2.184
-156.0,550.0,2.185
-126.0,480.0,2.186
-131.0,467.0,2.187
-253.0,486.0,2.188
-428.0,457.0,2.189
-469.0,365.0,2.19
-275.0,250.0,2.191
42.0,116.0,2.192
267.0,-44.0,2.193
306.0,-145.0,2.194
239.0,-60.0,2.195
179.0,205.0,2.196
169.0,450.0,2.197
243.0,510.0,2.198
438.0,381.0,2.199
678.0,200.0,2.2
788.0,43.0,2.201
679.0,-132.0,2.202
445.0,-361.0,2.203
223.0,-585.0,2.204
30.0,-751.0,2.205
-149.0,-875.0,2.206
-275.0,-973.0,2.207
-305.0,-976.0,2.208
-285.0,-839.0,2.209
-286.0,-633.0,2.21
-308.0,-451.0,2.211
-297.0,-278.0,2.212
-213.0,-53.0,2.213
-65.0,177.0,2.214
86.0,311.0,2.215
169.0,343.0,2.216
166.0,374.0,2.217
101.0,456.0,2.218
18.0,538.0,2.219
-61.0,559.0,2.22
-112.0,503.0,2.221
-118.0,382.0,2.222
-108.0,202.0,2.223
-123.0,36.0,2.224
-149.0,-27.0,2.225
-134.0,2.0,2.226
-84.0,37.0,2.227
-53.0,33.0,2.228
-45.0,19.0,2.229
-14.0,6.0,2.23
26.0,-35.0,2.231
0.0,-111.0,2.232
-105.0,-190.0,2.233
-193.0,-240.0,2.234
-204.0,-248.0,2.235
-178.0,-199.0,2.236
-157.0,-114.0,2.237
-111.0,-42.0,2.238
-17.0,-5.0,2.239
57.0,18.0,2.24
43.0,0.0,2.241
-35.0,-35.0,2.242
-74.0,-125.0,2.243
-12.0,-199.0,2.244
114.0,-226.0,2.245
224.0,-256.0,2.246
267.0,-292.0,2.247
232.0,-305.0,2.248
132.0,-245.0,2.249
-12.0,-150.0,2.25
-129.0,47.0,2.251
-143.0,231.0,2.252
-57.0,374.0,2.253
35.0,493.0,2.254
77.0,537.0,2.255
108.0,546.0,2.256
155.0,450.0,2.257
181.0,339.0,2.258
182.0,195.0,2.259
191.0,101.0,2.26
222.0,56.0,2.261
211.0,22.0,2.262
69.0,-56.0,2.263
-32.0,-191.0,2.264
-12.0,-328.0,2.265
1.0,-383.0,2.266
-11.0,-343.0,2.267
-22.0,-274.0,2.268
-33.0,-225.0,2.269
-57.0,-161.0,2.27
-121.0,-33.0,2.271
-199.0,113.0,2.272
-319.0,195.0,2.273
-403.0,190.0,2.274
-381.0,154.0,2.275
-332.0,124.0,2.276
-199.0,90.0,2.277
-62.0,43.0,2.278
82.0,16.0,2.279
237.0,27.0,2.28
381.0,40.0,2.281
416.0,32.0,2.282
296.0,-3.0,2.283
128.0,-61.0,2.284
44.0,-133.0,2.285
23.0,-180.0,2.286
-61.0,-173.0,2.287
-239.0,-117.0,2.288
-390.0,-37.0,2.289
-381.0,66.0,2.29
-184.0,183.0,2.291
121.0,236.0,2.292
408.0,142.0,2.293
577.0,-70.0,2.294
591.0,-282.0,2.295
477.0,-416.0,2.296
301.0,-469.0,2.297
115.0,-454.0,2.298
19.0,-356.0,2.299
33.0,-210.0,2.3
42.0,-77.0,2.301
-55.0,54.0,2.302
-191.0,238.0,2.303
-216.0,452.0,2.304
-141.0,585.0,2.305
-102.0,586.0,2.306
-134.0,521.0,2.307
-147.0,466.0,2.308
-118.0,401.0,2.309
-126.0,295.0,2.31
-184.0,194.0,2.311
-208.0,161.0,2.312
-156.0,164.0,2.313
-65.0,128.0,2.314
49.0,37.0,2.315
168.0,-40.0,2.316
211.0,-61.0,2.317
103.0,-47.0,2.318
-90.0,-30.0,2.319
-234.0,-29.0,2.32
-287.0,-43.0,2.321
-291.0,-70.0,2.322
-232.0,-121.0,2.323
-88.0,-193.0,2.324
31.0,-231.0,2.325
-10.0,-176.0,2.326
-144.0,-34.0,2.327
-161.0,112.0,2.328
5.0,206.0,2.329
219.0,275.0,2.33
349.0,367.0,2.331
400.0,457.0,2.332
408.0,466.0,2.333
374.0,359.0,2.334
300.0,172.0,2.335
206.0,-44.0,2.336
88.0,-264.0,2.337
-89.0,-524.0,2.338
-283.0,-784.0,2.339
-426.0,-947.0,2.34
-482.0,-950.0,2.341
-410.0,-850.0,2.342
-170.0,-753.0,2.343
134.0,-669.0,2.344
299.0,-509.0,2.345
279.0,-238.0,2.346
251.0,79.0,2.347
310.0,394.0,2.348
275.0,691.0,2.349
12.0,897.0,2.35
-290.0,909.0,2.351
-367.0,746.0,2.352
-250.0,566.0,2.353
-147.0,467.0,2.354
-112.0,406.0,2.355
-60.0,321.0,2.356
0.0,225.0,2.357
1.0,99.0,2.358
-4.0,-95.0,2.359
83.0,-325.0,2.36
178.0,-456.0,2.361
91.0,-398.0,2.362
-129.0,-215.0,2.363
-195.0,-37.0,2.364
13.0,53.0,2.365
284.0,27.0,2.366
406.0,-101.0,2.367
420.0,-248.0,2.368
423.0,-314.0,2.369
359.0,-299.0,2.37
157.0,-267.0,2.371
-89.0,-199.0,2.372
-244.0,-32.0,2.373
-308.0,183.0,2.374
-332.0,317.0,2.375
-270.0,342.0,2.376
-99.0,347.0,2.377
82.0,370.0,2.378
149.0,373.0,2.379
141.0,359.0,2.38
174.0,382.0,2.381
197.0,448.0,2.382
92.0,471.0,2.383
-92.0,406.0,2.384
-204.0,286.0,2.385
-247.0,127.0,2.386
-322.0,-102.0,2.387
-370.0,-394.0,2.388
-254.0,-659.0,2.389
-49.0,-800.0,2.39
38.0,-802.0,2.391
-11.0,-737.0,2.392
-33.0,-673.0,2.393
-1.0,-599.0,2.394
-35.0,-447.0,2.395
-143.0,-190.0,2.396
-219.0,93.0,2.397
-273.0,345.0,2.398
-348.0,497.0,2.399
-390.0,513.0,2.4
-342.0,410.0,2.401
-279.0,275.0,2.402
-194.0,193.0,2.403
151.0,143.0,2.404
819.0,34.0,2.405
1394.0,-134.0,2.406
1446.0,-240.0,2.407
1086.0,-234.0,2.408
722.0,-219.0,2.409
455.0,-268.0,2.41
102.0,-292.0,2.411
-340.0,-199.0,2.412
-650.0,-72.0,2.413
-704.0,-61.0,2.414
-600.0,-156.0,2.415
-497.0,-202.0,2.416
-468.0,-147.0,2.417
-461.0,-94.0,2.418
-335.0,-137.0,2.419
-38.0,-206.0,2.42
268.0,-152.0,2.421
377.0,57.0,2.422
311.0,291.0,2.423
236.0,443.0,2.424
202.0,532.0,2.425
155.0,611.0,2.426
98.0,634.0,2.427
52.0,529.0,2.428
-42.0,321.0,2.429
-205.0,119.0,2.43
-310.0,-9.0,2.431
-250.0,-89.0,2.432
-116.0,-158.0,2.433
-60.0,-237.0,2.434
-107.0,-373.0,2.435
-187.0,-609.0,2.436
-259.0,-883.0,2.437
-282.0,-1083.0,2.438
-168.0,-1072.0,2.439
105.0,-835.0,2.44
407.0,-468.0,2.441
553.0,-55.0,2.442
466.0,331.0,2.443
218.0,630.0,2.444
-45.0,790.0,2.445
-206.0,803.0,2.446
-230.0,692.0,2.447
-165.0,484.0,2.448
-70.0,225.0,2.449
20.0,-8.0,2.45
84.0,-138.0,2.451
97.0,-142.0,2.452
36.0,-57.0,2.453
-96.0,21.0,2.454
-241.0,-1.0,2.455
-307.0,-96.0,2.456
-278.0,-99.0,2.457
-228.0,97.0,2.458
-152.0,352.0,2.459
14.0,404.0,2.46
295.0,218.0,2.461
518.0,17.0,2.462
522.0,-66.0,2.463
401.0,-115.0,2.464
318.0,-193.0,2.465
216.0,-220.0,2.466
-7.0,-168.0,2.467
-190.0,-150.0,2.468
-120.0,-196.0,2.469
48.0,-169.0,2.47
-5.0,-2.0,2.471
-252.0,150.0,2.472
-385.0,155.0,2.473
-330.0,63.0,2.474
-303.0,-63.0,2.475
-360.0,-304.0,2.476
-298.0,-690.0,2.477
50.0,-1141.0,2.478
344.0,-1427.0,2.479
377.0,-1439.0,2.48
223.0,-1198.0,2.481
49.0,-727.0,2.482
-70.0,-94.0,2.483
-112.0,516.0,2.484
-34.0,921.0,2.485
134.0,1097.0,2.486
270.0,1139.0,2.487
282.0,1085.0,2.488
197.0,883.0,2.489
83.0,540.0,2.49
-22.0,170.0,2.491
-94.0,-98.0,2.492
-97.0,-224.0,2.493
-60.0,-255.0,2.494
-48.0,-235.0,2.495
-49.0,-155.0,2.496
1.0,12.0,2.497
68.0,274.0,2.498
25.0,526.0,2.499
-144.0,663.0,2.5
-238.0,680.0,2.501
-120.0,649.0,2.502
72.0,568.0,2.503
106.0,374.0,2.504
-66.0,93.0,2.505
-314.0,-141.0,2.506
-497.0,-247.0,2.507
-489.0,-267.0,2.508
-220.0,-247.0,2.509
188.0,-139.0,2.51
466.0,74.0,2.511
501.0,279.0,2.512
431.0,337.0,2.513
373.0,266.0,2.514
253.0,210.0,2.515
7.0,253.0,2.516
-226.0,334.0,2.517
-314.0,339.0,2.518
-242.0,211.0,2.519
-111.0,-5.0,2.52
12.0,-195.0,2.521
100.0,-273.0,2.522
132.0,-267.0,2.523
100.0,-279.0,2.524
45.0,-358.0,2.525
22.0,-467.0,2.526
12.0,-545.0,2.527
-112.0,-574.0,2.528
-438.0,-552.0,2.529
-775.0,-441.0,2.53
-732.0,-199.0,2.531
-177.0,148.0,2.532
506.0,479.0,2.533
827.0,661.0,2.534
723.0,665.0,2.535
497.0,568.0,2.536
345.0,443.0,2.537
215.0,249.0,2.538
99.0,-11.0,2.539
65.0,-238.0,2.54
74.0,-332.0,2.541
-6.0,-336.0,2.542
-161.0,-382.0,2.543
-260.0,-498.0,2.544
-290.0,-573.0,2.545
-334.0,-534.0,2.546
-339.0,-423.0,2.547
-184.0,-293.0,2.548
66.0,-121.0,2.549
221.0,126.0,2.55
255.0,394.0,2.551
288.0,575.0,2.552
302.0,613.0,2.553
158.0,535.0,2.554
-93.0,394.0,2.555
-212.0,230.0,2.556
-128.0,99.0,2.557
6.0,40.0,2.558
45.0,58.0,2.559
18.0,88.0,2.56
-23.0,64.0,2.561
-115.0,19.0,2.562
-220.0,29.0,2.563
-187.0,130.0,2.564
2.0,270.0,2.565
146.0,362.0,2.566
106.0,359.0,2.567
-12.0,280.0,2.568
-62.0,183.0,2.569
-86.0,88.0,2.57
-164.0,-33.0,2.571
-240.0,-201.0,2.572
-237.0,-381.0,2.573
-215.0,-511.0,2.574
-241.0,-560.0,2.575
-236.0,-521.0,2.576
-101.0,-382.0,2.577
130.0,-111.0,2.578
310.0,215.0,2.579
362.0,444.0,2.58
340.0,526.0,2.581
301.0,599.0,2.582
265.0,762.0,2.583
236.0,881.0,2.584
187.0,741.0,2.585
83.0,378.0,2.586
-56.0,43.0,2.587
-181.0,-157.0,2.588
-276.0,-380.0,2.589
-339.0,-744.0,2.59
-327.0,-1150.0,2.591
-227.0,-1477.0,2.592
-123.0,-1757.0,2.593
-79.0,-2028.0,2.594
-28.0,-2155.0,2.595
70.0,-1974.0,2.596
112.0,-1532.0,2.597
14.0,-907.0,2.598
-88.0,-222.0,2.599
-9.0,443.0,2.6
186.0,967.0,2.601
275.0,1261.0,2.602
225.0,1363.0,2.603
181.0,1386.0,2.604
188.0,1371.0,2.605
144.0,1274.0,2.606
46.0,1109.0,2.607
30.0,965.0,2.608
137.0,885.0,2.609
257.0,810.0,2.61
297.0,683.0,2.611
228.0,523.0,2.612
2.0,366.0,2.613
-375.0,210.0,2.614
-671.0,59.0,2.615
-583.0,-54.0,2.616
-185.0,-124.0,2.617
204.0,-210.0,2.618
322.0,-329.0,2.619
233.0,-414.0,2.62
98.0,-385.0,2.621
-78.0,-232.0,2.622
-260.0,-45.0,2.623
-300.0,59.0,2.624
-192.0,18.0,2.625
-112.0,-84.0,2.626
-108.0,-75.0,2.627
-29.0,92.0,2.628
143.0,271.0,2.629
200.0,337.0,2.63
71.0,369.0,2.631
-47.0,462.0,2.632
-16.0,489.0,2.633
53.0,269.0,2.634
62.0,-124.0,2.635
94.0,-441.0,2.636
184.0,-607.0,2.637
219.0,-800.0,2.638
123.0,-1110.0,2.639
28.0,-1422.0,2.64
85.0,-1548.0,2.641
216.0,-1426.0,2.642
232.0,-1127.0,2.643
98.0,-750.0,2.644
-57.0,-342.0,2.645
-149.0,110.0,2.646
-205.0,573.0,2.647
-271.0,895.0,2.648
-343.0,932.0,2.649
-415.0,731.0,2.65
-465.0,486.0,2.651
-404.0,284.0,2.652
-113.0,77.0,2.653
363.0,-120.0,2.654
763.0,-169.0,2.655
824.0,-19.0,2.656
582.0,170.0,2.657
237.0,259.0,2.658
4.0,265.0,2.659
-93.0,317.0,2.66
-144.0,430.0,2.661
-206.0,474.0,2.662
-272.0,350.0,2.663
-304.0,116.0,2.664
-265.0,-97.0,2.665
-156.0,-248.0,2.666
-51.0,-390.0,2.667
-35.0,-539.0,2.668
-109.0,-635.0,2.669
-184.0,-640.0,2.67
-180.0,-599.0,2.671
-111.0,-542.0,2.672
-53.0,-420.0,2.673
-35.0,-161.0,2.674
-14.0,207.0,2.675
53.0,565.0,2.676
135.0,779.0,2.677
169.0,830.0,2.678
106.0,788.0,2.679
-32.0,768.0,2.68
-167.0,805.0,2.681
-209.0,838.0,2.682
-124.0,797.0,2.683
40.0,667.0,2.684
206.0,423.0,2.685
317.0,1.0,2.686
336.0,-565.0,2.687
229.0,-1095.0,2.688
10.0,-1410.0,2.689
-202.0,-1482.0,2.69
-264.0,-1391.0,2.691
-130.0,-1207.0,2.692
103.0,-976.0,2.693
284.0,-721.0,2.694
320.0,-418.0,2.695
252.0,-46.0,2.696
194.0,295.0,2.697
181.0,524.0,2.698
171.0,635.0,2.699
143.0,733.0,2.7
162.0,838.0,2.701
248.0,828.0,2.702
300.0,629.0,2.703
210.0,344.0,2.704
7.0,108.0,2.705
-200.0,-50.0,2.706
-323.0,-139.0,2.707
-312.0,-122.0,2.708
-186.0,16.0,2.709
-73.0,233.0,2.71
-96.0,462.0,2.711
-211.0,644.0,2.712
-284.0,690.0,2.713
-282.0,556.0,2.714
-259.0,322.0,2.715
-197.0,116.0,2.716
-78.0,-16.0,2.717
20.0,-118.0,2.718
4.0,-180.0,2.719
-26.0,-212.0,2.72
74.0,-307.0,2.721
227.0,-499.0,2.722
237.0,-646.0,2.723
122.0,-590.0,2.724
46.0,-367.0,2.725
9.0,-127.0,2.726
-113.0,91.0,2.727
-278.0,308.0,2.728
-301.0,405.0,2.729
-169.0,205.0,2.73
-44.0,-255.0,2.731
7.0,-728.0,2.732
45.0,-1004.0,2.733
65.0,-1036.0,2.734
11.0,-839.0,2.735
-18.0,-445.0,2.736
119.0,11.0,2.737
381.0,400.0,2.738
506.0,591.0,2.739
346.0,607.0,2.74
17.0,565.0,2.741
-305.0,515.0,2.742
-501.0,382.0,2.743
-442.0,103.0,2.744
-72.0,-221.0,2.745
408.0,-385.0,2.746
656.0,-313.0,2.747
545.0,-135.0,2.748
264.0,3.0,2.749
25.0,104.0,2.75
-126.0,207.0,2.751
-204.0,268.0,2.752
-197.0,236.0,2.753
-162.0,172.0,2.754
-213.0,154.0,2.755
-342.0,132.0,2.756
-384.0,38.0,2.757
-242.0,-108.0,2.758
-22.0,-200.0,2.759
120.0,-219.0,2.76
161.0,-211.0,2.761
127.0,-152.0,2.762
-39.0,-6.0,2.763
-359.0,173.0,2.764
-619.0,313.0,2.765
-526.0,449.0,2.766
-58.0,622.0,2.767
480.0,732.0,2.768
789.0,664.0,2.769
833.0,472.0,2.77
718.0,314.0,2.771
510.0,232.0,2.772
256.0,173.0,2.773
48.0,126.0,2.774
-63.0,113.0,2.775
-137.0,58.0,2.776
-214.0,-115.0,2.777
-254.0,-367.0,2.778
-207.0,-513.0,2.779
-147.0,-487.0,2.78
-162.0,-398.0,2.781
-223.0,-341.0,2.782
-266.0,-314.0,2.783
-285.0,-316.0,2.784
-286.0,-377.0,2.785
-242.0,-437.0,2.786
-207.0,-365.0,2.787
-291.0,-160.0,2.788
-447.0,1.0,2.789
-458.0,9.0,2.79
-218.0,-19.0,2.791
135.0,73.0,2.792
464.0,213.0,2.793
740.0,197.0,2.794
856.0,-13.0,2.795
658.0,-266.0,2.796
284.0,-455.0,2.797
19.0,-649.0,2.798
0.0,-828.0,2.799
8.0,-843.0,2.8
-80.0,-607.0,2.801
-72.0,-237.0,2.802
128.0,104.0,2.803
268.0,389.0,2.804
155.0,661.0,2.805
-19.0,888.0,2.806
-35.0,1003.0,2.807
13.0,1001.0,2.808
-33.0,887.0,2.809
-87.0,632.0,2.81
-17.0,267.0,2.811
74.0,-60.0,2.812
28.0,-232.0,2.813
-122.0,-286.0,2.814
-237.0,-335.0,2.815
-278.0,-390.0,2.816
-259.0,-390.0,2.817
-158.0,-328.0,2.818
-20.0,-260.0,2.819
60.0,-205.0,2.82
-29.0,-128.0,2.821
-94.0,-22.0,2.822
-81.0,75.0,2.823
-59.0,165.0,2.824
-12.0,294.0,2.825
35.0,445.0,2.826
79.0,539.0,2.827
97.0,574.0,2.828
35.0,639.0,2.829
-38.0,756.0,2.83
-147.0,799.0,2.831
-222.0,668.0,2.832
-192.0,435.0,2.833
-146.0,227.0,2.834
-50.0,39.0,2.835
8.0,-223.0,2.836
-53.0,-555.0,2.837
-65.0,-901.0,2.838
114.0,-1155.0,2.839
208.0,-1280.0,2.84
119.0,-1280.0,2.841
1.0,-1147.0,2.842
-22.0,-875.0,2.843
-26.0,-469.0,2.844
-62.0,23.0,2.845
-33.0,497.0,2.846
102.0,822.0,2.847
207.0,922.0,2.848
152.0,832.0,2.849
-7.0,622.0,2.85
-125.0,339.0,2.851
-143.0,-3.0,2.852
-78.0,-384.0,2.853
63.0,-750.0,2.854
256.0,-1018.0,2.855
417.0,-1133.0,2.856
465.0,-1132.0,2.857
399.0,-1060.0,2.858
298.0,-886.0,2.859
234.0,-554.0,2.86
206.0,-117.0,2.861
174.0,285.0,2.862
117.0,576.0,2.863
35.0,786.0,2.864
-84.0,927.0,2.865
-271.0,978.0,2.866
-511.0,980.0,2.867
-731.0,1009.0,2.868
-818.0,1031.0,2.869
-657.0,940.0,2.87
-212.0,755.0,2.871
344.0,609.0,2.872
673.0,515.0,2.873
560.0,343.0,2.874
170.0,53.0,2.875
-123.0,-216.0,2.876
-151.0,-372.0,2.877
-45.0,-506.0,2.878
8.0,-665.0,2.879
-19.0,-770.0,2.88
-48.0,-711.0,2.881
-46.0,-592.0,2.882
-29.0,-292.0,2.883
-14.0,22.0,2.884
-16.0,378.0,2.885
-39.0,648.0,2.886
-44.0,660.0,2.887
3.0,624.0,2.888
35.0,446.0,2.889
-22.0,237.0,2.89
-100.0,-63.0,2.891
-73.0,-332.0,2.892
28.0,-505.0,2.893
64.0,-656.0,2.894
21.0,-736.0,2.895
37.0,-773.0,2.896
145.0,-679.0,2.897
201.0,-558.0,2.898
126.0,-346.0,2.899
44.0,-149.0,2.9
-61.0,10.0,2.901
-147.0,133.0,2.902
-173.0,219.0,2.903
-176.0,253.0,2.904
-107.0,214.0,2.905
-57.0,113.0,2.906
-66.0,19.0,2.907
-44.0,5.0,2.908
72.0,76.0,2.909
149.0,159.0,2.91
107.0,193.0,2.911
68.0,167.0,2.912
38.0,105.0,2.913
14.0,40.0,2.914
8.0,13.0,2.915
-5.0,50.0,2.916
-40.0,112.0,2.917
-67.0,138.0,2.918
-37.0,107.0,2.919
77.0,48.0,2.92
237.0,-12.0,2.921
325.0,-59.0,2.922
262.0,-48.0,2.923
96.0,80.0,2.924
-68.0,286.0,2.925
-177.0,438.0,2.926
-216.0,452.0,2.927
-176.0,382.0,2.928
-90.0,309.0,2.929
-64.0,246.0,2.93
-142.0,178.0,2.931
-221.0,113.0,2.932
-175.0,31.0,2.933
-34.0,-111.0,2.934
84.0,-286.0,2.935
141.0,-391.0,2.936
171.0,-387.0,2.937
161.0,-331.0,2.938
84.0,-287.0,2.939
1.0,-269.0,2.94
10.0,-302.0,2.941
103.0,-403.0,2.942
190.0,-517.0,2.943
208.0,-550.0,2.944
132.0,-496.0,2.945
-51.0,-424.0,2.946
-253.0,-345.0,2.947
-284.0,-200.0,2.948
-74.0,-1.0,2.949
185.0,149.0,2.95
263.0,218.0,2.951
170.0,263.0,2.952
77.0,311.0,2.953
56.0,307.0,2.954
39.0,239.0,2.955
-8.0,185.0,2.956
-41.0,206.0,2.957
-45.0,282.0,2.958
-53.0,367.0,2.959
-77.0,433.0,2.96
-83.0,442.0,2.961
-73.0,425.0,2.962
-85.0,331.0,2.963
-109.0,249.0,2.964
-117.0,202.0,2.965
-130.0,124.0,2.966
-173.0,-43.0,2.967
-197.0,-220.0,2.968
-120.0,-424.0,2.969
23.0,-566.0,2.97
113.0,-524.0,2.971
103.0,-465.0,2.972
49.0,-353.0,2.973
-13.0,-259.0,2.974
-82.0,-221.0,2.975
-114.0,-179.0,2.976
-47.0,-125.0,2.977
102.0,-68.0,2.978
222.0,1.0,2.979
247.0,81.0,2.98
215.0,155.0,2.981
162.0,195.0,2.982
95.0,187.0,2.983
36.0,168.0,2.984
21.0,183.0,2.985
33.0,232.0,2.986
21.0,252.0,2.987
-13.0,207.0,2.988
-37.0,132.0,2.989
-62.0,98.0,2.99
-105.0,124.0,2.991
-142.0,176.0,2.992
-141.0,215.0,2.993
-120.0,239.0,2.994
-97.0,260.0,2.995
-48.0,267.0,2.996
23.0,237.0,2.997
51.0,147.0,2.998
6.0,59.0,2.999
-61.0,8.0,3.0
-18.0,-31.0,3.001
120.0,-110.0,3.002
195.0,-235.0,3.003
127.0,-353.0,3.004
21.0,-430.0,3.005
-6.0,-494.0,3.006
15.0,-564.0,3.007
-2.0,-602.0,3.008
-47.0,-562.0,3.009
-60.0,-459.0,3.01
-58.0,-335.0,3.011
-84.0,-206.0,3.012
-93.0,-65.0,3.013
-17.0,83.0,3.014
106.0,224.0,3.015
174.0,353.0,3.016
164.0,447.0,3.017
107.0,475.0,3.018
33.0,409.0,3.019
-58.0,278.0,3.02
-129.0,136.0,3.021
-151.0,19.0,3.022
-162.0,-97.0,3.023
-188.0,-242.0,3.024
-156.0,-382.0,3.025
16.0,-449.0,3.026
257.0,-410.0,3.027
390.0,-295.0,3.028
345.0,-145.0,3.029
235.0,21.0,3.03
184.0,173.0,3.031
161.0,267.0,3.032
64.0,292.0,3.033
-102.0,283.0,3.034
-215.0,272.0,3.035
-210.0,244.0,3.036
-158.0,189.0,3.037
-146.0,110.0,3.038
-168.0,38.0,3.039
-163.0,-1.0,3.04
-114.0,10.0,3.041
-65.0,76.0,3.042
-52.0,164.0,3.043
-65.0,225.0,3.044
-76.0,238.0,3.045
-43.0,221.0,3.046
55.0,197.0,3.047
162.0,168.0,3.048
165.0,117.0,3.049
39.0,35.0,3.05
-94.0,-80.0,3.051
-118.0,-213.0,3.052
-45.0,-340.0,3.053
29.0,-437.0,3.054
49.0,-461.0,3.055
25.0,-369.0,3.056
-4.0,-198.0,3.057
7.0,-22.0,3.058
93.0,64.0,3.059
211.0,72.0,3.06
262.0,87.0,3.061
206.0,156.0,3.062
105.0,258.0,3.063
25.0,365.0,3.064
-36.0,464.0,3.065
-90.0,512.0,3.066
-110.0,455.0,3.067
-87.0,303.0,3.068
-66.0,114.0,3.069
-91.0,-79.0,3.07
-134.0,-283.0,3.071
-131.0,-467.0,3.072
-65.0,-571.0,3.073
11.0,-558.0,3.074
44.0,-460.0,3.075
35.0,-320.0,3.076
17.0,-160.0,3.077
2.0,50.0,3.078
6.0,293.0,3.079
19.0,498.0,3.08
21.0,590.0,3.081
-12.0,554.0,3.082
-50.0,426.0,3.083
-44.0,236.0,3.084
3.0,-16.0,3.085
34.0,-324.0,3.086
23.0,-623.0,3.087
12.0,-827.0,3.088
16.0,-882.0,3.089
-12.0,-799.0,3.09
-98.0,-638.0,3.091
-189.0,-482.0,3.092
-192.0,-376.0,3.093
-57.0,-317.0,3.094
179.0,-256.0,3.095
387.0,-160.0,3.096
437.0,-43.0,3.097
309.0,80.0,3.098
118.0,178.0,3.099
-35.0,229.0,3.1
-150.0,231.0,3.101
-228.0,213.0,3.102
-187.0,213.0,3.103
-21.0,250.0,3.104
109.0,311.0,3.105
76.0,373.0,3.106
-13.0,410.0,3.107
9.0,416.0,3.108
108.0,403.0,3.109
133.0,394.0,3.11
79.0,389.0,3.111
66.0,363.0,3.112
96.0,313.0,3.113
61.0,262.0,3.114
-45.0,213.0,3.115
-115.0,128.0,3.116
-116.0,-5.0,3.117
-116.0,-157.0,3.118
-133.0,-233.0,3.119
-120.0,-214.0,3.12
-68.0,-167.0,3.121
-34.0,-139.0,3.122
-30.0,-110.0,3.123
-28.0,-54.0,3.124
-39.0,20.0,3.125
-88.0,93.0,3.126
-151.0,154.0,3.127
-171.0,189.0,3.128
-125.0,177.0,3.129
-30.0,127.0,3.13
81.0,62.0,3.131
152.0,2.0,3.132
141.0,-55.0,3.133
81.0,-108.0,3.134
34.0,-151.0,3.135
22.0,-172.0,3.136
30.0,-157.0,3.137
55.0,-89.0,3.138
88.0,12.0,3.139
87.0,94.0,3.14
40.0,113.0,3.141
8.0,88.0,3.142
27.0,41.0,3.143
45.0,-35.0,3.144
12.0,-149.0,3.145
-29.0,-265.0,3.146
-24.0,-341.0,3.147
7.0,-365.0,3.148
24.0,-357.0,3.149
34.0,-322.0,3.15
51.0,-244.0,3.151
47.0,-123.0,3.152
12.0,9.0,3.153
-26.0,114.0,3.154
-52.0,176.0,3.155
-75.0,199.0,3.156
-80.0,191.0,3.157
-43.0,152.0,3.158
16.0,107.0,3.159
35.0,80.0,3.16
12.0,57.0,3.161
1.0,16.0,3.162
15.0,-49.0,3.163
11.0,-100.0,3.164
-17.0,-117.0,3.165
-33.0,-112.0,3.166
-33.0,-105.0,3.167
-38.0,-94.0,3.168
-40.0,-68.0,3.169
-10.0,-28.0,3.17
38.0,32.0,3.171
63.0,119.0,3.172
58.0,201.0,3.173
30.0,226.0,3.174
-23.0,195.0,3.175
-97.0,159.0,3.176
-155.0,148.0,3.177
-177.0,123.0,3.178
-161.0,58.0,3.179
-99.0,-7.0,3.18
32.0,-42.0,3.181
195.0,-75.0,3.182
297.0,-154.0,3.183
292.0,-250.0,3.184
220.0,-281.0,3.185
132.0,-231.0,3.186
35.0,-151.0,3.187
-47.0,-75.0,3.188
-69.0,6.0,3.189
-24.0,80.0,3.19
29.0,105.0,3.191
35.0,81.0,3.192
1.0,62.0,3.193
-24.0,77.0,3.194
-10.0,92.0,3.195
23.0,76.0,3.196
29.0,49.0,3.197
-5.0,31.0,3.198
-31.0,15.0,3.199
-14.0,-6.0,3.2
12.0,-17.0,3.201
-1.0,-3.0,3.202
-39.0,15.0,3.203
-53.0,21.0,3.204
-47.0,24.0,3.205
-50.0,35.0,3.206
-58.0,43.0,3.207
-47.0,37.0,3.208
-33.0,27.0,3.209
-36.0,22.0,3.21
-41.0,18.0,3.211
-26.0,14.0,3.212
-9.0,18.0,3.213
-5.0,29.0,3.214
0.0,32.0,3.215
22.0,24.0,3.216
40.0,15.0,3.217
41.0,9.0,3.218
40.0,3.0,3.219
43.0,-10.0,3.22
34.0,-22.0,3.221
5.0,-26.0,3.222
-19.0,-34.0,3.223
-19.0,-46.0,3.224
-14.0,-51.0,3.225
-21.0,-44.0,3.226
-22.0,-34.0,3.227
-11.0,-25.0,3.228
-5.0,-14.0,3.229
-14.0,-2.0,3.23
-17.0,1.0,3.231
-2.0,-8.0,3.232
12.0,-22.0,3.233
13.0,-31.0,3.234
13.0,-32.0,3.235
21.0,-24.0,3.236
29.0,-11.0,3.237
30.0,-3.0,3.238
31.0,-5.0,3.239
30.0,-13.0,3.24
26.0,-20.0,3.241
22.0,-14.0,3.242
29.0,-4.0,3.243
36.0,-2.0,3.244
22.0,-2.0,3.245
-4.0,6.0,3.246
-17.0,19.0,3.247
-14.0,21.0,3.248
-19.0,12.0,3.249
-36.0,14.0,3.25
-53.0,32.0,3.251
-63.0,39.0,3.252
-71.0,22.0,3.253
-63.0,-2.0,3.254
-28.0,0.0,3.255
18.0,25.0,3.256
41.0,42.0,3.257
33.0,36.0,3.258
15.0,21.0,3.259
-4.0,13.0,3.26
-21.0,5.0,3.261
-28.0,-3.0,3.262
-17.0,-6.0,3.263
-7.0,1.0,3.264
-13.0,6.0,3.265
-11.0,-7.0,3.266
20.0,-23.0,3.267
54.0,-23.0,3.268
58.0,-11.0,3.269
41.0,-14.0,3.27
34.0,-38.0,3.271
28.0,-63.0,3.272
13.0,-68.0,3.273
13.0,-56.0,3.274
46.0,-46.0,3.275
78.0,-49.0,3.276
61.0,-61.0,3.277
7.0,-79.0,3.278
-21.0,-95.0,3.279
1.0,-107.0,3.28
47.0,-117.0,3.281
74.0,-117.0,3.282
71.0,-109.0,3.283
44.0,-100.0,3.284
6.0,-103.0,3.285
-23.0,-115.0,3.286
-30.0,-121.0,3.287
-25.0,-111.0,3.288
-28.0,-101.0,3.289
-45.0,-95.0,3.29
-64.0,-81.0,3.291
-66.0,-43.0,3.292
-47.0,6.0,3.293
-20.0,41.0,3.294
-5.0,62.0,3.295
-4.0,95.0,3.296
-5.0,144.0,3.297
-2.0,176.0,3.298
11.0,180.0,3.299
26.0,174.0,3.3
34.0,176.0,3.301
31.0,181.0,3.302
18.0,172.0,3.303
2.0,158.0,3.304
-9.0,151.0,3.305
-16.0,144.0,3.306
-16.0,127.0,3.307
-16.0,111.0,3.308
-20.0,104.0,3.309
-25.0,98.0,3.31
-23.0,83.0,3.311
-15.0,66.0,3.312
-13.0,55.0,3.313
-19.0,52.0,3.314
-24.0,49.0,3.315
-19.0,41.0,3.316
-4.0,30.0,3.317
19.0,17.0,3.318
47.0,9.0,3.319
63.0,8.0,3.32
56.0,2.0,3.321
38.0,-6.0,3.322
28.0,-15.0,3.323
23.0,-15.0,3.324
14.0,-8.0,3.325
5.0,2.0,3.326
3.0,11.0,3.327
1.0,18.0,3.328
-4.0,17.0,3.329
-6.0,8.0,3.33
0.0,0.0,3.331
1.0,-3.0,3.332
-10.0,-8.0,3.333
-22.0,-20.0,3.334
-27.0,-31.0,3.335
-37.0,-36.0,3.336
-52.0,-41.0,3.337
-68.0,-50.0,3.338
-84.0,-58.0,3.339
-99.0,-57.0,3.34
-89.0,-56.0,3.341
-26.0,-49.0,3.342
70.0,-40.0,3.343
143.0,-32.0,3.344
164.0,-34.0,3.345
156.0,-43.0,3.346
143.0,-45.0,3.347
120.0,-33.0,3.348
82.0,-19.0,3.349
40.0,-11.0,3.35
3.0,-7.0,3.351
-21.0,-8.0,3.352
-31.0,-13.0,3.353
-26.0,-21.0,3.354
-28.0,-22.0,3.355
-45.0,-17.0,3.356
-54.0,-18.0,3.357
-43.0,-24.0,3.358
-25.0,-18.0,3.359
-24.0,-5.0,3.36
-33.0,-2.0,3.361
-29.0,-9.0,3.362
-12.0,-16.0,3.363
0.0,-11.0,3.364
-1.0,-11.0,3.365
-7.0,-19.0,3.366
-14.0,-26.0,3.367
-13.0,-22.0,3.368
4.0,-16.0,3.369
27.0,-15.0,3.37
37.0,-18.0,3.371
31.0,-17.0,3.372
20.0,-14.0,3.373
7.0,-12.0,3.374
-17.0,-10.0,3.375
-44.0,-6.0,3.376
-44.0,0.0,3.377
-21.0,0.0,3.378
-2.0,-1.0,3.379
-1.0,-3.0,3.38
6.0,-3.0,3.381
27.0,0.0,3.382
40.0,11.0,3.383
30.0,20.0,3.384
9.0,21.0,3.385
-1.0,21.0,3.386
-6.0,18.0,3.387
-16.0,12.0,3.388
-23.0,0.0,3.389
-22.0,-11.0,3.39
-21.0,-20.0,3.391
-24.0,-28.0,3.392
-22.0,-28.0,3.393
-8.0,-26.0,3.394
7.0,-12.0,3.395
13.0,-1.0,3.396
15.0,3.0,3.397
22.0,7.0,3.398
28.0,7.0,3.399
25.0,8.0,3.4
18.0,6.0,3.401
18.0,10.0,3.402
22.0,23.0,3.403
21.0,41.0,3.404
12.0,55.0,3.405
0.0,59.0,3.406
-4.0,50.0,3.407
-2.0,27.0,3.408
4.0,0.0,3.409
14.0,-18.0,3.41
19.0,-21.0,3.411
20.0,-19.0,3.412
16.0,-23.0,3.413
14.0,-31.0,3.414
18.0,-35.0,3.415
21.0,-37.0,3.416
19.0,-45.0,3.417
13.0,-65.0,3.418
9.0,-90.0,3.419
5.0,-108.0,3.42
3.0,-111.0,3.421
5.0,-89.0,3.422
13.0,-50.0,3.423
20.0,-12.0,3.424
20.0,13.0,3.425
12.0,25.0,3.426
0.0,35.0,3.427
-11.0,46.0,3.428
-23.0,61.0,3.429
-26.0,81.0,3.43
-18.0,106.0,3.431
-1.0,121.0,3.432
13.0,112.0,3.433
14.0,79.0,3.434
4.0,45.0,3.435
-12.0,28.0,3.436
-31.0,29.0,3.437
-50.0,35.0,3.438
-52.0,42.0,3.439
-41.0,42.0,3.44
-29.0,23.0,3.441
-27.0,-19.0,3.442
-25.0,-70.0,3.443
-17.0,-103.0,3.444
-10.0,-96.0,3.445
-14.0,-54.0,3.446
-20.0,-5.0,3.447
-16.0,28.0,3.448
-6.0,34.0,3.449
-5.0,25.0,3.45
-8.0,4.0,3.451
-7.0,-28.0,3.452
1.0,-73.0,3.453
14.0,-116.0,3.454
27.0,-134.0,3.455
37.0,-125.0,3.456
40.0,-99.0,3.457
38.0,-63.0,3.458
34.0,-15.0,3.459
34.0,37.0,3.46
37.0,85.0,3.461
44.0,120.0,3.462
52.0,133.0,3.463
56.0,111.0,3.464
42.0,56.0,3.465
21.0,-12.0,3.466
6.0,-76.0,3.467
2.0,-127.0,3.468
-3.0,-148.0,3.469
-16.0,-120.0,3.47
-28.0,-51.0,3.471
-33.0,24.0,3.472
-32.0,85.0,3.473
-25.0,131.0,3.474
-12.0,160.0,3.475
5.0,160.0,3.476
21.0,133.0,3.477
29.0,94.0,3.478
38.0,49.0,3.479
41.0,-12.0,3.48
37.0,-87.0,3.481
24.0,-137.0,3.482
12.0,-140.0,3.483
5.0,-118.0,3.484
1.0,-100.0,3.485
0.0,-87.0,3.486
-2.0,-67.0,3.487
-3.0,-44.0,3.488
-7.0,-19.0,3.489
-16.0,11.0,3.49
-26.0,44.0,3.491
-29.0,56.0,3.492
-25.0,34.0,3.493
-20.0,-4.0,3.494
-20.0,-32.0,3.495
-24.0,-37.0,3.496
-27.0,-24.0,3.497
-28.0,-5.0,3.498
-24.0,18.0,3.499
-19.0,45.0,3.5
-9.0,66.0,3.501
0.0,78.0,3.502
10.0,78.0,3.503
18.0,74.0,3.504
22.0,74.0,3.505
23.0,71.0,3.506
16.0,60.0,3.507
10.0,48.0,3.508
10.0,46.0,3.509
7.0,47.0,3.51
-2.0,39.0,3.511
-9.0,27.0,3.512
-7.0,22.0,3.513
-5.0,22.0,3.514
-1.0,17.0,3.515
4.0,8.0,3.516
12.0,5.0,3.517
19.0,5.0,3.518
19.0,3.0,3.519
10.0,-6.0,3.52
3.0,-17.0,3.521
5.0,-21.0,3.522
14.0,-18.0,3.523
19.0,-14.0,3.524
15.0,-12.0,3.525
4.0,-11.0,3.526
-1.0,-14.0,3.527
1.0,-19.0,3.528
3.0,-22.0,3.529
1.0,-22.0,3.53
-2.0,-22.0,3.531
-1.0,-21.0,3.532
2.0,-21.0,3.533
4.0,-20.0,3.534
7.0,-18.0,3.535
14.0,-18.0,3.536
20.0,-16.0,3.537
21.0,-13.0,3.538
17.0,-7.0,3.539
10.0,-4.0,3.54
10.0,-8.0,3.541
17.0,-12.0,3.542
27.0,-14.0,3.543
26.0,-16.0,3.544
16.0,-16.0,3.545
5.0,-15.0,3.546
2.0,-11.0,3.547
0.0,-8.0,3.548
-8.0,-7.0,3.549
-15.0,-6.0,3.55
-12.0,-7.0,3.551
-4.0,-8.0,3.552
-4.0,-5.0,3.553
-12.0,-2.0,3.554
-15.0,-2.0,3.555
-12.0,-3.0,3.556
-6.0,-2.0,3.557
-1.0,0.0,3.558
7.0,1.0,3.559
13.0,-2.0,3.56
17.0,-6.0,3.561
18.0,-4.0,3.562
21.0,-2.0,3.563
22.0,-3.0,3.564
15.0,-4.0,3.565
4.0,-2.0,3.566
-4.0,0.0,3.567
-10.0,-1.0,3.568
-17.0,-2.0,3.569
-21.0,-1.0,3.57
-18.0,2.0,3.571
-15.0,4.0,3.572
-11.0,3.0,3.573
-11.0,3.0,3.574
-8.0,0.0,3.575
-3.0,0.0,3.576
0.0,4.0,3.577
1.0,7.0,3.578
3.0,7.0,3.579
7.0,4.0,3.58
11.0,0.0,3.581
17.0,-1.0,3.582
24.0,-4.0,3.583
26.0,-6.0,3.584
18.0,-3.0,3.585
2.0,1.0,3.586
-9.0,2.0,3.587
-15.0,0.0,3.588
-19.0,1.0,3.589
-24.0,5.0,3.59
-24.0,5.0,3.591
-23.0,3.0,3.592
-20.0,7.0,3.593
-15.0,12.0,3.594
-6.0,7.0,3.595
4.0,-3.0,3.596
14.0,-3.0,3.597
18.0,2.0,3.598
21.0,6.0,3.599
24.0,1.0,3.6
26.0,-6.0,3.601
26.0,-7.0,3.602
25.0,-8.0,3.603
23.0,-7.0,3.604
16.0,-7.0,3.605
5.0,-6.0,3.606
0.0,-9.0,3.607
1.0,-11.0,3.608
-1.0,-9.0,3.609
-11.0,-5.0,3.61
-21.0,-3.0,3.611
-22.0,-2.0,3.612
-17.0,-3.0,3.613
-11.0,-2.0,3.614
-8.0,-3.0,3.615
-5.0,-2.0,3.616
-1.0,0.0,3.617
3.0,1.0,3.618
11.0,0.0,3.619
16.0,1.0,3.62
18.0,0.0,3.621
19.0,0.0,3.622
21.0,0.0,3.623
23.0,4.0,3.624
18.0,9.0,3.625
5.0,11.0,3.626
-5.0,7.0,3.627
-4.0,4.0,3.628
-4.0,4.0,3.629
-9.0,2.0,3.63
-19.0,-1.0,3.631
-20.0,-5.0,3.632
-14.0,-3.0,3.633
-5.0,3.0,3.634
-1.0,9.0,3.635
0.0,12.0,3.636
4.0,12.0,3.637
5.0,9.0,3.638
1.0,8.0,3.639
-1.0,9.0,3.64
7.0,5.0,3.641
24.0,1.0,3.642
37.0,-2.0,3.643
35.0,-3.0,3.644
20.0,-2.0,3.645
2.0,-3.0,3.646
-11.0,-5.0,3.647
-20.0,-6.0,3.648
-28.0,-7.0,3.649
-28.0,-6.0,3.65
-22.0,0.0,3.651
-16.0,7.0,3.652
-8.0,14.0,3.653
0.0,20.0,3.654
12.0,22.0,3.655
21.0,15.0,3.656
26.0,9.0,3.657
30.0,-1.0,3.658
33.0,-9.0,3.659
29.0,-18.0,3.66
22.0,-29.0,3.661
19.0,-37.0,3.662
23.0,-34.0,3.663
26.0,-31.0,3.664
18.0,-31.0,3.665
7.0,-29.0,3.666
0.0,-22.0,3.667
-2.0,-13.0,3.668
-9.0,-3.0,3.669
-16.0,4.0,3.67
-19.0,7.0,3.671
-16.0,10.0,3.672
-12.0,10.0,3.673
-8.0,9.0,3.674
-4.0,11.0,3.675
0.0,13.0,3.676
8.0,15.0,3.677
14.0,15.0,3.678
17.0,6.0,3.679
14.0,2.0,3.68
6.0,4.0,3.681
2.0,7.0,3.682
9.0,6.0,3.683
15.0,5.0,3.684
12.0,10.0,3.685
4.0,18.0,3.686
-1.0,24.0,3.687
-3.0,26.0,3.688
-6.0,21.0,3.689
-14.0,14.0,3.69
-21.0,13.0,3.691
-26.0,19.0,3.692
-29.0,26.0,3.693
-25.0,20.0,3.694
-12.0,6.0,3.695
6.0,-3.0,3.696
15.0,1.0,3.697
11.0,5.0,3.698
4.0,-3.0,3.699
1.0,-19.0,3.7
4.0,-35.0,3.701
7.0,-41.0,3.702
16.0,-46.0,3.703
19.0,-52.0,3.704
13.0,-52.0,3.705
-2.0,-43.0,3.706
-10.0,-34.0,3.707
-4.0,-32.0,3.708
10.0,-27.0,3.709
22.0,-8.0,3.71
33.0,19.0,3.711
39.0,40.0,3.712
37.0,52.0,3.713
19.0,61.0,3.714
-1.0,63.0,3.715
-10.0,60.0,3.716
-7.0,52.0,3.717
-4.0,40.0,3.718
-4.0,21.0,3.719
0.0,-1.0,3.72
12.0,-22.0,3.721
18.0,-36.0,3.722
9.0,-45.0,3.723
-5.0,-50.0,3.724
-11.0,-46.0,3.725
-13.0,-34.0,3.726
-21.0,-27.0,3.727
-33.0,-27.0,3.728
-34.0,-25.0,3.729
-17.0,-21.0,3.73
1.0,-18.0,3.731
1.0,-18.0,3.732
-10.0,-14.0,3.733
-12.0,-9.0,3.734
6.0,-5.0,3.735
30.0,-4.0,3.736
47.0,-1.0,3.737
55.0,5.0,3.738
59.0,10.0,3.739
49.0,13.0,3.74
26.0,14.0,3.741
4.0,21.0,3.742
-1.0,26.0,3.743
2.0,26.0,3.744
-2.0,25.0,3.745
-16.0,25.0,3.746
-27.0,26.0,3.747
-28.0,21.0,3.748
-28.0,17.0,3.749
-35.0,19.0,3.75
-40.0,18.0,3.751
-37.0,9.0,3.752
-33.0,-3.0,3.753
-31.0,-9.0,3.754
-28.0,-9.0,3.755
-17.0,-8.0,3.756
-5.0,-9.0,3.757
2.0,-15.0,3.758
9.0,-14.0,3.759
15.0,-13.0,3.76
19.0,-13.0,3.761
22.0,-13.0,3.762
30.0,-11.0,3.763
36.0,-7.0,3.764
27.0,4.0,3.765
8.0,12.0,3.766
-6.0,9.0,3.767
-10.0,7.0,3.768
-13.0,13.0,3.769
-21.0,18.0,3.77
-24.0,16.0,3.771
-18.0,13.0,3.772
-7.0,10.0,3.773
5.0,7.0,3.774
21.0,4.0,3.775
42.0,2.0,3.776
59.0,0.0,3.777
66.0,0.0,3.778
59.0,-1.0,3.779
45.0,-8.0,3.78
32.0,-14.0,3.781
22.0,-8.0,3.782
17.0,5.0,3.783
10.0,11.0,3.784
-1.0,14.0,3.785
-11.0,13.0,3.786
-13.0,5.0,3.787
-10.0,-5.0,3.788
-10.0,-13.0,3.789
-16.0,-15.0,3.79
-22.0,-16.0,3.791
-24.0,-17.0,3.792
-21.0,-14.0,3.793
-15.0,-6.0,3.794
-9.0,5.0,3.795
1.0,15.0,3.796
13.0,22.0,3.797
17.0,20.0,3.798
8.0,10.0,3.799
-4.0,2.0,3.8
-7.0,-3.0,3.801
1.0,0.0,3.802
9.0,2.0,3.803
13.0,10.0,3.804
11.0,29.0,3.805
5.0,51.0,3.806
-3.0,64.0,3.807
-8.0,57.0,3.808
-12.0,37.0,3.809
-17.0,11.0,3.81
-19.0,-19.0,3.811
-11.0,-47.0,3.812
6.0,-62.0,3.813
16.0,-68.0,3.814
12.0,-77.0,3.815
8.0,-92.0,3.816
13.0,-103.0,3.817
13.0,-106.0,3.818
0.0,-101.0,3.819
-15.0,-92.0,3.82
-17.0,-79.0,3.821
-8.0,-58.0,3.822
4.0,-36.0,3.823
17.0,-16.0,3.824
29.0,7.0,3.825
38.0,35.0,3.826
48.0,58.0,3.827
59.0,74.0,3.828
58.0,85.0,3.829
35.0,94.0,3.83
3.0,99.0,3.831
-16.0,98.0,3.832
-19.0,98.0,3.833
-21.0,104.0,3.834
-26.0,105.0,3.835
-25.0,92.0,3.836
-19.0,70.0,3.837
-21.0,43.0,3.838
-26.0,13.0,3.839
-25.0,-15.0,3.84
-14.0,-41.0,3.841
-1.0,-66.0,3.842
4.0,-83.0,3.843
0.0,-102.0,3.844
-9.0,-123.0,3.845
-28.0,-139.0,3.846
-45.0,-136.0,3.847
-52.0,-125.0,3.848
-45.0,-93.0,3.849
-33.0,-58.0,3.85
-16.0,-19.0,3.851
8.0,13.0,3.852
32.0,26.0,3.853
46.0,40.0,3.854
52.0,53.0,3.855
55.0,64.0,3.856
61.0,68.0,3.857
61.0,69.0,3.858
51.0,56.0,3.859
32.0,40.0,3.86
20.0,27.0,3.861
18.0,26.0,3.862
23.0,31.0,3.863
23.0,32.0,3.864
10.0,29.0,3.865
-8.0,26.0,3.866
-26.0,25.0,3.867
-45.0,21.0,3.868
-69.0,15.0,3.869
-88.0,12.0,3.87
-84.0,11.0,3.871
-59.0,10.0,3.872
-30.0,6.0,3.873
-9.0,6.0,3.874
15.0,6.0,3.875
43.0,4.0,3.876
60.0,2.0,3.877
53.0,16.0,3.878
40.0,51.0,3.879
35.0,87.0,3.88
38.0,97.0,3.881
36.0,79.0,3.882
36.0,47.0,3.883
39.0,25.0,3.884
31.0,19.0,3.885
12.0,16.0,3.886
0.0,0.0,3.887
5.0,-31.0,3.888
12.0,-65.0,3.889
-2.0,-95.0,3.89
-21.0,-126.0,3.891
-25.0,-161.0,3.892
-17.0,-185.0,3.893
-15.0,-184.0,3.894
-23.0,-153.0,3.895
-32.0,-105.0,3.896
-36.0,-60.0,3.897
-44.0,-32.0,3.898
-52.0,-22.0,3.899
-53.0,-10.0,3.9
-42.0,12.0,3.901
-13.0,48.0,3.902
33.0,71.0,3.903
84.0,70.0,3.904
123.0,60.0,3.905
140.0,55.0,3.906
143.0,62.0,3.907
134.0,81.0,3.908
107.0,102.0,3.909
62.0,114.0,3.91
16.0,110.0,3.911
-17.0,102.0,3.912
-40.0,99.0,3.913
-63.0,88.0,3.914
-90.0,58.0,3.915
-107.0,14.0,3.916
-107.0,-24.0,3.917
-88.0,-67.0,3.918
-60.0,-118.0,3.919
-34.0,-162.0,3.92
-15.0,-184.0,3.921
-3.0,-192.0,3.922
-5.0,-154.0,3.923
-21.0,-114.0,3.924
-44.0,-66.0,3.925
-52.0,-21.0,3.926
-40.0,8.0,3.927
-19.0,35.0,3.928
-4.0,51.0,3.929
7.0,61.0,3.93
23.0,54.0,3.931
44.0,46.0,3.932
60.0,39.0,3.933
66.0,34.0,3.934
64.0,39.0,3.935
57.0,43.0,3.936
50.0,40.0,3.937
43.0,35.0,3.938
40.0,26.0,3.939
36.0,20.0,3.94
30.0,18.0,3.941
23.0,25.0,3.942
14.0,32.0,3.943
0.0,35.0,3.944
-32.0,35.0,3.945
-58.0,36.0,3.946
-69.0,36.0,3.947
-74.0,28.0,3.948
-56.0,12.0,3.949
-42.0,-4.0,3.95
-40.0,-18.0,3.951
-36.0,-34.0,3.952
-24.0,-47.0,3.953
-13.0,-55.0,3.954
-6.0,-54.0,3.955
1.0,-48.0,3.956
10.0,-38.0,3.957
19.0,-21.0,3.958
30.0,-4.0,3.959
34.0,15.0,3.96
36.0,34.0,3.961
41.0,52.0,3.962
47.0,63.0,3.963
49.0,62.0,3.964
41.0,52.0,3.965
30.0,39.0,3.966
19.0,22.0,3.967
11.0,-3.0,3.968
-3.0,-36.0,3.969
-17.0,-67.0,3.97
-27.0,-91.0,3.971
-30.0,-98.0,3.972
-29.0,-85.0,3.973
-32.0,-51.0,3.974
-37.0,-8.0,3.975
-33.0,37.0,3.976
-14.0,83.0,3.977
17.0,118.0,3.978
42.0,126.0,3.979
63.0,97.0,3.98
73.0,44.0,3.981
76.0,-5.0,3.982
54.0,-45.0,3.983
35.0,-80.0,3.984
21.0,-104.0,3.985
12.0,-110.0,3.986
17.0,-101.0,3.987
20.0,-85.0,3.988
12.0,-57.0,3.989
4.0,-24.0,3.99
-1.0,-6.0,3.991
-6.0,-12.0,3.992
-6.0,-14.0,3.993
-14.0,12.0,3.994
-42.0,54.0,3.995
-64.0,81.0,3.996
-65.0,87.0,3.997
-59.0,82.0,3.998
-35.0,72.0,3.999
-19.0,46.0,4.0
-1.0,3.0,4.001
29.0,-40.0,4.002
58.0,-82.0,4.003
70.0,-116.0,4.004
70.0,-132.0,4.005
68.0,-121.0,4.006
62.0,-91.0,4.007
44.0,-55.0,4.008
19.0,-18.0,4.009
-2.0,16.0,4.01
-17.0,38.0,4.011
-32.0,46.0,4.012
-47.0,51.0,4.013
-56.0,61.0,4.014
-62.0,68.0,4.015
-63.0,63.0,4.016
-56.0,53.0,4.017
-44.0,44.0,4.018
-32.0,39.0,4.019
-29.0,33.0,4.02
-26.0,23.0,4.021
-13.0,20.0,4.022
9.0,22.0,4.023
24.0,26.0,4.024
28.0,25.0,4.025
28.0,20.0,4.026
30.0,12.0,4.027
25.0,7.0,4.028
7.0,3.0,4.029
-14.0,2.0,4.03
-21.0,1.0,4.031
-17.0,0.0,4.032
-14.0,0.0,4.033
-15.0,2.0,4.034
-11.0,4.0,4.035
1.0,8.0,4.036
13.0,11.0,4.037
18.0,8.0,4.038
22.0,2.0,4.039
26.0,-3.0,4.04
27.0,-7.0,4.041
29.0,-8.0,4.042
35.0,-11.0,4.043
41.0,-12.0,4.044
34.0,-10.0,4.045
16.0,-7.0,4.046
3.0,-9.0,4.047
0.0,-12.0,4.048
-4.0,-11.0,4.049
-15.0,-8.0,4.05
-20.0,-7.0,4.051
-18.0,-10.0,4.052
-14.0,-10.0,4.053
-12.0,-8.0,4.054
-4.0,-5.0,4.055
10.0,-3.0,4.056
20.0,1.0,4.057
21.0,0.0,4.058
25.0,-3.0,4.059
30.0,-8.0,4.06
28.0,-10.0,4.061
17.0,-8.0,4.062
8.0,-7.0,4.063
3.0,-7.0,4.064
0.0,-5.0,4.065
-7.0,-5.0,4.066
-12.0,-10.0,4.067
-15.0,-17.0,4.068
-21.0,-17.0,4.069
-29.0,-11.0,4.07
-29.0,-8.0,4.071
-23.0,-5.0,4.072
-18.0,6.0,4.073
-15.0,25.0,4.074
-3.0,29.0,4.075
15.0,16.0,4.076
28.0,2.0,4.077
26.0,-4.0,4.078
22.0,-3.0,4.079
23.0,-5.0,4.08
26.0,-11.0,4.081
29.0,-9.0,4.082
32.0,-7.0,4.083
33.0,-11.0,4.084
21.0,-13.0,4.085
-3.0,-7.0,4.086
-23.0,1.0,4.087
-28.0,3.0,4.088
-31.0,0.0,4.089
-37.0,0.0,4.09
-37.0,3.0,4.091
-17.0,0.0,4.092
9.0,-6.0,4.093
17.0,-7.0,4.094
6.0,-5.0,4.095
-2.0,-4.0,4.096
4.0,-3.0,4.097
15.0,-1.0,4.098
15.0,1.0,4.099
3.0,3.0,4.1
4.0,0.0,4.101
22.0,5.0,4.102
41.0,13.0,4.103
40.0,21.0,4.104
30.0,26.0,4.105
21.0,31.0,4.106
13.0,33.0,4.107
-3.0,29.0,4.108
-23.0,21.0,4.109
-35.0,11.0,4.11
-41.0,-6.0,4.111
-44.0,-29.0,4.112
-48.0,-43.0,4.113
-44.0,-34.0,4.114
-40.0,-12.0,4.115
-35.0,0.0,4.116
-25.0,-1.0,4.117
-6.0,-10.0,4.118
14.0,-16.0,4.119
24.0,-21.0,4.12
26.0,-25.0,4.121
33.0,-22.0,4.122
44.0,-18.0,4.123
49.0,-19.0,4.124
43.0,-23.0,4.125
35.0,-19.0,4.126
37.0,-7.0,4.127
43.0,3.0,4.128
40.0,8.0,4.129
31.0,14.0,4.13
23.0,22.0,4.131
20.0,26.0,4.132
18.0,25.0,4.133
14.0,25.0,4.134
7.0,31.0,4.135
-1.0,45.0,4.136
-4.0,68.0,4.137
-2.0,98.0,4.138
10.0,126.0,4.139
25.0,135.0,4.14
27.0,113.0,4.141
12.0,71.0,4.142
-6.0,28.0,4.143
-16.0,-5.0,4.144
-25.0,-22.0,4.145
-38.0,-38.0,4.146
-43.0,-77.0,4.147
-36.0,-139.0,4.148
-26.0,-198.0,4.149
-32.0,-235.0,4.15
-52.0,-247.0,4.151
-63.0,-233.0,4.152
-53.0,-184.0,4.153
-25.0,-111.0,4.154
-1.0,-42.0,4.155
-4.0,6.0,4.156
-33.0,42.0,4.157
-80.0,69.0,4.158
-122.0,79.0,4.159
-140.0,87.0,4.16
-115.0,84.0,4.161
-31.0,91.0,4.162
105.0,129.0,4.163
251.0,164.0,4.164
343.0,188.0,4.165
340.0,198.0,4.166
261.0,168.0,4.167
157.0,131.0,4.168
75.0,76.0,4.169
19.0,20.0,4.17
-29.0,-35.0,4.171
-76.0,-90.0,4.172
-111.0,-145.0,4.173
-124.0,-192.0,4.174
-124.0,-212.0,4.175
-117.0,-223.0,4.176
-100.0,-204.0,4.177
-76.0,-178.0,4.178
-54.0,-131.0,4.179
-44.0,-78.0,4.18
-35.0,-20.0,4.181
-13.0,47.0,4.182
8.0,107.0,4.183
17.0,148.0,4.184
10.0,165.0,4.185
0.0,159.0,4.186
-7.0,139.0,4.187
-11.0,110.0,4.188
-11.0,85.0,4.189
-8.0,59.0,4.19
-2.0,25.0,4.191
4.0,-16.0,4.192
12.0,-57.0,4.193
21.0,-94.0,4.194
23.0,-114.0,4.195
17.0,-110.0,4.196
12.0,-87.0,4.197
7.0,-53.0,4.198
2.0,-15.0,4.199
-7.0,18.0,4.2
-17.0,39.0,4.201
-18.0,55.0,4.202
-9.0,55.0,4.203
-1.0,54.0,4.204
0.0,50.0,4.205
0.0,45.0,4.206
10.0,38.0,4.207
24.0,32.0,4.208
30.0,33.0,4.209
23.0,33.0,4.21
13.0,25.0,4.211
10.0,17.0,4.212
13.0,14.0,4.213
11.0,10.0,4.214
5.0,7.0,4.215
0.0,4.0,4.216
-4.0,0.0,4.217
-10.0,-3.0,4.218
-9.0,-4.0,4.219
0.0,-4.0,4.22
10.0,-9.0,4.221
15.0,-8.0,4.222
23.0,1.0,4.223
33.0,25.0,4.224
34.0,55.0,4.225
24.0,73.0,4.226
19.0,66.0,4.227
28.0,35.0,4.228
37.0,-2.0,4.229
29.0,-35.0,4.23
8.0,-67.0,4.231
-4.0,-96.0,4.232
-2.0,-113.0,4.233
4.0,-108.0,4.234
2.0,-90.0,4.235
-3.0,-78.0,4.236
-2.0,-70.0,4.237
0.0,-60.0,4.238
-1.0,-45.0,4.239
-8.0,-32.0,4.24
-15.0,-20.0,4.241
-12.0,-1.0,4.242
-8.0,19.0,4.243
-17.0,31.0,4.244
-38.0,35.0,4.245
-50.0,38.0,4.246
-39.0,38.0,4.247
-11.0,32.0,4.248
12.0,22.0,4.249
28.0,18.0,4.25
47.0,20.0,4.251
67.0,22.0,4.252
72.0,26.0,4.253
55.0,37.0,4.254
37.0,47.0,4.255
26.0,48.0,4.256
13.0,42.0,4.257
-13.0,31.0,4.258
-33.0,21.0,4.259
-38.0,7.0,4.26
-37.0,-12.0,4.261
-39.0,-21.0,4.262
-29.0,-19.0,4.263
-6.0,-13.0,4.264
10.0,-14.0,4.265
6.0,-22.0,4.266
-5.0,-35.0,4.267
-9.0,-50.0,4.268
-13.0,-60.0,4.269
-22.0,-56.0,4.27
-28.0,-39.0,4.271
-27.0,-24.0,4.272
-23.0,-25.0,4.273
-21.0,-37.0,4.274
-14.0,-46.0,4.275
-1.0,-39.0,4.276
6.0,-18.0,4.277
10.0,0.0,4.278
14.0,14.0,4.279
23.0,23.0,4.28
35.0,26.0,4.281
46.0,28.0,4.282
58.0,31.0,4.283
63.0,37.0,4.284
52.0,43.0,4.285
28.0,42.0,4.286
14.0,34.0,4.287
11.0,31.0,4.288
1.0,43.0,4.289
-17.0,65.0,4.29
-34.0,81.0,4.291
-40.0,79.0,4.292
-40.0,60.0,4.293
-40.0,31.0,4.294
-31.0,0.0,4.295
-9.0,-29.0,4.296
14.0,-48.0,4.297
27.0,-68.0,4.298
27.0,-86.0,4.299
16.0,-93.0,4.3
7.0,-89.0,4.301
6.0,-79.0,4.302
12.0,-71.0,4.303
13.0,-63.0,4.304
4.0,-41.0,4.305
-11.0,-9.0,4.306
-23.0,19.0,4.307
-34.0,32.0,4.308
-47.0,36.0,4.309
-57.0,35.0,4.31
-52.0,31.0,4.311
-33.0,22.0,4.312
-11.0,16.0,4.313
15.0,13.0,4.314
50.0,13.0,4.315
87.0,17.0,4.316
106.0,24.0,4.317
100.0,25.0,4.318
87.0,17.0,4.319
79.0,9.0,4.32
68.0,-1.0,4.321
48.0,-4.0,4.322
29.0,-4.0,4.323
18.0,-1.0,4.324
2.0,4.0,4.325
-24.0,8.0,4.326
-47.0,5.0,4.327
-56.0,4.0,4.328
-64.0,7.0,4.329
-81.0,9.0,4.33
-97.0,4.0,4.331
-93.0,0.0,4.332
-78.0,5.0,4.333
-66.0,13.0,4.334
-50.0,13.0,4.335
-16.0,1.0,4.336
31.0,-11.0,4.337
65.0,-19.0,4.338
78.0,-20.0,4.339
78.0,-18.0,4.34
74.0,-16.0,4.341
61.0,-12.0,4.342
42.0,-7.0,4.343
29.0,-1.0,4.344
22.0,0.0,4.345
9.0,3.0,4.346
-8.0,14.0,4.347
-17.0,34.0,4.348
-18.0,54.0,4.349
-20.0,64.0,4.35
-31.0,64.0,4.351
-39.0,58.0,4.352
-35.0,40.0,4.353
-24.0,8.0,4.354
-16.0,-22.0,4.355
-15.0,-38.0,4.356
-20.0,-40.0,4.357
-26.0,-45.0,4.358
-22.0,-47.0,4.359
-7.0,-35.0,4.36
10.0,-10.0,4.361
24.0,18.0,4.362
34.0,47.0,4.363
39.0,87.0,4.364
31.0,128.0,4.365
11.0,134.0,4.366
-1.0,89.0,4.367
4.0,19.0,4.368
10.0,-41.0,4.369
9.0,-89.0,4.37
7.0,-133.0,4.371
9.0,-171.0,4.372
7.0,-200.0,4.373
-1.0,-229.0,4.374
-3.0,-259.0,4.375
6.0,-265.0,4.376
17.0,-226.0,4.377
22.0,-142.0,4.378
26.0,-33.0,4.379
32.0,77.0,4.38
36.0,162.0,4.381
37.0,212.0,4.382
39.0,230.0,4.383
40.0,230.0,4.384
26.0,209.0,4.385
1.0,150.0,4.386
-19.0,68.0,4.387
-24.0,-2.0,4.388
-24.0,-51.0,4.389
-25.0,-96.0,4.39
-17.0,-132.0,4.391
0.0,-134.0,4.392
12.0,-96.0,4.393
1.0,-53.0,4.394
-25.0,-35.0,4.395
-52.0,-39.0,4.396
-67.0,-42.0,4.397
-72.0,-38.0,4.398
-66.0,-22.0,4.399
-53.0,5.0,4.4
-35.0,32.0,4.401
-15.0,45.0,4.402
8.0,52.0,4.403
28.0,73.0,4.404
33.0,113.0,4.405
27.0,142.0,4.406
22.0,142.0,4.407
28.0,116.0,4.408
34.0,90.0,4.409
31.0,75.0,4.41
21.0,73.0,4.411
17.0,90.0,4.412
21.0,145.0,4.413
24.0,229.0,4.414
23.0,291.0,4.415
15.0,265.0,4.416
4.0,151.0,4.417
-6.0,-5.0,4.418
-6.0,-123.0,4.419
0.0,-180.0,4.42
5.0,-224.0,4.421
4.0,-292.0,4.422
2.0,-386.0,4.423
8.0,-463.0,4.424
9.0,-475.0,4.425
4.0,-408.0,4.426
-3.0,-292.0,4.427
-3.0,-168.0,4.428
-2.0,-40.0,4.429
-7.0,98.0,4.43
-9.0,203.0,4.431
-2.0,215.0,4.432
8.0,166.0,4.433
15.0,154.0,4.434
22.0,208.0,4.435
39.0,243.0,4.436
56.0,204.0,4.437
59.0,139.0,4.438
50.0,153.0,4.439
36.0,264.0,4.44
30.0,387.0,4.441
27.0,427.0,4.442
26.0,336.0,4.443
27.0,131.0,4.444
23.0,-111.0,4.445
8.0,-308.0,4.446
-20.0,-428.0,4.447
-57.0,-493.0,4.448
-94.0,-533.0,4.449
-118.0,-547.0,4.45
-119.0,-525.0,4.451
-104.0,-461.0,4.452
-77.0,-337.0,4.453
-45.0,-152.0,4.454
-10.0,49.0,4.455
25.0,193.0,4.456
48.0,250.0,4.457
65.0,257.0,4.458
78.0,259.0,4.459
85.0,251.0,4.46
82.0,213.0,4.461
69.0,175.0,4.462
59.0,158.0,4.463
57.0,123.0,4.464
50.0,20.0,4.465
31.0,-115.0,4.466
10.0,-179.0,4.467
-3.0,-123.0,4.468
-8.0,-13.0,4.469
-12.0,66.0,4.47
-16.0,120.0,4.471
-19.0,182.0,4.472
-34.0,242.0,4.473
-63.0,262.0,4.474
-95.0,251.0,4.475
-113.0,239.0,4.476
-112.0,219.0,4.477
-99.0,134.0,4.478
-72.0,-10.0,4.479
-35.0,-152.0,4.48
-4.0,-230.0,4.481
5.0,-245.0,4.482
6.0,-216.0,4.483
16.0,-145.0,4.484
31.0,-52.0,4.485
34.0,-1.0,4.486
28.0,-36.0,4.487
30.0,-108.0,4.488
38.0,-127.0,4.489
43.0,-76.0,4.49
42.0,-14.0,4.491
46.0,10.0,4.492
50.0,6.0,4.493
46.0,-22.0,4.494
37.0,-94.0,4.495
41.0,-178.0,4.496
54.0,-190.0,4.497
64.0,-71.0,4.498
63.0,113.0,4.499
56.0,237.0,4.5
46.0,227.0,4.501
35.0,117.0,4.502
26.0,-39.0,4.503
20.0,-196.0,4.504
9.0,-292.0,4.505
-4.0,-277.0,4.506
-10.0,-166.0,4.507
-16.0,-26.0,4.508
-39.0,89.0,4.509
-76.0,183.0,4.51
-90.0,264.0,4.511
-61.0,325.0,4.512
-19.0,344.0,4.513
2.0,300.0,4.514
4.0,177.0,4.515
-2.0,1.0,4.516
-19.0,-126.0,4.517
-53.0,-116.0,4.518
-81.0,33.0,4.519
-75.0,199.0,4.52
-45.0,250.0,4.521
-15.0,189.0,4.522
18.0,112.0,4.523
57.0,77.0,4.524
79.0,65.0,4.525
61.0,37.0,4.526
23.0,-20.0,4.527
-2.0,-108.0,4.528
-15.0,-235.0,4.529
-44.0,-368.0,4.53
-88.0,-449.0,4.531
-119.0,-441.0,4.532
-125.0,-375.0,4.533
-114.0,-295.0,4.534
-87.0,-216.0,4.535
-32.0,-136.0,4.536
44.0,-65.0,4.537
129.0,-4.0,4.538
206.0,56.0,4.539
260.0,118.0,4.54
275.0,159.0,4.541
243.0,175.0,4.542
185.0,183.0,4.543
121.0,209.0,4.544
65.0,249.0,4.545
21.0,269.0,4.546
-5.0,264.0,4.547
-22.0,262.0,4.548
-46.0,289.0,4.549
-89.0,314.0,4.55
-129.0,258.0,4.551
-140.0,83.0,4.552
-122.0,-149.0,4.553
-93.0,-330.0,4.554
-67.0,-412.0,4.555
-51.0,-448.0,4.556
-48.0,-492.0,4.557
-51.0,-553.0,4.558
-46.0,-586.0,4.559
-38.0,-566.0,4.56
-34.0,-491.0,4.561
-40.0,-360.0,4.562
-38.0,-189.0,4.563
-26.0,-17.0,4.564
-11.0,130.0,4.565
1.0,268.0,4.566
20.0,416.0,4.567
47.0,545.0,4.568
76.0,613.0,4.569
86.0,626.0,4.57
53.0,627.0,4.571
-32.0,627.0,4.572
-135.0,586.0,4.573
-198.0,476.0,4.574
-195.0,332.0,4.575
-157.0,202.0,4.576
-106.0,94.0,4.577
-21.0,-8.0,4.578
92.0,-72.0,4.579
178.0,-119.0,4.58
204.0,-117.0,4.581
200.0,-148.0,4.582
191.0,-276.0,4.583
154.0,-379.0,4.584
86.0,-408.0,4.585
38.0,-422.0,4.586
28.0,-384.0,4.587
9.0,-335.0,4.588
-36.0,-252.0,4.589
-57.0,-143.0,4.59
-25.0,38.0,4.591
7.0,220.0,4.592
0.0,399.0,4.593
-2.0,546.0,4.594
34.0,594.0,4.595
70.0,645.0,4.596
74.0,703.0,4.597
76.0,705.0,4.598
97.0,431.0,4.599
95.0,73.0,4.6
48.0,-219.0,4.601
11.0,-458.0,4.602
27.0,-691.0,4.603
54.0,-847.0,4.604
34.0,-885.0,4.605
-13.0,-925.0,4.606
-40.0,-1045.0,4.607
-55.0,-1124.0,4.608
-89.0,-1015.0,4.609
-134.0,-776.0,4.61
-156.0,-546.0,4.611
-143.0,-321.0,4.612
-119.0,-23.0,4.613
-99.0,309.0,4.614
-82.0,547.0,4.615
-65.0,648.0,4.616
-39.0,677.0,4.617
-3.0,690.0,4.618
39.0,689.0,4.619
73.0,644.0,4.62
97.0,527.0,4.621
108.0,358.0,4.622
92.0,205.0,4.623
42.0,129.0,4.624
-25.0,124.0,4.625
-78.0,163.0,4.626
-88.0,253.0,4.627
-52.0,378.0,4.628
-3.0,446.0,4.629
15.0,357.0,4.63
-7.0,144.0,4.631
-39.0,-81.0,4.632
-48.0,-282.0,4.633
-40.0,-498.0,4.634
-37.0,-733.0,4.635
-43.0,-914.0,4.636
-41.0,-976.0,4.637
-25.0,-910.0,4.638
-6.0,-723.0,4.639
3.0,-441.0,4.64
10.0,-129.0,4.641
23.0,130.0,4.642
55.0,297.0,4.643
96.0,395.0,4.644
130.0,460.0,4.645
137.0,492.0,4.646
115.0,484.0,4.647
72.0,442.0,4.648
24.0,402.0,4.649
-14.0,428.0,4.65
-31.0,560.0,4.651
-37.0,744.0,4.652
-50.0,830.0,4.653
-74.0,721.0,4.654
-101.0,477.0,4.655
-124.0,241.0,4.656
-130.0,77.0,4.657
-99.0,-86.0,4.658
-30.0,-277.0,4.659
43.0,-459.0,4.66
95.0,-595.0,4.661
123.0,-678.0,4.662
134.0,-706.0,4.663
117.0,-659.0,4.664
74.0,-549.0,4.665
38.0,-422.0,4.666
39.0,-285.0,4.667
56.0,-109.0,4.668
58.0,82.0,4.669
50.0,200.0,4.67
53.0,194.0,4.671
59.0,108.0,4.672
47.0,10.0,4.673
28.0,-59.0,4.674
16.0,-92.0,4.675
2.0,-95.0,4.676
-17.0,-100.0,4.677
-34.0,-135.0,4.678
-25.0,-178.0,4.679
-2.0,-170.0,4.68
16.0,-77.0,4.681
23.0,109.0,4.682
23.0,351.0,4.683
6.0,543.0,4.684
-41.0,562.0,4.685
-107.0,398.0,4.686
-159.0,171.0,4.687
-174.0,-9.0,4.688
-153.0,-157.0,4.689
-95.0,-314.0,4.69
-25.0,-432.0,4.691
22.0,-444.0,4.692
29.0,-379.0,4.693
20.0,-312.0,4.694
18.0,-246.0,4.695
22.0,-144.0,4.696
17.0,-21.0,4.697
6.0,80.0,4.698
6.0,145.0,4.699
3.0,193.0,4.7
-23.0,225.0,4.701
-53.0,227.0,4.702
-49.0,209.0,4.703
-6.0,201.0,4.704
38.0,215.0,4.705
56.0,224.0,4.706
53.0,211.0,4.707
35.0,179.0,4.708
3.0,144.0,4.709
-28.0,125.0,4.71
-28.0,149.0,4.711
5.0,232.0,4.712
37.0,362.0,4.713
40.0,477.0,4.714
27.0,501.0,4.715
17.0,395.0,4.716
12.0,207.0,4.717
1.0,-9.0,4.718
-2.0,-197.0,4.719
1.0,-378.0,4.72
10.0,-535.0,4.721
21.0,-651.0,4.722
37.0,-644.0,4.723
50.0,-590.0,4.724
47.0,-399.0,4.725
28.0,-232.0,4.726
15.0,-136.0,4.727
14.0,-49.0,4.728
14.0,4.0,4.729
6.0,60.0,4.73
-1.0,118.0,4.731
5.0,166.0,4.732
19.0,182.0,4.733
32.0,201.0,4.734
39.0,229.0,4.735
39.0,246.0,4.736
37.0,227.0,4.737
29.0,193.0,4.738
21.0,99.0,4.739
10.0,-12.0,4.74
-2.0,-119.0,4.741
-8.0,-159.0,4.742
-6.0,-82.0,4.743
-11.0,55.0,4.744
-28.0,98.0,4.745
-46.0,-35.0,4.746
-42.0,-211.0,4.747
-20.0,-220.0,4.748
-2.0,-46.0,4.749
-5.0,113.0,4.75
-19.0,99.0,4.751
-25.0,-43.0,4.752
-18.0,-187.0,4.753
1.0,-265.0,4.754
28.0,-282.0,4.755
46.0,-248.0,4.756
43.0,-200.0,4.757
21.0,-191.0,4.758
-1.0,-225.0,4.759
-9.0,-223.0,4.76
1.0,-147.0,4.761
23.0,-27.0,4.762
42.0,74.0,4.763
46.0,141.0,4.764
20.0,178.0,4.765
-22.0,190.0,4.766
-51.0,188.0,4.767
-52.0,197.0,4.768
-41.0,223.0,4.769
-30.0,248.0,4.77
-22.0,272.0,4.771
-14.0,303.0,4.772
-19.0,333.0,4.773
-33.0,319.0,4.774
-48.0,252.0,4.775
-54.0,161.0,4.776
-49.0,77.0,4.777
-32.0,-20.0,4.778
-5.0,-127.0,4.779
11.0,-212.0,4.78
-3.0,-254.0,4.781
-34.0,-258.0,4.782
-42.0,-255.0,4.783
-11.0,-245.0,4.784
27.0,-214.0,4.785
45.0,-166.0,4.786
40.0,-112.0,4.787
30.0,-48.0,4.788
27.0,25.0,4.789
30.0,81.0,4.79
31.0,103.0,4.791
25.0,117.0,4.792
18.0,142.0,4.793
18.0,155.0,4.794
36.0,139.0,4.795
59.0,131.0,4.796
72.0,145.0,4.797
72.0,118.0,4.798
66.0,8.0,4.799
53.0,-120.0,4.8
39.0,-164.0,4.801
33.0,-130.0,4.802
41.0,-105.0,4.803
44.0,-101.0,4.804
24.0,-62.0,4.805
-11.0,-9.0,4.806
-43.0,-25.0,4.807
-62.0,-102.0,4.808
-63.0,-143.0,4.809
-52.0,-106.0,4.81
-38.0,-53.0,4.811
-45.0,-34.0,4.812
-75.0,-36.0,4.813
-99.0,-48.0,4.814
-88.0,-70.0,4.815
-50.0,-66.0,4.816
-17.0,-6.0,4.817
-7.0,82.0,4.818
-1.0,118.0,4.819
13.0,92.0,4.82
32.0,61.0,4.821
44.0,72.0,4.822
46.0,98.0,4.823
42.0,114.0,4.824
32.0,124.0,4.825
21.0,130.0,4.826
23.0,121.0,4.827
34.0,103.0,4.828
37.0,97.0,4.829
19.0,95.0,4.83
-9.0,68.0,4.831
-22.0,11.0,4.832
-26.0,-48.0,4.833
-38.0,-86.0,4.834
-56.0,-93.0,4.835
-59.0,-71.0,4.836
-42.0,-36.0,4.837
-16.0,-9.0,4.838
-1.0,2.0,4.839
8.0,13.0,4.84
22.0,26.0,4.841
42.0,17.0,4.842
60.0,-27.0,4.843
65.0,-85.0,4.844
56.0,-125.0,4.845
36.0,-144.0,4.846
16.0,-151.0,4.847
9.0,-149.0,4.848
11.0,-133.0,4.849
9.0,-101.0,4.85
-4.0,-56.0,4.851
-13.0,-3.0,4.852
-7.0,43.0,4.853
0.0,68.0,4.854
0.0,70.0,4.855
4.0,69.0,4.856
25.0,74.0,4.857
51.0,73.0,4.858
60.0,69.0,4.859
48.0,65.0,4.86
29.0,58.0,4.861
9.0,43.0,4.862
-10.0,25.0,4.863
-23.0,17.0,4.864
-22.0,24.0,4.865
-16.0,40.0,4.866
-17.0,55.0,4.867
-24.0,53.0,4.868
-28.0,32.0,4.869
-24.0,10.0,4.87
-15.0,18.0,4.871
-4.0,48.0,4.872
3.0,49.0,4.873
2.0,-4.0,4.874
-7.0,-66.0,4.875
-11.0,-77.0,4.876
-4.0,-43.0,4.877
3.0,-17.0,4.878
4.0,-29.0,4.879
-1.0,-58.0,4.88
0.0,-80.0,4.881
2.0,-89.0,4.882
10.0,-90.0,4.883
18.0,-75.0,4.884
17.0,-41.0,4.885
2.0,-8.0,4.886
-20.0,13.0,4.887
-34.0,34.0,4.888
-33.0,53.0,4.889
-22.0,57.0,4.89
-6.0,40.0,4.891
9.0,22.0,4.892
18.0,19.0,4.893
16.0,29.0,4.894
10.0,39.0,4.895
14.0,44.0,4.896
29.0,39.0,4.897
42.0,15.0,4.898
42.0,-10.0,4.899
28.0,-10.0,4.9
12.0,2.0,4.901
0.0,4.0,4.902
-4.0,-14.0,4.903
-4.0,-28.0,4.904
-4.0,-33.0,4.905
-13.0,-57.0,4.906
-22.0,-101.0,4.907
-26.0,-115.0,4.908
-20.0,-80.0,4.909
-11.0,-41.0,4.91
-4.0,-29.0,4.911
-4.0,-21.0,4.912
-9.0,9.0,4.913
-14.0,37.0,4.914
-14.0,36.0,4.915
-5.0,33.0,4.916
8.0,51.0,4.917
24.0,69.0,4.918
39.0,70.0,4.919
47.0,66.0,4.92
47.0,74.0,4.921
37.0,82.0,4.922
30.0,63.0,4.923
31.0,28.0,4.924
28.0,-4.0,4.925
12.0,-39.0,4.926
-13.0,-78.0,4.927
-30.0,-96.0,4.928
-35.0,-76.0,4.929
-35.0,-40.0,4.93
-36.0,-20.0,4.931
-37.0,-25.0,4.932
-35.0,-36.0,4.933
-32.0,-38.0,4.934
-20.0,-35.0,4.935
-4.0,-27.0,4.936
12.0,-10.0,4.937
18.0,36.0,4.938
23.0,104.0,4.939
29.0,156.0,4.94
36.0,144.0,4.941
39.0,70.0,4.942
40.0,-20.0,4.943
42.0,-77.0,4.944
41.0,-84.0,4.945
33.0,-49.0,4.946
18.0,8.0,4.947
3.0,53.0,4.948
-8.0,49.0,4.949
-16.0,6.0,4.95
-20.0,-36.0,4.951
-22.0,-57.0,4.952
-19.0,-68.0,4.953
-13.0,-78.0,4.954
-3.0,-73.0,4.955
4.0,-44.0,4.956
12.0,-10.0,4.957
20.0,15.0,4.958
28.0,33.0,4.959
27.0,51.0,4.96
19.0,54.0,4.961
15.0,43.0,4.962
26.0,28.0,4.963
36.0,20.0,4.964
32.0,15.0,4.965
16.0,5.0,4.966
-1.0,-7.0,4.967
-19.0,-15.0,4.968
-40.0,-20.0,4.969
-51.0,-19.0,4.97
-39.0,-13.0,4.971
-16.0,-9.0,4.972
-10.0,-7.0,4.973
-23.0,-6.0,4.974
-30.0,-3.0,4.975
-24.0,0.0,4.976
-19.0,1.0,4.977
-21.0,1.0,4.978
-21.0,6.0,4.979
-13.0,12.0,4.98
-3.0,10.0,4.981
9.0,7.0,4.982
24.0,11.0,4.983
33.0,19.0,4.984
23.0,22.0,4.985
6.0,21.0,4.986
1.0,17.0,4.987
11.0,15.0,4.988
15.0,11.0,4.989
8.0,6.0,4.99
0.0,-1.0,4.991
-3.0,-11.0,4.992
-4.0,-20.0,4.993
-8.0,-29.0,4.994
-9.0,-36.0,4.995
-7.0,-41.0,4.996
-2.0,-40.0,4.997
-1.0,-36.0,4.998
4.0,-26.0,4.999
9.0,-17.0,5.0
9.0,-10.0,5.001
5.0,-2.0,5.002
6.0,6.0,5.003
6.0,14.0,5.004
0.0,24.0,5.005
-11.0,33.0,5.006
-16.0,31.0,5.007
-16.0,18.0,5.008
-18.0,7.0,5.009
-26.0,9.0,5.01
-33.0,18.0,5.011
-38.0,20.0,5.012
-42.0,14.0,5.013
-46.0,8.0,5.014
-44.0,6.0,5.015
-35.0,5.0,5.016
-25.0,3.0,5.017
-21.0,0.0,5.018
-18.0,-1.0,5.019
-14.0,-3.0,5.02
-9.0,-7.0,5.021
-2.0,-8.0,5.022
7.0,-7.0,5.023
13.0,-6.0,5.024
7.0,-6.0,5.025
-1.0,-1.0,5.026
-7.0,3.0,5.027
-8.0,0.0,5.028
-9.0,-6.0,5.029
-10.0,-12.0,5.03
-4.0,-14.0,5.031
3.0,-14.0,5.032
1.0,-13.0,5.033
-13.0,-13.0,5.034
-24.0,-11.0,5.035
-23.0,-3.0,5.036
-14.0,9.0,5.037
-9.0,23.0,5.038
-7.0,30.0,5.039
-5.0,26.0,5.04
0.0,13.0,5.041
7.0,4.0,5.042
23.0,-3.0,5.043
35.0,-6.0,5.044
34.0,-4.0,5.045
29.0,1.0,5.046
13.0,0.0,5.047
0.0,-1.0,5.048
-2.0,7.0,5.049
-3.0,26.0,5.05
2.0,41.0,5.051
8.0,44.0,5.052
13.0,32.0,5.053
20.0,11.0,5.054
28.0,-5.0,5.055
37.0,-17.0,5.056
47.0,-30.0,5.057
55.0,-52.0,5.058
48.0,-73.0,5.059
41.0,-81.0,5.06
33.0,-78.0,5.061
26.0,-63.0,5.062
26.0,-38.0,5.063
33.0,-8.0,5.064
39.0,19.0,5.065
38.0,33.0,5.066
33.0,34.0,5.067
32.0,23.0,5.068
34.0,8.0,5.069
29.0,1.0,5.07
16.0,5.0,5.071
-2.0,10.0,5.072
-20.0,8.0,5.073
-36.0,4.0,5.074
-38.0,3.0,5.075
-25.0,3.0,5.076
-9.0,0.0,5.077
5.0,-4.0,5.078
28.0,-1.0,5.079
64.0,11.0,5.08
103.0,29.0,5.081
129.0,59.0,5.082
137.0,96.0,5.083
129.0,131.0,5.084
99.0,154.0,5.085
60.0,159.0,5.086
34.0,121.0,5.087
26.0,33.0,5.088
18.0,-77.0,5.089
-3.0,-170.0,5.09
-19.0,-228.0,5.091
-21.0,-258.0,5.092
-22.0,-263.0,5.093
-31.0,-237.0,5.094
-35.0,-186.0,5.095
-23.0,-123.0,5.096
-11.0,-51.0,5.097
-13.0,26.0,5.098
-20.0,79.0,5.099
-19.0,86.0,5.1
-13.0,71.0,5.101
-7.0,76.0,5.102
5.0,92.0,5.103
21.0,83.0,5.104
28.0,58.0,5.105
21.0,50.0,5.106
15.0,65.0,5.107
17.0,74.0,5.108
17.0,67.0,5.109
7.0,62.0,5.11
-6.0,64.0,5.111
-18.0,59.0,5.112
-37.0,42.0,5.113
-60.0,28.0,5.114
-71.0,24.0,5.115
-64.0,24.0,5.116
-54.0,23.0,5.117
-50.0,27.0,5.118
-45.0,38.0,5.119
-32.0,41.0,5.12
-15.0,14.0,5.121
0.0,-41.0,5.122
14.0,-107.0,5.123
26.0,-153.0,5.124
27.0,-163.0,5.125
20.0,-138.0,5.126
17.0,-92.0,5.127
20.0,-41.0,5.128
15.0,-2.0,5.129
0.0,12.0,5.13
-13.0,7.0,5.131
-13.0,13.0,5.132
-3.0,42.0,5.133
11.0,74.0,5.134
35.0,75.0,5.135
60.0,49.0,5.136
78.0,37.0,5.137
76.0,52.0,5.138
64.0,80.0,5.139
46.0,90.0,5.14
25.0,77.0,5.141
5.0,56.0,5.142
-5.0,37.0,5.143
-6.0,21.0,5.144
-13.0,14.0,5.145
-32.0,27.0,5.146
-57.0,50.0,5.147
-73.0,60.0,5.148
-77.0,29.0,5.149
-73.0,-37.0,5.15
-70.0,-111.0,5.151
-74.0,-170.0,5.152
-82.0,-209.0,5.153
-76.0,-228.0,5.154
-50.0,-221.0,5.155
-17.0,-190.0,5.156
9.0,-149.0,5.157
34.0,-102.0,5.158
69.0,-47.0,5.159
110.0,13.0,5.16
134.0,60.0,5.161
136.0,84.0,5.162
119.0,92.0,5.163
96.0,90.0,5.164
67.0,78.0,5.165
33.0,62.0,5.166
-5.0,56.0,5.167
-35.0,68.0,5.168
-50.0,76.0,5.169
-55.0,72.0,5.17
-60.0,64.0,5.171
-69.0,62.0,5.172
-72.0,60.0,5.173
-63.0,56.0,5.174
-51.0,64.0,5.175
-47.0,90.0,5.176
-47.0,112.0,5.177
-45.0,101.0,5.178
-36.0,56.0,5.179
-28.0,0.0,5.18
-25.0,-47.0,5.181
-19.0,-69.0,5.182
-7.0,-74.0,5.183
7.0,-71.0,5.184
16.0,-63.0,5.185
14.0,-47.0,5.186
10.0,-15.0,5.187
9.0,39.0,5.188
13.0,105.0,5.189
11.0,144.0,5.19
1.0,120.0,5.191
-5.0,42.0,5.192
-3.0,-38.0,5.193
7.0,-84.0,5.194
17.0,-113.0,5.195
24.0,-166.0,5.196
29.0,-229.0,5.197
31.0,-266.0,5.198
31.0,-239.0,5.199
31.0,-159.0,5.2
35.0,-41.0,5.201
36.0,110.0,5.202
33.0,229.0,5.203
26.0,242.0,5.204
17.0,153.0,5.205
3.0,56.0,5.206
-12.0,12.0,5.207
-13.0,-23.0,5.208
-2.0,-93.0,5.209
7.0,-157.0,5.21
1.0,-162.0,5.211
-15.0,-136.0,5.212
-28.0,-120.0,5.213
-29.0,-65.0,5.214
-20.0,111.0,5.215
-11.0,381.0,5.216
-5.0,571.0,5.217
-2.0,552.0,5.218
2.0,344.0,5.219
1.0,106.0,5.22
-8.0,-49.0,5.221
-18.0,-155.0,5.222
-16.0,-298.0,5.223
-6.0,-459.0,5.224
-10.0,-535.0,5.225
-26.0,-495.0,5.226
-44.0,-396.0,5.227
-54.0,-270.0,5.228
-66.0,-90.0,5.229
-80.0,133.0,5.23
-78.0,304.0,5.231
-52.0,364.0,5.232
-15.0,376.0,5.233
23.0,397.0,5.234
73.0,365.0,5.235
128.0,199.0,5.236
157.0,-11.0,5.237
141.0,-70.0,5.238
106.0,63.0,5.239
85.0,157.0,5.24
79.0,127.0,5.241
67.0,56.0,5.242
49.0,-137.0,5.243
41.0,-291.0,5.244
33.0,-327.0,5.245
-1.0,-362.0,5.246
-69.0,-395.0,5.247
-145.0,-391.0,5.248
-189.0,-275.0,5.249
-176.0,-177.0,5.25
-108.0,-139.0,5.251
-12.0,-100.0,5.252
72.0,-62.0,5.253
118.0,-1.0,5.254
114.0,127.0,5.255
76.0,231.0,5.256
45.0,263.0,5.257
66.0,320.0,5.258
134.0,484.0,5.259
189.0,600.0,5.26
179.0,552.0,5.261
123.0,420.0,5.262
59.0,343.0,5.263
-2.0,319.0,5.264
-64.0,220.0,5.265
-105.0,10.0,5.266
-102.0,-186.0,5.267
-82.0,-247.0,5.268
-80.0,-201.0,5.269
-102.0,-169.0,5.27
-131.0,-222.0,5.271
-159.0,-333.0,5.272
-179.0,-432.0,5.273
-168.0,-474.0,5.274
-121.0,-468.0,5.275
-62.0,-454.0,5.276
-17.0,-448.0,5.277
25.0,-427.0,5.278
65.0,-351.0,5.279
75.0,-200.0,5.28
61.0,38.0,5.281
63.0,361.0,5.282
101.0,649.0,5.283
134.0,730.0,5.284
133.0,579.0,5.285
119.0,360.0,5.286
119.0,196.0,5.287
111.0,14.0,5.288
60.0,-253.0,5.289
-12.0,-489.0,5.29
-67.0,-563.0,5.291
-94.0,-538.0,5.292
-102.0,-522.0,5.293
-102.0,-465.0,5.294
-99.0,-264.0,5.295
-108.0,4.0,5.296
-125.0,159.0,5.297
-138.0,150.0,5.298
-137.0,68.0,5.299
-126.0,25.0,5.3
-91.0,58.0,5.301
-13.0,152.0,5.302
87.0,254.0,5.303
154.0,315.0,5.304
162.0,344.0,5.305
144.0,383.0,5.306
142.0,408.0,5.307
150.0,358.0,5.308
143.0,261.0,5.309
130.0,231.0,5.31
122.0,313.0,5.311
102.0,417.0,5.312
38.0,431.0,5.313
-77.0,337.0,5.314
-201.0,199.0,5.315
-267.0,111.0,5.316
-244.0,113.0,5.317
-158.0,137.0,5.318
-71.0,59.0,5.319
-20.0,-154.0,5.32
4.0,-358.0,5.321
18.0,-385.0,5.322
26.0,-268.0,5.323
36.0,-192.0,5.324
55.0,-267.0,5.325
74.0,-429.0,5.326
83.0,-551.0,5.327
86.0,-575.0,5.328
84.0,-514.0,5.329
68.0,-412.0,5.33
43.0,-315.0,5.331
30.0,-254.0,5.332
43.0,-202.0,5.333
61.0,-93.0,5.334
70.0,80.0,5.335
70.0,238.0,5.336
68.0,307.0,5.337
67.0,294.0,5.338
62.0,248.0,5.339
54.0,191.0,5.34
39.0,122.0,5.341
26.0,76.0,5.342
27.0,82.0,5.343
39.0,116.0,5.344
31.0,124.0,5.345
-8.0,106.0,5.346
-51.0,106.0,5.347
-72.0,128.0,5.348
-74.0,135.0,5.349
-74.0,118.0,5.35
-80.0,101.0,5.351
-105.0,93.0,5.352
-155.0,77.0,5.353
-201.0,57.0,5.354
-197.0,54.0,5.355
-140.0,66.0,5.356
-76.0,73.0,5.357
-38.0,62.0,5.358
-16.0,45.0,5.359
7.0,19.0,5.36
32.0,-21.0,5.361
57.0,-56.0,5.362
84.0,-67.0,5.363
101.0,-62.0,5.364
88.0,-62.0,5.365
56.0,-69.0,5.366
36.0,-70.0,5.367
37.0,-65.0,5.368
39.0,-59.0,5.369
30.0,-43.0,5.37
18.0,-19.0,5.371
17.0,-7.0,5.372
29.0,-16.0,5.373
48.0,-29.0,5.374
65.0,-30.0,5.375
76.0,-29.0,5.376
76.0,-36.0,5.377
68.0,-34.0,5.378
55.0,-10.0,5.379
37.0,15.0,5.38
21.0,8.0,5.381
13.0,-25.0,5.382
18.0,-59.0,5.383
24.0,-82.0,5.384
25.0,-93.0,5.385
18.0,-90.0,5.386
1.0,-72.0,5.387
-23.0,-48.0,5.388
-46.0,-26.0,5.389
-59.0,-5.0,5.39
-65.0,15.0,5.391
-74.0,29.0,5.392
-85.0,35.0,5.393
-91.0,43.0,5.394
-87.0,48.0,5.395
-71.0,38.0,5.396
-39.0,18.0,5.397
3.0,-1.0,5.398
43.0,-4.0,5.399
68.0,-2.0,5.4
77.0,-9.0,5.401
79.0,-15.0,5.402
77.0,-11.0,5.403
71.0,-3.0,5.404
61.0,3.0,5.405
49.0,2.0,5.406
43.0,0.0,5.407
42.0,0.0,5.408
41.0,1.0,5.409
39.0,0.0,5.41
34.0,-2.0,5.411
23.0,-2.0,5.412
2.0,5.0,5.413
-16.0,9.0,5.414
-23.0,4.0,5.415
-27.0,-7.0,5.416
-31.0,-13.0,5.417
-37.0,-10.0,5.418
-32.0,1.0,5.419
-29.0,17.0,5.42
-36.0,35.0,5.421
-41.0,45.0,5.422
-36.0,36.0,5.423
-32.0,13.0,5.424
-32.0,-2.0,5.425
-32.0,-2.0,5.426
-36.0,0.0,5.427
-40.0,-7.0,5.428
-40.0,-16.0,5.429
-42.0,-19.0,5.43
-48.0,-13.0,5.431
-55.0,-10.0,5.432
-60.0,-14.0,5.433
-61.0,-19.0,5.434
-51.0,-21.0,5.435
-34.0,-19.0,5.436
3.0,-13.0,5.437
44.0,-8.0,5.438
107.0,-5.0,5.439
164.0,-4.0,5.44
192.0,-4.0,5.441
173.0,-2.0,5.442
121.0,-5.0,5.443
68.0,-9.0,5.444
28.0,-9.0,5.445
3.0,-4.0,5.446
-14.0,1.0,5.447
-27.0,5.0,5.448
-39.0,12.0,5.449
-46.0,23.0,5.45
-50.0,31.0,5.451
-54.0,30.0,5.452
-61.0,16.0,5.453
-66.0,-1.0,5.454
-64.0,-7.0,5.455
-53.0,-5.0,5.456
-38.0,-2.0,5.457
-24.0,-10.0,5.458
-22.0,-17.0,5.459
-29.0,-11.0,5.46
-45.0,3.0,5.461
-55.0,17.0,5.462
-43.0,24.0,5.463
-9.0,25.0,5.464
29.0,19.0,5.465
58.0,5.0,5.466
84.0,-14.0,5.467
117.0,-27.0,5.468
148.0,-29.0,5.469
159.0,-30.0,5.47
141.0,-35.0,5.471
100.0,-32.0,5.472
48.0,-18.0,5.473
0.0,2.0,5.474
-36.0,15.0,5.475
-56.0,18.0,5.476
-64.0,19.0,5.477
-62.0,21.0,5.478
-54.0,23.0,5.479
-49.0,18.0,5.48
-48.0,5.0,5.481
-45.0,-4.0,5.482
-48.0,-3.0,5.483
-80.0,9.0,5.484
-151.0,17.0,5.485
-217.0,15.0,5.486
-223.0,10.0,5.487
-173.0,12.0,5.488
-119.0,19.0,5.489
-87.0,11.0,5.49
-40.0,-5.0,5.491
49.0,5.0,5.492
129.0,54.0,5.493
136.0,104.0,5.494
88.0,104.0,5.495
56.0,49.0,5.496
62.0,-23.0,5.497
50.0,-91.0,5.498
-10.0,-137.0,5.499
-82.0,-162.0,5.5
-114.0,-167.0,5.501
-103.0,-145.0,5.502
-69.0,-98.0,5.503
-18.0,-35.0,5.504
35.0,27.0,5.505
63.0,72.0,5.506
58.0,91.0,5.507
52.0,91.0,5.508
59.0,74.0,5.509
46.0,48.0,5.51
-16.0,32.0,5.511
-103.0,46.0,5.512
-164.0,84.0,5.513
-171.0,112.0,5.514
-135.0,104.0,5.515
-74.0,63.0,5.516
-8.0,12.0,5.517
48.0,-47.0,5.518
90.0,-99.0,5.519
125.0,-122.0,5.52
152.0,-114.0,5.521
160.0,-91.0,5.522
143.0,-70.0,5.523
99.0,-50.0,5.524
35.0,-27.0,5.525
-29.0,-4.0,5.526
-52.0,16.0,5.527
-19.0,35.0,5.528
41.0,45.0,5.529
81.0,43.0,5.53
100.0,34.0,5.531
112.0,36.0,5.532
109.0,49.0,5.533
80.0,70.0,5.534
48.0,102.0,5.535
38.0,140.0,5.536
46.0,141.0,5.537
45.0,48.0,5.538
42.0,-100.0,5.539
53.0,-202.0,5.54
73.0,-207.0,5.541
82.0,-163.0,5.542
71.0,-124.0,5.543
54.0,-75.0,5.544
37.0,-7.0,5.545
24.0,37.0,5.546
23.0,41.0,5.547
37.0,65.0,5.548
46.0,143.0,5.549
37.0,203.0,5.55
24.0,180.0,5.551
25.0,128.0,5.552
35.0,142.0,5.553
42.0,207.0,5.554
49.0,217.0,5.555
65.0,128.0,5.556
81.0,0.0,5.557
83.0,-115.0,5.558
67.0,-249.0,5.559
42.0,-354.0,5.56
15.0,-394.0,5.561
-13.0,-347.0,5.562
-24.0,-256.0,5.563
-21.0,-170.0,5.564
-23.0,-87.0,5.565
-40.0,21.0,5.566
-55.0,158.0,5.567
-46.0,305.0,5.568
-27.0,430.0,5.569
-19.0,473.0,5.57
-19.0,369.0,5.571
-16.0,143.0,5.572
-13.0,-92.0,5.573
-23.0,-248.0,5.574
-29.0,-352.0,5.575
-20.0,-456.0,5.576
-7.0,-519.0,5.577
-5.0,-468.0,5.578
-5.0,-343.0,5.579
-1.0,-230.0,5.58
10.0,-143.0,5.581
14.0,-42.0,5.582
14.0,56.0,5.583
14.0,108.0,5.584
4.0,133.0,5.585
-17.0,184.0,5.586
-30.0,261.0,5.587
-22.0,313.0,5.588
-5.0,335.0,5.589
-3.0,363.0,5.59
-12.0,409.0,5.591
-18.0,420.0,5.592
-20.0,347.0,5.593
-22.0,180.0,5.594
-29.0,-38.0,5.595
-35.0,-237.0,5.596
-43.0,-351.0,5.597
-68.0,-376.0,5.598
-104.0,-333.0,5.599
-139.0,-251.0,5.6
-159.0,-133.0,5.601
-153.0,13.0,5.602
-121.0,140.0,5.603
-79.0,204.0,5.604
-46.0,232.0,5.605
-19.0,259.0,5.606
8.0,266.0,5.607
41.0,206.0,5.608
70.0,85.0,5.609
96.0,-42.0,5.61
122.0,-152.0,5.611
138.0,-236.0,5.612
127.0,-256.0,5.613
93.0,-184.0,5.614
60.0,-64.0,5.615
46.0,11.0,5.616
44.0,14.0,5.617
37.0,-6.0,5.618
25.0,-16.0,5.619
10.0,-10.0,5.62
-4.0,-13.0,5.621
-13.0,-18.0,5.622
-10.0,-20.0,5.623
-8.0,-27.0,5.624
-25.0,-50.0,5.625
-52.0,-87.0,5.626
-54.0,-135.0,5.627
-13.0,-176.0,5.628
34.0,-181.0,5.629
44.0,-140.0,5.63
18.0,-63.0,5.631
-7.0,51.0,5.632
-15.0,207.0,5.633
-19.0,349.0,5.634
-22.0,370.0,5.635
-16.0,250.0,5.636
-5.0,105.0,5.637
-3.0,49.0,5.638
-11.0,89.0,5.639
-19.0,137.0,5.64
-18.0,210.0,5.641
-14.0,254.0,5.642
-11.0,205.0,5.643
-10.0,137.0,5.644
-8.0,13.0,5.645
-15.0,-101.0,5.646
-34.0,-188.0,5.647
-62.0,-309.0,5.648
-88.0,-529.0,5.649
-97.0,-695.0,5.65
-74.0,-701.0,5.651
-17.0,-657.0,5.652
49.0,-462.0,5.653
91.0,-274.0,5.654
90.0,-109.0,5.655
55.0,36.0,5.656
26.0,120.0,5.657
38.0,229.0,5.658
68.0,476.0,5.659
65.0,768.0,5.66
17.0,922.0,5.661
-30.0,830.0,5.662
-48.0,559.0,5.663
-55.0,287.0,5.664
-71.0,145.0,5.665
-69.0,125.0,5.666
-29.0,114.0,5.667
11.0,-1.0,5.668
-3.0,-242.0,5.669
-73.0,-507.0,5.67
-157.0,-654.0,5.671
-222.0,-631.0,5.672
-246.0,-503.0,5.673
-195.0,-358.0,5.674
-61.0,-245.0,5.675
99.0,-191.0,5.676
204.0,-190.0,5.677
223.0,-173.0,5.678
175.0,-35.0,5.679
108.0,214.0,5.68
89.0,419.0,5.681
155.0,455.0,5.682
262.0,346.0,5.683
331.0,201.0,5.684
337.0,64.0,5.685
320.0,-67.0,5.686
287.0,-132.0,5.687
201.0,-16.0,5.688
71.0,298.0,5.689
-37.0,633.0,5.69
-100.0,741.0,5.691
-154.0,566.0,5.692
-209.0,297.0,5.693
-223.0,114.0,5.694
-182.0,-40.0,5.695
-136.0,-313.0,5.696
-121.0,-627.0,5.697
-127.0,-813.0,5.698
-136.0,-793.0,5.699
-140.0,-723.0,5.7
-121.0,-728.0,5.701
-64.0,-722.0,5.702
4.0,-592.0,5.703
35.0,-387.0,5.704
30.0,-230.0,5.705
29.0,-156.0,5.706
48.0,-125.0,5.707
69.0,-91.0,5.708
77.0,-5.0,5.709
72.0,179.0,5.71
58.0,418.0,5.711
29.0,591.0,5.712
-6.0,633.0,5.713
-33.0,614.0,5.714
-45.0,620.0,5.715
-46.0,633.0,5.716
-34.0,570.0,5.717
-21.0,375.0,5.718
-28.0,107.0,5.719
-57.0,-134.0,5.72
-80.0,-283.0,5.721
-84.0,-319.0,5.722
-85.0,-235.0,5.723
-98.0,-30.0,5.724
-105.0,227.0,5.725
-88.0,400.0,5.726
-60.0,395.0,5.727
-46.0,273.0,5.728
-44.0,167.0,5.729
-36.0,96.0,5.73
-13.0,-19.0,5.731
14.0,-186.0,5.732
34.0,-293.0,5.733
41.0,-269.0,5.734
48.0,-159.0,5.735
71.0,-23.0,5.736
105.0,126.0,5.737
131.0,276.0,5.738
136.0,356.0,5.739
127.0,343.0,5.74
126.0,299.0,5.741
126.0,270.0,5.742
109.0,200.0,5.743
72.0,42.0,5.744
26.0,-160.0,5.745
-24.0,-350.0,5.746
-66.0,-516.0,5.747
-80.0,-629.0,5.748
-63.0,-629.0,5.749
-32.0,-522.0,5.75
-3.0,-419.0,5.751
16.0,-404.0,5.752
12.0,-425.0,5.753
-17.0,-375.0,5.754
-50.0,-238.0,5.755
-49.0,-74.0,5.756
-15.0,69.0,5.757
21.0,212.0,5.758
37.0,357.0,5.759
46.0,468.0,5.76
65.0,492.0,5.761
86.0,405.0,5.762
105.0,243.0,5.763
125.0,94.0,5.764
143.0,23.0,5.765
142.0,9.0,5.766
114.0,9.0,5.767
77.0,20.0,5.768
35.0,54.0,5.769
-12.0,83.0,5.77
-66.0,72.0,5.771
-121.0,29.0,5.772
-167.0,-10.0,5.773
-188.0,-35.0,5.774
-174.0,-47.0,5.775
-137.0,-30.0,5.776
-103.0,17.0,5.777
-83.0,58.0,5.778
-60.0,67.0,5.779
-22.0,66.0,5.78
20.0,88.0,5.781
43.0,121.0,5.782
46.0,121.0,5.783
50.0,75.0,5.784
62.0,3.0,5.785
72.0,-68.0,5.786
58.0,-117.0,5.787
18.0,-124.0,5.788
-35.0,-92.0,5.789
-72.0,-50.0,5.79
-76.0,-36.0,5.791
-52.0,-40.0,5.792
-25.0,-34.0,5.793
-11.0,-9.0,5.794
-5.0,11.0,5.795
0.0,13.0,5.796
10.0,9.0,5.797
20.0,3.0,5.798
29.0,-4.0,5.799
32.0,-13.0,5.8
31.0,-19.0,5.801
32.0,-13.0,5.802
44.0,-12.0,5.803
58.0,-20.0,5.804
59.0,-25.0,5.805
37.0,-23.0,5.806
17.0,-20.0,5.807
9.0,-27.0,5.808
5.0,-35.0,5.809
-8.0,-34.0,5.81
-21.0,-28.0,5.811
-18.0,-23.0,5.812
-5.0,-20.0,5.813
-1.0,-16.0,5.814
-9.0,-17.0,5.815
-9.0,-22.0,5.816
5.0,-20.0,5.817
18.0,7.0,5.818
18.0,4.0,5.819
7.0,2.0,5.82
-3.0,-2.0,5.821
-8.0,-4.0,5.822
-14.0,1.0,5.823
-24.0,4.0,5.824
-36.0,8.0,5.825
-40.0,8.0,5.826
-30.0,-2.0,5.827
-13.0,-10.0,5.828
1.0,-8.0,5.829
18.0,-6.0,5.83
48.0,-3.0,5.831
84.0,1.0,5.832
98.0,2.0,5.833
74.0,3.0,5.834
40.0,9.0,5.835
38.0,14.0,5.836
65.0,14.0,5.837
85.0,8.0,5.838
81.0,5.0,5.839
77.0,1.0,5.84
74.0,-3.0,5.841
66.0,-5.0,5.842
46.0,0.0,5.843
24.0,5.0,5.844
0.0,9.0,5.845
-21.0,9.0,5.846
-33.0,-3.0,5.847
-43.0,-12.0,5.848
-47.0,-10.0,5.849
-52.0,-8.0,5.85
-61.0,-4.0,5.851
-69.0,0.0,5.852
-74.0,1.0,5.853
-79.0,4.0,5.854
-79.0,10.0,5.855
-78.0,16.0,5.856
-70.0,16.0,5.857
-57.0,17.0,5.858
-38.0,15.0,5.859
-24.0,6.0,5.86
-8.0,-8.0,5.861
16.0,-11.0,5.862
38.0,-10.0,5.863
46.0,-10.0,5.864
35.0,-10.0,5.865
12.0,-4.0,5.866
-13.0,5.0,5.867
-29.0,13.0,5.868
-31.0,16.0,5.869
-23.0,17.0,5.87
-9.0,12.0,5.871
6.0,4.0,5.872
21.0,-2.0,5.873
34.0,-2.0,5.874
39.0,-3.0,5.875
39.0,-5.0,5.876
40.0,-3.0,5.877
35.0,3.0,5.878
25.0,14.0,5.879
17.0,25.0,5.88
12.0,28.0,5.881
5.0,23.0,5.882
-7.0,16.0,5.883
-20.0,12.0,5.884
-26.0,9.0,5.885
-27.0,-3.0,5.886
-30.0,-31.0,5.887
-32.0,-56.0,5.888
-32.0,-62.0,5.889
-41.0,-53.0,5.89
-61.0,-42.0,5.891
-87.0,-29.0,5.892
-108.0,-13.0,5.893
-120.0,0.0,5.894
-116.0,4.0,5.895
-92.0,12.0,5.896
-55.0,38.0,5.897
-16.0,78.0,5.898
24.0,116.0,5.899
62.0,134.0,5.9
88.0,121.0,5.901
87.0,87.0,5.902
59.0,51.0,5.903
22.0,30.0,5.904
-5.0,10.0,5.905
-20.0,-43.0,5.906
-25.0,-126.0,5.907
-21.0,-181.0,5.908
-10.0,-154.0,5.909
-4.0,-54.0,5.91
-9.0,39.0,5.911
-27.0,55.0,5.912
-56.0,-10.0,5.913
-91.0,-80.0,5.914
-120.0,-79.0,5.915
-130.0,-19.0,5.916
-125.0,15.0,5.917
-110.0,-18.0,5.918
-89.0,-78.0,5.919
-62.0,-99.0,5.92
-33.0,-78.0,5.921
6.0,-35.0,5.922
61.0,18.0,5.923
114.0,69.0,5.924
134.0,79.0,5.925
115.0,46.0,5.926
87.0,31.0,5.927
72.0,76.0,5.928
51.0,146.0,5.929
19.0,180.0,5.93
1.0,179.0,5.931
11.0,170.0,5.932
25.0,143.0,5.933
26.0,67.0,5.934
39.0,-52.0,5.935
85.0,-166.0,5.936
131.0,-234.0,5.937
140.0,-248.0,5.938
127.0,-214.0,5.939
129.0,-172.0,5.94
146.0,-110.0,5.941
133.0,-57.0,5.942
76.0,-35.0,5.943
10.0,-16.0,5.944
-26.0,-5.0,5.945
-26.0,6.0,5.946
-7.0,19.0,5.947
15.0,30.0,5.948
26.0,28.0,5.949
18.0,28.0,5.95
-6.0,32.0,5.951
-34.0,38.0,5.952
-52.0,46.0,5.953
-43.0,52.0,5.954
-9.0,55.0,5.955
29.0,62.0,5.956
57.0,80.0,5.957
83.0,102.0,5.958
112.0,140.0,5.959
122.0,176.0,5.96
105.0,183.0,5.961
81.0,168.0,5.962
76.0,145.0,5.963
74.0,95.0,5.964
50.0,-19.0,5.965
18.0,-175.0,5.966
6.0,-290.0,5.967
9.0,-318.0,5.968
-4.0,-289.0,5.969
-33.0,-246.0,5.97
-53.0,-183.0,5.971
-51.0,-90.0,5.972
-46.0,6.0,5.973
-47.0,100.0,5.974
-40.0,232.0,5.975
-20.0,383.0,5.976
0.0,450.0,5.977
10.0,374.0,5.978
13.0,250.0,5.979
17.0,198.0,5.98
24.0,166.0,5.981
34.0,31.0,5.982
44.0,-170.0,5.983
43.0,-265.0,5.984
31.0,-225.0,5.985
20.0,-204.0,5.986
23.0,-270.0,5.987
31.0,-317.0,5.988
22.0,-266.0,5.989
-15.0,-204.0,5.99
-62.0,-199.0,5.991
-99.0,-174.0,5.992
-115.0,-61.0,5.993
-115.0,70.0,5.994
-107.0,126.0,5.995
-88.0,123.0,5.996
-55.0,110.0,5.997
0.0,72.0,5.998
61.0,1.0,5.999
100.0,-59.0,6.0
119.0,-91.0,6.001
125.0,-131.0,6.002
127.0,-198.0,6.003
116.0,-234.0,6.004
83.0,-197.0,6.005
29.0,-116.0,6.006
-34.0,-7.0,6.007
-98.0,156.0,6.008
-144.0,344.0,6.009
-161.0,439.0,6.01
-152.0,371.0,6.011
-140.0,220.0,6.012
-133.0,92.0,6.013
-119.0,-7.0,6.014
-90.0,-109.0,6.015
-63.0,-195.0,6.016
-53.0,-220.0,6.017
-61.0,-193.0,6.018
-61.0,-147.0,6.019
-51.0,-76.0,6.02
-17.0,35.0,6.021
17.0,164.0,6.022
49.0,249.0,6.023
68.0,266.0,6.024
50.0,236.0,6.025
34.0,187.0,6.026
21.0,122.0,6.027
14.0,51.0,6.028
26.0,6.0,6.029
27.0,33.0,6.03
-6.0,133.0,6.031
-38.0,264.0,6.032
-64.0,363.0,6.033
-73.0,388.0,6.034
-30.0,337.0,6.035
20.0,237.0,6.036
94.0,117.0,6.037
164.0,-32.0,6.038
197.0,-190.0,6.039
191.0,-314.0,6.04
155.0,-379.0,6.041
101.0,-404.0,6.042
45.0,-450.0,6.043
17.0,-526.0,6.044
15.0,-560.0,6.045
7.0,-455.0,6.046
-30.0,-195.0,6.047
-64.0,120.0,6.048
-64.0,334.0,6.049
-49.0,350.0,6.05
-55.0,228.0,6.051
-73.0,125.0,6.052
-70.0,111.0,6.053
-50.0,89.0,6.054
-35.0,-47.0,6.055
-25.0,-243.0,6.056
-6.0,-359.0,6.057
19.0,-367.0,6.058
26.0,-322.0,6.059
12.0,-214.0,6.06
-4.0,71.0,6.061
-15.0,533.0,6.062
-21.0,891.0,6.063
-23.0,796.0,6.064
-26.0,237.0,6.065
-45.0,-421.0,6.066
-79.0,-808.0,6.067
-91.0,-869.0,6.068
-56.0,-755.0,6.069
19.0,-537.0,6.07
101.0,-227.0,6.071
170.0,94.0,6.072
204.0,325.0,6.073
175.0,494.0,6.074
88.0,659.0,6.075
-1.0,741.0,6.076
-39.0,636.0,6.077
-40.0,365.0,6.078
-52.0,92.0,6.079
-80.0,-109.0,6.08
-71.0,-291.0,6.081
-11.0,-439.0,6.082
50.0,-459.0,6.083
56.0,-307.0,6.084
11.0,-72.0,6.085
-39.0,107.0,6.086
-65.0,131.0,6.087
-71.0,19.0,6.088
-69.0,-54.0,6.089
-66.0,116.0,6.09
-63.0,510.0,6.091
-52.0,798.0,6.092
-38.0,656.0,6.093
-40.0,129.0,6.094
-69.0,-447.0,6.095
-107.0,-820.0,6.096
-123.0,-958.0,6.097
-112.0,-922.0,6.098
-91.0,-708.0,6.099
-68.0,-337.0,6.1
-25.0,110.0,6.101
44.0,549.0,6.102
108.0,861.0,6.103
132.0,874.0,6.104
136.0,560.0,6.105
166.0,179.0,6.106
212.0,13.0,6.107
215.0,6.0,6.108
161.0,-82.0,6.109
109.0,-289.0,6.11
102.0,-456.0,6.111
100.0,-544.0,6.112
60.0,-597.0,6.113
8.0,-537.0,6.114
-10.0,-291.0,6.115
-17.0,-24.0,6.116
-54.0,46.0,6.117
-115.0,-73.0,6.118
-137.0,-234.0,6.119
-98.0,-384.0,6.12
-44.0,-522.0,6.121
-16.0,-519.0,6.122
-13.0,-283.0,6.123
-17.0,50.0,6.124
-19.0,322.0,6.125
-10.0,562.0,6.126
15.0,824.0,6.127
51.0,978.0,6.128
81.0,917.0,6.129
85.0,766.0,6.13
55.0,677.0,6.131
-4.0,573.0,6.132
-72.0,309.0,6.133
-115.0,-58.0,6.134
-115.0,-370.0,6.135
-79.0,-582.0,6.136
-31.0,-686.0,6.137
13.0,-563.0,6.138
48.0,-112.0,6.139
60.0,463.0,6.14
38.0,751.0,6.141
-11.0,571.0,6.142
-55.0,155.0,6.143
-60.0,-134.0,6.144
-35.0,-174.0,6.145
-14.0,-102.0,6.146
-9.0,-60.0,6.147
-6.0,-41.0,6.148
0.0,4.0,6.149
7.0,39.0,6.15
17.0,-10.0,6.151
35.0,-145.0,6.152
57.0,-289.0,6.153
67.0,-369.0,6.154
68.0,-361.0,6.155
73.0,-280.0,6.156
80.0,-173.0,6.157
69.0,-74.0,6.158
34.0,4.0,6.159
-14.0,74.0,6.16
-46.0,142.0,6.161
-44.0,189.0,6.162
-4.0,197.0,6.163
39.0,173.0,6.164
55.0,127.0,6.165
42.0,81.0,6.166
24.0,76.0,6.167
8.0,117.0,6.168
-12.0,172.0,6.169
-34.0,217.0,6.17
-47.0,249.0,6.171
-49.0,229.0,6.172
-44.0,101.0,6.173
-27.0,-83.0,6.174
7.0,-172.0,6.175
32.0,-110.0,6.176
24.0,-17.0,6.177
-21.0,-10.0,6.178
-68.0,-79.0,6.179
-83.0,-158.0,6.18
-62.0,-230.0,6.181
-28.0,-292.0,6.182
-10.0,-309.0,6.183
-11.0,-265.0,6.184
-8.0,-213.0,6.185
12.0,-198.0,6.186
37.0,-191.0,6.187
50.0,-150.0,6.188
50.0,-81.0,6.189
50.0,-2.0,6.19
55.0,84.0,6.191
58.0,157.0,6.192
59.0,178.0,6.193
63.0,148.0,6.194
69.0,110.0,6.195
70.0,90.0,6.196
71.0,73.0,6.197
66.0,47.0,6.198
51.0,27.0,6.199
14.0,15.0,6.2
-36.0,-3.0,6.201
-77.0,-16.0,6.202
-97.0,-12.0,6.203
-100.0,1.0,6.204
-100.0,2.0,6.205
-95.0,-4.0,6.206
-75.0,4.0,6.207
-41.0,30.0,6.208
-21.0,54.0,6.209
-28.0,59.0,6.21
-42.0,33.0,6.211
-33.0,-19.0,6.212
-9.0,-59.0,6.213
3.0,-56.0,6.214
-3.0,-22.0,6.215
-6.0,-7.0,6.216
8.0,-17.0,6.217
28.0,-31.0,6.218
38.0,-23.0,6.219
37.0,-15.0,6.22
35.0,-8.0,6.221
30.0,-2.0,6.222
27.0,-6.0,6.223
33.0,-9.0,6.224
48.0,-8.0,6.225
67.0,-7.0,6.226
80.0,-5.0,6.227
86.0,-5.0,6.228
82.0,-11.0,6.229
72.0,-15.0,6.23
57.0,-13.0,6.231
41.0,-11.0,6.232
19.0,-11.0,6.233
-1.0,-10.0,6.234
-8.0,-4.0,6.235
-4.0,0.0,6.236
3.0,1.0,6.237
2.0,5.0,6.238
-5.0,8.0,6.239
-12.0,1.0,6.24
-20.0,-6.0,6.241
-23.0,0.0,6.242
-11.0,10.0,6.243
-2.0,10.0,6.244
-2.0,6.0,6.245
-4.0,6.0,6.246
-8.0,9.0,6.247
-13.0,8.0,6.248
-25.0,7.0,6.249
-34.0,8.0,6.25
-35.0,8.0,6.251
-33.0,1.0,6.252
-23.0,-2.0,6.253
-14.0,0.0,6.254
-8.0,5.0,6.255
-5.0,7.0,6.256
-11.0,5.0,6.257
-16.0,-1.0,6.258
-16.0,-5.0,6.259
-7.0,-8.0,6.26
2.0,-10.0,6.261
3.0,-11.0,6.262
11.0,-7.0,6.263
33.0,-2.0,6.264
58.0,0.0,6.265
66.0,1.0,6.266
54.0,0.0,6.267
38.0,-1.0,6.268
28.0,0.0,6.269
21.0,3.0,6.27
7.0,3.0,6.271
-11.0,4.0,6.272
-22.0,3.0,6.273
-21.0,3.0,6.274
-18.0,7.0,6.275
-17.0,9.0,6.276
-9.0,3.0,6.277
7.0,-3.0,6.278
25.0,-7.0,6.279
26.0,-8.0,6.28
12.0,-13.0,6.281
0.0,-17.0,6.282
5.0,-17.0,6.283
18.0,-7.0,6.284
18.0,11.0,6.285
2.0,28.0,6.286
-19.0,31.0,6.287
-37.0,14.0,6.288
-49.0,-8.0,6.289
-56.0,-23.0,6.29
-61.0,-28.0,6.291
-67.0,-25.0,6.292
-75.0,-16.0,6.293
-77.0,1.0,6.294
-66.0,32.0,6.295
-46.0,65.0,6.296
-25.0,78.0,6.297
-5.0,53.0,6.298
18.0,8.0,6.299
41.0,-20.0,6.3
63.0,-26.0,6.301
85.0,-33.0,6.302
103.0,-57.0,6.303
104.0,-83.0,6.304
74.0,-87.0,6.305
25.0,-69.0,6.306
-17.0,-33.0,6.307
-37.0,25.0,6.308
-46.0,89.0,6.309
-59.0,99.0,6.31
-78.0,24.0,6.311
-92.0,-72.0,6.312
-94.0,-100.0,6.313
-93.0,-47.0,6.314
-93.0,20.0,6.315
-98.0,63.0,6.316
-108.0,89.0,6.317
-131.0,103.0,6.318
-156.0,90.0,6.319
-176.0,58.0,6.32
-180.0,36.0,6.321
-164.0,29.0,6.322
-122.0,-1.0,6.323
-62.0,-44.0,6.324
-4.0,-48.0,6.325
30.0,-1.0,6.326
43.0,49.0,6.327
55.0,63.0,6.328
84.0,54.0,6.329
124.0,36.0,6.33
167.0,-8.0,6.331
200.0,-73.0,6.332
216.0,-113.0,6.333
211.0,-108.0,6.334
178.0,-102.0,6.335
118.0,-119.0,6.336
48.0,-129.0,6.337
-18.0,-84.0,6.338
-59.0,4.0,6.339
-75.0,101.0,6.34
-73.0,186.0,6.341
-55.0,258.0,6.342
-29.0,280.0,6.343
-17.0,219.0,6.344
-26.0,97.0,6.345
-40.0,-36.0,6.346
-36.0,-157.0,6.347
-25.0,-247.0,6.348
-24.0,-274.0,6.349
-26.0,-232.0,6.35
-3.0,-162.0,6.351
44.0,-112.0,6.352
80.0,-82.0,6.353
93.0,-47.0,6.354
103.0,-6.0,6.355
120.0,30.0,6.356
125.0,59.0,6.357
88.0,77.0,6.358
27.0,73.0,6.359
-18.0,52.0,6.36
-16.0,38.0,6.361
29.0,44.0,6.362
95.0,45.0,6.363
152.0,35.0,6.364
178.0,30.0,6.365
180.0,35.0,6.366
175.0,34.0,6.367
165.0,18.0,6.368
133.0,12.0,6.369
73.0,27.0,6.37
7.0,43.0,6.371
-47.0,40.0,6.372
-86.0,38.0,6.373
-105.0,81.0,6.374
-94.0,175.0,6.375
-58.0,272.0,6.376
-27.0,302.0,6.377
-10.0,226.0,6.378
12.0,101.0,6.379
50.0,37.0,6.38
88.0,55.0,6.381
106.0,40.0,6.382
110.0,-121.0,6.383
109.0,-355.0,6.384
98.0,-485.0,6.385
68.0,-469.0,6.386
35.0,-422.0,6.387
15.0,-407.0,6.388
2.0,-350.0,6.389
-14.0,-199.0,6.39
-31.0,-15.0,6.391
-39.0,127.0,6.392
-38.0,227.0,6.393
-34.0,296.0,6.394
-30.0,320.0,6.395
-24.0,325.0,6.396
-22.0,351.0,6.397
-25.0,372.0,6.398
-23.0,310.0,6.399
-11.0,171.0,6.4
7.0,42.0,6.401
13.0,-48.0,6.402
4.0,-179.0,6.403
-4.0,-357.0,6.404
-1.0,-474.0,6.405
3.0,-449.0,6.406
-7.0,-317.0,6.407
-28.0,-144.0,6.408
-43.0,67.0,6.409
-49.0,301.0,6.41
-60.0,500.0,6.411
-97.0,620.0,6.412
-151.0,643.0,6.413
-186.0,509.0,6.414
-177.0,183.0,6.415
-129.0,-235.0,6.416
-76.0,-545.0,6.417
-36.0,-697.0,6.418
-14.0,-736.0,6.419
-4.0,-710.0,6.42
4.0,-600.0,6.421
11.0,-429.0,6.422
17.0,-304.0,6.423
21.0,-257.0,6.424
17.0,-195.0,6.425
-2.0,-52.0,6.426
-29.0,106.0,6.427
-56.0,204.0,6.428
-65.0,254.0,6.429
-41.0,291.0,6.43
13.0,307.0,6.431
75.0,300.0,6.432
116.0,304.0,6.433
144.0,337.0,6.434
181.0,352.0,6.435
211.0,320.0,6.436
200.0,282.0,6.437
134.0,280.0,6.438
60.0,303.0,6.439
-1.0,278.0,6.44
-21.0,174.0,6.441
-40.0,52.0,6.442
-56.0,-15.0,6.443
-77.0,-13.0,6.444
-109.0,15.0,6.445
-139.0,34.0,6.446
-161.0,41.0,6.447
-177.0,34.0,6.448
-173.0,-8.0,6.449
-160.0,-66.0,6.45
-125.0,-76.0,6.451
-90.0,-21.0,6.452
-56.0,16.0,6.453
-23.0,-42.0,6.454
6.0,-144.0,6.455
34.0,-141.0,6.456
62.0,16.0,6.457
84.0,237.0,6.458
84.0,324.0,6.459
83.0,161.0,6.46
89.0,-183.0,6.461
101.0,-526.0,6.462
124.0,-727.0,6.463
146.0,-776.0,6.464
146.0,-731.0,6.465
126.0,-622.0,6.466
95.0,-439.0,6.467
54.0,-177.0,6.468
-14.0,118.0,6.469
-95.0,374.0,6.47
-147.0,520.0,6.471
-141.0,518.0,6.472
-91.0,407.0,6.473
-24.0,273.0,6.474
29.0,173.0,6.475
63.0,82.0,6.476
81.0,-23.0,6.477
85.0,-143.0,6.478
72.0,-209.0,6.479
36.0,-186.0,6.48
-7.0,-101.0,6.481
-52.0,4.0,6.482
-111.0,106.0,6.483
-177.0,200.0,6.484
-181.0,264.0,6.485
-65.0,249.0,6.486
116.0,142.0,6.487
232.0,17.0,6.488
224.0,-34.0,6.489
148.0,-33.0,6.49
69.0,-87.0,6.491
-1.0,-205.0,6.492
-57.0,-253.0,6.493
-65.0,-131.0,6.494
-28.0,98.0,6.495
0.0,315.0,6.496
-8.0,463.0,6.497
-23.0,529.0,6.498
-19.0,505.0,6.499
-25.0,375.0,6.5
-63.0,246.0,6.501
-96.0,195.0,6.502
-114.0,124.0,6.503
-125.0,-112.0,6.504
-110.0,-487.0,6.505
-89.0,-811.0,6.506
-51.0,-936.0,6.507
-18.0,-859.0,6.508
1.0,-654.0,6.509
16.0,-391.0,6.51
17.0,-117.0,6.511
27.0,122.0,6.512
61.0,299.0,6.513
83.0,439.0,6.514
65.0,598.0,6.515
45.0,788.0,6.516
22.0,912.0,6.517
14.0,827.0,6.518
58.0,550.0,6.519
67.0,242.0,6.52
45.0,13.0,6.521
49.0,-159.0,6.522
77.0,-347.0,6.523
72.0,-532.0,6.524
26.0,-636.0,6.525
-2.0,-647.0,6.526
20.0,-633.0,6.527
50.0,-627.0,6.528
48.0,-561.0,6.529
33.0,-376.0,6.53
27.0,-139.0,6.531
10.0,8.0,6.532
-40.0,21.0,6.533
-101.0,-2.0,6.534
-118.0,19.0,6.535
-78.0,45.0,6.536
-28.0,13.0,6.537
-1.0,-52.0,6.538
8.0,-72.0,6.539
36.0,-55.0,6.54
78.0,70.0,6.541
102.0,201.0,6.542
103.0,348.0,6.543
96.0,435.0,6.544
83.0,341.0,6.545
47.0,244.0,6.546
-11.0,140.0,6.547
-67.0,27.0,6.548
-110.0,-107.0,6.549
-133.0,-249.0,6.55
-124.0,-411.0,6.551
-78.0,-507.0,6.552
-25.0,-404.0,6.553
-10.0,-281.0,6.554
-33.0,-98.0,6.555
-69.0,102.0,6.556
-87.0,354.0,6.557
-79.0,611.0,6.558
-39.0,838.0,6.559
18.0,905.0,6.56
64.0,724.0,6.561
82.0,365.0,6.562
87.0,38.0,6.563
84.0,-103.0,6.564
59.0,-103.0,6.565
15.0,-62.0,6.566
-17.0,7.0,6.567
-19.0,99.0,6.568
-8.0,124.0,6.569
-4.0,30.0,6.57
-2.0,-69.0,6.571
-8.0,-41.0,6.572
-32.0,80.0,6.573
-70.0,142.0,6.574
-85.0,52.0,6.575
-62.0,-156.0,6.576
-32.0,-367.0,6.577
-15.0,-490.0,6.578
-3.0,-470.0,6.579
18.0,-380.0,6.58
38.0,-343.0,6.581
54.0,-355.0,6.582
80.0,-314.0,6.583
119.0,-172.0,6.584
145.0,-6.0,6.585
138.0,103.0,6.586
115.0,146.0,6.587
99.0,150.0,6.588
76.0,139.0,6.589
29.0,122.0,6.59
-27.0,88.0,6.591
-56.0,17.0,6.592
-46.0,-84.0,6.593
-16.0,-171.0,6.594
-3.0,-213.0,6.595
-22.0,-213.0,6.596
-56.0,-163.0,6.597
-75.0,-49.0,6.598
-57.0,103.0,6.599
-22.0,217.0,6.6
10.0,255.0,6.601
41.0,251.0,6.602
72.0,240.0,6.603
89.0,223.0,6.604
73.0,201.0,6.605
40.0,189.0,6.606
19.0,187.0,6.607
15.0,166.0,6.608
5.0,117.0,6.609
-20.0,66.0,6.61
-51.0,30.0,6.611
-75.0,1.0,6.612
-87.0,-30.0,6.613
-93.0,-46.0,6.614
-98.0,-38.0,6.615
-100.0,-24.0,6.616
-92.0,-23.0,6.617
-84.0,-28.0,6.618
-76.0,-18.0,6.619
-60.0,-8.0,6.62
-19.0,-11.0,6.621
19.0,-22.0,6.622
49.0,-24.0,6.623
68.0,-19.0,6.624
50.0,-22.0,6.625
39.0,-29.0,6.626
49.0,-30.0,6.627
57.0,-28.0,6.628
56.0,-31.0,6.629
54.0,-37.0,6.63
48.0,-40.0,6.631
40.0,-38.0,6.632
23.0,-35.0,6.633
10.0,-33.0,6.634
10.0,-31.0,6.635
9.0,-30.0,6.636
9.0,-26.0,6.637
8.0,-25.0,6.638
3.0,-25.0,6.639
-6.0,-29.0,6.64
-11.0,-34.0,6.641
4.0,-31.0,6.642
36.0,-24.0,6.643
55.0,-19.0,6.644
46.0,-19.0,6.645
24.0,-17.0,6.646
19.0,-11.0,6.647
27.0,-9.0,6.648
25.0,-12.0,6.649
11.0,-18.0,6.65
-2.0,-21.0,6.651
-3.0,-20.0,6.652
-1.0,-14.0,6.653
-10.0,-9.0,6.654
-22.0,-4.0,6.655
-30.0,-1.0,6.656
-28.0,0.0,6.657
-21.0,-3.0,6.658
-14.0,-5.0,6.659
-7.0,-4.0,6.66
-5.0,-3.0,6.661
-1.0,-3.0,6.662
5.0,-2.0,6.663
7.0,0.0,6.664
-8.0,3.0,6.665
-26.0,5.0,6.666
-52.0,1.0,6.667
-71.0,-4.0,6.668
-69.0,-8.0,6.669
-59.0,-7.0,6.67
-26.0,-6.0,6.671
9.0,-8.0,6.672
53.0,-8.0,6.673
90.0,-7.0,6.674
107.0,-5.0,6.675
119.0,-4.0,6.676
115.0,-1.0,6.677
109.0,1.0,6.678
90.0,1.0,6.679
58.0,0.0,6.68
25.0,-3.0,6.681
2.0,0.0,6.682
-3.0,5.0,6.683
-1.0,6.0,6.684
-2.0,7.0,6.685
-12.0,10.0,6.686
-23.0,14.0,6.687
-29.0,14.0,6.688
-36.0,12.0,6.689
-48.0,12.0,6.69
-58.0,12.0,6.691
-57.0,10.0,6.692
-47.0,7.0,6.693
-42.0,4.0,6.694
-45.0,3.0,6.695
-45.0,5.0,6.696
-42.0,7.0,6.697
-41.0,6.0,6.698
-43.0,1.0,6.699
-36.0,-3.0,6.7
-18.0,-4.0,6.701
5.0,0.0,6.702
29.0,2.0,6.703
48.0,2.0,6.704
61.0,2.0,6.705
64.0,4.0,6.706
62.0,2.0,6.707
59.0,-3.0,6.708
52.0,-9.0,6.709
38.0,-10.0,6.71
21.0,-10.0,6.711
12.0,-8.0,6.712
2.0,-2.0,6.713
-15.0,4.0,6.714
-30.0,8.0,6.715
-29.0,4.0,6.716
-18.0,-1.0,6.717
-10.0,-9.0,6.718
-10.0,-13.0,6.719
-9.0,-12.0,6.72
-5.0,-13.0,6.721
-5.0,-17.0,6.722
-3.0,-26.0,6.723
-2.0,-30.0,6.724
-8.0,-22.0,6.725
-20.0,-6.0,6.726
-33.0,14.0,6.727
-41.0,36.0,6.728
-51.0,52.0,6.729
-68.0,47.0,6.73
-86.0,16.0,6.731
-93.0,-21.0,6.732
-84.0,-38.0,6.733
-61.0,-33.0,6.734
-33.0,-25.0,6.735
-15.0,-18.0,6.736
2.0,4.0,6.737
31.0,52.0,6.738
78.0,97.0,6.739
115.0,104.0,6.74
105.0,60.0,6.741
61.0,-10.0,6.742
20.0,-83.0,6.743
0.0,-146.0,6.744
-21.0,-177.0,6.745
-62.0,-163.0,6.746
-101.0,-113.0,6.747
-111.0,-48.0,6.748
-94.0,21.0,6.749
-81.0,94.0,6.75
-84.0,163.0,6.751
-89.0,206.0,6.752
-88.0,201.0,6.753
-89.0,159.0,6.754
-91.0,108.0,6.755
-79.0,74.0,6.756
-51.0,53.0,6.757
-18.0,23.0,6.758
7.0,-13.0,6.759
26.0,-42.0,6.76
45.0,-55.0,6.761
44.0,-56.0,6.762
16.0,-56.0,6.763
-15.0,-52.0,6.764
-13.0,-40.0,6.765
11.0,-37.0,6.766
9.0,-59.0,6.767
-28.0,-86.0,6.768
-39.0,-76.0,6.769
19.0,-14.0,6.77
101.0,70.0,6.771
116.0,129.0,6.772
59.0,127.0,6.773
18.0,57.0,6.774
40.0,-55.0,6.775
65.0,-153.0,6.776
32.0,-187.0,6.777
-32.0,-173.0,6.778
-53.0,-144.0,6.779
-30.0,-120.0,6.78
-28.0,-112.0,6.781
-57.0,-96.0,6.782
-53.0,-56.0,6.783
14.0,-18.0,6.784
82.0,14.0,6.785
98.0,37.0,6.786
95.0,33.0,6.787
125.0,31.0,6.788
175.0,40.0,6.789
198.0,55.0,6.79
188.0,88.0,6.791
176.0,122.0,6.792
172.0,155.0,6.793
161.0,192.0,6.794
138.0,236.0,6.795
121.0,267.0,6.796
115.0,260.0,6.797
104.0,248.0,6.798
75.0,207.0,6.799
28.0,82.0,6.8
-34.0,-145.0,6.801
-96.0,-385.0,6.802
-134.0,-514.0,6.803
-137.0,-486.0,6.804
-115.0,-360.0,6.805
-88.0,-201.0,6.806
-56.0,-19.0,6.807
-12.0,192.0,6.808
26.0,360.0,6.809
31.0,363.0,6.81
8.0,174.0,6.811
-5.0,-76.0,6.812
14.0,-231.0,6.813
42.0,-263.0,6.814
58.0,-220.0,6.815
72.0,-118.0,6.816
107.0,23.0,6.817
154.0,135.0,6.818
178.0,123.0,6.819
149.0,25.0,6.82
82.0,-46.0,6.821
15.0,-71.0,6.822
-20.0,-126.0,6.823
-25.0,-211.0,6.824
-35.0,-233.0,6.825
-72.0,-155.0,6.826
-118.0,-30.0,6.827
-128.0,94.0,6.828
-87.0,211.0,6.829
-29.0,299.0,6.83
13.0,355.0,6.831
31.0,432.0,6.832
34.0,523.0,6.833
31.0,509.0,6.834
27.0,320.0,6.835
25.0,90.0,6.836
25.0,0.0,6.837
18.0,7.0,6.838
8.0,-58.0,6.839
-3.0,-269.0,6.84
-11.0,-516.0,6.841
-22.0,-680.0,6.842
-35.0,-731.0,6.843
-44.0,-673.0,6.844
-43.0,-508.0,6.845
-42.0,-298.0,6.846
-59.0,-130.0,6.847
-87.0,-19.0,6.848
-108.0,82.0,6.849
-108.0,207.0,6.85
-93.0,351.0,6.851
-78.0,494.0,6.852
-63.0,599.0,6.853
-47.0,621.0,6.854
-49.0,572.0,6.855
-69.0,516.0,6.856
-74.0,495.0,6.857
-29.0,478.0,6.858
50.0,432.0,6.859
104.0,323.0,6.86
102.0,113.0,6.861
50.0,-172.0,6.862
-35.0,-423.0,6.863
-132.0,-566.0,6.864
-182.0,-668.0,6.865
-121.0,-816.0,6.866
20.0,-929.0,6.867
142.0,-860.0,6.868
195.0,-622.0,6.869
218.0,-375.0,6.87
227.0,-201.0,6.871
169.0,-56.0,6.872
28.0,79.0,6.873
-104.0,157.0,6.874
-150.0,177.0,6.875
-133.0,201.0,6.876
-117.0,246.0,6.877
-108.0,290.0,6.878
-72.0,353.0,6.879
-5.0,497.0,6.88
72.0,701.0,6.881
148.0,843.0,6.882
194.0,808.0,6.883
172.0,602.0,6.884
100.0,315.0,6.885
61.0,24.0,6.886
97.0,-234.0,6.887
145.0,-424.0,6.888
134.0,-505.0,6.889
70.0,-486.0,6.89
-8.0,-428.0,6.891
-108.0,-381.0,6.892
-233.0,-346.0,6.893
-311.0,-305.0,6.894
-274.0,-268.0,6.895
-169.0,-262.0,6.896
-99.0,-270.0,6.897
-80.0,-248.0,6.898
-48.0,-167.0,6.899
21.0,-41.0,6.9
79.0,125.0,6.901
89.0,352.0,6.902
65.0,605.0,6.903
35.0,769.0,6.904
12.0,738.0,6.905
19.0,510.0,6.906
67.0,204.0,6.907
128.0,-41.0,6.908
154.0,-161.0,6.909
126.0,-200.0,6.91
48.0,-258.0,6.911
-77.0,-382.0,6.912
-218.0,-496.0,6.913
-298.0,-492.0,6.914
-262.0,-372.0,6.915
-147.0,-256.0,6.916
-40.0,-253.0,6.917
15.0,-347.0,6.918
24.0,-428.0,6.919
14.0,-460.0,6.92
4.0,-339.0,6.921
5.0,-187.0,6.922
19.0,55.0,6.923
39.0,284.0,6.924
57.0,468.0,6.925
64.0,613.0,6.926
60.0,641.0,6.927
58.0,655.0,6.928
74.0,628.0,6.929
99.0,573.0,6.93
112.0,437.0,6.931
99.0,323.0,6.932
64.0,280.0,6.933
15.0,239.0,6.934
-41.0,205.0,6.935
-90.0,132.0,6.936
-109.0,-61.0,6.937
-102.0,-243.0,6.938
-82.0,-350.0,6.939
-69.0,-417.0,6.94
-69.0,-466.0,6.941
-75.0,-446.0,6.942
-71.0,-324.0,6.943
-52.0,-133.0,6.944
-30.0,57.0,6.945
-15.0,195.0,6.946
-5.0,241.0,6.947
15.0,178.0,6.948
37.0,55.0,6.949
47.0,-22.0,6.95
47.0,4.0,6.951
51.0,85.0,6.952
57.0,117.0,6.953
53.0,47.0,6.954
52.0,-83.0,6.955
74.0,-194.0,6.956
118.0,-238.0,6.957
160.0,-238.0,6.958
179.0,-206.0,6.959
163.0,-103.0,6.96
120.0,67.0,6.961
63.0,167.0,6.962
29.0,32.0,6.963
26.0,-263.0,6.964
22.0,-448.0,6.965
-9.0,-404.0,6.966
-43.0,-282.0,6.967
-44.0,-227.0,6.968
-19.0,-218.0,6.969
5.0,-219.0,6.97
29.0,-290.0,6.971
61.0,-387.0,6.972
82.0,-316.0,6.973
66.0,0.0,6.974
33.0,360.0,6.975
9.0,546.0,6.976
-10.0,568.0,6.977
-41.0,524.0,6.978
-69.0,439.0,6.979
-77.0,315.0,6.98
-77.0,198.0,6.981
-91.0,95.0,6.982
-114.0,-87.0,6.983
-117.0,-358.0,6.984
-104.0,-562.0,6.985
-97.0,-560.0,6.986
-93.0,-389.0,6.987
-74.0,-185.0,6.988
-48.0,-49.0,6.989
-46.0,-8.0,6.99
-64.0,-11.0,6.991
-75.0,57.0,6.992
-70.0,234.0,6.993
-71.0,421.0,6.994
-81.0,524.0,6.995
-67.0,612.0,6.996
-15.0,748.0,6.997
59.0,820.0,6.998
122.0,636.0,6.999
161.0,206.0,7.0
187.0,-252.0,7.001
198.0,-538.0,7.002
182.0,-609.0,7.003
132.0,-492.0,7.004
66.0,-265.0,7.005
4.0,-67.0,7.006
-46.0,11.0,7.007
-98.0,-1.0,7.008
-144.0,-46.0,7.009
-145.0,-133.0,7.01
-85.0,-270.0,7.011
-11.0,-394.0,7.012
18.0,-428.0,7.013
1.0,-373.0,7.014
-18.0,-257.0,7.015
-13.0,-93.0,7.016
7.0,89.0,7.017
31.0,280.0,7.018
58.0,484.0,7.019
78.0,738.0,7.02
87.0,999.0,7.021
95.0,1130.0,7.022
114.0,1026.0,7.023
122.0,706.0,7.024
94.0,255.0,7.025
52.0,-239.0,7.026
36.0,-679.0,7.027
39.0,-966.0,7.028
19.0,-1065.0,7.029
-38.0,-1018.0,7.03
-89.0,-856.0,7.031
-90.0,-584.0,7.032
-53.0,-260.0,7.033
-37.0,-2.0,7.034
-68.0,143.0,7.035
-115.0,235.0,7.036
-129.0,328.0,7.037
-109.0,404.0,7.038
-93.0,420.0,7.039
-96.0,371.0,7.04
-77.0,272.0,7.041
-7.0,147.0,7.042
72.0,35.0,7.043
107.0,-12.0,7.044
101.0,-1.0,7.045
97.0,5.0,7.046
105.0,-15.0,7.047
88.0,-22.0,7.048
45.0,0.0,7.049
12.0,20.0,7.05
-1.0,21.0,7.051
-15.0,19.0,7.052
-49.0,20.0,7.053
-79.0,7.0,7.054
-85.0,-13.0,7.055
-66.0,-15.0,7.056
-45.0,-4.0,7.057
-23.0,-5.0,7.058
-1.0,-21.0,7.059
24.0,-28.0,7.06
47.0,-25.0,7.061
69.0,-26.0,7.062
88.0,-33.0,7.063
96.0,-32.0,7.064
83.0,-25.0,7.065
57.0,-25.0,7.066
40.0,-31.0,7.067
36.0,-31.0,7.068
25.0,-26.0,7.069
-7.0,-31.0,7.07
-43.0,-39.0,7.071
-58.0,-38.0,7.072
-50.0,-31.0,7.073
-39.0,-25.0,7.074
-29.0,-25.0,7.075
-12.0,-21.0,7.076
19.0,-14.0,7.077
51.0,-15.0,7.078
75.0,-19.0,7.079
86.0,-18.0,7.08
82.0,-15.0,7.081
61.0,-13.0,7.082
36.0,-13.0,7.083
26.0,-13.0,7.084
38.0,-16.0,7.085
61.0,-22.0,7.086
75.0,-27.0,7.087
72.0,-31.0,7.088
53.0,-28.0,7.089
28.0,-19.0,7.09
4.0,-8.0,7.091
-16.0,-4.0,7.092
-33.0,-6.0,7.093
-50.0,-8.0,7.094
-59.0,-9.0,7.095
-56.0,-7.0,7.096
-47.0,-7.0,7.097
-40.0,-7.0,7.098
-38.0,-3.0,7.099
-38.0,3.0,7.1
-35.0,3.0,7.101
-30.0,5.0,7.102
-21.0,10.0,7.103
-10.0,13.0,7.104
-4.0,10.0,7.105
-6.0,6.0,7.106
-10.0,7.0,7.107
-10.0,11.0,7.108
-10.0,11.0,7.109
-11.0,10.0,7.11
-10.0,14.0,7.111
-6.0,17.0,7.112
-3.0,17.0,7.113
-5.0,16.0,7.114
-9.0,18.0,7.115
-5.0,23.0,7.116
3.0,26.0,7.117
9.0,26.0,7.118
13.0,23.0,7.119
16.0,20.0,7.12
21.0,14.0,7.121
24.0,14.0,7.122
23.0,18.0,7.123
21.0,25.0,7.124
20.0,36.0,7.125
16.0,47.0,7.126
2.0,44.0,7.127
-15.0,22.0,7.128
-32.0,-1.0,7.129
-46.0,-10.0,7.13
