Deltoid,Bicep,Time
-4.0,1.0,0.0
-6.0,-3.0,0.001
-3.0,-3.0,0.002
3.0,-3.0,0.003
9.0,-2.0,0.004
12.0,2.0,0.005
10.0,7.0,0.006
7.0,8.0,0.007
10.0,5.0,0.008
12.0,3.0,0.009
12.0,4.0,0.01
10.0,6.0,0.011
8.0,5.0,0.012
8.0,4.0,0.013
5.0,6.0,0.014
0.0,7.0,0.015
0.0,4.0,0.016
1.0,3.0,0.017
1.0,1.0,0.018
0.0,-2.0,0.019
-4.0,-6.0,0.02
-8.0,-9.0,0.021
-13.0,-6.0,0.022
-10.0,-3.0,0.023
1.0,-2.0,0.024
8.0,-1.0,0.025
4.0,0.0,0.026
-2.0,0.0,0.027
-2.0,-3.0,0.028
2.0,-5.0,0.029
0.0,-3.0,0.03
-4.0,-1.0,0.031
-3.0,-1.0,0.032
1.0,-3.0,0.033
3.0,-2.0,0.034
1.0,-1.0,0.035
0.0,-2.0,0.036
0.0,-1.0,0.037
-2.0,0.0,0.038
-5.0,2.0,0.039
-6.0,0.0,0.04
-6.0,-6.0,0.041
-5.0,-8.0,0.042
0.0,-6.0,0.043
10.0,-2.0,0.044
14.0,0.0,0.045
7.0,1.0,0.046
1.0,2.0,0.047
4.0,-1.0,0.048
8.0,-2.0,0.049
5.0,-1.0,0.05
2.0,1.0,0.051
4.0,1.0,0.052
8.0,0.0,0.053
8.0,0.0,0.054
3.0,-1.0,0.055
1.0,-1.0,0.056
2.0,1.0,0.057
3.0,2.0,0.058
3.0,1.0,0.059
-1.0,-5.0,0.06
-6.0,-10.0,0.061
-6.0,-9.0,0.062
0.0,-5.0,0.063
8.0,-4.0,0.064
10.0,-3.0,0.065
4.0,0.0,0.066
2.0,1.0,0.067
6.0,-1.0,0.068
7.0,-1.0,0.069
5.0,1.0,0.07
2.0,2.0,0.071
3.0,-3.0,0.072
5.0,-6.0,0.073
3.0,-3.0,0.074
3.0,0.0,0.075
4.0,-1.0,0.076
4.0,-2.0,0.077
1.0,-5.0,0.078
0.0,-5.0,0.079
-4.0,-5.0,0.08
-9.0,-8.0,0.081
-11.0,-8.0,0.082
-4.0,-4.0,0.083
7.0,2.0,0.084
9.0,9.0,0.085
3.0,10.0,0.086
1.0,7.0,0.087
8.0,0.0,0.088
13.0,-4.0,0.089
11.0,-1.0,0.09
9.0,0.0,0.091
5.0,0.0,0.092
2.0,-1.0,0.093
0.0,0.0,0.094
1.0,0.0,0.095
1.0,-1.0,0.096
0.0,-1.0,0.097
0.0,-1.0,0.098
2.0,0.0,0.099
1.0,-1.0,0.1
-4.0,-7.0,0.101
-6.0,-9.0,0.102
0.0,-6.0,0.103
11.0,-3.0,0.104
12.0,2.0,0.105
4.0,5.0,0.106
2.0,3.0,0.107
8.0,0.0,0.108
8.0,-1.0,0.109
0.0,1.0,0.11
-3.0,4.0,0.111
2.0,3.0,0.112
7.0,2.0,0.113
6.0,2.0,0.114
1.0,1.0,0.115
0.0,0.0,0.116
0.0,0.0,0.117
0.0,0.0,0.118
-1.0,0.0,0.119
-5.0,-1.0,0.12
-6.0,-7.0,0.121
-6.0,-9.0,0.122
2.0,-6.0,0.123
10.0,0.0,0.124
11.0,6.0,0.125
7.0,8.0,0.126
7.0,7.0,0.127
8.0,4.0,0.128
8.0,2.0,0.129
3.0,1.0,0.13
0.0,0.0,0.131
-1.0,-3.0,0.132
0.0,-3.0,0.133
2.0,-1.0,0.134
5.0,0.0,0.135
5.0,0.0,0.136
2.0,0.0,0.137
-2.0,-1.0,0.138
-2.0,0.0,0.139
-4.0,-1.0,0.14
-10.0,-4.0,0.141
-13.0,-3.0,0.142
-5.0,-3.0,0.143
8.0,-3.0,0.144
12.0,0.0,0.145
5.0,3.0,0.146
1.0,3.0,0.147
3.0,0.0,0.148
7.0,-3.0,0.149
6.0,-2.0,0.15
2.0,1.0,0.151
2.0,3.0,0.152
4.0,2.0,0.153
6.0,2.0,0.154
4.0,2.0,0.155
1.0,1.0,0.156
0.0,0.0,0.157
0.0,-1.0,0.158
0.0,-2.0,0.159
-1.0,-3.0,0.16
-4.0,-6.0,0.161
-4.0,-6.0,0.162
-3.0,-7.0,0.163
0.0,-8.0,0.164
1.0,-4.0,0.165
-1.0,0.0,0.166
0.0,2.0,0.167
7.0,-2.0,0.168
13.0,-5.0,0.169
12.0,-3.0,0.17
6.0,0.0,0.171
3.0,-2.0,0.172
4.0,-5.0,0.173
4.0,-4.0,0.174
4.0,-1.0,0.175
6.0,-1.0,0.176
8.0,-3.0,0.177
2.0,-5.0,0.178
-4.0,-5.0,0.179
-10.0,-4.0,0.18
-10.0,-8.0,0.181
-6.0,-9.0,0.182
1.0,-7.0,0.183
6.0,-3.0,0.184
7.0,0.0,0.185
4.0,3.0,0.186
4.0,3.0,0.187
8.0,1.0,0.188
10.0,0.0,0.189
5.0,1.0,0.19
2.0,3.0,0.191
5.0,2.0,0.192
8.0,1.0,0.193
6.0,0.0,0.194
0.0,-2.0,0.195
-2.0,-5.0,0.196
-1.0,-5.0,0.197
-2.0,1.0,0.198
-3.0,-2.0,0.199
-5.0,-5.0,0.2
-8.0,-7.0,0.201
-6.0,-5.0,0.202
0.0,-4.0,0.203
10.0,-3.0,0.204
9.0,-1.0,0.205
2.0,1.0,0.206
3.0,1.0,0.207
10.0,0.0,0.208
11.0,0.0,0.209
6.0,3.0,0.21
4.0,4.0,0.211
6.0,2.0,0.212
4.0,2.0,0.213
2.0,5.0,0.214
4.0,7.0,0.215
8.0,3.0,0.216
6.0,0.0,0.217
0.0,-3.0,0.218
-2.0,-2.0,0.219
-3.0,-1.0,0.22
-5.0,-4.0,0.221
-5.0,-6.0,0.222
2.0,-6.0,0.223
11.0,-4.0,0.224
8.0,0.0,0.225
-1.0,2.0,0.226
-2.0,2.0,0.227
4.0,0.0,0.228
7.0,0.0,0.229
6.0,0.0,0.23
3.0,-1.0,0.231
4.0,-1.0,0.232
4.0,0.0,0.233
2.0,0.0,0.234
0.0,0.0,0.235
-2.0,-1.0,0.236
0.0,-1.0,0.237
1.0,-1.0,0.238
2.0,-3.0,0.239
0.0,-3.0,0.24
-5.0,-6.0,0.241
-8.0,-6.0,0.242
-1.0,-5.0,0.243
9.0,-4.0,0.244
10.0,-1.0,0.245
7.0,2.0,0.246
5.0,1.0,0.247
8.0,1.0,0.248
10.0,2.0,0.249
6.0,3.0,0.25
6.0,0.0,0.251
8.0,-1.0,0.252
7.0,2.0,0.253
0.0,5.0,0.254
-4.0,0.0,0.255
-3.0,-5.0,0.256
2.0,-6.0,0.257
-1.0,-3.0,0.258
-4.0,-1.0,0.259
-6.0,-6.0,0.26
-5.0,-13.0,0.261
-5.0,-13.0,0.262
-2.0,-9.0,0.263
3.0,-6.0,0.264
7.0,-4.0,0.265
5.0,0.0,0.266
3.0,1.0,0.267
6.0,0.0,0.268
10.0,-1.0,0.269
8.0,2.0,0.27
2.0,5.0,0.271
0.0,3.0,0.272
3.0,0.0,0.273
6.0,0.0,0.274
5.0,0.0,0.275
6.0,0.0,0.276
6.0,0.0,0.277
1.0,-1.0,0.278
-2.0,0.0,0.279
-4.0,-1.0,0.28
-5.0,-4.0,0.281
-7.0,-5.0,0.282
-4.0,-3.0,0.283
2.0,0.0,0.284
10.0,1.0,0.285
7.0,3.0,0.286
2.0,2.0,0.287
1.0,0.0,0.288
6.0,-1.0,0.289
9.0,0.0,0.29
5.0,3.0,0.291
2.0,2.0,0.292
3.0,0.0,0.293
4.0,-1.0,0.294
2.0,-1.0,0.295
-3.0,0.0,0.296
-4.0,0.0,0.297
-1.0,-1.0,0.298
0.0,-2.0,0.299
-4.0,-4.0,0.3
-9.0,-8.0,0.301
-8.0,-9.0,0.302
0.0,-8.0,0.303
8.0,-3.0,0.304
10.0,1.0,0.305
7.0,2.0,0.306
6.0,0.0,0.307
6.0,-2.0,0.308
6.0,-1.0,0.309
5.0,2.0,0.31
5.0,2.0,0.311
5.0,0.0,0.312
6.0,-2.0,0.313
4.0,0.0,0.314
2.0,2.0,0.315
2.0,0.0,0.316
3.0,1.0,0.317
0.0,3.0,0.318
-1.0,2.0,0.319
-4.0,0.0,0.32
-7.0,-5.0,0.321
-8.0,-1.0,0.322
-4.0,3.0,0.323
2.0,1.0,0.324
4.0,-3.0,0.325
3.0,-1.0,0.326
4.0,2.0,0.327
9.0,3.0,0.328
12.0,3.0,0.329
9.0,5.0,0.33
7.0,6.0,0.331
8.0,1.0,0.332
6.0,-3.0,0.333
3.0,-2.0,0.334
0.0,1.0,0.335
-2.0,0.0,0.336
0.0,-3.0,0.337
0.0,-4.0,0.338
0.0,-2.0,0.339
-3.0,-4.0,0.34
-7.0,-10.0,0.341
-5.0,-10.0,0.342
1.0,-5.0,0.343
10.0,-2.0,0.344
9.0,0.0,0.345
5.0,3.0,0.346
4.0,4.0,0.347
8.0,0.0,0.348
9.0,-1.0,0.349
6.0,0.0,0.35
3.0,1.0,0.351
4.0,0.0,0.352
3.0,0.0,0.353
3.0,2.0,0.354
5.0,1.0,0.355
6.0,-2.0,0.356
4.0,-1.0,0.357
-1.0,0.0,0.358
-5.0,-1.0,0.359
-7.0,-6.0,0.36
-7.0,-10.0,0.361
-4.0,-5.0,0.362
2.0,-1.0,0.363
7.0,-2.0,0.364
7.0,-4.0,0.365
2.0,0.0,0.366
0.0,4.0,0.367
4.0,2.0,0.368
9.0,0.0,0.369
9.0,1.0,0.37
6.0,1.0,0.371
5.0,0.0,0.372
4.0,-1.0,0.373
2.0,0.0,0.374
0.0,-1.0,0.375
0.0,-3.0,0.376
1.0,-1.0,0.377
2.0,0.0,0.378
-1.0,-1.0,0.379
-6.0,-5.0,0.38
-7.0,-9.0,0.381
-1.0,-8.0,0.382
8.0,-6.0,0.383
13.0,-3.0,0.384
11.0,0.0,0.385
5.0,2.0,0.386
0.0,1.0,0.387
1.0,-1.0,0.388
3.0,-1.0,0.389
5.0,1.0,0.39
4.0,3.0,0.391
2.0,3.0,0.392
0.0,0.0,0.393
0.0,-3.0,0.394
0.0,-4.0,0.395
-1.0,-1.0,0.396
-1.0,4.0,0.397
-2.0,6.0,0.398
-3.0,1.0,0.399
-5.0,-5.0,0.4
-6.0,-10.0,0.401
-3.0,-8.0,0.402
1.0,-5.0,0.403
4.0,-3.0,0.404
6.0,1.0,0.405
3.0,6.0,0.406
4.0,5.0,0.407
9.0,2.0,0.408
13.0,-2.0,0.409
11.0,-2.0,0.41
7.0,-1.0,0.411
7.0,-1.0,0.412
9.0,0.0,0.413
6.0,-1.0,0.414
0.0,-1.0,0.415
-3.0,-2.0,0.416
-2.0,-1.0,0.417
-3.0,0.0,0.418
-4.0,-1.0,0.419
-5.0,-2.0,0.42
-6.0,-6.0,0.421
-4.0,-8.0,0.422
1.0,-4.0,0.423
10.0,0.0,0.424
14.0,4.0,0.425
8.0,8.0,0.426
1.0,8.0,0.427
1.0,6.0,0.428
4.0,3.0,0.429
5.0,1.0,0.43
5.0,1.0,0.431
4.0,0.0,0.432
5.0,-2.0,0.433
5.0,-4.0,0.434
5.0,-1.0,0.435
6.0,1.0,0.436
5.0,0.0,0.437
3.0,-1.0,0.438
2.0,-1.0,0.439
2.0,-5.0,0.44
1.0,-11.0,0.441
0.0,-11.0,0.442
4.0,-5.0,0.443
10.0,2.0,0.444
10.0,0.0,0.445
3.0,-2.0,0.446
-1.0,-1.0,0.447
-3.0,2.0,0.448
-3.0,1.0,0.449
-6.0,0.0,0.45
-6.0,0.0,0.451
-3.0,-1.0,0.452
-2.0,-3.0,0.453
-2.0,-2.0,0.454
0.0,0.0,0.455
5.0,-1.0,0.456
8.0,-4.0,0.457
4.0,-7.0,0.458
1.0,-7.0,0.459
-2.0,-6.0,0.46
-5.0,-8.0,0.461
-6.0,-7.0,0.462
-2.0,-2.0,0.463
4.0,1.0,0.464
5.0,2.0,0.465
2.0,2.0,0.466
1.0,2.0,0.467
2.0,2.0,0.468
4.0,1.0,0.469
7.0,2.0,0.47
10.0,2.0,0.471
12.0,0.0,0.472
8.0,-2.0,0.473
4.0,-3.0,0.474
4.0,-2.0,0.475
5.0,-1.0,0.476
2.0,0.0,0.477
-2.0,-2.0,0.478
-1.0,-3.0,0.479
0.0,-2.0,0.48
-3.0,-5.0,0.481
-5.0,-6.0,0.482
-1.0,-4.0,0.483
7.0,-2.0,0.484
9.0,2.0,0.485
3.0,7.0,0.486
0.0,6.0,0.487
5.0,0.0,0.488
10.0,-4.0,0.489
9.0,-3.0,0.49
5.0,2.0,0.491
5.0,4.0,0.492
6.0,2.0,0.493
6.0,-1.0,0.494
3.0,-1.0,0.495
2.0,1.0,0.496
2.0,4.0,0.497
0.0,0.0,0.498
-3.0,-2.0,0.499
-7.0,-5.0,0.5
-8.0,-5.0,0.501
-6.0,-4.0,0.502
0.0,-4.0,0.503
4.0,-2.0,0.504
4.0,2.0,0.505
3.0,5.0,0.506
4.0,3.0,0.507
7.0,1.0,0.508
6.0,1.0,0.509
1.0,0.0,0.51
1.0,2.0,0.511
8.0,4.0,0.512
8.0,0.0,0.513
5.0,-3.0,0.514
1.0,-3.0,0.515
3.0,-4.0,0.516
6.0,-2.0,0.517
3.0,-1.0,0.518
-1.0,-4.0,0.519
-4.0,-7.0,0.52
-8.0,-8.0,0.521
-9.0,-4.0,0.522
-1.0,-1.0,0.523
10.0,0.0,0.524
13.0,1.0,0.525
5.0,1.0,0.526
-1.0,0.0,0.527
1.0,0.0,0.528
7.0,1.0,0.529
10.0,6.0,0.53
11.0,7.0,0.531
11.0,4.0,0.532
10.0,-1.0,0.533
4.0,-2.0,0.534
0.0,0.0,0.535
0.0,1.0,0.536
1.0,1.0,0.537
-1.0,-1.0,0.538
-1.0,-2.0,0.539
-1.0,-4.0,0.54
-2.0,-7.0,0.541
-4.0,-6.0,0.542
-4.0,-4.0,0.543
1.0,-2.0,0.544
4.0,1.0,0.545
1.0,3.0,0.546
-1.0,2.0,0.547
4.0,-2.0,0.548
8.0,-3.0,0.549
5.0,-1.0,0.55
0.0,0.0,0.551
2.0,-3.0,0.552
6.0,-3.0,0.553
5.0,-2.0,0.554
2.0,0.0,0.555
4.0,-1.0,0.556
9.0,-2.0,0.557
7.0,-2.0,0.558
-1.0,-2.0,0.559
-8.0,-4.0,0.56
-10.0,-7.0,0.561
-5.0,-7.0,0.562
0.0,-6.0,0.563
3.0,-7.0,0.564
1.0,-5.0,0.565
0.0,0.0,0.566
1.0,5.0,0.567
5.0,4.0,0.568
6.0,2.0,0.569
2.0,3.0,0.57
1.0,4.0,0.571
6.0,1.0,0.572
8.0,-2.0,0.573
6.0,-1.0,0.574
2.0,0.0,0.575
3.0,-1.0,0.576
5.0,-1.0,0.577
3.0,1.0,0.578
-1.0,2.0,0.579
-8.0,1.0,0.58
-10.0,-6.0,0.581
-6.0,-11.0,0.582
2.0,-8.0,0.583
12.0,-4.0,0.584
14.0,1.0,0.585
9.0,5.0,0.586
6.0,4.0,0.587
6.0,3.0,0.588
6.0,1.0,0.589
3.0,0.0,0.59
2.0,0.0,0.591
3.0,-1.0,0.592
2.0,0.0,0.593
0.0,1.0,0.594
-2.0,-4.0,0.595
0.0,-8.0,0.596
3.0,-7.0,0.597
1.0,-5.0,0.598
-2.0,-3.0,0.599
-6.0,-4.0,0.6
-6.0,-7.0,0.601
-3.0,-5.0,0.602
3.0,-3.0,0.603
9.0,-1.0,0.604
9.0,2.0,0.605
2.0,5.0,0.606
-3.0,5.0,0.607
0.0,3.0,0.608
5.0,1.0,0.609
5.0,2.0,0.61
0.0,2.0,0.611
0.0,1.0,0.612
3.0,2.0,0.613
5.0,2.0,0.614
5.0,0.0,0.615
4.0,-2.0,0.616
3.0,-1.0,0.617
0.0,0.0,0.618
-2.0,0.0,0.619
-5.0,-2.0,0.62
-5.0,-7.0,0.621
-2.0,-6.0,0.622
6.0,-2.0,0.623
13.0,2.0,0.624
13.0,6.0,0.625
14.0,6.0,0.626
12.0,2.0,0.627
10.0,-2.0,0.628
8.0,-3.0,0.629
6.0,0.0,0.63
6.0,2.0,0.631
6.0,3.0,0.632
7.0,1.0,0.633
7.0,-1.0,0.634
4.0,-2.0,0.635
1.0,-2.0,0.636
2.0,-1.0,0.637
3.0,-1.0,0.638
3.0,-3.0,0.639
0.0,-4.0,0.64
-4.0,-4.0,0.641
-6.0,-5.0,0.642
-3.0,-3.0,0.643
4.0,-3.0,0.644
6.0,-4.0,0.645
3.0,-3.0,0.646
3.0,-2.0,0.647
6.0,0.0,0.648
5.0,3.0,0.649
1.0,0.0,0.65
0.0,-2.0,0.651
4.0,-4.0,0.652
4.0,-3.0,0.653
1.0,-1.0,0.654
-1.0,0.0,0.655
2.0,0.0,0.656
2.0,-1.0,0.657
0.0,-3.0,0.658
-2.0,-6.0,0.659
-3.0,-5.0,0.66
-6.0,-5.0,0.661
-6.0,-2.0,0.662
-1.0,0.0,0.663
7.0,1.0,0.664
8.0,1.0,0.665
5.0,2.0,0.666
5.0,3.0,0.667
7.0,2.0,0.668
6.0,-2.0,0.669
3.0,-5.0,0.67
1.0,-4.0,0.671
2.0,-2.0,0.672
0.0,-2.0,0.673
-2.0,-4.0,0.674
-3.0,-6.0,0.675
-1.0,-5.0,0.676
0.0,0.0,0.677
0.0,0.0,0.678
1.0,-1.0,0.679
-2.0,-4.0,0.68
-8.0,-8.0,0.681
-9.0,-7.0,0.682
-1.0,-5.0,0.683
8.0,-2.0,0.684
11.0,0.0,0.685
6.0,2.0,0.686
4.0,3.0,0.687
7.0,1.0,0.688
10.0,0.0,0.689
9.0,2.0,0.69
6.0,3.0,0.691
4.0,0.0,0.692
3.0,-2.0,0.693
2.0,-2.0,0.694
3.0,0.0,0.695
5.0,-2.0,0.696
7.0,-4.0,0.697
4.0,-3.0,0.698
0.0,-3.0,0.699
-4.0,-3.0,0.7
-7.0,-6.0,0.701
-8.0,-4.0,0.702
-1.0,0.0,0.703
4.0,-1.0,0.704
4.0,-1.0,0.705
4.0,0.0,0.706
3.0,1.0,0.707
2.0,2.0,0.708
3.0,2.0,0.709
4.0,4.0,0.71
4.0,1.0,0.711
3.0,0.0,0.712
3.0,1.0,0.713
3.0,5.0,0.714
5.0,5.0,0.715
7.0,1.0,0.716
5.0,0.0,0.717
3.0,0.0,0.718
2.0,-1.0,0.719
0.0,-5.0,0.72
-4.0,-8.0,0.721
-7.0,-5.0,0.722
-4.0,0.0,0.723
5.0,1.0,0.724
11.0,0.0,0.725
8.0,0.0,0.726
4.0,0.0,0.727
6.0,1.0,0.728
10.0,2.0,0.729
10.0,3.0,0.73
8.0,1.0,0.731
7.0,-1.0,0.732
3.0,-1.0,0.733
2.0,-1.0,0.734
2.0,0.0,0.735
4.0,-2.0,0.736
2.0,0.0,0.737
0.0,0.0,0.738
0.0,-2.0,0.739
-1.0,-5.0,0.74
-5.0,-7.0,0.741
-8.0,-5.0,0.742
-2.0,-4.0,0.743
5.0,-4.0,0.744
7.0,-2.0,0.745
1.0,1.0,0.746
2.0,1.0,0.747
9.0,-1.0,0.748
11.0,-2.0,0.749
5.0,0.0,0.75
0.0,3.0,0.751
0.0,1.0,0.752
2.0,0.0,0.753
0.0,-1.0,0.754
-2.0,-3.0,0.755
-3.0,-4.0,0.756
-2.0,-3.0,0.757
-1.0,-4.0,0.758
0.0,-4.0,0.759
-3.0,-4.0,0.76
-6.0,-5.0,0.761
-7.0,-7.0,0.762
1.0,-6.0,0.763
9.0,-4.0,0.764
9.0,1.0,0.765
6.0,5.0,0.766
7.0,3.0,0.767
13.0,1.0,0.768
11.0,1.0,0.769
4.0,0.0,0.77
3.0,-1.0,0.771
7.0,-3.0,0.772
10.0,-3.0,0.773
2.0,-3.0,0.774
-3.0,-3.0,0.775
-1.0,-2.0,0.776
5.0,-2.0,0.777
6.0,-3.0,0.778
1.0,-2.0,0.779
-2.0,-3.0,0.78
-2.0,-6.0,0.781
-4.0,-5.0,0.782
-4.0,-2.0,0.783
0.0,0.0,0.784
4.0,2.0,0.785
1.0,3.0,0.786
-4.0,1.0,0.787
-3.0,0.0,0.788
2.0,2.0,0.789
7.0,5.0,0.79
5.0,4.0,0.791
4.0,1.0,0.792
6.0,0.0,0.793
8.0,2.0,0.794
6.0,4.0,0.795
3.0,4.0,0.796
1.0,4.0,0.797
-2.0,2.0,0.798
-4.0,-2.0,0.799
-7.0,-5.0,0.8
-10.0,-6.0,0.801
-6.0,-5.0,0.802
2.0,-4.0,0.803
12.0,-3.0,0.804
14.0,-2.0,0.805
10.0,-3.0,0.806
10.0,-4.0,0.807
10.0,-2.0,0.808
9.0,-1.0,0.809
4.0,-1.0,0.81
2.0,-1.0,0.811
5.0,1.0,0.812
6.0,4.0,0.813
3.0,4.0,0.814
1.0,1.0,0.815
3.0,0.0,0.816
8.0,3.0,0.817
4.0,5.0,0.818
0.0,3.0,0.819
-3.0,1.0,0.82
-4.0,-3.0,0.821
-4.0,-6.0,0.822
-3.0,-3.0,0.823
0.0,-1.0,0.824
5.0,-1.0,0.825
4.0,-1.0,0.826
1.0,0.0,0.827
2.0,1.0,0.828
4.0,1.0,0.829
4.0,2.0,0.83
2.0,3.0,0.831
1.0,4.0,0.832
1.0,2.0,0.833
3.0,0.0,0.834
5.0,-2.0,0.835
5.0,-5.0,0.836
3.0,-5.0,0.837
0.0,-5.0,0.838
0.0,-4.0,0.839
-3.0,-5.0,0.84
-6.0,-7.0,0.841
-8.0,-4.0,0.842
-6.0,-3.0,0.843
1.0,-5.0,0.844
5.0,-3.0,0.845
1.0,0.0,0.846
-1.0,2.0,0.847
2.0,-1.0,0.848
4.0,-2.0,0.849
4.0,1.0,0.85
5.0,3.0,0.851
8.0,3.0,0.852
9.0,0.0,0.853
4.0,-1.0,0.854
2.0,0.0,0.855
3.0,0.0,0.856
3.0,1.0,0.857
0.0,0.0,0.858
-1.0,-2.0,0.859
-3.0,-4.0,0.86
-6.0,-7.0,0.861
-8.0,-5.0,0.862
-3.0,-1.0,0.863
5.0,0.0,0.864
7.0,0.0,0.865
4.0,2.0,0.866
2.0,3.0,0.867
4.0,0.0,0.868
5.0,-3.0,0.869
3.0,-2.0,0.87
7.0,3.0,0.871
12.0,5.0,0.872
12.0,3.0,0.873
6.0,0.0,0.874
0.0,0.0,0.875
1.0,1.0,0.876
4.0,3.0,0.877
1.0,2.0,0.878
-2.0,1.0,0.879
-4.0,0.0,0.88
0.0,-4.0,0.881
1.0,-6.0,0.882
4.0,-4.0,0.883
9.0,0.0,0.884
13.0,1.0,0.885
11.0,0.0,0.886
6.0,-1.0,0.887
5.0,-1.0,0.888
8.0,-1.0,0.889
8.0,-1.0,0.89
5.0,0.0,0.891
3.0,1.0,0.892
3.0,0.0,0.893
1.0,-1.0,0.894
0.0,-1.0,0.895
0.0,-2.0,0.896
1.0,0.0,0.897
0.0,-3.0,0.898
-3.0,-3.0,0.899
-9.0,-3.0,0.9
-11.0,-5.0,0.901
-9.0,-6.0,0.902
0.0,-3.0,0.903
10.0,0.0,0.904
10.0,1.0,0.905
3.0,2.0,0.906
0.0,0.0,0.907
4.0,-1.0,0.908
8.0,-1.0,0.909
7.0,-1.0,0.91
4.0,0.0,0.911
6.0,2.0,0.912
6.0,1.0,0.913
2.0,0.0,0.914
0.0,-1.0,0.915
4.0,-2.0,0.916
6.0,-3.0,0.917
2.0,-4.0,0.918
-5.0,-6.0,0.919
-9.0,-6.0,0.92
-11.0,-9.0,0.921
-10.0,-7.0,0.922
-3.0,-3.0,0.923
3.0,0.0,0.924
5.0,1.0,0.925
2.0,3.0,0.926
0.0,5.0,0.927
3.0,2.0,0.928
3.0,-1.0,0.929
0.0,-2.0,0.93
-2.0,0.0,0.931
1.0,0.0,0.932
3.0,-2.0,0.933
4.0,-2.0,0.934
4.0,0.0,0.935
4.0,-1.0,0.936
5.0,-4.0,0.937
3.0,-3.0,0.938
1.0,-1.0,0.939
-4.0,-2.0,0.94
-11.0,-9.0,0.941
-11.0,-9.0,0.942
1.0,-3.0,0.943
13.0,2.0,0.944
13.0,1.0,0.945
5.0,-1.0,0.946
4.0,-1.0,0.947
9.0,0.0,0.948
9.0,-1.0,0.949
2.0,0.0,0.95
-1.0,3.0,0.951
2.0,4.0,0.952
4.0,2.0,0.953
3.0,0.0,0.954
5.0,0.0,0.955
11.0,1.0,0.956
16.0,1.0,0.957
12.0,-4.0,0.958
8.0,-7.0,0.959
2.0,-8.0,0.96
-3.0,-5.0,0.961
-9.0,0.0,0.962
-6.0,1.0,0.963
1.0,-1.0,0.964
3.0,-2.0,0.965
-4.0,0.0,0.966
-7.0,1.0,0.967
0.0,0.0,0.968
9.0,-1.0,0.969
8.0,0.0,0.97
3.0,1.0,0.971
4.0,-1.0,0.972
7.0,-1.0,0.973
5.0,0.0,0.974
0.0,1.0,0.975
0.0,0.0,0.976
4.0,0.0,0.977
2.0,-1.0,0.978
0.0,-2.0,0.979
-3.0,-3.0,0.98
-5.0,-5.0,0.981
-6.0,-7.0,0.982
-3.0,-4.0,0.983
6.0,-2.0,0.984
12.0,-2.0,0.985
7.0,-3.0,0.986
0.0,-1.0,0.987
1.0,0.0,0.988
8.0,0.0,0.989
11.0,0.0,0.99
10.0,3.0,0.991
9.0,5.0,0.992
10.0,3.0,0.993
6.0,1.0,0.994
5.0,1.0,0.995
8.0,1.0,0.996
11.0,1.0,0.997
6.0,0.0,0.998
0.0,-2.0,0.999
-5.0,-5.0,1.0
-7.0,-8.0,1.001
-8.0,-5.0,1.002
-2.0,-3.0,1.003
6.0,-3.0,1.004
7.0,-1.0,1.005
1.0,3.0,1.006
-1.0,4.0,1.007
6.0,2.0,1.008
9.0,1.0,1.009
3.0,4.0,1.01
1.0,3.0,1.011
4.0,-1.0,1.012
7.0,-4.0,1.013
2.0,-3.0,1.014
0.0,-1.0,1.015
4.0,-1.0,1.016
8.0,0.0,1.017
0.0,-1.0,1.018
-7.0,-4.0,1.019
-7.0,-5.0,1.02
-5.0,-6.0,1.021
-9.0,-6.0,1.022
-9.0,-8.0,1.023
0.0,-9.0,1.024
11.0,-2.0,1.025
10.0,9.0,1.026
1.0,10.0,1.027
2.0,2.0,1.028
9.0,0.0,1.029
11.0,3.0,1.03
3.0,4.0,1.031
-2.0,-2.0,1.032
-2.0,-2.0,1.033
-1.0,2.0,1.034
-3.0,4.0,1.035
-5.0,-1.0,1.036
-4.0,-5.0,1.037
-2.0,-6.0,1.038
-3.0,-4.0,1.039
-3.0,-4.0,1.04
-3.0,-7.0,1.041
-1.0,-6.0,1.042
7.0,-4.0,1.043
20.0,-2.0,1.044
23.0,-1.0,1.045
13.0,1.0,1.046
0.0,2.0,1.047
-2.0,0.0,1.048
0.0,-1.0,1.049
-3.0,-1.0,1.05
-12.0,0.0,1.051
-15.0,0.0,1.052
-8.0,-3.0,1.053
-1.0,-5.0,1.054
2.0,-2.0,1.055
1.0,2.0,1.056
1.0,8.0,1.057
-3.0,0.0,1.058
-6.0,0.0,1.059
-7.0,-1.0,1.06
-4.0,-2.0,1.061
-2.0,-5.0,1.062
5.0,-4.0,1.063
15.0,-1.0,1.064
18.0,2.0,1.065
19.0,7.0,1.066
22.0,7.0,1.067
26.0,7.0,1.068
19.0,5.0,1.069
3.0,2.0,1.07
-4.0,0.0,1.071
0.0,-1.0,1.072
6.0,-1.0,1.073
0.0,-2.0,1.074
-9.0,-5.0,1.075
-8.0,-8.0,1.076
2.0,-5.0,1.077
11.0,0.0,1.078
10.0,0.0,1.079
0.0,-1.0,1.08
-11.0,-2.0,1.081
-10.0,-4.0,1.082
2.0,-3.0,1.083
11.0,-1.0,1.084
9.0,2.0,1.085
4.0,5.0,1.086
7.0,5.0,1.087
12.0,5.0,1.088
9.0,4.0,1.089
5.0,2.0,1.09
5.0,0.0,1.091
3.0,-1.0,1.092
-2.0,-1.0,1.093
-4.0,-2.0,1.094
-1.0,-4.0,1.095
3.0,-6.0,1.096
3.0,-4.0,1.097
0.0,-2.0,1.098
-1.0,-3.0,1.099
-2.0,-5.0,1.1
-7.0,-8.0,1.101
-9.0,-6.0,1.102
-1.0,-2.0,1.103
8.0,0.0,1.104
10.0,2.0,1.105
6.0,5.0,1.106
3.0,8.0,1.107
2.0,4.0,1.108
1.0,-5.0,1.109
2.0,-7.0,1.11
4.0,-4.0,1.111
8.0,-2.0,1.112
10.0,-3.0,1.113
10.0,-3.0,1.114
9.0,-1.0,1.115
4.0,2.0,1.116
1.0,1.0,1.117
-1.0,-1.0,1.118
-3.0,0.0,1.119
-8.0,-1.0,1.12
-10.0,-9.0,1.121
-8.0,-13.0,1.122
0.0,-11.0,1.123
7.0,-6.0,1.124
10.0,0.0,1.125
10.0,2.0,1.126
11.0,6.0,1.127
11.0,9.0,1.128
10.0,9.0,1.129
10.0,4.0,1.13
10.0,0.0,1.131
9.0,0.0,1.132
4.0,4.0,1.133
-1.0,8.0,1.134
-4.0,9.0,1.135
-5.0,7.0,1.136
-2.0,6.0,1.137
-2.0,5.0,1.138
-2.0,5.0,1.139
-6.0,2.0,1.14
-10.0,-4.0,1.141
-10.0,-10.0,1.142
-3.0,-10.0,1.143
6.0,-9.0,1.144
9.0,-9.0,1.145
4.0,-9.0,1.146
2.0,-13.0,1.147
4.0,-16.0,1.148
4.0,-17.0,1.149
0.0,-16.0,1.15
-5.0,-8.0,1.151
-4.0,-2.0,1.152
-3.0,-2.0,1.153
-4.0,-1.0,1.154
-7.0,2.0,1.155
-7.0,4.0,1.156
0.0,1.0,1.157
3.0,-1.0,1.158
6.0,2.0,1.159
3.0,1.0,1.16
0.0,-7.0,1.161
-1.0,-8.0,1.162
4.0,0.0,1.163
13.0,6.0,1.164
15.0,8.0,1.165
10.0,8.0,1.166
7.0,5.0,1.167
11.0,0.0,1.168
14.0,-1.0,1.169
10.0,3.0,1.17
6.0,5.0,1.171
7.0,3.0,1.172
9.0,1.0,1.173
5.0,4.0,1.174
1.0,5.0,1.175
4.0,1.0,1.176
6.0,-2.0,1.177
1.0,-1.0,1.178
-3.0,1.0,1.179
-5.0,-1.0,1.18
-6.0,-6.0,1.181
-7.0,-7.0,1.182
-5.0,-4.0,1.183
0.0,-1.0,1.184
3.0,0.0,1.185
0.0,2.0,1.186
-1.0,4.0,1.187
1.0,4.0,1.188
3.0,2.0,1.189
1.0,1.0,1.19
1.0,-2.0,1.191
3.0,-4.0,1.192
6.0,-2.0,1.193
2.0,1.0,1.194
-2.0,-1.0,1.195
-2.0,-5.0,1.196
2.0,-4.0,1.197
3.0,0.0,1.198
1.0,2.0,1.199
-3.0,-2.0,1.2
-4.0,-9.0,1.201
-4.0,-9.0,1.202
-2.0,-5.0,1.203
3.0,-3.0,1.204
7.0,-3.0,1.205
5.0,-1.0,1.206
5.0,0.0,1.207
5.0,-2.0,1.208
4.0,-5.0,1.209
3.0,-4.0,1.21
4.0,0.0,1.211
7.0,3.0,1.212
6.0,3.0,1.213
2.0,0.0,1.214
1.0,1.0,1.215
3.0,2.0,1.216
2.0,4.0,1.217
-4.0,1.0,1.218
-5.0,2.0,1.219
-6.0,1.0,1.22
-8.0,-4.0,1.221
-12.0,-9.0,1.222
-8.0,-4.0,1.223
3.0,0.0,1.224
8.0,3.0,1.225
1.0,5.0,1.226
-2.0,3.0,1.227
4.0,2.0,1.228
8.0,4.0,1.229
6.0,6.0,1.23
3.0,5.0,1.231
8.0,3.0,1.232
11.0,-1.0,1.233
5.0,-4.0,1.234
0.0,-3.0,1.235
3.0,-2.0,1.236
7.0,-4.0,1.237
5.0,-5.0,1.238
-1.0,-3.0,1.239
-3.0,0.0,1.24
-3.0,-3.0,1.241
-3.0,-6.0,1.242
0.0,-5.0,1.243
8.0,-3.0,1.244
12.0,0.0,1.245
9.0,0.0,1.246
7.0,-2.0,1.247
9.0,-3.0,1.248
8.0,-1.0,1.249
5.0,0.0,1.25
4.0,-2.0,1.251
6.0,-3.0,1.252
8.0,-1.0,1.253
6.0,2.0,1.254
6.0,0.0,1.255
6.0,-2.0,1.256
5.0,-1.0,1.257
1.0,0.0,1.258
-2.0,-1.0,1.259
-5.0,-3.0,1.26
-5.0,-4.0,1.261
0.0,-5.0,1.262
6.0,-6.0,1.263
8.0,-5.0,1.264
4.0,-1.0,1.265
2.0,2.0,1.266
1.0,3.0,1.267
2.0,-1.0,1.268
1.0,-2.0,1.269
-1.0,0.0,1.27
-2.0,-1.0,1.271
-2.0,-2.0,1.272
0.0,0.0,1.273
2.0,5.0,1.274
2.0,7.0,1.275
0.0,3.0,1.276
1.0,0.0,1.277
0.0,-2.0,1.278
-1.0,-3.0,1.279
-6.0,-4.0,1.28
-13.0,-8.0,1.281
-11.0,-8.0,1.282
-2.0,-5.0,1.283
8.0,-2.0,1.284
10.0,-2.0,1.285
4.0,-2.0,1.286
0.0,0.0,1.287
0.0,0.0,1.288
2.0,-2.0,1.289
2.0,-4.0,1.29
2.0,-3.0,1.291
5.0,1.0,1.292
6.0,3.0,1.293
3.0,3.0,1.294
0.0,4.0,1.295
3.0,5.0,1.296
7.0,5.0,1.297
5.0,3.0,1.298
0.0,2.0,1.299
-4.0,0.0,1.3
-5.0,-3.0,1.301
-4.0,-6.0,1.302
-1.0,-4.0,1.303
6.0,-2.0,1.304
10.0,0.0,1.305
7.0,2.0,1.306
3.0,1.0,1.307
7.0,0.0,1.308
12.0,1.0,1.309
11.0,2.0,1.31
6.0,0.0,1.311
4.0,-1.0,1.312
4.0,-3.0,1.313
1.0,-5.0,1.314
0.0,-5.0,1.315
2.0,-4.0,1.316
9.0,-6.0,1.317
8.0,-7.0,1.318
1.0,-3.0,1.319
-6.0,-1.0,1.32
-7.0,-7.0,1.321
-5.0,-10.0,1.322
0.0,-6.0,1.323
5.0,1.0,1.324
7.0,5.0,1.325
5.0,4.0,1.326
2.0,1.0,1.327
0.0,0.0,1.328
1.0,0.0,1.329
3.0,0.0,1.33
7.0,-1.0,1.331
9.0,-4.0,1.332
8.0,-4.0,1.333
4.0,-1.0,1.334
0.0,1.0,1.335
1.0,1.0,1.336
5.0,0.0,1.337
5.0,0.0,1.338
3.0,2.0,1.339
-3.0,1.0,1.34
-8.0,-6.0,1.341
-13.0,-9.0,1.342
-11.0,-5.0,1.343
-5.0,2.0,1.344
1.0,7.0,1.345
5.0,6.0,1.346
8.0,4.0,1.347
10.0,0.0,1.348
9.0,-1.0,1.349
4.0,0.0,1.35
2.0,0.0,1.351
5.0,0.0,1.352
6.0,0.0,1.353
4.0,1.0,1.354
6.0,2.0,1.355
9.0,0.0,1.356
8.0,-1.0,1.357
0.0,-2.0,1.358
-4.0,0.0,1.359
-2.0,0.0,1.36
-1.0,-5.0,1.361
-3.0,-6.0,1.362
-2.0,-5.0,1.363
5.0,-3.0,1.364
9.0,-1.0,1.365
3.0,0.0,1.366
0.0,3.0,1.367
4.0,3.0,1.368
7.0,1.0,1.369
3.0,1.0,1.37
-2.0,2.0,1.371
1.0,2.0,1.372
6.0,0.0,1.373
4.0,2.0,1.374
0.0,5.0,1.375
0.0,4.0,1.376
5.0,1.0,1.377
4.0,-3.0,1.378
0.0,-4.0,1.379
-3.0,-4.0,1.38
-3.0,-9.0,1.381
-2.0,-9.0,1.382
-1.0,-7.0,1.383
4.0,-2.0,1.384
8.0,2.0,1.385
7.0,1.0,1.386
6.0,-1.0,1.387
9.0,-3.0,1.388
9.0,-4.0,1.389
5.0,-4.0,1.39
1.0,-4.0,1.391
3.0,-2.0,1.392
7.0,0.0,1.393
8.0,1.0,1.394
10.0,0.0,1.395
13.0,-2.0,1.396
12.0,-1.0,1.397
3.0,1.0,1.398
-4.0,2.0,1.399
-8.0,0.0,1.4
-13.0,-4.0,1.401
-19.0,-3.0,1.402
-20.0,0.0,1.403
-11.0,2.0,1.404
-1.0,1.0,1.405
3.0,0.0,1.406
4.0,-1.0,1.407
5.0,-4.0,1.408
5.0,-6.0,1.409
3.0,-3.0,1.41
3.0,1.0,1.411
4.0,1.0,1.412
5.0,-3.0,1.413
5.0,-3.0,1.414
6.0,0.0,1.415
9.0,2.0,1.416
12.0,0.0,1.417
8.0,-1.0,1.418
3.0,0.0,1.419
-1.0,2.0,1.42
-4.0,-2.0,1.421
-4.0,-4.0,1.422
5.0,-1.0,1.423
16.0,1.0,1.424
17.0,-1.0,1.425
9.0,-3.0,1.426
6.0,-2.0,1.427
7.0,-1.0,1.428
7.0,0.0,1.429
0.0,-1.0,1.43
-3.0,-1.0,1.431
-2.0,0.0,1.432
0.0,2.0,1.433
-2.0,3.0,1.434
-2.0,3.0,1.435
3.0,3.0,1.436
9.0,4.0,1.437
5.0,4.0,1.438
4.0,4.0,1.439
4.0,2.0,1.44
4.0,-3.0,1.441
3.0,-7.0,1.442
8.0,-7.0,1.443
13.0,-6.0,1.444
8.0,-6.0,1.445
-4.0,-6.0,1.446
-8.0,-6.0,1.447
-5.0,-6.0,1.448
-5.0,-3.0,1.449
-15.0,-1.0,1.45
-17.0,-2.0,1.451
-6.0,-3.0,1.452
5.0,-1.0,1.453
6.0,0.0,1.454
4.0,-1.0,1.455
3.0,-2.0,1.456
6.0,-3.0,1.457
5.0,-5.0,1.458
3.0,-4.0,1.459
1.0,-3.0,1.46
-3.0,-6.0,1.461
-6.0,-5.0,1.462
-3.0,-3.0,1.463
0.0,-2.0,1.464
1.0,2.0,1.465
4.0,3.0,1.466
4.0,0.0,1.467
3.0,-5.0,1.468
2.0,-5.0,1.469
1.0,0.0,1.47
3.0,1.0,1.471
5.0,-3.0,1.472
5.0,-5.0,1.473
6.0,0.0,1.474
7.0,5.0,1.475
9.0,4.0,1.476
9.0,-1.0,1.477
8.0,-5.0,1.478
2.0,-6.0,1.479
-3.0,-5.0,1.48
-6.0,-8.0,1.481
-4.0,-8.0,1.482
3.0,-4.0,1.483
13.0,-1.0,1.484
15.0,1.0,1.485
12.0,3.0,1.486
10.0,7.0,1.487
10.0,8.0,1.488
12.0,4.0,1.489
7.0,0.0,1.49
3.0,-2.0,1.491
0.0,-2.0,1.492
0.0,-1.0,1.493
2.0,0.0,1.494
6.0,0.0,1.495
7.0,-2.0,1.496
4.0,-4.0,1.497
-1.0,-4.0,1.498
-5.0,0.0,1.499
-10.0,2.0,1.5
-13.0,-2.0,1.501
-11.0,-2.0,1.502
-2.0,2.0,1.503
9.0,3.0,1.504
10.0,-1.0,1.505
3.0,-3.0,1.506
-1.0,0.0,1.507
0.0,4.0,1.508
2.0,1.0,1.509
3.0,-3.0,1.51
7.0,-5.0,1.511
12.0,-6.0,1.512
10.0,-7.0,1.513
4.0,-3.0,1.514
1.0,4.0,1.515
3.0,7.0,1.516
7.0,1.0,1.517
4.0,-4.0,1.518
0.0,-1.0,1.519
-4.0,3.0,1.52
-8.0,-4.0,1.521
-9.0,-11.0,1.522
-5.0,-12.0,1.523
5.0,-5.0,1.524
10.0,4.0,1.525
6.0,7.0,1.526
0.0,7.0,1.527
0.0,5.0,1.528
2.0,2.0,1.529
1.0,1.0,1.53
2.0,3.0,1.531
7.0,5.0,1.532
12.0,3.0,1.533
7.0,-1.0,1.534
-1.0,-1.0,1.535
-2.0,-1.0,1.536
3.0,-1.0,1.537
4.0,0.0,1.538
-1.0,2.0,1.539
-5.0,2.0,1.54
-6.0,-3.0,1.541
-5.0,-6.0,1.542
-3.0,-6.0,1.543
0.0,-2.0,1.544
2.0,1.0,1.545
2.0,2.0,1.546
3.0,3.0,1.547
6.0,1.0,1.548
6.0,1.0,1.549
3.0,4.0,1.55
2.0,4.0,1.551
3.0,-1.0,1.552
4.0,-5.0,1.553
2.0,-6.0,1.554
3.0,-4.0,1.555
5.0,-1.0,1.556
5.0,3.0,1.557
1.0,6.0,1.558
-1.0,5.0,1.559
-1.0,1.0,1.56
-4.0,-4.0,1.561
-7.0,-3.0,1.562
-1.0,-3.0,1.563
8.0,-6.0,1.564
11.0,-11.0,1.565
3.0,-17.0,1.566
-1.0,-23.0,1.567
1.0,-22.0,1.568
2.0,-12.0,1.569
0.0,0.0,1.57
0.0,5.0,1.571
4.0,1.0,1.572
6.0,-1.0,1.573
4.0,2.0,1.574
0.0,5.0,1.575
1.0,6.0,1.576
3.0,9.0,1.577
1.0,11.0,1.578
0.0,8.0,1.579
-2.0,0.0,1.58
-4.0,-3.0,1.581
-5.0,3.0,1.582
0.0,6.0,1.583
4.0,0.0,1.584
4.0,-8.0,1.585
4.0,-8.0,1.586
8.0,-3.0,1.587
10.0,1.0,1.588
6.0,2.0,1.589
3.0,3.0,1.59
4.0,2.0,1.591
6.0,1.0,1.592
6.0,3.0,1.593
5.0,3.0,1.594
4.0,-3.0,1.595
3.0,-8.0,1.596
5.0,-8.0,1.597
6.0,-3.0,1.598
0.0,-2.0,1.599
-7.0,-5.0,1.6
-10.0,-8.0,1.601
-9.0,-4.0,1.602
-2.0,-1.0,1.603
6.0,0.0,1.604
10.0,1.0,1.605
9.0,1.0,1.606
7.0,-3.0,1.607
5.0,-6.0,1.608
4.0,-3.0,1.609
6.0,2.0,1.61
7.0,3.0,1.611
7.0,1.0,1.612
4.0,1.0,1.613
1.0,2.0,1.614
0.0,1.0,1.615
2.0,-2.0,1.616
5.0,-4.0,1.617
6.0,-5.0,1.618
3.0,-7.0,1.619
-3.0,-7.0,1.62
-9.0,-8.0,1.621
-9.0,-6.0,1.622
-3.0,-5.0,1.623
3.0,-3.0,1.624
8.0,0.0,1.625
4.0,2.0,1.626
0.0,0.0,1.627
0.0,-3.0,1.628
1.0,-2.0,1.629
2.0,1.0,1.63
2.0,4.0,1.631
2.0,2.0,1.632
4.0,1.0,1.633
6.0,3.0,1.634
6.0,6.0,1.635
7.0,4.0,1.636
6.0,2.0,1.637
2.0,0.0,1.638
0.0,-1.0,1.639
-3.0,-2.0,1.64
-5.0,-8.0,1.641
-6.0,-10.0,1.642
-4.0,-6.0,1.643
1.0,-1.0,1.644
4.0,2.0,1.645
4.0,3.0,1.646
1.0,3.0,1.647
2.0,3.0,1.648
7.0,2.0,1.649
8.0,1.0,1.65
6.0,0.0,1.651
4.0,2.0,1.652
6.0,3.0,1.653
7.0,3.0,1.654
5.0,2.0,1.655
2.0,2.0,1.656
0.0,2.0,1.657
-4.0,0.0,1.658
-6.0,-3.0,1.659
-8.0,-3.0,1.66
-10.0,-4.0,1.661
-7.0,-2.0,1.662
1.0,-2.0,1.663
8.0,1.0,1.664
6.0,5.0,1.665
1.0,6.0,1.666
0.0,2.0,1.667
3.0,-4.0,1.668
2.0,-3.0,1.669
-2.0,1.0,1.67
-2.0,3.0,1.671
3.0,0.0,1.672
6.0,-1.0,1.673
3.0,1.0,1.674
-1.0,0.0,1.675
0.0,-3.0,1.676
4.0,-1.0,1.677
4.0,1.0,1.678
0.0,2.0,1.679
-5.0,-3.0,1.68
-5.0,-9.0,1.681
-3.0,-9.0,1.682
0.0,-7.0,1.683
3.0,-5.0,1.684
6.0,-3.0,1.685
7.0,0.0,1.686
9.0,2.0,1.687
12.0,-1.0,1.688
13.0,-5.0,1.689
10.0,-3.0,1.69
3.0,1.0,1.691
1.0,4.0,1.692
6.0,4.0,1.693
11.0,2.0,1.694
12.0,0.0,1.695
7.0,-3.0,1.696
3.0,-3.0,1.697
0.0,-2.0,1.698
-2.0,1.0,1.699
-5.0,3.0,1.7
-5.0,-1.0,1.701
-3.0,-2.0,1.702
3.0,1.0,1.703
9.0,3.0,1.704
10.0,2.0,1.705
5.0,-2.0,1.706
2.0,-4.0,1.707
3.0,-4.0,1.708
4.0,-5.0,1.709
2.0,-7.0,1.71
3.0,-7.0,1.711
6.0,-4.0,1.712
6.0,-1.0,1.713
3.0,1.0,1.714
1.0,2.0,1.715
5.0,2.0,1.716
8.0,1.0,1.717
2.0,-1.0,1.718
-2.0,-3.0,1.719
-7.0,-3.0,1.72
-11.0,-5.0,1.721
-12.0,-2.0,1.722
-6.0,1.0,1.723
2.0,3.0,1.724
4.0,1.0,1.725
1.0,0.0,1.726
3.0,1.0,1.727
8.0,2.0,1.728
8.0,2.0,1.729
1.0,0.0,1.73
0.0,-2.0,1.731
4.0,-5.0,1.732
5.0,-5.0,1.733
1.0,-2.0,1.734
-1.0,1.0,1.735
1.0,3.0,1.736
3.0,2.0,1.737
1.0,0.0,1.738
-2.0,0.0,1.739
-3.0,-1.0,1.74
-3.0,-6.0,1.741
-4.0,-8.0,1.742
0.0,-5.0,1.743
7.0,0.0,1.744
10.0,2.0,1.745
5.0,1.0,1.746
1.0,0.0,1.747
4.0,0.0,1.748
8.0,2.0,1.749
8.0,1.0,1.75
4.0,-2.0,1.751
3.0,-3.0,1.752
5.0,-2.0,1.753
4.0,-2.0,1.754
1.0,-3.0,1.755
1.0,-3.0,1.756
4.0,0.0,1.757
3.0,0.0,1.758
-1.0,-3.0,1.759
-5.0,-3.0,1.76
-4.0,-2.0,1.761
-2.0,-1.0,1.762
0.0,-3.0,1.763
3.0,-3.0,1.764
4.0,2.0,1.765
2.0,7.0,1.766
0.0,5.0,1.767
2.0,0.0,1.768
7.0,-2.0,1.769
9.0,1.0,1.77
7.0,0.0,1.771
6.0,-2.0,1.772
8.0,0.0,1.773
6.0,4.0,1.774
1.0,2.0,1.775
-1.0,-1.0,1.776
0.0,-1.0,1.777
0.0,0.0,1.778
-1.0,0.0,1.779
-4.0,-2.0,1.78
-6.0,-5.0,1.781
-7.0,-4.0,1.782
-2.0,-1.0,1.783
5.0,0.0,1.784
10.0,1.0,1.785
7.0,2.0,1.786
3.0,1.0,1.787
7.0,-2.0,1.788
10.0,-4.0,1.789
8.0,-3.0,1.79
4.0,0.0,1.791
3.0,1.0,1.792
3.0,-1.0,1.793
0.0,-5.0,1.794
-3.0,-6.0,1.795
-2.0,-3.0,1.796
1.0,-1.0,1.797
2.0,-3.0,1.798
0.0,-6.0,1.799
-2.0,-7.0,1.8
-4.0,-7.0,1.801
-3.0,-8.0,1.802
1.0,-5.0,1.803
8.0,-2.0,1.804
6.0,1.0,1.805
0.0,1.0,1.806
-3.0,-1.0,1.807
1.0,-2.0,1.808
6.0,1.0,1.809
2.0,5.0,1.81
-1.0,7.0,1.811
0.0,4.0,1.812
2.0,2.0,1.813
-2.0,2.0,1.814
-6.0,2.0,1.815
-5.0,0.0,1.816
2.0,-2.0,1.817
3.0,-3.0,1.818
0.0,-1.0,1.819
-4.0,0.0,1.82
-3.0,-3.0,1.821
-2.0,-3.0,1.822
0.0,0.0,1.823
2.0,1.0,1.824
2.0,3.0,1.825
1.0,5.0,1.826
4.0,4.0,1.827
11.0,2.0,1.828
14.0,1.0,1.829
10.0,1.0,1.83
5.0,0.0,1.831
8.0,0.0,1.832
13.0,-1.0,1.833
10.0,-1.0,1.834
7.0,-3.0,1.835
5.0,-4.0,1.836
6.0,-1.0,1.837
3.0,-1.0,1.838
2.0,-5.0,1.839
-1.0,-8.0,1.84
-4.0,-9.0,1.841
-3.0,-4.0,1.842
2.0,-3.0,1.843
11.0,-4.0,1.844
13.0,-4.0,1.845
7.0,-1.0,1.846
2.0,0.0,1.847
2.0,-1.0,1.848
5.0,1.0,1.849
5.0,7.0,1.85
3.0,7.0,1.851
-1.0,2.0,1.852
-2.0,0.0,1.853
0.0,3.0,1.854
2.0,7.0,1.855
1.0,4.0,1.856
0.0,0.0,1.857
-2.0,-3.0,1.858
-3.0,-4.0,1.859
-4.0,-5.0,1.86
-6.0,-10.0,1.861
-8.0,-9.0,1.862
-4.0,-6.0,1.863
2.0,-3.0,1.864
6.0,1.0,1.865
6.0,3.0,1.866
4.0,2.0,1.867
1.0,-1.0,1.868
-2.0,-5.0,1.869
-2.0,-5.0,1.87
-1.0,-5.0,1.871
1.0,-3.0,1.872
3.0,-1.0,1.873
1.0,0.0,1.874
0.0,2.0,1.875
0.0,1.0,1.876
3.0,1.0,1.877
5.0,-1.0,1.878
5.0,-1.0,1.879
0.0,-2.0,1.88
-4.0,-3.0,1.881
-4.0,-5.0,1.882
0.0,-6.0,1.883
8.0,-6.0,1.884
9.0,-1.0,1.885
0.0,3.0,1.886
-4.0,3.0,1.887
2.0,2.0,1.888
14.0,1.0,1.889
14.0,0.0,1.89
3.0,1.0,1.891
-3.0,3.0,1.892
0.0,1.0,1.893
4.0,0.0,1.894
4.0,2.0,1.895
4.0,3.0,1.896
7.0,0.0,1.897
3.0,-2.0,1.898
-3.0,-2.0,1.899
-8.0,-4.0,1.9
-7.0,-9.0,1.901
-2.0,-7.0,1.902
3.0,-2.0,1.903
8.0,2.0,1.904
11.0,4.0,1.905
7.0,5.0,1.906
2.0,2.0,1.907
4.0,-2.0,1.908
8.0,-1.0,1.909
9.0,2.0,1.91
6.0,2.0,1.911
7.0,-3.0,1.912
10.0,-6.0,1.913
7.0,-3.0,1.914
2.0,0.0,1.915
0.0,-3.0,1.916
2.0,-4.0,1.917
1.0,-2.0,1.918
0.0,1.0,1.919
-2.0,0.0,1.92
-3.0,-4.0,1.921
-3.0,-3.0,1.922
-1.0,-3.0,1.923
5.0,-2.0,1.924
10.0,0.0,1.925
11.0,3.0,1.926
7.0,4.0,1.927
5.0,1.0,1.928
3.0,-1.0,1.929
-2.0,0.0,1.93
-3.0,0.0,1.931
0.0,0.0,1.932
3.0,-2.0,1.933
5.0,-1.0,1.934
5.0,1.0,1.935
6.0,2.0,1.936
7.0,4.0,1.937
5.0,2.0,1.938
2.0,-1.0,1.939
-1.0,-4.0,1.94
-6.0,-6.0,1.941
-7.0,-1.0,1.942
1.0,0.0,1.943
11.0,-2.0,1.944
10.0,-1.0,1.945
2.0,2.0,1.946
-2.0,2.0,1.947
1.0,0.0,1.948
1.0,-5.0,1.949
-3.0,-4.0,1.95
-4.0,0.0,1.951
0.0,1.0,1.952
3.0,1.0,1.953
1.0,0.0,1.954
-2.0,-3.0,1.955
0.0,-3.0,1.956
5.0,-2.0,1.957
5.0,-1.0,1.958
1.0,0.0,1.959
-3.0,1.0,1.96
-5.0,-4.0,1.961
-4.0,-7.0,1.962
0.0,-7.0,1.963
6.0,-5.0,1.964
7.0,0.0,1.965
4.0,3.0,1.966
4.0,1.0,1.967
7.0,-4.0,1.968
7.0,-4.0,1.969
3.0,0.0,1.97
1.0,2.0,1.971
5.0,-1.0,1.972
7.0,-4.0,1.973
4.0,-2.0,1.974
-1.0,0.0,1.975
-2.0,-1.0,1.976
5.0,1.0,1.977
8.0,2.0,1.978
8.0,4.0,1.979
2.0,0.0,1.98
-3.0,-8.0,1.981
-6.0,-8.0,1.982
-2.0,-6.0,1.983
6.0,-1.0,1.984
8.0,2.0,1.985
1.0,2.0,1.986
-1.0,1.0,1.987
4.0,-1.0,1.988
8.0,-1.0,1.989
6.0,1.0,1.99
2.0,1.0,1.991
2.0,-2.0,1.992
3.0,-3.0,1.993
1.0,-1.0,1.994
0.0,1.0,1.995
3.0,1.0,1.996
7.0,0.0,1.997
4.0,0.0,1.998
-2.0,0.0,1.999
-5.0,0.0,2.0
-8.0,-4.0,2.001
-11.0,-4.0,2.002
-7.0,-3.0,2.003
2.0,-1.0,2.004
8.0,2.0,2.005
3.0,5.0,2.006
-2.0,3.0,2.007
0.0,0.0,2.008
6.0,0.0,2.009
8.0,3.0,2.01
4.0,3.0,2.011
5.0,-1.0,2.012
11.0,-3.0,2.013
14.0,-3.0,2.014
10.0,-3.0,2.015
5.0,-3.0,2.016
3.0,-3.0,2.017
0.0,-3.0,2.018
-4.0,-4.0,2.019
-7.0,-5.0,2.02
-8.0,-8.0,2.021
-8.0,-7.0,2.022
-2.0,-7.0,2.023
2.0,-7.0,2.024
5.0,-3.0,2.025
8.0,0.0,2.026
8.0,1.0,2.027
8.0,-1.0,2.028
6.0,-1.0,2.029
4.0,2.0,2.03
2.0,3.0,2.031
1.0,0.0,2.032
4.0,-2.0,2.033
6.0,0.0,2.034
4.0,2.0,2.035
3.0,0.0,2.036
1.0,-2.0,2.037
-1.0,-3.0,2.038
-1.0,-2.0,2.039
-5.0,-1.0,2.04
-9.0,-3.0,2.041
-11.0,-4.0,2.042
-3.0,-4.0,2.043
6.0,-3.0,2.044
8.0,-2.0,2.045
0.0,0.0,2.046
-5.0,1.0,2.047
-3.0,1.0,2.048
1.0,5.0,2.049
0.0,9.0,2.05
-2.0,7.0,2.051
-1.0,1.0,2.052
2.0,-2.0,2.053
5.0,-2.0,2.054
5.0,-1.0,2.055
5.0,-1.0,2.056
4.0,2.0,2.057
4.0,3.0,2.058
1.0,0.0,2.059
1.0,-5.0,2.06
-1.0,-8.0,2.061
-4.0,-6.0,2.062
-2.0,-3.0,2.063
4.0,-2.0,2.064
9.0,-1.0,2.065
6.0,3.0,2.066
5.0,5.0,2.067
9.0,2.0,2.068
11.0,-2.0,2.069
7.0,-2.0,2.07
4.0,-1.0,2.071
5.0,-1.0,2.072
5.0,-5.0,2.073
2.0,-6.0,2.074
-1.0,-3.0,2.075
1.0,-1.0,2.076
7.0,-1.0,2.077
7.0,-2.0,2.078
3.0,0.0,2.079
-3.0,0.0,2.08
-6.0,-4.0,2.081
-5.0,-6.0,2.082
0.0,-3.0,2.083
3.0,1.0,2.084
3.0,1.0,2.085
1.0,2.0,2.086
1.0,2.0,2.087
4.0,2.0,2.088
5.0,0.0,2.089
6.0,1.0,2.09
9.0,2.0,2.091
11.0,1.0,2.092
8.0,-1.0,2.093
3.0,0.0,2.094
3.0,4.0,2.095
1.0,3.0,2.096
-2.0,-1.0,2.097
-8.0,-4.0,2.098
-9.0,-4.0,2.099
-9.0,-3.0,2.1
-11.0,-8.0,2.101
-11.0,-9.0,2.102
-2.0,-5.0,2.103
10.0,-1.0,2.104
11.0,2.0,2.105
8.0,3.0,2.106
9.0,2.0,2.107
12.0,0.0,2.108
10.0,0.0,2.109
2.0,2.0,2.11
-1.0,5.0,2.111
3.0,3.0,2.112
3.0,-2.0,2.113
-1.0,-4.0,2.114
-4.0,-2.0,2.115
-1.0,-2.0,2.116
4.0,-2.0,2.117
4.0,-4.0,2.118
0.0,-4.0,2.119
-3.0,-4.0,2.12
-2.0,-8.0,2.121
0.0,-8.0,2.122
4.0,-7.0,2.123
9.0,-5.0,2.124
10.0,-4.0,2.125
4.0,-2.0,2.126
-2.0,-1.0,2.127
-1.0,0.0,2.128
4.0,1.0,2.129
5.0,3.0,2.13
3.0,2.0,2.131
2.0,-1.0,2.132
2.0,-4.0,2.133
3.0,-2.0,2.134
4.0,0.0,2.135
4.0,0.0,2.136
3.0,0.0,2.137
0.0,-2.0,2.138
-2.0,-4.0,2.139
-4.0,-4.0,2.14
-5.0,-6.0,2.141
-6.0,-5.0,2.142
-1.0,-3.0,2.143
8.0,1.0,2.144
11.0,3.0,2.145
7.0,4.0,2.146
3.0,3.0,2.147
8.0,2.0,2.148
11.0,1.0,2.149
8.0,4.0,2.15
2.0,6.0,2.151
3.0,4.0,2.152
6.0,1.0,2.153
3.0,-1.0,2.154
-2.0,0.0,2.155
-2.0,0.0,2.156
3.0,0.0,2.157
4.0,-1.0,2.158
2.0,-3.0,2.159
-2.0,-7.0,2.16
-7.0,-13.0,2.161
-7.0,-13.0,2.162
-1.0,-7.0,2.163
6.0,-2.0,2.164
7.0,2.0,2.165
3.0,4.0,2.166
2.0,4.0,2.167
7.0,2.0,2.168
9.0,0.0,2.169
2.0,0.0,2.17
-2.0,0.0,2.171
0.0,-2.0,2.172
2.0,-4.0,2.173
0.0,-1.0,2.174
-1.0,3.0,2.175
1.0,4.0,2.176
6.0,4.0,2.177
3.0,2.0,2.178
-3.0,0.0,2.179
-7.0,-1.0,2.18
-7.0,-3.0,2.181
-5.0,-6.0,2.182
0.0,-5.0,2.183
7.0,-4.0,2.184
11.0,-5.0,2.185
7.0,-5.0,2.186
3.0,-3.0,2.187
5.0,-1.0,2.188
11.0,-1.0,2.189
11.0,-2.0,2.19
8.0,-1.0,2.191
8.0,0.0,2.192
9.0,-1.0,2.193
6.0,-2.0,2.194
0.0,-3.0,2.195
-2.0,-4.0,2.196
-2.0,-4.0,2.197
-1.0,-4.0,2.198
-2.0,-2.0,2.199
-4.0,-1.0,2.2
-4.0,-6.0,2.201
-5.0,-7.0,2.202
-2.0,-4.0,2.203
5.0,1.0,2.204
9.0,2.0,2.205
6.0,-1.0,2.206
4.0,-3.0,2.207
8.0,-3.0,2.208
12.0,-1.0,2.209
9.0,0.0,2.21
2.0,2.0,2.211
2.0,4.0,2.212
5.0,5.0,2.213
6.0,5.0,2.214
4.0,2.0,2.215
3.0,0.0,2.216
2.0,2.0,2.217
-3.0,2.0,2.218
-6.0,0.0,2.219
-6.0,-3.0,2.22
-6.0,-7.0,2.221
-8.0,-5.0,2.222
-5.0,-5.0,2.223
2.0,-6.0,2.224
7.0,-2.0,2.225
3.0,2.0,2.226
0.0,4.0,2.227
5.0,3.0,2.228
11.0,0.0,2.229
12.0,1.0,2.23
11.0,3.0,2.231
10.0,2.0,2.232
6.0,2.0,2.233
-2.0,1.0,2.234
-6.0,0.0,2.235
-3.0,0.0,2.236
1.0,2.0,2.237
0.0,-2.0,2.238
-5.0,-6.0,2.239
-9.0,-9.0,2.24
-8.0,-9.0,2.241
-5.0,-9.0,2.242
2.0,-6.0,2.243
12.0,-3.0,2.244
13.0,0.0,2.245
6.0,2.0,2.246
1.0,0.0,2.247
2.0,0.0,2.248
4.0,1.0,2.249
2.0,4.0,2.25
0.0,5.0,2.251
1.0,6.0,2.252
3.0,2.0,2.253
2.0,-1.0,2.254
3.0,0.0,2.255
4.0,1.0,2.256
4.0,1.0,2.257
3.0,0.0,2.258
1.0,0.0,2.259
0.0,-1.0,2.26
-1.0,-7.0,2.261
-2.0,-12.0,2.262
3.0,-9.0,2.263
7.0,-1.0,2.264
4.0,3.0,2.265
1.0,2.0,2.266
0.0,-3.0,2.267
-1.0,-4.0,2.268
-1.0,-1.0,2.269
-1.0,4.0,2.27
-1.0,7.0,2.271
-1.0,5.0,2.272
0.0,4.0,2.273
2.0,5.0,2.274
0.0,3.0,2.275
0.0,0.0,2.276
1.0,0.0,2.277
4.0,1.0,2.278
4.0,1.0,2.279
1.0,-3.0,2.28
-1.0,-12.0,2.281
-3.0,-13.0,2.282
0.0,-7.0,2.283
8.0,-1.0,2.284
11.0,2.0,2.285
5.0,4.0,2.286
0.0,3.0,2.287
3.0,-1.0,2.288
7.0,-2.0,2.289
9.0,-1.0,2.29
7.0,1.0,2.291
8.0,0.0,2.292
8.0,-3.0,2.293
5.0,-3.0,2.294
3.0,-3.0,2.295
5.0,-4.0,2.296
9.0,-2.0,2.297
6.0,-2.0,2.298
1.0,0.0,2.299
-5.0,0.0,2.3
-7.0,-3.0,2.301
-4.0,-3.0,2.302
2.0,-4.0,2.303
7.0,-3.0,2.304
5.0,0.0,2.305
0.0,3.0,2.306
0.0,3.0,2.307
5.0,-1.0,2.308
6.0,-1.0,2.309
0.0,1.0,2.31
-3.0,4.0,2.311
1.0,3.0,2.312
5.0,3.0,2.313
4.0,3.0,2.314
0.0,2.0,2.315
1.0,-2.0,2.316
7.0,-2.0,2.317
8.0,-3.0,2.318
1.0,-3.0,2.319
-7.0,-3.0,2.32
-9.0,-6.0,2.321
-3.0,-9.0,2.322
4.0,-7.0,2.323
8.0,-5.0,2.324
6.0,0.0,2.325
3.0,4.0,2.326
1.0,4.0,2.327
2.0,3.0,2.328
4.0,5.0,2.329
5.0,7.0,2.33
6.0,5.0,2.331
5.0,-1.0,2.332
3.0,-2.0,2.333
2.0,0.0,2.334
2.0,1.0,2.335
3.0,-1.0,2.336
4.0,-2.0,2.337
3.0,0.0,2.338
0.0,0.0,2.339
-3.0,-3.0,2.34
-6.0,-8.0,2.341
-7.0,-7.0,2.342
-3.0,-4.0,2.343
3.0,-4.0,2.344
7.0,-6.0,2.345
6.0,-3.0,2.346
3.0,-2.0,2.347
3.0,-5.0,2.348
3.0,-7.0,2.349
3.0,-5.0,2.35
2.0,-2.0,2.351
2.0,-1.0,2.352
4.0,1.0,2.353
6.0,6.0,2.354
6.0,8.0,2.355
8.0,4.0,2.356
11.0,-1.0,2.357
9.0,-2.0,2.358
5.0,2.0,2.359
1.0,1.0,2.36
-2.0,-7.0,2.361
-3.0,-10.0,2.362
0.0,-7.0,2.363
5.0,-3.0,2.364
7.0,-1.0,2.365
0.0,-2.0,2.366
-7.0,-1.0,2.367
-7.0,0.0,2.368
-3.0,3.0,2.369
0.0,4.0,2.37
2.0,4.0,2.371
4.0,1.0,2.372
3.0,0.0,2.373
1.0,0.0,2.374
0.0,-1.0,2.375
4.0,-2.0,2.376
8.0,0.0,2.377
5.0,2.0,2.378
-1.0,2.0,2.379
-8.0,-3.0,2.38
-12.0,-8.0,2.381
-10.0,-6.0,2.382
0.0,-4.0,2.383
7.0,-3.0,2.384
8.0,-1.0,2.385
4.0,2.0,2.386
4.0,1.0,2.387
9.0,-4.0,2.388
9.0,-5.0,2.389
5.0,-2.0,2.39
5.0,0.0,2.391
9.0,-2.0,2.392
11.0,-2.0,2.393
8.0,0.0,2.394
5.0,2.0,2.395
5.0,-1.0,2.396
5.0,-2.0,2.397
6.0,-2.0,2.398
3.0,-3.0,2.399
-3.0,-3.0,2.4
-10.0,-6.0,2.401
-12.0,-5.0,2.402
-5.0,-3.0,2.403
2.0,-3.0,2.404
3.0,-1.0,2.405
0.0,0.0,2.406
0.0,0.0,2.407
4.0,-2.0,2.408
5.0,0.0,2.409
0.0,6.0,2.41
-3.0,8.0,2.411
0.0,5.0,2.412
2.0,3.0,2.413
1.0,4.0,2.414
0.0,6.0,2.415
3.0,4.0,2.416
6.0,3.0,2.417
2.0,2.0,2.418
-3.0,0.0,2.419
-6.0,-1.0,2.42
-7.0,-5.0,2.421
-3.0,-5.0,2.422
3.0,-4.0,2.423
7.0,-4.0,2.424
5.0,-5.0,2.425
3.0,-2.0,2.426
6.0,1.0,2.427
10.0,1.0,2.428
10.0,0.0,2.429
5.0,-1.0,2.43
4.0,-1.0,2.431
7.0,-4.0,2.432
9.0,-5.0,2.433
9.0,-2.0,2.434
8.0,0.0,2.435
7.0,-1.0,2.436
8.0,0.0,2.437
5.0,0.0,2.438
2.0,-1.0,2.439
0.0,-6.0,2.44
-3.0,-10.0,2.441
-7.0,-9.0,2.442
-8.0,-5.0,2.443
-4.0,-1.0,2.444
0.0,0.0,2.445
1.0,2.0,2.446
3.0,2.0,2.447
6.0,-4.0,2.448
8.0,-7.0,2.449
6.0,-4.0,2.45
3.0,1.0,2.451
2.0,4.0,2.452
0.0,4.0,2.453
-3.0,4.0,2.454
-3.0,2.0,2.455
0.0,-1.0,2.456
0.0,-1.0,2.457
-4.0,-3.0,2.458
-5.0,-4.0,2.459
-4.0,-3.0,2.46
-3.0,-3.0,2.461
-4.0,-1.0,2.462
-3.0,0.0,2.463
1.0,-1.0,2.464
4.0,2.0,2.465
1.0,6.0,2.466
2.0,7.0,2.467
8.0,6.0,2.468
12.0,4.0,2.469
8.0,2.0,2.47
4.0,-2.0,2.471
5.0,-6.0,2.472
7.0,-5.0,2.473
4.0,-2.0,2.474
0.0,-2.0,2.475
0.0,-3.0,2.476
1.0,-1.0,2.477
1.0,-2.0,2.478
-2.0,-5.0,2.479
-4.0,-6.0,2.48
-5.0,-8.0,2.481
-5.0,-5.0,2.482
-3.0,-3.0,2.483
1.0,-3.0,2.484
2.0,-1.0,2.485
1.0,2.0,2.486
5.0,1.0,2.487
11.0,-1.0,2.488
14.0,0.0,2.489
8.0,1.0,2.49
4.0,0.0,2.491
5.0,-4.0,2.492
8.0,-2.0,2.493
8.0,3.0,2.494
5.0,7.0,2.495
7.0,7.0,2.496
8.0,6.0,2.497
3.0,5.0,2.498
-1.0,2.0,2.499
-5.0,0.0,2.5
-4.0,-5.0,2.501
-2.0,-7.0,2.502
0.0,-6.0,2.503
4.0,-6.0,2.504
6.0,-7.0,2.505
3.0,-7.0,2.506
2.0,-6.0,2.507
3.0,-3.0,2.508
7.0,0.0,2.509
6.0,3.0,2.51
1.0,4.0,2.511
1.0,2.0,2.512
6.0,0.0,2.513
8.0,0.0,2.514
6.0,0.0,2.515
2.0,0.0,2.516
1.0,2.0,2.517
0.0,0.0,2.518
-3.0,-1.0,2.519
-6.0,-1.0,2.52
-6.0,-1.0,2.521
-5.0,-1.0,2.522
0.0,-1.0,2.523
5.0,-1.0,2.524
10.0,-2.0,2.525
8.0,-1.0,2.526
2.0,0.0,2.527
0.0,-2.0,2.528
2.0,-1.0,2.529
4.0,1.0,2.53
5.0,5.0,2.531
6.0,5.0,2.532
6.0,3.0,2.533
5.0,0.0,2.534
3.0,-1.0,2.535
2.0,-2.0,2.536
2.0,0.0,2.537
1.0,-1.0,2.538
1.0,-2.0,2.539
-1.0,-5.0,2.54
-5.0,-9.0,2.541
-8.0,-7.0,2.542
-5.0,-3.0,2.543
2.0,0.0,2.544
9.0,1.0,2.545
8.0,4.0,2.546
7.0,3.0,2.547
11.0,-1.0,2.548
15.0,-3.0,2.549
13.0,-1.0,2.55
10.0,1.0,2.551
10.0,1.0,2.552
8.0,2.0,2.553
0.0,4.0,2.554
-9.0,5.0,2.555
-11.0,1.0,2.556
-8.0,-2.0,2.557
-3.0,-4.0,2.558
-1.0,-5.0,2.559
-2.0,-7.0,2.56
-4.0,-10.0,2.561
-4.0,-11.0,2.562
2.0,-9.0,2.563
10.0,-5.0,2.564
10.0,1.0,2.565
2.0,4.0,2.566
-1.0,1.0,2.567
5.0,-1.0,2.568
8.0,0.0,2.569
4.0,3.0,2.57
1.0,4.0,2.571
5.0,2.0,2.572
10.0,0.0,2.573
7.0,0.0,2.574
2.0,-3.0,2.575
2.0,-3.0,2.576
8.0,0.0,2.577
9.0,3.0,2.578
5.0,2.0,2.579
-5.0,-1.0,2.58
-13.0,-6.0,2.581
-10.0,-6.0,2.582
2.0,-3.0,2.583
14.0,0.0,2.584
13.0,5.0,2.585
4.0,6.0,2.586
2.0,1.0,2.587
5.0,-6.0,2.588
5.0,-7.0,2.589
0.0,-1.0,2.59
-3.0,3.0,2.591
-3.0,2.0,2.592
-3.0,0.0,2.593
-3.0,0.0,2.594
-1.0,0.0,2.595
2.0,-2.0,2.596
4.0,-1.0,2.597
0.0,-1.0,2.598
-1.0,-3.0,2.599
-3.0,-8.0,2.6
-5.0,-12.0,2.601
-4.0,-8.0,2.602
3.0,-5.0,2.603
10.0,-3.0,2.604
9.0,0.0,2.605
2.0,1.0,2.606
3.0,1.0,2.607
9.0,-2.0,2.608
9.0,-1.0,2.609
4.0,3.0,2.61
1.0,4.0,2.611
4.0,1.0,2.612
3.0,0.0,2.613
0.0,3.0,2.614
0.0,4.0,2.615
7.0,1.0,2.616
12.0,0.0,2.617
9.0,0.0,2.618
3.0,0.0,2.619
-3.0,-1.0,2.62
-8.0,-4.0,2.621
-8.0,-4.0,2.622
1.0,-6.0,2.623
12.0,-8.0,2.624
13.0,-7.0,2.625
3.0,-4.0,2.626
-1.0,-6.0,2.627
4.0,-8.0,2.628
11.0,-6.0,2.629
9.0,0.0,2.63
2.0,4.0,2.631
-1.0,2.0,2.632
0.0,-1.0,2.633
0.0,-2.0,2.634
-1.0,-1.0,2.635
-3.0,1.0,2.636
-3.0,5.0,2.637
-6.0,5.0,2.638
-5.0,0.0,2.639
-4.0,-4.0,2.64
-3.0,-6.0,2.641
-5.0,-4.0,2.642
-4.0,-2.0,2.643
1.0,0.0,2.644
6.0,3.0,2.645
5.0,7.0,2.646
4.0,5.0,2.647
10.0,1.0,2.648
13.0,3.0,2.649
9.0,7.0,2.65
3.0,7.0,2.651
2.0,3.0,2.652
4.0,1.0,2.653
3.0,4.0,2.654
1.0,5.0,2.655
2.0,2.0,2.656
4.0,-3.0,2.657
1.0,-8.0,2.658
-2.0,-9.0,2.659
-2.0,-7.0,2.66
0.0,-9.0,2.661
2.0,-11.0,2.662
8.0,-10.0,2.663
16.0,-5.0,2.664
16.0,0.0,2.665
7.0,4.0,2.666
-1.0,1.0,2.667
0.0,-3.0,2.668
3.0,-2.0,2.669
3.0,2.0,2.67
0.0,4.0,2.671
0.0,2.0,2.672
3.0,0.0,2.673
3.0,-1.0,2.674
1.0,-1.0,2.675
0.0,0.0,2.676
-1.0,1.0,2.677
-3.0,0.0,2.678
-2.0,-2.0,2.679
0.0,-4.0,2.68
-1.0,-6.0,2.681
-3.0,-6.0,2.682
0.0,-5.0,2.683
6.0,-4.0,2.684
8.0,0.0,2.685
3.0,5.0,2.686
2.0,5.0,2.687
4.0,0.0,2.688
5.0,-3.0,2.689
2.0,0.0,2.69
3.0,3.0,2.691
6.0,1.0,2.692
8.0,-2.0,2.693
3.0,-1.0,2.694
-1.0,1.0,2.695
1.0,0.0,2.696
6.0,-1.0,2.697
4.0,-1.0,2.698
2.0,-1.0,2.699
-1.0,-2.0,2.7
-2.0,-8.0,2.701
-3.0,-10.0,2.702
-1.0,-6.0,2.703
1.0,-3.0,2.704
-1.0,-3.0,2.705
-5.0,-3.0,2.706
-4.0,-2.0,2.707
-1.0,-1.0,2.708
5.0,0.0,2.709
9.0,3.0,2.71
13.0,5.0,2.711
15.0,4.0,2.712
13.0,0.0,2.713
8.0,0.0,2.714
6.0,3.0,2.715
6.0,4.0,2.716
3.0,2.0,2.717
-5.0,-3.0,2.718
-12.0,-7.0,2.719
-14.0,-8.0,2.72
-10.0,-9.0,2.721
-4.0,-6.0,2.722
3.0,-3.0,2.723
10.0,0.0,2.724
9.0,4.0,2.725
5.0,7.0,2.726
2.0,6.0,2.727
4.0,3.0,2.728
7.0,-1.0,2.729
3.0,-3.0,2.73
-1.0,-3.0,2.731
0.0,-5.0,2.732
5.0,-5.0,2.733
7.0,-4.0,2.734
5.0,-1.0,2.735
4.0,1.0,2.736
8.0,3.0,2.737
4.0,1.0,2.738
0.0,0.0,2.739
-5.0,0.0,2.74
-6.0,-4.0,2.741
-5.0,-5.0,2.742
-3.0,-4.0,2.743
0.0,-2.0,2.744
0.0,0.0,2.745
-3.0,1.0,2.746
-3.0,0.0,2.747
3.0,-2.0,2.748
8.0,-2.0,2.749
7.0,0.0,2.75
5.0,2.0,2.751
8.0,1.0,2.752
12.0,0.0,2.753
9.0,0.0,2.754
6.0,2.0,2.755
6.0,3.0,2.756
9.0,3.0,2.757
6.0,-1.0,2.758
1.0,-6.0,2.759
-2.0,-11.0,2.76
-4.0,-12.0,2.761
-5.0,-9.0,2.762
0.0,-4.0,2.763
8.0,-1.0,2.764
12.0,2.0,2.765
9.0,3.0,2.766
8.0,3.0,2.767
14.0,0.0,2.768
15.0,-1.0,2.769
9.0,0.0,2.77
5.0,0.0,2.771
5.0,-2.0,2.772
1.0,-3.0,2.773
-9.0,0.0,2.774
-16.0,0.0,2.775
-11.0,-3.0,2.776
-3.0,-3.0,2.777
-3.0,0.0,2.778
-6.0,2.0,2.779
-9.0,0.0,2.78
-9.0,-8.0,2.781
-6.0,-8.0,2.782
0.0,-3.0,2.783
10.0,-1.0,2.784
14.0,0.0,2.785
12.0,2.0,2.786
10.0,5.0,2.787
10.0,3.0,2.788
8.0,-1.0,2.789
6.0,-1.0,2.79
10.0,2.0,2.791
15.0,2.0,2.792
12.0,-1.0,2.793
4.0,-2.0,2.794
1.0,-1.0,2.795
3.0,-2.0,2.796
2.0,-2.0,2.797
-9.0,-3.0,2.798
-17.0,-3.0,2.799
-16.0,-4.0,2.8
-10.0,-7.0,2.801
-7.0,-7.0,2.802
-2.0,-3.0,2.803
7.0,-2.0,2.804
9.0,0.0,2.805
2.0,2.0,2.806
-3.0,4.0,2.807
-1.0,5.0,2.808
4.0,5.0,2.809
6.0,7.0,2.81
8.0,9.0,2.811
9.0,6.0,2.812
8.0,3.0,2.813
4.0,1.0,2.814
3.0,1.0,2.815
7.0,0.0,2.816
13.0,-2.0,2.817
13.0,-4.0,2.818
12.0,-8.0,2.819
7.0,-13.0,2.82
-2.0,-16.0,2.821
-9.0,-13.0,2.822
-8.0,-6.0,2.823
-4.0,-2.0,2.824
-4.0,-1.0,2.825
-8.0,-1.0,2.826
-5.0,-2.0,2.827
5.0,-5.0,2.828
15.0,-6.0,2.829
16.0,-2.0,2.83
12.0,5.0,2.831
8.0,8.0,2.832
5.0,6.0,2.833
6.0,5.0,2.834
10.0,5.0,2.835
10.0,6.0,2.836
5.0,5.0,2.837
-4.0,1.0,2.838
-8.0,0.0,2.839
-11.0,1.0,2.84
-12.0,-1.0,2.841
-12.0,-3.0,2.842
-5.0,-4.0,2.843
4.0,-2.0,2.844
10.0,0.0,2.845
11.0,-1.0,2.846
12.0,-4.0,2.847
16.0,-6.0,2.848
18.0,-5.0,2.849
16.0,-2.0,2.85
13.0,-1.0,2.851
6.0,-2.0,2.852
-6.0,-1.0,2.853
-15.0,-1.0,2.854
-12.0,-3.0,2.855
-2.0,-6.0,2.856
3.0,-4.0,2.857
-1.0,1.0,2.858
-5.0,3.0,2.859
-4.0,0.0,2.86
-5.0,-3.0,2.861
-5.0,4.0,2.862
-1.0,21.0,2.863
7.0,33.0,2.864
7.0,28.0,2.865
-1.0,5.0,2.866
-5.0,-18.0,2.867
-4.0,-30.0,2.868
-11.0,-28.0,2.869
-25.0,-24.0,2.87
-31.0,-20.0,2.871
-20.0,-17.0,2.872
-4.0,-12.0,2.873
5.0,-5.0,2.874
7.0,2.0,2.875
11.0,7.0,2.876
19.0,9.0,2.877
30.0,5.0,2.878
44.0,3.0,2.879
53.0,3.0,2.88
48.0,2.0,2.881
28.0,2.0,2.882
7.0,2.0,2.883
1.0,2.0,2.884
4.0,3.0,2.885
2.0,6.0,2.886
-6.0,5.0,2.887
-10.0,1.0,2.888
-9.0,0.0,2.889
-8.0,7.0,2.89
-9.0,14.0,2.891
-3.0,13.0,2.892
8.0,5.0,2.893
12.0,-1.0,2.894
7.0,-2.0,2.895
2.0,-2.0,2.896
5.0,-8.0,2.897
3.0,-14.0,2.898
-2.0,-13.0,2.899
-11.0,-9.0,2.9
-13.0,-9.0,2.901
-10.0,-11.0,2.902
-4.0,-9.0,2.903
2.0,-4.0,2.904
2.0,2.0,2.905
0.0,7.0,2.906
-2.0,7.0,2.907
0.0,3.0,2.908
4.0,0.0,2.909
2.0,-1.0,2.91
-2.0,2.0,2.911
-1.0,6.0,2.912
2.0,7.0,2.913
4.0,6.0,2.914
2.0,4.0,2.915
0.0,0.0,2.916
1.0,0.0,2.917
1.0,-4.0,2.918
2.0,-8.0,2.919
0.0,-11.0,2.92
-5.0,-14.0,2.921
-6.0,-10.0,2.922
0.0,-6.0,2.923
10.0,-3.0,2.924
11.0,1.0,2.925
1.0,7.0,2.926
-3.0,7.0,2.927
0.0,0.0,2.928
5.0,-5.0,2.929
3.0,-2.0,2.93
0.0,1.0,2.931
1.0,0.0,2.932
2.0,-2.0,2.933
1.0,1.0,2.934
3.0,5.0,2.935
8.0,1.0,2.936
11.0,-3.0,2.937
2.0,-3.0,2.938
-3.0,3.0,2.939
-6.0,10.0,2.94
-8.0,13.0,2.941
-8.0,19.0,2.942
-3.0,20.0,2.943
10.0,8.0,2.944
20.0,-10.0,2.945
20.0,-22.0,2.946
13.0,-26.0,2.947
8.0,-24.0,2.948
4.0,-22.0,2.949
1.0,-16.0,2.95
3.0,-6.0,2.951
3.0,2.0,2.952
-2.0,9.0,2.953
-6.0,12.0,2.954
-2.0,12.0,2.955
5.0,9.0,2.956
7.0,8.0,2.957
1.0,7.0,2.958
0.0,0.0,2.959
3.0,-13.0,2.96
6.0,-25.0,2.961
6.0,-22.0,2.962
9.0,-14.0,2.963
17.0,-9.0,2.964
19.0,-2.0,2.965
11.0,11.0,2.966
3.0,26.0,2.967
0.0,32.0,2.968
0.0,30.0,2.969
-2.0,26.0,2.97
-1.0,9.0,2.971
0.0,-14.0,2.972
-1.0,-31.0,2.973
-5.0,-29.0,2.974
-8.0,-19.0,2.975
-12.0,-14.0,2.976
-17.0,-11.0,2.977
-17.0,-4.0,2.978
-10.0,5.0,2.979
-4.0,8.0,2.98
-2.0,1.0,2.981
-1.0,-3.0,2.982
6.0,-5.0,2.983
12.0,-6.0,2.984
9.0,-1.0,2.985
2.0,5.0,2.986
3.0,7.0,2.987
6.0,1.0,2.988
4.0,-2.0,2.989
0.0,0.0,2.99
2.0,-1.0,2.991
10.0,-6.0,2.992
13.0,-8.0,2.993
12.0,-4.0,2.994
12.0,0.0,2.995
8.0,-1.0,2.996
3.0,0.0,2.997
0.0,2.0,2.998
7.0,5.0,2.999
11.0,5.0,3.0
5.0,3.0,3.001
-1.0,4.0,3.002
5.0,7.0,3.003
19.0,6.0,3.004
22.0,2.0,3.005
11.0,-3.0,3.006
-2.0,-5.0,3.007
-8.0,-2.0,3.008
-14.0,7.0,3.009
-14.0,17.0,3.01
-8.0,24.0,3.011
4.0,28.0,3.012
15.0,27.0,3.013
18.0,14.0,3.014
16.0,-6.0,3.015
14.0,-23.0,3.016
7.0,-27.0,3.017
-2.0,-28.0,3.018
-9.0,-30.0,3.019
-16.0,-33.0,3.02
-26.0,-27.0,3.021
-30.0,-16.0,3.022
-18.0,-13.0,3.023
1.0,-9.0,3.024
10.0,-2.0,3.025
5.0,7.0,3.026
6.0,9.0,3.027
17.0,9.0,3.028
23.0,10.0,3.029
14.0,11.0,3.03
2.0,7.0,3.031
2.0,2.0,3.032
3.0,3.0,3.033
-2.0,5.0,3.034
-8.0,5.0,3.035
-6.0,2.0,3.036
3.0,4.0,3.037
8.0,7.0,3.038
10.0,7.0,3.039
6.0,3.0,3.04
5.0,-2.0,3.041
6.0,-3.0,3.042
5.0,-1.0,3.043
0.0,-1.0,3.044
-8.0,1.0,3.045
-12.0,9.0,3.046
-4.0,14.0,3.047
7.0,10.0,3.048
13.0,1.0,3.049
10.0,0.0,3.05
2.0,6.0,3.051
-3.0,9.0,3.052
-11.0,1.0,3.053
-18.0,-12.0,3.054
-17.0,-16.0,3.055
-9.0,-4.0,3.056
6.0,17.0,3.057
22.0,30.0,3.058
33.0,18.0,3.059
33.0,-12.0,3.06
26.0,-40.0,3.061
14.0,-47.0,3.062
7.0,-41.0,3.063
12.0,-36.0,3.064
23.0,-30.0,3.065
35.0,-19.0,3.066
46.0,-9.0,3.067
50.0,-10.0,3.068
39.0,-17.0,3.069
16.0,-15.0,3.07
-5.0,7.0,3.071
-18.0,38.0,3.072
-25.0,55.0,3.073
-38.0,42.0,3.074
-52.0,11.0,3.075
-55.0,-14.0,3.076
-42.0,-18.0,3.077
-25.0,-11.0,3.078
-16.0,-1.0,3.079
-18.0,4.0,3.08
-20.0,5.0,3.081
-18.0,7.0,3.082
-10.0,5.0,3.083
-4.0,2.0,3.084
-1.0,0.0,3.085
-2.0,-2.0,3.086
-1.0,-4.0,3.087
2.0,-7.0,3.088
4.0,-8.0,3.089
4.0,-8.0,3.09
4.0,-11.0,3.091
4.0,-9.0,3.092
3.0,-1.0,3.093
0.0,4.0,3.094
2.0,3.0,3.095
9.0,0.0,3.096
14.0,4.0,3.097
13.0,6.0,3.098
10.0,2.0,3.099
9.0,-6.0,3.1
8.0,-13.0,3.101
3.0,-10.0,3.102
5.0,-2.0,3.103
14.0,9.0,3.104
18.0,28.0,3.105
13.0,55.0,3.106
6.0,77.0,3.107
4.0,69.0,3.108
1.0,16.0,3.109
-2.0,-57.0,3.11
-2.0,-104.0,3.111
5.0,-99.0,3.112
11.0,-59.0,3.113
11.0,-21.0,3.114
8.0,-4.0,3.115
5.0,0.0,3.116
5.0,0.0,3.117
4.0,-2.0,3.118
4.0,-1.0,3.119
-3.0,6.0,3.12
-13.0,13.0,3.121
-16.0,23.0,3.122
-4.0,34.0,3.123
13.0,46.0,3.124
20.0,52.0,3.125
18.0,39.0,3.126
18.0,12.0,3.127
29.0,-11.0,3.128
41.0,-14.0,3.129
41.0,-1.0,3.13
24.0,12.0,3.131
1.0,11.0,3.132
-14.0,-1.0,3.133
-17.0,-6.0,3.134
-12.0,-3.0,3.135
-11.0,6.0,3.136
-15.0,12.0,3.137
-13.0,15.0,3.138
0.0,15.0,3.139
16.0,6.0,3.14
25.0,-12.0,3.141
24.0,-23.0,3.142
22.0,-16.0,3.143
23.0,-3.0,3.144
19.0,4.0,3.145
6.0,3.0,3.146
-10.0,-3.0,3.147
-23.0,-11.0,3.148
-38.0,-22.0,3.149
-61.0,-28.0,3.15
-87.0,-21.0,3.151
-98.0,-5.0,3.152
-77.0,4.0,3.153
-35.0,3.0,3.154
0.0,-6.0,3.155
17.0,-23.0,3.156
25.0,-41.0,3.157
42.0,-50.0,3.158
58.0,-32.0,3.159
43.0,1.0,3.16
0.0,15.0,3.161
-21.0,15.0,3.162
18.0,20.0,3.163
82.0,34.0,3.164
104.0,35.0,3.165
72.0,9.0,3.166
42.0,-26.0,3.167
45.0,-46.0,3.168
51.0,-43.0,3.169
34.0,-18.0,3.17
11.0,13.0,3.171
-6.0,24.0,3.172
-25.0,7.0,3.173
-44.0,-12.0,3.174
-49.0,-12.0,3.175
-45.0,-4.0,3.176
-66.0,2.0,3.177
-126.0,12.0,3.178
-186.0,37.0,3.179
-202.0,52.0,3.18
-158.0,34.0,3.181
-69.0,5.0,3.182
27.0,-4.0,3.183
82.0,3.0,3.184
82.0,-1.0,3.185
70.0,-14.0,3.186
87.0,-14.0,3.187
108.0,2.0,3.188
89.0,15.0,3.189
29.0,16.0,3.19
-24.0,15.0,3.191
-34.0,18.0,3.192
-21.0,19.0,3.193
-25.0,17.0,3.194
-53.0,19.0,3.195
-59.0,24.0,3.196
-9.0,23.0,3.197
80.0,3.0,3.198
153.0,-20.0,3.199
182.0,-31.0,3.2
190.0,-31.0,3.201
195.0,-28.0,3.202
188.0,-32.0,3.203
171.0,-24.0,3.204
151.0,1.0,3.205
116.0,17.0,3.206
55.0,-9.0,3.207
-12.0,-58.0,3.208
-47.0,-76.0,3.209
-57.0,-43.0,3.21
-69.0,-1.0,3.211
-76.0,2.0,3.212
-61.0,-27.0,3.213
-39.0,-47.0,3.214
-42.0,-44.0,3.215
-68.0,-35.0,3.216
-89.0,-32.0,3.217
-108.0,-25.0,3.218
-136.0,4.0,3.219
-156.0,48.0,3.22
-135.0,88.0,3.221
-82.0,113.0,3.222
-30.0,108.0,3.223
10.0,64.0,3.224
44.0,6.0,3.225
61.0,-23.0,3.226
47.0,-15.0,3.227
20.0,4.0,3.228
12.0,15.0,3.229
24.0,25.0,3.23
21.0,29.0,3.231
-6.0,17.0,3.232
-38.0,-4.0,3.233
-67.0,-7.0,3.234
-94.0,4.0,3.235
-107.0,5.0,3.236
-89.0,-6.0,3.237
-49.0,-15.0,3.238
-21.0,-18.0,3.239
-26.0,-38.0,3.24
-46.0,-68.0,3.241
-58.0,-64.0,3.242
-51.0,-20.0,3.243
-25.0,24.0,3.244
11.0,38.0,3.245
44.0,25.0,3.246
66.0,-2.0,3.247
85.0,-23.0,3.248
107.0,-16.0,3.249
113.0,19.0,3.25
87.0,37.0,3.251
49.0,10.0,3.252
30.0,-27.0,3.253
33.0,-28.0,3.254
39.0,-6.0,3.255
39.0,9.0,3.256
39.0,19.0,3.257
32.0,38.0,3.258
26.0,50.0,3.259
38.0,31.0,3.26
63.0,-2.0,3.261
63.0,-17.0,3.262
25.0,-22.0,3.263
-15.0,-36.0,3.264
-47.0,-43.0,3.265
-121.0,-33.0,3.266
-241.0,-29.0,3.267
-293.0,-48.0,3.268
-188.0,-62.0,3.269
-8.0,-42.0,3.27
81.0,-15.0,3.271
47.0,-7.0,3.272
-2.0,0.0,3.273
3.0,31.0,3.274
38.0,56.0,3.275
69.0,56.0,3.276
102.0,58.0,3.277
124.0,79.0,3.278
107.0,88.0,3.279
75.0,50.0,3.28
93.0,-8.0,3.281
141.0,-30.0,3.282
140.0,-30.0,3.283
83.0,-47.0,3.284
47.0,-81.0,3.285
58.0,-101.0,3.286
61.0,-102.0,3.287
41.0,-90.0,3.288
42.0,-47.0,3.289
65.0,34.0,3.29
60.0,100.0,3.291
22.0,93.0,3.292
2.0,40.0,3.293
6.0,18.0,3.294
-16.0,42.0,3.295
-57.0,56.0,3.296
-61.0,33.0,3.297
-33.0,-1.0,3.298
-43.0,-15.0,3.299
-116.0,-31.0,3.3
-186.0,-67.0,3.301
-192.0,-87.0,3.302
-151.0,-65.0,3.303
-104.0,-31.0,3.304
-70.0,-20.0,3.305
-50.0,-17.0,3.306
-38.0,7.0,3.307
-19.0,41.0,3.308
9.0,47.0,3.309
21.0,16.0,3.31
6.0,-25.0,3.311
-3.0,-46.0,3.312
20.0,-45.0,3.313
42.0,-19.0,3.314
23.0,31.0,3.315
-21.0,87.0,3.316
-43.0,126.0,3.317
-18.0,138.0,3.318
42.0,128.0,3.319
90.0,98.0,3.32
78.0,54.0,3.321
10.0,18.0,3.322
-59.0,-2.0,3.323
-119.0,-20.0,3.324
-222.0,-54.0,3.325
-354.0,-90.0,3.326
-358.0,-95.0,3.327
-129.0,-66.0,3.328
193.0,-35.0,3.329
364.0,-33.0,3.33
334.0,-45.0,3.331
255.0,-40.0,3.332
233.0,-18.0,3.333
247.0,-5.0,3.334
257.0,-2.0,3.335
245.0,16.0,3.336
180.0,47.0,3.337
33.0,60.0,3.338
-105.0,42.0,3.339
-133.0,20.0,3.34
-82.0,21.0,3.341
-53.0,31.0,3.342
-56.0,14.0,3.343
-35.0,-10.0,3.344
12.0,-3.0,3.345
70.0,33.0,3.346
151.0,37.0,3.347
228.0,-21.0,3.348
201.0,-94.0,3.349
46.0,-105.0,3.35
-105.0,-51.0,3.351
-139.0,6.0,3.352
-99.0,29.0,3.353
-79.0,37.0,3.354
-84.0,50.0,3.355
-85.0,45.0,3.356
-101.0,4.0,3.357
-147.0,-65.0,3.358
-175.0,-115.0,3.359
-164.0,-127.0,3.36
-133.0,-116.0,3.361
-90.0,-86.0,3.362
-9.0,-52.0,3.363
81.0,-30.0,3.364
106.0,-28.0,3.365
65.0,-30.0,3.366
26.0,-30.0,3.367
-6.0,-32.0,3.368
-85.0,-29.0,3.369
-175.0,6.0,3.37
-166.0,72.0,3.371
-46.0,136.0,3.372
66.0,175.0,3.373
93.0,190.0,3.374
78.0,173.0,3.375
64.0,119.0,3.376
40.0,52.0,3.377
-5.0,7.0,3.378
-16.0,4.0,3.379
21.0,16.0,3.38
54.0,19.0,3.381
34.0,13.0,3.382
-21.0,-14.0,3.383
-103.0,-77.0,3.384
-225.0,-140.0,3.385
-347.0,-129.0,3.386
-380.0,-45.0,3.387
-293.0,16.0,3.388
-153.0,-19.0,3.389
-11.0,-106.0,3.39
156.0,-145.0,3.391
362.0,-114.0,3.392
527.0,-60.0,3.393
548.0,-13.0,3.394
424.0,35.0,3.395
242.0,86.0,3.396
103.0,115.0,3.397
31.0,117.0,3.398
35.0,109.0,3.399
87.0,91.0,3.4
130.0,50.0,3.401
102.0,6.0,3.402
3.0,-8.0,3.403
-91.0,11.0,3.404
-100.0,35.0,3.405
-35.0,44.0,3.406
12.0,37.0,3.407
-4.0,0.0,3.408
-41.0,-72.0,3.409
-55.0,-130.0,3.41
-65.0,-116.0,3.411
-93.0,-40.0,3.412
-117.0,17.0,3.413
-122.0,28.0,3.414
-134.0,34.0,3.415
-162.0,51.0,3.416
-167.0,50.0,3.417
-130.0,21.0,3.418
-89.0,15.0,3.419
-75.0,53.0,3.42
-46.0,79.0,3.421
51.0,48.0,3.422
179.0,-25.0,3.423
251.0,-95.0,3.424
235.0,-132.0,3.425
179.0,-117.0,3.426
121.0,-44.0,3.427
56.0,45.0,3.428
3.0,91.0,3.429
11.0,91.0,3.43
66.0,88.0,3.431
75.0,78.0,3.432
-6.0,33.0,3.433
-109.0,-39.0,3.434
-150.0,-91.0,3.435
-134.0,-101.0,3.436
-108.0,-85.0,3.437
-114.0,-69.0,3.438
-203.0,-66.0,3.439
-377.0,-86.0,3.44
-481.0,-103.0,3.441
-347.0,-42.0,3.442
-68.0,117.0,3.443
72.0,287.0,3.444
19.0,315.0,3.445
37.0,134.0,3.446
271.0,-163.0,3.447
498.0,-377.0,3.448
476.0,-369.0,3.449
285.0,-205.0,3.45
125.0,-71.0,3.451
4.0,-59.0,3.452
-158.0,-95.0,3.453
-305.0,-87.0,3.454
-305.0,-39.0,3.455
-169.0,6.0,3.456
-25.0,48.0,3.457
67.0,90.0,3.458
115.0,112.0,3.459
148.0,117.0,3.46
200.0,137.0,3.461
296.0,170.0,3.462
390.0,159.0,3.463
396.0,103.0,3.464
310.0,51.0,3.465
224.0,11.0,3.466
174.0,-36.0,3.467
98.0,-43.0,3.468
-32.0,53.0,3.469
-133.0,176.0,3.47
-139.0,165.0,3.471
-108.0,10.0,3.472
-116.0,-119.0,3.473
-142.0,-114.0,3.474
-128.0,-53.0,3.475
-101.0,-42.0,3.476
-130.0,-54.0,3.477
-225.0,-23.0,3.478
-311.0,37.0,3.479
-334.0,62.0,3.48
-308.0,43.0,3.481
-251.0,43.0,3.482
-158.0,73.0,3.483
-33.0,90.0,3.484
78.0,73.0,3.485
130.0,47.0,3.486
128.0,40.0,3.487
117.0,38.0,3.488
110.0,7.0,3.489
58.0,-50.0,3.49
-69.0,-101.0,3.491
-235.0,-128.0,3.492
-370.0,-138.0,3.493
-447.0,-146.0,3.494
-448.0,-142.0,3.495
-316.0,-118.0,3.496
-45.0,-94.0,3.497
289.0,-97.0,3.498
480.0,-100.0,3.499
425.0,-55.0,3.5
254.0,25.0,3.501
166.0,77.0,3.502
213.0,68.0,3.503
280.0,49.0,3.504
271.0,61.0,3.505
227.0,78.0,3.506
219.0,69.0,3.507
221.0,45.0,3.508
170.0,28.0,3.509
110.0,0.0,3.51
143.0,-34.0,3.511
266.0,-39.0,3.512
330.0,-3.0,3.513
246.0,35.0,3.514
93.0,45.0,3.515
-10.0,50.0,3.516
-57.0,69.0,3.517
-156.0,64.0,3.518
-375.0,13.0,3.519
-653.0,-34.0,3.52
-805.0,-21.0,3.521
-709.0,37.0,3.522
-448.0,52.0,3.523
-230.0,-7.0,3.524
-141.0,-66.0,3.525
-73.0,-30.0,3.526
61.0,93.0,3.527
207.0,197.0,3.528
310.0,200.0,3.529
398.0,133.0,3.53
448.0,82.0,3.531
372.0,76.0,3.532
231.0,67.0,3.533
223.0,-5.0,3.534
340.0,-147.0,3.535
313.0,-301.0,3.536
65.0,-369.0,3.537
-187.0,-311.0,3.538
-198.0,-187.0,3.539
-93.0,-101.0,3.54
-101.0,-67.0,3.541
-164.0,3.0,3.542
-107.0,126.0,3.543
4.0,208.0,3.544
1.0,189.0,3.545
-75.0,136.0,3.546
-62.0,119.0,3.547
23.0,91.0,3.548
55.0,-27.0,3.549
44.0,-194.0,3.55
88.0,-279.0,3.551
157.0,-225.0,3.552
144.0,-100.0,3.553
48.0,2.0,3.554
-62.0,63.0,3.555
-176.0,107.0,3.556
-274.0,144.0,3.557
-300.0,168.0,3.558
-221.0,178.0,3.559
-116.0,165.0,3.56
-109.0,109.0,3.561
-173.0,9.0,3.562
-187.0,-93.0,3.563
-123.0,-143.0,3.564
-39.0,-134.0,3.565
27.0,-111.0,3.566
51.0,-128.0,3.567
-5.0,-176.0,3.568
-100.0,-199.0,3.569
-114.0,-146.0,3.57
-10.0,-33.0,3.571
82.0,71.0,3.572
57.0,108.0,3.573
-6.0,80.0,3.574
11.0,38.0,3.575
74.0,19.0,3.576
58.0,11.0,3.577
-64.0,-14.0,3.578
-74.0,-39.0,3.579
132.0,-26.0,3.58
418.0,19.0,3.581
538.0,55.0,3.582
402.0,48.0,3.583
151.0,22.0,3.584
-43.0,14.0,3.585
-146.0,27.0,3.586
-195.0,33.0,3.587
-160.0,34.0,3.588
-31.0,40.0,3.589
68.0,41.0,3.59
-5.0,21.0,3.591
-192.0,-1.0,3.592
-273.0,19.0,3.593
-171.0,72.0,3.594
-32.0,102.0,3.595
-12.0,86.0,3.596
-80.0,63.0,3.597
-93.0,62.0,3.598
61.0,61.0,3.599
350.0,15.0,3.6
599.0,-65.0,3.601
619.0,-111.0,3.602
386.0,-89.0,3.603
78.0,-23.0,3.604
-105.0,33.0,3.605
-138.0,53.0,3.606
-124.0,44.0,3.607
-142.0,33.0,3.608
-166.0,44.0,3.609
-131.0,70.0,3.61
-8.0,86.0,3.611
135.0,82.0,3.612
189.0,82.0,3.613
115.0,90.0,3.614
-6.0,55.0,3.615
-114.0,-50.0,3.616
-232.0,-153.0,3.617
-439.0,-173.0,3.618
-721.0,-101.0,3.619
-992.0,-12.0,3.62
-1089.0,30.0,3.621
-795.0,30.0,3.622
-89.0,3.0,3.623
641.0,3.0,3.624
884.0,98.0,3.625
627.0,223.0,3.626
373.0,163.0,3.627
467.0,-160.0,3.628
688.0,-483.0,3.629
674.0,-503.0,3.63
473.0,-284.0,3.631
381.0,-120.0,3.632
442.0,-88.0,3.633
437.0,-29.0,3.634
271.0,85.0,3.635
103.0,116.0,3.636
47.0,48.0,3.637
2.0,3.0,3.638
-154.0,40.0,3.639
-380.0,86.0,3.64
-540.0,106.0,3.641
-577.0,125.0,3.642
-518.0,93.0,3.643
-385.0,-17.0,3.644
-223.0,-87.0,3.645
-130.0,-16.0,3.646
-157.0,75.0,3.647
-226.0,30.0,3.648
-219.0,-82.0,3.649
-132.0,-118.0,3.65
-42.0,-109.0,3.651
26.0,-146.0,3.652
109.0,-164.0,3.653
202.0,-71.0,3.654
249.0,55.0,3.655
238.0,103.0,3.656
215.0,119.0,3.657
186.0,189.0,3.658
104.0,249.0,3.659
-45.0,195.0,3.66
-192.0,85.0,3.661
-274.0,55.0,3.662
-295.0,84.0,3.663
-272.0,55.0,3.664
-205.0,-34.0,3.665
-106.0,-96.0,3.666
-49.0,-112.0,3.667
-132.0,-119.0,3.668
-379.0,-101.0,3.669
-659.0,-35.0,3.67
-711.0,15.0,3.671
-391.0,-13.0,3.672
95.0,-71.0,3.673
381.0,-82.0,3.674
403.0,-57.0,3.675
488.0,-42.0,3.676
801.0,-14.0,3.677
1103.0,66.0,3.678
987.0,157.0,3.679
517.0,182.0,3.68
160.0,152.0,3.681
140.0,141.0,3.682
223.0,161.0,3.683
165.0,157.0,3.684
-12.0,109.0,3.685
-218.0,60.0,3.686
-479.0,53.0,3.687
-769.0,64.0,3.688
-946.0,39.0,3.689
-962.0,-39.0,3.69
-914.0,-123.0,3.691
-781.0,-161.0,3.692
-380.0,-163.0,3.693
258.0,-189.0,3.694
770.0,-260.0,3.695
896.0,-305.0,3.696
807.0,-251.0,3.697
772.0,-113.0,3.698
800.0,20.0,3.699
716.0,91.0,3.7
516.0,95.0,3.701
363.0,45.0,3.702
315.0,-44.0,3.703
270.0,-113.0,3.704
142.0,-109.0,3.705
-51.0,-55.0,3.706
-252.0,0.0,3.707
-399.0,52.0,3.708
-443.0,96.0,3.709
-403.0,97.0,3.71
-372.0,62.0,3.711
-406.0,61.0,3.712
-474.0,108.0,3.713
-504.0,128.0,3.714
-441.0,75.0,3.715
-275.0,2.0,3.716
-71.0,-49.0,3.717
104.0,-95.0,3.718
194.0,-111.0,3.719
197.0,-48.0,3.72
113.0,68.0,3.721
-38.0,171.0,3.722
-148.0,248.0,3.723
-111.0,310.0,3.724
23.0,281.0,3.725
116.0,96.0,3.726
143.0,-156.0,3.727
190.0,-310.0,3.728
245.0,-328.0,3.729
192.0,-282.0,3.73
12.0,-206.0,3.731
-158.0,-88.0,3.732
-210.0,31.0,3.733
-155.0,94.0,3.734
-61.0,108.0,3.735
17.0,112.0,3.736
37.0,99.0,3.737
9.0,38.0,3.738
6.0,-24.0,3.739
56.0,-39.0,3.74
83.0,-27.0,3.741
9.0,-23.0,3.742
-146.0,-10.0,3.743
-300.0,47.0,3.744
-382.0,120.0,3.745
-335.0,152.0,3.746
-159.0,140.0,3.747
34.0,105.0,3.748
136.0,37.0,3.749
178.0,-63.0,3.75
245.0,-145.0,3.751
312.0,-155.0,3.752
289.0,-109.0,3.753
185.0,-57.0,3.754
101.0,-23.0,3.755
97.0,3.0,3.756
166.0,36.0,3.757
289.0,73.0,3.758
362.0,102.0,3.759
207.0,85.0,3.76
-206.0,4.0,3.761
-630.0,-85.0,3.762
-757.0,-117.0,3.763
-522.0,-77.0,3.764
-128.0,-18.0,3.765
174.0,5.0,3.766
290.0,-32.0,3.767
286.0,-102.0,3.768
260.0,-123.0,3.769
204.0,-47.0,3.77
35.0,45.0,3.771
-208.0,25.0,3.772
-300.0,-65.0,3.773
-113.0,-66.0,3.774
153.0,38.0,3.775
209.0,69.0,3.776
98.0,-27.0,3.777
83.0,-117.0,3.778
247.0,-77.0,3.779
342.0,2.0,3.78
214.0,17.0,3.781
78.0,52.0,3.782
153.0,154.0,3.783
293.0,189.0,3.784
244.0,68.0,3.785
61.0,-58.0,3.786
-36.0,-33.0,3.787
-67.0,62.0,3.788
-226.0,73.0,3.789
-469.0,28.0,3.79
-539.0,19.0,3.791
-378.0,10.0,3.792
-205.0,-59.0,3.793
-154.0,-106.0,3.794
-105.0,-43.0,3.795
22.0,69.0,3.796
93.0,128.0,3.797
-8.0,139.0,3.798
-153.0,141.0,3.799
-127.0,102.0,3.8
69.0,-6.0,3.801
261.0,-110.0,3.802
379.0,-102.0,3.803
482.0,25.0,3.804
567.0,182.0,3.805
548.0,243.0,3.806
415.0,124.0,3.807
269.0,-111.0,3.808
145.0,-287.0,3.809
-21.0,-308.0,3.81
-247.0,-254.0,3.811
-424.0,-223.0,3.812
-462.0,-181.0,3.813
-393.0,-81.0,3.814
-297.0,4.0,3.815
-189.0,-5.0,3.816
-83.0,-51.0,3.817
-43.0,-42.0,3.818
-131.0,21.0,3.819
-290.0,74.0,3.82
-374.0,87.0,3.821
-318.0,60.0,3.822
-194.0,-25.0,3.823
-86.0,-124.0,3.824
2.0,-120.0,3.825
113.0,17.0,3.826
243.0,163.0,3.827
333.0,212.0,3.828
342.0,203.0,3.829
305.0,196.0,3.83
274.0,168.0,3.831
207.0,103.0,3.832
10.0,65.0,3.833
-274.0,92.0,3.834
-461.0,118.0,3.835
-454.0,67.0,3.836
-379.0,-20.0,3.837
-353.0,-83.0,3.838
-296.0,-101.0,3.839
-75.0,-84.0,3.84
243.0,-35.0,3.841
448.0,17.0,3.842
440.0,-4.0,3.843
278.0,-105.0,3.844
55.0,-169.0,3.845
-118.0,-106.0,3.846
-147.0,26.0,3.847
-82.0,107.0,3.848
-107.0,107.0,3.849
-249.0,84.0,3.85
-295.0,65.0,3.851
-133.0,24.0,3.852
53.0,-46.0,3.853
107.0,-106.0,3.854
169.0,-134.0,3.855
377.0,-163.0,3.856
565.0,-215.0,3.857
512.0,-234.0,3.858
272.0,-144.0,3.859
101.0,-11.0,3.86
104.0,1.0,3.861
170.0,-106.0,3.862
190.0,-145.0,3.863
128.0,-22.0,3.864
9.0,115.0,3.865
-62.0,115.0,3.866
23.0,60.0,3.867
196.0,87.0,3.868
256.0,149.0,3.869
148.0,111.0,3.87
42.0,15.0,3.871
52.0,29.0,3.872
80.0,178.0,3.873
9.0,299.0,3.874
-129.0,252.0,3.875
-247.0,85.0,3.876
-304.0,-45.0,3.877
-311.0,-64.0,3.878
-300.0,-17.0,3.879
-344.0,-18.0,3.88
-456.0,-96.0,3.881
-504.0,-158.0,3.882
-380.0,-137.0,3.883
-172.0,-81.0,3.884
-24.0,-57.0,3.885
100.0,-43.0,3.886
299.0,11.0,3.887
473.0,70.0,3.888
440.0,62.0,3.889
218.0,-8.0,3.89
-10.0,-71.0,3.891
-149.0,-86.0,3.892
-192.0,-73.0,3.893
-109.0,-45.0,3.894
71.0,2.0,3.895
170.0,56.0,3.896
85.0,78.0,3.897
-76.0,46.0,3.898
-132.0,-10.0,3.899
-85.0,-45.0,3.9
-29.0,-46.0,3.901
27.0,-24.0,3.902
92.0,0.0,3.903
80.0,24.0,3.904
-39.0,36.0,3.905
-151.0,24.0,3.906
-182.0,-3.0,3.907
-209.0,-4.0,3.908
-267.0,42.0,3.909
-260.0,100.0,3.91
-140.0,101.0,3.911
-23.0,34.0,3.912
4.0,-40.0,3.913
11.0,-60.0,3.914
82.0,-27.0,3.915
189.0,1.0,3.916
286.0,-3.0,3.917
390.0,-25.0,3.918
461.0,-21.0,3.919
365.0,18.0,3.92
75.0,47.0,3.921
-202.0,33.0,3.922
-241.0,-19.0,3.923
-85.0,-63.0,3.924
14.0,-63.0,3.925
-60.0,-32.0,3.926
-150.0,-1.0,3.927
-70.0,21.0,3.928
111.0,44.0,3.929
132.0,57.0,3.93
-128.0,49.0,3.931
-469.0,36.0,3.932
-577.0,24.0,3.933
-373.0,-6.0,3.934
-52.0,-67.0,3.935
167.0,-106.0,3.936
261.0,-78.0,3.937
340.0,-12.0,3.938
477.0,14.0,3.939
678.0,-7.0,3.94
905.0,-19.0,3.941
1045.0,6.0,3.942
948.0,21.0,3.943
605.0,-22.0,3.944
211.0,-91.0,3.945
-58.0,-115.0,3.946
-258.0,-58.0,3.947
-507.0,33.0,3.948
-732.0,76.0,3.949
-774.0,45.0,3.95
-649.0,14.0,3.951
-505.0,63.0,3.952
-370.0,154.0,3.953
-188.0,189.0,3.954
-23.0,131.0,3.955
-1.0,40.0,3.956
-73.0,-18.0,3.957
-85.0,-40.0,3.958
-9.0,-59.0,3.959
21.0,-127.0,3.96
-56.0,-243.0,3.961
-158.0,-288.0,3.962
-193.0,-167.0,3.963
-145.0,27.0,3.964
-40.0,113.0,3.965
44.0,68.0,3.966
18.0,34.0,3.967
-75.0,63.0,3.968
-67.0,51.0,3.969
71.0,-29.0,3.97
163.0,-62.0,3.971
104.0,-3.0,3.972
20.0,39.0,3.973
31.0,7.0,3.974
72.0,-14.0,3.975
62.0,24.0,3.976
52.0,54.0,3.977
65.0,35.0,3.978
29.0,34.0,3.979
-70.0,87.0,3.98
-116.0,110.0,3.981
-66.0,51.0,3.982
-21.0,-14.0,3.983
-16.0,2.0,3.984
44.0,57.0,3.985
155.0,62.0,3.986
155.0,14.0,3.987
15.0,-8.0,3.988
-66.0,25.0,3.989
25.0,69.0,3.99
137.0,77.0,3.991
130.0,62.0,3.992
80.0,53.0,3.993
102.0,41.0,3.994
139.0,-12.0,3.995
83.0,-110.0,3.996
-50.0,-188.0,3.997
-189.0,-194.0,3.998
-224.0,-137.0,3.999
-83.0,-93.0,4.0
181.0,-98.0,4.001
348.0,-99.0,4.002
259.0,-47.0,4.003
34.0,36.0,4.004
-121.0,92.0,4.005
-195.0,110.0,4.006
-274.0,122.0,4.007
-320.0,126.0,4.008
-265.0,68.0,4.009
-197.0,-69.0,4.01
-190.0,-214.0,4.011
-104.0,-261.0,4.012
171.0,-182.0,4.013
459.0,-64.0,4.014
541.0,-2.0,4.015
494.0,2.0,4.016
505.0,53.0,4.017
491.0,237.0,4.018
317.0,459.0,4.019
162.0,474.0,4.02
63.0,155.0,4.021
-25.0,-274.0,4.022
-81.0,-441.0,4.023
-158.0,-255.0,4.024
-300.0,-2.0,4.025
-419.0,41.0,4.026
-471.0,-72.0,4.027
-445.0,-144.0,4.028
-185.0,-139.0,4.029
33.0,-142.0,4.03
126.0,-139.0,4.031
163.0,-51.0,4.032
25.0,79.0,4.033
-92.0,117.0,4.034
-152.0,58.0,4.035
-171.0,42.0,4.036
-66.0,126.0,4.037
22.0,208.0,4.038
11.0,159.0,4.039
23.0,10.0,4.04
159.0,-92.0,4.041
286.0,-80.0,4.042
214.0,-23.0,4.043
-14.0,15.0,4.044
-203.0,48.0,4.045
-293.0,94.0,4.046
-357.0,116.0,4.047
-375.0,93.0,4.048
-258.0,62.0,4.049
-66.0,51.0,4.05
5.0,41.0,4.051
-65.0,17.0,4.052
-72.0,-6.0,4.053
107.0,-24.0,4.054
314.0,-65.0,4.055
359.0,-118.0,4.056
296.0,-128.0,4.057
266.0,-80.0,4.058
278.0,-10.0,4.059
197.0,45.0,4.06
3.0,80.0,4.061
-153.0,89.0,4.062
-157.0,56.0,4.063
-86.0,18.0,4.064
-66.0,24.0,4.065
-102.0,38.0,4.066
-102.0,0.0,4.067
-35.0,-49.0,4.068
40.0,-23.0,4.069
55.0,51.0,4.07
-28.0,59.0,4.071
-195.0,-12.0,4.072
-352.0,-76.0,4.073
-344.0,-95.0,4.074
-130.0,-99.0,4.075
127.0,-85.0,4.076
236.0,-25.0,4.077
213.0,25.0,4.078
234.0,-15.0,4.079
380.0,-65.0,4.08
540.0,-141.0,4.081
572.0,-170.0,4.082
446.0,-60.0,4.083
216.0,49.0,4.084
-40.0,156.0,4.085
-241.0,204.0,4.086
-354.0,73.0,4.087
-385.0,-41.0,4.088
-330.0,-105.0,4.089
-183.0,-134.0,4.09
-18.0,-54.0,4.091
64.0,14.0,4.092
66.0,49.0,4.093
68.0,73.0,4.094
62.0,63.0,4.095
-19.0,45.0,4.096
-135.0,5.0,4.097
-194.0,-28.0,4.098
-173.0,-25.0,4.099
-128.0,-11.0,4.1
-60.0,-10.0,4.101
47.0,-11.0,4.102
118.0,3.0,4.103
80.0,39.0,4.104
15.0,97.0,4.105
28.0,166.0,4.106
54.0,220.0,4.107
-20.0,220.0,4.108
-135.0,157.0,4.109
-141.0,63.0,4.11
-68.0,-31.0,4.111
-65.0,-143.0,4.112
-130.0,-262.0,4.113
-118.0,-320.0,4.114
15.0,-268.0,4.115
154.0,-157.0,4.116
229.0,-77.0,4.117
283.0,-41.0,4.118
327.0,-20.0,4.119
285.0,-5.0,4.12
153.0,-10.0,4.121
34.0,-21.0,4.122
-12.0,-9.0,4.123
-50.0,17.0,4.124
-160.0,31.0,4.125
-308.0,30.0,4.126
-420.0,28.0,4.127
-440.0,21.0,4.128
-330.0,4.0,4.129
-95.0,5.0,4.13
136.0,52.0,4.131
196.0,128.0,4.132
77.0,180.0,4.133
-57.0,166.0,4.134
-84.0,95.0,4.135
-24.0,20.0,4.136
67.0,-18.0,4.137
179.0,-28.0,4.138
271.0,-36.0,4.139
272.0,-57.0,4.14
203.0,-62.0,4.141
155.0,-14.0,4.142
155.0,77.0,4.143
146.0,140.0,4.144
113.0,96.0,4.145
86.0,-48.0,4.146
36.0,-179.0,4.147
-79.0,-187.0,4.148
-202.0,-98.0,4.149
-224.0,-20.0,4.15
-147.0,18.0,4.151
-67.0,72.0,4.152
-8.0,136.0,4.153
78.0,119.0,4.154
175.0,6.0,4.155
197.0,-84.0,4.156
138.0,-69.0,4.157
59.0,-8.0,4.158
3.0,3.0,4.159
-52.0,-41.0,4.16
-111.0,-81.0,4.161
-133.0,-84.0,4.162
-96.0,-61.0,4.163
-37.0,11.0,4.164
24.0,175.0,4.165
97.0,353.0,4.166
159.0,354.0,4.167
155.0,72.0,4.168
63.0,-317.0,4.169
-72.0,-486.0,4.17
-218.0,-330.0,4.171
-360.0,-74.0,4.172
-429.0,24.0,4.173
-338.0,-21.0,4.174
-131.0,-57.0,4.175
9.0,-45.0,4.176
-9.0,-39.0,4.177
-100.0,-30.0,4.178
-127.0,32.0,4.179
-81.0,104.0,4.18
-20.0,101.0,4.181
49.0,63.0,4.182
109.0,75.0,4.183
83.0,123.0,4.184
-29.0,125.0,4.185
-93.0,68.0,4.186
-17.0,-3.0,4.187
109.0,-57.0,4.188
171.0,-79.0,4.189
206.0,-45.0,4.19
299.0,18.0,4.191
405.0,40.0,4.192
420.0,1.0,4.193
345.0,-47.0,4.194
269.0,-82.0,4.195
227.0,-117.0,4.196
187.0,-119.0,4.197
101.0,-29.0,4.198
-29.0,111.0,4.199
-177.0,172.0,4.2
-292.0,113.0,4.201
-333.0,38.0,4.202
-291.0,27.0,4.203
-187.0,39.0,4.204
-55.0,22.0,4.205
42.0,-1.0,4.206
33.0,13.0,4.207
-81.0,44.0,4.208
-200.0,49.0,4.209
-232.0,26.0,4.21
-214.0,3.0,4.211
-227.0,0.0,4.212
-240.0,5.0,4.213
-154.0,3.0,4.214
31.0,0.0,4.215
203.0,9.0,4.216
278.0,21.0,4.217
291.0,-4.0,4.218
309.0,-69.0,4.219
326.0,-113.0,4.22
275.0,-76.0,4.221
137.0,15.0,4.222
-16.0,50.0,4.223
-92.0,-13.0,4.224
-86.0,-102.0,4.225
-78.0,-120.0,4.226
-115.0,-78.0,4.227
-151.0,-35.0,4.228
-113.0,-14.0,4.229
-27.0,10.0,4.23
23.0,40.0,4.231
2.0,52.0,4.232
-41.0,47.0,4.233
-67.0,45.0,4.234
-83.0,35.0,4.235
-103.0,-5.0,4.236
-106.0,-40.0,4.237
-73.0,-25.0,4.238
-19.0,17.0,4.239
3.0,13.0,4.24
-23.0,-37.0,4.241
-79.0,-39.0,4.242
-120.0,24.0,4.243
-116.0,52.0,4.244
-58.0,-1.0,4.245
37.0,-48.0,4.246
134.0,-20.0,4.247
190.0,16.0,4.248
206.0,-12.0,4.249
215.0,-52.0,4.25
236.0,-30.0,4.251
241.0,19.0,4.252
184.0,25.0,4.253
77.0,-7.0,4.254
-8.0,-13.0,4.255
-26.0,14.0,4.256
-4.0,40.0,4.257
-4.0,50.0,4.258
-40.0,58.0,4.259
-82.0,67.0,4.26
-102.0,82.0,4.261
-107.0,102.0,4.262
-97.0,93.0,4.263
-65.0,21.0,4.264
-27.0,-80.0,4.265
-11.0,-124.0,4.266
-19.0,-87.0,4.267
-39.0,-34.0,4.268
-67.0,-24.0,4.269
-90.0,-41.0,4.27
-67.0,-38.0,4.271
5.0,-16.0,4.272
59.0,-1.0,4.273
46.0,2.0,4.274
11.0,5.0,4.275
25.0,1.0,4.276
69.0,-14.0,4.277
84.0,-41.0,4.278
63.0,-58.0,4.279
45.0,-51.0,4.28
36.0,-18.0,4.281
9.0,36.0,4.282
-22.0,86.0,4.283
-20.0,100.0,4.284
3.0,71.0,4.285
10.0,23.0,4.286
9.0,-13.0,4.287
31.0,-19.0,4.288
65.0,0.0,4.289
64.0,25.0,4.29
28.0,29.0,4.291
-16.0,3.0,4.292
-59.0,-36.0,4.293
-107.0,-59.0,4.294
-128.0,-48.0,4.295
-90.0,-12.0,4.296
-30.0,14.0,4.297
-5.0,6.0,4.298
-30.0,-27.0,4.299
-68.0,-48.0,4.3
-84.0,-32.0,4.301
-77.0,2.0,4.302
-48.0,26.0,4.303
-2.0,43.0,4.304
32.0,77.0,4.305
35.0,106.0,4.306
46.0,86.0,4.307
102.0,28.0,4.308
145.0,-9.0,4.309
101.0,0.0,4.31
0.0,9.0,4.311
-57.0,-26.0,4.312
-50.0,-90.0,4.313
-38.0,-134.0,4.314
-36.0,-142.0,4.315
-2.0,-124.0,4.316
62.0,-92.0,4.317
94.0,-55.0,4.318
60.0,-23.0,4.319
-3.0,-2.0,4.32
-46.0,19.0,4.321
-60.0,46.0,4.322
-50.0,69.0,4.323
-20.0,81.0,4.324
0.0,79.0,4.325
-5.0,58.0,4.326
3.0,21.0,4.327
58.0,-12.0,4.328
115.0,-19.0,4.329
99.0,-1.0,4.33
31.0,16.0,4.331
-1.0,23.0,4.332
22.0,21.0,4.333
40.0,20.0,4.334
27.0,27.0,4.335
23.0,43.0,4.336
44.0,58.0,4.337
44.0,42.0,4.338
5.0,3.0,4.339
-34.0,-10.0,4.34
-41.0,23.0,4.341
-38.0,61.0,4.342
-45.0,23.0,4.343
-42.0,-70.0,4.344
-22.0,-116.0,4.345
-18.0,-57.0,4.346
-36.0,24.0,4.347
-41.0,19.0,4.348
-13.0,-54.0,4.349
17.0,-86.0,4.35
21.0,-36.0,4.351
20.0,17.0,4.352
30.0,9.0,4.353
32.0,-21.0,4.354
12.0,-20.0,4.355
-6.0,1.0,4.356
-5.0,10.0,4.357
0.0,10.0,4.358
0.0,27.0,4.359
0.0,38.0,4.36
9.0,11.0,4.361
19.0,-24.0,4.362
20.0,-27.0,4.363
17.0,-5.0,4.364
14.0,12.0,4.365
8.0,40.0,4.366
-6.0,90.0,4.367
-20.0,105.0,4.368
-23.0,20.0,4.369
-10.0,-114.0,4.37
2.0,-166.0,4.371
-3.0,-99.0,4.372
-19.0,-18.0,4.373
-22.0,-9.0,4.374
-4.0,-36.0,4.375
7.0,-29.0,4.376
-3.0,0.0,4.377
-23.0,7.0,4.378
-23.0,6.0,4.379
-10.0,43.0,4.38
-4.0,92.0,4.381
-6.0,94.0,4.382
0.0,40.0,4.383
22.0,-15.0,4.384
40.0,-25.0,4.385
49.0,-2.0,4.386
51.0,17.0,4.387
47.0,13.0,4.388
34.0,-2.0,4.389
18.0,-9.0,4.39
8.0,0.0,4.391
-6.0,16.0,4.392
-38.0,27.0,4.393
-78.0,34.0,4.394
-93.0,45.0,4.395
-73.0,48.0,4.396
-55.0,29.0,4.397
-73.0,-18.0,4.398
-93.0,-67.0,4.399
-58.0,-90.0,4.4
30.0,-81.0,4.401
106.0,-52.0,4.402
133.0,-24.0,4.403
146.0,-6.0,4.404
159.0,5.0,4.405
119.0,16.0,4.406
19.0,31.0,4.407
-53.0,45.0,4.408
-41.0,60.0,4.409
-6.0,75.0,4.41
-14.0,88.0,4.411
-30.0,76.0,4.412
-13.0,16.0,4.413
-5.0,-82.0,4.414
-42.0,-154.0,4.415
-67.0,-142.0,4.416
-32.0,-73.0,4.417
5.0,-29.0,4.418
-15.0,-52.0,4.419
-45.0,-93.0,4.42
-18.0,-78.0,4.421
26.0,-12.0,4.422
20.0,33.0,4.423
-3.0,31.0,4.424
15.0,28.0,4.425
41.0,55.0,4.426
24.0,77.0,4.427
-2.0,60.0,4.428
21.0,26.0,4.429
63.0,17.0,4.43
60.0,30.0,4.431
30.0,29.0,4.432
30.0,10.0,4.433
48.0,0.0,4.434
36.0,4.0,4.435
2.0,16.0,4.436
-9.0,31.0,4.437
-2.0,45.0,4.438
-8.0,41.0,4.439
-31.0,1.0,4.44
-44.0,-50.0,4.441
-46.0,-64.0,4.442
-54.0,-33.0,4.443
-61.0,0.0,4.444
-52.0,9.0,4.445
-32.0,2.0,4.446
-19.0,0.0,4.447
-12.0,0.0,4.448
-6.0,-7.0,4.449
-11.0,-9.0,4.45
-23.0,-1.0,4.451
-21.0,4.0,4.452
2.0,3.0,4.453
27.0,-4.0,4.454
36.0,-14.0,4.455
46.0,-20.0,4.456
65.0,-8.0,4.457
78.0,27.0,4.458
72.0,58.0,4.459
57.0,48.0,4.46
56.0,-3.0,4.461
71.0,-50.0,4.462
75.0,-63.0,4.463
55.0,-43.0,4.464
12.0,-14.0,4.465
-20.0,8.0,4.466
-23.0,14.0,4.467
-10.0,-1.0,4.468
-11.0,-24.0,4.469
-23.0,-33.0,4.47
-23.0,-17.0,4.471
-13.0,2.0,4.472
-15.0,8.0,4.473
-35.0,5.0,4.474
-57.0,5.0,4.475
-69.0,9.0,4.476
-68.0,10.0,4.477
-49.0,10.0,4.478
-19.0,21.0,4.479
-1.0,34.0,4.48
-13.0,25.0,4.481
-32.0,2.0,4.482
-32.0,-9.0,4.483
-20.0,1.0,4.484
-14.0,13.0,4.485
-8.0,2.0,4.486
14.0,-20.0,4.487
48.0,-27.0,4.488
70.0,-17.0,4.489
74.0,-10.0,4.49
68.0,-11.0,4.491
57.0,0.0,4.492
39.0,42.0,4.493
16.0,96.0,4.494
-12.0,124.0,4.495
-37.0,89.0,4.496
-48.0,1.0,4.497
-39.0,-102.0,4.498
-19.0,-155.0,4.499
-10.0,-133.0,4.5
-12.0,-81.0,4.501
-3.0,-42.0,4.502
23.0,-16.0,4.503
45.0,17.0,4.504
44.0,50.0,4.505
25.0,49.0,4.506
16.0,21.0,4.507
15.0,2.0,4.508
7.0,8.0,4.509
-28.0,18.0,4.51
-77.0,5.0,4.511
-104.0,-18.0,4.512
-82.0,-29.0,4.513
-24.0,-20.0,4.514
46.0,-6.0,4.515
120.0,1.0,4.516
179.0,-2.0,4.517
173.0,-12.0,4.518
73.0,-20.0,4.519
-62.0,-19.0,4.52
-137.0,-1.0,4.521
-137.0,34.0,4.522
-117.0,70.0,4.523
-94.0,84.0,4.524
-47.0,68.0,4.525
7.0,39.0,4.526
17.0,12.0,4.527
-13.0,-8.0,4.528
-16.0,-31.0,4.529
21.0,-57.0,4.53
51.0,-75.0,4.531
56.0,-59.0,4.532
61.0,-7.0,4.533
64.0,64.0,4.534
28.0,107.0,4.535
-35.0,82.0,4.536
-72.0,2.0,4.537
-66.0,-91.0,4.538
-39.0,-124.0,4.539
-2.0,-73.0,4.54
60.0,9.0,4.541
122.0,63.0,4.542
125.0,54.0,4.543
70.0,-7.0,4.544
13.0,-76.0,4.545
-8.0,-101.0,4.546
-9.0,-62.0,4.547
-10.0,0.0,4.548
16.0,31.0,4.549
92.0,29.0,4.55
172.0,35.0,4.551
174.0,65.0,4.552
77.0,73.0,4.553
-36.0,29.0,4.554
-73.0,-35.0,4.555
-34.0,-64.0,4.556
-3.0,-46.0,4.557
-28.0,-13.0,4.558
-68.0,-3.0,4.559
-69.0,-8.0,4.56
-42.0,-11.0,4.561
-39.0,0.0,4.562
-52.0,4.0,4.563
-48.0,-7.0,4.564
-29.0,-16.0,4.565
-20.0,-3.0,4.566
-16.0,31.0,4.567
-3.0,54.0,4.568
11.0,54.0,4.569
3.0,44.0,4.57
-15.0,36.0,4.571
-25.0,28.0,4.572
-37.0,12.0,4.573
-61.0,-6.0,4.574
-84.0,-17.0,4.575
-85.0,-23.0,4.576
-78.0,-26.0,4.577
-81.0,-28.0,4.578
-85.0,-18.0,4.579
-68.0,-1.0,4.58
-26.0,3.0,4.581
27.0,-1.0,4.582
78.0,-2.0,4.583
117.0,4.0,4.584
148.0,4.0,4.585
188.0,-10.0,4.586
235.0,-24.0,4.587
243.0,-24.0,4.588
157.0,-13.0,4.589
-3.0,-3.0,4.59
-134.0,14.0,4.591
-171.0,39.0,4.592
-141.0,54.0,4.593
-108.0,33.0,4.594
-82.0,-17.0,4.595
-37.0,-53.0,4.596
16.0,-53.0,4.597
55.0,-39.0,4.598
79.0,-33.0,4.599
105.0,-30.0,4.6
117.0,-35.0,4.601
74.0,-35.0,4.602
-1.0,-21.0,4.603
-41.0,-4.0,4.604
-21.0,24.0,4.605
16.0,46.0,4.606
24.0,47.0,4.607
4.0,43.0,4.608
-27.0,23.0,4.609
-53.0,9.0,4.61
-57.0,17.0,4.611
-40.0,20.0,4.612
-38.0,6.0,4.613
-78.0,-6.0,4.614
-117.0,-12.0,4.615
-96.0,-15.0,4.616
-32.0,-7.0,4.617
8.0,1.0,4.618
9.0,8.0,4.619
16.0,13.0,4.62
41.0,8.0,4.621
61.0,5.0,4.622
68.0,8.0,4.623
74.0,9.0,4.624
72.0,0.0,4.625
71.0,-21.0,4.626
73.0,-37.0,4.627
66.0,-32.0,4.628
27.0,-3.0,4.629
-7.0,24.0,4.63
-29.0,26.0,4.631
-42.0,8.0,4.632
-22.0,-3.0,4.633
-12.0,-5.0,4.634
-35.0,-12.0,4.635
-50.0,-25.0,4.636
-37.0,-20.0,4.637
-32.0,13.0,4.638
-83.0,65.0,4.639
-152.0,104.0,4.64
-172.0,86.0,4.641
-124.0,-7.0,4.642
-43.0,-131.0,4.643
30.0,-175.0,4.644
79.0,-100.0,4.645
109.0,-6.0,4.646
141.0,1.0,4.647
173.0,-36.0,4.648
172.0,-14.0,4.649
113.0,55.0,4.65
23.0,77.0,4.651
-39.0,41.0,4.652
-52.0,18.0,4.653
-44.0,21.0,4.654
-45.0,0.0,4.655
-53.0,-39.0,4.656
-57.0,-43.0,4.657
-50.0,-10.0,4.658
-9.0,14.0,4.659
51.0,29.0,4.66
90.0,57.0,4.661
82.0,80.0,4.662
63.0,29.0,4.663
77.0,-68.0,4.664
104.0,-109.0,4.665
102.0,-64.0,4.666
70.0,-14.0,4.667
44.0,-17.0,4.668
18.0,-29.0,4.669
-35.0,-9.0,4.67
-106.0,18.0,4.671
-146.0,17.0,4.672
-136.0,9.0,4.673
-92.0,23.0,4.674
-38.0,42.0,4.675
15.0,39.0,4.676
58.0,25.0,4.677
74.0,16.0,4.678
65.0,14.0,4.679
40.0,4.0,4.68
17.0,-11.0,4.681
-5.0,-13.0,4.682
-17.0,-10.0,4.683
-20.0,-9.0,4.684
-31.0,-7.0,4.685
-57.0,8.0,4.686
-80.0,22.0,4.687
-72.0,18.0,4.688
-46.0,4.0,4.689
-40.0,-1.0,4.69
-59.0,6.0,4.691
-59.0,22.0,4.692
-23.0,31.0,4.693
20.0,25.0,4.694
37.0,0.0,4.695
24.0,-28.0,4.696
-4.0,-38.0,4.697
-48.0,-24.0,4.698
-83.0,0.0,4.699
-74.0,13.0,4.7
-9.0,4.0,4.701
64.0,-22.0,4.702
106.0,-46.0,4.703
121.0,-51.0,4.704
128.0,-31.0,4.705
112.0,-2.0,4.706
59.0,17.0,4.707
-3.0,24.0,4.708
-29.0,18.0,4.709
-15.0,8.0,4.71
7.0,3.0,4.711
30.0,12.0,4.712
70.0,25.0,4.713
128.0,24.0,4.714
160.0,4.0,4.715
128.0,-21.0,4.716
56.0,-41.0,4.717
-12.0,-52.0,4.718
-49.0,-44.0,4.719
-72.0,-18.0,4.72
-95.0,6.0,4.721
-97.0,23.0,4.722
-62.0,35.0,4.723
-10.0,56.0,4.724
17.0,75.0,4.725
6.0,65.0,4.726
-17.0,13.0,4.727
-30.0,-61.0,4.728
-35.0,-110.0,4.729
-39.0,-104.0,4.73
-41.0,-55.0,4.731
-40.0,-8.0,4.732
-45.0,8.0,4.733
-67.0,2.0,4.734
-109.0,-1.0,4.735
-154.0,0.0,4.736
-172.0,0.0,4.737
-137.0,0.0,4.738
-47.0,8.0,4.739
64.0,19.0,4.74
162.0,15.0,4.741
235.0,11.0,4.742
272.0,26.0,4.743
252.0,47.0,4.744
173.0,57.0,4.745
82.0,57.0,4.746
33.0,57.0,4.747
21.0,42.0,4.748
-2.0,-4.0,4.749
-52.0,-57.0,4.75
-89.0,-72.0,4.751
-87.0,-47.0,4.752
-68.0,-23.0,4.753
-59.0,-20.0,4.754
-58.0,-13.0,4.755
-47.0,14.0,4.756
-34.0,38.0,4.757
-34.0,35.0,4.758
-41.0,13.0,4.759
-40.0,-3.0,4.76
-31.0,-13.0,4.761
-20.0,-21.0,4.762
0.0,-30.0,4.763
25.0,-32.0,4.764
37.0,-26.0,4.765
22.0,-16.0,4.766
-4.0,-4.0,4.767
-23.0,9.0,4.768
-38.0,25.0,4.769
-54.0,40.0,4.77
-54.0,34.0,4.771
-26.0,1.0,4.772
21.0,-34.0,4.773
58.0,-42.0,4.774
70.0,-20.0,4.775
64.0,5.0,4.776
45.0,20.0,4.777
4.0,18.0,4.778
-40.0,4.0,4.779
-58.0,-9.0,4.78
-35.0,-25.0,4.781
3.0,-32.0,4.782
31.0,-12.0,4.783
51.0,5.0,4.784
78.0,15.0,4.785
103.0,28.0,4.786
106.0,45.0,4.787
92.0,55.0,4.788
71.0,39.0,4.789
41.0,27.0,4.79
-12.0,30.0,4.791
-75.0,34.0,4.792
-117.0,41.0,4.793
-128.0,35.0,4.794
-117.0,-10.0,4.795
-87.0,-47.0,4.796
-35.0,-57.0,4.797
19.0,-60.0,4.798
54.0,-40.0,4.799
83.0,-30.0,4.8
93.0,-17.0,4.801
92.0,3.0,4.802
56.0,10.0,4.803
28.0,-4.0,4.804
26.0,-13.0,4.805
39.0,-5.0,4.806
97.0,9.0,4.807
122.0,29.0,4.808
42.0,84.0,4.809
-31.0,162.0,4.81
-79.0,177.0,4.811
-115.0,58.0,4.812
-119.0,-139.0,4.813
-112.0,-266.0,4.814
-72.0,-246.0,4.815
-34.0,-143.0,4.816
0.0,-61.0,4.817
33.0,-23.0,4.818
63.0,7.0,4.819
88.0,41.0,4.82
96.0,55.0,4.821
83.0,48.0,4.822
63.0,43.0,4.823
41.0,53.0,4.824
9.0,69.0,4.825
-34.0,73.0,4.826
-84.0,56.0,4.827
-124.0,19.0,4.828
-146.0,-27.0,4.829
-144.0,-62.0,4.83
-120.0,-72.0,4.831
-96.0,-69.0,4.832
-83.0,-61.0,4.833
-55.0,-47.0,4.834
12.0,-28.0,4.835
85.0,-10.0,4.836
99.0,4.0,4.837
44.0,18.0,4.838
-2.0,32.0,4.839
31.0,38.0,4.84
107.0,35.0,4.841
138.0,37.0,4.842
106.0,41.0,4.843
68.0,36.0,4.844
65.0,29.0,4.845
84.0,32.0,4.846
94.0,41.0,4.847
80.0,25.0,4.848
44.0,-14.0,4.849
14.0,-44.0,4.85
18.0,-44.0,4.851
37.0,-28.0,4.852
15.0,-12.0,4.853
-67.0,6.0,4.854
-147.0,30.0,4.855
-157.0,39.0,4.856
-104.0,22.0,4.857
-36.0,-5.0,4.858
7.0,-5.0,4.859
6.0,26.0,4.86
-32.0,44.0,4.861
-74.0,19.0,4.862
-74.0,-32.0,4.863
-37.0,-61.0,4.864
-11.0,-48.0,4.865
-22.0,-18.0,4.866
-55.0,-1.0,4.867
-94.0,5.0,4.868
-120.0,8.0,4.869
-104.0,5.0,4.87
-30.0,-7.0,4.871
66.0,-20.0,4.872
137.0,-23.0,4.873
180.0,-21.0,4.874
197.0,-14.0,4.875
150.0,0.0,4.876
37.0,16.0,4.877
-70.0,15.0,4.878
-86.0,0.0,4.879
-86.0,-2.0,4.88
-40.0,18.0,4.881
9.0,38.0,4.882
69.0,30.0,4.883
120.0,3.0,4.884
140.0,-13.0,4.885
147.0,-11.0,4.886
116.0,-10.0,4.887
66.0,-18.0,4.888
-38.0,-20.0,4.889
-119.0,-11.0,4.89
-128.0,-6.0,4.891
-116.0,-14.0,4.892
-38.0,-25.0,4.893
40.0,-26.0,4.894
120.0,-15.0,4.895
189.0,2.0,4.896
229.0,13.0,4.897
226.0,17.0,4.898
58.0,6.0,4.899
-89.0,-10.0,4.9
-128.0,-19.0,4.901
-107.0,-10.0,4.902
-75.0,4.0,4.903
-35.0,9.0,4.904
0.0,2.0,4.905
2.0,-7.0,4.906
-25.0,-6.0,4.907
-50.0,9.0,4.908
-76.0,32.0,4.909
-110.0,44.0,4.91
-137.0,31.0,4.911
-140.0,0.0,4.912
-139.0,-23.0,4.913
-147.0,-17.0,4.914
-130.0,17.0,4.915
-65.0,72.0,4.916
14.0,117.0,4.917
109.0,113.0,4.918
187.0,42.0,4.919
204.0,-49.0,4.92
119.0,-88.0,4.921
-10.0,-64.0,4.922
-61.0,-48.0,4.923
-21.0,-78.0,4.924
26.0,-100.0,4.925
53.0,-74.0,4.926
107.0,-33.0,4.927
167.0,-13.0,4.928
136.0,-5.0,4.929
6.0,21.0,4.93
-99.0,39.0,4.931
-95.0,25.0,4.932
-26.0,-5.0,4.933
34.0,-19.0,4.934
74.0,-18.0,4.935
94.0,-14.0,4.936
76.0,5.0,4.937
21.0,47.0,4.938
-18.0,78.0,4.939
-17.0,65.0,4.94
-10.0,16.0,4.941
-30.0,-25.0,4.942
-57.0,-47.0,4.943
-64.0,-57.0,4.944
-49.0,-57.0,4.945
-19.0,-42.0,4.946
11.0,-19.0,4.947
15.0,-2.0,4.948
-21.0,16.0,4.949
-63.0,38.0,4.95
-69.0,46.0,4.951
-41.0,28.0,4.952
-10.0,0.0,4.953
17.0,-6.0,4.954
46.0,9.0,4.955
68.0,20.0,4.956
72.0,20.0,4.957
66.0,18.0,4.958
49.0,18.0,4.959
-9.0,8.0,4.96
-110.0,-13.0,4.961
-199.0,-22.0,4.962
-213.0,-11.0,4.963
-148.0,6.0,4.964
-53.0,18.0,4.965
21.0,25.0,4.966
71.0,34.0,4.967
125.0,38.0,4.968
192.0,31.0,4.969
224.0,20.0,4.97
167.0,11.0,4.971
51.0,-2.0,4.972
-30.0,-18.0,4.973
-51.0,-33.0,4.974
-90.0,-35.0,4.975
-182.0,-24.0,4.976
-232.0,-11.0,4.977
-156.0,-2.0,4.978
0.0,1.0,4.979
125.0,2.0,4.98
191.0,1.0,4.981
232.0,3.0,4.982
237.0,-1.0,4.983
179.0,-14.0,4.984
102.0,-26.0,4.985
55.0,-27.0,4.986
10.0,-17.0,4.987
-71.0,-11.0,4.988
-143.0,-11.0,4.989
-148.0,-17.0,4.99
-121.0,-23.0,4.991
-118.0,-22.0,4.992
-103.0,-8.0,4.993
-15.0,10.0,4.994
107.0,13.0,4.995
163.0,-4.0,4.996
133.0,-16.0,4.997
49.0,-8.0,4.998
-29.0,16.0,4.999
-76.0,38.0,5.0
-82.0,61.0,5.001
-67.0,108.0,5.002
-52.0,148.0,5.003
-26.0,121.0,5.004
22.0,12.0,5.005
59.0,-103.0,5.006
53.0,-152.0,5.007
28.0,-141.0,5.008
26.0,-120.0,5.009
27.0,-99.0,5.01
-21.0,-52.0,5.011
-102.0,6.0,5.012
-157.0,36.0,5.013
-169.0,22.0,5.014
-159.0,2.0,5.015
-115.0,-3.0,5.016
-23.0,-1.0,5.017
100.0,-10.0,5.018
187.0,-13.0,5.019
191.0,1.0,5.02
133.0,21.0,5.021
74.0,34.0,5.022
77.0,32.0,5.023
132.0,23.0,5.024
154.0,18.0,5.025
92.0,22.0,5.026
18.0,25.0,5.027
16.0,11.0,5.028
35.0,-15.0,5.029
-27.0,-22.0,5.03
-143.0,9.0,5.031
-184.0,52.0,5.032
-124.0,59.0,5.033
-63.0,20.0,5.034
-49.0,-23.0,5.035
-29.0,-33.0,5.036
21.0,-15.0,5.037
61.0,-2.0,5.038
67.0,-5.0,5.039
69.0,-8.0,5.04
86.0,-4.0,5.041
78.0,4.0,5.042
11.0,0.0,5.043
-107.0,-6.0,5.044
-238.0,-3.0,5.045
-310.0,7.0,5.046
-264.0,2.0,5.047
-119.0,-19.0,5.048
28.0,-48.0,5.049
139.0,-69.0,5.05
243.0,-59.0,5.051
316.0,2.0,5.052
251.0,92.0,5.053
50.0,134.0,5.054
-123.0,81.0,5.055
-139.0,-6.0,5.056
-68.0,-43.0,5.057
-26.0,-25.0,5.058
-14.0,-11.0,5.059
29.0,-31.0,5.06
76.0,-42.0,5.061
62.0,-13.0,5.062
10.0,19.0,5.063
-25.0,24.0,5.064
-61.0,14.0,5.065
-123.0,9.0,5.066
-148.0,2.0,5.067
-87.0,-12.0,5.068
-14.0,-18.0,5.069
-4.0,-11.0,5.07
24.0,0.0,5.071
170.0,10.0,5.072
346.0,20.0,5.073
367.0,18.0,5.074
211.0,-1.0,5.075
21.0,-22.0,5.076
-101.0,-27.0,5.077
-182.0,-26.0,5.078
-210.0,-26.0,5.079
-146.0,-24.0,5.08
-20.0,-12.0,5.081
72.0,10.0,5.082
94.0,25.0,5.083
87.0,36.0,5.084
59.0,53.0,5.085
-16.0,56.0,5.086
-99.0,19.0,5.087
-110.0,-44.0,5.088
-64.0,-86.0,5.089
-40.0,-77.0,5.09
-41.0,-38.0,5.091
5.0,-9.0,5.092
89.0,-3.0,5.093
120.0,-9.0,5.094
63.0,-14.0,5.095
0.0,-14.0,5.096
-13.0,-7.0,5.097
-12.0,1.0,5.098
-32.0,7.0,5.099
-55.0,0.0,5.1
-57.0,-16.0,5.101
-62.0,-20.0,5.102
-86.0,-11.0,5.103
-93.0,9.0,5.104
-59.0,54.0,5.105
-11.0,133.0,5.106
19.0,206.0,5.107
35.0,182.0,5.108
40.0,34.0,5.109
18.0,-138.0,5.11
-18.0,-212.0,5.111
-26.0,-173.0,5.112
-11.0,-98.0,5.113
-22.0,-36.0,5.114
-64.0,26.0,5.115
-77.0,77.0,5.116
-34.0,76.0,5.117
10.0,35.0,5.118
-2.0,17.0,5.119
-38.0,7.0,5.12
-18.0,21.0,5.121
55.0,27.0,5.122
104.0,1.0,5.123
98.0,-15.0,5.124
101.0,-4.0,5.125
174.0,1.0,5.126
252.0,-12.0,5.127
202.0,-22.0,5.128
25.0,-20.0,5.129
-108.0,-18.0,5.13
-82.0,-19.0,5.131
10.0,-15.0,5.132
38.0,10.0,5.133
42.0,33.0,5.134
122.0,50.0,5.135
207.0,56.0,5.136
172.0,23.0,5.137
62.0,-6.0,5.138
25.0,-6.0,5.139
-16.0,7.0,5.14
-69.0,-1.0,5.141
-123.0,-24.0,5.142
-175.0,-35.0,5.143
-206.0,-19.0,5.144
-172.0,2.0,5.145
-149.0,20.0,5.146
-165.0,32.0,5.147
-178.0,26.0,5.148
-182.0,-4.0,5.149
-160.0,-37.0,5.15
-55.0,-46.0,5.151
59.0,-29.0,5.152
199.0,-6.0,5.153
291.0,11.0,5.154
237.0,12.0,5.155
170.0,-5.0,5.156
67.0,-26.0,5.157
-33.0,-33.0,5.158
-79.0,-24.0,5.159
-31.0,-12.0,5.16
41.0,-10.0,5.161
44.0,-4.0,5.162
0.0,5.0,5.163
-8.0,1.0,5.164
6.0,-14.0,5.165
-45.0,-24.0,5.166
-143.0,-23.0,5.167
-151.0,-23.0,5.168
-25.0,-21.0,5.169
113.0,-1.0,5.17
142.0,33.0,5.171
96.0,56.0,5.172
67.0,59.0,5.173
68.0,55.0,5.174
60.0,51.0,5.175
41.0,38.0,5.176
42.0,16.0,5.177
51.0,-2.0,5.178
32.0,-5.0,5.179
-33.0,2.0,5.18
-112.0,-3.0,5.181
-166.0,-18.0,5.182
-167.0,-32.0,5.183
-113.0,-30.0,5.184
-37.0,-16.0,5.185
7.0,-3.0,5.186
0.0,1.0,5.187
-23.0,-1.0,5.188
-28.0,-8.0,5.189
-18.0,-17.0,5.19
-6.0,-25.0,5.191
29.0,-25.0,5.192
111.0,-16.0,5.193
189.0,-2.0,5.194
170.0,18.0,5.195
43.0,46.0,5.196
-78.0,78.0,5.197
-119.0,97.0,5.198
-110.0,77.0,5.199
-129.0,10.0,5.2
-149.0,-69.0,5.201
-92.0,-102.0,5.202
33.0,-72.0,5.203
124.0,-13.0,5.204
130.0,20.0,5.205
100.0,3.0,5.206
69.0,-40.0,5.207
43.0,-76.0,5.208
35.0,-83.0,5.209
61.0,-57.0,5.21
78.0,-6.0,5.211
32.0,58.0,5.212
-52.0,99.0,5.213
-86.0,70.0,5.214
-55.0,-26.0,5.215
-26.0,-106.0,5.216
-52.0,-92.0,5.217
-99.0,-15.0,5.218
-92.0,27.0,5.219
-19.0,-3.0,5.22
72.0,-18.0,5.221
130.0,50.0,5.222
135.0,124.0,5.223
94.0,98.0,5.224
23.0,-4.0,5.225
-42.0,-78.0,5.226
-61.0,-81.0,5.227
-42.0,-57.0,5.228
-48.0,-32.0,5.229
-122.0,4.0,5.23
-208.0,38.0,5.231
-195.0,32.0,5.232
-50.0,3.0,5.233
128.0,3.0,5.234
222.0,32.0,5.235
218.0,42.0,5.236
189.0,21.0,5.237
173.0,-2.0,5.238
139.0,-7.0,5.239
57.0,-10.0,5.24
-29.0,-25.0,5.241
-75.0,-28.0,5.242
-107.0,-3.0,5.243
-175.0,35.0,5.244
-232.0,64.0,5.245
-188.0,75.0,5.246
-43.0,64.0,5.247
93.0,39.0,5.248
158.0,14.0,5.249
185.0,-3.0,5.25
214.0,-26.0,5.251
210.0,-54.0,5.252
139.0,-71.0,5.253
38.0,-65.0,5.254
-37.0,-51.0,5.255
-78.0,-44.0,5.256
-110.0,-34.0,5.257
-153.0,-13.0,5.258
-189.0,9.0,5.259
-203.0,13.0,5.26
-166.0,-5.0,5.261
-58.0,-20.0,5.262
100.0,-16.0,5.263
235.0,-6.0,5.264
269.0,-5.0,5.265
189.0,-14.0,5.266
56.0,-17.0,5.267
-43.0,-3.0,5.268
-65.0,25.0,5.269
-40.0,58.0,5.27
-33.0,91.0,5.271
-64.0,103.0,5.272
-96.0,75.0,5.273
-95.0,18.0,5.274
-73.0,-24.0,5.275
-56.0,-21.0,5.276
-43.0,5.0,5.277
-23.0,17.0,5.278
-7.0,15.0,5.279
-21.0,19.0,5.28
-59.0,21.0,5.281
-93.0,10.0,5.282
-123.0,-10.0,5.283
-163.0,-17.0,5.284
-197.0,-8.0,5.285
-165.0,0.0,5.286
-48.0,-5.0,5.287
102.0,-15.0,5.288
233.0,-16.0,5.289
330.0,-8.0,5.29
370.0,-7.0,5.291
316.0,-22.0,5.292
200.0,-42.0,5.293
116.0,-55.0,5.294
89.0,-63.0,5.295
46.0,-71.0,5.296
-37.0,-74.0,5.297
-109.0,-60.0,5.298
-107.0,-30.0,5.299
-70.0,-6.0,5.3
-58.0,-2.0,5.301
-58.0,-2.0,5.302
-29.0,2.0,5.303
6.0,10.0,5.304
3.0,16.0,5.305
-34.0,22.0,5.306
-57.0,26.0,5.307
-44.0,16.0,5.308
-14.0,7.0,5.309
9.0,22.0,5.31
8.0,68.0,5.311
-16.0,114.0,5.312
-41.0,121.0,5.313
-53.0,78.0,5.314
-59.0,6.0,5.315
-67.0,-57.0,5.316
-60.0,-91.0,5.317
-21.0,-95.0,5.318
30.0,-78.0,5.319
52.0,-53.0,5.32
43.0,-42.0,5.321
19.0,-43.0,5.322
-10.0,-41.0,5.323
-33.0,-14.0,5.324
-34.0,39.0,5.325
-8.0,91.0,5.326
16.0,107.0,5.327
-1.0,82.0,5.328
-45.0,44.0,5.329
-56.0,24.0,5.33
-5.0,15.0,5.331
75.0,-6.0,5.332
126.0,-40.0,5.333
108.0,-49.0,5.334
37.0,-18.0,5.335
-36.0,4.0,5.336
-73.0,-26.0,5.337
-69.0,-88.0,5.338
-39.0,-100.0,5.339
-10.0,-40.0,5.34
4.0,19.0,5.341
4.0,24.0,5.342
4.0,1.0,5.343
21.0,-6.0,5.344
56.0,2.0,5.345
86.0,2.0,5.346
88.0,-4.0,5.347
70.0,-5.0,5.348
55.0,-8.0,5.349
37.0,-16.0,5.35
-10.0,-12.0,5.351
-77.0,14.0,5.352
-102.0,35.0,5.353
-62.0,26.0,5.354
0.0,3.0,5.355
44.0,1.0,5.356
74.0,26.0,5.357
96.0,55.0,5.358
81.0,58.0,5.359
27.0,37.0,5.36
5.0,21.0,5.361
55.0,35.0,5.362
114.0,54.0,5.363
89.0,44.0,5.364
-15.0,8.0,5.365
-105.0,-20.0,5.366
-119.0,-27.0,5.367
-74.0,-26.0,5.368
-19.0,-26.0,5.369
13.0,-29.0,5.37
11.0,-30.0,5.371
-14.0,-32.0,5.372
-34.0,-35.0,5.373
-38.0,-40.0,5.374
-38.0,-46.0,5.375
-49.0,-48.0,5.376
-48.0,-36.0,5.377
3.0,-11.0,5.378
102.0,22.0,5.379
181.0,58.0,5.38
160.0,88.0,5.381
39.0,91.0,5.382
-84.0,52.0,5.383
-110.0,0.0,5.384
-57.0,-22.0,5.385
-21.0,-16.0,5.386
-41.0,-17.0,5.387
-58.0,-37.0,5.388
-28.0,-46.0,5.389
-3.0,-37.0,5.39
-27.0,-29.0,5.391
-72.0,-24.0,5.392
-102.0,-8.0,5.393
-136.0,10.0,5.394
-176.0,6.0,5.395
-157.0,-13.0,5.396
-46.0,-12.0,5.397
100.0,11.0,5.398
193.0,19.0,5.399
209.0,-15.0,5.4
172.0,-53.0,5.401
93.0,-54.0,5.402
3.0,-21.0,5.403
-30.0,24.0,5.404
20.0,79.0,5.405
81.0,132.0,5.406
74.0,140.0,5.407
16.0,96.0,5.408
-23.0,51.0,5.409
-26.0,45.0,5.41
-21.0,50.0,5.411
-27.0,24.0,5.412
-46.0,-14.0,5.413
-81.0,-28.0,5.414
-122.0,-29.0,5.415
-129.0,-56.0,5.416
-78.0,-95.0,5.417
9.0,-124.0,5.418
60.0,-137.0,5.419
25.0,-154.0,5.42
-59.0,-167.0,5.421
-95.0,-142.0,5.422
-7.0,-85.0,5.423
173.0,-35.0,5.424
316.0,-9.0,5.425
316.0,8.0,5.426
188.0,29.0,5.427
44.0,43.0,5.428
-18.0,54.0,5.429
-3.0,81.0,5.43
11.0,120.0,5.431
-21.0,145.0,5.432
-64.0,125.0,5.433
-66.0,65.0,5.434
-43.0,-1.0,5.435
-42.0,-46.0,5.436
-57.0,-63.0,5.437
-57.0,-69.0,5.438
-40.0,-62.0,5.439
-38.0,-44.0,5.44
-49.0,-33.0,5.441
-43.0,-47.0,5.442
-22.0,-73.0,5.443
-24.0,-66.0,5.444
-66.0,-10.0,5.445
-113.0,58.0,5.446
-115.0,86.0,5.447
-57.0,72.0,5.448
37.0,46.0,5.449
120.0,38.0,5.45
143.0,50.0,5.451
90.0,50.0,5.452
2.0,20.0,5.453
-52.0,-20.0,5.454
-39.0,-22.0,5.455
5.0,30.0,5.456
29.0,91.0,5.457
29.0,102.0,5.458
49.0,61.0,5.459
94.0,23.0,5.46
109.0,-4.0,5.461
67.0,-21.0,5.462
9.0,-7.0,5.463
-16.0,-2.0,5.464
-31.0,-29.0,5.465
-78.0,-49.0,5.466
-137.0,-47.0,5.467
-155.0,-45.0,5.468
-121.0,-46.0,5.469
-51.0,-32.0,5.47
44.0,28.0,5.471
144.0,71.0,5.472
201.0,61.0,5.473
192.0,42.0,5.474
159.0,-4.0,5.475
135.0,-37.0,5.476
98.0,-24.0,5.477
19.0,-10.0,5.478
-46.0,-5.0,5.479
-90.0,-11.0,5.48
-68.0,-26.0,5.481
-55.0,-30.0,5.482
-71.0,-23.0,5.483
-93.0,-20.0,5.484
-135.0,-28.0,5.485
-157.0,-46.0,5.486
-118.0,-70.0,5.487
-53.0,-97.0,5.488
90.0,-106.0,5.489
191.0,-73.0,5.49
165.0,8.0,5.491
127.0,101.0,5.492
56.0,162.0,5.493
-6.0,160.0,5.494
-46.0,100.0,5.495
-68.0,33.0,5.496
-34.0,9.0,5.497
-5.0,18.0,5.498
2.0,13.0,5.499
8.0,-18.0,5.5
1.0,-40.0,5.501
-31.0,-27.0,5.502
-64.0,-11.0,5.503
-72.0,-13.0,5.504
-88.0,-17.0,5.505
-147.0,-9.0,5.506
-220.0,-7.0,5.507
-239.0,-18.0,5.508
-162.0,-23.0,5.509
-8.0,-11.0,5.51
169.0,-6.0,5.511
324.0,-17.0,5.512
414.0,-23.0,5.513
390.0,-18.0,5.514
223.0,-19.0,5.515
-1.0,-33.0,5.516
-103.0,-42.0,5.517
-48.0,-40.0,5.518
14.0,-37.0,5.519
40.0,-30.0,5.52
-45.0,-7.0,5.521
-96.0,33.0,5.522
-39.0,67.0,5.523
-4.0,77.0,5.524
-37.0,63.0,5.525
-56.0,28.0,5.526
-34.0,-10.0,5.527
-23.0,-19.0,5.528
-47.0,4.0,5.529
-61.0,25.0,5.53
-47.0,10.0,5.531
-46.0,-16.0,5.532
-89.0,-20.0,5.533
-122.0,-2.0,5.534
-122.0,5.0,5.535
-112.0,-7.0,5.536
-72.0,-23.0,5.537
-15.0,-43.0,5.538
95.0,-74.0,5.539
159.0,-103.0,5.54
159.0,-100.0,5.541
144.0,-48.0,5.542
142.0,28.0,5.543
138.0,88.0,5.544
114.0,127.0,5.545
74.0,171.0,5.546
31.0,221.0,5.547
-4.0,240.0,5.548
-7.0,171.0,5.549
17.0,30.0,5.55
18.0,-102.0,5.551
-36.0,-161.0,5.552
-105.0,-163.0,5.553
-122.0,-155.0,5.554
-77.0,-141.0,5.555
-26.0,-104.0,5.556
-28.0,-56.0,5.557
133.0,37.0,5.558
44.0,24.0,5.559
-30.0,13.0,5.56
-57.0,9.0,5.561
-71.0,4.0,5.562
-33.0,-1.0,5.563
-3.0,-3.0,5.564
1.0,4.0,5.565
0.0,9.0,5.566
-24.0,-1.0,5.567
-58.0,-11.0,5.568
-121.0,-17.0,5.569
-177.0,-21.0,5.57
-208.0,-9.0,5.571
-211.0,-1.0,5.572
-122.0,-5.0,5.573
-13.0,-9.0,5.574
145.0,-9.0,5.575
269.0,-4.0,5.576
287.0,9.0,5.577
97.0,32.0,5.578
30.0,21.0,5.579
-25.0,11.0,5.58
-46.0,8.0,5.581
-56.0,4.0,5.582
-27.0,-1.0,5.583
-6.0,-3.0,5.584
-2.0,4.0,5.585
-3.0,8.0,5.586
-21.0,-1.0,5.587
-47.0,-10.0,5.588
-94.0,-15.0,5.589
-136.0,-18.0,5.59
-160.0,-8.0,5.591
-162.0,-1.0,5.592
-95.0,-5.0,5.593
-13.0,-8.0,5.594
106.0,-8.0,5.595
200.0,-4.0,5.596
213.0,8.0,5.597
84.0,21.0,5.598
25.0,30.0,5.599
-24.0,25.0,5.6
-42.0,12.0,5.601
-51.0,7.0,5.602
-26.0,4.0,5.603
-6.0,-4.0,5.604
-3.0,-15.0,5.605
-4.0,-30.0,5.606
-20.0,-56.0,5.607
-43.0,-100.0,5.608
-84.0,-151.0,5.609
-121.0,-178.0,5.61
-142.0,-149.0,5.611
-144.0,-49.0,5.612
-85.0,105.0,5.613
-13.0,254.0,5.614
92.0,313.0,5.615
174.0,251.0,5.616
186.0,146.0,5.617
181.0,74.0,5.618
118.0,62.0,5.619
59.0,51.0,5.62
15.0,6.0,5.621
-1.0,-29.0,5.622
4.0,-19.0,5.623
-13.0,4.0,5.624
-86.0,-1.0,5.625
-171.0,-19.0,5.626
-171.0,-25.0,5.627
-54.0,-27.0,5.628
110.0,-46.0,5.629
204.0,-70.0,5.63
146.0,-79.0,5.631
-29.0,-77.0,5.632
-149.0,-83.0,5.633
-40.0,-88.0,5.634
225.0,-81.0,5.635
362.0,-72.0,5.636
240.0,-70.0,5.637
8.0,-74.0,5.638
-91.0,-72.0,5.639
-63.0,-67.0,5.64
-62.0,-53.0,5.641
-107.0,-19.0,5.642
-99.0,19.0,5.643
-46.0,35.0,5.644
-45.0,30.0,5.645
-86.0,34.0,5.646
-81.0,54.0,5.647
-38.0,63.0,5.648
-32.0,42.0,5.649
-55.0,18.0,5.65
-43.0,16.0,5.651
-11.0,25.0,5.652
-13.0,18.0,5.653
-36.0,2.0,5.654
-39.0,-1.0,5.655
-42.0,9.0,5.656
-75.0,16.0,5.657
-104.0,12.0,5.658
-80.0,7.0,5.659
-16.0,6.0,5.66
46.0,2.0,5.661
104.0,0.0,5.662
160.0,-1.0,5.663
174.0,1.0,5.664
130.0,4.0,5.665
72.0,6.0,5.666
37.0,7.0,5.667
17.0,7.0,5.668
-3.0,9.0,5.669
-2.0,13.0,5.67
16.0,14.0,5.671
11.0,5.0,5.672
-25.0,-3.0,5.673
-54.0,-4.0,5.674
-55.0,1.0,5.675
-48.0,5.0,5.676
-30.0,7.0,5.677
12.0,5.0,5.678
62.0,4.0,5.679
70.0,-4.0,5.68
35.0,-18.0,5.681
2.0,-28.0,5.682
-4.0,-28.0,5.683
-3.0,-24.0,5.684
-4.0,-17.0,5.685
0.0,1.0,5.686
7.0,25.0,5.687
0.0,33.0,5.688
-10.0,9.0,5.689
-5.0,-34.0,5.69
3.0,-67.0,5.691
0.0,-57.0,5.692
-6.0,1.0,5.693
-1.0,73.0,5.694
6.0,90.0,5.695
-1.0,37.0,5.696
-8.0,-13.0,5.697
-8.0,7.0,5.698
-10.0,84.0,5.699
-36.0,116.0,5.7
-75.0,59.0,5.701
-97.0,-16.0,5.702
-74.0,-37.0,5.703
-6.0,-23.0,5.704
84.0,-36.0,5.705
143.0,-83.0,5.706
115.0,-123.0,5.707
8.0,-133.0,5.708
-109.0,-109.0,5.709
-167.0,-40.0,5.71
-139.0,69.0,5.711
-41.0,166.0,5.712
81.0,192.0,5.713
162.0,150.0,5.714
144.0,82.0,5.715
45.0,21.0,5.716
-21.0,-19.0,5.717
38.0,-36.0,5.718
194.0,-25.0,5.719
283.0,-18.0,5.72
181.0,-35.0,5.721
-49.0,-45.0,5.722
-221.0,-29.0,5.723
-262.0,-14.0,5.724
-268.0,-21.0,5.725
-322.0,-30.0,5.726
-329.0,-20.0,5.727
-136.0,-12.0,5.728
236.0,-22.0,5.729
591.0,-34.0,5.73
733.0,-30.0,5.731
573.0,-27.0,5.732
197.0,-35.0,5.733
-144.0,-44.0,5.734
-220.0,-44.0,5.735
-98.0,-43.0,5.736
-42.0,-46.0,5.737
-139.0,-42.0,5.738
-199.0,-28.0,5.739
-115.0,-16.0,5.74
-40.0,-13.0,5.741
-95.0,-8.0,5.742
-146.0,5.0,5.743
-84.0,18.0,5.744
-24.0,30.0,5.745
-66.0,46.0,5.746
-107.0,57.0,5.747
-55.0,49.0,5.748
-2.0,33.0,5.749
-29.0,23.0,5.75
-57.0,16.0,5.751
-18.0,0.0,5.752
16.0,-22.0,5.753
-6.0,-28.0,5.754
-21.0,-18.0,5.755
8.0,-10.0,5.756
29.0,-10.0,5.757
9.0,-16.0,5.758
-11.0,-18.0,5.759
3.0,-19.0,5.76
16.0,-16.0,5.761
-3.0,-4.0,5.762
-6.0,7.0,5.763
25.0,10.0,5.764
38.0,8.0,5.765
14.0,13.0,5.766
1.0,17.0,5.767
23.0,14.0,5.768
34.0,11.0,5.769
18.0,15.0,5.77
14.0,18.0,5.771
29.0,13.0,5.772
32.0,10.0,5.773
18.0,16.0,5.774
16.0,21.0,5.775
28.0,14.0,5.776
30.0,7.0,5.777
15.0,5.0,5.778
14.0,7.0,5.779
19.0,2.0,5.78
10.0,-7.0,5.781
-1.0,-8.0,5.782
9.0,-1.0,5.783
23.0,5.0,5.784
19.0,8.0,5.785
3.0,12.0,5.786
3.0,12.0,5.787
13.0,5.0,5.788
13.0,-5.0,5.789
6.0,-8.0,5.79
7.0,-6.0,5.791
8.0,-6.0,5.792
3.0,-8.0,5.793
-2.0,-2.0,5.794
1.0,8.0,5.795
9.0,10.0,5.796
11.0,10.0,5.797
11.0,12.0,5.798
13.0,17.0,5.799
6.0,11.0,5.8
-3.0,-2.0,5.801
-4.0,-6.0,5.802
5.0,-5.0,5.803
10.0,-13.0,5.804
-3.0,-22.0,5.805
-19.0,-16.0,5.806
-20.0,-4.0,5.807
-12.0,-8.0,5.808
-6.0,-24.0,5.809
-3.0,-23.0,5.81
1.0,1.0,5.811
-3.0,16.0,5.812
-28.0,12.0,5.813
-63.0,1.0,5.814
-69.0,-10.0,5.815
-25.0,-22.0,5.816
45.0,-30.0,5.817
110.0,-24.0,5.818
132.0,-8.0,5.819
96.0,3.0,5.82
27.0,9.0,5.821
-22.0,28.0,5.822
-19.0,40.0,5.823
13.0,25.0,5.824
21.0,-1.0,5.825
-15.0,-3.0,5.826
-65.0,10.0,5.827
-93.0,10.0,5.828
-91.0,-5.0,5.829
-60.0,-10.0,5.83
-5.0,-2.0,5.831
46.0,-4.0,5.832
61.0,-14.0,5.833
44.0,-12.0,5.834
28.0,4.0,5.835
20.0,9.0,5.836
19.0,-1.0,5.837
26.0,-16.0,5.838
72.0,-17.0,5.839
132.0,-12.0,5.84
129.0,-11.0,5.841
26.0,-7.0,5.842
-100.0,-4.0,5.843
-142.0,-3.0,5.844
-94.0,-6.0,5.845
-39.0,-10.0,5.846
-27.0,-10.0,5.847
-30.0,-8.0,5.848
-14.0,-3.0,5.849
2.0,5.0,5.85
-4.0,7.0,5.851
-30.0,5.0,5.852
-56.0,7.0,5.853
-65.0,10.0,5.854
-42.0,7.0,5.855
12.0,-3.0,5.856
63.0,-7.0,5.857
75.0,-9.0,5.858
40.0,-13.0,5.859
-12.0,-21.0,5.86
-38.0,-22.0,5.861
-16.0,-8.0,5.862
37.0,7.0,5.863
74.0,18.0,5.864
61.0,30.0,5.865
21.0,35.0,5.866
0.0,23.0,5.867
7.0,0.0,5.868
9.0,-5.0,5.869
-4.0,9.0,5.87
-9.0,22.0,5.871
7.0,15.0,5.872
26.0,0.0,5.873
36.0,-7.0,5.874
39.0,-7.0,5.875
28.0,-6.0,5.876
-4.0,-6.0,5.877
-37.0,-1.0,5.878
-22.0,5.0,5.879
47.0,0.0,5.88
119.0,-14.0,5.881
128.0,-21.0,5.882
49.0,-17.0,5.883
-87.0,-14.0,5.884
-206.0,-16.0,5.885
-223.0,-16.0,5.886
-129.0,-10.0,5.887
-26.0,-3.0,5.888
-9.0,1.0,5.889
-45.0,3.0,5.89
-38.0,6.0,5.891
15.0,7.0,5.892
34.0,6.0,5.893
0.0,2.0,5.894
-19.0,-4.0,5.895
14.0,-11.0,5.896
53.0,-8.0,5.897
64.0,0.0,5.898
62.0,9.0,5.899
63.0,9.0,5.9
49.0,-1.0,5.901
14.0,-4.0,5.902
-6.0,-2.0,5.903
3.0,6.0,5.904
18.0,18.0,5.905
23.0,21.0,5.906
26.0,9.0,5.907
25.0,-4.0,5.908
17.0,-5.0,5.909
10.0,6.0,5.91
18.0,6.0,5.911
28.0,-8.0,5.912
23.0,-14.0,5.913
9.0,-3.0,5.914
1.0,5.0,5.915
2.0,-3.0,5.916
6.0,-13.0,5.917
10.0,-13.0,5.918
9.0,-9.0,5.919
-8.0,-9.0,5.92
-29.0,-16.0,5.921
-24.0,-13.0,5.922
8.0,1.0,5.923
32.0,23.0,5.924
25.0,44.0,5.925
7.0,49.0,5.926
0.0,28.0,5.927
3.0,-2.0,5.928
4.0,-12.0,5.929
6.0,-3.0,5.93
8.0,1.0,5.931
-1.0,-7.0,5.932
-19.0,-14.0,5.933
-31.0,-13.0,5.934
-34.0,-16.0,5.935
-41.0,-28.0,5.936
-52.0,-29.0,5.937
-54.0,-15.0,5.938
-35.0,-2.0,5.939
-9.0,7.0,5.94
13.0,12.0,5.941
29.0,21.0,5.942
51.0,25.0,5.943
79.0,23.0,5.944
104.0,21.0,5.945
111.0,19.0,5.946
89.0,11.0,5.947
40.0,0.0,5.948
-3.0,-7.0,5.949
-11.0,-15.0,5.95
-1.0,-23.0,5.951
-6.0,-24.0,5.952
-32.0,-14.0,5.953
-50.0,-1.0,5.954
-55.0,7.0,5.955
-66.0,6.0,5.956
-94.0,4.0,5.957
-134.0,-4.0,5.958
-145.0,-12.0,5.959
-102.0,-18.0,5.96
11.0,-20.0,5.961
166.0,-19.0,5.962
262.0,-17.0,5.963
227.0,-12.0,5.964
103.0,-3.0,5.965
10.0,5.0,5.966
-5.0,2.0,5.967
2.0,-4.0,5.968
-24.0,-1.0,5.969
-58.0,12.0,5.97
-51.0,26.0,5.971
-17.0,24.0,5.972
-3.0,8.0,5.973
-16.0,-6.0,5.974
-27.0,-11.0,5.975
-33.0,-8.0,5.976
-43.0,-2.0,5.977
-48.0,1.0,5.978
-32.0,0.0,5.979
-15.0,-1.0,5.98
-25.0,-5.0,5.981
-44.0,-7.0,5.982
-37.0,-8.0,5.983
-16.0,-7.0,5.984
-12.0,0.0,5.985
-18.0,9.0,5.986
-4.0,10.0,5.987
21.0,4.0,5.988
32.0,-3.0,5.989
30.0,-10.0,5.99
40.0,-16.0,5.991
50.0,-17.0,5.992
33.0,-7.0,5.993
0.0,7.0,5.994
-15.0,11.0,5.995
-8.0,5.0,5.996
2.0,0.0,5.997
9.0,-1.0,5.998
9.0,-1.0,5.999
8.0,0.0,6.0
6.0,0.0,6.001
4.0,2.0,6.002
0.0,-5.0,6.003
-3.0,-15.0,6.004
-4.0,-16.0,6.005
-2.0,0.0,6.006
9.0,13.0,6.007
18.0,14.0,6.008
24.0,12.0,6.009
27.0,16.0,6.01
22.0,15.0,6.011
17.0,3.0,6.012
11.0,-5.0,6.013
8.0,6.0,6.014
7.0,24.0,6.015
7.0,27.0,6.016
8.0,15.0,6.017
9.0,2.0,6.018
6.0,0.0,6.019
2.0,-4.0,6.02
-2.0,-12.0,6.021
-10.0,-18.0,6.022
-25.0,-18.0,6.023
-36.0,-18.0,6.024
-39.0,-23.0,6.025
-31.0,-27.0,6.026
9.0,-27.0,6.027
43.0,-22.0,6.028
64.0,0.0,6.029
76.0,19.0,6.03
58.0,29.0,6.031
39.0,35.0,6.032
18.0,24.0,6.033
3.0,11.0,6.034
1.0,-6.0,6.035
0.0,-18.0,6.036
3.0,-11.0,6.037
9.0,-2.0,6.038
1.0,2.0,6.039
-8.0,0.0,6.04
-20.0,5.0,6.041
-38.0,15.0,6.042
-74.0,12.0,6.043
-102.0,-1.0,6.044
-108.0,-3.0,6.045
-89.0,4.0,6.046
7.0,1.0,6.047
92.0,-9.0,6.048
144.0,-12.0,6.049
172.0,-4.0,6.05
129.0,-2.0,6.051
83.0,-11.0,6.052
32.0,-15.0,6.053
-7.0,-8.0,6.054
-12.0,-2.0,6.055
-14.0,2.0,6.056
-6.0,8.0,6.057
0.0,9.0,6.058
-25.0,0.0,6.059
-68.0,-13.0,6.06
-79.0,-18.0,6.061
-44.0,-10.0,6.062
-11.0,-1.0,6.063
-19.0,2.0,6.064
-37.0,3.0,6.065
-22.0,6.0,6.066
8.0,7.0,6.067
12.0,4.0,6.068
-6.0,3.0,6.069
-10.0,5.0,6.07
4.0,6.0,6.071
13.0,6.0,6.072
10.0,1.0,6.073
8.0,-6.0,6.074
8.0,-11.0,6.075
0.0,-10.0,6.076
-10.0,-6.0,6.077
-12.0,-8.0,6.078
-1.0,-11.0,6.079
14.0,-11.0,6.08
24.0,-8.0,6.081
28.0,1.0,6.082
23.0,9.0,6.083
12.0,11.0,6.084
-1.0,9.0,6.085
-12.0,5.0,6.086
-23.0,1.0,6.087
-24.0,0.0,6.088
-12.0,2.0,6.089
6.0,2.0,6.09
13.0,0.0,6.091
9.0,-3.0,6.092
6.0,-6.0,6.093
12.0,-5.0,6.094
13.0,-2.0,6.095
11.0,-2.0,6.096
16.0,0.0,6.097
28.0,1.0,6.098
40.0,6.0,6.099
37.0,9.0,6.1
23.0,6.0,6.101
9.0,2.0,6.102
-3.0,-4.0,6.103
-9.0,-9.0,6.104
-12.0,-6.0,6.105
-19.0,0.0,6.106
-31.0,2.0,6.107
-39.0,-3.0,6.108
-35.0,-8.0,6.109
-21.0,-6.0,6.11
-7.0,-3.0,6.111
5.0,-5.0,6.112
17.0,-10.0,6.113
25.0,-12.0,6.114
26.0,-7.0,6.115
21.0,3.0,6.116
19.0,11.0,6.117
14.0,11.0,6.118
3.0,3.0,6.119
-9.0,-5.0,6.12
-9.0,-9.0,6.121
5.0,-6.0,6.122
19.0,-3.0,6.123
23.0,-5.0,6.124
24.0,-5.0,6.125
25.0,-2.0,6.126
20.0,-1.0,6.127
9.0,-6.0,6.128
-5.0,-10.0,6.129
-10.0,-7.0,6.13
-7.0,-2.0,6.131
-7.0,0.0,6.132
-17.0,0.0,6.133
-25.0,7.0,6.134
-17.0,14.0,6.135
2.0,12.0,6.136
15.0,6.0,6.137
10.0,1.0,6.138
0.0,4.0,6.139
-3.0,8.0,6.14
-4.0,4.0,6.141
-6.0,-1.0,6.142
0.0,-3.0,6.143
12.0,-2.0,6.144
19.0,0.0,6.145
14.0,0.0,6.146
13.0,-4.0,6.147
21.0,-6.0,6.148
26.0,-6.0,6.149
9.0,-6.0,6.15
-18.0,-7.0,6.151
-29.0,-7.0,6.152
-18.0,-1.0,6.153
-3.0,6.0,6.154
0.0,7.0,6.155
-3.0,2.0,6.156
-4.0,0.0,6.157
-8.0,-2.0,6.158
-19.0,-5.0,6.159
-30.0,-11.0,6.16
-26.0,-13.0,6.161
-8.0,-8.0,6.162
8.0,-3.0,6.163
13.0,-6.0,6.164
7.0,-12.0,6.165
2.0,-11.0,6.166
5.0,-6.0,6.167
11.0,-4.0,6.168
9.0,-2.0,6.169
-2.0,5.0,6.17
-11.0,15.0,6.171
-7.0,19.0,6.172
5.0,20.0,6.173
17.0,18.0,6.174
28.0,12.0,6.175
36.0,7.0,6.176
39.0,6.0,6.177
33.0,10.0,6.178
23.0,7.0,6.179
12.0,-6.0,6.18
0.0,-18.0,6.181
-10.0,-11.0,6.182
-14.0,-1.0,6.183
-8.0,0.0,6.184
-5.0,-3.0,6.185
-16.0,-1.0,6.186
-41.0,1.0,6.187
-65.0,-3.0,6.188
-72.0,-8.0,6.189
-48.0,-6.0,6.19
4.0,-2.0,6.191
59.0,-3.0,6.192
99.0,-5.0,6.193
114.0,-3.0,6.194
102.0,-1.0,6.195
63.0,-5.0,6.196
18.0,-6.0,6.197
-12.0,-3.0,6.198
-19.0,-2.0,6.199
-27.0,-8.0,6.2
-41.0,-16.0,6.201
-41.0,-12.0,6.202
-25.0,-3.0,6.203
-22.0,2.0,6.204
-34.0,6.0,6.205
-31.0,10.0,6.206
-4.0,10.0,6.207
17.0,6.0,6.208
12.0,3.0,6.209
0.0,2.0,6.21
4.0,1.0,6.211
16.0,-3.0,6.212
17.0,-5.0,6.213
12.0,0.0,6.214
13.0,3.0,6.215
14.0,0.0,6.216
12.0,-3.0,6.217
15.0,-5.0,6.218
21.0,-5.0,6.219
16.0,-6.0,6.22
-3.0,-6.0,6.221
-13.0,0.0,6.222
-2.0,9.0,6.223
11.0,9.0,6.224
2.0,3.0,6.225
-22.0,-3.0,6.226
-33.0,-5.0,6.227
-19.0,0.0,6.228
4.0,3.0,6.229
14.0,4.0,6.23
7.0,4.0,6.231
-2.0,7.0,6.232
0.0,8.0,6.233
5.0,5.0,6.234
10.0,0.0,6.235
12.0,-2.0,6.236
17.0,0.0,6.237
21.0,-2.0,6.238
24.0,-8.0,6.239
19.0,-17.0,6.24
8.0,-26.0,6.241
-10.0,-24.0,6.242
-21.0,-17.0,6.243
-9.0,-9.0,6.244
22.0,-1.0,6.245
47.0,6.0,6.246
49.0,9.0,6.247
35.0,2.0,6.248
16.0,-6.0,6.249
-9.0,-7.0,6.25
-47.0,3.0,6.251
-80.0,14.0,6.252
-77.0,13.0,6.253
-41.0,8.0,6.254
-13.0,5.0,6.255
-11.0,12.0,6.256
-24.0,22.0,6.257
-29.0,26.0,6.258
-21.0,19.0,6.259
-12.0,6.0,6.26
-7.0,-6.0,6.261
-3.0,-7.0,6.262
-17.0,-2.0,6.263
-74.0,-3.0,6.264
-153.0,-4.0,6.265
-177.0,-3.0,6.266
-97.0,-3.0,6.267
41.0,-8.0,6.268
155.0,-16.0,6.269
218.0,-15.0,6.27
249.0,-10.0,6.271
244.0,-8.0,6.272
183.0,-11.0,6.273
100.0,-12.0,6.274
55.0,-8.0,6.275
50.0,-3.0,6.276
40.0,-3.0,6.277
9.0,-6.0,6.278
-9.0,-8.0,6.279
-13.0,-11.0,6.28
-29.0,-15.0,6.281
-50.0,-11.0,6.282
-41.0,-1.0,6.283
-20.0,9.0,6.284
-25.0,16.0,6.285
-46.0,18.0,6.286
-44.0,15.0,6.287
-24.0,10.0,6.288
-25.0,7.0,6.289
-42.0,7.0,6.29
-39.0,4.0,6.291
-21.0,1.0,6.292
-13.0,0.0,6.293
-18.0,0.0,6.294
-16.0,-3.0,6.295
-9.0,-5.0,6.296
-14.0,-4.0,6.297
-28.0,0.0,6.298
-37.0,-1.0,6.299
-42.0,-7.0,6.3
-44.0,-11.0,6.301
-28.0,-7.0,6.302
18.0,-2.0,6.303
67.0,-3.0,6.304
79.0,-6.0,6.305
47.0,-6.0,6.306
-1.0,-4.0,6.307
-34.0,-5.0,6.308
-39.0,-7.0,6.309
-15.0,-2.0,6.31
9.0,8.0,6.311
11.0,20.0,6.312
-1.0,28.0,6.313
0.0,30.0,6.314
20.0,30.0,6.315
33.0,24.0,6.316
27.0,17.0,6.317
15.0,9.0,6.318
11.0,2.0,6.319
7.0,-6.0,6.32
-5.0,-22.0,6.321
-20.0,-39.0,6.322
-26.0,-49.0,6.323
-26.0,-48.0,6.324
-22.0,-33.0,6.325
0.0,-19.0,6.326
52.0,-14.0,6.327
114.0,-17.0,6.328
148.0,-14.0,6.329
126.0,-2.0,6.33
53.0,9.0,6.331
-40.0,13.0,6.332
-115.0,12.0,6.333
-147.0,10.0,6.334
-136.0,6.0,6.335
-103.0,0.0,6.336
-61.0,-3.0,6.337
-17.0,-5.0,6.338
10.0,-3.0,6.339
12.0,-1.0,6.34
6.0,1.0,6.341
17.0,5.0,6.342
31.0,11.0,6.343
15.0,17.0,6.344
-33.0,17.0,6.345
-71.0,15.0,6.346
-70.0,7.0,6.347
-39.0,0.0,6.348
4.0,0.0,6.349
65.0,0.0,6.35
127.0,1.0,6.351
146.0,3.0,6.352
94.0,3.0,6.353
9.0,2.0,6.354
-27.0,0.0,6.355
13.0,-1.0,6.356
78.0,0.0,6.357
91.0,1.0,6.358
53.0,-1.0,6.359
18.0,-6.0,6.36
-4.0,-11.0,6.361
-27.0,-11.0,6.362
-47.0,-6.0,6.363
-57.0,1.0,6.364
-35.0,6.0,6.365
-12.0,10.0,6.366
16.0,5.0,6.367
36.0,-3.0,6.368
28.0,-7.0,6.369
19.0,-7.0,6.37
7.0,-10.0,6.371
-9.0,-17.0,6.372
-38.0,-20.0,6.373
-61.0,-13.0,6.374
-66.0,-2.0,6.375
-65.0,5.0,6.376
-42.0,6.0,6.377
-13.0,0.0,6.378
38.0,0.0,6.379
82.0,5.0,6.38
94.0,14.0,6.381
75.0,18.0,6.382
52.0,9.0,6.383
53.0,-2.0,6.384
61.0,-1.0,6.385
42.0,9.0,6.386
0.0,11.0,6.387
-25.0,0.0,6.388
-24.0,-11.0,6.389
-26.0,-16.0,6.39
-54.0,-16.0,6.391
-83.0,-15.0,6.392
-84.0,-9.0,6.393
-70.0,2.0,6.394
-64.0,10.0,6.395
-50.0,13.0,6.396
-15.0,17.0,6.397
28.0,13.0,6.398
55.0,1.0,6.399
67.0,-7.0,6.4
78.0,-3.0,6.401
75.0,8.0,6.402
44.0,12.0,6.403
1.0,7.0,6.404
-24.0,3.0,6.405
-36.0,5.0,6.406
-42.0,2.0,6.407
-27.0,-5.0,6.408
7.0,-7.0,6.409
28.0,-5.0,6.41
8.0,-7.0,6.411
-20.0,-14.0,6.412
-22.0,-16.0,6.413
-10.0,-13.0,6.414
-3.0,-13.0,6.415
10.0,-15.0,6.416
34.0,-12.0,6.417
40.0,-7.0,6.418
19.0,-7.0,6.419
14.0,-11.0,6.42
53.0,-12.0,6.421
79.0,-3.0,6.422
44.0,4.0,6.423
-5.0,2.0,6.424
3.0,-1.0,6.425
35.0,-3.0,6.426
21.0,-6.0,6.427
-27.0,-11.0,6.428
-45.0,-12.0,6.429
-25.0,-9.0,6.43
-10.0,-6.0,6.431
-13.0,1.0,6.432
-4.0,14.0,6.433
7.0,24.0,6.434
-6.0,12.0,6.435
-28.0,-11.0,6.436
-30.0,-23.0,6.437
-18.0,-13.0,6.438
-27.0,4.0,6.439
-64.0,12.0,6.44
-85.0,7.0,6.441
-65.0,1.0,6.442
-24.0,-2.0,6.443
5.0,2.0,6.444
13.0,13.0,6.445
17.0,23.0,6.446
41.0,20.0,6.447
67.0,9.0,6.448
55.0,4.0,6.449
-3.0,13.0,6.45
-56.0,21.0,6.451
-65.0,15.0,6.452
-37.0,2.0,6.453
14.0,0.0,6.454
67.0,2.0,6.455
84.0,-5.0,6.456
49.0,-18.0,6.457
6.0,-15.0,6.458
36.0,10.0,6.459
116.0,29.0,6.46
140.0,26.0,6.461
73.0,20.0,6.462
8.0,2.0,6.463
17.0,-12.0,6.464
47.0,-17.0,6.465
26.0,-22.0,6.466
-23.0,-30.0,6.467
-36.0,-35.0,6.468
-20.0,-33.0,6.469
-23.0,-25.0,6.47
-57.0,-2.0,6.471
-89.0,17.0,6.472
-96.0,27.0,6.473
-90.0,36.0,6.474
-80.0,41.0,6.475
-57.0,42.0,6.476
-12.0,26.0,6.477
43.0,7.0,6.478
75.0,-11.0,6.479
82.0,-19.0,6.48
14.0,-23.0,6.481
-46.0,-22.0,6.482
-83.0,-23.0,6.483
-107.0,-24.0,6.484
-89.0,-16.0,6.485
-66.0,2.0,6.486
-29.0,18.0,6.487
6.0,22.0,6.488
38.0,13.0,6.489
76.0,4.0,6.49
134.0,-3.0,6.491
176.0,-11.0,6.492
163.0,-18.0,6.493
144.0,-23.0,6.494
107.0,-22.0,6.495
59.0,-24.0,6.496
-20.0,-22.0,6.497
-89.0,-15.0,6.498
-106.0,-7.0,6.499
-108.0,-5.0,6.5
-105.0,-9.0,6.501
-65.0,-6.0,6.502
21.0,5.0,6.503
103.0,10.0,6.504
146.0,6.0,6.505
146.0,0.0,6.506
103.0,-1.0,6.507
17.0,1.0,6.508
-68.0,2.0,6.509
-105.0,-1.0,6.51
-107.0,-8.0,6.511
-123.0,-15.0,6.512
-141.0,-18.0,6.513
-106.0,-10.0,6.514
-28.0,7.0,6.515
22.0,27.0,6.516
18.0,39.0,6.517
0.0,36.0,6.518
3.0,27.0,6.519
7.0,21.0,6.52
-7.0,18.0,6.521
-15.0,18.0,6.522
3.0,16.0,6.523
28.0,14.0,6.524
35.0,15.0,6.525
37.0,14.0,6.526
57.0,10.0,6.527
85.0,1.0,6.528
96.0,-11.0,6.529
82.0,-28.0,6.53
52.0,-39.0,6.531
9.0,-36.0,6.532
-51.0,-24.0,6.533
-104.0,-17.0,6.534
-108.0,-21.0,6.535
-60.0,-33.0,6.536
-14.0,-44.0,6.537
-9.0,-50.0,6.538
-20.0,-45.0,6.539
-6.0,-31.0,6.54
26.0,-24.0,6.541
31.0,-22.0,6.542
6.0,-17.0,6.543
-5.0,-6.0,6.544
15.0,-2.0,6.545
44.0,-6.0,6.546
50.0,-10.0,6.547
35.0,-8.0,6.548
13.0,-1.0,6.549
-11.0,4.0,6.55
-25.0,12.0,6.551
-19.0,24.0,6.552
-7.0,43.0,6.553
-7.0,64.0,6.554
-16.0,78.0,6.555
-17.0,75.0,6.556
-8.0,55.0,6.557
19.0,34.0,6.558
40.0,37.0,6.559
62.0,53.0,6.56
89.0,55.0,6.561
108.0,36.0,6.562
106.0,7.0,6.563
89.0,-13.0,6.564
26.0,-24.0,6.565
-20.0,-42.0,6.566
-18.0,-70.0,6.567
-37.0,-91.0,6.568
-121.0,-81.0,6.569
-173.0,-49.0,6.57
-130.0,-24.0,6.571
-86.0,-15.0,6.572
-39.0,-8.0,6.573
8.0,6.0,6.574
58.0,8.0,6.575
91.0,-11.0,6.576
70.0,-27.0,6.577
25.0,-24.0,6.578
56.0,-6.0,6.579
89.0,9.0,6.58
128.0,14.0,6.581
157.0,18.0,6.582
154.0,9.0,6.583
128.0,-7.0,6.584
35.0,-6.0,6.585
-34.0,24.0,6.586
-30.0,52.0,6.587
-58.0,40.0,6.588
-182.0,1.0,6.589
-259.0,-13.0,6.59
-195.0,8.0,6.591
-130.0,37.0,6.592
-61.0,42.0,6.593
9.0,31.0,6.594
83.0,28.0,6.595
131.0,35.0,6.596
100.0,35.0,6.597
66.0,13.0,6.598
26.0,-15.0,6.599
-1.0,-18.0,6.6
-15.0,2.0,6.601
-13.0,19.0,6.602
-20.0,6.0,6.603
-39.0,-11.0,6.604
-42.0,1.0,6.605
-42.0,32.0,6.606
-99.0,40.0,6.607
-189.0,18.0,6.608
-182.0,-9.0,6.609
-24.0,-31.0,6.61
172.0,-64.0,6.611
273.0,-101.0,6.612
282.0,-112.0,6.613
261.0,-90.0,6.614
208.0,-70.0,6.615
75.0,-71.0,6.616
-110.0,-66.0,6.617
-287.0,-33.0,6.618
-334.0,19.0,6.619
-212.0,58.0,6.62
-40.0,59.0,6.621
12.0,29.0,6.622
-33.0,-10.0,6.623
1.0,-21.0,6.624
144.0,0.0,6.625
201.0,18.0,6.626
88.0,9.0,6.627
-7.0,-12.0,6.628
68.0,-16.0,6.629
164.0,-12.0,6.63
96.0,-26.0,6.631
-40.0,-43.0,6.632
-32.0,-21.0,6.633
110.0,47.0,6.634
185.0,108.0,6.635
99.0,111.0,6.636
-28.0,70.0,6.637
-77.0,23.0,6.638
-35.0,-3.0,6.639
-1.0,-13.0,6.64
-37.0,-26.0,6.641
-85.0,-24.0,6.642
-41.0,-1.0,6.643
59.0,31.0,6.644
54.0,47.0,6.645
-126.0,34.0,6.646
-314.0,3.0,6.647
-316.0,-28.0,6.648
-160.0,-42.0,6.649
-25.0,-31.0,6.65
6.0,-7.0,6.651
4.0,6.0,6.652
22.0,-4.0,6.653
33.0,-20.0,6.654
21.0,-16.0,6.655
5.0,5.0,6.656
-7.0,25.0,6.657
-43.0,37.0,6.658
-86.0,51.0,6.659
-93.0,70.0,6.66
-63.0,68.0,6.661
-46.0,35.0,6.662
-45.0,-10.0,6.663
6.0,-30.0,6.664
139.0,-8.0,6.665
281.0,29.0,6.666
303.0,39.0,6.667
155.0,6.0,6.668
-77.0,-36.0,6.669
-243.0,-57.0,6.67
-271.0,-50.0,6.671
-235.0,-29.0,6.672
-225.0,-2.0,6.673
-200.0,30.0,6.674
-35.0,44.0,6.675
264.0,15.0,6.676
510.0,-37.0,6.677
580.0,-83.0,6.678
521.0,-95.0,6.679
445.0,-99.0,6.68
338.0,-112.0,6.681
114.0,-113.0,6.682
-153.0,-81.0,6.683
-263.0,-32.0,6.684
-176.0,-3.0,6.685
-54.0,9.0,6.686
-11.0,28.0,6.687
4.0,52.0,6.688
39.0,58.0,6.689
26.0,41.0,6.69
-75.0,25.0,6.691
-167.0,22.0,6.692
-149.0,28.0,6.693
-90.0,34.0,6.694
-131.0,39.0,6.695
-288.0,35.0,6.696
-421.0,23.0,6.697
-430.0,9.0,6.698
-318.0,10.0,6.699
-156.0,22.0,6.7
38.0,25.0,6.701
281.0,21.0,6.702
488.0,16.0,6.703
499.0,7.0,6.704
286.0,-14.0,6.705
47.0,-41.0,6.706
-13.0,-60.0,6.707
64.0,-60.0,6.708
89.0,-52.0,6.709
8.0,-51.0,6.71
-68.0,-58.0,6.711
-82.0,-56.0,6.712
-102.0,-22.0,6.713
-174.0,37.0,6.714
-216.0,85.0,6.715
-152.0,91.0,6.716
-18.0,64.0,6.717
109.0,23.0,6.718
158.0,-2.0,6.719
86.0,0.0,6.72
-99.0,18.0,6.721
-306.0,26.0,6.722
-376.0,3.0,6.723
-229.0,-25.0,6.724
19.0,-24.0,6.725
175.0,-1.0,6.726
187.0,7.0,6.727
185.0,-3.0,6.728
247.0,3.0,6.729
264.0,30.0,6.73
112.0,46.0,6.731
-103.0,37.0,6.732
-151.0,28.0,6.733
20.0,31.0,6.734
230.0,36.0,6.735
306.0,24.0,6.736
260.0,-7.0,6.737
168.0,-57.0,6.738
82.0,-103.0,6.739
11.0,-105.0,6.74
-48.0,-57.0,6.741
-124.0,10.0,6.742
-232.0,47.0,6.743
-308.0,43.0,6.744
-270.0,23.0,6.745
-128.0,0.0,6.746
13.0,-18.0,6.747
92.0,-20.0,6.748
134.0,-6.0,6.749
158.0,0.0,6.75
116.0,-12.0,6.751
-7.0,-28.0,6.752
-135.0,-30.0,6.753
-178.0,-25.0,6.754
-162.0,-25.0,6.755
-162.0,-20.0,6.756
-171.0,-6.0,6.757
-120.0,6.0,6.758
-4.0,7.0,6.759
82.0,6.0,6.76
105.0,8.0,6.761
158.0,11.0,6.762
284.0,7.0,6.763
363.0,7.0,6.764
286.0,19.0,6.765
127.0,26.0,6.766
28.0,13.0,6.767
-7.0,0.0,6.768
-59.0,11.0,6.769
-126.0,31.0,6.77
-144.0,26.0,6.771
-131.0,-1.0,6.772
-154.0,-16.0,6.773
-186.0,-6.0,6.774
-138.0,12.0,6.775
-31.0,16.0,6.776
25.0,9.0,6.777
4.0,-5.0,6.778
0.0,-16.0,6.779
70.0,-21.0,6.78
137.0,-16.0,6.781
112.0,-5.0,6.782
30.0,-2.0,6.783
-23.0,-6.0,6.784
-38.0,-6.0,6.785
-58.0,-4.0,6.786
-68.0,-9.0,6.787
-18.0,-18.0,6.788
61.0,-15.0,6.789
77.0,-2.0,6.79
21.0,1.0,6.791
-13.0,-11.0,6.792
10.0,-25.0,6.793
29.0,-23.0,6.794
-4.0,-7.0,6.795
-35.0,8.0,6.796
-31.0,11.0,6.797
-33.0,3.0,6.798
-65.0,-6.0,6.799
-79.0,-6.0,6.8
-54.0,-1.0,6.801
-46.0,7.0,6.802
-74.0,3.0,6.803
-61.0,-10.0,6.804
21.0,-27.0,6.805
89.0,-40.0,6.806
84.0,-41.0,6.807
73.0,-17.0,6.808
111.0,35.0,6.809
123.0,88.0,6.81
41.0,99.0,6.811
-54.0,62.0,6.812
-59.0,13.0,6.813
-4.0,-4.0,6.814
20.0,2.0,6.815
30.0,3.0,6.816
72.0,-9.0,6.817
115.0,-24.0,6.818
79.0,-26.0,6.819
-10.0,-19.0,6.82
-53.0,-12.0,6.821
-28.0,-1.0,6.822
-6.0,8.0,6.823
-24.0,5.0,6.824
-68.0,-3.0,6.825
-128.0,-7.0,6.826
-187.0,-11.0,6.827
-175.0,-22.0,6.828
-40.0,-36.0,6.829
141.0,-41.0,6.83
229.0,-38.0,6.831
187.0,-30.0,6.832
103.0,-5.0,6.833
48.0,37.0,6.834
15.0,66.0,6.835
1.0,45.0,6.836
28.0,-5.0,6.837
81.0,-33.0,6.838
101.0,-9.0,6.839
61.0,32.0,6.84
2.0,42.0,6.841
-38.0,26.0,6.842
-71.0,10.0,6.843
-102.0,4.0,6.844
-113.0,-1.0,6.845
-105.0,-3.0,6.846
-96.0,6.0,6.847
-83.0,14.0,6.848
-56.0,6.0,6.849
-42.0,-8.0,6.85
-71.0,-12.0,6.851
-105.0,-14.0,6.852
-84.0,-27.0,6.853
-9.0,-41.0,6.854
59.0,-42.0,6.855
90.0,-34.0,6.856
116.0,-22.0,6.857
141.0,0.0,6.858
149.0,42.0,6.859
146.0,75.0,6.86
109.0,59.0,6.861
53.0,11.0,6.862
-60.0,-16.0,6.863
-142.0,2.0,6.864
-132.0,35.0,6.865
-98.0,34.0,6.866
6.0,0.0,6.867
92.0,-28.0,6.868
124.0,-28.0,6.869
158.0,-18.0,6.87
196.0,-31.0,6.871
206.0,-63.0,6.872
131.0,-87.0,6.873
52.0,-89.0,6.874
-37.0,-72.0,6.875
-100.0,-28.0,6.876
-80.0,37.0,6.877
-71.0,100.0,6.878
-107.0,115.0,6.879
-98.0,74.0,6.88
-32.0,27.0,6.881
-18.0,15.0,6.882
-71.0,31.0,6.883
-62.0,38.0,6.884
40.0,31.0,6.885
85.0,17.0,6.886
-3.0,-3.0,6.887
-88.0,-28.0,6.888
-71.0,-44.0,6.889
-55.0,-42.0,6.89
-120.0,-35.0,6.891
-164.0,-38.0,6.892
-108.0,-43.0,6.893
-47.0,-39.0,6.894
-64.0,-28.0,6.895
-78.0,-24.0,6.896
-16.0,-33.0,6.897
86.0,-60.0,6.898
123.0,-84.0,6.899
125.0,-77.0,6.9
109.0,-21.0,6.901
60.0,75.0,6.902
22.0,166.0,6.903
49.0,202.0,6.904
78.0,156.0,6.905
24.0,57.0,6.906
-62.0,-24.0,6.907
-76.0,-35.0,6.908
-57.0,-4.0,6.909
-106.0,3.0,6.91
-189.0,-36.0,6.911
-194.0,-82.0,6.912
-112.0,-99.0,6.913
-6.0,-94.0,6.914
131.0,-81.0,6.915
301.0,-53.0,6.916
384.0,-8.0,6.917
282.0,45.0,6.918
83.0,88.0,6.919
-31.0,101.0,6.92
-14.0,61.0,6.921
47.0,-14.0,6.922
104.0,-60.0,6.923
147.0,-24.0,6.924
128.0,55.0,6.925
24.0,80.0,6.926
-89.0,20.0,6.927
-117.0,-49.0,6.928
-83.0,-50.0,6.929
-77.0,7.0,6.93
-137.0,60.0,6.931
-218.0,69.0,6.932
-254.0,43.0,6.933
-216.0,11.0,6.934
-136.0,-15.0,6.935
-65.0,-32.0,6.936
3.0,-45.0,6.937
128.0,-61.0,6.938
257.0,-63.0,6.939
243.0,-48.0,6.94
69.0,-42.0,6.941
-76.0,-61.0,6.942
-74.0,-83.0,6.943
-33.0,-70.0,6.944
-54.0,-24.0,6.945
-42.0,23.0,6.946
78.0,56.0,6.947
169.0,71.0,6.948
109.0,57.0,6.949
21.0,11.0,6.95
61.0,-31.0,6.951
157.0,-20.0,6.952
149.0,38.0,6.953
51.0,84.0,6.954
-7.0,78.0,6.955
-20.0,39.0,6.956
-54.0,12.0,6.957
-90.0,0.0,6.958
-50.0,-17.0,6.959
11.0,-59.0,6.96
-43.0,-108.0,6.961
-202.0,-115.0,6.962
-303.0,-58.0,6.963
-259.0,45.0,6.964
-135.0,146.0,6.965
-8.0,184.0,6.966
113.0,129.0,6.967
216.0,18.0,6.968
260.0,-55.0,6.969
258.0,-36.0,6.97
255.0,17.0,6.971
246.0,14.0,6.972
184.0,-44.0,6.973
59.0,-88.0,6.974
-88.0,-92.0,6.975
-201.0,-93.0,6.976
-230.0,-96.0,6.977
-174.0,-56.0,6.978
-103.0,42.0,6.979
-93.0,130.0,6.98
-125.0,134.0,6.981
-126.0,71.0,6.982
-94.0,9.0,6.983
-57.0,-14.0,6.984
10.0,-14.0,6.985
99.0,-24.0,6.986
97.0,-55.0,6.987
-59.0,-93.0,6.988
-217.0,-117.0,6.989
-186.0,-109.0,6.99
-9.0,-65.0,6.991
103.0,4.0,6.992
59.0,71.0,6.993
-41.0,99.0,6.994
-80.0,72.0,6.995
-28.0,22.0,6.996
80.0,-4.0,6.997
211.0,14.0,6.998
297.0,52.0,6.999
291.0,75.0,7.0
212.0,47.0,7.001
126.0,25.0,7.002
81.0,19.0,7.003
73.0,15.0,7.004
44.0,16.0,7.005
-68.0,9.0,7.006
-239.0,-25.0,7.007
-345.0,-53.0,7.008
-297.0,-60.0,7.009
-141.0,-67.0,7.01
0.0,-75.0,7.011
77.0,-73.0,7.012
115.0,-43.0,7.013
114.0,-11.0,7.014
49.0,22.0,7.015
-39.0,46.0,7.016
-47.0,39.0,7.017
33.0,25.0,7.018
105.0,5.0,7.019
152.0,24.0,7.02
126.0,48.0,7.021
100.0,28.0,7.022
71.0,-22.0,7.023
37.0,-46.0,7.024
-11.0,-37.0,7.025
-42.0,-38.0,7.026
-16.0,-62.0,7.027
-1.0,-70.0,7.028
-19.0,-45.0,7.029
-45.0,-20.0,7.03
-93.0,-8.0,7.031
-124.0,19.0,7.032
-106.0,56.0,7.033
-65.0,50.0,7.034
45.0,2.0,7.035
96.0,-14.0,7.036
-37.0,32.0,7.037
-171.0,82.0,7.038
-227.0,59.0,7.039
-140.0,1.0,7.04
-11.0,-7.0,7.041
55.0,36.0,7.042
59.0,59.0,7.043
57.0,41.0,7.044
44.0,31.0,7.045
-17.0,51.0,7.046
-92.0,56.0,7.047
-79.0,13.0,7.048
35.0,-44.0,7.049
149.0,-79.0,7.05
161.0,-95.0,7.051
72.0,-111.0,7.052
-60.0,-108.0,7.053
-163.0,-46.0,7.054
-158.0,57.0,7.055
-19.0,129.0,7.056
157.0,122.0,7.057
223.0,54.0,7.058
93.0,-4.0,7.059
-120.0,-17.0,7.06
-200.0,-19.0,7.061
-51.0,-28.0,7.062
193.0,-30.0,7.063
328.0,-13.0,7.064
283.0,-8.0,7.065
160.0,-42.0,7.066
73.0,-86.0,7.067
47.0,-94.0,7.068
36.0,-58.0,7.069
-6.0,-5.0,7.07
-94.0,49.0,7.071
-188.0,83.0,7.072
-214.0,69.0,7.073
-134.0,7.0,7.074
7.0,-58.0,7.075
132.0,-82.0,7.076
171.0,-63.0,7.077
80.0,-9.0,7.078
-92.0,67.0,7.079
-191.0,121.0,7.08
-123.0,96.0,7.081
-2.0,11.0,7.082
13.0,-52.0,7.083
-50.0,-50.0,7.084
-65.0,-27.0,7.085
-33.0,-36.0,7.086
-52.0,-64.0,7.087
-106.0,-58.0,7.088
-88.0,0.0,7.089
-14.0,80.0,7.09
16.0,129.0,7.091
-5.0,109.0,7.092
-2.0,35.0,7.093
10.0,-26.0,7.094
-39.0,-28.0,7.095
-105.0,-1.0,7.096
-65.0,7.0,7.097
104.0,-6.0,7.098
268.0,-8.0,7.099
302.0,-13.0,7.1
230.0,-25.0,7.101
132.0,-37.0,7.102
48.0,-49.0,7.103
-5.0,-51.0,7.104
-1.0,-21.0,7.105
36.0,10.0,7.106
31.0,47.0,7.107
-52.0,64.0,7.108
-151.0,18.0,7.109
-173.0,-14.0,7.11
-105.0,-4.0,7.111
-30.0,-1.0,7.112
-36.0,-22.0,7.113
-108.0,-39.0,7.114
-140.0,-41.0,7.115
-65.0,-40.0,7.116
48.0,-30.0,7.117
79.0,-21.0,7.118
-8.0,-17.0,7.119
-122.0,-8.0,7.12
-159.0,23.0,7.121
-99.0,88.0,7.122
7.0,134.0,7.123
112.0,92.0,7.124
184.0,-4.0,7.125
226.0,-45.0,7.126
238.0,-1.0,7.127
197.0,35.0,7.128
98.0,8.0,7.129
-1.0,-32.0,7.13
-23.0,-29.0,7.131
7.0,-11.0,7.132
2.0,-19.0,7.133
-31.0,-29.0,7.134
-8.0,-19.0,7.135
74.0,-22.0,7.136
110.0,-52.0,7.137
30.0,-78.0,7.138
-101.0,-67.0,7.139
-186.0,-51.0,7.14
-186.0,-55.0,7.141
-112.0,-48.0,7.142
-10.0,-7.0,7.143
42.0,61.0,7.144
5.0,137.0,7.145
-55.0,179.0,7.146
-50.0,144.0,7.147
-3.0,43.0,7.148
4.0,-22.0,7.149
-21.0,1.0,7.15
-17.0,44.0,7.151
15.0,21.0,7.152
18.0,-38.0,7.153
-7.0,-45.0,7.154
-8.0,-7.0,7.155
1.0,1.0,7.156
-29.0,-17.0,7.157
-100.0,-20.0,7.158
-125.0,-1.0,7.159
-55.0,-1.0,7.16
49.0,-22.0,7.161
102.0,-24.0,7.162
103.0,-12.0,7.163
111.0,-19.0,7.164
143.0,-40.0,7.165
150.0,-40.0,7.166
92.0,-29.0,7.167
14.0,-32.0,7.168
-14.0,-36.0,7.169
-7.0,-18.0,7.17
-37.0,0.0,7.171
-102.0,-12.0,7.172
-112.0,-34.0,7.173
-38.0,-27.0,7.174
42.0,15.0,7.175
60.0,63.0,7.176
47.0,97.0,7.177
44.0,105.0,7.178
39.0,73.0,7.179
4.0,13.0,7.18
-29.0,-24.0,7.181
-31.0,-21.0,7.182
-17.0,-10.0,7.183
-20.0,-17.0,7.184
-26.0,-20.0,7.185
-28.0,-8.0,7.186
-46.0,-6.0,7.187
-86.0,-23.0,7.188
-109.0,-28.0,7.189
-75.0,-7.0,7.19
3.0,3.0,7.191
90.0,-10.0,7.192
149.0,-12.0,7.193
146.0,16.0,7.194
102.0,35.0,7.195
91.0,14.0,7.196
130.0,-19.0,7.197
124.0,-36.0,7.198
5.0,-39.0,7.199
-123.0,-54.0,7.2
-115.0,-77.0,7.201
-18.0,-78.0,7.202
4.0,-48.0,7.203
-63.0,8.0,7.204
-100.0,81.0,7.205
-72.0,131.0,7.206
-57.0,118.0,7.207
-62.0,53.0,7.208
-4.0,-2.0,7.209
108.0,0.0,7.21
147.0,31.0,7.211
64.0,41.0,7.212
-26.0,17.0,7.213
-30.0,-18.0,7.214
5.0,-39.0,7.215
15.0,-36.0,7.216
29.0,-3.0,7.217
100.0,37.0,7.218
175.0,37.0,7.219
156.0,-19.0,7.22
22.0,-80.0,7.221
-171.0,-72.0,7.222
-343.0,-9.0,7.223
-401.0,39.0,7.224
-290.0,37.0,7.225
-75.0,14.0,7.226
103.0,6.0,7.227
184.0,10.0,7.228
204.0,4.0,7.229
171.0,-2.0,7.23
61.0,8.0,7.231
-60.0,29.0,7.232
-78.0,25.0,7.233
-9.0,-18.0,7.234
27.0,-64.0,7.235
-9.0,-66.0,7.236
-43.0,-31.0,7.237
-44.0,-2.0,7.238
-43.0,-7.0,7.239
-44.0,-31.0,7.24
3.0,-51.0,7.241
94.0,-64.0,7.242
165.0,-74.0,7.243
175.0,-67.0,7.244
125.0,-25.0,7.245
39.0,43.0,7.246
-28.0,114.0,7.247
-21.0,146.0,7.248
46.0,117.0,7.249
99.0,42.0,7.25
113.0,-24.0,7.251
94.0,-52.0,7.252
14.0,-56.0,7.253
-119.0,-54.0,7.254
-194.0,-34.0,7.255
-122.0,11.0,7.256
9.0,48.0,7.257
90.0,54.0,7.258
116.0,49.0,7.259
127.0,50.0,7.26
75.0,30.0,7.261
-101.0,-4.0,7.262
-311.0,0.0,7.263
-404.0,53.0,7.264
-323.0,69.0,7.265
-104.0,-2.0,7.266
197.0,-84.0,7.267
447.0,-76.0,7.268
463.0,-4.0,7.269
208.0,32.0,7.27
-133.0,9.0,7.271
-346.0,-18.0,7.272
-388.0,-25.0,7.273
-321.0,-31.0,7.274
-188.0,-39.0,7.275
-15.0,-31.0,7.276
132.0,-10.0,7.277
206.0,-5.0,7.278
212.0,-25.0,7.279
167.0,-60.0,7.28
87.0,-89.0,7.281
19.0,-88.0,7.282
38.0,-61.0,7.283
132.0,-33.0,7.284
181.0,-10.0,7.285
109.0,22.0,7.286
10.0,58.0,7.287
-3.0,62.0,7.288
51.0,32.0,7.289
65.0,32.0,7.29
12.0,87.0,7.291
-46.0,120.0,7.292
-76.0,65.0,7.293
-87.0,-20.0,7.294
-81.0,-34.0,7.295
-34.0,12.0,7.296
24.0,29.0,7.297
32.0,0.0,7.298
-41.0,-7.0,7.299
-127.0,32.0,7.3
-110.0,43.0,7.301
14.0,-12.0,7.302
110.0,-78.0,7.303
53.0,-81.0,7.304
-112.0,-29.0,7.305
-226.0,23.0,7.306
-215.0,42.0,7.307
-149.0,32.0,7.308
-87.0,6.0,7.309
-9.0,-19.0,7.31
82.0,-35.0,7.311
120.0,-49.0,7.312
105.0,-58.0,7.313
122.0,-41.0,7.314
187.0,7.0,7.315
210.0,49.0,7.316
159.0,45.0,7.317
86.0,15.0,7.318
41.0,0.0,7.319
-18.0,-14.0,7.32
-98.0,-25.0,7.321
-130.0,-42.0,7.322
-81.0,-76.0,7.323
6.0,-95.0,7.324
70.0,-65.0,7.325
94.0,-19.0,7.326
71.0,76.0,7.327
14.0,138.0,7.328
-31.0,98.0,7.329
-44.0,53.0,7.33
-58.0,-4.0,7.331
-80.0,-34.0,7.332
-63.0,16.0,7.333
-7.0,50.0,7.334
21.0,28.0,7.335
-2.0,16.0,7.336
-14.0,34.0,7.337
-84.0,51.0,7.338
70.0,27.0,7.339
185.0,-32.0,7.34
181.0,-64.0,7.341
160.0,-54.0,7.342
91.0,-49.0,7.343
15.0,-63.0,7.344
-79.0,-61.0,7.345
-161.0,-41.0,7.346
-204.0,-35.0,7.347
-178.0,-40.0,7.348
56.0,-10.0,7.349
260.0,62.0,7.35
383.0,123.0,7.351
423.0,138.0,7.352
207.0,124.0,7.353
29.0,98.0,7.354
-40.0,49.0,7.355
-85.0,-10.0,7.356
-52.0,-41.0,7.357
-93.0,-41.0,7.358
71.0,-50.0,7.359
193.0,-85.0,7.36
189.0,-111.0,7.361
167.0,-91.0,7.362
93.0,-45.0,7.363
12.0,-9.0,7.364
-88.0,-4.0,7.365
-175.0,-41.0,7.366
-220.0,-99.0,7.367
-193.0,-109.0,7.368
55.0,-22.0,7.369
273.0,99.0,7.37
403.0,131.0,7.371
445.0,51.0,7.372
217.0,-34.0,7.373
27.0,-30.0,7.374
-46.0,33.0,7.375
-94.0,61.0,7.376
-59.0,23.0,7.377
-29.0,-28.0,7.378
-31.0,-16.0,7.379
-38.0,56.0,7.38
-59.0,98.0,7.381
-130.0,63.0,7.382
-237.0,-2.0,7.383
-299.0,-25.0,7.384
-253.0,-4.0,7.385
-119.0,24.0,7.386
43.0,54.0,7.387
190.0,74.0,7.388
277.0,40.0,7.389
247.0,-48.0,7.39
80.0,-100.0,7.391
-134.0,-49.0,7.392
-240.0,45.0,7.393
-179.0,86.0,7.394
-71.0,56.0,7.395
-71.0,-2.0,7.396
-145.0,-76.0,7.397
-121.0,-181.0,7.398
82.0,-264.0,7.399
292.0,-271.0,7.4
311.0,-205.0,7.401
186.0,-74.0,7.402
79.0,123.0,7.403
8.0,328.0,7.404
-85.0,400.0,7.405
-128.0,273.0,7.406
-21.0,67.0,7.407
140.0,-56.0,7.408
190.0,-72.0,7.409
169.0,-52.0,7.41
222.0,-17.0,7.411
293.0,33.0,7.412
181.0,35.0,7.413
-118.0,-51.0,7.414
-361.0,-142.0,7.415
-374.0,-127.0,7.416
-240.0,-61.0,7.417
-108.0,-64.0,7.418
-77.0,-124.0,7.419
-134.0,-93.0,7.42
-182.0,72.0,7.421
-111.0,213.0,7.422
86.0,182.0,7.423
283.0,49.0,7.424
309.0,-23.0,7.425
100.0,-9.0,7.426
-223.0,-2.0,7.427
-397.0,-39.0,7.428
-243.0,-66.0,7.429
118.0,-59.0,7.43
369.0,-57.0,7.431
342.0,-55.0,7.432
172.0,5.0,7.433
63.0,123.0,7.434
54.0,191.0,7.435
62.0,139.0,7.436
10.0,39.0,7.437
-115.0,-23.0,7.438
-345.0,-34.0,7.439
-512.0,-40.0,7.44
-418.0,-68.0,7.441
-69.0,-94.0,7.442
292.0,-119.0,7.443
445.0,-163.0,7.444
392.0,-232.0,7.445
292.0,-301.0,7.446
250.0,-307.0,7.447
215.0,-164.0,7.448
