Deltoid,Bicep,Time
-3.0,-3.0,0.0
-5.0,-18.0,0.001
-6.0,-28.0,0.002
-1.0,-25.0,0.003
10.0,-10.0,0.004
14.0,5.0,0.005
7.0,11.0,0.006
4.0,7.0,0.007
11.0,3.0,0.008
11.0,5.0,0.009
1.0,9.0,0.01
-2.0,9.0,0.011
1.0,3.0,0.012
-1.0,-2.0,0.013
-21.0,-7.0,0.014
-46.0,-9.0,0.015
-57.0,-7.0,0.016
-54.0,-2.0,0.017
-40.0,0.0,0.018
-13.0,0.0,0.019
19.0,-3.0,0.02
39.0,-10.0,0.021
45.0,-10.0,0.022
54.0,-7.0,0.023
75.0,-3.0,0.024
83.0,0.0,0.025
61.0,0.0,0.026
26.0,-1.0,0.027
8.0,0.0,0.028
8.0,5.0,0.029
14.0,9.0,0.03
8.0,10.0,0.031
-5.0,4.0,0.032
-10.0,-2.0,0.033
0.0,0.0,0.034
21.0,9.0,0.035
33.0,12.0,0.036
31.0,5.0,0.037
20.0,-12.0,0.038
8.0,-22.0,0.039
-7.0,-18.0,0.04
-22.0,-11.0,0.041
-26.0,-7.0,0.042
-21.0,-2.0,0.043
-16.0,5.0,0.044
-21.0,11.0,0.045
-23.0,11.0,0.046
-16.0,0.0,0.047
-10.0,-7.0,0.048
-16.0,-4.0,0.049
-22.0,8.0,0.05
-16.0,17.0,0.051
-9.0,10.0,0.052
-9.0,-1.0,0.053
-9.0,-5.0,0.054
0.0,0.0,0.055
11.0,3.0,0.056
11.0,0.0,0.057
3.0,-5.0,0.058
0.0,-3.0,0.059
-3.0,-1.0,0.06
-10.0,-5.0,0.061
-11.0,-7.0,0.062
-1.0,0.0,0.063
8.0,9.0,0.064
5.0,14.0,0.065
1.0,10.0,0.066
10.0,1.0,0.067
23.0,-5.0,0.068
32.0,-3.0,0.069
31.0,0.0,0.07
22.0,0.0,0.071
5.0,-7.0,0.072
-15.0,-11.0,0.073
-25.0,-9.0,0.074
-18.0,-2.0,0.075
-12.0,2.0,0.076
-16.0,4.0,0.077
-22.0,1.0,0.078
-18.0,-3.0,0.079
-10.0,-8.0,0.08
-6.0,-12.0,0.081
-6.0,-10.0,0.082
4.0,-8.0,0.083
19.0,-6.0,0.084
23.0,-6.0,0.085
12.0,-3.0,0.086
0.0,0.0,0.087
2.0,0.0,0.088
5.0,4.0,0.089
2.0,9.0,0.09
-1.0,8.0,0.091
6.0,2.0,0.092
18.0,1.0,0.093
22.0,5.0,0.094
18.0,7.0,0.095
13.0,2.0,0.096
13.0,-1.0,0.097
10.0,-2.0,0.098
5.0,-1.0,0.099
2.0,0.0,0.1
1.0,-3.0,0.101
1.0,-2.0,0.102
9.0,-2.0,0.103
18.0,-3.0,0.104
22.0,-2.0,0.105
15.0,-1.0,0.106
5.0,-4.0,0.107
0.0,-4.0,0.108
-4.0,4.0,0.109
-12.0,15.0,0.11
-11.0,16.0,0.111
-5.0,2.0,0.112
-3.0,-11.0,0.113
-15.0,-15.0,0.114
-24.0,-7.0,0.115
-23.0,4.0,0.116
-17.0,13.0,0.117
-16.0,13.0,0.118
-14.0,8.0,0.119
-5.0,-2.0,0.12
8.0,-14.0,0.121
25.0,-21.0,0.122
44.0,-17.0,0.123
64.0,-10.0,0.124
70.0,-5.0,0.125
58.0,-5.0,0.126
44.0,-6.0,0.127
34.0,0.0,0.128
26.0,10.0,0.129
9.0,16.0,0.13
-5.0,15.0,0.131
-7.0,8.0,0.132
-2.0,1.0,0.133
-1.0,-3.0,0.134
-6.0,-2.0,0.135
-15.0,2.0,0.136
-21.0,7.0,0.137
-23.0,3.0,0.138
-23.0,-5.0,0.139
-23.0,-8.0,0.14
-27.0,-9.0,0.141
-26.0,-9.0,0.142
-12.0,-10.0,0.143
0.0,-9.0,0.144
1.0,-3.0,0.145
4.0,4.0,0.146
5.0,5.0,0.147
7.0,2.0,0.148
9.0,1.0,0.149
9.0,4.0,0.15
2.0,6.0,0.151
-3.0,3.0,0.152
-3.0,2.0,0.153
-2.0,3.0,0.154
-5.0,2.0,0.155
-7.0,-1.0,0.156
-5.0,-4.0,0.157
-3.0,-5.0,0.158
-6.0,0.0,0.159
-9.0,4.0,0.16
-9.0,1.0,0.161
-6.0,-1.0,0.162
-2.0,-3.0,0.163
0.0,-6.0,0.164
-3.0,-4.0,0.165
-6.0,-2.0,0.166
-7.0,0.0,0.167
-6.0,3.0,0.168
-9.0,7.0,0.169
-12.0,10.0,0.17
-5.0,10.0,0.171
13.0,7.0,0.172
28.0,0.0,0.173
30.0,-5.0,0.174
23.0,-7.0,0.175
13.0,-9.0,0.176
5.0,-6.0,0.177
2.0,-1.0,0.178
5.0,3.0,0.179
7.0,2.0,0.18
5.0,-6.0,0.181
4.0,-8.0,0.182
12.0,-6.0,0.183
22.0,-4.0,0.184
25.0,-3.0,0.185
21.0,-3.0,0.186
15.0,-3.0,0.187
7.0,-3.0,0.188
-1.0,-3.0,0.189
-2.0,0.0,0.19
11.0,0.0,0.191
27.0,-2.0,0.192
29.0,-1.0,0.193
13.0,6.0,0.194
-6.0,13.0,0.195
-15.0,10.0,0.196
-17.0,0.0,0.197
-23.0,-5.0,0.198
-29.0,-5.0,0.199
-31.0,0.0,0.2
-23.0,0.0,0.201
-11.0,0.0,0.202
-1.0,-1.0,0.203
2.0,-7.0,0.204
-1.0,-9.0,0.205
-10.0,-4.0,0.206
-18.0,4.0,0.207
-20.0,9.0,0.208
-20.0,6.0,0.209
-20.0,1.0,0.21
-18.0,-3.0,0.211
-2.0,-4.0,0.212
23.0,-3.0,0.213
44.0,-1.0,0.214
57.0,0.0,0.215
63.0,-1.0,0.216
62.0,-1.0,0.217
49.0,-1.0,0.218
23.0,-1.0,0.219
-4.0,-2.0,0.22
-13.0,-3.0,0.221
-12.0,-2.0,0.222
-8.0,-2.0,0.223
1.0,-3.0,0.224
16.0,1.0,0.225
23.0,6.0,0.226
18.0,-1.0,0.227
14.0,-11.0,0.228
17.0,-10.0,0.229
17.0,2.0,0.23
7.0,10.0,0.231
-1.0,4.0,0.232
2.0,0.0,0.233
10.0,3.0,0.234
7.0,5.0,0.235
-6.0,0.0,0.236
-13.0,-4.0,0.237
29.0,-3.0,0.238
14.0,-2.0,0.239
1.0,-7.0,0.24
-7.0,-17.0,0.241
-14.0,-16.0,0.242
-5.0,-4.0,0.243
-1.0,8.0,0.244
-5.0,12.0,0.245
-10.0,11.0,0.246
-16.0,7.0,0.247
-19.0,0.0,0.248
-14.0,-4.0,0.249
-7.0,0.0,0.25
5.0,7.0,0.251
15.0,9.0,0.252
18.0,6.0,0.253
21.0,3.0,0.254
21.0,0.0,0.255
20.0,-2.0,0.256
8.0,-2.0,0.257
20.0,-3.0,0.258
10.0,-3.0,0.259
1.0,-6.0,0.26
-4.0,-12.0,0.261
-9.0,-16.0,0.262
-3.0,-3.0,0.263
0.0,8.0,0.264
-3.0,5.0,0.265
-6.0,1.0,0.266
-10.0,-9.0,0.267
-12.0,-17.0,0.268
-9.0,-11.0,0.269
-4.0,-4.0,0.27
4.0,-2.0,0.271
11.0,0.0,0.272
13.0,0.0,0.273
15.0,1.0,0.274
15.0,1.0,0.275
14.0,0.0,0.276
6.0,1.0,0.277
-2.0,-3.0,0.278
-14.0,-3.0,0.279
-24.0,-5.0,0.28
-31.0,-9.0,0.281
-27.0,-11.0,0.282
-10.0,-3.0,0.283
12.0,4.0,0.284
25.0,2.0,0.285
26.0,0.0,0.286
20.0,-7.0,0.287
16.0,-12.0,0.288
13.0,-8.0,0.289
18.0,-4.0,0.29
29.0,-2.0,0.291
28.0,-1.0,0.292
1.0,-1.0,0.293
-41.0,0.0,0.294
-68.0,0.0,0.295
-68.0,-1.0,0.296
-48.0,0.0,0.297
-17.0,2.0,0.298
17.0,4.0,0.299
43.0,-1.0,0.3
55.0,-12.0,0.301
63.0,-16.0,0.302
84.0,-14.0,0.303
103.0,-7.0,0.304
100.0,0.0,0.305
77.0,9.0,0.306
58.0,13.0,0.307
47.0,12.0,0.308
28.0,8.0,0.309
-2.0,4.0,0.31
-23.0,1.0,0.311
-27.0,0.0,0.312
-28.0,2.0,0.313
-34.0,6.0,0.314
-38.0,6.0,0.315
-35.0,2.0,0.316
-33.0,0.0,0.317
-42.0,-1.0,0.318
-51.0,1.0,0.319
-54.0,0.0,0.32
-52.0,-9.0,0.321
-47.0,-13.0,0.322
-36.0,-7.0,0.323
-19.0,1.0,0.324
-4.0,6.0,0.325
4.0,8.0,0.326
9.0,13.0,0.327
12.0,22.0,0.328
9.0,23.0,0.329
-2.0,10.0,0.33
-17.0,-3.0,0.331
-21.0,-7.0,0.332
-10.0,-5.0,0.333
8.0,-3.0,0.334
23.0,-6.0,0.335
34.0,-11.0,0.336
41.0,-10.0,0.337
42.0,-9.0,0.338
38.0,-11.0,0.339
27.0,-15.0,0.34
15.0,-21.0,0.341
5.0,-17.0,0.342
2.0,-6.0,0.343
3.0,3.0,0.344
0.0,9.0,0.345
-5.0,9.0,0.346
-7.0,2.0,0.347
-2.0,-6.0,0.348
5.0,-6.0,0.349
5.0,3.0,0.35
1.0,10.0,0.351
3.0,7.0,0.352
10.0,3.0,0.353
12.0,4.0,0.354
5.0,4.0,0.355
-5.0,0.0,0.356
-11.0,-5.0,0.357
-11.0,-4.0,0.358
-5.0,-1.0,0.359
-3.0,1.0,0.36
-4.0,1.0,0.361
-1.0,7.0,0.362
10.0,7.0,0.363
23.0,1.0,0.364
25.0,-4.0,0.365
16.0,-2.0,0.366
1.0,0.0,0.367
-13.0,-2.0,0.368
-31.0,0.0,0.369
-45.0,7.0,0.37
-43.0,8.0,0.371
-26.0,-1.0,0.372
-9.0,-7.0,0.373
4.0,0.0,0.374
29.0,7.0,0.375
62.0,6.0,0.376
84.0,3.0,0.377
77.0,2.0,0.378
51.0,1.0,0.379
26.0,-7.0,0.38
13.0,-16.0,0.381
6.0,-15.0,0.382
10.0,-9.0,0.383
17.0,-6.0,0.384
18.0,0.0,0.385
12.0,11.0,0.386
11.0,17.0,0.387
12.0,11.0,0.388
1.0,3.0,0.389
-22.0,0.0,0.39
-38.0,0.0,0.391
-38.0,-4.0,0.392
-41.0,-10.0,0.393
-54.0,-10.0,0.394
-59.0,-7.0,0.395
-42.0,-1.0,0.396
-18.0,7.0,0.397
-8.0,13.0,0.398
-10.0,11.0,0.399
-12.0,-1.0,0.4
-7.0,-14.0,0.401
1.0,-14.0,0.402
12.0,-5.0,0.403
26.0,1.0,0.404
37.0,4.0,0.405
38.0,6.0,0.406
32.0,5.0,0.407
26.0,2.0,0.408
18.0,1.0,0.409
5.0,2.0,0.41
-7.0,3.0,0.411
-12.0,0.0,0.412
-14.0,-4.0,0.413
-18.0,-5.0,0.414
-20.0,-3.0,0.415
-12.0,0.0,0.416
3.0,1.0,0.417
15.0,-4.0,0.418
20.0,-9.0,0.419
21.0,-12.0,0.42
23.0,-12.0,0.421
22.0,-10.0,0.422
15.0,-8.0,0.423
13.0,-8.0,0.424
15.0,-8.0,0.425
17.0,-6.0,0.426
10.0,-4.0,0.427
0.0,-2.0,0.428
-1.0,2.0,0.429
1.0,6.0,0.43
-2.0,8.0,0.431
-11.0,8.0,0.432
-13.0,11.0,0.433
-4.0,13.0,0.434
5.0,11.0,0.435
8.0,6.0,0.436
10.0,5.0,0.437
18.0,0.0,0.438
27.0,-4.0,0.439
22.0,-9.0,0.44
5.0,-10.0,0.441
-16.0,-6.0,0.442
-28.0,1.0,0.443
-34.0,3.0,0.444
-31.0,5.0,0.445
-23.0,5.0,0.446
-18.0,1.0,0.447
-22.0,-2.0,0.448
-32.0,-5.0,0.449
-30.0,-2.0,0.45
-13.0,0.0,0.451
4.0,2.0,0.452
16.0,4.0,0.453
34.0,5.0,0.454
64.0,2.0,0.455
86.0,-4.0,0.456
83.0,-5.0,0.457
67.0,-2.0,0.458
61.0,3.0,0.459
51.0,3.0,0.46
28.0,-4.0,0.461
10.0,-6.0,0.462
5.0,-9.0,0.463
0.0,-9.0,0.464
-5.0,-7.0,0.465
-11.0,-4.0,0.466
-15.0,-5.0,0.467
-18.0,-10.0,0.468
-18.0,-11.0,0.469
-17.0,-5.0,0.47
-11.0,3.0,0.471
-5.0,6.0,0.472
-2.0,5.0,0.473
-3.0,6.0,0.474
-19.0,7.0,0.475
-30.0,6.0,0.476
-28.0,6.0,0.477
-29.0,6.0,0.478
-37.0,8.0,0.479
-30.0,5.0,0.48
-12.0,-2.0,0.481
-3.0,-8.0,0.482
0.0,-9.0,0.483
8.0,-9.0,0.484
15.0,-7.0,0.485
10.0,-6.0,0.486
-1.0,-4.0,0.487
-3.0,-1.0,0.488
0.0,2.0,0.489
0.0,5.0,0.49
-4.0,4.0,0.491
-8.0,0.0,0.492
-11.0,-2.0,0.493
-10.0,-1.0,0.494
3.0,0.0,0.495
20.0,3.0,0.496
25.0,4.0,0.497
12.0,2.0,0.498
0.0,-3.0,0.499
4.0,-7.0,0.5
19.0,-10.0,0.501
28.0,-8.0,0.502
28.0,-6.0,0.503
19.0,-3.0,0.504
4.0,3.0,0.505
-10.0,8.0,0.506
-11.0,3.0,0.507
-1.0,-1.0,0.508
8.0,5.0,0.509
7.0,14.0,0.51
9.0,15.0,0.511
20.0,2.0,0.512
34.0,-6.0,0.513
44.0,-4.0,0.514
46.0,0.0,0.515
37.0,-2.0,0.516
22.0,-7.0,0.517
8.0,-9.0,0.518
5.0,-7.0,0.519
1.0,-4.0,0.52
-12.0,0.0,0.521
-24.0,8.0,0.522
-23.0,10.0,0.523
-19.0,7.0,0.524
-31.0,4.0,0.525
-65.0,0.0,0.526
-88.0,-13.0,0.527
-83.0,-28.0,0.528
-52.0,-24.0,0.529
-11.0,0.0,0.53
26.0,22.0,0.531
52.0,30.0,0.532
62.0,29.0,0.533
59.0,31.0,0.534
49.0,25.0,0.535
33.0,9.0,0.536
17.0,-4.0,0.537
-1.0,-10.0,0.538
-11.0,-9.0,0.539
-22.0,-9.0,0.54
-35.0,-13.0,0.541
-44.0,-16.0,0.542
-40.0,-23.0,0.543
-31.0,-31.0,0.544
-5.0,-30.0,0.545
17.0,-27.0,0.546
31.0,-27.0,0.547
42.0,-30.0,0.548
41.0,-20.0,0.549
37.0,3.0,0.55
26.0,29.0,0.551
17.0,40.0,0.552
14.0,34.0,0.553
6.0,12.0,0.554
-14.0,-13.0,0.555
-33.0,-24.0,0.556
-47.0,-15.0,0.557
-54.0,-8.0,0.558
-36.0,-10.0,0.559
-22.0,-10.0,0.56
-14.0,0.0,0.561
0.0,4.0,0.562
15.0,-6.0,0.563
22.0,-14.0,0.564
20.0,-10.0,0.565
19.0,-1.0,0.566
21.0,17.0,0.567
20.0,29.0,0.568
16.0,17.0,0.569
18.0,7.0,0.57
21.0,9.0,0.571
20.0,14.0,0.572
16.0,23.0,0.573
19.0,25.0,0.574
22.0,2.0,0.575
21.0,-19.0,0.576
18.0,-33.0,0.577
16.0,-38.0,0.578
16.0,-11.0,0.579
14.0,-3.0,0.58
7.0,-9.0,0.581
2.0,-3.0,0.582
4.0,12.0,0.583
6.0,10.0,0.584
4.0,-1.0,0.585
1.0,2.0,0.586
-7.0,11.0,0.587
-16.0,8.0,0.588
-25.0,-3.0,0.589
-29.0,0.0,0.59
-17.0,14.0,0.591
-3.0,15.0,0.592
17.0,6.0,0.593
34.0,6.0,0.594
38.0,11.0,0.595
38.0,10.0,0.596
27.0,4.0,0.597
17.0,0.0,0.598
7.0,1.0,0.599
-1.0,1.0,0.6
-10.0,-4.0,0.601
-14.0,-7.0,0.602
0.0,-1.0,0.603
20.0,3.0,0.604
19.0,3.0,0.605
0.0,3.0,0.606
-13.0,4.0,0.607
-10.0,5.0,0.608
-12.0,4.0,0.609
-23.0,4.0,0.61
-26.0,8.0,0.611
-12.0,11.0,0.612
4.0,9.0,0.613
6.0,8.0,0.614
1.0,8.0,0.615
2.0,9.0,0.616
6.0,7.0,0.617
-1.0,6.0,0.618
-7.0,4.0,0.619
-9.0,0.0,0.62
-7.0,-7.0,0.621
-7.0,-7.0,0.622
-3.0,-4.0,0.623
5.0,-2.0,0.624
11.0,-6.0,0.625
6.0,-13.0,0.626
4.0,-22.0,0.627
9.0,-29.0,0.628
12.0,-32.0,0.629
7.0,-28.0,0.63
1.0,-18.0,0.631
1.0,-9.0,0.632
3.0,-4.0,0.633
1.0,-1.0,0.634
-1.0,-4.0,0.635
2.0,-9.0,0.636
6.0,-12.0,0.637
4.0,-13.0,0.638
-1.0,-13.0,0.639
-5.0,-13.0,0.64
-6.0,-13.0,0.641
-3.0,-10.0,0.642
3.0,-2.0,0.643
11.0,4.0,0.644
14.0,5.0,0.645
9.0,5.0,0.646
4.0,3.0,0.647
6.0,0.0,0.648
8.0,-2.0,0.649
6.0,0.0,0.65
5.0,8.0,0.651
8.0,16.0,0.652
10.0,17.0,0.653
7.0,14.0,0.654
1.0,11.0,0.655
-2.0,10.0,0.656
-1.0,10.0,0.657
-4.0,6.0,0.658
-2.0,5.0,0.659
-1.0,5.0,0.66
-2.0,1.0,0.661
-2.0,0.0,0.662
0.0,0.0,0.663
1.0,4.0,0.664
-4.0,7.0,0.665
-8.0,7.0,0.666
-12.0,3.0,0.667
-13.0,-1.0,0.668
-6.0,-1.0,0.669
-1.0,5.0,0.67
0.0,9.0,0.671
3.0,3.0,0.672
13.0,-1.0,0.673
22.0,1.0,0.674
22.0,7.0,0.675
22.0,10.0,0.676
17.0,8.0,0.677
11.0,5.0,0.678
1.0,3.0,0.679
-7.0,1.0,0.68
-10.0,-2.0,0.681
-5.0,-4.0,0.682
0.0,0.0,0.683
1.0,3.0,0.684
-3.0,0.0,0.685
-10.0,-4.0,0.686
-7.0,-15.0,0.687
7.0,-21.0,0.688
20.0,-11.0,0.689
22.0,-4.0,0.69
20.0,-8.0,0.691
25.0,-9.0,0.692
30.0,-3.0,0.693
28.0,2.0,0.694
21.0,9.0,0.695
16.0,12.0,0.696
12.0,0.0,0.697
-1.0,-10.0,0.698
-15.0,-15.0,0.699
-27.0,-19.0,0.7
-31.0,-23.0,0.701
-29.0,-18.0,0.702
-23.0,-9.0,0.703
-16.0,-3.0,0.704
-5.0,2.0,0.705
5.0,7.0,0.706
10.0,9.0,0.707
6.0,7.0,0.708
-5.0,5.0,0.709
-11.0,4.0,0.71
-4.0,5.0,0.711
7.0,6.0,0.712
6.0,8.0,0.713
-3.0,11.0,0.714
-4.0,15.0,0.715
4.0,15.0,0.716
12.0,9.0,0.717
14.0,0.0,0.718
12.0,0.0,0.719
4.0,6.0,0.72
-10.0,0.0,0.721
-17.0,-11.0,0.722
-5.0,-18.0,0.723
13.0,-12.0,0.724
17.0,-3.0,0.725
10.0,-6.0,0.726
14.0,-12.0,0.727
30.0,-12.0,0.728
35.0,-8.0,0.729
15.0,-12.0,0.73
-6.0,-18.0,0.731
-14.0,-12.0,0.732
-14.0,-2.0,0.733
-20.0,-4.0,0.734
-29.0,-12.0,0.735
-30.0,-9.0,0.736
-23.0,9.0,0.737
-15.0,17.0,0.738
-11.0,14.0,0.739
-9.0,12.0,0.74
-1.0,12.0,0.741
14.0,5.0,0.742
26.0,-5.0,0.743
33.0,1.0,0.744
39.0,15.0,0.745
52.0,10.0,0.746
62.0,-12.0,0.747
55.0,-18.0,0.748
29.0,3.0,0.749
4.0,17.0,0.75
-6.0,2.0,0.751
-3.0,-14.0,0.752
1.0,-4.0,0.753
3.0,13.0,0.754
3.0,12.0,0.755
1.0,1.0,0.756
-3.0,1.0,0.757
-11.0,5.0,0.758
-15.0,4.0,0.759
-18.0,4.0,0.76
-21.0,8.0,0.761
-22.0,10.0,0.762
-13.0,0.0,0.763
-4.0,-6.0,0.764
3.0,0.0,0.765
7.0,9.0,0.766
1.0,6.0,0.767
-2.0,0.0,0.768
0.0,0.0,0.769
1.0,1.0,0.77
2.0,-1.0,0.771
3.0,-3.0,0.772
1.0,0.0,0.773
0.0,3.0,0.774
-1.0,-1.0,0.775
-2.0,-5.0,0.776
-4.0,0.0,0.777
-7.0,4.0,0.778
-5.0,4.0,0.779
-7.0,-4.0,0.78
-12.0,-15.0,0.781
-12.0,-22.0,0.782
-1.0,-24.0,0.783
12.0,-19.0,0.784
17.0,-8.0,0.785
9.0,0.0,0.786
2.0,4.0,0.787
6.0,2.0,0.788
12.0,1.0,0.789
13.0,2.0,0.79
8.0,4.0,0.791
6.0,6.0,0.792
9.0,2.0,0.793
4.0,-2.0,0.794
-1.0,-1.0,0.795
-2.0,5.0,0.796
1.0,9.0,0.797
2.0,4.0,0.798
-4.0,0.0,0.799
-8.0,0.0,0.8
-6.0,-5.0,0.801
-2.0,-9.0,0.802
4.0,-8.0,0.803
12.0,-2.0,0.804
17.0,4.0,0.805
14.0,4.0,0.806
8.0,2.0,0.807
7.0,3.0,0.808
10.0,3.0,0.809
8.0,1.0,0.81
4.0,0.0,0.811
5.0,0.0,0.812
10.0,0.0,0.813
11.0,0.0,0.814
6.0,1.0,0.815
3.0,1.0,0.816
5.0,1.0,0.817
4.0,-2.0,0.818
-1.0,-3.0,0.819
-5.0,-5.0,0.82
-6.0,-11.0,0.821
-3.0,-12.0,0.822
3.0,-7.0,0.823
9.0,-2.0,0.824
6.0,0.0,0.825
2.0,-1.0,0.826
2.0,-2.0,0.827
7.0,0.0,0.828
9.0,3.0,0.829
4.0,4.0,0.83
-1.0,5.0,0.831
-1.0,3.0,0.832
0.0,3.0,0.833
2.0,5.0,0.834
1.0,7.0,0.835
0.0,8.0,0.836
-1.0,8.0,0.837
-1.0,5.0,0.838
0.0,0.0,0.839
-3.0,-6.0,0.84
-7.0,-13.0,0.841
-6.0,-16.0,0.842
6.0,-6.0,0.843
16.0,2.0,0.844
14.0,2.0,0.845
5.0,1.0,0.846
3.0,-3.0,0.847
5.0,-5.0,0.848
5.0,4.0,0.849
1.0,11.0,0.85
0.0,8.0,0.851
1.0,4.0,0.852
0.0,0.0,0.853
0.0,-2.0,0.854
2.0,0.0,0.855
1.0,3.0,0.856
0.0,5.0,0.857
3.0,5.0,0.858
2.0,-7.0,0.859
0.0,-14.0,0.86
-5.0,-13.0,0.861
-7.0,-8.0,0.862
0.0,-8.0,0.863
5.0,-3.0,0.864
-1.0,7.0,0.865
-5.0,10.0,0.866
-3.0,1.0,0.867
1.0,-10.0,0.868
6.0,-9.0,0.869
10.0,-1.0,0.87
7.0,3.0,0.871
6.0,0.0,0.872
10.0,-6.0,0.873
11.0,-9.0,0.874
0.0,-4.0,0.875
-9.0,3.0,0.876
-5.0,8.0,0.877
3.0,1.0,0.878
2.0,-6.0,0.879
0.0,-7.0,0.88
-4.0,-8.0,0.881
-5.0,-8.0,0.882
0.0,-7.0,0.883
4.0,-4.0,0.884
-1.0,1.0,0.885
-4.0,4.0,0.886
-2.0,4.0,0.887
1.0,3.0,0.888
5.0,0.0,0.889
8.0,0.0,0.89
6.0,1.0,0.891
5.0,5.0,0.892
8.0,9.0,0.893
9.0,9.0,0.894
0.0,4.0,0.895
-7.0,-2.0,0.896
-4.0,0.0,0.897
0.0,4.0,0.898
1.0,2.0,0.899
1.0,0.0,0.9
1.0,-5.0,0.901
0.0,-7.0,0.902
2.0,-1.0,0.903
10.0,0.0,0.904
14.0,-9.0,0.905
11.0,-15.0,0.906
5.0,-4.0,0.907
2.0,3.0,0.908
0.0,-3.0,0.909
-1.0,-8.0,0.91
2.0,-5.0,0.911
6.0,-1.0,0.912
4.0,4.0,0.913
-1.0,7.0,0.914
-3.0,0.0,0.915
0.0,-4.0,0.916
6.0,-2.0,0.917
3.0,-2.0,0.918
-1.0,-8.0,0.919
-3.0,-12.0,0.92
-2.0,-9.0,0.921
-2.0,-2.0,0.922
1.0,-4.0,0.923
8.0,-6.0,0.924
12.0,0.0,0.925
8.0,11.0,0.926
4.0,11.0,0.927
5.0,1.0,0.928
7.0,-3.0,0.929
9.0,5.0,0.93
7.0,12.0,0.931
4.0,9.0,0.932
0.0,0.0,0.933
0.0,-1.0,0.934
3.0,3.0,0.935
6.0,5.0,0.936
8.0,5.0,0.937
6.0,1.0,0.938
4.0,-2.0,0.939
0.0,-5.0,0.94
-6.0,-9.0,0.941
-11.0,-8.0,0.942
-7.0,-6.0,0.943
2.0,-4.0,0.944
6.0,0.0,0.945
1.0,5.0,0.946
-1.0,4.0,0.947
4.0,0.0,0.948
8.0,0.0,0.949
5.0,6.0,0.95
3.0,6.0,0.951
5.0,-1.0,0.952
5.0,-4.0,0.953
-2.0,0.0,0.954
-5.0,6.0,0.955
-2.0,3.0,0.956
1.0,2.0,0.957
1.0,1.0,0.958
-1.0,-1.0,0.959
-4.0,-10.0,0.96
-5.0,-18.0,0.961
-6.0,-13.0,0.962
0.0,-2.0,0.963
4.0,2.0,0.964
7.0,2.0,0.965
10.0,0.0,0.966
7.0,-2.0,0.967
5.0,-4.0,0.968
3.0,-2.0,0.969
2.0,4.0,0.97
1.0,8.0,0.971
1.0,3.0,0.972
0.0,-1.0,0.973
-2.0,3.0,0.974
1.0,10.0,0.975
4.0,10.0,0.976
4.0,3.0,0.977
0.0,-5.0,0.978
-2.0,-9.0,0.979
-5.0,-11.0,0.98
-7.0,-14.0,0.981
-8.0,-7.0,0.982
-1.0,4.0,0.983
5.0,8.0,0.984
9.0,1.0,0.985
12.0,-4.0,0.986
9.0,-2.0,0.987
6.0,3.0,0.988
4.0,0.0,0.989
3.0,-3.0,0.99
2.0,2.0,0.991
0.0,7.0,0.992
-1.0,5.0,0.993
-3.0,0.0,0.994
1.0,0.0,0.995
5.0,4.0,0.996
5.0,4.0,0.997
3.0,-1.0,0.998
-1.0,-4.0,0.999
-2.0,-4.0,1.0
-2.0,-10.0,1.001
-4.0,-15.0,1.002
3.0,-12.0,1.003
15.0,-2.0,1.004
17.0,7.0,1.005
10.0,7.0,1.006
8.0,2.0,1.007
13.0,-4.0,1.008
15.0,-5.0,1.009
9.0,-4.0,1.01
2.0,0.0,1.011
2.0,3.0,1.012
3.0,5.0,1.013
2.0,4.0,1.014
3.0,0.0,1.015
9.0,-3.0,1.016
11.0,-2.0,1.017
3.0,-2.0,1.018
-3.0,-5.0,1.019
-7.0,-8.0,1.02
-9.0,-12.0,1.021
-11.0,-9.0,1.022
-7.0,-6.0,1.023
1.0,-5.0,1.024
5.0,-1.0,1.025
2.0,5.0,1.026
2.0,7.0,1.027
9.0,3.0,1.028
14.0,2.0,1.029
9.0,7.0,1.03
1.0,11.0,1.031
-5.0,11.0,1.032
-8.0,12.0,1.033
-8.0,13.0,1.034
-4.0,10.0,1.035
2.0,2.0,1.036
6.0,0.0,1.037
4.0,-4.0,1.038
2.0,-4.0,1.039
-1.0,-4.0,1.04
-6.0,-7.0,1.041
-9.0,-9.0,1.042
-3.0,-5.0,1.043
3.0,-2.0,1.044
3.0,0.0,1.045
3.0,2.0,1.046
4.0,0.0,1.047
7.0,0.0,1.048
9.0,2.0,1.049
12.0,4.0,1.05
9.0,6.0,1.051
6.0,7.0,1.052
3.0,2.0,1.053
2.0,-1.0,1.054
3.0,0.0,1.055
4.0,1.0,1.056
0.0,0.0,1.057
4.0,-7.0,1.058
2.0,-7.0,1.059
-2.0,-7.0,1.06
-8.0,-11.0,1.061
-12.0,-14.0,1.062
-4.0,-8.0,1.063
3.0,-3.0,1.064
3.0,1.0,1.065
3.0,3.0,1.066
4.0,1.0,1.067
8.0,0.0,1.068
10.0,3.0,1.069
14.0,6.0,1.07
10.0,10.0,1.071
6.0,11.0,1.072
3.0,3.0,1.073
2.0,-2.0,1.074
3.0,0.0,1.075
4.0,2.0,1.076
0.0,-1.0,1.077
4.0,-6.0,1.078
2.0,-13.0,1.079
0.0,-11.0,1.08
-3.0,-6.0,1.081
-5.0,0.0,1.082
-1.0,0.0,1.083
3.0,-2.0,1.084
3.0,0.0,1.085
3.0,7.0,1.086
4.0,9.0,1.087
6.0,4.0,1.088
7.0,-3.0,1.089
9.0,-7.0,1.09
7.0,-11.0,1.091
5.0,-14.0,1.092
3.0,-11.0,1.093
2.0,2.0,1.094
3.0,10.0,1.095
4.0,2.0,1.096
1.0,-5.0,1.097
-2.0,-3.0,1.098
-7.0,4.0,1.099
-10.0,1.0,1.1
-10.0,-10.0,1.101
-7.0,-11.0,1.102
2.0,-4.0,1.103
13.0,-1.0,1.104
14.0,-1.0,1.105
9.0,0.0,1.106
8.0,4.0,1.107
13.0,4.0,1.108
13.0,3.0,1.109
10.0,7.0,1.11
9.0,10.0,1.111
10.0,7.0,1.112
10.0,4.0,1.113
5.0,8.0,1.114
1.0,10.0,1.115
-3.0,8.0,1.116
-11.0,5.0,1.117
-19.0,1.0,1.118
-20.0,-3.0,1.119
-18.0,-9.0,1.12
-21.0,-15.0,1.121
-23.0,-13.0,1.122
-16.0,-7.0,1.123
3.0,-4.0,1.124
19.0,0.0,1.125
28.0,3.0,1.126
37.0,3.0,1.127
44.0,-2.0,1.128
33.0,-4.0,1.129
8.0,2.0,1.13
-9.0,6.0,1.131
-9.0,6.0,1.132
-2.0,3.0,1.133
1.0,2.0,1.134
3.0,3.0,1.135
6.0,0.0,1.136
3.0,-2.0,1.137
-9.0,-2.0,1.138
-9.0,0.0,1.139
-10.0,-5.0,1.14
-13.0,-9.0,1.141
-12.0,-9.0,1.142
0.0,-5.0,1.143
9.0,-3.0,1.144
11.0,-4.0,1.145
13.0,-4.0,1.146
13.0,-4.0,1.147
12.0,-4.0,1.148
10.0,-2.0,1.149
8.0,5.0,1.15
5.0,10.0,1.151
2.0,6.0,1.152
1.0,0.0,1.153
0.0,-2.0,1.154
0.0,0.0,1.155
-1.0,5.0,1.156
0.0,9.0,1.157
-18.0,8.0,1.158
-18.0,5.0,1.159
-20.0,1.0,1.16
-25.0,-3.0,1.161
-24.0,-7.0,1.162
-1.0,-7.0,1.163
17.0,-6.0,1.164
20.0,-4.0,1.165
23.0,-2.0,1.166
23.0,0.0,1.167
22.0,0.0,1.168
19.0,-5.0,1.169
15.0,-10.0,1.17
9.0,-8.0,1.171
3.0,-5.0,1.172
0.0,0.0,1.173
-2.0,5.0,1.174
-2.0,5.0,1.175
-3.0,6.0,1.176
-2.0,6.0,1.177
1.0,5.0,1.178
6.0,1.0,1.179
5.0,-1.0,1.18
-1.0,-4.0,1.181
-3.0,-1.0,1.182
5.0,3.0,1.183
12.0,6.0,1.184
8.0,8.0,1.185
0.0,3.0,1.186
0.0,-8.0,1.187
8.0,-16.0,1.188
11.0,-12.0,1.189
8.0,0.0,1.19
6.0,6.0,1.191
6.0,3.0,1.192
7.0,3.0,1.193
8.0,8.0,1.194
6.0,8.0,1.195
0.0,5.0,1.196
-5.0,5.0,1.197
-9.0,3.0,1.198
-7.0,-3.0,1.199
-7.0,-9.0,1.2
-11.0,-10.0,1.201
-10.0,-2.0,1.202
0.0,1.0,1.203
14.0,-6.0,1.204
17.0,-9.0,1.205
7.0,-5.0,1.206
0.0,-3.0,1.207
1.0,-3.0,1.208
0.0,-2.0,1.209
-6.0,2.0,1.21
-9.0,5.0,1.211
-1.0,4.0,1.212
12.0,5.0,1.213
17.0,8.0,1.214
17.0,5.0,1.215
16.0,0.0,1.216
17.0,-1.0,1.217
-13.0,-4.0,1.218
-11.0,-6.0,1.219
-10.0,-9.0,1.22
-9.0,-11.0,1.221
-8.0,-8.0,1.222
-8.0,-3.0,1.223
-4.0,1.0,1.224
3.0,1.0,1.225
11.0,-1.0,1.226
15.0,-2.0,1.227
20.0,-2.0,1.228
17.0,-1.0,1.229
15.0,-2.0,1.23
13.0,5.0,1.231
11.0,15.0,1.232
6.0,15.0,1.233
2.0,2.0,1.234
2.0,-6.0,1.235
1.0,-2.0,1.236
5.0,7.0,1.237
-12.0,-9.0,1.238
-10.0,-9.0,1.239
-9.0,-11.0,1.24
-8.0,-11.0,1.241
-7.0,-11.0,1.242
-7.0,0.0,1.243
-4.0,9.0,1.244
3.0,2.0,1.245
10.0,-2.0,1.246
14.0,4.0,1.247
18.0,11.0,1.248
16.0,11.0,1.249
14.0,9.0,1.25
12.0,4.0,1.251
10.0,2.0,1.252
6.0,2.0,1.253
2.0,2.0,1.254
2.0,4.0,1.255
1.0,7.0,1.256
5.0,7.0,1.257
8.0,-4.0,1.258
4.0,-4.0,1.259
2.0,-5.0,1.26
0.0,-5.0,1.261
-2.0,-5.0,1.262
3.0,0.0,1.263
15.0,4.0,1.264
18.0,1.0,1.265
10.0,-1.0,1.266
0.0,2.0,1.267
1.0,5.0,1.268
5.0,5.0,1.269
2.0,4.0,1.27
-3.0,2.0,1.271
-5.0,1.0,1.272
-6.0,1.0,1.273
-6.0,1.0,1.274
-8.0,2.0,1.275
-10.0,3.0,1.276
-10.0,3.0,1.277
-14.0,2.0,1.278
-19.0,-2.0,1.279
-21.0,-6.0,1.28
-16.0,-12.0,1.281
-2.0,-16.0,1.282
15.0,-12.0,1.283
27.0,-4.0,1.284
29.0,5.0,1.285
24.0,4.0,1.286
19.0,-3.0,1.287
18.0,-5.0,1.288
18.0,0.0,1.289
16.0,9.0,1.29
9.0,6.0,1.291
4.0,-1.0,1.292
1.0,0.0,1.293
2.0,5.0,1.294
0.0,4.0,1.295
-4.0,0.0,1.296
-7.0,1.0,1.297
-12.0,4.0,1.298
-16.0,1.0,1.299
-19.0,-8.0,1.3
-17.0,-13.0,1.301
-14.0,-11.0,1.302
-7.0,-8.0,1.303
-1.0,-7.0,1.304
0.0,-5.0,1.305
2.0,-1.0,1.306
5.0,-3.0,1.307
9.0,-7.0,1.308
13.0,-8.0,1.309
15.0,-3.0,1.31
8.0,-3.0,1.311
1.0,-6.0,1.312
0.0,-4.0,1.313
-1.0,5.0,1.314
2.0,10.0,1.315
5.0,11.0,1.316
8.0,9.0,1.317
-12.0,2.0,1.318
-16.0,-4.0,1.319
-19.0,-9.0,1.32
-17.0,-7.0,1.321
-14.0,-5.0,1.322
-7.0,-5.0,1.323
-1.0,-5.0,1.324
0.0,-2.0,1.325
2.0,1.0,1.326
5.0,0.0,1.327
9.0,0.0,1.328
13.0,4.0,1.329
15.0,7.0,1.33
8.0,4.0,1.331
1.0,1.0,1.332
0.0,0.0,1.333
-1.0,-2.0,1.334
2.0,0.0,1.335
5.0,1.0,1.336
8.0,4.0,1.337
9.0,7.0,1.338
2.0,4.0,1.339
-7.0,1.0,1.34
-10.0,-2.0,1.341
-5.0,-4.0,1.342
0.0,-4.0,1.343
6.0,-4.0,1.344
10.0,0.0,1.345
9.0,4.0,1.346
3.0,1.0,1.347
2.0,-2.0,1.348
9.0,-3.0,1.349
15.0,0.0,1.35
16.0,2.0,1.351
13.0,4.0,1.352
8.0,4.0,1.353
4.0,6.0,1.354
1.0,4.0,1.355
1.0,-2.0,1.356
0.0,-3.0,1.357
-2.0,-1.0,1.358
-5.0,1.0,1.359
-3.0,0.0,1.36
-1.0,-8.0,1.361
-1.0,-11.0,1.362
1.0,-7.0,1.363
8.0,-2.0,1.364
13.0,1.0,1.365
12.0,4.0,1.366
8.0,5.0,1.367
6.0,6.0,1.368
7.0,4.0,1.369
4.0,4.0,1.37
-2.0,1.0,1.371
-8.0,0.0,1.372
-10.0,0.0,1.373
-9.0,3.0,1.374
-7.0,3.0,1.375
-11.0,-1.0,1.376
-13.0,-4.0,1.377
-14.0,-3.0,1.378
-12.0,-2.0,1.379
-11.0,-3.0,1.38
-8.0,-8.0,1.381
4.0,-8.0,1.382
25.0,-7.0,1.383
37.0,-4.0,1.384
33.0,0.0,1.385
17.0,3.0,1.386
6.0,0.0,1.387
3.0,-6.0,1.388
6.0,-5.0,1.389
11.0,-2.0,1.39
17.0,2.0,1.391
21.0,6.0,1.392
22.0,10.0,1.393
18.0,12.0,1.394
8.0,7.0,1.395
-4.0,-2.0,1.396
-11.0,-3.0,1.397
-19.0,-5.0,1.398
-25.0,-6.0,1.399
-29.0,-7.0,1.4
-23.0,-6.0,1.401
-15.0,0.0,1.402
-3.0,3.0,1.403
6.0,0.0,1.404
7.0,-6.0,1.405
8.0,-11.0,1.406
8.0,-11.0,1.407
7.0,-6.0,1.408
4.0,6.0,1.409
1.0,13.0,1.41
5.0,10.0,1.411
8.0,4.0,1.412
9.0,4.0,1.413
10.0,7.0,1.414
8.0,5.0,1.415
6.0,0.0,1.416
6.0,0.0,1.417
5.0,0.0,1.418
-3.0,-5.0,1.419
-8.0,-10.0,1.42
-7.0,-11.0,1.421
-2.0,-5.0,1.422
3.0,-1.0,1.423
10.0,-5.0,1.424
9.0,-8.0,1.425
3.0,-4.0,1.426
-3.0,0.0,1.427
-1.0,-1.0,1.428
3.0,-4.0,1.429
5.0,1.0,1.43
4.0,5.0,1.431
5.0,4.0,1.432
9.0,1.0,1.433
11.0,3.0,1.434
6.0,6.0,1.435
0.0,5.0,1.436
-1.0,1.0,1.437
-1.0,-2.0,1.438
-1.0,-1.0,1.439
-5.0,-1.0,1.44
-7.0,-6.0,1.441
-5.0,-9.0,1.442
1.0,-8.0,1.443
7.0,-6.0,1.444
5.0,-3.0,1.445
-5.0,-1.0,1.446
-15.0,-3.0,1.447
-16.0,-7.0,1.448
-9.0,-8.0,1.449
4.0,-6.0,1.45
18.0,-3.0,1.451
28.0,-2.0,1.452
30.0,0.0,1.453
27.0,3.0,1.454
19.0,3.0,1.455
6.0,-1.0,1.456
-4.0,0.0,1.457
-8.0,5.0,1.458
-4.0,7.0,1.459
-5.0,1.0,1.46
-11.0,-7.0,1.461
-15.0,-5.0,1.462
-12.0,1.0,1.463
-2.0,2.0,1.464
1.0,-1.0,1.465
2.0,-3.0,1.466
5.0,-1.0,1.467
10.0,1.0,1.468
7.0,4.0,1.469
2.0,8.0,1.47
1.0,6.0,1.471
5.0,-1.0,1.472
6.0,-5.0,1.473
6.0,-2.0,1.474
7.0,2.0,1.475
6.0,3.0,1.476
1.0,4.0,1.477
-5.0,6.0,1.478
-6.0,5.0,1.479
-6.0,-3.0,1.48
-8.0,-10.0,1.481
-11.0,-4.0,1.482
-3.0,1.0,1.483
10.0,2.0,1.484
12.0,-2.0,1.485
5.0,-1.0,1.486
2.0,0.0,1.487
12.0,0.0,1.488
21.0,-1.0,1.489
19.0,0.0,1.49
9.0,3.0,1.491
0.0,3.0,1.492
-1.0,0.0,1.493
0.0,-4.0,1.494
1.0,-3.0,1.495
1.0,-1.0,1.496
-1.0,-1.0,1.497
-5.0,-4.0,1.498
-10.0,-5.0,1.499
-16.0,-1.0,1.5
-18.0,-3.0,1.501
-13.0,-7.0,1.502
0.0,-12.0,1.503
12.0,-12.0,1.504
15.0,-5.0,1.505
14.0,0.0,1.506
16.0,0.0,1.507
18.0,-3.0,1.508
16.0,-7.0,1.509
11.0,-7.0,1.51
10.0,-1.0,1.511
13.0,8.0,1.512
13.0,11.0,1.513
9.0,7.0,1.514
5.0,5.0,1.515
1.0,7.0,1.516
1.0,9.0,1.517
2.0,3.0,1.518
4.0,-4.0,1.519
-3.0,-6.0,1.52
-15.0,-5.0,1.521
-23.0,-6.0,1.522
-18.0,-7.0,1.523
-8.0,-6.0,1.524
-4.0,-1.0,1.525
-4.0,2.0,1.526
0.0,0.0,1.527
10.0,-3.0,1.528
14.0,-2.0,1.529
8.0,5.0,1.53
4.0,9.0,1.531
8.0,8.0,1.532
12.0,0.0,1.533
10.0,-4.0,1.534
7.0,-3.0,1.535
9.0,0.0,1.536
14.0,3.0,1.537
11.0,0.0,1.538
3.0,-3.0,1.539
-4.0,-8.0,1.54
-13.0,-14.0,1.541
-23.0,-16.0,1.542
-26.0,-12.0,1.543
-15.0,-5.0,1.544
4.0,-1.0,1.545
19.0,4.0,1.546
27.0,9.0,1.547
33.0,8.0,1.548
32.0,5.0,1.549
21.0,3.0,1.55
8.0,4.0,1.551
6.0,4.0,1.552
10.0,0.0,1.553
4.0,0.0,1.554
-8.0,4.0,1.555
-10.0,7.0,1.556
3.0,7.0,1.557
12.0,0.0,1.558
8.0,-5.0,1.559
-2.0,-7.0,1.56
-7.0,-8.0,1.561
-10.0,-6.0,1.562
-8.0,-1.0,1.563
-2.0,3.0,1.564
5.0,7.0,1.565
5.0,6.0,1.566
1.0,2.0,1.567
1.0,-4.0,1.568
5.0,-6.0,1.569
5.0,-2.0,1.57
4.0,2.0,1.571
5.0,3.0,1.572
6.0,1.0,1.573
2.0,4.0,1.574
-1.0,9.0,1.575
1.0,5.0,1.576
7.0,-4.0,1.577
7.0,-13.0,1.578
5.0,-11.0,1.579
0.0,-5.0,1.58
-8.0,-5.0,1.581
-18.0,-5.0,1.582
-17.0,0.0,1.583
-5.0,1.0,1.584
2.0,-4.0,1.585
0.0,-8.0,1.586
-11.0,-4.0,1.587
-18.0,1.0,1.588
-21.0,0.0,1.589
-20.0,-4.0,1.59
-9.0,0.0,1.591
5.0,7.0,1.592
15.0,7.0,1.593
16.0,3.0,1.594
19.0,2.0,1.595
28.0,3.0,1.596
33.0,2.0,1.597
25.0,-2.0,1.598
20.0,-6.0,1.599
24.0,-6.0,1.6
25.0,-9.0,1.601
14.0,-13.0,1.602
0.0,-11.0,1.603
-1.0,-6.0,1.604
1.0,0.0,1.605
-4.0,4.0,1.606
-13.0,1.0,1.607
-9.0,-5.0,1.608
4.0,-6.0,1.609
13.0,-1.0,1.61
14.0,5.0,1.611
15.0,3.0,1.612
14.0,-1.0,1.613
8.0,3.0,1.614
0.0,13.0,1.615
-9.0,18.0,1.616
-20.0,18.0,1.617
-27.0,12.0,1.618
-23.0,8.0,1.619
-15.0,5.0,1.62
-13.0,-5.0,1.621
-14.0,-11.0,1.622
0.0,-12.0,1.623
23.0,-7.0,1.624
28.0,-3.0,1.625
12.0,-2.0,1.626
0.0,-4.0,1.627
11.0,-6.0,1.628
19.0,-6.0,1.629
9.0,-5.0,1.63
-3.0,-2.0,1.631
-3.0,2.0,1.632
3.0,0.0,1.633
2.0,0.0,1.634
0.0,1.0,1.635
1.0,6.0,1.636
5.0,8.0,1.637
0.0,4.0,1.638
-3.0,0.0,1.639
-4.0,0.0,1.64
-5.0,-5.0,1.641
-6.0,-9.0,1.642
-2.0,-12.0,1.643
9.0,-9.0,1.644
17.0,-2.0,1.645
15.0,1.0,1.646
11.0,-1.0,1.647
10.0,-7.0,1.648
10.0,-6.0,1.649
6.0,1.0,1.65
4.0,4.0,1.651
2.0,1.0,1.652
-5.0,0.0,1.653
-16.0,4.0,1.654
-18.0,10.0,1.655
-17.0,10.0,1.656
-19.0,7.0,1.657
-25.0,0.0,1.658
-22.0,-1.0,1.659
-16.0,2.0,1.66
-3.0,-2.0,1.661
10.0,-10.0,1.662
22.0,-15.0,1.663
29.0,-12.0,1.664
18.0,-5.0,1.665
7.0,-2.0,1.666
1.0,-5.0,1.667
-1.0,-7.0,1.668
12.0,-6.0,1.669
25.0,0.0,1.67
37.0,8.0,1.671
43.0,9.0,1.672
32.0,3.0,1.673
20.0,-4.0,1.674
8.0,-5.0,1.675
0.0,1.0,1.676
8.0,8.0,1.677
11.0,5.0,1.678
-5.0,1.0,1.679
-29.0,5.0,1.68
-40.0,7.0,1.681
-28.0,3.0,1.682
-3.0,-2.0,1.683
14.0,-3.0,1.684
13.0,2.0,1.685
13.0,8.0,1.686
27.0,9.0,1.687
41.0,5.0,1.688
33.0,1.0,1.689
16.0,-1.0,1.69
8.0,0.0,1.691
7.0,3.0,1.692
-1.0,3.0,1.693
-9.0,2.0,1.694
-6.0,-1.0,1.695
2.0,-2.0,1.696
2.0,2.0,1.697
-9.0,5.0,1.698
-17.0,4.0,1.699
-26.0,-1.0,1.7
-38.0,-8.0,1.701
-40.0,-8.0,1.702
-24.0,-5.0,1.703
-6.0,-2.0,1.704
-2.0,-2.0,1.705
-4.0,-3.0,1.706
0.0,-4.0,1.707
10.0,-6.0,1.708
14.0,-1.0,1.709
13.0,8.0,1.71
12.0,11.0,1.711
9.0,4.0,1.712
6.0,-5.0,1.713
3.0,-3.0,1.714
1.0,3.0,1.715
-1.0,5.0,1.716
0.0,6.0,1.717
10.0,8.0,1.718
19.0,11.0,1.719
15.0,4.0,1.72
3.0,-8.0,1.721
0.0,-15.0,1.722
7.0,-13.0,1.723
9.0,-8.0,1.724
0.0,-6.0,1.725
-9.0,-4.0,1.726
-12.0,-1.0,1.727
-14.0,-2.0,1.728
-15.0,-6.0,1.729
-8.0,-8.0,1.73
7.0,-7.0,1.731
22.0,-5.0,1.732
29.0,0.0,1.733
29.0,5.0,1.734
24.0,8.0,1.735
15.0,6.0,1.736
9.0,4.0,1.737
7.0,3.0,1.738
9.0,3.0,1.739
9.0,0.0,1.74
0.0,-7.0,1.741
-7.0,-9.0,1.742
-1.0,-7.0,1.743
0.0,-3.0,1.744
-14.0,-3.0,1.745
-23.0,-8.0,1.746
-12.0,-14.0,1.747
-2.0,-14.0,1.748
6.0,-8.0,1.749
12.0,0.0,1.75
14.0,9.0,1.751
17.0,15.0,1.752
16.0,14.0,1.753
14.0,6.0,1.754
8.0,-4.0,1.755
3.0,-5.0,1.756
-1.0,0.0,1.757
-4.0,3.0,1.758
-1.0,0.0,1.759
-3.0,-4.0,1.76
-16.0,-5.0,1.761
-28.0,-5.0,1.762
-25.0,-6.0,1.763
-13.0,-4.0,1.764
-11.0,5.0,1.765
-17.0,11.0,1.766
-13.0,5.0,1.767
11.0,-5.0,1.768
34.0,-5.0,1.769
38.0,3.0,1.77
22.0,5.0,1.771
4.0,-1.0,1.772
-6.0,-4.0,1.773
-8.0,-1.0,1.774
-4.0,-1.0,1.775
3.0,-4.0,1.776
12.0,-2.0,1.777
22.0,2.0,1.778
34.0,5.0,1.779
38.0,2.0,1.78
30.0,-6.0,1.781
17.0,-8.0,1.782
4.0,-6.0,1.783
-2.0,0.0,1.784
-7.0,4.0,1.785
-11.0,7.0,1.786
-7.0,6.0,1.787
-3.0,5.0,1.788
-6.0,7.0,1.789
-10.0,5.0,1.79
-3.0,-1.0,1.791
11.0,-5.0,1.792
16.0,-2.0,1.793
8.0,5.0,1.794
0.0,9.0,1.795
-1.0,5.0,1.796
-2.0,2.0,1.797
-6.0,-3.0,1.798
-10.0,-8.0,1.799
-12.0,-9.0,1.8
-13.0,-11.0,1.801
-11.0,-6.0,1.802
-4.0,4.0,1.803
3.0,12.0,1.804
5.0,12.0,1.805
4.0,6.0,1.806
6.0,-1.0,1.807
10.0,-5.0,1.808
10.0,-7.0,1.809
6.0,-5.0,1.81
8.0,-4.0,1.811
10.0,-1.0,1.812
10.0,0.0,1.813
6.0,-1.0,1.814
4.0,0.0,1.815
3.0,-1.0,1.816
3.0,-3.0,1.817
-1.0,-7.0,1.818
-4.0,-5.0,1.819
-4.0,3.0,1.82
0.0,4.0,1.821
2.0,-2.0,1.822
6.0,-10.0,1.823
15.0,-10.0,1.824
23.0,-8.0,1.825
20.0,-8.0,1.826
7.0,-12.0,1.827
-1.0,-7.0,1.828
1.0,1.0,1.829
9.0,5.0,1.83
7.0,2.0,1.831
0.0,0.0,1.832
-5.0,2.0,1.833
-8.0,3.0,1.834
-9.0,2.0,1.835
-7.0,1.0,1.836
-5.0,0.0,1.837
-5.0,-3.0,1.838
-6.0,-5.0,1.839
-5.0,-3.0,1.84
-2.0,-2.0,1.841
2.0,-5.0,1.842
10.0,-6.0,1.843
20.0,0.0,1.844
25.0,8.0,1.845
16.0,10.0,1.846
0.0,6.0,1.847
-5.0,2.0,1.848
-3.0,4.0,1.849
-4.0,8.0,1.85
-5.0,10.0,1.851
1.0,8.0,1.852
10.0,5.0,1.853
9.0,3.0,1.854
0.0,3.0,1.855
-3.0,4.0,1.856
1.0,4.0,1.857
3.0,0.0,1.858
1.0,-1.0,1.859
-2.0,-4.0,1.86
-3.0,-11.0,1.861
-3.0,-14.0,1.862
-2.0,-9.0,1.863
2.0,2.0,1.864
2.0,10.0,1.865
-4.0,8.0,1.866
-7.0,2.0,1.867
0.0,0.0,1.868
5.0,4.0,1.869
0.0,5.0,1.87
-3.0,-3.0,1.871
1.0,-9.0,1.872
6.0,-8.0,1.873
0.0,-1.0,1.874
-6.0,2.0,1.875
-1.0,-1.0,1.876
12.0,-4.0,1.877
17.0,-9.0,1.878
15.0,-5.0,1.879
12.0,-5.0,1.88
2.0,-13.0,1.881
-5.0,-18.0,1.882
-5.0,-15.0,1.883
-5.0,-12.0,1.884
-2.0,-7.0,1.885
3.0,-2.0,1.886
12.0,0.0,1.887
22.0,2.0,1.888
34.0,2.0,1.889
39.0,3.0,1.89
24.0,7.0,1.891
10.0,10.0,1.892
-1.0,11.0,1.893
-10.0,13.0,1.894
-9.0,10.0,1.895
-7.0,7.0,1.896
-4.0,3.0,1.897
0.0,-6.0,1.898
-5.0,-4.0,1.899
-9.0,-4.0,1.9
-13.0,-9.0,1.901
-14.0,-12.0,1.902
-5.0,-10.0,1.903
6.0,-8.0,1.904
6.0,-5.0,1.905
-4.0,-2.0,1.906
-5.0,0.0,1.907
5.0,1.0,1.908
9.0,1.0,1.909
-2.0,2.0,1.91
-10.0,4.0,1.911
-2.0,6.0,1.912
7.0,7.0,1.913
3.0,8.0,1.914
-3.0,6.0,1.915
-1.0,4.0,1.916
7.0,2.0,1.917
9.0,0.0,1.918
7.0,-4.0,1.919
12.0,-6.0,1.92
15.0,-5.0,1.921
12.0,1.0,1.922
8.0,3.0,1.923
5.0,2.0,1.924
0.0,1.0,1.925
-4.0,3.0,1.926
-2.0,5.0,1.927
5.0,2.0,1.928
4.0,-3.0,1.929
-6.0,-8.0,1.93
-9.0,-5.0,1.931
-2.0,-1.0,1.932
0.0,0.0,1.933
-8.0,-2.0,1.934
-13.0,-3.0,1.935
-8.0,0.0,1.936
3.0,1.0,1.937
11.0,-5.0,1.938
15.0,-9.0,1.939
15.0,-5.0,1.94
8.0,-3.0,1.941
1.0,-5.0,1.942
6.0,-8.0,1.943
16.0,-2.0,1.944
10.0,8.0,1.945
-7.0,7.0,1.946
-13.0,-2.0,1.947
-4.0,-7.0,1.948
5.0,-4.0,1.949
3.0,0.0,1.95
3.0,-1.0,1.951
9.0,0.0,1.952
12.0,6.0,1.953
6.0,9.0,1.954
1.0,7.0,1.955
7.0,4.0,1.956
13.0,3.0,1.957
10.0,-3.0,1.958
5.0,-7.0,1.959
2.0,-9.0,1.96
-1.0,-6.0,1.961
-9.0,-2.0,1.962
-12.0,0.0,1.963
-3.0,2.0,1.964
6.0,6.0,1.965
4.0,7.0,1.966
-6.0,1.0,1.967
-12.0,-3.0,1.968
-10.0,-1.0,1.969
-8.0,1.0,1.97
-5.0,5.0,1.971
2.0,6.0,1.972
14.0,0.0,1.973
21.0,-5.0,1.974
22.0,-4.0,1.975
19.0,-1.0,1.976
17.0,7.0,1.977
16.0,13.0,1.978
13.0,7.0,1.979
0.0,-4.0,1.98
-14.0,-13.0,1.981
-19.0,-12.0,1.982
-10.0,-6.0,1.983
1.0,0.0,1.984
0.0,-1.0,1.985
-7.0,-4.0,1.986
-5.0,-4.0,1.987
6.0,0.0,1.988
12.0,0.0,1.989
10.0,-1.0,1.99
10.0,0.0,1.991
16.0,2.0,1.992
17.0,0.0,1.993
8.0,-3.0,1.994
-1.0,-3.0,1.995
-3.0,2.0,1.996
-4.0,3.0,1.997
-7.0,-4.0,1.998
-9.0,-8.0,1.999
-9.0,-7.0,2.0
-4.0,-6.0,2.001
1.0,-7.0,2.002
8.0,-4.0,2.003
11.0,-1.0,2.004
8.0,-3.0,2.005
0.0,-6.0,2.006
-4.0,-2.0,2.007
0.0,4.0,2.008
11.0,7.0,2.009
15.0,4.0,2.01
12.0,3.0,2.011
4.0,5.0,2.012
2.0,6.0,2.013
8.0,3.0,2.014
16.0,3.0,2.015
18.0,3.0,2.016
15.0,3.0,2.017
4.0,-1.0,2.018
-2.0,-3.0,2.019
-8.0,-3.0,2.02
-9.0,-7.0,2.021
-9.0,-8.0,2.022
-2.0,-6.0,2.023
4.0,0.0,2.024
5.0,7.0,2.025
5.0,9.0,2.026
2.0,8.0,2.027
0.0,4.0,2.028
-1.0,0.0,2.029
-2.0,-1.0,2.03
0.0,0.0,2.031
3.0,2.0,2.032
6.0,5.0,2.033
8.0,8.0,2.034
2.0,8.0,2.035
-3.0,4.0,2.036
-8.0,2.0,2.037
-13.0,0.0,2.038
-17.0,-1.0,2.039
-22.0,-4.0,2.04
-28.0,-8.0,2.041
-27.0,-12.0,2.042
-6.0,-12.0,2.043
24.0,-10.0,2.044
39.0,-6.0,2.045
37.0,-2.0,2.046
35.0,-2.0,2.047
39.0,-1.0,2.048
34.0,0.0,2.049
18.0,3.0,2.05
7.0,7.0,2.051
10.0,8.0,2.052
16.0,1.0,2.053
19.0,-3.0,2.054
19.0,4.0,2.055
9.0,8.0,2.056
-11.0,2.0,2.057
-25.0,-4.0,2.058
-24.0,-10.0,2.059
-20.0,-7.0,2.06
-33.0,-6.0,2.061
-49.0,-9.0,2.062
-36.0,-11.0,2.063
0.0,-8.0,2.064
22.0,0.0,2.065
18.0,4.0,2.066
11.0,0.0,2.067
15.0,-2.0,2.068
19.0,0.0,2.069
14.0,0.0,2.07
12.0,-1.0,2.071
18.0,-2.0,2.072
23.0,2.0,2.073
16.0,5.0,2.074
1.0,1.0,2.075
-10.0,-4.0,2.076
-17.0,-5.0,2.077
-22.0,-3.0,2.078
-22.0,-2.0,2.079
-18.0,-5.0,2.08
-6.0,-9.0,2.081
10.0,-6.0,2.082
26.0,1.0,2.083
30.0,8.0,2.084
18.0,11.0,2.085
5.0,7.0,2.086
7.0,3.0,2.087
16.0,6.0,2.088
12.0,11.0,2.089
-1.0,11.0,2.09
-8.0,6.0,2.091
-4.0,1.0,2.092
-3.0,1.0,2.093
-4.0,5.0,2.094
-2.0,8.0,2.095
-1.0,6.0,2.096
-1.0,7.0,2.097
-5.0,3.0,2.098
-3.0,-3.0,2.099
0.0,-10.0,2.1
-6.0,-14.0,2.101
-11.0,-11.0,2.102
-6.0,-10.0,2.103
3.0,-9.0,2.104
8.0,-5.0,2.105
10.0,-3.0,2.106
14.0,-4.0,2.107
17.0,-8.0,2.108
13.0,-6.0,2.109
11.0,2.0,2.11
13.0,5.0,2.111
10.0,-1.0,2.112
-1.0,-6.0,2.113
-13.0,-4.0,2.114
-16.0,-3.0,2.115
-17.0,-5.0,2.116
-17.0,-3.0,2.117
-19.0,-6.0,2.118
-23.0,-4.0,2.119
-22.0,-3.0,2.12
-7.0,-3.0,2.121
10.0,-2.0,2.122
34.0,-3.0,2.123
51.0,-3.0,2.124
42.0,-1.0,2.125
33.0,0.0,2.126
27.0,0.0,2.127
22.0,2.0,2.128
22.0,7.0,2.129
20.0,12.0,2.13
17.0,10.0,2.131
10.0,9.0,2.132
-8.0,11.0,2.133
-26.0,12.0,2.134
-38.0,6.0,2.135
-43.0,0.0,2.136
-27.0,-7.0,2.137
-5.0,-6.0,2.138
20.0,-4.0,2.139
24.0,-3.0,2.14
19.0,-3.0,2.141
20.0,-2.0,2.142
24.0,-3.0,2.143
20.0,-3.0,2.144
17.0,-1.0,2.145
18.0,0.0,2.146
20.0,0.0,2.147
18.0,2.0,2.148
14.0,7.0,2.149
9.0,12.0,2.15
1.0,10.0,2.151
-4.0,9.0,2.152
-9.0,11.0,2.153
-17.0,12.0,2.154
-31.0,6.0,2.155
-38.0,0.0,2.156
-25.0,-7.0,2.157
0.0,-12.0,2.158
20.0,-9.0,2.159
21.0,-10.0,2.16
10.0,-18.0,2.161
-11.0,-18.0,2.162
-34.0,-8.0,2.163
-40.0,4.0,2.164
-25.0,10.0,2.165
-12.0,13.0,2.166
-18.0,13.0,2.167
-26.0,7.0,2.168
-15.0,-4.0,2.169
11.0,-12.0,2.17
26.0,-9.0,2.171
29.0,-1.0,2.172
33.0,6.0,2.173
36.0,12.0,2.174
24.0,14.0,2.175
2.0,9.0,2.176
-11.0,0.0,2.177
-10.0,-12.0,2.178
-2.0,-10.0,2.179
-2.0,-7.0,2.18
-5.0,-11.0,2.181
-3.0,-18.0,2.182
3.0,-21.0,2.183
6.0,-13.0,2.184
6.0,-2.0,2.185
2.0,6.0,2.186
-1.0,9.0,2.187
-3.0,9.0,2.188
-3.0,9.0,2.189
-4.0,11.0,2.19
-4.0,11.0,2.191
2.0,7.0,2.192
16.0,2.0,2.193
25.0,1.0,2.194
25.0,4.0,2.195
23.0,2.0,2.196
23.0,0.0,2.197
21.0,-3.0,2.198
15.0,-7.0,2.199
9.0,-11.0,2.2
9.0,-15.0,2.201
13.0,-9.0,2.202
13.0,-2.0,2.203
4.0,-2.0,2.204
-9.0,-2.0,2.205
-18.0,1.0,2.206
-11.0,3.0,2.207
4.0,0.0,2.208
14.0,-1.0,2.209
8.0,1.0,2.21
0.0,2.0,2.211
-1.0,0.0,2.212
-2.0,0.0,2.213
-6.0,1.0,2.214
-5.0,-1.0,2.215
1.0,-7.0,2.216
7.0,-6.0,2.217
4.0,0.0,2.218
3.0,4.0,2.219
0.0,0.0,2.22
-4.0,-5.0,2.221
-7.0,-5.0,2.222
0.0,-1.0,2.223
12.0,-1.0,2.224
12.0,1.0,2.225
0.0,5.0,2.226
-6.0,4.0,2.227
-6.0,-3.0,2.228
-5.0,-6.0,2.229
-1.0,-3.0,2.23
6.0,1.0,2.231
9.0,2.0,2.232
2.0,1.0,2.233
-4.0,2.0,2.234
-2.0,-1.0,2.235
3.0,-4.0,2.236
0.0,-6.0,2.237
-6.0,-6.0,2.238
-3.0,-5.0,2.239
-1.0,-5.0,2.24
-8.0,-9.0,2.241
-16.0,-10.0,2.242
-12.0,-8.0,2.243
-2.0,-3.0,2.244
1.0,-2.0,2.245
5.0,-5.0,2.246
20.0,-6.0,2.247
31.0,-4.0,2.248
21.0,0.0,2.249
-6.0,2.0,2.25
-23.0,4.0,2.251
-21.0,6.0,2.252
-12.0,5.0,2.253
-5.0,0.0,2.254
10.0,-1.0,2.255
35.0,3.0,2.256
58.0,11.0,2.257
67.0,16.0,2.258
61.0,16.0,2.259
45.0,12.0,2.26
27.0,0.0,2.261
12.0,-7.0,2.262
-1.0,-6.0,2.263
-15.0,4.0,2.264
-35.0,12.0,2.265
-53.0,9.0,2.266
-56.0,-2.0,2.267
-43.0,-8.0,2.268
-27.0,-6.0,2.269
-12.0,1.0,2.27
2.0,2.0,2.271
12.0,-3.0,2.272
13.0,-7.0,2.273
11.0,-8.0,2.274
16.0,-3.0,2.275
25.0,6.0,2.276
27.0,17.0,2.277
16.0,16.0,2.278
-1.0,4.0,2.279
-11.0,-10.0,2.28
-10.0,-19.0,2.281
1.0,-16.0,2.282
14.0,-11.0,2.283
14.0,-6.0,2.284
0.0,0.0,2.285
-5.0,3.0,2.286
3.0,-1.0,2.287
14.0,-8.0,2.288
14.0,-9.0,2.289
9.0,-5.0,2.29
8.0,-2.0,2.291
5.0,-1.0,2.292
-5.0,7.0,2.293
-14.0,19.0,2.294
-12.0,23.0,2.295
-9.0,14.0,2.296
-8.0,3.0,2.297
-9.0,-4.0,2.298
-3.0,-6.0,2.299
2.0,-9.0,2.3
0.0,-16.0,2.301
-2.0,-16.0,2.302
6.0,-8.0,2.303
13.0,-3.0,2.304
9.0,-2.0,2.305
0.0,-4.0,2.306
-2.0,-6.0,2.307
4.0,-5.0,2.308
7.0,0.0,2.309
6.0,2.0,2.31
4.0,2.0,2.311
1.0,0.0,2.312
-2.0,0.0,2.313
0.0,1.0,2.314
6.0,3.0,2.315
9.0,5.0,2.316
3.0,8.0,2.317
-7.0,9.0,2.318
-10.0,6.0,2.319
-11.0,0.0,2.32
-14.0,-7.0,2.321
-14.0,-9.0,2.322
-7.0,-10.0,2.323
3.0,-6.0,2.324
4.0,0.0,2.325
-3.0,2.0,2.326
-5.0,0.0,2.327
-2.0,-2.0,2.328
2.0,0.0,2.329
4.0,3.0,2.33
14.0,6.0,2.331
32.0,8.0,2.332
40.0,10.0,2.333
28.0,7.0,2.334
5.0,0.0,2.335
-12.0,-7.0,2.336
-15.0,-7.0,2.337
-7.0,-3.0,2.338
2.0,6.0,2.339
8.0,9.0,2.34
15.0,0.0,2.341
27.0,-7.0,2.342
40.0,-7.0,2.343
44.0,0.0,2.344
34.0,2.0,2.345
20.0,-7.0,2.346
13.0,-11.0,2.347
12.0,-8.0,2.348
9.0,-2.0,2.349
0.0,-2.0,2.35
-8.0,-3.0,2.351
-12.0,5.0,2.352
-11.0,12.0,2.353
-10.0,14.0,2.354
-10.0,9.0,2.355
-11.0,6.0,2.356
-7.0,8.0,2.357
-2.0,8.0,2.358
-2.0,5.0,2.359
-9.0,-1.0,2.36
-19.0,-10.0,2.361
-20.0,-12.0,2.362
-9.0,-10.0,2.363
3.0,-8.0,2.364
3.0,-5.0,2.365
-4.0,-2.0,2.366
-6.0,-1.0,2.367
-2.0,0.0,2.368
1.0,0.0,2.369
0.0,4.0,2.37
8.0,7.0,2.371
23.0,3.0,2.372
29.0,1.0,2.373
18.0,3.0,2.374
7.0,3.0,2.375
10.0,-2.0,2.376
16.0,-4.0,2.377
4.0,-3.0,2.378
-17.0,0.0,2.379
-26.0,-3.0,2.38
-22.0,-11.0,2.381
-13.0,-15.0,2.382
2.0,-10.0,2.383
27.0,-1.0,2.384
46.0,4.0,2.385
40.0,3.0,2.386
14.0,-4.0,2.387
-7.0,-6.0,2.388
-17.0,0.0,2.389
-23.0,2.0,2.39
-31.0,-4.0,2.391
-35.0,-9.0,2.392
-28.0,0.0,2.393
-14.0,12.0,2.394
-2.0,13.0,2.395
5.0,5.0,2.396
10.0,2.0,2.397
11.0,0.0,2.398
8.0,-4.0,2.399
5.0,-10.0,2.4
3.0,-16.0,2.401
3.0,-14.0,2.402
6.0,-7.0,2.403
7.0,2.0,2.404
3.0,8.0,2.405
0.0,5.0,2.406
2.0,-4.0,2.407
12.0,-5.0,2.408
23.0,1.0,2.409
28.0,4.0,2.41
26.0,2.0,2.411
19.0,6.0,2.412
12.0,16.0,2.413
9.0,16.0,2.414
10.0,3.0,2.415
10.0,-7.0,2.416
2.0,-3.0,2.417
-8.0,3.0,2.418
-11.0,2.0,2.419
-9.0,0.0,2.42
-9.0,-5.0,2.421
-8.0,-8.0,2.422
2.0,-12.0,2.423
15.0,-15.0,2.424
18.0,-10.0,2.425
11.0,-3.0,2.426
5.0,-1.0,2.427
3.0,-1.0,2.428
-2.0,5.0,2.429
-7.0,12.0,2.43
-3.0,14.0,2.431
14.0,9.0,2.432
29.0,1.0,2.433
32.0,-5.0,2.434
27.0,-1.0,2.435
20.0,5.0,2.436
9.0,8.0,2.437
-10.0,2.0,2.438
-25.0,-4.0,2.439
-33.0,-6.0,2.44
-33.0,-7.0,2.441
-25.0,-6.0,2.442
-6.0,-6.0,2.443
10.0,-5.0,2.444
3.0,-4.0,2.445
-14.0,-2.0,2.446
-21.0,-5.0,2.447
-10.0,-8.0,2.448
3.0,-8.0,2.449
9.0,-1.0,2.45
14.0,5.0,2.451
23.0,0.0,2.452
25.0,-4.0,2.453
19.0,0.0,2.454
13.0,7.0,2.455
11.0,10.0,2.456
10.0,12.0,2.457
1.0,15.0,2.458
-5.0,14.0,2.459
-10.0,-1.0,2.46
-17.0,-19.0,2.461
-21.0,-17.0,2.462
-12.0,-1.0,2.463
2.0,5.0,2.464
7.0,-1.0,2.465
2.0,-6.0,2.466
1.0,-5.0,2.467
13.0,-5.0,2.468
24.0,-7.0,2.469
25.0,-3.0,2.47
18.0,6.0,2.471
9.0,8.0,2.472
0.0,1.0,2.473
0.0,0.0,2.474
6.0,3.0,2.475
11.0,2.0,2.476
10.0,-2.0,2.477
8.0,-6.0,2.478
6.0,-5.0,2.479
-2.0,-4.0,2.48
-17.0,-7.0,2.481
-24.0,-4.0,2.482
-13.0,-2.0,2.483
5.0,-1.0,2.484
10.0,1.0,2.485
2.0,4.0,2.486
-1.0,3.0,2.487
4.0,-1.0,2.488
7.0,0.0,2.489
2.0,8.0,2.49
0.0,9.0,2.491
4.0,0.0,2.492
11.0,-6.0,2.493
10.0,-3.0,2.494
5.0,2.0,2.495
2.0,3.0,2.496
0.0,5.0,2.497
-4.0,6.0,2.498
-5.0,5.0,2.499
-6.0,0.0,2.5
-5.0,-7.0,2.501
-2.0,-7.0,2.502
3.0,-5.0,2.503
9.0,-4.0,2.504
7.0,-1.0,2.505
6.0,2.0,2.506
7.0,4.0,2.507
8.0,2.0,2.508
10.0,-1.0,2.509
11.0,-3.0,2.51
8.0,-4.0,2.511
6.0,-2.0,2.512
4.0,0.0,2.513
3.0,2.0,2.514
2.0,4.0,2.515
1.0,7.0,2.516
1.0,10.0,2.517
0.0,4.0,2.518
0.0,-2.0,2.519
-3.0,-8.0,2.52
-4.0,-8.0,2.521
-5.0,-9.0,2.522
0.0,-9.0,2.523
7.0,-7.0,2.524
8.0,-3.0,2.525
2.0,0.0,2.526
3.0,0.0,2.527
7.0,0.0,2.528
6.0,-1.0,2.529
2.0,-2.0,2.53
2.0,0.0,2.531
7.0,1.0,2.532
8.0,1.0,2.533
3.0,1.0,2.534
0.0,1.0,2.535
0.0,2.0,2.536
3.0,3.0,2.537
2.0,4.0,2.538
-1.0,1.0,2.539
-5.0,-3.0,2.54
-7.0,-9.0,2.541
-6.0,-7.0,2.542
-1.0,-2.0,2.543
3.0,1.0,2.544
3.0,0.0,2.545
-1.0,-2.0,2.546
-3.0,-3.0,2.547
2.0,-4.0,2.548
9.0,-3.0,2.549
11.0,0.0,2.55
8.0,2.0,2.551
5.0,3.0,2.552
4.0,3.0,2.553
4.0,7.0,2.554
4.0,9.0,2.555
4.0,5.0,2.556
2.0,2.0,2.557
0.0,-1.0,2.558
0.0,-3.0,2.559
-3.0,-6.0,2.56
-7.0,-9.0,2.561
-7.0,-6.0,2.562
0.0,-2.0,2.563
8.0,-2.0,2.564
8.0,-2.0,2.565
3.0,-2.0,2.566
3.0,-3.0,2.567
6.0,-5.0,2.568
7.0,-4.0,2.569
3.0,1.0,2.57
4.0,3.0,2.571
8.0,1.0,2.572
10.0,1.0,2.573
8.0,3.0,2.574
10.0,7.0,2.575
13.0,4.0,2.576
14.0,0.0,2.577
8.0,-2.0,2.578
0.0,0.0,2.579
-8.0,-1.0,2.58
-15.0,-7.0,2.581
-16.0,-8.0,2.582
-7.0,-8.0,2.583
2.0,-5.0,2.584
4.0,-2.0,2.585
-2.0,0.0,2.586
-8.0,0.0,2.587
-11.0,-1.0,2.588
-15.0,-3.0,2.589
-15.0,0.0,2.59
-6.0,2.0,2.591
9.0,2.0,2.592
23.0,0.0,2.593
27.0,-2.0,2.594
25.0,-2.0,2.595
21.0,-2.0,2.596
16.0,0.0,2.597
9.0,0.0,2.598
4.0,-2.0,2.599
4.0,-4.0,2.6
3.0,-6.0,2.601
3.0,-8.0,2.602
7.0,-6.0,2.603
16.0,-4.0,2.604
18.0,-1.0,2.605
8.0,1.0,2.606
-5.0,2.0,2.607
-8.0,3.0,2.608
-3.0,3.0,2.609
0.0,4.0,2.61
-2.0,4.0,2.611
-1.0,5.0,2.612
1.0,5.0,2.613
-2.0,4.0,2.614
-11.0,4.0,2.615
-10.0,3.0,2.616
3.0,1.0,2.617
15.0,0.0,2.618
11.0,-1.0,2.619
-2.0,-2.0,2.62
-7.0,-10.0,2.621
-5.0,-12.0,2.622
-2.0,-9.0,2.623
-1.0,-5.0,2.624
-2.0,-3.0,2.625
-3.0,-4.0,2.626
-3.0,-6.0,2.627
-1.0,-5.0,2.628
2.0,-3.0,2.629
3.0,0.0,2.63
4.0,5.0,2.631
7.0,12.0,2.632
11.0,24.0,2.633
7.0,31.0,2.634
5.0,26.0,2.635
7.0,9.0,2.636
10.0,-3.0,2.637
9.0,-6.0,2.638
3.0,-4.0,2.639
-3.0,-2.0,2.64
-8.0,-3.0,2.641
-7.0,-2.0,2.642
4.0,-6.0,2.643
17.0,-12.0,2.644
19.0,-14.0,2.645
8.0,-5.0,2.646
-1.0,0.0,2.647
-2.0,-6.0,2.648
0.0,-13.0,2.649
1.0,-10.0,2.65
7.0,-4.0,2.651
15.0,-2.0,2.652
17.0,-4.0,2.653
11.0,-2.0,2.654
5.0,4.0,2.655
4.0,4.0,2.656
3.0,2.0,2.657
0.0,-1.0,2.658
1.0,0.0,2.659
3.0,-1.0,2.66
0.0,-6.0,2.661
-3.0,-8.0,2.662
2.0,-6.0,2.663
9.0,-5.0,2.664
4.0,-3.0,2.665
-4.0,-1.0,2.666
-5.0,-2.0,2.667
-3.0,-4.0,2.668
-10.0,-3.0,2.669
-21.0,-1.0,2.67
-18.0,-2.0,2.671
-3.0,-5.0,2.672
9.0,-6.0,2.673
16.0,-2.0,2.674
29.0,0.0,2.675
40.0,-1.0,2.676
36.0,3.0,2.677
17.0,0.0,2.678
6.0,0.0,2.679
-2.0,-2.0,2.68
-3.0,-12.0,2.681
-6.0,-22.0,2.682
-11.0,-22.0,2.683
-16.0,-17.0,2.684
-14.0,-5.0,2.685
-13.0,2.0,2.686
-11.0,-7.0,2.687
-7.0,-10.0,2.688
6.0,2.0,2.689
15.0,15.0,2.69
5.0,12.0,2.691
-2.0,10.0,2.692
-3.0,10.0,2.693
-2.0,7.0,2.694
10.0,5.0,2.695
21.0,2.0,2.696
28.0,0.0,2.697
35.0,0.0,2.698
34.0,0.0,2.699
21.0,-1.0,2.7
9.0,-5.0,2.701
6.0,-9.0,2.702
5.0,-9.0,2.703
-8.0,-7.0,2.704
-26.0,-2.0,2.705
-29.0,1.0,2.706
-17.0,-3.0,2.707
-10.0,-4.0,2.708
-15.0,1.0,2.709
-14.0,6.0,2.71
-2.0,5.0,2.711
10.0,4.0,2.712
11.0,4.0,2.713
10.0,3.0,2.714
18.0,2.0,2.715
24.0,1.0,2.716
14.0,0.0,2.717
-16.0,-1.0,2.718
-38.0,-4.0,2.719
-41.0,-9.0,2.72
-28.0,-14.0,2.721
-14.0,-14.0,2.722
-7.0,-12.0,2.723
-5.0,-8.0,2.724
2.0,2.0,2.725
13.0,12.0,2.726
21.0,15.0,2.727
26.0,11.0,2.728
31.0,8.0,2.729
37.0,7.0,2.73
40.0,3.0,2.731
41.0,-4.0,2.732
43.0,-7.0,2.733
41.0,-5.0,2.734
29.0,0.0,2.735
8.0,2.0,2.736
-5.0,2.0,2.737
-13.0,4.0,2.738
-20.0,6.0,2.739
-26.0,6.0,2.74
-27.0,0.0,2.741
-19.0,-7.0,2.742
-9.0,-11.0,2.743
-2.0,-9.0,2.744
3.0,-4.0,2.745
6.0,-2.0,2.746
5.0,-5.0,2.747
4.0,-7.0,2.748
9.0,-6.0,2.749
9.0,1.0,2.75
-2.0,8.0,2.751
-19.0,12.0,2.752
-29.0,13.0,2.753
-26.0,13.0,2.754
-14.0,12.0,2.755
3.0,8.0,2.756
24.0,3.0,2.757
44.0,-2.0,2.758
48.0,-4.0,2.759
29.0,-6.0,2.76
0.0,-7.0,2.761
-14.0,-8.0,2.762
-7.0,-8.0,2.763
-2.0,-6.0,2.764
-13.0,-4.0,2.765
-23.0,-3.0,2.766
-16.0,-4.0,2.767
6.0,-6.0,2.768
16.0,-4.0,2.769
9.0,-1.0,2.77
1.0,5.0,2.771
1.0,10.0,2.772
1.0,4.0,2.773
2.0,0.0,2.774
9.0,2.0,2.775
16.0,4.0,2.776
16.0,2.0,2.777
6.0,-2.0,2.778
-1.0,-7.0,2.779
-5.0,-4.0,2.78
-9.0,-2.0,2.781
-11.0,0.0,2.782
-5.0,0.0,2.783
-2.0,-1.0,2.784
-15.0,-5.0,2.785
-37.0,-8.0,2.786
-36.0,-4.0,2.787
-9.0,1.0,2.788
18.0,2.0,2.789
23.0,-3.0,2.79
11.0,-6.0,2.791
4.0,-1.0,2.792
15.0,2.0,2.793
36.0,2.0,2.794
52.0,2.0,2.795
54.0,6.0,2.796
44.0,8.0,2.797
24.0,2.0,2.798
0.0,-8.0,2.799
-28.0,-12.0,2.8
-48.0,-12.0,2.801
-42.0,-8.0,2.802
-11.0,-5.0,2.803
20.0,-4.0,2.804
28.0,-2.0,2.805
17.0,3.0,2.806
8.0,9.0,2.807
7.0,12.0,2.808
4.0,6.0,2.809
0.0,-1.0,2.81
1.0,-8.0,2.811
10.0,-6.0,2.812
11.0,1.0,2.813
-3.0,8.0,2.814
-17.0,5.0,2.815
-15.0,-5.0,2.816
1.0,-9.0,2.817
15.0,-2.0,2.818
14.0,-1.0,2.819
3.0,1.0,2.82
4.0,6.0,2.821
24.0,11.0,2.822
47.0,13.0,2.823
50.0,12.0,2.824
22.0,-2.0,2.825
-16.0,-13.0,2.826
-37.0,-20.0,2.827
-36.0,-25.0,2.828
-28.0,-22.0,2.829
-23.0,-18.0,2.83
-19.0,-11.0,2.831
-16.0,-6.0,2.832
-14.0,-11.0,2.833
-15.0,-12.0,2.834
-13.0,-4.0,2.835
-5.0,3.0,2.836
0.0,0.0,2.837
-9.0,1.0,2.838
-27.0,2.0,2.839
-49.0,6.0,2.84
-59.0,14.0,2.841
-47.0,21.0,2.842
-22.0,25.0,2.843
5.0,23.0,2.844
25.0,0.0,2.845
42.0,-19.0,2.846
60.0,-30.0,2.847
65.0,-38.0,2.848
58.0,-34.0,2.849
54.0,-27.0,2.85
62.0,-15.0,2.851
76.0,-7.0,2.852
81.0,-15.0,2.853
80.0,-17.0,2.854
81.0,-2.0,2.855
74.0,8.0,2.856
52.0,4.0,2.857
15.0,1.0,2.858
-17.0,2.0,2.859
-39.0,0.0,2.86
-58.0,-7.0,2.861
-69.0,-9.0,2.862
-58.0,-2.0,2.863
-25.0,6.0,2.864
6.0,9.0,2.865
12.0,7.0,2.866
-1.0,5.0,2.867
-13.0,7.0,2.868
-23.0,21.0,2.869
-43.0,33.0,2.87
-64.0,26.0,2.871
-60.0,4.0,2.872
-31.0,-10.0,2.873
-6.0,-8.0,2.874
-2.0,-3.0,2.875
-2.0,-9.0,2.876
7.0,-15.0,2.877
14.0,-11.0,2.878
6.0,3.0,2.879
-8.0,11.0,2.88
-10.0,7.0,2.881
-7.0,5.0,2.882
-5.0,7.0,2.883
-2.0,7.0,2.884
9.0,1.0,2.885
21.0,-3.0,2.886
23.0,0.0,2.887
15.0,3.0,2.888
11.0,-1.0,2.889
11.0,-5.0,2.89
8.0,-6.0,2.891
0.0,-5.0,2.892
-7.0,-5.0,2.893
-10.0,-8.0,2.894
-4.0,-11.0,2.895
6.0,-10.0,2.896
15.0,-6.0,2.897
13.0,1.0,2.898
5.0,5.0,2.899
0.0,3.0,2.9
1.0,-7.0,2.901
4.0,-11.0,2.902
8.0,-4.0,2.903
9.0,9.0,2.904
2.0,17.0,2.905
-3.0,15.0,2.906
-3.0,12.0,2.907
-1.0,18.0,2.908
4.0,27.0,2.909
8.0,17.0,2.91
2.0,-8.0,2.911
1.0,-29.0,2.912
15.0,-28.0,2.913
28.0,-14.0,2.914
36.0,-7.0,2.915
39.0,-9.0,2.916
28.0,-8.0,2.917
10.0,0.0,2.918
-22.0,5.0,2.919
-33.0,8.0,2.92
-29.0,-4.0,2.921
-28.0,-10.0,2.922
-26.0,3.0,2.923
-5.0,12.0,2.924
15.0,6.0,2.925
13.0,0.0,2.926
-3.0,-5.0,2.927
-4.0,-10.0,2.928
12.0,-8.0,2.929
20.0,-7.0,2.93
17.0,-11.0,2.931
18.0,-12.0,2.932
21.0,-5.0,2.933
14.0,0.0,2.934
1.0,4.0,2.935
-6.0,4.0,2.936
-8.0,-7.0,2.937
-18.0,-18.0,2.938
-35.0,-23.0,2.939
-47.0,-18.0,2.94
-54.0,-9.0,2.941
-56.0,1.0,2.942
-42.0,11.0,2.943
-14.0,17.0,2.944
3.0,15.0,2.945
-6.0,8.0,2.946
-13.0,0.0,2.947
15.0,-3.0,2.948
69.0,0.0,2.949
105.0,7.0,2.95
114.0,16.0,2.951
106.0,23.0,2.952
90.0,21.0,2.953
61.0,14.0,2.954
28.0,8.0,2.955
3.0,1.0,2.956
-13.0,-7.0,2.957
-23.0,-12.0,2.958
-17.0,-10.0,2.959
0.0,-8.0,2.96
7.0,-16.0,2.961
-4.0,-25.0,2.962
-14.0,-23.0,2.963
-4.0,-13.0,2.964
9.0,-5.0,2.965
0.0,6.0,2.966
-19.0,17.0,2.967
-24.0,15.0,2.968
-20.0,-4.0,2.969
-22.0,-20.0,2.97
-34.0,-12.0,2.971
-42.0,5.0,2.972
-48.0,8.0,2.973
-57.0,0.0,2.974
-68.0,5.0,2.975
-77.0,15.0,2.976
-78.0,12.0,2.977
-61.0,-1.0,2.978
-14.0,1.0,2.979
36.0,24.0,2.98
93.0,30.0,2.981
142.0,16.0,2.982
166.0,3.0,2.983
177.0,8.0,2.984
146.0,15.0,2.985
118.0,9.0,2.986
99.0,-5.0,2.987
75.0,-11.0,2.988
40.0,-12.0,2.989
9.0,-17.0,2.99
-8.0,-22.0,2.991
-30.0,-20.0,2.992
-66.0,-8.0,2.993
-93.0,4.0,2.994
-97.0,8.0,2.995
-89.0,-1.0,2.996
-46.0,-15.0,2.997
-11.0,-26.0,2.998
-20.0,-22.0,2.999
-35.0,-14.0,3.0
-43.0,-12.0,3.001
-53.0,-2.0,3.002
-67.0,24.0,3.003
-66.0,50.0,3.004
-41.0,52.0,3.005
-3.0,32.0,3.006
33.0,13.0,3.007
55.0,7.0,3.008
58.0,5.0,3.009
45.0,5.0,3.01
14.0,12.0,3.011
-34.0,22.0,3.012
-92.0,7.0,3.013
-133.0,-32.0,3.014
-120.0,-60.0,3.015
-59.0,-48.0,3.016
2.0,-14.0,3.017
27.0,3.0,3.018
24.0,-3.0,3.019
21.0,-9.0,3.02
31.0,-4.0,3.021
37.0,2.0,3.022
32.0,-4.0,3.023
27.0,-10.0,3.024
26.0,-6.0,3.025
20.0,-3.0,3.026
-1.0,-6.0,3.027
-28.0,-8.0,3.028
-45.0,2.0,3.029
-45.0,19.0,3.03
-25.0,30.0,3.031
8.0,28.0,3.032
44.0,5.0,3.033
74.0,-31.0,3.034
95.0,-53.0,3.035
105.0,-35.0,3.036
109.0,4.0,3.037
101.0,21.0,3.038
82.0,1.0,3.039
50.0,-25.0,3.04
16.0,-30.0,3.041
-6.0,-12.0,3.042
-11.0,4.0,3.043
-4.0,4.0,3.044
-2.0,-4.0,3.045
-12.0,-11.0,3.046
-33.0,-19.0,3.047
-62.0,-31.0,3.048
-84.0,-38.0,3.049
-87.0,-28.0,3.05
-64.0,-5.0,3.051
-30.0,14.0,3.052
-4.0,26.0,3.053
11.0,33.0,3.054
26.0,36.0,3.055
48.0,31.0,3.056
68.0,22.0,3.057
70.0,16.0,3.058
51.0,15.0,3.059
19.0,8.0,3.06
-7.0,-6.0,3.061
-14.0,-9.0,3.062
-4.0,8.0,3.063
-1.0,37.0,3.064
-14.0,60.0,3.065
-30.0,61.0,3.066
-29.0,30.0,3.067
-9.0,-26.0,3.068
10.0,-64.0,3.069
12.0,-53.0,3.07
0.0,-14.0,3.071
-19.0,2.0,3.072
-38.0,-14.0,3.073
-45.0,-33.0,3.074
-44.0,-27.0,3.075
-49.0,-7.0,3.076
-58.0,14.0,3.077
-50.0,32.0,3.078
-8.0,36.0,3.079
43.0,19.0,3.08
72.0,-9.0,3.081
79.0,-12.0,3.082
84.0,8.0,3.083
89.0,16.0,3.084
69.0,-1.0,3.085
25.0,-19.0,3.086
-18.0,-13.0,3.087
-39.0,-1.0,3.088
-37.0,-2.0,3.089
-26.0,-8.0,3.09
-13.0,-8.0,3.091
7.0,-11.0,3.092
43.0,-23.0,3.093
95.0,-31.0,3.094
138.0,-19.0,3.095
140.0,-2.0,3.096
107.0,7.0,3.097
62.0,8.0,3.098
34.0,15.0,3.099
13.0,21.0,3.1
-22.0,14.0,3.101
-66.0,7.0,3.102
-92.0,10.0,3.103
-83.0,18.0,3.104
-45.0,20.0,3.105
-4.0,15.0,3.106
18.0,3.0,3.107
15.0,-19.0,3.108
2.0,-39.0,3.109
-9.0,-32.0,3.11
-27.0,-3.0,3.111
-53.0,14.0,3.112
-70.0,3.0,3.113
-69.0,-5.0,3.114
-69.0,8.0,3.115
-81.0,25.0,3.116
-75.0,26.0,3.117
-26.0,21.0,3.118
31.0,31.0,3.119
29.0,37.0,3.12
-29.0,7.0,3.121
-77.0,-45.0,3.122
-77.0,-69.0,3.123
-60.0,-42.0,3.124
-56.0,6.0,3.125
-58.0,35.0,3.126
-54.0,31.0,3.127
-49.0,16.0,3.128
-37.0,12.0,3.129
-3.0,20.0,3.13
40.0,21.0,3.131
57.0,6.0,3.132
46.0,-19.0,3.133
40.0,-45.0,3.134
48.0,-67.0,3.135
50.0,-81.0,3.136
39.0,-67.0,3.137
39.0,-16.0,3.138
56.0,40.0,3.139
63.0,54.0,3.14
52.0,20.0,3.141
46.0,-8.0,3.142
59.0,-3.0,3.143
77.0,12.0,3.144
82.0,2.0,3.145
74.0,-27.0,3.146
63.0,-52.0,3.147
58.0,-64.0,3.148
67.0,-65.0,3.149
83.0,-48.0,3.15
87.0,-13.0,3.151
67.0,13.0,3.152
34.0,16.0,3.153
-2.0,12.0,3.154
-43.0,20.0,3.155
-89.0,31.0,3.156
-120.0,37.0,3.157
-123.0,39.0,3.158
-91.0,44.0,3.159
-32.0,38.0,3.16
32.0,17.0,3.161
76.0,9.0,3.162
88.0,22.0,3.163
83.0,36.0,3.164
68.0,28.0,3.165
31.0,10.0,3.166
-15.0,5.0,3.167
-37.0,12.0,3.168
-26.0,19.0,3.169
-15.0,24.0,3.17
-18.0,23.0,3.171
-7.0,14.0,3.172
21.0,-1.0,3.173
23.0,-12.0,3.174
-27.0,-18.0,3.175
-87.0,-23.0,3.176
-106.0,-26.0,3.177
-91.0,-22.0,3.178
-74.0,-7.0,3.179
-58.0,6.0,3.18
-32.0,2.0,3.181
-2.0,-11.0,3.182
23.0,-29.0,3.183
39.0,-44.0,3.184
41.0,-42.0,3.185
23.0,-14.0,3.186
1.0,18.0,3.187
4.0,23.0,3.188
18.0,1.0,3.189
6.0,-12.0,3.19
-30.0,-7.0,3.191
-43.0,3.0,3.192
-15.0,13.0,3.193
9.0,28.0,3.194
-9.0,35.0,3.195
-38.0,17.0,3.196
-26.0,-15.0,3.197
24.0,-33.0,3.198
59.0,-22.0,3.199
42.0,0.0,3.2
-8.0,11.0,3.201
-46.0,10.0,3.202
-54.0,2.0,3.203
-54.0,-5.0,3.204
-64.0,0.0,3.205
-72.0,10.0,3.206
-49.0,0.0,3.207
-3.0,-35.0,3.208
25.0,-62.0,3.209
18.0,-52.0,3.21
-1.0,-24.0,3.211
1.0,-10.0,3.212
20.0,-5.0,3.213
36.0,8.0,3.214
49.0,19.0,3.215
63.0,11.0,3.216
73.0,3.0,3.217
70.0,21.0,3.218
68.0,51.0,3.219
64.0,48.0,3.22
55.0,7.0,3.221
49.0,-15.0,3.222
55.0,-2.0,3.223
61.0,11.0,3.224
69.0,-1.0,3.225
72.0,-18.0,3.226
58.0,-12.0,3.227
43.0,4.0,3.228
22.0,2.0,3.229
-3.0,-17.0,3.23
-40.0,-26.0,3.231
-63.0,-16.0,3.232
-41.0,-3.0,3.233
-21.0,1.0,3.234
-6.0,1.0,3.235
3.0,8.0,3.236
-2.0,17.0,3.237
-14.0,17.0,3.238
-41.0,12.0,3.239
-38.0,7.0,3.24
-5.0,4.0,3.241
18.0,3.0,3.242
1.0,10.0,3.243
-34.0,16.0,3.244
-54.0,17.0,3.245
-63.0,16.0,3.246
-78.0,4.0,3.247
-85.0,-3.0,3.248
-53.0,2.0,3.249
7.0,3.0,3.25
57.0,-12.0,3.251
76.0,-21.0,3.252
71.0,-8.0,3.253
54.0,3.0,3.254
27.0,10.0,3.255
4.0,9.0,3.256
-3.0,-16.0,3.257
-5.0,-44.0,3.258
-14.0,-59.0,3.259
-29.0,-28.0,3.26
-28.0,17.0,3.261
-7.0,26.0,3.262
11.0,-1.0,3.263
0.0,-13.0,3.264
-47.0,11.0,3.265
-102.0,21.0,3.266
-122.0,-14.0,3.267
-81.0,-50.0,3.268
-3.0,-38.0,3.269
62.0,-1.0,3.27
88.0,16.0,3.271
91.0,15.0,3.272
93.0,29.0,3.273
88.0,47.0,3.274
64.0,43.0,3.275
40.0,18.0,3.276
38.0,-1.0,3.277
46.0,-9.0,3.278
42.0,-11.0,3.279
18.0,-9.0,3.28
-6.0,-6.0,3.281
-18.0,2.0,3.282
-26.0,9.0,3.283
-32.0,12.0,3.284
-24.0,9.0,3.285
1.0,-12.0,3.286
27.0,-48.0,3.287
37.0,-61.0,3.288
34.0,-30.0,3.289
29.0,13.0,3.29
33.0,32.0,3.291
44.0,26.0,3.292
53.0,24.0,3.293
38.0,31.0,3.294
-1.0,27.0,3.295
-45.0,12.0,3.296
-70.0,4.0,3.297
-79.0,0.0,3.298
-83.0,-6.0,3.299
-77.0,-14.0,3.3
-42.0,-15.0,3.301
-9.0,-11.0,3.302
15.0,-11.0,3.303
33.0,-12.0,3.304
30.0,-2.0,3.305
22.0,11.0,3.306
-2.0,11.0,3.307
-21.0,2.0,3.308
-25.0,0.0,3.309
-20.0,7.0,3.31
13.0,12.0,3.311
33.0,15.0,3.312
13.0,21.0,3.313
-6.0,23.0,3.314
-18.0,8.0,3.315
-39.0,-21.0,3.316
-83.0,-40.0,3.317
-121.0,-40.0,3.318
-113.0,-28.0,3.319
-62.0,-15.0,3.32
-5.0,-5.0,3.321
30.0,2.0,3.322
47.0,4.0,3.323
58.0,5.0,3.324
64.0,-1.0,3.325
58.0,-6.0,3.326
37.0,-4.0,3.327
4.0,-6.0,3.328
-23.0,-24.0,3.329
-25.0,-34.0,3.33
-3.0,-15.0,3.331
12.0,2.0,3.332
-1.0,11.0,3.333
-18.0,18.0,3.334
-3.0,16.0,3.335
40.0,12.0,3.336
71.0,0.0,3.337
77.0,-12.0,3.338
79.0,-14.0,3.339
93.0,4.0,3.34
99.0,17.0,3.341
75.0,10.0,3.342
31.0,-4.0,3.343
0.0,-4.0,3.344
-5.0,12.0,3.345
0.0,22.0,3.346
-1.0,11.0,3.347
-12.0,-4.0,3.348
-16.0,-6.0,3.349
-5.0,0.0,3.35
19.0,-4.0,3.351
40.0,-24.0,3.352
42.0,-35.0,3.353
19.0,-18.0,3.354
-19.0,6.0,3.355
-51.0,16.0,3.356
-63.0,14.0,3.357
-14.0,13.0,3.358
-75.0,18.0,3.359
-127.0,14.0,3.36
-151.0,0.0,3.361
-154.0,-6.0,3.362
-94.0,3.0,3.363
-44.0,11.0,3.364
-34.0,9.0,3.365
-15.0,6.0,3.366
29.0,7.0,3.367
66.0,5.0,3.368
77.0,-3.0,3.369
75.0,-7.0,3.37
28.0,-1.0,3.371
-2.0,6.0,3.372
24.0,7.0,3.373
46.0,0.0,3.374
59.0,-7.0,3.375
63.0,-7.0,3.376
38.0,-3.0,3.377
-14.0,-6.0,3.378
-70.0,-22.0,3.379
-117.0,-42.0,3.38
-139.0,-35.0,3.381
-142.0,-5.0,3.382
-87.0,10.0,3.383
-42.0,-5.0,3.384
-32.0,-13.0,3.385
-15.0,7.0,3.386
26.0,30.0,3.387
60.0,27.0,3.388
70.0,14.0,3.389
68.0,14.0,3.39
25.0,21.0,3.391
-2.0,19.0,3.392
22.0,20.0,3.393
42.0,29.0,3.394
54.0,25.0,3.395
57.0,5.0,3.396
34.0,-5.0,3.397
22.0,-4.0,3.398
40.0,-15.0,3.399
21.0,-46.0,3.4
-12.0,-62.0,3.401
-8.0,-38.0,3.402
28.0,-4.0,3.403
36.0,6.0,3.404
-7.0,-1.0,3.405
-65.0,2.0,3.406
-97.0,15.0,3.407
-96.0,26.0,3.408
-69.0,30.0,3.409
-39.0,26.0,3.41
-29.0,5.0,3.411
-41.0,-26.0,3.412
-43.0,-40.0,3.413
-21.0,-20.0,3.414
-1.0,8.0,3.415
-1.0,9.0,3.416
6.0,-12.0,3.417
45.0,-26.0,3.418
91.0,-11.0,3.419
93.0,7.0,3.42
59.0,-5.0,3.421
39.0,-27.0,3.422
39.0,-20.0,3.423
32.0,15.0,3.424
8.0,35.0,3.425
0.0,17.0,3.426
14.0,-11.0,3.427
12.0,-12.0,3.428
-23.0,3.0,3.429
-57.0,5.0,3.43
-59.0,-10.0,3.431
-47.0,-20.0,3.432
-50.0,-11.0,3.433
-58.0,2.0,3.434
-44.0,8.0,3.435
-9.0,7.0,3.436
25.0,9.0,3.437
48.0,12.0,3.438
63.0,16.0,3.439
65.0,22.0,3.44
52.0,22.0,3.441
31.0,15.0,3.442
24.0,1.0,3.443
36.0,-12.0,3.444
45.0,-18.0,3.445
32.0,-15.0,3.446
10.0,-10.0,3.447
2.0,-11.0,3.448
13.0,-21.0,3.449
17.0,-28.0,3.45
4.0,-18.0,3.451
-12.0,4.0,3.452
-18.0,19.0,3.453
-13.0,16.0,3.454
-3.0,10.0,3.455
4.0,10.0,3.456
6.0,14.0,3.457
0.0,9.0,3.458
-6.0,4.0,3.459
-16.0,5.0,3.46
-36.0,1.0,3.461
-54.0,-8.0,3.462
-66.0,-10.0,3.463
-70.0,0.0,3.464
-52.0,11.0,3.465
-29.0,9.0,3.466
8.0,6.0,3.467
37.0,10.0,3.468
38.0,10.0,3.469
33.0,-1.0,3.47
10.0,-13.0,3.471
-5.0,-15.0,3.472
4.0,-11.0,3.473
12.0,-13.0,3.474
16.0,-15.0,3.475
19.0,-9.0,3.476
19.0,4.0,3.477
17.0,14.0,3.478
3.0,21.0,3.479
-9.0,21.0,3.48
-20.0,0.0,3.481
-31.0,-16.0,3.482
-30.0,-14.0,3.483
-15.0,-9.0,3.484
10.0,5.0,3.485
28.0,13.0,3.486
33.0,-2.0,3.487
25.0,-15.0,3.488
19.0,-20.0,3.489
32.0,-21.0,3.49
57.0,-8.0,3.491
73.0,2.0,3.492
66.0,3.0,3.493
47.0,7.0,3.494
35.0,15.0,3.495
28.0,20.0,3.496
23.0,18.0,3.497
14.0,13.0,3.498
1.0,-2.0,3.499
-7.0,-6.0,3.5
-7.0,-10.0,3.501
9.0,-16.0,3.502
28.0,-17.0,3.503
31.0,-7.0,3.504
21.0,1.0,3.505
15.0,0.0,3.506
5.0,-8.0,3.507
-24.0,-12.0,3.508
-71.0,-9.0,3.509
-106.0,-4.0,3.51
-114.0,-2.0,3.511
-107.0,1.0,3.512
-87.0,19.0,3.513
-48.0,43.0,3.514
-1.0,49.0,3.515
25.0,24.0,3.516
33.0,-5.0,3.517
40.0,-10.0,3.518
52.0,-2.0,3.519
35.0,-10.0,3.52
-11.0,-34.0,3.521
-49.0,-38.0,3.522
-52.0,-14.0,3.523
-39.0,11.0,3.524
-30.0,22.0,3.525
-8.0,26.0,3.526
37.0,24.0,3.527
76.0,8.0,3.528
74.0,-15.0,3.529
46.0,-28.0,3.53
30.0,-33.0,3.531
35.0,-37.0,3.532
44.0,-30.0,3.533
40.0,-2.0,3.534
25.0,27.0,3.535
-1.0,28.0,3.536
-32.0,9.0,3.537
-44.0,-4.0,3.538
-24.0,4.0,3.539
-5.0,9.0,3.54
8.0,-6.0,3.541
18.0,-19.0,3.542
19.0,-15.0,3.543
16.0,-2.0,3.544
2.0,0.0,3.545
-12.0,-3.0,3.546
-28.0,-1.0,3.547
-39.0,7.0,3.548
-37.0,10.0,3.549
-31.0,7.0,3.55
-13.0,3.0,3.551
2.0,6.0,3.552
11.0,15.0,3.553
19.0,26.0,3.554
23.0,26.0,3.555
23.0,7.0,3.556
13.0,-12.0,3.557
5.0,-12.0,3.558
19.0,10.0,3.559
28.0,25.0,3.56
9.0,13.0,3.561
-14.0,3.0,3.562
-7.0,2.0,3.563
28.0,-2.0,3.564
47.0,-18.0,3.565
33.0,-34.0,3.566
6.0,-50.0,3.567
-13.0,-51.0,3.568
-23.0,-9.0,3.569
-21.0,20.0,3.57
-5.0,10.0,3.571
11.0,2.0,3.572
3.0,2.0,3.573
-27.0,5.0,3.574
-54.0,14.0,3.575
-54.0,19.0,3.576
-33.0,7.0,3.577
-10.0,-10.0,3.578
-5.0,-29.0,3.579
-3.0,-20.0,3.58
27.0,-3.0,3.581
89.0,-1.0,3.582
140.0,-11.0,3.583
133.0,-17.0,3.584
69.0,-5.0,3.585
-3.0,7.0,3.586
-46.0,16.0,3.587
-65.0,17.0,3.588
-63.0,7.0,3.589
-33.0,-6.0,3.59
9.0,-6.0,3.591
23.0,7.0,3.592
0.0,14.0,3.593
-35.0,4.0,3.594
-48.0,-3.0,3.595
-37.0,5.0,3.596
-23.0,16.0,3.597
-26.0,3.0,3.598
-41.0,-16.0,3.599
-40.0,-16.0,3.6
6.0,2.0,3.601
84.0,14.0,3.602
137.0,9.0,3.603
132.0,0.0,3.604
97.0,3.0,3.605
62.0,10.0,3.606
27.0,11.0,3.607
-13.0,11.0,3.608
-32.0,20.0,3.609
-17.0,28.0,3.61
9.0,23.0,3.611
8.0,7.0,3.612
-18.0,-3.0,3.613
-38.0,-1.0,3.614
-51.0,-5.0,3.615
-85.0,-26.0,3.616
-140.0,-51.0,3.617
-172.0,-59.0,3.618
-136.0,-37.0,3.619
-92.0,-5.0,3.62
-26.0,14.0,3.621
27.0,28.0,3.622
39.0,38.0,3.623
60.0,41.0,3.624
110.0,27.0,3.625
148.0,2.0,3.626
149.0,-9.0,3.627
143.0,0.0,3.628
110.0,15.0,3.629
66.0,19.0,3.63
-9.0,5.0,3.631
-53.0,-25.0,3.632
-2.0,-58.0,3.633
26.0,-67.0,3.634
-15.0,-39.0,3.635
-44.0,-5.0,3.636
-34.0,2.0,3.637
-14.0,-13.0,3.638
20.0,-15.0,3.639
-6.0,-12.0,3.64
-42.0,8.0,3.641
-47.0,19.0,3.642
-30.0,4.0,3.643
-25.0,-8.0,3.644
-43.0,-14.0,3.645
-82.0,-15.0,3.646
-124.0,2.0,3.647
-133.0,19.0,3.648
-88.0,27.0,3.649
-9.0,28.0,3.65
60.0,7.0,3.651
98.0,-8.0,3.652
112.0,-4.0,3.653
121.0,-3.0,3.654
136.0,-14.0,3.655
147.0,-22.0,3.656
132.0,-18.0,3.657
78.0,-2.0,3.658
35.0,53.0,3.659
1.0,88.0,3.66
-7.0,63.0,3.661
-17.0,-1.0,3.662
-34.0,-50.0,3.663
-51.0,-44.0,3.664
-63.0,-11.0,3.665
-76.0,-3.0,3.666
-93.0,-25.0,3.667
-100.0,-32.0,3.668
-74.0,-7.0,3.669
-48.0,7.0,3.67
-22.0,-13.0,3.671
2.0,-24.0,3.672
25.0,12.0,3.673
37.0,55.0,3.674
14.0,48.0,3.675
-14.0,4.0,3.676
-58.0,-21.0,3.677
-81.0,-14.0,3.678
-21.0,0.0,3.679
36.0,8.0,3.68
57.0,-4.0,3.681
75.0,-16.0,3.682
113.0,-24.0,3.683
132.0,-26.0,3.684
93.0,-7.0,3.685
30.0,8.0,3.686
-4.0,11.0,3.687
-7.0,16.0,3.688
-9.0,28.0,3.689
-12.0,30.0,3.69
-9.0,0.0,3.691
-15.0,-19.0,3.692
-47.0,-8.0,3.693
-81.0,-3.0,3.694
-78.0,-16.0,3.695
-27.0,-26.0,3.696
47.0,-20.0,3.697
100.0,-11.0,3.698
98.0,-4.0,3.699
69.0,-9.0,3.7
-38.0,6.0,3.701
-112.0,46.0,3.702
-86.0,57.0,3.703
-55.0,20.0,3.704
-6.0,-27.0,3.705
34.0,-45.0,3.706
49.0,-36.0,3.707
74.0,-21.0,3.708
128.0,0.0,3.709
162.0,24.0,3.71
135.0,43.0,3.711
93.0,50.0,3.712
11.0,43.0,3.713
-52.0,12.0,3.714
-62.0,-34.0,3.715
-81.0,-52.0,3.716
-122.0,-19.0,3.717
-156.0,28.0,3.718
-130.0,36.0,3.719
-61.0,9.0,3.72
-10.0,-5.0,3.721
8.0,1.0,3.722
22.0,-2.0,3.723
54.0,-15.0,3.724
89.0,-16.0,3.725
107.0,-12.0,3.726
94.0,-24.0,3.727
37.0,-22.0,3.728
-60.0,23.0,3.729
-165.0,75.0,3.73
-214.0,75.0,3.731
-175.0,46.0,3.732
-79.0,49.0,3.733
-4.0,62.0,3.734
8.0,13.0,3.735
-17.0,-76.0,3.736
-21.0,-113.0,3.737
0.0,-80.0,3.738
6.0,-37.0,3.739
0.0,-26.0,3.74
18.0,-27.0,3.741
57.0,-27.0,3.742
72.0,-53.0,3.743
46.0,-91.0,3.744
24.0,-74.0,3.745
42.0,16.0,3.746
90.0,101.0,3.747
132.0,104.0,3.748
150.0,44.0,3.749
134.0,-6.0,3.75
77.0,-25.0,3.751
4.0,-24.0,3.752
-36.0,-6.0,3.753
-16.0,27.0,3.754
33.0,53.0,3.755
63.0,50.0,3.756
54.0,30.0,3.757
5.0,15.0,3.758
-77.0,11.0,3.759
-194.0,-3.0,3.76
-300.0,-31.0,3.761
-321.0,-45.0,3.762
-220.0,-31.0,3.763
-49.0,-9.0,3.764
95.0,-7.0,3.765
173.0,-23.0,3.766
218.0,-41.0,3.767
241.0,-41.0,3.768
206.0,-39.0,3.769
109.0,-53.0,3.77
35.0,-62.0,3.771
51.0,-26.0,3.772
117.0,46.0,3.773
145.0,91.0,3.774
126.0,74.0,3.775
107.0,34.0,3.776
97.0,24.0,3.777
40.0,30.0,3.778
-65.0,20.0,3.779
-167.0,-9.0,3.78
-254.0,-29.0,3.781
-306.0,-26.0,3.782
-249.0,-17.0,3.783
-188.0,-10.0,3.784
-114.0,2.0,3.785
-56.0,12.0,3.786
-44.0,5.0,3.787
-38.0,0.0,3.788
-52.0,24.0,3.789
-61.0,52.0,3.79
-51.0,35.0,3.791
-44.0,-24.0,3.792
-46.0,-65.0,3.793
-39.0,-55.0,3.794
-3.0,-25.0,3.795
40.0,-4.0,3.796
104.0,12.0,3.797
168.0,20.0,3.798
233.0,7.0,3.799
276.0,-12.0,3.8
279.0,-11.0,3.801
248.0,9.0,3.802
208.0,12.0,3.803
153.0,4.0,3.804
53.0,15.0,3.805
-74.0,35.0,3.806
-165.0,19.0,3.807
-179.0,-29.0,3.808
-151.0,-50.0,3.809
-126.0,-26.0,3.81
-114.0,0.0,3.811
-92.0,4.0,3.812
-56.0,5.0,3.813
-23.0,20.0,3.814
-2.0,27.0,3.815
16.0,20.0,3.816
44.0,16.0,3.817
83.0,26.0,3.818
90.0,42.0,3.819
54.0,55.0,3.82
5.0,49.0,3.821
-11.0,32.0,3.822
6.0,17.0,3.823
25.0,26.0,3.824
46.0,36.0,3.825
91.0,17.0,3.826
136.0,-26.0,3.827
125.0,-46.0,3.828
61.0,-29.0,3.829
20.0,-16.0,3.83
44.0,-30.0,3.831
80.0,-52.0,3.832
71.0,-57.0,3.833
39.0,-49.0,3.834
29.0,-31.0,3.835
24.0,-2.0,3.836
-16.0,26.0,3.837
-97.0,39.0,3.838
-158.0,41.0,3.839
-185.0,47.0,3.84
-230.0,44.0,3.841
-316.0,22.0,3.842
-359.0,-1.0,3.843
-273.0,1.0,3.844
-117.0,12.0,3.845
-21.0,-3.0,3.846
-2.0,-39.0,3.847
28.0,-53.0,3.848
79.0,-46.0,3.849
65.0,-49.0,3.85
-31.0,-71.0,3.851
-117.0,-81.0,3.852
-140.0,-70.0,3.853
-147.0,-57.0,3.854
-147.0,-52.0,3.855
-72.0,-43.0,3.856
70.0,-30.0,3.857
183.0,-41.0,3.858
224.0,-58.0,3.859
261.0,-43.0,3.86
287.0,10.0,3.861
282.0,55.0,3.862
183.0,42.0,3.863
108.0,-10.0,3.864
106.0,-41.0,3.865
115.0,-16.0,3.866
155.0,40.0,3.867
175.0,80.0,3.868
132.0,90.0,3.869
106.0,93.0,3.87
132.0,104.0,3.871
142.0,103.0,3.872
96.0,71.0,3.873
44.0,29.0,3.874
-26.0,5.0,3.875
-82.0,-4.0,3.876
-90.0,-7.0,3.877
-93.0,-4.0,3.878
-80.0,17.0,3.879
-54.0,37.0,3.88
-30.0,36.0,3.881
-44.0,25.0,3.882
-121.0,18.0,3.883
-223.0,10.0,3.884
-267.0,6.0,3.885
-215.0,12.0,3.886
-130.0,25.0,3.887
-88.0,24.0,3.888
-84.0,14.0,3.889
-67.0,14.0,3.89
-17.0,13.0,3.891
39.0,-11.0,3.892
77.0,-51.0,3.893
88.0,-68.0,3.894
67.0,-52.0,3.895
26.0,-43.0,3.896
-7.0,-57.0,3.897
-28.0,-79.0,3.898
-51.0,-72.0,3.899
-78.0,-36.0,3.9
-85.0,-2.0,3.901
-63.0,11.0,3.902
-32.0,-1.0,3.903
-6.0,-23.0,3.904
20.0,-24.0,3.905
46.0,5.0,3.906
53.0,45.0,3.907
46.0,68.0,3.908
44.0,61.0,3.909
54.0,34.0,3.91
56.0,4.0,3.911
44.0,-20.0,3.912
28.0,-38.0,3.913
17.0,-51.0,3.914
12.0,-59.0,3.915
17.0,-53.0,3.916
31.0,-34.0,3.917
35.0,-16.0,3.918
25.0,-11.0,3.919
23.0,-23.0,3.92
52.0,-43.0,3.921
92.0,-54.0,3.922
98.0,-49.0,3.923
66.0,-25.0,3.924
25.0,8.0,3.925
0.0,28.0,3.926
-14.0,23.0,3.927
-39.0,12.0,3.928
-79.0,13.0,3.929
-108.0,22.0,3.93
-96.0,28.0,3.931
-55.0,33.0,3.932
-29.0,41.0,3.933
-50.0,43.0,3.934
-91.0,36.0,3.935
-110.0,32.0,3.936
-93.0,41.0,3.937
-46.0,43.0,3.938
22.0,31.0,3.939
88.0,20.0,3.94
144.0,25.0,3.941
186.0,39.0,3.942
182.0,36.0,3.943
163.0,15.0,3.944
102.0,3.0,3.945
48.0,10.0,3.946
16.0,19.0,3.947
-14.0,9.0,3.948
-40.0,-17.0,3.949
-56.0,-39.0,3.95
-38.0,-40.0,3.951
-22.0,-21.0,3.952
-12.0,-1.0,3.953
-7.0,-2.0,3.954
-23.0,-21.0,3.955
-35.0,-34.0,3.956
-35.0,-31.0,3.957
-32.0,-20.0,3.958
-25.0,-9.0,3.959
-18.0,2.0,3.96
-18.0,11.0,3.961
-21.0,17.0,3.962
-13.0,7.0,3.963
2.0,1.0,3.964
7.0,5.0,3.965
0.0,7.0,3.966
-3.0,3.0,3.967
0.0,-1.0,3.968
0.0,-5.0,3.969
-11.0,-8.0,3.97
-15.0,-12.0,3.971
-2.0,-14.0,3.972
17.0,-8.0,3.973
16.0,-5.0,3.974
-2.0,-10.0,3.975
-14.0,-15.0,3.976
-8.0,-14.0,3.977
0.0,-13.0,3.978
-12.0,-16.0,3.979
-49.0,-23.0,3.98
-73.0,-23.0,3.981
-51.0,-11.0,3.982
7.0,0.0,3.983
52.0,7.0,3.984
45.0,10.0,3.985
13.0,12.0,3.986
10.0,13.0,3.987
46.0,16.0,3.988
74.0,17.0,3.989
60.0,9.0,3.99
31.0,-7.0,3.991
30.0,-17.0,3.992
42.0,-16.0,3.993
26.0,-14.0,3.994
-7.0,-17.0,3.995
-13.0,-5.0,3.996
20.0,27.0,3.997
52.0,63.0,3.998
47.0,73.0,3.999
20.0,45.0,4.0
-8.0,5.0,4.001
-39.0,-10.0,4.002
-63.0,0.0,4.003
-59.0,14.0,4.004
-34.0,7.0,4.005
-26.0,-16.0,4.006
-35.0,-40.0,4.007
-20.0,-49.0,4.008
24.0,-43.0,4.009
51.0,-29.0,4.01
50.0,-15.0,4.011
54.0,-4.0,4.012
74.0,0.0,4.013
73.0,5.0,4.014
30.0,21.0,4.015
-14.0,38.0,4.016
-24.0,41.0,4.017
-23.0,23.0,4.018
-34.0,0.0,4.019
-47.0,-9.0,4.02
-39.0,-13.0,4.021
-24.0,-15.0,4.022
-18.0,-13.0,4.023
-28.0,-6.0,4.024
-42.0,-3.0,4.025
-56.0,-5.0,4.026
-62.0,-10.0,4.027
-55.0,-11.0,4.028
-26.0,-8.0,4.029
10.0,-5.0,4.03
40.0,0.0,4.031
57.0,5.0,4.032
60.0,12.0,4.033
53.0,17.0,4.034
38.0,18.0,4.035
19.0,11.0,4.036
7.0,3.0,4.037
3.0,-5.0,4.038
7.0,-8.0,4.039
5.0,-10.0,4.04
1.0,-17.0,4.041
3.0,-17.0,4.042
15.0,-10.0,4.043
26.0,-3.0,4.044
28.0,-5.0,4.045
24.0,-12.0,4.046
20.0,-13.0,4.047
16.0,-4.0,4.048
8.0,6.0,4.049
-1.0,10.0,4.05
-8.0,7.0,4.051
-13.0,3.0,4.052
-13.0,6.0,4.053
-10.0,11.0,4.054
-10.0,15.0,4.055
-16.0,14.0,4.056
-15.0,9.0,4.057
-7.0,1.0,4.058
3.0,-6.0,4.059
3.0,-8.0,4.06
-2.0,-11.0,4.061
-6.0,-9.0,4.062
-12.0,-4.0,4.063
-24.0,-4.0,4.064
-35.0,-2.0,4.065
-25.0,1.0,4.066
-2.0,1.0,4.067
13.0,-5.0,4.068
3.0,-9.0,4.069
-29.0,-6.0,4.07
-74.0,0.0,4.071
-119.0,2.0,4.072
-139.0,7.0,4.073
-120.0,12.0,4.074
-77.0,7.0,4.075
-15.0,-8.0,4.076
73.0,-11.0,4.077
176.0,4.0,4.078
226.0,22.0,4.079
185.0,16.0,4.08
120.0,-6.0,4.081
108.0,-15.0,4.082
132.0,-14.0,4.083
131.0,-16.0,4.084
100.0,-20.0,4.085
74.0,-10.0,4.086
51.0,5.0,4.087
8.0,10.0,4.088
-27.0,3.0,4.089
-22.0,0.0,4.09
-9.0,5.0,4.091
-36.0,11.0,4.092
-77.0,15.0,4.093
-76.0,13.0,4.094
-45.0,5.0,4.095
-39.0,-8.0,4.096
-62.0,-18.0,4.097
-73.0,-23.0,4.098
-61.0,-20.0,4.099
-50.0,-14.0,4.1
-44.0,-12.0,4.101
-28.0,-6.0,4.102
-2.0,0.0,4.103
0.0,4.0,4.104
-17.0,6.0,4.105
-22.0,15.0,4.106
3.0,34.0,4.107
31.0,43.0,4.108
36.0,31.0,4.109
23.0,12.0,4.11
18.0,4.0,4.111
25.0,6.0,4.112
36.0,1.0,4.113
38.0,-8.0,4.114
33.0,-13.0,4.115
18.0,-9.0,4.116
-4.0,-3.0,4.117
-31.0,-3.0,4.118
-53.0,-7.0,4.119
-59.0,-11.0,4.12
-48.0,-18.0,4.121
-28.0,-19.0,4.122
-6.0,-16.0,4.123
5.0,-10.0,4.124
-2.0,-1.0,4.125
-27.0,6.0,4.126
-57.0,1.0,4.127
-80.0,-7.0,4.128
-88.0,-9.0,4.129
-65.0,-2.0,4.13
-13.0,4.0,4.131
53.0,4.0,4.132
103.0,5.0,4.133
116.0,9.0,4.134
96.0,5.0,4.135
62.0,-8.0,4.136
49.0,-14.0,4.137
62.0,-9.0,4.138
81.0,-2.0,4.139
63.0,-4.0,4.14
-6.0,-12.0,4.141
-93.0,-12.0,4.142
-152.0,-6.0,4.143
-149.0,-3.0,4.144
-86.0,1.0,4.145
-4.0,8.0,4.146
48.0,10.0,4.147
58.0,1.0,4.148
57.0,-2.0,4.149
67.0,5.0,4.15
83.0,6.0,4.151
79.0,-7.0,4.152
55.0,-14.0,4.153
39.0,1.0,4.154
50.0,24.0,4.155
71.0,31.0,4.156
73.0,26.0,4.157
37.0,24.0,4.158
-7.0,28.0,4.159
-26.0,19.0,4.16
-20.0,-8.0,4.161
-16.0,-30.0,4.162
-30.0,-36.0,4.163
-60.0,-33.0,4.164
-99.0,-31.0,4.165
-125.0,-32.0,4.166
-111.0,-31.0,4.167
-65.0,-24.0,4.168
-31.0,-4.0,4.169
-34.0,27.0,4.17
-43.0,46.0,4.171
-19.0,34.0,4.172
22.0,5.0,4.173
40.0,-9.0,4.174
42.0,0.0,4.175
54.0,12.0,4.176
72.0,15.0,4.177
80.0,14.0,4.178
91.0,21.0,4.179
124.0,30.0,4.18
152.0,24.0,4.181
141.0,11.0,4.182
109.0,-4.0,4.183
84.0,-11.0,4.184
46.0,-15.0,4.185
-23.0,-16.0,4.186
-78.0,-21.0,4.187
-71.0,-29.0,4.188
-40.0,-37.0,4.189
-39.0,-38.0,4.19
-55.0,-31.0,4.191
-46.0,-22.0,4.192
-27.0,-17.0,4.193
-40.0,-18.0,4.194
-73.0,-18.0,4.195
-86.0,-10.0,4.196
-83.0,7.0,4.197
-79.0,25.0,4.198
-70.0,39.0,4.199
-43.0,52.0,4.2
-11.0,62.0,4.201
9.0,66.0,4.202
30.0,56.0,4.203
46.0,35.0,4.204
23.0,15.0,4.205
-43.0,0.0,4.206
-92.0,-9.0,4.207
-69.0,-19.0,4.208
4.0,-25.0,4.209
63.0,-25.0,4.21
84.0,-19.0,4.211
88.0,-16.0,4.212
87.0,-16.0,4.213
75.0,-15.0,4.214
54.0,-12.0,4.215
33.0,-9.0,4.216
11.0,-9.0,4.217
-19.0,-15.0,4.218
-37.0,-15.0,4.219
-28.0,-14.0,4.22
-5.0,-17.0,4.221
-10.0,-23.0,4.222
-50.0,-25.0,4.223
-94.0,-19.0,4.224
-107.0,-9.0,4.225
-78.0,-3.0,4.226
-24.0,-3.0,4.227
32.0,-3.0,4.228
72.0,-3.0,4.229
105.0,-5.0,4.23
146.0,-5.0,4.231
178.0,6.0,4.232
166.0,25.0,4.233
97.0,36.0,4.234
9.0,29.0,4.235
-51.0,10.0,4.236
-73.0,0.0,4.237
-66.0,1.0,4.238
-26.0,12.0,4.239
41.0,25.0,4.24
101.0,20.0,4.241
115.0,6.0,4.242
77.0,-9.0,4.243
10.0,-16.0,4.244
-66.0,-15.0,4.245
-125.0,-13.0,4.246
-143.0,-16.0,4.247
-111.0,-20.0,4.248
-53.0,-18.0,4.249
-5.0,-6.0,4.25
16.0,8.0,4.251
17.0,17.0,4.252
5.0,17.0,4.253
-21.0,14.0,4.254
-69.0,12.0,4.255
-123.0,10.0,4.256
-146.0,9.0,4.257
-115.0,5.0,4.258
-50.0,-7.0,4.259
0.0,-29.0,4.26
28.0,-49.0,4.261
62.0,-49.0,4.262
108.0,-41.0,4.263
126.0,-41.0,4.264
100.0,-34.0,4.265
63.0,4.0,4.266
44.0,61.0,4.267
23.0,97.0,4.268
-25.0,88.0,4.269
-70.0,51.0,4.27
-73.0,16.0,4.271
-42.0,0.0,4.272
-6.0,-1.0,4.273
40.0,-2.0,4.274
102.0,-13.0,4.275
145.0,-26.0,4.276
138.0,-24.0,4.277
84.0,-11.0,4.278
32.0,-3.0,4.279
-9.0,-4.0,4.28
-61.0,-8.0,4.281
-117.0,-2.0,4.282
-133.0,1.0,4.283
-99.0,-4.0,4.284
-51.0,-8.0,4.285
-15.0,-10.0,4.286
16.0,-15.0,4.287
57.0,-26.0,4.288
91.0,-26.0,4.289
100.0,-15.0,4.29
82.0,-6.0,4.291
51.0,-5.0,4.292
28.0,3.0,4.293
33.0,24.0,4.294
53.0,44.0,4.295
55.0,46.0,4.296
34.0,30.0,4.297
8.0,7.0,4.298
-3.0,-5.0,4.299
-15.0,-5.0,4.3
-44.0,-6.0,4.301
-73.0,-12.0,4.302
-92.0,-23.0,4.303
-113.0,-31.0,4.304
-129.0,-39.0,4.305
-108.0,-49.0,4.306
-46.0,-52.0,4.307
10.0,-40.0,4.308
35.0,-14.0,4.309
50.0,12.0,4.31
72.0,33.0,4.311
84.0,51.0,4.312
79.0,59.0,4.313
82.0,52.0,4.314
90.0,37.0,4.315
69.0,21.0,4.316
16.0,11.0,4.317
-30.0,3.0,4.318
-29.0,2.0,4.319
4.0,3.0,4.32
24.0,-3.0,4.321
6.0,-16.0,4.322
-51.0,-24.0,4.323
-147.0,-16.0,4.324
-234.0,-4.0,4.325
-241.0,-7.0,4.326
-144.0,-26.0,4.327
-9.0,-44.0,4.328
83.0,-39.0,4.329
138.0,-18.0,4.33
182.0,1.0,4.331
173.0,11.0,4.332
70.0,25.0,4.333
-42.0,39.0,4.334
-40.0,43.0,4.335
42.0,31.0,4.336
59.0,13.0,4.337
-8.0,3.0,4.338
-22.0,-2.0,4.339
50.0,-11.0,4.34
85.0,-28.0,4.341
25.0,-37.0,4.342
-14.0,-30.0,4.343
33.0,-20.0,4.344
65.0,-10.0,4.345
14.0,-5.0,4.346
-34.0,-7.0,4.347
-15.0,-19.0,4.348
4.0,-31.0,4.349
-29.0,-27.0,4.35
-58.0,-10.0,4.351
-50.0,9.0,4.352
-70.0,18.0,4.353
-130.0,27.0,4.354
-122.0,39.0,4.355
3.0,49.0,4.356
128.0,50.0,4.357
143.0,41.0,4.358
74.0,30.0,4.359
29.0,18.0,4.36
39.0,3.0,4.361
48.0,-9.0,4.362
31.0,-21.0,4.363
20.0,-24.0,4.364
29.0,-6.0,4.365
40.0,20.0,4.366
42.0,23.0,4.367
35.0,-5.0,4.368
19.0,-46.0,4.369
-6.0,-72.0,4.37
-21.0,-75.0,4.371
-18.0,-67.0,4.372
-16.0,-47.0,4.373
-26.0,-11.0,4.374
-38.0,39.0,4.375
-33.0,92.0,4.376
-16.0,120.0,4.377
3.0,103.0,4.378
18.0,49.0,4.379
13.0,3.0,4.38
-22.0,-1.0,4.381
-72.0,16.0,4.382
-99.0,15.0,4.383
-92.0,-12.0,4.384
-73.0,-29.0,4.385
-58.0,-20.0,4.386
-30.0,-8.0,4.387
11.0,-11.0,4.388
39.0,-17.0,4.389
45.0,-9.0,4.39
49.0,2.0,4.391
47.0,0.0,4.392
12.0,-10.0,4.393
-53.0,-16.0,4.394
-98.0,-18.0,4.395
-90.0,-24.0,4.396
-57.0,-27.0,4.397
-45.0,-27.0,4.398
-63.0,-25.0,4.399
-73.0,-28.0,4.4
-38.0,-33.0,4.401
40.0,-26.0,4.402
122.0,-13.0,4.403
174.0,-2.0,4.404
190.0,8.0,4.405
185.0,22.0,4.406
154.0,28.0,4.407
85.0,15.0,4.408
9.0,-2.0,4.409
-24.0,-9.0,4.41
-9.0,-4.0,4.411
23.0,1.0,4.412
37.0,0.0,4.413
36.0,0.0,4.414
26.0,9.0,4.415
1.0,22.0,4.416
-24.0,26.0,4.417
-40.0,7.0,4.418
-40.0,-22.0,4.419
-39.0,-38.0,4.42
-39.0,-29.0,4.421
-36.0,-9.0,4.422
-29.0,-1.0,4.423
-27.0,-2.0,4.424
-30.0,9.0,4.425
-35.0,35.0,4.426
-46.0,48.0,4.427
-68.0,32.0,4.428
-96.0,11.0,4.429
-127.0,4.0,4.43
-156.0,6.0,4.431
-163.0,2.0,4.432
-115.0,-4.0,4.433
-3.0,-5.0,4.434
132.0,-2.0,4.435
242.0,-2.0,4.436
310.0,0.0,4.437
333.0,3.0,4.438
305.0,3.0,4.439
224.0,-8.0,4.44
117.0,-24.0,4.441
35.0,-24.0,4.442
3.0,-14.0,4.443
8.0,-9.0,4.444
10.0,-10.0,4.445
-29.0,-9.0,4.446
-108.0,-4.0,4.447
-175.0,-2.0,4.448
-184.0,-5.0,4.449
-145.0,-12.0,4.45
-103.0,-22.0,4.451
-80.0,-23.0,4.452
-69.0,-13.0,4.453
-58.0,2.0,4.454
-53.0,15.0,4.455
-43.0,29.0,4.456
-12.0,48.0,4.457
27.0,61.0,4.458
32.0,53.0,4.459
1.0,27.0,4.46
-9.0,-5.0,4.461
43.0,-29.0,4.462
114.0,-51.0,4.463
129.0,-61.0,4.464
70.0,-41.0,4.465
-14.0,12.0,4.466
-66.0,58.0,4.467
-67.0,60.0,4.468
-34.0,32.0,4.469
-4.0,24.0,4.47
-5.0,48.0,4.471
-24.0,60.0,4.472
-23.0,30.0,4.473
0.0,-13.0,4.474
11.0,-28.0,4.475
-6.0,-28.0,4.476
-19.0,-42.0,4.477
-15.0,-71.0,4.478
-12.0,-83.0,4.479
-28.0,-74.0,4.48
-38.0,-66.0,4.481
-24.0,-52.0,4.482
7.0,-13.0,4.483
27.0,42.0,4.484
33.0,80.0,4.485
31.0,95.0,4.486
20.0,97.0,4.487
8.0,83.0,4.488
10.0,37.0,4.489
21.0,-16.0,4.49
27.0,-30.0,4.491
25.0,-6.0,4.492
26.0,6.0,4.493
29.0,-9.0,4.494
18.0,-22.0,4.495
-16.0,-15.0,4.496
-66.0,-3.0,4.497
-120.0,-10.0,4.498
-145.0,-26.0,4.499
-121.0,-38.0,4.5
-61.0,-46.0,4.501
6.0,-40.0,4.502
88.0,-13.0,4.503
201.0,13.0,4.504
293.0,12.0,4.505
285.0,-11.0,4.506
171.0,-26.0,4.507
33.0,-18.0,4.508
-52.0,-7.0,4.509
-69.0,-7.0,4.51
-26.0,-6.0,4.511
40.0,-1.0,4.512
55.0,0.0,4.513
-13.0,-6.0,4.514
-87.0,-9.0,4.515
-70.0,-6.0,4.516
0.0,-2.0,4.517
32.0,-6.0,4.518
7.0,-11.0,4.519
-10.0,-9.0,4.52
-5.0,-10.0,4.521
-21.0,-18.0,4.522
-53.0,-26.0,4.523
-58.0,-17.0,4.524
-46.0,4.0,4.525
-53.0,22.0,4.526
-48.0,26.0,4.527
-3.0,33.0,4.528
39.0,55.0,4.529
22.0,79.0,4.53
-17.0,78.0,4.531
-15.0,57.0,4.532
11.0,40.0,4.533
2.0,34.0,4.534
-25.0,27.0,4.535
-22.0,6.0,4.536
0.0,-15.0,4.537
7.0,-32.0,4.538
1.0,-34.0,4.539
2.0,-24.0,4.54
-14.0,-16.0,4.541
-65.0,-12.0,4.542
-107.0,-13.0,4.543
-89.0,-13.0,4.544
-33.0,-5.0,4.545
20.0,2.0,4.546
67.0,-1.0,4.547
105.0,-11.0,4.548
106.0,-21.0,4.549
75.0,-24.0,4.55
42.0,-20.0,4.551
-2.0,-16.0,4.552
-90.0,-11.0,4.553
-175.0,-8.0,4.554
-165.0,-7.0,4.555
-46.0,-3.0,4.556
80.0,2.0,4.557
156.0,0.0,4.558
185.0,-11.0,4.559
175.0,-24.0,4.56
122.0,-31.0,4.561
56.0,-27.0,4.562
28.0,-23.0,4.563
30.0,-12.0,4.564
8.0,7.0,4.565
-31.0,26.0,4.566
-44.0,22.0,4.567
-40.0,0.0,4.568
-58.0,-22.0,4.569
-80.0,-31.0,4.57
-52.0,-27.0,4.571
13.0,-7.0,4.572
54.0,21.0,4.573
54.0,43.0,4.574
38.0,39.0,4.575
10.0,29.0,4.576
-36.0,40.0,4.577
-82.0,68.0,4.578
-88.0,83.0,4.579
-51.0,60.0,4.58
-3.0,20.0,4.581
54.0,0.0,4.582
123.0,-2.0,4.583
147.0,-6.0,4.584
69.0,-18.0,4.585
-71.0,-30.0,4.586
-158.0,-32.0,4.587
-142.0,-30.0,4.588
-83.0,-29.0,4.589
-44.0,-32.0,4.59
-27.0,-38.0,4.591
-14.0,-40.0,4.592
-9.0,-32.0,4.593
-23.0,-13.0,4.594
-39.0,4.0,4.595
-39.0,10.0,4.596
-28.0,12.0,4.597
-12.0,12.0,4.598
25.0,9.0,4.599
70.0,-2.0,4.6
91.0,-19.0,4.601
80.0,-27.0,4.602
72.0,-22.0,4.603
80.0,-14.0,4.604
72.0,-9.0,4.605
36.0,-3.0,4.606
9.0,15.0,4.607
21.0,38.0,4.608
44.0,51.0,4.609
44.0,44.0,4.61
26.0,22.0,4.611
19.0,1.0,4.612
20.0,-7.0,4.613
10.0,-4.0,4.614
-7.0,0.0,4.615
-14.0,-3.0,4.616
-9.0,-10.0,4.617
-11.0,-17.0,4.618
-17.0,-23.0,4.619
-20.0,-30.0,4.62
-19.0,-33.0,4.621
-24.0,-17.0,4.622
-36.0,8.0,4.623
-48.0,22.0,4.624
-67.0,17.0,4.625
-90.0,4.0,4.626
-90.0,2.0,4.627
-34.0,14.0,4.628
56.0,22.0,4.629
114.0,20.0,4.63
102.0,11.0,4.631
59.0,8.0,4.632
40.0,10.0,4.633
53.0,13.0,4.634
55.0,11.0,4.635
26.0,0.0,4.636
-10.0,-14.0,4.637
-34.0,-25.0,4.638
-53.0,-24.0,4.639
-87.0,-18.0,4.64
-120.0,-21.0,4.641
-116.0,-22.0,4.642
-70.0,-13.0,4.643
-10.0,-3.0,4.644
42.0,-10.0,4.645
97.0,-30.0,4.646
152.0,-40.0,4.647
172.0,-27.0,4.648
131.0,0.0,4.649
54.0,23.0,4.65
-16.0,36.0,4.651
-68.0,36.0,4.652
-105.0,20.0,4.653
-110.0,0.0,4.654
-69.0,-6.0,4.655
-10.0,1.0,4.656
21.0,12.0,4.657
31.0,11.0,4.658
50.0,0.0,4.659
78.0,-8.0,4.66
82.0,-16.0,4.661
53.0,-23.0,4.662
24.0,-31.0,4.663
18.0,-32.0,4.664
13.0,-16.0,4.665
-14.0,17.0,4.666
-48.0,48.0,4.667
-59.0,57.0,4.668
-42.0,43.0,4.669
-18.0,21.0,4.67
-8.0,8.0,4.671
-11.0,1.0,4.672
-13.0,-6.0,4.673
4.0,-18.0,4.674
34.0,-28.0,4.675
57.0,-26.0,4.676
52.0,-10.0,4.677
12.0,16.0,4.678
-48.0,39.0,4.679
-104.0,45.0,4.68
-123.0,29.0,4.681
-93.0,0.0,4.682
-39.0,-20.0,4.683
0.0,-18.0,4.684
4.0,0.0,4.685
-4.0,17.0,4.686
-4.0,18.0,4.687
11.0,7.0,4.688
35.0,-3.0,4.689
69.0,-8.0,4.69
95.0,-7.0,4.691
84.0,-5.0,4.692
25.0,-7.0,4.693
-39.0,-14.0,4.694
-66.0,-20.0,4.695
-52.0,-20.0,4.696
-20.0,-20.0,4.697
20.0,-26.0,4.698
61.0,-27.0,4.699
64.0,-17.0,4.7
10.0,-4.0,4.701
-56.0,3.0,4.702
-69.0,2.0,4.703
-26.0,-2.0,4.704
16.0,-5.0,4.705
23.0,-5.0,4.706
8.0,-2.0,4.707
-6.0,2.0,4.708
-8.0,0.0,4.709
21.0,-3.0,4.71
75.0,-2.0,4.711
102.0,0.0,4.712
67.0,-5.0,4.713
7.0,-13.0,4.714
-9.0,-13.0,4.715
21.0,-1.0,4.716
42.0,13.0,4.717
26.0,24.0,4.718
3.0,35.0,4.719
-8.0,47.0,4.72
-29.0,47.0,4.721
-63.0,32.0,4.722
-69.0,5.0,4.723
-27.0,-15.0,4.724
15.0,-23.0,4.725
9.0,-26.0,4.726
-20.0,-29.0,4.727
-19.0,-26.0,4.728
7.0,-4.0,4.729
14.0,28.0,4.73
-3.0,41.0,4.731
-8.0,26.0,4.732
5.0,-2.0,4.733
10.0,-13.0,4.734
-12.0,-6.0,4.735
-44.0,3.0,4.736
-74.0,1.0,4.737
-101.0,-12.0,4.738
-102.0,-24.0,4.739
-44.0,-28.0,4.74
58.0,-20.0,4.741
146.0,-2.0,4.742
184.0,11.0,4.743
183.0,13.0,4.744
162.0,5.0,4.745
120.0,1.0,4.746
65.0,0.0,4.747
27.0,-5.0,4.748
10.0,-13.0,4.749
-11.0,-14.0,4.75
-46.0,-11.0,4.751
-67.0,-9.0,4.752
-51.0,-9.0,4.753
-25.0,-6.0,4.754
-20.0,-2.0,4.755
-25.0,-5.0,4.756
-16.0,-13.0,4.757
-1.0,-21.0,4.758
-5.0,-21.0,4.759
-29.0,-19.0,4.76
-50.0,-20.0,4.761
-61.0,-6.0,4.762
-79.0,23.0,4.763
-100.0,50.0,4.764
-93.0,56.0,4.765
-43.0,43.0,4.766
26.0,27.0,4.767
76.0,16.0,4.768
81.0,13.0,4.769
53.0,11.0,4.77
23.0,8.0,4.771
19.0,2.0,4.772
31.0,-2.0,4.773
32.0,-2.0,4.774
15.0,-6.0,4.775
2.0,-14.0,4.776
10.0,-19.0,4.777
14.0,-15.0,4.778
-4.0,-8.0,4.779
-31.0,-4.0,4.78
-36.0,-2.0,4.781
-19.0,2.0,4.782
-2.0,2.0,4.783
1.0,-3.0,4.784
0.0,-6.0,4.785
-2.0,-2.0,4.786
2.0,-4.0,4.787
8.0,-15.0,4.788
13.0,-22.0,4.789
13.0,-15.0,4.79
15.0,-2.0,4.791
19.0,3.0,4.792
20.0,3.0,4.793
13.0,1.0,4.794
-3.0,0.0,4.795
-18.0,0.0,4.796
-21.0,6.0,4.797
-11.0,9.0,4.798
7.0,8.0,4.799
17.0,-1.0,4.8
10.0,-8.0,4.801
-5.0,-9.0,4.802
-10.0,-14.0,4.803
0.0,-19.0,4.804
20.0,-11.0,4.805
32.0,5.0,4.806
29.0,12.0,4.807
4.0,4.0,4.808
-36.0,-5.0,4.809
-64.0,-7.0,4.81
-54.0,-8.0,4.811
-9.0,-10.0,4.812
34.0,-8.0,4.813
38.0,-1.0,4.814
3.0,6.0,4.815
-30.0,10.0,4.816
-35.0,13.0,4.817
-27.0,10.0,4.818
-42.0,2.0,4.819
-76.0,0.0,4.82
-77.0,4.0,4.821
-20.0,10.0,4.822
58.0,1.0,4.823
100.0,-11.0,4.824
83.0,-10.0,4.825
31.0,1.0,4.826
-10.0,7.0,4.827
-1.0,3.0,4.828
67.0,0.0,4.829
150.0,-2.0,4.83
180.0,-8.0,4.831
138.0,-11.0,4.832
69.0,-8.0,4.833
20.0,-1.0,4.834
-2.0,9.0,4.835
-14.0,22.0,4.836
-21.0,37.0,4.837
-27.0,30.0,4.838
-29.0,3.0,4.839
-33.0,-16.0,4.84
-30.0,-14.0,4.841
-27.0,-2.0,4.842
-35.0,-3.0,4.843
-47.0,-10.0,4.844
-50.0,-6.0,4.845
-40.0,0.0,4.846
-29.0,-8.0,4.847
-21.0,-17.0,4.848
-12.0,-2.0,4.849
-4.0,27.0,4.85
3.0,39.0,4.851
6.0,26.0,4.852
11.0,6.0,4.853
13.0,-2.0,4.854
8.0,-4.0,4.855
0.0,-3.0,4.856
-8.0,-1.0,4.857
-16.0,-1.0,4.858
-19.0,-8.0,4.859
-19.0,-15.0,4.86
-20.0,-17.0,4.861
-22.0,-14.0,4.862
-15.0,-13.0,4.863
3.0,-10.0,4.864
16.0,0.0,4.865
11.0,7.0,4.866
7.0,-1.0,4.867
23.0,-21.0,4.868
47.0,-34.0,4.869
53.0,-32.0,4.87
34.0,-19.0,4.871
7.0,0.0,4.872
-9.0,16.0,4.873
-12.0,26.0,4.874
-2.0,19.0,4.875
6.0,6.0,4.876
-5.0,7.0,4.877
-47.0,14.0,4.878
-93.0,13.0,4.879
-118.0,-2.0,4.88
-98.0,-19.0,4.881
-38.0,-21.0,4.882
41.0,-16.0,4.883
103.0,-12.0,4.884
116.0,-7.0,4.885
82.0,4.0,4.886
34.0,10.0,4.887
16.0,3.0,4.888
28.0,-5.0,4.889
37.0,-2.0,4.89
23.0,2.0,4.891
2.0,0.0,4.892
8.0,0.0,4.893
29.0,9.0,4.894
31.0,19.0,4.895
9.0,18.0,4.896
-2.0,7.0,4.897
3.0,-9.0,4.898
7.0,-20.0,4.899
-6.0,-25.0,4.9
-18.0,-32.0,4.901
-16.0,-37.0,4.902
-9.0,-34.0,4.903
-11.0,-14.0,4.904
-22.0,22.0,4.905
-42.0,55.0,4.906
-64.0,70.0,4.907
-74.0,61.0,4.908
-49.0,37.0,4.909
4.0,9.0,4.91
46.0,-6.0,4.911
44.0,-3.0,4.912
16.0,5.0,4.913
17.0,1.0,4.914
59.0,-8.0,4.915
99.0,-6.0,4.916
94.0,7.0,4.917
62.0,6.0,4.918
48.0,-8.0,4.919
34.0,-18.0,4.92
16.0,-16.0,4.921
-1.0,-11.0,4.922
-18.0,-14.0,4.923
-31.0,-21.0,4.924
-27.0,-22.0,4.925
-24.0,-21.0,4.926
-28.0,-26.0,4.927
-29.0,-32.0,4.928
-22.0,-30.0,4.929
-16.0,-20.0,4.93
-16.0,-13.0,4.931
-13.0,-12.0,4.932
-5.0,-9.0,4.933
2.0,6.0,4.934
6.0,28.0,4.935
9.0,41.0,4.936
10.0,43.0,4.937
7.0,36.0,4.938
-9.0,32.0,4.939
-20.0,24.0,4.94
-26.0,9.0,4.941
-29.0,0.0,4.942
-21.0,4.0,4.943
-1.0,10.0,4.944
14.0,9.0,4.945
12.0,-2.0,4.946
-3.0,-13.0,4.947
-17.0,-21.0,4.948
-27.0,-25.0,4.949
-27.0,-24.0,4.95
-17.0,-14.0,4.951
1.0,-2.0,4.952
14.0,8.0,4.953
14.0,12.0,4.954
8.0,10.0,4.955
5.0,6.0,4.956
11.0,2.0,4.957
18.0,-4.0,4.958
26.0,-9.0,4.959
35.0,-12.0,4.96
39.0,-12.0,4.961
30.0,0.0,4.962
5.0,9.0,4.963
-22.0,6.0,4.964
-34.0,-4.0,4.965
-28.0,-8.0,4.966
-18.0,-1.0,4.967
-12.0,4.0,4.968
-9.0,1.0,4.969
-11.0,-3.0,4.97
-24.0,-8.0,4.971
-38.0,-9.0,4.972
-32.0,-6.0,4.973
-4.0,1.0,4.974
30.0,7.0,4.975
67.0,2.0,4.976
106.0,-3.0,4.977
135.0,-2.0,4.978
125.0,3.0,4.979
74.0,2.0,4.98
24.0,-5.0,4.981
8.0,-6.0,4.982
10.0,0.0,4.983
0.0,-2.0,4.984
-25.0,-10.0,4.985
-50.0,-18.0,4.986
-56.0,-17.0,4.987
-41.0,-15.0,4.988
-16.0,-13.0,4.989
-5.0,-12.0,4.99
-17.0,-12.0,4.991
-40.0,-11.0,4.992
-47.0,-2.0,4.993
-27.0,11.0,4.994
9.0,17.0,4.995
41.0,12.0,4.996
61.0,14.0,4.997
72.0,37.0,4.998
76.0,58.0,4.999
58.0,50.0,5.0
5.0,19.0,5.001
-67.0,4.0,5.002
-105.0,11.0,5.003
-77.0,14.0,5.004
-22.0,0.0,5.005
2.0,-12.0,5.006
-10.0,-11.0,5.007
-15.0,-7.0,5.008
-2.0,-12.0,5.009
1.0,-18.0,5.01
-15.0,-14.0,5.011
-26.0,-13.0,5.012
-22.0,-23.0,5.013
-12.0,-30.0,5.014
-10.0,-25.0,5.015
-6.0,-12.0,5.016
8.0,-4.0,5.017
27.0,2.0,5.018
43.0,10.0,5.019
48.0,16.0,5.02
39.0,13.0,5.021
25.0,10.0,5.022
19.0,13.0,5.023
19.0,22.0,5.024
12.0,26.0,5.025
-4.0,18.0,5.026
-10.0,4.0,5.027
-4.0,-9.0,5.028
1.0,-12.0,5.029
-1.0,-10.0,5.03
-1.0,-9.0,5.031
8.0,-16.0,5.032
14.0,-21.0,5.033
9.0,-14.0,5.034
0.0,-3.0,5.035
-6.0,0.0,5.036
-11.0,-1.0,5.037
-14.0,3.0,5.038
-12.0,13.0,5.039
-6.0,11.0,5.04
-4.0,-8.0,5.041
-6.0,-23.0,5.042
-3.0,-23.0,5.043
6.0,-9.0,5.044
7.0,6.0,5.045
-3.0,18.0,5.046
-6.0,18.0,5.047
10.0,4.0,5.048
28.0,-11.0,5.049
26.0,-13.0,5.05
1.0,-5.0,5.051
-32.0,-3.0,5.052
-53.0,-8.0,5.053
-47.0,-8.0,5.054
-7.0,0.0,5.055
53.0,6.0,5.056
100.0,6.0,5.057
111.0,4.0,5.058
89.0,6.0,5.059
47.0,2.0,5.06
-1.0,-6.0,5.061
-48.0,-8.0,5.062
-67.0,-3.0,5.063
-43.0,0.0,5.064
3.0,0.0,5.065
33.0,-1.0,5.066
34.0,-5.0,5.067
33.0,-12.0,5.068
32.0,-16.0,5.069
7.0,-10.0,5.07
-44.0,-6.0,5.071
-82.0,-10.0,5.072
-63.0,-13.0,5.073
1.0,1.0,5.074
57.0,30.0,5.075
60.0,45.0,5.076
21.0,35.0,5.077
-26.0,14.0,5.078
-40.0,6.0,5.079
-27.0,16.0,5.08
-20.0,24.0,5.081
-35.0,20.0,5.082
-52.0,8.0,5.083
-46.0,1.0,5.084
-23.0,-1.0,5.085
3.0,-6.0,5.086
29.0,-18.0,5.087
47.0,-25.0,5.088
43.0,-20.0,5.089
20.0,-15.0,5.09
10.0,-21.0,5.091
22.0,-27.0,5.092
32.0,-21.0,5.093
22.0,-5.0,5.094
13.0,12.0,5.095
21.0,23.0,5.096
32.0,28.0,5.097
24.0,30.0,5.098
5.0,29.0,5.099
-14.0,21.0,5.1
-32.0,0.0,5.101
-52.0,-15.0,5.102
-62.0,-22.0,5.103
-53.0,-20.0,5.104
-40.0,-16.0,5.105
-25.0,-15.0,5.106
5.0,-13.0,5.107
48.0,-8.0,5.108
65.0,-4.0,5.109
35.0,-6.0,5.11
-16.0,-9.0,5.111
-45.0,-7.0,5.112
-34.0,-5.0,5.113
7.0,1.0,5.114
54.0,10.0,5.115
85.0,15.0,5.116
94.0,11.0,5.117
83.0,-2.0,5.118
63.0,-9.0,5.119
31.0,-8.0,5.12
-9.0,-8.0,5.121
-35.0,-4.0,5.122
-32.0,4.0,5.123
-21.0,12.0,5.124
-22.0,12.0,5.125
-26.0,2.0,5.126
-17.0,-8.0,5.127
1.0,-8.0,5.128
17.0,-2.0,5.129
37.0,0.0,5.13
64.0,-9.0,5.131
69.0,-19.0,5.132
33.0,-23.0,5.133
-22.0,-17.0,5.134
-53.0,-7.0,5.135
-40.0,5.0,5.136
-11.0,19.0,5.137
6.0,29.0,5.138
2.0,25.0,5.139
-20.0,6.0,5.14
-33.0,-16.0,5.141
-26.0,-25.0,5.142
-10.0,-20.0,5.143
-5.0,-8.0,5.144
-7.0,6.0,5.145
-6.0,23.0,5.146
-1.0,33.0,5.147
0.0,29.0,5.148
-1.0,16.0,5.149
5.0,6.0,5.15
11.0,0.0,5.151
5.0,-6.0,5.152
-4.0,-9.0,5.153
-7.0,-4.0,5.154
-4.0,4.0,5.155
-4.0,9.0,5.156
-4.0,9.0,5.157
-1.0,10.0,5.158
-1.0,12.0,5.159
-10.0,11.0,5.16
-18.0,4.0,5.161
-12.0,0.0,5.162
6.0,0.0,5.163
18.0,4.0,5.164
14.0,5.0,5.165
3.0,1.0,5.166
-1.0,-8.0,5.167
3.0,-18.0,5.168
6.0,-20.0,5.169
2.0,-17.0,5.17
0.0,-17.0,5.171
3.0,-18.0,5.172
7.0,-15.0,5.173
4.0,-5.0,5.174
1.0,3.0,5.175
15.0,5.0,5.176
38.0,5.0,5.177
47.0,3.0,5.178
24.0,1.0,5.179
-24.0,1.0,5.18
-61.0,-3.0,5.181
-65.0,-9.0,5.182
-39.0,-13.0,5.183
-11.0,-9.0,5.184
10.0,-1.0,5.185
32.0,-2.0,5.186
64.0,-13.0,5.187
94.0,-24.0,5.188
101.0,-27.0,5.189
88.0,-21.0,5.19
75.0,-8.0,5.191
71.0,9.0,5.192
62.0,21.0,5.193
35.0,25.0,5.194
-7.0,22.0,5.195
-38.0,24.0,5.196
-47.0,24.0,5.197
-48.0,15.0,5.198
-45.0,5.0,5.199
-34.0,1.0,5.2
-16.0,1.0,5.201
-14.0,0.0,5.202
-36.0,-8.0,5.203
-59.0,-18.0,5.204
-52.0,-17.0,5.205
-22.0,-5.0,5.206
-1.0,10.0,5.207
-2.0,16.0,5.208
-15.0,17.0,5.209
-33.0,15.0,5.21
-46.0,13.0,5.211
-40.0,6.0,5.212
-22.0,-7.0,5.213
-26.0,-14.0,5.214
-65.0,-9.0,5.215
-98.0,6.0,5.216
-76.0,20.0,5.217
4.0,18.0,5.218
99.0,5.0,5.219
169.0,-11.0,5.22
202.0,-28.0,5.221
188.0,-32.0,5.222
123.0,-28.0,5.223
40.0,-26.0,5.224
-13.0,-28.0,5.225
-20.0,-20.0,5.226
-7.0,0.0,5.227
-3.0,15.0,5.228
-9.0,15.0,5.229
-22.0,10.0,5.23
-38.0,16.0,5.231
-45.0,23.0,5.232
-32.0,8.0,5.233
-12.0,-18.0,5.234
0.0,-31.0,5.235
6.0,-24.0,5.236
17.0,-10.0,5.237
20.0,-7.0,5.238
5.0,-3.0,5.239
-20.0,20.0,5.24
-31.0,46.0,5.241
-37.0,56.0,5.242
-55.0,40.0,5.243
-84.0,19.0,5.244
-102.0,5.0,5.245
-90.0,-4.0,5.246
-49.0,-6.0,5.247
8.0,2.0,5.248
73.0,13.0,5.249
122.0,8.0,5.25
130.0,-10.0,5.251
94.0,-22.0,5.252
49.0,-19.0,5.253
30.0,-13.0,5.254
28.0,-15.0,5.255
8.0,-14.0,5.256
-28.0,-3.0,5.257
-46.0,9.0,5.258
-23.0,11.0,5.259
5.0,2.0,5.26
11.0,-8.0,5.261
11.0,-13.0,5.262
26.0,-18.0,5.263
32.0,-24.0,5.264
-2.0,-29.0,5.265
-57.0,-33.0,5.266
-89.0,-37.0,5.267
-92.0,-35.0,5.268
-89.0,-24.0,5.269
-83.0,1.0,5.27
-61.0,28.0,5.271
-23.0,34.0,5.272
23.0,19.0,5.273
65.0,3.0,5.274
94.0,7.0,5.275
102.0,20.0,5.276
101.0,31.0,5.277
98.0,26.0,5.278
78.0,18.0,5.279
18.0,9.0,5.28
-43.0,-6.0,5.281
-52.0,-13.0,5.282
-20.0,-8.0,5.283
-7.0,4.0,5.284
-25.0,7.0,5.285
-23.0,-1.0,5.286
19.0,-9.0,5.287
51.0,-12.0,5.288
40.0,-11.0,5.289
23.0,-13.0,5.29
32.0,-18.0,5.291
43.0,-22.0,5.292
26.0,-16.0,5.293
-10.0,-3.0,5.294
-36.0,10.0,5.295
-49.0,15.0,5.296
-55.0,23.0,5.297
-56.0,36.0,5.298
-53.0,44.0,5.299
-42.0,32.0,5.3
-15.0,9.0,5.301
28.0,4.0,5.302
61.0,11.0,5.303
56.0,3.0,5.304
21.0,-22.0,5.305
-6.0,-34.0,5.306
1.0,-19.0,5.307
36.0,0.0,5.308
65.0,2.0,5.309
51.0,-8.0,5.31
-18.0,-9.0,5.311
-101.0,-5.0,5.312
-137.0,-5.0,5.313
-102.0,-8.0,5.314
-25.0,-8.0,5.315
47.0,-1.0,5.316
78.0,6.0,5.317
60.0,2.0,5.318
23.0,-4.0,5.319
8.0,-9.0,5.32
30.0,-14.0,5.321
57.0,-16.0,5.322
55.0,-10.0,5.323
26.0,0.0,5.324
-5.0,11.0,5.325
-25.0,14.0,5.326
-37.0,1.0,5.327
-45.0,-17.0,5.328
-50.0,-30.0,5.329
-41.0,-32.0,5.33
-8.0,-27.0,5.331
34.0,-14.0,5.332
53.0,7.0,5.333
43.0,29.0,5.334
37.0,35.0,5.335
56.0,28.0,5.336
61.0,20.0,5.337
17.0,20.0,5.338
-37.0,23.0,5.339
-42.0,16.0,5.34
-3.0,3.0,5.341
26.0,-1.0,5.342
30.0,-4.0,5.343
31.0,-11.0,5.344
29.0,-17.0,5.345
7.0,-13.0,5.346
-21.0,-5.0,5.347
-17.0,-6.0,5.348
16.0,-15.0,5.349
44.0,-16.0,5.35
48.0,0.0,5.351
40.0,21.0,5.352
18.0,27.0,5.353
-23.0,10.0,5.354
-69.0,-8.0,5.355
-89.0,-12.0,5.356
-74.0,-4.0,5.357
-44.0,4.0,5.358
-17.0,11.0,5.359
-2.0,19.0,5.36
2.0,26.0,5.361
-3.0,25.0,5.362
-11.0,10.0,5.363
-11.0,-7.0,5.364
-3.0,-15.0,5.365
12.0,-14.0,5.366
22.0,-16.0,5.367
13.0,-18.0,5.368
-18.0,-13.0,5.369
-46.0,-7.0,5.37
-40.0,-8.0,5.371
-2.0,-11.0,5.372
35.0,-6.0,5.373
56.0,2.0,5.374
70.0,1.0,5.375
76.0,-6.0,5.376
62.0,-10.0,5.377
22.0,-9.0,5.378
-25.0,-7.0,5.379
-75.0,-3.0,5.38
-126.0,1.0,5.381
-147.0,9.0,5.382
-95.0,14.0,5.383
17.0,13.0,5.384
105.0,11.0,5.385
103.0,9.0,5.386
48.0,4.0,5.387
23.0,-4.0,5.388
40.0,-11.0,5.389
44.0,-13.0,5.39
17.0,-10.0,5.391
5.0,-7.0,5.392
31.0,-7.0,5.393
60.0,-9.0,5.394
68.0,-12.0,5.395
74.0,-15.0,5.396
81.0,-18.0,5.397
43.0,-22.0,5.398
-40.0,-17.0,5.399
-96.0,-2.0,5.4
-74.0,16.0,5.401
-28.0,29.0,5.402
-27.0,25.0,5.403
-53.0,7.0,5.404
-44.0,-4.0,5.405
5.0,0.0,5.406
53.0,10.0,5.407
81.0,13.0,5.408
89.0,14.0,5.409
62.0,16.0,5.41
2.0,12.0,5.411
-47.0,-1.0,5.412
-59.0,-9.0,5.413
-61.0,0.0,5.414
-75.0,17.0,5.415
-66.0,22.0,5.416
-21.0,17.0,5.417
15.0,16.0,5.418
3.0,19.0,5.419
-23.0,14.0,5.42
-8.0,-3.0,5.421
27.0,-13.0,5.422
37.0,-15.0,5.423
28.0,-17.0,5.424
27.0,-23.0,5.425
25.0,-29.0,5.426
3.0,-28.0,5.427
-13.0,-26.0,5.428
-4.0,-26.0,5.429
8.0,-26.0,5.43
0.0,-25.0,5.431
-5.0,-15.0,5.432
7.0,9.0,5.433
15.0,39.0,5.434
5.0,51.0,5.435
0.0,40.0,5.436
17.0,28.0,5.437
31.0,27.0,5.438
15.0,31.0,5.439
-24.0,23.0,5.44
-58.0,3.0,5.441
-84.0,-6.0,5.442
-98.0,-7.0,5.443
-81.0,-11.0,5.444
-25.0,-19.0,5.445
43.0,-23.0,5.446
80.0,-19.0,5.447
68.0,-13.0,5.448
29.0,-10.0,5.449
-1.0,-9.0,5.45
-1.0,-9.0,5.451
17.0,-8.0,5.452
25.0,-4.0,5.453
5.0,1.0,5.454
-24.0,4.0,5.455
-27.0,0.0,5.456
8.0,-9.0,5.457
60.0,-14.0,5.458
102.0,-13.0,5.459
123.0,-10.0,5.46
80.0,-9.0,5.461
38.0,-6.0,5.462
4.0,3.0,5.463
-12.0,17.0,5.464
22.0,22.0,5.465
32.0,14.0,5.466
-37.0,0.0,5.467
-92.0,-12.0,5.468
-104.0,-20.0,5.469
-103.0,-16.0,5.47
-64.0,-4.0,5.471
-27.0,5.0,5.472
4.0,5.0,5.473
23.0,-7.0,5.474
5.0,-22.0,5.475
-7.0,-27.0,5.476
-1.0,-12.0,5.477
14.0,11.0,5.478
62.0,30.0,5.479
100.0,38.0,5.48
116.0,11.0,5.481
108.0,-11.0,5.482
82.0,-18.0,5.483
37.0,-19.0,5.484
-16.0,0.0,5.485
-58.0,18.0,5.486
-74.0,38.0,5.487
-76.0,46.0,5.488
-84.0,20.0,5.489
-87.0,-1.0,5.49
-65.0,-12.0,5.491
-14.0,-22.0,5.492
46.0,-30.0,5.493
90.0,-33.0,5.494
94.0,-21.0,5.495
44.0,-7.0,5.496
-30.0,12.0,5.497
-74.0,22.0,5.498
-50.0,-3.0,5.499
2.0,-19.0,5.5
27.0,-12.0,5.501
18.0,6.0,5.502
8.0,15.0,5.503
4.0,16.0,5.504
-17.0,17.0,5.505
-57.0,25.0,5.506
-80.0,29.0,5.507
-62.0,21.0,5.508
-22.0,5.0,5.509
3.0,-9.0,5.51
5.0,-17.0,5.511
21.0,-17.0,5.512
82.0,-8.0,5.513
151.0,0.0,5.514
139.0,-1.0,5.515
27.0,-4.0,5.516
-85.0,4.0,5.517
-105.0,13.0,5.518
-45.0,7.0,5.519
-5.0,-20.0,5.52
-13.0,-44.0,5.521
-14.0,-39.0,5.522
24.0,-17.0,5.523
54.0,2.0,5.524
46.0,16.0,5.525
31.0,17.0,5.526
43.0,2.0,5.527
55.0,-22.0,5.528
28.0,-32.0,5.529
-16.0,-27.0,5.53
-38.0,-22.0,5.531
-31.0,-21.0,5.532
-10.0,-9.0,5.533
21.0,15.0,5.534
52.0,33.0,5.535
56.0,39.0,5.536
28.0,51.0,5.537
-1.0,60.0,5.538
-6.0,46.0,5.539
-27.0,11.0,5.54
-91.0,-14.0,5.541
-160.0,-7.0,5.542
-165.0,8.0,5.543
-100.0,10.0,5.544
-31.0,6.0,5.545
3.0,0.0,5.546
14.0,-13.0,5.547
19.0,-34.0,5.548
16.0,-36.0,5.549
6.0,-18.0,5.55
16.0,-1.0,5.551
52.0,3.0,5.552
98.0,4.0,5.553
145.0,1.0,5.554
189.0,-12.0,5.555
198.0,-26.0,5.556
134.0,-22.0,5.557
-6.0,-14.0,5.558
-131.0,-16.0,5.559
-168.0,-24.0,5.56
-116.0,-19.0,5.561
-20.0,5.0,5.562
78.0,24.0,5.563
129.0,23.0,5.564
97.0,16.0,5.565
13.0,8.0,5.566
-47.0,0.0,5.567
-61.0,-6.0,5.568
-66.0,3.0,5.569
-76.0,18.0,5.57
-54.0,19.0,5.571
14.0,2.0,5.572
78.0,-15.0,5.573
95.0,-14.0,5.574
73.0,-10.0,5.575
41.0,-21.0,5.576
5.0,-39.0,5.577
-45.0,-46.0,5.578
-96.0,-28.0,5.579
-132.0,2.0,5.58
-141.0,28.0,5.581
-108.0,50.0,5.582
-25.0,65.0,5.583
73.0,57.0,5.584
115.0,26.0,5.585
82.0,-3.0,5.586
32.0,-6.0,5.587
17.0,1.0,5.588
26.0,-4.0,5.589
29.0,-13.0,5.59
38.0,-6.0,5.591
71.0,8.0,5.592
103.0,7.0,5.593
83.0,-13.0,5.594
7.0,-29.0,5.595
-75.0,-25.0,5.596
-118.0,-19.0,5.597
-118.0,-19.0,5.598
-79.0,-17.0,5.599
-26.0,1.0,5.6
-1.0,20.0,5.601
-5.0,27.0,5.602
1.0,17.0,5.603
38.0,13.0,5.604
65.0,21.0,5.605
38.0,23.0,5.606
-18.0,5.0,5.607
-38.0,-17.0,5.608
-12.0,-22.0,5.609
20.0,-14.0,5.61
30.0,-15.0,5.611
26.0,-28.0,5.612
13.0,-32.0,5.613
-15.0,-21.0,5.614
-45.0,-7.0,5.615
-50.0,1.0,5.616
-22.0,8.0,5.617
8.0,9.0,5.618
8.0,0.0,5.619
-23.0,-9.0,5.62
-38.0,-7.0,5.621
0.0,9.0,5.622
59.0,20.0,5.623
68.0,18.0,5.624
7.0,16.0,5.625
-64.0,13.0,5.626
-90.0,1.0,5.627
-64.0,-11.0,5.628
-6.0,-9.0,5.629
67.0,3.0,5.63
140.0,6.0,5.631
189.0,-2.0,5.632
189.0,0.0,5.633
139.0,13.0,5.634
49.0,19.0,5.635
-32.0,6.0,5.636
-56.0,0.0,5.637
-27.0,1.0,5.638
-8.0,3.0,5.639
-28.0,1.0,5.64
-46.0,-16.0,5.641
-37.0,-30.0,5.642
-44.0,-36.0,5.643
-87.0,-37.0,5.644
-107.0,-18.0,5.645
-56.0,-1.0,5.646
14.0,8.0,5.647
27.0,15.0,5.648
-17.0,16.0,5.649
-64.0,19.0,5.65
-85.0,27.0,5.651
-88.0,26.0,5.652
-79.0,-6.0,5.653
-63.0,-29.0,5.654
-50.0,-21.0,5.655
-35.0,-8.0,5.656
-4.0,17.0,5.657
49.0,45.0,5.658
95.0,58.0,5.659
113.0,45.0,5.66
117.0,11.0,5.661
119.0,-6.0,5.662
97.0,2.0,5.663
38.0,11.0,5.664
-19.0,0.0,5.665
-17.0,-17.0,5.666
36.0,-21.0,5.667
83.0,-20.0,5.668
88.0,-23.0,5.669
62.0,-22.0,5.67
26.0,-12.0,5.671
-9.0,-5.0,5.672
-29.0,-9.0,5.673
-16.0,-17.0,5.674
15.0,-15.0,5.675
28.0,-11.0,5.676
24.0,-11.0,5.677
26.0,-10.0,5.678
40.0,0.0,5.679
27.0,12.0,5.68
-32.0,7.0,5.681
-108.0,-5.0,5.682
-178.0,-8.0,5.683
-240.0,-5.0,5.684
-268.0,-6.0,5.685
-198.0,-10.0,5.686
-31.0,-15.0,5.687
134.0,-14.0,5.688
205.0,-12.0,5.689
196.0,-8.0,5.69
156.0,-3.0,5.691
95.0,0.0,5.692
18.0,-2.0,5.693
-10.0,-4.0,5.694
43.0,1.0,5.695
113.0,13.0,5.696
121.0,24.0,5.697
63.0,21.0,5.698
-16.0,14.0,5.699
-93.0,10.0,5.7
-142.0,9.0,5.701
-130.0,4.0,5.702
-66.0,-5.0,5.703
-21.0,-5.0,5.704
-22.0,5.0,5.705
-34.0,7.0,5.706
-23.0,-11.0,5.707
-20.0,-31.0,5.708
-38.0,-24.0,5.709
-41.0,7.0,5.71
-9.0,31.0,5.711
33.0,31.0,5.712
60.0,30.0,5.713
82.0,37.0,5.714
89.0,36.0,5.715
58.0,17.0,5.716
16.0,-4.0,5.717
1.0,-9.0,5.718
21.0,0.0,5.719
31.0,7.0,5.72
21.0,6.0,5.721
20.0,9.0,5.722
48.0,7.0,5.723
75.0,-5.0,5.724
66.0,-15.0,5.725
12.0,-14.0,5.726
-62.0,-14.0,5.727
-121.0,-23.0,5.728
-138.0,-28.0,5.729
-119.0,-24.0,5.73
-76.0,-23.0,5.731
-4.0,-29.0,5.732
95.0,-23.0,5.733
167.0,0.0,5.734
148.0,19.0,5.735
49.0,19.0,5.736
-42.0,17.0,5.737
-79.0,25.0,5.738
-67.0,27.0,5.739
-35.0,8.0,5.74
-5.0,-13.0,5.741
5.0,-16.0,5.742
-23.0,-12.0,5.743
-57.0,-18.0,5.744
-47.0,-26.0,5.745
3.0,-22.0,5.746
31.0,-11.0,5.747
10.0,-5.0,5.748
-7.0,-5.0,5.749
14.0,6.0,5.75
42.0,23.0,5.751
31.0,30.0,5.752
-10.0,21.0,5.753
-30.0,5.0,5.754
-9.0,-7.0,5.755
34.0,-5.0,5.756
64.0,9.0,5.757
68.0,21.0,5.758
52.0,21.0,5.759
24.0,9.0,5.76
-6.0,-5.0,5.761
-15.0,-17.0,5.762
6.0,-28.0,5.763
42.0,-29.0,5.764
56.0,-15.0,5.765
26.0,5.0,5.766
-34.0,19.0,5.767
-87.0,18.0,5.768
-96.0,8.0,5.769
-62.0,-6.0,5.77
-14.0,-16.0,5.771
12.0,-13.0,5.772
3.0,-4.0,5.773
-14.0,0.0,5.774
2.0,-4.0,5.775
64.0,-4.0,5.776
117.0,1.0,5.777
90.0,8.0,5.778
-11.0,10.0,5.779
-90.0,9.0,5.78
-60.0,8.0,5.781
28.0,5.0,5.782
82.0,-3.0,5.783
75.0,-14.0,5.784
56.0,-26.0,5.785
42.0,-34.0,5.786
10.0,-35.0,5.787
-39.0,-23.0,5.788
-80.0,-3.0,5.789
-103.0,15.0,5.79
-119.0,22.0,5.791
-112.0,14.0,5.792
-58.0,7.0,5.793
22.0,16.0,5.794
87.0,34.0,5.795
118.0,34.0,5.796
129.0,13.0,5.797
110.0,-11.0,5.798
36.0,-15.0,5.799
-80.0,-2.0,5.8
-160.0,3.0,5.801
-133.0,-2.0,5.802
-19.0,-6.0,5.803
83.0,1.0,5.804
93.0,14.0,5.805
20.0,21.0,5.806
-63.0,12.0,5.807
-96.0,-11.0,5.808
-57.0,-31.0,5.809
25.0,-26.0,5.81
88.0,1.0,5.811
90.0,26.0,5.812
54.0,30.0,5.813
34.0,11.0,5.814
40.0,-13.0,5.815
24.0,-27.0,5.816
-33.0,-21.0,5.817
-114.0,-7.0,5.818
-172.0,0.0,5.819
-177.0,5.0,5.82
-112.0,3.0,5.821
0.0,2.0,5.822
90.0,3.0,5.823
113.0,5.0,5.824
120.0,8.0,5.825
178.0,12.0,5.826
246.0,17.0,5.827
218.0,17.0,5.828
94.0,2.0,5.829
-16.0,-13.0,5.83
-36.0,-27.0,5.831
-14.0,-34.0,5.832
-19.0,-17.0,5.833
-46.0,-4.0,5.834
-34.0,-6.0,5.835
44.0,-7.0,5.836
137.0,-1.0,5.837
166.0,4.0,5.838
80.0,5.0,5.839
-86.0,9.0,5.84
-237.0,16.0,5.841
-293.0,11.0,5.842
-235.0,-7.0,5.843
-100.0,-14.0,5.844
25.0,5.0,5.845
60.0,26.0,5.846
12.0,15.0,5.847
-44.0,-18.0,5.848
-71.0,-42.0,5.849
-90.0,-44.0,5.85
-89.0,-40.0,5.851
-26.0,-33.0,5.852
78.0,-14.0,5.853
143.0,20.0,5.854
141.0,46.0,5.855
109.0,45.0,5.856
73.0,26.0,5.857
17.0,5.0,5.858
-27.0,0.0,5.859
-11.0,0.0,5.86
29.0,-7.0,5.861
7.0,-10.0,5.862
-72.0,-2.0,5.863
-107.0,3.0,5.864
-54.0,-3.0,5.865
20.0,-5.0,5.866
51.0,16.0,5.867
54.0,40.0,5.868
59.0,35.0,5.869
53.0,8.0,5.87
18.0,-6.0,5.871
-34.0,1.0,5.872
-72.0,8.0,5.873
-60.0,6.0,5.874
3.0,5.0,5.875
75.0,13.0,5.876
102.0,19.0,5.877
81.0,8.0,5.878
55.0,-10.0,5.879
35.0,-22.0,5.88
-13.0,-27.0,5.881
-72.0,-27.0,5.882
-51.0,-25.0,5.883
77.0,-22.0,5.884
184.0,-16.0,5.885
134.0,-13.0,5.886
-43.0,-13.0,5.887
-180.0,-9.0,5.888
-173.0,-5.0,5.889
-74.0,-5.0,5.89
3.0,-11.0,5.891
2.0,-14.0,5.892
-44.0,-10.0,5.893
-66.0,-5.0,5.894
-25.0,-6.0,5.895
46.0,-12.0,5.896
81.0,-13.0,5.897
60.0,-8.0,5.898
20.0,1.0,5.899
3.0,7.0,5.9
9.0,0.0,5.901
9.0,-7.0,5.902
-10.0,-4.0,5.903
-38.0,6.0,5.904
-61.0,10.0,5.905
-70.0,5.0,5.906
-63.0,11.0,5.907
-48.0,40.0,5.908
-32.0,62.0,5.909
-20.0,48.0,5.91
7.0,9.0,5.911
66.0,-12.0,5.912
141.0,-4.0,5.913
172.0,14.0,5.914
108.0,13.0,5.915
-11.0,-3.0,5.916
-92.0,-11.0,5.917
-111.0,-11.0,5.918
-112.0,-6.0,5.919
-108.0,-4.0,5.92
-40.0,-11.0,5.921
106.0,-21.0,5.922
206.0,-30.0,5.923
181.0,-36.0,5.924
131.0,-39.0,5.925
167.0,-38.0,5.926
191.0,-27.0,5.927
38.0,-6.0,5.928
-215.0,16.0,5.929
-309.0,32.0,5.93
-163.0,36.0,5.931
31.0,31.0,5.932
106.0,23.0,5.933
105.0,18.0,5.934
110.0,10.0,5.935
90.0,-8.0,5.936
6.0,-31.0,5.937
-94.0,-44.0,5.938
-129.0,-31.0,5.939
-103.0,-1.0,5.94
-78.0,26.0,5.941
-72.0,48.0,5.942
-62.0,59.0,5.943
-41.0,57.0,5.944
-4.0,34.0,5.945
54.0,3.0,5.946
129.0,-13.0,5.947
185.0,-9.0,5.948
188.0,4.0,5.949
128.0,8.0,5.95
10.0,3.0,5.951
-128.0,0.0,5.952
-209.0,-7.0,5.953
-179.0,-19.0,5.954
-74.0,-30.0,5.955
17.0,-30.0,5.956
49.0,-19.0,5.957
35.0,-12.0,5.958
8.0,-9.0,5.959
-21.0,0.0,5.96
-58.0,13.0,5.961
-81.0,17.0,5.962
-56.0,-1.0,5.963
-27.0,-27.0,5.964
13.0,-30.0,5.965
44.0,-9.0,5.966
44.0,8.0,5.967
41.0,0.0,5.968
35.0,-19.0,5.969
13.0,-21.0,5.97
-52.0,-8.0,5.971
-77.0,4.0,5.972
25.0,8.0,5.973
110.0,11.0,5.974
138.0,7.0,5.975
138.0,-5.0,5.976
55.0,-9.0,5.977
-23.0,9.0,5.978
-51.0,35.0,5.979
-37.0,36.0,5.98
-6.0,9.0,5.981
28.0,0.0,5.982
47.0,13.0,5.983
31.0,22.0,5.984
-9.0,9.0,5.985
-29.0,-8.0,5.986
-6.0,-14.0,5.987
21.0,-21.0,5.988
9.0,-32.0,5.989
-32.0,-37.0,5.99
-46.0,-32.0,5.991
-1.0,-25.0,5.992
73.0,-19.0,5.993
125.0,-13.0,5.994
131.0,-7.0,5.995
93.0,-3.0,5.996
31.0,5.0,5.997
-60.0,24.0,5.998
-118.0,41.0,5.999
-128.0,36.0,6.0
-112.0,10.0,6.001
-88.0,-7.0,6.002
-42.0,-6.0,6.003
13.0,0.0,6.004
15.0,2.0,6.005
-53.0,-1.0,6.006
-100.0,-5.0,6.007
-43.0,-6.0,6.008
60.0,-2.0,6.009
106.0,8.0,6.01
82.0,12.0,6.011
36.0,17.0,6.012
-34.0,32.0,6.013
-110.0,48.0,6.014
-105.0,37.0,6.015
10.0,2.0,6.016
98.0,-20.0,6.017
46.0,-16.0,6.018
-58.0,-9.0,6.019
-63.0,-20.0,6.02
-7.0,-35.0,6.021
-28.0,-24.0,6.022
-70.0,-4.0,6.023
44.0,-2.0,6.024
276.0,-11.0,6.025
360.0,-1.0,6.026
179.0,25.0,6.027
-82.0,32.0,6.028
-203.0,6.0,6.029
-168.0,-27.0,6.03
-68.0,-41.0,6.031
49.0,-32.0,6.032
148.0,-15.0,6.033
168.0,0.0,6.034
99.0,8.0,6.035
4.0,4.0,6.036
-56.0,-8.0,6.037
-76.0,-21.0,6.038
-33.0,-22.0,6.039
82.0,-20.0,6.04
185.0,-10.0,6.041
140.0,0.0,6.042
-47.0,10.0,6.043
-210.0,16.0,6.044
-219.0,4.0,6.045
-137.0,-5.0,6.046
-88.0,-6.0,6.047
-85.0,0.0,6.048
-80.0,35.0,6.049
-73.0,59.0,6.05
-86.0,49.0,6.051
-104.0,36.0,6.052
-85.0,12.0,6.053
-24.0,-7.0,6.054
57.0,-13.0,6.055
122.0,-19.0,6.056
146.0,-19.0,6.057
131.0,-17.0,6.058
121.0,-12.0,6.059
136.0,-22.0,6.06
148.0,-40.0,6.061
130.0,-38.0,6.062
106.0,-8.0,6.063
103.0,29.0,6.064
97.0,50.0,6.065
59.0,46.0,6.066
-3.0,22.0,6.067
-79.0,-3.0,6.068
-166.0,-11.0,6.069
-223.0,-6.0,6.07
-187.0,-9.0,6.071
-83.0,-28.0,6.072
-21.0,-39.0,6.073
-32.0,-19.0,6.074
-38.0,19.0,6.075
2.0,39.0,6.076
17.0,30.0,6.077
-41.0,11.0,6.078
-92.0,7.0,6.079
-50.0,1.0,6.08
34.0,-4.0,6.081
66.0,-11.0,6.082
56.0,-21.0,6.083
82.0,-30.0,6.084
153.0,-28.0,6.085
189.0,-26.0,6.086
129.0,-23.0,6.087
10.0,-17.0,6.088
-66.0,-6.0,6.089
-30.0,5.0,6.09
76.0,17.0,6.091
114.0,27.0,6.092
-7.0,31.0,6.093
-208.0,35.0,6.094
-312.0,33.0,6.095
-229.0,32.0,6.096
-29.0,34.0,6.097
166.0,29.0,6.098
258.0,0.0,6.099
280.0,-14.0,6.1
94.0,-15.0,6.101
-70.0,-28.0,6.102
-168.0,-52.0,6.103
-208.0,-54.0,6.104
-73.0,-24.0,6.105
13.0,8.0,6.106
-44.0,28.0,6.107
-92.0,42.0,6.108
-104.0,52.0,6.109
-103.0,48.0,6.11
-61.0,31.0,6.111
-1.0,14.0,6.112
114.0,1.0,6.113
191.0,-14.0,6.114
149.0,-27.0,6.115
68.0,-21.0,6.116
-133.0,-7.0,6.117
-283.0,40.0,6.118
-201.0,42.0,6.119
-55.0,37.0,6.12
36.0,10.0,6.121
77.0,-11.0,6.122
111.0,-14.0,6.123
132.0,-19.0,6.124
97.0,-29.0,6.125
19.0,-37.0,6.126
-39.0,-39.0,6.127
-39.0,-32.0,6.128
6.0,2.0,6.129
77.0,30.0,6.13
164.0,34.0,6.131
230.0,27.0,6.132
208.0,-15.0,6.133
94.0,-48.0,6.134
-55.0,-50.0,6.135
-204.0,-43.0,6.136
-331.0,-3.0,6.137
-379.0,40.0,6.138
-227.0,42.0,6.139
88.0,37.0,6.14
337.0,10.0,6.141
339.0,-11.0,6.142
176.0,-14.0,6.143
63.0,-19.0,6.144
86.0,-29.0,6.145
156.0,-37.0,6.146
161.0,-39.0,6.147
70.0,-32.0,6.148
-63.0,2.0,6.149
-141.0,30.0,6.15
-95.0,34.0,6.151
23.0,27.0,6.152
77.0,-15.0,6.153
9.0,-48.0,6.154
-92.0,-50.0,6.155
-128.0,-43.0,6.156
-113.0,-3.0,6.157
-117.0,37.0,6.158
-140.0,63.0,6.159
-124.0,66.0,6.16
-49.0,47.0,6.161
44.0,29.0,6.162
115.0,21.0,6.163
161.0,15.0,6.164
182.0,4.0,6.165
151.0,-15.0,6.166
38.0,-31.0,6.167
-146.0,-34.0,6.168
-312.0,-20.0,6.169
-342.0,4.0,6.17
-200.0,27.0,6.171
12.0,38.0,6.172
161.0,40.0,6.173
207.0,32.0,6.174
199.0,10.0,6.175
160.0,-14.0,6.176
64.0,-33.0,6.177
-103.0,-46.0,6.178
-259.0,-58.0,6.179
-354.0,-54.0,6.18
-262.0,-23.0,6.181
-130.0,22.0,6.182
121.0,41.0,6.183
301.0,28.0,6.184
263.0,14.0,6.185
196.0,18.0,6.186
41.0,25.0,6.187
-48.0,21.0,6.188
60.0,15.0,6.189
121.0,11.0,6.19
35.0,-5.0,6.191
-58.0,-27.0,6.192
-177.0,-26.0,6.193
-248.0,-2.0,6.194
-174.0,10.0,6.195
-77.0,-7.0,6.196
88.0,-24.0,6.197
260.0,-13.0,6.198
415.0,8.0,6.199
427.0,13.0,6.2
257.0,-1.0,6.201
-5.0,-9.0,6.202
-194.0,-11.0,6.203
-233.0,-20.0,6.204
-173.0,-19.0,6.205
-99.0,6.0,6.206
-25.0,34.0,6.207
52.0,25.0,6.208
96.0,-19.0,6.209
87.0,-56.0,6.21
64.0,-61.0,6.211
65.0,-41.0,6.212
63.0,-10.0,6.213
11.0,25.0,6.214
-64.0,44.0,6.215
-98.0,33.0,6.216
-87.0,11.0,6.217
-91.0,1.0,6.218
-140.0,6.0,6.219
-178.0,4.0,6.22
-155.0,-8.0,6.221
-84.0,-1.0,6.222
-17.0,34.0,6.223
31.0,64.0,6.224
74.0,59.0,6.225
116.0,20.0,6.226
145.0,-16.0,6.227
144.0,-26.0,6.228
96.0,-12.0,6.229
-2.0,5.0,6.23
-115.0,9.0,6.231
-177.0,-4.0,6.232
-144.0,-29.0,6.233
-26.0,-49.0,6.234
105.0,-45.0,6.235
153.0,-20.0,6.236
83.0,6.0,6.237
-39.0,19.0,6.238
-60.0,16.0,6.239
56.0,9.0,6.24
169.0,2.0,6.241
139.0,3.0,6.242
14.0,14.0,6.243
-55.0,20.0,6.244
-5.0,8.0,6.245
116.0,-20.0,6.246
213.0,-41.0,6.247
198.0,-43.0,6.248
40.0,-36.0,6.249
-164.0,-31.0,6.25
-253.0,-26.0,6.251
-163.0,-12.0,6.252
4.0,6.0,6.253
114.0,25.0,6.254
110.0,35.0,6.255
30.0,37.0,6.256
-49.0,36.0,6.257
-86.0,26.0,6.258
-91.0,6.0,6.259
-125.0,-17.0,6.26
-186.0,-31.0,6.261
-170.0,-24.0,6.262
-14.0,-14.0,6.263
162.0,-15.0,6.264
191.0,-24.0,6.265
75.0,-30.0,6.266
-18.0,-31.0,6.267
-7.0,-19.0,6.268
34.0,12.0,6.269
27.0,51.0,6.27
9.0,61.0,6.271
40.0,35.0,6.272
86.0,5.0,6.273
86.0,0.0,6.274
39.0,5.0,6.275
-19.0,6.0,6.276
-79.0,6.0,6.277
-140.0,5.0,6.278
-151.0,-2.0,6.279
-76.0,-15.0,6.28
17.0,-15.0,6.281
26.0,6.0,6.282
-40.0,24.0,6.283
-63.0,24.0,6.284
34.0,30.0,6.285
181.0,53.0,6.286
247.0,63.0,6.287
175.0,34.0,6.288
15.0,-10.0,6.289
-128.0,-33.0,6.29
-179.0,-40.0,6.291
-142.0,-54.0,6.292
-76.0,-66.0,6.293
-30.0,-52.0,6.294
10.0,-19.0,6.295
83.0,0.0,6.296
171.0,2.0,6.297
242.0,1.0,6.298
260.0,11.0,6.299
188.0,19.0,6.3
4.0,10.0,6.301
-243.0,2.0,6.302
-399.0,7.0,6.303
-313.0,23.0,6.304
-30.0,28.0,6.305
206.0,11.0,6.306
197.0,-19.0,6.307
-8.0,-37.0,6.308
-200.0,-29.0,6.309
-237.0,-4.0,6.31
-145.0,16.0,6.311
-10.0,21.0,6.312
96.0,17.0,6.313
106.0,14.0,6.314
-1.0,7.0,6.315
-109.0,-9.0,6.316
-80.0,-30.0,6.317
80.0,-48.0,6.318
191.0,-59.0,6.319
121.0,-58.0,6.32
-44.0,-42.0,6.321
-145.0,-5.0,6.322
-136.0,38.0,6.323
-62.0,69.0,6.324
37.0,74.0,6.325
122.0,48.0,6.326
143.0,6.0,6.327
101.0,-24.0,6.328
61.0,-22.0,6.329
60.0,-1.0,6.33
62.0,8.0,6.331
26.0,-10.0,6.332
-26.0,-36.0,6.333
-42.0,-43.0,6.334
27.0,-30.0,6.335
167.0,-9.0,6.336
263.0,7.0,6.337
197.0,6.0,6.338
12.0,-6.0,6.339
-93.0,-12.0,6.34
-1.0,-1.0,6.341
134.0,31.0,6.342
95.0,59.0,6.343
-124.0,70.0,6.344
-325.0,61.0,6.345
-341.0,33.0,6.346
-184.0,0.0,6.347
27.0,-16.0,6.348
175.0,-1.0,6.349
197.0,15.0,6.35
93.0,5.0,6.351
-66.0,-19.0,6.352
-169.0,-27.0,6.353
-133.0,-25.0,6.354
-6.0,-38.0,6.355
39.0,-64.0,6.356
-55.0,-78.0,6.357
-157.0,-77.0,6.358
-67.0,-66.0,6.359
172.0,-42.0,6.36
307.0,-1.0,6.361
221.0,43.0,6.362
46.0,61.0,6.363
-89.0,54.0,6.364
-195.0,47.0,6.365
-257.0,43.0,6.366
-187.0,26.0,6.367
-18.0,7.0,6.368
75.0,9.0,6.369
29.0,27.0,6.37
-42.0,32.0,6.371
-70.0,22.0,6.372
-111.0,18.0,6.373
-153.0,25.0,6.374
-92.0,19.0,6.375
68.0,1.0,6.376
196.0,-6.0,6.377
245.0,0.0,6.378
287.0,3.0,6.379
338.0,-6.0,6.38
315.0,-19.0,6.381
194.0,-26.0,6.382
69.0,-34.0,6.383
-3.0,-43.0,6.384
-77.0,-47.0,6.385
-180.0,-45.0,6.386
-237.0,-38.0,6.387
-168.0,-25.0,6.388
-1.0,1.0,6.389
146.0,33.0,6.39
160.0,50.0,6.391
40.0,47.0,6.392
-93.0,35.0,6.393
-155.0,26.0,6.394
-194.0,9.0,6.395
-269.0,-16.0,6.396
-308.0,-28.0,6.397
-216.0,-18.0,6.398
-57.0,-5.0,6.399
4.0,-21.0,6.4
-52.0,-54.0,6.401
-75.0,-59.0,6.402
28.0,-32.0,6.403
173.0,-11.0,6.404
235.0,-9.0,6.405
192.0,8.0,6.406
92.0,51.0,6.407
-10.0,84.0,6.408
-71.0,70.0,6.409
-72.0,30.0,6.41
-33.0,3.0,6.411
21.0,5.0,6.412
95.0,21.0,6.413
196.0,29.0,6.414
279.0,23.0,6.415
259.0,7.0,6.416
115.0,-3.0,6.417
-96.0,-18.0,6.418
-234.0,-44.0,6.419
-235.0,-70.0,6.42
-151.0,-62.0,6.421
-30.0,-9.0,6.422
137.0,45.0,6.423
297.0,44.0,6.424
301.0,-3.0,6.425
110.0,-41.0,6.426
-91.0,-32.0,6.427
-126.0,12.0,6.428
-67.0,47.0,6.429
-78.0,41.0,6.43
-139.0,-2.0,6.431
-109.0,-48.0,6.432
-1.0,-66.0,6.433
54.0,-56.0,6.434
35.0,-33.0,6.435
42.0,-11.0,6.436
100.0,18.0,6.437
141.0,44.0,6.438
130.0,54.0,6.439
86.0,44.0,6.44
-3.0,22.0,6.441
-181.0,1.0,6.442
-389.0,-18.0,6.443
-484.0,-30.0,6.444
-392.0,-20.0,6.445
-171.0,10.0,6.446
65.0,40.0,6.447
217.0,52.0,6.448
223.0,47.0,6.449
135.0,33.0,6.45
85.0,17.0,6.451
131.0,-6.0,6.452
179.0,-29.0,6.453
135.0,-45.0,6.454
45.0,-50.0,6.455
15.0,-45.0,6.456
52.0,-40.0,6.457
100.0,-44.0,6.458
106.0,-50.0,6.459
34.0,-44.0,6.46
-119.0,-27.0,6.461
-259.0,-6.0,6.462
-225.0,8.0,6.463
8.0,20.0,6.464
227.0,36.0,6.465
196.0,55.0,6.466
-45.0,59.0,6.467
-210.0,39.0,6.468
-110.0,11.0,6.469
126.0,-4.0,6.47
213.0,-5.0,6.471
38.0,-4.0,6.472
-202.0,-7.0,6.473
-211.0,-8.0,6.474
81.0,-8.0,6.475
407.0,-16.0,6.476
438.0,-24.0,6.477
106.0,-24.0,6.478
-300.0,-3.0,6.479
-462.0,22.0,6.48
-339.0,30.0,6.481
-130.0,16.0,6.482
-4.0,-18.0,6.483
1.0,-49.0,6.484
-46.0,-47.0,6.485
-39.0,2.0,6.486
70.0,61.0,6.487
192.0,80.0,6.488
204.0,50.0,6.489
109.0,9.0,6.49
4.0,-2.0,6.491
-66.0,18.0,6.492
-102.0,48.0,6.493
-84.0,65.0,6.494
-18.0,45.0,6.495
15.0,-12.0,6.496
-16.0,-67.0,6.497
-18.0,-80.0,6.498
69.0,-51.0,6.499
128.0,-23.0,6.5
101.0,1.0,6.501
75.0,19.0,6.502
51.0,18.0,6.503
43.0,13.0,6.504
83.0,-2.0,6.505
102.0,-16.0,6.506
57.0,-25.0,6.507
-1.0,-35.0,6.508
-99.0,-47.0,6.509
-182.0,-52.0,6.51
-217.0,-38.0,6.511
-201.0,-22.0,6.512
-29.0,-2.0,6.513
111.0,16.0,6.514
153.0,25.0,6.515
149.0,32.0,6.516
3.0,26.0,6.517
-105.0,22.0,6.518
-20.0,5.0,6.519
141.0,-35.0,6.52
210.0,-62.0,6.521
131.0,-43.0,6.522
-16.0,-15.0,6.523
-145.0,-13.0,6.524
-225.0,-18.0,6.525
-230.0,-3.0,6.526
-115.0,23.0,6.527
71.0,36.0,6.528
160.0,49.0,6.529
42.0,85.0,6.53
-149.0,116.0,6.531
-186.0,103.0,6.532
-52.0,40.0,6.533
69.0,-26.0,6.534
95.0,-62.0,6.535
127.0,-65.0,6.536
211.0,-53.0,6.537
228.0,-38.0,6.538
137.0,-20.0,6.539
63.0,-12.0,6.54
39.0,-28.0,6.541
0.0,-51.0,6.542
-81.0,-51.0,6.543
-136.0,-16.0,6.544
-111.0,34.0,6.545
-79.0,70.0,6.546
-29.0,74.0,6.547
8.0,57.0,6.548
3.0,31.0,6.549
11.0,11.0,6.55
60.0,13.0,6.551
81.0,32.0,6.552
17.0,40.0,6.553
-51.0,23.0,6.554
-133.0,-4.0,6.555
-178.0,-18.0,6.556
-106.0,-16.0,6.557
-64.0,-17.0,6.558
-121.0,-18.0,6.559
-52.0,-21.0,6.56
171.0,-25.0,6.561
320.0,-29.0,6.562
220.0,-34.0,6.563
-19.0,-31.0,6.564
-166.0,-1.0,6.565
-127.0,15.0,6.566
19.0,-6.0,6.567
117.0,-27.0,6.568
52.0,-39.0,6.569
-138.0,-45.0,6.57
-252.0,-33.0,6.571
-150.0,-24.0,6.572
51.0,-25.0,6.573
133.0,-19.0,6.574
90.0,9.0,6.575
94.0,23.0,6.576
181.0,-2.0,6.577
193.0,-24.0,6.578
25.0,-4.0,6.579
-182.0,41.0,6.58
-206.0,61.0,6.581
-51.0,43.0,6.582
82.0,12.0,6.583
79.0,-2.0,6.584
44.0,2.0,6.585
100.0,12.0,6.586
171.0,14.0,6.587
93.0,-4.0,6.588
-98.0,-31.0,6.589
-176.0,-27.0,6.59
-18.0,17.0,6.591
201.0,60.0,6.592
235.0,55.0,6.593
34.0,18.0,6.594
-230.0,-9.0,6.595
-382.0,-18.0,6.596
-361.0,-27.0,6.597
-206.0,-39.0,6.598
-33.0,-30.0,6.599
50.0,1.0,6.6
71.0,21.0,6.601
163.0,16.0,6.602
353.0,-1.0,6.603
449.0,-8.0,6.604
241.0,10.0,6.605
-188.0,44.0,6.606
-479.0,63.0,6.607
-375.0,50.0,6.608
-11.0,23.0,6.609
253.0,5.0,6.61
247.0,-11.0,6.611
126.0,-46.0,6.612
94.0,-76.0,6.613
127.0,-67.0,6.614
70.0,-40.0,6.615
-102.0,-31.0,6.616
-227.0,-34.0,6.617
-190.0,-17.0,6.618
-31.0,16.0,6.619
98.0,20.0,6.62
104.0,-10.0,6.621
43.0,-22.0,6.622
37.0,-9.0,6.623
104.0,0.0,6.624
125.0,6.0,6.625
2.0,41.0,6.626
-164.0,89.0,6.627
-205.0,84.0,6.628
-110.0,24.0,6.629
-13.0,-26.0,6.63
37.0,-38.0,6.631
107.0,-49.0,6.632
177.0,-77.0,6.633
119.0,-83.0,6.634
-76.0,-36.0,6.635
-244.0,38.0,6.636
-255.0,104.0,6.637
-140.0,145.0,6.638
-2.0,148.0,6.639
49.0,133.0,6.64
-42.0,59.0,6.641
-197.0,-1.0,6.642
-206.0,-23.0,6.643
-3.0,-54.0,6.644
174.0,-108.0,6.645
125.0,-148.0,6.646
6.0,-142.0,6.647
57.0,-128.0,6.648
166.0,-89.0,6.649
63.0,-51.0,6.65
-157.0,-16.0,6.651
-137.0,8.0,6.652
151.0,-5.0,6.653
340.0,-4.0,6.654
226.0,40.0,6.655
40.0,73.0,6.656
29.0,75.0,6.657
142.0,66.0,6.658
189.0,19.0,6.659
114.0,-10.0,6.66
-9.0,-17.0,6.661
-136.0,3.0,6.662
-219.0,38.0,6.663
-199.0,63.0,6.664
-116.0,62.0,6.665
-93.0,44.0,6.666
-133.0,29.0,6.667
-92.0,21.0,6.668
60.0,12.0,6.669
158.0,3.0,6.67
109.0,-3.0,6.671
50.0,-13.0,6.672
107.0,-37.0,6.673
166.0,-68.0,6.674
77.0,-87.0,6.675
-89.0,-85.0,6.676
-165.0,-72.0,6.677
-144.0,-61.0,6.678
-90.0,-51.0,6.679
9.0,-38.0,6.68
178.0,-23.0,6.681
286.0,6.0,6.682
206.0,49.0,6.683
39.0,81.0,6.684
-50.0,80.0,6.685
-107.0,59.0,6.686
-264.0,47.0,6.687
-440.0,44.0,6.688
-419.0,34.0,6.689
-179.0,20.0,6.69
74.0,22.0,6.691
208.0,32.0,6.692
265.0,19.0,6.693
281.0,-11.0,6.694
206.0,-25.0,6.695
37.0,-14.0,6.696
-106.0,-11.0,6.697
-129.0,-41.0,6.698
-45.0,-77.0,6.699
34.0,-92.0,6.7
34.0,-84.0,6.701
-3.0,-58.0,6.702
9.0,-23.0,6.703
67.0,6.0,6.704
72.0,10.0,6.705
-3.0,-8.0,6.706
-42.0,-12.0,6.707
24.0,20.0,6.708
51.0,62.0,6.709
-112.0,73.0,6.71
-334.0,45.0,6.711
-353.0,7.0,6.712
-154.0,-10.0,6.713
44.0,-1.0,6.714
168.0,20.0,6.715
337.0,42.0,6.716
493.0,62.0,6.717
365.0,68.0,6.718
-103.0,54.0,6.719
-497.0,37.0,6.72
-403.0,10.0,6.721
22.0,-9.0,6.722
301.0,-5.0,6.723
258.0,-10.0,6.724
119.0,-44.0,6.725
82.0,-70.0,6.726
108.0,-64.0,6.727
88.0,-56.0,6.728
8.0,-41.0,6.729
-95.0,-25.0,6.73
-159.0,-6.0,6.731
-136.0,8.0,6.732
-62.0,6.0,6.733
-30.0,2.0,6.734
-30.0,-10.0,6.735
47.0,-14.0,6.736
165.0,11.0,6.737
122.0,44.0,6.738
-154.0,103.0,6.739
-395.0,157.0,6.74
-314.0,165.0,6.741
-21.0,106.0,6.742
163.0,7.0,6.743
145.0,-63.0,6.744
70.0,-75.0,6.745
18.0,-74.0,6.746
-36.0,-97.0,6.747
-29.0,-122.0,6.748
117.0,-103.0,6.749
284.0,-47.0,6.75
263.0,4.0,6.751
66.0,33.0,6.752
-86.0,33.0,6.753
-80.0,7.0,6.754
-20.0,-28.0,6.755
-5.0,-48.0,6.756
2.0,-58.0,6.757
70.0,-81.0,6.758
179.0,-94.0,6.759
226.0,-56.0,6.76
108.0,7.0,6.761
-174.0,35.0,6.762
-433.0,8.0,6.763
-425.0,-17.0,6.764
-146.0,-3.0,6.765
119.0,23.0,6.766
149.0,25.0,6.767
41.0,11.0,6.768
38.0,7.0,6.769
179.0,9.0,6.77
270.0,10.0,6.771
154.0,26.0,6.772
-95.0,55.0,6.773
-249.0,64.0,6.774
-171.0,31.0,6.775
-5.0,-15.0,6.776
-9.0,-25.0,6.777
-222.0,1.0,6.778
-350.0,37.0,6.779
-160.0,49.0,6.78
170.0,35.0,6.781
302.0,26.0,6.782
178.0,37.0,6.783
-2.0,59.0,6.784
-112.0,63.0,6.785
-152.0,34.0,6.786
-95.0,-2.0,6.787
83.0,-17.0,6.788
273.0,-13.0,6.789
358.0,-21.0,6.79
352.0,-51.0,6.791
267.0,-80.0,6.792
-13.0,-82.0,6.793
-453.0,-59.0,6.794
-673.0,-27.0,6.795
-382.0,-4.0,6.796
107.0,12.0,6.797
303.0,29.0,6.798
119.0,41.0,6.799
-28.0,43.0,6.8
78.0,11.0,6.801
134.0,-12.0,6.802
-61.0,-3.0,6.803
-196.0,14.0,6.804
34.0,54.0,6.805
407.0,77.0,6.806
532.0,44.0,6.807
387.0,5.0,6.808
181.0,-52.0,6.809
-37.0,-95.0,6.81
-302.0,-93.0,6.811
-500.0,-76.0,6.812
-508.0,-13.0,6.813
-365.0,44.0,6.814
-131.0,88.0,6.815
190.0,100.0,6.816
449.0,17.0,6.817
415.0,-63.0,6.818
143.0,-98.0,6.819
-80.0,-87.0,6.82
-154.0,-55.0,6.821
-221.0,16.0,6.822
-265.0,113.0,6.823
-248.0,159.0,6.824
-44.0,97.0,6.825
94.0,-17.0,6.826
29.0,-78.0,6.827
-6.0,-60.0,6.828
50.0,-27.0,6.829
84.0,-23.0,6.83
49.0,-29.0,6.831
31.0,-19.0,6.832
67.0,7.0,6.833
56.0,46.0,6.834
-93.0,75.0,6.835
-194.0,57.0,6.836
-147.0,-2.0,6.837
-65.0,-61.0,6.838
120.0,-57.0,6.839
242.0,-15.0,6.84
223.0,-4.0,6.841
88.0,-16.0,6.842
18.0,-8.0,6.843
113.0,19.0,6.844
178.0,5.0,6.845
15.0,-47.0,6.846
-193.0,-73.0,6.847
-137.0,-37.0,6.848
71.0,13.0,6.849
69.0,30.0,6.85
-133.0,18.0,6.851
-169.0,11.0,6.852
35.0,15.0,6.853
142.0,13.0,6.854
6.0,-5.0,6.855
-105.0,-27.0,6.856
-18.0,-39.0,6.857
135.0,-51.0,6.858
177.0,-67.0,6.859
260.0,-67.0,6.86
400.0,-17.0,6.861
367.0,79.0,6.862
99.0,146.0,6.863
-161.0,127.0,6.864
-255.0,64.0,6.865
-306.0,38.0,6.866
-418.0,61.0,6.867
-477.0,77.0,6.868
-374.0,49.0,6.869
-193.0,-1.0,6.87
-86.0,-43.0,6.871
-108.0,-78.0,6.872
-188.0,-115.0,6.873
-179.0,-147.0,6.874
1.0,-159.0,6.875
224.0,-133.0,6.876
295.0,-78.0,6.877
232.0,-14.0,6.878
230.0,32.0,6.879
310.0,50.0,6.88
262.0,36.0,6.881
60.0,-5.0,6.882
-36.0,-51.0,6.883
62.0,-54.0,6.884
95.0,1.0,6.885
-91.0,65.0,6.886
-242.0,85.0,6.887
-121.0,86.0,6.888
108.0,111.0,6.889
157.0,136.0,6.89
47.0,109.0,6.891
-15.0,43.0,6.892
24.0,-5.0,6.893
72.0,-14.0,6.894
101.0,-14.0,6.895
143.0,-16.0,6.896
170.0,-13.0,6.897
99.0,-25.0,6.898
-82.0,-66.0,6.899
-280.0,-114.0,6.9
-333.0,-125.0,6.901
-149.0,-89.0,6.902
139.0,-39.0,6.903
255.0,9.0,6.904
110.0,60.0,6.905
-55.0,100.0,6.906
-4.0,112.0,6.907
175.0,99.0,6.908
252.0,71.0,6.909
197.0,48.0,6.91
163.0,48.0,6.911
214.0,66.0,6.912
230.0,59.0,6.913
50.0,5.0,6.914
-350.0,-54.0,6.915
-745.0,-69.0,6.916
-810.0,-66.0,6.917
-455.0,-90.0,6.918
-24.0,-110.0,6.919
67.0,-66.0,6.92
-105.0,10.0,6.921
-128.0,42.0,6.922
99.0,24.0,6.923
231.0,31.0,6.924
53.0,72.0,6.925
-209.0,76.0,6.926
-260.0,20.0,6.927
-94.0,-33.0,6.928
124.0,-45.0,6.929
264.0,-54.0,6.93
246.0,-93.0,6.931
89.0,-132.0,6.932
-37.0,-129.0,6.933
20.0,-92.0,6.934
182.0,-46.0,6.935
260.0,8.0,6.936
231.0,61.0,6.937
197.0,78.0,6.938
183.0,48.0,6.939
157.0,18.0,6.94
163.0,33.0,6.941
262.0,61.0,6.942
343.0,40.0,6.943
204.0,-17.0,6.944
-170.0,-43.0,6.945
-508.0,-24.0,6.946
-507.0,-8.0,6.947
-190.0,-17.0,6.948
57.0,-26.0,6.949
-48.0,-18.0,6.95
-295.0,-7.0,6.951
-266.0,9.0,6.952
15.0,45.0,6.953
118.0,86.0,6.954
-72.0,100.0,6.955
-164.0,83.0,6.956
28.0,53.0,6.957
208.0,9.0,6.958
82.0,-30.0,6.959
-112.0,-40.0,6.96
-10.0,-20.0,6.961
232.0,-13.0,6.962
199.0,-54.0,6.963
-137.0,-107.0,6.964
-418.0,-107.0,6.965
-407.0,-39.0,6.966
-179.0,51.0,6.967
74.0,105.0,6.968
223.0,99.0,6.969
254.0,55.0,6.97
257.0,19.0,6.971
286.0,3.0,6.972
218.0,-19.0,6.973
-50.0,-49.0,6.974
-335.0,-55.0,6.975
-330.0,-22.0,6.976
-75.0,9.0,6.977
137.0,8.0,6.978
106.0,3.0,6.979
-50.0,25.0,6.98
-144.0,42.0,6.981
-142.0,23.0,6.982
-49.0,0.0,6.983
147.0,28.0,6.984
349.0,95.0,6.985
391.0,123.0,6.986
280.0,73.0,6.987
181.0,-20.0,6.988
125.0,-96.0,6.989
-2.0,-127.0,6.99
-180.0,-118.0,6.991
-206.0,-91.0,6.992
-18.0,-60.0,6.993
185.0,-31.0,6.994
220.0,-6.0,6.995
116.0,2.0,6.996
-8.0,-14.0,6.997
-136.0,-53.0,6.998
-226.0,-74.0,6.999
-205.0,-48.0,7.0
-98.0,8.0,7.001
-72.0,57.0,7.002
-194.0,75.0,7.003
-288.0,66.0,7.004
-182.0,43.0,7.005
32.0,22.0,7.006
128.0,20.0,7.007
79.0,30.0,7.008
41.0,31.0,7.009
70.0,9.0,7.01
53.0,-5.0,7.011
-51.0,8.0,7.012
-109.0,24.0,7.013
-19.0,-2.0,7.014
108.0,-55.0,7.015
104.0,-64.0,7.016
-23.0,-3.0,7.017
-133.0,74.0,7.018
-116.0,91.0,7.019
-22.0,29.0,7.02
31.0,-47.0,7.021
18.0,-70.0,7.022
21.0,-38.0,7.023
91.0,2.0,7.024
169.0,15.0,7.025
158.0,-2.0,7.026
53.0,-25.0,7.027
-39.0,-33.0,7.028
-27.0,-26.0,7.029
47.0,-18.0,7.03
67.0,-18.0,7.031
1.0,-14.0,7.032
-59.0,8.0,7.033
-52.0,42.0,7.034
-35.0,52.0,7.035
-76.0,21.0,7.036
-113.0,-18.0,7.037
-54.0,5.0,7.038
88.0,-9.0,7.039
189.0,-29.0,7.04
217.0,-59.0,7.041
242.0,-76.0,7.042
249.0,-52.0,7.043
84.0,-25.0,7.044
-253.0,7.0,7.045
-456.0,34.0,7.046
-272.0,43.0,7.047
80.0,42.0,7.048
177.0,12.0,7.049
-12.0,-3.0,7.05
-137.0,20.0,7.051
-61.0,38.0,7.052
-6.0,32.0,7.053
-72.0,27.0,7.054
-59.0,27.0,7.055
99.0,22.0,7.056
162.0,3.0,7.057
1.0,6.0,7.058
-155.0,-16.0,7.059
-90.0,-45.0,7.06
64.0,-89.0,7.061
94.0,-114.0,7.062
64.0,-78.0,7.063
125.0,-39.0,7.064
238.0,9.0,7.065
282.0,49.0,7.066
261.0,62.0,7.067
200.0,61.0,7.068
6.0,17.0,7.069
-335.0,-7.0,7.07
-604.0,29.0,7.071
-546.0,55.0,7.072
-204.0,46.0,7.073
110.0,39.0,7.074
174.0,39.0,7.075
70.0,32.0,7.076
29.0,4.0,7.077
130.0,-20.0,7.078
222.0,-16.0,7.079
162.0,-10.0,7.08
42.0,-36.0,7.081
45.0,-62.0,7.082
150.0,-50.0,7.083
156.0,-16.0,7.084
12.0,5.0,7.085
-92.0,6.0,7.086
-32.0,3.0,7.087
51.0,-3.0,7.088
-34.0,-21.0,7.089
-270.0,-33.0,7.09
-464.0,-21.0,7.091
-469.0,0.0,7.092
-264.0,2.0,7.093
46.0,-10.0,7.094
271.0,-12.0,7.095
266.0,-3.0,7.096
123.0,-7.0,7.097
33.0,-55.0,7.098
86.0,-100.0,7.099
169.0,-96.0,7.1
158.0,-52.0,7.101
39.0,-2.0,7.102
-163.0,28.0,7.103
-359.0,44.0,7.104
-339.0,63.0,7.105
8.0,75.0,7.106
442.0,62.0,7.107
583.0,23.0,7.108
403.0,-16.0,7.109
223.0,-26.0,7.11
202.0,-11.0,7.111
121.0,3.0,7.112
-223.0,-2.0,7.113
-635.0,-18.0,7.114
-734.0,-18.0,7.115
-406.0,4.0,7.116
52.0,37.0,7.117
344.0,66.0,7.118
331.0,88.0,7.119
112.0,97.0,7.12
-150.0,61.0,7.121
-344.0,25.0,7.122
-364.0,-5.0,7.123
-135.0,-28.0,7.124
206.0,-23.0,7.125
374.0,-27.0,7.126
263.0,-63.0,7.127
80.0,-76.0,7.128
38.0,-21.0,7.129
91.0,13.0,7.13
114.0,-19.0,7.131
130.0,-34.0,7.132
179.0,6.0,7.133
162.0,47.0,7.134
24.0,93.0,7.135
-90.0,121.0,7.136
-81.0,90.0,7.137
-57.0,52.0,7.138
-113.0,-12.0,7.139
-129.0,-66.0,7.14
9.0,-82.0,7.141
136.0,-71.0,7.142
44.0,-62.0,7.143
-165.0,-38.0,7.144
-229.0,21.0,7.145
-111.0,75.0,7.146
3.0,74.0,7.147
-5.0,35.0,7.148
-81.0,0.0,7.149
-135.0,-42.0,7.15
-109.0,-110.0,7.151
14.0,-148.0,7.152
164.0,-97.0,7.153
206.0,11.0,7.154
94.0,78.0,7.155
-56.0,69.0,7.156
-104.0,24.0,7.157
-26.0,-16.0,7.158
91.0,-27.0,7.159
128.0,-14.0,7.16
55.0,-5.0,7.161
-27.0,-4.0,7.162
-2.0,-1.0,7.163
88.0,19.0,7.164
80.0,41.0,7.165
-28.0,44.0,7.166
-50.0,23.0,7.167
69.0,-8.0,7.168
116.0,-39.0,7.169
-32.0,-58.0,7.17
-182.0,-52.0,7.171
-148.0,-32.0,7.172
-71.0,-23.0,7.173
-123.0,-30.0,7.174
-173.0,-29.0,7.175
-31.0,-4.0,7.176
181.0,23.0,7.177
257.0,31.0,7.178
201.0,16.0,7.179
141.0,-5.0,7.18
69.0,-18.0,7.181
-53.0,-13.0,7.182
-86.0,1.0,7.183
34.0,12.0,7.184
77.0,11.0,7.185
-93.0,3.0,7.186
-204.0,-1.0,7.187
-30.0,-8.0,7.188
154.0,-21.0,7.189
28.0,-22.0,7.19
-180.0,-1.0,7.191
-99.0,28.0,7.192
114.0,41.0,7.193
80.0,32.0,7.194
-105.0,14.0,7.195
-80.0,1.0,7.196
111.0,0.0,7.197
159.0,8.0,7.198
45.0,18.0,7.199
62.0,22.0,7.2
255.0,22.0,7.201
312.0,29.0,7.202
85.0,32.0,7.203
-204.0,19.0,7.204
-305.0,9.0,7.205
-211.0,27.0,7.206
-74.0,52.0,7.207
-27.0,29.0,7.208
-81.0,-38.0,7.209
-118.0,-78.0,7.21
-58.0,-39.0,7.211
7.0,31.0,7.212
-21.0,54.0,7.213
-56.0,22.0,7.214
0.0,-17.0,7.215
49.0,-29.0,7.216
11.0,-17.0,7.217
1.0,-5.0,7.218
118.0,-8.0,7.219
140.0,-31.0,7.22
-125.0,-62.0,7.221
-393.0,-69.0,7.222
-252.0,-50.0,7.223
144.0,-25.0,7.224
278.0,-11.0,7.225
69.0,-8.0,7.226
-63.0,-16.0,7.227
63.0,-21.0,7.228
169.0,-6.0,7.229
80.0,21.0,7.23
-6.0,34.0,7.231
53.0,29.0,7.232
100.0,35.0,7.233
30.0,54.0,7.234
-17.0,52.0,7.235
58.0,22.0,7.236
144.0,-1.0,7.237
151.0,-8.0,7.238
121.0,-32.0,7.239
77.0,-78.0,7.24
-31.0,-84.0,7.241
-156.0,-22.0,7.242
-169.0,41.0,7.243
-102.0,53.0,7.244
-112.0,52.0,7.245
-192.0,78.0,7.246
-159.0,95.0,7.247
33.0,58.0,7.248
219.0,-5.0,7.249
260.0,-31.0,7.25
189.0,-16.0,7.251
64.0,-4.0,7.252
-91.0,-17.0,7.253
-203.0,-34.0,7.254
-180.0,-45.0,7.255
-51.0,-53.0,7.256
46.0,-58.0,7.257
52.0,-59.0,7.258
37.0,-50.0,7.259
70.0,-32.0,7.26
122.0,-9.0,7.261
137.0,13.0,7.262
131.0,21.0,7.263
141.0,11.0,7.264
134.0,6.0,7.265
34.0,15.0,7.266
-154.0,26.0,7.267
-331.0,19.0,7.268
-380.0,6.0,7.269
-272.0,-3.0,7.27
-80.0,-15.0,7.271
61.0,-29.0,7.272
61.0,-21.0,7.273
-48.0,12.0,7.274
-149.0,38.0,7.275
-163.0,26.0,7.276
-101.0,-1.0,7.277
-4.0,-12.0,7.278
84.0,1.0,7.279
140.0,6.0,7.28
170.0,-9.0,7.281
211.0,-13.0,7.282
273.0,3.0,7.283
266.0,12.0,7.284
103.0,-4.0,7.285
-137.0,-24.0,7.286
-243.0,-11.0,7.287
-122.0,38.0,7.288
76.0,89.0,7.289
153.0,106.0,7.29
90.0,80.0,7.291
1.0,33.0,7.292
-45.0,0.0,7.293
-61.0,-5.0,7.294
-43.0,-4.0,7.295
12.0,-17.0,7.296
68.0,-31.0,7.297
101.0,-25.0,7.298
132.0,-1.0,7.299
142.0,12.0,7.3
33.0,-5.0,7.301
-217.0,-27.0,7.302
-420.0,-59.0,7.303
-365.0,-77.0,7.304
-104.0,-49.0,7.305
125.0,-17.0,7.306
208.0,27.0,7.307
219.0,52.0,7.308
211.0,20.0,7.309
130.0,-10.0,7.31
-15.0,-32.0,7.311
-89.0,-46.0,7.312
-19.0,-32.0,7.313
69.0,-21.0,7.314
44.0,-18.0,7.315
-16.0,-12.0,7.316
42.0,0.0,7.317
218.0,8.0,7.318
302.0,-4.0,7.319
116.0,-19.0,7.32
-248.0,-29.0,7.321
-506.0,-28.0,7.322
-449.0,-12.0,7.323
-157.0,17.0,7.324
84.0,44.0,7.325
94.0,43.0,7.326
-28.0,16.0,7.327
-67.0,-10.0,7.328
8.0,-17.0,7.329
66.0,-3.0,7.33
53.0,23.0,7.331
54.0,56.0,7.332
94.0,70.0,7.333
79.0,52.0,7.334
-6.0,24.0,7.335
-44.0,11.0,7.336
23.0,14.0,7.337
103.0,0.0,7.338
86.0,-32.0,7.339
11.0,-49.0,7.34
-9.0,-34.0,7.341
44.0,-2.0,7.342
90.0,15.0,7.343
62.0,14.0,7.344
-42.0,0.0,7.345
-159.0,-23.0,7.346
-196.0,-39.0,7.347
-121.0,-35.0,7.348
-18.0,-20.0,7.349
4.0,-16.0,7.35
-51.0,-26.0,7.351
-69.0,-34.0,7.352
34.0,-31.0,7.353
195.0,-17.0,7.354
257.0,2.0,7.355
157.0,22.0,7.356
14.0,26.0,7.357
-49.0,11.0,7.358
-18.0,3.0,7.359
9.0,1.0,7.36
-5.0,17.0,7.361
0.0,24.0,7.362
47.0,5.0,7.363
86.0,-1.0,7.364
72.0,28.0,7.365
2.0,51.0,7.366
-135.0,51.0,7.367
-285.0,42.0,7.368
-297.0,10.0,7.369
-117.0,-16.0,7.37
75.0,-21.0,7.371
120.0,-27.0,7.372
126.0,-35.0,7.373
231.0,-38.0,7.374
284.0,-22.0,7.375
96.0,-8.0,7.376
-161.0,-2.0,7.377
-203.0,6.0,7.378
-8.0,30.0,7.379
141.0,46.0,7.38
132.0,34.0,7.381
111.0,9.0,7.382
162.0,-23.0,7.383
153.0,-61.0,7.384
-12.0,-89.0,7.385
-254.0,-84.0,7.386
-419.0,-40.0,7.387
-391.0,11.0,7.388
-170.0,43.0,7.389
64.0,51.0,7.39
104.0,50.0,7.391
-10.0,50.0,7.392
-36.0,51.0,7.393
76.0,44.0,7.394
121.0,22.0,7.395
20.0,0.0,7.396
-33.0,-5.0,7.397
77.0,1.0,7.398
183.0,-4.0,7.399
96.0,-34.0,7.4
-83.0,-71.0,7.401
-153.0,-81.0,7.402
-97.0,-55.0,7.403
-22.0,-8.0,7.404
33.0,32.0,7.405
72.0,42.0,7.406
63.0,22.0,7.407
20.0,1.0,7.408
4.0,5.0,7.409
18.0,31.0,7.41
-3.0,60.0,7.411
