Deltoid,Bicep,Time
-9,0,0.0
-9,3,0.001
-5,5,0.002
7,5,0.003
22,1,0.004
30,-1,0.005
32,-1,0.006
32,0,0.007
30,-1,0.008
24,-2,0.009
14,0,0.01
3,2,0.011
-5,3,0.012
-6,2,0.013
-5,0,0.014
-2,-1,0.015
-6,0,0.016
-10,-2,0.017
-9,-3,0.018
-3,-3,0.019
-1,0,0.02
-5,2,0.021
-6,1,0.022
-3,-1,0.023
-3,-3,0.024
-5,-1,0.025
-8,3,0.026
-6,5,0.027
-1,3,0.028
1,0,0.029
2,-1,0.03
3,0,0.031
2,0,0.032
0,0,0.033
-1,-3,0.034
0,0,0.035
3,1,0.036
4,-1,0.037
9,-5,0.038
16,-3,0.039
21,0,0.04
10,1,0.041
1,5,0.042
-4,5,0.043
-7,6,0.044
-4,7,0.045
-1,9,0.046
-7,7,0.047
-12,5,0.048
-9,1,0.049
-7,-1,0.05
-7,0,0.051
-6,1,0.052
-1,1,0.053
-1,-2,0.054
0,0,0.055
2,1,0.056
3,-1,0.057
6,-4,0.058
11,-2,0.059
14,0,0.06
7,1,0.061
1,4,0.062
-3,4,0.063
-5,5,0.064
-3,6,0.065
-1,7,0.066
-5,6,0.067
-8,4,0.068
-6,1,0.069
-5,-1,0.07
-5,0,0.071
-4,1,0.072
-1,1,0.073
1,0,0.074
0,-1,0.075
-2,-3,0.076
-5,-8,0.077
-10,-8,0.078
-9,-1,0.079
-3,2,0.08
-6,0,0.081
-22,0,0.082
-36,1,0.083
-35,0,0.084
-21,-3,0.085
-3,-3,0.086
21,-1,0.087
47,0,0.088
63,-1,0.089
65,0,0.09
57,0,0.091
47,-2,0.092
38,-4,0.093
22,-4,0.094
2,-3,0.095
-12,-5,0.096
-15,-11,0.097
-11,-10,0.098
-8,-5,0.099
-6,-1,0.1
-4,0,0.101
-4,0,0.102
-7,2,0.103
-9,1,0.104
-6,0,0.105
-1,-2,0.106
-1,-3,0.107
-3,-4,0.108
-4,-4,0.109
-6,-1,0.11
-7,2,0.111
-6,0,0.112
-2,-2,0.113
-1,-3,0.114
-2,-2,0.115
-4,-2,0.116
-6,-6,0.117
-7,-7,0.118
-2,0,0.119
2,6,0.12
2,6,0.121
0,5,0.122
-1,3,0.123
-2,2,0.124
1,2,0.125
3,3,0.126
1,4,0.127
2,5,0.128
11,2,0.129
19,0,0.13
19,0,0.131
16,1,0.132
8,0,0.133
0,-1,0.134
-6,-4,0.135
-7,-5,0.136
-3,-7,0.137
0,-5,0.138
6,-1,0.139
14,0,0.14
15,1,0.141
12,1,0.142
15,0,0.143
22,0,0.144
24,0,0.145
16,1,0.146
2,1,0.147
-6,0,0.148
-7,1,0.149
-7,1,0.15
-8,0,0.151
-10,0,0.152
-10,1,0.153
-8,0,0.154
-9,-2,0.155
-13,-4,0.156
-16,-6,0.157
-12,-3,0.158
-1,2,0.159
10,4,0.16
14,4,0.161
12,6,0.162
6,5,0.163
2,2,0.164
2,-1,0.165
3,-1,0.166
5,-1,0.167
6,-3,0.168
1,-5,0.169
-2,-3,0.17
0,1,0.171
3,1,0.172
3,0,0.173
-1,-2,0.174
-3,-4,0.175
-5,-5,0.176
-6,-7,0.177
-4,-4,0.178
4,1,0.179
13,4,0.18
14,4,0.181
7,3,0.182
4,2,0.183
6,0,0.184
6,-1,0.185
4,0,0.186
2,0,0.187
2,-1,0.188
1,-1,0.189
-3,0,0.19
-2,1,0.191
3,0,0.192
5,0,0.193
6,0,0.194
6,-1,0.195
3,-3,0.196
0,-8,0.197
-3,-6,0.198
0,0,0.199
6,2,0.2
4,1,0.201
-2,1,0.202
-6,1,0.203
-2,2,0.204
0,0,0.205
-2,-2,0.206
-1,-1,0.207
6,0,0.208
12,0,0.209
9,0,0.21
1,0,0.211
-3,0,0.212
-4,1,0.213
-4,0,0.214
-5,-2,0.215
-6,-4,0.216
-6,-8,0.217
-4,-7,0.218
6,-4,0.219
19,-2,0.22
26,-3,0.221
23,-2,0.222
17,0,0.223
14,0,0.224
7,0,0.225
-1,3,0.226
-3,7,0.227
0,4,0.228
5,0,0.229
3,0,0.23
0,0,0.231
-2,-1,0.232
0,-4,0.233
0,-5,0.234
-1,-3,0.235
-4,-3,0.236
-8,-5,0.237
-11,-4,0.238
-8,-2,0.239
-2,0,0.24
1,1,0.241
-2,4,0.242
-2,5,0.243
4,3,0.244
12,0,0.245
16,-2,0.246
15,-1,0.247
15,0,0.248
16,0,0.249
13,0,0.25
9,1,0.251
5,1,0.252
3,1,0.253
1,-2,0.254
2,-5,0.255
2,-4,0.256
0,-5,0.257
-1,-3,0.258
5,-1,0.259
10,1,0.26
10,3,0.261
9,4,0.262
6,2,0.263
3,0,0.264
5,0,0.265
7,2,0.266
4,3,0.267
3,1,0.268
3,0,0.269
1,0,0.27
0,1,0.271
-1,0,0.272
3,0,0.273
0,-1,0.274
1,1,0.275
1,1,0.276
-1,-5,0.277
-2,-8,0.278
6,-6,0.279
12,-1,0.28
12,3,0.281
10,2,0.282
7,1,0.283
4,-1,0.284
6,-2,0.285
8,-1,0.286
5,0,0.287
2,0,0.288
2,0,0.289
0,1,0.29
-1,0,0.291
-2,-2,0.292
2,-3,0.293
6,-2,0.294
8,0,0.295
4,0,0.296
-1,-5,0.297
-2,-7,0.298
2,-1,0.299
6,4,0.3
5,3,0.301
0,2,0.302
0,2,0.303
4,2,0.304
7,0,0.305
4,-1,0.306
1,0,0.307
1,2,0.308
4,0,0.309
3,0,0.31
0,1,0.311
2,3,0.312
5,0,0.313
2,-2,0.314
-2,-3,0.315
-7,-7,0.316
-8,-11,0.317
-6,-11,0.318
1,-8,0.319
11,-3,0.32
13,2,0.321
3,6,0.322
-4,3,0.323
0,-5,0.324
9,-6,0.325
7,0,0.326
-2,2,0.327
-7,0,0.328
-6,-3,0.329
-7,0,0.33
-8,2,0.331
-4,-1,0.332
7,-2,0.333
32,-1,0.334
0,2,0.335
-25,1,0.336
-29,-5,0.337
-29,-6,0.338
-12,-4,0.339
2,0,0.34
-2,3,0.341
-6,5,0.342
-8,4,0.343
-12,1,0.344
-14,0,0.345
-14,2,0.346
-10,2,0.347
-6,0,0.348
-6,-1,0.349
-4,1,0.35
0,1,0.351
2,-2,0.352
2,-1,0.353
12,-2,0.354
-3,0,0.355
-15,0,0.356
-17,-3,0.357
-17,-6,0.358
-9,-4,0.359
-2,-2,0.36
-4,0,0.361
-6,2,0.362
-7,2,0.363
-9,2,0.364
-10,2,0.365
-10,0,0.366
-8,-1,0.367
-6,-3,0.368
-6,-1,0.369
-5,0,0.37
-3,0,0.371
-2,-1,0.372
-2,-1,0.373
1,-2,0.374
4,0,0.375
4,0,0.376
6,-3,0.377
12,-6,0.378
19,-4,0.379
24,-2,0.38
20,0,0.381
14,2,0.382
9,2,0.383
7,2,0.384
5,2,0.385
2,0,0.386
1,-1,0.387
0,-3,0.388
-2,-1,0.389
-5,0,0.39
-5,0,0.391
-2,-1,0.392
1,-1,0.393
-1,-2,0.394
-5,-4,0.395
-3,-4,0.396
3,-5,0.397
10,-1,0.398
12,0,0.399
15,-1,0.4
14,-2,0.401
9,3,0.402
3,8,0.403
2,7,0.404
0,1,0.405
-3,-2,0.406
-4,0,0.407
0,0,0.408
1,0,0.409
-6,1,0.41
-8,2,0.411
-4,1,0.412
0,1,0.413
-2,0,0.414
-3,3,0.415
-5,2,0.416
-6,-5,0.417
-5,-7,0.418
2,-5,0.419
8,-1,0.42
11,1,0.421
13,1,0.422
9,1,0.423
6,0,0.424
5,0,0.425
4,1,0.426
2,1,0.427
1,0,0.428
3,-2,0.429
5,-2,0.43
5,0,0.431
5,1,0.432
13,1,0.433
19,0,0.434
17,-1,0.435
9,-3,0.436
-1,-5,0.437
-4,-6,0.438
2,-4,0.439
13,-2,0.44
15,0,0.441
6,3,0.442
1,1,0.443
2,0,0.444
1,1,0.445
-3,2,0.446
-6,2,0.447
-3,3,0.448
1,1,0.449
0,0,0.45
-5,1,0.451
-13,3,0.452
-22,1,0.453
-34,0,0.454
-32,0,0.455
-19,-1,0.456
-1,-6,0.457
16,-7,0.458
33,-5,0.459
48,-3,0.46
48,-1,0.461
35,2,0.462
23,2,0.463
20,0,0.464
13,0,0.465
-3,2,0.466
-11,4,0.467
-4,4,0.468
3,3,0.469
-2,2,0.47
-10,2,0.471
-10,0,0.472
-6,0,0.473
-9,0,0.474
-14,0,0.475
-14,-4,0.476
-13,-8,0.477
-13,-4,0.478
-8,0,0.479
2,0,0.48
8,-1,0.481
6,-2,0.482
7,-1,0.483
14,-2,0.484
15,-3,0.485
8,0,0.486
4,3,0.487
7,1,0.488
8,-1,0.489
0,0,0.49
-4,1,0.491
0,-2,0.492
3,-4,0.493
0,-4,0.494
-3,-1,0.495
-5,1,0.496
0,-3,0.497
5,-4,0.498
6,-2,0.499
8,0,0.5
8,3,0.501
7,5,0.502
3,4,0.503
0,0,0.504
0,-2,0.505
1,1,0.506
1,4,0.507
0,4,0.508
1,0,0.509
3,-1,0.51
4,-1,0.511
6,-1,0.512
6,0,0.513
5,0,0.514
0,-1,0.515
-8,-3,0.516
-17,-5,0.517
-19,-7,0.518
-11,-3,0.519
1,0,0.52
3,1,0.521
1,2,0.522
7,0,0.523
20,-1,0.524
27,-1,0.525
26,-1,0.526
25,2,0.527
24,4,0.528
15,2,0.529
0,0,0.53
-5,0,0.531
-2,-1,0.532
0,-2,0.533
-8,-3,0.534
-11,-4,0.535
-8,-6,0.536
-6,-9,0.537
-7,-9,0.538
-4,-6,0.539
6,-2,0.54
12,0,0.541
5,4,0.542
-2,7,0.543
-2,5,0.544
1,3,0.545
-2,2,0.546
-5,5,0.547
-3,5,0.548
2,2,0.549
2,-1,0.55
-1,0,0.551
-1,1,0.552
5,3,0.553
6,0,0.554
4,-2,0.555
0,-4,0.556
-2,-7,0.557
-3,-8,0.558
1,-6,0.559
9,0,0.56
13,4,0.561
8,5,0.562
3,1,0.563
4,-4,0.564
5,-3,0.565
2,2,0.566
1,3,0.567
5,0,0.568
6,-2,0.569
2,1,0.57
-2,3,0.571
0,2,0.572
3,1,0.573
2,0,0.574
0,1,0.575
-1,2,0.576
-2,-4,0.577
-1,-5,0.578
4,-3,0.579
8,-1,0.58
6,-1,0.581
4,-1,0.582
2,-1,0.583
0,-1,0.584
0,0,0.585
-1,2,0.586
-3,3,0.587
-4,0,0.588
-2,-3,0.589
0,-4,0.59
2,0,0.591
5,1,0.592
5,1,0.593
5,-1,0.594
5,-2,0.595
5,-4,0.596
3,-8,0.597
1,-6,0.598
5,0,0.599
14,2,0.6
18,1,0.601
15,1,0.602
9,2,0.603
5,4,0.604
7,4,0.605
8,4,0.606
7,4,0.607
3,2,0.608
0,1,0.609
-1,1,0.61
-1,-1,0.611
0,-3,0.612
4,-2,0.613
6,-1,0.614
4,0,0.615
-2,0,0.616
-5,-5,0.617
-5,-8,0.618
1,-7,0.619
6,-5,0.62
4,-1,0.621
-1,5,0.622
-4,8,0.623
-3,7,0.624
0,3,0.625
0,0,0.626
0,-2,0.627
2,-5,0.628
3,-6,0.629
2,-4,0.63
0,-1,0.631
0,-2,0.632
0,-2,0.633
-1,-2,0.634
-3,-1,0.635
-5,-4,0.636
-7,-10,0.637
-7,-9,0.638
-1,-2,0.639
8,4,0.64
9,5,0.641
2,5,0.642
-2,5,0.643
3,2,0.644
7,0,0.645
3,0,0.646
-2,2,0.647
0,0,0.648
4,0,0.649
2,-1,0.65
-2,-1,0.651
0,-2,0.652
6,0,0.653
6,2,0.654
1,2,0.655
-1,0,0.656
1,-5,0.657
3,-4,0.658
6,-1,0.659
11,0,0.66
13,2,0.661
10,6,0.662
6,6,0.663
5,3,0.664
7,0,0.665
5,3,0.666
5,2,0.667
7,-1,0.668
5,-1,0.669
-1,4,0.67
-3,7,0.671
0,1,0.672
3,-3,0.673
0,-3,0.674
-1,0,0.675
-2,0,0.676
-2,-5,0.677
-1,-7,0.678
0,-4,0.679
3,-3,0.68
7,0,0.681
9,3,0.682
6,6,0.683
4,4,0.684
5,-2,0.685
6,-3,0.686
1,0,0.687
-3,-3,0.688
-3,-6,0.689
-2,-5,0.69
-2,-2,0.691
0,0,0.692
1,-2,0.693
1,-5,0.694
1,-4,0.695
-2,-3,0.696
-4,-3,0.697
-3,-2,0.698
1,-2,0.699
8,-2,0.7
9,-2,0.701
6,2,0.702
3,5,0.703
6,3,0.704
8,1,0.705
6,3,0.706
5,7,0.707
7,7,0.708
7,1,0.709
3,-2,0.71
1,-2,0.711
2,-1,0.712
3,0,0.713
0,0,0.714
-4,0,0.715
-4,-1,0.716
-2,-4,0.717
2,-5,0.718
8,-5,0.719
12,-2,0.72
7,3,0.721
1,6,0.722
0,4,0.723
2,1,0.724
0,0,0.725
-4,0,0.726
-6,-2,0.727
-2,-4,0.728
0,-4,0.729
-1,-1,0.73
0,1,0.731
1,2,0.732
2,4,0.733
9,3,0.734
1,2,0.735
-6,0,0.736
-6,-5,0.737
-5,-6,0.738
3,-5,0.739
10,-2,0.74
12,3,0.741
12,6,0.742
3,3,0.743
-3,0,0.744
-1,0,0.745
2,1,0.746
1,-1,0.747
1,-2,0.748
7,-2,0.749
12,0,0.75
5,-1,0.751
1,-4,0.752
3,-1,0.753
6,0,0.754
1,-1,0.755
-3,-3,0.756
-3,-3,0.757
-2,-2,0.758
3,0,0.759
7,1,0.76
8,0,0.761
8,0,0.762
3,1,0.763
-1,3,0.764
0,2,0.765
2,1,0.766
1,1,0.767
1,0,0.768
5,0,0.769
8,-1,0.77
4,-1,0.771
1,-2,0.772
3,0,0.773
5,0,0.774
2,-1,0.775
-2,-3,0.776
-5,-3,0.777
-3,-2,0.778
3,0,0.779
9,1,0.78
8,0,0.781
1,0,0.782
-3,1,0.783
-2,3,0.784
-2,2,0.785
-3,1,0.786
-2,1,0.787
4,0,0.788
7,0,0.789
5,-1,0.79
1,-1,0.791
4,-2,0.792
9,0,0.793
11,1,0.794
8,0,0.795
1,0,0.796
-5,-2,0.797
-7,-2,0.798
0,-3,0.799
9,-3,0.8
8,0,0.801
0,4,0.802
-4,3,0.803
-2,0,0.804
3,0,0.805
7,1,0.806
7,1,0.807
3,0,0.808
-2,1,0.809
-4,5,0.81
-3,1,0.811
0,-4,0.812
2,-5,0.813
1,-3,0.814
0,-2,0.815
-3,-4,0.816
-6,-7,0.817
-8,-5,0.818
-1,0,0.819
9,0,0.82
15,2,0.821
11,6,0.822
7,7,0.823
9,3,0.824
12,0,0.825
14,1,0.826
13,3,0.827
12,0,0.828
9,-2,0.829
5,-1,0.83
4,0,0.831
6,-1,0.832
8,-2,0.833
1,0,0.834
-4,1,0.835
-8,0,0.836
-8,-6,0.837
-6,-4,0.838
0,0,0.839
4,2,0.84
4,2,0.841
4,2,0.842
1,3,0.843
0,3,0.844
4,1,0.845
8,1,0.846
6,2,0.847
5,1,0.848
5,0,0.849
5,0,0.85
0,0,0.851
-3,-3,0.852
-1,-6,0.853
1,-6,0.854
-2,-4,0.855
-7,-3,0.856
-9,-6,0.857
-8,-8,0.858
-3,-5,0.859
3,-1,0.86
5,2,0.861
2,4,0.862
-1,1,0.863
0,-1,0.864
-2,-2,0.865
-7,-2,0.866
-9,0,0.867
-7,2,0.868
-6,2,0.869
-10,1,0.87
-12,3,0.871
-8,5,0.872
-3,3,0.873
0,1,0.874
4,0,0.875
8,0,0.876
11,-2,0.877
15,-1,0.878
26,1,0.879
43,7,0.88
47,10,0.881
33,7,0.882
17,3,0.883
6,2,0.884
2,2,0.885
-2,4,0.886
-4,2,0.887
-5,1,0.888
-3,0,0.889
-3,0,0.89
-3,-1,0.891
-6,-5,0.892
-9,-5,0.893
-11,-4,0.894
-6,-3,0.895
-4,-3,0.896
-8,-8,0.897
-14,-6,0.898
-11,0,0.899
0,2,0.9
7,0,0.901
7,-1,0.902
8,0,0.903
11,0,0.904
12,-1,0.905
7,-2,0.906
2,-2,0.907
2,-4,0.908
1,-4,0.909
-1,-4,0.91
-1,-3,0.911
2,-2,0.912
3,-2,0.913
-1,-5,0.914
-1,-9,0.915
0,-8,0.916
-2,-7,0.917
-4,-4,0.918
1,-3,0.919
5,-2,0.92
5,1,0.921
4,5,0.922
5,3,0.923
7,-1,0.924
9,-1,0.925
11,4,0.926
7,5,0.927
4,0,0.928
6,-2,0.929
7,1,0.93
4,4,0.931
1,0,0.932
1,0,0.933
1,-2,0.934
-2,0,0.935
-3,0,0.936
-1,-3,0.937
0,-6,0.938
2,-4,0.939
6,-2,0.94
7,2,0.941
2,5,0.942
0,3,0.943
4,1,0.944
9,2,0.945
9,3,0.946
10,3,0.947
11,3,0.948
7,1,0.949
-2,0,0.95
-4,0,0.951
-3,0,0.952
-2,-1,0.953
-15,-2,0.954
-31,-1,0.955
-41,0,0.956
-33,-1,0.957
-16,0,0.958
3,0,0.959
22,-1,0.96
34,1,0.961
39,3,0.962
40,3,0.963
43,1,0.964
45,1,0.965
35,2,0.966
17,2,0.967
1,0,0.968
-3,-1,0.969
-2,0,0.97
-5,0,0.971
-10,-1,0.972
-10,0,0.973
-10,-2,0.974
-12,-5,0.975
-17,-7,0.976
-16,-8,0.977
-12,-4,0.978
-5,-2,0.979
0,-2,0.98
3,0,0.981
2,3,0.982
0,3,0.983
0,1,0.984
-1,0,0.985
-6,0,0.986
-12,1,0.987
-10,0,0.988
-3,0,0.989
5,1,0.99
8,0,0.991
11,0,0.992
14,0,0.993
11,-1,0.994
4,-3,0.995
-2,-6,0.996
-2,-8,0.997
0,-9,0.998
5,-6,0.999
11,-1,1.0
11,4,1.001
10,6,1.002
11,4,1.003
11,0,1.004
6,-1,1.005
1,-1,1.006
0,-1,1.007
-2,-2,1.008
-2,-2,1.009
-2,-1,1.01
-1,-2,1.011
0,-4,1.012
0,-2,1.013
2,-1,1.014
1,0,1.015
2,3,1.016
0,1,1.017
-4,0,1.018
-3,3,1.019
2,5,1.02
4,3,1.021
1,2,1.022
3,2,1.023
11,1,1.024
16,2,1.025
15,4,1.026
12,4,1.027
8,4,1.028
2,0,1.029
-2,-3,1.03
-1,-1,1.031
2,0,1.032
2,-3,1.033
-4,-5,1.034
-7,1,1.035
-6,1,1.036
-5,-6,1.037
-5,-8,1.038
-1,-4,1.039
6,1,1.04
8,3,1.041
3,2,1.042
0,3,1.043
1,2,1.044
2,1,1.045
-2,0,1.046
-4,-1,1.047
-2,-4,1.048
0,-3,1.049
1,0,1.05
1,3,1.051
5,0,1.052
12,-2,1.053
14,-3,1.054
16,-4,1.055
13,-5,1.056
5,-9,1.057
-1,-9,1.058
0,-6,1.059
6,-3,1.06
5,-1,1.061
-1,4,1.062
-3,7,1.063
-3,3,1.064
-14,-3,1.065
-31,-5,1.066
-34,-3,1.067
-17,-2,1.068
8,0,1.069
23,2,1.07
33,3,1.071
39,1,1.072
41,0,1.073
31,1,1.074
20,1,1.075
8,0,1.076
-4,-7,1.077
-13,-5,1.078
-9,-1,1.079
-5,1,1.08
-2,0,1.081
0,0,1.082
-3,3,1.083
-3,4,1.084
6,4,1.085
13,2,1.086
9,0,1.087
6,0,1.088
5,1,1.089
3,1,1.09
1,0,1.091
1,-1,1.092
5,0,1.093
8,-1,1.094
5,-1,1.095
-2,-1,1.096
-8,-5,1.097
-8,-8,1.098
0,-6,1.099
5,-3,1.1
1,-1,1.101
-7,1,1.102
-7,3,1.103
-4,5,1.104
-6,3,1.105
-12,1,1.106
-9,1,1.107
-2,2,1.108
1,2,1.109
-1,1,1.11
-2,2,1.111
1,3,1.112
2,1,1.113
0,-2,1.114
-1,-6,1.115
1,-4,1.116
4,-1,1.117
2,-1,1.118
2,-2,1.119
5,0,1.12
5,5,1.121
1,7,1.122
0,4,1.123
3,1,1.124
8,0,1.125
7,0,1.126
4,-1,1.127
5,-3,1.128
6,-4,1.129
4,-5,1.13
3,-5,1.131
5,-2,1.132
9,1,1.133
6,4,1.134
1,2,1.135
0,-1,1.136
1,-6,1.137
3,-6,1.138
5,-3,1.139
12,0,1.14
17,3,1.141
15,5,1.142
9,2,1.143
4,0,1.144
2,0,1.145
-1,1,1.146
-3,2,1.147
-1,0,1.148
2,0,1.149
3,1,1.15
1,2,1.151
2,1,1.152
5,1,1.153
9,0,1.154
9,-1,1.155
4,-3,1.156
-2,-5,1.157
-4,-5,1.158
-2,-3,1.159
4,-2,1.16
7,-1,1.161
1,0,1.162
-3,1,1.163
-1,-1,1.164
2,-1,1.165
0,0,1.166
-6,2,1.167
-5,3,1.168
-1,4,1.169
0,3,1.17
-2,0,1.171
-1,-5,1.172
1,-5,1.173
-2,-4,1.174
-15,-4,1.175
-30,-3,1.176
-38,-5,1.177
-29,-3,1.178
-3,-1,1.179
26,0,1.18
43,1,1.181
47,4,1.182
46,5,1.183
44,4,1.184
37,3,1.185
25,2,1.186
14,0,1.187
10,-1,1.188
12,-1,1.189
13,-1,1.19
10,-4,1.191
6,-6,1.192
0,-4,1.193
-8,-2,1.194
-14,-5,1.195
-19,-6,1.196
-22,-9,1.197
-22,-7,1.198
-13,-5,1.199
-4,-2,1.2
-3,4,1.201
-7,7,1.202
-10,3,1.203
-8,-1,1.204
-9,0,1.205
-12,4,1.206
-11,4,1.207
-6,-1,1.208
-3,-2,1.209
0,3,1.21
3,5,1.211
7,3,1.212
9,0,1.213
6,0,1.214
4,0,1.215
2,-2,1.216
0,-8,1.217
-1,-7,1.218
4,-1,1.219
11,3,1.22
11,4,1.221
4,1,1.222
3,-1,1.223
8,-1,1.224
12,0,1.225
10,0,1.226
6,-1,1.227
3,-3,1.228
3,-3,1.229
3,-3,1.23
4,-2,1.231
4,-2,1.232
3,0,1.233
1,0,1.234
0,-1,1.235
-1,-2,1.236
-3,-2,1.237
-4,1,1.238
-1,4,1.239
6,3,1.24
7,1,1.241
0,3,1.242
-4,5,1.243
-4,4,1.244
-2,0,1.245
0,-1,1.246
2,1,1.247
7,3,1.248
11,1,1.249
10,0,1.25
10,0,1.251
13,-2,1.252
17,-3,1.253
12,-5,1.254
4,-3,1.255
0,-2,1.256
2,-6,1.257
2,-6,1.258
5,-5,1.259
11,-2,1.26
11,1,1.261
6,3,1.262
1,2,1.263
3,0,1.264
9,0,1.265
7,2,1.266
2,4,1.267
-2,3,1.268
-3,1,1.269
-6,2,1.27
-7,2,1.271
-1,0,1.272
4,-2,1.273
4,-2,1.274
0,0,1.275
-5,3,1.276
-14,0,1.277
-28,-3,1.278
-36,-4,1.279
-30,-4,1.28
-13,0,1.281
6,4,1.282
20,4,1.283
30,0,1.284
40,-4,1.285
44,-1,1.286
40,3,1.287
32,3,1.288
22,0,1.289
11,0,1.29
-4,1,1.291
-13,-1,1.292
-13,-3,1.293
-12,-5,1.294
-14,-2,1.295
-17,0,1.296
-17,-6,1.297
-14,-9,1.298
-5,-3,1.299
2,3,1.3
5,6,1.301
8,3,1.302
8,1,1.303
8,0,1.304
8,0,1.305
8,-1,1.306
5,-1,1.307
2,1,1.308
3,3,1.309
3,1,1.31
1,0,1.311
0,0,1.312
0,1,1.313
0,0,1.314
-7,-2,1.315
-12,-5,1.316
-10,-4,1.317
-4,-3,1.318
3,-3,1.319
10,-3,1.32
10,-1,1.321
2,0,1.322
-4,0,1.323
-3,-1,1.324
0,-1,1.325
-1,-1,1.326
-5,0,1.327
-4,2,1.328
4,2,1.329
9,2,1.33
9,1,1.331
9,0,1.332
9,1,1.333
6,0,1.334
2,-2,1.335
-2,-5,1.336
-2,-4,1.337
2,-3,1.338
14,-3,1.339
27,-3,1.34
29,-1,1.341
19,0,1.342
7,0,1.343
4,-1,1.344
8,-1,1.345
6,-1,1.346
0,0,1.347
-3,2,1.348
-1,2,1.349
2,2,1.35
2,1,1.351
0,0,1.352
0,1,1.353
-1,2,1.354
-4,0,1.355
-7,-5,1.356
-8,-8,1.357
-6,-1,1.358
-4,4,1.359
-2,5,1.36
-2,2,1.361
-3,2,1.362
-4,1,1.363
-7,0,1.364
-16,-1,1.365
-26,2,1.366
-29,4,1.367
-18,2,1.368
2,-1,1.369
19,0,1.37
27,0,1.371
33,-1,1.372
38,-1,1.373
37,-1,1.374
31,-1,1.375
21,-3,1.376
9,-5,1.377
-3,-4,1.378
-6,-3,1.379
0,-3,1.38
5,0,1.381
-2,6,1.382
-8,6,1.383
-2,0,1.384
8,-4,1.385
8,-3,1.386
1,0,1.387
5,-1,1.388
16,-2,1.389
15,-1,1.39
4,0,1.391
-2,-1,1.392
0,-2,1.393
-4,-2,1.394
-11,-1,1.395
-13,-1,1.396
-11,-4,1.397
-11,-3,1.398
-10,-2,1.399
-4,1,1.4
-1,3,1.401
-4,5,1.402
-9,3,1.403
-6,-2,1.404
0,0,1.405
0,4,1.406
0,5,1.407
0,0,1.408
5,-3,1.409
7,-2,1.41
6,0,1.411
6,0,1.412
5,0,1.413
3,-1,1.414
1,-2,1.415
0,-3,1.416
1,-7,1.417
2,-6,1.418
7,-6,1.419
14,-5,1.42
14,-1,1.421
6,4,1.422
1,4,1.423
6,1,1.424
10,2,1.425
6,6,1.426
2,5,1.427
3,0,1.428
5,1,1.429
2,6,1.43
0,5,1.431
0,-2,1.432
2,-3,1.433
0,0,1.434
-1,1,1.435
-2,-2,1.436
-2,-7,1.437
-2,-5,1.438
1,-1,1.439
7,0,1.44
10,2,1.441
6,4,1.442
2,4,1.443
0,0,1.444
0,-1,1.445
-1,0,1.446
-2,1,1.447
-2,-2,1.448
0,-2,1.449
-1,0,1.45
-1,3,1.451
0,-1,1.452
1,-4,1.453
0,-5,1.454
0,-1,1.455
-1,-2,1.456
-3,-7,1.457
-4,-7,1.458
0,-1,1.459
7,3,1.46
6,2,1.461
0,-1,1.462
-3,-2,1.463
0,-1,1.464
1,1,1.465
2,3,1.466
2,0,1.467
1,-2,1.468
-1,-2,1.469
-3,3,1.47
3,3,1.471
12,1,1.472
12,-1,1.473
9,-1,1.474
8,-1,1.475
6,-3,1.476
1,-5,1.477
-1,-4,1.478
7,-2,1.479
10,0,1.48
-2,2,1.481
-11,4,1.482
-15,2,1.483
-14,-1,1.484
0,0,1.485
12,2,1.486
18,2,1.487
26,0,1.488
34,0,1.489
38,1,1.49
30,1,1.491
21,-2,1.492
15,0,1.493
7,0,1.494
-10,-1,1.495
-15,-2,1.496
-7,-3,1.497
-2,-3,1.498
-3,-1,1.499
-4,0,1.5
-4,0,1.501
-7,1,1.502
-13,1,1.503
-11,1,1.504
-4,0,1.505
0,-1,1.506
1,0,1.507
6,2,1.508
9,0,1.509
7,-2,1.51
-1,0,1.511
-5,1,1.512
-4,1,1.513
-5,0,1.514
-6,-3,1.515
-10,-4,1.516
-12,-8,1.517
-11,-8,1.518
-2,-6,1.519
10,-3,1.52
15,2,1.521
9,7,1.522
0,6,1.523
-1,2,1.524
0,0,1.525
-2,2,1.526
-2,2,1.527
1,0,1.528
3,0,1.529
2,2,1.53
2,2,1.531
6,-1,1.532
10,-1,1.533
4,-2,1.534
-2,-5,1.535
-3,-8,1.536
-2,-8,1.537
0,-5,1.538
3,-2,1.539
12,-1,1.54
17,1,1.541
15,7,1.542
13,7,1.543
17,2,1.544
17,-1,1.545
8,0,1.546
0,3,1.547
0,2,1.548
1,2,1.549
-3,2,1.55
-6,3,1.551
-4,3,1.552
0,2,1.553
-1,-1,1.554
-1,-3,1.555
-1,-4,1.556
-1,-4,1.557
-1,0,1.558
2,0,1.559
4,0,1.56
0,0,1.561
-4,3,1.562
-4,3,1.563
-3,0,1.564
0,-2,1.565
2,1,1.566
4,5,1.567
7,5,1.568
12,1,1.569
16,-2,1.57
13,-3,1.571
11,-4,1.572
10,-3,1.573
6,-3,1.574
-13,-1,1.575
-33,0,1.576
-39,-4,1.577
-28,-6,1.578
-5,-3,1.579
19,0,1.58
33,0,1.581
36,0,1.582
32,-1,1.583
30,-2,1.584
23,-2,1.585
15,-2,1.586
8,0,1.587
1,1,1.588
-1,0,1.589
0,-2,1.59
1,0,1.591
3,1,1.592
3,1,1.593
1,-2,1.594
0,-7,1.595
-3,-6,1.596
-9,-4,1.597
-13,-3,1.598
-11,-1,1.599
-5,0,1.6
-4,1,1.601
-4,0,1.602
-3,0,1.603
3,2,1.604
7,3,1.605
6,1,1.606
2,-2,1.607
0,-4,1.608
0,-3,1.609
-3,-2,1.61
-5,-1,1.611
-5,-1,1.612
-2,-1,1.613
-5,-2,1.614
-11,-4,1.615
-17,-3,1.616
-17,-5,1.617
-12,-4,1.618
-5,-2,1.619
4,1,1.62
12,4,1.621
17,5,1.622
20,4,1.623
21,3,1.624
17,3,1.625
9,5,1.626
2,4,1.627
-2,1,1.628
-2,-2,1.629
-1,-2,1.63
0,0,1.631
-1,-1,1.632
0,-3,1.633
1,-6,1.634
1,-4,1.635
-5,-1,1.636
-12,-5,1.637
-14,-8,1.638
-7,-6,1.639
0,-1,1.64
2,0,1.641
5,-1,1.642
13,-1,1.643
17,0,1.644
13,1,1.645
0,0,1.646
-12,0,1.647
-13,0,1.648
-7,1,1.649
3,2,1.65
14,3,1.651
25,2,1.652
34,1,1.653
38,-1,1.654
40,-1,1.655
40,-1,1.656
38,-5,1.657
32,-5,1.658
25,-4,1.659
23,-2,1.66
23,2,1.661
15,6,1.662
-4,6,1.663
-18,2,1.664
-21,0,1.665
-22,2,1.666
-23,1,1.667
-22,0,1.668
-16,-1,1.669
-14,3,1.67
-18,5,1.671
-17,2,1.672
-8,1,1.673
-3,0,1.674
-6,-1,1.675
-13,-1,1.676
-13,-3,1.677
-6,-2,1.678
-1,-3,1.679
2,-5,1.68
2,-2,1.681
-1,3,1.682
-3,4,1.683
-1,1,1.684
2,-1,1.685
0,1,1.686
-2,1,1.687
-1,-1,1.688
1,-2,1.689
1,0,1.69
-1,1,1.691
0,0,1.692
1,1,1.693
-1,-1,1.694
-2,-4,1.695
-2,-6,1.696
-2,-9,1.697
-2,-6,1.698
4,-3,1.699
14,-2,1.7
17,-1,1.701
8,1,1.702
0,0,1.703
2,-2,1.704
5,-2,1.705
3,0,1.706
0,1,1.707
2,1,1.708
7,2,1.709
5,2,1.71
3,2,1.711
6,2,1.712
7,5,1.713
2,6,1.714
-3,5,1.715
-5,0,1.716
-4,-4,1.717
-1,-2,1.718
9,0,1.719
20,5,1.72
27,7,1.721
24,8,1.722
17,8,1.723
10,8,1.724
3,6,1.725
-2,0,1.726
-6,-3,1.727
-7,0,1.728
-9,4,1.729
-17,4,1.73
-26,-2,1.731
-32,-6,1.732
-27,-4,1.733
-11,-3,1.734
12,-5,1.735
23,-8,1.736
24,-10,1.737
26,-8,1.738
39,-8,1.739
56,-7,1.74
61,-3,1.741
51,1,1.742
31,3,1.743
16,0,1.744
12,0,1.745
13,1,1.746
5,2,1.747
-17,-1,1.748
-43,-4,1.749
-55,-4,1.75
-54,-3,1.751
-56,-5,1.752
-65,-3,1.753
-70,0,1.754
-53,1,1.755
-20,-1,1.756
10,-7,1.757
26,-6,1.758
36,1,1.759
45,6,1.76
43,6,1.761
25,4,1.762
0,1,1.763
-27,0,1.764
-61,0,1.765
-95,-1,1.766
-97,-2,1.767
-56,-4,1.768
2,-4,1.769
35,-2,1.77
36,-2,1.771
25,-4,1.772
9,-5,1.773
-34,-4,1.774
-114,0,1.775
-212,2,1.776
-299,1,1.777
-322,1,1.778
-210,0,1.779
55,0,1.78
360,0,1.781
527,2,1.782
509,2,1.783
431,-1,1.784
409,-1,1.785
400,3,1.786
299,3,1.787
117,-1,1.788
-52,-5,1.789
-171,-2,1.79
-272,0,1.791
-360,-2,1.792
-400,-5,1.793
-385,-7,1.794
-328,-8,1.795
-242,-10,1.796
-130,-16,1.797
-18,-16,1.798
48,-13,1.799
62,-5,1.8
74,5,1.801
135,18,1.802
200,30,1.803
135,36,1.804
-102,38,1.805
-359,33,1.806
-448,19,1.807
-369,3,1.808
-222,0,1.809
31,5,1.81
466,4,1.811
866,-6,1.812
862,-14,1.813
348,-17,1.814
-322,-15,1.815
-789,-15,1.816
-1021,-19,1.817
-1116,-16,1.818
-1065,-8,1.819
-923,3,1.82
-831,15,1.821
-726,19,1.822
-377,11,1.823
181,7,1.824
663,27,1.825
1021,66,1.826
1438,92,1.827
1778,87,1.828
1696,67,1.829
1346,52,1.83
1262,51,1.831
1405,85,1.832
1183,172,1.833
356,298,1.834
-449,397,1.835
-722,412,1.836
-786,340,1.837
-1176,191,1.838
-1804,-38,1.839
-2155,-298,1.84
-1921,-484,1.841
-1142,-558,1.842
-26,-584,1.843
1160,-607,1.844
2174,-568,1.845
2804,-418,1.846
2820,-209,1.847
2120,-35,1.848
1023,107,1.849
127,288,1.85
-315,518,1.851
-574,712,1.852
-843,805,1.853
-948,825,1.854
-666,826,1.855
-211,803,1.856
7,705,1.857
-115,525,1.858
-407,263,1.859
-724,-117,1.86
-970,-614,1.861
-1026,-1064,1.862
-842,-1234,1.863
-539,-1087,1.864
-289,-833,1.865
-155,-671,1.866
-77,-591,1.867
43,-503,1.868
221,-421,1.869
323,-356,1.87
200,-145,1.871
-56,375,1.872
-173,1015,1.873
-73,1495,1.874
9,1705,1.875
-120,1844,1.876
-263,1887,1.877
-133,1427,1.878
176,362,1.879
360,-673,1.88
383,-1159,1.881
416,-1493,1.882
377,-2239,1.883
-3,-3013,1.884
-637,-3029,1.885
-1027,-2433,1.886
-883,-2063,1.887
-447,-2036,1.888
-101,-1675,1.889
42,-825,1.89
2,-104,1.891
-309,242,1.892
-862,612,1.893
-1341,1201,1.894
-1414,1520,1.895
-1359,1338,1.896
-915,1111,1.897
-367,1175,1.898
489,1208,1.899
1296,932,1.9
1959,589,1.901
2438,445,1.902
2361,387,1.903
2238,318,1.904
1980,412,1.905
1582,719,1.906
766,979,1.907
181,1025,1.908
293,986,1.909
332,947,1.91
149,794,1.911
-88,488,1.912
-485,192,1.913
-854,-41,1.914
-1150,-233,1.915
-1420,-356,1.916
-1482,-329,1.917
-1306,-197,1.918
-1066,-131,1.919
-847,-157,1.92
-569,-149,1.921
-175,-72,1.922
300,-17,1.923
788,-11,1.924
1111,-5,1.925
988,-5,1.926
344,-61,1.927
-495,-128,1.928
-1125,-108,1.929
-1392,23,1.93
-1314,238,1.931
-899,540,1.932
-259,879,1.933
524,1147,1.934
1304,1153,1.935
1966,791,1.936
2302,141,1.937
2074,-531,1.938
1328,-910,1.939
403,-943,1.94
-401,-959,1.941
-958,-1241,1.942
-1190,-1577,1.943
-1132,-1525,1.944
-1029,-1077,1.945
-1080,-653,1.946
-1158,-401,1.947
-1072,33,1.948
-936,832,1.949
-936,1494,1.95
-917,1437,1.951
-583,893,1.952
-45,726,1.953
413,1397,1.954
640,2371,1.955
752,2717,1.956
736,2076,1.957
381,738,1.958
-251,-999,1.959
-670,-2873,1.96
-443,-3995,1.961
355,-4000,1.962
1244,-3881,1.963
1760,-3194,1.964
1707,-2490,1.965
1216,-1379,1.966
638,309,1.967
306,1936,1.968
324,2771,1.969
568,2650,1.97
781,1882,1.971
667,968,1.972
178,417,1.973
-395,266,1.974
-665,127,1.975
-861,-248,1.976
-833,-483,1.977
-778,-161,1.978
-644,598,1.979
-464,1646,1.98
-142,3044,1.981
130,-43,1.982
256,3616,1.983
354,1072,1.984
368,-1912,1.985
316,-3519,1.986
65,-3726,1.987
-154,-3374,1.988
-279,-2400,1.989
-374,-449,1.99
-377,1526,1.991
-354,1942,1.992
-249,722,1.993
-212,-903,1.994
-505,-1876,1.995
-909,-2573,1.996
-1193,-2438,1.997
-1214,-2277,1.998
-912,-2041,1.999
-308,-1694,2.0
416,-1017,2.001
944,-368,2.002
1088,196,2.003
1008,759,2.004
969,1322,2.005
928,1775,2.006
605,1897,2.007
-12,1942,2.008
-554,1756,2.009
-729,1480,2.01
-640,938,2.011
-526,506,2.012
-440,404,2.013
-275,421,2.014
44,633,2.015
531,515,2.016
1101,501,2.017
1506,839,2.018
1476,1138,2.019
1010,1025,2.02
367,543,2.021
-165,-107,2.022
-447,-665,2.023
-495,-765,2.024
-464,-298,2.025
-503,337,2.026
-556,693,2.027
-510,720,2.028
-491,525,2.029
-680,106,2.03
-827,-417,2.031
-505,-745,2.032
66,-765,2.033
1174,-625,2.034
918,-460,2.035
681,-346,2.036
499,-459,2.037
312,-825,2.038
112,-1043,2.039
-75,-749,2.04
-232,-221,2.041
-423,32,2.042
-713,35,2.043
-956,139,2.044
-1053,334,2.045
-1170,371,2.046
-1350,369,2.047
-1332,626,2.048
-720,976,2.049
84,914,2.05
1472,333,2.051
2402,-345,2.052
1952,-736,2.053
667,-869,2.054
530,-878,2.055
402,-798,2.056
304,-565,2.057
204,-170,2.058
97,211,2.059
-3,330,2.06
-88,153,2.061
-191,-52,2.062
-346,-53,2.063
-477,67,2.064
-529,122,2.065
-592,145,2.066
-689,256,2.067
-679,364,2.068
-350,294,2.069
82,96,2.07
828,-48,2.071
1327,-89,2.072
1085,-53,2.073
824,222,2.074
650,936,2.075
489,1843,2.076
365,2085,2.077
238,955,2.078
102,-1103,2.079
-26,-2582,2.08
-133,-2446,2.081
-263,-1307,2.082
-460,-543,2.083
-625,-545,2.084
-691,-588,2.085
-771,-248,2.086
-893,92,2.087
-881,179,2.088
-465,281,2.089
83,438,2.09
1027,276,2.091
1659,-164,2.092
1353,-317,2.093
842,-50,2.094
-192,174,2.095
-768,341,2.096
-615,334,2.097
-10,347,2.098
555,424,2.099
830,484,2.1
818,492,2.101
569,476,2.102
181,388,2.103
-172,259,2.104
-378,13,2.105
-487,-189,2.106
-562,-257,2.107
-603,-234,2.108
-641,63,2.109
-738,329,2.11
-845,501,2.111
-842,535,2.112
-757,156,2.113
-748,-261,2.114
-870,-740,2.115
-942,-969,2.116
-708,-840,2.117
-114,-521,2.118
636,-288,2.119
1247,-244,2.12
1523,-279,2.121
1451,-204,2.122
1122,96,2.123
626,510,2.124
86,723,2.125
-308,538,2.126
-392,155,2.127
-191,-70,2.128
125,-53,2.129
454,78,2.13
798,296,2.131
1086,568,2.132
1132,607,2.133
818,118,2.134
297,-613,2.135
-159,-914,2.136
-414,-538,2.137
-515,124,2.138
-537,651,2.139
-552,926,2.14
-685,844,2.141
-1001,302,2.142
-1347,-387,2.143
-1405,-665,2.144
-1006,-495,2.145
-339,-464,2.146
166,-892,2.147
196,-1347,2.148
-146,-1285,2.149
-378,-750,2.15
-94,-156,2.151
640,272,2.152
1371,579,2.153
1856,902,2.154
1946,1202,2.155
1521,1262,2.156
598,826,2.157
-385,-5,2.158
-781,-656,2.159
-489,-605,2.16
-120,19,2.161
-156,587,2.162
-361,615,2.163
-301,113,2.164
-42,-535,2.165
85,-864,2.166
57,-702,2.167
60,-326,2.168
52,-119,2.169
-153,-87,2.17
-523,13,2.171
-874,204,2.172
-1098,320,2.173
-1116,372,2.174
-714,477,2.175
144,511,2.176
1047,246,2.177
1436,-170,2.178
1160,-341,2.179
568,-187,2.18
91,32,2.181
-137,227,2.182
-281,489,2.183
-486,648,2.184
-631,364,2.185
-510,-253,2.186
-202,-644,2.187
8,-553,2.188
45,-292,2.189
62,-135,2.19
-7,55,2.191
-415,389,2.192
-1021,618,2.193
-1366,478,2.194
-1092,68,2.195
-376,-296,2.196
471,-460,2.197
1335,-468,2.198
1967,-352,2.199
1918,-41,2.2
1172,452,2.201
384,830,2.202
96,677,2.203
108,-37,2.204
-10,-717,2.205
-225,-677,2.206
-272,89,2.207
-194,923,2.208
-224,1176,2.209
-345,662,2.21
-381,-382,2.211
-347,-1429,2.212
-364,-1894,2.213
-407,-1604,2.214
-367,-927,2.215
-268,-365,2.216
-227,-24,2.217
-252,244,2.218
-289,390,2.219
-387,310,2.22
-658,194,2.221
-1114,274,2.222
-1585,432,2.223
-1764,402,2.224
-1346,229,2.225
-263,144,2.226
1201,177,2.227
2565,170,2.228
3385,102,2.229
3380,79,2.23
2581,119,2.231
1451,150,2.232
643,157,2.233
307,156,2.234
146,122,2.235
-36,49,2.236
-281,28,2.237
-468,163,2.238
-478,423,2.239
-519,621,2.24
-651,553,2.241
-730,169,2.242
-648,-335,2.243
-570,-654,2.244
-502,-661,2.245
-455,-493,2.246
-475,-330,2.247
-477,-218,2.248
-426,-136,2.249
-378,-96,2.25
-340,-67,2.251
-314,64,2.252
-324,301,2.253
-296,378,2.254
-101,91,2.255
89,-199,2.256
166,-499,2.257
138,-651,2.258
67,-359,2.259
-4,-118,2.26
-62,-34,2.261
-98,55,2.262
-116,159,2.263
-114,221,2.264
-92,159,2.265
-68,123,2.266
-58,169,2.267
-57,194,2.268
-55,156,2.269
-65,134,2.27
-89,159,2.271
-95,166,2.272
-60,112,2.273
39,67,2.274
200,68,2.275
430,58,2.276
619,12,2.277
590,-2,2.278
344,65,2.279
124,224,2.28
127,452,2.281
252,617,2.282
273,493,2.283
176,51,2.284
135,-389,2.285
190,-517,2.286
181,-428,2.287
14,-402,2.288
-180,-439,2.289
-246,-315,2.29
-192,-35,2.291
-115,143,2.292
-52,97,2.293
12,-74,2.294
49,-229,2.295
8,-346,2.296
-80,-404,2.297
-137,-347,2.298
-128,-206,2.299
-96,-89,2.3
-89,-22,2.301
-104,46,2.302
-98,118,2.303
-65,141,2.304
-68,126,2.305
-178,134,2.306
-369,170,2.307
-553,177,2.308
-678,145,2.309
-750,121,2.31
-705,119,2.311
-396,104,2.312
179,65,2.313
905,30,2.314
1438,30,2.315
1540,46,2.316
1257,49,2.317
804,46,2.318
393,50,2.319
124,60,2.32
-12,69,2.321
-84,70,2.322
-149,63,2.323
-211,53,2.324
-236,50,2.325
-208,64,2.326
-159,72,2.327
-140,48,2.328
-161,-9,2.329
-188,-60,2.33
-200,-79,2.331
-208,-71,2.332
-217,-62,2.333
-214,-61,2.334
-192,-52,2.335
-168,-30,2.336
-156,-17,2.337
-141,-25,2.338
-106,-44,2.339
-70,-48,2.34
-55,-28,2.341
-56,-8,2.342
-48,-4,2.343
-31,-12,2.344
-23,-19,2.345
-31,-26,2.346
-40,-38,2.347
-32,-45,2.348
-13,-34,2.349
5,-15,2.35
20,-6,2.351
42,-8,2.352
76,-5,2.353
103,2,2.354
101,6,2.355
65,0,2.356
31,-6,2.357
30,-3,2.358
53,1,2.359
69,2,2.36
66,2,2.361
52,7,2.362
41,10,2.363
30,7,2.364
21,5,2.365
19,11,2.366
18,18,2.367
15,14,2.368
7,7,2.369
7,3,2.37
14,6,2.371
19,0,2.372
19,-13,2.373
12,-26,2.374
3,-25,2.375
-3,-10,2.376
-7,-1,2.377
-7,-2,2.378
-3,-7,2.379
0,-6,2.38
1,0,2.381
0,8,2.382
4,12,2.383
12,12,2.384
16,10,2.385
17,7,2.386
16,2,2.387
13,-2,2.388
11,-4,2.389
7,-4,2.39
3,-2,2.391
0,-3,2.392
1,-5,2.393
3,-5,2.394
2,0,2.395
-1,3,2.396
-5,0,2.397
-6,-5,2.398
-1,0,2.399
7,9,2.4
10,12,2.401
5,8,2.402
-1,-2,2.403
-1,-11,2.404
0,-17,2.405
0,-17,2.406
-4,-8,2.407
-6,0,2.408
-5,3,2.409
-2,1,2.41
2,-1,2.411
4,2,2.412
5,8,2.413
2,6,2.414
1,2,2.415
0,0,2.416
-1,-1,2.417
2,2,2.418
10,3,2.419
19,7,2.42
18,11,2.421
11,11,2.422
4,8,2.423
3,2,2.424
3,0,2.425
0,0,2.426
-2,1,2.427
-1,1,2.428
2,1,2.429
2,1,2.43
0,1,2.431
-2,1,2.432
-1,2,2.433
0,-3,2.434
0,-6,2.435
-3,-5,2.436
-7,-4,2.437
-5,-3,2.438
1,-3,2.439
10,-4,2.44
9,-2,2.441
3,2,2.442
2,1,2.443
5,0,2.444
6,-1,2.445
2,1,2.446
0,1,2.447
-1,-3,2.448
-1,-5,2.449
0,-2,2.45
3,0,2.451
3,-2,2.452
0,-2,2.453
-3,-2,2.454
-3,-1,2.455
-2,-3,2.456
-3,-8,2.457
-6,-7,2.458
-2,-4,2.459
5,-2,2.46
5,1,2.461
0,6,2.462
-2,7,2.463
5,3,2.464
12,2,2.465
8,3,2.466
4,2,2.467
4,-3,2.468
8,-4,2.469
9,-1,2.47
8,-2,2.471
12,-6,2.472
15,-6,2.473
9,-5,2.474
-3,-3,2.475
-12,-7,2.476
-14,-9,2.477
-11,-6,2.478
-7,-3,2.479
-5,-3,2.48
-1,-2,2.481
3,4,2.482
11,8,2.483
17,7,2.484
16,7,2.485
9,9,2.486
3,9,2.487
2,4,2.488
5,1,2.489
6,5,2.49
3,6,2.491
0,0,2.492
0,-3,2.493
-3,-3,2.494
-4,0,2.495
-7,-1,2.496
-9,-9,2.497
-8,-9,2.498
-2,-3,2.499
5,1,2.5
8,3,2.501
4,4,2.502
5,4,2.503
10,0,2.504
12,-5,2.505
7,-7,2.506
2,-4,2.507
0,-2,2.508
-1,-3,2.509
-5,-6,2.51
-10,-6,2.511
-8,-6,2.512
-4,-4,2.513
-6,-3,2.514
-10,-3,2.515
-20,-4,2.516
-29,-9,2.517
-35,-7,2.518
-31,-2,2.519
-23,1,2.52
-20,4,2.521
-16,6,2.522
-3,5,2.523
20,2,2.524
41,1,2.525
51,5,2.526
54,8,2.527
56,7,2.528
53,5,2.529
41,5,2.53
22,5,2.531
5,4,2.532
-3,4,2.533
-3,4,2.534
0,3,2.535
4,2,2.536
13,0,2.537
25,2,2.538
33,3,2.539
21,2,2.54
-3,3,2.541
-18,4,2.542
-17,3,2.543
-11,1,2.544
-11,1,2.545
-17,3,2.546
-19,0,2.547
-19,-4,2.548
-19,-3,2.549
-18,0,2.55
-14,-1,2.551
-6,-6,2.552
0,-5,2.553
4,-1,2.554
2,0,2.555
-4,-2,2.556
-8,-6,2.557
-4,-4,2.558
3,-3,2.559
5,-4,2.56
2,-4,2.561
1,-1,2.562
2,0,2.563
3,-2,2.564
2,-4,2.565
1,-4,2.566
0,-3,2.567
1,-3,2.568
0,0,2.569
-4,3,2.57
-11,1,2.571
-19,-1,2.572
-20,0,2.573
-16,-1,2.574
-7,-4,2.575
1,-8,2.576
13,-11,2.577
25,-9,2.578
38,-5,2.579
47,0,2.58
46,4,2.581
38,5,2.582
26,3,2.583
15,0,2.584
14,1,2.585
19,3,2.586
21,2,2.587
13,0,2.588
1,0,2.589
-2,1,2.59
-3,-1,2.591
-5,-5,2.592
-8,-5,2.593
-10,-2,2.594
-11,0,2.595
-15,0,2.596
-21,-4,2.597
-21,-3,2.598
-13,0,2.599
-5,3,2.6
-5,6,2.601
-5,8,2.602
-2,5,2.603
0,2,2.604
-2,2,2.605
-4,6,2.606
-5,5,2.607
-8,0,2.608
-21,-2,2.609
-37,0,2.61
-47,0,2.611
-47,-4,2.612
-38,-5,2.613
-22,-4,2.614
1,-2,2.615
27,-2,2.616
55,-6,2.617
82,-4,2.618
99,0,2.619
95,3,2.62
67,4,2.621
31,5,2.622
13,5,2.623
19,4,2.624
37,1,2.625
46,1,2.626
35,0,2.627
9,0,2.628
-14,-1,2.629
-24,-1,2.63
-24,-4,2.631
-24,-4,2.632
-25,-3,2.633
-29,-4,2.634
-29,-3,2.635
-31,-1,2.636
-32,0,2.637
-29,-1,2.638
-18,-2,2.639
-9,-3,2.64
-9,-1,2.641
-13,0,2.642
-13,1,2.643
-5,2,2.644
-2,4,2.645
-4,2,2.646
-8,-1,2.647
-6,-2,2.648
-2,-2,2.649
2,-1,2.65
5,-1,2.651
9,1,2.652
12,5,2.653
9,3,2.654
7,-3,2.655
4,-4,2.656
1,-3,2.657
-2,-1,2.658
-2,0,2.659
3,0,2.66
7,1,2.661
4,3,2.662
0,1,2.663
2,1,2.664
7,3,2.665
8,5,2.666
6,4,2.667
8,2,2.668
7,0,2.669
-1,0,2.67
-12,1,2.671
-17,0,2.672
-13,1,2.673
-7,-2,2.674
4,-4,2.675
18,-4,2.676
27,-6,2.677
31,-5,2.678
38,0,2.679
50,5,2.68
56,6,2.681
45,4,2.682
28,0,2.683
17,0,2.684
12,0,2.685
1,1,2.686
-4,1,2.687
-3,-1,2.688
1,-2,2.689
-1,-1,2.69
-6,1,2.691
-7,3,2.692
-3,3,2.693
-5,0,2.694
-11,-2,2.695
-13,-5,2.696
-8,-9,2.697
-3,-9,2.698
-2,-7,2.699
-4,-5,2.7
-5,-4,2.701
-8,-1,2.702
-10,0,2.703
-9,-3,2.704
-7,-5,2.705
-5,-4,2.706
-5,-1,2.707
-6,1,2.708
-6,-1,2.709
-5,-1,2.71
-4,2,2.711
-4,4,2.712
-4,3,2.713
-3,0,2.714
-2,0,2.715
-1,-2,2.716
-2,-6,2.717
-1,-7,2.718
2,-3,2.719
4,2,2.72
3,3,2.721
1,1,2.722
2,0,2.723
3,2,2.724
1,4,2.725
2,3,2.726
6,0,2.727
12,-2,2.728
12,-2,2.729
9,0,2.73
6,1,2.731
3,2,2.732
1,1,2.733
2,-2,2.734
6,-5,2.735
6,-5,2.736
2,-6,2.737
2,-4,2.738
9,-2,2.739
13,0,2.74
6,2,2.741
-2,3,2.742
-3,2,2.743
2,0,2.744
4,0,2.745
-1,3,2.746
-6,3,2.747
-8,1,2.748
-10,0,2.749
-12,3,2.75
-8,3,2.751
1,0,2.752
12,-4,2.753
17,-5,2.754
19,-2,2.755
17,0,2.756
15,-5,2.757
12,-6,2.758
13,-2,2.759
15,2,2.76
11,5,2.761
0,5,2.762
-4,4,2.763
0,4,2.764
4,5,2.765
1,5,2.766
-4,3,2.767
-7,0,2.768
-7,0,2.769
-8,1,2.77
-7,3,2.771
-4,2,2.772
0,3,2.773
0,0,2.774
1,-3,2.775
0,-5,2.776
-5,-7,2.777
-9,-9,2.778
-5,-8,2.779
3,-2,2.78
5,3,2.781
0,4,2.782
-2,0,2.783
3,-2,2.784
6,0,2.785
3,1,2.786
1,-1,2.787
3,-5,2.788
5,-5,2.789
4,-1,2.79
5,1,2.791
11,1,2.792
15,0,2.793
10,0,2.794
4,-2,2.795
-1,-3,2.796
-3,-5,2.797
-2,-4,2.798
3,-3,2.799
11,0,2.8
9,2,2.801
2,5,2.802
0,3,2.803
7,-1,2.804
12,-4,2.805
9,-3,2.806
6,-1,2.807
9,1,2.808
12,1,2.809
9,1,2.81
5,0,2.811
6,-3,2.812
11,-4,2.813
11,-5,2.814
6,-2,2.815
-1,0,2.816
-5,-3,2.817
-6,-5,2.818
-2,-6,2.819
3,-4,2.82
3,1,2.821
0,4,2.822
0,6,2.823
3,3,2.824
6,0,2.825
0,0,2.826
-6,0,2.827
-4,2,2.828
1,3,2.829
4,3,2.83
2,2,2.831
1,-3,2.832
4,-3,2.833
3,-2,2.834
1,-1,2.835
0,-1,2.836
-2,-3,2.837
-3,-1,2.838
2,0,2.839
6,-1,2.84
4,-1,2.841
3,2,2.842
3,6,2.843
3,5,2.844
5,3,2.845
8,2,2.846
7,3,2.847
6,2,2.848
4,2,2.849
2,0,2.85
0,-1,2.851
-2,-1,2.852
0,1,2.853
2,0,2.854
-1,-1,2.855
-3,-3,2.856
-4,-5,2.857
-3,-6,2.858
-1,-2,2.859
5,2,2.86
8,2,2.861
3,2,2.862
-3,-1,2.863
-3,-4,2.864
3,-3,2.865
9,-2,2.866
12,-2,2.867
15,-2,2.868
17,0,2.869
18,1,2.87
15,0,2.871
8,-1,2.872
5,-1,2.873
6,1,2.874
6,2,2.875
0,0,2.876
-5,-4,2.877
-6,-5,2.878
-2,-5,2.879
2,0,2.88
1,4,2.881
-2,4,2.882
-5,0,2.883
-2,-1,2.884
0,0,2.885
-1,1,2.886
-3,-3,2.887
-3,-5,2.888
0,-6,2.889
1,-4,2.89
1,-2,2.891
3,-2,2.892
7,0,2.893
6,-1,2.894
3,-4,2.895
-3,-5,2.896
-9,-7,2.897
-10,-4,2.898
-5,-2,2.899
5,-4,2.9
6,-1,2.901
2,2,2.902
-2,4,2.903
-1,1,2.904
-2,1,2.905
-8,5,2.906
-9,4,2.907
-5,-1,2.908
3,-3,2.909
9,0,2.91
12,4,2.911
9,1,2.912
6,0,2.913
0,0,2.914
-1,1,2.915
0,0,2.916
-2,-6,2.917
-2,-7,2.918
4,-4,2.919
16,-1,2.92
17,1,2.921
8,3,2.922
-1,3,2.923
0,1,2.924
4,0,2.925
3,2,2.926
1,5,2.927
1,4,2.928
2,-1,2.929
4,-5,2.93
4,-3,2.931
4,0,2.932
3,3,2.933
1,-1,2.934
1,-4,2.935
0,-2,2.936
-2,0,2.937
-2,2,2.938
1,1,2.939
8,1,2.94
9,5,2.941
4,6,2.942
1,-2,2.943
2,-6,2.944
4,-4,2.945
2,0,2.946
0,0,2.947
0,-3,2.948
0,-2,2.949
2,-1,2.95
5,-2,2.951
7,-2,2.952
8,0,2.953
6,1,2.954
3,-2,2.955
-1,-5,2.956
-4,-7,2.957
-4,-4,2.958
0,-4,2.959
5,-2,2.96
3,1,2.961
-3,4,2.962
-7,3,2.963
-5,-1,2.964
-3,-3,2.965
-2,-1,2.966
2,0,2.967
7,0,2.968
6,0,2.969
3,1,2.97
3,0,2.971
9,-1,2.972
14,0,2.973
14,0,2.974
14,0,2.975
12,1,2.976
9,-1,2.977
4,-2,2.978
0,-3,2.979
2,-2,2.98
3,2,2.981
1,6,2.982
1,5,2.983
3,2,2.984
1,0,2.985
-6,0,2.986
-12,-1,2.987
-10,-2,2.988
-3,-1,2.989
3,1,2.99
5,1,2.991
5,0,2.992
8,0,2.993
12,0,2.994
13,-2,2.995
8,-4,2.996
1,-6,2.997
0,-6,2.998
1,-3,2.999
2,-1,3.0
0,1,3.001
-3,3,3.002
-4,0,3.003
-4,-4,3.004
-6,-2,3.005
-7,2,3.006
-3,3,3.007
1,-1,3.008
0,-5,3.009
-5,-5,3.01
-2,-4,3.011
3,-3,3.012
8,-1,3.013
10,0,3.014
12,0,3.015
9,-3,3.016
4,-6,3.017
0,-4,3.018
2,-1,3.019
10,0,3.02
9,3,3.021
3,7,3.022
-1,8,3.023
1,5,3.024
4,2,3.025
3,3,3.026
1,1,3.027
2,0,3.028
2,1,3.029
-1,5,3.03
-4,3,3.031
-1,-1,3.032
4,-1,3.033
4,2,3.034
0,3,3.035
-5,1,3.036
-6,-3,3.037
-3,-3,3.038
3,-3,3.039
8,-3,3.04
10,-2,3.041
5,2,3.042
0,3,3.043
-1,0,3.044
0,-2,3.045
1,-3,3.046
0,-3,3.047
-4,-2,3.048
-13,0,3.049
-19,3,3.05
-23,2,3.051
-25,-1,3.052
-25,-1,3.053
-20,0,3.054
-3,0,3.055
20,-1,3.056
43,-3,3.057
64,-3,3.058
77,-3,3.059
80,-3,3.06
62,0,3.061
33,3,3.062
10,-1,3.063
1,-4,3.064
-1,-3,3.065
-6,3,3.066
-12,4,3.067
-14,-1,3.068
-13,-4,3.069
-13,-2,3.07
-13,1,3.071
-11,0,3.072
-9,-3,3.073
-10,-5,3.074
-11,-3,3.075
-13,0,3.076
-14,-4,3.077
-14,-6,3.078
-8,-3,3.079
-3,0,3.08
-3,2,3.081
-3,1,3.082
-5,0,3.083
-6,0,3.084
-2,-1,3.085
1,-1,3.086
-1,-2,3.087
-4,-2,3.088
-2,-3,3.089
-1,-3,3.09
-1,-2,3.091
-1,-4,3.092
0,-3,3.093
1,-5,3.094
-7,-3,3.095
-18,-2,3.096
-25,-4,3.097
-22,-6,3.098
-5,-3,3.099
19,0,3.1
39,2,3.101
46,5,3.102
43,3,3.103
36,2,3.104
27,2,3.105
20,2,3.106
19,2,3.107
18,1,3.108
11,0,3.109
3,0,3.11
1,2,3.111
0,4,3.112
-2,1,3.113
-7,0,3.114
-4,2,3.115
-2,2,3.116
-4,-3,3.117
-10,-3,3.118
-6,-1,3.119
1,0,3.12
2,0,3.121
-3,0,3.122
-4,0,3.123
1,-1,3.124
4,-1,3.125
0,0,3.126
-3,1,3.127
-2,0,3.128
-1,-1,3.129
-3,-1,3.13
-1,-1,3.131
5,-2,3.132
10,0,3.133
5,1,3.134
-1,1,3.135
-4,1,3.136
-4,-1,3.137
-7,0,3.138
-5,3,3.139
2,5,3.14
8,6,3.141
7,2,3.142
2,-4,3.143
2,-4,3.144
2,0,3.145
0,4,3.146
-1,2,3.147
1,-1,3.148
1,-1,3.149
0,0,3.15
0,-1,3.151
4,-3,3.152
7,-3,3.153
5,-3,3.154
4,-3,3.155
3,-2,3.156
5,-2,3.157
8,-2,3.158
12,-1,3.159
16,1,3.16
15,5,3.161
13,9,3.162
9,9,3.163
5,5,3.164
4,-1,3.165
2,-1,3.166
0,4,3.167
-1,11,3.168
0,14,3.169
1,13,3.17
1,7,3.171
0,-2,3.172
0,-11,3.173
-2,-18,3.174
-8,-15,3.175
-12,-13,3.176
-11,-13,3.177
-5,-12,3.178
2,-12,3.179
8,-11,3.18
9,-11,3.181
6,-11,3.182
6,-8,3.183
10,-4,3.184
12,-1,3.185
7,2,3.186
4,2,3.187
4,2,3.188
2,4,3.189
-3,5,3.19
-4,3,3.191
-1,1,3.192
3,1,3.193
3,0,3.194
-1,-1,3.195
-8,0,3.196
-11,0,3.197
-6,1,3.198
1,1,3.199
6,3,3.2
0,8,3.201
-9,11,3.202
-11,9,3.203
-6,5,3.204
-1,4,3.205
1,5,3.206
5,5,3.207
10,2,3.208
15,-1,3.209
17,-1,3.21
17,0,3.211
16,1,3.212
15,3,3.213
13,0,3.214
12,-3,3.215
8,-5,3.216
1,-9,3.217
-4,-9,3.218
-3,-8,3.219
3,-5,3.22
7,0,3.221
0,4,3.222
-5,2,3.223
-3,-2,3.224
3,-3,3.225
4,0,3.226
-2,3,3.227
-5,0,3.228
-4,-2,3.229
-2,-1,3.23
-2,-1,3.231
1,-2,3.232
8,-1,3.233
7,0,3.234
-2,-1,3.235
-10,-2,3.236
-10,-6,3.237
-9,-7,3.238
-6,-4,3.239
-2,0,3.24
3,1,3.241
7,5,3.242
7,7,3.243
7,2,3.244
8,-4,3.245
9,-5,3.246
9,-1,3.247
9,-1,3.248
10,-1,3.249
11,0,3.25
11,2,3.251
9,0,3.252
6,-3,3.253
3,-3,3.254
2,1,3.255
-1,3,3.256
-5,0,3.257
-7,-2,3.258
-2,-1,3.259
5,-1,3.26
8,-1,3.261
3,0,3.262
0,1,3.263
3,-3,3.264
6,-4,3.265
1,-2,3.266
-2,0,3.267
-1,-2,3.268
1,-4,3.269
1,-1,3.27
1,1,3.271
4,1,3.272
9,0,3.273
7,-1,3.274
1,0,3.275
-2,0,3.276
-6,-6,3.277
-9,-6,3.278
-3,-1,3.279
6,5,3.28
10,9,3.281
4,4,3.282
0,-1,3.283
0,-4,3.284
2,0,3.285
0,5,3.286
1,5,3.287
6,1,3.288
7,0,3.289
3,3,3.29
2,4,3.291
4,-1,3.292
6,-5,3.293
-2,-6,3.294
-11,-4,3.295
-17,-4,3.296
-17,-8,3.297
-12,-9,3.298
-5,-6,3.299
1,-2,3.3
8,2,3.301
10,3,3.302
12,0,3.303
14,-4,3.304
13,-6,3.305
14,-2,3.306
16,0,3.307
16,-3,3.308
12,-6,3.309
7,-4,3.31
9,0,3.311
12,0,3.312
10,1,3.313
0,2,3.314
-4,2,3.315
-7,0,3.316
-7,-6,3.317
-6,-4,3.318
-2,1,3.319
0,6,3.32
-2,9,3.321
-5,10,3.322
-5,8,3.323
-5,5,3.324
-2,5,3.325
1,7,3.326
2,5,3.327
3,1,3.328
1,0,3.329
0,2,3.33
4,3,3.331
6,0,3.332
4,-1,3.333
2,-2,3.334
2,0,3.335
1,-2,3.336
-2,-6,3.337
-4,-3,3.338
0,1,3.339
5,2,3.34
8,-1,3.341
6,-2,3.342
6,1,3.343
9,3,3.344
9,0,3.345
6,-3,3.346
4,-2,3.347
6,-1,3.348
6,-3,3.349
4,-3,3.35
3,-3,3.351
4,-3,3.352
6,-1,3.353
2,-3,3.354
1,-5,3.355
1,-5,3.356
-1,-8,3.357
-4,-7,3.358
-1,-6,3.359
6,-5,3.36
7,-1,3.361
0,1,3.362
-4,2,3.363
-2,1,3.364
1,-1,3.365
-1,0,3.366
-1,0,3.367
2,0,3.368
1,-3,3.369
-5,-5,3.37
-4,-4,3.371
3,-1,3.372
10,0,3.373
6,-1,3.374
-1,0,3.375
-4,2,3.376
-2,-1,3.377
-1,-1,3.378
3,0,3.379
10,0,3.38
13,0,3.381
7,2,3.382
2,4,3.383
5,2,3.384
8,0,3.385
7,0,3.386
7,-1,3.387
6,-2,3.388
5,-2,3.389
0,0,3.39
0,5,3.391
4,4,3.392
4,2,3.393
-1,-3,3.394
-4,-4,3.395
-7,-4,3.396
-7,-5,3.397
-5,-3,3.398
-1,0,3.399
2,1,3.4
0,2,3.401
-2,6,3.402
0,8,3.403
3,5,3.404
7,0,3.405
9,-3,3.406
6,0,3.407
3,0,3.408
3,-1,3.409
4,-2,3.41
5,-3,3.411
7,-1,3.412
7,3,3.413
5,5,3.414
0,3,3.415
-1,-3,3.416
0,-8,3.417
0,-6,3.418
3,-2,3.419
13,-1,3.42
15,-1,3.421
5,3,3.422
-3,7,3.423
-4,5,3.424
-1,0,3.425
-2,-3,3.426
-6,-4,3.427
-5,-4,3.428
4,-2,3.429
12,2,3.43
9,2,3.431
0,-1,3.432
-2,-1,3.433
0,0,3.434
4,1,3.435
-1,-1,3.436
-4,-5,3.437
-4,-4,3.438
2,-3,3.439
6,-3,3.44
4,-2,3.441
1,0,3.442
0,3,3.443
0,3,3.444
1,4,3.445
3,3,3.446
5,1,3.447
2,0,3.448
-1,-1,3.449
-2,-2,3.45
0,-2,3.451
2,-1,3.452
4,1,3.453
1,2,3.454
-1,1,3.455
-4,-1,3.456
-7,-4,3.457
-7,-5,3.458
0,-3,3.459
10,-1,3.46
11,2,3.461
5,5,3.462
2,6,3.463
6,4,3.464
10,3,3.465
7,2,3.466
3,-1,3.467
2,-4,3.468
2,-3,3.469
0,0,3.47
0,1,3.471
4,-2,3.472
10,-4,3.473
10,-3,3.474
4,0,3.475
-1,0,3.476
-2,-3,3.477
-2,-5,3.478
3,-4,3.479
8,0,3.48
6,1,3.481
4,3,3.482
4,-1,3.483
3,-7,3.484
3,-8,3.485
4,-4,3.486
6,2,3.487
8,4,3.488
9,2,3.489
9,0,3.49
6,-2,3.491
3,-2,3.492
0,-1,3.493
-2,-2,3.494
-4,-2,3.495
-5,-3,3.496
-3,-4,3.497
0,-4,3.498
7,-2,3.499
9,0,3.5
0,1,3.501
-8,4,3.502
-7,4,3.503
-2,4,3.504
-2,4,3.505
-4,3,3.506
1,4,3.507
11,4,3.508
11,2,3.509
6,1,3.51
5,0,3.511
11,-2,3.512
17,-2,3.513
9,-1,3.514
0,1,3.515
-4,-1,3.516
-2,-6,3.517
2,-7,3.518
7,-5,3.519
10,-2,3.52
8,2,3.521
1,4,3.522
-3,1,3.523
0,-2,3.524
1,-1,3.525
-3,-1,3.526
-6,-4,3.527
-3,-7,3.528
2,-4,3.529
1,2,3.53
-2,3,3.531
-3,0,3.532
-1,0,3.533
0,3,3.534
-2,2,3.535
-5,-2,3.536
-6,-7,3.537
-5,-5,3.538
-3,-2,3.539
2,-1,3.54
6,3,3.541
5,9,3.542
3,9,3.543
6,4,3.544
11,2,3.545
16,4,3.546
15,5,3.547
11,3,3.548
9,3,3.549
7,6,3.55
4,7,3.551
1,6,3.552
0,6,3.553
-1,4,3.554
-1,-1,3.555
-3,-8,3.556
-7,-12,3.557
-8,-10,3.558
0,-5,3.559
5,-1,3.56
3,1,3.561
2,3,3.562
3,-1,3.563
4,-5,3.564
5,-5,3.565
6,0,3.566
6,1,3.567
6,0,3.568
3,1,3.569
-1,2,3.57
-5,0,3.571
-7,-2,3.572
-4,0,3.573
0,1,3.574
4,2,3.575
1,0,3.576
-2,-4,3.577
-3,-3,3.578
2,-4,3.579
9,-5,3.58
10,-4,3.581
4,1,3.582
0,5,3.583
0,4,3.584
-1,0,3.585
0,-2,3.586
1,-3,3.587
4,-2,3.588
7,-1,3.589
8,0,3.59
10,0,3.591
7,0,3.592
3,4,3.593
-1,1,3.594
-4,-2,3.595
-9,-4,3.596
-10,-6,3.597
-6,-5,3.598
1,-3,3.599
6,2,3.6
5,5,3.601
2,3,3.602
5,0,3.603
10,0,3.604
11,1,3.605
8,2,3.606
4,-1,3.607
4,-3,3.608
5,-2,3.609
5,-1,3.61
5,2,3.611
3,3,3.612
1,4,3.613
-2,3,3.614
-4,-2,3.615
-4,-5,3.616
-2,-9,3.617
5,-8,3.618
12,-3,3.619
14,0,3.62
9,1,3.621
4,0,3.622
3,1,3.623
2,1,3.624
0,0,3.625
-3,-2,3.626
-2,-2,3.627
-1,0,3.628
0,1,3.629
-2,3,3.63
1,4,3.631
5,3,3.632
7,4,3.633
2,1,3.634
-2,-2,3.635
-5,-5,3.636
-6,-6,3.637
-5,-4,3.638
0,-1,3.639
5,0,3.64
5,2,3.641
6,5,3.642
6,5,3.643
7,2,3.644
5,0,3.645
3,0,3.646
1,-1,3.647
-1,-2,3.648
-1,-3,3.649
0,-3,3.65
3,-4,3.651
6,-4,3.652
5,-1,3.653
3,1,3.654
-1,1,3.655
-5,1,3.656
-9,-2,3.657
-6,-5,3.658
1,-3,3.659
8,-2,3.66
5,-1,3.661
-1,0,3.662
-3,-1,3.663
1,-2,3.664
6,0,3.665
6,1,3.666
5,1,3.667
8,1,3.668
8,1,3.669
3,0,3.67
-1,0,3.671
-3,-1,3.672
-4,-1,3.673
-4,-2,3.674
-5,-2,3.675
-6,0,3.676
-7,-2,3.677
-6,-4,3.678
1,-3,3.679
11,-1,3.68
12,4,3.681
2,7,3.682
-2,2,3.683
3,-2,3.684
8,-2,3.685
4,0,3.686
1,0,3.687
8,-2,3.688
14,-1,3.689
7,0,3.69
-4,0,3.691
-5,0,3.692
-1,3,3.693
0,3,3.694
-5,1,3.695
-11,-1,3.696
-10,-4,3.697
-2,-1,3.698
7,2,3.699
15,3,3.7
16,5,3.701
12,4,3.702
7,2,3.703
7,1,3.704
8,2,3.705
7,1,3.706
9,-1,3.707
12,-3,3.708
10,-4,3.709
3,-2,3.71
0,1,3.711
0,2,3.712
0,4,3.713
-2,1,3.714
-1,-2,3.715
0,-5,3.716
1,-7,3.717
3,-7,3.718
8,-5,3.719
13,-1,3.72
9,4,3.721
-1,5,3.722
-5,1,3.723
-2,-3,3.724
0,-4,3.725
-4,-1,3.726
-4,3,3.727
1,4,3.728
5,2,3.729
3,-2,3.73
0,-5,3.731
2,-4,3.732
5,0,3.733
4,0,3.734
0,-2,3.735
-3,-2,3.736
-6,-2,3.737
-6,0,3.738
-1,-1,3.739
5,-3,3.74
3,-1,3.741
-6,4,3.742
-11,5,3.743
-7,1,3.744
0,-1,3.745
-2,0,3.746
-5,2,3.747
-2,1,3.748
4,-1,3.749
8,-1,3.75
11,-1,3.751
15,0,3.752
21,1,3.753
22,0,3.754
19,-2,3.755
12,-3,3.756
0,-3,3.757
-8,2,3.758
-6,3,3.759
1,1,3.76
3,4,3.761
-1,12,3.762
0,16,3.763
9,14,3.764
16,9,3.765
19,9,3.766
22,5,3.767
24,-3,3.768
18,-9,3.769
8,-14,3.77
3,-17,3.771
3,-16,3.772
2,-10,3.773
-8,-8,3.774
-14,-10,3.775
-17,-10,3.776
-18,-7,3.777
-17,3,3.778
-9,11,3.779
1,11,3.78
3,11,3.781
-2,8,3.782
0,-1,3.783
10,-12,3.784
14,-17,3.785
8,-16,3.786
4,-16,3.787
10,-18,3.788
12,-15,3.789
5,-10,3.79
0,-6,3.791
4,-1,3.792
5,6,3.793
-3,11,3.794
-13,12,3.795
-17,10,3.796
-17,7,3.797
-15,7,3.798
-5,6,3.799
8,5,3.8
14,5,3.801
4,5,3.802
-6,-2,3.803
-7,-12,3.804
-1,-14,3.805
3,-7,3.806
2,0,3.807
1,-1,3.808
1,-4,3.809
0,-4,3.81
0,-1,3.811
-2,2,3.812
-5,5,3.813
-8,6,3.814
-6,4,3.815
-1,3,3.816
3,0,3.817
7,2,3.818
13,2,3.819
20,0,3.82
22,1,3.821
18,3,3.822
16,5,3.823
18,3,3.824
20,3,3.825
13,9,3.826
3,10,3.827
-1,7,3.828
2,1,3.829
3,0,3.83
1,1,3.831
-5,0,3.832
-6,0,3.833
-4,-1,3.834
-3,-2,3.835
-7,-6,3.836
-12,-9,3.837
-9,-6,3.838
0,-2,3.839
7,-2,3.84
4,-1,3.841
-3,1,3.842
-4,1,3.843
0,-3,3.844
5,-6,3.845
6,0,3.846
2,7,3.847
-2,6,3.848
-3,0,3.849
-1,-2,3.85
3,0,3.851
4,0,3.852
2,-1,3.853
0,-1,3.854
2,0,3.855
2,1,3.856
0,-3,3.857
0,-5,3.858
6,-5,3.859
12,-3,3.86
10,0,3.861
3,5,3.862
2,8,3.863
8,2,3.864
11,-5,3.865
6,-7,3.866
1,-2,3.867
-1,0,3.868
0,0,3.869
3,0,3.87
9,2,3.871
13,4,3.872
11,5,3.873
6,5,3.874
5,5,3.875
4,4,3.876
0,-4,3.877
-5,-7,3.878
-3,-5,3.879
4,-7,3.88
4,-11,3.881
-3,-11,3.882
-5,-4,3.883
0,3,3.884
3,4,3.885
1,3,3.886
2,4,3.887
7,4,3.888
3,3,3.889
-5,1,3.89
-9,0,3.891
-2,-2,3.892
2,-2,3.893
-3,-4,3.894
-6,-8,3.895
-5,-9,3.896
-2,-10,3.897
-3,-5,3.898
-2,0,3.899
5,1,3.9
10,4,3.901
6,7,3.902
0,5,3.903
0,0,3.904
3,1,3.905
5,5,3.906
6,2,3.907
9,-4,3.908
9,-5,3.909
5,3,3.91
0,6,3.911
-2,0,3.912
1,-3,3.913
3,0,3.914
5,5,3.915
4,5,3.916
-2,-1,3.917
-4,-1,3.918
2,2,3.919
13,3,3.92
12,4,3.921
2,6,3.922
-1,6,3.923
5,2,3.924
9,-1,3.925
6,-1,3.926
3,-1,3.927
7,-4,3.928
11,-7,3.929
7,-5,3.93
3,-1,3.931
5,1,3.932
7,2,3.933
2,1,3.934
-3,0,3.935
-7,-4,3.936
-7,-11,3.937
-7,-11,3.938
-2,-6,3.939
4,-1,3.94
5,3,3.941
0,5,3.942
0,3,3.943
7,0,3.944
14,-1,3.945
12,2,3.946
8,7,3.947
7,4,3.948
9,0,3.949
8,-1,3.95
5,2,3.951
3,3,3.952
3,1,3.953
2,-2,3.954
0,-1,3.955
-4,0,3.956
-8,-2,3.957
-9,-3,3.958
-2,-4,3.959
5,-5,3.96
5,-4,3.961
-2,0,3.962
-5,0,3.963
0,-5,3.964
3,-8,3.965
0,-4,3.966
-2,0,3.967
-1,-3,3.968
3,-4,3.969
4,0,3.97
4,3,3.971
4,2,3.972
6,1,3.973
5,0,3.974
4,2,3.975
1,0,3.976
-1,-4,3.977
-3,-3,3.978
-1,-1,3.979
5,1,3.98
7,3,3.981
2,5,3.982
-3,5,3.983
0,2,3.984
6,0,3.985
6,1,3.986
3,1,3.987
0,0,3.988
0,0,3.989
0,0,3.99
0,0,3.991
2,0,3.992
3,2,3.993
-3,1,3.994
-8,-2,3.995
-9,-5,3.996
-7,-7,3.997
-4,-7,3.998
2,-3,3.999
8,0,4.0
9,5,4.001
5,6,4.002
2,2,4.003
2,-2,4.004
1,-3,4.005
0,-1,4.006
1,-1,4.007
3,0,4.008
3,3,4.009
0,5,4.01
1,2,4.011
3,-3,4.012
2,-5,4.013
0,-6,4.014
3,-2,4.015
7,1,4.016
7,0,4.017
4,-2,4.018
7,-4,4.019
12,-5,4.02
7,-3,4.021
-3,1,4.022
-9,4,4.023
-8,2,4.024
-3,0,4.025
2,-1,4.026
8,4,4.027
10,8,4.028
8,7,4.029
7,1,4.03
11,-3,4.031
16,-2,4.032
15,5,4.033
7,8,4.034
2,3,4.035
-2,-4,4.036
-5,-11,4.037
-6,-12,4.038
2,-8,4.039
7,-2,4.04
4,5,4.041
1,9,4.042
2,9,4.043
3,5,4.044
0,4,4.045
-3,3,4.046
-1,-1,4.047
0,-5,4.048
2,-6,4.049
4,-2,4.05
2,-1,4.051
0,-5,4.052
0,-5,4.053
1,-4,4.054
0,-2,4.055
-4,-1,4.056
-6,-3,4.057
-5,-5,4.058
2,-4,4.059
15,-3,4.06
17,-2,4.061
13,-1,4.062
9,-1,4.063
8,0,4.064
3,2,4.065
-1,5,4.066
0,5,4.067
7,4,4.068
8,0,4.069
1,-4,4.07
-3,-4,4.071
-1,-2,4.072
1,2,4.073
1,5,4.074
-1,1,4.075
-5,-8,4.076
-8,-14,4.077
-6,-9,4.078
2,-2,4.079
7,0,4.08
3,4,4.081
-3,8,4.082
-2,6,4.083
1,0,4.084
0,-1,4.085
-5,3,4.086
-5,4,4.087
-1,1,4.088
1,-2,4.089
3,-1,4.09
11,0,4.091
22,-1,4.092
30,0,4.093
28,2,4.094
25,3,4.095
19,-4,4.096
11,-9,4.097
3,-6,4.098
6,0,4.099
14,2,4.1
11,3,4.101
1,9,4.102
-6,10,4.103
-6,2,4.104
-5,-5,4.105
-9,-6,4.106
-9,-2,4.107
-7,-2,4.108
-8,-2,4.109
-14,2,4.11
-17,6,4.111
-12,1,4.112
-8,-6,4.113
-12,-9,4.114
-16,-7,4.115
-18,-7,4.116
-9,-9,4.117
0,-5,4.118
8,-1,4.119
14,-2,4.12
16,-4,4.121
18,2,4.122
17,7,4.123
15,3,4.124
11,0,4.125
7,4,4.126
7,11,4.127
7,6,4.128
5,-2,4.129
2,0,4.13
-1,6,4.131
-4,7,4.132
-8,7,4.133
-10,9,4.134
-9,9,4.135
-15,2,4.136
-30,-7,4.137
-48,-4,4.138
-46,3,4.139
-22,3,4.14
8,1,4.141
32,5,4.142
48,9,4.143
63,4,4.144
72,-5,4.145
73,-6,4.146
69,-3,4.147
61,-2,4.148
44,-3,4.149
13,-4,4.15
-14,-3,4.151
-22,-3,4.152
-16,-2,4.153
-13,-2,4.154
-19,-5,4.155
-25,-6,4.156
-24,-8,4.157
-20,-7,4.158
-17,-5,4.159
-13,-4,4.16
-10,0,4.161
-12,4,4.162
-12,3,4.163
-6,0,4.164
-2,0,4.165
-3,1,4.166
-8,-1,4.167
-7,-4,4.168
-1,-2,4.169
3,0,4.17
3,-2,4.171
8,-4,4.172
15,0,4.173
12,3,4.174
1,2,4.175
-7,0,4.176
-9,-3,4.177
-8,-7,4.178
-7,-12,4.179
-4,-11,4.18
1,-2,4.181
5,5,4.182
7,2,4.183
7,-1,4.184
8,0,4.185
6,3,4.186
2,0,4.187
0,-4,4.188
-1,-4,4.189
-5,0,4.19
-8,0,4.191
-9,0,4.192
-5,3,4.193
-4,4,4.194
-4,4,4.195
-2,1,4.196
2,-2,4.197
9,-2,4.198
23,0,4.199
34,4,4.2
36,5,4.201
39,3,4.202
38,0,4.203
35,0,4.204
28,3,4.205
20,4,4.206
10,0,4.207
2,-2,4.208
-1,1,4.209
-4,5,4.21
-6,5,4.211
-8,-2,4.212
-7,-5,4.213
-7,-4,4.214
-11,1,4.215
-16,3,4.216
-19,-2,4.217
-23,-3,4.218
-21,0,4.219
-11,2,4.22
-4,2,4.221
-6,4,4.222
-11,5,4.223
-12,2,4.224
-7,-1,4.225
-2,-1,4.226
2,0,4.227
6,-1,4.228
11,-7,4.229
12,-10,4.23
13,-6,4.231
17,-1,4.232
19,-1,4.233
16,-2,4.234
8,-2,4.235
-1,-1,4.236
-10,-5,4.237
-16,-5,4.238
-13,-2,4.239
-4,1,4.24
4,3,4.241
6,4,4.242
6,5,4.243
10,4,4.244
16,-1,4.245
14,-4,4.246
5,0,4.247
-1,3,4.248
1,6,4.249
5,5,4.25
4,2,4.251
2,-2,4.252
5,-6,4.253
7,-8,4.254
5,-7,4.255
-2,-4,4.256
-6,-4,4.257
-4,-3,4.258
0,1,4.259
6,4,4.26
9,7,4.261
9,8,4.262
7,7,4.263
8,1,4.264
12,-4,4.265
15,-5,4.266
9,-2,4.267
0,-1,4.268
-6,-4,4.269
-12,-4,4.27
-17,-2,4.271
-17,-2,4.272
-9,-3,4.273
-2,-4,4.274
3,-3,4.275
2,-2,4.276
0,-5,4.277
-2,-5,4.278
0,-3,4.279
6,1,4.28
12,4,4.281
10,5,4.282
5,1,4.283
2,-5,4.284
2,-7,4.285
3,-3,4.286
5,0,4.287
10,0,4.288
10,1,4.289
6,4,4.29
3,6,4.291
1,7,4.292
2,8,4.293
2,10,4.294
2,8,4.295
0,3,4.296
-4,-3,4.297
-5,-2,4.298
0,1,4.299
10,2,4.3
11,0,4.301
2,-1,4.302
0,-1,4.303
4,-3,4.304
6,-2,4.305
3,0,4.306
0,0,4.307
-1,-5,4.308
-2,-8,4.309
-2,-6,4.31
2,0,4.311
4,3,4.312
5,3,4.313
3,-2,4.314
1,-5,4.315
-2,-6,4.316
-4,-7,4.317
-2,-7,4.318
5,-5,4.319
13,-2,4.32
12,1,4.321
4,5,4.322
-2,5,4.323
-3,2,4.324
-2,0,4.325
-1,0,4.326
1,0,4.327
2,0,4.328
5,0,4.329
11,-1,4.33
18,-2,4.331
20,-3,4.332
16,-1,4.333
7,0,4.334
3,2,4.335
-2,3,4.336
-8,-1,4.337
-14,-2,4.338
-10,1,4.339
-5,5,4.34
-5,4,4.341
-9,1,4.342
-7,0,4.343
2,1,4.344
12,0,4.345
15,-2,4.346
15,-2,4.347
16,0,4.348
13,0,4.349
6,-1,4.35
0,-2,4.351
-2,-1,4.352
0,0,4.353
3,-3,4.354
4,-3,4.355
0,-2,4.356
-7,-3,4.357
-16,-3,4.358
-16,-3,4.359
-8,0,4.36
-3,4,4.361
-3,2,4.362
-1,-1,4.363
8,-4,4.364
21,-1,4.365
24,0,4.366
19,0,4.367
12,-1,4.368
8,-2,4.369
6,0,4.37
5,0,4.371
4,0,4.372
6,1,4.373
3,2,4.374
0,0,4.375
-2,-1,4.376
-2,-5,4.377
0,-4,4.378
4,-1,4.379
9,0,4.38
9,2,4.381
6,5,4.382
2,6,4.383
1,4,4.384
1,0,4.385
1,-3,4.386
0,-4,4.387
-2,-5,4.388
-5,-2,4.389
-8,0,4.39
-6,0,4.391
-4,-2,4.392
-3,-1,4.393
-3,0,4.394
-2,1,4.395
-6,-3,4.396
-8,-8,4.397
-4,-7,4.398
9,0,4.399
20,3,4.4
19,2,4.401
10,1,4.402
3,1,4.403
2,-1,4.404
2,-4,4.405
0,-4,4.406
0,-2,4.407
0,2,4.408
0,5,4.409
-3,3,4.41
-7,0,4.411
-8,-1,4.412
-6,1,4.413
-5,3,4.414
-5,0,4.415
-4,-4,4.416
-4,-8,4.417
-2,-5,4.418
5,0,4.419
17,2,4.42
23,4,4.421
21,6,4.422
18,7,4.423
18,1,4.424
20,-3,4.425
17,-3,4.426
10,0,4.427
7,-1,4.428
7,-4,4.429
2,-3,4.43
-7,2,4.431
-14,2,4.432
-14,0,4.433
-17,-1,4.434
-15,1,4.435
-7,2,4.436
3,-4,4.437
12,-8,4.438
20,-7,4.439
28,-1,4.44
36,5,4.441
37,7,4.442
33,4,4.443
26,0,4.444
10,-1,4.445
-12,2,4.446
-27,2,4.447
-30,-2,4.448
-27,-6,4.449
-25,-5,4.45
-24,-2,4.451
-15,0,4.452
-7,2,4.453
-9,0,4.454
-15,-2,4.455
-16,-1,4.456
-15,-3,4.457
-11,-1,4.458
7,0,4.459
37,0,4.46
47,2,4.461
9,1,4.462
-50,3,4.463
-76,4,4.464
-42,2,4.465
12,1,4.466
25,1,4.467
-23,4,4.468
-82,4,4.469
-79,1,4.47
0,0,4.471
96,-1,4.472
148,-1,4.473
156,-4,4.474
146,-4,4.475
116,-2,4.476
23,-6,4.477
-60,-9,4.478
-114,-9,4.479
-168,-7,4.48
-218,-4,4.481
-243,-2,4.482
-192,-1,4.483
-145,0,4.484
-109,-1,4.485
-57,-6,4.486
40,-11,4.487
157,-12,4.488
331,-2,4.489
449,11,4.49
393,18,4.491
346,16,4.492
326,11,4.493
305,4,4.494
241,-4,4.495
102,-11,4.496
-37,-12,4.497
-142,-12,4.498
-229,-10,4.499
-271,-7,4.5
-224,-1,4.501
-127,2,4.502
-80,0,4.503
-98,-2,4.504
-113,2,4.505
-104,7,4.506
-110,11,4.507
-125,17,4.508
-102,32,4.509
-52,41,4.51
-32,30,4.511
-43,18,4.512
-37,4,4.513
-10,-7,4.514
2,-11,4.515
-5,-14,4.516
-2,-7,4.517
17,6,4.518
24,11,4.519
20,2,4.52
21,-7,4.521
27,-9,4.522
22,-8,4.523
16,-10,4.524
21,-12,4.525
26,-12,4.526
20,-10,4.527
15,-7,4.528
21,-7,4.529
24,-8,4.53
16,-8,4.531
8,-8,4.532
11,-6,4.533
16,-7,4.534
10,-7,4.535
3,-5,4.536
5,-6,4.537
10,-7,4.538
12,-7,4.539
14,-5,4.54
16,1,4.541
16,5,4.542
11,3,4.543
12,1,4.544
14,1,4.545
11,1,4.546
4,-1,4.547
5,-3,4.548
10,0,4.549
11,5,4.55
4,7,4.551
2,4,4.552
6,3,4.553
6,3,4.554
2,2,4.555
-2,1,4.556
-7,-3,4.557
-10,-3,4.558
-3,-1,4.559
7,-1,4.56
10,0,4.561
1,1,4.562
-4,0,4.563
-4,-2,4.564
-1,-1,4.565
-3,0,4.566
-5,1,4.567
0,1,4.568
8,2,4.569
10,3,4.57
6,2,4.571
5,1,4.572
5,4,4.573
2,5,4.574
-1,3,4.575
-3,1,4.576
-5,0,4.577
-7,3,4.578
-2,2,4.579
10,0,4.58
16,-1,4.581
10,1,4.582
5,4,4.583
7,2,4.584
11,-1,4.585
9,-2,4.586
5,-2,4.587
5,-3,4.588
7,-3,4.589
6,1,4.59
3,3,4.591
0,0,4.592
0,-2,4.593
-1,-3,4.594
-2,-2,4.595
-6,-4,4.596
-11,-8,4.597
-9,-8,4.598
-3,-5,4.599
1,-2,4.6
-1,-1,4.601
-5,-2,4.602
-6,-2,4.603
-2,-1,4.604
-2,-1,4.605
-5,0,4.606
-8,0,4.607
-6,0,4.608
-3,0,4.609
1,0,4.61
4,2,4.611
3,6,4.612
2,17,4.613
0,27,4.614
0,32,4.615
1,29,4.616
0,20,4.617
2,18,4.618
13,24,4.619
25,46,4.62
27,81,4.621
16,115,4.622
6,115,4.623
1,57,4.624
-2,-46,4.625
-7,-147,4.626
-9,-206,4.627
-4,-207,4.628
-1,-165,4.629
0,-105,4.63
6,-51,4.631
19,-16,4.632
30,2,4.633
29,11,4.634
23,8,4.635
16,-9,4.636
11,-29,4.637
1,-29,4.638
-7,-10,4.639
-11,8,4.64
-10,23,4.641
-5,35,4.642
4,48,4.643
14,49,4.644
18,38,4.645
13,27,4.646
5,22,4.647
3,20,4.648
1,18,4.649
-4,20,4.65
-9,26,4.651
-6,24,4.652
-2,20,4.653
-5,17,4.654
-12,25,4.655
-16,38,4.656
-13,53,4.657
-11,70,4.658
-7,77,4.659
-1,65,4.66
2,50,4.661
-1,44,4.662
-2,41,4.663
6,18,4.664
15,-12,4.665
14,-15,4.666
5,13,4.667
4,42,4.668
7,39,4.669
7,13,4.67
1,-2,4.671
-3,5,4.672
-7,13,4.673
-12,-15,4.674
-14,-87,4.675
-16,-180,4.676
-16,-261,4.677
-16,-300,4.678
-6,-296,4.679
9,-242,4.68
25,-143,4.681
32,-32,4.682
34,39,4.683
31,57,4.684
24,53,4.685
15,62,4.686
8,77,4.687
5,75,4.688
3,65,4.689
-2,66,4.69
-5,78,4.691
-4,83,4.692
-2,83,4.693
-1,75,4.694
0,66,4.695
0,55,4.696
-4,43,4.697
-10,39,4.698
-9,38,4.699
-2,36,4.7
0,32,4.701
-3,28,4.702
-3,22,4.703
5,16,4.704
13,14,4.705
11,15,4.706
7,14,4.707
4,10,4.708
2,10,4.709
-1,13,4.71
-3,15,4.711
-4,18,4.712
-5,29,4.713
-11,44,4.714
-16,50,4.715
-19,40,4.716
-19,21,4.717
-15,10,4.718
-5,-6,4.719
9,-51,4.72
16,-113,4.721
14,-154,4.722
11,-155,4.723
12,-127,4.724
14,-85,4.725
15,-32,4.726
12,9,4.727
8,18,4.728
1,2,4.729
-4,-4,4.73
-5,5,4.731
-4,14,4.732
-3,13,4.733
-3,12,4.734
-1,22,4.735
4,23,4.736
17,6,4.737
35,-5,4.738
58,-4,4.739
67,-3,4.74
50,-6,4.741
14,1,4.742
-19,25,4.743
-36,49,4.744
-42,59,4.745
-50,64,4.746
-63,76,4.747
-65,83,4.748
-41,74,4.749
4,53,4.75
49,26,4.751
73,-8,4.752
78,-50,4.753
67,-102,4.754
50,-136,4.755
28,-135,4.756
3,-113,4.757
-17,-87,4.758
-25,-66,4.759
-14,-40,4.76
6,-8,4.761
24,14,4.762
40,19,4.763
50,20,4.764
38,30,4.765
0,42,4.766
-32,45,4.767
-29,42,4.768
-13,39,4.769
-25,38,4.77
-60,36,4.771
-81,48,4.772
-75,85,4.773
-60,150,4.774
-47,217,4.775
-32,240,4.776
-15,181,4.777
-4,46,4.778
0,-107,4.779
13,-209,4.78
27,-232,4.781
28,-208,4.782
20,-173,4.783
18,-143,4.784
25,-121,4.785
32,-105,4.786
32,-83,4.787
31,-38,4.788
32,14,4.789
32,42,4.79
27,37,4.791
22,19,4.792
15,1,4.793
1,-15,4.794
-8,-22,4.795
-10,-8,4.796
-10,17,4.797
-16,42,4.798
-19,50,4.799
-8,47,4.8
15,42,4.801
24,41,4.802
17,42,4.803
11,43,4.804
11,39,4.805
6,27,4.806
-3,17,4.807
-10,16,4.808
-6,21,4.809
-4,20,4.81
-4,15,4.811
4,10,4.812
19,12,4.813
19,12,4.814
-1,10,4.815
-21,6,4.816
-18,-2,4.817
-3,-8,4.818
12,-11,4.819
20,-10,4.82
25,-6,4.821
21,-4,4.822
6,-5,4.823
-5,-6,4.824
-12,-1,4.825
-22,3,4.826
-29,3,4.827
-14,3,4.828
24,4,4.829
51,3,4.83
57,-2,4.831
60,-6,4.832
66,-2,4.833
54,-1,4.834
17,-6,4.835
-12,-15,4.836
-4,-20,4.837
18,-15,4.838
9,-9,4.839
-46,-7,4.84
-109,-9,4.841
-135,-11,4.842
-115,-12,4.843
-78,-8,4.844
-49,-1,4.845
-32,4,4.846
-13,4,4.847
4,1,4.848
10,-1,4.849
6,-1,4.85
11,1,4.851
20,1,4.852
18,0,4.853
7,-1,4.854
14,-3,4.855
32,-6,4.856
36,-14,4.857
20,-21,4.858
17,-20,4.859
36,-12,4.86
48,2,4.861
42,19,4.862
57,27,4.863
115,22,4.864
162,10,4.865
120,3,4.866
-5,5,4.867
-115,10,4.868
-130,13,4.869
-62,12,4.87
10,9,4.871
40,3,4.872
40,-4,4.873
31,-11,4.874
10,-14,4.875
-28,-13,4.876
-59,-15,4.877
-67,-13,4.878
-60,-9,4.879
-49,-5,4.88
-29,-1,4.881
1,1,4.882
20,2,4.883
20,-1,4.884
13,-2,4.885
13,-2,4.886
11,0,4.887
0,-2,4.888
-6,-6,4.889
-1,-5,4.89
7,0,4.891
9,6,4.892
11,8,4.893
15,8,4.894
18,8,4.895
13,6,4.896
9,-1,4.897
18,-1,4.898
35,1,4.899
45,3,4.9
40,3,4.901
25,3,4.902
10,2,4.903
0,0,4.904
-3,-5,4.905
-7,-7,4.906
-14,-5,4.907
-18,-2,4.908
-17,-4,4.909
-11,-7,4.91
-3,-7,4.911
11,-6,4.912
29,-5,4.913
34,-7,4.914
14,-9,4.915
-20,-8,4.916
-40,-7,4.917
-35,-5,4.918
-23,-4,4.919
-24,-2,4.92
-38,0,4.921
-45,6,4.922
-29,10,4.923
-8,11,4.924
1,7,4.925
3,2,4.926
16,-1,4.927
41,0,4.928
53,3,4.929
45,3,4.93
34,0,4.931
36,0,4.932
46,3,4.933
41,3,4.934
14,-3,4.935
-27,-8,4.936
-58,-9,4.937
-61,-1,4.938
-39,7,4.939
-20,12,4.94
-17,16,4.941
-20,20,4.942
-10,25,4.943
6,28,4.944
9,30,4.945
0,21,4.946
-7,-6,4.947
-5,-36,4.948
-4,-53,4.949
-4,-51,4.95
3,-43,4.951
15,-32,4.952
22,-14,4.953
27,1,4.954
38,8,4.955
46,9,4.956
32,10,4.957
-8,16,4.958
-48,17,4.959
-58,14,4.96
-37,15,4.961
-11,16,4.962
10,7,4.963
29,-8,4.964
49,-12,4.965
68,-6,4.966
79,-3,4.967
72,-8,4.968
41,-9,4.969
0,0,4.97
-23,4,4.971
-17,-2,4.972
-1,-7,4.973
5,-5,4.974
3,-1,4.975
6,-3,4.976
20,-9,4.977
28,-7,4.978
17,-3,4.979
-6,0,4.98
-25,3,4.981
-35,10,4.982
-47,16,4.983
-67,14,4.984
-84,7,4.985
-74,3,4.986
-32,4,4.987
23,7,4.988
68,5,4.989
87,1,4.99
83,-1,4.991
64,-3,4.992
44,-3,4.993
21,-5,4.994
-6,-6,4.995
-32,-4,4.996
-46,-8,4.997
-44,-12,4.998
-26,-16,4.999
-8,-12,5.0
0,-3,5.001
-3,4,5.002
-8,7,5.003
-7,12,5.004
1,14,5.005
13,13,5.006
23,4,5.007
30,-2,5.008
41,-3,5.009
57,0,5.01
71,-1,5.011
67,-5,5.012
43,-3,5.013
0,4,5.014
-41,10,5.015
-71,8,5.016
-91,1,5.017
-100,-1,5.018
-98,-1,5.019
-84,-5,5.02
-60,-8,5.021
-31,-7,5.022
0,-4,5.023
28,-7,5.024
44,-13,5.025
49,-12,5.026
52,-7,5.027
52,-8,5.028
38,-12,5.029
9,-10,5.03
-18,1,5.031
-24,15,5.032
-10,25,5.033
8,24,5.034
15,22,5.035
9,28,5.036
2,40,5.037
3,47,5.038
13,30,5.039
26,1,5.04
34,-2,5.041
41,24,5.042
47,53,5.043
48,59,5.044
36,45,5.045
16,31,5.046
1,16,5.047
0,0,5.048
0,-9,5.049
-9,-23,5.05
-22,-63,5.051
-27,-134,5.052
-21,-199,5.053
-10,-230,5.054
3,-216,5.055
10,-171,5.056
4,-110,5.057
-3,-42,5.058
0,8,5.059
11,35,5.06
15,52,5.061
7,77,5.062
-2,96,5.063
-4,92,5.064
-3,74,5.065
-4,64,5.066
-4,61,5.067
-2,51,5.068
-1,39,5.069
-2,37,5.07
-4,42,5.071
-5,34,5.072
-7,23,5.073
-8,14,5.074
-1,13,5.075
10,11,5.076
17,5,5.077
15,3,5.078
10,6,5.079
6,6,5.08
5,3,5.081
4,4,5.082
2,9,5.083
1,9,5.084
0,6,5.085
-1,2,5.086
-1,0,5.087
-2,2,5.088
-4,4,5.089
-5,5,5.09
-1,3,5.091
5,0,5.092
11,-2,5.093
4,-7,5.094
4,-13,5.095
6,-17,5.096
4,-17,5.097
4,-13,5.098
14,-12,5.099
22,-12,5.1
22,-9,5.101
14,-2,5.102
-4,2,5.103
-15,0,5.104
-4,-4,5.105
4,-7,5.106
-2,-5,5.107
-4,-2,5.108
6,1,5.109
14,2,5.11
11,-1,5.111
8,-4,5.112
19,-4,5.113
5,-3,5.114
5,-2,5.115
6,0,5.116
5,4,5.117
5,7,5.118
9,4,5.119
12,-2,5.12
12,-2,5.121
9,4,5.122
2,7,5.123
-2,-2,5.124
2,-12,5.125
5,-14,5.126
3,-11,5.127
2,-10,5.128
6,-11,5.129
9,-9,5.13
8,-8,5.131
7,-7,5.132
11,-7,5.133
15,-7,5.134
16,-4,5.135
12,-2,5.136
5,-5,5.137
2,-5,5.138
3,-3,5.139
6,1,5.14
5,8,5.141
-3,11,5.142
-15,11,5.143
-20,9,5.144
-15,10,5.145
-5,15,5.146
5,19,5.147
12,14,5.148
10,6,5.149
4,1,5.15
1,2,5.151
2,2,5.152
2,0,5.153
-2,-4,5.154
-9,-3,5.155
-14,0,5.156
-11,-2,5.157
-5,-5,5.158
7,-7,5.159
16,-1,5.16
14,17,5.161
2,33,5.162
-4,31,5.163
-1,9,5.164
4,-16,5.165
1,-33,5.166
-2,-42,5.167
0,-46,5.168
5,-41,5.169
4,-24,5.17
3,-6,5.171
6,2,5.172
10,5,5.173
4,7,5.174
-4,15,5.175
-10,22,5.176
-10,15,5.177
-8,4,5.178
-2,0,5.179
3,3,5.18
3,7,5.181
2,7,5.182
0,2,5.183
0,2,5.184
5,5,5.185
8,7,5.186
5,4,5.187
3,0,5.188
7,-2,5.189
10,-1,5.19
10,-2,5.191
8,-3,5.192
5,-1,5.193
2,-2,5.194
-5,-2,5.195
-11,-5,5.196
-10,-9,5.197
-5,-9,5.198
2,-8,5.199
14,-5,5.2
18,2,5.201
15,6,5.202
10,3,5.203
6,-3,5.204
4,-3,5.205
5,3,5.206
9,6,5.207
12,2,5.208
6,3,5.209
-3,7,5.21
-4,5,5.211
4,-5,5.212
13,-11,5.213
9,-5,5.214
3,4,5.215
4,4,5.216
7,-6,5.217
9,-8,5.218
8,-3,5.219
6,0,5.22
3,0,5.221
-1,0,5.222
-1,1,5.223
3,0,5.224
8,-4,5.225
7,-4,5.226
0,-3,5.227
-5,-1,5.228
-8,0,5.229
-9,2,5.23
-9,5,5.231
-12,3,5.232
-14,0,5.233
-14,-5,5.234
-6,-8,5.235
0,-8,5.236
3,-7,5.237
6,-4,5.238
17,-1,5.239
25,-1,5.24
18,0,5.241
1,4,5.242
-6,6,5.243
-2,3,5.244
4,-1,5.245
4,-1,5.246
1,-1,5.247
3,-4,5.248
9,-3,5.249
16,1,5.25
29,5,5.251
43,3,5.252
37,0,5.253
3,-4,5.254
-30,-6,5.255
-54,-5,5.256
-47,-3,5.257
-42,-2,5.258
-43,-3,5.259
-39,-2,5.26
-19,4,5.261
-1,6,5.262
4,1,5.263
9,-2,5.264
11,0,5.265
14,3,5.266
14,1,5.267
14,0,5.268
15,4,5.269
16,7,5.27
14,5,5.271
13,0,5.272
12,-1,5.273
10,0,5.274
7,-1,5.275
8,-4,5.276
11,-7,5.277
14,-7,5.278
18,-5,5.279
24,0,5.28
25,4,5.281
16,5,5.282
4,3,5.283
1,0,5.284
4,-1,5.285
5,1,5.286
6,4,5.287
8,6,5.288
10,6,5.289
6,6,5.29
3,4,5.291
5,3,5.292
6,3,5.293
1,2,5.294
-4,1,5.295
-8,0,5.296
-10,-6,5.297
-12,-8,5.298
-9,-9,5.299
-2,-9,5.3
1,-10,5.301
-1,-13,5.302
-2,-11,5.303
1,-7,5.304
5,0,5.305
2,4,5.306
-1,4,5.307
2,3,5.308
9,2,5.309
7,1,5.31
2,0,5.311
0,1,5.312
0,4,5.313
0,1,5.314
-1,-3,5.315
-4,-4,5.316
-7,-4,5.317
-5,-1,5.318
2,0,5.319
10,1,5.32
8,6,5.321
2,6,5.322
-2,1,5.323
0,-6,5.324
0,-6,5.325
-2,-1,5.326
-3,3,5.327
-1,2,5.328
3,0,5.329
8,-2,5.33
12,-4,5.331
16,-2,5.332
16,0,5.333
-8,3,5.334
-2,1,5.335
2,-2,5.336
4,-5,5.337
7,-5,5.338
8,-2,5.339
11,1,5.34
11,4,5.341
10,3,5.342
10,-1,5.343
10,-5,5.344
18,-2,5.345
23,2,5.346
7,3,5.347
-2,0,5.348
-1,0,5.349
1,5,5.35
-7,8,5.351
-15,6,5.352
-23,2,5.353
-5,-1,5.354
-1,-1,5.355
2,-1,5.356
4,-4,5.357
6,-7,5.358
7,-6,5.359
9,0,5.36
9,9,5.361
8,12,5.362
8,6,5.363
8,-1,5.364
14,-4,5.365
17,-3,5.366
6,-1,5.367
-1,-1,5.368
0,-4,5.369
1,-5,5.37
-4,-4,5.371
-10,-2,5.372
-15,0,5.373
-17,0,5.374
-14,0,5.375
-13,1,5.376
-11,0,5.377
-6,-2,5.378
4,-1,5.379
12,0,5.38
14,1,5.381
9,1,5.382
7,0,5.383
14,-3,5.384
22,-8,5.385
25,-12,5.386
20,-6,5.387
16,-2,5.388
16,-2,5.389
24,0,5.39
34,3,5.391
34,6,5.392
20,6,5.393
-2,5,5.394
-17,0,5.395
-22,-2,5.396
-30,-3,5.397
-39,-1,5.398
-37,0,5.399
-21,-2,5.4
1,-4,5.401
16,-4,5.402
18,-2,5.403
8,1,5.404
-7,4,5.405
-17,3,5.406
-17,0,5.407
-11,-3,5.408
-10,-3,5.409
-9,0,5.41
-1,2,5.411
10,4,5.412
18,6,5.413
-6,5,5.414
-6,3,5.415
-6,2,5.416
-2,0,5.417
2,0,5.418
4,-1,5.419
4,-2,5.42
-2,0,5.421
-6,2,5.422
2,0,5.423
6,-1,5.424
2,0,5.425
2,1,5.426
13,1,5.427
21,0,5.428
19,1,5.429
15,1,5.43
8,-2,5.431
4,-4,5.432
4,-1,5.433
-2,0,5.434
-2,-1,5.435
-2,-4,5.436
0,-6,5.437
2,-4,5.438
3,-5,5.439
3,-6,5.44
0,-4,5.441
-2,0,5.442
2,2,5.443
4,0,5.444
2,1,5.445
2,4,5.446
7,2,5.447
11,-4,5.448
10,-5,5.449
8,0,5.45
5,2,5.451
3,-1,5.452
3,-4,5.453
3,-3,5.454
-1,2,5.455
-4,5,5.456
-3,0,5.457
-2,-6,5.458
-1,-5,5.459
-1,-3,5.46
-2,0,5.461
-2,3,5.462
4,5,5.463
15,7,5.464
21,7,5.465
19,6,5.466
12,3,5.467
4,0,5.468
-1,-3,5.469
-5,-6,5.47
-7,-8,5.471
-8,-9,5.472
-7,-3,5.473
-6,2,5.474
-5,4,5.475
-5,0,5.476
-6,-8,5.477
-2,-6,5.478
6,2,5.479
13,9,5.48
11,9,5.481
6,5,5.482
0,-1,5.483
-3,-8,5.484
-5,-14,5.485
-6,-12,5.486
-8,-3,5.487
-8,2,5.488
-7,1,5.489
-1,-1,5.49
9,1,5.491
15,4,5.492
14,6,5.493
11,4,5.494
9,2,5.495
6,-2,5.496
-1,-10,5.497
-5,-13,5.498
4,-8,5.499
11,-1,5.5
12,0,5.501
13,-1,5.502
11,2,5.503
9,7,5.504
5,9,5.505
2,9,5.506
0,12,5.507
-1,14,5.508
-3,11,5.509
-5,5,5.51
-8,0,5.511
-10,-1,5.512
-6,-1,5.513
-1,-4,5.514
2,-4,5.515
3,-6,5.516
2,-9,5.517
3,-10,5.518
6,-7,5.519
9,-2,5.52
6,0,5.521
2,0,5.522
5,0,5.523
11,-4,5.524
11,-9,5.525
8,-6,5.526
3,0,5.527
2,1,5.528
0,-4,5.529
-1,-8,5.53
0,-3,5.531
1,1,5.532
0,5,5.533
-4,4,5.534
-6,1,5.535
-4,-1,5.536
-1,-6,5.537
0,-2,5.538
4,4,5.539
9,7,5.54
12,6,5.541
10,5,5.542
2,3,5.543
-1,2,5.544
0,0,5.545
4,0,5.546
6,4,5.547
6,6,5.548
8,3,5.549
12,0,5.55
11,2,5.551
9,5,5.552
6,9,5.553
8,6,5.554
6,2,5.555
-1,-3,5.556
-6,-9,5.557
-4,-12,5.558
1,-10,5.559
1,-6,5.56
-3,-1,5.561
-5,4,5.562
-1,5,5.563
7,0,5.564
10,-5,5.565
5,-5,5.566
-1,1,5.567
-1,6,5.568
1,4,5.569
3,-1,5.57
2,-3,5.571
2,-2,5.572
5,-1,5.573
0,-7,5.574
-1,-10,5.575
-4,-10,5.576
-5,-9,5.577
-5,-8,5.578
4,-6,5.579
12,1,5.58
7,9,5.581
3,11,5.582
5,8,5.583
9,3,5.584
9,4,5.585
7,5,5.586
2,3,5.587
-1,2,5.588
1,2,5.589
4,1,5.59
4,-1,5.591
5,-4,5.592
7,-3,5.593
0,-5,5.594
-1,-6,5.595
-3,-6,5.596
-4,-6,5.597
-4,-3,5.598
4,-2,5.599
10,-3,5.6
6,-1,5.601
3,0,5.602
5,0,5.603
8,-1,5.604
8,-1,5.605
6,3,5.606
2,6,5.607
-1,4,5.608
1,-1,5.609
4,-4,5.61
4,-2,5.611
5,0,5.612
6,2,5.613
6,0,5.614
1,1,5.615
-5,0,5.616
-9,-6,5.617
-10,-9,5.618
-4,-7,5.619
7,-1,5.62
15,3,5.621
14,4,5.622
9,1,5.623
7,-1,5.624
4,-1,5.625
-2,0,5.626
-6,0,5.627
-3,-2,5.628
2,1,5.629
1,10,5.63
1,19,5.631
5,24,5.632
9,34,5.633
7,50,5.634
3,69,5.635
-1,68,5.636
-3,37,5.637
-3,-5,5.638
3,-42,5.639
11,-68,5.64
8,-88,5.641
0,-98,5.642
-3,-92,5.643
-2,-67,5.644
-4,-28,5.645
-8,10,5.646
-7,36,5.647
-1,45,5.648
2,44,5.649
0,36,5.65
0,22,5.651
3,-3,5.652
6,-28,5.653
1,-47,5.654
-6,-48,5.655
-13,-36,5.656
-13,-18,5.657
-5,19,5.658
13,72,5.659
27,111,5.66
26,112,5.661
15,88,5.662
7,77,5.663
6,86,5.664
5,80,5.665
1,31,5.666
0,-52,5.667
5,-139,5.668
10,-217,5.669
5,-277,5.67
-3,-294,5.671
-7,-246,5.672
-5,-146,5.673
-1,-17,5.674
-1,93,5.675
-3,152,5.676
-2,166,5.677
2,170,5.678
12,171,5.679
18,139,5.68
17,57,5.681
14,-26,5.682
11,-58,5.683
10,-41,5.684
6,-17,5.685
-1,-5,5.686
-2,-1,5.687
1,-11,5.688
1,-47,5.689
-4,-85,5.69
-7,-93,5.691
-4,-69,5.692
1,-35,5.693
1,-4,5.694
-3,29,5.695
-10,58,5.696
-14,65,5.697
-13,60,5.698
-8,60,5.699
-2,63,5.7
-3,57,5.701
-10,43,5.702
-13,33,5.703
-8,28,5.704
0,20,5.705
3,12,5.706
4,12,5.707
8,19,5.708
15,23,5.709
19,31,5.71
20,58,5.711
17,101,5.712
15,127,5.713
15,112,5.714
18,61,5.715
14,8,5.716
4,-29,5.717
-2,-46,5.718
1,-52,5.719
11,-43,5.72
12,-35,5.721
8,-45,5.722
5,-74,5.723
9,-94,5.724
8,-102,5.725
2,-121,5.726
-3,-157,5.727
-4,-173,5.728
-3,-145,5.729
-4,-91,5.73
-6,-34,5.731
-9,29,5.732
-10,90,5.733
-11,119,5.734
-9,111,5.735
-7,100,5.736
-3,102,5.737
0,84,5.738
3,25,5.739
0,-26,5.74
-4,-13,5.741
-4,35,5.742
5,46,5.743
15,10,5.744
16,-15,5.745
12,-9,5.746
6,-11,5.747
3,-42,5.748
2,-66,5.749
1,-56,5.75
-1,-44,5.751
-3,-65,5.752
0,-93,5.753
2,-97,5.754
-2,-79,5.755
-7,-73,5.756
-13,-83,5.757
-15,-75,5.758
-3,-40,5.759
5,-2,5.76
3,35,5.761
2,77,5.762
6,120,5.763
10,144,5.764
14,147,5.765
17,151,5.766
17,160,5.767
17,160,5.768
15,134,5.769
14,89,5.77
12,50,5.771
9,27,5.772
3,18,5.773
-1,-1,5.774
-4,-38,5.775
-4,-79,5.776
-2,-127,5.777
0,-160,5.778
6,-148,5.779
10,-122,5.78
11,-54,5.781
8,5,5.782
2,35,5.783
-3,52,5.784
-9,29,5.785
-16,-1,5.786
-18,-50,5.787
-12,-86,5.788
-3,-79,5.789
6,-49,5.79
7,51,5.791
4,130,5.792
1,146,5.793
-2,137,5.794
-8,51,5.795
-17,-9,5.796
-23,-43,5.797
-17,-88,5.798
1,-123,5.799
21,-74,5.8
29,50,5.801
23,144,5.802
14,135,5.803
8,77,5.804
8,38,5.805
9,-20,5.806
9,-139,5.807
11,-260,5.808
8,-291,5.809
4,-224,5.81
2,-118,5.811
5,3,5.812
10,125,5.813
7,214,5.814
-1,219,5.815
-13,169,5.816
-19,126,5.817
-19,102,5.818
-8,70,5.819
8,33,5.82
18,-2,5.821
16,-64,5.822
11,-163,5.823
9,-234,5.824
5,-224,5.825
-3,-164,5.826
-5,-110,5.827
0,-52,5.828
4,31,5.829
-1,106,5.83
-8,121,5.831
-7,106,5.832
-2,122,5.833
-1,155,5.834
-4,143,5.835
-4,68,5.836
-4,-15,5.837
-4,-55,5.838
-2,-66,5.839
3,-74,5.84
7,-65,5.841
3,-25,5.842
2,30,5.843
7,71,5.844
12,102,5.845
12,140,5.846
10,176,5.847
10,179,5.848
8,146,5.849
4,108,5.85
1,60,5.851
0,-38,5.852
-2,-179,5.853
-3,-301,5.854
-4,-326,5.855
-3,-272,5.856
-5,-204,5.857
-6,-130,5.858
-1,-36,5.859
8,46,5.86
10,76,5.861
3,88,5.862
-6,136,5.863
-11,192,5.864
-10,190,5.865
-4,135,5.866
6,90,5.867
14,61,5.868
16,12,5.869
12,-30,5.87
10,-10,5.871
13,51,5.872
16,62,5.873
13,-12,5.874
4,-109,5.875
-7,-182,5.876
-16,-250,5.877
-18,-302,5.878
-13,-288,5.879
-5,-181,5.88
-1,-22,5.881
2,144,5.882
4,280,5.883
3,329,5.884
4,255,5.885
7,114,5.886
14,1,5.887
20,-61,5.888
19,-111,5.889
11,-145,5.89
2,-126,5.891
1,-76,5.892
3,-42,5.893
3,-19,5.894
0,27,5.895
-5,86,5.896
-5,112,5.897
-4,100,5.898
0,69,5.899
5,16,5.9
9,-48,5.901
6,-72,5.902
5,-25,5.903
5,45,5.904
7,70,5.905
5,40,5.906
1,-14,5.907
1,-82,5.908
3,-148,5.909
5,-168,5.91
7,-115,5.911
6,-19,5.912
4,76,5.913
0,168,5.914
-2,246,5.915
-2,260,5.916
-1,167,5.917
-2,16,5.918
-1,-103,5.919
5,-156,5.92
5,-179,5.921
0,-202,5.922
-4,-203,5.923
-1,-168,5.924
2,-121,5.925
-1,-81,5.926
-6,-34,5.927
-6,30,5.928
-3,84,5.929
-1,104,5.93
-1,109,5.931
-1,122,5.932
1,133,5.933
-1,117,5.934
-4,86,5.935
-7,68,5.936
-6,69,5.937
1,82,5.938
13,104,5.939
20,126,5.94
16,122,5.941
9,72,5.942
4,-2,5.943
6,-66,5.944
9,-104,5.945
10,-115,5.946
11,-83,5.947
13,-6,5.948
11,75,5.949
6,116,5.95
4,126,5.951
8,139,5.952
13,142,5.953
11,99,5.954
7,19,5.955
0,-56,5.956
-5,-129,5.957
-6,-215,5.958
-1,-286,5.959
10,-295,5.96
9,-275,5.961
-5,-308,5.962
-19,-378,5.963
-20,-379,5.964
-14,-278,5.965
-12,-147,5.966
-14,-37,5.967
-10,79,5.968
-2,199,5.969
2,252,5.97
4,232,5.971
10,217,5.972
18,251,5.973
24,298,5.974
26,319,5.975
24,316,5.976
19,292,5.977
11,227,5.978
3,120,5.979
0,-9,5.98
-3,-144,5.981
-7,-255,5.982
-8,-289,5.983
-3,-235,5.984
-1,-170,5.985
-3,-147,5.986
-3,-125,5.987
0,-55,5.988
3,39,5.989
-1,117,5.99
-6,180,5.991
-5,209,5.992
0,154,5.993
-1,8,5.994
-3,-137,5.995
-4,-208,5.996
-3,-229,5.997
0,-227,5.998
6,-169,5.999
11,-40,6.0
6,98,6.001
-5,172,6.002
-12,173,6.003
-11,147,6.004
-6,121,6.005
-4,93,6.006
1,60,6.007
15,28,6.008
26,26,6.009
27,83,6.01
20,189,6.011
13,277,6.012
11,276,6.013
11,156,6.014
8,-26,6.015
0,-195,6.016
-7,-308,6.017
-8,-352,6.018
-4,-323,6.019
-1,-212,6.02
-1,-61,6.021
-4,35,6.022
-6,19,6.023
-2,-70,6.024
3,-152,6.025
5,-178,6.026
3,-149,6.027
2,-69,6.028
2,49,6.029
3,163,6.03
3,232,6.031
3,251,6.032
7,241,6.033
12,205,6.034
12,154,6.035
3,97,6.036
-5,38,6.037
-6,-14,6.038
1,-54,6.039
9,-82,6.04
9,-112,6.041
6,-134,6.042
7,-117,6.043
9,-61,6.044
7,-37,6.045
1,-83,6.046
-2,-142,6.047
-3,-133,6.048
-3,-63,6.049
-6,13,6.05
-9,79,6.051
-10,132,6.052
-8,145,6.053
-4,106,6.054
-1,72,6.055
0,85,6.056
0,101,6.057
2,85,6.058
10,81,6.059
17,139,6.06
17,199,6.061
11,156,6.062
6,3,6.063
5,-163,6.064
7,-254,6.065
6,-240,6.066
3,-116,6.067
2,75,6.068
0,207,6.069
-4,150,6.07
-7,-82,6.071
-5,-330,6.072
0,-460,6.073
3,-473,6.074
3,-397,6.075
3,-222,6.076
5,45,6.077
8,322,6.078
11,480,6.079
13,477,6.08
5,390,6.081
-4,319,6.082
-8,268,6.083
-9,151,6.084
-9,-68,6.085
-9,-291,6.086
-7,-399,6.087
2,-410,6.088
13,-396,6.089
15,-330,6.09
13,-143,6.091
11,84,6.092
8,187,6.093
0,153,6.094
-7,95,6.095
-7,41,6.096
-1,-75,6.097
6,-163,6.098
12,2,6.099
16,435,6.1
15,810,6.101
6,830,6.102
-2,555,6.103
1,222,6.104
14,-110,6.105
16,-507,6.106
4,-887,6.107
-8,-1034,6.108
-11,-874,6.109
-9,-542,6.11
-9,-192,6.111
-14,112,6.112
-14,302,6.113
-7,317,6.114
3,200,6.115
8,120,6.116
5,171,6.117
-2,276,6.118
-4,319,6.119
1,302,6.12
5,271,6.121
2,209,6.122
-2,69,6.123
-1,-116,6.124
6,-246,6.125
9,-256,6.126
5,-188,6.127
1,-111,6.128
0,-51,6.129
-1,-6,6.13
3,0,6.131
12,-32,6.132
20,-55,6.133
18,-40,6.134
12,-31,6.135
9,-58,6.136
11,-38,6.137
13,98,6.138
11,234,6.139
9,226,6.14
9,145,6.141
5,143,6.142
1,176,6.143
1,111,6.144
3,-11,6.145
2,-62,6.146
-3,-93,6.147
-4,-235,6.148
-3,-409,6.149
-3,-401,6.15
-7,-182,6.151
-10,61,6.152
-8,182,6.153
-8,177,6.154
-8,74,6.155
-8,-68,6.156
-6,-135,6.157
-3,-55,6.158
4,101,6.159
10,212,6.16
3,232,6.161
-10,177,6.162
-20,61,6.163
-21,-60,6.164
-14,-103,6.165
-6,-53,6.166
5,6,6.167
19,41,6.168
27,125,6.169
25,296,6.17
19,453,6.171
16,479,6.172
18,390,6.173
20,230,6.174
23,28,6.175
19,-205,6.176
8,-407,6.177
-4,-513,6.178
-9,-529,6.179
-7,-480,6.18
-8,-372,6.181
-8,-229,6.182
-2,-132,6.183
6,-119,6.184
7,-130,6.185
1,-96,6.186
-2,-36,6.187
-4,-2,6.188
-10,20,6.189
-19,80,6.19
-23,174,6.191
-20,232,6.192
-13,219,6.193
-6,161,6.194
-3,114,6.195
-3,90,6.196
-4,62,6.197
1,43,6.198
17,72,6.199
28,158,6.2
25,259,6.201
15,307,6.202
11,274,6.203
15,172,6.204
17,44,6.205
12,-60,6.206
7,-97,6.207
4,-78,6.208
0,-60,6.209
-5,-106,6.21
-6,-210,6.211
-3,-300,6.212
1,-325,6.213
1,-299,6.214
0,-259,6.215
-1,-197,6.216
0,-80,6.217
4,79,6.218
10,209,6.219
12,287,6.22
10,366,6.221
4,449,6.222
0,441,6.223
-1,271,6.224
2,18,6.225
9,-179,6.226
13,-262,6.227
5,-257,6.228
-7,-221,6.229
-14,-216,6.23
-9,-278,6.231
0,-346,6.232
3,-330,6.233
3,-236,6.234
1,-151,6.235
-3,-84,6.236
-8,45,6.237
-9,232,6.238
0,322,6.239
10,236,6.24
6,84,6.241
-2,-8,6.242
-7,-43,6.243
-1,-69,6.244
7,-90,6.245
12,-101,6.246
13,-106,6.247
13,-74,6.248
10,50,6.249
1,247,6.25
-7,405,6.251
-8,415,6.252
-5,266,6.253
-7,-9,6.254
-14,-262,6.255
-20,-369,6.256
-17,-332,6.257
-3,-219,6.258
14,-40,6.259
28,221,6.26
33,470,6.261
28,576,6.262
16,563,6.263
9,534,6.264
10,422,6.265
14,94,6.266
15,-348,6.267
11,-624,6.268
4,-662,6.269
-3,-645,6.27
-10,-652,6.271
-6,-564,6.272
4,-369,6.273
11,-195,6.274
8,-118,6.275
-2,-11,6.276
-13,217,6.277
-22,466,6.278
-21,596,6.279
-9,604,6.28
4,534,6.281
7,388,6.282
-1,158,6.283
-5,-103,6.284
-1,-330,6.285
4,-467,6.286
7,-469,6.287
10,-327,6.288
11,-97,6.289
6,110,6.29
-4,202,6.291
-13,173,6.292
-14,105,6.293
-11,83,6.294
-6,138,6.295
-3,219,6.296
0,257,6.297
7,215,6.298
15,78,6.299
20,-116,6.3
19,-255,6.301
13,-205,6.302
5,65,6.303
-1,408,6.304
-3,556,6.305
-1,335,6.306
7,-134,6.307
15,-512,6.308
14,-572,6.309
1,-377,6.31
-5,-135,6.311
0,27,6.312
7,72,6.313
1,-27,6.314
-11,-213,6.315
-18,-341,6.316
-10,-320,6.317
5,-204,6.318
22,-58,6.319
32,124,6.32
30,303,6.321
18,368,6.322
5,333,6.323
1,334,6.324
1,345,6.325
-3,181,6.326
-8,-139,6.327
-6,-328,6.328
-4,-264,6.329
-10,-178,6.33
-14,-237,6.331
-3,-296,6.332
16,-220,6.333
27,-100,6.334
23,-45,6.335
9,55,6.336
-3,302,6.337
-7,571,6.338
-9,690,6.339
-10,643,6.34
-12,452,6.341
-13,75,6.342
-8,-415,6.343
-2,-762,6.344
5,-803,6.345
7,-632,6.346
8,-395,6.347
8,-110,6.348
4,205,6.349
0,419,6.35
0,433,6.351
5,335,6.352
11,264,6.353
12,207,6.354
9,83,6.355
1,-92,6.356
-8,-177,6.357
-11,-86,6.358
-1,63,6.359
15,104,6.36
21,10,6.361
15,-96,6.362
13,-121,6.363
23,-85,6.364
33,-54,6.365
27,-72,6.366
11,-129,6.367
-1,-161,6.368
-11,-65,6.369
-21,158,6.37
-26,317,6.371
-20,205,6.372
-11,-99,6.373
-7,-391,6.374
-7,-494,6.375
-6,-429,6.376
-4,-280,6.377
-5,-63,6.378
-5,164,6.379
-2,296,6.38
0,337,6.381
-6,385,6.382
-8,430,6.383
-2,340,6.384
5,111,6.385
4,-89,6.386
2,-149,6.387
7,-134,6.388
14,-106,6.389
10,-25,6.39
-1,96,6.391
-9,135,6.392
-8,53,6.393
-2,-48,6.394
5,-60,6.395
10,-51,6.396
13,-123,6.397
13,-211,6.398
12,-179,6.399
11,-4,6.4
4,242,6.401
-2,490,6.402
-3,616,6.403
3,436,6.404
9,-51,6.405
9,-526,6.406
4,-663,6.407
0,-493,6.408
-4,-266,6.409
-7,-85,6.41
0,76,6.411
16,136,6.412
30,9,6.413
30,-194,6.414
21,-174,6.415
8,157,6.416
-2,541,6.417
-9,668,6.418
-10,452,6.419
-7,44,6.42
-10,-331,6.421
-18,-533,6.422
-20,-566,6.423
-8,-504,6.424
7,-367,6.425
14,-148,6.426
13,94,6.427
15,267,6.428
16,356,6.429
12,402,6.43
2,402,6.431
-3,342,6.432
-4,274,6.433
-9,242,6.434
-10,204,6.435
-9,69,6.436
-8,-165,6.437
-8,-415,6.438
-4,-594,6.439
4,-615,6.44
10,-443,6.441
8,-171,6.442
12,104,6.443
23,433,6.444
33,805,6.445
29,881,6.446
18,373,6.447
12,-347,6.448
12,-597,6.449
6,-331,6.45
-3,-158,6.451
-8,-337,6.452
-7,-447,6.453
-9,-219,6.454
-16,-2,6.455
-21,-171,6.456
-20,-500,6.457
-16,-566,6.458
-14,-370,6.459
-12,-162,6.46
-7,-7,6.461
-4,172,6.462
1,353,6.463
12,462,6.464
24,515,6.465
32,571,6.466
30,626,6.467
24,614,6.468
14,480,6.469
3,269,6.47
-3,152,6.471
-3,231,6.472
-3,337,6.473
-6,179,6.474
-11,-281,6.475
-16,-750,6.476
-19,-948,6.477
-18,-849,6.478
-10,-565,6.479
-2,-206,6.48
-1,82,6.481
-3,181,6.482
1,160,6.483
13,199,6.484
16,316,6.485
9,374,6.486
3,316,6.487
2,220,6.488
0,133,6.489
-7,28,6.49
-13,-74,6.491
-7,-114,6.492
1,-104,6.493
1,-78,6.494
-2,-13,6.495
-4,98,6.496
0,162,6.497
9,105,6.498
25,-15,6.499
41,-88,6.5
43,-89,6.501
30,-32,6.502
13,74,6.503
5,133,6.504
8,13,6.505
11,-229,6.506
7,-344,6.507
0,-228,6.508
-1,-62,6.509
1,-9,6.51
1,30,6.511
-6,172,6.512
-14,314,6.513
-18,309,6.514
-16,171,6.515
-13,19,6.516
-13,-112,6.517
-10,-237,6.518
-4,-314,6.519
2,-292,6.52
8,-215,6.521
14,-164,6.522
20,-163,6.523
22,-166,6.524
13,-104,6.525
1,70,6.526
-2,293,6.527
4,416,6.528
9,385,6.529
6,302,6.53
-2,226,6.531
-9,53,6.532
-15,-250,6.533
-18,-512,6.534
-17,-542,6.535
-16,-505,6.536
-14,-266,6.537
-9,-26,6.538
-1,214,6.539
13,390,6.54
24,372,6.541
29,326,6.542
32,196,6.543
32,75,6.544
26,-21,6.545
15,-60,6.546
5,77,6.547
1,223,6.548
2,393,6.549
3,497,6.55
1,398,6.551
-3,228,6.552
-5,-152,6.553
-8,-533,6.554
-10,-794,6.555
-14,-791,6.556
-12,-633,6.557
-9,-433,6.558
-6,-197,6.559
-4,34,6.56
-3,137,6.561
-4,105,6.562
-7,116,6.563
-6,263,6.564
-2,397,6.565
3,371,6.566
8,231,6.567
14,89,6.568
19,-21,6.569
19,-53,6.57
12,84,6.571
2,377,6.572
-2,624,6.573
-4,618,6.574
-4,240,6.575
-3,-405,6.576
0,-967,6.577
6,-1093,6.578
14,-806,6.579
18,-430,6.58
15,-159,6.581
10,70,6.582
6,263,6.583
6,284,6.584
7,189,6.585
8,237,6.586
2,465,6.587
-5,610,6.588
-14,554,6.589
-18,456,6.59
-12,362,6.591
-1,84,6.592
8,-362,6.593
8,-727,6.594
3,-752,6.595
-5,-532,6.596
-11,-289,6.597
-13,-55,6.598
-6,167,6.599
3,238,6.6
8,105,6.601
4,-35,6.602
3,4,6.603
10,115,6.604
15,97,6.605
12,-23,6.606
7,-67,6.607
3,4,6.608
0,86,6.609
-2,138,6.61
-1,195,6.611
0,214,6.612
0,124,6.613
-4,-47,6.614
-5,-155,6.615
-5,-156,6.616
-1,-152,6.617
7,-175,6.618
19,-139,6.619
25,-22,6.62
18,68,6.621
4,95,6.622
0,177,6.623
3,395,6.624
2,615,6.625
-5,649,6.626
-9,448,6.627
-7,63,6.628
-4,-435,6.629
-4,-873,6.63
-1,-967,6.631
10,-647,6.632
20,-237,6.633
21,-50,6.634
16,-88,6.635
7,-97,6.636
-1,28,6.637
-5,177,6.638
-6,324,6.639
-4,523,6.64
-5,623,6.641
-8,374,6.642
-4,-124,6.643
7,-454,6.644
15,-430,6.645
11,-268,6.646
9,-153,6.647
16,-35,6.648
25,102,6.649
21,121,6.65
8,24,6.651
-2,-8,6.652
-4,60,6.653
-5,64,6.654
-6,-43,6.655
-9,-82,6.656
-13,25,6.657
-14,112,6.658
-5,64,6.659
6,11,6.66
8,61,6.661
-1,114,6.662
-7,76,6.663
-2,24,6.664
6,39,6.665
8,71,6.666
3,66,6.667
0,56,6.668
0,59,6.669
3,37,6.67
9,-6,6.671
12,-20,6.672
11,0,6.673
7,4,6.674
7,1,6.675
12,54,6.676
13,165,6.677
7,234,6.678
2,178,6.679
0,39,6.68
-4,-62,6.681
-12,-89,6.682
-17,-148,6.683
-18,-326,6.684
-18,-515,6.685
-19,-526,6.686
-12,-357,6.687
5,-183,6.688
20,-80,6.689
26,33,6.69
27,183,6.691
27,302,6.692
28,392,6.693
24,516,6.694
17,605,6.695
1,564,6.696
-15,481,6.697
-23,451,6.698
-19,254,6.699
-8,-326,6.7
-2,-995,6.701
-1,-1237,6.702
1,-1012,6.703
5,-691,6.704
6,-433,6.705
5,-124,6.706
7,166,6.707
9,246,6.708
7,205,6.709
2,268,6.71
1,364,6.711
0,279,6.712
-3,114,6.713
-7,89,6.714
-10,176,6.715
-13,166,6.716
-15,73,6.717
-11,84,6.718
1,169,6.719
11,159,6.72
8,75,6.721
3,59,6.722
2,95,6.723
6,56,6.724
3,-40,6.725
-2,-72,6.726
0,-41,6.727
5,-40,6.728
6,-85,6.729
2,-91,6.73
-2,-3,6.731
0,141,6.732
5,220,6.733
6,123,6.734
5,-110,6.735
4,-266,6.736
8,-192,6.737
17,11,6.738
25,115,6.739
31,49,6.74
28,-66,6.741
19,-102,6.742
7,-9,6.743
0,202,6.744
1,423,6.745
-2,464,6.746
-10,216,6.747
-16,-194,6.748
-16,-515,6.749
-12,-603,6.75
-7,-493,6.751
-1,-304,6.752
5,-142,6.753
3,-52,6.754
-1,-36,6.755
-1,-45,6.756
1,-23,6.757
0,36,6.758
0,114,6.759
5,216,6.76
10,333,6.761
2,363,6.762
-9,218,6.763
-12,-15,6.764
-8,-142,6.765
-4,-120,6.766
-4,-80,6.767
-2,-108,6.768
1,-135,6.769
2,-100,6.77
1,-39,6.771
3,34,6.772
5,157,6.773
3,307,6.774
3,344,6.775
7,205,6.776
8,3,6.777
3,-133,6.778
4,-202,6.779
17,-229,6.78
27,-179,6.781
22,-53,6.782
11,60,6.783
7,85,6.784
9,53,6.785
6,34,6.786
-1,31,6.787
-5,9,6.788
-8,-38,6.789
-13,-68,6.79
-14,-31,6.791
-9,66,6.792
-1,142,6.793
0,115,6.794
-3,2,6.795
-12,-80,6.796
-20,-65,6.797
-17,8,6.798
1,77,6.799
20,132,6.8
24,140,6.801
13,55,6.802
2,-46,6.803
-2,-1,6.804
-6,195,6.805
-9,325,6.806
-4,214,6.807
10,-66,6.808
23,-345,6.809
28,-527,6.81
24,-562,6.811
13,-402,6.812
0,-110,6.813
-9,191,6.814
-7,360,6.815
-2,331,6.816
0,105,6.817
2,-214,6.818
6,-422,6.819
10,-384,6.82
9,-197,6.821
7,-26,6.822
11,113,6.823
13,271,6.824
6,375,6.825
1,311,6.826
3,115,6.827
7,-67,6.828
1,-166,6.829
-7,-189,6.83
-12,-114,6.831
-15,99,6.832
-20,379,6.833
-25,594,6.834
-22,581,6.835
-20,307,6.836
-26,-102,6.837
-32,-449,6.838
-20,-617,6.839
-2,-591,6.84
6,-423,6.841
5,-186,6.842
10,28,6.843
19,152,6.844
18,196,6.845
10,211,6.846
8,187,6.847
16,81,6.848
20,-51,6.849
20,-88,6.85
20,-2,6.851
19,82,6.852
14,69,6.853
5,12,6.854
0,62,6.855
-1,261,6.856
-5,441,6.857
-6,368,6.858
1,-2,6.859
13,-410,6.86
16,-550,6.861
9,-397,6.862
4,-153,6.863
7,53,6.864
14,238,6.865
19,362,6.866
23,305,6.867
25,60,6.868
22,-224,6.869
12,-397,6.87
2,-399,6.871
-5,-237,6.872
-11,-21,6.873
-19,104,6.874
-22,58,6.875
-24,-61,6.876
-28,-120,6.877
-27,-109,6.878
-17,-70,6.879
0,-1,6.88
7,88,6.881
4,123,6.882
2,81,6.883
8,55,6.884
15,112,6.885
11,202,6.886
3,268,6.887
1,319,6.888
5,339,6.889
6,258,6.89
1,75,6.891
0,-113,6.892
2,-241,6.893
2,-311,6.894
6,-285,6.895
14,-159,6.896
18,-50,6.897
15,-46,6.898
5,-19,6.899
-1,207,6.9
-7,503,6.901
-14,502,6.902
-16,103,6.903
-6,-368,6.904
8,-588,6.905
19,-565,6.906
25,-449,6.907
28,-272,6.908
22,-34,6.909
5,187,6.91
-11,367,6.911
-17,579,6.912
-14,744,6.913
-11,602,6.914
-11,62,6.915
-11,-547,6.916
-12,-812,6.917
-10,-705,6.918
-2,-466,6.919
7,-229,6.92
11,2,6.921
6,167,6.922
7,219,6.923
14,246,6.924
16,318,6.925
9,329,6.926
-1,177,6.927
-2,-20,6.928
-2,-105,6.929
-5,-110,6.93
-4,-142,6.931
0,-155,6.932
4,-64,6.933
3,86,6.934
0,159,6.935
-6,132,6.936
-11,112,6.937
-17,151,6.938
-19,188,6.939
-14,165,6.94
-3,112,6.941
7,88,6.942
12,108,6.943
16,116,6.944
19,39,6.945
21,-131,6.946
19,-290,6.947
13,-287,6.948
8,-83,6.949
13,162,6.95
22,204,6.951
28,-23,6.952
24,-299,6.953
12,-410,6.954
-3,-312,6.955
-16,-129,6.956
-20,71,6.957
-16,287,6.958
-5,409,6.959
4,287,6.96
7,-34,6.961
3,-315,6.962
-3,-363,6.963
-5,-174,6.964
-7,112,6.965
-9,276,6.966
-8,154,6.967
-3,-167,6.968
1,-398,6.969
6,-369,6.97
13,-177,6.971
19,23,6.972
20,190,6.973
10,318,6.974
0,328,6.975
-7,185,6.976
-7,-22,6.977
-5,-188,6.978
-2,-270,6.979
0,-226,6.98
-1,-53,6.981
-2,126,6.982
0,166,6.983
3,100,6.984
2,75,6.985
0,128,6.986
-3,163,6.987
-4,136,6.988
1,115,6.989
6,146,6.99
3,210,6.991
0,264,6.992
1,260,6.993
3,118,6.994
-2,-112,6.995
-9,-261,6.996
-12,-163,6.997
-9,-79,6.998
3,-41,6.999
16,-70,7.0
16,-302,7.001
9,-448,7.002
10,-335,7.003
19,-201,7.004
20,-4,7.005
9,160,7.006
-1,226,7.007
0,257,7.008
3,176,7.009
2,86,7.01
2,-30,7.011
12,-129,7.012
20,-181,7.013
20,-187,7.014
14,-37,7.015
6,75,7.016
0,125,7.017
-3,170,7.018
-5,205,7.019
-5,233,7.02
-8,296,7.021
-9,332,7.022
-3,168,7.023
8,-199,7.024
11,-501,7.025
5,-532,7.026
1,-386,7.027
4,-244,7.028
4,-118,7.029
-1,43,7.03
-4,192,7.031
-1,258,7.032
4,247,7.033
3,163,7.034
0,20,7.035
-2,-119,7.036
-3,-172,7.037
-2,-140,7.038
4,-89,7.039
7,-30,7.04
1,59,7.041
-5,137,7.042
-4,143,7.043
3,84,7.044
4,19,7.045
-5,-19,7.046
-11,-27,7.047
-5,8,7.048
2,82,7.049
5,135,7.05
3,126,7.051
2,105,7.052
1,136,7.053
-3,198,7.054
-3,164,7.055
-3,-29,7.056
-4,-272,7.057
-5,-377,7.058
3,-309,7.059
16,-190,7.06
22,-115,7.061
17,-66,7.062
14,-8,7.063
17,53,7.064
20,128,7.065
19,246,7.066
17,342,7.067
17,269,7.068
12,23,7.069
2,-174,7.07
-4,-120,7.071
-5,108,7.072
-4,263,7.073
-8,221,7.074
-9,20,7.075
-11,-246,7.076
-12,-460,7.077
-12,-484,7.078
-8,-298,7.079
-4,-88,7.08
-4,-23,7.081
-5,-39,7.082
-5,4,7.083
-6,68,7.084
-5,45,7.085
-3,-4,7.086
2,50,7.087
7,156,7.088
7,172,7.089
6,131,7.09
4,184,7.091
3,308,7.092
4,312,7.093
4,91,7.094
4,-199,7.095
3,-347,7.096
2,-308,7.097
0,-183,7.098
3,-55,7.099
9,53,7.1
8,112,7.101
1,107,7.102
0,110,7.103
10,192,7.104
14,266,7.105
6,175,7.106
-1,-51,7.107
0,-203,7.108
6,-173,7.109
9,-57,7.11
8,53,7.111
5,174,7.112
4,252,7.113
2,159,7.114
0,-66,7.115
-3,-206,7.116
-5,-181,7.117
-5,-170,7.118
1,-285,7.119
9,-363,7.12
12,-263,7.121
11,-100,7.122
8,-32,7.123
4,-21,7.124
0,30,7.125
-3,102,7.126
0,144,7.127
11,184,7.128
21,238,7.129
25,245,7.13
22,167,7.131
18,56,7.132
15,-25,7.133
12,-79,7.134
7,-83,7.135
1,9,7.136
-1,190,7.137
1,364,7.138
6,390,7.139
5,217,7.14
-1,-66,7.141
-8,-305,7.142
-13,-419,7.143
-12,-439,7.144
-9,-398,7.145
-5,-283,7.146
-4,-126,7.147
-3,-17,7.148
0,20,7.149
7,67,7.15
11,157,7.151
7,213,7.152
3,218,7.153
3,280,7.154
5,462,7.155
-2,617,7.156
-13,542,7.157
-13,248,7.158
-5,-120,7.159
-1,-465,7.16
-5,-736,7.161
-8,-822,7.162
-5,-656,7.163
-2,-359,7.164
-4,-121,7.165
-10,19,7.166
-13,125,7.167
-11,187,7.168
-9,162,7.169
-7,112,7.17
-4,122,7.171
-4,147,7.172
-2,114,7.173
-1,53,7.174
1,45,7.175
1,72,7.176
1,72,7.177
5,85,7.178
16,153,7.179
30,185,7.18
35,79,7.181
28,-96,7.182
18,-172,7.183
13,-80,7.184
13,104,7.185
11,283,7.186
9,366,7.187
10,269,7.188
8,-3,7.189
1,-290,7.19
-2,-417,7.191
2,-370,7.192
10,-278,7.193
10,-216,7.194
7,-154,7.195
6,-47,7.196
7,74,7.197
9,141,7.198
11,123,7.199
19,63,7.2
23,33,7.201
16,64,7.202
0,131,7.203
-9,196,7.204
-11,218,7.205
-11,145,7.206
-13,-32,7.207
-15,-222,7.208
-14,-300,7.209
-9,-247,7.21
-2,-156,7.211
0,-85,7.212
-2,-7,7.213
-9,94,7.214
-14,157,7.215
-17,127,7.216
-17,46,7.217
-12,0,7.218
-3,-5,7.219
7,-20,7.22
12,-46,7.221
10,-8,7.222
11,139,7.223
17,329,7.224
20,415,7.225
14,327,7.226
7,145,7.227
7,-13,7.228
12,-149,7.229
11,-328,7.23
5,-504,7.231
1,-537,7.232
3,-407,7.233
3,-219,7.234
-1,-64,7.235
-10,76,7.236
-14,216,7.237
-12,274,7.238
-6,197,7.239
-2,62,7.24
-2,-41,7.241
-2,-119,7.242
-2,-174,7.243
0,-130,7.244
0,24,7.245
-2,157,7.246
-5,154,7.247
-6,79,7.248
-2,63,7.249
0,116,7.25
0,147,7.251
2,115,7.252
6,61,7.253
11,36,7.254
12,88,7.255
6,221,7.256
0,333,7.257
-2,302,7.258
5,115,7.259
18,-102,7.26
26,-246,7.261
29,-320,7.262
29,-322,7.263
30,-223,7.264
31,-80,7.265
23,-41,7.266
9,-136,7.267
-2,-219,7.268
-6,-185,7.269
-5,-114,7.27
-4,-101,7.271
-3,-101,7.272
0,-59,7.273
-1,-9,7.274
-5,26,7.275
-17,170,7.276
-24,498,7.277
-22,787,7.278
-13,660,7.279
-6,72,7.28
-6,-572,7.281
-7,-865,7.282
-3,-777,7.283
7,-502,7.284
16,-158,7.285
22,148,7.286
27,260,7.287
29,184,7.288
22,191,7.289
11,419,7.29
1,605,7.291
-4,484,7.292
-9,215,7.293
-19,26,7.294
-22,-93,7.295
-22,-265,7.296
-14,-382,7.297
-4,-288,7.298
9,-155,7.299
21,-204,7.3
28,-300,7.301
24,-198,7.302
14,23,7.303
3,144,7.304
-3,216,7.305
-4,392,7.306
-3,554,7.307
-5,472,7.308
-9,183,7.309
-13,-85,7.31
-9,-241,7.311
-2,-334,7.312
3,-363,7.313
0,-305,7.314
-4,-214,7.315
-9,-136,7.316
-12,-44,7.317
-9,67,7.318
-2,112,7.319
3,73,7.32
0,48,7.321
-6,82,7.322
-7,103,7.323
0,71,7.324
4,47,7.325
3,60,7.326
4,53,7.327
11,17,7.328
18,29,7.329
18,145,7.33
15,320,7.331
15,445,7.332
18,412,7.333
17,152,7.334
14,-229,7.335
10,-503,7.336
4,-545,7.337
-1,-438,7.338
-1,-305,7.339
2,-153,7.34
4,-4,7.341
2,37,7.342
2,-44,7.343
5,-90,7.344
6,2,7.345
3,125,7.346
4,162,7.347
12,179,7.348
16,269,7.349
9,384,7.35
-1,439,7.351
-6,441,7.352
-6,383,7.353
-11,150,7.354
-15,-243,7.355
-14,-565,7.356
-5,-633,7.357
7,-548,7.358
19,-495,7.359
22,-459,7.36
17,-326,7.361
7,-123,7.362
9,68,7.363
16,242,7.364
15,386,7.365
3,384,7.366
-8,224,7.367
-11,101,7.368
-15,135,7.369
-20,168,7.37
-22,37,7.371
-16,-150,7.372
-9,-201,7.373
-7,-135,7.374
-10,-104,7.375
-14,-148,7.376
-12,-167,7.377
0,-112,7.378
20,-41,7.379
35,13,7.38
35,81,7.381
27,167,7.382
21,257,7.383
20,341,7.384
16,389,7.385
7,333,7.386
0,167,7.387
-4,4,7.388
-4,-19,7.389
-1,83,7.39
3,180,7.391
6,174,7.392
5,61,7.393
5,-186,7.394
5,-511,7.395
-3,-718,7.396
-18,-615,7.397
-24,-256,7.398
-15,94,7.399
0,253,7.4
3,236,7.401
-1,110,7.402
-1,-69,7.403
7,-197,7.404
13,-185,7.405
12,-75,7.406
9,24,7.407
7,92,7.408
2,175,7.409
-3,264,7.41
-5,314,7.411
-1,311,7.412
5,255,7.413
5,124,7.414
0,-29,7.415
-6,-111,7.416
-16,-114,7.417
-19,-131,7.418
-7,-206,7.419
11,-268,7.42
18,-246,7.421
12,-149,7.422
4,-11,7.423
2,129,7.424
2,215,7.425
-3,214,7.426
-3,176,7.427
3,170,7.428
9,169,7.429
7,82,7.43
4,-96,7.431
5,-259,7.432
12,-301,7.433
15,-219,7.434
19,-86,7.435
22,18,7.436
19,78,7.437
15,130,7.438
15,176,7.439
20,196,7.44
18,209,7.441
6,233,7.442
-4,181,7.443
-6,-63,7.444
-5,-438,7.445
-12,-689,7.446
-19,-634,7.447
-22,-320,7.448
-21,107,7.449
-18,499,7.45
-11,671,7.451
0,501,7.452
10,133,7.453
12,-222,7.454
6,-422,7.455
0,-490,7.456
-4,-423,7.457
-5,-167,7.458
-1,137,7.459
6,251,7.46
3,185,7.461
-8,160,7.462
-16,225,7.463
-15,183,7.464
-9,-41,7.465
-6,-255,7.466
-5,-304,7.467
1,-249,7.468
12,-175,7.469
20,-61,7.47
28,89,7.471
37,178,7.472
43,182,7.473
39,200,7.474
32,297,7.475
24,407,7.476
16,447,7.477
5,401,7.478
1,263,7.479
4,38,7.48
1,-196,7.481
-11,-332,7.482
-24,-368,7.483
-24,-376,7.484
-17,-375,7.485
-15,-336,7.486
-18,-275,7.487
-16,-226,7.488
-2,-159,7.489
8,-45,7.49
3,69,7.491
-16,123,7.492
-31,137,7.493
-34,154,7.494
-23,191,7.495
-14,234,7.496
-11,292,7.497
-1,358,7.498
24,347,7.499
48,203,7.5
52,-10,7.501
44,-177,7.502
37,-256,7.503
33,-234,7.504
26,-56,7.505
18,272,7.506
13,555,7.507
4,537,7.508
-9,199,7.509
-19,-220,7.51
-23,-501,7.511
-30,-629,7.512
-42,-665,7.513
-45,-584,7.514
-29,-352,7.515
-10,-67,7.516
-8,104,7.517
-9,140,7.518
11,149,7.519
39,183,7.52
43,173,7.521
19,92,7.522
0,35,7.523
8,69,7.524
24,125,7.525
25,116,7.526
16,79,7.527
11,74,7.528
15,44,7.529
17,-76,7.53
9,-206,7.531
-2,-217,7.532
-10,-128,7.533
-19,-37,7.534
-26,24,7.535
-28,97,7.536
-22,163,7.537
-10,176,7.538
-3,168,7.539
0,201,7.54
2,222,7.541
7,119,7.542
14,-69,7.543
19,-178,7.544
15,-150,7.545
5,-117,7.546
5,-167,7.547
16,-201,7.548
26,-89,7.549
32,109,7.55
32,239,7.551
30,275,7.552
25,303,7.553
17,315,7.554
9,199,7.555
2,-63,7.556
-1,-340,7.557
-5,-529,7.558
-8,-650,7.559
-15,-702,7.56
-21,-623,7.561
-21,-413,7.562
-13,-147,7.563
-4,124,7.564
-4,353,7.565
-8,427,7.566
-8,312,7.567
-1,182,7.568
0,214,7.569
-7,326,7.57
-16,321,7.571
-15,202,7.572
-8,130,7.573
-6,132,7.574
-13,125,7.575
-22,87,7.576
-23,84,7.577
-11,99,7.578
19,24,7.579
53,-133,7.58
69,-241,7.581
59,-208,7.582
36,-71,7.583
16,98,7.584
1,250,7.585
-14,335,7.586
-28,310,7.587
-32,188,7.588
-25,5,7.589
-18,-201,7.59
-10,-360,7.591
-1,-384,7.592
9,-287,7.593
10,-182,7.594
7,-150,7.595
6,-135,7.596
7,-52,7.597
6,36,7.598
8,-3,7.599
15,-156,7.6
18,-269,7.601
11,-242,7.602
0,-125,7.603
0,15,7.604
7,156,7.605
7,261,7.606
-6,283,7.607
-16,255,7.608
-14,281,7.609
-5,371,7.61
-3,424,7.611
-3,406,7.612
0,388,7.613
8,357,7.614
11,159,7.615
5,-292,7.616
-2,-803,7.617
-6,-1065,7.618
-4,-975,7.619
-4,-662,7.62
-1,-308,7.621
7,-39,7.622
18,86,7.623
23,111,7.624
19,134,7.625
13,188,7.626
14,218,7.627
12,195,7.628
3,169,7.629
-5,166,7.63
-5,146,7.631
-1,101,7.632
0,89,7.633
-7,126,7.634
-13,148,7.635
-12,98,7.636
-14,9,7.637
-17,-34,7.638
-16,-13,7.639
-9,39,7.64
5,95,7.641
21,129,7.642
28,119,7.643
25,85,7.644
19,92,7.645
20,183,7.646
24,317,7.647
19,396,7.648
6,363,7.649
3,246,7.65
14,120,7.651
15,12,7.652
3,-121,7.653
-11,-351,7.654
-13,-608,7.655
-8,-747,7.656
-15,-700,7.657
-28,-535,7.658
-24,-365,7.659
-12,-230,7.66
-11,-101,7.661
-21,65,7.662
-18,284,7.663
-2,489,7.664
5,539,7.665
4,362,7.666
17,63,7.667
40,-167,7.668
44,-263,7.669
19,-299,7.67
-5,-314,7.671
-6,-266,7.672
-2,-157,7.673
-8,-57,7.674
-9,-20,7.675
-7,6,7.676
5,72,7.677
15,142,7.678
14,188,7.679
12,271,7.68
10,404,7.681
7,447,7.682
0,293,7.683
-5,45,7.684
-4,-119,7.685
-3,-177,7.686
-7,-218,7.687
-7,-252,7.688
2,-216,7.689
11,-118,7.69
15,-20,7.691
19,58,7.692
24,130,7.693
27,182,7.694
13,199,7.695
-4,204,7.696
-15,171,7.697
-17,121,7.698
-6,19,7.699
8,-51,7.7
7,-27,7.701
-9,-3,7.702
-20,14,7.703
-7,49,7.704
19,137,7.705
37,217,7.706
45,276,7.707
61,283,7.708
85,132,7.709
91,-14,7.71
64,-142,7.711
19,-263,7.712
-18,-360,7.713
-45,-460,7.714
-71,-547,7.715
-104,-567,7.716
-127,-535,7.717
-124,-450,7.718
-95,-284,7.719
-63,-62,7.72
-39,108,7.721
-16,166,7.722
8,171,7.723
21,201,7.724
24,246,7.725
34,275,7.726
49,321,7.727
42,438,7.728
14,592,7.729
2,650,7.73
22,504,7.731
39,187,7.732
31,-122,7.733
13,-315,7.734
11,-349,7.735
20,-289,7.736
24,-228,7.737
22,-247,7.738
26,-361,7.739
33,-452,7.74
28,-374,7.741
17,-152,7.742
14,9,7.743
16,7,7.744
16,-23,7.745
16,46,7.746
15,144,7.747
11,153,7.748
1,111,7.749
-6,108,7.75
-5,124,7.751
2,121,7.752
9,151,7.753
6,245,7.754
-4,314,7.755
-18,267,7.756
-25,182,7.757
-22,179,7.758
-12,190,7.759
-7,57,7.76
-8,-205,7.761
-5,-399,7.762
7,-404,7.763
22,-286,7.764
31,-162,7.765
31,-80,7.766
24,-59,7.767
16,-104,7.768
8,-150,7.769
2,-114,7.77
-7,-15,7.771
-22,47,7.772
-31,45,7.773
-30,43,7.774
-19,90,7.775
-15,137,7.776
-16,97,7.777
-13,-41,7.778
-5,-219,7.779
-2,-341,7.78
-4,-333,7.781
-9,-195,7.782
-9,7,7.783
-7,194,7.784
-4,300,7.785
2,285,7.786
12,192,7.787
17,123,7.788
12,123,7.789
2,124,7.79
1,76,7.791
2,61,7.792
0,154,7.793
-11,287,7.794
-23,298,7.795
-19,145,7.796
3,-57,7.797
27,-182,7.798
34,-201,7.799
28,-117,7.8
29,43,7.801
44,193,7.802
54,213,7.803
41,84,7.804
7,-102,7.805
-25,-246,7.806
-36,-335,7.807
-26,-386,7.808
-12,-379,7.809
-8,-280,7.81
-19,-107,7.811
-29,68,7.812
-26,183,7.813
-5,252,7.814
19,300,7.815
26,314,7.816
20,264,7.817
13,189,7.818
10,183,7.819
1,265,7.82
-13,333,7.821
-12,263,7.822
5,39,7.823
19,-266,7.824
14,-567,7.825
1,-774,7.826
0,-807,7.827
7,-649,7.828
6,-367,7.829
-3,-63,7.83
-11,187,7.831
-10,345,7.832
-4,405,7.833
0,410,7.834
3,401,7.835
2,337,7.836
2,111,7.837
9,-272,7.838
19,-629,7.839
23,-756,7.84
24,-628,7.841
29,-377,7.842
36,-126,7.843
35,80,7.844
23,229,7.845
3,312,7.846
-12,352,7.847
-16,377,7.848
-17,368,7.849
-22,303,7.85
-26,222,7.851
-23,173,7.852
-16,146,7.853
-15,103,7.854
-8,56,7.855
8,40,7.856
20,57,7.857
10,111,7.858
-5,199,7.859
-1,254,7.86
16,158,7.861
20,-87,7.862
12,-312,7.863
13,-376,7.864
19,-325,7.865
5,-269,7.866
-28,-216,7.867
-50,-129,7.868
-49,-56,7.869
-37,-57,7.87
-17,-78,7.871
13,-25,7.872
41,71,7.873
44,129,7.874
25,146,7.875
5,192,7.876
-4,261,7.877
-4,278,7.878
-2,227,7.879
-3,174,7.88
-10,150,7.881
-19,118,7.882
-7,65,7.883
23,33,7.884
41,49,7.885
32,85,7.886
23,88,7.887
33,24,7.888
48,-89,7.889
41,-193,7.89
18,-246,7.891
-4,-260,7.892
-18,-232,7.893
-25,-115,7.894
-26,52,7.895
-19,86,7.896
-13,-143,7.897
-11,-487,7.898
1,-680,7.899
28,-651,7.9
53,-513,7.901
62,-327,7.902
58,-75,7.903
43,178,7.904
15,305,7.905
-23,296,7.906
-52,265,7.907
-62,260,7.908
-63,219,7.909
-74,109,7.91
-92,0,7.911
-87,-42,7.912
-43,-17,7.913
24,65,7.914
76,206,7.915
82,354,7.916
58,400,7.917
40,314,7.918
41,175,7.919
40,89,7.92
4,67,7.921
-58,59,7.922
-101,55,7.923
-89,78,7.924
-40,85,7.925
2,-7,7.926
23,-171,7.927
33,-273,7.928
40,-253,7.929
43,-180,7.93
39,-126,7.931
40,-65,7.932
47,16,7.933
43,71,7.934
20,56,7.935
-18,7,7.936
-46,-43,7.937
-52,-108,7.938
-38,-186,7.939
-16,-216,7.94
3,-162,7.941
19,-55,7.942
25,51,7.943
21,123,7.944
7,152,7.945
-3,158,7.946
-1,167,7.947
5,160,7.948
9,104,7.949
7,17,7.95
4,-34,7.951
2,-47,7.952
5,-72,7.953
12,-96,7.954
18,-35,7.955
17,127,7.956
14,269,7.957
15,290,7.958
25,222,7.959
40,133,7.96
45,-23,7.961
28,-332,7.962
-1,-718,7.963
-20,-943,7.964
-12,-847,7.965
17,-517,7.966
49,-157,7.967
62,115,7.968
56,285,7.969
37,371,7.97
13,405,7.971
-18,437,7.972
-59,478,7.973
-112,488,7.974
-147,449,7.975
-137,362,7.976
-90,195,7.977
-39,-68,7.978
-10,-315,7.979
8,-369,7.98
24,-228,7.981
40,-62,7.982
51,14,7.983
60,37,7.984
58,30,7.985
43,-51,7.986
21,-164,7.987
10,-166,7.988
2,-30,7.989
-15,86,7.99
-33,74,7.991
-30,27,7.992
-7,60,7.993
12,138,7.994
12,140,7.995
13,41,7.996
14,-61,7.997
16,-82,7.998
21,-41,7.999
25,14,8.0
26,74,8.001
25,125,8.002
11,120,8.003
1,35,8.004
3,-61,8.005
3,-69,8.006
-5,23,8.007
-10,122,8.008
-6,144,8.009
-2,117,8.01
-3,119,8.011
-2,159,8.012
5,161,8.013
12,34,8.014
10,-176,8.015
1,-353,8.016
-4,-428,8.017
-5,-467,8.018
-4,-395,8.019
8,-327,8.02
28,-276,8.021
45,-232,8.022
48,-211,8.023
27,-162,8.024
-11,-32,8.025
-47,76,8.026
-57,121,8.027
-43,155,8.028
-29,155,8.029
-31,162,8.03
-34,192,8.031
-13,222,8.032
23,246,8.033
40,264,8.034
22,233,8.035
-9,158,8.036
-19,86,8.037
-11,67,8.038
-5,68,8.039
-15,22,8.04
-20,-74,8.041
-6,-161,8.042
21,-184,8.043
38,-136,8.044
35,-35,8.045
27,96,8.046
25,223,8.047
27,297,8.048
22,307,8.049
12,276,8.05
3,222,8.051
-1,137,8.052
-6,8,8.053
-13,-186,8.054
-13,-385,8.055
-8,-503,8.056
-6,-496,8.057
-7,-382,8.058
-4,-216,8.059
-1,-44,8.06
-8,89,8.061
-20,161,8.062
-16,185,8.063
10,182,8.064
36,143,8.065
44,72,8.066
40,45,8.067
33,123,8.068
33,250,8.069
31,328,8.07
18,354,8.071
1,375,8.072
-8,363,8.073
-12,196,8.074
-19,-127,8.075
-31,-461,8.076
-38,-656,8.077
-27,-691,8.078
-4,-627,8.079
18,-490,8.08
29,-309,8.081
28,-138,8.082
18,3,8.083
5,134,8.084
-2,234,8.085
-3,227,8.086
-10,120,8.087
-24,43,8.088
-28,83,8.089
-15,170,8.09
-3,200,8.091
-4,173,8.092
-4,131,8.093
5,59,8.094
17,-26,8.095
15,-48,8.096
10,15,8.097
13,86,8.098
21,97,8.099
21,87,8.1
15,92,8.101
11,73,8.102
10,31,8.103
7,48,8.104
3,146,8.105
2,204,8.106
2,165,8.107
-1,144,8.108
-5,210,8.109
-9,175,8.11
-13,-158,8.111
-16,-641,8.112
-11,-911,8.113
1,-853,8.114
18,-615,8.115
29,-355,8.116
31,-78,8.117
21,194,8.118
5,344,8.119
-8,345,8.12
-12,313,8.121
-1,303,8.122
22,220,8.123
41,40,8.124
36,-99,8.125
7,-118,8.126
-25,-96,8.127
-44,-101,8.128
-55,-74,8.129
-68,28,8.13
-73,132,8.131
-53,168,8.132
-13,167,8.133
18,163,8.134
16,151,8.135
-5,153,8.136
-12,229,8.137
8,361,8.138
32,419,8.139
38,337,8.14
33,198,8.141
30,102,8.142
33,9,8.143
28,-166,8.144
18,-405,8.145
13,-595,8.146
14,-657,8.147
15,-596,8.148
13,-451,8.149
8,-256,8.15
4,-59,8.151
-1,91,8.152
-8,163,8.153
-14,167,8.154
-17,128,8.155
-22,80,8.156
-26,51,8.157
-24,51,8.158
-15,59,8.159
-4,61,8.16
1,66,8.161
6,86,8.162
17,128,8.163
26,190,8.164
25,266,8.165
20,322,8.166
21,318,8.167
27,231,8.168
28,93,8.169
24,-15,8.17
24,-28,8.171
28,40,8.172
27,107,8.173
17,110,8.174
5,74,8.175
-2,62,8.176
-7,60,8.177
-12,-24,8.178
-10,-231,8.179
0,-458,8.18
5,-573,8.181
-2,-572,8.182
-13,-550,8.183
-17,-557,8.184
-16,-551,8.185
-19,-486,8.186
-24,-357,8.187
-20,-165,8.188
-7,51,8.189
4,216,8.19
8,288,8.191
3,339,8.192
-2,449,8.193
-12,594,8.194
-24,656,8.195
-37,604,8.196
-37,541,8.197
-19,533,8.198
5,477,8.199
15,235,8.2
12,-163,8.201
7,-538,8.202
14,-711,8.203
22,-641,8.204
22,-408,8.205
15,-151,8.206
8,5,8.207
5,4,8.208
0,-95,8.209
-6,-169,8.21
-7,-155,8.211
2,-86,8.212
16,-23,8.213
22,31,8.214
21,89,8.215
14,152,8.216
6,218,8.217
-2,293,8.218
-5,338,8.219
-1,294,8.22
3,169,8.221
-1,35,8.222
-9,-56,8.223
-6,-116,8.224
4,-148,8.225
14,-118,8.226
18,-39,8.227
24,26,8.228
33,68,8.229
34,143,8.23
27,262,8.231
21,359,8.232
21,412,8.233
16,453,8.234
4,447,8.235
-7,288,8.236
-15,-15,8.237
-19,-292,8.238
-19,-464,8.239
-15,-615,8.24
-10,-765,8.241
-13,-769,8.242
-19,-582,8.243
-18,-401,8.244
-12,-371,8.245
-10,-360,8.246
-14,-206,8.247
-12,11,8.248
-9,124,8.249
-14,151,8.25
-22,197,8.251
-18,242,8.252
0,222,8.253
16,178,8.254
20,220,8.255
20,368,8.256
26,555,8.257
37,725,8.258
49,793,8.259
57,689,8.26
54,478,8.261
34,305,8.262
9,190,8.263
-5,9,8.264
-5,-263,8.265
-5,-518,8.266
-8,-704,8.267
-11,-888,8.268
-10,-1054,8.269
-8,-1066,8.27
-3,-878,8.271
1,-594,8.272
2,-309,8.273
-3,-7,8.274
-9,256,8.275
-17,450,8.276
-25,434,8.277
-30,402,8.278
-28,324,8.279
-16,245,8.28
-1,160,8.281
5,102,8.282
5,127,8.283
7,139,8.284
12,107,8.285
14,100,8.286
11,172,8.287
12,226,8.288
19,226,8.289
22,229,8.29
13,245,8.291
-3,234,8.292
-12,139,8.293
-9,25,8.294
3,-146,8.295
10,-301,8.296
7,-396,8.297
-1,-380,8.298
-7,-274,8.299
-10,-167,8.3
-9,-119,8.301
-4,-93,8.302
6,-38,8.303
13,33,8.304
10,95,8.305
-2,156,8.306
-6,196,8.307
-6,147,8.308
-4,11,8.309
-3,-90,8.31
0,-60,8.311
8,51,8.312
13,132,8.313
11,155,8.314
8,146,8.315
10,132,8.316
12,119,8.317
12,118,8.318
11,111,8.319
10,65,8.32
6,-10,8.321
4,-80,8.322
3,-146,8.323
0,-235,8.324
-6,-325,8.325
-11,-363,8.326
-8,-347,8.327
-2,-307,8.328
1,-237,8.329
4,-119,8.33
8,15,8.331
14,105,8.332
17,150,8.333
12,195,8.334
4,252,8.335
-2,287,8.336
-4,282,8.337
-5,266,8.338
-3,250,8.339
0,217,8.34
0,146,8.341
-3,49,8.342
-5,-55,8.343
-1,-163,8.344
1,-263,8.345
-1,-304,8.346
-5,-235,8.347
0,-63,8.348
11,121,8.349
18,194,8.35
14,92,8.351
7,-123,8.352
2,-290,8.353
-2,-288,8.354
-5,-153,8.355
-9,-40,8.356
-11,3,8.357
-11,48,8.358
-5,99,8.359
6,121,8.36
17,55,8.361
21,-4,8.362
22,-46,8.363
25,-49,8.364
25,66,8.365
19,161,8.366
10,194,8.367
0,179,8.368
-4,19,8.369
-5,-112,8.37
-5,-157,8.371
-6,-182,8.372
-6,-142,8.373
-4,-101,8.374
-3,-28,8.375
-5,104,8.376
-9,232,8.377
-7,291,8.378
5,227,8.379
18,-5,8.38
17,-327,8.381
8,-502,8.382
0,-381,8.383
1,-97,8.384
3,116,8.385
0,193,8.386
-2,196,8.387
-3,139,8.388
-4,32,8.389
-6,-49,8.39
-6,-62,8.391
-4,-75,8.392
-2,-127,8.393
-4,-158,8.394
-1,-112,8.395
2,-48,8.396
1,-25,8.397
1,20,8.398
5,138,8.399
7,251,8.4
4,262,8.401
1,199,8.402
1,143,8.403
0,91,8.404
-2,1,8.405
-5,-101,8.406
-3,-146,8.407
0,-115,8.408
5,-50,8.409
10,10,8.41
9,57,8.411
7,96,8.412
2,127,8.413
-2,195,8.414
-3,227,8.415
0,236,8.416
2,173,8.417
0,106,8.418
0,18,8.419
5,-57,8.42
7,-103,8.421
0,-175,8.422
-5,-325,8.423
-8,-439,8.424
-7,-444,8.425
-8,-407,8.426
-6,-249,8.427
0,-101,8.428
8,13,8.429
18,112,8.43
28,155,8.431
34,186,8.432
30,178,8.433
17,328,8.434
9,378,8.435
6,392,8.436
0,294,8.437
-5,187,8.438
-2,50,8.439
5,-71,8.44
5,-143,8.441
-2,-256,8.442
-4,-493,8.443
0,-672,8.444
5,-679,8.445
5,-622,8.446
5,-372,8.447
8,-139,8.448
9,42,8.449
6,197,8.45
7,265,8.451
7,313,8.452
5,301,8.453
-2,274,8.454
-4,208,8.455
-5,151,8.456
-5,30,8.457
-2,-175,8.458
2,-344,8.459
6,-336,8.46
6,-203,8.461
4,-102,8.462
5,-66,8.463
5,-11,8.464
0,82,8.465
-6,151,8.466
-9,186,8.467
-7,236,8.468
-5,293,8.469
-3,303,8.47
-4,259,8.471
-4,194,8.472
-4,110,8.473
-2,-7,8.474
-1,-102,8.475
-4,-112,8.476
-10,-61,8.477
-12,-11,8.478
-3,17,8.479
9,35,8.48
13,40,8.481
14,43,8.482
16,79,8.483
19,156,8.484
17,222,8.485
14,220,8.486
12,140,8.487
9,9,8.488
0,-129,8.489
-8,-233,8.49
-8,-291,8.491
-4,-324,8.492
-5,-337,8.493
-11,76,8.494
-16,131,8.495
-17,164,8.496
-16,129,8.497
-10,91,8.498
2,43,8.499
14,9,8.5
15,16,8.501
8,9,8.502
7,-47,8.503
13,-128,8.504
14,-288,8.505
5,-405,8.506
-2,-390,8.507
-2,-363,8.508
1,-308,8.509
0,-259,8.51
-2,-228,8.511
2,-189,8.512
7,-126,8.513
6,136,8.514
4,210,8.515
8,254,8.516
15,207,8.517
20,156,8.518
22,93,8.519
21,47,8.52
16,57,8.521
9,47,8.522
5,-27,8.523
5,-137,8.524
6,-351,8.525
4,-507,8.526
1,-486,8.527
1,-451,8.528
1,-377,8.529
-1,-312,8.53
-5,-270,8.531
-7,-218,8.532
-7,-134,8.533
-10,-31,8.534
-13,94,8.535
-15,107,8.536
-13,35,8.537
-8,5,8.538
-4,56,8.539
4,121,8.54
11,151,8.541
12,168,8.542
6,192,8.543
0,217,8.544
0,246,8.545
1,279,8.546
5,283,8.547
12,218,8.548
18,120,8.549
22,57,8.55
21,45,8.551
18,59,8.552
16,98,8.553
8,174,8.554
-2,235,8.555
-14,210,8.556
-22,94,8.557
-24,-40,8.558
-21,-160,8.559
-15,-278,8.56
-9,-380,8.561
-6,-404,8.562
-4,-326,8.563
-2,-202,8.564
-2,-119,8.565
-8,-85,8.566
-12,-42,8.567
-9,49,8.568
0,148,8.569
11,194,8.57
20,176,8.571
24,142,8.572
23,133,8.573
15,145,8.574
3,156,8.575
-3,145,8.576
0,107,8.577
6,61,8.578
13,13,8.579
18,-32,8.58
18,-55,8.581
13,-28,8.582
7,62,8.583
3,191,8.584
2,280,8.585
2,196,8.586
2,-132,8.587
3,-576,8.588
3,-876,8.589
0,-906,8.59
-2,-746,8.591
-3,-524,8.592
-2,-301,8.593
-5,-109,8.594
-9,2,8.595
-12,113,8.596
-10,221,8.597
-6,307,8.598
1,328,8.599
6,340,8.6
3,320,8.601
0,294,8.602
0,255,8.603
1,214,8.604
5,165,8.605
9,129,8.606
13,133,8.607
15,144,8.608
12,179,8.609
7,207,8.61
-1,213,8.611
-5,215,8.612
4,205,8.613
13,199,8.614
17,174,8.615
13,57,8.616
3,-114,8.617
-5,-248,8.618
-7,-296,8.619
-1,-267,8.62
4,-210,8.621
6,-163,8.622
11,-119,8.623
16,-50,8.624
13,32,8.625
6,83,8.626
3,96,8.627
2,116,8.628
-1,138,8.629
-9,61,8.63
-10,-161,8.631
-2,-413,8.632
9,-529,8.633
15,-473,8.634
18,-319,8.635
18,-121,8.636
15,97,8.637
8,295,8.638
3,403,8.639
0,423,8.64
-4,397,8.641
-11,283,8.642
-17,-1,8.643
-16,-407,8.644
-16,-738,8.645
-16,-841,8.646
-18,-729,8.647
-18,-491,8.648
-15,-200,8.649
-7,76,8.65
1,251,8.651
6,318,8.652
7,352,8.653
3,409,8.654
0,439,8.655
-2,381,8.656
-5,291,8.657
-3,266,8.658
3,310,8.659
13,347,8.66
16,332,8.661
16,267,8.662
15,152,8.663
15,3,8.664
16,-111,8.665
15,-142,8.666
13,-113,8.667
12,-91,8.668
14,-105,8.669
18,-136,8.67
19,-160,8.671
15,-165,8.672
8,-145,8.673
3,-126,8.674
2,-118,8.675
1,-100,8.676
-2,-56,8.677
-2,-23,8.678
2,-23,8.679
6,-17,8.68
4,3,8.681
-1,27,8.682
-3,59,8.683
-2,62,8.684
-5,-27,8.685
-12,-117,8.686
-16,-207,8.687
-16,-249,8.688
-15,-146,8.689
-16,-55,8.69
-13,1,8.691
-5,50,8.692
1,82,8.693
5,89,8.694
10,-4,8.695
11,-63,8.696
7,-10,8.697
0,84,8.698
-1,129,8.699
8,143,8.7
16,168,8.701
18,177,8.702
14,139,8.703
10,85,8.704
5,29,8.705
-2,-58,8.706
-7,-172,8.707
-5,-239,8.708
-1,-206,8.709
0,-102,8.71
0,8,8.711
0,64,8.712
3,49,8.713
5,-15,8.714
3,-53,8.715
-2,-7,8.716
-5,116,8.717
-6,266,8.718
-4,365,8.719
0,353,8.72
0,245,8.721
-3,126,8.722
-3,41,8.723
3,-48,8.724
11,-170,8.725
15,-273,8.726
17,-312,8.727
22,-322,8.728
22,-319,8.729
17,-244,8.73
11,-73,8.731
6,91,8.732
4,144,8.733
0,101,8.734
-3,40,8.735
-7,-2,8.736
-8,-28,8.737
-7,-24,8.738
-4,17,8.739
0,62,8.74
3,92,8.741
3,133,8.742
7,195,8.743
13,237,8.744
15,233,8.745
9,208,8.746
-1,178,8.747
-5,108,8.748
-4,-15,8.749
-3,-145,8.75
-2,-233,8.751
-1,-273,8.752
2,-276,8.753
5,-224,8.754
7,-102,8.755
2,66,8.756
-3,199,8.757
0,225,8.758
14,130,8.759
26,-39,8.76
23,-249,8.761
8,-478,8.762
-3,-645,8.763
-2,-619,8.764
1,-384,8.765
0,-96,8.766
-1,90,8.767
1,177,8.768
1,236,8.769
-2,264,8.77
-7,246,8.771
-12,229,8.772
-14,256,8.773
-19,290,8.774
-20,262,8.775
-20,169,8.776
-15,53,8.777
-5,-44,8.778
7,-88,8.779
16,-44,8.78
15,62,8.781
8,147,8.782
4,153,8.783
8,112,8.784
12,79,8.785
12,70,8.786
12,69,8.787
16,46,8.788
20,-41,8.789
19,-196,8.79
12,-334,8.791
5,-353,8.792
2,-260,8.793
2,-136,8.794
2,-57,8.795
2,-17,8.796
2,18,8.797
0,60,8.798
-2,94,8.799
0,122,8.8
1,140,8.801
-2,138,8.802
-4,108,8.803
-4,59,8.804
0,11,8.805
0,-30,8.806
-1,-61,8.807
-3,-77,8.808
-2,-67,8.809
-2,-26,8.81
-3,25,8.811
-7,46,8.812
-12,28,8.813
-16,-12,8.814
-10,-31,8.815
0,-22,8.816
12,-6,8.817
20,20,8.818
30,76,8.819
37,161,8.82
34,233,8.821
19,256,8.822
7,230,8.823
3,183,8.824
2,123,8.825
-2,23,8.826
-5,-136,8.827
-4,-330,8.828
-2,-476,8.829
-3,-501,8.83
-9,-411,8.831
-16,-295,8.832
-17,-233,8.833
-11,-226,8.834
3,-205,8.835
15,-115,8.836
16,41,8.837
15,236,8.838
23,419,8.839
28,523,8.84
18,504,8.841
0,370,8.842
-10,174,8.843
-10,-40,8.844
-9,-241,8.845
-10,-374,8.846
-7,-398,8.847
-5,-333,8.848
-8,-236,8.849
-15,-125,8.85
-12,13,8.851
-2,153,8.852
3,226,8.853
4,208,8.854
7,149,8.855
11,121,8.856
10,140,8.857
3,180,8.858
1,221,8.859
5,245,8.86
5,218,8.861
0,121,8.862
-6,-18,8.863
-6,-149,8.864
-5,-242,8.865
-4,-281,8.866
0,-248,8.867
8,-150,8.868
12,-38,8.869
10,48,8.87
5,116,8.871
0,158,8.872
-6,123,8.873
-13,-26,8.874
-13,-196,8.875
-8,-263,8.876
-1,-211,8.877
5,-104,8.878
15,23,8.879
22,173,8.88
20,310,8.881
9,362,8.882
-1,322,8.883
-2,228,8.884
-2,88,8.885
-3,-99,8.886
-2,-283,8.887
5,-385,8.888
15,-394,8.889
17,-345,8.89
14,-247,8.891
10,-88,8.892
6,92,8.893
-1,245,8.894
-6,319,8.895
-9,291,8.896
-7,171,8.897
-3,22,8.898
6,-71,8.899
12,-74,8.9
10,-29,8.901
10,8,8.902
16,29,8.903
22,35,8.904
23,24,8.905
24,-10,8.906
21,-43,8.907
17,-38,8.908
15,29,8.909
9,136,8.91
-7,219,8.911
-19,236,8.912
-19,198,8.913
-17,102,8.914
-9,-53,8.915
-6,-213,8.916
-6,-385,8.917
-5,-498,8.918
-4,-434,8.919
-3,-338,8.92
-6,-148,8.921
-12,40,8.922
-15,226,8.923
-15,356,8.924
-11,314,8.925
-6,250,8.926
3,119,8.927
14,2,8.928
19,-73,8.929
18,-119,8.93
17,-77,8.931
18,-14,8.932
16,110,8.933
8,220,8.934
0,248,8.935
-6,186,8.936
-12,35,8.937
-15,-184,8.938
-11,-408,8.939
2,-533,8.94
10,-491,8.941
5,-321,8.942
-1,-135,8.943
-1,3,8.944
3,112,8.945
4,212,8.946
5,271,8.947
9,262,8.948
11,218,8.949
7,177,8.95
2,127,8.951
0,61,8.952
3,23,8.953
4,42,8.954
5,99,8.955
5,138,8.956
-1,114,8.957
-6,20,8.958
-7,-116,8.959
0,-202,8.96
9,-134,8.961
10,56,8.962
5,219,8.963
1,232,8.964
-1,113,8.965
-4,-61,8.966
-9,-236,8.967
-9,-362,8.968
-3,-374,8.969
4,-262,8.97
10,-102,8.971
12,33,8.972
10,140,8.973
7,249,8.974
9,330,8.975
10,333,8.976
8,276,8.977
7,244,8.978
7,278,8.979
8,320,8.98
10,273,8.981
10,122,8.982
2,-49,8.983
-4,-180,8.984
1,-307,8.985
6,-467,8.986
7,-586,8.987
6,-567,8.988
0,-443,8.989
-4,-331,8.99
-4,-257,8.991
-2,-159,8.992
4,-38,8.993
11,47,8.994
8,75,8.995
-2,97,8.996
-9,136,8.997
-11,160,8.998
-4,159,8.999
2,156,9.0
3,127,9.001
-2,40,9.002
-3,-69,9.003
1,-113,9.004
5,-57,9.005
2,79,9.006
-2,266,9.007
0,424,9.008
9,435,9.009
17,272,9.01
19,74,9.011
17,-14,9.012
12,-7,9.013
5,-17,9.014
-2,-78,9.015
-8,-147,9.016
-9,-193,9.017
-7,-213,9.018
-1,-205,9.019
7,-158,9.02
12,-78,9.021
8,21,9.022
-1,113,9.023
-4,142,9.024
-6,82,9.025
-9,0,9.026
-11,-2,9.027
-9,78,9.028
-6,142,9.029
-8,132,9.03
-11,74,9.031
-11,-6,9.032
-5,-105,9.033
0,-217,9.034
1,-277,9.035
-3,-247,9.036
-6,-147,9.037
-7,-11,9.038
3,125,9.039
19,215,9.04
26,230,9.041
20,203,9.042
11,198,9.043
10,234,9.044
16,267,9.045
18,239,9.046
16,131,9.047
16,-24,9.048
17,-169,9.049
16,-269,9.05
9,-320,9.051
2,-337,9.052
0,-321,9.053
-4,-278,9.054
-8,-238,9.055
-15,-246,9.056
-18,-295,9.057
-20,-313,9.058
-17,-243,9.059
-8,-109,9.06
4,19,9.061
8,97,9.062
3,144,9.063
-5,203,9.064
-10,298,9.065
-12,413,9.066
-9,491,9.067
-3,451,9.068
6,266,9.069
12,27,9.07
14,-115,9.071
14,-100,9.072
19,8,9.073
24,135,9.074
24,225,9.075
16,231,9.076
2,108,9.077
-10,-107,9.078
-11,-301,9.079
-6,-386,9.08
-3,-369,9.081
-5,-298,9.082
-9,-205,9.083
-6,-117,9.084
0,-55,9.085
5,-13,9.086
4,38,9.087
4,126,9.088
6,254,9.089
12,392,9.09
13,470,9.091
9,411,9.092
3,244,9.093
0,48,9.094
-2,-94,9.095
-7,-200,9.096
-15,-310,9.097
-18,-376,9.098
-5,-337,9.099
6,-224,9.1
14,-121,9.101
18,-43,9.102
11,48,9.103
6,142,9.104
13,171,9.105
17,146,9.106
9,159,9.107
2,267,9.108
-1,370,9.109
-4,303,9.11
-8,25,9.111
-11,-319,9.112
-13,-529,9.113
-13,-539,9.114
-8,-425,9.115
0,-294,9.116
7,-114,9.117
6,38,9.118
2,105,9.119
3,135,9.12
12,52,9.121
19,22,9.122
21,154,9.123
21,235,9.124
21,164,9.125
18,65,9.126
15,-118,9.127
11,-245,9.128
8,-202,9.129
4,-130,9.13
0,25,9.131
-3,153,9.132
-5,199,9.133
-13,213,9.134
-22,114,9.135
-30,53,9.136
-26,68,9.137
-14,112,9.138
2,144,9.139
13,163,9.14
14,132,9.141
7,1,9.142
2,-176,9.143
5,-268,9.144
12,-238,9.145
12,-174,9.146
6,-118,9.147
2,-16,9.148
2,141,9.149
4,273,9.15
3,321,9.151
3,314,9.152
3,279,9.153
2,183,9.154
-1,36,9.155
-6,-105,9.156
-10,-219,9.157
-10,-316,9.158
-5,-386,9.159
3,-379,9.16
7,-289,9.161
3,-168,9.162
-1,-54,9.163
0,45,9.164
2,107,9.165
4,106,9.166
4,66,9.167
7,40,9.168
13,31,9.169
19,19,9.17
24,18,9.171
29,57,9.172
31,116,9.173
24,170,9.174
12,230,9.175
-1,278,9.176
-10,221,9.177
-14,19,9.178
-13,-217,9.179
-9,-338,9.18
-10,-336,9.181
-14,-264,9.182
-12,-82,9.183
-2,233,9.184
8,481,9.185
13,408,9.186
17,56,9.187
21,-243,9.188
17,-296,9.189
2,-224,9.19
-6,-185,9.191
-6,-162,9.192
-3,-103,9.193
-13,-50,9.194
-26,-64,9.195
-36,-99,9.196
-37,-85,9.197
-34,-23,9.198
-19,39,9.199
-4,104,9.2
9,167,9.201
22,195,9.202
28,176,9.203
33,135,9.204
31,94,9.205
24,49,9.206
0,29,9.207
-18,63,9.208
-15,135,9.209
-10,201,9.21
2,241,9.211
16,229,9.212
32,125,9.213
46,-85,9.214
40,-289,9.215
31,-434,9.216
26,-402,9.217
16,-355,9.218
-3,-268,9.219
-19,-183,9.22
-24,-108,9.221
-20,-38,9.222
-15,17,9.223
-16,85,9.224
-20,191,9.225
-29,280,9.226
-31,315,9.227
-20,306,9.228
0,163,9.229
20,28,9.23
28,-77,9.231
25,-148,9.232
20,-114,9.233
16,-66,9.234
19,28,9.235
25,105,9.236
28,121,9.237
25,94,9.238
21,82,9.239
14,125,9.24
2,194,9.241
-5,210,9.242
-2,107,9.243
2,-108,9.244
0,-337,9.245
-4,-447,9.246
-2,-377,9.247
1,-190,9.248
0,-9,9.249
-6,70,9.25
-8,29,9.251
-6,-78,9.252
-10,-144,9.253
-16,-95,9.254
-16,57,9.255
-13,213,9.256
-14,284,9.257
-18,262,9.258
-15,181,9.259
-6,72,9.26
0,-24,9.261
5,-88,9.262
14,-130,9.263
26,-160,9.264
30,-141,9.265
23,-48,9.266
15,76,9.267
10,191,9.268
6,312,9.269
0,413,9.27
-4,372,9.271
-8,116,9.272
-12,-218,9.273
-16,-477,9.274
-20,-568,9.275
-26,-539,9.276
-31,-457,9.277
-29,-318,9.278
-17,-133,9.279
-1,39,9.28
8,140,9.281
8,173,9.282
8,174,9.283
10,176,9.284
16,189,9.285
19,205,9.286
19,217,9.287
16,218,9.288
16,205,9.289
21,180,9.29
28,152,9.291
30,123,9.292
30,103,9.293
28,100,9.294
25,108,9.295
15,68,9.296
1,-63,9.297
-8,-228,9.298
-12,-321,9.299
-12,-324,9.3
-15,-305,9.301
-18,-291,9.302
-18,-240,9.303
-16,-134,9.304
-12,-22,9.305
-6,62,9.306
-1,141,9.307
3,207,9.308
5,201,9.309
5,99,9.31
9,-24,9.311
11,-81,9.312
11,-68,9.313
9,-21,9.314
9,55,9.315
9,171,9.316
3,277,9.317
0,285,9.318
2,165,9.319
4,4,9.32
-3,-94,9.321
-13,-117,9.322
-13,-115,9.323
-5,-111,9.324
-2,-94,9.325
1,-93,9.326
16,-135,9.327
37,-180,9.328
48,-166,9.329
39,-96,9.33
23,0,9.331
10,144,9.332
0,314,9.333
-6,394,9.334
-7,274,9.335
-8,54,9.336
-13,-59,9.337
-17,-60,9.338
-8,-129,9.339
10,-308,9.34
16,-429,9.341
8,-400,9.342
-3,-324,9.343
-5,-270,9.344
-3,-143,9.345
0,108,9.346
1,329,9.347
3,378,9.348
1,320,9.349
-4,276,9.35
-5,229,9.351
0,109,9.352
10,-27,9.353
11,-83,9.354
3,-21,9.355
-9,110,9.356
-17,255,9.357
-18,361,9.358
-11,323,9.359
-4,98,9.36
-4,-198,9.361
-7,-403,9.362
-7,-468,9.363
-5,-413,9.364
-4,-250,9.365
-7,-45,9.366
-5,48,9.367
3,-36,9.368
13,-174,9.369
16,-195,9.37
16,-89,9.371
16,62,9.372
18,216,9.373
19,367,9.374
17,429,9.375
5,331,9.376
-9,132,9.377
-15,-40,9.378
-8,-155,9.379
3,-251,9.38
10,-323,9.381
11,-321,9.382
10,-236,9.383
10,-103,9.384
8,61,9.385
11,259,9.386
17,455,9.387
19,547,9.388
9,434,9.389
-2,150,9.39
-4,-135,9.391
0,-278,9.392
0,-304,9.393
-2,-329,9.394
1,-359,9.395
4,-304,9.396
-1,-149,9.397
-10,25,9.398
-7,160,9.399
4,258,9.4
12,291,9.401
8,239,9.402
5,167,9.403
5,139,9.404
1,87,9.405
-5,-59,9.406
-9,-203,9.407
-10,-204,9.408
-13,-103,9.409
-17,-42,9.41
-12,-46,9.411
-1,-56,9.412
10,-79,9.413
16,-135,9.414
19,-109,9.415
18,105,9.416
9,371,9.417
1,423,9.418
7,197,9.419
19,-96,9.42
19,-261,9.421
3,-310,9.422
-8,-330,9.423
-9,-327,9.424
-8,-267,9.425
-9,-182,9.426
-12,-106,9.427
-12,-18,9.428
-9,102,9.429
-4,210,9.43
2,245,9.431
13,224,9.432
21,188,9.433
22,135,9.434
19,74,9.435
12,40,9.436
5,53,9.437
0,95,9.438
-1,140,9.439
0,173,9.44
-1,156,9.441
-7,50,9.442
-11,-86,9.443
-10,-139,9.444
-10,-97,9.445
-15,-56,9.446
-19,-74,9.447
-16,-100,9.448
-8,-86,9.449
-3,-58,9.45
-3,-41,9.451
-2,-14,9.452
6,30,9.453
14,61,9.454
19,93,9.455
17,214,9.456
12,440,9.457
7,609,9.458
6,489,9.459
13,71,9.46
21,-371,9.461
26,-573,9.462
26,-538,9.463
23,-443,9.464
15,-359,9.465
3,-222,9.466
-8,-43,9.467
-11,58,9.468
-5,41,9.469
-1,2,9.47
-5,5,9.471
-12,3,9.472
-13,-18,9.473
-12,-9,9.474
-9,45,9.475
-12,60,9.476
-18,-10,9.477
-18,-74,9.478
-6,-60,9.479
13,-23,9.48
27,-30,9.481
32,-25,9.482
31,81,9.483
31,267,9.484
27,411,9.485
17,429,9.486
9,294,9.487
4,31,9.488
6,-256,9.489
6,-406,9.49
1,-330,9.491
-6,-111,9.492
-13,68,9.493
-17,118,9.494
-16,61,9.495
-13,-13,9.496
-10,-45,9.497
-6,-38,9.498
-3,-41,9.499
-4,-73,9.5
-12,-113,9.501
-18,-148,9.502
-11,-171,9.503
5,-149,9.504
18,-50,9.505
18,79,9.506
17,148,9.507
16,161,9.508
14,199,9.509
9,266,9.51
4,269,9.511
3,185,9.512
4,118,9.513
0,120,9.514
-2,102,9.515
-2,-38,9.516
2,-249,9.517
9,-362,9.518
17,-324,9.519
21,-192,9.52
17,-8,9.521
7,236,9.522
0,462,9.523
0,516,9.524
0,338,9.525
-2,39,9.526
-5,-231,9.527
-2,-410,9.528
1,-466,9.529
4,-370,9.53
8,-179,9.531
9,-28,9.532
7,32,9.533
-2,90,9.534
-10,200,9.535
-15,261,9.536
-16,167,9.537
-14,-27,9.538
-5,-204,9.539
5,-327,9.54
7,-388,9.541
-1,-327,9.542
-7,-144,9.543
-5,29,9.544
-4,84,9.545
-7,70,9.546
-7,87,9.547
-1,135,9.548
3,179,9.549
2,225,9.55
3,264,9.551
11,231,9.552
15,134,9.553
7,51,9.554
-1,62,9.555
-4,125,9.556
-4,167,9.557
-3,177,9.558
1,126,9.559
12,-17,9.56
16,-205,9.561
12,-317,9.562
7,-313,9.563
10,-262,9.564
13,-214,9.565
5,-151,9.566
-5,-85,9.567
-5,-66,9.568
3,-83,9.569
8,-57,9.57
6,43,9.571
3,161,9.572
0,216,9.573
-6,178,9.574
-12,75,9.575
-12,-29,9.576
-2,-73,9.577
14,-46,9.578
25,8,9.579
29,69,9.58
27,152,9.581
24,253,9.582
23,340,9.583
22,401,9.584
14,422,9.585
-1,343,9.586
-13,122,9.587
-19,-124,9.588
-22,-231,9.589
-25,-205,9.59
-23,-242,9.591
-12,-434,9.592
1,-640,9.593
11,-721,9.594
17,-656,9.595
20,-491,9.596
15,-221,9.597
1,124,9.598
-10,387,9.599
-10,462,9.6
-5,431,9.601
-3,402,9.602
-2,331,9.603
5,151,9.604
17,-55,9.605
25,-168,9.606
25,-204,9.607
22,-244,9.608
15,-263,9.609
7,-197,9.61
3,-66,9.611
4,62,9.612
6,161,9.613
-2,220,9.614
-12,211,9.615
-20,156,9.616
-23,134,9.617
-22,163,9.618
-12,142,9.619
3,28,9.62
9,-74,9.621
-3,-54,9.622
-15,59,9.623
-15,154,9.624
-8,165,9.625
-2,87,9.626
6,-36,9.627
20,-146,9.628
35,-206,9.629
41,-219,9.63
39,-190,9.631
33,-87,9.632
26,107,9.633
11,404,9.634
-6,694,9.635
-21,742,9.636
-32,349,9.637
-40,-359,9.638
-37,-937,9.639
-32,-1061,9.64
-21,-844,9.641
-11,-563,9.642
-5,-292,9.643
-1,-5,9.644
-1,188,9.645
0,212,9.646
6,210,9.647
14,305,9.648
22,367,9.649
27,273,9.65
20,165,9.651
13,211,9.652
6,322,9.653
1,346,9.654
1,305,9.655
-2,240,9.656
-10,104,9.657
-16,-20,9.658
-8,-109,9.659
3,-180,9.66
9,-198,9.661
10,-232,9.662
18,-310,9.663
31,-361,9.664
38,-328,9.665
31,-243,9.666
18,-4,9.667
7,229,9.668
-2,448,9.669
-8,541,9.67
-10,255,9.671
-6,-3,9.672
-1,-179,9.673
-4,-330,9.674
-9,-365,9.675
-14,-303,9.676
-17,-175,9.677
-20,-72,9.678
-17,-33,9.679
-5,0,9.68
5,57,9.681
8,66,9.682
6,-2,9.683
6,-38,9.684
6,90,9.685
9,364,9.686
14,645,9.687
21,776,9.688
22,615,9.689
15,131,9.69
7,-468,9.691
4,-832,9.692
10,-826,9.693
16,-588,9.694
20,-315,9.695
18,-87,9.696
12,38,9.697
6,17,9.698
8,-35,9.699
13,97,9.7
6,390,9.701
-7,534,9.702
-14,355,9.703
-9,32,9.704
-5,-192,9.705
-7,-263,9.706
-8,-198,9.707
-5,-15,9.708
-4,149,9.709
-8,104,9.71
-14,-111,9.711
-16,-248,9.712
-13,-208,9.713
-9,-111,9.714
-3,-40,9.715
1,62,9.716
3,181,9.717
6,185,9.718
8,78,9.719
9,33,9.72
5,94,9.721
1,117,9.722
-1,53,9.723
-2,29,9.724
3,83,9.725
9,88,9.726
10,3,9.727
11,-65,9.728
11,-63,9.729
10,-40,9.73
3,14,9.731
-2,164,9.732
-4,331,9.733
-3,331,9.734
1,152,9.735
0,-25,9.736
-5,-200,9.737
-9,-346,9.738
-3,-403,9.739
6,-410,9.74
8,-267,9.741
1,-136,9.742
-3,-39,9.743
1,89,9.744
8,309,9.745
11,470,9.746
10,448,9.747
14,327,9.748
19,-94,9.749
20,-429,9.75
20,-505,9.751
20,-511,9.752
18,-305,9.753
13,-81,9.754
6,171,9.755
-1,312,9.756
-8,317,9.757
-14,268,9.758
-14,188,9.759
-8,34,9.76
-6,-134,9.761
-9,-150,9.762
-10,-13,9.763
-6,64,9.764
-6,-32,9.765
-10,-155,9.766
-7,-150,9.767
6,-72,9.768
18,-33,9.769
25,10,9.77
24,117,9.771
23,197,9.772
20,159,9.773
15,56,9.774
9,31,9.775
5,92,9.776
0,118,9.777
0,62,9.778
4,-23,9.779
8,-94,9.78
4,-148,9.781
-8,-147,9.782
-18,-56,9.783
-20,64,9.784
-18,98,9.785
-18,12,9.786
-20,-97,9.787
-20,-142,9.788
-19,-133,9.789
-19,-114,9.79
-16,-79,9.791
-9,-7,9.792
-1,59,9.793
6,81,9.794
15,79,9.795
26,97,9.796
37,117,9.797
48,95,9.798
51,66,9.799
48,140,9.8
34,369,9.801
16,637,9.802
2,706,9.803
-4,413,9.804
-8,-145,9.805
-12,-660,9.806
-15,-889,9.807
-12,-849,9.808
-12,-695,9.809
-17,-495,9.81
-19,-270,9.811
-15,-104,9.812
-10,-43,9.813
-11,13,9.814
-15,158,9.815
-19,305,9.816
-18,310,9.817
-14,218,9.818
-5,181,9.819
7,199,9.82
17,171,9.821
21,104,9.822
23,98,9.823
26,149,9.824
26,157,9.825
21,101,9.826
12,55,9.827
4,64,9.828
0,117,9.829
-2,174,9.83
-5,158,9.831
-4,-1,9.832
1,-231,9.833
5,-399,9.834
2,-408,9.835
-4,-313,9.836
-7,-195,9.837
-5,-66,9.838
-2,30,9.839
-2,49,9.84
-6,37,9.841
-10,81,9.842
-5,151,9.843
10,151,9.844
22,116,9.845
27,147,9.846
25,203,9.847
23,145,9.848
18,-12,9.849
4,-112,9.85
-11,-78,9.851
-19,11,9.852
-15,77,9.853
-6,80,9.854
-2,-15,9.855
-5,-192,9.856
-11,-317,9.857
-10,-272,9.858
-1,-118,9.859
9,13,9.86
13,98,9.861
12,173,9.862
12,206,9.863
15,169,9.864
13,136,9.865
7,158,9.866
3,144,9.867
6,3,9.868
14,-177,9.869
19,-258,9.87
23,-225,9.871
29,-141,9.872
31,-22,9.873
22,128,9.874
5,220,9.875
-13,179,9.876
-22,38,9.877
-20,-146,9.878
-13,-347,9.879
-11,-457,9.88
-14,-346,9.881
-16,-96,9.882
-14,47,9.883
-8,7,9.884
-7,-52,9.885
-12,-18,9.886
-16,44,9.887
-15,106,9.888
-8,214,9.889
0,313,9.89
9,291,9.891
16,208,9.892
23,194,9.893
22,176,9.894
13,13,9.895
3,-191,9.896
1,-191,9.897
5,5,9.898
11,155,9.899
15,175,9.9
15,150,9.901
11,54,9.902
4,-163,9.903
0,-335,9.904
0,-262,9.905
0,-71,9.906
3,-38,9.907
12,-160,9.908
22,-201,9.909
24,-96,9.91
18,0,9.911
12,19,9.912
10,36,9.913
2,88,9.914
-6,140,9.915
-16,180,9.916
-21,207,9.917
-24,166,9.918
-21,50,9.919
-15,8,9.92
-12,126,9.921
-15,208,9.922
-17,26,9.923
-14,-302,9.924
-12,-453,9.925
-17,-344,9.926
-19,-164,9.927
-13,-33,9.928
