Deltoid,Bicep,Time
-3.0,-3.0,0.0
-4.0,-6.0,0.001
-1.0,-3.0,0.002
2.0,3.0,0.003
7.0,3.0,0.004
7.0,-1.0,0.005
0.0,-2.0,0.006
-6.0,1.0,0.007
-10.0,5.0,0.008
-11.0,5.0,0.009
-9.0,4.0,0.01
-4.0,6.0,0.011
4.0,7.0,0.012
11.0,5.0,0.013
10.0,0.0,0.014
7.0,0.0,0.015
11.0,1.0,0.016
18.0,6.0,0.017
15.0,5.0,0.018
-5.0,0.0,0.019
-28.0,-7.0,0.02
-37.0,-18.0,0.021
-25.0,-23.0,0.022
-5.0,-16.0,0.023
14.0,-4.0,0.024
22.0,3.0,0.025
23.0,4.0,0.026
20.0,0.0,0.027
17.0,0.0,0.028
9.0,1.0,0.029
0.0,4.0,0.03
-2.0,4.0,0.031
2.0,2.0,0.032
5.0,0.0,0.033
2.0,-2.0,0.034
-2.0,-3.0,0.035
-5.0,-2.0,0.036
-7.0,1.0,0.037
-14.0,3.0,0.038
-19.0,0.0,0.039
-22.0,-8.0,0.04
-14.0,-18.0,0.041
-3.0,-16.0,0.042
13.0,-5.0,0.043
25.0,2.0,0.044
24.0,3.0,0.045
22.0,5.0,0.046
19.0,7.0,0.047
17.0,5.0,0.048
17.0,0.0,0.049
14.0,2.0,0.05
7.0,12.0,0.051
1.0,17.0,0.052
-3.0,11.0,0.053
-7.0,1.0,0.054
-10.0,-2.0,0.055
-13.0,-2.0,0.056
-13.0,-3.0,0.057
-11.0,-13.0,0.058
-1.0,-18.0,0.059
14.0,-17.0,0.06
21.0,-12.0,0.061
20.0,-6.0,0.062
17.0,-2.0,0.063
17.0,2.0,0.064
13.0,2.0,0.065
6.0,1.0,0.066
6.0,0.0,0.067
14.0,0.0,0.068
14.0,-1.0,0.069
-2.0,-2.0,0.07
-17.0,0.0,0.071
-22.0,3.0,0.072
-25.0,4.0,0.073
-32.0,-2.0,0.074
-31.0,-6.0,0.075
-14.0,-6.0,0.076
3.0,0.0,0.077
12.0,1.0,0.078
7.0,-2.0,0.079
1.0,-5.0,0.08
3.0,-9.0,0.081
15.0,-6.0,0.082
28.0,-5.0,0.083
28.0,1.0,0.084
12.0,9.0,0.085
-5.0,11.0,0.086
-6.0,8.0,0.087
1.0,4.0,0.088
5.0,5.0,0.089
2.0,6.0,0.09
4.0,1.0,0.091
5.0,-5.0,0.092
-2.0,-7.0,0.093
-11.0,-8.0,0.094
-10.0,-11.0,0.095
0.0,-11.0,0.096
7.0,-5.0,0.097
4.0,1.0,0.098
5.0,0.0,0.099
8.0,-6.0,0.1
6.0,-9.0,0.101
5.0,-6.0,0.102
14.0,-1.0,0.103
29.0,1.0,0.104
32.0,3.0,0.105
24.0,5.0,0.106
20.0,4.0,0.107
22.0,-3.0,0.108
19.0,-4.0,0.109
4.0,2.0,0.11
-12.0,7.0,0.111
-18.0,4.0,0.112
-23.0,0.0,0.113
-29.0,-1.0,0.114
-29.0,2.0,0.115
-20.0,4.0,0.116
-7.0,2.0,0.117
-2.0,0.0,0.118
0.0,-1.0,0.119
1.0,-3.0,0.12
-2.0,-7.0,0.121
-2.0,-10.0,0.122
7.0,-8.0,0.123
15.0,-6.0,0.124
16.0,-2.0,0.125
18.0,1.0,0.126
17.0,-2.0,0.127
16.0,-4.0,0.128
16.0,-2.0,0.129
12.0,0.0,0.13
1.0,-1.0,0.131
-7.0,-3.0,0.132
-9.0,-1.0,0.133
-11.0,0.0,0.134
-12.0,-2.0,0.135
-13.0,-3.0,0.136
-14.0,-1.0,0.137
-14.0,2.0,0.138
-14.0,1.0,0.139
-13.0,0.0,0.14
-9.0,0.0,0.141
-3.0,4.0,0.142
4.0,3.0,0.143
8.0,-3.0,0.144
9.0,-7.0,0.145
13.0,-4.0,0.146
21.0,1.0,0.147
26.0,1.0,0.148
25.0,1.0,0.149
21.0,4.0,0.15
18.0,7.0,0.151
17.0,4.0,0.152
16.0,1.0,0.153
14.0,1.0,0.154
13.0,5.0,0.155
6.0,7.0,0.156
-3.0,6.0,0.157
-11.0,1.0,0.158
-8.0,-4.0,0.159
0.0,-5.0,0.16
7.0,-9.0,0.161
10.0,-10.0,0.162
12.0,-8.0,0.163
13.0,-5.0,0.164
7.0,3.0,0.165
-6.0,6.0,0.166
-16.0,1.0,0.167
-14.0,-7.0,0.168
-7.0,-11.0,0.169
-3.0,-7.0,0.17
-3.0,-3.0,0.171
-7.0,0.0,0.172
-9.0,1.0,0.173
-10.0,3.0,0.174
-6.0,2.0,0.175
-1.0,0.0,0.176
1.0,-1.0,0.177
2.0,-1.0,0.178
7.0,-1.0,0.179
8.0,-1.0,0.18
-1.0,-2.0,0.181
-11.0,-2.0,0.182
-13.0,-4.0,0.183
-9.0,-7.0,0.184
-5.0,-5.0,0.185
-2.0,1.0,0.186
5.0,3.0,0.187
12.0,0.0,0.188
8.0,-2.0,0.189
0.0,0.0,0.19
-2.0,-1.0,0.191
-3.0,-9.0,0.192
-6.0,-15.0,0.193
-4.0,-9.0,0.194
11.0,4.0,0.195
31.0,8.0,0.196
41.0,4.0,0.197
5.0,0.0,0.198
8.0,4.0,0.199
9.0,2.0,0.2
9.0,-6.0,0.201
13.0,-7.0,0.202
26.0,0.0,0.203
34.0,3.0,0.204
24.0,1.0,0.205
7.0,0.0,0.206
3.0,6.0,0.207
12.0,10.0,0.208
18.0,9.0,0.209
15.0,9.0,0.21
8.0,10.0,0.211
1.0,5.0,0.212
-11.0,-2.0,0.213
-27.0,-5.0,0.214
-39.0,-4.0,0.215
-38.0,-6.0,0.216
-30.0,-6.0,0.217
-22.0,-7.0,0.218
-15.0,-6.0,0.219
-8.0,-10.0,0.22
-3.0,-18.0,0.221
4.0,-16.0,0.222
13.0,-3.0,0.223
20.0,6.0,0.224
21.0,7.0,0.225
19.0,5.0,0.226
16.0,6.0,0.227
13.0,5.0,0.228
8.0,4.0,0.229
-1.0,4.0,0.23
-11.0,4.0,0.231
-18.0,2.0,0.232
-17.0,-2.0,0.233
-6.0,-6.0,0.234
10.0,-7.0,0.235
20.0,-5.0,0.236
22.0,-3.0,0.237
15.0,-4.0,0.238
9.0,-5.0,0.239
9.0,-5.0,0.24
8.0,-4.0,0.241
5.0,-1.0,0.242
9.0,2.0,0.243
18.0,2.0,0.244
22.0,0.0,0.245
16.0,-1.0,0.246
8.0,-2.0,0.247
11.0,1.0,0.248
17.0,4.0,0.249
9.0,2.0,0.25
-12.0,-3.0,0.251
-29.0,-6.0,0.252
-33.0,0.0,0.253
-24.0,7.0,0.254
-10.0,6.0,0.255
4.0,0.0,0.256
14.0,2.0,0.257
12.0,4.0,0.258
5.0,0.0,0.259
0.0,-3.0,0.26
1.0,-7.0,0.261
5.0,-8.0,0.262
12.0,-2.0,0.263
15.0,2.0,0.264
4.0,4.0,0.265
-5.0,6.0,0.266
-3.0,4.0,0.267
-2.0,2.0,0.268
-2.0,0.0,0.269
-3.0,0.0,0.27
-7.0,1.0,0.271
-9.0,2.0,0.272
-3.0,-2.0,0.273
1.0,-5.0,0.274
0.0,-3.0,0.275
-1.0,-1.0,0.276
4.0,-1.0,0.277
10.0,-1.0,0.278
13.0,0.0,0.279
9.0,-1.0,0.28
2.0,-7.0,0.281
1.0,-8.0,0.282
12.0,-8.0,0.283
24.0,-11.0,0.284
26.0,-7.0,0.285
11.0,3.0,0.286
-7.0,11.0,0.287
-13.0,9.0,0.288
-14.0,1.0,0.289
-15.0,-1.0,0.29
-11.0,-2.0,0.291
0.0,-5.0,0.292
10.0,-8.0,0.293
15.0,-2.0,0.294
15.0,6.0,0.295
18.0,9.0,0.296
18.0,7.0,0.297
7.0,2.0,0.298
-7.0,-3.0,0.299
-16.0,-10.0,0.3
-20.0,-17.0,0.301
-19.0,-11.0,0.302
-4.0,-2.0,0.303
21.0,2.0,0.304
36.0,0.0,0.305
29.0,3.0,0.306
13.0,5.0,0.307
5.0,2.0,0.308
6.0,0.0,0.309
-1.0,4.0,0.31
-13.0,7.0,0.311
-18.0,0.0,0.312
-12.0,-7.0,0.313
-3.0,-6.0,0.314
6.0,-1.0,0.315
13.0,-2.0,0.316
17.0,-5.0,0.317
12.0,-2.0,0.318
1.0,1.0,0.319
-6.0,-1.0,0.32
-10.0,-8.0,0.321
-10.0,-9.0,0.322
-12.0,-6.0,0.323
-9.0,-2.0,0.324
-3.0,-1.0,0.325
4.0,2.0,0.326
9.0,4.0,0.327
10.0,5.0,0.328
7.0,7.0,0.329
8.0,8.0,0.33
15.0,9.0,0.331
25.0,8.0,0.332
30.0,8.0,0.333
26.0,8.0,0.334
21.0,4.0,0.335
22.0,-3.0,0.336
25.0,-3.0,0.337
16.0,-3.0,0.338
-4.0,-7.0,0.339
-20.0,-14.0,0.34
-23.0,-18.0,0.341
-23.0,-13.0,0.342
-12.0,-7.0,0.343
-2.0,0.0,0.344
1.0,3.0,0.345
3.0,0.0,0.346
-2.0,-8.0,0.347
-7.0,-12.0,0.348
-9.0,-4.0,0.349
-13.0,9.0,0.35
-24.0,10.0,0.351
-32.0,1.0,0.352
-29.0,-3.0,0.353
-22.0,2.0,0.354
-3.0,6.0,0.355
14.0,3.0,0.356
26.0,0.0,0.357
34.0,-1.0,0.358
18.0,-2.0,0.359
-1.0,-4.0,0.36
-7.0,-8.0,0.361
-1.0,-6.0,0.362
13.0,-4.0,0.363
23.0,-4.0,0.364
22.0,0.0,0.365
14.0,3.0,0.366
6.0,2.0,0.367
5.0,-3.0,0.368
1.0,-3.0,0.369
-9.0,-2.0,0.37
-18.0,-4.0,0.371
-16.0,-8.0,0.372
-8.0,-5.0,0.373
-5.0,0.0,0.374
-4.0,3.0,0.375
3.0,0.0,0.376
14.0,1.0,0.377
15.0,3.0,0.378
12.0,1.0,0.379
10.0,-3.0,0.38
11.0,-6.0,0.381
14.0,-2.0,0.382
18.0,1.0,0.383
22.0,0.0,0.384
17.0,2.0,0.385
10.0,8.0,0.386
10.0,8.0,0.387
15.0,4.0,0.388
10.0,0.0,0.389
-4.0,-1.0,0.39
-10.0,-1.0,0.391
-4.0,1.0,0.392
2.0,7.0,0.393
3.0,9.0,0.394
8.0,3.0,0.395
22.0,-4.0,0.396
34.0,-7.0,0.397
-20.0,-5.0,0.398
-32.0,-3.0,0.399
-42.0,-3.0,0.4
-46.0,-6.0,0.401
-43.0,-11.0,0.402
-19.0,-16.0,0.403
2.0,-12.0,0.404
12.0,1.0,0.405
20.0,12.0,0.406
18.0,11.0,0.407
16.0,3.0,0.408
14.0,0.0,0.409
12.0,3.0,0.41
12.0,1.0,0.411
8.0,-4.0,0.412
-1.0,-4.0,0.413
-8.0,3.0,0.414
-6.0,6.0,0.415
-3.0,1.0,0.416
-1.0,0.0,0.417
-20.0,0.0,0.418
-32.0,0.0,0.419
-42.0,-2.0,0.42
-46.0,-8.0,0.421
-43.0,-8.0,0.422
-19.0,-6.0,0.423
2.0,-1.0,0.424
12.0,4.0,0.425
20.0,5.0,0.426
18.0,0.0,0.427
16.0,-7.0,0.428
14.0,-5.0,0.429
12.0,3.0,0.43
12.0,6.0,0.431
8.0,0.0,0.432
-1.0,-5.0,0.433
-8.0,-3.0,0.434
-6.0,-1.0,0.435
-3.0,-3.0,0.436
-1.0,-4.0,0.437
1.0,-2.0,0.438
-1.0,0.0,0.439
0.0,-2.0,0.44
2.0,-8.0,0.441
5.0,-7.0,0.442
9.0,-2.0,0.443
15.0,0.0,0.444
18.0,0.0,0.445
15.0,1.0,0.446
11.0,3.0,0.447
11.0,0.0,0.448
14.0,-6.0,0.449
15.0,-4.0,0.45
11.0,0.0,0.451
9.0,1.0,0.452
13.0,-2.0,0.453
19.0,0.0,0.454
25.0,6.0,0.455
32.0,6.0,0.456
34.0,0.0,0.457
26.0,-4.0,0.458
10.0,0.0,0.459
-8.0,5.0,0.46
-20.0,-1.0,0.461
-23.0,-6.0,0.462
-17.0,-5.0,0.463
-4.0,-2.0,0.464
1.0,-2.0,0.465
-2.0,-1.0,0.466
-11.0,0.0,0.467
-16.0,-1.0,0.468
-18.0,-7.0,0.469
-20.0,-9.0,0.47
-17.0,-4.0,0.471
-13.0,4.0,0.472
-10.0,8.0,0.473
-11.0,8.0,0.474
-11.0,3.0,0.475
-7.0,-2.0,0.476
-2.0,-4.0,0.477
3.0,-2.0,0.478
9.0,1.0,0.479
14.0,0.0,0.48
15.0,-4.0,0.481
12.0,-5.0,0.482
13.0,-3.0,0.483
16.0,0.0,0.484
14.0,3.0,0.485
5.0,4.0,0.486
0.0,5.0,0.487
5.0,3.0,0.488
9.0,3.0,0.489
6.0,5.0,0.49
0.0,2.0,0.491
-2.0,-4.0,0.492
-5.0,-7.0,0.493
-8.0,-3.0,0.494
-6.0,0.0,0.495
-3.0,0.0,0.496
0.0,-2.0,0.497
1.0,-4.0,0.498
7.0,-6.0,0.499
12.0,-6.0,0.5
8.0,-7.0,0.501
5.0,-6.0,0.502
10.0,-7.0,0.503
15.0,-5.0,0.504
19.0,-1.0,0.505
21.0,4.0,0.506
14.0,3.0,0.507
6.0,0.0,0.508
-2.0,-2.0,0.509
-9.0,-4.0,0.51
-13.0,-7.0,0.511
-15.0,-5.0,0.512
-11.0,0.0,0.513
-7.0,5.0,0.514
-4.0,1.0,0.515
0.0,-3.0,0.516
1.0,2.0,0.517
2.0,4.0,0.518
1.0,-1.0,0.519
-1.0,-8.0,0.52
2.0,-12.0,0.521
9.0,-7.0,0.522
16.0,-5.0,0.523
18.0,-5.0,0.524
12.0,-1.0,0.525
0.0,3.0,0.526
-4.0,3.0,0.527
-1.0,4.0,0.528
1.0,7.0,0.529
-2.0,7.0,0.53
-8.0,0.0,0.531
-14.0,-8.0,0.532
-18.0,-8.0,0.533
-21.0,-5.0,0.534
-13.0,-4.0,0.535
4.0,-5.0,0.536
17.0,-1.0,0.537
17.0,2.0,0.538
9.0,5.0,0.539
7.0,6.0,0.54
6.0,4.0,0.541
6.0,4.0,0.542
12.0,4.0,0.543
19.0,4.0,0.544
19.0,4.0,0.545
8.0,1.0,0.546
1.0,-4.0,0.547
9.0,-5.0,0.548
21.0,-4.0,0.549
23.0,-1.0,0.55
17.0,-1.0,0.551
7.0,-1.0,0.552
-5.0,1.0,0.553
-15.0,3.0,0.554
-16.0,3.0,0.555
-9.0,1.0,0.556
-3.0,-1.0,0.557
-3.0,-6.0,0.558
-5.0,-9.0,0.559
-7.0,-10.0,0.56
-11.0,-11.0,0.561
-12.0,-11.0,0.562
-2.0,-13.0,0.563
15.0,-15.0,0.564
23.0,-12.0,0.565
20.0,-4.0,0.566
18.0,0.0,0.567
24.0,-3.0,0.568
30.0,-5.0,0.569
21.0,-4.0,0.57
4.0,2.0,0.571
-7.0,9.0,0.572
-12.0,10.0,0.573
-15.0,8.0,0.574
-18.0,5.0,0.575
-18.0,3.0,0.576
-12.0,2.0,0.577
-5.0,1.0,0.578
3.0,0.0,0.579
8.0,-1.0,0.58
2.0,-4.0,0.581
-3.0,-5.0,0.582
-3.0,-8.0,0.583
-4.0,-9.0,0.584
-8.0,-4.0,0.585
-11.0,3.0,0.586
-11.0,4.0,0.587
-7.0,-2.0,0.588
3.0,-6.0,0.589
12.0,-1.0,0.59
15.0,7.0,0.591
17.0,9.0,0.592
15.0,7.0,0.593
13.0,5.0,0.594
10.0,5.0,0.595
10.0,4.0,0.596
18.0,4.0,0.597
22.0,3.0,0.598
14.0,2.0,0.599
-1.0,-3.0,0.6
-6.0,-13.0,0.601
-1.0,-17.0,0.602
12.0,-14.0,0.603
20.0,-7.0,0.604
13.0,-2.0,0.605
0.0,0.0,0.606
-7.0,-1.0,0.607
-4.0,-1.0,0.608
-6.0,2.0,0.609
-18.0,6.0,0.61
-26.0,7.0,0.611
-24.0,6.0,0.612
-20.0,6.0,0.613
-18.0,6.0,0.614
-9.0,2.0,0.615
7.0,-6.0,0.616
24.0,-7.0,0.617
33.0,-4.0,0.618
36.0,0.0,0.619
32.0,-2.0,0.62
21.0,-9.0,0.621
11.0,-10.0,0.622
12.0,-6.0,0.623
15.0,-2.0,0.624
6.0,-4.0,0.625
-15.0,-6.0,0.626
-25.0,-5.0,0.627
-20.0,-4.0,0.628
-6.0,-1.0,0.629
1.0,2.0,0.63
5.0,4.0,0.631
5.0,0.0,0.632
-2.0,-4.0,0.633
-7.0,-3.0,0.634
-2.0,1.0,0.635
8.0,4.0,0.636
7.0,5.0,0.637
-5.0,2.0,0.638
-8.0,-1.0,0.639
4.0,-4.0,0.64
14.0,-8.0,0.641
7.0,-7.0,0.642
-4.0,-1.0,0.643
-4.0,6.0,0.644
-3.0,6.0,0.645
-5.0,1.0,0.646
-4.0,-3.0,0.647
2.0,-1.0,0.648
12.0,4.0,0.649
13.0,5.0,0.65
8.0,2.0,0.651
3.0,-1.0,0.652
-2.0,-2.0,0.653
-8.0,0.0,0.654
-7.0,1.0,0.655
1.0,0.0,0.656
10.0,0.0,0.657
9.0,0.0,0.658
8.0,0.0,0.659
8.0,-6.0,0.66
14.0,-12.0,0.661
20.0,-8.0,0.662
24.0,0.0,0.663
25.0,4.0,0.664
19.0,4.0,0.665
13.0,4.0,0.666
9.0,4.0,0.667
5.0,0.0,0.668
7.0,-4.0,0.669
7.0,-3.0,0.67
-5.0,-2.0,0.671
-15.0,-2.0,0.672
-19.0,-2.0,0.673
-23.0,-2.0,0.674
-23.0,-2.0,0.675
-20.0,-4.0,0.676
-12.0,-3.0,0.677
-6.0,0.0,0.678
-2.0,2.0,0.679
0.0,-3.0,0.68
6.0,-10.0,0.681
13.0,-7.0,0.682
21.0,0.0,0.683
28.0,3.0,0.684
32.0,0.0,0.685
25.0,-1.0,0.686
14.0,-1.0,0.687
2.0,-3.0,0.688
-1.0,-5.0,0.689
1.0,-5.0,0.69
4.0,-2.0,0.691
4.0,3.0,0.692
0.0,5.0,0.693
-5.0,7.0,0.694
-5.0,4.0,0.695
1.0,0.0,0.696
11.0,0.0,0.697
18.0,1.0,0.698
16.0,0.0,0.699
3.0,0.0,0.7
-16.0,-2.0,0.701
-27.0,-4.0,0.702
-21.0,-6.0,0.703
-2.0,-6.0,0.704
10.0,-2.0,0.705
7.0,0.0,0.706
-5.0,-2.0,0.707
-14.0,-5.0,0.708
-18.0,-3.0,0.709
-20.0,0.0,0.71
-22.0,1.0,0.711
-20.0,0.0,0.712
-14.0,0.0,0.713
-4.0,-1.0,0.714
7.0,-4.0,0.715
16.0,-3.0,0.716
19.0,0.0,0.717
18.0,0.0,0.718
15.0,-1.0,0.719
9.0,-4.0,0.72
5.0,-6.0,0.721
5.0,-5.0,0.722
11.0,-1.0,0.723
20.0,0.0,0.724
27.0,-1.0,0.725
30.0,0.0,0.726
31.0,1.0,0.727
29.0,0.0,0.728
21.0,-3.0,0.729
11.0,-2.0,0.73
2.0,3.0,0.731
-4.0,9.0,0.732
-9.0,8.0,0.733
-16.0,3.0,0.734
-16.0,3.0,0.735
-11.0,6.0,0.736
-7.0,8.0,0.737
-10.0,2.0,0.738
-9.0,-8.0,0.739
-6.0,-12.0,0.74
3.0,-10.0,0.741
12.0,-3.0,0.742
20.0,3.0,0.743
26.0,2.0,0.744
26.0,-1.0,0.745
25.0,1.0,0.746
19.0,9.0,0.747
12.0,12.0,0.748
-1.0,7.0,0.749
-13.0,-3.0,0.75
-23.0,-9.0,0.751
-29.0,-7.0,0.752
-19.0,-5.0,0.753
-12.0,-7.0,0.754
-12.0,-11.0,0.755
-9.0,-13.0,0.756
0.0,-10.0,0.757
10.0,-10.0,0.758
12.0,-9.0,0.759
6.0,-7.0,0.76
4.0,-8.0,0.761
8.0,-5.0,0.762
13.0,-3.0,0.763
15.0,-1.0,0.764
13.0,-1.0,0.765
7.0,0.0,0.766
2.0,0.0,0.767
2.0,1.0,0.768
2.0,3.0,0.769
-2.0,3.0,0.77
-5.0,0.0,0.771
-1.0,-2.0,0.772
6.0,-2.0,0.773
15.0,2.0,0.774
22.0,4.0,0.775
26.0,2.0,0.776
23.0,-1.0,0.777
9.0,-5.0,0.778
-2.0,-8.0,0.779
-4.0,-10.0,0.78
-6.0,-14.0,0.781
-12.0,-13.0,0.782
-14.0,-6.0,0.783
-7.0,0.0,0.784
-4.0,5.0,0.785
-13.0,8.0,0.786
-23.0,9.0,0.787
-24.0,10.0,0.788
-22.0,8.0,0.789
-19.0,7.0,0.79
-15.0,7.0,0.791
-4.0,9.0,0.792
6.0,11.0,0.793
10.0,7.0,0.794
12.0,-1.0,0.795
17.0,-9.0,0.796
20.0,-12.0,0.797
19.0,-7.0,0.798
15.0,2.0,0.799
12.0,9.0,0.8
11.0,5.0,0.801
10.0,1.0,0.802
9.0,1.0,0.803
10.0,4.0,0.804
7.0,3.0,0.805
0.0,-3.0,0.806
-2.0,-8.0,0.807
0.0,-7.0,0.808
6.0,-3.0,0.809
10.0,-1.0,0.81
14.0,-1.0,0.811
16.0,0.0,0.812
13.0,2.0,0.813
6.0,2.0,0.814
3.0,3.0,0.815
6.0,4.0,0.816
7.0,3.0,0.817
-3.0,-1.0,0.818
-11.0,-5.0,0.819
-17.0,-5.0,0.82
-12.0,-9.0,0.821
-7.0,-9.0,0.822
-2.0,-6.0,0.823
1.0,0.0,0.824
0.0,3.0,0.825
0.0,4.0,0.826
9.0,4.0,0.827
16.0,5.0,0.828
15.0,3.0,0.829
12.0,0.0,0.83
2.0,-3.0,0.831
-4.0,-3.0,0.832
0.0,-2.0,0.833
3.0,-1.0,0.834
3.0,0.0,0.835
5.0,2.0,0.836
15.0,3.0,0.837
22.0,0.0,0.838
16.0,-1.0,0.839
9.0,-1.0,0.84
12.0,-1.0,0.841
14.0,-1.0,0.842
10.0,-1.0,0.843
-1.0,-2.0,0.844
-6.0,1.0,0.845
-6.0,3.0,0.846
-4.0,1.0,0.847
-4.0,-3.0,0.848
-12.0,-5.0,0.849
-23.0,-6.0,0.85
-26.0,-9.0,0.851
-23.0,-11.0,0.852
-19.0,-9.0,0.853
-20.0,-5.0,0.854
-15.0,-2.0,0.855
0.0,-4.0,0.856
13.0,-5.0,0.857
13.0,-4.0,0.858
12.0,-1.0,0.859
15.0,-1.0,0.86
16.0,-4.0,0.861
11.0,-4.0,0.862
10.0,-3.0,0.863
18.0,-2.0,0.864
23.0,0.0,0.865
16.0,4.0,0.866
5.0,3.0,0.867
4.0,-2.0,0.868
7.0,-6.0,0.869
6.0,-2.0,0.87
6.0,4.0,0.871
12.0,4.0,0.872
15.0,2.0,0.873
10.0,3.0,0.874
4.0,5.0,0.875
6.0,5.0,0.876
13.0,5.0,0.877
7.0,5.0,0.878
-6.0,4.0,0.879
-14.0,1.0,0.88
-12.0,-4.0,0.881
-5.0,-3.0,0.882
7.0,-2.0,0.883
15.0,-2.0,0.884
12.0,-5.0,0.885
-1.0,-5.0,0.886
-9.0,-2.0,0.887
-8.0,-1.0,0.888
-6.0,-3.0,0.889
-11.0,-5.0,0.89
-14.0,-5.0,0.891
-10.0,-4.0,0.892
-6.0,-7.0,0.893
-4.0,-9.0,0.894
-1.0,-8.0,0.895
8.0,-4.0,0.896
18.0,2.0,0.897
18.0,5.0,0.898
15.0,6.0,0.899
13.0,6.0,0.9
14.0,2.0,0.901
16.0,0.0,0.902
18.0,-1.0,0.903
20.0,2.0,0.904
14.0,7.0,0.905
10.0,7.0,0.906
9.0,2.0,0.907
7.0,-2.0,0.908
1.0,-3.0,0.909
-4.0,-2.0,0.91
-8.0,-4.0,0.911
-12.0,-8.0,0.912
-16.0,-10.0,0.913
-18.0,-7.0,0.914
-13.0,-2.0,0.915
-8.0,0.0,0.916
-5.0,4.0,0.917
-5.0,3.0,0.918
-6.0,1.0,0.919
-2.0,-1.0,0.92
3.0,-5.0,0.921
8.0,-5.0,0.922
16.0,-3.0,0.923
23.0,-4.0,0.924
20.0,-5.0,0.925
3.0,-3.0,0.926
-11.0,0.0,0.927
-15.0,4.0,0.928
-15.0,4.0,0.929
-20.0,3.0,0.93
-20.0,2.0,0.931
-8.0,0.0,0.932
2.0,-2.0,0.933
-2.0,-2.0,0.934
-8.0,-2.0,0.935
-3.0,-3.0,0.936
11.0,-2.0,0.937
16.0,-1.0,0.938
9.0,1.0,0.939
2.0,-1.0,0.94
1.0,-6.0,0.941
2.0,-6.0,0.942
9.0,-1.0,0.943
19.0,4.0,0.944
26.0,7.0,0.945
24.0,7.0,0.946
21.0,4.0,0.947
26.0,-1.0,0.948
32.0,-1.0,0.949
26.0,3.0,0.95
11.0,4.0,0.951
-1.0,1.0,0.952
-6.0,-1.0,0.953
-5.0,2.0,0.954
-5.0,3.0,0.955
-5.0,-2.0,0.956
-8.0,-5.0,0.957
-15.0,-8.0,0.958
-19.0,-7.0,0.959
-16.0,-7.0,0.96
-4.0,-9.0,0.961
3.0,-8.0,0.962
2.0,-9.0,0.963
0.0,-7.0,0.964
2.0,-2.0,0.965
8.0,1.0,0.966
11.0,0.0,0.967
8.0,-3.0,0.968
5.0,1.0,0.969
7.0,8.0,0.97
8.0,7.0,0.971
2.0,2.0,0.972
-8.0,1.0,0.973
-16.0,6.0,0.974
-15.0,5.0,0.975
-7.0,-1.0,0.976
2.0,-4.0,0.977
5.0,-4.0,0.978
2.0,-5.0,0.979
0.0,-8.0,0.98
0.0,-12.0,0.981
4.0,-8.0,0.982
24.0,-1.0,0.983
38.0,2.0,0.984
35.0,6.0,0.985
29.0,12.0,0.986
15.0,11.0,0.987
2.0,4.0,0.988
-3.0,1.0,0.989
-10.0,4.0,0.99
-14.0,3.0,0.991
-15.0,-7.0,0.992
-7.0,-15.0,0.993
-1.0,-14.0,0.994
-3.0,-6.0,0.995
-6.0,1.0,0.996
-10.0,4.0,0.997
-15.0,2.0,0.998
-20.0,-2.0,0.999
-21.0,-7.0,1.0
-16.0,-10.0,1.001
-10.0,-8.0,1.002
-3.0,-7.0,1.003
2.0,-6.0,1.004
5.0,-3.0,1.005
3.0,2.0,1.006
3.0,4.0,1.007
9.0,5.0,1.008
19.0,5.0,1.009
23.0,5.0,1.01
20.0,4.0,1.011
20.0,2.0,1.012
23.0,3.0,1.013
24.0,6.0,1.014
26.0,7.0,1.015
26.0,6.0,1.016
24.0,8.0,1.017
17.0,5.0,1.018
13.0,0.0,1.019
12.0,-9.0,1.02
6.0,-16.0,1.021
-5.0,-16.0,1.022
-13.0,-13.0,1.023
-9.0,-9.0,1.024
-5.0,-4.0,1.025
-12.0,0.0,1.026
-19.0,3.0,1.027
-17.0,2.0,1.028
-9.0,-1.0,1.029
-4.0,-5.0,1.03
-1.0,-6.0,1.031
5.0,-4.0,1.032
13.0,1.0,1.033
17.0,1.0,1.034
14.0,-3.0,1.035
9.0,-3.0,1.036
6.0,2.0,1.037
3.0,5.0,1.038
-1.0,2.0,1.039
-9.0,-2.0,1.04
-15.0,-2.0,1.041
-12.0,3.0,1.042
-4.0,1.0,1.043
4.0,0.0,1.044
13.0,3.0,1.045
22.0,8.0,1.046
29.0,3.0,1.047
23.0,-7.0,1.048
1.0,-9.0,1.049
-22.0,-2.0,1.05
-33.0,0.0,1.051
-28.0,-4.0,1.052
-22.0,-5.0,1.053
-18.0,3.0,1.054
-12.0,10.0,1.055
-2.0,6.0,1.056
5.0,-1.0,1.057
6.0,-4.0,1.058
8.0,-3.0,1.059
10.0,-3.0,1.06
8.0,-7.0,1.061
6.0,-6.0,1.062
4.0,-2.0,1.063
4.0,-3.0,1.064
10.0,-5.0,1.065
16.0,-4.0,1.066
24.0,0.0,1.067
30.0,3.0,1.068
32.0,3.0,1.069
29.0,3.0,1.07
11.0,5.0,1.071
-4.0,8.0,1.072
-13.0,9.0,1.073
-22.0,7.0,1.074
-31.0,2.0,1.075
-37.0,-3.0,1.076
-29.0,-4.0,1.077
-20.0,-4.0,1.078
-9.0,-5.0,1.079
-6.0,-7.0,1.08
-5.0,-10.0,1.081
-2.0,-12.0,1.082
7.0,-13.0,1.083
19.0,-12.0,1.084
23.0,-7.0,1.085
21.0,1.0,1.086
18.0,6.0,1.087
18.0,3.0,1.088
17.0,-4.0,1.089
10.0,-5.0,1.09
4.0,1.0,1.091
8.0,9.0,1.092
12.0,10.0,1.093
10.0,7.0,1.094
7.0,3.0,1.095
8.0,3.0,1.096
15.0,6.0,1.097
25.0,3.0,1.098
29.0,1.0,1.099
24.0,1.0,1.1
12.0,-2.0,1.101
2.0,-3.0,1.102
-4.0,-2.0,1.103
-6.0,3.0,1.104
-14.0,7.0,1.105
-22.0,4.0,1.106
-23.0,-5.0,1.107
-14.0,-12.0,1.108
-5.0,-13.0,1.109
-1.0,-9.0,1.11
-1.0,-5.0,1.111
-1.0,-2.0,1.112
-1.0,-1.0,1.113
-1.0,0.0,1.114
0.0,0.0,1.115
-2.0,-3.0,1.116
-5.0,-5.0,1.117
-6.0,-7.0,1.118
2.0,-6.0,1.119
18.0,-4.0,1.12
30.0,-7.0,1.121
32.0,-4.0,1.122
30.0,0.0,1.123
23.0,5.0,1.124
5.0,8.0,1.125
-16.0,6.0,1.126
-27.0,0.0,1.127
-28.0,-4.0,1.128
-29.0,-2.0,1.129
-33.0,3.0,1.13
-31.0,4.0,1.131
-22.0,-2.0,1.132
-11.0,-5.0,1.133
-3.0,-1.0,1.134
1.0,5.0,1.135
4.0,5.0,1.136
8.0,3.0,1.137
11.0,2.0,1.138
16.0,1.0,1.139
20.0,0.0,1.14
20.0,-4.0,1.141
21.0,0.0,1.142
25.0,5.0,1.143
28.0,3.0,1.144
24.0,-1.0,1.145
20.0,-3.0,1.146
14.0,-4.0,1.147
10.0,-9.0,1.148
9.0,-13.0,1.149
5.0,-9.0,1.15
-8.0,-1.0,1.151
-17.0,0.0,1.152
-11.0,-7.0,1.153
-5.0,-9.0,1.154
-1.0,-3.0,1.155
1.0,4.0,1.156
-2.0,5.0,1.157
-4.0,-1.0,1.158
-4.0,-2.0,1.159
-2.0,0.0,1.16
-2.0,-1.0,1.161
-7.0,0.0,1.162
-5.0,1.0,1.163
9.0,2.0,1.164
18.0,2.0,1.165
15.0,3.0,1.166
2.0,4.0,1.167
-2.0,3.0,1.168
4.0,0.0,1.169
9.0,0.0,1.17
7.0,0.0,1.171
3.0,-2.0,1.172
-3.0,-4.0,1.173
-7.0,-4.0,1.174
-5.0,-3.0,1.175
3.0,-2.0,1.176
11.0,0.0,1.177
6.0,0.0,1.178
3.0,2.0,1.179
3.0,-1.0,1.18
3.0,-7.0,1.181
-2.0,-8.0,1.182
-7.0,-4.0,1.183
-3.0,2.0,1.184
8.0,3.0,1.185
17.0,1.0,1.186
27.0,-2.0,1.187
33.0,-5.0,1.188
23.0,-3.0,1.189
-5.0,0.0,1.19
-30.0,0.0,1.191
-37.0,-4.0,1.192
-33.0,-2.0,1.193
-32.0,3.0,1.194
-34.0,3.0,1.195
-27.0,-5.0,1.196
-13.0,-9.0,1.197
-4.0,-9.0,1.198
0.0,-7.0,1.199
2.0,-6.0,1.2
9.0,-7.0,1.201
17.0,-2.0,1.202
25.0,1.0,1.203
30.0,0.0,1.204
30.0,-1.0,1.205
24.0,1.0,1.206
22.0,2.0,1.207
23.0,1.0,1.208
24.0,3.0,1.209
21.0,8.0,1.21
16.0,8.0,1.211
11.0,3.0,1.212
8.0,0.0,1.213
7.0,-2.0,1.214
7.0,-4.0,1.215
6.0,-7.0,1.216
1.0,-5.0,1.217
-5.0,-2.0,1.218
-3.0,-2.0,1.219
1.0,-5.0,1.22
9.0,-9.0,1.221
16.0,-6.0,1.222
17.0,-3.0,1.223
17.0,-2.0,1.224
7.0,0.0,1.225
-2.0,3.0,1.226
-10.0,2.0,1.227
-17.0,-3.0,1.228
-21.0,-5.0,1.229
-23.0,-1.0,1.23
-20.0,1.0,1.231
-15.0,-3.0,1.232
-9.0,-5.0,1.233
-4.0,-4.0,1.234
-5.0,0.0,1.235
-6.0,1.0,1.236
-1.0,1.0,1.237
5.0,3.0,1.238
13.0,4.0,1.239
10.0,3.0,1.24
1.0,0.0,1.241
2.0,0.0,1.242
19.0,0.0,1.243
42.0,2.0,1.244
58.0,5.0,1.245
58.0,8.0,1.246
46.0,10.0,1.247
24.0,5.0,1.248
-6.0,2.0,1.249
-31.0,1.0,1.25
-43.0,-1.0,1.251
-43.0,-6.0,1.252
-44.0,-8.0,1.253
-51.0,-5.0,1.254
-55.0,-1.0,1.255
-51.0,-3.0,1.256
-37.0,-5.0,1.257
-18.0,-6.0,1.258
-3.0,-4.0,1.259
4.0,-4.0,1.26
5.0,-6.0,1.261
6.0,-5.0,1.262
17.0,-3.0,1.263
31.0,-3.0,1.264
35.0,-1.0,1.265
27.0,4.0,1.266
20.0,6.0,1.267
17.0,2.0,1.268
16.0,-2.0,1.269
18.0,-1.0,1.27
24.0,1.0,1.271
35.0,1.0,1.272
40.0,-3.0,1.273
32.0,-4.0,1.274
18.0,-2.0,1.275
4.0,0.0,1.276
-3.0,0.0,1.277
-11.0,2.0,1.278
-18.0,4.0,1.279
-23.0,4.0,1.28
-25.0,-4.0,1.281
-17.0,-8.0,1.282
0.0,-7.0,1.283
18.0,-4.0,1.284
22.0,-3.0,1.285
15.0,-5.0,1.286
10.0,-6.0,1.287
11.0,-4.0,1.288
11.0,-2.0,1.289
4.0,0.0,1.29
-1.0,2.0,1.291
2.0,1.0,1.292
9.0,0.0,1.293
13.0,1.0,1.294
12.0,6.0,1.295
10.0,10.0,1.296
7.0,10.0,1.297
0.0,2.0,1.298
-2.0,-6.0,1.299
-6.0,-11.0,1.3
-13.0,-16.0,1.301
-18.0,-16.0,1.302
-15.0,-14.0,1.303
-12.0,-10.0,1.304
-7.0,-3.0,1.305
-2.0,5.0,1.306
3.0,7.0,1.307
10.0,3.0,1.308
23.0,0.0,1.309
30.0,1.0,1.31
20.0,5.0,1.311
13.0,7.0,1.312
16.0,5.0,1.313
17.0,4.0,1.314
11.0,5.0,1.315
3.0,5.0,1.316
-8.0,6.0,1.317
-19.0,5.0,1.318
-21.0,2.0,1.319
-26.0,-1.0,1.32
-36.0,-5.0,1.321
-44.0,-7.0,1.322
-40.0,-8.0,1.323
-25.0,-10.0,1.324
-12.0,-8.0,1.325
-13.0,-4.0,1.326
-18.0,-5.0,1.327
-12.0,-8.0,1.328
4.0,-8.0,1.329
16.0,-6.0,1.33
15.0,-1.0,1.331
19.0,3.0,1.332
34.0,7.0,1.333
48.0,11.0,1.334
45.0,8.0,1.335
27.0,0.0,1.336
14.0,-3.0,1.337
7.0,-3.0,1.338
2.0,2.0,1.339
-2.0,5.0,1.34
-6.0,0.0,1.341
-5.0,-5.0,1.342
12.0,-9.0,1.343
26.0,-6.0,1.344
26.0,1.0,1.345
25.0,7.0,1.346
17.0,5.0,1.347
9.0,2.0,1.348
5.0,3.0,1.349
2.0,6.0,1.35
2.0,5.0,1.351
1.0,2.0,1.352
0.0,0.0,1.353
-1.0,0.0,1.354
3.0,-1.0,1.355
5.0,-3.0,1.356
2.0,0.0,1.357
0.0,0.0,1.358
-1.0,0.0,1.359
0.0,-1.0,1.36
-3.0,-5.0,1.361
-11.0,-6.0,1.362
-12.0,-10.0,1.363
0.0,-12.0,1.364
9.0,-9.0,1.365
2.0,-3.0,1.366
-3.0,0.0,1.367
4.0,0.0,1.368
16.0,0.0,1.369
15.0,2.0,1.37
7.0,3.0,1.371
11.0,2.0,1.372
20.0,3.0,1.373
15.0,3.0,1.374
-6.0,0.0,1.375
-22.0,-1.0,1.376
-23.0,2.0,1.377
-22.0,4.0,1.378
-26.0,0.0,1.379
-28.0,-4.0,1.38
-26.0,-6.0,1.381
-22.0,-3.0,1.382
-12.0,-5.0,1.383
-1.0,-10.0,1.384
12.0,-6.0,1.385
21.0,5.0,1.386
13.0,8.0,1.387
6.0,1.0,1.388
7.0,-4.0,1.389
9.0,1.0,1.39
11.0,7.0,1.391
10.0,5.0,1.392
0.0,-1.0,1.393
-5.0,-4.0,1.394
3.0,-5.0,1.395
10.0,-5.0,1.396
11.0,-1.0,1.397
10.0,2.0,1.398
11.0,0.0,1.399
15.0,-7.0,1.4
12.0,-11.0,1.401
2.0,-8.0,1.402
0.0,-4.0,1.403
11.0,-3.0,1.404
15.0,-2.0,1.405
10.0,1.0,1.406
5.0,0.0,1.407
9.0,-3.0,1.408
13.0,-2.0,1.409
8.0,3.0,1.41
9.0,6.0,1.411
20.0,6.0,1.412
27.0,4.0,1.413
14.0,2.0,1.414
-5.0,-1.0,1.415
-10.0,-2.0,1.416
-4.0,1.0,1.417
-5.0,0.0,1.418
-12.0,-1.0,1.419
-16.0,-2.0,1.42
-16.0,-2.0,1.421
-15.0,-3.0,1.422
-10.0,-7.0,1.423
4.0,-7.0,1.424
17.0,-1.0,1.425
21.0,4.0,1.426
18.0,1.0,1.427
20.0,-5.0,1.428
22.0,-7.0,1.429
19.0,-4.0,1.43
12.0,-5.0,1.431
9.0,-7.0,1.432
9.0,-6.0,1.433
2.0,-1.0,1.434
-11.0,2.0,1.435
-25.0,4.0,1.436
-31.0,6.0,1.437
-31.0,5.0,1.438
-28.0,3.0,1.439
-26.0,1.0,1.44
-27.0,0.0,1.441
-24.0,0.0,1.442
-9.0,-5.0,1.443
11.0,-11.0,1.444
21.0,-10.0,1.445
16.0,-4.0,1.446
11.0,0.0,1.447
12.0,1.0,1.448
16.0,1.0,1.449
11.0,1.0,1.45
1.0,-2.0,1.451
-2.0,-5.0,1.452
3.0,-6.0,1.453
10.0,-6.0,1.454
12.0,-5.0,1.455
7.0,-1.0,1.456
0.0,3.0,1.457
-7.0,5.0,1.458
-7.0,2.0,1.459
-5.0,1.0,1.46
0.0,0.0,1.461
8.0,0.0,1.462
20.0,-1.0,1.463
30.0,1.0,1.464
28.0,6.0,1.465
24.0,10.0,1.466
13.0,4.0,1.467
5.0,-3.0,1.468
6.0,-4.0,1.469
6.0,3.0,1.47
3.0,7.0,1.471
0.0,3.0,1.472
-4.0,-1.0,1.473
-6.0,0.0,1.474
-4.0,3.0,1.475
0.0,0.0,1.476
10.0,-2.0,1.477
18.0,-3.0,1.478
12.0,-2.0,1.479
-4.0,-7.0,1.48
-12.0,-18.0,1.481
-6.0,-18.0,1.482
10.0,-4.0,1.483
24.0,6.0,1.484
30.0,8.0,1.485
27.0,5.0,1.486
22.0,7.0,1.487
14.0,5.0,1.488
0.0,-1.0,1.489
-15.0,-4.0,1.49
-17.0,-2.0,1.491
-7.0,-2.0,1.492
-1.0,-7.0,1.493
-13.0,-12.0,1.494
-29.0,-8.0,1.495
-34.0,-2.0,1.496
-26.0,-1.0,1.497
-19.0,-8.0,1.498
-24.0,-7.0,1.499
-25.0,-1.0,1.5
-12.0,0.0,1.501
7.0,-3.0,1.502
21.0,-6.0,1.503
21.0,-5.0,1.504
17.0,-2.0,1.505
13.0,0.0,1.506
10.0,4.0,1.507
8.0,5.0,1.508
7.0,4.0,1.509
6.0,1.0,1.51
3.0,1.0,1.511
0.0,4.0,1.512
3.0,5.0,1.513
10.0,4.0,1.514
12.0,3.0,1.515
7.0,3.0,1.516
4.0,1.0,1.517
4.0,-3.0,1.518
5.0,-2.0,1.519
2.0,2.0,1.52
1.0,0.0,1.521
7.0,-3.0,1.522
18.0,-4.0,1.523
31.0,-3.0,1.524
38.0,-2.0,1.525
34.0,-1.0,1.526
19.0,0.0,1.527
2.0,1.0,1.528
-10.0,1.0,1.529
-19.0,0.0,1.53
-24.0,-2.0,1.531
-22.0,-2.0,1.532
-14.0,-1.0,1.533
-10.0,1.0,1.534
-13.0,4.0,1.535
-14.0,5.0,1.536
-7.0,6.0,1.537
2.0,4.0,1.538
9.0,2.0,1.539
15.0,1.0,1.54
17.0,0.0,1.541
20.0,3.0,1.542
20.0,8.0,1.543
20.0,8.0,1.544
21.0,4.0,1.545
23.0,5.0,1.546
22.0,8.0,1.547
21.0,5.0,1.548
21.0,-3.0,1.549
18.0,-7.0,1.55
10.0,-5.0,1.551
0.0,-3.0,1.552
-11.0,-6.0,1.553
-22.0,-6.0,1.554
-33.0,-4.0,1.555
-42.0,-4.0,1.556
-45.0,-6.0,1.557
-48.0,-8.0,1.558
-40.0,-6.0,1.559
-27.0,-5.0,1.56
-11.0,-11.0,1.561
1.0,-19.0,1.562
9.0,-19.0,1.563
15.0,-10.0,1.564
22.0,0.0,1.565
29.0,6.0,1.566
35.0,4.0,1.567
38.0,0.0,1.568
29.0,-1.0,1.569
9.0,1.0,1.57
-9.0,3.0,1.571
-16.0,3.0,1.572
-15.0,0.0,1.573
-14.0,-4.0,1.574
-11.0,-10.0,1.575
-4.0,-11.0,1.576
2.0,-7.0,1.577
9.0,-5.0,1.578
12.0,0.0,1.579
9.0,3.0,1.58
0.0,1.0,1.581
-8.0,0.0,1.582
-7.0,0.0,1.583
0.0,0.0,1.584
2.0,1.0,1.585
-3.0,0.0,1.586
-3.0,-2.0,1.587
3.0,-6.0,1.588
7.0,-9.0,1.589
6.0,-7.0,1.59
8.0,0.0,1.591
12.0,4.0,1.592
10.0,2.0,1.593
3.0,-1.0,1.594
3.0,1.0,1.595
12.0,5.0,1.596
15.0,5.0,1.597
13.0,4.0,1.598
13.0,6.0,1.599
14.0,8.0,1.6
15.0,1.0,1.601
15.0,-4.0,1.602
22.0,-1.0,1.603
29.0,4.0,1.604
26.0,7.0,1.605
18.0,6.0,1.606
13.0,7.0,1.607
10.0,6.0,1.608
-1.0,-2.0,1.609
-18.0,-9.0,1.61
-24.0,-6.0,1.611
-16.0,3.0,1.612
-5.0,9.0,1.613
-5.0,6.0,1.614
-14.0,-1.0,1.615
-19.0,-7.0,1.616
-15.0,-10.0,1.617
-9.0,-11.0,1.618
-1.0,-7.0,1.619
6.0,-2.0,1.62
10.0,-4.0,1.621
14.0,-7.0,1.622
14.0,-8.0,1.623
12.0,-8.0,1.624
5.0,-5.0,1.625
-3.0,1.0,1.626
-16.0,6.0,1.627
-25.0,6.0,1.628
-19.0,3.0,1.629
-14.0,2.0,1.63
-9.0,0.0,1.631
-3.0,-5.0,1.632
2.0,-7.0,1.633
8.0,-2.0,1.634
11.0,1.0,1.635
13.0,0.0,1.636
9.0,-3.0,1.637
4.0,-2.0,1.638
4.0,2.0,1.639
5.0,3.0,1.64
7.0,1.0,1.641
9.0,3.0,1.642
13.0,6.0,1.643
21.0,6.0,1.644
31.0,2.0,1.645
35.0,-2.0,1.646
35.0,-5.0,1.647
28.0,-7.0,1.648
9.0,-6.0,1.649
-15.0,-4.0,1.65
-29.0,-3.0,1.651
-28.0,-2.0,1.652
-20.0,0.0,1.653
-16.0,3.0,1.654
-12.0,-1.0,1.655
-9.0,-8.0,1.656
-8.0,-8.0,1.657
-9.0,1.0,1.658
-5.0,6.0,1.659
-1.0,3.0,1.66
-2.0,-7.0,1.661
-4.0,-11.0,1.662
3.0,-10.0,1.663
18.0,-5.0,1.664
26.0,-1.0,1.665
22.0,1.0,1.666
14.0,1.0,1.667
10.0,0.0,1.668
8.0,4.0,1.669
5.0,4.0,1.67
1.0,-1.0,1.671
-2.0,-7.0,1.672
-5.0,-7.0,1.673
-5.0,-2.0,1.674
0.0,3.0,1.675
6.0,5.0,1.676
8.0,8.0,1.677
10.0,8.0,1.678
19.0,8.0,1.679
23.0,4.0,1.68
18.0,-2.0,1.681
9.0,-5.0,1.682
13.0,-7.0,1.683
23.0,-9.0,1.684
22.0,-8.0,1.685
4.0,-3.0,1.686
-12.0,3.0,1.687
-15.0,6.0,1.688
-11.0,4.0,1.689
-13.0,0.0,1.69
-19.0,-2.0,1.691
-23.0,0.0,1.692
-22.0,1.0,1.693
-15.0,3.0,1.694
-7.0,4.0,1.695
-6.0,1.0,1.696
-11.0,-2.0,1.697
-12.0,-10.0,1.698
-2.0,-15.0,1.699
5.0,-14.0,1.7
7.0,-10.0,1.701
9.0,-4.0,1.702
6.0,0.0,1.703
5.0,1.0,1.704
11.0,1.0,1.705
16.0,3.0,1.706
19.0,5.0,1.707
20.0,4.0,1.708
13.0,1.0,1.709
9.0,0.0,1.71
14.0,-1.0,1.711
18.0,0.0,1.712
19.0,2.0,1.713
17.0,5.0,1.714
6.0,5.0,1.715
-2.0,1.0,1.716
0.0,0.0,1.717
3.0,0.0,1.718
19.0,1.0,1.719
23.0,0.0,1.72
8.0,-4.0,1.721
-12.0,-3.0,1.722
-21.0,-3.0,1.723
-19.0,-3.0,1.724
-19.0,-4.0,1.725
-28.0,-1.0,1.726
-33.0,2.0,1.727
-21.0,2.0,1.728
-5.0,-1.0,1.729
-1.0,-2.0,1.73
-12.0,-2.0,1.731
-20.0,-1.0,1.732
-13.0,-3.0,1.733
1.0,-1.0,1.734
11.0,2.0,1.735
7.0,2.0,1.736
4.0,1.0,1.737
11.0,-1.0,1.738
21.0,1.0,1.739
25.0,2.0,1.74
26.0,-5.0,1.741
30.0,-11.0,1.742
39.0,-10.0,1.743
39.0,-3.0,1.744
25.0,2.0,1.745
5.0,3.0,1.746
-6.0,2.0,1.747
-8.0,4.0,1.748
-6.0,7.0,1.749
-8.0,5.0,1.75
-10.0,1.0,1.751
-11.0,-4.0,1.752
-9.0,-7.0,1.753
-3.0,-6.0,1.754
6.0,-4.0,1.755
11.0,-4.0,1.756
10.0,-3.0,1.757
3.0,-3.0,1.758
-3.0,-3.0,1.759
-13.0,0.0,1.76
-20.0,0.0,1.761
-20.0,0.0,1.762
-9.0,-3.0,1.763
5.0,-8.0,1.764
12.0,-7.0,1.765
12.0,-1.0,1.766
13.0,2.0,1.767
19.0,0.0,1.768
19.0,-4.0,1.769
12.0,-3.0,1.77
7.0,1.0,1.771
8.0,3.0,1.772
8.0,2.0,1.773
4.0,1.0,1.774
5.0,0.0,1.775
12.0,-1.0,1.776
18.0,-2.0,1.777
17.0,-2.0,1.778
9.0,1.0,1.779
1.0,0.0,1.78
-7.0,-4.0,1.781
-12.0,-5.0,1.782
-5.0,-1.0,1.783
1.0,4.0,1.784
1.0,5.0,1.785
3.0,2.0,1.786
11.0,-4.0,1.787
19.0,-8.0,1.788
25.0,-6.0,1.789
28.0,0.0,1.79
19.0,4.0,1.791
8.0,1.0,1.792
-8.0,-2.0,1.793
-23.0,-1.0,1.794
-35.0,0.0,1.795
-43.0,0.0,1.796
-39.0,0.0,1.797
-32.0,-1.0,1.798
-21.0,1.0,1.799
-18.0,3.0,1.8
-19.0,-1.0,1.801
-14.0,-6.0,1.802
6.0,-10.0,1.803
23.0,-9.0,1.804
25.0,-5.0,1.805
18.0,0.0,1.806
18.0,-1.0,1.807
22.0,-2.0,1.808
18.0,3.0,1.809
5.0,8.0,1.81
-3.0,7.0,1.811
-2.0,2.0,1.812
4.0,1.0,1.813
10.0,5.0,1.814
21.0,5.0,1.815
26.0,1.0,1.816
17.0,1.0,1.817
-2.0,2.0,1.818
-6.0,4.0,1.819
1.0,1.0,1.82
6.0,-3.0,1.821
6.0,-4.0,1.822
13.0,-5.0,1.823
21.0,-4.0,1.824
20.0,-1.0,1.825
13.0,1.0,1.826
12.0,1.0,1.827
15.0,-4.0,1.828
9.0,-6.0,1.829
-6.0,-3.0,1.83
-17.0,1.0,1.831
-19.0,2.0,1.832
-26.0,0.0,1.833
-37.0,-1.0,1.834
-36.0,-5.0,1.835
-17.0,-10.0,1.836
5.0,-9.0,1.837
15.0,-6.0,1.838
15.0,-5.0,1.839
10.0,-6.0,1.84
8.0,-8.0,1.841
9.0,-3.0,1.842
12.0,5.0,1.843
16.0,9.0,1.844
13.0,10.0,1.845
5.0,8.0,1.846
-4.0,5.0,1.847
-8.0,-1.0,1.848
-8.0,-4.0,1.849
-5.0,-1.0,1.85
-3.0,3.0,1.851
-3.0,4.0,1.852
-3.0,2.0,1.853
3.0,-3.0,1.854
15.0,-4.0,1.855
22.0,-1.0,1.856
20.0,2.0,1.857
15.0,0.0,1.858
15.0,-3.0,1.859
13.0,-1.0,1.86
7.0,2.0,1.861
3.0,5.0,1.862
5.0,2.0,1.863
5.0,-1.0,1.864
-4.0,-1.0,1.865
-11.0,-2.0,1.866
-9.0,-8.0,1.867
-8.0,-9.0,1.868
-6.0,-6.0,1.869
-3.0,-2.0,1.87
6.0,0.0,1.871
12.0,0.0,1.872
8.0,5.0,1.873
4.0,9.0,1.874
-1.0,6.0,1.875
-5.0,1.0,1.876
-2.0,2.0,1.877
0.0,4.0,1.878
4.0,2.0,1.879
11.0,-5.0,1.88
12.0,-10.0,1.881
0.0,-9.0,1.882
-7.0,-4.0,1.883
-4.0,0.0,1.884
3.0,4.0,1.885
2.0,3.0,1.886
-4.0,-4.0,1.887
-3.0,-13.0,1.888
5.0,-12.0,1.889
14.0,-5.0,1.89
20.0,0.0,1.891
25.0,0.0,1.892
22.0,0.0,1.893
11.0,2.0,1.894
1.0,0.0,1.895
-2.0,-6.0,1.896
-4.0,-7.0,1.897
-6.0,-4.0,1.898
-10.0,2.0,1.899
-15.0,1.0,1.9
-19.0,-7.0,1.901
-12.0,-9.0,1.902
4.0,-6.0,1.903
18.0,-4.0,1.904
17.0,0.0,1.905
6.0,5.0,1.906
2.0,9.0,1.907
2.0,5.0,1.908
-3.0,-2.0,1.909
-11.0,-2.0,1.91
-11.0,3.0,1.911
0.0,4.0,1.912
13.0,-2.0,1.913
23.0,-5.0,1.914
29.0,-1.0,1.915
28.0,1.0,1.916
21.0,-1.0,1.917
8.0,-2.0,1.918
0.0,2.0,1.919
-3.0,5.0,1.92
-4.0,-1.0,1.921
-5.0,-8.0,1.922
-7.0,-8.0,1.923
-7.0,-3.0,1.924
-6.0,2.0,1.925
-1.0,3.0,1.926
4.0,2.0,1.927
-3.0,2.0,1.928
-16.0,2.0,1.929
-17.0,3.0,1.93
-1.0,2.0,1.931
17.0,0.0,1.932
17.0,-2.0,1.933
3.0,-4.0,1.934
-10.0,-5.0,1.935
-18.0,-3.0,1.936
-19.0,0.0,1.937
-14.0,2.0,1.938
-4.0,4.0,1.939
3.0,2.0,1.94
3.0,-2.0,1.941
6.0,-4.0,1.942
15.0,-4.0,1.943
21.0,-4.0,1.944
12.0,-3.0,1.945
3.0,-2.0,1.946
-4.0,-5.0,1.947
-9.0,-9.0,1.948
-6.0,-8.0,1.949
-1.0,-6.0,1.95
5.0,-5.0,1.951
11.0,-5.0,1.952
12.0,0.0,1.953
12.0,6.0,1.954
5.0,7.0,1.955
-1.0,3.0,1.956
0.0,3.0,1.957
0.0,5.0,1.958
-8.0,3.0,1.959
-11.0,-2.0,1.96
-4.0,-6.0,1.961
3.0,-5.0,1.962
10.0,0.0,1.963
14.0,4.0,1.964
12.0,3.0,1.965
6.0,-4.0,1.966
5.0,-11.0,1.967
14.0,-13.0,1.968
22.0,-5.0,1.969
24.0,6.0,1.97
23.0,12.0,1.971
22.0,11.0,1.972
11.0,8.0,1.973
-4.0,3.0,1.974
-8.0,-3.0,1.975
2.0,-6.0,1.976
17.0,-4.0,1.977
15.0,-1.0,1.978
6.0,2.0,1.979
0.0,-1.0,1.98
0.0,-7.0,1.981
-1.0,-5.0,1.982
-4.0,3.0,1.983
-10.0,11.0,1.984
-17.0,13.0,1.985
-19.0,6.0,1.986
-13.0,-4.0,1.987
-1.0,-12.0,1.988
4.0,-12.0,1.989
-4.0,-5.0,1.99
-19.0,2.0,1.991
-28.0,1.0,1.992
-28.0,-4.0,1.993
-18.0,-7.0,1.994
-3.0,-6.0,1.995
12.0,-5.0,1.996
26.0,-3.0,1.997
30.0,-1.0,1.998
27.0,3.0,1.999
22.0,2.0,2.0
13.0,-5.0,2.001
5.0,-9.0,2.002
8.0,-6.0,2.003
9.0,0.0,2.004
1.0,4.0,2.005
-7.0,2.0,2.006
-6.0,0.0,2.007
-4.0,-1.0,2.008
-6.0,-4.0,2.009
-4.0,-6.0,2.01
5.0,-5.0,2.011
14.0,-2.0,2.012
13.0,0.0,2.013
8.0,1.0,2.014
-4.0,0.0,2.015
-14.0,2.0,2.016
-14.0,7.0,2.017
21.0,8.0,2.018
19.0,6.0,2.019
16.0,4.0,2.02
10.0,2.0,2.021
5.0,0.0,2.022
7.0,0.0,2.023
8.0,0.0,2.024
2.0,-4.0,2.025
-3.0,-7.0,2.026
-2.0,-5.0,2.027
-1.0,-4.0,2.028
-2.0,-3.0,2.029
-1.0,-2.0,2.03
5.0,-4.0,2.031
11.0,-6.0,2.032
10.0,-7.0,2.033
7.0,-7.0,2.034
-1.0,0.0,2.035
-7.0,6.0,2.036
-7.0,7.0,2.037
-9.0,6.0,2.038
-20.0,0.0,2.039
-21.0,-2.0,2.04
-13.0,-4.0,2.041
-8.0,-3.0,2.042
-3.0,-2.0,2.043
6.0,2.0,2.044
13.0,4.0,2.045
10.0,-1.0,2.046
6.0,-6.0,2.047
12.0,-6.0,2.048
18.0,1.0,2.049
15.0,5.0,2.05
9.0,0.0,2.051
8.0,-5.0,2.052
11.0,-3.0,2.053
10.0,2.0,2.054
8.0,3.0,2.055
7.0,0.0,2.056
4.0,2.0,2.057
1.0,5.0,2.058
5.0,6.0,2.059
14.0,3.0,2.06
16.0,-1.0,2.061
8.0,-2.0,2.062
2.0,-3.0,2.063
4.0,-5.0,2.064
0.0,-3.0,2.065
-10.0,-3.0,2.066
-10.0,-4.0,2.067
7.0,-4.0,2.068
21.0,-3.0,2.069
14.0,-1.0,2.07
-3.0,0.0,2.071
-11.0,3.0,2.072
-8.0,6.0,2.073
-12.0,4.0,2.074
-27.0,-1.0,2.075
-38.0,-6.0,2.076
-35.0,-3.0,2.077
-27.0,0.0,2.078
-24.0,-3.0,2.079
-26.0,-6.0,2.08
-27.0,-9.0,2.081
-20.0,-10.0,2.082
-3.0,-13.0,2.083
17.0,-13.0,2.084
28.0,-4.0,2.085
23.0,7.0,2.086
15.0,9.0,2.087
8.0,5.0,2.088
6.0,3.0,2.089
4.0,3.0,2.09
5.0,2.0,2.091
16.0,0.0,2.092
27.0,-3.0,2.093
29.0,-2.0,2.094
21.0,-1.0,2.095
13.0,1.0,2.096
13.0,5.0,2.097
9.0,6.0,2.098
2.0,4.0,2.099
-4.0,2.0,2.1
-5.0,-2.0,2.101
-3.0,-5.0,2.102
9.0,-2.0,2.103
17.0,0.0,2.104
13.0,-1.0,2.105
9.0,-3.0,2.106
9.0,-5.0,2.107
13.0,-7.0,2.108
25.0,-1.0,2.109
34.0,3.0,2.11
29.0,4.0,2.111
21.0,5.0,2.112
6.0,6.0,2.113
-6.0,7.0,2.114
-12.0,3.0,2.115
-18.0,0.0,2.116
-18.0,1.0,2.117
-17.0,2.0,2.118
-20.0,0.0,2.119
-23.0,-9.0,2.12
-22.0,-18.0,2.121
-16.0,-15.0,2.122
-5.0,-6.0,2.123
4.0,2.0,2.124
9.0,5.0,2.125
12.0,3.0,2.126
20.0,0.0,2.127
31.0,-1.0,2.128
38.0,-2.0,2.129
33.0,-1.0,2.13
21.0,3.0,2.131
9.0,8.0,2.132
-3.0,8.0,2.133
-14.0,2.0,2.134
-20.0,-2.0,2.135
-23.0,-3.0,2.136
-24.0,0.0,2.137
-21.0,1.0,2.138
-11.0,1.0,2.139
-3.0,0.0,2.14
-5.0,-6.0,2.141
-10.0,-8.0,2.142
-1.0,-5.0,2.143
18.0,-2.0,2.144
30.0,1.0,2.145
32.0,2.0,2.146
35.0,0.0,2.147
37.0,-2.0,2.148
19.0,-4.0,2.149
-12.0,-2.0,2.15
-32.0,2.0,2.151
-26.0,6.0,2.152
-13.0,8.0,2.153
-15.0,7.0,2.154
-23.0,0.0,2.155
-23.0,-10.0,2.156
-17.0,-20.0,2.157
-14.0,-21.0,2.158
-8.0,-11.0,2.159
4.0,-2.0,2.16
15.0,-2.0,2.161
16.0,-6.0,2.162
10.0,-8.0,2.163
8.0,-7.0,2.164
8.0,-5.0,2.165
8.0,0.0,2.166
8.0,3.0,2.167
6.0,5.0,2.168
1.0,3.0,2.169
-2.0,0.0,2.17
-1.0,2.0,2.171
0.0,4.0,2.172
2.0,5.0,2.173
5.0,5.0,2.174
11.0,7.0,2.175
12.0,8.0,2.176
11.0,8.0,2.177
10.0,4.0,2.178
15.0,3.0,2.179
17.0,1.0,2.18
7.0,-4.0,2.181
0.0,-5.0,2.182
4.0,-2.0,2.183
8.0,2.0,2.184
13.0,3.0,2.185
17.0,0.0,2.186
13.0,-2.0,2.187
9.0,-2.0,2.188
5.0,1.0,2.189
1.0,3.0,2.19
1.0,0.0,2.191
4.0,-3.0,2.192
12.0,-2.0,2.193
19.0,2.0,2.194
19.0,3.0,2.195
16.0,2.0,2.196
2.0,0.0,2.197
-13.0,-4.0,2.198
-25.0,-8.0,2.199
-28.0,-9.0,2.2
-25.0,-10.0,2.201
-21.0,-9.0,2.202
-11.0,-8.0,2.203
4.0,-7.0,2.204
12.0,-3.0,2.205
12.0,1.0,2.206
11.0,6.0,2.207
12.0,8.0,2.208
8.0,6.0,2.209
3.0,3.0,2.21
6.0,1.0,2.211
14.0,1.0,2.212
12.0,2.0,2.213
5.0,2.0,2.214
1.0,0.0,2.215
-3.0,-1.0,2.216
-15.0,-1.0,2.217
-30.0,-4.0,2.218
-27.0,-4.0,2.219
-12.0,-3.0,2.22
-6.0,-5.0,2.221
-12.0,-8.0,2.222
-9.0,-9.0,2.223
1.0,-6.0,2.224
4.0,0.0,2.225
-2.0,4.0,2.226
-1.0,5.0,2.227
13.0,0.0,2.228
26.0,-5.0,2.229
29.0,-6.0,2.23
27.0,-2.0,2.231
27.0,-1.0,2.232
24.0,-3.0,2.233
18.0,-6.0,2.234
10.0,-5.0,2.235
-4.0,-3.0,2.236
-17.0,0.0,2.237
-20.0,1.0,2.238
-8.0,3.0,2.239
1.0,3.0,2.24
1.0,1.0,2.241
-2.0,0.0,2.242
4.0,1.0,2.243
15.0,2.0,2.244
22.0,2.0,2.245
26.0,3.0,2.246
32.0,2.0,2.247
28.0,0.0,2.248
11.0,-2.0,2.249
-4.0,-1.0,2.25
-5.0,1.0,2.251
-2.0,-1.0,2.252
-13.0,-6.0,2.253
-28.0,-9.0,2.254
-33.0,-8.0,2.255
-29.0,-5.0,2.256
-29.0,-3.0,2.257
-31.0,-5.0,2.258
-23.0,-5.0,2.259
-14.0,-4.0,2.26
-4.0,-6.0,2.261
5.0,-8.0,2.262
13.0,-2.0,2.263
20.0,3.0,2.264
22.0,7.0,2.265
24.0,10.0,2.266
24.0,8.0,2.267
25.0,6.0,2.268
29.0,4.0,2.269
32.0,2.0,2.27
32.0,3.0,2.271
31.0,4.0,2.272
27.0,4.0,2.273
20.0,3.0,2.274
5.0,1.0,2.275
-7.0,0.0,2.276
-11.0,0.0,2.277
-15.0,-2.0,2.278
-20.0,-4.0,2.279
-26.0,-1.0,2.28
-27.0,-2.0,2.281
-21.0,-3.0,2.282
-12.0,-4.0,2.283
-1.0,2.0,2.284
3.0,7.0,2.285
4.0,4.0,2.286
3.0,0.0,2.287
0.0,-2.0,2.288
-3.0,1.0,2.289
-5.0,3.0,2.29
-2.0,-1.0,2.291
1.0,-6.0,2.292
1.0,-4.0,2.293
1.0,-2.0,2.294
4.0,0.0,2.295
9.0,1.0,2.296
14.0,5.0,2.297
10.0,4.0,2.298
3.0,1.0,2.299
-3.0,-1.0,2.3
-3.0,-2.0,2.301
3.0,0.0,2.302
12.0,0.0,2.303
18.0,-3.0,2.304
21.0,-5.0,2.305
26.0,-3.0,2.306
32.0,-1.0,2.307
34.0,-3.0,2.308
22.0,-6.0,2.309
1.0,-5.0,2.31
-17.0,-3.0,2.311
-24.0,-2.0,2.312
-22.0,-4.0,2.313
-21.0,-6.0,2.314
-23.0,-2.0,2.315
-26.0,0.0,2.316
-22.0,0.0,2.317
-11.0,-4.0,2.318
-4.0,-7.0,2.319
-8.0,-7.0,2.32
-10.0,-10.0,2.321
0.0,-13.0,2.322
19.0,-13.0,2.323
31.0,-7.0,2.324
27.0,1.0,2.325
21.0,5.0,2.326
19.0,0.0,2.327
16.0,-4.0,2.328
10.0,-3.0,2.329
5.0,-2.0,2.33
3.0,-3.0,2.331
6.0,-3.0,2.332
10.0,1.0,2.333
18.0,6.0,2.334
21.0,5.0,2.335
14.0,3.0,2.336
-1.0,4.0,2.337
-10.0,7.0,2.338
-8.0,6.0,2.339
-7.0,4.0,2.34
-6.0,1.0,2.341
-4.0,-1.0,2.342
0.0,0.0,2.343
1.0,2.0,2.344
-8.0,4.0,2.345
-13.0,6.0,2.346
-1.0,4.0,2.347
9.0,3.0,2.348
11.0,2.0,2.349
11.0,1.0,2.35
1.0,2.0,2.351
-6.0,4.0,2.352
-6.0,6.0,2.353
-6.0,8.0,2.354
-10.0,3.0,2.355
-15.0,-1.0,2.356
-20.0,-2.0,2.357
-23.0,-3.0,2.358
-22.0,-6.0,2.359
-22.0,-12.0,2.36
-20.0,-17.0,2.361
-7.0,-11.0,2.362
14.0,0.0,2.363
30.0,5.0,2.364
32.0,2.0,2.365
23.0,0.0,2.366
18.0,3.0,2.367
22.0,4.0,2.368
28.0,1.0,2.369
30.0,-1.0,2.37
31.0,-1.0,2.371
31.0,2.0,2.372
28.0,5.0,2.373
20.0,5.0,2.374
9.0,3.0,2.375
2.0,0.0,2.376
-2.0,1.0,2.377
-12.0,-1.0,2.378
-20.0,-5.0,2.379
-24.0,-9.0,2.38
-22.0,-11.0,2.381
-16.0,-9.0,2.382
-9.0,-8.0,2.383
2.0,-9.0,2.384
10.0,-9.0,2.385
6.0,-5.0,2.386
-3.0,-4.0,2.387
-7.0,-5.0,2.388
-4.0,-7.0,2.389
-4.0,-6.0,2.39
-7.0,-5.0,2.391
-6.0,-7.0,2.392
-2.0,-9.0,2.393
4.0,-6.0,2.394
9.0,-3.0,2.395
11.0,-4.0,2.396
7.0,-8.0,2.397
-2.0,-10.0,2.398
-1.0,-8.0,2.399
7.0,-3.0,2.4
11.0,-5.0,2.401
5.0,-7.0,2.402
9.0,-5.0,2.403
28.0,2.0,2.404
44.0,14.0,2.405
36.0,22.0,2.406
17.0,18.0,2.407
6.0,9.0,2.408
2.0,3.0,2.409
-9.0,0.0,2.41
-28.0,-1.0,2.411
-39.0,-4.0,2.412
-34.0,-3.0,2.413
-24.0,1.0,2.414
-21.0,0.0,2.415
-20.0,-3.0,2.416
-14.0,1.0,2.417
-5.0,6.0,2.418
4.0,6.0,2.419
12.0,4.0,2.42
10.0,-2.0,2.421
9.0,-6.0,2.422
14.0,0.0,2.423
18.0,5.0,2.424
21.0,5.0,2.425
22.0,5.0,2.426
15.0,2.0,2.427
11.0,-1.0,2.428
17.0,-1.0,2.429
22.0,0.0,2.43
20.0,1.0,2.431
17.0,2.0,2.432
9.0,2.0,2.433
1.0,3.0,2.434
0.0,2.0,2.435
-3.0,1.0,2.436
-7.0,4.0,2.437
-10.0,7.0,2.438
-3.0,6.0,2.439
6.0,-1.0,2.44
9.0,-9.0,2.441
-1.0,-9.0,2.442
-10.0,-8.0,2.443
-14.0,-11.0,2.444
-12.0,-15.0,2.445
-11.0,-8.0,2.446
-9.0,5.0,2.447
-6.0,8.0,2.448
-4.0,-1.0,2.449
-3.0,-6.0,2.45
-2.0,-2.0,2.451
0.0,3.0,2.452
2.0,-1.0,2.453
-1.0,-5.0,2.454
-2.0,-2.0,2.455
1.0,2.0,2.456
11.0,2.0,2.457
20.0,0.0,2.458
27.0,-1.0,2.459
29.0,-3.0,2.46
21.0,-10.0,2.461
7.0,-11.0,2.462
-5.0,-7.0,2.463
-8.0,-6.0,2.464
-6.0,-6.0,2.465
-5.0,-1.0,2.466
-5.0,6.0,2.467
-4.0,4.0,2.468
-2.0,-4.0,2.469
6.0,-6.0,2.47
17.0,0.0,2.471
18.0,3.0,2.472
3.0,2.0,2.473
-14.0,4.0,2.474
-19.0,10.0,2.475
-11.0,12.0,2.476
-8.0,9.0,2.477
-17.0,1.0,2.478
-19.0,-1.0,2.479
-6.0,-3.0,2.48
15.0,-8.0,2.481
33.0,-12.0,2.482
41.0,-10.0,2.483
37.0,-5.0,2.484
20.0,0.0,2.485
-3.0,2.0,2.486
-17.0,2.0,2.487
-19.0,1.0,2.488
-18.0,2.0,2.489
-20.0,2.0,2.49
-20.0,4.0,2.491
-15.0,3.0,2.492
-10.0,3.0,2.493
-10.0,2.0,2.494
-9.0,0.0,2.495
2.0,-5.0,2.496
21.0,-7.0,2.497
30.0,-6.0,2.498
30.0,0.0,2.499
28.0,5.0,2.5
22.0,1.0,2.501
15.0,-2.0,2.502
8.0,0.0,2.503
1.0,1.0,2.504
-1.0,1.0,2.505
-1.0,1.0,2.506
8.0,0.0,2.507
17.0,-1.0,2.508
23.0,3.0,2.509
26.0,6.0,2.51
14.0,6.0,2.511
2.0,7.0,2.512
-9.0,7.0,2.513
-17.0,5.0,2.514
-12.0,1.0,2.515
-8.0,-4.0,2.516
-11.0,-9.0,2.517
-17.0,-13.0,2.518
-28.0,-13.0,2.519
-27.0,-12.0,2.52
-20.0,-15.0,2.521
-12.0,-15.0,2.522
-1.0,-13.0,2.523
14.0,-9.0,2.524
22.0,-3.0,2.525
18.0,3.0,2.526
11.0,4.0,2.527
17.0,2.0,2.528
28.0,3.0,2.529
32.0,7.0,2.53
28.0,7.0,2.531
24.0,1.0,2.532
21.0,-4.0,2.533
15.0,-1.0,2.534
2.0,5.0,2.535
-4.0,6.0,2.536
-6.0,4.0,2.537
-9.0,3.0,2.538
-11.0,7.0,2.539
-13.0,8.0,2.54
-16.0,-1.0,2.541
-17.0,-8.0,2.542
-9.0,-8.0,2.543
0.0,-8.0,2.544
12.0,-3.0,2.545
19.0,1.0,2.546
10.0,0.0,2.547
0.0,-2.0,2.548
-9.0,-6.0,2.549
-20.0,-9.0,2.55
-33.0,-8.0,2.551
-39.0,-7.0,2.552
-21.0,-6.0,2.553
-7.0,-5.0,2.554
-2.0,-3.0,2.555
2.0,-1.0,2.556
2.0,4.0,2.557
5.0,8.0,2.558
16.0,6.0,2.559
24.0,0.0,2.56
32.0,-4.0,2.561
35.0,-1.0,2.562
32.0,5.0,2.563
27.0,8.0,2.564
26.0,10.0,2.565
23.0,10.0,2.566
11.0,8.0,2.567
-5.0,3.0,2.568
-14.0,2.0,2.569
-17.0,2.0,2.57
-19.0,0.0,2.571
-21.0,-5.0,2.572
-26.0,-9.0,2.573
-28.0,-7.0,2.574
-25.0,-5.0,2.575
-14.0,-4.0,2.576
0.0,-1.0,2.577
3.0,-4.0,2.578
2.0,-8.0,2.579
1.0,-11.0,2.58
2.0,-13.0,2.581
6.0,-13.0,2.582
16.0,-7.0,2.583
25.0,-2.0,2.584
27.0,-2.0,2.585
29.0,0.0,2.586
26.0,2.0,2.587
24.0,5.0,2.588
24.0,6.0,2.589
21.0,7.0,2.59
9.0,5.0,2.591
0.0,3.0,2.592
1.0,1.0,2.593
4.0,0.0,2.594
8.0,4.0,2.595
10.0,8.0,2.596
6.0,8.0,2.597
1.0,9.0,2.598
-9.0,8.0,2.599
-10.0,5.0,2.6
-4.0,-6.0,2.601
-6.0,-14.0,2.602
-18.0,-12.0,2.603
-27.0,-2.0,2.604
-25.0,3.0,2.605
-20.0,-1.0,2.606
-13.0,-8.0,2.607
-7.0,-8.0,2.608
-3.0,-6.0,2.609
0.0,-2.0,2.61
3.0,0.0,2.611
10.0,1.0,2.612
13.0,1.0,2.613
13.0,2.0,2.614
7.0,4.0,2.615
0.0,4.0,2.616
-3.0,3.0,2.617
-5.0,1.0,2.618
-1.0,0.0,2.619
6.0,-2.0,2.62
10.0,-8.0,2.621
12.0,-9.0,2.622
15.0,-5.0,2.623
22.0,1.0,2.624
27.0,4.0,2.625
27.0,2.0,2.626
29.0,0.0,2.627
29.0,-1.0,2.628
20.0,-2.0,2.629
3.0,0.0,2.63
-7.0,2.0,2.631
-9.0,4.0,2.632
-19.0,4.0,2.633
-39.0,2.0,2.634
-55.0,-3.0,2.635
-51.0,-8.0,2.636
-35.0,-9.0,2.637
-23.0,-10.0,2.638
-18.0,-9.0,2.639
-16.0,-10.0,2.64
-9.0,-12.0,2.641
0.0,-10.0,2.642
12.0,-7.0,2.643
23.0,-1.0,2.644
27.0,8.0,2.645
25.0,14.0,2.646
24.0,11.0,2.647
23.0,3.0,2.648
21.0,0.0,2.649
17.0,5.0,2.65
17.0,10.0,2.651
17.0,8.0,2.652
13.0,1.0,2.653
5.0,-2.0,2.654
2.0,-2.0,2.655
6.0,1.0,2.656
10.0,7.0,2.657
6.0,8.0,2.658
3.0,3.0,2.659
0.0,-2.0,2.66
0.0,-6.0,2.661
0.0,-9.0,2.662
5.0,-7.0,2.663
13.0,-5.0,2.664
25.0,0.0,2.665
36.0,4.0,2.666
42.0,4.0,2.667
42.0,5.0,2.668
23.0,5.0,2.669
5.0,3.0,2.67
-7.0,-5.0,2.671
-17.0,-11.0,2.672
-23.0,-6.0,2.673
-28.0,-1.0,2.674
-26.0,1.0,2.675
-25.0,3.0,2.676
-27.0,0.0,2.677
-28.0,-2.0,2.678
-23.0,3.0,2.679
-13.0,6.0,2.68
-4.0,4.0,2.681
1.0,2.0,2.682
7.0,1.0,2.683
11.0,1.0,2.684
4.0,1.0,2.685
-3.0,0.0,2.686
-4.0,-3.0,2.687
3.0,-8.0,2.688
13.0,-10.0,2.689
17.0,-8.0,2.69
15.0,-8.0,2.691
7.0,-7.0,2.692
0.0,-3.0,2.693
2.0,4.0,2.694
13.0,5.0,2.695
21.0,1.0,2.696
23.0,0.0,2.697
19.0,0.0,2.698
8.0,-1.0,2.699
-11.0,0.0,2.7
-25.0,1.0,2.701
-27.0,3.0,2.702
-18.0,0.0,2.703
-11.0,-7.0,2.704
-9.0,-6.0,2.705
-9.0,0.0,2.706
-8.0,0.0,2.707
-7.0,-5.0,2.708
-2.0,-3.0,2.709
10.0,3.0,2.71
22.0,5.0,2.711
22.0,-1.0,2.712
10.0,-4.0,2.713
-1.0,-2.0,2.714
-5.0,1.0,2.715
-2.0,-2.0,2.716
1.0,-3.0,2.717
4.0,-2.0,2.718
8.0,1.0,2.719
8.0,0.0,2.72
4.0,-6.0,2.721
3.0,-8.0,2.722
9.0,-6.0,2.723
14.0,-1.0,2.724
17.0,1.0,2.725
17.0,3.0,2.726
17.0,1.0,2.727
20.0,2.0,2.728
29.0,5.0,2.729
39.0,7.0,2.73
40.0,3.0,2.731
26.0,-4.0,2.732
8.0,-9.0,2.733
0.0,-9.0,2.734
-5.0,-9.0,2.735
-19.0,-6.0,2.736
-33.0,2.0,2.737
-38.0,7.0,2.738
-30.0,6.0,2.739
-24.0,3.0,2.74
-22.0,-2.0,2.741
-16.0,-3.0,2.742
4.0,-6.0,2.743
18.0,-9.0,2.744
13.0,-6.0,2.745
7.0,1.0,2.746
1.0,5.0,2.747
-4.0,3.0,2.748
-2.0,1.0,2.749
-1.0,2.0,2.75
-5.0,2.0,2.751
-7.0,-1.0,2.752
-3.0,-5.0,2.753
2.0,-4.0,2.754
6.0,-2.0,2.755
12.0,-3.0,2.756
20.0,0.0,2.757
28.0,4.0,2.758
25.0,4.0,2.759
16.0,0.0,2.76
5.0,-5.0,2.761
-5.0,-4.0,2.762
-14.0,-1.0,2.763
-20.0,-2.0,2.764
-22.0,-4.0,2.765
-23.0,-4.0,2.766
-22.0,-3.0,2.767
-15.0,1.0,2.768
-1.0,5.0,2.769
17.0,6.0,2.77
28.0,3.0,2.771
28.0,1.0,2.772
20.0,2.0,2.773
13.0,2.0,2.774
6.0,0.0,2.775
0.0,-2.0,2.776
-4.0,2.0,2.777
-10.0,6.0,2.778
-12.0,3.0,2.779
-13.0,-4.0,2.78
-12.0,-10.0,2.781
-7.0,-10.0,2.782
2.0,-10.0,2.783
13.0,-8.0,2.784
20.0,-2.0,2.785
28.0,4.0,2.786
42.0,4.0,2.787
55.0,-1.0,2.788
57.0,-2.0,2.789
44.0,0.0,2.79
24.0,3.0,2.791
6.0,5.0,2.792
-10.0,6.0,2.793
-25.0,5.0,2.794
-39.0,3.0,2.795
-42.0,-1.0,2.796
-35.0,-6.0,2.797
-30.0,-11.0,2.798
-32.0,-16.0,2.799
-37.0,-13.0,2.8
-32.0,-9.0,2.801
-18.0,-3.0,2.802
-2.0,-1.0,2.803
8.0,-2.0,2.804
11.0,-3.0,2.805
12.0,-1.0,2.806
16.0,-2.0,2.807
23.0,-3.0,2.808
32.0,1.0,2.809
34.0,7.0,2.81
26.0,7.0,2.811
13.0,4.0,2.812
0.0,6.0,2.813
-5.0,12.0,2.814
-3.0,14.0,2.815
6.0,7.0,2.816
13.0,-2.0,2.817
8.0,-9.0,2.818
-4.0,-9.0,2.819
-12.0,-6.0,2.82
-10.0,-6.0,2.821
-5.0,-7.0,2.822
8.0,-7.0,2.823
20.0,-1.0,2.824
20.0,7.0,2.825
19.0,9.0,2.826
9.0,3.0,2.827
2.0,-5.0,2.828
2.0,-5.0,2.829
2.0,-3.0,2.83
2.0,-2.0,2.831
1.0,-1.0,2.832
3.0,4.0,2.833
6.0,4.0,2.834
6.0,1.0,2.835
6.0,-2.0,2.836
10.0,0.0,2.837
14.0,3.0,2.838
7.0,5.0,2.839
-4.0,3.0,2.84
-14.0,0.0,2.841
-18.0,-3.0,2.842
-17.0,-4.0,2.843
-14.0,-3.0,2.844
-13.0,-1.0,2.845
-11.0,-4.0,2.846
-3.0,-9.0,2.847
7.0,-10.0,2.848
13.0,-7.0,2.849
13.0,-4.0,2.85
16.0,-7.0,2.851
18.0,-8.0,2.852
17.0,-6.0,2.853
13.0,-7.0,2.854
14.0,-7.0,2.855
17.0,-2.0,2.856
13.0,8.0,2.857
0.0,10.0,2.858
-11.0,5.0,2.859
-17.0,-2.0,2.86
-15.0,-4.0,2.861
-3.0,0.0,2.862
17.0,3.0,2.863
30.0,4.0,2.864
25.0,7.0,2.865
7.0,8.0,2.866
-6.0,4.0,2.867
-12.0,-1.0,2.868
-17.0,-3.0,2.869
-20.0,-3.0,2.87
-15.0,-2.0,2.871
-10.0,-3.0,2.872
-14.0,-4.0,2.873
-17.0,-4.0,2.874
-9.0,-3.0,2.875
-1.0,0.0,2.876
-1.0,3.0,2.877
-5.0,4.0,2.878
-1.0,0.0,2.879
3.0,-5.0,2.88
0.0,-9.0,2.881
-3.0,-5.0,2.882
7.0,0.0,2.883
26.0,3.0,2.884
35.0,0.0,2.885
36.0,-1.0,2.886
37.0,0.0,2.887
37.0,-4.0,2.888
26.0,-7.0,2.889
7.0,-4.0,2.89
-6.0,0.0,2.891
-11.0,2.0,2.892
-18.0,-1.0,2.893
-27.0,2.0,2.894
-31.0,8.0,2.895
-29.0,7.0,2.896
-23.0,2.0,2.897
-23.0,-4.0,2.898
-20.0,-2.0,2.899
-15.0,0.0,2.9
-5.0,-3.0,2.901
5.0,-4.0,2.902
17.0,-2.0,2.903
27.0,0.0,2.904
26.0,0.0,2.905
23.0,-3.0,2.906
17.0,-3.0,2.907
12.0,-3.0,2.908
13.0,-4.0,2.909
14.0,-5.0,2.91
13.0,-6.0,2.911
12.0,-5.0,2.912
11.0,-3.0,2.913
10.0,-2.0,2.914
10.0,-2.0,2.915
9.0,-6.0,2.916
13.0,-6.0,2.917
16.0,-3.0,2.918
11.0,-2.0,2.919
0.0,0.0,2.92
-15.0,0.0,2.921
-22.0,1.0,2.922
-20.0,0.0,2.923
-13.0,2.0,2.924
-6.0,5.0,2.925
0.0,6.0,2.926
6.0,4.0,2.927
14.0,1.0,2.928
20.0,-1.0,2.929
25.0,0.0,2.93
26.0,3.0,2.931
20.0,6.0,2.932
9.0,6.0,2.933
-5.0,3.0,2.934
-17.0,0.0,2.935
-25.0,-2.0,2.936
-25.0,0.0,2.937
-20.0,0.0,2.938
-11.0,0.0,2.939
-8.0,0.0,2.94
-9.0,-5.0,2.941
-7.0,-10.0,2.942
-2.0,-10.0,2.943
-1.0,-6.0,2.944
-6.0,-3.0,2.945
-4.0,-1.0,2.946
8.0,0.0,2.947
20.0,1.0,2.948
26.0,1.0,2.949
24.0,-1.0,2.95
21.0,-3.0,2.951
19.0,-2.0,2.952
18.0,0.0,2.953
19.0,1.0,2.954
22.0,0.0,2.955
19.0,-3.0,2.956
8.0,-5.0,2.957
-7.0,-8.0,2.958
-12.0,-7.0,2.959
-10.0,-3.0,2.96
-7.0,-1.0,2.961
-5.0,1.0,2.962
-1.0,3.0,2.963
2.0,3.0,2.964
-4.0,1.0,2.965
-13.0,1.0,2.966
-12.0,1.0,2.967
-3.0,-1.0,2.968
5.0,-6.0,2.969
5.0,-10.0,2.97
1.0,-11.0,2.971
-3.0,-8.0,2.972
-5.0,-3.0,2.973
-1.0,1.0,2.974
15.0,3.0,2.975
29.0,3.0,2.976
34.0,3.0,2.977
30.0,2.0,2.978
23.0,0.0,2.979
11.0,-2.0,2.98
-7.0,-7.0,2.981
-23.0,-7.0,2.982
-27.0,-3.0,2.983
-26.0,1.0,2.984
-29.0,4.0,2.985
-30.0,6.0,2.986
-16.0,4.0,2.987
6.0,2.0,2.988
21.0,3.0,2.989
21.0,6.0,2.99
10.0,10.0,2.991
-1.0,12.0,2.992
-7.0,11.0,2.993
-11.0,9.0,2.994
-16.0,4.0,2.995
-22.0,-5.0,2.996
-21.0,-11.0,2.997
-13.0,-14.0,2.998
-5.0,-16.0,2.999
-4.0,-14.0,3.0
1.0,-14.0,3.001
15.0,-9.0,3.002
28.0,-2.0,3.003
31.0,4.0,3.004
26.0,8.0,3.005
24.0,8.0,3.006
30.0,4.0,3.007
42.0,0.0,3.008
51.0,0.0,3.009
44.0,5.0,3.01
21.0,6.0,3.011
-4.0,-2.0,3.012
-9.0,-7.0,3.013
-4.0,-7.0,3.014
-8.0,-2.0,3.015
-24.0,1.0,3.016
-29.0,2.0,3.017
-18.0,-2.0,3.018
-8.0,-6.0,3.019
-11.0,-8.0,3.02
-14.0,-5.0,3.021
-4.0,1.0,3.022
13.0,5.0,3.023
26.0,3.0,3.024
29.0,2.0,3.025
26.0,3.0,3.026
23.0,2.0,3.027
20.0,0.0,3.028
16.0,1.0,3.029
8.0,6.0,3.03
-4.0,6.0,3.031
-14.0,-1.0,3.032
-15.0,-7.0,3.033
-6.0,-6.0,3.034
2.0,-2.0,3.035
7.0,-5.0,3.036
8.0,-8.0,3.037
7.0,-6.0,3.038
4.0,2.0,3.039
-2.0,6.0,3.04
-7.0,1.0,3.041
-5.0,-1.0,3.042
4.0,1.0,3.043
12.0,4.0,3.044
10.0,4.0,3.045
0.0,1.0,3.046
0.0,-2.0,3.047
4.0,-8.0,3.048
6.0,-11.0,3.049
0.0,-10.0,3.05
-7.0,-5.0,3.051
-14.0,-2.0,3.052
-24.0,-2.0,3.053
-34.0,-5.0,3.054
-35.0,-8.0,3.055
-29.0,-5.0,3.056
-22.0,5.0,3.057
-19.0,10.0,3.058
-12.0,6.0,3.059
-5.0,-2.0,3.06
-5.0,-7.0,3.061
-5.0,-4.0,3.062
5.0,-2.0,3.063
20.0,-1.0,3.064
26.0,4.0,3.065
24.0,6.0,3.066
30.0,3.0,3.067
45.0,-3.0,3.068
46.0,-4.0,3.069
27.0,-1.0,3.07
2.0,-1.0,3.071
-8.0,-4.0,3.072
-4.0,-6.0,3.073
-1.0,-5.0,3.074
-2.0,-2.0,3.075
-4.0,1.0,3.076
-4.0,4.0,3.077
-3.0,2.0,3.078
2.0,-4.0,3.079
3.0,-7.0,3.08
2.0,-10.0,3.081
4.0,-9.0,3.082
20.0,-6.0,3.083
39.0,3.0,3.084
41.0,13.0,3.085
25.0,17.0,3.086
10.0,10.0,3.087
4.0,1.0,3.088
1.0,-2.0,3.089
-6.0,-2.0,3.09
-13.0,-3.0,3.091
-11.0,-7.0,3.092
-8.0,-7.0,3.093
-13.0,-3.0,3.094
-25.0,0.0,3.095
-30.0,-3.0,3.096
-22.0,-7.0,3.097
-11.0,-9.0,3.098
-4.0,-7.0,3.099
-3.0,-4.0,3.1
3.0,-5.0,3.101
14.0,-4.0,3.102
23.0,-1.0,3.103
23.0,3.0,3.104
13.0,5.0,3.105
0.0,5.0,3.106
-10.0,1.0,3.107
-17.0,-5.0,3.108
-18.0,-5.0,3.109
-10.0,-4.0,3.11
6.0,-2.0,3.111
19.0,-1.0,3.112
20.0,1.0,3.113
15.0,5.0,3.114
13.0,5.0,3.115
16.0,1.0,3.116
23.0,-1.0,3.117
34.0,-3.0,3.118
46.0,-5.0,3.119
43.0,-5.0,3.12
18.0,-6.0,3.121
-12.0,-1.0,3.122
-21.0,2.0,3.123
-10.0,2.0,3.124
-1.0,5.0,3.125
-3.0,10.0,3.126
-6.0,11.0,3.127
-6.0,2.0,3.128
-11.0,-6.0,3.129
-19.0,-6.0,3.13
-19.0,-3.0,3.131
-10.0,0.0,3.132
-6.0,0.0,3.133
-9.0,2.0,3.134
-7.0,0.0,3.135
-1.0,-8.0,3.136
0.0,-10.0,3.137
-3.0,-9.0,3.138
0.0,-4.0,3.139
11.0,-1.0,3.14
13.0,-4.0,3.141
2.0,-4.0,3.142
-4.0,-2.0,3.143
0.0,-1.0,3.144
3.0,0.0,3.145
-1.0,5.0,3.146
0.0,8.0,3.147
10.0,5.0,3.148
19.0,-1.0,3.149
14.0,-2.0,3.15
6.0,-2.0,3.151
8.0,-5.0,3.152
18.0,-7.0,3.153
23.0,-2.0,3.154
22.0,4.0,3.155
19.0,5.0,3.156
21.0,5.0,3.157
21.0,6.0,3.158
19.0,8.0,3.159
12.0,4.0,3.16
-2.0,-5.0,3.161
-17.0,-4.0,3.162
-24.0,1.0,3.163
-29.0,-2.0,3.164
-33.0,-13.0,3.165
-29.0,-17.0,3.166
-15.0,-10.0,3.167
1.0,-3.0,3.168
3.0,-1.0,3.169
-3.0,-1.0,3.17
1.0,3.0,3.171
24.0,3.0,3.172
42.0,2.0,3.173
33.0,3.0,3.174
7.0,7.0,3.175
-13.0,6.0,3.176
-17.0,5.0,3.177
-18.0,3.0,3.178
-20.0,4.0,3.179
-25.0,0.0,3.18
-28.0,-10.0,3.181
-30.0,-13.0,3.182
-25.0,-10.0,3.183
-11.0,-3.0,3.184
5.0,4.0,3.185
14.0,11.0,3.186
21.0,13.0,3.187
38.0,9.0,3.188
56.0,4.0,3.189
59.0,4.0,3.19
44.0,3.0,3.191
27.0,1.0,3.192
18.0,-3.0,3.193
9.0,-2.0,3.194
0.0,-1.0,3.195
-6.0,-5.0,3.196
-7.0,-7.0,3.197
-9.0,-9.0,3.198
-9.0,-4.0,3.199
-7.0,-1.0,3.2
-5.0,-5.0,3.201
-6.0,-6.0,3.202
-2.0,-3.0,3.203
5.0,-2.0,3.204
5.0,-5.0,3.205
-6.0,-8.0,3.206
-10.0,-7.0,3.207
0.0,-6.0,3.208
7.0,-6.0,3.209
0.0,-7.0,3.21
-8.0,-8.0,3.211
-4.0,-9.0,3.212
2.0,-11.0,3.213
-2.0,-9.0,3.214
-7.0,-3.0,3.215
-3.0,0.0,3.216
8.0,2.0,3.217
15.0,-1.0,3.218
21.0,-1.0,3.219
22.0,-1.0,3.22
16.0,-4.0,3.221
1.0,-6.0,3.222
-7.0,-5.0,3.223
-5.0,-2.0,3.224
-4.0,3.0,3.225
-7.0,8.0,3.226
-3.0,7.0,3.227
6.0,2.0,3.228
10.0,0.0,3.229
6.0,0.0,3.23
6.0,1.0,3.231
13.0,3.0,3.232
14.0,6.0,3.233
7.0,7.0,3.234
4.0,3.0,3.235
8.0,0.0,3.236
11.0,5.0,3.237
2.0,9.0,3.238
-4.0,6.0,3.239
-7.0,-2.0,3.24
-10.0,-7.0,3.241
-13.0,-2.0,3.242
-5.0,1.0,3.243
13.0,-2.0,3.244
27.0,-3.0,3.245
32.0,2.0,3.246
35.0,6.0,3.247
41.0,7.0,3.248
36.0,7.0,3.249
18.0,9.0,3.25
-3.0,5.0,3.251
-17.0,-1.0,3.252
-29.0,-6.0,3.253
-49.0,-8.0,3.254
-63.0,-10.0,3.255
-64.0,-14.0,3.256
-50.0,-12.0,3.257
-38.0,-9.0,3.258
-30.0,-7.0,3.259
-20.0,-6.0,3.26
0.0,-3.0,3.261
23.0,-1.0,3.262
39.0,-2.0,3.263
42.0,-1.0,3.264
35.0,4.0,3.265
27.0,9.0,3.266
18.0,7.0,3.267
10.0,1.0,3.268
4.0,0.0,3.269
0.0,0.0,3.27
2.0,-1.0,3.271
11.0,-3.0,3.272
15.0,0.0,3.273
12.0,3.0,3.274
2.0,2.0,3.275
-2.0,2.0,3.276
2.0,4.0,3.277
0.0,3.0,3.278
-6.0,-1.0,3.279
-15.0,-3.0,3.28
-13.0,0.0,3.281
-1.0,3.0,3.282
14.0,-3.0,3.283
30.0,-7.0,3.284
43.0,1.0,3.285
42.0,10.0,3.286
27.0,6.0,3.287
8.0,-6.0,3.288
-1.0,-12.0,3.289
1.0,-9.0,3.29
8.0,-8.0,3.291
10.0,-8.0,3.292
10.0,-7.0,3.293
6.0,-3.0,3.294
-2.0,0.0,3.295
-12.0,2.0,3.296
-19.0,6.0,3.297
-22.0,6.0,3.298
-24.0,3.0,3.299
-26.0,0.0,3.3
-26.0,-5.0,3.301
-22.0,-9.0,3.302
-8.0,-7.0,3.303
5.0,-5.0,3.304
17.0,0.0,3.305
24.0,3.0,3.306
14.0,-5.0,3.307
6.0,-9.0,3.308
2.0,-2.0,3.309
-1.0,3.0,3.31
0.0,1.0,3.311
4.0,-1.0,3.312
14.0,-1.0,3.313
19.0,-2.0,3.314
4.0,-6.0,3.315
-7.0,-7.0,3.316
-6.0,-1.0,3.317
-1.0,5.0,3.318
8.0,6.0,3.319
4.0,2.0,3.32
-5.0,-4.0,3.321
-7.0,-5.0,3.322
-1.0,-6.0,3.323
2.0,-4.0,3.324
-2.0,3.0,3.325
-9.0,11.0,3.326
-9.0,11.0,3.327
0.0,5.0,3.328
10.0,3.0,3.329
15.0,3.0,3.33
13.0,1.0,3.331
11.0,-3.0,3.332
10.0,-2.0,3.333
10.0,4.0,3.334
11.0,8.0,3.335
11.0,5.0,3.336
12.0,1.0,3.337
12.0,-3.0,3.338
16.0,-3.0,3.339
21.0,-4.0,3.34
24.0,-6.0,3.341
16.0,-9.0,3.342
1.0,-11.0,3.343
-10.0,-14.0,3.344
-14.0,-11.0,3.345
-15.0,-3.0,3.346
-18.0,4.0,3.347
-19.0,4.0,3.348
-13.0,-1.0,3.349
-3.0,-7.0,3.35
0.0,-7.0,3.351
-5.0,-4.0,3.352
-10.0,-1.0,3.353
-6.0,2.0,3.354
1.0,1.0,3.355
1.0,0.0,3.356
-2.0,-2.0,3.357
-3.0,-4.0,3.358
9.0,-3.0,3.359
22.0,0.0,3.36
22.0,0.0,3.361
9.0,0.0,3.362
-1.0,-2.0,3.363
0.0,-1.0,3.364
2.0,6.0,3.365
-2.0,13.0,3.366
-3.0,11.0,3.367
4.0,0.0,3.368
14.0,-7.0,3.369
15.0,-7.0,3.37
12.0,-6.0,3.371
12.0,-7.0,3.372
13.0,-10.0,3.373
4.0,-6.0,3.374
-10.0,0.0,3.375
-16.0,0.0,3.376
-7.0,-1.0,3.377
0.0,-1.0,3.378
2.0,1.0,3.379
3.0,2.0,3.38
-1.0,-3.0,3.381
-3.0,-3.0,3.382
1.0,2.0,3.383
2.0,3.0,3.384
-9.0,0.0,3.385
-16.0,-3.0,3.386
-10.0,0.0,3.387
-3.0,3.0,3.388
9.0,3.0,3.389
16.0,-2.0,3.39
6.0,-4.0,3.391
-2.0,-3.0,3.392
-6.0,1.0,3.393
-10.0,4.0,3.394
-12.0,6.0,3.395
-15.0,3.0,3.396
-13.0,-3.0,3.397
-11.0,-12.0,3.398
-13.0,-16.0,3.399
-14.0,-15.0,3.4
-12.0,-14.0,3.401
-4.0,-10.0,3.402
13.0,-3.0,3.403
30.0,4.0,3.404
33.0,8.0,3.405
25.0,4.0,3.406
21.0,-1.0,3.407
26.0,-2.0,3.408
31.0,3.0,3.409
28.0,11.0,3.41
22.0,14.0,3.411
19.0,10.0,3.412
16.0,1.0,3.413
10.0,-3.0,3.414
5.0,2.0,3.415
5.0,8.0,3.416
4.0,6.0,3.417
-1.0,-3.0,3.418
-1.0,-8.0,3.419
2.0,-8.0,3.42
8.0,-9.0,3.421
10.0,-9.0,3.422
13.0,-7.0,3.423
14.0,0.0,3.424
9.0,7.0,3.425
-5.0,8.0,3.426
-21.0,5.0,3.427
-32.0,-1.0,3.428
-36.0,-5.0,3.429
-33.0,-7.0,3.43
-25.0,-3.0,3.431
-10.0,1.0,3.432
7.0,2.0,3.433
20.0,1.0,3.434
26.0,0.0,3.435
29.0,2.0,3.436
32.0,4.0,3.437
28.0,3.0,3.438
14.0,2.0,3.439
-13.0,1.0,3.44
-36.0,-4.0,3.441
-44.0,-8.0,3.442
-36.0,-12.0,3.443
-30.0,-12.0,3.444
-28.0,-9.0,3.445
-26.0,-6.0,3.446
-16.0,-4.0,3.447
-2.0,-4.0,3.448
8.0,-2.0,3.449
16.0,3.0,3.45
23.0,8.0,3.451
25.0,5.0,3.452
20.0,-5.0,3.453
16.0,-12.0,3.454
22.0,-13.0,3.455
34.0,-7.0,3.456
45.0,0.0,3.457
43.0,5.0,3.458
31.0,9.0,3.459
16.0,11.0,3.46
-1.0,6.0,3.461
-16.0,1.0,3.462
-16.0,0.0,3.463
-15.0,-3.0,3.464
-12.0,-3.0,3.465
-6.0,-3.0,3.466
8.0,-3.0,3.467
20.0,-1.0,3.468
20.0,0.0,3.469
16.0,2.0,3.47
5.0,2.0,3.471
-4.0,2.0,3.472
-6.0,0.0,3.473
-8.0,-1.0,3.474
-8.0,-1.0,3.475
-7.0,-2.0,3.476
0.0,-3.0,3.477
5.0,-3.0,3.478
0.0,-3.0,3.479
-9.0,-3.0,3.48
-11.0,-6.0,3.481
-6.0,-5.0,3.482
0.0,-2.0,3.483
6.0,0.0,3.484
3.0,0.0,3.485
-2.0,2.0,3.486
-4.0,3.0,3.487
-4.0,0.0,3.488
-6.0,-4.0,3.489
-9.0,-4.0,3.49
-6.0,-2.0,3.491
4.0,-3.0,3.492
13.0,-4.0,3.493
11.0,-1.0,3.494
5.0,3.0,3.495
7.0,5.0,3.496
13.0,6.0,3.497
15.0,6.0,3.498
11.0,4.0,3.499
1.0,1.0,3.5
-9.0,-6.0,3.501
-12.0,-5.0,3.502
-1.0,-2.0,3.503
15.0,1.0,3.504
27.0,5.0,3.505
25.0,8.0,3.506
17.0,3.0,3.507
5.0,-7.0,3.508
-4.0,-11.0,3.509
-6.0,-8.0,3.51
-1.0,-2.0,3.511
12.0,-3.0,3.512
22.0,-7.0,3.513
27.0,-7.0,3.514
20.0,-5.0,3.515
4.0,-5.0,3.516
-7.0,-3.0,3.517
-9.0,2.0,3.518
-4.0,9.0,3.519
-10.0,8.0,3.52
-26.0,0.0,3.521
-38.0,-5.0,3.522
-29.0,-5.0,3.523
-10.0,-4.0,3.524
0.0,0.0,3.525
-3.0,6.0,3.526
-6.0,8.0,3.527
0.0,2.0,3.528
9.0,-6.0,3.529
15.0,-7.0,3.53
18.0,-4.0,3.531
23.0,-1.0,3.532
33.0,1.0,3.533
45.0,6.0,3.534
56.0,12.0,3.535
55.0,10.0,3.536
40.0,3.0,3.537
12.0,-3.0,3.538
-13.0,-3.0,3.539
-36.0,-4.0,3.54
-49.0,-9.0,3.541
-57.0,-13.0,3.542
-49.0,-10.0,3.543
-40.0,-7.0,3.544
-26.0,-2.0,3.545
-14.0,1.0,3.546
-6.0,-1.0,3.547
2.0,-3.0,3.548
9.0,2.0,3.549
15.0,7.0,3.55
16.0,7.0,3.551
18.0,6.0,3.552
17.0,5.0,3.553
16.0,4.0,3.554
14.0,4.0,3.555
13.0,3.0,3.556
12.0,3.0,3.557
10.0,4.0,3.558
2.0,2.0,3.559
-2.0,-1.0,3.56
-3.0,-5.0,3.561
-1.0,-4.0,3.562
8.0,-1.0,3.563
19.0,3.0,3.564
24.0,7.0,3.565
22.0,8.0,3.566
21.0,4.0,3.567
26.0,0.0,3.568
30.0,-1.0,3.569
25.0,-1.0,3.57
14.0,-5.0,3.571
3.0,-11.0,3.572
-9.0,-10.0,3.573
-19.0,-3.0,3.574
-25.0,3.0,3.575
-26.0,7.0,3.576
-26.0,6.0,3.577
-29.0,-2.0,3.578
-29.0,-12.0,3.579
-25.0,-17.0,3.58
-20.0,-14.0,3.581
-12.0,-6.0,3.582
0.0,-2.0,3.583
14.0,-1.0,3.584
24.0,1.0,3.585
24.0,3.0,3.586
18.0,-1.0,3.587
17.0,-5.0,3.588
18.0,-4.0,3.589
19.0,0.0,3.59
20.0,-2.0,3.591
22.0,-5.0,3.592
21.0,-5.0,3.593
18.0,-2.0,3.594
20.0,0.0,3.595
23.0,0.0,3.596
21.0,3.0,3.597
6.0,3.0,3.598
-12.0,-1.0,3.599
-25.0,-4.0,3.6
-34.0,-2.0,3.601
-41.0,3.0,3.602
-37.0,5.0,3.603
-23.0,2.0,3.604
-13.0,3.0,3.605
-15.0,4.0,3.606
-15.0,6.0,3.607
-3.0,3.0,3.608
13.0,-2.0,3.609
22.0,-8.0,3.61
29.0,-11.0,3.611
39.0,-10.0,3.612
43.0,-7.0,3.613
34.0,-2.0,3.614
22.0,1.0,3.615
14.0,2.0,3.616
11.0,2.0,3.617
4.0,-3.0,3.618
-2.0,-10.0,3.619
-11.0,-15.0,3.62
-26.0,-12.0,3.621
-36.0,-3.0,3.622
-29.0,3.0,3.623
-23.0,2.0,3.624
-18.0,3.0,3.625
-12.0,9.0,3.626
-6.0,12.0,3.627
1.0,5.0,3.628
9.0,-3.0,3.629
15.0,-5.0,3.63
13.0,-4.0,3.631
12.0,-5.0,3.632
10.0,-7.0,3.633
8.0,-4.0,3.634
6.0,1.0,3.635
5.0,2.0,3.636
7.0,1.0,3.637
11.0,-2.0,3.638
13.0,-2.0,3.639
8.0,0.0,3.64
-1.0,-2.0,3.641
-4.0,1.0,3.642
3.0,5.0,3.643
11.0,9.0,3.644
11.0,10.0,3.645
4.0,6.0,3.646
4.0,-1.0,3.647
9.0,-7.0,3.648
12.0,-10.0,3.649
13.0,-7.0,3.65
15.0,-2.0,3.651
18.0,1.0,3.652
16.0,6.0,3.653
11.0,10.0,3.654
12.0,8.0,3.655
16.0,4.0,3.656
10.0,4.0,3.657
-6.0,4.0,3.658
-17.0,0.0,3.659
-20.0,-9.0,3.66
-23.0,-17.0,3.661
-25.0,-13.0,3.662
-19.0,-7.0,3.663
-6.0,-9.0,3.664
1.0,-12.0,3.665
-3.0,-5.0,3.666
-5.0,6.0,3.667
2.0,9.0,3.668
16.0,3.0,3.669
28.0,0.0,3.67
35.0,2.0,3.671
39.0,2.0,3.672
34.0,-3.0,3.673
20.0,-5.0,3.674
2.0,-1.0,3.675
-13.0,3.0,3.676
-19.0,5.0,3.677
-19.0,1.0,3.678
-7.0,1.0,3.679
1.0,2.0,3.68
1.0,0.0,3.681
-3.0,0.0,3.682
-5.0,0.0,3.683
-9.0,0.0,3.684
-15.0,-4.0,3.685
-22.0,-8.0,3.686
-21.0,-8.0,3.687
-10.0,-5.0,3.688
1.0,-1.0,3.689
8.0,2.0,3.69
8.0,1.0,3.691
7.0,-3.0,3.692
5.0,-5.0,3.693
1.0,-4.0,3.694
-4.0,-2.0,3.695
-4.0,-2.0,3.696
1.0,-3.0,3.697
3.0,-2.0,3.698
-2.0,2.0,3.699
-6.0,6.0,3.7
-5.0,3.0,3.701
-1.0,-2.0,3.702
12.0,-4.0,3.703
24.0,-3.0,3.704
28.0,0.0,3.705
30.0,3.0,3.706
23.0,3.0,3.707
16.0,1.0,3.708
12.0,-3.0,3.709
8.0,-5.0,3.71
8.0,-6.0,3.711
7.0,-3.0,3.712
4.0,0.0,3.713
1.0,2.0,3.714
0.0,0.0,3.715
0.0,-5.0,3.716
4.0,-7.0,3.717
6.0,-4.0,3.718
5.0,1.0,3.719
-3.0,1.0,3.72
-11.0,-4.0,3.721
-16.0,-6.0,3.722
-8.0,-1.0,3.723
5.0,4.0,3.724
14.0,7.0,3.725
14.0,5.0,3.726
14.0,3.0,3.727
19.0,1.0,3.728
19.0,3.0,3.729
12.0,6.0,3.73
6.0,4.0,3.731
5.0,-4.0,3.732
-2.0,-10.0,3.733
-17.0,-10.0,3.734
-24.0,-6.0,3.735
-22.0,-4.0,3.736
-19.0,-5.0,3.737
-24.0,-9.0,3.738
-23.0,-9.0,3.739
-13.0,-8.0,3.74
0.0,-9.0,3.741
8.0,-7.0,3.742
16.0,-3.0,3.743
22.0,1.0,3.744
20.0,3.0,3.745
10.0,6.0,3.746
3.0,9.0,3.747
6.0,8.0,3.748
9.0,5.0,3.749
6.0,2.0,3.75
6.0,1.0,3.751
8.0,0.0,3.752
8.0,-2.0,3.753
1.0,-2.0,3.754
-3.0,0.0,3.755
0.0,1.0,3.756
6.0,-1.0,3.757
8.0,-2.0,3.758
3.0,-1.0,3.759
-3.0,-1.0,3.76
-9.0,-4.0,3.761
-10.0,-6.0,3.762
-3.0,-5.0,3.763
11.0,-3.0,3.764
20.0,0.0,3.765
16.0,3.0,3.766
0.0,5.0,3.767
-8.0,1.0,3.768
-3.0,-2.0,3.769
8.0,-2.0,3.77
13.0,-1.0,3.771
11.0,-1.0,3.772
8.0,-1.0,3.773
8.0,1.0,3.774
10.0,3.0,3.775
14.0,3.0,3.776
18.0,4.0,3.777
14.0,6.0,3.778
2.0,8.0,3.779
-8.0,8.0,3.78
-13.0,0.0,3.781
-17.0,-2.0,3.782
-11.0,0.0,3.783
-6.0,1.0,3.784
-2.0,3.0,3.785
2.0,3.0,3.786
1.0,0.0,3.787
0.0,-4.0,3.788
-1.0,-7.0,3.789
-3.0,-7.0,3.79
-5.0,-6.0,3.791
-7.0,-8.0,3.792
-8.0,-11.0,3.793
-8.0,-14.0,3.794
-4.0,-23.0,3.795
1.0,-27.0,3.796
10.0,-19.0,3.797
16.0,-5.0,3.798
14.0,7.0,3.799
8.0,8.0,3.8
4.0,0.0,3.801
5.0,-1.0,3.802
11.0,2.0,3.803
16.0,3.0,3.804
15.0,3.0,3.805
11.0,7.0,3.806
19.0,12.0,3.807
33.0,10.0,3.808
35.0,4.0,3.809
20.0,3.0,3.81
5.0,5.0,3.811
0.0,6.0,3.812
-1.0,4.0,3.813
-10.0,3.0,3.814
-18.0,1.0,3.815
-16.0,0.0,3.816
-11.0,-1.0,3.817
-12.0,-6.0,3.818
-15.0,-11.0,3.819
-13.0,-13.0,3.82
-10.0,-9.0,3.821
-7.0,-3.0,3.822
3.0,-1.0,3.823
18.0,0.0,3.824
22.0,3.0,3.825
16.0,7.0,3.826
10.0,6.0,3.827
8.0,2.0,3.828
11.0,2.0,3.829
11.0,5.0,3.83
10.0,3.0,3.831
7.0,-2.0,3.832
3.0,-4.0,3.833
2.0,-3.0,3.834
5.0,-1.0,3.835
5.0,0.0,3.836
3.0,2.0,3.837
2.0,1.0,3.838
4.0,-2.0,3.839
3.0,-7.0,3.84
-4.0,-14.0,3.841
-13.0,-17.0,3.842
-16.0,-14.0,3.843
-16.0,-6.0,3.844
-19.0,4.0,3.845
-22.0,9.0,3.846
-19.0,7.0,3.847
-10.0,4.0,3.848
0.0,3.0,3.849
6.0,3.0,3.85
14.0,4.0,3.851
29.0,6.0,3.852
44.0,6.0,3.853
42.0,0.0,3.854
17.0,-9.0,3.855
-11.0,-10.0,3.856
-22.0,-2.0,3.857
-25.0,5.0,3.858
-26.0,2.0,3.859
-26.0,-7.0,3.86
-18.0,-17.0,3.861
-11.0,-19.0,3.862
-7.0,-14.0,3.863
-3.0,-7.0,3.864
-3.0,3.0,3.865
0.0,10.0,3.866
6.0,8.0,3.867
14.0,0.0,3.868
22.0,-2.0,3.869
29.0,2.0,3.87
34.0,4.0,3.871
35.0,0.0,3.872
25.0,0.0,3.873
13.0,8.0,3.874
-3.0,12.0,3.875
-16.0,2.0,3.876
-17.0,-6.0,3.877
-20.0,-6.0,3.878
-24.0,-2.0,3.879
-26.0,-8.0,3.88
-18.0,-18.0,3.881
-10.0,-16.0,3.882
-4.0,-5.0,3.883
5.0,3.0,3.884
20.0,3.0,3.885
27.0,4.0,3.886
24.0,7.0,3.887
20.0,7.0,3.888
25.0,4.0,3.889
31.0,2.0,3.89
30.0,2.0,3.891
28.0,0.0,3.892
30.0,0.0,3.893
27.0,4.0,3.894
16.0,6.0,3.895
4.0,2.0,3.896
0.0,-1.0,3.897
-5.0,-1.0,3.898
-14.0,1.0,3.899
-20.0,0.0,3.9
-17.0,-5.0,3.901
-10.0,-4.0,3.902
5.0,-2.0,3.903
15.0,-3.0,3.904
9.0,-3.0,3.905
4.0,0.0,3.906
1.0,3.0,3.907
0.0,3.0,3.908
2.0,6.0,3.909
2.0,10.0,3.91
-8.0,8.0,3.911
-17.0,-5.0,3.912
-17.0,-21.0,3.913
-16.0,-25.0,3.914
-10.0,-19.0,3.915
-5.0,-10.0,3.916
-2.0,-4.0,3.917
1.0,-1.0,3.918
-1.0,-2.0,3.919
-3.0,-5.0,3.92
-5.0,-8.0,3.921
-9.0,-5.0,3.922
-8.0,-2.0,3.923
3.0,-2.0,3.924
15.0,-1.0,3.925
16.0,0.0,3.926
13.0,-1.0,3.927
15.0,-1.0,3.928
18.0,1.0,3.929
14.0,5.0,3.93
10.0,5.0,3.931
19.0,1.0,3.932
33.0,1.0,3.933
33.0,4.0,3.934
17.0,5.0,3.935
0.0,3.0,3.936
-8.0,2.0,3.937
-15.0,1.0,3.938
-22.0,0.0,3.939
-25.0,1.0,3.94
-15.0,0.0,3.941
-5.0,1.0,3.942
7.0,3.0,3.943
14.0,5.0,3.944
2.0,6.0,3.945
-6.0,4.0,3.946
-4.0,0.0,3.947
-4.0,-3.0,3.948
-9.0,-2.0,3.949
-15.0,-1.0,3.95
-20.0,-9.0,3.951
-21.0,-17.0,3.952
-7.0,-16.0,3.953
4.0,-2.0,3.954
10.0,11.0,3.955
13.0,14.0,3.956
7.0,11.0,3.957
2.0,5.0,3.958
-1.0,1.0,3.959
1.0,-3.0,3.96
1.0,-10.0,3.961
-2.0,-12.0,3.962
2.0,-9.0,3.963
13.0,-4.0,3.964
16.0,1.0,3.965
9.0,2.0,3.966
6.0,-3.0,3.967
11.0,-8.0,3.968
18.0,-6.0,3.969
19.0,1.0,3.97
19.0,8.0,3.971
21.0,3.0,3.972
19.0,-4.0,3.973
11.0,-5.0,3.974
3.0,-3.0,3.975
2.0,-1.0,3.976
7.0,2.0,3.977
7.0,6.0,3.978
3.0,10.0,3.979
-3.0,8.0,3.98
-4.0,2.0,3.981
4.0,1.0,3.982
19.0,1.0,3.983
29.0,-2.0,3.984
28.0,-2.0,3.985
17.0,3.0,3.986
3.0,5.0,3.987
-7.0,-5.0,3.988
-13.0,-15.0,3.989
-19.0,-15.0,3.99
-23.0,-8.0,3.991
-27.0,-4.0,3.992
-29.0,-6.0,3.993
-27.0,-7.0,3.994
-24.0,-4.0,3.995
-21.0,-2.0,3.996
-17.0,-1.0,3.997
-11.0,-1.0,3.998
-4.0,0.0,3.999
-4.0,0.0,4.0
-6.0,-3.0,4.001
-4.0,-7.0,4.002
8.0,-5.0,4.003
20.0,-2.0,4.004
19.0,1.0,4.005
12.0,0.0,4.006
11.0,-5.0,4.007
19.0,-5.0,4.008
21.0,0.0,4.009
14.0,6.0,4.01
12.0,4.0,4.011
20.0,0.0,4.012
24.0,0.0,4.013
22.0,4.0,4.014
21.0,6.0,4.015
26.0,10.0,4.016
28.0,15.0,4.017
25.0,18.0,4.018
25.0,13.0,4.019
20.0,6.0,4.02
2.0,-2.0,4.021
-14.0,-4.0,4.022
-26.0,-6.0,4.023
-34.0,-7.0,4.024
-30.0,-3.0,4.025
-23.0,2.0,4.026
-11.0,2.0,4.027
2.0,-3.0,4.028
18.0,-4.0,4.029
28.0,2.0,4.03
20.0,7.0,4.031
12.0,3.0,4.032
6.0,-5.0,4.033
-1.0,-8.0,4.034
-11.0,-10.0,4.035
-20.0,-8.0,4.036
-25.0,-6.0,4.037
-30.0,-4.0,4.038
-33.0,-3.0,4.039
-33.0,-9.0,4.04
-32.0,-17.0,4.041
-28.0,-18.0,4.042
-19.0,-13.0,4.043
-3.0,-8.0,4.044
12.0,-6.0,4.045
18.0,-3.0,4.046
17.0,-4.0,4.047
14.0,-7.0,4.048
17.0,-7.0,4.049
22.0,-4.0,4.05
26.0,-1.0,4.051
26.0,-1.0,4.052
22.0,0.0,4.053
16.0,3.0,4.054
12.0,5.0,4.055
13.0,4.0,4.056
17.0,4.0,4.057
19.0,3.0,4.058
19.0,3.0,4.059
14.0,0.0,4.06
3.0,-6.0,4.061
-3.0,-7.0,4.062
1.0,-5.0,4.063
9.0,0.0,4.064
8.0,7.0,4.065
-1.0,8.0,4.066
-5.0,5.0,4.067
2.0,2.0,4.068
11.0,4.0,4.069
7.0,8.0,4.07
1.0,6.0,4.071
0.0,0.0,4.072
0.0,-2.0,4.073
-2.0,1.0,4.074
-7.0,2.0,4.075
-10.0,0.0,4.076
-11.0,1.0,4.077
-13.0,1.0,4.078
-13.0,-1.0,4.079
-8.0,-6.0,4.08
0.0,-10.0,4.081
14.0,-5.0,4.082
28.0,4.0,4.083
33.0,7.0,4.084
23.0,3.0,4.085
8.0,-1.0,4.086
2.0,-1.0,4.087
3.0,0.0,4.088
1.0,-1.0,4.089
-4.0,-7.0,4.09
-6.0,-12.0,4.091
-4.0,-14.0,4.092
-2.0,-9.0,4.093
-2.0,-3.0,4.094
-5.0,0.0,4.095
-11.0,0.0,4.096
-16.0,1.0,4.097
-23.0,2.0,4.098
-23.0,4.0,4.099
-23.0,3.0,4.1
-23.0,2.0,4.101
-22.0,7.0,4.102
-14.0,9.0,4.103
-6.0,6.0,4.104
0.0,2.0,4.105
4.0,1.0,4.106
8.0,0.0,4.107
13.0,-1.0,4.108
21.0,-3.0,4.109
30.0,-3.0,4.11
42.0,-2.0,4.111
50.0,-2.0,4.112
43.0,1.0,4.113
31.0,3.0,4.114
8.0,2.0,4.115
-10.0,-2.0,4.116
-11.0,-5.0,4.117
-12.0,-6.0,4.118
-12.0,-5.0,4.119
-14.0,-6.0,4.12
-18.0,-6.0,4.121
-18.0,0.0,4.122
-8.0,5.0,4.123
1.0,7.0,4.124
5.0,4.0,4.125
2.0,2.0,4.126
2.0,1.0,4.127
10.0,2.0,4.128
19.0,5.0,4.129
23.0,7.0,4.13
28.0,7.0,4.131
36.0,6.0,4.132
34.0,6.0,4.133
20.0,2.0,4.134
0.0,-8.0,4.135
-16.0,-20.0,4.136
-21.0,-22.0,4.137
-27.0,-13.0,4.138
-34.0,1.0,4.139
-37.0,5.0,4.14
-31.0,-5.0,4.141
-19.0,-10.0,4.142
-3.0,-6.0,4.143
12.0,-2.0,4.144
21.0,-5.0,4.145
21.0,-9.0,4.146
12.0,-8.0,4.147
4.0,-3.0,4.148
4.0,0.0,4.149
4.0,0.0,4.15
1.0,-2.0,4.151
0.0,-1.0,4.152
5.0,0.0,4.153
12.0,1.0,4.154
11.0,5.0,4.155
3.0,8.0,4.156
8.0,11.0,4.157
20.0,10.0,4.158
27.0,6.0,4.159
18.0,3.0,4.16
2.0,2.0,4.161
-5.0,3.0,4.162
-1.0,3.0,4.163
2.0,1.0,4.164
0.0,2.0,4.165
-1.0,4.0,4.166
2.0,1.0,4.167
2.0,-7.0,4.168
-2.0,-11.0,4.169
-5.0,-9.0,4.17
3.0,-3.0,4.171
13.0,2.0,4.172
16.0,6.0,4.173
8.0,3.0,4.174
2.0,-7.0,4.175
1.0,-14.0,4.176
3.0,-11.0,4.177
3.0,-3.0,4.178
6.0,2.0,4.179
7.0,-1.0,4.18
-2.0,-6.0,4.181
-9.0,-8.0,4.182
-6.0,-7.0,4.183
-4.0,-6.0,4.184
-4.0,-5.0,4.185
-3.0,-4.0,4.186
-6.0,-5.0,4.187
-6.0,-6.0,4.188
4.0,-3.0,4.189
13.0,1.0,4.19
15.0,3.0,4.191
17.0,2.0,4.192
13.0,2.0,4.193
8.0,5.0,4.194
2.0,6.0,4.195
-1.0,4.0,4.196
1.0,2.0,4.197
5.0,0.0,4.198
6.0,-3.0,4.199
6.0,-5.0,4.2
0.0,-8.0,4.201
-4.0,-8.0,4.202
-1.0,-3.0,4.203
7.0,3.0,4.204
6.0,9.0,4.205
-8.0,11.0,4.206
-21.0,5.0,4.207
-24.0,-5.0,4.208
-20.0,-13.0,4.209
-16.0,-12.0,4.21
-11.0,-3.0,4.211
-3.0,7.0,4.212
4.0,7.0,4.213
5.0,0.0,4.214
3.0,-3.0,4.215
4.0,-1.0,4.216
10.0,4.0,4.217
13.0,5.0,4.218
13.0,2.0,4.219
8.0,-1.0,4.22
7.0,-5.0,4.221
14.0,-1.0,4.222
30.0,4.0,4.223
40.0,6.0,4.224
31.0,3.0,4.225
10.0,-1.0,4.226
-5.0,-4.0,4.227
-7.0,-3.0,4.228
-3.0,-2.0,4.229
0.0,1.0,4.23
5.0,3.0,4.231
16.0,2.0,4.232
21.0,-1.0,4.233
16.0,-4.0,4.234
2.0,-1.0,4.235
-8.0,3.0,4.236
-12.0,6.0,4.237
-17.0,3.0,4.238
-22.0,-2.0,4.239
-33.0,-8.0,4.24
-39.0,-14.0,4.241
-37.0,-17.0,4.242
-24.0,-13.0,4.243
-2.0,-4.0,4.244
20.0,5.0,4.245
35.0,9.0,4.246
37.0,7.0,4.247
29.0,3.0,4.248
17.0,4.0,4.249
10.0,3.0,4.25
8.0,-3.0,4.251
3.0,-7.0,4.252
-5.0,-3.0,4.253
-14.0,2.0,4.254
-19.0,-1.0,4.255
-18.0,-4.0,4.256
-16.0,2.0,4.257
-17.0,11.0,4.258
-14.0,11.0,4.259
-9.0,2.0,4.26
-1.0,-7.0,4.261
5.0,-6.0,4.262
6.0,-5.0,4.263
8.0,-3.0,4.264
14.0,0.0,4.265
19.0,1.0,4.266
19.0,-5.0,4.267
18.0,-10.0,4.268
22.0,-8.0,4.269
23.0,-1.0,4.27
17.0,1.0,4.271
13.0,0.0,4.272
13.0,2.0,4.273
12.0,5.0,4.274
12.0,5.0,4.275
9.0,2.0,4.276
3.0,4.0,4.277
-2.0,3.0,4.278
-9.0,-1.0,4.279
-9.0,-7.0,4.28
-8.0,-8.0,4.281
-6.0,-3.0,4.282
-1.0,-1.0,4.283
7.0,-1.0,4.284
12.0,1.0,4.285
7.0,6.0,4.286
3.0,6.0,4.287
5.0,2.0,4.288
12.0,0.0,4.289
17.0,2.0,4.29
21.0,2.0,4.291
24.0,0.0,4.292
19.0,0.0,4.293
4.0,1.0,4.294
-9.0,0.0,4.295
-16.0,-5.0,4.296
-18.0,-8.0,4.297
-21.0,-11.0,4.298
-22.0,-11.0,4.299
-18.0,-9.0,4.3
-13.0,-9.0,4.301
-12.0,-7.0,4.302
-7.0,-7.0,4.303
1.0,-5.0,4.304
5.0,0.0,4.305
4.0,6.0,4.306
10.0,8.0,4.307
20.0,6.0,4.308
23.0,2.0,4.309
17.0,-1.0,4.31
13.0,-2.0,4.311
20.0,0.0,4.312
28.0,4.0,4.313
23.0,6.0,4.314
12.0,5.0,4.315
3.0,5.0,4.316
0.0,6.0,4.317
-9.0,1.0,4.318
-18.0,-7.0,4.319
-18.0,-15.0,4.32
-8.0,-16.0,4.321
3.0,-12.0,4.322
3.0,-6.0,4.323
-3.0,2.0,4.324
-3.0,10.0,4.325
6.0,13.0,4.326
14.0,8.0,4.327
9.0,0.0,4.328
-7.0,-5.0,4.329
-23.0,-8.0,4.33
-30.0,-9.0,4.331
-27.0,-8.0,4.332
-21.0,-4.0,4.333
-15.0,0.0,4.334
-9.0,2.0,4.335
-6.0,0.0,4.336
-6.0,-1.0,4.337
-9.0,-2.0,4.338
-3.0,2.0,4.339
1.0,9.0,4.34
1.0,6.0,4.341
2.0,-3.0,4.342
6.0,-9.0,4.343
10.0,-6.0,4.344
15.0,2.0,4.345
20.0,4.0,4.346
20.0,2.0,4.347
19.0,2.0,4.348
18.0,5.0,4.349
16.0,2.0,4.35
10.0,-2.0,4.351
8.0,-3.0,4.352
17.0,0.0,4.353
21.0,1.0,4.354
11.0,-2.0,4.355
4.0,-4.0,4.356
4.0,-3.0,4.357
6.0,-4.0,4.358
5.0,-4.0,4.359
0.0,-4.0,4.36
-3.0,-6.0,4.361
0.0,-4.0,4.362
9.0,1.0,4.363
19.0,8.0,4.364
22.0,10.0,4.365
15.0,6.0,4.366
5.0,-1.0,4.367
2.0,-6.0,4.368
4.0,-5.0,4.369
4.0,0.0,4.37
1.0,2.0,4.371
3.0,0.0,4.372
8.0,-6.0,4.373
12.0,-8.0,4.374
7.0,-2.0,4.375
0.0,1.0,4.376
-4.0,1.0,4.377
-4.0,-2.0,4.378
-6.0,0.0,4.379
-16.0,0.0,4.38
-31.0,-6.0,4.381
-35.0,-8.0,4.382
-17.0,-6.0,4.383
9.0,-5.0,4.384
20.0,-4.0,4.385
11.0,0.0,4.386
1.0,8.0,4.387
5.0,10.0,4.388
14.0,7.0,4.389
10.0,7.0,4.39
0.0,10.0,4.391
0.0,7.0,4.392
8.0,-1.0,4.393
7.0,-5.0,4.394
-5.0,-4.0,4.395
-15.0,-4.0,4.396
-20.0,-7.0,4.397
-22.0,-11.0,4.398
-28.0,-13.0,4.399
-28.0,-9.0,4.4
-21.0,-6.0,4.401
-8.0,-1.0,4.402
7.0,0.0,4.403
25.0,-1.0,4.404
37.0,1.0,4.405
35.0,6.0,4.406
22.0,7.0,4.407
11.0,3.0,4.408
10.0,2.0,4.409
13.0,3.0,4.41
14.0,0.0,4.411
11.0,-4.0,4.412
9.0,-2.0,4.413
4.0,2.0,4.414
-1.0,-2.0,4.415
-5.0,-11.0,4.416
-4.0,-10.0,4.417
1.0,-4.0,4.418
5.0,0.0,4.419
6.0,-2.0,4.42
-2.0,-4.0,4.421
-7.0,0.0,4.422
-3.0,1.0,4.423
0.0,3.0,4.424
-1.0,8.0,4.425
0.0,13.0,4.426
8.0,12.0,4.427
14.0,6.0,4.428
11.0,1.0,4.429
8.0,0.0,4.43
4.0,0.0,4.431
1.0,-1.0,4.432
2.0,0.0,4.433
3.0,-1.0,4.434
-1.0,-6.0,4.435
-3.0,-11.0,4.436
0.0,-8.0,4.437
2.0,-6.0,4.438
-2.0,-4.0,4.439
-7.0,-5.0,4.44
-7.0,-8.0,4.441
-4.0,-9.0,4.442
1.0,-8.0,4.443
5.0,-3.0,4.444
2.0,3.0,4.445
-4.0,4.0,4.446
-7.0,0.0,4.447
0.0,-2.0,4.448
10.0,1.0,4.449
12.0,3.0,4.45
11.0,-1.0,4.451
14.0,-1.0,4.452
19.0,5.0,4.453
21.0,10.0,4.454
14.0,6.0,4.455
1.0,1.0,4.456
-5.0,2.0,4.457
-7.0,3.0,4.458
-5.0,1.0,4.459
-8.0,-4.0,4.46
-12.0,-10.0,4.461
-15.0,-11.0,4.462
-10.0,-7.0,4.463
-1.0,-1.0,4.464
8.0,7.0,4.465
20.0,8.0,4.466
33.0,2.0,4.467
37.0,-5.0,4.468
27.0,-7.0,4.469
9.0,-2.0,4.47
-2.0,3.0,4.471
-4.0,5.0,4.472
-3.0,4.0,4.473
-3.0,1.0,4.474
0.0,-3.0,4.475
5.0,-6.0,4.476
5.0,-7.0,4.477
8.0,-7.0,4.478
12.0,-4.0,4.479
15.0,0.0,4.48
11.0,0.0,4.481
7.0,0.0,4.482
8.0,1.0,4.483
10.0,2.0,4.484
12.0,4.0,4.485
14.0,2.0,4.486
15.0,-4.0,4.487
16.0,-11.0,4.488
14.0,-14.0,4.489
11.0,-10.0,4.49
3.0,-4.0,4.491
-3.0,-3.0,4.492
-4.0,-4.0,4.493
-5.0,-1.0,4.494
-9.0,1.0,4.495
-11.0,2.0,4.496
-6.0,1.0,4.497
8.0,2.0,4.498
12.0,4.0,4.499
15.0,5.0,4.5
11.0,1.0,4.501
7.0,-2.0,4.502
8.0,0.0,4.503
10.0,2.0,4.504
12.0,2.0,4.505
14.0,3.0,4.506
15.0,2.0,4.507
16.0,0.0,4.508
14.0,-3.0,4.509
11.0,-6.0,4.51
3.0,-6.0,4.511
-3.0,-4.0,4.512
-4.0,0.0,4.513
-5.0,3.0,4.514
-8.0,1.0,4.515
-10.0,0.0,4.516
-6.0,1.0,4.517
-1.0,3.0,4.518
-1.0,0.0,4.519
-7.0,-6.0,4.52
-12.0,-8.0,4.521
-6.0,0.0,4.522
7.0,3.0,4.523
21.0,1.0,4.524
27.0,1.0,4.525
30.0,5.0,4.526
27.0,7.0,4.527
19.0,5.0,4.528
11.0,3.0,4.529
8.0,2.0,4.53
13.0,-2.0,4.531
17.0,-8.0,4.532
15.0,-9.0,4.533
11.0,-1.0,4.534
4.0,4.0,4.535
1.0,3.0,4.536
1.0,3.0,4.537
0.0,4.0,4.538
-5.0,5.0,4.539
-19.0,0.0,4.54
-31.0,-7.0,4.541
-28.0,-8.0,4.542
-4.0,-3.0,4.543
25.0,0.0,4.544
40.0,5.0,4.545
41.0,5.0,4.546
38.0,-1.0,4.547
35.0,-9.0,4.548
20.0,-9.0,4.549
-7.0,0.0,4.55
-31.0,8.0,4.551
-39.0,6.0,4.552
-34.0,0.0,4.553
-31.0,-2.0,4.554
-34.0,-3.0,4.555
-38.0,-7.0,4.556
-34.0,-9.0,4.557
-23.0,4.0,4.558
-23.0,2.0,4.559
-23.0,1.0,4.56
-28.0,0.0,4.561
-26.0,0.0,4.562
1.0,-1.0,4.563
21.0,-1.0,4.564
26.0,5.0,4.565
28.0,10.0,4.566
17.0,7.0,4.567
11.0,5.0,4.568
11.0,1.0,4.569
12.0,0.0,4.57
14.0,-1.0,4.571
17.0,-3.0,4.572
19.0,-7.0,4.573
23.0,-7.0,4.574
19.0,-2.0,4.575
17.0,1.0,4.576
21.0,2.0,4.577
-11.0,5.0,4.578
-11.0,3.0,4.579
-11.0,2.0,4.58
-14.0,0.0,4.581
-13.0,-1.0,4.582
3.0,-2.0,4.583
15.0,-2.0,4.584
18.0,6.0,4.585
19.0,12.0,4.586
13.0,9.0,4.587
9.0,6.0,4.588
9.0,2.0,4.589
10.0,-1.0,4.59
11.0,-2.0,4.591
13.0,-4.0,4.592
14.0,-8.0,4.593
16.0,-9.0,4.594
14.0,-3.0,4.595
13.0,2.0,4.596
15.0,3.0,4.597
17.0,5.0,4.598
17.0,6.0,4.599
15.0,1.0,4.6
9.0,-8.0,4.601
1.0,-8.0,4.602
-4.0,-3.0,4.603
-6.0,0.0,4.604
-7.0,-1.0,4.605
-7.0,-2.0,4.606
-1.0,1.0,4.607
8.0,2.0,4.608
12.0,0.0,4.609
3.0,-3.0,4.61
-12.0,0.0,4.611
-21.0,3.0,4.612
-21.0,6.0,4.613
-15.0,3.0,4.614
-10.0,-1.0,4.615
-9.0,-4.0,4.616
-6.0,-5.0,4.617
-5.0,-8.0,4.618
-8.0,-7.0,4.619
-17.0,-4.0,4.62
-21.0,-4.0,4.621
-9.0,-6.0,4.622
17.0,-5.0,4.623
39.0,0.0,4.624
41.0,8.0,4.625
21.0,9.0,4.626
-1.0,5.0,4.627
-14.0,-1.0,4.628
-18.0,-5.0,4.629
-16.0,-1.0,4.63
-8.0,5.0,4.631
5.0,4.0,4.632
17.0,-2.0,4.633
17.0,-8.0,4.634
11.0,-7.0,4.635
3.0,-3.0,4.636
0.0,-1.0,4.637
-13.0,-2.0,4.638
-23.0,0.0,4.639
-31.0,-1.0,4.64
-27.0,-11.0,4.641
-23.0,-17.0,4.642
-12.0,-9.0,4.643
-1.0,-1.0,4.644
12.0,7.0,4.645
23.0,12.0,4.646
23.0,5.0,4.647
24.0,1.0,4.648
26.0,5.0,4.649
24.0,8.0,4.65
15.0,3.0,4.651
7.0,-1.0,4.652
4.0,0.0,4.653
1.0,1.0,4.654
0.0,2.0,4.655
-4.0,3.0,4.656
-4.0,4.0,4.657
-9.0,4.0,4.658
-15.0,-1.0,4.659
-20.0,-5.0,4.66
-18.0,-7.0,4.661
-15.0,-3.0,4.662
-8.0,1.0,4.663
-1.0,0.0,4.664
8.0,-3.0,4.665
15.0,-6.0,4.666
15.0,-5.0,4.667
16.0,-6.0,4.668
17.0,-5.0,4.669
16.0,0.0,4.67
10.0,6.0,4.671
5.0,5.0,4.672
3.0,-1.0,4.673
1.0,-4.0,4.674
0.0,0.0,4.675
-3.0,5.0,4.676
-3.0,6.0,4.677
-4.0,1.0,4.678
-11.0,-2.0,4.679
-10.0,-2.0,4.68
-4.0,-5.0,4.681
-3.0,-4.0,4.682
-4.0,0.0,4.683
-2.0,0.0,4.684
6.0,0.0,4.685
12.0,0.0,4.686
18.0,2.0,4.687
19.0,3.0,4.688
12.0,-1.0,4.689
1.0,-8.0,4.69
3.0,-11.0,4.691
17.0,-9.0,4.692
21.0,-3.0,4.693
1.0,-1.0,4.694
-23.0,-3.0,4.695
-24.0,-4.0,4.696
-11.0,-3.0,4.697
-6.0,0.0,4.698
-13.0,-1.0,4.699
-19.0,-5.0,4.7
-19.0,-11.0,4.701
-20.0,-10.0,4.702
-20.0,-4.0,4.703
-17.0,4.0,4.704
-6.0,8.0,4.705
2.0,5.0,4.706
-3.0,0.0,4.707
-5.0,-3.0,4.708
4.0,-1.0,4.709
12.0,2.0,4.71
13.0,3.0,4.711
14.0,1.0,4.712
18.0,-1.0,4.713
21.0,0.0,4.714
19.0,1.0,4.715
18.0,3.0,4.716
18.0,3.0,4.717
15.0,-1.0,4.718
11.0,-6.0,4.719
4.0,-9.0,4.72
3.0,-7.0,4.721
3.0,0.0,4.722
6.0,3.0,4.723
11.0,3.0,4.724
13.0,6.0,4.725
13.0,11.0,4.726
12.0,9.0,4.727
10.0,-1.0,4.728
7.0,-8.0,4.729
1.0,-6.0,4.73
0.0,-1.0,4.731
0.0,0.0,4.732
0.0,-4.0,4.733
-5.0,-7.0,4.734
-5.0,-5.0,4.735
1.0,-3.0,4.736
9.0,-1.0,4.737
13.0,-4.0,4.738
13.0,-3.0,4.739
13.0,-2.0,4.74
10.0,-1.0,4.741
9.0,0.0,4.742
14.0,0.0,4.743
15.0,1.0,4.744
1.0,2.0,4.745
-10.0,3.0,4.746
-14.0,1.0,4.747
-16.0,0.0,4.748
-14.0,2.0,4.749
-12.0,4.0,4.75
-14.0,-1.0,4.751
-16.0,-5.0,4.752
-16.0,-7.0,4.753
-13.0,-9.0,4.754
-7.0,-7.0,4.755
-2.0,-5.0,4.756
-3.0,-3.0,4.757
-5.0,-1.0,4.758
-4.0,-3.0,4.759
-4.0,-9.0,4.76
-9.0,-15.0,4.761
-12.0,-10.0,4.762
-3.0,-4.0,4.763
11.0,-1.0,4.764
16.0,0.0,4.765
12.0,3.0,4.766
14.0,5.0,4.767
22.0,3.0,4.768
27.0,0.0,4.769
25.0,4.0,4.77
25.0,9.0,4.771
34.0,9.0,4.772
38.0,4.0,4.773
31.0,0.0,4.774
20.0,0.0,4.775
14.0,2.0,4.776
13.0,6.0,4.777
6.0,9.0,4.778
-7.0,9.0,4.779
-22.0,6.0,4.78
-29.0,-2.0,4.781
-26.0,-7.0,4.782
-13.0,-6.0,4.783
-3.0,-4.0,4.784
-7.0,-3.0,4.785
-25.0,-7.0,4.786
-38.0,-16.0,4.787
-35.0,-18.0,4.788
-25.0,-10.0,4.789
-20.0,0.0,4.79
-17.0,3.0,4.791
-6.0,0.0,4.792
8.0,2.0,4.793
18.0,5.0,4.794
19.0,3.0,4.795
15.0,-3.0,4.796
12.0,-5.0,4.797
7.0,-4.0,4.798
3.0,-5.0,4.799
0.0,-8.0,4.8
3.0,-8.0,4.801
8.0,-2.0,4.802
16.0,0.0,4.803
22.0,0.0,4.804
27.0,4.0,4.805
30.0,11.0,4.806
29.0,11.0,4.807
24.0,2.0,4.808
15.0,-6.0,4.809
4.0,-5.0,4.81
1.0,-2.0,4.811
3.0,-1.0,4.812
6.0,-1.0,4.813
9.0,1.0,4.814
16.0,5.0,4.815
23.0,3.0,4.816
20.0,3.0,4.817
9.0,0.0,4.818
-4.0,-5.0,4.819
-16.0,-11.0,4.82
-26.0,-16.0,4.821
-33.0,-8.0,4.822
-31.0,1.0,4.823
-25.0,7.0,4.824
-11.0,5.0,4.825
0.0,2.0,4.826
-2.0,3.0,4.827
-3.0,2.0,4.828
5.0,0.0,4.829
12.0,0.0,4.83
12.0,-1.0,4.831
14.0,-3.0,4.832
19.0,-4.0,4.833
22.0,-1.0,4.834
20.0,5.0,4.835
16.0,7.0,4.836
8.0,7.0,4.837
0.0,1.0,4.838
-5.0,-2.0,4.839
-11.0,-5.0,4.84
-9.0,-11.0,4.841
5.0,-11.0,4.842
24.0,-8.0,4.843
34.0,-2.0,4.844
30.0,3.0,4.845
17.0,9.0,4.846
3.0,11.0,4.847
-6.0,8.0,4.848
-11.0,4.0,4.849
-17.0,2.0,4.85
-23.0,1.0,4.851
-25.0,-3.0,4.852
-21.0,-8.0,4.853
-13.0,-7.0,4.854
-5.0,-4.0,4.855
-1.0,-2.0,4.856
-1.0,0.0,4.857
-4.0,2.0,4.858
-6.0,2.0,4.859
-10.0,0.0,4.86
-14.0,-9.0,4.861
-13.0,-14.0,4.862
4.0,-8.0,4.863
20.0,-3.0,4.864
30.0,-1.0,4.865
36.0,-1.0,4.866
28.0,-6.0,4.867
20.0,-10.0,4.868
11.0,-4.0,4.869
2.0,0.0,4.87
-3.0,-2.0,4.871
-9.0,-4.0,4.872
-13.0,-2.0,4.873
-17.0,-1.0,4.874
-17.0,-3.0,4.875
-17.0,-5.0,4.876
-15.0,-3.0,4.877
-12.0,1.0,4.878
-11.0,4.0,4.879
-12.0,0.0,4.88
-13.0,-7.0,4.881
-4.0,-8.0,4.882
12.0,-4.0,4.883
22.0,0.0,4.884
21.0,4.0,4.885
14.0,5.0,4.886
13.0,0.0,4.887
19.0,-4.0,4.888
22.0,-4.0,4.889
19.0,-3.0,4.89
13.0,-5.0,4.891
12.0,-7.0,4.892
16.0,-6.0,4.893
23.0,-2.0,4.894
32.0,-2.0,4.895
41.0,0.0,4.896
46.0,6.0,4.897
36.0,10.0,4.898
18.0,6.0,4.899
1.0,1.0,4.9
-15.0,0.0,4.901
-28.0,7.0,4.902
-29.0,10.0,4.903
-28.0,6.0,4.904
-21.0,0.0,4.905
-15.0,-5.0,4.906
-11.0,-7.0,4.907
-7.0,-7.0,4.908
-7.0,-1.0,4.909
-5.0,7.0,4.91
-3.0,7.0,4.911
-1.0,0.0,4.912
-3.0,-7.0,4.913
-3.0,-3.0,4.914
6.0,4.0,4.915
14.0,5.0,4.916
17.0,1.0,4.917
21.0,-5.0,4.918
18.0,-4.0,4.919
2.0,2.0,4.92
-19.0,0.0,4.921
-29.0,-8.0,4.922
-19.0,-13.0,4.923
-7.0,-9.0,4.924
-7.0,0.0,4.925
-14.0,4.0,4.926
-10.0,3.0,4.927
2.0,1.0,4.928
13.0,0.0,4.929
18.0,0.0,4.93
22.0,2.0,4.931
26.0,5.0,4.932
25.0,8.0,4.933
22.0,7.0,4.934
18.0,3.0,4.935
15.0,0.0,4.936
11.0,1.0,4.937
7.0,0.0,4.938
0.0,-1.0,4.939
-6.0,-3.0,4.94
-11.0,-5.0,4.941
-10.0,-3.0,4.942
-2.0,0.0,4.943
3.0,0.0,4.944
2.0,-1.0,4.945
0.0,0.0,4.946
-1.0,-1.0,4.947
1.0,-2.0,4.948
3.0,-3.0,4.949
8.0,-1.0,4.95
19.0,1.0,4.951
30.0,1.0,4.952
38.0,0.0,4.953
37.0,2.0,4.954
28.0,3.0,4.955
17.0,0.0,4.956
7.0,-3.0,4.957
-3.0,-4.0,4.958
-15.0,-5.0,4.959
-28.0,-7.0,4.96
-38.0,-14.0,4.961
-39.0,-15.0,4.962
-33.0,-12.0,4.963
-29.0,-8.0,4.964
-28.0,-7.0,4.965
-33.0,-5.0,4.966
-36.0,0.0,4.967
-29.0,5.0,4.968
-19.0,5.0,4.969
-13.0,0.0,4.97
-10.0,-5.0,4.971
-1.0,-3.0,4.972
16.0,1.0,4.973
29.0,2.0,4.974
29.0,-1.0,4.975
22.0,-4.0,4.976
18.0,0.0,4.977
17.0,2.0,4.978
17.0,2.0,4.979
15.0,0.0,4.98
12.0,-4.0,4.981
10.0,-3.0,4.982
17.0,0.0,4.983
23.0,4.0,4.984
24.0,9.0,4.985
23.0,12.0,4.986
9.0,11.0,4.987
-2.0,5.0,4.988
-7.0,0.0,4.989
-10.0,-1.0,4.99
-5.0,-2.0,4.991
1.0,0.0,4.992
13.0,2.0,4.993
23.0,3.0,4.994
28.0,0.0,4.995
33.0,-3.0,4.996
33.0,-2.0,4.997
33.0,-1.0,4.998
22.0,-1.0,4.999
-3.0,-3.0,5.0
-25.0,-6.0,5.001
-31.0,-4.0,5.002
-24.0,-2.0,5.003
-18.0,-4.0,5.004
-22.0,-6.0,5.005
-26.0,-5.0,5.006
-23.0,-4.0,5.007
-10.0,-3.0,5.008
5.0,-2.0,5.009
13.0,3.0,5.01
12.0,5.0,5.011
5.0,0.0,5.012
0.0,-7.0,5.013
-3.0,-9.0,5.014
-5.0,-9.0,5.015
-4.0,-7.0,5.016
0.0,-4.0,5.017
8.0,1.0,5.018
9.0,5.0,5.019
3.0,4.0,5.02
-2.0,-2.0,5.021
-3.0,-3.0,5.022
0.0,-1.0,5.023
5.0,-2.0,5.024
10.0,-4.0,5.025
12.0,-1.0,5.026
13.0,4.0,5.027
15.0,7.0,5.028
16.0,7.0,5.029
13.0,6.0,5.03
10.0,2.0,5.031
9.0,-1.0,5.032
13.0,-1.0,5.033
17.0,4.0,5.034
17.0,5.0,5.035
10.0,0.0,5.036
2.0,-4.0,5.037
-3.0,-7.0,5.038
-2.0,-9.0,5.039
2.0,-12.0,5.04
9.0,-10.0,5.041
13.0,0.0,5.042
10.0,7.0,5.043
3.0,3.0,5.044
-2.0,0.0,5.045
0.0,1.0,5.046
1.0,2.0,5.047
-7.0,-3.0,5.048
-22.0,-8.0,5.049
-28.0,-7.0,5.05
-23.0,-6.0,5.051
-16.0,-8.0,5.052
-16.0,-10.0,5.053
-18.0,-7.0,5.054
-15.0,-2.0,5.055
-7.0,-1.0,5.056
-1.0,1.0,5.057
2.0,5.0,5.058
11.0,7.0,5.059
17.0,2.0,5.06
11.0,-3.0,5.061
7.0,-1.0,5.062
5.0,5.0,5.063
4.0,6.0,5.064
5.0,5.0,5.065
5.0,6.0,5.066
2.0,7.0,5.067
0.0,4.0,5.068
1.0,2.0,5.069
3.0,3.0,5.07
3.0,2.0,5.071
4.0,-1.0,5.072
14.0,-1.0,5.073
22.0,1.0,5.074
23.0,1.0,5.075
26.0,-6.0,5.076
32.0,-7.0,5.077
37.0,-4.0,5.078
25.0,0.0,5.079
3.0,0.0,5.08
-13.0,-6.0,5.081
-17.0,-6.0,5.082
-17.0,-2.0,5.083
-17.0,0.0,5.084
-21.0,3.0,5.085
-24.0,6.0,5.086
-20.0,5.0,5.087
-11.0,0.0,5.088
0.0,-3.0,5.089
9.0,-2.0,5.09
16.0,-3.0,5.091
19.0,-3.0,5.092
17.0,-1.0,5.093
10.0,3.0,5.094
2.0,3.0,5.095
-5.0,-1.0,5.096
-11.0,-2.0,5.097
-16.0,-2.0,5.098
-12.0,-6.0,5.099
-1.0,-13.0,5.1
6.0,-15.0,5.101
1.0,-6.0,5.102
-5.0,2.0,5.103
0.0,3.0,5.104
12.0,4.0,5.105
20.0,8.0,5.106
17.0,11.0,5.107
9.0,6.0,5.108
5.0,-2.0,5.109
5.0,-8.0,5.11
6.0,-9.0,5.111
7.0,-4.0,5.112
10.0,3.0,5.113
11.0,5.0,5.114
9.0,-1.0,5.115
6.0,-10.0,5.116
8.0,-11.0,5.117
13.0,-8.0,5.118
20.0,-5.0,5.119
20.0,0.0,5.12
8.0,2.0,5.121
-2.0,3.0,5.122
-1.0,0.0,5.123
3.0,0.0,5.124
-2.0,7.0,5.125
-16.0,13.0,5.126
-23.0,6.0,5.127
-20.0,-8.0,5.128
-19.0,-15.0,5.129
-20.0,-16.0,5.13
-12.0,-17.0,5.131
2.0,-13.0,5.132
13.0,-2.0,5.133
13.0,8.0,5.134
9.0,5.0,5.135
9.0,-5.0,5.136
13.0,-4.0,5.137
12.0,2.0,5.138
8.0,8.0,5.139
4.0,3.0,5.14
2.0,-2.0,5.141
1.0,3.0,5.142
3.0,6.0,5.143
5.0,2.0,5.144
0.0,0.0,5.145
-4.0,5.0,5.146
-5.0,8.0,5.147
-6.0,3.0,5.148
-2.0,-2.0,5.149
3.0,1.0,5.15
13.0,5.0,5.151
24.0,2.0,5.152
37.0,-2.0,5.153
45.0,0.0,5.154
36.0,3.0,5.155
23.0,4.0,5.156
0.0,3.0,5.157
-20.0,3.0,5.158
-27.0,1.0,5.159
-35.0,-2.0,5.16
-46.0,-10.0,5.161
-51.0,-15.0,5.162
-40.0,-16.0,5.163
-20.0,-11.0,5.164
-7.0,-3.0,5.165
0.0,2.0,5.166
7.0,0.0,5.167
18.0,-3.0,5.168
25.0,0.0,5.169
29.0,6.0,5.17
26.0,6.0,5.171
21.0,2.0,5.172
18.0,3.0,5.173
16.0,7.0,5.174
13.0,6.0,5.175
4.0,1.0,5.176
-4.0,0.0,5.177
-7.0,-3.0,5.178
-4.0,-9.0,5.179
-2.0,-20.0,5.18
-5.0,-26.0,5.181
-8.0,-17.0,5.182
-4.0,-4.0,5.183
1.0,3.0,5.184
4.0,3.0,5.185
3.0,6.0,5.186
4.0,9.0,5.187
7.0,10.0,5.188
8.0,6.0,5.189
6.0,-1.0,5.19
2.0,-7.0,5.191
-2.0,-8.0,5.192
-3.0,-6.0,5.193
0.0,-2.0,5.194
10.0,2.0,5.195
18.0,6.0,5.196
23.0,6.0,5.197
23.0,3.0,5.198
20.0,5.0,5.199
10.0,7.0,5.2
-3.0,4.0,5.201
-8.0,-2.0,5.202
-3.0,-7.0,5.203
5.0,-4.0,5.204
6.0,3.0,5.205
5.0,8.0,5.206
9.0,7.0,5.207
15.0,2.0,5.208
14.0,-3.0,5.209
2.0,-4.0,5.21
-4.0,-3.0,5.211
-4.0,0.0,5.212
-2.0,1.0,5.213
-5.0,-2.0,5.214
-10.0,-7.0,5.215
-11.0,-8.0,5.216
-7.0,-3.0,5.217
-6.0,2.0,5.218
-10.0,0.0,5.219
-13.0,-7.0,5.22
-11.0,-14.0,5.221
-7.0,-11.0,5.222
2.0,-3.0,5.223
10.0,4.0,5.224
8.0,5.0,5.225
8.0,5.0,5.226
13.0,6.0,5.227
16.0,5.0,5.228
13.0,1.0,5.229
9.0,1.0,5.23
7.0,2.0,5.231
5.0,1.0,5.232
2.0,-4.0,5.233
0.0,-8.0,5.234
-4.0,-8.0,5.235
-7.0,-6.0,5.236
-5.0,-8.0,5.237
-3.0,-12.0,5.238
-2.0,-14.0,5.239
-4.0,-8.0,5.24
-8.0,-5.0,5.241
-9.0,-4.0,5.242
2.0,0.0,5.243
21.0,6.0,5.244
29.0,15.0,5.245
23.0,18.0,5.246
15.0,14.0,5.247
14.0,8.0,5.248
14.0,6.0,5.249
11.0,7.0,5.25
6.0,9.0,5.251
2.0,5.0,5.252
0.0,0.0,5.253
-3.0,-3.0,5.254
-7.0,-5.0,5.255
-11.0,-11.0,5.256
-9.0,-15.0,5.257
-3.0,-16.0,5.258
0.0,-9.0,5.259
-2.0,-2.0,5.26
-9.0,-4.0,5.261
-10.0,-5.0,5.262
-2.0,-4.0,5.263
4.0,2.0,5.264
3.0,6.0,5.265
-1.0,8.0,5.266
0.0,8.0,5.267
3.0,3.0,5.268
1.0,-4.0,5.269
-4.0,-13.0,5.27
-3.0,-17.0,5.271
7.0,-11.0,5.272
16.0,-1.0,5.273
15.0,5.0,5.274
13.0,2.0,5.275
13.0,-1.0,5.276
16.0,3.0,5.277
16.0,6.0,5.278
12.0,2.0,5.279
3.0,-4.0,5.28
-4.0,-8.0,5.281
-7.0,-4.0,5.282
-3.0,0.0,5.283
0.0,0.0,5.284
-6.0,2.0,5.285
-16.0,4.0,5.286
-17.0,1.0,5.287
-2.0,-5.0,5.288
11.0,-6.0,5.289
12.0,-2.0,5.29
2.0,0.0,5.291
-2.0,-2.0,5.292
-3.0,0.0,5.293
-5.0,4.0,5.294
-10.0,4.0,5.295
-11.0,1.0,5.296
-6.0,0.0,5.297
-3.0,-1.0,5.298
-2.0,-4.0,5.299
2.0,-7.0,5.3
14.0,-5.0,5.301
26.0,-3.0,5.302
37.0,2.0,5.303
44.0,7.0,5.304
38.0,10.0,5.305
34.0,12.0,5.306
33.0,8.0,5.307
27.0,3.0,5.308
6.0,1.0,5.309
-13.0,-2.0,5.31
-27.0,-6.0,5.311
-41.0,-9.0,5.312
-49.0,-10.0,5.313
-55.0,-12.0,5.314
-53.0,-14.0,5.315
-49.0,-17.0,5.316
-42.0,-17.0,5.317
-31.0,-17.0,5.318
-13.0,-13.0,5.319
9.0,-7.0,5.32
23.0,1.0,5.321
24.0,9.0,5.322
21.0,11.0,5.323
23.0,7.0,5.324
27.0,5.0,5.325
28.0,8.0,5.326
29.0,14.0,5.327
30.0,16.0,5.328
26.0,15.0,5.329
17.0,12.0,5.33
6.0,4.0,5.331
-4.0,-9.0,5.332
-13.0,-21.0,5.333
-21.0,-25.0,5.334
-20.0,-21.0,5.335
-10.0,-15.0,5.336
1.0,-7.0,5.337
2.0,-3.0,5.338
-2.0,2.0,5.339
-2.0,6.0,5.34
4.0,6.0,5.341
16.0,11.0,5.342
28.0,14.0,5.343
40.0,17.0,5.344
43.0,16.0,5.345
37.0,10.0,5.346
31.0,5.0,5.347
34.0,9.0,5.348
43.0,20.0,5.349
45.0,27.0,5.35
37.0,22.0,5.351
29.0,12.0,5.352
25.0,6.0,5.353
27.0,1.0,5.354
31.0,-2.0,5.355
26.0,-5.0,5.356
5.0,-7.0,5.357
-28.0,-17.0,5.358
-55.0,-25.0,5.359
-66.0,-22.0,5.36
-65.0,-19.0,5.361
-61.0,-21.0,5.362
-56.0,-27.0,5.363
-49.0,-25.0,5.364
-50.0,-15.0,5.365
-58.0,-9.0,5.366
-59.0,-10.0,5.367
-44.0,-13.0,5.368
-23.0,-15.0,5.369
-9.0,-13.0,5.37
-1.0,-8.0,5.371
10.0,1.0,5.372
21.0,12.0,5.373
27.0,18.0,5.374
32.0,29.0,5.375
44.0,47.0,5.376
52.0,57.0,5.377
43.0,44.0,5.378
25.0,21.0,5.379
9.0,5.0,5.38
3.0,0.0,5.381
2.0,-4.0,5.382
19.0,-10.0,5.383
33.0,-17.0,5.384
41.0,-21.0,5.385
43.0,-31.0,5.386
29.0,-42.0,5.387
16.0,-45.0,5.388
7.0,-37.0,5.389
-1.0,-29.0,5.39
-7.0,-24.0,5.391
-14.0,-16.0,5.392
-19.0,-4.0,5.393
-25.0,4.0,5.394
-31.0,1.0,5.395
-35.0,-7.0,5.396
-27.0,-9.0,5.397
-15.0,1.0,5.398
1.0,22.0,5.399
7.0,35.0,5.4
1.0,32.0,5.401
2.0,29.0,5.402
27.0,40.0,5.403
61.0,57.0,5.404
75.0,59.0,5.405
64.0,41.0,5.406
50.0,21.0,5.407
48.0,9.0,5.408
47.0,-1.0,5.409
32.0,-11.0,5.41
10.0,-15.0,5.411
-7.0,-12.0,5.412
-18.0,-11.0,5.413
-30.0,-16.0,5.414
-45.0,-21.0,5.415
-58.0,-22.0,5.416
-61.0,-24.0,5.417
-60.0,-30.0,5.418
-53.0,-33.0,5.419
-41.0,-29.0,5.42
-25.0,-26.0,5.421
-7.0,-19.0,5.422
11.0,-4.0,5.423
24.0,15.0,5.424
25.0,25.0,5.425
21.0,16.0,5.426
25.0,1.0,5.427
39.0,-1.0,5.428
53.0,4.0,5.429
60.0,-4.0,5.43
66.0,-22.0,5.431
69.0,-33.0,5.432
64.0,-25.0,5.433
41.0,-16.0,5.434
4.0,-17.0,5.435
-35.0,-20.0,5.436
-66.0,-15.0,5.437
-89.0,-12.0,5.438
-101.0,-10.0,5.439
-105.0,-4.0,5.44
-108.0,5.0,5.441
-112.0,14.0,5.442
-102.0,14.0,5.443
-68.0,10.0,5.444
-22.0,15.0,5.445
18.0,30.0,5.446
45.0,43.0,5.447
61.0,46.0,5.448
69.0,38.0,5.449
60.0,26.0,5.45
44.0,16.0,5.451
41.0,12.0,5.452
55.0,10.0,5.453
67.0,5.0,5.454
63.0,-4.0,5.455
56.0,-13.0,5.456
55.0,-18.0,5.457
42.0,-23.0,5.458
7.0,-25.0,5.459
-25.0,-28.0,5.46
-49.0,-30.0,5.461
-68.0,-34.0,5.462
-69.0,-40.0,5.463
-66.0,-43.0,5.464
-51.0,-34.0,5.465
-35.0,-20.0,5.466
-15.0,5.0,5.467
4.0,25.0,5.468
22.0,23.0,5.469
41.0,20.0,5.47
63.0,12.0,5.471
79.0,5.0,5.472
69.0,7.0,5.473
57.0,8.0,5.474
39.0,2.0,5.475
19.0,-6.0,5.476
-6.0,-18.0,5.477
-30.0,-26.0,5.478
-40.0,-18.0,5.479
-35.0,-6.0,5.48
-21.0,11.0,5.481
2.0,42.0,5.482
34.0,73.0,5.483
59.0,83.0,5.484
59.0,66.0,5.485
39.0,34.0,5.486
24.0,13.0,5.487
27.0,5.0,5.488
35.0,-3.0,5.489
26.0,-28.0,5.49
-3.0,-65.0,5.491
-38.0,-101.0,5.492
-74.0,-127.0,5.493
-110.0,-135.0,5.494
-139.0,-120.0,5.495
-149.0,-87.0,5.496
-139.0,-52.0,5.497
-125.0,-17.0,5.498
-109.0,26.0,5.499
-75.0,80.0,5.5
-3.0,123.0,5.501
83.0,130.0,5.502
144.0,93.0,5.503
168.0,33.0,5.504
170.0,-18.0,5.505
166.0,-29.0,5.506
163.0,10.0,5.507
153.0,67.0,5.508
129.0,81.0,5.509
81.0,37.0,5.51
16.0,-17.0,5.511
-43.0,-37.0,5.512
-84.0,-37.0,5.513
-110.0,-43.0,5.514
-119.0,-35.0,5.515
-109.0,9.0,5.516
-92.0,57.0,5.517
-93.0,66.0,5.518
-105.0,47.0,5.519
-105.0,47.0,5.52
-67.0,71.0,5.521
-31.0,87.0,5.522
-3.0,77.0,5.523
28.0,68.0,5.524
65.0,72.0,5.525
100.0,65.0,5.526
126.0,24.0,5.527
144.0,-35.0,5.528
132.0,-74.0,5.529
123.0,-77.0,5.53
127.0,-66.0,5.531
120.0,-72.0,5.532
79.0,-104.0,5.533
42.0,-141.0,5.534
16.0,-149.0,5.535
-6.0,-121.0,5.536
-20.0,-83.0,5.537
-40.0,-60.0,5.538
-75.0,-43.0,5.539
-91.0,-26.0,5.54
-72.0,-3.0,5.541
-37.0,30.0,5.542
-15.0,64.0,5.543
-21.0,84.0,5.544
-47.0,76.0,5.545
-74.0,52.0,5.546
-82.0,40.0,5.547
-59.0,49.0,5.548
-16.0,62.0,5.549
15.0,55.0,5.55
3.0,26.0,5.551
-28.0,-14.0,5.552
-37.0,-47.0,5.553
-6.0,-57.0,5.554
34.0,-40.0,5.555
55.0,-18.0,5.556
55.0,-21.0,5.557
38.0,-60.0,5.558
8.0,-95.0,5.559
-28.0,-96.0,5.56
-43.0,-62.0,5.561
-27.0,-10.0,5.562
-2.0,35.0,5.563
1.0,57.0,5.564
-13.0,63.0,5.565
-28.0,64.0,5.566
-32.0,59.0,5.567
-34.0,46.0,5.568
-40.0,37.0,5.569
-36.0,43.0,5.57
-8.0,53.0,5.571
35.0,46.0,5.572
73.0,17.0,5.573
90.0,-19.0,5.574
95.0,-48.0,5.575
90.0,-64.0,5.576
75.0,-68.0,5.577
43.0,-79.0,5.578
18.0,-107.0,5.579
12.0,-137.0,5.58
16.0,-144.0,5.581
18.0,-115.0,5.582
24.0,-69.0,5.583
37.0,-25.0,5.584
44.0,20.0,5.585
26.0,69.0,5.586
-13.0,101.0,5.587
-60.0,109.0,5.588
-110.0,105.0,5.589
-154.0,106.0,5.59
-171.0,113.0,5.591
-156.0,123.0,5.592
-127.0,135.0,5.593
-95.0,133.0,5.594
-55.0,106.0,5.595
2.0,66.0,5.596
62.0,45.0,5.597
115.0,51.0,5.598
145.0,53.0,5.599
135.0,15.0,5.6
93.0,-54.0,5.601
54.0,-102.0,5.602
47.0,-104.0,5.603
54.0,-87.0,5.604
41.0,-93.0,5.605
3.0,-120.0,5.606
-28.0,-140.0,5.607
-41.0,-138.0,5.608
-59.0,-122.0,5.609
-85.0,-105.0,5.61
-94.0,-83.0,5.611
-68.0,-47.0,5.612
-30.0,-1.0,5.613
-9.0,40.0,5.614
-12.0,61.0,5.615
-18.0,54.0,5.616
-16.0,34.0,5.617
-10.0,24.0,5.618
0.0,38.0,5.619
13.0,55.0,5.62
34.0,51.0,5.621
64.0,39.0,5.622
92.0,37.0,5.623
103.0,47.0,5.624
90.0,45.0,5.625
64.0,28.0,5.626
47.0,10.0,5.627
49.0,4.0,5.628
66.0,2.0,5.629
85.0,-9.0,5.63
82.0,-32.0,5.631
49.0,-56.0,5.632
2.0,-71.0,5.633
-29.0,-70.0,5.634
-35.0,-62.0,5.635
-37.0,-67.0,5.636
-52.0,-83.0,5.637
-76.0,-92.0,5.638
-81.0,-70.0,5.639
-65.0,-26.0,5.64
-52.0,9.0,5.641
-65.0,34.0,5.642
-90.0,56.0,5.643
-92.0,79.0,5.644
-59.0,96.0,5.645
-11.0,98.0,5.646
28.0,98.0,5.647
53.0,107.0,5.648
68.0,132.0,5.649
72.0,158.0,5.65
74.0,156.0,5.651
91.0,113.0,5.652
110.0,50.0,5.653
104.0,-9.0,5.654
76.0,-61.0,5.655
60.0,-104.0,5.656
63.0,-125.0,5.657
50.0,-129.0,5.658
10.0,-133.0,5.659
-32.0,-147.0,5.66
-56.0,-149.0,5.661
-86.0,-113.0,5.662
-133.0,-68.0,5.663
-169.0,-44.0,5.664
-175.0,-26.0,5.665
-169.0,11.0,5.666
-165.0,61.0,5.667
-144.0,100.0,5.668
-92.0,125.0,5.669
-34.0,141.0,5.67
5.0,129.0,5.671
43.0,89.0,5.672
101.0,63.0,5.673
160.0,64.0,5.674
192.0,56.0,5.675
209.0,16.0,5.676
237.0,-6.0,5.677
257.0,17.0,5.678
227.0,39.0,5.679
144.0,6.0,5.68
58.0,-54.0,5.681
-1.0,-76.0,5.682
-41.0,-67.0,5.683
-82.0,-81.0,5.684
-114.0,-116.0,5.685
-118.0,-132.0,5.686
-100.0,-129.0,5.687
-75.0,-128.0,5.688
-52.0,-120.0,5.689
-36.0,-86.0,5.69
-33.0,-47.0,5.691
-44.0,-33.0,5.692
-57.0,-26.0,5.693
-64.0,7.0,5.694
-79.0,44.0,5.695
-106.0,57.0,5.696
-125.0,72.0,5.697
-108.0,130.0,5.698
-67.0,194.0,5.699
-42.0,178.0,5.7
-29.0,83.0,5.701
27.0,16.0,5.702
134.0,40.0,5.703
219.0,95.0,5.704
215.0,94.0,5.705
152.0,31.0,5.706
100.0,-27.0,5.707
77.0,-41.0,5.708
48.0,-38.0,5.709
10.0,-55.0,5.71
-10.0,-97.0,5.711
-7.0,-131.0,5.712
-9.0,-138.0,5.713
-26.0,-120.0,5.714
-39.0,-94.0,5.715
-33.0,-70.0,5.716
-18.0,-45.0,5.717
-5.0,-22.0,5.718
-5.0,-7.0,5.719
-15.0,3.0,5.72
-21.0,20.0,5.721
-7.0,50.0,5.722
20.0,73.0,5.723
15.0,65.0,5.724
-40.0,37.0,5.725
-106.0,27.0,5.726
-128.0,55.0,5.727
-103.0,97.0,5.728
-83.0,104.0,5.729
-92.0,60.0,5.73
-99.0,6.0,5.731
-56.0,-7.0,5.732
32.0,18.0,5.733
108.0,35.0,5.734
124.0,18.0,5.735
92.0,-14.0,5.736
63.0,-37.0,5.737
68.0,-68.0,5.738
90.0,-118.0,5.739
86.0,-169.0,5.74
56.0,-187.0,5.741
27.0,-159.0,5.742
24.0,-119.0,5.743
34.0,-97.0,5.744
39.0,-87.0,5.745
35.0,-70.0,5.746
24.0,-33.0,5.747
0.0,17.0,5.748
-37.0,69.0,5.749
-68.0,117.0,5.75
-78.0,162.0,5.751
-87.0,192.0,5.752
-118.0,196.0,5.753
-159.0,179.0,5.754
-182.0,161.0,5.755
-173.0,155.0,5.756
-136.0,152.0,5.757
-64.0,131.0,5.758
33.0,107.0,5.759
126.0,91.0,5.76
185.0,65.0,5.761
208.0,16.0,5.762
222.0,-32.0,5.763
242.0,-41.0,5.764
261.0,-30.0,5.765
265.0,-47.0,5.766
238.0,-105.0,5.767
173.0,-158.0,5.768
72.0,-170.0,5.769
-35.0,-161.0,5.77
-108.0,-151.0,5.771
-135.0,-126.0,5.772
-136.0,-74.0,5.773
-138.0,-21.0,5.774
-145.0,3.0,5.775
-148.0,2.0,5.776
-147.0,-6.0,5.777
-144.0,-10.0,5.778
-126.0,0.0,5.779
-98.0,36.0,5.78
-80.0,78.0,5.781
-85.0,90.0,5.782
-91.0,51.0,5.783
-65.0,-11.0,5.784
-20.0,-46.0,5.785
20.0,-42.0,5.786
48.0,-41.0,5.787
72.0,-77.0,5.788
92.0,-131.0,5.789
97.0,-166.0,5.79
88.0,-168.0,5.791
72.0,-154.0,5.792
51.0,-126.0,5.793
37.0,-74.0,5.794
43.0,-5.0,5.795
48.0,55.0,5.796
19.0,94.0,5.797
-37.0,128.0,5.798
-63.0,170.0,5.799
-42.0,194.0,5.8
-26.0,172.0,5.801
-49.0,136.0,5.802
-71.0,136.0,5.803
-52.0,156.0,5.804
-27.0,129.0,5.805
-33.0,48.0,5.806
-34.0,-5.0,5.807
13.0,26.0,5.808
83.0,86.0,5.809
117.0,90.0,5.81
119.0,43.0,5.811
131.0,6.0,5.812
159.0,-8.0,5.813
162.0,-33.0,5.814
123.0,-73.0,5.815
62.0,-105.0,5.816
15.0,-112.0,5.817
-9.0,-121.0,5.818
-13.0,-131.0,5.819
-10.0,-125.0,5.82
-21.0,-93.0,5.821
-58.0,-50.0,5.822
-109.0,-20.0,5.823
-155.0,-8.0,5.824
-179.0,5.0,5.825
-174.0,30.0,5.826
-140.0,48.0,5.827
-83.0,35.0,5.828
-6.0,9.0,5.829
91.0,14.0,5.83
182.0,52.0,5.831
228.0,82.0,5.832
208.0,74.0,5.833
147.0,53.0,5.834
75.0,36.0,5.835
-1.0,0.0,5.836
-71.0,-60.0,5.837
-114.0,-119.0,5.838
-108.0,-140.0,5.839
-67.0,-143.0,5.84
-29.0,-159.0,5.841
-18.0,-158.0,5.842
-22.0,-104.0,5.843
-28.0,-25.0,5.844
-37.0,11.0,5.845
-56.0,-12.0,5.846
-86.0,-44.0,5.847
-113.0,-49.0,5.848
-117.0,-33.0,5.849
-97.0,-15.0,5.85
-79.0,8.0,5.851
-78.0,46.0,5.852
-75.0,89.0,5.853
-36.0,115.0,5.854
38.0,116.0,5.855
111.0,104.0,5.856
146.0,98.0,5.857
137.0,96.0,5.858
112.0,86.0,5.859
93.0,64.0,5.86
91.0,43.0,5.861
94.0,42.0,5.862
88.0,49.0,5.863
73.0,42.0,5.864
61.0,18.0,5.865
55.0,2.0,5.866
48.0,11.0,5.867
33.0,40.0,5.868
8.0,60.0,5.869
-23.0,57.0,5.87
-43.0,41.0,5.871
-43.0,38.0,5.872
-33.0,53.0,5.873
-32.0,64.0,5.874
-35.0,52.0,5.875
-23.0,39.0,5.876
6.0,41.0,5.877
31.0,32.0,5.878
32.0,-18.0,5.879
27.0,-94.0,5.88
41.0,-148.0,5.881
60.0,-155.0,5.882
54.0,-146.0,5.883
15.0,-144.0,5.884
-33.0,-138.0,5.885
-59.0,-111.0,5.886
-55.0,-81.0,5.887
-36.0,-70.0,5.888
-30.0,-70.0,5.889
-42.0,-51.0,5.89
-43.0,-2.0,5.891
-6.0,59.0,5.892
41.0,107.0,5.893
56.0,129.0,5.894
34.0,127.0,5.895
12.0,116.0,5.896
4.0,104.0,5.897
-18.0,82.0,5.898
-64.0,43.0,5.899
-107.0,-6.0,5.9
-118.0,-56.0,5.901
-109.0,-86.0,5.902
-98.0,-102.0,5.903
-73.0,-116.0,5.904
-28.0,-128.0,5.905
20.0,-139.0,5.906
55.0,-160.0,5.907
84.0,-178.0,5.908
117.0,-171.0,5.909
133.0,-134.0,5.91
110.0,-94.0,5.911
63.0,-64.0,5.912
33.0,-20.0,5.913
22.0,49.0,5.914
2.0,113.0,5.915
-21.0,154.0,5.916
-2.0,198.0,5.917
69.0,262.0,5.918
130.0,292.0,5.919
98.0,241.0,5.92
-6.0,151.0,5.921
-83.0,98.0,5.922
-80.0,72.0,5.923
-45.0,16.0,5.924
-37.0,-58.0,5.925
-55.0,-92.0,5.926
-66.0,-89.0,5.927
-62.0,-94.0,5.928
-53.0,-107.0,5.929
-41.0,-93.0,5.93
-33.0,-55.0,5.931
-33.0,-37.0,5.932
-22.0,-25.0,5.933
20.0,24.0,5.934
61.0,95.0,5.935
58.0,120.0,5.936
27.0,92.0,5.937
23.0,62.0,5.938
70.0,70.0,5.939
113.0,79.0,5.94
90.0,50.0,5.941
10.0,9.0,5.942
-71.0,-20.0,5.943
-113.0,-54.0,5.944
-114.0,-103.0,5.945
-84.0,-135.0,5.946
-34.0,-129.0,5.947
16.0,-112.0,5.948
40.0,-101.0,5.949
31.0,-70.0,5.95
14.0,-3.0,5.951
11.0,49.0,5.952
21.0,45.0,5.953
28.0,25.0,5.954
43.0,48.0,5.955
85.0,88.0,5.956
128.0,86.0,5.957
120.0,30.0,5.958
51.0,-21.0,5.959
-20.0,-35.0,5.96
-33.0,-38.0,5.961
-9.0,-49.0,5.962
-5.0,-55.0,5.963
-41.0,-43.0,5.964
-87.0,-37.0,5.965
-103.0,-57.0,5.966
-81.0,-87.0,5.967
-33.0,-97.0,5.968
13.0,-73.0,5.969
36.0,-30.0,5.97
33.0,10.0,5.971
26.0,33.0,5.972
25.0,36.0,5.973
37.0,33.0,5.974
58.0,40.0,5.975
77.0,57.0,5.976
81.0,84.0,5.977
65.0,114.0,5.978
52.0,127.0,5.979
47.0,92.0,5.98
35.0,10.0,5.981
1.0,-61.0,5.982
-39.0,-88.0,5.983
-75.0,-96.0,5.984
-114.0,-133.0,5.985
-155.0,-184.0,5.986
-173.0,-188.0,5.987
-164.0,-133.0,5.988
-154.0,-73.0,5.989
-146.0,-46.0,5.99
-106.0,-22.0,5.991
-29.0,28.0,5.992
34.0,74.0,5.993
56.0,81.0,5.994
100.0,101.0,5.995
208.0,188.0,5.996
309.0,296.0,5.997
303.0,329.0,5.998
189.0,258.0,5.999
75.0,165.0,6.0
35.0,123.0,6.001
29.0,118.0,6.002
2.0,89.0,6.003
-29.0,27.0,6.004
-24.0,-34.0,6.005
19.0,-78.0,6.006
56.0,-114.0,6.007
41.0,-148.0,6.008
-35.0,-162.0,6.009
-134.0,-124.0,6.01
-169.0,-29.0,6.011
-101.0,78.0,6.012
3.0,125.0,6.013
47.0,94.0,6.014
19.0,39.0,6.015
-22.0,12.0,6.016
-47.0,7.0,6.017
-78.0,-9.0,6.018
-112.0,-38.0,6.019
-121.0,-66.0,6.02
-105.0,-101.0,6.021
-99.0,-140.0,6.022
-98.0,-158.0,6.023
-74.0,-136.0,6.024
-36.0,-109.0,6.025
-19.0,-112.0,6.026
4.0,-114.0,6.027
83.0,-62.0,6.028
193.0,18.0,6.029
245.0,42.0,6.03
199.0,-10.0,6.031
109.0,-74.0,6.032
43.0,-93.0,6.033
16.0,-86.0,6.034
10.0,-93.0,6.035
6.0,-118.0,6.036
-14.0,-137.0,6.037
-58.0,-131.0,6.038
-105.0,-88.0,6.039
-124.0,-28.0,6.04
-129.0,-3.0,6.041
-130.0,-5.0,6.042
-94.0,32.0,6.043
9.0,142.0,6.044
123.0,255.0,6.045
164.0,283.0,6.046
129.0,236.0,6.047
85.0,166.0,6.048
70.0,82.0,6.049
61.0,-13.0,6.05
40.0,-68.0,6.051
14.0,-55.0,6.052
-16.0,-45.0,6.053
-45.0,-98.0,6.054
-28.0,-139.0,6.055
57.0,-71.0,6.056
141.0,50.0,6.057
139.0,109.0,6.058
74.0,93.0,6.059
55.0,102.0,6.06
123.0,175.0,6.061
187.0,232.0,6.062
154.0,202.0,6.063
44.0,134.0,6.064
-72.0,88.0,6.065
-159.0,55.0,6.066
-212.0,6.0,6.067
-226.0,-39.0,6.068
-207.0,-61.0,6.069
-168.0,-63.0,6.07
-115.0,-60.0,6.071
-44.0,-49.0,6.072
22.0,-33.0,6.073
50.0,-16.0,6.074
18.0,11.0,6.075
-64.0,49.0,6.076
-156.0,58.0,6.077
-216.0,7.0,6.078
-199.0,-61.0,6.079
-109.0,-85.0,6.08
-5.0,-71.0,6.081
62.0,-68.0,6.082
91.0,-87.0,6.083
103.0,-96.0,6.084
100.0,-79.0,6.085
79.0,-59.0,6.086
54.0,-49.0,6.087
42.0,-50.0,6.088
43.0,-60.0,6.089
35.0,-77.0,6.09
28.0,-76.0,6.091
49.0,-48.0,6.092
104.0,-16.0,6.093
147.0,-3.0,6.094
136.0,-5.0,6.095
83.0,-8.0,6.096
34.0,-13.0,6.097
-9.0,-30.0,6.098
-62.0,-44.0,6.099
-119.0,-52.0,6.1
-140.0,-60.0,6.101
-120.0,-64.0,6.102
-88.0,-53.0,6.103
-50.0,-16.0,6.104
4.0,30.0,6.105
50.0,51.0,6.106
48.0,32.0,6.107
19.0,3.0,6.108
22.0,2.0,6.109
63.0,19.0,6.11
81.0,10.0,6.111
52.0,-21.0,6.112
19.0,-19.0,6.113
2.0,34.0,6.114
-23.0,87.0,6.115
-51.0,94.0,6.116
-47.0,90.0,6.117
-14.0,114.0,6.118
3.0,147.0,6.119
5.0,138.0,6.12
48.0,97.0,6.121
116.0,74.0,6.122
121.0,59.0,6.123
45.0,7.0,6.124
-23.0,-66.0,6.125
-14.0,-104.0,6.126
27.0,-99.0,6.127
46.0,-99.0,6.128
63.0,-116.0,6.129
108.0,-102.0,6.13
135.0,-28.0,6.131
108.0,66.0,6.132
56.0,132.0,6.133
17.0,160.0,6.134
-37.0,162.0,6.135
-131.0,138.0,6.136
-209.0,104.0,6.137
-211.0,78.0,6.138
-149.0,59.0,6.139
-94.0,18.0,6.14
-56.0,-31.0,6.141
2.0,-27.0,6.142
70.0,33.0,6.143
82.0,56.0,6.144
32.0,-20.0,6.145
-10.0,-125.0,6.146
2.0,-158.0,6.147
37.0,-123.0,6.148
58.0,-105.0,6.149
65.0,-138.0,6.15
63.0,-175.0,6.151
33.0,-177.0,6.152
-24.0,-144.0,6.153
-69.0,-87.0,6.154
-72.0,-22.0,6.155
-52.0,16.0,6.156
-34.0,11.0,6.157
-18.0,-15.0,6.158
-3.0,-13.0,6.159
-15.0,38.0,6.16
-72.0,105.0,6.161
-150.0,149.0,6.162
-190.0,152.0,6.163
-166.0,118.0,6.164
-112.0,59.0,6.165
-66.0,5.0,6.166
-27.0,-15.0,6.167
27.0,-4.0,6.168
94.0,2.0,6.169
161.0,-13.0,6.17
213.0,-38.0,6.171
221.0,-57.0,6.172
159.0,-74.0,6.173
73.0,-83.0,6.174
58.0,-64.0,6.175
129.0,-19.0,6.176
169.0,9.0,6.177
91.0,-8.0,6.178
-37.0,-39.0,6.179
-98.0,-34.0,6.18
-77.0,6.0,6.181
-50.0,52.0,6.182
-22.0,81.0,6.183
47.0,99.0,6.184
122.0,104.0,6.185
123.0,93.0,6.186
49.0,69.0,6.187
-34.0,49.0,6.188
-94.0,29.0,6.189
-145.0,-7.0,6.19
-164.0,-48.0,6.191
-115.0,-62.0,6.192
-11.0,-20.0,6.193
82.0,53.0,6.194
119.0,99.0,6.195
93.0,82.0,6.196
26.0,31.0,6.197
-58.0,-21.0,6.198
-108.0,-49.0,6.199
-104.0,-55.0,6.2
-77.0,-51.0,6.201
-56.0,-49.0,6.202
-22.0,-57.0,6.203
70.0,-52.0,6.204
217.0,3.0,6.205
336.0,82.0,6.206
324.0,101.0,6.207
167.0,24.0,6.208
-35.0,-70.0,6.209
-163.0,-86.0,6.21
-195.0,-32.0,6.211
-196.0,9.0,6.212
-199.0,2.0,6.213
-169.0,-22.0,6.214
-69.0,-26.0,6.215
58.0,-13.0,6.216
135.0,-7.0,6.217
137.0,-32.0,6.218
93.0,-70.0,6.219
27.0,-80.0,6.22
-61.0,-46.0,6.221
-151.0,-2.0,6.222
-195.0,-1.0,6.223
-184.0,-38.0,6.224
-167.0,-67.0,6.225
-165.0,-61.0,6.226
-128.0,-36.0,6.227
-22.0,-7.0,6.228
77.0,15.0,6.229
90.0,16.0,6.23
57.0,-2.0,6.231
85.0,0.0,6.232
169.0,51.0,6.233
192.0,108.0,6.234
110.0,104.0,6.235
9.0,42.0,6.236
-17.0,0.0,6.237
4.0,13.0,6.238
1.0,51.0,6.239
-31.0,68.0,6.24
-34.0,71.0,6.241
11.0,92.0,6.242
63.0,110.0,6.243
76.0,76.0,6.244
51.0,-11.0,6.245
19.0,-106.0,6.246
-2.0,-169.0,6.247
0.0,-195.0,6.248
24.0,-174.0,6.249
54.0,-107.0,6.25
64.0,-37.0,6.251
48.0,-19.0,6.252
17.0,-34.0,6.253
-14.0,-13.0,6.254
-49.0,46.0,6.255
-94.0,80.0,6.256
-127.0,68.0,6.257
-123.0,59.0,6.258
-80.0,82.0,6.259
-40.0,83.0,6.26
-31.0,10.0,6.261
-21.0,-69.0,6.262
60.0,-72.0,6.263
212.0,-5.0,6.264
347.0,51.0,6.265
374.0,56.0,6.266
298.0,40.0,6.267
198.0,41.0,6.268
116.0,60.0,6.269
32.0,75.0,6.27
-74.0,84.0,6.271
-178.0,90.0,6.272
-240.0,85.0,6.273
-253.0,55.0,6.274
-242.0,8.0,6.275
-230.0,-31.0,6.276
-212.0,-54.0,6.277
-143.0,-76.0,6.278
5.0,-99.0,6.279
180.0,-104.0,6.28
265.0,-87.0,6.281
196.0,-55.0,6.282
43.0,-27.0,6.283
-70.0,-2.0,6.284
-105.0,22.0,6.285
-109.0,35.0,6.286
-140.0,32.0,6.287
-205.0,13.0,6.288
-263.0,-24.0,6.289
-256.0,-69.0,6.29
-167.0,-99.0,6.291
-48.0,-104.0,6.292
32.0,-120.0,6.293
71.0,-178.0,6.294
124.0,-230.0,6.295
200.0,-214.0,6.296
237.0,-154.0,6.297
179.0,-115.0,6.298
72.0,-96.0,6.299
-5.0,-32.0,6.3
-28.0,86.0,6.301
-48.0,177.0,6.302
-88.0,202.0,6.303
-89.0,233.0,6.304
0.0,339.0,6.305
130.0,456.0,6.306
174.0,464.0,6.307
83.0,341.0,6.308
-46.0,187.0,6.309
-72.0,101.0,6.31
26.0,83.0,6.311
143.0,60.0,6.312
172.0,-8.0,6.313
107.0,-85.0,6.314
24.0,-127.0,6.315
-7.0,-140.0,6.316
1.0,-155.0,6.317
3.0,-181.0,6.318
-16.0,-190.0,6.319
-27.0,-188.0,6.32
-14.0,-193.0,6.321
-1.0,-186.0,6.322
-10.0,-149.0,6.323
-23.0,-107.0,6.324
-21.0,-95.0,6.325
-18.0,-90.0,6.326
-33.0,-47.0,6.327
-58.0,15.0,6.328
-52.0,51.0,6.329
14.0,55.0,6.33
109.0,71.0,6.331
137.0,96.0,6.332
41.0,102.0,6.333
-119.0,93.0,6.334
-203.0,101.0,6.335
-154.0,111.0,6.336
-49.0,84.0,6.337
54.0,8.0,6.338
164.0,-56.0,6.339
258.0,-72.0,6.34
251.0,-83.0,6.341
124.0,-128.0,6.342
-2.0,-179.0,6.343
-21.0,-181.0,6.344
0.0,-127.0,6.345
-42.0,-64.0,6.346
-117.0,-17.0,6.347
-122.0,22.0,6.348
-55.0,54.0,6.349
-6.0,73.0,6.35
-4.0,87.0,6.351
-12.0,112.0,6.352
-11.0,131.0,6.353
-12.0,111.0,6.354
0.0,56.0,6.355
39.0,13.0,6.356
75.0,3.0,6.357
55.0,-8.0,6.358
-15.0,-36.0,6.359
-82.0,-60.0,6.36
-99.0,-66.0,6.361
-77.0,-64.0,6.362
-48.0,-67.0,6.363
-35.0,-43.0,6.364
-36.0,21.0,6.365
-41.0,70.0,6.366
-43.0,49.0,6.367
-34.0,-13.0,6.368
-12.0,-40.0,6.369
6.0,-6.0,6.37
-1.0,58.0,6.371
-19.0,134.0,6.372
-9.0,212.0,6.373
22.0,246.0,6.374
19.0,184.0,6.375
-27.0,66.0,6.376
-50.0,-11.0,6.377
-15.0,-28.0,6.378
21.0,-40.0,6.379
4.0,-82.0,6.38
-10.0,-109.0,6.381
60.0,-85.0,6.382
180.0,-52.0,6.383
229.0,-56.0,6.384
163.0,-75.0,6.385
44.0,-80.0,6.386
-55.0,-90.0,6.387
-109.0,-116.0,6.388
-111.0,-115.0,6.389
-59.0,-66.0,6.39
23.0,-19.0,6.391
87.0,-21.0,6.392
100.0,-48.0,6.393
57.0,-56.0,6.394
-10.0,-35.0,6.395
-48.0,9.0,6.396
-31.0,70.0,6.397
8.0,111.0,6.398
24.0,71.0,6.399
13.0,-34.0,6.4
21.0,-102.0,6.401
62.0,-66.0,6.402
94.0,13.0,6.403
97.0,47.0,6.404
94.0,39.0,6.405
96.0,55.0,6.406
68.0,112.0,6.407
-11.0,159.0,6.408
-93.0,165.0,6.409
-103.0,145.0,6.41
-38.0,133.0,6.411
22.0,126.0,6.412
6.0,95.0,6.413
-71.0,26.0,6.414
-139.0,-54.0,6.415
-153.0,-108.0,6.416
-126.0,-124.0,6.417
-87.0,-128.0,6.418
-49.0,-146.0,6.419
-36.0,-172.0,6.42
-59.0,-181.0,6.421
-84.0,-143.0,6.422
-60.0,-65.0,6.423
-2.0,17.0,6.424
8.0,60.0,6.425
-49.0,59.0,6.426
-86.0,57.0,6.427
-29.0,103.0,6.428
72.0,181.0,6.429
112.0,218.0,6.43
66.0,161.0,6.431
1.0,49.0,6.432
-21.0,-28.0,6.433
-1.0,-28.0,6.434
31.0,-2.0,6.435
46.0,-11.0,6.436
44.0,-39.0,6.437
47.0,-50.0,6.438
70.0,-36.0,6.439
88.0,-39.0,6.44
77.0,-79.0,6.441
60.0,-126.0,6.442
81.0,-154.0,6.443
112.0,-164.0,6.444
79.0,-147.0,6.445
-21.0,-99.0,6.446
-97.0,-46.0,6.447
-84.0,-26.0,6.448
-23.0,-29.0,6.449
17.0,-9.0,6.45
41.0,31.0,6.451
90.0,48.0,6.452
164.0,35.0,6.453
225.0,31.0,6.454
241.0,50.0,6.455
200.0,51.0,6.456
96.0,18.0,6.457
-58.0,0.0,6.458
-183.0,32.0,6.459
-269.0,59.0,6.46
-239.0,71.0,6.461
-207.0,74.0,6.462
-171.0,52.0,6.463
-133.0,26.0,6.464
-88.0,-9.0,6.465
-58.0,-38.0,6.466
-78.0,-49.0,6.467
-80.0,-63.0,6.468
-30.0,-87.0,6.469
14.0,-105.0,6.47
38.0,-106.0,6.471
55.0,-99.0,6.472
48.0,-64.0,6.473
36.0,-30.0,6.474
6.0,3.0,6.475
-3.0,47.0,6.476
47.0,125.0,6.477
98.0,191.0,6.478
117.0,187.0,6.479
90.0,150.0,6.48
58.0,136.0,6.481
31.0,149.0,6.482
-7.0,133.0,6.483
-53.0,76.0,6.484
-66.0,32.0,6.485
-13.0,44.0,6.486
80.0,70.0,6.487
139.0,43.0,6.488
107.0,-16.0,6.489
21.0,-39.0,6.49
-31.0,-17.0,6.491
-18.0,-13.0,6.492
1.0,-59.0,6.493
-15.0,-99.0,6.494
-24.0,-77.0,6.495
12.0,-25.0,6.496
54.0,2.0,6.497
34.0,-1.0,6.498
-42.0,3.0,6.499
-105.0,5.0,6.5
-110.0,-32.0,6.501
-64.0,-99.0,6.502
18.0,-136.0,6.503
120.0,-111.0,6.504
191.0,-59.0,6.505
175.0,-36.0,6.506
80.0,-61.0,6.507
-30.0,-113.0,6.508
-106.0,-149.0,6.509
-139.0,-124.0,6.51
-133.0,-28.0,6.511
-96.0,85.0,6.512
-46.0,134.0,6.513
-12.0,106.0,6.514
2.0,69.0,6.515
10.0,72.0,6.516
13.0,79.0,6.517
8.0,38.0,6.518
5.0,-21.0,6.519
14.0,-32.0,6.52
30.0,0.0,6.521
48.0,23.0,6.522
74.0,13.0,6.523
112.0,4.0,6.524
129.0,2.0,6.525
89.0,-27.0,6.526
18.0,-87.0,6.527
-19.0,-122.0,6.528
8.0,-99.0,6.529
65.0,-51.0,6.53
100.0,-31.0,6.531
89.0,-57.0,6.532
42.0,-109.0,6.533
-14.0,-140.0,6.534
-45.0,-103.0,6.535
-37.0,-7.0,6.536
-12.0,83.0,6.537
5.0,125.0,6.538
2.0,136.0,6.539
-20.0,164.0,6.54
-54.0,201.0,6.541
-96.0,215.0,6.542
-145.0,203.0,6.543
-201.0,205.0,6.544
-252.0,213.0,6.545
-266.0,174.0,6.546
-214.0,70.0,6.547
-103.0,-45.0,6.548
17.0,-108.0,6.549
122.0,-113.0,6.55
219.0,-89.0,6.551
308.0,-72.0,6.552
343.0,-69.0,6.553
277.0,-81.0,6.554
129.0,-91.0,6.555
-21.0,-90.0,6.556
-116.0,-81.0,6.557
-178.0,-74.0,6.558
-224.0,-66.0,6.559
-247.0,-62.0,6.56
-235.0,-74.0,6.561
-211.0,-97.0,6.562
-187.0,-110.0,6.563
-134.0,-103.0,6.564
-32.0,-75.0,6.565
81.0,-37.0,6.566
152.0,-1.0,6.567
181.0,27.0,6.568
192.0,52.0,6.569
180.0,81.0,6.57
124.0,98.0,6.571
55.0,81.0,6.572
27.0,45.0,6.573
42.0,22.0,6.574
51.0,5.0,6.575
34.0,-36.0,6.576
23.0,-87.0,6.577
51.0,-91.0,6.578
94.0,-29.0,6.579
105.0,31.0,6.58
74.0,31.0,6.581
31.0,0.0,6.582
0.0,-22.0,6.583
-24.0,-42.0,6.584
-57.0,-67.0,6.585
-90.0,-72.0,6.586
-104.0,-49.0,6.587
-92.0,-31.0,6.588
-78.0,-28.0,6.589
-71.0,-7.0,6.59
-52.0,49.0,6.591
-2.0,103.0,6.592
53.0,135.0,6.593
94.0,167.0,6.594
138.0,202.0,6.595
207.0,212.0,6.596
264.0,188.0,6.597
237.0,153.0,6.598
107.0,117.0,6.599
-66.0,52.0,6.6
-201.0,-41.0,6.601
-264.0,-95.0,6.602
-250.0,-87.0,6.603
-178.0,-80.0,6.604
-90.0,-125.0,6.605
-32.0,-177.0,6.606
5.0,-177.0,6.607
53.0,-134.0,6.608
89.0,-86.0,6.609
57.0,-29.0,6.61
-37.0,37.0,6.611
-107.0,65.0,6.612
-96.0,27.0,6.613
-26.0,-18.0,6.614
66.0,-3.0,6.615
157.0,45.0,6.616
196.0,57.0,6.617
117.0,20.0,6.618
-41.0,-5.0,6.619
-144.0,2.0,6.62
-119.0,8.0,6.621
-52.0,-13.0,6.622
-43.0,-39.0,6.623
-66.0,-45.0,6.624
-55.0,-34.0,6.625
-11.0,-22.0,6.626
26.0,-6.0,6.627
60.0,29.0,6.628
93.0,58.0,6.629
84.0,54.0,6.63
27.0,14.0,6.631
1.0,-22.0,6.632
65.0,-27.0,6.633
149.0,-22.0,6.634
138.0,-43.0,6.635
44.0,-78.0,6.636
-15.0,-85.0,6.637
9.0,-51.0,6.638
62.0,-1.0,6.639
72.0,34.0,6.64
35.0,46.0,6.641
-12.0,46.0,6.642
-65.0,40.0,6.643
-125.0,32.0,6.644
-171.0,28.0,6.645
-174.0,40.0,6.646
-130.0,71.0,6.647
-72.0,108.0,6.648
-36.0,132.0,6.649
-30.0,133.0,6.65
-20.0,124.0,6.651
32.0,107.0,6.652
115.0,59.0,6.653
154.0,-38.0,6.654
111.0,-149.0,6.655
31.0,-201.0,6.656
-11.0,-172.0,6.657
-4.0,-104.0,6.658
24.0,-50.0,6.659
39.0,-16.0,6.66
39.0,14.0,6.661
26.0,37.0,6.662
4.0,42.0,6.663
-2.0,52.0,6.664
21.0,84.0,6.665
47.0,107.0,6.666
46.0,86.0,6.667
19.0,40.0,6.668
-4.0,-1.0,6.669
-18.0,-37.0,6.67
-31.0,-84.0,6.671
-48.0,-127.0,6.672
-65.0,-137.0,6.673
-76.0,-119.0,6.674
-65.0,-99.0,6.675
-17.0,-85.0,6.676
47.0,-74.0,6.677
91.0,-64.0,6.678
94.0,-37.0,6.679
76.0,17.0,6.68
67.0,74.0,6.681
69.0,88.0,6.682
67.0,43.0,6.683
56.0,-20.0,6.684
33.0,-66.0,6.685
-2.0,-99.0,6.686
-38.0,-122.0,6.687
-62.0,-123.0,6.688
-78.0,-102.0,6.689
-96.0,-81.0,6.69
-123.0,-55.0,6.691
-149.0,-6.0,6.692
-155.0,59.0,6.693
-134.0,104.0,6.694
-90.0,119.0,6.695
-40.0,124.0,6.696
1.0,125.0,6.697
41.0,106.0,6.698
89.0,80.0,6.699
125.0,69.0,6.7
118.0,63.0,6.701
75.0,54.0,6.702
43.0,58.0,6.703
55.0,87.0,6.704
70.0,110.0,6.705
30.0,87.0,6.706
-44.0,27.0,6.707
-83.0,-20.0,6.708
-68.0,-36.0,6.709
-59.0,-44.0,6.71
-88.0,-69.0,6.711
-96.0,-108.0,6.712
-29.0,-139.0,6.713
73.0,-143.0,6.714
127.0,-130.0,6.715
109.0,-126.0,6.716
68.0,-145.0,6.717
35.0,-158.0,6.718
16.0,-124.0,6.719
9.0,-48.0,6.72
13.0,28.0,6.721
0.0,99.0,6.722
-46.0,175.0,6.723
-94.0,246.0,6.724
-104.0,269.0,6.725
-84.0,233.0,6.726
-68.0,171.0,6.727
-50.0,115.0,6.728
13.0,75.0,6.729
109.0,41.0,6.73
165.0,7.0,6.731
142.0,-14.0,6.732
92.0,-15.0,6.733
89.0,-1.0,6.734
122.0,-1.0,6.735
123.0,-36.0,6.736
90.0,-71.0,6.737
69.0,-73.0,6.738
77.0,-37.0,6.739
83.0,-3.0,6.74
51.0,-13.0,6.741
15.0,-36.0,6.742
27.0,-33.0,6.743
56.0,-20.0,6.744
23.0,-35.0,6.745
-80.0,-73.0,6.746
-176.0,-91.0,6.747
-198.0,-74.0,6.748
-158.0,-54.0,6.749
-94.0,-70.0,6.75
-34.0,-115.0,6.751
-7.0,-149.0,6.752
-43.0,-147.0,6.753
-122.0,-116.0,6.754
-171.0,-68.0,6.755
-143.0,-10.0,6.756
-78.0,49.0,6.757
-14.0,109.0,6.758
26.0,140.0,6.759
56.0,123.0,6.76
52.0,41.0,6.761
-5.0,-65.0,6.762
-76.0,-111.0,6.763
-111.0,-58.0,6.764
-107.0,22.0,6.765
-88.0,41.0,6.766
-61.0,6.0,6.767
-17.0,0.0,6.768
37.0,42.0,6.769
103.0,81.0,6.77
189.0,88.0,6.771
269.0,102.0,6.772
282.0,118.0,6.773
209.0,82.0,6.774
123.0,-15.0,6.775
90.0,-102.0,6.776
82.0,-111.0,6.777
45.0,-70.0,6.778
-7.0,-36.0,6.779
-25.0,-27.0,6.78
-22.0,-32.0,6.781
-42.0,-36.0,6.782
-81.0,-37.0,6.783
-95.0,-13.0,6.784
-79.0,36.0,6.785
-70.0,82.0,6.786
-68.0,94.0,6.787
-50.0,91.0,6.788
-33.0,91.0,6.789
-50.0,92.0,6.79
-79.0,83.0,6.791
-66.0,80.0,6.792
-7.0,94.0,6.793
51.0,91.0,6.794
86.0,47.0,6.795
112.0,0.0,6.796
127.0,0.0,6.797
94.0,27.0,6.798
14.0,21.0,6.799
-58.0,-30.0,6.8
-66.0,-68.0,6.801
-12.0,-51.0,6.802
60.0,-9.0,6.803
111.0,12.0,6.804
126.0,8.0,6.805
112.0,-3.0,6.806
87.0,-21.0,6.807
54.0,-51.0,6.808
5.0,-86.0,6.809
-51.0,-104.0,6.81
-84.0,-93.0,6.811
-81.0,-65.0,6.812
-73.0,-53.0,6.813
-93.0,-79.0,6.814
-132.0,-116.0,6.815
-152.0,-118.0,6.816
-143.0,-83.0,6.817
-121.0,-48.0,6.818
-96.0,-49.0,6.819
-67.0,-79.0,6.82
-36.0,-102.0,6.821
-15.0,-99.0,6.822
-1.0,-77.0,6.823
13.0,-39.0,6.824
18.0,8.0,6.825
10.0,49.0,6.826
8.0,64.0,6.827
38.0,53.0,6.828
85.0,36.0,6.829
113.0,34.0,6.83
112.0,51.0,6.831
99.0,76.0,6.832
79.0,95.0,6.833
52.0,91.0,6.834
34.0,60.0,6.835
44.0,23.0,6.836
69.0,19.0,6.837
81.0,57.0,6.838
69.0,100.0,6.839
45.0,108.0,6.84
27.0,93.0,6.841
20.0,106.0,6.842
14.0,136.0,6.843
-9.0,130.0,6.844
-50.0,77.0,6.845
-72.0,33.0,6.846
-39.0,26.0,6.847
13.0,14.0,6.848
15.0,-28.0,6.849
-34.0,-70.0,6.85
-71.0,-80.0,6.851
-60.0,-80.0,6.852
-36.0,-97.0,6.853
-31.0,-115.0,6.854
-24.0,-117.0,6.855
10.0,-112.0,6.856
52.0,-105.0,6.857
81.0,-74.0,6.858
105.0,-4.0,6.859
135.0,63.0,6.86
148.0,83.0,6.861
115.0,63.0,6.862
35.0,43.0,6.863
-53.0,33.0,6.864
-104.0,20.0,6.865
-104.0,-7.0,6.866
-94.0,-34.0,6.867
-124.0,-50.0,6.868
-176.0,-61.0,6.869
-183.0,-71.0,6.87
-138.0,-77.0,6.871
-97.0,-68.0,6.872
-86.0,-43.0,6.873
-53.0,-7.0,6.874
30.0,22.0,6.875
99.0,22.0,6.876
101.0,-7.0,6.877
74.0,-42.0,6.878
90.0,-49.0,6.879
139.0,-24.0,6.88
137.0,-6.0,6.881
63.0,-8.0,6.882
-16.0,-19.0,6.883
-38.0,-19.0,6.884
-19.0,-6.0,6.885
-4.0,18.0,6.886
-3.0,47.0,6.887
-4.0,74.0,6.888
-2.0,80.0,6.889
-5.0,65.0,6.89
-10.0,47.0,6.891
-14.0,38.0,6.892
-27.0,30.0,6.893
-49.0,14.0,6.894
-57.0,10.0,6.895
-38.0,27.0,6.896
-13.0,45.0,6.897
1.0,40.0,6.898
14.0,16.0,6.899
46.0,-2.0,6.9
98.0,-9.0,6.901
135.0,-9.0,6.902
122.0,-9.0,6.903
64.0,-9.0,6.904
5.0,-6.0,6.905
-14.0,3.0,6.906
6.0,13.0,6.907
26.0,9.0,6.908
25.0,-20.0,6.909
18.0,-52.0,6.91
22.0,-59.0,6.911
24.0,-40.0,6.912
8.0,-30.0,6.913
-18.0,-38.0,6.914
-32.0,-43.0,6.915
-18.0,-18.0,6.916
15.0,28.0,6.917
51.0,67.0,6.918
75.0,75.0,6.919
72.0,53.0,6.92
49.0,26.0,6.921
19.0,18.0,6.922
-19.0,16.0,6.923
-68.0,-6.0,6.924
-117.0,-43.0,6.925
-147.0,-65.0,6.926
-150.0,-62.0,6.927
-130.0,-56.0,6.928
-103.0,-52.0,6.929
-78.0,-32.0,6.93
-55.0,3.0,6.931
-20.0,24.0,6.932
29.0,7.0,6.933
61.0,-25.0,6.934
51.0,-35.0,6.935
28.0,-20.0,6.936
41.0,3.0,6.937
88.0,17.0,6.938
120.0,30.0,6.939
101.0,48.0,6.94
53.0,66.0,6.941
3.0,72.0,6.942
-31.0,59.0,6.943
-43.0,39.0,6.944
-36.0,26.0,6.945
-28.0,22.0,6.946
-31.0,20.0,6.947
-27.0,10.0,6.948
-7.0,-7.0,6.949
9.0,-24.0,6.95
10.0,-24.0,6.951
14.0,-9.0,6.952
33.0,-1.0,6.953
49.0,-15.0,6.954
46.0,-35.0,6.955
36.0,-42.0,6.956
33.0,-47.0,6.957
16.0,-71.0,6.958
-13.0,-92.0,6.959
-26.0,-78.0,6.96
-7.0,-38.0,6.961
24.0,2.0,6.962
39.0,36.0,6.963
36.0,70.0,6.964
19.0,91.0,6.965
-11.0,64.0,6.966
-44.0,8.0,6.967
-54.0,-21.0,6.968
-42.0,-6.0,6.969
-37.0,19.0,6.97
-49.0,19.0,6.971
-57.0,8.0,6.972
-40.0,10.0,6.973
-7.0,25.0,6.974
24.0,34.0,6.975
43.0,29.0,6.976
56.0,18.0,6.977
71.0,4.0,6.978
104.0,-1.0,6.979
124.0,3.0,6.98
87.0,-3.0,6.981
-1.0,-22.0,6.982
-73.0,-53.0,6.983
-80.0,-75.0,6.984
-54.0,-79.0,6.985
-51.0,-78.0,6.986
-67.0,-80.0,6.987
-70.0,-79.0,6.988
-60.0,-60.0,6.989
-50.0,-15.0,6.99
-14.0,45.0,6.991
66.0,94.0,6.992
144.0,114.0,6.993
147.0,107.0,6.994
75.0,86.0,6.995
-3.0,62.0,6.996
-39.0,42.0,6.997
-41.0,22.0,6.998
-35.0,0.0,6.999
-30.0,-28.0,7.0
-25.0,-62.0,7.001
-26.0,-82.0,7.002
-31.0,-81.0,7.003
-31.0,-64.0,7.004
-26.0,-46.0,7.005
-20.0,-34.0,7.006
-6.0,-28.0,7.007
13.0,-20.0,7.008
25.0,-1.0,7.009
21.0,17.0,7.01
10.0,13.0,7.011
5.0,-14.0,7.012
10.0,-37.0,7.013
20.0,-29.0,7.014
34.0,0.0,7.015
51.0,22.0,7.016
60.0,34.0,7.017
53.0,48.0,7.018
44.0,70.0,7.019
33.0,85.0,7.02
17.0,83.0,7.021
4.0,81.0,7.022
8.0,78.0,7.023
18.0,71.0,7.024
5.0,53.0,7.025
-25.0,32.0,7.026
-39.0,12.0,7.027
-19.0,-6.0,7.028
10.0,-19.0,7.029
23.0,-25.0,7.03
16.0,-33.0,7.031
9.0,-46.0,7.032
7.0,-58.0,7.033
4.0,-55.0,7.034
-7.0,-47.0,7.035
-14.0,-48.0,7.036
-8.0,-49.0,7.037
3.0,-44.0,7.038
5.0,-36.0,7.039
-16.0,-41.0,7.04
-51.0,-57.0,7.041
-78.0,-57.0,7.042
-85.0,-36.0,7.043
-78.0,-10.0,7.044
-64.0,7.0,7.045
-39.0,17.0,7.046
3.0,20.0,7.047
47.0,19.0,7.048
67.0,21.0,7.049
57.0,29.0,7.05
50.0,34.0,7.051
63.0,37.0,7.052
79.0,45.0,7.053
72.0,50.0,7.054
44.0,35.0,7.055
19.0,5.0,7.056
10.0,-8.0,7.057
6.0,0.0,7.058
3.0,7.0,7.059
-1.0,-5.0,7.06
-2.0,-29.0,7.061
-1.0,-40.0,7.062
-4.0,-41.0,7.063
-22.0,-42.0,7.064
-52.0,-46.0,7.065
-71.0,-49.0,7.066
-65.0,-51.0,7.067
-44.0,-40.0,7.068
-34.0,-5.0,7.069
-40.0,45.0,7.07
-43.0,80.0,7.071
-34.0,82.0,7.072
-19.0,63.0,7.073
0.0,42.0,7.074
30.0,26.0,7.075
60.0,9.0,7.076
66.0,0.0,7.077
42.0,-5.0,7.078
23.0,-2.0,7.079
33.0,8.0,7.08
57.0,15.0,7.081
62.0,7.0,7.082
41.0,-16.0,7.083
17.0,-34.0,7.084
1.0,-26.0,7.085
-2.0,-13.0,7.086
4.0,-30.0,7.087
17.0,-71.0,7.088
24.0,-92.0,7.089
20.0,-66.0,7.09
10.0,-13.0,7.091
1.0,36.0,7.092
-1.0,72.0,7.093
4.0,92.0,7.094
16.0,91.0,7.095
19.0,80.0,7.096
5.0,73.0,7.097
-23.0,66.0,7.098
-48.0,47.0,7.099
-65.0,11.0,7.1
-76.0,-25.0,7.101
-68.0,-49.0,7.102
-32.0,-66.0,7.103
12.0,-77.0,7.104
35.0,-76.0,7.105
28.0,-64.0,7.106
4.0,-52.0,7.107
-23.0,-43.0,7.108
-48.0,-27.0,7.109
-58.0,-1.0,7.11
-35.0,25.0,7.111
10.0,41.0,7.112
48.0,48.0,7.113
51.0,47.0,7.114
21.0,40.0,7.115
-14.0,27.0,7.116
-22.0,16.0,7.117
-4.0,3.0,7.118
14.0,-11.0,7.119
26.0,-26.0,7.12
15.0,-35.0,7.121
10.0,-32.0,7.122
23.0,-24.0,7.123
32.0,-12.0,7.124
28.0,-4.0,7.125
22.0,-3.0,7.126
10.0,-7.0,7.127
-2.0,-12.0,7.128
-10.0,-15.0,7.129
-12.0,-16.0,7.13
4.0,-21.0,7.131
12.0,-25.0,7.132
-3.0,-21.0,7.133
-14.0,-11.0,7.134
-8.0,-6.0,7.135
-1.0,-3.0,7.136
8.0,5.0,7.137
15.0,14.0,7.138
15.0,17.0,7.139
20.0,8.0,7.14
32.0,-4.0,7.141
35.0,-1.0,7.142
30.0,11.0,7.143
26.0,20.0,7.144
28.0,21.0,7.145
30.0,25.0,7.146
25.0,31.0,7.147
10.0,30.0,7.148
-7.0,19.0,7.149
-18.0,8.0,7.15
-16.0,3.0,7.151
-7.0,-1.0,7.152
10.0,-8.0,7.153
30.0,-8.0,7.154
46.0,-4.0,7.155
40.0,-5.0,7.156
11.0,-9.0,7.157
-31.0,-4.0,7.158
-47.0,9.0,7.159
-45.0,15.0,7.16
-40.0,11.0,7.161
-37.0,7.0,7.162
-29.0,3.0,7.163
-19.0,-4.0,7.164
-15.0,-12.0,7.165
-18.0,-15.0,7.166
-18.0,-18.0,7.167
-18.0,-22.0,7.168
-23.0,-23.0,7.169
-29.0,-19.0,7.17
-24.0,-19.0,7.171
-14.0,-30.0,7.172
-6.0,-41.0,7.173
-2.0,-40.0,7.174
12.0,-26.0,7.175
34.0,-9.0,7.176
54.0,8.0,7.177
65.0,29.0,7.178
70.0,44.0,7.179
68.0,48.0,7.18
64.0,43.0,7.181
54.0,39.0,7.182
34.0,30.0,7.183
6.0,14.0,7.184
-21.0,4.0,7.185
-42.0,5.0,7.186
-60.0,10.0,7.187
-74.0,4.0,7.188
-71.0,-11.0,7.189
-55.0,-27.0,7.19
-40.0,-32.0,7.191
-31.0,-25.0,7.192
-17.0,-14.0,7.193
6.0,-12.0,7.194
28.0,-18.0,7.195
43.0,-16.0,7.196
56.0,0.0,7.197
68.0,15.0,7.198
75.0,15.0,7.199
69.0,7.0,7.2
55.0,2.0,7.201
46.0,1.0,7.202
50.0,-2.0,7.203
57.0,-3.0,7.204
45.0,2.0,7.205
6.0,1.0,7.206
-41.0,-15.0,7.207
-73.0,-30.0,7.208
-87.0,-25.0,7.209
-89.0,-11.0,7.21
-81.0,-10.0,7.211
-66.0,-17.0,7.212
-52.0,-16.0,7.213
-40.0,-9.0,7.214
-28.0,-10.0,7.215
-8.0,-17.0,7.216
15.0,-15.0,7.217
33.0,-1.0,7.218
44.0,18.0,7.219
42.0,35.0,7.22
30.0,45.0,7.221
17.0,50.0,7.222
19.0,50.0,7.223
41.0,45.0,7.224
66.0,38.0,7.225
68.0,30.0,7.226
42.0,16.0,7.227
4.0,2.0,7.228
-26.0,-7.0,7.229
-35.0,-11.0,7.23
-23.0,-12.0,7.231
-3.0,-12.0,7.232
2.0,-10.0,7.233
-5.0,-2.0,7.234
-9.0,15.0,7.235
3.0,26.0,7.236
18.0,19.0,7.237
7.0,0.0,7.238
-22.0,-18.0,7.239
-44.0,-34.0,7.24
-40.0,-52.0,7.241
-28.0,-66.0,7.242
-28.0,-66.0,7.243
-28.0,-50.0,7.244
-13.0,-29.0,7.245
12.0,-13.0,7.246
21.0,-5.0,7.247
16.0,5.0,7.248
17.0,22.0,7.249
35.0,43.0,7.25
50.0,59.0,7.251
46.0,68.0,7.252
31.0,66.0,7.253
23.0,55.0,7.254
22.0,36.0,7.255
18.0,14.0,7.256
15.0,-2.0,7.257
18.0,-13.0,7.258
30.0,-19.0,7.259
33.0,-22.0,7.26
20.0,-26.0,7.261
-4.0,-24.0,7.262
-25.0,-23.0,7.263
-37.0,-23.0,7.264
-45.0,-21.0,7.265
-48.0,-15.0,7.266
-34.0,-14.0,7.267
-5.0,-21.0,7.268
18.0,-26.0,7.269
9.0,-17.0,7.27
-11.0,-3.0,7.271
-13.0,3.0,7.272
5.0,0.0,7.273
18.0,-2.0,7.274
18.0,0.0,7.275
18.0,0.0,7.276
22.0,1.0,7.277
16.0,-1.0,7.278
-2.0,-2.0,7.279
-17.0,-7.0,7.28
-19.0,-17.0,7.281
-16.0,-20.0,7.282
-10.0,-13.0,7.283
-1.0,-7.0,7.284
4.0,-2.0,7.285
4.0,2.0,7.286
3.0,4.0,7.287
10.0,4.0,7.288
16.0,3.0,7.289
20.0,5.0,7.29
33.0,8.0,7.291
54.0,7.0,7.292
65.0,4.0,7.293
52.0,1.0,7.294
25.0,0.0,7.295
2.0,3.0,7.296
-13.0,10.0,7.297
-28.0,11.0,7.298
-35.0,4.0,7.299
-24.0,-1.0,7.3
1.0,2.0,7.301
17.0,11.0,7.302
15.0,11.0,7.303
3.0,3.0,7.304
-14.0,0.0,7.305
-40.0,0.0,7.306
-65.0,-7.0,7.307
-69.0,-18.0,7.308
-51.0,-21.0,7.309
-36.0,-14.0,7.31
-31.0,-5.0,7.311
-20.0,-6.0,7.312
11.0,-11.0,7.313
50.0,-13.0,7.314
61.0,-8.0,7.315
38.0,3.0,7.316
6.0,16.0,7.317
-5.0,21.0,7.318
6.0,18.0,7.319
15.0,13.0,7.32
3.0,7.0,7.321
-14.0,5.0,7.322
-13.0,3.0,7.323
-2.0,3.0,7.324
-5.0,5.0,7.325
-22.0,6.0,7.326
-26.0,2.0,7.327
-10.0,-5.0,7.328
7.0,-9.0,7.329
4.0,-12.0,7.33
-1.0,-15.0,7.331
2.0,-14.0,7.332
12.0,-7.0,7.333
18.0,1.0,7.334
26.0,1.0,7.335
41.0,-4.0,7.336
50.0,-3.0,7.337
44.0,0.0,7.338
32.0,3.0,7.339
27.0,0.0,7.34
28.0,-5.0,7.341
31.0,-3.0,7.342
32.0,5.0,7.343
30.0,12.0,7.344
17.0,16.0,7.345
-3.0,13.0,7.346
-22.0,6.0,7.347
-33.0,-1.0,7.348
-39.0,-1.0,7.349
-43.0,6.0,7.35
-38.0,8.0,7.351
-21.0,0.0,7.352
1.0,-8.0,7.353
20.0,-12.0,7.354
28.0,-11.0,7.355
26.0,-12.0,7.356
18.0,-8.0,7.357
7.0,-4.0,7.358
-1.0,-1.0,7.359
-6.0,-4.0,7.36
-5.0,-11.0,7.361
6.0,-8.0,7.362
20.0,-1.0,7.363
23.0,2.0,7.364
14.0,1.0,7.365
-1.0,-2.0,7.366
-10.0,-4.0,7.367
-20.0,-4.0,7.368
-28.0,-2.0,7.369
-27.0,0.0,7.37
-15.0,2.0,7.371
-4.0,-1.0,7.372
-4.0,-3.0,7.373
-8.0,-3.0,7.374
-6.0,1.0,7.375
4.0,4.0,7.376
22.0,5.0,7.377
39.0,0.0,7.378
45.0,-5.0,7.379
36.0,-7.0,7.38
23.0,-7.0,7.381
23.0,-3.0,7.382
37.0,-1.0,7.383
45.0,0.0,7.384
31.0,5.0,7.385
5.0,8.0,7.386
-10.0,9.0,7.387
-15.0,6.0,7.388
-19.0,4.0,7.389
-26.0,6.0,7.39
-26.0,8.0,7.391
-15.0,6.0,7.392
-6.0,-2.0,7.393
-17.0,-13.0,7.394
-48.0,-24.0,7.395
-79.0,-28.0,7.396
-88.0,-22.0,7.397
-74.0,-14.0,7.398
-47.0,-8.0,7.399
-27.0,-9.0,7.4
-14.0,-12.0,7.401
3.0,-13.0,7.402
23.0,-9.0,7.403
33.0,-4.0,7.404
31.0,-1.0,7.405
33.0,5.0,7.406
49.0,10.0,7.407
69.0,11.0,7.408
77.0,11.0,7.409
66.0,11.0,7.41
45.0,11.0,7.411
22.0,12.0,7.412
-1.0,10.0,7.413
-19.0,8.0,7.414
-30.0,2.0,7.415
-35.0,-4.0,7.416
-33.0,-7.0,7.417
-23.0,-9.0,7.418
-10.0,-7.0,7.419
-2.0,-3.0,7.42
0.0,3.0,7.421
7.0,9.0,7.422
22.0,10.0,7.423
33.0,10.0,7.424
30.0,11.0,7.425
20.0,10.0,7.426
15.0,7.0,7.427
13.0,5.0,7.428
9.0,7.0,7.429
2.0,7.0,7.43
1.0,1.0,7.431
6.0,-6.0,7.432
12.0,-7.0,7.433
16.0,-3.0,7.434
17.0,-2.0,7.435
17.0,-9.0,7.436
11.0,-11.0,7.437
1.0,-7.0,7.438
-3.0,0.0,7.439
-4.0,4.0,7.44
-2.0,3.0,7.441
-1.0,7.0,7.442
3.0,14.0,7.443
10.0,17.0,7.444
12.0,19.0,7.445
6.0,19.0,7.446
-6.0,14.0,7.447
-17.0,3.0,7.448
-21.0,-6.0,7.449
-17.0,-10.0,7.45
-7.0,-11.0,7.451
-3.0,-14.0,7.452
-5.0,-16.0,7.453
-9.0,-15.0,7.454
-8.0,-11.0,7.455
-4.0,-11.0,7.456
-1.0,-9.0,7.457
-2.0,-10.0,7.458
-2.0,-11.0,7.459
-2.0,-15.0,7.46
-2.0,-24.0,7.461
0.0,-26.0,7.462
8.0,-21.0,7.463
21.0,-10.0,7.464
33.0,-1.0,7.465
36.0,3.0,7.466
31.0,-1.0,7.467
20.0,-5.0,7.468
7.0,-3.0,7.469
-2.0,0.0,7.47
-6.0,1.0,7.471
-13.0,0.0,7.472
-21.0,0.0,7.473
-29.0,-2.0,7.474
-31.0,-5.0,7.475
-26.0,-5.0,7.476
-18.0,0.0,7.477
-4.0,1.0,7.478
10.0,-3.0,7.479
17.0,-6.0,7.48
15.0,-5.0,7.481
9.0,1.0,7.482
9.0,7.0,7.483
12.0,8.0,7.484
7.0,8.0,7.485
-5.0,10.0,7.486
-18.0,10.0,7.487
-19.0,10.0,7.488
-10.0,9.0,7.489
0.0,7.0,7.49
4.0,3.0,7.491
2.0,-1.0,7.492
1.0,-2.0,7.493
8.0,0.0,7.494
19.0,0.0,7.495
28.0,0.0,7.496
28.0,2.0,7.497
21.0,3.0,7.498
15.0,5.0,7.499
10.0,2.0,7.5
4.0,-6.0,7.501
0.0,-7.0,7.502
3.0,-3.0,7.503
7.0,2.0,7.504
0.0,4.0,7.505
-16.0,-1.0,7.506
-26.0,-8.0,7.507
-22.0,-10.0,7.508
-9.0,-8.0,7.509
0.0,-2.0,7.51
3.0,-1.0,7.511
5.0,-1.0,7.512
10.0,0.0,7.513
15.0,2.0,7.514
19.0,1.0,7.515
25.0,-2.0,7.516
38.0,-2.0,7.517
55.0,-4.0,7.518
65.0,-5.0,7.519
51.0,-4.0,7.52
14.0,-1.0,7.521
-27.0,4.0,7.522
-49.0,7.0,7.523
-48.0,7.0,7.524
-40.0,8.0,7.525
-34.0,7.0,7.526
-23.0,-1.0,7.527
-6.0,-10.0,7.528
0.0,-16.0,7.529
-12.0,-11.0,7.53
-25.0,-4.0,7.531
-25.0,1.0,7.532
-18.0,2.0,7.533
-14.0,0.0,7.534
-12.0,1.0,7.535
-5.0,4.0,7.536
11.0,9.0,7.537
20.0,7.0,7.538
23.0,-1.0,7.539
19.0,-7.0,7.54
12.0,-9.0,7.541
11.0,-6.0,7.542
21.0,-4.0,7.543
35.0,-2.0,7.544
31.0,2.0,7.545
11.0,2.0,7.546
0.0,-4.0,7.547
11.0,-4.0,7.548
21.0,2.0,7.549
14.0,9.0,7.55
-3.0,8.0,7.551
-10.0,5.0,7.552
-5.0,4.0,7.553
2.0,5.0,7.554
11.0,3.0,7.555
25.0,3.0,7.556
