Deltoid,Bicep,Time
11.0,0.0,0.0
15.0,-7.0,0.001
22.0,-6.0,0.002
32.0,-2.0,0.003
37.0,0.0,0.004
30.0,3.0,0.005
11.0,6.0,0.006
-7.0,9.0,0.007
-13.0,6.0,0.008
-13.0,0.0,0.009
-18.0,-4.0,0.01
-21.0,-8.0,0.011
-14.0,-15.0,0.012
0.0,-19.0,0.013
7.0,-13.0,0.014
8.0,-2.0,0.015
9.0,6.0,0.016
12.0,6.0,0.017
12.0,1.0,0.018
8.0,-1.0,0.019
3.0,0.0,0.02
0.0,-3.0,0.021
-1.0,-1.0,0.022
1.0,4.0,0.023
6.0,10.0,0.024
9.0,10.0,0.025
5.0,5.0,0.026
4.0,-1.0,0.027
11.0,-4.0,0.028
20.0,-1.0,0.029
25.0,5.0,0.03
25.0,8.0,0.031
21.0,7.0,0.032
10.0,3.0,0.033
-3.0,1.0,0.034
-4.0,6.0,0.035
1.0,13.0,0.036
4.0,13.0,0.037
-9.0,-4.0,0.038
-22.0,-26.0,0.039
-22.0,-36.0,0.04
-15.0,-31.0,0.041
-15.0,-11.0,0.042
-19.0,8.0,0.043
-12.0,19.0,0.044
-1.0,19.0,0.045
1.0,11.0,0.046
-10.0,2.0,0.047
-12.0,0.0,0.048
2.0,3.0,0.049
21.0,8.0,0.05
29.0,6.0,0.051
26.0,-1.0,0.052
24.0,-5.0,0.053
28.0,-4.0,0.054
31.0,2.0,0.055
25.0,1.0,0.056
11.0,-4.0,0.057
-10.0,-8.0,0.058
-27.0,-6.0,0.059
-41.0,-4.0,0.06
-45.0,-8.0,0.061
-37.0,-8.0,0.062
-22.0,1.0,0.063
-11.0,9.0,0.064
-6.0,10.0,0.065
0.0,6.0,0.066
14.0,5.0,0.067
25.0,6.0,0.068
24.0,5.0,0.069
17.0,3.0,0.07
15.0,3.0,0.071
18.0,3.0,0.072
17.0,3.0,0.073
13.0,5.0,0.074
9.0,6.0,0.075
6.0,2.0,0.076
9.0,-7.0,0.077
12.0,-23.0,0.078
14.0,-30.0,0.079
7.0,-26.0,0.08
-4.0,-18.0,0.081
-8.0,-13.0,0.082
-1.0,-10.0,0.083
3.0,-6.0,0.084
-2.0,0.0,0.085
-10.0,5.0,0.086
-6.0,4.0,0.087
7.0,1.0,0.088
15.0,1.0,0.089
13.0,3.0,0.09
8.0,4.0,0.091
4.0,2.0,0.092
5.0,2.0,0.093
5.0,5.0,0.094
6.0,9.0,0.095
8.0,10.0,0.096
8.0,9.0,0.097
6.0,5.0,0.098
1.0,1.0,0.099
-7.0,0.0,0.1
-14.0,-5.0,0.101
-14.0,-7.0,0.102
-3.0,-7.0,0.103
14.0,-4.0,0.104
29.0,1.0,0.105
31.0,4.0,0.106
22.0,5.0,0.107
13.0,5.0,0.108
8.0,8.0,0.109
1.0,11.0,0.11
-10.0,6.0,0.111
-20.0,-7.0,0.112
-14.0,-16.0,0.113
3.0,-14.0,0.114
17.0,-6.0,0.115
16.0,-6.0,0.116
7.0,-8.0,0.117
-6.0,-8.0,0.118
-12.0,-2.0,0.119
-16.0,3.0,0.12
-22.0,-1.0,0.121
-25.0,-2.0,0.122
-18.0,4.0,0.123
-5.0,10.0,0.124
-1.0,10.0,0.125
-10.0,8.0,0.126
-19.0,6.0,0.127
-15.0,2.0,0.128
-5.0,-2.0,0.129
-2.0,-3.0,0.13
-3.0,1.0,0.131
-2.0,5.0,0.132
1.0,0.0,0.133
0.0,-5.0,0.134
-1.0,-8.0,0.135
0.0,-8.0,0.136
10.0,-8.0,0.137
21.0,-6.0,0.138
31.0,3.0,0.139
34.0,12.0,0.14
31.0,10.0,0.141
22.0,1.0,0.142
18.0,-4.0,0.143
20.0,-4.0,0.144
21.0,0.0,0.145
15.0,0.0,0.146
11.0,-3.0,0.147
14.0,-3.0,0.148
15.0,1.0,0.149
10.0,4.0,0.15
2.0,4.0,0.151
2.0,4.0,0.152
7.0,3.0,0.153
6.0,1.0,0.154
-1.0,-2.0,0.155
-9.0,-4.0,0.156
-13.0,-4.0,0.157
-17.0,-4.0,0.158
-22.0,-5.0,0.159
-28.0,-5.0,0.16
-30.0,-11.0,0.161
-21.0,-12.0,0.162
-2.0,-7.0,0.163
16.0,0.0,0.164
23.0,4.0,0.165
27.0,4.0,0.166
35.0,7.0,0.167
41.0,11.0,0.168
29.0,12.0,0.169
6.0,7.0,0.17
-9.0,0.0,0.171
-11.0,-7.0,0.172
-13.0,-11.0,0.173
-19.0,-9.0,0.174
-17.0,-2.0,0.175
-8.0,2.0,0.176
-2.0,-2.0,0.177
-13.0,-13.0,0.178
-24.0,-22.0,0.179
-26.0,-22.0,0.18
-18.0,-17.0,0.181
-7.0,-7.0,0.182
-1.0,5.0,0.183
-3.0,14.0,0.184
-11.0,17.0,0.185
-15.0,13.0,0.186
-8.0,4.0,0.187
4.0,-5.0,0.188
12.0,-4.0,0.189
13.0,5.0,0.19
21.0,10.0,0.191
35.0,5.0,0.192
41.0,-1.0,0.193
31.0,3.0,0.194
18.0,7.0,0.195
18.0,4.0,0.196
21.0,0.0,0.197
14.0,1.0,0.198
0.0,5.0,0.199
-10.0,2.0,0.2
-10.0,-9.0,0.201
-10.0,-14.0,0.202
-9.0,-9.0,0.203
-6.0,-4.0,0.204
-3.0,-2.0,0.205
-2.0,-2.0,0.206
-3.0,-2.0,0.207
1.0,-1.0,0.208
15.0,2.0,0.209
25.0,10.0,0.21
30.0,13.0,0.211
28.0,9.0,0.212
24.0,4.0,0.213
22.0,2.0,0.214
21.0,3.0,0.215
18.0,6.0,0.216
7.0,9.0,0.217
-7.0,9.0,0.218
-16.0,6.0,0.219
-20.0,-1.0,0.22
-23.0,-11.0,0.221
-30.0,-15.0,0.222
-24.0,-15.0,0.223
-1.0,-9.0,0.224
21.0,0.0,0.225
28.0,8.0,0.226
24.0,5.0,0.227
21.0,-4.0,0.228
19.0,-9.0,0.229
9.0,-10.0,0.23
-6.0,-12.0,0.231
-20.0,-13.0,0.232
-25.0,-6.0,0.233
-23.0,4.0,0.234
-24.0,6.0,0.235
-33.0,0.0,0.236
-47.0,-6.0,0.237
-52.0,-9.0,0.238
-41.0,-12.0,0.239
-25.0,-13.0,0.24
-18.0,-12.0,0.241
-15.0,-1.0,0.242
-3.0,7.0,0.243
16.0,7.0,0.244
22.0,4.0,0.245
12.0,6.0,0.246
3.0,8.0,0.247
10.0,3.0,0.248
24.0,0.0,0.249
26.0,4.0,0.25
22.0,9.0,0.251
25.0,7.0,0.252
34.0,3.0,0.253
41.0,2.0,0.254
40.0,2.0,0.255
38.0,0.0,0.256
35.0,-1.0,0.257
30.0,-1.0,0.258
25.0,3.0,0.259
20.0,5.0,0.26
8.0,4.0,0.261
-7.0,4.0,0.262
-14.0,0.0,0.263
-11.0,-6.0,0.264
-10.0,-6.0,0.265
-15.0,-2.0,0.266
-15.0,4.0,0.267
-3.0,6.0,0.268
14.0,3.0,0.269
23.0,1.0,0.27
26.0,0.0,0.271
29.0,0.0,0.272
32.0,2.0,0.273
30.0,4.0,0.274
19.0,8.0,0.275
3.0,10.0,0.276
-13.0,7.0,0.277
-30.0,-2.0,0.278
-46.0,-15.0,0.279
-57.0,-25.0,0.28
-57.0,-26.0,0.281
-44.0,-16.0,0.282
-27.0,-7.0,0.283
-12.0,-9.0,0.284
1.0,-17.0,0.285
17.0,-19.0,0.286
31.0,-10.0,0.287
35.0,2.0,0.288
30.0,7.0,0.289
22.0,4.0,0.29
18.0,0.0,0.291
15.0,-1.0,0.292
9.0,3.0,0.293
-2.0,5.0,0.294
-11.0,6.0,0.295
-12.0,8.0,0.296
-9.0,11.0,0.297
-12.0,10.0,0.298
-20.0,6.0,0.299
-23.0,1.0,0.3
-11.0,-3.0,0.301
2.0,-6.0,0.302
21.0,-6.0,0.303
33.0,-3.0,0.304
23.0,6.0,0.305
12.0,12.0,0.306
0.0,7.0,0.307
-8.0,2.0,0.308
-6.0,-1.0,0.309
-6.0,-4.0,0.31
-10.0,-5.0,0.311
-13.0,-6.0,0.312
-10.0,-6.0,0.313
-7.0,-6.0,0.314
-7.0,-4.0,0.315
-4.0,0.0,0.316
12.0,6.0,0.317
27.0,12.0,0.318
29.0,9.0,0.319
20.0,0.0,0.32
9.0,-7.0,0.321
1.0,-5.0,0.322
3.0,0.0,0.323
10.0,1.0,0.324
13.0,0.0,0.325
12.0,0.0,0.326
16.0,4.0,0.327
23.0,10.0,0.328
21.0,10.0,0.329
5.0,5.0,0.33
-7.0,-2.0,0.331
-8.0,-2.0,0.332
-7.0,0.0,0.333
-12.0,-1.0,0.334
-12.0,-6.0,0.335
-5.0,-10.0,0.336
5.0,-7.0,0.337
13.0,-1.0,0.338
31.0,8.0,0.339
45.0,13.0,0.34
39.0,5.0,0.341
16.0,-2.0,0.342
2.0,0.0,0.343
4.0,8.0,0.344
0.0,14.0,0.345
-20.0,12.0,0.346
-32.0,6.0,0.347
-24.0,1.0,0.348
-14.0,-4.0,0.349
-12.0,-16.0,0.35
-10.0,-26.0,0.351
-5.0,-23.0,0.352
-8.0,-9.0,0.353
-17.0,1.0,0.354
-19.0,0.0,0.355
-9.0,-4.0,0.356
0.0,-2.0,0.357
-1.0,-3.0,0.358
-2.0,-8.0,0.359
2.0,-11.0,0.36
5.0,-8.0,0.361
4.0,-1.0,0.362
9.0,-1.0,0.363
25.0,-3.0,0.364
34.0,4.0,0.365
28.0,9.0,0.366
17.0,3.0,0.367
11.0,-7.0,0.368
7.0,-8.0,0.369
-5.0,-3.0,0.37
-14.0,-1.0,0.371
-9.0,-3.0,0.372
3.0,0.0,0.373
6.0,5.0,0.374
2.0,5.0,0.375
7.0,1.0,0.376
24.0,0.0,0.377
29.0,-3.0,0.378
18.0,-7.0,0.379
7.0,-11.0,0.38
-6.0,-12.0,0.381
-15.0,-14.0,0.382
-13.0,-13.0,0.383
-11.0,-10.0,0.384
-8.0,-3.0,0.385
-5.0,2.0,0.386
-5.0,4.0,0.387
-4.0,6.0,0.388
-2.0,6.0,0.389
0.0,7.0,0.39
4.0,5.0,0.391
8.0,4.0,0.392
15.0,4.0,0.393
19.0,5.0,0.394
10.0,9.0,0.395
1.0,11.0,0.396
-4.0,8.0,0.397
-8.0,4.0,0.398
-8.0,0.0,0.399
-13.0,-1.0,0.4
-18.0,-1.0,0.401
-23.0,1.0,0.402
-21.0,3.0,0.403
-9.0,4.0,0.404
4.0,3.0,0.405
5.0,1.0,0.406
2.0,-6.0,0.407
10.0,-12.0,0.408
25.0,-10.0,0.409
34.0,-1.0,0.41
30.0,9.0,0.411
25.0,10.0,0.412
27.0,6.0,0.413
23.0,5.0,0.414
10.0,7.0,0.415
-3.0,7.0,0.416
-8.0,5.0,0.417
-13.0,0.0,0.418
-19.0,-5.0,0.419
-22.0,-9.0,0.42
-19.0,-14.0,0.421
-12.0,-14.0,0.422
-9.0,-12.0,0.423
-9.0,-10.0,0.424
-8.0,-8.0,0.425
-3.0,-5.0,0.426
12.0,-3.0,0.427
33.0,-3.0,0.428
45.0,-3.0,0.429
35.0,-2.0,0.43
16.0,-1.0,0.431
9.0,-1.0,0.432
14.0,-2.0,0.433
15.0,1.0,0.434
4.0,8.0,0.435
-2.0,17.0,0.436
3.0,23.0,0.437
10.0,20.0,0.438
11.0,9.0,0.439
1.0,-2.0,0.44
-11.0,-6.0,0.441
-19.0,2.0,0.442
-19.0,7.0,0.443
-16.0,-1.0,0.444
-17.0,-13.0,0.445
-23.0,-19.0,0.446
-22.0,-18.0,0.447
-11.0,-11.0,0.448
1.0,-4.0,0.449
5.0,1.0,0.45
4.0,0.0,0.451
4.0,-5.0,0.452
8.0,-1.0,0.453
14.0,7.0,0.454
22.0,9.0,0.455
32.0,4.0,0.456
35.0,2.0,0.457
26.0,3.0,0.458
12.0,1.0,0.459
-1.0,-4.0,0.46
-11.0,-12.0,0.461
-18.0,-13.0,0.462
-16.0,-8.0,0.463
-13.0,-5.0,0.464
-3.0,-4.0,0.465
4.0,0.0,0.466
2.0,7.0,0.467
3.0,10.0,0.468
14.0,10.0,0.469
25.0,9.0,0.47
33.0,6.0,0.471
38.0,3.0,0.472
31.0,3.0,0.473
20.0,7.0,0.474
-1.0,10.0,0.475
-19.0,6.0,0.476
-25.0,-2.0,0.477
-29.0,-5.0,0.478
-30.0,-3.0,0.479
-25.0,-3.0,0.48
-19.0,-9.0,0.481
-14.0,-16.0,0.482
-9.0,-15.0,0.483
-2.0,-8.0,0.484
6.0,0.0,0.485
11.0,4.0,0.486
16.0,2.0,0.487
24.0,-3.0,0.488
31.0,-4.0,0.489
29.0,1.0,0.49
19.0,5.0,0.491
13.0,3.0,0.492
14.0,1.0,0.493
24.0,8.0,0.494
38.0,17.0,0.495
51.0,16.0,0.496
52.0,9.0,0.497
29.0,6.0,0.498
-8.0,10.0,0.499
-39.0,7.0,0.5
-50.0,-6.0,0.501
-47.0,-13.0,0.502
-46.0,-9.0,0.503
-53.0,-5.0,0.504
-57.0,-5.0,0.505
-48.0,-7.0,0.506
-32.0,-10.0,0.507
-20.0,-17.0,0.508
-11.0,-21.0,0.509
-1.0,-12.0,0.51
11.0,0.0,0.511
21.0,6.0,0.512
25.0,1.0,0.513
31.0,-2.0,0.514
32.0,1.0,0.515
26.0,2.0,0.516
20.0,1.0,0.517
18.0,2.0,0.518
24.0,8.0,0.519
30.0,10.0,0.52
31.0,3.0,0.521
31.0,0.0,0.522
32.0,1.0,0.523
34.0,2.0,0.524
32.0,0.0,0.525
26.0,0.0,0.526
18.0,0.0,0.527
4.0,-2.0,0.528
-13.0,-3.0,0.529
-27.0,-1.0,0.53
-33.0,-1.0,0.531
-32.0,-2.0,0.532
-31.0,2.0,0.533
-29.0,9.0,0.534
-26.0,8.0,0.535
-21.0,-2.0,0.536
-18.0,-8.0,0.537
-19.0,-10.0,0.538
-15.0,-9.0,0.539
-9.0,-8.0,0.54
1.0,-8.0,0.541
10.0,-5.0,0.542
12.0,5.0,0.543
15.0,13.0,0.544
18.0,7.0,0.545
21.0,3.0,0.546
21.0,4.0,0.547
20.0,3.0,0.548
14.0,-2.0,0.549
8.0,-7.0,0.55
0.0,-10.0,0.551
-5.0,-12.0,0.552
-1.0,-9.0,0.553
1.0,-6.0,0.554
0.0,-5.0,0.555
0.0,-3.0,0.556
9.0,1.0,0.557
16.0,5.0,0.558
10.0,9.0,0.559
5.0,10.0,0.56
12.0,9.0,0.561
20.0,5.0,0.562
23.0,-2.0,0.563
21.0,-6.0,0.564
11.0,-5.0,0.565
-6.0,-1.0,0.566
-17.0,4.0,0.567
-10.0,7.0,0.568
-2.0,10.0,0.569
-7.0,11.0,0.57
-21.0,5.0,0.571
-25.0,-4.0,0.572
-17.0,-9.0,0.573
-7.0,-4.0,0.574
-1.0,5.0,0.575
1.0,8.0,0.576
2.0,5.0,0.577
-3.0,-6.0,0.578
-5.0,-15.0,0.579
-4.0,-21.0,0.58
-3.0,-26.0,0.581
-1.0,-24.0,0.582
9.0,-10.0,0.583
23.0,7.0,0.584
30.0,15.0,0.585
26.0,6.0,0.586
23.0,-6.0,0.587
26.0,-9.0,0.588
27.0,-5.0,0.589
21.0,-2.0,0.59
16.0,-2.0,0.591
14.0,1.0,0.592
11.0,8.0,0.593
12.0,13.0,0.594
16.0,10.0,0.595
11.0,4.0,0.596
-9.0,2.0,0.597
-30.0,0.0,0.598
-35.0,0.0,0.599
-29.0,1.0,0.6
-31.0,-1.0,0.601
-39.0,-5.0,0.602
-33.0,-11.0,0.603
-19.0,-13.0,0.604
-11.0,-5.0,0.605
-12.0,8.0,0.606
-10.0,12.0,0.607
-1.0,6.0,0.608
8.0,-4.0,0.609
12.0,-7.0,0.61
11.0,-5.0,0.611
13.0,-3.0,0.612
14.0,2.0,0.613
14.0,9.0,0.614
14.0,11.0,0.615
17.0,7.0,0.616
19.0,-1.0,0.617
1.0,-8.0,0.618
2.0,-7.0,0.619
4.0,-2.0,0.62
2.0,2.0,0.621
1.0,5.0,0.622
2.0,6.0,0.623
4.0,8.0,0.624
4.0,11.0,0.625
5.0,8.0,0.626
9.0,1.0,0.627
12.0,-6.0,0.628
11.0,-7.0,0.629
8.0,-3.0,0.63
1.0,2.0,0.631
-5.0,3.0,0.632
-8.0,-2.0,0.633
-11.0,-8.0,0.634
-9.0,-11.0,0.635
-7.0,-11.0,0.636
-3.0,-10.0,0.637
-1.0,-13.0,0.638
8.0,-7.0,0.639
13.0,-2.0,0.64
7.0,-3.0,0.641
4.0,-4.0,0.642
8.0,-6.0,0.643
12.0,-6.0,0.644
13.0,2.0,0.645
17.0,9.0,0.646
31.0,9.0,0.647
41.0,10.0,0.648
38.0,13.0,0.649
28.0,15.0,0.65
1.0,11.0,0.651
-23.0,7.0,0.652
-35.0,2.0,0.653
-43.0,-3.0,0.654
-37.0,-8.0,0.655
-29.0,-9.0,0.656
-16.0,0.0,0.657
-2.0,9.0,0.658
17.0,3.0,0.659
21.0,-4.0,0.66
11.0,-8.0,0.661
-7.0,-5.0,0.662
-19.0,0.0,0.663
-22.0,0.0,0.664
-26.0,0.0,0.665
-34.0,0.0,0.666
-36.0,0.0,0.667
-28.0,-3.0,0.668
-19.0,-10.0,0.669
-11.0,-14.0,0.67
1.0,-9.0,0.671
17.0,1.0,0.672
28.0,6.0,0.673
30.0,3.0,0.674
24.0,-3.0,0.675
16.0,-2.0,0.676
15.0,2.0,0.677
17.0,5.0,0.678
17.0,3.0,0.679
9.0,0.0,0.68
1.0,-5.0,0.681
8.0,-5.0,0.682
27.0,-3.0,0.683
40.0,-2.0,0.684
36.0,-2.0,0.685
19.0,1.0,0.686
7.0,6.0,0.687
1.0,6.0,0.688
-2.0,0.0,0.689
-5.0,-5.0,0.69
-3.0,-3.0,0.691
0.0,0.0,0.692
4.0,-2.0,0.693
7.0,-4.0,0.694
8.0,0.0,0.695
8.0,9.0,0.696
8.0,16.0,0.697
5.0,11.0,0.698
0.0,3.0,0.699
-5.0,-5.0,0.7
-5.0,-14.0,0.701
-4.0,-24.0,0.702
0.0,-27.0,0.703
3.0,-22.0,0.704
0.0,-10.0,0.705
0.0,-1.0,0.706
13.0,3.0,0.707
23.0,4.0,0.708
19.0,5.0,0.709
14.0,4.0,0.71
6.0,3.0,0.711
-1.0,1.0,0.712
-2.0,4.0,0.713
-5.0,10.0,0.714
-10.0,12.0,0.715
-14.0,8.0,0.716
-15.0,3.0,0.717
-17.0,-2.0,0.718
-19.0,-2.0,0.719
-20.0,-2.0,0.72
-18.0,-4.0,0.721
-5.0,0.0,0.722
15.0,6.0,0.723
28.0,11.0,0.724
26.0,12.0,0.725
15.0,9.0,0.726
2.0,3.0,0.727
-7.0,-6.0,0.728
-15.0,-10.0,0.729
-19.0,-6.0,0.73
-21.0,-2.0,0.731
-25.0,-2.0,0.732
-25.0,-6.0,0.733
-21.0,-7.0,0.734
-9.0,-5.0,0.735
-1.0,-8.0,0.736
2.0,-9.0,0.737
6.0,-8.0,0.738
17.0,-1.0,0.739
21.0,6.0,0.74
15.0,3.0,0.741
8.0,1.0,0.742
11.0,0.0,0.743
16.0,0.0,0.744
16.0,2.0,0.745
14.0,4.0,0.746
18.0,5.0,0.747
24.0,0.0,0.748
23.0,-3.0,0.749
23.0,-1.0,0.75
32.0,3.0,0.751
39.0,3.0,0.752
33.0,0.0,0.753
18.0,2.0,0.754
9.0,7.0,0.755
0.0,6.0,0.756
-10.0,2.0,0.757
-26.0,2.0,0.758
-27.0,4.0,0.759
-18.0,5.0,0.76
-12.0,0.0,0.761
-17.0,-4.0,0.762
-17.0,-5.0,0.763
-5.0,-3.0,0.764
7.0,-1.0,0.765
11.0,2.0,0.766
14.0,0.0,0.767
18.0,-9.0,0.768
12.0,-17.0,0.769
-5.0,-15.0,0.77
-16.0,-9.0,0.771
-12.0,-8.0,0.772
-9.0,-10.0,0.773
-18.0,-9.0,0.774
-27.0,-6.0,0.775
-23.0,-8.0,0.776
-8.0,-9.0,0.777
-3.0,-7.0,0.778
-5.0,-1.0,0.779
-7.0,1.0,0.78
-1.0,-4.0,0.781
3.0,-7.0,0.782
4.0,-1.0,0.783
7.0,5.0,0.784
11.0,9.0,0.785
14.0,12.0,0.786
16.0,11.0,0.787
17.0,9.0,0.788
7.0,4.0,0.789
2.0,1.0,0.79
11.0,5.0,0.791
19.0,8.0,0.792
19.0,4.0,0.793
17.0,0.0,0.794
11.0,-1.0,0.795
4.0,-3.0,0.796
-5.0,-7.0,0.797
-11.0,-8.0,0.798
3.0,-1.0,0.799
7.0,0.0,0.8
-4.0,-7.0,0.801
-10.0,-5.0,0.802
0.0,0.0,0.803
14.0,0.0,0.804
13.0,-3.0,0.805
10.0,-2.0,0.806
24.0,6.0,0.807
44.0,9.0,0.808
54.0,5.0,0.809
43.0,4.0,0.81
21.0,3.0,0.811
-3.0,0.0,0.812
-24.0,-3.0,0.813
-33.0,2.0,0.814
-33.0,8.0,0.815
-29.0,1.0,0.816
-28.0,-5.0,0.817
-31.0,-4.0,0.818
-32.0,1.0,0.819
-33.0,-1.0,0.82
-30.0,-12.0,0.821
-21.0,-13.0,0.822
2.0,-4.0,0.823
22.0,4.0,0.824
24.0,3.0,0.825
14.0,1.0,0.826
11.0,4.0,0.827
21.0,6.0,0.828
25.0,6.0,0.829
20.0,7.0,0.83
15.0,5.0,0.831
18.0,-1.0,0.832
22.0,-7.0,0.833
25.0,-8.0,0.834
31.0,-7.0,0.835
40.0,-6.0,0.836
41.0,-6.0,0.837
27.0,11.0,0.838
14.0,7.0,0.839
1.0,5.0,0.84
-13.0,3.0,0.841
-32.0,1.0,0.842
-44.0,-1.0,0.843
-40.0,-2.0,0.844
-35.0,1.0,0.845
-41.0,5.0,0.846
-44.0,-3.0,0.847
-32.0,-13.0,0.848
-9.0,-9.0,0.849
6.0,-5.0,0.85
10.0,1.0,0.851
7.0,5.0,0.852
3.0,-3.0,0.853
2.0,-11.0,0.854
5.0,-13.0,0.855
9.0,-15.0,0.856
14.0,-11.0,0.857
16.0,5.0,0.858
19.0,3.0,0.859
22.0,2.0,0.86
25.0,1.0,0.861
28.0,0.0,0.862
28.0,-1.0,0.863
27.0,-2.0,0.864
19.0,0.0,0.865
12.0,2.0,0.866
7.0,-3.0,0.867
2.0,-8.0,0.868
-2.0,-6.0,0.869
-9.0,-4.0,0.87
-21.0,0.0,0.871
-29.0,2.0,0.872
-23.0,-3.0,0.873
-17.0,-7.0,0.874
-13.0,-8.0,0.875
-8.0,-9.0,0.876
-2.0,-7.0,0.877
4.0,-4.0,0.878
7.0,-4.0,0.879
7.0,-9.0,0.88
10.0,-13.0,0.881
12.0,-5.0,0.882
13.0,3.0,0.883
14.0,5.0,0.884
13.0,6.0,0.885
5.0,9.0,0.886
-5.0,10.0,0.887
-11.0,9.0,0.888
-12.0,9.0,0.889
-10.0,6.0,0.89
0.0,1.0,0.891
15.0,0.0,0.892
25.0,6.0,0.893
28.0,8.0,0.894
29.0,2.0,0.895
32.0,-4.0,0.896
34.0,0.0,0.897
24.0,10.0,0.898
12.0,11.0,0.899
5.0,2.0,0.9
6.0,-6.0,0.901
11.0,-1.0,0.902
18.0,5.0,0.903
23.0,3.0,0.904
9.0,-2.0,0.905
-19.0,-4.0,0.906
-40.0,-2.0,0.907
-38.0,2.0,0.908
-27.0,3.0,0.909
-27.0,2.0,0.91
-36.0,-2.0,0.911
-40.0,-9.0,0.912
-38.0,-15.0,0.913
-31.0,-18.0,0.914
-21.0,-16.0,0.915
-5.0,-12.0,0.916
5.0,-8.0,0.917
3.0,-8.0,0.918
1.0,-10.0,0.919
6.0,-13.0,0.92
14.0,-14.0,0.921
21.0,-5.0,0.922
29.0,10.0,0.923
35.0,19.0,0.924
31.0,18.0,0.925
15.0,11.0,0.926
2.0,8.0,0.927
3.0,7.0,0.928
8.0,6.0,0.929
7.0,3.0,0.93
2.0,1.0,0.931
4.0,0.0,0.932
13.0,1.0,0.933
21.0,3.0,0.934
25.0,1.0,0.935
23.0,-4.0,0.936
18.0,-5.0,0.937
9.0,-3.0,0.938
0.0,1.0,0.939
-7.0,2.0,0.94
-9.0,-5.0,0.941
-10.0,-9.0,0.942
0.0,-2.0,0.943
6.0,2.0,0.944
3.0,-1.0,0.945
1.0,-4.0,0.946
4.0,-2.0,0.947
6.0,-1.0,0.948
2.0,-5.0,0.949
-1.0,-7.0,0.95
2.0,-2.0,0.951
6.0,1.0,0.952
13.0,0.0,0.953
16.0,-2.0,0.954
5.0,0.0,0.955
-4.0,1.0,0.956
-10.0,3.0,0.957
-12.0,6.0,0.958
-7.0,3.0,0.959
-9.0,-1.0,0.96
-16.0,-9.0,0.961
-19.0,-11.0,0.962
-10.0,-8.0,0.963
-3.0,-2.0,0.964
-5.0,7.0,0.965
-9.0,12.0,0.966
-3.0,8.0,0.967
16.0,-1.0,0.968
36.0,-2.0,0.969
47.0,7.0,0.97
45.0,11.0,0.971
36.0,6.0,0.972
16.0,-1.0,0.973
-4.0,-3.0,0.974
-17.0,-4.0,0.975
-21.0,-11.0,0.976
-24.0,-14.0,0.977
-30.0,-11.0,0.978
-30.0,-6.0,0.979
-24.0,-5.0,0.98
-18.0,-10.0,0.981
-21.0,-11.0,0.982
-21.0,-9.0,0.983
-8.0,-6.0,0.984
11.0,1.0,0.985
18.0,9.0,0.986
13.0,10.0,0.987
6.0,6.0,0.988
7.0,2.0,0.989
9.0,2.0,0.99
14.0,3.0,0.991
28.0,3.0,0.992
50.0,9.0,0.993
63.0,15.0,0.994
58.0,15.0,0.995
37.0,6.0,0.996
17.0,-4.0,0.997
-1.0,-10.0,0.998
-11.0,-13.0,0.999
-16.0,-13.0,1.0
-18.0,-11.0,1.001
-21.0,-6.0,1.002
-25.0,-3.0,1.003
-31.0,-7.0,1.004
-38.0,-8.0,1.005
-39.0,-5.0,1.006
-23.0,-1.0,1.007
-3.0,0.0,1.008
5.0,2.0,1.009
-1.0,2.0,1.01
-4.0,-2.0,1.011
6.0,-8.0,1.012
23.0,-8.0,1.013
35.0,-2.0,1.014
40.0,0.0,1.015
36.0,2.0,1.016
24.0,5.0,1.017
7.0,4.0,1.018
-5.0,4.0,1.019
-13.0,5.0,1.02
-19.0,5.0,1.021
-21.0,5.0,1.022
-19.0,1.0,1.023
-14.0,0.0,1.024
-14.0,4.0,1.025
-16.0,9.0,1.026
-11.0,6.0,1.027
0.0,-1.0,1.028
7.0,-5.0,1.029
6.0,-3.0,1.03
9.0,-2.0,1.031
13.0,-2.0,1.032
15.0,-5.0,1.033
16.0,-4.0,1.034
20.0,0.0,1.035
27.0,6.0,1.036
34.0,14.0,1.037
35.0,17.0,1.038
32.0,11.0,1.039
21.0,2.0,1.04
7.0,-7.0,1.041
1.0,-12.0,1.042
6.0,-17.0,1.043
15.0,-16.0,1.044
13.0,-4.0,1.045
0.0,7.0,1.046
-12.0,5.0,1.047
-15.0,-9.0,1.048
-7.0,-12.0,1.049
-2.0,-1.0,1.05
-5.0,9.0,1.051
-13.0,5.0,1.052
-19.0,-3.0,1.053
-18.0,-4.0,1.054
-14.0,-2.0,1.055
-11.0,-3.0,1.056
-11.0,-4.0,1.057
-14.0,-3.0,1.058
-14.0,0.0,1.059
-16.0,2.0,1.06
-16.0,-2.0,1.061
-10.0,-3.0,1.062
9.0,-4.0,1.063
30.0,-4.0,1.064
38.0,1.0,1.065
28.0,10.0,1.066
15.0,13.0,1.067
10.0,8.0,1.068
12.0,5.0,1.069
15.0,4.0,1.07
15.0,-1.0,1.071
12.0,-12.0,1.072
5.0,-17.0,1.073
-1.0,-13.0,1.074
1.0,-10.0,1.075
13.0,-11.0,1.076
24.0,-7.0,1.077
23.0,0.0,1.078
11.0,2.0,1.079
-9.0,3.0,1.08
-25.0,-3.0,1.081
-31.0,-7.0,1.082
-23.0,2.0,1.083
-9.0,9.0,1.084
-5.0,9.0,1.085
-10.0,8.0,1.086
-8.0,7.0,1.087
5.0,5.0,1.088
19.0,3.0,1.089
26.0,2.0,1.09
27.0,4.0,1.091
23.0,6.0,1.092
12.0,4.0,1.093
-3.0,2.0,1.094
-9.0,-1.0,1.095
-5.0,-4.0,1.096
0.0,-6.0,1.097
1.0,-8.0,1.098
7.0,-4.0,1.099
9.0,-3.0,1.1
4.0,-5.0,1.101
-2.0,-4.0,1.102
4.0,-8.0,1.103
16.0,-11.0,1.104
11.0,-9.0,1.105
-12.0,-1.0,1.106
-26.0,1.0,1.107
-25.0,-4.0,1.108
-21.0,-4.0,1.109
-19.0,2.0,1.11
-16.0,4.0,1.111
-8.0,-1.0,1.112
-5.0,-5.0,1.113
-8.0,-3.0,1.114
-2.0,-2.0,1.115
10.0,-5.0,1.116
14.0,-3.0,1.117
3.0,2.0,1.118
-5.0,2.0,1.119
-7.0,-5.0,1.12
-8.0,-9.0,1.121
-6.0,0.0,1.122
4.0,7.0,1.123
19.0,3.0,1.124
18.0,0.0,1.125
6.0,5.0,1.126
8.0,9.0,1.127
23.0,5.0,1.128
33.0,2.0,1.129
24.0,4.0,1.13
11.0,5.0,1.131
6.0,-1.0,1.132
6.0,-9.0,1.133
6.0,-7.0,1.134
11.0,3.0,1.135
17.0,9.0,1.136
19.0,9.0,1.137
18.0,4.0,1.138
25.0,2.0,1.139
34.0,3.0,1.14
35.0,1.0,1.141
27.0,1.0,1.142
21.0,1.0,1.143
21.0,-1.0,1.144
15.0,-5.0,1.145
-5.0,-8.0,1.146
-26.0,-14.0,1.147
-40.0,-18.0,1.148
-44.0,-15.0,1.149
-41.0,-8.0,1.15
-34.0,-3.0,1.151
-26.0,0.0,1.152
-22.0,2.0,1.153
-18.0,2.0,1.154
-11.0,-4.0,1.155
0.0,-6.0,1.156
8.0,-1.0,1.157
8.0,6.0,1.158
3.0,7.0,1.159
-1.0,0.0,1.16
-3.0,-4.0,1.161
0.0,-1.0,1.162
10.0,3.0,1.163
23.0,4.0,1.164
28.0,8.0,1.165
23.0,14.0,1.166
16.0,12.0,1.167
13.0,2.0,1.168
14.0,-5.0,1.169
16.0,-4.0,1.17
16.0,-2.0,1.171
8.0,-2.0,1.172
-7.0,-1.0,1.173
-23.0,2.0,1.174
-30.0,2.0,1.175
-27.0,-3.0,1.176
-19.0,-4.0,1.177
-12.0,-6.0,1.178
-11.0,-6.0,1.179
-14.0,-5.0,1.18
-17.0,-5.0,1.181
-11.0,0.0,1.182
5.0,2.0,1.183
25.0,4.0,1.184
40.0,5.0,1.185
45.0,6.0,1.186
43.0,4.0,1.187
34.0,2.0,1.188
26.0,1.0,1.189
19.0,-2.0,1.19
11.0,-7.0,1.191
-2.0,-7.0,1.192
-14.0,-4.0,1.193
-19.0,-2.0,1.194
-18.0,-5.0,1.195
-15.0,-3.0,1.196
-15.0,4.0,1.197
-14.0,5.0,1.198
-11.0,-1.0,1.199
-7.0,-3.0,1.2
-4.0,-4.0,1.201
2.0,-4.0,1.202
17.0,-8.0,1.203
27.0,-9.0,1.204
19.0,0.0,1.205
8.0,10.0,1.206
-6.0,7.0,1.207
-15.0,3.0,1.208
-3.0,3.0,1.209
5.0,5.0,1.21
0.0,0.0,1.211
-5.0,-10.0,1.212
-6.0,-12.0,1.213
-6.0,-6.0,1.214
0.0,-2.0,1.215
7.0,-4.0,1.216
17.0,-4.0,1.217
25.0,0.0,1.218
29.0,6.0,1.219
31.0,10.0,1.22
33.0,5.0,1.221
35.0,0.0,1.222
39.0,0.0,1.223
46.0,6.0,1.224
43.0,9.0,1.225
18.0,5.0,1.226
-12.0,-4.0,1.227
-27.0,-7.0,1.228
-31.0,-4.0,1.229
-38.0,-1.0,1.23
-53.0,-6.0,1.231
-62.0,-14.0,1.232
-60.0,-15.0,1.233
-54.0,-11.0,1.234
-49.0,-10.0,1.235
-36.0,-14.0,1.236
-17.0,-12.0,1.237
4.0,-4.0,1.238
13.0,7.0,1.239
15.0,11.0,1.24
22.0,3.0,1.241
32.0,-1.0,1.242
43.0,1.0,1.243
50.0,5.0,1.244
48.0,10.0,1.245
36.0,13.0,1.246
19.0,10.0,1.247
7.0,3.0,1.248
3.0,-3.0,1.249
1.0,-5.0,1.25
-4.0,-4.0,1.251
-11.0,-5.0,1.252
-17.0,-6.0,1.253
-15.0,-6.0,1.254
-4.0,-4.0,1.255
10.0,-1.0,1.256
20.0,1.0,1.257
20.0,-1.0,1.258
17.0,-3.0,1.259
10.0,-6.0,1.26
2.0,-11.0,1.261
-1.0,-10.0,1.262
7.0,-4.0,1.263
22.0,4.0,1.264
25.0,9.0,1.265
10.0,8.0,1.266
-5.0,6.0,1.267
-8.0,2.0,1.268
-8.0,0.0,1.269
-11.0,1.0,1.27
-13.0,6.0,1.271
-6.0,9.0,1.272
-1.0,6.0,1.273
-8.0,-2.0,1.274
-19.0,-10.0,1.275
-16.0,-14.0,1.276
-5.0,-11.0,1.277
0.0,-6.0,1.278
0.0,0.0,1.279
1.0,5.0,1.28
8.0,3.0,1.281
15.0,3.0,1.282
22.0,4.0,1.283
32.0,6.0,1.284
37.0,8.0,1.285
25.0,9.0,1.286
7.0,6.0,1.287
-1.0,1.0,1.288
2.0,-5.0,1.289
0.0,-6.0,1.29
-4.0,-4.0,1.291
-2.0,-4.0,1.292
5.0,-6.0,1.293
5.0,-5.0,1.294
-4.0,-1.0,1.295
-6.0,0.0,1.296
3.0,-4.0,1.297
11.0,-8.0,1.298
4.0,-9.0,1.299
-8.0,-6.0,1.3
-13.0,-5.0,1.301
-11.0,0.0,1.302
-5.0,9.0,1.303
-3.0,12.0,1.304
-5.0,9.0,1.305
-12.0,7.0,1.306
-16.0,7.0,1.307
-9.0,5.0,1.308
2.0,0.0,1.309
6.0,-2.0,1.31
6.0,1.0,1.311
8.0,0.0,1.312
11.0,-5.0,1.313
9.0,-9.0,1.314
8.0,-4.0,1.315
11.0,3.0,1.316
11.0,5.0,1.317
0.0,0.0,1.318
-9.0,-2.0,1.319
-10.0,-3.0,1.32
-5.0,-5.0,1.321
-5.0,-3.0,1.322
-9.0,0.0,1.323
-5.0,1.0,1.324
2.0,-1.0,1.325
0.0,0.0,1.326
-7.0,2.0,1.327
-5.0,-1.0,1.328
7.0,-7.0,1.329
16.0,-10.0,1.33
12.0,-8.0,1.331
6.0,-3.0,1.332
12.0,-2.0,1.333
26.0,-5.0,1.334
34.0,-7.0,1.335
32.0,-6.0,1.336
23.0,0.0,1.337
10.0,2.0,1.338
1.0,1.0,1.339
-3.0,0.0,1.34
-1.0,-3.0,1.341
6.0,0.0,1.342
14.0,0.0,1.343
13.0,3.0,1.344
3.0,11.0,1.345
-6.0,17.0,1.346
-6.0,10.0,1.347
1.0,-1.0,1.348
5.0,-1.0,1.349
0.0,8.0,1.35
-6.0,7.0,1.351
-10.0,-4.0,1.352
-12.0,-14.0,1.353
-13.0,-15.0,1.354
-8.0,-13.0,1.355
-1.0,-15.0,1.356
0.0,-15.0,1.357
-5.0,-12.0,1.358
-8.0,-5.0,1.359
-6.0,1.0,1.36
-1.0,2.0,1.361
7.0,4.0,1.362
23.0,5.0,1.363
40.0,4.0,1.364
38.0,6.0,1.365
13.0,12.0,1.366
-6.0,13.0,1.367
-7.0,8.0,1.368
-5.0,0.0,1.369
-17.0,-3.0,1.37
-30.0,-1.0,1.371
-31.0,1.0,1.372
-25.0,3.0,1.373
-26.0,5.0,1.374
-29.0,5.0,1.375
-20.0,2.0,1.376
-4.0,-2.0,1.377
11.0,-9.0,1.378
23.0,-14.0,1.379
39.0,-13.0,1.38
54.0,-8.0,1.381
57.0,-1.0,1.382
51.0,0.0,1.383
44.0,-1.0,1.384
28.0,3.0,1.385
2.0,11.0,1.386
-22.0,13.0,1.387
-30.0,4.0,1.388
-31.0,-3.0,1.389
-37.0,-4.0,1.39
-46.0,-4.0,1.391
-44.0,-5.0,1.392
-24.0,-4.0,1.393
-4.0,-1.0,1.394
0.0,0.0,1.395
-2.0,-2.0,1.396
0.0,-1.0,1.397
14.0,0.0,1.398
26.0,0.0,1.399
25.0,-5.0,1.4
22.0,-8.0,1.401
29.0,-3.0,1.402
41.0,7.0,1.403
39.0,15.0,1.404
23.0,16.0,1.405
12.0,13.0,1.406
12.0,6.0,1.407
11.0,-2.0,1.408
-2.0,-6.0,1.409
-15.0,-7.0,1.41
-17.0,-5.0,1.411
-10.0,-6.0,1.412
-9.0,-14.0,1.413
-10.0,-18.0,1.414
-5.0,-11.0,1.415
1.0,0.0,1.416
2.0,7.0,1.417
0.0,3.0,1.418
4.0,2.0,1.419
10.0,8.0,1.42
11.0,10.0,1.421
6.0,5.0,1.422
11.0,-5.0,1.423
18.0,-10.0,1.424
12.0,-11.0,1.425
-4.0,-11.0,1.426
-12.0,-9.0,1.427
-5.0,-2.0,1.428
-3.0,4.0,1.429
-8.0,3.0,1.43
-8.0,-2.0,1.431
6.0,-3.0,1.432
17.0,-1.0,1.433
11.0,1.0,1.434
6.0,0.0,1.435
12.0,1.0,1.436
18.0,5.0,1.437
9.0,3.0,1.438
-3.0,1.0,1.439
-8.0,0.0,1.44
-6.0,-2.0,1.441
-11.0,-3.0,1.442
-17.0,-5.0,1.443
-14.0,-7.0,1.444
-8.0,-7.0,1.445
-9.0,-7.0,1.446
-12.0,-3.0,1.447
-3.0,3.0,1.448
12.0,6.0,1.449
23.0,7.0,1.45
29.0,6.0,1.451
39.0,9.0,1.452
46.0,12.0,1.453
38.0,13.0,1.454
11.0,10.0,1.455
-12.0,3.0,1.456
-19.0,-3.0,1.457
-23.0,-7.0,1.458
-29.0,-5.0,1.459
-38.0,-3.0,1.46
-41.0,-8.0,1.461
-35.0,-13.0,1.462
-22.0,-12.0,1.463
-7.0,-8.0,1.464
5.0,-8.0,1.465
12.0,-7.0,1.466
21.0,-2.0,1.467
39.0,4.0,1.468
55.0,4.0,1.469
50.0,2.0,1.47
29.0,3.0,1.471
10.0,2.0,1.472
0.0,-1.0,1.473
-7.0,-3.0,1.474
-13.0,1.0,1.475
-16.0,2.0,1.476
-15.0,-4.0,1.477
-20.0,-11.0,1.478
-24.0,-8.0,1.479
-19.0,4.0,1.48
-3.0,9.0,1.481
11.0,8.0,1.482
15.0,8.0,1.483
13.0,9.0,1.484
12.0,9.0,1.485
11.0,4.0,1.486
0.0,-3.0,1.487
-13.0,-8.0,1.488
-15.0,-9.0,1.489
-5.0,-5.0,1.49
2.0,-7.0,1.491
2.0,-13.0,1.492
-2.0,-15.0,1.493
-4.0,-6.0,1.494
-1.0,5.0,1.495
3.0,7.0,1.496
10.0,3.0,1.497
15.0,-2.0,1.498
18.0,-4.0,1.499
20.0,-7.0,1.5
24.0,-11.0,1.501
29.0,-3.0,1.502
31.0,12.0,1.503
30.0,22.0,1.504
24.0,18.0,1.505
12.0,7.0,1.506
-3.0,-3.0,1.507
-14.0,-9.0,1.508
-18.0,-10.0,1.509
-21.0,-7.0,1.51
-26.0,-6.0,1.511
-27.0,-7.0,1.512
-16.0,-5.0,1.513
4.0,-3.0,1.514
19.0,1.0,1.515
21.0,3.0,1.516
15.0,5.0,1.517
12.0,6.0,1.518
14.0,7.0,1.519
12.0,7.0,1.52
-1.0,2.0,1.521
-11.0,0.0,1.522
-6.0,-1.0,1.523
6.0,-2.0,1.524
6.0,-4.0,1.525
-6.0,-5.0,1.526
-11.0,-7.0,1.527
-4.0,-9.0,1.528
-2.0,-9.0,1.529
-12.0,-7.0,1.53
-17.0,-4.0,1.531
-4.0,-4.0,1.532
12.0,-3.0,1.533
14.0,0.0,1.534
8.0,5.0,1.535
6.0,5.0,1.536
10.0,1.0,1.537
7.0,-2.0,1.538
2.0,-2.0,1.539
1.0,0.0,1.54
7.0,0.0,1.541
18.0,1.0,1.542
33.0,2.0,1.543
44.0,2.0,1.544
37.0,5.0,1.545
13.0,7.0,1.546
-10.0,7.0,1.547
-16.0,2.0,1.548
-12.0,0.0,1.549
-10.0,0.0,1.55
-16.0,2.0,1.551
-17.0,-1.0,1.552
-15.0,-4.0,1.553
-11.0,-4.0,1.554
-6.0,-2.0,1.555
-1.0,-1.0,1.556
4.0,2.0,1.557
3.0,4.0,1.558
-3.0,0.0,1.559
-13.0,-9.0,1.56
-17.0,-18.0,1.561
-9.0,-13.0,1.562
6.0,-2.0,1.563
15.0,1.0,1.564
10.0,-3.0,1.565
2.0,-4.0,1.566
-1.0,-1.0,1.567
0.0,1.0,1.568
0.0,2.0,1.569
1.0,2.0,1.57
6.0,3.0,1.571
14.0,1.0,1.572
16.0,-5.0,1.573
13.0,-6.0,1.574
6.0,0.0,1.575
1.0,6.0,1.576
0.0,5.0,1.577
3.0,-2.0,1.578
14.0,-7.0,1.579
25.0,-5.0,1.58
35.0,-3.0,1.581
41.0,0.0,1.582
41.0,-1.0,1.583
32.0,0.0,1.584
8.0,4.0,1.585
-16.0,8.0,1.586
-31.0,4.0,1.587
-36.0,-5.0,1.588
-41.0,-11.0,1.589
-44.0,-6.0,1.59
-42.0,0.0,1.591
-35.0,-3.0,1.592
-30.0,-11.0,1.593
-23.0,-10.0,1.594
-7.0,-2.0,1.595
16.0,3.0,1.596
34.0,0.0,1.597
37.0,-3.0,1.598
31.0,-2.0,1.599
16.0,1.0,1.6
-1.0,-2.0,1.601
-7.0,0.0,1.602
-2.0,9.0,1.603
3.0,16.0,1.604
-1.0,14.0,1.605
-7.0,8.0,1.606
-4.0,3.0,1.607
0.0,1.0,1.608
1.0,-1.0,1.609
0.0,-5.0,1.61
5.0,-5.0,1.611
13.0,-7.0,1.612
13.0,-9.0,1.613
7.0,-9.0,1.614
7.0,-6.0,1.615
16.0,0.0,1.616
24.0,1.0,1.617
27.0,1.0,1.618
29.0,2.0,1.619
26.0,2.0,1.62
17.0,-4.0,1.621
4.0,-6.0,1.622
-4.0,-1.0,1.623
-4.0,2.0,1.624
-6.0,2.0,1.625
-10.0,2.0,1.626
-12.0,8.0,1.627
-6.0,7.0,1.628
-2.0,-2.0,1.629
0.0,-10.0,1.63
8.0,-8.0,1.631
23.0,0.0,1.632
32.0,5.0,1.633
27.0,7.0,1.634
13.0,11.0,1.635
2.0,14.0,1.636
-1.0,13.0,1.637
-7.0,2.0,1.638
-20.0,-8.0,1.639
-32.0,-14.0,1.64
-40.0,-21.0,1.641
-43.0,-23.0,1.642
-35.0,-22.0,1.643
-21.0,-16.0,1.644
-10.0,-6.0,1.645
-5.0,0.0,1.646
0.0,3.0,1.647
11.0,3.0,1.648
22.0,6.0,1.649
25.0,9.0,1.65
28.0,6.0,1.651
34.0,2.0,1.652
37.0,1.0,1.653
24.0,4.0,1.654
9.0,5.0,1.655
4.0,3.0,1.656
5.0,2.0,1.657
2.0,2.0,1.658
-3.0,1.0,1.659
-4.0,1.0,1.66
-2.0,0.0,1.661
-4.0,3.0,1.662
-5.0,8.0,1.663
-6.0,6.0,1.664
-7.0,2.0,1.665
-12.0,1.0,1.666
-14.0,0.0,1.667
-8.0,-5.0,1.668
-3.0,-10.0,1.669
-4.0,-10.0,1.67
-2.0,-8.0,1.671
7.0,-7.0,1.672
17.0,-5.0,1.673
19.0,-1.0,1.674
17.0,3.0,1.675
17.0,1.0,1.676
15.0,-2.0,1.677
3.0,-4.0,1.678
-9.0,-1.0,1.679
-17.0,0.0,1.68
-19.0,-7.0,1.681
-14.0,-8.0,1.682
0.0,1.0,1.683
16.0,11.0,1.684
20.0,8.0,1.685
14.0,-5.0,1.686
12.0,-15.0,1.687
19.0,-13.0,1.688
22.0,-3.0,1.689
14.0,8.0,1.69
9.0,13.0,1.691
18.0,10.0,1.692
28.0,6.0,1.693
25.0,5.0,1.694
12.0,7.0,1.695
-3.0,4.0,1.696
-14.0,-4.0,1.697
-28.0,-13.0,1.698
-33.0,-17.0,1.699
-25.0,-14.0,1.7
-16.0,-14.0,1.701
-14.0,-12.0,1.702
-13.0,-6.0,1.703
-6.0,1.0,1.704
2.0,4.0,1.705
4.0,5.0,1.706
0.0,5.0,1.707
-3.0,5.0,1.708
0.0,3.0,1.709
3.0,3.0,1.71
4.0,3.0,1.711
6.0,5.0,1.712
11.0,4.0,1.713
18.0,0.0,1.714
31.0,-5.0,1.715
48.0,-8.0,1.716
63.0,-4.0,1.717
65.0,3.0,1.718
48.0,12.0,1.719
23.0,17.0,1.72
3.0,14.0,1.721
-5.0,10.0,1.722
-13.0,8.0,1.723
-28.0,6.0,1.724
-45.0,2.0,1.725
-54.0,-4.0,1.726
-54.0,-7.0,1.727
-51.0,-9.0,1.728
-50.0,-9.0,1.729
-45.0,-7.0,1.73
-31.0,-3.0,1.731
-15.0,2.0,1.732
-4.0,5.0,1.733
-1.0,2.0,1.734
3.0,-2.0,1.735
12.0,-6.0,1.736
18.0,-8.0,1.737
17.0,-10.0,1.738
18.0,-8.0,1.739
27.0,-1.0,1.74
36.0,1.0,1.741
34.0,1.0,1.742
31.0,-1.0,1.743
32.0,-1.0,1.744
30.0,3.0,1.745
22.0,5.0,1.746
17.0,4.0,1.747
18.0,-1.0,1.748
13.0,-5.0,1.749
-7.0,-3.0,1.75
-23.0,-2.0,1.751
-21.0,-5.0,1.752
-9.0,-9.0,1.753
-6.0,-9.0,1.754
-12.0,-2.0,1.755
-8.0,0.0,1.756
6.0,-2.0,1.757
17.0,-6.0,1.758
18.0,-2.0,1.759
14.0,5.0,1.76
12.0,4.0,1.761
9.0,2.0,1.762
4.0,0.0,1.763
-2.0,0.0,1.764
-7.0,0.0,1.765
-10.0,2.0,1.766
-4.0,0.0,1.767
8.0,-9.0,1.768
15.0,-13.0,1.769
11.0,-5.0,1.77
2.0,6.0,1.771
0.0,5.0,1.772
1.0,-4.0,1.773
2.0,-8.0,1.774
0.0,-3.0,1.775
-4.0,0.0,1.776
-6.0,0.0,1.777
-3.0,3.0,1.778
5.0,7.0,1.779
8.0,4.0,1.78
-1.0,-9.0,1.781
-9.0,-12.0,1.782
2.0,-5.0,1.783
27.0,3.0,1.784
36.0,6.0,1.785
20.0,3.0,1.786
-2.0,2.0,1.787
-8.0,2.0,1.788
-4.0,2.0,1.789
-5.0,1.0,1.79
-12.0,0.0,1.791
-14.0,0.0,1.792
-7.0,0.0,1.793
-3.0,2.0,1.794
-5.0,1.0,1.795
-11.0,1.0,1.796
-12.0,6.0,1.797
-4.0,12.0,1.798
4.0,11.0,1.799
7.0,0.0,1.8
-6.0,-15.0,1.801
-13.0,-16.0,1.802
3.0,-6.0,1.803
13.0,5.0,1.804
2.0,9.0,1.805
-7.0,4.0,1.806
-11.0,0.0,1.807
-14.0,0.0,1.808
-10.0,4.0,1.809
-7.0,9.0,1.81
-5.0,9.0,1.811
-3.0,2.0,1.812
2.0,-9.0,1.813
8.0,-14.0,1.814
14.0,-12.0,1.815
20.0,-7.0,1.816
22.0,0.0,1.817
26.0,-1.0,1.818
31.0,-6.0,1.819
29.0,-9.0,1.82
15.0,-12.0,1.821
3.0,-5.0,1.822
7.0,4.0,1.823
15.0,6.0,1.824
8.0,0.0,1.825
-6.0,-3.0,1.826
-7.0,0.0,1.827
5.0,5.0,1.828
9.0,7.0,1.829
1.0,3.0,1.83
0.0,-2.0,1.831
13.0,-2.0,1.832
23.0,5.0,1.833
20.0,15.0,1.834
10.0,12.0,1.835
2.0,1.0,1.836
-2.0,-1.0,1.837
-10.0,3.0,1.838
-18.0,5.0,1.839
-24.0,-2.0,1.84
-27.0,-13.0,1.841
-26.0,-17.0,1.842
-15.0,-20.0,1.843
-1.0,-23.0,1.844
-2.0,-19.0,1.845
-16.0,-5.0,1.846
-24.0,3.0,1.847
-17.0,1.0,1.848
-5.0,0.0,1.849
-3.0,6.0,1.85
-3.0,8.0,1.851
3.0,0.0,1.852
14.0,1.0,1.853
29.0,10.0,1.854
47.0,15.0,1.855
63.0,10.0,1.856
61.0,7.0,1.857
36.0,7.0,1.858
6.0,4.0,1.859
-12.0,-5.0,1.86
-21.0,-10.0,1.861
-30.0,-5.0,1.862
-31.0,2.0,1.863
-22.0,3.0,1.864
-14.0,3.0,1.865
-19.0,4.0,1.866
-25.0,-1.0,1.867
-16.0,-12.0,1.868
-1.0,-18.0,1.869
2.0,-13.0,1.87
-2.0,-9.0,1.871
3.0,-12.0,1.872
18.0,-13.0,1.873
24.0,-5.0,1.874
21.0,5.0,1.875
18.0,9.0,1.876
24.0,9.0,1.877
32.0,9.0,1.878
39.0,12.0,1.879
45.0,14.0,1.88
46.0,10.0,1.881
35.0,6.0,1.882
20.0,4.0,1.883
7.0,2.0,1.884
0.0,-2.0,1.885
-9.0,-3.0,1.886
-21.0,-2.0,1.887
-32.0,-5.0,1.888
-33.0,-7.0,1.889
-25.0,-5.0,1.89
-17.0,-2.0,1.891
-18.0,-4.0,1.892
-25.0,-11.0,1.893
-24.0,-16.0,1.894
-8.0,-12.0,1.895
9.0,-8.0,1.896
14.0,-5.0,1.897
3.0,-5.0,1.898
-1.0,-1.0,1.899
-4.0,3.0,1.9
-2.0,2.0,1.901
2.0,5.0,1.902
15.0,10.0,1.903
26.0,11.0,1.904
30.0,8.0,1.905
31.0,4.0,1.906
20.0,2.0,1.907
10.0,-1.0,1.908
4.0,-4.0,1.909
0.0,-5.0,1.91
-2.0,-5.0,1.911
-3.0,-6.0,1.912
3.0,-4.0,1.913
7.0,2.0,1.914
0.0,10.0,1.915
-7.0,10.0,1.916
-17.0,4.0,1.917
-26.0,-2.0,1.918
-24.0,-4.0,1.919
-20.0,-6.0,1.92
-13.0,-12.0,1.921
-7.0,-14.0,1.922
-2.0,-9.0,1.923
2.0,-2.0,1.924
5.0,3.0,1.925
7.0,9.0,1.926
8.0,14.0,1.927
11.0,13.0,1.928
15.0,4.0,1.929
18.0,-7.0,1.93
16.0,-10.0,1.931
9.0,-9.0,1.932
2.0,-7.0,1.933
1.0,-6.0,1.934
2.0,-4.0,1.935
9.0,0.0,1.936
18.0,6.0,1.937
25.0,8.0,1.938
26.0,5.0,1.939
21.0,4.0,1.94
13.0,2.0,1.941
2.0,0.0,1.942
-4.0,-2.0,1.943
-4.0,-2.0,1.944
-1.0,2.0,1.945
2.0,9.0,1.946
4.0,7.0,1.947
9.0,-3.0,1.948
18.0,-10.0,1.949
29.0,-8.0,1.95
39.0,0.0,1.951
42.0,4.0,1.952
25.0,2.0,1.953
-9.0,0.0,1.954
-38.0,-3.0,1.955
-46.0,-4.0,1.956
-35.0,-1.0,1.957
-27.0,-4.0,1.958
-29.0,-8.0,1.959
-38.0,-9.0,1.96
-41.0,-6.0,1.961
-32.0,0.0,1.962
-12.0,5.0,1.963
6.0,8.0,1.964
12.0,9.0,1.965
4.0,5.0,1.966
-3.0,-4.0,1.967
-7.0,-11.0,1.968
-9.0,-12.0,1.969
-10.0,-9.0,1.97
-6.0,-5.0,1.971
-1.0,4.0,1.972
4.0,11.0,1.973
6.0,9.0,1.974
8.0,0.0,1.975
9.0,-5.0,1.976
13.0,1.0,1.977
15.0,6.0,1.978
21.0,0.0,1.979
28.0,-3.0,1.98
33.0,-1.0,1.981
38.0,2.0,1.982
38.0,7.0,1.983
36.0,9.0,1.984
25.0,0.0,1.985
16.0,-7.0,1.986
12.0,0.0,1.987
8.0,5.0,1.988
6.0,3.0,1.989
4.0,1.0,1.99
2.0,-4.0,1.991
0.0,-9.0,1.992
-2.0,-8.0,1.993
-5.0,-6.0,1.994
-5.0,-2.0,1.995
-6.0,0.0,1.996
-10.0,-4.0,1.997
-12.0,-5.0,1.998
-10.0,2.0,1.999
-9.0,6.0,2.0
-11.0,-2.0,2.001
-13.0,-5.0,2.002
-8.0,-1.0,2.003
5.0,2.0,2.004
20.0,1.0,2.005
26.0,-1.0,2.006
28.0,0.0,2.007
35.0,3.0,2.008
40.0,4.0,2.009
35.0,8.0,2.01
16.0,10.0,2.011
0.0,7.0,2.012
-4.0,1.0,2.013
-9.0,-1.0,2.014
-22.0,3.0,2.015
-37.0,8.0,2.016
-41.0,10.0,2.017
-45.0,3.0,2.018
-59.0,-8.0,2.019
-69.0,-18.0,2.02
-57.0,-24.0,2.021
-35.0,-17.0,2.022
-20.0,-6.0,2.023
-7.0,0.0,2.024
13.0,-1.0,2.025
32.0,-3.0,2.026
33.0,-1.0,2.027
25.0,4.0,2.028
23.0,6.0,2.029
33.0,6.0,2.03
37.0,5.0,2.031
36.0,6.0,2.032
37.0,7.0,2.033
35.0,7.0,2.034
22.0,5.0,2.035
3.0,2.0,2.036
-1.0,2.0,2.037
3.0,2.0,2.038
5.0,4.0,2.039
-4.0,2.0,2.04
-10.0,-7.0,2.041
-8.0,-13.0,2.042
-2.0,-17.0,2.043
1.0,-15.0,2.044
3.0,-13.0,2.045
6.0,-9.0,2.046
16.0,1.0,2.047
27.0,14.0,2.048
31.0,22.0,2.049
16.0,13.0,2.05
-8.0,-3.0,2.051
-19.0,-12.0,2.052
-11.0,-9.0,2.053
7.0,-6.0,2.054
14.0,-10.0,2.055
9.0,-15.0,2.056
1.0,-13.0,2.057
-1.0,-10.0,2.058
4.0,-5.0,2.059
8.0,0.0,2.06
5.0,1.0,2.061
2.0,3.0,2.062
4.0,0.0,2.063
5.0,-2.0,2.064
2.0,3.0,2.065
-2.0,7.0,2.066
-6.0,8.0,2.067
-8.0,10.0,2.068
-4.0,10.0,2.069
-1.0,8.0,2.07
-3.0,0.0,2.071
-5.0,-7.0,2.072
-5.0,-6.0,2.073
-6.0,-4.0,2.074
-16.0,-1.0,2.075
-23.0,0.0,2.076
-18.0,-2.0,2.077
-11.0,-4.0,2.078
-5.0,1.0,2.079
-6.0,6.0,2.08
-13.0,1.0,2.081
-16.0,-10.0,2.082
-10.0,-16.0,2.083
4.0,-7.0,2.084
14.0,7.0,2.085
13.0,12.0,2.086
6.0,8.0,2.087
5.0,3.0,2.088
11.0,6.0,2.089
19.0,9.0,2.09
23.0,5.0,2.091
22.0,-2.0,2.092
18.0,-7.0,2.093
15.0,-9.0,2.094
19.0,-9.0,2.095
25.0,-6.0,2.096
26.0,-1.0,2.097
19.0,-1.0,2.098
15.0,0.0,2.099
14.0,1.0,2.1
10.0,0.0,2.101
-1.0,-1.0,2.102
-7.0,0.0,2.103
-4.0,6.0,2.104
2.0,10.0,2.105
2.0,7.0,2.106
2.0,0.0,2.107
3.0,-4.0,2.108
2.0,-5.0,2.109
-5.0,-5.0,2.11
-8.0,-4.0,2.111
-5.0,0.0,2.112
-3.0,6.0,2.113
-9.0,8.0,2.114
-12.0,4.0,2.115
-9.0,-2.0,2.116
-3.0,-3.0,2.117
-3.0,0.0,2.118
-3.0,4.0,2.119
-3.0,3.0,2.12
-5.0,-9.0,2.121
-7.0,-19.0,2.122
-3.0,-16.0,2.123
2.0,-4.0,2.124
2.0,4.0,2.125
0.0,2.0,2.126
10.0,-5.0,2.127
30.0,-6.0,2.128
42.0,0.0,2.129
35.0,7.0,2.13
19.0,3.0,2.131
11.0,-2.0,2.132
11.0,1.0,2.133
8.0,9.0,2.134
-5.0,11.0,2.135
-22.0,8.0,2.136
-31.0,6.0,2.137
-32.0,3.0,2.138
-29.0,-1.0,2.139
-26.0,-5.0,2.14
-24.0,-9.0,2.141
-18.0,-11.0,2.142
1.0,-8.0,2.143
16.0,-5.0,2.144
20.0,-1.0,2.145
24.0,3.0,2.146
32.0,8.0,2.147
35.0,12.0,2.148
23.0,6.0,2.149
12.0,2.0,2.15
2.0,2.0,2.151
-6.0,2.0,2.152
-13.0,0.0,2.153
-18.0,-1.0,2.154
-14.0,-5.0,2.155
-9.0,-9.0,2.156
-6.0,-14.0,2.157
-4.0,-16.0,2.158
-7.0,-7.0,2.159
-11.0,0.0,2.16
-12.0,0.0,2.161
-7.0,-3.0,2.162
3.0,-2.0,2.163
10.0,3.0,2.164
10.0,7.0,2.165
8.0,6.0,2.166
9.0,3.0,2.167
12.0,2.0,2.168
9.0,7.0,2.169
1.0,6.0,2.17
-2.0,-1.0,2.171
-1.0,-6.0,2.172
2.0,-3.0,2.173
2.0,0.0,2.174
3.0,-2.0,2.175
8.0,-3.0,2.176
14.0,5.0,2.177
13.0,14.0,2.178
8.0,14.0,2.179
1.0,2.0,2.18
1.0,-6.0,2.181
7.0,-2.0,2.182
17.0,3.0,2.183
20.0,-1.0,2.184
13.0,-12.0,2.185
1.0,-15.0,2.186
-2.0,-10.0,2.187
8.0,-6.0,2.188
19.0,-6.0,2.189
24.0,-3.0,2.19
29.0,0.0,2.191
29.0,2.0,2.192
21.0,0.0,2.193
6.0,0.0,2.194
-5.0,4.0,2.195
-10.0,7.0,2.196
-14.0,7.0,2.197
-18.0,1.0,2.198
-20.0,-4.0,2.199
-22.0,-5.0,2.2
-24.0,-6.0,2.201
-22.0,-5.0,2.202
-10.0,-2.0,2.203
3.0,2.0,2.204
6.0,5.0,2.205
0.0,1.0,2.206
-2.0,-8.0,2.207
4.0,-13.0,2.208
10.0,-11.0,2.209
10.0,-3.0,2.21
5.0,0.0,2.211
0.0,-1.0,2.212
-2.0,0.0,2.213
-4.0,3.0,2.214
-6.0,6.0,2.215
-7.0,2.0,2.216
-8.0,-2.0,2.217
-6.0,-3.0,2.218
2.0,-2.0,2.219
8.0,2.0,2.22
3.0,3.0,2.221
0.0,8.0,2.222
1.0,11.0,2.223
4.0,11.0,2.224
5.0,5.0,2.225
6.0,-3.0,2.226
4.0,-9.0,2.227
4.0,-9.0,2.228
10.0,-6.0,2.229
15.0,-2.0,2.23
11.0,-1.0,2.231
7.0,-4.0,2.232
5.0,-3.0,2.233
2.0,0.0,2.234
-1.0,7.0,2.235
-4.0,12.0,2.236
-4.0,12.0,2.237
-4.0,1.0,2.238
-10.0,-6.0,2.239
-11.0,-8.0,2.24
-7.0,-6.0,2.241
0.0,-2.0,2.242
6.0,0.0,2.243
10.0,3.0,2.244
6.0,5.0,2.245
-1.0,2.0,2.246
-1.0,-1.0,2.247
10.0,1.0,2.248
21.0,5.0,2.249
22.0,6.0,2.25
21.0,1.0,2.251
28.0,-5.0,2.252
35.0,-5.0,2.253
28.0,2.0,2.254
8.0,3.0,2.255
-4.0,-4.0,2.256
-1.0,-6.0,2.257
-2.0,-6.0,2.258
-13.0,-3.0,2.259
-27.0,-4.0,2.26
-32.0,-8.0,2.261
-24.0,-3.0,2.262
-10.0,3.0,2.263
-2.0,3.0,2.264
0.0,-2.0,2.265
1.0,-1.0,2.266
12.0,3.0,2.267
23.0,3.0,2.268
22.0,2.0,2.269
13.0,5.0,2.27
7.0,9.0,2.271
9.0,4.0,2.272
3.0,-8.0,2.273
-11.0,-17.0,2.274
-20.0,-16.0,2.275
-14.0,-8.0,2.276
-4.0,-1.0,2.277
32.0,-3.0,2.278
25.0,-4.0,2.279
23.0,-5.0,2.28
32.0,-3.0,2.281
39.0,-2.0,2.282
34.0,-3.0,2.283
30.0,-2.0,2.284
25.0,7.0,2.285
20.0,14.0,2.286
13.0,11.0,2.287
3.0,7.0,2.288
-11.0,0.0,2.289
-20.0,-5.0,2.29
-4.0,-3.0,2.291
5.0,-2.0,2.292
-11.0,-2.0,2.293
-25.0,-1.0,2.294
-25.0,-3.0,2.295
-23.0,-4.0,2.296
-20.0,0.0,2.297
18.0,4.0,2.298
15.0,7.0,2.299
14.0,5.0,2.3
18.0,0.0,2.301
21.0,-2.0,2.302
19.0,-4.0,2.303
17.0,-6.0,2.304
15.0,-5.0,2.305
13.0,2.0,2.306
10.0,6.0,2.307
5.0,6.0,2.308
-1.0,0.0,2.309
-5.0,-7.0,2.31
2.0,-9.0,2.311
6.0,-7.0,2.312
-1.0,0.0,2.313
-7.0,3.0,2.314
-7.0,0.0,2.315
-6.0,1.0,2.316
-5.0,8.0,2.317
-6.0,10.0,2.318
-13.0,5.0,2.319
-7.0,-1.0,2.32
6.0,-2.0,2.321
17.0,-1.0,2.322
24.0,-4.0,2.323
28.0,-4.0,2.324
25.0,4.0,2.325
13.0,13.0,2.326
2.0,9.0,2.327
-2.0,-4.0,2.328
-4.0,-8.0,2.329
-14.0,-4.0,2.33
-26.0,-3.0,2.331
-38.0,-10.0,2.332
-42.0,-15.0,2.333
-35.0,-18.0,2.334
-20.0,-18.0,2.335
-8.0,-12.0,2.336
-3.0,-1.0,2.337
-4.0,5.0,2.338
0.0,0.0,2.339
5.0,-4.0,2.34
11.0,-2.0,2.341
16.0,7.0,2.342
26.0,10.0,2.343
38.0,8.0,2.344
41.0,2.0,2.345
36.0,0.0,2.346
35.0,-1.0,2.347
37.0,-4.0,2.348
30.0,-7.0,2.349
15.0,-6.0,2.35
4.0,-4.0,2.351
4.0,-1.0,2.352
10.0,3.0,2.353
12.0,9.0,2.354
6.0,16.0,2.355
-3.0,19.0,2.356
-14.0,14.0,2.357
-25.0,1.0,2.358
-29.0,-8.0,2.359
-28.0,-11.0,2.36
-29.0,-15.0,2.361
-33.0,-17.0,2.362
-30.0,-16.0,2.363
-15.0,-8.0,2.364
2.0,5.0,2.365
10.0,10.0,2.366
10.0,5.0,2.367
10.0,0.0,2.368
13.0,2.0,2.369
19.0,11.0,2.37
25.0,13.0,2.371
33.0,4.0,2.372
41.0,-7.0,2.373
43.0,-14.0,2.374
38.0,-13.0,2.375
23.0,-8.0,2.376
4.0,-1.0,2.377
-15.0,0.0,2.378
-24.0,-4.0,2.379
-32.0,-10.0,2.38
-39.0,-13.0,2.381
-41.0,-10.0,2.382
-26.0,-4.0,2.383
-13.0,1.0,2.384
-7.0,6.0,2.385
-1.0,9.0,2.386
7.0,10.0,2.387
14.0,11.0,2.388
14.0,9.0,2.389
12.0,6.0,2.39
9.0,3.0,2.391
6.0,0.0,2.392
7.0,-1.0,2.393
10.0,-3.0,2.394
20.0,-8.0,2.395
29.0,-14.0,2.396
29.0,-14.0,2.397
26.0,-6.0,2.398
9.0,7.0,2.399
-6.0,15.0,2.4
-17.0,11.0,2.401
-19.0,6.0,2.402
-12.0,5.0,2.403
-1.0,9.0,2.404
-2.0,9.0,2.405
-10.0,3.0,2.406
-12.0,-3.0,2.407
0.0,-3.0,2.408
16.0,0.0,2.409
24.0,3.0,2.41
24.0,1.0,2.411
17.0,-6.0,2.412
4.0,-15.0,2.413
-7.0,-19.0,2.414
-10.0,-13.0,2.415
-9.0,-5.0,2.416
-14.0,0.0,2.417
-22.0,-3.0,2.418
-25.0,-5.0,2.419
-20.0,-4.0,2.42
-8.0,-4.0,2.421
6.0,-2.0,2.422
25.0,0.0,2.423
37.0,2.0,2.424
35.0,6.0,2.425
23.0,9.0,2.426
17.0,8.0,2.427
17.0,2.0,2.428
19.0,-1.0,2.429
14.0,0.0,2.43
6.0,4.0,2.431
-4.0,2.0,2.432
-15.0,-1.0,2.433
-24.0,0.0,2.434
-25.0,4.0,2.435
-16.0,4.0,2.436
-3.0,1.0,2.437
5.0,-2.0,2.438
7.0,-2.0,2.439
1.0,-4.0,2.44
-4.0,-12.0,2.441
-4.0,-10.0,2.442
4.0,-2.0,2.443
12.0,4.0,2.444
8.0,0.0,2.445
-5.0,-5.0,2.446
-11.0,-7.0,2.447
-4.0,-4.0,2.448
7.0,1.0,2.449
11.0,8.0,2.45
5.0,9.0,2.451
-1.0,-1.0,2.452
-2.0,-11.0,2.453
0.0,-11.0,2.454
3.0,-3.0,2.455
5.0,0.0,2.456
9.0,-3.0,2.457
9.0,-6.0,2.458
10.0,-4.0,2.459
12.0,-1.0,2.46
13.0,-3.0,2.461
17.0,-2.0,2.462
28.0,0.0,2.463
38.0,5.0,2.464
42.0,14.0,2.465
40.0,23.0,2.466
18.0,24.0,2.467
0.0,13.0,2.468
-9.0,2.0,2.469
-16.0,0.0,2.47
-18.0,4.0,2.471
-20.0,8.0,2.472
-21.0,8.0,2.473
-22.0,2.0,2.474
-20.0,-6.0,2.475
-16.0,-12.0,2.476
-6.0,-13.0,2.477
5.0,-10.0,2.478
8.0,-9.0,2.479
-1.0,-13.0,2.48
-14.0,-17.0,2.481
-15.0,-16.0,2.482
-2.0,-11.0,2.483
13.0,-7.0,2.484
12.0,-2.0,2.485
0.0,0.0,2.486
-8.0,-1.0,2.487
-1.0,-3.0,2.488
8.0,0.0,2.489
9.0,4.0,2.49
-1.0,3.0,2.491
-8.0,0.0,2.492
-12.0,2.0,2.493
-13.0,11.0,2.494
-10.0,14.0,2.495
-3.0,7.0,2.496
4.0,-1.0,2.497
4.0,-5.0,2.498
5.0,0.0,2.499
12.0,6.0,2.5
24.0,5.0,2.501
33.0,6.0,2.502
38.0,5.0,2.503
37.0,4.0,2.504
30.0,3.0,2.505
18.0,4.0,2.506
5.0,4.0,2.507
1.0,0.0,2.508
-1.0,-6.0,2.509
-7.0,-9.0,2.51
-13.0,-8.0,2.511
-11.0,-7.0,2.512
-10.0,-8.0,2.513
-19.0,-12.0,2.514
-28.0,-12.0,2.515
-25.0,-8.0,2.516
-11.0,-1.0,2.517
-2.0,2.0,2.518
-2.0,0.0,2.519
-5.0,-6.0,2.52
2.0,-12.0,2.521
13.0,-12.0,2.522
20.0,-8.0,2.523
24.0,0.0,2.524
22.0,9.0,2.525
15.0,15.0,2.526
6.0,14.0,2.527
2.0,8.0,2.528
4.0,2.0,2.529
10.0,2.0,2.53
16.0,5.0,2.531
23.0,5.0,2.532
25.0,3.0,2.533
25.0,3.0,2.534
25.0,1.0,2.535
26.0,0.0,2.536
23.0,0.0,2.537
13.0,1.0,2.538
-4.0,2.0,2.539
-20.0,1.0,2.54
-34.0,-7.0,2.541
-42.0,-13.0,2.542
-30.0,-7.0,2.543
-20.0,-2.0,2.544
-17.0,0.0,2.545
-13.0,2.0,2.546
-9.0,-2.0,2.547
-5.0,-5.0,2.548
0.0,-7.0,2.549
6.0,-8.0,2.55
12.0,-6.0,2.551
17.0,-4.0,2.552
14.0,-2.0,2.553
11.0,-1.0,2.554
11.0,-4.0,2.555
9.0,-6.0,2.556
2.0,-4.0,2.557
-4.0,0.0,2.558
-9.0,7.0,2.559
-8.0,7.0,2.56
-10.0,0.0,2.561
-13.0,-3.0,2.562
-6.0,-2.0,2.563
8.0,2.0,2.564
15.0,5.0,2.565
8.0,6.0,2.566
2.0,4.0,2.567
5.0,0.0,2.568
10.0,-1.0,2.569
10.0,0.0,2.57
15.0,0.0,2.571
25.0,-1.0,2.572
33.0,-2.0,2.573
28.0,1.0,2.574
20.0,4.0,2.575
18.0,3.0,2.576
16.0,0.0,2.577
0.0,-8.0,2.578
-18.0,-10.0,2.579
-27.0,-5.0,2.58
-24.0,-1.0,2.581
-23.0,0.0,2.582
-23.0,-6.0,2.583
-18.0,-4.0,2.584
-6.0,7.0,2.585
2.0,12.0,2.586
4.0,1.0,2.587
9.0,-11.0,2.588
19.0,-8.0,2.589
21.0,3.0,2.59
15.0,5.0,2.591
9.0,-3.0,2.592
11.0,-3.0,2.593
16.0,4.0,2.594
21.0,6.0,2.595
26.0,0.0,2.596
29.0,-3.0,2.597
26.0,-2.0,2.598
17.0,1.0,2.599
8.0,1.0,2.6
-1.0,-2.0,2.601
-12.0,-1.0,2.602
-23.0,0.0,2.603
-28.0,-3.0,2.604
-30.0,-4.0,2.605
-31.0,-1.0,2.606
-33.0,2.0,2.607
-32.0,-1.0,2.608
-26.0,-4.0,2.609
-11.0,-5.0,2.61
13.0,-5.0,2.611
34.0,-7.0,2.612
39.0,-6.0,2.613
27.0,-6.0,2.614
14.0,-6.0,2.615
6.0,-5.0,2.616
0.0,0.0,2.617
-9.0,0.0,2.618
-16.0,-3.0,2.619
-19.0,-6.0,2.62
-8.0,-4.0,2.621
2.0,-2.0,2.622
10.0,0.0,2.623
13.0,3.0,2.624
3.0,3.0,2.625
-2.0,4.0,2.626
7.0,9.0,2.627
14.0,14.0,2.628
16.0,19.0,2.629
18.0,21.0,2.63
18.0,13.0,2.631
17.0,5.0,2.632
14.0,0.0,2.633
14.0,-4.0,2.634
22.0,-4.0,2.635
25.0,-4.0,2.636
8.0,-8.0,2.637
-8.0,-10.0,2.638
-17.0,-10.0,2.639
-17.0,-5.0,2.64
-22.0,-4.0,2.641
-30.0,-6.0,2.642
-27.0,-11.0,2.643
-14.0,-12.0,2.644
-5.0,-5.0,2.645
-4.0,5.0,2.646
-1.0,10.0,2.647
9.0,9.0,2.648
18.0,8.0,2.649
19.0,12.0,2.65
20.0,12.0,2.651
24.0,5.0,2.652
26.0,-4.0,2.653
24.0,-10.0,2.654
21.0,-13.0,2.655
15.0,-14.0,2.656
7.0,-11.0,2.657
-4.0,-7.0,2.658
-10.0,-2.0,2.659
-11.0,0.0,2.66
-14.0,-2.0,2.661
-18.0,-3.0,2.662
-18.0,-2.0,2.663
-13.0,-4.0,2.664
-9.0,-3.0,2.665
-7.0,1.0,2.666
-2.0,5.0,2.667
6.0,2.0,2.668
10.0,-1.0,2.669
10.0,0.0,2.67
8.0,4.0,2.671
14.0,5.0,2.672
22.0,3.0,2.673
25.0,3.0,2.674
22.0,5.0,2.675
18.0,4.0,2.676
15.0,4.0,2.677
11.0,3.0,2.678
7.0,3.0,2.679
3.0,0.0,2.68
-1.0,-5.0,2.681
-6.0,-7.0,2.682
-11.0,-9.0,2.683
-6.0,-11.0,2.684
10.0,-9.0,2.685
20.0,-2.0,2.686
10.0,0.0,2.687
-13.0,-5.0,2.688
-30.0,-11.0,2.689
-32.0,-10.0,2.69
-30.0,-4.0,2.691
-30.0,-1.0,2.692
-28.0,0.0,2.693
-19.0,2.0,2.694
-9.0,5.0,2.695
-8.0,7.0,2.696
-8.0,9.0,2.697
1.0,9.0,2.698
19.0,9.0,2.699
29.0,5.0,2.7
24.0,1.0,2.701
22.0,1.0,2.702
35.0,2.0,2.703
51.0,0.0,2.704
45.0,0.0,2.705
24.0,3.0,2.706
9.0,6.0,2.707
2.0,3.0,2.708
-7.0,-1.0,2.709
-20.0,-4.0,2.71
-23.0,-4.0,2.711
-17.0,-1.0,2.712
-18.0,2.0,2.713
-21.0,2.0,2.714
-15.0,-3.0,2.715
2.0,-8.0,2.716
16.0,-6.0,2.717
18.0,-3.0,2.718
20.0,-1.0,2.719
24.0,-1.0,2.72
24.0,-2.0,2.721
19.0,-3.0,2.722
15.0,-6.0,2.723
10.0,-7.0,2.724
-5.0,-3.0,2.725
-22.0,1.0,2.726
-24.0,0.0,2.727
-12.0,-6.0,2.728
-6.0,-4.0,2.729
-12.0,3.0,2.73
-13.0,2.0,2.731
-3.0,-8.0,2.732
5.0,-16.0,2.733
7.0,-11.0,2.734
9.0,-4.0,2.735
16.0,-1.0,2.736
21.0,1.0,2.737
17.0,3.0,2.738
12.0,5.0,2.739
9.0,5.0,2.74
9.0,3.0,2.741
7.0,5.0,2.742
6.0,7.0,2.743
12.0,8.0,2.744
23.0,10.0,2.745
34.0,10.0,2.746
39.0,9.0,2.747
29.0,7.0,2.748
9.0,8.0,2.749
-8.0,11.0,2.75
-13.0,7.0,2.751
-14.0,-4.0,2.752
-20.0,-17.0,2.753
-27.0,-26.0,2.754
-27.0,-26.0,2.755
-23.0,-17.0,2.756
-28.0,-6.0,2.757
-38.0,-4.0,2.758
-41.0,-13.0,2.759
-34.0,-18.0,2.76
-23.0,-17.0,2.761
-11.0,-9.0,2.762
8.0,-4.0,2.763
26.0,1.0,2.764
31.0,11.0,2.765
29.0,21.0,2.766
32.0,20.0,2.767
42.0,11.0,2.768
43.0,5.0,2.769
32.0,4.0,2.77
19.0,8.0,2.771
14.0,8.0,2.772
11.0,6.0,2.773
5.0,1.0,2.774
0.0,0.0,2.775
-4.0,6.0,2.776
-6.0,10.0,2.777
-12.0,4.0,2.778
-17.0,-10.0,2.779
-23.0,-14.0,2.78
-27.0,-8.0,2.781
-25.0,-4.0,2.782
-12.0,-7.0,2.783
0.0,-8.0,2.784
1.0,-3.0,2.785
-2.0,6.0,2.786
0.0,7.0,2.787
10.0,4.0,2.788
19.0,8.0,2.789
27.0,15.0,2.79
34.0,13.0,2.791
39.0,5.0,2.792
37.0,4.0,2.793
31.0,7.0,2.794
25.0,4.0,2.795
20.0,-4.0,2.796
16.0,-6.0,2.797
0.0,-3.0,2.798
-14.0,-1.0,2.799
-21.0,-8.0,2.8
-19.0,-13.0,2.801
-14.0,-8.0,2.802
-8.0,-2.0,2.803
-6.0,-3.0,2.804
-8.0,-5.0,2.805
-11.0,-2.0,2.806
-12.0,0.0,2.807
-13.0,-4.0,2.808
-14.0,-7.0,2.809
-13.0,-4.0,2.81
-8.0,-5.0,2.811
-4.0,-12.0,2.812
-6.0,-19.0,2.813
-7.0,-16.0,2.814
-3.0,-10.0,2.815
5.0,-10.0,2.816
18.0,-10.0,2.817
29.0,-9.0,2.818
38.0,-8.0,2.819
36.0,-7.0,2.82
22.0,-6.0,2.821
9.0,4.0,2.822
7.0,10.0,2.823
9.0,6.0,2.824
2.0,0.0,2.825
-14.0,2.0,2.826
-28.0,4.0,2.827
-32.0,0.0,2.828
-27.0,-6.0,2.829
-20.0,-1.0,2.83
-16.0,5.0,2.831
-14.0,6.0,2.832
-12.0,1.0,2.833
-9.0,-2.0,2.834
-5.0,-3.0,2.835
-1.0,-6.0,2.836
5.0,-5.0,2.837
14.0,1.0,2.838
21.0,10.0,2.839
27.0,12.0,2.84
31.0,8.0,2.841
29.0,7.0,2.842
28.0,6.0,2.843
30.0,2.0,2.844
30.0,-1.0,2.845
26.0,2.0,2.846
18.0,5.0,2.847
11.0,5.0,2.848
4.0,6.0,2.849
-4.0,10.0,2.85
-14.0,12.0,2.851
-14.0,10.0,2.852
-5.0,5.0,2.853
-2.0,2.0,2.854
-4.0,0.0,2.855
-6.0,0.0,2.856
-2.0,3.0,2.857
2.0,3.0,2.858
0.0,-1.0,2.859
-10.0,-11.0,2.86
-18.0,-23.0,2.861
-17.0,-23.0,2.862
-2.0,-15.0,2.863
12.0,-7.0,2.864
13.0,-2.0,2.865
2.0,1.0,2.866
-3.0,3.0,2.867
3.0,5.0,2.868
13.0,5.0,2.869
18.0,4.0,2.87
22.0,2.0,2.871
24.0,-1.0,2.872
19.0,0.0,2.873
9.0,2.0,2.874
3.0,5.0,2.875
10.0,6.0,2.876
17.0,5.0,2.877
13.0,1.0,2.878
1.0,-6.0,2.879
-7.0,-12.0,2.88
-6.0,-13.0,2.881
5.0,-9.0,2.882
17.0,-4.0,2.883
21.0,1.0,2.884
15.0,7.0,2.885
7.0,9.0,2.886
0.0,8.0,2.887
-9.0,5.0,2.888
-27.0,7.0,2.889
-37.0,13.0,2.89
-30.0,13.0,2.891
-16.0,10.0,2.892
-14.0,6.0,2.893
-25.0,0.0,2.894
-37.0,-10.0,2.895
-35.0,-17.0,2.896
-27.0,-14.0,2.897
-21.0,-9.0,2.898
-18.0,-8.0,2.899
-10.0,-10.0,2.9
-1.0,-11.0,2.901
3.0,-5.0,2.902
11.0,-2.0,2.903
22.0,-4.0,2.904
29.0,-8.0,2.905
29.0,-6.0,2.906
25.0,0.0,2.907
25.0,6.0,2.908
25.0,7.0,2.909
21.0,0.0,2.91
15.0,-3.0,2.911
13.0,-2.0,2.912
19.0,4.0,2.913
24.0,8.0,2.914
21.0,8.0,2.915
14.0,7.0,2.916
9.0,7.0,2.917
7.0,2.0,2.918
10.0,0.0,2.919
12.0,-1.0,2.92
12.0,-2.0,2.921
13.0,-1.0,2.922
15.0,0.0,2.923
15.0,0.0,2.924
7.0,-1.0,2.925
0.0,-2.0,2.926
0.0,0.0,2.927
1.0,0.0,2.928
0.0,-3.0,2.929
-2.0,-7.0,2.93
-5.0,-6.0,2.931
-8.0,0.0,2.932
-11.0,5.0,2.933
-9.0,1.0,2.934
0.0,-2.0,2.935
10.0,2.0,2.936
12.0,8.0,2.937
10.0,4.0,2.938
13.0,-4.0,2.939
17.0,-6.0,2.94
15.0,-2.0,2.941
6.0,1.0,2.942
4.0,-1.0,2.943
17.0,-1.0,2.944
31.0,2.0,2.945
35.0,5.0,2.946
26.0,0.0,2.947
15.0,-4.0,2.948
2.0,-2.0,2.949
-14.0,2.0,2.95
-37.0,2.0,2.951
-55.0,-2.0,2.952
-60.0,-8.0,2.953
-54.0,-12.0,2.954
-48.0,-11.0,2.955
-44.0,-6.0,2.956
-41.0,-2.0,2.957
-37.0,-9.0,2.958
-34.0,-15.0,2.959
-37.0,-11.0,2.96
-36.0,-3.0,2.961
-27.0,2.0,2.962
-12.0,-5.0,2.963
-2.0,-10.0,2.964
3.0,-6.0,2.965
8.0,0.0,2.966
16.0,1.0,2.967
25.0,-1.0,2.968
33.0,-1.0,2.969
43.0,3.0,2.97
51.0,6.0,2.971
55.0,11.0,2.972
52.0,13.0,2.973
44.0,10.0,2.974
35.0,0.0,2.975
27.0,-2.0,2.976
22.0,7.0,2.977
21.0,9.0,2.978
18.0,-1.0,2.979
6.0,-9.0,2.98
-6.0,-11.0,2.981
-7.0,-7.0,2.982
4.0,-5.0,2.983
16.0,0.0,2.984
19.0,9.0,2.985
17.0,12.0,2.986
17.0,8.0,2.987
17.0,5.0,2.988
10.0,7.0,2.989
-1.0,4.0,2.99
-6.0,-5.0,2.991
0.0,-7.0,2.992
10.0,-2.0,2.993
12.0,1.0,2.994
8.0,-5.0,2.995
6.0,-8.0,2.996
10.0,0.0,2.997
5.0,5.0,2.998
-5.0,1.0,2.999
-15.0,-8.0,3.0
-16.0,-13.0,3.001
-9.0,-5.0,3.002
-4.0,5.0,3.003
-6.0,5.0,3.004
-15.0,-4.0,3.005
-18.0,-8.0,3.006
-9.0,-5.0,3.007
5.0,-4.0,3.008
8.0,-9.0,3.009
-2.0,-10.0,3.01
-9.0,0.0,3.011
-11.0,9.0,3.012
-14.0,1.0,3.013
-18.0,-13.0,3.014
-19.0,-16.0,3.015
-10.0,-6.0,3.016
0.0,-2.0,3.017
4.0,-2.0,3.018
0.0,2.0,3.019
-4.0,4.0,3.02
-12.0,-1.0,3.021
-16.0,-7.0,3.022
-8.0,-12.0,3.023
1.0,-14.0,3.024
10.0,-5.0,3.025
19.0,4.0,3.026
27.0,12.0,3.027
31.0,19.0,3.028
21.0,22.0,3.029
12.0,22.0,3.03
4.0,12.0,3.031
-1.0,3.0,3.032
6.0,-1.0,3.033
11.0,-4.0,3.034
8.0,-7.0,3.035
5.0,-9.0,3.036
2.0,-4.0,3.037
-6.0,-2.0,3.038
-26.0,-7.0,3.039
-31.0,-3.0,3.04
-19.0,0.0,3.041
-1.0,-5.0,3.042
12.0,-6.0,3.043
21.0,7.0,3.044
25.0,24.0,3.045
25.0,23.0,3.046
20.0,3.0,3.047
14.0,-4.0,3.048
10.0,11.0,3.049
7.0,29.0,3.05
4.0,19.0,3.051
0.0,-10.0,3.052
-8.0,-33.0,3.053
-6.0,-31.0,3.054
14.0,-13.0,3.055
39.0,3.0,3.056
49.0,11.0,3.057
32.0,11.0,3.058
11.0,2.0,3.059
-3.0,-10.0,3.06
-10.0,-22.0,3.061
-19.0,-22.0,3.062
-22.0,-12.0,3.063
-12.0,-2.0,3.064
0.0,6.0,3.065
3.0,14.0,3.066
-3.0,20.0,3.067
-8.0,23.0,3.068
-6.0,18.0,3.069
-11.0,2.0,3.07
-22.0,-25.0,3.071
-28.0,-49.0,3.072
-21.0,-50.0,3.073
-8.0,-26.0,3.074
3.0,-3.0,3.075
12.0,2.0,3.076
19.0,2.0,3.077
22.0,3.0,3.078
22.0,7.0,3.079
20.0,9.0,3.08
15.0,7.0,3.081
8.0,6.0,3.082
3.0,2.0,3.083
4.0,1.0,3.084
8.0,6.0,3.085
9.0,8.0,3.086
7.0,-2.0,3.087
1.0,-11.0,3.088
-9.0,-10.0,3.089
-17.0,-5.0,3.09
-11.0,-6.0,3.091
11.0,0.0,3.092
33.0,27.0,3.093
34.0,48.0,3.094
14.0,35.0,3.095
-11.0,4.0,3.096
-26.0,-9.0,3.097
-30.0,-10.0,3.098
-26.0,-15.0,3.099
-25.0,-27.0,3.1
-34.0,-35.0,3.101
-49.0,-26.0,3.102
-52.0,-18.0,3.103
-36.0,-12.0,3.104
-9.0,-2.0,3.105
9.0,5.0,3.106
14.0,-2.0,3.107
12.0,-19.0,3.108
23.0,-16.0,3.109
51.0,13.0,3.11
79.0,47.0,3.111
85.0,55.0,3.112
62.0,31.0,3.113
34.0,2.0,3.114
26.0,3.0,3.115
33.0,27.0,3.116
31.0,40.0,3.117
10.0,23.0,3.118
-13.0,-2.0,3.119
-25.0,-9.0,3.12
-33.0,-10.0,3.121
-54.0,-23.0,3.122
-70.0,-44.0,3.123
-63.0,-48.0,3.124
-23.0,-29.0,3.125
27.0,-10.0,3.126
61.0,-4.0,3.127
71.0,0.0,3.128
61.0,11.0,3.129
39.0,22.0,3.13
16.0,21.0,3.131
-7.0,9.0,3.132
-30.0,0.0,3.133
-52.0,-7.0,3.134
-69.0,-22.0,3.135
-77.0,-44.0,3.136
-77.0,-54.0,3.137
-76.0,-50.0,3.138
-72.0,-41.0,3.139
-64.0,-38.0,3.14
-45.0,-39.0,3.141
-21.0,-27.0,3.142
-2.0,-9.0,3.143
8.0,5.0,3.144
17.0,18.0,3.145
31.0,30.0,3.146
48.0,34.0,3.147
66.0,28.0,3.148
79.0,25.0,3.149
87.0,31.0,3.15
94.0,37.0,3.151
104.0,39.0,3.152
109.0,44.0,3.153
89.0,44.0,3.154
46.0,30.0,3.155
15.0,16.0,3.156
17.0,25.0,3.157
25.0,43.0,3.158
11.0,42.0,3.159
-23.0,21.0,3.16
-40.0,5.0,3.161
-35.0,7.0,3.162
-38.0,-2.0,3.163
-56.0,-29.0,3.164
-70.0,-50.0,3.165
-67.0,-51.0,3.166
-57.0,-49.0,3.167
-47.0,-51.0,3.168
-31.0,-44.0,3.169
-3.0,-25.0,3.17
27.0,-9.0,3.171
40.0,-1.0,3.172
28.0,8.0,3.173
-4.0,12.0,3.174
-33.0,3.0,3.175
-42.0,-12.0,3.176
-29.0,-11.0,3.177
-11.0,3.0,3.178
3.0,21.0,3.179
17.0,22.0,3.18
38.0,8.0,3.181
61.0,8.0,3.182
72.0,22.0,3.183
57.0,34.0,3.184
24.0,27.0,3.185
-1.0,9.0,3.186
5.0,-4.0,3.187
29.0,-2.0,3.188
40.0,2.0,3.189
36.0,1.0,3.19
31.0,4.0,3.191
28.0,15.0,3.192
3.0,11.0,3.193
-31.0,-19.0,3.194
-42.0,-55.0,3.195
-24.0,-70.0,3.196
-12.0,-64.0,3.197
-19.0,-49.0,3.198
-15.0,-15.0,3.199
16.0,39.0,3.2
46.0,77.0,3.201
52.0,60.0,3.202
53.0,6.0,3.203
74.0,-29.0,3.204
86.0,-20.0,3.205
51.0,0.0,3.206
-21.0,-4.0,3.207
-73.0,-15.0,3.208
-77.0,-6.0,3.209
-56.0,15.0,3.21
-46.0,11.0,3.211
-53.0,-22.0,3.212
-60.0,-48.0,3.213
-44.0,-38.0,3.214
-11.0,-15.0,3.215
4.0,-9.0,3.216
-15.0,-16.0,3.217
-49.0,-24.0,3.218
-71.0,-22.0,3.219
-56.0,-20.0,3.22
-30.0,-28.0,3.221
-25.0,-25.0,3.222
-26.0,-6.0,3.223
-13.0,18.0,3.224
12.0,35.0,3.225
33.0,45.0,3.226
51.0,56.0,3.227
75.0,72.0,3.228
91.0,87.0,3.229
81.0,92.0,3.23
58.0,83.0,3.231
48.0,57.0,3.232
54.0,28.0,3.233
56.0,8.0,3.234
42.0,-1.0,3.235
25.0,-11.0,3.236
17.0,-24.0,3.237
25.0,-40.0,3.238
32.0,-45.0,3.239
24.0,-47.0,3.24
-7.0,-65.0,3.241
-50.0,-88.0,3.242
-72.0,-81.0,3.243
-57.0,-35.0,3.244
-24.0,11.0,3.245
-5.0,21.0,3.246
7.0,15.0,3.247
33.0,34.0,3.248
66.0,68.0,3.249
64.0,74.0,3.25
8.0,37.0,3.251
-54.0,-6.0,3.252
-62.0,-23.0,3.253
-13.0,-18.0,3.254
25.0,-20.0,3.255
7.0,-34.0,3.256
-40.0,-41.0,3.257
-67.0,-29.0,3.258
-57.0,-8.0,3.259
-43.0,-4.0,3.26
-14.0,-20.0,3.261
12.0,-20.0,3.262
31.0,2.0,3.263
45.0,21.0,3.264
40.0,6.0,3.265
36.0,-19.0,3.266
37.0,-16.0,3.267
36.0,13.0,3.268
25.0,23.0,3.269
8.0,-11.0,3.27
-21.0,-57.0,3.271
-50.0,-65.0,3.272
-78.0,-36.0,3.273
-92.0,-14.0,3.274
-66.0,-21.0,3.275
-52.0,-31.0,3.276
-75.0,-18.0,3.277
-104.0,-2.0,3.278
-128.0,-3.0,3.279
-77.0,0.0,3.28
20.0,30.0,3.281
86.0,62.0,3.282
97.0,52.0,3.283
91.0,24.0,3.284
102.0,37.0,3.285
105.0,79.0,3.286
80.0,82.0,3.287
47.0,43.0,3.288
38.0,31.0,3.289
42.0,67.0,3.29
39.0,84.0,3.291
38.0,42.0,3.292
53.0,-1.0,3.293
55.0,0.0,3.294
17.0,10.0,3.295
-35.0,-23.0,3.296
-43.0,-68.0,3.297
1.0,-74.0,3.298
49.0,-41.0,3.299
63.0,-13.0,3.3
51.0,-11.0,3.301
39.0,-8.0,3.302
33.0,8.0,3.303
26.0,20.0,3.304
14.0,16.0,3.305
-4.0,0.0,3.306
-23.0,-17.0,3.307
-35.0,-24.0,3.308
-39.0,-18.0,3.309
-43.0,-18.0,3.31
-53.0,-42.0,3.311
-65.0,-69.0,3.312
-69.0,-55.0,3.313
-65.0,-16.0,3.314
-65.0,-5.0,3.315
-71.0,-32.0,3.316
-76.0,-51.0,3.317
-70.0,-31.0,3.318
-36.0,11.0,3.319
15.0,42.0,3.32
41.0,39.0,3.321
10.0,6.0,3.322
-42.0,-37.0,3.323
-51.0,-43.0,3.324
-5.0,4.0,3.325
40.0,52.0,3.326
67.0,51.0,3.327
108.0,34.0,3.328
172.0,54.0,3.329
193.0,80.0,3.33
125.0,41.0,3.331
7.0,-41.0,3.332
-75.0,-74.0,3.333
-86.0,-31.0,3.334
-61.0,15.0,3.335
-40.0,9.0,3.336
-24.0,-15.0,3.337
5.0,-12.0,3.338
54.0,26.0,3.339
88.0,56.0,3.34
73.0,44.0,3.341
12.0,0.0,3.342
-51.0,-45.0,3.343
-87.0,-65.0,3.344
-110.0,-58.0,3.345
-145.0,-44.0,3.346
-180.0,-36.0,3.347
-174.0,-31.0,3.348
-113.0,-15.0,3.349
-22.0,22.0,3.35
64.0,58.0,3.351
121.0,60.0,3.352
142.0,16.0,3.353
130.0,-36.0,3.354
97.0,-50.0,3.355
51.0,-36.0,3.356
5.0,-35.0,3.357
-24.0,-44.0,3.358
-14.0,-10.0,3.359
21.0,66.0,3.36
25.0,102.0,3.361
-12.0,65.0,3.362
-12.0,27.0,3.363
91.0,62.0,3.364
231.0,115.0,3.365
267.0,99.0,3.366
171.0,31.0,3.367
55.0,-5.0,3.368
-9.0,-6.0,3.369
-59.0,-28.0,3.37
-137.0,-78.0,3.371
-187.0,-100.0,3.372
-144.0,-75.0,3.373
-57.0,-41.0,3.374
-22.0,-27.0,3.375
-66.0,-37.0,3.376
-125.0,-67.0,3.377
-151.0,-101.0,3.378
-141.0,-97.0,3.379
-125.0,-50.0,3.38
-112.0,-7.0,3.381
-80.0,18.0,3.382
-7.0,53.0,3.383
95.0,100.0,3.384
183.0,117.0,3.385
221.0,88.0,3.386
207.0,48.0,3.387
174.0,29.0,3.388
158.0,15.0,3.389
161.0,8.0,3.39
148.0,22.0,3.391
89.0,48.0,3.392
3.0,53.0,3.393
-59.0,40.0,3.394
-75.0,38.0,3.395
-67.0,38.0,3.396
-53.0,10.0,3.397
-22.0,-33.0,3.398
10.0,-48.0,3.399
4.0,-36.0,3.4
-37.0,-45.0,3.401
-64.0,-78.0,3.402
-56.0,-93.0,3.403
-43.0,-79.0,3.404
-56.0,-67.0,3.405
-85.0,-67.0,3.406
-103.0,-51.0,3.407
-93.0,-1.0,3.408
-55.0,51.0,3.409
-15.0,61.0,3.41
-17.0,24.0,3.411
-61.0,-28.0,3.412
-97.0,-67.0,3.413
-87.0,-78.0,3.414
-58.0,-75.0,3.415
-43.0,-63.0,3.416
-23.0,-40.0,3.417
29.0,-1.0,3.418
95.0,53.0,3.419
137.0,101.0,3.42
147.0,116.0,3.421
137.0,92.0,3.422
106.0,46.0,3.423
70.0,11.0,3.424
57.0,1.0,3.425
71.0,-1.0,3.426
69.0,-13.0,3.427
22.0,-26.0,3.428
-41.0,-21.0,3.429
-76.0,0.0,3.43
-79.0,15.0,3.431
-76.0,23.0,3.432
-88.0,32.0,3.433
-111.0,34.0,3.434
-125.0,12.0,3.435
-104.0,-25.0,3.436
-47.0,-39.0,3.437
22.0,-18.0,3.438
68.0,20.0,3.439
76.0,37.0,3.44
71.0,24.0,3.441
66.0,7.0,3.442
56.0,5.0,3.443
40.0,6.0,3.444
28.0,-4.0,3.445
24.0,-16.0,3.446
15.0,-13.0,3.447
-7.0,5.0,3.448
-27.0,11.0,3.449
-27.0,-9.0,3.45
5.0,-31.0,3.451
57.0,-32.0,3.452
94.0,-29.0,3.453
85.0,-40.0,3.454
25.0,-51.0,3.455
-47.0,-27.0,3.456
-83.0,25.0,3.457
-72.0,73.0,3.458
-27.0,99.0,3.459
37.0,101.0,3.46
114.0,79.0,3.461
185.0,45.0,3.462
210.0,17.0,3.463
166.0,2.0,3.464
82.0,-16.0,3.465
6.0,-52.0,3.466
-39.0,-81.0,3.467
-67.0,-77.0,3.468
-87.0,-61.0,3.469
-97.0,-70.0,3.47
-97.0,-82.0,3.471
-95.0,-52.0,3.472
-107.0,3.0,3.473
-128.0,23.0,3.474
-132.0,-4.0,3.475
-98.0,-18.0,3.476
-38.0,3.0,3.477
19.0,21.0,3.478
60.0,-3.0,3.479
82.0,-44.0,3.48
79.0,-57.0,3.481
40.0,-31.0,3.482
-14.0,9.0,3.483
-42.0,55.0,3.484
-36.0,94.0,3.485
-24.0,111.0,3.486
-15.0,101.0,3.487
0.0,72.0,3.488
6.0,29.0,3.489
-23.0,-17.0,3.49
-64.0,-37.0,3.491
-70.0,-9.0,3.492
-49.0,29.0,3.493
-53.0,29.0,3.494
-85.0,13.0,3.495
-69.0,34.0,3.496
26.0,84.0,3.497
152.0,99.0,3.498
228.0,59.0,3.499
239.0,16.0,3.5
222.0,15.0,3.501
183.0,27.0,3.502
105.0,-3.0,3.503
4.0,-65.0,3.504
-71.0,-103.0,3.505
-100.0,-98.0,3.506
-94.0,-82.0,3.507
-74.0,-87.0,3.508
-64.0,-109.0,3.509
-82.0,-131.0,3.51
-109.0,-138.0,3.511
-106.0,-117.0,3.512
-68.0,-75.0,3.513
-36.0,-45.0,3.514
-23.0,-47.0,3.515
12.0,-43.0,3.516
79.0,4.0,3.517
125.0,73.0,3.518
107.0,93.0,3.519
62.0,53.0,3.52
42.0,32.0,3.521
30.0,81.0,3.522
-2.0,141.0,3.523
-26.0,132.0,3.524
-9.0,70.0,3.525
24.0,35.0,3.526
39.0,61.0,3.527
45.0,97.0,3.528
61.0,87.0,3.529
65.0,30.0,3.53
43.0,-20.0,3.531
34.0,-23.0,3.532
71.0,4.0,3.533
109.0,11.0,3.534
88.0,-10.0,3.535
5.0,-22.0,3.536
-90.0,-13.0,3.537
-166.0,-21.0,3.538
-205.0,-56.0,3.539
-201.0,-85.0,3.54
-154.0,-81.0,3.541
-85.0,-62.0,3.542
-15.0,-46.0,3.543
40.0,-16.0,3.544
79.0,27.0,3.545
92.0,41.0,3.546
71.0,8.0,3.547
30.0,-37.0,3.548
-8.0,-58.0,3.549
-24.0,-60.0,3.55
-29.0,-51.0,3.551
-40.0,-21.0,3.552
-69.0,21.0,3.553
-105.0,36.0,3.554
-115.0,14.0,3.555
-71.0,4.0,3.556
16.0,42.0,3.557
115.0,95.0,3.558
182.0,110.0,3.559
190.0,75.0,3.56
149.0,24.0,3.561
90.0,-3.0,3.562
50.0,-6.0,3.563
43.0,1.0,3.564
45.0,8.0,3.565
26.0,9.0,3.566
-10.0,0.0,3.567
-27.0,-9.0,3.568
-13.0,-5.0,3.569
0.0,11.0,3.57
-23.0,13.0,3.571
-77.0,-24.0,3.572
-109.0,-87.0,3.573
-86.0,-121.0,3.574
-46.0,-100.0,3.575
-69.0,-63.0,3.576
-163.0,-63.0,3.577
-271.0,-95.0,3.578
-307.0,-95.0,3.579
-282.0,-47.0,3.58
-249.0,-10.0,3.581
-205.0,-15.0,3.582
-99.0,-27.0,3.583
64.0,-6.0,3.584
213.0,28.0,3.585
311.0,38.0,3.586
366.0,30.0,3.587
358.0,21.0,3.588
245.0,0.0,3.589
76.0,-40.0,3.59
-29.0,-57.0,3.591
-21.0,-1.0,3.592
28.0,97.0,3.593
60.0,157.0,3.594
97.0,153.0,3.595
146.0,143.0,3.596
144.0,150.0,3.597
64.0,126.0,3.598
-11.0,49.0,3.599
-5.0,-18.0,3.6
43.0,-17.0,3.601
33.0,14.0,3.602
-49.0,-18.0,3.603
-136.0,-100.0,3.604
-162.0,-127.0,3.605
-119.0,-71.0,3.606
-31.0,-22.0,3.607
64.0,-36.0,3.608
143.0,-56.0,3.609
210.0,-18.0,3.61
248.0,41.0,3.611
210.0,53.0,3.612
83.0,30.0,3.613
-59.0,15.0,3.614
-134.0,1.0,3.615
-137.0,-44.0,3.616
-110.0,-88.0,3.617
-58.0,-72.0,3.618
19.0,5.0,3.619
67.0,63.0,3.62
36.0,36.0,3.621
-37.0,-36.0,3.622
-73.0,-91.0,3.623
-75.0,-102.0,3.624
-103.0,-81.0,3.625
-153.0,-40.0,3.626
-167.0,6.0,3.627
-126.0,43.0,3.628
-70.0,73.0,3.629
-30.0,117.0,3.63
-7.0,155.0,3.631
-5.0,141.0,3.632
-14.0,73.0,3.633
18.0,27.0,3.634
121.0,48.0,3.635
229.0,89.0,3.636
259.0,85.0,3.637
195.0,48.0,3.638
99.0,34.0,3.639
5.0,26.0,3.64
-77.0,34.0,3.641
-126.0,34.0,3.642
-109.0,11.0,3.643
-36.0,-11.0,3.644
59.0,-28.0,3.645
149.0,-45.0,3.646
200.0,-62.0,3.647
156.0,-88.0,3.648
18.0,-141.0,3.649
-125.0,-172.0,3.65
-173.0,-133.0,3.651
-136.0,-105.0,3.652
-99.0,-112.0,3.653
-105.0,-104.0,3.654
-112.0,-50.0,3.655
-62.0,3.0,3.656
28.0,55.0,3.657
99.0,92.0,3.658
87.0,66.0,3.659
20.0,24.0,3.66
-17.0,-13.0,3.661
6.0,-18.0,3.662
31.0,11.0,3.663
18.0,47.0,3.664
-6.0,64.0,3.665
-14.0,63.0,3.666
-42.0,47.0,3.667
-115.0,24.0,3.668
-188.0,11.0,3.669
-205.0,24.0,3.67
-178.0,43.0,3.671
-127.0,35.0,3.672
-32.0,11.0,3.673
113.0,6.0,3.674
224.0,12.0,3.675
215.0,-16.0,3.676
124.0,-75.0,3.677
36.0,-110.0,3.678
9.0,-75.0,3.679
7.0,-14.0,3.68
-14.0,4.0,3.681
-35.0,-17.0,3.682
-26.0,-38.0,3.683
4.0,-43.0,3.684
20.0,-39.0,3.685
23.0,-15.0,3.686
46.0,28.0,3.687
94.0,55.0,3.688
129.0,41.0,3.689
132.0,25.0,3.69
125.0,48.0,3.691
127.0,88.0,3.692
115.0,89.0,3.693
72.0,46.0,3.694
19.0,-1.0,3.695
-12.0,-28.0,3.696
-35.0,-41.0,3.697
-84.0,-48.0,3.698
-159.0,-50.0,3.699
-225.0,-65.0,3.7
-237.0,-99.0,3.701
-168.0,-113.0,3.702
-26.0,-68.0,3.703
133.0,28.0,3.704
242.0,118.0,3.705
266.0,143.0,3.706
218.0,92.0,3.707
128.0,22.0,3.708
16.0,-13.0,3.709
-94.0,-22.0,3.71
-178.0,-49.0,3.711
-219.0,-86.0,3.712
-230.0,-86.0,3.713
-223.0,-49.0,3.714
-204.0,-30.0,3.715
-156.0,-38.0,3.716
-81.0,-24.0,3.717
5.0,7.0,3.718
65.0,5.0,3.719
90.0,-31.0,3.72
110.0,-28.0,3.721
125.0,44.0,3.722
105.0,97.0,3.723
48.0,72.0,3.724
3.0,25.0,3.725
11.0,21.0,3.726
48.0,44.0,3.727
72.0,54.0,3.728
82.0,60.0,3.729
117.0,77.0,3.73
183.0,83.0,3.731
235.0,64.0,3.732
215.0,39.0,3.733
114.0,19.0,3.734
-12.0,-9.0,3.735
-109.0,-38.0,3.736
-160.0,-47.0,3.737
-192.0,-45.0,3.738
-201.0,-61.0,3.739
-183.0,-86.0,3.74
-157.0,-90.0,3.741
-161.0,-77.0,3.742
-183.0,-84.0,3.743
-169.0,-101.0,3.744
-98.0,-81.0,3.745
-15.0,-34.0,3.746
34.0,-11.0,3.747
57.0,-15.0,3.748
83.0,9.0,3.749
105.0,64.0,3.75
92.0,88.0,3.751
42.0,66.0,3.752
2.0,56.0,3.753
10.0,84.0,3.754
58.0,93.0,3.755
97.0,45.0,3.756
101.0,-8.0,3.757
75.0,-22.0,3.758
46.0,-4.0,3.759
28.0,7.0,3.76
30.0,1.0,3.761
64.0,5.0,3.762
135.0,27.0,3.763
211.0,68.0,3.764
238.0,111.0,3.765
178.0,114.0,3.766
59.0,52.0,3.767
-56.0,-34.0,3.768
-118.0,-71.0,3.769
-131.0,-51.0,3.77
-125.0,-36.0,3.771
-115.0,-53.0,3.772
-101.0,-75.0,3.773
-89.0,-85.0,3.774
-86.0,-96.0,3.775
-85.0,-104.0,3.776
-61.0,-80.0,3.777
-24.0,-35.0,3.778
13.0,-9.0,3.779
5.0,-15.0,3.78
-29.0,-26.0,3.781
-48.0,-16.0,3.782
-43.0,-4.0,3.783
-42.0,-1.0,3.784
-48.0,7.0,3.785
-32.0,27.0,3.786
6.0,39.0,3.787
23.0,38.0,3.788
6.0,38.0,3.789
-1.0,44.0,3.79
25.0,43.0,3.791
43.0,33.0,3.792
20.0,25.0,3.793
-5.0,34.0,3.794
12.0,50.0,3.795
50.0,50.0,3.796
69.0,27.0,3.797
69.0,-12.0,3.798
72.0,-33.0,3.799
71.0,-22.0,3.8
47.0,-5.0,3.801
12.0,0.0,3.802
-6.0,-6.0,3.803
-4.0,-10.0,3.804
1.0,-13.0,3.805
1.0,-20.0,3.806
1.0,-26.0,3.807
16.0,-20.0,3.808
54.0,-3.0,3.809
94.0,18.0,3.81
92.0,31.0,3.811
36.0,32.0,3.812
-34.0,22.0,3.813
-65.0,11.0,3.814
-54.0,10.0,3.815
-27.0,18.0,3.816
-7.0,29.0,3.817
3.0,23.0,3.818
-2.0,1.0,3.819
-24.0,-24.0,3.82
-42.0,-35.0,3.821
-40.0,-30.0,3.822
-24.0,-26.0,3.823
0.0,-35.0,3.824
24.0,-42.0,3.825
37.0,-37.0,3.826
21.0,-23.0,3.827
-14.0,-14.0,3.828
-34.0,-11.0,3.829
-23.0,-9.0,3.83
-5.0,-11.0,3.831
-12.0,-16.0,3.832
-30.0,-13.0,3.833
-32.0,-1.0,3.834
-14.0,17.0,3.835
4.0,24.0,3.836
11.0,14.0,3.837
6.0,-5.0,3.838
-3.0,-15.0,3.839
-11.0,-8.0,3.84
-4.0,-1.0,3.841
16.0,1.0,3.842
27.0,1.0,3.843
19.0,6.0,3.844
1.0,16.0,3.845
-11.0,18.0,3.846
-19.0,11.0,3.847
-25.0,2.0,3.848
-22.0,-1.0,3.849
-2.0,0.0,3.85
17.0,4.0,3.851
11.0,5.0,3.852
-19.0,-3.0,3.853
-39.0,-15.0,3.854
-26.0,-12.0,3.855
7.0,17.0,3.856
36.0,56.0,3.857
47.0,65.0,3.858
43.0,34.0,3.859
28.0,-4.0,3.86
13.0,-17.0,3.861
15.0,-5.0,3.862
30.0,0.0,3.863
40.0,-7.0,3.864
28.0,-12.0,3.865
2.0,-8.0,3.866
-16.0,-9.0,3.867
-13.0,-16.0,3.868
12.0,-15.0,3.869
59.0,1.0,3.87
105.0,17.0,3.871
116.0,16.0,3.872
70.0,1.0,3.873
-9.0,-14.0,3.874
-76.0,-22.0,3.875
-106.0,-21.0,3.876
-106.0,-9.0,3.877
-93.0,1.0,3.878
-75.0,4.0,3.879
-58.0,0.0,3.88
-46.0,-8.0,3.881
-37.0,-15.0,3.882
-17.0,-25.0,3.883
13.0,-37.0,3.884
41.0,-36.0,3.885
48.0,-16.0,3.886
37.0,5.0,3.887
22.0,15.0,3.888
14.0,11.0,3.889
13.0,8.0,3.89
11.0,9.0,3.891
8.0,12.0,3.892
9.0,14.0,3.893
14.0,15.0,3.894
17.0,13.0,3.895
22.0,7.0,3.896
33.0,5.0,3.897
51.0,5.0,3.898
59.0,8.0,3.899
56.0,11.0,3.9
20.0,12.0,3.901
-6.0,13.0,3.902
3.0,16.0,3.903
10.0,17.0,3.904
10.0,7.0,3.905
10.0,0.0,3.906
16.0,-1.0,3.907
28.0,-3.0,3.908
60.0,-3.0,3.909
78.0,-2.0,3.91
56.0,3.0,3.911
28.0,7.0,3.912
-14.0,1.0,3.913
-52.0,0.0,3.914
-72.0,19.0,3.915
-88.0,32.0,3.916
-93.0,22.0,3.917
-97.0,7.0,3.918
-103.0,-24.0,3.919
-118.0,-45.0,3.92
-129.0,-58.0,3.921
-116.0,-62.0,3.922
-84.0,-63.0,3.923
-51.0,-63.0,3.924
-26.0,-60.0,3.925
2.0,-49.0,3.926
40.0,-25.0,3.927
74.0,2.0,3.928
88.0,19.0,3.929
81.0,19.0,3.93
63.0,13.0,3.931
47.0,18.0,3.932
36.0,27.0,3.933
25.0,27.0,3.934
17.0,19.0,3.935
15.0,14.0,3.936
22.0,16.0,3.937
33.0,13.0,3.938
42.0,7.0,3.939
40.0,7.0,3.94
40.0,13.0,3.941
45.0,20.0,3.942
49.0,21.0,3.943
44.0,17.0,3.944
28.0,13.0,3.945
9.0,7.0,3.946
-6.0,0.0,3.947
-11.0,-4.0,3.948
-4.0,1.0,3.949
4.0,11.0,3.95
5.0,12.0,3.951
-4.0,2.0,3.952
-8.0,-7.0,3.953
-1.0,-8.0,3.954
6.0,-3.0,3.955
0.0,0.0,3.956
-9.0,2.0,3.957
-8.0,0.0,3.958
7.0,-3.0,3.959
19.0,-7.0,3.96
14.0,-11.0,3.961
2.0,-11.0,3.962
3.0,2.0,3.963
21.0,11.0,3.964
33.0,7.0,3.965
29.0,2.0,3.966
16.0,0.0,3.967
5.0,-2.0,3.968
-10.0,-4.0,3.969
-27.0,-6.0,3.97
-37.0,-6.0,3.971
-21.0,-10.0,3.972
22.0,-22.0,3.973
60.0,-30.0,3.974
62.0,-24.0,3.975
26.0,-15.0,3.976
-12.0,2.0,3.977
-31.0,19.0,3.978
-31.0,30.0,3.979
-27.0,35.0,3.98
-34.0,32.0,3.981
-47.0,29.0,3.982
-55.0,14.0,3.983
-64.0,-9.0,3.984
-77.0,-26.0,3.985
-79.0,-23.0,3.986
-58.0,-7.0,3.987
-27.0,1.0,3.988
-7.0,-10.0,3.989
15.0,-34.0,3.99
66.0,-46.0,3.991
126.0,-32.0,3.992
142.0,-7.0,3.993
98.0,8.0,3.994
36.0,7.0,3.995
-6.0,7.0,3.996
-31.0,15.0,3.997
-64.0,24.0,3.998
-89.0,22.0,3.999
-108.0,18.0,4.0
-106.0,9.0,4.001
-102.0,-5.0,4.002
-92.0,-35.0,4.003
-72.0,-57.0,4.004
-25.0,-49.0,4.005
17.0,-39.0,4.006
46.0,-23.0,4.007
70.0,-11.0,4.008
79.0,-11.0,4.009
86.0,-5.0,4.01
82.0,16.0,4.011
74.0,31.0,4.012
55.0,28.0,4.013
38.0,25.0,4.014
32.0,21.0,4.015
27.0,18.0,4.016
27.0,26.0,4.017
30.0,30.0,4.018
36.0,21.0,4.019
43.0,13.0,4.02
44.0,7.0,4.021
36.0,11.0,4.022
29.0,22.0,4.023
22.0,29.0,4.024
8.0,10.0,4.025
-6.0,-24.0,4.026
-9.0,-47.0,4.027
-2.0,-42.0,4.028
14.0,-22.0,4.029
48.0,-6.0,4.03
97.0,10.0,4.031
128.0,28.0,4.032
110.0,33.0,4.033
58.0,21.0,4.034
17.0,11.0,4.035
0.0,19.0,4.036
-18.0,32.0,4.037
-57.0,23.0,4.038
-99.0,-4.0,4.039
-140.0,-24.0,4.04
-174.0,-30.0,4.041
-198.0,-31.0,4.042
-191.0,-45.0,4.043
-177.0,-68.0,4.044
-139.0,-78.0,4.045
-101.0,-68.0,4.046
-62.0,-49.0,4.047
-21.0,-30.0,4.048
24.0,-10.0,4.049
85.0,16.0,4.05
191.0,38.0,4.051
281.0,41.0,4.052
322.0,34.0,4.053
317.0,40.0,4.054
171.0,59.0,4.055
34.0,72.0,4.056
-75.0,67.0,4.057
-173.0,55.0,4.058
-201.0,38.0,4.059
-196.0,19.0,4.06
-172.0,-14.0,4.061
-151.0,-48.0,4.062
-141.0,-72.0,4.063
-130.0,-79.0,4.064
-100.0,-71.0,4.065
-52.0,-52.0,4.066
-11.0,-36.0,4.067
15.0,-32.0,4.068
36.0,-25.0,4.069
59.0,-2.0,4.07
76.0,27.0,4.071
82.0,36.0,4.072
81.0,22.0,4.073
75.0,11.0,4.074
65.0,18.0,4.075
54.0,29.0,4.076
49.0,30.0,4.077
47.0,13.0,4.078
48.0,-1.0,4.079
47.0,-3.0,4.08
50.0,11.0,4.081
54.0,30.0,4.082
55.0,38.0,4.083
56.0,33.0,4.084
56.0,24.0,4.085
49.0,16.0,4.086
37.0,4.0,4.087
23.0,-9.0,4.088
12.0,-9.0,4.089
7.0,1.0,4.09
14.0,3.0,4.091
26.0,-8.0,4.092
32.0,-15.0,4.093
35.0,-7.0,4.094
52.0,2.0,4.095
89.0,2.0,4.096
117.0,5.0,4.097
103.0,24.0,4.098
53.0,51.0,4.099
2.0,71.0,4.1
-21.0,70.0,4.101
-31.0,51.0,4.102
-47.0,11.0,4.103
-66.0,-41.0,4.104
-77.0,-83.0,4.105
-80.0,-99.0,4.106
-86.0,-96.0,4.107
-107.0,-82.0,4.108
-147.0,-58.0,4.109
-189.0,-32.0,4.11
-200.0,-16.0,4.111
-171.0,-10.0,4.112
-131.0,-4.0,4.113
-107.0,-1.0,4.114
-87.0,-15.0,4.115
-35.0,-36.0,4.116
50.0,-32.0,4.117
140.0,-1.0,4.118
172.0,26.0,4.119
114.0,28.0,4.12
9.0,18.0,4.121
-59.0,26.0,4.122
-56.0,33.0,4.123
-29.0,14.0,4.124
-31.0,-22.0,4.125
-53.0,-39.0,4.126
-59.0,-29.0,4.127
-48.0,-16.0,4.128
-42.0,-18.0,4.129
-29.0,-20.0,4.13
16.0,-8.0,4.131
80.0,10.0,4.132
130.0,18.0,4.133
153.0,20.0,4.134
153.0,24.0,4.135
125.0,37.0,4.136
79.0,48.0,4.137
34.0,48.0,4.138
13.0,37.0,4.139
4.0,23.0,4.14
-3.0,5.0,4.141
-3.0,-5.0,4.142
3.0,-7.0,4.143
7.0,-9.0,4.144
8.0,-8.0,4.145
22.0,-7.0,4.146
41.0,-5.0,4.147
41.0,-8.0,4.148
27.0,-11.0,4.149
36.0,-5.0,4.15
70.0,9.0,4.151
86.0,15.0,4.152
56.0,8.0,4.153
5.0,2.0,4.154
-24.0,8.0,4.155
-25.0,14.0,4.156
-8.0,9.0,4.157
13.0,-4.0,4.158
30.0,-6.0,4.159
28.0,0.0,4.16
7.0,-2.0,4.161
-20.0,-9.0,4.162
-42.0,-10.0,4.163
-56.0,-7.0,4.164
-62.0,-15.0,4.165
-55.0,-27.0,4.166
-42.0,-19.0,4.167
-33.0,10.0,4.168
-36.0,30.0,4.169
-41.0,17.0,4.17
-33.0,-7.0,4.171
-3.0,-7.0,4.172
55.0,8.0,4.173
117.0,14.0,4.174
150.0,9.0,4.175
137.0,19.0,4.176
107.0,47.0,4.177
76.0,64.0,4.178
40.0,51.0,4.179
-8.0,26.0,4.18
-52.0,10.0,4.181
-78.0,3.0,4.182
-107.0,-16.0,4.183
-153.0,-44.0,4.184
-186.0,-62.0,4.185
-179.0,-71.0,4.186
-145.0,-80.0,4.187
-120.0,-87.0,4.188
-89.0,-71.0,4.189
-13.0,-34.0,4.19
109.0,-8.0,4.191
232.0,-4.0,4.192
308.0,2.0,4.193
304.0,31.0,4.194
210.0,57.0,4.195
55.0,60.0,4.196
-77.0,58.0,4.197
-134.0,69.0,4.198
-112.0,67.0,4.199
-79.0,19.0,4.2
-90.0,-50.0,4.201
-140.0,-78.0,4.202
-192.0,-67.0,4.203
-212.0,-68.0,4.204
-196.0,-86.0,4.205
-147.0,-72.0,4.206
-79.0,-19.0,4.207
-9.0,16.0,4.208
47.0,6.0,4.209
83.0,-8.0,4.21
94.0,12.0,4.211
82.0,42.0,4.212
62.0,46.0,4.213
55.0,31.0,4.214
61.0,25.0,4.215
65.0,28.0,4.216
61.0,29.0,4.217
55.0,27.0,4.218
59.0,24.0,4.219
73.0,16.0,4.22
93.0,0.0,4.221
116.0,3.0,4.222
126.0,26.0,4.223
102.0,43.0,4.224
47.0,36.0,4.225
-2.0,17.0,4.226
-19.0,6.0,4.227
-10.0,-1.0,4.228
5.0,-7.0,4.229
32.0,-8.0,4.23
60.0,-2.0,4.231
59.0,-2.0,4.232
13.0,-8.0,4.233
-49.0,-9.0,4.234
-82.0,-2.0,4.235
-86.0,-4.0,4.236
-83.0,-16.0,4.237
-83.0,-26.0,4.238
-68.0,-18.0,4.239
-37.0,-8.0,4.24
-18.0,-11.0,4.241
-25.0,-13.0,4.242
-34.0,-8.0,4.243
-16.0,0.0,4.244
17.0,0.0,4.245
26.0,4.0,4.246
6.0,19.0,4.247
-13.0,29.0,4.248
-14.0,19.0,4.249
-16.0,-3.0,4.25
-31.0,-25.0,4.251
-40.0,-46.0,4.252
-26.0,-67.0,4.253
-1.0,-71.0,4.254
18.0,-51.0,4.255
33.0,-19.0,4.256
46.0,4.0,4.257
52.0,9.0,4.258
67.0,5.0,4.259
103.0,1.0,4.26
128.0,9.0,4.261
90.0,33.0,4.262
2.0,47.0,4.263
-62.0,34.0,4.264
-64.0,6.0,4.265
-43.0,-8.0,4.266
-45.0,-9.0,4.267
-54.0,-12.0,4.268
-35.0,-16.0,4.269
2.0,-9.0,4.27
28.0,9.0,4.271
35.0,16.0,4.272
32.0,4.0,4.273
19.0,-5.0,4.274
0.0,-2.0,4.275
-5.0,5.0,4.276
7.0,8.0,4.277
10.0,19.0,4.278
-15.0,45.0,4.279
-42.0,59.0,4.28
-34.0,37.0,4.281
13.0,4.0,4.282
71.0,-9.0,4.283
108.0,-2.0,4.284
103.0,-7.0,4.285
51.0,-36.0,4.286
-13.0,-66.0,4.287
-36.0,-66.0,4.288
3.0,-38.0,4.289
53.0,-8.0,4.29
54.0,1.0,4.291
4.0,-4.0,4.292
-38.0,0.0,4.293
-25.0,17.0,4.294
24.0,25.0,4.295
40.0,7.0,4.296
0.0,-9.0,4.297
-65.0,1.0,4.298
-85.0,31.0,4.299
-52.0,46.0,4.3
-8.0,29.0,4.301
19.0,9.0,4.302
35.0,15.0,4.303
30.0,38.0,4.304
-14.0,47.0,4.305
-66.0,33.0,4.306
-62.0,9.0,4.307
-12.0,-9.0,4.308
-3.0,-21.0,4.309
-64.0,-34.0,4.31
-125.0,-51.0,4.311
-129.0,-68.0,4.312
-111.0,-70.0,4.313
-108.0,-52.0,4.314
-100.0,-31.0,4.315
-65.0,-35.0,4.316
-32.0,-57.0,4.317
-19.0,-62.0,4.318
7.0,-18.0,4.319
59.0,36.0,4.32
89.0,41.0,4.321
68.0,9.0,4.322
44.0,-1.0,4.323
59.0,31.0,4.324
73.0,61.0,4.325
42.0,56.0,4.326
0.0,39.0,4.327
15.0,38.0,4.328
78.0,39.0,4.329
133.0,24.0,4.33
140.0,-3.0,4.331
107.0,-26.0,4.332
50.0,-44.0,4.333
5.0,-56.0,4.334
0.0,-47.0,4.335
20.0,-15.0,4.336
29.0,18.0,4.337
19.0,34.0,4.338
21.0,35.0,4.339
34.0,30.0,4.34
29.0,17.0,4.341
2.0,4.0,4.342
3.0,3.0,4.343
44.0,15.0,4.344
72.0,24.0,4.345
40.0,15.0,4.346
-18.0,4.0,4.347
-42.0,10.0,4.348
-29.0,20.0,4.349
-18.0,11.0,4.35
-31.0,-6.0,4.351
-53.0,-14.0,4.352
-57.0,-16.0,4.353
-42.0,-27.0,4.354
-27.0,-42.0,4.355
-22.0,-42.0,4.356
-23.0,-27.0,4.357
-18.0,-11.0,4.358
-11.0,-2.0,4.359
-15.0,5.0,4.36
-12.0,5.0,4.361
20.0,-3.0,4.362
77.0,-6.0,4.363
113.0,3.0,4.364
92.0,18.0,4.365
29.0,27.0,4.366
-31.0,25.0,4.367
-63.0,20.0,4.368
-70.0,16.0,4.369
-72.0,14.0,4.37
-73.0,14.0,4.371
-68.0,8.0,4.372
-56.0,-10.0,4.373
-42.0,-32.0,4.374
-23.0,-47.0,4.375
2.0,-39.0,4.376
26.0,-14.0,4.377
31.0,3.0,4.378
10.0,-2.0,4.379
-18.0,-24.0,4.38
-33.0,-34.0,4.381
-27.0,-17.0,4.382
-10.0,-3.0,4.383
6.0,-10.0,4.384
15.0,-20.0,4.385
20.0,-6.0,4.386
38.0,24.0,4.387
62.0,45.0,4.388
73.0,52.0,4.389
62.0,49.0,4.39
46.0,33.0,4.391
40.0,3.0,4.392
23.0,-20.0,4.393
-18.0,-17.0,4.394
-58.0,0.0,4.395
-61.0,6.0,4.396
-38.0,-4.0,4.397
-19.0,-22.0,4.398
-18.0,-36.0,4.399
-11.0,-37.0,4.4
12.0,-25.0,4.401
38.0,-4.0,4.402
49.0,8.0,4.403
40.0,4.0,4.404
16.0,-6.0,4.405
-2.0,-13.0,4.406
15.0,-15.0,4.407
67.0,-4.0,4.408
113.0,17.0,4.409
100.0,32.0,4.41
38.0,22.0,4.411
-16.0,10.0,4.412
-13.0,18.0,4.413
29.0,37.0,4.414
51.0,40.0,4.415
17.0,23.0,4.416
-40.0,6.0,4.417
-92.0,0.0,4.418
-112.0,4.0,4.419
-113.0,0.0,4.42
-100.0,-27.0,4.421
-71.0,-62.0,4.422
-31.0,-76.0,4.423
0.0,-51.0,4.424
11.0,-8.0,4.425
6.0,11.0,4.426
0.0,0.0,4.427
-12.0,-14.0,4.428
-22.0,-13.0,4.429
-22.0,-10.0,4.43
-5.0,-14.0,4.431
11.0,-13.0,4.432
20.0,1.0,4.433
35.0,17.0,4.434
62.0,25.0,4.435
82.0,32.0,4.436
82.0,44.0,4.437
69.0,45.0,4.438
69.0,35.0,4.439
81.0,28.0,4.44
83.0,26.0,4.441
59.0,14.0,4.442
16.0,-12.0,4.443
-40.0,-33.0,4.444
-95.0,-28.0,4.445
-132.0,-10.0,4.446
-137.0,-6.0,4.447
-121.0,-17.0,4.448
-95.0,-27.0,4.449
-58.0,-25.0,4.45
-5.0,-12.0,4.451
46.0,3.0,4.452
69.0,14.0,4.453
58.0,11.0,4.454
30.0,-2.0,4.455
2.0,-11.0,4.456
-17.0,-12.0,4.457
-19.0,-10.0,4.458
2.0,-8.0,4.459
22.0,4.0,4.46
31.0,22.0,4.461
40.0,34.0,4.462
56.0,25.0,4.463
68.0,9.0,4.464
69.0,6.0,4.465
70.0,9.0,4.466
82.0,0.0,4.467
75.0,-14.0,4.468
32.0,-17.0,4.469
-19.0,-8.0,4.47
-38.0,1.0,4.471
-17.0,4.0,4.472
26.0,7.0,4.473
64.0,8.0,4.474
75.0,-4.0,4.475
51.0,-19.0,4.476
15.0,-25.0,4.477
-19.0,-18.0,4.478
-49.0,-4.0,4.479
-91.0,7.0,4.48
-138.0,11.0,4.481
-165.0,5.0,4.482
-160.0,-7.0,4.483
-137.0,-17.0,4.484
-101.0,-18.0,4.485
-58.0,-19.0,4.486
-14.0,-29.0,4.487
14.0,-36.0,4.488
24.0,-28.0,4.489
23.0,-10.0,4.49
16.0,-4.0,4.491
13.0,-7.0,4.492
19.0,-2.0,4.493
27.0,14.0,4.494
23.0,26.0,4.495
10.0,24.0,4.496
10.0,18.0,4.497
26.0,17.0,4.498
56.0,22.0,4.499
102.0,29.0,4.5
151.0,31.0,4.501
165.0,37.0,4.502
117.0,48.0,4.503
44.0,58.0,4.504
3.0,58.0,4.505
-1.0,45.0,4.506
-11.0,21.0,4.507
-41.0,-7.0,4.508
-67.0,-34.0,4.509
-72.0,-53.0,4.51
-66.0,-55.0,4.511
-52.0,-44.0,4.512
-20.0,-35.0,4.513
27.0,-38.0,4.514
61.0,-42.0,4.515
59.0,-35.0,4.516
26.0,-21.0,4.517
-9.0,-11.0,4.518
-6.0,-5.0,4.519
37.0,0.0,4.52
66.0,3.0,4.521
38.0,8.0,4.522
-11.0,19.0,4.523
-19.0,28.0,4.524
-1.0,22.0,4.525
-18.0,4.0,4.526
-66.0,-11.0,4.527
-78.0,-22.0,4.528
-37.0,-31.0,4.529
-3.0,-32.0,4.53
-10.0,-16.0,4.531
-27.0,9.0,4.532
-24.0,25.0,4.533
-8.0,27.0,4.534
0.0,23.0,4.535
3.0,24.0,4.536
11.0,28.0,4.537
23.0,28.0,4.538
35.0,20.0,4.539
34.0,8.0,4.54
10.0,3.0,4.541
-24.0,10.0,4.542
-33.0,18.0,4.543
3.0,15.0,4.544
62.0,8.0,4.545
101.0,5.0,4.546
93.0,2.0,4.547
38.0,-11.0,4.548
-31.0,-26.0,4.549
-72.0,-27.0,4.55
-71.0,-20.0,4.551
-58.0,-20.0,4.552
-61.0,-37.0,4.553
-73.0,-59.0,4.554
-65.0,-63.0,4.555
-24.0,-28.0,4.556
37.0,36.0,4.557
100.0,97.0,4.558
150.0,110.0,4.559
183.0,78.0,4.56
218.0,47.0,4.561
246.0,48.0,4.562
216.0,55.0,4.563
103.0,44.0,4.564
-32.0,16.0,4.565
-108.0,-14.0,4.566
-134.0,-49.0,4.567
-181.0,-86.0,4.568
-270.0,-108.0,4.569
-332.0,-114.0,4.57
-305.0,-121.0,4.571
-207.0,-125.0,4.572
-110.0,-105.0,4.573
-64.0,-61.0,4.574
-58.0,-24.0,4.575
-45.0,-14.0,4.576
-4.0,-14.0,4.577
42.0,-9.0,4.578
65.0,4.0,4.579
62.0,19.0,4.58
62.0,30.0,4.581
73.0,36.0,4.582
79.0,37.0,4.583
83.0,41.0,4.584
96.0,51.0,4.585
104.0,57.0,4.586
87.0,51.0,4.587
55.0,38.0,4.588
44.0,34.0,4.589
58.0,32.0,4.59
73.0,20.0,4.591
72.0,7.0,4.592
63.0,5.0,4.593
48.0,13.0,4.594
24.0,16.0,4.595
14.0,17.0,4.596
34.0,28.0,4.597
47.0,41.0,4.598
7.0,41.0,4.599
-36.0,21.0,4.6
-88.0,-3.0,4.601
-110.0,-11.0,4.602
-37.0,-11.0,4.603
21.0,-21.0,4.604
37.0,-41.0,4.605
45.0,-54.0,4.606
29.0,-40.0,4.607
22.0,-7.0,4.608
48.0,18.0,4.609
60.0,15.0,4.61
30.0,-5.0,4.611
0.0,-12.0,4.612
-29.0,-2.0,4.613
-50.0,4.0,4.614
-38.0,-6.0,4.615
-23.0,-15.0,4.616
-3.0,-12.0,4.617
11.0,-8.0,4.618
-12.0,-8.0,4.619
-35.0,-8.0,4.62
-29.0,-4.0,4.621
-3.0,-3.0,4.622
8.0,-8.0,4.623
-14.0,-4.0,4.624
-37.0,13.0,4.625
-19.0,19.0,4.626
32.0,6.0,4.627
76.0,-10.0,4.628
92.0,-8.0,4.629
94.0,5.0,4.63
87.0,17.0,4.631
53.0,24.0,4.632
-8.0,24.0,4.633
-74.0,10.0,4.634
-119.0,-13.0,4.635
-147.0,-33.0,4.636
-162.0,-41.0,4.637
-159.0,-42.0,4.638
-132.0,-39.0,4.639
-86.0,-31.0,4.64
-33.0,-19.0,4.641
12.0,-4.0,4.642
37.0,7.0,4.643
42.0,12.0,4.644
42.0,9.0,4.645
43.0,9.0,4.646
42.0,15.0,4.647
33.0,27.0,4.648
30.0,36.0,4.649
29.0,35.0,4.65
15.0,30.0,4.651
-8.0,24.0,4.652
-12.0,13.0,4.653
12.0,-6.0,4.654
37.0,-31.0,4.655
45.0,-40.0,4.656
45.0,-25.0,4.657
42.0,-6.0,4.658
31.0,-7.0,4.659
9.0,-25.0,4.66
-8.0,-31.0,4.661
-12.0,-10.0,4.662
-12.0,12.0,4.663
-12.0,14.0,4.664
0.0,8.0,4.665
27.0,12.0,4.666
53.0,17.0,4.667
62.0,11.0,4.668
61.0,7.0,4.669
60.0,14.0,4.67
67.0,20.0,4.671
81.0,13.0,4.672
93.0,10.0,4.673
91.0,23.0,4.674
74.0,28.0,4.675
47.0,15.0,4.676
5.0,4.0,4.677
-57.0,7.0,4.678
-106.0,13.0,4.679
-127.0,0.0,4.68
-63.0,-20.0,4.681
-17.0,-18.0,4.682
-29.0,-2.0,4.683
-37.0,6.0,4.684
-30.0,-3.0,4.685
-19.0,-18.0,4.686
1.0,-33.0,4.687
12.0,-47.0,4.688
-4.0,-58.0,4.689
-10.0,-57.0,4.69
19.0,-47.0,4.691
27.0,-29.0,4.692
-33.0,-12.0,4.693
-88.0,-4.0,4.694
-124.0,0.0,4.695
-141.0,9.0,4.696
-98.0,26.0,4.697
-54.0,37.0,4.698
-19.0,36.0,4.699
-15.0,25.0,4.7
-11.0,11.0,4.701
16.0,9.0,4.702
54.0,10.0,4.703
75.0,13.0,4.704
72.0,14.0,4.705
60.0,8.0,4.706
52.0,-3.0,4.707
47.0,-12.0,4.708
37.0,-10.0,4.709
27.0,-1.0,4.71
27.0,8.0,4.711
35.0,8.0,4.712
33.0,2.0,4.713
19.0,3.0,4.714
11.0,9.0,4.715
25.0,7.0,4.716
48.0,-5.0,4.717
55.0,-18.0,4.718
51.0,-11.0,4.719
47.0,5.0,4.72
30.0,14.0,4.721
-13.0,19.0,4.722
-54.0,28.0,4.723
-56.0,37.0,4.724
-23.0,34.0,4.725
0.0,11.0,4.726
-9.0,-21.0,4.727
-25.0,-45.0,4.728
-24.0,-49.0,4.729
-8.0,-36.0,4.73
9.0,-23.0,4.731
18.0,-22.0,4.732
14.0,-26.0,4.733
0.0,-23.0,4.734
-12.0,-11.0,4.735
-2.0,-1.0,4.736
37.0,2.0,4.737
91.0,0.0,4.738
126.0,7.0,4.739
111.0,22.0,4.74
57.0,39.0,4.741
19.0,53.0,4.742
27.0,63.0,4.743
48.0,67.0,4.744
18.0,60.0,4.745
-58.0,40.0,4.746
-123.0,12.0,4.747
-147.0,-12.0,4.748
-162.0,-25.0,4.749
-179.0,-35.0,4.75
-169.0,-50.0,4.751
-128.0,-64.0,4.752
-105.0,-65.0,4.753
-115.0,-56.0,4.754
-106.0,-49.0,4.755
-53.0,-48.0,4.756
-4.0,-41.0,4.757
17.0,-29.0,4.758
36.0,-14.0,4.759
74.0,-5.0,4.76
108.0,3.0,4.761
131.0,15.0,4.762
188.0,30.0,4.763
279.0,41.0,4.764
322.0,50.0,4.765
251.0,56.0,4.766
113.0,56.0,4.767
-5.0,48.0,4.768
-70.0,44.0,4.769
-96.0,44.0,4.77
-96.0,33.0,4.771
-76.0,-1.0,4.772
-58.0,-41.0,4.773
-57.0,-66.0,4.774
-66.0,-73.0,4.775
-84.0,-76.0,4.776
-110.0,-76.0,4.777
-131.0,-67.0,4.778
-118.0,-50.0,4.779
-87.0,-34.0,4.78
-76.0,-24.0,4.781
-76.0,-6.0,4.782
-30.0,22.0,4.783
52.0,42.0,4.784
112.0,48.0,4.785
142.0,49.0,4.786
190.0,50.0,4.787
264.0,55.0,4.788
305.0,58.0,4.789
279.0,60.0,4.79
205.0,56.0,4.791
84.0,49.0,4.792
-74.0,38.0,4.793
-195.0,23.0,4.794
-202.0,1.0,4.795
-144.0,-13.0,4.796
-136.0,-13.0,4.797
-222.0,-16.0,4.798
-316.0,-46.0,4.799
-323.0,-89.0,4.8
-226.0,-107.0,4.801
-88.0,-81.0,4.802
18.0,-50.0,4.803
60.0,-42.0,4.804
80.0,-36.0,4.805
146.0,-7.0,4.806
241.0,29.0,4.807
262.0,38.0,4.808
167.0,31.0,4.809
52.0,30.0,4.81
8.0,38.0,4.811
18.0,43.0,4.812
23.0,38.0,4.813
20.0,33.0,4.814
15.0,26.0,4.815
-10.0,16.0,4.816
-37.0,9.0,4.817
-24.0,0.0,4.818
39.0,-11.0,4.819
77.0,-22.0,4.82
62.0,-25.0,4.821
23.0,-21.0,4.822
-23.0,-21.0,4.823
-100.0,-24.0,4.824
-147.0,-17.0,4.825
-73.0,-2.0,4.826
69.0,10.0,4.827
113.0,10.0,4.828
25.0,3.0,4.829
-41.0,-6.0,4.83
15.0,-19.0,4.831
93.0,-26.0,4.832
76.0,-18.0,4.833
0.0,-2.0,4.834
-41.0,7.0,4.835
-49.0,10.0,4.836
-65.0,23.0,4.837
-74.0,35.0,4.838
-51.0,35.0,4.839
-47.0,30.0,4.84
-104.0,16.0,4.841
-141.0,8.0,4.842
-119.0,17.0,4.843
-82.0,19.0,4.844
3.0,0.0,4.845
93.0,-15.0,4.846
196.0,-16.0,4.847
279.0,-13.0,4.848
299.0,5.0,4.849
269.0,22.0,4.85
90.0,30.0,4.851
-53.0,35.0,4.852
-85.0,33.0,4.853
-119.0,16.0,4.854
-157.0,-46.0,4.855
-187.0,-93.0,4.856
-187.0,-90.0,4.857
-150.0,-79.0,4.858
24.0,-39.0,4.859
199.0,-2.0,4.86
274.0,23.0,4.861
214.0,27.0,4.862
61.0,17.0,4.863
-96.0,20.0,4.864
-199.0,38.0,4.865
-241.0,41.0,4.866
-248.0,13.0,4.867
-229.0,-22.0,4.868
-168.0,-44.0,4.869
-63.0,-58.0,4.87
57.0,-64.0,4.871
140.0,-47.0,4.872
163.0,-12.0,4.873
136.0,14.0,4.874
74.0,21.0,4.875
-10.0,31.0,4.876
-74.0,53.0,4.877
-70.0,64.0,4.878
-4.0,45.0,4.879
32.0,9.0,4.88
5.0,-16.0,4.881
8.0,-19.0,4.882
123.0,-18.0,4.883
270.0,-23.0,4.884
295.0,-25.0,4.885
188.0,-14.0,4.886
80.0,5.0,4.887
44.0,26.0,4.888
33.0,36.0,4.889
5.0,42.0,4.89
-2.0,51.0,4.891
48.0,58.0,4.892
119.0,49.0,4.893
145.0,22.0,4.894
92.0,1.0,4.895
0.0,17.0,4.896
-48.0,58.0,4.897
-12.0,75.0,4.898
30.0,48.0,4.899
-38.0,-1.0,4.9
-199.0,-42.0,4.901
-295.0,-60.0,4.902
-257.0,-68.0,4.903
-205.0,-65.0,4.904
-258.0,-57.0,4.905
-341.0,-63.0,4.906
-318.0,-83.0,4.907
-182.0,-89.0,4.908
-22.0,-57.0,4.909
113.0,-15.0,4.91
203.0,-1.0,4.911
221.0,-4.0,4.912
180.0,13.0,4.913
158.0,37.0,4.914
172.0,29.0,4.915
159.0,-1.0,4.916
121.0,-7.0,4.917
158.0,15.0,4.918
297.0,32.0,4.919
360.0,28.0,4.92
191.0,28.0,4.921
-87.0,43.0,4.922
-222.0,38.0,4.923
-179.0,2.0,4.924
-133.0,-25.0,4.925
-178.0,-32.0,4.926
-225.0,-49.0,4.927
-209.0,-82.0,4.928
-173.0,-84.0,4.929
-139.0,-36.0,4.93
-81.0,26.0,4.931
-43.0,54.0,4.932
-98.0,55.0,4.933
-184.0,57.0,4.934
-148.0,58.0,4.935
12.0,43.0,4.936
158.0,22.0,4.937
239.0,0.0,4.938
307.0,-15.0,4.939
360.0,-37.0,4.94
299.0,-55.0,4.941
105.0,-36.0,4.942
-90.0,20.0,4.943
-179.0,70.0,4.944
-180.0,71.0,4.945
-158.0,18.0,4.946
-133.0,-55.0,4.947
-103.0,-114.0,4.948
-63.0,-132.0,4.949
4.0,-101.0,4.95
106.0,-34.0,4.951
192.0,32.0,4.952
197.0,70.0,4.953
134.0,81.0,4.954
52.0,71.0,4.955
-46.0,36.0,4.956
-150.0,-12.0,4.957
-202.0,-56.0,4.958
-141.0,-61.0,4.959
-24.0,-31.0,4.96
48.0,2.0,4.961
77.0,34.0,4.962
136.0,61.0,4.963
203.0,80.0,4.964
189.0,86.0,4.965
92.0,85.0,4.966
27.0,82.0,4.967
49.0,59.0,4.968
69.0,9.0,4.969
-30.0,-47.0,4.97
-212.0,-76.0,4.971
-298.0,-80.0,4.972
-173.0,-75.0,4.973
49.0,-54.0,4.974
153.0,-4.0,4.975
100.0,57.0,4.976
50.0,96.0,4.977
100.0,105.0,4.978
169.0,101.0,4.979
151.0,90.0,4.98
84.0,55.0,4.981
31.0,-14.0,4.982
-39.0,-92.0,4.983
-147.0,-126.0,4.984
-217.0,-103.0,4.985
-195.0,-72.0,4.986
-137.0,-89.0,4.987
-86.0,-132.0,4.988
-10.0,-132.0,4.989
86.0,-81.0,4.99
114.0,-30.0,4.991
37.0,-6.0,4.992
-75.0,24.0,4.993
-162.0,82.0,4.994
-229.0,132.0,4.995
-276.0,145.0,4.996
-263.0,133.0,4.997
-163.0,102.0,4.998
32.0,50.0,4.999
312.0,-8.0,5.0
576.0,-39.0,5.001
624.0,-29.0,5.002
372.0,-14.0,5.003
12.0,-22.0,5.004
-193.0,-43.0,5.005
-214.0,-57.0,5.006
-207.0,-71.0,5.007
-231.0,-102.0,5.008
-207.0,-141.0,5.009
-108.0,-145.0,5.01
-9.0,-81.0,5.011
58.0,18.0,5.012
138.0,84.0,5.013
215.0,85.0,5.014
215.0,70.0,5.015
133.0,99.0,5.016
84.0,153.0,5.017
149.0,176.0,5.018
265.0,146.0,5.019
268.0,86.0,5.02
102.0,17.0,5.021
-102.0,-48.0,5.022
-176.0,-91.0,5.023
-128.0,-94.0,5.024
-113.0,-78.0,5.025
-209.0,-70.0,5.026
-321.0,-72.0,5.027
-364.0,-56.0,5.028
-382.0,-16.0,5.029
-390.0,20.0,5.03
-267.0,8.0,5.031
36.0,-57.0,5.032
307.0,-126.0,5.033
306.0,-142.0,5.034
114.0,-99.0,5.035
8.0,-40.0,5.036
61.0,2.0,5.037
-116.0,-21.0,5.038
-187.0,-62.0,5.039
-260.0,-103.0,5.04
-337.0,-138.0,5.041
-361.0,-161.0,5.042
-226.0,-145.0,5.043
-81.0,-118.0,5.044
90.0,-55.0,5.045
252.0,5.0,5.046
386.0,62.0,5.047
406.0,101.0,5.048
78.0,87.0,5.049
-166.0,69.0,5.05
-160.0,35.0,5.051
-153.0,6.0,5.052
-153.0,-13.0,5.053
-161.0,-33.0,5.054
-195.0,-57.0,5.055
-190.0,-72.0,5.056
-65.0,-57.0,5.057
-104.0,-12.0,5.058
-150.0,-81.0,5.059
-197.0,-147.0,5.06
-247.0,-205.0,5.061
-263.0,-242.0,5.062
-175.0,-216.0,5.063
-81.0,-172.0,5.064
31.0,-70.0,5.065
136.0,29.0,5.066
223.0,122.0,5.067
236.0,186.0,5.068
23.0,163.0,5.069
-136.0,133.0,5.07
-132.0,79.0,5.071
-128.0,31.0,5.072
-128.0,0.0,5.073
-133.0,-33.0,5.074
-155.0,-73.0,5.075
-152.0,-97.0,5.076
-70.0,-73.0,5.077
19.0,-36.0,5.078
107.0,11.0,5.079
148.0,17.0,5.08
190.0,14.0,5.081
254.0,27.0,5.082
280.0,20.0,5.083
223.0,4.0,5.084
163.0,34.0,5.085
179.0,102.0,5.086
204.0,126.0,5.087
114.0,75.0,5.088
-90.0,19.0,5.089
-289.0,17.0,5.09
-399.0,31.0,5.091
-415.0,16.0,5.092
-329.0,-4.0,5.093
-154.0,3.0,5.094
50.0,19.0,5.095
220.0,12.0,5.096
333.0,-12.0,5.097
-65.0,-60.0,5.098
-37.0,-132.0,5.099
13.0,-196.0,5.1
127.0,-204.0,5.101
215.0,-163.0,5.102
216.0,-143.0,5.103
204.0,-167.0,5.104
146.0,-168.0,5.105
83.0,-100.0,5.106
6.0,-10.0,5.107
-64.0,42.0,5.108
-111.0,68.0,5.109
-94.0,110.0,5.11
119.0,158.0,5.111
238.0,166.0,5.112
74.0,124.0,5.113
-81.0,69.0,5.114
-217.0,42.0,5.115
-289.0,62.0,5.116
-169.0,110.0,5.117
-59.0,146.0,5.118
-33.0,150.0,5.119
13.0,151.0,5.12
119.0,166.0,5.121
200.0,161.0,5.122
201.0,90.0,5.123
190.0,-6.0,5.124
136.0,-47.0,5.125
78.0,-29.0,5.126
6.0,-9.0,5.127
-58.0,0.0,5.128
-102.0,39.0,5.129
-86.0,98.0,5.13
111.0,101.0,5.131
221.0,10.0,5.132
70.0,-112.0,5.133
-74.0,-194.0,5.134
-199.0,-228.0,5.135
-266.0,-231.0,5.136
-155.0,-202.0,5.137
25.0,-136.0,5.138
400.0,-72.0,5.139
505.0,-48.0,5.14
223.0,-47.0,5.141
-162.0,-29.0,5.142
-326.0,-9.0,5.143
-253.0,-34.0,5.144
-143.0,-80.0,5.145
-115.0,-74.0,5.146
-134.0,-18.0,5.147
-117.0,2.0,5.148
-64.0,-42.0,5.149
-46.0,-60.0,5.15
-82.0,11.0,5.151
-94.0,89.0,5.152
-27.0,72.0,5.153
49.0,-6.0,5.154
45.0,-42.0,5.155
-10.0,-13.0,5.156
-43.0,21.0,5.157
-81.0,40.0,5.158
-142.0,80.0,5.159
-158.0,135.0,5.16
-78.0,142.0,5.161
52.0,91.0,5.162
177.0,37.0,5.163
274.0,32.0,5.164
302.0,52.0,5.165
238.0,57.0,5.166
158.0,44.0,5.167
140.0,47.0,5.168
114.0,79.0,5.169
2.0,111.0,5.17
-87.0,109.0,5.171
-9.0,70.0,5.172
142.0,26.0,5.173
166.0,5.0,5.174
73.0,-4.0,5.175
29.0,-22.0,5.176
39.0,-52.0,5.177
-49.0,-261.0,5.178
-219.0,-264.0,5.179
-330.0,-246.0,5.18
-258.0,-162.0,5.181
-177.0,-89.0,5.182
-71.0,-54.0,5.183
47.0,-47.0,5.184
200.0,-124.0,5.185
262.0,-191.0,5.186
44.0,-221.0,5.187
-122.0,-236.0,5.188
-135.0,-204.0,5.189
-103.0,-132.0,5.19
69.0,52.0,5.191
202.0,224.0,5.192
215.0,343.0,5.193
188.0,405.0,5.194
42.0,291.0,5.195
-65.0,204.0,5.196
-53.0,196.0,5.197
-19.0,-190.0,5.198
51.0,-192.0,5.199
82.0,-180.0,5.2
102.0,-120.0,5.201
78.0,-70.0,5.202
-28.0,-45.0,5.203
-154.0,-40.0,5.204
-203.0,-94.0,5.205
-183.0,-141.0,5.206
-168.0,-162.0,5.207
-159.0,-173.0,5.208
-94.0,-150.0,5.209
10.0,-99.0,5.21
51.0,29.0,5.211
-10.0,149.0,5.212
-85.0,232.0,5.213
-66.0,276.0,5.214
40.0,196.0,5.215
126.0,135.0,5.216
116.0,130.0,5.217
27.0,-143.0,5.218
-41.0,-144.0,5.219
-22.0,-135.0,5.22
63.0,-93.0,5.221
137.0,-57.0,5.222
149.0,-39.0,5.223
105.0,-36.0,5.224
58.0,-74.0,5.225
42.0,-108.0,5.226
48.0,-123.0,5.227
52.0,-130.0,5.228
50.0,-114.0,5.229
55.0,-78.0,5.23
63.0,13.0,5.231
34.0,99.0,5.232
-49.0,159.0,5.233
-148.0,190.0,5.234
-195.0,132.0,5.235
-162.0,89.0,5.236
-70.0,85.0,5.237
48.0,-207.0,5.238
135.0,-209.0,5.239
135.0,-196.0,5.24
56.0,-130.0,5.241
-28.0,-75.0,5.242
-43.0,-48.0,5.243
5.0,-42.0,5.244
68.0,-102.0,5.245
117.0,-154.0,5.246
136.0,-177.0,5.247
109.0,-188.0,5.248
44.0,-163.0,5.249
-14.0,-107.0,5.25
-46.0,34.0,5.251
-91.0,167.0,5.252
-167.0,260.0,5.253
-222.0,308.0,5.254
-221.0,219.0,5.255
-212.0,152.0,5.256
-219.0,146.0,5.257
-185.0,-120.0,5.258
-80.0,-121.0,5.259
14.0,-114.0,5.26
22.0,-80.0,5.261
7.0,-51.0,5.262
65.0,-37.0,5.263
163.0,-34.0,5.264
206.0,-65.0,5.265
194.0,-92.0,5.266
169.0,-104.0,5.267
122.0,-110.0,5.268
33.0,-97.0,5.269
-51.0,-68.0,5.27
-74.0,6.0,5.271
-54.0,75.0,5.272
-40.0,123.0,5.273
-30.0,148.0,5.274
11.0,102.0,5.275
80.0,67.0,5.276
133.0,64.0,5.277
131.0,49.0,5.278
75.0,-10.0,5.279
8.0,-39.0,5.28
-20.0,-18.0,5.281
-14.0,3.0,5.282
-24.0,-28.0,5.283
-55.0,-83.0,5.284
-61.0,-96.0,5.285
-25.0,-62.0,5.286
7.0,-31.0,5.287
10.0,-18.0,5.288
0.0,-2.0,5.289
6.0,14.0,5.29
14.0,4.0,5.291
18.0,-16.0,5.292
30.0,-2.0,5.293
35.0,42.0,5.294
12.0,68.0,5.295
-19.0,57.0,5.296
-23.0,47.0,5.297
-6.0,42.0,5.298
-3.0,32.0,5.299
-16.0,22.0,5.3
-6.0,13.0,5.301
21.0,-2.0,5.302
13.0,-37.0,5.303
-33.0,-63.0,5.304
-59.0,-59.0,5.305
-33.0,-48.0,5.306
8.0,-21.0,5.307
25.0,0.0,5.308
22.0,-2.0,5.309
12.0,3.0,5.31
-12.0,39.0,5.311
-40.0,62.0,5.312
-42.0,47.0,5.313
-12.0,34.0,5.314
16.0,27.0,5.315
31.0,15.0,5.316
44.0,-7.0,5.317
45.0,-30.0,5.318
17.0,-29.0,5.319
-17.0,11.0,5.32
-10.0,71.0,5.321
26.0,121.0,5.322
32.0,128.0,5.323
0.0,92.0,5.324
-20.0,43.0,5.325
-9.0,6.0,5.326
-3.0,-19.0,5.327
-19.0,-45.0,5.328
-19.0,-58.0,5.329
7.0,-46.0,5.33
18.0,-24.0,5.331
-4.0,-18.0,5.332
-30.0,-31.0,5.333
-29.0,-48.0,5.334
-6.0,-55.0,5.335
32.0,-49.0,5.336
74.0,-43.0,5.337
101.0,-9.0,5.338
92.0,-52.0,5.339
57.0,-71.0,5.34
22.0,-17.0,5.341
-6.0,21.0,5.342
-37.0,17.0,5.343
-71.0,14.0,5.344
-95.0,12.0,5.345
-101.0,15.0,5.346
-89.0,34.0,5.347
-50.0,51.0,5.348
14.0,64.0,5.349
77.0,75.0,5.35
103.0,78.0,5.351
71.0,78.0,5.352
1.0,61.0,5.353
-51.0,42.0,5.354
-32.0,22.0,5.355
46.0,-2.0,5.356
107.0,-47.0,5.357
103.0,1.0,5.358
61.0,-26.0,5.359
25.0,-38.0,5.36
0.0,-4.0,5.361
-32.0,20.0,5.362
-61.0,17.0,5.363
-68.0,15.0,5.364
-67.0,14.0,5.365
-71.0,16.0,5.366
-65.0,28.0,5.367
-44.0,39.0,5.368
-38.0,47.0,5.369
-54.0,54.0,5.37
-48.0,56.0,5.371
8.0,56.0,5.372
70.0,45.0,5.373
76.0,33.0,5.374
42.0,21.0,5.375
22.0,5.0,5.376
31.0,-23.0,5.377
36.0,-49.0,5.378
25.0,-59.0,5.379
8.0,-38.0,5.38
2.0,-9.0,5.381
5.0,5.0,5.382
14.0,3.0,5.383
20.0,5.0,5.384
15.0,19.0,5.385
1.0,27.0,5.386
-11.0,18.0,5.387
-20.0,5.0,5.388
-34.0,10.0,5.389
-53.0,30.0,5.39
-57.0,47.0,5.391
-34.0,54.0,5.392
14.0,56.0,5.393
70.0,55.0,5.394
107.0,40.0,5.395
97.0,8.0,5.396
48.0,-29.0,5.397
2.0,-50.0,5.398
0.0,-50.0,5.399
27.0,-46.0,5.4
37.0,-69.0,5.401
19.0,-102.0,5.402
5.0,-111.0,5.403
0.0,-76.0,5.404
-19.0,-22.0,5.405
-56.0,11.0,5.406
-82.0,18.0,5.407
-68.0,29.0,5.408
-13.0,50.0,5.409
56.0,63.0,5.41
94.0,51.0,5.411
78.0,34.0,5.412
46.0,29.0,5.413
50.0,25.0,5.414
56.0,9.0,5.415
-21.0,-1.0,5.416
-144.0,20.0,5.417
-186.0,65.0,5.418
-85.0,95.0,5.419
32.0,64.0,5.42
31.0,-31.0,5.421
-48.0,-135.0,5.422
-84.0,-188.0,5.423
-48.0,-168.0,5.424
16.0,-109.0,5.425
78.0,-61.0,5.426
118.0,-40.0,5.427
97.0,-32.0,5.428
29.0,-17.0,5.429
-12.0,7.0,5.43
1.0,31.0,5.431
15.0,42.0,5.432
-7.0,37.0,5.433
-24.0,30.0,5.434
-6.0,31.0,5.435
15.0,40.0,5.436
10.0,47.0,5.437
-4.0,42.0,5.438
-1.0,35.0,5.439
8.0,34.0,5.44
7.0,29.0,5.441
2.0,20.0,5.442
2.0,11.0,5.443
2.0,10.0,5.444
7.0,16.0,5.445
14.0,17.0,5.446
11.0,8.0,5.447
-5.0,0.0,5.448
-14.0,2.0,5.449
-2.0,8.0,5.45
4.0,11.0,5.451
-18.0,15.0,5.452
-49.0,31.0,5.453
-50.0,49.0,5.454
-13.0,64.0,5.455
31.0,74.0,5.456
63.0,79.0,5.457
90.0,56.0,5.458
111.0,-7.0,5.459
90.0,-95.0,5.46
2.0,-155.0,5.461
-114.0,-150.0,5.462
-171.0,-102.0,5.463
-138.0,-53.0,5.464
-87.0,-12.0,5.465
-83.0,31.0,5.466
-96.0,67.0,5.467
-47.0,74.0,5.468
71.0,53.0,5.469
190.0,23.0,5.47
257.0,-21.0,5.471
251.0,-92.0,5.472
159.0,-164.0,5.473
11.0,-177.0,5.474
-99.0,-115.0,5.475
-105.0,-31.0,5.476
-63.0,16.0,5.477
-63.0,21.0,5.478
-98.0,15.0,5.479
-98.0,16.0,5.48
-43.0,37.0,5.481
5.0,56.0,5.482
20.0,72.0,5.483
30.0,82.0,5.484
52.0,72.0,5.485
65.0,57.0,5.486
60.0,27.0,5.487
45.0,-4.0,5.488
26.0,-38.0,5.489
8.0,-54.0,5.49
3.0,-12.0,5.491
5.0,17.0,5.492
-8.0,10.0,5.493
-26.0,5.0,5.494
-15.0,9.0,5.495
17.0,13.0,5.496
30.0,13.0,5.497
11.0,10.0,5.498
-7.0,11.0,5.499
-14.0,24.0,5.5
-27.0,29.0,5.501
-44.0,24.0,5.502
-36.0,21.0,5.503
-19.0,26.0,5.504
-29.0,28.0,5.505
-49.0,21.0,5.506
-34.0,13.0,5.507
8.0,10.0,5.508
25.0,4.0,5.509
18.0,-5.0,5.51
37.0,-16.0,5.511
76.0,-24.0,5.512
70.0,-27.0,5.513
18.0,-21.0,5.514
-12.0,-5.0,5.515
5.0,7.0,5.516
10.0,0.0,5.517
-30.0,-36.0,5.518
-62.0,-78.0,5.519
-52.0,-98.0,5.52
-43.0,-90.0,5.521
-60.0,-66.0,5.522
-45.0,-46.0,5.523
32.0,-25.0,5.524
99.0,1.0,5.525
90.0,22.0,5.526
50.0,13.0,5.527
45.0,-10.0,5.528
44.0,-15.0,5.529
-2.0,4.0,5.53
-51.0,23.0,5.531
-36.0,26.0,5.532
16.0,23.0,5.533
36.0,30.0,5.534
27.0,31.0,5.535
28.0,20.0,5.536
39.0,8.0,5.537
27.0,6.0,5.538
-5.0,13.0,5.539
-26.0,22.0,5.54
-26.0,27.0,5.541
-17.0,36.0,5.542
-5.0,41.0,5.543
6.0,41.0,5.544
15.0,35.0,5.545
43.0,29.0,5.546
95.0,20.0,5.547
116.0,16.0,5.548
56.0,15.0,5.549
-43.0,13.0,5.55
-95.0,10.0,5.551
-90.0,10.0,5.552
-91.0,11.0,5.553
-120.0,-1.0,5.554
-123.0,-23.0,5.555
-68.0,-30.0,5.556
4.0,-19.0,5.557
47.0,-20.0,5.558
48.0,-44.0,5.559
30.0,-72.0,5.56
35.0,-74.0,5.561
96.0,-49.0,5.562
176.0,-22.0,5.563
175.0,0.0,5.564
56.0,26.0,5.565
-89.0,63.0,5.566
-145.0,101.0,5.567
-121.0,123.0,5.568
-92.0,99.0,5.569
-83.0,22.0,5.57
-70.0,-62.0,5.571
-51.0,-95.0,5.572
-38.0,-74.0,5.573
-17.0,-59.0,5.574
16.0,-84.0,5.575
28.0,-102.0,5.576
11.0,-67.0,5.577
-1.0,-5.0,5.578
20.0,11.0,5.579
41.0,-18.0,5.58
36.0,-32.0,5.581
24.0,1.0,5.582
37.0,38.0,5.583
73.0,38.0,5.584
111.0,25.0,5.585
131.0,24.0,5.586
114.0,21.0,5.587
57.0,6.0,5.588
2.0,-1.0,5.589
-23.0,10.0,5.59
-34.0,11.0,5.591
-47.0,-2.0,5.592
-37.0,-7.0,5.593
-7.0,5.0,5.594
3.0,9.0,5.595
-19.0,-1.0,5.596
-25.0,-2.0,5.597
2.0,12.0,5.598
25.0,22.0,5.599
4.0,7.0,5.6
-22.0,-11.0,5.601
-13.0,-8.0,5.602
7.0,3.0,5.603
6.0,7.0,5.604
11.0,9.0,5.605
55.0,19.0,5.606
100.0,30.0,5.607
99.0,35.0,5.608
57.0,36.0,5.609
9.0,37.0,5.61
-33.0,32.0,5.611
-72.0,13.0,5.612
-91.0,-20.0,5.613
-94.0,-63.0,5.614
-112.0,-90.0,5.615
-133.0,-81.0,5.616
-104.0,-44.0,5.617
-25.0,-13.0,5.618
20.0,-8.0,5.619
-16.0,-6.0,5.62
-63.0,17.0,5.621
-44.0,46.0,5.622
11.0,46.0,5.623
52.0,30.0,5.624
90.0,33.0,5.625
146.0,52.0,5.626
164.0,55.0,5.627
98.0,39.0,5.628
2.0,34.0,5.629
-48.0,37.0,5.63
-58.0,15.0,5.631
-72.0,-35.0,5.632
-78.0,-81.0,5.633
-37.0,-87.0,5.634
28.0,-64.0,5.635
60.0,-43.0,5.636
53.0,-40.0,5.637
33.0,-41.0,5.638
25.0,-23.0,5.639
21.0,6.0,5.64
10.0,9.0,5.641
-14.0,-21.0,5.642
-46.0,-55.0,5.643
-59.0,-49.0,5.644
-36.0,-9.0,5.645
5.0,22.0,5.646
25.0,23.0,5.647
25.0,11.0,5.648
35.0,11.0,5.649
68.0,20.0,5.65
86.0,17.0,5.651
55.0,0.0,5.652
-5.0,-16.0,5.653
-50.0,-22.0,5.654
-52.0,-11.0,5.655
-31.0,4.0,5.656
-13.0,12.0,5.657
-16.0,13.0,5.658
-24.0,18.0,5.659
-25.0,36.0,5.66
-6.0,51.0,5.661
19.0,58.0,5.662
29.0,56.0,5.663
25.0,57.0,5.664
17.0,52.0,5.665
8.0,35.0,5.666
-1.0,11.0,5.667
2.0,1.0,5.668
37.0,6.0,5.669
92.0,9.0,5.67
127.0,3.0,5.671
110.0,-5.0,5.672
52.0,-7.0,5.673
-7.0,-6.0,5.674
-43.0,-6.0,5.675
-53.0,-5.0,5.676
-48.0,-3.0,5.677
-35.0,-4.0,5.678
-21.0,-13.0,5.679
-14.0,-26.0,5.68
-31.0,-36.0,5.681
-45.0,-31.0,5.682
-43.0,-15.0,5.683
-38.0,-5.0,5.684
-24.0,-10.0,5.685
-28.0,-29.0,5.686
-85.0,-45.0,5.687
-119.0,-46.0,5.688
-83.0,-32.0,5.689
-35.0,-15.0,5.69
49.0,-9.0,5.691
101.0,-16.0,5.692
59.0,-21.0,5.693
17.0,-16.0,5.694
-28.0,-2.0,5.695
-45.0,11.0,5.696
28.0,21.0,5.697
103.0,25.0,5.698
151.0,16.0,5.699
111.0,-12.0,5.7
5.0,-43.0,5.701
-101.0,-46.0,5.702
-136.0,-20.0,5.703
-94.0,0.0,5.704
-44.0,-10.0,5.705
-49.0,-32.0,5.706
-75.0,-30.0,5.707
-53.0,-7.0,5.708
14.0,16.0,5.709
60.0,29.0,5.71
59.0,38.0,5.711
49.0,47.0,5.712
58.0,50.0,5.713
73.0,46.0,5.714
74.0,36.0,5.715
70.0,24.0,5.716
72.0,13.0,5.717
63.0,2.0,5.718
39.0,-4.0,5.719
12.0,-7.0,5.72
-6.0,-13.0,5.721
-2.0,-20.0,5.722
23.0,-26.0,5.723
53.0,-26.0,5.724
60.0,-18.0,5.725
32.0,-7.0,5.726
-2.0,1.0,5.727
-18.0,6.0,5.728
-21.0,10.0,5.729
-36.0,13.0,5.73
-60.0,15.0,5.731
-59.0,22.0,5.732
-21.0,41.0,5.733
22.0,64.0,5.734
36.0,74.0,5.735
23.0,67.0,5.736
16.0,53.0,5.737
19.0,34.0,5.738
10.0,6.0,5.739
-25.0,-22.0,5.74
-56.0,-42.0,5.741
-48.0,-45.0,5.742
-15.0,-39.0,5.743
0.0,-33.0,5.744
-3.0,-28.0,5.745
2.0,-23.0,5.746
24.0,-23.0,5.747
33.0,-26.0,5.748
26.0,-23.0,5.749
49.0,-13.0,5.75
107.0,-5.0,5.751
130.0,1.0,5.752
65.0,7.0,5.753
-35.0,11.0,5.754
-63.0,12.0,5.755
-13.0,9.0,5.756
27.0,8.0,5.757
0.0,4.0,5.758
-63.0,0.0,5.759
-105.0,-2.0,5.76
-118.0,-4.0,5.761
-133.0,-8.0,5.762
-154.0,-14.0,5.763
-154.0,-15.0,5.764
-121.0,-10.0,5.765
-70.0,-17.0,5.766
-23.0,-39.0,5.767
14.0,-55.0,5.768
43.0,-42.0,5.769
58.0,-8.0,5.77
60.0,11.0,5.771
59.0,6.0,5.772
68.0,-6.0,5.773
85.0,-11.0,5.774
91.0,-14.0,5.775
69.0,-18.0,5.776
36.0,-16.0,5.777
13.0,-4.0,5.778
17.0,12.0,5.779
39.0,22.0,5.78
61.0,21.0,5.781
77.0,25.0,5.782
91.0,30.0,5.783
98.0,35.0,5.784
73.0,41.0,5.785
14.0,47.0,5.786
-35.0,38.0,5.787
-43.0,8.0,5.788
-26.0,-20.0,5.789
-19.0,-22.0,5.79
-14.0,-7.0,5.791
21.0,1.0,5.792
74.0,-9.0,5.793
105.0,-21.0,5.794
93.0,-22.0,5.795
46.0,-15.0,5.796
-19.0,-4.0,5.797
-88.0,11.0,5.798
-128.0,27.0,5.799
-158.0,25.0,5.8
-158.0,-2.0,5.801
-151.0,-29.0,5.802
-128.0,-38.0,5.803
-98.0,-22.0,5.804
-44.0,1.0,5.805
6.0,16.0,5.806
48.0,19.0,5.807
85.0,14.0,5.808
104.0,10.0,5.809
102.0,7.0,5.81
36.0,-1.0,5.811
-17.0,-11.0,5.812
-31.0,-20.0,5.813
-38.0,-27.0,5.814
-24.0,-33.0,5.815
-3.0,-35.0,5.816
38.0,-23.0,5.817
81.0,-4.0,5.818
101.0,15.0,5.819
74.0,31.0,5.82
23.0,38.0,5.821
-11.0,41.0,5.822
-11.0,35.0,5.823
-12.0,20.0,5.824
-39.0,4.0,5.825
-72.0,-12.0,5.826
-70.0,-28.0,5.827
-32.0,-35.0,5.828
12.0,-29.0,5.829
36.0,-15.0,5.83
49.0,0.0,5.831
70.0,14.0,5.832
107.0,28.0,5.833
147.0,37.0,5.834
150.0,39.0,5.835
88.0,37.0,5.836
-6.0,41.0,5.837
-78.0,48.0,5.838
-88.0,52.0,5.839
-65.0,41.0,5.84
-47.0,8.0,5.841
-29.0,-27.0,5.842
8.0,-55.0,5.843
43.0,-65.0,5.844
39.0,-58.0,5.845
8.0,-35.0,5.846
-15.0,-10.0,5.847
-25.0,2.0,5.848
-43.0,3.0,5.849
-63.0,2.0,5.85
-64.0,4.0,5.851
-50.0,5.0,5.852
-45.0,3.0,5.853
-47.0,-1.0,5.854
-41.0,-7.0,5.855
-30.0,-21.0,5.856
-24.0,-31.0,5.857
-19.0,-28.0,5.858
-3.0,-17.0,5.859
13.0,-17.0,5.86
23.0,-28.0,5.861
48.0,-33.0,5.862
101.0,-21.0,5.863
149.0,-2.0,5.864
136.0,17.0,5.865
63.0,34.0,5.866
-19.0,49.0,5.867
-63.0,62.0,5.868
-61.0,68.0,5.869
-27.0,56.0,5.87
19.0,11.0,5.871
52.0,-46.0,5.872
55.0,-74.0,5.873
41.0,-50.0,5.874
32.0,-1.0,5.875
26.0,30.0,5.876
6.0,31.0,5.877
-37.0,15.0,5.878
-83.0,-3.0,5.879
-110.0,-27.0,5.88
-92.0,-53.0,5.881
-32.0,-61.0,5.882
38.0,-51.0,5.883
71.0,-38.0,5.884
64.0,-23.0,5.885
50.0,0.0,5.886
26.0,19.0,5.887
-37.0,26.0,5.888
-116.0,23.0,5.889
-142.0,24.0,5.89
-100.0,21.0,5.891
-45.0,5.0,5.892
0.0,-8.0,5.893
64.0,-2.0,5.894
139.0,10.0,5.895
171.0,4.0,5.896
161.0,-8.0,5.897
154.0,-2.0,5.898
152.0,22.0,5.899
121.0,39.0,5.9
6.0,33.0,5.901
-84.0,28.0,5.902
-102.0,32.0,5.903
-126.0,34.0,5.904
-166.0,29.0,5.905
-183.0,19.0,5.906
-131.0,-6.0,5.907
-91.0,-25.0,5.908
-87.0,-26.0,5.909
-75.0,-26.0,5.91
-38.0,-20.0,5.911
0.0,-15.0,5.912
37.0,-16.0,5.913
66.0,-18.0,5.914
66.0,-16.0,5.915
67.0,-14.0,5.916
68.0,-10.0,5.917
66.0,-6.0,5.918
54.0,-1.0,5.919
49.0,2.0,5.92
36.0,6.0,5.921
5.0,10.0,5.922
-18.0,9.0,5.923
-2.0,13.0,5.924
49.0,30.0,5.925
91.0,45.0,5.926
93.0,39.0,5.927
73.0,16.0,5.928
71.0,-6.0,5.929
83.0,-15.0,5.93
76.0,-18.0,5.931
44.0,-24.0,5.932
22.0,-24.0,5.933
18.0,-15.0,5.934
-8.0,-4.0,5.935
-69.0,3.0,5.936
-127.0,5.0,5.937
-156.0,1.0,5.938
-159.0,3.0,5.939
-134.0,16.0,5.94
-65.0,25.0,5.941
16.0,19.0,5.942
47.0,-2.0,5.943
9.0,-24.0,5.944
-37.0,-37.0,5.945
-43.0,-40.0,5.946
-21.0,-35.0,5.947
-7.0,-21.0,5.948
-8.0,-4.0,5.949
-13.0,6.0,5.95
-3.0,2.0,5.951
32.0,-7.0,5.952
75.0,-19.0,5.953
80.0,-31.0,5.954
39.0,-36.0,5.955
2.0,-36.0,5.956
19.0,-32.0,5.957
66.0,-29.0,5.958
73.0,-17.0,5.959
16.0,1.0,5.96
-46.0,10.0,5.961
-59.0,9.0,5.962
-35.0,12.0,5.963
-20.0,24.0,5.964
-28.0,31.0,5.965
-31.0,24.0,5.966
-9.0,17.0,5.967
25.0,26.0,5.968
43.0,37.0,5.969
40.0,35.0,5.97
34.0,29.0,5.971
34.0,29.0,5.972
37.0,37.0,5.973
48.0,38.0,5.974
77.0,29.0,5.975
109.0,20.0,5.976
114.0,18.0,5.977
69.0,15.0,5.978
-3.0,6.0,5.979
-68.0,-10.0,5.98
-106.0,-27.0,5.981
-116.0,-29.0,5.982
-100.0,-15.0,5.983
-70.0,-6.0,5.984
-39.0,-11.0,5.985
-13.0,-16.0,5.986
11.0,-7.0,5.987
19.0,7.0,5.988
-2.0,7.0,5.989
-33.0,-1.0,5.99
-34.0,-2.0,5.991
10.0,1.0,5.992
78.0,-8.0,5.993
129.0,-27.0,5.994
141.0,-30.0,5.995
108.0,-13.0,5.996
56.0,2.0,5.997
8.0,-2.0,5.998
-7.0,-14.0,5.999
3.0,-19.0,6.0
11.0,-15.0,6.001
2.0,-7.0,6.002
-24.0,1.0,6.003
-67.0,8.0,6.004
-117.0,15.0,6.005
-135.0,21.0,6.006
-96.0,22.0,6.007
-36.0,4.0,6.008
-23.0,-31.0,6.009
-66.0,-65.0,6.01
-115.0,-68.0,6.011
-117.0,-42.0,6.012
-72.0,-13.0,6.013
-22.0,0.0,6.014
6.0,3.0,6.015
17.0,14.0,6.016
31.0,27.0,6.017
64.0,28.0,6.018
99.0,16.0,6.019
102.0,6.0,6.02
72.0,0.0,6.021
47.0,5.0,6.022
61.0,10.0,6.023
91.0,18.0,6.024
96.0,24.0,6.025
66.0,29.0,6.026
25.0,33.0,6.027
-3.0,35.0,6.028
-16.0,30.0,6.029
-11.0,15.0,6.03
19.0,3.0,6.031
66.0,2.0,6.032
103.0,6.0,6.033
105.0,6.0,6.034
74.0,7.0,6.035
35.0,12.0,6.036
2.0,12.0,6.037
-34.0,-9.0,6.038
-68.0,-38.0,6.039
-82.0,-48.0,6.04
-72.0,-38.0,6.041
-66.0,-28.0,6.042
-79.0,-31.0,6.043
-95.0,-37.0,6.044
-97.0,-32.0,6.045
-81.0,-25.0,6.046
-58.0,-24.0,6.047
-36.0,-12.0,6.048
-23.0,14.0,6.049
-19.0,33.0,6.05
-18.0,20.0,6.051
-10.0,-7.0,6.052
-8.0,-16.0,6.053
-14.0,-10.0,6.054
-6.0,-12.0,6.055
25.0,-21.0,6.056
51.0,-13.0,6.057
38.0,8.0,6.058
15.0,24.0,6.059
14.0,17.0,6.06
30.0,3.0,6.061
32.0,4.0,6.062
22.0,15.0,6.063
27.0,20.0,6.064
43.0,16.0,6.065
53.0,13.0,6.066
54.0,13.0,6.067
62.0,17.0,6.068
70.0,25.0,6.069
60.0,29.0,6.07
35.0,23.0,6.071
9.0,8.0,6.072
-5.0,-5.0,6.073
-10.0,-9.0,6.074
-10.0,-8.0,6.075
-10.0,-10.0,6.076
-9.0,-8.0,6.077
2.0,2.0,6.078
29.0,13.0,6.079
55.0,13.0,6.08
47.0,3.0,6.081
7.0,-2.0,6.082
-31.0,-2.0,6.083
-43.0,-7.0,6.084
-41.0,-13.0,6.085
-26.0,-13.0,6.086
16.0,-7.0,6.087
74.0,0.0,6.088
97.0,8.0,6.089
59.0,10.0,6.09
-2.0,-2.0,6.091
-39.0,-20.0,6.092
-60.0,-24.0,6.093
-99.0,-12.0,6.094
-140.0,-9.0,6.095
-136.0,-17.0,6.096
-95.0,-13.0,6.097
-64.0,13.0,6.098
-56.0,39.0,6.099
-40.0,35.0,6.1
9.0,7.0,6.101
58.0,-10.0,6.102
75.0,-20.0,6.103
69.0,-33.0,6.104
67.0,-41.0,6.105
57.0,-30.0,6.106
26.0,-10.0,6.107
0.0,-7.0,6.108
4.0,-18.0,6.109
23.0,-26.0,6.11
19.0,-26.0,6.111
5.0,-23.0,6.112
17.0,-16.0,6.113
46.0,1.0,6.114
40.0,22.0,6.115
-12.0,29.0,6.116
-53.0,22.0,6.117
-47.0,10.0,6.118
-16.0,8.0,6.119
6.0,9.0,6.12
3.0,12.0,6.121
4.0,20.0,6.122
22.0,28.0,6.123
40.0,33.0,6.124
53.0,38.0,6.125
59.0,39.0,6.126
38.0,22.0,6.127
18.0,-9.0,6.128
3.0,-28.0,6.129
-12.0,-21.0,6.13
-27.0,-6.0,6.131
-48.0,-11.0,6.132
-85.0,-38.0,6.133
-110.0,-63.0,6.134
-98.0,-61.0,6.135
-75.0,-30.0,6.136
-20.0,0.0,6.137
29.0,5.0,6.138
38.0,-7.0,6.139
29.0,-10.0,6.14
29.0,3.0,6.141
30.0,19.0,6.142
24.0,20.0,6.143
18.0,18.0,6.144
25.0,24.0,6.145
32.0,24.0,6.146
21.0,9.0,6.147
10.0,-2.0,6.148
14.0,3.0,6.149
20.0,15.0,6.15
11.0,18.0,6.151
-4.0,9.0,6.152
-1.0,3.0,6.153
20.0,4.0,6.154
38.0,3.0,6.155
40.0,1.0,6.156
31.0,6.0,6.157
16.0,13.0,6.158
0.0,16.0,6.159
-8.0,8.0,6.16
-5.0,-6.0,6.161
7.0,-10.0,6.162
19.0,-3.0,6.163
22.0,2.0,6.164
13.0,-3.0,6.165
-1.0,-14.0,6.166
-6.0,-22.0,6.167
-2.0,-19.0,6.168
-3.0,-9.0,6.169
-15.0,-3.0,6.17
-27.0,-2.0,6.171
-22.0,5.0,6.172
0.0,24.0,6.173
22.0,39.0,6.174
39.0,29.0,6.175
57.0,-6.0,6.176
76.0,-36.0,6.177
71.0,-45.0,6.178
23.0,-33.0,6.179
-52.0,-13.0,6.18
-108.0,-3.0,6.181
-123.0,2.0,6.182
-110.0,3.0,6.183
-79.0,5.0,6.184
-19.0,10.0,6.185
62.0,10.0,6.186
116.0,0.0,6.187
102.0,-10.0,6.188
31.0,-15.0,6.189
-43.0,-14.0,6.19
-88.0,-10.0,6.191
-100.0,-3.0,6.192
-94.0,3.0,6.193
-77.0,0.0,6.194
-44.0,-6.0,6.195
2.0,-8.0,6.196
50.0,-7.0,6.197
72.0,-12.0,6.198
56.0,-12.0,6.199
21.0,-9.0,6.2
1.0,-2.0,6.201
1.0,6.0,6.202
3.0,20.0,6.203
7.0,37.0,6.204
22.0,57.0,6.205
44.0,64.0,6.206
57.0,29.0,6.207
54.0,5.0,6.208
52.0,13.0,6.209
56.0,13.0,6.21
52.0,-9.0,6.211
35.0,-26.0,6.212
18.0,-22.0,6.213
14.0,-18.0,6.214
14.0,-19.0,6.215
5.0,-18.0,6.216
-9.0,-11.0,6.217
-11.0,-1.0,6.218
7.0,10.0,6.219
19.0,3.0,6.22
-5.0,-9.0,6.221
-52.0,-5.0,6.222
-71.0,12.0,6.223
-42.0,26.0,6.224
0.0,22.0,6.225
25.0,-2.0,6.226
33.0,-36.0,6.227
29.0,-53.0,6.228
6.0,-42.0,6.229
-16.0,-26.0,6.23
-7.0,-22.0,6.231
19.0,-24.0,6.232
13.0,-10.0,6.233
-26.0,6.0,6.234
-50.0,7.0,6.235
-43.0,2.0,6.236
-31.0,7.0,6.237
-30.0,13.0,6.238
-11.0,8.0,6.239
27.0,-4.0,6.24
41.0,-5.0,6.241
15.0,2.0,6.242
-4.0,3.0,6.243
10.0,0.0,6.244
28.0,8.0,6.245
23.0,18.0,6.246
27.0,14.0,6.247
63.0,2.0,6.248
91.0,5.0,6.249
64.0,17.0,6.25
-11.0,19.0,6.251
-79.0,12.0,6.252
-109.0,10.0,6.253
-109.0,13.0,6.254
-90.0,3.0,6.255
-56.0,-12.0,6.256
-18.0,-18.0,6.257
7.0,-11.0,6.258
21.0,-1.0,6.259
40.0,4.0,6.26
65.0,4.0,6.261
83.0,7.0,6.262
81.0,7.0,6.263
57.0,3.0,6.264
17.0,0.0,6.265
-27.0,0.0,6.266
-45.0,-3.0,6.267
-24.0,-10.0,6.268
6.0,-16.0,6.269
0.0,-16.0,6.27
-42.0,-11.0,6.271
-68.0,-6.0,6.272
-53.0,-2.0,6.273
-27.0,1.0,6.274
-22.0,1.0,6.275
-18.0,-4.0,6.276
9.0,-11.0,6.277
46.0,-13.0,6.278
49.0,-9.0,6.279
14.0,-11.0,6.28
-16.0,-21.0,6.281
-7.0,-19.0,6.282
23.0,-2.0,6.283
42.0,13.0,6.284
36.0,15.0,6.285
24.0,10.0,6.286
26.0,16.0,6.287
49.0,28.0,6.288
84.0,34.0,6.289
103.0,31.0,6.29
86.0,22.0,6.291
41.0,15.0,6.292
-1.0,5.0,6.293
-28.0,-14.0,6.294
-60.0,-34.0,6.295
-101.0,-37.0,6.296
-121.0,-17.0,6.297
-98.0,3.0,6.298
-47.0,4.0,6.299
-17.0,-9.0,6.3
-10.0,-19.0,6.301
12.0,-17.0,6.302
61.0,-13.0,6.303
96.0,-10.0,6.304
85.0,-5.0,6.305
42.0,2.0,6.306
2.0,4.0,6.307
-15.0,2.0,6.308
-19.0,5.0,6.309
-13.0,12.0,6.31
-6.0,15.0,6.311
-8.0,13.0,6.312
-23.0,8.0,6.313
-44.0,0.0,6.314
-54.0,-9.0,6.315
-37.0,-16.0,6.316
-8.0,-15.0,6.317
1.0,-2.0,6.318
-22.0,15.0,6.319
-42.0,24.0,6.32
-9.0,8.0,6.321
69.0,-12.0,6.322
131.0,-14.0,6.323
129.0,0.0,6.324
92.0,14.0,6.325
71.0,15.0,6.326
75.0,13.0,6.327
70.0,16.0,6.328
35.0,19.0,6.329
-10.0,13.0,6.33
-46.0,-3.0,6.331
-77.0,-24.0,6.332
-113.0,-43.0,6.333
-136.0,-50.0,6.334
-130.0,-39.0,6.335
-99.0,-21.0,6.336
-67.0,-8.0,6.337
-41.0,-4.0,6.338
-14.0,-2.0,6.339
7.0,0.0,6.34
17.0,-3.0,6.341
23.0,-6.0,6.342
41.0,-4.0,6.343
62.0,10.0,6.344
63.0,27.0,6.345
43.0,36.0,6.346
25.0,34.0,6.347
22.0,27.0,6.348
32.0,23.0,6.349
49.0,16.0,6.35
55.0,3.0,6.351
27.0,-12.0,6.352
-23.0,-15.0,6.353
-49.0,-3.0,6.354
-36.0,11.0,6.355
-15.0,11.0,6.356
-11.0,3.0,6.357
-9.0,-5.0,6.358
20.0,-7.0,6.359
70.0,-14.0,6.36
112.0,-24.0,6.361
106.0,-19.0,6.362
35.0,-2.0,6.363
-74.0,9.0,6.364
-149.0,10.0,6.365
-147.0,7.0,6.366
-100.0,6.0,6.367
-60.0,1.0,6.368
-21.0,-5.0,6.369
36.0,-10.0,6.37
78.0,-12.0,6.371
61.0,-13.0,6.372
24.0,-6.0,6.373
26.0,10.0,6.374
53.0,26.0,6.375
47.0,27.0,6.376
11.0,21.0,6.377
-12.0,13.0,6.378
-12.0,15.0,6.379
-19.0,17.0,6.38
-24.0,12.0,6.381
1.0,7.0,6.382
39.0,4.0,6.383
38.0,3.0,6.384
22.0,0.0,6.385
63.0,-6.0,6.386
158.0,-16.0,6.387
209.0,-23.0,6.388
146.0,-25.0,6.389
17.0,-27.0,6.39
-81.0,-32.0,6.391
-105.0,-34.0,6.392
-82.0,-26.0,6.393
-60.0,-16.0,6.394
-52.0,-24.0,6.395
-45.0,-44.0,6.396
-39.0,-51.0,6.397
-49.0,-11.0,6.398
-74.0,11.0,6.399
-72.0,21.0,6.4
-18.0,-3.0,6.401
26.0,-20.0,6.402
-11.0,-9.0,6.403
-96.0,-1.0,6.404
-124.0,1.0,6.405
-63.0,3.0,6.406
3.0,-3.0,6.407
-3.0,-11.0,6.408
-50.0,-20.0,6.409
-66.0,-22.0,6.41
-29.0,9.0,6.411
32.0,32.0,6.412
84.0,23.0,6.413
108.0,15.0,6.414
88.0,23.0,6.415
39.0,28.0,6.416
1.0,34.0,6.417
-8.0,-4.0,6.418
4.0,8.0,6.419
21.0,13.0,6.42
42.0,0.0,6.421
62.0,-9.0,6.422
62.0,-3.0,6.423
45.0,1.0,6.424
30.0,2.0,6.425
20.0,3.0,6.426
10.0,0.0,6.427
20.0,-4.0,6.428
62.0,-9.0,6.429
87.0,-10.0,6.43
38.0,7.0,6.431
-55.0,19.0,6.432
-98.0,14.0,6.433
-64.0,10.0,6.434
2.0,14.0,6.435
57.0,17.0,6.436
96.0,20.0,6.437
111.0,21.0,6.438
74.0,13.0,6.439
2.0,3.0,6.44
-47.0,-13.0,6.441
-54.0,-30.0,6.442
-50.0,-39.0,6.443
-51.0,-42.0,6.444
-44.0,-39.0,6.445
-29.0,-31.0,6.446
-16.0,-18.0,6.447
7.0,-2.0,6.448
44.0,16.0,6.449
56.0,34.0,6.45
19.0,37.0,6.451
-35.0,25.0,6.452
-61.0,4.0,6.453
-71.0,-15.0,6.454
-83.0,-30.0,6.455
-66.0,-37.0,6.456
0.0,-30.0,6.457
82.0,-6.0,6.458
120.0,24.0,6.459
99.0,40.0,6.46
49.0,35.0,6.461
-5.0,24.0,6.462
-55.0,9.0,6.463
-73.0,-6.0,6.464
-48.0,-17.0,6.465
-20.0,-22.0,6.466
-35.0,-26.0,6.467
-83.0,-30.0,6.468
-111.0,-29.0,6.469
-92.0,-21.0,6.47
-42.0,-12.0,6.471
8.0,-9.0,6.472
47.0,-13.0,6.473
73.0,-21.0,6.474
73.0,-23.0,6.475
40.0,-14.0,6.476
4.0,-3.0,6.477
-6.0,5.0,6.478
-1.0,11.0,6.479
-13.0,18.0,6.48
-32.0,20.0,6.481
-11.0,18.0,6.482
62.0,15.0,6.483
120.0,18.0,6.484
104.0,26.0,6.485
39.0,23.0,6.486
-15.0,9.0,6.487
-43.0,-4.0,6.488
-55.0,-6.0,6.489
-47.0,-1.0,6.49
-16.0,3.0,6.491
17.0,0.0,6.492
33.0,-6.0,6.493
44.0,-9.0,6.494
71.0,-6.0,6.495
100.0,4.0,6.496
102.0,17.0,6.497
71.0,16.0,6.498
36.0,8.0,6.499
28.0,1.0,6.5
40.0,4.0,6.501
45.0,12.0,6.502
28.0,10.0,6.503
1.0,0.0,6.504
-7.0,-4.0,6.505
8.0,4.0,6.506
17.0,19.0,6.507
-6.0,30.0,6.508
-59.0,31.0,6.509
-110.0,28.0,6.51
-131.0,23.0,6.511
-92.0,8.0,6.512
30.0,-20.0,6.513
205.0,-50.0,6.514
322.0,-55.0,6.515
278.0,-32.0,6.516
108.0,-3.0,6.517
-85.0,15.0,6.518
-169.0,21.0,6.519
-146.0,14.0,6.52
-104.0,-12.0,6.521
-92.0,-48.0,6.522
-71.0,-61.0,6.523
-15.0,-34.0,6.524
8.0,5.0,6.525
-78.0,29.0,6.526
-226.0,41.0,6.527
-304.0,56.0,6.528
-272.0,52.0,6.529
-212.0,0.0,6.53
-173.0,-68.0,6.531
-110.0,-101.0,6.532
3.0,-90.0,6.533
91.0,-70.0,6.534
90.0,-63.0,6.535
42.0,-52.0,6.536
17.0,-22.0,6.537
3.0,14.0,6.538
-15.0,37.0,6.539
9.0,48.0,6.54
108.0,57.0,6.541
198.0,63.0,6.542
189.0,51.0,6.543
124.0,27.0,6.544
99.0,26.0,6.545
97.0,53.0,6.546
22.0,63.0,6.547
-103.0,11.0,6.548
-149.0,-76.0,6.549
-72.0,-124.0,6.55
37.0,-97.0,6.551
99.0,-38.0,6.552
114.0,1.0,6.553
102.0,15.0,6.554
74.0,36.0,6.555
79.0,70.0,6.556
145.0,93.0,6.557
235.0,77.0,6.558
252.0,36.0,6.559
174.0,0.0,6.56
64.0,-16.0,6.561
-16.0,-20.0,6.562
-75.0,-32.0,6.563
-136.0,-49.0,6.564
-186.0,-55.0,6.565
-186.0,-39.0,6.566
-122.0,-14.0,6.567
-23.0,3.0,6.568
73.0,18.0,6.569
153.0,38.0,6.57
184.0,52.0,6.571
93.0,47.0,6.572
-112.0,37.0,6.573
-279.0,33.0,6.574
-271.0,18.0,6.575
-159.0,-20.0,6.576
-125.0,-50.0,6.577
-204.0,-45.0,6.578
-255.0,-13.0,6.579
-174.0,1.0,6.58
-36.0,-23.0,6.581
36.0,-53.0,6.582
40.0,-62.0,6.583
52.0,-49.0,6.584
116.0,-35.0,6.585
207.0,-21.0,6.586
271.0,-3.0,6.587
253.0,20.0,6.588
145.0,32.0,6.589
28.0,29.0,6.59
23.0,18.0,6.591
149.0,11.0,6.592
293.0,10.0,6.593
330.0,15.0,6.594
250.0,32.0,6.595
140.0,56.0,6.596
77.0,71.0,6.597
50.0,61.0,6.598
-2.0,41.0,6.599
-138.0,18.0,6.6
-337.0,-7.0,6.601
-504.0,-30.0,6.602
-554.0,-42.0,6.603
-478.0,-46.0,6.604
-326.0,-27.0,6.605
-174.0,-10.0,6.606
-68.0,-4.0,6.607
-11.0,0.0,6.608
38.0,-5.0,6.609
98.0,-5.0,6.61
134.0,12.0,6.611
111.0,27.0,6.612
68.0,26.0,6.613
65.0,24.0,6.614
104.0,20.0,6.615
139.0,18.0,6.616
151.0,26.0,6.617
150.0,30.0,6.618
128.0,18.0,6.619
67.0,-7.0,6.62
2.0,-46.0,6.621
-10.0,-94.0,6.622
41.0,-133.0,6.623
118.0,-118.0,6.624
178.0,-46.0,6.625
197.0,19.0,6.626
174.0,19.0,6.627
148.0,-14.0,6.628
169.0,-12.0,6.629
191.0,21.0,6.63
95.0,29.0,6.631
-119.0,5.0,6.632
-280.0,-1.0,6.633
-265.0,17.0,6.634
-173.0,31.0,6.635
-180.0,43.0,6.636
-282.0,83.0,6.637
-367.0,136.0,6.638
-348.0,143.0,6.639
-232.0,92.0,6.64
-44.0,34.0,6.641
157.0,2.0,6.642
257.0,-35.0,6.643
192.0,-89.0,6.644
46.0,-122.0,6.645
-55.0,-113.0,6.646
-83.0,-99.0,6.647
-66.0,-103.0,6.648
5.0,-88.0,6.649
149.0,-32.0,6.65
305.0,29.0,6.651
390.0,42.0,6.652
372.0,14.0,6.653
266.0,-14.0,6.654
100.0,-25.0,6.655
-51.0,-34.0,6.656
-95.0,-35.0,6.657
-15.0,-21.0,6.658
86.0,3.0,6.659
86.0,27.0,6.66
-24.0,48.0,6.661
-178.0,83.0,6.662
-327.0,117.0,6.663
-445.0,132.0,6.664
-483.0,131.0,6.665
-407.0,119.0,6.666
-223.0,90.0,6.667
37.0,25.0,6.668
291.0,-59.0,6.669
374.0,-127.0,6.67
193.0,-145.0,6.671
-76.0,-122.0,6.672
-146.0,-100.0,6.673
-5.0,-102.0,6.674
80.0,-105.0,6.675
-13.0,-87.0,6.676
-96.0,-50.0,6.677
-28.0,26.0,6.678
78.0,24.0,6.679
70.0,22.0,6.68
15.0,26.0,6.681
34.0,27.0,6.682
103.0,17.0,6.683
163.0,1.0,6.684
245.0,-35.0,6.685
342.0,-62.0,6.686
368.0,-64.0,6.687
307.0,-62.0,6.688
217.0,-48.0,6.689
58.0,-29.0,6.69
-226.0,1.0,6.691
-483.0,31.0,6.692
-503.0,65.0,6.693
-371.0,94.0,6.694
-331.0,108.0,6.695
-343.0,109.0,6.696
-188.0,71.0,6.697
113.0,46.0,6.698
208.0,39.0,6.699
-25.0,35.0,6.7
-218.0,46.0,6.701
-34.0,48.0,6.702
358.0,19.0,6.703
529.0,-28.0,6.704
341.0,-130.0,6.705
34.0,-209.0,6.706
-134.0,-214.0,6.707
-126.0,-209.0,6.708
-23.0,-168.0,6.709
143.0,-115.0,6.71
387.0,-28.0,6.711
625.0,61.0,6.712
633.0,158.0,6.713
233.0,241.0,6.714
-397.0,280.0,6.715
-775.0,283.0,6.716
-650.0,175.0,6.717
-251.0,36.0,6.718
-53.0,-200.0,6.719
-163.0,-420.0,6.72
-281.0,-530.0,6.721
-242.0,-457.0,6.722
-190.0,-260.0,6.723
-200.0,-81.0,6.724
-129.0,10.0,6.725
38.0,77.0,6.726
84.0,188.0,6.727
-64.0,311.0,6.728
-174.0,378.0,6.729
-72.0,380.0,6.73
132.0,345.0,6.731
310.0,270.0,6.732
478.0,137.0,6.733
592.0,-35.0,6.734
501.0,-191.0,6.735
255.0,-280.0,6.736
114.0,-289.0,6.737
65.0,-220.0,6.738
41.0,-93.0,6.739
45.0,32.0,6.74
140.0,95.0,6.741
271.0,98.0,6.742
504.0,90.0,6.743
643.0,83.0,6.744
498.0,60.0,6.745
351.0,17.0,6.746
195.0,-16.0,6.747
19.0,-21.0,6.748
-208.0,-13.0,6.749
-409.0,3.0,6.75
-531.0,39.0,6.751
-576.0,76.0,6.752
-392.0,55.0,6.753
-190.0,-38.0,6.754
61.0,-142.0,6.755
281.0,-190.0,6.756
394.0,-185.0,6.757
63.0,-176.0,6.758
50.0,-164.0,6.759
52.0,-127.0,6.76
101.0,-15.0,6.761
168.0,85.0,6.762
287.0,146.0,6.763
358.0,192.0,6.764
284.0,190.0,6.765
209.0,186.0,6.766
129.0,175.0,6.767
39.0,148.0,6.768
-77.0,78.0,6.769
-180.0,15.0,6.77
-242.0,-26.0,6.771
-265.0,-68.0,6.772
-171.0,-106.0,6.773
-68.0,-137.0,6.774
61.0,-146.0,6.775
173.0,-148.0,6.776
231.0,-125.0,6.777
241.0,-112.0,6.778
33.0,-133.0,6.779
-179.0,-114.0,6.78
-231.0,-46.0,6.781
-159.0,3.0,6.782
-122.0,-10.0,6.783
-144.0,-28.0,6.784
-112.0,17.0,6.785
-23.0,97.0,6.786
-3.0,130.0,6.787
-83.0,110.0,6.788
-115.0,103.0,6.789
-19.0,141.0,6.79
96.0,172.0,6.791
133.0,148.0,6.792
143.0,83.0,6.793
193.0,31.0,6.794
242.0,21.0,6.795
234.0,29.0,6.796
189.0,13.0,6.797
100.0,-40.0,6.798
-43.0,-75.0,6.799
-189.0,-33.0,6.8
-239.0,51.0,6.801
-202.0,89.0,6.802
-147.0,48.0,6.803
-40.0,-3.0,6.804
177.0,-14.0,6.805
381.0,-29.0,6.806
363.0,-87.0,6.807
133.0,-131.0,6.808
-109.0,-96.0,6.809
-239.0,-16.0,6.81
-244.0,29.0,6.811
-93.0,20.0,6.812
165.0,-9.0,6.813
320.0,-41.0,6.814
252.0,-81.0,6.815
125.0,-124.0,6.816
102.0,-157.0,6.817
85.0,-176.0,6.818
-42.0,-140.0,6.819
-155.0,-36.0,6.82
-118.0,67.0,6.821
-104.0,87.0,6.822
-303.0,39.0,6.823
-527.0,13.0,6.824
-453.0,38.0,6.825
-115.0,50.0,6.826
146.0,25.0,6.827
142.0,1.0,6.828
-2.0,0.0,6.829
-77.0,10.0,6.83
-13.0,33.0,6.831
100.0,78.0,6.832
121.0,109.0,6.833
14.0,93.0,6.834
-112.0,57.0,6.835
-146.0,58.0,6.836
-87.0,90.0,6.837
39.0,75.0,6.838
212.0,-31.0,6.839
341.0,-176.0,6.84
323.0,-245.0,6.841
214.0,-165.0,6.842
183.0,1.0,6.843
227.0,132.0,6.844
175.0,170.0,6.845
0.0,143.0,6.846
-139.0,78.0,6.847
-187.0,-18.0,6.848
-226.0,-96.0,6.849
-250.0,-87.0,6.85
-206.0,-8.0,6.851
-189.0,49.0,6.852
-288.0,63.0,6.853
-331.0,88.0,6.854
-118.0,113.0,6.855
204.0,60.0,6.856
337.0,-59.0,6.857
281.0,-173.0,6.858
249.0,-218.0,6.859
279.0,-220.0,6.86
228.0,-193.0,6.861
103.0,-101.0,6.862
57.0,24.0,6.863
93.0,109.0,6.864
56.0,136.0,6.865
-95.0,145.0,6.866
-223.0,130.0,6.867
-219.0,56.0,6.868
-122.0,-50.0,6.869
-32.0,-124.0,6.87
-11.0,-167.0,6.871
-45.0,-210.0,6.872
-49.0,-218.0,6.873
15.0,-138.0,6.874
68.0,-12.0,6.875
20.0,70.0,6.876
-70.0,100.0,6.877
-98.0,141.0,6.878
-66.0,208.0,6.879
-84.0,242.0,6.88
-158.0,214.0,6.881
-156.0,169.0,6.882
-28.0,151.0,6.883
109.0,153.0,6.884
157.0,141.0,6.885
159.0,88.0,6.886
160.0,-27.0,6.887
114.0,-177.0,6.888
-2.0,-277.0,6.889
-94.0,-265.0,6.89
-79.0,-180.0,6.891
-11.0,-122.0,6.892
17.0,-125.0,6.893
11.0,-139.0,6.894
29.0,-106.0,6.895
54.0,-20.0,6.896
39.0,80.0,6.897
-7.0,160.0,6.898
-30.0,185.0,6.899
-18.0,150.0,6.9
-3.0,95.0,6.901
-1.0,77.0,6.902
9.0,98.0,6.903
31.0,121.0,6.904
49.0,124.0,6.905
49.0,112.0,6.906
30.0,95.0,6.907
-8.0,67.0,6.908
-36.0,37.0,6.909
-28.0,13.0,6.91
-3.0,-1.0,6.911
6.0,-17.0,6.912
2.0,-36.0,6.913
16.0,-43.0,6.914
39.0,-33.0,6.915
33.0,-34.0,6.916
-3.0,-83.0,6.917
-40.0,-173.0,6.918
-51.0,-240.0,6.919
-37.0,-270.0,6.92
-1.0,-187.0,6.921
54.0,-115.0,6.922
85.0,-77.0,6.923
55.0,-44.0,6.924
-5.0,-28.0,6.925
-39.0,-9.0,6.926
-37.0,19.0,6.927
-26.0,51.0,6.928
-13.0,96.0,6.929
12.0,136.0,6.93
19.0,162.0,6.931
-12.0,178.0,6.932
-45.0,160.0,6.933
-33.0,129.0,6.934
11.0,57.0,6.935
43.0,-7.0,6.936
54.0,-47.0,6.937
64.0,-71.0,6.938
64.0,-33.0,6.939
34.0,-3.0,6.94
-8.0,-5.0,6.941
-16.0,-7.0,6.942
23.0,12.0,6.943
69.0,34.0,6.944
70.0,22.0,6.945
9.0,-16.0,6.946
-81.0,-35.0,6.947
-140.0,-29.0,6.948
-120.0,-36.0,6.949
-49.0,-74.0,6.95
-2.0,-105.0,6.951
-21.0,-74.0,6.952
-71.0,13.0,6.953
-75.0,102.0,6.954
6.0,136.0,6.955
117.0,91.0,6.956
159.0,-16.0,6.957
84.0,-155.0,6.958
-43.0,-242.0,6.959
-103.0,-224.0,6.96
-50.0,-145.0,6.961
35.0,-83.0,6.962
57.0,-78.0,6.963
18.0,-79.0,6.964
-14.0,-34.0,6.965
-5.0,32.0,6.966
13.0,55.0,6.967
14.0,29.0,6.968
4.0,10.0,6.969
9.0,36.0,6.97
16.0,82.0,6.971
14.0,109.0,6.972
13.0,117.0,6.973
26.0,127.0,6.974
40.0,137.0,6.975
37.0,130.0,6.976
19.0,100.0,6.977
-6.0,43.0,6.978
-36.0,-18.0,6.979
-71.0,-60.0,6.98
-82.0,-67.0,6.981
-46.0,-54.0,6.982
17.0,-49.0,6.983
57.0,-56.0,6.984
55.0,-51.0,6.985
35.0,-18.0,6.986
23.0,29.0,6.987
20.0,68.0,6.988
15.0,87.0,6.989
9.0,88.0,6.99
8.0,77.0,6.991
6.0,63.0,6.992
0.0,48.0,6.993
-5.0,26.0,6.994
-5.0,3.0,6.995
-1.0,-8.0,6.996
1.0,-2.0,6.997
-5.0,2.0,6.998
-13.0,-1.0,6.999
-14.0,-7.0,7.0
-11.0,-6.0,7.001
-6.0,-3.0,7.002
-4.0,-8.0,7.003
-7.0,-14.0,7.004
-30.0,-17.0,7.005
-82.0,-24.0,7.006
-136.0,-44.0,7.007
-140.0,-60.0,7.008
-71.0,-53.0,7.009
35.0,-30.0,7.01
117.0,-20.0,7.011
144.0,-27.0,7.012
137.0,-30.0,7.013
126.0,-25.0,7.014
113.0,-31.0,7.015
81.0,-40.0,7.016
45.0,-28.0,7.017
24.0,16.0,7.018
28.0,4.0,7.019
26.0,-7.0,7.02
2.0,-12.0,7.021
-27.0,-12.0,7.022
-34.0,4.0,7.023
-27.0,18.0,7.024
-22.0,32.0,7.025
-8.0,45.0,7.026
20.0,54.0,7.027
28.0,60.0,7.028
-20.0,59.0,7.029
-108.0,51.0,7.03
-178.0,25.0,7.031
-197.0,1.0,7.032
-167.0,-22.0,7.033
-94.0,-31.0,7.034
12.0,-2.0,7.035
121.0,20.0,7.036
180.0,22.0,7.037
163.0,16.0,7.038
98.0,-13.0,7.039
43.0,-38.0,7.04
28.0,-49.0,7.041
26.0,-49.0,7.042
16.0,-13.0,7.043
19.0,22.0,7.044
37.0,55.0,7.045
29.0,85.0,7.046
-25.0,105.0,7.047
-66.0,119.0,7.048
-38.0,116.0,7.049
9.0,98.0,7.05
-16.0,37.0,7.051
-105.0,-21.0,7.052
-159.0,-73.0,7.053
-125.0,-95.0,7.054
-70.0,-27.0,7.055
-54.0,26.0,7.056
-57.0,31.0,7.057
-24.0,30.0,7.058
58.0,14.0,7.059
147.0,-8.0,7.06
201.0,-72.0,7.061
198.0,-154.0,7.062
128.0,-188.0,7.063
26.0,-135.0,7.064
-26.0,-38.0,7.065
0.0,27.0,7.066
40.0,34.0,7.067
31.0,19.0,7.068
-6.0,28.0,7.069
-12.0,52.0,7.07
-7.0,58.0,7.071
-45.0,47.0,7.072
-104.0,38.0,7.073
-111.0,43.0,7.074
-53.0,44.0,7.075
11.0,29.0,7.076
37.0,7.0,7.077
24.0,-17.0,7.078
10.0,-41.0,7.079
18.0,-56.0,7.08
46.0,-54.0,7.081
58.0,-30.0,7.082
43.0,-8.0,7.083
26.0,-1.0,7.084
24.0,-7.0,7.085
14.0,-3.0,7.086
-16.0,17.0,7.087
-26.0,27.0,7.088
10.0,10.0,7.089
41.0,-12.0,7.09
12.0,-8.0,7.091
-28.0,23.0,7.092
-8.0,49.0,7.093
49.0,50.0,7.094
58.0,40.0,7.095
0.0,37.0,7.096
-58.0,40.0,7.097
-76.0,38.0,7.098
-68.0,35.0,7.099
-65.0,23.0,7.1
-68.0,-18.0,7.101
-68.0,-82.0,7.102
-62.0,-125.0,7.103
-44.0,-96.0,7.104
-15.0,-5.0,7.105
5.0,66.0,7.106
13.0,65.0,7.107
29.0,25.0,7.108
58.0,6.0,7.109
70.0,11.0,7.11
54.0,0.0,7.111
46.0,-41.0,7.112
66.0,-73.0,7.113
76.0,-72.0,7.114
53.0,-45.0,7.115
24.0,-15.0,7.116
18.0,10.0,7.117
23.0,20.0,7.118
21.0,10.0,7.119
15.0,-4.0,7.12
1.0,-14.0,7.121
-19.0,-22.0,7.122
-33.0,-30.0,7.123
-29.0,-21.0,7.124
-26.0,7.0,7.125
-48.0,26.0,7.126
-67.0,16.0,7.127
-51.0,8.0,7.128
-21.0,30.0,7.129
-12.0,50.0,7.13
-16.0,31.0,7.131
3.0,-6.0,7.132
33.0,-13.0,7.133
39.0,13.0,7.134
25.0,31.0,7.135
19.0,21.0,7.136
23.0,9.0,7.137
11.0,14.0,7.138
-13.0,26.0,7.139
-21.0,33.0,7.14
-2.0,23.0,7.141
23.0,13.0,7.142
34.0,2.0,7.143
36.0,-9.0,7.144
38.0,-21.0,7.145
37.0,-32.0,7.146
33.0,-39.0,7.147
30.0,-45.0,7.148
19.0,-45.0,7.149
-6.0,-37.0,7.15
-26.0,-10.0,7.151
-18.0,13.0,7.152
4.0,24.0,7.153
2.0,32.0,7.154
-29.0,29.0,7.155
-54.0,29.0,7.156
-52.0,38.0,7.157
-30.0,46.0,7.158
-4.0,44.0,7.159
14.0,40.0,7.16
21.0,37.0,7.161
26.0,33.0,7.162
40.0,18.0,7.163
64.0,-3.0,7.164
73.0,-28.0,7.165
52.0,-58.0,7.166
27.0,-87.0,7.167
19.0,-94.0,7.168
3.0,-70.0,7.169
-48.0,-35.0,7.17
-113.0,-15.0,7.171
-138.0,-14.0,7.172
-119.0,-19.0,7.173
-95.0,-18.0,7.174
-80.0,-6.0,7.175
-48.0,21.0,7.176
13.0,56.0,7.177
94.0,78.0,7.178
182.0,71.0,7.179
276.0,40.0,7.18
331.0,7.0,7.181
261.0,-4.0,7.182
61.0,3.0,7.183
-149.0,12.0,7.184
-250.0,7.0,7.185
-249.0,-11.0,7.186
-219.0,-28.0,7.187
-186.0,-41.0,7.188
-134.0,-56.0,7.189
-68.0,-75.0,7.19
-1.0,-82.0,7.191
59.0,-67.0,7.192
93.0,-49.0,7.193
64.0,-45.0,7.194
-5.0,-36.0,7.195
-41.0,-2.0,7.196
-21.0,38.0,7.197
0.0,45.0,7.198
-6.0,24.0,7.199
-8.0,5.0,7.2
26.0,2.0,7.201
56.0,0.0,7.202
59.0,-7.0,7.203
55.0,-4.0,7.204
61.0,14.0,7.205
55.0,31.0,7.206
32.0,32.0,7.207
18.0,26.0,7.208
21.0,25.0,7.209
25.0,30.0,7.21
30.0,40.0,7.211
50.0,46.0,7.212
62.0,41.0,7.213
39.0,29.0,7.214
7.0,19.0,7.215
10.0,13.0,7.216
30.0,-1.0,7.217
21.0,-24.0,7.218
-15.0,-41.0,7.219
-33.0,-51.0,7.22
-18.0,-38.0,7.221
-3.0,-23.0,7.222
-4.0,-4.0,7.223
-10.0,11.0,7.224
-14.0,13.0,7.225
-20.0,17.0,7.226
-11.0,21.0,7.227
24.0,25.0,7.228
64.0,29.0,7.229
75.0,36.0,7.23
56.0,48.0,7.231
45.0,56.0,7.232
61.0,46.0,7.233
74.0,39.0,7.234
41.0,40.0,7.235
-39.0,37.0,7.236
-104.0,17.0,7.237
-126.0,-9.0,7.238
-128.0,-60.0,7.239
-151.0,-112.0,7.24
-170.0,-133.0,7.241
-126.0,-102.0,7.242
-31.0,-47.0,7.243
29.0,-15.0,7.244
12.0,-14.0,7.245
-25.0,-13.0,7.246
-26.0,-3.0,7.247
-4.0,1.0,7.248
13.0,-1.0,7.249
37.0,1.0,7.25
80.0,12.0,7.251
106.0,19.0,7.252
82.0,20.0,7.253
32.0,22.0,7.254
8.0,19.0,7.255
16.0,0.0,7.256
36.0,-18.0,7.257
49.0,-18.0,7.258
47.0,-4.0,7.259
37.0,6.0,7.26
5.0,3.0,7.261
-21.0,4.0,7.262
-30.0,19.0,7.263
-42.0,30.0,7.264
-63.0,28.0,7.265
-69.0,26.0,7.266
-29.0,20.0,7.267
0.0,11.0,7.268
-10.0,-10.0,7.269
-15.0,-28.0,7.27
0.0,-34.0,7.271
8.0,-40.0,7.272
-1.0,-45.0,7.273
-5.0,-46.0,7.274
16.0,-30.0,7.275
32.0,-19.0,7.276
32.0,-29.0,7.277
27.0,-37.0,7.278
12.0,-29.0,7.279
15.0,-9.0,7.28
25.0,12.0,7.281
29.0,38.0,7.282
19.0,58.0,7.283
2.0,65.0,7.284
-8.0,64.0,7.285
4.0,57.0,7.286
38.0,40.0,7.287
75.0,12.0,7.288
85.0,-15.0,7.289
56.0,-32.0,7.29
6.0,-38.0,7.291
-29.0,-33.0,7.292
-36.0,-14.0,7.293
-34.0,11.0,7.294
-41.0,24.0,7.295
-42.0,16.0,7.296
-22.0,7.0,7.297
7.0,3.0,7.298
22.0,0.0,7.299
19.0,-12.0,7.3
15.0,-32.0,7.301
13.0,-42.0,7.302
12.0,-42.0,7.303
12.0,-41.0,7.304
16.0,-42.0,7.305
24.0,-43.0,7.306
34.0,-34.0,7.307
44.0,-12.0,7.308
37.0,14.0,7.309
14.0,38.0,7.31
0.0,60.0,7.311
27.0,87.0,7.312
74.0,107.0,7.313
93.0,105.0,7.314
77.0,82.0,7.315
45.0,58.0,7.316
10.0,45.0,7.317
-45.0,29.0,7.318
-110.0,0.0,7.319
-156.0,-41.0,7.32
-173.0,-79.0,7.321
-172.0,-94.0,7.322
-158.0,-89.0,7.323
-126.0,-73.0,7.324
-87.0,-54.0,7.325
-62.0,-32.0,7.326
-50.0,-8.0,7.327
-23.0,9.0,7.328
33.0,21.0,7.329
94.0,31.0,7.33
120.0,41.0,7.331
97.0,41.0,7.332
56.0,30.0,7.333
30.0,9.0,7.334
22.0,-12.0,7.335
15.0,-27.0,7.336
10.0,-24.0,7.337
9.0,-4.0,7.338
22.0,18.0,7.339
38.0,22.0,7.34
53.0,5.0,7.341
64.0,-6.0,7.342
66.0,-3.0,7.343
56.0,4.0,7.344
46.0,6.0,7.345
43.0,6.0,7.346
40.0,2.0,7.347
25.0,-10.0,7.348
1.0,-24.0,7.349
-15.0,-24.0,7.35
-17.0,-8.0,7.351
-16.0,2.0,7.352
-25.0,0.0,7.353
-38.0,-5.0,7.354
-44.0,-4.0,7.355
