Deltoid,Bicep,Time
-22.0,1.0,0.0
-20.0,-3.0,0.001
-15.0,-4.0,0.002
-4.0,-4.0,0.003
5.0,-4.0,0.004
10.0,-1.0,0.005
8.0,3.0,0.006
12.0,4.0,0.007
21.0,0.0,0.008
27.0,-2.0,0.009
23.0,-1.0,0.01
15.0,1.0,0.011
8.0,0.0,0.012
4.0,-1.0,0.013
1.0,1.0,0.014
-2.0,4.0,0.015
-6.0,3.0,0.016
-9.0,2.0,0.017
-12.0,2.0,0.018
-13.0,1.0,0.019
-15.0,1.0,0.02
-19.0,-4.0,0.021
-17.0,-4.0,0.022
-6.0,-4.0,0.023
5.0,-5.0,0.024
11.0,-7.0,0.025
11.0,-4.0,0.026
14.0,0.0,0.027
17.0,-2.0,0.028
17.0,-5.0,0.029
13.0,-4.0,0.03
12.0,-1.0,0.031
12.0,-1.0,0.032
9.0,-2.0,0.033
4.0,0.0,0.034
1.0,3.0,0.035
-3.0,2.0,0.036
-13.0,1.0,0.037
-23.0,0.0,0.038
-24.0,2.0,0.039
-19.0,2.0,0.04
-16.0,-3.0,0.041
-15.0,-5.0,0.042
-6.0,-3.0,0.043
8.0,-1.0,0.044
18.0,0.0,0.045
21.0,0.0,0.046
23.0,-2.0,0.047
29.0,-6.0,0.048
30.0,-8.0,0.049
26.0,-4.0,0.05
21.0,2.0,0.051
17.0,4.0,0.052
12.0,2.0,0.053
5.0,0.0,0.054
-3.0,1.0,0.055
-9.0,2.0,0.056
-13.0,3.0,0.057
-18.0,1.0,0.058
-21.0,5.0,0.059
-21.0,6.0,0.06
-20.0,-2.0,0.061
-14.0,-8.0,0.062
-2.0,-7.0,0.063
8.0,-2.0,0.064
12.0,0.0,0.065
12.0,-1.0,0.066
14.0,-1.0,0.067
17.0,0.0,0.068
18.0,-1.0,0.069
17.0,-4.0,0.07
16.0,-6.0,0.071
13.0,-4.0,0.072
6.0,-2.0,0.073
1.0,0.0,0.074
-4.0,2.0,0.075
-8.0,4.0,0.076
-12.0,3.0,0.077
-13.0,0.0,0.078
-14.0,0.0,0.079
-18.0,1.0,0.08
-21.0,-4.0,0.081
-17.0,-5.0,0.082
0.0,-7.0,0.083
15.0,-6.0,0.084
19.0,-3.0,0.085
16.0,-1.0,0.086
19.0,-1.0,0.087
24.0,-3.0,0.088
25.0,-5.0,0.089
20.0,-3.0,0.09
16.0,0.0,0.091
11.0,3.0,0.092
3.0,3.0,0.093
-7.0,-1.0,0.094
-10.0,-3.0,0.095
-7.0,0.0,0.096
-7.0,3.0,0.097
-13.0,3.0,0.098
-16.0,3.0,0.099
-18.0,1.0,0.1
-19.0,-3.0,0.101
-15.0,-3.0,0.102
-5.0,0.0,0.103
9.0,2.0,0.104
16.0,1.0,0.105
15.0,-1.0,0.106
15.0,-3.0,0.107
25.0,-2.0,0.108
30.0,-2.0,0.109
23.0,-2.0,0.11
15.0,-1.0,0.111
15.0,1.0,0.112
17.0,5.0,0.113
10.0,9.0,0.114
-1.0,9.0,0.115
-6.0,7.0,0.116
-4.0,4.0,0.117
-8.0,1.0,0.118
-15.0,2.0,0.119
-21.0,2.0,0.12
-21.0,-1.0,0.121
-15.0,-3.0,0.122
-2.0,-2.0,0.123
11.0,-1.0,0.124
16.0,0.0,0.125
10.0,0.0,0.126
11.0,-1.0,0.127
20.0,-2.0,0.128
27.0,-2.0,0.129
21.0,2.0,0.13
12.0,3.0,0.131
11.0,-1.0,0.132
10.0,-5.0,0.133
2.0,-2.0,0.134
-8.0,2.0,0.135
-14.0,3.0,0.136
-16.0,0.0,0.137
-19.0,-2.0,0.138
-23.0,-2.0,0.139
-26.0,-2.0,0.14
-26.0,-7.0,0.141
-24.0,-8.0,0.142
-12.0,-6.0,0.143
4.0,-5.0,0.144
14.0,-4.0,0.145
12.0,-1.0,0.146
15.0,1.0,0.147
23.0,-1.0,0.148
27.0,-6.0,0.149
21.0,-10.0,0.15
14.0,-7.0,0.151
15.0,-3.0,0.152
16.0,0.0,0.153
9.0,4.0,0.154
2.0,5.0,0.155
-1.0,4.0,0.156
-4.0,2.0,0.157
-13.0,0.0,0.158
-20.0,0.0,0.159
-22.0,-1.0,0.16
-20.0,-5.0,0.161
-15.0,-6.0,0.162
-1.0,-5.0,0.163
14.0,-2.0,0.164
19.0,0.0,0.165
15.0,0.0,0.166
15.0,-1.0,0.167
22.0,-5.0,0.168
26.0,-7.0,0.169
21.0,-3.0,0.17
15.0,0.0,0.171
13.0,0.0,0.172
9.0,-1.0,0.173
1.0,0.0,0.174
-4.0,4.0,0.175
-6.0,5.0,0.176
-8.0,4.0,0.177
-15.0,3.0,0.178
-17.0,4.0,0.179
-19.0,2.0,0.18
-23.0,-4.0,0.181
-21.0,-5.0,0.182
-9.0,-1.0,0.183
8.0,5.0,0.184
15.0,5.0,0.185
12.0,2.0,0.186
11.0,-1.0,0.187
17.0,-4.0,0.188
21.0,-5.0,0.189
20.0,-4.0,0.19
16.0,-2.0,0.191
14.0,2.0,0.192
13.0,4.0,0.193
10.0,4.0,0.194
3.0,1.0,0.195
-6.0,-1.0,0.196
-13.0,0.0,0.197
-17.0,1.0,0.198
-18.0,3.0,0.199
-20.0,0.0,0.2
-22.0,-3.0,0.201
-16.0,-4.0,0.202
0.0,-2.0,0.203
13.0,-2.0,0.204
16.0,-1.0,0.205
13.0,0.0,0.206
11.0,-2.0,0.207
14.0,-6.0,0.208
18.0,-7.0,0.209
21.0,-4.0,0.21
20.0,-1.0,0.211
15.0,-3.0,0.212
6.0,-5.0,0.213
2.0,-1.0,0.214
1.0,5.0,0.215
-2.0,6.0,0.216
-11.0,5.0,0.217
-22.0,3.0,0.218
-26.0,4.0,0.219
-26.0,4.0,0.22
-23.0,-1.0,0.221
-15.0,-5.0,0.222
-2.0,-6.0,0.223
13.0,-4.0,0.224
20.0,-1.0,0.225
23.0,0.0,0.226
26.0,-2.0,0.227
28.0,-6.0,0.228
27.0,-4.0,0.229
23.0,-2.0,0.23
19.0,-2.0,0.231
14.0,-4.0,0.232
7.0,-2.0,0.233
0.0,3.0,0.234
-3.0,4.0,0.235
-4.0,1.0,0.236
-9.0,3.0,0.237
-16.0,4.0,0.238
-18.0,5.0,0.239
-19.0,0.0,0.24
-17.0,-5.0,0.241
-12.0,-5.0,0.242
-3.0,-4.0,0.243
9.0,-3.0,0.244
15.0,-1.0,0.245
13.0,3.0,0.246
14.0,2.0,0.247
21.0,-4.0,0.248
24.0,-8.0,0.249
18.0,-7.0,0.25
9.0,-3.0,0.251
4.0,0.0,0.252
0.0,3.0,0.253
-6.0,4.0,0.254
-13.0,3.0,0.255
-14.0,1.0,0.256
-12.0,4.0,0.257
-13.0,5.0,0.258
-15.0,6.0,0.259
-18.0,5.0,0.26
-18.0,0.0,0.261
-13.0,-2.0,0.262
-1.0,-2.0,0.263
12.0,0.0,0.264
18.0,2.0,0.265
16.0,2.0,0.266
15.0,-2.0,0.267
19.0,-4.0,0.268
23.0,-4.0,0.269
22.0,-3.0,0.27
15.0,-4.0,0.271
11.0,-7.0,0.272
6.0,-6.0,0.273
0.0,-2.0,0.274
-2.0,2.0,0.275
-1.0,4.0,0.276
-2.0,4.0,0.277
-8.0,3.0,0.278
-13.0,2.0,0.279
-16.0,0.0,0.28
-14.0,-1.0,0.281
-11.0,-4.0,0.282
-5.0,-3.0,0.283
0.0,-1.0,0.284
6.0,0.0,0.285
12.0,1.0,0.286
14.0,-3.0,0.287
17.0,-6.0,0.288
17.0,-4.0,0.289
17.0,-2.0,0.29
17.0,-2.0,0.291
16.0,-2.0,0.292
11.0,0.0,0.293
5.0,1.0,0.294
-2.0,4.0,0.295
-9.0,7.0,0.296
-13.0,5.0,0.297
-18.0,4.0,0.298
-23.0,5.0,0.299
-26.0,2.0,0.3
-24.0,-3.0,0.301
-18.0,-4.0,0.302
-3.0,-3.0,0.303
14.0,-4.0,0.304
21.0,-3.0,0.305
22.0,0.0,0.306
23.0,0.0,0.307
28.0,-5.0,0.308
27.0,-9.0,0.309
20.0,-6.0,0.31
16.0,1.0,0.311
15.0,4.0,0.312
9.0,1.0,0.313
1.0,0.0,0.314
-4.0,2.0,0.315
-8.0,7.0,0.316
-11.0,8.0,0.317
-17.0,3.0,0.318
-17.0,-1.0,0.319
-19.0,0.0,0.32
-21.0,-2.0,0.321
-18.0,-3.0,0.322
-5.0,-5.0,0.323
8.0,-5.0,0.324
16.0,-1.0,0.325
18.0,0.0,0.326
21.0,-2.0,0.327
26.0,-6.0,0.328
26.0,-8.0,0.329
20.0,-7.0,0.33
13.0,-5.0,0.331
5.0,-1.0,0.332
0.0,2.0,0.333
-5.0,2.0,0.334
-7.0,2.0,0.335
-10.0,3.0,0.336
-10.0,6.0,0.337
-12.0,6.0,0.338
-12.0,2.0,0.339
-14.0,0.0,0.34
-20.0,-2.0,0.341
-18.0,-1.0,0.342
-7.0,-3.0,0.343
9.0,-4.0,0.344
18.0,-1.0,0.345
16.0,0.0,0.346
15.0,-3.0,0.347
20.0,-7.0,0.348
23.0,-8.0,0.349
19.0,-4.0,0.35
14.0,0.0,0.351
12.0,2.0,0.352
11.0,5.0,0.353
2.0,8.0,0.354
-4.0,8.0,0.355
-6.0,5.0,0.356
-6.0,5.0,0.357
-12.0,2.0,0.358
-19.0,0.0,0.359
-21.0,0.0,0.36
-16.0,-1.0,0.361
-6.0,0.0,0.362
5.0,1.0,0.363
13.0,2.0,0.364
14.0,2.0,0.365
10.0,2.0,0.366
9.0,0.0,0.367
11.0,-5.0,0.368
14.0,-7.0,0.369
14.0,-6.0,0.37
13.0,-4.0,0.371
12.0,-1.0,0.372
9.0,1.0,0.373
4.0,2.0,0.374
0.0,2.0,0.375
-3.0,2.0,0.376
-9.0,4.0,0.377
-16.0,3.0,0.378
-21.0,2.0,0.379
-21.0,0.0,0.38
-20.0,-6.0,0.381
-20.0,-9.0,0.382
-9.0,-10.0,0.383
8.0,-7.0,0.384
17.0,-4.0,0.385
13.0,-3.0,0.386
11.0,-4.0,0.387
21.0,-5.0,0.388
31.0,-7.0,0.389
26.0,-8.0,0.39
18.0,-7.0,0.391
16.0,-3.0,0.392
18.0,3.0,0.393
12.0,7.0,0.394
1.0,8.0,0.395
-6.0,5.0,0.396
-9.0,5.0,0.397
-15.0,3.0,0.398
-20.0,2.0,0.399
-23.0,1.0,0.4
-20.0,-2.0,0.401
-14.0,-3.0,0.402
-4.0,-4.0,0.403
5.0,-4.0,0.404
11.0,-2.0,0.405
17.0,1.0,0.406
18.0,2.0,0.407
20.0,-2.0,0.408
20.0,-4.0,0.409
17.0,-4.0,0.41
11.0,-3.0,0.411
5.0,-2.0,0.412
1.0,-1.0,0.413
-3.0,0.0,0.414
-8.0,0.0,0.415
-13.0,1.0,0.416
-13.0,4.0,0.417
-13.0,7.0,0.418
-17.0,7.0,0.419
-19.0,4.0,0.42
-16.0,-2.0,0.421
-11.0,-4.0,0.422
-3.0,-4.0,0.423
10.0,-4.0,0.424
19.0,-3.0,0.425
19.0,-2.0,0.426
17.0,-2.0,0.427
17.0,-6.0,0.428
17.0,-8.0,0.429
15.0,-3.0,0.43
13.0,1.0,0.431
11.0,2.0,0.432
5.0,0.0,0.433
-2.0,1.0,0.434
-7.0,2.0,0.435
-8.0,2.0,0.436
-8.0,3.0,0.437
-11.0,4.0,0.438
-13.0,6.0,0.439
-15.0,3.0,0.44
-19.0,-2.0,0.441
-20.0,-2.0,0.442
-7.0,0.0,0.443
9.0,1.0,0.444
20.0,-2.0,0.445
21.0,-3.0,0.446
21.0,-1.0,0.447
25.0,0.0,0.448
27.0,-3.0,0.449
21.0,-6.0,0.45
13.0,-6.0,0.451
9.0,-2.0,0.452
6.0,2.0,0.453
0.0,4.0,0.454
-7.0,3.0,0.455
-9.0,5.0,0.456
-8.0,10.0,0.457
-13.0,8.0,0.458
-21.0,4.0,0.459
-24.0,0.0,0.46
-21.0,-4.0,0.461
-12.0,-5.0,0.462
-3.0,-6.0,0.463
5.0,-5.0,0.464
9.0,-3.0,0.465
10.0,-4.0,0.466
10.0,-8.0,0.467
15.0,-10.0,0.468
19.0,-8.0,0.469
22.0,-6.0,0.47
21.0,-5.0,0.471
18.0,-2.0,0.472
14.0,3.0,0.473
8.0,6.0,0.474
2.0,2.0,0.475
0.0,-1.0,0.476
-1.0,3.0,0.477
-9.0,5.0,0.478
-17.0,4.0,0.479
-22.0,1.0,0.48
-20.0,-2.0,0.481
-13.0,-2.0,0.482
-5.0,-4.0,0.483
3.0,-6.0,0.484
12.0,-2.0,0.485
17.0,0.0,0.486
18.0,-1.0,0.487
20.0,-3.0,0.488
22.0,-3.0,0.489
21.0,-2.0,0.49
18.0,-2.0,0.491
15.0,-4.0,0.492
10.0,-3.0,0.493
1.0,0.0,0.494
-4.0,2.0,0.495
-6.0,1.0,0.496
-6.0,3.0,0.497
-11.0,6.0,0.498
-18.0,7.0,0.499
-24.0,4.0,0.5
-25.0,-1.0,0.501
-20.0,-1.0,0.502
-5.0,-2.0,0.503
13.0,-4.0,0.504
19.0,-3.0,0.505
15.0,-2.0,0.506
12.0,-3.0,0.507
18.0,-5.0,0.508
23.0,-7.0,0.509
21.0,-6.0,0.51
14.0,-3.0,0.511
12.0,-2.0,0.512
9.0,-2.0,0.513
0.0,0.0,0.514
-8.0,3.0,0.515
-12.0,4.0,0.516
-10.0,6.0,0.517
-9.0,4.0,0.518
-11.0,4.0,0.519
-15.0,3.0,0.52
-18.0,-2.0,0.521
-16.0,-4.0,0.522
-4.0,-6.0,0.523
12.0,-5.0,0.524
19.0,-2.0,0.525
15.0,0.0,0.526
13.0,0.0,0.527
19.0,-3.0,0.528
21.0,-3.0,0.529
14.0,-1.0,0.53
4.0,0.0,0.531
2.0,0.0,0.532
2.0,3.0,0.533
-3.0,6.0,0.534
-7.0,5.0,0.535
-7.0,1.0,0.536
-4.0,2.0,0.537
-8.0,2.0,0.538
-14.0,0.0,0.539
-17.0,-3.0,0.54
-15.0,-4.0,0.541
-9.0,0.0,0.542
1.0,2.0,0.543
11.0,0.0,0.544
14.0,-2.0,0.545
11.0,-1.0,0.546
13.0,1.0,0.547
19.0,-2.0,0.548
23.0,-5.0,0.549
19.0,-6.0,0.55
14.0,-3.0,0.551
10.0,-1.0,0.552
6.0,-1.0,0.553
0.0,0.0,0.554
-3.0,2.0,0.555
-6.0,4.0,0.556
-9.0,6.0,0.557
-16.0,3.0,0.558
-18.0,1.0,0.559
-17.0,1.0,0.56
-15.0,-2.0,0.561
-8.0,-4.0,0.562
3.0,-6.0,0.563
15.0,-6.0,0.564
18.0,-4.0,0.565
16.0,-4.0,0.566
19.0,-6.0,0.567
24.0,-5.0,0.568
24.0,-4.0,0.569
17.0,-3.0,0.57
12.0,-3.0,0.571
7.0,-1.0,0.572
3.0,1.0,0.573
-5.0,1.0,0.574
-10.0,2.0,0.575
-11.0,4.0,0.576
-10.0,6.0,0.577
-14.0,3.0,0.578
-17.0,1.0,0.579
-16.0,1.0,0.58
-14.0,-3.0,0.581
-12.0,-6.0,0.582
-5.0,-7.0,0.583
6.0,-6.0,0.584
16.0,-1.0,0.585
17.0,-3.0,0.586
16.0,-6.0,0.587
18.0,-6.0,0.588
23.0,-3.0,0.589
22.0,-1.0,0.59
13.0,0.0,0.591
3.0,2.0,0.592
-1.0,4.0,0.593
0.0,7.0,0.594
0.0,7.0,0.595
-1.0,7.0,0.596
-5.0,9.0,0.597
-11.0,7.0,0.598
-15.0,2.0,0.599
-17.0,-1.0,0.6
-17.0,-3.0,0.601
-14.0,-3.0,0.602
-2.0,-3.0,0.603
8.0,-3.0,0.604
13.0,-4.0,0.605
10.0,-3.0,0.606
10.0,-4.0,0.607
14.0,-7.0,0.608
18.0,-6.0,0.609
19.0,-3.0,0.61
19.0,-1.0,0.611
18.0,-2.0,0.612
12.0,0.0,0.613
1.0,4.0,0.614
-6.0,8.0,0.615
-9.0,8.0,0.616
-11.0,7.0,0.617
-17.0,5.0,0.618
-20.0,4.0,0.619
-19.0,2.0,0.62
-16.0,-5.0,0.621
-13.0,-6.0,0.622
-2.0,-5.0,0.623
12.0,-3.0,0.624
19.0,-1.0,0.625
18.0,-1.0,0.626
18.0,-2.0,0.627
23.0,-4.0,0.628
25.0,-5.0,0.629
21.0,-2.0,0.63
13.0,0.0,0.631
7.0,3.0,0.632
1.0,5.0,0.633
-6.0,4.0,0.634
-12.0,2.0,0.635
-13.0,1.0,0.636
-11.0,3.0,0.637
-12.0,3.0,0.638
-18.0,0.0,0.639
-22.0,-1.0,0.64
-20.0,-4.0,0.641
-11.0,-4.0,0.642
1.0,-7.0,0.643
13.0,-7.0,0.644
17.0,-4.0,0.645
18.0,0.0,0.646
19.0,-1.0,0.647
25.0,-4.0,0.648
31.0,-5.0,0.649
29.0,-1.0,0.65
20.0,1.0,0.651
8.0,0.0,0.652
1.0,0.0,0.653
-1.0,3.0,0.654
-3.0,4.0,0.655
-9.0,2.0,0.656
-14.0,0.0,0.657
-20.0,1.0,0.658
-21.0,3.0,0.659
-21.0,3.0,0.66
-20.0,-3.0,0.661
-13.0,-5.0,0.662
-2.0,-5.0,0.663
10.0,-4.0,0.664
16.0,-2.0,0.665
14.0,1.0,0.666
12.0,0.0,0.667
14.0,-5.0,0.668
19.0,-9.0,0.669
22.0,-7.0,0.67
20.0,-3.0,0.671
17.0,-3.0,0.672
10.0,-1.0,0.673
-1.0,2.0,0.674
-13.0,3.0,0.675
-21.0,0.0,0.676
-21.0,-1.0,0.677
-18.0,0.0,0.678
-16.0,4.0,0.679
-18.0,4.0,0.68
-15.0,-2.0,0.681
-4.0,-4.0,0.682
11.0,-4.0,0.683
21.0,-3.0,0.684
22.0,-2.0,0.685
16.0,0.0,0.686
12.0,0.0,0.687
13.0,-3.0,0.688
16.0,-5.0,0.689
18.0,-5.0,0.69
17.0,-4.0,0.691
7.0,-4.0,0.692
-3.0,-4.0,0.693
-7.0,1.0,0.694
-5.0,6.0,0.695
0.0,5.0,0.696
1.0,3.0,0.697
-3.0,3.0,0.698
-9.0,4.0,0.699
-18.0,3.0,0.7
-23.0,-3.0,0.701
-17.0,-4.0,0.702
-1.0,-1.0,0.703
16.0,3.0,0.704
23.0,2.0,0.705
20.0,0.0,0.706
18.0,-1.0,0.707
20.0,-1.0,0.708
24.0,0.0,0.709
23.0,-1.0,0.71
19.0,-1.0,0.711
15.0,1.0,0.712
12.0,5.0,0.713
5.0,9.0,0.714
-3.0,10.0,0.715
-10.0,8.0,0.716
-16.0,8.0,0.717
-21.0,9.0,0.718
-25.0,10.0,0.719
-24.0,6.0,0.72
-20.0,-4.0,0.721
-14.0,-7.0,0.722
-5.0,-6.0,0.723
10.0,-4.0,0.724
19.0,-2.0,0.725
19.0,-2.0,0.726
17.0,-3.0,0.727
21.0,-4.0,0.728
25.0,-5.0,0.729
22.0,-2.0,0.73
15.0,1.0,0.731
10.0,-1.0,0.732
7.0,-3.0,0.733
-1.0,-3.0,0.734
-13.0,0.0,0.735
-18.0,2.0,0.736
-18.0,4.0,0.737
-18.0,2.0,0.738
-20.0,2.0,0.739
-22.0,1.0,0.74
-19.0,-3.0,0.741
-13.0,-6.0,0.742
-1.0,-7.0,0.743
8.0,-7.0,0.744
13.0,-6.0,0.745
14.0,-2.0,0.746
18.0,-2.0,0.747
23.0,-6.0,0.748
26.0,-9.0,0.749
23.0,-4.0,0.75
17.0,1.0,0.751
11.0,0.0,0.752
5.0,-2.0,0.753
-3.0,-1.0,0.754
-8.0,1.0,0.755
-11.0,2.0,0.756
-10.0,1.0,0.757
-12.0,0.0,0.758
-17.0,0.0,0.759
-21.0,-1.0,0.76
-21.0,-6.0,0.761
-14.0,-7.0,0.762
-1.0,-5.0,0.763
12.0,-4.0,0.764
18.0,-3.0,0.765
18.0,-2.0,0.766
18.0,-3.0,0.767
20.0,-6.0,0.768
23.0,-7.0,0.769
21.0,-1.0,0.77
16.0,4.0,0.771
13.0,5.0,0.772
10.0,3.0,0.773
7.0,5.0,0.774
4.0,8.0,0.775
0.0,9.0,0.776
-5.0,6.0,0.777
-11.0,4.0,0.778
-17.0,1.0,0.779
-21.0,-1.0,0.78
-22.0,-3.0,0.781
-20.0,-3.0,0.782
-6.0,-4.0,0.783
6.0,-6.0,0.784
12.0,-6.0,0.785
11.0,-3.0,0.786
18.0,-2.0,0.787
28.0,-5.0,0.788
30.0,-7.0,0.789
21.0,-4.0,0.79
14.0,-2.0,0.791
10.0,-2.0,0.792
6.0,-1.0,0.793
0.0,0.0,0.794
-6.0,1.0,0.795
-9.0,2.0,0.796
-13.0,4.0,0.797
-15.0,4.0,0.798
-15.0,4.0,0.799
-15.0,4.0,0.8
-16.0,-2.0,0.801
-13.0,-6.0,0.802
-4.0,-7.0,0.803
9.0,-6.0,0.804
16.0,-2.0,0.805
15.0,0.0,0.806
14.0,0.0,0.807
16.0,-1.0,0.808
18.0,-3.0,0.809
18.0,-1.0,0.81
14.0,0.0,0.811
9.0,2.0,0.812
6.0,3.0,0.813
3.0,3.0,0.814
-2.0,4.0,0.815
-8.0,4.0,0.816
-12.0,7.0,0.817
-14.0,8.0,0.818
-15.0,8.0,0.819
-18.0,5.0,0.82
-20.0,-3.0,0.821
-12.0,-8.0,0.822
3.0,-6.0,0.823
14.0,-4.0,0.824
13.0,-3.0,0.825
14.0,-3.0,0.826
20.0,-4.0,0.827
28.0,-3.0,0.828
27.0,-3.0,0.829
18.0,-4.0,0.83
11.0,-5.0,0.831
6.0,-5.0,0.832
2.0,-3.0,0.833
-1.0,1.0,0.834
-3.0,4.0,0.835
-3.0,3.0,0.836
-5.0,3.0,0.837
-14.0,2.0,0.838
-19.0,3.0,0.839
-22.0,2.0,0.84
-19.0,-3.0,0.841
-13.0,-4.0,0.842
-3.0,-2.0,0.843
9.0,0.0,0.844
16.0,1.0,0.845
17.0,0.0,0.846
19.0,-3.0,0.847
25.0,-6.0,0.848
27.0,-3.0,0.849
21.0,-1.0,0.85
15.0,-1.0,0.851
15.0,-2.0,0.852
13.0,0.0,0.853
2.0,4.0,0.854
-9.0,6.0,0.855
-13.0,4.0,0.856
-10.0,3.0,0.857
-13.0,3.0,0.858
-19.0,4.0,0.859
-24.0,0.0,0.86
-23.0,-9.0,0.861
-16.0,-9.0,0.862
-5.0,-3.0,0.863
4.0,0.0,0.864
14.0,0.0,0.865
16.0,0.0,0.866
18.0,1.0,0.867
25.0,-1.0,0.868
29.0,-6.0,0.869
26.0,-6.0,0.87
20.0,-1.0,0.871
14.0,3.0,0.872
9.0,5.0,0.873
0.0,3.0,0.874
-8.0,2.0,0.875
-9.0,2.0,0.876
-10.0,5.0,0.877
-18.0,8.0,0.878
-23.0,6.0,0.879
-22.0,0.0,0.88
-14.0,-6.0,0.881
-5.0,-6.0,0.882
4.0,-3.0,0.883
14.0,-5.0,0.884
18.0,-6.0,0.885
15.0,-6.0,0.886
13.0,-5.0,0.887
17.0,-5.0,0.888
21.0,-5.0,0.889
20.0,-1.0,0.89
16.0,2.0,0.891
12.0,-1.0,0.892
4.0,-3.0,0.893
-5.0,1.0,0.894
-12.0,4.0,0.895
-12.0,3.0,0.896
-10.0,1.0,0.897
-14.0,2.0,0.898
-20.0,4.0,0.899
-22.0,4.0,0.9
-18.0,-1.0,0.901
-10.0,-4.0,0.902
0.0,-2.0,0.903
13.0,1.0,0.904
20.0,3.0,0.905
22.0,1.0,0.906
20.0,-5.0,0.907
21.0,-8.0,0.908
23.0,-8.0,0.909
20.0,-2.0,0.91
14.0,3.0,0.911
8.0,4.0,0.912
2.0,2.0,0.913
-5.0,0.0,0.914
-11.0,-1.0,0.915
-14.0,-1.0,0.916
-12.0,0.0,0.917
-13.0,0.0,0.918
-14.0,3.0,0.919
-16.0,2.0,0.92
-16.0,-5.0,0.921
-12.0,-8.0,0.922
1.0,-9.0,0.923
13.0,-6.0,0.924
12.0,-2.0,0.925
12.0,1.0,0.926
18.0,2.0,0.927
23.0,-1.0,0.928
22.0,-3.0,0.929
19.0,-1.0,0.93
13.0,0.0,0.931
8.0,0.0,0.932
4.0,-1.0,0.933
0.0,0.0,0.934
-3.0,3.0,0.935
-6.0,1.0,0.936
-6.0,1.0,0.937
-8.0,1.0,0.938
-15.0,4.0,0.939
-17.0,4.0,0.94
-12.0,-4.0,0.941
-5.0,-6.0,0.942
4.0,-3.0,0.943
14.0,2.0,0.944
20.0,2.0,0.945
20.0,0.0,0.946
20.0,-2.0,0.947
20.0,-3.0,0.948
18.0,-3.0,0.949
13.0,-2.0,0.95
4.0,-1.0,0.951
0.0,0.0,0.952
-4.0,3.0,0.953
-7.0,3.0,0.954
-11.0,0.0,0.955
-13.0,-1.0,0.956
-13.0,4.0,0.957
-14.0,7.0,0.958
-17.0,5.0,0.959
-18.0,-3.0,0.96
-16.0,-8.0,0.961
-8.0,-7.0,0.962
3.0,-4.0,0.963
11.0,-3.0,0.964
13.0,0.0,0.965
13.0,3.0,0.966
17.0,0.0,0.967
20.0,-6.0,0.968
21.0,-6.0,0.969
18.0,-1.0,0.97
17.0,0.0,0.971
17.0,-2.0,0.972
12.0,1.0,0.973
2.0,9.0,0.974
-6.0,10.0,0.975
-13.0,3.0,0.976
-15.0,0.0,0.977
-17.0,2.0,0.978
-14.0,5.0,0.979
-11.0,2.0,0.98
-11.0,-3.0,0.981
-8.0,-5.0,0.982
6.0,-4.0,0.983
21.0,-4.0,0.984
22.0,-2.0,0.985
13.0,0.0,0.986
5.0,-2.0,0.987
10.0,-6.0,0.988
19.0,-5.0,0.989
20.0,-1.0,0.99
16.0,0.0,0.991
11.0,-4.0,0.992
7.0,-4.0,0.993
1.0,1.0,0.994
-3.0,4.0,0.995
-7.0,2.0,0.996
-10.0,0.0,0.997
-15.0,-3.0,0.998
-18.0,-4.0,0.999
-17.0,-4.0,1.0
-11.0,-4.0,1.001
-7.0,-1.0,1.002
-1.0,-3.0,1.003
10.0,-4.0,1.004
20.0,-2.0,1.005
20.0,3.0,1.006
16.0,2.0,1.007
18.0,-4.0,1.008
25.0,-5.0,1.009
25.0,-2.0,1.01
14.0,-1.0,1.011
1.0,0.0,1.012
-6.0,1.0,1.013
-7.0,7.0,1.014
-10.0,10.0,1.015
-18.0,10.0,1.016
-23.0,10.0,1.017
-25.0,7.0,1.018
-20.0,2.0,1.019
-14.0,-3.0,1.02
-10.0,-8.0,1.021
-6.0,-7.0,1.022
2.0,-5.0,1.023
15.0,-3.0,1.024
20.0,-1.0,1.025
16.0,0.0,1.026
13.0,0.0,1.027
17.0,-4.0,1.028
19.0,-6.0,1.029
16.0,-5.0,1.03
8.0,-2.0,1.031
3.0,-1.0,1.032
0.0,0.0,1.033
-4.0,1.0,1.034
-6.0,1.0,1.035
-4.0,2.0,1.036
-2.0,5.0,1.037
-5.0,5.0,1.038
-11.0,5.0,1.039
-15.0,4.0,1.04
-12.0,0.0,1.041
-6.0,-4.0,1.042
6.0,-5.0,1.043
15.0,-5.0,1.044
15.0,-3.0,1.045
16.0,-1.0,1.046
18.0,-2.0,1.047
21.0,-4.0,1.048
21.0,-3.0,1.049
18.0,-2.0,1.05
11.0,0.0,1.051
5.0,1.0,1.052
1.0,5.0,1.053
-4.0,8.0,1.054
-8.0,6.0,1.055
-11.0,5.0,1.056
-13.0,4.0,1.057
-17.0,2.0,1.058
-16.0,2.0,1.059
-15.0,0.0,1.06
-15.0,-6.0,1.061
-9.0,-8.0,1.062
5.0,-9.0,1.063
20.0,-7.0,1.064
24.0,-1.0,1.065
19.0,4.0,1.066
15.0,3.0,1.067
16.0,0.0,1.068
18.0,-3.0,1.069
16.0,-4.0,1.07
12.0,-2.0,1.071
7.0,0.0,1.072
2.0,1.0,1.073
-4.0,0.0,1.074
-11.0,-2.0,1.075
-12.0,-1.0,1.076
-8.0,3.0,1.077
-5.0,5.0,1.078
-9.0,2.0,1.079
-15.0,-1.0,1.08
-16.0,-5.0,1.081
-11.0,-6.0,1.082
0.0,-6.0,1.083
15.0,-2.0,1.084
24.0,2.0,1.085
25.0,2.0,1.086
22.0,-4.0,1.087
19.0,-8.0,1.088
17.0,-5.0,1.089
12.0,-1.0,1.09
7.0,0.0,1.091
6.0,-1.0,1.092
7.0,0.0,1.093
5.0,4.0,1.094
0.0,7.0,1.095
-3.0,6.0,1.096
-7.0,6.0,1.097
-14.0,4.0,1.098
-19.0,1.0,1.099
-21.0,-3.0,1.1
-17.0,-7.0,1.101
-10.0,-6.0,1.102
-1.0,-5.0,1.103
9.0,-5.0,1.104
18.0,-1.0,1.105
19.0,3.0,1.106
17.0,4.0,1.107
15.0,-1.0,1.108
16.0,-5.0,1.109
15.0,-4.0,1.11
11.0,0.0,1.111
2.0,0.0,1.112
-5.0,-1.0,1.113
-7.0,-1.0,1.114
-8.0,2.0,1.115
-9.0,4.0,1.116
-10.0,7.0,1.117
-10.0,7.0,1.118
-10.0,4.0,1.119
-14.0,0.0,1.12
-18.0,-4.0,1.121
-12.0,-6.0,1.122
3.0,-7.0,1.123
18.0,-9.0,1.124
24.0,-9.0,1.125
23.0,-8.0,1.126
23.0,-6.0,1.127
22.0,-6.0,1.128
19.0,-3.0,1.129
14.0,1.0,1.13
8.0,3.0,1.131
1.0,1.0,1.132
-4.0,2.0,1.133
-6.0,6.0,1.134
-5.0,7.0,1.135
-10.0,6.0,1.136
-17.0,8.0,1.137
-19.0,9.0,1.138
-18.0,6.0,1.139
-16.0,0.0,1.14
-17.0,-7.0,1.141
-11.0,-6.0,1.142
0.0,-5.0,1.143
13.0,-5.0,1.144
17.0,-4.0,1.145
19.0,-2.0,1.146
23.0,-4.0,1.147
28.0,-9.0,1.148
29.0,-9.0,1.149
24.0,-3.0,1.15
15.0,0.0,1.151
9.0,-2.0,1.152
3.0,-3.0,1.153
-4.0,2.0,1.154
-11.0,3.0,1.155
-15.0,2.0,1.156
-12.0,4.0,1.157
-12.0,10.0,1.158
-15.0,9.0,1.159
-22.0,4.0,1.16
-22.0,-4.0,1.161
-15.0,-5.0,1.162
-3.0,-8.0,1.163
11.0,-9.0,1.164
20.0,-7.0,1.165
25.0,-2.0,1.166
25.0,0.0,1.167
24.0,-1.0,1.168
23.0,0.0,1.169
18.0,1.0,1.17
11.0,-1.0,1.171
4.0,-3.0,1.172
-1.0,0.0,1.173
-5.0,6.0,1.174
-8.0,8.0,1.175
-8.0,7.0,1.176
-6.0,8.0,1.177
-8.0,7.0,1.178
-9.0,5.0,1.179
-10.0,2.0,1.18
-11.0,-3.0,1.181
-9.0,-3.0,1.182
2.0,-1.0,1.183
19.0,0.0,1.184
22.0,-2.0,1.185
12.0,-5.0,1.186
3.0,-7.0,1.187
8.0,-6.0,1.188
18.0,-2.0,1.189
18.0,1.0,1.19
12.0,3.0,1.191
8.0,2.0,1.192
6.0,0.0,1.193
1.0,-2.0,1.194
-3.0,-1.0,1.195
-5.0,2.0,1.196
-7.0,5.0,1.197
-16.0,4.0,1.198
-21.0,2.0,1.199
-20.0,0.0,1.2
-14.0,-3.0,1.201
-7.0,-6.0,1.202
3.0,-7.0,1.203
15.0,-5.0,1.204
21.0,-2.0,1.205
17.0,0.0,1.206
16.0,0.0,1.207
23.0,1.0,1.208
26.0,0.0,1.209
19.0,-3.0,1.21
9.0,-5.0,1.211
4.0,-4.0,1.212
4.0,0.0,1.213
0.0,3.0,1.214
-6.0,4.0,1.215
-11.0,2.0,1.216
-12.0,2.0,1.217
-16.0,2.0,1.218
-18.0,3.0,1.219
-18.0,1.0,1.22
-16.0,-3.0,1.221
-11.0,-4.0,1.222
0.0,-4.0,1.223
14.0,-3.0,1.224
22.0,-4.0,1.225
21.0,-5.0,1.226
19.0,-3.0,1.227
21.0,-4.0,1.228
22.0,-5.0,1.229
19.0,-5.0,1.23
12.0,-3.0,1.231
6.0,1.0,1.232
0.0,4.0,1.233
-7.0,5.0,1.234
-16.0,4.0,1.235
-20.0,3.0,1.236
-20.0,5.0,1.237
-18.0,6.0,1.238
-14.0,7.0,1.239
-10.0,4.0,1.24
-7.0,-2.0,1.241
-5.0,-5.0,1.242
2.0,-4.0,1.243
15.0,-1.0,1.244
20.0,-1.0,1.245
19.0,-5.0,1.246
18.0,-6.0,1.247
20.0,-5.0,1.248
20.0,-3.0,1.249
16.0,-3.0,1.25
13.0,-3.0,1.251
11.0,-3.0,1.252
8.0,-2.0,1.253
-3.0,3.0,1.254
-13.0,6.0,1.255
-16.0,7.0,1.256
-13.0,7.0,1.257
-15.0,6.0,1.258
-18.0,6.0,1.259
-19.0,3.0,1.26
-14.0,-4.0,1.261
-4.0,-5.0,1.262
7.0,-2.0,1.263
16.0,-2.0,1.264
17.0,-5.0,1.265
14.0,-4.0,1.266
15.0,0.0,1.267
21.0,-1.0,1.268
23.0,-6.0,1.269
19.0,-7.0,1.27
13.0,-3.0,1.271
8.0,-3.0,1.272
1.0,-6.0,1.273
-5.0,-7.0,1.274
-13.0,-2.0,1.275
-18.0,1.0,1.276
-19.0,0.0,1.277
-18.0,-1.0,1.278
-16.0,0.0,1.279
-15.0,0.0,1.28
-17.0,-7.0,1.281
-15.0,-8.0,1.282
-3.0,-6.0,1.283
13.0,-5.0,1.284
19.0,-3.0,1.285
18.0,-3.0,1.286
18.0,-5.0,1.287
23.0,-9.0,1.288
23.0,-9.0,1.289
16.0,-5.0,1.29
7.0,0.0,1.291
4.0,1.0,1.292
2.0,2.0,1.293
-1.0,5.0,1.294
-6.0,7.0,1.295
-11.0,3.0,1.296
-11.0,0.0,1.297
-12.0,2.0,1.298
-10.0,8.0,1.299
-7.0,11.0,1.3
-3.0,6.0,1.301
6.0,1.0,1.302
19.0,0.0,1.303
29.0,1.0,1.304
31.0,2.0,1.305
28.0,2.0,1.306
28.0,1.0,1.307
27.0,0.0,1.308
23.0,0.0,1.309
18.0,2.0,1.31
13.0,5.0,1.311
9.0,4.0,1.312
2.0,1.0,1.313
-4.0,1.0,1.314
-10.0,5.0,1.315
-16.0,8.0,1.316
-20.0,10.0,1.317
-22.0,7.0,1.318
-21.0,3.0,1.319
-23.0,0.0,1.32
-25.0,-4.0,1.321
-23.0,-2.0,1.322
-10.0,1.0,1.323
7.0,4.0,1.324
18.0,3.0,1.325
18.0,-2.0,1.326
16.0,-5.0,1.327
16.0,-5.0,1.328
18.0,-4.0,1.329
15.0,-5.0,1.33
10.0,-5.0,1.331
5.0,-3.0,1.332
0.0,-1.0,1.333
-7.0,-3.0,1.334
-13.0,-5.0,1.335
-15.0,-3.0,1.336
-13.0,1.0,1.337
-17.0,0.0,1.338
-19.0,0.0,1.339
-19.0,0.0,1.34
-13.0,-5.0,1.341
-5.0,-10.0,1.342
5.0,-13.0,1.343
16.0,-10.0,1.344
23.0,-5.0,1.345
24.0,-4.0,1.346
23.0,-5.0,1.347
23.0,-5.0,1.348
23.0,-4.0,1.349
18.0,0.0,1.35
13.0,0.0,1.351
8.0,0.0,1.352
5.0,2.0,1.353
0.0,3.0,1.354
-5.0,1.0,1.355
-9.0,1.0,1.356
-11.0,3.0,1.357
-14.0,3.0,1.358
-19.0,-1.0,1.359
-20.0,-5.0,1.36
-17.0,-7.0,1.361
-9.0,-5.0,1.362
2.0,-3.0,1.363
12.0,-3.0,1.364
15.0,-3.0,1.365
12.0,-1.0,1.366
10.0,0.0,1.367
14.0,-1.0,1.368
19.0,-2.0,1.369
21.0,0.0,1.37
18.0,4.0,1.371
14.0,5.0,1.372
8.0,4.0,1.373
0.0,6.0,1.374
-4.0,8.0,1.375
-5.0,8.0,1.376
-5.0,9.0,1.377
-11.0,8.0,1.378
-15.0,7.0,1.379
-14.0,2.0,1.38
-10.0,-5.0,1.381
-5.0,-4.0,1.382
2.0,-2.0,1.383
15.0,-2.0,1.384
22.0,-5.0,1.385
20.0,-6.0,1.386
16.0,-6.0,1.387
19.0,-6.0,1.388
20.0,-6.0,1.389
14.0,-3.0,1.39
5.0,-1.0,1.391
3.0,0.0,1.392
4.0,0.0,1.393
1.0,3.0,1.394
-2.0,5.0,1.395
-5.0,4.0,1.396
-9.0,4.0,1.397
-16.0,1.0,1.398
-20.0,0.0,1.399
-19.0,0.0,1.4
-16.0,-2.0,1.401
-12.0,-3.0,1.402
-3.0,-4.0,1.403
11.0,-4.0,1.404
16.0,-1.0,1.405
13.0,1.0,1.406
13.0,0.0,1.407
20.0,-4.0,1.408
23.0,-4.0,1.409
16.0,-1.0,1.41
8.0,-1.0,1.411
5.0,-1.0,1.412
7.0,1.0,1.413
1.0,3.0,1.414
-6.0,3.0,1.415
-11.0,2.0,1.416
-11.0,5.0,1.417
-16.0,5.0,1.418
-18.0,2.0,1.419
-17.0,-3.0,1.42
-14.0,-8.0,1.421
-7.0,-7.0,1.422
2.0,-5.0,1.423
12.0,-4.0,1.424
15.0,-1.0,1.425
14.0,0.0,1.426
17.0,-5.0,1.427
23.0,-7.0,1.428
22.0,-5.0,1.429
15.0,2.0,1.43
12.0,4.0,1.431
12.0,2.0,1.432
10.0,1.0,1.433
2.0,5.0,1.434
-4.0,9.0,1.435
-7.0,7.0,1.436
-12.0,5.0,1.437
-18.0,4.0,1.438
-19.0,1.0,1.439
-18.0,-3.0,1.44
-16.0,-7.0,1.441
-13.0,-5.0,1.442
-4.0,-1.0,1.443
12.0,-2.0,1.444
21.0,-5.0,1.445
19.0,-4.0,1.446
17.0,-4.0,1.447
22.0,-6.0,1.448
26.0,-7.0,1.449
21.0,-7.0,1.45
11.0,-3.0,1.451
2.0,-2.0,1.452
0.0,-1.0,1.453
-2.0,5.0,1.454
-4.0,9.0,1.455
-7.0,8.0,1.456
-11.0,6.0,1.457
-16.0,4.0,1.458
-19.0,5.0,1.459
-20.0,2.0,1.46
-20.0,-5.0,1.461
-16.0,-7.0,1.462
-4.0,-5.0,1.463
11.0,-3.0,1.464
19.0,-3.0,1.465
20.0,-2.0,1.466
23.0,-3.0,1.467
28.0,-5.0,1.468
28.0,-5.0,1.469
21.0,-1.0,1.47
12.0,3.0,1.471
7.0,1.0,1.472
0.0,-1.0,1.473
-8.0,0.0,1.474
-13.0,2.0,1.475
-10.0,0.0,1.476
-5.0,0.0,1.477
-7.0,0.0,1.478
-13.0,3.0,1.479
-15.0,2.0,1.48
-10.0,-2.0,1.481
-5.0,-3.0,1.482
-2.0,-3.0,1.483
6.0,-6.0,1.484
16.0,-4.0,1.485
23.0,1.0,1.486
25.0,4.0,1.487
23.0,0.0,1.488
21.0,-5.0,1.489
17.0,-1.0,1.49
11.0,5.0,1.491
6.0,4.0,1.492
2.0,2.0,1.493
-2.0,4.0,1.494
-6.0,6.0,1.495
-13.0,4.0,1.496
-17.0,2.0,1.497
-21.0,3.0,1.498
-22.0,5.0,1.499
-23.0,1.0,1.5
-23.0,-7.0,1.501
-17.0,-9.0,1.502
0.0,-6.0,1.503
18.0,-6.0,1.504
27.0,-6.0,1.505
28.0,-4.0,1.506
28.0,-5.0,1.507
30.0,-6.0,1.508
27.0,-4.0,1.509
19.0,3.0,1.51
12.0,8.0,1.511
9.0,5.0,1.512
1.0,0.0,1.513
-7.0,-2.0,1.514
-11.0,-2.0,1.515
-11.0,-4.0,1.516
-13.0,-1.0,1.517
-19.0,2.0,1.518
-22.0,5.0,1.519
-20.0,0.0,1.52
-16.0,-8.0,1.521
-12.0,-8.0,1.522
-1.0,-5.0,1.523
13.0,-2.0,1.524
20.0,0.0,1.525
17.0,3.0,1.526
14.0,-1.0,1.527
21.0,-4.0,1.528
26.0,-3.0,1.529
20.0,0.0,1.53
7.0,2.0,1.531
1.0,3.0,1.532
0.0,4.0,1.533
-3.0,5.0,1.534
-8.0,2.0,1.535
-11.0,0.0,1.536
-11.0,5.0,1.537
-15.0,10.0,1.538
-20.0,9.0,1.539
-21.0,4.0,1.54
-18.0,-2.0,1.541
-10.0,-3.0,1.542
3.0,-5.0,1.543
16.0,-7.0,1.544
20.0,-7.0,1.545
19.0,-5.0,1.546
20.0,-4.0,1.547
28.0,-7.0,1.548
31.0,-7.0,1.549
20.0,-4.0,1.55
9.0,0.0,1.551
2.0,-1.0,1.552
0.0,-2.0,1.553
-5.0,0.0,1.554
-10.0,5.0,1.555
-9.0,7.0,1.556
-5.0,7.0,1.557
-7.0,5.0,1.558
-10.0,4.0,1.559
-11.0,1.0,1.56
-9.0,-3.0,1.561
-5.0,-4.0,1.562
1.0,-4.0,1.563
9.0,-5.0,1.564
18.0,-4.0,1.565
19.0,-2.0,1.566
19.0,-1.0,1.567
19.0,-4.0,1.568
18.0,-7.0,1.569
16.0,-5.0,1.57
13.0,0.0,1.571
7.0,4.0,1.572
1.0,3.0,1.573
-6.0,3.0,1.574
-10.0,4.0,1.575
-11.0,3.0,1.576
-10.0,2.0,1.577
-13.0,1.0,1.578
-18.0,1.0,1.579
-20.0,1.0,1.58
-20.0,-4.0,1.581
-11.0,-7.0,1.582
3.0,-5.0,1.583
17.0,-2.0,1.584
24.0,0.0,1.585
21.0,0.0,1.586
20.0,-2.0,1.587
21.0,-2.0,1.588
20.0,-3.0,1.589
15.0,-3.0,1.59
9.0,-1.0,1.591
3.0,1.0,1.592
-2.0,3.0,1.593
-9.0,3.0,1.594
-11.0,1.0,1.595
-9.0,1.0,1.596
-7.0,5.0,1.597
-14.0,6.0,1.598
-20.0,3.0,1.599
-18.0,-2.0,1.6
-11.0,-6.0,1.601
-3.0,-5.0,1.602
4.0,-2.0,1.603
12.0,-2.0,1.604
18.0,-4.0,1.605
20.0,-1.0,1.606
21.0,0.0,1.607
21.0,-2.0,1.608
23.0,-5.0,1.609
21.0,-4.0,1.61
16.0,1.0,1.611
5.0,3.0,1.612
-3.0,1.0,1.613
-8.0,1.0,1.614
-10.0,5.0,1.615
-12.0,7.0,1.616
-14.0,8.0,1.617
-15.0,3.0,1.618
-15.0,0.0,1.619
-14.0,-1.0,1.62
-11.0,-7.0,1.621
-5.0,-10.0,1.622
2.0,-10.0,1.623
12.0,-7.0,1.624
16.0,-2.0,1.625
16.0,-1.0,1.626
14.0,-3.0,1.627
15.0,-8.0,1.628
19.0,-8.0,1.629
19.0,-4.0,1.63
11.0,1.0,1.631
1.0,4.0,1.632
-5.0,4.0,1.633
-7.0,4.0,1.634
-6.0,3.0,1.635
-7.0,3.0,1.636
-10.0,5.0,1.637
-16.0,4.0,1.638
-18.0,3.0,1.639
-15.0,2.0,1.64
-10.0,-2.0,1.641
-2.0,-5.0,1.642
8.0,-6.0,1.643
16.0,-4.0,1.644
19.0,-1.0,1.645
16.0,0.0,1.646
15.0,-2.0,1.647
19.0,-4.0,1.648
24.0,-4.0,1.649
21.0,0.0,1.65
15.0,0.0,1.651
11.0,-1.0,1.652
8.0,0.0,1.653
0.0,3.0,1.654
-7.0,5.0,1.655
-12.0,4.0,1.656
-13.0,6.0,1.657
-17.0,6.0,1.658
-19.0,6.0,1.659
-17.0,3.0,1.66
-15.0,-2.0,1.661
-10.0,-4.0,1.662
1.0,-3.0,1.663
16.0,-4.0,1.664
24.0,-3.0,1.665
24.0,0.0,1.666
22.0,0.0,1.667
22.0,-5.0,1.668
22.0,-7.0,1.669
17.0,-5.0,1.67
10.0,0.0,1.671
5.0,1.0,1.672
3.0,3.0,1.673
0.0,4.0,1.674
-7.0,4.0,1.675
-13.0,2.0,1.676
-15.0,1.0,1.677
-17.0,1.0,1.678
-19.0,0.0,1.679
-19.0,-1.0,1.68
-17.0,-5.0,1.681
-9.0,-6.0,1.682
3.0,-9.0,1.683
14.0,-11.0,1.684
18.0,-5.0,1.685
20.0,1.0,1.686
22.0,2.0,1.687
22.0,0.0,1.688
17.0,0.0,1.689
11.0,1.0,1.69
7.0,-1.0,1.691
9.0,-2.0,1.692
5.0,1.0,1.693
-1.0,6.0,1.694
-7.0,6.0,1.695
-11.0,4.0,1.696
-13.0,6.0,1.697
-17.0,7.0,1.698
-19.0,3.0,1.699
-19.0,-5.0,1.7
-16.0,-9.0,1.701
-10.0,-6.0,1.702
0.0,-3.0,1.703
13.0,-4.0,1.704
18.0,-4.0,1.705
15.0,-2.0,1.706
16.0,-1.0,1.707
21.0,-2.0,1.708
23.0,-3.0,1.709
17.0,0.0,1.71
9.0,2.0,1.711
5.0,2.0,1.712
1.0,-1.0,1.713
-4.0,-1.0,1.714
-10.0,2.0,1.715
-11.0,8.0,1.716
-9.0,9.0,1.717
-11.0,4.0,1.718
-13.0,-1.0,1.719
-15.0,-4.0,1.72
-12.0,-9.0,1.721
-5.0,-9.0,1.722
6.0,-6.0,1.723
16.0,-2.0,1.724
14.0,-1.0,1.725
8.0,-3.0,1.726
9.0,-4.0,1.727
19.0,-2.0,1.728
23.0,-3.0,1.729
17.0,-3.0,1.73
10.0,-2.0,1.731
9.0,0.0,1.732
10.0,3.0,1.733
1.0,3.0,1.734
-7.0,4.0,1.735
-9.0,5.0,1.736
-7.0,6.0,1.737
-11.0,1.0,1.738
-16.0,-1.0,1.739
-18.0,-3.0,1.74
-14.0,-7.0,1.741
-8.0,-8.0,1.742
3.0,-6.0,1.743
16.0,-4.0,1.744
23.0,-1.0,1.745
21.0,0.0,1.746
19.0,1.0,1.747
22.0,0.0,1.748
23.0,-3.0,1.749
17.0,-4.0,1.75
9.0,-1.0,1.751
7.0,0.0,1.752
3.0,-1.0,1.753
-6.0,-1.0,1.754
-14.0,2.0,1.755
-15.0,4.0,1.756
-10.0,4.0,1.757
-12.0,3.0,1.758
-16.0,2.0,1.759
-16.0,-2.0,1.76
-14.0,-7.0,1.761
-10.0,-9.0,1.762
1.0,-6.0,1.763
15.0,-2.0,1.764
21.0,0.0,1.765
17.0,2.0,1.766
15.0,0.0,1.767
21.0,-4.0,1.768
22.0,-3.0,1.769
15.0,2.0,1.77
8.0,5.0,1.771
8.0,2.0,1.772
9.0,2.0,1.773
1.0,8.0,1.774
-9.0,12.0,1.775
-14.0,9.0,1.776
-11.0,6.0,1.777
-6.0,7.0,1.778
-8.0,9.0,1.779
-11.0,5.0,1.78
-12.0,-5.0,1.781
-8.0,-7.0,1.782
1.0,-5.0,1.783
13.0,-3.0,1.784
20.0,-3.0,1.785
19.0,-3.0,1.786
17.0,-2.0,1.787
17.0,-6.0,1.788
18.0,-7.0,1.789
18.0,-3.0,1.79
13.0,1.0,1.791
4.0,2.0,1.792
-3.0,1.0,1.793
-8.0,1.0,1.794
-13.0,3.0,1.795
-19.0,2.0,1.796
-21.0,4.0,1.797
-18.0,3.0,1.798
-11.0,0.0,1.799
-12.0,-5.0,1.8
-15.0,-11.0,1.801
-13.0,-9.0,1.802
0.0,-7.0,1.803
11.0,-5.0,1.804
16.0,-1.0,1.805
20.0,0.0,1.806
24.0,-3.0,1.807
25.0,-9.0,1.808
20.0,-9.0,1.809
15.0,-3.0,1.81
14.0,0.0,1.811
8.0,0.0,1.812
-1.0,1.0,1.813
-10.0,5.0,1.814
-12.0,7.0,1.815
-14.0,5.0,1.816
-17.0,6.0,1.817
-20.0,5.0,1.818
-20.0,4.0,1.819
-18.0,1.0,1.82
-17.0,-3.0,1.821
-11.0,-7.0,1.822
1.0,-8.0,1.823
13.0,-7.0,1.824
17.0,-1.0,1.825
17.0,2.0,1.826
19.0,-1.0,1.827
25.0,-4.0,1.828
27.0,-4.0,1.829
22.0,-1.0,1.83
16.0,2.0,1.831
9.0,3.0,1.832
3.0,5.0,1.833
0.0,9.0,1.834
-1.0,9.0,1.835
-3.0,7.0,1.836
-5.0,6.0,1.837
-9.0,4.0,1.838
-13.0,1.0,1.839
-17.0,-2.0,1.84
-16.0,-6.0,1.841
-7.0,-6.0,1.842
3.0,-5.0,1.843
14.0,-3.0,1.844
18.0,-2.0,1.845
17.0,-1.0,1.846
15.0,-3.0,1.847
16.0,-6.0,1.848
18.0,-6.0,1.849
19.0,-5.0,1.85
15.0,-3.0,1.851
8.0,-1.0,1.852
-1.0,2.0,1.853
-9.0,6.0,1.854
-14.0,5.0,1.855
-15.0,4.0,1.856
-15.0,7.0,1.857
-18.0,7.0,1.858
-20.0,3.0,1.859
-20.0,-4.0,1.86
-17.0,-10.0,1.861
-11.0,-10.0,1.862
-2.0,-8.0,1.863
12.0,-5.0,1.864
20.0,-4.0,1.865
20.0,-4.0,1.866
17.0,-4.0,1.867
20.0,-4.0,1.868
22.0,-6.0,1.869
17.0,-8.0,1.87
8.0,-7.0,1.871
4.0,-2.0,1.872
4.0,0.0,1.873
0.0,1.0,1.874
-7.0,1.0,1.875
-12.0,3.0,1.876
-11.0,6.0,1.877
-15.0,2.0,1.878
-19.0,-3.0,1.879
-19.0,-6.0,1.88
-13.0,-8.0,1.881
-4.0,-7.0,1.882
2.0,-5.0,1.883
8.0,-4.0,1.884
14.0,-2.0,1.885
19.0,-2.0,1.886
24.0,-1.0,1.887
27.0,0.0,1.888
26.0,3.0,1.889
21.0,4.0,1.89
14.0,4.0,1.891
10.0,5.0,1.892
8.0,5.0,1.893
3.0,5.0,1.894
-3.0,6.0,1.895
-8.0,8.0,1.896
-8.0,12.0,1.897
-6.0,11.0,1.898
-4.0,8.0,1.899
-5.0,3.0,1.9
-7.0,-2.0,1.901
-4.0,-4.0,1.902
4.0,-4.0,1.903
15.0,-4.0,1.904
20.0,-4.0,1.905
20.0,-2.0,1.906
20.0,-2.0,1.907
21.0,-3.0,1.908
19.0,-3.0,1.909
11.0,0.0,1.91
4.0,3.0,1.911
3.0,6.0,1.912
2.0,8.0,1.913
-5.0,9.0,1.914
-13.0,7.0,1.915
-18.0,3.0,1.916
-20.0,4.0,1.917
-24.0,5.0,1.918
-25.0,5.0,1.919
-21.0,3.0,1.92
-17.0,-1.0,1.921
-13.0,-4.0,1.922
-2.0,-3.0,1.923
12.0,-2.0,1.924
16.0,-3.0,1.925
11.0,-4.0,1.926
11.0,-4.0,1.927
20.0,-3.0,1.928
25.0,-5.0,1.929
18.0,-7.0,1.93
6.0,-5.0,1.931
0.0,-3.0,1.932
0.0,-3.0,1.933
-3.0,-3.0,1.934
-11.0,-3.0,1.935
-15.0,-2.0,1.936
-14.0,0.0,1.937
-13.0,1.0,1.938
-13.0,-1.0,1.939
-15.0,-4.0,1.94
-11.0,-9.0,1.941
-3.0,-9.0,1.942
6.0,-10.0,1.943
12.0,-9.0,1.944
15.0,-2.0,1.945
18.0,3.0,1.946
22.0,0.0,1.947
24.0,-5.0,1.948
21.0,-5.0,1.949
15.0,0.0,1.95
11.0,0.0,1.951
7.0,-2.0,1.952
3.0,-1.0,1.953
-2.0,5.0,1.954
-7.0,8.0,1.955
-13.0,7.0,1.956
-15.0,9.0,1.957
-17.0,8.0,1.958
-16.0,3.0,1.959
-14.0,-2.0,1.96
-10.0,-7.0,1.961
-2.0,-8.0,1.962
9.0,-9.0,1.963
19.0,-7.0,1.964
23.0,-2.0,1.965
23.0,1.0,1.966
23.0,0.0,1.967
24.0,-3.0,1.968
23.0,-4.0,1.969
19.0,-1.0,1.97
14.0,0.0,1.971
5.0,-2.0,1.972
-4.0,-1.0,1.973
-10.0,4.0,1.974
-11.0,9.0,1.975
-10.0,10.0,1.976
-8.0,8.0,1.977
-10.0,6.0,1.978
-11.0,4.0,1.979
-11.0,2.0,1.98
-9.0,-3.0,1.981
-4.0,-5.0,1.982
6.0,-4.0,1.983
16.0,-1.0,1.984
22.0,1.0,1.985
23.0,1.0,1.986
21.0,-3.0,1.987
21.0,-6.0,1.988
19.0,-4.0,1.989
14.0,1.0,1.99
7.0,2.0,1.991
2.0,-1.0,1.992
-2.0,0.0,1.993
-5.0,2.0,1.994
-10.0,4.0,1.995
-15.0,3.0,1.996
-18.0,5.0,1.997
-20.0,3.0,1.998
-20.0,0.0,1.999
-19.0,-3.0,2.0
-15.0,-8.0,2.001
-8.0,-7.0,2.002
3.0,-4.0,2.003
15.0,-3.0,2.004
20.0,-3.0,2.005
19.0,-4.0,2.006
19.0,-4.0,2.007
23.0,-5.0,2.008
23.0,-5.0,2.009
15.0,-2.0,2.01
7.0,2.0,2.011
6.0,5.0,2.012
5.0,3.0,2.013
-1.0,0.0,2.014
-8.0,-1.0,2.015
-9.0,0.0,2.016
-8.0,7.0,2.017
-13.0,10.0,2.018
-17.0,7.0,2.019
-17.0,0.0,2.02
-10.0,-8.0,2.021
-4.0,-8.0,2.022
3.0,-6.0,2.023
13.0,-5.0,2.024
19.0,-5.0,2.025
16.0,-3.0,2.026
12.0,-1.0,2.027
15.0,-2.0,2.028
17.0,-2.0,2.029
14.0,1.0,2.03
7.0,4.0,2.031
3.0,3.0,2.032
2.0,2.0,2.033
-1.0,4.0,2.034
-6.0,7.0,2.035
-11.0,8.0,2.036
-13.0,5.0,2.037
-18.0,0.0,2.038
-20.0,-2.0,2.039
-17.0,0.0,2.04
-13.0,-5.0,2.041
-7.0,-8.0,2.042
2.0,-7.0,2.043
13.0,-2.0,2.044
20.0,1.0,2.045
21.0,0.0,2.046
22.0,-4.0,2.047
23.0,-3.0,2.048
21.0,0.0,2.049
17.0,2.0,2.05
13.0,0.0,2.051
8.0,-2.0,2.052
2.0,0.0,2.053
-5.0,4.0,2.054
-10.0,5.0,2.055
-11.0,4.0,2.056
-11.0,5.0,2.057
-12.0,4.0,2.058
-14.0,0.0,2.059
-13.0,-3.0,2.06
-11.0,-7.0,2.061
-7.0,-8.0,2.062
5.0,-8.0,2.063
19.0,-7.0,2.064
23.0,-4.0,2.065
18.0,-3.0,2.066
17.0,-4.0,2.067
19.0,-5.0,2.068
19.0,-3.0,2.069
12.0,-2.0,2.07
7.0,-1.0,2.071
8.0,0.0,2.072
3.0,1.0,2.073
-4.0,4.0,2.074
-8.0,9.0,2.075
-5.0,11.0,2.076
-5.0,11.0,2.077
-13.0,6.0,2.078
-19.0,-1.0,2.079
-18.0,-4.0,2.08
-12.0,-7.0,2.081
-7.0,-9.0,2.082
0.0,-8.0,2.083
14.0,-4.0,2.084
23.0,0.0,2.085
22.0,-2.0,2.086
19.0,-5.0,2.087
19.0,-7.0,2.088
18.0,-4.0,2.089
12.0,-2.0,2.09
3.0,-2.0,2.091
-1.0,-1.0,2.092
-5.0,-1.0,2.093
-11.0,1.0,2.094
-15.0,2.0,2.095
-15.0,2.0,2.096
-11.0,3.0,2.097
-11.0,3.0,2.098
-9.0,4.0,2.099
-7.0,4.0,2.1
-4.0,0.0,2.101
-1.0,-4.0,2.102
6.0,-4.0,2.103
16.0,-5.0,2.104
21.0,-3.0,2.105
17.0,-2.0,2.106
13.0,-2.0,2.107
15.0,-3.0,2.108
18.0,-3.0,2.109
16.0,-2.0,2.11
10.0,0.0,2.111
5.0,3.0,2.112
1.0,4.0,2.113
-5.0,6.0,2.114
-10.0,7.0,2.115
-12.0,7.0,2.116
-11.0,5.0,2.117
-13.0,3.0,2.118
-13.0,2.0,2.119
-12.0,0.0,2.12
-10.0,-7.0,2.121
-4.0,-8.0,2.122
5.0,-6.0,2.123
14.0,-5.0,2.124
16.0,-4.0,2.125
14.0,-3.0,2.126
15.0,-2.0,2.127
20.0,-4.0,2.128
20.0,-6.0,2.129
15.0,-5.0,2.13
11.0,-1.0,2.131
10.0,1.0,2.132
5.0,4.0,2.133
0.0,7.0,2.134
-5.0,8.0,2.135
-8.0,5.0,2.136
-12.0,3.0,2.137
-15.0,1.0,2.138
-15.0,0.0,2.139
-12.0,-3.0,2.14
-10.0,-8.0,2.141
-8.0,-8.0,2.142
0.0,-5.0,2.143
11.0,-2.0,2.144
18.0,0.0,2.145
17.0,0.0,2.146
15.0,-4.0,2.147
18.0,-7.0,2.148
21.0,-6.0,2.149
18.0,-1.0,2.15
11.0,0.0,2.151
5.0,-1.0,2.152
0.0,1.0,2.153
-5.0,7.0,2.154
-7.0,9.0,2.155
-7.0,6.0,2.156
-8.0,4.0,2.157
-15.0,5.0,2.158
-19.0,5.0,2.159
-19.0,-1.0,2.16
-15.0,-9.0,2.161
-10.0,-9.0,2.162
0.0,-8.0,2.163
14.0,-7.0,2.164
21.0,-6.0,2.165
20.0,0.0,2.166
16.0,2.0,2.167
18.0,-1.0,2.168
21.0,-6.0,2.169
17.0,-3.0,2.17
10.0,3.0,2.171
4.0,6.0,2.172
1.0,5.0,2.173
-4.0,6.0,2.174
-10.0,7.0,2.175
-14.0,6.0,2.176
-15.0,4.0,2.177
-15.0,2.0,2.178
-13.0,0.0,2.179
-10.0,-3.0,2.18
-6.0,-8.0,2.181
-2.0,-6.0,2.182
6.0,-4.0,2.183
17.0,-2.0,2.184
21.0,-2.0,2.185
19.0,-2.0,2.186
18.0,-3.0,2.187
20.0,-7.0,2.188
21.0,-7.0,2.189
15.0,-3.0,2.19
6.0,0.0,2.191
0.0,3.0,2.192
-3.0,3.0,2.193
-7.0,4.0,2.194
-9.0,5.0,2.195
-7.0,4.0,2.196
-6.0,4.0,2.197
-9.0,5.0,2.198
-13.0,4.0,2.199
-13.0,1.0,2.2
-10.0,-4.0,2.201
-4.0,-7.0,2.202
4.0,-7.0,2.203
15.0,-7.0,2.204
21.0,-5.0,2.205
18.0,-1.0,2.206
15.0,0.0,2.207
16.0,-3.0,2.208
16.0,-6.0,2.209
12.0,-5.0,2.21
5.0,0.0,2.211
2.0,1.0,2.212
-1.0,3.0,2.213
-8.0,5.0,2.214
-14.0,4.0,2.215
-16.0,0.0,2.216
-15.0,-1.0,2.217
-17.0,2.0,2.218
-17.0,4.0,2.219
-13.0,-1.0,2.22
-8.0,-11.0,2.221
-3.0,-11.0,2.222
5.0,-6.0,2.223
16.0,-1.0,2.224
22.0,-1.0,2.225
21.0,-1.0,2.226
20.0,-3.0,2.227
22.0,-6.0,2.228
22.0,-6.0,2.229
17.0,-3.0,2.23
11.0,2.0,2.231
4.0,2.0,2.232
-4.0,1.0,2.233
-12.0,1.0,2.234
-16.0,2.0,2.235
-13.0,3.0,2.236
-10.0,3.0,2.237
-11.0,3.0,2.238
-11.0,4.0,2.239
-10.0,2.0,2.24
-9.0,-1.0,2.241
-6.0,-2.0,2.242
3.0,-4.0,2.243
16.0,-3.0,2.244
22.0,-1.0,2.245
21.0,1.0,2.246
20.0,1.0,2.247
20.0,-3.0,2.248
19.0,-5.0,2.249
15.0,-1.0,2.25
6.0,0.0,2.251
0.0,-1.0,2.252
-4.0,-2.0,2.253
-8.0,1.0,2.254
-10.0,4.0,2.255
-12.0,5.0,2.256
-12.0,3.0,2.257
-14.0,0.0,2.258
-16.0,-2.0,2.259
-17.0,-2.0,2.26
-15.0,-5.0,2.261
-5.0,-5.0,2.262
11.0,-6.0,2.263
25.0,-6.0,2.264
31.0,-1.0,2.265
28.0,2.0,2.266
23.0,0.0,2.267
21.0,-5.0,2.268
19.0,-5.0,2.269
9.0,0.0,2.27
-3.0,3.0,2.271
-8.0,1.0,2.272
-7.0,1.0,2.273
-7.0,2.0,2.274
-8.0,1.0,2.275
-9.0,-1.0,2.276
-8.0,0.0,2.277
-8.0,2.0,2.278
-12.0,3.0,2.279
-13.0,1.0,2.28
-7.0,-3.0,2.281
-2.0,-4.0,2.282
4.0,-4.0,2.283
12.0,-4.0,2.284
18.0,-1.0,2.285
17.0,0.0,2.286
13.0,0.0,2.287
14.0,-2.0,2.288
17.0,-3.0,2.289
17.0,-2.0,2.29
8.0,-1.0,2.291
0.0,1.0,2.292
-3.0,4.0,2.293
-6.0,4.0,2.294
-13.0,1.0,2.295
-17.0,-2.0,2.296
-17.0,0.0,2.297
-17.0,1.0,2.298
-17.0,1.0,2.299
-15.0,-4.0,2.3
-7.0,-10.0,2.301
1.0,-9.0,2.302
11.0,-5.0,2.303
20.0,-2.0,2.304
22.0,-4.0,2.305
21.0,-5.0,2.306
22.0,-3.0,2.307
26.0,-2.0,2.308
24.0,0.0,2.309
14.0,0.0,2.31
5.0,0.0,2.311
2.0,-1.0,2.312
-1.0,-3.0,2.313
-9.0,0.0,2.314
-17.0,5.0,2.315
-17.0,8.0,2.316
-15.0,7.0,2.317
-15.0,1.0,2.318
-16.0,-1.0,2.319
-16.0,-2.0,2.32
-14.0,-5.0,2.321
-9.0,-6.0,2.322
2.0,-6.0,2.323
16.0,-2.0,2.324
22.0,1.0,2.325
20.0,1.0,2.326
18.0,-3.0,2.327
22.0,-6.0,2.328
23.0,-4.0,2.329
16.0,0.0,2.33
6.0,3.0,2.331
2.0,2.0,2.332
0.0,0.0,2.333
-4.0,1.0,2.334
-9.0,4.0,2.335
-13.0,7.0,2.336
-13.0,8.0,2.337
-13.0,5.0,2.338
-10.0,3.0,2.339
-8.0,0.0,2.34
-8.0,-5.0,2.341
-4.0,-8.0,2.342
2.0,-10.0,2.343
11.0,-9.0,2.344
13.0,-5.0,2.345
13.0,-3.0,2.346
19.0,-5.0,2.347
28.0,-7.0,2.348
31.0,-7.0,2.349
24.0,-2.0,2.35
13.0,2.0,2.351
4.0,3.0,2.352
-4.0,5.0,2.353
-15.0,7.0,2.354
-20.0,8.0,2.355
-18.0,8.0,2.356
-15.0,9.0,2.357
-17.0,5.0,2.358
-20.0,2.0,2.359
-17.0,1.0,2.36
-9.0,-2.0,2.361
-3.0,-5.0,2.362
8.0,-6.0,2.363
23.0,-4.0,2.364
31.0,-2.0,2.365
26.0,-1.0,2.366
20.0,-4.0,2.367
20.0,-6.0,2.368
22.0,-2.0,2.369
17.0,2.0,2.37
10.0,0.0,2.371
6.0,-3.0,2.372
-1.0,-1.0,2.373
-10.0,4.0,2.374
-18.0,4.0,2.375
-17.0,3.0,2.376
-15.0,4.0,2.377
-16.0,5.0,2.378
-19.0,3.0,2.379
-17.0,-3.0,2.38
-11.0,-10.0,2.381
-4.0,-13.0,2.382
5.0,-10.0,2.383
17.0,-4.0,2.384
22.0,-1.0,2.385
19.0,-1.0,2.386
18.0,-6.0,2.387
22.0,-8.0,2.388
24.0,-6.0,2.389
16.0,-2.0,2.39
4.0,0.0,2.391
0.0,-1.0,2.392
-3.0,0.0,2.393
-8.0,3.0,2.394
-15.0,5.0,2.395
-18.0,4.0,2.396
-18.0,3.0,2.397
-17.0,3.0,2.398
-15.0,2.0,2.399
-15.0,1.0,2.4
-12.0,-3.0,2.401
-7.0,-3.0,2.402
4.0,-3.0,2.403
16.0,-3.0,2.404
21.0,-1.0,2.405
22.0,0.0,2.406
22.0,2.0,2.407
24.0,-2.0,2.408
23.0,-3.0,2.409
16.0,0.0,2.41
9.0,3.0,2.411
6.0,1.0,2.412
1.0,0.0,2.413
-6.0,2.0,2.414
-12.0,6.0,2.415
-15.0,5.0,2.416
-13.0,3.0,2.417
-13.0,3.0,2.418
-13.0,2.0,2.419
-12.0,-3.0,2.42
-11.0,-11.0,2.421
-5.0,-7.0,2.422
5.0,0.0,2.423
18.0,1.0,2.424
23.0,-1.0,2.425
21.0,-3.0,2.426
20.0,-4.0,2.427
23.0,-7.0,2.428
21.0,-6.0,2.429
12.0,-2.0,2.43
5.0,4.0,2.431
4.0,6.0,2.432
2.0,5.0,2.433
-8.0,8.0,2.434
-18.0,8.0,2.435
-18.0,5.0,2.436
-14.0,3.0,2.437
-14.0,2.0,2.438
-15.0,2.0,2.439
-14.0,-2.0,2.44
-10.0,-6.0,2.441
-6.0,-4.0,2.442
1.0,-2.0,2.443
14.0,-5.0,2.444
21.0,-7.0,2.445
20.0,-6.0,2.446
17.0,-6.0,2.447
21.0,-8.0,2.448
23.0,-8.0,2.449
17.0,-6.0,2.45
7.0,-3.0,2.451
1.0,-4.0,2.452
-2.0,-3.0,2.453
-8.0,0.0,2.454
-15.0,-1.0,2.455
-16.0,-4.0,2.456
-13.0,-3.0,2.457
-10.0,-2.0,2.458
-7.0,-1.0,2.459
-4.0,-5.0,2.46
-3.0,-8.0,2.461
-3.0,-7.0,2.462
0.0,-4.0,2.463
10.0,-4.0,2.464
19.0,-6.0,2.465
21.0,-3.0,2.466
19.0,0.0,2.467
18.0,-2.0,2.468
16.0,-4.0,2.469
11.0,-3.0,2.47
6.0,0.0,2.471
5.0,1.0,2.472
3.0,1.0,2.473
-2.0,3.0,2.474
-7.0,3.0,2.475
-11.0,1.0,2.476
-14.0,4.0,2.477
-15.0,7.0,2.478
-13.0,8.0,2.479
-10.0,2.0,2.48
-7.0,-7.0,2.481
-1.0,-8.0,2.482
9.0,-4.0,2.483
18.0,2.0,2.484
22.0,5.0,2.485
25.0,6.0,2.486
25.0,4.0,2.487
24.0,2.0,2.488
20.0,1.0,2.489
15.0,2.0,2.49
7.0,4.0,2.491
0.0,5.0,2.492
-1.0,5.0,2.493
-4.0,5.0,2.494
-8.0,5.0,2.495
-11.0,7.0,2.496
-11.0,10.0,2.497
-13.0,10.0,2.498
-12.0,6.0,2.499
-12.0,3.0,2.5
-11.0,-1.0,2.501
-8.0,-2.0,2.502
1.0,-3.0,2.503
15.0,-3.0,2.504
21.0,-1.0,2.505
18.0,0.0,2.506
17.0,-4.0,2.507
22.0,-10.0,2.508
22.0,-8.0,2.509
10.0,-1.0,2.51
-2.0,2.0,2.511
-4.0,-2.0,2.512
-5.0,-5.0,2.513
-14.0,-2.0,2.514
-20.0,1.0,2.515
-18.0,2.0,2.516
-15.0,1.0,2.517
-20.0,1.0,2.518
-24.0,-1.0,2.519
-19.0,-5.0,2.52
-11.0,-9.0,2.521
-6.0,-9.0,2.522
0.0,-8.0,2.523
14.0,-9.0,2.524
23.0,-8.0,2.525
21.0,-6.0,2.526
18.0,-8.0,2.527
19.0,-10.0,2.528
18.0,-8.0,2.529
14.0,-1.0,2.53
9.0,1.0,2.531
7.0,1.0,2.532
2.0,0.0,2.533
-1.0,3.0,2.534
-4.0,4.0,2.535
-4.0,4.0,2.536
-8.0,5.0,2.537
-13.0,5.0,2.538
-13.0,3.0,2.539
-10.0,1.0,2.54
-7.0,-3.0,2.541
-4.0,-5.0,2.542
6.0,-7.0,2.543
18.0,-6.0,2.544
22.0,0.0,2.545
19.0,4.0,2.546
18.0,3.0,2.547
21.0,-2.0,2.548
21.0,-3.0,2.549
12.0,0.0,2.55
4.0,2.0,2.551
0.0,3.0,2.552
-2.0,3.0,2.553
-8.0,2.0,2.554
-11.0,0.0,2.555
-9.0,0.0,2.556
-8.0,4.0,2.557
-14.0,2.0,2.558
-15.0,-1.0,2.559
-12.0,-4.0,2.56
-8.0,-7.0,2.561
-6.0,-7.0,2.562
1.0,-7.0,2.563
12.0,-6.0,2.564
19.0,-2.0,2.565
21.0,0.0,2.566
23.0,-3.0,2.567
27.0,-6.0,2.568
27.0,-3.0,2.569
22.0,2.0,2.57
14.0,3.0,2.571
3.0,0.0,2.572
-3.0,0.0,2.573
-7.0,5.0,2.574
-10.0,8.0,2.575
-15.0,5.0,2.576
-16.0,2.0,2.577
-16.0,2.0,2.578
-12.0,3.0,2.579
-11.0,1.0,2.58
-10.0,-7.0,2.581
-4.0,-11.0,2.582
6.0,-10.0,2.583
13.0,-7.0,2.584
12.0,-3.0,2.585
13.0,-2.0,2.586
20.0,-2.0,2.587
27.0,-3.0,2.588
24.0,-2.0,2.589
16.0,0.0,2.59
9.0,4.0,2.591
6.0,5.0,2.592
3.0,4.0,2.593
-1.0,2.0,2.594
-7.0,2.0,2.595
-13.0,2.0,2.596
-16.0,2.0,2.597
-19.0,2.0,2.598
-19.0,2.0,2.599
-19.0,0.0,2.6
-15.0,-6.0,2.601
-8.0,-10.0,2.602
4.0,-8.0,2.603
18.0,-4.0,2.604
20.0,-2.0,2.605
16.0,-3.0,2.606
15.0,-6.0,2.607
19.0,-6.0,2.608
20.0,-2.0,2.609
14.0,0.0,2.61
5.0,2.0,2.611
2.0,2.0,2.612
0.0,2.0,2.613
-4.0,1.0,2.614
-10.0,2.0,2.615
-11.0,5.0,2.616
-10.0,8.0,2.617
-11.0,5.0,2.618
-13.0,2.0,2.619
-14.0,0.0,2.62
-12.0,-4.0,2.621
-9.0,-8.0,2.622
0.0,-10.0,2.623
14.0,-7.0,2.624
21.0,-3.0,2.625
20.0,1.0,2.626
19.0,1.0,2.627
24.0,-5.0,2.628
24.0,-8.0,2.629
15.0,-3.0,2.63
4.0,4.0,2.631
2.0,7.0,2.632
2.0,5.0,2.633
-2.0,3.0,2.634
-7.0,4.0,2.635
-8.0,7.0,2.636
-7.0,8.0,2.637
-12.0,4.0,2.638
-14.0,0.0,2.639
-13.0,-2.0,2.64
-10.0,-5.0,2.641
-6.0,-5.0,2.642
2.0,-6.0,2.643
16.0,-6.0,2.644
21.0,-5.0,2.645
18.0,-2.0,2.646
17.0,1.0,2.647
20.0,0.0,2.648
20.0,-1.0,2.649
13.0,1.0,2.65
6.0,2.0,2.651
3.0,0.0,2.652
0.0,0.0,2.653
-5.0,2.0,2.654
-10.0,3.0,2.655
-13.0,1.0,2.656
-16.0,1.0,2.657
-19.0,1.0,2.658
-17.0,1.0,2.659
-11.0,-2.0,2.66
-5.0,-7.0,2.661
0.0,-7.0,2.662
6.0,-6.0,2.663
16.0,-4.0,2.664
20.0,2.0,2.665
20.0,6.0,2.666
21.0,3.0,2.667
21.0,-4.0,2.668
18.0,-6.0,2.669
10.0,0.0,2.67
2.0,3.0,2.671
-1.0,-1.0,2.672
-2.0,-3.0,2.673
-4.0,3.0,2.674
-8.0,9.0,2.675
-13.0,8.0,2.676
-18.0,4.0,2.677
-20.0,1.0,2.678
-16.0,1.0,2.679
-13.0,-1.0,2.68
-10.0,-8.0,2.681
-6.0,-14.0,2.682
10.0,-14.0,2.683
26.0,-8.0,2.684
31.0,0.0,2.685
25.0,2.0,2.686
21.0,-2.0,2.687
22.0,-6.0,2.688
22.0,-3.0,2.689
16.0,3.0,2.69
10.0,5.0,2.691
4.0,2.0,2.692
-4.0,0.0,2.693
-15.0,3.0,2.694
-18.0,7.0,2.695
-15.0,8.0,2.696
-11.0,7.0,2.697
-12.0,6.0,2.698
-12.0,3.0,2.699
-8.0,-1.0,2.7
-5.0,-8.0,2.701
-3.0,-8.0,2.702
4.0,-5.0,2.703
15.0,-2.0,2.704
25.0,-3.0,2.705
24.0,-5.0,2.706
20.0,-6.0,2.707
20.0,-6.0,2.708
22.0,-5.0,2.709
17.0,-1.0,2.71
7.0,3.0,2.711
-2.0,5.0,2.712
-8.0,5.0,2.713
-9.0,6.0,2.714
-11.0,7.0,2.715
-14.0,6.0,2.716
-17.0,7.0,2.717
-18.0,3.0,2.718
-14.0,1.0,2.719
-10.0,-2.0,2.72
-5.0,-9.0,2.721
-2.0,-11.0,2.722
3.0,-9.0,2.723
12.0,-6.0,2.724
17.0,-2.0,2.725
17.0,-3.0,2.726
17.0,-7.0,2.727
18.0,-7.0,2.728
18.0,-7.0,2.729
14.0,-3.0,2.73
8.0,-2.0,2.731
4.0,-2.0,2.732
3.0,4.0,2.733
-2.0,10.0,2.734
-10.0,9.0,2.735
-16.0,2.0,2.736
-16.0,1.0,2.737
-15.0,2.0,2.738
-13.0,3.0,2.739
-10.0,0.0,2.74
-5.0,-5.0,2.741
2.0,-5.0,2.742
10.0,-2.0,2.743
16.0,-4.0,2.744
19.0,-5.0,2.745
20.0,-2.0,2.746
22.0,-2.0,2.747
21.0,-3.0,2.748
15.0,-3.0,2.749
8.0,1.0,2.75
4.0,5.0,2.751
1.0,4.0,2.752
-5.0,2.0,2.753
-12.0,3.0,2.754
-15.0,3.0,2.755
-12.0,1.0,2.756
-12.0,1.0,2.757
-16.0,1.0,2.758
-16.0,-2.0,2.759
-9.0,-5.0,2.76
-3.0,-7.0,2.761
0.0,-3.0,2.762
8.0,-1.0,2.763
17.0,-1.0,2.764
21.0,-2.0,2.765
20.0,-1.0,2.766
19.0,-4.0,2.767
20.0,-7.0,2.768
18.0,-4.0,2.769
6.0,2.0,2.77
-4.0,2.0,2.771
-4.0,0.0,2.772
0.0,1.0,2.773
-1.0,5.0,2.774
-8.0,4.0,2.775
-11.0,1.0,2.776
-9.0,2.0,2.777
-11.0,3.0,2.778
-14.0,1.0,2.779
-15.0,-4.0,2.78
-10.0,-9.0,2.781
-3.0,-8.0,2.782
6.0,-7.0,2.783
15.0,-6.0,2.784
20.0,-4.0,2.785
20.0,-2.0,2.786
21.0,0.0,2.787
24.0,-2.0,2.788
24.0,-2.0,2.789
14.0,0.0,2.79
3.0,3.0,2.791
0.0,5.0,2.792
0.0,5.0,2.793
-6.0,4.0,2.794
-14.0,4.0,2.795
-14.0,6.0,2.796
-7.0,9.0,2.797
-6.0,6.0,2.798
-11.0,2.0,2.799
-17.0,-1.0,2.8
-13.0,-6.0,2.801
-3.0,-6.0,2.802
6.0,-6.0,2.803
13.0,-3.0,2.804
19.0,0.0,2.805
20.0,0.0,2.806
19.0,-2.0,2.807
17.0,-6.0,2.808
17.0,-6.0,2.809
15.0,0.0,2.81
9.0,3.0,2.811
2.0,1.0,2.812
-2.0,-2.0,2.813
-4.0,-3.0,2.814
-6.0,1.0,2.815
-12.0,5.0,2.816
-16.0,5.0,2.817
-16.0,0.0,2.818
-11.0,-2.0,2.819
-5.0,-3.0,2.82
-3.0,-7.0,2.821
-2.0,-10.0,2.822
3.0,-8.0,2.823
13.0,-2.0,2.824
19.0,0.0,2.825
19.0,0.0,2.826
21.0,-1.0,2.827
26.0,0.0,2.828
28.0,2.0,2.829
19.0,2.0,2.83
8.0,2.0,2.831
2.0,1.0,2.832
0.0,1.0,2.833
-3.0,3.0,2.834
-10.0,6.0,2.835
-13.0,8.0,2.836
-12.0,8.0,2.837
-13.0,6.0,2.838
-17.0,1.0,2.839
-19.0,-2.0,2.84
-14.0,-7.0,2.841
-5.0,-10.0,2.842
4.0,-9.0,2.843
14.0,-5.0,2.844
21.0,-3.0,2.845
24.0,-2.0,2.846
23.0,-3.0,2.847
21.0,-3.0,2.848
17.0,0.0,2.849
11.0,3.0,2.85
2.0,3.0,2.851
-2.0,0.0,2.852
-2.0,0.0,2.853
-3.0,3.0,2.854
-8.0,4.0,2.855
-16.0,1.0,2.856
-21.0,-1.0,2.857
-21.0,-3.0,2.858
-15.0,-3.0,2.859
-8.0,-5.0,2.86
-4.0,-10.0,2.861
-3.0,-11.0,2.862
3.0,-9.0,2.863
14.0,-6.0,2.864
19.0,-3.0,2.865
19.0,-1.0,2.866
18.0,-1.0,2.867
23.0,-3.0,2.868
26.0,-3.0,2.869
17.0,2.0,2.87
1.0,3.0,2.871
-9.0,1.0,2.872
-9.0,-1.0,2.873
-7.0,3.0,2.874
-11.0,8.0,2.875
-20.0,7.0,2.876
-23.0,4.0,2.877
-21.0,2.0,2.878
-13.0,3.0,2.879
-7.0,3.0,2.88
-4.0,-2.0,2.881
0.0,-6.0,2.882
12.0,-5.0,2.883
27.0,-4.0,2.884
31.0,-3.0,2.885
23.0,-3.0,2.886
18.0,-5.0,2.887
18.0,-5.0,2.888
18.0,-4.0,2.889
11.0,2.0,2.89
6.0,6.0,2.891
3.0,6.0,2.892
0.0,5.0,2.893
-3.0,5.0,2.894
-4.0,6.0,2.895
-6.0,6.0,2.896
-12.0,6.0,2.897
-19.0,3.0,2.898
-21.0,0.0,2.899
-21.0,-5.0,2.9
-20.0,-11.0,2.901
-14.0,-10.0,2.902
3.0,-8.0,2.903
20.0,-6.0,2.904
25.0,-7.0,2.905
21.0,-6.0,2.906
18.0,-5.0,2.907
20.0,-2.0,2.908
20.0,0.0,2.909
14.0,0.0,2.91
6.0,2.0,2.911
2.0,2.0,2.912
-2.0,3.0,2.913
-3.0,4.0,2.914
-3.0,8.0,2.915
-4.0,9.0,2.916
-9.0,9.0,2.917
-12.0,4.0,2.918
-10.0,-1.0,2.919
-8.0,-5.0,2.92
-7.0,-10.0,2.921
-4.0,-10.0,2.922
5.0,-9.0,2.923
17.0,-8.0,2.924
20.0,-5.0,2.925
20.0,-1.0,2.926
20.0,0.0,2.927
21.0,-2.0,2.928
17.0,-2.0,2.929
10.0,0.0,2.93
3.0,3.0,2.931
0.0,3.0,2.932
-3.0,3.0,2.933
-8.0,4.0,2.934
-10.0,7.0,2.935
-11.0,9.0,2.936
-10.0,9.0,2.937
-9.0,2.0,2.938
-5.0,-5.0,2.939
-6.0,-6.0,2.94
-7.0,-6.0,2.941
-6.0,-2.0,2.942
5.0,-2.0,2.943
18.0,-2.0,2.944
20.0,0.0,2.945
18.0,0.0,2.946
19.0,-2.0,2.947
20.0,-5.0,2.948
15.0,-1.0,2.949
4.0,4.0,2.95
-2.0,6.0,2.951
-3.0,4.0,2.952
-4.0,1.0,2.953
-7.0,2.0,2.954
-11.0,4.0,2.955
-16.0,3.0,2.956
-17.0,3.0,2.957
-17.0,0.0,2.958
-15.0,-3.0,2.959
-19.0,-5.0,2.96
-24.0,-7.0,2.961
-18.0,-6.0,2.962
4.0,-5.0,2.963
27.0,-6.0,2.964
37.0,-4.0,2.965
38.0,-2.0,2.966
42.0,-2.0,2.967
44.0,-5.0,2.968
37.0,-6.0,2.969
22.0,-4.0,2.97
10.0,0.0,2.971
2.0,2.0,2.972
-3.0,5.0,2.973
-10.0,11.0,2.974
-13.0,13.0,2.975
-15.0,9.0,2.976
-15.0,5.0,2.977
-17.0,3.0,2.978
-18.0,5.0,2.979
-19.0,2.0,2.98
-20.0,-6.0,2.981
-14.0,-9.0,2.982
3.0,-8.0,2.983
19.0,-6.0,2.984
23.0,-4.0,2.985
19.0,-2.0,2.986
14.0,-3.0,2.987
15.0,-5.0,2.988
16.0,-3.0,2.989
11.0,1.0,2.99
6.0,3.0,2.991
2.0,0.0,2.992
-2.0,-1.0,2.993
-10.0,2.0,2.994
-17.0,4.0,2.995
-17.0,2.0,2.996
-16.0,2.0,2.997
-14.0,3.0,2.998
-14.0,0.0,2.999
-13.0,-5.0,3.0
-8.0,-10.0,3.001
0.0,-8.0,3.002
12.0,-4.0,3.003
25.0,-4.0,3.004
27.0,-8.0,3.005
22.0,-7.0,3.006
18.0,-3.0,3.007
18.0,-1.0,3.008
16.0,-1.0,3.009
8.0,0.0,3.01
-1.0,1.0,3.011
-4.0,3.0,3.012
-4.0,4.0,3.013
-10.0,5.0,3.014
-17.0,4.0,3.015
-19.0,4.0,3.016
-15.0,7.0,3.017
-11.0,4.0,3.018
-12.0,-1.0,3.019
-14.0,-7.0,3.02
-11.0,-10.0,3.021
-2.0,-5.0,3.022
10.0,-3.0,3.023
19.0,-6.0,3.024
24.0,-7.0,3.025
24.0,-3.0,3.026
23.0,2.0,3.027
27.0,2.0,3.028
25.0,1.0,3.029
17.0,2.0,3.03
8.0,2.0,3.031
4.0,2.0,3.032
1.0,4.0,3.033
-7.0,7.0,3.034
-18.0,8.0,3.035
-21.0,5.0,3.036
-17.0,4.0,3.037
-18.0,2.0,3.038
-21.0,-2.0,3.039
-20.0,-5.0,3.04
-10.0,-9.0,3.041
3.0,-7.0,3.042
16.0,-4.0,3.043
23.0,-4.0,3.044
26.0,-5.0,3.045
22.0,-4.0,3.046
17.0,-6.0,3.047
14.0,-10.0,3.048
13.0,-11.0,3.049
11.0,-5.0,3.05
1.0,0.0,3.051
-16.0,1.0,3.052
-33.0,-1.0,3.053
-38.0,-1.0,3.054
-30.0,2.0,3.055
-20.0,4.0,3.056
-12.0,4.0,3.057
-8.0,0.0,3.058
-2.0,-3.0,3.059
7.0,-1.0,3.06
16.0,-3.0,3.061
23.0,-6.0,3.062
34.0,-9.0,3.063
47.0,-7.0,3.064
51.0,-2.0,3.065
44.0,2.0,3.066
30.0,0.0,3.067
22.0,-3.0,3.068
21.0,-1.0,3.069
20.0,4.0,3.07
14.0,7.0,3.071
1.0,8.0,3.072
-10.0,7.0,3.073
-14.0,9.0,3.074
-15.0,9.0,3.075
-17.0,7.0,3.076
-20.0,5.0,3.077
-22.0,6.0,3.078
-19.0,5.0,3.079
-15.0,0.0,3.08
-9.0,-6.0,3.081
-5.0,-7.0,3.082
4.0,-6.0,3.083
14.0,-5.0,3.084
19.0,-5.0,3.085
19.0,-2.0,3.086
15.0,0.0,3.087
8.0,-1.0,3.088
-2.0,-1.0,3.089
-8.0,0.0,3.09
-6.0,4.0,3.091
2.0,5.0,3.092
3.0,5.0,3.093
-7.0,6.0,3.094
-19.0,4.0,3.095
-22.0,3.0,3.096
-14.0,6.0,3.097
-6.0,8.0,3.098
0.0,7.0,3.099
-1.0,0.0,3.1
-5.0,-9.0,3.101
-10.0,-13.0,3.102
-3.0,-15.0,3.103
16.0,-17.0,3.104
32.0,-15.0,3.105
28.0,-12.0,3.106
6.0,-15.0,3.107
-16.0,-21.0,3.108
-27.0,-17.0,3.109
-25.0,1.0,3.11
-4.0,20.0,3.111
31.0,23.0,3.112
46.0,16.0,3.113
15.0,10.0,3.114
-42.0,6.0,3.115
-80.0,5.0,3.116
-70.0,8.0,3.117
-30.0,10.0,3.118
17.0,6.0,3.119
50.0,-3.0,3.12
65.0,-13.0,3.121
68.0,-12.0,3.122
63.0,-4.0,3.123
55.0,4.0,3.124
51.0,8.0,3.125
52.0,6.0,3.126
55.0,-1.0,3.127
43.0,-8.0,3.128
4.0,-8.0,3.129
-46.0,-4.0,3.13
-73.0,-5.0,3.131
-55.0,-10.0,3.132
-21.0,-11.0,3.133
-8.0,-4.0,3.134
-19.0,8.0,3.135
-20.0,16.0,3.136
0.0,20.0,3.137
26.0,12.0,3.138
29.0,1.0,3.139
13.0,-6.0,3.14
-1.0,-10.0,3.141
-3.0,-9.0,3.142
-3.0,-8.0,3.143
-4.0,-8.0,3.144
-1.0,-5.0,3.145
4.0,-4.0,3.146
5.0,-8.0,3.147
1.0,-10.0,3.148
-3.0,-5.0,3.149
-5.0,3.0,3.15
-8.0,3.0,3.151
-10.0,-2.0,3.152
-11.0,-2.0,3.153
-12.0,1.0,3.154
-13.0,3.0,3.155
-13.0,-1.0,3.156
-12.0,-1.0,3.157
-12.0,-1.0,3.158
-10.0,1.0,3.159
-9.0,0.0,3.16
-7.0,-6.0,3.161
-5.0,-8.0,3.162
3.0,-7.0,3.163
16.0,-2.0,3.164
23.0,0.0,3.165
22.0,0.0,3.166
17.0,-2.0,3.167
17.0,-4.0,3.168
14.0,-3.0,3.169
5.0,-2.0,3.17
-3.0,-1.0,3.171
-7.0,-1.0,3.172
-9.0,1.0,3.173
-12.0,5.0,3.174
-17.0,6.0,3.175
-19.0,3.0,3.176
-17.0,2.0,3.177
-14.0,1.0,3.178
-12.0,-1.0,3.179
-11.0,-4.0,3.18
-10.0,-9.0,3.181
-5.0,-7.0,3.182
10.0,-5.0,3.183
26.0,-6.0,3.184
35.0,-4.0,3.185
33.0,-1.0,3.186
32.0,4.0,3.187
32.0,4.0,3.188
27.0,3.0,3.189
18.0,4.0,3.19
9.0,4.0,3.191
6.0,0.0,3.192
5.0,0.0,3.193
-1.0,4.0,3.194
-8.0,5.0,3.195
-12.0,2.0,3.196
-11.0,1.0,3.197
-11.0,2.0,3.198
-12.0,3.0,3.199
-12.0,0.0,3.2
-9.0,-5.0,3.201
-3.0,-5.0,3.202
4.0,-6.0,3.203
12.0,-7.0,3.204
17.0,-2.0,3.205
20.0,3.0,3.206
23.0,4.0,3.207
24.0,-2.0,3.208
20.0,-7.0,3.209
14.0,-2.0,3.21
9.0,2.0,3.211
5.0,2.0,3.212
-1.0,-1.0,3.213
-8.0,0.0,3.214
-12.0,3.0,3.215
-15.0,3.0,3.216
-14.0,2.0,3.217
-12.0,2.0,3.218
-6.0,5.0,3.219
-4.0,3.0,3.22
-4.0,-6.0,3.221
-1.0,-11.0,3.222
9.0,-12.0,3.223
21.0,-9.0,3.224
23.0,-9.0,3.225
18.0,-5.0,3.226
17.0,5.0,3.227
18.0,10.0,3.228
16.0,6.0,3.229
8.0,0.0,3.23
0.0,-2.0,3.231
-1.0,0.0,3.232
0.0,3.0,3.233
-2.0,4.0,3.234
-7.0,4.0,3.235
-13.0,6.0,3.236
-15.0,12.0,3.237
-11.0,17.0,3.238
-3.0,18.0,3.239
0.0,16.0,3.24
-2.0,9.0,3.241
-2.0,5.0,3.242
6.0,-2.0,3.243
14.0,-10.0,3.244
10.0,-15.0,3.245
0.0,-17.0,3.246
-6.0,-19.0,3.247
-4.0,-21.0,3.248
-6.0,-20.0,3.249
-12.0,-18.0,3.25
-16.0,-21.0,3.251
-16.0,-21.0,3.252
-15.0,-12.0,3.253
-14.0,0.0,3.254
-9.0,6.0,3.255
-5.0,3.0,3.256
-7.0,2.0,3.257
-11.0,5.0,3.258
-6.0,6.0,3.259
3.0,3.0,3.26
11.0,0.0,3.261
15.0,4.0,3.262
24.0,9.0,3.263
35.0,8.0,3.264
35.0,5.0,3.265
26.0,3.0,3.266
18.0,2.0,3.267
15.0,-1.0,3.268
15.0,-1.0,3.269
9.0,3.0,3.27
5.0,8.0,3.271
2.0,5.0,3.272
-2.0,2.0,3.273
-9.0,0.0,3.274
-11.0,4.0,3.275
-7.0,8.0,3.276
-3.0,10.0,3.277
-3.0,6.0,3.278
-5.0,1.0,3.279
-6.0,-1.0,3.28
-8.0,-2.0,3.281
-9.0,-3.0,3.282
-7.0,-13.0,3.283
-4.0,-27.0,3.284
-4.0,-34.0,3.285
-1.0,-29.0,3.286
6.0,-19.0,3.287
15.0,-11.0,3.288
15.0,-7.0,3.289
6.0,-2.0,3.29
1.0,3.0,3.291
1.0,8.0,3.292
2.0,11.0,3.293
-1.0,10.0,3.294
-7.0,8.0,3.295
-10.0,8.0,3.296
-12.0,11.0,3.297
-22.0,8.0,3.298
-36.0,2.0,3.299
-42.0,-1.0,3.3
-22.0,-2.0,3.301
21.0,2.0,3.302
63.0,6.0,3.303
80.0,11.0,3.304
74.0,20.0,3.305
72.0,26.0,3.306
80.0,25.0,3.307
78.0,24.0,3.308
45.0,28.0,3.309
-3.0,28.0,3.31
-31.0,13.0,3.311
-36.0,-13.0,3.312
-38.0,-35.0,3.313
-47.0,-41.0,3.314
-45.0,-34.0,3.315
-32.0,-28.0,3.316
-27.0,-30.0,3.317
-37.0,-41.0,3.318
-34.0,-41.0,3.319
-11.0,-24.0,3.32
4.0,-5.0,3.321
-2.0,5.0,3.322
-7.0,4.0,3.323
14.0,5.0,3.324
36.0,10.0,3.325
27.0,11.0,3.326
7.0,6.0,3.327
8.0,4.0,3.328
22.0,11.0,3.329
18.0,20.0,3.33
4.0,19.0,3.331
2.0,13.0,3.332
9.0,11.0,3.333
0.0,11.0,3.334
-15.0,9.0,3.335
-19.0,7.0,3.336
-13.0,6.0,3.337
-15.0,1.0,3.338
-25.0,-9.0,3.339
-26.0,-21.0,3.34
-18.0,-28.0,3.341
-5.0,-20.0,3.342
8.0,-10.0,3.343
23.0,-4.0,3.344
30.0,-5.0,3.345
26.0,-7.0,3.346
22.0,-5.0,3.347
23.0,-1.0,3.348
24.0,0.0,3.349
16.0,3.0,3.35
7.0,4.0,3.351
5.0,6.0,3.352
6.0,8.0,3.353
-1.0,9.0,3.354
-8.0,9.0,3.355
-7.0,7.0,3.356
-4.0,7.0,3.357
-5.0,6.0,3.358
-9.0,4.0,3.359
-9.0,2.0,3.36
-3.0,-3.0,3.361
3.0,-7.0,3.362
12.0,-7.0,3.363
23.0,-4.0,3.364
30.0,-2.0,3.365
31.0,-1.0,3.366
30.0,-3.0,3.367
28.0,-1.0,3.368
17.0,3.0,3.369
-3.0,7.0,3.37
-16.0,5.0,3.371
-15.0,2.0,3.372
-8.0,0.0,3.373
-14.0,-2.0,3.374
-25.0,-4.0,3.375
-28.0,-2.0,3.376
-21.0,2.0,3.377
-17.0,2.0,3.378
-16.0,-1.0,3.379
-17.0,-4.0,3.38
-13.0,-6.0,3.381
-4.0,-8.0,3.382
7.0,-6.0,3.383
16.0,-4.0,3.384
14.0,-1.0,3.385
3.0,1.0,3.386
0.0,0.0,3.387
11.0,-3.0,3.388
21.0,-1.0,3.389
16.0,0.0,3.39
0.0,0.0,3.391
-10.0,0.0,3.392
-8.0,4.0,3.393
0.0,7.0,3.394
4.0,7.0,3.395
2.0,8.0,3.396
0.0,8.0,3.397
-2.0,7.0,3.398
1.0,3.0,3.399
6.0,-1.0,3.4
13.0,-6.0,3.401
17.0,-8.0,3.402
18.0,-13.0,3.403
19.0,-20.0,3.404
24.0,-18.0,3.405
24.0,-10.0,3.406
10.0,-3.0,3.407
-18.0,-3.0,3.408
-43.0,-6.0,3.409
-51.0,-2.0,3.41
-46.0,4.0,3.411
-34.0,5.0,3.412
-19.0,1.0,3.413
1.0,-3.0,3.414
26.0,-1.0,3.415
51.0,3.0,3.416
71.0,9.0,3.417
76.0,14.0,3.418
69.0,19.0,3.419
53.0,21.0,3.42
42.0,13.0,3.421
37.0,4.0,3.422
35.0,1.0,3.423
29.0,6.0,3.424
21.0,10.0,3.425
9.0,4.0,3.426
-7.0,-15.0,3.427
-21.0,-32.0,3.428
-29.0,-30.0,3.429
-30.0,-12.0,3.43
-32.0,-2.0,3.431
-34.0,-6.0,3.432
-32.0,-10.0,3.433
-27.0,-4.0,3.434
-28.0,5.0,3.435
-35.0,6.0,3.436
-38.0,3.0,3.437
-33.0,1.0,3.438
-25.0,2.0,3.439
-22.0,-2.0,3.44
-26.0,-11.0,3.441
-34.0,-15.0,3.442
-41.0,-17.0,3.443
-39.0,-18.0,3.444
-6.0,-13.0,3.445
51.0,-7.0,3.446
90.0,-6.0,3.447
61.0,-7.0,3.448
-23.0,0.0,3.449
-112.0,14.0,3.45
-165.0,22.0,3.451
-181.0,17.0,3.452
-152.0,10.0,3.453
-69.0,7.0,3.454
40.0,3.0,3.455
128.0,-1.0,3.456
181.0,4.0,3.457
228.0,18.0,3.458
268.0,31.0,3.459
258.0,30.0,3.46
187.0,15.0,3.461
107.0,2.0,3.462
60.0,-5.0,3.463
36.0,-6.0,3.464
8.0,-3.0,3.465
-17.0,-1.0,3.466
-24.0,-2.0,3.467
-28.0,-8.0,3.468
-45.0,-9.0,3.469
-59.0,-8.0,3.47
-58.0,-5.0,3.471
-56.0,-5.0,3.472
-62.0,-6.0,3.473
-68.0,-8.0,3.474
-64.0,-7.0,3.475
-61.0,-3.0,3.476
-59.0,2.0,3.477
-53.0,0.0,3.478
-36.0,-4.0,3.479
-25.0,-6.0,3.48
-28.0,-7.0,3.481
-30.0,-11.0,3.482
-16.0,-20.0,3.483
0.0,-26.0,3.484
1.0,-21.0,3.485
-5.0,-12.0,3.486
0.0,-7.0,3.487
10.0,-7.0,3.488
10.0,-5.0,3.489
3.0,1.0,3.49
6.0,5.0,3.491
15.0,6.0,3.492
17.0,8.0,3.493
6.0,12.0,3.494
-1.0,16.0,3.495
1.0,17.0,3.496
11.0,19.0,3.497
20.0,21.0,3.498
36.0,25.0,3.499
55.0,25.0,3.5
67.0,22.0,3.501
66.0,22.0,3.502
56.0,22.0,3.503
39.0,15.0,3.504
10.0,-2.0,3.505
-33.0,-27.0,3.506
-74.0,-49.0,3.507
-91.0,-57.0,3.508
-80.0,-52.0,3.509
-60.0,-43.0,3.51
-46.0,-34.0,3.511
-37.0,-19.0,3.512
-26.0,-2.0,3.513
-18.0,8.0,3.514
-12.0,7.0,3.515
-8.0,5.0,3.516
-2.0,8.0,3.517
4.0,9.0,3.518
9.0,5.0,3.519
9.0,1.0,3.52
11.0,1.0,3.521
18.0,3.0,3.522
31.0,2.0,3.523
43.0,1.0,3.524
49.0,6.0,3.525
48.0,10.0,3.526
44.0,6.0,3.527
38.0,2.0,3.528
30.0,5.0,3.529
21.0,11.0,3.53
17.0,9.0,3.531
16.0,5.0,3.532
12.0,4.0,3.533
3.0,8.0,3.534
-5.0,9.0,3.535
-5.0,8.0,3.536
-4.0,7.0,3.537
-3.0,5.0,3.538
-3.0,2.0,3.539
-3.0,-1.0,3.54
0.0,-4.0,3.541
4.0,-4.0,3.542
15.0,-5.0,3.543
24.0,-5.0,3.544
27.0,-2.0,3.545
22.0,2.0,3.546
19.0,5.0,3.547
21.0,7.0,3.548
21.0,12.0,3.549
13.0,25.0,3.55
1.0,36.0,3.551
-4.0,35.0,3.552
-6.0,16.0,3.553
-8.0,-14.0,3.554
-11.0,-39.0,3.555
-13.0,-45.0,3.556
-17.0,-35.0,3.557
-21.0,-23.0,3.558
-21.0,-16.0,3.559
-22.0,-14.0,3.56
-20.0,-15.0,3.561
-12.0,-13.0,3.562
2.0,-12.0,3.563
19.0,-10.0,3.564
26.0,-5.0,3.565
24.0,-2.0,3.566
20.0,-2.0,3.567
19.0,-3.0,3.568
17.0,1.0,3.569
7.0,11.0,3.57
-6.0,20.0,3.571
-15.0,27.0,3.572
-19.0,40.0,3.573
-20.0,54.0,3.574
-18.0,63.0,3.575
-15.0,78.0,3.576
-11.0,127.0,3.577
-10.0,235.0,3.578
-5.0,373.0,3.579
2.0,483.0,3.58
10.0,514.0,3.581
16.0,459.0,3.582
27.0,324.0,3.583
41.0,110.0,3.584
48.0,-175.0,3.585
44.0,-487.0,3.586
41.0,-730.0,3.587
44.0,-817.0,3.588
48.0,-752.0,3.589
41.0,-607.0,3.59
31.0,-457.0,3.591
22.0,-339.0,3.592
11.0,-267.0,3.593
-5.0,-233.0,3.594
-20.0,-202.0,3.595
-35.0,-135.0,3.596
-49.0,-48.0,3.597
-66.0,31.0,3.598
-76.0,86.0,3.599
-74.0,129.0,3.6
-69.0,161.0,3.601
-65.0,180.0,3.602
-60.0,187.0,3.603
-56.0,196.0,3.604
-58.0,206.0,3.605
-53.0,204.0,3.606
-28.0,192.0,3.607
3.0,184.0,3.608
15.0,188.0,3.609
2.0,198.0,3.61
-10.0,193.0,3.611
0.0,167.0,3.612
17.0,126.0,3.613
26.0,87.0,3.614
31.0,62.0,3.615
37.0,54.0,3.616
42.0,58.0,3.617
39.0,55.0,3.618
31.0,36.0,3.619
21.0,0.0,3.62
18.0,-43.0,3.621
26.0,-70.0,3.622
45.0,-80.0,3.623
62.0,-77.0,3.624
63.0,-52.0,3.625
51.0,1.0,3.626
33.0,75.0,3.627
0.0,138.0,3.628
-48.0,177.0,3.629
-80.0,214.0,3.63
-54.0,265.0,3.631
10.0,303.0,3.632
44.0,299.0,3.633
20.0,253.0,3.634
-10.0,180.0,3.635
14.0,68.0,3.636
58.0,-87.0,3.637
53.0,-281.0,3.638
-3.0,-432.0,3.639
-31.0,-483.0,3.64
4.0,-460.0,3.641
48.0,-422.0,3.642
53.0,-405.0,3.643
44.0,-406.0,3.644
55.0,-411.0,3.645
63.0,-392.0,3.646
37.0,-317.0,3.647
-3.0,-186.0,3.648
-27.0,-23.0,3.649
-40.0,170.0,3.65
-56.0,416.0,3.651
-59.0,668.0,3.652
-40.0,786.0,3.653
-25.0,678.0,3.654
-24.0,406.0,3.655
-18.0,94.0,3.656
2.0,-178.0,3.657
20.0,-421.0,3.658
21.0,-535.0,3.659
15.0,-407.0,3.66
5.0,-58.0,3.661
-16.0,329.0,3.662
-33.0,561.0,3.663
-17.0,585.0,3.664
24.0,463.0,3.665
47.0,264.0,3.666
43.0,-5.0,3.667
43.0,-315.0,3.668
50.0,-503.0,3.669
41.0,-362.0,3.67
9.0,116.0,3.671
-22.0,627.0,3.672
-47.0,842.0,3.673
-74.0,782.0,3.674
-82.0,720.0,3.675
-46.0,735.0,3.676
8.0,639.0,3.677
26.0,305.0,3.678
-1.0,-79.0,3.679
-25.0,-365.0,3.68
-4.0,-726.0,3.681
34.0,-1345.0,3.682
41.0,-2041.0,3.683
17.0,-2462.0,3.684
-6.0,-2482.0,3.685
0.0,-2179.0,3.686
25.0,-1602.0,3.687
37.0,-833.0,3.688
12.0,-119.0,3.689
-42.0,328.0,3.69
-91.0,546.0,3.691
-114.0,674.0,3.692
-120.0,721.0,3.693
-113.0,639.0,3.694
-67.0,501.0,3.695
13.0,432.0,3.696
73.0,467.0,3.697
77.0,579.0,3.698
49.0,737.0,3.699
33.0,859.0,3.7
36.0,871.0,3.701
47.0,854.0,3.702
72.0,744.0,3.703
92.0,660.0,3.704
60.0,654.0,3.705
-10.0,649.0,3.706
-46.0,648.0,3.707
-23.0,575.0,3.708
-7.0,289.0,3.709
-26.0,4.0,3.71
-16.0,-280.0,3.711
55.0,-503.0,3.712
115.0,-539.0,3.713
94.0,-504.0,3.714
40.0,-256.0,3.715
19.0,-60.0,3.716
14.0,-24.0,3.717
-19.0,-62.0,3.718
-59.0,-292.0,3.719
-74.0,-286.0,3.72
-86.0,20.0,3.721
-111.0,454.0,3.722
-101.0,757.0,3.723
-27.0,760.0,3.724
42.0,446.0,3.725
47.0,-102.0,3.726
31.0,-811.0,3.727
55.0,-1571.0,3.728
81.0,-2083.0,3.729
52.0,-1984.0,3.73
-11.0,-1281.0,3.731
-45.0,-431.0,3.732
-49.0,160.0,3.733
-56.0,514.0,3.734
-69.0,826.0,3.735
-60.0,1073.0,3.736
-42.0,1120.0,3.737
-36.0,974.0,3.738
-28.0,761.0,3.739
2.0,524.0,3.74
53.0,227.0,3.741
111.0,-96.0,3.742
173.0,-366.0,3.743
214.0,-533.0,3.744
196.0,-556.0,3.745
127.0,-359.0,3.746
74.0,84.0,3.747
62.0,691.0,3.748
40.0,1329.0,3.749
-32.0,1856.0,3.75
-115.0,2087.0,3.751
-153.0,1840.0,3.752
-152.0,1120.0,3.753
-150.0,191.0,3.754
-145.0,-621.0,3.755
-107.0,-1121.0,3.756
-38.0,-1247.0,3.757
32.0,-1020.0,3.758
71.0,-617.0,3.759
58.0,-398.0,3.76
13.0,-655.0,3.761
-13.0,-1317.0,3.762
21.0,-2022.0,3.763
84.0,-2370.0,3.764
112.0,-2146.0,3.765
101.0,-1421.0,3.766
112.0,-540.0,3.767
153.0,80.0,3.768
155.0,284.0,3.769
67.0,229.0,3.77
-54.0,107.0,3.771
-132.0,-47.0,3.772
-158.0,-218.0,3.773
-187.0,-247.0,3.774
-231.0,-10.0,3.775
-258.0,396.0,3.776
-246.0,761.0,3.777
-210.0,1060.0,3.778
-172.0,1287.0,3.779
-130.0,1335.0,3.78
-69.0,1116.0,3.781
14.0,762.0,3.782
100.0,491.0,3.783
159.0,327.0,3.784
187.0,165.0,3.785
210.0,32.0,3.786
258.0,43.0,3.787
308.0,145.0,3.788
304.0,153.0,3.789
220.0,37.0,3.79
96.0,-30.0,3.791
-7.0,30.0,3.792
-78.0,124.0,3.793
-127.0,208.0,3.794
-135.0,390.0,3.795
-86.0,711.0,3.796
-24.0,999.0,3.797
-10.0,1075.0,3.798
-54.0,959.0,3.799
-99.0,775.0,3.8
-87.0,391.0,3.801
-36.0,-12.0,3.802
10.0,-473.0,3.803
24.0,-813.0,3.804
24.0,-791.0,3.805
43.0,-690.0,3.806
89.0,-354.0,3.807
122.0,-39.0,3.808
100.0,206.0,3.809
42.0,268.0,3.81
8.0,-224.0,3.811
14.0,-762.0,3.812
21.0,-1438.0,3.813
4.0,-1933.0,3.814
-23.0,-1882.0,3.815
-57.0,-1596.0,3.816
-102.0,-607.0,3.817
-144.0,300.0,3.818
-133.0,660.0,3.819
-70.0,661.0,3.82
-14.0,682.0,3.821
-4.0,734.0,3.822
-24.0,620.0,3.823
-38.0,357.0,3.824
-32.0,112.0,3.825
-14.0,-41.0,3.826
0.0,-98.0,3.827
-6.0,-41.0,3.828
-23.0,74.0,3.829
-6.0,136.0,3.83
57.0,140.0,3.831
119.0,131.0,3.832
141.0,5.0,3.833
145.0,-360.0,3.834
164.0,-820.0,3.835
171.0,-1091.0,3.836
128.0,-1102.0,3.837
25.0,-934.0,3.838
-95.0,-562.0,3.839
-196.0,41.0,3.84
-252.0,639.0,3.841
-245.0,909.0,3.842
-174.0,836.0,3.843
-73.0,669.0,3.844
14.0,514.0,3.845
72.0,310.0,3.846
101.0,114.0,3.847
97.0,91.0,3.848
54.0,222.0,3.849
-8.0,296.0,3.85
-45.0,182.0,3.851
-30.0,-65.0,3.852
14.0,-340.0,3.853
41.0,-557.0,3.854
29.0,-605.0,3.855
2.0,-414.0,3.856
-10.0,-93.0,3.857
-11.0,223.0,3.858
-9.0,435.0,3.859
-13.0,593.0,3.86
-13.0,832.0,3.861
-5.0,1201.0,3.862
15.0,1544.0,3.863
57.0,1611.0,3.864
123.0,1328.0,3.865
198.0,881.0,3.866
254.0,464.0,3.867
268.0,140.0,3.868
232.0,60.0,3.869
164.0,498.0,3.87
86.0,1362.0,3.871
1.0,1951.0,3.872
-101.0,1634.0,3.873
-197.0,549.0,3.874
-211.0,-791.0,3.875
-123.0,-2203.0,3.876
-18.0,-3534.0,3.877
11.0,-4000.0,3.878
-35.0,-4000.0,3.879
-86.0,-3606.0,3.88
-115.0,-2896.0,3.881
-161.0,-2422.0,3.882
-222.0,-1721.0,3.883
-226.0,-686.0,3.884
-152.0,236.0,3.885
-71.0,839.0,3.886
-52.0,1356.0,3.887
-81.0,1824.0,3.888
-104.0,1973.0,3.889
-100.0,1801.0,3.89
-66.0,1623.0,3.891
2.0,1494.0,3.892
88.0,1180.0,3.893
149.0,719.0,3.894
162.0,445.0,3.895
162.0,433.0,3.896
187.0,430.0,3.897
231.0,324.0,3.898
258.0,275.0,3.899
238.0,318.0,3.9
176.0,264.0,3.901
100.0,57.0,3.902
37.0,-135.0,3.903
-10.0,-196.0,3.904
-64.0,-151.0,3.905
-133.0,29.0,3.906
-175.0,433.0,3.907
-150.0,1002.0,3.908
-83.0,1571.0,3.909
-33.0,2061.0,3.91
-26.0,2414.0,3.911
-20.0,2393.0,3.912
8.0,1742.0,3.913
40.0,535.0,3.914
48.0,-866.0,3.915
50.0,-2192.0,3.916
69.0,-3266.0,3.917
89.0,-3939.0,3.918
79.0,-3956.0,3.919
29.0,-3291.0,3.92
-38.0,-2224.0,3.921
-100.0,-1242.0,3.922
-143.0,-491.0,3.923
-153.0,40.0,3.924
-116.0,350.0,3.925
-59.0,494.0,3.926
-40.0,611.0,3.927
-72.0,747.0,3.928
-93.0,840.0,3.929
-38.0,897.0,3.93
50.0,1028.0,3.931
72.0,1246.0,3.932
9.0,1435.0,3.933
-42.0,1553.0,3.934
-11.0,1664.0,3.935
57.0,1703.0,3.936
77.0,1490.0,3.937
52.0,918.0,3.938
63.0,195.0,3.939
129.0,-471.0,3.94
174.0,-1060.0,3.941
156.0,-1526.0,3.942
125.0,-1643.0,3.943
116.0,-1285.0,3.944
85.0,-704.0,3.945
3.0,-283.0,3.946
-69.0,-120.0,3.947
-70.0,-79.0,3.948
-36.0,-125.0,3.949
-30.0,-326.0,3.95
-47.0,-554.0,3.951
-43.0,-477.0,3.952
-32.0,77.0,3.953
-51.0,917.0,3.954
-82.0,1661.0,3.955
-77.0,2019.0,3.956
-41.0,1940.0,3.957
-19.0,1467.0,3.958
-21.0,682.0,3.959
-13.0,-378.0,3.96
24.0,-1550.0,3.961
68.0,-2410.0,3.962
95.0,-2562.0,3.963
83.0,-2057.0,3.964
24.0,-1319.0,3.965
-52.0,-619.0,3.966
-80.0,88.0,3.967
-42.0,807.0,3.968
15.0,1300.0,3.969
42.0,1335.0,3.97
47.0,848.0,3.971
45.0,-136.0,3.972
20.0,-1397.0,3.973
-23.0,-2361.0,3.974
-48.0,-2475.0,3.975
-37.0,-1811.0,3.976
-19.0,-995.0,3.977
-5.0,-350.0,3.978
28.0,122.0,3.979
69.0,497.0,3.98
60.0,727.0,3.981
-21.0,863.0,3.982
-102.0,1128.0,3.983
-130.0,1626.0,3.984
-145.0,2163.0,3.985
-186.0,2477.0,3.986
-201.0,2442.0,3.987
-135.0,1994.0,3.988
-24.0,1085.0,3.989
69.0,-167.0,3.99
151.0,-1366.0,3.991
235.0,-2015.0,3.992
264.0,-1878.0,3.993
201.0,-1205.0,3.994
100.0,-566.0,3.995
46.0,-356.0,3.996
28.0,-466.0,3.997
-23.0,-534.0,3.998
-100.0,-335.0,3.999
-119.0,30.0,4.0
-62.0,334.0,4.001
-15.0,506.0,4.002
-34.0,601.0,4.003
-72.0,720.0,4.004
-61.0,957.0,4.005
-22.0,1302.0,4.006
-4.0,1575.0,4.007
-1.0,1559.0,4.008
21.0,1247.0,4.009
50.0,782.0,4.01
64.0,194.0,4.011
61.0,-564.0,4.012
59.0,-1298.0,4.013
57.0,-1601.0,4.014
51.0,-1357.0,4.015
49.0,-953.0,4.016
50.0,-795.0,4.017
23.0,-866.0,4.018
-31.0,-904.0,4.019
-74.0,-798.0,4.02
-75.0,-624.0,4.021
-47.0,-405.0,4.022
-11.0,-118.0,4.023
38.0,156.0,4.024
97.0,295.0,4.025
138.0,305.0,4.026
136.0,279.0,4.027
112.0,255.0,4.028
90.0,247.0,4.029
49.0,293.0,4.03
-44.0,410.0,4.031
-155.0,547.0,4.032
-202.0,695.0,4.033
-157.0,941.0,4.034
-84.0,1324.0,4.035
-46.0,1725.0,4.036
-24.0,1936.0,4.037
29.0,1804.0,4.038
97.0,1221.0,4.039
115.0,201.0,4.04
81.0,-987.0,4.041
62.0,-1884.0,4.042
90.0,-2189.0,4.043
119.0,-1944.0,4.044
103.0,-1365.0,4.045
57.0,-611.0,4.046
6.0,144.0,4.047
-64.0,584.0,4.048
-156.0,439.0,4.049
-208.0,-240.0,4.05
-159.0,-1177.0,4.051
-50.0,-2095.0,4.052
20.0,-2697.0,4.053
16.0,-2605.0,4.054
-16.0,-1669.0,4.055
-30.0,-295.0,4.056
-27.0,762.0,4.057
-41.0,1221.0,4.058
-86.0,1232.0,4.059
-141.0,1212.0,4.06
-161.0,1353.0,4.061
-123.0,1490.0,4.062
-58.0,1368.0,4.063
-14.0,956.0,4.064
2.0,438.0,4.065
34.0,-82.0,4.066
86.0,-691.0,4.067
119.0,-1381.0,4.068
117.0,-1821.0,4.069
126.0,-1674.0,4.07
164.0,-1022.0,4.071
182.0,-300.0,4.072
128.0,150.0,4.073
45.0,317.0,4.074
22.0,369.0,4.075
66.0,448.0,4.076
93.0,589.0,4.077
30.0,749.0,4.078
-94.0,831.0,4.079
-190.0,814.0,4.08
-201.0,785.0,4.081
-142.0,789.0,4.082
-61.0,746.0,4.083
1.0,611.0,4.084
26.0,473.0,4.085
30.0,432.0,4.086
41.0,495.0,4.087
43.0,631.0,4.088
-4.0,842.0,4.089
-80.0,1071.0,4.09
-99.0,1132.0,4.091
-27.0,837.0,4.092
60.0,152.0,4.093
89.0,-728.0,4.094
92.0,-1426.0,4.095
128.0,-1577.0,4.096
165.0,-1177.0,4.097
132.0,-530.0,4.098
35.0,-84.0,4.099
-39.0,30.0,4.1
-41.0,1.0,4.101
2.0,-18.0,4.102
58.0,-20.0,4.103
118.0,121.0,4.104
160.0,650.0,4.105
138.0,1577.0,4.106
59.0,2482.0,4.107
-23.0,2757.0,4.108
-66.0,2001.0,4.109
-77.0,271.0,4.11
-70.0,-1804.0,4.111
-55.0,-3238.0,4.112
-43.0,-3383.0,4.113
-57.0,-2538.0,4.114
-92.0,-1614.0,4.115
-122.0,-1146.0,4.116
-133.0,-958.0,4.117
-128.0,-763.0,4.118
-95.0,-688.0,4.119
-34.0,-925.0,4.12
32.0,-1272.0,4.121
75.0,-1376.0,4.122
86.0,-1182.0,4.123
69.0,-808.0,4.124
19.0,-254.0,4.125
-50.0,428.0,4.126
-85.0,967.0,4.127
-50.0,1186.0,4.128
14.0,1276.0,4.129
53.0,1467.0,4.13
66.0,1688.0,4.131
80.0,1731.0,4.132
79.0,1513.0,4.133
24.0,963.0,4.134
-69.0,44.0,4.135
-140.0,-938.0,4.136
-156.0,-1379.0,4.137
-124.0,-1028.0,4.138
-54.0,-235.0,4.139
32.0,463.0,4.14
97.0,906.0,4.141
125.0,1203.0,4.142
143.0,1320.0,4.143
160.0,1157.0,4.144
137.0,807.0,4.145
64.0,462.0,4.146
9.0,211.0,4.147
15.0,128.0,4.148
17.0,294.0,4.149
-47.0,564.0,4.15
-128.0,482.0,4.151
-134.0,-236.0,4.152
-71.0,-1252.0,4.153
-17.0,-1888.0,4.154
1.0,-1800.0,4.155
20.0,-1207.0,4.156
45.0,-569.0,4.157
27.0,-74.0,4.158
-57.0,279.0,4.159
-158.0,613.0,4.16
-190.0,883.0,4.161
-130.0,1065.0,4.162
-42.0,975.0,4.163
-6.0,782.0,4.164
-19.0,278.0,4.165
-7.0,-169.0,4.166
68.0,-444.0,4.167
135.0,-779.0,4.168
122.0,-1295.0,4.169
67.0,-1712.0,4.17
53.0,-1835.0,4.171
78.0,-1787.0,4.172
89.0,-1222.0,4.173
85.0,-695.0,4.174
98.0,-283.0,4.175
107.0,111.0,4.176
75.0,455.0,4.177
12.0,746.0,4.178
-23.0,797.0,4.179
-16.0,818.0,4.18
11.0,978.0,4.181
56.0,1299.0,4.182
110.0,1683.0,4.183
113.0,2008.0,4.184
33.0,2134.0,4.185
-64.0,1894.0,4.186
-88.0,1172.0,4.187
-46.0,56.0,4.188
-20.0,-1034.0,4.189
-29.0,-1523.0,4.19
-27.0,-1127.0,4.191
7.0,-143.0,4.192
47.0,816.0,4.193
53.0,1309.0,4.194
19.0,1215.0,4.195
-47.0,550.0,4.196
-109.0,-517.0,4.197
-128.0,-1886.0,4.198
-94.0,-3107.0,4.199
-69.0,-3737.0,4.2
-69.0,-3543.0,4.201
-69.0,-2618.0,4.202
-64.0,-1379.0,4.203
-54.0,-353.0,4.204
-30.0,241.0,4.205
-7.0,629.0,4.206
8.0,1085.0,4.207
11.0,1506.0,4.208
-22.0,1613.0,4.209
-51.0,1437.0,4.21
-65.0,1306.0,4.211
-58.0,1330.0,4.212
13.0,1223.0,4.213
65.0,758.0,4.214
59.0,161.0,4.215
47.0,-179.0,4.216
19.0,-223.0,4.217
-4.0,-263.0,4.218
-5.0,-517.0,4.219
16.0,-901.0,4.22
77.0,-1127.0,4.221
166.0,-1003.0,4.222
232.0,-579.0,4.223
231.0,-80.0,4.224
169.0,288.0,4.225
83.0,486.0,4.226
7.0,613.0,4.227
-42.0,773.0,4.228
-66.0,996.0,4.229
-76.0,1268.0,4.23
-76.0,1588.0,4.231
-65.0,1938.0,4.232
-48.0,2180.0,4.233
-48.0,2035.0,4.234
-79.0,1331.0,4.235
-101.0,280.0,4.236
-70.0,-654.0,4.237
0.0,-1464.0,4.238
45.0,-2321.0,4.239
21.0,-3126.0,4.24
-29.0,-3283.0,4.241
-41.0,-2447.0,4.242
2.0,-1178.0,4.243
61.0,-358.0,4.244
107.0,-165.0,4.245
138.0,-97.0,4.246
153.0,182.0,4.247
124.0,537.0,4.248
31.0,805.0,4.249
-103.0,1025.0,4.25
-219.0,1169.0,4.251
-257.0,1060.0,4.252
-208.0,651.0,4.253
-134.0,152.0,4.254
-103.0,-212.0,4.255
-105.0,-318.0,4.256
-85.0,-87.0,4.257
-27.0,552.0,4.258
15.0,1316.0,4.259
5.0,1641.0,4.26
-10.0,1184.0,4.261
35.0,193.0,4.262
131.0,-776.0,4.263
211.0,-1339.0,4.264
230.0,-1409.0,4.265
203.0,-1052.0,4.266
168.0,-421.0,4.267
146.0,207.0,4.268
133.0,497.0,4.269
98.0,220.0,4.27
31.0,-574.0,4.271
-32.0,-1509.0,4.272
-46.0,-2053.0,4.273
-25.0,-1942.0,4.274
-40.0,-1408.0,4.275
-134.0,-873.0,4.276
-237.0,-498.0,4.277
-250.0,-136.0,4.278
-131.0,178.0,4.279
20.0,259.0,4.28
83.0,145.0,4.281
51.0,181.0,4.282
27.0,544.0,4.283
51.0,1041.0,4.284
50.0,1466.0,4.285
-31.0,1837.0,4.286
-133.0,2110.0,4.287
-169.0,2099.0,4.288
-136.0,1837.0,4.289
-81.0,1589.0,4.29
-1.0,1351.0,4.291
112.0,798.0,4.292
210.0,-83.0,4.293
224.0,-872.0,4.294
185.0,-1426.0,4.295
169.0,-2079.0,4.296
180.0,-2814.0,4.297
153.0,-3094.0,4.298
79.0,-2447.0,4.299
16.0,-1282.0,4.3
-5.0,-380.0,4.301
-36.0,53.0,4.302
-107.0,324.0,4.303
-175.0,665.0,4.304
-197.0,1111.0,4.305
-206.0,1652.0,4.306
-230.0,2179.0,4.307
-230.0,2454.0,4.308
-157.0,2356.0,4.309
-50.0,1937.0,4.31
12.0,1193.0,4.311
26.0,142.0,4.312
71.0,-794.0,4.313
169.0,-980.0,4.314
248.0,-408.0,4.315
244.0,9.0,4.316
208.0,-533.0,4.317
208.0,-1829.0,4.318
236.0,-2788.0,4.319
199.0,-3237.0,4.32
59.0,-2152.0,4.321
-115.0,-1143.0,4.322
-244.0,-364.0,4.323
-320.0,295.0,4.324
-363.0,595.0,4.325
-356.0,850.0,4.326
-278.0,968.0,4.327
-168.0,1053.0,4.328
-103.0,1031.0,4.329
-104.0,1053.0,4.33
-121.0,1206.0,4.331
-94.0,1411.0,4.332
-20.0,1771.0,4.333
62.0,1928.0,4.334
121.0,1478.0,4.335
173.0,984.0,4.336
248.0,360.0,4.337
338.0,-233.0,4.338
371.0,-667.0,4.339
302.0,-852.0,4.34
212.0,-695.0,4.341
198.0,-577.0,4.342
228.0,-1083.0,4.343
187.0,-2158.0,4.344
61.0,-2929.0,4.345
-39.0,-2654.0,4.346
-60.0,-1564.0,4.347
-81.0,-464.0,4.348
-158.0,243.0,4.349
-219.0,746.0,4.35
-191.0,1239.0,4.351
-119.0,1644.0,4.352
-74.0,1892.0,4.353
-36.0,1988.0,4.354
37.0,1749.0,4.355
105.0,940.0,4.356
111.0,-146.0,4.357
65.0,-1049.0,4.358
5.0,-1420.0,4.359
-71.0,-1460.0,4.36
-151.0,-1394.0,4.361
-160.0,-1069.0,4.362
-65.0,-369.0,4.363
40.0,444.0,4.364
53.0,1003.0,4.365
13.0,1153.0,4.366
14.0,843.0,4.367
50.0,69.0,4.368
49.0,-943.0,4.369
8.0,-1790.0,4.37
-12.0,-2195.0,4.371
6.0,-2103.0,4.372
20.0,-1527.0,4.373
-2.0,-636.0,4.374
-68.0,142.0,4.375
-167.0,463.0,4.376
-235.0,452.0,4.377
-206.0,470.0,4.378
-100.0,674.0,4.379
-23.0,947.0,4.38
-9.0,1176.0,4.381
14.0,1383.0,4.382
72.0,1578.0,4.383
80.0,1731.0,4.384
5.0,1778.0,4.385
-51.0,1588.0,4.386
0.0,1084.0,4.387
107.0,442.0,4.388
181.0,-50.0,4.389
208.0,-400.0,4.39
211.0,-825.0,4.391
184.0,-1204.0,4.392
125.0,-1090.0,4.393
72.0,-460.0,4.394
30.0,40.0,4.395
-38.0,-99.0,4.396
-118.0,-573.0,4.397
-158.0,-861.0,4.398
-126.0,-779.0,4.399
-80.0,-517.0,4.4
-71.0,-173.0,4.401
-74.0,290.0,4.402
-46.0,740.0,4.403
-7.0,1008.0,4.404
-4.0,1172.0,4.405
-30.0,1372.0,4.406
-47.0,1460.0,4.407
-36.0,1149.0,4.408
-10.0,399.0,4.409
26.0,-604.0,4.41
77.0,-1635.0,4.411
139.0,-2340.0,4.412
193.0,-2300.0,4.413
228.0,-1526.0,4.414
233.0,-647.0,4.415
192.0,-214.0,4.416
112.0,-71.0,4.417
14.0,254.0,4.418
-65.0,746.0,4.419
-137.0,947.0,4.42
-219.0,645.0,4.421
-262.0,95.0,4.422
-188.0,-444.0,4.423
-41.0,-886.0,4.424
20.0,-1063.0,4.425
-54.0,-744.0,4.426
-121.0,-4.0,4.427
-57.0,775.0,4.428
45.0,1353.0,4.429
41.0,1808.0,4.43
-45.0,2199.0,4.431
-86.0,2277.0,4.432
-70.0,1703.0,4.433
-65.0,470.0,4.434
-65.0,-949.0,4.435
-20.0,-1887.0,4.436
35.0,-2014.0,4.437
38.0,-1560.0,4.438
5.0,-1127.0,4.439
-7.0,-1120.0,4.44
2.0,-1403.0,4.441
5.0,-1550.0,4.442
22.0,-1326.0,4.443
76.0,-819.0,4.444
120.0,-277.0,4.445
113.0,98.0,4.446
87.0,304.0,4.447
84.0,514.0,4.448
88.0,794.0,4.449
78.0,907.0,4.45
69.0,596.0,4.451
66.0,62.0,4.452
36.0,-174.0,4.453
-8.0,72.0,4.454
-10.0,434.0,4.455
35.0,557.0,4.456
59.0,547.0,4.457
42.0,649.0,4.458
43.0,805.0,4.459
80.0,753.0,4.46
91.0,515.0,4.461
51.0,506.0,4.462
25.0,1015.0,4.463
44.0,1759.0,4.464
42.0,2107.0,4.465
-22.0,1724.0,4.466
-61.0,810.0,4.467
5.0,-325.0,4.468
113.0,-1605.0,4.469
124.0,-2826.0,4.47
22.0,-3348.0,4.471
-103.0,-2723.0,4.472
-192.0,-1461.0,4.473
-259.0,-588.0,4.474
-318.0,-430.0,4.475
-328.0,-397.0,4.476
-273.0,-11.0,4.477
-198.0,689.0,4.478
-168.0,1405.0,4.479
-183.0,2032.0,4.48
-173.0,2452.0,4.481
-97.0,2412.0,4.482
12.0,1854.0,4.483
97.0,1010.0,4.484
141.0,-1.0,4.485
167.0,-1205.0,4.486
191.0,-2272.0,4.487
206.0,-2582.0,4.488
194.0,-2028.0,4.489
157.0,-1266.0,4.49
109.0,-903.0,4.491
63.0,-831.0,4.492
32.0,-663.0,4.493
18.0,-335.0,4.494
10.0,-21.0,4.495
-3.0,235.0,4.496
-18.0,466.0,4.497
-34.0,642.0,4.498
-34.0,711.0,4.499
-16.0,745.0,4.5
17.0,803.0,4.501
53.0,832.0,4.502
96.0,795.0,4.503
131.0,755.0,4.504
145.0,730.0,4.505
133.0,648.0,4.506
108.0,548.0,4.507
67.0,600.0,4.508
-1.0,808.0,4.509
-82.0,914.0,4.51
-126.0,714.0,4.511
-97.0,313.0,4.512
-27.0,-53.0,4.513
27.0,-318.0,4.514
45.0,-587.0,4.515
42.0,-914.0,4.516
39.0,-1183.0,4.517
43.0,-1250.0,4.518
62.0,-1053.0,4.519
80.0,-764.0,4.52
65.0,-642.0,4.521
12.0,-694.0,4.522
-42.0,-621.0,4.523
-58.0,-180.0,4.524
-37.0,481.0,4.525
-21.0,1015.0,4.526
-46.0,1291.0,4.527
-114.0,1383.0,4.528
-176.0,1253.0,4.529
-188.0,734.0,4.53
-170.0,-103.0,4.531
-175.0,-881.0,4.532
-190.0,-1308.0,4.533
-143.0,-1446.0,4.534
-43.0,-1475.0,4.535
4.0,-1412.0,4.536
-30.0,-1245.0,4.537
-55.0,-1047.0,4.538
6.0,-935.0,4.539
81.0,-882.0,4.54
92.0,-783.0,4.541
85.0,-583.0,4.542
130.0,-236.0,4.543
180.0,290.0,4.544
167.0,844.0,4.545
122.0,1103.0,4.546
101.0,962.0,4.547
54.0,716.0,4.548
-60.0,713.0,4.549
-154.0,935.0,4.55
-128.0,1118.0,4.551
-35.0,1157.0,4.552
4.0,1146.0,4.553
-13.0,1114.0,4.554
-6.0,952.0,4.555
39.0,598.0,4.556
63.0,150.0,4.557
49.0,-352.0,4.558
47.0,-785.0,4.559
80.0,-964.0,4.56
115.0,-798.0,4.561
132.0,-475.0,4.562
138.0,-303.0,4.563
129.0,-311.0,4.564
89.0,-239.0,4.565
34.0,17.0,4.566
-16.0,239.0,4.567
-68.0,258.0,4.568
-119.0,207.0,4.569
-134.0,253.0,4.57
-108.0,315.0,4.571
-86.0,257.0,4.572
-104.0,149.0,4.573
-133.0,129.0,4.574
-124.0,163.0,4.575
-76.0,146.0,4.576
-25.0,99.0,4.577
13.0,97.0,4.578
34.0,134.0,4.579
38.0,153.0,4.58
39.0,162.0,4.581
58.0,212.0,4.582
83.0,265.0,4.583
87.0,282.0,4.584
73.0,313.0,4.585
73.0,427.0,4.586
95.0,579.0,4.587
110.0,623.0,4.588
97.0,405.0,4.589
76.0,-125.0,4.59
64.0,-815.0,4.591
54.0,-1326.0,4.592
39.0,-1387.0,4.593
28.0,-1069.0,4.594
20.0,-688.0,4.595
2.0,-440.0,4.596
-31.0,-241.0,4.597
-82.0,104.0,4.598
-149.0,623.0,4.599
-212.0,1207.0,4.6
-215.0,1700.0,4.601
-129.0,1898.0,4.602
-8.0,1488.0,4.603
51.0,297.0,4.604
33.0,-1324.0,4.605
14.0,-2556.0,4.606
30.0,-2742.0,4.607
37.0,-1985.0,4.608
0.0,-1010.0,4.609
-50.0,-522.0,4.61
-71.0,-713.0,4.611
-70.0,-1249.0,4.612
-63.0,-1590.0,4.613
-34.0,-1433.0,4.614
5.0,-945.0,4.615
15.0,-484.0,4.616
-3.0,-160.0,4.617
-13.0,228.0,4.618
-1.0,717.0,4.619
-5.0,1098.0,4.62
-33.0,1237.0,4.621
-44.0,1269.0,4.622
-16.0,1322.0,4.623
14.0,1335.0,4.624
20.0,1234.0,4.625
29.0,1093.0,4.626
59.0,1009.0,4.627
83.0,962.0,4.628
82.0,879.0,4.629
70.0,705.0,4.63
69.0,436.0,4.631
68.0,137.0,4.632
55.0,-130.0,4.633
34.0,-412.0,4.634
23.0,-768.0,4.635
19.0,-1033.0,4.636
20.0,-946.0,4.637
25.0,-484.0,4.638
33.0,-27.0,4.639
42.0,111.0,4.64
56.0,36.0,4.641
72.0,19.0,4.642
78.0,88.0,4.643
62.0,121.0,4.644
34.0,115.0,4.645
10.0,138.0,4.646
-10.0,165.0,4.647
-40.0,150.0,4.648
-77.0,135.0,4.649
-107.0,158.0,4.65
-114.0,157.0,4.651
-97.0,101.0,4.652
-64.0,56.0,4.653
-31.0,65.0,4.654
-21.0,65.0,4.655
-31.0,13.0,4.656
-34.0,-31.0,4.657
-9.0,-29.0,4.658
31.0,-23.0,4.659
46.0,-54.0,4.66
31.0,-87.0,4.661
18.0,-74.0,4.662
21.0,-48.0,4.663
19.0,-45.0,4.664
-6.0,-56.0,4.665
-30.0,-60.0,4.666
-27.0,-56.0,4.667
-2.0,-6.0,4.668
22.0,143.0,4.669
31.0,370.0,4.67
27.0,580.0,4.671
16.0,708.0,4.672
7.0,749.0,4.673
2.0,652.0,4.674
-1.0,329.0,4.675
-5.0,-176.0,4.676
-1.0,-612.0,4.677
18.0,-817.0,4.678
41.0,-766.0,4.679
40.0,-572.0,4.68
16.0,-312.0,4.681
-7.0,-23.0,4.682
-5.0,160.0,4.683
15.0,71.0,4.684
33.0,-273.0,4.685
35.0,-678.0,4.686
22.0,-1031.0,4.687
7.0,-1355.0,4.688
-1.0,-1578.0,4.689
-11.0,-1467.0,4.69
-31.0,-955.0,4.691
-56.0,-355.0,4.692
-76.0,-31.0,4.693
-96.0,36.0,4.694
-117.0,126.0,4.695
-126.0,337.0,4.696
-106.0,519.0,4.697
-60.0,588.0,4.698
-16.0,593.0,4.699
4.0,587.0,4.7
14.0,548.0,4.701
29.0,498.0,4.702
51.0,486.0,4.703
66.0,491.0,4.704
66.0,449.0,4.705
57.0,384.0,4.706
53.0,359.0,4.707
52.0,357.0,4.708
45.0,316.0,4.709
36.0,253.0,4.71
34.0,224.0,4.711
39.0,211.0,4.712
36.0,163.0,4.713
21.0,99.0,4.714
6.0,64.0,4.715
1.0,48.0,4.716
6.0,19.0,4.717
6.0,-20.0,4.718
1.0,-35.0,4.719
-4.0,-38.0,4.72
-4.0,-50.0,4.721
3.0,-58.0,4.722
18.0,-48.0,4.723
30.0,-40.0,4.724
33.0,-50.0,4.725
26.0,-60.0,4.726
23.0,-53.0,4.727
21.0,-49.0,4.728
14.0,-57.0,4.729
1.0,-61.0,4.73
-6.0,-53.0,4.731
-11.0,-47.0,4.732
-16.0,-53.0,4.733
-22.0,-54.0,4.734
-26.0,-50.0,4.735
-26.0,-48.0,4.736
-23.0,-53.0,4.737
-19.0,-55.0,4.738
-11.0,-51.0,4.739
-6.0,-51.0,4.74
0.0,-56.0,4.741
6.0,-52.0,4.742
17.0,-45.0,4.743
24.0,-40.0,4.744
23.0,-34.0,4.745
16.0,-19.0,4.746
10.0,-10.0,4.747
6.0,-20.0,4.748
0.0,-36.0,4.749
-4.0,-35.0,4.75
-10.0,-21.0,4.751
-17.0,-14.0,4.752
-26.0,-14.0,4.753
-35.0,-12.0,4.754
-38.0,-6.0,4.755
-34.0,-8.0,4.756
-22.0,-16.0,4.757
-12.0,-18.0,4.758
-6.0,-9.0,4.759
-4.0,-4.0,4.76
-2.0,-13.0,4.761
6.0,-18.0,4.762
16.0,-11.0,4.763
24.0,-5.0,4.764
28.0,-1.0,4.765
26.0,2.0,4.766
23.0,3.0,4.767
21.0,4.0,4.768
17.0,3.0,4.769
8.0,2.0,4.77
1.0,2.0,4.771
0.0,1.0,4.772
1.0,3.0,4.773
-3.0,5.0,4.774
-10.0,7.0,4.775
-12.0,8.0,4.776
-7.0,5.0,4.777
-3.0,1.0,4.778
-4.0,0.0,4.779
-4.0,-3.0,4.78
0.0,-8.0,4.781
8.0,-7.0,4.782
15.0,-6.0,4.783
20.0,-6.0,4.784
22.0,-4.0,4.785
19.0,0.0,4.786
13.0,3.0,4.787
7.0,1.0,4.788
-1.0,1.0,4.789
-14.0,4.0,4.79
-24.0,5.0,4.791
-28.0,1.0,4.792
-28.0,-3.0,4.793
-32.0,-2.0,4.794
-40.0,4.0,4.795
-42.0,5.0,4.796
-27.0,3.0,4.797
-3.0,-2.0,4.798
23.0,-2.0,4.799
39.0,0.0,4.8
46.0,-2.0,4.801
50.0,0.0,4.802
60.0,1.0,4.803
65.0,4.0,4.804
50.0,8.0,4.805
6.0,12.0,4.806
-58.0,14.0,4.807
-122.0,11.0,4.808
-156.0,0.0,4.809
-135.0,-8.0,4.81
-71.0,-12.0,4.811
-9.0,-14.0,4.812
23.0,-15.0,4.813
52.0,-4.0,4.814
118.0,16.0,4.815
204.0,35.0,4.816
257.0,45.0,4.817
244.0,43.0,4.818
182.0,34.0,4.819
113.0,18.0,4.82
67.0,-7.0,4.821
40.0,-21.0,4.822
10.0,-18.0,4.823
-26.0,-10.0,4.824
-43.0,-11.0,4.825
-23.0,-13.0,4.826
12.0,-4.0,4.827
31.0,15.0,4.828
33.0,29.0,4.829
35.0,28.0,4.83
28.0,15.0,4.831
-9.0,0.0,4.832
-53.0,-9.0,4.833
-80.0,-10.0,4.834
-105.0,-8.0,4.835
-160.0,-10.0,4.836
-218.0,-17.0,4.837
-229.0,-19.0,4.838
-179.0,-13.0,4.839
-121.0,-5.0,4.84
-91.0,-4.0,4.841
-70.0,-3.0,4.842
-26.0,-1.0,4.843
30.0,-4.0,4.844
70.0,-11.0,4.845
82.0,-11.0,4.846
72.0,-7.0,4.847
40.0,-7.0,4.848
-6.0,-13.0,4.849
-39.0,-19.0,4.85
-38.0,-17.0,4.851
-13.0,-17.0,4.852
7.0,-23.0,4.853
7.0,-30.0,4.854
3.0,-28.0,4.855
9.0,-6.0,4.856
27.0,33.0,4.857
51.0,69.0,4.858
71.0,73.0,4.859
67.0,40.0,4.86
29.0,0.0,4.861
-23.0,-13.0,4.862
-47.0,-5.0,4.863
-30.0,0.0,4.864
0.0,-3.0,4.865
19.0,-5.0,4.866
32.0,-3.0,4.867
51.0,-1.0,4.868
72.0,4.0,4.869
82.0,8.0,4.87
85.0,0.0,4.871
81.0,-10.0,4.872
59.0,-13.0,4.873
16.0,-9.0,4.874
-28.0,-8.0,4.875
-66.0,-17.0,4.876
-105.0,-17.0,4.877
-155.0,-5.0,4.878
-168.0,9.0,4.879
-111.0,10.0,4.88
-16.0,-4.0,4.881
45.0,-14.0,4.882
58.0,-15.0,4.883
74.0,-7.0,4.884
126.0,6.0,4.885
181.0,17.0,4.886
185.0,15.0,4.887
134.0,9.0,4.888
59.0,4.0,4.889
-5.0,2.0,4.89
-42.0,-2.0,4.891
-48.0,-2.0,4.892
-39.0,8.0,4.893
-35.0,22.0,4.894
-41.0,22.0,4.895
-38.0,7.0,4.896
-22.0,-6.0,4.897
-18.0,-14.0,4.898
-34.0,-15.0,4.899
-54.0,-16.0,4.9
-90.0,-16.0,4.901
-125.0,-15.0,4.902
-159.0,-15.0,4.903
-168.0,-14.0,4.904
-97.0,-15.0,4.905
-27.0,-18.0,4.906
38.0,-24.0,4.907
96.0,-26.0,4.908
134.0,-12.0,4.909
173.0,6.0,4.91
217.0,39.0,4.911
231.0,65.0,4.912
153.0,69.0,4.913
87.0,65.0,4.914
57.0,33.0,4.915
23.0,6.0,4.916
-22.0,-2.0,4.917
-63.0,-7.0,4.918
-75.0,-8.0,4.919
-59.0,-16.0,4.92
-44.0,-28.0,4.921
-40.0,-26.0,4.922
-37.0,-20.0,4.923
-29.0,-17.0,4.924
-22.0,-14.0,4.925
-9.0,-3.0,4.926
8.0,6.0,4.927
19.0,8.0,4.928
11.0,4.0,4.929
-16.0,-1.0,4.93
-59.0,-5.0,4.931
-110.0,-7.0,4.932
-144.0,-5.0,4.933
-131.0,-3.0,4.934
-83.0,-3.0,4.935
-37.0,-7.0,4.936
-5.0,-9.0,4.937
25.0,-11.0,4.938
62.0,-11.0,4.939
91.0,-11.0,4.94
102.0,-11.0,4.941
104.0,-8.0,4.942
113.0,-3.0,4.943
116.0,2.0,4.944
98.0,9.0,4.945
59.0,10.0,4.946
12.0,4.0,4.947
-25.0,-3.0,4.948
-45.0,-2.0,4.949
-51.0,5.0,4.95
-55.0,9.0,4.951
-65.0,6.0,4.952
-76.0,4.0,4.953
-81.0,5.0,4.954
-83.0,2.0,4.955
-74.0,-2.0,4.956
-44.0,2.0,4.957
5.0,17.0,4.958
49.0,35.0,4.959
67.0,41.0,4.96
73.0,23.0,4.961
73.0,-8.0,4.962
67.0,-35.0,4.963
47.0,-42.0,4.964
23.0,-29.0,4.965
13.0,-19.0,4.966
11.0,-23.0,4.967
8.0,-31.0,4.968
-7.0,-27.0,4.969
-25.0,-13.0,4.97
-32.0,3.0,4.971
-32.0,16.0,4.972
-40.0,25.0,4.973
-58.0,25.0,4.974
-66.0,16.0,4.975
-47.0,7.0,4.976
-15.0,3.0,4.977
10.0,-2.0,4.978
22.0,-7.0,4.979
20.0,-5.0,4.98
6.0,0.0,4.981
-7.0,12.0,4.982
0.0,18.0,4.983
22.0,13.0,4.984
21.0,0.0,4.985
-8.0,-14.0,4.986
-23.0,-26.0,4.987
12.0,-29.0,4.988
73.0,-25.0,4.989
111.0,-16.0,4.99
110.0,1.0,4.991
90.0,22.0,4.992
66.0,42.0,4.993
34.0,56.0,4.994
-5.0,56.0,4.995
-43.0,38.0,4.996
-65.0,15.0,4.997
-62.0,-1.0,4.998
-30.0,-3.0,4.999
11.0,-1.0,5.0
34.0,-11.0,5.001
31.0,-22.0,5.002
23.0,-21.0,5.003
19.0,-11.0,5.004
9.0,-5.0,5.005
-15.0,-5.0,5.006
-35.0,-6.0,5.007
-36.0,-6.0,5.008
-29.0,-9.0,5.009
-29.0,-12.0,5.01
-27.0,-10.0,5.011
-16.0,-1.0,5.012
0.0,9.0,5.013
9.0,12.0,5.014
8.0,8.0,5.015
0.0,-1.0,5.016
-15.0,-5.0,5.017
26.0,-6.0,5.018
34.0,-3.0,5.019
40.0,2.0,5.02
30.0,12.0,5.021
19.0,24.0,5.022
6.0,43.0,5.023
-7.0,56.0,5.024
-27.0,49.0,5.025
-49.0,31.0,5.026
-73.0,-17.0,5.027
-85.0,-63.0,5.028
-59.0,-105.0,5.029
-33.0,-131.0,5.03
-9.0,-103.0,5.031
15.0,-71.0,5.032
44.0,-30.0,5.033
60.0,0.0,5.034
37.0,-1.0,5.035
23.0,-3.0,5.036
34.0,1.0,5.037
30.0,6.0,5.038
40.0,11.0,5.039
46.0,18.0,5.04
35.0,28.0,5.041
22.0,36.0,5.042
7.0,33.0,5.043
-9.0,21.0,5.044
-32.0,14.0,5.045
-57.0,15.0,5.046
-85.0,12.0,5.047
-99.0,1.0,5.048
-69.0,-5.0,5.049
-39.0,3.0,5.05
-11.0,11.0,5.051
18.0,6.0,5.052
51.0,-1.0,5.053
69.0,7.0,5.054
43.0,27.0,5.055
27.0,27.0,5.056
39.0,6.0,5.057
48.0,-13.0,5.058
29.0,-10.0,5.059
-13.0,4.0,5.06
-33.0,5.0,5.061
-20.0,6.0,5.062
5.0,23.0,5.063
28.0,38.0,5.064
54.0,23.0,5.065
70.0,-12.0,5.066
50.0,-26.0,5.067
-1.0,-11.0,5.068
-46.0,-3.0,5.069
-85.0,-12.0,5.07
-134.0,-21.0,5.071
-167.0,-12.0,5.072
-124.0,-4.0,5.073
-17.0,-7.0,5.074
62.0,-9.0,5.075
74.0,-5.0,5.076
81.0,-2.0,5.077
137.0,-2.0,5.078
161.0,9.0,5.079
111.0,23.0,5.08
43.0,12.0,5.081
21.0,-13.0,5.082
22.0,-25.0,5.083
0.0,-14.0,5.084
-47.0,-6.0,5.085
-96.0,-12.0,5.086
-134.0,-14.0,5.087
-136.0,0.0,5.088
-75.0,10.0,5.089
11.0,3.0,5.09
45.0,-10.0,5.091
19.0,-13.0,5.092
9.0,-8.0,5.093
47.0,-2.0,5.094
62.0,7.0,5.095
6.0,14.0,5.096
-65.0,7.0,5.097
-85.0,-15.0,5.098
-37.0,-33.0,5.099
37.0,-37.0,5.1
94.0,-33.0,5.101
110.0,-20.0,5.102
84.0,7.0,5.103
68.0,38.0,5.104
94.0,48.0,5.105
120.0,42.0,5.106
77.0,41.0,5.107
-26.0,45.0,5.108
-116.0,34.0,5.109
-154.0,11.0,5.11
-153.0,5.0,5.111
-122.0,16.0,5.112
-71.0,18.0,5.113
-35.0,0.0,5.114
-40.0,-13.0,5.115
-57.0,-11.0,5.116
-44.0,-8.0,5.117
-12.0,-11.0,5.118
0.0,-9.0,5.119
-7.0,-3.0,5.12
6.0,-10.0,5.121
41.0,-26.0,5.122
61.0,-31.0,5.123
55.0,-19.0,5.124
51.0,-8.0,5.125
62.0,-9.0,5.126
65.0,-11.0,5.127
43.0,-8.0,5.128
18.0,-2.0,5.129
2.0,-2.0,5.13
-4.0,-6.0,5.131
-14.0,-6.0,5.132
-22.0,-4.0,5.133
-23.0,0.0,5.134
-23.0,-2.0,5.135
-24.0,-4.0,5.136
-20.0,-5.0,5.137
-9.0,-6.0,5.138
9.0,-9.0,5.139
25.0,-12.0,5.14
44.0,-17.0,5.141
70.0,-19.0,5.142
97.0,-19.0,5.143
103.0,-18.0,5.144
76.0,-15.0,5.145
29.0,-4.0,5.146
-14.0,12.0,5.147
-50.0,31.0,5.148
-82.0,41.0,5.149
-96.0,33.0,5.15
-78.0,15.0,5.151
-45.0,8.0,5.152
-31.0,17.0,5.153
-25.0,22.0,5.154
8.0,10.0,5.155
61.0,-6.0,5.156
94.0,-9.0,5.157
97.0,-10.0,5.158
92.0,-18.0,5.159
83.0,-28.0,5.16
48.0,-28.0,5.161
-2.0,-17.0,5.162
-33.0,-8.0,5.163
-43.0,4.0,5.164
-58.0,27.0,5.165
-71.0,48.0,5.166
-47.0,43.0,5.167
-2.0,21.0,5.168
10.0,6.0,5.169
-14.0,6.0,5.17
-23.0,3.0,5.171
1.0,-8.0,5.172
21.0,-7.0,5.173
0.0,14.0,5.174
-30.0,27.0,5.175
-38.0,12.0,5.176
-30.0,-10.0,5.177
-31.0,-18.0,5.178
-37.0,-10.0,5.179
-33.0,-10.0,5.18
-17.0,-25.0,5.181
-11.0,-31.0,5.182
-18.0,-24.0,5.183
-21.0,-17.0,5.184
-3.0,-20.0,5.185
34.0,-25.0,5.186
65.0,-24.0,5.187
69.0,-21.0,5.188
54.0,-16.0,5.189
44.0,-2.0,5.19
52.0,15.0,5.191
63.0,27.0,5.192
57.0,24.0,5.193
40.0,16.0,5.194
22.0,8.0,5.195
2.0,-1.0,5.196
-23.0,-10.0,5.197
-53.0,-16.0,5.198
-69.0,-10.0,5.199
-72.0,7.0,5.2
-66.0,19.0,5.201
-45.0,19.0,5.202
-12.0,13.0,5.203
10.0,17.0,5.204
13.0,30.0,5.205
25.0,28.0,5.206
63.0,3.0,5.207
88.0,-16.0,5.208
63.0,-18.0,5.209
18.0,-19.0,5.21
4.0,-28.0,5.211
13.0,-27.0,5.212
3.0,3.0,5.213
-20.0,35.0,5.214
-12.0,36.0,5.215
18.0,16.0,5.216
22.0,14.0,5.217
-13.0,30.0,5.218
-26.0,34.0,5.219
7.0,11.0,5.22
47.0,-17.0,5.221
45.0,-25.0,5.222
25.0,-16.0,5.223
34.0,-11.0,5.224
65.0,-13.0,5.225
70.0,-13.0,5.226
46.0,-11.0,5.227
18.0,-15.0,5.228
-7.0,-24.0,5.229
-47.0,-27.0,5.23
-90.0,-26.0,5.231
-100.0,-26.0,5.232
-75.0,-32.0,5.233
-45.0,-29.0,5.234
-28.0,-14.0,5.235
-12.0,5.0,5.236
10.0,16.0,5.237
20.0,17.0,5.238
1.0,21.0,5.239
-33.0,36.0,5.24
-59.0,54.0,5.241
-61.0,64.0,5.242
-45.0,55.0,5.243
-24.0,28.0,5.244
-9.0,3.0,5.245
7.0,-4.0,5.246
26.0,0.0,5.247
38.0,-4.0,5.248
30.0,-17.0,5.249
11.0,-24.0,5.25
3.0,-17.0,5.251
11.0,-6.0,5.252
11.0,-4.0,5.253
-3.0,-5.0,5.254
-14.0,-5.0,5.255
-13.0,-6.0,5.256
-5.0,-9.0,5.257
-4.0,-16.0,5.258
-6.0,-17.0,5.259
-16.0,-18.0,5.26
-34.0,-25.0,5.261
-49.0,-31.0,5.262
-39.0,-30.0,5.263
-6.0,-26.0,5.264
25.0,-21.0,5.265
46.0,-13.0,5.266
70.0,-3.0,5.267
106.0,3.0,5.268
140.0,6.0,5.269
162.0,5.0,5.27
172.0,2.0,5.271
155.0,1.0,5.272
99.0,7.0,5.273
22.0,18.0,5.274
-38.0,28.0,5.275
-67.0,32.0,5.276
-71.0,36.0,5.277
-68.0,35.0,5.278
-62.0,27.0,5.279
-69.0,11.0,5.28
-84.0,-5.0,5.281
-86.0,-10.0,5.282
-59.0,-11.0,5.283
-31.0,-16.0,5.284
-29.0,-22.0,5.285
-44.0,-27.0,5.286
-58.0,-30.0,5.287
-78.0,-32.0,5.288
-110.0,-30.0,5.289
-114.0,-23.0,5.29
-53.0,-10.0,5.291
40.0,2.0,5.292
101.0,12.0,5.293
121.0,13.0,5.294
139.0,19.0,5.295
158.0,42.0,5.296
143.0,74.0,5.297
88.0,85.0,5.298
39.0,62.0,5.299
28.0,30.0,5.3
30.0,11.0,5.301
17.0,0.0,5.302
3.0,-20.0,5.303
9.0,-39.0,5.304
18.0,-35.0,5.305
6.0,-17.0,5.306
-20.0,-10.0,5.307
-45.0,-12.0,5.308
-58.0,-8.0,5.309
-55.0,-1.0,5.31
-39.0,-5.0,5.311
-27.0,-15.0,5.312
-37.0,-13.0,5.313
-55.0,-3.0,5.314
-65.0,1.0,5.315
-72.0,-3.0,5.316
-81.0,-5.0,5.317
-72.0,-8.0,5.318
-27.0,-15.0,5.319
31.0,-23.0,5.32
65.0,-22.0,5.321
64.0,-11.0,5.322
51.0,-2.0,5.323
41.0,5.0,5.324
23.0,14.0,5.325
-4.0,17.0,5.326
-21.0,5.0,5.327
-21.0,-11.0,5.328
-14.0,-13.0,5.329
1.0,-7.0,5.33
38.0,-9.0,5.331
91.0,-16.0,5.332
123.0,-12.0,5.333
102.0,6.0,5.334
30.0,25.0,5.335
-54.0,33.0,5.336
-99.0,32.0,5.337
-87.0,21.0,5.338
-35.0,6.0,5.339
4.0,-4.0,5.34
7.0,-5.0,5.341
-4.0,-1.0,5.342
-1.0,-5.0,5.343
12.0,-13.0,5.344
18.0,-16.0,5.345
22.0,-16.0,5.346
28.0,-20.0,5.347
25.0,-30.0,5.348
10.0,-31.0,5.349
-16.0,-16.0,5.35
-58.0,7.0,5.351
-103.0,27.0,5.352
-112.0,35.0,5.353
-70.0,29.0,5.354
-13.0,16.0,5.355
20.0,0.0,5.356
36.0,-10.0,5.357
50.0,-13.0,5.358
52.0,0.0,5.359
48.0,11.0,5.36
24.0,11.0,5.361
10.0,9.0,5.362
28.0,1.0,5.363
47.0,0.0,5.364
69.0,17.0,5.365
78.0,29.0,5.366
42.0,21.0,5.367
8.0,12.0,5.368
-13.0,4.0,5.369
-23.0,-2.0,5.37
7.0,2.0,5.371
31.0,4.0,5.372
30.0,-1.0,5.373
19.0,-4.0,5.374
-19.0,1.0,5.375
-51.0,1.0,5.376
-59.0,-15.0,5.377
-62.0,-30.0,5.378
-44.0,-38.0,5.379
-9.0,-47.0,5.38
62.0,-68.0,5.381
139.0,-84.0,5.382
177.0,-78.0,5.383
174.0,-52.0,5.384
161.0,-19.0,5.385
125.0,17.0,5.386
27.0,55.0,5.387
-104.0,94.0,5.388
-192.0,125.0,5.389
-210.0,133.0,5.39
-189.0,100.0,5.391
-146.0,45.0,5.392
-83.0,9.0,5.393
-36.0,9.0,5.394
-42.0,14.0,5.395
-69.0,-1.0,5.396
-66.0,-24.0,5.397
-46.0,-35.0,5.398
-40.0,-35.0,5.399
-28.0,-35.0,5.4
1.0,-41.0,5.401
26.0,-43.0,5.402
38.0,-33.0,5.403
48.0,-26.0,5.404
53.0,-33.0,5.405
55.0,-38.0,5.406
45.0,-35.0,5.407
48.0,-32.0,5.408
88.0,-31.0,5.409
111.0,-26.0,5.41
85.0,-10.0,5.411
54.0,8.0,5.412
8.0,29.0,5.413
-35.0,46.0,5.414
-69.0,53.0,5.415
-80.0,54.0,5.416
-22.0,32.0,5.417
25.0,12.0,5.418
7.0,4.0,5.419
-23.0,2.0,5.42
-5.0,-8.0,5.421
30.0,-17.0,5.422
29.0,-16.0,5.423
14.0,-10.0,5.424
25.0,-8.0,5.425
38.0,-11.0,5.426
21.0,-10.0,5.427
-8.0,-6.0,5.428
-15.0,-3.0,5.429
-18.0,-3.0,5.43
-36.0,-5.0,5.431
-52.0,-5.0,5.432
-59.0,-10.0,5.433
-82.0,-24.0,5.434
-106.0,-43.0,5.435
-72.0,-60.0,5.436
18.0,-61.0,5.437
105.0,-41.0,5.438
141.0,7.0,5.439
148.0,68.0,5.44
150.0,109.0,5.441
126.0,113.0,5.442
77.0,77.0,5.443
39.0,34.0,5.444
16.0,17.0,5.445
-20.0,21.0,5.446
-45.0,16.0,5.447
-19.0,-3.0,5.448
24.0,-13.0,5.449
11.0,-6.0,5.45
-38.0,-3.0,5.451
-49.0,-14.0,5.452
-30.0,-22.0,5.453
-48.0,-17.0,5.454
-93.0,-12.0,5.455
-92.0,-15.0,5.456
-47.0,-13.0,5.457
-10.0,-5.0,5.458
1.0,-3.0,5.459
19.0,-15.0,5.46
41.0,-26.0,5.461
28.0,-22.0,5.462
-4.0,-11.0,5.463
-9.0,-9.0,5.464
10.0,-14.0,5.465
5.0,-19.0,5.466
-11.0,-27.0,5.467
-1.0,-43.0,5.468
27.0,-59.0,5.469
28.0,-60.0,5.47
3.0,-33.0,5.471
-8.0,23.0,5.472
-21.0,87.0,5.473
-66.0,117.0,5.474
-95.0,93.0,5.475
-24.0,39.0,5.476
104.0,2.0,5.477
162.0,-11.0,5.478
86.0,-16.0,5.479
-24.0,-19.0,5.48
-46.0,-9.0,5.481
-12.0,23.0,5.482
-7.0,44.0,5.483
-14.0,23.0,5.484
34.0,-19.0,5.485
111.0,-43.0,5.486
131.0,-47.0,5.487
93.0,-52.0,5.488
67.0,-58.0,5.489
50.0,-35.0,5.49
-31.0,21.0,5.491
-165.0,73.0,5.492
-233.0,75.0,5.493
-187.0,38.0,5.494
-119.0,2.0,5.495
-109.0,-5.0,5.496
-110.0,3.0,5.497
-60.0,-1.0,5.498
8.0,-16.0,5.499
24.0,-23.0,5.5
6.0,-21.0,5.501
15.0,-18.0,5.502
51.0,-24.0,5.503
58.0,-26.0,5.504
43.0,-16.0,5.505
42.0,-6.0,5.506
53.0,-8.0,5.507
49.0,-12.0,5.508
40.0,-7.0,5.509
44.0,7.0,5.51
45.0,15.0,5.511
24.0,12.0,5.512
-5.0,8.0,5.513
-13.0,3.0,5.514
-9.0,-4.0,5.515
-11.0,-13.0,5.516
-14.0,-23.0,5.517
-12.0,-34.0,5.518
-6.0,-44.0,5.519
5.0,-47.0,5.52
41.0,-35.0,5.521
78.0,-6.0,5.522
46.0,24.0,5.523
-64.0,39.0,5.524
-153.0,36.0,5.525
-126.0,31.0,5.526
-7.0,35.0,5.527
113.0,47.0,5.528
195.0,57.0,5.529
242.0,67.0,5.53
222.0,71.0,5.531
112.0,54.0,5.532
-16.0,18.0,5.533
-72.0,-6.0,5.534
-56.0,-3.0,5.535
-39.0,4.0,5.536
-42.0,-7.0,5.537
-40.0,-27.0,5.538
-21.0,-27.0,5.539
-14.0,-19.0,5.54
-20.0,-27.0,5.541
-15.0,-36.0,5.542
2.0,-30.0,5.543
3.0,-17.0,5.544
-9.0,-20.0,5.545
-15.0,-30.0,5.546
-18.0,-27.0,5.547
-37.0,-15.0,5.548
-58.0,-10.0,5.549
-54.0,-11.0,5.55
-27.0,-7.0,5.551
-4.0,2.0,5.552
5.0,7.0,5.553
12.0,7.0,5.554
15.0,10.0,5.555
5.0,12.0,5.556
-8.0,10.0,5.557
-12.0,0.0,5.558
-1.0,-5.0,5.559
10.0,-7.0,5.56
10.0,-11.0,5.561
13.0,-12.0,5.562
23.0,-10.0,5.563
32.0,-7.0,5.564
28.0,-9.0,5.565
15.0,-11.0,5.566
3.0,-9.0,5.567
-7.0,-8.0,5.568
-21.0,-11.0,5.569
-31.0,-13.0,5.57
-12.0,-8.0,5.571
33.0,1.0,5.572
65.0,10.0,5.573
39.0,13.0,5.574
-38.0,5.0,5.575
-103.0,-11.0,5.576
-91.0,-23.0,5.577
-1.0,-26.0,5.578
97.0,-15.0,5.579
124.0,14.0,5.58
72.0,54.0,5.581
-8.0,85.0,5.582
-58.0,62.0,5.583
-67.0,-8.0,5.584
-48.0,-57.0,5.585
-17.0,-40.0,5.586
12.0,6.0,5.587
13.0,32.0,5.588
-26.0,41.0,5.589
-81.0,63.0,5.59
-112.0,72.0,5.591
-89.0,24.0,5.592
-6.0,-49.0,5.593
101.0,-71.0,5.594
169.0,-23.0,5.595
156.0,45.0,5.596
96.0,90.0,5.597
36.0,95.0,5.598
-6.0,62.0,5.599
-42.0,0.0,5.6
-45.0,-54.0,5.601
15.0,-59.0,5.602
103.0,-34.0,5.603
128.0,-13.0,5.604
71.0,-10.0,5.605
-3.0,-19.0,5.606
-39.0,-30.0,5.607
-43.0,-30.0,5.608
-35.0,-15.0,5.609
-22.0,4.0,5.61
-17.0,6.0,5.611
-31.0,-3.0,5.612
-53.0,-1.0,5.613
-58.0,6.0,5.614
-45.0,-8.0,5.615
-22.0,-38.0,5.616
9.0,-48.0,5.617
39.0,-35.0,5.618
27.0,-21.0,5.619
-60.0,-14.0,5.62
-166.0,-2.0,5.621
-194.0,15.0,5.622
-103.0,2.0,5.623
21.0,-45.0,5.624
65.0,-74.0,5.625
17.0,-50.0,5.626
-37.0,0.0,5.627
-39.0,22.0,5.628
-13.0,7.0,5.629
6.0,-11.0,5.63
37.0,-2.0,5.631
87.0,29.0,5.632
104.0,46.0,5.633
64.0,37.0,5.634
40.0,30.0,5.635
93.0,63.0,5.636
160.0,119.0,5.637
139.0,148.0,5.638
34.0,128.0,5.639
-50.0,84.0,5.64
-50.0,26.0,5.641
7.0,-43.0,5.642
64.0,-103.0,5.643
79.0,-101.0,5.644
44.0,-47.0,5.645
-6.0,-8.0,5.646
-15.0,12.0,5.647
30.0,77.0,5.648
83.0,198.0,5.649
95.0,276.0,5.65
62.0,257.0,5.651
3.0,196.0,5.652
-64.0,138.0,5.653
-105.0,31.0,5.654
-104.0,-162.0,5.655
-96.0,-369.0,5.656
-101.0,-489.0,5.657
-100.0,-531.0,5.658
-58.0,-513.0,5.659
-4.0,-418.0,5.66
10.0,-249.0,5.661
-14.0,-88.0,5.662
-35.0,-18.0,5.663
-44.0,-4.0,5.664
-58.0,39.0,5.665
-64.0,113.0,5.666
-26.0,163.0,5.667
40.0,175.0,5.668
70.0,186.0,5.669
37.0,198.0,5.67
-14.0,173.0,5.671
-23.0,108.0,5.672
14.0,40.0,5.673
52.0,0.0,5.674
50.0,-12.0,5.675
18.0,-11.0,5.676
-5.0,0.0,5.677
-11.0,13.0,5.678
-21.0,22.0,5.679
-57.0,24.0,5.68
-96.0,19.0,5.681
-82.0,13.0,5.682
10.0,7.0,5.683
146.0,4.0,5.684
235.0,7.0,5.685
195.0,11.0,5.686
31.0,6.0,5.687
-148.0,0.0,5.688
-238.0,11.0,5.689
-227.0,47.0,5.69
-151.0,84.0,5.691
-14.0,76.0,5.692
155.0,23.0,5.693
225.0,-14.0,5.694
101.0,16.0,5.695
-78.0,95.0,5.696
-82.0,153.0,5.697
110.0,150.0,5.698
278.0,108.0,5.699
255.0,80.0,5.7
123.0,95.0,5.701
28.0,134.0,5.702
-20.0,126.0,5.703
-66.0,44.0,5.704
-77.0,-59.0,5.705
-17.0,-121.0,5.706
59.0,-144.0,5.707
75.0,-185.0,5.708
20.0,-242.0,5.709
-87.0,-256.0,5.71
-230.0,-204.0,5.711
-337.0,-144.0,5.712
-315.0,-132.0,5.713
-162.0,-153.0,5.714
24.0,-151.0,5.715
187.0,-97.0,5.716
316.0,-12.0,5.717
357.0,83.0,5.718
211.0,155.0,5.719
-73.0,168.0,5.72
-266.0,107.0,5.721
-211.0,16.0,5.722
-7.0,-42.0,5.723
152.0,-36.0,5.724
179.0,17.0,5.725
115.0,82.0,5.726
22.0,132.0,5.727
-50.0,148.0,5.728
-66.0,119.0,5.729
-41.0,61.0,5.73
-36.0,23.0,5.731
-72.0,36.0,5.732
-83.0,75.0,5.733
-29.0,96.0,5.734
35.0,103.0,5.735
32.0,123.0,5.736
-17.0,153.0,5.737
-38.0,146.0,5.738
-8.0,81.0,5.739
22.0,-12.0,5.74
20.0,-118.0,5.741
15.0,-236.0,5.742
31.0,-350.0,5.743
45.0,-400.0,5.744
33.0,-356.0,5.745
7.0,-260.0,5.746
-9.0,-171.0,5.747
-14.0,-104.0,5.748
-3.0,-45.0,5.749
22.0,2.0,5.75
36.0,31.0,5.751
20.0,62.0,5.752
-16.0,119.0,5.753
-42.0,191.0,5.754
-44.0,235.0,5.755
-29.0,227.0,5.756
-9.0,187.0,5.757
7.0,133.0,5.758
4.0,65.0,5.759
-15.0,-28.0,5.76
-47.0,-129.0,5.761
-95.0,-182.0,5.762
-140.0,-172.0,5.763
-105.0,-146.0,5.764
55.0,-136.0,5.765
253.0,-121.0,5.766
331.0,-60.0,5.767
250.0,42.0,5.768
111.0,133.0,5.769
23.0,167.0,5.77
15.0,145.0,5.771
44.0,123.0,5.772
37.0,141.0,5.773
-48.0,156.0,5.774
-144.0,110.0,5.775
-151.0,30.0,5.776
-97.0,5.0,5.777
-83.0,42.0,5.778
-120.0,64.0,5.779
-108.0,27.0,5.78
-29.0,-15.0,5.781
12.0,-16.0,5.782
-10.0,-20.0,5.783
-5.0,-47.0,5.784
45.0,-59.0,5.785
55.0,-37.0,5.786
12.0,-24.0,5.787
5.0,-41.0,5.788
40.0,-45.0,5.789
31.0,-23.0,5.79
-31.0,-11.0,5.791
-62.0,-23.0,5.792
-41.0,-24.0,5.793
-30.0,-3.0,5.794
-41.0,2.0,5.795
-26.0,-13.0,5.796
5.0,-20.0,5.797
11.0,-12.0,5.798
-5.0,-8.0,5.799
7.0,-17.0,5.8
40.0,-20.0,5.801
46.0,-10.0,5.802
36.0,-5.0,5.803
46.0,-6.0,5.804
65.0,-2.0,5.805
53.0,7.0,5.806
27.0,1.0,5.807
20.0,-11.0,5.808
16.0,-11.0,5.809
-22.0,-7.0,5.81
-75.0,-12.0,5.811
-95.0,-25.0,5.812
-77.0,-25.0,5.813
-36.0,-12.0,5.814
21.0,7.0,5.815
94.0,38.0,5.816
148.0,79.0,5.817
139.0,113.0,5.818
75.0,124.0,5.819
6.0,123.0,5.82
-21.0,125.0,5.821
-7.0,123.0,5.822
14.0,91.0,5.823
19.0,30.0,5.824
17.0,-41.0,5.825
19.0,-115.0,5.826
19.0,-186.0,5.827
2.0,-228.0,5.828
-27.0,-220.0,5.829
-59.0,-173.0,5.83
-103.0,-126.0,5.831
-164.0,-100.0,5.832
-199.0,-105.0,5.833
-143.0,-138.0,5.834
14.0,-170.0,5.835
197.0,-147.0,5.836
305.0,-44.0,5.837
291.0,121.0,5.838
178.0,253.0,5.839
56.0,256.0,5.84
4.0,138.0,5.841
-19.0,24.0,5.842
-93.0,17.0,5.843
-170.0,80.0,5.844
-134.0,98.0,5.845
-20.0,52.0,5.846
3.0,20.0,5.847
-76.0,39.0,5.848
-92.0,49.0,5.849
6.0,21.0,5.85
64.0,9.0,5.851
1.0,44.0,5.852
-53.0,78.0,5.853
-15.0,74.0,5.854
22.0,57.0,5.855
-10.0,50.0,5.856
-45.0,33.0,5.857
-36.0,-5.0,5.858
-24.0,-36.0,5.859
-29.0,-44.0,5.86
-4.0,-57.0,5.861
47.0,-79.0,5.862
61.0,-84.0,5.863
38.0,-67.0,5.864
34.0,-56.0,5.865
43.0,-65.0,5.866
18.0,-72.0,5.867
-15.0,-57.0,5.868
0.0,-35.0,5.869
23.0,-23.0,5.87
-5.0,-15.0,5.871
-59.0,-6.0,5.872
-65.0,-2.0,5.873
-39.0,-4.0,5.874
-47.0,-6.0,5.875
-90.0,-7.0,5.876
-113.0,-11.0,5.877
-110.0,-23.0,5.878
-98.0,-31.0,5.879
-60.0,-29.0,5.88
53.0,2.0,5.881
172.0,39.0,5.882
312.0,95.0,5.883
404.0,138.0,5.884
350.0,142.0,5.885
297.0,118.0,5.886
245.0,12.0,5.887
158.0,-64.0,5.888
-29.0,-52.0,5.889
-193.0,-43.0,5.89
-286.0,-43.0,5.891
-322.0,-37.0,5.892
-183.0,-18.0,5.893
-73.0,12.0,5.894
-55.0,80.0,5.895
-54.0,131.0,5.896
-104.0,131.0,5.897
-135.0,119.0,5.898
-81.0,56.0,5.899
-20.0,-6.0,5.9
-7.0,-11.0,5.901
-13.0,33.0,5.902
11.0,46.0,5.903
48.0,6.0,5.904
47.0,-35.0,5.905
21.0,-44.0,5.906
11.0,-45.0,5.907
18.0,-49.0,5.908
13.0,-39.0,5.909
0.0,-24.0,5.91
-6.0,-34.0,5.911
-23.0,-70.0,5.912
-70.0,-107.0,5.913
-122.0,-134.0,5.914
-110.0,-153.0,5.915
-17.0,-148.0,5.916
97.0,-110.0,5.917
166.0,-57.0,5.918
151.0,-11.0,5.919
83.0,18.0,5.92
22.0,26.0,5.921
9.0,7.0,5.922
34.0,-16.0,5.923
54.0,-3.0,5.924
42.0,57.0,5.925
9.0,115.0,5.926
-15.0,129.0,5.927
-25.0,114.0,5.928
-36.0,97.0,5.929
-53.0,69.0,5.93
-65.0,8.0,5.931
-55.0,-62.0,5.932
-15.0,-109.0,5.933
56.0,-119.0,5.934
130.0,-107.0,5.935
160.0,-89.0,5.936
132.0,-72.0,5.937
60.0,-51.0,5.938
-17.0,-4.0,5.939
-72.0,72.0,5.94
-67.0,131.0,5.941
34.0,126.0,5.942
187.0,71.0,5.943
251.0,36.0,5.944
145.0,60.0,5.945
-49.0,112.0,5.946
-183.0,139.0,5.947
-202.0,130.0,5.948
-149.0,91.0,5.949
-79.0,22.0,5.95
-35.0,-49.0,5.951
-63.0,-78.0,5.952
-138.0,-53.0,5.953
-159.0,-26.0,5.954
-82.0,-42.0,5.955
14.0,-72.0,5.956
46.0,-71.0,5.957
31.0,-46.0,5.958
32.0,-28.0,5.959
42.0,-24.0,5.96
22.0,-20.0,5.961
-9.0,-5.0,5.962
-14.0,5.0,5.963
-7.0,6.0,5.964
-20.0,0.0,5.965
-32.0,-13.0,5.966
-4.0,-33.0,5.967
38.0,-41.0,5.968
55.0,-30.0,5.969
59.0,-26.0,5.97
80.0,-53.0,5.971
93.0,-89.0,5.972
54.0,-82.0,5.973
-22.0,-35.0,5.974
-82.0,5.0,5.975
-91.0,16.0,5.976
-45.0,17.0,5.977
40.0,34.0,5.978
127.0,62.0,5.979
146.0,85.0,5.98
82.0,95.0,5.981
-8.0,102.0,5.982
-39.0,95.0,5.983
9.0,74.0,5.984
79.0,57.0,5.985
95.0,54.0,5.986
42.0,42.0,5.987
-17.0,7.0,5.988
-34.0,-24.0,5.989
-24.0,-33.0,5.99
-27.0,-35.0,5.991
-44.0,-55.0,5.992
-42.0,-78.0,5.993
-25.0,-73.0,5.994
-14.0,-46.0,5.995
4.0,-38.0,5.996
47.0,-52.0,5.997
69.0,-74.0,5.998
19.0,-85.0,5.999
-35.0,-90.0,6.0
-103.0,-81.0,6.001
-144.0,-38.0,6.002
-102.0,19.0,6.003
-71.0,51.0,6.004
-71.0,29.0,6.005
-64.0,-13.0,6.006
-42.0,-37.0,6.007
-8.0,-25.0,6.008
60.0,4.0,6.009
97.0,36.0,6.01
43.0,61.0,6.011
-4.0,70.0,6.012
-30.0,69.0,6.013
-50.0,72.0,6.014
-51.0,79.0,6.015
-34.0,71.0,6.016
39.0,46.0,6.017
110.0,16.0,6.018
134.0,0.0,6.019
104.0,-2.0,6.02
96.0,-1.0,6.021
123.0,9.0,6.022
138.0,8.0,6.023
113.0,-15.0,6.024
58.0,-40.0,6.025
-12.0,-24.0,6.026
-65.0,17.0,6.027
-67.0,31.0,6.028
-33.0,5.0,6.029
-24.0,-8.0,6.03
-58.0,7.0,6.031
-78.0,15.0,6.032
-44.0,-1.0,6.033
-5.0,-17.0,6.034
-9.0,-17.0,6.035
-26.0,-16.0,6.036
-5.0,-24.0,6.037
56.0,-28.0,6.038
63.0,-22.0,6.039
-19.0,-28.0,6.04
-148.0,-50.0,6.041
-230.0,-52.0,6.042
-194.0,-14.0,6.043
-46.0,45.0,6.044
120.0,101.0,6.045
209.0,135.0,6.046
201.0,138.0,6.047
155.0,108.0,6.048
111.0,68.0,6.049
61.0,58.0,6.05
0.0,86.0,6.051
-37.0,124.0,6.052
-25.0,141.0,6.053
-5.0,114.0,6.054
-17.0,38.0,6.055
-47.0,-77.0,6.056
-55.0,-190.0,6.057
-46.0,-277.0,6.058
-42.0,-308.0,6.059
-38.0,-272.0,6.06
-19.0,-183.0,6.061
0.0,-77.0,6.062
-6.0,4.0,6.063
-21.0,54.0,6.064
-8.0,88.0,6.065
20.0,101.0,6.066
30.0,73.0,6.067
16.0,6.0,6.068
-3.0,-70.0,6.069
-15.0,-130.0,6.07
-14.0,-161.0,6.071
6.0,-151.0,6.072
37.0,-97.0,6.073
42.0,-35.0,6.074
11.0,-9.0,6.075
-24.0,-17.0,6.076
-38.0,-23.0,6.077
-51.0,-8.0,6.078
-66.0,18.0,6.079
-50.0,40.0,6.08
5.0,63.0,6.081
54.0,87.0,6.082
61.0,90.0,6.083
43.0,67.0,6.084
19.0,40.0,6.085
-17.0,25.0,6.086
-43.0,9.0,6.087
-7.0,-16.0,6.088
76.0,-30.0,6.089
109.0,-2.0,6.09
38.0,54.0,6.091
-66.0,99.0,6.092
-109.0,116.0,6.093
-75.0,119.0,6.094
-17.0,109.0,6.095
19.0,70.0,6.096
11.0,9.0,6.097
-45.0,-47.0,6.098
-91.0,-80.0,6.099
-60.0,-94.0,6.1
38.0,-98.0,6.101
115.0,-78.0,6.102
120.0,-39.0,6.103
95.0,-9.0,6.104
84.0,-3.0,6.105
72.0,0.0,6.106
46.0,14.0,6.107
33.0,33.0,6.108
47.0,38.0,6.109
41.0,33.0,6.11
-16.0,37.0,6.111
-80.0,45.0,6.112
-89.0,46.0,6.113
-50.0,48.0,6.114
-6.0,64.0,6.115
29.0,89.0,6.116
55.0,102.0,6.117
53.0,86.0,6.118
8.0,58.0,6.119
-49.0,39.0,6.12
-63.0,24.0,6.121
-26.0,-4.0,6.122
16.0,-57.0,6.123
36.0,-116.0,6.124
41.0,-144.0,6.125
47.0,-133.0,6.126
56.0,-101.0,6.127
50.0,-71.0,6.128
21.0,-46.0,6.129
-29.0,-23.0,6.13
-78.0,-1.0,6.131
-102.0,14.0,6.132
-93.0,18.0,6.133
-50.0,-1.0,6.134
-9.0,-43.0,6.135
-25.0,-78.0,6.136
-91.0,-71.0,6.137
-135.0,-34.0,6.138
-69.0,-3.0,6.139
65.0,-3.0,6.14
133.0,-15.0,6.141
81.0,-11.0,6.142
-5.0,1.0,6.143
-44.0,17.0,6.144
-41.0,41.0,6.145
-21.0,68.0,6.146
16.0,82.0,6.147
47.0,82.0,6.148
36.0,85.0,6.149
7.0,86.0,6.15
18.0,54.0,6.151
55.0,-12.0,6.152
60.0,-60.0,6.153
47.0,-52.0,6.154
72.0,-11.0,6.155
110.0,11.0,6.156
97.0,-2.0,6.157
36.0,-36.0,6.158
-3.0,-59.0,6.159
0.0,-49.0,6.16
-7.0,-13.0,6.161
-36.0,25.0,6.162
-48.0,35.0,6.163
-27.0,19.0,6.164
-7.0,2.0,6.165
-9.0,1.0,6.166
-16.0,10.0,6.167
-12.0,22.0,6.168
-1.0,36.0,6.169
14.0,47.0,6.17
25.0,42.0,6.171
20.0,17.0,6.172
-1.0,-7.0,6.173
-22.0,-15.0,6.174
-31.0,-6.0,6.175
-36.0,19.0,6.176
-40.0,56.0,6.177
-40.0,97.0,6.178
-30.0,113.0,6.179
-21.0,82.0,6.18
-12.0,14.0,6.181
-3.0,-55.0,6.182
2.0,-110.0,6.183
-6.0,-151.0,6.184
-18.0,-183.0,6.185
-18.0,-200.0,6.186
-8.0,-185.0,6.187
-8.0,-136.0,6.188
-12.0,-69.0,6.189
-1.0,-8.0,6.19
19.0,43.0,6.191
17.0,90.0,6.192
-15.0,131.0,6.193
-41.0,145.0,6.194
-32.0,120.0,6.195
-11.0,68.0,6.196
-4.0,17.0,6.197
-9.0,-18.0,6.198
0.0,-12.0,6.199
21.0,33.0,6.2
35.0,65.0,6.201
46.0,47.0,6.202
78.0,-11.0,6.203
126.0,-66.0,6.204
153.0,-104.0,6.205
131.0,-139.0,6.206
70.0,-153.0,6.207
-1.0,-107.0,6.208
-62.0,-11.0,6.209
-97.0,62.0,6.21
-84.0,64.0,6.211
-31.0,33.0,6.212
13.0,27.0,6.213
-5.0,51.0,6.214
-70.0,67.0,6.215
-106.0,50.0,6.216
-74.0,8.0,6.217
-14.0,-34.0,6.218
16.0,-43.0,6.219
9.0,-8.0,6.22
8.0,47.0,6.221
17.0,92.0,6.222
22.0,103.0,6.223
22.0,69.0,6.224
20.0,3.0,6.225
6.0,-65.0,6.226
-20.0,-97.0,6.227
-30.0,-88.0,6.228
-8.0,-63.0,6.229
22.0,-42.0,6.23
31.0,-26.0,6.231
34.0,-16.0,6.232
51.0,-16.0,6.233
55.0,-19.0,6.234
29.0,-5.0,6.235
-2.0,26.0,6.236
-3.0,51.0,6.237
15.0,51.0,6.238
16.0,46.0,6.239
3.0,48.0,6.24
5.0,55.0,6.241
25.0,52.0,6.242
40.0,35.0,6.243
40.0,13.0,6.244
39.0,-6.0,6.245
39.0,-19.0,6.246
32.0,-32.0,6.247
14.0,-45.0,6.248
-18.0,-54.0,6.249
-65.0,-53.0,6.25
-101.0,-46.0,6.251
-83.0,-38.0,6.252
-7.0,-24.0,6.253
70.0,-5.0,6.254
86.0,8.0,6.255
33.0,12.0,6.256
-46.0,11.0,6.257
-119.0,14.0,6.258
-136.0,25.0,6.259
-68.0,34.0,6.26
48.0,39.0,6.261
125.0,52.0,6.262
113.0,72.0,6.263
43.0,89.0,6.264
-23.0,89.0,6.265
-42.0,74.0,6.266
-18.0,58.0,6.267
4.0,58.0,6.268
-23.0,73.0,6.269
-85.0,77.0,6.27
-105.0,40.0,6.271
-41.0,-32.0,6.272
57.0,-98.0,6.273
115.0,-132.0,6.274
120.0,-148.0,6.275
99.0,-165.0,6.276
59.0,-168.0,6.277
-19.0,-142.0,6.278
-100.0,-90.0,6.279
-120.0,-43.0,6.28
-65.0,-17.0,6.281
2.0,0.0,6.282
17.0,19.0,6.283
-10.0,34.0,6.284
-24.0,42.0,6.285
-8.0,43.0,6.286
12.0,37.0,6.287
18.0,28.0,6.288
29.0,23.0,6.289
52.0,26.0,6.29
56.0,40.0,6.291
25.0,75.0,6.292
-4.0,130.0,6.293
-4.0,165.0,6.294
-1.0,122.0,6.295
-18.0,2.0,6.296
-35.0,-112.0,6.297
-21.0,-156.0,6.298
12.0,-133.0,6.299
30.0,-102.0,6.3
34.0,-78.0,6.301
37.0,-36.0,6.302
27.0,9.0,6.303
-6.0,12.0,6.304
-31.0,-27.0,6.305
-20.0,-59.0,6.306
6.0,-53.0,6.307
10.0,-27.0,6.308
0.0,-2.0,6.309
7.0,17.0,6.31
20.0,40.0,6.311
13.0,66.0,6.312
-4.0,98.0,6.313
-7.0,123.0,6.314
-2.0,113.0,6.315
10.0,58.0,6.316
41.0,-8.0,6.317
72.0,-59.0,6.318
47.0,-82.0,6.319
-44.0,-78.0,6.32
-118.0,-45.0,6.321
-117.0,10.0,6.322
-78.0,50.0,6.323
-45.0,59.0,6.324
-7.0,61.0,6.325
41.0,76.0,6.326
46.0,68.0,6.327
-9.0,0.0,6.328
-52.0,-80.0,6.329
-28.0,-102.0,6.33
18.0,-68.0,6.331
36.0,-40.0,6.332
50.0,-40.0,6.333
86.0,-37.0,6.334
97.0,-19.0,6.335
40.0,-2.0,6.336
-37.0,33.0,6.337
-69.0,115.0,6.338
-35.0,198.0,6.339
24.0,183.0,6.34
65.0,48.0,6.341
64.0,-91.0,6.342
31.0,-133.0,6.343
1.0,-92.0,6.344
6.0,-47.0,6.345
36.0,-30.0,6.346
51.0,-16.0,6.347
34.0,16.0,6.348
1.0,50.0,6.349
-25.0,50.0,6.35
-37.0,6.0,6.351
-40.0,-55.0,6.352
-47.0,-95.0,6.353
-56.0,-105.0,6.354
-43.0,-112.0,6.355
0.0,-125.0,6.356
43.0,-118.0,6.357
29.0,-81.0,6.358
-48.0,-47.0,6.359
-125.0,-43.0,6.36
-132.0,-44.0,6.361
-74.0,-14.0,6.362
-11.0,29.0,6.363
27.0,60.0,6.364
60.0,83.0,6.365
102.0,110.0,6.366
129.0,122.0,6.367
126.0,106.0,6.368
106.0,84.0,6.369
83.0,75.0,6.37
50.0,64.0,6.371
13.0,43.0,6.372
-3.0,29.0,6.373
1.0,25.0,6.374
-4.0,16.0,6.375
-34.0,2.0,6.376
-55.0,0.0,6.377
-37.0,8.0,6.378
3.0,7.0,6.379
24.0,-8.0,6.38
18.0,-25.0,6.381
8.0,-28.0,6.382
16.0,-28.0,6.383
31.0,-34.0,6.384
37.0,-38.0,6.385
37.0,-29.0,6.386
35.0,-6.0,6.387
15.0,25.0,6.388
-48.0,65.0,6.389
-117.0,95.0,6.39
-106.0,76.0,6.391
-14.0,10.0,6.392
33.0,-49.0,6.393
-39.0,-57.0,6.394
-122.0,-36.0,6.395
-82.0,-32.0,6.396
21.0,-42.0,6.397
44.0,-32.0,6.398
-33.0,1.0,6.399
-80.0,8.0,6.4
-22.0,-28.0,6.401
65.0,-67.0,6.402
102.0,-67.0,6.403
86.0,-46.0,6.404
20.0,-26.0,6.405
-98.0,-3.0,6.406
-202.0,39.0,6.407
-178.0,77.0,6.408
-29.0,74.0,6.409
95.0,38.0,6.41
88.0,12.0,6.411
20.0,19.0,6.412
25.0,36.0,6.413
108.0,33.0,6.414
169.0,12.0,6.415
143.0,-9.0,6.416
79.0,-27.0,6.417
46.0,-62.0,6.418
61.0,-95.0,6.419
74.0,-98.0,6.42
41.0,-76.0,6.421
-34.0,-36.0,6.422
-88.0,21.0,6.423
-63.0,125.0,6.424
31.0,252.0,6.425
109.0,312.0,6.426
105.0,222.0,6.427
43.0,1.0,6.428
-21.0,-209.0,6.429
-70.0,-291.0,6.43
-114.0,-243.0,6.431
-140.0,-152.0,6.432
-135.0,-83.0,6.433
-116.0,-43.0,6.434
-95.0,-21.0,6.435
-50.0,-11.0,6.436
13.0,-1.0,6.437
46.0,4.0,6.438
31.0,2.0,6.439
27.0,0.0,6.44
57.0,-5.0,6.441
57.0,-8.0,6.442
9.0,-5.0,6.443
6.0,-4.0,6.444
73.0,-13.0,6.445
78.0,-14.0,6.446
-83.0,11.0,6.447
-291.0,37.0,6.448
-338.0,58.0,6.449
-177.0,69.0,6.45
67.0,43.0,6.451
256.0,26.0,6.452
339.0,34.0,6.453
330.0,41.0,6.454
272.0,44.0,6.455
180.0,46.0,6.456
50.0,40.0,6.457
-117.0,41.0,6.458
-232.0,64.0,6.459
-217.0,82.0,6.46
-96.0,75.0,6.461
17.0,42.0,6.462
34.0,0.0,6.463
-25.0,-22.0,6.464
-65.0,-17.0,6.465
-25.0,-7.0,6.466
43.0,-6.0,6.467
49.0,-4.0,6.468
2.0,-8.0,6.469
-4.0,-38.0,6.47
49.0,-81.0,6.471
72.0,-87.0,6.472
26.0,-44.0,6.473
-13.0,-9.0,6.474
4.0,-18.0,6.475
16.0,-42.0,6.476
-15.0,-34.0,6.477
-41.0,-18.0,6.478
-16.0,-23.0,6.479
22.0,-30.0,6.48
31.0,-38.0,6.481
27.0,-41.0,6.482
23.0,-27.0,6.483
-13.0,-13.0,6.484
-85.0,-1.0,6.485
-153.0,8.0,6.486
-184.0,8.0,6.487
-180.0,6.0,6.488
-121.0,0.0,6.489
10.0,-7.0,6.49
156.0,-11.0,6.491
219.0,-7.0,6.492
182.0,20.0,6.493
126.0,41.0,6.494
115.0,41.0,6.495
115.0,52.0,6.496
71.0,99.0,6.497
-37.0,144.0,6.498
-128.0,140.0,6.499
-109.0,62.0,6.5
24.0,-20.0,6.501
141.0,-28.0,6.502
120.0,10.0,6.503
20.0,12.0,6.504
-3.0,-51.0,6.505
70.0,-120.0,6.506
79.0,-135.0,6.507
-77.0,-97.0,6.508
-267.0,-31.0,6.509
-317.0,47.0,6.51
-231.0,107.0,6.511
-149.0,99.0,6.512
-136.0,6.0,6.513
-119.0,-112.0,6.514
-23.0,-167.0,6.515
118.0,-125.0,6.516
197.0,-34.0,6.517
42.0,-37.0,6.518
38.0,-67.0,6.519
83.0,-86.0,6.52
273.0,-66.0,6.521
367.0,-40.0,6.522
162.0,-1.0,6.523
-3.0,36.0,6.524
-62.0,61.0,6.525
-119.0,68.0,6.526
-169.0,17.0,6.527
-181.0,-25.0,6.528
-83.0,-43.0,6.529
-29.0,-57.0,6.53
-109.0,-56.0,6.531
-150.0,-56.0,6.532
-72.0,-59.0,6.533
3.0,-56.0,6.534
62.0,-30.0,6.535
105.0,-6.0,6.536
90.0,13.0,6.537
32.0,-39.0,6.538
30.0,-73.0,6.539
61.0,-94.0,6.54
193.0,-71.0,6.541
258.0,-42.0,6.542
116.0,2.0,6.543
1.0,43.0,6.544
-39.0,71.0,6.545
-79.0,79.0,6.546
-113.0,22.0,6.547
-122.0,-26.0,6.548
-54.0,-46.0,6.549
-16.0,-61.0,6.55
-72.0,-60.0,6.551
-100.0,-60.0,6.552
-46.0,-64.0,6.553
6.0,-60.0,6.554
47.0,-31.0,6.555
76.0,-3.0,6.556
66.0,18.0,6.557
46.0,35.0,6.558
42.0,27.0,6.559
92.0,7.0,6.56
307.0,-31.0,6.561
412.0,-69.0,6.562
182.0,-73.0,6.563
-6.0,-33.0,6.564
-72.0,22.0,6.565
-136.0,72.0,6.566
-192.0,119.0,6.567
-206.0,156.0,6.568
-96.0,151.0,6.569
-35.0,104.0,6.57
-125.0,61.0,6.571
-171.0,53.0,6.572
-83.0,43.0,6.573
1.0,0.0,6.574
69.0,-49.0,6.575
117.0,-58.0,6.576
100.0,-38.0,6.577
106.0,-40.0,6.578
169.0,-71.0,6.579
132.0,-88.0,6.58
29.0,-60.0,6.581
-38.0,-12.0,6.582
-34.0,8.0,6.583
18.0,-5.0,6.584
88.0,-29.0,6.585
148.0,-47.0,6.586
188.0,-58.0,6.587
219.0,-62.0,6.588
195.0,-48.0,6.589
38.0,-20.0,6.59
-206.0,15.0,6.591
-332.0,51.0,6.592
-232.0,92.0,6.593
-75.0,125.0,6.594
-68.0,116.0,6.595
-155.0,54.0,6.596
-145.0,-16.0,6.597
1.0,-53.0,6.598
70.0,-35.0,6.599
43.0,0.0,6.6
33.0,10.0,6.601
59.0,-1.0,6.602
46.0,-5.0,6.603
23.0,5.0,6.604
78.0,7.0,6.605
157.0,-16.0,6.606
118.0,-48.0,6.607
-2.0,-54.0,6.608
-16.0,-43.0,6.609
82.0,-48.0,6.61
101.0,-62.0,6.611
-21.0,-44.0,6.612
-112.0,18.0,6.613
-59.0,63.0,6.614
22.0,50.0,6.615
19.0,11.0,6.616
-7.0,-1.0,6.617
10.0,2.0,6.618
10.0,1.0,6.619
-76.0,18.0,6.62
-170.0,67.0,6.621
-181.0,97.0,6.622
-157.0,55.0,6.623
-170.0,-13.0,6.624
-150.0,-38.0,6.625
32.0,-43.0,6.626
328.0,-98.0,6.627
502.0,-176.0,6.628
357.0,-171.0,6.629
-51.0,-62.0,6.63
-435.0,49.0,6.631
-510.0,83.0,6.632
-257.0,72.0,6.633
54.0,81.0,6.634
156.0,107.0,6.635
54.0,97.0,6.636
-39.0,45.0,6.637
-19.0,-1.0,6.638
41.0,-5.0,6.639
84.0,-9.0,6.64
70.0,-8.0,6.641
60.0,-11.0,6.642
58.0,-27.0,6.643
54.0,-38.0,6.644
43.0,-31.0,6.645
32.0,-28.0,6.646
24.0,-40.0,6.647
19.0,-45.0,6.648
28.0,-31.0,6.649
61.0,-22.0,6.65
165.0,-26.0,6.651
213.0,-26.0,6.652
95.0,-13.0,6.653
-27.0,3.0,6.654
-161.0,29.0,6.655
-225.0,54.0,6.656
-73.0,72.0,6.657
78.0,81.0,6.658
139.0,50.0,6.659
79.0,27.0,6.66
21.0,24.0,6.661
35.0,24.0,6.662
88.0,7.0,6.663
154.0,-23.0,6.664
231.0,-58.0,6.665
257.0,-93.0,6.666
150.0,-110.0,6.667
-26.0,-83.0,6.668
-122.0,-21.0,6.669
-134.0,39.0,6.67
-196.0,75.0,6.671
-327.0,91.0,6.672
-370.0,77.0,6.673
-252.0,27.0,6.674
-130.0,-28.0,6.675
-158.0,-34.0,6.676
-250.0,19.0,6.677
-225.0,90.0,6.678
-52.0,124.0,6.679
108.0,99.0,6.68
139.0,34.0,6.681
98.0,-25.0,6.682
89.0,-42.0,6.683
113.0,-18.0,6.684
110.0,-1.0,6.685
79.0,-18.0,6.686
67.0,-44.0,6.687
80.0,-44.0,6.688
76.0,-31.0,6.689
49.0,-35.0,6.69
32.0,-45.0,6.691
35.0,-35.0,6.692
32.0,-16.0,6.693
14.0,-15.0,6.694
-1.0,-27.0,6.695
-5.0,-27.0,6.696
-13.0,-16.0,6.697
-34.0,-18.0,6.698
-45.0,-28.0,6.699
-32.0,-27.0,6.7
-1.0,-16.0,6.701
41.0,-5.0,6.702
85.0,1.0,6.703
107.0,12.0,6.704
84.0,20.0,6.705
33.0,13.0,6.706
1.0,-4.0,6.707
11.0,-13.0,6.708
42.0,-11.0,6.709
74.0,-14.0,6.71
103.0,-27.0,6.711
110.0,-36.0,6.712
60.0,-27.0,6.713
-49.0,-2.0,6.714
-138.0,32.0,6.715
-113.0,57.0,6.716
8.0,51.0,6.717
90.0,9.0,6.718
34.0,-32.0,6.719
-48.0,-49.0,6.72
-211.0,10.0,6.721
-307.0,64.0,6.722
-198.0,100.0,6.723
-89.0,115.0,6.724
16.0,62.0,6.725
83.0,17.0,6.726
32.0,-1.0,6.727
0.0,-16.0,6.728
24.0,-17.0,6.729
37.0,-17.0,6.73
19.0,-15.0,6.731
9.0,-13.0,6.732
23.0,-15.0,6.733
32.0,-17.0,6.734
21.0,-16.0,6.735
14.0,-15.0,6.736
23.0,-16.0,6.737
30.0,-17.0,6.738
13.0,-13.0,6.739
1.0,-8.0,6.74
19.0,-13.0,6.741
52.0,-20.0,6.742
91.0,-23.0,6.743
133.0,-16.0,6.744
146.0,-11.0,6.745
76.0,-14.0,6.746
-58.0,-23.0,6.747
-171.0,-23.0,6.748
-189.0,-3.0,6.749
-120.0,35.0,6.75
-11.0,63.0,6.751
79.0,56.0,6.752
94.0,22.0,6.753
19.0,-4.0,6.754
-64.0,-3.0,6.755
-50.0,6.0,6.756
43.0,0.0,6.757
118.0,-26.0,6.758
99.0,-43.0,6.759
25.0,-27.0,6.76
-46.0,10.0,6.761
-114.0,51.0,6.762
-162.0,73.0,6.763
-122.0,66.0,6.764
10.0,31.0,6.765
115.0,-4.0,6.766
92.0,-9.0,6.767
8.0,5.0,6.768
-13.0,8.0,6.769
27.0,-8.0,6.77
39.0,-19.0,6.771
5.0,-10.0,6.772
-11.0,-2.0,6.773
8.0,-11.0,6.774
15.0,-22.0,6.775
9.0,-22.0,6.776
51.0,-24.0,6.777
170.0,-46.0,6.778
314.0,-74.0,6.779
386.0,-78.0,6.78
318.0,-49.0,6.781
72.0,8.0,6.782
-298.0,70.0,6.783
-594.0,92.0,6.784
-614.0,60.0,6.785
-386.0,15.0,6.786
-152.0,11.0,6.787
-60.0,29.0,6.788
-12.0,8.0,6.789
88.0,-48.0,6.79
152.0,-70.0,6.791
83.0,-25.0,6.792
-11.0,41.0,6.793
15.0,68.0,6.794
125.0,54.0,6.795
175.0,15.0,6.796
141.0,-30.0,6.797
77.0,-55.0,6.798
10.0,-24.0,6.799
-47.0,39.0,6.8
-47.0,61.0,6.801
16.0,29.0,6.802
61.0,-5.0,6.803
38.0,2.0,6.804
6.0,22.0,6.805
21.0,18.0,6.806
42.0,2.0,6.807
26.0,-4.0,6.808
3.0,-2.0,6.809
9.0,-4.0,6.81
21.0,-9.0,6.811
20.0,-16.0,6.812
21.0,-30.0,6.813
30.0,-51.0,6.814
18.0,-66.0,6.815
-22.0,-69.0,6.816
-49.0,-59.0,6.817
-48.0,-45.0,6.818
-30.0,-31.0,6.819
-13.0,-21.0,6.82
3.0,-23.0,6.821
18.0,-23.0,6.822
24.0,-14.0,6.823
21.0,-5.0,6.824
9.0,3.0,6.825
-16.0,12.0,6.826
-44.0,22.0,6.827
-46.0,31.0,6.828
-17.0,33.0,6.829
15.0,33.0,6.83
30.0,25.0,6.831
32.0,20.0,6.832
35.0,29.0,6.833
41.0,32.0,6.834
46.0,18.0,6.835
38.0,6.0,6.836
11.0,-3.0,6.837
-34.0,-8.0,6.838
-70.0,0.0,6.839
-78.0,4.0,6.84
-69.0,2.0,6.841
-52.0,5.0,6.842
-14.0,10.0,6.843
49.0,14.0,6.844
112.0,20.0,6.845
140.0,19.0,6.846
126.0,3.0,6.847
109.0,-19.0,6.848
132.0,-33.0,6.849
185.0,-38.0,6.85
196.0,-39.0,6.851
104.0,-25.0,6.852
-61.0,15.0,6.853
-211.0,63.0,6.854
-269.0,80.0,6.855
-221.0,51.0,6.856
-116.0,3.0,6.857
-37.0,-59.0,6.858
-68.0,-59.0,6.859
-189.0,-59.0,6.86
-251.0,-38.0,6.861
-180.0,-23.0,6.862
-68.0,-33.0,6.863
-13.0,-33.0,6.864
19.0,12.0,6.865
80.0,43.0,6.866
112.0,7.0,6.867
69.0,-23.0,6.868
43.0,-13.0,6.869
109.0,-8.0,6.87
167.0,-28.0,6.871
104.0,-38.0,6.872
-4.0,-23.0,6.873
-27.0,-8.0,6.874
18.0,12.0,6.875
26.0,38.0,6.876
-7.0,48.0,6.877
-15.0,-22.0,6.878
5.0,-22.0,6.879
16.0,-22.0,6.88
-2.0,-18.0,6.881
-12.0,-15.0,6.882
7.0,-17.0,6.883
19.0,-17.0,6.884
8.0,-8.0,6.885
0.0,-2.0,6.886
4.0,-9.0,6.887
5.0,-15.0,6.888
-2.0,-13.0,6.889
-8.0,-12.0,6.89
-8.0,-16.0,6.891
-8.0,-18.0,6.892
-9.0,-15.0,6.893
-10.0,-12.0,6.894
-5.0,-8.0,6.895
0.0,-3.0,6.896
3.0,-1.0,6.897
9.0,0.0,6.898
14.0,1.0,6.899
7.0,0.0,6.9
5.0,-3.0,6.901
16.0,-1.0,6.902
27.0,1.0,6.903
28.0,4.0,6.904
25.0,10.0,6.905
23.0,11.0,6.906
21.0,8.0,6.907
19.0,2.0,6.908
22.0,1.0,6.909
25.0,3.0,6.91
24.0,5.0,6.911
19.0,8.0,6.912
10.0,15.0,6.913
-2.0,23.0,6.914
-13.0,20.0,6.915
-17.0,11.0,6.916
-16.0,7.0,6.917
-23.0,9.0,6.918
-23.0,8.0,6.919
6.0,-6.0,6.92
56.0,-29.0,6.921
92.0,-40.0,6.922
102.0,-37.0,6.923
107.0,-28.0,6.924
108.0,-14.0,6.925
83.0,13.0,6.926
31.0,42.0,6.927
-34.0,55.0,6.928
-111.0,45.0,6.929
-165.0,24.0,6.93
-122.0,5.0,6.931
13.0,-9.0,6.932
82.0,-19.0,6.933
-25.0,-18.0,6.934
-174.0,-9.0,6.935
-160.0,2.0,6.936
-29.0,0.0,6.937
28.0,-21.0,6.938
-38.0,-27.0,6.939
-78.0,13.0,6.94
-33.0,79.0,6.941
-21.0,108.0,6.942
-86.0,69.0,6.943
-104.0,5.0,6.944
-32.0,-24.0,6.945
14.0,-14.0,6.946
-16.0,-5.0,6.947
-18.0,-10.0,6.948
53.0,-15.0,6.949
102.0,-18.0,6.95
82.0,-24.0,6.951
58.0,-28.0,6.952
64.0,-22.0,6.953
44.0,-11.0,6.954
-4.0,-8.0,6.955
-11.0,-9.0,6.956
26.0,-10.0,6.957
36.0,-14.0,6.958
13.0,-20.0,6.959
0.0,-25.0,6.96
18.0,-23.0,6.961
29.0,-22.0,6.962
19.0,-23.0,6.963
14.0,-23.0,6.964
24.0,-14.0,6.965
29.0,-6.0,6.966
16.0,-1.0,6.967
7.0,4.0,6.968
12.0,10.0,6.969
13.0,15.0,6.97
0.0,11.0,6.971
-8.0,7.0,6.972
1.0,7.0,6.973
8.0,7.0,6.974
2.0,5.0,6.975
1.0,3.0,6.976
14.0,4.0,6.977
24.0,4.0,6.978
19.0,0.0,6.979
19.0,-1.0,6.98
20.0,-2.0,6.981
13.0,-6.0,6.982
10.0,-7.0,6.983
20.0,-6.0,6.984
26.0,-1.0,6.985
16.0,1.0,6.986
3.0,3.0,6.987
3.0,9.0,6.988
5.0,15.0,6.989
-2.0,13.0,6.99
-5.0,2.0,6.991
8.0,-8.0,6.992
32.0,-16.0,6.993
62.0,-27.0,6.994
99.0,-38.0,6.995
124.0,-39.0,6.996
109.0,-22.0,6.997
20.0,6.0,6.998
-133.0,36.0,6.999
-283.0,52.0,7.0
-302.0,42.0,7.001
-141.0,9.0,7.002
64.0,-25.0,7.003
111.0,-35.0,7.004
-9.0,-13.0,7.005
-93.0,23.0,7.006
-24.0,53.0,7.007
82.0,69.0,7.008
91.0,67.0,7.009
43.0,46.0,7.01
21.0,26.0,7.011
2.0,25.0,7.012
-46.0,29.0,7.013
-63.0,15.0,7.014
-9.0,-9.0,7.015
38.0,-18.0,7.016
26.0,-11.0,7.017
-1.0,-13.0,7.018
15.0,-30.0,7.019
34.0,-42.0,7.02
10.0,-42.0,7.021
-12.0,-40.0,7.022
11.0,-42.0,7.023
34.0,-37.0,7.024
17.0,-25.0,7.025
-1.0,-14.0,7.026
17.0,-12.0,7.027
33.0,-10.0,7.028
8.0,-4.0,7.029
-31.0,-1.0,7.03
-53.0,-3.0,7.031
-77.0,-4.0,7.032
-122.0,-1.0,7.033
-143.0,2.0,7.034
-93.0,1.0,7.035
-8.0,-2.0,7.036
42.0,-5.0,7.037
39.0,-25.0,7.038
24.0,-26.0,7.039
38.0,-27.0,7.04
69.0,-26.0,7.041
84.0,-19.0,7.042
78.0,4.0,7.043
67.0,27.0,7.044
55.0,41.0,7.045
36.0,49.0,7.046
13.0,40.0,7.047
1.0,31.0,7.048
6.0,24.0,7.049
8.0,15.0,7.05
-2.0,2.0,7.051
-11.0,-8.0,7.052
-17.0,-7.0,7.053
-27.0,-6.0,7.054
-51.0,-4.0,7.055
-66.0,-4.0,7.056
-37.0,-9.0,7.057
50.0,-41.0,7.058
167.0,-43.0,7.059
249.0,-45.0,7.06
222.0,-43.0,7.061
166.0,-32.0,7.062
22.0,6.0,7.063
-103.0,41.0,7.064
-167.0,63.0,7.065
-210.0,76.0,7.066
-191.0,61.0,7.067
-175.0,47.0,7.068
-172.0,36.0,7.069
-162.0,22.0,7.07
-132.0,0.0,7.071
-89.0,-15.0,7.072
-5.0,-13.0,7.073
62.0,-11.0,7.074
75.0,-8.0,7.075
77.0,-8.0,7.076
43.0,-16.0,7.077
24.0,-27.0,7.078
69.0,-49.0,7.079
94.0,-65.0,7.08
41.0,-40.0,7.081
-29.0,27.0,7.082
12.0,81.0,7.083
182.0,62.0,7.084
317.0,-19.0,7.085
291.0,-81.0,7.086
185.0,-64.0,7.087
137.0,11.0,7.088
107.0,81.0,7.089
-17.0,109.0,7.09
-172.0,96.0,7.091
-195.0,55.0,7.092
-123.0,7.0,7.093
-136.0,-16.0,7.094
-222.0,-7.0,7.095
-188.0,-1.0,7.096
-32.0,-19.0,7.097
55.0,-43.0,7.098
-16.0,-36.0,7.099
-88.0,-14.0,7.1
-48.0,-18.0,7.101
-1.0,-34.0,7.102
-22.0,-37.0,7.103
-27.0,-32.0,7.104
33.0,-37.0,7.105
63.0,-40.0,7.106
27.0,-26.0,7.107
24.0,-8.0,7.108
90.0,-7.0,7.109
125.0,-18.0,7.11
87.0,-19.0,7.111
48.0,-10.0,7.112
25.0,2.0,7.113
-44.0,21.0,7.114
-135.0,43.0,7.115
-120.0,54.0,7.116
8.0,51.0,7.117
125.0,39.0,7.118
128.0,33.0,7.119
61.0,20.0,7.12
9.0,-6.0,7.121
-18.0,-24.0,7.122
-31.0,-27.0,7.123
-20.0,-20.0,7.124
1.0,-13.0,7.125
1.0,-10.0,7.126
-13.0,-9.0,7.127
-3.0,-16.0,7.128
31.0,-31.0,7.129
46.0,-45.0,7.13
31.0,-62.0,7.131
25.0,-87.0,7.132
62.0,-113.0,7.133
123.0,-117.0,7.134
141.0,-77.0,7.135
54.0,0.0,7.136
-105.0,89.0,7.137
-242.0,-164.0,7.138
-252.0,-148.0,7.139
-157.0,-140.0,7.14
-66.0,-140.0,7.141
-21.0,-140.0,7.142
8.0,-117.0,7.143
27.0,-86.0,7.144
11.0,-54.0,7.145
-12.0,-15.0,7.146
0.0,15.0,7.147
23.0,38.0,7.148
19.0,46.0,7.149
2.0,54.0,7.15
11.0,85.0,7.151
21.0,109.0,7.152
2.0,109.0,7.153
-22.0,101.0,7.154
-14.0,85.0,7.155
-1.0,70.0,7.156
-12.0,38.0,7.157
-22.0,-28.0,7.158
1.0,-26.0,7.159
31.0,-25.0,7.16
37.0,-25.0,7.161
36.0,-25.0,7.162
52.0,-22.0,7.163
59.0,-18.0,7.164
29.0,-14.0,7.165
-9.0,-9.0,7.166
-14.0,-5.0,7.167
9.0,-2.0,7.168
29.0,-1.0,7.169
38.0,0.0,7.17
33.0,4.0,7.171
2.0,7.0,7.172
-40.0,7.0,7.173
-56.0,6.0,7.174
-30.0,4.0,7.175
4.0,2.0,7.176
19.0,-2.0,7.177
24.0,-4.0,7.178
33.0,4.0,7.179
24.0,10.0,7.18
-12.0,6.0,7.181
-33.0,4.0,7.182
0.0,5.0,7.183
68.0,-1.0,7.184
111.0,-21.0,7.185
111.0,-41.0,7.186
87.0,-49.0,7.187
56.0,-41.0,7.188
14.0,-11.0,7.189
-34.0,41.0,7.19
-76.0,90.0,7.191
-98.0,93.0,7.192
-103.0,50.0,7.193
-109.0,5.0,7.194
-118.0,-1.0,7.195
-93.0,8.0,7.196
-12.0,1.0,7.197
90.0,-19.0,7.198
125.0,-17.0,7.199
71.0,20.0,7.2
2.0,61.0,7.201
-17.0,81.0,7.202
0.0,72.0,7.203
9.0,30.0,7.204
-4.0,-19.0,7.205
-20.0,-39.0,7.206
-17.0,-23.0,7.207
10.0,-5.0,7.208
29.0,-12.0,7.209
12.0,-25.0,7.21
-22.0,-21.0,7.211
-28.0,-14.0,7.212
-6.0,-20.0,7.213
2.0,-27.0,7.214
-10.0,-20.0,7.215
-6.0,-13.0,7.216
20.0,-19.0,7.217
32.0,-28.0,7.218
18.0,-20.0,7.219
3.0,-13.0,7.22
5.0,-22.0,7.221
-6.0,-28.0,7.222
-33.0,-18.0,7.223
-46.0,-9.0,7.224
-22.0,-21.0,7.225
28.0,-43.0,7.226
88.0,-53.0,7.227
149.0,-45.0,7.228
179.0,-27.0,7.229
150.0,0.0,7.23
79.0,36.0,7.231
5.0,70.0,7.232
-62.0,87.0,7.233
-128.0,86.0,7.234
-156.0,70.0,7.235
-93.0,46.0,7.236
20.0,25.0,7.237
103.0,8.0,7.238
90.0,2.0,7.239
20.0,0.0,7.24
-31.0,-6.0,7.241
-36.0,-17.0,7.242
-18.0,-32.0,7.243
-2.0,-42.0,7.244
8.0,-39.0,7.245
19.0,-30.0,7.246
15.0,-18.0,7.247
-33.0,3.0,7.248
-115.0,33.0,7.249
-162.0,47.0,7.25
-125.0,26.0,7.251
-46.0,-10.0,7.252
0.0,-26.0,7.253
19.0,-27.0,7.254
48.0,-30.0,7.255
60.0,-21.0,7.256
17.0,13.0,7.257
-40.0,50.0,7.258
-23.0,48.0,7.259
53.0,9.0,7.26
81.0,-26.0,7.261
37.0,-32.0,7.262
8.0,-28.0,7.263
31.0,-21.0,7.264
46.0,1.0,7.265
23.0,37.0,7.266
2.0,57.0,7.267
3.0,41.0,7.268
-11.0,5.0,7.269
-51.0,-18.0,7.27
-73.0,-18.0,7.271
-67.0,-11.0,7.272
-70.0,-14.0,7.273
-77.0,-25.0,7.274
-50.0,-29.0,7.275
7.0,-21.0,7.276
45.0,-13.0,7.277
50.0,-15.0,7.278
45.0,-17.0,7.279
45.0,-4.0,7.28
47.0,9.0,7.281
63.0,1.0,7.282
110.0,-27.0,7.283
156.0,-39.0,7.284
159.0,-14.0,7.285
130.0,19.0,7.286
92.0,25.0,7.287
28.0,17.0,7.288
-84.0,30.0,7.289
-203.0,55.0,7.29
-252.0,55.0,7.291
-211.0,20.0,7.292
-119.0,-14.0,7.293
-10.0,-27.0,7.294
94.0,-33.0,7.295
154.0,-42.0,7.296
143.0,-41.0,7.297
74.0,-25.0,7.298
-1.0,-10.0,7.299
