Deltoid,Bicep,Time
23,-2,0.0
-1,0,0.001
19,5,0.002
70,9,0.003
104,8,0.004
99,4,0.005
79,6,0.006
63,11,0.007
47,8,0.008
23,2,0.009
6,1,0.01
4,5,0.011
-1,2,0.012
-30,-6,0.013
-78,-15,0.014
-97,-15,0.015
-83,-10,0.016
-62,-12,0.017
-52,-13,0.018
-38,-8,0.019
-4,-1,0.02
43,4,0.021
76,11,0.022
79,18,0.023
64,17,0.024
47,5,0.025
34,-5,0.026
14,-3,0.027
-10,6,0.028
-27,9,0.029
-29,5,0.03
-20,1,0.031
-11,2,0.032
-6,3,0.033
0,3,0.034
2,0,0.035
-8,-3,0.036
-25,-10,0.037
-31,-14,0.038
-22,-6,0.039
-13,0,0.04
-15,2,0.041
-19,5,0.042
-13,6,0.043
-6,7,0.044
-14,4,0.045
-29,0,0.046
-34,-4,0.047
-24,-8,0.048
-17,-7,0.049
-18,-6,0.05
-24,-5,0.051
-29,-3,0.052
-35,-1,0.053
-35,0,0.054
-17,-3,0.055
22,-8,0.056
72,-14,0.057
108,-13,0.058
116,-7,0.059
96,-4,0.06
60,0,0.061
25,3,0.062
6,4,0.063
-4,6,0.064
-19,9,0.065
-41,9,0.066
-59,6,0.067
-63,1,0.068
-49,-1,0.069
-14,-1,0.07
32,-2,0.071
62,-4,0.072
63,-7,0.073
46,-9,0.074
29,-7,0.075
8,-6,0.076
-22,-6,0.077
-40,-4,0.078
-21,-1,0.079
18,1,0.08
38,3,0.081
34,5,0.082
36,3,0.083
54,2,0.084
60,0,0.085
36,-1,0.086
2,-1,0.087
-17,-1,0.088
-28,-3,0.089
-46,-4,0.09
-66,-2,0.091
-68,-1,0.092
-56,-7,0.093
-38,-13,0.094
-18,-14,0.095
9,-9,0.096
45,-4,0.097
76,3,0.098
82,9,0.099
53,12,0.1
16,12,0.101
-2,8,0.102
-1,6,0.103
-5,6,0.104
-25,6,0.105
-51,7,0.106
-71,8,0.107
-77,8,0.108
-68,3,0.109
-43,-2,0.11
-18,-5,0.111
-3,-6,0.112
15,-7,0.113
47,-10,0.114
77,-14,0.115
71,-17,0.116
40,-15,0.117
17,-12,0.118
15,-6,0.119
12,-1,0.12
-5,0,0.121
-20,3,0.122
-19,3,0.123
-8,2,0.124
-3,0,0.125
-10,-1,0.126
-23,3,0.127
-35,6,0.128
-37,8,0.129
-21,9,0.13
10,5,0.131
40,2,0.132
52,4,0.133
51,6,0.134
63,4,0.135
86,-1,0.136
81,-7,0.137
24,-5,0.138
-38,-2,0.139
-56,1,0.14
-49,2,0.141
-69,4,0.142
-102,2,0.143
-83,-2,0.144
2,-4,0.145
88,-4,0.146
105,-4,0.147
56,-6,0.148
-6,-5,0.149
-39,-2,0.15
-33,0,0.151
-8,0,0.152
20,-1,0.153
46,0,0.154
68,5,0.155
67,4,0.156
39,-4,0.157
5,-8,0.158
-4,-3,0.159
2,4,0.16
-7,5,0.161
-32,1,0.162
-41,-1,0.163
-24,-2,0.164
-11,-1,0.165
-12,1,0.166
-10,5,0.167
8,3,0.168
31,-1,0.169
43,-3,0.17
41,0,0.171
19,3,0.172
-14,5,0.173
-45,4,0.174
-48,3,0.175
-36,1,0.176
-30,-1,0.177
-29,5,0.178
-7,10,0.179
28,2,0.18
40,-9,0.181
24,-11,0.182
3,-1,0.183
-3,3,0.184
-9,-4,0.185
-26,-8,0.186
-44,0,0.187
-50,4,0.188
-47,-2,0.189
-41,-6,0.19
-32,-2,0.191
-14,4,0.192
14,5,0.193
47,2,0.194
69,2,0.195
69,0,0.196
58,-4,0.197
55,-7,0.198
65,-7,0.199
69,-6,0.2
52,-6,0.201
20,-4,0.202
-16,-1,0.203
-39,0,0.204
-34,-3,0.205
1,-6,0.206
37,-6,0.207
40,-5,0.208
21,-5,0.209
8,-5,0.21
7,-3,0.211
-6,-1,0.212
-27,3,0.213
-42,7,0.214
-43,11,0.215
-48,8,0.216
-62,-2,0.217
-59,-5,0.218
-20,0,0.219
32,7,0.22
55,8,0.221
37,4,0.222
-9,-3,0.223
-57,-8,0.224
-82,-7,0.225
-69,0,0.226
-30,4,0.227
4,2,0.228
22,-3,0.229
32,-4,0.23
49,-2,0.231
64,0,0.232
61,2,0.233
38,0,0.234
20,-3,0.235
18,-7,0.236
20,-8,0.237
15,-5,0.238
9,-2,0.239
8,-2,0.24
5,-4,0.241
-2,-4,0.242
-7,-3,0.243
4,-3,0.244
33,-2,0.245
60,2,0.246
71,6,0.247
60,4,0.248
28,-3,0.249
-14,-7,0.25
-51,-4,0.251
-76,4,0.252
-80,13,0.253
-61,17,0.254
-27,15,0.255
8,6,0.256
34,-6,0.257
50,-8,0.258
54,-2,0.259
39,7,0.26
9,10,0.261
-21,6,0.262
-39,-1,0.263
-47,-6,0.264
-52,-6,0.265
-48,-1,0.266
-36,1,0.267
-28,-2,0.268
-29,-7,0.269
-19,-7,0.27
10,-4,0.271
36,-2,0.272
35,-4,0.273
9,-4,0.274
-15,-2,0.275
-34,-1,0.276
-46,-4,0.277
-29,-5,0.278
23,0,0.279
79,4,0.28
94,2,0.281
71,0,0.282
47,-2,0.283
31,-5,0.284
16,-3,0.285
16,-2,0.286
39,-2,0.287
59,-1,0.288
45,-3,0.289
3,-4,0.29
-32,1,0.291
-53,5,0.292
-64,3,0.293
-60,2,0.294
-38,3,0.295
-11,0,0.296
4,-5,0.297
15,-7,0.298
32,-8,0.299
51,-7,0.3
46,-6,0.301
2,-1,0.302
-62,2,0.303
-104,-1,0.304
-86,0,0.305
-22,9,0.306
32,17,0.307
40,13,0.308
24,2,0.309
17,-2,0.31
22,0,0.311
20,3,0.312
17,3,0.313
17,-1,0.314
14,-1,0.315
-3,-2,0.316
-16,-7,0.317
-3,-9,0.318
29,-8,0.319
54,-6,0.32
58,-4,0.321
51,-2,0.322
38,0,0.323
20,-3,0.324
-1,-5,0.325
-12,-1,0.326
-17,3,0.327
-21,4,0.328
-26,1,0.329
-24,0,0.33
-13,3,0.331
-5,3,0.332
-13,-1,0.333
-32,-7,0.334
-43,-7,0.335
-35,-4,0.336
-19,-3,0.337
-13,-1,0.338
0,1,0.339
31,1,0.34
61,-1,0.341
57,1,0.342
26,7,0.343
-1,16,0.344
-7,18,0.345
-9,10,0.346
-16,-1,0.347
-17,-6,0.348
-8,-3,0.349
-4,0,0.35
-6,-1,0.351
-5,-6,0.352
5,-4,0.353
9,-3,0.354
0,-3,0.355
-15,-5,0.356
-20,-7,0.357
-12,-6,0.358
3,-5,0.359
18,-7,0.36
19,-6,0.361
8,-4,0.362
1,-3,0.363
8,-3,0.364
25,-1,0.365
42,0,0.366
50,1,0.367
24,1,0.368
-50,3,0.369
-133,5,0.37
-144,3,0.371
-63,0,0.372
32,-1,0.373
77,-2,0.374
76,-4,0.375
77,-7,0.376
78,-10,0.377
41,-9,0.378
-19,-7,0.379
-46,-7,0.38
-36,-4,0.381
-29,2,0.382
-37,9,0.383
-27,10,0.384
11,10,0.385
55,13,0.386
82,14,0.387
94,11,0.388
87,5,0.389
62,5,0.39
33,8,0.391
15,5,0.392
3,0,0.393
-22,-5,0.394
-58,-5,0.395
-88,-5,0.396
-85,-7,0.397
-41,-9,0.398
29,-5,0.399
85,0,0.4
87,4,0.401
42,6,0.402
3,4,0.403
3,3,0.404
21,3,0.405
12,2,0.406
-26,1,0.407
-58,0,0.408
-57,1,0.409
-44,4,0.41
-38,8,0.411
-34,9,0.412
-19,3,0.413
3,-3,0.414
23,-5,0.415
26,-7,0.416
18,-11,0.417
8,-9,0.418
9,-6,0.419
13,-5,0.42
12,-4,0.421
-1,-4,0.422
-5,-4,0.423
5,-6,0.424
20,-9,0.425
29,-9,0.426
36,-8,0.427
47,-4,0.428
43,0,0.429
15,1,0.43
-21,4,0.431
-42,2,0.432
-46,1,0.433
-48,-2,0.434
-50,-5,0.435
-45,-5,0.436
-27,-6,0.437
-3,-5,0.438
20,-2,0.439
34,3,0.44
29,8,0.441
7,7,0.442
-14,2,0.443
-29,-1,0.444
-42,-1,0.445
-59,0,0.446
-66,0,0.447
-50,1,0.448
-16,4,0.449
11,4,0.45
21,0,0.451
25,-3,0.452
40,-3,0.453
65,-2,0.454
82,-3,0.455
76,-6,0.456
65,-8,0.457
69,-6,0.458
79,-5,0.459
69,-5,0.46
29,-4,0.461
-21,1,0.462
-59,7,0.463
-79,7,0.464
-73,5,0.465
-42,3,0.466
-5,2,0.467
12,0,0.468
6,-2,0.469
0,-2,0.47
7,-2,0.471
20,0,0.472
25,1,0.473
11,0,0.474
-5,-3,0.475
-9,-5,0.476
0,-8,0.477
5,-7,0.478
1,-6,0.479
-3,-4,0.48
-4,-2,0.481
-8,-3,0.482
-14,-4,0.483
-9,0,0.484
11,9,0.485
26,12,0.486
22,9,0.487
10,3,0.488
6,2,0.489
9,2,0.49
-3,1,0.491
-27,0,0.492
-43,0,0.493
-46,0,0.494
-40,-1,0.495
-30,-5,0.496
-5,-8,0.497
46,-7,0.498
104,-3,0.499
125,3,0.5
87,7,0.501
21,4,0.502
-26,-2,0.503
-37,-7,0.504
-33,-6,0.505
-35,-5,0.506
-27,-3,0.507
-6,3,0.508
11,10,0.509
11,11,0.51
23,7,0.511
68,3,0.512
104,2,0.513
84,-1,0.514
18,-3,0.515
-36,-5,0.516
-53,-7,0.517
-62,-9,0.518
-77,-9,0.519
-74,-9,0.52
-48,-5,0.521
-19,-2,0.522
-6,-2,0.523
-2,0,0.524
-1,4,0.525
-12,6,0.526
-34,4,0.527
-42,1,0.528
-21,0,0.529
11,0,0.53
27,5,0.531
18,9,0.532
-4,3,0.533
-39,-4,0.534
-60,-7,0.535
-34,-1,0.536
38,-2,0.537
110,-6,0.538
134,-6,0.539
120,0,0.54
104,4,0.541
88,2,0.542
51,1,0.543
-8,2,0.544
-57,4,0.545
-75,0,0.546
-66,-4,0.547
-44,-6,0.548
-19,-7,0.549
3,-6,0.55
19,-3,0.551
22,-1,0.552
13,0,0.553
-17,-5,0.554
-49,-6,0.555
-66,-3,0.556
-63,-4,0.557
-51,-7,0.558
-29,-7,0.559
3,-2,0.56
30,1,0.561
31,3,0.562
16,4,0.563
16,2,0.564
40,0,0.565
80,1,0.566
118,6,0.567
137,11,0.568
115,12,0.569
52,8,0.57
-14,3,0.571
-49,1,0.572
-61,1,0.573
-75,-1,0.574
-87,-5,0.575
-81,-8,0.576
-58,-11,0.577
-39,-8,0.578
-21,-4,0.579
1,-3,0.58
15,-1,0.581
7,0,0.582
-1,-1,0.583
5,-3,0.584
14,-4,0.585
9,-2,0.586
0,-2,0.587
6,-1,0.588
13,0,0.589
7,3,0.59
3,4,0.591
9,7,0.592
16,12,0.593
14,12,0.594
8,6,0.595
5,1,0.596
0,-4,0.597
-12,-7,0.598
-19,-4,0.599
-21,-1,0.6
-28,-1,0.601
-31,-2,0.602
-10,-4,0.603
26,-6,0.604
42,-4,0.605
29,-3,0.606
16,-3,0.607
17,-1,0.608
3,2,0.609
-37,4,0.61
-53,1,0.611
4,-2,0.612
98,-4,0.613
149,-6,0.614
117,-8,0.615
53,-9,0.616
31,-10,0.617
42,-7,0.618
32,-4,0.619
-15,0,0.62
-58,2,0.621
-65,3,0.622
-55,1,0.623
-57,-1,0.624
-58,-1,0.625
-35,0,0.626
0,1,0.627
18,3,0.628
16,1,0.629
18,-1,0.63
28,-4,0.631
22,-1,0.632
-4,3,0.633
-32,0,0.634
-36,-6,0.635
-21,-8,0.636
-7,-6,0.637
-4,4,0.638
-5,12,0.639
-2,12,0.64
2,6,0.641
5,-1,0.642
9,-3,0.643
9,0,0.644
-1,6,0.645
-24,9,0.646
-51,9,0.647
-69,4,0.648
-69,-1,0.649
-55,-2,0.65
-23,0,0.651
21,2,0.652
62,3,0.653
76,2,0.654
72,0,0.655
69,-2,0.656
71,-6,0.657
72,-5,0.658
62,-3,0.659
54,-3,0.66
51,-4,0.661
48,-3,0.662
49,-2,0.663
42,-4,0.664
10,-7,0.665
-25,-4,0.666
-69,-1,0.667
-99,-2,0.668
-86,-4,0.669
-74,-4,0.67
-67,-2,0.671
-55,-4,0.672
-31,-9,0.673
-4,-9,0.674
15,-6,0.675
15,-4,0.676
11,-6,0.677
11,-6,0.678
18,-5,0.679
19,-7,0.68
11,-7,0.681
1,-1,0.682
0,6,0.683
0,7,0.684
2,5,0.685
2,7,0.686
5,10,0.687
5,8,0.688
1,5,0.689
-1,4,0.69
1,9,0.691
8,12,0.692
10,13,0.693
7,8,0.694
6,1,0.695
4,-6,0.696
0,-11,0.697
-2,-11,0.698
4,-7,0.699
5,-3,0.7
-15,-2,0.701
-56,0,0.702
-81,3,0.703
-57,3,0.704
7,2,0.705
67,0,0.706
89,-3,0.707
84,-4,0.708
78,-3,0.709
67,0,0.71
32,0,0.711
-19,-4,0.712
-50,-5,0.713
-46,-5,0.714
-29,-5,0.715
-25,-7,0.716
-22,-10,0.717
11,-7,0.718
72,-3,0.719
108,-2,0.72
87,-3,0.721
39,-2,0.722
19,-1,0.723
35,0,0.724
36,1,0.725
-9,4,0.726
-65,4,0.727
-81,-1,0.728
-57,-5,0.729
-43,-5,0.73
-65,-1,0.731
-102,0,0.732
-112,3,0.733
-82,2,0.734
-24,3,0.735
30,0,0.736
68,-8,0.737
85,-12,0.738
75,-8,0.739
45,5,0.74
14,19,0.741
5,24,0.742
4,16,0.743
-6,4,0.744
-15,-2,0.745
12,-1,0.746
60,-1,0.747
77,-6,0.748
54,-8,0.749
41,-4,0.75
56,-2,0.751
53,-8,0.752
15,-13,0.753
-11,-10,0.754
24,-4,0.755
74,0,0.756
64,0,0.757
-5,2,0.758
-72,6,0.759
-106,6,0.76
-126,2,0.761
-140,1,0.762
-122,0,0.763
-72,-2,0.764
-28,-3,0.765
-16,-3,0.766
-10,-3,0.767
24,-3,0.768
60,-1,0.769
53,6,0.77
16,8,0.771
1,3,0.772
22,-3,0.773
37,-6,0.774
23,-5,0.775
5,-5,0.776
12,-9,0.777
25,-11,0.778
27,-13,0.779
28,-11,0.78
39,-3,0.781
44,11,0.782
19,19,0.783
-22,17,0.784
-54,9,0.785
-59,5,0.786
-42,8,0.787
-21,10,0.788
-7,7,0.789
0,3,0.79
0,1,0.791
-16,2,0.792
-52,2,0.793
-84,-2,0.794
-67,-7,0.795
-7,-9,0.796
35,-12,0.797
30,-10,0.798
25,-8,0.799
59,-5,0.8
93,-4,0.801
68,-7,0.802
0,-8,0.803
-48,-7,0.804
-57,-6,0.805
-45,-7,0.806
-16,-7,0.807
43,-4,0.808
116,2,0.809
156,5,0.81
145,7,0.811
114,8,0.812
102,11,0.813
99,7,0.814
86,1,0.815
49,-2,0.816
6,-7,0.817
-22,-4,0.818
-26,1,0.819
-22,6,0.82
-41,10,0.821
-89,11,0.822
-143,8,0.823
-160,1,0.824
-124,-5,0.825
-68,-7,0.826
-22,-7,0.827
18,-8,0.828
70,-9,0.829
108,-8,0.83
78,-3,0.831
-29,3,0.832
-145,14,0.833
-220,23,0.834
-243,24,0.835
-240,14,0.836
-202,0,0.837
-100,-5,0.838
48,-6,0.839
172,-10,0.84
224,-12,0.841
216,-8,0.842
173,-4,0.843
100,-10,0.844
10,-17,0.845
-46,-13,0.846
-31,-3,0.847
40,0,0.848
120,4,0.849
171,22,0.85
180,49,0.851
146,60,0.852
86,38,0.853
15,-13,0.854
-42,-59,0.855
-77,-81,0.856
-95,-81,0.857
-100,-63,0.858
-108,-35,0.859
-127,-5,0.86
-136,17,0.861
-101,23,0.862
-18,17,0.863
60,15,0.864
87,20,0.865
69,26,0.866
46,23,0.867
35,14,0.868
25,10,0.869
13,10,0.87
7,9,0.871
1,6,0.872
-9,10,0.873
-20,21,0.874
-17,32,0.875
-12,35,0.876
-22,28,0.877
-34,15,0.878
-27,-4,0.879
-6,-19,0.88
3,-14,0.881
0,22,0.882
8,68,0.883
35,85,0.884
54,48,0.885
50,-20,0.886
32,-79,0.887
13,-108,0.888
-2,-116,0.889
-5,-111,0.89
4,-86,0.891
15,-47,0.892
9,-19,0.893
-26,-11,0.894
-67,-4,0.895
-95,14,0.896
-100,24,0.897
-90,20,0.898
-68,17,0.899
-41,31,0.9
-30,47,0.901
-48,45,0.902
-67,33,0.903
-36,26,0.904
66,21,0.905
177,12,0.906
224,5,0.907
194,9,0.908
141,26,0.909
103,40,0.91
56,42,0.911
-17,26,0.912
-65,0,0.913
-27,-23,0.914
81,-34,0.915
153,-34,0.916
120,-35,0.917
38,-38,0.918
-11,-44,0.919
-35,-51,0.92
-99,-51,0.921
-193,-40,0.922
-222,-26,0.923
-145,-17,0.924
-24,-11,0.925
59,4,0.926
92,25,0.927
92,35,0.928
66,32,0.929
20,28,0.93
-14,30,0.931
-6,36,0.932
27,38,0.933
28,32,0.934
-29,18,0.935
-85,7,0.936
-140,1,0.937
-163,0,0.938
-88,-4,0.939
-15,-7,0.94
53,-1,0.941
107,21,0.942
116,47,0.943
93,64,0.944
-26,63,0.945
-120,48,0.946
-140,56,0.947
-125,134,0.948
-4,253,0.949
103,284,0.95
168,128,0.951
212,-138,0.952
188,-335,0.953
152,-389,0.954
60,-343,0.955
-40,-275,0.956
-80,-141,0.957
-34,-32,0.958
20,4,0.959
-13,31,0.96
-111,32,0.961
-162,34,0.962
-131,42,0.963
-97,43,0.964
-113,22,0.965
-122,6,0.966
-72,4,0.967
-10,-12,0.968
9,-73,0.969
24,-117,0.97
105,-111,0.971
220,-100,0.972
269,-75,0.973
207,-38,0.974
90,29,0.975
-2,68,0.976
-44,73,0.977
-52,79,0.978
-41,89,0.979
-24,84,0.98
-20,82,0.981
-30,99,0.982
-38,122,0.983
-33,123,0.984
-32,95,0.985
-51,56,0.986
-78,25,0.987
-80,25,0.988
-33,48,0.989
45,53,0.99
95,2,0.991
64,-78,0.992
-9,-118,0.993
-44,-103,0.994
-8,-71,0.995
32,-54,0.996
5,-40,0.997
-51,-9,0.998
-52,15,0.999
1,27,1.0
37,63,1.001
30,141,1.002
26,226,1.003
54,283,1.004
92,301,1.005
99,250,1.006
62,81,1.007
3,-170,1.008
-48,-369,1.009
-78,-434,1.01
-88,-411,1.011
-73,-366,1.012
-27,-293,1.013
45,-163,1.014
102,-41,1.015
118,8,1.016
115,10,1.017
115,41,1.018
98,93,1.019
45,118,1.02
-12,115,1.021
-38,116,1.022
-33,131,1.023
-21,177,1.024
-16,268,1.025
-25,349,1.026
-58,305,1.027
-108,111,1.028
-149,-100,1.029
-156,-200,1.03
-121,-207,1.031
-55,-212,1.032
9,-225,1.033
37,-200,1.034
10,-134,1.035
-57,-74,1.036
-109,-27,1.037
-104,43,1.038
-32,120,1.039
62,139,1.04
144,81,1.041
207,11,1.042
250,-6,1.043
235,19,1.044
136,34,1.045
-5,3,1.046
-111,-48,1.047
-149,-47,1.048
-126,95,1.049
-50,399,1.05
56,700,1.051
132,713,1.052
138,362,1.053
82,-174,1.054
19,-521,1.055
-38,-579,1.056
-86,-561,1.057
-103,-587,1.058
-74,-542,1.059
-23,-334,1.06
5,-58,1.061
2,181,1.062
-16,344,1.063
-38,331,1.064
-62,58,1.065
-71,-292,1.066
-58,-411,1.067
-53,-274,1.068
-62,-129,1.069
-35,-74,1.07
59,7,1.071
155,138,1.072
165,202,1.073
94,229,1.074
39,324,1.075
43,368,1.076
50,256,1.077
16,131,1.078
-27,-29,1.079
-37,-149,1.08
-30,-147,1.081
-30,-123,1.082
-28,-32,1.083
-19,43,1.084
-18,68,1.085
-30,98,1.086
-46,142,1.087
-70,181,1.088
-118,206,1.089
-151,198,1.09
-96,88,1.091
45,37,1.092
152,161,1.093
135,287,1.094
39,357,1.095
3,280,1.096
80,38,1.097
171,-309,1.098
168,-609,1.099
68,-712,1.1
-48,-618,1.101
-101,-455,1.102
-74,-309,1.103
-5,-169,1.104
34,-40,1.105
25,25,1.106
36,31,1.107
113,69,1.108
190,165,1.109
140,229,1.11
-25,212,1.111
-170,180,1.112
-204,210,1.113
-169,281,1.114
-118,303,1.115
-46,211,1.116
36,36,1.117
50,-100,1.118
-47,-101,1.119
-166,22,1.12
-200,165,1.121
-152,262,1.122
-88,323,1.123
-17,353,1.124
80,335,1.125
182,305,1.126
262,313,1.127
340,297,1.128
400,129,1.129
328,-201,1.13
81,-580,1.131
-178,-912,1.132
-234,-1140,1.133
-87,-1198,1.134
57,-1020,1.135
29,-712,1.136
-140,-461,1.137
-301,-289,1.138
-328,-100,1.139
-163,116,1.14
123,271,1.141
348,347,1.142
368,402,1.143
245,451,1.144
147,480,1.145
108,526,1.146
24,629,1.147
-144,737,1.148
-281,735,1.149
-287,535,1.15
-205,147,1.151
-126,-289,1.152
-72,-553,1.153
-24,-566,1.154
12,-413,1.155
34,-261,1.156
55,-158,1.157
66,-61,1.158
32,19,1.159
-30,43,1.16
-51,39,1.161
-22,52,1.162
-17,70,1.163
-70,87,1.164
-101,167,1.165
-44,331,1.166
49,446,1.167
93,349,1.168
86,79,1.169
75,-127,1.17
45,-111,1.171
-49,17,1.172
-148,23,1.173
-148,-171,1.174
-21,-384,1.175
110,-430,1.176
139,-343,1.177
120,-247,1.178
154,-165,1.179
194,-49,1.18
103,49,1.181
-122,46,1.182
-285,2,1.183
-238,89,1.184
-62,368,1.185
52,779,1.186
65,1253,1.187
70,1689,1.188
90,1762,1.189
48,1065,1.19
-58,-364,1.191
-106,-1794,1.192
-48,-2423,1.193
22,-2190,1.194
24,-1627,1.195
28,-1186,1.196
123,-798,1.197
247,-280,1.198
284,217,1.199
236,440,1.2
166,421,1.201
88,346,1.202
-5,273,1.203
-69,181,1.204
-81,127,1.205
-98,162,1.206
-162,223,1.207
-239,239,1.208
-292,241,1.209
-327,251,1.21
-335,236,1.211
-272,203,1.212
-130,206,1.213
73,243,1.214
283,244,1.215
418,193,1.216
403,168,1.217
271,246,1.218
168,421,1.219
159,617,1.22
129,678,1.221
-13,425,1.222
-156,-103,1.223
-158,-584,1.224
-77,-733,1.225
-56,-599,1.226
-101,-381,1.227
-121,-68,1.228
-107,449,1.229
-111,962,1.23
-114,1001,1.231
-65,404,1.232
-7,-380,1.233
-7,-932,1.234
-46,-1108,1.235
-51,-1098,1.236
-21,-1026,1.237
-45,-820,1.238
-149,-458,1.239
-225,-58,1.24
-140,284,1.241
95,514,1.242
316,530,1.243
379,285,1.244
309,-37,1.245
231,-180,1.246
192,-100,1.247
137,39,1.248
39,127,1.249
-52,180,1.25
-125,193,1.251
-238,140,1.252
-378,90,1.253
-460,138,1.254
-385,253,1.255
-196,298,1.256
-15,249,1.257
115,199,1.258
234,135,1.259
340,-39,1.26
321,-277,1.261
103,-331,1.262
-197,-59,1.263
-321,367,1.264
-154,610,1.265
124,510,1.266
261,269,1.267
268,308,1.268
347,773,1.269
522,1224,1.27
555,1012,1.271
329,41,1.272
68,-1035,1.273
-14,-1709,1.274
43,-1789,1.275
29,-1452,1.276
-84,-921,1.277
-147,-383,1.278
-118,-29,1.279
-117,77,1.28
-186,31,1.281
-229,-51,1.282
-205,-100,1.283
-199,-71,1.284
-242,-13,1.285
-209,-69,1.286
-40,-238,1.287
112,-317,1.288
69,-195,1.289
-129,-21,1.29
-279,68,1.291
-285,145,1.292
-229,278,1.293
-198,386,1.294
-169,425,1.295
-101,482,1.296
-19,594,1.297
24,706,1.298
52,818,1.299
135,914,1.3
256,966,1.301
313,878,1.302
260,369,1.303
187,4,1.304
190,72,1.305
218,175,1.306
163,383,1.307
36,324,1.308
-59,-534,1.309
-96,-1198,1.31
-147,-1274,1.311
-240,-1297,1.312
-321,-1157,1.313
-372,-1027,1.314
-417,-819,1.315
-447,-396,1.316
-373,2,1.317
-138,200,1.318
219,279,1.319
569,362,1.32
775,462,1.321
781,562,1.322
629,556,1.323
399,214,1.324
133,-524,1.325
-125,-1240,1.326
-265,-1382,1.327
-240,-910,1.328
-188,-293,1.329
-252,112,1.33
-326,342,1.331
-193,526,1.332
78,673,1.333
225,861,1.334
116,1074,1.335
-65,1136,1.336
-115,837,1.337
-54,320,1.338
47,-59,1.339
199,-208,1.34
318,-318,1.341
233,-434,1.342
-13,-373,1.343
-135,-44,1.344
-25,475,1.345
99,1107,1.346
78,1616,1.347
47,1448,1.348
126,288,1.349
177,-1244,1.35
47,-2093,1.351
-144,-1907,1.352
-190,-1251,1.353
-83,-551,1.354
17,46,1.355
8,377,1.356
-46,208,1.357
-47,-257,1.358
3,-446,1.359
-12,-151,1.36
-173,288,1.361
-382,567,1.362
-433,661,1.363
-261,521,1.364
-24,104,1.365
103,-324,1.366
123,-402,1.367
135,-178,1.368
141,94,1.369
69,533,1.37
-68,1336,1.371
-151,2010,1.372
-115,1735,1.373
-35,322,1.374
-7,-1192,1.375
3,-1783,1.376
-45,-1513,1.377
-76,-1076,1.378
-54,-751,1.379
-47,-383,1.38
-90,-28,1.381
-150,60,1.382
-258,-71,1.383
-352,-110,1.384
-402,88,1.385
-366,473,1.386
-72,962,1.387
190,1310,1.388
362,1074,1.389
522,200,1.39
647,-638,1.391
730,-771,1.392
682,-394,1.393
592,-30,1.394
364,295,1.395
143,676,1.396
-54,1218,1.397
-187,1250,1.398
-198,-251,1.399
-125,-1545,1.4
-67,-2218,1.401
-55,-2601,1.402
-55,-2113,1.403
-62,-1600,1.404
-83,-1015,1.405
-91,-456,1.406
-62,24,1.407
-21,486,1.408
8,892,1.409
26,1202,1.41
-1,1222,1.411
-111,1188,1.412
-215,993,1.413
-198,818,1.414
-112,570,1.415
-175,131,1.416
-408,-22,1.417
-493,418,1.418
-211,989,1.419
201,987,1.42
348,303,1.421
210,-516,1.422
120,-910,1.423
226,-780,1.424
313,-399,1.425
180,-75,1.426
-44,72,1.427
-128,95,1.428
-76,78,1.429
-68,70,1.43
-137,128,1.431
-158,328,1.432
-101,636,1.433
-77,894,1.434
-134,826,1.435
-180,337,1.436
-158,-283,1.437
-141,-565,1.438
-131,-344,1.439
-13,51,1.44
196,176,1.441
265,-62,1.442
103,-424,1.443
-67,-688,1.444
-46,-806,1.445
55,-773,1.446
92,-611,1.447
188,-427,1.448
464,-303,1.449
686,-128,1.45
540,212,1.451
98,542,1.452
-276,578,1.453
-449,341,1.454
-463,261,1.455
-343,675,1.456
-98,1337,1.457
108,1595,1.458
130,997,1.459
95,-259,1.46
193,-1451,1.461
344,-1863,1.462
357,-1358,1.463
270,-515,1.464
211,-140,1.465
119,-481,1.466
-83,-961,1.467
-225,-839,1.468
-148,-85,1.469
-40,646,1.47
-154,884,1.471
-372,863,1.472
-431,987,1.473
-379,1203,1.474
-448,1027,1.475
-599,267,1.476
-526,-655,1.477
-167,-1190,1.478
181,-1235,1.479
288,-1032,1.48
245,-717,1.481
227,-226,1.482
260,387,1.483
281,801,1.484
265,757,1.485
228,383,1.486
176,26,1.487
112,-164,1.488
56,-302,1.489
41,-434,1.49
72,-371,1.491
109,52,1.492
105,650,1.493
80,1096,1.494
90,1101,1.495
121,762,1.496
89,476,1.497
-1,480,1.498
-36,572,1.499
9,385,1.5
4,-154,1.501
-115,-819,1.502
-230,-1395,1.503
-231,-1778,1.504
-184,-1831,1.505
-179,-1448,1.506
-168,-738,1.507
-89,79,1.508
-11,875,1.509
-17,1481,1.51
-64,1535,1.511
-67,878,1.512
-55,0,1.513
-104,-560,1.514
-173,-605,1.515
-165,-461,1.516
-80,-364,1.517
-19,-188,1.518
-3,126,1.519
77,340,1.52
274,253,1.521
445,-11,1.522
405,-190,1.523
172,-164,1.524
-25,8,1.525
-34,218,1.526
22,400,1.527
-80,547,1.528
-348,637,1.529
-529,545,1.53
-414,181,1.531
-94,-263,1.532
168,-428,1.533
266,-222,1.534
275,23,1.535
268,-64,1.536
210,-391,1.537
151,-505,1.538
88,-141,1.539
52,514,1.54
100,1014,1.541
127,997,1.542
85,453,1.543
55,-265,1.544
62,-758,1.545
96,-900,1.546
210,-801,1.547
307,-536,1.548
348,-107,1.549
351,413,1.55
238,910,1.551
96,1272,1.552
-133,1300,1.553
-362,687,1.554
-519,-326,1.555
-543,-1085,1.556
-514,-1082,1.557
-474,-1008,1.558
-385,-726,1.559
-235,-419,1.56
-69,-35,1.561
90,355,1.562
231,761,1.563
275,1059,1.564
161,1029,1.565
-24,847,1.566
-147,206,1.567
-189,-393,1.568
-200,-865,1.569
-172,-1213,1.57
-87,-1190,1.571
-4,-1156,1.572
23,-1090,1.573
19,-945,1.574
20,-480,1.575
18,-51,1.576
50,201,1.577
179,455,1.578
345,819,1.579
393,1030,1.58
293,798,1.581
187,263,1.582
150,-129,1.583
105,-128,1.584
17,132,1.585
-34,353,1.586
-40,317,1.587
-101,27,1.588
-235,-261,1.589
-306,-239,1.59
-243,149,1.591
-160,661,1.592
-154,981,1.593
-163,910,1.594
-87,363,1.595
21,-447,1.596
34,-1006,1.597
-5,-967,1.598
68,-551,1.599
248,-232,1.6
310,-136,1.601
157,-59,1.602
13,91,1.603
82,226,1.604
196,335,1.605
70,473,1.606
-228,566,1.607
-369,508,1.608
-237,387,1.609
-44,344,1.61
26,329,1.611
24,204,1.612
51,50,1.613
126,101,1.614
228,458,1.615
333,809,1.616
396,591,1.617
409,-393,1.618
428,-1596,1.619
428,-2136,1.62
265,-1718,1.621
-74,-852,1.622
-344,-108,1.623
-337,414,1.624
-174,742,1.625
-113,690,1.626
-183,244,1.627
-242,-177,1.628
-243,-230,1.629
-249,-82,1.63
-273,-5,1.631
-271,83,1.632
-247,308,1.633
-234,505,1.634
-221,438,1.635
-180,316,1.636
-122,553,1.637
-70,1081,1.638
-16,1296,1.639
35,865,1.64
65,223,1.641
87,18,1.642
139,199,1.643
198,65,1.644
205,-732,1.645
170,-1659,1.646
163,-2064,1.647
203,-2017,1.648
233,-1919,1.649
224,-1663,1.65
197,-866,1.651
166,248,1.652
120,939,1.653
48,965,1.654
-12,698,1.655
-37,499,1.656
-38,263,1.657
-30,-99,1.658
-21,-256,1.659
-25,104,1.66
-68,712,1.661
-142,969,1.662
-219,643,1.663
-309,44,1.664
-443,-396,1.665
-549,-516,1.666
-436,-401,1.667
-31,-158,1.668
436,157,1.669
655,462,1.67
603,614,1.671
494,547,1.672
412,369,1.673
218,186,1.674
-74,10,1.675
-219,-179,1.676
-95,-292,1.677
62,-217,1.678
19,-35,1.679
-133,94,1.68
-193,168,1.681
-159,277,1.682
-140,364,1.683
-143,286,1.684
-143,87,1.685
-182,-35,1.686
-238,-2,1.687
-165,73,1.688
66,77,1.689
250,-11,1.69
229,-159,1.691
118,-286,1.692
87,-280,1.693
98,-98,1.694
25,154,1.695
-93,298,1.696
-107,230,1.697
-23,-28,1.698
-1,-341,1.699
-97,-494,1.7
-170,-375,1.701
-110,-124,1.702
13,17,1.703
79,14,1.704
92,83,1.705
122,378,1.706
165,772,1.707
148,997,1.708
56,911,1.709
-81,551,1.71
-252,-1,1.711
-422,-667,1.712
-455,-1227,1.713
-223,-1429,1.714
182,-1107,1.715
478,-519,1.716
530,-94,1.717
487,77,1.718
474,212,1.719
352,359,1.72
-14,293,1.721
-409,-42,1.722
-479,-279,1.723
-218,26,1.724
36,940,1.725
79,2058,1.726
35,2730,1.727
57,2422,1.728
103,1056,1.729
77,-917,1.73
0,-2805,1.731
-56,-3948,1.732
-76,-3990,1.733
-85,-3112,1.734
-74,-1666,1.735
-48,-458,1.736
-40,236,1.737
-75,641,1.738
-133,933,1.739
-179,1081,1.74
-189,1128,1.741
-161,1221,1.742
-117,1316,1.743
-83,1233,1.744
-46,967,1.745
29,621,1.746
124,170,1.747
169,-368,1.748
143,-699,1.749
97,-590,1.75
80,-267,1.751
96,-89,1.752
129,-48,1.753
164,58,1.754
158,201,1.755
93,214,1.756
20,157,1.757
-4,203,1.758
-8,282,1.759
-63,220,1.76
-186,86,1.761
-322,66,1.762
-406,122,1.763
-368,96,1.764
-157,5,1.765
157,-22,1.766
397,-1,1.767
482,-12,1.768
514,-21,1.769
534,32,1.77
390,74,1.771
16,15,1.772
-315,-76,1.773
-318,-94,1.774
-36,-47,1.775
162,-26,1.776
72,-38,1.777
-117,-13,1.778
-164,61,1.779
-83,146,1.78
-37,234,1.781
-92,323,1.782
-194,321,1.783
-266,96,1.784
-251,-325,1.785
-153,-694,1.786
-41,-772,1.787
12,-611,1.788
27,-448,1.789
55,-350,1.79
77,-173,1.791
41,106,1.792
-18,285,1.793
-29,301,1.794
17,451,1.795
54,1027,1.796
63,1720,1.797
84,1746,1.798
118,697,1.799
98,-865,1.8
22,-1891,1.801
-29,-1892,1.802
-22,-1299,1.803
-21,-795,1.804
-64,-589,1.805
-110,-462,1.806
-128,-247,1.807
-139,30,1.808
-135,307,1.809
-61,515,1.81
65,531,1.811
145,319,1.812
150,74,1.813
146,-8,1.814
164,135,1.815
140,438,1.816
44,826,1.817
-44,1139,1.818
-65,1016,1.819
-65,285,1.82
-96,-639,1.821
-122,-1093,1.822
-105,-922,1.823
-77,-554,1.824
-73,-330,1.825
-72,-166,1.826
-30,68,1.827
54,275,1.828
148,438,1.829
219,772,1.83
247,1298,1.831
233,1553,1.832
202,1132,1.833
155,83,1.834
73,-973,1.835
-30,-1544,1.836
-77,-1601,1.837
-16,-1342,1.838
83,-928,1.839
107,-499,1.84
43,-202,1.841
-17,-66,1.842
-18,37,1.843
7,203,1.844
-4,358,1.845
-76,400,1.846
-187,340,1.847
-274,275,1.848
-276,256,1.849
-194,269,1.85
-110,287,1.851
-79,286,1.852
-52,252,1.853
43,175,1.854
175,104,1.855
214,79,1.856
116,82,1.857
-12,65,1.858
-44,15,1.859
23,-17,1.86
95,1,1.861
113,41,1.862
81,46,1.863
24,16,1.864
-29,-8,1.865
-59,-17,1.866
-63,-31,1.867
-62,-45,1.868
-61,-26,1.869
-33,29,1.87
31,76,1.871
93,57,1.872
99,-23,1.873
35,-122,1.874
-45,-166,1.875
-83,-123,1.876
-83,-23,1.877
-93,86,1.878
-118,177,1.879
-119,260,1.88
-79,363,1.881
-26,475,1.882
6,475,1.883
23,190,1.884
32,-382,1.885
35,-960,1.886
43,-1174,1.887
78,-930,1.888
124,-476,1.889
133,-101,1.89
91,121,1.891
37,290,1.892
-3,451,1.893
-56,537,1.894
-118,440,1.895
-128,179,1.896
-52,-116,1.897
38,-324,1.898
57,-413,1.899
16,-368,1.9
-15,-200,1.901
-13,0,1.902
5,125,1.903
38,199,1.904
98,312,1.905
160,385,1.906
168,246,1.907
107,-46,1.908
23,-193,1.909
-30,-71,1.91
-33,82,1.911
-15,58,1.912
-10,-34,1.913
-27,-31,1.914
-42,32,1.915
-37,23,1.916
-34,-31,1.917
-48,-22,1.918
-56,30,1.919
-39,41,1.92
-16,28,1.921
-15,48,1.922
-20,74,1.923
-6,50,1.924
18,9,1.925
21,10,1.926
4,37,1.927
-8,39,1.928
-15,24,1.929
-38,17,1.93
-79,10,1.931
-110,-8,1.932
-106,-15,1.933
-67,-7,1.934
-7,-3,1.935
51,-16,1.936
88,-31,1.937
89,-37,1.938
46,-45,1.939
-28,-52,1.94
-84,-41,1.941
-60,-21,1.942
53,-17,1.943
179,-23,1.944
236,-13,1.945
220,7,1.946
178,16,1.947
127,18,1.948
47,37,1.949
-47,60,1.95
-107,46,1.951
-110,-13,1.952
-81,-70,1.953
-52,-92,1.954
-35,-80,1.955
-29,-59,1.956
-28,-36,1.957
-27,-7,1.958
-21,20,1.959
-13,28,1.96
-14,16,1.961
-19,7,1.962
-21,11,1.963
-18,28,1.964
-17,46,1.965
-18,47,1.966
-16,22,1.967
-11,-9,1.968
-8,-22,1.969
-9,-14,1.97
-7,-5,1.971
-1,-7,1.972
7,-8,1.973
6,-4,1.974
0,1,1.975
-5,3,1.976
-3,4,1.977
5,8,1.978
8,4,1.979
6,-5,1.98
6,-8,1.981
5,-3,1.982
4,0,1.983
2,-2,1.984
3,-1,1.985
7,4,1.986
7,5,1.987
8,-1,1.988
10,-2,1.989
12,5,1.99
11,7,1.991
9,-3,1.992
12,-12,1.993
13,-10,1.994
13,-7,1.995
8,-11,1.996
5,-19,1.997
6,-15,1.998
12,-3,1.999
19,12,2.0
20,23,2.001
15,26,2.002
7,20,2.003
3,1,2.004
6,-22,2.005
8,-37,2.006
6,-39,2.007
1,-26,2.008
-6,-4,2.009
-16,22,2.01
-19,45,2.011
-10,64,2.012
10,69,2.013
24,42,2.014
30,-8,2.015
27,-46,2.016
21,-51,2.017
13,-32,2.018
3,-18,2.019
-3,-10,2.02
-9,6,2.021
-15,25,2.022
-18,26,2.023
-12,11,2.024
-10,0,2.025
-19,6,2.026
-34,13,2.027
-42,14,2.028
-47,10,2.029
-55,5,2.03
-47,-1,2.031
-5,0,2.032
57,13,2.033
110,28,2.034
126,25,2.035
97,3,2.036
29,-26,2.037
-56,-46,2.038
-121,-52,2.039
-134,-47,2.04
-98,-32,2.041
-50,-15,2.042
-19,-5,2.043
-1,-2,2.044
32,0,2.045
95,6,2.046
156,10,2.047
162,6,2.048
101,1,2.049
32,0,2.05
16,2,2.051
40,3,2.052
42,4,2.053
-14,2,2.054
-89,3,2.055
-134,3,2.056
-133,1,2.057
-105,0,2.058
-48,-2,2.059
48,0,2.06
162,0,2.061
234,-1,2.062
207,-3,2.063
84,-3,2.064
-48,-3,2.065
-88,-2,2.066
-24,-1,2.067
46,4,2.068
48,9,2.069
10,9,2.07
-2,2,2.071
-4,-2,2.072
-39,2,2.073
-103,6,2.074
-124,4,2.075
-92,1,2.076
-65,-6,2.077
-74,-13,2.078
-85,-17,2.079
-77,-18,2.08
-77,-11,2.081
-97,-2,2.082
-102,11,2.083
-62,22,2.084
1,24,2.085
49,24,2.086
71,14,2.087
77,4,2.088
82,-4,2.089
77,-9,2.09
60,-7,2.091
38,-5,2.092
25,-7,2.093
25,-8,2.094
31,-5,2.095
24,-6,2.096
0,-11,2.097
-28,-9,2.098
-45,7,2.099
-47,28,2.1
-38,34,2.101
-18,22,2.102
18,6,2.103
67,-1,2.104
114,1,2.105
135,2,2.106
117,-5,2.107
74,-14,2.108
29,-20,2.109
-2,-14,2.11
-13,-3,2.111
-12,1,2.112
-15,-6,2.113
-43,-18,2.114
-100,-16,2.115
-158,-2,2.116
-170,0,2.117
-118,-11,2.118
-43,-17,2.119
-2,-7,2.12
-6,6,2.121
-10,3,2.122
18,-8,2.123
63,-10,2.124
106,0,2.125
158,14,2.126
215,22,2.127
236,19,2.128
185,7,2.129
91,-5,2.13
17,-9,2.131
-9,-8,2.132
-15,-4,2.133
-24,-7,2.134
-28,-8,2.135
-25,-5,2.136
-30,-6,2.137
-53,-8,2.138
-71,-5,2.139
-70,4,2.14
-66,8,2.141
-75,3,2.142
-83,-3,2.143
-72,-4,2.144
-50,0,2.145
-38,1,2.146
-31,-4,2.147
-21,-12,2.148
-10,-11,2.149
-9,1,2.15
-16,21,2.151
-16,40,2.152
-4,53,2.153
2,53,2.154
1,38,2.155
-1,10,2.156
-2,-22,2.157
0,-40,2.158
2,-35,2.159
7,-15,2.16
8,-1,2.161
3,-4,2.162
0,-12,2.163
10,-10,2.164
23,-2,2.165
27,-1,2.166
22,-4,2.167
18,-2,2.168
16,1,2.169
17,2,2.17
18,-2,2.171
16,-1,2.172
16,8,2.173
27,-54,2.174
53,-60,2.175
72,-57,2.176
64,-19,2.177
49,5,2.178
17,-4,2.179
-13,-11,2.18
-35,3,2.181
-58,12,2.182
-86,9,2.183
-112,10,2.184
-133,24,2.185
-123,34,2.186
-18,29,2.187
67,24,2.188
93,26,2.189
111,29,2.19
100,33,2.191
93,36,2.192
98,29,2.193
86,-30,2.194
13,-34,2.195
-28,-32,2.196
-35,-10,2.197
-65,5,2.198
-140,-1,2.199
-203,-5,2.2
-187,3,2.201
-95,9,2.202
21,7,2.203
110,8,2.204
157,16,2.205
173,22,2.206
175,19,2.207
163,16,2.208
120,17,2.209
52,19,2.21
-10,21,2.211
-34,23,2.212
-31,19,2.213
-41,15,2.214
-52,9,2.215
-8,5,2.216
90,0,2.217
142,-3,2.218
76,-8,2.219
-53,-15,2.22
-142,-17,2.221
-168,-17,2.222
-169,-19,2.223
-144,-20,2.224
-76,-16,2.225
-10,-5,2.226
9,3,2.227
36,4,2.228
136,1,2.229
227,-3,2.23
173,-11,2.231
1,-16,2.232
-117,-11,2.233
-113,2,2.234
-61,14,2.235
-44,12,2.236
-43,-4,2.237
-24,-12,2.238
-5,-5,2.239
-3,6,2.24
7,10,2.241
26,2,2.242
14,-8,2.243
-27,-15,2.244
-46,-15,2.245
-24,-10,2.246
-1,-6,2.247
0,-3,2.248
-1,3,2.249
7,17,2.25
10,32,2.251
1,36,2.252
-6,32,2.253
-5,18,2.254
-4,5,2.255
-7,-8,2.256
-4,-21,2.257
9,-23,2.258
21,-20,2.259
26,-18,2.26
25,-15,2.261
21,-2,2.262
15,15,2.263
11,24,2.264
13,16,2.265
13,4,2.266
4,-3,2.267
-4,-6,2.268
-8,-8,2.269
-8,-13,2.27
-3,-20,2.271
8,-28,2.272
21,-32,2.273
24,-30,2.274
17,-21,2.275
4,-16,2.276
-2,-18,2.277
0,-16,2.278
11,-11,2.279
25,-3,2.28
33,2,2.281
31,6,2.282
26,6,2.283
19,3,2.284
9,1,2.285
-3,7,2.286
-7,15,2.287
-3,14,2.288
-2,5,2.289
-8,-2,2.29
-9,4,2.291
-2,15,2.292
2,19,2.293
-3,7,2.294
-12,-10,2.295
-17,-13,2.296
-22,-6,2.297
-33,5,2.298
-41,9,2.299
-22,4,2.3
26,-2,2.301
58,-3,2.302
14,2,2.303
-103,9,2.304
-198,14,2.305
-176,14,2.306
-58,9,2.307
44,3,2.308
68,-3,2.309
64,-5,2.31
95,1,2.311
147,13,2.312
163,20,2.313
137,9,2.314
106,-6,2.315
94,-11,2.316
82,-6,2.317
53,-1,2.318
14,-3,2.319
-28,-3,2.32
-72,2,2.321
-92,5,2.322
-52,0,2.323
35,-5,2.324
103,-4,2.325
101,-1,2.326
46,-4,2.327
-12,-6,2.328
-53,-6,2.329
-67,-5,2.33
-52,-9,2.331
-25,-12,2.332
-18,-1,2.333
-39,19,2.334
-59,29,2.335
-59,17,2.336
-53,-4,2.337
-56,-9,2.338
-48,-1,2.339
-22,10,2.34
0,16,2.341
1,16,2.342
-4,10,2.343
-2,5,2.344
-1,4,2.345
-9,3,2.346
-13,2,2.347
-7,-2,2.348
-3,-4,2.349
-6,-5,2.35
-4,-3,2.351
4,-3,2.352
10,-4,2.353
6,-6,2.354
3,-8,2.355
7,-11,2.356
7,-11,2.357
1,-11,2.358
1,-11,2.359
14,-11,2.36
22,-8,2.361
17,-4,2.362
8,-2,2.363
7,-1,2.364
14,-4,2.365
18,-7,2.366
15,-6,2.367
10,-4,2.368
7,1,2.369
4,5,2.37
5,1,2.371
9,-2,2.372
11,0,2.373
8,0,2.374
0,-2,2.375
-7,-3,2.376
-11,-4,2.377
-10,-4,2.378
7,-2,2.379
22,0,2.38
26,2,2.381
26,3,2.382
16,0,2.383
0,-7,2.384
-29,-13,2.385
-64,-10,2.386
-114,-1,2.387
-157,3,2.388
-175,1,2.389
-160,1,2.39
-39,8,2.391
76,11,2.392
172,6,2.393
234,2,2.394
158,5,2.395
74,7,2.396
40,2,2.397
45,-1,2.398
62,0,2.399
87,2,2.4
122,2,2.401
160,2,2.402
175,2,2.403
125,2,2.404
13,1,2.405
-88,0,2.406
-110,0,2.407
-75,-1,2.408
-53,-3,2.409
-53,-5,2.41
-33,-6,2.411
17,-8,2.412
55,-8,2.413
42,-5,2.414
-2,-1,2.415
-37,2,2.416
-44,1,2.417
-32,3,2.418
-19,0,2.419
-23,-3,2.42
-51,-2,2.421
-82,0,2.422
-92,0,2.423
-84,-1,2.424
-75,3,2.425
-68,13,2.426
-49,21,2.427
-20,19,2.428
-2,15,2.429
3,15,2.43
5,14,2.431
8,9,2.432
7,3,2.433
7,-4,2.434
12,-6,2.435
15,-9,2.436
9,-9,2.437
9,-8,2.438
19,-8,2.439
29,-7,2.44
23,-4,2.441
10,-1,2.442
5,-3,2.443
12,-6,2.444
14,-10,2.445
11,-11,2.446
9,-5,2.447
11,0,2.448
11,-2,2.449
6,-5,2.45
5,-7,2.451
8,-8,2.452
10,-2,2.453
12,3,2.454
12,1,2.455
8,-6,2.456
1,-13,2.457
1,-15,2.458
8,-11,2.459
14,-7,2.46
7,-2,2.461
-15,5,2.462
-45,10,2.463
-64,7,2.464
-55,1,2.465
-19,-4,2.466
3,-7,2.467
-34,-7,2.468
-101,-4,2.469
-106,0,2.47
-15,1,2.471
92,0,2.472
130,3,2.473
116,8,2.474
126,5,2.475
159,-5,2.476
154,-9,2.477
96,-2,2.478
48,5,2.479
38,2,2.48
25,0,2.481
-20,4,2.482
-48,8,2.483
-11,5,2.484
54,2,2.485
70,4,2.486
23,6,2.487
-38,0,2.488
-74,-9,2.489
-83,-11,2.49
-68,-8,2.491
-24,-5,2.492
26,0,2.493
52,0,2.494
43,-2,2.495
11,-3,2.496
-36,1,2.497
-108,16,2.498
-182,30,2.499
-205,27,2.5
-146,11,2.501
-37,-2,2.502
65,-4,2.503
121,-3,2.504
127,-5,2.505
110,-8,2.506
88,-5,2.507
56,1,2.508
6,4,2.509
-39,4,2.51
-48,2,2.511
-25,-1,2.512
-7,-6,2.513
-9,-8,2.514
-18,-2,2.515
-22,1,2.516
-24,-4,2.517
-28,-10,2.518
-21,-12,2.519
6,-14,2.52
40,-9,2.521
56,-5,2.522
42,-5,2.523
6,-2,2.524
-34,3,2.525
-59,9,2.526
-64,16,2.527
-56,20,2.528
-41,14,2.529
-23,9,2.53
-7,3,2.531
6,-2,2.532
20,-7,2.533
39,-13,2.534
45,-11,2.535
5,-5,2.536
-58,-1,2.537
-90,6,2.538
-67,11,2.539
-27,6,2.54
-4,-7,2.541
24,-13,2.542
74,-7,2.543
112,-1,2.544
106,-5,2.545
85,-10,2.546
92,-5,2.547
108,5,2.548
90,4,2.549
45,-4,2.55
26,-9,2.551
40,-5,2.552
49,0,2.553
35,1,2.554
11,-2,2.555
3,-9,2.556
10,-21,2.557
5,-22,2.558
-16,-13,2.559
-40,-8,2.56
-55,-8,2.561
-54,-4,2.562
-49,9,2.563
-50,17,2.564
-54,9,2.565
-50,-2,2.566
-40,-3,2.567
-35,4,2.568
-29,12,2.569
-2,14,2.57
49,11,2.571
95,10,2.572
117,12,2.573
113,13,2.574
77,12,2.575
4,5,2.576
-82,-5,2.577
-132,-10,2.578
-138,-10,2.579
-130,-11,2.58
-126,-8,2.581
-109,2,2.582
-69,12,2.583
-22,13,2.584
9,6,2.585
28,-6,2.586
43,-11,2.587
57,-10,2.588
69,-3,2.589
79,2,2.59
77,4,2.591
59,7,2.592
44,10,2.593
44,5,2.594
46,-3,2.595
24,-10,2.596
-13,-10,2.597
-28,-9,2.598
-15,-5,2.599
0,-1,2.6
-4,-1,2.601
-10,-3,2.602
-1,-7,2.603
13,-8,2.604
12,0,2.605
-1,6,2.606
-11,4,2.607
-11,2,2.608
-8,-1,2.609
-8,-4,2.61
-10,-3,2.611
-3,-2,2.612
15,-2,2.613
46,-1,2.614
75,6,2.615
79,18,2.616
47,15,2.617
-4,4,2.618
-37,-8,2.619
-27,-11,2.62
7,-7,2.621
29,-4,2.622
24,-6,2.623
7,-7,2.624
-17,-1,2.625
-48,9,2.626
-77,11,2.627
-81,4,2.628
-59,-6,2.629
-33,-9,2.63
-18,-6,2.631
-6,-4,2.632
16,-4,2.633
36,-5,2.634
40,-3,2.635
20,1,2.636
-9,-3,2.637
-39,-9,2.638
-71,-12,2.639
-99,-7,2.64
-104,0,2.641
-68,0,2.642
4,-6,2.643
75,-8,2.644
109,0,2.645
109,7,2.646
108,7,2.647
122,1,2.648
137,-1,2.649
131,0,2.65
95,0,2.651
36,1,2.652
-13,6,2.653
-33,8,2.654
-30,6,2.655
-35,0,2.656
-55,-5,2.657
-55,-4,2.658
-16,-1,2.659
27,0,2.66
41,0,2.661
37,0,2.662
37,-2,2.663
30,-4,2.664
-7,-3,2.665
-63,1,2.666
-101,0,2.667
-102,-5,2.668
-78,-4,2.669
-42,2,2.67
-3,7,2.671
22,7,2.672
24,6,2.673
10,6,2.674
-5,7,2.675
-15,9,2.676
-28,5,2.677
-52,1,2.678
-68,-2,2.679
-57,-4,2.68
-19,-3,2.681
24,-2,2.682
54,-4,2.683
63,-5,2.684
48,-1,2.685
19,4,2.686
-2,6,2.687
1,3,2.688
9,-4,2.689
5,-8,2.69
-1,-10,2.691
12,-9,2.692
32,-5,2.693
32,-4,2.694
12,-4,2.695
-8,-5,2.696
-11,-10,2.697
-7,-11,2.698
-5,-11,2.699
-12,-7,2.7
-33,-2,2.701
-66,-4,2.702
-97,-10,2.703
-120,-13,2.704
-125,-4,2.705
-77,13,2.706
45,22,2.707
195,15,2.708
274,0,2.709
247,-7,2.71
167,-5,2.711
93,7,2.712
36,23,2.713
-15,28,2.714
-33,21,2.715
-4,6,2.716
34,-6,2.717
22,-6,2.718
-44,-3,2.719
-115,-3,2.72
-138,-5,2.721
-100,-5,2.722
-36,-4,2.723
13,-6,2.724
47,-11,2.725
88,-14,2.726
123,-12,2.727
118,-7,2.728
65,0,2.729
7,3,2.73
-31,4,2.731
-56,-1,2.732
-70,-8,2.733
-56,-18,2.734
-27,-20,2.735
-23,-12,2.736
-60,-5,2.737
-98,8,2.738
-97,23,2.739
-68,29,2.74
-43,20,2.741
-27,6,2.742
-9,0,2.743
11,0,2.744
23,0,2.745
25,0,2.746
30,3,2.747
46,5,2.748
69,1,2.749
81,-3,2.75
56,-3,2.751
-6,0,2.752
-69,0,2.753
-96,-2,2.754
-71,1,2.755
-20,3,2.756
19,-3,2.757
38,-9,2.758
48,-10,2.759
59,-9,2.76
69,-12,2.761
71,-19,2.762
69,-21,2.763
57,-15,2.764
29,-3,2.765
-13,10,2.766
-47,14,2.767
-53,8,2.768
-38,-1,2.769
-29,-2,2.77
-34,8,2.771
-40,15,2.772
-38,14,2.773
-43,8,2.774
-58,4,2.775
-62,0,2.776
-35,-6,2.777
7,-4,2.778
40,3,2.779
60,9,2.78
76,9,2.781
78,5,2.782
61,1,2.783
48,-4,2.784
60,-9,2.785
74,-10,2.786
46,-9,2.787
-16,-10,2.788
-62,-11,2.789
-58,-9,2.79
-25,-5,2.791
2,-3,2.792
20,-3,2.793
36,-2,2.794
45,1,2.795
30,3,2.796
-7,0,2.797
-39,-2,2.798
-49,-3,2.799
-37,-5,2.8
-23,-6,2.801
-16,-7,2.802
-22,-8,2.803
-48,-5,2.804
-79,-4,2.805
-79,0,2.806
-30,4,2.807
42,8,2.808
89,12,2.809
100,11,2.81
86,5,2.811
50,-2,2.812
-4,-7,2.813
-49,-9,2.814
-48,-7,2.815
-18,-1,2.816
-5,2,2.817
-4,4,2.818
32,2,2.819
99,0,2.82
123,0,2.821
62,-1,2.822
-21,-2,2.823
-56,-3,2.824
-53,-1,2.825
-71,2,2.826
-115,4,2.827
-125,2,2.828
-73,-1,2.829
2,-1,2.83
47,0,2.831
47,5,2.832
26,10,2.833
6,9,2.834
8,2,2.835
30,-3,2.836
54,-6,2.837
67,-3,2.838
75,0,2.839
83,2,2.84
87,3,2.841
84,0,2.842
73,-1,2.843
55,1,2.844
28,3,2.845
-2,-2,2.846
-21,-10,2.847
-23,-9,2.848
-24,0,2.849
-31,5,2.85
-41,-4,2.851
-47,-13,2.852
-54,-9,2.853
-60,3,2.854
-50,20,2.855
-42,29,2.856
-38,23,2.857
-31,4,2.858
-20,-13,2.859
-13,-16,2.86
-17,-6,2.861
-22,0,2.862
-31,-4,2.863
-23,-8,2.864
34,-4,2.865
74,0,2.866
53,-3,2.867
30,-7,2.868
1,-7,2.869
-26,-8,2.87
-50,-12,2.871
-58,-11,2.872
-18,-2,2.873
32,1,2.874
87,-4,2.875
79,-9,2.876
17,-10,2.877
-60,-10,2.878
-117,-4,2.879
-137,2,2.88
-105,12,2.881
-29,17,2.882
54,6,2.883
97,-3,2.884
84,-7,2.885
50,-9,2.886
33,-1,2.887
40,6,2.888
51,6,2.889
64,4,2.89
88,1,2.891
116,-1,2.892
117,-2,2.893
74,-4,2.894
23,-10,2.895
1,-9,2.896
5,-6,2.897
-5,-3,2.898
-37,-2,2.899
-58,0,2.9
-53,1,2.901
-49,4,2.902
-57,6,2.903
-52,11,2.904
-16,11,2.905
33,8,2.906
64,8,2.907
71,10,2.908
48,11,2.909
-6,4,2.91
-65,-1,2.911
-85,1,2.912
-70,6,2.913
-62,6,2.914
-69,4,2.915
-58,4,2.916
-18,-1,2.917
13,-8,2.918
17,-12,2.919
23,-9,2.92
45,-5,2.921
55,-4,2.922
39,-6,2.923
28,-7,2.924
39,-6,2.925
41,-3,2.926
18,1,2.927
-5,6,2.928
-7,10,2.929
-7,10,2.93
-17,5,2.931
-24,2,2.932
-18,5,2.933
-9,7,2.934
-10,3,2.935
-12,-6,2.936
-8,-19,2.937
-5,-26,2.938
-3,-26,2.939
3,-18,2.94
8,4,2.941
4,29,2.942
-4,34,2.943
-5,14,2.944
-2,-10,2.945
-2,-14,2.946
-5,-3,2.947
-8,7,2.948
-14,8,2.949
-29,5,2.95
-46,3,2.951
-44,2,2.952
-18,4,2.953
23,3,2.954
62,-4,2.955
74,-15,2.956
62,-22,2.957
48,-18,2.958
46,-11,2.959
43,-8,2.96
21,-4,2.961
-7,2,2.962
-15,3,2.963
-5,-2,2.964
-1,-3,2.965
-16,4,2.966
-44,7,2.967
-85,1,2.968
-126,-3,2.969
-121,4,2.97
-45,11,2.971
44,7,2.972
66,-2,2.973
11,-8,2.974
-38,-10,2.975
-30,-11,2.976
1,-13,2.977
6,-9,2.978
-5,-3,2.979
-3,3,2.98
12,8,2.981
32,9,2.982
77,6,2.983
163,1,2.984
258,0,2.985
294,2,2.986
240,2,2.987
144,0,2.988
69,0,2.989
24,1,2.99
-29,-2,2.991
-94,-9,2.992
-120,-9,2.993
-98,-4,2.994
-67,-1,2.995
-64,-4,2.996
-73,-8,2.997
-63,-4,2.998
-47,1,2.999
-53,5,3.0
-69,7,3.001
-74,8,3.002
-70,8,3.003
-62,10,3.004
-41,14,3.005
-7,19,3.006
12,14,3.007
0,2,3.008
-19,-3,3.009
-24,4,3.01
-22,12,3.011
-33,7,3.012
-42,-4,3.013
-32,-15,3.014
-8,-15,3.015
9,-9,3.016
19,-8,3.017
32,-8,3.018
47,-11,3.019
46,-11,3.02
28,-6,3.021
10,0,3.022
0,1,3.023
-4,-3,3.024
-6,-7,3.025
3,-5,3.026
29,1,3.027
56,7,3.028
60,8,3.029
35,4,3.03
-7,-1,3.031
-35,-4,3.032
-44,-2,3.033
-46,-1,3.034
-49,-3,3.035
-47,-4,3.036
-31,-4,3.037
-4,0,3.038
20,-1,3.039
33,-5,3.04
39,-5,3.041
39,0,3.042
38,1,3.043
32,0,3.044
22,0,3.045
5,2,3.046
-21,-2,3.047
-58,-9,3.048
-99,-9,3.049
-118,-1,3.05
-86,8,3.051
-5,6,3.052
73,3,3.053
80,1,3.054
14,0,3.055
-32,-2,3.056
-22,-5,3.057
7,-2,3.058
92,3,3.059
156,2,3.06
156,-4,3.061
164,-4,3.062
195,1,3.063
205,6,3.064
151,6,3.065
101,3,3.066
63,0,3.067
26,-1,3.068
-8,-2,3.069
-48,-3,3.07
-104,-3,3.071
-151,-1,3.072
-173,0,3.073
-179,-2,3.074
-101,-2,3.075
19,-3,3.076
98,-8,3.077
92,-11,3.078
43,-9,3.079
2,-5,3.08
-33,7,3.081
-79,15,3.082
-113,12,3.083
-105,8,3.084
-71,4,3.085
-48,0,3.086
-47,0,3.087
-51,5,3.088
-49,21,3.089
-40,31,3.09
-25,20,3.091
-8,10,3.092
2,5,3.093
3,0,3.094
5,-6,3.095
7,-12,3.096
13,-14,3.097
20,-8,3.098
26,-7,3.099
23,-10,3.1
6,-11,3.101
-5,-7,3.102
3,-6,3.103
17,-9,3.104
17,-9,3.105
12,-6,3.106
12,-5,3.107
16,-8,3.108
16,-4,3.109
14,2,3.11
19,4,3.111
24,-1,3.112
23,-5,3.113
23,-5,3.114
34,0,3.115
39,3,3.116
27,-2,3.117
2,-7,3.118
-21,-8,3.119
-45,-7,3.12
-73,-6,3.121
-84,-4,3.122
-66,-3,3.123
-36,0,3.124
-11,3,3.125
26,2,3.126
77,2,3.127
95,6,3.128
45,11,3.129
-28,9,3.13
-54,-2,3.131
-30,-10,3.132
-12,-5,3.133
-32,2,3.134
-61,6,3.135
-75,1,3.136
-75,-6,3.137
-57,-4,3.138
11,0,3.139
140,1,3.14
275,0,3.141
341,0,3.142
304,-1,3.143
200,-3,3.144
101,-3,3.145
40,-2,3.146
0,1,3.147
-45,2,3.148
-80,1,3.149
-79,1,3.15
-60,3,3.151
-56,7,3.152
-67,9,3.153
-75,7,3.154
-71,3,3.155
-67,-1,3.156
-66,-8,3.157
-59,-16,3.158
-36,-18,3.159
-19,-12,3.16
-21,-1,3.161
-23,7,3.162
-17,7,3.163
-13,2,3.164
-17,-3,3.165
-19,0,3.166
-17,13,3.167
-15,27,3.168
-17,30,3.169
-18,23,3.17
-15,13,3.171
-12,5,3.172
-12,-1,3.173
-11,-7,3.174
-6,-9,3.175
-5,-11,3.176
-8,-10,3.177
-6,-9,3.178
5,-7,3.179
18,-6,3.18
21,-10,3.181
16,-11,3.182
14,-5,3.183
19,0,3.184
22,-2,3.185
19,-5,3.186
14,-3,3.187
16,-2,3.188
17,-6,3.189
16,-8,3.19
13,-6,3.191
14,-5,3.192
16,-4,3.193
12,-3,3.194
6,-2,3.195
2,-2,3.196
4,-5,3.197
6,-4,3.198
6,-1,3.199
8,2,3.2
12,3,3.201
6,7,3.202
-3,12,3.203
-8,11,3.204
-9,6,3.205
-14,2,3.206
-21,2,3.207
-23,2,3.208
-19,2,3.209
-7,3,3.21
7,4,3.211
16,4,3.212
16,3,3.213
11,0,3.214
9,0,3.215
13,0,3.216
11,-2,3.217
3,-4,3.218
-1,-6,3.219
-1,-3,3.22
0,0,3.221
5,0,3.222
26,-2,3.223
52,-5,3.224
61,-4,3.225
52,-1,3.226
40,1,3.227
36,1,3.228
25,-1,3.229
2,-2,3.23
-12,-4,3.231
-7,-4,3.232
7,-3,3.233
11,-4,3.234
7,-4,3.235
-2,-3,3.236
-26,-2,3.237
-46,0,3.238
-56,2,3.239
-60,2,3.24
-45,1,3.241
-28,2,3.242
-4,3,3.243
16,3,3.244
20,2,3.245
25,3,3.246
30,4,3.247
27,1,3.248
-6,1,3.249
-39,6,3.25
-67,13,3.251
-84,11,3.252
-68,7,3.253
-44,4,3.254
6,4,3.255
68,0,3.256
117,-12,3.257
127,-17,3.258
106,-15,3.259
83,-16,3.26
76,-20,3.261
74,-18,3.262
48,-11,3.263
-4,-6,3.264
-49,-5,3.265
-60,0,3.266
-48,9,3.267
-48,12,3.268
-60,5,3.269
-57,-4,3.27
-29,-5,3.271
-4,1,3.272
-2,0,3.273
-10,-7,3.274
-10,-12,3.275
-6,-10,3.276
-8,-4,3.277
-14,4,3.278
-8,7,3.279
4,7,3.28
9,9,3.281
1,11,3.282
-8,8,3.283
-10,3,3.284
-6,4,3.285
-2,10,3.286
-1,8,3.287
-3,-2,3.288
-8,-5,3.289
-10,2,3.29
-8,6,3.291
-3,-1,3.292
4,-6,3.293
12,-4,3.294
15,2,3.295
5,2,3.296
-8,-2,3.297
-10,-2,3.298
3,-3,3.299
18,-6,3.3
16,-6,3.301
3,0,3.302
-4,5,3.303
4,1,3.304
19,-7,3.305
29,-14,3.306
32,-17,3.307
32,-15,3.308
30,-9,3.309
26,-1,3.31
17,2,3.311
-1,0,3.312
-21,1,3.313
-32,2,3.314
-22,4,3.315
0,3,3.316
18,1,3.317
27,0,3.318
31,-1,3.319
25,-1,3.32
1,2,3.321
-18,7,3.322
-14,8,3.323
7,5,3.324
26,5,3.325
33,4,3.326
34,1,3.327
30,0,3.328
21,1,3.329
13,4,3.33
12,0,3.331
15,-6,3.332
17,-6,3.333
13,-2,3.334
9,1,3.335
-1,-1,3.336
-13,-8,3.337
-26,-8,3.338
-36,-1,3.339
-41,4,3.34
-40,3,3.341
-36,0,3.342
-32,-6,3.343
-32,-7,3.344
-36,-8,3.345
-34,-4,3.346
-19,5,3.347
5,10,3.348
29,10,3.349
40,4,3.35
31,0,3.351
14,5,3.352
8,8,3.353
12,5,3.354
5,0,3.355
0,-3,3.356
0,-5,3.357
-1,-6,3.358
-5,-4,3.359
-12,-1,3.36
-23,0,3.361
-25,-3,3.362
-2,-7,3.363
16,-7,3.364
16,-2,3.365
11,-1,3.366
-3,-5,3.367
-16,-8,3.368
-18,-7,3.369
-17,-2,3.37
-1,0,3.371
10,1,3.372
7,6,3.373
27,7,3.374
13,2,3.375
2,-4,3.376
2,-10,3.377
0,-8,3.378
-9,-3,3.379
-22,1,3.38
-44,1,3.381
-49,0,3.382
-2,-2,3.383
34,-4,3.384
34,-4,3.385
25,-2,3.386
-5,-1,3.387
-30,1,3.388
-35,2,3.389
-32,0,3.39
0,-3,3.391
23,-5,3.392
16,-2,3.393
4,0,3.394
-11,0,3.395
-2,-3,3.396
12,-8,3.397
21,-8,3.398
36,-5,3.399
54,0,3.4
60,6,3.401
45,9,3.402
24,9,3.403
4,7,3.404
-14,4,3.405
-35,1,3.406
-39,2,3.407
-19,4,3.408
16,6,3.409
46,4,3.41
64,2,3.411
77,1,3.412
86,3,3.413
76,0,3.414
38,-6,3.415
-7,-5,3.416
-28,-4,3.417
-20,-4,3.418
-9,-5,3.419
-15,-4,3.42
-22,3,3.421
-18,10,3.422
-16,5,3.423
-31,-6,3.424
-51,-10,3.425
-53,-7,3.426
-43,-4,3.427
-37,-4,3.428
-38,-3,3.429
-28,0,3.43
-11,4,3.431
-1,2,3.432
-9,2,3.433
-30,2,3.434
-42,1,3.435
-33,-2,3.436
-12,-8,3.437
4,-8,3.438
13,-5,3.439
29,-2,3.44
54,-2,3.441
65,-3,3.442
51,-4,3.443
26,-5,3.444
15,-3,3.445
20,-1,3.446
27,0,3.447
27,-4,3.448
18,-7,3.449
4,-5,3.45
-2,0,3.451
3,0,3.452
9,-3,3.453
3,-5,3.454
-8,-3,3.455
-14,0,3.456
-11,2,3.457
-8,12,3.458
-7,23,3.459
-3,22,3.46
0,13,3.461
-2,1,3.462
-5,-8,3.463
-3,-14,3.464
-2,-13,3.465
-6,-2,3.466
-12,9,3.467
-8,12,3.468
0,5,3.469
0,-1,3.47
-7,-3,3.471
-9,-4,3.472
-6,-2,3.473
-11,0,3.474
-24,0,3.475
-37,-2,3.476
-41,-7,3.477
-34,-8,3.478
-12,-7,3.479
21,-6,3.48
47,-4,3.481
50,-3,3.482
38,-3,3.483
33,-6,3.484
41,-6,3.485
50,-1,3.486
44,0,3.487
28,-3,3.488
17,-6,3.489
24,-4,3.49
34,-4,3.491
29,-5,3.492
12,-5,3.493
-3,-4,3.494
-4,-5,3.495
-6,-8,3.496
-14,-8,3.497
-20,-2,3.498
-20,3,3.499
-18,5,3.5
-16,5,3.501
-14,3,3.502
-11,-1,3.503
-11,-2,3.504
-21,2,3.505
-29,7,3.506
-27,7,3.507
-20,5,3.508
-1,6,3.509
14,8,3.51
16,5,3.511
20,0,3.512
29,3,3.513
40,6,3.514
50,4,3.515
39,-4,3.516
16,-10,3.517
2,-7,3.518
10,0,3.519
18,5,3.52
7,0,3.521
-12,-9,3.522
-16,-11,3.523
-5,-7,3.524
0,1,3.525
-8,7,3.526
-19,7,3.527
-21,6,3.528
-21,6,3.529
-25,7,3.53
-24,4,3.531
-14,2,3.532
-7,5,3.533
-29,7,3.534
-59,6,3.535
-63,4,3.536
-25,0,3.537
29,-4,3.538
69,-2,3.539
86,0,3.54
89,1,3.541
87,2,3.542
71,0,3.543
40,-2,3.544
8,0,3.545
-8,2,3.546
0,2,3.547
21,1,3.548
37,1,3.549
37,-1,3.55
16,-11,3.551
-14,-19,3.552
-35,-20,3.553
-50,-18,3.554
-62,-4,3.555
-80,0,3.556
-85,-8,3.557
-60,-10,3.558
-16,-6,3.559
13,-1,3.56
16,2,3.561
12,5,3.562
23,7,3.563
36,5,3.564
34,3,3.565
15,5,3.566
-4,11,3.567
-12,10,3.568
-11,1,3.569
-6,-5,3.57
-3,-5,3.571
-2,-1,3.572
-1,0,3.573
-2,0,3.574
-8,-1,3.575
-13,-3,3.576
-5,-9,3.577
14,-10,3.578
14,-6,3.579
-17,0,3.58
-52,-2,3.581
-46,-6,3.582
9,-5,3.583
73,1,3.584
106,4,3.585
105,1,3.586
95,-1,3.587
87,-1,3.588
70,-2,3.589
36,-4,3.59
-5,-2,3.591
-32,0,3.592
-41,1,3.593
-39,3,3.594
-32,4,3.595
-24,5,3.596
-16,2,3.597
-11,-1,3.598
-10,-3,3.599
-16,1,3.6
-30,8,3.601
-50,7,3.602
-60,-6,3.603
-56,-20,3.604
-44,-19,3.605
-26,-9,3.606
-1,-3,3.607
25,-3,3.608
42,2,3.609
47,16,3.61
42,16,3.611
34,0,3.612
23,-10,3.613
10,-7,3.614
0,1,3.615
-7,5,3.616
-12,-1,3.617
-7,-5,3.618
8,0,3.619
25,4,3.62
26,2,3.621
16,0,3.622
6,2,3.623
2,3,3.624
-1,-2,3.625
-4,-6,3.626
-9,-4,3.627
-14,-2,3.628
-21,1,3.629
-25,4,3.63
-21,8,3.631
-19,10,3.632
-25,4,3.633
-40,0,3.634
-43,-2,3.635
-25,-3,3.636
-2,-8,3.637
8,-5,3.638
4,2,3.639
10,7,3.64
33,4,3.641
58,-1,3.642
65,-4,3.643
54,-6,3.644
42,-7,3.645
40,-3,3.646
44,2,3.647
42,4,3.648
28,0,3.649
11,0,3.65
4,4,3.651
4,5,3.652
-2,0,3.653
-21,-5,3.654
-34,-6,3.655
-34,-3,3.656
-27,-4,3.657
-19,-8,3.658
-8,-8,3.659
5,-5,3.66
12,-2,3.661
8,0,3.662
2,-2,3.663
1,-2,3.664
-4,0,3.665
-16,1,3.666
-22,5,3.667
-19,9,3.668
-12,11,3.669
-7,11,3.67
2,9,3.671
13,8,3.672
15,8,3.673
0,4,3.674
-18,0,3.675
-27,-4,3.676
-26,-8,3.677
-23,-8,3.678
-21,-8,3.679
-10,-7,3.68
12,-3,3.681
30,2,3.682
29,4,3.683
16,3,3.684
11,-1,3.685
20,-5,3.686
30,-6,3.687
23,-3,3.688
11,-1,3.689
14,0,3.69
29,2,3.691
34,0,3.692
23,1,3.693
13,-2,3.694
16,-1,3.695
20,0,3.696
9,-3,3.697
-17,-8,3.698
-33,-11,3.699
-27,-10,3.7
-7,-4,3.701
8,4,3.702
10,8,3.703
1,0,3.704
-4,-11,3.705
-6,-15,3.706
-10,-13,3.707
-18,-8,3.708
-29,-2,3.709
-45,3,3.71
-61,9,3.711
-63,11,3.712
-40,12,3.713
2,9,3.714
39,2,3.715
52,-6,3.716
47,-12,3.717
38,-7,3.718
37,-1,3.719
44,-1,3.72
49,-1,3.721
41,0,3.722
17,1,3.723
-8,-2,3.724
-19,-7,3.725
-16,-7,3.726
-8,-1,3.727
-4,2,3.728
2,2,3.729
21,3,3.73
40,2,3.731
50,1,3.732
45,1,3.733
18,4,3.734
-25,9,3.735
-75,12,3.736
-103,6,3.737
-90,2,3.738
-49,2,3.739
-12,7,3.74
0,11,3.741
2,10,3.742
12,8,3.743
27,8,3.744
37,7,3.745
35,4,3.746
26,-1,3.747
21,-5,3.748
26,-7,3.749
34,-8,3.75
35,-10,3.751
23,-8,3.752
9,-3,3.753
0,-3,3.754
-5,-7,3.755
-12,-10,3.756
-18,-12,3.757
-16,-9,3.758
-9,-8,3.759
-6,-7,3.76
-5,-5,3.761
0,-2,3.762
8,0,3.763
6,0,3.764
-7,2,3.765
-18,6,3.766
-18,9,3.767
-13,4,3.768
-15,-6,3.769
-24,-8,3.77
-29,-3,3.771
-26,1,3.772
-15,0,3.773
-2,-7,3.774
10,-11,3.775
21,-9,3.776
32,-9,3.777
43,-7,3.778
54,-4,3.779
62,3,3.78
60,8,3.781
42,8,3.782
14,3,3.783
-6,-2,3.784
-14,-3,3.785
-11,-3,3.786
-6,-4,3.787
-5,-4,3.788
-4,3,3.789
-2,13,3.79
4,18,3.791
11,13,3.792
16,9,3.793
11,8,3.794
-6,8,3.795
-29,3,3.796
-46,-7,3.797
-46,-9,3.798
-33,-4,3.799
-18,-2,3.8
-11,-1,3.801
-7,2,3.802
0,6,3.803
12,1,3.804
24,-9,3.805
30,-13,3.806
24,-9,3.807
9,-8,3.808
-13,-9,3.809
-34,-6,3.81
-39,2,3.811
-21,3,3.812
12,-1,3.813
39,-3,3.814
47,3,3.815
45,4,3.816
46,-2,3.817
42,-4,3.818
26,0,3.819
5,0,3.82
-5,-6,3.821
-5,-8,3.822
0,-5,3.823
12,-3,3.824
22,-5,3.825
20,-4,3.826
7,2,3.827
-4,5,3.828
-10,3,3.829
-21,2,3.83
-33,1,3.831
-30,2,3.832
-5,3,3.833
20,3,3.834
18,3,3.835
-5,0,3.836
-18,-2,3.837
-10,1,3.838
-3,3,3.839
-13,2,3.84
-31,-1,3.841
-34,-2,3.842
-22,0,3.843
-15,-1,3.844
-22,0,3.845
-28,6,3.846
-20,6,3.847
-3,-2,3.848
8,-7,3.849
16,-3,3.85
28,6,3.851
37,8,3.852
41,6,3.853
41,3,3.854
44,1,3.855
43,-4,3.856
27,-13,3.857
3,-14,3.858
-16,-8,3.859
-24,-3,3.86
-24,-1,3.861
-28,-1,3.862
-40,0,3.863
-43,1,3.864
-14,0,3.865
46,-2,3.866
97,-7,3.867
97,-11,3.868
61,-11,3.869
33,-7,3.87
33,-1,3.871
35,0,3.872
18,0,3.873
-13,-1,3.874
-29,-2,3.875
-32,-3,3.876
-35,-4,3.877
-40,0,3.878
-42,8,3.879
-34,14,3.88
-22,15,3.881
-8,10,3.882
3,2,3.883
12,-6,3.884
15,-10,3.885
17,-10,3.886
23,-8,3.887
19,-5,3.888
-1,-1,3.889
-33,1,3.89
-56,1,3.891
-62,1,3.892
-52,5,3.893
-29,7,3.894
-1,2,3.895
21,-7,3.896
29,-15,3.897
31,-13,3.898
41,-8,3.899
52,0,3.9
45,2,3.901
12,3,3.902
-20,2,3.903
-30,1,3.904
-20,1,3.905
5,0,3.906
36,-1,3.907
56,0,3.908
51,3,3.909
36,2,3.91
32,-2,3.911
30,-3,3.912
5,-1,3.913
-41,0,3.914
-68,0,3.915
-56,-1,3.916
-26,-4,3.917
-15,-6,3.918
-19,-6,3.919
-19,-2,3.92
-3,5,3.921
25,9,3.922
54,7,3.923
65,4,3.924
48,6,3.925
31,10,3.926
34,10,3.927
39,7,3.928
18,6,3.929
-21,6,3.93
-45,1,3.931
-43,-5,3.932
-32,-9,3.933
-24,-9,3.934
-14,-7,3.935
-6,-8,3.936
-12,-17,3.937
-22,-22,3.938
-19,-18,3.939
-5,-13,3.94
0,-7,3.941
-1,-5,3.942
0,-2,3.943
4,0,3.944
2,1,3.945
-4,4,3.946
-4,6,3.947
0,7,3.948
-1,6,3.949
-5,7,3.95
-4,8,3.951
2,6,3.952
6,5,3.953
4,4,3.954
2,2,3.955
2,0,3.956
3,-3,3.957
5,1,3.958
8,5,3.959
12,2,3.96
12,-6,3.961
8,-9,3.962
3,-7,3.963
2,-1,3.964
1,2,3.965
-1,3,3.966
-5,0,3.967
-4,-7,3.968
-2,-6,3.969
-3,-1,3.97
-9,0,3.971
-15,-6,3.972
-14,-10,3.973
-4,-10,3.974
8,-3,3.975
13,0,3.976
5,-3,3.977
-4,-6,3.978
0,-5,3.979
21,-2,3.98
40,0,3.981
41,3,3.982
29,4,3.983
25,3,3.984
41,2,3.985
64,2,3.986
75,3,3.987
64,2,3.988
40,2,3.989
19,2,3.99
7,0,3.991
0,-4,3.992
-8,-2,3.993
-22,4,3.994
-27,7,3.995
-26,1,3.996
-30,-10,3.997
-40,-10,3.998
-40,-1,3.999
-28,4,4.0
-14,1,4.001
-8,-2,4.002
-12,-2,4.003
-22,-2,4.004
-41,-3,4.005
-59,1,4.006
-65,6,4.007
-59,7,4.008
-43,3,4.009
-9,3,4.01
53,8,4.011
114,8,4.012
133,2,4.013
91,-5,4.014
26,-6,4.015
-19,-6,4.016
-33,-11,4.017
-31,-12,4.018
-23,-8,4.019
-8,1,4.02
21,4,4.021
50,0,4.022
60,-4,4.023
45,-4,4.024
14,-2,4.025
-10,0,4.026
-19,2,4.027
-22,1,4.028
-23,-3,4.029
-25,-8,4.03
-25,-8,4.031
-27,-3,4.032
-30,4,4.033
-31,4,4.034
-27,0,4.035
-22,-1,4.036
-19,-1,4.037
-10,1,4.038
13,-4,4.039
41,-10,4.04
47,-9,4.041
30,0,4.042
12,7,4.043
11,5,4.044
16,-1,4.045
7,-4,4.046
-5,-3,4.047
-9,-4,4.048
-6,-5,4.049
-8,-2,4.05
-16,3,4.051
-17,8,4.052
-12,11,4.053
-10,9,4.054
-7,2,4.055
-4,-6,4.056
0,-11,4.057
2,-12,4.058
12,-8,4.059
25,-5,4.06
31,1,4.061
28,7,4.062
28,3,4.063
29,-5,4.064
23,-5,4.065
9,1,4.066
-3,4,4.067
-6,-1,4.068
0,-6,4.069
12,-1,4.07
24,7,4.071
29,6,4.072
23,5,4.073
11,3,4.074
5,1,4.075
2,-5,4.076
-4,-14,4.077
-10,-14,4.078
-10,-9,4.079
-1,-4,4.08
1,0,4.081
-5,4,4.082
-11,7,4.083
-8,8,4.084
-6,6,4.085
-10,5,4.086
-14,6,4.087
-14,9,4.088
-15,12,4.089
-22,11,4.09
-31,3,4.091
-40,-3,4.092
-47,0,4.093
-52,3,4.094
-48,0,4.095
-33,-6,4.096
-11,-10,4.097
20,-7,4.098
54,-6,4.099
82,-8,4.1
85,-4,4.101
69,3,4.102
52,2,4.103
46,-4,4.104
44,-5,4.105
34,0,4.106
14,1,4.107
-6,-5,4.108
-13,-7,4.109
-6,-1,4.11
-2,4,4.111
-13,0,4.112
-32,-7,4.113
-42,-8,4.114
-28,-4,4.115
1,-5,4.116
32,-12,4.117
52,-12,4.118
62,-4,4.119
61,-2,4.12
46,-7,4.121
23,-8,4.122
3,1,4.123
-14,12,4.124
-30,9,4.125
-44,-1,4.126
-42,-5,4.127
-27,0,4.128
-15,6,4.129
-9,9,4.13
-3,9,4.131
8,7,4.132
13,4,4.133
0,2,4.134
-22,3,4.135
-34,3,4.136
-27,-4,4.137
-14,-10,4.138
-7,-11,4.139
-9,-5,4.14
-9,7,4.141
1,16,4.142
23,15,4.143
46,5,4.144
55,0,4.145
42,4,4.146
19,6,4.147
5,2,4.148
6,-3,4.149
1,-2,4.15
-22,-1,4.151
-47,-4,4.152
-60,-10,4.153
-64,-12,4.154
-68,-12,4.155
-64,-10,4.156
-39,-8,4.157
-4,-3,4.158
18,-1,4.159
27,0,4.16
35,1,4.161
42,4,4.162
36,4,4.163
19,2,4.164
7,-3,4.165
7,-8,4.166
10,-12,4.167
13,-6,4.168
19,4,4.169
29,6,4.17
33,-2,4.171
23,-6,4.172
10,0,4.173
-1,7,4.174
-10,7,4.175
-25,3,4.176
-45,-3,4.177
-61,-8,4.178
-64,-12,4.179
-51,-8,4.18
-29,0,4.181
0,-1,4.182
37,-8,4.183
70,-9,4.184
83,-1,4.185
75,5,4.186
68,3,4.187
78,-2,4.188
83,-2,4.189
63,0,4.19
26,0,4.191
3,0,4.192
5,4,4.193
5,8,4.194
-12,3,4.195
-30,-4,4.196
-46,-10,4.197
-56,-9,4.198
-46,-4,4.199
-37,0,4.2
-30,1,4.201
-25,3,4.202
-31,6,4.203
-29,9,4.204
3,11,4.205
34,9,4.206
64,4,4.207
83,1,4.208
65,2,4.209
47,3,4.21
27,2,4.211
8,0,4.212
-5,0,4.213
-20,-3,4.214
-39,-5,4.215
-44,-7,4.216
-36,-6,4.217
-26,-3,4.218
-16,-4,4.219
-9,-3,4.22
-3,-5,4.221
1,-9,4.222
7,-11,4.223
7,-9,4.224
-3,1,4.225
-13,11,4.226
-11,10,4.227
-3,5,4.228
-3,7,4.229
-16,13,4.23
-31,13,4.231
-40,5,4.232
-39,-4,4.233
-16,-12,4.234
27,-15,4.235
61,-15,4.236
64,-13,4.237
45,-6,4.238
33,-3,4.239
29,-6,4.24
14,-8,4.241
-12,-6,4.242
-27,-3,4.243
-23,-2,4.244
-14,-1,4.245
-8,1,4.246
-2,2,4.247
4,1,4.248
4,0,4.249
0,0,4.25
-6,0,4.251
-12,0,4.252
-15,4,4.253
-13,5,4.254
-6,5,4.255
-3,5,4.256
-5,1,4.257
-3,-2,4.258
11,-2,4.259
25,-2,4.26
26,0,4.261
21,1,4.262
17,1,4.263
18,1,4.264
16,1,4.265
14,0,4.266
13,1,4.267
10,3,4.268
6,4,4.269
7,5,4.27
11,3,4.271
12,2,4.272
14,0,4.273
16,0,4.274
18,-2,4.275
10,-6,4.276
-2,-9,4.277
-5,-8,4.278
0,-6,4.279
6,-5,4.28
4,-1,4.281
-2,3,4.282
-3,2,4.283
-3,-4,4.284
-5,-7,4.285
-7,-8,4.286
-10,-4,4.287
-12,-1,4.288
-14,-1,4.289
-13,-1,4.29
-11,-2,4.291
-8,1,4.292
-5,7,4.293
-5,8,4.294
-7,2,4.295
-14,-5,4.296
-15,-6,4.297
-9,-1,4.298
1,2,4.299
9,1,4.3
7,4,4.301
2,9,4.302
1,8,4.303
5,5,4.304
9,4,4.305
6,7,4.306
-1,5,4.307
-5,0,4.308
4,0,4.309
24,2,4.31
38,1,4.311
34,-2,4.312
23,-2,4.313
15,-2,4.314
13,-3,4.315
8,-3,4.316
-2,-5,4.317
-9,-3,4.318
-8,-4,4.319
-5,-6,4.32
-8,-1,4.321
-14,3,4.322
-12,2,4.323
-5,-6,4.324
2,-8,4.325
5,-4,4.326
7,0,4.327
13,1,4.328
20,3,4.329
22,5,4.33
14,5,4.331
-8,2,4.332
-36,0,4.333
-68,-3,4.334
-79,-4,4.335
-61,-3,4.336
-22,-6,4.337
14,-5,4.338
38,-2,4.339
57,1,4.34
75,2,4.341
82,-1,4.342
68,-6,4.343
41,-7,4.344
19,-7,4.345
9,-8,4.346
8,-9,4.347
8,-9,4.348
1,-5,4.349
-8,0,4.35
-16,3,4.351
-17,4,4.352
-15,4,4.353
-18,3,4.354
-19,2,4.355
-17,3,4.356
-13,1,4.357
-12,0,4.358
-13,0,4.359
-11,0,4.36
-11,6,4.361
-17,10,4.362
-18,10,4.363
-11,5,4.364
-2,5,4.365
1,7,4.366
5,6,4.367
15,-2,4.368
27,-6,4.369
28,-2,4.37
18,1,4.371
6,0,4.372
2,-2,4.373
0,-4,4.374
-3,-5,4.375
-8,-7,4.376
-15,-10,4.377
-31,-10,4.378
-55,-9,4.379
-60,-7,4.38
-30,-3,4.381
16,2,4.382
38,3,4.383
31,-1,4.384
27,-7,4.385
50,-10,4.386
77,-8,4.387
74,-4,4.388
49,2,4.389
34,6,4.39
40,5,4.391
41,-1,4.392
26,-6,4.393
-3,-12,4.394
-26,-9,4.395
-38,-3,4.396
-35,0,4.397
-24,-2,4.398
-11,-7,4.399
-4,-8,4.4
-4,-2,4.401
-10,3,4.402
-22,-1,4.403
-39,-5,4.404
-54,-1,4.405
-53,9,4.406
-31,17,4.407
5,16,4.408
41,11,4.409
59,8,4.41
44,4,4.411
-6,0,4.412
-63,2,4.413
-101,8,4.414
-86,12,4.415
-30,8,4.416
33,-5,4.417
73,-15,4.418
95,-17,4.419
109,-13,4.42
118,-5,4.421
112,-1,4.422
85,-4,4.423
35,-7,4.424
-23,-7,4.425
-63,-6,4.426
-65,-6,4.427
-36,-6,4.428
-5,-1,4.429
7,4,4.43
0,6,4.431
-13,5,4.432
-11,5,4.433
-2,3,4.434
3,-1,4.435
-8,-9,4.436
-22,-17,4.437
-19,-14,4.438
-5,-4,4.439
2,4,4.44
-4,7,4.441
-12,9,4.442
-15,13,4.443
-25,15,4.444
-44,11,4.445
-52,2,4.446
-30,-4,4.447
11,-6,4.448
38,-5,4.449
35,-2,4.45
21,3,4.451
17,3,4.452
21,1,4.453
15,-3,4.454
1,-2,4.455
-8,-2,4.456
-2,-7,4.457
3,-9,4.458
9,-4,4.459
12,1,4.46
1,4,4.461
-9,1,4.462
-18,0,4.463
-20,-1,4.464
5,0,4.465
26,-2,4.466
34,-2,4.467
37,1,4.468
23,3,4.469
10,3,4.47
0,0,4.471
-8,-5,4.472
-16,-3,4.473
-22,-1,4.474
-28,-1,4.475
-35,-5,4.476
-37,-10,4.477
-31,-8,4.478
-14,-6,4.479
6,-5,4.48
21,-2,4.481
28,3,4.482
26,3,4.483
9,-3,4.484
-26,-8,4.485
-50,-7,4.486
-28,-4,4.487
39,-2,4.488
97,1,4.489
104,3,4.49
74,3,4.491
46,2,4.492
35,6,4.493
17,7,4.494
-22,6,4.495
-66,2,4.496
-80,-2,4.497
-52,-1,4.498
-6,0,4.499
19,-1,4.5
15,1,4.501
4,4,4.502
6,4,4.503
15,-3,4.504
12,-9,4.505
-1,-8,4.506
-14,-2,4.507
-16,2,4.508
-14,4,4.509
-8,7,4.51
-4,11,4.511
-8,9,4.512
-25,5,4.513
-52,1,4.514
-63,4,4.515
-51,6,4.516
-29,-1,4.517
-4,-6,4.518
32,-2,4.519
83,3,4.52
127,2,4.521
144,-1,4.522
132,-1,4.523
95,5,4.524
40,7,4.525
-14,4,4.526
-35,0,4.527
-24,-3,4.528
-15,-5,4.529
-29,-4,4.53
-51,-2,4.531
-62,-2,4.532
-58,-2,4.533
-46,-6,4.534
-26,-10,4.535
-5,-15,4.536
9,-23,4.537
16,-26,4.538
27,-15,4.539
36,-5,4.54
31,2,4.541
16,9,4.542
8,13,4.543
6,16,4.544
-10,12,4.545
-41,8,4.546
-67,6,4.547
-73,4,4.548
-60,6,4.549
-13,7,4.55
71,5,4.551
139,2,4.552
134,0,4.553
54,-3,4.554
-22,-6,4.555
-45,-7,4.556
-40,-13,4.557
-45,-19,4.558
-54,-17,4.559
-42,-10,4.56
-20,-1,4.561
-10,2,4.562
-9,4,4.563
-3,5,4.564
8,3,4.565
17,0,4.566
22,-4,4.567
21,-7,4.568
18,-8,4.569
10,-9,4.57
7,-5,4.571
4,1,4.572
-1,10,4.573
-8,11,4.574
-9,10,4.575
-6,9,4.576
-3,10,4.577
-2,15,4.578
1,21,4.579
6,22,4.58
-1,17,4.581
-20,9,4.582
-33,0,4.583
-21,-6,4.584
13,-8,4.585
46,-6,4.586
56,-5,4.587
37,-8,4.588
4,-10,4.589
-20,-8,4.59
-21,-6,4.591
-1,-6,4.592
25,-7,4.593
40,-3,4.594
39,4,4.595
28,4,4.596
20,-7,4.597
13,-14,4.598
3,-13,4.599
-11,-9,4.6
-25,-9,4.601
-33,-10,4.602
-26,-4,4.603
-7,3,4.604
7,3,4.605
-6,-3,4.606
-40,-6,4.607
-57,-3,4.608
-38,-1,4.609
-7,-2,4.61
7,-2,4.611
11,1,4.612
36,6,4.613
86,8,4.614
124,4,4.615
110,0,4.616
60,0,4.617
12,0,4.618
-10,1,4.619
-10,4,4.62
-5,3,4.621
-1,1,4.622
-1,0,4.623
-6,-3,4.624
-15,-3,4.625
-21,-3,4.626
-24,0,4.627
-28,2,4.628
-30,4,4.629
-31,7,4.63
-28,7,4.631
-20,7,4.632
-13,4,4.633
-8,2,4.634
-3,9,4.635
-1,11,4.636
0,5,4.637
0,-2,4.638
0,-4,4.639
1,-1,4.64
4,2,4.641
6,0,4.642
4,-7,4.643
1,-8,4.644
0,-6,4.645
-1,-3,4.646
2,-2,4.647
5,-1,4.648
6,2,4.649
3,7,4.65
-1,6,4.651
-1,1,4.652
4,-4,4.653
11,-7,4.654
10,-9,4.655
3,-10,4.656
0,-14,4.657
1,-13,4.658
5,-8,4.659
8,-2,4.66
12,0,4.661
15,-2,4.662
17,-1,4.663
12,2,4.664
1,3,4.665
-11,0,4.666
-28,0,4.667
-60,1,4.668
-107,4,4.669
-137,7,4.67
-112,10,4.671
-31,10,4.672
56,8,4.673
115,1,4.674
137,-2,4.675
133,-2,4.676
122,-3,4.677
101,-7,4.678
69,-10,4.679
29,-14,4.68
0,-12,4.681
-8,-5,4.682
-4,0,4.683
-7,-2,4.684
-22,-2,4.685
-40,0,4.686
-50,3,4.687
-49,-1,4.688
-27,-7,4.689
19,-9,4.69
57,-7,4.691
47,-4,4.692
2,-3,4.693
-29,-4,4.694
-11,-2,4.695
27,3,4.696
38,7,4.697
13,12,4.698
-19,14,4.699
-41,10,4.7
-48,5,4.701
-37,5,4.702
-15,7,4.703
0,5,4.704
-7,0,4.705
-23,-1,4.706
-25,-3,4.707
-14,-6,4.708
-3,-10,4.709
3,-10,4.71
11,-10,4.711
20,-13,4.712
24,-13,4.713
20,-10,4.714
17,-2,4.715
11,6,4.716
4,16,4.717
0,34,4.718
6,47,4.719
10,38,4.72
1,17,4.721
-12,5,4.722
-18,9,4.723
-15,9,4.724
-14,-6,4.725
-16,-24,4.726
-12,-27,4.727
-2,-18,4.728
11,-14,4.729
21,-18,4.73
26,-20,4.731
20,-13,4.732
10,-8,4.733
2,-8,4.734
3,-10,4.735
2,-10,4.736
0,-10,4.737
4,-8,4.738
17,-6,4.739
24,-2,4.74
18,5,4.741
7,12,4.742
4,13,4.743
8,8,4.744
7,0,4.745
2,-3,4.746
-3,0,4.747
-5,2,4.748
-3,4,4.749
0,3,4.75
0,-1,4.751
-3,-7,4.752
-4,-10,4.753
-6,-10,4.754
-3,-5,4.755
0,-1,4.756
0,-1,4.757
-2,-2,4.758
-1,-2,4.759
2,-1,4.76
5,0,4.761
4,0,4.762
0,-1,4.763
0,2,4.764
4,14,4.765
6,30,4.766
8,35,4.767
7,19,4.768
6,-8,4.769
3,-28,4.77
3,-32,4.771
5,-30,4.772
5,-27,4.773
2,-23,4.774
-3,-10,4.775
-8,0,4.776
-12,0,4.777
-9,-3,4.778
-1,-2,4.779
6,2,4.78
5,5,4.781
0,5,4.782
1,10,4.783
8,21,4.784
11,42,4.785
5,80,4.786
2,111,4.787
5,93,4.788
7,7,4.789
4,-91,4.79
-1,-129,4.791
-6,-99,4.792
-12,-57,4.793
-21,-38,4.794
-28,-22,4.795
-27,1,4.796
-18,10,4.797
-8,-3,4.798
-7,-15,4.799
-9,-8,4.8
2,4,4.801
33,12,4.802
62,19,4.803
70,33,4.804
57,37,4.805
46,28,4.806
48,21,4.807
51,26,4.808
38,36,4.809
17,63,4.81
0,112,4.811
-8,137,4.812
-11,88,4.813
-15,-32,4.814
-25,-132,4.815
-57,-153,4.816
-106,-132,4.817
-138,-115,4.818
-111,-88,4.819
-24,-38,4.82
69,3,4.821
113,7,4.822
105,-2,4.823
86,6,4.824
66,22,4.825
26,23,4.826
-29,23,4.827
-55,48,4.828
-31,86,4.829
9,100,4.83
26,79,4.831
20,33,4.832
19,-6,4.833
30,-12,4.834
36,31,4.835
19,88,4.836
-8,84,4.837
-24,3,4.838
-24,-103,4.839
-21,-175,4.84
-25,-188,4.841
-35,-159,4.842
-29,-103,4.843
-10,-39,4.844
1,6,4.845
-1,22,4.846
-9,16,4.847
-6,5,4.848
5,-2,4.849
7,-2,4.85
-5,11,4.851
-26,35,4.852
-44,55,4.853
-56,61,4.854
-58,56,4.855
-42,39,4.856
5,17,4.857
69,2,4.858
106,3,4.859
89,14,4.86
42,22,4.861
19,21,4.862
38,16,4.863
63,11,4.864
49,3,4.865
3,-7,4.866
-31,-10,4.867
-33,4,4.868
-21,50,4.869
-23,129,4.87
-33,219,4.871
-36,261,4.872
-33,209,4.873
-44,54,4.874
-72,-122,4.875
-114,-240,4.876
-147,-289,4.877
-136,-301,4.878
-57,-286,4.879
53,-225,4.88
121,-123,4.881
118,-35,4.882
97,13,4.883
109,60,4.884
130,136,4.885
116,212,4.886
66,226,4.887
15,169,4.888
-27,101,4.889
-63,74,4.89
-79,91,4.891
-59,153,4.892
-25,296,4.893
3,514,4.894
34,575,4.895
76,216,4.896
113,-469,4.897
121,-1001,4.898
102,-1049,4.899
73,-776,4.9
38,-509,4.901
5,-314,4.902
-11,-90,4.903
-7,119,4.904
-8,190,4.905
-27,166,4.906
-44,170,4.907
-45,195,4.908
-37,172,4.909
-40,143,4.91
-44,172,4.911
-39,203,4.912
-31,167,4.913
-31,101,4.914
-33,87,4.915
-32,103,4.916
-33,87,4.917
-33,63,4.918
-25,70,4.919
-12,78,4.92
-2,49,4.921
-2,17,4.922
-2,17,4.923
2,24,4.924
4,7,4.925
1,-6,4.926
-1,0,4.927
0,0,4.928
0,-15,4.929
0,-19,4.93
1,-4,4.931
8,5,4.932
17,3,4.933
26,0,4.934
29,-1,4.935
17,-19,4.936
-8,-50,4.937
-27,-58,4.938
-29,-39,4.939
-22,-20,4.94
-22,-10,4.941
-24,3,4.942
-16,26,4.943
-1,44,4.944
8,54,4.945
12,64,4.946
22,81,4.947
35,91,4.948
39,73,4.949
32,36,4.95
23,35,4.951
17,104,4.952
15,194,4.953
11,222,4.954
12,125,4.955
10,-101,4.956
3,-381,4.957
-1,-555,4.958
3,-467,4.959
15,-123,4.96
21,246,4.961
23,342,4.962
21,98,4.963
22,-231,4.964
25,-314,4.965
26,-132,4.966
22,-13,4.967
13,-189,4.968
0,-478,4.969
-5,-549,4.97
-5,-376,4.971
-5,-183,4.972
-7,-72,4.973
-9,49,4.974
-5,196,4.975
-4,259,4.976
-5,224,4.977
-8,220,4.978
-6,287,4.979
-1,328,4.98
1,304,4.981
0,265,4.982
1,221,4.983
1,130,4.984
-1,24,4.985
-6,-12,4.986
-10,26,4.987
-9,70,4.988
-9,83,4.989
-12,62,4.99
-15,-9,4.991
-15,-105,4.992
-13,-140,4.993
-12,-85,4.994
-8,-10,4.995
-2,50,4.996
6,69,4.997
12,82,4.998
12,72,4.999
0,42,5.0
-27,-48,5.001
-53,-119,5.002
-48,-127,5.003
-4,-133,5.004
49,-129,5.005
76,-114,5.006
74,-65,5.007
50,-21,5.008
-6,8,5.009
-86,54,5.01
-124,153,5.011
-65,244,5.012
49,310,5.013
133,330,5.014
145,113,5.015
116,-200,5.016
79,-406,5.017
23,-398,5.018
-44,-268,5.019
-77,-113,5.02
-62,95,5.021
-39,362,5.022
-28,511,5.023
-9,338,5.024
23,-88,5.025
32,-448,5.026
15,-533,5.027
4,-410,5.028
12,-207,5.029
11,79,5.03
-4,432,5.031
-6,621,5.032
9,446,5.033
16,-6,5.034
7,-339,5.035
-7,-362,5.036
-24,-297,5.037
-46,-371,5.038
-55,-477,5.039
-36,-398,5.04
-18,-185,5.041
-29,-48,5.042
-45,-7,5.043
-30,71,5.044
6,198,5.045
24,275,5.046
24,328,5.047
26,481,5.048
32,680,5.049
30,687,5.05
25,387,5.051
28,-52,5.052
32,-358,5.053
20,-455,5.054
6,-401,5.055
7,-306,5.056
11,-240,5.057
4,-193,5.058
1,-128,5.059
6,-27,5.06
13,74,5.061
8,131,5.062
6,130,5.063
17,100,5.064
25,86,5.065
17,96,5.066
5,95,5.067
-1,52,5.068
-16,-4,5.069
-52,-25,5.07
-79,-17,5.071
-62,-19,5.072
-23,-36,5.073
-9,-41,5.074
-32,-25,5.075
-44,-12,5.076
0,1,5.077
73,62,5.078
106,159,5.079
83,220,5.08
51,203,5.081
45,135,5.082
44,40,5.083
11,-99,5.084
-38,-256,5.085
-52,-330,5.086
-21,-272,5.087
12,-161,5.088
7,-88,5.089
-14,-27,5.09
-15,122,5.091
3,393,5.092
16,685,5.093
12,849,5.094
9,678,5.095
9,117,5.096
9,-555,5.097
8,-919,5.098
15,-849,5.099
23,-597,5.1
13,-421,5.101
-12,-291,5.102
-24,-75,5.103
-15,202,5.104
-9,401,5.105
-20,439,5.106
-24,312,5.107
-3,61,5.108
21,-188,5.109
14,-291,5.11
-9,-236,5.111
-8,-136,5.112
14,-59,5.113
20,21,5.114
6,110,5.115
-4,165,5.116
1,198,5.117
5,307,5.118
2,505,5.119
-1,653,5.12
0,587,5.121
2,307,5.122
2,-38,5.123
2,-317,5.124
7,-526,5.125
10,-668,5.126
4,-674,5.127
-2,-504,5.128
-8,-271,5.129
-15,-115,5.13
-24,-16,5.131
-30,129,5.132
-22,296,5.133
-10,349,5.134
5,251,5.135
16,140,5.136
10,-10,5.137
-11,-98,5.138
-34,7,5.139
-35,112,5.14
-2,213,5.141
60,246,5.142
119,73,5.143
134,-63,5.144
88,-90,5.145
18,-95,5.146
-31,-30,5.147
-57,-4,5.148
-82,-100,5.149
-111,-195,5.15
-116,-291,5.151
-80,-337,5.152
-24,-233,5.153
25,-126,5.154
55,-13,5.155
79,100,5.156
81,208,5.157
90,339,5.158
115,524,5.159
119,670,5.16
57,555,5.161
-1,97,5.162
-49,-442,5.163
-85,-707,5.164
-87,-620,5.165
-85,-388,5.166
-70,-197,5.167
-49,-68,5.168
-15,25,5.169
12,81,5.17
19,120,5.171
23,199,5.172
15,329,5.173
8,485,5.174
15,552,5.175
20,378,5.176
7,-51,5.177
-9,-471,5.178
-6,-556,5.179
7,-316,5.18
3,-88,5.181
-14,-60,5.182
-16,-87,5.183
-2,-21,5.184
8,45,5.185
4,16,5.186
0,-13,5.187
0,54,5.188
-4,141,5.189
-8,161,5.19
-3,160,5.191
5,196,5.192
6,217,5.193
0,162,5.194
1,80,5.195
4,21,5.196
6,-44,5.197
14,-145,5.198
33,-243,5.199
52,-265,5.2
55,-195,5.201
54,-48,5.202
67,195,5.203
80,533,5.204
63,804,5.205
15,683,5.206
-37,37,5.207
-75,-748,5.208
-111,-1070,5.209
-148,-787,5.21
-146,-355,5.211
-83,-176,5.212
4,-159,5.213
60,-66,5.214
66,53,5.215
48,37,5.216
42,-35,5.217
43,30,5.218
36,177,5.219
28,219,5.22
29,167,5.221
30,174,5.222
16,285,5.223
-14,406,5.224
-30,426,5.225
0,248,5.226
74,-136,5.227
146,-507,5.228
164,-570,5.229
123,-340,5.23
53,-128,5.231
-6,-90,5.232
-48,-69,5.233
-90,57,5.234
-126,172,5.235
-149,160,5.236
-135,114,5.237
-111,145,5.238
-59,177,5.239
-20,135,5.24
-25,88,5.241
-26,101,5.242
-16,109,5.243
-7,67,5.244
0,66,5.245
5,190,5.246
8,355,5.247
10,372,5.248
6,139,5.249
4,-219,5.25
8,-429,5.251
12,-358,5.252
14,-193,5.253
16,-174,5.254
19,-287,5.255
22,-272,5.256
23,-10,5.257
22,312,5.258
27,467,5.259
33,437,5.26
35,343,5.261
33,251,5.262
31,96,5.263
29,-233,5.264
24,-673,5.265
17,-929,5.266
8,-773,5.267
1,-355,5.268
-2,-34,5.269
0,51,5.27
7,57,5.271
9,98,5.272
6,118,5.273
2,78,5.274
0,47,5.275
-4,70,5.276
-10,92,5.277
-9,92,5.278
-2,114,5.279
12,185,5.28
39,298,5.281
81,426,5.282
107,478,5.283
83,327,5.284
15,-1,5.285
-46,-284,5.286
-75,-372,5.287
-89,-343,5.288
-105,-293,5.289
-107,-171,5.29
-90,34,5.291
-68,168,5.292
-47,140,5.293
-16,57,5.294
15,54,5.295
17,90,5.296
-5,67,5.297
-14,25,5.298
-2,26,5.299
-11,23,5.3
-54,-30,5.301
-78,-76,5.302
-37,-56,5.303
39,-9,5.304
87,58,5.305
85,203,5.306
69,350,5.307
68,234,5.308
68,-239,5.309
50,-714,5.31
25,-731,5.311
21,-311,5.312
33,70,5.313
37,162,5.314
24,130,5.315
9,194,5.316
4,220,5.317
2,12,5.318
0,-270,5.319
1,-294,5.32
12,-69,5.321
18,102,5.322
16,90,5.323
11,49,5.324
12,83,5.325
8,113,5.326
-4,98,5.327
-14,130,5.328
-13,243,5.329
-4,321,5.33
5,255,5.331
11,79,5.332
13,-85,5.333
5,-174,5.334
-10,-148,5.335
-27,-58,5.336
-37,2,5.337
-35,16,5.338
-23,48,5.339
-8,116,5.34
-2,137,5.341
-8,60,5.342
-17,-54,5.343
-17,-122,5.344
-19,-134,5.345
-26,-97,5.346
-31,-8,5.347
-17,83,5.348
2,92,5.349
9,9,5.35
5,-72,5.351
8,-90,5.352
22,-68,5.353
31,-35,5.354
25,1,5.355
-8,9,5.356
-65,-51,5.357
-127,-132,5.358
-145,-138,5.359
-82,-60,5.36
35,14,5.361
138,33,5.362
182,31,5.363
174,38,5.364
128,41,5.365
47,31,5.366
-60,32,5.367
-157,46,5.368
-191,32,5.369
-133,-19,5.37
-15,-70,5.371
75,-85,5.372
81,-80,5.373
32,-93,5.374
9,-122,5.375
34,-114,5.376
73,-34,5.377
93,54,5.378
106,29,5.379
104,-114,5.38
64,-215,5.381
6,-152,5.382
-15,-5,5.383
10,71,5.384
30,72,5.385
17,105,5.386
-1,178,5.387
5,207,5.388
16,178,5.389
3,162,5.39
-23,163,5.391
-36,123,5.392
-34,57,5.393
-27,28,5.394
-23,38,5.395
-21,8,5.396
-20,-81,5.397
-18,-138,5.398
-10,-112,5.399
0,-50,5.4
3,-6,5.401
2,20,5.402
8,36,5.403
12,26,5.404
12,-8,5.405
8,-29,5.406
10,-27,5.407
14,-38,5.408
9,-91,5.409
-2,-159,5.41
-11,-173,5.411
-19,-111,5.412
-29,-34,5.413
-37,3,5.414
-30,16,5.415
-20,69,5.416
-18,154,5.417
-27,194,5.418
-28,155,5.419
-16,104,5.42
-4,94,5.421
0,98,5.422
3,68,5.423
5,26,5.424
-6,8,5.425
-28,14,5.426
-43,28,5.427
-38,26,5.428
-19,-12,5.429
0,-60,5.43
15,-55,5.431
22,-4,5.432
22,7,5.433
20,-65,5.434
24,-127,5.435
26,-100,5.436
16,-52,5.437
-2,-92,5.438
-7,-206,5.439
12,-277,5.44
37,-229,5.441
45,-70,5.442
35,120,5.443
20,230,5.444
13,203,5.445
6,114,5.446
-7,83,5.447
-26,104,5.448
-36,90,5.449
-21,30,5.45
8,-6,5.451
29,-4,5.452
26,-8,5.453
3,-33,5.454
-21,-30,5.455
-40,0,5.456
-61,-9,5.457
-104,-69,5.458
-164,-109,5.459
-199,-95,5.46
-142,-78,5.461
6,-103,5.462
169,-145,5.463
253,-161,5.464
247,-153,5.465
201,-120,5.466
153,-48,5.467
97,43,5.468
44,93,5.469
18,87,5.47
11,94,5.471
-16,155,5.472
-71,199,5.473
-119,139,5.474
-90,19,5.475
20,-18,5.476
138,82,5.477
185,184,5.478
151,101,5.479
88,-158,5.48
38,-341,5.481
0,-229,5.482
-39,75,5.483
-69,255,5.484
-77,177,5.485
-69,39,5.486
-59,49,5.487
-57,152,5.488
-58,177,5.489
-56,108,5.49
-50,60,5.491
-42,62,5.492
-33,60,5.493
-24,20,5.494
-12,-30,5.495
-4,-82,5.496
-2,-140,5.497
-2,-176,5.498
6,-164,5.499
15,-127,5.5
14,-147,5.501
6,-346,5.502
1,-730,5.503
-1,-980,5.504
-6,-635,5.505
-12,289,5.506
-12,1068,5.507
-10,1047,5.508
-13,482,5.509
-19,186,5.51
-19,413,5.511
-14,641,5.512
-11,493,5.513
-11,210,5.514
-6,118,5.515
-1,31,5.516
0,-38,5.517
-2,-112,5.518
0,-196,5.519
8,-268,5.52
14,-304,5.521
12,-308,5.522
9,-214,5.523
8,-135,5.524
1,-99,5.525
-8,-66,5.526
-14,-45,5.527
-11,-39,5.528
-9,-83,5.529
-12,-116,5.53
-15,-116,5.531
-12,-114,5.532
-7,-108,5.533
-11,-99,5.534
-18,-91,5.535
-16,-109,5.536
2,-144,5.537
33,-136,5.538
63,-90,5.539
76,-69,5.54
57,-69,5.541
14,0,5.542
-19,147,5.543
-18,235,5.544
14,133,5.545
48,-131,5.546
68,-445,5.547
76,-681,5.548
77,-672,5.549
61,-299,5.55
18,278,5.551
-41,653,5.552
-82,627,5.553
-77,400,5.554
-12,310,5.555
67,387,5.556
96,424,5.557
59,366,5.558
4,303,5.559
-40,216,5.56
-87,-32,5.561
-132,-455,5.562
-114,-827,5.563
-16,-804,5.564
81,-221,5.565
103,636,5.566
76,1133,5.567
61,925,5.568
52,383,5.569
17,95,5.57
-19,112,5.571
-18,74,5.572
0,-106,5.573
-2,-226,5.574
-17,-201,5.575
-16,-215,5.576
-7,-340,5.577
-14,-386,5.578
-24,-244,5.579
-17,-52,5.58
-10,-11,5.581
-18,-178,5.582
-23,-415,5.583
-7,-457,5.584
11,-159,5.585
9,264,5.586
-4,437,5.587
-4,283,5.588
0,57,5.589
-4,-76,5.59
-12,-191,5.591
-16,-273,5.592
-15,-156,5.593
-15,166,5.594
-14,388,5.595
-11,310,5.596
-8,131,5.597
-1,107,5.598
12,155,5.599
24,72,5.6
23,-92,5.601
13,-153,5.602
8,-108,5.603
12,-93,5.604
16,-127,5.605
18,-140,5.606
16,-142,5.607
12,-198,5.608
-2,-269,5.609
-23,-259,5.61
-40,-184,5.611
-42,-159,5.612
-32,-202,5.613
-24,-200,5.614
-18,-56,5.615
-17,131,5.616
-21,184,5.617
-45,139,5.618
-96,215,5.619
-141,452,5.62
-120,574,5.621
-6,342,5.622
130,-72,5.623
180,-294,5.624
116,-205,5.625
32,14,5.626
21,190,5.627
76,273,5.628
120,208,5.629
114,-43,5.63
79,-369,5.631
63,-539,5.632
88,-427,5.633
143,-120,5.634
183,130,5.635
167,288,5.636
101,165,5.637
25,103,5.638
-36,227,5.639
-83,279,5.64
-108,113,5.641
-104,-62,5.642
-97,-270,5.643
-108,-351,5.644
-113,-52,5.645
-80,226,5.646
-37,445,5.647
-38,504,5.648
-89,80,5.649
-131,-262,5.65
-123,-356,5.651
-66,-411,5.652
9,-345,5.653
72,-216,5.654
68,124,5.655
-8,277,5.656
-76,116,5.657
-62,-135,5.658
7,-330,5.659
43,-459,5.66
18,-337,5.661
-1,182,5.662
33,719,5.663
87,708,5.664
104,289,5.665
74,106,5.666
25,244,5.667
-16,157,5.668
-34,-270,5.669
-31,-450,5.67
-18,-142,5.671
-7,140,5.672
2,49,5.673
17,-135,5.674
34,-107,5.675
44,-84,5.676
50,-266,5.677
54,-331,5.678
49,-35,5.679
26,247,5.68
-10,74,5.681
-48,-370,5.682
-90,-576,5.683
-134,-383,5.684
-153,-8,5.685
-108,339,5.686
-17,568,5.687
42,630,5.688
19,519,5.689
-44,286,5.69
-64,5,5.691
-31,-191,5.692
-8,-172,5.693
-3,43,5.694
55,219,5.695
189,191,5.696
304,67,5.697
295,-3,5.698
195,-98,5.699
103,-336,5.7
50,-577,5.701
14,-587,5.702
1,-387,5.703
19,-262,5.704
14,-383,5.705
-73,-537,5.706
-200,-344,5.707
-261,227,5.708
-213,726,5.709
-109,746,5.71
-9,461,5.711
58,354,5.712
76,506,5.713
42,591,5.714
-12,427,5.715
-45,228,5.716
-45,182,5.717
-40,139,5.718
-40,-41,5.719
-27,-207,5.72
-4,-241,5.721
13,-316,5.722
17,-538,5.723
20,-656,5.724
19,-429,5.725
-3,-49,5.726
-46,99,5.727
-102,-33,5.728
-167,-163,5.729
-224,-94,5.73
-231,84,5.731
-155,204,5.732
-31,230,5.733
104,200,5.734
230,128,5.735
339,1,5.736
388,-162,5.737
342,-304,5.738
250,-352,5.739
173,-244,5.74
84,4,5.741
-80,245,5.742
-260,316,5.743
-286,212,5.744
-104,74,5.745
138,-3,5.746
268,-38,5.747
263,-71,5.748
200,-84,5.749
112,-63,5.75
1,-19,5.751
-103,46,5.752
-153,110,5.753
-153,116,5.754
-136,30,5.755
-119,-83,5.756
-100,-127,5.757
-83,-83,5.758
-67,4,5.759
-45,101,5.76
-36,169,5.761
-79,143,5.762
-177,23,5.763
-262,-90,5.764
-252,-121,5.765
-129,-108,5.766
45,-132,5.767
170,-212,5.768
195,-332,5.769
161,-442,5.77
154,-409,5.771
169,-129,5.772
123,230,5.773
-4,382,5.774
-72,212,5.775
-73,3,5.776
125,47,5.777
254,205,5.778
168,137,5.779
77,-125,5.78
-28,-222,5.781
-109,-36,5.782
-114,138,5.783
-102,103,5.784
-36,57,5.785
16,203,5.786
24,403,5.787
29,457,5.788
23,431,5.789
13,462,5.79
-4,467,5.791
-9,340,5.792
29,182,5.793
54,85,5.794
-1,-1,5.795
-72,-83,5.796
-98,-147,5.797
-126,-186,5.798
-226,-145,5.799
-327,-140,5.8
-272,-246,5.801
-33,-368,5.802
217,-537,5.803
302,-611,5.804
235,-396,5.805
153,-169,5.806
119,91,5.807
80,276,5.808
4,233,5.809
-49,185,5.81
-23,122,5.811
56,59,5.812
137,-5,5.813
219,-39,5.814
281,5,5.815
229,-29,5.816
21,-105,5.817
-199,-132,5.818
-233,-134,5.819
-90,-165,5.82
5,-172,5.821
-89,-93,5.822
-261,10,5.823
-344,50,5.824
-329,43,5.825
-287,46,5.826
-196,56,5.827
5,45,5.828
248,20,5.829
378,-20,5.83
347,-126,5.831
244,-262,5.832
157,-281,5.833
92,-93,5.834
40,152,5.835
-2,207,5.836
-32,59,5.837
-37,-51,5.838
-3,13,5.839
39,106,5.84
36,63,5.841
-4,-63,5.842
-18,-134,5.843
-5,-150,5.844
-43,-215,5.845
-173,-348,5.846
-325,-434,5.847
-402,-349,5.848
-335,-43,5.849
-116,370,5.85
149,615,5.851
290,470,5.852
265,82,5.853
41,-213,5.854
28,-159,5.855
13,80,5.856
-12,167,5.857
-26,96,5.858
-6,148,5.859
-3,431,5.86
-54,702,5.861
-106,751,5.862
-164,648,5.863
-206,523,5.864
-196,351,5.865
-137,129,5.866
69,1,5.867
231,11,5.868
263,-2,5.869
268,-122,5.87
196,-205,5.871
109,-164,5.872
-24,-132,5.873
82,-192,5.874
50,-231,5.875
10,-262,5.876
-51,-266,5.877
-86,-276,5.878
-36,-300,5.879
-30,-330,5.88
-155,-379,5.881
-285,-428,5.882
-430,-474,5.883
-534,-441,5.884
-509,-166,5.885
-362,52,5.886
151,100,5.887
555,134,5.888
633,121,5.889
647,116,5.89
468,137,5.891
250,136,5.892
-82,67,5.893
-351,-2,5.894
-270,-41,5.895
-18,-20,5.896
191,5,5.897
335,8,5.898
430,13,5.899
379,35,5.9
157,52,5.901
-61,43,5.902
-139,22,5.903
-160,1,5.904
-225,-27,5.905
-246,-53,5.906
-121,-46,5.907
39,4,5.908
54,59,5.909
-79,87,5.91
-215,67,5.911
-282,-53,5.912
-306,-294,5.913
-272,-574,5.914
-114,-633,5.915
118,-307,5.916
240,230,5.917
163,631,5.918
23,709,5.919
-12,567,5.92
31,386,5.921
6,249,5.922
-99,148,5.923
-143,71,5.924
-43,0,5.925
115,-63,5.926
211,-81,5.927
230,-27,5.928
196,53,5.929
86,79,5.93
-100,25,5.931
-266,-73,5.932
-325,-159,5.933
-307,-195,5.934
-273,-141,5.935
-199,-29,5.936
-36,46,5.937
136,41,5.938
195,-15,5.939
167,-66,5.94
186,-89,5.941
281,-83,5.942
334,-46,5.943
262,-2,5.944
114,13,5.945
5,2,5.946
-9,2,5.947
0,25,5.948
-100,37,5.949
-314,19,5.95
-443,4,5.951
-317,1,5.952
-52,-34,5.953
146,-140,5.954
181,-239,5.955
159,-234,5.956
173,-142,5.957
192,-54,5.958
169,-4,5.959
92,52,5.96
-53,124,5.961
-228,158,5.962
-295,140,5.963
-164,114,5.964
67,106,5.965
232,94,5.966
289,56,5.967
274,7,5.968
193,-36,5.969
48,-74,5.97
-80,-93,5.971
-103,-85,5.972
-28,-57,5.973
78,-16,5.974
119,39,5.975
7,77,5.976
-224,61,5.977
-407,40,5.978
-425,5,5.979
-375,-16,5.98
-369,2,5.981
-290,11,5.982
6,-11,5.983
321,-29,5.984
295,-31,5.985
-39,-30,5.986
-223,-20,5.987
14,-11,5.988
425,-1,5.989
631,3,5.99
562,-6,5.991
365,-11,5.992
162,4,5.993
-2,17,5.994
-41,18,5.995
34,22,5.996
80,14,5.997
8,-11,5.998
-111,-51,5.999
-203,-70,6.0
-280,-47,6.001
-350,-18,6.002
-381,-49,6.003
-357,-154,6.004
-262,-253,6.005
-64,-235,6.006
184,-83,6.007
333,115,6.008
330,260,6.009
282,326,6.01
247,326,6.011
127,268,6.012
-80,186,6.013
-251,118,6.014
-280,98,6.015
-264,93,6.016
-291,50,6.017
-294,-19,6.018
-219,-74,6.019
-123,-100,6.02
-9,-112,6.021
194,-118,6.022
431,-110,6.023
533,-92,6.024
465,-75,6.025
321,-60,6.026
117,-42,6.027
-163,-23,6.028
-362,-15,6.029
-314,-33,6.03
-124,-77,6.031
-16,-112,6.032
20,-97,6.033
103,-38,6.034
165,16,6.035
63,57,6.036
-102,53,6.037
-137,53,6.038
-75,67,6.039
-43,74,6.04
9,58,6.041
103,42,6.042
47,28,6.043
-188,15,6.044
-234,9,6.045
121,2,6.046
492,-7,6.047
471,-17,6.048
242,-30,6.049
115,-36,6.05
-70,-20,6.051
-506,-11,6.052
-835,-29,6.053
-658,-37,6.054
-163,-6,6.055
140,16,6.056
216,0,6.057
388,-59,6.058
618,-180,6.059
534,-366,6.06
127,-567,6.061
-169,-676,6.062
-109,-586,6.063
64,-259,6.064
29,197,6.065
-188,571,6.066
-321,720,6.067
-243,705,6.068
-89,674,6.069
-16,648,6.07
16,533,6.071
109,314,6.072
205,118,6.073
175,3,6.074
35,-53,6.075
-55,-102,6.076
-43,-131,6.077
-37,-107,6.078
-97,-68,6.079
-137,-60,6.08
-102,-83,6.081
-62,-109,6.082
-86,-137,6.083
-105,-169,6.084
4,-192,6.085
240,-192,6.086
458,-171,6.087
498,-137,6.088
349,-95,6.089
130,-58,6.09
-47,-35,6.091
-161,-25,6.092
-223,-23,6.093
-239,-37,6.094
-212,-60,6.095
-184,-67,6.096
-194,-44,6.097
-236,-5,6.098
-281,8,6.099
-296,-10,6.1
-233,-25,6.101
-80,-23,6.102
58,-18,6.103
59,-22,6.104
-53,-27,6.105
-126,-23,6.106
-55,-24,6.107
155,-30,6.108
444,-11,6.109
685,42,6.11
679,98,6.111
360,118,6.112
-17,108,6.113
-186,89,6.114
-107,69,6.115
-17,36,6.116
-56,-3,6.117
-113,-25,6.118
-73,-31,6.119
-12,-37,6.12
-50,-47,6.121
-170,-51,6.122
-271,-49,6.123
-284,-43,6.124
-179,-22,6.125
21,12,6.126
209,46,6.127
263,63,6.128
181,66,6.129
76,61,6.13
22,37,6.131
-6,-9,6.132
-42,-47,6.133
-110,-60,6.134
-215,-50,6.135
-306,-36,6.136
-272,-26,6.137
-77,-7,6.138
161,17,6.139
324,37,6.14
422,46,6.141
467,41,6.142
355,28,6.143
69,25,6.144
-153,45,6.145
-117,77,6.146
19,97,6.147
-3,96,6.148
-137,76,6.149
-146,34,6.15
-22,-16,6.151
37,-44,6.152
-18,-43,6.153
-84,-38,6.154
-110,-45,6.155
-145,-38,6.156
-157,-10,6.157
-67,13,6.158
63,6,6.159
91,0,6.16
13,22,6.161
-60,38,6.162
-85,8,6.163
-91,-37,6.164
-77,-45,6.165
-50,-20,6.166
-67,-13,6.167
-123,-35,6.168
-95,-53,6.169
70,-45,6.17
253,-29,6.171
320,-19,6.172
297,-11,6.173
223,-9,6.174
91,-17,6.175
-56,-31,6.176
-250,-38,6.177
-367,-26,6.178
-251,-9,6.179
-104,1,6.18
137,6,6.181
302,8,6.182
235,9,6.183
160,10,6.184
62,8,6.185
-23,0,6.186
-67,-7,6.187
-102,1,6.188
-110,17,6.189
-111,14,6.19
-90,-6,6.191
-53,-10,6.192
32,16,6.193
104,37,6.194
104,19,6.195
78,1,6.196
92,-16,6.197
162,-27,6.198
252,-14,6.199
280,1,6.2
172,22,6.201
-21,38,6.202
-126,33,6.203
-70,25,6.204
10,11,6.205
-23,2,6.206
-128,9,6.207
-190,13,6.208
-192,7,6.209
-184,2,6.21
-161,-2,6.211
-89,-8,6.212
11,-21,6.213
106,-34,6.214
120,-37,6.215
102,-33,6.216
-18,-27,6.217
-80,-1,6.218
29,30,6.219
95,38,6.22
25,15,6.221
-28,-11,6.222
-28,-12,6.223
-34,6,6.224
-56,18,6.225
-87,16,6.226
-143,2,6.227
-162,-15,6.228
-72,-30,6.229
-12,-30,6.23
-46,-12,6.231
-73,7,6.232
-76,13,6.233
-79,-11,6.234
-78,-9,6.235
-55,-6,6.236
-9,0,6.237
36,4,6.238
78,3,6.239
127,2,6.24
169,6,6.241
171,10,6.242
137,9,6.243
120,8,6.244
152,7,6.245
187,4,6.246
169,-10,6.247
111,-19,6.248
70,-15,6.249
49,-5,6.25
2,23,6.251
-63,43,6.252
-92,37,6.253
-76,-33,6.254
-60,-29,6.255
-69,-22,6.256
-73,-7,6.257
-48,4,6.258
-28,0,6.259
-33,-1,6.26
-44,11,6.261
-48,20,6.262
-55,18,6.263
-70,15,6.264
-71,12,6.265
-35,2,6.266
19,-30,6.267
36,-52,6.268
-6,-42,6.269
-67,-18,6.27
-67,50,6.271
10,99,6.272
101,85,6.273
155,64,6.274
165,29,6.275
142,6,6.276
79,-14,6.277
-24,-26,6.278
-117,-27,6.279
-142,-23,6.28
-93,-21,6.281
-15,-18,6.282
52,-19,6.283
90,-31,6.284
90,-44,6.285
58,-40,6.286
19,-21,6.287
-8,-12,6.288
-24,-19,6.289
-48,-27,6.29
-74,-28,6.291
-62,-28,6.292
-4,-26,6.293
64,-6,6.294
74,14,6.295
14,8,6.296
-55,-27,6.297
-82,-47,6.298
-72,-15,6.299
-53,46,6.3
-14,87,6.301
67,77,6.302
162,33,6.303
190,0,6.304
110,17,6.305
-10,66,6.306
-62,96,6.307
-34,75,6.308
-17,25,6.309
-71,-5,6.31
-135,8,6.311
-127,32,6.312
-56,29,6.313
-14,-13,6.314
-2,-56,6.315
7,-73,6.316
2,-68,6.317
-1,-56,6.318
-1,-47,6.319
-4,-29,6.32
-18,-3,6.321
-34,13,6.322
-50,7,6.323
-66,-5,6.324
-79,-6,6.325
-83,6,6.326
-63,18,6.327
-35,21,6.328
20,23,6.329
68,27,6.33
88,27,6.331
99,9,6.332
80,-12,6.333
-17,10,6.334
-1,8,6.335
11,6,6.336
5,5,6.337
1,3,6.338
1,-5,6.339
-4,-10,6.34
-23,-8,6.341
-43,-1,6.342
-64,16,6.343
-85,31,6.344
-101,37,6.345
-107,42,6.346
-81,40,6.347
-44,38,6.348
28,32,6.349
89,26,6.35
115,20,6.351
130,16,6.352
105,18,6.353
87,-4,6.354
122,-12,6.355
198,-18,6.356
218,-20,6.357
122,-29,6.358
-10,-53,6.359
-59,-70,6.36
-25,-62,6.361
-1,-40,6.362
-17,17,6.363
-24,66,6.364
-5,87,6.365
6,102,6.366
-2,97,6.367
-12,88,6.368
-26,69,6.369
-55,49,6.37
-76,30,6.371
-67,17,6.372
-48,25,6.373
-54,32,6.374
-84,28,6.375
-131,13,6.376
-179,-6,6.377
-190,-12,6.378
-109,-16,6.379
51,-23,6.38
198,-32,6.381
264,-33,6.382
256,-20,6.383
193,-7,6.384
86,-8,6.385
-16,-22,6.386
-49,-35,6.387
-28,-33,6.388
-26,-19,6.389
-56,-4,6.39
-62,4,6.391
-28,3,6.392
-4,-5,6.393
-9,-29,6.394
-10,-53,6.395
11,-60,6.396
19,-49,6.397
-8,-28,6.398
-31,-12,6.399
-16,2,6.4
24,16,6.401
64,22,6.402
91,16,6.403
81,13,6.404
10,20,6.405
-76,21,6.406
-99,7,6.407
-42,-7,6.408
28,0,6.409
52,22,6.41
42,33,6.411
20,26,6.412
-9,21,6.413
-41,26,6.414
-50,31,6.415
-56,14,6.416
-47,-23,6.417
-39,-47,6.418
-35,-47,6.419
-34,-33,6.42
-45,-27,6.421
-50,-27,6.422
-35,-20,6.423
-21,-5,6.424
-8,6,6.425
5,2,6.426
18,-12,6.427
26,-22,6.428
14,-18,6.429
-3,-9,6.43
-36,-3,6.431
-50,1,6.432
-7,6,6.433
41,5,6.434
101,-4,6.435
160,-10,6.436
199,-7,6.437
183,-2,6.438
109,6,6.439
33,16,6.44
1,33,6.441
2,48,6.442
-1,56,6.443
-25,60,6.444
-49,50,6.445
-59,41,6.446
-66,32,6.447
-71,19,6.448
-67,-5,6.449
-50,-24,6.45
-30,-28,6.451
-4,-30,6.452
30,-24,6.453
58,-19,6.454
53,-14,6.455
7,-17,6.456
-53,-26,6.457
-94,-18,6.458
-95,0,6.459
-53,10,6.46
3,2,6.461
38,0,6.462
45,15,6.463
54,30,6.464
84,32,6.465
116,26,6.466
117,23,6.467
83,18,6.468
38,13,6.469
5,4,6.47
-10,-6,6.471
-20,-24,6.472
-29,-42,6.473
-41,-52,6.474
-40,-51,6.475
-32,-45,6.476
-26,-34,6.477
-24,-13,6.478
-15,3,6.479
0,5,6.48
6,0,6.481
-2,1,6.482
-11,6,6.483
-9,6,6.484
-13,1,6.485
-43,0,6.486
-94,3,6.487
-137,3,6.488
-140,0,6.489
-95,-11,6.49
-22,-21,6.491
43,-17,6.492
85,3,6.493
115,23,6.494
144,23,6.495
155,9,6.496
108,2,6.497
60,11,6.498
13,14,6.499
-17,6,6.5
8,1,6.501
24,4,6.502
13,4,6.503
0,-1,6.504
-13,-2,6.505
-26,1,6.506
-30,-2,6.507
-33,-15,6.508
-35,-24,6.509
-37,-14,6.51
-33,0,6.511
-29,4,6.512
-26,3,6.513
-23,23,6.514
-18,-3,6.515
4,-29,6.516
25,-55,6.517
17,-61,6.518
-8,-5,6.519
-15,41,6.52
2,64,6.521
23,73,6.522
27,36,6.523
23,5,6.524
22,-8,6.525
21,-14,6.526
16,7,6.527
8,25,6.528
1,32,6.529
-4,39,6.53
-3,38,6.531
6,31,6.532
16,10,6.533
18,24,6.534
11,-4,6.535
3,-32,6.536
-1,-60,6.537
-4,-66,6.538
-1,-7,6.539
8,43,6.54
15,68,6.541
12,77,6.542
3,38,6.543
-1,4,6.544
-5,-10,6.545
-12,-16,6.546
-15,6,6.547
-8,26,6.548
-2,34,6.549
-4,41,6.55
-5,40,6.551
-4,33,6.552
1,9,6.553
-1,-11,6.554
-8,-10,6.555
-12,-2,6.556
-10,2,6.557
-3,2,6.558
9,-2,6.559
26,-5,6.56
36,-6,6.561
34,-10,6.562
24,-21,6.563
15,-27,6.564
5,-20,6.565
-5,-9,6.566
-10,-8,6.567
-13,-11,6.568
-16,-11,6.569
-21,-7,6.57
-19,-4,6.571
-12,-4,6.572
-7,-3,6.573
-11,-4,6.574
-12,-8,6.575
-4,-14,6.576
14,-18,6.577
25,-11,6.578
22,1,6.579
10,11,6.58
-1,7,6.581
-3,-16,6.582
-1,-41,6.583
1,-46,6.584
2,-28,6.585
5,-11,6.586
8,-6,6.587
8,0,6.588
4,13,6.589
-1,19,6.59
-4,8,6.591
-8,-4,6.592
-7,1,6.593
-5,10,6.594
2,6,6.595
15,-12,6.596
30,-26,6.597
38,-22,6.598
33,-7,6.599
21,10,6.6
11,33,6.601
9,63,6.602
12,98,6.603
6,111,6.604
-4,59,6.605
-11,-54,6.606
-7,-150,6.607
3,-149,6.608
13,-71,6.609
13,-2,6.61
6,11,6.611
-8,8,6.612
-22,32,6.613
-33,70,6.614
-36,115,6.615
-34,179,6.616
-30,243,6.617
-26,243,6.618
-18,127,6.619
-9,-63,6.62
-5,-223,6.621
-5,-284,6.622
2,-253,6.623
17,-174,6.624
22,-91,6.625
14,-30,6.626
10,2,6.627
19,21,6.628
28,38,6.629
22,42,6.63
7,20,6.631
0,-12,6.632
7,-25,6.633
17,-11,6.634
17,12,6.635
9,26,6.636
1,24,6.637
5,19,6.638
17,12,6.639
28,8,6.64
29,12,6.641
22,14,6.642
15,7,6.643
9,0,6.644
-1,7,6.645
-17,21,6.646
-29,20,6.647
-33,6,6.648
-30,-4,6.649
-26,1,6.65
-16,10,6.651
8,15,6.652
35,15,6.653
42,-53,6.654
27,-52,6.655
12,-40,6.656
-1,-1,6.657
-11,32,6.658
-11,41,6.659
-11,36,6.66
-11,-11,6.661
-10,-48,6.662
-12,-48,6.663
-15,-46,6.664
-15,-37,6.665
-16,-33,6.666
-14,-42,6.667
-15,-42,6.668
-27,-12,6.669
-31,15,6.67
-13,38,6.671
6,54,6.672
27,45,6.673
45,-68,6.674
52,-66,6.675
61,-51,6.676
63,2,6.677
48,46,6.678
27,58,6.679
21,52,6.68
23,-12,6.681
18,-61,6.682
10,-61,6.683
9,-58,6.684
12,-47,6.685
6,-41,6.686
-6,-53,6.687
-15,-53,6.688
-15,-13,6.689
-16,24,6.69
-16,54,6.691
-16,75,6.692
-17,64,6.693
-19,54,6.694
-27,48,6.695
-40,32,6.696
-47,27,6.697
-41,92,6.698
-19,244,6.699
5,394,6.7
15,359,6.701
16,57,6.702
16,-320,6.703
19,-455,6.704
21,-295,6.705
17,-111,6.706
7,-94,6.707
-6,-131,6.708
-14,-78,6.709
-10,-26,6.71
-1,-94,6.711
0,-175,6.712
-1,-132,6.713
6,-40,6.714
15,-12,6.715
4,20,6.716
-15,65,6.717
-8,91,6.718
26,54,6.719
49,31,6.72
34,52,6.721
8,63,6.722
7,45,6.723
19,33,6.724
15,41,6.725
-1,44,6.726
3,26,6.727
24,15,6.728
31,25,6.729
15,30,6.73
2,15,6.731
2,9,6.732
3,33,6.733
-6,49,6.734
-12,18,6.735
-9,-23,6.736
-8,-33,6.737
-12,-28,6.738
-12,-39,6.739
-5,-42,6.74
-6,-11,6.741
-20,20,6.742
-24,14,6.743
-13,-4,6.744
-2,5,6.745
-6,26,6.746
-15,22,6.747
-11,2,6.748
-3,-7,6.749
-4,-5,6.75
-11,-6,6.751
-15,-9,6.752
-12,-4,6.753
-10,-1,6.754
-9,-10,6.755
-8,-18,6.756
-6,-18,6.757
-2,-12,6.758
8,-12,6.759
26,-3,6.76
40,45,6.761
44,136,6.762
47,222,6.763
58,216,6.764
63,115,6.765
49,107,6.766
25,416,6.767
9,896,6.768
3,920,6.769
2,64,6.77
0,-1179,6.771
0,-1773,6.772
-1,-1394,6.773
-3,-731,6.774
-4,-178,6.775
-4,28,6.776
-3,279,6.777
0,564,6.778
10,473,6.779
20,20,6.78
18,-265,6.781
9,-143,6.782
3,67,6.783
4,94,6.784
-5,69,6.785
-28,133,6.786
-51,174,6.787
-62,131,6.788
-62,133,6.789
-57,200,6.79
-44,153,6.791
-24,-48,6.792
-9,-187,6.793
-1,-131,6.794
1,-42,6.795
4,-33,6.796
11,-21,6.797
16,48,6.798
17,86,6.799
13,59,6.8
8,80,6.801
13,204,6.802
34,299,6.803
61,222,6.804
70,-7,6.805
56,-244,6.806
34,-351,6.807
17,-281,6.808
6,-100,6.809
1,57,6.81
1,109,6.811
-2,74,6.812
-10,18,6.813
-19,-33,6.814
-19,-59,6.815
-19,-46,6.816
-27,-21,6.817
-36,-17,6.818
-32,-33,6.819
-23,-32,6.82
-23,-4,6.821
-23,19,6.822
-6,29,6.823
18,34,6.824
26,29,6.825
20,-1,6.826
21,-31,6.827
30,-13,6.828
29,52,6.829
14,123,6.83
5,176,6.831
10,211,6.832
14,230,6.833
9,210,6.834
10,120,6.835
18,-55,6.836
25,-236,6.837
25,-255,6.838
25,-73,6.839
32,76,6.84
32,-61,6.841
19,-388,6.842
0,-552,6.843
-18,-416,6.844
-35,-186,6.845
-49,-65,6.846
-52,-9,6.847
-43,68,6.848
-31,122,6.849
-27,113,6.85
-24,139,6.851
-15,286,6.852
-4,453,6.853
6,458,6.854
15,214,6.855
19,-133,6.856
19,-283,6.857
17,-70,6.858
20,294,6.859
23,417,6.86
20,161,6.861
11,-211,6.862
5,-389,6.863
9,-351,6.864
13,-257,6.865
12,-180,6.866
6,-70,6.867
1,83,6.868
-4,206,6.869
-8,219,6.87
-7,99,6.871
-6,-83,6.872
-13,-187,6.873
-28,-135,6.874
-31,-5,6.875
-18,32,6.876
-7,-56,6.877
-19,-132,6.878
-30,-116,6.879
-11,-61,6.88
27,-16,6.881
47,57,6.882
43,169,6.883
38,242,6.884
42,213,6.885
37,100,6.886
21,-29,6.887
21,-114,6.888
39,-127,6.889
48,-92,6.89
33,-64,6.891
23,-15,6.892
40,154,6.893
67,538,6.894
74,968,6.895
47,1056,6.896
6,500,6.897
-34,-503,6.898
-67,-1301,6.899
-97,-1365,6.9
-124,-846,6.901
-139,-335,6.902
-134,-138,6.903
-108,-69,6.904
-74,57,6.905
-50,148,6.906
-36,115,6.907
-12,96,6.908
39,189,6.909
97,267,6.91
122,221,6.911
104,145,6.912
76,147,6.913
61,185,6.914
44,189,6.915
13,172,6.916
-14,153,6.917
-13,92,6.918
4,0,6.919
7,-41,6.92
-3,-4,6.921
-5,40,6.922
1,58,6.923
5,96,6.924
8,137,6.925
17,67,6.926
23,-151,6.927
14,-372,6.928
-4,-396,6.929
-12,-184,6.93
-14,108,6.931
-20,274,6.932
-27,236,6.933
-25,31,6.934
-15,-205,6.935
-8,-353,6.936
-11,-368,6.937
-14,-277,6.938
-6,-165,6.939
9,-85,6.94
17,-30,6.941
13,24,6.942
8,75,6.943
9,110,6.944
9,144,6.945
3,177,6.946
-8,173,6.947
-12,120,6.948
-6,83,6.949
3,132,6.95
14,235,6.951
26,263,6.952
40,134,6.953
43,-130,6.954
38,-343,6.955
35,-340,6.956
42,-127,6.957
48,145,6.958
42,334,6.959
23,365,6.96
1,206,6.961
-20,-72,6.962
-50,-217,6.963
-92,-34,6.964
-125,251,6.965
-122,150,6.966
-88,-388,6.967
-53,-786,6.968
-32,-580,6.969
-9,-34,6.97
19,280,6.971
27,223,6.972
7,74,6.973
-20,-21,6.974
-14,-96,6.975
19,-123,6.976
57,0,6.977
88,214,6.978
116,323,6.979
137,244,6.98
140,87,6.981
120,16,6.982
73,122,6.983
15,323,6.984
-23,335,6.985
-27,-21,6.986
-21,-477,6.987
-31,-575,6.988
-52,-281,6.989
-56,-7,6.99
-47,48,6.991
-42,101,6.992
-40,235,6.993
-28,185,6.994
-8,-186,6.995
1,-537,6.996
0,-503,6.997
4,-214,6.998
14,-18,6.999
14,52,7.0
2,153,7.001
-9,260,7.002
-12,264,7.003
-8,250,7.004
1,407,7.005
15,720,7.006
26,921,7.007
26,728,7.008
16,114,7.009
8,-588,7.01
8,-946,7.011
12,-875,7.012
16,-679,7.013
12,-549,7.014
4,-386,7.015
-3,-100,7.016
-5,110,7.017
-8,87,7.018
-15,8,7.019
-25,90,7.02
-41,230,7.021
-51,230,7.022
-45,150,7.023
-37,152,7.024
-23,187,7.025
-10,152,7.026
2,120,7.027
12,193,7.028
17,249,7.029
21,106,7.03
17,-170,7.031
7,-328,7.032
-17,-271,7.033
-39,-134,7.034
-43,-63,7.035
-22,-11,7.036
21,-20,7.037
67,-18,7.038
88,16,7.039
80,40,7.04
57,30,7.041
36,12,7.042
21,-33,7.043
6,-51,7.044
-9,14,7.045
-19,68,7.046
-12,84,7.047
11,93,7.048
31,82,7.049
26,54,7.05
7,-21,7.051
-2,-64,7.052
2,-8,7.053
0,48,7.054
-5,27,7.055
-10,-98,7.056
-16,-166,7.057
-31,-65,7.058
-69,120,7.059
-92,267,7.06
-62,335,7.061
-41,308,7.062
-47,162,7.063
-41,-34,7.064
8,-112,7.065
58,-20,7.066
111,66,7.067
147,-15,7.068
132,-189,7.069
107,-282,7.07
51,-274,7.071
3,-243,7.072
-21,-201,7.073
-36,-124,7.074
-23,-73,7.075
-21,-38,7.076
-16,-56,7.077
9,-54,7.078
35,11,7.079
28,41,7.08
-10,-39,7.081
-43,-62,7.082
-47,87,7.083
-37,189,7.084
-29,148,7.085
-31,101,7.086
-36,39,7.087
-35,-27,7.088
-21,-104,7.089
-3,-136,7.09
10,-32,7.091
15,46,7.092
27,42,7.093
51,36,7.094
61,98,7.095
37,248,7.096
2,293,7.097
-17,152,7.098
-19,-70,7.099
-32,-259,7.1
-53,-382,7.101
-45,-396,7.102
16,-235,7.103
104,24,7.104
168,177,7.105
175,138,7.106
124,53,7.107
37,81,7.108
-40,174,7.109
-80,185,7.11
-96,72,7.111
-114,-71,7.112
-123,-157,7.113
-99,-104,7.114
-57,81,7.115
-45,234,7.116
-60,287,7.117
-53,300,7.118
-10,189,7.119
16,97,7.12
-2,61,7.121
-22,18,7.122
-6,-43,7.123
19,-94,7.124
22,-106,7.125
17,-116,7.126
24,-116,7.127
30,-101,7.128
20,-40,7.129
8,-2,7.13
12,-36,7.131
17,-60,7.132
12,-54,7.133
1,-49,7.134
0,-47,7.135
-2,-35,7.136
-7,-20,7.137
-7,-29,7.138
7,-67,7.139
19,-111,7.14
19,-129,7.141
21,-99,7.142
25,-26,7.143
28,47,7.144
25,75,7.145
23,47,7.146
29,-22,7.147
32,-122,7.148
25,-232,7.149
19,-324,7.15
21,-385,7.151
22,-390,7.152
19,-280,7.153
14,-50,7.154
14,139,7.155
9,234,7.156
-1,45,7.157
-5,-78,7.158
4,-3,7.159
6,94,7.16
-24,260,7.161
-76,403,7.162
-122,475,7.163
-146,478,7.164
-147,275,7.165
-115,117,7.166
-41,99,7.167
46,82,7.168
105,67,7.169
125,60,7.17
133,78,7.171
127,30,7.172
89,-222,7.173
5,-439,7.174
-57,-287,7.175
-73,241,7.176
-33,580,7.177
57,317,7.178
160,-252,7.179
203,-490,7.18
170,-213,7.181
130,150,7.182
133,183,7.183
130,-24,7.184
65,-135,7.185
-22,-68,7.186
-67,-9,7.187
-84,-62,7.188
-112,-147,7.189
-126,-200,7.19
-91,-241,7.191
-55,-240,7.192
-62,-125,7.193
-88,114,7.194
-80,218,7.195
-55,144,7.196
-55,26,7.197
-65,-8,7.198
-43,5,7.199
-8,9,7.2
-7,23,7.201
-39,68,7.202
-62,81,7.203
-60,1,7.204
-39,-146,7.205
0,-288,7.206
48,-364,7.207
71,-319,7.208
60,-153,7.209
41,6,7.21
34,26,7.211
26,-18,7.212
9,66,7.213
-4,291,7.214
-1,365,7.215
1,62,7.216
0,-403,7.217
-1,-568,7.218
3,-251,7.219
3,278,7.22
-8,618,7.221
-13,618,7.222
1,426,7.223
16,249,7.224
29,132,7.225
29,-25,7.226
-8,-258,7.227
-33,-414,7.228
-19,-282,7.229
-10,135,7.23
-18,540,7.231
-36,583,7.232
-84,233,7.233
-114,-230,7.234
-66,-479,7.235
-1,-591,7.236
32,-292,7.237
33,-46,7.238
39,42,7.239
75,108,7.24
122,109,7.241
151,130,7.242
143,206,7.243
94,238,7.244
11,134,7.245
-76,37,7.246
-121,-32,7.247
-91,-108,7.248
-12,-202,7.249
38,-215,7.25
14,17,7.251
-35,149,7.252
-34,-16,7.253
18,-135,7.254
72,-51,7.255
97,-72,7.256
122,-297,7.257
158,-430,7.258
177,-335,7.259
157,-178,7.26
110,28,7.261
42,437,7.262
-49,873,7.263
-142,801,7.264
-182,-24,7.265
-149,-1174,7.266
-77,-1789,7.267
-10,-1168,7.268
35,516,7.269
57,2018,7.27
49,2137,7.271
16,1117,7.272
-11,278,7.273
-25,154,7.274
-36,219,7.275
-57,0,7.276
-73,-199,7.277
-70,-155,7.278
-58,-255,7.279
-48,-588,7.28
-43,-591,7.281
-29,-108,7.282
-10,211,7.283
6,0,7.284
14,-258,7.285
18,-177,7.286
20,-66,7.287
12,-202,7.288
-5,-324,7.289
-19,-244,7.29
-23,-241,7.291
-18,-526,7.292
-10,-869,7.293
-8,-1064,7.294
-5,-1077,7.295
-1,-856,7.296
7,-254,7.297
15,620,7.298
26,1293,7.299
35,1394,7.3
36,1028,7.301
35,592,7.302
23,378,7.303
13,328,7.304
7,132,7.305
1,-341,7.306
-7,-729,7.307
-16,-549,7.308
-24,99,7.309
-27,571,7.31
-17,519,7.311
-14,276,7.312
-34,230,7.313
-61,255,7.314
-96,126,7.315
-87,-2,7.316
-20,-128,7.317
59,-312,7.318
92,-665,7.319
62,-879,7.32
20,-674,7.321
18,-354,7.322
42,307,7.323
46,781,7.324
8,685,7.325
-47,544,7.326
-86,270,7.327
-72,53,7.328
5,7,7.329
96,-46,7.33
112,-120,7.331
38,-190,7.332
-20,-246,7.333
40,-300,7.334
136,-306,7.335
162,-194,7.336
145,-43,7.337
155,-35,7.338
153,-242,7.339
60,-503,7.34
-58,-596,7.341
-75,-470,7.342
1,-234,7.343
35,5,7.344
-20,216,7.345
-70,367,7.346
-43,429,7.347
24,447,7.348
69,495,7.349
62,531,7.35
0,420,7.351
-90,161,7.352
-150,-67,7.353
-160,-218,7.354
-142,-389,7.355
-125,-646,7.356
-98,-792,7.357
-54,-633,7.358
-16,-262,7.359
7,127,7.36
43,496,7.361
93,848,7.362
103,1038,7.363
51,932,7.364
-9,620,7.365
-22,262,7.366
-5,-126,7.367
9,-504,7.368
22,-619,7.369
41,-279,7.37
51,286,7.371
32,601,7.372
-3,460,7.373
-46,69,7.374
-94,-491,7.375
-152,-890,7.376
-191,-904,7.377
-164,-443,7.378
-64,258,7.379
59,743,7.38
129,724,7.381
122,390,7.382
80,173,7.383
58,270,7.384
58,456,7.385
46,407,7.386
7,116,7.387
-52,-147,7.388
-129,-234,7.389
-196,-260,7.39
-201,-350,7.391
-141,-440,7.392
-83,-447,7.393
-58,-416,7.394
-10,-436,7.395
116,-484,7.396
237,-550,7.397
218,-653,7.398
83,-711,7.399
-10,-556,7.4
20,-165,7.401
90,274,7.402
115,580,7.403
108,728,7.404
103,758,7.405
75,671,7.406
7,504,7.407
-54,342,7.408
-58,219,7.409
5,90,7.41
112,-49,7.411
204,-146,7.412
216,-179,7.413
145,-203,7.414
75,-231,7.415
28,-224,7.416
48,-173,7.417
65,-119,7.418
69,-99,7.419
53,-151,7.42
-22,-371,7.421
-107,-796,7.422
-220,-1165,7.423
-278,-1015,7.424
-164,-209,7.425
-100,772,7.426
-188,1288,7.427
-250,1198,7.428
-234,852,7.429
-202,554,7.43
-123,319,7.431
-100,149,7.432
-244,140,7.433
-347,225,7.434
-179,188,7.435
138,110,7.436
349,-87,7.437
339,-197,7.438
234,-41,7.439
228,84,7.44
369,116,7.441
517,101,7.442
519,-56,7.443
368,-226,7.444
181,-426,7.445
29,-526,7.446
-114,-327,7.447
-252,-181,7.448
-292,-196,7.449
-171,-251,7.45
8,-425,7.451
62,-480,7.452
-37,-173,7.453
-165,146,7.454
-141,350,7.455
-48,272,7.456
-26,112,7.457
-73,12,7.458
-76,-137,7.459
0,-412,7.46
46,-573,7.461
-29,-324,7.462
-181,209,7.463
-298,551,7.464
-340,503,7.465
-319,366,7.466
-234,431,7.467
-106,556,7.468
-25,489,7.469
-71,294,7.47
-190,180,7.471
-228,147,7.472
-113,96,7.473
108,83,7.474
293,197,7.475
365,272,7.476
392,147,7.477
460,-56,7.478
531,-153,7.479
500,-170,7.48
383,-247,7.481
308,-376,7.482
285,-469,7.483
164,-514,7.484
-107,-533,7.485
-368,-511,7.486
-454,-456,7.487
-365,-384,7.488
-181,-233,7.489
17,58,7.49
131,379,7.491
93,534,7.492
-4,494,7.493
-49,345,7.494
-87,151,7.495
-256,-58,7.496
-490,-174,7.497
-552,-108,7.498
-390,27,7.499
-207,56,7.5
-150,1,7.501
-108,0,7.502
90,65,7.503
436,95,7.504
741,78,7.505
828,59,7.506
679,1,7.507
403,-141,7.508
92,-269,7.509
-231,-233,7.51
-480,-57,7.511
-480,82,7.512
-207,85,7.513
139,7,7.514
247,-33,7.515
90,-11,7.516
-77,-10,7.517
-99,-90,7.518
-71,-195,7.519
-94,-192,7.52
-111,-54,7.521
-53,98,7.522
5,165,7.523
-44,210,7.524
-174,316,7.525
-273,412,7.526
-278,355,7.527
-201,155,7.528
-83,-25,7.529
22,-91,7.53
79,-100,7.531
109,-131,7.532
152,-167,7.533
194,-167,7.534
177,-138,7.535
109,-140,7.536
87,-222,7.537
172,-332,7.538
287,-340,7.539
282,-143,7.54
94,199,7.541
-177,483,7.542
-362,551,7.543
-374,422,7.544
-270,207,7.545
-148,-10,7.546
-26,-180,7.547
139,-262,7.548
331,-261,7.549
432,-229,7.55
320,-180,7.551
21,-73,7.552
-257,73,7.553
-366,169,7.554
-300,107,7.555
-197,-113,7.556
-91,-406,7.557
112,-626,7.558
367,-579,7.559
412,-151,7.56
125,476,7.561
-225,912,7.562
-287,961,7.563
-63,790,7.564
130,628,7.565
103,472,7.566
-33,228,7.567
-84,-32,7.568
-18,-163,7.569
40,-166,7.57
-7,-156,7.571
-132,-185,7.572
-201,-214,7.573
-99,-231,7.574
159,-243,7.575
395,-245,7.576
439,-219,7.577
313,-195,7.578
166,-180,7.579
67,-169,7.58
-30,-167,7.581
-132,-160,7.582
-155,-138,7.583
-75,-117,7.584
7,-102,7.585
-11,-84,7.586
-106,-54,7.587
-157,-24,7.588
-80,6,7.589
63,28,7.59
101,21,7.591
-63,21,7.592
-293,41,7.593
-405,52,7.594
-355,22,7.595
-292,2,7.596
-283,4,7.597
-181,9,7.598
116,11,7.599
467,18,7.6
658,44,7.601
640,86,7.602
505,124,7.603
317,122,7.604
89,69,7.605
-167,0,7.606
-418,-35,7.607
-589,-36,7.608
-584,-20,7.609
-399,9,7.61
-175,43,7.611
-46,40,7.612
-8,-14,7.613
-13,-97,7.614
-54,-139,7.615
-82,-117,7.616
-69,-68,7.617
-2,-36,7.618
224,-58,7.619
431,-112,7.62
579,-112,7.621
623,4,7.622
353,178,7.623
115,280,7.624
-29,262,7.625
-142,172,7.626
-162,43,7.627
-181,-119,7.628
-198,-218,7.629
-158,-127,7.63
55,105,7.631
192,263,7.632
98,242,7.633
21,152,7.634
52,138,7.635
122,163,7.636
125,113,7.637
75,16,7.638
12,-13,7.639
-72,44,7.64
-182,100,7.641
-233,100,7.642
-127,61,7.643
75,1,7.644
183,-74,7.645
101,-136,7.646
-31,-156,7.647
-54,-161,7.648
-54,-192,7.649
-252,-216,7.65
-627,-170,7.651
-840,-70,7.652
-655,3,7.653
-144,22,7.654
343,26,7.655
553,34,7.656
503,10,7.657
324,-49,7.658
132,-93,7.659
2,-93,7.66
-49,-76,7.661
-85,-66,7.662
-167,-46,7.663
-231,-4,7.664
-158,36,7.665
50,56,7.666
252,61,7.667
333,45,7.668
281,-2,7.669
116,-53,7.67
-102,-60,7.671
-199,-26,7.672
-37,7,7.673
334,28,7.674
624,40,7.675
610,41,7.676
346,31,7.677
11,32,7.678
-268,43,7.679
-436,24,7.68
-476,-28,7.681
-421,-64,7.682
-323,-53,7.683
-212,-34,7.684
-107,-35,7.685
-33,-30,7.686
19,1,7.687
86,11,7.688
160,-25,7.689
175,-59,7.69
87,-42,7.691
-69,-6,7.692
-214,-5,7.693
-262,-29,7.694
-179,-22,7.695
-63,19,7.696
150,28,7.697
335,-43,7.698
431,-160,7.699
448,-226,7.7
230,-159,7.701
62,33,7.702
43,251,7.703
12,377,7.704
-49,365,7.705
-92,258,7.706
-74,141,7.707
-75,73,7.708
-136,53,7.709
-182,45,7.71
-182,19,7.711
-198,-7,7.712
-262,-16,7.713
-336,-19,7.714
-339,-21,7.715
-124,-11,7.716
135,40,7.717
193,65,7.718
63,10,7.719
-7,-61,7.72
133,-179,7.721
349,-263,7.722
404,-245,7.723
270,-182,7.724
109,15,7.725
7,182,7.726
-87,255,7.727
-161,287,7.728
-110,189,7.729
62,93,7.73
212,0,7.731
261,-76,7.732
257,-101,7.733
180,-108,7.734
-4,-47,7.735
-192,10,7.736
-212,34,7.737
-111,21,7.738
-90,-28,7.739
-164,-75,7.74
-157,-79,7.741
-53,-45,7.742
-35,-20,7.743
-143,-24,7.744
-190,-35,7.745
-87,-47,7.746
-6,-71,7.747
-84,-103,7.748
-225,-118,7.749
-258,-107,7.75
-144,-77,7.751
62,-38,7.752
280,-1,7.753
443,13,7.754
448,6,7.755
308,3,7.756
146,11,7.757
19,11,7.758
-97,-2,7.759
-188,-5,7.76
-175,12,7.761
-65,27,7.762
46,11,7.763
125,-19,7.764
193,-40,7.765
177,-47,7.766
-27,-42,7.767
-307,-23,7.768
-391,1,7.769
-221,18,7.77
-39,31,7.771
-9,49,7.772
-21,68,7.773
23,63,7.774
42,38,7.775
41,11,7.776
-20,-6,7.777
-49,-18,7.778
28,-34,7.779
79,-40,7.78
53,-33,7.781
38,-22,7.782
57,-10,7.783
68,12,7.784
53,51,7.785
22,79,7.786
-55,71,7.787
-101,41,7.788
-49,19,7.789
9,13,7.79
82,8,7.791
114,-3,7.792
18,0,7.793
-86,21,7.794
-173,46,7.795
-180,63,7.796
-110,55,7.797
3,47,7.798
152,40,7.799
328,32,7.8
451,21,7.801
410,11,7.802
213,8,7.803
28,2,7.804
-7,-14,7.805
23,-34,7.806
-35,-65,7.807
-143,-84,7.808
-132,-64,7.809
-3,-40,7.81
43,-4,7.811
-70,19,7.812
-173,1,7.813
-140,-21,7.814
-93,-60,7.815
-135,-94,7.816
-163,-99,7.817
-88,-62,7.818
2,-6,7.819
5,32,7.82
-27,52,7.821
-10,69,7.822
26,73,7.823
21,44,7.824
-5,-3,7.825
-5,-39,7.826
4,-57,7.827
-5,-69,7.828
-19,-66,7.829
-16,-24,7.83
-20,49,7.831
-51,107,7.832
-96,113,7.833
-144,82,7.834
-168,65,7.835
-136,65,7.836
-33,50,7.837
96,22,7.838
190,1,7.839
219,-2,7.84
181,0,7.841
91,-5,7.842
0,-14,7.843
-20,-25,7.844
42,-34,7.845
111,-35,7.846
116,-29,7.847
80,-26,7.848
61,-29,7.849
68,-32,7.85
61,-25,7.851
20,-19,7.852
-50,-18,7.853
-154,-23,7.854
-262,-24,7.855
-319,-21,7.856
-221,-23,7.857
-92,-15,7.858
129,-2,7.859
298,9,7.86
304,10,7.861
268,2,7.862
100,-4,7.863
-7,-2,7.864
70,10,7.865
128,20,7.866
123,9,7.867
114,-18,7.868
92,-44,7.869
47,-51,7.87
-70,-42,7.871
-150,-24,7.872
-116,-6,7.873
-76,-4,7.874
-70,-16,7.875
-107,-25,7.876
-93,-23,7.877
-58,-17,7.878
-90,2,7.879
-148,22,7.88
-138,42,7.881
-69,54,7.882
-17,39,7.883
15,24,7.884
57,12,7.885
84,6,7.886
72,20,7.887
53,30,7.888
53,24,7.889
32,19,7.89
-21,19,7.891
-50,17,7.892
-32,12,7.893
-29,0,7.894
-75,-35,7.895
-124,-59,7.896
-129,-52,7.897
-108,-21,7.898
-77,5,7.899
0,13,7.9
118,4,7.901
213,-10,7.902
238,-13,7.903
209,3,7.904
141,30,7.905
30,43,7.906
-72,32,7.907
-90,19,7.908
-30,33,7.909
20,58,7.91
15,50,7.911
0,-3,7.912
7,-58,7.913
3,-85,7.914
-40,-80,7.915
-100,-59,7.916
-134,-31,7.917
-128,17,7.918
-83,78,7.919
-18,122,7.92
6,122,7.921
-42,75,7.922
-102,17,7.923
-74,-5,7.924
44,18,7.925
154,44,7.926
198,31,7.927
225,-2,7.928
276,-10,7.929
283,2,7.93
175,-6,7.931
18,-46,7.932
-53,-79,7.933
-20,-86,7.934
18,-72,7.935
-18,-57,7.936
-72,-39,7.937
-65,-26,7.938
-11,-30,7.939
18,-32,7.94
4,-26,7.941
-23,-22,7.942
-44,-20,7.943
-56,-18,7.944
-50,-16,7.945
-32,-6,7.946
-24,25,7.947
-44,53,7.948
-84,70,7.949
-129,77,7.95
-163,50,7.951
-156,27,7.952
-90,15,7.953
15,0,7.954
101,-19,7.955
133,-23,7.956
123,-6,7.957
78,5,7.958
4,-13,7.959
-50,-48,7.96
-41,-66,7.961
2,-55,7.962
10,-34,7.963
-20,-23,7.964
-28,-30,7.965
5,-46,7.966
31,-52,7.967
0,-35,7.968
-76,-7,7.969
-154,1,7.97
-174,-25,7.971
-96,-69,7.972
37,-88,7.973
140,-58,7.974
165,11,7.975
152,80,7.976
149,110,7.977
111,104,7.978
0,76,7.979
-105,47,7.98
-102,34,7.981
-10,44,7.982
61,61,7.983
66,64,7.984
60,51,7.985
76,41,7.986
91,38,7.987
70,25,7.988
21,-1,7.989
-24,-22,7.99
-46,-28,7.991
-40,-38,7.992
-29,-52,7.993
-47,-59,7.994
-87,-41,7.995
-114,-13,7.996
-100,-1,7.997
-69,-2,7.998
12,-5,7.999
73,-8,8.0
77,-12,8.001
72,-11,8.002
41,-1,8.003
9,9,8.004
-23,10,8.005
-42,4,8.006
-20,-3,8.007
1,-14,8.008
18,-33,8.009
34,-45,8.01
44,-31,8.011
50,3,8.012
38,34,8.013
23,-32,8.014
10,-21,8.015
4,-12,8.016
-3,-6,8.017
-1,0,8.018
22,3,8.019
40,9,8.02
20,21,8.021
-18,36,8.022
-30,55,8.023
-20,56,8.024
-29,-1,8.025
-61,-48,8.026
-86,-59,8.027
-85,-57,8.028
-74,-9,8.029
-63,24,8.03
-50,20,8.031
-23,16,8.032
14,18,8.033
45,-26,8.034
65,-17,8.035
81,-9,8.036
81,-5,8.037
70,0,8.038
28,2,8.039
12,7,8.04
76,17,8.041
118,29,8.042
91,45,8.043
61,46,8.044
19,-1,8.045
-17,-39,8.046
-38,-48,8.047
-71,-46,8.048
-140,-7,8.049
-179,20,8.05
-129,16,8.051
-75,13,8.052
-8,15,8.053
64,-13,8.054
136,-9,8.055
180,-5,8.056
185,-2,8.057
141,0,8.058
52,1,8.059
-31,4,8.06
-59,9,8.061
-36,15,8.062
-22,23,8.063
-37,23,8.064
-44,0,8.065
-23,-20,8.066
-3,-25,8.067
-12,-24,8.068
-31,-4,8.069
-33,10,8.07
-24,8,8.071
-24,7,8.072
-29,7,8.073
-35,-17,8.074
-37,-11,8.075
-40,-6,8.076
-40,-3,8.077
-34,0,8.078
-14,1,8.079
2,5,8.08
10,11,8.081
19,19,8.082
31,30,8.083
40,30,8.084
39,0,8.085
30,-26,8.086
-2,-32,8.087
-29,-31,8.088
-44,-5,8.089
-46,13,8.09
-7,10,8.091
28,9,8.092
52,10,8.093
67,-40,8.094
49,-27,8.095
31,-15,8.096
23,-8,8.097
15,-1,8.098
4,4,8.099
0,12,8.1
-2,27,8.101
-8,45,8.102
-17,69,8.103
-12,70,8.104
6,-2,8.105
24,-60,8.106
28,-74,8.107
21,-71,8.108
14,-12,8.109
8,31,8.11
3,25,8.111
0,21,8.112
0,23,8.113
-2,22,8.114
-6,2,8.115
-11,0,8.116
-15,12,8.117
-16,13,8.118
-7,4,8.119
11,6,8.12
26,17,8.121
30,17,8.122
20,2,8.123
10,-6,8.124
6,-4,8.125
7,-7,8.126
9,-16,8.127
7,-21,8.128
-1,-14,8.129
-10,-9,8.13
-16,-6,8.131
-14,-2,8.132
-12,0,8.133
-15,-3,8.134
-18,-7,8.135
-12,-1,8.136
3,1,8.137
16,-4,8.138
11,-11,8.139
-6,-11,8.14
-22,-9,8.141
-23,-8,8.142
-14,-5,8.143
-5,1,8.144
0,4,8.145
11,-4,8.146
27,-11,8.147
36,-9,8.148
27,-6,8.149
13,-10,8.15
3,-12,8.151
1,-5,8.152
0,2,8.153
-4,-4,8.154
-3,-10,8.155
-2,-9,8.156
-3,-9,8.157
-3,-12,8.158
2,-6,8.159
11,12,8.16
12,26,8.161
11,14,8.162
15,-3,8.163
21,1,8.164
22,28,8.165
16,44,8.166
17,32,8.167
31,26,8.168
53,54,8.169
62,85,8.17
34,45,8.171
-45,-72,8.172
-135,-179,8.173
-188,-179,8.174
-143,-51,8.175
-29,114,8.176
71,210,8.177
108,208,8.178
99,131,8.179
83,-7,8.18
59,-192,8.181
15,-346,8.182
-36,-371,8.183
-72,-244,8.184
-86,-63,8.185
-85,76,8.186
-58,177,8.187
-7,264,8.188
46,270,8.189
76,113,8.19
83,-117,8.191
73,-214,8.192
54,-131,8.193
24,-3,8.194
-3,28,8.195
-16,-2,8.196
-17,4,8.197
-10,44,8.198
0,57,8.199
5,43,8.2
0,44,8.201
-8,53,8.202
-9,43,8.203
-2,32,8.204
3,39,8.205
2,47,8.206
-1,35,8.207
-1,21,8.208
2,23,8.209
6,23,8.21
7,18,8.211
3,34,8.212
1,56,8.213
-1,22,8.214
-3,-67,8.215
-7,-128,8.216
-12,-102,8.217
-14,-39,8.218
-4,-15,8.219
4,-30,8.22
9,-31,8.221
14,-16,8.222
17,-17,8.223
19,-32,8.224
17,-29,8.225
15,10,8.226
11,110,8.227
6,304,8.228
3,518,8.229
2,519,8.23
6,158,8.231
9,-367,8.232
5,-655,8.233
0,-569,8.234
0,-344,8.235
0,-166,8.236
-2,-128,8.237
-6,-86,8.238
-8,-29,8.239
-8,9,8.24
-9,-8,8.241
-10,-14,8.242
-10,19,8.243
-10,49,8.244
-10,61,8.245
-6,81,8.246
0,122,8.247
3,147,8.248
1,118,8.249
0,89,8.25
2,63,8.251
4,35,8.252
5,-1,8.253
3,-30,8.254
3,-27,8.255
2,-15,8.256
0,5,8.257
-3,51,8.258
-4,92,8.259
-4,78,8.26
0,11,8.261
7,-39,8.262
22,-17,8.263
34,19,8.264
35,-24,8.265
34,-136,8.266
26,-189,8.267
16,-93,8.268
-1,78,8.269
-17,172,8.27
-27,118,8.271
-34,-23,8.272
-31,-133,8.273
-28,-143,8.274
-17,-73,8.275
-12,-14,8.276
-12,14,8.277
-8,40,8.278
8,64,8.279
22,75,8.28
25,48,8.281
15,40,8.282
8,96,8.283
12,169,8.284
16,294,8.285
12,313,8.286
3,14,8.287
6,-251,8.288
17,-419,8.289
22,-476,8.29
17,-200,8.291
9,2,8.292
9,-15,8.293
11,-23,8.294
4,32,8.295
-6,58,8.296
-12,9,8.297
-12,-1,8.298
-9,65,8.299
-8,109,8.3
-10,81,8.301
-15,50,8.302
-11,48,8.303
-1,30,8.304
7,-3,8.305
9,-3,8.306
7,22,8.307
7,15,8.308
11,-12,8.309
13,-8,8.31
12,15,8.311
10,4,8.312
6,-35,8.313
0,-63,8.314
-2,-60,8.315
2,-47,8.316
3,-32,8.317
0,0,8.318
0,35,8.319
5,45,8.32
8,46,8.321
7,83,8.322
9,182,8.323
17,284,8.324
22,273,8.325
15,90,8.326
3,-146,8.327
1,-229,8.328
2,-115,8.329
-3,13,8.33
-9,-15,8.331
-15,-151,8.332
-17,-246,8.333
-23,-250,8.334
-26,-179,8.335
-21,-66,8.336
-10,26,8.337
1,31,8.338
10,-38,8.339
18,-76,8.34
17,-34,8.341
9,15,8.342
1,23,8.343
3,86,8.344
6,292,8.345
2,546,8.346
-1,626,8.347
0,401,8.348
7,-37,8.349
12,-448,8.35
14,-624,8.351
18,-536,8.352
23,-334,8.353
25,74,8.354
23,92,8.355
16,97,8.356
7,60,8.357
-1,18,8.358
-4,-38,8.359
-7,-106,8.36
-20,-202,8.361
-41,-246,8.362
-57,-129,8.363
-55,-30,8.364
-43,12,8.365
-30,52,8.366
-18,81,8.367
-1,95,8.368
19,65,8.369
30,30,8.37
33,-18,8.371
34,-55,8.372
37,-53,8.373
33,305,8.374
23,374,8.375
6,392,8.376
-10,253,8.377
-18,95,8.378
-11,-118,8.379
4,-369,8.38
15,-730,8.381
13,-893,8.382
15,-457,8.383
22,-88,8.384
29,74,8.385
28,224,8.386
25,332,8.387
24,385,8.388
19,273,8.389
8,142,8.39
1,-43,8.391
1,-181,8.392
2,-173,8.393
-1,-134,8.394
-2,-5,8.395
-3,54,8.396
-9,23,8.397
-20,-5,8.398
-27,-8,8.399
-31,-51,8.4
-40,-104,8.401
-42,-67,8.402
-22,31,8.403
10,63,8.404
21,36,8.405
13,71,8.406
13,186,8.407
34,250,8.408
55,195,8.409
56,95,8.41
47,32,8.411
40,4,8.412
35,-2,8.413
23,51,8.414
13,183,8.415
1,285,8.416
-19,187,8.417
-35,-114,8.418
-36,-436,8.419
-34,-619,8.42
-20,-672,8.421
-10,-641,8.422
-10,-497,8.423
-17,-233,8.424
-49,19,8.425
-74,144,8.426
-78,185,8.427
-72,237,8.428
-32,276,8.429
-2,248,8.43
-5,193,8.431
-9,190,8.432
-13,235,8.433
-22,281,8.434
-27,291,8.435
10,257,8.436
76,91,8.437
105,-18,8.438
84,47,8.439
65,34,8.44
64,-219,8.441
51,-425,8.442
13,-488,8.443
-10,-474,8.444
3,-226,8.445
27,-26,8.446
41,23,8.447
52,79,8.448
53,147,8.449
27,193,8.45
-8,174,8.451
-21,228,8.452
-19,502,8.453
-40,790,8.454
-72,1016,8.455
-72,842,8.456
-43,118,8.457
-27,-740,8.458
-34,-1080,8.459
-25,-812,8.46
12,-464,8.461
46,-375,8.462
51,-326,8.463
41,-111,8.464
35,83,8.465
29,108,8.466
15,166,8.467
-1,391,8.468
-11,503,8.469
-19,225,8.47
-20,-168,8.471
-6,-139,8.472
16,305,8.473
4,597,8.474
12,190,8.475
18,-614,8.476
15,-915,8.477
14,-358,8.478
22,371,8.479
30,423,8.48
33,-168,8.481
33,-673,8.482
25,-662,8.483
16,-360,8.484
5,-108,8.485
-1,48,8.486
1,180,8.487
-1,250,8.488
-16,223,8.489
-28,190,8.49
-31,229,8.491
-34,291,8.492
-32,284,8.493
4,-571,8.494
16,-980,8.495
24,-1165,8.496
20,-681,8.497
18,-263,8.498
29,-41,8.499
39,134,8.5
43,164,8.501
44,186,8.502
33,183,8.503
21,215,8.504
6,354,8.505
-4,423,8.506
-1,275,8.507
-3,100,8.508
-23,-152,8.509
-40,-307,8.51
-44,-159,8.511
-47,-32,8.512
-45,28,8.513
-43,-548,8.514
-26,-936,8.515
2,-1112,8.516
29,-653,8.517
42,-256,8.518
38,-44,8.519
22,122,8.52
8,150,8.521
3,171,8.522
3,168,8.523
-1,199,8.524
-5,331,8.525
4,396,8.526
17,256,8.527
10,90,8.528
-35,-151,8.529
-112,-298,8.53
-181,-157,8.531
-205,-36,8.532
-169,21,8.533
109,86,8.534
54,138,8.535
6,71,8.536
-22,-39,8.537
-22,-25,8.538
65,93,8.539
131,149,8.54
120,95,8.541
103,32,8.542
76,14,8.543
48,-2,8.544
37,-35,8.545
16,-33,8.546
-27,19,8.547
-55,72,8.548
-16,106,8.549
0,152,8.55
-55,166,8.551
-110,19,8.552
-159,-267,8.553
101,107,8.554
51,82,8.555
6,35,8.556
-19,-80,8.557
-19,-139,8.558
61,-29,8.559
122,72,8.56
112,144,8.561
96,159,8.562
71,-1,8.563
46,-130,8.564
36,-164,8.565
16,-229,8.566
-24,-384,8.567
-49,-504,8.568
-14,-515,8.569
1,-512,8.57
-49,-462,8.571
-100,-361,8.572
-145,-107,8.573
33,594,8.574
23,521,8.575
14,387,8.576
9,56,8.577
9,-115,8.578
25,201,8.579
37,492,8.58
35,699,8.581
32,743,8.582
27,281,8.583
22,-90,8.584
20,-191,8.585
16,-376,8.586
8,-823,8.587
3,-1169,8.588
10,-1201,8.589
13,-1194,8.59
3,-1049,8.591
-7,-758,8.592
-16,-24,8.593
-25,54,8.594
-26,34,8.595
-26,-3,8.596
-24,-94,8.597
-17,-141,8.598
-5,-54,8.599
3,26,8.6
2,83,8.601
-3,95,8.602
-3,-32,8.603
5,-134,8.604
10,-162,8.605
7,-213,8.606
4,-336,8.607
7,-431,8.608
9,-440,8.609
1,-438,8.61
-15,-398,8.611
-36,-318,8.612
-63,-116,8.613
-87,114,8.614
-77,346,8.615
-35,308,8.616
14,94,8.617
42,8,8.618
37,145,8.619
14,278,8.62
-1,211,8.621
14,30,8.622
55,-89,8.623
85,-128,8.624
81,-130,8.625
63,-61,8.626
66,63,8.627
85,115,8.628
92,15,8.629
78,-140,8.63
57,-219,8.631
38,-168,8.632
19,-11,8.633
-2,166,8.634
-15,140,8.635
-27,-149,8.636
-35,-368,8.637
-39,-193,8.638
-31,116,8.639
-25,66,8.64
-28,-257,8.641
-31,-315,8.642
-34,-36,8.643
-37,124,8.644
-41,108,8.645
-42,424,8.646
-35,1105,8.647
-28,1406,8.648
-22,914,8.649
-15,199,8.65
-4,-127,8.651
6,-243,8.652
16,-456,8.653
24,-550,8.654
26,-224,8.655
16,134,8.656
2,-104,8.657
-8,-815,8.658
-16,-1223,8.659
-26,-840,8.66
-38,36,8.661
-42,670,8.662
-30,582,8.663
-16,49,8.664
-8,-151,8.665
2,291,8.666
32,792,8.667
70,738,8.668
75,385,8.669
10,312,8.67
-113,431,8.671
-232,252,8.672
-262,-185,8.673
-137,-508,8.674
47,-567,8.675
167,-547,8.676
179,-459,8.677
153,-170,8.678
169,162,8.679
211,254,8.68
211,131,8.681
157,-23,8.682
86,-233,8.683
25,-513,8.684
-19,-593,8.685
-30,-302,8.686
-8,40,8.687
9,48,8.688
-9,-160,8.689
-37,-183,8.69
-40,78,8.691
-25,410,8.692
-19,634,8.693
-24,629,8.694
-26,326,8.695
-28,-29,8.696
-36,-543,8.697
-50,-954,8.698
-71,-1058,8.699
-99,-1029,8.7
-121,-601,8.701
-109,-125,8.702
-63,488,8.703
-27,945,8.704
-34,925,8.705
-66,917,8.706
-79,945,8.707
-57,870,8.708
-5,488,8.709
58,155,8.71
109,-29,8.711
136,-260,8.712
143,-632,8.713
139,-977,8.714
129,-920,8.715
115,-333,8.716
103,155,8.717
88,-52,8.718
54,-647,8.719
7,-678,8.72
-29,161,8.721
-37,1024,8.722
-30,1036,8.723
-43,439,8.724
-107,25,8.725
-212,-63,8.726
-277,-303,8.727
-209,-834,8.728
-32,-1264,8.729
109,-1226,8.73
115,-607,8.731
53,470,8.732
35,1479,8.733
41,1856,8.734
9,1372,8.735
-12,785,8.736
4,576,8.737
45,568,8.738
157,475,8.739
242,346,8.74
245,239,8.741
203,20,8.742
25,-299,8.743
-113,-477,8.744
-131,-472,8.745
-134,-517,8.746
-90,-684,8.747
-50,-758,8.748
-25,-649,8.749
0,-503,8.75
21,-416,8.751
41,-323,8.752
56,-234,8.753
67,-53,8.754
38,-3,8.755
-20,22,8.756
-67,-27,8.757
-87,-75,8.758
-90,-110,8.759
-81,-163,8.76
-59,-267,8.761
-44,-305,8.762
-47,-144,8.763
-57,-43,8.764
-58,-118,8.765
-50,-237,8.766
-29,-486,8.767
2,-536,8.768
24,14,8.769
12,458,8.77
-21,586,8.771
-44,635,8.772
-47,445,8.773
-53,-61,8.774
-71,1,8.775
-88,33,8.776
-82,-29,8.777
-44,-88,8.778
22,-132,8.779
96,-197,8.78
150,-325,8.781
182,-372,8.782
206,-174,8.783
201,-49,8.784
113,-142,8.785
-55,-289,8.786
-198,-596,8.787
-200,-657,8.788
-77,22,8.789
42,571,8.79
77,729,8.791
77,789,8.792
124,555,8.793
193,387,8.794
198,459,8.795
179,496,8.796
85,444,8.797
25,383,8.798
65,319,8.799
84,214,8.8
35,93,8.801
-13,12,8.802
-57,-42,8.803
-91,-121,8.804
-91,-223,8.805
-109,-298,8.806
-181,-310,8.807
-238,-269,8.808
-252,-204,8.809
-264,-154,8.81
-266,-133,8.811
-242,-129,8.812
-136,-131,8.813
-8,-161,8.814
175,-225,8.815
310,-279,8.816
394,-270,8.817
433,-195,8.818
409,-106,8.819
306,-55,8.82
138,-64,8.821
-49,-113,8.822
-185,-132,8.823
-201,-54,8.824
-101,90,8.825
23,211,8.826
80,259,8.827
65,263,8.828
32,228,8.829
-18,120,8.83
-130,-38,8.831
-277,-165,8.832
-343,-241,8.833
-219,-335,8.834
10,-394,8.835
193,-250,8.836
228,100,8.837
129,354,8.838
0,233,8.839
-58,-101,8.84
-43,-225,8.841
-31,17,8.842
-68,366,8.843
-102,539,8.844
-60,530,8.845
53,470,8.846
154,387,8.847
168,248,8.848
92,95,8.849
-19,11,8.85
-107,-26,8.851
-135,-127,8.852
-94,-293,8.853
-6,-404,8.854
61,-300,8.855
56,-37,8.856
12,148,8.857
8,128,8.858
57,6,8.859
87,-33,8.86
46,30,8.861
-23,83,8.862
-55,50,8.863
-46,-36,8.864
-48,-112,8.865
-69,-149,8.866
-92,-168,8.867
-127,-226,8.868
-195,-338,8.869
-252,-412,8.87
-220,-330,8.871
-129,-102,8.872
-106,120,8.873
-132,256,8.874
-33,312,8.875
114,324,8.876
403,273,8.877
572,163,8.878
380,51,8.879
232,-12,8.88
221,-44,8.881
170,-87,8.882
4,-146,8.883
-137,-198,8.884
-201,-206,8.885
-202,-127,8.886
-10,36,8.887
148,203,8.888
201,268,8.889
219,207,8.89
129,80,8.891
45,-51,8.892
-22,-160,8.893
-79,-310,8.894
-85,-541,8.895
-66,-751,8.896
-47,-896,8.897
-32,-864,8.898
-7,-298,8.899
-2,250,8.9
-87,749,8.901
-234,992,8.902
-309,465,8.903
-237,-87,8.904
-110,-715,8.905
-34,-1051,8.906
19,-509,8.907
124,117,8.908
257,999,8.909
313,1660,8.91
244,1657,8.911
101,1512,8.912
-19,941,8.913
-84,406,8.914
-92,142,8.915
-68,69,8.916
-37,29,8.917
-4,16,8.918
21,13,8.919
18,-76,8.92
-34,-245,8.921
-121,-359,8.922
-171,-363,8.923
-115,-351,8.924
29,-382,8.925
161,-405,8.926
206,-387,8.927
200,-358,8.928
187,-312,8.929
121,-224,8.93
-50,-145,8.931
-252,-151,8.932
-360,-207,8.933
-375,-237,8.934
-377,-231,8.935
-362,-252,8.936
-211,-289,8.937
99,-276,8.938
391,-204,8.939
466,-108,8.94
325,2,8.941
121,107,8.942
-31,147,8.943
-124,83,8.944
-185,-38,8.945
-200,-120,8.946
-143,-115,8.947
-31,-26,8.948
58,104,8.949
72,203,8.95
52,197,8.951
68,99,8.952
103,18,8.953
85,22,8.954
27,90,8.955
41,144,8.956
164,155,8.957
268,155,8.958
234,137,8.959
114,68,8.96
32,-29,8.961
0,-90,8.962
-42,-93,8.963
-67,-82,8.964
8,-85,8.965
149,-78,8.966
198,-41,8.967
69,20,8.968
-118,89,8.969
-185,139,8.97
-127,129,8.971
-116,36,8.972
-243,-70,8.973
-402,-84,8.974
-384,12,8.975
-187,79,8.976
-22,61,8.977
22,20,8.978
106,-92,8.979
333,-166,8.98
509,-122,8.981
410,-70,8.982
124,0,8.983
-68,96,8.984
-51,269,8.985
62,351,8.986
144,154,8.987
145,-39,8.988
33,-219,8.989
-200,-281,8.99
-433,10,8.991
-486,270,8.992
-342,436,8.993
-131,534,8.994
3,351,8.995
70,116,8.996
169,-41,8.997
294,-100,8.998
318,-105,8.999
154,-67,9.0
-119,6,9.001
-344,47,9.002
-447,-4,9.003
-448,-101,9.004
-343,-149,9.005
-97,-139,9.006
236,-136,9.007
489,-164,9.008
546,-173,9.009
465,-144,9.01
357,-112,9.011
231,-111,9.012
102,-120,9.013
69,-113,9.014
219,-87,9.015
348,-59,9.016
169,-44,9.017
-229,-36,9.018
-421,-28,9.019
-257,-19,9.02
-83,-25,9.021
-202,-61,9.022
-429,-107,9.023
-434,-114,9.024
-246,-77,9.025
-127,-35,9.026
-122,-11,9.027
-65,34,9.028
91,138,9.029
214,250,9.03
228,271,9.031
199,179,9.032
193,73,9.033
184,-10,9.034
129,-17,9.035
28,-30,9.036
-77,-63,9.037
-156,-83,9.038
-200,-58,9.039
-220,-46,9.04
-197,-72,9.041
-93,-104,9.042
56,-156,9.043
143,-185,9.044
146,-144,9.045
189,-91,9.046
329,-5,9.047
419,57,9.048
319,41,9.049
122,27,9.05
4,18,9.051
-62,10,9.052
-230,6,9.053
-460,14,9.054
-523,3,9.055
-482,-19,9.056
-127,-75,9.057
189,-108,9.058
389,-67,9.059
514,-47,9.06
414,-91,9.061
273,-145,9.062
14,-232,9.063
-166,-281,9.064
-107,-211,9.065
-103,-122,9.066
-267,23,9.067
-373,126,9.068
-301,100,9.069
-212,76,9.07
-73,61,9.071
71,47,9.072
229,41,9.073
372,31,9.074
379,17,9.075
255,-11,9.076
123,-84,9.077
46,-127,9.078
11,-74,9.079
0,-48,9.08
-14,-104,9.081
-67,-174,9.082
-113,-286,9.083
-88,-348,9.084
-40,-259,9.085
-76,-145,9.086
-171,43,9.087
-210,175,9.088
-193,141,9.089
-229,111,9.09
-312,91,9.091
-319,74,9.092
-213,66,9.093
-42,65,9.094
154,93,9.095
378,85,9.096
544,20,9.097
512,-33,9.098
268,-31,9.099
-29,-16,9.1
-204,-34,9.101
-191,-59,9.102
-31,-53,9.103
144,-41,9.104
194,-53,9.105
103,-76,9.106
4,-82,9.107
5,-82,9.108
52,-91,9.109
42,-94,9.11
6,-71,9.111
64,-31,9.112
223,2,9.113
343,31,9.114
266,57,9.115
32,70,9.116
-159,52,9.117
-190,13,9.118
-125,-51,9.119
-95,-153,9.12
-134,-274,9.121
-209,-353,9.122
-299,-324,9.123
-366,-175,9.124
-328,34,9.125
-160,230,9.126
47,368,9.127
188,456,9.128
251,505,9.129
255,494,9.13
176,401,9.131
38,251,9.132
-48,118,9.133
-45,24,9.134
-43,-36,9.135
-60,-89,9.136
-132,-134,9.137
-178,-143,9.138
-142,-115,9.139
-113,-65,9.14
-110,-26,9.141
-91,-39,9.142
-26,-126,9.143
43,-239,9.144
126,-282,9.145
177,-212,9.146
127,-86,9.147
71,15,9.148
-5,72,9.149
-49,114,9.15
8,154,9.151
59,180,9.152
91,177,9.153
107,117,9.154
37,30,9.155
-53,-38,9.156
-60,-46,9.157
49,-56,9.158
188,-72,9.159
261,-84,9.16
239,-85,9.161
143,-90,9.162
47,-103,9.163
36,-108,9.164
99,-89,9.165
102,-57,9.166
-29,11,9.167
-167,65,9.168
-154,77,9.169
-39,80,9.17
1,54,9.171
-61,31,9.172
-122,13,9.173
-166,-3,9.174
-237,-17,9.175
-299,-34,9.176
-252,-54,9.177
-103,-54,9.178
51,-29,9.179
158,4,9.18
223,17,9.181
234,15,9.182
179,24,9.183
110,49,9.184
84,59,9.185
87,33,9.186
82,2,9.187
77,2,9.188
79,11,9.189
52,-5,9.19
-17,-37,9.191
-76,-49,9.192
-87,-40,9.193
-93,-36,9.194
-143,-47,9.195
-208,-45,9.196
-217,-33,9.197
-175,-15,9.198
-142,4,9.199
-139,35,9.2
-115,64,9.201
-29,70,9.202
90,52,9.203
184,32,9.204
227,25,9.205
228,24,9.206
180,27,9.207
93,35,9.208
20,34,9.209
20,11,9.21
55,-24,9.211
23,-43,9.212
-75,-41,9.213
-134,-44,9.214
-57,-66,9.215
79,-112,9.216
124,-230,9.217
38,-361,9.218
-68,-526,9.219
-79,-584,9.22
17,-317,9.221
137,-27,9.222
192,326,9.223
138,575,9.224
14,505,9.225
-106,437,9.226
-165,378,9.227
-157,356,9.228
-118,450,9.229
-85,493,9.23
-75,382,9.231
-80,265,9.232
-84,130,9.233
-70,9,9.234
-25,-67,9.235
35,-136,9.236
72,-173,9.237
61,-171,9.238
25,-167,9.239
11,-166,9.24
31,-149,9.241
65,-125,9.242
89,-128,9.243
88,-148,9.244
70,-141,9.245
55,-104,9.246
47,-81,9.247
21,-88,9.248
-38,-94,9.249
-91,-80,9.25
-109,-66,9.251
-110,-64,9.252
-115,-60,9.253
-87,-54,9.254
0,-55,9.255
72,-61,9.256
101,-56,9.257
109,-38,9.258
50,-25,9.259
-8,-21,9.26
-60,-9,9.261
-80,20,9.262
0,45,9.263
69,49,9.264
102,31,9.265
118,5,9.266
79,-15,9.267
39,-24,9.268
-1,-17,9.269
-28,-5,9.27
-17,-3,9.271
-9,-12,9.272
-9,-12,9.273
-4,0,9.274
8,18,9.275
-2,29,9.276
-53,36,9.277
-114,43,9.278
-140,36,9.279
-131,8,9.28
-98,-11,9.281
-37,-7,9.282
53,9,9.283
148,12,9.284
221,5,9.285
251,0,9.286
215,0,9.287
110,-7,9.288
-5,-11,9.289
-56,1,9.29
-35,24,9.291
-11,35,9.292
-25,36,9.293
35,27,9.294
16,13,9.295
13,2,9.296
59,-1,9.297
101,9,9.298
128,18,9.299
143,11,9.3
118,-1,9.301
90,-7,9.302
55,-7,9.303
17,-4,9.304
-24,12,9.305
-54,39,9.306
-53,50,9.307
-27,36,9.308
69,13,9.309
159,3,9.31
233,1,9.311
273,-4,9.312
211,-8,9.313
-8,28,9.314
-47,30,9.315
-53,33,9.316
40,37,9.317
125,37,9.318
179,26,9.319
208,12,9.32
158,-13,9.321
103,-35,9.322
31,-48,9.323
-44,-45,9.324
-125,9,9.325
-186,44,9.326
-183,23,9.327
-132,10,9.328
60,16,9.329
241,22,9.33
387,27,9.331
466,29,9.332
343,28,9.333
160,30,9.334
-161,33,9.335
-252,36,9.336
-115,40,9.337
2,40,9.338
-8,28,9.339
-27,11,9.34
4,-17,9.341
-28,-41,9.342
-151,-56,9.343
-205,-53,9.344
-98,8,9.345
47,48,9.346
91,25,9.347
47,9,9.348
2,17,9.349
-20,24,9.35
