Deltoid,Bicep,Time
-20,-1,0.0
-19,-3,0.001
-19,-6,0.002
-12,-5,0.003
0,-1,0.004
11,4,0.005
12,7,0.006
12,6,0.007
15,3,0.008
20,2,0.009
22,2,0.01
21,0,0.011
19,-2,0.012
17,-2,0.013
11,-3,0.014
0,-3,0.015
-15,-5,0.016
-25,-9,0.017
-25,-15,0.018
-16,-13,0.019
-8,-9,0.02
-7,-5,0.021
-8,0,0.022
-4,1,0.023
4,5,0.024
11,5,0.025
12,7,0.026
11,5,0.027
12,3,0.028
17,3,0.029
20,1,0.03
22,0,0.031
21,-1,0.032
18,0,0.033
14,-2,0.034
6,-2,0.035
-5,-3,0.036
-17,-5,0.037
-22,-8,0.038
-18,-7,0.039
-13,-5,0.04
-14,-3,0.041
-15,0,0.042
-8,1,0.043
1,3,0.044
5,3,0.045
6,4,0.046
12,3,0.047
21,2,0.048
26,2,0.049
23,1,0.05
19,0,0.051
18,-1,0.052
16,0,0.053
5,1,0.054
-4,-2,0.055
-9,-7,0.056
-14,-10,0.057
-19,-9,0.058
-20,-7,0.059
-14,-7,0.06
-11,-5,0.061
-14,0,0.062
-12,2,0.063
0,0,0.064
13,1,0.065
15,2,0.066
18,1,0.067
24,-1,0.068
30,0,0.069
25,4,0.07
18,5,0.071
17,1,0.072
18,-5,0.073
11,-8,0.074
0,-7,0.075
-11,-7,0.076
-17,-9,0.077
-22,-7,0.078
-22,-6,0.079
-17,-5,0.08
-12,-3,0.081
-11,0,0.082
-6,1,0.083
3,1,0.084
8,2,0.085
5,6,0.086
7,7,0.087
16,3,0.088
23,0,0.089
22,3,0.09
18,6,0.091
17,3,0.092
15,0,0.093
7,-2,0.094
-1,-3,0.095
-10,-5,0.096
-18,-8,0.097
-25,-9,0.098
-23,-5,0.099
-16,-2,0.1
-10,-1,0.101
-11,-1,0.102
-7,0,0.103
3,1,0.104
13,0,0.105
17,-1,0.106
17,1,0.107
19,3,0.108
23,3,0.109
26,2,0.11
26,3,0.111
24,3,0.112
20,0,0.113
10,-3,0.114
-1,-5,0.115
-11,-8,0.116
-18,-12,0.117
-21,-14,0.118
-18,-8,0.119
-12,-3,0.12
-8,-1,0.121
-10,0,0.122
-8,1,0.123
-1,3,0.124
7,1,0.125
8,0,0.126
8,2,0.127
12,5,0.128
20,5,0.129
24,4,0.13
21,5,0.131
18,6,0.132
15,1,0.133
6,-4,0.134
-5,-5,0.135
-14,-4,0.136
-17,-5,0.137
-17,-6,0.138
-14,-6,0.139
-12,-6,0.14
-9,-6,0.141
-8,-3,0.142
-8,-1,0.143
-1,0,0.144
9,0,0.145
16,1,0.146
18,4,0.147
18,4,0.148
20,3,0.149
22,0,0.15
23,0,0.151
21,0,0.152
18,0,0.153
11,-1,0.154
-1,-3,0.155
-15,-6,0.156
-25,-11,0.157
-25,-10,0.158
-18,-4,0.159
-12,2,0.16
-7,4,0.161
-6,3,0.162
-6,2,0.163
-3,0,0.164
2,0,0.165
8,3,0.166
12,6,0.167
19,3,0.168
25,-1,0.169
28,-1,0.17
22,0,0.171
15,-1,0.172
10,-1,0.173
5,5,0.174
-1,1,0.175
-11,-5,0.176
-20,-11,0.177
-23,-8,0.178
-21,-4,0.179
-15,-2,0.18
-11,-2,0.181
-6,-1,0.182
1,0,0.183
8,-2,0.184
12,-3,0.185
12,-2,0.186
13,0,0.187
17,-1,0.188
21,0,0.189
23,3,0.19
22,5,0.191
21,0,0.192
17,-2,0.193
5,-2,0.194
-6,-1,0.195
-14,-5,0.196
-19,-10,0.197
-20,-10,0.198
-15,-8,0.199
-8,-8,0.2
-7,-6,0.201
-10,-1,0.202
-8,3,0.203
1,3,0.204
8,3,0.205
9,6,0.206
11,10,0.207
17,6,0.208
20,3,0.209
18,6,0.21
18,7,0.211
19,2,0.212
17,-2,0.213
7,-1,0.214
-4,-1,0.215
-12,-3,0.216
-19,-6,0.217
-24,-9,0.218
-21,-7,0.219
-11,-5,0.22
-7,-2,0.221
-10,-1,0.222
-8,-1,0.223
2,-1,0.224
14,-1,0.225
14,-1,0.226
14,1,0.227
20,3,0.228
27,3,0.229
25,3,0.23
18,1,0.231
15,0,0.232
15,-1,0.233
8,-2,0.234
-4,-2,0.235
-17,-4,0.236
-19,-8,0.237
-20,-11,0.238
-17,-9,0.239
-11,-6,0.24
-6,-3,0.241
-6,0,0.242
-7,0,0.243
-3,0,0.244
8,0,0.245
15,0,0.246
19,2,0.247
20,5,0.248
22,5,0.249
22,4,0.25
19,2,0.251
18,1,0.252
14,0,0.253
5,-2,0.254
-6,-3,0.255
-16,-6,0.256
-23,-11,0.257
-25,-9,0.258
-19,-7,0.259
-8,-7,0.26
-3,-7,0.261
-5,-5,0.262
-5,-4,0.263
2,-4,0.264
11,-2,0.265
14,2,0.266
15,4,0.267
20,2,0.268
24,0,0.269
22,0,0.27
17,3,0.271
16,0,0.272
14,-2,0.273
3,-2,0.274
-8,-2,0.275
-16,-3,0.276
-19,-9,0.277
-22,-10,0.278
-22,-7,0.279
-16,-5,0.28
-9,-3,0.281
-8,-3,0.282
-6,-1,0.283
0,2,0.284
9,3,0.285
13,3,0.286
16,2,0.287
20,4,0.288
24,5,0.289
22,5,0.29
20,3,0.291
17,0,0.292
15,-1,0.293
6,-3,0.294
-5,-4,0.295
-16,-6,0.296
-23,-8,0.297
-24,-10,0.298
-21,-8,0.299
-14,-5,0.3
-9,-2,0.301
-10,-1,0.302
-7,-1,0.303
0,-1,0.304
8,0,0.305
12,2,0.306
17,2,0.307
26,1,0.308
31,1,0.309
25,1,0.31
19,3,0.311
19,5,0.312
17,1,0.313
6,-4,0.314
-5,-5,0.315
-13,-7,0.316
-17,-9,0.317
-20,-11,0.318
-21,-9,0.319
-15,-6,0.32
-11,-3,0.321
-8,0,0.322
-4,0,0.323
4,0,0.324
11,1,0.325
14,3,0.326
16,3,0.327
19,2,0.328
21,2,0.329
20,2,0.33
19,4,0.331
16,6,0.332
10,2,0.333
1,-2,0.334
-4,-5,0.335
-10,-7,0.336
-17,-12,0.337
-22,-12,0.338
-17,-7,0.339
-8,-2,0.34
-6,1,0.341
-10,2,0.342
-7,2,0.343
4,0,0.344
12,0,0.345
14,3,0.346
14,4,0.347
18,1,0.348
19,-1,0.349
19,0,0.35
20,5,0.351
20,5,0.352
14,0,0.353
4,-6,0.354
-5,-9,0.355
-14,-8,0.356
-25,-9,0.357
-31,-8,0.358
-23,-9,0.359
-9,-8,0.36
-4,-3,0.361
-7,3,0.362
-4,4,0.363
8,2,0.364
18,3,0.365
18,10,0.366
17,14,0.367
20,11,0.368
25,4,0.369
26,0,0.37
23,0,0.371
18,1,0.372
11,-1,0.373
1,-5,0.374
-8,-6,0.375
-16,-7,0.376
-23,-11,0.377
-27,-13,0.378
-23,-10,0.379
-13,-6,0.38
-4,-2,0.381
-3,2,0.382
-2,1,0.383
3,0,0.384
12,2,0.385
16,4,0.386
16,6,0.387
17,8,0.388
21,6,0.389
22,4,0.39
20,2,0.391
18,0,0.392
13,-1,0.393
7,-4,0.394
-2,-3,0.395
-12,-3,0.396
-20,-8,0.397
-22,-13,0.398
-17,-13,0.399
-9,-6,0.4
-7,0,0.401
-9,5,0.402
-4,4,0.403
7,3,0.404
14,5,0.405
12,8,0.406
9,6,0.407
17,3,0.408
26,3,0.409
24,6,0.41
17,5,0.411
13,1,0.412
11,0,0.413
4,-1,0.414
-5,-3,0.415
-14,-8,0.416
-20,-15,0.417
-21,-11,0.418
-20,-7,0.419
-13,-7,0.42
-7,-5,0.421
-3,0,0.422
0,6,0.423
7,6,0.424
13,1,0.425
14,0,0.426
16,2,0.427
21,3,0.428
26,2,0.429
25,2,0.43
19,1,0.431
16,0,0.432
12,0,0.433
1,-1,0.434
-10,-5,0.435
-19,-9,0.436
-24,-12,0.437
-24,-9,0.438
-20,-4,0.439
-14,-3,0.44
-8,-3,0.441
-6,1,0.442
-2,2,0.443
5,-1,0.444
11,-1,0.445
13,3,0.446
17,9,0.447
22,7,0.448
24,4,0.449
22,4,0.45
18,5,0.451
16,1,0.452
14,-3,0.453
4,-6,0.454
-6,-6,0.455
-16,-7,0.456
-22,-9,0.457
-23,-11,0.458
-16,-8,0.459
-8,-5,0.46
-6,-2,0.461
-7,1,0.462
-1,3,0.463
10,5,0.464
16,3,0.465
16,1,0.466
17,4,0.467
22,6,0.468
25,4,0.469
21,2,0.47
15,1,0.471
13,0,0.472
9,0,0.473
-1,0,0.474
-8,-3,0.475
-15,-7,0.476
-19,-12,0.477
-24,-12,0.478
-20,-7,0.479
-11,-5,0.48
-7,-5,0.481
-9,-4,0.482
-5,-2,0.483
4,0,0.484
12,2,0.485
14,4,0.486
16,7,0.487
22,9,0.488
27,10,0.489
23,9,0.49
18,7,0.491
16,4,0.492
11,3,0.493
-2,-2,0.494
-13,-5,0.495
-18,-5,0.496
-20,-7,0.497
-22,-10,0.498
-19,-12,0.499
-12,-8,0.5
-7,-1,0.501
-7,2,0.502
-4,0,0.503
3,-2,0.504
10,0,0.505
11,3,0.506
14,4,0.507
20,4,0.508
26,4,0.509
25,5,0.51
19,2,0.511
12,-2,0.512
2,-2,0.513
-4,-1,0.514
-9,-3,0.515
-16,-6,0.516
-23,-10,0.517
-26,-9,0.518
-19,-6,0.519
-8,-2,0.52
-5,1,0.521
-8,3,0.522
-3,4,0.523
8,2,0.524
16,1,0.525
16,1,0.526
17,2,0.527
23,1,0.528
26,1,0.529
23,1,0.53
19,0,0.531
16,0,0.532
12,-1,0.533
3,-3,0.534
-7,-3,0.535
-17,-5,0.536
-21,-10,0.537
-19,-13,0.538
-12,-9,0.539
-5,-4,0.54
-4,1,0.541
-5,6,0.542
-1,4,0.543
5,3,0.544
11,2,0.545
12,2,0.546
17,6,0.547
24,10,0.548
29,9,0.549
24,7,0.55
17,3,0.551
12,-1,0.552
10,-2,0.553
1,-3,0.554
-8,-5,0.555
-19,-6,0.556
-25,-8,0.557
-27,-7,0.558
-22,-8,0.559
-13,-7,0.56
-5,-2,0.561
-1,0,0.562
3,-1,0.563
8,-2,0.564
13,1,0.565
16,4,0.566
20,4,0.567
25,2,0.568
24,2,0.569
21,2,0.57
19,3,0.571
17,-2,0.572
9,-3,0.573
-3,-4,0.574
-14,-4,0.575
-19,-4,0.576
-20,-5,0.577
-21,-3,0.578
-18,-1,0.579
-12,-1,0.58
-10,-3,0.581
-11,-1,0.582
-5,2,0.583
6,2,0.584
14,0,0.585
15,0,0.586
18,1,0.587
23,2,0.588
24,3,0.589
19,4,0.59
15,4,0.591
16,-1,0.592
15,-5,0.593
6,-7,0.594
-5,-6,0.595
-15,-6,0.596
-24,-8,0.597
-28,-10,0.598
-21,-8,0.599
-8,-3,0.6
0,0,0.601
0,4,0.602
0,7,0.603
5,6,0.604
12,4,0.605
16,3,0.606
19,4,0.607
23,3,0.608
25,3,0.609
23,4,0.61
19,4,0.611
13,0,0.612
4,-2,0.613
-4,-3,0.614
-12,-1,0.615
-22,0,0.616
-29,-5,0.617
-30,-8,0.618
-22,-6,0.619
-16,-4,0.62
-13,-3,0.621
-12,-1,0.622
-4,4,0.623
3,8,0.624
10,5,0.625
15,2,0.626
22,4,0.627
28,6,0.628
27,5,0.629
20,4,0.63
15,3,0.631
11,1,0.632
8,0,0.633
0,-3,0.634
-8,-4,0.635
-16,-5,0.636
-19,-11,0.637
-18,-12,0.638
-11,-11,0.639
-1,-6,0.64
5,-2,0.641
7,0,0.642
7,0,0.643
9,0,0.644
14,-2,0.645
19,-1,0.646
24,2,0.647
26,3,0.648
26,2,0.649
24,0,0.65
18,-1,0.651
12,-3,0.652
4,-1,0.653
-3,-2,0.654
-10,-3,0.655
-17,-4,0.656
-22,-9,0.657
-25,-10,0.658
-22,-7,0.659
-13,-1,0.66
-7,4,0.661
-5,7,0.662
0,5,0.663
9,0,0.664
14,-1,0.665
15,1,0.666
16,2,0.667
21,0,0.668
26,1,0.669
23,6,0.67
17,7,0.671
8,2,0.672
2,-1,0.673
-4,-2,0.674
-11,-1,0.675
-20,-5,0.676
-27,-12,0.677
-29,-14,0.678
-23,-10,0.679
-15,-6,0.68
-9,-2,0.681
-6,4,0.682
0,7,0.683
11,6,0.684
20,3,0.685
23,3,0.686
26,4,0.687
29,4,0.688
27,3,0.689
21,5,0.69
13,7,0.691
10,7,0.692
9,5,0.693
0,-2,0.694
-11,-5,0.695
-20,-8,0.696
-23,-9,0.697
-21,-9,0.698
-13,-7,0.699
-3,-5,0.7
-1,0,0.701
-2,4,0.702
0,1,0.703
8,0,0.704
16,2,0.705
18,4,0.706
18,1,0.707
20,-1,0.708
22,-1,0.709
20,-1,0.71
14,4,0.711
8,6,0.712
1,0,0.713
-6,-5,0.714
-11,-8,0.715
-16,-10,0.716
-20,-11,0.717
-22,-7,0.718
-17,-5,0.719
-9,-4,0.72
-4,0,0.721
-3,4,0.722
-1,3,0.723
6,0,0.724
15,0,0.725
20,5,0.726
22,7,0.727
23,3,0.728
24,1,0.729
22,2,0.73
18,3,0.731
13,0,0.732
7,-2,0.733
-1,-3,0.734
-11,-2,0.735
-19,-1,0.736
-25,-5,0.737
-25,-8,0.738
-21,-9,0.739
-12,-6,0.74
-5,0,0.741
-3,2,0.742
1,-1,0.743
9,-2,0.744
15,2,0.745
17,5,0.746
18,2,0.747
22,0,0.748
25,3,0.749
23,6,0.75
18,2,0.751
13,-1,0.752
6,1,0.753
-3,1,0.754
-11,-4,0.755
-17,-9,0.756
-21,-10,0.757
-21,-6,0.758
-16,-5,0.759
-11,-4,0.76
-8,-3,0.761
-7,2,0.762
-2,5,0.763
3,5,0.764
9,3,0.765
12,2,0.766
17,2,0.767
23,1,0.768
25,2,0.769
23,1,0.77
19,-1,0.771
14,-2,0.772
7,-2,0.773
-2,-2,0.774
-12,-3,0.775
-19,-5,0.776
-25,-6,0.777
-25,-7,0.778
-21,-4,0.779
-14,-1,0.78
-6,0,0.781
-3,1,0.782
0,1,0.783
7,1,0.784
16,0,0.785
21,0,0.786
23,2,0.787
24,5,0.788
25,5,0.789
23,3,0.79
17,1,0.791
7,0,0.792
0,-2,0.793
-7,-6,0.794
-12,-7,0.795
-17,-3,0.796
-23,-2,0.797
-25,-5,0.798
-19,-9,0.799
-6,-7,0.8
2,0,0.801
0,3,0.802
0,-1,0.803
8,-3,0.804
19,0,0.805
22,5,0.806
20,6,0.807
22,4,0.808
27,1,0.809
26,0,0.81
19,-2,0.811
9,-3,0.812
2,-1,0.813
-4,-3,0.814
-12,-8,0.815
-20,-10,0.816
-22,-15,0.817
-20,-13,0.818
-15,-7,0.819
-9,0,0.82
-5,4,0.821
-3,2,0.822
0,-1,0.823
9,-3,0.824
16,0,0.825
19,4,0.826
22,8,0.827
26,9,0.828
26,8,0.829
20,4,0.83
15,0,0.831
11,-1,0.832
6,1,0.833
-2,1,0.834
-10,0,0.835
-16,-3,0.836
-21,-6,0.837
-26,-8,0.838
-22,-9,0.839
-12,-6,0.84
-3,-3,0.841
0,0,0.842
2,2,0.843
9,4,0.844
15,5,0.845
18,6,0.846
22,7,0.847
27,7,0.848
27,5,0.849
19,0,0.85
13,-5,0.851
10,-8,0.852
5,-5,0.853
-4,-5,0.854
-13,-8,0.855
-20,-10,0.856
-24,-8,0.857
-28,-6,0.858
-24,-1,0.859
-14,2,0.86
-6,0,0.861
-5,0,0.862
-2,1,0.863
7,3,0.864
16,3,0.865
19,4,0.866
24,4,0.867
28,5,0.868
27,6,0.869
20,6,0.87
14,3,0.871
13,0,0.872
11,-1,0.873
0,-2,0.874
-15,-2,0.875
-25,-3,0.876
-30,-11,0.877
-29,-15,0.878
-22,-12,0.879
-8,-4,0.88
2,3,0.881
4,4,0.882
2,4,0.883
7,7,0.884
15,8,0.885
21,8,0.886
22,5,0.887
23,2,0.888
24,0,0.889
21,-1,0.89
15,0,0.891
7,-3,0.892
1,-6,0.893
-7,-6,0.894
-16,-4,0.895
-22,-6,0.896
-27,-13,0.897
-26,-14,0.898
-18,-7,0.899
-6,-1,0.9
1,-1,0.901
1,0,0.902
1,4,0.903
8,6,0.904
16,5,0.905
19,4,0.906
20,6,0.907
23,4,0.908
27,-1,0.909
24,-3,0.91
16,-1,0.911
8,0,0.912
2,-1,0.913
-3,-4,0.914
-10,-4,0.915
-19,-5,0.916
-25,-9,0.917
-27,-10,0.918
-20,-7,0.919
-7,-4,0.92
0,0,0.921
2,4,0.922
2,7,0.923
7,5,0.924
14,0,0.925
21,2,0.926
26,5,0.927
30,6,0.928
30,3,0.929
22,1,0.93
15,-1,0.931
10,-5,0.932
6,-6,0.933
-2,-5,0.934
-14,-4,0.935
-24,-4,0.936
-31,-8,0.937
-31,-10,0.938
-21,-8,0.939
-8,-6,0.94
0,-3,0.941
0,0,0.942
2,0,0.943
10,1,0.944
18,2,0.945
19,3,0.946
20,5,0.947
23,8,0.948
25,8,0.949
21,7,0.95
14,7,0.951
9,5,0.952
5,2,0.953
-2,-1,0.954
-11,-3,0.955
-19,-6,0.956
-22,-10,0.957
-23,-7,0.958
-20,-5,0.959
-13,-4,0.96
-4,-1,0.961
-2,4,0.962
0,4,0.963
3,0,0.964
11,-4,0.965
19,1,0.966
24,7,0.967
24,7,0.968
20,1,0.969
17,-3,0.97
14,-1,0.971
10,0,0.972
2,0,0.973
-7,-2,0.974
-15,-3,0.975
-19,-4,0.976
-24,-8,0.977
-25,-12,0.978
-21,-13,0.979
-12,-8,0.98
-3,0,0.981
3,5,0.982
7,4,0.983
11,1,0.984
13,4,0.985
17,9,0.986
22,8,0.987
26,5,0.988
26,3,0.989
22,7,0.99
18,7,0.991
9,2,0.992
0,-4,0.993
-7,-7,0.994
-10,-7,0.995
-15,-7,0.996
-22,-11,0.997
-25,-13,0.998
-20,-12,0.999
-9,-8,1.0
-2,-3,1.001
-1,2,1.002
-1,6,1.003
8,7,1.004
19,7,1.005
22,8,1.006
21,6,1.007
21,5,1.008
22,3,1.009
20,2,1.01
16,-1,1.011
9,-4,1.012
2,-3,1.013
-7,-4,1.014
-16,-5,1.015
-21,-6,1.016
-25,-7,1.017
-27,-7,1.018
-21,-5,1.019
-10,-3,1.02
-1,1,1.021
1,4,1.022
5,4,1.023
14,4,1.024
20,2,1.025
23,0,1.026
26,4,1.027
29,7,1.028
28,5,1.029
23,3,1.03
17,1,1.031
11,-1,1.032
5,-2,1.033
-6,-2,1.034
-16,-1,1.035
-23,-3,1.036
-25,-10,1.037
-24,-10,1.038
-18,-3,1.039
-8,2,1.04
-2,3,1.041
-2,0,1.042
0,-2,1.043
8,0,1.044
14,2,1.045
18,4,1.046
21,4,1.047
24,1,1.048
23,-3,1.049
18,-6,1.05
12,-3,1.051
4,3,1.052
-2,5,1.053
-7,0,1.054
-12,-5,1.055
-22,-7,1.056
-31,-9,1.057
-29,-9,1.058
-15,-6,1.059
1,-4,1.06
6,-1,1.061
6,0,1.062
10,2,1.063
15,4,1.064
18,5,1.065
16,4,1.066
17,2,1.067
21,0,1.068
21,0,1.069
15,3,1.07
8,3,1.071
2,0,1.072
-3,-4,1.073
-8,-6,1.074
-13,-5,1.075
-18,-6,1.076
-23,-9,1.077
-26,-8,1.078
-21,-6,1.079
-9,-6,1.08
-1,-4,1.081
1,0,1.082
6,5,1.083
15,5,1.084
20,3,1.085
21,2,1.086
20,4,1.087
23,3,1.088
24,0,1.089
19,0,1.09
10,0,1.091
4,-2,1.092
0,-5,1.093
-5,-6,1.094
-10,-4,1.095
-15,-3,1.096
-16,-7,1.097
-18,-9,1.098
-15,-4,1.099
-6,0,1.1
1,1,1.101
4,3,1.102
4,4,1.103
7,5,1.104
14,3,1.105
20,2,1.106
22,3,1.107
21,5,1.108
19,3,1.109
13,2,1.11
7,2,1.111
4,2,1.112
2,0,1.113
-4,-4,1.114
-16,-6,1.115
-24,-5,1.116
-27,-8,1.117
-24,-12,1.118
-17,-14,1.119
-7,-8,1.12
1,0,1.121
6,4,1.122
9,2,1.123
12,0,1.124
16,3,1.125
18,7,1.126
19,7,1.127
22,3,1.128
22,1,1.129
19,3,1.13
14,3,1.131
7,-2,1.132
1,-4,1.133
-5,-3,1.134
-14,-3,1.135
-20,-5,1.136
-23,-8,1.137
-22,-9,1.138
-16,-6,1.139
-7,-2,1.14
0,1,1.141
2,4,1.142
4,3,1.143
11,3,1.144
19,5,1.145
24,6,1.146
23,6,1.147
21,4,1.148
21,4,1.149
18,3,1.15
13,-1,1.151
5,-6,1.152
-1,-8,1.153
-10,-6,1.154
-18,-4,1.155
-23,-7,1.156
-26,-12,1.157
-25,-14,1.158
-15,-10,1.159
-3,-3,1.16
5,4,1.161
3,6,1.162
1,4,1.163
7,2,1.164
17,2,1.165
25,3,1.166
27,3,1.167
28,4,1.168
27,3,1.169
18,2,1.17
6,0,1.171
-2,-1,1.172
-3,1,1.173
-7,-1,1.174
-14,-4,1.175
-21,-7,1.176
-27,-7,1.177
-25,-7,1.178
-16,-1,1.179
-1,3,1.18
5,1,1.181
3,0,1.182
2,0,1.183
12,1,1.184
20,6,1.185
20,10,1.186
18,9,1.187
22,7,1.188
25,3,1.189
23,-1,1.19
13,-3,1.191
3,-5,1.192
-2,-4,1.193
-13,-3,1.194
-21,-7,1.195
-26,-9,1.196
-26,-11,1.197
-23,-8,1.198
-16,-6,1.199
-5,-3,1.2
1,1,1.201
3,4,1.202
6,3,1.203
14,1,1.204
20,4,1.205
21,6,1.206
21,6,1.207
23,4,1.208
23,4,1.209
18,4,1.21
9,3,1.211
3,-1,1.212
-1,-3,1.213
-8,-4,1.214
-17,-6,1.215
-22,-9,1.216
-25,-13,1.217
-23,-13,1.218
-13,-8,1.219
-2,-4,1.22
3,0,1.221
5,3,1.222
8,4,1.223
14,3,1.224
18,2,1.225
20,0,1.226
22,-1,1.227
25,-1,1.228
24,0,1.229
18,2,1.23
13,2,1.231
5,1,1.232
-3,2,1.233
-13,0,1.234
-18,-4,1.235
-20,-7,1.236
-24,-9,1.237
-25,-8,1.238
-18,-9,1.239
-5,-7,1.24
0,-2,1.241
0,5,1.242
3,6,1.243
12,3,1.244
20,1,1.245
24,2,1.246
26,0,1.247
27,-2,1.248
23,-1,1.249
16,0,1.25
10,-1,1.251
3,-3,1.252
-1,-3,1.253
-8,-5,1.254
-15,-5,1.255
-22,-5,1.256
-26,-6,1.257
-23,-6,1.258
-9,-4,1.259
2,-1,1.26
4,2,1.261
3,5,1.262
6,4,1.263
14,3,1.264
20,4,1.265
22,6,1.266
25,6,1.267
25,5,1.268
20,4,1.269
14,3,1.27
7,3,1.271
1,1,1.272
-4,0,1.273
-9,-3,1.274
-13,-5,1.275
-18,-6,1.276
-24,-8,1.277
-25,-9,1.278
-18,-5,1.279
-7,-1,1.28
-2,4,1.281
-2,5,1.282
4,4,1.283
17,0,1.284
23,1,1.285
21,5,1.286
19,8,1.287
21,6,1.288
20,5,1.289
15,3,1.29
8,0,1.291
4,-3,1.292
1,-2,1.293
-7,-1,1.294
-17,-4,1.295
-26,-10,1.296
-30,-13,1.297
-28,-8,1.298
-17,-3,1.299
-4,-2,1.3
5,-2,1.301
6,2,1.302
6,5,1.303
12,5,1.304
19,1,1.305
22,0,1.306
21,0,1.307
21,-1,1.308
20,-2,1.309
15,-1,1.31
5,-2,1.311
-1,-6,1.312
-4,-7,1.313
-9,-6,1.314
-17,-2,1.315
-22,-1,1.316
-21,-6,1.317
-17,-9,1.318
-10,-10,1.319
-3,-6,1.32
3,0,1.321
7,3,1.322
12,2,1.323
15,2,1.324
17,6,1.325
20,10,1.326
23,10,1.327
25,8,1.328
24,4,1.329
17,1,1.33
7,0,1.331
0,0,1.332
-4,0,1.333
-10,-4,1.334
-15,-4,1.335
-21,-5,1.336
-24,-6,1.337
-24,-8,1.338
-15,-8,1.339
-2,-7,1.34
6,-3,1.341
6,1,1.342
7,0,1.343
11,-1,1.344
16,4,1.345
20,8,1.346
24,5,1.347
25,2,1.348
21,3,1.349
14,4,1.35
8,-1,1.351
3,-4,1.352
0,-1,1.353
-6,2,1.354
-12,-2,1.355
-19,-10,1.356
-25,-17,1.357
-26,-12,1.358
-16,-5,1.359
0,-3,1.36
9,-2,1.361
8,2,1.362
4,4,1.363
8,2,1.364
15,0,1.365
18,4,1.366
17,6,1.367
19,4,1.368
20,0,1.369
15,0,1.37
7,-1,1.371
-1,-3,1.372
-2,-3,1.373
-8,-4,1.374
-15,-8,1.375
-22,-13,1.376
-26,-15,1.377
-23,-9,1.378
-12,-3,1.379
0,-1,1.38
5,2,1.381
1,6,1.382
2,8,1.383
15,6,1.384
28,5,1.385
29,5,1.386
23,5,1.387
20,3,1.388
19,1,1.389
14,2,1.39
4,2,1.391
-1,0,1.392
-2,-1,1.393
-6,-4,1.394
-14,-7,1.395
-20,-7,1.396
-23,-10,1.397
-21,-10,1.398
-14,-7,1.399
-2,0,1.4
7,5,1.401
9,6,1.402
8,2,1.403
10,1,1.404
14,5,1.405
16,8,1.406
18,8,1.407
22,4,1.408
23,1,1.409
18,2,1.41
7,0,1.411
-2,-4,1.412
-5,-5,1.413
-7,-5,1.414
-12,-2,1.415
-19,0,1.416
-25,-1,1.417
-25,-3,1.418
-17,-1,1.419
-4,0,1.42
6,1,1.421
9,2,1.422
11,3,1.423
18,4,1.424
23,2,1.425
24,1,1.426
25,2,1.427
26,3,1.428
23,2,1.429
15,1,1.43
5,1,1.431
-1,1,1.432
-5,0,1.433
-13,-4,1.434
-20,-10,1.435
-24,-12,1.436
-25,-11,1.437
-20,-9,1.438
-11,-5,1.439
1,0,1.44
7,4,1.441
7,5,1.442
9,6,1.443
16,6,1.444
22,4,1.445
25,0,1.446
25,0,1.447
26,4,1.448
23,7,1.449
14,3,1.45
1,-1,1.451
-4,-2,1.452
-6,-2,1.453
-13,-6,1.454
-20,-6,1.455
-25,-5,1.456
-24,-7,1.457
-20,-7,1.458
-10,-9,1.459
-1,-7,1.46
1,-4,1.461
2,0,1.462
7,5,1.463
15,7,1.464
19,6,1.465
20,2,1.466
22,0,1.467
24,1,1.468
20,2,1.469
10,2,1.47
1,3,1.471
-1,3,1.472
-4,3,1.473
-10,0,1.474
-16,-5,1.475
-23,-9,1.476
-29,-11,1.477
-27,-7,1.478
-13,-5,1.479
2,-4,1.48
6,-1,1.481
4,1,1.482
9,2,1.483
20,0,1.484
26,0,1.485
24,4,1.486
25,6,1.487
27,3,1.488
21,0,1.489
9,-1,1.49
1,-1,1.491
-1,-4,1.492
-6,-6,1.493
-14,-6,1.494
-17,-3,1.495
-19,-1,1.496
-24,-6,1.497
-29,-9,1.498
-19,-5,1.499
0,-1,1.5
11,4,1.501
11,9,1.502
11,8,1.503
16,7,1.504
22,8,1.505
24,9,1.506
25,9,1.507
26,7,1.508
22,2,1.509
13,-2,1.51
3,-2,1.511
-3,-2,1.512
-5,-4,1.513
-11,-7,1.514
-16,-7,1.515
-21,-9,1.516
-25,-14,1.517
-22,-12,1.518
-10,-4,1.519
4,5,1.52
10,6,1.521
9,3,1.522
7,3,1.523
13,7,1.524
18,6,1.525
21,1,1.526
23,0,1.527
24,3,1.528
18,4,1.529
8,2,1.53
-1,0,1.531
-4,-2,1.532
-8,-4,1.533
-17,-8,1.534
-27,-10,1.535
-29,-11,1.536
-25,-13,1.537
-17,-11,1.538
-5,-6,1.539
5,-3,1.54
10,-2,1.541
7,0,1.542
3,4,1.543
7,3,1.544
16,0,1.545
22,0,1.546
24,5,1.547
23,6,1.548
18,1,1.549
12,-1,1.55
2,0,1.551
-5,-2,1.552
-11,-5,1.553
-16,-8,1.554
-19,-6,1.555
-22,-4,1.556
-25,-8,1.557
-23,-8,1.558
-8,-4,1.559
5,0,1.56
7,4,1.561
3,5,1.562
8,5,1.563
21,5,1.564
27,3,1.565
25,4,1.566
25,6,1.567
27,6,1.568
20,1,1.569
9,-3,1.57
4,-4,1.571
2,-4,1.572
-2,-3,1.573
-12,-5,1.574
-16,-7,1.575
-17,-9,1.576
-19,-11,1.577
-21,-12,1.578
-12,-6,1.579
3,-1,1.58
11,3,1.581
9,7,1.582
10,7,1.583
20,8,1.584
27,8,1.585
28,9,1.586
26,9,1.587
23,9,1.588
19,3,1.589
11,-1,1.59
3,-1,1.591
-4,-1,1.592
-10,-1,1.593
-16,-4,1.594
-19,-8,1.595
-21,-10,1.596
-24,-12,1.597
-22,-9,1.598
-11,-8,1.599
0,-3,1.6
4,3,1.601
2,6,1.602
6,7,1.603
16,5,1.604
20,5,1.605
17,4,1.606
17,1,1.607
21,-1,1.608
20,-1,1.609
12,0,1.61
3,0,1.611
-3,-5,1.612
-7,-6,1.613
-16,-5,1.614
-21,-4,1.615
-22,-5,1.616
-23,-10,1.617
-22,-8,1.618
-13,-5,1.619
0,0,1.62
9,3,1.621
7,5,1.622
7,8,1.623
14,6,1.624
22,3,1.625
23,2,1.626
21,4,1.627
22,5,1.628
23,4,1.629
14,2,1.63
1,2,1.631
-6,0,1.632
-5,-2,1.633
-7,-5,1.634
-16,-7,1.635
-24,-10,1.636
-27,-13,1.637
-22,-11,1.638
-12,-8,1.639
0,-3,1.64
6,2,1.641
8,5,1.642
13,5,1.643
20,1,1.644
27,0,1.645
29,2,1.646
25,3,1.647
23,1,1.648
19,0,1.649
12,0,1.65
3,-3,1.651
-3,-7,1.652
-5,-7,1.653
-12,-6,1.654
-18,-6,1.655
-26,-6,1.656
-28,-6,1.657
-24,-4,1.658
-12,-1,1.659
0,2,1.66
7,3,1.661
7,5,1.662
11,5,1.663
21,4,1.664
28,5,1.665
25,6,1.666
22,4,1.667
24,2,1.668
23,-2,1.669
14,-4,1.67
1,0,1.671
-5,3,1.672
-6,1,1.673
-10,-1,1.674
-17,-5,1.675
-23,-7,1.676
-26,-9,1.677
-25,-6,1.678
-16,-2,1.679
0,1,1.68
11,1,1.681
12,1,1.682
9,2,1.683
14,1,1.684
22,2,1.685
25,3,1.686
22,2,1.687
19,0,1.688
17,-2,1.689
9,-3,1.69
0,-2,1.691
-6,-3,1.692
-9,-4,1.693
-13,-5,1.694
-18,-8,1.695
-21,-7,1.696
-22,-8,1.697
-19,-7,1.698
-12,-3,1.699
0,1,1.7
9,3,1.701
9,5,1.702
11,5,1.703
18,6,1.704
26,6,1.705
27,7,1.706
23,4,1.707
20,0,1.708
18,-3,1.709
11,-2,1.71
0,0,1.711
-8,2,1.712
-12,0,1.713
-15,-2,1.714
-17,-2,1.715
-20,-3,1.716
-20,-8,1.717
-18,-9,1.718
-8,-5,1.719
0,0,1.72
1,4,1.721
5,5,1.722
11,4,1.723
18,2,1.724
22,0,1.725
26,0,1.726
25,3,1.727
23,4,1.728
17,2,1.729
11,-3,1.73
3,-7,1.731
-4,-10,1.732
-9,-12,1.733
-15,-10,1.734
-21,-7,1.735
-23,-5,1.736
-24,-5,1.737
-23,-5,1.738
-13,-3,1.739
2,-1,1.74
10,0,1.741
5,2,1.742
4,3,1.743
15,4,1.744
25,4,1.745
25,4,1.746
22,5,1.747
24,6,1.748
23,1,1.749
15,-3,1.75
1,-3,1.751
-4,-2,1.752
-6,-2,1.753
-9,-1,1.754
-15,-2,1.755
-21,-4,1.756
-24,-10,1.757
-22,-11,1.758
-10,-8,1.759
2,0,1.76
7,6,1.761
4,7,1.762
6,5,1.763
15,5,1.764
23,5,1.765
25,6,1.766
25,6,1.767
25,7,1.768
21,7,1.769
11,6,1.77
0,2,1.771
-5,-3,1.772
-8,-5,1.773
-14,-3,1.774
-18,-2,1.775
-18,-6,1.776
-17,-14,1.777
-16,-14,1.778
-7,-6,1.779
4,2,1.78
13,5,1.781
13,3,1.782
13,1,1.783
18,0,1.784
21,0,1.785
20,4,1.786
19,5,1.787
17,0,1.788
12,-6,1.789
2,-6,1.79
-4,-2,1.791
-8,1,1.792
-11,0,1.793
-17,-5,1.794
-19,-9,1.795
-21,-9,1.796
-22,-9,1.797
-22,-7,1.798
-9,-2,1.799
7,3,1.8
14,7,1.801
11,9,1.802
14,9,1.803
22,7,1.804
26,4,1.805
22,1,1.806
20,2,1.807
22,3,1.808
21,3,1.809
12,0,1.81
0,-6,1.811
-7,-7,1.812
-12,-5,1.813
-16,-5,1.814
-19,-6,1.815
-23,-7,1.816
-27,-7,1.817
-24,-6,1.818
-10,-4,1.819
5,-2,1.82
11,2,1.821
9,6,1.822
11,5,1.823
17,4,1.824
22,3,1.825
24,2,1.826
25,1,1.827
24,0,1.828
18,-1,1.829
8,-2,1.83
-1,-2,1.831
-6,-3,1.832
-11,-2,1.833
-19,-3,1.834
-21,-8,1.835
-20,-8,1.836
-20,-7,1.837
-19,-4,1.838
-10,-2,1.839
3,0,1.84
10,2,1.841
11,3,1.842
12,2,1.843
18,3,1.844
23,4,1.845
22,4,1.846
18,1,1.847
16,-1,1.848
14,0,1.849
7,3,1.85
0,5,1.851
-4,3,1.852
-6,0,1.853
-11,-5,1.854
-16,-8,1.855
-21,-10,1.856
-23,-11,1.857
-20,-8,1.858
-9,-7,1.859
3,-5,1.86
13,-1,1.861
15,3,1.862
16,3,1.863
22,0,1.864
29,1,1.865
31,5,1.866
27,6,1.867
23,2,1.868
17,-1,1.869
8,-1,1.87
-2,0,1.871
-9,-2,1.872
-11,-4,1.873
-13,-6,1.874
-19,-6,1.875
-28,-6,1.876
-30,-7,1.877
-21,-4,1.878
-4,0,1.879
8,0,1.88
10,1,1.881
9,4,1.882
13,4,1.883
19,1,1.884
22,1,1.885
21,5,1.886
23,8,1.887
25,7,1.888
19,5,1.889
6,4,1.89
-4,1,1.891
-9,-2,1.892
-13,0,1.893
-19,0,1.894
-22,-2,1.895
-24,-5,1.896
-25,-9,1.897
-23,-11,1.898
-11,-8,1.899
5,-4,1.9
12,-1,1.901
8,1,1.902
9,3,1.903
20,5,1.904
27,5,1.905
26,6,1.906
21,4,1.907
18,3,1.908
12,1,1.909
6,-1,1.91
1,-5,1.911
-1,-8,1.912
-6,-5,1.913
-14,-2,1.914
-19,-4,1.915
-23,-8,1.916
-26,-13,1.917
-22,-11,1.918
-9,-7,1.919
7,-2,1.92
14,3,1.921
11,7,1.922
12,9,1.923
18,9,1.924
23,7,1.925
24,5,1.926
25,2,1.927
25,1,1.928
16,1,1.929
3,-1,1.93
-4,-6,1.931
-5,-7,1.932
-7,-5,1.933
-15,-6,1.934
-21,-9,1.935
-22,-10,1.936
-19,-9,1.937
-14,-6,1.938
-4,-4,1.939
4,-1,1.94
7,0,1.941
7,2,1.942
12,2,1.943
21,1,1.944
26,5,1.945
25,8,1.946
23,6,1.947
20,1,1.948
16,-2,1.949
7,-4,1.95
-2,-6,1.951
-6,-6,1.952
-8,-4,1.953
-14,-3,1.954
-19,-3,1.955
-21,-6,1.956
-21,-9,1.957
-19,-8,1.958
-9,-3,1.959
4,2,1.96
13,7,1.961
12,12,1.962
13,10,1.963
19,3,1.964
27,-1,1.965
28,0,1.966
24,1,1.967
18,-1,1.968
11,-2,1.969
2,1,1.97
-4,3,1.971
-7,0,1.972
-11,-1,1.973
-17,-1,1.974
-19,-1,1.975
-20,-1,1.976
-22,-6,1.977
-22,-10,1.978
-11,-5,1.979
5,-1,1.98
12,-1,1.981
8,0,1.982
8,2,1.983
17,4,1.984
25,6,1.985
24,8,1.986
19,4,1.987
14,0,1.988
6,2,1.989
-3,3,1.99
-6,1,1.991
-6,-1,1.992
-10,-2,1.993
-18,-3,1.994
-20,-6,1.995
-22,-11,1.996
-21,-16,1.997
-17,-13,1.998
-5,-6,1.999
5,-2,2.0
6,1,2.001
10,4,2.002
19,6,2.003
26,5,2.004
26,4,2.005
24,5,2.006
18,5,2.007
12,0,2.008
10,-3,2.009
7,-3,2.01
0,-4,2.011
-6,-7,2.012
-10,-8,2.013
-15,-5,2.014
-19,-3,2.015
-21,-6,2.016
-21,-9,2.017
-17,-5,2.018
-7,1,2.019
4,5,2.02
10,3,2.021
12,2,2.022
19,6,2.023
27,10,2.024
29,10,2.025
26,9,2.026
26,6,2.027
26,3,2.028
20,0,2.029
6,-1,2.03
-3,-2,2.031
-8,-3,2.032
-11,-4,2.033
-17,-7,2.034
-19,-7,2.035
-21,-7,2.036
-20,-7,2.037
-16,-8,2.038
-6,-7,2.039
4,-4,2.04
9,2,2.041
8,10,2.042
11,7,2.043
17,5,2.044
21,4,2.045
22,2,2.046
21,5,2.047
17,7,2.048
11,2,2.049
3,0,2.05
1,-1,2.051
-1,-4,2.052
-9,-4,2.053
-20,-5,2.054
-25,-5,2.055
-24,-5,2.056
-21,-5,2.057
-17,-6,2.058
-8,-5,2.059
4,-3,2.06
12,2,2.061
13,7,2.062
13,5,2.063
18,4,2.064
24,3,2.065
28,2,2.066
27,4,2.067
24,5,2.068
18,2,2.069
8,0,2.07
-2,-1,2.071
-10,-3,2.072
-15,-3,2.073
-18,-5,2.074
-20,-6,2.075
-22,-5,2.076
-22,-5,2.077
-17,-8,2.078
-3,-7,2.079
8,-3,2.08
13,2,2.081
18,5,2.082
20,4,2.083
22,3,2.084
24,4,2.085
26,7,2.086
21,7,2.087
16,2,2.088
10,0,2.089
4,1,2.09
-4,1,2.091
-12,-1,2.092
-16,-3,2.093
-20,-5,2.094
-21,-8,2.095
-24,-11,2.096
-24,-9,2.097
-17,-3,2.098
-3,1,2.099
8,0,2.1
11,-1,2.101
13,3,2.102
19,8,2.103
25,7,2.104
26,3,2.105
23,2,2.106
21,1,2.107
18,-1,2.108
12,-3,2.109
2,-2,2.11
-3,0,2.111
-5,-4,2.112
-6,-8,2.113
-12,-8,2.114
-16,-5,2.115
-20,-4,2.116
-20,-6,2.117
-16,-5,2.118
-6,-4,2.119
3,-4,2.12
9,-1,2.121
11,5,2.122
15,7,2.123
20,6,2.124
24,5,2.125
24,8,2.126
23,9,2.127
22,3,2.128
15,-4,2.129
2,-7,2.13
-7,-5,2.131
-13,-3,2.132
-16,-2,2.133
-20,-3,2.134
-23,-4,2.135
-25,-6,2.136
-26,-6,2.137
-19,-6,2.138
-5,-3,2.139
9,-1,2.14
15,0,2.141
14,1,2.142
16,3,2.143
24,6,2.144
28,6,2.145
25,6,2.146
20,3,2.147
18,1,2.148
14,0,2.149
5,-1,2.15
-3,-4,2.151
-6,-6,2.152
-10,-3,2.153
-18,-1,2.154
-23,-1,2.155
-23,-4,2.156
-22,-8,2.157
-18,-10,2.158
-7,-9,2.159
7,-4,2.16
14,4,2.161
12,10,2.162
10,8,2.163
17,1,2.164
23,-1,2.165
24,1,2.166
20,4,2.167
18,1,2.168
14,-2,2.169
3,-3,2.17
-5,-4,2.171
-8,-5,2.172
-9,-4,2.173
-11,-5,2.174
-15,-7,2.175
-19,-8,2.176
-19,-9,2.177
-16,-4,2.178
-4,-2,2.179
8,0,2.18
15,3,2.181
15,5,2.182
16,4,2.183
21,5,2.184
24,8,2.185
25,10,2.186
21,7,2.187
16,1,2.188
9,-2,2.189
0,-1,2.19
-6,-3,2.191
-12,-6,2.192
-14,-5,2.193
-18,-2,2.194
-20,-3,2.195
-23,-7,2.196
-22,-11,2.197
-17,-6,2.198
-1,2,2.199
16,3,2.2
19,4,2.201
13,5,2.202
13,5,2.203
24,2,2.204
32,0,2.205
28,1,2.206
21,1,2.207
16,-1,2.208
12,-3,2.209
2,0,2.21
-7,2,2.211
-13,-1,2.212
-13,-5,2.213
-15,-8,2.214
-18,-8,2.215
-19,-7,2.216
-20,-8,2.217
-16,-8,2.218
-7,-5,2.219
1,-2,2.22
4,0,2.221
8,1,2.222
17,1,2.223
24,3,2.224
25,7,2.225
21,9,2.226
19,7,2.227
20,4,2.228
15,1,2.229
6,-1,2.23
0,-5,2.231
-3,-7,2.232
-7,-3,2.233
-15,-1,2.234
-20,-5,2.235
-22,-10,2.236
-23,-12,2.237
-17,-9,2.238
-4,-4,2.239
11,-1,2.24
14,3,2.241
12,7,2.242
14,8,2.243
20,5,2.244
22,4,2.245
19,5,2.246
14,3,2.247
11,0,2.248
6,0,2.249
1,2,2.25
-3,2,2.251
-7,-4,2.252
-11,-8,2.253
-14,-5,2.254
-15,-3,2.255
-18,-3,2.256
-19,-8,2.257
-16,-5,2.258
-3,0,2.259
14,4,2.26
19,6,2.261
14,8,2.262
15,7,2.263
22,5,2.264
25,3,2.265
20,5,2.266
13,4,2.267
9,0,2.268
7,-5,2.269
1,-4,2.27
-4,-1,2.271
-8,-1,2.272
-11,-2,2.273
-16,-5,2.274
-18,-5,2.275
-19,-4,2.276
-16,-5,2.277
-10,-5,2.278
-3,-3,2.279
4,0,2.28
11,4,2.281
18,9,2.282
23,9,2.283
27,7,2.284
25,9,2.285
21,9,2.286
19,4,2.287
17,0,2.288
10,0,2.289
0,0,2.29
-9,-3,2.291
-14,-6,2.292
-15,-6,2.293
-18,-5,2.294
-21,-5,2.295
-25,-4,2.296
-24,-5,2.297
-15,-5,2.298
0,-3,2.299
13,0,2.3
18,4,2.301
17,8,2.302
18,8,2.303
22,7,2.304
26,8,2.305
26,8,2.306
21,4,2.307
14,0,2.308
9,0,2.309
2,0,2.31
-4,-3,2.311
-12,-6,2.312
-17,-6,2.313
-20,-5,2.314
-22,-5,2.315
-24,-6,2.316
-22,-10,2.317
-17,-7,2.318
-5,-4,2.319
6,1,2.32
10,6,2.321
14,8,2.322
16,5,2.323
19,0,2.324
20,1,2.325
21,6,2.326
18,7,2.327
13,-1,2.328
6,-8,2.329
0,-7,2.33
-5,-2,2.331
-10,-1,2.332
-14,-4,2.333
-17,-7,2.334
-20,-8,2.335
-21,-6,2.336
-17,-7,2.337
-8,-5,2.338
4,-3,2.339
14,0,2.34
14,2,2.341
10,8,2.342
13,12,2.343
23,12,2.344
27,6,2.345
23,0,2.346
18,-2,2.347
16,-1,2.348
10,1,2.349
0,2,2.35
-7,-2,2.351
-9,-5,2.352
-8,-6,2.353
-13,-7,2.354
-17,-7,2.355
-21,-7,2.356
-21,-10,2.357
-13,-9,2.358
1,-7,2.359
14,-3,2.36
15,1,2.361
12,4,2.362
16,4,2.363
25,0,2.364
31,-2,2.365
26,3,2.366
18,8,2.367
12,5,2.368
7,-1,2.369
1,-4,2.37
-4,-4,2.371
-11,-2,2.372
-16,-4,2.373
-19,-5,2.374
-19,-3,2.375
-19,-2,2.376
-19,-3,2.377
-12,-4,2.378
0,-2,2.379
11,1,2.38
14,5,2.381
14,8,2.382
18,5,2.383
24,3,2.384
27,3,2.385
23,3,2.386
18,4,2.387
9,4,2.388
0,-1,2.389
-7,-6,2.39
-10,-3,2.391
-13,-1,2.392
-17,-2,2.393
-21,-3,2.394
-20,-4,2.395
-19,-4,2.396
-18,-8,2.397
-13,-8,2.398
2,-4,2.399
18,-1,2.4
21,0,2.401
15,2,2.402
14,5,2.403
23,6,2.404
30,4,2.405
26,4,2.406
18,2,2.407
14,0,2.408
8,-2,2.409
0,-1,2.41
-8,-1,2.411
-14,-4,2.412
-17,-5,2.413
-21,-3,2.414
-22,-4,2.415
-22,-7,2.416
-20,-13,2.417
-14,-10,2.418
-5,-3,2.419
2,1,2.42
6,2,2.421
9,4,2.422
14,6,2.423
19,5,2.424
20,2,2.425
20,2,2.426
19,5,2.427
17,4,2.428
11,0,2.429
4,-2,2.43
0,-2,2.431
-4,-3,2.432
-11,-3,2.433
-19,-3,2.434
-20,-3,2.435
-18,-5,2.436
-15,-7,2.437
-9,-7,2.438
3,-4,2.439
16,-1,2.44
19,1,2.441
16,4,2.442
18,6,2.443
24,4,2.444
27,3,2.445
24,4,2.446
18,4,2.447
13,0,2.448
4,-5,2.449
-5,-5,2.45
-10,-4,2.451
-13,-5,2.452
-13,-5,2.453
-18,-8,2.454
-21,-8,2.455
-23,-9,2.456
-19,-8,2.457
-10,-6,2.458
2,-2,2.459
13,2,2.46
16,4,2.461
14,6,2.462
16,6,2.463
25,7,2.464
31,5,2.465
26,3,2.466
16,1,2.467
8,0,2.468
4,-1,2.469
0,-2,2.47
-7,-4,2.471
-12,-6,2.472
-14,-6,2.473
-18,-4,2.474
-21,-2,2.475
-23,-2,2.476
-22,-7,2.477
-17,-7,2.478
-5,-3,2.479
7,0,2.48
15,2,2.481
16,5,2.482
18,7,2.483
24,5,2.484
27,4,2.485
23,3,2.486
16,2,2.487
11,-1,2.488
8,-1,2.489
1,1,2.49
-4,2,2.491
-7,-1,2.492
-7,-3,2.493
-12,-2,2.494
-16,-2,2.495
-19,-2,2.496
-13,-7,2.497
-7,-8,2.498
1,-7,2.499
8,-5,2.5
13,-1,2.501
18,3,2.502
22,4,2.503
25,3,2.504
25,4,2.505
24,6,2.506
20,4,2.507
15,-2,2.508
7,-6,2.509
-1,-5,2.51
-7,0,2.511
-13,1,2.512
-17,-1,2.513
-20,-6,2.514
-22,-8,2.515
-23,-9,2.516
-21,-9,2.517
-18,-5,2.518
-9,-1,2.519
2,1,2.52
12,1,2.521
16,3,2.522
21,5,2.523
27,4,2.524
27,3,2.525
21,3,2.526
16,4,2.527
13,3,2.528
7,-3,2.529
-3,-7,2.53
-12,-5,2.531
-14,-2,2.532
-13,0,2.533
-15,-2,2.534
-18,-3,2.535
-19,-5,2.536
-19,-6,2.537
-14,-7,2.538
-2,-6,2.539
10,-4,2.54
15,0,2.541
12,4,2.542
15,7,2.543
25,9,2.544
30,5,2.545
23,1,2.546
14,2,2.547
10,2,2.548
8,0,2.549
0,-2,2.55
-6,-6,2.551
-8,-8,2.552
-9,-6,2.553
-15,-4,2.554
-21,-7,2.555
-22,-11,2.556
-16,-14,2.557
-9,-10,2.558
-2,-3,2.559
8,0,2.56
17,3,2.561
18,5,2.562
19,7,2.563
24,5,2.564
28,5,2.565
24,6,2.566
18,3,2.567
12,-2,2.568
2,-4,2.569
-6,-4,2.57
-10,-4,2.571
-10,-4,2.572
-10,-5,2.573
-14,-3,2.574
-17,-3,2.575
-17,0,2.576
-17,-1,2.577
-11,-1,2.578
2,-2,2.579
15,0,2.58
17,6,2.581
14,10,2.582
19,6,2.583
28,-1,2.584
28,-1,2.585
19,3,2.586
11,4,2.587
9,0,2.588
4,-6,2.589
-4,-5,2.59
-12,-4,2.591
-15,-4,2.592
-13,-4,2.593
-18,-5,2.594
-20,-4,2.595
-19,-5,2.596
-16,-9,2.597
-10,-8,2.598
0,-5,2.599
12,-2,2.6
18,0,2.601
17,2,2.602
17,4,2.603
20,3,2.604
23,2,2.605
21,2,2.606
18,5,2.607
14,4,2.608
2,1,2.609
-8,-1,2.61
-12,-2,2.611
-12,0,2.612
-12,0,2.613
-17,-1,2.614
-17,0,2.615
-15,0,2.616
-15,-2,2.617
-13,-5,2.618
-3,-4,2.619
12,-1,2.62
20,4,2.621
19,10,2.622
18,9,2.623
21,7,2.624
26,5,2.625
24,3,2.626
18,0,2.627
12,-2,2.628
3,-2,2.629
-3,-1,2.63
-8,-1,2.631
-11,-2,2.632
-13,-4,2.633
-15,-6,2.634
-14,-4,2.635
-14,-3,2.636
-13,-6,2.637
-6,-7,2.638
5,-5,2.639
15,-3,2.64
19,0,2.641
18,2,2.642
20,2,2.643
24,2,2.644
23,4,2.645
17,1,2.646
12,-2,2.647
6,-4,2.648
1,-1,2.649
-3,3,2.65
-7,3,2.651
-15,0,2.652
-20,0,2.653
-19,2,2.654
-15,1,2.655
-16,-4,2.656
-16,-8,2.657
-10,-6,2.658
2,-5,2.659
15,-5,2.66
18,-3,2.661
18,6,2.662
22,10,2.663
25,6,2.664
24,-1,2.665
19,-1,2.666
15,3,2.667
9,1,2.668
1,-4,2.669
-6,-5,2.67
-9,-6,2.671
-12,-8,2.672
-15,-7,2.673
-20,-5,2.674
-22,-2,2.675
-22,-4,2.676
-16,-7,2.677
-7,-4,2.678
5,-1,2.679
13,-1,2.68
15,0,2.681
14,5,2.682
17,8,2.683
22,5,2.684
24,2,2.685
22,3,2.686
18,4,2.687
13,-2,2.688
5,-5,2.689
-4,-2,2.69
-10,0,2.691
-12,-3,2.692
-12,-5,2.693
-12,-5,2.694
-13,-6,2.695
-15,-7,2.696
-14,-7,2.697
-7,-6,2.698
4,-3,2.699
17,0,2.7
21,2,2.701
17,5,2.702
16,5,2.703
21,4,2.704
24,4,2.705
20,4,2.706
11,3,2.707
6,1,2.708
0,0,2.709
-7,-3,2.71
-14,-3,2.711
-13,-4,2.712
-9,-4,2.713
-12,-4,2.714
-20,-4,2.715
-23,-5,2.716
-17,-7,2.717
-8,-5,2.718
-1,-1,2.719
7,2,2.72
15,4,2.721
19,6,2.722
19,4,2.723
19,1,2.724
22,1,2.725
23,0,2.726
18,-1,2.727
9,-5,2.728
0,-7,2.729
-6,-5,2.73
-10,-4,2.731
-13,-6,2.732
-15,-6,2.733
-18,-6,2.734
-20,-6,2.735
-21,-6,2.736
-16,-5,2.737
-9,-2,2.738
3,-1,2.739
13,3,2.74
19,7,2.741
24,10,2.742
26,7,2.743
28,2,2.744
26,2,2.745
23,5,2.746
16,5,2.747
9,0,2.748
2,-3,2.749
-4,-2,2.75
-10,-2,2.751
-15,-5,2.752
-16,-3,2.753
-19,-4,2.754
-19,-4,2.755
-21,-5,2.756
-20,-9,2.757
-13,-12,2.758
1,-6,2.759
16,-1,2.76
21,4,2.761
18,9,2.762
18,7,2.763
24,5,2.764
28,2,2.765
22,0,2.766
14,1,2.767
7,2,2.768
4,0,2.769
-1,-1,2.77
-8,-2,2.771
-13,-3,2.772
-14,-5,2.773
-14,-7,2.774
-14,-2,2.775
-16,-3,2.776
-16,-8,2.777
-13,-9,2.778
0,-4,2.779
14,0,2.78
19,2,2.781
16,4,2.782
16,4,2.783
20,1,2.784
20,-2,2.785
18,2,2.786
15,5,2.787
12,4,2.788
4,-2,2.789
-5,-5,2.79
-10,-5,2.791
-11,-4,2.792
-10,-3,2.793
-14,-2,2.794
-15,-1,2.795
-16,-2,2.796
-13,-6,2.797
-8,-6,2.798
1,-2,2.799
11,3,2.8
15,8,2.801
19,9,2.802
20,6,2.803
21,2,2.804
18,0,2.805
15,0,2.806
10,0,2.807
5,-2,2.808
1,-4,2.809
-3,-4,2.81
-11,-6,2.811
-17,-8,2.812
-17,-8,2.813
-17,-6,2.814
-18,-3,2.815
-17,-4,2.816
-13,-8,2.817
-6,-5,2.818
4,-1,2.819
13,1,2.82
18,3,2.821
17,5,2.822
18,5,2.823
21,2,2.824
23,1,2.825
21,6,2.826
15,8,2.827
8,2,2.828
1,-4,2.829
-4,-2,2.83
-7,3,2.831
-8,3,2.832
-10,-1,2.833
-16,-5,2.834
-19,-6,2.835
-16,-6,2.836
-8,-11,2.837
-1,-10,2.838
7,-5,2.839
16,0,2.84
20,3,2.841
22,6,2.842
22,6,2.843
23,1,2.844
23,-1,2.845
18,-1,2.846
12,0,2.847
6,0,2.848
0,-2,2.849
-7,-2,2.85
-10,-2,2.851
-13,-4,2.852
-16,-7,2.853
-20,-6,2.854
-20,-3,2.855
-16,1,2.856
-10,-4,2.857
-3,-7,2.858
7,-4,2.859
15,3,2.86
17,9,2.861
18,12,2.862
21,10,2.863
23,6,2.864
19,3,2.865
13,2,2.866
12,-1,2.867
9,-6,2.868
0,-7,2.869
-7,-6,2.87
-7,-4,2.871
-7,-6,2.872
-10,-8,2.873
-18,-8,2.874
-17,-5,2.875
-16,-3,2.876
-17,-5,2.877
-15,-5,2.878
-4,-3,2.879
12,0,2.88
21,4,2.881
22,6,2.882
22,6,2.883
25,4,2.884
25,4,2.885
21,5,2.886
16,3,2.887
11,-3,2.888
3,-3,2.889
-5,1,2.89
-12,2,2.891
-16,-3,2.892
-17,-6,2.893
-18,-5,2.894
-17,-2,2.895
-18,0,2.896
-17,-2,2.897
-10,-1,2.898
4,-1,2.899
17,-1,2.9
21,1,2.901
20,6,2.902
22,7,2.903
24,4,2.904
23,3,2.905
18,3,2.906
9,0,2.907
0,-3,2.908
-4,-4,2.909
-8,-1,2.91
-10,-1,2.911
-13,-5,2.912
-15,-7,2.913
-17,-7,2.914
-18,-7,2.915
-16,-8,2.916
-13,-10,2.917
-6,-7,2.918
6,-2,2.919
18,1,2.92
21,3,2.921
18,3,2.922
16,6,2.923
19,5,2.924
21,3,2.925
19,-1,2.926
14,-3,2.927
8,-2,2.928
2,-1,2.929
-5,-5,2.93
-10,-6,2.931
-13,-4,2.932
-14,0,2.933
-15,-2,2.934
-17,-4,2.935
-16,-4,2.936
-10,-2,2.937
-3,0,2.938
5,-1,2.939
15,-2,2.94
21,0,2.941
23,5,2.942
26,8,2.943
28,10,2.944
24,9,2.945
16,5,2.946
5,-1,2.947
1,-5,2.948
-2,-4,2.949
-5,-1,2.95
-11,0,2.951
-14,-1,2.952
-14,0,2.953
-16,0,2.954
-16,0,2.955
-17,-3,2.956
-15,-8,2.957
-8,-7,2.958
6,-2,2.959
18,1,2.96
22,1,2.961
18,1,2.962
16,0,2.963
20,0,2.964
21,2,2.965
19,4,2.966
14,5,2.967
9,3,2.968
3,0,2.969
-5,-2,2.97
-13,-5,2.971
-18,-5,2.972
-19,-2,2.973
-21,-5,2.974
-19,-7,2.975
-15,-8,2.976
-10,-8,2.977
-6,-7,2.978
1,-7,2.979
13,-5,2.98
24,0,2.981
27,4,2.982
24,5,2.983
23,3,2.984
21,2,2.985
17,3,2.986
10,3,2.987
5,1,2.988
2,0,2.989
-4,0,2.99
-13,-2,2.991
-19,-6,2.992
-19,-5,2.993
-17,0,2.994
-17,3,2.995
-18,1,2.996
-16,-6,2.997
-6,-6,2.998
7,-2,2.999
17,-1,3.0
19,0,3.001
17,3,3.002
20,6,3.003
23,5,3.004
21,3,3.005
13,5,3.006
4,5,3.007
2,1,3.008
4,-4,3.009
0,-7,3.01
-8,-5,3.011
-12,-3,3.012
-11,-3,3.013
-13,-6,3.014
-14,-6,3.015
-14,-4,3.016
-12,-2,3.017
-11,-1,3.018
-5,-1,3.019
8,0,3.02
20,0,3.021
23,1,3.022
20,1,3.023
21,2,3.024
23,4,3.025
20,5,3.026
15,2,3.027
11,0,3.028
6,0,3.029
-3,0,3.03
-11,-1,3.031
-12,-3,3.032
-10,-4,3.033
-14,-5,3.034
-18,-5,3.035
-19,-5,3.036
-11,-4,3.037
-2,0,3.038
6,2,3.039
15,3,3.04
21,5,3.041
23,10,3.042
24,10,3.043
26,5,3.044
26,1,3.045
21,1,3.046
10,0,3.047
0,-2,3.048
-5,-4,3.049
-10,-3,3.05
-13,-3,3.051
-16,-5,3.052
-17,-5,3.053
-19,-5,3.054
-20,-4,3.055
-20,-6,3.056
-15,-8,3.057
-6,-5,3.058
3,-2,3.059
13,3,3.06
17,8,3.061
17,12,3.062
20,9,3.063
22,5,3.064
22,3,3.065
17,4,3.066
9,1,3.067
5,-2,3.068
-1,-3,3.069
-8,-2,3.07
-12,-4,3.071
-13,-9,3.072
-14,-10,3.073
-17,-8,3.074
-16,-8,3.075
-10,-8,3.076
-4,-6,3.077
-2,1,3.078
3,5,3.079
14,1,3.08
22,0,3.081
23,3,3.082
22,6,3.083
22,3,3.084
21,2,3.085
16,2,3.086
10,0,3.087
7,-5,3.088
2,-7,3.089
-5,-5,3.09
-12,-2,3.091
-13,-3,3.092
-13,-4,3.093
-15,-6,3.094
-16,-6,3.095
-14,-5,3.096
-9,-3,3.097
-3,-2,3.098
8,-2,3.099
21,-1,3.1
27,3,3.101
23,6,3.102
17,6,3.103
18,5,3.104
20,2,3.105
17,0,3.106
7,-1,3.107
-1,-2,3.108
-4,-3,3.109
-9,-5,3.11
-15,-5,3.111
-16,-5,3.112
-13,-6,3.113
-12,-6,3.114
-15,-5,3.115
-17,-3,3.116
-14,-4,3.117
-6,-3,3.118
4,-2,3.119
16,0,3.12
20,5,3.121
20,9,3.122
19,10,3.123
20,9,3.124
21,6,3.125
17,4,3.126
10,3,3.127
1,1,3.128
-5,-1,3.129
-11,-4,3.13
-13,-7,3.131
-14,-6,3.132
-16,-4,3.133
-19,-4,3.134
-17,-5,3.135
-10,-6,3.136
-6,-8,3.137
-5,-5,3.138
3,-1,3.139
19,1,3.14
27,4,3.141
22,8,3.142
19,9,3.143
26,8,3.144
28,6,3.145
18,5,3.146
2,5,3.147
-3,1,3.148
-1,-1,3.149
-3,-1,3.15
-10,-2,3.151
-15,-7,3.152
-14,-7,3.153
-15,-7,3.154
-16,-6,3.155
-15,-5,3.156
-11,-8,3.157
-3,-6,3.158
8,-1,3.159
22,0,3.16
27,-1,3.161
25,1,3.162
23,3,3.163
24,4,3.164
23,3,3.165
16,3,3.166
5,1,3.167
0,-4,3.168
-3,-8,3.169
-8,-7,3.17
-15,-3,3.171
-18,-4,3.172
-17,-5,3.173
-16,-5,3.174
-15,-3,3.175
-15,-1,3.176
-13,-4,3.177
-7,-6,3.178
5,-3,3.179
18,0,3.18
22,5,3.181
23,9,3.182
24,9,3.183
26,8,3.184
24,5,3.185
15,1,3.186
3,0,3.187
-1,-2,3.188
-2,-2,3.189
-7,-2,3.19
-16,-4,3.191
-22,-7,3.192
-19,-7,3.193
-14,-6,3.194
-9,-5,3.195
-8,-8,3.196
-8,-9,3.197
-4,-4,3.198
7,1,3.199
18,3,3.2
24,3,3.201
25,3,3.202
24,4,3.203
22,5,3.204
18,5,3.205
9,5,3.206
6,5,3.207
3,3,3.208
-4,-1,3.209
-11,-3,3.21
-16,-2,3.211
-15,0,3.212
-13,0,3.213
-16,-5,3.214
-18,-8,3.215
-14,-8,3.216
-10,-8,3.217
-6,-6,3.218
-3,-4,3.219
0,2,3.22
-1,7,3.221
-2,8,3.222
8,7,3.223
22,4,3.224
28,0,3.225
20,0,3.226
12,0,3.227
15,-1,3.228
18,-5,3.229
13,-6,3.23
0,-2,3.231
-17,1,3.232
-29,1,3.233
-31,-2,3.234
-17,-3,3.235
3,-1,3.236
15,-3,3.237
18,-2,3.238
28,2,3.239
38,5,3.24
40,3,3.241
36,0,3.242
32,1,3.243
23,3,3.244
1,3,3.245
-18,0,3.246
-20,-2,3.247
-13,-6,3.248
-15,-8,3.249
-20,-8,3.25
-13,-5,3.251
-2,-3,3.252
0,-5,3.253
-5,-7,3.254
-2,-5,3.255
11,-3,3.256
23,-4,3.257
45,-4,3.258
87,-1,3.259
130,1,3.26
126,2,3.261
66,3,3.262
-1,4,3.263
-36,5,3.264
-59,2,3.265
-99,0,3.266
-142,1,3.267
-141,0,3.268
-93,-5,3.269
-43,-9,3.27
-15,-4,3.271
-5,0,3.272
-2,0,3.273
-3,-1,3.274
3,-2,3.275
22,-2,3.276
35,-7,3.277
30,-9,3.278
21,-6,3.279
31,2,3.28
44,9,3.281
39,9,3.282
28,3,3.283
28,1,3.284
31,3,3.285
21,4,3.286
2,2,3.287
-4,-1,3.288
-4,-3,3.289
-12,-4,3.29
-22,-3,3.291
-28,-5,3.292
-31,-7,3.293
-33,-7,3.294
-23,-5,3.295
-2,-2,3.296
15,0,3.297
16,3,3.298
16,4,3.299
26,4,3.3
31,6,3.301
20,7,3.302
10,7,3.303
13,4,3.304
22,2,3.305
22,1,3.306
8,0,3.307
-10,-3,3.308
-24,-7,3.309
-34,-8,3.31
-35,-7,3.311
-33,-6,3.312
-37,-5,3.313
-40,-5,3.314
-31,-4,3.315
-14,-3,3.316
-1,-5,3.317
9,-5,3.318
26,1,3.319
45,13,3.32
49,27,3.321
38,32,3.322
30,19,3.323
31,-3,3.324
26,-19,3.325
11,-21,3.326
-3,-19,3.327
-5,-25,3.328
-6,-34,3.329
-13,-27,3.33
-18,-2,3.331
-15,15,3.332
-12,14,3.333
-14,-6,3.334
-12,-24,3.335
-6,-31,3.336
-3,-1,3.337
0,28,3.338
10,56,3.339
28,61,3.34
33,-5,3.341
25,-43,3.342
22,6,3.343
31,36,3.344
32,0,3.345
17,-24,3.346
-1,-8,3.347
-8,11,3.348
-10,35,3.349
-13,50,3.35
-12,37,3.351
-9,18,3.352
-6,-18,3.353
-8,-55,3.354
-7,-66,3.355
-3,-30,3.356
0,-2,3.357
1,-4,3.358
5,-13,3.359
13,-8,3.36
17,9,3.361
16,23,3.362
19,27,3.363
22,10,3.364
19,-10,3.365
8,-6,3.366
-3,17,3.367
-8,22,3.368
-13,3,3.369
-19,15,3.37
-22,86,3.371
-21,135,3.372
-20,68,3.373
-19,-115,3.374
-15,-238,3.375
-9,-173,3.376
-5,-7,3.377
-4,68,3.378
5,4,3.379
22,-63,3.38
34,-35,3.381
32,18,3.382
21,3,3.383
17,-43,3.384
16,-38,3.385
10,4,3.386
-3,20,3.387
-15,15,3.388
-23,34,3.389
-30,57,3.39
-31,21,3.391
-26,-45,3.392
-22,-53,3.393
-18,30,3.394
-11,135,3.395
0,169,3.396
11,115,3.397
17,37,3.398
25,-23,3.399
40,-74,3.4
47,-124,3.401
45,-131,3.402
45,-56,3.403
49,56,3.404
45,128,3.405
24,140,3.406
-3,132,3.407
-18,113,3.408
-22,34,3.409
-27,-114,3.41
-32,-245,3.411
-32,-272,3.412
-28,-204,3.413
-24,-117,3.414
-21,-49,3.415
-17,34,3.416
-13,163,3.417
-9,267,3.418
0,292,3.419
18,261,3.42
29,55,3.421
29,-111,3.422
24,-160,3.423
23,-191,3.424
19,-165,3.425
9,-128,3.426
-3,-56,3.427
-8,-4,3.428
-11,-13,3.429
-12,-11,3.43
-8,29,3.431
-3,55,3.432
1,33,3.433
1,7,3.434
3,-16,3.435
3,-20,3.436
3,-30,3.437
7,-25,3.438
22,6,3.439
34,37,3.44
33,36,3.441
24,17,3.442
22,5,3.443
27,-2,3.444
21,-13,3.445
4,-19,3.446
-9,-9,3.447
-15,-3,3.448
-21,-28,3.449
-27,-73,3.45
-26,-94,3.451
-19,-67,3.452
-11,-9,3.453
-10,43,3.454
-9,73,3.455
-8,96,3.456
-9,128,3.457
-7,152,3.458
0,113,3.459
10,7,3.46
17,-79,3.461
21,-77,3.462
28,-13,3.463
36,20,3.464
38,-5,3.465
37,-35,3.466
35,-28,3.467
30,2,3.468
13,35,3.469
-12,67,3.47
-40,78,3.471
-63,30,3.472
-74,-51,3.473
-66,-96,3.474
-41,-61,3.475
-25,-28,3.476
-29,-92,3.477
-33,-194,3.478
4,-162,3.479
85,64,3.48
159,304,3.481
166,311,3.482
104,61,3.483
27,-197,3.484
-9,-225,3.485
-12,-49,3.486
-19,104,3.487
-46,103,3.488
-70,36,3.489
-72,16,3.49
-58,1,3.491
-47,-71,3.492
-38,-125,3.493
-33,-54,3.494
-25,78,3.495
-22,90,3.496
-14,-41,3.497
0,-132,3.498
13,-84,3.499
21,-10,3.5
25,-1,3.501
29,7,3.502
31,69,3.503
29,96,3.504
27,23,3.505
26,-62,3.506
23,-61,3.507
17,-14,3.508
13,3,3.509
8,11,3.51
0,44,3.511
-9,52,3.512
-16,-7,3.513
-13,-58,3.514
-6,-23,3.515
-3,14,3.516
-5,54,3.517
-2,100,3.518
6,161,3.519
5,175,3.52
-7,44,3.521
-15,-61,3.522
-9,-91,3.523
-6,-73,3.524
-22,92,3.525
-35,207,3.526
-14,167,3.527
43,135,3.528
102,128,3.529
130,36,3.53
120,-308,3.531
86,-488,3.532
39,-173,3.533
-19,169,3.534
-69,350,3.535
-101,40,3.536
-101,-422,3.537
-61,-596,3.538
5,-399,3.539
54,-118,3.54
52,-59,3.541
17,-217,3.542
-3,-288,3.543
5,-42,3.544
13,358,3.545
-5,537,3.546
-34,376,3.547
-62,125,3.548
-85,31,3.549
-99,49,3.55
-85,34,3.551
-55,13,3.552
-51,89,3.553
-86,218,3.554
-101,238,3.555
-29,136,3.556
104,84,3.557
212,149,3.558
240,156,3.559
202,-11,3.56
126,-131,3.561
36,93,3.562
-24,555,3.563
-15,717,3.564
27,212,3.565
30,-648,3.566
-8,-1124,3.567
-23,-870,3.568
20,-295,3.569
71,-13,3.57
70,-104,3.571
19,-174,3.572
-26,-14,3.573
-26,186,3.574
26,222,3.575
67,216,3.576
23,86,3.577
-96,25,3.578
-189,173,3.579
-190,243,3.58
-143,79,3.581
-129,-73,3.582
-132,-193,3.583
-100,-231,3.584
-74,-22,3.585
-125,71,3.586
-196,-184,3.587
-147,-311,3.588
31,-51,3.589
196,146,3.59
266,154,3.591
319,125,3.592
404,-12,3.593
437,-135,3.594
330,-146,3.595
146,-48,3.596
19,25,3.597
-30,10,3.598
-66,18,3.599
-97,132,3.6
-94,280,3.601
-75,342,3.602
-77,227,3.603
-87,-77,3.604
-77,-336,3.605
-67,-161,3.606
-77,347,3.607
-89,429,3.608
-78,-327,3.609
-64,-1146,3.61
-69,-1001,3.611
-74,-113,3.612
-58,416,3.613
-26,247,3.614
5,27,3.615
30,211,3.616
39,403,3.617
22,260,3.618
-8,102,3.619
-26,228,3.62
-32,373,3.621
-45,278,3.622
-63,140,3.623
-60,164,3.624
-32,202,3.625
-9,100,3.626
-16,-21,3.627
-29,-51,3.628
-13,-60,3.629
22,-94,3.63
35,-101,3.631
19,-85,3.632
9,-84,3.633
22,-41,3.634
39,51,3.635
32,17,3.636
15,-231,3.637
17,-442,3.638
34,-372,3.639
45,-153,3.64
42,-39,3.641
36,-19,3.642
35,30,3.643
35,44,3.644
29,-69,3.645
24,-177,3.646
30,-116,3.647
44,44,3.648
52,152,3.649
46,196,3.65
43,171,3.651
45,-16,3.652
28,-284,3.653
-24,-363,3.654
-66,-89,3.655
-56,243,3.656
-25,214,3.657
-31,-172,3.658
-73,-577,3.659
-83,-729,3.66
-50,-513,3.661
-34,113,3.662
-70,894,3.663
-116,1222,3.664
-94,789,3.665
18,112,3.666
177,-79,3.667
307,156,3.668
346,189,3.669
286,-110,3.67
161,-226,3.671
4,76,3.672
-151,370,3.673
-260,293,3.674
-238,9,3.675
-79,-137,3.676
90,-116,3.677
143,-71,3.678
91,-49,3.679
23,-47,3.68
-52,-111,3.681
-188,-208,3.682
-344,-263,3.683
-357,-367,3.684
-147,-601,3.685
152,-669,3.686
302,-233,3.687
200,350,3.688
-33,322,3.689
-175,-258,3.69
-91,-381,3.691
141,418,3.692
315,1206,3.693
321,971,3.694
217,-99,3.695
112,-876,3.696
24,-812,3.697
-82,-355,3.698
-137,3,3.699
-48,264,3.7
110,479,3.701
168,445,3.702
101,2,3.703
40,-712,3.704
28,-1316,3.705
-32,-1348,3.706
-181,-620,3.707
-313,360,3.708
-321,696,3.709
-204,192,3.71
-31,-244,3.711
110,285,3.712
161,1397,3.713
138,2125,3.714
120,1833,3.715
123,867,3.716
70,-56,3.717
-57,-547,3.718
-133,-550,3.719
-87,-167,3.72
-30,293,3.721
-83,442,3.722
-178,189,3.723
-181,-162,3.724
-105,-288,3.725
-53,-205,3.726
-46,-145,3.727
-39,-239,3.728
-31,-424,3.729
-31,-567,3.73
8,-575,3.731
100,-454,3.732
157,-302,3.733
110,-149,3.734
23,58,3.735
1,306,3.736
33,359,3.737
40,-2,3.738
32,-660,3.739
77,-1254,3.74
166,-1650,3.741
211,-2071,3.742
175,-2536,3.743
98,-2360,3.744
11,-733,3.745
-77,1936,3.746
-149,3844,3.747
-184,3655,3.748
-204,2081,3.749
-224,923,3.75
-216,722,3.751
-135,653,3.752
-11,325,3.753
110,167,3.754
204,268,3.755
295,-71,3.756
378,-955,3.757
383,-1302,3.758
264,-434,3.759
74,786,3.76
-89,1048,3.761
-188,96,3.762
-244,-1301,3.763
-277,-2142,3.764
-279,-1676,3.765
-233,34,3.766
-145,1735,3.767
-36,2011,3.768
61,939,3.769
128,-42,3.77
174,-50,3.771
201,412,3.772
185,607,3.773
107,472,3.774
15,118,3.775
-18,-614,3.776
18,-1570,3.777
57,-1999,3.778
42,-1566,3.779
-8,-1030,3.78
-38,-1181,3.781
-27,-1574,3.782
4,-1195,3.783
14,-106,3.784
-20,652,3.785
-95,768,3.786
-161,1104,3.787
-167,2060,3.788
-109,2699,3.789
-33,2203,3.79
0,1207,3.791
-48,733,3.792
-154,678,3.793
-248,388,3.794
-242,16,3.795
-158,-207,3.796
-102,17,3.797
-101,46,3.798
-56,-514,3.799
77,-992,3.8
212,-1224,3.801
281,-1334,3.802
344,-1078,3.803
426,-663,3.804
420,225,3.805
259,785,3.806
43,357,3.807
-96,-84,3.808
-167,-568,3.809
-214,-1141,3.81
-192,-1981,3.811
-77,-2292,3.812
19,-1018,3.813
-7,421,3.814
-105,1803,3.815
-134,1916,3.816
-61,1367,3.817
18,905,3.818
32,521,3.819
-1,53,3.82
-29,-146,3.821
-7,190,3.822
98,544,3.823
255,270,3.824
341,-457,3.825
269,-1075,3.826
97,-1587,3.827
-29,-2169,3.828
-57,-2187,3.829
-47,-769,3.83
-64,1605,3.831
-99,3205,3.832
-118,3112,3.833
-82,1927,3.834
5,830,3.835
76,213,3.836
96,-117,3.837
87,-162,3.838
-6,-1,3.839
-84,-82,3.84
-116,-530,3.841
-138,-758,3.842
-130,-444,3.843
-120,-184,3.844
-110,-404,3.845
-85,-488,3.846
-15,90,3.847
71,636,3.848
208,274,3.849
266,-678,3.85
85,-1375,3.851
-52,-1600,3.852
-56,-1416,3.853
-47,-498,3.854
-42,960,3.855
-119,1874,3.856
-197,1654,3.857
-270,1102,3.858
-349,945,3.859
-327,702,3.86
-121,-102,3.861
122,-858,3.862
202,-970,3.863
173,-779,3.864
243,-602,3.865
391,-167,3.866
370,412,3.867
129,459,3.868
-85,2,3.869
-86,-125,3.87
39,227,3.871
132,322,3.872
161,9,3.873
104,-143,3.874
-49,6,3.875
-186,-1,3.876
-124,-426,3.877
114,-644,3.878
280,-284,3.879
218,122,3.88
44,133,3.881
-61,57,3.882
-73,192,3.883
-77,273,3.884
-98,46,3.885
-91,-299,3.886
-32,-559,3.887
24,-743,3.888
9,-723,3.889
-85,-272,3.89
-210,403,3.891
-318,752,3.892
-363,623,3.893
-301,299,3.894
-116,153,3.895
107,50,3.896
259,-77,3.897
320,-98,3.898
332,-24,3.899
288,-55,3.9
166,-281,3.901
47,-555,3.902
49,-639,3.903
139,-368,3.904
149,148,3.905
13,390,3.906
-152,-86,3.907
-221,-866,3.908
-189,-901,3.909
-125,166,3.91
-72,1397,3.911
-58,1703,3.912
-90,1171,3.913
-132,480,3.914
-143,-29,3.915
-94,-659,3.916
-34,-1421,3.917
0,-1586,3.918
31,-630,3.919
85,855,3.92
141,1708,3.921
165,1507,3.922
142,853,3.923
78,365,3.924
5,12,3.925
-20,-375,3.926
19,-573,3.927
65,-350,3.928
61,25,3.929
21,148,3.93
-4,27,3.931
-6,-110,3.932
-8,-234,3.933
-10,-398,3.934
-6,-404,3.935
-25,-82,3.936
-67,331,3.937
-94,465,3.938
-76,287,3.939
-42,23,3.94
-27,-190,3.941
-20,-321,3.942
6,-267,3.943
37,8,3.944
42,296,3.945
19,340,3.946
-4,134,3.947
-15,-135,3.948
-13,-303,3.949
-4,-302,3.95
12,-169,3.951
34,-43,3.952
54,-45,3.953
39,-149,3.954
-32,-216,3.955
-145,-192,3.956
-234,-131,3.957
-258,-51,3.958
-211,48,3.959
-97,92,3.96
71,20,3.961
214,-83,3.962
236,-112,3.963
157,-147,3.964
91,-343,3.965
62,-605,3.966
-13,-615,3.967
-107,-222,3.968
-56,327,3.969
137,655,3.97
242,647,3.971
154,481,3.972
93,345,3.973
240,234,3.974
411,125,3.975
297,50,3.976
-39,40,3.977
-247,55,3.978
-188,43,3.979
-52,28,3.98
-12,36,3.981
-33,34,3.982
-35,-7,3.983
-32,-51,3.984
-50,-79,3.985
-63,-154,3.986
-54,-316,3.987
-48,-439,3.988
-66,-343,3.989
-87,-44,3.99
-92,224,3.991
-73,278,3.992
-46,187,3.993
-40,108,3.994
-61,98,3.995
-94,83,3.996
-80,28,3.997
-12,-5,3.998
49,8,3.999
59,20,4.0
33,13,4.001
10,-3,4.002
-2,-55,4.003
-10,-156,4.004
-8,-208,4.005
12,-124,4.006
41,-15,4.007
58,-56,4.008
40,-184,4.009
-8,-156,4.01
-59,68,4.011
-85,246,4.012
-89,229,4.013
-69,138,4.014
-8,148,4.015
79,213,4.016
125,185,4.017
85,75,4.018
8,4,4.019
-33,2,4.02
-34,0,4.021
-19,-22,4.022
18,-35,4.023
73,-35,4.024
80,-44,4.025
1,-58,4.026
-86,-60,4.027
-87,-57,4.028
-36,-66,4.029
-30,-83,4.03
-51,-114,4.031
-2,-170,4.032
112,-224,4.033
193,-212,4.034
183,-112,4.035
140,-22,4.036
132,-50,4.037
134,-128,4.038
103,-109,4.039
57,28,4.04
22,155,4.041
-11,200,4.042
-57,233,4.043
-99,296,4.044
-138,310,4.045
-190,218,4.046
-232,90,4.047
-210,19,4.048
-120,6,4.049
-26,17,4.05
25,42,4.051
52,57,4.052
97,26,4.053
161,-32,4.054
198,-55,4.055
151,-38,4.056
24,-37,4.057
-86,-60,4.058
-77,-65,4.059
24,-46,4.06
82,-40,4.061
36,-36,4.062
-24,-8,4.063
-14,5,4.064
16,-47,4.065
-1,-133,4.066
-38,-157,4.067
-37,-110,4.068
-20,-57,4.069
-33,-33,4.07
-56,-14,4.071
-47,5,4.072
-20,9,4.073
-17,0,4.074
-24,4,4.075
-14,18,4.076
17,13,4.077
38,0,4.078
39,6,4.079
22,23,4.08
-11,24,4.081
-52,10,4.082
-84,5,4.083
-88,9,4.084
-53,8,4.085
14,2,4.086
86,3,4.087
125,7,4.088
120,1,4.089
88,-7,4.09
46,-7,4.091
3,-1,4.092
-23,2,4.093
-23,2,4.094
-11,6,4.095
-11,4,4.096
-18,-4,4.097
-7,-6,4.098
15,1,4.099
23,4,4.1
14,2,4.101
7,3,4.102
9,8,4.103
6,8,4.104
-3,4,4.105
-9,4,4.106
-8,7,4.107
-14,3,4.108
-25,-2,4.109
-26,-2,4.11
-22,2,4.111
-19,2,4.112
-15,-1,4.113
-7,-4,4.114
1,-3,4.115
-6,-3,4.116
-22,-9,4.117
-23,-13,4.118
3,-7,4.119
38,0,4.12
54,9,4.121
50,16,4.122
40,20,4.123
26,19,4.124
-3,2,4.125
-36,-14,4.126
-37,-27,4.127
-3,-34,4.128
31,-19,4.129
33,-2,4.13
20,23,4.131
17,41,4.132
18,35,4.133
2,24,4.134
-21,4,4.135
-30,-5,4.136
-20,-7,4.137
-8,-3,4.138
6,-2,4.139
36,0,4.14
67,6,4.141
67,8,4.142
24,1,4.143
-32,-6,4.144
-62,-1,4.145
-63,10,4.146
-56,9,4.147
-44,-4,4.148
-19,-12,4.149
10,-11,4.15
11,-9,4.151
-27,-14,4.152
-61,-17,4.153
-57,-14,4.154
-26,-10,4.155
-15,-9,4.156
-24,-12,4.157
-8,-12,4.158
47,-9,4.159
92,-6,4.16
85,0,4.161
56,5,4.162
60,12,4.163
92,25,4.164
87,45,4.165
32,49,4.166
-8,15,4.167
18,-46,4.168
64,-89,4.169
55,-86,4.17
-6,-56,4.171
-49,-27,4.172
-52,-11,4.173
-48,-10,4.174
-50,-18,4.175
-37,-27,4.176
-12,-21,4.177
-4,8,4.178
-10,39,4.179
3,54,4.18
26,60,4.181
24,62,4.182
4,58,4.183
1,45,4.184
13,34,4.185
7,28,4.186
-12,17,4.187
-19,2,4.188
-18,-2,4.189
-36,3,4.19
-58,1,4.191
-48,-10,4.192
-11,-16,4.193
22,-21,4.194
39,-34,4.195
47,-52,4.196
42,-52,4.197
18,-22,4.198
0,0,4.199
11,-27,4.2
32,-89,4.201
29,-128,4.202
2,-105,4.203
-11,-25,4.204
-3,72,4.205
1,135,4.206
-5,135,4.207
-12,93,4.208
-13,57,4.209
-15,49,4.21
-19,46,4.211
-17,26,4.212
-9,4,4.213
-4,-2,4.214
-1,0,4.215
1,-1,4.216
4,-11,4.217
5,-20,4.218
12,-20,4.219
23,-19,4.22
29,-16,4.221
24,-13,4.222
17,-15,4.223
18,-19,4.224
21,-23,4.225
24,-27,4.226
22,-26,4.227
17,-25,4.228
2,-26,4.229
-17,-25,4.23
-20,-19,4.231
-4,-13,4.232
12,-10,4.233
0,-7,4.234
-34,-4,4.235
-68,-1,4.236
-80,-4,4.237
-70,-4,4.238
-51,0,4.239
-35,9,4.24
-25,21,4.241
-15,32,4.242
2,39,4.243
25,42,4.244
41,37,4.245
36,20,4.246
14,-8,4.247
-5,-38,4.248
-1,-57,4.249
20,-59,4.25
39,-49,4.251
51,-32,4.252
60,-11,4.253
72,7,4.254
83,15,4.255
70,10,4.256
31,3,4.257
-12,6,4.258
-23,10,4.259
3,11,4.26
40,10,4.261
50,11,4.262
30,11,4.263
1,6,4.264
-24,4,4.265
-54,11,4.266
-88,17,4.267
-113,12,4.268
-108,3,4.269
-82,-1,4.27
-55,0,4.271
-33,2,4.272
-6,4,4.273
44,3,4.274
98,1,4.275
108,-3,4.276
59,-7,4.277
2,-3,4.278
2,0,4.279
45,-1,4.28
56,-1,4.281
21,3,4.282
10,6,4.283
58,2,4.284
93,-1,4.285
53,0,4.286
-2,0,4.287
9,-2,4.288
44,-5,4.289
-11,-4,4.29
-144,-3,4.291
-214,-6,4.292
-160,-5,4.293
-65,-3,4.294
-26,-3,4.295
-36,-4,4.296
-31,-6,4.297
-21,-8,4.298
-39,-4,4.299
-50,0,4.3
3,1,4.301
106,3,4.302
185,6,4.303
205,8,4.304
184,4,4.305
145,0,4.306
83,-4,4.307
9,-7,4.308
-37,-7,4.309
-30,-7,4.31
1,-7,4.311
12,-7,4.312
-6,-7,4.313
-29,-8,4.314
-40,-7,4.315
-52,-6,4.316
-68,-6,4.317
-69,-2,4.318
-41,2,4.319
1,5,4.32
29,6,4.321
36,4,4.322
32,0,4.323
19,-3,4.324
0,-3,4.325
-5,-1,4.326
17,-1,4.327
53,-3,4.328
62,-3,4.329
38,-2,4.33
4,-1,4.331
-23,-4,4.332
-48,-4,4.333
-78,-2,4.334
-90,1,4.335
-77,0,4.336
-58,-4,4.337
-47,-6,4.338
-30,-3,4.339
1,0,4.34
30,3,4.341
40,6,4.342
37,7,4.343
35,2,4.344
24,-2,4.345
1,-4,4.346
-15,-2,4.347
-12,-3,4.348
-5,-4,4.349
-12,-5,4.35
-17,-6,4.351
-13,-7,4.352
-4,-4,4.353
-2,-4,4.354
0,-3,4.355
4,-2,4.356
6,-1,4.357
7,1,4.358
29,4,4.359
71,5,4.36
96,9,4.361
73,11,4.362
25,10,4.363
-4,4,4.364
-5,2,4.365
-7,1,4.366
-29,0,4.367
-51,-3,4.368
-52,-3,4.369
-41,-1,4.37
-35,-2,4.371
-33,-6,4.372
-24,-6,4.373
-9,-4,4.374
1,0,4.375
2,3,4.376
5,-1,4.377
18,-3,4.378
33,1,4.379
38,4,4.38
35,8,4.381
30,10,4.382
26,6,4.383
20,1,4.384
13,0,4.385
5,-3,4.386
-2,-4,4.387
-7,-5,4.388
-11,-3,4.389
-13,-2,4.39
-13,-2,4.391
-9,-2,4.392
-1,2,4.393
6,6,4.394
7,9,4.395
3,8,4.396
4,0,4.397
12,-1,4.398
23,2,4.399
31,6,4.4
29,8,4.401
19,6,4.402
10,4,4.403
2,2,4.404
-3,-1,4.405
-15,-1,4.406
-26,-3,4.407
-26,-8,4.408
-16,-10,4.409
-10,-8,4.41
-16,-4,4.411
-21,-1,4.412
-12,2,4.413
2,5,4.414
4,6,4.415
-8,2,4.416
-12,-4,4.417
2,-4,4.418
14,-2,4.419
3,1,4.42
-10,4,4.421
3,7,4.422
29,1,4.423
25,-7,4.424
-15,-10,4.425
-38,-5,4.426
-12,-4,4.427
32,-9,4.428
52,-10,4.429
44,-2,4.43
37,1,4.431
39,-2,4.432
34,-1,4.433
17,3,4.434
-3,4,4.435
-12,-1,4.436
-8,-6,4.437
0,-2,4.438
0,3,4.439
-17,2,4.44
-28,3,4.441
-7,5,4.442
28,4,4.443
25,-1,4.444
-21,-1,4.445
-51,1,4.446
-37,-1,4.447
-18,-6,4.448
-13,-5,4.449
15,0,4.45
74,-1,4.451
90,-8,4.452
28,-7,4.453
-56,-1,4.454
-68,-1,4.455
-31,-5,4.456
-28,-10,4.457
-51,-7,4.458
-29,-4,4.459
28,-1,4.46
47,5,4.461
31,11,4.462
42,9,4.463
80,6,4.464
84,6,4.465
43,7,4.466
12,2,4.467
11,-6,4.468
3,-10,4.469
-22,-12,4.47
-28,-13,4.471
-9,-13,4.472
-4,-7,4.473
-30,0,4.474
-47,4,4.475
-34,3,4.476
-9,0,4.477
4,2,4.478
14,2,4.479
28,1,4.48
36,7,4.481
27,20,4.482
13,27,4.483
7,20,4.484
3,9,4.485
-9,2,4.486
-21,-4,4.487
-21,-10,4.488
-20,-13,4.489
-24,-18,4.49
-27,-28,4.491
-22,-39,4.492
-12,-32,4.493
-9,-10,4.494
-6,8,4.495
3,7,4.496
20,-1,4.497
35,-2,4.498
42,2,4.499
39,0,4.5
28,0,4.501
16,7,4.502
15,11,4.503
23,6,4.504
28,0,4.505
24,-1,4.506
18,-2,4.507
14,-6,4.508
5,-7,4.509
-11,0,4.51
-21,6,4.511
-23,6,4.512
-17,4,4.513
-16,0,4.514
-16,-4,4.515
-17,-3,4.516
-24,3,4.517
-29,12,4.518
-22,10,4.519
-4,-1,4.52
10,-6,4.521
12,-5,4.522
9,-5,4.523
10,-6,4.524
14,3,4.525
17,13,4.526
19,8,4.527
7,-8,4.528
-25,-16,4.529
-51,-12,4.53
-32,-8,4.531
25,-9,4.532
62,-5,4.533
47,0,4.534
13,0,4.535
4,-4,4.536
19,-7,4.537
24,0,4.538
16,6,4.539
17,7,4.54
35,7,4.541
51,8,4.542
48,1,4.543
26,-7,4.544
-5,-9,4.545
-32,-5,4.546
-45,-6,4.547
-46,-11,4.548
-50,-9,4.549
-60,2,4.55
-63,8,4.551
-48,8,4.552
-21,10,4.553
1,16,4.554
4,14,4.555
-20,10,4.556
-58,0,4.557
-70,-7,4.558
-32,-1,4.559
25,3,4.56
46,-1,4.561
30,-4,4.562
30,-4,4.563
74,-5,4.564
120,-9,4.565
117,-12,4.566
63,-11,4.567
-2,-10,4.568
-36,-9,4.569
-23,-7,4.57
12,-4,4.571
23,-2,4.572
-1,-2,4.573
-30,-3,4.574
-21,-2,4.575
0,-1,4.576
1,-2,4.577
-11,-1,4.578
-1,0,4.579
18,-1,4.58
16,0,4.581
0,5,4.582
3,7,4.583
17,3,4.584
13,-1,4.585
-1,-3,4.586
2,-4,4.587
16,-6,4.588
10,-8,4.589
-16,-8,4.59
-30,-9,4.591
-27,-8,4.592
-21,-1,4.593
-21,0,4.594
-12,-6,4.595
9,-15,4.596
17,-20,4.597
0,-10,4.598
-23,-3,4.599
-48,-2,4.6
-72,-2,4.601
-74,1,4.602
-25,2,4.603
55,-2,4.604
95,-7,4.605
64,-5,4.606
27,-2,4.607
51,1,4.608
112,5,4.609
125,10,4.61
71,15,4.611
9,22,4.612
-17,34,4.613
-13,37,4.614
7,17,4.615
39,-26,4.616
67,-66,4.617
51,-79,4.618
-16,-68,4.619
-85,-43,4.62
-97,-7,4.621
-54,27,4.622
-4,37,4.623
24,20,4.624
39,2,4.625
51,5,4.626
41,16,4.627
-4,16,4.628
-63,10,4.629
-93,11,4.63
-91,16,4.631
-81,12,4.632
-70,8,4.633
-56,7,4.634
-39,10,4.635
-30,8,4.636
-26,0,4.637
-6,0,4.638
25,8,4.639
40,14,4.64
29,16,4.641
15,17,4.642
26,16,4.643
52,9,4.644
63,1,4.645
52,-3,4.646
34,-1,4.647
22,-3,4.648
14,-8,4.649
5,-13,4.65
-4,-17,4.651
-11,-17,4.652
-8,-14,4.653
-3,-8,4.654
-5,-1,4.655
-21,5,4.656
-38,3,4.657
-43,1,4.658
-23,2,4.659
22,7,4.66
75,12,4.661
93,10,4.662
57,4,4.663
0,0,4.664
-23,1,4.665
-9,5,4.666
-5,10,4.667
-31,13,4.668
-49,16,4.669
-34,26,4.67
-21,35,4.671
-46,33,4.672
-80,8,4.673
-75,-39,4.674
-21,-83,4.675
35,-98,4.676
54,-86,4.677
53,-56,4.678
67,-13,4.679
88,25,4.68
82,42,4.681
39,34,4.682
-11,22,4.683
-30,20,4.684
-26,17,4.685
-18,2,4.686
-19,-16,4.687
-13,-21,4.688
8,-12,4.689
40,0,4.69
64,18,4.691
63,38,4.692
37,45,4.693
0,20,4.694
-29,-19,4.695
-54,-31,4.696
-78,-10,4.697
-83,17,4.698
-50,21,4.699
-1,12,4.7
28,11,4.701
30,14,4.702
28,5,4.703
34,-11,4.704
41,-15,4.705
40,0,4.706
34,19,4.707
28,27,4.708
12,16,4.709
-13,-12,4.71
-35,-47,4.711
-48,-76,4.712
-51,-91,4.713
-54,-92,4.714
-51,-71,4.715
-28,-24,4.716
14,23,4.717
52,49,4.718
60,56,4.719
40,59,4.72
15,61,4.721
-10,50,4.722
-37,32,4.723
-59,23,4.724
-50,22,4.725
-4,14,4.726
49,-1,4.727
75,-10,4.728
64,-8,4.729
25,-7,4.73
-23,-14,4.731
-51,-18,4.732
-36,-13,4.733
9,-10,4.734
42,-8,4.735
30,-8,4.736
-7,-14,4.737
-22,-18,4.738
-7,-16,4.739
8,-14,4.74
3,-8,4.741
-2,-4,4.742
18,-5,4.743
53,-6,4.744
71,-6,4.745
66,-7,4.746
60,-11,4.747
58,-14,4.748
33,-13,4.749
-25,-12,4.75
-81,-13,4.751
-93,-14,4.752
-70,-10,4.753
-51,-5,4.754
-48,-8,4.755
-34,-9,4.756
9,-8,4.757
50,-3,4.758
54,1,4.759
27,0,4.76
1,0,4.761
-8,6,4.762
-16,14,4.763
-34,16,4.764
-58,11,4.765
-73,9,4.766
-78,9,4.767
-70,5,4.768
-39,-3,4.769
23,-8,4.77
94,-4,4.771
133,0,4.772
128,-1,4.773
91,-6,4.774
58,-10,4.775
31,-7,4.776
7,-3,4.777
-9,4,4.778
-4,13,4.779
21,24,4.78
46,30,4.781
47,33,4.782
29,32,4.783
11,33,4.784
3,39,4.785
-1,35,4.786
-16,4,4.787
-37,-52,4.788
-54,-101,4.789
-63,-112,4.79
-67,-86,4.791
-58,-41,4.792
-26,3,4.793
17,35,4.794
42,32,4.795
37,11,4.796
20,-2,4.797
5,4,4.798
-13,17,4.799
-32,19,4.8
-38,15,4.801
-21,7,4.802
3,-2,4.803
12,-3,4.804
11,13,4.805
14,32,4.806
23,39,4.807
38,38,4.808
58,27,4.809
73,-5,4.81
55,-49,4.811
-3,-65,4.812
-57,-42,4.813
-72,-17,4.814
-50,-20,4.815
-24,-15,4.816
-17,32,4.817
-8,92,4.818
15,93,4.819
26,40,4.82
18,-6,4.821
14,-19,4.822
40,-22,4.823
62,-28,4.824
37,-26,4.825
-17,-5,4.826
-46,20,4.827
-36,40,4.828
-22,53,4.829
-24,55,4.83
-22,48,4.831
-5,44,4.832
9,46,4.833
10,43,4.834
21,33,4.835
42,18,4.836
52,-14,4.837
34,-50,4.838
13,-98,4.839
9,-128,4.84
12,-103,4.841
5,-73,4.842
-1,-27,4.843
0,8,4.844
1,13,4.845
-5,16,4.846
-11,6,4.847
-11,0,4.848
-14,4,4.849
-25,5,4.85
-41,-2,4.851
-57,-6,4.852
-74,3,4.853
-4,8,4.854
40,-2,4.855
81,-5,4.856
113,-6,4.857
133,-10,4.858
113,-7,4.859
92,15,4.86
64,37,4.861
33,22,4.862
6,-31,4.863
-22,-75,4.864
-36,-70,4.865
-53,-27,4.866
-67,6,4.867
-77,6,4.868
-63,-4,4.869
-39,-1,4.87
-8,7,4.871
22,4,4.872
43,-2,4.873
10,0,4.874
23,8,4.875
35,9,4.876
44,0,4.877
50,-1,4.878
44,7,4.879
38,11,4.88
30,7,4.881
21,0,4.882
13,-6,4.883
5,-15,4.884
1,-21,4.885
-4,-17,4.886
-8,-8,4.887
-11,0,4.888
-7,2,4.889
0,1,4.89
9,-1,4.891
18,-6,4.892
24,-5,4.893
30,0,4.894
40,14,4.895
51,25,4.896
43,23,4.897
3,13,4.898
-39,8,4.899
-54,12,4.9
-42,22,4.901
-36,25,4.902
-45,13,4.903
-44,-2,4.904
-27,-6,4.905
-12,4,4.906
-12,13,4.907
-12,-1,4.908
-3,-36,4.909
3,-55,4.91
-1,-24,4.911
-2,32,4.912
11,56,4.913
22,21,4.914
22,-36,4.915
21,-73,4.916
24,-87,4.917
33,-81,4.918
59,-41,4.919
77,24,4.92
69,64,4.921
50,57,4.922
0,40,4.923
-36,52,4.924
-28,71,4.925
-22,64,4.926
-23,45,4.927
-26,38,4.928
-32,42,4.929
-37,41,4.93
-39,34,4.931
-42,17,4.932
-49,-17,4.933
-49,-69,4.934
-32,-98,4.935
-36,-85,4.936
-42,-52,4.937
-10,-19,4.938
50,3,4.939
93,15,4.94
87,10,4.941
52,-3,4.942
26,-6,4.943
17,-2,4.944
15,-7,4.945
13,-15,4.946
9,-15,4.947
7,-10,4.948
7,-10,4.949
9,-15,4.95
10,-12,4.951
7,-7,4.952
7,-6,4.953
14,-8,4.954
25,-3,4.955
26,2,4.956
19,-2,4.957
13,-4,4.958
17,0,4.959
20,7,4.96
13,7,4.961
-3,5,4.962
-14,5,4.963
-18,4,4.964
-20,-1,4.965
-22,-4,4.966
-27,-3,4.967
-31,-1,4.968
-35,-3,4.969
-36,-3,4.97
-28,0,4.971
-18,4,4.972
-10,5,4.973
-4,1,4.974
3,1,4.975
10,1,4.976
14,0,4.977
17,0,4.978
25,3,4.979
34,6,4.98
30,6,4.981
20,6,4.982
13,4,4.983
15,3,4.984
14,4,4.985
6,3,4.986
1,-2,4.987
-1,-7,4.988
-6,-8,4.989
-13,-7,4.99
-12,0,4.991
-5,5,4.992
-4,6,4.993
-6,7,4.994
-7,7,4.995
-1,5,4.996
8,-2,4.997
21,-3,4.998
35,-1,4.999
44,3,5.0
33,3,5.001
7,-1,5.002
-13,-8,5.003
-16,-11,5.004
-18,-5,5.005
-24,5,5.006
-29,9,5.007
-23,3,5.008
-13,-3,5.009
-3,-6,5.01
5,-5,5.011
11,-4,5.012
16,-4,5.013
16,-4,5.014
16,-2,5.015
15,-1,5.016
9,-2,5.017
4,0,5.018
12,2,5.019
27,4,5.02
32,5,5.021
21,6,5.022
6,1,5.023
2,-8,5.024
2,-17,5.025
-3,-21,5.026
-8,-20,5.027
-8,-15,5.028
-8,0,5.029
-10,25,5.03
-9,33,5.031
-1,-1,5.032
8,-58,5.033
11,-95,5.034
15,-74,5.035
18,-3,5.036
14,79,5.037
8,135,5.038
6,120,5.039
14,35,5.04
18,-49,5.041
11,-61,5.042
0,-11,5.043
-4,20,5.044
-3,1,5.045
-7,-17,5.046
-18,-1,5.047
-29,26,5.048
-32,28,5.049
-22,16,5.05
-9,28,5.051
-2,65,5.052
-1,101,5.053
0,85,5.054
4,0,5.055
8,-82,5.056
8,-146,5.057
11,-169,5.058
20,-71,5.059
23,3,5.06
11,10,5.061
-10,6,5.062
-24,-34,5.063
-21,-64,5.064
0,-65,5.065
33,-50,5.066
65,11,5.067
66,45,5.068
25,-4,5.069
-27,-34,5.07
-46,0,5.071
-31,26,5.072
-14,30,5.073
-12,41,5.074
-10,74,5.075
2,80,5.076
14,45,5.077
18,23,5.078
24,34,5.079
29,40,5.08
11,23,5.081
-31,10,5.082
-65,11,5.083
-70,6,5.084
-63,-12,5.085
-62,-15,5.086
-57,-5,5.087
-21,-8,5.088
44,-23,5.089
104,-24,5.09
121,-9,5.091
93,-3,5.092
55,-8,5.093
33,-11,5.094
27,-8,5.095
21,-11,5.096
15,-21,5.097
12,-23,5.098
16,-19,5.099
15,-17,5.1
-3,-17,5.101
-20,-8,5.102
-28,0,5.103
-34,0,5.104
-38,-5,5.105
-38,-10,5.106
-28,-12,5.107
-20,-13,5.108
-16,-5,5.109
-12,10,5.11
-8,26,5.111
-3,45,5.112
1,71,5.113
5,80,5.114
5,50,5.115
7,-7,5.116
12,-50,5.117
15,-58,5.118
17,-51,5.119
20,-51,5.12
22,-53,5.121
18,-55,5.122
10,-64,5.123
3,-70,5.124
-1,-48,5.125
-5,3,5.126
-12,45,5.127
-17,46,5.128
-18,25,5.129
-15,18,5.13
-11,27,5.131
-10,27,5.132
-7,19,5.133
-4,16,5.134
3,22,5.135
7,25,5.136
8,19,5.137
10,14,5.138
18,14,5.139
22,11,5.14
17,-2,5.141
2,-17,5.142
-6,-37,5.143
-5,-36,5.144
-3,28,5.145
-8,58,5.146
-13,-15,5.147
-14,-83,5.148
-11,-127,5.149
-11,-134,5.15
-10,-32,5.151
-3,45,5.152
3,48,5.153
-1,51,5.154
-7,63,5.155
-4,69,5.156
9,24,5.157
18,-37,5.158
23,-53,5.159
28,-8,5.16
33,34,5.161
31,22,5.162
19,-6,5.163
11,17,5.164
9,84,5.165
5,106,5.166
-7,53,5.167
-18,8,5.168
-19,71,5.169
-11,195,5.17
-5,226,5.171
-4,83,5.172
-1,-116,5.173
4,-235,5.174
12,-214,5.175
18,-130,5.176
20,-54,5.177
22,21,5.178
18,80,5.179
11,63,5.18
-5,-30,5.181
-18,-109,5.182
-23,-122,5.183
-25,-133,5.184
-13,-193,5.185
-4,-236,5.186
-6,-180,5.187
-7,-54,5.188
-1,55,5.189
1,112,5.19
-8,133,5.191
-15,135,5.192
-11,122,5.193
-3,114,5.194
13,124,5.195
21,132,5.196
22,132,5.197
23,120,5.198
27,68,5.199
33,34,5.2
33,58,5.201
26,92,5.202
16,156,5.203
10,126,5.204
5,-186,5.205
0,-389,5.206
-4,-264,5.207
-5,-139,5.208
-8,-13,5.209
-12,57,5.21
-13,-40,5.211
-10,-110,5.212
-5,-100,5.213
-5,-67,5.214
-4,58,5.215
-5,141,5.216
-6,77,5.217
-2,-62,5.218
8,-124,5.219
16,-75,5.22
14,21,5.221
9,209,5.222
10,568,5.223
13,912,5.224
9,814,5.225
-3,139,5.226
-14,-606,5.227
-19,-746,5.228
-18,-244,5.229
-10,272,5.23
0,338,5.231
1,109,5.232
-4,-120,5.233
-9,-476,5.234
0,-1045,5.235
8,-1399,5.236
12,-1031,5.237
18,-217,5.238
27,257,5.239
32,173,5.24
22,55,5.241
14,257,5.242
11,503,5.243
8,473,5.244
12,278,5.245
14,186,5.246
9,265,5.247
4,411,5.248
-1,474,5.249
-6,323,5.25
-10,36,5.251
-13,-93,5.252
-13,46,5.253
-13,221,5.254
-11,152,5.255
-5,-106,5.256
0,-314,5.257
2,-394,5.258
3,-380,5.259
7,-248,5.26
9,-48,5.261
6,51,5.262
0,21,5.263
0,53,5.264
3,203,5.265
4,277,5.266
3,162,5.267
6,17,5.268
11,-5,5.269
12,36,5.27
6,39,5.271
4,-6,5.272
5,-105,5.273
3,-285,5.274
-6,-402,5.275
-14,-258,5.276
-12,65,5.277
-4,230,5.278
5,74,5.279
15,-191,5.28
19,-283,5.281
15,-168,5.282
5,24,5.283
-6,199,5.284
-20,331,5.285
-32,403,5.286
-32,392,5.287
-7,314,5.288
28,189,5.289
53,26,5.29
54,-164,5.291
36,-320,5.292
14,-356,5.293
-6,-239,5.294
-13,-71,5.295
-8,-43,5.296
-5,-215,5.297
-11,-383,5.298
-17,-272,5.299
-19,158,5.3
-16,646,5.301
-11,832,5.302
-3,542,5.303
9,-59,5.304
17,-528,5.305
22,-457,5.306
28,80,5.307
32,518,5.308
30,392,5.309
20,-126,5.31
12,-526,5.311
11,-624,5.312
13,-633,5.313
11,-663,5.314
6,-533,5.315
-6,-182,5.316
-18,123,5.317
-20,195,5.318
-8,183,5.319
4,274,5.32
4,391,5.321
-7,369,5.322
-17,204,5.323
-20,-8,5.324
-20,-179,5.325
-21,-207,5.326
-23,-45,5.327
-27,149,5.328
-28,169,5.329
-26,49,5.33
-20,-2,5.331
-11,89,5.332
-3,217,5.333
0,347,5.334
5,487,5.335
10,518,5.336
16,257,5.337
22,-222,5.338
25,-574,5.339
25,-543,5.34
12,-223,5.341
2,102,5.342
3,255,5.343
3,217,5.344
1,50,5.345
-1,-145,5.346
-7,-249,5.347
-13,-206,5.348
-15,-92,5.349
-16,-15,5.35
-10,-4,5.351
-4,-21,5.352
5,-38,5.353
14,-43,5.354
16,-11,5.355
21,66,5.356
28,150,5.357
29,226,5.358
28,293,5.359
28,281,5.36
26,85,5.361
19,-221,5.362
14,-355,5.363
19,-167,5.364
26,99,5.365
23,115,5.366
11,-73,5.367
0,-155,5.368
-3,-54,5.369
-2,0,5.37
-6,-113,5.371
-14,-219,5.372
-18,-168,5.373
-18,-46,5.374
-17,-2,5.375
-16,6,5.376
-14,110,5.377
-5,306,5.378
6,438,5.379
14,381,5.38
12,134,5.381
3,-197,5.382
-5,-448,5.383
-13,-482,5.384
-19,-308,5.385
-25,-76,5.386
-32,60,5.387
-37,48,5.388
-32,-71,5.389
-21,-214,5.39
-7,-299,5.391
6,-293,5.392
18,-219,5.393
28,-76,5.394
35,135,5.395
33,317,5.396
27,410,5.397
24,446,5.398
23,307,5.399
20,233,5.4
8,357,5.401
-8,391,5.402
-19,157,5.403
-22,-69,5.404
-23,-273,5.405
-25,-362,5.406
-27,-103,5.407
-25,53,5.408
-20,-96,5.409
-10,-270,5.41
0,-514,5.411
11,-597,5.412
18,-199,5.413
21,193,5.414
34,372,5.415
47,256,5.416
54,174,5.417
65,246,5.418
83,265,5.419
88,141,5.42
56,44,5.421
29,65,5.422
16,80,5.423
5,25,5.424
-7,29,5.425
-14,159,5.426
-5,279,5.427
3,246,5.428
11,89,5.429
20,-63,5.43
33,-125,5.431
43,-119,5.432
41,-146,5.433
19,-293,5.434
35,-466,5.435
49,-481,5.436
57,-314,5.437
69,-145,5.438
89,-107,5.439
95,-125,5.44
59,-71,5.441
28,63,5.442
14,209,5.443
1,338,5.444
-12,450,5.445
-20,497,5.446
-10,375,5.447
-1,40,5.448
8,-342,5.449
18,-463,5.45
34,-198,5.451
45,186,5.452
43,326,5.453
33,149,5.454
-4,-116,5.455
-32,-309,5.456
-37,-282,5.457
-24,-202,5.458
-10,31,5.459
-8,170,5.46
-17,19,5.461
-24,-88,5.462
-24,-60,5.463
-25,-23,5.464
-33,34,5.465
-40,90,5.466
-30,134,5.467
-15,151,5.468
-6,81,5.469
-6,40,5.47
-2,87,5.471
8,117,5.472
13,93,5.473
8,64,5.474
6,58,5.475
11,85,5.476
15,81,5.477
14,76,5.478
14,63,5.479
22,-67,5.48
24,-317,5.481
14,-464,5.482
2,-342,5.483
1,-99,5.484
4,18,5.485
-6,-8,5.486
-29,-12,5.487
-37,52,5.488
-16,94,5.489
13,76,5.49
16,64,5.491
-16,81,5.492
-46,79,5.493
-40,50,5.494
8,31,5.495
53,22,5.496
86,-18,5.497
105,-72,5.498
76,-61,5.499
49,42,5.5
29,141,5.501
10,121,5.502
-6,7,5.503
-20,-49,5.504
-28,6,5.505
-41,21,5.506
-71,-151,5.507
-84,-390,5.508
-40,-431,5.509
-1,-220,5.51
24,38,5.511
50,174,5.512
80,202,5.513
112,183,5.514
125,119,5.515
98,18,5.516
75,-59,5.517
89,-74,5.518
108,-46,5.519
70,20,5.52
-35,119,5.521
-147,182,5.522
-206,140,5.523
-213,46,5.524
-198,8,5.525
-177,34,5.526
-146,51,5.527
-106,40,5.528
-63,45,5.529
-21,60,5.53
11,35,5.531
30,-36,5.532
40,-110,5.533
48,-146,5.534
58,-125,5.535
59,-93,5.536
52,-31,5.537
49,3,5.538
50,-46,5.539
47,-62,5.54
38,27,5.541
28,109,5.542
19,172,5.543
5,193,5.544
-9,86,5.545
-15,-14,5.546
-12,-98,5.547
-2,-146,5.548
6,-86,5.549
3,-29,5.55
-8,19,5.551
-8,51,5.552
11,37,5.553
32,27,5.554
39,40,5.555
36,45,5.556
40,14,5.557
52,-32,5.558
56,-70,5.559
42,-92,5.56
15,-78,5.561
-27,8,5.562
-70,144,5.563
-91,215,5.564
-71,137,5.565
-32,-37,5.566
-12,-213,5.567
-11,-350,5.568
-8,-417,5.569
2,-318,5.57
10,-30,5.571
13,274,5.572
27,398,5.573
44,349,5.574
52,294,5.575
53,279,5.576
33,186,5.577
17,-27,5.578
11,-229,5.579
5,-282,5.58
0,-199,5.581
-7,-89,5.582
-12,-45,5.583
-20,-76,5.584
-33,-89,5.585
-44,19,5.586
-44,216,5.587
-32,339,5.588
13,297,5.589
49,159,5.59
53,11,5.591
58,-152,5.592
64,-304,5.593
71,-357,5.594
58,-247,5.595
24,-56,5.596
-3,81,5.597
-10,124,5.598
-3,96,5.599
0,47,5.6
-8,27,5.601
-16,45,5.602
-10,52,5.603
13,15,5.604
38,-21,5.605
48,-11,5.606
36,5,5.607
0,-16,5.608
-52,-48,5.609
-89,-47,5.61
-69,-28,5.611
4,-31,5.612
74,-39,5.613
96,-35,5.614
76,-28,5.615
53,-23,5.616
47,-28,5.617
40,-31,5.618
20,-22,5.619
-5,-15,5.62
-31,-15,5.621
-59,-13,5.622
-83,-7,5.623
-90,-7,5.624
-74,-24,5.625
-47,-53,5.626
-23,-114,5.627
-15,-136,5.628
-17,-42,5.629
-22,56,5.63
-31,170,5.631
-45,228,5.632
-52,110,5.633
-30,9,5.634
19,2,5.635
44,24,5.636
9,6,5.637
-48,-15,5.638
-74,-7,5.639
-82,3,5.64
-117,-9,5.641
-156,-15,5.642
-117,1,5.643
2,14,5.644
113,4,5.645
159,-4,5.646
171,5,5.647
187,9,5.648
192,-5,5.649
159,-13,5.65
97,-6,5.651
26,-1,5.652
-32,-5,5.653
-57,-8,5.654
-47,1,5.655
-38,8,5.656
-31,4,5.657
-20,3,5.658
1,9,5.659
14,9,5.66
-3,8,5.661
-15,13,5.662
-12,19,5.663
-11,13,5.664
-20,0,5.665
-25,-7,5.666
-17,-9,5.667
-12,-19,5.668
-17,-57,5.669
-19,-116,5.67
-10,-149,5.671
-2,-101,5.672
0,19,5.673
2,138,5.674
7,160,5.675
9,100,5.676
6,48,5.677
10,49,5.678
20,54,5.679
25,30,5.68
18,9,5.681
7,9,5.682
5,1,5.683
8,-19,5.684
8,-21,5.685
9,1,5.686
14,13,5.687
18,0,5.688
11,-32,5.689
-3,-87,5.69
-10,-146,5.691
-7,-140,5.692
0,-51,5.693
-2,35,5.694
-3,46,5.695
0,56,5.696
8,60,5.697
15,56,5.698
19,29,5.699
25,1,5.7
23,-24,5.701
11,-67,5.702
-1,-160,5.703
-2,-209,5.704
3,-120,5.705
2,-24,5.706
-5,90,5.707
-10,165,5.708
-6,118,5.709
-1,74,5.71
0,38,5.711
4,8,5.712
11,-4,5.713
14,11,5.714
12,122,5.715
11,177,5.716
10,132,5.717
10,62,5.718
15,23,5.719
18,-10,5.72
16,-67,5.721
5,-101,5.722
-4,-70,5.723
-4,-40,5.724
-1,-86,5.725
-2,-148,5.726
-8,-90,5.727
-12,80,5.728
-12,188,5.729
-9,135,5.73
-4,24,5.731
1,-10,5.732
6,7,5.733
9,0,5.734
10,-26,5.735
11,-27,5.736
8,-29,5.737
7,-67,5.738
15,-112,5.739
20,-123,5.74
17,-137,5.741
13,-192,5.742
5,-221,5.743
-3,-130,5.744
-10,42,5.745
-16,152,5.746
-18,110,5.747
-20,-70,5.748
-17,-319,5.749
-14,-497,5.75
-12,-390,5.751
-10,77,5.752
-8,607,5.753
-4,853,5.754
7,695,5.755
13,393,5.756
15,210,5.757
20,122,5.758
32,20,5.759
36,-55,5.76
26,-42,5.761
9,-23,5.762
-1,-66,5.763
-1,-103,5.764
-1,-71,5.765
-5,-42,5.766
-6,-82,5.767
-6,-136,5.768
-8,-161,5.769
-9,-210,5.77
-5,-293,5.771
1,-313,5.772
7,-236,5.773
8,-155,5.774
10,-143,5.775
13,-121,5.776
14,20,5.777
14,212,5.778
17,299,5.779
20,252,5.78
15,183,5.781
2,152,5.782
-4,119,5.783
-1,56,5.784
4,-1,5.785
4,-24,5.786
1,-38,5.787
-3,-49,5.788
-10,-36,5.789
-18,-3,5.79
-20,17,5.791
-17,11,5.792
-14,-1,5.793
-15,-16,5.794
-10,-33,5.795
2,-49,5.796
19,-68,5.797
34,-99,5.798
44,-136,5.799
47,-133,5.8
39,-64,5.801
24,23,5.802
9,63,5.803
-1,52,5.804
-10,38,5.805
-12,34,5.806
-8,21,5.807
-5,-15,5.808
-7,-66,5.809
-8,-125,5.81
0,-166,5.811
10,-132,5.812
14,-22,5.813
12,96,5.814
14,131,5.815
15,85,5.816
14,36,5.817
12,40,5.818
18,66,5.819
24,83,5.82
21,94,5.821
11,103,5.822
3,104,5.823
1,91,5.824
-4,64,5.825
-15,27,5.826
-19,-11,5.827
-14,-36,5.828
-8,-41,5.829
-7,-41,5.83
-7,-45,5.831
0,-44,5.832
10,-36,5.833
11,-30,5.834
9,-31,5.835
8,-37,5.836
10,-50,5.837
12,-61,5.838
11,-68,5.839
13,-85,5.84
9,-148,5.841
-2,-256,5.842
-15,-313,5.843
-20,-206,5.844
-21,26,5.845
-24,180,5.846
-30,95,5.847
-30,-130,5.848
-19,-248,5.849
-8,-132,5.85
-4,121,5.851
-2,340,5.852
5,432,5.853
10,401,5.854
10,298,5.855
5,193,5.856
-1,119,5.857
-4,68,5.858
-5,18,5.859
-5,-17,5.86
-9,-18,5.861
-21,1,5.862
-33,17,5.863
-36,19,5.864
-31,2,5.865
-27,-38,5.866
-30,-92,5.867
-35,-120,5.868
-38,-113,5.869
-39,-99,5.87
-37,-102,5.871
-32,-104,5.872
-23,-93,5.873
-13,-81,5.874
-4,-75,5.875
-4,-66,5.876
-7,-51,5.877
-10,-67,5.878
-4,-162,5.879
3,-307,5.88
-1,-360,5.881
-17,-211,5.882
-27,61,5.883
-29,251,5.884
-28,254,5.885
-31,174,5.886
-31,128,5.887
-25,109,5.888
-21,66,5.889
-22,35,5.89
-23,53,5.891
-20,74,5.892
-13,54,5.893
-10,26,5.894
-9,39,5.895
-7,57,5.896
-2,27,5.897
0,-18,5.898
1,-23,5.899
1,-7,5.9
-2,-15,5.901
-8,-29,5.902
-12,-19,5.903
-10,-4,5.904
-8,-15,5.905
-11,-32,5.906
-20,-25,5.907
-24,-15,5.908
-23,-22,5.909
-22,-36,5.91
-21,-42,5.911
-18,-49,5.912
-10,-64,5.913
-2,-71,5.914
0,-52,5.915
-4,-13,5.916
-8,22,5.917
-5,42,5.918
3,-3,5.919
10,-175,5.92
7,-436,5.921
-4,-581,5.922
-15,-399,5.923
-17,65,5.924
-14,488,5.925
-15,616,5.926
-19,518,5.927
-19,415,5.928
-9,365,5.929
2,269,5.93
11,134,5.931
15,77,5.932
20,112,5.933
22,128,5.934
25,81,5.935
27,35,5.936
31,15,5.937
37,-60,5.938
46,-224,5.939
55,-348,5.94
51,-290,5.941
32,-75,5.942
12,115,5.943
4,153,5.944
4,68,5.945
-5,-18,5.946
-17,-49,5.947
-18,-85,5.948
-7,-186,5.949
5,-298,5.95
15,-277,5.951
26,-58,5.952
39,225,5.953
46,389,5.954
44,330,5.955
40,150,5.956
42,9,5.957
45,-99,5.958
47,-333,5.959
44,-704,5.96
34,-917,5.961
23,-646,5.962
25,-7,5.963
35,413,5.964
43,235,5.965
40,-155,5.966
36,-75,5.967
36,498,5.968
31,896,5.969
16,728,5.97
0,349,5.971
-3,192,5.972
2,181,5.973
14,71,5.974
37,-57,5.975
68,-26,5.976
91,69,5.977
92,65,5.978
72,35,5.979
43,102,5.98
12,164,5.981
-12,97,5.982
-19,-3,5.983
-7,-21,5.984
8,-35,5.985
9,-132,5.986
1,-222,5.987
0,-213,5.988
3,-171,5.989
8,-182,5.99
11,-209,5.991
17,-221,5.992
26,-244,5.993
29,-259,5.994
27,-177,5.995
26,-26,5.996
26,36,5.997
27,-21,5.998
25,-72,5.999
22,-56,6.0
16,-50,6.001
12,-70,6.002
16,-18,6.003
18,104,6.004
14,144,6.005
9,43,6.006
2,-61,6.007
-2,-53,6.008
7,25,6.009
15,95,6.01
15,149,6.011
14,180,6.012
11,149,6.013
6,64,6.014
-5,8,6.015
-17,16,6.016
-25,31,6.017
-25,31,6.018
-14,48,6.019
1,78,6.02
12,73,6.021
15,32,6.022
23,3,6.023
33,-7,6.024
31,-30,6.025
16,-57,6.026
3,-62,6.027
3,-60,6.028
6,-75,6.029
6,-91,6.03
5,-111,6.031
9,-201,6.032
12,-347,6.033
13,-414,6.034
9,-280,6.035
7,-109,6.036
6,-164,6.037
5,-306,6.038
6,-90,6.039
5,519,6.04
0,930,6.041
-9,720,6.042
-17,248,6.043
-20,90,6.044
-21,202,6.045
-20,163,6.046
-20,-73,6.047
-19,-188,6.048
-16,-105,6.049
-13,-20,6.05
-8,16,6.051
-4,98,6.052
-2,170,6.053
-2,102,6.054
-2,-18,6.055
-5,-21,6.056
-9,39,6.057
-7,0,6.058
1,-109,6.059
8,-136,6.06
5,-94,6.061
-2,-87,6.062
-5,-102,6.063
-5,-71,6.064
-10,-49,6.065
-15,-101,6.066
-13,-145,6.067
-7,-98,6.068
-8,-30,6.069
-16,-41,6.07
-16,-98,6.071
-6,-112,6.072
5,-84,6.073
6,-66,6.074
4,-74,6.075
4,-97,6.076
7,-166,6.077
10,-191,6.078
15,-85,6.079
18,12,6.08
16,82,6.081
4,138,6.082
0,150,6.083
3,166,6.084
5,196,6.085
-2,214,6.086
-6,192,6.087
-1,175,6.088
9,173,6.089
16,167,6.09
19,148,6.091
24,133,6.092
26,129,6.093
26,112,6.094
29,50,6.095
30,-18,6.096
25,-99,6.097
18,-173,6.098
17,-190,6.099
20,-136,6.1
14,-71,6.101
-5,-54,6.102
-19,-82,6.103
-21,-118,6.104
-20,-136,6.105
-25,-129,6.106
-29,-93,6.107
-25,-53,6.108
-23,-44,6.109
-27,-70,6.11
-30,-104,6.111
-23,-108,6.112
-9,-84,6.113
2,-52,6.114
8,-35,6.115
11,-35,6.116
-1,-31,6.117
-13,2,6.118
-25,40,6.119
-37,55,6.12
-49,66,6.121
-59,99,6.122
-66,122,6.123
-66,88,6.124
-42,22,6.125
-17,-7,6.126
8,9,6.127
28,6,6.128
24,-41,6.129
13,-77,6.13
-16,-49,6.131
-35,23,6.132
-18,88,6.133
10,115,6.134
54,101,6.135
57,58,6.136
37,8,6.137
51,-30,6.138
110,-55,6.139
162,-61,6.14
152,-29,6.141
83,23,6.142
5,34,6.143
-44,-34,6.144
-65,-116,6.145
-75,-119,6.146
-84,-35,6.147
-79,72,6.148
-54,155,6.149
-24,190,6.15
-1,139,6.151
15,-10,6.152
28,-169,6.153
37,-234,6.154
46,-146,6.155
57,39,6.156
53,204,6.157
20,252,6.158
-23,140,6.159
-45,-74,6.16
-37,-269,6.161
-22,-348,6.162
0,-290,6.163
34,-96,6.164
57,188,6.165
35,390,6.166
-8,330,6.167
-17,41,6.168
14,-228,6.169
32,-310,6.17
15,-265,6.171
-5,-175,6.172
-5,-40,6.173
-10,142,6.174
-37,239,6.175
-66,192,6.176
-73,141,6.177
-72,233,6.178
-74,366,6.179
-70,349,6.18
-56,178,6.181
-52,-2,6.182
-67,-123,6.183
-82,-221,6.184
-82,-285,6.185
-65,-250,6.186
-36,-138,6.187
-8,-89,6.188
5,-190,6.189
-4,-332,6.19
-17,-302,6.191
-21,-29,6.192
-15,287,6.193
-6,401,6.194
10,250,6.195
33,111,6.196
45,298,6.197
39,725,6.198
29,914,6.199
29,551,6.2
18,-164,6.201
-22,-794,6.202
-67,-1134,6.203
-70,-1197,6.204
-28,-944,6.205
11,-372,6.206
20,211,6.207
22,415,6.208
42,293,6.209
65,256,6.21
64,437,6.211
55,528,6.212
65,357,6.213
77,100,6.214
65,-17,6.215
31,-57,6.216
9,-134,6.217
12,-135,6.218
23,45,6.219
34,282,6.22
41,413,6.221
36,400,6.222
17,214,6.223
-5,-198,6.224
-17,-682,6.225
-13,-891,6.226
12,-681,6.227
65,-287,6.228
124,-14,6.229
147,51,6.23
122,-19,6.231
86,-145,6.232
82,-222,6.233
96,-137,6.234
82,121,6.235
19,419,6.236
-41,595,6.237
-38,590,6.238
23,429,6.239
70,219,6.24
39,90,6.241
-49,80,6.242
-121,98,6.243
-137,56,6.244
-118,-21,6.245
-92,-70,6.246
-62,-89,6.247
-34,-107,6.248
-29,-123,6.249
-54,-148,6.25
-74,-206,6.251
-62,-248,6.252
-33,-186,6.253
-16,-16,6.254
-15,111,6.255
-12,84,6.256
1,-28,6.257
19,-107,6.258
30,-173,6.259
35,-262,6.26
43,-262,6.261
58,-50,6.262
63,249,6.263
42,349,6.264
6,184,6.265
-9,-25,6.266
4,-95,6.267
12,-126,6.268
-9,-296,6.269
-36,-549,6.27
-36,-613,6.271
-25,-319,6.272
-41,150,6.273
-81,509,6.274
-96,560,6.275
-61,418,6.276
-6,321,6.277
30,329,6.278
44,313,6.279
49,215,6.28
41,108,6.281
19,3,6.282
-1,-195,6.283
-9,-488,6.284
-11,-675,6.285
-16,-555,6.286
-19,-172,6.287
-16,239,6.288
-15,485,6.289
-21,539,6.29
-24,466,6.291
-17,323,6.292
-4,163,6.293
1,28,6.294
0,-29,6.295
1,-20,6.296
9,-11,6.297
18,-26,6.298
24,-48,6.299
28,-66,6.3
24,-81,6.301
16,-90,6.302
9,-80,6.303
9,-75,6.304
9,-112,6.305
5,-173,6.306
6,-195,6.307
15,-154,6.308
21,-103,6.309
22,-78,6.31
22,-63,6.311
29,-37,6.312
39,-17,6.313
40,-16,6.314
37,-9,6.315
36,12,6.316
36,13,6.317
33,-10,6.318
25,-23,6.319
20,-3,6.32
13,21,6.321
-2,15,6.322
-12,-4,6.323
-11,-7,6.324
-3,4,6.325
-2,12,6.326
-1,15,6.327
5,17,6.328
10,16,6.329
9,9,6.33
11,8,6.331
21,14,6.332
36,19,6.333
42,14,6.334
38,9,6.335
29,11,6.336
25,11,6.337
28,9,6.338
36,11,6.339
39,18,6.34
31,21,6.341
13,15,6.342
-3,1,6.343
-12,-45,6.344
-20,-159,6.345
-22,-312,6.346
-21,-367,6.347
-17,-203,6.348
-16,128,6.349
-17,405,6.35
-14,475,6.351
-4,383,6.352
7,270,6.353
14,164,6.354
19,58,6.355
20,-20,6.356
11,-39,6.357
-2,-25,6.358
-8,-34,6.359
-9,-54,6.36
-14,-47,6.361
-25,-28,6.362
-29,-36,6.363
-27,-55,6.364
-25,-50,6.365
-27,-34,6.366
-26,-34,6.367
-18,-40,6.368
-8,-30,6.369
-1,-19,6.37
5,-26,6.371
11,-31,6.372
14,-19,6.373
12,-11,6.374
10,-16,6.375
10,-18,6.376
11,-11,6.377
9,-6,6.378
9,-8,6.379
12,-8,6.38
12,-2,6.381
6,1,6.382
-3,-7,6.383
-10,-11,6.384
-14,-4,6.385
-13,0,6.386
-8,-3,6.387
-1,-4,6.388
4,4,6.389
7,11,6.39
10,11,6.391
13,13,6.392
16,21,6.393
17,25,6.394
19,12,6.395
19,-3,6.396
16,-13,6.397
13,-18,6.398
17,-19,6.399
24,-12,6.4
21,0,6.401
11,8,6.402
-1,7,6.403
-4,10,6.404
-4,19,6.405
-7,25,6.406
-8,24,6.407
-1,21,6.408
9,19,6.409
17,16,6.41
19,10,6.411
20,5,6.412
25,1,6.413
27,-5,6.414
26,-7,6.415
25,-9,6.416
25,-12,6.417
26,-16,6.418
26,-17,6.419
24,-13,6.42
20,-9,6.421
17,-9,6.422
21,-10,6.423
23,-11,6.424
17,-13,6.425
12,-19,6.426
9,-38,6.427
6,-89,6.428
8,-189,6.429
10,-299,6.43
8,-316,6.431
8,-160,6.432
12,92,6.433
17,311,6.434
20,378,6.435
26,307,6.436
32,182,6.437
34,70,6.438
34,4,6.439
36,2,6.44
33,36,6.441
23,42,6.442
10,1,6.443
0,-24,6.444
-2,-1,6.445
-4,25,6.446
-10,7,6.447
-12,-20,6.448
-6,-22,6.449
3,-13,6.45
10,-20,6.451
15,-34,6.452
18,-48,6.453
21,-85,6.454
21,-134,6.455
17,-167,6.456
14,-151,6.457
15,-140,6.458
20,-144,6.459
19,-159,6.46
10,-209,6.461
-7,-242,6.462
-17,-224,6.463
-17,-157,6.464
-17,55,6.465
-23,240,6.466
-30,342,6.467
-31,402,6.468
-26,334,6.469
-24,265,6.47
-30,195,6.471
-35,139,6.472
-34,125,6.473
-37,93,6.474
-41,-26,6.475
-51,-160,6.476
-58,-232,6.477
-59,-211,6.478
-56,-123,6.479
-55,-7,6.48
-62,92,6.481
-76,136,6.482
-91,113,6.483
-101,49,6.484
-106,-13,6.485
-111,-63,6.486
-118,-93,6.487
-121,-105,6.488
-120,-99,6.489
-117,-90,6.49
-117,-88,6.491
-117,-91,6.492
-116,-88,6.493
-117,-78,6.494
-121,-63,6.495
-126,-53,6.496
-131,-51,6.497
-136,-52,6.498
-137,-50,6.499
-139,-69,6.5
-143,-152,6.501
-147,-312,6.502
-147,-461,6.503
-146,-439,6.504
-144,-171,6.505
-142,219,6.506
-138,511,6.507
-130,583,6.508
-114,471,6.509
-99,257,6.51
-91,25,6.511
-80,-106,6.512
-59,-58,6.513
-40,120,6.514
-38,254,6.515
-49,242,6.516
-56,150,6.517
-48,69,6.518
-36,-36,6.519
-27,-218,6.52
-24,-403,6.521
-18,-452,6.522
-10,-332,6.523
-3,-155,6.524
-2,-32,6.525
-1,33,6.526
8,92,6.527
24,158,6.528
42,195,6.529
58,197,6.53
74,201,6.531
91,229,6.532
104,255,6.533
108,258,6.534
112,267,6.535
117,287,6.536
127,281,6.537
136,229,6.538
140,154,6.539
143,81,6.54
140,7,6.541
137,-59,6.542
134,-97,6.543
131,-107,6.544
135,-113,6.545
136,-133,6.546
129,-176,6.547
125,-273,6.548
130,-399,6.549
133,-442,6.55
127,-326,6.551
125,-189,6.552
135,-278,6.553
146,-712,6.554
153,-1185,6.555
154,-1135,6.556
152,-310,6.557
146,833,6.558
138,1477,6.559
132,1318,6.56
124,845,6.561
110,599,6.562
99,531,6.563
97,361,6.564
99,161,6.565
92,145,6.566
82,195,6.567
83,39,6.568
91,-356,6.569
92,-883,6.57
85,-1379,6.571
80,-1405,6.572
85,-625,6.573
88,690,6.574
88,1417,6.575
85,1037,6.576
87,326,6.577
86,143,6.578
80,240,6.579
70,-22,6.58
61,-484,6.581
50,-522,6.582
39,-94,6.583
30,292,6.584
22,362,6.585
14,259,6.586
5,144,6.587
-3,46,6.588
-7,-16,6.589
-3,-31,6.59
7,-49,6.591
17,-87,6.592
21,-134,6.593
22,-262,6.594
20,-410,6.595
4,-436,6.596
-29,-96,6.597
-60,176,6.598
-70,246,6.599
-61,268,6.6
-50,142,6.601
-35,13,6.602
-3,-128,6.603
32,-229,6.604
37,-209,6.605
2,-203,6.606
-43,-246,6.607
-70,-251,6.608
-76,-140,6.609
-72,-50,6.61
-58,-28,6.611
-34,29,6.612
-19,194,6.613
-26,401,6.614
-39,518,6.615
-36,232,6.616
-17,-96,6.617
-10,-117,6.618
-20,5,6.619
-32,-36,6.62
-40,-194,6.621
-45,-250,6.622
-46,-220,6.623
-39,-218,6.624
-26,-176,6.625
-19,10,6.626
-11,227,6.627
1,280,6.628
10,175,6.629
2,59,6.63
-8,-5,6.631
-6,-42,6.632
10,-50,6.633
23,-19,6.634
28,18,6.635
28,-8,6.636
26,-106,6.637
21,-179,6.638
14,-108,6.639
11,139,6.64
9,395,6.641
1,418,6.642
-5,182,6.643
-8,-59,6.644
-13,-105,6.645
-23,-46,6.646
-30,-43,6.647
-29,-63,6.648
-25,-8,6.649
-22,55,6.65
-17,8,6.651
-9,-87,6.652
-3,-106,6.653
-4,-45,6.654
-7,15,6.655
-9,46,6.656
-11,63,6.657
-14,50,6.658
-15,-2,6.659
-17,-30,6.66
-20,-1,6.661
-28,19,6.662
-37,-26,6.663
-44,-94,6.664
-52,-133,6.665
-59,-156,6.666
-54,-173,6.667
-35,-153,6.668
-16,-98,6.669
-9,-59,6.67
-4,-46,6.671
7,-21,6.672
20,8,6.673
25,-4,6.674
22,-45,6.675
13,-17,6.676
5,96,6.677
2,175,6.678
5,124,6.679
8,2,6.68
-1,-66,6.681
-16,-66,6.682
-26,-48,6.683
-31,-19,6.684
-45,41,6.685
-66,96,6.686
-67,93,6.687
-36,48,6.688
8,17,6.689
27,17,6.69
7,20,6.691
-22,24,6.692
-20,36,6.693
24,36,6.694
81,3,6.695
95,-36,6.696
59,-46,6.697
13,-49,6.698
1,-98,6.699
6,-183,6.7
-25,-219,6.701
-99,-133,6.702
-155,56,6.703
-147,241,6.704
-93,323,6.705
-40,283,6.706
0,175,6.707
34,51,6.708
56,-62,6.709
48,-135,6.71
20,-130,6.711
0,-53,6.712
-1,34,6.713
-8,98,6.714
-22,153,6.715
-27,207,6.716
-20,200,6.717
-10,74,6.718
6,-135,6.719
43,-338,6.72
86,-469,6.721
95,-484,6.722
63,-328,6.723
22,-27,6.724
5,231,6.725
6,276,6.726
11,185,6.727
21,202,6.728
38,364,6.729
57,425,6.73
83,202,6.731
123,-174,6.732
160,-442,6.733
168,-524,6.734
131,-421,6.735
59,-134,6.736
-26,257,6.737
-111,510,6.738
-176,435,6.739
-196,170,6.74
-163,24,6.741
-101,75,6.742
-51,130,6.743
-38,59,6.744
-54,-71,6.745
-64,-177,6.746
-54,-253,6.747
-50,-251,6.748
-77,-116,6.749
-129,28,6.75
-166,-39,6.751
-161,-281,6.752
-112,-393,6.753
-27,-195,6.754
76,134,6.755
165,257,6.756
207,28,6.757
181,-382,6.758
98,-621,6.759
-3,-380,6.76
-77,251,6.761
-102,723,6.762
-79,595,6.763
-34,98,6.764
-2,-163,6.765
-4,-14,6.766
-27,216,6.767
-36,309,6.768
-14,362,6.769
18,385,6.77
31,213,6.771
15,-78,6.772
-4,-166,6.773
5,48,6.774
57,280,6.775
123,270,6.776
157,121,6.777
145,49,6.778
114,34,6.779
83,-29,6.78
29,-114,6.781
-51,-143,6.782
-98,-141,6.783
-55,-161,6.784
39,-177,6.785
94,-139,6.786
83,-82,6.787
59,-79,6.788
62,-134,6.789
60,-198,6.79
23,-235,6.791
-27,-246,6.792
-52,-235,6.793
-32,-208,6.794
30,-191,6.795
105,-214,6.796
143,-246,6.797
121,-185,6.798
73,17,6.799
45,255,6.8
27,346,6.801
-8,251,6.802
-55,109,6.803
-72,51,6.804
-62,54,6.805
-53,35,6.806
-39,-5,6.807
0,-16,6.808
34,-6,6.809
11,-6,6.81
-59,-10,6.811
-109,8,6.812
-108,34,6.813
-91,37,6.814
-89,26,6.815
-80,16,6.816
-47,12,6.817
-15,7,6.818
-11,1,6.819
-26,-2,6.82
-32,2,6.821
-25,4,6.822
-21,-1,6.823
-22,-4,6.824
-22,-1,6.825
-16,1,6.826
-4,3,6.827
10,6,6.828
18,8,6.829
15,10,6.83
10,10,6.831
15,9,6.832
21,5,6.833
14,-1,6.834
5,-6,6.835
9,-10,6.836
21,-18,6.837
26,-21,6.838
24,-12,6.839
26,3,6.84
23,13,6.841
6,13,6.842
-11,12,6.843
-15,11,6.844
-8,-15,6.845
-10,-75,6.846
-17,-117,6.847
-14,-64,6.848
1,83,6.849
18,222,6.85
29,245,6.851
37,162,6.852
39,76,6.853
35,32,6.854
32,14,6.855
29,-9,6.856
23,-29,6.857
18,-32,6.858
16,-39,6.859
13,-59,6.86
6,-66,6.861
1,-38,6.862
2,-1,6.863
3,19,6.864
1,27,6.865
1,36,6.866
5,40,6.867
10,24,6.868
17,-1,6.869
23,-15,6.87
23,-18,6.871
24,-21,6.872
29,-28,6.873
35,-37,6.874
36,-44,6.875
32,-48,6.876
25,-45,6.877
18,-28,6.878
18,-14,6.879
18,-10,6.88
10,-7,6.881
-3,1,6.882
-9,9,6.883
-9,10,6.884
-8,5,6.885
-9,3,6.886
-7,0,6.887
0,-3,6.888
8,-4,6.889
12,-2,6.89
12,-7,6.891
13,-16,6.892
14,-19,6.893
13,-14,6.894
10,-10,6.895
8,-11,6.896
8,-17,6.897
11,-12,6.898
17,-6,6.899
18,-2,6.9
7,0,6.901
-12,4,6.902
-25,5,6.903
-26,-12,6.904
-23,-62,6.905
-24,-132,6.906
-23,-169,6.907
-13,-114,6.908
5,7,6.909
17,108,6.91
20,140,6.911
21,141,6.912
27,148,6.913
32,144,6.914
30,112,6.915
22,71,6.916
19,56,6.917
18,55,6.918
16,38,6.919
10,8,6.92
3,-11,6.921
-2,-26,6.922
-2,-44,6.923
-1,-56,6.924
0,-51,6.925
4,-47,6.926
13,-63,6.927
21,-91,6.928
25,-115,6.929
29,-125,6.93
34,-117,6.931
40,-83,6.932
42,-38,6.933
42,-56,6.934
40,-51,6.935
36,-47,6.936
30,-48,6.937
28,-50,6.938
31,-51,6.939
32,-50,6.94
27,-42,6.941
21,-35,6.942
19,-34,6.943
21,-35,6.944
19,-47,6.945
15,-61,6.946
14,-86,6.947
19,-91,6.948
22,-35,6.949
23,16,6.95
25,55,6.951
29,62,6.952
36,-29,6.953
38,-56,6.954
39,-51,6.955
37,-47,6.956
37,-48,6.957
32,-50,6.958
23,-51,6.959
16,-50,6.96
9,-42,6.961
3,-35,6.962
-1,-34,6.963
-6,-35,6.964
-10,-47,6.965
-13,-61,6.966
-16,-85,6.967
-15,-89,6.968
-15,-35,6.969
-17,15,6.97
-19,52,6.971
-20,59,6.972
-18,-29,6.973
-24,-128,6.974
-34,-246,6.975
-46,-343,6.976
-59,-430,6.977
-70,-460,6.978
-73,-310,6.979
-78,71,6.98
-89,516,6.981
-101,756,6.982
-114,709,6.983
-126,536,6.984
-136,392,6.985
-147,272,6.986
-155,137,6.987
-162,23,6.988
-168,-56,6.989
-173,-142,6.99
-176,-221,6.991
-180,-195,6.992
-186,-79,6.993
-192,-27,6.994
-193,-169,6.995
-195,-421,6.996
-202,-568,6.997
-211,-472,6.998
-209,-161,6.999
-199,215,7.0
-199,470,7.001
-209,519,7.002
-214,433,7.003
-209,333,7.004
-199,256,7.005
-192,187,7.006
-183,141,7.007
-166,139,7.008
-146,137,7.009
-130,91,7.01
-114,20,7.011
-94,-34,7.012
-74,-86,7.013
-58,-180,7.014
-43,-295,7.015
-27,-402,7.016
-18,-554,7.017
-11,-793,7.018
0,-1001,7.019
20,-919,7.02
35,-432,7.021
38,229,7.022
44,713,7.023
60,898,7.024
81,903,7.025
96,837,7.026
107,699,7.027
121,489,7.028
140,210,7.029
161,-154,7.03
186,-447,7.031
207,-317,7.032
217,249,7.033
216,621,7.034
229,313,7.035
260,47,7.036
287,-86,7.037
289,-114,7.038
268,175,7.039
237,341,7.04
194,130,7.041
144,-50,7.042
103,-136,7.043
92,-260,7.044
98,-493,7.045
90,-711,7.046
60,-882,7.047
41,-826,7.048
61,-86,7.049
115,440,7.05
164,323,7.051
179,36,7.052
176,-757,7.053
182,-1242,7.054
216,-311,7.055
248,902,7.056
250,1431,7.057
220,1086,7.058
187,439,7.059
165,116,7.06
144,186,7.061
112,296,7.062
76,238,7.063
56,115,7.064
60,22,7.065
73,-87,7.066
70,-198,7.067
51,-202,7.068
37,-118,7.069
41,-85,7.07
55,-134,7.071
74,-162,7.072
102,-153,7.073
127,-199,7.074
116,-291,7.075
52,-299,7.076
-18,-182,7.077
-42,-49,7.078
-33,0,7.079
-33,-10,7.08
-50,-19,7.081
-57,-21,7.082
-64,-17,7.083
-91,0,7.084
-122,22,7.085
-126,16,7.086
-114,-20,7.087
-114,-71,7.088
-119,-143,7.089
-101,-232,7.09
-57,-272,7.091
-12,-181,7.092
25,-3,7.093
47,126,7.094
42,98,7.095
5,-23,7.096
-30,-81,7.097
-39,-32,7.098
-36,27,7.099
-39,25,7.1
-40,10,7.101
-29,57,7.102
-16,137,7.103
-8,173,7.104
5,154,7.105
24,134,7.106
31,138,7.107
23,137,7.108
17,115,7.109
19,86,7.11
17,67,7.111
11,50,7.112
13,31,7.113
24,10,7.114
22,-3,7.115
5,-18,7.116
-7,-40,7.117
-7,-54,7.118
-4,-60,7.119
-10,-65,7.12
-15,-74,7.121
-20,-77,7.122
-26,-73,7.123
-34,-63,7.124
-38,-53,7.125
-36,-44,7.126
-36,-36,7.127
-32,-29,7.128
-26,-19,7.129
-23,-5,7.13
-25,7,7.131
-25,7,7.132
-19,-11,7.133
-13,-55,7.134
-12,-95,7.135
-20,-77,7.136
-26,17,7.137
-27,119,7.138
-25,126,7.139
-23,42,7.14
-21,-24,7.141
-22,-11,7.142
-25,23,7.143
-30,12,7.144
-34,-15,7.145
-37,-11,7.146
-37,-2,7.147
-38,-21,7.148
-39,-42,7.149
-40,-24,7.15
-34,5,7.151
-21,4,7.152
-10,-13,7.153
-17,-14,7.154
-33,0,7.155
-43,-5,7.156
-31,-45,7.157
-4,-88,7.158
20,-115,7.159
28,-113,7.16
24,-85,7.161
23,-55,7.162
34,-35,7.163
48,0,7.164
35,72,7.165
-12,139,7.166
-69,138,7.167
-98,85,7.168
-93,62,7.169
-76,87,7.17
-66,100,7.171
-63,73,7.172
-49,46,7.173
-10,31,7.174
43,-2,7.175
63,-49,7.176
32,-35,7.177
-3,56,7.178
11,117,7.179
53,69,7.18
70,-30,7.181
78,-98,7.182
126,-139,7.183
184,-166,7.184
162,-118,7.185
52,29,7.186
-56,164,7.187
-105,173,7.188
-133,101,7.189
-161,75,7.19
-152,107,7.191
-79,120,7.192
-1,96,7.193
25,90,7.194
27,124,7.195
76,127,7.196
169,37,7.197
216,-65,7.198
153,-207,7.199
16,-294,7.2
-96,-216,7.201
-120,-135,7.202
-65,-49,7.203
4,3,7.204
28,-46,7.205
1,-105,7.206
-22,-194,7.207
-8,-228,7.208
24,-96,7.209
39,45,7.21
35,215,7.211
27,330,7.212
20,279,7.213
3,192,7.214
-20,-16,7.215
-47,-176,7.216
-78,-229,7.217
-107,-182,7.218
-106,-61,7.219
-69,97,7.22
-27,197,7.221
-2,146,7.222
19,25,7.223
34,50,7.224
3,311,7.225
-84,630,7.226
-163,729,7.227
-180,460,7.228
-151,-137,7.229
-122,-881,7.23
-95,-1488,7.231
-56,-1658,7.232
-31,-1287,7.233
-44,-467,7.234
-56,365,7.235
-36,784,7.236
3,716,7.237
33,458,7.238
67,309,7.239
119,328,7.24
154,393,7.241
145,396,7.242
122,327,7.243
121,251,7.244
123,237,7.245
96,250,7.246
62,143,7.247
55,-134,7.248
67,-400,7.249
62,-445,7.25
47,-314,7.251
49,-206,7.252
77,-180,7.253
108,-156,7.254
128,-97,7.255
122,-55,7.256
85,-49,7.257
35,-30,7.258
4,35,7.259
-1,158,7.26
-8,299,7.261
-33,316,7.262
-55,122,7.263
-58,-81,7.264
-60,-10,7.265
-78,246,7.266
-97,311,7.267
-95,106,7.268
-78,-33,7.269
-78,54,7.27
-105,75,7.271
-119,-188,7.272
-68,-461,7.273
59,-403,7.274
171,-39,7.275
176,252,7.276
100,236,7.277
46,47,7.278
53,-35,7.279
50,95,7.28
-9,263,7.281
-71,206,7.282
-79,-102,7.283
-56,-384,7.284
-53,-403,7.285
-63,-224,7.286
-60,-72,7.287
-51,-17,7.288
-49,13,7.289
-42,40,7.29
-24,22,7.291
-17,-17,7.292
-24,-16,7.293
-29,10,7.294
-19,5,7.295
-11,-35,7.296
-20,-59,7.297
-22,-59,7.298
-2,-63,7.299
19,-70,7.3
15,-56,7.301
0,-36,7.302
-1,-35,7.303
9,-42,7.304
12,-35,7.305
8,-21,7.306
13,-18,7.307
28,-15,7.308
34,-2,7.309
26,6,7.31
17,2,7.311
14,3,7.312
16,15,7.313
14,21,7.314
15,16,7.315
20,16,7.316
29,22,7.317
35,25,7.318
35,16,7.319
24,17,7.32
5,29,7.321
-7,39,7.322
-2,38,7.323
11,35,7.324
17,32,7.325
14,23,7.326
9,13,7.327
5,13,7.328
-1,19,7.329
-7,19,7.33
-7,9,7.331
-3,5,7.332
3,13,7.333
11,19,7.334
20,21,7.335
26,24,7.336
25,31,7.337
21,39,7.338
19,37,7.339
17,23,7.34
12,9,7.341
1,4,7.342
-4,1,7.343
-2,-1,7.344
-1,-2,7.345
-2,1,7.346
-1,3,7.347
6,0,7.348
11,-5,7.349
13,-7,7.35
16,-12,7.351
22,-33,7.352
28,-71,7.353
26,-130,7.354
25,-168,7.355
22,-135,7.356
15,-23,7.357
3,115,7.358
1,196,7.359
6,196,7.36
3,156,7.361
-11,116,7.362
-21,81,7.363
-19,51,7.364
-11,31,7.365
-5,18,7.366
-1,1,7.367
6,-16,7.368
15,-27,7.369
19,-30,7.37
19,-33,7.371
21,-37,7.372
26,-36,7.373
27,-35,7.374
23,-35,7.375
10,-34,7.376
-1,-35,7.377
-4,-36,7.378
3,-30,7.379
6,-25,7.38
-1,-22,7.381
-13,-20,7.382
-20,-22,7.383
-19,-23,7.384
-17,-19,7.385
-13,-14,7.386
-7,-11,7.387
-2,-8,7.388
2,-7,7.389
7,-5,7.39
16,-2,7.391
26,2,7.392
36,8,7.393
40,15,7.394
39,21,7.395
29,19,7.396
16,5,7.397
9,-8,7.398
15,-12,7.399
21,-6,7.4
16,2,7.401
4,2,7.402
3,-2,7.403
12,-3,7.404
17,-2,7.405
16,0,7.406
21,1,7.407
31,-2,7.408
36,-3,7.409
32,-2,7.41
28,0,7.411
32,-1,7.412
38,-11,7.413
37,-36,7.414
37,-75,7.415
35,-124,7.416
26,-165,7.417
17,-169,7.418
9,-115,7.419
3,-26,7.42
7,41,7.421
11,26,7.422
9,-73,7.423
9,-178,7.424
13,-160,7.425
17,46,7.426
20,356,7.427
24,574,7.428
29,578,7.429
33,425,7.43
37,250,7.431
40,108,7.432
40,-4,7.433
39,-92,7.434
33,-122,7.435
28,-115,7.436
24,-119,7.437
23,-135,7.438
22,-133,7.439
20,-117,7.44
14,-116,7.441
6,-123,7.442
5,-115,7.443
8,-102,7.444
8,-115,7.445
4,-164,7.446
4,-245,7.447
9,-338,7.448
13,-395,7.449
15,-365,7.45
15,-252,7.451
13,-115,7.452
8,15,7.453
0,175,7.454
-3,345,7.455
-8,437,7.456
-18,403,7.457
-31,311,7.458
-37,238,7.459
-37,187,7.46
-42,126,7.461
-57,58,7.462
-70,2,7.463
-76,-46,7.464
-77,-80,7.465
-76,-81,7.466
-75,-57,7.467
-76,-49,7.468
-84,-73,7.469
-97,-93,7.47
-105,-83,7.471
-103,-59,7.472
-101,-47,7.473
-108,-44,7.474
-123,-31,7.475
-140,-24,7.476
-158,-40,7.477
-172,-65,7.478
-174,-71,7.479
-170,-55,7.48
-172,-35,7.481
-184,-35,7.482
-193,-58,7.483
-196,-84,7.484
-197,-79,7.485
-201,-39,7.486
-199,6,7.487
-193,26,7.488
-199,25,7.489
-223,31,7.49
-244,46,7.491
-238,61,7.492
-219,80,7.493
-212,109,7.494
-219,125,7.495
-224,93,7.496
-218,31,7.497
-208,-1,7.498
-195,4,7.499
-164,1,7.5
-108,-44,7.501
-57,-142,7.502
-44,-293,7.503
-70,-444,7.504
-93,-461,7.505
-80,-248,7.506
-33,88,7.507
20,327,7.508
67,389,7.509
107,377,7.51
128,367,7.511
125,312,7.512
117,202,7.513
115,127,7.514
127,175,7.515
137,275,7.516
140,291,7.517
139,217,7.518
140,124,7.519
150,34,7.52
175,-77,7.521
197,-222,7.522
183,-470,7.523
135,-963,7.524
90,-1610,7.525
83,-1873,7.526
108,-1183,7.527
136,322,7.528
166,1742,7.529
208,2255,7.53
250,1836,7.531
263,1083,7.532
257,546,7.533
255,292,7.534
263,200,7.535
248,124,7.536
203,10,7.537
165,-87,7.538
159,-114,7.539
166,-76,7.54
155,-37,7.541
136,-35,7.542
128,-73,7.543
130,-143,7.544
129,-231,7.545
128,-305,7.546
136,-336,7.547
143,-329,7.548
131,-310,7.549
114,-280,7.55
113,-241,7.551
129,-220,7.552
135,-244,7.553
124,-299,7.554
109,-333,7.555
102,-313,7.556
99,-247,7.557
98,-153,7.558
95,-60,7.559
91,-2,7.56
80,-1,7.561
67,-41,7.562
53,-88,7.563
42,-112,7.564
30,-82,7.565
20,37,7.566
13,223,7.567
5,366,7.568
1,369,7.569
6,264,7.57
12,166,7.571
12,133,7.572
14,133,7.573
22,129,7.574
33,138,7.575
25,165,7.576
-4,158,7.577
-32,91,7.578
-44,1,7.579
-49,-52,7.58
-58,-65,7.581
-67,-63,7.582
-59,-60,7.583
-34,-53,7.584
-12,-48,7.585
-14,-52,7.586
-31,-67,7.587
-46,-94,7.588
-51,-127,7.589
-55,-129,7.59
-63,-74,7.591
-63,-16,7.592
-57,-70,7.593
-48,-309,7.594
-43,-589,7.595
-46,-614,7.596
-50,-210,7.597
-49,415,7.598
-45,790,7.599
-42,652,7.6
-46,245,7.601
-53,13,7.602
-55,69,7.603
-52,155,7.604
-50,90,7.605
-48,-5,7.606
-35,-2,7.607
-6,29,7.608
21,-7,7.609
28,-44,7.61
23,-15,7.611
25,5,7.612
37,-38,7.613
41,-88,7.614
28,-69,7.615
10,-37,7.616
4,-62,7.617
10,-95,7.618
14,-79,7.619
13,-52,7.62
7,-62,7.621
-1,-79,7.622
-14,-65,7.623
-28,-52,7.624
-35,-66,7.625
-37,-71,7.626
-39,-44,7.627
-41,-17,7.628
-43,-14,7.629
-38,-23,7.63
-26,-45,7.631
-14,-93,7.632
-8,-136,7.633
-12,-110,7.634
-21,11,7.635
-36,158,7.636
-49,223,7.637
-53,166,7.638
-43,38,7.639
-25,-67,7.64
-27,-86,7.641
-51,-41,7.642
-72,2,7.643
-59,33,7.644
-20,66,7.645
20,97,7.646
41,98,7.647
37,81,7.648
10,77,7.649
-32,83,7.65
-66,76,7.651
-74,68,7.652
-59,75,7.653
-23,151,7.654
33,103,7.655
82,41,7.656
88,-63,7.657
45,-139,7.658
-10,-127,7.659
-37,-83,7.66
-35,53,7.661
-23,153,7.662
-9,142,7.663
12,103,7.664
32,-10,7.665
43,-114,7.666
46,-192,7.667
48,-231,7.668
55,-152,7.669
67,-93,7.67
69,-95,7.671
37,-76,7.672
-20,10,7.673
-68,139,7.674
-64,94,7.675
-35,36,7.676
-44,-61,7.677
-90,-132,7.678
-84,-121,7.679
17,-80,7.68
128,48,7.681
140,141,7.682
70,130,7.683
16,94,7.684
22,-11,7.685
46,-109,7.686
51,-181,7.687
39,-217,7.688
3,-144,7.689
-64,-89,7.69
-123,-91,7.691
-125,-73,7.692
-91,8,7.693
-87,74,7.694
-136,42,7.695
-183,-9,7.696
-169,30,7.697
-105,136,7.698
-31,147,7.699
26,18,7.7
59,-99,7.701
67,-84,7.702
51,-23,7.703
16,-29,7.704
-27,-22,7.705
-56,110,7.706
-51,263,7.707
-27,248,7.708
-20,88,7.709
-39,-42,7.71
-51,-78,7.711
-41,-69,7.712
-44,-18,7.713
-88,97,7.714
-129,174,7.715
-94,96,7.716
16,-67,7.717
118,-158,7.718
145,-156,7.719
129,-127,7.72
126,-57,7.721
119,63,7.722
65,144,7.723
-11,123,7.724
-42,78,7.725
-10,66,7.726
27,4,7.727
35,-162,7.728
51,-303,7.729
100,-242,7.73
153,10,7.731
165,249,7.732
146,243,7.733
116,-111,7.734
77,-594,7.735
27,-750,7.736
-11,-354,7.737
-6,274,7.738
27,603,7.739
50,482,7.74
45,173,7.741
24,-69,7.742
-9,-160,7.743
-41,-50,7.744
-45,172,7.745
-16,159,7.746
1,-311,7.747
-23,-838,7.748
-60,-769,7.749
-71,-83,7.75
-65,553,7.751
-63,681,7.752
-45,514,7.753
9,339,7.754
59,143,7.755
49,-109,7.756
-3,-161,7.757
-35,148,7.758
-32,490,7.759
-31,475,7.76
-43,214,7.761
-46,67,7.762
-40,79,7.763
-49,34,7.764
-63,-107,7.765
-35,-188,7.766
29,-173,7.767
70,-167,7.768
36,-197,7.769
-30,-202,7.77
-54,-187,7.771
-11,-194,7.772
34,-181,7.773
22,-97,7.774
-32,2,7.775
-63,21,7.776
-39,-24,7.777
-1,-40,7.778
4,-23,7.779
-13,-16,7.78
-15,-6,7.781
5,39,7.782
13,83,7.783
0,69,7.784
-13,20,7.785
-9,-7,7.786
14,-9,7.787
45,-19,7.788
68,-29,7.789
67,-23,7.79
37,-20,7.791
1,-34,7.792
-19,-47,7.793
-22,-44,7.794
-20,-38,7.795
-28,-47,7.796
-30,-57,7.797
-16,-46,7.798
13,-30,7.799
39,-23,7.8
42,-15,7.801
25,-3,7.802
8,5,7.803
3,4,7.804
11,5,7.805
21,14,7.806
27,21,7.807
23,23,7.808
15,29,7.809
12,43,7.81
16,50,7.811
17,45,7.812
13,34,7.813
5,27,7.814
4,24,7.815
0,21,7.816
-8,13,7.817
-11,5,7.818
-6,1,7.819
-1,5,7.82
-3,10,7.821
-7,8,7.822
-8,2,7.823
-6,4,7.824
-3,13,7.825
4,23,7.826
17,26,7.827
26,28,7.828
27,31,7.829
26,31,7.83
27,25,7.831
33,22,7.832
41,24,7.833
45,20,7.834
40,9,7.835
27,-2,7.836
16,-10,7.837
11,-9,7.838
11,-10,7.839
9,-12,7.84
-2,-13,7.841
-13,-14,7.842
-20,-15,7.843
-20,-14,7.844
-19,-6,7.845
-15,1,7.846
-4,2,7.847
9,-1,7.848
19,3,7.849
20,16,7.85
19,27,7.851
21,26,7.852
24,14,7.853
20,2,7.854
13,-4,7.855
6,-15,7.856
8,-53,7.857
13,-107,7.858
17,-135,7.859
16,-103,7.86
7,-25,7.861
-3,44,7.862
-9,80,7.863
-12,91,7.864
-14,94,7.865
-17,82,7.866
-17,59,7.867
-11,44,7.868
-2,48,7.869
9,54,7.87
23,39,7.871
36,3,7.872
42,-40,7.873
38,-107,7.874
25,-189,7.875
7,-238,7.876
-6,-189,7.877
-13,-23,7.878
-13,170,7.879
-12,275,7.88
-10,246,7.881
-11,128,7.882
-11,-12,7.883
-10,-113,7.884
-5,-127,7.885
1,-49,7.886
7,56,7.887
10,112,7.888
17,102,7.889
27,65,7.89
38,25,7.891
42,-16,7.892
44,-44,7.893
40,-48,7.894
35,-32,7.895
26,-27,7.896
18,-35,7.897
16,-37,7.898
22,-40,7.899
29,-67,7.9
30,-122,7.901
25,-194,7.902
22,-270,7.903
27,-312,7.904
33,-257,7.905
34,-93,7.906
32,102,7.907
31,233,7.908
33,274,7.909
36,249,7.91
41,191,7.911
45,132,7.912
50,111,7.913
46,122,7.914
38,117,7.915
27,58,7.916
19,-24,7.917
17,-68,7.918
22,-74,7.919
27,-76,7.92
25,-85,7.921
16,-85,7.922
10,-78,7.923
9,-77,7.924
12,-80,7.925
15,-76,7.926
19,-73,7.927
24,-77,7.928
26,-78,7.929
23,-65,7.93
19,-51,7.931
18,-47,7.932
16,-44,7.933
10,-37,7.934
3,-29,7.935
-4,-30,7.936
-14,-36,7.937
-23,-32,7.938
-28,-24,7.939
-27,-21,7.94
-30,-20,7.941
-41,-13,7.942
-52,-9,7.943
-54,-12,7.944
-54,-15,7.945
-58,-9,7.946
-62,0,7.947
-60,5,7.948
-63,4,7.949
-73,4,7.95
-86,7,7.951
-94,9,7.952
-92,11,7.953
-87,11,7.954
-83,5,7.955
-91,-29,7.956
-109,-131,7.957
-130,-290,7.958
-147,-412,7.959
-163,-361,7.96
-183,-110,7.961
-201,190,7.962
-211,365,7.963
-214,382,7.964
-218,329,7.965
-217,266,7.966
-210,202,7.967
-202,164,7.968
-200,174,7.969
-200,192,7.97
-193,160,7.971
-189,97,7.972
-192,66,7.973
-201,59,7.974
-203,36,7.975
-205,15,7.976
-206,5,7.977
-201,1,7.978
-186,18,7.979
-171,18,7.98
-162,-34,7.981
-155,-100,7.982
-137,-206,7.983
-110,-270,7.984
-82,-203,7.985
-58,-125,7.986
-39,-19,7.987
-26,26,7.988
-12,-115,7.989
10,-269,7.99
34,-462,7.991
46,-554,7.992
44,-344,7.993
41,-65,7.994
52,398,7.995
79,684,7.996
110,695,7.997
130,484,7.998
136,135,7.999
134,-191,8.0
135,-237,8.001
147,104,8.002
170,560,8.003
194,733,8.004
201,571,8.005
187,351,8.006
166,234,8.007
172,134,8.008
204,1,8.009
227,-73,8.01
218,-79,8.011
200,-134,8.012
204,-237,8.013
224,-296,8.014
230,-343,8.015
222,-617,8.016
220,-1179,8.017
218,-1586,8.018
198,-1243,8.019
169,-115,8.02
155,1048,8.021
164,1435,8.022
172,1031,8.023
174,497,8.024
173,261,8.025
171,117,8.026
160,-190,8.027
141,-496,8.028
126,-571,8.029
122,-507,8.03
127,-379,8.031
126,24,8.032
103,675,8.033
61,1134,8.034
37,917,8.035
62,289,8.036
110,-135,8.037
117,-317,8.038
74,-634,8.039
29,-957,8.04
14,-686,8.041
6,209,8.042
-17,937,8.043
-35,905,8.044
-23,378,8.045
14,-134,8.046
46,-510,8.047
54,-713,8.048
37,-458,8.049
11,288,8.05
5,927,8.051
45,892,8.052
104,432,8.053
124,100,8.054
56,86,8.055
-60,91,8.056
-130,-46,8.057
-111,-149,8.058
-39,-138,8.059
33,-155,8.06
74,-247,8.061
53,-285,8.062
-22,-223,8.063
-88,-155,8.064
-80,-128,8.065
-28,-114,8.066
-15,-132,8.067
-44,-201,8.068
-52,-242,8.069
-28,-198,8.07
-14,-142,8.071
-23,-148,8.072
-19,-162,8.073
0,-124,8.074
1,-81,8.075
-28,-93,8.076
-47,-116,8.077
-39,-80,8.078
-30,-22,8.079
-37,-2,8.08
-44,7,8.081
-46,36,8.082
-47,53,8.083
-48,33,8.084
-32,14,8.085
-10,27,8.086
1,40,8.087
3,29,8.088
18,21,8.089
49,34,8.09
78,41,8.091
82,32,8.092
56,25,8.093
-1,13,8.094
-62,-14,8.095
-95,-26,8.096
-89,21,8.097
-62,93,8.098
-33,98,8.099
-10,24,8.1
-1,-20,8.101
1,25,8.102
7,78,8.103
24,64,8.104
36,30,8.105
26,48,8.106
0,89,8.107
-22,77,8.108
-44,28,8.109
-75,8,8.11
-97,21,8.111
-78,15,8.112
-24,-8,8.113
20,-19,8.114
13,-10,8.115
-20,-14,8.116
-31,-32,8.117
-19,-33,8.118
-25,-14,8.119
-48,-8,8.12
-36,-22,8.121
19,-31,8.122
48,-27,8.123
3,-30,8.124
-59,-54,8.125
-61,-91,8.126
-6,-127,8.127
39,-152,8.128
47,-146,8.129
29,-90,8.13
-8,-11,8.131
-58,18,8.132
-86,-19,8.133
-67,-53,8.134
-31,13,8.135
-29,155,8.136
-64,234,8.137
-87,203,8.138
-67,151,8.139
-20,166,8.14
15,200,8.141
23,159,8.142
18,46,8.143
25,-51,8.144
49,-93,8.145
73,-106,8.146
57,-117,8.147
-29,-117,8.148
-166,-91,8.149
-265,-28,8.15
-237,54,8.151
-77,100,8.152
101,68,8.153
214,1,8.154
242,-16,8.155
234,-46,8.156
227,-111,8.157
194,-173,8.158
102,-223,8.159
-16,-223,8.16
-88,-65,8.161
-79,73,8.162
-25,153,8.163
6,214,8.164
-8,214,8.165
-36,210,8.166
-46,192,8.167
-39,179,8.168
-36,179,8.169
-39,156,8.17
-39,67,8.171
-28,-19,8.172
-18,-97,8.173
-17,-174,8.174
-28,-231,8.175
-41,-227,8.176
-41,-134,8.177
-34,8,8.178
-37,99,8.179
-59,77,8.18
-87,-54,8.181
-95,-242,8.182
-70,-372,8.183
-32,-287,8.184
-35,43,8.185
-110,392,8.186
-210,464,8.187
-239,232,8.188
-153,-53,8.189
-16,-199,8.19
93,-244,8.191
179,-271,8.192
275,-254,8.193
341,-148,8.194
297,-5,8.195
220,107,8.196
46,197,8.197
-85,279,8.198
-87,281,8.199
-84,169,8.2
-63,24,8.201
-39,-66,8.202
-8,-117,8.203
12,-173,8.204
-1,-208,8.205
-12,-141,8.206
-9,60,8.207
-6,318,8.208
-4,459,8.209
2,334,8.21
22,12,8.211
37,-238,8.212
31,-262,8.213
18,-181,8.214
-25,-176,8.215
-49,-186,8.216
-13,-30,8.217
70,231,8.218
127,323,8.219
105,175,8.22
43,12,8.221
27,7,8.222
57,63,8.223
66,37,8.224
20,-56,8.225
-44,-129,8.226
-92,-152,8.227
-121,-100,8.228
-117,32,8.229
-53,160,8.23
45,156,8.231
107,40,8.232
101,-46,8.233
65,-60,8.234
39,-58,8.235
0,-73,8.236
-84,-56,8.237
-179,-4,8.238
-219,13,8.239
-191,-18,8.24
-142,-36,8.241
-110,-35,8.242
-87,-68,8.243
-52,-125,8.244
0,-158,8.245
53,-210,8.246
79,-338,8.247
63,-426,8.248
28,-292,8.249
16,20,8.25
52,261,8.251
114,306,8.252
149,271,8.253
121,225,8.254
50,95,8.255
-8,-138,8.256
-16,-269,8.257
10,-128,8.258
30,153,8.259
28,313,8.26
17,257,8.261
12,51,8.262
11,-183,8.263
13,-246,8.264
13,24,8.265
12,456,8.266
6,627,8.267
-2,394,8.268
-10,89,8.269
-13,-7,8.27
-8,-27,8.271
1,-172,8.272
13,-328,8.273
18,-324,8.274
20,-187,8.275
14,-72,8.276
-5,-8,8.277
-24,50,8.278
-25,65,8.279
1,14,8.28
28,-26,8.281
34,-10,8.282
29,2,8.283
28,-22,8.284
31,-35,8.285
24,-18,8.286
12,-25,8.287
8,-60,8.288
17,-65,8.289
23,-37,8.29
20,-30,8.291
11,-46,8.292
5,-42,8.293
1,-20,8.294
-1,-17,8.295
-4,-13,8.296
-5,-11,8.297
-2,-9,8.298
7,-11,8.299
16,-12,8.3
17,-2,8.301
12,4,8.302
9,1,8.303
9,0,8.304
5,10,8.305
-3,17,8.306
-6,14,8.307
-3,13,8.308
-1,21,8.309
-3,27,8.31
3,23,8.311
17,21,8.312
30,26,8.313
30,31,8.314
22,22,8.315
8,8,8.316
-5,-14,8.317
-18,-74,8.318
-23,-178,8.319
-20,-248,8.32
-18,-188,8.321
-22,0,8.322
-28,193,8.323
-23,286,8.324
-13,277,8.325
-4,229,8.326
4,168,8.327
19,95,8.328
31,36,8.329
33,15,8.33
31,14,8.331
30,1,8.332
29,-15,8.333
16,-19,8.334
-1,-16,8.335
-14,-31,8.336
-15,-54,8.337
-15,-54,8.338
-6,-41,8.339
1,-40,8.34
1,-47,8.341
3,-43,8.342
8,-31,8.343
14,-30,8.344
20,-34,8.345
26,-31,8.346
28,-22,8.347
30,-19,8.348
28,-20,8.349
27,-15,8.35
27,-12,8.351
27,-15,8.352
25,-16,8.353
24,-12,8.354
19,-10,8.355
15,-17,8.356
11,-24,8.357
8,-19,8.358
9,-12,8.359
12,-13,8.36
14,-14,8.361
19,-9,8.362
22,-5,8.363
23,-5,8.364
23,-4,8.365
18,1,8.366
10,5,8.367
4,3,8.368
7,4,8.369
15,7,8.37
26,4,8.371
33,-7,8.372
41,-13,8.373
47,-10,8.374
43,-7,8.375
29,-9,8.376
17,-19,8.377
16,-18,8.378
21,-11,8.379
23,-7,8.38
20,-7,8.381
19,-7,8.382
24,-5,8.383
32,-6,8.384
35,-10,8.385
37,-12,8.386
40,-14,8.387
41,-14,8.388
41,-16,8.389
42,-16,8.39
47,-16,8.391
51,-17,8.392
50,-19,8.393
44,-21,8.394
35,-23,8.395
25,-24,8.396
17,-23,8.397
13,-21,8.398
13,-20,8.399
16,-22,8.4
16,-21,8.401
11,-16,8.402
8,-15,8.403
11,-20,8.404
17,-26,8.405
18,-29,8.406
16,-29,8.407
15,-30,8.408
19,-34,8.409
22,-40,8.41
20,-45,8.411
10,-41,8.412
0,-24,8.413
-14,-3,8.414
-31,4,8.415
-59,-28,8.416
-88,-98,8.417
-109,-152,8.418
-118,-143,8.419
-120,-106,8.42
-123,-136,8.421
-130,-244,8.422
-139,-284,8.423
-143,-124,8.424
-141,178,8.425
-137,427,8.426
-139,519,8.427
-154,480,8.428
-182,340,8.429
-208,121,8.43
-212,-56,8.431
-189,-38,8.432
-162,156,8.433
-156,366,8.434
-169,433,8.435
-178,367,8.436
-181,252,8.437
-208,115,8.438
-267,-64,8.439
-319,-241,8.44
-325,-322,8.441
-301,-273,8.442
-287,-154,8.443
-287,-46,8.444
-277,13,8.445
-249,21,8.446
-227,-15,8.447
-214,-71,8.448
-192,-106,8.449
-161,-101,8.45
-140,-66,8.451
-132,-26,8.452
-120,9,8.453
-101,37,8.454
-86,56,8.455
-80,69,8.456
-67,75,8.457
-39,61,8.458
-9,17,8.459
14,-32,8.46
31,-51,8.461
41,-42,8.462
37,-38,8.463
26,-57,8.464
26,-82,8.465
56,-92,8.466
104,-92,8.467
145,-96,8.468
162,-96,8.469
164,-74,8.47
165,-29,8.471
175,25,8.472
196,63,8.473
227,76,8.474
268,78,8.475
305,76,8.476
314,65,8.477
281,46,8.478
235,27,8.479
232,13,8.48
288,-4,8.481
337,-53,8.482
302,-198,8.483
193,-528,8.484
108,-1010,8.485
117,-1317,8.486
178,-1023,8.487
210,-101,8.488
197,885,8.489
176,1312,8.49
171,1109,8.491
166,665,8.492
155,280,8.493
157,-104,8.494
182,-446,8.495
204,-467,8.496
198,26,8.497
168,757,8.498
135,1120,8.499
112,808,8.5
97,172,8.501
91,-176,8.502
94,-48,8.503
108,210,8.504
121,244,8.505
123,103,8.506
119,37,8.507
115,106,8.508
97,159,8.509
44,88,8.51
-28,-62,8.511
-65,-196,8.512
-34,-262,8.513
26,-275,8.514
47,-259,8.515
21,-228,8.516
13,-180,8.517
54,-118,8.518
102,-81,8.519
100,-89,8.52
56,-110,8.521
1,-111,8.522
-42,-97,8.523
-63,-88,8.524
-48,-77,8.525
-17,-52,8.526
-4,-30,8.527
-13,-33,8.528
-18,-62,8.529
-12,-135,8.53
-13,-258,8.531
-27,-364,8.532
-37,-333,8.533
-42,-153,8.534
-51,15,8.535
-68,136,8.536
-75,116,8.537
-63,103,8.538
-47,117,8.539
-35,89,8.54
-29,-67,8.541
-24,-167,8.542
-24,-101,8.543
-23,-58,8.544
-22,-83,8.545
-21,-85,8.546
-23,-18,8.547
-21,-3,8.548
-8,-151,8.549
7,-231,8.55
8,-106,8.551
-9,52,8.552
-31,309,8.553
-54,500,8.554
-70,384,8.555
-76,183,8.556
-67,74,8.557
-39,102,8.558
1,190,8.559
23,259,8.56
6,294,8.561
-20,281,8.562
-17,195,8.563
20,59,8.564
49,-45,8.565
42,-72,8.566
7,-63,8.567
-29,-65,8.568
-56,-73,8.569
-64,-71,8.57
-41,-81,8.571
1,-115,8.572
31,-140,8.573
34,-130,8.574
28,-98,8.575
32,-88,8.576
26,-102,8.577
-25,-117,8.578
-108,-125,8.579
-146,-138,8.58
-86,-148,8.581
31,-142,8.582
117,-123,8.583
139,-101,8.584
131,-67,8.585
118,-12,8.586
72,49,8.587
-14,78,8.588
-102,66,8.589
-166,43,8.59
-217,46,8.591
-253,78,8.592
-255,111,8.593
-225,115,8.594
-178,79,8.595
-104,21,8.596
14,-42,8.597
133,-95,8.598
181,-124,8.599
157,-114,8.6
118,-71,8.601
88,-23,8.602
58,-7,8.603
27,-23,8.604
12,-48,8.605
9,-59,8.606
7,-70,8.607
13,-100,8.608
36,-124,8.609
63,-85,8.61
65,30,8.611
23,140,8.612
-54,161,8.613
-154,97,8.614
-203,22,8.615
-162,5,8.616
-74,20,8.617
-21,30,8.618
-8,46,8.619
11,89,8.62
27,122,8.621
-40,94,8.622
-197,8,8.623
-319,-68,8.624
-285,-67,8.625
-101,30,8.626
117,165,8.627
268,242,8.628
324,206,8.629
341,87,8.63
377,-43,8.631
382,-139,8.632
267,-195,8.633
31,-194,8.634
-150,-119,8.635
-168,-31,8.636
-112,94,8.637
-102,184,8.638
-111,164,8.639
-88,131,8.64
-71,65,8.641
-99,-2,8.642
-94,-74,8.643
-6,-115,8.644
63,-63,8.645
21,9,8.646
-65,143,8.647
-74,222,8.648
-20,136,8.649
14,27,8.65
21,-148,8.651
52,-280,8.652
97,-284,8.653
109,-266,8.654
64,-171,8.655
-34,-73,8.656
-167,2,8.657
-258,55,8.658
-215,98,8.659
-81,142,8.66
-22,168,8.661
-90,159,8.662
-118,137,8.663
26,128,8.664
206,123,8.665
216,99,8.666
85,57,8.667
3,10,8.668
28,-45,8.669
47,-119,8.67
11,-201,8.671
2,-281,8.672
60,-354,8.673
118,-402,8.674
110,-361,8.675
63,-205,8.676
40,-6,8.677
38,136,8.678
18,194,8.679
-20,222,8.68
-48,281,8.681
-66,359,8.682
-89,379,8.683
-108,262,8.684
-92,-1,8.685
-37,-313,8.686
18,-523,8.687
39,-539,8.688
41,-375,8.689
54,-93,8.69
73,233,8.691
73,492,8.692
57,555,8.693
38,362,8.694
19,0,8.695
-18,-370,8.696
-59,-611,8.697
-76,-597,8.698
-61,-255,8.699
-47,276,8.7
-50,634,8.701
-47,581,8.702
-22,304,8.703
5,157,8.704
13,190,8.705
14,190,8.706
33,81,8.707
56,8,8.708
47,30,8.709
-1,19,8.71
-49,-85,8.711
-57,-202,8.712
-29,-289,8.713
-1,-377,8.714
2,-355,8.715
-8,-64,8.716
-14,358,8.717
-20,526,8.718
-22,302,8.719
-7,-7,8.72
19,-109,8.721
26,-82,8.722
6,-129,8.723
-12,-224,8.724
-8,-229,8.725
0,-155,8.726
-1,-93,8.727
0,-39,8.728
13,30,8.729
22,50,8.73
21,-11,8.731
26,-57,8.732
46,-24,8.733
62,26,8.734
62,20,8.735
48,-5,8.736
35,28,8.737
23,88,8.738
11,92,8.739
2,35,8.74
-7,-32,8.741
-20,-70,8.742
-25,-73,8.743
-17,-46,8.744
-5,-9,8.745
-7,-1,8.746
-11,-46,8.747
-3,-131,8.748
10,-203,8.749
13,-196,8.75
9,-121,8.751
10,-84,8.752
11,-120,8.753
0,-346,8.754
-14,-200,8.755
-18,-38,8.756
-16,163,8.757
-17,296,8.758
-16,218,8.759
-4,132,8.76
8,29,8.761
7,-65,8.762
-2,-132,8.763
0,-170,8.764
9,-113,8.765
14,-66,8.766
15,-54,8.767
20,-38,8.768
28,-10,8.769
28,13,8.77
23,9,8.771
22,6,8.772
22,6,8.773
15,-202,8.774
2,-120,8.775
-9,-29,8.776
-21,84,8.777
-33,159,8.778
-32,115,8.779
-21,67,8.78
-16,9,8.781
-22,-44,8.782
-26,-82,8.783
-13,-103,8.784
5,-71,8.785
14,-45,8.786
15,-38,8.787
20,-29,8.788
27,-13,8.789
32,0,8.79
35,-2,8.791
37,-4,8.792
34,-4,8.793
25,-10,8.794
17,-26,8.795
14,-25,8.796
12,-28,8.797
6,-39,8.798
6,-36,8.799
16,-18,8.8
21,-13,8.801
21,-21,8.802
18,-15,8.803
22,-3,8.804
32,-6,8.805
39,-15,8.806
43,-1,8.807
47,25,8.808
42,30,8.809
30,18,8.81
15,21,8.811
7,38,8.812
4,45,8.813
-5,28,8.814
-9,-3,8.815
-13,-38,8.816
-15,-71,8.817
-15,-73,8.818
-9,-43,8.819
-2,6,8.82
6,57,8.821
13,107,8.822
17,141,8.823
21,141,8.824
26,108,8.825
31,67,8.826
31,39,8.827
33,26,8.828
39,21,8.829
45,17,8.83
43,4,8.831
40,-16,8.832
34,-33,8.833
28,-38,8.834
22,-37,8.835
18,-42,8.836
8,-49,8.837
-4,-43,8.838
-6,-29,8.839
5,-21,8.84
15,-21,8.841
16,-25,8.842
17,-28,8.843
25,-30,8.844
34,-31,8.845
37,-29,8.846
39,-27,8.847
50,-27,8.848
64,-27,8.849
72,-26,8.85
70,-26,8.851
55,-24,8.852
30,-20,8.853
1,-21,8.854
-6,-29,8.855
26,-41,8.856
75,-48,8.857
93,-45,8.858
63,-40,8.859
23,-35,8.86
18,-29,8.861
39,-22,8.862
40,-17,8.863
5,-13,8.864
-33,-8,8.865
-38,-1,8.866
-10,8,8.867
28,10,8.868
53,-12,8.869
61,-88,8.87
49,-232,8.871
34,-412,8.872
21,-537,8.873
9,-525,8.874
-6,-340,8.875
-19,-55,8.876
-24,208,8.877
-30,384,8.878
-38,477,8.879
-47,512,8.88
-52,501,8.881
-61,461,8.882
-81,411,8.883
-116,349,8.884
-167,266,8.885
-219,165,8.886
-238,58,8.887
-199,-67,8.888
-123,-214,8.889
-55,-336,8.89
-15,-370,8.891
10,-313,8.892
17,-221,8.893
-26,-129,8.894
-121,-45,8.895
-212,21,8.896
-243,49,8.897
-230,40,8.898
-224,20,8.899
-240,5,8.9
-262,-6,8.901
-284,-14,8.902
-312,-2,8.903
-338,37,8.904
-351,67,8.905
-346,34,8.906
-335,-61,8.907
-311,-154,8.908
-277,-177,8.909
-243,-128,8.91
-225,-51,8.911
-219,29,8.912
-215,114,8.913
-214,185,8.914
-214,188,8.915
-215,116,8.916
-213,44,8.917
-205,44,8.918
-186,88,8.919
-151,105,8.92
-110,87,8.921
-74,67,8.922
-46,49,8.923
-20,24,8.924
12,2,8.925
54,3,8.926
94,10,8.927
105,-2,8.928
81,-25,8.929
57,-29,8.93
70,-19,8.931
108,-16,8.932
135,-25,8.933
147,-46,8.934
164,-80,8.935
182,-114,8.936
198,-142,8.937
216,-156,8.938
240,-129,8.939
258,-100,8.94
256,-66,8.941
258,-12,8.942
270,104,8.943
291,200,8.944
341,239,8.945
378,244,8.946
374,146,8.947
360,41,8.948
314,-80,8.949
267,-205,8.95
216,-337,8.951
173,-572,8.952
155,-1117,8.953
144,-1558,8.954
157,-1199,8.955
156,-17,8.956
130,1229,8.957
107,1757,8.958
128,1518,8.959
188,1060,8.96
228,761,8.961
220,562,8.962
192,350,8.963
181,184,8.964
175,75,8.965
143,-56,8.966
99,-134,8.967
77,11,8.968
66,285,8.969
36,326,8.97
1,-17,8.971
12,-471,8.972
73,-674,8.973
139,-559,8.974
142,-342,8.975
121,-187,8.976
130,-221,8.977
161,-197,8.978
153,4,8.979
67,147,8.98
-41,107,8.981
-88,63,8.982
-52,8,8.983
-2,-43,8.984
-2,-81,8.985
-27,-109,8.986
-25,-106,8.987
1,-121,8.988
6,-195,8.989
-19,-250,8.99
-33,-241,8.991
-18,-219,8.992
-5,-159,8.993
-17,-107,8.994
-41,-55,8.995
-61,16,8.996
-73,16,8.997
-77,-35,8.998
-68,-38,8.999
-56,10,9.0
-51,23,9.001
-52,0,9.002
-47,21,9.003
-39,74,9.004
-41,90,9.005
-46,67,9.006
-36,62,9.007
-13,78,9.008
7,73,9.009
22,49,9.01
33,39,9.011
15,41,9.012
-42,31,9.013
-109,9,9.014
-127,4,9.015
-89,6,9.016
-47,-5,9.017
-28,-22,9.018
-10,-37,9.019
27,-60,9.02
64,-79,9.021
85,-58,9.022
83,-3,9.023
49,30,9.024
-14,14,9.025
-69,-6,9.026
-76,2,9.027
-58,20,9.028
-57,16,9.029
-77,-11,9.03
-87,-60,9.031
-75,-113,9.032
-57,-120,9.033
-47,-53,9.034
-41,29,9.035
-27,26,9.036
0,-56,9.037
30,-85,9.038
24,0,9.039
-24,107,9.04
-63,133,9.041
-36,104,9.042
33,97,9.043
70,105,9.044
55,71,9.045
38,6,9.046
48,-15,9.047
68,25,9.048
77,57,9.049
74,20,9.05
55,-49,9.051
5,-60,9.052
-64,28,9.053
-139,184,9.054
-183,286,9.055
-176,223,9.056
-121,15,9.057
-56,-192,9.058
-29,-280,9.059
-35,-250,9.06
-15,-175,9.061
48,-103,9.062
106,-52,9.063
105,-29,9.064
49,-18,9.065
-25,28,9.066
-103,98,9.067
-151,125,9.068
-131,91,9.069
-50,55,9.07
15,59,9.071
8,57,9.072
-33,10,9.073
-52,-80,9.074
-30,-179,9.075
-12,-255,9.076
-19,-247,9.077
-36,-100,9.078
-23,119,9.079
18,255,9.08
53,224,9.081
48,110,9.082
16,45,9.083
3,60,9.084
30,82,9.085
65,41,9.086
76,-51,9.087
70,-111,9.088
72,-67,9.089
74,46,9.09
65,114,9.091
59,91,9.092
76,38,9.093
94,9,9.094
72,11,9.095
-6,3,9.096
-114,-31,9.097
-220,-87,9.098
-312,-155,9.099
-371,-199,9.1
-356,-184,9.101
-241,-136,9.102
-66,-121,9.103
83,-149,9.104
158,-159,9.105
188,-105,9.106
220,1,9.107
247,109,9.108
236,177,9.109
192,184,9.11
149,150,9.111
119,113,9.112
91,98,9.113
67,93,9.114
57,95,9.115
34,101,9.116
-28,113,9.117
-102,112,9.118
-119,70,9.119
-74,33,9.12
-33,10,9.121
-48,-13,9.122
-87,-34,9.123
-92,-56,9.124
-55,-81,9.125
-16,-100,9.126
3,-97,9.127
26,-103,9.128
54,-139,9.129
56,-145,9.13
13,-61,9.131
-41,19,9.132
-64,91,9.133
-78,108,9.134
-114,-93,9.135
-153,-271,9.136
-139,-310,9.137
-83,-260,9.138
-48,-202,9.139
-50,-94,9.14
-45,103,9.141
-10,277,9.142
18,290,9.143
22,188,9.144
44,120,9.145
101,112,9.146
148,73,9.147
140,-5,9.148
110,-32,9.149
118,27,9.15
152,124,9.151
145,215,9.152
82,254,9.153
4,138,9.154
-41,-166,9.155
-77,-471,9.156
-84,-484,9.157
-87,-143,9.158
-75,284,9.159
-60,488,9.16
-38,416,9.161
-27,228,9.162
-49,74,9.163
-82,-13,9.164
-143,-49,9.165
-155,-57,9.166
-17,-54,9.167
107,-55,9.168
192,-44,9.169
231,-16,9.17
132,8,9.171
44,8,9.172
-7,3,9.173
-51,4,9.174
-69,-20,9.175
-87,-100,9.176
-100,-175,9.177
-80,-149,9.178
-23,-30,9.179
29,63,9.18
29,62,9.181
-15,15,9.182
-56,-16,9.183
-76,-42,9.184
-74,-74,9.185
-38,-76,9.186
27,-36,9.187
66,-8,9.188
41,-28,9.189
0,-50,9.19
10,-36,9.191
51,-15,9.192
61,-31,9.193
41,-74,9.194
34,-120,9.195
26,-178,9.196
15,-218,9.197
8,-130,9.198
13,105,9.199
15,309,9.2
5,298,9.201
0,124,9.202
8,-14,9.203
13,-51,9.204
11,-81,9.205
9,-135,9.206
11,-119,9.207
17,11,9.208
31,164,9.209
45,230,9.21
55,203,9.211
59,138,9.212
44,73,9.213
29,7,9.214
17,-40,9.215
8,-57,9.216
-8,-64,9.217
-21,-70,9.218
-20,-73,9.219
-12,-64,9.22
-16,-47,9.221
-24,-31,9.222
-20,-25,9.223
-7,-22,9.224
-4,-13,9.225
-8,-1,9.226
-9,3,9.227
-3,-6,9.228
1,-17,9.229
5,-24,9.23
10,-23,9.231
12,-20,9.232
8,-18,9.233
-4,-20,9.234
-11,-21,9.235
-14,-19,9.236
-13,-12,9.237
-10,-2,9.238
-3,4,9.239
0,7,9.24
-3,13,9.241
-5,23,9.242
0,24,9.243
12,15,9.244
21,6,9.245
23,5,9.246
19,10,9.247
15,16,9.248
12,18,9.249
13,16,9.25
17,9,9.251
19,4,9.252
18,-2,9.253
16,-26,9.254
13,-76,9.255
6,-139,9.256
0,-181,9.257
-3,-163,9.258
2,-83,9.259
7,18,9.26
6,98,9.261
-1,140,9.262
-4,147,9.263
-2,119,9.264
2,70,9.265
8,30,9.266
16,21,9.267
21,44,9.268
20,85,9.269
16,138,9.27
13,178,9.271
12,171,9.272
8,115,9.273
-1,47,9.274
-11,18,9.275
-13,29,9.276
-8,48,9.277
-4,62,9.278
-3,56,9.279
-1,20,9.28
2,-48,9.281
5,-139,9.282
9,-232,9.283
18,-289,9.284
28,-248,9.285
34,-100,9.286
34,74,9.287
38,174,9.288
44,180,9.289
44,146,9.29
36,97,9.291
29,38,9.292
36,-1,9.293
44,10,9.294
41,44,9.295
16,35,9.296
-10,-27,9.297
-20,-76,9.298
-15,-80,9.299
-11,-69,9.3
-13,-72,9.301
-11,-76,9.302
-4,-70,9.303
4,-61,9.304
9,-56,9.305
14,-50,9.306
25,-42,9.307
35,-41,9.308
40,-40,9.309
41,-29,9.31
37,-15,9.311
29,-13,9.312
19,-20,9.313
7,-26,9.314
2,-22,9.315
-2,-17,9.316
-9,-19,9.317
-12,-18,9.318
-4,-12,9.319
12,-7,9.32
23,-3,9.321
31,-1,9.322
45,-2,9.323
63,-2,9.324
63,-1,9.325
39,0,9.326
17,0,9.327
22,-1,9.328
41,-1,9.329
43,-3,9.33
31,-6,9.331
28,-9,9.332
48,-9,9.333
75,-10,9.334
85,-17,9.335
68,-23,9.336
27,-24,9.337
-16,-19,9.338
-36,-19,9.339
-29,-26,9.34
-26,-28,9.341
-41,-27,9.342
-55,-25,9.343
-58,-29,9.344
-57,-32,9.345
-55,-31,9.346
-33,-33,9.347
10,-36,9.348
43,-37,9.349
49,-32,9.35
49,-26,9.351
53,-24,9.352
45,-23,9.353
8,-24,9.354
-32,-25,9.355
-51,-22,9.356
-52,-19,9.357
-55,-15,9.358
-61,-14,9.359
-62,-15,9.36
-65,-12,9.361
-74,-8,9.362
-78,-8,9.363
-77,-8,9.364
-85,-2,9.365
-99,4,9.366
-94,4,9.367
-61,0,9.368
-33,-1,9.369
-43,2,9.37
-86,5,9.371
-128,3,9.372
-150,0,9.373
-165,-21,9.374
-184,-66,9.375
-206,-122,9.376
-214,-149,9.377
-212,-104,9.378
-208,1,9.379
-210,108,9.38
-213,164,9.381
-215,160,9.382
-216,125,9.383
-215,86,9.384
-209,55,9.385
-200,46,9.386
-193,60,9.387
-190,79,9.388
-186,86,9.389
-180,89,9.39
-172,101,9.391
-166,108,9.392
-161,88,9.393
-160,30,9.394
-159,-28,9.395
-155,-59,9.396
-146,-72,9.397
-131,-82,9.398
-116,-84,9.399
-101,-60,9.4
-83,-46,9.401
-65,-113,9.402
-44,-244,9.403
-22,-291,9.404
-1,-129,9.405
16,151,9.406
34,334,9.407
59,331,9.408
85,255,9.409
106,210,9.41
119,174,9.411
124,111,9.412
127,75,9.413
125,88,9.414
125,93,9.415
125,90,9.416
126,63,9.417
131,56,9.418
149,114,9.419
168,150,9.42
191,115,9.421
208,71,9.422
202,-1,9.423
199,-53,9.424
203,-46,9.425
212,-36,9.426
232,-20,9.427
251,-14,9.428
263,-42,9.429
274,-65,9.43
283,-73,9.431
286,-82,9.432
264,-95,9.433
238,-100,9.434
217,-80,9.435
213,-79,9.436
194,-89,9.437
134,-84,9.438
59,-71,9.439
27,-65,9.44
66,-65,9.441
149,-71,9.442
220,-109,9.443
236,-188,9.444
187,-272,9.445
113,-305,9.446
71,-252,9.447
76,-126,9.448
86,14,9.449
66,103,9.45
20,140,9.451
-29,196,9.452
-64,287,9.453
-67,324,9.454
-23,226,9.455
31,77,9.456
58,30,9.457
56,86,9.458
58,101,9.459
64,-3,9.46
55,-206,9.461
36,-465,9.462
30,-630,9.463
38,-443,9.464
43,93,9.465
46,508,9.466
55,388,9.467
57,-14,9.468
39,-110,9.469
21,177,9.47
23,378,9.471
30,232,9.472
18,14,9.473
-7,-16,9.474
-25,125,9.475
-42,285,9.476
-69,391,9.477
-87,356,9.478
-75,93,9.479
-49,-229,9.48
-37,-260,9.481
-38,76,9.482
-35,413,9.483
-30,400,9.484
-25,119,9.485
-14,-104,9.486
9,-127,9.487
18,-71,9.488
5,-68,9.489
-6,-104,9.49
6,-120,9.491
19,-125,9.492
8,-141,9.493
-21,-152,9.494
-39,-128,9.495
-43,-94,9.496
-48,-103,9.497
-59,-145,9.498
-58,-178,9.499
-43,-186,9.5
-23,-181,9.501
-5,-167,9.502
10,-127,9.503
18,-83,9.504
14,-69,9.505
9,-99,9.506
8,-146,9.507
1,-161,9.508
-19,-106,9.509
-39,5,9.51
-42,88,9.511
-26,69,9.512
-7,-15,9.513
4,-73,9.514
8,-33,9.515
6,62,9.516
-5,123,9.517
-35,129,9.518
-81,115,9.519
-119,106,9.52
-114,96,9.521
-61,79,9.522
-6,61,9.523
9,47,9.524
-4,35,9.525
13,20,9.526
80,7,9.527
150,0,9.528
162,0,9.529
129,2,9.53
103,-15,9.531
98,-56,9.532
77,-91,9.533
5,-84,9.534
-95,-17,9.535
-170,62,9.536
-193,82,9.537
-170,36,9.538
-126,-27,9.539
-80,-76,9.54
-46,-142,9.541
-34,-216,9.542
-46,-200,9.543
-69,-22,9.544
-87,208,9.545
-79,287,9.546
-37,181,9.547
16,44,9.548
47,-14,9.549
40,-41,9.55
-3,-79,9.551
-86,-65,9.552
-182,22,9.553
-226,96,9.554
-146,79,9.555
4,31,9.556
89,33,9.557
