Deltoid,Bicep,Time
-1.0,-7.0,0.0
-4.0,-10.0,0.001
-6.0,-7.0,0.002
-1.0,-4.0,0.003
7.0,-2.0,0.004
10.0,-1.0,0.005
4.0,1.0,0.006
-2.0,3.0,0.007
-1.0,4.0,0.008
6.0,3.0,0.009
10.0,2.0,0.01
8.0,-1.0,0.011
5.0,-1.0,0.012
5.0,0.0,0.013
7.0,6.0,0.014
8.0,8.0,0.015
9.0,8.0,0.016
12.0,4.0,0.017
7.0,-1.0,0.018
1.0,-1.0,0.019
-3.0,3.0,0.02
-5.0,0.0,0.021
-7.0,-4.0,0.022
-3.0,-6.0,0.023
0.0,-1.0,0.024
1.0,4.0,0.025
2.0,2.0,0.026
4.0,-2.0,0.027
6.0,-3.0,0.028
6.0,-1.0,0.029
6.0,-2.0,0.03
8.0,-6.0,0.031
11.0,-4.0,0.032
9.0,1.0,0.033
8.0,4.0,0.034
8.0,1.0,0.035
8.0,-1.0,0.036
3.0,0.0,0.037
-1.0,-1.0,0.038
-3.0,-2.0,0.039
-5.0,-3.0,0.04
-7.0,-3.0,0.041
-6.0,-4.0,0.042
1.0,-7.0,0.043
9.0,-8.0,0.044
6.0,-4.0,0.045
-2.0,-1.0,0.046
-4.0,-2.0,0.047
1.0,-4.0,0.048
4.0,-1.0,0.049
0.0,2.0,0.05
-2.0,3.0,0.051
0.0,0.0,0.052
5.0,0.0,0.053
6.0,3.0,0.054
6.0,4.0,0.055
6.0,2.0,0.056
7.0,4.0,0.057
5.0,4.0,0.058
0.0,2.0,0.059
-5.0,-2.0,0.06
-8.0,-6.0,0.061
-8.0,-3.0,0.062
-1.0,-2.0,0.063
7.0,-3.0,0.064
11.0,-4.0,0.065
8.0,-1.0,0.066
4.0,2.0,0.067
5.0,-1.0,0.068
3.0,-3.0,0.069
3.0,-1.0,0.07
5.0,1.0,0.071
8.0,3.0,0.072
7.0,2.0,0.073
0.0,3.0,0.074
-2.0,6.0,0.075
1.0,7.0,0.076
6.0,5.0,0.077
4.0,2.0,0.078
-2.0,0.0,0.079
-6.0,-2.0,0.08
-8.0,-7.0,0.081
-8.0,-7.0,0.082
-3.0,-3.0,0.083
4.0,-1.0,0.084
6.0,-2.0,0.085
3.0,-2.0,0.086
1.0,0.0,0.087
6.0,0.0,0.088
8.0,0.0,0.089
4.0,0.0,0.09
3.0,-1.0,0.091
9.0,-2.0,0.092
9.0,-2.0,0.093
5.0,0.0,0.094
1.0,0.0,0.095
2.0,-2.0,0.096
5.0,-1.0,0.097
1.0,-1.0,0.098
-2.0,0.0,0.099
-3.0,-1.0,0.1
-5.0,-9.0,0.101
-7.0,-12.0,0.102
-3.0,-11.0,0.103
4.0,-5.0,0.104
5.0,5.0,0.105
2.0,10.0,0.106
0.0,7.0,0.107
2.0,2.0,0.108
5.0,2.0,0.109
5.0,3.0,0.11
6.0,0.0,0.111
10.0,-5.0,0.112
11.0,-3.0,0.113
6.0,2.0,0.114
3.0,1.0,0.115
1.0,-5.0,0.116
0.0,-8.0,0.117
-3.0,-7.0,0.118
-1.0,-7.0,0.119
-1.0,-7.0,0.12
-7.0,-7.0,0.121
-10.0,-7.0,0.122
-4.0,-5.0,0.123
0.0,-3.0,0.124
2.0,-2.0,0.125
5.0,-1.0,0.126
5.0,-1.0,0.127
6.0,0.0,0.128
6.0,-1.0,0.129
5.0,-1.0,0.13
5.0,3.0,0.131
5.0,6.0,0.132
6.0,5.0,0.133
6.0,4.0,0.134
4.0,4.0,0.135
2.0,3.0,0.136
3.0,0.0,0.137
5.0,-2.0,0.138
0.0,-1.0,0.139
-4.0,3.0,0.14
-6.0,1.0,0.141
-4.0,0.0,0.142
2.0,0.0,0.143
9.0,2.0,0.144
9.0,4.0,0.145
3.0,2.0,0.146
1.0,-1.0,0.147
5.0,-3.0,0.148
9.0,-1.0,0.149
8.0,-1.0,0.15
8.0,-5.0,0.151
9.0,-6.0,0.152
6.0,-4.0,0.153
1.0,-1.0,0.154
0.0,-1.0,0.155
2.0,-2.0,0.156
2.0,0.0,0.157
-2.0,4.0,0.158
-6.0,0.0,0.159
-9.0,-3.0,0.16
-9.0,-6.0,0.161
-6.0,-1.0,0.162
0.0,3.0,0.163
4.0,0.0,0.164
4.0,-5.0,0.165
3.0,-7.0,0.166
4.0,-9.0,0.167
5.0,-10.0,0.168
5.0,-6.0,0.169
6.0,1.0,0.17
8.0,4.0,0.171
10.0,-1.0,0.172
9.0,-5.0,0.173
8.0,0.0,0.174
9.0,8.0,0.175
10.0,11.0,0.176
10.0,8.0,0.177
10.0,0.0,0.178
3.0,-3.0,0.179
-2.0,-2.0,0.18
-8.0,-3.0,0.181
-13.0,-4.0,0.182
-11.0,-4.0,0.183
-4.0,-5.0,0.184
2.0,-6.0,0.185
4.0,-7.0,0.186
2.0,-7.0,0.187
2.0,-4.0,0.188
3.0,2.0,0.189
4.0,2.0,0.19
3.0,-1.0,0.191
3.0,-6.0,0.192
4.0,-4.0,0.193
6.0,0.0,0.194
8.0,0.0,0.195
10.0,-1.0,0.196
14.0,1.0,0.197
13.0,5.0,0.198
7.0,7.0,0.199
0.0,9.0,0.2
-4.0,9.0,0.201
-7.0,10.0,0.202
-4.0,5.0,0.203
2.0,-4.0,0.204
4.0,-10.0,0.205
-3.0,-7.0,0.206
-10.0,-4.0,0.207
-6.0,-6.0,0.208
1.0,-8.0,0.209
3.0,-6.0,0.21
0.0,-2.0,0.211
1.0,0.0,0.212
8.0,2.0,0.213
12.0,7.0,0.214
11.0,13.0,0.215
11.0,14.0,0.216
14.0,14.0,0.217
12.0,15.0,0.218
5.0,19.0,0.219
3.0,14.0,0.22
4.0,-2.0,0.221
2.0,-18.0,0.222
-3.0,-26.0,0.223
-3.0,-27.0,0.224
-3.0,-19.0,0.225
-9.0,-8.0,0.226
-14.0,-1.0,0.227
-9.0,0.0,0.228
1.0,-3.0,0.229
6.0,-5.0,0.23
8.0,-5.0,0.231
15.0,-2.0,0.232
25.0,3.0,0.233
29.0,3.0,0.234
24.0,-4.0,0.235
20.0,-10.0,0.236
17.0,-5.0,0.237
8.0,9.0,0.238
-1.0,21.0,0.239
-8.0,26.0,0.24
-13.0,24.0,0.241
-16.0,22.0,0.242
-21.0,9.0,0.243
-24.0,-8.0,0.244
-23.0,-15.0,0.245
-19.0,-4.0,0.246
-9.0,6.0,0.247
2.0,1.0,0.248
11.0,-10.0,0.249
14.0,-14.0,0.25
17.0,-10.0,0.251
22.0,-7.0,0.252
24.0,-7.0,0.253
19.0,-10.0,0.254
7.0,-15.0,0.255
-2.0,-20.0,0.256
-2.0,-19.0,0.257
-1.0,-11.0,0.258
0.0,2.0,0.259
1.0,9.0,0.26
3.0,3.0,0.261
0.0,-8.0,0.262
-2.0,-22.0,0.263
-2.0,-27.0,0.264
1.0,-19.0,0.265
2.0,-3.0,0.266
2.0,6.0,0.267
5.0,7.0,0.268
7.0,7.0,0.269
-2.0,12.0,0.27
-16.0,14.0,0.271
-21.0,6.0,0.272
-13.0,0.0,0.273
-4.0,5.0,0.274
-3.0,15.0,0.275
-4.0,18.0,0.276
4.0,17.0,0.277
14.0,12.0,0.278
20.0,1.0,0.279
16.0,-9.0,0.28
4.0,-20.0,0.281
-7.0,-24.0,0.282
-10.0,-4.0,0.283
-5.0,9.0,0.284
-4.0,3.0,0.285
-12.0,-1.0,0.286
-19.0,0.0,0.287
-15.0,0.0,0.288
0.0,-6.0,0.289
15.0,-10.0,0.29
25.0,-7.0,0.291
28.0,-2.0,0.292
24.0,7.0,0.293
18.0,15.0,0.294
15.0,12.0,0.295
14.0,8.0,0.296
6.0,6.0,0.297
-8.0,3.0,0.298
-19.0,-3.0,0.299
-27.0,-4.0,0.3
-23.0,0.0,0.301
-15.0,15.0,0.302
5.0,24.0,0.303
20.0,25.0,0.304
18.0,18.0,0.305
17.0,12.0,0.306
20.0,8.0,0.307
23.0,5.0,0.308
23.0,3.0,0.309
21.0,-4.0,0.31
12.0,-14.0,0.311
5.0,-22.0,0.312
5.0,-18.0,0.313
5.0,-8.0,0.314
0.0,4.0,0.315
-6.0,13.0,0.316
-14.0,20.0,0.317
-22.0,20.0,0.318
-25.0,14.0,0.319
-15.0,1.0,0.32
0.0,-23.0,0.321
11.0,-47.0,0.322
18.0,-50.0,0.323
25.0,-18.0,0.324
28.0,31.0,0.325
25.0,53.0,0.326
23.0,33.0,0.327
24.0,1.0,0.328
22.0,-14.0,0.329
19.0,-9.0,0.33
26.0,-4.0,0.331
37.0,-4.0,0.332
35.0,-3.0,0.333
20.0,0.0,0.334
9.0,3.0,0.335
14.0,17.0,0.336
25.0,42.0,0.337
26.0,49.0,0.338
16.0,22.0,0.339
-8.0,-15.0,0.34
-40.0,-34.0,0.341
-58.0,-26.0,0.342
-40.0,-24.0,0.343
3.0,-39.0,0.344
27.0,-53.0,0.345
13.0,-41.0,0.346
-9.0,1.0,0.347
-9.0,41.0,0.348
-1.0,47.0,0.349
-8.0,29.0,0.35
-18.0,24.0,0.351
-10.0,42.0,0.352
12.0,42.0,0.353
22.0,-6.0,0.354
29.0,-68.0,0.355
51.0,-93.0,0.356
85.0,-80.0,0.357
105.0,-61.0,0.358
93.0,-64.0,0.359
60.0,-90.0,0.36
30.0,-111.0,0.361
1.0,-89.0,0.362
-37.0,-20.0,0.363
-82.0,57.0,0.364
-117.0,98.0,0.365
-120.0,104.0,0.366
-81.0,106.0,0.367
-14.0,106.0,0.368
40.0,78.0,0.369
51.0,14.0,0.37
34.0,-47.0,0.371
29.0,-54.0,0.372
37.0,2.0,0.373
20.0,75.0,0.374
-35.0,104.0,0.375
-101.0,68.0,0.376
-140.0,20.0,0.377
-155.0,15.0,0.378
-154.0,49.0,0.379
-140.0,46.0,0.38
-89.0,-45.0,0.381
-28.0,-149.0,0.382
63.0,-145.0,0.383
133.0,-21.0,0.384
137.0,92.0,0.385
142.0,73.0,0.386
147.0,-24.0,0.387
139.0,-69.0,0.388
88.0,-45.0,0.389
36.0,-42.0,0.39
-14.0,-94.0,0.391
-14.0,-117.0,0.392
141.0,-78.0,0.393
261.0,-45.0,0.394
273.0,-58.0,0.395
257.0,-52.0,0.396
159.0,9.0,0.397
72.0,53.0,0.398
8.0,35.0,0.399
-112.0,19.0,0.4
-280.0,7.0,0.401
-384.0,-1.0,0.402
-335.0,0.0,0.403
-184.0,0.0,0.404
-67.0,-12.0,0.405
-68.0,-18.0,0.406
-161.0,-6.0,0.407
-268.0,4.0,0.408
-342.0,10.0,0.409
-383.0,21.0,0.41
-384.0,45.0,0.411
-312.0,65.0,0.412
-175.0,76.0,0.413
-61.0,69.0,0.414
-37.0,7.0,0.415
-26.0,-22.0,0.416
70.0,48.0,0.417
220.0,116.0,0.418
253.0,122.0,0.419
143.0,41.0,0.42
69.0,-50.0,0.421
147.0,-90.0,0.422
259.0,-101.0,0.423
244.0,-108.0,0.424
140.0,-79.0,0.425
86.0,-1.0,0.426
117.0,61.0,0.427
148.0,48.0,0.428
129.0,-15.0,0.429
100.0,-41.0,0.43
100.0,-3.0,0.431
112.0,56.0,0.432
94.0,85.0,0.433
42.0,72.0,0.434
21.0,23.0,0.435
94.0,-29.0,0.436
208.0,-37.0,0.437
243.0,13.0,0.438
133.0,60.0,0.439
-48.0,45.0,0.44
-182.0,-4.0,0.441
-241.0,-13.0,0.442
-258.0,11.0,0.443
-244.0,-2.0,0.444
-199.0,-70.0,0.445
-148.0,-126.0,0.446
-110.0,-104.0,0.447
-80.0,-23.0,0.448
-45.0,51.0,0.449
14.0,76.0,0.45
132.0,59.0,0.451
295.0,33.0,0.452
406.0,15.0,0.453
368.0,-4.0,0.454
214.0,-22.0,0.455
70.0,-11.0,0.456
23.0,30.0,0.457
50.0,43.0,0.458
74.0,-14.0,0.459
19.0,-82.0,0.46
-105.0,-76.0,0.461
-193.0,-21.0,0.462
-156.0,-33.0,0.463
-71.0,-113.0,0.464
-81.0,-133.0,0.465
-150.0,-43.0,0.466
-103.0,61.0,0.467
75.0,86.0,0.468
173.0,69.0,0.469
81.0,66.0,0.47
-36.0,50.0,0.471
-30.0,-20.0,0.472
15.0,-96.0,0.473
-27.0,-99.0,0.474
-99.0,-31.0,0.475
-81.0,34.0,0.476
-21.0,56.0,0.477
-32.0,51.0,0.478
-114.0,49.0,0.479
-174.0,49.0,0.48
-193.0,39.0,0.481
-234.0,31.0,0.482
-303.0,33.0,0.483
-309.0,26.0,0.484
-186.0,1.0,0.485
35.0,-17.0,0.486
255.0,-13.0,0.487
381.0,-1.0,0.488
377.0,1.0,0.489
271.0,1.0,0.49
102.0,9.0,0.491
-94.0,16.0,0.492
-246.0,12.0,0.493
-262.0,8.0,0.494
-122.0,12.0,0.495
59.0,15.0,0.496
150.0,10.0,0.497
147.0,3.0,0.498
129.0,4.0,0.499
140.0,8.0,0.5
151.0,0.0,0.501
140.0,-8.0,0.502
126.0,-11.0,0.503
105.0,-9.0,0.504
58.0,-6.0,0.505
0.0,-2.0,0.506
-21.0,2.0,0.507
-3.0,0.0,0.508
13.0,-5.0,0.509
11.0,-7.0,0.51
14.0,-5.0,0.511
28.0,-5.0,0.512
36.0,-7.0,0.513
31.0,-5.0,0.514
29.0,-4.0,0.515
31.0,-6.0,0.516
25.0,-6.0,0.517
10.0,-7.0,0.518
3.0,-5.0,0.519
3.0,-4.0,0.52
-5.0,-7.0,0.521
-22.0,-9.0,0.522
-29.0,-6.0,0.523
-26.0,-4.0,0.524
-24.0,-4.0,0.525
-27.0,-4.0,0.526
-23.0,-6.0,0.527
-17.0,-8.0,0.528
-16.0,-8.0,0.529
-23.0,-7.0,0.53
-23.0,-1.0,0.531
-18.0,3.0,0.532
-14.0,1.0,0.533
-11.0,0.0,0.534
-9.0,0.0,0.535
-10.0,1.0,0.536
-13.0,1.0,0.537
-17.0,1.0,0.538
-15.0,3.0,0.539
-16.0,0.0,0.54
-24.0,-6.0,0.541
-28.0,-7.0,0.542
-17.0,-6.0,0.543
-8.0,-6.0,0.544
-6.0,-5.0,0.545
-5.0,-2.0,0.546
-5.0,-2.0,0.547
-3.0,-4.0,0.548
-1.0,-4.0,0.549
1.0,3.0,0.55
5.0,8.0,0.551
7.0,8.0,0.552
4.0,6.0,0.553
2.0,6.0,0.554
1.0,7.0,0.555
0.0,2.0,0.556
0.0,-4.0,0.557
1.0,-9.0,0.558
3.0,-12.0,0.559
2.0,-13.0,0.56
-4.0,-15.0,0.561
-9.0,-10.0,0.562
-5.0,-2.0,0.563
1.0,5.0,0.564
-1.0,8.0,0.565
-11.0,7.0,0.566
-19.0,3.0,0.567
-13.0,0.0,0.568
-1.0,-2.0,0.569
10.0,-1.0,0.57
18.0,0.0,0.571
25.0,1.0,0.572
29.0,1.0,0.573
25.0,3.0,0.574
18.0,5.0,0.575
11.0,3.0,0.576
3.0,0.0,0.577
-17.0,-2.0,0.578
-38.0,-2.0,0.579
-46.0,-3.0,0.58
-37.0,-5.0,0.581
-18.0,-3.0,0.582
0.0,-2.0,0.583
15.0,-1.0,0.584
22.0,0.0,0.585
21.0,2.0,0.586
18.0,4.0,0.587
19.0,3.0,0.588
21.0,3.0,0.589
20.0,4.0,0.59
16.0,1.0,0.591
12.0,-3.0,0.592
10.0,-2.0,0.593
8.0,4.0,0.594
4.0,9.0,0.595
0.0,7.0,0.596
0.0,3.0,0.597
1.0,0.0,0.598
2.0,-3.0,0.599
0.0,-10.0,0.6
-2.0,-23.0,0.601
0.0,-28.0,0.602
6.0,-21.0,0.603
14.0,-10.0,0.604
17.0,0.0,0.605
18.0,6.0,0.606
20.0,5.0,0.607
20.0,1.0,0.608
13.0,-2.0,0.609
-2.0,2.0,0.61
-13.0,10.0,0.611
-12.0,11.0,0.612
0.0,8.0,0.613
17.0,2.0,0.614
24.0,1.0,0.615
18.0,3.0,0.616
7.0,6.0,0.617
-5.0,5.0,0.618
-10.0,4.0,0.619
-18.0,4.0,0.62
-38.0,1.0,0.621
-58.0,1.0,0.622
-58.0,0.0,0.623
-34.0,-1.0,0.624
-11.0,0.0,0.625
-2.0,2.0,0.626
0.0,1.0,0.627
7.0,-2.0,0.628
15.0,-5.0,0.629
19.0,-6.0,0.63
22.0,-3.0,0.631
26.0,-1.0,0.632
27.0,0.0,0.633
22.0,2.0,0.634
19.0,2.0,0.635
18.0,3.0,0.636
15.0,2.0,0.637
6.0,-1.0,0.638
3.0,-2.0,0.639
5.0,-3.0,0.64
2.0,-2.0,0.641
-2.0,-1.0,0.642
1.0,-1.0,0.643
13.0,-2.0,0.644
18.0,0.0,0.645
10.0,4.0,0.646
-3.0,1.0,0.647
-7.0,-5.0,0.648
-6.0,-6.0,0.649
-4.0,-1.0,0.65
0.0,3.0,0.651
6.0,-1.0,0.652
7.0,-6.0,0.653
4.0,-3.0,0.654
4.0,3.0,0.655
8.0,5.0,0.656
11.0,3.0,0.657
6.0,-5.0,0.658
2.0,-9.0,0.659
0.0,-9.0,0.66
-2.0,-8.0,0.661
-4.0,-6.0,0.662
-1.0,-4.0,0.663
5.0,-2.0,0.664
8.0,2.0,0.665
2.0,6.0,0.666
-1.0,2.0,0.667
0.0,-5.0,0.668
5.0,-7.0,0.669
5.0,-4.0,0.67
5.0,-1.0,0.671
5.0,-1.0,0.672
5.0,0.0,0.673
3.0,3.0,0.674
2.0,5.0,0.675
3.0,3.0,0.676
6.0,2.0,0.677
7.0,1.0,0.678
3.0,0.0,0.679
-6.0,-2.0,0.68
-19.0,-7.0,0.681
-24.0,-5.0,0.682
-17.0,-2.0,0.683
-3.0,-1.0,0.684
3.0,1.0,0.685
2.0,3.0,0.686
0.0,2.0,0.687
3.0,-5.0,0.688
7.0,-8.0,0.689
6.0,0.0,0.69
4.0,8.0,0.691
7.0,6.0,0.692
12.0,-2.0,0.693
14.0,-3.0,0.694
13.0,1.0,0.695
11.0,4.0,0.696
9.0,2.0,0.697
5.0,-2.0,0.698
0.0,-5.0,0.699
-6.0,-6.0,0.7
-13.0,-9.0,0.701
-17.0,-5.0,0.702
-11.0,2.0,0.703
1.0,6.0,0.704
9.0,5.0,0.705
6.0,2.0,0.706
2.0,-1.0,0.707
7.0,-3.0,0.708
15.0,-3.0,0.709
15.0,-1.0,0.71
11.0,0.0,0.711
12.0,0.0,0.712
16.0,3.0,0.713
15.0,6.0,0.714
6.0,6.0,0.715
-2.0,3.0,0.716
-5.0,2.0,0.717
-6.0,1.0,0.718
-9.0,0.0,0.719
-13.0,0.0,0.72
-9.0,-1.0,0.721
0.0,-2.0,0.722
8.0,-6.0,0.723
7.0,-9.0,0.724
-1.0,-6.0,0.725
-11.0,-1.0,0.726
-11.0,0.0,0.727
-3.0,-5.0,0.728
6.0,-7.0,0.729
10.0,-6.0,0.73
9.0,0.0,0.731
10.0,2.0,0.732
9.0,1.0,0.733
4.0,3.0,0.734
-1.0,6.0,0.735
-1.0,8.0,0.736
1.0,9.0,0.737
3.0,4.0,0.738
4.0,1.0,0.739
4.0,1.0,0.74
5.0,-1.0,0.741
4.0,-2.0,0.742
6.0,-4.0,0.743
13.0,-3.0,0.744
16.0,-3.0,0.745
9.0,-3.0,0.746
3.0,-3.0,0.747
7.0,-4.0,0.748
15.0,-2.0,0.749
13.0,0.0,0.75
3.0,-1.0,0.751
-3.0,-3.0,0.752
-5.0,-5.0,0.753
-9.0,-1.0,0.754
-15.0,1.0,0.755
-19.0,0.0,0.756
-16.0,0.0,0.757
-8.0,-2.0,0.758
9.0,-2.0,0.759
26.0,-4.0,0.76
26.0,-8.0,0.761
13.0,-8.0,0.762
5.0,-3.0,0.763
13.0,1.0,0.764
19.0,4.0,0.765
11.0,3.0,0.766
1.0,1.0,0.767
1.0,-3.0,0.768
8.0,-4.0,0.769
5.0,-2.0,0.77
-3.0,1.0,0.771
-6.0,1.0,0.772
-4.0,3.0,0.773
-3.0,5.0,0.774
-4.0,6.0,0.775
-3.0,3.0,0.776
-2.0,3.0,0.777
-3.0,2.0,0.778
-6.0,1.0,0.779
-10.0,1.0,0.78
-13.0,0.0,0.781
-12.0,-1.0,0.782
-3.0,-8.0,0.783
5.0,-14.0,0.784
6.0,-11.0,0.785
0.0,1.0,0.786
-2.0,7.0,0.787
0.0,3.0,0.788
0.0,-4.0,0.789
1.0,-2.0,0.79
8.0,3.0,0.791
15.0,1.0,0.792
17.0,-1.0,0.793
14.0,2.0,0.794
12.0,6.0,0.795
11.0,6.0,0.796
10.0,5.0,0.797
10.0,2.0,0.798
11.0,-1.0,0.799
8.0,-7.0,0.8
2.0,-11.0,0.801
0.0,-7.0,0.802
1.0,-4.0,0.803
0.0,-7.0,0.804
-8.0,-8.0,0.805
-22.0,-3.0,0.806
-29.0,0.0,0.807
-23.0,-3.0,0.808
-11.0,-5.0,0.809
3.0,-3.0,0.81
13.0,0.0,0.811
11.0,1.0,0.812
4.0,6.0,0.813
1.0,11.0,0.814
4.0,10.0,0.815
4.0,1.0,0.816
4.0,-4.0,0.817
6.0,-5.0,0.818
9.0,-3.0,0.819
0.0,-5.0,0.82
-16.0,-8.0,0.821
-19.0,-3.0,0.822
5.0,0.0,0.823
42.0,-1.0,0.824
60.0,-2.0,0.825
57.0,-1.0,0.826
47.0,-1.0,0.827
38.0,-4.0,0.828
27.0,-6.0,0.829
12.0,-3.0,0.83
3.0,1.0,0.831
6.0,3.0,0.832
3.0,5.0,0.833
-14.0,6.0,0.834
-35.0,4.0,0.835
-35.0,-1.0,0.836
-16.0,-3.0,0.837
-1.0,-3.0,0.838
-2.0,-1.0,0.839
-12.0,0.0,0.84
-14.0,-5.0,0.841
-11.0,-8.0,0.842
-10.0,-8.0,0.843
-10.0,-7.0,0.844
-9.0,-2.0,0.845
-7.0,2.0,0.846
-2.0,3.0,0.847
6.0,0.0,0.848
13.0,-4.0,0.849
8.0,-4.0,0.85
-2.0,-2.0,0.851
-1.0,2.0,0.852
10.0,3.0,0.853
16.0,3.0,0.854
8.0,4.0,0.855
0.0,5.0,0.856
0.0,5.0,0.857
1.0,1.0,0.858
-1.0,-1.0,0.859
-7.0,-1.0,0.86
-7.0,-3.0,0.861
-1.0,-5.0,0.862
7.0,-7.0,0.863
10.0,-8.0,0.864
2.0,-4.0,0.865
-6.0,-1.0,0.866
-6.0,-3.0,0.867
-1.0,-2.0,0.868
4.0,1.0,0.869
3.0,5.0,0.87
3.0,2.0,0.871
9.0,-2.0,0.872
13.0,0.0,0.873
10.0,8.0,0.874
5.0,10.0,0.875
5.0,8.0,0.876
9.0,5.0,0.877
7.0,1.0,0.878
2.0,-1.0,0.879
-3.0,-4.0,0.88
-5.0,-6.0,0.881
-4.0,-4.0,0.882
3.0,-3.0,0.883
12.0,-3.0,0.884
8.0,-3.0,0.885
-4.0,2.0,0.886
-9.0,4.0,0.887
-3.0,1.0,0.888
0.0,-2.0,0.889
-4.0,-1.0,0.89
-3.0,3.0,0.891
14.0,1.0,0.892
35.0,-4.0,0.893
41.0,-4.0,0.894
29.0,4.0,0.895
14.0,11.0,0.896
7.0,8.0,0.897
3.0,0.0,0.898
0.0,1.0,0.899
-6.0,2.0,0.9
-10.0,-2.0,0.901
-8.0,-6.0,0.902
-1.0,-9.0,0.903
7.0,-10.0,0.904
10.0,-4.0,0.905
0.0,0.0,0.906
-11.0,-3.0,0.907
-18.0,-5.0,0.908
-14.0,-2.0,0.909
-2.0,1.0,0.91
10.0,1.0,0.911
18.0,1.0,0.912
21.0,1.0,0.913
19.0,2.0,0.914
9.0,3.0,0.915
-5.0,5.0,0.916
-13.0,5.0,0.917
-14.0,3.0,0.918
-6.0,1.0,0.919
-2.0,-1.0,0.92
-3.0,-5.0,0.921
-4.0,-5.0,0.922
2.0,-3.0,0.923
12.0,-3.0,0.924
13.0,-2.0,0.925
8.0,0.0,0.926
6.0,0.0,0.927
11.0,-3.0,0.928
10.0,-2.0,0.929
3.0,6.0,0.93
-1.0,10.0,0.931
2.0,4.0,0.932
5.0,-3.0,0.933
0.0,-1.0,0.934
-3.0,3.0,0.935
-3.0,2.0,0.936
0.0,-1.0,0.937
0.0,-4.0,0.938
0.0,-2.0,0.939
0.0,-2.0,0.94
0.0,-7.0,0.941
0.0,-8.0,0.942
5.0,-5.0,0.943
10.0,-4.0,0.944
7.0,-5.0,0.945
1.0,-3.0,0.946
-3.0,-1.0,0.947
-3.0,-1.0,0.948
-4.0,-2.0,0.949
-6.0,-1.0,0.95
-2.0,0.0,0.951
6.0,-4.0,0.952
13.0,-7.0,0.953
9.0,-1.0,0.954
5.0,5.0,0.955
7.0,5.0,0.956
11.0,3.0,0.957
8.0,2.0,0.958
1.0,3.0,0.959
-5.0,3.0,0.96
-8.0,-5.0,0.961
-10.0,-11.0,0.962
-9.0,-11.0,0.963
-8.0,-9.0,0.964
-10.0,-3.0,0.965
-14.0,0.0,0.966
-12.0,-1.0,0.967
-2.0,-4.0,0.968
13.0,-2.0,0.969
30.0,0.0,0.97
40.0,4.0,0.971
42.0,7.0,0.972
34.0,8.0,0.973
25.0,8.0,0.974
18.0,2.0,0.975
7.0,-2.0,0.976
-6.0,-3.0,0.977
-13.0,-4.0,0.978
-6.0,-4.0,0.979
-3.0,-5.0,0.98
-11.0,-7.0,0.981
-17.0,-2.0,0.982
-17.0,2.0,0.983
-17.0,4.0,0.984
-17.0,0.0,0.985
-14.0,-4.0,0.986
-3.0,-5.0,0.987
7.0,-2.0,0.988
17.0,-2.0,0.989
24.0,-1.0,0.99
20.0,3.0,0.991
15.0,10.0,0.992
9.0,9.0,0.993
4.0,2.0,0.994
8.0,0.0,0.995
9.0,5.0,0.996
1.0,8.0,0.997
-7.0,1.0,0.998
-20.0,-4.0,0.999
-30.0,-2.0,1.0
-33.0,-3.0,1.001
-21.0,-6.0,1.002
2.0,-6.0,1.003
23.0,-2.0,1.004
25.0,1.0,1.005
14.0,-4.0,1.006
3.0,-11.0,1.007
0.0,-8.0,1.008
-2.0,2.0,1.009
4.0,11.0,1.01
15.0,9.0,1.011
20.0,-2.0,1.012
15.0,-7.0,1.013
9.0,-7.0,1.014
8.0,-1.0,1.015
11.0,0.0,1.016
12.0,-1.0,1.017
13.0,-1.0,1.018
19.0,2.0,1.019
15.0,5.0,1.02
0.0,2.0,1.021
-8.0,-2.0,1.022
-2.0,-5.0,1.023
7.0,-6.0,1.024
1.0,-4.0,1.025
-12.0,-3.0,1.026
-18.0,-2.0,1.027
-12.0,-3.0,1.028
-6.0,-2.0,1.029
-5.0,-3.0,1.03
-5.0,-6.0,1.031
-1.0,-9.0,1.032
3.0,-6.0,1.033
6.0,5.0,1.034
4.0,11.0,1.035
4.0,8.0,1.036
7.0,3.0,1.037
3.0,2.0,1.038
-2.0,3.0,1.039
-8.0,5.0,1.04
-5.0,2.0,1.041
2.0,-2.0,1.042
9.0,-1.0,1.043
10.0,1.0,1.044
0.0,2.0,1.045
-9.0,5.0,1.046
-9.0,5.0,1.047
3.0,3.0,1.048
17.0,0.0,1.049
19.0,-5.0,1.05
13.0,-1.0,1.051
9.0,2.0,1.052
9.0,6.0,1.053
6.0,9.0,1.054
0.0,9.0,1.055
-6.0,7.0,1.056
-9.0,3.0,1.057
34.0,1.0,1.058
23.0,4.0,1.059
9.0,6.0,1.06
-4.0,1.0,1.061
-16.0,-3.0,1.062
-21.0,-2.0,1.063
-21.0,0.0,1.064
-9.0,3.0,1.065
0.0,6.0,1.066
5.0,6.0,1.067
9.0,4.0,1.068
4.0,-1.0,1.069
0.0,-6.0,1.07
-3.0,-2.0,1.071
-3.0,3.0,1.072
8.0,7.0,1.073
14.0,10.0,1.074
1.0,10.0,1.075
-8.0,8.0,1.076
-4.0,4.0,1.077
33.0,-2.0,1.078
22.0,-7.0,1.079
9.0,-5.0,1.08
-4.0,-6.0,1.081
-16.0,-9.0,1.082
-20.0,-11.0,1.083
-20.0,-6.0,1.084
-9.0,-2.0,1.085
0.0,-2.0,1.086
5.0,-7.0,1.087
9.0,-8.0,1.088
4.0,-5.0,1.089
0.0,-3.0,1.09
-3.0,-3.0,1.091
-3.0,-2.0,1.092
8.0,-2.0,1.093
14.0,-5.0,1.094
1.0,-7.0,1.095
-8.0,-5.0,1.096
-4.0,-1.0,1.097
0.0,1.0,1.098
-5.0,5.0,1.099
-14.0,7.0,1.1
-13.0,1.0,1.101
-7.0,-2.0,1.102
-3.0,0.0,1.103
0.0,1.0,1.104
6.0,0.0,1.105
6.0,-3.0,1.106
1.0,-1.0,1.107
1.0,0.0,1.108
6.0,1.0,1.109
8.0,2.0,1.11
6.0,5.0,1.111
4.0,7.0,1.112
5.0,2.0,1.113
3.0,-1.0,1.114
1.0,2.0,1.115
3.0,4.0,1.116
8.0,0.0,1.117
0.0,-5.0,1.118
-5.0,-7.0,1.119
-11.0,-3.0,1.12
-13.0,-3.0,1.121
-13.0,-3.0,1.122
-4.0,-5.0,1.123
1.0,-2.0,1.124
-4.0,0.0,1.125
-10.0,-1.0,1.126
-13.0,0.0,1.127
-17.0,3.0,1.128
-17.0,7.0,1.129
-13.0,5.0,1.13
0.0,-1.0,1.131
14.0,-2.0,1.132
25.0,4.0,1.133
31.0,7.0,1.134
22.0,1.0,1.135
14.0,-4.0,1.136
11.0,0.0,1.137
0.0,5.0,1.138
-4.0,4.0,1.139
-8.0,3.0,1.14
-9.0,3.0,1.141
-9.0,5.0,1.142
-3.0,0.0,1.143
1.0,-6.0,1.144
-3.0,-6.0,1.145
-7.0,-3.0,1.146
-9.0,-5.0,1.147
-12.0,-8.0,1.148
-12.0,-7.0,1.149
-9.0,0.0,1.15
0.0,4.0,1.151
10.0,3.0,1.152
17.0,4.0,1.153
21.0,3.0,1.154
15.0,3.0,1.155
10.0,3.0,1.156
8.0,4.0,1.157
6.0,0.0,1.158
-1.0,-7.0,1.159
-11.0,-9.0,1.16
-19.0,-9.0,1.161
-19.0,-8.0,1.162
-5.0,-11.0,1.163
11.0,-11.0,1.164
16.0,-4.0,1.165
10.0,0.0,1.166
7.0,-3.0,1.167
9.0,-6.0,1.168
5.0,-1.0,1.169
-2.0,8.0,1.17
-3.0,8.0,1.171
5.0,2.0,1.172
12.0,1.0,1.173
12.0,1.0,1.174
8.0,0.0,1.175
4.0,-1.0,1.176
-1.0,-1.0,1.177
-10.0,2.0,1.178
-14.0,1.0,1.179
-12.0,-4.0,1.18
-9.0,-11.0,1.181
-7.0,-10.0,1.182
-2.0,-7.0,1.183
4.0,-4.0,1.184
6.0,-1.0,1.185
5.0,1.0,1.186
9.0,-1.0,1.187
14.0,-4.0,1.188
14.0,0.0,1.189
11.0,10.0,1.19
13.0,20.0,1.191
16.0,24.0,1.192
14.0,18.0,1.193
9.0,10.0,1.194
2.0,4.0,1.195
-5.0,-2.0,1.196
-16.0,-3.0,1.197
-26.0,-2.0,1.198
-28.0,1.0,1.199
-26.0,0.0,1.2
-27.0,-10.0,1.201
-26.0,-19.0,1.202
-13.0,-19.0,1.203
13.0,-13.0,1.204
33.0,-6.0,1.205
39.0,3.0,1.206
45.0,10.0,1.207
52.0,10.0,1.208
49.0,3.0,1.209
33.0,-4.0,1.21
17.0,-6.0,1.211
14.0,-4.0,1.212
16.0,0.0,1.213
10.0,1.0,1.214
0.0,5.0,1.215
-2.0,6.0,1.216
4.0,3.0,1.217
4.0,-4.0,1.218
-4.0,-4.0,1.219
-12.0,1.0,1.22
-16.0,4.0,1.221
-21.0,6.0,1.222
-25.0,5.0,1.223
-29.0,3.0,1.224
-37.0,-2.0,1.225
-41.0,-8.0,1.226
-32.0,-12.0,1.227
-22.0,-12.0,1.228
-12.0,-9.0,1.229
-3.0,-5.0,1.23
4.0,-6.0,1.231
11.0,-8.0,1.232
17.0,-6.0,1.233
22.0,0.0,1.234
24.0,8.0,1.235
27.0,15.0,1.236
27.0,22.0,1.237
25.0,23.0,1.238
14.0,19.0,1.239
8.0,6.0,1.24
9.0,-4.0,1.241
4.0,-3.0,1.242
0.0,1.0,1.243
0.0,-1.0,1.244
-5.0,-6.0,1.245
-22.0,-6.0,1.246
-38.0,-2.0,1.247
-33.0,-3.0,1.248
-12.0,-6.0,1.249
7.0,-4.0,1.25
21.0,2.0,1.251
37.0,1.0,1.252
54.0,-3.0,1.253
57.0,-4.0,1.254
40.0,0.0,1.255
22.0,1.0,1.256
16.0,0.0,1.257
10.0,-1.0,1.258
0.0,-3.0,1.259
-12.0,-6.0,1.26
-20.0,-11.0,1.261
-24.0,-8.0,1.262
-24.0,-2.0,1.263
-17.0,0.0,1.264
-8.0,0.0,1.265
-3.0,2.0,1.266
-5.0,2.0,1.267
-1.0,-1.0,1.268
8.0,-2.0,1.269
13.0,1.0,1.27
9.0,5.0,1.271
4.0,6.0,1.272
3.0,5.0,1.273
5.0,5.0,1.274
5.0,1.0,1.275
2.0,-3.0,1.276
-1.0,-3.0,1.277
-7.0,-2.0,1.278
-11.0,-1.0,1.279
-13.0,-2.0,1.28
-10.0,-7.0,1.281
-7.0,-8.0,1.282
1.0,-6.0,1.283
14.0,-2.0,1.284
15.0,4.0,1.285
3.0,8.0,1.286
-8.0,2.0,1.287
-11.0,-6.0,1.288
-7.0,-5.0,1.289
-2.0,3.0,1.29
-2.0,4.0,1.291
1.0,-4.0,1.292
4.0,-12.0,1.293
6.0,-11.0,1.294
6.0,-6.0,1.295
8.0,-7.0,1.296
11.0,-8.0,1.297
11.0,-7.0,1.298
5.0,-7.0,1.299
-2.0,-9.0,1.3
-7.0,-13.0,1.301
-10.0,-8.0,1.302
-7.0,4.0,1.303
1.0,14.0,1.304
8.0,15.0,1.305
10.0,9.0,1.306
14.0,3.0,1.307
20.0,1.0,1.308
25.0,3.0,1.309
22.0,1.0,1.31
8.0,-7.0,1.311
-16.0,-15.0,1.312
-40.0,-15.0,1.313
-56.0,-7.0,1.314
-57.0,7.0,1.315
-42.0,18.0,1.316
-22.0,24.0,1.317
-1.0,21.0,1.318
17.0,12.0,1.319
32.0,8.0,1.32
46.0,7.0,1.321
56.0,11.0,1.322
64.0,12.0,1.323
70.0,8.0,1.324
67.0,1.0,1.325
45.0,-5.0,1.326
14.0,-12.0,1.327
-6.0,-12.0,1.328
-10.0,-8.0,1.329
-17.0,-5.0,1.33
-36.0,-7.0,1.331
-48.0,-9.0,1.332
-33.0,-7.0,1.333
-3.0,-4.0,1.334
19.0,-4.0,1.335
22.0,-4.0,1.336
18.0,0.0,1.337
17.0,3.0,1.338
26.0,3.0,1.339
43.0,-3.0,1.34
58.0,-11.0,1.341
60.0,-14.0,1.342
50.0,-14.0,1.343
37.0,-11.0,1.344
22.0,-5.0,1.345
1.0,0.0,1.346
-16.0,-2.0,1.347
-20.0,-5.0,1.348
-18.0,-2.0,1.349
-22.0,0.0,1.35
-32.0,0.0,1.351
-36.0,-3.0,1.352
-32.0,-3.0,1.353
-26.0,4.0,1.354
-22.0,8.0,1.355
-16.0,8.0,1.356
-9.0,6.0,1.357
-12.0,1.0,1.358
-19.0,-2.0,1.359
-26.0,-4.0,1.36
-29.0,-6.0,1.361
-29.0,-4.0,1.362
-25.0,-4.0,1.363
-16.0,-3.0,1.364
-7.0,1.0,1.365
-6.0,5.0,1.366
-6.0,6.0,1.367
0.0,5.0,1.368
5.0,4.0,1.369
5.0,2.0,1.37
2.0,-3.0,1.371
7.0,-6.0,1.372
12.0,-3.0,1.373
11.0,1.0,1.374
9.0,2.0,1.375
10.0,-1.0,1.376
13.0,-2.0,1.377
10.0,-2.0,1.378
4.0,0.0,1.379
1.0,-1.0,1.38
0.0,-9.0,1.381
-2.0,-13.0,1.382
0.0,-10.0,1.383
6.0,-3.0,1.384
9.0,6.0,1.385
4.0,13.0,1.386
3.0,17.0,1.387
10.0,18.0,1.388
15.0,16.0,1.389
16.0,10.0,1.39
17.0,2.0,1.391
21.0,-2.0,1.392
19.0,-2.0,1.393
10.0,-1.0,1.394
4.0,-1.0,1.395
3.0,-4.0,1.396
2.0,-7.0,1.397
-3.0,-10.0,1.398
-8.0,-9.0,1.399
-12.0,-2.0,1.4
-16.0,0.0,1.401
-11.0,-2.0,1.402
4.0,-3.0,1.403
22.0,-1.0,1.404
29.0,4.0,1.405
25.0,4.0,1.406
22.0,-3.0,1.407
21.0,-9.0,1.408
19.0,-7.0,1.409
16.0,0.0,1.41
14.0,2.0,1.411
10.0,-3.0,1.412
0.0,-7.0,1.413
-7.0,-4.0,1.414
-7.0,2.0,1.415
-3.0,7.0,1.416
-3.0,5.0,1.417
-7.0,0.0,1.418
-10.0,-3.0,1.419
-10.0,-4.0,1.42
-10.0,-5.0,1.421
-11.0,-5.0,1.422
-6.0,-6.0,1.423
0.0,-6.0,1.424
1.0,-3.0,1.425
0.0,2.0,1.426
0.0,4.0,1.427
2.0,1.0,1.428
4.0,0.0,1.429
4.0,3.0,1.43
5.0,6.0,1.431
7.0,7.0,1.432
8.0,5.0,1.433
10.0,3.0,1.434
12.0,1.0,1.435
5.0,0.0,1.436
-6.0,-1.0,1.437
-14.0,-2.0,1.438
-13.0,-2.0,1.439
-14.0,-5.0,1.44
-21.0,-8.0,1.441
-23.0,-8.0,1.442
-14.0,-7.0,1.443
5.0,-7.0,1.444
17.0,-3.0,1.445
17.0,1.0,1.446
16.0,5.0,1.447
17.0,3.0,1.448
19.0,0.0,1.449
25.0,-1.0,1.45
32.0,2.0,1.451
35.0,4.0,1.452
30.0,4.0,1.453
22.0,5.0,1.454
18.0,5.0,1.455
16.0,1.0,1.456
13.0,-2.0,1.457
9.0,-2.0,1.458
4.0,0.0,1.459
-5.0,-2.0,1.46
-19.0,-9.0,1.461
-24.0,-5.0,1.462
-21.0,4.0,1.463
-14.0,6.0,1.464
-14.0,-3.0,1.465
-18.0,-12.0,1.466
-15.0,-12.0,1.467
-6.0,-7.0,1.468
-2.0,-4.0,1.469
-4.0,-3.0,1.47
-3.0,-1.0,1.471
11.0,4.0,1.472
21.0,7.0,1.473
19.0,4.0,1.474
11.0,0.0,1.475
5.0,-1.0,1.476
5.0,4.0,1.477
2.0,8.0,1.478
-3.0,6.0,1.479
-12.0,0.0,1.48
-16.0,-5.0,1.481
-13.0,-2.0,1.482
-5.0,1.0,1.483
-2.0,1.0,1.484
-5.0,-1.0,1.485
-7.0,-2.0,1.486
-4.0,-3.0,1.487
1.0,-3.0,1.488
4.0,-2.0,1.489
3.0,-1.0,1.49
4.0,-3.0,1.491
7.0,-6.0,1.492
7.0,-5.0,1.493
5.0,0.0,1.494
4.0,1.0,1.495
8.0,-2.0,1.496
10.0,-3.0,1.497
4.0,-1.0,1.498
-1.0,-1.0,1.499
-9.0,-3.0,1.5
-16.0,-2.0,1.501
-15.0,5.0,1.502
-3.0,10.0,1.503
13.0,4.0,1.504
18.0,-5.0,1.505
14.0,-6.0,1.506
11.0,0.0,1.507
13.0,5.0,1.508
16.0,2.0,1.509
17.0,-4.0,1.51
18.0,-7.0,1.511
19.0,-6.0,1.512
18.0,-6.0,1.513
16.0,-2.0,1.514
13.0,1.0,1.515
9.0,3.0,1.516
4.0,4.0,1.517
-1.0,2.0,1.518
-7.0,2.0,1.519
-11.0,2.0,1.52
-11.0,-1.0,1.521
-8.0,-5.0,1.522
-4.0,-7.0,1.523
-4.0,-4.0,1.524
-5.0,0.0,1.525
-4.0,0.0,1.526
3.0,0.0,1.527
11.0,-2.0,1.528
14.0,1.0,1.529
16.0,7.0,1.53
16.0,8.0,1.531
13.0,5.0,1.532
9.0,1.0,1.533
8.0,3.0,1.534
9.0,5.0,1.535
5.0,2.0,1.536
1.0,-1.0,1.537
0.0,8.0,1.538
2.0,4.0,1.539
-3.0,0.0,1.54
-13.0,-4.0,1.541
-18.0,-7.0,1.542
-14.0,-3.0,1.543
-6.0,-1.0,1.544
-3.0,-1.0,1.545
-1.0,0.0,1.546
1.0,1.0,1.547
6.0,2.0,1.548
8.0,0.0,1.549
9.0,-1.0,1.55
12.0,-3.0,1.551
9.0,-6.0,1.552
1.0,-4.0,1.553
-4.0,-3.0,1.554
0.0,-4.0,1.555
7.0,-4.0,1.556
8.0,0.0,1.557
-1.0,6.0,1.558
-2.0,3.0,1.559
-5.0,0.0,1.56
-9.0,-4.0,1.561
-10.0,-6.0,1.562
-2.0,-3.0,1.563
3.0,-1.0,1.564
3.0,-1.0,1.565
2.0,0.0,1.566
2.0,1.0,1.567
2.0,2.0,1.568
3.0,0.0,1.569
4.0,-1.0,1.57
1.0,-3.0,1.571
-1.0,-5.0,1.572
-1.0,-4.0,1.573
-1.0,-3.0,1.574
-3.0,-4.0,1.575
-9.0,-4.0,1.576
-21.0,0.0,1.577
0.0,1.0,1.578
-3.0,-6.0,1.579
-6.0,-11.0,1.58
-10.0,-9.0,1.581
-11.0,-5.0,1.582
-3.0,-7.0,1.583
4.0,-9.0,1.584
4.0,-1.0,1.585
3.0,9.0,1.586
3.0,10.0,1.587
3.0,4.0,1.588
4.0,3.0,1.589
5.0,4.0,1.59
2.0,1.0,1.591
0.0,-1.0,1.592
0.0,1.0,1.593
0.0,6.0,1.594
-4.0,4.0,1.595
-10.0,0.0,1.596
-23.0,3.0,1.597
-33.0,7.0,1.598
-31.0,9.0,1.599
-22.0,8.0,1.6
-10.0,5.0,1.601
8.0,4.0,1.602
34.0,0.0,1.603
54.0,-4.0,1.604
58.0,-4.0,1.605
47.0,-4.0,1.606
38.0,-5.0,1.607
28.0,-8.0,1.608
11.0,-9.0,1.609
-7.0,-8.0,1.61
-7.0,-7.0,1.611
10.0,-2.0,1.612
27.0,4.0,1.613
32.0,5.0,1.614
24.0,-1.0,1.615
10.0,-6.0,1.616
0.0,-4.0,1.617
4.0,-1.0,1.618
16.0,0.0,1.619
16.0,0.0,1.62
-6.0,-2.0,1.621
-32.0,-2.0,1.622
-42.0,-3.0,1.623
-41.0,-5.0,1.624
-41.0,-1.0,1.625
-38.0,4.0,1.626
-23.0,4.0,1.627
0.0,-1.0,1.628
16.0,-6.0,1.629
26.0,-7.0,1.63
37.0,-8.0,1.631
48.0,-9.0,1.632
53.0,-8.0,1.633
51.0,-5.0,1.634
40.0,-2.0,1.635
19.0,-1.0,1.636
-1.0,1.0,1.637
-13.0,2.0,1.638
-17.0,2.0,1.639
-22.0,2.0,1.64
-31.0,0.0,1.641
-29.0,0.0,1.642
-17.0,6.0,1.643
-9.0,11.0,1.644
-12.0,10.0,1.645
-15.0,7.0,1.646
-7.0,0.0,1.647
1.0,-6.0,1.648
4.0,-4.0,1.649
-1.0,-2.0,1.65
-7.0,0.0,1.651
-8.0,2.0,1.652
-7.0,0.0,1.653
-7.0,-1.0,1.654
-7.0,5.0,1.655
-1.0,10.0,1.656
12.0,8.0,1.657
16.0,5.0,1.658
10.0,4.0,1.659
4.0,3.0,1.66
-4.0,-4.0,1.661
-10.0,-7.0,1.662
-6.0,-6.0,1.663
0.0,-3.0,1.664
5.0,-3.0,1.665
12.0,-5.0,1.666
18.0,-4.0,1.667
22.0,-5.0,1.668
18.0,-3.0,1.669
13.0,-2.0,1.67
4.0,-3.0,1.671
-2.0,-3.0,1.672
2.0,-3.0,1.673
7.0,0.0,1.674
11.0,3.0,1.675
14.0,1.0,1.676
14.0,-1.0,1.677
11.0,-3.0,1.678
-4.0,-1.0,1.679
-9.0,0.0,1.68
-3.0,-4.0,1.681
-4.0,-7.0,1.682
-11.0,-10.0,1.683
-11.0,-7.0,1.684
-2.0,0.0,1.685
0.0,7.0,1.686
-4.0,9.0,1.687
-8.0,3.0,1.688
-5.0,-3.0,1.689
-2.0,-4.0,1.69
-3.0,-3.0,1.691
0.0,-3.0,1.692
6.0,-5.0,1.693
13.0,-4.0,1.694
17.0,1.0,1.695
13.0,3.0,1.696
2.0,5.0,1.697
-15.0,3.0,1.698
-19.0,-1.0,1.699
-1.0,-6.0,1.7
25.0,-11.0,1.701
34.0,-7.0,1.702
24.0,-1.0,1.703
19.0,3.0,1.704
27.0,6.0,1.705
31.0,9.0,1.706
16.0,8.0,1.707
-2.0,2.0,1.708
-8.0,-2.0,1.709
-4.0,-3.0,1.71
-3.0,-3.0,1.711
-1.0,-7.0,1.712
6.0,-8.0,1.713
15.0,-4.0,1.714
9.0,1.0,1.715
-6.0,4.0,1.716
-19.0,3.0,1.717
-22.0,1.0,1.718
-21.0,1.0,1.719
-19.0,6.0,1.72
-15.0,9.0,1.721
-8.0,9.0,1.722
2.0,2.0,1.723
8.0,-2.0,1.724
9.0,0.0,1.725
3.0,4.0,1.726
-2.0,1.0,1.727
-5.0,-6.0,1.728
-5.0,-7.0,1.729
-2.0,-2.0,1.73
6.0,3.0,1.731
16.0,3.0,1.732
30.0,0.0,1.733
39.0,0.0,1.734
33.0,-1.0,1.735
10.0,-2.0,1.736
-15.0,-5.0,1.737
-23.0,-9.0,1.738
-10.0,-10.0,1.739
8.0,-9.0,1.74
12.0,-7.0,1.741
5.0,-5.0,1.742
6.0,-6.0,1.743
11.0,-8.0,1.744
3.0,-8.0,1.745
-10.0,-5.0,1.746
-10.0,-1.0,1.747
0.0,0.0,1.748
1.0,-1.0,1.749
-8.0,0.0,1.75
-10.0,5.0,1.751
0.0,7.0,1.752
9.0,6.0,1.753
6.0,3.0,1.754
2.0,2.0,1.755
4.0,2.0,1.756
5.0,3.0,1.757
-3.0,2.0,1.758
-12.0,2.0,1.759
-20.0,2.0,1.76
-25.0,-2.0,1.761
-26.0,-5.0,1.762
-8.0,-5.0,1.763
8.0,-1.0,1.764
20.0,1.0,1.765
28.0,0.0,1.766
26.0,-2.0,1.767
24.0,-2.0,1.768
28.0,-3.0,1.769
30.0,-4.0,1.77
25.0,-4.0,1.771
18.0,-2.0,1.772
8.0,0.0,1.773
1.0,0.0,1.774
0.0,-1.0,1.775
-3.0,0.0,1.776
-11.0,5.0,1.777
-18.0,6.0,1.778
-26.0,4.0,1.779
-25.0,5.0,1.78
-18.0,6.0,1.781
-5.0,6.0,1.782
11.0,0.0,1.783
19.0,-7.0,1.784
14.0,-8.0,1.785
-1.0,-6.0,1.786
-9.0,-3.0,1.787
-4.0,0.0,1.788
5.0,4.0,1.789
10.0,9.0,1.79
9.0,10.0,1.791
4.0,7.0,1.792
3.0,5.0,1.793
4.0,4.0,1.794
3.0,1.0,1.795
-2.0,-3.0,1.796
-5.0,-4.0,1.797
-4.0,-5.0,1.798
3.0,-4.0,1.799
4.0,-6.0,1.8
1.0,-9.0,1.801
8.0,-7.0,1.802
26.0,-1.0,1.803
35.0,3.0,1.804
20.0,4.0,1.805
-5.0,5.0,1.806
-14.0,4.0,1.807
-11.0,0.0,1.808
-9.0,-5.0,1.809
-10.0,-4.0,1.81
-4.0,0.0,1.811
1.0,3.0,1.812
-2.0,-1.0,1.813
-9.0,-4.0,1.814
-5.0,-5.0,1.815
8.0,-2.0,1.816
16.0,2.0,1.817
10.0,0.0,1.818
0.0,-2.0,1.819
-8.0,-4.0,1.82
-18.0,-7.0,1.821
-19.0,-13.0,1.822
-4.0,-21.0,1.823
18.0,-19.0,1.824
25.0,-4.0,1.825
19.0,10.0,1.826
17.0,14.0,1.827
22.0,7.0,1.828
20.0,3.0,1.829
7.0,7.0,1.83
0.0,9.0,1.831
9.0,7.0,1.832
13.0,4.0,1.833
5.0,4.0,1.834
-5.0,3.0,1.835
-6.0,-1.0,1.836
-4.0,-2.0,1.837
-7.0,-3.0,1.838
-9.0,-5.0,1.839
-10.0,-9.0,1.84
-11.0,-14.0,1.841
-12.0,-10.0,1.842
-4.0,-5.0,1.843
6.0,-4.0,1.844
10.0,-3.0,1.845
5.0,-3.0,1.846
3.0,-1.0,1.847
4.0,1.0,1.848
0.0,5.0,1.849
-6.0,10.0,1.85
-3.0,10.0,1.851
8.0,7.0,1.852
10.0,5.0,1.853
0.0,7.0,1.854
-7.0,8.0,1.855
-4.0,6.0,1.856
3.0,3.0,1.857
9.0,2.0,1.858
14.0,1.0,1.859
17.0,-1.0,1.86
12.0,-7.0,1.861
0.0,-10.0,1.862
-4.0,-10.0,1.863
5.0,-8.0,1.864
20.0,-1.0,1.865
29.0,2.0,1.866
29.0,-4.0,1.867
26.0,-12.0,1.868
25.0,-14.0,1.869
24.0,-10.0,1.87
24.0,-9.0,1.871
22.0,-10.0,1.872
10.0,-7.0,1.873
-7.0,-2.0,1.874
-16.0,4.0,1.875
-14.0,8.0,1.876
-10.0,11.0,1.877
-15.0,9.0,1.878
-20.0,4.0,1.879
-20.0,0.0,1.88
-16.0,-2.0,1.881
-17.0,-2.0,1.882
-17.0,-5.0,1.883
-11.0,-6.0,1.884
-11.0,-1.0,1.885
-23.0,5.0,1.886
-38.0,4.0,1.887
-39.0,0.0,1.888
-27.0,4.0,1.889
-11.0,8.0,1.89
0.0,2.0,1.891
6.0,-6.0,1.892
11.0,-3.0,1.893
23.0,5.0,1.894
37.0,5.0,1.895
44.0,-1.0,1.896
40.0,0.0,1.897
27.0,4.0,1.898
21.0,3.0,1.899
26.0,-1.0,1.9
28.0,-6.0,1.901
22.0,-4.0,1.902
16.0,-3.0,1.903
10.0,-3.0,1.904
0.0,0.0,1.905
-5.0,3.0,1.906
-5.0,0.0,1.907
-1.0,-7.0,1.908
-2.0,-8.0,1.909
-7.0,-6.0,1.91
-7.0,-5.0,1.911
-4.0,-2.0,1.912
-5.0,2.0,1.913
-10.0,5.0,1.914
-12.0,1.0,1.915
-9.0,-2.0,1.916
-4.0,3.0,1.917
-6.0,8.0,1.918
-9.0,5.0,1.919
-12.0,-2.0,1.92
-12.0,-7.0,1.921
-8.0,-5.0,1.922
-1.0,-4.0,1.923
5.0,-4.0,1.924
4.0,-2.0,1.925
-1.0,-1.0,1.926
-2.0,-3.0,1.927
2.0,-5.0,1.928
8.0,-2.0,1.929
9.0,0.0,1.93
9.0,-7.0,1.931
6.0,-11.0,1.932
3.0,-1.0,1.933
-2.0,15.0,1.934
-4.0,17.0,1.935
-4.0,5.0,1.936
2.0,-1.0,1.937
8.0,2.0,1.938
5.0,10.0,1.939
-9.0,8.0,1.94
-21.0,-4.0,1.941
-21.0,-9.0,1.942
-6.0,-4.0,1.943
12.0,-1.0,1.944
20.0,0.0,1.945
19.0,0.0,1.946
21.0,-2.0,1.947
30.0,-3.0,1.948
37.0,-5.0,1.949
33.0,-5.0,1.95
16.0,-2.0,1.951
0.0,-2.0,1.952
-3.0,-2.0,1.953
1.0,-3.0,1.954
3.0,-4.0,1.955
0.0,-6.0,1.956
-1.0,-6.0,1.957
-2.0,-6.0,1.958
-5.0,-4.0,1.959
-17.0,0.0,1.96
-24.0,3.0,1.961
-19.0,4.0,1.962
-4.0,3.0,1.963
10.0,-1.0,1.964
15.0,-3.0,1.965
14.0,-4.0,1.966
8.0,-2.0,1.967
0.0,0.0,1.968
-4.0,2.0,1.969
-4.0,2.0,1.97
0.0,1.0,1.971
7.0,0.0,1.972
14.0,-2.0,1.973
19.0,-1.0,1.974
18.0,-3.0,1.975
14.0,-6.0,1.976
11.0,-4.0,1.977
4.0,-3.0,1.978
0.0,-1.0,1.979
-3.0,-2.0,1.98
-8.0,-3.0,1.981
-13.0,0.0,1.982
-10.0,2.0,1.983
-1.0,1.0,1.984
4.0,-1.0,1.985
1.0,-3.0,1.986
-3.0,-3.0,1.987
-4.0,-2.0,1.988
-5.0,0.0,1.989
-12.0,4.0,1.99
-16.0,6.0,1.991
-5.0,7.0,1.992
12.0,9.0,1.993
24.0,12.0,1.994
24.0,12.0,1.995
20.0,6.0,1.996
17.0,1.0,1.997
10.0,-3.0,1.998
1.0,-3.0,1.999
-5.0,-1.0,2.0
-4.0,0.0,2.001
-1.0,3.0,2.002
3.0,1.0,2.003
6.0,-3.0,2.004
5.0,-6.0,2.005
1.0,-6.0,2.006
3.0,-5.0,2.007
8.0,-4.0,2.008
5.0,-4.0,2.009
-1.0,-3.0,2.01
1.0,-3.0,2.011
16.0,-1.0,2.012
22.0,2.0,2.013
11.0,4.0,2.014
0.0,3.0,2.015
2.0,0.0,2.016
9.0,0.0,2.017
5.0,-3.0,2.018
-6.0,-5.0,2.019
-12.0,-8.0,2.02
-9.0,-10.0,2.021
-9.0,-11.0,2.022
-10.0,-10.0,2.023
-4.0,-5.0,2.024
1.0,4.0,2.025
0.0,8.0,2.026
-4.0,2.0,2.027
-1.0,-4.0,2.028
2.0,-1.0,2.029
3.0,6.0,2.03
-1.0,8.0,2.031
2.0,1.0,2.032
6.0,-1.0,2.033
7.0,0.0,2.034
5.0,1.0,2.035
6.0,-2.0,2.036
5.0,-4.0,2.037
-4.0,-5.0,2.038
-13.0,1.0,2.039
-16.0,9.0,2.04
-12.0,8.0,2.041
-6.0,2.0,2.042
4.0,-4.0,2.043
16.0,-6.0,2.044
21.0,-4.0,2.045
19.0,-1.0,2.046
18.0,-5.0,2.047
20.0,-11.0,2.048
19.0,-10.0,2.049
11.0,-2.0,2.05
12.0,7.0,2.051
27.0,10.0,2.052
41.0,9.0,2.053
34.0,9.0,2.054
12.0,8.0,2.055
-9.0,5.0,2.056
-17.0,3.0,2.057
-17.0,3.0,2.058
-19.0,4.0,2.059
-29.0,0.0,2.06
-32.0,-10.0,2.061
-21.0,-15.0,2.062
1.0,-14.0,2.063
13.0,-8.0,2.064
1.0,-2.0,2.065
-21.0,-1.0,2.066
-28.0,-2.0,2.067
-14.0,-3.0,2.068
5.0,-1.0,2.069
15.0,-1.0,2.07
19.0,-3.0,2.071
25.0,-5.0,2.072
30.0,-5.0,2.073
29.0,-2.0,2.074
19.0,-1.0,2.075
10.0,1.0,2.076
5.0,9.0,2.077
2.0,17.0,2.078
1.0,19.0,2.079
-5.0,12.0,2.08
-14.0,1.0,2.081
-18.0,-1.0,2.082
-15.0,-1.0,2.083
-7.0,-1.0,2.084
-6.0,-3.0,2.085
-12.0,-5.0,2.086
-11.0,-6.0,2.087
-4.0,-8.0,2.088
0.0,-9.0,2.089
3.0,-7.0,2.09
16.0,-3.0,2.091
32.0,1.0,2.092
36.0,3.0,2.093
23.0,2.0,2.094
13.0,0.0,2.095
20.0,-1.0,2.096
29.0,-1.0,2.097
23.0,-2.0,2.098
12.0,-4.0,2.099
10.0,-5.0,2.1
12.0,-6.0,2.101
1.0,-6.0,2.102
-14.0,-7.0,2.103
-13.0,-5.0,2.104
-3.0,0.0,2.105
-3.0,6.0,2.106
-12.0,6.0,2.107
-12.0,2.0,2.108
-2.0,3.0,2.109
0.0,4.0,2.11
-8.0,1.0,2.111
-13.0,-3.0,2.112
-9.0,0.0,2.113
-6.0,6.0,2.114
-7.0,3.0,2.115
-7.0,-6.0,2.116
-2.0,-7.0,2.117
0.0,-2.0,2.118
-2.0,3.0,2.119
-6.0,5.0,2.12
-7.0,-3.0,2.121
-7.0,-8.0,2.122
-3.0,-3.0,2.123
2.0,1.0,2.124
4.0,1.0,2.125
0.0,0.0,2.126
-5.0,-4.0,2.127
-2.0,-7.0,2.128
3.0,-6.0,2.129
7.0,-4.0,2.13
11.0,1.0,2.131
15.0,6.0,2.132
19.0,8.0,2.133
17.0,10.0,2.134
16.0,10.0,2.135
19.0,9.0,2.136
23.0,7.0,2.137
17.0,6.0,2.138
5.0,4.0,2.139
-6.0,-5.0,2.14
-15.0,-12.0,2.141
-19.0,-9.0,2.142
-6.0,-5.0,2.143
4.0,-3.0,2.144
4.0,-2.0,2.145
2.0,-1.0,2.146
-3.0,-4.0,2.147
-9.0,-12.0,2.148
-8.0,-15.0,2.149
-3.0,-9.0,2.15
10.0,-3.0,2.151
21.0,-1.0,2.152
22.0,2.0,2.153
25.0,8.0,2.154
35.0,8.0,2.155
43.0,0.0,2.156
44.0,-1.0,2.157
39.0,1.0,2.158
9.0,3.0,2.159
-16.0,1.0,2.16
-26.0,-5.0,2.161
-29.0,-7.0,2.162
-31.0,-8.0,2.163
-30.0,-9.0,2.164
-22.0,-5.0,2.165
-8.0,0.0,2.166
3.0,-1.0,2.167
4.0,-3.0,2.168
-5.0,-1.0,2.169
-19.0,3.0,2.17
-28.0,1.0,2.171
-29.0,-5.0,2.172
-26.0,-6.0,2.173
-16.0,-3.0,2.174
3.0,2.0,2.175
25.0,6.0,2.176
38.0,12.0,2.177
36.0,10.0,2.178
31.0,5.0,2.179
24.0,2.0,2.18
15.0,1.0,2.181
1.0,1.0,2.182
-3.0,-3.0,2.183
-2.0,-8.0,2.184
-2.0,-7.0,2.185
-9.0,-1.0,2.186
-11.0,0.0,2.187
-2.0,-3.0,2.188
7.0,-3.0,2.189
5.0,1.0,2.19
-2.0,5.0,2.191
0.0,4.0,2.192
7.0,2.0,2.193
11.0,1.0,2.194
9.0,-1.0,2.195
9.0,-5.0,2.196
7.0,-6.0,2.197
-4.0,-5.0,2.198
-14.0,-1.0,2.199
-16.0,0.0,2.2
-12.0,-4.0,2.201
-9.0,-1.0,2.202
-3.0,5.0,2.203
10.0,6.0,2.204
20.0,2.0,2.205
16.0,0.0,2.206
-2.0,3.0,2.207
-10.0,4.0,2.208
-4.0,-2.0,2.209
4.0,-8.0,2.21
-1.0,-9.0,2.211
-13.0,-6.0,2.212
-9.0,-2.0,2.213
15.0,-2.0,2.214
41.0,-3.0,2.215
47.0,-3.0,2.216
38.0,-1.0,2.217
29.0,-5.0,2.218
29.0,-7.0,2.219
27.0,-5.0,2.22
17.0,-1.0,2.221
8.0,2.0,2.222
9.0,-2.0,2.223
18.0,-6.0,2.224
20.0,-6.0,2.225
14.0,-7.0,2.226
3.0,-10.0,2.227
-1.0,-13.0,2.228
-4.0,-10.0,2.229
-16.0,-8.0,2.23
-30.0,-7.0,2.231
-37.0,-5.0,2.232
-25.0,3.0,2.233
-8.0,11.0,2.234
0.0,8.0,2.235
0.0,1.0,2.236
1.0,-1.0,2.237
2.0,2.0,2.238
-2.0,4.0,2.239
-13.0,6.0,2.24
-23.0,6.0,2.241
-26.0,4.0,2.242
-25.0,-2.0,2.243
-18.0,-5.0,2.244
-8.0,0.0,2.245
-1.0,5.0,2.246
4.0,2.0,2.247
5.0,-3.0,2.248
5.0,-3.0,2.249
4.0,5.0,2.25
1.0,13.0,2.251
-4.0,18.0,2.252
-6.0,19.0,2.253
-2.0,14.0,2.254
3.0,9.0,2.255
4.0,7.0,2.256
2.0,9.0,2.257
3.0,6.0,2.258
6.0,-2.0,2.259
5.0,-7.0,2.26
2.0,-5.0,2.261
4.0,-2.0,2.262
18.0,-2.0,2.263
31.0,-4.0,2.264
28.0,1.0,2.265
10.0,5.0,2.266
-9.0,1.0,2.267
-17.0,-5.0,2.268
-20.0,-7.0,2.269
-20.0,-4.0,2.27
-12.0,1.0,2.271
4.0,3.0,2.272
18.0,2.0,2.273
22.0,2.0,2.274
18.0,6.0,2.275
14.0,7.0,2.276
14.0,6.0,2.277
9.0,-4.0,2.278
3.0,-8.0,2.279
-2.0,-8.0,2.28
-4.0,-8.0,2.281
-1.0,-9.0,2.282
7.0,-10.0,2.283
14.0,-5.0,2.284
13.0,1.0,2.285
6.0,2.0,2.286
3.0,-1.0,2.287
6.0,-5.0,2.288
9.0,-4.0,2.289
7.0,0.0,2.29
4.0,1.0,2.291
4.0,-1.0,2.292
7.0,-5.0,2.293
5.0,-5.0,2.294
0.0,-3.0,2.295
-2.0,-2.0,2.296
0.0,1.0,2.297
2.0,8.0,2.298
1.0,13.0,2.299
-6.0,7.0,2.3
-16.0,-7.0,2.301
-24.0,-14.0,2.302
-25.0,-13.0,2.303
-19.0,-9.0,2.304
-10.0,-6.0,2.305
-3.0,0.0,2.306
0.0,8.0,2.307
5.0,10.0,2.308
12.0,6.0,2.309
11.0,2.0,2.31
1.0,0.0,2.311
-4.0,-1.0,2.312
1.0,-3.0,2.313
19.0,-2.0,2.314
40.0,2.0,2.315
54.0,3.0,2.316
58.0,2.0,2.317
47.0,-3.0,2.318
27.0,-7.0,2.319
9.0,-9.0,2.32
1.0,-11.0,2.321
1.0,-8.0,2.322
0.0,-4.0,2.323
-1.0,-2.0,2.324
-7.0,2.0,2.325
-13.0,8.0,2.326
-16.0,12.0,2.327
-16.0,8.0,2.328
-16.0,-1.0,2.329
-19.0,-7.0,2.33
-22.0,-6.0,2.331
-20.0,-2.0,2.332
-17.0,3.0,2.333
-14.0,7.0,2.334
-8.0,10.0,2.335
3.0,7.0,2.336
14.0,0.0,2.337
18.0,-6.0,2.338
19.0,-7.0,2.339
21.0,-4.0,2.34
18.0,-8.0,2.341
5.0,-12.0,2.342
-11.0,-12.0,2.343
-18.0,-10.0,2.344
-13.0,-7.0,2.345
-6.0,-4.0,2.346
-2.0,-3.0,2.347
-2.0,-3.0,2.348
-5.0,0.0,2.349
-11.0,7.0,2.35
-8.0,11.0,2.351
5.0,10.0,2.352
17.0,4.0,2.353
13.0,2.0,2.354
0.0,1.0,2.355
-4.0,0.0,2.356
7.0,1.0,2.357
17.0,2.0,2.358
18.0,4.0,2.359
20.0,2.0,2.36
29.0,-2.0,2.361
41.0,-4.0,2.362
47.0,-2.0,2.363
46.0,-1.0,2.364
31.0,-1.0,2.365
6.0,-1.0,2.366
-18.0,-2.0,2.367
-26.0,-4.0,2.368
-25.0,-5.0,2.369
-31.0,-3.0,2.37
-46.0,1.0,2.371
-57.0,2.0,2.372
-47.0,-2.0,2.373
-18.0,-4.0,2.374
11.0,-1.0,2.375
23.0,1.0,2.376
23.0,3.0,2.377
22.0,1.0,2.378
28.0,0.0,2.379
32.0,0.0,2.38
23.0,-4.0,2.381
3.0,-6.0,2.382
-14.0,-5.0,2.383
-21.0,-2.0,2.384
-19.0,1.0,2.385
-9.0,0.0,2.386
6.0,-6.0,2.387
24.0,-10.0,2.388
36.0,-5.0,2.389
38.0,4.0,2.39
28.0,4.0,2.391
14.0,0.0,2.392
5.0,3.0,2.393
6.0,13.0,2.394
8.0,15.0,2.395
2.0,4.0,2.396
-5.0,-4.0,2.397
-12.0,-2.0,2.398
-18.0,0.0,2.399
-27.0,-4.0,2.4
-36.0,-9.0,2.401
-32.0,-3.0,2.402
-16.0,4.0,2.403
2.0,1.0,2.404
15.0,-5.0,2.405
21.0,-3.0,2.406
23.0,-1.0,2.407
21.0,-5.0,2.408
16.0,-9.0,2.409
8.0,-5.0,2.41
-1.0,3.0,2.411
-7.0,0.0,2.412
-8.0,-4.0,2.413
-6.0,-3.0,2.414
-5.0,2.0,2.415
-5.0,4.0,2.416
-3.0,2.0,2.417
-2.0,1.0,2.418
-3.0,1.0,2.419
-5.0,2.0,2.42
-6.0,2.0,2.421
-9.0,0.0,2.422
-7.0,-2.0,2.423
1.0,-5.0,2.424
10.0,-3.0,2.425
11.0,-2.0,2.426
8.0,-5.0,2.427
10.0,-7.0,2.428
12.0,-4.0,2.429
8.0,0.0,2.43
6.0,4.0,2.431
14.0,8.0,2.432
20.0,9.0,2.433
18.0,9.0,2.434
9.0,5.0,2.435
4.0,1.0,2.436
5.0,2.0,2.437
1.0,5.0,2.438
-3.0,6.0,2.439
-6.0,0.0,2.44
-6.0,-6.0,2.441
-6.0,-3.0,2.442
-3.0,0.0,2.443
0.0,-1.0,2.444
-2.0,-3.0,2.445
-5.0,-2.0,2.446
-4.0,-3.0,2.447
-4.0,-7.0,2.448
-9.0,-7.0,2.449
-14.0,0.0,2.45
-20.0,3.0,2.451
-22.0,0.0,2.452
-9.0,0.0,2.453
2.0,4.0,2.454
8.0,8.0,2.455
18.0,3.0,2.456
35.0,-2.0,2.457
52.0,-8.0,2.458
60.0,-11.0,2.459
47.0,-8.0,2.46
21.0,-5.0,2.461
6.0,0.0,2.462
9.0,2.0,2.463
13.0,2.0,2.464
0.0,4.0,2.465
-18.0,8.0,2.466
-25.0,8.0,2.467
-25.0,2.0,2.468
-23.0,-1.0,2.469
-19.0,0.0,2.47
-2.0,-1.0,2.471
20.0,-5.0,2.472
26.0,-9.0,2.473
23.0,-6.0,2.474
22.0,1.0,2.475
23.0,5.0,2.476
16.0,5.0,2.477
-1.0,2.0,2.478
-13.0,1.0,2.479
-22.0,0.0,2.48
-25.0,-7.0,2.481
-25.0,-10.0,2.482
-12.0,-11.0,2.483
0.0,-9.0,2.484
8.0,-5.0,2.485
14.0,0.0,2.486
10.0,3.0,2.487
5.0,4.0,2.488
0.0,1.0,2.489
-5.0,-4.0,2.49
-3.0,-6.0,2.491
-2.0,-3.0,2.492
-5.0,2.0,2.493
-6.0,6.0,2.494
2.0,5.0,2.495
10.0,2.0,2.496
19.0,0.0,2.497
26.0,-1.0,2.498
21.0,0.0,2.499
9.0,0.0,2.5
-3.0,-6.0,2.501
-4.0,-13.0,2.502
1.0,-11.0,2.503
4.0,-4.0,2.504
-3.0,4.0,2.505
-14.0,5.0,2.506
-17.0,3.0,2.507
-14.0,1.0,2.508
-8.0,1.0,2.509
-2.0,0.0,2.51
3.0,-2.0,2.511
8.0,-3.0,2.512
7.0,-1.0,2.513
4.0,0.0,2.514
3.0,0.0,2.515
3.0,2.0,2.516
2.0,5.0,2.517
2.0,5.0,2.518
0.0,3.0,2.519
-3.0,-1.0,2.52
-6.0,-4.0,2.521
-2.0,-3.0,2.522
7.0,-3.0,2.523
15.0,-2.0,2.524
13.0,0.0,2.525
7.0,5.0,2.526
8.0,6.0,2.527
15.0,0.0,2.528
20.0,-4.0,2.529
16.0,0.0,2.53
6.0,7.0,2.531
0.0,6.0,2.532
-2.0,0.0,2.533
-5.0,-1.0,2.534
-11.0,3.0,2.535
-13.0,5.0,2.536
-9.0,4.0,2.537
-5.0,0.0,2.538
-2.0,-3.0,2.539
-4.0,-6.0,2.54
-4.0,-14.0,2.541
2.0,-17.0,2.542
13.0,-13.0,2.543
20.0,-2.0,2.544
20.0,5.0,2.545
13.0,3.0,2.546
7.0,-4.0,2.547
7.0,-4.0,2.548
3.0,3.0,2.549
-4.0,9.0,2.55
-9.0,4.0,2.551
0.0,-6.0,2.552
16.0,-9.0,2.553
20.0,-3.0,2.554
12.0,-1.0,2.555
5.0,-4.0,2.556
6.0,-5.0,2.557
10.0,-4.0,2.558
12.0,-4.0,2.559
13.0,-6.0,2.56
20.0,-9.0,2.561
17.0,-5.0,2.562
-1.0,3.0,2.563
-25.0,9.0,2.564
-41.0,12.0,2.565
-41.0,11.0,2.566
-34.0,1.0,2.567
-22.0,-4.0,2.568
-5.0,-4.0,2.569
15.0,-3.0,2.57
31.0,-4.0,2.571
40.0,-6.0,2.572
36.0,-4.0,2.573
24.0,0.0,2.574
5.0,1.0,2.575
-14.0,0.0,2.576
-23.0,-2.0,2.577
-20.0,-6.0,2.578
-13.0,-8.0,2.579
-13.0,-2.0,2.58
-17.0,6.0,2.581
-8.0,8.0,2.582
14.0,2.0,2.583
33.0,-2.0,2.584
31.0,1.0,2.585
20.0,1.0,2.586
14.0,-4.0,2.587
12.0,-8.0,2.588
7.0,-5.0,2.589
2.0,1.0,2.59
4.0,3.0,2.591
9.0,1.0,2.592
6.0,-3.0,2.593
0.0,-3.0,2.594
-2.0,1.0,2.595
-2.0,10.0,2.596
-4.0,15.0,2.597
-9.0,11.0,2.598
-7.0,2.0,2.599
-5.0,-3.0,2.6
-4.0,-4.0,2.601
-1.0,-4.0,2.602
11.0,-6.0,2.603
19.0,-7.0,2.604
10.0,-4.0,2.605
-10.0,-3.0,2.606
-22.0,-5.0,2.607
-18.0,-6.0,2.608
-1.0,-3.0,2.609
13.0,0.0,2.61
16.0,0.0,2.611
13.0,-2.0,2.612
10.0,-3.0,2.613
9.0,-3.0,2.614
6.0,1.0,2.615
-3.0,7.0,2.616
-6.0,8.0,2.617
0.0,3.0,2.618
10.0,-2.0,2.619
4.0,-2.0,2.62
-8.0,-3.0,2.621
-9.0,-6.0,2.622
5.0,-8.0,2.623
11.0,-5.0,2.624
-2.0,3.0,2.625
-12.0,4.0,2.626
-4.0,-1.0,2.627
13.0,-4.0,2.628
19.0,-4.0,2.629
15.0,-3.0,2.63
17.0,-1.0,2.631
23.0,2.0,2.632
20.0,7.0,2.633
7.0,7.0,2.634
0.0,5.0,2.635
3.0,4.0,2.636
9.0,8.0,2.637
3.0,5.0,2.638
-7.0,0.0,2.639
-14.0,-5.0,2.64
-13.0,-6.0,2.641
-11.0,-7.0,2.642
-7.0,-5.0,2.643
-4.0,-3.0,2.644
-2.0,-4.0,2.645
-1.0,-6.0,2.646
3.0,-7.0,2.647
14.0,-7.0,2.648
21.0,-5.0,2.649
20.0,-3.0,2.65
12.0,0.0,2.651
4.0,2.0,2.652
1.0,3.0,2.653
4.0,5.0,2.654
7.0,3.0,2.655
8.0,2.0,2.656
7.0,3.0,2.657
2.0,4.0,2.658
0.0,0.0,2.659
-5.0,0.0,2.66
-17.0,0.0,2.661
-25.0,0.0,2.662
-19.0,-3.0,2.663
-15.0,0.0,2.664
-14.0,8.0,2.665
-14.0,9.0,2.666
-18.0,1.0,2.667
-18.0,-7.0,2.668
-7.0,-7.0,2.669
5.0,-3.0,2.67
25.0,-4.0,2.671
39.0,-7.0,2.672
37.0,-5.0,2.673
33.0,3.0,2.674
22.0,9.0,2.675
14.0,7.0,2.676
14.0,3.0,2.677
12.0,-1.0,2.678
6.0,-4.0,2.679
-1.0,-7.0,2.68
-7.0,-12.0,2.681
-12.0,-15.0,2.682
-15.0,-12.0,2.683
-11.0,-3.0,2.684
-5.0,10.0,2.685
-1.0,17.0,2.686
0.0,14.0,2.687
1.0,6.0,2.688
0.0,2.0,2.689
0.0,1.0,2.69
2.0,-1.0,2.691
7.0,-4.0,2.692
8.0,-5.0,2.693
3.0,-2.0,2.694
2.0,0.0,2.695
2.0,4.0,2.696
-4.0,8.0,2.697
-18.0,6.0,2.698
-24.0,4.0,2.699
-20.0,3.0,2.7
-9.0,2.0,2.701
0.0,1.0,2.702
9.0,0.0,2.703
14.0,-2.0,2.704
14.0,-1.0,2.705
20.0,-5.0,2.706
38.0,-9.0,2.707
56.0,-9.0,2.708
49.0,-4.0,2.709
16.0,0.0,2.71
-11.0,-2.0,2.711
-15.0,-4.0,2.712
-16.0,-2.0,2.713
-28.0,0.0,2.714
-39.0,-2.0,2.715
-31.0,-3.0,2.716
-13.0,-3.0,2.717
-1.0,-5.0,2.718
4.0,-10.0,2.719
11.0,-12.0,2.72
18.0,-11.0,2.721
17.0,-6.0,2.722
13.0,2.0,2.723
14.0,8.0,2.724
15.0,10.0,2.725
8.0,8.0,2.726
-1.0,6.0,2.727
1.0,3.0,2.728
7.0,0.0,2.729
5.0,-2.0,2.73
3.0,-3.0,2.731
7.0,-1.0,2.732
11.0,0.0,2.733
8.0,-1.0,2.734
1.0,-3.0,2.735
0.0,-4.0,2.736
0.0,-6.0,2.737
1.0,-8.0,2.738
-1.0,-5.0,2.739
-4.0,4.0,2.74
-3.0,9.0,2.741
-2.0,8.0,2.742
-2.0,6.0,2.743
-3.0,7.0,2.744
-5.0,8.0,2.745
-7.0,4.0,2.746
-4.0,-3.0,2.747
-2.0,-7.0,2.748
-2.0,-5.0,2.749
-3.0,-4.0,2.75
-4.0,-5.0,2.751
-3.0,-7.0,2.752
2.0,-9.0,2.753
10.0,-3.0,2.754
15.0,4.0,2.755
19.0,5.0,2.756
24.0,1.0,2.757
1.0,-6.0,2.758
-1.0,-6.0,2.759
-4.0,-1.0,2.76
-3.0,-4.0,2.761
-2.0,-9.0,2.762
-2.0,-10.0,2.763
-3.0,-4.0,2.764
-5.0,1.0,2.765
-6.0,1.0,2.766
-4.0,1.0,2.767
-2.0,8.0,2.768
-2.0,14.0,2.769
-3.0,9.0,2.77
-4.0,-3.0,2.771
-3.0,-8.0,2.772
2.0,0.0,2.773
9.0,10.0,2.774
13.0,10.0,2.775
17.0,2.0,2.776
21.0,-2.0,2.777
25.0,-8.0,2.778
26.0,-12.0,2.779
24.0,-13.0,2.78
20.0,-10.0,2.781
10.0,-5.0,2.782
0.0,-3.0,2.783
-9.0,-5.0,2.784
-21.0,-5.0,2.785
-34.0,-4.0,2.786
-31.0,-5.0,2.787
-13.0,0.0,2.788
-1.0,15.0,2.789
-9.0,30.0,2.79
-28.0,29.0,2.791
-33.0,13.0,2.792
-18.0,5.0,2.793
10.0,6.0,2.794
40.0,7.0,2.795
61.0,4.0,2.796
68.0,1.0,2.797
54.0,-1.0,2.798
30.0,-7.0,2.799
13.0,-15.0,2.8
12.0,-15.0,2.801
19.0,-7.0,2.802
18.0,-2.0,2.803
0.0,-6.0,2.804
-26.0,-7.0,2.805
-42.0,-1.0,2.806
-40.0,-1.0,2.807
-32.0,-9.0,2.808
-34.0,-12.0,2.809
-36.0,-5.0,2.81
-22.0,1.0,2.811
3.0,-5.0,2.812
13.0,-14.0,2.813
3.0,-10.0,2.814
2.0,0.0,2.815
18.0,7.0,2.816
30.0,11.0,2.817
-2.0,15.0,2.818
-3.0,15.0,2.819
-8.0,5.0,2.82
-17.0,-11.0,2.821
-24.0,-14.0,2.822
-15.0,-5.0,2.823
-9.0,0.0,2.824
-9.0,-1.0,2.825
-9.0,-3.0,2.826
-8.0,0.0,2.827
-6.0,0.0,2.828
-5.0,-3.0,2.829
-3.0,-6.0,2.83
-3.0,-5.0,2.831
-1.0,-7.0,2.832
8.0,-11.0,2.833
17.0,-6.0,2.834
19.0,6.0,2.835
20.0,17.0,2.836
17.0,18.0,2.837
-2.0,10.0,2.838
-3.0,6.0,2.839
-6.0,1.0,2.84
-12.0,-6.0,2.841
-17.0,-6.0,2.842
-11.0,-2.0,2.843
-7.0,1.0,2.844
-7.0,0.0,2.845
-7.0,-4.0,2.846
-6.0,-3.0,2.847
-5.0,-3.0,2.848
-4.0,-4.0,2.849
-3.0,-1.0,2.85
-3.0,2.0,2.851
-1.0,2.0,2.852
5.0,2.0,2.853
11.0,2.0,2.854
12.0,4.0,2.855
13.0,3.0,2.856
11.0,4.0,2.857
7.0,5.0,2.858
3.0,5.0,2.859
-2.0,1.0,2.86
-6.0,-8.0,2.861
-13.0,-11.0,2.862
-16.0,-7.0,2.863
-7.0,-2.0,2.864
3.0,-1.0,2.865
8.0,-2.0,2.866
7.0,-4.0,2.867
11.0,-2.0,2.868
19.0,1.0,2.869
21.0,5.0,2.87
17.0,5.0,2.871
12.0,1.0,2.872
12.0,-2.0,2.873
14.0,-1.0,2.874
10.0,5.0,2.875
7.0,10.0,2.876
2.0,8.0,2.877
0.0,3.0,2.878
-3.0,3.0,2.879
-5.0,2.0,2.88
-8.0,-9.0,2.881
-11.0,-24.0,2.882
-8.0,-29.0,2.883
-2.0,-16.0,2.884
1.0,2.0,2.885
-1.0,11.0,2.886
-6.0,8.0,2.887
-5.0,2.0,2.888
0.0,3.0,2.889
4.0,4.0,2.89
7.0,1.0,2.891
10.0,-4.0,2.892
11.0,-5.0,2.893
14.0,-2.0,2.894
18.0,0.0,2.895
20.0,3.0,2.896
16.0,6.0,2.897
3.0,2.0,2.898
-4.0,-1.0,2.899
-11.0,-3.0,2.9
-17.0,0.0,2.901
-19.0,4.0,2.902
-9.0,8.0,2.903
0.0,9.0,2.904
15.0,0.0,2.905
23.0,-10.0,2.906
12.0,-18.0,2.907
0.0,-24.0,2.908
-7.0,-20.0,2.909
-13.0,-13.0,2.91
-9.0,2.0,2.911
-7.0,17.0,2.912
-7.0,31.0,2.913
-4.0,39.0,2.914
6.0,22.0,2.915
12.0,7.0,2.916
4.0,-2.0,2.917
4.0,-10.0,2.918
-5.0,-10.0,2.919
-13.0,-6.0,2.92
-19.0,-3.0,2.921
-22.0,-2.0,2.922
-11.0,-7.0,2.923
1.0,-10.0,2.924
17.0,-7.0,2.925
27.0,-5.0,2.926
14.0,-7.0,2.927
1.0,-5.0,2.928
-8.0,0.0,2.929
-15.0,0.0,2.93
-11.0,-8.0,2.931
-8.0,-12.0,2.932
-8.0,-5.0,2.933
-5.0,3.0,2.934
7.0,3.0,2.935
14.0,-5.0,2.936
5.0,-11.0,2.937
0.0,-18.0,2.938
3.0,-17.0,2.939
1.0,-8.0,2.94
-6.0,0.0,2.941
-8.0,3.0,2.942
0.0,5.0,2.943
12.0,4.0,2.944
12.0,1.0,2.945
2.0,-3.0,2.946
-3.0,-2.0,2.947
0.0,1.0,2.948
7.0,-3.0,2.949
9.0,-8.0,2.95
4.0,-4.0,2.951
2.0,7.0,2.952
5.0,7.0,2.953
11.0,-6.0,2.954
9.0,-12.0,2.955
5.0,-5.0,2.956
3.0,4.0,2.957
0.0,5.0,2.958
-4.0,4.0,2.959
-11.0,9.0,2.96
-17.0,9.0,2.961
-18.0,7.0,2.962
-11.0,5.0,2.963
0.0,9.0,2.964
12.0,11.0,2.965
14.0,6.0,2.966
4.0,1.0,2.967
-2.0,5.0,2.968
0.0,9.0,2.969
8.0,6.0,2.97
13.0,-3.0,2.971
15.0,-9.0,2.972
14.0,-5.0,2.973
11.0,5.0,2.974
6.0,12.0,2.975
5.0,8.0,2.976
8.0,-4.0,2.977
2.0,-2.0,2.978
0.0,-3.0,2.979
-1.0,-4.0,2.98
-2.0,-7.0,2.981
-1.0,-10.0,2.982
1.0,-12.0,2.983
3.0,-13.0,2.984
1.0,-9.0,2.985
0.0,-5.0,2.986
-2.0,-4.0,2.987
-4.0,-4.0,2.988
-4.0,-4.0,2.989
-4.0,-4.0,2.99
-3.0,-1.0,2.991
0.0,3.0,2.992
4.0,8.0,2.993
8.0,10.0,2.994
11.0,2.0,2.995
12.0,-3.0,2.996
10.0,-2.0,2.997
3.0,0.0,2.998
-1.0,-2.0,2.999
-4.0,-6.0,3.0
-5.0,-12.0,3.001
-4.0,-18.0,3.002
1.0,-22.0,3.003
6.0,-24.0,3.004
2.0,-16.0,3.005
-2.0,-9.0,3.006
-6.0,-7.0,3.007
-9.0,-6.0,3.008
-10.0,-7.0,3.009
-10.0,-7.0,3.01
-7.0,2.0,3.011
-2.0,11.0,3.012
7.0,21.0,3.013
16.0,25.0,3.014
20.0,8.0,3.015
22.0,-4.0,3.016
19.0,1.0,3.017
14.0,8.0,3.018
3.0,12.0,3.019
-10.0,9.0,3.02
-19.0,-3.0,3.021
-22.0,-13.0,3.022
-22.0,-14.0,3.023
-20.0,0.0,3.024
-14.0,17.0,3.025
-6.0,21.0,3.026
5.0,8.0,3.027
16.0,-7.0,3.028
22.0,-13.0,3.029
25.0,-11.0,3.03
23.0,-10.0,3.031
20.0,-10.0,3.032
19.0,-8.0,3.033
14.0,-7.0,3.034
10.0,-7.0,3.035
11.0,-6.0,3.036
18.0,-4.0,3.037
18.0,-4.0,3.038
7.0,-1.0,3.039
-9.0,6.0,3.04
-16.0,12.0,3.041
-19.0,19.0,3.042
-19.0,21.0,3.043
-19.0,14.0,3.044
-15.0,0.0,3.045
-11.0,-10.0,3.046
-12.0,-9.0,3.047
-11.0,0.0,3.048
-5.0,6.0,3.049
-1.0,2.0,3.05
-3.0,-4.0,3.051
-2.0,-4.0,3.052
3.0,1.0,3.053
2.0,4.0,3.054
-8.0,0.0,3.055
-18.0,-7.0,3.056
-15.0,-9.0,3.057
-4.0,-9.0,3.058
5.0,-7.0,3.059
15.0,-10.0,3.06
19.0,-15.0,3.061
25.0,-10.0,3.062
33.0,-2.0,3.063
39.0,3.0,3.064
37.0,0.0,3.065
31.0,-4.0,3.066
12.0,0.0,3.067
-2.0,13.0,3.068
-4.0,27.0,3.069
-7.0,30.0,3.07
-10.0,18.0,3.071
-12.0,3.0,3.072
-8.0,-3.0,3.073
-5.0,-3.0,3.074
-5.0,-1.0,3.075
-4.0,0.0,3.076
-4.0,3.0,3.077
-5.0,3.0,3.078
-13.0,0.0,3.079
-17.0,-2.0,3.08
-7.0,-4.0,3.081
10.0,-7.0,3.082
25.0,-7.0,3.083
35.0,-7.0,3.084
36.0,-4.0,3.085
25.0,-1.0,3.086
8.0,-4.0,3.087
-7.0,-5.0,3.088
-12.0,2.0,3.089
-7.0,7.0,3.09
-3.0,5.0,3.091
-5.0,3.0,3.092
-12.0,-2.0,3.093
-13.0,-5.0,3.094
-5.0,-1.0,3.095
2.0,4.0,3.096
4.0,8.0,3.097
1.0,7.0,3.098
2.0,-14.0,3.099
1.0,-27.0,3.1
-2.0,-16.0,3.101
-2.0,3.0,3.102
3.0,10.0,3.103
7.0,6.0,3.104
2.0,2.0,3.105
-2.0,-3.0,3.106
-1.0,-9.0,3.107
3.0,-10.0,3.108
7.0,-5.0,3.109
7.0,-5.0,3.11
11.0,-13.0,3.111
15.0,-13.0,3.112
17.0,1.0,3.113
17.0,11.0,3.114
17.0,5.0,3.115
16.0,-1.0,3.116
17.0,6.0,3.117
13.0,15.0,3.118
8.0,12.0,3.119
0.0,7.0,3.12
-5.0,0.0,3.121
-8.0,-10.0,3.122
-8.0,-23.0,3.123
-11.0,-25.0,3.124
-16.0,-10.0,3.125
-15.0,4.0,3.126
-7.0,11.0,3.127
3.0,16.0,3.128
7.0,18.0,3.129
0.0,7.0,3.13
-10.0,-9.0,3.131
-11.0,-10.0,3.132
-3.0,3.0,3.133
5.0,9.0,3.134
8.0,1.0,3.135
9.0,0.0,3.136
13.0,15.0,3.137
9.0,23.0,3.138
0.0,11.0,3.139
-9.0,-6.0,3.14
-9.0,-15.0,3.141
-5.0,-16.0,3.142
6.0,-13.0,3.143
15.0,-4.0,3.144
17.0,8.0,3.145
17.0,6.0,3.146
5.0,-8.0,3.147
-1.0,-12.0,3.148
8.0,0.0,3.149
17.0,11.0,3.15
17.0,5.0,3.151
16.0,-5.0,3.152
17.0,-3.0,3.153
18.0,4.0,3.154
13.0,5.0,3.155
7.0,1.0,3.156
0.0,5.0,3.157
-5.0,7.0,3.158
-4.0,5.0,3.159
-13.0,1.0,3.16
-29.0,-8.0,3.161
-39.0,-16.0,3.162
-32.0,-20.0,3.163
-19.0,-19.0,3.164
-11.0,-1.0,3.165
-10.0,11.0,3.166
-3.0,7.0,3.167
11.0,3.0,3.168
23.0,-1.0,3.169
24.0,-3.0,3.17
21.0,-1.0,3.171
26.0,-1.0,3.172
31.0,-9.0,3.173
28.0,-13.0,3.174
20.0,-7.0,3.175
17.0,-2.0,3.176
19.0,0.0,3.177
16.0,0.0,3.178
8.0,-2.0,3.179
-3.0,0.0,3.18
-10.0,-5.0,3.181
-10.0,-9.0,3.182
-4.0,-7.0,3.183
-2.0,-1.0,3.184
-9.0,6.0,3.185
-21.0,7.0,3.186
-26.0,1.0,3.187
-23.0,-6.0,3.188
-23.0,-5.0,3.189
-22.0,3.0,3.19
-19.0,13.0,3.191
-14.0,13.0,3.192
-13.0,8.0,3.193
-15.0,8.0,3.194
-9.0,13.0,3.195
6.0,12.0,3.196
15.0,6.0,3.197
16.0,0.0,3.198
22.0,7.0,3.199
38.0,13.0,3.2
57.0,3.0,3.201
65.0,-13.0,3.202
58.0,-21.0,3.203
38.0,-17.0,3.204
15.0,-13.0,3.205
0.0,-8.0,3.206
-5.0,0.0,3.207
-10.0,9.0,3.208
-24.0,8.0,3.209
-31.0,-2.0,3.21
-24.0,-12.0,3.211
-10.0,-12.0,3.212
1.0,-3.0,3.213
3.0,7.0,3.214
3.0,10.0,3.215
1.0,5.0,3.216
-3.0,2.0,3.217
-13.0,-3.0,3.218
-23.0,-8.0,3.219
-31.0,-14.0,3.22
-28.0,-16.0,3.221
-21.0,-7.0,3.222
-3.0,0.0,3.223
11.0,1.0,3.224
18.0,0.0,3.225
21.0,7.0,3.226
11.0,11.0,3.227
5.0,6.0,3.228
14.0,-7.0,3.229
22.0,-12.0,3.23
25.0,-9.0,3.231
25.0,-4.0,3.232
12.0,1.0,3.233
2.0,8.0,3.234
2.0,9.0,3.235
3.0,3.0,3.236
1.0,-3.0,3.237
2.0,-3.0,3.238
11.0,2.0,3.239
12.0,6.0,3.24
1.0,4.0,3.241
-4.0,1.0,3.242
4.0,0.0,3.243
9.0,-4.0,3.244
-5.0,-8.0,3.245
-25.0,-10.0,3.246
-31.0,-3.0,3.247
-21.0,0.0,3.248
-10.0,-12.0,3.249
-4.0,-16.0,3.25
6.0,1.0,3.251
19.0,13.0,3.252
22.0,3.0,3.253
14.0,-2.0,3.254
7.0,6.0,3.255
13.0,12.0,3.256
21.0,13.0,3.257
18.0,12.0,3.258
4.0,1.0,3.259
-8.0,-6.0,3.26
-13.0,-17.0,3.261
-15.0,-25.0,3.262
-17.0,-21.0,3.263
-18.0,-2.0,3.264
-17.0,16.0,3.265
-13.0,21.0,3.266
-2.0,12.0,3.267
11.0,3.0,3.268
17.0,0.0,3.269
17.0,-2.0,3.27
15.0,-5.0,3.271
15.0,-7.0,3.272
11.0,-6.0,3.273
10.0,0.0,3.274
14.0,12.0,3.275
18.0,22.0,3.276
15.0,20.0,3.277
6.0,0.0,3.278
3.0,-17.0,3.279
-1.0,-15.0,3.28
-10.0,-9.0,3.281
-19.0,-11.0,3.282
-16.0,-16.0,3.283
-7.0,-10.0,3.284
-4.0,0.0,3.285
-12.0,2.0,3.286
-12.0,-1.0,3.287
2.0,-2.0,3.288
22.0,4.0,3.289
28.0,5.0,3.29
19.0,-1.0,3.291
4.0,-3.0,3.292
-4.0,-2.0,3.293
-6.0,3.0,3.294
-3.0,8.0,3.295
5.0,9.0,3.296
16.0,10.0,3.297
17.0,4.0,3.298
10.0,0.0,3.299
2.0,2.0,3.3
-4.0,10.0,3.301
-13.0,16.0,3.302
-25.0,12.0,3.303
-33.0,4.0,3.304
-31.0,4.0,3.305
-26.0,8.0,3.306
-10.0,-3.0,3.307
5.0,-22.0,3.308
13.0,-25.0,3.309
20.0,-7.0,3.31
22.0,3.0,3.311
23.0,-9.0,3.312
20.0,-24.0,3.313
21.0,-16.0,3.314
33.0,3.0,3.315
41.0,7.0,3.316
37.0,-2.0,3.317
29.0,-7.0,3.318
17.0,2.0,3.319
10.0,8.0,3.32
4.0,1.0,3.321
-4.0,-4.0,3.322
-14.0,-7.0,3.323
-20.0,-9.0,3.324
-21.0,-6.0,3.325
-17.0,-3.0,3.326
-9.0,1.0,3.327
0.0,4.0,3.328
7.0,4.0,3.329
8.0,4.0,3.33
4.0,6.0,3.331
-4.0,10.0,3.332
-14.0,16.0,3.333
-23.0,20.0,3.334
-28.0,16.0,3.335
-27.0,11.0,3.336
-20.0,5.0,3.337
-7.0,0.0,3.338
4.0,-8.0,3.339
0.0,-21.0,3.34
-15.0,-23.0,3.341
-21.0,-8.0,3.342
-1.0,5.0,3.343
22.0,5.0,3.344
26.0,0.0,3.345
15.0,-2.0,3.346
10.0,-4.0,3.347
16.0,-8.0,3.348
20.0,-9.0,3.349
20.0,-7.0,3.35
18.0,-4.0,3.351
15.0,-4.0,3.352
6.0,-2.0,3.353
-4.0,1.0,3.354
-5.0,2.0,3.355
-3.0,-1.0,3.356
-5.0,-2.0,3.357
-16.0,0.0,3.358
-25.0,7.0,3.359
-26.0,12.0,3.36
-18.0,6.0,3.361
-4.0,1.0,3.362
11.0,-4.0,3.363
24.0,-8.0,3.364
26.0,-6.0,3.365
28.0,-6.0,3.366
33.0,-11.0,3.367
38.0,-13.0,3.368
35.0,-5.0,3.369
25.0,2.0,3.37
22.0,3.0,3.371
20.0,4.0,3.372
13.0,-1.0,3.373
4.0,-4.0,3.374
2.0,-1.0,3.375
1.0,2.0,3.376
-5.0,5.0,3.377
-18.0,6.0,3.378
-19.0,2.0,3.379
-19.0,4.0,3.38
-13.0,6.0,3.381
-9.0,5.0,3.382
-8.0,2.0,3.383
-7.0,4.0,3.384
-7.0,6.0,3.385
-6.0,3.0,3.386
-6.0,-2.0,3.387
-9.0,0.0,3.388
-17.0,11.0,3.389
-20.0,18.0,3.39
-10.0,7.0,3.391
1.0,-17.0,3.392
18.0,-31.0,3.393
32.0,-20.0,3.394
32.0,2.0,3.395
28.0,8.0,3.396
6.0,-1.0,3.397
-13.0,-8.0,3.398
-17.0,0.0,3.399
-12.0,6.0,3.4
-12.0,3.0,3.401
-17.0,0.0,3.402
-11.0,-2.0,3.403
5.0,-4.0,3.404
19.0,-2.0,3.405
23.0,-1.0,3.406
27.0,-2.0,3.407
29.0,-5.0,3.408
24.0,-13.0,3.409
13.0,-16.0,3.41
3.0,-6.0,3.411
-3.0,2.0,3.412
-13.0,4.0,3.413
-24.0,6.0,3.414
-27.0,8.0,3.415
-22.0,10.0,3.416
-18.0,7.0,3.417
-19.0,2.0,3.418
-19.0,-7.0,3.419
-11.0,-8.0,3.42
-2.0,-6.0,3.421
2.0,-3.0,3.422
8.0,-7.0,3.423
16.0,-12.0,3.424
20.0,-9.0,3.425
16.0,0.0,3.426
10.0,7.0,3.427
8.0,7.0,3.428
9.0,8.0,3.429
6.0,8.0,3.43
6.0,5.0,3.431
15.0,-1.0,3.432
24.0,-1.0,3.433
25.0,6.0,3.434
16.0,10.0,3.435
5.0,4.0,3.436
0.0,-7.0,3.437
-2.0,-17.0,3.438
4.0,-15.0,3.439
8.0,-9.0,3.44
3.0,8.0,3.441
-3.0,21.0,3.442
3.0,15.0,3.443
18.0,9.0,3.444
26.0,6.0,3.445
23.0,3.0,3.446
19.0,1.0,3.447
14.0,-2.0,3.448
0.0,-10.0,3.449
-18.0,-17.0,3.45
-28.0,-18.0,3.451
-30.0,-16.0,3.452
-30.0,-6.0,3.453
-25.0,1.0,3.454
-13.0,1.0,3.455
-3.0,1.0,3.456
-1.0,1.0,3.457
-4.0,1.0,3.458
0.0,3.0,3.459
3.0,7.0,3.46
4.0,5.0,3.461
7.0,6.0,3.462
18.0,11.0,3.463
25.0,13.0,3.464
18.0,11.0,3.465
10.0,4.0,3.466
2.0,-4.0,3.467
-4.0,-14.0,3.468
1.0,-21.0,3.469
7.0,-19.0,3.47
17.0,-10.0,3.471
23.0,-7.0,3.472
15.0,-11.0,3.473
6.0,-13.0,3.474
-5.0,-6.0,3.475
-12.0,4.0,3.476
-2.0,10.0,3.477
9.0,12.0,3.478
14.0,17.0,3.479
0.0,19.0,3.48
-14.0,5.0,3.481
-12.0,-3.0,3.482
7.0,5.0,3.483
23.0,10.0,3.484
18.0,6.0,3.485
1.0,1.0,3.486
-12.0,-1.0,3.487
-16.0,-4.0,3.488
-20.0,-7.0,3.489
-19.0,-8.0,3.49
-9.0,-2.0,3.491
8.0,3.0,3.492
14.0,3.0,3.493
8.0,4.0,3.494
2.0,4.0,3.495
5.0,2.0,3.496
7.0,0.0,3.497
4.0,-4.0,3.498
2.0,-7.0,3.499
5.0,-5.0,3.5
9.0,-8.0,3.501
5.0,-13.0,3.502
2.0,-11.0,3.503
4.0,4.0,3.504
3.0,16.0,3.505
-4.0,11.0,3.506
-9.0,-4.0,3.507
-4.0,-11.0,3.508
0.0,-5.0,3.509
-1.0,5.0,3.51
-1.0,9.0,3.511
7.0,8.0,3.512
17.0,4.0,3.513
19.0,-2.0,3.514
15.0,-7.0,3.515
11.0,-6.0,3.516
11.0,-3.0,3.517
5.0,-6.0,3.518
-8.0,-6.0,3.519
-20.0,-7.0,3.52
-20.0,-7.0,3.521
-11.0,-6.0,3.522
0.0,0.0,3.523
5.0,5.0,3.524
7.0,9.0,3.525
9.0,12.0,3.526
12.0,9.0,3.527
14.0,5.0,3.528
11.0,3.0,3.529
10.0,3.0,3.53
12.0,7.0,3.531
17.0,8.0,3.532
27.0,-1.0,3.533
37.0,-9.0,3.534
38.0,-9.0,3.535
21.0,-10.0,3.536
0.0,-10.0,3.537
-14.0,-8.0,3.538
-12.0,1.0,3.539
-12.0,11.0,3.54
-16.0,8.0,3.541
-16.0,-7.0,3.542
-1.0,-19.0,3.543
8.0,-17.0,3.544
-2.0,-3.0,3.545
-11.0,11.0,3.546
-13.0,10.0,3.547
-15.0,-1.0,3.548
-16.0,-8.0,3.549
-13.0,-4.0,3.55
5.0,2.0,3.551
22.0,4.0,3.552
30.0,9.0,3.553
32.0,15.0,3.554
11.0,17.0,3.555
-7.0,9.0,3.556
-15.0,0.0,3.557
-21.0,-7.0,3.558
-23.0,-10.0,3.559
-20.0,-12.0,3.56
-15.0,-6.0,3.561
-9.0,-2.0,3.562
-1.0,-4.0,3.563
9.0,-6.0,3.564
18.0,-3.0,3.565
21.0,-1.0,3.566
19.0,-2.0,3.567
12.0,-2.0,3.568
10.0,2.0,3.569
13.0,5.0,3.57
16.0,3.0,3.571
10.0,0.0,3.572
1.0,-8.0,3.573
0.0,-12.0,3.574
0.0,-6.0,3.575
-6.0,0.0,3.576
-15.0,1.0,3.577
-14.0,1.0,3.578
-4.0,-9.0,3.579
0.0,-15.0,3.58
-4.0,-13.0,3.581
-5.0,-6.0,3.582
4.0,-4.0,3.583
12.0,-5.0,3.584
3.0,4.0,3.585
-7.0,22.0,3.586
-7.0,34.0,3.587
-1.0,28.0,3.588
2.0,9.0,3.589
2.0,-6.0,3.59
7.0,-16.0,3.591
14.0,-14.0,3.592
18.0,-1.0,3.593
20.0,16.0,3.594
20.0,22.0,3.595
16.0,13.0,3.596
6.0,-1.0,3.597
14.0,-9.0,3.598
21.0,-7.0,3.599
21.0,-3.0,3.6
0.0,6.0,3.601
-14.0,13.0,3.602
-7.0,7.0,3.603
-3.0,3.0,3.604
-7.0,4.0,3.605
-7.0,6.0,3.606
0.0,6.0,3.607
3.0,4.0,3.608
-14.0,-2.0,3.609
-17.0,-8.0,3.61
14.0,-6.0,3.611
31.0,-4.0,3.612
0.0,-2.0,3.613
-31.0,-1.0,3.614
-35.0,-5.0,3.615
-24.0,-9.0,3.616
21.0,-15.0,3.617
4.0,-20.0,3.618
6.0,-20.0,3.619
6.0,-20.0,3.62
0.0,-16.0,3.621
-4.0,-8.0,3.622
-2.0,-6.0,3.623
-1.0,-11.0,3.624
-2.0,-10.0,3.625
-2.0,1.0,3.626
0.0,9.0,3.627
1.0,3.0,3.628
-4.0,-5.0,3.629
-5.0,-1.0,3.63
4.0,10.0,3.631
9.0,14.0,3.632
0.0,7.0,3.633
-9.0,7.0,3.634
-10.0,14.0,3.635
-7.0,14.0,3.636
6.0,6.0,3.637
19.0,-4.0,3.638
16.0,-2.0,3.639
5.0,5.0,3.64
-6.0,5.0,3.641
-13.0,0.0,3.642
-9.0,-5.0,3.643
6.0,-5.0,3.644
19.0,0.0,3.645
16.0,7.0,3.646
-1.0,1.0,3.647
-22.0,-13.0,3.648
-35.0,-16.0,3.649
-35.0,-1.0,3.65
-26.0,10.0,3.651
-18.0,3.0,3.652
-11.0,-6.0,3.653
7.0,-1.0,3.654
34.0,4.0,3.655
50.0,-1.0,3.656
48.0,-6.0,3.657
35.0,-4.0,3.658
28.0,4.0,3.659
21.0,0.0,3.66
7.0,-14.0,3.661
-6.0,-16.0,3.662
-7.0,-7.0,3.663
-1.0,4.0,3.664
-3.0,10.0,3.665
-16.0,10.0,3.666
-18.0,9.0,3.667
-4.0,8.0,3.668
14.0,12.0,3.669
17.0,14.0,3.67
10.0,6.0,3.671
4.0,-6.0,3.672
3.0,-12.0,3.673
-1.0,-11.0,3.674
-9.0,-8.0,3.675
-11.0,-7.0,3.676
-4.0,-2.0,3.677
7.0,0.0,3.678
15.0,2.0,3.679
13.0,8.0,3.68
3.0,15.0,3.681
-5.0,10.0,3.682
-6.0,-6.0,3.683
-1.0,-17.0,3.684
4.0,-11.0,3.685
1.0,1.0,3.686
-6.0,10.0,3.687
-11.0,18.0,3.688
-12.0,25.0,3.689
-16.0,17.0,3.69
-12.0,-5.0,3.691
7.0,-16.0,3.692
29.0,-8.0,3.693
35.0,5.0,3.694
27.0,3.0,3.695
21.0,-4.0,3.696
26.0,1.0,3.697
30.0,16.0,3.698
23.0,17.0,3.699
13.0,2.0,3.7
-7.0,-14.0,3.701
-22.0,-19.0,3.702
-18.0,-21.0,3.703
-13.0,-25.0,3.704
-6.0,-28.0,3.705
-1.0,-21.0,3.706
-1.0,-9.0,3.707
-3.0,0.0,3.708
-9.0,3.0,3.709
-11.0,1.0,3.71
2.0,-2.0,3.711
11.0,-5.0,3.712
9.0,-7.0,3.713
7.0,-5.0,3.714
4.0,1.0,3.715
2.0,12.0,3.716
6.0,18.0,3.717
9.0,13.0,3.718
7.0,0.0,3.719
5.0,-8.0,3.72
-3.0,-8.0,3.721
-17.0,2.0,3.722
-21.0,13.0,3.723
-13.0,17.0,3.724
-11.0,8.0,3.725
-23.0,-6.0,3.726
-37.0,-16.0,3.727
-33.0,-13.0,3.728
-12.0,-1.0,3.729
16.0,9.0,3.73
40.0,8.0,3.731
56.0,0.0,3.732
61.0,-4.0,3.733
48.0,-3.0,3.734
32.0,-4.0,3.735
19.0,-7.0,3.736
14.0,-6.0,3.737
1.0,0.0,3.738
-18.0,8.0,3.739
-32.0,9.0,3.74
-34.0,3.0,3.741
-25.0,1.0,3.742
-13.0,7.0,3.743
-9.0,5.0,3.744
-16.0,-5.0,3.745
-24.0,-14.0,3.746
-23.0,-9.0,3.747
-8.0,7.0,3.748
1.0,20.0,3.749
-5.0,16.0,3.75
-16.0,5.0,3.751
-10.0,-2.0,3.752
5.0,-2.0,3.753
14.0,0.0,3.754
13.0,0.0,3.755
18.0,-2.0,3.756
29.0,-3.0,3.757
27.0,-6.0,3.758
6.0,-9.0,3.759
-20.0,-9.0,3.76
-25.0,-7.0,3.761
-13.0,-5.0,3.762
10.0,-7.0,3.763
26.0,-7.0,3.764
30.0,0.0,3.765
26.0,9.0,3.766
30.0,10.0,3.767
47.0,-1.0,3.768
58.0,-8.0,3.769
50.0,-5.0,3.77
35.0,-1.0,3.771
29.0,-5.0,3.772
19.0,-4.0,3.773
-7.0,2.0,3.774
-31.0,6.0,3.775
-23.0,-1.0,3.776
6.0,-10.0,3.777
29.0,-9.0,3.778
37.0,-4.0,3.779
40.0,-1.0,3.78
33.0,-3.0,3.781
3.0,0.0,3.782
-31.0,4.0,3.783
-38.0,2.0,3.784
-21.0,1.0,3.785
-11.0,2.0,3.786
-14.0,-1.0,3.787
-13.0,-8.0,3.788
-4.0,-10.0,3.789
-4.0,-4.0,3.79
-13.0,2.0,3.791
-13.0,2.0,3.792
-3.0,2.0,3.793
0.0,5.0,3.794
-6.0,4.0,3.795
-8.0,1.0,3.796
-6.0,-2.0,3.797
-13.0,-7.0,3.798
-25.0,-8.0,3.799
-30.0,-4.0,3.8
-25.0,7.0,3.801
-17.0,13.0,3.802
-11.0,5.0,3.803
-4.0,-6.0,3.804
-3.0,-6.0,3.805
-12.0,3.0,3.806
-19.0,2.0,3.807
-6.0,-7.0,3.808
16.0,-11.0,3.809
22.0,-5.0,3.81
14.0,3.0,3.811
11.0,7.0,3.812
20.0,9.0,3.813
24.0,10.0,3.814
16.0,9.0,3.815
5.0,4.0,3.816
4.0,5.0,3.817
5.0,10.0,3.818
2.0,17.0,3.819
-2.0,14.0,3.82
1.0,-4.0,3.821
9.0,-18.0,3.822
11.0,-16.0,3.823
5.0,-2.0,3.824
-3.0,1.0,3.825
-8.0,-10.0,3.826
-10.0,-18.0,3.827
-13.0,-11.0,3.828
-16.0,-2.0,3.829
-13.0,-1.0,3.83
-1.0,-3.0,3.831
9.0,-1.0,3.832
11.0,-2.0,3.833
11.0,-7.0,3.834
17.0,-5.0,3.835
27.0,3.0,3.836
29.0,8.0,3.837
23.0,0.0,3.838
17.0,-5.0,3.839
8.0,-7.0,3.84
-3.0,2.0,3.841
-10.0,9.0,3.842
-7.0,7.0,3.843
-1.0,6.0,3.844
-1.0,8.0,3.845
-3.0,10.0,3.846
0.0,5.0,3.847
9.0,1.0,3.848
11.0,0.0,3.849
6.0,-1.0,3.85
3.0,0.0,3.851
6.0,0.0,3.852
11.0,-6.0,3.853
12.0,-10.0,3.854
11.0,-8.0,3.855
10.0,-5.0,3.856
7.0,1.0,3.857
-1.0,7.0,3.858
-18.0,2.0,3.859
-34.0,1.0,3.86
-35.0,-1.0,3.861
-17.0,-3.0,3.862
11.0,-5.0,3.863
35.0,-2.0,3.864
50.0,5.0,3.865
49.0,13.0,3.866
34.0,10.0,3.867
13.0,-1.0,3.868
-1.0,-9.0,3.869
-8.0,-11.0,3.87
-12.0,-10.0,3.871
-15.0,-12.0,3.872
-13.0,-11.0,3.873
-5.0,-3.0,3.874
3.0,9.0,3.875
11.0,20.0,3.876
20.0,26.0,3.877
28.0,18.0,3.878
28.0,7.0,3.879
20.0,-1.0,3.88
5.0,-4.0,3.881
-10.0,-3.0,3.882
-18.0,-7.0,3.883
-21.0,-8.0,3.884
-21.0,-4.0,3.885
-30.0,4.0,3.886
-48.0,5.0,3.887
-64.0,-2.0,3.888
-66.0,-13.0,3.889
-47.0,-17.0,3.89
-14.0,-13.0,3.891
22.0,-5.0,3.892
53.0,-1.0,3.893
75.0,-1.0,3.894
84.0,4.0,3.895
81.0,15.0,3.896
67.0,20.0,3.897
39.0,9.0,3.898
12.0,-5.0,3.899
-5.0,-7.0,3.9
-7.0,-5.0,3.901
-3.0,-5.0,3.902
-2.0,-10.0,3.903
-4.0,-14.0,3.904
-14.0,-12.0,3.905
-27.0,-11.0,3.906
-34.0,-14.0,3.907
-29.0,-15.0,3.908
-17.0,-9.0,3.909
-8.0,1.0,3.91
-6.0,12.0,3.911
0.0,16.0,3.912
15.0,13.0,3.913
28.0,11.0,3.914
33.0,11.0,3.915
34.0,5.0,3.916
35.0,-6.0,3.917
23.0,-10.0,3.918
-1.0,-6.0,3.919
-28.0,-2.0,3.92
-39.0,-3.0,3.921
-27.0,4.0,3.922
-7.0,15.0,3.923
2.0,13.0,3.924
-9.0,1.0,3.925
-34.0,-3.0,3.926
-46.0,3.0,3.927
-30.0,3.0,3.928
3.0,-7.0,3.929
25.0,-10.0,3.93
28.0,-1.0,3.931
28.0,4.0,3.932
34.0,-3.0,3.933
34.0,-12.0,3.934
21.0,-10.0,3.935
11.0,-7.0,3.936
17.0,-9.0,3.937
28.0,-15.0,3.938
27.0,-15.0,3.939
11.0,-7.0,3.94
-10.0,2.0,3.941
-26.0,11.0,3.942
-34.0,16.0,3.943
-37.0,19.0,3.944
-39.0,18.0,3.945
-48.0,16.0,3.946
-56.0,9.0,3.947
-47.0,0.0,3.948
-24.0,-4.0,3.949
-1.0,-2.0,3.95
17.0,-1.0,3.951
38.0,-5.0,3.952
60.0,-6.0,3.953
66.0,0.0,3.954
49.0,6.0,3.955
33.0,7.0,3.956
34.0,7.0,3.957
38.0,5.0,3.958
23.0,-1.0,3.959
-4.0,-11.0,3.96
-21.0,-19.0,3.961
-20.0,-12.0,3.962
-10.0,-6.0,3.963
5.0,-7.0,3.964
21.0,-8.0,3.965
21.0,-2.0,3.966
1.0,3.0,3.967
-22.0,-3.0,3.968
-21.0,-11.0,3.969
-1.0,-8.0,3.97
9.0,2.0,3.971
4.0,8.0,3.972
3.0,9.0,3.973
14.0,11.0,3.974
24.0,10.0,3.975
19.0,-2.0,3.976
12.0,-11.0,3.977
10.0,-10.0,3.978
11.0,0.0,3.979
2.0,7.0,3.98
-10.0,3.0,3.981
-9.0,-1.0,3.982
3.0,-5.0,3.983
8.0,-7.0,3.984
-8.0,-1.0,3.985
-27.0,9.0,3.986
-30.0,11.0,3.987
-15.0,-1.0,3.988
-2.0,-12.0,3.989
-4.0,-6.0,3.99
-15.0,4.0,3.991
-21.0,2.0,3.992
-17.0,-7.0,3.993
-7.0,-11.0,3.994
7.0,-3.0,3.995
23.0,4.0,3.996
34.0,5.0,3.997
30.0,5.0,3.998
14.0,7.0,3.999
0.0,8.0,4.0
-4.0,5.0,4.001
-3.0,1.0,4.002
-4.0,0.0,4.003
-6.0,-2.0,4.004
-4.0,0.0,4.005
-2.0,0.0,4.006
0.0,-4.0,4.007
-1.0,-8.0,4.008
-4.0,-6.0,4.009
-9.0,-4.0,4.01
-12.0,-1.0,4.011
-2.0,1.0,4.012
17.0,2.0,4.013
32.0,4.0,4.014
32.0,5.0,4.015
25.0,4.0,4.016
19.0,-4.0,4.017
14.0,-10.0,4.018
11.0,-3.0,4.019
3.0,4.0,4.02
-6.0,4.0,4.021
-16.0,4.0,4.022
-18.0,0.0,4.023
-12.0,-9.0,4.024
-6.0,-16.0,4.025
-4.0,-13.0,4.026
0.0,-7.0,4.027
9.0,-4.0,4.028
8.0,-3.0,4.029
-4.0,-4.0,4.03
-15.0,-2.0,4.031
-18.0,5.0,4.032
-19.0,18.0,4.033
-19.0,26.0,4.034
-8.0,19.0,4.035
10.0,3.0,4.036
21.0,-2.0,4.037
19.0,-2.0,4.038
19.0,-3.0,4.039
33.0,-9.0,4.04
51.0,-16.0,4.041
58.0,-16.0,4.042
53.0,-11.0,4.043
50.0,-3.0,4.044
47.0,4.0,4.045
33.0,5.0,4.046
8.0,-3.0,4.047
-17.0,-11.0,4.048
-31.0,-10.0,4.049
-39.0,-2.0,4.05
-46.0,1.0,4.051
-51.0,2.0,4.052
-42.0,3.0,4.053
-19.0,4.0,4.054
1.0,2.0,4.055
0.0,1.0,4.056
-18.0,3.0,4.057
-35.0,1.0,4.058
-38.0,-2.0,4.059
-36.0,-4.0,4.06
-31.0,-6.0,4.061
-15.0,-4.0,4.062
20.0,1.0,4.063
57.0,7.0,4.064
78.0,7.0,4.065
78.0,-1.0,4.066
65.0,-9.0,4.067
50.0,-5.0,4.068
39.0,10.0,4.069
35.0,23.0,4.07
26.0,18.0,4.071
6.0,6.0,4.072
-20.0,-4.0,4.073
-38.0,-7.0,4.074
-46.0,-5.0,4.075
-47.0,-2.0,4.076
-36.0,2.0,4.077
-16.0,2.0,4.078
3.0,0.0,4.079
15.0,1.0,4.08
23.0,-2.0,4.081
34.0,-6.0,4.082
38.0,-12.0,4.083
35.0,-13.0,4.084
31.0,-7.0,4.085
29.0,0.0,4.086
14.0,1.0,4.087
-15.0,-3.0,4.088
-37.0,-3.0,4.089
-30.0,-3.0,4.09
0.0,-2.0,4.091
30.0,-4.0,4.092
30.0,-3.0,4.093
-2.0,-3.0,4.094
-46.0,-7.0,4.095
-68.0,-8.0,4.096
-58.0,-1.0,4.097
-37.0,4.0,4.098
-30.0,3.0,4.099
-41.0,0.0,4.1
-52.0,-4.0,4.101
-45.0,-7.0,4.102
-16.0,-8.0,4.103
22.0,-2.0,4.104
54.0,9.0,4.105
68.0,11.0,4.106
65.0,-1.0,4.107
50.0,-11.0,4.108
33.0,-10.0,4.109
23.0,-5.0,4.11
15.0,-5.0,4.111
-5.0,-1.0,4.112
-26.0,12.0,4.113
-28.0,24.0,4.114
-7.0,21.0,4.115
6.0,8.0,4.116
0.0,2.0,4.117
-12.0,0.0,4.118
-8.0,-5.0,4.119
-6.0,-14.0,4.12
-21.0,-26.0,4.121
-40.0,-27.0,4.122
-37.0,-23.0,4.123
-25.0,-15.0,4.124
-18.0,0.0,4.125
3.0,24.0,4.126
52.0,42.0,4.127
94.0,38.0,4.128
89.0,17.0,4.129
54.0,-3.0,4.13
38.0,-8.0,4.131
54.0,-5.0,4.132
66.0,-6.0,4.133
50.0,-8.0,4.134
29.0,-5.0,4.135
23.0,1.0,4.136
20.0,8.0,4.137
1.0,10.0,4.138
-21.0,6.0,4.139
-30.0,-3.0,4.14
-29.0,-14.0,4.141
-37.0,-17.0,4.142
-53.0,-12.0,4.143
-59.0,-4.0,4.144
-49.0,2.0,4.145
-31.0,5.0,4.146
-15.0,3.0,4.147
2.0,-2.0,4.148
20.0,-4.0,4.149
34.0,1.0,4.15
31.0,6.0,4.151
7.0,4.0,4.152
-26.0,0.0,4.153
-47.0,-2.0,4.154
-48.0,3.0,4.155
-44.0,4.0,4.156
-48.0,1.0,4.157
-51.0,-6.0,4.158
-38.0,-10.0,4.159
-17.0,-7.0,4.16
-9.0,-6.0,4.161
-10.0,-3.0,4.162
10.0,-3.0,4.163
57.0,-5.0,4.164
92.0,-6.0,4.165
87.0,-5.0,4.166
59.0,-4.0,4.167
41.0,-7.0,4.168
40.0,-12.0,4.169
36.0,-13.0,4.17
28.0,-8.0,4.171
19.0,-1.0,4.172
8.0,7.0,4.173
-5.0,11.0,4.174
-12.0,8.0,4.175
-9.0,0.0,4.176
-6.0,-7.0,4.177
-7.0,-8.0,4.178
-5.0,-2.0,4.179
0.0,1.0,4.18
2.0,-1.0,4.181
2.0,1.0,4.182
9.0,8.0,4.183
15.0,15.0,4.184
2.0,12.0,4.185
-26.0,4.0,4.186
-47.0,-1.0,4.187
-43.0,-1.0,4.188
-26.0,0.0,4.189
-12.0,2.0,4.19
-4.0,2.0,4.191
-2.0,3.0,4.192
-2.0,3.0,4.193
4.0,6.0,4.194
19.0,9.0,4.195
29.0,11.0,4.196
27.0,7.0,4.197
19.0,-3.0,4.198
25.0,-9.0,4.199
32.0,-9.0,4.2
22.0,-12.0,4.201
-4.0,-15.0,4.202
-24.0,-13.0,4.203
-27.0,-3.0,4.204
-21.0,7.0,4.205
-14.0,7.0,4.206
-10.0,0.0,4.207
-11.0,-3.0,4.208
-14.0,0.0,4.209
-4.0,4.0,4.21
22.0,2.0,4.211
42.0,-6.0,4.212
38.0,-12.0,4.213
23.0,-9.0,4.214
19.0,-4.0,4.215
13.0,-3.0,4.216
-6.0,-5.0,4.217
-32.0,-6.0,4.218
-31.0,-1.0,4.219
-3.0,5.0,4.22
20.0,5.0,4.221
17.0,4.0,4.222
-1.0,5.0,4.223
-12.0,6.0,4.224
-18.0,4.0,4.225
-27.0,4.0,4.226
-37.0,6.0,4.227
-44.0,5.0,4.228
-47.0,2.0,4.229
-51.0,2.0,4.23
-49.0,10.0,4.231
-26.0,14.0,4.232
19.0,7.0,4.233
71.0,-4.0,4.234
104.0,-8.0,4.235
110.0,-5.0,4.236
96.0,0.0,4.237
65.0,0.0,4.238
34.0,0.0,4.239
17.0,2.0,4.24
22.0,-3.0,4.241
32.0,-10.0,4.242
27.0,-14.0,4.243
19.0,-11.0,4.244
23.0,-4.0,4.245
30.0,3.0,4.246
20.0,8.0,4.247
3.0,7.0,4.248
0.0,0.0,4.249
3.0,-7.0,4.25
-10.0,-8.0,4.251
-36.0,-6.0,4.252
-53.0,-7.0,4.253
-54.0,-9.0,4.254
-50.0,-3.0,4.255
-45.0,6.0,4.256
-33.0,7.0,4.257
-17.0,-6.0,4.258
-2.0,-19.0,4.259
10.0,-18.0,4.26
12.0,-9.0,4.261
-12.0,0.0,4.262
-53.0,7.0,4.263
-66.0,8.0,4.264
-28.0,3.0,4.265
32.0,-4.0,4.266
67.0,-1.0,4.267
65.0,8.0,4.268
55.0,13.0,4.269
45.0,4.0,4.27
22.0,-8.0,4.271
-14.0,-9.0,4.272
-45.0,-3.0,4.273
-53.0,7.0,4.274
-51.0,14.0,4.275
-49.0,18.0,4.276
-42.0,19.0,4.277
-27.0,10.0,4.278
-10.0,-1.0,4.279
-3.0,-6.0,4.28
-2.0,-8.0,4.281
3.0,-10.0,4.282
15.0,-16.0,4.283
19.0,-18.0,4.284
18.0,-12.0,4.285
23.0,-5.0,4.286
35.0,-2.0,4.287
36.0,-3.0,4.288
21.0,4.0,4.289
5.0,11.0,4.29
0.0,7.0,4.291
1.0,-8.0,4.292
9.0,-15.0,4.293
27.0,-3.0,4.294
56.0,15.0,4.295
79.0,22.0,4.296
76.0,14.0,4.297
43.0,2.0,4.298
0.0,-2.0,4.299
-32.0,-2.0,4.3
-44.0,-7.0,4.301
-42.0,-12.0,4.302
-35.0,-13.0,4.303
-22.0,-9.0,4.304
-2.0,-7.0,4.305
20.0,-7.0,4.306
36.0,-6.0,4.307
45.0,-1.0,4.308
51.0,4.0,4.309
48.0,5.0,4.31
28.0,2.0,4.311
0.0,-1.0,4.312
-19.0,-1.0,4.313
-27.0,2.0,4.314
-33.0,3.0,4.315
-39.0,1.0,4.316
-41.0,-3.0,4.317
-49.0,-11.0,4.318
-71.0,-18.0,4.319
-92.0,-15.0,4.32
-85.0,-1.0,4.321
-43.0,22.0,4.322
12.0,39.0,4.323
55.0,37.0,4.324
83.0,20.0,4.325
91.0,-1.0,4.326
72.0,-12.0,4.327
32.0,-13.0,4.328
-1.0,-13.0,4.329
-11.0,-18.0,4.33
-10.0,-24.0,4.331
-20.0,-27.0,4.332
-29.0,-26.0,4.333
-24.0,-17.0,4.334
-10.0,-1.0,4.335
-1.0,21.0,4.336
15.0,42.0,4.337
50.0,50.0,4.338
85.0,42.0,4.339
83.0,19.0,4.34
51.0,-7.0,4.341
23.0,-17.0,4.342
11.0,-11.0,4.343
-6.0,0.0,4.344
-19.0,6.0,4.345
-3.0,1.0,4.346
33.0,-8.0,4.347
46.0,-12.0,4.348
21.0,-9.0,4.349
-15.0,-7.0,4.35
-43.0,-11.0,4.351
-69.0,-13.0,4.352
-88.0,-8.0,4.353
-85.0,-1.0,4.354
-63.0,1.0,4.355
-39.0,0.0,4.356
-14.0,0.0,4.357
26.0,0.0,4.358
65.0,-2.0,4.359
67.0,-4.0,4.36
34.0,-4.0,4.361
3.0,-3.0,4.362
-2.0,-1.0,4.363
-7.0,0.0,4.364
-31.0,1.0,4.365
-55.0,1.0,4.366
-56.0,-4.0,4.367
-42.0,-8.0,4.368
-38.0,-2.0,4.369
-49.0,0.0,4.37
-42.0,-5.0,4.371
8.0,-8.0,4.372
80.0,-1.0,4.373
119.0,5.0,4.374
101.0,4.0,4.375
57.0,3.0,4.376
23.0,4.0,4.377
-9.0,6.0,4.378
-35.0,11.0,4.379
-28.0,7.0,4.38
22.0,-5.0,4.381
62.0,-13.0,4.382
30.0,-18.0,4.383
-39.0,-23.0,4.384
-68.0,-23.0,4.385
-45.0,-17.0,4.386
-24.0,-10.0,4.387
-21.0,-3.0,4.388
3.0,9.0,4.389
61.0,26.0,4.39
101.0,32.0,4.391
98.0,22.0,4.392
80.0,8.0,4.393
69.0,5.0,4.394
50.0,9.0,4.395
16.0,10.0,4.396
-4.0,9.0,4.397
0.0,6.0,4.398
3.0,4.0,4.399
-15.0,0.0,4.4
-43.0,-8.0,4.401
-66.0,-13.0,4.402
-81.0,-15.0,4.403
-84.0,-16.0,4.404
-62.0,-18.0,4.405
-24.0,-17.0,4.406
8.0,-17.0,4.407
25.0,-13.0,4.408
27.0,-8.0,4.409
9.0,-5.0,4.41
-21.0,-8.0,4.411
-32.0,-18.0,4.412
-7.0,-25.0,4.413
24.0,-20.0,4.414
29.0,-1.0,4.415
19.0,23.0,4.416
23.0,41.0,4.417
39.0,49.0,4.418
41.0,49.0,4.419
20.0,43.0,4.42
-7.0,22.0,4.421
-28.0,-6.0,4.422
-33.0,-31.0,4.423
-19.0,-39.0,4.424
7.0,-31.0,4.425
25.0,-28.0,4.426
20.0,-31.0,4.427
1.0,-27.0,4.428
-17.0,-6.0,4.429
-24.0,25.0,4.43
-21.0,55.0,4.431
0.0,70.0,4.432
34.0,66.0,4.433
63.0,45.0,4.434
68.0,17.0,4.435
49.0,-4.0,4.436
20.0,-11.0,4.437
-17.0,-14.0,4.438
-49.0,-18.0,4.439
-62.0,-20.0,4.44
-62.0,-19.0,4.441
-72.0,-7.0,4.442
-89.0,6.0,4.443
-75.0,8.0,4.444
-7.0,1.0,4.445
72.0,-8.0,4.446
108.0,-14.0,4.447
96.0,-22.0,4.448
68.0,-29.0,4.449
33.0,-26.0,4.45
-14.0,-13.0,4.451
-55.0,3.0,4.452
-57.0,13.0,4.453
-35.0,16.0,4.454
-33.0,10.0,4.455
-58.0,-1.0,4.456
-56.0,-8.0,4.457
0.0,-8.0,4.458
73.0,-7.0,4.459
103.0,-11.0,4.46
83.0,-19.0,4.461
49.0,-16.0,4.462
18.0,-4.0,4.463
-12.0,1.0,4.464
-33.0,-4.0,4.465
-32.0,-9.0,4.466
-13.0,-10.0,4.467
5.0,-9.0,4.468
18.0,-9.0,4.469
33.0,-6.0,4.47
42.0,-1.0,4.471
32.0,1.0,4.472
24.0,5.0,4.473
34.0,9.0,4.474
49.0,10.0,4.475
43.0,5.0,4.476
17.0,4.0,4.477
-5.0,6.0,4.478
-9.0,10.0,4.479
-15.0,1.0,4.48
-29.0,-12.0,4.481
-37.0,-14.0,4.482
-29.0,-14.0,4.483
-18.0,-22.0,4.484
-18.0,-31.0,4.485
-21.0,-25.0,4.486
-15.0,-9.0,4.487
-4.0,-1.0,4.488
0.0,0.0,4.489
-5.0,6.0,4.49
-17.0,15.0,4.491
-23.0,19.0,4.492
-22.0,23.0,4.493
-10.0,34.0,4.494
5.0,45.0,4.495
12.0,41.0,4.496
12.0,28.0,4.497
11.0,20.0,4.498
18.0,24.0,4.499
22.0,18.0,4.5
14.0,-9.0,4.501
-5.0,-32.0,4.502
-19.0,-35.0,4.503
-16.0,-25.0,4.504
-5.0,-16.0,4.505
-12.0,-15.0,4.506
-40.0,-12.0,4.507
-62.0,0.0,4.508
-55.0,24.0,4.509
-18.0,42.0,4.51
24.0,40.0,4.511
62.0,18.0,4.512
93.0,-7.0,4.513
97.0,-13.0,4.514
67.0,-1.0,4.515
32.0,11.0,4.516
28.0,4.0,4.517
31.0,-15.0,4.518
0.0,-28.0,4.519
-58.0,-26.0,4.52
-71.0,-24.0,4.521
-15.0,-27.0,4.522
64.0,-32.0,4.523
112.0,-37.0,4.524
129.0,-42.0,4.525
115.0,-46.0,4.526
57.0,-39.0,4.527
-34.0,-15.0,4.528
-102.0,17.0,4.529
-106.0,47.0,4.53
-77.0,65.0,4.531
-51.0,63.0,4.532
-30.0,41.0,4.533
-8.0,17.0,4.534
-6.0,12.0,4.535
-37.0,26.0,4.536
-64.0,34.0,4.537
-53.0,25.0,4.538
-17.0,12.0,4.539
1.0,10.0,4.54
-7.0,5.0,4.541
-19.0,-11.0,4.542
-16.0,-34.0,4.543
-5.0,-40.0,4.544
-3.0,-24.0,4.545
-5.0,-5.0,4.546
7.0,-6.0,4.547
44.0,-21.0,4.548
78.0,-30.0,4.549
78.0,-17.0,4.55
47.0,4.0,4.551
20.0,13.0,4.552
17.0,13.0,4.553
26.0,16.0,4.554
25.0,18.0,4.555
3.0,9.0,4.556
-21.0,-4.0,4.557
-21.0,-15.0,4.558
14.0,-20.0,4.559
39.0,-26.0,4.56
13.0,-34.0,4.561
-42.0,-39.0,4.562
-74.0,-30.0,4.563
-75.0,-20.0,4.564
-68.0,-10.0,4.565
-40.0,2.0,4.566
23.0,20.0,4.567
86.0,33.0,4.568
98.0,25.0,4.569
69.0,20.0,4.57
48.0,27.0,4.571
43.0,31.0,4.572
27.0,24.0,4.573
4.0,16.0,4.574
-3.0,9.0,4.575
2.0,2.0,4.576
1.0,0.0,4.577
-11.0,-4.0,4.578
-24.0,-14.0,4.579
-41.0,-19.0,4.58
-73.0,-15.0,4.581
-94.0,-4.0,4.582
-82.0,2.0,4.583
-52.0,0.0,4.584
26.0,-8.0,4.585
89.0,-16.0,4.586
101.0,-20.0,4.587
94.0,-19.0,4.588
32.0,-14.0,4.589
-12.0,-12.0,4.59
-5.0,-10.0,4.591
-2.0,-2.0,4.592
-18.0,13.0,4.593
-26.0,19.0,4.594
-12.0,15.0,4.595
2.0,14.0,4.596
17.0,27.0,4.597
28.0,34.0,4.598
17.0,24.0,4.599
9.0,4.0,4.6
4.0,-7.0,4.601
2.0,-2.0,4.602
5.0,0.0,4.603
5.0,-8.0,4.604
3.0,-16.0,4.605
6.0,-18.0,4.606
13.0,-26.0,4.607
5.0,-47.0,4.608
-16.0,-60.0,4.609
-23.0,-44.0,4.61
-7.0,-14.0,4.611
-1.0,4.0,4.612
-22.0,14.0,4.613
-37.0,37.0,4.614
-22.0,67.0,4.615
-5.0,81.0,4.616
-10.0,69.0,4.617
-15.0,47.0,4.618
5.0,41.0,4.619
17.0,43.0,4.62
-5.0,29.0,4.621
-20.0,0.0,4.622
17.0,-23.0,4.623
58.0,-28.0,4.624
31.0,-26.0,4.625
-26.0,-31.0,4.626
-27.0,-49.0,4.627
25.0,-66.0,4.628
38.0,-70.0,4.629
-15.0,-63.0,4.63
-65.0,-50.0,4.631
-57.0,-32.0,4.632
-35.0,-9.0,4.633
-46.0,15.0,4.634
-63.0,39.0,4.635
-17.0,54.0,4.636
83.0,59.0,4.637
163.0,49.0,4.638
153.0,38.0,4.639
83.0,25.0,4.64
34.0,5.0,4.641
28.0,-12.0,4.642
22.0,-17.0,4.643
-9.0,-20.0,4.644
-35.0,-18.0,4.645
-44.0,-15.0,4.646
-57.0,-9.0,4.647
-86.0,-5.0,4.648
-99.0,-6.0,4.649
-77.0,-12.0,4.65
-40.0,-28.0,4.651
1.0,-36.0,4.652
50.0,-18.0,4.653
100.0,0.0,4.654
123.0,20.0,4.655
121.0,35.0,4.656
107.0,31.0,4.657
68.0,23.0,4.658
10.0,5.0,4.659
-31.0,-4.0,4.66
-19.0,-7.0,4.661
-9.0,-9.0,4.662
-13.0,-14.0,4.663
-16.0,-18.0,4.664
-14.0,-19.0,4.665
-17.0,-9.0,4.666
-35.0,8.0,4.667
-45.0,23.0,4.668
-31.0,20.0,4.669
-13.0,4.0,4.67
17.0,-12.0,4.671
35.0,-21.0,4.672
10.0,-25.0,4.673
-12.0,-27.0,4.674
-27.0,-20.0,4.675
-31.0,0.0,4.676
0.0,24.0,4.677
28.0,39.0,4.678
14.0,34.0,4.679
-45.0,11.0,4.68
-96.0,-13.0,4.681
-96.0,-17.0,4.682
-53.0,1.0,4.683
4.0,19.0,4.684
54.0,16.0,4.685
83.0,-5.0,4.686
84.0,-24.0,4.687
67.0,-18.0,4.688
57.0,21.0,4.689
62.0,68.0,4.69
67.0,86.0,4.691
56.0,57.0,4.692
43.0,9.0,4.693
31.0,-14.0,4.694
2.0,-8.0,4.695
-58.0,-5.0,4.696
-115.0,-17.0,4.697
-146.0,-32.0,4.698
-141.0,-32.0,4.699
-115.0,-27.0,4.7
-60.0,-30.0,4.701
29.0,-29.0,4.702
113.0,-20.0,4.703
135.0,-14.0,4.704
94.0,-22.0,4.705
51.0,-29.0,4.706
43.0,-25.0,4.707
37.0,-14.0,4.708
-3.0,1.0,4.709
-43.0,21.0,4.71
-33.0,35.0,4.711
12.0,29.0,4.712
29.0,9.0,4.713
5.0,-4.0,4.714
-17.0,-3.0,4.715
-9.0,-1.0,4.716
6.0,-3.0,4.717
5.0,-7.0,4.718
4.0,-5.0,4.719
10.0,-7.0,4.72
-2.0,-13.0,4.721
-47.0,-6.0,4.722
-100.0,21.0,4.723
-137.0,49.0,4.724
-155.0,49.0,4.725
-145.0,24.0,4.726
-79.0,0.0,4.727
34.0,-4.0,4.728
145.0,-1.0,4.729
209.0,-6.0,4.73
223.0,-17.0,4.731
189.0,-25.0,4.732
118.0,-28.0,4.733
45.0,-34.0,4.734
-1.0,-40.0,4.735
-49.0,-38.0,4.736
-119.0,-24.0,4.737
-169.0,-1.0,4.738
-123.0,19.0,4.739
-4.0,26.0,4.74
70.0,16.0,4.741
60.0,11.0,4.742
42.0,18.0,4.743
68.0,21.0,4.744
95.0,1.0,4.745
68.0,-29.0,4.746
12.0,-49.0,4.747
-18.0,-46.0,4.748
-19.0,-37.0,4.749
-15.0,-26.0,4.75
-23.0,-6.0,4.751
-41.0,28.0,4.752
-70.0,61.0,4.753
-99.0,81.0,4.754
-105.0,85.0,4.755
-67.0,79.0,4.756
6.0,62.0,4.757
82.0,34.0,4.758
115.0,8.0,4.759
85.0,-4.0,4.76
27.0,-13.0,4.761
-13.0,-23.0,4.762
-19.0,-33.0,4.763
-12.0,-38.0,4.764
0.0,-33.0,4.765
30.0,-22.0,4.766
71.0,-12.0,4.767
91.0,-11.0,4.768
63.0,-22.0,4.769
-6.0,-34.0,4.77
-82.0,-36.0,4.771
-124.0,-30.0,4.772
-111.0,-24.0,4.773
-55.0,-20.0,4.774
-1.0,-18.0,4.775
20.0,-16.0,4.776
21.0,-7.0,4.777
21.0,8.0,4.778
20.0,21.0,4.779
9.0,30.0,4.78
-10.0,25.0,4.781
-15.0,18.0,4.782
-10.0,6.0,4.783
-6.0,-7.0,4.784
-15.0,-19.0,4.785
-29.0,-19.0,4.786
-50.0,14.0,4.787
-69.0,41.0,4.788
-64.0,41.0,4.789
-19.0,34.0,4.79
47.0,10.0,4.791
98.0,-7.0,4.792
118.0,-5.0,4.793
119.0,-5.0,4.794
114.0,-12.0,4.795
103.0,-19.0,4.796
82.0,-23.0,4.797
41.0,-23.0,4.798
-11.0,-12.0,4.799
-58.0,-16.0,4.8
-90.0,-30.0,4.801
-109.0,-33.0,4.802
-91.0,-21.0,4.803
-70.0,0.0,4.804
-38.0,21.0,4.805
-7.0,32.0,4.806
18.0,24.0,4.807
39.0,8.0,4.808
48.0,9.0,4.809
48.0,33.0,4.81
22.0,47.0,4.811
4.0,29.0,4.812
11.0,-4.0,4.813
6.0,-16.0,4.814
-37.0,-6.0,4.815
-70.0,1.0,4.816
-70.0,-8.0,4.817
-63.0,-25.0,4.818
-43.0,-22.0,4.819
-28.0,3.0,4.82
-6.0,24.0,4.821
26.0,22.0,4.822
66.0,0.0,4.823
103.0,-18.0,4.824
130.0,-20.0,4.825
140.0,-7.0,4.826
125.0,8.0,4.827
86.0,17.0,4.828
36.0,19.0,4.829
2.0,12.0,4.83
-9.0,0.0,4.831
-20.0,-12.0,4.832
-50.0,-17.0,4.833
-84.0,-16.0,4.834
-83.0,-14.0,4.835
-27.0,-16.0,4.836
44.0,-23.0,4.837
76.0,-32.0,4.838
32.0,-37.0,4.839
-51.0,-21.0,4.84
-99.0,14.0,4.841
-90.0,54.0,4.842
-65.0,66.0,4.843
-51.0,45.0,4.844
-35.0,14.0,4.845
-10.0,-4.0,4.846
12.0,-6.0,4.847
22.0,-6.0,4.848
38.0,-4.0,4.849
55.0,0.0,4.85
54.0,1.0,4.851
44.0,-3.0,4.852
52.0,-9.0,4.853
62.0,-18.0,4.854
30.0,-37.0,4.855
-36.0,-57.0,4.856
-77.0,-60.0,4.857
-69.0,-31.0,4.858
-37.0,14.0,4.859
-24.0,51.0,4.86
-31.0,62.0,4.861
-36.0,62.0,4.862
-15.0,26.0,4.863
35.0,0.0,4.864
72.0,5.0,4.865
49.0,9.0,4.866
0.0,2.0,4.867
2.0,-6.0,4.868
58.0,-14.0,4.869
78.0,-17.0,4.87
28.0,-7.0,4.871
-17.0,1.0,4.872
-5.0,2.0,4.873
13.0,3.0,4.874
-14.0,-1.0,4.875
-39.0,-4.0,4.876
-18.0,0.0,4.877
-1.0,5.0,4.878
-26.0,1.0,4.879
-37.0,-16.0,4.88
-3.0,-24.0,4.881
31.0,-14.0,4.882
67.0,-11.0,4.883
86.0,-21.0,4.884
50.0,-23.0,4.885
12.0,-12.0,4.886
-29.0,-9.0,4.887
-54.0,-15.0,4.888
-24.0,-12.0,4.889
-4.0,0.0,4.89
-17.0,6.0,4.891
-25.0,0.0,4.892
-12.0,-5.0,4.893
-5.0,-1.0,4.894
-17.0,0.0,4.895
-20.0,-4.0,4.896
3.0,5.0,4.897
21.0,31.0,4.898
4.0,46.0,4.899
-17.0,26.0,4.9
-15.0,-9.0,4.901
-2.0,-20.0,4.902
3.0,-4.0,4.903
8.0,10.0,4.904
12.0,8.0,4.905
0.0,2.0,4.906
-21.0,7.0,4.907
-23.0,6.0,4.908
-6.0,-6.0,4.909
7.0,-15.0,4.91
3.0,-13.0,4.911
6.0,-4.0,4.912
27.0,-2.0,4.913
46.0,-4.0,4.914
39.0,-3.0,4.915
4.0,-1.0,4.916
-36.0,2.0,4.917
-60.0,7.0,4.918
-42.0,16.0,4.919
7.0,24.0,4.92
41.0,19.0,4.921
34.0,-2.0,4.922
7.0,-31.0,4.923
-3.0,-47.0,4.924
-3.0,-34.0,4.925
-9.0,-4.0,4.926
-13.0,16.0,4.927
-3.0,16.0,4.928
13.0,5.0,4.929
18.0,-5.0,4.93
22.0,-11.0,4.931
38.0,-8.0,4.932
60.0,14.0,4.933
73.0,45.0,4.934
80.0,57.0,4.935
76.0,37.0,4.936
41.0,11.0,4.937
-35.0,-5.0,4.938
-100.0,-1.0,4.939
-104.0,4.0,4.94
-65.0,1.0,4.941
-31.0,0.0,4.942
-15.0,0.0,4.943
21.0,-5.0,4.944
70.0,-17.0,4.945
67.0,-24.0,4.946
-13.0,-23.0,4.947
-86.0,-19.0,4.948
-48.0,-15.0,4.949
71.0,-10.0,4.95
124.0,-6.0,4.951
45.0,-11.0,4.952
-67.0,-21.0,4.953
-85.0,-26.0,4.954
-27.0,-25.0,4.955
0.0,-20.0,4.956
-28.0,-11.0,4.957
-46.0,0.0,4.958
-10.0,15.0,4.959
34.0,26.0,4.96
43.0,24.0,4.961
37.0,14.0,4.962
42.0,2.0,4.963
38.0,-6.0,4.964
9.0,-3.0,4.965
-19.0,7.0,4.966
-16.0,16.0,4.967
3.0,18.0,4.968
8.0,12.0,4.969
-2.0,6.0,4.97
-10.0,1.0,4.971
-20.0,-3.0,4.972
-38.0,-7.0,4.973
-47.0,-9.0,4.974
-27.0,-11.0,4.975
10.0,-7.0,4.976
41.0,7.0,4.977
56.0,21.0,4.978
66.0,26.0,4.979
69.0,21.0,4.98
48.0,8.0,4.981
0.0,-1.0,4.982
-44.0,-8.0,4.983
-50.0,-14.0,4.984
-19.0,-21.0,4.985
10.0,-26.0,4.986
13.0,-26.0,4.987
15.0,-18.0,4.988
35.0,-4.0,4.989
47.0,7.0,4.99
21.0,10.0,4.991
-13.0,5.0,4.992
-12.0,1.0,4.993
18.0,1.0,4.994
25.0,2.0,4.995
3.0,-1.0,4.996
-11.0,-4.0,4.997
-5.0,-4.0,4.998
-6.0,-2.0,4.999
-31.0,0.0,5.0
-55.0,-1.0,5.001
-57.0,5.0,5.002
-38.0,13.0,5.003
-12.0,15.0,5.004
16.0,6.0,5.005
20.0,-4.0,5.006
-14.0,-5.0,5.007
-57.0,0.0,5.008
-63.0,6.0,5.009
-21.0,8.0,5.01
33.0,6.0,5.011
60.0,0.0,5.012
50.0,-7.0,5.013
22.0,-9.0,5.014
5.0,-9.0,5.015
7.0,-11.0,5.016
13.0,-17.0,5.017
9.0,-19.0,5.018
9.0,-15.0,5.019
30.0,-10.0,5.02
57.0,-5.0,5.021
47.0,4.0,5.022
1.0,14.0,5.023
-40.0,13.0,5.024
-48.0,-1.0,5.025
-34.0,-13.0,5.026
-16.0,-21.0,5.027
1.0,-23.0,5.028
15.0,-15.0,5.029
19.0,1.0,5.03
15.0,22.0,5.031
11.0,32.0,5.032
8.0,28.0,5.033
5.0,17.0,5.034
5.0,12.0,5.035
9.0,13.0,5.036
11.0,18.0,5.037
3.0,18.0,5.038
-6.0,14.0,5.039
-13.0,9.0,5.04
-8.0,-2.0,5.041
-2.0,-11.0,5.042
7.0,-15.0,5.043
12.0,-5.0,5.044
3.0,8.0,5.045
-7.0,14.0,5.046
-19.0,4.0,5.047
-23.0,-11.0,5.048
-3.0,-17.0,5.049
22.0,-14.0,5.05
60.0,-11.0,5.051
73.0,-15.0,5.052
8.0,-20.0,5.053
-42.0,-24.0,5.054
-46.0,-28.0,5.055
-38.0,-33.0,5.056
7.0,-27.0,5.057
37.0,-4.0,5.058
-2.0,27.0,5.059
-29.0,39.0,5.06
-15.0,25.0,5.061
16.0,13.0,5.062
33.0,17.0,5.063
26.0,21.0,5.064
-2.0,5.0,5.065
-32.0,-16.0,5.066
-35.0,-21.0,5.067
-2.0,-11.0,5.068
36.0,-7.0,5.069
47.0,-7.0,5.07
28.0,2.0,5.071
-4.0,14.0,5.072
-51.0,16.0,5.073
-111.0,7.0,5.074
-151.0,3.0,5.075
-120.0,7.0,5.076
-24.0,9.0,5.077
91.0,3.0,5.078
161.0,-5.0,5.079
167.0,-7.0,5.08
149.0,-8.0,5.081
129.0,-4.0,5.082
101.0,0.0,5.083
49.0,0.0,5.084
-6.0,-6.0,5.085
-27.0,-8.0,5.086
-23.0,-7.0,5.087
-28.0,-8.0,5.088
-44.0,-15.0,5.089
-40.0,-17.0,5.09
-7.0,-8.0,5.091
21.0,2.0,5.092
15.0,8.0,5.093
-10.0,6.0,5.094
-25.0,-3.0,5.095
-30.0,-13.0,5.096
-31.0,-18.0,5.097
-28.0,-10.0,5.098
-18.0,6.0,5.099
-16.0,16.0,5.1
-25.0,12.0,5.101
-30.0,11.0,5.102
-17.0,20.0,5.103
0.0,28.0,5.104
-1.0,21.0,5.105
-8.0,0.0,5.106
-7.0,-17.0,5.107
4.0,-23.0,5.108
10.0,-14.0,5.109
11.0,-5.0,5.11
18.0,-4.0,5.111
24.0,-7.0,5.112
22.0,-5.0,5.113
16.0,2.0,5.114
17.0,10.0,5.115
21.0,13.0,5.116
20.0,13.0,5.117
4.0,10.0,5.118
-10.0,9.0,5.119
-17.0,4.0,5.12
-19.0,-4.0,5.121
-17.0,-8.0,5.122
-7.0,-7.0,5.123
3.0,0.0,5.124
3.0,7.0,5.125
-5.0,4.0,5.126
-13.0,-9.0,5.127
-19.0,-17.0,5.128
-22.0,-11.0,5.129
-5.0,1.0,5.13
39.0,5.0,5.131
73.0,1.0,5.132
58.0,-2.0,5.133
7.0,0.0,5.134
-30.0,0.0,5.135
-33.0,-5.0,5.136
-25.0,-5.0,5.137
-22.0,-1.0,5.138
-29.0,-2.0,5.139
-44.0,-14.0,5.14
-53.0,-30.0,5.141
-31.0,-33.0,5.142
21.0,-24.0,5.143
64.0,-9.0,5.144
71.0,10.0,5.145
66.0,34.0,5.146
62.0,41.0,5.147
38.0,21.0,5.148
-8.0,-3.0,5.149
-36.0,-3.0,5.15
-21.0,16.0,5.151
3.0,26.0,5.152
7.0,17.0,5.153
1.0,7.0,5.154
2.0,4.0,5.155
3.0,-2.0,5.156
-2.0,-8.0,5.157
-11.0,-5.0,5.158
-14.0,4.0,5.159
-22.0,4.0,5.16
-28.0,-10.0,5.161
-16.0,-19.0,5.162
16.0,-16.0,5.163
41.0,-12.0,5.164
38.0,-13.0,5.165
19.0,-13.0,5.166
5.0,-10.0,5.167
10.0,-7.0,5.168
27.0,-8.0,5.169
42.0,-9.0,5.17
39.0,-9.0,5.171
24.0,-10.0,5.172
19.0,-8.0,5.173
20.0,-5.0,5.174
14.0,0.0,5.175
-3.0,0.0,5.176
-10.0,1.0,5.177
-7.0,12.0,5.178
-9.0,27.0,5.179
-20.0,27.0,5.18
-24.0,9.0,5.181
-19.0,-6.0,5.182
-14.0,-5.0,5.183
-17.0,4.0,5.184
-15.0,1.0,5.185
-6.0,-11.0,5.186
-2.0,-17.0,5.187
-4.0,-8.0,5.188
-2.0,2.0,5.189
3.0,0.0,5.19
-5.0,-9.0,5.191
-24.0,-14.0,5.192
-34.0,-9.0,5.193
-22.0,0.0,5.194
4.0,6.0,5.195
36.0,10.0,5.196
59.0,19.0,5.197
54.0,33.0,5.198
18.0,43.0,5.199
-21.0,42.0,5.2
-29.0,31.0,5.201
-27.0,20.0,5.202
-51.0,1.0,5.203
-85.0,-19.0,5.204
-80.0,-26.0,5.205
-27.0,-15.0,5.206
38.0,-1.0,5.207
95.0,-3.0,5.208
143.0,-11.0,5.209
154.0,-15.0,5.21
105.0,-14.0,5.211
24.0,-17.0,5.212
-29.0,-13.0,5.213
-37.0,-2.0,5.214
-25.0,5.0,5.215
-15.0,-2.0,5.216
-7.0,-11.0,5.217
-8.0,-13.0,5.218
-23.0,-7.0,5.219
-38.0,-2.0,5.22
-42.0,0.0,5.221
-34.0,8.0,5.222
-22.0,12.0,5.223
-2.0,3.0,5.224
22.0,-10.0,5.225
32.0,-14.0,5.226
21.0,-9.0,5.227
5.0,-5.0,5.228
1.0,-6.0,5.229
4.0,-6.0,5.23
3.0,-3.0,5.231
7.0,8.0,5.232
17.0,23.0,5.233
23.0,32.0,5.234
15.0,26.0,5.235
-4.0,11.0,5.236
-18.0,5.0,5.237
-26.0,6.0,5.238
-26.0,5.0,5.239
-21.0,-3.0,5.24
-9.0,-17.0,5.241
8.0,-26.0,5.242
24.0,-30.0,5.243
35.0,-27.0,5.244
38.0,-12.0,5.245
34.0,8.0,5.246
21.0,17.0,5.247
-7.0,13.0,5.248
-41.0,9.0,5.249
-55.0,4.0,5.25
-29.0,-3.0,5.251
15.0,-9.0,5.252
42.0,-3.0,5.253
40.0,7.0,5.254
30.0,10.0,5.255
25.0,4.0,5.256
17.0,0.0,5.257
-10.0,0.0,5.258
-46.0,3.0,5.259
-68.0,2.0,5.26
-65.0,0.0,5.261
-47.0,0.0,5.262
-25.0,-1.0,5.263
-5.0,-6.0,5.264
19.0,-14.0,5.265
44.0,-23.0,5.266
64.0,-31.0,5.267
74.0,-32.0,5.268
65.0,-20.0,5.269
35.0,1.0,5.27
1.0,20.0,5.271
-13.0,32.0,5.272
-1.0,37.0,5.273
13.0,30.0,5.274
10.0,11.0,5.275
-5.0,-10.0,5.276
-9.0,-24.0,5.277
-2.0,-32.0,5.278
-4.0,-34.0,5.279
-21.0,-28.0,5.28
-29.0,-14.0,5.281
-19.0,2.0,5.282
-9.0,13.0,5.283
-13.0,18.0,5.284
-19.0,27.0,5.285
-12.0,33.0,5.286
-2.0,30.0,5.287
2.0,18.0,5.288
8.0,12.0,5.289
20.0,9.0,5.29
26.0,1.0,5.291
15.0,-9.0,5.292
4.0,-8.0,5.293
8.0,4.0,5.294
12.0,10.0,5.295
1.0,3.0,5.296
-10.0,-2.0,5.297
-6.0,-2.0,5.298
13.0,0.0,5.299
16.0,-3.0,5.3
-11.0,-14.0,5.301
-43.0,-18.0,5.302
-51.0,-16.0,5.303
-25.0,-11.0,5.304
16.0,-5.0,5.305
53.0,-2.0,5.306
69.0,-2.0,5.307
59.0,-1.0,5.308
32.0,-2.0,5.309
14.0,-3.0,5.31
14.0,-9.0,5.311
20.0,-17.0,5.312
20.0,-21.0,5.313
20.0,-18.0,5.314
28.0,-1.0,5.315
31.0,25.0,5.316
19.0,44.0,5.317
-4.0,40.0,5.318
-16.0,14.0,5.319
-25.0,-6.0,5.32
-40.0,-10.0,5.321
-52.0,-5.0,5.322
-39.0,-6.0,5.323
-9.0,-12.0,5.324
12.0,-13.0,5.325
10.0,-6.0,5.326
-9.0,-5.0,5.327
-33.0,-8.0,5.328
-53.0,-10.0,5.329
-60.0,-8.0,5.33
-48.0,-5.0,5.331
-25.0,-7.0,5.332
0.0,-7.0,5.333
19.0,-4.0,5.334
20.0,-5.0,5.335
4.0,-10.0,5.336
-3.0,-13.0,5.337
8.0,-8.0,5.338
29.0,3.0,5.339
39.0,13.0,5.34
42.0,18.0,5.341
42.0,18.0,5.342
32.0,11.0,5.343
14.0,0.0,5.344
8.0,-8.0,5.345
22.0,-7.0,5.346
25.0,-11.0,5.347
2.0,-18.0,5.348
-13.0,-14.0,5.349
4.0,4.0,5.35
30.0,22.0,5.351
32.0,29.0,5.352
24.0,29.0,5.353
26.0,28.0,5.354
32.0,19.0,5.355
28.0,0.0,5.356
20.0,-5.0,5.357
13.0,0.0,5.358
-12.0,3.0,5.359
-69.0,-5.0,5.36
-132.0,-14.0,5.361
-160.0,-11.0,5.362
-137.0,-6.0,5.363
-84.0,-9.0,5.364
-27.0,-12.0,5.365
18.0,-11.0,5.366
54.0,-10.0,5.367
90.0,-17.0,5.368
128.0,-21.0,5.369
152.0,-15.0,5.37
138.0,-4.0,5.371
75.0,2.0,5.372
-3.0,1.0,5.373
-45.0,-1.0,5.374
-36.0,-2.0,5.375
-15.0,9.0,5.376
-12.0,31.0,5.377
-18.0,47.0,5.378
-12.0,41.0,5.379
-8.0,15.0,5.38
-25.0,-9.0,5.381
-41.0,-9.0,5.382
-22.0,4.0,5.383
29.0,7.0,5.384
62.0,-5.0,5.385
49.0,-18.0,5.386
3.0,-23.0,5.387
-56.0,-24.0,5.388
-91.0,-24.0,5.389
-72.0,-18.0,5.39
-8.0,0.0,5.391
40.0,16.0,5.392
31.0,18.0,5.393
5.0,7.0,5.394
19.0,-7.0,5.395
58.0,-11.0,5.396
69.0,-8.0,5.397
35.0,-2.0,5.398
7.0,1.0,5.399
3.0,-1.0,5.4
0.0,-6.0,5.401
-21.0,-1.0,5.402
-44.0,16.0,5.403
-53.0,27.0,5.404
-49.0,15.0,5.405
-36.0,-8.0,5.406
-6.0,-22.0,5.407
24.0,-16.0,5.408
25.0,-5.0,5.409
11.0,2.0,5.41
18.0,8.0,5.411
55.0,12.0,5.412
83.0,7.0,5.413
78.0,-2.0,5.414
57.0,-2.0,5.415
40.0,10.0,5.416
30.0,17.0,5.417
15.0,4.0,5.418
-6.0,-8.0,5.419
-34.0,-6.0,5.42
-69.0,0.0,5.421
-94.0,0.0,5.422
-82.0,-9.0,5.423
-31.0,-16.0,5.424
26.0,-23.0,5.425
57.0,-36.0,5.426
48.0,-50.0,5.427
14.0,-48.0,5.428
-22.0,-27.0,5.429
-34.0,5.0,5.43
-14.0,38.0,5.431
19.0,56.0,5.432
30.0,53.0,5.433
8.0,33.0,5.434
-26.0,14.0,5.435
-42.0,11.0,5.436
-39.0,19.0,5.437
-30.0,16.0,5.438
-21.0,2.0,5.439
-13.0,-9.0,5.44
-7.0,-12.0,5.441
-7.0,-11.0,5.442
-3.0,-13.0,5.443
4.0,-16.0,5.444
4.0,-13.0,5.445
-7.0,-12.0,5.446
-8.0,-15.0,5.447
14.0,-14.0,5.448
41.0,-10.0,5.449
47.0,-7.0,5.45
38.0,-11.0,5.451
40.0,-16.0,5.452
46.0,-17.0,5.453
31.0,-6.0,5.454
-4.0,16.0,5.455
-21.0,43.0,5.456
4.0,59.0,5.457
42.0,48.0,5.458
53.0,20.0,5.459
32.0,-5.0,5.46
11.0,-20.0,5.461
1.0,-24.0,5.462
-12.0,-24.0,5.463
-32.0,-16.0,5.464
-40.0,-4.0,5.465
-22.0,5.0,5.466
-4.0,3.0,5.467
-12.0,2.0,5.468
-37.0,5.0,5.469
-43.0,1.0,5.47
-28.0,-11.0,5.471
-12.0,-18.0,5.472
-11.0,-6.0,5.473
-3.0,11.0,5.474
26.0,14.0,5.475
65.0,1.0,5.476
85.0,-6.0,5.477
74.0,-3.0,5.478
55.0,-2.0,5.479
47.0,-7.0,5.48
41.0,-16.0,5.481
20.0,-17.0,5.482
-7.0,-12.0,5.483
-20.0,0.0,5.484
-25.0,13.0,5.485
-41.0,19.0,5.486
-61.0,14.0,5.487
-51.0,2.0,5.488
-16.0,-5.0,5.489
11.0,-8.0,5.49
3.0,-11.0,5.491
-20.0,-13.0,5.492
-26.0,-3.0,5.493
-6.0,15.0,5.494
21.0,26.0,5.495
35.0,26.0,5.496
27.0,23.0,5.497
-5.0,11.0,5.498
-45.0,-6.0,5.499
-69.0,-19.0,5.5
-60.0,-12.0,5.501
-22.0,8.0,5.502
19.0,10.0,5.503
45.0,-9.0,5.504
53.0,-28.0,5.505
55.0,-28.0,5.506
54.0,-22.0,5.507
44.0,-21.0,5.508
26.0,-19.0,5.509
14.0,-10.0,5.51
16.0,-5.0,5.511
26.0,-3.0,5.512
29.0,2.0,5.513
6.0,14.0,5.514
-40.0,20.0,5.515
-82.0,13.0,5.516
-88.0,6.0,5.517
-49.0,7.0,5.518
5.0,20.0,5.519
25.0,33.0,5.52
3.0,29.0,5.521
-34.0,14.0,5.522
-60.0,0.0,5.523
-59.0,-4.0,5.524
-23.0,2.0,5.525
44.0,5.0,5.526
105.0,1.0,5.527
111.0,-3.0,5.528
58.0,-3.0,5.529
2.0,-6.0,5.53
-5.0,-13.0,5.531
40.0,-16.0,5.532
90.0,-10.0,5.533
91.0,-2.0,5.534
29.0,2.0,5.535
-50.0,1.0,5.536
-82.0,3.0,5.537
-53.0,4.0,5.538
-19.0,3.0,5.539
-25.0,1.0,5.54
-45.0,-2.0,5.541
-31.0,-8.0,5.542
6.0,-17.0,5.543
18.0,-20.0,5.544
-2.0,-13.0,5.545
-15.0,-4.0,5.546
-7.0,-6.0,5.547
-3.0,-14.0,5.548
-6.0,-19.0,5.549
0.0,-18.0,5.55
14.0,-16.0,5.551
16.0,-11.0,5.552
9.0,0.0,5.553
15.0,14.0,5.554
32.0,24.0,5.555
40.0,22.0,5.556
36.0,15.0,5.557
27.0,4.0,5.558
9.0,-7.0,5.559
-25.0,-10.0,5.56
-52.0,-7.0,5.561
-46.0,2.0,5.562
-21.0,8.0,5.563
-9.0,7.0,5.564
-14.0,4.0,5.565
-13.0,4.0,5.566
4.0,1.0,5.567
27.0,-10.0,5.568
45.0,-22.0,5.569
50.0,-20.0,5.57
26.0,-7.0,5.571
-30.0,0.0,5.572
-89.0,3.0,5.573
-109.0,7.0,5.574
-66.0,22.0,5.575
24.0,37.0,5.576
109.0,44.0,5.577
138.0,34.0,5.578
94.0,17.0,5.579
22.0,2.0,5.58
-16.0,-5.0,5.581
-14.0,-3.0,5.582
-8.0,-4.0,5.583
-7.0,-10.0,5.584
13.0,-19.0,5.585
56.0,-27.0,5.586
85.0,-36.0,5.587
61.0,-43.0,5.588
0.0,-41.0,5.589
-54.0,-27.0,5.59
-77.0,-12.0,5.591
-82.0,1.0,5.592
-83.0,22.0,5.593
-63.0,36.0,5.594
-8.0,29.0,5.595
44.0,10.0,5.596
44.0,14.0,5.597
2.0,42.0,5.598
-17.0,50.0,5.599
7.0,22.0,5.6
29.0,-13.0,5.601
22.0,-19.0,5.602
17.0,-12.0,5.603
20.0,-20.0,5.604
0.0,-31.0,5.605
-53.0,-22.0,5.606
-79.0,-5.0,5.607
-40.0,-2.0,5.608
25.0,-10.0,5.609
58.0,-12.0,5.61
49.0,-10.0,5.611
32.0,-8.0,5.612
36.0,-4.0,5.613
63.0,6.0,5.614
82.0,15.0,5.615
54.0,20.0,5.616
-4.0,26.0,5.617
-33.0,29.0,5.618
-6.0,19.0,5.619
23.0,-3.0,5.62
21.0,-17.0,5.621
36.0,-11.0,5.622
93.0,-3.0,5.623
108.0,-2.0,5.624
3.0,-4.0,5.625
-141.0,-4.0,5.626
-186.0,-4.0,5.627
-129.0,-4.0,5.628
-85.0,-2.0,5.629
-106.0,0.0,5.63
-126.0,-5.0,5.631
-80.0,-11.0,5.632
10.0,-8.0,5.633
81.0,-4.0,5.634
97.0,-7.0,5.635
76.0,-9.0,5.636
59.0,-7.0,5.637
66.0,-2.0,5.638
74.0,-3.0,5.639
47.0,-6.0,5.64
2.0,-6.0,5.641
-9.0,-3.0,5.642
17.0,-4.0,5.643
34.0,-7.0,5.644
18.0,-5.0,5.645
-1.0,5.0,5.646
3.0,6.0,5.647
11.0,-5.0,5.648
5.0,-18.0,5.649
-3.0,-18.0,5.65
4.0,-11.0,5.651
17.0,-7.0,5.652
25.0,-8.0,5.653
26.0,-7.0,5.654
24.0,2.0,5.655
15.0,20.0,5.656
3.0,38.0,5.657
-11.0,43.0,5.658
-27.0,30.0,5.659
-48.0,9.0,5.66
-59.0,0.0,5.661
-48.0,11.0,5.662
-21.0,23.0,5.663
0.0,16.0,5.664
7.0,4.0,5.665
6.0,3.0,5.666
10.0,11.0,5.667
19.0,10.0,5.668
32.0,-4.0,5.669
47.0,-24.0,5.67
54.0,-37.0,5.671
55.0,-35.0,5.672
43.0,-22.0,5.673
4.0,-10.0,5.674
-66.0,-3.0,5.675
-138.0,-2.0,5.676
-155.0,5.0,5.677
-98.0,16.0,5.678
-9.0,28.0,5.679
45.0,31.0,5.68
53.0,20.0,5.681
58.0,4.0,5.682
79.0,-12.0,5.683
89.0,-27.0,5.684
63.0,-32.0,5.685
15.0,-27.0,5.686
-20.0,-15.0,5.687
-21.0,-5.0,5.688
6.0,-1.0,5.689
35.0,-6.0,5.69
33.0,-18.0,5.691
-5.0,-20.0,5.692
-51.0,-2.0,5.693
-64.0,27.0,5.694
-34.0,46.0,5.695
6.0,47.0,5.696
23.0,37.0,5.697
9.0,22.0,5.698
-16.0,11.0,5.699
-27.0,0.0,5.7
-21.0,-8.0,5.701
-15.0,-15.0,5.702
-8.0,-21.0,5.703
8.0,-24.0,5.704
34.0,-14.0,5.705
46.0,-6.0,5.706
38.0,-8.0,5.707
30.0,-11.0,5.708
26.0,-11.0,5.709
-2.0,-10.0,5.71
-51.0,-8.0,5.711
-66.0,-6.0,5.712
-12.0,-4.0,5.713
69.0,-5.0,5.714
102.0,-16.0,5.715
72.0,-25.0,5.716
31.0,-26.0,5.717
16.0,-23.0,5.718
20.0,-6.0,5.719
14.0,11.0,5.72
-21.0,23.0,5.721
-48.0,37.0,5.722
-46.0,46.0,5.723
-40.0,42.0,5.724
-21.0,27.0,5.725
-11.0,10.0,5.726
-34.0,-2.0,5.727
-41.0,-10.0,5.728
3.0,-17.0,5.729
34.0,-18.0,5.73
24.0,-15.0,5.731
19.0,-15.0,5.732
27.0,-18.0,5.733
32.0,-16.0,5.734
27.0,-9.0,5.735
17.0,-1.0,5.736
-8.0,8.0,5.737
-24.0,21.0,5.738
-5.0,36.0,5.739
4.0,40.0,5.74
1.0,31.0,5.741
11.0,16.0,5.742
38.0,3.0,5.743
45.0,-7.0,5.744
9.0,-15.0,5.745
-40.0,-17.0,5.746
-66.0,-12.0,5.747
-71.0,-3.0,5.748
-76.0,5.0,5.749
-71.0,3.0,5.75
-34.0,-10.0,5.751
8.0,-21.0,5.752
8.0,-14.0,5.753
-11.0,1.0,5.754
13.0,7.0,5.755
82.0,1.0,5.756
113.0,0.0,5.757
60.0,4.0,5.758
-11.0,6.0,5.759
-21.0,-1.0,5.76
25.0,-9.0,5.761
61.0,-11.0,5.762
68.0,-12.0,5.763
65.0,-16.0,5.764
56.0,-16.0,5.765
20.0,-13.0,5.766
-35.0,-14.0,5.767
-72.0,-17.0,5.768
-66.0,-11.0,5.769
-31.0,2.0,5.77
3.0,4.0,5.771
17.0,-5.0,5.772
7.0,-9.0,5.773
-13.0,1.0,5.774
-23.0,17.0,5.775
-19.0,22.0,5.776
-7.0,20.0,5.777
1.0,12.0,5.778
2.0,2.0,5.779
-4.0,-13.0,5.78
-7.0,-24.0,5.781
-9.0,-11.0,5.782
-3.0,11.0,5.783
12.0,19.0,5.784
33.0,5.0,5.785
44.0,-12.0,5.786
20.0,-16.0,5.787
-40.0,-11.0,5.788
-101.0,-12.0,5.789
-111.0,-15.0,5.79
-48.0,-9.0,5.791
54.0,2.0,5.792
134.0,12.0,5.793
152.0,17.0,5.794
116.0,25.0,5.795
61.0,37.0,5.796
11.0,45.0,5.797
-34.0,33.0,5.798
-61.0,4.0,5.799
-58.0,-18.0,5.8
-43.0,-23.0,5.801
-48.0,-4.0,5.802
-66.0,23.0,5.803
-52.0,41.0,5.804
-3.0,44.0,5.805
48.0,35.0,5.806
85.0,15.0,5.807
104.0,-15.0,5.808
72.0,-40.0,5.809
-16.0,-48.0,5.81
-71.0,-39.0,5.811
-4.0,-24.0,5.812
119.0,-9.0,5.813
149.0,4.0,5.814
58.0,9.0,5.815
-45.0,2.0,5.816
-87.0,-5.0,5.817
-96.0,-1.0,5.818
-93.0,7.0,5.819
-56.0,2.0,5.82
-7.0,-20.0,5.821
-9.0,-30.0,5.822
-56.0,-20.0,5.823
-58.0,-6.0,5.824
11.0,2.0,5.825
74.0,7.0,5.826
66.0,8.0,5.827
30.0,-4.0,5.828
30.0,-20.0,5.829
43.0,-22.0,5.83
18.0,-11.0,5.831
-32.0,-1.0,5.832
-38.0,8.0,5.833
7.0,20.0,5.834
41.0,25.0,5.835
3.0,16.0,5.836
-84.0,4.0,5.837
-181.0,-1.0,5.838
-223.0,0.0,5.839
-181.0,-4.0,5.84
-73.0,-15.0,5.841
39.0,-16.0,5.842
101.0,-14.0,5.843
114.0,-27.0,5.844
118.0,-45.0,5.845
136.0,-46.0,5.846
163.0,-24.0,5.847
188.0,4.0,5.848
193.0,31.0,5.849
148.0,45.0,5.85
44.0,49.0,5.851
-67.0,42.0,5.852
-120.0,28.0,5.853
-97.0,16.0,5.854
-41.0,6.0,5.855
-1.0,-3.0,5.856
5.0,-10.0,5.857
-9.0,-15.0,5.858
-16.0,-19.0,5.859
-2.0,-22.0,5.86
8.0,-20.0,5.861
4.0,-19.0,5.862
17.0,-19.0,5.863
65.0,-16.0,5.864
93.0,0.0,5.865
48.0,22.0,5.866
-45.0,64.0,5.867
-118.0,84.0,5.868
-149.0,38.0,5.869
-148.0,3.0,5.87
-100.0,2.0,5.871
-6.0,1.0,5.872
69.0,4.0,5.873
62.0,6.0,5.874
-2.0,2.0,5.875
-37.0,-4.0,5.876
-12.0,-12.0,5.877
32.0,-21.0,5.878
53.0,-27.0,5.879
54.0,-26.0,5.88
65.0,-36.0,5.881
99.0,-50.0,5.882
132.0,-49.0,5.883
110.0,-31.0,5.884
-5.0,-15.0,5.885
-170.0,-2.0,5.886
-263.0,15.0,5.887
-212.0,33.0,5.888
-81.0,37.0,5.889
9.0,26.0,5.89
22.0,10.0,5.891
18.0,-8.0,5.892
33.0,-27.0,5.893
44.0,-27.0,5.894
34.0,6.0,5.895
24.0,48.0,5.896
26.0,61.0,5.897
4.0,38.0,5.898
-48.0,14.0,5.899
-82.0,5.0,5.9
-42.0,-6.0,5.901
64.0,-21.0,5.902
169.0,-25.0,5.903
213.0,-13.0,5.904
179.0,-3.0,5.905
82.0,-6.0,5.906
-41.0,-14.0,5.907
-137.0,-20.0,5.908
-161.0,-23.0,5.909
-111.0,-19.0,5.91
-35.0,-3.0,5.911
16.0,5.0,5.912
33.0,-9.0,5.913
36.0,-30.0,5.914
40.0,-22.0,5.915
45.0,10.0,5.916
57.0,35.0,5.917
84.0,31.0,5.918
109.0,18.0,5.919
97.0,14.0,5.92
37.0,16.0,5.921
-24.0,7.0,5.922
-40.0,-7.0,5.923
-17.0,-12.0,5.924
16.0,0.0,5.925
55.0,14.0,5.926
107.0,13.0,5.927
119.0,-1.0,5.928
25.0,-15.0,5.929
-129.0,-19.0,5.93
-203.0,-15.0,5.931
-135.0,-10.0,5.932
-19.0,-5.0,5.933
11.0,1.0,5.934
-62.0,6.0,5.935
-139.0,7.0,5.936
-131.0,4.0,5.937
-41.0,-1.0,5.938
47.0,-4.0,5.939
46.0,-7.0,5.94
-30.0,-21.0,5.941
-71.0,-37.0,5.942
-16.0,-41.0,5.943
65.0,-21.0,5.944
60.0,11.0,5.945
-24.0,35.0,5.946
-79.0,39.0,5.947
-49.0,33.0,5.948
10.0,20.0,5.949
40.0,4.0,5.95
52.0,-3.0,5.951
82.0,4.0,5.952
118.0,16.0,5.953
124.0,15.0,5.954
94.0,-3.0,5.955
51.0,-22.0,5.956
22.0,-35.0,5.957
18.0,-47.0,5.958
55.0,-48.0,5.959
110.0,-30.0,5.96
121.0,0.0,5.961
38.0,25.0,5.962
-106.0,34.0,5.963
-226.0,33.0,5.964
-240.0,21.0,5.965
-144.0,0.0,5.966
-29.0,-14.0,5.967
11.0,0.0,5.968
-22.0,29.0,5.969
-41.0,34.0,5.97
-21.0,5.0,5.971
-17.0,-18.0,5.972
-32.0,-19.0,5.973
13.0,-17.0,5.974
127.0,-25.0,5.975
187.0,-20.0,5.976
132.0,9.0,5.977
43.0,42.0,5.978
13.0,49.0,5.979
-2.0,37.0,5.98
-59.0,29.0,5.981
-85.0,27.0,5.982
-1.0,18.0,5.983
124.0,-5.0,5.984
162.0,-31.0,5.985
86.0,-44.0,5.986
-56.0,-34.0,5.987
-199.0,-4.0,5.988
-263.0,22.0,5.989
-179.0,22.0,5.99
-5.0,9.0,5.991
117.0,3.0,5.992
133.0,4.0,5.993
98.0,5.0,5.994
23.0,4.0,5.995
-117.0,9.0,5.996
-228.0,12.0,5.997
-157.0,-1.0,5.998
91.0,-19.0,5.999
282.0,-33.0,6.0
244.0,-27.0,6.001
106.0,-23.0,6.002
90.0,-24.0,6.003
184.0,-21.0,6.004
193.0,-7.0,6.005
56.0,2.0,6.006
-94.0,-3.0,6.007
-161.0,-9.0,6.008
-186.0,-17.0,6.009
-192.0,-16.0,6.01
-122.0,9.0,6.011
3.0,26.0,6.012
53.0,12.0,6.013
-18.0,2.0,6.014
-78.0,4.0,6.015
-26.0,7.0,6.016
48.0,10.0,6.017
20.0,7.0,6.018
-84.0,-18.0,6.019
-132.0,-29.0,6.02
-73.0,-20.0,6.021
17.0,-5.0,6.022
75.0,1.0,6.023
101.0,-4.0,6.024
103.0,-9.0,6.025
81.0,-13.0,6.026
63.0,-9.0,6.027
67.0,3.0,6.028
73.0,13.0,6.029
43.0,9.0,6.03
-12.0,-11.0,6.031
-55.0,-23.0,6.032
-66.0,-8.0,6.033
-47.0,27.0,6.034
-10.0,52.0,6.035
28.0,39.0,6.036
63.0,9.0,6.037
113.0,-9.0,6.038
167.0,-2.0,6.039
163.0,9.0,6.04
59.0,4.0,6.041
-99.0,4.0,6.042
-205.0,19.0,6.043
-198.0,33.0,6.044
-98.0,26.0,6.045
15.0,2.0,6.046
69.0,-11.0,6.047
42.0,-12.0,6.048
-8.0,-10.0,6.049
-20.0,-14.0,6.05
-17.0,-22.0,6.051
-72.0,-28.0,6.052
-162.0,-27.0,6.053
-170.0,-20.0,6.054
-62.0,-17.0,6.055
33.0,-12.0,6.056
10.0,0.0,6.057
-82.0,20.0,6.058
-96.0,32.0,6.059
-8.0,33.0,6.06
69.0,31.0,6.061
68.0,31.0,6.062
59.0,15.0,6.063
103.0,-13.0,6.064
143.0,-32.0,6.065
99.0,-25.0,6.066
2.0,-4.0,6.067
-53.0,10.0,6.068
-44.0,12.0,6.069
-36.0,4.0,6.07
-42.0,-9.0,6.071
-8.0,-20.0,6.072
92.0,-25.0,6.073
188.0,-27.0,6.074
209.0,-32.0,6.075
172.0,-34.0,6.076
126.0,-31.0,6.077
60.0,-30.0,6.078
-26.0,-26.0,6.079
-91.0,-12.0,6.08
-76.0,3.0,6.081
-5.0,12.0,6.082
39.0,10.0,6.083
28.0,18.0,6.084
-3.0,45.0,6.085
-53.0,68.0,6.086
-144.0,62.0,6.087
-223.0,30.0,6.088
-185.0,0.0,6.089
-36.0,-9.0,6.09
78.0,-9.0,6.091
68.0,-8.0,6.092
20.0,-9.0,6.093
32.0,-10.0,6.094
79.0,-14.0,6.095
96.0,-12.0,6.096
122.0,0.0,6.097
212.0,21.0,6.098
294.0,35.0,6.099
201.0,28.0,6.1
-96.0,2.0,6.101
-438.0,-16.0,6.102
-606.0,-17.0,6.103
-504.0,-12.0,6.104
-201.0,-17.0,6.105
111.0,-34.0,6.106
247.0,-50.0,6.107
176.0,-53.0,6.108
41.0,-31.0,6.109
-10.0,10.0,6.11
22.0,46.0,6.111
69.0,53.0,6.112
123.0,37.0,6.113
187.0,23.0,6.114
171.0,18.0,6.115
14.0,6.0,6.116
-158.0,-12.0,6.117
-192.0,-26.0,6.118
-76.0,-14.0,6.119
34.0,15.0,6.12
50.0,36.0,6.121
33.0,35.0,6.122
51.0,17.0,6.123
85.0,1.0,6.124
100.0,1.0,6.125
96.0,9.0,6.126
68.0,-1.0,6.127
18.0,-25.0,6.128
-25.0,-39.0,6.129
-53.0,-31.0,6.13
-93.0,-17.0,6.131
-144.0,-16.0,6.132
-148.0,-19.0,6.133
-79.0,-18.0,6.134
6.0,-15.0,6.135
61.0,-11.0,6.136
93.0,-2.0,6.137
101.0,5.0,6.138
67.0,1.0,6.139
17.0,-12.0,6.14
12.0,-15.0,6.141
42.0,4.0,6.142
33.0,29.0,6.143
-15.0,32.0,6.144
-30.0,13.0,6.145
4.0,-1.0,6.146
28.0,1.0,6.147
17.0,7.0,6.148
23.0,-3.0,6.149
61.0,-20.0,6.15
99.0,-25.0,6.151
119.0,-11.0,6.152
108.0,3.0,6.153
18.0,2.0,6.154
-154.0,-5.0,6.155
-276.0,-4.0,6.156
-217.0,7.0,6.157
-16.0,18.0,6.158
134.0,30.0,6.159
124.0,34.0,6.16
40.0,14.0,6.161
-4.0,-9.0,6.162
3.0,-42.0,6.163
2.0,-57.0,6.164
-44.0,-14.0,6.165
-120.0,22.0,6.166
-161.0,38.0,6.167
-107.0,40.0,6.168
0.0,1.0,6.169
47.0,-25.0,6.17
4.0,-10.0,6.171
-32.0,7.0,6.172
6.0,28.0,6.173
51.0,37.0,6.174
22.0,7.0,6.175
-46.0,-16.0,6.176
-71.0,-21.0,6.177
-31.0,-21.0,6.178
51.0,0.0,6.179
157.0,29.0,6.18
243.0,42.0,6.181
237.0,24.0,6.182
94.0,-15.0,6.183
-135.0,-37.0,6.184
-328.0,-29.0,6.185
-360.0,-10.0,6.186
-189.0,-3.0,6.187
92.0,-3.0,6.188
290.0,-3.0,6.189
264.0,-8.0,6.19
59.0,-16.0,6.191
-144.0,-16.0,6.192
-196.0,-5.0,6.193
-108.0,5.0,6.194
22.0,7.0,6.195
140.0,9.0,6.196
228.0,10.0,6.197
258.0,-3.0,6.198
184.0,-23.0,6.199
46.0,-37.0,6.2
-48.0,-29.0,6.201
-42.0,-21.0,6.202
27.0,-15.0,6.203
97.0,-11.0,6.204
116.0,-10.0,6.205
71.0,-10.0,6.206
-15.0,-18.0,6.207
-94.0,-17.0,6.208
-151.0,9.0,6.209
-193.0,30.0,6.21
-168.0,32.0,6.211
-23.0,30.0,6.212
148.0,14.0,6.213
162.0,2.0,6.214
-10.0,7.0,6.215
-186.0,9.0,6.216
-212.0,-4.0,6.217
-141.0,-19.0,6.218
-90.0,-25.0,6.219
-46.0,8.0,6.22
-26.0,52.0,6.221
9.0,65.0,6.222
89.0,31.0,6.223
126.0,-10.0,6.224
34.0,-23.0,6.225
-38.0,-8.0,6.226
-50.0,9.0,6.227
-53.0,11.0,6.228
-30.0,2.0,6.229
-30.0,-4.0,6.23
-103.0,-4.0,6.231
-142.0,-4.0,6.232
-72.0,-5.0,6.233
-7.0,-7.0,6.234
42.0,-6.0,6.235
104.0,-7.0,6.236
202.0,-6.0,6.237
272.0,2.0,6.238
200.0,17.0,6.239
90.0,28.0,6.24
19.0,17.0,6.241
-15.0,-5.0,6.242
-31.0,-26.0,6.243
-43.0,-38.0,6.244
-72.0,-41.0,6.245
-109.0,-37.0,6.246
-91.0,-25.0,6.247
12.0,-6.0,6.248
109.0,9.0,6.249
107.0,19.0,6.25
36.0,23.0,6.251
-3.0,28.0,6.252
2.0,30.0,6.253
14.0,24.0,6.254
23.0,6.0,6.255
39.0,-9.0,6.256
38.0,-17.0,6.257
3.0,-26.0,6.258
-28.0,-36.0,6.259
-34.0,-43.0,6.26
-35.0,-35.0,6.261
-13.0,-7.0,6.262
90.0,22.0,6.263
244.0,38.0,6.264
308.0,40.0,6.265
190.0,31.0,6.266
-55.0,13.0,6.267
-303.0,-3.0,6.268
-446.0,-7.0,6.269
-410.0,-5.0,6.27
-225.0,0.0,6.271
-28.0,7.0,6.272
83.0,17.0,6.273
138.0,22.0,6.274
163.0,5.0,6.275
84.0,-24.0,6.276
-88.0,-42.0,6.277
-195.0,-45.0,6.278
-81.0,-33.0,6.279
121.0,-18.0,6.28
142.0,2.0,6.281
-19.0,17.0,6.282
-97.0,18.0,6.283
40.0,17.0,6.284
217.0,10.0,6.285
233.0,5.0,6.286
122.0,9.0,6.287
25.0,10.0,6.288
-40.0,0.0,6.289
-130.0,-12.0,6.29
-209.0,-31.0,6.291
-196.0,-40.0,6.292
-104.0,-15.0,6.293
-12.0,11.0,6.294
68.0,41.0,6.295
169.0,57.0,6.296
245.0,27.0,6.297
223.0,-5.0,6.298
105.0,-26.0,6.299
-28.0,-13.0,6.3
-104.0,8.0,6.301
-103.0,20.0,6.302
-16.0,19.0,6.303
121.0,17.0,6.304
200.0,12.0,6.305
145.0,-2.0,6.306
17.0,-17.0,6.307
-50.0,-17.0,6.308
4.0,-8.0,6.309
139.0,-8.0,6.31
237.0,-25.0,6.311
141.0,-39.0,6.312
-187.0,-29.0,6.313
-530.0,-5.0,6.314
-567.0,8.0,6.315
-285.0,-10.0,6.316
-28.0,-36.0,6.317
-18.0,-33.0,6.318
-128.0,11.0,6.319
-103.0,52.0,6.32
59.0,50.0,6.321
158.0,21.0,6.322
131.0,1.0,6.323
78.0,5.0,6.324
61.0,10.0,6.325
46.0,8.0,6.326
23.0,6.0,6.327
20.0,7.0,6.328
39.0,1.0,6.329
31.0,-14.0,6.33
-33.0,-37.0,6.331
-102.0,-52.0,6.332
-104.0,-49.0,6.333
-35.0,-21.0,6.334
19.0,21.0,6.335
19.0,55.0,6.336
53.0,59.0,6.337
180.0,31.0,6.338
289.0,3.0,6.339
342.0,4.0,6.34
221.0,16.0,6.341
120.0,14.0,6.342
80.0,-6.0,6.343
14.0,-18.0,6.344
-124.0,-11.0,6.345
-196.0,-3.0,6.346
-66.0,-4.0,6.347
37.0,-8.0,6.348
59.0,-2.0,6.349
97.0,0.0,6.35
182.0,-19.0,6.351
205.0,-50.0,6.352
41.0,-66.0,6.353
-115.0,-55.0,6.354
-247.0,-15.0,6.355
-321.0,33.0,6.356
-223.0,64.0,6.357
-144.0,61.0,6.358
-211.0,33.0,6.359
-383.0,16.0,6.36
-437.0,23.0,6.361
-270.0,36.0,6.362
-13.0,30.0,6.363
135.0,8.0,6.364
161.0,-4.0,6.365
157.0,-5.0,6.366
156.0,-8.0,6.367
137.0,-15.0,6.368
132.0,-9.0,6.369
185.0,3.0,6.37
278.0,-3.0,6.371
330.0,-34.0,6.372
287.0,-57.0,6.373
145.0,-48.0,6.374
-29.0,-14.0,6.375
-133.0,20.0,6.376
-139.0,45.0,6.377
-138.0,52.0,6.378
-209.0,37.0,6.379
-271.0,5.0,6.38
-230.0,-21.0,6.381
-127.0,-26.0,6.382
-52.0,-20.0,6.383
5.0,-21.0,6.384
94.0,-31.0,6.385
171.0,-42.0,6.386
161.0,-44.0,6.387
87.0,-30.0,6.388
42.0,-3.0,6.389
50.0,31.0,6.39
71.0,54.0,6.391
83.0,53.0,6.392
111.0,33.0,6.393
158.0,13.0,6.394
164.0,8.0,6.395
66.0,10.0,6.396
-85.0,9.0,6.397
-163.0,5.0,6.398
-93.0,5.0,6.399
-3.0,6.0,6.4
-59.0,-7.0,6.401
-187.0,-34.0,6.402
-154.0,-52.0,6.403
67.0,-48.0,6.404
211.0,-26.0,6.405
99.0,-5.0,6.406
-144.0,8.0,6.407
-316.0,11.0,6.408
-361.0,9.0,6.409
-288.0,5.0,6.41
-79.0,9.0,6.411
179.0,14.0,6.412
290.0,5.0,6.413
189.0,-17.0,6.414
45.0,-31.0,6.415
5.0,-18.0,6.416
18.0,8.0,6.417
-5.0,22.0,6.418
-36.0,13.0,6.419
-19.0,-6.0,6.42
28.0,-19.0,6.421
93.0,-15.0,6.422
201.0,-5.0,6.423
295.0,3.0,6.424
260.0,10.0,6.425
116.0,22.0,6.426
25.0,36.0,6.427
31.0,41.0,6.428
-2.0,37.0,6.429
-135.0,33.0,6.43
-243.0,27.0,6.431
-225.0,5.0,6.432
-137.0,-28.0,6.433
-39.0,-54.0,6.434
84.0,-55.0,6.435
187.0,-36.0,6.436
152.0,-5.0,6.437
-37.0,40.0,6.438
-195.0,79.0,6.439
-164.0,68.0,6.44
6.0,8.0,6.441
154.0,-35.0,6.442
187.0,-27.0,6.443
90.0,-10.0,6.444
-108.0,-25.0,6.445
-306.0,-41.0,6.446
-366.0,-20.0,6.447
-268.0,-2.0,6.448
-133.0,-31.0,6.449
-55.0,-70.0,6.45
31.0,-52.0,6.451
210.0,10.0,6.452
394.0,46.0,6.453
391.0,44.0,6.454
152.0,41.0,6.455
-132.0,44.0,6.456
-242.0,32.0,6.457
-140.0,2.0,6.458
51.0,-8.0,6.459
160.0,3.0,6.46
125.0,-1.0,6.461
30.0,-31.0,6.462
17.0,-56.0,6.463
105.0,-51.0,6.464
157.0,-34.0,6.465
97.0,-23.0,6.466
48.0,-8.0,6.467
122.0,24.0,6.468
159.0,65.0,6.469
-57.0,86.0,6.47
-409.0,65.0,6.471
-541.0,16.0,6.472
-363.0,-24.0,6.473
-169.0,-27.0,6.474
-162.0,-5.0,6.475
-167.0,9.0,6.476
-4.0,4.0,6.477
164.0,-5.0,6.478
117.0,-5.0,6.479
63.0,6.0,6.48
-13.0,3.0,6.481
-42.0,-8.0,6.482
67.0,-11.0,6.483
185.0,13.0,6.484
326.0,50.0,6.485
403.0,54.0,6.486
289.0,12.0,6.487
145.0,-33.0,6.488
-90.0,-38.0,6.489
-210.0,-18.0,6.49
16.0,-15.0,6.491
181.0,-32.0,6.492
159.0,-40.0,6.493
123.0,-36.0,6.494
49.0,-38.0,6.495
-38.0,-42.0,6.496
-164.0,-20.0,6.497
-264.0,24.0,6.498
-181.0,58.0,6.499
-37.0,49.0,6.5
-58.0,14.0,6.501
-201.0,-11.0,6.502
-226.0,-18.0,6.503
-74.0,-8.0,6.504
84.0,16.0,6.505
167.0,40.0,6.506
226.0,31.0,6.507
233.0,-11.0,6.508
74.0,-49.0,6.509
-181.0,-49.0,6.51
-293.0,-24.0,6.511
-162.0,0.0,6.512
51.0,18.0,6.513
162.0,30.0,6.514
139.0,25.0,6.515
14.0,9.0,6.516
-164.0,2.0,6.517
-334.0,0.0,6.518
-308.0,-10.0,6.519
-118.0,-35.0,6.52
92.0,-50.0,6.521
229.0,-33.0,6.522
281.0,-3.0,6.523
220.0,17.0,6.524
46.0,20.0,6.525
-115.0,12.0,6.526
-122.0,5.0,6.527
-23.0,9.0,6.528
10.0,30.0,6.529
-49.0,54.0,6.53
-59.0,65.0,6.531
40.0,53.0,6.532
148.0,12.0,6.533
182.0,-38.0,6.534
173.0,-65.0,6.535
163.0,-43.0,6.536
161.0,3.0,6.537
188.0,22.0,6.538
239.0,3.0,6.539
206.0,-12.0,6.54
0.0,-17.0,6.541
-252.0,-19.0,6.542
-304.0,-7.0,6.543
-120.0,4.0,6.544
59.0,15.0,6.545
34.0,21.0,6.546
-110.0,11.0,6.547
-177.0,2.0,6.548
-134.0,-6.0,6.549
-119.0,-13.0,6.55
-191.0,-14.0,6.551
-210.0,-15.0,6.552
-68.0,-13.0,6.553
80.0,-4.0,6.554
-12.0,21.0,6.555
-276.0,39.0,6.556
-361.0,30.0,6.557
-91.0,13.0,6.558
269.0,-22.0,6.559
351.0,-33.0,6.56
163.0,-23.0,6.561
13.0,-10.0,6.562
44.0,-5.0,6.563
110.0,-1.0,6.564
78.0,9.0,6.565
8.0,21.0,6.566
-4.0,26.0,6.567
24.0,16.0,6.568
39.0,-14.0,6.569
43.0,-58.0,6.57
47.0,-83.0,6.571
10.0,-61.0,6.572
-80.0,4.0,6.573
-148.0,73.0,6.574
-119.0,91.0,6.575
-26.0,41.0,6.576
60.0,-26.0,6.577
154.0,-61.0,6.578
273.0,-53.0,6.579
321.0,-47.0,6.58
182.0,-45.0,6.581
-38.0,-33.0,6.582
-86.0,11.0,6.583
71.0,40.0,6.584
184.0,26.0,6.585
96.0,20.0,6.586
-41.0,38.0,6.587
-37.0,45.0,6.588
64.0,13.0,6.589
117.0,-15.0,6.59
61.0,-27.0,6.591
-119.0,-36.0,6.592
-403.0,-33.0,6.593
-587.0,-25.0,6.594
-421.0,-6.0,6.595
-7.0,15.0,6.596
228.0,43.0,6.597
83.0,67.0,6.598
-198.0,68.0,6.599
-289.0,40.0,6.6
-180.0,2.0,6.601
-22.0,3.0,6.602
144.0,37.0,6.603
272.0,42.0,6.604
224.0,6.0,6.605
29.0,-21.0,6.606
-42.0,-8.0,6.607
138.0,-1.0,6.608
346.0,-27.0,6.609
359.0,-57.0,6.61
242.0,-56.0,6.611
122.0,-39.0,6.612
-34.0,-30.0,6.613
-220.0,-16.0,6.614
-277.0,13.0,6.615
-146.0,33.0,6.616
10.0,23.0,6.617
63.0,3.0,6.618
33.0,3.0,6.619
-26.0,4.0,6.62
-175.0,13.0,6.621
-231.0,19.0,6.622
-5.0,11.0,6.623
148.0,-3.0,6.624
83.0,-31.0,6.625
-11.0,-53.0,6.626
-191.0,-57.0,6.627
-269.0,-58.0,6.628
-35.0,-47.0,6.629
139.0,-28.0,6.63
136.0,10.0,6.631
90.0,51.0,6.632
-79.0,95.0,6.633
-158.0,122.0,6.634
43.0,99.0,6.635
182.0,62.0,6.636
132.0,-19.0,6.637
48.0,-89.0,6.638
-44.0,-90.0,6.639
14.0,-34.0,6.64
44.0,37.0,6.641
-32.0,89.0,6.642
-89.0,103.0,6.643
-93.0,73.0,6.644
-114.0,19.0,6.645
-81.0,-18.0,6.646
150.0,-21.0,6.647
462.0,-10.0,6.648
523.0,-17.0,6.649
255.0,-34.0,6.65
-54.0,-37.0,6.651
-181.0,-34.0,6.652
-230.0,-45.0,6.653
-316.0,-64.0,6.654
-267.0,-52.0,6.655
105.0,-7.0,6.656
562.0,30.0,6.657
658.0,25.0,6.658
190.0,-1.0,6.659
-422.0,-14.0,6.66
-741.0,-17.0,6.661
-667.0,-20.0,6.662
-405.0,-21.0,6.663
-183.0,-13.0,6.664
-76.0,-16.0,6.665
-10.0,-38.0,6.666
78.0,-55.0,6.667
141.0,-39.0,6.668
107.0,-3.0,6.669
22.0,20.0,6.67
3.0,28.0,6.671
88.0,39.0,6.672
216.0,55.0,6.673
310.0,52.0,6.674
297.0,24.0,6.675
135.0,-9.0,6.676
-68.0,-31.0,6.677
-147.0,-43.0,6.678
-37.0,-44.0,6.679
80.0,-40.0,6.68
41.0,-19.0,6.681
-55.0,-2.0,6.682
-32.0,3.0,6.683
67.0,3.0,6.684
80.0,-15.0,6.685
10.0,-29.0,6.686
7.0,-24.0,6.687
105.0,-20.0,6.688
184.0,-22.0,6.689
156.0,-6.0,6.69
50.0,63.0,6.691
-63.0,120.0,6.692
-137.0,138.0,6.693
-137.0,142.0,6.694
-73.0,102.0,6.695
-40.0,62.0,6.696
-101.0,23.0,6.697
-189.0,-11.0,6.698
-204.0,-17.0,6.699
-194.0,-12.0,6.7
-107.0,-32.0,6.701
8.0,-70.0,6.702
208.0,-97.0,6.703
335.0,-108.0,6.704
240.0,-124.0,6.705
128.0,-148.0,6.706
-37.0,-147.0,6.707
-179.0,-84.0,6.708
-249.0,32.0,6.709
-291.0,143.0,6.71
-246.0,175.0,6.711
-162.0,113.0,6.712
35.0,26.0,6.713
180.0,5.0,6.714
164.0,47.0,6.715
137.0,73.0,6.716
83.0,47.0,6.717
36.0,2.0,6.718
53.0,-11.0,6.719
128.0,-7.0,6.72
152.0,-20.0,6.721
94.0,-42.0,6.722
39.0,-62.0,6.723
31.0,-70.0,6.724
35.0,-59.0,6.725
58.0,-30.0,6.726
93.0,-7.0,6.727
25.0,-12.0,6.728
-167.0,-22.0,6.729
-217.0,4.0,6.73
78.0,60.0,6.731
412.0,86.0,6.732
300.0,58.0,6.733
-195.0,14.0,6.734
-509.0,-5.0,6.735
-369.0,-8.0,6.736
-105.0,-15.0,6.737
-29.0,-26.0,6.738
-80.0,-24.0,6.739
-31.0,-13.0,6.74
138.0,-13.0,6.741
300.0,-20.0,6.742
381.0,-17.0,6.743
304.0,0.0,6.744
33.0,18.0,6.745
-240.0,29.0,6.746
-230.0,30.0,6.747
-19.0,24.0,6.748
-24.0,12.0,6.749
-346.0,1.0,6.75
-528.0,-7.0,6.751
-234.0,-15.0,6.752
210.0,-19.0,6.753
313.0,-13.0,6.754
131.0,-9.0,6.755
65.0,-27.0,6.756
181.0,-50.0,6.757
212.0,-42.0,6.758
57.0,0.0,6.759
-69.0,33.0,6.76
-24.0,45.0,6.761
62.0,57.0,6.762
43.0,71.0,6.763
-64.0,75.0,6.764
-181.0,49.0,6.765
-226.0,18.0,6.766
-128.0,-26.0,6.767
51.0,-59.0,6.768
122.0,-57.0,6.769
36.0,-56.0,6.77
-10.0,-56.0,6.771
101.0,-44.0,6.772
214.0,5.0,6.773
205.0,40.0,6.774
165.0,23.0,6.775
127.0,11.0,6.776
-36.0,17.0,6.777
-308.0,23.0,6.778
-347.0,6.0,6.779
-2.0,-29.0,6.78
349.0,-51.0,6.781
308.0,-43.0,6.782
2.0,-23.0,6.783
-168.0,-10.0,6.784
-103.0,-4.0,6.785
2.0,-5.0,6.786
27.0,-11.0,6.787
20.0,-20.0,6.788
43.0,-29.0,6.789
93.0,-32.0,6.79
99.0,-15.0,6.791
-23.0,13.0,6.792
-228.0,33.0,6.793
-297.0,35.0,6.794
-127.0,35.0,6.795
31.0,41.0,6.796
-82.0,44.0,6.797
-380.0,33.0,6.798
-492.0,21.0,6.799
-295.0,15.0,6.8
-9.0,5.0,6.801
202.0,-11.0,6.802
375.0,-25.0,6.803
485.0,-27.0,6.804
392.0,-23.0,6.805
140.0,-17.0,6.806
-13.0,-13.0,6.807
54.0,-14.0,6.808
170.0,-18.0,6.809
141.0,-19.0,6.81
9.0,-11.0,6.811
-62.0,-3.0,6.812
-16.0,-10.0,6.813
65.0,-40.0,6.814
86.0,-76.0,6.815
8.0,-92.0,6.816
-139.0,-69.0,6.817
-300.0,2.0,6.818
-358.0,107.0,6.819
-245.0,194.0,6.82
-42.0,199.0,6.821
92.0,122.0,6.822
101.0,30.0,6.823
64.0,-9.0,6.824
48.0,-7.0,6.825
39.0,-13.0,6.826
42.0,-32.0,6.827
85.0,-30.0,6.828
120.0,-16.0,6.829
60.0,-19.0,6.83
-26.0,-33.0,6.831
19.0,-18.0,6.832
172.0,19.0,6.833
225.0,35.0,6.834
137.0,23.0,6.835
88.0,20.0,6.836
104.0,38.0,6.837
-15.0,48.0,6.838
-290.0,32.0,6.839
-409.0,0.0,6.84
-201.0,-39.0,6.841
30.0,-81.0,6.842
0.0,-113.0,6.843
-111.0,-104.0,6.844
-22.0,-55.0,6.845
153.0,-10.0,6.846
160.0,-8.0,6.847
59.0,-40.0,6.848
24.0,-73.0,6.849
-34.0,-89.0,6.85
-236.0,-84.0,6.851
-374.0,-61.0,6.852
-213.0,-26.0,6.853
83.0,15.0,6.854
200.0,59.0,6.855
138.0,90.0,6.856
101.0,93.0,6.857
105.0,63.0,6.858
63.0,38.0,6.859
31.0,43.0,6.86
92.0,57.0,6.861
120.0,44.0,6.862
-3.0,14.0,6.863
-130.0,12.0,6.864
-93.0,40.0,6.865
-27.0,52.0,6.866
-127.0,22.0,6.867
-260.0,-7.0,6.868
-173.0,5.0,6.869
74.0,48.0,6.87
224.0,68.0,6.871
251.0,32.0,6.872
300.0,-33.0,6.873
326.0,-68.0,6.874
163.0,-53.0,6.875
-86.0,-29.0,6.876
-119.0,-43.0,6.877
107.0,-97.0,6.878
248.0,-130.0,6.879
51.0,-97.0,6.88
-250.0,-19.0,6.881
-286.0,59.0,6.882
-94.0,94.0,6.883
-11.0,79.0,6.884
-133.0,31.0,6.885
-199.0,-7.0,6.886
-48.0,-16.0,6.887
110.0,-10.0,6.888
53.0,-18.0,6.889
-110.0,-37.0,6.89
-125.0,-51.0,6.891
1.0,-58.0,6.892
52.0,-62.0,6.893
-25.0,-60.0,6.894
-56.0,-43.0,6.895
67.0,-17.0,6.896
221.0,1.0,6.897
264.0,4.0,6.898
159.0,2.0,6.899
-66.0,5.0,6.9
-338.0,24.0,6.901
-484.0,62.0,6.902
-343.0,94.0,6.903
-12.0,96.0,6.904
199.0,67.0,6.905
170.0,35.0,6.906
95.0,12.0,6.907
137.0,-11.0,6.908
187.0,-37.0,6.909
97.0,-50.0,6.91
-47.0,-44.0,6.911
-78.0,-41.0,6.912
14.0,-36.0,6.913
117.0,1.0,6.914
154.0,74.0,6.915
120.0,116.0,6.916
77.0,81.0,6.917
76.0,-2.0,6.918
80.0,-36.0,6.919
32.0,20.0,6.92
-172.0,86.0,6.921
-280.0,87.0,6.922
-95.0,26.0,6.923
29.0,-26.0,6.924
-31.0,-37.0,6.925
-57.0,-35.0,6.926
20.0,-46.0,6.927
94.0,-57.0,6.928
152.0,-48.0,6.929
186.0,-25.0,6.93
140.0,-2.0,6.931
74.0,18.0,6.932
-55.0,41.0,6.933
-179.0,54.0,6.934
-286.0,54.0,6.935
-315.0,41.0,6.936
-106.0,16.0,6.937
83.0,-24.0,6.938
85.0,-50.0,6.939
-112.0,-40.0,6.94
-245.0,-13.0,6.941
-83.0,8.0,6.942
240.0,24.0,6.943
350.0,43.0,6.944
150.0,42.0,6.945
-48.0,-7.0,6.946
-50.0,-77.0,6.947
-48.0,-104.0,6.948
-219.0,-80.0,6.949
-351.0,-57.0,6.95
-202.0,-80.0,6.951
95.0,-126.0,6.952
253.0,-151.0,6.953
239.0,-129.0,6.954
217.0,-56.0,6.955
261.0,45.0,6.956
339.0,125.0,6.957
404.0,149.0,6.958
310.0,111.0,6.959
12.0,55.0,6.96
-283.0,37.0,6.961
-300.0,66.0,6.962
-91.0,91.0,6.963
37.0,77.0,6.964
4.0,44.0,6.965
-2.0,41.0,6.966
16.0,64.0,6.967
-158.0,68.0,6.968
-466.0,26.0,6.969
-528.0,-34.0,6.97
-212.0,-74.0,6.971
158.0,-72.0,6.972
300.0,-40.0,6.973
259.0,-2.0,6.974
111.0,6.0,6.975
-168.0,-19.0,6.976
-415.0,-49.0,6.977
-362.0,25.0,6.978
-16.0,29.0,6.979
233.0,36.0,6.98
156.0,51.0,6.981
-6.0,55.0,6.982
8.0,27.0,6.983
98.0,3.0,6.984
73.0,-9.0,6.985
-1.0,-19.0,6.986
33.0,-20.0,6.987
146.0,-16.0,6.988
197.0,4.0,6.989
151.0,12.0,6.99
36.0,-16.0,6.991
-134.0,-48.0,6.992
-280.0,-91.0,6.993
-231.0,-127.0,6.994
19.0,-141.0,6.995
211.0,-148.0,6.996
151.0,-136.0,6.997
-4.0,29.0,6.998
5.0,34.0,6.999
34.0,40.0,7.0
120.0,57.0,7.001
171.0,61.0,7.002
116.0,31.0,7.003
68.0,5.0,7.004
39.0,-8.0,7.005
39.0,-18.0,7.006
131.0,-20.0,7.007
208.0,-15.0,7.008
240.0,6.0,7.009
205.0,15.0,7.01
-28.0,-15.0,7.011
-204.0,-50.0,7.012
-201.0,-96.0,7.013
-184.0,-134.0,7.014
-125.0,-149.0,7.015
-71.0,-157.0,7.016
-33.0,-144.0,7.017
-9.0,22.0,7.018
-44.0,26.0,7.019
-66.0,32.0,7.02
-111.0,46.0,7.021
-265.0,50.0,7.022
-440.0,24.0,7.023
-386.0,1.0,7.024
-51.0,-10.0,7.025
249.0,-19.0,7.026
219.0,-20.0,7.027
-24.0,-16.0,7.028
-145.0,2.0,7.029
-65.0,10.0,7.03
20.0,-16.0,7.031
11.0,-47.0,7.032
9.0,-87.0,7.033
80.0,-120.0,7.034
149.0,-133.0,7.035
153.0,-140.0,7.036
119.0,-129.0,7.037
75.0,-105.0,7.038
44.0,-47.0,7.039
68.0,-24.0,7.04
140.0,-27.0,7.041
151.0,-1.0,7.042
47.0,45.0,7.043
-34.0,58.0,7.044
72.0,36.0,7.045
269.0,39.0,7.046
266.0,95.0,7.047
-31.0,150.0,7.048
-340.0,154.0,7.049
-299.0,109.0,7.05
80.0,51.0,7.051
396.0,9.0,7.052
337.0,4.0,7.053
80.0,30.0,7.054
40.0,59.0,7.055
281.0,79.0,7.056
428.0,99.0,7.057
187.0,118.0,7.058
-303.0,110.0,7.059
-675.0,47.0,7.06
-724.0,-51.0,7.061
-494.0,-133.0,7.062
-148.0,-168.0,7.063
102.0,-158.0,7.064
131.0,-114.0,7.065
9.0,-54.0,7.066
-119.0,-11.0,7.067
-230.0,-10.0,7.068
-330.0,-39.0,7.069
-294.0,-59.0,7.07
-65.0,-39.0,7.071
146.0,10.0,7.072
189.0,45.0,7.073
234.0,52.0,7.074
388.0,46.0,7.075
361.0,51.0,7.076
-12.0,63.0,7.077
-394.0,60.0,7.078
-263.0,38.0,7.079
235.0,10.0,7.08
467.0,-7.0,7.081
237.0,-13.0,7.082
-39.0,-29.0,7.083
-60.0,-47.0,7.084
29.0,-35.0,7.085
29.0,11.0,7.086
-48.0,44.0,7.087
-147.0,30.0,7.088
-223.0,-8.0,7.089
-137.0,-34.0,7.09
159.0,-44.0,7.091
380.0,-50.0,7.092
249.0,-38.0,7.093
-43.0,1.0,7.094
-103.0,47.0,7.095
28.0,63.0,7.096
10.0,44.0,7.097
-202.0,9.0,7.098
-265.0,-21.0,7.099
-62.0,-36.0,7.1
115.0,-41.0,7.101
71.0,-36.0,7.102
-43.0,-35.0,7.103
-104.0,-40.0,7.104
-181.0,-40.0,7.105
-236.0,-13.0,7.106
-77.0,37.0,7.107
266.0,78.0,7.108
503.0,80.0,7.109
508.0,48.0,7.11
410.0,16.0,7.111
248.0,5.0,7.112
-66.0,1.0,7.113
-402.0,-5.0,7.114
-444.0,-13.0,7.115
-182.0,-8.0,7.116
45.0,6.0,7.117
59.0,10.0,7.118
-9.0,7.0,7.119
-31.0,-2.0,7.12
-70.0,-18.0,7.121
-124.0,-41.0,7.122
-47.0,-63.0,7.123
125.0,-76.0,7.124
141.0,-77.0,7.125
-50.0,-54.0,7.126
-167.0,4.0,7.127
-58.0,72.0,7.128
74.0,88.0,7.129
37.0,32.0,7.13
-44.0,-36.0,7.131
-8.0,-51.0,7.132
49.0,-27.0,7.133
-14.0,-14.0,7.134
-96.0,-28.0,7.135
-23.0,-36.0,7.136
145.0,-19.0,7.137
267.0,10.0,7.138
307.0,38.0,7.139
292.0,56.0,7.14
134.0,53.0,7.141
-232.0,27.0,7.142
-552.0,-6.0,7.143
-452.0,-13.0,7.144
-17.0,9.0,7.145
210.0,42.0,7.146
-23.0,64.0,7.147
-285.0,63.0,7.148
-113.0,36.0,7.149
259.0,-14.0,7.15
295.0,-56.0,7.151
14.0,-56.0,7.152
-93.0,-21.0,7.153
113.0,2.0,7.154
264.0,0.0,7.155
131.0,-15.0,7.156
-77.0,-29.0,7.157
-172.0,-51.0,7.158
-161.0,-72.0,7.159
-86.0,-66.0,7.16
81.0,-17.0,7.161
249.0,45.0,7.162
259.0,71.0,7.163
138.0,45.0,7.164
18.0,-1.0,7.165
-100.0,-27.0,7.166
-256.0,-22.0,7.167
-292.0,-6.0,7.168
-82.0,6.0,7.169
161.0,15.0,7.17
146.0,24.0,7.171
-53.0,33.0,7.172
-142.0,46.0,7.173
-65.0,66.0,7.174
-10.0,67.0,7.175
-45.0,32.0,7.176
-54.0,-16.0,7.177
29.0,-38.0,7.178
140.0,-19.0,7.179
175.0,-2.0,7.18
80.0,-22.0,7.181
-115.0,-48.0,7.182
-257.0,-35.0,7.183
-191.0,0.0,7.184
10.0,15.0,7.185
96.0,1.0,7.186
24.0,-8.0,7.187
51.0,-5.0,7.188
309.0,-3.0,7.189
522.0,-11.0,7.19
343.0,-20.0,7.191
-171.0,-20.0,7.192
-608.0,-10.0,7.193
-651.0,15.0,7.194
-342.0,56.0,7.195
29.0,91.0,7.196
197.0,97.0,7.197
124.0,67.0,7.198
-15.0,24.0,7.199
-25.0,-12.0,7.2
84.0,-35.0,7.201
128.0,-46.0,7.202
26.0,-45.0,7.203
-106.0,-37.0,7.204
-128.0,-25.0,7.205
-22.0,-15.0,7.206
134.0,-10.0,7.207
247.0,-9.0,7.208
217.0,-13.0,7.209
27.0,-19.0,7.21
-168.0,-24.0,7.211
-169.0,-15.0,7.212
7.0,3.0,7.213
127.0,24.0,7.214
64.0,30.0,7.215
-32.0,22.0,7.216
14.0,11.0,7.217
158.0,-5.0,7.218
203.0,-25.0,7.219
122.0,-41.0,7.22
88.0,-48.0,7.221
167.0,-48.0,7.222
202.0,-54.0,7.223
72.0,-61.0,7.224
-114.0,-55.0,7.225
-170.0,-28.0,7.226
-62.0,7.0,7.227
96.0,32.0,7.228
179.0,37.0,7.229
114.0,31.0,7.23
-85.0,29.0,7.231
-278.0,33.0,7.232
-315.0,27.0,7.233
-218.0,0.0,7.234
-145.0,-22.0,7.235
-152.0,-9.0,7.236
-132.0,30.0,7.237
-12.0,54.0,7.238
102.0,45.0,7.239
84.0,24.0,7.24
1.0,17.0,7.241
3.0,30.0,7.242
127.0,48.0,7.243
265.0,54.0,7.244
292.0,32.0,7.245
155.0,-19.0,7.246
-87.0,-54.0,7.247
-256.0,-39.0,7.248
-195.0,3.0,7.249
19.0,28.0,7.25
140.0,29.0,7.251
61.0,34.0,7.252
-70.0,36.0,7.253
-118.0,5.0,7.254
-153.0,-47.0,7.255
-252.0,-68.0,7.256
-307.0,-51.0,7.257
-186.0,-35.0,7.258
41.0,-40.0,7.259
186.0,-45.0,7.26
200.0,-34.0,7.261
175.0,-17.0,7.262
134.0,-5.0,7.263
25.0,20.0,7.264
-124.0,49.0,7.265
-174.0,48.0,7.266
-52.0,7.0,7.267
149.0,-29.0,7.268
254.0,-27.0,7.269
168.0,-5.0,7.27
-19.0,0.0,7.271
-101.0,-8.0,7.272
6.0,-14.0,7.273
144.0,-14.0,7.274
129.0,-11.0,7.275
16.0,2.0,7.276
-32.0,29.0,7.277
-20.0,24.0,7.278
-58.0,5.0,7.279
-122.0,-12.0,7.28
-71.0,-17.0,7.281
65.0,-21.0,7.282
98.0,-20.0,7.283
-4.0,-16.0,7.284
-64.0,-2.0,7.285
19.0,14.0,7.286
137.0,43.0,7.287
143.0,65.0,7.288
36.0,64.0,7.289
-89.0,59.0,7.29
-144.0,45.0,7.291
-92.0,35.0,7.292
15.0,33.0,7.293
65.0,22.0,7.294
5.0,-15.0,7.295
-78.0,-43.0,7.296
-88.0,-36.0,7.297
-30.0,31.0,7.298
46.0,2.0,7.299
108.0,-22.0,7.3
126.0,-30.0,7.301
113.0,-36.0,7.302
7.0,-34.0,7.303
-85.0,-28.0,7.304
-136.0,-9.0,7.305
-153.0,16.0,7.306
-67.0,58.0,7.307
1.0,89.0,7.308
17.0,87.0,7.309
3.0,80.0,7.31
-98.0,61.0,7.311
-133.0,46.0,7.312
36.0,43.0,7.313
119.0,27.0,7.314
-56.0,-27.0,7.315
-170.0,-67.0,7.316
-100.0,-57.0,7.317
18.0,-43.0,7.318
231.0,-32.0,7.319
278.0,-55.0,7.32
209.0,-83.0,7.321
156.0,-79.0,7.322
160.0,-53.0,7.323
166.0,-29.0,7.324
111.0,-14.0,7.325
6.0,-1.0,7.326
-90.0,6.0,7.327
-129.0,8.0,7.328
-101.0,14.0,7.329
-19.0,31.0,7.33
74.0,42.0,7.331
96.0,32.0,7.332
-12.0,14.0,7.333
-208.0,11.0,7.334
-344.0,17.0,7.335
-319.0,10.0,7.336
-195.0,-4.0,7.337
-89.0,-6.0,7.338
-44.0,17.0,7.339
12.0,37.0,7.34
111.0,36.0,7.341
153.0,25.0,7.342
79.0,14.0,7.343
12.0,3.0,7.344
77.0,-4.0,7.345
193.0,-5.0,7.346
187.0,-18.0,7.347
78.0,-57.0,7.348
34.0,-96.0,7.349
90.0,-97.0,7.35
93.0,-60.0,7.351
-16.0,-10.0,7.352
-107.0,36.0,7.353
-75.0,80.0,7.354
-12.0,116.0,7.355
-41.0,137.0,7.356
-119.0,149.0,7.357
-146.0,-162.0,7.358
-93.0,-131.0,7.359
-11.0,-94.0,7.36
59.0,-37.0,7.361
73.0,10.0,7.362
-9.0,39.0,7.363
-131.0,61.0,7.364
-148.0,65.0,7.365
-21.0,72.0,7.366
118.0,72.0,7.367
157.0,65.0,7.368
137.0,46.0,7.369
105.0,24.0,7.37
25.0,2.0,7.371
-99.0,-15.0,7.372
-143.0,-15.0,7.373
-44.0,-8.0,7.374
73.0,10.0,7.375
99.0,24.0,7.376
80.0,0.0,7.377
78.0,-135.0,7.378
55.0,-109.0,7.379
-27.0,-78.0,7.38
-71.0,-31.0,7.381
0.0,9.0,7.382
111.0,32.0,7.383
157.0,51.0,7.384
160.0,54.0,7.385
158.0,60.0,7.386
75.0,60.0,7.387
-118.0,54.0,7.388
-255.0,38.0,7.389
-179.0,20.0,7.39
0.0,1.0,7.391
36.0,-12.0,7.392
-100.0,-12.0,7.393
-206.0,-7.0,7.394
-150.0,9.0,7.395
-19.0,20.0,7.396
38.0,0.0,7.397
20.0,-84.0,7.398
21.0,-68.0,7.399
90.0,-48.0,7.4
166.0,-19.0,7.401
190.0,5.0,7.402
178.0,20.0,7.403
169.0,31.0,7.404
122.0,34.0,7.405
-33.0,37.0,7.406
-257.0,37.0,7.407
-353.0,34.0,7.408
-194.0,23.0,7.409
69.0,12.0,7.41
153.0,1.0,7.411
-4.0,-7.0,7.412
-174.0,-7.0,7.413
-169.0,-4.0,7.414
-69.0,5.0,7.415
-11.0,12.0,7.416
16.0,0.0,7.417
70.0,-74.0,7.418
90.0,-60.0,7.419
24.0,-43.0,7.42
-24.0,-17.0,7.421
36.0,5.0,7.422
106.0,18.0,7.423
50.0,28.0,7.424
-75.0,30.0,7.425
-122.0,33.0,7.426
-61.0,33.0,7.427
37.0,30.0,7.428
125.0,21.0,7.429
159.0,11.0,7.43
99.0,1.0,7.431
0.0,-7.0,7.432
-10.0,-7.0,7.433
81.0,-4.0,7.434
132.0,5.0,7.435
67.0,11.0,7.436
-29.0,0.0,7.437
-67.0,-10.0,7.438
-45.0,-23.0,7.439
-14.0,-40.0,7.44
3.0,-56.0,7.441
-2.0,-55.0,7.442
-29.0,-38.0,7.443
-45.0,-14.0,7.444
-29.0,7.0,7.445
-4.0,27.0,7.446
-1.0,41.0,7.447
-16.0,49.0,7.448
-59.0,48.0,7.449
-144.0,38.0,7.45
-222.0,16.0,7.451
-193.0,-11.0,7.452
-34.0,-32.0,7.453
137.0,-46.0,7.454
208.0,-50.0,7.455
192.0,-45.0,7.456
176.0,-25.0,7.457
192.0,4.0,7.458
211.0,28.0,7.459
193.0,29.0,7.46
133.0,14.0,7.461
57.0,-1.0,7.462
-12.0,-7.0,7.463
-76.0,-3.0,7.464
-158.0,16.0,7.465
