Deltoid,Bicep,Time
40.0,1.0,0.0
44.0,-4.0,0.001
48.0,-4.0,0.002
57.0,-2.0,0.003
62.0,-1.0,0.004
52.0,-1.0,0.005
27.0,-1.0,0.006
0.0,0.0,0.007
-17.0,0.0,0.008
-28.0,-4.0,0.009
-40.0,-7.0,0.01
-47.0,-8.0,0.011
-51.0,-5.0,0.012
-54.0,-1.0,0.013
-55.0,2.0,0.014
-47.0,5.0,0.015
-24.0,5.0,0.016
1.0,5.0,0.017
18.0,3.0,0.018
30.0,3.0,0.019
39.0,3.0,0.02
48.0,-3.0,0.021
54.0,-6.0,0.022
59.0,-5.0,0.023
61.0,-1.0,0.024
51.0,0.0,0.025
24.0,0.0,0.026
-1.0,0.0,0.027
-14.0,0.0,0.028
-22.0,0.0,0.029
-36.0,0.0,0.03
-53.0,1.0,0.031
-58.0,0.0,0.032
-53.0,0.0,0.033
-47.0,0.0,0.034
-38.0,0.0,0.035
-19.0,3.0,0.036
6.0,5.0,0.037
26.0,2.0,0.038
36.0,0.0,0.039
39.0,0.0,0.04
45.0,-1.0,0.041
50.0,-2.0,0.042
56.0,-5.0,0.043
62.0,-7.0,0.044
57.0,-5.0,0.045
33.0,-3.0,0.046
3.0,-5.0,0.047
-17.0,-7.0,0.048
-25.0,-9.0,0.049
-36.0,-10.0,0.05
-48.0,-8.0,0.051
-53.0,-8.0,0.052
-49.0,-6.0,0.053
-45.0,-3.0,0.054
-37.0,-1.0,0.055
-19.0,1.0,0.056
7.0,8.0,0.057
26.0,10.0,0.058
33.0,7.0,0.059
35.0,2.0,0.06
43.0,0.0,0.061
55.0,3.0,0.062
68.0,4.0,0.063
75.0,3.0,0.064
66.0,4.0,0.065
39.0,5.0,0.066
9.0,5.0,0.067
-6.0,3.0,0.068
-13.0,4.0,0.069
-26.0,5.0,0.07
-45.0,4.0,0.071
-53.0,1.0,0.072
-50.0,0.0,0.073
-45.0,1.0,0.074
-37.0,2.0,0.075
-20.0,1.0,0.076
2.0,4.0,0.077
20.0,5.0,0.078
29.0,3.0,0.079
33.0,-1.0,0.08
42.0,-6.0,0.081
55.0,-2.0,0.082
64.0,1.0,0.083
64.0,-1.0,0.084
50.0,-4.0,0.085
26.0,-5.0,0.086
0.0,-3.0,0.087
-18.0,-5.0,0.088
-31.0,-10.0,0.089
-43.0,-8.0,0.09
-51.0,-6.0,0.091
-54.0,-4.0,0.092
-57.0,-3.0,0.093
-60.0,-2.0,0.094
-55.0,0.0,0.095
-34.0,0.0,0.096
-6.0,0.0,0.097
18.0,2.0,0.098
28.0,5.0,0.099
31.0,2.0,0.1
37.0,-5.0,0.101
47.0,-6.0,0.102
58.0,-3.0,0.103
61.0,-2.0,0.104
50.0,-2.0,0.105
25.0,0.0,0.106
0.0,0.0,0.107
-18.0,-4.0,0.108
-26.0,-8.0,0.109
-36.0,-7.0,0.11
-45.0,-2.0,0.111
-51.0,0.0,0.112
-53.0,-2.0,0.113
-52.0,-1.0,0.114
-42.0,2.0,0.115
-22.0,3.0,0.116
2.0,2.0,0.117
17.0,1.0,0.118
26.0,2.0,0.119
32.0,2.0,0.12
43.0,-2.0,0.121
54.0,-2.0,0.122
64.0,-2.0,0.123
70.0,-2.0,0.124
62.0,-3.0,0.125
35.0,-3.0,0.126
5.0,-2.0,0.127
-14.0,-2.0,0.128
-23.0,-2.0,0.129
-33.0,-4.0,0.13
-45.0,-5.0,0.131
-50.0,-5.0,0.132
-50.0,-5.0,0.133
-47.0,-3.0,0.134
-40.0,-1.0,0.135
-19.0,0.0,0.136
6.0,3.0,0.137
26.0,6.0,0.138
38.0,6.0,0.139
48.0,3.0,0.14
57.0,-4.0,0.141
60.0,-5.0,0.142
62.0,-2.0,0.143
64.0,2.0,0.144
57.0,5.0,0.145
34.0,6.0,0.146
6.0,3.0,0.147
-13.0,-1.0,0.148
-26.0,-5.0,0.149
-42.0,-3.0,0.15
-57.0,0.0,0.151
-61.0,1.0,0.152
-56.0,0.0,0.153
-53.0,-2.0,0.154
-47.0,-2.0,0.155
-26.0,1.0,0.156
-1.0,4.0,0.157
14.0,1.0,0.158
20.0,0.0,0.159
24.0,2.0,0.16
33.0,1.0,0.161
41.0,0.0,0.162
50.0,-3.0,0.163
58.0,1.0,0.164
51.0,7.0,0.165
24.0,5.0,0.166
-4.0,-3.0,0.167
-20.0,-8.0,0.168
-28.0,-6.0,0.169
-41.0,-1.0,0.17
-53.0,-1.0,0.171
-57.0,-4.0,0.172
-60.0,-5.0,0.173
-61.0,-1.0,0.174
-54.0,1.0,0.175
-30.0,2.0,0.176
-1.0,5.0,0.177
20.0,1.0,0.178
31.0,-3.0,0.179
39.0,-3.0,0.18
44.0,-2.0,0.181
50.0,0.0,0.182
58.0,0.0,0.183
65.0,-2.0,0.184
58.0,0.0,0.185
30.0,2.0,0.186
2.0,-2.0,0.187
-14.0,-6.0,0.188
-26.0,-7.0,0.189
-41.0,-4.0,0.19
-51.0,-4.0,0.191
-50.0,-5.0,0.192
-48.0,-1.0,0.193
-50.0,6.0,0.194
-42.0,8.0,0.195
-19.0,4.0,0.196
7.0,1.0,0.197
21.0,1.0,0.198
30.0,3.0,0.199
40.0,5.0,0.2
48.0,1.0,0.201
52.0,-4.0,0.202
59.0,-7.0,0.203
67.0,-6.0,0.204
60.0,-1.0,0.205
34.0,1.0,0.206
8.0,-1.0,0.207
-6.0,-5.0,0.208
-15.0,-4.0,0.209
-32.0,-4.0,0.21
-50.0,-5.0,0.211
-56.0,-6.0,0.212
-54.0,-2.0,0.213
-48.0,0.0,0.214
-38.0,1.0,0.215
-21.0,1.0,0.216
0.0,5.0,0.217
19.0,7.0,0.218
31.0,6.0,0.219
38.0,2.0,0.22
43.0,-1.0,0.221
48.0,-1.0,0.222
57.0,-1.0,0.223
65.0,-1.0,0.224
57.0,2.0,0.225
33.0,5.0,0.226
7.0,3.0,0.227
-10.0,-2.0,0.228
-25.0,-3.0,0.229
-40.0,-2.0,0.23
-49.0,-3.0,0.231
-49.0,-5.0,0.232
-51.0,-6.0,0.233
-55.0,-6.0,0.234
-48.0,-2.0,0.235
-26.0,0.0,0.236
-2.0,4.0,0.237
15.0,3.0,0.238
25.0,2.0,0.239
34.0,-1.0,0.24
43.0,-4.0,0.241
50.0,-1.0,0.242
57.0,0.0,0.243
63.0,-1.0,0.244
57.0,0.0,0.245
37.0,2.0,0.246
13.0,4.0,0.247
-6.0,-2.0,0.248
-23.0,-10.0,0.249
-39.0,-8.0,0.25
-49.0,-2.0,0.251
-53.0,0.0,0.252
-56.0,-2.0,0.253
-57.0,-4.0,0.254
-48.0,0.0,0.255
-26.0,4.0,0.256
-3.0,8.0,0.257
12.0,6.0,0.258
24.0,4.0,0.259
37.0,5.0,0.26
51.0,0.0,0.261
63.0,-1.0,0.262
73.0,-1.0,0.263
76.0,-1.0,0.264
66.0,-1.0,0.265
41.0,0.0,0.266
14.0,-1.0,0.267
-5.0,-3.0,0.268
-17.0,-3.0,0.269
-32.0,-3.0,0.27
-48.0,-4.0,0.271
-58.0,-7.0,0.272
-59.0,-5.0,0.273
-56.0,0.0,0.274
-47.0,2.0,0.275
-28.0,1.0,0.276
0.0,2.0,0.277
22.0,3.0,0.278
32.0,4.0,0.279
41.0,3.0,0.28
43.0,0.0,0.281
48.0,1.0,0.282
57.0,1.0,0.283
61.0,1.0,0.284
51.0,3.0,0.285
37.0,6.0,0.286
14.0,4.0,0.287
-7.0,-1.0,0.288
-21.0,-6.0,0.289
-34.0,-5.0,0.29
-44.0,-3.0,0.291
-53.0,-2.0,0.292
-54.0,-2.0,0.293
-53.0,0.0,0.294
-47.0,0.0,0.295
-36.0,-3.0,0.296
-12.0,-3.0,0.297
13.0,-2.0,0.298
29.0,1.0,0.299
38.0,1.0,0.3
46.0,-3.0,0.301
53.0,-4.0,0.302
57.0,-2.0,0.303
59.0,-1.0,0.304
52.0,-1.0,0.305
34.0,-3.0,0.306
11.0,-4.0,0.307
-8.0,-3.0,0.308
-20.0,-3.0,0.309
-29.0,-3.0,0.31
-41.0,-4.0,0.311
-49.0,-5.0,0.312
-53.0,-4.0,0.313
-53.0,-1.0,0.314
-46.0,0.0,0.315
-29.0,2.0,0.316
-5.0,5.0,0.317
16.0,2.0,0.318
31.0,-1.0,0.319
39.0,-4.0,0.32
46.0,-5.0,0.321
53.0,-4.0,0.322
64.0,-2.0,0.323
71.0,0.0,0.324
66.0,4.0,0.325
43.0,7.0,0.326
14.0,4.0,0.327
-9.0,-4.0,0.328
-22.0,-8.0,0.329
-32.0,-6.0,0.33
-42.0,-5.0,0.331
-48.0,-4.0,0.332
-48.0,-1.0,0.333
-45.0,2.0,0.334
-38.0,3.0,0.335
-25.0,2.0,0.336
-7.0,4.0,0.337
8.0,4.0,0.338
21.0,3.0,0.339
28.0,2.0,0.34
37.0,0.0,0.341
45.0,-1.0,0.342
53.0,-1.0,0.343
58.0,1.0,0.344
54.0,4.0,0.345
36.0,4.0,0.346
10.0,-2.0,0.347
-15.0,-7.0,0.348
-31.0,-7.0,0.349
-43.0,-6.0,0.35
-55.0,-6.0,0.351
-65.0,-5.0,0.352
-67.0,0.0,0.353
-63.0,4.0,0.354
-55.0,3.0,0.355
-42.0,3.0,0.356
-23.0,6.0,0.357
0.0,8.0,0.358
20.0,5.0,0.359
34.0,1.0,0.36
47.0,-4.0,0.361
63.0,-5.0,0.362
77.0,-4.0,0.363
81.0,0.0,0.364
69.0,5.0,0.365
44.0,4.0,0.366
17.0,-1.0,0.367
-7.0,-5.0,0.368
-24.0,-3.0,0.369
-37.0,-3.0,0.37
-44.0,-4.0,0.371
-50.0,-3.0,0.372
-53.0,-1.0,0.373
-56.0,0.0,0.374
-51.0,-3.0,0.375
-36.0,-3.0,0.376
-13.0,2.0,0.377
12.0,5.0,0.378
29.0,3.0,0.379
36.0,-3.0,0.38
42.0,-7.0,0.381
52.0,-5.0,0.382
66.0,-1.0,0.383
70.0,1.0,0.384
59.0,1.0,0.385
30.0,1.0,0.386
-5.0,0.0,0.387
-30.0,-4.0,0.388
-42.0,-7.0,0.389
-45.0,-7.0,0.39
-43.0,-3.0,0.391
-37.0,-2.0,0.392
-27.0,-3.0,0.393
-23.0,-3.0,0.394
-26.0,1.0,0.395
-21.0,5.0,0.396
0.0,6.0,0.397
26.0,3.0,0.398
38.0,0.0,0.399
35.0,0.0,0.4
36.0,-2.0,0.401
48.0,0.0,0.402
61.0,2.0,0.403
66.0,3.0,0.404
55.0,2.0,0.405
36.0,0.0,0.406
15.0,-2.0,0.407
-3.0,-3.0,0.408
-16.0,-5.0,0.409
-26.0,-6.0,0.41
-41.0,-4.0,0.411
-53.0,-1.0,0.412
-57.0,2.0,0.413
-54.0,3.0,0.414
-49.0,2.0,0.415
-38.0,1.0,0.416
-19.0,4.0,0.417
1.0,3.0,0.418
17.0,0.0,0.419
28.0,-2.0,0.42
40.0,-4.0,0.421
53.0,-2.0,0.422
62.0,0.0,0.423
66.0,2.0,0.424
62.0,4.0,0.425
44.0,2.0,0.426
15.0,-3.0,0.427
-12.0,-8.0,0.428
-26.0,-7.0,0.429
-33.0,-3.0,0.43
-43.0,0.0,0.431
-54.0,0.0,0.432
-58.0,-1.0,0.433
-56.0,0.0,0.434
-49.0,5.0,0.435
-37.0,5.0,0.436
-16.0,4.0,0.437
6.0,1.0,0.438
22.0,2.0,0.439
27.0,1.0,0.44
33.0,-4.0,0.441
45.0,-5.0,0.442
60.0,-3.0,0.443
66.0,-1.0,0.444
61.0,-2.0,0.445
45.0,-3.0,0.446
22.0,-2.0,0.447
-1.0,-2.0,0.448
-21.0,-6.0,0.449
-33.0,-8.0,0.45
-42.0,-6.0,0.451
-47.0,-1.0,0.452
-50.0,-1.0,0.453
-48.0,-1.0,0.454
-42.0,1.0,0.455
-29.0,5.0,0.456
-10.0,6.0,0.457
10.0,4.0,0.458
24.0,3.0,0.459
30.0,1.0,0.46
37.0,-6.0,0.461
46.0,-7.0,0.462
56.0,-3.0,0.463
64.0,2.0,0.464
63.0,3.0,0.465
46.0,0.0,0.466
21.0,-2.0,0.467
0.0,-3.0,0.468
-13.0,-1.0,0.469
-23.0,1.0,0.47
-36.0,1.0,0.471
-47.0,-1.0,0.472
-51.0,-2.0,0.473
-54.0,0.0,0.474
-52.0,1.0,0.475
-38.0,0.0,0.476
-11.0,2.0,0.477
13.0,6.0,0.478
26.0,7.0,0.479
30.0,3.0,0.48
38.0,-3.0,0.481
48.0,-4.0,0.482
57.0,-2.0,0.483
61.0,-3.0,0.484
58.0,-1.0,0.485
41.0,1.0,0.486
15.0,0.0,0.487
-10.0,-5.0,0.488
-27.0,-10.0,0.489
-40.0,-7.0,0.49
-51.0,-1.0,0.491
-57.0,-1.0,0.492
-58.0,-3.0,0.493
-58.0,-4.0,0.494
-53.0,1.0,0.495
-38.0,6.0,0.496
-11.0,8.0,0.497
13.0,8.0,0.498
28.0,5.0,0.499
34.0,3.0,0.5
40.0,0.0,0.501
48.0,-1.0,0.502
57.0,0.0,0.503
64.0,2.0,0.504
61.0,4.0,0.505
42.0,5.0,0.506
14.0,1.0,0.507
-7.0,-3.0,0.508
-19.0,-5.0,0.509
-31.0,-4.0,0.51
-44.0,-1.0,0.511
-53.0,1.0,0.512
-57.0,1.0,0.513
-58.0,0.0,0.514
-52.0,-1.0,0.515
-34.0,-1.0,0.516
-8.0,2.0,0.517
17.0,4.0,0.518
32.0,2.0,0.519
37.0,-1.0,0.52
43.0,-4.0,0.521
51.0,-3.0,0.522
63.0,-3.0,0.523
73.0,-4.0,0.524
70.0,-4.0,0.525
51.0,0.0,0.526
26.0,-1.0,0.527
4.0,-6.0,0.528
-15.0,-6.0,0.529
-30.0,-4.0,0.53
-41.0,-3.0,0.531
-45.0,-2.0,0.532
-48.0,0.0,0.533
-54.0,2.0,0.534
-54.0,0.0,0.535
-39.0,-1.0,0.536
-11.0,1.0,0.537
11.0,3.0,0.538
25.0,4.0,0.539
33.0,4.0,0.54
42.0,2.0,0.541
54.0,1.0,0.542
65.0,-3.0,0.543
73.0,-4.0,0.544
66.0,0.0,0.545
45.0,3.0,0.546
22.0,0.0,0.547
1.0,-6.0,0.548
-14.0,-6.0,0.549
-28.0,-3.0,0.55
-40.0,-3.0,0.551
-48.0,-6.0,0.552
-53.0,-6.0,0.553
-57.0,-3.0,0.554
-55.0,-1.0,0.555
-41.0,-2.0,0.556
-18.0,-1.0,0.557
7.0,1.0,0.558
23.0,0.0,0.559
29.0,-4.0,0.56
34.0,-9.0,0.561
43.0,-8.0,0.562
55.0,-5.0,0.563
66.0,-4.0,0.564
66.0,-2.0,0.565
49.0,-1.0,0.566
24.0,-1.0,0.567
0.0,-4.0,0.568
-16.0,-6.0,0.569
-31.0,-4.0,0.57
-42.0,-2.0,0.571
-47.0,-1.0,0.572
-49.0,2.0,0.573
-51.0,5.0,0.574
-50.0,6.0,0.575
-34.0,4.0,0.576
-8.0,6.0,0.577
18.0,11.0,0.578
32.0,12.0,0.579
36.0,10.0,0.58
40.0,4.0,0.581
49.0,2.0,0.582
61.0,4.0,0.583
73.0,5.0,0.584
73.0,6.0,0.585
56.0,6.0,0.586
30.0,3.0,0.587
8.0,-2.0,0.588
-9.0,-5.0,0.589
-28.0,-6.0,0.59
-45.0,-5.0,0.591
-51.0,-5.0,0.592
-51.0,-4.0,0.593
-52.0,-1.0,0.594
-52.0,-1.0,0.595
-39.0,0.0,0.596
-15.0,2.0,0.597
5.0,4.0,0.598
18.0,7.0,0.599
25.0,6.0,0.6
34.0,0.0,0.601
46.0,-4.0,0.602
55.0,-4.0,0.603
63.0,-2.0,0.604
60.0,-1.0,0.605
44.0,-2.0,0.606
22.0,-2.0,0.607
1.0,-1.0,0.608
-15.0,-1.0,0.609
-30.0,-2.0,0.61
-46.0,-4.0,0.611
-53.0,-5.0,0.612
-54.0,-5.0,0.613
-57.0,-5.0,0.614
-57.0,-4.0,0.615
-44.0,-2.0,0.616
-18.0,2.0,0.617
5.0,2.0,0.618
16.0,0.0,0.619
21.0,0.0,0.62
32.0,-3.0,0.621
45.0,-3.0,0.622
56.0,-5.0,0.623
62.0,-5.0,0.624
62.0,-1.0,0.625
49.0,2.0,0.626
28.0,-1.0,0.627
8.0,-8.0,0.628
-7.0,-9.0,0.629
-23.0,-5.0,0.63
-39.0,0.0,0.631
-48.0,0.0,0.632
-48.0,0.0,0.633
-47.0,2.0,0.634
-48.0,3.0,0.635
-38.0,0.0,0.636
-16.0,0.0,0.637
8.0,-1.0,0.638
22.0,0.0,0.639
27.0,-1.0,0.64
36.0,-4.0,0.641
48.0,-3.0,0.642
59.0,-1.0,0.643
66.0,0.0,0.644
65.0,3.0,0.645
50.0,4.0,0.646
24.0,1.0,0.647
-1.0,-2.0,0.648
-18.0,-4.0,0.649
-27.0,-2.0,0.65
-35.0,-2.0,0.651
-42.0,-6.0,0.652
-47.0,-7.0,0.653
-53.0,-3.0,0.654
-56.0,0.0,0.655
-44.0,1.0,0.656
-19.0,3.0,0.657
8.0,5.0,0.658
22.0,4.0,0.659
24.0,0.0,0.66
30.0,-6.0,0.661
43.0,-5.0,0.662
58.0,0.0,0.663
67.0,3.0,0.664
64.0,5.0,0.665
49.0,6.0,0.666
28.0,2.0,0.667
5.0,-3.0,0.668
-15.0,-7.0,0.669
-33.0,-5.0,0.67
-44.0,-3.0,0.671
-47.0,-3.0,0.672
-46.0,-6.0,0.673
-49.0,-5.0,0.674
-50.0,-3.0,0.675
-39.0,1.0,0.676
-18.0,4.0,0.677
3.0,4.0,0.678
17.0,5.0,0.679
24.0,7.0,0.68
33.0,5.0,0.681
45.0,0.0,0.682
57.0,-3.0,0.683
62.0,-1.0,0.684
59.0,2.0,0.685
44.0,2.0,0.686
23.0,0.0,0.687
3.0,-4.0,0.688
-16.0,-4.0,0.689
-33.0,-2.0,0.69
-48.0,-2.0,0.691
-55.0,-4.0,0.692
-57.0,-4.0,0.693
-61.0,-2.0,0.694
-60.0,1.0,0.695
-47.0,4.0,0.696
-23.0,7.0,0.697
4.0,4.0,0.698
22.0,0.0,0.699
29.0,-3.0,0.7
34.0,-4.0,0.701
43.0,0.0,0.702
56.0,2.0,0.703
67.0,0.0,0.704
65.0,1.0,0.705
48.0,4.0,0.706
24.0,3.0,0.707
3.0,-3.0,0.708
-11.0,-8.0,0.709
-26.0,-4.0,0.71
-38.0,-1.0,0.711
-45.0,-2.0,0.712
-48.0,-4.0,0.713
-52.0,-3.0,0.714
-54.0,-1.0,0.715
-44.0,-1.0,0.716
-20.0,-2.0,0.717
4.0,1.0,0.718
18.0,4.0,0.719
31.0,2.0,0.72
38.0,-6.0,0.721
46.0,-9.0,0.722
54.0,-7.0,0.723
61.0,-2.0,0.724
59.0,1.0,0.725
52.0,2.0,0.726
30.0,0.0,0.727
10.0,-3.0,0.728
-6.0,-5.0,0.729
-22.0,-3.0,0.73
-37.0,-1.0,0.731
-50.0,-3.0,0.732
-54.0,-5.0,0.733
-57.0,-3.0,0.734
-51.0,1.0,0.735
-42.0,3.0,0.736
-23.0,1.0,0.737
-4.0,-1.0,0.738
15.0,0.0,0.739
21.0,2.0,0.74
27.0,0.0,0.741
39.0,-2.0,0.742
55.0,-1.0,0.743
67.0,2.0,0.744
65.0,5.0,0.745
52.0,3.0,0.746
33.0,0.0,0.747
13.0,-2.0,0.748
-8.0,-2.0,0.749
-26.0,-2.0,0.75
-40.0,-5.0,0.751
-51.0,-5.0,0.752
-58.0,-5.0,0.753
-63.0,-4.0,0.754
-60.0,-3.0,0.755
-48.0,-3.0,0.756
-29.0,-1.0,0.757
-1.0,0.0,0.758
22.0,2.0,0.759
32.0,2.0,0.76
35.0,-1.0,0.761
41.0,-1.0,0.762
56.0,1.0,0.763
67.0,3.0,0.764
64.0,3.0,0.765
46.0,-1.0,0.766
27.0,-3.0,0.767
9.0,-4.0,0.768
-11.0,-3.0,0.769
-30.0,-4.0,0.77
-42.0,-6.0,0.771
-46.0,-4.0,0.772
-50.0,-1.0,0.773
-53.0,1.0,0.774
-52.0,1.0,0.775
-43.0,0.0,0.776
-26.0,3.0,0.777
-7.0,4.0,0.778
12.0,4.0,0.779
26.0,3.0,0.78
37.0,-2.0,0.781
50.0,-3.0,0.782
61.0,-2.0,0.783
67.0,1.0,0.784
65.0,4.0,0.785
55.0,3.0,0.786
37.0,-2.0,0.787
14.0,-5.0,0.788
-6.0,-6.0,0.789
-21.0,-7.0,0.79
-32.0,-6.0,0.791
-43.0,-4.0,0.792
-51.0,-2.0,0.793
-53.0,-2.0,0.794
-49.0,-2.0,0.795
-41.0,1.0,0.796
-24.0,6.0,0.797
-1.0,8.0,0.798
20.0,3.0,0.799
27.0,-1.0,0.8
29.0,-5.0,0.801
38.0,-3.0,0.802
56.0,0.0,0.803
69.0,2.0,0.804
66.0,2.0,0.805
48.0,2.0,0.806
26.0,0.0,0.807
5.0,-1.0,0.808
-14.0,-2.0,0.809
-31.0,-2.0,0.81
-47.0,-1.0,0.811
-55.0,-4.0,0.812
-56.0,-6.0,0.813
-54.0,-4.0,0.814
-51.0,0.0,0.815
-42.0,3.0,0.816
-27.0,6.0,0.817
-8.0,3.0,0.818
11.0,3.0,0.819
25.0,5.0,0.82
36.0,2.0,0.821
45.0,-1.0,0.822
56.0,-2.0,0.823
65.0,1.0,0.824
67.0,5.0,0.825
54.0,4.0,0.826
33.0,-2.0,0.827
12.0,-7.0,0.828
-6.0,-7.0,0.829
-23.0,-4.0,0.83
-38.0,-4.0,0.831
-47.0,-6.0,0.832
-52.0,-6.0,0.833
-57.0,-4.0,0.834
-56.0,-2.0,0.835
-46.0,1.0,0.836
-23.0,4.0,0.837
4.0,2.0,0.838
25.0,0.0,0.839
31.0,-1.0,0.84
36.0,-2.0,0.841
46.0,1.0,0.842
59.0,1.0,0.843
68.0,0.0,0.844
66.0,0.0,0.845
53.0,-1.0,0.846
30.0,-4.0,0.847
5.0,-8.0,0.848
-15.0,-8.0,0.849
-30.0,-6.0,0.85
-41.0,-4.0,0.851
-53.0,-4.0,0.852
-62.0,-2.0,0.853
-64.0,3.0,0.854
-60.0,4.0,0.855
-48.0,0.0,0.856
-29.0,0.0,0.857
-8.0,5.0,0.858
10.0,10.0,0.859
20.0,8.0,0.86
28.0,1.0,0.861
40.0,1.0,0.862
52.0,1.0,0.863
60.0,1.0,0.864
61.0,1.0,0.865
53.0,3.0,0.866
37.0,3.0,0.867
16.0,-2.0,0.868
-5.0,-8.0,0.869
-25.0,-7.0,0.87
-39.0,-2.0,0.871
-48.0,0.0,0.872
-51.0,0.0,0.873
-54.0,0.0,0.874
-53.0,0.0,0.875
-43.0,1.0,0.876
-23.0,0.0,0.877
-2.0,1.0,0.878
15.0,2.0,0.879
27.0,0.0,0.88
37.0,-7.0,0.881
46.0,-8.0,0.882
57.0,-2.0,0.883
67.0,1.0,0.884
70.0,-1.0,0.885
60.0,-4.0,0.886
41.0,-3.0,0.887
21.0,-4.0,0.888
1.0,-5.0,0.889
-17.0,-5.0,0.89
-30.0,-4.0,0.891
-40.0,-5.0,0.892
-45.0,-7.0,0.893
-50.0,-3.0,0.894
-54.0,1.0,0.895
-46.0,3.0,0.896
-27.0,6.0,0.897
-4.0,8.0,0.898
15.0,10.0,0.899
25.0,8.0,0.9
35.0,0.0,0.901
50.0,-2.0,0.902
69.0,-1.0,0.903
82.0,3.0,0.904
81.0,7.0,0.905
65.0,9.0,0.906
41.0,6.0,0.907
13.0,-1.0,0.908
-14.0,-3.0,0.909
-32.0,-1.0,0.91
-40.0,-1.0,0.911
-44.0,-3.0,0.912
-49.0,-4.0,0.913
-56.0,-3.0,0.914
-58.0,-2.0,0.915
-46.0,-1.0,0.916
-26.0,5.0,0.917
-3.0,8.0,0.918
15.0,7.0,0.919
24.0,2.0,0.92
30.0,-1.0,0.921
40.0,0.0,0.922
54.0,0.0,0.923
60.0,0.0,0.924
53.0,1.0,0.925
39.0,3.0,0.926
29.0,0.0,0.927
16.0,-8.0,0.928
-9.0,-13.0,0.929
-41.0,-13.0,0.93
-58.0,-11.0,0.931
-58.0,-8.0,0.932
-52.0,-5.0,0.933
-49.0,0.0,0.934
-39.0,-1.0,0.935
-13.0,-4.0,0.936
17.0,0.0,0.937
35.0,9.0,0.938
34.0,14.0,0.939
27.0,12.0,0.94
27.0,2.0,0.941
36.0,-5.0,0.942
49.0,-5.0,0.943
58.0,-3.0,0.944
60.0,-1.0,0.945
48.0,-1.0,0.946
26.0,-3.0,0.947
1.0,-6.0,0.948
-19.0,-6.0,0.949
-32.0,-4.0,0.95
-43.0,-4.0,0.951
-51.0,-4.0,0.952
-54.0,-1.0,0.953
-54.0,0.0,0.954
-51.0,-4.0,0.955
-44.0,-6.0,0.956
-28.0,-3.0,0.957
-5.0,1.0,0.958
11.0,1.0,0.959
14.0,-2.0,0.96
9.0,-5.0,0.961
10.0,-6.0,0.962
19.0,-7.0,0.963
33.0,-6.0,0.964
50.0,-4.0,0.965
64.0,-2.0,0.966
65.0,-2.0,0.967
50.0,-3.0,0.968
33.0,-2.0,0.969
28.0,0.0,0.97
29.0,4.0,0.971
15.0,8.0,0.972
-20.0,14.0,0.973
-54.0,17.0,0.974
-70.0,14.0,0.975
-65.0,7.0,0.976
-50.0,2.0,0.977
-28.0,3.0,0.978
-7.0,6.0,0.979
2.0,5.0,0.98
5.0,-2.0,0.981
11.0,-6.0,0.982
23.0,-5.0,0.983
29.0,-2.0,0.984
23.0,-1.0,0.985
13.0,-4.0,0.986
0.0,-7.0,0.987
-16.0,-10.0,0.988
-35.0,-9.0,0.989
-48.0,-9.0,0.99
-57.0,-7.0,0.991
-67.0,-4.0,0.992
-81.0,-3.0,0.993
-93.0,1.0,0.994
-101.0,1.0,0.995
-104.0,-2.0,0.996
-98.0,-3.0,0.997
-83.0,-2.0,0.998
-64.0,0.0,0.999
-47.0,-2.0,1.0
-22.0,-10.0,1.001
15.0,-12.0,1.002
63.0,-8.0,1.003
110.0,4.0,1.004
144.0,16.0,1.005
152.0,20.0,1.006
132.0,12.0,1.007
105.0,0.0,1.008
91.0,-4.0,1.009
86.0,2.0,1.01
70.0,8.0,1.011
49.0,5.0,1.012
45.0,0.0,1.013
58.0,0.0,1.014
64.0,2.0,1.015
55.0,1.0,1.016
54.0,2.0,1.017
62.0,5.0,1.018
69.0,6.0,1.019
69.0,4.0,1.02
77.0,-3.0,1.021
90.0,-6.0,1.022
98.0,-6.0,1.023
92.0,-6.0,1.024
84.0,-5.0,1.025
76.0,-2.0,1.026
59.0,-3.0,1.027
28.0,-6.0,1.028
-4.0,-8.0,1.029
-29.0,-4.0,1.03
-49.0,-3.0,1.031
-64.0,-6.0,1.032
-73.0,-7.0,1.033
-77.0,-5.0,1.034
-76.0,-4.0,1.035
-67.0,-2.0,1.036
-46.0,0.0,1.037
-27.0,3.0,1.038
-15.0,4.0,1.039
-12.0,1.0,1.04
-8.0,-3.0,1.041
1.0,-2.0,1.042
8.0,0.0,1.043
13.0,3.0,1.044
15.0,4.0,1.045
6.0,4.0,1.046
-15.0,0.0,1.047
-42.0,-3.0,1.048
-65.0,-2.0,1.049
-82.0,-3.0,1.05
-93.0,-3.0,1.051
-99.0,-3.0,1.052
-101.0,0.0,1.053
-104.0,4.0,1.054
-109.0,3.0,1.055
-104.0,1.0,1.056
-85.0,3.0,1.057
-58.0,4.0,1.058
-34.0,2.0,1.059
-19.0,-1.0,1.06
-9.0,-4.0,1.061
4.0,-1.0,1.062
24.0,0.0,1.063
42.0,0.0,1.064
47.0,-1.0,1.065
38.0,-3.0,1.066
23.0,-3.0,1.067
6.0,-5.0,1.068
-14.0,-6.0,1.069
-34.0,-7.0,1.07
-46.0,-10.0,1.071
-47.0,-11.0,1.072
-45.0,-8.0,1.073
-45.0,-4.0,1.074
-42.0,-4.0,1.075
-29.0,-7.0,1.076
-13.0,-5.0,1.077
4.0,-3.0,1.078
24.0,0.0,1.079
45.0,4.0,1.08
60.0,4.0,1.081
69.0,4.0,1.082
83.0,3.0,1.083
98.0,6.0,1.084
103.0,10.0,1.085
91.0,9.0,1.086
72.0,5.0,1.087
52.0,2.0,1.088
33.0,4.0,1.089
16.0,6.0,1.09
3.0,3.0,1.091
-5.0,1.0,1.092
-13.0,5.0,1.093
-22.0,10.0,1.094
-30.0,13.0,1.095
-31.0,13.0,1.096
-24.0,14.0,1.097
-5.0,14.0,1.098
20.0,9.0,1.099
33.0,4.0,1.1
36.0,-1.0,1.101
41.0,-3.0,1.102
55.0,-4.0,1.103
69.0,-5.0,1.104
67.0,-4.0,1.105
54.0,-2.0,1.106
37.0,-6.0,1.107
17.0,-10.0,1.108
-6.0,-9.0,1.109
-28.0,-6.0,1.11
-44.0,-3.0,1.111
-56.0,-4.0,1.112
-68.0,-4.0,1.113
-76.0,-3.0,1.114
-77.0,-4.0,1.115
-70.0,-5.0,1.116
-57.0,-4.0,1.117
-35.0,-3.0,1.118
-11.0,-1.0,1.119
10.0,-2.0,1.12
21.0,-3.0,1.121
31.0,-2.0,1.122
46.0,0.0,1.123
58.0,1.0,1.124
58.0,0.0,1.125
44.0,-1.0,1.126
26.0,-6.0,1.127
10.0,-9.0,1.128
-6.0,-10.0,1.129
-26.0,-7.0,1.13
-42.0,-4.0,1.131
-50.0,-4.0,1.132
-52.0,-5.0,1.133
-54.0,-3.0,1.134
-54.0,-1.0,1.135
-46.0,-1.0,1.136
-26.0,-1.0,1.137
-5.0,1.0,1.138
16.0,6.0,1.139
29.0,8.0,1.14
38.0,1.0,1.141
50.0,-3.0,1.142
64.0,-1.0,1.143
79.0,5.0,1.144
87.0,10.0,1.145
82.0,10.0,1.146
67.0,4.0,1.147
48.0,-2.0,1.148
24.0,-4.0,1.149
0.0,-4.0,1.15
-17.0,-4.0,1.151
-25.0,-6.0,1.152
-31.0,-5.0,1.153
-40.0,0.0,1.154
-49.0,3.0,1.155
-43.0,0.0,1.156
-24.0,-2.0,1.157
-3.0,1.0,1.158
13.0,5.0,1.159
20.0,4.0,1.16
28.0,-4.0,1.161
43.0,-5.0,1.162
60.0,-1.0,1.163
68.0,4.0,1.164
65.0,4.0,1.165
54.0,1.0,1.166
41.0,-1.0,1.167
26.0,-2.0,1.168
7.0,-1.0,1.169
-18.0,0.0,1.17
-38.0,-1.0,1.171
-49.0,-2.0,1.172
-51.0,-1.0,1.173
-56.0,-1.0,1.174
-61.0,-2.0,1.175
-58.0,-3.0,1.176
-41.0,0.0,1.177
-20.0,5.0,1.178
-3.0,7.0,1.179
6.0,4.0,1.18
17.0,-1.0,1.181
31.0,-1.0,1.182
47.0,0.0,1.183
59.0,-1.0,1.184
62.0,-1.0,1.185
54.0,1.0,1.186
38.0,0.0,1.187
19.0,-4.0,1.188
-1.0,-8.0,1.189
-18.0,-6.0,1.19
-32.0,-1.0,1.191
-41.0,0.0,1.192
-49.0,0.0,1.193
-57.0,-2.0,1.194
-61.0,-4.0,1.195
-54.0,-6.0,1.196
-38.0,0.0,1.197
-14.0,3.0,1.198
9.0,2.0,1.199
22.0,-3.0,1.2
28.0,-7.0,1.201
35.0,-4.0,1.202
47.0,0.0,1.203
63.0,-1.0,1.204
71.0,-1.0,1.205
64.0,2.0,1.206
46.0,3.0,1.207
23.0,-2.0,1.208
0.0,-5.0,1.209
-16.0,-5.0,1.21
-26.0,-4.0,1.211
-30.0,-5.0,1.212
-35.0,-6.0,1.213
-41.0,-2.0,1.214
-45.0,0.0,1.215
-44.0,-1.0,1.216
-35.0,1.0,1.217
-19.0,3.0,1.218
-1.0,4.0,1.219
14.0,1.0,1.22
28.0,-5.0,1.221
44.0,-3.0,1.222
60.0,1.0,1.223
73.0,5.0,1.224
76.0,7.0,1.225
68.0,5.0,1.226
52.0,0.0,1.227
30.0,-7.0,1.228
10.0,-8.0,1.229
-9.0,-5.0,1.23
-23.0,-1.0,1.231
-37.0,0.0,1.232
-52.0,0.0,1.233
-61.0,0.0,1.234
-65.0,2.0,1.235
-60.0,3.0,1.236
-47.0,4.0,1.237
-26.0,0.0,1.238
-1.0,0.0,1.239
14.0,-1.0,1.24
20.0,-3.0,1.241
26.0,-2.0,1.242
40.0,0.0,1.243
52.0,1.0,1.244
56.0,2.0,1.245
50.0,4.0,1.246
38.0,4.0,1.247
21.0,0.0,1.248
0.0,-6.0,1.249
-18.0,-7.0,1.25
-31.0,-4.0,1.251
-39.0,0.0,1.252
-48.0,-1.0,1.253
-56.0,-5.0,1.254
-58.0,-3.0,1.255
-51.0,3.0,1.256
-34.0,6.0,1.257
-16.0,0.0,1.258
2.0,-3.0,1.259
15.0,-2.0,1.26
25.0,0.0,1.261
37.0,1.0,1.262
51.0,2.0,1.263
62.0,2.0,1.264
64.0,3.0,1.265
56.0,5.0,1.266
45.0,3.0,1.267
30.0,-1.0,1.268
12.0,-6.0,1.269
-8.0,-8.0,1.27
-25.0,-6.0,1.271
-35.0,-7.0,1.272
-40.0,-7.0,1.273
-41.0,-6.0,1.274
-42.0,0.0,1.275
-45.0,6.0,1.276
-39.0,7.0,1.277
-23.0,4.0,1.278
2.0,1.0,1.279
22.0,0.0,1.28
32.0,-4.0,1.281
40.0,-3.0,1.282
52.0,0.0,1.283
67.0,2.0,1.284
73.0,2.0,1.285
67.0,4.0,1.286
49.0,2.0,1.287
25.0,-1.0,1.288
-1.0,-4.0,1.289
-22.0,-4.0,1.29
-33.0,-1.0,1.291
-41.0,1.0,1.292
-48.0,0.0,1.293
-52.0,0.0,1.294
-51.0,-2.0,1.295
-44.0,-1.0,1.296
-34.0,2.0,1.297
-19.0,3.0,1.298
0.0,3.0,1.299
14.0,0.0,1.3
23.0,-1.0,1.301
31.0,1.0,1.302
46.0,2.0,1.303
59.0,2.0,1.304
65.0,2.0,1.305
58.0,2.0,1.306
44.0,-1.0,1.307
21.0,-7.0,1.308
-6.0,-9.0,1.309
-24.0,-6.0,1.31
-31.0,-5.0,1.311
-36.0,-6.0,1.312
-47.0,-7.0,1.313
-59.0,-5.0,1.314
-63.0,-1.0,1.315
-59.0,0.0,1.316
-47.0,2.0,1.317
-29.0,3.0,1.318
-7.0,2.0,1.319
9.0,0.0,1.32
22.0,-3.0,1.321
39.0,-1.0,1.322
61.0,3.0,1.323
71.0,5.0,1.324
66.0,4.0,1.325
55.0,2.0,1.326
49.0,0.0,1.327
36.0,0.0,1.328
11.0,-2.0,1.329
-15.0,-4.0,1.33
-28.0,-5.0,1.331
-36.0,-3.0,1.332
-48.0,-3.0,1.333
-59.0,-8.0,1.334
-56.0,-8.0,1.335
-45.0,-6.0,1.336
-34.0,1.0,1.337
-22.0,3.0,1.338
-4.0,1.0,1.339
16.0,1.0,1.34
30.0,-2.0,1.341
38.0,-4.0,1.342
49.0,-2.0,1.343
63.0,1.0,1.344
65.0,5.0,1.345
56.0,6.0,1.346
44.0,4.0,1.347
31.0,2.0,1.348
11.0,-1.0,1.349
-11.0,-6.0,1.35
-25.0,-9.0,1.351
-33.0,-8.0,1.352
-40.0,-5.0,1.353
-49.0,-3.0,1.354
-54.0,-2.0,1.355
-52.0,0.0,1.356
-47.0,2.0,1.357
-39.0,-1.0,1.358
-22.0,-2.0,1.359
4.0,1.0,1.36
28.0,2.0,1.361
45.0,4.0,1.362
58.0,2.0,1.363
71.0,0.0,1.364
79.0,-2.0,1.365
78.0,1.0,1.366
67.0,3.0,1.367
47.0,0.0,1.368
23.0,-5.0,1.369
1.0,-7.0,1.37
-15.0,-3.0,1.371
-27.0,0.0,1.372
-38.0,-3.0,1.373
-48.0,-3.0,1.374
-54.0,1.0,1.375
-52.0,0.0,1.376
-42.0,-3.0,1.377
-27.0,-5.0,1.378
-11.0,1.0,1.379
-1.0,6.0,1.38
8.0,2.0,1.381
21.0,-3.0,1.382
39.0,-2.0,1.383
55.0,1.0,1.384
61.0,4.0,1.385
60.0,2.0,1.386
50.0,1.0,1.387
32.0,-2.0,1.388
9.0,-5.0,1.389
-11.0,-5.0,1.39
-23.0,-1.0,1.391
-31.0,3.0,1.392
-45.0,4.0,1.393
-59.0,3.0,1.394
-63.0,0.0,1.395
-55.0,-2.0,1.396
-41.0,1.0,1.397
-25.0,4.0,1.398
-7.0,5.0,1.399
11.0,3.0,1.4
24.0,-3.0,1.401
31.0,-2.0,1.402
41.0,1.0,1.403
54.0,0.0,1.404
59.0,-1.0,1.405
52.0,1.0,1.406
38.0,3.0,1.407
25.0,0.0,1.408
8.0,-5.0,1.409
-14.0,-7.0,1.41
-34.0,-8.0,1.411
-46.0,-8.0,1.412
-57.0,-7.0,1.413
-70.0,-4.0,1.414
-78.0,-3.0,1.415
-71.0,-4.0,1.416
-50.0,-1.0,1.417
-27.0,0.0,1.418
-3.0,4.0,1.419
24.0,7.0,1.42
51.0,7.0,1.421
68.0,7.0,1.422
72.0,5.0,1.423
73.0,4.0,1.424
73.0,2.0,1.425
66.0,1.0,1.426
45.0,0.0,1.427
16.0,-2.0,1.428
-9.0,-4.0,1.429
-24.0,-6.0,1.43
-32.0,-9.0,1.431
-38.0,-11.0,1.432
-44.0,-8.0,1.433
-47.0,-5.0,1.434
-44.0,-5.0,1.435
-39.0,-3.0,1.436
-31.0,1.0,1.437
-20.0,4.0,1.438
-7.0,5.0,1.439
3.0,6.0,1.44
11.0,2.0,1.441
20.0,-1.0,1.442
35.0,-5.0,1.443
52.0,-3.0,1.444
62.0,1.0,1.445
60.0,4.0,1.446
50.0,4.0,1.447
33.0,3.0,1.448
7.0,4.0,1.449
-19.0,1.0,1.45
-39.0,-3.0,1.451
-49.0,-7.0,1.452
-53.0,-10.0,1.453
-50.0,-8.0,1.454
-42.0,-5.0,1.455
-33.0,1.0,1.456
-24.0,9.0,1.457
-12.0,9.0,1.458
2.0,4.0,1.459
19.0,-2.0,1.46
33.0,-6.0,1.461
48.0,-2.0,1.462
60.0,6.0,1.463
65.0,9.0,1.464
60.0,4.0,1.465
52.0,-3.0,1.466
40.0,-3.0,1.467
19.0,0.0,1.468
-9.0,-1.0,1.469
-29.0,-4.0,1.47
-39.0,-6.0,1.471
-47.0,-7.0,1.472
-58.0,-5.0,1.473
-65.0,-3.0,1.474
-65.0,-3.0,1.475
-61.0,-4.0,1.476
-53.0,-2.0,1.477
-38.0,0.0,1.478
-12.0,4.0,1.479
13.0,4.0,1.48
30.0,0.0,1.481
39.0,2.0,1.482
51.0,7.0,1.483
64.0,11.0,1.484
69.0,9.0,1.485
67.0,4.0,1.486
59.0,0.0,1.487
46.0,-2.0,1.488
26.0,-5.0,1.489
2.0,-9.0,1.49
-16.0,-12.0,1.491
-27.0,-13.0,1.492
-33.0,-10.0,1.493
-40.0,-7.0,1.494
-45.0,-4.0,1.495
-45.0,-2.0,1.496
-36.0,0.0,1.497
-20.0,2.0,1.498
0.0,4.0,1.499
17.0,2.0,1.5
26.0,0.0,1.501
37.0,0.0,1.502
52.0,5.0,1.503
67.0,7.0,1.504
73.0,4.0,1.505
68.0,0.0,1.506
58.0,-2.0,1.507
41.0,0.0,1.508
17.0,0.0,1.509
-5.0,-2.0,1.51
-18.0,-6.0,1.511
-24.0,-6.0,1.512
-37.0,-3.0,1.513
-51.0,2.0,1.514
-57.0,3.0,1.515
-55.0,3.0,1.516
-46.0,2.0,1.517
-30.0,-1.0,1.518
-10.0,-2.0,1.519
6.0,0.0,1.52
13.0,1.0,1.521
21.0,2.0,1.522
39.0,1.0,1.523
57.0,1.0,1.524
58.0,3.0,1.525
50.0,6.0,1.526
43.0,3.0,1.527
30.0,-4.0,1.528
4.0,-8.0,1.529
-25.0,-9.0,1.53
-42.0,-6.0,1.531
-50.0,-5.0,1.532
-58.0,-7.0,1.533
-63.0,-10.0,1.534
-57.0,-11.0,1.535
-45.0,-8.0,1.536
-35.0,-1.0,1.537
-23.0,4.0,1.538
-3.0,7.0,1.539
11.0,7.0,1.54
17.0,4.0,1.541
21.0,3.0,1.542
37.0,1.0,1.543
54.0,-1.0,1.544
63.0,0.0,1.545
60.0,3.0,1.546
51.0,3.0,1.547
35.0,-2.0,1.548
11.0,-5.0,1.549
-9.0,-4.0,1.55
-21.0,-1.0,1.551
-26.0,-2.0,1.552
-33.0,0.0,1.553
-42.0,6.0,1.554
-47.0,9.0,1.555
-45.0,7.0,1.556
-40.0,5.0,1.557
-33.0,4.0,1.558
-18.0,7.0,1.559
0.0,5.0,1.56
20.0,-2.0,1.561
43.0,-4.0,1.562
70.0,-1.0,1.563
87.0,-1.0,1.564
85.0,-2.0,1.565
70.0,1.0,1.566
50.0,7.0,1.567
29.0,10.0,1.568
1.0,5.0,1.569
-27.0,-4.0,1.57
-43.0,-11.0,1.571
-49.0,-14.0,1.572
-49.0,-19.0,1.573
-43.0,-27.0,1.574
-33.0,-30.0,1.575
-21.0,-23.0,1.576
-11.0,-11.0,1.577
0.0,-3.0,1.578
15.0,-3.0,1.579
23.0,-6.0,1.58
23.0,-6.0,1.581
20.0,0.0,1.582
22.0,8.0,1.583
31.0,8.0,1.584
37.0,5.0,1.585
42.0,9.0,1.586
43.0,16.0,1.587
34.0,20.0,1.588
12.0,18.0,1.589
-13.0,14.0,1.59
-25.0,11.0,1.591
-29.0,8.0,1.592
-36.0,3.0,1.593
-47.0,3.0,1.594
-54.0,5.0,1.595
-51.0,7.0,1.596
-38.0,7.0,1.597
-19.0,8.0,1.598
1.0,12.0,1.599
12.0,12.0,1.6
14.0,-4.0,1.601
14.0,-20.0,1.602
29.0,-27.0,1.603
50.0,-25.0,1.604
60.0,-22.0,1.605
62.0,-23.0,1.606
66.0,-23.0,1.607
66.0,-16.0,1.608
43.0,-6.0,1.609
2.0,-1.0,1.61
-28.0,1.0,1.611
-40.0,2.0,1.612
-47.0,5.0,1.613
-58.0,10.0,1.614
-61.0,11.0,1.615
-51.0,8.0,1.616
-43.0,7.0,1.617
-44.0,9.0,1.618
-37.0,12.0,1.619
-13.0,12.0,1.62
14.0,4.0,1.621
28.0,-1.0,1.622
32.0,1.0,1.623
38.0,4.0,1.624
46.0,8.0,1.625
51.0,7.0,1.626
48.0,4.0,1.627
37.0,0.0,1.628
18.0,-1.0,1.629
1.0,-2.0,1.63
3.0,-3.0,1.631
11.0,-5.0,1.632
3.0,-3.0,1.633
-21.0,4.0,1.634
-33.0,9.0,1.635
-21.0,6.0,1.636
-4.0,0.0,1.637
0.0,-3.0,1.638
-1.0,1.0,1.639
11.0,5.0,1.64
33.0,0.0,1.641
48.0,-6.0,1.642
50.0,-4.0,1.643
46.0,2.0,1.644
41.0,3.0,1.645
37.0,0.0,1.646
38.0,-3.0,1.647
42.0,-2.0,1.648
36.0,-2.0,1.649
17.0,-2.0,1.65
1.0,-3.0,1.651
-3.0,-2.0,1.652
-15.0,5.0,1.653
-48.0,10.0,1.654
-90.0,7.0,1.655
-109.0,-3.0,1.656
-96.0,-8.0,1.657
-74.0,-5.0,1.658
-62.0,-1.0,1.659
-57.0,-7.0,1.66
-41.0,-16.0,1.661
-9.0,-17.0,1.662
30.0,-11.0,1.663
63.0,-11.0,1.664
83.0,-13.0,1.665
90.0,-8.0,1.666
91.0,-1.0,1.667
82.0,0.0,1.668
55.0,2.0,1.669
19.0,10.0,1.67
-13.0,20.0,1.671
-35.0,17.0,1.672
-50.0,2.0,1.673
-64.0,-8.0,1.674
-73.0,-13.0,1.675
-71.0,-17.0,1.676
-59.0,-18.0,1.677
-40.0,-15.0,1.678
-17.0,-5.0,1.679
2.0,0.0,1.68
16.0,-1.0,1.681
30.0,0.0,1.682
46.0,5.0,1.683
62.0,7.0,1.684
67.0,6.0,1.685
58.0,5.0,1.686
42.0,9.0,1.687
23.0,9.0,1.688
2.0,3.0,1.689
-13.0,0.0,1.69
-19.0,3.0,1.691
-20.0,5.0,1.692
-24.0,0.0,1.693
-29.0,-7.0,1.694
-30.0,-11.0,1.695
-27.0,-8.0,1.696
-24.0,0.0,1.697
-20.0,3.0,1.698
-9.0,0.0,1.699
8.0,-7.0,1.7
26.0,-10.0,1.701
37.0,-4.0,1.702
45.0,6.0,1.703
54.0,12.0,1.704
62.0,12.0,1.705
68.0,9.0,1.706
67.0,6.0,1.707
51.0,2.0,1.708
22.0,-1.0,1.709
-4.0,-1.0,1.71
-13.0,0.0,1.711
-16.0,5.0,1.712
-25.0,8.0,1.713
-42.0,6.0,1.714
-50.0,1.0,1.715
-50.0,-2.0,1.716
-47.0,-1.0,1.717
-38.0,-2.0,1.718
-21.0,-4.0,1.719
-3.0,-2.0,1.72
7.0,1.0,1.721
11.0,4.0,1.722
16.0,1.0,1.723
22.0,-3.0,1.724
22.0,-3.0,1.725
17.0,1.0,1.726
19.0,1.0,1.727
25.0,-6.0,1.728
23.0,-11.0,1.729
12.0,-9.0,1.73
4.0,-5.0,1.731
3.0,-4.0,1.732
-3.0,-6.0,1.733
-20.0,-8.0,1.734
-37.0,-6.0,1.735
-42.0,-4.0,1.736
-35.0,0.0,1.737
-25.0,5.0,1.738
-18.0,11.0,1.739
-5.0,12.0,1.74
14.0,4.0,1.741
31.0,-4.0,1.742
42.0,-5.0,1.743
45.0,-3.0,1.744
47.0,-4.0,1.745
45.0,-5.0,1.746
38.0,-6.0,1.747
23.0,-3.0,1.748
7.0,0.0,1.749
-8.0,-1.0,1.75
-20.0,0.0,1.751
-28.0,0.0,1.752
-35.0,-2.0,1.753
-39.0,-5.0,1.754
-45.0,-6.0,1.755
-58.0,-3.0,1.756
-65.0,1.0,1.757
-54.0,1.0,1.758
-21.0,1.0,1.759
13.0,3.0,1.76
36.0,2.0,1.761
52.0,0.0,1.762
66.0,-1.0,1.763
70.0,0.0,1.764
60.0,-1.0,1.765
47.0,-1.0,1.766
48.0,0.0,1.767
51.0,0.0,1.768
41.0,-2.0,1.769
22.0,-7.0,1.77
16.0,-4.0,1.771
24.0,7.0,1.772
18.0,18.0,1.773
-16.0,18.0,1.774
-51.0,6.0,1.775
-60.0,-6.0,1.776
-51.0,-7.0,1.777
-40.0,-1.0,1.778
-30.0,2.0,1.779
-15.0,0.0,1.78
7.0,-7.0,1.781
22.0,-5.0,1.782
27.0,5.0,1.783
32.0,12.0,1.784
37.0,15.0,1.785
38.0,17.0,1.786
34.0,16.0,1.787
28.0,6.0,1.788
18.0,-10.0,1.789
-4.0,-21.0,1.79
-34.0,-22.0,1.791
-64.0,-19.0,1.792
-82.0,-18.0,1.793
-82.0,-20.0,1.794
-67.0,-16.0,1.795
-43.0,-9.0,1.796
-16.0,-2.0,1.797
15.0,-2.0,1.798
45.0,-3.0,1.799
58.0,-5.0,1.8
50.0,-7.0,1.801
37.0,-6.0,1.802
41.0,-6.0,1.803
55.0,-8.0,1.804
60.0,-6.0,1.805
50.0,0.0,1.806
39.0,4.0,1.807
28.0,2.0,1.808
7.0,1.0,1.809
-20.0,3.0,1.81
-41.0,7.0,1.811
-46.0,7.0,1.812
-47.0,6.0,1.813
-53.0,7.0,1.814
-58.0,9.0,1.815
-60.0,8.0,1.816
-54.0,9.0,1.817
-41.0,8.0,1.818
-22.0,11.0,1.819
-8.0,9.0,1.82
-4.0,0.0,1.821
0.0,-4.0,1.822
18.0,-5.0,1.823
43.0,-3.0,1.824
60.0,-3.0,1.825
65.0,0.0,1.826
67.0,0.0,1.827
61.0,-1.0,1.828
39.0,0.0,1.829
1.0,8.0,1.83
-33.0,17.0,1.831
-48.0,13.0,1.832
-51.0,2.0,1.833
-56.0,-2.0,1.834
-63.0,2.0,1.835
-54.0,6.0,1.836
-25.0,3.0,1.837
4.0,1.0,1.838
19.0,5.0,1.839
19.0,8.0,1.84
20.0,-1.0,1.841
32.0,-8.0,1.842
46.0,-8.0,1.843
56.0,-2.0,1.844
58.0,3.0,1.845
62.0,3.0,1.846
67.0,-2.0,1.847
69.0,-8.0,1.848
54.0,-10.0,1.849
26.0,-10.0,1.85
1.0,-11.0,1.851
-9.0,-13.0,1.852
-10.0,-14.0,1.853
-12.0,-10.0,1.854
-18.0,-6.0,1.855
-23.0,-5.0,1.856
-26.0,-4.0,1.857
-29.0,-4.0,1.858
-20.0,-1.0,1.859
1.0,3.0,1.86
19.0,4.0,1.861
14.0,5.0,1.862
-15.0,4.0,1.863
-57.0,4.0,1.864
-87.0,6.0,1.865
-88.0,9.0,1.866
-63.0,8.0,1.867
-41.0,0.0,1.868
-43.0,-9.0,1.869
-55.0,-12.0,1.87
-54.0,-9.0,1.871
-44.0,-5.0,1.872
-46.0,-4.0,1.873
-57.0,-3.0,1.874
-59.0,-2.0,1.875
-45.0,-2.0,1.876
-27.0,0.0,1.877
-10.0,3.0,1.878
12.0,10.0,1.879
35.0,8.0,1.88
49.0,-1.0,1.881
57.0,-4.0,1.882
73.0,-2.0,1.883
90.0,0.0,1.884
94.0,-1.0,1.885
83.0,0.0,1.886
70.0,1.0,1.887
60.0,4.0,1.888
47.0,8.0,1.889
33.0,9.0,1.89
25.0,4.0,1.891
27.0,-5.0,1.892
36.0,-9.0,1.893
52.0,-6.0,1.894
69.0,2.0,1.895
64.0,8.0,1.896
38.0,10.0,1.897
16.0,3.0,1.898
18.0,-6.0,1.899
23.0,-13.0,1.9
9.0,-14.0,1.901
-4.0,-11.0,1.902
18.0,-10.0,1.903
56.0,-7.0,1.904
70.0,-1.0,1.905
61.0,8.0,1.906
55.0,9.0,1.907
52.0,3.0,1.908
29.0,-1.0,1.909
-11.0,-1.0,1.91
-39.0,-3.0,1.911
-49.0,-6.0,1.912
-52.0,-5.0,1.913
-59.0,-1.0,1.914
-64.0,1.0,1.915
-64.0,0.0,1.916
-64.0,0.0,1.917
-54.0,0.0,1.918
-32.0,-1.0,1.919
-13.0,-2.0,1.92
0.0,-4.0,1.921
14.0,-2.0,1.922
29.0,0.0,1.923
41.0,2.0,1.924
43.0,8.0,1.925
45.0,12.0,1.926
41.0,7.0,1.927
32.0,0.0,1.928
9.0,-3.0,1.929
-11.0,-2.0,1.93
-24.0,-4.0,1.931
-38.0,-4.0,1.932
-55.0,-1.0,1.933
-68.0,2.0,1.934
-63.0,2.0,1.935
-54.0,0.0,1.936
-33.0,2.0,1.937
-10.0,4.0,1.938
12.0,5.0,1.939
27.0,5.0,1.94
33.0,3.0,1.941
35.0,1.0,1.942
42.0,-1.0,1.943
55.0,-1.0,1.944
67.0,0.0,1.945
64.0,4.0,1.946
51.0,4.0,1.947
33.0,1.0,1.948
16.0,-2.0,1.949
-3.0,-3.0,1.95
-22.0,-5.0,1.951
-38.0,-5.0,1.952
-48.0,-2.0,1.953
-54.0,-3.0,1.954
-60.0,-7.0,1.955
-65.0,-9.0,1.956
-58.0,-5.0,1.957
-46.0,-3.0,1.958
-26.0,-2.0,1.959
-8.0,-4.0,1.96
6.0,-5.0,1.961
17.0,-5.0,1.962
30.0,-3.0,1.963
46.0,0.0,1.964
58.0,5.0,1.965
60.0,9.0,1.966
55.0,5.0,1.967
43.0,-2.0,1.968
23.0,-5.0,1.969
-3.0,-5.0,1.97
-25.0,-4.0,1.971
-39.0,-4.0,1.972
-42.0,-4.0,1.973
-35.0,-4.0,1.974
-28.0,-5.0,1.975
-31.0,-1.0,1.976
-36.0,6.0,1.977
-29.0,11.0,1.978
-10.0,11.0,1.979
5.0,8.0,1.98
13.0,4.0,1.981
25.0,3.0,1.982
47.0,4.0,1.983
59.0,3.0,1.984
52.0,2.0,1.985
42.0,3.0,1.986
40.0,3.0,1.987
33.0,0.0,1.988
13.0,0.0,1.989
-11.0,0.0,1.99
-26.0,0.0,1.991
-32.0,-5.0,1.992
-41.0,-9.0,1.993
-50.0,-5.0,1.994
-53.0,-1.0,1.995
-54.0,-3.0,1.996
-56.0,-4.0,1.997
-52.0,-4.0,1.998
-35.0,-1.0,1.999
-13.0,-1.0,2.0
9.0,-5.0,2.001
28.0,-4.0,2.002
45.0,1.0,2.003
58.0,3.0,2.004
61.0,3.0,2.005
64.0,3.0,2.006
68.0,3.0,2.007
63.0,4.0,2.008
43.0,3.0,2.009
17.0,0.0,2.01
-5.0,-5.0,2.011
-19.0,-8.0,2.012
-29.0,-7.0,2.013
-37.0,-5.0,2.014
-43.0,-5.0,2.015
-45.0,-7.0,2.016
-45.0,-3.0,2.017
-39.0,1.0,2.018
-20.0,4.0,2.019
0.0,2.0,2.02
13.0,-2.0,2.021
22.0,-2.0,2.022
37.0,-1.0,2.023
53.0,-1.0,2.024
58.0,1.0,2.025
54.0,4.0,2.026
46.0,4.0,2.027
39.0,0.0,2.028
25.0,-2.0,2.029
3.0,0.0,2.03
-17.0,2.0,2.031
-33.0,1.0,2.032
-46.0,-3.0,2.033
-56.0,-7.0,2.034
-64.0,-9.0,2.035
-68.0,-9.0,2.036
-66.0,-7.0,2.037
-54.0,-4.0,2.038
-32.0,-4.0,2.039
-15.0,-4.0,2.04
-5.0,-7.0,2.041
12.0,-6.0,2.042
44.0,-1.0,2.043
78.0,5.0,2.044
97.0,10.0,2.045
107.0,8.0,2.046
119.0,2.0,2.047
118.0,3.0,2.048
85.0,12.0,2.049
34.0,18.0,2.05
-4.0,10.0,2.051
-24.0,-2.0,2.052
-45.0,-7.0,2.053
-68.0,-5.0,2.054
-75.0,-6.0,2.055
-69.0,-7.0,2.056
-65.0,-2.0,2.057
-65.0,4.0,2.058
-53.0,6.0,2.059
-31.0,1.0,2.06
-11.0,-3.0,2.061
1.0,-3.0,2.062
18.0,-4.0,2.063
38.0,-7.0,2.064
47.0,-5.0,2.065
40.0,-3.0,2.066
30.0,-6.0,2.067
24.0,-12.0,2.068
15.0,-12.0,2.069
0.0,-8.0,2.07
-8.0,-8.0,2.071
-7.0,-13.0,2.072
-4.0,-12.0,2.073
-13.0,-6.0,2.074
-27.0,-1.0,2.075
-41.0,3.0,2.076
-47.0,6.0,2.077
-38.0,3.0,2.078
-18.0,-2.0,2.079
-2.0,-4.0,2.08
0.0,0.0,2.081
-3.0,7.0,2.082
-5.0,5.0,2.083
0.0,0.0,2.084
13.0,0.0,2.085
40.0,1.0,2.086
75.0,0.0,2.087
94.0,0.0,2.088
90.0,3.0,2.089
73.0,10.0,2.09
53.0,12.0,2.091
26.0,14.0,2.092
-8.0,19.0,2.093
-33.0,19.0,2.094
-43.0,9.0,2.095
-50.0,-1.0,2.096
-62.0,-1.0,2.097
-63.0,3.0,2.098
-38.0,3.0,2.099
-2.0,1.0,2.1
18.0,0.0,2.101
23.0,0.0,2.102
32.0,-2.0,2.103
45.0,-6.0,2.104
50.0,-3.0,2.105
45.0,-2.0,2.106
46.0,-7.0,2.107
52.0,-14.0,2.108
47.0,-11.0,2.109
28.0,0.0,2.11
5.0,8.0,2.111
-12.0,5.0,2.112
-29.0,0.0,2.113
-48.0,-3.0,2.114
-59.0,-5.0,2.115
-63.0,-7.0,2.116
-63.0,-7.0,2.117
-59.0,-6.0,2.118
-41.0,-3.0,2.119
-13.0,-2.0,2.12
7.0,-3.0,2.121
18.0,-3.0,2.122
28.0,-1.0,2.123
41.0,1.0,2.124
44.0,4.0,2.125
36.0,5.0,2.126
31.0,1.0,2.127
32.0,-3.0,2.128
24.0,-5.0,2.129
3.0,-3.0,2.13
-13.0,-1.0,2.131
-18.0,-2.0,2.132
-24.0,-4.0,2.133
-39.0,-2.0,2.134
-54.0,-2.0,2.135
-58.0,-1.0,2.136
-54.0,1.0,2.137
-44.0,3.0,2.138
-25.0,2.0,2.139
-4.0,-3.0,2.14
12.0,-8.0,2.141
17.0,-8.0,2.142
25.0,-5.0,2.143
44.0,-4.0,2.144
66.0,-5.0,2.145
87.0,-5.0,2.146
104.0,2.0,2.147
105.0,13.0,2.148
81.0,23.0,2.149
38.0,19.0,2.15
-4.0,4.0,2.151
-28.0,-7.0,2.152
-36.0,-9.0,2.153
-42.0,-3.0,2.154
-52.0,0.0,2.155
-64.0,-2.0,2.156
-70.0,-3.0,2.157
-64.0,-3.0,2.158
-46.0,-4.0,2.159
-26.0,-6.0,2.16
-12.0,-10.0,2.161
2.0,-7.0,2.162
24.0,-3.0,2.163
42.0,-3.0,2.164
44.0,-3.0,2.165
33.0,-2.0,2.166
30.0,-2.0,2.167
42.0,-3.0,2.168
50.0,-1.0,2.169
39.0,5.0,2.17
19.0,8.0,2.171
4.0,4.0,2.172
-4.0,-2.0,2.173
-22.0,0.0,2.174
-40.0,6.0,2.175
-43.0,5.0,2.176
-33.0,0.0,2.177
-27.0,-3.0,2.178
-26.0,0.0,2.179
-24.0,2.0,2.18
-13.0,-3.0,2.181
3.0,-7.0,2.182
21.0,-6.0,2.183
40.0,-3.0,2.184
62.0,0.0,2.185
76.0,2.0,2.186
74.0,5.0,2.187
56.0,8.0,2.188
34.0,6.0,2.189
16.0,1.0,2.19
2.0,0.0,2.191
-18.0,2.0,2.192
-44.0,2.0,2.193
-68.0,-5.0,2.194
-80.0,-12.0,2.195
-79.0,-11.0,2.196
-72.0,-2.0,2.197
-55.0,2.0,2.198
-25.0,1.0,2.199
5.0,2.0,2.2
25.0,0.0,2.201
38.0,-1.0,2.202
52.0,-1.0,2.203
62.0,-1.0,2.204
59.0,0.0,2.205
48.0,0.0,2.206
46.0,-1.0,2.207
49.0,3.0,2.208
37.0,9.0,2.209
8.0,9.0,2.21
-18.0,1.0,2.211
-29.0,-8.0,2.212
-34.0,-7.0,2.213
-42.0,0.0,2.214
-51.0,3.0,2.215
-52.0,-2.0,2.216
-48.0,-6.0,2.217
-43.0,-5.0,2.218
-34.0,2.0,2.219
-23.0,4.0,2.22
-15.0,-3.0,2.221
-10.0,-5.0,2.222
1.0,-2.0,2.223
18.0,2.0,2.224
32.0,2.0,2.225
45.0,0.0,2.226
65.0,0.0,2.227
84.0,0.0,2.228
82.0,0.0,2.229
56.0,2.0,2.23
29.0,5.0,2.231
14.0,4.0,2.232
-2.0,0.0,2.233
-30.0,0.0,2.234
-52.0,0.0,2.235
-49.0,-5.0,2.236
-29.0,-4.0,2.237
-12.0,-3.0,2.238
-4.0,0.0,2.239
4.0,-3.0,2.24
15.0,-10.0,2.241
24.0,-8.0,2.242
27.0,0.0,2.243
31.0,6.0,2.244
37.0,8.0,2.245
43.0,11.0,2.246
43.0,11.0,2.247
36.0,6.0,2.248
24.0,-2.0,2.249
7.0,-5.0,2.25
-9.0,-6.0,2.251
-20.0,-6.0,2.252
-29.0,-4.0,2.253
-38.0,-1.0,2.254
-48.0,-1.0,2.255
-56.0,-4.0,2.256
-56.0,-2.0,2.257
-51.0,3.0,2.258
-38.0,4.0,2.259
-24.0,-1.0,2.26
-6.0,-7.0,2.261
10.0,-3.0,2.262
23.0,0.0,2.263
37.0,-1.0,2.264
50.0,-1.0,2.265
57.0,4.0,2.266
56.0,3.0,2.267
43.0,-4.0,2.268
20.0,-8.0,2.269
-8.0,-4.0,2.27
-26.0,0.0,2.271
-33.0,-6.0,2.272
-39.0,-10.0,2.273
-47.0,-6.0,2.274
-48.0,0.0,2.275
-40.0,-1.0,2.276
-31.0,-2.0,2.277
-32.0,-1.0,2.278
-30.0,0.0,2.279
-19.0,-3.0,2.28
3.0,-7.0,2.281
29.0,-4.0,2.282
57.0,5.0,2.283
84.0,10.0,2.284
101.0,11.0,2.285
105.0,10.0,2.286
103.0,9.0,2.287
96.0,6.0,2.288
69.0,4.0,2.289
20.0,4.0,2.29
-22.0,5.0,2.291
-38.0,3.0,2.292
-43.0,0.0,2.293
-54.0,0.0,2.294
-66.0,-2.0,2.295
-66.0,-4.0,2.296
-60.0,-2.0,2.297
-55.0,-3.0,2.298
-43.0,-2.0,2.299
-20.0,-5.0,2.3
4.0,-9.0,2.301
16.0,-8.0,2.302
24.0,-5.0,2.303
38.0,-1.0,2.304
53.0,0.0,2.305
57.0,0.0,2.306
54.0,-1.0,2.307
46.0,-4.0,2.308
33.0,-6.0,2.309
9.0,-8.0,2.31
-14.0,-8.0,2.311
-29.0,-6.0,2.312
-39.0,-1.0,2.313
-51.0,3.0,2.314
-56.0,0.0,2.315
-50.0,-8.0,2.316
-41.0,-8.0,2.317
-39.0,-4.0,2.318
-38.0,4.0,2.319
-31.0,5.0,2.32
-15.0,-1.0,2.321
13.0,0.0,2.322
47.0,0.0,2.323
74.0,0.0,2.324
81.0,0.0,2.325
73.0,3.0,2.326
66.0,3.0,2.327
59.0,1.0,2.328
42.0,-1.0,2.329
21.0,0.0,2.33
14.0,1.0,2.331
17.0,5.0,2.332
9.0,10.0,2.333
-14.0,10.0,2.334
-41.0,6.0,2.335
-58.0,-5.0,2.336
-63.0,-10.0,2.337
-60.0,-7.0,2.338
-46.0,-1.0,2.339
-34.0,5.0,2.34
-26.0,2.0,2.341
-14.0,-1.0,2.342
16.0,-2.0,2.343
51.0,-1.0,2.344
68.0,0.0,2.345
70.0,1.0,2.346
64.0,0.0,2.347
50.0,-1.0,2.348
18.0,-4.0,2.349
-20.0,-8.0,2.35
-32.0,-11.0,2.351
-20.0,-10.0,2.352
-9.0,-9.0,2.353
-10.0,-10.0,2.354
-9.0,-10.0,2.355
0.0,-5.0,2.356
3.0,6.0,2.357
-11.0,13.0,2.358
-25.0,14.0,2.359
-24.0,9.0,2.36
-10.0,0.0,2.361
3.0,-3.0,2.362
12.0,-2.0,2.363
25.0,0.0,2.364
37.0,2.0,2.365
42.0,1.0,2.366
44.0,-3.0,2.367
43.0,-6.0,2.368
35.0,-2.0,2.369
15.0,4.0,2.37
-10.0,8.0,2.371
-30.0,4.0,2.372
-45.0,-2.0,2.373
-57.0,-6.0,2.374
-56.0,-6.0,2.375
-46.0,-3.0,2.376
-35.0,2.0,2.377
-29.0,7.0,2.378
-22.0,8.0,2.379
-6.0,4.0,2.38
10.0,-3.0,2.381
20.0,-5.0,2.382
26.0,-4.0,2.383
33.0,-1.0,2.384
36.0,-1.0,2.385
37.0,-2.0,2.386
41.0,-4.0,2.387
51.0,-6.0,2.388
58.0,-9.0,2.389
53.0,-11.0,2.39
43.0,-8.0,2.391
29.0,2.0,2.392
8.0,14.0,2.393
-20.0,14.0,2.394
-44.0,5.0,2.395
-54.0,-1.0,2.396
-56.0,3.0,2.397
-60.0,5.0,2.398
-56.0,1.0,2.399
-40.0,-4.0,2.4
-16.0,-7.0,2.401
2.0,-6.0,2.402
17.0,-4.0,2.403
34.0,-4.0,2.404
48.0,0.0,2.405
54.0,1.0,2.406
51.0,-1.0,2.407
43.0,-3.0,2.408
29.0,-3.0,2.409
13.0,-1.0,2.41
0.0,-4.0,2.411
-6.0,-4.0,2.412
-17.0,2.0,2.413
-29.0,8.0,2.414
-35.0,3.0,2.415
-34.0,-4.0,2.416
-38.0,-3.0,2.417
-49.0,1.0,2.418
-43.0,1.0,2.419
-18.0,-2.0,2.42
3.0,-2.0,2.421
11.0,4.0,2.422
19.0,6.0,2.423
38.0,0.0,2.424
51.0,-1.0,2.425
48.0,2.0,2.426
40.0,2.0,2.427
36.0,-1.0,2.428
24.0,-1.0,2.429
0.0,4.0,2.43
-20.0,4.0,2.431
-29.0,-5.0,2.432
-34.0,-12.0,2.433
-42.0,-8.0,2.434
-43.0,-2.0,2.435
-35.0,0.0,2.436
-23.0,0.0,2.437
-9.0,0.0,2.438
13.0,3.0,2.439
35.0,5.0,2.44
39.0,4.0,2.441
31.0,6.0,2.442
30.0,6.0,2.443
36.0,3.0,2.444
39.0,4.0,2.445
36.0,7.0,2.446
43.0,5.0,2.447
56.0,-6.0,2.448
55.0,-13.0,2.449
29.0,-9.0,2.45
-1.0,-2.0,2.451
-21.0,-2.0,2.452
-37.0,-6.0,2.453
-56.0,-6.0,2.454
-68.0,-3.0,2.455
-67.0,-4.0,2.456
-64.0,-3.0,2.457
-67.0,-4.0,2.458
-60.0,-1.0,2.459
-38.0,-2.0,2.46
-9.0,-6.0,2.461
15.0,-5.0,2.462
38.0,-3.0,2.463
60.0,-4.0,2.464
73.0,-3.0,2.465
73.0,1.0,2.466
69.0,6.0,2.467
68.0,6.0,2.468
57.0,5.0,2.469
29.0,7.0,2.47
-5.0,8.0,2.471
-33.0,3.0,2.472
-47.0,-5.0,2.473
-49.0,-7.0,2.474
-45.0,-6.0,2.475
-39.0,-4.0,2.476
-33.0,-3.0,2.477
-23.0,-1.0,2.478
-6.0,3.0,2.479
11.0,9.0,2.48
23.0,10.0,2.481
33.0,9.0,2.482
49.0,4.0,2.483
60.0,2.0,2.484
58.0,7.0,2.485
48.0,10.0,2.486
42.0,6.0,2.487
38.0,0.0,2.488
22.0,-1.0,2.489
-6.0,1.0,2.49
-30.0,-4.0,2.491
-43.0,-12.0,2.492
-54.0,-15.0,2.493
-64.0,-10.0,2.494
-70.0,-4.0,2.495
-67.0,-2.0,2.496
-58.0,1.0,2.497
-49.0,4.0,2.498
-34.0,3.0,2.499
-12.0,-2.0,2.5
14.0,-8.0,2.501
41.0,-8.0,2.502
65.0,-2.0,2.503
80.0,5.0,2.504
82.0,10.0,2.505
71.0,8.0,2.506
52.0,0.0,2.507
32.0,-3.0,2.508
19.0,-1.0,2.509
11.0,4.0,2.51
3.0,4.0,2.511
-11.0,2.0,2.512
-30.0,4.0,2.513
-46.0,11.0,2.514
-47.0,19.0,2.515
-44.0,23.0,2.516
-47.0,22.0,2.517
-53.0,5.0,2.518
-45.0,-15.0,2.519
-17.0,-25.0,2.52
12.0,-19.0,2.521
28.0,-7.0,2.522
37.0,-3.0,2.523
54.0,-5.0,2.524
75.0,-7.0,2.525
81.0,-6.0,2.526
73.0,-7.0,2.527
63.0,-13.0,2.528
51.0,-17.0,2.529
29.0,-19.0,2.53
-2.0,-19.0,2.531
-29.0,-18.0,2.532
-45.0,-20.0,2.533
-58.0,-22.0,2.534
-66.0,-24.0,2.535
-70.0,-22.0,2.536
-69.0,-13.0,2.537
-68.0,-6.0,2.538
-60.0,0.0,2.539
-39.0,2.0,2.54
-14.0,5.0,2.541
3.0,11.0,2.542
18.0,17.0,2.543
31.0,23.0,2.544
39.0,27.0,2.545
33.0,28.0,2.546
28.0,20.0,2.547
35.0,12.0,2.548
42.0,9.0,2.549
31.0,12.0,2.55
11.0,16.0,2.551
-3.0,22.0,2.552
-16.0,30.0,2.553
-41.0,33.0,2.554
-67.0,27.0,2.555
-65.0,9.0,2.556
-32.0,-8.0,2.557
8.0,-20.0,2.558
37.0,-26.0,2.559
54.0,-29.0,2.56
65.0,-32.0,2.561
68.0,-29.0,2.562
65.0,-20.0,2.563
56.0,-5.0,2.564
42.0,13.0,2.565
31.0,26.0,2.566
32.0,27.0,2.567
39.0,23.0,2.568
31.0,22.0,2.569
-1.0,18.0,2.57
-39.0,7.0,2.571
-68.0,-11.0,2.572
-88.0,-23.0,2.573
-96.0,-25.0,2.574
-78.0,-21.0,2.575
-34.0,-13.0,2.576
6.0,-2.0,2.577
24.0,12.0,2.578
35.0,31.0,2.579
47.0,53.0,2.58
47.0,72.0,2.581
23.0,68.0,2.582
-3.0,24.0,2.583
-6.0,-36.0,2.584
7.0,-78.0,2.585
13.0,-89.0,2.586
12.0,-92.0,2.587
15.0,-100.0,2.588
16.0,-101.0,2.589
2.0,-84.0,2.59
-17.0,-59.0,2.591
-26.0,-37.0,2.592
-32.0,-16.0,2.593
-49.0,3.0,2.594
-72.0,9.0,2.595
-68.0,-1.0,2.596
-27.0,-5.0,2.597
27.0,11.0,2.598
60.0,42.0,2.599
57.0,64.0,2.6
45.0,60.0,2.601
51.0,49.0,2.602
75.0,45.0,2.603
96.0,61.0,2.604
99.0,89.0,2.605
90.0,109.0,2.606
73.0,100.0,2.607
45.0,71.0,2.608
1.0,49.0,2.609
-44.0,37.0,2.61
-76.0,17.0,2.611
-83.0,-16.0,2.612
-72.0,-50.0,2.613
-53.0,-74.0,2.614
-35.0,-88.0,2.615
-25.0,-99.0,2.616
-28.0,-105.0,2.617
-37.0,-105.0,2.618
-30.0,-94.0,2.619
-6.0,-69.0,2.62
18.0,-34.0,2.621
12.0,0.0,2.622
-7.0,17.0,2.623
-9.0,22.0,2.624
7.0,33.0,2.625
22.0,48.0,2.626
23.0,51.0,2.627
18.0,39.0,2.628
5.0,26.0,2.629
-22.0,19.0,2.63
-52.0,16.0,2.631
-59.0,10.0,2.632
-43.0,9.0,2.633
-33.0,17.0,2.634
-37.0,26.0,2.635
-38.0,24.0,2.636
-33.0,18.0,2.637
-45.0,12.0,2.638
-59.0,10.0,2.639
-37.0,7.0,2.64
25.0,-2.0,2.641
86.0,-5.0,2.642
117.0,1.0,2.643
145.0,10.0,2.644
178.0,15.0,2.645
188.0,12.0,2.646
157.0,2.0,2.647
115.0,-2.0,2.648
85.0,-3.0,2.649
51.0,-4.0,2.65
1.0,-7.0,2.651
-41.0,-13.0,2.652
-57.0,-14.0,2.653
-62.0,-11.0,2.654
-76.0,-7.0,2.655
-88.0,-6.0,2.656
-83.0,-4.0,2.657
-71.0,-3.0,2.658
-67.0,0.0,2.659
-67.0,-1.0,2.66
-59.0,-8.0,2.661
-46.0,-14.0,2.662
-34.0,-15.0,2.663
-22.0,-11.0,2.664
-7.0,-7.0,2.665
10.0,-7.0,2.666
27.0,-9.0,2.667
42.0,-4.0,2.668
42.0,7.0,2.669
20.0,17.0,2.67
-6.0,23.0,2.671
-15.0,29.0,2.672
-7.0,30.0,2.673
-9.0,23.0,2.674
-30.0,4.0,2.675
-49.0,-19.0,2.676
-39.0,-37.0,2.677
-1.0,-48.0,2.678
46.0,-50.0,2.679
84.0,-43.0,2.68
109.0,-33.0,2.681
117.0,-17.0,2.682
108.0,-2.0,2.683
79.0,7.0,2.684
40.0,11.0,2.685
4.0,11.0,2.686
-15.0,12.0,2.687
-16.0,12.0,2.688
-16.0,11.0,2.689
-29.0,6.0,2.69
-54.0,-3.0,2.691
-71.0,-14.0,2.692
-74.0,-19.0,2.693
-66.0,-13.0,2.694
-52.0,-5.0,2.695
-38.0,-4.0,2.696
-32.0,-4.0,2.697
-37.0,0.0,2.698
-44.0,17.0,2.699
-44.0,36.0,2.7
-39.0,44.0,2.701
-43.0,45.0,2.702
-43.0,39.0,2.703
-25.0,34.0,2.704
15.0,39.0,2.705
70.0,56.0,2.706
126.0,71.0,2.707
166.0,68.0,2.708
178.0,48.0,2.709
168.0,23.0,2.71
152.0,-9.0,2.711
131.0,-45.0,2.712
90.0,-76.0,2.713
40.0,-92.0,2.714
8.0,-97.0,2.715
-11.0,-94.0,2.716
-39.0,-83.0,2.717
-84.0,-75.0,2.718
-115.0,-75.0,2.719
-117.0,-73.0,2.72
-108.0,-38.0,2.721
-98.0,38.0,2.722
-71.0,111.0,2.723
-34.0,147.0,2.724
-25.0,151.0,2.725
-58.0,144.0,2.726
-90.0,130.0,2.727
-81.0,94.0,2.728
-57.0,42.0,2.729
-67.0,-11.0,2.73
-95.0,-62.0,2.731
-70.0,-101.0,2.732
33.0,-117.0,2.733
133.0,-112.0,2.734
156.0,-105.0,2.735
121.0,-105.0,2.736
100.0,-100.0,2.737
88.0,-86.0,2.738
19.0,-75.0,2.739
-130.0,-81.0,2.74
-273.0,-99.0,2.741
-313.0,-106.0,2.742
-223.0,-97.0,2.743
-39.0,-72.0,2.744
168.0,-32.0,2.745
318.0,12.0,2.746
369.0,47.0,2.747
348.0,63.0,2.748
291.0,71.0,2.749
183.0,87.0,2.75
10.0,116.0,2.751
-179.0,143.0,2.752
-307.0,153.0,2.753
-330.0,142.0,2.754
-257.0,121.0,2.755
-119.0,94.0,2.756
19.0,55.0,2.757
121.0,-6.0,2.758
185.0,-63.0,2.759
241.0,-83.0,2.76
262.0,-71.0,2.761
188.0,-61.0,2.762
56.0,-81.0,2.763
-9.0,-110.0,2.764
27.0,-103.0,2.765
68.0,-51.0,2.766
52.0,9.0,2.767
34.0,35.0,2.768
48.0,26.0,2.769
41.0,12.0,2.77
-25.0,17.0,2.771
-88.0,27.0,2.772
-90.0,21.0,2.773
-65.0,9.0,2.774
-64.0,17.0,2.775
-70.0,43.0,2.776
-59.0,62.0,2.777
-65.0,69.0,2.778
-112.0,79.0,2.779
-166.0,87.0,2.78
-160.0,64.0,2.781
-96.0,25.0,2.782
-32.0,1.0,2.783
-4.0,12.0,2.784
8.0,43.0,2.785
49.0,69.0,2.786
131.0,74.0,2.787
204.0,61.0,2.788
205.0,48.0,2.789
126.0,53.0,2.79
25.0,73.0,2.791
-59.0,79.0,2.792
-118.0,58.0,2.793
-135.0,20.0,2.794
-96.0,-28.0,2.795
-35.0,-81.0,2.796
-18.0,-123.0,2.797
-59.0,-138.0,2.798
-115.0,-128.0,2.799
-177.0,-118.0,2.8
-272.0,-108.0,2.801
-344.0,-95.0,2.802
-261.0,-71.0,2.803
-14.0,-50.0,2.804
223.0,-38.0,2.805
325.0,-4.0,2.806
361.0,91.0,2.807
405.0,185.0,2.808
359.0,276.0,2.809
139.0,310.0,2.81
-90.0,169.0,2.811
-105.0,63.0,2.812
52.0,65.0,2.813
163.0,45.0,2.814
175.0,-46.0,2.815
208.0,-150.0,2.816
275.0,-292.0,2.817
262.0,-400.0,2.818
153.0,-362.0,2.819
76.0,-264.0,2.82
77.0,-112.0,2.821
47.0,82.0,2.822
-52.0,227.0,2.823
-132.0,230.0,2.824
-147.0,113.0,2.825
-157.0,-7.0,2.826
-176.0,-68.0,2.827
-151.0,-119.0,2.828
-117.0,-226.0,2.829
-174.0,-356.0,2.83
-290.0,-438.0,2.831
-274.0,-452.0,2.832
-56.0,-405.0,2.833
188.0,-274.0,2.834
240.0,-62.0,2.835
106.0,143.0,2.836
-29.0,265.0,2.837
-62.0,366.0,2.838
-15.0,565.0,2.839
43.0,872.0,2.84
103.0,1116.0,2.841
146.0,1104.0,2.842
85.0,799.0,2.843
-128.0,375.0,2.844
-393.0,56.0,2.845
-566.0,-110.0,2.846
-657.0,-256.0,2.847
-817.0,-462.0,2.848
-1078.0,-639.0,2.849
-1228.0,-715.0,2.85
-1052.0,-782.0,2.851
-606.0,-941.0,2.852
-183.0,-1099.0,2.853
36.0,-1088.0,2.854
144.0,-895.0,2.855
280.0,-619.0,2.856
385.0,-339.0,2.857
328.0,-57.0,2.858
171.0,144.0,2.859
145.0,227.0,2.86
329.0,295.0,2.861
561.0,448.0,2.862
734.0,617.0,2.863
947.0,663.0,2.864
1230.0,569.0,2.865
1410.0,441.0,2.866
1346.0,348.0,2.867
1115.0,294.0,2.868
830.0,275.0,2.869
486.0,313.0,2.87
113.0,395.0,2.871
-126.0,477.0,2.872
-172.0,494.0,2.873
-199.0,411.0,2.874
-332.0,252.0,2.875
-421.0,78.0,2.876
-302.0,-73.0,2.877
-42.0,-246.0,2.878
140.0,-439.0,2.879
192.0,-562.0,2.88
203.0,-512.0,2.881
162.0,-317.0,2.882
-32.0,-138.0,2.883
-319.0,-94.0,2.884
-460.0,-126.0,2.885
-332.0,-82.0,2.886
-89.0,83.0,2.887
32.0,268.0,2.888
-17.0,392.0,2.889
-126.0,470.0,2.89
-230.0,496.0,2.891
-389.0,381.0,2.892
-624.0,115.0,2.893
-821.0,-138.0,2.894
-859.0,-263.0,2.895
-759.0,-356.0,2.896
-646.0,-528.0,2.897
-587.0,-736.0,2.898
-574.0,-816.0,2.899
-571.0,-751.0,2.9
-540.0,-626.0,2.901
-443.0,-444.0,2.902
-292.0,-194.0,2.903
-146.0,31.0,2.904
-48.0,155.0,2.905
40.0,271.0,2.906
159.0,467.0,2.907
272.0,652.0,2.908
320.0,711.0,2.909
319.0,719.0,2.91
332.0,797.0,2.911
373.0,881.0,2.912
399.0,817.0,2.913
416.0,631.0,2.914
490.0,477.0,2.915
634.0,390.0,2.916
742.0,270.0,2.917
727.0,16.0,2.918
629.0,-321.0,2.919
563.0,-656.0,2.92
557.0,-965.0,2.921
581.0,-1218.0,2.922
669.0,-1339.0,2.923
828.0,-1255.0,2.924
875.0,-988.0,2.925
634.0,-630.0,2.926
249.0,-244.0,2.927
64.0,154.0,2.928
135.0,491.0,2.929
204.0,644.0,2.93
154.0,600.0,2.931
144.0,516.0,2.932
207.0,525.0,2.933
123.0,591.0,2.934
-186.0,617.0,2.935
-466.0,587.0,2.936
-517.0,522.0,2.937
-443.0,367.0,2.938
-392.0,108.0,2.939
-291.0,-164.0,2.94
-57.0,-344.0,2.941
159.0,-413.0,2.942
171.0,-426.0,2.943
29.0,-442.0,2.944
-118.0,-504.0,2.945
-263.0,-603.0,2.946
-461.0,-634.0,2.947
-624.0,-493.0,2.948
-611.0,-226.0,2.949
-443.0,36.0,2.95
-274.0,235.0,2.951
-219.0,381.0,2.952
-293.0,436.0,2.953
-446.0,345.0,2.954
-564.0,161.0,2.955
-535.0,-6.0,2.956
-389.0,-131.0,2.957
-260.0,-269.0,2.958
-258.0,-378.0,2.959
-326.0,-367.0,2.96
-291.0,-246.0,2.961
-65.0,-111.0,2.962
262.0,-5.0,2.963
498.0,121.0,2.964
510.0,269.0,2.965
370.0,367.0,2.966
254.0,416.0,2.967
222.0,502.0,2.968
159.0,639.0,2.969
-1.0,694.0,2.97
-142.0,546.0,2.971
-142.0,267.0,2.972
-95.0,30.0,2.973
-162.0,-91.0,2.974
-299.0,-166.0,2.975
-326.0,-248.0,2.976
-245.0,-285.0,2.977
-232.0,-206.0,2.978
-362.0,-30.0,2.979
-499.0,103.0,2.98
-515.0,70.0,2.981
-465.0,-78.0,2.982
-431.0,-178.0,2.983
-389.0,-142.0,2.984
-324.0,-53.0,2.985
-307.0,-36.0,2.986
-353.0,-95.0,2.987
-349.0,-159.0,2.988
-216.0,-204.0,2.989
-65.0,-271.0,2.99
-51.0,-370.0,2.991
-161.0,-465.0,2.992
-243.0,-531.0,2.993
-194.0,-541.0,2.994
-46.0,-460.0,2.995
149.0,-285.0,2.996
345.0,-87.0,2.997
484.0,94.0,2.998
430.0,250.0,2.999
152.0,406.0,3.0
-122.0,551.0,3.001
-79.0,652.0,3.002
357.0,689.0,3.003
916.0,671.0,3.004
1267.0,603.0,3.005
1317.0,476.0,3.006
1167.0,285.0,3.007
896.0,64.0,3.008
538.0,-141.0,3.009
213.0,-315.0,3.01
109.0,-474.0,3.011
264.0,-617.0,3.012
479.0,-697.0,3.013
523.0,-653.0,3.014
337.0,-496.0,3.015
48.0,-311.0,3.016
-170.0,-178.0,3.017
-239.0,-85.0,3.018
-159.0,40.0,3.019
4.0,257.0,3.02
200.0,519.0,3.021
399.0,709.0,3.022
535.0,738.0,3.023
535.0,652.0,3.024
429.0,555.0,3.025
330.0,460.0,3.026
268.0,292.0,3.027
165.0,24.0,3.028
-1.0,-240.0,3.029
-194.0,-384.0,3.03
-428.0,-404.0,3.031
-709.0,-386.0,3.032
-860.0,-374.0,3.033
-672.0,-334.0,3.034
-263.0,-240.0,3.035
21.0,-122.0,3.036
58.0,-25.0,3.037
28.0,45.0,3.038
44.0,88.0,3.039
-26.0,102.0,3.04
-250.0,103.0,3.041
-416.0,142.0,3.042
-344.0,215.0,3.043
-195.0,245.0,3.044
-216.0,172.0,3.045
-378.0,29.0,3.046
-474.0,-101.0,3.047
-444.0,-201.0,3.048
-385.0,-309.0,3.049
-339.0,-410.0,3.05
-251.0,-433.0,3.051
-147.0,-355.0,3.052
-125.0,-238.0,3.053
-192.0,-143.0,3.054
-248.0,-79.0,3.055
-231.0,-42.0,3.056
-192.0,-41.0,3.057
-180.0,-64.0,3.058
-163.0,-50.0,3.059
-132.0,-4.0,3.06
-163.0,-11.0,3.061
-281.0,-86.0,3.062
-297.0,-113.0,3.063
-2.0,6.0,3.064
479.0,204.0,3.065
766.0,340.0,3.066
700.0,391.0,3.067
513.0,444.0,3.068
415.0,539.0,3.069
330.0,610.0,3.07
160.0,595.0,3.071
22.0,513.0,3.072
10.0,411.0,3.073
-26.0,275.0,3.074
-204.0,58.0,3.075
-343.0,-236.0,3.076
-240.0,-507.0,3.077
28.0,-691.0,3.078
201.0,-734.0,3.079
209.0,-636.0,3.08
195.0,-438.0,3.081
195.0,-210.0,3.082
79.0,-47.0,3.083
-164.0,21.0,3.084
-340.0,64.0,3.085
-278.0,143.0,3.086
-36.0,229.0,3.087
203.0,277.0,3.088
331.0,286.0,3.089
371.0,277.0,3.09
385.0,240.0,3.091
382.0,163.0,3.092
325.0,61.0,3.093
208.0,-53.0,3.094
77.0,-187.0,3.095
-40.0,-325.0,3.096
-142.0,-432.0,3.097
-229.0,-490.0,3.098
-244.0,-450.0,3.099
-191.0,-271.0,3.1
-150.0,-17.0,3.101
-155.0,166.0,3.102
-114.0,216.0,3.103
26.0,220.0,3.104
139.0,238.0,3.105
43.0,201.0,3.106
-250.0,88.0,3.107
-504.0,28.0,3.108
-469.0,119.0,3.109
-136.0,240.0,3.11
257.0,219.0,3.111
473.0,68.0,3.112
478.0,-47.0,3.113
367.0,-32.0,3.114
189.0,53.0,3.115
-38.0,96.0,3.116
-210.0,57.0,3.117
-243.0,-33.0,3.118
-177.0,-98.0,3.119
-129.0,-136.0,3.12
-106.0,-215.0,3.121
-44.0,-321.0,3.122
24.0,-319.0,3.123
20.0,-131.0,3.124
-20.0,118.0,3.125
-2.0,238.0,3.126
41.0,215.0,3.127
10.0,164.0,3.128
-73.0,143.0,3.129
-101.0,97.0,3.13
-47.0,5.0,3.131
30.0,-67.0,3.132
128.0,-62.0,3.133
269.0,-7.0,3.134
382.0,9.0,3.135
356.0,-45.0,3.136
213.0,-95.0,3.137
43.0,-52.0,3.138
-84.0,57.0,3.139
-178.0,67.0,3.14
-193.0,-108.0,3.141
-38.0,-335.0,3.142
238.0,-457.0,3.143
440.0,-470.0,3.144
459.0,-438.0,3.145
365.0,-346.0,3.146
218.0,-178.0,3.147
-10.0,-22.0,3.148
-284.0,50.0,3.149
-464.0,97.0,3.15
-487.0,192.0,3.151
-431.0,307.0,3.152
-369.0,391.0,3.153
-299.0,469.0,3.154
-234.0,544.0,3.155
-199.0,547.0,3.156
-169.0,449.0,3.157
-107.0,290.0,3.158
-69.0,113.0,3.159
-112.0,-91.0,3.16
-182.0,-287.0,3.161
-206.0,-361.0,3.162
-191.0,-285.0,3.163
-145.0,-152.0,3.164
7.0,-23.0,3.165
281.0,150.0,3.166
520.0,372.0,3.167
576.0,508.0,3.168
486.0,439.0,3.169
359.0,227.0,3.17
199.0,14.0,3.171
-17.0,-160.0,3.172
-227.0,-353.0,3.173
-318.0,-559.0,3.174
-259.0,-673.0,3.175
-103.0,-649.0,3.176
35.0,-563.0,3.177
43.0,-494.0,3.178
-107.0,-417.0,3.179
-262.0,-250.0,3.18
-230.0,0.0,3.181
-26.0,234.0,3.182
181.0,371.0,3.183
297.0,414.0,3.184
315.0,412.0,3.185
214.0,397.0,3.186
32.0,371.0,3.187
-48.0,297.0,3.188
88.0,165.0,3.189
237.0,31.0,3.19
113.0,-16.0,3.191
-233.0,38.0,3.192
-449.0,134.0,3.193
-306.0,201.0,3.194
80.0,215.0,3.195
463.0,160.0,3.196
694.0,69.0,3.197
766.0,22.0,3.198
693.0,96.0,3.199
506.0,208.0,3.2
258.0,190.0,3.201
11.0,8.0,3.202
-152.0,-231.0,3.203
-187.0,-447.0,3.204
-165.0,-608.0,3.205
-195.0,-624.0,3.206
-252.0,-398.0,3.207
-211.0,-20.0,3.208
-74.0,273.0,3.209
-26.0,362.0,3.21
-183.0,310.0,3.211
-420.0,179.0,3.212
-553.0,-36.0,3.213
-564.0,-283.0,3.214
-513.0,-421.0,3.215
-381.0,-390.0,3.216
-179.0,-260.0,3.217
-32.0,-69.0,3.218
-99.0,170.0,3.219
-295.0,360.0,3.22
-339.0,347.0,3.221
-79.0,137.0,3.222
342.0,-99.0,3.223
668.0,-227.0,3.224
779.0,-268.0,3.225
750.0,-272.0,3.226
698.0,-215.0,3.227
619.0,-101.0,3.228
437.0,-29.0,3.229
159.0,-58.0,3.23
-75.0,-91.0,3.231
-184.0,40.0,3.232
-244.0,381.0,3.233
-333.0,778.0,3.234
-390.0,992.0,3.235
-343.0,921.0,3.236
-256.0,694.0,3.237
-220.0,433.0,3.238
-234.0,146.0,3.239
-236.0,-275.0,3.24
-205.0,-824.0,3.241
-164.0,-1287.0,3.242
-122.0,-1475.0,3.243
-114.0,-1402.0,3.244
-170.0,-1191.0,3.245
-258.0,-894.0,3.246
-315.0,-507.0,3.247
-338.0,-91.0,3.248
-335.0,244.0,3.249
-236.0,439.0,3.25
-2.0,539.0,3.251
224.0,607.0,3.252
272.0,652.0,3.253
172.0,658.0,3.254
105.0,650.0,3.255
137.0,678.0,3.256
199.0,728.0,3.257
274.0,696.0,3.258
416.0,512.0,3.259
600.0,269.0,3.26
696.0,151.0,3.261
604.0,204.0,3.262
346.0,255.0,3.263
30.0,144.0,3.264
-235.0,-81.0,3.265
-368.0,-285.0,3.266
-359.0,-443.0,3.267
-282.0,-598.0,3.268
-257.0,-706.0,3.269
-333.0,-671.0,3.27
-403.0,-507.0,3.271
-268.0,-329.0,3.272
120.0,-169.0,3.273
535.0,66.0,3.274
680.0,422.0,3.275
508.0,778.0,3.276
255.0,983.0,3.277
87.0,998.0,3.278
-10.0,883.0,3.279
-112.0,690.0,3.28
-231.0,263.0,3.281
-312.0,-161.0,3.282
-274.0,-573.0,3.283
-204.0,-900.0,3.284
-37.0,-973.0,3.285
132.0,-981.0,3.286
306.0,-793.0,3.287
440.0,-540.0,3.288
452.0,-95.0,3.289
389.0,277.0,3.29
96.0,429.0,3.291
-175.0,517.0,3.292
-379.0,410.0,3.293
-554.0,327.0,3.294
-638.0,313.0,3.295
-556.0,288.0,3.296
29.0,228.0,3.297
550.0,116.0,3.298
630.0,-239.0,3.299
436.0,-695.0,3.3
283.0,-1052.0,3.301
151.0,-1163.0,3.302
-65.0,-1060.0,3.303
-258.0,-865.0,3.304
-359.0,-622.0,3.305
-493.0,-314.0,3.306
-652.0,-1.0,3.307
-568.0,208.0,3.308
-165.0,333.0,3.309
246.0,489.0,3.31
403.0,680.0,3.311
387.0,757.0,3.312
357.0,637.0,3.313
289.0,442.0,3.314
150.0,313.0,3.315
14.0,238.0,3.316
-80.0,154.0,3.317
-198.0,56.0,3.318
-320.0,4.0,3.319
-345.0,-1.0,3.32
-276.0,11.0,3.321
-235.0,48.0,3.322
-256.0,86.0,3.323
-249.0,68.0,3.324
-167.0,-7.0,3.325
-67.0,-41.0,3.326
10.0,34.0,3.327
93.0,173.0,3.328
183.0,277.0,3.329
225.0,290.0,3.33
168.0,204.0,3.331
27.0,55.0,3.332
-137.0,-85.0,3.333
-273.0,-176.0,3.334
-345.0,-250.0,3.335
-311.0,-307.0,3.336
-164.0,-282.0,3.337
80.0,-132.0,3.338
325.0,55.0,3.339
503.0,157.0,3.34
599.0,155.0,3.341
617.0,90.0,3.342
543.0,-28.0,3.343
381.0,-151.0,3.344
168.0,-167.0,3.345
-44.0,-58.0,3.346
-203.0,36.0,3.347
-251.0,16.0,3.348
-191.0,-29.0,3.349
-112.0,19.0,3.35
-88.0,125.0,3.351
-86.0,176.0,3.352
-30.0,147.0,3.353
84.0,84.0,3.354
204.0,8.0,3.355
315.0,-63.0,3.356
404.0,-76.0,3.357
411.0,6.0,3.358
298.0,137.0,3.359
140.0,232.0,3.36
55.0,265.0,3.361
46.0,275.0,3.362
36.0,280.0,3.363
0.0,247.0,3.364
-36.0,120.0,3.365
-78.0,-122.0,3.366
-142.0,-403.0,3.367
-185.0,-587.0,3.368
-173.0,-596.0,3.369
-131.0,-497.0,3.37
-86.0,-403.0,3.371
-31.0,-339.0,3.372
16.0,-254.0,3.373
-6.0,-139.0,3.374
-94.0,-47.0,3.375
-156.0,-8.0,3.376
-145.0,6.0,3.377
-116.0,23.0,3.378
-128.0,41.0,3.379
-156.0,52.0,3.38
-149.0,60.0,3.381
-115.0,76.0,3.382
-80.0,101.0,3.383
-46.0,136.0,3.384
-24.0,173.0,3.385
-27.0,191.0,3.386
-42.0,186.0,3.387
-41.0,173.0,3.388
-40.0,156.0,3.389
-76.0,128.0,3.39
-140.0,96.0,3.391
-184.0,77.0,3.392
-183.0,61.0,3.393
-151.0,16.0,3.394
-112.0,-45.0,3.395
-77.0,-73.0,3.396
-56.0,-46.0,3.397
-54.0,-1.0,3.398
-57.0,20.0,3.399
-52.0,6.0,3.4
-34.0,-22.0,3.401
2.0,-38.0,3.402
54.0,-34.0,3.403
91.0,-17.0,3.404
81.0,-10.0,3.405
54.0,-26.0,3.406
68.0,-46.0,3.407
123.0,-44.0,3.408
163.0,-22.0,3.409
163.0,-13.0,3.41
151.0,-21.0,3.411
147.0,-19.0,3.412
131.0,9.0,3.413
97.0,38.0,3.414
79.0,36.0,3.415
86.0,11.0,3.416
96.0,-2.0,3.417
92.0,7.0,3.418
78.0,17.0,3.419
51.0,8.0,3.42
8.0,-14.0,3.421
-23.0,-24.0,3.422
-9.0,-19.0,3.423
25.0,-14.0,3.424
30.0,-12.0,3.425
16.0,-8.0,3.426
33.0,-4.0,3.427
100.0,-10.0,3.428
164.0,-22.0,3.429
182.0,-24.0,3.43
160.0,-15.0,3.431
130.0,-6.0,3.432
112.0,0.0,3.433
95.0,1.0,3.434
70.0,-8.0,3.435
47.0,-23.0,3.436
43.0,-23.0,3.437
53.0,4.0,3.438
55.0,37.0,3.439
33.0,39.0,3.44
14.0,13.0,3.441
20.0,-2.0,3.442
29.0,2.0,3.443
5.0,4.0,3.444
-39.0,-1.0,3.445
-66.0,-4.0,3.446
-65.0,1.0,3.447
-53.0,5.0,3.448
-49.0,2.0,3.449
-56.0,-2.0,3.45
-81.0,-5.0,3.451
-112.0,-8.0,3.452
-129.0,-9.0,3.453
-125.0,-7.0,3.454
-123.0,-6.0,3.455
-135.0,-8.0,3.456
-146.0,-10.0,3.457
-153.0,-10.0,3.458
-164.0,-7.0,3.459
-179.0,-5.0,3.46
-175.0,-5.0,3.461
-131.0,-1.0,3.462
-67.0,2.0,3.463
-10.0,6.0,3.464
28.0,16.0,3.465
52.0,33.0,3.466
65.0,48.0,3.467
65.0,56.0,3.468
46.0,53.0,3.469
14.0,36.0,3.47
-14.0,1.0,3.471
-19.0,-33.0,3.472
-10.0,-50.0,3.473
-10.0,-52.0,3.474
-34.0,-47.0,3.475
-69.0,-40.0,3.476
-96.0,-23.0,3.477
-102.0,2.0,3.478
-67.0,22.0,3.479
0.0,22.0,3.48
68.0,6.0,3.481
102.0,-9.0,3.482
103.0,-21.0,3.483
91.0,-29.0,3.484
69.0,-27.0,3.485
39.0,-19.0,3.486
17.0,-12.0,3.487
16.0,-9.0,3.488
23.0,-5.0,3.489
24.0,4.0,3.49
22.0,15.0,3.491
28.0,23.0,3.492
26.0,29.0,3.493
2.0,31.0,3.494
-24.0,29.0,3.495
-28.0,22.0,3.496
-24.0,17.0,3.497
-39.0,15.0,3.498
-66.0,11.0,3.499
-81.0,3.0,3.5
-68.0,-9.0,3.501
-44.0,-13.0,3.502
-16.0,-10.0,3.503
15.0,-6.0,3.504
45.0,-3.0,3.505
69.0,-2.0,3.506
86.0,1.0,3.507
91.0,7.0,3.508
69.0,12.0,3.509
27.0,9.0,3.51
-15.0,-1.0,3.511
-49.0,-10.0,3.512
-78.0,-10.0,3.513
-74.0,-8.0,3.514
-15.0,-9.0,3.515
68.0,-13.0,3.516
112.0,-13.0,3.517
94.0,-11.0,3.518
54.0,-6.0,3.519
21.0,3.0,3.52
-6.0,14.0,3.521
-22.0,22.0,3.522
-10.0,16.0,3.523
17.0,5.0,3.524
25.0,3.0,3.525
18.0,7.0,3.526
24.0,2.0,3.527
40.0,-8.0,3.528
36.0,-12.0,3.529
12.0,-10.0,3.53
-1.0,-11.0,3.531
4.0,-17.0,3.532
5.0,-17.0,3.533
-6.0,-8.0,3.534
-10.0,-7.0,3.535
-5.0,-12.0,3.536
-2.0,-8.0,3.537
-11.0,10.0,3.538
-25.0,26.0,3.539
-44.0,23.0,3.54
-54.0,1.0,3.541
-27.0,-8.0,3.542
24.0,1.0,3.543
49.0,17.0,3.544
28.0,23.0,3.545
0.0,13.0,3.546
6.0,2.0,3.547
20.0,-2.0,3.548
9.0,-5.0,3.549
-3.0,-15.0,3.55
13.0,-26.0,3.551
36.0,-30.0,3.552
37.0,-29.0,3.553
33.0,-29.0,3.554
46.0,-25.0,3.555
60.0,-11.0,3.556
51.0,8.0,3.557
20.0,18.0,3.558
-4.0,21.0,3.559
-25.0,21.0,3.56
-48.0,13.0,3.561
-62.0,3.0,3.562
-59.0,-5.0,3.563
-49.0,-5.0,3.564
-39.0,-3.0,3.565
-14.0,-6.0,3.566
30.0,-9.0,3.567
71.0,-2.0,3.568
84.0,9.0,3.569
75.0,13.0,3.57
55.0,10.0,3.571
28.0,12.0,3.572
3.0,20.0,3.573
-12.0,23.0,3.574
-17.0,16.0,3.575
-27.0,11.0,3.576
-41.0,11.0,3.577
-50.0,11.0,3.578
-52.0,8.0,3.579
-56.0,6.0,3.58
-55.0,4.0,3.581
-33.0,2.0,3.582
7.0,-3.0,3.583
38.0,-9.0,3.584
47.0,-8.0,3.585
48.0,-3.0,3.586
54.0,3.0,3.587
63.0,9.0,3.588
60.0,13.0,3.589
39.0,11.0,3.59
1.0,-5.0,3.591
-34.0,-26.0,3.592
-50.0,-40.0,3.593
-43.0,-47.0,3.594
-32.0,-52.0,3.595
-26.0,-59.0,3.596
-21.0,-57.0,3.597
-25.0,-38.0,3.598
-48.0,-8.0,3.599
-81.0,24.0,3.6
-85.0,53.0,3.601
-46.0,83.0,3.602
11.0,109.0,3.603
59.0,121.0,3.604
93.0,117.0,3.605
121.0,106.0,3.606
138.0,90.0,3.607
131.0,73.0,3.608
109.0,57.0,3.609
84.0,37.0,3.61
59.0,-1.0,3.611
38.0,-54.0,3.612
27.0,-103.0,3.613
22.0,-135.0,3.614
3.0,-155.0,3.615
-39.0,-172.0,3.616
-77.0,-177.0,3.617
-95.0,-161.0,3.618
-96.0,-123.0,3.619
-97.0,-77.0,3.62
-91.0,-33.0,3.621
-65.0,11.0,3.622
-28.0,54.0,3.623
-2.0,90.0,3.624
10.0,109.0,3.625
25.0,106.0,3.626
41.0,85.0,3.627
46.0,51.0,3.628
38.0,3.0,3.629
25.0,-67.0,3.63
11.0,-146.0,3.631
-8.0,-187.0,3.632
-25.0,-161.0,3.633
-37.0,-82.0,3.634
-52.0,2.0,3.635
-73.0,61.0,3.636
-83.0,91.0,3.637
-65.0,106.0,3.638
-28.0,119.0,3.639
-1.0,136.0,3.64
25.0,152.0,3.641
64.0,162.0,3.642
103.0,156.0,3.643
108.0,129.0,3.644
79.0,81.0,3.645
55.0,19.0,3.646
56.0,-34.0,3.647
60.0,-70.0,3.648
54.0,-85.0,3.649
47.0,-83.0,3.65
38.0,-76.0,3.651
12.0,-85.0,3.652
-30.0,-120.0,3.653
-60.0,-164.0,3.654
-71.0,-183.0,3.655
-86.0,-163.0,3.656
-105.0,-123.0,3.657
-108.0,-83.0,3.658
-77.0,-44.0,3.659
-34.0,-9.0,3.66
1.0,16.0,3.661
32.0,36.0,3.662
61.0,62.0,3.663
81.0,87.0,3.664
82.0,85.0,3.665
69.0,55.0,3.666
54.0,32.0,3.667
41.0,43.0,3.668
29.0,81.0,3.669
29.0,117.0,3.67
35.0,141.0,3.671
34.0,150.0,3.672
17.0,126.0,3.673
-1.0,65.0,3.674
-1.0,-18.0,3.675
8.0,-76.0,3.676
6.0,-87.0,3.677
-10.0,-60.0,3.678
-16.0,-18.0,3.679
-5.0,20.0,3.68
9.0,46.0,3.681
17.0,67.0,3.682
34.0,101.0,3.683
57.0,155.0,3.684
59.0,203.0,3.685
36.0,188.0,3.686
20.0,93.0,3.687
29.0,-25.0,3.688
43.0,-107.0,3.689
33.0,-150.0,3.69
6.0,-189.0,3.691
-20.0,-220.0,3.692
-39.0,-220.0,3.693
-53.0,-207.0,3.694
-59.0,-210.0,3.695
-65.0,-222.0,3.696
-80.0,-200.0,3.697
-102.0,-130.0,3.698
-111.0,-26.0,3.699
-105.0,89.0,3.7
-88.0,196.0,3.701
-61.0,277.0,3.702
-17.0,310.0,3.703
27.0,286.0,3.704
49.0,222.0,3.705
54.0,139.0,3.706
69.0,47.0,3.707
94.0,-58.0,3.708
103.0,-177.0,3.709
89.0,-275.0,3.71
69.0,-306.0,3.711
47.0,-262.0,3.712
12.0,-189.0,3.713
-30.0,-122.0,3.714
-63.0,-48.0,3.715
-80.0,58.0,3.716
-91.0,182.0,3.717
-100.0,296.0,3.718
-95.0,353.0,3.719
-75.0,329.0,3.72
-46.0,223.0,3.721
-12.0,84.0,3.722
28.0,-37.0,3.723
58.0,-109.0,3.724
66.0,-142.0,3.725
64.0,-162.0,3.726
75.0,-181.0,3.727
95.0,-189.0,3.728
100.0,-156.0,3.729
86.0,-65.0,3.73
64.0,48.0,3.731
39.0,117.0,3.732
9.0,106.0,3.733
-13.0,27.0,3.734
-18.0,-78.0,3.735
-15.0,-165.0,3.736
-16.0,-185.0,3.737
-22.0,-121.0,3.738
-23.0,-15.0,3.739
-19.0,48.0,3.74
-16.0,33.0,3.741
-16.0,-12.0,3.742
-22.0,-36.0,3.743
-52.0,-36.0,3.744
-100.0,-50.0,3.745
-129.0,-89.0,3.746
-113.0,-137.0,3.747
-74.0,-163.0,3.748
-53.0,-135.0,3.749
-57.0,-42.0,3.75
-64.0,86.0,3.751
-68.0,192.0,3.752
-71.0,243.0,3.753
-74.0,242.0,3.754
-67.0,200.0,3.755
-48.0,131.0,3.756
-29.0,56.0,3.757
-13.0,-7.0,3.758
-2.0,-32.0,3.759
5.0,-24.0,3.76
15.0,-8.0,3.761
37.0,-3.0,3.762
66.0,-15.0,3.763
87.0,-27.0,3.764
90.0,-12.0,3.765
92.0,25.0,3.766
104.0,57.0,3.767
117.0,59.0,3.768
118.0,49.0,3.769
108.0,49.0,3.77
99.0,60.0,3.771
92.0,59.0,3.772
78.0,48.0,3.773
57.0,42.0,3.774
41.0,43.0,3.775
31.0,38.0,3.776
24.0,27.0,3.777
11.0,14.0,3.778
-3.0,2.0,3.779
-7.0,-11.0,3.78
1.0,-23.0,3.781
13.0,-32.0,3.782
21.0,-32.0,3.783
26.0,-33.0,3.784
30.0,-32.0,3.785
32.0,-26.0,3.786
35.0,-8.0,3.787
37.0,7.0,3.788
36.0,15.0,3.789
32.0,19.0,3.79
31.0,12.0,3.791
30.0,1.0,3.792
21.0,-20.0,3.793
2.0,-38.0,3.794
-12.0,-47.0,3.795
-17.0,-56.0,3.796
-19.0,-64.0,3.797
-28.0,-70.0,3.798
-40.0,-59.0,3.799
-45.0,-19.0,3.8
-40.0,37.0,3.801
-27.0,89.0,3.802
-8.0,107.0,3.803
9.0,88.0,3.804
17.0,47.0,3.805
17.0,-9.0,3.806
21.0,-72.0,3.807
30.0,-123.0,3.808
37.0,-145.0,3.809
34.0,-141.0,3.81
26.0,-122.0,3.811
9.0,-93.0,3.812
-15.0,-53.0,3.813
-41.0,-10.0,3.814
-60.0,23.0,3.815
-69.0,44.0,3.816
-72.0,53.0,3.817
-76.0,47.0,3.818
-80.0,37.0,3.819
-76.0,35.0,3.82
-60.0,37.0,3.821
-32.0,33.0,3.822
0.0,14.0,3.823
27.0,-5.0,3.824
40.0,-20.0,3.825
45.0,-44.0,3.826
47.0,-84.0,3.827
53.0,-118.0,3.828
58.0,-119.0,3.829
53.0,-91.0,3.83
35.0,-44.0,3.831
10.0,12.0,3.832
-12.0,66.0,3.833
-25.0,97.0,3.834
-33.0,102.0,3.835
-40.0,99.0,3.836
-44.0,109.0,3.837
-42.0,126.0,3.838
-40.0,124.0,3.839
-41.0,110.0,3.84
-40.0,97.0,3.841
-26.0,92.0,3.842
2.0,77.0,3.843
29.0,39.0,3.844
44.0,-11.0,3.845
43.0,-66.0,3.846
41.0,-120.0,3.847
40.0,-160.0,3.848
39.0,-165.0,3.849
25.0,-136.0,3.85
-1.0,-101.0,3.851
-26.0,-79.0,3.852
-42.0,-59.0,3.853
-57.0,-23.0,3.854
-73.0,12.0,3.855
-83.0,26.0,3.856
-78.0,24.0,3.857
-64.0,23.0,3.858
-55.0,26.0,3.859
-53.0,30.0,3.86
-40.0,34.0,3.861
-12.0,46.0,3.862
16.0,60.0,3.863
32.0,69.0,3.864
40.0,84.0,3.865
48.0,103.0,3.866
56.0,111.0,3.867
58.0,98.0,3.868
57.0,69.0,3.869
52.0,36.0,3.87
41.0,0.0,3.871
22.0,-36.0,3.872
1.0,-66.0,3.873
-15.0,-81.0,3.874
-28.0,-89.0,3.875
-44.0,-93.0,3.876
-57.0,-90.0,3.877
-68.0,-83.0,3.878
-71.0,-75.0,3.879
-75.0,-63.0,3.88
-75.0,-41.0,3.881
-63.0,-10.0,3.882
-35.0,15.0,3.883
-4.0,29.0,3.884
22.0,43.0,3.885
37.0,64.0,3.886
47.0,88.0,3.887
58.0,115.0,3.888
68.0,141.0,3.889
70.0,151.0,3.89
67.0,123.0,3.891
57.0,61.0,3.892
40.0,-5.0,3.893
23.0,-52.0,3.894
14.0,-80.0,3.895
13.0,-95.0,3.896
15.0,-100.0,3.897
11.0,-109.0,3.898
4.0,-132.0,3.899
-5.0,-155.0,3.9
-13.0,-142.0,3.901
-16.0,-72.0,3.902
-5.0,11.0,3.903
16.0,58.0,3.904
40.0,53.0,3.905
57.0,18.0,3.906
68.0,-22.0,3.907
76.0,-53.0,3.908
81.0,-70.0,3.909
78.0,-67.0,3.91
65.0,-45.0,3.911
47.0,-12.0,3.912
29.0,25.0,3.913
16.0,56.0,3.914
4.0,76.0,3.915
-6.0,89.0,3.916
-12.0,97.0,3.917
-35.0,92.0,3.918
-33.0,74.0,3.919
-29.0,57.0,3.92
-24.0,51.0,3.921
-14.0,62.0,3.922
4.0,66.0,3.923
20.0,46.0,3.924
28.0,13.0,3.925
34.0,-21.0,3.926
39.0,-54.0,3.927
43.0,-85.0,3.928
46.0,-102.0,3.929
45.0,-96.0,3.93
32.0,-70.0,3.931
19.0,-41.0,3.932
10.0,-14.0,3.933
3.0,10.0,3.934
-3.0,35.0,3.935
-8.0,58.0,3.936
-11.0,73.0,3.937
-44.0,77.0,3.938
-41.0,70.0,3.939
-36.0,57.0,3.94
-30.0,29.0,3.941
-19.0,2.0,3.942
3.0,-23.0,3.943
23.0,-48.0,3.944
32.0,-72.0,3.945
40.0,-92.0,3.946
45.0,-96.0,3.947
50.0,-95.0,3.948
54.0,-79.0,3.949
53.0,-60.0,3.95
37.0,-30.0,3.951
22.0,-5.0,3.952
11.0,8.0,3.953
1.0,21.0,3.954
-6.0,33.0,3.955
-12.0,43.0,3.956
-15.0,47.0,3.957
-18.0,54.0,3.958
-22.0,70.0,3.959
-23.0,82.0,3.96
-17.0,76.0,3.961
-2.0,73.0,3.962
26.0,92.0,3.963
58.0,132.0,3.964
78.0,158.0,3.965
79.0,137.0,3.966
72.0,76.0,3.967
68.0,16.0,3.968
66.0,-29.0,3.969
63.0,-86.0,3.97
52.0,-168.0,3.971
37.0,-248.0,3.972
22.0,-276.0,3.973
10.0,-250.0,3.974
-3.0,-205.0,3.975
-24.0,-164.0,3.976
-49.0,-121.0,3.977
-72.0,-70.0,3.978
-93.0,-25.0,3.979
-114.0,0.0,3.98
-128.0,17.0,3.981
-125.0,44.0,3.982
-106.0,75.0,3.983
-91.0,103.0,3.984
-90.0,124.0,3.985
-99.0,137.0,3.986
-102.0,130.0,3.987
-98.0,106.0,3.988
-89.0,87.0,3.989
-79.0,81.0,3.99
-62.0,77.0,3.991
-43.0,50.0,3.992
-33.0,7.0,3.993
-43.0,-29.0,3.994
-71.0,-41.0,3.995
-97.0,-27.0,3.996
-109.0,-1.0,3.997
-111.0,17.0,3.998
-113.0,14.0,3.999
-116.0,-12.0,4.0
-106.0,-41.0,4.001
-73.0,-51.0,4.002
-28.0,-41.0,4.003
6.0,-22.0,4.004
22.0,-2.0,4.005
30.0,17.0,4.006
46.0,29.0,4.007
72.0,30.0,4.008
93.0,25.0,4.009
97.0,25.0,4.01
88.0,32.0,4.011
72.0,42.0,4.012
52.0,57.0,4.013
31.0,86.0,4.014
17.0,127.0,4.015
8.0,161.0,4.016
-2.0,164.0,4.017
-17.0,118.0,4.018
-28.0,31.0,4.019
-27.0,-60.0,4.02
-10.0,-128.0,4.021
19.0,-164.0,4.022
55.0,-183.0,4.023
84.0,-196.0,4.024
92.0,-198.0,4.025
83.0,-191.0,4.026
71.0,-177.0,4.027
62.0,-147.0,4.028
58.0,-88.0,4.029
61.0,-19.0,4.03
74.0,29.0,4.031
89.0,47.0,4.032
88.0,53.0,4.033
66.0,61.0,4.034
35.0,64.0,4.035
13.0,56.0,4.036
-3.0,48.0,4.037
-16.0,47.0,4.038
-21.0,51.0,4.039
-20.0,59.0,4.04
-14.0,70.0,4.041
-2.0,92.0,4.042
19.0,120.0,4.043
39.0,146.0,4.044
48.0,164.0,4.045
47.0,167.0,4.046
50.0,147.0,4.047
65.0,102.0,4.048
79.0,34.0,4.049
91.0,-48.0,4.05
101.0,-123.0,4.051
100.0,-170.0,4.052
75.0,-191.0,4.053
27.0,-214.0,4.054
-22.0,-254.0,4.055
-62.0,-280.0,4.056
-89.0,-256.0,4.057
-108.0,-200.0,4.058
-119.0,-118.0,4.059
-118.0,-46.0,4.06
-105.0,11.0,4.061
-78.0,57.0,4.062
-38.0,83.0,4.063
0.0,91.0,4.064
20.0,94.0,4.065
23.0,93.0,4.066
31.0,85.0,4.067
51.0,73.0,4.068
70.0,67.0,4.069
71.0,66.0,4.07
58.0,60.0,4.071
39.0,50.0,4.072
16.0,45.0,4.073
-9.0,42.0,4.074
-28.0,34.0,4.075
-40.0,28.0,4.076
-47.0,29.0,4.077
-58.0,26.0,4.078
-68.0,15.0,4.079
-76.0,9.0,4.08
-74.0,9.0,4.081
-61.0,14.0,4.082
-37.0,13.0,4.083
-18.0,8.0,4.084
-11.0,3.0,4.085
-10.0,-1.0,4.086
-3.0,-7.0,4.087
16.0,-12.0,4.088
31.0,-9.0,4.089
30.0,-5.0,4.09
7.0,-7.0,4.091
-30.0,-10.0,4.092
-68.0,-11.0,4.093
-93.0,-11.0,4.094
-99.0,-12.0,4.095
-95.0,-13.0,4.096
-94.0,-9.0,4.097
-98.0,-11.0,4.098
-98.0,-12.0,4.099
-89.0,-9.0,4.1
-72.0,-5.0,4.101
-43.0,2.0,4.102
-8.0,5.0,4.103
22.0,4.0,4.104
32.0,3.0,4.105
35.0,2.0,4.106
50.0,2.0,4.107
76.0,-4.0,4.108
93.0,-14.0,4.109
100.0,-20.0,4.11
102.0,-14.0,4.111
95.0,-6.0,4.112
72.0,-8.0,4.113
43.0,-18.0,4.114
31.0,-20.0,4.115
33.0,-7.0,4.116
29.0,4.0,4.117
11.0,0.0,4.118
0.0,-10.0,4.119
5.0,-9.0,4.12
18.0,-4.0,4.121
35.0,3.0,4.122
59.0,12.0,4.123
83.0,23.0,4.124
89.0,30.0,4.125
75.0,24.0,4.126
64.0,13.0,4.127
66.0,4.0,4.128
74.0,4.0,4.129
74.0,6.0,4.13
63.0,6.0,4.131
45.0,-2.0,4.132
24.0,-13.0,4.133
5.0,-20.0,4.134
-9.0,-18.0,4.135
-21.0,-13.0,4.136
-23.0,-12.0,4.137
-16.0,-13.0,4.138
2.0,-9.0,4.139
14.0,-5.0,4.14
21.0,-1.0,4.141
42.0,4.0,4.142
73.0,12.0,4.143
89.0,17.0,4.144
83.0,15.0,4.145
79.0,14.0,4.146
93.0,19.0,4.147
106.0,21.0,4.148
90.0,11.0,4.149
50.0,1.0,4.15
-3.0,-10.0,4.151
-66.0,-19.0,4.152
-130.0,-21.0,4.153
-162.0,-25.0,4.154
-144.0,-33.0,4.155
-104.0,-38.0,4.156
-68.0,-32.0,4.157
-36.0,-25.0,4.158
2.0,-9.0,4.159
21.0,12.0,4.16
-3.0,28.0,4.161
-46.0,36.0,4.162
-56.0,32.0,4.163
-28.0,25.0,4.164
-4.0,23.0,4.165
-8.0,21.0,4.166
-21.0,8.0,4.167
-18.0,-6.0,4.168
-2.0,-9.0,4.169
17.0,0.0,4.17
35.0,3.0,4.171
46.0,-7.0,4.172
45.0,-15.0,4.173
31.0,-11.0,4.174
10.0,-4.0,4.175
-10.0,-9.0,4.176
-31.0,-18.0,4.177
-55.0,-22.0,4.178
-76.0,-17.0,4.179
-85.0,-15.0,4.18
-75.0,-21.0,4.181
-50.0,-20.0,4.182
-17.0,-11.0,4.183
12.0,-5.0,4.184
33.0,-3.0,4.185
47.0,-1.0,4.186
59.0,1.0,4.187
67.0,1.0,4.188
75.0,1.0,4.189
84.0,6.0,4.19
96.0,12.0,4.191
102.0,9.0,4.192
90.0,2.0,4.193
56.0,8.0,4.194
12.0,32.0,4.195
-26.0,62.0,4.196
-52.0,79.0,4.197
-72.0,75.0,4.198
-85.0,50.0,4.199
-88.0,16.0,4.2
-72.0,-15.0,4.201
-38.0,-34.0,4.202
-1.0,-47.0,4.203
22.0,-64.0,4.204
27.0,-83.0,4.205
19.0,-97.0,4.206
-1.0,-99.0,4.207
-26.0,-86.0,4.208
-45.0,-59.0,4.209
-50.0,-27.0,4.21
-45.0,-2.0,4.211
-47.0,17.0,4.212
-71.0,31.0,4.213
-121.0,38.0,4.214
-178.0,37.0,4.215
-206.0,37.0,4.216
-193.0,42.0,4.217
-160.0,51.0,4.218
-140.0,61.0,4.219
-135.0,68.0,4.22
-113.0,61.0,4.221
-84.0,51.0,4.222
-83.0,32.0,4.223
-126.0,16.0,4.224
-185.0,9.0,4.225
-251.0,1.0,4.226
-331.0,-5.0,4.227
-401.0,-14.0,4.228
-421.0,-26.0,4.229
-394.0,-36.0,4.23
-352.0,-41.0,4.231
-285.0,-46.0,4.232
-174.0,-48.0,4.233
-55.0,-47.0,4.234
16.0,-31.0,4.235
52.0,-15.0,4.236
103.0,-4.0,4.237
167.0,7.0,4.238
194.0,13.0,4.239
184.0,10.0,4.24
190.0,-1.0,4.241
225.0,-5.0,4.242
259.0,2.0,4.243
284.0,24.0,4.244
310.0,48.0,4.245
325.0,64.0,4.246
311.0,65.0,4.247
288.0,56.0,4.248
286.0,47.0,4.249
293.0,37.0,4.25
309.0,20.0,4.251
381.0,0.0,4.252
541.0,-6.0,4.253
739.0,-6.0,4.254
869.0,-10.0,4.255
878.0,-24.0,4.256
820.0,-34.0,4.257
751.0,-34.0,4.258
689.0,-26.0,4.259
605.0,-17.0,4.26
503.0,-8.0,4.261
419.0,7.0,4.262
367.0,21.0,4.263
307.0,24.0,4.264
218.0,21.0,4.265
136.0,22.0,4.266
95.0,30.0,4.267
67.0,40.0,4.268
4.0,45.0,4.269
-76.0,38.0,4.27
-129.0,18.0,4.271
-160.0,-1.0,4.272
-213.0,-10.0,4.273
-289.0,-22.0,4.274
-343.0,-53.0,4.275
-357.0,-94.0,4.276
-355.0,-119.0,4.277
-367.0,-120.0,4.278
-394.0,-101.0,4.279
-418.0,-74.0,4.28
-422.0,-45.0,4.281
-396.0,-10.0,4.282
-349.0,18.0,4.283
-313.0,30.0,4.284
-302.0,19.0,4.285
-304.0,-6.0,4.286
-294.0,-26.0,4.287
-268.0,-21.0,4.288
-243.0,3.0,4.289
-233.0,24.0,4.29
-236.0,27.0,4.291
-245.0,19.0,4.292
-259.0,15.0,4.293
-271.0,12.0,4.294
-278.0,3.0,4.295
-296.0,-5.0,4.296
-337.0,-1.0,4.297
-401.0,1.0,4.298
-443.0,1.0,4.299
-427.0,6.0,4.3
-365.0,23.0,4.301
-318.0,35.0,4.302
-323.0,27.0,4.303
-357.0,18.0,4.304
-373.0,8.0,4.305
-346.0,-2.0,4.306
-284.0,-15.0,4.307
-204.0,-23.0,4.308
-116.0,-13.0,4.309
-34.0,-4.0,4.31
15.0,4.0,4.311
27.0,7.0,4.312
23.0,-6.0,4.313
33.0,-15.0,4.314
69.0,-9.0,4.315
114.0,2.0,4.316
150.0,26.0,4.317
176.0,47.0,4.318
202.0,50.0,4.319
226.0,31.0,4.32
242.0,-1.0,4.321
256.0,-21.0,4.322
279.0,-28.0,4.323
304.0,-20.0,4.324
314.0,-5.0,4.325
313.0,4.0,4.326
320.0,2.0,4.327
338.0,1.0,4.328
344.0,23.0,4.329
326.0,57.0,4.33
295.0,71.0,4.331
256.0,38.0,4.332
206.0,-37.0,4.333
150.0,-122.0,4.334
112.0,-166.0,4.335
101.0,-134.0,4.336
100.0,-43.0,4.337
85.0,70.0,4.338
65.0,125.0,4.339
39.0,139.0,4.34
11.0,132.0,4.341
-4.0,117.0,4.342
10.0,89.0,4.343
42.0,45.0,4.344
54.0,-12.0,4.345
40.0,-75.0,4.346
24.0,-130.0,4.347
14.0,-162.0,4.348
-3.0,-163.0,4.349
-28.0,-137.0,4.35
-45.0,-89.0,4.351
-59.0,-37.0,4.352
-86.0,-5.0,4.353
-117.0,8.0,4.354
-126.0,21.0,4.355
-122.0,41.0,4.356
-124.0,43.0,4.357
-133.0,15.0,4.358
-132.0,-8.0,4.359
-124.0,3.0,4.36
-123.0,32.0,4.361
-113.0,50.0,4.362
-74.0,51.0,4.363
-19.0,44.0,4.364
14.0,30.0,4.365
28.0,11.0,4.366
53.0,5.0,4.367
89.0,25.0,4.368
107.0,45.0,4.369
102.0,42.0,4.37
88.0,25.0,4.371
68.0,11.0,4.372
34.0,8.0,4.373
-6.0,6.0,4.374
-27.0,0.0,4.375
-27.0,-11.0,4.376
-25.0,-24.0,4.377
-35.0,-39.0,4.378
-42.0,-44.0,4.379
-39.0,-31.0,4.38
-23.0,-2.0,4.381
4.0,43.0,4.382
41.0,87.0,4.383
72.0,114.0,4.384
83.0,129.0,4.385
87.0,160.0,4.386
101.0,208.0,4.387
124.0,216.0,4.388
134.0,143.0,4.389
126.0,21.0,4.39
115.0,-77.0,4.391
105.0,-128.0,4.392
91.0,-164.0,4.393
69.0,-215.0,4.394
43.0,-279.0,4.395
9.0,-339.0,4.396
-29.0,-370.0,4.397
-70.0,-354.0,4.398
-103.0,-279.0,4.399
-123.0,-171.0,4.4
-123.0,-68.0,4.401
-87.0,19.0,4.402
-25.0,87.0,4.403
29.0,130.0,4.404
56.0,152.0,4.405
68.0,176.0,4.406
83.0,205.0,4.407
98.0,213.0,4.408
100.0,187.0,4.409
94.0,154.0,4.41
90.0,141.0,4.411
77.0,140.0,4.412
44.0,126.0,4.413
7.0,93.0,4.414
-12.0,45.0,4.415
-18.0,-22.0,4.416
-29.0,-98.0,4.417
-55.0,-165.0,4.418
-82.0,-195.0,4.419
-104.0,-189.0,4.42
-116.0,-166.0,4.421
-110.0,-126.0,4.422
-79.0,-72.0,4.423
-39.0,-15.0,4.424
-19.0,47.0,4.425
-16.0,115.0,4.426
-13.0,159.0,4.427
5.0,143.0,4.428
26.0,75.0,4.429
31.0,4.0,4.43
16.0,-32.0,4.431
-7.0,-39.0,4.432
-27.0,-31.0,4.433
-43.0,-6.0,4.434
-54.0,26.0,4.435
-61.0,51.0,4.436
-62.0,74.0,4.437
-62.0,124.0,4.438
-74.0,192.0,4.439
-98.0,214.0,4.44
-107.0,150.0,4.441
-77.0,55.0,4.442
-19.0,-2.0,4.443
29.0,-26.0,4.444
49.0,-81.0,4.445
53.0,-189.0,4.446
58.0,-295.0,4.447
56.0,-338.0,4.448
42.0,-305.0,4.449
25.0,-227.0,4.45
15.0,-141.0,4.451
6.0,-71.0,4.452
-6.0,-26.0,4.453
-19.0,10.0,4.454
-25.0,53.0,4.455
-30.0,95.0,4.456
-30.0,122.0,4.457
-17.0,130.0,4.458
7.0,133.0,4.459
35.0,134.0,4.46
63.0,124.0,4.461
97.0,107.0,4.462
131.0,97.0,4.463
147.0,102.0,4.464
144.0,137.0,4.465
144.0,195.0,4.466
158.0,249.0,4.467
167.0,256.0,4.468
142.0,194.0,4.469
79.0,68.0,4.47
-5.0,-95.0,4.471
-91.0,-251.0,4.472
-161.0,-346.0,4.473
-198.0,-359.0,4.474
-209.0,-316.0,4.475
-213.0,-250.0,4.476
-210.0,-165.0,4.477
-190.0,-48.0,4.478
-146.0,83.0,4.479
-101.0,203.0,4.48
-55.0,297.0,4.481
-10.0,341.0,4.482
35.0,291.0,4.483
78.0,150.0,4.484
110.0,-18.0,4.485
141.0,-155.0,4.486
167.0,-246.0,4.487
189.0,-292.0,4.488
193.0,-280.0,4.489
187.0,-225.0,4.49
149.0,-179.0,4.491
104.0,-163.0,4.492
40.0,-126.0,4.493
-16.0,-18.0,4.494
-51.0,125.0,4.495
-84.0,219.0,4.496
-108.0,230.0,4.497
-127.0,181.0,4.498
-127.0,123.0,4.499
-135.0,82.0,4.5
-152.0,56.0,4.501
-155.0,34.0,4.502
-141.0,-2.0,4.503
-131.0,-49.0,4.504
-128.0,-76.0,4.505
-115.0,-61.0,4.506
-85.0,-10.0,4.507
-60.0,70.0,4.508
-46.0,176.0,4.509
-24.0,265.0,4.51
18.0,247.0,4.511
66.0,98.0,4.512
102.0,-71.0,4.513
126.0,-134.0,4.514
134.0,-99.0,4.515
117.0,-83.0,4.516
89.0,-130.0,4.517
69.0,-201.0,4.518
63.0,-228.0,4.519
38.0,-191.0,4.52
-13.0,-101.0,4.521
-63.0,16.0,4.522
-78.0,75.0,4.523
-48.0,27.0,4.524
17.0,-67.0,4.525
105.0,-91.0,4.526
188.0,-39.0,4.527
235.0,-4.0,4.528
243.0,-28.0,4.529
241.0,-62.0,4.53
242.0,-55.0,4.531
222.0,-8.0,4.532
166.0,57.0,4.533
94.0,109.0,4.534
33.0,105.0,4.535
-14.0,28.0,4.536
-49.0,-55.0,4.537
-70.0,-98.0,4.538
-53.0,-100.0,4.539
-4.0,-113.0,4.54
47.0,-138.0,4.541
81.0,-137.0,4.542
97.0,-105.0,4.543
103.0,-56.0,4.544
96.0,14.0,4.545
72.0,107.0,4.546
32.0,186.0,4.547
-12.0,217.0,4.548
-43.0,205.0,4.549
-48.0,178.0,4.55
-34.0,130.0,4.551
-29.0,58.0,4.552
-52.0,-2.0,4.553
-84.0,-10.0,4.554
-98.0,30.0,4.555
-105.0,93.0,4.556
-128.0,170.0,4.557
-170.0,255.0,4.558
-196.0,304.0,4.559
-188.0,276.0,4.56
-157.0,195.0,4.561
-120.0,125.0,4.562
-74.0,100.0,4.563
-28.0,103.0,4.564
4.0,100.0,4.565
20.0,70.0,4.566
29.0,12.0,4.567
27.0,-46.0,4.568
2.0,-82.0,4.569
-41.0,-116.0,4.57
-86.0,-182.0,4.571
-124.0,-277.0,4.572
-168.0,-374.0,4.573
-210.0,-465.0,4.574
-231.0,-555.0,4.575
-226.0,-597.0,4.576
-210.0,-535.0,4.577
-195.0,-353.0,4.578
-181.0,-116.0,4.579
-168.0,111.0,4.58
-146.0,307.0,4.581
-99.0,459.0,4.582
-24.0,536.0,4.583
44.0,533.0,4.584
68.0,489.0,4.585
53.0,440.0,4.586
36.0,385.0,4.587
38.0,306.0,4.588
40.0,171.0,4.589
8.0,-70.0,4.59
-86.0,-398.0,4.591
-215.0,-679.0,4.592
-308.0,-764.0,4.593
-304.0,-641.0,4.594
-238.0,-429.0,4.595
-201.0,-233.0,4.596
-215.0,-104.0,4.597
-217.0,-51.0,4.598
-174.0,-50.0,4.599
-148.0,-35.0,4.6
-173.0,20.0,4.601
-187.0,64.0,4.602
-165.0,73.0,4.603
-136.0,84.0,4.604
-87.0,101.0,4.605
-30.0,113.0,4.606
49.0,107.0,4.607
124.0,105.0,4.608
188.0,116.0,4.609
234.0,128.0,4.61
228.0,143.0,4.611
199.0,148.0,4.612
100.0,122.0,4.613
17.0,103.0,4.614
-20.0,103.0,4.615
-34.0,107.0,4.616
19.0,125.0,4.617
64.0,136.0,4.618
68.0,96.0,4.619
82.0,-2.0,4.62
122.0,-116.0,4.621
165.0,-188.0,4.622
205.0,-215.0,4.623
257.0,-222.0,4.624
329.0,-198.0,4.625
408.0,-95.0,4.626
476.0,78.0,4.627
524.0,232.0,4.628
531.0,294.0,4.629
490.0,287.0,4.63
431.0,275.0,4.631
399.0,264.0,4.632
396.0,227.0,4.633
382.0,153.0,4.634
329.0,51.0,4.635
261.0,-70.0,4.636
213.0,-168.0,4.637
168.0,-185.0,4.638
102.0,-89.0,4.639
24.0,43.0,4.64
-26.0,110.0,4.641
-39.0,110.0,4.642
-43.0,85.0,4.643
-60.0,22.0,4.644
-67.0,-113.0,4.645
-37.0,-272.0,4.646
19.0,-336.0,4.647
68.0,-266.0,4.648
93.0,-153.0,4.649
107.0,-98.0,4.65
124.0,-74.0,4.651
139.0,4.0,4.652
143.0,130.0,4.653
137.0,198.0,4.654
129.0,163.0,4.655
124.0,83.0,4.656
127.0,5.0,4.657
124.0,-129.0,4.658
93.0,-341.0,4.659
17.0,-515.0,4.66
-72.0,-495.0,4.661
-129.0,-270.0,4.662
-135.0,28.0,4.663
-111.0,276.0,4.664
-88.0,402.0,4.665
-66.0,342.0,4.666
-43.0,95.0,4.667
-39.0,-193.0,4.668
-73.0,-335.0,4.669
-131.0,-316.0,4.67
-181.0,-270.0,4.671
-215.0,-270.0,4.672
-253.0,-250.0,4.673
-300.0,-142.0,4.674
-329.0,35.0,4.675
-314.0,222.0,4.676
-266.0,337.0,4.677
-204.0,286.0,4.678
-144.0,46.0,4.679
-109.0,-229.0,4.68
-126.0,-353.0,4.681
-184.0,-304.0,4.682
-219.0,-217.0,4.683
-180.0,-140.0,4.684
-113.0,-4.0,4.685
-102.0,206.0,4.686
-149.0,402.0,4.687
-166.0,542.0,4.688
-116.0,668.0,4.689
-65.0,781.0,4.69
-72.0,814.0,4.691
-91.0,734.0,4.692
-60.0,586.0,4.693
-3.0,427.0,4.694
25.0,287.0,4.695
28.0,174.0,4.696
40.0,76.0,4.697
44.0,-82.0,4.698
-14.0,-321.0,4.699
-141.0,-589.0,4.7
-264.0,-784.0,4.701
-317.0,-851.0,4.702
-289.0,-826.0,4.703
-204.0,-761.0,4.704
-82.0,-672.0,4.705
71.0,-534.0,4.706
220.0,-316.0,4.707
310.0,-40.0,4.708
312.0,211.0,4.709
256.0,361.0,4.71
190.0,407.0,4.711
123.0,439.0,4.712
37.0,535.0,4.713
-52.0,679.0,4.714
-102.0,774.0,4.715
-96.0,771.0,4.716
-66.0,743.0,4.717
-42.0,775.0,4.718
-30.0,828.0,4.719
-22.0,733.0,4.72
-7.0,407.0,4.721
8.0,-20.0,4.722
4.0,-401.0,4.723
-42.0,-733.0,4.724
-120.0,-1060.0,4.725
-197.0,-1327.0,4.726
-252.0,-1445.0,4.727
-299.0,-1400.0,4.728
-330.0,-1201.0,4.729
-312.0,-826.0,4.73
-235.0,-359.0,4.731
-152.0,-15.0,4.732
-110.0,119.0,4.733
-95.0,222.0,4.734
-63.0,463.0,4.735
5.0,721.0,4.736
97.0,803.0,4.737
222.0,757.0,4.738
361.0,774.0,4.739
458.0,867.0,4.74
478.0,855.0,4.741
454.0,666.0,4.742
444.0,415.0,4.743
458.0,186.0,4.744
455.0,-63.0,4.745
423.0,-367.0,4.746
391.0,-659.0,4.747
367.0,-848.0,4.748
315.0,-876.0,4.749
211.0,-744.0,4.75
99.0,-556.0,4.751
32.0,-485.0,4.752
9.0,-590.0,4.753
-13.0,-712.0,4.754
-46.0,-665.0,4.755
-62.0,-451.0,4.756
-45.0,-196.0,4.757
-23.0,107.0,4.758
-30.0,448.0,4.759
-58.0,687.0,4.76
-70.0,618.0,4.761
-54.0,489.0,4.762
-27.0,179.0,4.763
-4.0,-72.0,4.764
10.0,-150.0,4.765
15.0,-198.0,4.766
13.0,-153.0,4.767
9.0,-75.0,4.768
0.0,101.0,4.769
-24.0,256.0,4.77
-65.0,346.0,4.771
-100.0,386.0,4.772
-106.0,272.0,4.773
-93.0,174.0,4.774
-85.0,123.0,4.775
-95.0,62.0,4.776
-113.0,-28.0,4.777
-136.0,-107.0,4.778
-155.0,-85.0,4.779
-168.0,33.0,4.78
-170.0,166.0,4.781
-158.0,280.0,4.782
-125.0,385.0,4.783
-71.0,465.0,4.784
-19.0,476.0,4.785
14.0,391.0,4.786
28.0,234.0,4.787
37.0,75.0,4.788
46.0,-20.0,4.789
47.0,-57.0,4.79
35.0,-123.0,4.791
8.0,-263.0,4.792
-31.0,-387.0,4.793
-73.0,-377.0,4.794
-99.0,-258.0,4.795
-100.0,-158.0,4.796
-94.0,-129.0,4.797
-95.0,-120.0,4.798
-97.0,-84.0,4.799
-87.0,-41.0,4.8
-61.0,-9.0,4.801
-25.0,30.0,4.802
12.0,72.0,4.803
46.0,75.0,4.804
70.0,27.0,4.805
82.0,-32.0,4.806
86.0,-64.0,4.807
87.0,-61.0,4.808
86.0,-30.0,4.809
90.0,6.0,4.81
99.0,30.0,4.811
102.0,32.0,4.812
91.0,29.0,4.813
65.0,36.0,4.814
39.0,44.0,4.815
15.0,36.0,4.816
-6.0,22.0,4.817
-28.0,11.0,4.818
-38.0,7.0,4.819
-39.0,2.0,4.82
-39.0,-8.0,4.821
-35.0,-11.0,4.822
-19.0,-10.0,4.823
10.0,-7.0,4.824
40.0,-2.0,4.825
62.0,1.0,4.826
76.0,-1.0,4.827
89.0,-10.0,4.828
94.0,-14.0,4.829
86.0,-12.0,4.83
68.0,-12.0,4.831
52.0,-16.0,4.832
48.0,-21.0,4.833
54.0,-20.0,4.834
63.0,-19.0,4.835
59.0,-19.0,4.836
47.0,-16.0,4.837
33.0,-13.0,4.838
18.0,-12.0,4.839
-4.0,-18.0,4.84
-44.0,-30.0,4.841
-71.0,-35.0,4.842
-59.0,-29.0,4.843
-44.0,-18.0,4.844
-20.0,-12.0,4.845
6.0,-20.0,4.846
34.0,-29.0,4.847
55.0,-23.0,4.848
58.0,-10.0,4.849
58.0,-1.0,4.85
44.0,5.0,4.851
29.0,13.0,4.852
8.0,21.0,4.853
-18.0,14.0,4.854
-59.0,-5.0,4.855
-96.0,-18.0,4.856
-116.0,-14.0,4.857
-134.0,-10.0,4.858
-141.0,-13.0,4.859
-140.0,-19.0,4.86
-132.0,-18.0,4.861
-118.0,-11.0,4.862
-100.0,-4.0,4.863
-83.0,2.0,4.864
-72.0,8.0,4.865
-69.0,9.0,4.866
-62.0,-2.0,4.867
-47.0,-10.0,4.868
-27.0,-10.0,4.869
-14.0,1.0,4.87
-5.0,5.0,4.871
-2.0,1.0,4.872
-1.0,-2.0,4.873
-2.0,0.0,4.874
-4.0,3.0,4.875
-4.0,1.0,4.876
-6.0,0.0,4.877
-13.0,-1.0,4.878
-15.0,3.0,4.879
-10.0,5.0,4.88
3.0,4.0,4.881
19.0,5.0,4.882
37.0,8.0,4.883
64.0,11.0,4.884
91.0,12.0,4.885
112.0,14.0,4.886
119.0,16.0,4.887
109.0,19.0,4.888
90.0,24.0,4.889
77.0,21.0,4.89
79.0,6.0,4.891
88.0,-10.0,4.892
89.0,-20.0,4.893
79.0,-17.0,4.894
68.0,-7.0,4.895
60.0,2.0,4.896
52.0,7.0,4.897
38.0,5.0,4.898
24.0,2.0,4.899
7.0,0.0,4.9
-18.0,1.0,4.901
-37.0,4.0,4.902
-35.0,9.0,4.903
-31.0,12.0,4.904
-19.0,10.0,4.905
-7.0,9.0,4.906
6.0,7.0,4.907
14.0,6.0,4.908
8.0,5.0,4.909
-2.0,5.0,4.91
-25.0,12.0,4.911
-48.0,21.0,4.912
-68.0,34.0,4.913
-82.0,43.0,4.914
-79.0,38.0,4.915
-68.0,33.0,4.916
-32.0,28.0,4.917
8.0,25.0,4.918
51.0,26.0,4.919
65.0,12.0,4.92
53.0,-8.0,4.921
40.0,-19.0,4.922
34.0,-38.0,4.923
7.0,-92.0,4.924
-58.0,-163.0,4.925
-133.0,-200.0,4.926
-180.0,-183.0,4.927
-196.0,-132.0,4.928
-201.0,-73.0,4.929
-191.0,-13.0,4.93
-128.0,41.0,4.931
-15.0,73.0,4.932
94.0,75.0,4.933
154.0,59.0,4.934
169.0,42.0,4.935
176.0,32.0,4.936
188.0,34.0,4.937
191.0,50.0,4.938
179.0,58.0,4.939
150.0,37.0,4.94
123.0,-9.0,4.941
116.0,-40.0,4.942
141.0,-43.0,4.943
181.0,-35.0,4.944
209.0,-25.0,4.945
221.0,-6.0,4.946
234.0,20.0,4.947
257.0,38.0,4.948
271.0,39.0,4.949
271.0,36.0,4.95
267.0,42.0,4.951
264.0,47.0,4.952
246.0,42.0,4.953
208.0,30.0,4.954
164.0,19.0,4.955
132.0,12.0,4.956
108.0,3.0,4.957
73.0,-11.0,4.958
26.0,-24.0,4.959
-25.0,-28.0,4.96
-61.0,-25.0,4.961
-67.0,-19.0,4.962
-39.0,-10.0,4.963
1.0,2.0,4.964
23.0,22.0,4.965
29.0,43.0,4.966
25.0,59.0,4.967
-2.0,65.0,4.968
-70.0,57.0,4.969
-152.0,39.0,4.97
-197.0,16.0,4.971
-197.0,0.0,4.972
-194.0,1.0,4.973
-216.0,8.0,4.974
-236.0,12.0,4.975
-235.0,8.0,4.976
-231.0,1.0,4.977
-253.0,-7.0,4.978
-282.0,-12.0,4.979
-286.0,-13.0,4.98
-269.0,-10.0,4.981
-255.0,-6.0,4.982
-248.0,-6.0,4.983
-232.0,-8.0,4.984
-210.0,-8.0,4.985
-192.0,-7.0,4.986
-169.0,-10.0,4.987
-139.0,-19.0,4.988
-111.0,-26.0,4.989
-94.0,-28.0,4.99
-73.0,-28.0,4.991
-42.0,-23.0,4.992
-17.0,-14.0,4.993
-13.0,-8.0,4.994
-16.0,-11.0,4.995
-18.0,-19.0,4.996
-23.0,-26.0,4.997
-35.0,-28.0,4.998
-34.0,-20.0,4.999
-12.0,-4.0,5.0
9.0,5.0,5.001
10.0,4.0,5.002
3.0,-2.0,5.003
10.0,-4.0,5.004
23.0,-2.0,5.005
22.0,-1.0,5.006
9.0,2.0,5.007
-7.0,7.0,5.008
-17.0,10.0,5.009
-21.0,7.0,5.01
-24.0,5.0,5.011
-36.0,3.0,5.012
-55.0,-4.0,5.013
-61.0,-16.0,5.014
-39.0,-26.0,5.015
-6.0,-23.0,5.016
16.0,-13.0,5.017
23.0,-10.0,5.018
32.0,-8.0,5.019
35.0,-3.0,5.02
12.0,1.0,5.021
-32.0,7.0,5.022
-63.0,11.0,5.023
-73.0,12.0,5.024
-74.0,9.0,5.025
-73.0,4.0,5.026
-55.0,1.0,5.027
-21.0,2.0,5.028
13.0,2.0,5.029
46.0,5.0,5.03
80.0,11.0,5.031
97.0,12.0,5.032
78.0,3.0,5.033
40.0,-11.0,5.034
14.0,-13.0,5.035
0.0,-5.0,5.036
-22.0,5.0,5.037
-55.0,10.0,5.038
-73.0,6.0,5.039
-83.0,-2.0,5.04
-104.0,-12.0,5.041
-122.0,-11.0,5.042
-99.0,-4.0,5.043
-37.0,-6.0,5.044
21.0,-15.0,5.045
59.0,-16.0,5.046
96.0,-8.0,5.047
132.0,-5.0,5.048
139.0,-10.0,5.049
113.0,-11.0,5.05
97.0,-3.0,5.051
107.0,5.0,5.052
115.0,15.0,5.053
105.0,30.0,5.054
99.0,35.0,5.055
112.0,18.0,5.056
123.0,-5.0,5.057
112.0,-10.0,5.058
87.0,-1.0,5.059
69.0,0.0,5.06
57.0,-12.0,5.061
46.0,-18.0,5.062
48.0,-14.0,5.063
71.0,-13.0,5.064
103.0,-17.0,5.065
143.0,-14.0,5.066
200.0,-10.0,5.067
263.0,-8.0,5.068
289.0,5.0,5.069
270.0,39.0,5.07
232.0,68.0,5.071
205.0,63.0,5.072
173.0,30.0,5.073
122.0,1.0,5.074
68.0,-9.0,5.075
29.0,-15.0,5.076
-3.0,-28.0,5.077
-51.0,-44.0,5.078
-108.0,-54.0,5.079
-165.0,-63.0,5.08
-209.0,-76.0,5.081
-223.0,-76.0,5.082
-196.0,-58.0,5.083
-155.0,-29.0,5.084
-143.0,0.0,5.085
-167.0,37.0,5.086
-192.0,84.0,5.087
-200.0,133.0,5.088
-207.0,163.0,5.089
-213.0,159.0,5.09
-202.0,127.0,5.091
-175.0,89.0,5.092
-146.0,63.0,5.093
-110.0,54.0,5.094
-46.0,62.0,5.095
22.0,72.0,5.096
46.0,68.0,5.097
16.0,25.0,5.098
-25.0,-50.0,5.099
-51.0,-130.0,5.1
-83.0,-189.0,5.101
-141.0,-219.0,5.102
-188.0,-238.0,5.103
-194.0,-260.0,5.104
-194.0,-273.0,5.105
-232.0,-260.0,5.106
-272.0,-212.0,5.107
-231.0,-135.0,5.108
-95.0,-46.0,5.109
55.0,34.0,5.11
152.0,102.0,5.111
210.0,185.0,5.112
281.0,301.0,5.113
367.0,414.0,5.114
430.0,436.0,5.115
450.0,339.0,5.116
432.0,221.0,5.117
379.0,178.0,5.118
295.0,222.0,5.119
219.0,257.0,5.12
213.0,207.0,5.121
303.0,115.0,5.122
457.0,48.0,5.123
626.0,-3.0,5.124
770.0,-89.0,5.125
861.0,-229.0,5.126
878.0,-383.0,5.127
832.0,-517.0,5.128
765.0,-610.0,5.129
703.0,-646.0,5.13
627.0,-600.0,5.131
506.0,-474.0,5.132
340.0,-308.0,5.133
160.0,-161.0,5.134
-14.0,-66.0,5.135
-185.0,-11.0,5.136
-338.0,17.0,5.137
-481.0,28.0,5.138
-605.0,22.0,5.139
-720.0,22.0,5.14
-829.0,56.0,5.141
-912.0,135.0,5.142
-966.0,235.0,5.143
-1014.0,342.0,5.144
-1070.0,451.0,5.145
-1116.0,525.0,5.146
-1173.0,521.0,5.147
-1318.0,445.0,5.148
-1579.0,379.0,5.149
-1835.0,392.0,5.15
-1919.0,466.0,5.151
-1789.0,528.0,5.152
-1520.0,507.0,5.153
-1191.0,356.0,5.154
-863.0,76.0,5.155
-626.0,-235.0,5.156
-527.0,-429.0,5.157
-470.0,-497.0,5.158
-323.0,-541.0,5.159
-80.0,-656.0,5.16
141.0,-768.0,5.161
296.0,-722.0,5.162
454.0,-515.0,5.163
647.0,-293.0,5.164
818.0,-155.0,5.165
933.0,-69.0,5.166
1036.0,9.0,5.167
1139.0,58.0,5.168
1192.0,64.0,5.169
1180.0,73.0,5.17
1153.0,106.0,5.171
1135.0,111.0,5.172
1093.0,46.0,5.173
1021.0,-36.0,5.174
968.0,-61.0,5.175
950.0,-30.0,5.176
925.0,1.0,5.177
859.0,19.0,5.178
782.0,60.0,5.179
731.0,148.0,5.18
721.0,254.0,5.181
757.0,334.0,5.182
848.0,367.0,5.183
966.0,357.0,5.184
1037.0,311.0,5.185
1013.0,235.0,5.186
930.0,161.0,5.187
866.0,143.0,5.188
846.0,206.0,5.189
812.0,294.0,5.19
704.0,301.0,5.191
560.0,179.0,5.192
477.0,7.0,5.193
490.0,-110.0,5.194
527.0,-158.0,5.195
525.0,-200.0,5.196
496.0,-252.0,5.197
430.0,-279.0,5.198
275.0,-286.0,5.199
14.0,-354.0,5.2
-242.0,-486.0,5.201
-380.0,-538.0,5.202
-417.0,-426.0,5.203
-456.0,-248.0,5.204
-527.0,-135.0,5.205
-586.0,-62.0,5.206
-622.0,52.0,5.207
-672.0,172.0,5.208
-745.0,193.0,5.209
-817.0,106.0,5.21
-885.0,22.0,5.211
-976.0,26.0,5.212
-1084.0,88.0,5.213
-1170.0,107.0,5.214
-1214.0,30.0,5.215
-1231.0,-59.0,5.216
-1234.0,-38.0,5.217
-1226.0,111.0,5.218
-1210.0,233.0,5.219
-1183.0,175.0,5.22
-1126.0,-18.0,5.221
-1043.0,-170.0,5.222
-884.0,-209.0,5.223
-739.0,-186.0,5.224
-640.0,-139.0,5.225
-577.0,-49.0,5.226
-622.0,62.0,5.227
-670.0,143.0,5.228
-722.0,205.0,5.229
-734.0,304.0,5.23
-627.0,457.0,5.231
-505.0,635.0,5.232
-342.0,816.0,5.233
-193.0,904.0,5.234
-85.0,714.0,5.235
13.0,197.0,5.236
83.0,-359.0,5.237
145.0,-701.0,5.238
168.0,-783.0,5.239
181.0,-825.0,5.24
190.0,-930.0,5.241
202.0,-956.0,5.242
219.0,-812.0,5.243
207.0,-587.0,5.244
152.0,-363.0,5.245
122.0,-105.0,5.246
196.0,169.0,5.247
344.0,354.0,5.248
462.0,425.0,5.249
530.0,469.0,5.25
610.0,512.0,5.251
712.0,507.0,5.252
753.0,504.0,5.253
698.0,607.0,5.254
614.0,752.0,5.255
559.0,722.0,5.256
519.0,467.0,5.257
460.0,84.0,5.258
408.0,-256.0,5.259
380.0,-483.0,5.26
358.0,-602.0,5.261
335.0,-630.0,5.262
334.0,-618.0,5.263
359.0,-599.0,5.264
369.0,-551.0,5.265
346.0,-463.0,5.266
318.0,-376.0,5.267
309.0,-288.0,5.268
306.0,-137.0,5.269
295.0,71.0,5.27
282.0,231.0,5.271
260.0,287.0,5.272
215.0,303.0,5.273
149.0,351.0,5.274
93.0,420.0,5.275
56.0,466.0,5.276
36.0,465.0,5.277
19.0,392.0,5.278
2.0,259.0,5.279
-23.0,134.0,5.28
-52.0,70.0,5.281
-54.0,30.0,5.282
-14.0,-45.0,5.283
41.0,-123.0,5.284
65.0,-141.0,5.285
76.0,-121.0,5.286
119.0,-115.0,5.287
197.0,-107.0,5.288
250.0,-66.0,5.289
232.0,-41.0,5.29
169.0,-76.0,5.291
104.0,-120.0,5.292
42.0,-113.0,5.293
-33.0,-93.0,5.294
-109.0,-113.0,5.295
-157.0,-126.0,5.296
-188.0,-76.0,5.297
-252.0,13.0,5.298
-338.0,87.0,5.299
-400.0,151.0,5.3
-389.0,179.0,5.301
-381.0,202.0,5.302
-381.0,209.0,5.303
-383.0,215.0,5.304
-388.0,218.0,5.305
-378.0,187.0,5.306
-319.0,50.0,5.307
-268.0,-76.0,5.308
-240.0,-170.0,5.309
-203.0,-254.0,5.31
-142.0,-305.0,5.311
-113.0,-322.0,5.312
-184.0,-234.0,5.313
-259.0,-148.0,5.314
-345.0,-67.0,5.315
-395.0,3.0,5.316
-331.0,39.0,5.317
-272.0,67.0,5.318
-258.0,61.0,5.319
-242.0,55.0,5.32
-180.0,56.0,5.321
-102.0,57.0,5.322
-57.0,64.0,5.323
-34.0,97.0,5.324
3.0,143.0,5.325
44.0,168.0,5.326
52.0,160.0,5.327
50.0,128.0,5.328
98.0,64.0,5.329
191.0,-45.0,5.33
262.0,-161.0,5.331
283.0,-217.0,5.332
308.0,-185.0,5.333
365.0,-116.0,5.334
407.0,-65.0,5.335
396.0,-37.0,5.336
371.0,-16.0,5.337
378.0,2.0,5.338
398.0,16.0,5.339
378.0,25.0,5.34
317.0,28.0,5.341
261.0,20.0,5.342
242.0,8.0,5.343
236.0,13.0,5.344
224.0,29.0,5.345
216.0,31.0,5.346
220.0,15.0,5.347
227.0,7.0,5.348
221.0,13.0,5.349
205.0,13.0,5.35
185.0,-1.0,5.351
165.0,-10.0,5.352
140.0,-5.0,5.353
109.0,1.0,5.354
77.0,2.0,5.355
49.0,3.0,5.356
24.0,8.0,5.357
-9.0,0.0,5.358
-41.0,-14.0,5.359
-61.0,-22.0,5.36
-64.0,-18.0,5.361
-65.0,-15.0,5.362
-65.0,-18.0,5.363
-54.0,-17.0,5.364
-27.0,-11.0,5.365
3.0,-11.0,5.366
27.0,-17.0,5.367
52.0,-17.0,5.368
79.0,-10.0,5.369
90.0,-6.0,5.37
75.0,-11.0,5.371
46.0,-13.0,5.372
32.0,-12.0,5.373
37.0,-10.0,5.374
39.0,-11.0,5.375
14.0,-11.0,5.376
-33.0,-9.0,5.377
-94.0,-9.0,5.378
-156.0,-8.0,5.379
-227.0,-7.0,5.38
-327.0,-9.0,5.381
-419.0,-11.0,5.382
-489.0,-11.0,5.383
-566.0,-9.0,5.384
-665.0,-2.0,5.385
-715.0,4.0,5.386
-615.0,6.0,5.387
-509.0,8.0,5.388
-391.0,7.0,5.389
-286.0,5.0,5.39
-222.0,2.0,5.391
-146.0,-1.0,5.392
-37.0,-1.0,5.393
53.0,0.0,5.394
87.0,-1.0,5.395
126.0,-2.0,5.396
174.0,2.0,5.397
208.0,6.0,5.398
197.0,6.0,5.399
216.0,4.0,5.4
261.0,6.0,5.401
292.0,26.0,5.402
309.0,69.0,5.403
342.0,137.0,5.404
378.0,204.0,5.405
382.0,229.0,5.406
363.0,182.0,5.407
351.0,85.0,5.408
345.0,-19.0,5.409
323.0,-127.0,5.41
292.0,-254.0,5.411
266.0,-372.0,5.412
239.0,-408.0,5.413
198.0,-332.0,5.414
150.0,-199.0,5.415
108.0,-73.0,5.416
73.0,25.0,5.417
39.0,109.0,5.418
18.0,160.0,5.419
12.0,158.0,5.42
10.0,118.0,5.421
3.0,85.0,5.422
6.0,68.0,5.423
30.0,61.0,5.424
59.0,59.0,5.425
80.0,56.0,5.426
98.0,44.0,5.427
128.0,30.0,5.428
164.0,26.0,5.429
197.0,31.0,5.43
221.0,28.0,5.431
228.0,13.0,5.432
205.0,0.0,5.433
151.0,-6.0,5.434
88.0,-7.0,5.435
34.0,6.0,5.436
-10.0,43.0,5.437
-61.0,80.0,5.438
-111.0,82.0,5.439
-146.0,32.0,5.44
-173.0,-36.0,5.441
-200.0,-75.0,5.442
-222.0,-76.0,5.443
-230.0,-58.0,5.444
-233.0,-42.0,5.445
-245.0,-33.0,5.446
-252.0,-30.0,5.447
-241.0,-28.0,5.448
-222.0,-13.0,5.449
-214.0,8.0,5.45
-214.0,20.0,5.451
-205.0,15.0,5.452
-192.0,9.0,5.453
-199.0,17.0,5.454
-224.0,32.0,5.455
-246.0,33.0,5.456
-255.0,21.0,5.457
-269.0,12.0,5.458
-286.0,20.0,5.459
-295.0,40.0,5.46
-286.0,61.0,5.461
-259.0,74.0,5.462
-205.0,57.0,5.463
-115.0,0.0,5.464
-20.0,-54.0,5.465
36.0,-44.0,5.466
52.0,39.0,5.467
70.0,134.0,5.468
93.0,164.0,5.469
86.0,102.0,5.47
43.0,-12.0,5.471
10.0,-128.0,5.472
10.0,-217.0,5.473
17.0,-272.0,5.474
8.0,-286.0,5.475
1.0,-246.0,5.476
2.0,-160.0,5.477
-10.0,-52.0,5.478
-36.0,36.0,5.479
-46.0,77.0,5.48
-23.0,75.0,5.481
4.0,59.0,5.482
22.0,40.0,5.483
47.0,28.0,5.484
88.0,18.0,5.485
118.0,11.0,5.486
121.0,7.0,5.487
119.0,9.0,5.488
132.0,21.0,5.489
140.0,41.0,5.49
132.0,65.0,5.491
127.0,91.0,5.492
139.0,122.0,5.493
156.0,154.0,5.494
163.0,177.0,5.495
168.0,156.0,5.496
181.0,64.0,5.497
195.0,-105.0,5.498
199.0,-264.0,5.499
187.0,-323.0,5.5
167.0,-282.0,5.501
148.0,-202.0,5.502
137.0,-129.0,5.503
139.0,-62.0,5.504
142.0,1.0,5.505
138.0,47.0,5.506
130.0,74.0,5.507
132.0,92.0,5.508
139.0,99.0,5.509
142.0,81.0,5.51
127.0,49.0,5.511
93.0,32.0,5.512
44.0,35.0,5.513
-8.0,37.0,5.514
-55.0,29.0,5.515
-106.0,21.0,5.516
-159.0,26.0,5.517
-206.0,31.0,5.518
-231.0,34.0,5.519
-245.0,34.0,5.52
-223.0,32.0,5.521
-197.0,28.0,5.522
-155.0,24.0,5.523
-125.0,19.0,5.524
-131.0,19.0,5.525
-151.0,24.0,5.526
-208.0,36.0,5.527
-270.0,52.0,5.528
-346.0,56.0,5.529
-390.0,40.0,5.53
-338.0,14.0,5.531
-266.0,-3.0,5.532
-140.0,-6.0,5.533
-13.0,-4.0,5.534
116.0,-7.0,5.535
222.0,-10.0,5.536
256.0,-1.0,5.537
281.0,15.0,5.538
261.0,29.0,5.539
207.0,35.0,5.54
147.0,16.0,5.541
123.0,0.0,5.542
137.0,-9.0,5.543
158.0,-15.0,5.544
172.0,-5.0,5.545
188.0,1.0,5.546
199.0,-2.0,5.547
185.0,-7.0,5.548
157.0,-17.0,5.549
134.0,-25.0,5.55
109.0,-27.0,5.551
74.0,-30.0,5.552
40.0,-33.0,5.553
25.0,-35.0,5.554
20.0,-30.0,5.555
9.0,-25.0,5.556
1.0,-22.0,5.557
0.0,-17.0,5.558
-6.0,-2.0,5.559
-31.0,11.0,5.56
-58.0,13.0,5.561
-54.0,8.0,5.562
-20.0,-10.0,5.563
16.0,-38.0,5.564
37.0,-66.0,5.565
58.0,-81.0,5.566
91.0,-80.0,5.567
126.0,-66.0,5.568
139.0,-40.0,5.569
125.0,-9.0,5.57
100.0,9.0,5.571
83.0,14.0,5.572
63.0,13.0,5.573
30.0,15.0,5.574
-8.0,17.0,5.575
-37.0,17.0,5.576
-60.0,19.0,5.577
-94.0,24.0,5.578
-136.0,27.0,5.579
-177.0,17.0,5.58
-209.0,0.0,5.581
-229.0,0.0,5.582
-233.0,14.0,5.583
-227.0,23.0,5.584
-229.0,17.0,5.585
-247.0,7.0,5.586
-264.0,4.0,5.587
-255.0,6.0,5.588
-228.0,5.0,5.589
-200.0,7.0,5.59
-171.0,6.0,5.591
-141.0,3.0,5.592
-120.0,-1.0,5.593
-117.0,-1.0,5.594
-126.0,2.0,5.595
-132.0,1.0,5.596
-133.0,-4.0,5.597
-140.0,-6.0,5.598
-146.0,4.0,5.599
-142.0,12.0,5.6
-112.0,7.0,5.601
-40.0,-5.0,5.602
76.0,-12.0,5.603
185.0,-12.0,5.604
211.0,-7.0,5.605
133.0,-1.0,5.606
24.0,2.0,5.607
-36.0,4.0,5.608
-30.0,7.0,5.609
19.0,12.0,5.61
87.0,12.0,5.611
135.0,5.0,5.612
120.0,0.0,5.613
55.0,8.0,5.614
9.0,17.0,5.615
14.0,11.0,5.616
10.0,-4.0,5.617
-60.0,-14.0,5.618
-156.0,-8.0,5.619
-235.0,-4.0,5.62
-266.0,-7.0,5.621
-279.0,-9.0,5.622
-236.0,-7.0,5.623
-167.0,-3.0,5.624
-24.0,3.0,5.625
91.0,10.0,5.626
121.0,14.0,5.627
187.0,15.0,5.628
357.0,9.0,5.629
510.0,1.0,5.63
611.0,-15.0,5.631
662.0,-28.0,5.632
561.0,-28.0,5.633
468.0,-25.0,5.634
398.0,-15.0,5.635
342.0,-8.0,5.636
325.0,-8.0,5.637
319.0,-10.0,5.638
366.0,-11.0,5.639
451.0,-6.0,5.64
548.0,-4.0,5.641
639.0,-4.0,5.642
740.0,-4.0,5.643
912.0,1.0,5.644
1196.0,10.0,5.645
1561.0,12.0,5.646
1912.0,8.0,5.647
2203.0,9.0,5.648
2465.0,25.0,5.649
2705.0,51.0,5.65
2813.0,74.0,5.651
2646.0,81.0,5.652
2195.0,66.0,5.653
1588.0,38.0,5.654
950.0,9.0,5.655
312.0,-14.0,5.656
-281.0,-35.0,5.657
-865.0,-62.0,5.658
-1387.0,-92.0,5.659
-1837.0,-113.0,5.66
-2226.0,-116.0,5.661
-2557.0,-89.0,5.662
-2826.0,-42.0,5.663
-3047.0,11.0,5.664
-3232.0,54.0,5.665
-3382.0,75.0,5.666
-3505.0,66.0,5.667
-3652.0,30.0,5.668
-3870.0,-18.0,5.669
-4000.0,-61.0,5.67
-4000.0,-92.0,5.671
-4000.0,-113.0,5.672
-3901.0,-118.0,5.673
-3885.0,-94.0,5.674
-3885.0,-43.0,5.675
-3594.0,18.0,5.676
-3019.0,71.0,5.677
-2362.0,103.0,5.678
-1841.0,118.0,5.679
-1369.0,126.0,5.68
-790.0,109.0,5.681
-173.0,77.0,5.682
335.0,3.0,5.683
744.0,-61.0,5.684
1130.0,-97.0,5.685
1475.0,-101.0,5.686
1731.0,-8.0,5.687
1932.0,70.0,5.688
2127.0,104.0,5.689
2294.0,109.0,5.69
2399.0,20.0,5.691
2475.0,-52.0,5.692
2559.0,-75.0,5.693
2613.0,-90.0,5.694
2614.0,-77.0,5.695
2620.0,-56.0,5.696
2673.0,-14.0,5.697
2720.0,21.0,5.698
2682.0,18.0,5.699
2574.0,32.0,5.7
2508.0,120.0,5.701
2537.0,243.0,5.702
2596.0,274.0,5.703
2598.0,158.0,5.704
2537.0,-21.0,5.705
2474.0,-138.0,5.706
2424.0,-133.0,5.707
2320.0,-43.0,5.708
2119.0,41.0,5.709
1926.0,35.0,5.71
1925.0,-54.0,5.711
2118.0,-129.0,5.712
2241.0,-111.0,5.713
2012.0,-46.0,5.714
1415.0,-46.0,5.715
667.0,-146.0,5.716
26.0,-257.0,5.717
-418.0,-298.0,5.718
-555.0,-243.0,5.719
-500.0,-141.0,5.72
-631.0,-62.0,5.721
-1147.0,-34.0,5.722
-1717.0,-25.0,5.723
-1901.0,31.0,5.724
-1777.0,161.0,5.725
-1761.0,303.0,5.726
-1921.0,383.0,5.727
-1963.0,400.0,5.728
-1813.0,397.0,5.729
-1712.0,364.0,5.73
-1745.0,265.0,5.731
-1747.0,131.0,5.732
-1711.0,32.0,5.733
-1826.0,-47.0,5.734
-2095.0,-181.0,5.735
-2277.0,-354.0,5.736
-2277.0,-432.0,5.737
-2207.0,-340.0,5.738
-2135.0,-156.0,5.739
-1986.0,-11.0,5.74
-1751.0,77.0,5.741
-1522.0,166.0,5.742
-1276.0,243.0,5.743
-892.0,246.0,5.744
-436.0,180.0,5.745
-190.0,110.0,5.746
-305.0,52.0,5.747
-594.0,-26.0,5.748
-789.0,-102.0,5.749
-875.0,-90.0,5.75
-1023.0,14.0,5.751
-1253.0,87.0,5.752
-1345.0,23.0,5.753
-1147.0,-136.0,5.754
-834.0,-260.0,5.755
-672.0,-283.0,5.756
-668.0,-221.0,5.757
-627.0,-88.0,5.758
-447.0,84.0,5.759
-217.0,201.0,5.76
10.0,189.0,5.761
304.0,119.0,5.762
676.0,96.0,5.763
1019.0,94.0,5.764
1273.0,-12.0,5.765
1493.0,-232.0,5.766
1691.0,-420.0,5.767
1798.0,-473.0,5.768
1805.0,-411.0,5.769
1797.0,-274.0,5.77
1826.0,-78.0,5.771
1848.0,102.0,5.772
1840.0,166.0,5.773
1843.0,132.0,5.774
1885.0,127.0,5.775
1924.0,197.0,5.776
1917.0,264.0,5.777
1856.0,274.0,5.778
1787.0,252.0,5.779
1734.0,211.0,5.78
1732.0,111.0,5.781
1722.0,30.0,5.782
1688.0,8.0,5.783
1629.0,5.0,5.784
1499.0,59.0,5.785
1372.0,74.0,5.786
1252.0,-32.0,5.787
1135.0,-134.0,5.788
1032.0,-218.0,5.789
916.0,-268.0,5.79
762.0,-211.0,5.791
623.0,-173.0,5.792
530.0,-197.0,5.793
443.0,-179.0,5.794
376.0,-33.0,5.795
278.0,116.0,5.796
84.0,279.0,5.797
-111.0,429.0,5.798
-299.0,485.0,5.799
-463.0,398.0,5.8
-626.0,178.0,5.801
-795.0,-54.0,5.802
-952.0,-212.0,5.803
-1072.0,-300.0,5.804
-1150.0,-350.0,5.805
-1208.0,-362.0,5.806
-1268.0,-336.0,5.807
-1316.0,-279.0,5.808
-1324.0,-183.0,5.809
-1300.0,-45.0,5.81
-1269.0,92.0,5.811
-1240.0,180.0,5.812
-1212.0,235.0,5.813
-1196.0,296.0,5.814
-1199.0,345.0,5.815
-1203.0,322.0,5.816
-1181.0,237.0,5.817
-1145.0,141.0,5.818
-1114.0,83.0,5.819
-1075.0,47.0,5.82
-1014.0,1.0,5.821
-963.0,-36.0,5.822
-959.0,-32.0,5.823
-968.0,7.0,5.824
-914.0,10.0,5.825
-791.0,-98.0,5.826
-700.0,-288.0,5.827
-735.0,-394.0,5.828
-862.0,-296.0,5.829
-964.0,-90.0,5.83
-973.0,35.0,5.831
-928.0,63.0,5.832
-887.0,120.0,5.833
-849.0,198.0,5.834
-769.0,122.0,5.835
-616.0,-143.0,5.836
-399.0,-367.0,5.837
933.0,-386.0,5.838
881.0,-254.0,5.839
824.0,-116.0,5.84
757.0,18.0,5.841
693.0,215.0,5.842
639.0,420.0,5.843
588.0,513.0,5.844
546.0,457.0,5.845
506.0,289.0,5.846
471.0,57.0,5.847
438.0,-171.0,5.848
410.0,-324.0,5.849
369.0,-398.0,5.85
294.0,-444.0,5.851
214.0,-457.0,5.852
128.0,-374.0,5.853
42.0,-206.0,5.854
-38.0,-35.0,5.855
-114.0,99.0,5.856
-180.0,225.0,5.857
801.0,332.0,5.858
762.0,400.0,5.859
720.0,361.0,5.86
670.0,265.0,5.861
623.0,200.0,5.862
583.0,178.0,5.863
545.0,170.0,5.864
514.0,182.0,5.865
484.0,234.0,5.866
458.0,282.0,5.867
434.0,230.0,5.868
412.0,66.0,5.869
382.0,-103.0,5.87
326.0,-199.0,5.871
267.0,-277.0,5.872
203.0,-418.0,5.873
139.0,-558.0,5.874
80.0,-567.0,5.875
24.0,-442.0,5.876
-25.0,-304.0,5.877
-74.0,-175.0,5.878
-127.0,-46.0,5.879
-176.0,95.0,5.88
-179.0,188.0,5.881
-123.0,245.0,5.882
-42.0,334.0,5.883
15.0,440.0,5.884
39.0,438.0,5.885
49.0,260.0,5.886
55.0,0.0,5.887
52.0,-193.0,5.888
31.0,-260.0,5.889
-7.0,-240.0,5.89
-54.0,-192.0,5.891
-93.0,-148.0,5.892
-114.0,-125.0,5.893
-129.0,-112.0,5.894
-154.0,-86.0,5.895
-194.0,-40.0,5.896
-229.0,4.0,5.897
-252.0,67.0,5.898
-259.0,206.0,5.899
-255.0,424.0,5.9
-253.0,587.0,5.901
-252.0,563.0,5.902
-242.0,387.0,5.903
-213.0,229.0,5.904
-174.0,160.0,5.905
-143.0,70.0,5.906
-121.0,-132.0,5.907
-98.0,-356.0,5.908
-81.0,-445.0,5.909
-89.0,-395.0,5.91
-113.0,-336.0,5.911
-126.0,-347.0,5.912
-125.0,-376.0,5.913
-141.0,-355.0,5.914
-185.0,-276.0,5.915
-226.0,-175.0,5.916
-245.0,-93.0,5.917
-264.0,-46.0,5.918
-292.0,-18.0,5.919
-303.0,45.0,5.92
-267.0,175.0,5.921
-207.0,319.0,5.922
-165.0,380.0,5.923
-138.0,331.0,5.924
-102.0,228.0,5.925
-58.0,142.0,5.926
-20.0,103.0,5.927
16.0,99.0,5.928
48.0,95.0,5.929
61.0,53.0,5.93
50.0,-26.0,5.931
36.0,-102.0,5.932
32.0,-131.0,5.933
25.0,-120.0,5.934
8.0,-96.0,5.935
-4.0,-59.0,5.936
-9.0,2.0,5.937
-32.0,66.0,5.938
-70.0,80.0,5.939
-86.0,35.0,5.94
-58.0,-22.0,5.941
-21.0,-39.0,5.942
1.0,-20.0,5.943
24.0,0.0,5.944
61.0,9.0,5.945
94.0,11.0,5.946
107.0,19.0,5.947
114.0,40.0,5.948
135.0,78.0,5.949
159.0,125.0,5.95
173.0,162.0,5.951
177.0,173.0,5.952
172.0,177.0,5.953
145.0,196.0,5.954
105.0,211.0,5.955
73.0,154.0,5.956
59.0,8.0,5.957
37.0,-199.0,5.958
4.0,-375.0,5.959
-25.0,-469.0,5.96
-29.0,-490.0,5.961
-28.0,-448.0,5.962
-38.0,-353.0,5.963
-42.0,-235.0,5.964
-17.0,-120.0,5.965
29.0,-5.0,5.966
60.0,99.0,5.967
62.0,159.0,5.968
55.0,151.0,5.969
58.0,117.0,5.97
59.0,104.0,5.971
51.0,110.0,5.972
46.0,104.0,5.973
51.0,90.0,5.974
51.0,84.0,5.975
38.0,84.0,5.976
26.0,78.0,5.977
22.0,82.0,5.978
15.0,118.0,5.979
-7.0,151.0,5.98
-28.0,172.0,5.981
-32.0,164.0,5.982
-26.0,68.0,5.983
-25.0,-33.0,5.984
-24.0,-147.0,5.985
-14.0,-228.0,5.986
0.0,-210.0,5.987
3.0,-181.0,5.988
-4.0,-122.0,5.989
-5.0,-62.0,5.99
5.0,3.0,5.991
25.0,54.0,5.992
41.0,62.0,5.993
44.0,61.0,5.994
31.0,34.0,5.995
13.0,14.0,5.996
2.0,20.0,5.997
-11.0,27.0,5.998
-30.0,24.0,5.999
-52.0,12.0,6.0
-57.0,3.0,6.001
-46.0,8.0,6.002
-31.0,18.0,6.003
-20.0,24.0,6.004
-7.0,29.0,6.005
8.0,29.0,6.006
15.0,12.0,6.007
17.0,-11.0,6.008
22.0,-15.0,6.009
36.0,-1.0,6.01
46.0,-1.0,6.011
47.0,-30.0,6.012
41.0,-55.0,6.013
34.0,-35.0,6.014
22.0,18.0,6.015
3.0,62.0,6.016
-8.0,71.0,6.017
-11.0,53.0,6.018
-9.0,19.0,6.019
-17.0,-24.0,6.02
-37.0,-63.0,6.021
-59.0,-69.0,6.022
-68.0,-51.0,6.023
-61.0,-37.0,6.024
-43.0,-36.0,6.025
-22.0,-25.0,6.026
-5.0,10.0,6.027
5.0,44.0,6.028
12.0,49.0,6.029
18.0,30.0,6.03
30.0,12.0,6.031
44.0,6.0,6.032
50.0,5.0,6.033
40.0,4.0,6.034
23.0,-1.0,6.035
8.0,-9.0,6.036
0.0,-13.0,6.037
-10.0,-13.0,6.038
-23.0,-7.0,6.039
-34.0,-5.0,6.04
-33.0,-3.0,6.041
-21.0,17.0,6.042
-3.0,43.0,6.043
10.0,44.0,6.044
21.0,7.0,6.045
37.0,-42.0,6.046
62.0,-65.0,6.047
85.0,-58.0,6.048
93.0,-45.0,6.049
84.0,-39.0,6.05
69.0,-30.0,6.051
52.0,-5.0,6.052
40.0,23.0,6.053
29.0,36.0,6.054
17.0,29.0,6.055
-1.0,13.0,6.056
-17.0,5.0,6.057
-36.0,5.0,6.058
-55.0,6.0,6.059
-78.0,4.0,6.06
-90.0,-5.0,6.061
-85.0,-9.0,6.062
-68.0,-7.0,6.063
-51.0,-1.0,6.064
-39.0,8.0,6.065
-23.0,15.0,6.066
0.0,20.0,6.067
26.0,20.0,6.068
48.0,12.0,6.069
64.0,-4.0,6.07
80.0,-27.0,6.071
96.0,-47.0,6.072
104.0,-50.0,6.073
92.0,-32.0,6.074
57.0,-8.0,6.075
11.0,4.0,6.076
-24.0,4.0,6.077
-41.0,1.0,6.078
-43.0,3.0,6.079
-41.0,6.0,6.08
-36.0,5.0,6.081
-17.0,7.0,6.082
23.0,10.0,6.083
71.0,14.0,6.084
99.0,20.0,6.085
91.0,26.0,6.086
64.0,26.0,6.087
42.0,18.0,6.088
30.0,7.0,6.089
23.0,0.0,6.09
14.0,0.0,6.091
5.0,1.0,6.092
1.0,-1.0,6.093
1.0,-1.0,6.094
0.0,3.0,6.095
-8.0,2.0,6.096
-27.0,-10.0,6.097
-54.0,18.0,6.098
-80.0,15.0,6.099
-102.0,12.0,6.1
-110.0,12.0,6.101
-113.0,12.0,6.102
-97.0,12.0,6.103
-79.0,9.0,6.104
-59.0,15.0,6.105
-38.0,15.0,6.106
-12.0,-7.0,6.107
7.0,-21.0,6.108
6.0,15.0,6.109
3.0,45.0,6.11
-2.0,38.0,6.111
-8.0,28.0,6.112
-10.0,9.0,6.113
-16.0,-7.0,6.114
-30.0,6.0,6.115
-39.0,15.0,6.116
-33.0,12.0,6.117
-29.0,14.0,6.118
-43.0,13.0,6.119
-72.0,12.0,6.12
-98.0,12.0,6.121
-108.0,12.0,6.122
-95.0,12.0,6.123
-65.0,11.0,6.124
-40.0,13.0,6.125
-32.0,13.0,6.126
-28.0,6.0,6.127
-14.0,2.0,6.128
0.0,13.0,6.129
-24.0,22.0,6.13
-101.0,20.0,6.131
-195.0,17.0,6.132
-264.0,11.0,6.133
-300.0,6.0,6.134
-317.0,10.0,6.135
-313.0,13.0,6.136
-274.0,12.0,6.137
-201.0,7.0,6.138
-130.0,-4.0,6.139
-80.0,-8.0,6.14
-29.0,-14.0,6.141
36.0,-20.0,6.142
96.0,-24.0,6.143
126.0,-15.0,6.144
136.0,-4.0,6.145
150.0,-1.0,6.146
174.0,-10.0,6.147
194.0,-17.0,6.148
202.0,-14.0,6.149
215.0,-8.0,6.15
237.0,-4.0,6.151
262.0,-4.0,6.152
279.0,-7.0,6.153
280.0,-5.0,6.154
261.0,0.0,6.155
225.0,4.0,6.156
188.0,6.0,6.157
153.0,2.0,6.158
130.0,-2.0,6.159
110.0,-2.0,6.16
91.0,-5.0,6.161
78.0,-5.0,6.162
79.0,0.0,6.163
85.0,8.0,6.164
89.0,14.0,6.165
102.0,12.0,6.166
143.0,1.0,6.167
201.0,-7.0,6.168
238.0,-8.0,6.169
236.0,-5.0,6.17
208.0,-1.0,6.171
186.0,9.0,6.172
173.0,26.0,6.173
152.0,38.0,6.174
109.0,24.0,6.175
53.0,-6.0,6.176
1.0,-24.0,6.177
-50.0,-21.0,6.178
-95.0,-9.0,6.179
-132.0,-13.0,6.18
-157.0,-34.0,6.181
-169.0,-47.0,6.182
-166.0,-47.0,6.183
-144.0,-36.0,6.184
-114.0,-20.0,6.185
-85.0,-4.0,6.186
-59.0,0.0,6.187
-31.0,-7.0,6.188
-9.0,-14.0,6.189
-6.0,-10.0,6.19
-18.0,2.0,6.191
-33.0,14.0,6.192
-45.0,15.0,6.193
-61.0,10.0,6.194
-82.0,7.0,6.195
-102.0,13.0,6.196
-110.0,26.0,6.197
-116.0,31.0,6.198
-119.0,23.0,6.199
-119.0,7.0,6.2
-116.0,-3.0,6.201
-112.0,-3.0,6.202
-99.0,0.0,6.203
-68.0,11.0,6.204
-25.0,42.0,6.205
11.0,83.0,6.206
36.0,100.0,6.207
57.0,65.0,6.208
76.0,2.0,6.209
90.0,-37.0,6.21
92.0,-33.0,6.211
85.0,-24.0,6.212
75.0,-38.0,6.213
66.0,-59.0,6.214
54.0,-60.0,6.215
41.0,-49.0,6.216
24.0,-50.0,6.217
0.0,-62.0,6.218
-15.0,-59.0,6.219
-20.0,-33.0,6.22
-23.0,-11.0,6.221
-31.0,-5.0,6.222
-34.0,-6.0,6.223
-25.0,-4.0,6.224
-17.0,0.0,6.225
-15.0,4.0,6.226
-8.0,9.0,6.227
13.0,17.0,6.228
36.0,23.0,6.229
42.0,28.0,6.23
37.0,35.0,6.231
37.0,39.0,6.232
46.0,37.0,6.233
50.0,38.0,6.234
42.0,59.0,6.235
27.0,98.0,6.236
11.0,143.0,6.237
-7.0,179.0,6.238
-24.0,187.0,6.239
-35.0,171.0,6.24
-42.0,84.0,6.241
-46.0,-6.0,6.242
-48.0,-106.0,6.243
-53.0,-194.0,6.244
-65.0,-249.0,6.245
-62.0,-285.0,6.246
-5.0,-262.0,6.247
102.0,-227.0,6.248
194.0,-156.0,6.249
218.0,-86.0,6.25
185.0,-23.0,6.251
155.0,29.0,6.252
145.0,50.0,6.253
127.0,71.0,6.254
78.0,92.0,6.255
16.0,114.0,6.256
-22.0,136.0,6.257
-31.0,153.0,6.258
-17.0,137.0,6.259
0.0,101.0,6.26
17.0,78.0,6.261
43.0,99.0,6.262
82.0,139.0,6.263
110.0,147.0,6.264
104.0,100.0,6.265
69.0,15.0,6.266
34.0,-102.0,6.267
1.0,-236.0,6.268
-44.0,-340.0,6.269
-94.0,-365.0,6.27
-124.0,-305.0,6.271
-135.0,-188.0,6.272
-157.0,-46.0,6.273
-206.0,85.0,6.274
-275.0,148.0,6.275
-353.0,113.0,6.276
-437.0,38.0,6.277
-518.0,-2.0,6.278
-545.0,22.0,6.279
-487.0,55.0,6.28
-385.0,54.0,6.281
-318.0,42.0,6.282
-301.0,57.0,6.283
-253.0,94.0,6.284
-109.0,124.0,6.285
88.0,121.0,6.286
228.0,74.0,6.287
283.0,-5.0,6.288
318.0,-75.0,6.289
373.0,-92.0,6.29
410.0,-55.0,6.291
371.0,-7.0,6.292
237.0,24.0,6.293
31.0,42.0,6.294
-180.0,47.0,6.295
-309.0,33.0,6.296
-324.0,0.0,6.297
-288.0,-33.0,6.298
-280.0,-42.0,6.299
-289.0,-12.0,6.3
-238.0,44.0,6.301
-106.0,114.0,6.302
56.0,176.0,6.303
232.0,203.0,6.304
439.0,173.0,6.305
636.0,90.0,6.306
708.0,-18.0,6.307
627.0,-114.0,6.308
512.0,-159.0,6.309
465.0,-124.0,6.31
446.0,-21.0,6.311
363.0,95.0,6.312
221.0,165.0,6.313
79.0,188.0,6.314
-50.0,196.0,6.315
-179.0,201.0,6.316
-266.0,186.0,6.317
-282.0,114.0,6.318
-264.0,-27.0,6.319
-276.0,-235.0,6.32
-313.0,-460.0,6.321
-329.0,-606.0,6.322
-319.0,-634.0,6.323
-295.0,-586.0,6.324
-233.0,-524.0,6.325
-132.0,-453.0,6.326
-46.0,-339.0,6.327
-15.0,-178.0,6.328
0.0,19.0,6.329
34.0,238.0,6.33
53.0,436.0,6.331
18.0,556.0,6.332
-43.0,572.0,6.333
-99.0,505.0,6.334
-159.0,353.0,6.335
-207.0,105.0,6.336
-190.0,-155.0,6.337
-108.0,-336.0,6.338
-66.0,-362.0,6.339
-152.0,-292.0,6.34
-279.0,-198.0,6.341
-301.0,-50.0,6.342
-205.0,187.0,6.343
-104.0,447.0,6.344
-50.0,598.0,6.345
10.0,583.0,6.346
99.0,446.0,6.347
169.0,271.0,6.348
185.0,136.0,6.349
172.0,63.0,6.35
129.0,-1.0,6.351
44.0,-118.0,6.352
-37.0,-270.0,6.353
-45.0,-396.0,6.354
-16.0,-489.0,6.355
-36.0,-571.0,6.356
-106.0,-602.0,6.357
-154.0,-517.0,6.358
-154.0,-321.0,6.359
-163.0,-113.0,6.36
-199.0,48.0,6.361
-183.0,191.0,6.362
-76.0,340.0,6.363
41.0,453.0,6.364
114.0,498.0,6.365
177.0,487.0,6.366
269.0,448.0,6.367
348.0,387.0,6.368
371.0,287.0,6.369
376.0,130.0,6.37
405.0,-86.0,6.371
435.0,-304.0,6.372
422.0,-450.0,6.373
364.0,-486.0,6.374
281.0,-412.0,6.375
186.0,-215.0,6.376
104.0,74.0,6.377
43.0,368.0,6.378
9.0,465.0,6.379
-15.0,291.0,6.38
-33.0,-7.0,6.381
-34.0,-243.0,6.382
-39.0,-390.0,6.383
-56.0,-507.0,6.384
-55.0,-586.0,6.385
3.0,-581.0,6.386
75.0,-517.0,6.387
80.0,-449.0,6.388
20.0,-362.0,6.389
-19.0,-217.0,6.39
0.0,-48.0,6.391
35.0,88.0,6.392
41.0,204.0,6.393
27.0,342.0,6.394
5.0,469.0,6.395
-32.0,525.0,6.396
-65.0,523.0,6.397
-77.0,497.0,6.398
-93.0,453.0,6.399
-120.0,393.0,6.4
-184.0,287.0,6.401
-229.0,187.0,6.402
-216.0,106.0,6.403
-206.0,20.0,6.404
-210.0,-77.0,6.405
-197.0,-144.0,6.406
-135.0,-110.0,6.407
-82.0,-47.0,6.408
-59.0,106.0,6.409
-31.0,201.0,6.41
11.0,122.0,6.411
43.0,-4.0,6.412
40.0,-276.0,6.413
33.0,-478.0,6.414
11.0,-469.0,6.415
-16.0,-422.0,6.416
-60.0,-260.0,6.417
-97.0,-81.0,6.418
-99.0,138.0,6.419
-80.0,286.0,6.42
-58.0,345.0,6.421
-30.0,329.0,6.422
0.0,220.0,6.423
29.0,45.0,6.424
60.0,-91.0,6.425
111.0,-129.0,6.426
170.0,-139.0,6.427
202.0,-180.0,6.428
193.0,-185.0,6.429
179.0,-66.0,6.43
210.0,145.0,6.431
285.0,343.0,6.432
323.0,450.0,6.433
248.0,433.0,6.434
92.0,319.0,6.435
-39.0,197.0,6.436
-113.0,132.0,6.437
-237.0,55.0,6.438
-469.0,-111.0,6.439
-714.0,-311.0,6.44
-836.0,-414.0,6.441
-877.0,-406.0,6.442
-995.0,-378.0,6.443
-1190.0,-348.0,6.444
-1245.0,-266.0,6.445
-1024.0,-142.0,6.446
-685.0,-44.0,6.447
-471.0,23.0,6.448
-373.0,95.0,6.449
-204.0,148.0,6.45
56.0,143.0,6.451
229.0,114.0,6.452
251.0,113.0,6.453
280.0,116.0,6.454
412.0,84.0,6.455
525.0,46.0,6.456
515.0,45.0,6.457
459.0,57.0,6.458
488.0,46.0,6.459
572.0,33.0,6.46
615.0,46.0,6.461
631.0,55.0,6.462
691.0,30.0,6.463
782.0,16.0,6.464
837.0,76.0,6.465
848.0,185.0,6.466
858.0,248.0,6.467
874.0,212.0,6.468
871.0,97.0,6.469
847.0,-43.0,6.47
826.0,-155.0,6.471
812.0,-223.0,6.472
784.0,-262.0,6.473
732.0,-292.0,6.474
655.0,-293.0,6.475
554.0,-244.0,6.476
444.0,-163.0,6.477
322.0,-75.0,6.478
219.0,0.0,6.479
146.0,50.0,6.48
97.0,69.0,6.481
51.0,71.0,6.482
-1.0,71.0,6.483
-53.0,71.0,6.484
-117.0,63.0,6.485
-198.0,47.0,6.486
-272.0,41.0,6.487
-299.0,47.0,6.488
-265.0,47.0,6.489
-202.0,38.0,6.49
-147.0,29.0,6.491
-106.0,22.0,6.492
-89.0,12.0,6.493
-112.0,0.0,6.494
-169.0,-7.0,6.495
-225.0,-13.0,6.496
-256.0,-20.0,6.497
-278.0,-24.0,6.498
-311.0,-23.0,6.499
-345.0,-23.0,6.5
-356.0,-28.0,6.501
-344.0,-25.0,6.502
-335.0,-8.0,6.503
-341.0,10.0,6.504
-351.0,15.0,6.505
-357.0,8.0,6.506
-367.0,5.0,6.507
-381.0,5.0,6.508
-383.0,0.0,6.509
-347.0,-9.0,6.51
-278.0,-16.0,6.511
-228.0,-14.0,6.512
-253.0,-8.0,6.513
-355.0,-3.0,6.514
-467.0,-4.0,6.515
-500.0,-8.0,6.516
-450.0,-13.0,6.517
-380.0,-19.0,6.518
-370.0,-23.0,6.519
-434.0,-28.0,6.52
-522.0,-36.0,6.521
-588.0,-39.0,6.522
-608.0,-31.0,6.523
-576.0,-13.0,6.524
-516.0,5.0,6.525
-458.0,15.0,6.526
-400.0,13.0,6.527
-321.0,2.0,6.528
-245.0,-10.0,6.529
-219.0,-14.0,6.53
-225.0,-4.0,6.531
-180.0,8.0,6.532
-54.0,8.0,6.533
88.0,-2.0,6.534
191.0,-8.0,6.535
257.0,-6.0,6.536
299.0,0.0,6.537
312.0,-3.0,6.538
303.0,-2.0,6.539
312.0,10.0,6.54
357.0,18.0,6.541
413.0,12.0,6.542
462.0,-2.0,6.543
518.0,-5.0,6.544
584.0,10.0,6.545
637.0,22.0,6.546
663.0,18.0,6.547
681.0,10.0,6.548
696.0,8.0,6.549
703.0,11.0,6.55
711.0,12.0,6.551
738.0,11.0,6.552
775.0,10.0,6.553
807.0,13.0,6.554
849.0,16.0,6.555
902.0,21.0,6.556
917.0,32.0,6.557
843.0,47.0,6.558
713.0,52.0,6.559
598.0,28.0,6.56
512.0,-23.0,6.561
407.0,-72.0,6.562
274.0,-98.0,6.563
153.0,-109.0,6.564
65.0,-100.0,6.565
-11.0,-59.0,6.566
-82.0,9.0,6.567
-126.0,61.0,6.568
-143.0,63.0,6.569
-161.0,29.0,6.57
-186.0,0.0,6.571
-200.0,-10.0,6.572
-211.0,-19.0,6.573
-239.0,-36.0,6.574
-287.0,-47.0,6.575
-336.0,-41.0,6.576
-379.0,-20.0,6.577
-426.0,4.0,6.578
-471.0,28.0,6.579
-507.0,40.0,6.58
-518.0,36.0,6.581
-524.0,28.0,6.582
-510.0,22.0,6.583
-494.0,21.0,6.584
-472.0,23.0,6.585
-447.0,24.0,6.586
-413.0,27.0,6.587
-379.0,27.0,6.588
-345.0,23.0,6.589
-315.0,17.0,6.59
-296.0,14.0,6.591
-275.0,11.0,6.592
-249.0,9.0,6.593
-228.0,8.0,6.594
-218.0,10.0,6.595
-208.0,11.0,6.596
-196.0,12.0,6.597
-185.0,10.0,6.598
-181.0,6.0,6.599
-187.0,-1.0,6.6
-193.0,-8.0,6.601
-192.0,-4.0,6.602
-182.0,9.0,6.603
-165.0,19.0,6.604
-146.0,24.0,6.605
-122.0,27.0,6.606
-88.0,27.0,6.607
-48.0,18.0,6.608
-12.0,2.0,6.609
17.0,-15.0,6.61
40.0,-36.0,6.611
54.0,-63.0,6.612
56.0,-90.0,6.613
53.0,-101.0,6.614
49.0,-88.0,6.615
41.0,-60.0,6.616
31.0,-35.0,6.617
14.0,-17.0,6.618
-5.0,-4.0,6.619
-27.0,5.0,6.62
-44.0,3.0,6.621
-42.0,-6.0,6.622
-24.0,-12.0,6.623
-11.0,-11.0,6.624
-3.0,-8.0,6.625
22.0,-5.0,6.626
80.0,0.0,6.627
157.0,5.0,6.628
228.0,10.0,6.629
285.0,15.0,6.63
339.0,27.0,6.631
384.0,34.0,6.632
412.0,32.0,6.633
424.0,22.0,6.634
433.0,15.0,6.635
438.0,19.0,6.636
434.0,30.0,6.637
413.0,-2.0,6.638
394.0,-6.0,6.639
393.0,-8.0,6.64
406.0,0.0,6.641
423.0,8.0,6.642
444.0,12.0,6.643
478.0,18.0,6.644
526.0,25.0,6.645
573.0,27.0,6.646
610.0,14.0,6.647
632.0,0.0,6.648
644.0,-10.0,6.649
638.0,-23.0,6.65
608.0,-27.0,6.651
557.0,-27.0,6.652
488.0,-10.0,6.653
405.0,2.0,6.654
308.0,0.0,6.655
206.0,-6.0,6.656
99.0,-16.0,6.657
-51.0,0.0,6.658
-274.0,-2.0,6.659
-567.0,-3.0,6.66
-850.0,0.0,6.661
-1016.0,3.0,6.662
-1028.0,4.0,6.663
-975.0,7.0,6.664
-957.0,9.0,6.665
-965.0,10.0,6.666
-925.0,5.0,6.667
-852.0,0.0,6.668
-833.0,-4.0,6.669
-877.0,-8.0,6.67
-892.0,-10.0,6.671
-820.0,-10.0,6.672
-713.0,-4.0,6.673
-622.0,0.0,6.674
-537.0,0.0,6.675
-447.0,-2.0,6.676
-379.0,-6.0,6.677
-340.0,0.0,6.678
-294.0,-2.0,6.679
-248.0,-3.0,6.68
-200.0,0.0,6.681
-155.0,3.0,6.682
-122.0,5.0,6.683
-89.0,8.0,6.684
-58.0,11.0,6.685
-28.0,12.0,6.686
-2.0,6.0,6.687
21.0,0.0,6.688
37.0,-4.0,6.689
52.0,-10.0,6.69
62.0,-12.0,6.691
77.0,-12.0,6.692
105.0,-4.0,6.693
154.0,0.0,6.694
268.0,0.0,6.695
365.0,-2.0,6.696
411.0,-7.0,6.697
443.0,-1.0,6.698
440.0,-3.0,6.699
468.0,-4.0,6.7
499.0,0.0,6.701
489.0,4.0,6.702
447.0,6.0,6.703
409.0,9.0,6.704
388.0,12.0,6.705
374.0,13.0,6.706
357.0,7.0,6.707
339.0,0.0,6.708
325.0,-5.0,6.709
323.0,-11.0,6.71
353.0,-13.0,6.711
409.0,-13.0,6.712
447.0,-5.0,6.713
423.0,1.0,6.714
348.0,0.0,6.715
264.0,-3.0,6.716
193.0,-8.0,6.717
104.0,-11.0,6.718
0.0,-9.0,6.719
-89.0,-9.0,6.72
-148.0,-6.0,6.721
-196.0,4.0,6.722
-250.0,6.0,6.723
-293.0,-4.0,6.724
-312.0,-7.0,6.725
-314.0,6.0,6.726
-315.0,16.0,6.727
-312.0,6.0,6.728
-301.0,-9.0,6.729
-282.0,-9.0,6.73
-260.0,-2.0,6.731
-232.0,0.0,6.732
-211.0,-2.0,6.733
-204.0,-4.0,6.734
-210.0,-5.0,6.735
-214.0,-6.0,6.736
-217.0,-2.0,6.737
-228.0,6.0,6.738
-240.0,9.0,6.739
-241.0,0.0,6.74
-235.0,-12.0,6.741
-230.0,-15.0,6.742
-214.0,-14.0,6.743
-183.0,-17.0,6.744
-146.0,-17.0,6.745
-117.0,-11.0,6.746
-88.0,-3.0,6.747
-52.0,5.0,6.748
-20.0,16.0,6.749
-2.0,29.0,6.75
13.0,35.0,6.751
34.0,35.0,6.752
49.0,29.0,6.753
46.0,21.0,6.754
32.0,6.0,6.755
17.0,-9.0,6.756
4.0,-13.0,6.757
-9.0,-3.0,6.758
-20.0,20.0,6.759
-31.0,41.0,6.76
-42.0,38.0,6.761
-45.0,5.0,6.762
-29.0,-41.0,6.763
-6.0,-76.0,6.764
5.0,-85.0,6.765
1.0,-84.0,6.766
-3.0,-89.0,6.767
-4.0,-104.0,6.768
-7.0,-115.0,6.769
-14.0,-96.0,6.77
-13.0,-19.0,6.771
-12.0,105.0,6.772
-23.0,207.0,6.773
-43.0,217.0,6.774
-48.0,136.0,6.775
-23.0,35.0,6.776
14.0,-28.0,6.777
45.0,-71.0,6.778
60.0,-103.0,6.779
64.0,-105.0,6.78
70.0,-67.0,6.781
82.0,-25.0,6.782
100.0,-16.0,6.783
110.0,-16.0,6.784
113.0,10.0,6.785
126.0,44.0,6.786
158.0,48.0,6.787
198.0,39.0,6.788
227.0,54.0,6.789
246.0,79.0,6.79
256.0,76.0,6.791
235.0,42.0,6.792
163.0,18.0,6.793
55.0,16.0,6.794
-22.0,4.0,6.795
-4.0,-48.0,6.796
131.0,-125.0,6.797
358.0,-205.0,6.798
575.0,-256.0,6.799
675.0,-261.0,6.8
650.0,-226.0,6.801
582.0,-169.0,6.802
539.0,-114.0,6.803
511.0,-70.0,6.804
476.0,-35.0,6.805
451.0,-6.0,6.806
465.0,39.0,6.807
470.0,148.0,6.808
387.0,352.0,6.809
206.0,592.0,6.81
19.0,736.0,6.811
-68.0,685.0,6.812
-30.0,485.0,6.813
77.0,266.0,6.814
173.0,82.0,6.815
202.0,-107.0,6.816
166.0,-298.0,6.817
86.0,-437.0,6.818
-9.0,-464.0,6.819
-110.0,-452.0,6.82
-209.0,-490.0,6.821
-288.0,-532.0,6.822
-338.0,-477.0,6.823
-368.0,-324.0,6.824
-374.0,-169.0,6.825
-331.0,-63.0,6.826
-237.0,23.0,6.827
-138.0,96.0,6.828
-88.0,109.0,6.829
-83.0,58.0,6.83
-84.0,11.0,6.831
-82.0,42.0,6.832
-95.0,169.0,6.833
-128.0,346.0,6.834
-166.0,503.0,6.835
-200.0,582.0,6.836
-230.0,587.0,6.837
-263.0,582.0,6.838
-292.0,613.0,6.839
-321.0,611.0,6.84
-346.0,459.0,6.841
-360.0,171.0,6.842
-362.0,-130.0,6.843
-354.0,-351.0,6.844
-332.0,-522.0,6.845
-280.0,-700.0,6.846
-196.0,-858.0,6.847
-102.0,-928.0,6.848
-15.0,-872.0,6.849
48.0,-685.0,6.85
71.0,-388.0,6.851
47.0,-65.0,6.852
17.0,182.0,6.853
25.0,350.0,6.854
53.0,507.0,6.855
38.0,647.0,6.856
-24.0,673.0,6.857
-83.0,516.0,6.858
-97.0,236.0,6.859
-95.0,-74.0,6.86
-114.0,-359.0,6.861
-133.0,-556.0,6.862
-116.0,-583.0,6.863
-72.0,-417.0,6.864
-26.0,-149.0,6.865
21.0,95.0,6.866
77.0,243.0,6.867
123.0,276.0,6.868
140.0,225.0,6.869
133.0,165.0,6.87
128.0,156.0,6.871
123.0,172.0,6.872
109.0,131.0,6.873
91.0,0.0,6.874
72.0,-159.0,6.875
47.0,-263.0,6.876
12.0,-270.0,6.877
-25.0,-178.0,6.878
-60.0,-24.0,6.879
-107.0,120.0,6.88
-171.0,191.0,6.881
-226.0,191.0,6.882
-240.0,144.0,6.883
-212.0,43.0,6.884
-170.0,-122.0,6.885
-136.0,-288.0,6.886
-105.0,-360.0,6.887
-60.0,-312.0,6.888
-10.0,-198.0,6.889
24.0,-57.0,6.89
28.0,127.0,6.891
30.0,381.0,6.892
59.0,675.0,6.893
102.0,922.0,6.894
111.0,992.0,6.895
73.0,810.0,6.896
33.0,477.0,6.897
19.0,128.0,6.898
17.0,-118.0,6.899
-1.0,-301.0,6.9
-39.0,-480.0,6.901
-95.0,-601.0,6.902
-175.0,-592.0,6.903
-255.0,-449.0,6.904
-272.0,-185.0,6.905
-195.0,193.0,6.906
-85.0,552.0,6.907
-15.0,629.0,6.908
17.0,324.0,6.909
71.0,-150.0,6.91
152.0,-510.0,6.911
216.0,-699.0,6.912
229.0,-826.0,6.913
204.0,-928.0,6.914
154.0,-935.0,6.915
84.0,-812.0,6.916
13.0,-608.0,6.917
-64.0,-333.0,6.918
-163.0,-29.0,6.919
-282.0,247.0,6.92
-356.0,439.0,6.921
-323.0,553.0,6.922
-219.0,586.0,6.923
-129.0,517.0,6.924
-67.0,362.0,6.925
30.0,194.0,6.926
165.0,62.0,6.927
263.0,-53.0,6.928
283.0,-156.0,6.929
270.0,-179.0,6.93
267.0,-75.0,6.931
265.0,106.0,6.932
246.0,269.0,6.933
202.0,363.0,6.934
108.0,388.0,6.935
-38.0,354.0,6.936
-145.0,283.0,6.937
-135.0,189.0,6.938
-79.0,100.0,6.939
-150.0,36.0,6.94
-359.0,22.0,6.941
-499.0,86.0,6.942
-432.0,220.0,6.943
-311.0,368.0,6.944
-351.0,462.0,6.945
-513.0,454.0,6.946
-565.0,318.0,6.947
-417.0,71.0,6.948
-217.0,-238.0,6.949
-98.0,-535.0,6.95
-27.0,-741.0,6.951
66.0,-799.0,6.952
156.0,-701.0,6.953
191.0,-497.0,6.954
202.0,-258.0,6.955
244.0,-29.0,6.956
307.0,152.0,6.957
365.0,269.0,6.958
424.0,307.0,6.959
489.0,296.0,6.96
540.0,292.0,6.961
561.0,300.0,6.962
580.0,262.0,6.963
615.0,161.0,6.964
641.0,42.0,6.965
646.0,-48.0,6.966
647.0,-111.0,6.967
656.0,-166.0,6.968
657.0,-207.0,6.969
650.0,-234.0,6.97
658.0,-243.0,6.971
675.0,-195.0,6.972
665.0,-63.0,6.973
618.0,91.0,6.974
551.0,163.0,6.975
472.0,125.0,6.976
380.0,40.0,6.977
275.0,-62.0,6.978
182.0,-166.0,6.979
99.0,-247.0,6.98
12.0,-286.0,6.981
-66.0,-299.0,6.982
-109.0,-307.0,6.983
-130.0,-265.0,6.984
-161.0,-137.0,6.985
-194.0,12.0,6.986
-204.0,92.0,6.987
-190.0,117.0,6.988
-178.0,161.0,6.989
-174.0,222.0,6.99
-168.0,246.0,6.991
-166.0,236.0,6.992
-185.0,251.0,6.993
-215.0,290.0,6.994
-238.0,283.0,6.995
-261.0,193.0,6.996
-298.0,66.0,6.997
-347.0,-48.0,6.998
-380.0,-114.0,6.999
-391.0,-132.0,7.0
-384.0,-126.0,7.001
-363.0,-108.0,7.002
-338.0,-76.0,7.003
-337.0,-22.0,7.004
-357.0,45.0,7.005
-354.0,93.0,7.006
-300.0,99.0,7.007
-227.0,77.0,7.008
-195.0,62.0,7.009
-231.0,59.0,7.01
-335.0,48.0,7.011
-482.0,13.0,7.012
-599.0,-28.0,7.013
-616.0,-51.0,7.014
-557.0,-52.0,7.015
-526.0,-44.0,7.016
-550.0,-36.0,7.017
-562.0,-28.0,7.018
-508.0,-17.0,7.019
-438.0,-12.0,7.02
-407.0,-15.0,7.021
-372.0,-13.0,7.022
-291.0,-7.0,7.023
-218.0,-9.0,7.024
-200.0,-17.0,7.025
-180.0,-21.0,7.026
-91.0,-13.0,7.027
30.0,0.0,7.028
111.0,7.0,7.029
160.0,3.0,7.03
218.0,-8.0,7.031
273.0,-19.0,7.032
293.0,-19.0,7.033
300.0,-7.0,7.034
332.0,20.0,7.035
375.0,51.0,7.036
395.0,71.0,7.037
57.0,63.0,7.038
39.0,20.0,7.039
19.0,-45.0,7.04
-9.0,-116.0,7.041
-32.0,-171.0,7.042
-41.0,-203.0,7.043
-53.0,-201.0,7.044
-65.0,-161.0,7.045
-74.0,-93.0,7.046
-71.0,-29.0,7.047
-69.0,17.0,7.048
-75.0,48.0,7.049
-80.0,67.0,7.05
-82.0,72.0,7.051
-84.0,68.0,7.052
-84.0,64.0,7.053
-84.0,60.0,7.054
-85.0,52.0,7.055
-88.0,42.0,7.056
-98.0,36.0,7.057
322.0,30.0,7.058
260.0,21.0,7.059
191.0,14.0,7.06
99.0,12.0,7.061
21.0,14.0,7.062
-12.0,26.0,7.063
-50.0,36.0,7.064
-95.0,41.0,7.065
-127.0,41.0,7.066
-115.0,27.0,7.067
-110.0,19.0,7.068
-128.0,27.0,7.069
-145.0,26.0,7.07
-153.0,-6.0,7.071
-160.0,-43.0,7.072
-160.0,-91.0,7.073
-161.0,-117.0,7.074
-163.0,-74.0,7.075
