Deltoid,Bicep,Time
-43.0,-9.0,0.0
-46.0,-17.0,0.001
-45.0,-18.0,0.002
-35.0,-12.0,0.003
-13.0,-7.0,0.004
8.0,-3.0,0.005
15.0,1.0,0.006
15.0,4.0,0.007
24.0,4.0,0.008
38.0,4.0,0.009
47.0,8.0,0.01
46.0,11.0,0.011
43.0,8.0,0.012
40.0,4.0,0.013
29.0,4.0,0.014
11.0,4.0,0.015
-5.0,0.0,0.016
-12.0,-3.0,0.017
-21.0,-4.0,0.018
-29.0,-3.0,0.019
-37.0,-5.0,0.02
-43.0,-13.0,0.021
-46.0,-16.0,0.022
-37.0,-13.0,0.023
-15.0,-7.0,0.024
7.0,-3.0,0.025
16.0,0.0,0.026
20.0,3.0,0.027
29.0,4.0,0.028
39.0,3.0,0.029
43.0,4.0,0.03
44.0,6.0,0.031
45.0,8.0,0.032
41.0,8.0,0.033
27.0,8.0,0.034
10.0,8.0,0.035
-1.0,5.0,0.036
-9.0,2.0,0.037
-21.0,-2.0,0.038
-32.0,-5.0,0.039
-40.0,-8.0,0.04
-45.0,-12.0,0.041
-46.0,-12.0,0.042
-36.0,-9.0,0.043
-18.0,-4.0,0.044
0.0,1.0,0.045
12.0,6.0,0.046
21.0,6.0,0.047
32.0,4.0,0.048
37.0,5.0,0.049
38.0,8.0,0.05
40.0,10.0,0.051
42.0,6.0,0.052
37.0,1.0,0.053
23.0,0.0,0.054
7.0,1.0,0.055
-6.0,3.0,0.056
-17.0,1.0,0.057
-27.0,-2.0,0.058
-35.0,-4.0,0.059
-41.0,-8.0,0.06
-46.0,-12.0,0.061
-46.0,-14.0,0.062
-36.0,-12.0,0.063
-16.0,-9.0,0.064
1.0,-4.0,0.065
10.0,0.0,0.066
16.0,2.0,0.067
25.0,5.0,0.068
34.0,6.0,0.069
42.0,7.0,0.07
49.0,10.0,0.071
52.0,12.0,0.072
45.0,10.0,0.073
28.0,8.0,0.074
10.0,6.0,0.075
-3.0,3.0,0.076
-10.0,-2.0,0.077
-20.0,-8.0,0.078
-28.0,-7.0,0.079
-38.0,-6.0,0.08
-47.0,-11.0,0.081
-48.0,-13.0,0.082
-35.0,-12.0,0.083
-15.0,-9.0,0.084
0.0,-6.0,0.085
10.0,-1.0,0.086
18.0,2.0,0.087
28.0,3.0,0.088
37.0,3.0,0.089
40.0,4.0,0.09
43.0,6.0,0.091
46.0,8.0,0.092
43.0,6.0,0.093
32.0,7.0,0.094
18.0,7.0,0.095
4.0,4.0,0.096
-5.0,1.0,0.097
-18.0,-2.0,0.098
-31.0,-4.0,0.099
-43.0,-6.0,0.1
-46.0,-9.0,0.101
-44.0,-8.0,0.102
-31.0,-5.0,0.103
-16.0,-4.0,0.104
-1.0,-2.0,0.105
8.0,2.0,0.106
16.0,5.0,0.107
28.0,6.0,0.108
38.0,7.0,0.109
41.0,8.0,0.11
40.0,6.0,0.111
39.0,3.0,0.112
38.0,3.0,0.113
28.0,6.0,0.114
10.0,5.0,0.115
-7.0,0.0,0.116
-17.0,-1.0,0.117
-25.0,0.0,0.118
-36.0,-3.0,0.119
-46.0,-11.0,0.12
-50.0,-19.0,0.121
-45.0,-17.0,0.122
-33.0,-10.0,0.123
-15.0,-7.0,0.124
0.0,-5.0,0.125
9.0,-1.0,0.126
15.0,3.0,0.127
24.0,5.0,0.128
36.0,4.0,0.129
43.0,3.0,0.13
43.0,4.0,0.131
42.0,6.0,0.132
40.0,7.0,0.133
31.0,6.0,0.134
16.0,2.0,0.135
1.0,0.0,0.136
-7.0,1.0,0.137
-18.0,1.0,0.138
-33.0,-1.0,0.139
-46.0,-5.0,0.14
-47.0,-10.0,0.141
-38.0,-12.0,0.142
-27.0,-14.0,0.143
-17.0,-13.0,0.144
-4.0,-6.0,0.145
8.0,1.0,0.146
20.0,2.0,0.147
31.0,1.0,0.148
40.0,3.0,0.149
44.0,9.0,0.15
42.0,11.0,0.151
41.0,8.0,0.152
40.0,7.0,0.153
32.0,9.0,0.154
15.0,8.0,0.155
-4.0,5.0,0.156
-12.0,2.0,0.157
-18.0,-2.0,0.158
-30.0,-6.0,0.159
-48.0,-10.0,0.16
-56.0,-14.0,0.161
-50.0,-12.0,0.162
-36.0,-11.0,0.163
-19.0,-7.0,0.164
-6.0,-1.0,0.165
4.0,3.0,0.166
13.0,6.0,0.167
23.0,5.0,0.168
35.0,5.0,0.169
44.0,6.0,0.17
45.0,6.0,0.171
42.0,5.0,0.172
37.0,7.0,0.173
25.0,9.0,0.174
9.0,6.0,0.175
-7.0,0.0,0.176
-12.0,-1.0,0.177
-17.0,-3.0,0.178
-25.0,-4.0,0.179
-39.0,-6.0,0.18
-49.0,-10.0,0.181
-49.0,-10.0,0.182
-36.0,-10.0,0.183
-16.0,-11.0,0.184
1.0,-8.0,0.185
9.0,-1.0,0.186
12.0,2.0,0.187
23.0,1.0,0.188
35.0,1.0,0.189
41.0,6.0,0.19
39.0,10.0,0.191
41.0,11.0,0.192
41.0,10.0,0.193
33.0,7.0,0.194
16.0,1.0,0.195
0.0,-2.0,0.196
-9.0,-4.0,0.197
-19.0,-5.0,0.198
-30.0,-5.0,0.199
-40.0,-7.0,0.2
-45.0,-12.0,0.201
-45.0,-11.0,0.202
-36.0,-8.0,0.203
-17.0,-5.0,0.204
0.0,-2.0,0.205
10.0,1.0,0.206
16.0,2.0,0.207
28.0,2.0,0.208
38.0,4.0,0.209
45.0,6.0,0.21
47.0,6.0,0.211
51.0,6.0,0.212
48.0,8.0,0.213
33.0,10.0,0.214
13.0,8.0,0.215
0.0,4.0,0.216
-9.0,1.0,0.217
-19.0,-2.0,0.218
-30.0,-4.0,0.219
-38.0,-7.0,0.22
-44.0,-11.0,0.221
-44.0,-14.0,0.222
-35.0,-13.0,0.223
-17.0,-8.0,0.224
-1.0,-2.0,0.225
7.0,2.0,0.226
17.0,2.0,0.227
28.0,0.0,0.228
37.0,1.0,0.229
42.0,3.0,0.23
47.0,3.0,0.231
50.0,3.0,0.232
45.0,5.0,0.233
30.0,7.0,0.234
14.0,7.0,0.235
0.0,5.0,0.236
-12.0,5.0,0.237
-25.0,1.0,0.238
-36.0,-2.0,0.239
-42.0,-6.0,0.24
-43.0,-11.0,0.241
-44.0,-10.0,0.242
-37.0,-9.0,0.243
-22.0,-6.0,0.244
-7.0,-2.0,0.245
4.0,0.0,0.246
13.0,0.0,0.247
23.0,-1.0,0.248
31.0,0.0,0.249
36.0,4.0,0.25
40.0,7.0,0.251
43.0,8.0,0.252
41.0,9.0,0.253
27.0,10.0,0.254
7.0,8.0,0.255
-6.0,2.0,0.256
-13.0,-3.0,0.257
-21.0,-6.0,0.258
-28.0,-7.0,0.259
-37.0,-6.0,0.26
-42.0,-11.0,0.261
-43.0,-14.0,0.262
-34.0,-12.0,0.263
-18.0,-7.0,0.264
-4.0,-3.0,0.265
4.0,0.0,0.266
13.0,1.0,0.267
25.0,4.0,0.268
35.0,6.0,0.269
39.0,7.0,0.27
40.0,7.0,0.271
46.0,8.0,0.272
47.0,7.0,0.273
36.0,5.0,0.274
17.0,2.0,0.275
-1.0,2.0,0.276
-11.0,3.0,0.277
-20.0,-1.0,0.278
-28.0,-7.0,0.279
-36.0,-11.0,0.28
-42.0,-14.0,0.281
-45.0,-13.0,0.282
-37.0,-12.0,0.283
-18.0,-9.0,0.284
-2.0,-8.0,0.285
8.0,-3.0,0.286
16.0,0.0,0.287
27.0,0.0,0.288
38.0,1.0,0.289
41.0,5.0,0.29
45.0,8.0,0.291
49.0,8.0,0.292
48.0,8.0,0.293
36.0,8.0,0.294
19.0,7.0,0.295
3.0,4.0,0.296
-7.0,1.0,0.297
-18.0,-2.0,0.298
-27.0,-5.0,0.299
-38.0,-7.0,0.3
-46.0,-11.0,0.301
-50.0,-12.0,0.302
-39.0,-10.0,0.303
-19.0,-6.0,0.304
-2.0,-2.0,0.305
5.0,1.0,0.306
12.0,2.0,0.307
24.0,0.0,0.308
37.0,0.0,0.309
43.0,4.0,0.31
46.0,9.0,0.311
48.0,9.0,0.312
45.0,7.0,0.313
30.0,6.0,0.314
12.0,7.0,0.315
-2.0,4.0,0.316
-11.0,0.0,0.317
-22.0,-4.0,0.318
-31.0,-5.0,0.319
-38.0,-5.0,0.32
-43.0,-11.0,0.321
-44.0,-15.0,0.322
-38.0,-13.0,0.323
-21.0,-8.0,0.324
-4.0,-3.0,0.325
6.0,0.0,0.326
14.0,2.0,0.327
28.0,4.0,0.328
41.0,4.0,0.329
46.0,5.0,0.33
45.0,9.0,0.331
44.0,11.0,0.332
41.0,10.0,0.333
31.0,6.0,0.334
14.0,6.0,0.335
-2.0,2.0,0.336
-14.0,-3.0,0.337
-24.0,-9.0,0.338
-34.0,-13.0,0.339
-44.0,-12.0,0.34
-49.0,-12.0,0.341
-48.0,-14.0,0.342
-38.0,-14.0,0.343
-21.0,-13.0,0.344
-4.0,-8.0,0.345
7.0,-2.0,0.346
15.0,1.0,0.347
27.0,2.0,0.348
38.0,4.0,0.349
43.0,6.0,0.35
43.0,8.0,0.351
41.0,8.0,0.352
37.0,8.0,0.353
26.0,7.0,0.354
10.0,6.0,0.355
-6.0,2.0,0.356
-18.0,0.0,0.357
-26.0,-3.0,0.358
-35.0,-3.0,0.359
-42.0,-6.0,0.36
-45.0,-11.0,0.361
-43.0,-12.0,0.362
-32.0,-11.0,0.363
-17.0,-9.0,0.364
-4.0,-4.0,0.365
5.0,2.0,0.366
15.0,7.0,0.367
29.0,9.0,0.368
41.0,10.0,0.369
46.0,8.0,0.37
48.0,8.0,0.371
49.0,10.0,0.372
45.0,12.0,0.373
33.0,11.0,0.374
18.0,3.0,0.375
4.0,-5.0,0.376
-6.0,-4.0,0.377
-18.0,-4.0,0.378
-27.0,-6.0,0.379
-37.0,-9.0,0.38
-45.0,-13.0,0.381
-46.0,-15.0,0.382
-37.0,-13.0,0.383
-20.0,-10.0,0.384
-4.0,-8.0,0.385
4.0,-6.0,0.386
15.0,-3.0,0.387
28.0,0.0,0.388
36.0,1.0,0.389
39.0,4.0,0.39
40.0,5.0,0.391
45.0,7.0,0.392
43.0,8.0,0.393
32.0,8.0,0.394
18.0,5.0,0.395
6.0,1.0,0.396
-4.0,0.0,0.397
-19.0,-2.0,0.398
-30.0,-3.0,0.399
-41.0,-4.0,0.4
-48.0,-9.0,0.401
-49.0,-10.0,0.402
-39.0,-9.0,0.403
-22.0,-6.0,0.404
-8.0,0.0,0.405
1.0,7.0,0.406
11.0,10.0,0.407
22.0,10.0,0.408
31.0,9.0,0.409
37.0,11.0,0.41
42.0,15.0,0.411
47.0,16.0,0.412
43.0,13.0,0.413
31.0,9.0,0.414
15.0,6.0,0.415
0.0,5.0,0.416
-10.0,3.0,0.417
-21.0,-4.0,0.418
-29.0,-11.0,0.419
-38.0,-14.0,0.42
-45.0,-15.0,0.421
-45.0,-13.0,0.422
-33.0,-8.0,0.423
-15.0,-4.0,0.424
0.0,-1.0,0.425
11.0,-2.0,0.426
23.0,-5.0,0.427
35.0,-5.0,0.428
41.0,0.0,0.429
43.0,6.0,0.43
47.0,6.0,0.431
52.0,2.0,0.432
50.0,3.0,0.433
38.0,4.0,0.434
21.0,3.0,0.435
6.0,-2.0,0.436
-5.0,-5.0,0.437
-19.0,-6.0,0.438
-33.0,-5.0,0.439
-44.0,-8.0,0.44
-48.0,-15.0,0.441
-49.0,-19.0,0.442
-41.0,-16.0,0.443
-24.0,-8.0,0.444
-6.0,-1.0,0.445
5.0,4.0,0.446
13.0,4.0,0.447
19.0,3.0,0.448
30.0,2.0,0.449
37.0,5.0,0.45
41.0,8.0,0.451
43.0,9.0,0.452
39.0,9.0,0.453
28.0,9.0,0.454
11.0,6.0,0.455
-4.0,2.0,0.456
-15.0,1.0,0.457
-22.0,-2.0,0.458
-26.0,-6.0,0.459
-36.0,-11.0,0.46
-48.0,-15.0,0.461
-50.0,-15.0,0.462
-37.0,-12.0,0.463
-16.0,-10.0,0.464
-4.0,-4.0,0.465
0.0,2.0,0.466
10.0,4.0,0.467
25.0,3.0,0.468
37.0,2.0,0.469
42.0,4.0,0.47
42.0,6.0,0.471
45.0,7.0,0.472
44.0,8.0,0.473
37.0,7.0,0.474
21.0,6.0,0.475
4.0,2.0,0.476
-10.0,0.0,0.477
-22.0,-6.0,0.478
-31.0,-12.0,0.479
-38.0,-16.0,0.48
-45.0,-18.0,0.481
-48.0,-15.0,0.482
-40.0,-13.0,0.483
-22.0,-10.0,0.484
-6.0,-4.0,0.485
3.0,2.0,0.486
16.0,3.0,0.487
30.0,2.0,0.488
39.0,2.0,0.489
41.0,7.0,0.49
41.0,12.0,0.491
44.0,12.0,0.492
45.0,11.0,0.493
33.0,9.0,0.494
16.0,8.0,0.495
0.0,5.0,0.496
-8.0,3.0,0.497
-18.0,0.0,0.498
-27.0,-4.0,0.499
-37.0,-7.0,0.5
-43.0,-10.0,0.501
-43.0,-12.0,0.502
-33.0,-11.0,0.503
-17.0,-9.0,0.504
-2.0,-4.0,0.505
5.0,1.0,0.506
13.0,4.0,0.507
25.0,5.0,0.508
37.0,5.0,0.509
44.0,5.0,0.51
45.0,2.0,0.511
47.0,1.0,0.512
47.0,3.0,0.513
38.0,6.0,0.514
20.0,5.0,0.515
2.0,0.0,0.516
-9.0,-4.0,0.517
-21.0,-6.0,0.518
-30.0,-5.0,0.519
-41.0,-4.0,0.52
-47.0,-6.0,0.521
-46.0,-10.0,0.522
-37.0,-11.0,0.523
-22.0,-7.0,0.524
-10.0,0.0,0.525
1.0,5.0,0.526
14.0,5.0,0.527
24.0,2.0,0.528
32.0,2.0,0.529
36.0,5.0,0.53
42.0,6.0,0.531
47.0,5.0,0.532
44.0,5.0,0.533
31.0,7.0,0.534
17.0,5.0,0.535
5.0,0.0,0.536
-6.0,-4.0,0.537
-20.0,-7.0,0.538
-32.0,-7.0,0.539
-41.0,-10.0,0.54
-44.0,-15.0,0.541
-44.0,-14.0,0.542
-38.0,-11.0,0.543
-23.0,-7.0,0.544
-8.0,-4.0,0.545
4.0,-1.0,0.546
16.0,1.0,0.547
25.0,0.0,0.548
32.0,1.0,0.549
36.0,5.0,0.55
40.0,7.0,0.551
46.0,6.0,0.552
46.0,6.0,0.553
36.0,9.0,0.554
20.0,7.0,0.555
5.0,0.0,0.556
-8.0,-4.0,0.557
-20.0,-4.0,0.558
-28.0,-2.0,0.559
-35.0,-3.0,0.56
-43.0,-9.0,0.561
-48.0,-9.0,0.562
-40.0,-5.0,0.563
-24.0,-5.0,0.564
-10.0,-4.0,0.565
-1.0,0.0,0.566
8.0,4.0,0.567
22.0,4.0,0.568
33.0,3.0,0.569
40.0,6.0,0.57
47.0,10.0,0.571
52.0,9.0,0.572
50.0,6.0,0.573
36.0,7.0,0.574
20.0,7.0,0.575
7.0,4.0,0.576
-4.0,1.0,0.577
-19.0,-1.0,0.578
-32.0,-3.0,0.579
-44.0,-7.0,0.58
-51.0,-13.0,0.581
-53.0,-18.0,0.582
-44.0,-14.0,0.583
-26.0,-9.0,0.584
-9.0,-5.0,0.585
1.0,-2.0,0.586
11.0,-1.0,0.587
21.0,0.0,0.588
31.0,1.0,0.589
40.0,4.0,0.59
47.0,8.0,0.591
49.0,12.0,0.592
42.0,12.0,0.593
32.0,11.0,0.594
21.0,9.0,0.595
8.0,6.0,0.596
-4.0,1.0,0.597
-18.0,-3.0,0.598
-29.0,-2.0,0.599
-39.0,-6.0,0.6
-48.0,-13.0,0.601
-50.0,-14.0,0.602
-39.0,-12.0,0.603
-22.0,-9.0,0.604
-9.0,-4.0,0.605
0.0,0.0,0.606
12.0,2.0,0.607
24.0,0.0,0.608
34.0,0.0,0.609
38.0,4.0,0.61
45.0,8.0,0.611
51.0,9.0,0.612
50.0,10.0,0.613
38.0,13.0,0.614
20.0,13.0,0.615
6.0,7.0,0.616
-4.0,2.0,0.617
-13.0,-3.0,0.618
-24.0,-8.0,0.619
-36.0,-9.0,0.62
-42.0,-11.0,0.621
-42.0,-10.0,0.622
-36.0,-10.0,0.623
-22.0,-11.0,0.624
-7.0,-5.0,0.625
2.0,1.0,0.626
10.0,2.0,0.627
23.0,0.0,0.628
38.0,0.0,0.629
44.0,5.0,0.63
44.0,9.0,0.631
43.0,10.0,0.632
42.0,8.0,0.633
32.0,6.0,0.634
14.0,2.0,0.635
-1.0,-1.0,0.636
-8.0,0.0,0.637
-17.0,0.0,0.638
-27.0,-3.0,0.639
-41.0,-9.0,0.64
-51.0,-13.0,0.641
-50.0,-11.0,0.642
-40.0,-9.0,0.643
-25.0,-8.0,0.644
-12.0,-4.0,0.645
0.0,0.0,0.646
13.0,3.0,0.647
24.0,0.0,0.648
32.0,-1.0,0.649
36.0,3.0,0.65
41.0,8.0,0.651
47.0,9.0,0.652
47.0,7.0,0.653
37.0,4.0,0.654
22.0,1.0,0.655
7.0,-1.0,0.656
-5.0,-3.0,0.657
-20.0,-5.0,0.658
-31.0,-6.0,0.659
-38.0,-5.0,0.66
-42.0,-5.0,0.661
-45.0,-8.0,0.662
-37.0,-12.0,0.663
-22.0,-13.0,0.664
-8.0,-8.0,0.665
-1.0,-1.0,0.666
8.0,0.0,0.667
23.0,-2.0,0.668
35.0,0.0,0.669
39.0,8.0,0.67
41.0,11.0,0.671
45.0,9.0,0.672
46.0,7.0,0.673
37.0,9.0,0.674
21.0,10.0,0.675
8.0,6.0,0.676
-2.0,2.0,0.677
-17.0,-3.0,0.678
-32.0,-4.0,0.679
-42.0,-8.0,0.68
-45.0,-10.0,0.681
-44.0,-9.0,0.682
-39.0,-9.0,0.683
-25.0,-8.0,0.684
-8.0,-2.0,0.685
3.0,7.0,0.686
13.0,8.0,0.687
23.0,1.0,0.688
34.0,0.0,0.689
43.0,7.0,0.69
48.0,14.0,0.691
49.0,12.0,0.692
49.0,8.0,0.693
39.0,7.0,0.694
21.0,7.0,0.695
3.0,0.0,0.696
-5.0,-5.0,0.697
-13.0,-10.0,0.698
-23.0,-11.0,0.699
-39.0,-14.0,0.7
-51.0,-18.0,0.701
-51.0,-15.0,0.702
-38.0,-10.0,0.703
-19.0,-7.0,0.704
-5.0,-6.0,0.705
4.0,-1.0,0.706
13.0,2.0,0.707
23.0,1.0,0.708
32.0,2.0,0.709
35.0,7.0,0.71
39.0,10.0,0.711
45.0,9.0,0.712
45.0,7.0,0.713
36.0,8.0,0.714
21.0,10.0,0.715
6.0,8.0,0.716
-8.0,4.0,0.717
-22.0,0.0,0.718
-32.0,-3.0,0.719
-39.0,-6.0,0.72
-44.0,-10.0,0.721
-47.0,-8.0,0.722
-39.0,-7.0,0.723
-22.0,-7.0,0.724
-6.0,-6.0,0.725
2.0,-3.0,0.726
8.0,0.0,0.727
17.0,2.0,0.728
32.0,5.0,0.729
43.0,8.0,0.73
47.0,10.0,0.731
49.0,10.0,0.732
45.0,11.0,0.733
34.0,10.0,0.734
14.0,8.0,0.735
-4.0,4.0,0.736
-14.0,0.0,0.737
-20.0,-5.0,0.738
-28.0,-10.0,0.739
-41.0,-12.0,0.74
-49.0,-13.0,0.741
-48.0,-12.0,0.742
-40.0,-13.0,0.743
-25.0,-12.0,0.744
-12.0,-5.0,0.745
0.0,3.0,0.746
11.0,4.0,0.747
22.0,1.0,0.748
33.0,3.0,0.749
42.0,7.0,0.75
46.0,9.0,0.751
46.0,6.0,0.752
43.0,5.0,0.753
34.0,6.0,0.754
22.0,5.0,0.755
10.0,2.0,0.756
-2.0,2.0,0.757
-16.0,0.0,0.758
-30.0,-5.0,0.759
-40.0,-9.0,0.76
-43.0,-12.0,0.761
-44.0,-12.0,0.762
-43.0,-13.0,0.763
-30.0,-11.0,0.764
-14.0,-5.0,0.765
0.0,0.0,0.766
11.0,0.0,0.767
23.0,-2.0,0.768
36.0,0.0,0.769
45.0,4.0,0.77
48.0,6.0,0.771
51.0,5.0,0.772
48.0,6.0,0.773
40.0,6.0,0.774
27.0,4.0,0.775
11.0,2.0,0.776
-1.0,5.0,0.777
-15.0,4.0,0.778
-24.0,-4.0,0.779
-34.0,-13.0,0.78
-43.0,-17.0,0.781
-48.0,-11.0,0.782
-39.0,-6.0,0.783
-22.0,-5.0,0.784
-7.0,-3.0,0.785
1.0,0.0,0.786
10.0,4.0,0.787
23.0,2.0,0.788
35.0,3.0,0.789
40.0,7.0,0.79
42.0,9.0,0.791
45.0,8.0,0.792
48.0,8.0,0.793
40.0,10.0,0.794
23.0,8.0,0.795
3.0,1.0,0.796
-11.0,-1.0,0.797
-20.0,-1.0,0.798
-28.0,-2.0,0.799
-40.0,-6.0,0.8
-50.0,-12.0,0.801
-53.0,-10.0,0.802
-42.0,-6.0,0.803
-28.0,-8.0,0.804
-16.0,-8.0,0.805
-5.0,-3.0,0.806
8.0,1.0,0.807
21.0,2.0,0.808
32.0,3.0,0.809
40.0,7.0,0.81
48.0,9.0,0.811
52.0,6.0,0.812
50.0,3.0,0.813
39.0,4.0,0.814
23.0,5.0,0.815
7.0,3.0,0.816
-5.0,1.0,0.817
-13.0,0.0,0.818
-22.0,-3.0,0.819
-36.0,-11.0,0.82
-49.0,-17.0,0.821
-52.0,-18.0,0.822
-42.0,-14.0,0.823
-26.0,-9.0,0.824
-13.0,-4.0,0.825
-2.0,-1.0,0.826
11.0,-2.0,0.827
23.0,-2.0,0.828
34.0,2.0,0.829
42.0,10.0,0.83
47.0,12.0,0.831
51.0,9.0,0.832
49.0,9.0,0.833
40.0,13.0,0.834
22.0,11.0,0.835
5.0,3.0,0.836
-5.0,-1.0,0.837
-15.0,-3.0,0.838
-27.0,-4.0,0.839
-41.0,-8.0,0.84
-51.0,-13.0,0.841
-51.0,-12.0,0.842
-45.0,-11.0,0.843
-31.0,-10.0,0.844
-15.0,-7.0,0.845
1.0,0.0,0.846
12.0,4.0,0.847
19.0,5.0,0.848
29.0,4.0,0.849
38.0,6.0,0.85
44.0,8.0,0.851
46.0,7.0,0.852
46.0,7.0,0.853
40.0,10.0,0.854
27.0,11.0,0.855
9.0,6.0,0.856
-4.0,1.0,0.857
-16.0,-5.0,0.858
-25.0,-6.0,0.859
-36.0,-6.0,0.86
-46.0,-9.0,0.861
-49.0,-12.0,0.862
-43.0,-13.0,0.863
-29.0,-11.0,0.864
-12.0,-5.0,0.865
0.0,-1.0,0.866
12.0,-1.0,0.867
24.0,0.0,0.868
34.0,4.0,0.869
40.0,9.0,0.87
45.0,8.0,0.871
47.0,7.0,0.872
47.0,8.0,0.873
37.0,8.0,0.874
21.0,5.0,0.875
8.0,1.0,0.876
0.0,1.0,0.877
-11.0,0.0,0.878
-24.0,-5.0,0.879
-38.0,-7.0,0.88
-46.0,-10.0,0.881
-46.0,-13.0,0.882
-39.0,-17.0,0.883
-28.0,-15.0,0.884
-17.0,-8.0,0.885
-5.0,-3.0,0.886
8.0,-4.0,0.887
21.0,-3.0,0.888
33.0,2.0,0.889
42.0,9.0,0.89
47.0,12.0,0.891
49.0,12.0,0.892
46.0,12.0,0.893
39.0,9.0,0.894
26.0,7.0,0.895
9.0,6.0,0.896
-4.0,6.0,0.897
-18.0,1.0,0.898
-28.0,-3.0,0.899
-39.0,-7.0,0.9
-46.0,-9.0,0.901
-47.0,-10.0,0.902
-43.0,-9.0,0.903
-33.0,-5.0,0.904
-21.0,2.0,0.905
-7.0,3.0,0.906
8.0,0.0,0.907
20.0,-3.0,0.908
28.0,3.0,0.909
34.0,9.0,0.91
41.0,10.0,0.911
46.0,8.0,0.912
47.0,8.0,0.913
37.0,9.0,0.914
22.0,8.0,0.915
6.0,3.0,0.916
-3.0,3.0,0.917
-15.0,0.0,0.918
-27.0,-5.0,0.919
-40.0,-12.0,0.92
-47.0,-17.0,0.921
-49.0,-17.0,0.922
-43.0,-14.0,0.923
-29.0,-10.0,0.924
-10.0,-5.0,0.925
6.0,1.0,0.926
16.0,2.0,0.927
24.0,0.0,0.928
34.0,2.0,0.929
45.0,6.0,0.93
53.0,6.0,0.931
56.0,3.0,0.932
52.0,3.0,0.933
43.0,7.0,0.934
30.0,8.0,0.935
14.0,5.0,0.936
2.0,1.0,0.937
-11.0,-4.0,0.938
-24.0,-9.0,0.939
-38.0,-11.0,0.94
-45.0,-13.0,0.941
-46.0,-13.0,0.942
-41.0,-15.0,0.943
-32.0,-13.0,0.944
-20.0,-7.0,0.945
-3.0,1.0,0.946
13.0,3.0,0.947
24.0,3.0,0.948
28.0,5.0,0.949
32.0,11.0,0.95
40.0,15.0,0.951
48.0,13.0,0.952
47.0,10.0,0.953
38.0,10.0,0.954
23.0,10.0,0.955
5.0,8.0,0.956
-9.0,5.0,0.957
-22.0,4.0,0.958
-31.0,0.0,0.959
-41.0,-3.0,0.96
-49.0,-11.0,0.961
-53.0,-16.0,0.962
-47.0,-13.0,0.963
-34.0,-9.0,0.964
-18.0,-5.0,0.965
-3.0,-2.0,0.966
12.0,0.0,0.967
26.0,2.0,0.968
37.0,1.0,0.969
45.0,1.0,0.97
53.0,5.0,0.971
59.0,9.0,0.972
59.0,8.0,0.973
47.0,8.0,0.974
30.0,8.0,0.975
15.0,7.0,0.976
5.0,3.0,0.977
-5.0,-3.0,0.978
-19.0,-7.0,0.979
-36.0,-10.0,0.98
-49.0,-15.0,0.981
-52.0,-19.0,0.982
-45.0,-16.0,0.983
-32.0,-10.0,0.984
-21.0,-4.0,0.985
-11.0,1.0,0.986
3.0,0.0,0.987
21.0,-3.0,0.988
35.0,-1.0,0.989
43.0,4.0,0.99
47.0,9.0,0.991
50.0,9.0,0.992
53.0,9.0,0.993
46.0,11.0,0.994
27.0,12.0,0.995
5.0,9.0,0.996
-8.0,4.0,0.997
-19.0,-1.0,0.998
-27.0,-4.0,0.999
-38.0,-7.0,1.0
-49.0,-11.0,1.001
-55.0,-11.0,1.002
-52.0,-11.0,1.003
-39.0,-11.0,1.004
-23.0,-8.0,1.005
-6.0,-6.0,1.006
9.0,-2.0,1.007
24.0,1.0,1.008
35.0,5.0,1.009
41.0,10.0,1.01
45.0,8.0,1.011
51.0,5.0,1.012
55.0,4.0,1.013
48.0,7.0,1.014
33.0,5.0,1.015
15.0,1.0,1.016
-1.0,0.0,1.017
-18.0,-5.0,1.018
-30.0,-8.0,1.019
-40.0,-12.0,1.02
-50.0,-13.0,1.021
-54.0,-10.0,1.022
-47.0,-8.0,1.023
-30.0,-6.0,1.024
-15.0,-2.0,1.025
-5.0,-1.0,1.026
4.0,-2.0,1.027
18.0,-2.0,1.028
33.0,0.0,1.029
40.0,5.0,1.03
43.0,6.0,1.031
48.0,6.0,1.032
49.0,7.0,1.033
43.0,8.0,1.034
28.0,7.0,1.035
10.0,6.0,1.036
-4.0,6.0,1.037
-17.0,3.0,1.038
-27.0,-2.0,1.039
-37.0,-6.0,1.04
-46.0,-11.0,1.041
-51.0,-11.0,1.042
-46.0,-11.0,1.043
-33.0,-7.0,1.044
-20.0,0.0,1.045
-9.0,2.0,1.046
4.0,-1.0,1.047
22.0,-2.0,1.048
37.0,1.0,1.049
45.0,6.0,1.05
49.0,9.0,1.051
52.0,8.0,1.052
54.0,9.0,1.053
47.0,8.0,1.054
31.0,8.0,1.055
11.0,8.0,1.056
-5.0,7.0,1.057
-18.0,1.0,1.058
-30.0,-4.0,1.059
-42.0,-8.0,1.06
-51.0,-11.0,1.061
-54.0,-14.0,1.062
-47.0,-15.0,1.063
-33.0,-12.0,1.064
-19.0,-6.0,1.065
-5.0,-1.0,1.066
8.0,1.0,1.067
21.0,0.0,1.068
33.0,1.0,1.069
43.0,5.0,1.07
51.0,9.0,1.071
54.0,12.0,1.072
54.0,11.0,1.073
48.0,7.0,1.074
32.0,3.0,1.075
13.0,3.0,1.076
-2.0,5.0,1.077
-13.0,3.0,1.078
-24.0,-1.0,1.079
-39.0,-7.0,1.08
-51.0,-13.0,1.081
-53.0,-13.0,1.082
-46.0,-13.0,1.083
-34.0,-10.0,1.084
-21.0,-6.0,1.085
-3.0,-1.0,1.086
15.0,1.0,1.087
27.0,-1.0,1.088
35.0,2.0,1.089
42.0,6.0,1.09
48.0,8.0,1.091
53.0,5.0,1.092
53.0,3.0,1.093
46.0,7.0,1.094
34.0,11.0,1.095
19.0,7.0,1.096
4.0,1.0,1.097
-11.0,-3.0,1.098
-26.0,-4.0,1.099
-41.0,-4.0,1.1
-53.0,-10.0,1.101
-55.0,-13.0,1.102
-48.0,-12.0,1.103
-34.0,-9.0,1.104
-20.0,-8.0,1.105
-6.0,-5.0,1.106
8.0,0.0,1.107
22.0,2.0,1.108
34.0,2.0,1.109
43.0,3.0,1.11
49.0,8.0,1.111
52.0,11.0,1.112
49.0,10.0,1.113
41.0,8.0,1.114
28.0,5.0,1.115
12.0,1.0,1.116
-4.0,-1.0,1.117
-20.0,-3.0,1.118
-30.0,-4.0,1.119
-39.0,-6.0,1.12
-46.0,-9.0,1.121
-51.0,-13.0,1.122
-46.0,-13.0,1.123
-33.0,-14.0,1.124
-18.0,-10.0,1.125
-6.0,-3.0,1.126
7.0,2.0,1.127
23.0,3.0,1.128
35.0,1.0,1.129
44.0,3.0,1.13
49.0,6.0,1.131
54.0,7.0,1.132
55.0,7.0,1.133
48.0,10.0,1.134
30.0,12.0,1.135
12.0,9.0,1.136
-2.0,5.0,1.137
-15.0,-1.0,1.138
-28.0,-5.0,1.139
-42.0,-8.0,1.14
-53.0,-12.0,1.141
-56.0,-10.0,1.142
-50.0,-9.0,1.143
-35.0,-9.0,1.144
-19.0,-7.0,1.145
-5.0,-2.0,1.146
11.0,1.0,1.147
26.0,0.0,1.148
37.0,0.0,1.149
45.0,6.0,1.15
49.0,11.0,1.151
55.0,11.0,1.152
58.0,6.0,1.153
50.0,3.0,1.154
32.0,6.0,1.155
13.0,9.0,1.156
1.0,7.0,1.157
-10.0,-2.0,1.158
-23.0,-8.0,1.159
-39.0,-8.0,1.16
-52.0,-12.0,1.161
-56.0,-14.0,1.162
-51.0,-15.0,1.163
-38.0,-11.0,1.164
-23.0,-5.0,1.165
-7.0,-1.0,1.166
9.0,1.0,1.167
24.0,4.0,1.168
32.0,6.0,1.169
36.0,4.0,1.17
43.0,3.0,1.171
50.0,6.0,1.172
53.0,9.0,1.173
44.0,10.0,1.174
28.0,9.0,1.175
10.0,7.0,1.176
-4.0,4.0,1.177
-18.0,-2.0,1.178
-31.0,-7.0,1.179
-43.0,-6.0,1.18
-52.0,-8.0,1.181
-57.0,-8.0,1.182
-49.0,-9.0,1.183
-38.0,-8.0,1.184
-24.0,-5.0,1.185
-9.0,-1.0,1.186
7.0,1.0,1.187
21.0,3.0,1.188
31.0,5.0,1.189
40.0,7.0,1.19
44.0,9.0,1.191
47.0,9.0,1.192
47.0,10.0,1.193
45.0,10.0,1.194
32.0,11.0,1.195
18.0,7.0,1.196
3.0,3.0,1.197
-11.0,-2.0,1.198
-24.0,-4.0,1.199
-37.0,-6.0,1.2
-46.0,-13.0,1.201
-47.0,-15.0,1.202
-41.0,-9.0,1.203
-30.0,-5.0,1.204
-17.0,-3.0,1.205
-5.0,-1.0,1.206
8.0,0.0,1.207
23.0,-1.0,1.208
36.0,-4.0,1.209
43.0,-2.0,1.21
47.0,4.0,1.211
52.0,7.0,1.212
54.0,4.0,1.213
49.0,2.0,1.214
34.0,4.0,1.215
15.0,7.0,1.216
-1.0,4.0,1.217
-15.0,-5.0,1.218
-27.0,-7.0,1.219
-41.0,-7.0,1.22
-53.0,-8.0,1.221
-57.0,-9.0,1.222
-51.0,-11.0,1.223
-35.0,-9.0,1.224
-17.0,-7.0,1.225
-3.0,-5.0,1.226
7.0,-1.0,1.227
18.0,3.0,1.228
29.0,5.0,1.229
38.0,2.0,1.23
45.0,0.0,1.231
50.0,2.0,1.232
51.0,5.0,1.233
44.0,6.0,1.234
25.0,4.0,1.235
6.0,2.0,1.236
-8.0,4.0,1.237
-20.0,2.0,1.238
-31.0,-2.0,1.239
-43.0,-6.0,1.24
-52.0,-10.0,1.241
-55.0,-11.0,1.242
-48.0,-10.0,1.243
-35.0,-8.0,1.244
-21.0,-2.0,1.245
-9.0,2.0,1.246
6.0,4.0,1.247
22.0,3.0,1.248
37.0,5.0,1.249
45.0,8.0,1.25
47.0,10.0,1.251
51.0,10.0,1.252
56.0,10.0,1.253
51.0,9.0,1.254
38.0,8.0,1.255
21.0,4.0,1.256
7.0,1.0,1.257
-8.0,0.0,1.258
-25.0,-1.0,1.259
-41.0,-5.0,1.26
-51.0,-10.0,1.261
-57.0,-13.0,1.262
-49.0,-13.0,1.263
-39.0,-11.0,1.264
-23.0,-5.0,1.265
-7.0,0.0,1.266
9.0,2.0,1.267
23.0,2.0,1.268
33.0,3.0,1.269
43.0,8.0,1.27
48.0,12.0,1.271
52.0,12.0,1.272
52.0,12.0,1.273
49.0,14.0,1.274
31.0,14.0,1.275
14.0,8.0,1.276
-2.0,1.0,1.277
-18.0,-4.0,1.278
-31.0,-6.0,1.279
-45.0,-8.0,1.28
-55.0,-12.0,1.281
-58.0,-13.0,1.282
-52.0,-10.0,1.283
-40.0,-6.0,1.284
-24.0,-3.0,1.285
-6.0,0.0,1.286
14.0,2.0,1.287
29.0,0.0,1.288
39.0,0.0,1.289
43.0,3.0,1.29
48.0,9.0,1.291
54.0,9.0,1.292
55.0,6.0,1.293
52.0,4.0,1.294
41.0,4.0,1.295
21.0,3.0,1.296
0.0,2.0,1.297
-19.0,-4.0,1.298
-33.0,-8.0,1.299
-43.0,-10.0,1.3
-53.0,-16.0,1.301
-58.0,-17.0,1.302
-51.0,-16.0,1.303
-36.0,-11.0,1.304
-22.0,-6.0,1.305
-10.0,-2.0,1.306
3.0,-2.0,1.307
20.0,-2.0,1.308
33.0,3.0,1.309
41.0,10.0,1.31
46.0,12.0,1.311
51.0,10.0,1.312
57.0,11.0,1.313
51.0,13.0,1.314
35.0,11.0,1.315
13.0,3.0,1.316
-4.0,-2.0,1.317
-17.0,-6.0,1.318
-26.0,-5.0,1.319
-38.0,-6.0,1.32
-48.0,-11.0,1.321
-52.0,-13.0,1.322
-48.0,-11.0,1.323
-37.0,-10.0,1.324
-23.0,-7.0,1.325
-6.0,-2.0,1.326
11.0,1.0,1.327
23.0,1.0,1.328
31.0,0.0,1.329
40.0,2.0,1.33
49.0,4.0,1.331
58.0,6.0,1.332
60.0,7.0,1.333
52.0,8.0,1.334
34.0,7.0,1.335
14.0,4.0,1.336
0.0,1.0,1.337
-12.0,-4.0,1.338
-23.0,-8.0,1.339
-34.0,-11.0,1.34
-44.0,-15.0,1.341
-52.0,-11.0,1.342
-48.0,-7.0,1.343
-40.0,-7.0,1.344
-26.0,-6.0,1.345
-12.0,-1.0,1.346
4.0,1.0,1.347
19.0,1.0,1.348
31.0,0.0,1.349
41.0,2.0,1.35
48.0,9.0,1.351
54.0,12.0,1.352
54.0,12.0,1.353
50.0,10.0,1.354
34.0,7.0,1.355
18.0,3.0,1.356
2.0,2.0,1.357
-13.0,-1.0,1.358
-25.0,-4.0,1.359
-38.0,-8.0,1.36
-49.0,-12.0,1.361
-53.0,-12.0,1.362
-49.0,-11.0,1.363
-36.0,-10.0,1.364
-20.0,-7.0,1.365
-6.0,-2.0,1.366
8.0,0.0,1.367
21.0,2.0,1.368
35.0,4.0,1.369
46.0,7.0,1.37
52.0,9.0,1.371
55.0,9.0,1.372
56.0,9.0,1.373
48.0,9.0,1.374
29.0,9.0,1.375
7.0,7.0,1.376
-8.0,7.0,1.377
-20.0,4.0,1.378
-32.0,-1.0,1.379
-45.0,-8.0,1.38
-55.0,-13.0,1.381
-59.0,-15.0,1.382
-54.0,-15.0,1.383
-43.0,-13.0,1.384
-28.0,-10.0,1.385
-15.0,-6.0,1.386
-2.0,-2.0,1.387
16.0,-2.0,1.388
31.0,0.0,1.389
43.0,3.0,1.39
50.0,9.0,1.391
55.0,14.0,1.392
54.0,14.0,1.393
47.0,10.0,1.394
36.0,6.0,1.395
22.0,5.0,1.396
8.0,7.0,1.397
-10.0,2.0,1.398
-25.0,-3.0,1.399
-40.0,-7.0,1.4
-52.0,-10.0,1.401
-60.0,-12.0,1.402
-55.0,-15.0,1.403
-39.0,-16.0,1.404
-22.0,-10.0,1.405
-7.0,-2.0,1.406
9.0,3.0,1.407
24.0,5.0,1.408
34.0,4.0,1.409
39.0,3.0,1.41
47.0,6.0,1.411
57.0,8.0,1.412
59.0,11.0,1.413
49.0,11.0,1.414
34.0,9.0,1.415
18.0,6.0,1.416
3.0,3.0,1.417
-13.0,-2.0,1.418
-26.0,-5.0,1.419
-37.0,-4.0,1.42
-50.0,-6.0,1.421
-57.0,-9.0,1.422
-53.0,-11.0,1.423
-39.0,-8.0,1.424
-26.0,-2.0,1.425
-15.0,-1.0,1.426
0.0,-2.0,1.427
18.0,-3.0,1.428
31.0,2.0,1.429
40.0,9.0,1.43
50.0,11.0,1.431
59.0,8.0,1.432
59.0,6.0,1.433
49.0,6.0,1.434
34.0,6.0,1.435
18.0,5.0,1.436
5.0,3.0,1.437
-10.0,-2.0,1.438
-23.0,-6.0,1.439
-36.0,-10.0,1.44
-49.0,-11.0,1.441
-56.0,-11.0,1.442
-49.0,-10.0,1.443
-36.0,-11.0,1.444
-24.0,-8.0,1.445
-15.0,-3.0,1.446
0.0,0.0,1.447
19.0,-1.0,1.448
33.0,0.0,1.449
42.0,5.0,1.45
50.0,8.0,1.451
59.0,7.0,1.452
58.0,8.0,1.453
47.0,9.0,1.454
31.0,9.0,1.455
14.0,7.0,1.456
-3.0,3.0,1.457
-19.0,-2.0,1.458
-33.0,-5.0,1.459
-43.0,-7.0,1.46
-51.0,-12.0,1.461
-56.0,-14.0,1.462
-52.0,-15.0,1.463
-39.0,-11.0,1.464
-26.0,-8.0,1.465
-12.0,-8.0,1.466
3.0,-9.0,1.467
21.0,-9.0,1.468
34.0,-2.0,1.469
42.0,7.0,1.47
49.0,9.0,1.471
56.0,6.0,1.472
58.0,4.0,1.473
53.0,5.0,1.474
39.0,5.0,1.475
20.0,3.0,1.476
1.0,2.0,1.477
-15.0,-2.0,1.478
-29.0,-7.0,1.479
-43.0,-11.0,1.48
-54.0,-14.0,1.481
-55.0,-11.0,1.482
-48.0,-10.0,1.483
-38.0,-9.0,1.484
-27.0,-6.0,1.485
-14.0,0.0,1.486
5.0,1.0,1.487
24.0,0.0,1.488
36.0,0.0,1.489
42.0,6.0,1.49
49.0,13.0,1.491
57.0,16.0,1.492
59.0,16.0,1.493
55.0,17.0,1.494
41.0,16.0,1.495
23.0,12.0,1.496
3.0,9.0,1.497
-17.0,4.0,1.498
-29.0,0.0,1.499
-41.0,-4.0,1.5
-52.0,-7.0,1.501
-60.0,-7.0,1.502
-56.0,-5.0,1.503
-44.0,-5.0,1.504
-30.0,-5.0,1.505
-17.0,-1.0,1.506
-1.0,2.0,1.507
18.0,4.0,1.508
34.0,4.0,1.509
43.0,5.0,1.51
50.0,7.0,1.511
57.0,7.0,1.512
63.0,8.0,1.513
60.0,10.0,1.514
44.0,9.0,1.515
25.0,6.0,1.516
8.0,1.0,1.517
-6.0,-6.0,1.518
-21.0,-10.0,1.519
-37.0,-11.0,1.52
-49.0,-14.0,1.521
-53.0,-17.0,1.522
-46.0,-18.0,1.523
-35.0,-15.0,1.524
-22.0,-9.0,1.525
-7.0,-4.0,1.526
11.0,0.0,1.527
26.0,2.0,1.528
35.0,2.0,1.529
40.0,0.0,1.53
48.0,1.0,1.531
54.0,6.0,1.532
53.0,7.0,1.533
46.0,6.0,1.534
33.0,4.0,1.535
14.0,4.0,1.536
-5.0,7.0,1.537
-25.0,0.0,1.538
-39.0,-5.0,1.539
-52.0,-8.0,1.54
-61.0,-11.0,1.541
-60.0,-12.0,1.542
-52.0,-9.0,1.543
-38.0,-6.0,1.544
-26.0,-4.0,1.545
-15.0,-2.0,1.546
-1.0,0.0,1.547
15.0,2.0,1.548
29.0,2.0,1.549
40.0,1.0,1.55
49.0,2.0,1.551
57.0,6.0,1.552
63.0,7.0,1.553
59.0,7.0,1.554
43.0,6.0,1.555
22.0,5.0,1.556
7.0,4.0,1.557
-9.0,0.0,1.558
-26.0,-6.0,1.559
-43.0,-11.0,1.56
-52.0,-16.0,1.561
-52.0,-14.0,1.562
-45.0,-11.0,1.563
-37.0,-10.0,1.564
-25.0,-7.0,1.565
-11.0,-4.0,1.566
5.0,-1.0,1.567
22.0,0.0,1.568
33.0,1.0,1.569
40.0,3.0,1.57
45.0,5.0,1.571
51.0,4.0,1.572
57.0,6.0,1.573
54.0,11.0,1.574
40.0,12.0,1.575
20.0,5.0,1.576
2.0,1.0,1.577
-16.0,0.0,1.578
-31.0,0.0,1.579
-45.0,-3.0,1.58
-53.0,-12.0,1.581
-54.0,-12.0,1.582
-51.0,-7.0,1.583
-43.0,-6.0,1.584
-32.0,-6.0,1.585
-16.0,-4.0,1.586
2.0,0.0,1.587
19.0,-1.0,1.588
29.0,-1.0,1.589
36.0,3.0,1.59
44.0,9.0,1.591
51.0,9.0,1.592
54.0,6.0,1.593
50.0,6.0,1.594
38.0,5.0,1.595
20.0,3.0,1.596
4.0,2.0,1.597
-13.0,1.0,1.598
-26.0,-1.0,1.599
-38.0,-6.0,1.6
-49.0,-13.0,1.601
-58.0,-13.0,1.602
-55.0,-10.0,1.603
-41.0,-9.0,1.604
-23.0,-9.0,1.605
-10.0,-4.0,1.606
4.0,2.0,1.607
22.0,5.0,1.608
36.0,7.0,1.609
44.0,8.0,1.61
49.0,8.0,1.611
57.0,6.0,1.612
63.0,7.0,1.613
58.0,7.0,1.614
42.0,6.0,1.615
22.0,3.0,1.616
5.0,3.0,1.617
-12.0,1.0,1.618
-27.0,-2.0,1.619
-39.0,-6.0,1.62
-49.0,-10.0,1.621
-54.0,-11.0,1.622
-53.0,-12.0,1.623
-44.0,-10.0,1.624
-31.0,-3.0,1.625
-17.0,0.0,1.626
1.0,-1.0,1.627
22.0,-4.0,1.628
37.0,0.0,1.629
44.0,9.0,1.63
48.0,13.0,1.631
53.0,11.0,1.632
56.0,8.0,1.633
50.0,8.0,1.634
37.0,9.0,1.635
22.0,7.0,1.636
8.0,4.0,1.637
-9.0,-4.0,1.638
-24.0,-10.0,1.639
-37.0,-12.0,1.64
-47.0,-12.0,1.641
-53.0,-9.0,1.642
-50.0,-7.0,1.643
-40.0,-7.0,1.644
-27.0,-4.0,1.645
-13.0,-1.0,1.646
4.0,1.0,1.647
20.0,-2.0,1.648
32.0,-3.0,1.649
40.0,0.0,1.65
46.0,5.0,1.651
52.0,7.0,1.652
57.0,9.0,1.653
53.0,12.0,1.654
38.0,11.0,1.655
18.0,7.0,1.656
2.0,2.0,1.657
-12.0,-3.0,1.658
-24.0,-7.0,1.659
-40.0,-8.0,1.66
-53.0,-11.0,1.661
-57.0,-11.0,1.662
-53.0,-13.0,1.663
-44.0,-12.0,1.664
-32.0,-8.0,1.665
-16.0,-2.0,1.666
3.0,0.0,1.667
21.0,0.0,1.668
30.0,2.0,1.669
38.0,9.0,1.67
47.0,13.0,1.671
55.0,11.0,1.672
57.0,10.0,1.673
49.0,10.0,1.674
36.0,9.0,1.675
21.0,5.0,1.676
5.0,3.0,1.677
-12.0,2.0,1.678
-26.0,0.0,1.679
-40.0,-8.0,1.68
-50.0,-15.0,1.681
-54.0,-17.0,1.682
-50.0,-16.0,1.683
-39.0,-11.0,1.684
-28.0,-7.0,1.685
-17.0,-4.0,1.686
-3.0,-5.0,1.687
15.0,-7.0,1.688
30.0,-4.0,1.689
38.0,4.0,1.69
45.0,9.0,1.691
52.0,8.0,1.692
58.0,8.0,1.693
56.0,11.0,1.694
45.0,12.0,1.695
27.0,9.0,1.696
10.0,4.0,1.697
-11.0,-2.0,1.698
-25.0,-6.0,1.699
-39.0,-9.0,1.7
-51.0,-11.0,1.701
-56.0,-11.0,1.702
-51.0,-11.0,1.703
-38.0,-14.0,1.704
-25.0,-13.0,1.705
-12.0,-6.0,1.706
4.0,1.0,1.707
22.0,2.0,1.708
35.0,0.0,1.709
44.0,2.0,1.71
52.0,5.0,1.711
59.0,8.0,1.712
60.0,11.0,1.713
53.0,13.0,1.714
42.0,11.0,1.715
25.0,4.0,1.716
8.0,5.0,1.717
-10.0,7.0,1.718
-25.0,4.0,1.719
-39.0,-5.0,1.72
-53.0,-15.0,1.721
-60.0,-14.0,1.722
-56.0,-12.0,1.723
-47.0,-11.0,1.724
-38.0,-9.0,1.725
-26.0,-4.0,1.726
-8.0,0.0,1.727
13.0,-2.0,1.728
28.0,-4.0,1.729
37.0,2.0,1.73
46.0,9.0,1.731
54.0,10.0,1.732
58.0,9.0,1.733
51.0,10.0,1.734
39.0,10.0,1.735
22.0,6.0,1.736
6.0,3.0,1.737
-10.0,0.0,1.738
-24.0,-3.0,1.739
-38.0,-6.0,1.74
-50.0,-12.0,1.741
-59.0,-13.0,1.742
-56.0,-11.0,1.743
-42.0,-8.0,1.744
-26.0,-5.0,1.745
-12.0,-2.0,1.746
3.0,-3.0,1.747
21.0,-4.0,1.748
35.0,-1.0,1.749
42.0,4.0,1.75
47.0,8.0,1.751
53.0,8.0,1.752
58.0,8.0,1.753
54.0,10.0,1.754
41.0,11.0,1.755
23.0,7.0,1.756
6.0,4.0,1.757
-11.0,0.0,1.758
-26.0,-3.0,1.759
-37.0,-7.0,1.76
-47.0,-11.0,1.761
-53.0,-12.0,1.762
-53.0,-10.0,1.763
-42.0,-9.0,1.764
-25.0,-5.0,1.765
-9.0,1.0,1.766
6.0,5.0,1.767
22.0,1.0,1.768
35.0,-2.0,1.769
44.0,0.0,1.77
48.0,6.0,1.771
53.0,9.0,1.772
55.0,7.0,1.773
53.0,5.0,1.774
41.0,1.0,1.775
23.0,-1.0,1.776
4.0,0.0,1.777
-12.0,0.0,1.778
-26.0,-3.0,1.779
-40.0,-7.0,1.78
-51.0,-12.0,1.781
-57.0,-10.0,1.782
-54.0,-9.0,1.783
-43.0,-8.0,1.784
-32.0,-9.0,1.785
-20.0,-6.0,1.786
-4.0,-3.0,1.787
16.0,1.0,1.788
30.0,5.0,1.789
38.0,8.0,1.79
47.0,8.0,1.791
53.0,7.0,1.792
56.0,9.0,1.793
53.0,12.0,1.794
43.0,13.0,1.795
28.0,10.0,1.796
10.0,8.0,1.797
-9.0,4.0,1.798
-24.0,0.0,1.799
-35.0,-4.0,1.8
-45.0,-10.0,1.801
-53.0,-11.0,1.802
-53.0,-12.0,1.803
-42.0,-11.0,1.804
-29.0,-7.0,1.805
-17.0,-2.0,1.806
-1.0,0.0,1.807
18.0,2.0,1.808
33.0,4.0,1.809
43.0,7.0,1.81
48.0,7.0,1.811
54.0,6.0,1.812
58.0,5.0,1.813
55.0,6.0,1.814
40.0,7.0,1.815
19.0,4.0,1.816
0.0,4.0,1.817
-18.0,0.0,1.818
-33.0,-4.0,1.819
-45.0,-8.0,1.82
-55.0,-12.0,1.821
-58.0,-12.0,1.822
-53.0,-9.0,1.823
-43.0,-7.0,1.824
-32.0,-7.0,1.825
-18.0,-5.0,1.826
0.0,-3.0,1.827
17.0,0.0,1.828
30.0,1.0,1.829
37.0,2.0,1.83
46.0,3.0,1.831
56.0,6.0,1.832
61.0,9.0,1.833
55.0,11.0,1.834
45.0,10.0,1.835
30.0,9.0,1.836
13.0,5.0,1.837
-10.0,0.0,1.838
-27.0,-3.0,1.839
-37.0,-7.0,1.84
-44.0,-12.0,1.841
-51.0,-12.0,1.842
-50.0,-13.0,1.843
-43.0,-13.0,1.844
-31.0,-13.0,1.845
-20.0,-8.0,1.846
-3.0,-2.0,1.847
17.0,0.0,1.848
33.0,1.0,1.849
41.0,4.0,1.85
46.0,6.0,1.851
51.0,5.0,1.852
56.0,4.0,1.853
56.0,9.0,1.854
46.0,11.0,1.855
26.0,7.0,1.856
5.0,2.0,1.857
-14.0,-3.0,1.858
-27.0,-5.0,1.859
-39.0,-8.0,1.86
-50.0,-12.0,1.861
-56.0,-12.0,1.862
-51.0,-12.0,1.863
-41.0,-11.0,1.864
-30.0,-8.0,1.865
-19.0,-3.0,1.866
-2.0,-1.0,1.867
18.0,-2.0,1.868
31.0,0.0,1.869
40.0,5.0,1.87
48.0,9.0,1.871
57.0,8.0,1.872
62.0,6.0,1.873
57.0,8.0,1.874
44.0,9.0,1.875
25.0,7.0,1.876
7.0,5.0,1.877
-8.0,3.0,1.878
-19.0,-1.0,1.879
-30.0,-6.0,1.88
-44.0,-12.0,1.881
-53.0,-12.0,1.882
-53.0,-10.0,1.883
-45.0,-8.0,1.884
-35.0,-3.0,1.885
-22.0,1.0,1.886
-3.0,1.0,1.887
15.0,-2.0,1.888
27.0,-2.0,1.889
34.0,3.0,1.89
42.0,6.0,1.891
51.0,3.0,1.892
59.0,2.0,1.893
60.0,6.0,1.894
47.0,10.0,1.895
27.0,9.0,1.896
9.0,4.0,1.897
-4.0,0.0,1.898
-19.0,-2.0,1.899
-39.0,-5.0,1.9
-54.0,-9.0,1.901
-56.0,-11.0,1.902
-50.0,-12.0,1.903
-40.0,-10.0,1.904
-30.0,-8.0,1.905
-16.0,-2.0,1.906
3.0,2.0,1.907
19.0,0.0,1.908
28.0,0.0,1.909
36.0,3.0,1.91
46.0,9.0,1.911
54.0,11.0,1.912
57.0,10.0,1.913
54.0,10.0,1.914
43.0,8.0,1.915
25.0,3.0,1.916
6.0,0.0,1.917
-12.0,-1.0,1.918
-28.0,0.0,1.919
-46.0,-3.0,1.92
-59.0,-10.0,1.921
-59.0,-13.0,1.922
-51.0,-12.0,1.923
-42.0,-8.0,1.924
-35.0,-5.0,1.925
-21.0,-4.0,1.926
0.0,-3.0,1.927
20.0,-2.0,1.928
31.0,0.0,1.929
39.0,3.0,1.93
48.0,6.0,1.931
57.0,8.0,1.932
60.0,11.0,1.933
54.0,12.0,1.934
43.0,11.0,1.935
25.0,6.0,1.936
6.0,2.0,1.937
-10.0,-2.0,1.938
-22.0,-5.0,1.939
-37.0,-6.0,1.94
-51.0,-11.0,1.941
-57.0,-14.0,1.942
-52.0,-14.0,1.943
-43.0,-10.0,1.944
-35.0,-4.0,1.945
-22.0,0.0,1.946
-2.0,0.0,1.947
16.0,-2.0,1.948
27.0,-1.0,1.949
33.0,1.0,1.95
42.0,4.0,1.951
51.0,9.0,1.952
55.0,11.0,1.953
53.0,11.0,1.954
44.0,7.0,1.955
27.0,6.0,1.956
9.0,8.0,1.957
-6.0,6.0,1.958
-19.0,0.0,1.959
-33.0,-4.0,1.96
-47.0,-8.0,1.961
-52.0,-11.0,1.962
-46.0,-11.0,1.963
-37.0,-9.0,1.964
-29.0,-7.0,1.965
-18.0,-4.0,1.966
1.0,-2.0,1.967
21.0,0.0,1.968
33.0,0.0,1.969
38.0,0.0,1.97
45.0,3.0,1.971
52.0,7.0,1.972
55.0,12.0,1.973
54.0,14.0,1.974
46.0,7.0,1.975
29.0,1.0,1.976
10.0,0.0,1.977
-11.0,-1.0,1.978
-23.0,-1.0,1.979
-34.0,-7.0,1.98
-43.0,-14.0,1.981
-50.0,-14.0,1.982
-50.0,-13.0,1.983
-46.0,-11.0,1.984
-34.0,-6.0,1.985
-21.0,-1.0,1.986
-4.0,-1.0,1.987
12.0,-4.0,1.988
24.0,0.0,1.989
36.0,9.0,1.99
44.0,14.0,1.991
51.0,9.0,1.992
53.0,2.0,1.993
52.0,6.0,1.994
39.0,11.0,1.995
24.0,9.0,1.996
5.0,5.0,1.997
-11.0,0.0,1.998
-22.0,-1.0,1.999
-33.0,-4.0,2.0
-47.0,-11.0,2.001
-56.0,-15.0,2.002
-53.0,-15.0,2.003
-45.0,-12.0,2.004
-38.0,-8.0,2.005
-26.0,-4.0,2.006
-9.0,-3.0,2.007
13.0,-2.0,2.008
29.0,0.0,2.009
36.0,3.0,2.01
42.0,6.0,2.011
51.0,8.0,2.012
58.0,8.0,2.013
55.0,9.0,2.014
43.0,9.0,2.015
25.0,8.0,2.016
9.0,4.0,2.017
-6.0,-2.0,2.018
-20.0,-5.0,2.019
-34.0,-6.0,2.02
-47.0,-11.0,2.021
-51.0,-14.0,2.022
-46.0,-14.0,2.023
-38.0,-9.0,2.024
-30.0,-5.0,2.025
-19.0,-2.0,2.026
-1.0,0.0,2.027
19.0,0.0,2.028
34.0,0.0,2.029
40.0,2.0,2.03
47.0,6.0,2.031
56.0,11.0,2.032
61.0,12.0,2.033
58.0,9.0,2.034
45.0,5.0,2.035
27.0,2.0,2.036
7.0,3.0,2.037
-11.0,1.0,2.038
-25.0,-2.0,2.039
-37.0,-7.0,2.04
-46.0,-14.0,2.041
-53.0,-15.0,2.042
-54.0,-8.0,2.043
-47.0,-6.0,2.044
-35.0,-7.0,2.045
-18.0,-9.0,2.046
1.0,-9.0,2.047
19.0,-8.0,2.048
29.0,-7.0,2.049
36.0,-3.0,2.05
45.0,2.0,2.051
55.0,5.0,2.052
59.0,6.0,2.053
54.0,5.0,2.054
43.0,5.0,2.055
28.0,5.0,2.056
13.0,7.0,2.057
-7.0,5.0,2.058
-21.0,0.0,2.059
-35.0,-8.0,2.06
-46.0,-13.0,2.061
-54.0,-13.0,2.062
-52.0,-12.0,2.063
-48.0,-10.0,2.064
-36.0,-7.0,2.065
-21.0,-2.0,2.066
-3.0,0.0,2.067
12.0,1.0,2.068
23.0,5.0,2.069
34.0,14.0,2.07
42.0,20.0,2.071
49.0,22.0,2.072
51.0,18.0,2.073
50.0,14.0,2.074
36.0,10.0,2.075
22.0,8.0,2.076
6.0,8.0,2.077
-9.0,5.0,2.078
-25.0,-1.0,2.079
-38.0,-6.0,2.08
-47.0,-8.0,2.081
-54.0,-6.0,2.082
-56.0,-9.0,2.083
-47.0,-12.0,2.084
-34.0,-11.0,2.085
-21.0,-5.0,2.086
-5.0,-2.0,2.087
15.0,-5.0,2.088
31.0,-6.0,2.089
41.0,0.0,2.09
48.0,6.0,2.091
55.0,7.0,2.092
60.0,9.0,2.093
60.0,12.0,2.094
53.0,12.0,2.095
42.0,7.0,2.096
25.0,4.0,2.097
1.0,3.0,2.098
-17.0,0.0,2.099
-29.0,-5.0,2.1
-38.0,-11.0,2.101
-45.0,-12.0,2.102
-46.0,-13.0,2.103
-40.0,-13.0,2.104
-31.0,-8.0,2.105
-21.0,-1.0,2.106
-5.0,0.0,2.107
15.0,-3.0,2.108
28.0,-3.0,2.109
34.0,4.0,2.11
39.0,8.0,2.111
47.0,6.0,2.112
52.0,3.0,2.113
51.0,4.0,2.114
44.0,5.0,2.115
29.0,5.0,2.116
9.0,7.0,2.117
-11.0,3.0,2.118
-23.0,-4.0,2.119
-35.0,-11.0,2.12
-46.0,-13.0,2.121
-55.0,-10.0,2.122
-52.0,-11.0,2.123
-44.0,-15.0,2.124
-36.0,-12.0,2.125
-25.0,-4.0,2.126
-8.0,-1.0,2.127
13.0,-2.0,2.128
26.0,-1.0,2.129
34.0,3.0,2.13
41.0,5.0,2.131
50.0,4.0,2.132
54.0,6.0,2.133
52.0,12.0,2.134
43.0,13.0,2.135
29.0,8.0,2.136
13.0,4.0,2.137
-3.0,2.0,2.138
-19.0,-1.0,2.139
-33.0,-7.0,2.14
-45.0,-11.0,2.141
-53.0,-10.0,2.142
-50.0,-7.0,2.143
-45.0,-6.0,2.144
-35.0,-5.0,2.145
-24.0,-5.0,2.146
-7.0,-6.0,2.147
8.0,-6.0,2.148
17.0,-1.0,2.149
28.0,8.0,2.15
40.0,10.0,2.151
49.0,8.0,2.152
49.0,9.0,2.153
48.0,13.0,2.154
41.0,12.0,2.155
30.0,6.0,2.156
12.0,3.0,2.157
-5.0,2.0,2.158
-19.0,-1.0,2.159
-31.0,-7.0,2.16
-42.0,-13.0,2.161
-50.0,-13.0,2.162
-46.0,-12.0,2.163
-38.0,-9.0,2.164
-31.0,-7.0,2.165
-23.0,-3.0,2.166
-7.0,-2.0,2.167
13.0,-5.0,2.168
28.0,-5.0,2.169
36.0,0.0,2.17
44.0,4.0,2.171
53.0,6.0,2.172
59.0,7.0,2.173
59.0,10.0,2.174
49.0,11.0,2.175
32.0,8.0,2.176
15.0,4.0,2.177
-5.0,-1.0,2.178
-20.0,-6.0,2.179
-33.0,-10.0,2.18
-46.0,-13.0,2.181
-51.0,-12.0,2.182
-49.0,-10.0,2.183
-43.0,-9.0,2.184
-36.0,-6.0,2.185
-25.0,-2.0,2.186
-6.0,0.0,2.187
16.0,0.0,2.188
32.0,0.0,2.189
40.0,3.0,2.19
45.0,4.0,2.191
52.0,7.0,2.192
57.0,8.0,2.193
56.0,9.0,2.194
48.0,9.0,2.195
31.0,7.0,2.196
13.0,6.0,2.197
-7.0,4.0,2.198
-22.0,0.0,2.199
-34.0,-5.0,2.2
-44.0,-9.0,2.201
-48.0,-9.0,2.202
-46.0,-7.0,2.203
-42.0,-8.0,2.204
-34.0,-7.0,2.205
-23.0,-2.0,2.206
-6.0,0.0,2.207
11.0,0.0,2.208
23.0,0.0,2.209
31.0,5.0,2.21
40.0,7.0,2.211
47.0,6.0,2.212
52.0,3.0,2.213
53.0,5.0,2.214
45.0,8.0,2.215
27.0,8.0,2.216
7.0,6.0,2.217
-12.0,2.0,2.218
-24.0,0.0,2.219
-36.0,-2.0,2.22
-48.0,-9.0,2.221
-56.0,-13.0,2.222
-50.0,-14.0,2.223
-43.0,-14.0,2.224
-33.0,-11.0,2.225
-20.0,-5.0,2.226
-2.0,-1.0,2.227
14.0,0.0,2.228
23.0,1.0,2.229
33.0,2.0,2.23
43.0,4.0,2.231
52.0,5.0,2.232
53.0,6.0,2.233
53.0,9.0,2.234
44.0,12.0,2.235
32.0,11.0,2.236
14.0,8.0,2.237
-4.0,0.0,2.238
-18.0,-4.0,2.239
-31.0,-5.0,2.24
-46.0,-8.0,2.241
-52.0,-11.0,2.242
-47.0,-12.0,2.243
-37.0,-10.0,2.244
-30.0,-5.0,2.245
-22.0,-4.0,2.246
-2.0,-4.0,2.247
18.0,-3.0,2.248
28.0,1.0,2.249
33.0,7.0,2.25
43.0,10.0,2.251
56.0,10.0,2.252
59.0,10.0,2.253
50.0,10.0,2.254
39.0,11.0,2.255
29.0,12.0,2.256
15.0,10.0,2.257
-5.0,3.0,2.258
-22.0,-2.0,2.259
-36.0,-2.0,2.26
-49.0,-5.0,2.261
-58.0,-8.0,2.262
-57.0,-10.0,2.263
-48.0,-10.0,2.264
-39.0,-6.0,2.265
-26.0,-5.0,2.266
-7.0,-5.0,2.267
16.0,-4.0,2.268
29.0,-3.0,2.269
37.0,-1.0,2.27
45.0,1.0,2.271
55.0,5.0,2.272
58.0,9.0,2.273
57.0,12.0,2.274
51.0,11.0,2.275
38.0,9.0,2.276
17.0,7.0,2.277
-7.0,1.0,2.278
-23.0,-4.0,2.279
-36.0,-9.0,2.28
-47.0,-14.0,2.281
-55.0,-12.0,2.282
-53.0,-7.0,2.283
-44.0,-6.0,2.284
-35.0,-8.0,2.285
-24.0,-10.0,2.286
-5.0,-8.0,2.287
13.0,-5.0,2.288
22.0,-1.0,2.289
29.0,3.0,2.29
41.0,6.0,2.291
53.0,4.0,2.292
57.0,4.0,2.293
52.0,8.0,2.294
45.0,11.0,2.295
34.0,7.0,2.296
19.0,0.0,2.297
-1.0,-2.0,2.298
-15.0,0.0,2.299
-29.0,-2.0,2.3
-41.0,-10.0,2.301
-49.0,-14.0,2.302
-43.0,-12.0,2.303
-37.0,-8.0,2.304
-31.0,-7.0,2.305
-23.0,-6.0,2.306
-6.0,-3.0,2.307
10.0,-2.0,2.308
24.0,-1.0,2.309
36.0,1.0,2.31
44.0,3.0,2.311
50.0,8.0,2.312
51.0,13.0,2.313
51.0,17.0,2.314
44.0,14.0,2.315
34.0,7.0,2.316
15.0,3.0,2.317
-4.0,1.0,2.318
-22.0,2.0,2.319
-37.0,-1.0,2.32
-49.0,-10.0,2.321
-54.0,-15.0,2.322
-49.0,-14.0,2.323
-39.0,-11.0,2.324
-30.0,-8.0,2.325
-22.0,-5.0,2.326
-8.0,-3.0,2.327
12.0,-2.0,2.328
25.0,-3.0,2.329
30.0,-3.0,2.33
34.0,-1.0,2.331
42.0,2.0,2.332
50.0,7.0,2.333
53.0,12.0,2.334
48.0,15.0,2.335
34.0,13.0,2.336
17.0,9.0,2.337
-3.0,3.0,2.338
-19.0,0.0,2.339
-34.0,-2.0,2.34
-48.0,-8.0,2.341
-53.0,-10.0,2.342
-46.0,-10.0,2.343
-39.0,-9.0,2.344
-34.0,-8.0,2.345
-29.0,-5.0,2.346
-12.0,-1.0,2.347
11.0,2.0,2.348
29.0,2.0,2.349
37.0,1.0,2.35
42.0,5.0,2.351
46.0,9.0,2.352
52.0,11.0,2.353
54.0,12.0,2.354
50.0,12.0,2.355
34.0,7.0,2.356
13.0,3.0,2.357
-6.0,0.0,2.358
-19.0,-1.0,2.359
-32.0,-2.0,2.36
-45.0,-9.0,2.361
-52.0,-13.0,2.362
-48.0,-14.0,2.363
-40.0,-13.0,2.364
-34.0,-9.0,2.365
-26.0,-4.0,2.366
-8.0,-1.0,2.367
15.0,-1.0,2.368
30.0,-2.0,2.369
34.0,-1.0,2.37
38.0,4.0,2.371
46.0,7.0,2.372
55.0,5.0,2.373
56.0,3.0,2.374
46.0,5.0,2.375
29.0,6.0,2.376
12.0,4.0,2.377
1.0,-1.0,2.378
-10.0,-5.0,2.379
-25.0,-8.0,2.38
-40.0,-9.0,2.381
-51.0,-10.0,2.382
-47.0,-10.0,2.383
-42.0,-9.0,2.384
-35.0,-9.0,2.385
-26.0,-7.0,2.386
-10.0,-4.0,2.387
3.0,0.0,2.388
18.0,1.0,2.389
31.0,4.0,2.39
37.0,7.0,2.391
43.0,10.0,2.392
49.0,8.0,2.393
53.0,7.0,2.394
43.0,7.0,2.395
32.0,5.0,2.396
12.0,3.0,2.397
2.0,0.0,2.398
-11.0,0.0,2.399
-26.0,-1.0,2.4
-42.0,-9.0,2.401
-53.0,-14.0,2.402
-49.0,-14.0,2.403
-44.0,-10.0,2.404
-37.0,-6.0,2.405
-27.0,-5.0,2.406
-11.0,-5.0,2.407
4.0,-2.0,2.408
19.0,2.0,2.409
32.0,5.0,2.41
38.0,5.0,2.411
45.0,3.0,2.412
51.0,6.0,2.413
55.0,10.0,2.414
45.0,10.0,2.415
33.0,6.0,2.416
13.0,3.0,2.417
-7.0,2.0,2.418
-23.0,1.0,2.419
-33.0,-1.0,2.42
-42.0,-8.0,2.421
-50.0,-14.0,2.422
-51.0,-13.0,2.423
-44.0,-11.0,2.424
-33.0,-8.0,2.425
-21.0,-4.0,2.426
-5.0,-2.0,2.427
15.0,0.0,2.428
28.0,2.0,2.429
37.0,5.0,2.43
43.0,5.0,2.431
50.0,6.0,2.432
55.0,7.0,2.433
54.0,9.0,2.434
47.0,8.0,2.435
34.0,6.0,2.436
19.0,3.0,2.437
1.0,0.0,2.438
-13.0,-2.0,2.439
-25.0,-6.0,2.44
-38.0,-13.0,2.441
-46.0,-13.0,2.442
-45.0,-9.0,2.443
-37.0,-8.0,2.444
-29.0,-5.0,2.445
-22.0,-3.0,2.446
-12.0,-2.0,2.447
2.0,-4.0,2.448
17.0,-2.0,2.449
31.0,5.0,2.45
42.0,13.0,2.451
50.0,16.0,2.452
51.0,13.0,2.453
51.0,9.0,2.454
46.0,6.0,2.455
32.0,6.0,2.456
16.0,6.0,2.457
-1.0,4.0,2.458
-15.0,0.0,2.459
-30.0,-3.0,2.46
-44.0,-8.0,2.461
-54.0,-10.0,2.462
-48.0,-14.0,2.463
-42.0,-16.0,2.464
-32.0,-13.0,2.465
-21.0,-6.0,2.466
-5.0,-2.0,2.467
11.0,-2.0,2.468
24.0,-2.0,2.469
35.0,1.0,2.47
40.0,5.0,2.471
46.0,7.0,2.472
51.0,9.0,2.473
53.0,13.0,2.474
44.0,14.0,2.475
32.0,12.0,2.476
13.0,8.0,2.477
-3.0,1.0,2.478
-17.0,-4.0,2.479
-32.0,-7.0,2.48
-46.0,-11.0,2.481
-52.0,-12.0,2.482
-48.0,-13.0,2.483
-40.0,-13.0,2.484
-32.0,-10.0,2.485
-22.0,-4.0,2.486
-7.0,3.0,2.487
10.0,4.0,2.488
21.0,2.0,2.489
27.0,3.0,2.49
35.0,5.0,2.491
43.0,9.0,2.492
49.0,9.0,2.493
46.0,7.0,2.494
37.0,7.0,2.495
27.0,7.0,2.496
18.0,5.0,2.497
4.0,1.0,2.498
-12.0,-1.0,2.499
-29.0,-2.0,2.5
-41.0,-11.0,2.501
-45.0,-16.0,2.502
-44.0,-15.0,2.503
-44.0,-11.0,2.504
-41.0,-7.0,2.505
-31.0,-5.0,2.506
-12.0,-4.0,2.507
9.0,-3.0,2.508
24.0,-2.0,2.509
32.0,1.0,2.51
40.0,6.0,2.511
49.0,8.0,2.512
55.0,7.0,2.513
55.0,9.0,2.514
47.0,12.0,2.515
32.0,13.0,2.516
15.0,10.0,2.517
-4.0,6.0,2.518
-20.0,1.0,2.519
-34.0,-4.0,2.52
-44.0,-10.0,2.521
-50.0,-13.0,2.522
-49.0,-14.0,2.523
-42.0,-12.0,2.524
-32.0,-9.0,2.525
-23.0,-4.0,2.526
-14.0,-1.0,2.527
-3.0,-1.0,2.528
11.0,0.0,2.529
26.0,5.0,2.53
40.0,10.0,2.531
53.0,9.0,2.532
65.0,4.0,2.533
74.0,3.0,2.534
74.0,5.0,2.535
59.0,1.0,2.536
37.0,-4.0,2.537
14.0,-8.0,2.538
-3.0,-3.0,2.539
-22.0,-2.0,2.54
-40.0,-8.0,2.541
-55.0,-10.0,2.542
-53.0,-6.0,2.543
-50.0,0.0,2.544
-43.0,1.0,2.545
-33.0,0.0,2.546
-14.0,-2.0,2.547
4.0,-5.0,2.548
20.0,-7.0,2.549
33.0,-4.0,2.55
40.0,1.0,2.551
44.0,5.0,2.552
38.0,7.0,2.553
32.0,10.0,2.554
23.0,10.0,2.555
16.0,6.0,2.556
15.0,2.0,2.557
15.0,-1.0,2.558
11.0,-1.0,2.559
-4.0,-4.0,2.56
-25.0,-10.0,2.561
-42.0,-13.0,2.562
-46.0,-13.0,2.563
-48.0,-10.0,2.564
-52.0,-7.0,2.565
-50.0,-5.0,2.566
-33.0,-4.0,2.567
-8.0,0.0,2.568
12.0,13.0,2.569
25.0,28.0,2.57
39.0,32.0,2.571
53.0,20.0,2.572
62.0,3.0,2.573
62.0,0.0,2.574
57.0,6.0,2.575
42.0,5.0,2.576
20.0,-8.0,2.577
-9.0,-24.0,2.578
-33.0,-26.0,2.579
-55.0,-15.0,2.58
-76.0,-8.0,2.581
-82.0,-1.0,2.582
-64.0,9.0,2.583
-35.0,22.0,2.584
-15.0,30.0,2.585
2.0,25.0,2.586
32.0,9.0,2.587
70.0,-5.0,2.588
86.0,-10.0,2.589
64.0,-7.0,2.59
19.0,-9.0,2.591
-16.0,-16.0,2.592
-29.0,-19.0,2.593
-38.0,-11.0,2.594
-49.0,5.0,2.595
-42.0,18.0,2.596
-9.0,30.0,2.597
43.0,32.0,2.598
86.0,26.0,2.599
106.0,18.0,2.6
99.0,3.0,2.601
58.0,-9.0,2.602
-8.0,-13.0,2.603
-56.0,-15.0,2.604
-66.0,-9.0,2.605
-65.0,-5.0,2.606
-77.0,-4.0,2.607
-82.0,-2.0,2.608
-55.0,0.0,2.609
-12.0,0.0,2.61
12.0,-5.0,2.611
33.0,-11.0,2.612
81.0,-16.0,2.613
135.0,-17.0,2.614
140.0,-7.0,2.615
86.0,1.0,2.616
21.0,0.0,2.617
-23.0,0.0,2.618
-52.0,8.0,2.619
-73.0,23.0,2.62
-70.0,23.0,2.621
-61.0,4.0,2.622
-36.0,-11.0,2.623
-19.0,-9.0,2.624
-30.0,1.0,2.625
-40.0,-2.0,2.626
-46.0,-15.0,2.627
-54.0,-23.0,2.628
-66.0,-17.0,2.629
-76.0,-10.0,2.63
-82.0,-9.0,2.631
-76.0,-2.0,2.632
-29.0,9.0,2.633
10.0,12.0,2.634
28.0,2.0,2.635
40.0,-8.0,2.636
31.0,-8.0,2.637
23.0,-10.0,2.638
11.0,-13.0,2.639
-5.0,-16.0,2.64
-11.0,-19.0,2.641
-17.0,-19.0,2.642
-44.0,-22.0,2.643
-88.0,-21.0,2.644
-112.0,-11.0,2.645
-84.0,-1.0,2.646
-24.0,3.0,2.647
28.0,8.0,2.648
63.0,12.0,2.649
101.0,14.0,2.65
146.0,10.0,2.651
163.0,11.0,2.652
139.0,27.0,2.653
98.0,46.0,2.654
64.0,52.0,2.655
28.0,47.0,2.656
-21.0,39.0,2.657
-75.0,23.0,2.658
-102.0,2.0,2.659
-87.0,-15.0,2.66
-47.0,-22.0,2.661
-10.0,-21.0,2.662
8.0,-24.0,2.663
6.0,-22.0,2.664
-7.0,-10.0,2.665
-10.0,2.0,2.666
7.0,-1.0,2.667
41.0,-13.0,2.668
75.0,-17.0,2.669
91.0,-10.0,2.67
89.0,1.0,2.671
87.0,14.0,2.672
96.0,35.0,2.673
112.0,54.0,2.674
103.0,56.0,2.675
56.0,46.0,2.676
-4.0,39.0,2.677
-53.0,36.0,2.678
-77.0,22.0,2.679
-91.0,-7.0,2.68
-107.0,-33.0,2.681
-120.0,-40.0,2.682
-126.0,-37.0,2.683
-141.0,-38.0,2.684
-162.0,-41.0,2.685
-157.0,-41.0,2.686
-101.0,-43.0,2.687
-16.0,-50.0,2.688
50.0,-56.0,2.689
94.0,-55.0,2.69
142.0,-48.0,2.691
187.0,-43.0,2.692
192.0,-32.0,2.693
154.0,-11.0,2.694
114.0,10.0,2.695
89.0,23.0,2.696
59.0,26.0,2.697
2.0,24.0,2.698
-58.0,21.0,2.699
-103.0,17.0,2.7
-131.0,7.0,2.701
-140.0,0.0,2.702
-115.0,-6.0,2.703
-78.0,-9.0,2.704
-61.0,-8.0,2.705
-56.0,6.0,2.706
-29.0,27.0,2.707
10.0,39.0,2.708
23.0,38.0,2.709
15.0,31.0,2.71
21.0,27.0,2.711
47.0,22.0,2.712
56.0,14.0,2.713
47.0,2.0,2.714
42.0,-7.0,2.715
44.0,-9.0,2.716
35.0,-5.0,2.717
11.0,4.0,2.718
-2.0,9.0,2.719
1.0,7.0,2.72
-1.0,3.0,2.721
-13.0,3.0,2.722
-13.0,3.0,2.723
-1.0,-5.0,2.724
7.0,-17.0,2.725
12.0,-25.0,2.726
27.0,-28.0,2.727
52.0,-28.0,2.728
67.0,-29.0,2.729
68.0,-31.0,2.73
71.0,-30.0,2.731
83.0,-26.0,2.732
95.0,-16.0,2.733
102.0,-1.0,2.734
103.0,11.0,2.735
96.0,14.0,2.736
82.0,14.0,2.737
66.0,9.0,2.738
51.0,7.0,2.739
32.0,6.0,2.74
9.0,5.0,2.741
-9.0,6.0,2.742
-11.0,6.0,2.743
-9.0,6.0,2.744
-14.0,8.0,2.745
-18.0,11.0,2.746
-3.0,13.0,2.747
20.0,13.0,2.748
32.0,18.0,2.749
31.0,23.0,2.75
32.0,22.0,2.751
40.0,16.0,2.752
47.0,14.0,2.753
46.0,18.0,2.754
36.0,17.0,2.755
23.0,9.0,2.756
7.0,2.0,2.757
-9.0,-1.0,2.758
-27.0,-1.0,2.759
-44.0,-6.0,2.76
-59.0,-15.0,2.761
-66.0,-18.0,2.762
-66.0,-15.0,2.763
-58.0,-13.0,2.764
-48.0,-15.0,2.765
-39.0,-14.0,2.766
-26.0,-13.0,2.767
-6.0,-10.0,2.768
14.0,-8.0,2.769
25.0,-5.0,2.77
30.0,0.0,2.771
34.0,4.0,2.772
36.0,6.0,2.773
34.0,12.0,2.774
31.0,17.0,2.775
23.0,10.0,2.776
13.0,0.0,2.777
0.0,-5.0,2.778
-11.0,-2.0,2.779
-22.0,0.0,2.78
-32.0,-9.0,2.781
-41.0,-14.0,2.782
-44.0,-12.0,2.783
-38.0,-7.0,2.784
-31.0,-5.0,2.785
-26.0,-3.0,2.786
-16.0,0.0,2.787
1.0,4.0,2.788
17.0,2.0,2.789
25.0,-2.0,2.79
27.0,-2.0,2.791
35.0,0.0,2.792
45.0,2.0,2.793
47.0,2.0,2.794
38.0,0.0,2.795
23.0,-1.0,2.796
9.0,1.0,2.797
-6.0,2.0,2.798
-22.0,4.0,2.799
-39.0,11.0,2.8
-52.0,19.0,2.801
-61.0,30.0,2.802
-62.0,35.0,2.803
-56.0,31.0,2.804
-46.0,24.0,2.805
-32.0,14.0,2.806
-18.0,-1.0,2.807
-7.0,-20.0,2.808
0.0,-36.0,2.809
8.0,-44.0,2.81
17.0,-43.0,2.811
24.0,-39.0,2.812
30.0,-29.0,2.813
34.0,-13.0,2.814
38.0,3.0,2.815
32.0,10.0,2.816
17.0,3.0,2.817
-5.0,-12.0,2.818
-22.0,-21.0,2.819
-30.0,-25.0,2.82
-34.0,-26.0,2.821
-40.0,-24.0,2.822
-42.0,-20.0,2.823
-39.0,-18.0,2.824
-35.0,-17.0,2.825
-33.0,-14.0,2.826
-25.0,-4.0,2.827
-3.0,13.0,2.828
25.0,33.0,2.829
48.0,49.0,2.83
61.0,51.0,2.831
69.0,42.0,2.832
76.0,38.0,2.833
74.0,49.0,2.834
55.0,60.0,2.835
27.0,59.0,2.836
1.0,51.0,2.837
-20.0,45.0,2.838
-41.0,39.0,2.839
-64.0,20.0,2.84
-81.0,-16.0,2.841
-84.0,-49.0,2.842
-70.0,-71.0,2.843
-52.0,-85.0,2.844
-35.0,-99.0,2.845
-8.0,-105.0,2.846
30.0,-93.0,2.847
60.0,-65.0,2.848
59.0,-30.0,2.849
41.0,0.0,2.85
34.0,12.0,2.851
42.0,12.0,2.852
43.0,15.0,2.853
31.0,29.0,2.854
22.0,43.0,2.855
20.0,46.0,2.856
15.0,41.0,2.857
-8.0,26.0,2.858
-27.0,5.0,2.859
-32.0,-13.0,2.86
-32.0,-23.0,2.861
-37.0,-19.0,2.862
-44.0,-13.0,2.863
-48.0,-14.0,2.864
-46.0,-13.0,2.865
-43.0,2.0,2.866
-34.0,30.0,2.867
-19.0,51.0,2.868
-2.0,54.0,2.869
17.0,40.0,2.87
45.0,18.0,2.871
78.0,-2.0,2.872
106.0,-16.0,2.873
122.0,-17.0,2.874
122.0,-6.0,2.875
96.0,5.0,2.876
39.0,4.0,2.877
-37.0,-13.0,2.878
-89.0,-26.0,2.879
-96.0,-21.0,2.88
-75.0,-3.0,2.881
-58.0,14.0,2.882
-47.0,19.0,2.883
-34.0,23.0,2.884
-22.0,39.0,2.885
-22.0,57.0,2.886
-28.0,51.0,2.887
-24.0,18.0,2.888
-9.0,-7.0,2.889
12.0,-1.0,2.89
37.0,16.0,2.891
68.0,13.0,2.892
92.0,-4.0,2.893
86.0,-13.0,2.894
60.0,-14.0,2.895
43.0,-19.0,2.896
38.0,-25.0,2.897
17.0,-29.0,2.898
-26.0,-30.0,2.899
-73.0,-29.0,2.9
-111.0,-17.0,2.901
-143.0,6.0,2.902
-145.0,17.0,2.903
-90.0,0.0,2.904
14.0,-19.0,2.905
103.0,-16.0,2.906
142.0,8.0,2.907
150.0,37.0,2.908
153.0,55.0,2.909
140.0,45.0,2.91
112.0,0.0,2.911
87.0,-52.0,2.912
75.0,-74.0,2.913
61.0,-71.0,2.914
35.0,-79.0,2.915
11.0,-108.0,2.916
-7.0,-125.0,2.917
-45.0,-110.0,2.918
-114.0,-69.0,2.919
-183.0,-14.0,2.92
-210.0,42.0,2.921
-184.0,90.0,2.922
-125.0,108.0,2.923
-65.0,114.0,2.924
-19.0,133.0,2.925
6.0,152.0,2.926
24.0,136.0,2.927
45.0,84.0,2.928
64.0,39.0,2.929
61.0,14.0,2.93
36.0,-14.0,2.931
4.0,-47.0,2.932
-11.0,-56.0,2.933
6.0,-43.0,2.934
45.0,-43.0,2.935
74.0,-62.0,2.936
69.0,-67.0,2.937
23.0,-60.0,2.938
-40.0,-70.0,2.939
-104.0,-77.0,2.94
-144.0,-74.0,2.941
-125.0,-59.0,2.942
-39.0,-8.0,2.943
80.0,47.0,2.944
172.0,111.0,2.945
199.0,181.0,2.946
165.0,271.0,2.947
103.0,328.0,2.948
44.0,282.0,2.949
8.0,225.0,2.95
-12.0,131.0,2.951
-24.0,20.0,2.952
-16.0,-141.0,2.953
27.0,-284.0,2.954
85.0,-364.0,2.955
130.0,-417.0,2.956
147.0,-390.0,2.957
130.0,-353.0,2.958
70.0,-275.0,2.959
-26.0,-189.0,2.96
-118.0,-121.0,2.961
-162.0,-56.0,2.962
-162.0,44.0,2.963
-142.0,193.0,2.964
-107.0,331.0,2.965
-56.0,384.0,2.966
-13.0,355.0,2.967
-2.0,333.0,2.968
-13.0,388.0,2.969
-13.0,464.0,2.97
5.0,437.0,2.971
27.0,294.0,2.972
39.0,175.0,2.973
34.0,171.0,2.974
15.0,171.0,2.975
0.0,-6.0,2.976
6.0,-306.0,2.977
24.0,-548.0,2.978
20.0,-600.0,2.979
-33.0,-570.0,2.98
-118.0,-604.0,2.981
-189.0,-661.0,2.982
-212.0,-649.0,2.983
-194.0,-599.0,2.984
-164.0,-584.0,2.985
-125.0,-546.0,2.986
-48.0,-392.0,2.987
81.0,-175.0,2.988
199.0,-19.0,2.989
229.0,71.0,2.99
177.0,186.0,2.991
126.0,325.0,2.992
110.0,417.0,2.993
79.0,465.0,2.994
-9.0,532.0,2.995
-115.0,589.0,2.996
-179.0,558.0,2.997
-179.0,436.0,2.998
-113.0,356.0,2.999
4.0,383.0,3.0
130.0,433.0,3.001
219.0,421.0,3.002
278.0,349.0,3.003
310.0,254.0,3.004
248.0,142.0,3.005
59.0,35.0,3.006
-146.0,-10.0,3.007
-232.0,36.0,3.008
-204.0,134.0,3.009
-148.0,202.0,3.01
-75.0,172.0,3.011
16.0,-5.0,3.012
45.0,-306.0,3.013
-39.0,-608.0,3.014
-111.0,-792.0,3.015
-50.0,-840.0,3.016
67.0,-819.0,3.017
118.0,-754.0,3.018
114.0,-614.0,3.019
132.0,-411.0,3.02
111.0,-229.0,3.021
-58.0,-97.0,3.022
-285.0,39.0,3.023
-362.0,232.0,3.024
-249.0,460.0,3.025
-88.0,684.0,3.026
38.0,892.0,3.027
157.0,1020.0,3.028
267.0,960.0,3.029
294.0,683.0,3.03
221.0,317.0,3.031
138.0,5.0,3.032
128.0,-249.0,3.033
178.0,-509.0,3.034
208.0,-742.0,3.035
148.0,-840.0,3.036
21.0,-768.0,3.037
-106.0,-583.0,3.038
-149.0,-392.0,3.039
-106.0,-278.0,3.04
-48.0,-244.0,3.041
-22.0,-203.0,3.042
-4.0,-70.0,3.043
24.0,133.0,3.044
24.0,298.0,3.045
-36.0,370.0,3.046
-119.0,382.0,3.047
-169.0,349.0,3.048
-206.0,215.0,3.049
-264.0,-15.0,3.05
-264.0,-218.0,3.051
-70.0,-273.0,3.052
277.0,-192.0,3.053
548.0,-75.0,3.054
591.0,27.0,3.055
508.0,124.0,3.056
454.0,202.0,3.057
388.0,222.0,3.058
191.0,173.0,3.059
-91.0,106.0,3.06
-272.0,73.0,3.061
-294.0,84.0,3.062
-275.0,110.0,3.063
-290.0,139.0,3.064
-272.0,180.0,3.065
-173.0,234.0,3.066
-66.0,286.0,3.067
-40.0,308.0,3.068
-105.0,284.0,3.069
-221.0,227.0,3.07
-347.0,148.0,3.071
-432.0,45.0,3.072
-427.0,-66.0,3.073
-329.0,-134.0,3.074
-136.0,-128.0,3.075
156.0,-112.0,3.076
451.0,-157.0,3.077
598.0,-262.0,3.078
503.0,-337.0,3.079
296.0,-342.0,3.08
185.0,-309.0,3.081
179.0,-241.0,3.082
144.0,-111.0,3.083
56.0,65.0,3.084
15.0,240.0,3.085
40.0,375.0,3.086
44.0,433.0,3.087
-1.0,375.0,3.088
-23.0,231.0,3.089
3.0,122.0,3.09
5.0,105.0,3.091
-54.0,89.0,3.092
-122.0,-24.0,3.093
-157.0,-184.0,3.094
-192.0,-289.0,3.095
-231.0,-327.0,3.096
-198.0,-345.0,3.097
-45.0,-351.0,3.098
122.0,-316.0,3.099
148.0,-253.0,3.1
30.0,-191.0,3.101
-77.0,-105.0,3.102
-78.0,11.0,3.103
-26.0,111.0,3.104
0.0,170.0,3.105
28.0,204.0,3.106
96.0,212.0,3.107
151.0,160.0,3.108
130.0,72.0,3.109
78.0,31.0,3.11
63.0,44.0,3.111
40.0,31.0,3.112
-58.0,-26.0,3.113
-152.0,-46.0,3.114
-97.0,7.0,3.115
101.0,58.0,3.116
280.0,38.0,3.117
361.0,-53.0,3.118
367.0,-168.0,3.119
314.0,-279.0,3.12
155.0,-357.0,3.121
-122.0,-354.0,3.122
-417.0,-264.0,3.123
-603.0,-145.0,3.124
-628.0,-65.0,3.125
-527.0,-59.0,3.126
-409.0,-116.0,3.127
-367.0,-160.0,3.128
-356.0,-82.0,3.129
-232.0,144.0,3.13
14.0,399.0,3.131
211.0,526.0,3.132
255.0,501.0,3.133
255.0,422.0,3.134
294.0,350.0,3.135
280.0,253.0,3.136
168.0,120.0,3.137
70.0,-27.0,3.138
107.0,-129.0,3.139
188.0,-175.0,3.14
177.0,-199.0,3.141
115.0,-229.0,3.142
101.0,-265.0,3.143
99.0,-276.0,3.144
44.0,-224.0,3.145
-11.0,-116.0,3.146
-13.0,-8.0,3.147
-25.0,57.0,3.148
-87.0,84.0,3.149
-113.0,76.0,3.15
-51.0,32.0,3.151
-20.0,4.0,3.152
-121.0,85.0,3.153
-249.0,267.0,3.154
-215.0,406.0,3.155
-29.0,375.0,3.156
107.0,233.0,3.157
76.0,98.0,3.158
-41.0,35.0,3.159
-113.0,-13.0,3.16
-44.0,-119.0,3.161
57.0,-263.0,3.162
255.0,-389.0,3.163
403.0,-458.0,3.164
396.0,-453.0,3.165
339.0,-359.0,3.166
135.0,-184.0,3.167
-71.0,21.0,3.168
-284.0,170.0,3.169
-429.0,216.0,3.17
-367.0,196.0,3.171
-288.0,183.0,3.172
-157.0,198.0,3.173
-34.0,201.0,3.174
59.0,171.0,3.175
124.0,142.0,3.176
96.0,130.0,3.177
54.0,92.0,3.178
35.0,5.0,3.179
134.0,-91.0,3.18
199.0,-140.0,3.181
154.0,-127.0,3.182
122.0,-84.0,3.183
180.0,-40.0,3.184
196.0,-13.0,3.185
47.0,-13.0,3.186
-211.0,-34.0,3.187
-443.0,-57.0,3.188
-556.0,-66.0,3.189
-481.0,-45.0,3.19
-210.0,15.0,3.191
114.0,91.0,3.192
298.0,144.0,3.193
314.0,173.0,3.194
271.0,224.0,3.195
207.0,324.0,3.196
100.0,432.0,3.197
-25.0,512.0,3.198
-84.0,542.0,3.199
-129.0,501.0,3.2
-295.0,365.0,3.201
-537.0,168.0,3.202
-617.0,0.0,3.203
-399.0,-103.0,3.204
-20.0,-203.0,3.205
288.0,-368.0,3.206
437.0,-588.0,3.207
472.0,-819.0,3.208
427.0,-1018.0,3.209
273.0,-1105.0,3.21
6.0,-984.0,3.211
-253.0,-682.0,3.212
-358.0,-366.0,3.213
-309.0,-153.0,3.214
-250.0,3.0,3.215
-258.0,163.0,3.216
-258.0,270.0,3.217
-187.0,273.0,3.218
-101.0,247.0,3.219
-45.0,286.0,3.22
85.0,356.0,3.221
358.0,367.0,3.222
631.0,312.0,3.223
705.0,261.0,3.224
588.0,229.0,3.225
432.0,175.0,3.226
289.0,89.0,3.227
118.0,-4.0,3.228
-55.0,-96.0,3.229
-141.0,-176.0,3.23
-130.0,-209.0,3.231
-104.0,-167.0,3.232
-113.0,-57.0,3.233
-135.0,90.0,3.234
-141.0,233.0,3.235
-130.0,324.0,3.236
-103.0,350.0,3.237
-56.0,352.0,3.238
-8.0,375.0,3.239
-2.0,381.0,3.24
-50.0,307.0,3.241
-87.0,174.0,3.242
-49.0,46.0,3.243
34.0,-62.0,3.244
75.0,-196.0,3.245
62.0,-370.0,3.246
63.0,-535.0,3.247
104.0,-637.0,3.248
126.0,-655.0,3.249
90.0,-585.0,3.25
36.0,-437.0,3.251
-5.0,-260.0,3.252
-42.0,-103.0,3.253
-72.0,17.0,3.254
-104.0,118.0,3.255
-194.0,221.0,3.256
-334.0,326.0,3.257
-393.0,417.0,3.258
-227.0,473.0,3.259
51.0,520.0,3.26
186.0,592.0,3.261
128.0,665.0,3.262
49.0,648.0,3.263
5.0,509.0,3.264
-105.0,328.0,3.265
-261.0,172.0,3.266
-257.0,27.0,3.267
-24.0,-115.0,3.268
242.0,-217.0,3.269
354.0,-280.0,3.27
329.0,-376.0,3.271
238.0,-499.0,3.272
98.0,-534.0,3.273
-36.0,-445.0,3.274
-53.0,-344.0,3.275
34.0,-295.0,3.276
72.0,-219.0,3.277
-12.0,-50.0,3.278
-96.0,91.0,3.279
-92.0,61.0,3.28
-86.0,-84.0,3.281
-165.0,-163.0,3.282
-213.0,-110.0,3.283
-79.0,3.0,3.284
162.0,111.0,3.285
287.0,186.0,3.286
233.0,169.0,3.287
173.0,2.0,3.288
248.0,-246.0,3.289
375.0,-410.0,3.29
388.0,-394.0,3.291
289.0,-261.0,3.292
195.0,-120.0,3.293
132.0,1.0,3.294
1.0,124.0,3.295
-215.0,220.0,3.296
-383.0,227.0,3.297
-413.0,121.0,3.298
-344.0,-22.0,3.299
-291.0,-119.0,3.3
-279.0,-151.0,3.301
-249.0,-137.0,3.302
-169.0,-75.0,3.303
-82.0,38.0,3.304
-52.0,168.0,3.305
-78.0,264.0,3.306
-103.0,288.0,3.307
-85.0,227.0,3.308
-41.0,100.0,3.309
5.0,-20.0,3.31
80.0,-41.0,3.311
188.0,60.0,3.312
240.0,209.0,3.313
158.0,302.0,3.314
12.0,295.0,3.315
-49.0,230.0,3.316
-11.0,177.0,3.317
23.0,156.0,3.318
9.0,145.0,3.319
26.0,110.0,3.32
111.0,53.0,3.321
167.0,3.0,3.322
112.0,-49.0,3.323
14.0,-122.0,3.324
-20.0,-184.0,3.325
-5.0,-177.0,3.326
-43.0,-111.0,3.327
-170.0,-69.0,3.328
-302.0,-93.0,3.329
-350.0,-131.0,3.33
-305.0,-129.0,3.331
-225.0,-104.0,3.332
-155.0,-99.0,3.333
-73.0,-109.0,3.334
93.0,-88.0,3.335
370.0,7.0,3.336
658.0,185.0,3.337
821.0,416.0,3.338
739.0,559.0,3.339
431.0,493.0,3.34
47.0,272.0,3.341
-248.0,78.0,3.342
-348.0,-16.0,3.343
-235.0,-112.0,3.344
-5.0,-289.0,3.345
176.0,-482.0,3.346
191.0,-606.0,3.347
53.0,-690.0,3.348
-145.0,-780.0,3.349
-322.0,-817.0,3.35
-393.0,-713.0,3.351
-277.0,-493.0,3.352
-20.0,-251.0,3.353
185.0,-44.0,3.354
228.0,129.0,3.355
198.0,262.0,3.356
185.0,331.0,3.357
83.0,341.0,3.358
-190.0,320.0,3.359
-470.0,285.0,3.36
-517.0,240.0,3.361
-341.0,202.0,3.362
-108.0,182.0,3.363
117.0,181.0,3.364
325.0,191.0,3.365
418.0,204.0,3.366
328.0,216.0,3.367
167.0,234.0,3.368
70.0,274.0,3.369
26.0,327.0,3.37
-17.0,351.0,3.371
-34.0,319.0,3.372
-13.0,272.0,3.373
-19.0,265.0,3.374
-53.0,273.0,3.375
-42.0,208.0,3.376
13.0,64.0,3.377
25.0,-70.0,3.378
-47.0,-93.0,3.379
-139.0,-41.0,3.38
-183.0,-48.0,3.381
-166.0,-142.0,3.382
-84.0,-239.0,3.383
53.0,-272.0,3.384
164.0,-260.0,3.385
171.0,-222.0,3.386
107.0,-149.0,3.387
40.0,-81.0,3.388
-31.0,-104.0,3.389
-128.0,-203.0,3.39
-195.0,-247.0,3.391
-161.0,-193.0,3.392
-50.0,-158.0,3.393
60.0,-219.0,3.394
125.0,-281.0,3.395
125.0,-231.0,3.396
49.0,-123.0,3.397
-104.0,-48.0,3.398
-240.0,-11.0,3.399
-266.0,38.0,3.4
-179.0,71.0,3.401
-35.0,49.0,3.402
114.0,34.0,3.403
231.0,120.0,3.404
268.0,267.0,3.405
213.0,346.0,3.406
119.0,327.0,3.407
43.0,309.0,3.408
-16.0,332.0,3.409
-79.0,314.0,3.41
-135.0,187.0,3.411
-141.0,-4.0,3.412
-100.0,-174.0,3.413
-52.0,-323.0,3.414
-17.0,-477.0,3.415
25.0,-585.0,3.416
81.0,-558.0,3.417
117.0,-389.0,3.418
113.0,-190.0,3.419
109.0,-56.0,3.42
126.0,32.0,3.421
93.0,137.0,3.422
-46.0,253.0,3.423
-185.0,329.0,3.424
-166.0,342.0,3.425
-5.0,297.0,3.426
122.0,208.0,3.427
122.0,117.0,3.428
64.0,81.0,3.429
43.0,105.0,3.43
79.0,128.0,3.431
146.0,129.0,3.432
208.0,139.0,3.433
203.0,170.0,3.434
107.0,187.0,3.435
-24.0,187.0,3.436
-126.0,193.0,3.437
-204.0,167.0,3.438
-232.0,49.0,3.439
-169.0,-125.0,3.44
-54.0,-238.0,3.441
-27.0,-243.0,3.442
-144.0,-224.0,3.443
-292.0,-240.0,3.444
-352.0,-268.0,3.445
-297.0,-297.0,3.446
-107.0,-350.0,3.447
218.0,-401.0,3.448
521.0,-377.0,3.449
562.0,-269.0,3.45
340.0,-160.0,3.451
107.0,-98.0,3.452
25.0,-57.0,3.453
13.0,-10.0,3.454
-24.0,35.0,3.455
-51.0,91.0,3.456
-47.0,169.0,3.457
-71.0,248.0,3.458
-130.0,272.0,3.459
-143.0,230.0,3.46
-97.0,160.0,3.461
-83.0,94.0,3.462
-125.0,9.0,3.463
-154.0,-107.0,3.464
-150.0,-219.0,3.465
-178.0,-263.0,3.466
-210.0,-204.0,3.467
-131.0,-77.0,3.468
65.0,21.0,3.469
214.0,31.0,3.47
187.0,7.0,3.471
48.0,49.0,3.472
-42.0,147.0,3.473
-16.0,198.0,3.474
64.0,168.0,3.475
110.0,134.0,3.476
97.0,158.0,3.477
49.0,199.0,3.478
-11.0,196.0,3.479
-93.0,147.0,3.48
-169.0,88.0,3.481
-141.0,33.0,3.482
44.0,-31.0,3.483
262.0,-83.0,3.484
350.0,-92.0,3.485
319.0,-54.0,3.486
311.0,6.0,3.487
348.0,71.0,3.488
301.0,126.0,3.489
124.0,169.0,3.49
-66.0,198.0,3.491
-186.0,200.0,3.492
-257.0,152.0,3.493
-287.0,48.0,3.494
-251.0,-73.0,3.495
-192.0,-165.0,3.496
-168.0,-204.0,3.497
-129.0,-200.0,3.498
19.0,-163.0,3.499
191.0,-101.0,3.5
186.0,-34.0,3.501
-11.0,21.0,3.502
-176.0,42.0,3.503
-155.0,14.0,3.504
-61.0,-40.0,3.505
-50.0,-75.0,3.506
-79.0,-76.0,3.507
-6.0,-69.0,3.508
169.0,-64.0,3.509
314.0,-25.0,3.51
350.0,51.0,3.511
312.0,103.0,3.512
241.0,72.0,3.513
140.0,-8.0,3.514
34.0,-51.0,3.515
-42.0,-19.0,3.516
-92.0,58.0,3.517
-142.0,142.0,3.518
-172.0,189.0,3.519
-187.0,167.0,3.52
-255.0,77.0,3.521
-400.0,-16.0,3.522
-499.0,-64.0,3.523
-428.0,-76.0,3.524
-219.0,-103.0,3.525
6.0,-153.0,3.526
190.0,-180.0,3.527
309.0,-135.0,3.528
324.0,-26.0,3.529
247.0,86.0,3.53
158.0,154.0,3.531
96.0,178.0,3.532
31.0,190.0,3.533
-16.0,189.0,3.534
25.0,130.0,3.535
126.0,-7.0,3.536
156.0,-175.0,3.537
72.0,-333.0,3.538
-28.0,-452.0,3.539
-68.0,-542.0,3.54
-109.0,-607.0,3.541
-191.0,-592.0,3.542
-229.0,-442.0,3.543
-143.0,-173.0,3.544
5.0,109.0,3.545
90.0,297.0,3.546
84.0,369.0,3.547
49.0,386.0,3.548
27.0,386.0,3.549
7.0,340.0,3.55
-49.0,236.0,3.551
-136.0,129.0,3.552
-187.0,72.0,3.553
-129.0,37.0,3.554
33.0,-30.0,3.555
201.0,-120.0,3.556
290.0,-167.0,3.557
304.0,-147.0,3.558
289.0,-92.0,3.559
242.0,-42.0,3.56
148.0,4.0,3.561
28.0,76.0,3.562
-87.0,167.0,3.563
-198.0,225.0,3.564
-288.0,220.0,3.565
-291.0,168.0,3.566
-185.0,102.0,3.567
-64.0,27.0,3.568
-18.0,-87.0,3.569
-12.0,-235.0,3.57
34.0,-351.0,3.571
109.0,-354.0,3.572
147.0,-249.0,3.573
125.0,-117.0,3.574
61.0,-20.0,3.575
-21.0,59.0,3.576
-80.0,162.0,3.577
-91.0,286.0,3.578
-69.0,359.0,3.579
-61.0,338.0,3.58
-47.0,256.0,3.581
23.0,190.0,3.582
126.0,163.0,3.583
169.0,134.0,3.584
134.0,65.0,3.585
91.0,-12.0,3.586
60.0,-46.0,3.587
-13.0,-31.0,3.588
-134.0,-11.0,3.589
-213.0,0.0,3.59
-182.0,38.0,3.591
-73.0,110.0,3.592
39.0,169.0,3.593
111.0,179.0,3.594
137.0,165.0,3.595
117.0,142.0,3.596
57.0,70.0,3.597
-34.0,-100.0,3.598
-102.0,-289.0,3.599
-95.0,-379.0,3.6
-16.0,-362.0,3.601
61.0,-322.0,3.602
92.0,-314.0,3.603
92.0,-311.0,3.604
95.0,-292.0,3.605
86.0,-270.0,3.606
37.0,-239.0,3.607
-29.0,-167.0,3.608
-64.0,-63.0,3.609
-65.0,35.0,3.61
-77.0,117.0,3.611
-111.0,199.0,3.612
-92.0,256.0,3.613
35.0,248.0,3.614
203.0,193.0,3.615
270.0,149.0,3.616
206.0,123.0,3.617
82.0,78.0,3.618
-10.0,12.0,3.619
-59.0,-49.0,3.62
-63.0,-112.0,3.621
2.0,-183.0,3.622
106.0,-245.0,3.623
141.0,-263.0,3.624
57.0,-219.0,3.625
-49.0,-108.0,3.626
-80.0,67.0,3.627
-66.0,235.0,3.628
-86.0,295.0,3.629
-134.0,231.0,3.63
-150.0,127.0,3.631
-119.0,55.0,3.632
-71.0,3.0,3.633
-24.0,-45.0,3.634
0.0,-59.0,3.635
-18.0,-20.0,3.636
-49.0,28.0,3.637
-36.0,50.0,3.638
17.0,72.0,3.639
17.0,128.0,3.64
-79.0,175.0,3.641
-180.0,151.0,3.642
-178.0,69.0,3.643
-95.0,14.0,3.644
-31.0,31.0,3.645
-30.0,83.0,3.646
-66.0,112.0,3.647
-109.0,106.0,3.648
-121.0,78.0,3.649
-56.0,36.0,3.65
57.0,-1.0,3.651
128.0,-21.0,3.652
118.0,-45.0,3.653
109.0,-101.0,3.654
176.0,-173.0,3.655
271.0,-213.0,3.656
309.0,-215.0,3.657
267.0,-216.0,3.658
181.0,-227.0,3.659
85.0,-215.0,3.66
8.0,-171.0,3.661
-37.0,-112.0,3.662
-74.0,-63.0,3.663
-135.0,-20.0,3.664
-184.0,21.0,3.665
-166.0,65.0,3.666
-104.0,106.0,3.667
-82.0,125.0,3.668
-94.0,92.0,3.669
-51.0,28.0,3.67
60.0,-4.0,3.671
138.0,11.0,3.672
117.0,12.0,3.673
48.0,-44.0,3.674
-2.0,-107.0,3.675
-21.0,-93.0,3.676
3.0,-9.0,3.677
81.0,78.0,3.678
166.0,112.0,3.679
172.0,105.0,3.68
103.0,99.0,3.681
41.0,132.0,3.682
18.0,207.0,3.683
-23.0,307.0,3.684
-85.0,376.0,3.685
-100.0,345.0,3.686
-54.0,198.0,3.687
-29.0,28.0,3.688
-62.0,-49.0,3.689
-75.0,-17.0,3.69
-1.0,22.0,3.691
111.0,-24.0,3.692
184.0,-154.0,3.693
206.0,-303.0,3.694
184.0,-420.0,3.695
80.0,-464.0,3.696
-96.0,-409.0,3.697
-277.0,-276.0,3.698
-339.0,-137.0,3.699
-267.0,-46.0,3.7
-134.0,26.0,3.701
10.0,115.0,3.702
122.0,186.0,3.703
135.0,207.0,3.704
38.0,220.0,3.705
-56.0,257.0,3.706
-54.0,255.0,3.707
-4.0,142.0,3.708
10.0,-30.0,3.709
22.0,-144.0,3.71
96.0,-172.0,3.711
166.0,-188.0,3.712
140.0,-232.0,3.713
70.0,-246.0,3.714
50.0,-175.0,3.715
50.0,-36.0,3.716
-12.0,107.0,3.717
-122.0,225.0,3.718
-167.0,299.0,3.719
-127.0,321.0,3.72
-62.0,290.0,3.721
0.0,207.0,3.722
56.0,77.0,3.723
76.0,-48.0,3.724
56.0,-114.0,3.725
47.0,-123.0,3.726
55.0,-136.0,3.727
19.0,-185.0,3.728
-58.0,-236.0,3.729
-92.0,-256.0,3.73
-72.0,-240.0,3.731
-94.0,-199.0,3.732
-169.0,-146.0,3.733
-178.0,-107.0,3.734
-78.0,-79.0,3.735
11.0,-14.0,3.736
29.0,104.0,3.737
72.0,237.0,3.738
208.0,302.0,3.739
316.0,289.0,3.74
251.0,255.0,3.741
68.0,229.0,3.742
-65.0,174.0,3.743
-103.0,71.0,3.744
-117.0,-48.0,3.745
-123.0,-141.0,3.746
-80.0,-198.0,3.747
-17.0,-224.0,3.748
-12.0,-216.0,3.749
-54.0,-171.0,3.75
-58.0,-100.0,3.751
-7.0,-34.0,3.752
29.0,1.0,3.753
27.0,10.0,3.754
35.0,28.0,3.755
67.0,72.0,3.756
81.0,116.0,3.757
37.0,116.0,3.758
-38.0,79.0,3.759
-108.0,48.0,3.76
-136.0,40.0,3.761
-123.0,26.0,3.762
-105.0,1.0,3.763
-114.0,20.0,3.764
-103.0,97.0,3.765
-9.0,169.0,3.766
122.0,168.0,3.767
179.0,117.0,3.768
148.0,94.0,3.769
122.0,116.0,3.77
141.0,133.0,3.771
144.0,96.0,3.772
91.0,20.0,3.773
25.0,-55.0,3.774
-14.0,-118.0,3.775
-21.0,-178.0,3.776
-12.0,-237.0,3.777
-3.0,-294.0,3.778
-22.0,-333.0,3.779
-50.0,-337.0,3.78
-17.0,-284.0,3.781
75.0,-164.0,3.782
123.0,-30.0,3.783
69.0,52.0,3.784
-19.0,97.0,3.785
-83.0,172.0,3.786
-138.0,255.0,3.787
-190.0,244.0,3.788
-200.0,129.0,3.789
-176.0,31.0,3.79
-155.0,42.0,3.791
-82.0,107.0,3.792
118.0,131.0,3.793
347.0,105.0,3.794
390.0,56.0,3.795
227.0,-18.0,3.796
75.0,-116.0,3.797
59.0,-205.0,3.798
87.0,-246.0,3.799
24.0,-253.0,3.8
-77.0,-242.0,3.801
-83.0,-171.0,3.802
9.0,-34.0,3.803
73.0,114.0,3.804
34.0,234.0,3.805
-50.0,369.0,3.806
-88.0,525.0,3.807
-77.0,604.0,3.808
-83.0,523.0,3.809
-127.0,358.0,3.81
-167.0,226.0,3.811
-156.0,111.0,3.812
-93.0,-84.0,3.813
-11.0,-352.0,3.814
71.0,-564.0,3.815
140.0,-660.0,3.816
178.0,-691.0,3.817
183.0,-716.0,3.818
155.0,-701.0,3.819
83.0,-599.0,3.82
-32.0,-426.0,3.821
-137.0,-229.0,3.822
-184.0,-36.0,3.823
-210.0,142.0,3.824
-275.0,289.0,3.825
-309.0,382.0,3.826
-189.0,414.0,3.827
50.0,400.0,3.828
207.0,346.0,3.829
199.0,252.0,3.83
177.0,137.0,3.831
257.0,53.0,3.832
329.0,26.0,3.833
283.0,11.0,3.834
218.0,-39.0,3.835
254.0,-85.0,3.836
306.0,-52.0,3.837
210.0,58.0,3.838
-33.0,150.0,3.839
-303.0,155.0,3.84
-530.0,102.0,3.841
-678.0,61.0,3.842
-643.0,33.0,3.843
-394.0,5.0,3.844
-104.0,-9.0,3.845
36.0,18.0,3.846
64.0,90.0,3.847
105.0,169.0,3.848
133.0,213.0,3.849
62.0,198.0,3.85
-18.0,141.0,3.851
59.0,88.0,3.852
245.0,49.0,3.853
324.0,-5.0,3.854
244.0,-80.0,3.855
170.0,-112.0,3.856
190.0,-55.0,3.857
200.0,57.0,3.858
98.0,132.0,3.859
-39.0,117.0,3.86
-65.0,45.0,3.861
6.0,-15.0,3.862
32.0,-42.0,3.863
-40.0,-64.0,3.864
-121.0,-119.0,3.865
-126.0,-197.0,3.866
-73.0,-244.0,3.867
-27.0,-225.0,3.868
-20.0,-159.0,3.869
-48.0,-80.0,3.87
-86.0,6.0,3.871
-98.0,97.0,3.872
-66.0,151.0,3.873
-14.0,148.0,3.874
27.0,122.0,3.875
69.0,119.0,3.876
124.0,126.0,3.877
166.0,90.0,3.878
153.0,-16.0,3.879
90.0,-179.0,3.88
24.0,-372.0,3.881
-15.0,-545.0,3.882
-42.0,-641.0,3.883
-87.0,-608.0,3.884
-135.0,-449.0,3.885
-135.0,-236.0,3.886
-63.0,-58.0,3.887
31.0,43.0,3.888
70.0,82.0,3.889
41.0,89.0,3.89
6.0,100.0,3.891
-3.0,153.0,3.892
0.0,270.0,3.893
1.0,411.0,3.894
-1.0,481.0,3.895
-31.0,429.0,3.896
-97.0,298.0,3.897
-196.0,132.0,3.898
-281.0,-17.0,3.899
-304.0,-117.0,3.9
-197.0,-142.0,3.901
64.0,-97.0,3.902
360.0,-50.0,3.903
492.0,-47.0,3.904
395.0,-58.0,3.905
195.0,-28.0,3.906
28.0,40.0,3.907
-79.0,97.0,3.908
-131.0,121.0,3.909
-99.0,114.0,3.91
-10.0,67.0,3.911
47.0,-12.0,3.912
49.0,-79.0,3.913
57.0,-99.0,3.914
79.0,-101.0,3.915
50.0,-135.0,3.916
-31.0,-180.0,3.917
-89.0,-188.0,3.918
-70.0,-136.0,3.919
-39.0,-64.0,3.92
-53.0,-9.0,3.921
-75.0,43.0,3.922
-55.0,106.0,3.923
-32.0,170.0,3.924
-56.0,214.0,3.925
-91.0,233.0,3.926
-83.0,234.0,3.927
-43.0,219.0,3.928
-15.0,194.0,3.929
12.0,166.0,3.93
65.0,143.0,3.931
121.0,116.0,3.932
139.0,76.0,3.933
126.0,24.0,3.934
120.0,-23.0,3.935
119.0,-53.0,3.936
97.0,-71.0,3.937
42.0,-86.0,3.938
-11.0,-95.0,3.939
-38.0,-102.0,3.94
-61.0,-98.0,3.941
-108.0,-95.0,3.942
-153.0,-96.0,3.943
-145.0,-91.0,3.944
-89.0,-64.0,3.945
-48.0,-40.0,3.946
-44.0,-24.0,3.947
-27.0,-15.0,3.948
26.0,-27.0,3.949
67.0,-44.0,3.95
63.0,-74.0,3.951
56.0,-92.0,3.952
78.0,-74.0,3.953
96.0,-52.0,3.954
78.0,-22.0,3.955
54.0,4.0,3.956
49.0,20.0,3.957
42.0,34.0,3.958
11.0,40.0,3.959
-21.0,39.0,3.96
-29.0,36.0,3.961
-33.0,38.0,3.962
-43.0,36.0,3.963
-41.0,29.0,3.964
-25.0,18.0,3.965
-24.0,7.0,3.966
-36.0,0.0,3.967
-30.0,0.0,3.968
-2.0,3.0,3.969
18.0,5.0,3.97
18.0,4.0,3.971
20.0,4.0,3.972
30.0,10.0,3.973
31.0,17.0,3.974
20.0,16.0,3.975
15.0,7.0,3.976
14.0,-3.0,3.977
3.0,-9.0,3.978
-16.0,-10.0,3.979
-27.0,-11.0,3.98
-28.0,-20.0,3.981
-31.0,-25.0,3.982
-37.0,-22.0,3.983
-31.0,-17.0,3.984
-19.0,-18.0,3.985
-15.0,-18.0,3.986
-15.0,-13.0,3.987
-5.0,-8.0,3.988
13.0,-4.0,3.989
25.0,-1.0,3.99
30.0,1.0,3.991
38.0,0.0,3.992
48.0,1.0,3.993
51.0,7.0,3.994
47.0,11.0,3.995
38.0,6.0,3.996
24.0,-1.0,3.997
1.0,-5.0,3.998
-12.0,-3.0,3.999
-16.0,-7.0,4.0
-23.0,-17.0,4.001
-38.0,-20.0,4.002
-48.0,-13.0,4.003
-46.0,-7.0,4.004
-40.0,-7.0,4.005
-35.0,-7.0,4.006
-23.0,-6.0,4.007
-4.0,-1.0,4.008
13.0,6.0,4.009
24.0,15.0,4.01
31.0,20.0,4.011
39.0,14.0,4.012
40.0,8.0,4.013
35.0,5.0,4.014
30.0,9.0,4.015
27.0,7.0,4.016
21.0,1.0,4.017
3.0,-4.0,4.018
-13.0,-6.0,4.019
-27.0,-6.0,4.02
-40.0,-14.0,4.021
-49.0,-19.0,4.022
-49.0,-12.0,4.023
-38.0,2.0,4.024
-24.0,14.0,4.025
-19.0,11.0,4.026
-13.0,0.0,4.027
-7.0,-8.0,4.028
-1.0,-9.0,4.029
0.0,-7.0,4.03
0.0,-3.0,4.031
6.0,2.0,4.032
17.0,7.0,4.033
23.0,10.0,4.034
24.0,7.0,4.035
19.0,3.0,4.036
15.0,1.0,4.037
6.0,-3.0,4.038
-5.0,-5.0,4.039
-16.0,-7.0,4.04
-26.0,-8.0,4.041
-26.0,-10.0,4.042
-13.0,-10.0,4.043
8.0,-8.0,4.044
18.0,-2.0,4.045
9.0,1.0,4.046
-1.0,0.0,4.047
3.0,-2.0,4.048
13.0,-2.0,4.049
17.0,-2.0,4.05
17.0,-2.0,4.051
25.0,-1.0,4.052
40.0,1.0,4.053
47.0,5.0,4.054
45.0,10.0,4.055
36.0,13.0,4.056
21.0,11.0,4.057
-1.0,7.0,4.058
-19.0,0.0,4.059
-35.0,-3.0,4.06
-39.0,-5.0,4.061
-43.0,-6.0,4.062
-44.0,-9.0,4.063
-43.0,-10.0,4.064
-32.0,-6.0,4.065
-21.0,1.0,4.066
-13.0,5.0,4.067
-2.0,3.0,4.068
11.0,-1.0,4.069
23.0,0.0,4.07
21.0,8.0,4.071
22.0,24.0,4.072
31.0,39.0,4.073
37.0,42.0,4.074
34.0,28.0,4.075
29.0,9.0,4.076
19.0,-3.0,4.077
8.0,-13.0,4.078
-2.0,-25.0,4.079
-16.0,-41.0,4.08
-29.0,-54.0,4.081
-44.0,-53.0,4.082
-58.0,-39.0,4.083
-74.0,-15.0,4.084
-89.0,12.0,4.085
-88.0,32.0,4.086
-60.0,38.0,4.087
-18.0,39.0,4.088
12.0,40.0,4.089
25.0,36.0,4.09
38.0,23.0,4.091
59.0,6.0,4.092
78.0,-2.0,4.093
83.0,-3.0,4.094
80.0,-8.0,4.095
69.0,-14.0,4.096
41.0,-14.0,4.097
-13.0,-13.0,4.098
-78.0,-20.0,4.099
-126.0,-27.0,4.1
-132.0,-29.0,4.101
-81.0,-17.0,4.102
6.0,0.0,4.103
81.0,15.0,4.104
105.0,22.0,4.105
93.0,14.0,4.106
88.0,0.0,4.107
89.0,-6.0,4.108
63.0,10.0,4.109
16.0,36.0,4.11
-15.0,39.0,4.111
-18.0,12.0,4.112
-25.0,-10.0,4.113
-50.0,-6.0,4.114
-65.0,4.0,4.115
-49.0,-4.0,4.116
-23.0,-20.0,4.117
-12.0,-31.0,4.118
-6.0,-31.0,4.119
-2.0,-31.0,4.12
-6.0,-29.0,4.121
-19.0,-28.0,4.122
-24.0,-28.0,4.123
-20.0,-25.0,4.124
-16.0,-18.0,4.125
-11.0,-2.0,4.126
6.0,42.0,4.127
28.0,76.0,4.128
34.0,76.0,4.129
29.0,62.0,4.13
29.0,12.0,4.131
23.0,-25.0,4.132
-5.0,-22.0,4.133
-33.0,-18.0,4.134
-28.0,-12.0,4.135
4.0,-10.0,4.136
21.0,-18.0,4.137
-16.0,-19.0,4.138
-91.0,1.0,4.139
-154.0,15.0,4.14
-179.0,18.0,4.141
-158.0,22.0,4.142
2.0,10.0,4.143
145.0,-19.0,4.144
238.0,-39.0,4.145
307.0,-29.0,4.146
301.0,-7.0,4.147
268.0,1.0,4.148
152.0,0.0,4.149
45.0,0.0,4.15
-36.0,3.0,4.151
-102.0,3.0,4.152
-120.0,3.0,4.153
-126.0,0.0,4.154
-90.0,-9.0,4.155
-41.0,-19.0,4.156
40.0,-11.0,4.157
113.0,7.0,4.158
127.0,8.0,4.159
93.0,-16.0,4.16
10.0,-42.0,4.161
-86.0,-39.0,4.162
-133.0,-23.0,4.163
-112.0,-15.0,4.164
-69.0,-4.0,4.165
-45.0,26.0,4.166
-29.0,59.0,4.167
-10.0,65.0,4.168
-1.0,40.0,4.169
-5.0,7.0,4.17
4.0,-14.0,4.171
41.0,-18.0,4.172
66.0,-9.0,4.173
43.0,7.0,4.174
-7.0,12.0,4.175
-42.0,6.0,4.176
-46.0,2.0,4.177
-39.0,10.0,4.178
-37.0,27.0,4.179
-38.0,36.0,4.18
-37.0,27.0,4.181
-24.0,7.0,4.182
14.0,-14.0,4.183
75.0,-31.0,4.184
125.0,-37.0,4.185
130.0,-30.0,4.186
89.0,-10.0,4.187
30.0,18.0,4.188
-19.0,36.0,4.189
-41.0,25.0,4.19
-14.0,-8.0,4.191
52.0,-31.0,4.192
121.0,-27.0,4.193
160.0,-13.0,4.194
174.0,-7.0,4.195
173.0,-10.0,4.196
153.0,-5.0,4.197
99.0,5.0,4.198
39.0,16.0,4.199
-2.0,30.0,4.2
-33.0,38.0,4.201
-64.0,42.0,4.202
-72.0,45.0,4.203
-34.0,52.0,4.204
22.0,52.0,4.205
51.0,35.0,4.206
39.0,5.0,4.207
8.0,-23.0,4.208
-23.0,-51.0,4.209
-38.0,-87.0,4.21
-31.0,-120.0,4.211
-16.0,-130.0,4.212
-4.0,-121.0,4.213
18.0,-112.0,4.214
55.0,-108.0,4.215
68.0,-96.0,4.216
32.0,-63.0,4.217
-27.0,-11.0,4.218
-39.0,53.0,4.219
-12.0,117.0,4.22
0.0,155.0,4.221
-16.0,156.0,4.222
-24.0,128.0,4.223
-22.0,100.0,4.224
-34.0,93.0,4.225
-56.0,91.0,4.226
-43.0,78.0,4.227
2.0,59.0,4.228
31.0,55.0,4.229
7.0,66.0,4.23
-45.0,63.0,4.231
-97.0,23.0,4.232
-125.0,-42.0,4.233
-101.0,-91.0,4.234
-17.0,-109.0,4.235
88.0,-111.0,4.236
156.0,-111.0,4.237
175.0,-113.0,4.238
159.0,-120.0,4.239
106.0,-146.0,4.24
23.0,-184.0,4.241
-50.0,-190.0,4.242
-73.0,-152.0,4.243
-65.0,-99.0,4.244
-70.0,-69.0,4.245
-91.0,-52.0,4.246
-87.0,-22.0,4.247
-46.0,27.0,4.248
-2.0,79.0,4.249
14.0,116.0,4.25
7.0,140.0,4.251
1.0,158.0,4.252
5.0,179.0,4.253
6.0,191.0,4.254
-3.0,174.0,4.255
-16.0,128.0,4.256
-24.0,87.0,4.257
-36.0,75.0,4.258
-62.0,87.0,4.259
-97.0,92.0,4.26
-114.0,68.0,4.261
-96.0,24.0,4.262
-57.0,-34.0,4.263
-20.0,-92.0,4.264
0.0,-122.0,4.265
-1.0,-121.0,4.266
-17.0,-109.0,4.267
-41.0,-104.0,4.268
-61.0,-96.0,4.269
-62.0,-70.0,4.27
-42.0,-24.0,4.271
0.0,33.0,4.272
58.0,81.0,4.273
119.0,95.0,4.274
167.0,61.0,4.275
193.0,-8.0,4.276
192.0,-82.0,4.277
150.0,-166.0,4.278
88.0,-244.0,4.279
39.0,-284.0,4.28
25.0,-261.0,4.281
14.0,-186.0,4.282
11.0,-99.0,4.283
1.0,-17.0,4.284
-28.0,71.0,4.285
-54.0,155.0,4.286
-72.0,200.0,4.287
-90.0,197.0,4.288
-102.0,172.0,4.289
-105.0,150.0,4.29
-81.0,130.0,4.291
-48.0,110.0,4.292
5.0,101.0,4.293
42.0,109.0,4.294
20.0,118.0,4.295
-3.0,119.0,4.296
-32.0,123.0,4.297
-66.0,135.0,4.298
-116.0,147.0,4.299
-153.0,136.0,4.3
-170.0,99.0,4.301
-172.0,59.0,4.302
-143.0,28.0,4.303
-86.0,17.0,4.304
-50.0,23.0,4.305
-61.0,24.0,4.306
-79.0,-3.0,4.307
-55.0,-55.0,4.308
-9.0,-111.0,4.309
3.0,-156.0,4.31
-10.0,-203.0,4.311
0.0,-260.0,4.312
35.0,-307.0,4.313
52.0,-322.0,4.314
43.0,-311.0,4.315
44.0,-297.0,4.316
66.0,-280.0,4.317
92.0,-235.0,4.318
105.0,-140.0,4.319
112.0,-17.0,4.32
115.0,91.0,4.321
103.0,170.0,4.322
86.0,225.0,4.323
78.0,269.0,4.324
69.0,298.0,4.325
42.0,304.0,4.326
24.0,291.0,4.327
45.0,277.0,4.328
82.0,264.0,4.329
98.0,212.0,4.33
91.0,100.0,4.331
92.0,-40.0,4.332
96.0,-136.0,4.333
77.0,-173.0,4.334
37.0,-198.0,4.335
8.0,-239.0,4.336
-3.0,-266.0,4.337
-17.0,-251.0,4.338
-42.0,-214.0,4.339
-64.0,-197.0,4.34
-75.0,-193.0,4.341
-79.0,-167.0,4.342
-82.0,-128.0,4.343
-85.0,-109.0,4.344
-87.0,-108.0,4.345
-83.0,-90.0,4.346
-51.0,-41.0,4.347
9.0,18.0,4.348
69.0,78.0,4.349
105.0,134.0,4.35
129.0,168.0,4.351
159.0,162.0,4.352
171.0,135.0,4.353
146.0,124.0,4.354
101.0,140.0,4.355
70.0,165.0,4.356
61.0,188.0,4.357
49.0,195.0,4.358
26.0,176.0,4.359
1.0,131.0,4.36
-16.0,83.0,4.361
-27.0,61.0,4.362
-41.0,49.0,4.363
-59.0,27.0,4.364
-79.0,4.0,4.365
-95.0,2.0,4.366
-100.0,20.0,4.367
-99.0,29.0,4.368
-96.0,7.0,4.369
-80.0,-32.0,4.37
-41.0,-60.0,4.371
7.0,-61.0,4.372
43.0,-43.0,4.373
66.0,-28.0,4.374
93.0,-27.0,4.375
116.0,-36.0,4.376
111.0,-40.0,4.377
66.0,-38.0,4.378
3.0,-26.0,4.379
-53.0,-7.0,4.38
-83.0,5.0,4.381
-70.0,15.0,4.382
-19.0,31.0,4.383
30.0,52.0,4.384
46.0,61.0,4.385
49.0,52.0,4.386
74.0,56.0,4.387
102.0,98.0,4.388
98.0,155.0,4.389
75.0,185.0,4.39
56.0,168.0,4.391
25.0,114.0,4.392
-40.0,30.0,4.393
-98.0,-77.0,4.394
-82.0,-176.0,4.395
-13.0,-239.0,4.396
30.0,-260.0,4.397
14.0,-251.0,4.398
-18.0,-221.0,4.399
-41.0,-196.0,4.4
-67.0,-211.0,4.401
-96.0,-268.0,4.402
-103.0,-326.0,4.403
-88.0,-331.0,4.404
-87.0,-266.0,4.405
-104.0,-156.0,4.406
-105.0,-37.0,4.407
-75.0,63.0,4.408
-39.0,134.0,4.409
-17.0,175.0,4.41
7.0,190.0,4.411
36.0,178.0,4.412
54.0,138.0,4.413
56.0,87.0,4.414
46.0,54.0,4.415
28.0,59.0,4.416
0.0,94.0,4.417
-34.0,140.0,4.418
-57.0,181.0,4.419
-69.0,204.0,4.42
-77.0,208.0,4.421
-82.0,207.0,4.422
-81.0,196.0,4.423
-70.0,155.0,4.424
-47.0,67.0,4.425
-5.0,-45.0,4.426
49.0,-143.0,4.427
92.0,-198.0,4.428
109.0,-210.0,4.429
109.0,-195.0,4.43
102.0,-166.0,4.431
86.0,-124.0,4.432
66.0,-73.0,4.433
58.0,-22.0,4.434
59.0,22.0,4.435
49.0,49.0,4.436
26.0,59.0,4.437
11.0,55.0,4.438
8.0,53.0,4.439
-2.0,52.0,4.44
-26.0,44.0,4.441
-42.0,31.0,4.442
-35.0,22.0,4.443
-25.0,23.0,4.444
-36.0,30.0,4.445
-64.0,34.0,4.446
-81.0,34.0,4.447
-66.0,33.0,4.448
-16.0,30.0,4.449
53.0,26.0,4.45
114.0,16.0,4.451
148.0,2.0,4.452
163.0,-8.0,4.453
165.0,-6.0,4.454
147.0,5.0,4.455
99.0,9.0,4.456
42.0,1.0,4.457
-12.0,-13.0,4.458
-51.0,-12.0,4.459
-62.0,4.0,4.46
-32.0,20.0,4.461
25.0,25.0,4.462
63.0,19.0,4.463
56.0,10.0,4.464
35.0,7.0,4.465
42.0,23.0,4.466
72.0,58.0,4.467
90.0,83.0,4.468
81.0,68.0,4.469
58.0,12.0,4.47
36.0,-41.0,4.471
11.0,-51.0,4.472
-14.0,-14.0,4.473
-26.0,36.0,4.474
-32.0,58.0,4.475
-43.0,44.0,4.476
-62.0,15.0,4.477
-76.0,-17.0,4.478
-69.0,-60.0,4.479
-55.0,-128.0,4.48
-48.0,-216.0,4.481
-42.0,-286.0,4.482
-27.0,-312.0,4.483
-23.0,-298.0,4.484
-40.0,-259.0,4.485
-57.0,-200.0,4.486
-33.0,-123.0,4.487
20.0,-38.0,4.488
52.0,40.0,4.489
51.0,99.0,4.49
67.0,140.0,4.491
121.0,157.0,4.492
177.0,150.0,4.493
184.0,128.0,4.494
157.0,101.0,4.495
131.0,64.0,4.496
114.0,20.0,4.497
78.0,-30.0,4.498
23.0,-67.0,4.499
-35.0,-71.0,4.5
-87.0,-42.0,4.501
-135.0,19.0,4.502
-175.0,92.0,4.503
-205.0,140.0,4.504
-237.0,130.0,4.505
-272.0,78.0,4.506
-293.0,39.0,4.507
-282.0,52.0,4.508
-241.0,92.0,4.509
-178.0,101.0,4.51
-99.0,71.0,4.511
-14.0,46.0,4.512
48.0,62.0,4.513
66.0,95.0,4.514
32.0,106.0,4.515
-36.0,98.0,4.516
-94.0,100.0,4.517
-108.0,114.0,4.518
-69.0,121.0,4.519
-20.0,107.0,4.52
7.0,72.0,4.521
31.0,26.0,4.522
77.0,-33.0,4.523
110.0,-105.0,4.524
87.0,-181.0,4.525
42.0,-251.0,4.526
48.0,-308.0,4.527
104.0,-345.0,4.528
133.0,-349.0,4.529
112.0,-313.0,4.53
99.0,-230.0,4.531
126.0,-116.0,4.532
140.0,-4.0,4.533
93.0,81.0,4.534
19.0,141.0,4.535
-15.0,188.0,4.536
-11.0,224.0,4.537
-7.0,247.0,4.538
-19.0,259.0,4.539
-24.0,255.0,4.54
-14.0,213.0,4.541
-10.0,126.0,4.542
-29.0,16.0,4.543
-57.0,-73.0,4.544
-73.0,-132.0,4.545
-73.0,-174.0,4.546
-74.0,-218.0,4.547
-88.0,-253.0,4.548
-111.0,-250.0,4.549
-126.0,-188.0,4.55
-110.0,-96.0,4.551
-53.0,-18.0,4.552
25.0,22.0,4.553
88.0,46.0,4.554
109.0,66.0,4.555
101.0,79.0,4.556
99.0,79.0,4.557
110.0,73.0,4.558
116.0,76.0,4.559
100.0,84.0,4.56
72.0,85.0,4.561
45.0,90.0,4.562
13.0,100.0,4.563
-30.0,104.0,4.564
-68.0,94.0,4.565
-71.0,86.0,4.566
-38.0,95.0,4.567
5.0,113.0,4.568
32.0,117.0,4.569
45.0,104.0,4.57
49.0,83.0,4.571
42.0,57.0,4.572
25.0,8.0,4.573
5.0,-78.0,4.574
-4.0,-185.0,4.575
-6.0,-262.0,4.576
-7.0,-275.0,4.577
-19.0,-242.0,4.578
-32.0,-189.0,4.579
-47.0,-134.0,4.58
-61.0,-75.0,4.581
-66.0,-13.0,4.582
-55.0,36.0,4.583
-27.0,61.0,4.584
3.0,63.0,4.585
28.0,50.0,4.586
46.0,30.0,4.587
57.0,14.0,4.588
55.0,7.0,4.589
46.0,-3.0,4.59
48.0,-18.0,4.591
72.0,-24.0,4.592
94.0,-13.0,4.593
99.0,3.0,4.594
89.0,18.0,4.595
73.0,34.0,4.596
51.0,50.0,4.597
19.0,53.0,4.598
-12.0,44.0,4.599
-36.0,33.0,4.6
-58.0,30.0,4.601
-76.0,31.0,4.602
-80.0,25.0,4.603
-71.0,16.0,4.604
-64.0,12.0,4.605
-59.0,11.0,4.606
-43.0,9.0,4.607
-9.0,4.0,4.608
27.0,3.0,4.609
46.0,7.0,4.61
59.0,12.0,4.611
73.0,14.0,4.612
82.0,12.0,4.613
79.0,14.0,4.614
69.0,19.0,4.615
58.0,23.0,4.616
45.0,20.0,4.617
17.0,8.0,4.618
-13.0,0.0,4.619
-31.0,-3.0,4.62
-37.0,-11.0,4.621
-46.0,-23.0,4.622
-62.0,-33.0,4.623
-72.0,-41.0,4.624
-73.0,-45.0,4.625
-71.0,-47.0,4.626
-68.0,-41.0,4.627
-55.0,-27.0,4.628
-36.0,-11.0,4.629
-20.0,0.0,4.63
-8.0,5.0,4.631
7.0,0.0,4.632
29.0,-10.0,4.633
56.0,-6.0,4.634
79.0,21.0,4.635
87.0,53.0,4.636
73.0,64.0,4.637
37.0,48.0,4.638
-1.0,28.0,4.639
-36.0,13.0,4.64
-72.0,-2.0,4.641
-101.0,-12.0,4.642
-111.0,-7.0,4.643
-98.0,10.0,4.644
-79.0,15.0,4.645
-52.0,-4.0,4.646
-8.0,-36.0,4.647
40.0,-56.0,4.648
63.0,-59.0,4.649
58.0,-58.0,4.65
58.0,-59.0,4.651
82.0,-55.0,4.652
116.0,-35.0,4.653
149.0,-2.0,4.654
178.0,30.0,4.655
190.0,48.0,4.656
172.0,54.0,4.657
119.0,43.0,4.658
52.0,29.0,4.659
-10.0,14.0,4.66
-51.0,1.0,4.661
-65.0,-7.0,4.662
-60.0,-10.0,4.663
-67.0,-9.0,4.664
-109.0,-2.0,4.665
-162.0,3.0,4.666
-181.0,7.0,4.667
-151.0,13.0,4.668
-89.0,23.0,4.669
-24.0,19.0,4.67
27.0,-3.0,4.671
58.0,-37.0,4.672
73.0,-64.0,4.673
81.0,-73.0,4.674
79.0,-61.0,4.675
62.0,-35.0,4.676
35.0,-7.0,4.677
-2.0,13.0,4.678
-48.0,22.0,4.679
-100.0,19.0,4.68
-135.0,9.0,4.681
-144.0,2.0,4.682
-141.0,3.0,4.683
-145.0,9.0,4.684
-149.0,13.0,4.685
-132.0,11.0,4.686
-91.0,8.0,4.687
-40.0,4.0,4.688
6.0,1.0,4.689
41.0,0.0,4.69
61.0,7.0,4.691
68.0,15.0,4.692
79.0,15.0,4.693
108.0,11.0,4.694
147.0,9.0,4.695
166.0,20.0,4.696
155.0,28.0,4.697
115.0,24.0,4.698
68.0,6.0,4.699
21.0,-10.0,4.7
-15.0,-24.0,4.701
-42.0,-22.0,4.702
-59.0,-15.0,4.703
-70.0,-14.0,4.704
-72.0,-18.0,4.705
-67.0,-11.0,4.706
-56.0,7.0,4.707
-42.0,23.0,4.708
-22.0,22.0,4.709
7.0,19.0,4.71
40.0,22.0,4.711
63.0,24.0,4.712
77.0,14.0,4.713
95.0,2.0,4.714
117.0,1.0,4.715
117.0,6.0,4.716
90.0,9.0,4.717
45.0,4.0,4.718
9.0,6.0,4.719
-21.0,8.0,4.72
-54.0,6.0,4.721
-84.0,5.0,4.722
-96.0,7.0,4.723
-95.0,8.0,4.724
-101.0,3.0,4.725
-103.0,-5.0,4.726
-82.0,-25.0,4.727
-46.0,-44.0,4.728
-19.0,-60.0,4.729
-6.0,-73.0,4.73
8.0,-73.0,4.731
19.0,-68.0,4.732
6.0,-49.0,4.733
-25.0,-27.0,4.734
-55.0,0.0,4.735
-76.0,23.0,4.736
-94.0,32.0,4.737
-116.0,36.0,4.738
-120.0,16.0,4.739
-103.0,-3.0,4.74
-75.0,-4.0,4.741
-46.0,18.0,4.742
-16.0,41.0,4.743
8.0,45.0,4.744
23.0,33.0,4.745
40.0,25.0,4.746
80.0,35.0,4.747
134.0,66.0,4.748
175.0,107.0,4.749
193.0,133.0,4.75
201.0,126.0,4.751
215.0,96.0,4.752
219.0,65.0,4.753
206.0,41.0,4.754
182.0,9.0,4.755
155.0,-38.0,4.756
130.0,-85.0,4.757
101.0,-120.0,4.758
82.0,-142.0,4.759
68.0,-163.0,4.76
53.0,-189.0,4.761
34.0,-210.0,4.762
9.0,-208.0,4.763
-28.0,-169.0,4.764
-77.0,-105.0,4.765
-112.0,-52.0,4.766
-104.0,-25.0,4.767
-65.0,-7.0,4.768
-33.0,25.0,4.769
-23.0,59.0,4.77
-15.0,72.0,4.771
-2.0,68.0,4.772
6.0,71.0,4.773
14.0,81.0,4.774
45.0,90.0,4.775
99.0,94.0,4.776
140.0,96.0,4.777
141.0,86.0,4.778
113.0,66.0,4.779
70.0,49.0,4.78
10.0,47.0,4.781
-67.0,52.0,4.782
-134.0,46.0,4.783
-162.0,26.0,4.784
-159.0,5.0,4.785
-153.0,-14.0,4.786
-144.0,-31.0,4.787
-121.0,-36.0,4.788
-84.0,-22.0,4.789
-44.0,8.0,4.79
-3.0,45.0,4.791
36.0,74.0,4.792
62.0,78.0,4.793
75.0,49.0,4.794
84.0,2.0,4.795
93.0,-24.0,4.796
82.0,-4.0,4.797
40.0,47.0,4.798
-11.0,95.0,4.799
-44.0,133.0,4.8
-59.0,141.0,4.801
-78.0,146.0,4.802
-102.0,143.0,4.803
-128.0,122.0,4.804
-152.0,52.0,4.805
-162.0,-17.0,4.806
-135.0,-86.0,4.807
-71.0,-164.0,4.808
0.0,-264.0,4.809
58.0,-354.0,4.81
108.0,-412.0,4.811
148.0,-447.0,4.812
166.0,-409.0,4.813
151.0,-355.0,4.814
130.0,-251.0,4.815
113.0,-145.0,4.816
87.0,-36.0,4.817
35.0,66.0,4.818
-25.0,128.0,4.819
-72.0,152.0,4.82
-109.0,147.0,4.821
-143.0,139.0,4.822
-164.0,145.0,4.823
-166.0,151.0,4.824
-160.0,137.0,4.825
-149.0,112.0,4.826
-112.0,96.0,4.827
-47.0,96.0,4.828
16.0,99.0,4.829
49.0,99.0,4.83
61.0,100.0,4.831
73.0,101.0,4.832
84.0,99.0,4.833
80.0,97.0,4.834
71.0,99.0,4.835
66.0,96.0,4.836
59.0,81.0,4.837
39.0,51.0,4.838
14.0,17.0,4.839
-3.0,-20.0,4.84
-16.0,-60.0,4.841
-35.0,-87.0,4.842
-51.0,-87.0,4.843
-57.0,-74.0,4.844
-60.0,-66.0,4.845
-58.0,-59.0,4.846
-32.0,-39.0,4.847
20.0,-13.0,4.848
66.0,12.0,4.849
78.0,42.0,4.85
76.0,73.0,4.851
89.0,89.0,4.852
118.0,84.0,4.853
138.0,78.0,4.854
149.0,86.0,4.855
153.0,81.0,4.856
137.0,44.0,4.857
83.0,-16.0,4.858
7.0,-72.0,4.859
-64.0,-114.0,4.86
-112.0,-155.0,4.861
-134.0,-177.0,4.862
-138.0,-157.0,4.863
-140.0,-109.0,4.864
-155.0,-66.0,4.865
-168.0,-42.0,4.866
-148.0,-30.0,4.867
-95.0,-25.0,4.868
-33.0,-28.0,4.869
25.0,-31.0,4.87
84.0,-30.0,4.871
138.0,-22.0,4.872
158.0,-11.0,4.873
149.0,14.0,4.874
139.0,58.0,4.875
132.0,104.0,4.876
105.0,120.0,4.877
50.0,100.0,4.878
1.0,79.0,4.879
-20.0,79.0,4.88
-39.0,86.0,4.881
-74.0,81.0,4.882
-106.0,68.0,4.883
-117.0,67.0,4.884
-120.0,69.0,4.885
-122.0,53.0,4.886
-94.0,21.0,4.887
-25.0,0.0,4.888
47.0,5.0,4.889
83.0,13.0,4.89
99.0,12.0,4.891
127.0,5.0,4.892
168.0,-16.0,4.893
201.0,-63.0,4.894
224.0,-123.0,4.895
239.0,-160.0,4.896
225.0,-165.0,4.897
163.0,-161.0,4.898
88.0,-165.0,4.899
38.0,-168.0,4.9
7.0,-164.0,4.901
-33.0,-163.0,4.902
-81.0,-175.0,4.903
-105.0,-188.0,4.904
-108.0,-180.0,4.905
-105.0,-137.0,4.906
-95.0,-61.0,4.907
-57.0,22.0,4.908
2.0,92.0,4.909
56.0,137.0,4.91
92.0,166.0,4.911
109.0,179.0,4.912
109.0,171.0,4.913
95.0,148.0,4.914
81.0,127.0,4.915
67.0,110.0,4.916
37.0,87.0,4.917
-21.0,57.0,4.918
-81.0,50.0,4.919
-127.0,72.0,4.92
-168.0,87.0,4.921
-208.0,77.0,4.922
-231.0,54.0,4.923
-228.0,46.0,4.924
-226.0,51.0,4.925
-235.0,40.0,4.926
-220.0,9.0,4.927
-158.0,-28.0,4.928
-79.0,-62.0,4.929
-20.0,-97.0,4.93
22.0,-128.0,4.931
63.0,-143.0,4.932
96.0,-123.0,4.933
106.0,-62.0,4.934
106.0,36.0,4.935
110.0,144.0,4.936
107.0,214.0,4.937
74.0,224.0,4.938
27.0,201.0,4.939
-19.0,184.0,4.94
-59.0,176.0,4.941
-98.0,143.0,4.942
-130.0,72.0,4.943
-153.0,-10.0,4.944
-148.0,-96.0,4.945
-134.0,-198.0,4.946
-95.0,-311.0,4.947
-53.0,-380.0,4.948
-2.0,-360.0,4.949
42.0,-267.0,4.95
63.0,-150.0,4.951
81.0,-45.0,4.952
90.0,35.0,4.953
104.0,84.0,4.954
135.0,103.0,4.955
159.0,108.0,4.956
158.0,113.0,4.957
143.0,119.0,4.958
80.0,128.0,4.959
33.0,143.0,4.96
10.0,150.0,4.961
-17.0,120.0,4.962
-49.0,40.0,4.963
-67.0,-50.0,4.964
-72.0,-97.0,4.965
-83.0,-87.0,4.966
-87.0,-48.0,4.967
-63.0,-8.0,4.968
-18.0,22.0,4.969
19.0,33.0,4.97
47.0,6.0,4.971
82.0,-67.0,4.972
115.0,-162.0,4.973
124.0,-232.0,4.974
111.0,-253.0,4.975
100.0,-233.0,4.976
88.0,-193.0,4.977
50.0,-131.0,4.978
1.0,-49.0,4.979
-26.0,36.0,4.98
-29.0,101.0,4.981
-44.0,148.0,4.982
-85.0,179.0,4.983
-141.0,183.0,4.984
-190.0,156.0,4.985
-205.0,116.0,4.986
-175.0,94.0,4.987
-114.0,94.0,4.988
-59.0,89.0,4.989
-18.0,68.0,4.99
27.0,39.0,4.991
88.0,11.0,4.992
135.0,-18.0,4.993
153.0,-46.0,4.994
157.0,-55.0,4.995
153.0,-32.0,4.996
126.0,16.0,4.997
61.0,82.0,4.998
-5.0,157.0,4.999
-48.0,219.0,5.0
-74.0,240.0,5.001
-100.0,240.0,5.002
-117.0,177.0,5.003
-125.0,106.0,5.004
-131.0,9.0,5.005
-132.0,-72.0,5.006
-101.0,-107.0,5.007
-36.0,-147.0,5.008
26.0,-201.0,5.009
65.0,-251.0,5.01
95.0,-287.0,5.011
126.0,-303.0,5.012
145.0,-258.0,5.013
137.0,-212.0,5.014
118.0,-165.0,5.015
106.0,-105.0,5.016
92.0,-11.0,5.017
64.0,83.0,5.018
36.0,170.0,5.019
8.0,223.0,5.02
-13.0,212.0,5.021
-38.0,131.0,5.022
-68.0,21.0,5.023
-97.0,-61.0,5.024
-119.0,-98.0,5.025
-127.0,-99.0,5.026
-93.0,-70.0,5.027
-56.0,-20.0,5.028
-9.0,22.0,5.029
32.0,38.0,5.03
56.0,43.0,5.031
77.0,45.0,5.032
92.0,31.0,5.033
102.0,-15.0,5.034
95.0,-70.0,5.035
85.0,-100.0,5.036
67.0,-95.0,5.037
45.0,-79.0,5.038
10.0,-70.0,5.039
-15.0,-58.0,5.04
-34.0,-23.0,5.041
-59.0,50.0,5.042
-89.0,144.0,5.043
-112.0,208.0,5.044
-126.0,225.0,5.045
-123.0,223.0,5.046
-96.0,232.0,5.047
-47.0,239.0,5.048
1.0,205.0,5.049
44.0,122.0,5.05
79.0,24.0,5.051
107.0,-60.0,5.052
125.0,-140.0,5.053
137.0,-237.0,5.054
145.0,-333.0,5.055
138.0,-392.0,5.056
111.0,-391.0,5.057
64.0,-341.0,5.058
23.0,-266.0,5.059
-3.0,-184.0,5.06
-23.0,-95.0,5.061
-46.0,12.0,5.062
-66.0,116.0,5.063
-84.0,187.0,5.064
-105.0,220.0,5.065
-120.0,235.0,5.066
-107.0,250.0,5.067
-63.0,249.0,5.068
-11.0,203.0,5.069
33.0,109.0,5.07
77.0,11.0,5.071
130.0,-42.0,5.072
181.0,-36.0,5.073
203.0,-8.0,5.074
190.0,-2.0,5.075
151.0,-15.0,5.076
99.0,-23.0,5.077
28.0,-24.0,5.078
-51.0,-30.0,5.079
-113.0,-37.0,5.08
-139.0,-19.0,5.081
-138.0,37.0,5.082
-125.0,96.0,5.083
-115.0,138.0,5.084
-108.0,172.0,5.085
-93.0,206.0,5.086
-60.0,235.0,5.087
-11.0,253.0,5.088
39.0,265.0,5.089
74.0,242.0,5.09
87.0,147.0,5.091
92.0,-7.0,5.092
105.0,-165.0,5.093
131.0,-287.0,5.094
155.0,-371.0,5.095
151.0,-414.0,5.096
113.0,-410.0,5.097
49.0,-379.0,5.098
-14.0,-350.0,5.099
-60.0,-315.0,5.1
-69.0,-236.0,5.101
-40.0,-118.0,5.102
6.0,-23.0,5.103
23.0,29.0,5.104
-17.0,86.0,5.105
-75.0,171.0,5.106
-87.0,237.0,5.107
-35.0,254.0,5.108
31.0,249.0,5.109
63.0,245.0,5.11
69.0,210.0,5.111
77.0,118.0,5.112
87.0,4.0,5.113
85.0,-69.0,5.114
72.0,-89.0,5.115
58.0,-79.0,5.116
36.0,-55.0,5.117
-14.0,-20.0,5.118
-76.0,15.0,5.119
-125.0,26.0,5.12
-155.0,-4.0,5.121
-182.0,-69.0,5.122
-204.0,-149.0,5.123
-207.0,-212.0,5.124
-190.0,-243.0,5.125
-159.0,-245.0,5.126
-114.0,-222.0,5.127
-48.0,-161.0,5.128
15.0,-55.0,5.129
53.0,70.0,5.13
72.0,179.0,5.131
96.0,266.0,5.132
127.0,345.0,5.133
144.0,394.0,5.134
139.0,390.0,5.135
120.0,342.0,5.136
90.0,285.0,5.137
44.0,218.0,5.138
0.0,133.0,5.139
-27.0,27.0,5.14
-48.0,-81.0,5.141
-78.0,-166.0,5.142
-109.0,-227.0,5.143
-122.0,-264.0,5.144
-122.0,-268.0,5.145
-121.0,-239.0,5.146
-109.0,-195.0,5.147
-70.0,-169.0,5.148
-14.0,-172.0,5.149
39.0,-180.0,5.15
88.0,-161.0,5.151
140.0,-104.0,5.152
180.0,-26.0,5.153
195.0,51.0,5.154
197.0,127.0,5.155
197.0,195.0,5.156
187.0,230.0,5.157
143.0,212.0,5.158
83.0,160.0,5.159
33.0,98.0,5.16
-1.0,29.0,5.161
-32.0,-49.0,5.162
-58.0,-108.0,5.163
-72.0,-105.0,5.164
-87.0,-47.0,5.165
-115.0,11.0,5.166
-134.0,41.0,5.167
-110.0,61.0,5.168
-53.0,80.0,5.169
-5.0,70.0,5.17
15.0,33.0,5.171
28.0,10.0,5.172
55.0,26.0,5.173
87.0,50.0,5.174
109.0,64.0,5.175
119.0,95.0,5.176
115.0,153.0,5.177
80.0,191.0,5.178
23.0,161.0,5.179
-31.0,83.0,5.18
-58.0,-8.0,5.181
-74.0,-116.0,5.182
-94.0,-261.0,5.183
-120.0,-393.0,5.184
-136.0,-433.0,5.185
-134.0,-374.0,5.186
-106.0,-279.0,5.187
-55.0,-195.0,5.188
-2.0,-122.0,5.189
32.0,-60.0,5.19
44.0,-25.0,5.191
61.0,-14.0,5.192
91.0,2.0,5.193
117.0,48.0,5.194
120.0,118.0,5.195
105.0,194.0,5.196
86.0,253.0,5.197
58.0,281.0,5.198
25.0,281.0,5.199
-9.0,288.0,5.2
-42.0,320.0,5.201
-74.0,337.0,5.202
-105.0,307.0,5.203
-125.0,243.0,5.204
-131.0,74.0,5.205
-131.0,-87.0,5.206
-122.0,-223.0,5.207
-97.0,-316.0,5.208
-56.0,-275.0,5.209
-15.0,-223.0,5.21
20.0,-140.0,5.211
56.0,-73.0,5.212
95.0,-55.0,5.213
128.0,-50.0,5.214
146.0,-84.0,5.215
148.0,-109.0,5.216
134.0,-107.0,5.217
104.0,-90.0,5.218
60.0,-29.0,5.219
7.0,8.0,5.22
-38.0,31.0,5.221
-64.0,66.0,5.222
-67.0,84.0,5.223
-60.0,51.0,5.224
-62.0,-11.0,5.225
-67.0,-32.0,5.226
-51.0,4.0,5.227
-13.0,61.0,5.228
22.0,96.0,5.229
36.0,114.0,5.23
39.0,148.0,5.231
48.0,199.0,5.232
60.0,222.0,5.233
66.0,173.0,5.234
71.0,75.0,5.235
77.0,-12.0,5.236
71.0,-76.0,5.237
41.0,491.0,5.238
0.0,466.0,5.239
-42.0,426.0,5.24
-81.0,340.0,5.241
-117.0,226.0,5.242
-142.0,24.0,5.243
-166.0,-143.0,5.244
-213.0,-213.0,5.245
-294.0,-260.0,5.246
-379.0,-234.0,5.247
-429.0,-206.0,5.248
-429.0,-175.0,5.249
-403.0,-139.0,5.25
-376.0,-94.0,5.251
-353.0,-73.0,5.252
-315.0,-122.0,5.253
-251.0,-177.0,5.254
-177.0,-252.0,5.255
-122.0,-288.0,5.256
-90.0,-198.0,5.257
-65.0,367.0,5.258
-44.0,348.0,5.259
-41.0,317.0,5.26
-55.0,252.0,5.261
-65.0,165.0,5.262
-47.0,12.0,5.263
-10.0,-116.0,5.264
30.0,-169.0,5.265
69.0,-205.0,5.266
119.0,-185.0,5.267
189.0,-164.0,5.268
256.0,-140.0,5.269
296.0,-113.0,5.27
313.0,-79.0,5.271
321.0,-63.0,5.272
330.0,-100.0,5.273
329.0,-142.0,5.274
317.0,-199.0,5.275
305.0,-226.0,5.276
295.0,-158.0,5.277
276.0,-88.0,5.278
249.0,-40.0,5.279
225.0,-31.0,5.28
201.0,-22.0,5.281
167.0,-7.0,5.282
125.0,-4.0,5.283
97.0,-7.0,5.284
86.0,14.0,5.285
84.0,60.0,5.286
92.0,107.0,5.287
112.0,143.0,5.288
131.0,155.0,5.289
134.0,112.0,5.29
132.0,2.0,5.291
141.0,-119.0,5.292
155.0,-176.0,5.293
154.0,-147.0,5.294
140.0,-82.0,5.295
128.0,-47.0,5.296
112.0,-63.0,5.297
83.0,-129.0,5.298
41.0,-179.0,5.299
8.0,-169.0,5.3
-11.0,-96.0,5.301
-34.0,0.0,5.302
-58.0,86.0,5.303
-73.0,180.0,5.304
-83.0,320.0,5.305
-101.0,477.0,5.306
-107.0,562.0,5.307
-80.0,525.0,5.308
-42.0,396.0,5.309
-27.0,242.0,5.31
-31.0,88.0,5.311
-24.0,-75.0,5.312
2.0,-242.0,5.313
28.0,-385.0,5.314
47.0,-462.0,5.315
60.0,-443.0,5.316
58.0,-360.0,5.317
20.0,-269.0,5.318
-30.0,-231.0,5.319
-68.0,-251.0,5.32
-86.0,-302.0,5.321
-93.0,-356.0,5.322
-95.0,-410.0,5.323
-95.0,-443.0,5.324
-93.0,-426.0,5.325
-81.0,-354.0,5.326
-44.0,-246.0,5.327
4.0,-118.0,5.328
45.0,32.0,5.329
71.0,198.0,5.33
92.0,340.0,5.331
103.0,424.0,5.332
91.0,441.0,5.333
56.0,420.0,5.334
27.0,397.0,5.335
13.0,386.0,5.336
-5.0,377.0,5.337
-46.0,352.0,5.338
-98.0,317.0,5.339
-129.0,284.0,5.34
-137.0,254.0,5.341
-142.0,226.0,5.342
-153.0,188.0,5.343
-173.0,146.0,5.344
-191.0,106.0,5.345
-199.0,76.0,5.346
-187.0,63.0,5.347
-152.0,88.0,5.348
-97.0,150.0,5.349
-33.0,199.0,5.35
15.0,175.0,5.351
11.0,75.0,5.352
-44.0,-36.0,5.353
-107.0,-102.0,5.354
-131.0,-128.0,5.355
-121.0,-132.0,5.356
-114.0,-110.0,5.357
-118.0,-54.0,5.358
-108.0,-2.0,5.359
-93.0,-7.0,5.36
-119.0,-65.0,5.361
-201.0,-112.0,5.362
-282.0,-119.0,5.363
-295.0,-108.0,5.364
-240.0,-106.0,5.365
-157.0,-110.0,5.366
-58.0,-108.0,5.367
53.0,-105.0,5.368
125.0,-105.0,5.369
95.0,-97.0,5.37
-11.0,-71.0,5.371
-71.0,-25.0,5.372
-10.0,60.0,5.373
126.0,217.0,5.374
258.0,417.0,5.375
358.0,560.0,5.376
421.0,564.0,5.377
430.0,452.0,5.378
377.0,324.0,5.379
303.0,218.0,5.38
253.0,65.0,5.381
219.0,-194.0,5.382
179.0,-538.0,5.383
154.0,-902.0,5.384
163.0,-1213.0,5.385
191.0,-1374.0,5.386
219.0,-1285.0,5.387
243.0,-957.0,5.388
268.0,-552.0,5.389
273.0,-233.0,5.39
256.0,-24.0,5.391
239.0,135.0,5.392
235.0,251.0,5.393
229.0,295.0,5.394
209.0,304.0,5.395
183.0,348.0,5.396
161.0,410.0,5.397
128.0,427.0,5.398
86.0,391.0,5.399
44.0,366.0,5.4
7.0,386.0,5.401
-22.0,404.0,5.402
-43.0,380.0,5.403
-65.0,328.0,5.404
-110.0,279.0,5.405
-180.0,224.0,5.406
-234.0,145.0,5.407
-232.0,57.0,5.408
-179.0,-13.0,5.409
-120.0,-41.0,5.41
-77.0,-7.0,5.411
-46.0,90.0,5.412
-17.0,205.0,5.413
5.0,258.0,5.414
19.0,226.0,5.415
20.0,162.0,5.416
6.0,118.0,5.417
-25.0,59.0,5.418
-57.0,-80.0,5.419
-74.0,-319.0,5.42
-80.0,-599.0,5.421
-86.0,-837.0,5.422
-96.0,-976.0,5.423
-102.0,-970.0,5.424
-106.0,-788.0,5.425
-107.0,-459.0,5.426
-99.0,-84.0,5.427
-82.0,230.0,5.428
-63.0,442.0,5.429
-48.0,574.0,5.43
-30.0,631.0,5.431
-9.0,580.0,5.432
2.0,424.0,5.433
-3.0,244.0,5.434
-17.0,109.0,5.435
-33.0,-18.0,5.436
-48.0,-175.0,5.437
-72.0,-313.0,5.438
-99.0,-313.0,5.439
-136.0,-198.0,5.44
-183.0,-119.0,5.441
-234.0,-125.0,5.442
-268.0,-86.0,5.443
-285.0,123.0,5.444
-286.0,458.0,5.445
-262.0,758.0,5.446
-193.0,911.0,5.447
-88.0,931.0,5.448
13.0,899.0,5.449
77.0,859.0,5.45
102.0,766.0,5.451
105.0,554.0,5.452
102.0,232.0,5.453
100.0,-164.0,5.454
93.0,-631.0,5.455
67.0,-1141.0,5.456
25.0,-1542.0,5.457
-17.0,-1739.0,5.458
-39.0,-1735.0,5.459
-47.0,-1651.0,5.46
-51.0,-1518.0,5.461
-46.0,-1255.0,5.462
-25.0,-862.0,5.463
8.0,-453.0,5.464
30.0,-91.0,5.465
32.0,266.0,5.466
26.0,629.0,5.467
41.0,935.0,5.468
92.0,1139.0,5.469
173.0,1253.0,5.47
258.0,1275.0,5.471
317.0,1197.0,5.472
316.0,1068.0,5.473
244.0,941.0,5.474
133.0,808.0,5.475
29.0,642.0,5.476
-41.0,489.0,5.477
-106.0,339.0,5.478
-173.0,132.0,5.479
-221.0,-167.0,5.48
-234.0,-437.0,5.481
-227.0,-531.0,5.482
-221.0,-507.0,5.483
-211.0,-535.0,5.484
-195.0,-656.0,5.485
-175.0,-787.0,5.486
-156.0,-892.0,5.487
-140.0,-970.0,5.488
-151.0,-945.0,5.489
-189.0,-730.0,5.49
-198.0,-386.0,5.491
-125.0,-78.0,5.492
-10.0,125.0,5.493
69.0,268.0,5.494
96.0,383.0,5.495
130.0,470.0,5.496
174.0,555.0,5.497
172.0,648.0,5.498
105.0,707.0,5.499
27.0,727.0,5.5
-4.0,627.0,5.501
16.0,532.0,5.502
69.0,451.0,5.503
126.0,367.0,5.504
141.0,277.0,5.505
92.0,159.0,5.506
23.0,-45.0,5.507
-9.0,-250.0,5.508
-10.0,-454.0,5.509
-23.0,-581.0,5.51
-52.0,-477.0,5.511
-65.0,-365.0,5.512
-46.0,-231.0,5.513
-2.0,-126.0,5.514
65.0,-106.0,5.515
139.0,-87.0,5.516
184.0,-71.0,5.517
188.0,-55.0,5.518
179.0,-20.0,5.519
176.0,98.0,5.52
164.0,305.0,5.521
129.0,515.0,5.522
103.0,617.0,5.523
103.0,576.0,5.524
106.0,451.0,5.525
98.0,315.0,5.526
96.0,195.0,5.527
112.0,70.0,5.528
115.0,-85.0,5.529
89.0,-265.0,5.53
65.0,-421.0,5.531
68.0,-493.0,5.532
79.0,-448.0,5.533
87.0,-311.0,5.534
97.0,-162.0,5.535
107.0,-57.0,5.536
94.0,4.0,5.537
55.0,59.0,5.538
24.0,116.0,5.539
10.0,134.0,5.54
-6.0,57.0,5.541
-31.0,-124.0,5.542
-45.0,-336.0,5.543
-44.0,-452.0,5.544
-49.0,-430.0,5.545
-62.0,-375.0,5.546
-59.0,-398.0,5.547
-35.0,-463.0,5.548
-16.0,-453.0,5.549
-13.0,-330.0,5.55
-20.0,-153.0,5.551
-30.0,45.0,5.552
-47.0,273.0,5.553
-54.0,490.0,5.554
-36.0,616.0,5.555
-9.0,637.0,5.556
-4.0,618.0,5.557
-29.0,638.0,5.558
-56.0,753.0,5.559
-73.0,902.0,5.56
-95.0,898.0,5.561
-135.0,609.0,5.562
-179.0,143.0,5.563
-212.0,-268.0,5.564
-231.0,-565.0,5.565
-223.0,-864.0,5.566
-177.0,-1172.0,5.567
-104.0,-1335.0,5.568
-38.0,-1298.0,5.569
-9.0,-1187.0,5.57
-5.0,-1077.0,5.571
1.0,-898.0,5.572
29.0,-619.0,5.573
71.0,-334.0,5.574
113.0,-107.0,5.575
136.0,107.0,5.576
140.0,316.0,5.577
126.0,464.0,5.578
102.0,520.0,5.579
73.0,551.0,5.58
41.0,503.0,5.581
8.0,448.0,5.582
-16.0,378.0,5.583
-24.0,328.0,5.584
-20.0,338.0,5.585
-14.0,347.0,5.586
-13.0,355.0,5.587
-24.0,364.0,5.588
-47.0,376.0,5.589
-74.0,388.0,5.59
-93.0,400.0,5.591
-97.0,391.0,5.592
-89.0,318.0,5.593
-70.0,254.0,5.594
-44.0,216.0,5.595
-20.0,224.0,5.596
-11.0,370.0,5.597
-19.0,519.0,5.598
-28.0,614.0,5.599
-39.0,548.0,5.6
-57.0,338.0,5.601
-68.0,72.0,5.602
-53.0,-195.0,5.603
-34.0,-454.0,5.604
-3.0,-671.0,5.605
23.0,-776.0,5.606
33.0,-724.0,5.607
47.0,-558.0,5.608
72.0,-358.0,5.609
91.0,-176.0,5.61
87.0,-17.0,5.611
85.0,147.0,5.612
95.0,325.0,5.613
103.0,427.0,5.614
99.0,301.0,5.615
94.0,-69.0,5.616
92.0,-444.0,5.617
86.0,-586.0,5.618
62.0,-470.0,5.619
33.0,-366.0,5.62
14.0,-304.0,5.621
4.0,-241.0,5.622
-11.0,-175.0,5.623
-41.0,-79.0,5.624
-93.0,108.0,5.625
-149.0,268.0,5.626
-181.0,344.0,5.627
-176.0,347.0,5.628
-146.0,129.0,5.629
-111.0,-81.0,5.63
-72.0,-266.0,5.631
-26.0,-388.0,5.632
20.0,-321.0,5.633
53.0,-192.0,5.634
70.0,121.0,5.635
74.0,401.0,5.636
66.0,578.0,5.637
37.0,680.0,5.638
-3.0,455.0,5.639
-42.0,170.0,5.64
-67.0,-26.0,5.641
-85.0,-216.0,5.642
-99.0,-500.0,5.643
-112.0,-716.0,5.644
-109.0,-639.0,5.645
-74.0,-355.0,5.646
-11.0,-145.0,5.647
52.0,-81.0,5.648
92.0,-26.0,5.649
112.0,55.0,5.65
131.0,90.0,5.651
147.0,108.0,5.652
146.0,212.0,5.653
133.0,373.0,5.654
122.0,478.0,5.655
111.0,513.0,5.656
86.0,537.0,5.657
45.0,532.0,5.658
24.0,415.0,5.659
29.0,169.0,5.66
42.0,-121.0,5.661
36.0,-343.0,5.662
14.0,-426.0,5.663
-15.0,-392.0,5.664
-42.0,-344.0,5.665
-56.0,-349.0,5.666
-44.0,-327.0,5.667
-9.0,-151.0,5.668
21.0,143.0,5.669
33.0,393.0,5.67
44.0,498.0,5.671
71.0,489.0,5.672
100.0,405.0,5.673
107.0,237.0,5.674
95.0,-8.0,5.675
89.0,-274.0,5.676
93.0,-459.0,5.677
85.0,-499.0,5.678
59.0,-382.0,5.679
27.0,-207.0,5.68
1.0,-61.0,5.681
-24.0,110.0,5.682
-42.0,342.0,5.683
-40.0,470.0,5.684
-24.0,307.0,5.685
-17.0,-34.0,5.686
-27.0,-261.0,5.687
-34.0,-292.0,5.688
-28.0,-302.0,5.689
-19.0,-372.0,5.69
-11.0,-377.0,5.691
7.0,-251.0,5.692
37.0,-119.0,5.693
54.0,-97.0,5.694
39.0,-145.0,5.695
-3.0,-170.0,5.696
-50.0,-145.0,5.697
-94.0,-67.0,5.698
-118.0,50.0,5.699
-122.0,147.0,5.7
-112.0,179.0,5.701
-87.0,187.0,5.702
-38.0,121.0,5.703
16.0,89.0,5.704
38.0,157.0,5.705
23.0,241.0,5.706
8.0,370.0,5.707
19.0,458.0,5.708
35.0,421.0,5.709
28.0,385.0,5.71
5.0,354.0,5.711
-10.0,290.0,5.712
-16.0,128.0,5.713
-9.0,-29.0,5.714
6.0,-173.0,5.715
14.0,-301.0,5.716
-2.0,-383.0,5.717
-36.0,-440.0,5.718
-63.0,-349.0,5.719
-81.0,-197.0,5.72
-71.0,-129.0,5.721
-60.0,-144.0,5.722
-44.0,-94.0,5.723
-32.0,70.0,5.724
-40.0,225.0,5.725
-40.0,264.0,5.726
-18.0,249.0,5.727
6.0,254.0,5.728
34.0,222.0,5.729
60.0,69.0,5.73
77.0,-148.0,5.731
89.0,-289.0,5.732
87.0,-321.0,5.733
87.0,-316.0,5.734
92.0,-294.0,5.735
91.0,-192.0,5.736
69.0,-12.0,5.737
46.0,154.0,5.738
20.0,228.0,5.739
2.0,267.0,5.74
-9.0,196.0,5.741
-21.0,124.0,5.742
-31.0,51.0,5.743
-37.0,-6.0,5.744
-33.0,-16.0,5.745
-26.0,-71.0,5.746
-24.0,-258.0,5.747
-28.0,-400.0,5.748
-24.0,-404.0,5.749
-13.0,-368.0,5.75
-6.0,-207.0,5.751
-10.0,-50.0,5.752
-9.0,95.0,5.753
5.0,209.0,5.754
24.0,230.0,5.755
35.0,194.0,5.756
41.0,-17.0,5.757
37.0,-198.0,5.758
25.0,-182.0,5.759
11.0,-76.0,5.76
3.0,-43.0,5.761
1.0,-54.0,5.762
0.0,25.0,5.763
-2.0,228.0,5.764
-11.0,475.0,5.765
-36.0,688.0,5.766
-63.0,785.0,5.767
-58.0,663.0,5.768
-15.0,308.0,5.769
25.0,-75.0,5.77
33.0,-220.0,5.771
26.0,-85.0,5.772
28.0,78.0,5.773
26.0,-2.0,5.774
10.0,-323.0,5.775
-4.0,-639.0,5.776
3.0,-745.0,5.777
14.0,-603.0,5.778
-1.0,-340.0,5.779
-37.0,-24.0,5.78
-60.0,241.0,5.781
-48.0,286.0,5.782
-15.0,49.0,5.783
19.0,-278.0,5.784
39.0,-445.0,5.785
49.0,-413.0,5.786
60.0,-326.0,5.787
77.0,-255.0,5.788
93.0,-149.0,5.789
97.0,-5.0,5.79
93.0,114.0,5.791
84.0,190.0,5.792
66.0,264.0,5.793
35.0,324.0,5.794
0.0,323.0,5.795
-35.0,300.0,5.796
-67.0,331.0,5.797
-96.0,404.0,5.798
-116.0,423.0,5.799
-130.0,351.0,5.8
-144.0,242.0,5.801
-147.0,127.0,5.802
-117.0,-24.0,5.803
-58.0,-195.0,5.804
-14.0,-282.0,5.805
-7.0,-228.0,5.806
-9.0,-94.0,5.807
3.0,30.0,5.808
16.0,107.0,5.809
15.0,138.0,5.81
23.0,115.0,5.811
54.0,56.0,5.812
82.0,23.0,5.813
86.0,51.0,5.814
77.0,93.0,5.815
77.0,84.0,5.816
77.0,16.0,5.817
57.0,-90.0,5.818
31.0,-204.0,5.819
15.0,-285.0,5.82
11.0,-278.0,5.821
2.0,-151.0,5.822
-3.0,34.0,5.823
3.0,167.0,5.824
11.0,189.0,5.825
6.0,134.0,5.826
-2.0,79.0,5.827
0.0,45.0,5.828
4.0,-12.0,5.829
0.0,-143.0,5.83
0.0,-323.0,5.831
18.0,-451.0,5.832
46.0,-437.0,5.833
63.0,-251.0,5.834
62.0,64.0,5.835
51.0,394.0,5.836
37.0,558.0,5.837
12.0,449.0,5.838
-16.0,142.0,5.839
-39.0,-174.0,5.84
-63.0,-390.0,5.841
-96.0,-516.0,5.842
-136.0,-536.0,5.843
-164.0,-374.0,5.844
-174.0,-65.0,5.845
-177.0,224.0,5.846
-170.0,376.0,5.847
-137.0,409.0,5.848
-83.0,373.0,5.849
-47.0,274.0,5.85
-59.0,136.0,5.851
-93.0,-1.0,5.852
-116.0,-126.0,5.853
-127.0,-228.0,5.854
-153.0,-274.0,5.855
-195.0,-262.0,5.856
-218.0,-232.0,5.857
-203.0,-159.0,5.858
-161.0,13.0,5.859
-126.0,210.0,5.86
-108.0,255.0,5.861
-87.0,156.0,5.862
-54.0,113.0,5.863
-20.0,194.0,5.864
-7.0,218.0,5.865
-6.0,78.0,5.866
6.0,-51.0,5.867
35.0,-24.0,5.868
65.0,43.0,5.869
88.0,-4.0,5.87
107.0,-100.0,5.871
127.0,-121.0,5.872
141.0,-120.0,5.873
143.0,-189.0,5.874
143.0,-253.0,5.875
142.0,-194.0,5.876
136.0,-68.0,5.877
115.0,21.0,5.878
91.0,80.0,5.879
74.0,171.0,5.88
70.0,251.0,5.881
72.0,220.0,5.882
74.0,88.0,5.883
78.0,-13.0,5.884
105.0,-10.0,5.885
157.0,42.0,5.886
209.0,59.0,5.887
226.0,28.0,5.888
207.0,-6.0,5.889
188.0,-9.0,5.89
199.0,31.0,5.891
224.0,120.0,5.892
235.0,238.0,5.893
224.0,296.0,5.894
202.0,200.0,5.895
182.0,-17.0,5.896
165.0,-201.0,5.897
141.0,-280.0,5.898
111.0,-309.0,5.899
71.0,-364.0,5.9
30.0,-379.0,5.901
-2.0,-236.0,5.902
-18.0,0.0,5.903
-20.0,137.0,5.904
-22.0,108.0,5.905
-31.0,35.0,5.906
-42.0,13.0,5.907
-41.0,-7.0,5.908
-25.0,-90.0,5.909
-3.0,-166.0,5.91
16.0,-120.0,5.911
29.0,62.0,5.912
38.0,270.0,5.913
42.0,354.0,5.914
43.0,241.0,5.915
41.0,35.0,5.916
30.0,-51.0,5.917
-1.0,67.0,5.918
-52.0,239.0,5.919
-110.0,236.0,5.92
-154.0,49.0,5.921
-175.0,-121.0,5.922
-174.0,-199.0,5.923
-164.0,-290.0,5.924
-142.0,-414.0,5.925
-103.0,-410.0,5.926
-51.0,-201.0,5.927
-4.0,38.0,5.928
25.0,131.0,5.929
45.0,119.0,5.93
61.0,131.0,5.931
61.0,168.0,5.932
35.0,168.0,5.933
7.0,133.0,5.934
11.0,75.0,5.935
41.0,-24.0,5.936
57.0,-129.0,5.937
45.0,-159.0,5.938
22.0,-87.0,5.939
11.0,1.0,5.94
5.0,74.0,5.941
-11.0,196.0,5.942
-31.0,355.0,5.943
-32.0,404.0,5.944
-18.0,262.0,5.945
-12.0,5.0,5.946
-23.0,-260.0,5.947
-39.0,-471.0,5.948
-40.0,-547.0,5.949
-26.0,-404.0,5.95
10.0,-110.0,5.951
87.0,130.0,5.952
190.0,202.0,5.953
258.0,169.0,5.954
257.0,131.0,5.955
218.0,92.0,5.956
195.0,41.0,5.957
176.0,1.0,5.958
129.0,8.0,5.959
57.0,32.0,5.96
4.0,27.0,5.961
-24.0,14.0,5.962
-58.0,18.0,5.963
-109.0,24.0,5.964
-147.0,9.0,5.965
-165.0,-17.0,5.966
-196.0,-30.0,5.967
-251.0,-28.0,5.968
-291.0,-20.0,5.969
-298.0,-9.0,5.97
-307.0,7.0,5.971
-344.0,35.0,5.972
-373.0,75.0,5.973
-351.0,112.0,5.974
-284.0,126.0,5.975
-218.0,107.0,5.976
-172.0,52.0,5.977
-137.0,-60.0,5.978
-113.0,-209.0,5.979
-103.0,-314.0,5.98
-96.0,-314.0,5.981
-78.0,-236.0,5.982
-59.0,-159.0,5.983
-46.0,-71.0,5.984
-28.0,82.0,5.985
12.0,241.0,5.986
76.0,249.0,5.987
146.0,100.0,5.988
204.0,-22.0,5.989
237.0,-3.0,5.99
241.0,56.0,5.991
218.0,39.0,5.992
181.0,3.0,5.993
145.0,61.0,5.994
122.0,180.0,5.995
103.0,239.0,5.996
70.0,199.0,5.997
23.0,107.0,5.998
-8.0,-53.0,5.999
-2.0,-242.0,6.0
18.0,-408.0,6.001
23.0,-459.0,6.002
30.0,-354.0,6.003
72.0,-129.0,6.004
131.0,119.0,6.005
155.0,264.0,6.006
144.0,245.0,6.007
145.0,130.0,6.008
181.0,46.0,6.009
221.0,40.0,6.01
250.0,57.0,6.011
292.0,58.0,6.012
348.0,70.0,6.013
376.0,101.0,6.014
351.0,106.0,6.015
300.0,60.0,6.016
248.0,-4.0,6.017
187.0,-49.0,6.018
108.0,-46.0,6.019
22.0,-15.0,6.02
-64.0,7.0,6.021
-157.0,3.0,6.022
-247.0,-11.0,6.023
-313.0,4.0,6.024
-358.0,34.0,6.025
-401.0,13.0,6.026
-433.0,-66.0,6.027
-420.0,-116.0,6.028
-358.0,-82.0,6.029
-294.0,-25.0,6.03
-266.0,-15.0,6.031
-256.0,-21.0,6.032
-238.0,8.0,6.033
-225.0,40.0,6.034
-234.0,14.0,6.035
-244.0,-45.0,6.036
-229.0,-64.0,6.037
-202.0,-34.0,6.038
-182.0,-8.0,6.039
-163.0,-3.0,6.04
-120.0,17.0,6.041
-65.0,68.0,6.042
-27.0,94.0,6.043
-8.0,34.0,6.044
8.0,-86.0,6.045
28.0,-183.0,6.046
44.0,-191.0,6.047
62.0,-128.0,6.048
88.0,-58.0,6.049
107.0,-15.0,6.05
107.0,29.0,6.051
100.0,88.0,6.052
98.0,121.0,6.053
103.0,93.0,6.054
110.0,49.0,6.055
126.0,51.0,6.056
143.0,84.0,6.057
146.0,79.0,6.058
126.0,19.0,6.059
98.0,-38.0,6.06
84.0,-44.0,6.061
84.0,-14.0,6.062
90.0,15.0,6.063
87.0,39.0,6.064
60.0,77.0,6.065
11.0,108.0,6.066
-28.0,71.0,6.067
-27.0,-53.0,6.068
4.0,-184.0,6.069
33.0,-215.0,6.07
48.0,-128.0,6.071
64.0,-20.0,6.072
87.0,51.0,6.073
106.0,125.0,6.074
116.0,211.0,6.075
111.0,218.0,6.076
87.0,107.0,6.077
50.0,-43.0,6.078
23.0,-101.0,6.079
22.0,-80.0,6.08
42.0,-84.0,6.081
64.0,-113.0,6.082
75.0,-93.0,6.083
65.0,-25.0,6.084
35.0,17.0,6.085
12.0,23.0,6.086
15.0,33.0,6.087
24.0,44.0,6.088
10.0,20.0,6.089
-19.0,-15.0,6.09
-43.0,-17.0,6.091
-62.0,0.0,6.092
-85.0,-3.0,6.093
-100.0,-11.0,6.094
-95.0,9.0,6.095
-91.0,37.0,6.096
-105.0,42.0,6.097
-131.0,31.0,6.098
-142.0,24.0,6.099
-121.0,12.0,6.1
-62.0,-12.0,6.101
23.0,-10.0,6.102
102.0,22.0,6.103
148.0,24.0,6.104
168.0,-50.0,6.105
182.0,-143.0,6.106
170.0,-165.0,6.107
114.0,-111.0,6.108
47.0,-38.0,6.109
25.0,9.0,6.11
54.0,36.0,6.111
86.0,53.0,6.112
89.0,69.0,6.113
77.0,87.0,6.114
67.0,89.0,6.115
58.0,63.0,6.116
43.0,33.0,6.117
14.0,20.0,6.118
-18.0,14.0,6.119
-45.0,3.0,6.12
-54.0,-21.0,6.121
-58.0,-33.0,6.122
-40.0,-6.0,6.123
-31.0,17.0,6.124
-48.0,27.0,6.125
-67.0,32.0,6.126
-91.0,15.0,6.127
-110.0,1.0,6.128
-114.0,-3.0,6.129
-121.0,7.0,6.13
-135.0,66.0,6.131
-145.0,89.0,6.132
-138.0,2.0,6.133
-124.0,-77.0,6.134
-91.0,-136.0,6.135
-54.0,-178.0,6.136
-6.0,-165.0,6.137
33.0,-144.0,6.138
20.0,-93.0,6.139
-16.0,-31.0,6.14
-36.0,22.0,6.141
-33.0,69.0,6.142
-23.0,96.0,6.143
-17.0,95.0,6.144
-11.0,70.0,6.145
-8.0,44.0,6.146
-12.0,30.0,6.147
-7.0,18.0,6.148
15.0,0.0,6.149
37.0,-11.0,6.15
32.0,-4.0,6.151
0.0,21.0,6.152
-36.0,56.0,6.153
-59.0,83.0,6.154
-66.0,76.0,6.155
-57.0,20.0,6.156
-32.0,-49.0,6.157
-6.0,-85.0,6.158
-4.0,-61.0,6.159
-35.0,-22.0,6.16
-70.0,-16.0,6.161
-75.0,-24.0,6.162
-48.0,1.0,6.163
-11.0,58.0,6.164
12.0,95.0,6.165
27.0,79.0,6.166
48.0,31.0,6.167
75.0,-10.0,6.168
95.0,-24.0,6.169
104.0,-16.0,6.17
117.0,-8.0,6.171
139.0,-11.0,6.172
153.0,-19.0,6.173
149.0,-19.0,6.174
138.0,-8.0,6.175
133.0,2.0,6.176
134.0,8.0,6.177
133.0,5.0,6.178
137.0,0.0,6.179
147.0,-7.0,6.18
147.0,-14.0,6.181
132.0,-13.0,6.182
118.0,-10.0,6.183
117.0,-10.0,6.184
110.0,-6.0,6.185
87.0,1.0,6.186
76.0,4.0,6.187
95.0,-3.0,6.188
121.0,-13.0,6.189
119.0,-8.0,6.19
95.0,19.0,6.191
80.0,56.0,6.192
79.0,82.0,6.193
71.0,66.0,6.194
48.0,0.0,6.195
20.0,-77.0,6.196
0.0,-113.0,6.197
-19.0,-98.0,6.198
-31.0,-69.0,6.199
-37.0,-55.0,6.2
-37.0,-49.0,6.201
-32.0,-23.0,6.202
-17.0,11.0,6.203
0.0,38.0,6.204
3.0,47.0,6.205
-13.0,43.0,6.206
-25.0,28.0,6.207
-13.0,11.0,6.208
23.0,4.0,6.209
51.0,6.0,6.21
52.0,2.0,6.211
29.0,-2.0,6.212
1.0,13.0,6.213
-18.0,54.0,6.214
-24.0,104.0,6.215
-24.0,124.0,6.216
-23.0,89.0,6.217
-32.0,-5.0,6.218
-49.0,-106.0,6.219
-72.0,-153.0,6.22
-96.0,-142.0,6.221
-120.0,-113.0,6.222
-142.0,-99.0,6.223
-159.0,-77.0,6.224
-168.0,-29.0,6.225
-168.0,23.0,6.226
-162.0,54.0,6.227
-146.0,67.0,6.228
-124.0,66.0,6.229
-104.0,50.0,6.23
-85.0,25.0,6.231
-56.0,17.0,6.232
-18.0,27.0,6.233
6.0,29.0,6.234
7.0,16.0,6.235
0.0,8.0,6.236
-1.0,11.0,6.237
-2.0,9.0,6.238
-19.0,-5.0,6.239
-50.0,-13.0,6.24
-75.0,-7.0,6.241
-84.0,-1.0,6.242
-89.0,-5.0,6.243
-106.0,-9.0,6.244
-139.0,-6.0,6.245
-168.0,-3.0,6.246
-165.0,-6.0,6.247
-124.0,-8.0,6.248
-66.0,-2.0,6.249
-23.0,2.0,6.25
3.0,-1.0,6.251
31.0,-3.0,6.252
63.0,0.0,6.253
83.0,6.0,6.254
84.0,11.0,6.255
81.0,14.0,6.256
84.0,15.0,6.257
81.0,8.0,6.258
71.0,0.0,6.259
60.0,-7.0,6.26
57.0,-7.0,6.261
56.0,-5.0,6.262
56.0,3.0,6.263
59.0,9.0,6.264
56.0,7.0,6.265
45.0,3.0,6.266
36.0,-5.0,6.267
43.0,-11.0,6.268
54.0,-5.0,6.269
49.0,-1.0,6.27
31.0,-2.0,6.271
22.0,-2.0,6.272
24.0,3.0,6.273
22.0,7.0,6.274
14.0,8.0,6.275
13.0,9.0,6.276
17.0,9.0,6.277
10.0,9.0,6.278
-3.0,5.0,6.279
-15.0,-3.0,6.28
-17.0,-12.0,6.281
-20.0,-13.0,6.282
-21.0,-11.0,6.283
-23.0,-13.0,6.284
-23.0,-17.0,6.285
-23.0,-19.0,6.286
-23.0,-17.0,6.287
-22.0,-8.0,6.288
-16.0,5.0,6.289
-11.0,12.0,6.29
-9.0,6.0,6.291
-8.0,-4.0,6.292
-10.0,-7.0,6.293
-13.0,-6.0,6.294
-11.0,-9.0,6.295
-9.0,-15.0,6.296
-4.0,-13.0,6.297
0.0,0.0,6.298
-6.0,22.0,6.299
-22.0,36.0,6.3
-35.0,34.0,6.301
-38.0,19.0,6.302
-30.0,3.0,6.303
-30.0,-5.0,6.304
-41.0,-4.0,6.305
-48.0,-2.0,6.306
-42.0,-7.0,6.307
-24.0,-14.0,6.308
-10.0,-13.0,6.309
-3.0,-9.0,6.31
-4.0,-8.0,6.311
-6.0,-9.0,6.312
-9.0,-8.0,6.313
-9.0,-4.0,6.314
-4.0,-5.0,6.315
5.0,-7.0,6.316
21.0,-1.0,6.317
20.0,12.0,6.318
1.0,23.0,6.319
-17.0,19.0,6.32
-31.0,3.0,6.321
-40.0,-8.0,6.322
-32.0,-10.0,6.323
-25.0,-7.0,6.324
-23.0,-7.0,6.325
-20.0,-7.0,6.326
-15.0,-4.0,6.327
-5.0,0.0,6.328
15.0,5.0,6.329
33.0,9.0,6.33
40.0,9.0,6.331
48.0,8.0,6.332
56.0,4.0,6.333
60.0,5.0,6.334
51.0,8.0,6.335
40.0,9.0,6.336
28.0,5.0,6.337
25.0,-2.0,6.338
-2.0,-8.0,6.339
-27.0,-11.0,6.34
-46.0,-17.0,6.341
-58.0,-22.0,6.342
-47.0,-24.0,6.343
-37.0,-22.0,6.344
-35.0,-13.0,6.345
-31.0,-2.0,6.346
-24.0,7.0,6.347
-11.0,5.0,6.348
18.0,-4.0,6.349
42.0,-11.0,6.35
52.0,-6.0,6.351
63.0,3.0,6.352
73.0,8.0,6.353
78.0,10.0,6.354
66.0,14.0,6.355
52.0,21.0,6.356
36.0,22.0,6.357
22.0,13.0,6.358
27.0,6.0,6.359
59.0,-1.0,6.36
123.0,-11.0,6.361
203.0,-21.0,6.362
267.0,-23.0,6.363
291.0,-16.0,6.364
290.0,-8.0,6.365
286.0,-2.0,6.366
281.0,-3.0,6.367
256.0,-6.0,6.368
210.0,1.0,6.369
171.0,19.0,6.37
152.0,37.0,6.371
134.0,33.0,6.372
103.0,9.0,6.373
68.0,-11.0,6.374
43.0,-13.0,6.375
21.0,6.0,6.376
-2.0,30.0,6.377
-27.0,34.0,6.378
-49.0,19.0,6.379
-81.0,-7.0,6.38
-131.0,-25.0,6.381
-184.0,-21.0,6.382
-217.0,-12.0,6.383
-221.0,-11.0,6.384
-201.0,-12.0,6.385
-155.0,-9.0,6.386
-93.0,-9.0,6.387
-39.0,-21.0,6.388
-17.0,-28.0,6.389
-29.0,-11.0,6.39
-58.0,14.0,6.391
-78.0,21.0,6.392
-70.0,6.0,6.393
-27.0,-8.0,6.394
40.0,-4.0,6.395
101.0,14.0,6.396
125.0,36.0,6.397
100.0,46.0,6.398
35.0,39.0,6.399
-41.0,16.0,6.4
-106.0,-10.0,6.401
-141.0,-14.0,6.402
-146.0,0.0,6.403
-141.0,15.0,6.404
-152.0,15.0,6.405
-186.0,2.0,6.406
-215.0,-15.0,6.407
-214.0,-29.0,6.408
-176.0,-33.0,6.409
-120.0,-28.0,6.41
-66.0,-20.0,6.411
-25.0,-13.0,6.412
0.0,-9.0,6.413
16.0,-8.0,6.414
41.0,-11.0,6.415
73.0,-11.0,6.416
93.0,-3.0,6.417
90.0,9.0,6.418
76.0,15.0,6.419
60.0,4.0,6.42
44.0,-14.0,6.421
25.0,-23.0,6.422
14.0,-21.0,6.423
12.0,-13.0,6.424
2.0,-8.0,6.425
-22.0,-8.0,6.426
-40.0,-8.0,6.427
-35.0,0.0,6.428
-21.0,16.0,6.429
-19.0,25.0,6.43
-27.0,15.0,6.431
-36.0,9.0,6.432
-33.0,23.0,6.433
-18.0,39.0,6.434
7.0,30.0,6.435
36.0,6.0,6.436
52.0,0.0,6.437
49.0,9.0,6.438
38.0,11.0,6.439
27.0,-3.0,6.44
27.0,-19.0,6.441
47.0,-21.0,6.442
72.0,-21.0,6.443
67.0,-31.0,6.444
16.0,-36.0,6.445
-39.0,-27.0,6.446
-50.0,-14.0,6.447
-11.0,-3.0,6.448
33.0,10.0,6.449
65.0,25.0,6.45
92.0,25.0,6.451
104.0,7.0,6.452
81.0,-11.0,6.453
39.0,-12.0,6.454
18.0,-1.0,6.455
24.0,11.0,6.456
30.0,17.0,6.457
10.0,13.0,6.458
-21.0,9.0,6.459
-46.0,5.0,6.46
-66.0,0.0,6.461
-86.0,0.0,6.462
-97.0,3.0,6.463
-98.0,13.0,6.464
-86.0,22.0,6.465
-56.0,22.0,6.466
-9.0,5.0,6.467
36.0,-13.0,6.468
53.0,-22.0,6.469
47.0,-15.0,6.47
33.0,-8.0,6.471
20.0,-4.0,6.472
6.0,0.0,6.473
0.0,6.0,6.474
16.0,11.0,6.475
42.0,10.0,6.476
52.0,10.0,6.477
36.0,4.0,6.478
24.0,-2.0,6.479
37.0,-5.0,6.48
63.0,-9.0,6.481
80.0,-14.0,6.482
87.0,-25.0,6.483
107.0,-32.0,6.484
135.0,-27.0,6.485
145.0,-18.0,6.486
125.0,-15.0,6.487
110.0,-15.0,6.488
141.0,-6.0,6.489
198.0,8.0,6.49
221.0,11.0,6.491
193.0,4.0,6.492
153.0,2.0,6.493
137.0,9.0,6.494
126.0,15.0,6.495
97.0,15.0,6.496
61.0,13.0,6.497
26.0,10.0,6.498
-5.0,1.0,6.499
-39.0,-6.0,6.5
-66.0,-8.0,6.501
-81.0,-10.0,6.502
-92.0,-10.0,6.503
-109.0,-9.0,6.504
-126.0,-11.0,6.505
-134.0,-13.0,6.506
-128.0,-11.0,6.507
-107.0,-8.0,6.508
-80.0,-5.0,6.509
-54.0,-2.0,6.51
-34.0,0.0,6.511
-20.0,3.0,6.512
-15.0,6.0,6.513
-20.0,8.0,6.514
-34.0,11.0,6.515
-47.0,15.0,6.516
-55.0,18.0,6.517
-65.0,9.0,6.518
-80.0,1.0,6.519
-100.0,-6.0,6.52
-121.0,-7.0,6.521
-141.0,-9.0,6.522
-152.0,-9.0,6.523
-154.0,-8.0,6.524
-152.0,-10.0,6.525
-151.0,-12.0,6.526
-144.0,-10.0,6.527
-127.0,-7.0,6.528
-103.0,-5.0,6.529
-79.0,-2.0,6.53
-53.0,0.0,6.531
-25.0,3.0,6.532
-4.0,5.0,6.533
1.0,7.0,6.534
-4.0,10.0,6.535
-7.0,13.0,6.536
-8.0,16.0,6.537
-20.0,19.0,6.538
-40.0,14.0,6.539
-58.0,5.0,6.54
-70.0,-7.0,6.541
-78.0,-12.0,6.542
-75.0,-10.0,6.543
-72.0,-7.0,6.544
-69.0,-10.0,6.545
-64.0,-18.0,6.546
-58.0,-25.0,6.547
-46.0,-24.0,6.548
-18.0,-16.0,6.549
7.0,-9.0,6.55
22.0,-4.0,6.551
37.0,-1.0,6.552
49.0,1.0,6.553
60.0,6.0,6.554
67.0,10.0,6.555
73.0,15.0,6.556
73.0,18.0,6.557
68.0,14.0,6.558
43.0,8.0,6.559
13.0,2.0,6.56
-9.0,-4.0,6.561
-22.0,-8.0,6.562
-28.0,-13.0,6.563
-33.0,-14.0,6.564
-43.0,-14.0,6.565
-53.0,-18.0,6.566
-50.0,-21.0,6.567
-29.0,-17.0,6.568
0.0,-2.0,6.569
21.0,16.0,6.57
38.0,23.0,6.571
55.0,14.0,6.572
72.0,0.0,6.573
81.0,-2.0,6.574
86.0,8.0,6.575
89.0,21.0,6.576
87.0,28.0,6.577
71.0,20.0,6.578
45.0,6.0,6.579
22.0,-5.0,6.58
6.0,-13.0,6.581
-5.0,-16.0,6.582
-10.0,-18.0,6.583
-11.0,-16.0,6.584
-17.0,-9.0,6.585
-26.0,-3.0,6.586
-28.0,-9.0,6.587
-14.0,-17.0,6.588
13.0,-14.0,6.589
32.0,-2.0,6.59
40.0,6.0,6.591
46.0,7.0,6.592
55.0,8.0,6.593
64.0,13.0,6.594
74.0,21.0,6.595
83.0,24.0,6.596
84.0,25.0,6.597
69.0,19.0,6.598
38.0,12.0,6.599
9.0,2.0,6.6
-8.0,-5.0,6.601
-18.0,-8.0,6.602
-27.0,-7.0,6.603
-35.0,-7.0,6.604
-41.0,-7.0,6.605
-44.0,-12.0,6.606
-42.0,-19.0,6.607
-24.0,-22.0,6.608
5.0,-21.0,6.609
33.0,-22.0,6.61
51.0,-22.0,6.611
71.0,-12.0,6.612
96.0,8.0,6.613
118.0,21.0,6.614
131.0,20.0,6.615
140.0,14.0,6.616
142.0,15.0,6.617
126.0,18.0,6.618
94.0,13.0,6.619
57.0,4.0,6.62
31.0,-5.0,6.621
11.0,-7.0,6.622
-12.0,-12.0,6.623
-35.0,-13.0,6.624
-49.0,-9.0,6.625
-55.0,-8.0,6.626
-51.0,-15.0,6.627
-35.0,-24.0,6.628
-12.0,-20.0,6.629
5.0,-7.0,6.63
17.0,3.0,6.631
31.0,5.0,6.632
51.0,8.0,6.633
67.0,14.0,6.634
67.0,21.0,6.635
63.0,26.0,6.636
58.0,26.0,6.637
37.0,18.0,6.638
-1.0,5.0,6.639
-43.0,-7.0,6.64
-69.0,-14.0,6.641
-83.0,-15.0,6.642
-96.0,-14.0,6.643
-106.0,-14.0,6.644
-111.0,-15.0,6.645
-112.0,-19.0,6.646
-108.0,-23.0,6.647
-88.0,-19.0,6.648
-53.0,-11.0,6.649
-20.0,-6.0,6.65
2.0,-7.0,6.651
24.0,-5.0,6.652
48.0,3.0,6.653
64.0,17.0,6.654
72.0,30.0,6.655
75.0,38.0,6.656
72.0,36.0,6.657
49.0,19.0,6.658
14.0,2.0,6.659
-20.0,-1.0,6.66
-43.0,0.0,6.661
-65.0,-4.0,6.662
-87.0,-18.0,6.663
-96.0,-29.0,6.664
-95.0,-29.0,6.665
-94.0,-27.0,6.666
-95.0,-30.0,6.667
-78.0,-30.0,6.668
-42.0,-18.0,6.669
0.0,-5.0,6.67
32.0,0.0,6.671
59.0,3.0,6.672
85.0,10.0,6.673
104.0,21.0,6.674
113.0,25.0,6.675
110.0,24.0,6.676
94.0,25.0,6.677
58.0,28.0,6.678
17.0,24.0,6.679
-12.0,10.0,6.68
-29.0,-6.0,6.681
-48.0,-14.0,6.682
-71.0,-14.0,6.683
-90.0,-10.0,6.684
-106.0,-7.0,6.685
-118.0,-8.0,6.686
-111.0,-14.0,6.687
-73.0,-21.0,6.688
-19.0,-19.0,6.689
22.0,-8.0,6.69
45.0,4.0,6.691
70.0,12.0,6.692
101.0,14.0,6.693
118.0,16.0,6.694
121.0,17.0,6.695
116.0,16.0,6.696
106.0,13.0,6.697
78.0,7.0,6.698
35.0,0.0,6.699
-4.0,-3.0,6.7
-28.0,-4.0,6.701
-43.0,-6.0,6.702
-51.0,-12.0,6.703
-53.0,-20.0,6.704
-59.0,-22.0,6.705
-74.0,-18.0,6.706
-81.0,-15.0,6.707
-62.0,-13.0,6.708
-23.0,-10.0,6.709
9.0,-3.0,6.71
25.0,4.0,6.711
41.0,11.0,6.712
64.0,19.0,6.713
85.0,22.0,6.714
97.0,20.0,6.715
99.0,22.0,6.716
91.0,27.0,6.717
66.0,26.0,6.718
27.0,14.0,6.719
-13.0,-6.0,6.72
-46.0,-21.0,6.721
-69.0,-23.0,6.722
-82.0,-20.0,6.723
-89.0,-20.0,6.724
-98.0,-23.0,6.725
-107.0,-25.0,6.726
-100.0,-23.0,6.727
-68.0,-16.0,6.728
-24.0,-8.0,6.729
15.0,4.0,6.73
47.0,17.0,6.731
81.0,30.0,6.732
108.0,34.0,6.733
119.0,29.0,6.734
121.0,19.0,6.735
120.0,14.0,6.736
113.0,15.0,6.737
79.0,12.0,6.738
30.0,8.0,6.739
-14.0,3.0,6.74
-43.0,2.0,6.741
-64.0,11.0,6.742
-81.0,31.0,6.743
-89.0,54.0,6.744
-92.0,68.0,6.745
-96.0,60.0,6.746
-90.0,42.0,6.747
-61.0,30.0,6.748
-15.0,28.0,6.749
29.0,25.0,6.75
57.0,14.0,6.751
80.0,0.0,6.752
102.0,-12.0,6.753
116.0,-25.0,6.754
119.0,-37.0,6.755
115.0,-56.0,6.756
108.0,-83.0,6.757
83.0,-113.0,6.758
41.0,-125.0,6.759
-7.0,-113.0,6.76
-44.0,-94.0,6.761
-67.0,-76.0,6.762
-78.0,-57.0,6.763
-88.0,-28.0,6.764
-98.0,17.0,6.765
-106.0,85.0,6.766
-100.0,163.0,6.767
-69.0,209.0,6.768
-21.0,180.0,6.769
24.0,90.0,6.77
56.0,-1.0,6.771
81.0,-56.0,6.772
107.0,-83.0,6.773
129.0,-106.0,6.774
141.0,-117.0,6.775
140.0,-116.0,6.776
127.0,-129.0,6.777
86.0,-188.0,6.778
26.0,-261.0,6.779
-37.0,-287.0,6.78
-85.0,-238.0,6.781
-110.0,-134.0,6.782
-117.0,-15.0,6.783
-116.0,88.0,6.784
-114.0,159.0,6.785
-111.0,197.0,6.786
-97.0,210.0,6.787
-55.0,209.0,6.788
3.0,189.0,6.789
51.0,153.0,6.79
73.0,118.0,6.791
84.0,108.0,6.792
102.0,120.0,6.793
124.0,127.0,6.794
137.0,114.0,6.795
140.0,89.0,6.796
130.0,68.0,6.797
96.0,41.0,6.798
39.0,12.0,6.799
-23.0,-7.0,6.8
-73.0,-21.0,6.801
-111.0,-50.0,6.802
-137.0,-118.0,6.803
-148.0,-210.0,6.804
-147.0,-283.0,6.805
-136.0,-305.0,6.806
-110.0,-256.0,6.807
-63.0,-132.0,6.808
-5.0,45.0,6.809
44.0,203.0,6.81
77.0,265.0,6.811
106.0,234.0,6.812
130.0,197.0,6.813
142.0,213.0,6.814
141.0,244.0,6.815
138.0,228.0,6.816
131.0,188.0,6.817
98.0,176.0,6.818
43.0,180.0,6.819
-13.0,123.0,6.82
-50.0,-25.0,6.821
-72.0,-167.0,6.822
-89.0,-221.0,6.823
-106.0,-208.0,6.824
-119.0,-196.0,6.825
-129.0,-215.0,6.826
-124.0,-245.0,6.827
-88.0,-284.0,6.828
-27.0,-342.0,6.829
35.0,-401.0,6.83
78.0,-425.0,6.831
103.0,-392.0,6.832
124.0,-301.0,6.833
149.0,-152.0,6.834
179.0,32.0,6.835
200.0,207.0,6.836
196.0,343.0,6.837
162.0,468.0,6.838
117.0,599.0,6.839
76.0,704.0,6.84
32.0,715.0,6.841
-24.0,628.0,6.842
-82.0,505.0,6.843
-121.0,386.0,6.844
-147.0,247.0,6.845
-168.0,54.0,6.846
-169.0,-172.0,6.847
-140.0,-389.0,6.848
-93.0,-589.0,6.849
-59.0,-779.0,6.85
-40.0,-941.0,6.851
-22.0,-1034.0,6.852
2.0,-1035.0,6.853
24.0,-922.0,6.854
38.0,-685.0,6.855
53.0,-367.0,6.856
66.0,-77.0,6.857
64.0,155.0,6.858
42.0,333.0,6.859
12.0,481.0,6.86
-11.0,577.0,6.861
-24.0,602.0,6.862
-37.0,578.0,6.863
-53.0,564.0,6.864
-73.0,582.0,6.865
-91.0,609.0,6.866
-98.0,601.0,6.867
-81.0,518.0,6.868
-45.0,366.0,6.869
-12.0,228.0,6.87
-3.0,180.0,6.871
-20.0,207.0,6.872
-41.0,227.0,6.873
-42.0,196.0,6.874
-24.0,105.0,6.875
-3.0,-80.0,6.876
1.0,-369.0,6.877
-10.0,-739.0,6.878
-29.0,-1022.0,6.879
-45.0,-1098.0,6.88
-61.0,-991.0,6.881
-75.0,-790.0,6.882
-81.0,-556.0,6.883
-72.0,-316.0,6.884
-56.0,-96.0,6.885
-43.0,74.0,6.886
-32.0,183.0,6.887
-14.0,241.0,6.888
19.0,270.0,6.889
62.0,308.0,6.89
100.0,372.0,6.891
126.0,447.0,6.892
132.0,487.0,6.893
123.0,469.0,6.894
110.0,416.0,6.895
99.0,371.0,6.896
85.0,356.0,6.897
45.0,362.0,6.898
-19.0,389.0,6.899
-81.0,425.0,6.9
-120.0,419.0,6.901
-138.0,318.0,6.902
-145.0,112.0,6.903
-145.0,-124.0,6.904
-142.0,-307.0,6.905
-135.0,-418.0,6.906
-120.0,-480.0,6.907
-83.0,-497.0,6.908
-17.0,-464.0,6.909
56.0,-408.0,6.91
112.0,-372.0,6.911
146.0,-337.0,6.912
169.0,-243.0,6.913
191.0,-94.0,6.914
204.0,30.0,6.915
206.0,92.0,6.916
198.0,136.0,6.917
174.0,197.0,6.918
131.0,226.0,6.919
75.0,171.0,6.92
29.0,59.0,6.921
6.0,-44.0,6.922
-15.0,-121.0,6.923
-45.0,-174.0,6.924
-78.0,-180.0,6.925
-92.0,-128.0,6.926
-81.0,-59.0,6.927
-53.0,-16.0,6.928
-22.0,2.0,6.929
2.0,9.0,6.93
19.0,-12.0,6.931
37.0,-57.0,6.932
64.0,-89.0,6.933
93.0,-75.0,6.934
112.0,-30.0,6.935
115.0,28.0,6.936
107.0,109.0,6.937
82.0,213.0,6.938
37.0,297.0,6.939
-17.0,323.0,6.94
-65.0,293.0,6.941
-103.0,249.0,6.942
-138.0,216.0,6.943
-162.0,209.0,6.944
-161.0,218.0,6.945
-134.0,191.0,6.946
-102.0,99.0,6.947
-75.0,-13.0,6.948
-48.0,-77.0,6.949
-18.0,-105.0,6.95
9.0,-173.0,6.951
34.0,-293.0,6.952
62.0,-381.0,6.953
96.0,-372.0,6.954
124.0,-304.0,6.955
138.0,-238.0,6.956
136.0,-179.0,6.957
109.0,-97.0,6.958
71.0,-7.0,6.959
40.0,64.0,6.96
23.0,78.0,6.961
7.0,80.0,6.962
-16.0,38.0,6.963
-38.0,-3.0,6.964
-49.0,-44.0,6.965
-51.0,-64.0,6.966
-46.0,-18.0,6.967
-27.0,46.0,6.968
3.0,166.0,6.969
33.0,232.0,6.97
52.0,132.0,6.971
72.0,33.0,6.972
98.0,-60.0,6.973
119.0,-114.0,6.974
117.0,-46.0,6.975
93.0,-5.0,6.976
66.0,-51.0,6.977
32.0,-113.0,6.978
-8.0,-221.0,6.979
-48.0,-321.0,6.98
-71.0,-400.0,6.981
-74.0,-441.0,6.982
-76.0,-423.0,6.983
-89.0,-306.0,6.984
-102.0,-85.0,6.985
-100.0,171.0,6.986
-76.0,345.0,6.987
-37.0,390.0,6.988
5.0,366.0,6.989
42.0,355.0,6.99
58.0,382.0,6.991
49.0,432.0,6.992
29.0,503.0,6.993
20.0,574.0,6.994
27.0,586.0,6.995
39.0,507.0,6.996
45.0,409.0,6.997
31.0,358.0,6.998
-3.0,331.0,6.999
-56.0,203.0,7.0
-102.0,-78.0,7.001
-122.0,-409.0,7.002
-118.0,-664.0,7.003
-109.0,-809.0,7.004
-108.0,-855.0,7.005
-113.0,-796.0,7.006
-113.0,-654.0,7.007
-96.0,-490.0,7.008
-54.0,-334.0,7.009
6.0,-154.0,7.01
71.0,58.0,7.011
119.0,220.0,7.012
148.0,280.0,7.013
164.0,295.0,7.014
167.0,335.0,7.015
153.0,356.0,7.016
124.0,283.0,7.017
79.0,115.0,7.018
30.0,-48.0,7.019
-18.0,-154.0,7.02
-57.0,-236.0,7.021
-86.0,-289.0,7.022
-104.0,-271.0,7.023
-119.0,-180.0,7.024
-136.0,-76.0,7.025
-157.0,8.0,7.026
-169.0,90.0,7.027
-156.0,163.0,7.028
-114.0,194.0,7.029
-56.0,192.0,7.03
0.0,220.0,7.031
41.0,302.0,7.032
66.0,394.0,7.033
79.0,452.0,7.034
77.0,449.0,7.035
68.0,358.0,7.036
64.0,192.0,7.037
64.0,-15.0,7.038
66.0,-184.0,7.039
49.0,-298.0,7.04
10.0,-390.0,7.041
-35.0,-465.0,7.042
-64.0,-503.0,7.043
-70.0,-480.0,7.044
-66.0,-379.0,7.045
-62.0,-206.0,7.046
-56.0,-26.0,7.047
-37.0,67.0,7.048
-2.0,46.0,7.049
47.0,-23.0,7.05
94.0,-48.0,7.051
120.0,-1.0,7.052
126.0,84.0,7.053
127.0,169.0,7.054
134.0,226.0,7.055
135.0,252.0,7.056
115.0,243.0,7.057
63.0,186.0,7.058
6.0,106.0,7.059
-29.0,49.0,7.06
-38.0,51.0,7.061
-44.0,124.0,7.062
-69.0,232.0,7.063
-111.0,295.0,7.064
-146.0,209.0,7.065
-153.0,-54.0,7.066
-131.0,-367.0,7.067
-94.0,-549.0,7.068
-60.0,-562.0,7.069
-32.0,-488.0,7.07
0.0,-366.0,7.071
37.0,-172.0,7.072
66.0,30.0,7.073
83.0,109.0,7.074
95.0,83.0,7.075
110.0,122.0,7.076
115.0,292.0,7.077
92.0,482.0,7.078
49.0,546.0,7.079
14.0,490.0,7.08
1.0,398.0,7.081
-3.0,278.0,7.082
-10.0,94.0,7.083
-19.0,-107.0,7.084
-23.0,-238.0,7.085
-27.0,-275.0,7.086
-36.0,-273.0,7.087
-38.0,-280.0,7.088
-22.0,-271.0,7.089
-2.0,-200.0,7.09
7.0,-66.0,7.091
-3.0,46.0,7.092
-25.0,48.0,7.093
-44.0,-69.0,7.094
-39.0,-220.0,7.095
0.0,-314.0,7.096
51.0,-303.0,7.097
78.0,-140.0,7.098
70.0,160.0,7.099
42.0,425.0,7.1
17.0,434.0,7.101
0.0,227.0,7.102
-11.0,92.0,7.103
-8.0,188.0,7.104
0.0,295.0,7.105
3.0,122.0,7.106
-5.0,-272.0,7.107
-16.0,-565.0,7.108
-22.0,-577.0,7.109
