Deltoid,Bicep,Time
-53.0,-3.0,0.0
-42.0,-7.0,0.001
-21.0,-8.0,0.002
3.0,-7.0,0.003
23.0,-5.0,0.004
26.0,-4.0,0.005
12.0,-3.0,0.006
-10.0,0.0,0.007
-21.0,4.0,0.008
-14.0,9.0,0.009
0.0,12.0,0.01
16.0,11.0,0.011
32.0,3.0,0.012
47.0,-3.0,0.013
52.0,-1.0,0.014
43.0,5.0,0.015
32.0,8.0,0.016
25.0,3.0,0.017
12.0,-4.0,0.018
-7.0,-7.0,0.019
-20.0,-6.0,0.02
-19.0,-8.0,0.021
-12.0,-9.0,0.022
-6.0,-6.0,0.023
2.0,-3.0,0.024
13.0,-2.0,0.025
15.0,0.0,0.026
1.0,7.0,0.027
-16.0,9.0,0.028
-29.0,3.0,0.029
-32.0,-4.0,0.03
-27.0,-5.0,0.031
-17.0,-4.0,0.032
-4.0,-4.0,0.033
5.0,-6.0,0.034
12.0,-6.0,0.035
21.0,-5.0,0.036
30.0,-2.0,0.037
33.0,0.0,0.038
33.0,5.0,0.039
30.0,4.0,0.04
19.0,0.0,0.041
9.0,1.0,0.042
1.0,6.0,0.043
-6.0,6.0,0.044
-4.0,1.0,0.045
-4.0,-3.0,0.046
-10.0,-2.0,0.047
-14.0,-3.0,0.048
-8.0,-7.0,0.049
-5.0,-7.0,0.05
-11.0,-3.0,0.051
-14.0,0.0,0.052
-8.0,-1.0,0.053
-3.0,-3.0,0.054
-1.0,-3.0,0.055
1.0,-4.0,0.056
5.0,-3.0,0.057
5.0,-2.0,0.058
0.0,2.0,0.059
-5.0,4.0,0.06
-9.0,-1.0,0.061
-14.0,-6.0,0.062
-16.0,-5.0,0.063
-7.0,-2.0,0.064
1.0,0.0,0.065
3.0,1.0,0.066
3.0,-1.0,0.067
10.0,-2.0,0.068
21.0,-3.0,0.069
28.0,0.0,0.07
31.0,4.0,0.071
27.0,5.0,0.072
16.0,2.0,0.073
0.0,-1.0,0.074
-4.0,-2.0,0.075
4.0,1.0,0.076
11.0,4.0,0.077
3.0,1.0,0.078
-2.0,-4.0,0.079
-6.0,-6.0,0.08
-2.0,-6.0,0.081
1.0,-5.0,0.082
3.0,-6.0,0.083
6.0,-4.0,0.084
6.0,2.0,0.085
5.0,7.0,0.086
0.0,3.0,0.087
-5.0,-3.0,0.088
-5.0,-6.0,0.089
-5.0,-3.0,0.09
-6.0,-2.0,0.091
-7.0,-4.0,0.092
-4.0,-8.0,0.093
0.0,-8.0,0.094
4.0,-8.0,0.095
7.0,-6.0,0.096
11.0,2.0,0.097
15.0,10.0,0.098
15.0,12.0,0.099
14.0,8.0,0.1
7.0,0.0,0.101
1.0,-2.0,0.102
2.0,-3.0,0.103
5.0,0.0,0.104
4.0,2.0,0.105
-4.0,4.0,0.106
-10.0,4.0,0.107
-10.0,1.0,0.108
-8.0,-2.0,0.109
-9.0,-4.0,0.11
-5.0,-6.0,0.111
1.0,-6.0,0.112
10.0,-1.0,0.113
18.0,5.0,0.114
27.0,11.0,0.115
32.0,11.0,0.116
33.0,7.0,0.117
24.0,1.0,0.118
14.0,0.0,0.119
0.0,1.0,0.12
-10.0,-4.0,0.121
-14.0,-8.0,0.122
-10.0,-8.0,0.123
-4.0,-5.0,0.124
-7.0,-4.0,0.125
-18.0,-7.0,0.126
-27.0,-8.0,0.127
-28.0,-2.0,0.128
-25.0,1.0,0.129
-22.0,-3.0,0.13
-21.0,-7.0,0.131
-18.0,-6.0,0.132
-10.0,-2.0,0.133
5.0,0.0,0.134
27.0,4.0,0.135
43.0,14.0,0.136
46.0,23.0,0.137
42.0,15.0,0.138
40.0,2.0,0.139
41.0,-5.0,0.14
35.0,-8.0,0.141
20.0,-13.0,0.142
5.0,-16.0,0.143
-2.0,-8.0,0.144
-5.0,3.0,0.145
-11.0,6.0,0.146
-12.0,-2.0,0.147
-4.0,-7.0,0.148
7.0,-4.0,0.149
11.0,-3.0,0.15
7.0,-6.0,0.151
5.0,-9.0,0.152
8.0,-6.0,0.153
12.0,-2.0,0.154
10.0,0.0,0.155
2.0,4.0,0.156
0.0,14.0,0.157
-1.0,25.0,0.158
0.0,30.0,0.159
-5.0,30.0,0.16
-14.0,11.0,0.161
-21.0,-5.0,0.162
-20.0,-13.0,0.163
-14.0,-17.0,0.164
-7.0,-11.0,0.165
-4.0,-7.0,0.166
-6.0,-7.0,0.167
-10.0,-8.0,0.168
-17.0,-8.0,0.169
-21.0,-10.0,0.17
-16.0,-23.0,0.171
-5.0,-28.0,0.172
0.0,-7.0,0.173
-3.0,7.0,0.174
-13.0,-1.0,0.175
-22.0,-7.0,0.176
-29.0,-8.0,0.177
-33.0,-8.0,0.178
-28.0,-4.0,0.179
-21.0,-8.0,0.18
-17.0,-11.0,0.181
-14.0,-6.0,0.182
-3.0,-4.0,0.183
16.0,-8.0,0.184
27.0,-5.0,0.185
23.0,6.0,0.186
23.0,14.0,0.187
38.0,11.0,0.188
50.0,9.0,0.189
46.0,9.0,0.19
35.0,9.0,0.191
38.0,6.0,0.192
53.0,8.0,0.193
60.0,14.0,0.194
48.0,13.0,0.195
30.0,2.0,0.196
15.0,-3.0,0.197
3.0,-3.0,0.198
-4.0,0.0,0.199
-14.0,2.0,0.2
-25.0,0.0,0.201
-27.0,3.0,0.202
-17.0,3.0,0.203
-2.0,3.0,0.204
2.0,8.0,0.205
-4.0,12.0,0.206
-6.0,6.0,0.207
1.0,-4.0,0.208
6.0,-9.0,0.209
-1.0,-5.0,0.21
-13.0,-3.0,0.211
-17.0,-8.0,0.212
-12.0,-13.0,0.213
-7.0,-11.0,0.214
-5.0,-5.0,0.215
-4.0,0.0,0.216
-2.0,3.0,0.217
3.0,4.0,0.218
14.0,4.0,0.219
18.0,2.0,0.22
17.0,-5.0,0.221
17.0,-11.0,0.222
24.0,-18.0,0.223
35.0,-15.0,0.224
37.0,-6.0,0.225
25.0,4.0,0.226
2.0,6.0,0.227
-24.0,3.0,0.228
-43.0,5.0,0.229
-50.0,15.0,0.23
-49.0,24.0,0.231
-47.0,22.0,0.232
-47.0,8.0,0.233
-47.0,-6.0,0.234
-43.0,-15.0,0.235
-33.0,-18.0,0.236
-14.0,-17.0,0.237
14.0,-13.0,0.238
43.0,-5.0,0.239
54.0,1.0,0.24
44.0,-4.0,0.241
28.0,-17.0,0.242
22.0,-26.0,0.243
27.0,-18.0,0.244
32.0,0.0,0.245
27.0,17.0,0.246
14.0,25.0,0.247
4.0,19.0,0.248
2.0,6.0,0.249
9.0,-3.0,0.25
15.0,-5.0,0.251
18.0,-3.0,0.252
13.0,-4.0,0.253
0.0,-5.0,0.254
-11.0,-1.0,0.255
-11.0,5.0,0.256
3.0,6.0,0.257
15.0,-1.0,0.258
16.0,-10.0,0.259
15.0,-14.0,0.26
4.0,-15.0,0.261
-3.0,-9.0,0.262
2.0,-2.0,0.263
14.0,3.0,0.264
38.0,0.0,0.265
58.0,-5.0,0.266
63.0,-3.0,0.267
60.0,3.0,0.268
30.0,4.0,0.269
-1.0,0.0,0.27
-39.0,0.0,0.271
-67.0,11.0,0.272
-61.0,30.0,0.273
-52.0,35.0,0.274
-38.0,24.0,0.275
-28.0,7.0,0.276
-32.0,-2.0,0.277
-34.0,-9.0,0.278
-24.0,-14.0,0.279
-11.0,-17.0,0.28
-5.0,-21.0,0.281
-6.0,-17.0,0.282
-3.0,-11.0,0.283
7.0,-5.0,0.284
17.0,0.0,0.285
16.0,3.0,0.286
11.0,5.0,0.287
9.0,4.0,0.288
12.0,0.0,0.289
8.0,-1.0,0.29
2.0,2.0,0.291
6.0,7.0,0.292
18.0,8.0,0.293
21.0,1.0,0.294
15.0,-10.0,0.295
11.0,-18.0,0.296
17.0,-16.0,0.297
20.0,-9.0,0.298
12.0,-3.0,0.299
-1.0,0.0,0.3
-3.0,-3.0,0.301
3.0,-4.0,0.302
8.0,-3.0,0.303
9.0,-1.0,0.304
5.0,2.0,0.305
0.0,5.0,0.306
-5.0,4.0,0.307
-6.0,0.0,0.308
-4.0,-3.0,0.309
-4.0,-1.0,0.31
-2.0,2.0,0.311
6.0,1.0,0.312
20.0,0.0,0.313
28.0,-1.0,0.314
23.0,1.0,0.315
12.0,3.0,0.316
4.0,8.0,0.317
-2.0,8.0,0.318
-7.0,3.0,0.319
-17.0,-2.0,0.32
-26.0,-8.0,0.321
-33.0,-8.0,0.322
-31.0,-7.0,0.323
-14.0,-5.0,0.324
3.0,-2.0,0.325
-5.0,1.0,0.326
-35.0,1.0,0.327
-48.0,-1.0,0.328
-17.0,4.0,0.329
20.0,15.0,0.33
12.0,15.0,0.331
-27.0,2.0,0.332
-37.0,-7.0,0.333
-4.0,-3.0,0.334
33.0,5.0,0.335
48.0,1.0,0.336
75.0,-7.0,0.337
123.0,-9.0,0.338
144.0,-3.0,0.339
102.0,3.0,0.34
44.0,7.0,0.341
31.0,17.0,0.342
57.0,21.0,0.343
77.0,8.0,0.344
72.0,-8.0,0.345
54.0,-9.0,0.346
22.0,6.0,0.347
-15.0,21.0,0.348
-40.0,20.0,0.349
-44.0,3.0,0.35
-49.0,-19.0,0.351
-66.0,-34.0,0.352
-83.0,-33.0,0.353
-86.0,-20.0,0.354
-81.0,-9.0,0.355
-70.0,-4.0,0.356
-54.0,3.0,0.357
-34.0,11.0,0.358
-20.0,12.0,0.359
-17.0,7.0,0.36
-19.0,0.0,0.361
-17.0,0.0,0.362
-11.0,-1.0,0.363
-4.0,-4.0,0.364
1.0,-6.0,0.365
4.0,-7.0,0.366
5.0,-14.0,0.367
9.0,-19.0,0.368
12.0,-9.0,0.369
15.0,13.0,0.37
15.0,27.0,0.371
14.0,18.0,0.372
5.0,-4.0,0.373
-8.0,-22.0,0.374
-15.0,-30.0,0.375
-11.0,-25.0,0.376
-4.0,-15.0,0.377
0.0,-8.0,0.378
2.0,-6.0,0.379
3.0,-5.0,0.38
1.0,-5.0,0.381
-1.0,-4.0,0.382
1.0,-8.0,0.383
9.0,-8.0,0.384
15.0,4.0,0.385
10.0,10.0,0.386
0.0,-2.0,0.387
-5.0,-12.0,0.388
0.0,-10.0,0.389
16.0,-7.0,0.39
35.0,-1.0,0.391
42.0,4.0,0.392
28.0,3.0,0.393
5.0,3.0,0.394
-12.0,9.0,0.395
-20.0,14.0,0.396
-30.0,12.0,0.397
-48.0,9.0,0.398
-61.0,4.0,0.399
-61.0,8.0,0.4
-40.0,12.0,0.401
2.0,4.0,0.402
60.0,-12.0,0.403
105.0,-14.0,0.404
111.0,3.0,0.405
85.0,17.0,0.406
57.0,13.0,0.407
45.0,6.0,0.408
41.0,5.0,0.409
28.0,1.0,0.41
9.0,-12.0,0.411
-5.0,-26.0,0.412
-7.0,-19.0,0.413
2.0,-5.0,0.414
16.0,2.0,0.415
22.0,1.0,0.416
20.0,6.0,0.417
10.0,13.0,0.418
-2.0,14.0,0.419
-17.0,4.0,0.42
-29.0,-9.0,0.421
-28.0,-9.0,0.422
-21.0,0.0,0.423
-25.0,11.0,0.424
-46.0,14.0,0.425
-58.0,7.0,0.426
-44.0,-5.0,0.427
-16.0,-9.0,0.428
0.0,-2.0,0.429
2.0,8.0,0.43
2.0,11.0,0.431
6.0,2.0,0.432
12.0,-3.0,0.433
23.0,-2.0,0.434
43.0,0.0,0.435
61.0,-1.0,0.436
59.0,0.0,0.437
36.0,4.0,0.438
14.0,6.0,0.439
-3.0,0.0,0.44
-7.0,-8.0,0.441
-12.0,-6.0,0.442
-17.0,1.0,0.443
-19.0,0.0,0.444
-13.0,-6.0,0.445
-11.0,-8.0,0.446
-19.0,-5.0,0.447
-26.0,-2.0,0.448
-24.0,-2.0,0.449
-22.0,-3.0,0.45
-17.0,-3.0,0.451
-10.0,-4.0,0.452
0.0,-4.0,0.453
6.0,0.0,0.454
3.0,1.0,0.455
1.0,-2.0,0.456
6.0,-5.0,0.457
9.0,-5.0,0.458
7.0,-1.0,0.459
-1.0,-1.0,0.46
-5.0,-7.0,0.461
-5.0,-7.0,0.462
0.0,-1.0,0.463
4.0,4.0,0.464
6.0,5.0,0.465
4.0,5.0,0.466
5.0,6.0,0.467
2.0,6.0,0.468
-6.0,4.0,0.469
-15.0,1.0,0.47
-13.0,-4.0,0.471
-2.0,-8.0,0.472
7.0,-7.0,0.473
9.0,1.0,0.474
19.0,6.0,0.475
40.0,0.0,0.476
59.0,-7.0,0.477
56.0,-7.0,0.478
37.0,0.0,0.479
16.0,1.0,0.48
0.0,-4.0,0.481
-10.0,-6.0,0.482
-13.0,-5.0,0.483
-7.0,0.0,0.484
0.0,8.0,0.485
0.0,11.0,0.486
-5.0,4.0,0.487
-7.0,-4.0,0.488
-4.0,-3.0,0.489
-3.0,1.0,0.49
-6.0,-2.0,0.491
-6.0,-9.0,0.492
-2.0,-11.0,0.493
3.0,-4.0,0.494
3.0,1.0,0.495
1.0,2.0,0.496
4.0,4.0,0.497
10.0,2.0,0.498
13.0,-1.0,0.499
10.0,-6.0,0.5
4.0,-9.0,0.501
2.0,-3.0,0.502
3.0,5.0,0.503
3.0,4.0,0.504
-3.0,-4.0,0.505
-11.0,-14.0,0.506
-12.0,-19.0,0.507
-7.0,-11.0,0.508
-5.0,5.0,0.509
-9.0,16.0,0.51
-13.0,16.0,0.511
-5.0,7.0,0.512
10.0,-1.0,0.513
16.0,-7.0,0.514
10.0,-9.0,0.515
2.0,-8.0,0.516
3.0,-3.0,0.517
8.0,-1.0,0.518
13.0,-2.0,0.519
10.0,-1.0,0.52
6.0,2.0,0.521
2.0,7.0,0.522
7.0,6.0,0.523
14.0,1.0,0.524
16.0,-4.0,0.525
7.0,-6.0,0.526
-4.0,-7.0,0.527
-10.0,-1.0,0.528
-10.0,5.0,0.529
-12.0,1.0,0.53
-13.0,-10.0,0.531
-8.0,-14.0,0.532
2.0,-5.0,0.533
12.0,7.0,0.534
17.0,12.0,0.535
18.0,14.0,0.536
20.0,19.0,0.537
20.0,17.0,0.538
25.0,10.0,0.539
31.0,5.0,0.54
27.0,6.0,0.541
15.0,6.0,0.542
8.0,0.0,0.543
9.0,-4.0,0.544
9.0,-4.0,0.545
-2.0,-5.0,0.546
-15.0,-9.0,0.547
-18.0,-11.0,0.548
-13.0,-9.0,0.549
-13.0,-8.0,0.55
-15.0,-10.0,0.551
-13.0,-12.0,0.552
-9.0,-7.0,0.553
-8.0,-3.0,0.554
-6.0,-3.0,0.555
-2.0,-3.0,0.556
1.0,-1.0,0.557
-7.0,0.0,0.558
-19.0,-1.0,0.559
-23.0,-5.0,0.56
-16.0,-6.0,0.561
-5.0,-1.0,0.562
3.0,0.0,0.563
16.0,-2.0,0.564
28.0,-2.0,0.565
28.0,0.0,0.566
16.0,-2.0,0.567
6.0,-6.0,0.568
7.0,-5.0,0.569
10.0,1.0,0.57
5.0,5.0,0.571
0.0,1.0,0.572
1.0,-3.0,0.573
0.0,-5.0,0.574
-18.0,-3.0,0.575
-44.0,-2.0,0.576
-56.0,0.0,0.577
-45.0,-4.0,0.578
-25.0,-7.0,0.579
-13.0,-8.0,0.58
1.0,-9.0,0.581
23.0,-6.0,0.582
47.0,3.0,0.583
65.0,20.0,0.584
75.0,39.0,0.585
77.0,47.0,0.586
57.0,36.0,0.587
16.0,7.0,0.588
-17.0,-9.0,0.589
-16.0,-8.0,0.59
7.0,-3.0,0.591
16.0,-4.0,0.592
-1.0,-11.0,0.593
-20.0,-16.0,0.594
-24.0,-18.0,0.595
-14.0,-20.0,0.596
6.0,-14.0,0.597
24.0,0.0,0.598
32.0,13.0,0.599
36.0,10.0,0.6
26.0,-6.0,0.601
18.0,-12.0,0.602
16.0,-3.0,0.603
11.0,5.0,0.604
0.0,3.0,0.605
-12.0,-4.0,0.606
-28.0,-6.0,0.607
-40.0,-4.0,0.608
-38.0,-4.0,0.609
-33.0,-6.0,0.61
-16.0,-3.0,0.611
-5.0,2.0,0.612
-14.0,8.0,0.613
-25.0,7.0,0.614
-37.0,-1.0,0.615
-40.0,-8.0,0.616
-12.0,-7.0,0.617
14.0,-2.0,0.618
25.0,2.0,0.619
10.0,0.0,0.62
1.0,-8.0,0.621
8.0,-8.0,0.622
17.0,-2.0,0.623
18.0,0.0,0.624
15.0,0.0,0.625
8.0,-2.0,0.626
1.0,0.0,0.627
0.0,-1.0,0.628
2.0,-3.0,0.629
2.0,-5.0,0.63
-3.0,-4.0,0.631
-3.0,-2.0,0.632
1.0,-3.0,0.633
4.0,-2.0,0.634
2.0,0.0,0.635
4.0,0.0,0.636
10.0,-1.0,0.637
12.0,-1.0,0.638
6.0,2.0,0.639
2.0,4.0,0.64
3.0,0.0,0.641
2.0,-2.0,0.642
1.0,-1.0,0.643
7.0,2.0,0.644
12.0,4.0,0.645
7.0,3.0,0.646
-1.0,2.0,0.647
-2.0,0.0,0.648
4.0,0.0,0.649
6.0,-1.0,0.65
4.0,-1.0,0.651
4.0,-2.0,0.652
7.0,-3.0,0.653
7.0,0.0,0.654
5.0,3.0,0.655
5.0,4.0,0.656
6.0,3.0,0.657
4.0,2.0,0.658
3.0,2.0,0.659
2.0,3.0,0.66
2.0,0.0,0.661
0.0,0.0,0.662
2.0,1.0,0.663
9.0,0.0,0.664
8.0,1.0,0.665
0.0,2.0,0.666
-5.0,2.0,0.667
-1.0,-2.0,0.668
1.0,-6.0,0.669
-3.0,-6.0,0.67
-5.0,-3.0,0.671
-1.0,-3.0,0.672
11.0,-3.0,0.673
22.0,-2.0,0.674
29.0,1.0,0.675
27.0,3.0,0.676
11.0,1.0,0.677
-17.0,-3.0,0.678
-39.0,-6.0,0.679
-50.0,-8.0,0.68
-46.0,-9.0,0.681
-26.0,-9.0,0.682
9.0,-7.0,0.683
37.0,-3.0,0.684
39.0,0.0,0.685
16.0,4.0,0.686
-13.0,2.0,0.687
-36.0,1.0,0.688
-45.0,5.0,0.689
-36.0,9.0,0.69
-15.0,6.0,0.691
-2.0,-4.0,0.692
-4.0,-8.0,0.693
-6.0,-2.0,0.694
14.0,1.0,0.695
52.0,1.0,0.696
79.0,3.0,0.697
83.0,6.0,0.698
78.0,9.0,0.699
73.0,10.0,0.7
59.0,15.0,0.701
25.0,21.0,0.702
-16.0,16.0,0.703
-35.0,1.0,0.704
-22.0,-8.0,0.705
1.0,-5.0,0.706
15.0,-2.0,0.707
14.0,-8.0,0.708
3.0,-11.0,0.709
-16.0,-9.0,0.71
-38.0,-6.0,0.711
-49.0,-7.0,0.712
-41.0,-10.0,0.713
-18.0,-8.0,0.714
7.0,-5.0,0.715
23.0,-5.0,0.716
26.0,-2.0,0.717
13.0,0.0,0.718
-2.0,0.0,0.719
-13.0,-1.0,0.72
-11.0,-6.0,0.721
-10.0,-10.0,0.722
-12.0,-6.0,0.723
-16.0,-2.0,0.724
-21.0,0.0,0.725
-23.0,0.0,0.726
-14.0,-1.0,0.727
-5.0,-3.0,0.728
0.0,-5.0,0.729
5.0,-6.0,0.73
3.0,-4.0,0.731
3.0,-2.0,0.732
7.0,0.0,0.733
10.0,1.0,0.734
6.0,-1.0,0.735
3.0,-4.0,0.736
5.0,-2.0,0.737
7.0,0.0,0.738
1.0,0.0,0.739
-2.0,1.0,0.74
-4.0,0.0,0.741
-6.0,0.0,0.742
-6.0,0.0,0.743
-1.0,-1.0,0.744
0.0,0.0,0.745
-4.0,2.0,0.746
-5.0,0.0,0.747
4.0,-3.0,0.748
12.0,-4.0,0.749
6.0,-2.0,0.75
0.0,1.0,0.751
8.0,2.0,0.752
21.0,3.0,0.753
26.0,3.0,0.754
23.0,2.0,0.755
19.0,2.0,0.756
19.0,5.0,0.757
17.0,8.0,0.758
12.0,8.0,0.759
5.0,4.0,0.76
1.0,-2.0,0.761
2.0,-4.0,0.762
9.0,-2.0,0.763
11.0,-1.0,0.764
1.0,0.0,0.765
-16.0,0.0,0.766
-24.0,-2.0,0.767
-12.0,-7.0,0.768
8.0,-10.0,0.769
15.0,-8.0,0.77
10.0,-1.0,0.771
5.0,6.0,0.772
12.0,13.0,0.773
23.0,17.0,0.774
25.0,14.0,0.775
20.0,2.0,0.776
12.0,-5.0,0.777
3.0,-7.0,0.778
-5.0,-3.0,0.779
-17.0,-2.0,0.78
-29.0,-9.0,0.781
-36.0,-14.0,0.782
-33.0,-13.0,0.783
-29.0,-8.0,0.784
-32.0,-8.0,0.785
-36.0,-10.0,0.786
-22.0,-13.0,0.787
6.0,-11.0,0.788
31.0,-1.0,0.789
39.0,8.0,0.79
46.0,11.0,0.791
55.0,12.0,0.792
59.0,19.0,0.793
50.0,29.0,0.794
38.0,24.0,0.795
31.0,5.0,0.796
23.0,-10.0,0.797
6.0,-13.0,0.798
-8.0,-6.0,0.799
-13.0,-2.0,0.8
-21.0,-4.0,0.801
-37.0,-2.0,0.802
-50.0,1.0,0.803
-41.0,1.0,0.804
-17.0,-1.0,0.805
3.0,-3.0,0.806
14.0,-4.0,0.807
21.0,-6.0,0.808
24.0,-5.0,0.809
16.0,-1.0,0.81
-3.0,-2.0,0.811
-9.0,-7.0,0.812
0.0,-6.0,0.813
12.0,-2.0,0.814
12.0,0.0,0.815
6.0,-2.0,0.816
4.0,-1.0,0.817
-2.0,2.0,0.818
-13.0,3.0,0.819
-22.0,-3.0,0.82
-22.0,-7.0,0.821
-14.0,-4.0,0.822
-9.0,-2.0,0.823
-7.0,-7.0,0.824
-9.0,-8.0,0.825
-13.0,-1.0,0.826
-10.0,5.0,0.827
0.0,1.0,0.828
9.0,-2.0,0.829
-1.0,1.0,0.83
-22.0,3.0,0.831
-40.0,-4.0,0.832
-46.0,-9.0,0.833
-40.0,-2.0,0.834
-17.0,8.0,0.835
22.0,8.0,0.836
66.0,0.0,0.837
91.0,-4.0,0.838
86.0,-1.0,0.839
57.0,-1.0,0.84
26.0,-6.0,0.841
8.0,-6.0,0.842
3.0,-1.0,0.843
4.0,0.0,0.844
0.0,-2.0,0.845
-12.0,0.0,0.846
-22.0,3.0,0.847
-21.0,0.0,0.848
-15.0,-12.0,0.849
-19.0,-17.0,0.85
-32.0,-14.0,0.851
-40.0,-9.0,0.852
-28.0,-7.0,0.853
-4.0,0.0,0.854
16.0,10.0,0.855
23.0,13.0,0.856
26.0,8.0,0.857
35.0,0.0,0.858
43.0,1.0,0.859
39.0,4.0,0.86
31.0,-3.0,0.861
25.0,-8.0,0.862
12.0,-6.0,0.863
-16.0,1.0,0.864
-38.0,0.0,0.865
-27.0,-6.0,0.866
13.0,-2.0,0.867
42.0,12.0,0.868
41.0,27.0,0.869
20.0,27.0,0.87
7.0,14.0,0.871
6.0,4.0,0.872
6.0,0.0,0.873
-4.0,3.0,0.874
-13.0,4.0,0.875
-10.0,1.0,0.876
5.0,1.0,0.877
19.0,0.0,0.878
14.0,-4.0,0.879
-5.0,-12.0,0.88
-20.0,-22.0,0.881
-19.0,-19.0,0.882
-10.0,-10.0,0.883
-6.0,-7.0,0.884
-12.0,-11.0,0.885
-24.0,-17.0,0.886
-35.0,-16.0,0.887
-34.0,-9.0,0.888
-24.0,2.0,0.889
-12.0,10.0,0.89
-5.0,11.0,0.891
0.0,6.0,0.892
12.0,0.0,0.893
21.0,0.0,0.894
17.0,-1.0,0.895
4.0,-2.0,0.896
-4.0,0.0,0.897
-14.0,0.0,0.898
-23.0,-1.0,0.899
-27.0,0.0,0.9
-22.0,2.0,0.901
-16.0,7.0,0.902
-8.0,10.0,0.903
15.0,7.0,0.904
53.0,3.0,0.905
79.0,5.0,0.906
67.0,9.0,0.907
33.0,6.0,0.908
7.0,-5.0,0.909
-3.0,-14.0,0.91
-3.0,-12.0,0.911
1.0,-3.0,0.912
16.0,7.0,0.913
28.0,12.0,0.914
30.0,9.0,0.915
27.0,3.0,0.916
23.0,0.0,0.917
10.0,3.0,0.918
-15.0,6.0,0.919
-39.0,-1.0,0.92
-40.0,-19.0,0.921
-24.0,-22.0,0.922
-5.0,-6.0,0.923
9.0,6.0,0.924
17.0,-2.0,0.925
15.0,-16.0,0.926
5.0,-14.0,0.927
-1.0,-1.0,0.928
-6.0,1.0,0.929
-20.0,-6.0,0.93
-39.0,-9.0,0.931
-42.0,-6.0,0.932
-23.0,-5.0,0.933
4.0,-6.0,0.934
20.0,-5.0,0.935
27.0,0.0,0.936
28.0,5.0,0.937
21.0,4.0,0.938
9.0,1.0,0.939
5.0,1.0,0.94
15.0,-2.0,0.941
23.0,-1.0,0.942
25.0,0.0,0.943
24.0,3.0,0.944
18.0,6.0,0.945
3.0,7.0,0.946
-14.0,5.0,0.947
-18.0,2.0,0.948
-6.0,0.0,0.949
1.0,0.0,0.95
-5.0,-3.0,0.951
-12.0,-6.0,0.952
-5.0,-5.0,0.953
6.0,-1.0,0.954
5.0,0.0,0.955
-3.0,-2.0,0.956
-5.0,1.0,0.957
-3.0,4.0,0.958
-3.0,2.0,0.959
-6.0,-5.0,0.96
-5.0,-10.0,0.961
-3.0,-4.0,0.962
-10.0,5.0,0.963
-27.0,6.0,0.964
-40.0,0.0,0.965
-41.0,-2.0,0.966
-33.0,-1.0,0.967
-17.0,-2.0,0.968
11.0,-7.0,0.969
45.0,-4.0,0.97
64.0,10.0,0.971
60.0,19.0,0.972
40.0,15.0,0.973
20.0,5.0,0.974
3.0,1.0,0.975
-2.0,4.0,0.976
19.0,9.0,0.977
51.0,3.0,0.978
61.0,-7.0,0.979
28.0,-16.0,0.98
-12.0,-21.0,0.981
-18.0,-14.0,0.982
7.0,-1.0,0.983
26.0,9.0,0.984
12.0,6.0,0.985
-19.0,-5.0,0.986
-38.0,-13.0,0.987
-32.0,-11.0,0.988
-11.0,-3.0,0.989
2.0,1.0,0.99
1.0,0.0,0.991
-3.0,-2.0,0.992
4.0,4.0,0.993
19.0,11.0,0.994
27.0,8.0,0.995
25.0,-4.0,0.996
20.0,-11.0,0.997
9.0,-9.0,0.998
-8.0,-1.0,0.999
-25.0,3.0,1.0
-30.0,0.0,1.001
-21.0,-3.0,1.002
-6.0,-6.0,1.003
2.0,-9.0,1.004
-1.0,-10.0,1.005
-9.0,-5.0,1.006
-15.0,-1.0,1.007
-10.0,-2.0,1.008
-10.0,-4.0,1.009
-21.0,-4.0,1.01
-34.0,-3.0,1.011
-34.0,-6.0,1.012
-23.0,-7.0,1.013
-13.0,-2.0,1.014
-5.0,8.0,1.015
7.0,10.0,1.016
21.0,5.0,1.017
25.0,0.0,1.018
21.0,3.0,1.019
14.0,7.0,1.02
7.0,1.0,1.021
5.0,-2.0,1.022
13.0,2.0,1.023
23.0,9.0,1.024
23.0,9.0,1.025
14.0,2.0,1.026
3.0,-3.0,1.027
1.0,-5.0,1.028
0.0,-6.0,1.029
-1.0,-5.0,1.03
3.0,-2.0,1.031
14.0,0.0,1.032
15.0,-1.0,1.033
7.0,-1.0,1.034
4.0,0.0,1.035
13.0,-1.0,1.036
12.0,-3.0,1.037
-7.0,-2.0,1.038
-21.0,3.0,1.039
-10.0,5.0,1.04
19.0,-6.0,1.041
36.0,-16.0,1.042
32.0,-21.0,1.043
18.0,-19.0,1.044
-1.0,4.0,1.045
-30.0,20.0,1.046
-65.0,12.0,1.047
-78.0,4.0,1.048
-65.0,-1.0,1.049
-40.0,-6.0,1.05
-16.0,-5.0,1.051
9.0,-4.0,1.052
34.0,-6.0,1.053
35.0,-7.0,1.054
6.0,-1.0,1.055
-20.0,5.0,1.056
-10.0,15.0,1.057
23.0,26.0,1.058
48.0,28.0,1.059
56.0,14.0,1.06
66.0,-4.0,1.061
74.0,-6.0,1.062
63.0,1.0,1.063
40.0,5.0,1.064
26.0,1.0,1.065
29.0,-2.0,1.066
31.0,-4.0,1.067
22.0,-8.0,1.068
15.0,-10.0,1.069
14.0,-9.0,1.07
10.0,-6.0,1.071
6.0,-8.0,1.072
8.0,-11.0,1.073
10.0,-8.0,1.074
1.0,-1.0,1.075
-13.0,2.0,1.076
-20.0,2.0,1.077
-20.0,1.0,1.078
-21.0,0.0,1.079
-28.0,-4.0,1.08
-30.0,-8.0,1.081
-23.0,-2.0,1.082
-21.0,6.0,1.083
-24.0,5.0,1.084
-29.0,-4.0,1.085
-27.0,-9.0,1.086
-22.0,-3.0,1.087
-15.0,5.0,1.088
-8.0,7.0,1.089
-5.0,1.0,1.09
-8.0,-4.0,1.091
-9.0,-3.0,1.092
-7.0,2.0,1.093
-7.0,9.0,1.094
-8.0,9.0,1.095
-8.0,-4.0,1.096
-6.0,-14.0,1.097
-5.0,-13.0,1.098
-3.0,0.0,1.099
0.0,12.0,1.1
6.0,8.0,1.101
7.0,0.0,1.102
8.0,-2.0,1.103
12.0,-1.0,1.104
12.0,-1.0,1.105
8.0,-2.0,1.106
5.0,0.0,1.107
11.0,4.0,1.108
17.0,4.0,1.109
16.0,-4.0,1.11
12.0,-12.0,1.111
15.0,-11.0,1.112
16.0,-2.0,1.113
10.0,1.0,1.114
0.0,-5.0,1.115
-7.0,-12.0,1.116
-13.0,-5.0,1.117
-19.0,9.0,1.118
-26.0,10.0,1.119
-27.0,-1.0,1.12
-19.0,-15.0,1.121
-1.0,-13.0,1.122
23.0,-3.0,1.123
40.0,3.0,1.124
41.0,5.0,1.125
31.0,5.0,1.126
24.0,4.0,1.127
25.0,0.0,1.128
25.0,1.0,1.129
17.0,8.0,1.13
4.0,12.0,1.131
-9.0,5.0,1.132
-17.0,-4.0,1.133
-14.0,-8.0,1.134
-3.0,-5.0,1.135
6.0,-1.0,1.136
5.0,4.0,1.137
-4.0,7.0,1.138
-7.0,4.0,1.139
-3.0,-2.0,1.14
4.0,-6.0,1.141
13.0,0.0,1.142
20.0,3.0,1.143
29.0,-2.0,1.144
38.0,-5.0,1.145
47.0,0.0,1.146
48.0,3.0,1.147
34.0,-5.0,1.148
7.0,-10.0,1.149
-17.0,-6.0,1.15
-29.0,2.0,1.151
-43.0,0.0,1.152
-61.0,-2.0,1.153
-62.0,5.0,1.154
-38.0,14.0,1.155
-12.0,13.0,1.156
-5.0,8.0,1.157
-10.0,2.0,1.158
-8.0,-1.0,1.159
-6.0,-1.0,1.16
-3.0,-2.0,1.161
5.0,0.0,1.162
29.0,-4.0,1.163
45.0,-10.0,1.164
33.0,-10.0,1.165
21.0,-3.0,1.166
10.0,-2.0,1.167
3.0,-9.0,1.168
8.0,-11.0,1.169
10.0,-3.0,1.17
3.0,1.0,1.171
-1.0,-5.0,1.172
3.0,-10.0,1.173
7.0,-8.0,1.174
7.0,-5.0,1.175
5.0,-6.0,1.176
3.0,0.0,1.177
0.0,10.0,1.178
3.0,15.0,1.179
2.0,4.0,1.18
-1.0,-10.0,1.181
-3.0,-7.0,1.182
1.0,4.0,1.183
12.0,2.0,1.184
16.0,-5.0,1.185
11.0,-5.0,1.186
3.0,4.0,1.187
1.0,6.0,1.188
-1.0,0.0,1.189
-9.0,0.0,1.19
-19.0,1.0,1.191
-22.0,0.0,1.192
-21.0,-4.0,1.193
-17.0,-2.0,1.194
-16.0,4.0,1.195
-16.0,6.0,1.196
-13.0,5.0,1.197
-5.0,3.0,1.198
6.0,1.0,1.199
19.0,0.0,1.2
24.0,-4.0,1.201
20.0,-4.0,1.202
18.0,-2.0,1.203
25.0,1.0,1.204
29.0,0.0,1.205
20.0,-3.0,1.206
3.0,-5.0,1.207
-1.0,-3.0,1.208
2.0,2.0,1.209
5.0,3.0,1.21
3.0,0.0,1.211
6.0,-4.0,1.212
10.0,-6.0,1.213
6.0,-6.0,1.214
-5.0,-5.0,1.215
-11.0,2.0,1.216
-9.0,12.0,1.217
-6.0,10.0,1.218
-2.0,-3.0,1.219
0.0,-13.0,1.22
3.0,-12.0,1.221
1.0,-4.0,1.222
-3.0,0.0,1.223
-6.0,1.0,1.224
-5.0,3.0,1.225
-2.0,8.0,1.226
2.0,7.0,1.227
5.0,1.0,1.228
5.0,-1.0,1.229
4.0,-2.0,1.23
6.0,-4.0,1.231
7.0,-9.0,1.232
9.0,-9.0,1.233
12.0,-5.0,1.234
17.0,-2.0,1.235
17.0,-2.0,1.236
10.0,-1.0,1.237
2.0,-2.0,1.238
5.0,0.0,1.239
9.0,0.0,1.24
0.0,-1.0,1.241
-10.0,-3.0,1.242
-11.0,2.0,1.243
-2.0,7.0,1.244
6.0,11.0,1.245
8.0,12.0,1.246
5.0,6.0,1.247
0.0,1.0,1.248
-4.0,1.0,1.249
-4.0,0.0,1.25
0.0,-1.0,1.251
4.0,-2.0,1.252
3.0,0.0,1.253
1.0,1.0,1.254
2.0,5.0,1.255
1.0,5.0,1.256
-2.0,-7.0,1.257
-5.0,-16.0,1.258
0.0,-6.0,1.259
8.0,1.0,1.26
11.0,-8.0,1.261
8.0,-14.0,1.262
8.0,-6.0,1.263
14.0,7.0,1.264
13.0,8.0,1.265
-1.0,-2.0,1.266
-29.0,-7.0,1.267
-56.0,-4.0,1.268
-71.0,-4.0,1.269
-60.0,-7.0,1.27
-24.0,-4.0,1.271
17.0,3.0,1.272
46.0,5.0,1.273
58.0,0.0,1.274
59.0,1.0,1.275
46.0,6.0,1.276
27.0,6.0,1.277
12.0,-2.0,1.278
12.0,-7.0,1.279
13.0,-3.0,1.28
3.0,-3.0,1.281
-6.0,-9.0,1.282
-1.0,-12.0,1.283
11.0,-7.0,1.284
12.0,6.0,1.285
2.0,12.0,1.286
-1.0,4.0,1.287
-1.0,-9.0,1.288
-5.0,-16.0,1.289
-10.0,-11.0,1.29
-7.0,0.0,1.291
-3.0,9.0,1.292
-6.0,11.0,1.293
-18.0,6.0,1.294
-23.0,-1.0,1.295
-18.0,-2.0,1.296
-9.0,0.0,1.297
3.0,0.0,1.298
14.0,-1.0,1.299
16.0,-1.0,1.3
8.0,-3.0,1.301
4.0,-4.0,1.302
10.0,-3.0,1.303
17.0,2.0,1.304
16.0,6.0,1.305
14.0,4.0,1.306
19.0,1.0,1.307
28.0,0.0,1.308
32.0,0.0,1.309
26.0,-3.0,1.31
9.0,-6.0,1.311
-13.0,-3.0,1.312
-28.0,1.0,1.313
-28.0,2.0,1.314
-20.0,0.0,1.315
-14.0,1.0,1.316
-11.0,6.0,1.317
-7.0,3.0,1.318
-2.0,-4.0,1.319
-6.0,-9.0,1.32
-14.0,-5.0,1.321
-10.0,2.0,1.322
5.0,2.0,1.323
18.0,-4.0,1.324
19.0,-4.0,1.325
20.0,5.0,1.326
22.0,8.0,1.327
19.0,-1.0,1.328
6.0,-11.0,1.329
-4.0,-7.0,1.33
-5.0,1.0,1.331
-1.0,1.0,1.332
2.0,-4.0,1.333
8.0,-6.0,1.334
17.0,-1.0,1.335
23.0,2.0,1.336
20.0,4.0,1.337
4.0,2.0,1.338
11.0,4.0,1.339
15.0,5.0,1.34
9.0,3.0,1.341
3.0,0.0,1.342
0.0,-3.0,1.343
-5.0,-10.0,1.344
-10.0,-12.0,1.345
-14.0,-7.0,1.346
-9.0,1.0,1.347
-3.0,4.0,1.348
3.0,2.0,1.349
7.0,0.0,1.35
8.0,-2.0,1.351
9.0,-6.0,1.352
10.0,-6.0,1.353
11.0,0.0,1.354
9.0,5.0,1.355
5.0,6.0,1.356
-6.0,3.0,1.357
5.0,1.0,1.358
13.0,1.0,1.359
17.0,1.0,1.36
11.0,0.0,1.361
4.0,-3.0,1.362
-1.0,-4.0,1.363
-7.0,-5.0,1.364
-13.0,-3.0,1.365
-17.0,-2.0,1.366
-11.0,-2.0,1.367
-4.0,-3.0,1.368
2.0,-3.0,1.369
8.0,-2.0,1.37
9.0,2.0,1.371
11.0,4.0,1.372
12.0,0.0,1.373
13.0,-3.0,1.374
11.0,-5.0,1.375
6.0,-7.0,1.376
-8.0,-5.0,1.377
-20.0,-2.0,1.378
-15.0,3.0,1.379
-4.0,3.0,1.38
7.0,-3.0,1.381
18.0,-5.0,1.382
27.0,-2.0,1.383
26.0,1.0,1.384
14.0,3.0,1.385
2.0,4.0,1.386
4.0,3.0,1.387
11.0,0.0,1.388
12.0,-3.0,1.389
8.0,-2.0,1.39
1.0,0.0,1.391
-6.0,1.0,1.392
-12.0,2.0,1.393
-7.0,5.0,1.394
6.0,7.0,1.395
17.0,3.0,1.396
21.0,2.0,1.397
19.0,4.0,1.398
13.0,5.0,1.399
3.0,-2.0,1.4
-6.0,-13.0,1.401
-8.0,-11.0,1.402
0.0,-3.0,1.403
5.0,-1.0,1.404
3.0,-7.0,1.405
-2.0,-10.0,1.406
-3.0,-3.0,1.407
-3.0,3.0,1.408
-5.0,4.0,1.409
-6.0,2.0,1.41
-2.0,0.0,1.411
1.0,-3.0,1.412
3.0,-3.0,1.413
3.0,-2.0,1.414
1.0,-1.0,1.415
0.0,-3.0,1.416
0.0,0.0,1.417
-1.0,3.0,1.418
-2.0,2.0,1.419
-6.0,-1.0,1.42
-10.0,-6.0,1.421
-7.0,-5.0,1.422
3.0,-7.0,1.423
11.0,-8.0,1.424
4.0,-5.0,1.425
-9.0,4.0,1.426
-16.0,10.0,1.427
-9.0,8.0,1.428
3.0,2.0,1.429
11.0,-3.0,1.43
10.0,-5.0,1.431
9.0,-4.0,1.432
9.0,0.0,1.433
12.0,0.0,1.434
10.0,-3.0,1.435
7.0,-3.0,1.436
3.0,3.0,1.437
0.0,9.0,1.438
-3.0,7.0,1.439
-8.0,-1.0,1.44
-11.0,-7.0,1.441
-9.0,-6.0,1.442
0.0,0.0,1.443
11.0,4.0,1.444
14.0,5.0,1.445
7.0,2.0,1.446
-1.0,0.0,1.447
-2.0,2.0,1.448
0.0,6.0,1.449
0.0,6.0,1.45
-1.0,1.0,1.451
-2.0,-3.0,1.452
-2.0,0.0,1.453
-2.0,3.0,1.454
0.0,0.0,1.455
5.0,-4.0,1.456
10.0,-4.0,1.457
12.0,-1.0,1.458
12.0,-1.0,1.459
11.0,-2.0,1.46
7.0,-6.0,1.461
4.0,-8.0,1.462
9.0,-4.0,1.463
13.0,0.0,1.464
9.0,2.0,1.465
5.0,4.0,1.466
2.0,2.0,1.467
0.0,0.0,1.468
2.0,-4.0,1.469
4.0,-6.0,1.47
2.0,-2.0,1.471
2.0,0.0,1.472
6.0,-4.0,1.473
9.0,-6.0,1.474
7.0,-3.0,1.475
6.0,0.0,1.476
6.0,-2.0,1.477
6.0,-3.0,1.478
4.0,5.0,1.479
0.0,11.0,1.48
-2.0,2.0,1.481
-4.0,-6.0,1.482
-3.0,-8.0,1.483
-1.0,-5.0,1.484
-1.0,0.0,1.485
-4.0,1.0,1.486
-4.0,-1.0,1.487
0.0,-8.0,1.488
3.0,-8.0,1.489
2.0,0.0,1.49
0.0,6.0,1.491
0.0,0.0,1.492
1.0,-7.0,1.493
0.0,-6.0,1.494
2.0,2.0,1.495
6.0,5.0,1.496
12.0,4.0,1.497
11.0,1.0,1.498
6.0,0.0,1.499
-2.0,1.0,1.5
-5.0,0.0,1.501
-5.0,-1.0,1.502
0.0,-3.0,1.503
5.0,-7.0,1.504
6.0,-5.0,1.505
4.0,2.0,1.506
4.0,4.0,1.507
4.0,0.0,1.508
1.0,-3.0,1.509
-4.0,0.0,1.51
-3.0,2.0,1.511
2.0,-1.0,1.512
8.0,-2.0,1.513
10.0,1.0,1.514
11.0,5.0,1.515
5.0,0.0,1.516
-4.0,-4.0,1.517
-14.0,-3.0,1.518
-17.0,4.0,1.519
-19.0,6.0,1.52
-25.0,-4.0,1.521
-25.0,-12.0,1.522
-5.0,-9.0,1.523
25.0,1.0,1.524
34.0,10.0,1.525
25.0,7.0,1.526
20.0,-2.0,1.527
24.0,-6.0,1.528
18.0,-1.0,1.529
-2.0,4.0,1.53
-11.0,1.0,1.531
0.0,-9.0,1.532
13.0,-16.0,1.533
9.0,-13.0,1.534
0.0,-4.0,1.535
-2.0,2.0,1.536
-4.0,3.0,1.537
-12.0,0.0,1.538
-12.0,-2.0,1.539
-11.0,1.0,1.54
-2.0,5.0,1.541
7.0,11.0,1.542
16.0,9.0,1.543
21.0,2.0,1.544
11.0,-4.0,1.545
3.0,-2.0,1.546
-1.0,3.0,1.547
-4.0,4.0,1.548
-2.0,3.0,1.549
1.0,4.0,1.55
7.0,4.0,1.551
11.0,-2.0,1.552
7.0,-10.0,1.553
3.0,-10.0,1.554
-1.0,-2.0,1.555
-4.0,4.0,1.556
-2.0,5.0,1.557
0.0,2.0,1.558
0.0,1.0,1.559
4.0,0.0,1.56
6.0,-2.0,1.561
4.0,-3.0,1.562
7.0,-2.0,1.563
12.0,0.0,1.564
9.0,4.0,1.565
1.0,4.0,1.566
0.0,-2.0,1.567
5.0,-7.0,1.568
6.0,-8.0,1.569
1.0,-5.0,1.57
0.0,-4.0,1.571
3.0,-5.0,1.572
4.0,-3.0,1.573
2.0,-1.0,1.574
1.0,-2.0,1.575
2.0,-6.0,1.576
1.0,-4.0,1.577
-2.0,1.0,1.578
-1.0,5.0,1.579
1.0,4.0,1.58
-2.0,-2.0,1.581
-7.0,-4.0,1.582
-2.0,-4.0,1.583
8.0,-3.0,1.584
10.0,2.0,1.585
2.0,7.0,1.586
-2.0,6.0,1.587
0.0,0.0,1.588
3.0,-2.0,1.589
0.0,0.0,1.59
-3.0,0.0,1.591
-1.0,-6.0,1.592
2.0,-9.0,1.593
1.0,-9.0,1.594
-1.0,-5.0,1.595
1.0,-2.0,1.596
6.0,3.0,1.597
9.0,4.0,1.598
10.0,2.0,1.599
7.0,0.0,1.6
1.0,-3.0,1.601
-4.0,-4.0,1.602
-5.0,2.0,1.603
-4.0,8.0,1.604
-3.0,8.0,1.605
-2.0,8.0,1.606
2.0,5.0,1.607
9.0,1.0,1.608
9.0,0.0,1.609
0.0,-2.0,1.61
-4.0,-3.0,1.611
1.0,-4.0,1.612
12.0,-3.0,1.613
14.0,-2.0,1.614
11.0,-2.0,1.615
4.0,0.0,1.616
-2.0,1.0,1.617
-7.0,4.0,1.618
-7.0,2.0,1.619
-10.0,-4.0,1.62
-19.0,-9.0,1.621
-22.0,-5.0,1.622
-7.0,-1.0,1.623
9.0,-1.0,1.624
29.0,-1.0,1.625
44.0,1.0,1.626
39.0,4.0,1.627
33.0,0.0,1.628
25.0,-4.0,1.629
14.0,-5.0,1.63
0.0,-3.0,1.631
-12.0,-4.0,1.632
-17.0,-5.0,1.633
-22.0,-3.0,1.634
-26.0,0.0,1.635
-24.0,-1.0,1.636
-6.0,-1.0,1.637
12.0,-2.0,1.638
23.0,-2.0,1.639
22.0,-4.0,1.64
17.0,-5.0,1.641
7.0,1.0,1.642
-2.0,5.0,1.643
-1.0,3.0,1.644
7.0,-1.0,1.645
11.0,-1.0,1.646
0.0,-4.0,1.647
-14.0,-10.0,1.648
-17.0,-13.0,1.649
-14.0,-7.0,1.65
-19.0,0.0,1.651
-26.0,3.0,1.652
-24.0,1.0,1.653
-8.0,4.0,1.654
14.0,6.0,1.655
29.0,3.0,1.656
42.0,-1.0,1.657
53.0,-3.0,1.658
48.0,-2.0,1.659
27.0,-4.0,1.66
10.0,-10.0,1.661
10.0,-8.0,1.662
15.0,2.0,1.663
10.0,13.0,1.664
-4.0,17.0,1.665
-14.0,15.0,1.666
-15.0,7.0,1.667
-15.0,-2.0,1.668
-19.0,-5.0,1.669
-17.0,0.0,1.67
-9.0,3.0,1.671
-2.0,1.0,1.672
0.0,-2.0,1.673
0.0,-2.0,1.674
3.0,0.0,1.675
6.0,-1.0,1.676
8.0,0.0,1.677
6.0,1.0,1.678
3.0,-2.0,1.679
0.0,-7.0,1.68
-5.0,-11.0,1.681
-11.0,-7.0,1.682
-10.0,-4.0,1.683
-4.0,-7.0,1.684
-1.0,-10.0,1.685
-2.0,-4.0,1.686
-2.0,2.0,1.687
0.0,1.0,1.688
3.0,-3.0,1.689
4.0,-4.0,1.69
7.0,-3.0,1.691
14.0,-2.0,1.692
15.0,-1.0,1.693
10.0,1.0,1.694
4.0,1.0,1.695
3.0,-1.0,1.696
3.0,0.0,1.697
0.0,2.0,1.698
-5.0,4.0,1.699
-9.0,0.0,1.7
-13.0,-5.0,1.701
-16.0,-4.0,1.702
-14.0,-3.0,1.703
-11.0,-4.0,1.704
-4.0,-6.0,1.705
4.0,-3.0,1.706
12.0,-1.0,1.707
17.0,-1.0,1.708
14.0,1.0,1.709
11.0,7.0,1.71
11.0,8.0,1.711
11.0,1.0,1.712
12.0,-5.0,1.713
13.0,-3.0,1.714
17.0,3.0,1.715
19.0,4.0,1.716
13.0,3.0,1.717
6.0,2.0,1.718
4.0,0.0,1.719
2.0,-5.0,1.72
-4.0,-9.0,1.721
-14.0,-8.0,1.722
-13.0,-3.0,1.723
0.0,-2.0,1.724
10.0,0.0,1.725
11.0,3.0,1.726
13.0,3.0,1.727
14.0,-2.0,1.728
8.0,-7.0,1.729
-1.0,-4.0,1.73
-3.0,0.0,1.731
2.0,-1.0,1.732
7.0,-4.0,1.733
7.0,-3.0,1.734
12.0,0.0,1.735
20.0,-1.0,1.736
19.0,-1.0,1.737
6.0,0.0,1.738
-7.0,6.0,1.739
-17.0,7.0,1.74
-24.0,0.0,1.741
-26.0,-4.0,1.742
-14.0,-3.0,1.743
1.0,-3.0,1.744
4.0,-4.0,1.745
-2.0,-5.0,1.746
-3.0,-4.0,1.747
2.0,-4.0,1.748
1.0,-4.0,1.749
-4.0,-2.0,1.75
-2.0,3.0,1.751
4.0,7.0,1.752
4.0,5.0,1.753
-2.0,1.0,1.754
-4.0,-2.0,1.755
1.0,-3.0,1.756
13.0,-2.0,1.757
22.0,0.0,1.758
33.0,4.0,1.759
35.0,6.0,1.76
20.0,0.0,1.761
-2.0,-3.0,1.762
-7.0,1.0,1.763
4.0,4.0,1.764
13.0,3.0,1.765
7.0,1.0,1.766
-3.0,-1.0,1.767
-6.0,-4.0,1.768
-3.0,-6.0,1.769
-4.0,-7.0,1.77
-8.0,-4.0,1.771
-9.0,-1.0,1.772
-2.0,2.0,1.773
12.0,4.0,1.774
23.0,2.0,1.775
20.0,1.0,1.776
9.0,0.0,1.777
-4.0,-2.0,1.778
-10.0,-3.0,1.779
-14.0,-2.0,1.78
-8.0,-5.0,1.781
-3.0,-2.0,1.782
2.0,3.0,1.783
6.0,6.0,1.784
3.0,3.0,1.785
0.0,-4.0,1.786
-2.0,-8.0,1.787
-5.0,-10.0,1.788
-5.0,-6.0,1.789
-3.0,-1.0,1.79
0.0,3.0,1.791
2.0,3.0,1.792
5.0,0.0,1.793
7.0,-4.0,1.794
4.0,-6.0,1.795
1.0,-8.0,1.796
3.0,-6.0,1.797
6.0,-2.0,1.798
12.0,4.0,1.799
12.0,8.0,1.8
15.0,5.0,1.801
16.0,2.0,1.802
17.0,-2.0,1.803
15.0,-7.0,1.804
5.0,-8.0,1.805
-5.0,-6.0,1.806
-8.0,-3.0,1.807
-3.0,-1.0,1.808
-2.0,-4.0,1.809
-5.0,-3.0,1.81
-5.0,1.0,1.811
2.0,6.0,1.812
7.0,7.0,1.813
4.0,6.0,1.814
1.0,5.0,1.815
5.0,4.0,1.816
11.0,4.0,1.817
9.0,0.0,1.818
2.0,2.0,1.819
-1.0,5.0,1.82
-2.0,0.0,1.821
-6.0,-8.0,1.822
-11.0,-12.0,1.823
-24.0,-9.0,1.824
-41.0,-7.0,1.825
-46.0,-8.0,1.826
-31.0,-10.0,1.827
-15.0,-5.0,1.828
-12.0,3.0,1.829
-8.0,8.0,1.83
25.0,5.0,1.831
68.0,2.0,1.832
83.0,1.0,1.833
67.0,0.0,1.834
45.0,-3.0,1.835
27.0,-3.0,1.836
6.0,-1.0,1.837
13.0,1.0,1.838
5.0,2.0,1.839
-4.0,3.0,1.84
-15.0,-2.0,1.841
-23.0,-5.0,1.842
-15.0,-3.0,1.843
-9.0,-2.0,1.844
-11.0,-2.0,1.845
-9.0,-2.0,1.846
1.0,-1.0,1.847
9.0,0.0,1.848
10.0,0.0,1.849
10.0,-1.0,1.85
7.0,-1.0,1.851
5.0,-1.0,1.852
7.0,-1.0,1.853
11.0,-2.0,1.854
13.0,-2.0,1.855
14.0,0.0,1.856
9.0,2.0,1.857
10.0,5.0,1.858
4.0,3.0,1.859
-3.0,-1.0,1.86
-11.0,-7.0,1.861
-17.0,-8.0,1.862
-11.0,-7.0,1.863
-7.0,-3.0,1.864
-8.0,2.0,1.865
-7.0,4.0,1.866
1.0,1.0,1.867
7.0,-4.0,1.868
8.0,-5.0,1.869
8.0,0.0,1.87
6.0,5.0,1.871
4.0,6.0,1.872
6.0,5.0,1.873
9.0,2.0,1.874
10.0,-2.0,1.875
11.0,-4.0,1.876
7.0,-1.0,1.877
3.0,3.0,1.878
3.0,6.0,1.879
3.0,4.0,1.88
0.0,-4.0,1.881
-2.0,-7.0,1.882
2.0,-7.0,1.883
8.0,-3.0,1.884
5.0,5.0,1.885
-2.0,6.0,1.886
-4.0,0.0,1.887
0.0,-8.0,1.888
3.0,-7.0,1.889
3.0,-3.0,1.89
4.0,-5.0,1.891
5.0,-9.0,1.892
1.0,-8.0,1.893
-7.0,-5.0,1.894
-9.0,-3.0,1.895
-4.0,-7.0,1.896
6.0,-7.0,1.897
14.0,-1.0,1.898
19.0,7.0,1.899
19.0,8.0,1.9
11.0,1.0,1.901
2.0,-2.0,1.902
3.0,0.0,1.903
13.0,2.0,1.904
13.0,2.0,1.905
1.0,3.0,1.906
-9.0,4.0,1.907
-8.0,1.0,1.908
-3.0,-4.0,1.909
-5.0,-6.0,1.91
-7.0,-4.0,1.911
-2.0,-2.0,1.912
5.0,-1.0,1.913
6.0,0.0,1.914
3.0,0.0,1.915
3.0,3.0,1.916
5.0,8.0,1.917
6.0,8.0,1.918
2.0,3.0,1.919
-1.0,-1.0,1.92
-4.0,-5.0,1.921
-5.0,-7.0,1.922
-3.0,-3.0,1.923
4.0,1.0,1.924
7.0,1.0,1.925
2.0,0.0,1.926
-2.0,-1.0,1.927
-2.0,-2.0,1.928
-2.0,-2.0,1.929
-4.0,0.0,1.93
-1.0,1.0,1.931
3.0,2.0,1.932
5.0,-1.0,1.933
2.0,-4.0,1.934
2.0,-3.0,1.935
8.0,-2.0,1.936
10.0,-2.0,1.937
8.0,-1.0,1.938
9.0,1.0,1.939
10.0,0.0,1.94
10.0,-5.0,1.941
9.0,-4.0,1.942
10.0,-1.0,1.943
9.0,-1.0,1.944
-2.0,-2.0,1.945
-12.0,0.0,1.946
-16.0,3.0,1.947
-18.0,-1.0,1.948
-16.0,-6.0,1.949
-14.0,-5.0,1.95
-14.0,-2.0,1.951
-15.0,-1.0,1.952
-14.0,-1.0,1.953
-9.0,3.0,1.954
7.0,6.0,1.955
22.0,2.0,1.956
31.0,-1.0,1.957
39.0,-1.0,1.958
35.0,-1.0,1.959
23.0,-2.0,1.96
6.0,-8.0,1.961
-3.0,-6.0,1.962
-3.0,3.0,1.963
1.0,6.0,1.964
-3.0,3.0,1.965
-6.0,1.0,1.966
-3.0,-1.0,1.967
3.0,-6.0,1.968
5.0,-9.0,1.969
3.0,-5.0,1.97
1.0,-1.0,1.971
-3.0,0.0,1.972
-14.0,-2.0,1.973
-20.0,-2.0,1.974
-5.0,0.0,1.975
20.0,0.0,1.976
36.0,0.0,1.977
0.0,-1.0,1.978
0.0,-2.0,1.979
-2.0,-4.0,1.98
-3.0,-6.0,1.981
-3.0,-3.0,1.982
6.0,0.0,1.983
14.0,0.0,1.984
16.0,-1.0,1.985
17.0,-1.0,1.986
12.0,0.0,1.987
6.0,0.0,1.988
-3.0,0.0,1.989
-14.0,-1.0,1.99
-24.0,-3.0,1.991
-29.0,-2.0,1.992
-15.0,-2.0,1.993
-1.0,-2.0,1.994
5.0,-4.0,1.995
12.0,-2.0,1.996
19.0,2.0,1.997
0.0,4.0,1.998
0.0,3.0,1.999
0.0,1.0,2.0
-1.0,-1.0,2.001
-1.0,-4.0,2.002
1.0,-4.0,2.003
4.0,-2.0,2.004
4.0,0.0,2.005
5.0,0.0,2.006
3.0,-1.0,2.007
1.0,-4.0,2.008
-1.0,-2.0,2.009
-4.0,-1.0,2.01
-7.0,0.0,2.011
-8.0,1.0,2.012
-4.0,-3.0,2.013
0.0,-6.0,2.014
1.0,-4.0,2.015
3.0,-2.0,2.016
5.0,2.0,2.017
0.0,6.0,2.018
-1.0,7.0,2.019
-3.0,8.0,2.02
-5.0,6.0,2.021
-5.0,6.0,2.022
8.0,3.0,2.023
19.0,-2.0,2.024
22.0,-3.0,2.025
23.0,-1.0,2.026
17.0,-1.0,2.027
8.0,-6.0,2.028
-5.0,-10.0,2.029
-19.0,-7.0,2.03
-33.0,-2.0,2.031
-39.0,4.0,2.032
-20.0,9.0,2.033
-2.0,8.0,2.034
7.0,-2.0,2.035
17.0,-11.0,2.036
26.0,-9.0,2.037
34.0,-1.0,2.038
35.0,2.0,2.039
24.0,-1.0,2.04
19.0,-7.0,2.041
21.0,-2.0,2.042
23.0,4.0,2.043
17.0,6.0,2.044
6.0,5.0,2.045
-2.0,3.0,2.046
-10.0,-3.0,2.047
-16.0,-11.0,2.048
-15.0,-11.0,2.049
-10.0,-5.0,2.05
0.0,-2.0,2.051
13.0,-3.0,2.052
24.0,-2.0,2.053
27.0,2.0,2.054
17.0,2.0,2.055
-3.0,0.0,2.056
-16.0,1.0,2.057
-21.0,5.0,2.058
-16.0,7.0,2.059
-6.0,0.0,2.06
3.0,-7.0,2.061
11.0,-8.0,2.062
15.0,-2.0,2.063
17.0,5.0,2.064
13.0,9.0,2.065
2.0,5.0,2.066
-3.0,-4.0,2.067
-2.0,-7.0,2.068
-2.0,-4.0,2.069
-7.0,-1.0,2.07
-9.0,-3.0,2.071
-4.0,-7.0,2.072
-1.0,-6.0,2.073
-4.0,-3.0,2.074
-1.0,-4.0,2.075
7.0,-2.0,2.076
12.0,3.0,2.077
7.0,6.0,2.078
0.0,4.0,2.079
-3.0,2.0,2.08
-7.0,0.0,2.081
-11.0,-1.0,2.082
-4.0,-4.0,2.083
10.0,-1.0,2.084
15.0,5.0,2.085
8.0,9.0,2.086
2.0,2.0,2.087
3.0,-6.0,2.088
6.0,-7.0,2.089
7.0,-3.0,2.09
7.0,0.0,2.091
2.0,-1.0,2.092
-7.0,-3.0,2.093
-15.0,-1.0,2.094
-16.0,-2.0,2.095
-9.0,-3.0,2.096
-1.0,0.0,2.097
11.0,1.0,2.098
23.0,0.0,2.099
31.0,-3.0,2.1
21.0,-4.0,2.101
13.0,-2.0,2.102
10.0,1.0,2.103
6.0,2.0,2.104
2.0,4.0,2.105
-2.0,7.0,2.106
-2.0,4.0,2.107
-2.0,-2.0,2.108
0.0,-4.0,2.109
3.0,-3.0,2.11
7.0,-6.0,2.111
10.0,-10.0,2.112
10.0,-9.0,2.113
9.0,-4.0,2.114
2.0,2.0,2.115
-3.0,5.0,2.116
-7.0,10.0,2.117
-10.0,11.0,2.118
-9.0,6.0,2.119
-10.0,-2.0,2.12
-10.0,-9.0,2.121
-7.0,-7.0,2.122
0.0,-5.0,2.123
9.0,-3.0,2.124
9.0,3.0,2.125
2.0,8.0,2.126
1.0,2.0,2.127
5.0,-7.0,2.128
4.0,-9.0,2.129
-2.0,-3.0,2.13
-7.0,1.0,2.131
-5.0,-2.0,2.132
2.0,-3.0,2.133
7.0,-1.0,2.134
11.0,1.0,2.135
14.0,0.0,2.136
14.0,0.0,2.137
5.0,0.0,2.138
-2.0,-4.0,2.139
-7.0,-9.0,2.14
-10.0,-9.0,2.141
-15.0,4.0,2.142
-19.0,12.0,2.143
-19.0,9.0,2.144
-13.0,1.0,2.145
-4.0,6.0,2.146
11.0,11.0,2.147
28.0,8.0,2.148
36.0,-2.0,2.149
32.0,-8.0,2.15
20.0,-7.0,2.151
13.0,-7.0,2.152
16.0,-9.0,2.153
20.0,-6.0,2.154
19.0,-1.0,2.155
11.0,0.0,2.156
4.0,-2.0,2.157
3.0,-5.0,2.158
1.0,-4.0,2.159
-6.0,-4.0,2.16
-13.0,-7.0,2.161
-15.0,-6.0,2.162
-15.0,-2.0,2.163
-18.0,2.0,2.164
-19.0,3.0,2.165
-14.0,6.0,2.166
-3.0,6.0,2.167
2.0,1.0,2.168
3.0,-3.0,2.169
6.0,-3.0,2.17
17.0,-1.0,2.171
25.0,-3.0,2.172
26.0,-8.0,2.173
20.0,-8.0,2.174
14.0,-3.0,2.175
10.0,2.0,2.176
6.0,7.0,2.177
-4.0,7.0,2.178
-8.0,2.0,2.179
-11.0,-6.0,2.18
-10.0,-12.0,2.181
-8.0,-9.0,2.182
-3.0,-3.0,2.183
1.0,1.0,2.184
2.0,3.0,2.185
2.0,5.0,2.186
-3.0,3.0,2.187
-10.0,-2.0,2.188
-24.0,-4.0,2.189
-35.0,1.0,2.19
-36.0,5.0,2.191
-28.0,6.0,2.192
5.0,4.0,2.193
35.0,2.0,2.194
51.0,-2.0,2.195
60.0,-5.0,2.196
45.0,-2.0,2.197
26.0,3.0,2.198
9.0,3.0,2.199
6.0,-5.0,2.2
9.0,-13.0,2.201
-1.0,-11.0,2.202
-14.0,-5.0,2.203
-14.0,-2.0,2.204
-5.0,1.0,2.205
-2.0,2.0,2.206
-3.0,3.0,2.207
3.0,2.0,2.208
10.0,1.0,2.209
7.0,2.0,2.21
-2.0,1.0,2.211
-8.0,0.0,2.212
-13.0,-1.0,2.213
-19.0,-2.0,2.214
-23.0,-5.0,2.215
-17.0,-4.0,2.216
-3.0,0.0,2.217
-1.0,-1.0,2.218
-1.0,-3.0,2.219
-1.0,-5.0,2.22
-4.0,-3.0,2.221
-6.0,-2.0,2.222
-2.0,-4.0,2.223
-2.0,-6.0,2.224
-7.0,-1.0,2.225
-11.0,3.0,2.226
-12.0,5.0,2.227
-12.0,7.0,2.228
-6.0,5.0,2.229
-2.0,3.0,2.23
4.0,0.0,2.231
8.0,-2.0,2.232
8.0,-2.0,2.233
6.0,-1.0,2.234
1.0,4.0,2.235
-2.0,7.0,2.236
1.0,1.0,2.237
0.0,-4.0,2.238
0.0,-3.0,2.239
-1.0,2.0,2.24
-4.0,3.0,2.241
-6.0,0.0,2.242
-3.0,-4.0,2.243
-2.0,-4.0,2.244
-8.0,-1.0,2.245
-13.0,4.0,2.246
-14.0,5.0,2.247
-14.0,2.0,2.248
-8.0,0.0,2.249
-1.0,1.0,2.25
5.0,2.0,2.251
10.0,0.0,2.252
10.0,-4.0,2.253
8.0,-3.0,2.254
1.0,1.0,2.255
-2.0,2.0,2.256
2.0,2.0,2.257
2.0,-1.0,2.258
2.0,-3.0,2.259
1.0,-7.0,2.26
-7.0,-10.0,2.261
-11.0,-6.0,2.262
-4.0,-1.0,2.263
-2.0,0.0,2.264
-14.0,-3.0,2.265
-23.0,-3.0,2.266
-25.0,2.0,2.267
-25.0,1.0,2.268
-13.0,-5.0,2.269
0.0,-6.0,2.27
12.0,2.0,2.271
21.0,10.0,2.272
21.0,7.0,2.273
17.0,0.0,2.274
5.0,0.0,2.275
-3.0,1.0,2.276
6.0,-1.0,2.277
15.0,-6.0,2.278
20.0,-7.0,2.279
24.0,-4.0,2.28
26.0,-3.0,2.281
20.0,-4.0,2.282
7.0,-4.0,2.283
-4.0,-4.0,2.284
-14.0,-2.0,2.285
-22.0,-1.0,2.286
-19.0,0.0,2.287
1.0,0.0,2.288
25.0,0.0,2.289
34.0,0.0,2.29
25.0,-1.0,2.291
15.0,-3.0,2.292
4.0,-5.0,2.293
-9.0,-6.0,2.294
-19.0,-3.0,2.295
-18.0,1.0,2.296
-11.0,2.0,2.297
-9.0,2.0,2.298
-11.0,3.0,2.299
-12.0,3.0,2.3
-5.0,1.0,2.301
2.0,0.0,2.302
11.0,2.0,2.303
17.0,5.0,2.304
7.0,6.0,2.305
0.0,6.0,2.306
-4.0,3.0,2.307
-7.0,1.0,2.308
-9.0,0.0,2.309
-10.0,-2.0,2.31
-6.0,-2.0,2.311
-2.0,-2.0,2.312
3.0,0.0,2.313
8.0,1.0,2.314
6.0,0.0,2.315
5.0,-1.0,2.316
6.0,-2.0,2.317
6.0,-2.0,2.318
-1.0,-2.0,2.319
-2.0,-2.0,2.32
1.0,-6.0,2.321
0.0,-7.0,2.322
-1.0,-6.0,2.323
2.0,0.0,2.324
4.0,2.0,2.325
-2.0,0.0,2.326
-6.0,-4.0,2.327
0.0,-7.0,2.328
7.0,-7.0,2.329
4.0,-8.0,2.33
-2.0,-7.0,2.331
-2.0,-1.0,2.332
1.0,5.0,2.333
4.0,5.0,2.334
10.0,1.0,2.335
16.0,0.0,2.336
21.0,2.0,2.337
14.0,1.0,2.338
6.0,-1.0,2.339
0.0,0.0,2.34
0.0,3.0,2.341
3.0,3.0,2.342
12.0,-4.0,2.343
20.0,-8.0,2.344
20.0,0.0,2.345
18.0,9.0,2.346
12.0,7.0,2.347
7.0,-4.0,2.348
2.0,-8.0,2.349
-3.0,-1.0,2.35
-10.0,9.0,2.351
-17.0,9.0,2.352
-22.0,0.0,2.353
-22.0,-7.0,2.354
-8.0,-7.0,2.355
4.0,-4.0,2.356
12.0,-3.0,2.357
16.0,-3.0,2.358
12.0,-1.0,2.359
11.0,1.0,2.36
9.0,-3.0,2.361
-4.0,-6.0,2.362
-9.0,-6.0,2.363
2.0,0.0,2.364
15.0,8.0,2.365
11.0,11.0,2.366
-1.0,5.0,2.367
-4.0,-1.0,2.368
-6.0,-5.0,2.369
-20.0,-6.0,2.37
-31.0,-5.0,2.371
-20.0,-6.0,2.372
5.0,-7.0,2.373
18.0,-6.0,2.374
11.0,-6.0,2.375
2.0,-3.0,2.376
1.0,2.0,2.377
5.0,3.0,2.378
14.0,0.0,2.379
33.0,-2.0,2.38
50.0,-2.0,2.381
47.0,2.0,2.382
29.0,4.0,2.383
16.0,2.0,2.384
12.0,0.0,2.385
2.0,-2.0,2.386
-12.0,-5.0,2.387
-17.0,-8.0,2.388
-10.0,-7.0,2.389
-3.0,-2.0,2.39
-4.0,0.0,2.391
-3.0,-3.0,2.392
2.0,-5.0,2.393
5.0,0.0,2.394
3.0,4.0,2.395
2.0,0.0,2.396
5.0,-2.0,2.397
0.0,0.0,2.398
-13.0,6.0,2.399
-33.0,4.0,2.4
-44.0,-7.0,2.401
-37.0,-11.0,2.402
-11.0,-6.0,2.403
20.0,0.0,2.404
31.0,3.0,2.405
19.0,4.0,2.406
3.0,5.0,2.407
-1.0,3.0,2.408
2.0,-1.0,2.409
5.0,-1.0,2.41
7.0,1.0,2.411
7.0,1.0,2.412
6.0,-4.0,2.413
5.0,-5.0,2.414
10.0,0.0,2.415
13.0,1.0,2.416
8.0,0.0,2.417
-2.0,-1.0,2.418
-4.0,4.0,2.419
-6.0,9.0,2.42
-7.0,4.0,2.421
-6.0,0.0,2.422
2.0,-2.0,2.423
8.0,-4.0,2.424
4.0,-4.0,2.425
1.0,-1.0,2.426
2.0,0.0,2.427
3.0,-3.0,2.428
0.0,-8.0,2.429
-3.0,-5.0,2.43
-3.0,4.0,2.431
-2.0,6.0,2.432
3.0,0.0,2.433
7.0,-4.0,2.434
5.0,0.0,2.435
4.0,4.0,2.436
5.0,2.0,2.437
6.0,-4.0,2.438
3.0,-5.0,2.439
-2.0,-2.0,2.44
-6.0,0.0,2.441
-5.0,0.0,2.442
3.0,2.0,2.443
13.0,0.0,2.444
15.0,-3.0,2.445
11.0,-7.0,2.446
10.0,-6.0,2.447
9.0,-3.0,2.448
4.0,0.0,2.449
-6.0,2.0,2.45
-12.0,0.0,2.451
-8.0,-1.0,2.452
1.0,0.0,2.453
6.0,1.0,2.454
5.0,-2.0,2.455
6.0,-5.0,2.456
11.0,0.0,2.457
11.0,8.0,2.458
11.0,8.0,2.459
17.0,-2.0,2.46
28.0,-13.0,2.461
31.0,-10.0,2.462
21.0,-4.0,2.463
8.0,-1.0,2.464
-7.0,-1.0,2.465
-21.0,4.0,2.466
-30.0,8.0,2.467
-28.0,3.0,2.468
-21.0,-3.0,2.469
-18.0,-2.0,2.47
-15.0,2.0,2.471
-11.0,1.0,2.472
-9.0,-1.0,2.473
-11.0,-1.0,2.474
-3.0,0.0,2.475
22.0,-1.0,2.476
41.0,-3.0,2.477
37.0,0.0,2.478
24.0,0.0,2.479
23.0,-1.0,2.48
31.0,-5.0,2.481
24.0,-6.0,2.482
7.0,-5.0,2.483
-3.0,-3.0,2.484
-12.0,0.0,2.485
-30.0,0.0,2.486
-44.0,2.0,2.487
-26.0,4.0,2.488
12.0,2.0,2.489
35.0,0.0,2.49
34.0,2.0,2.491
31.0,4.0,2.492
27.0,4.0,2.493
18.0,4.0,2.494
6.0,0.0,2.495
5.0,-2.0,2.496
9.0,-1.0,2.497
0.0,-1.0,2.498
-9.0,-1.0,2.499
-15.0,-2.0,2.5
-9.0,-6.0,2.501
-5.0,-8.0,2.502
-3.0,-6.0,2.503
-1.0,-4.0,2.504
0.0,-1.0,2.505
1.0,1.0,2.506
-4.0,3.0,2.507
-9.0,5.0,2.508
-7.0,3.0,2.509
-6.0,1.0,2.51
-6.0,3.0,2.511
-6.0,5.0,2.512
-3.0,5.0,2.513
1.0,5.0,2.514
6.0,1.0,2.515
11.0,-3.0,2.516
9.0,-2.0,2.517
6.0,-1.0,2.518
-3.0,-2.0,2.519
-5.0,-5.0,2.52
-8.0,-7.0,2.521
-13.0,-8.0,2.522
-9.0,-6.0,2.523
1.0,-2.0,2.524
5.0,3.0,2.525
-1.0,7.0,2.526
-3.0,4.0,2.527
2.0,-3.0,2.528
7.0,-4.0,2.529
3.0,0.0,2.53
0.0,2.0,2.531
2.0,-1.0,2.532
5.0,-5.0,2.533
8.0,-1.0,2.534
10.0,6.0,2.535
14.0,7.0,2.536
16.0,2.0,2.537
6.0,6.0,2.538
1.0,5.0,2.539
-5.0,2.0,2.54
-10.0,-3.0,2.541
-12.0,-8.0,2.542
-7.0,-3.0,2.543
-3.0,-1.0,2.544
2.0,-4.0,2.545
6.0,-7.0,2.546
12.0,-6.0,2.547
16.0,-5.0,2.548
13.0,-7.0,2.549
11.0,-8.0,2.55
10.0,-4.0,2.551
9.0,-2.0,2.552
11.0,-2.0,2.553
12.0,-1.0,2.554
8.0,-1.0,2.555
4.0,-1.0,2.556
4.0,2.0,2.557
8.0,12.0,2.558
-1.0,11.0,2.559
-10.0,6.0,2.56
-17.0,-4.0,2.561
-20.0,-12.0,2.562
-14.0,-4.0,2.563
-7.0,0.0,2.564
0.0,-5.0,2.565
8.0,-11.0,2.566
16.0,-9.0,2.567
23.0,-8.0,2.568
18.0,-11.0,2.569
15.0,-12.0,2.57
13.0,-5.0,2.571
12.0,-1.0,2.572
15.0,-1.0,2.573
16.0,0.0,2.574
10.0,0.0,2.575
5.0,0.0,2.576
5.0,6.0,2.577
8.0,10.0,2.578
-1.0,9.0,2.579
-10.0,5.0,2.58
-16.0,-4.0,2.581
-19.0,-11.0,2.582
-13.0,-4.0,2.583
-7.0,0.0,2.584
0.0,-5.0,2.585
8.0,-10.0,2.586
16.0,-8.0,2.587
22.0,-7.0,2.588
18.0,-10.0,2.589
15.0,-11.0,2.59
13.0,-5.0,2.591
12.0,-1.0,2.592
15.0,-1.0,2.593
16.0,0.0,2.594
10.0,0.0,2.595
5.0,0.0,2.596
5.0,5.0,2.597
3.0,10.0,2.598
0.0,3.0,2.599
1.0,-8.0,2.6
0.0,-19.0,2.601
-9.0,-17.0,2.602
-11.0,-6.0,2.603
-3.0,3.0,2.604
-2.0,9.0,2.605
-6.0,13.0,2.606
-5.0,10.0,2.607
7.0,6.0,2.608
12.0,4.0,2.609
0.0,7.0,2.61
-9.0,2.0,2.611
-4.0,-10.0,2.612
3.0,-13.0,2.613
7.0,-4.0,2.614
10.0,5.0,2.615
15.0,1.0,2.616
19.0,-4.0,2.617
14.0,-3.0,2.618
3.0,2.0,2.619
-6.0,2.0,2.62
-11.0,-4.0,2.621
-9.0,-6.0,2.622
0.0,-2.0,2.623
5.0,3.0,2.624
0.0,9.0,2.625
-8.0,14.0,2.626
-9.0,15.0,2.627
-5.0,9.0,2.628
-6.0,-2.0,2.629
-4.0,-10.0,2.63
1.0,-12.0,2.631
9.0,-10.0,2.632
11.0,-9.0,2.633
7.0,-8.0,2.634
3.0,-5.0,2.635
1.0,3.0,2.636
1.0,7.0,2.637
1.0,-1.0,2.638
2.0,-6.0,2.639
-1.0,-1.0,2.64
-6.0,6.0,2.641
-3.0,3.0,2.642
10.0,-5.0,2.643
18.0,-8.0,2.644
14.0,-3.0,2.645
4.0,-2.0,2.646
0.0,-2.0,2.647
0.0,4.0,2.648
-3.0,12.0,2.649
-4.0,9.0,2.65
3.0,-6.0,2.651
13.0,-16.0,2.652
13.0,-13.0,2.653
2.0,-6.0,2.654
-4.0,-1.0,2.655
0.0,2.0,2.656
10.0,10.0,2.657
9.0,12.0,2.658
0.0,6.0,2.659
-10.0,0.0,2.66
-21.0,-1.0,2.661
-28.0,2.0,2.662
-18.0,5.0,2.663
-8.0,3.0,2.664
1.0,-3.0,2.665
11.0,-14.0,2.666
19.0,-20.0,2.667
27.0,-15.0,2.668
32.0,-6.0,2.669
32.0,-1.0,2.67
16.0,-1.0,2.671
0.0,1.0,2.672
-20.0,10.0,2.673
-33.0,13.0,2.674
-26.0,4.0,2.675
-15.0,-4.0,2.676
9.0,-1.0,2.677
33.0,8.0,2.678
48.0,9.0,2.679
41.0,1.0,2.68
23.0,-7.0,2.681
18.0,-4.0,2.682
29.0,1.0,2.683
36.0,2.0,2.684
25.0,2.0,2.685
9.0,5.0,2.686
6.0,2.0,2.687
7.0,-4.0,2.688
-2.0,-5.0,2.689
-15.0,8.0,2.69
-15.0,21.0,2.691
-9.0,16.0,2.692
-12.0,-2.0,2.693
-26.0,-16.0,2.694
-32.0,-22.0,2.695
-23.0,-18.0,2.696
-10.0,-10.0,2.697
-3.0,-8.0,2.698
-1.0,-10.0,2.699
-2.0,-11.0,2.7
-5.0,-11.0,2.701
-4.0,-7.0,2.702
2.0,-1.0,2.703
9.0,5.0,2.704
4.0,13.0,2.705
-5.0,16.0,2.706
-7.0,8.0,2.707
-1.0,-4.0,2.708
3.0,-8.0,2.709
3.0,-1.0,2.71
2.0,5.0,2.711
3.0,7.0,2.712
1.0,3.0,2.713
1.0,4.0,2.714
7.0,3.0,2.715
15.0,5.0,2.716
18.0,9.0,2.717
11.0,8.0,2.718
4.0,2.0,2.719
-1.0,-3.0,2.72
-5.0,-11.0,2.721
-9.0,-15.0,2.722
-7.0,-9.0,2.723
0.0,-4.0,2.724
0.0,0.0,2.725
-7.0,3.0,2.726
-11.0,3.0,2.727
-5.0,1.0,2.728
2.0,-2.0,2.729
4.0,-5.0,2.73
5.0,-3.0,2.731
10.0,-2.0,2.732
13.0,-2.0,2.733
11.0,-3.0,2.734
11.0,-1.0,2.735
20.0,0.0,2.736
27.0,-1.0,2.737
20.0,-1.0,2.738
7.0,3.0,2.739
-4.0,3.0,2.74
-5.0,-6.0,2.741
-2.0,-9.0,2.742
5.0,-6.0,2.743
8.0,1.0,2.744
0.0,6.0,2.745
-14.0,7.0,2.746
-17.0,1.0,2.747
-9.0,-7.0,2.748
-3.0,-11.0,2.749
-4.0,-9.0,2.75
-5.0,-4.0,2.751
0.0,1.0,2.752
3.0,6.0,2.753
0.0,11.0,2.754
0.0,18.0,2.755
8.0,20.0,2.756
13.0,14.0,2.757
11.0,-1.0,2.758
5.0,-13.0,2.759
0.0,-12.0,2.76
1.0,-9.0,2.761
5.0,-9.0,2.762
12.0,-13.0,2.763
13.0,-11.0,2.764
-2.0,-1.0,2.765
-22.0,8.0,2.766
-27.0,9.0,2.767
-11.0,6.0,2.768
10.0,7.0,2.769
19.0,8.0,2.77
19.0,5.0,2.771
21.0,-3.0,2.772
23.0,-9.0,2.773
25.0,-12.0,2.774
28.0,-10.0,2.775
31.0,-3.0,2.776
29.0,6.0,2.777
12.0,5.0,2.778
-3.0,-1.0,2.779
-7.0,-5.0,2.78
-5.0,-2.0,2.781
-11.0,6.0,2.782
-19.0,12.0,2.783
-17.0,9.0,2.784
-12.0,2.0,2.785
-10.0,-2.0,2.786
-14.0,-3.0,2.787
-11.0,-5.0,2.788
-6.0,-5.0,2.789
-6.0,-5.0,2.79
-3.0,-2.0,2.791
9.0,-2.0,2.792
24.0,-6.0,2.793
27.0,-9.0,2.794
14.0,-8.0,2.795
0.0,-7.0,2.796
-4.0,-5.0,2.797
-3.0,-8.0,2.798
2.0,-8.0,2.799
6.0,-9.0,2.8
7.0,-12.0,2.801
5.0,-8.0,2.802
5.0,0.0,2.803
9.0,6.0,2.804
14.0,5.0,2.805
21.0,0.0,2.806
34.0,1.0,2.807
41.0,5.0,2.808
28.0,6.0,2.809
-2.0,3.0,2.81
-25.0,5.0,2.811
-32.0,13.0,2.812
-37.0,16.0,2.813
-43.0,9.0,2.814
-38.0,4.0,2.815
-21.0,7.0,2.816
-7.0,10.0,2.817
-7.0,2.0,2.818
-5.0,-6.0,2.819
-4.0,-6.0,2.82
-4.0,-6.0,2.821
-3.0,-8.0,2.822
6.0,-9.0,2.823
13.0,-2.0,2.824
13.0,7.0,2.825
11.0,7.0,2.826
8.0,-1.0,2.827
7.0,-6.0,2.828
13.0,-3.0,2.829
17.0,6.0,2.83
10.0,11.0,2.831
4.0,9.0,2.832
7.0,4.0,2.833
7.0,-1.0,2.834
-2.0,-4.0,2.835
-10.0,-6.0,2.836
-12.0,-8.0,2.837
-13.0,-9.0,2.838
-7.0,-8.0,2.839
-2.0,-8.0,2.84
5.0,-12.0,2.841
11.0,-9.0,2.842
14.0,-1.0,2.843
14.0,2.0,2.844
16.0,-1.0,2.845
23.0,-2.0,2.846
29.0,2.0,2.847
28.0,6.0,2.848
19.0,1.0,2.849
6.0,-5.0,2.85
-3.0,-7.0,2.851
-2.0,-4.0,2.852
10.0,0.0,2.853
18.0,0.0,2.854
15.0,0.0,2.855
3.0,2.0,2.856
1.0,4.0,2.857
6.0,6.0,2.858
10.0,9.0,2.859
1.0,9.0,2.86
-12.0,2.0,2.861
-20.0,-7.0,2.862
-14.0,-11.0,2.863
-2.0,-7.0,2.864
0.0,2.0,2.865
-7.0,7.0,2.866
-13.0,0.0,2.867
-6.0,-8.0,2.868
3.0,-12.0,2.869
0.0,-11.0,2.87
-15.0,-8.0,2.871
-24.0,-4.0,2.872
-25.0,5.0,2.873
-18.0,8.0,2.874
-6.0,0.0,2.875
12.0,-9.0,2.876
28.0,-5.0,2.877
37.0,0.0,2.878
34.0,0.0,2.879
21.0,-5.0,2.88
8.0,-5.0,2.881
2.0,6.0,2.882
9.0,15.0,2.883
16.0,17.0,2.884
8.0,11.0,2.885
-3.0,5.0,2.886
-3.0,0.0,2.887
4.0,-4.0,2.888
6.0,-6.0,2.889
-2.0,-6.0,2.89
-6.0,-8.0,2.891
-3.0,-8.0,2.892
-2.0,-6.0,2.893
-3.0,-5.0,2.894
0.0,-5.0,2.895
5.0,-3.0,2.896
9.0,4.0,2.897
6.0,12.0,2.898
2.0,19.0,2.899
-2.0,14.0,2.9
-7.0,-6.0,2.901
-9.0,-21.0,2.902
1.0,-21.0,2.903
10.0,-11.0,2.904
2.0,-5.0,2.905
-22.0,-6.0,2.906
-40.0,-5.0,2.907
-36.0,-2.0,2.908
-18.0,-2.0,2.909
-2.0,-6.0,2.91
10.0,-8.0,2.911
22.0,-4.0,2.912
29.0,1.0,2.913
24.0,4.0,2.914
17.0,6.0,2.915
23.0,8.0,2.916
37.0,9.0,2.917
37.0,7.0,2.918
20.0,4.0,2.919
2.0,-1.0,2.92
3.0,-7.0,2.921
12.0,-13.0,2.922
13.0,-14.0,2.923
6.0,-3.0,2.924
0.0,16.0,2.925
-5.0,32.0,2.926
-16.0,25.0,2.927
-28.0,1.0,2.928
-28.0,-14.0,2.929
-12.0,-8.0,2.93
11.0,0.0,2.931
27.0,-5.0,2.932
29.0,-12.0,2.933
19.0,-6.0,2.934
4.0,8.0,2.935
-6.0,9.0,2.936
-4.0,2.0,2.937
-1.0,0.0,2.938
-2.0,1.0,2.939
-5.0,0.0,2.94
-9.0,-9.0,2.941
-10.0,-15.0,2.942
-3.0,-4.0,2.943
1.0,4.0,2.944
-4.0,6.0,2.945
-8.0,8.0,2.946
-4.0,4.0,2.947
0.0,0.0,2.948
4.0,-5.0,2.949
6.0,-8.0,2.95
4.0,-2.0,2.951
2.0,0.0,2.952
3.0,-10.0,2.953
4.0,-16.0,2.954
3.0,-9.0,2.955
2.0,-4.0,2.956
2.0,-2.0,2.957
4.0,0.0,2.958
7.0,4.0,2.959
5.0,6.0,2.96
-1.0,-1.0,2.961
-8.0,-5.0,2.962
-9.0,-3.0,2.963
-5.0,-2.0,2.964
0.0,-2.0,2.965
2.0,0.0,2.966
3.0,6.0,2.967
2.0,9.0,2.968
3.0,1.0,2.969
4.0,-7.0,2.97
3.0,-9.0,2.971
1.0,-8.0,2.972
0.0,-8.0,2.973
-1.0,-6.0,2.974
-2.0,-4.0,2.975
-2.0,-2.0,2.976
6.0,-1.0,2.977
14.0,1.0,2.978
16.0,0.0,2.979
11.0,-3.0,2.98
12.0,-8.0,2.981
20.0,-6.0,2.982
23.0,2.0,2.983
14.0,9.0,2.984
2.0,16.0,2.985
3.0,22.0,2.986
8.0,25.0,2.987
4.0,14.0,2.988
0.0,-3.0,2.989
0.0,-12.0,2.99
0.0,-9.0,2.991
-3.0,-2.0,2.992
-5.0,-1.0,2.993
2.0,-4.0,2.994
15.0,-3.0,2.995
24.0,0.0,2.996
30.0,0.0,2.997
20.0,-4.0,2.998
-2.0,-6.0,2.999
-21.0,-3.0,3.0
-27.0,-4.0,3.001
-31.0,-6.0,3.002
-29.0,-8.0,3.003
-28.0,-5.0,3.004
-30.0,-2.0,3.005
-32.0,2.0,3.006
-30.0,5.0,3.007
-27.0,3.0,3.008
-19.0,-1.0,3.009
-6.0,-5.0,3.01
19.0,-7.0,3.011
39.0,-7.0,3.012
39.0,-6.0,3.013
35.0,-3.0,3.014
22.0,-1.0,3.015
10.0,0.0,3.016
4.0,3.0,3.017
0.0,5.0,3.018
14.0,3.0,3.019
28.0,-1.0,3.02
29.0,-6.0,3.021
20.0,-1.0,3.022
13.0,3.0,3.023
11.0,3.0,3.024
10.0,2.0,3.025
3.0,3.0,3.026
0.0,2.0,3.027
2.0,-5.0,3.028
2.0,-9.0,3.029
0.0,-3.0,3.03
-3.0,6.0,3.031
-1.0,2.0,3.032
-2.0,-10.0,3.033
-5.0,-14.0,3.034
-4.0,-4.0,3.035
-2.0,7.0,3.036
0.0,11.0,3.037
-2.0,6.0,3.038
-5.0,4.0,3.039
-10.0,4.0,3.04
-12.0,-3.0,3.041
-10.0,-8.0,3.042
1.0,-3.0,3.043
12.0,11.0,3.044
11.0,21.0,3.045
4.0,21.0,3.046
3.0,10.0,3.047
7.0,-2.0,3.048
9.0,-9.0,3.049
8.0,-8.0,3.05
11.0,-7.0,3.051
12.0,-8.0,3.052
3.0,-11.0,3.053
-9.0,-7.0,3.054
-13.0,6.0,3.055
-6.0,19.0,3.056
-4.0,16.0,3.057
-11.0,-2.0,3.058
-17.0,-16.0,3.059
-17.0,-10.0,3.06
-16.0,-3.0,3.061
-16.0,-5.0,3.062
-10.0,-13.0,3.063
5.0,-12.0,3.064
22.0,-4.0,3.065
33.0,-1.0,3.066
35.0,-1.0,3.067
31.0,1.0,3.068
24.0,5.0,3.069
22.0,-1.0,3.07
24.0,-11.0,3.071
21.0,-14.0,3.072
9.0,-10.0,3.073
-7.0,-10.0,3.074
-23.0,-15.0,3.075
-32.0,-13.0,3.076
-26.0,-6.0,3.077
-3.0,0.0,3.078
22.0,4.0,3.079
26.0,6.0,3.08
14.0,3.0,3.081
6.0,-1.0,3.082
3.0,1.0,3.083
-6.0,11.0,3.084
-19.0,20.0,3.085
-17.0,14.0,3.086
-3.0,1.0,3.087
3.0,-2.0,3.088
0.0,4.0,3.089
2.0,8.0,3.09
12.0,7.0,3.091
17.0,9.0,3.092
13.0,9.0,3.093
13.0,1.0,3.094
18.0,-8.0,3.095
14.0,-7.0,3.096
-3.0,-2.0,3.097
-19.0,-4.0,3.098
-22.0,-7.0,3.099
-18.0,-6.0,3.1
-11.0,-9.0,3.101
0.0,-16.0,3.102
13.0,-17.0,3.103
20.0,-4.0,3.104
17.0,12.0,3.105
7.0,13.0,3.106
-6.0,5.0,3.107
-17.0,1.0,3.108
-17.0,4.0,3.109
2.0,-2.0,3.11
32.0,-14.0,3.111
57.0,-15.0,3.112
61.0,-7.0,3.113
39.0,1.0,3.114
2.0,7.0,3.115
-24.0,12.0,3.116
-27.0,14.0,3.117
-19.0,2.0,3.118
-21.0,-9.0,3.119
-37.0,-7.0,3.12
-43.0,2.0,3.121
-30.0,3.0,3.122
-9.0,-4.0,3.123
4.0,-7.0,3.124
11.0,0.0,3.125
13.0,11.0,3.126
7.0,12.0,3.127
-2.0,7.0,3.128
-4.0,-2.0,3.129
7.0,-9.0,3.13
20.0,-9.0,3.131
23.0,-6.0,3.132
18.0,-1.0,3.133
13.0,0.0,3.134
8.0,-2.0,3.135
6.0,-4.0,3.136
2.0,-6.0,3.137
-2.0,-10.0,3.138
-3.0,-9.0,3.139
-2.0,-2.0,3.14
0.0,3.0,3.141
1.0,3.0,3.142
1.0,-3.0,3.143
3.0,-6.0,3.144
7.0,-3.0,3.145
9.0,1.0,3.146
9.0,5.0,3.147
8.0,4.0,3.148
8.0,1.0,3.149
7.0,-1.0,3.15
4.0,-3.0,3.151
0.0,-2.0,3.152
-5.0,-1.0,3.153
-9.0,1.0,3.154
-7.0,4.0,3.155
-1.0,9.0,3.156
4.0,11.0,3.157
0.0,9.0,3.158
-6.0,-1.0,3.159
-10.0,-14.0,3.16
-10.0,-23.0,3.161
-8.0,-17.0,3.162
-3.0,-6.0,3.163
3.0,2.0,3.164
8.0,1.0,3.165
3.0,-4.0,3.166
1.0,-8.0,3.167
0.0,-10.0,3.168
-7.0,-10.0,3.169
-24.0,-8.0,3.17
-30.0,0.0,3.171
-8.0,8.0,3.172
30.0,12.0,3.173
54.0,13.0,3.174
44.0,14.0,3.175
20.0,18.0,3.176
5.0,23.0,3.177
1.0,18.0,3.178
8.0,0.0,3.179
21.0,-17.0,3.18
35.0,-23.0,3.181
34.0,-9.0,3.182
16.0,9.0,3.183
1.0,21.0,3.184
2.0,22.0,3.185
7.0,21.0,3.186
-1.0,15.0,3.187
-14.0,6.0,3.188
-15.0,-5.0,3.189
-8.0,-15.0,3.19
-7.0,-25.0,3.191
-15.0,-31.0,3.192
-18.0,-27.0,3.193
-14.0,-13.0,3.194
-5.0,4.0,3.195
4.0,10.0,3.196
10.0,6.0,3.197
8.0,0.0,3.198
0.0,1.0,3.199
-5.0,4.0,3.2
-7.0,-1.0,3.201
-5.0,-6.0,3.202
-3.0,-5.0,3.203
-2.0,-3.0,3.204
-10.0,-2.0,3.205
-24.0,-1.0,3.206
-28.0,-1.0,3.207
-11.0,-2.0,3.208
17.0,-4.0,3.209
32.0,-1.0,3.21
30.0,2.0,3.211
22.0,-3.0,3.212
19.0,-12.0,3.213
15.0,-14.0,3.214
11.0,-3.0,3.215
13.0,9.0,3.216
15.0,11.0,3.217
9.0,3.0,3.218
2.0,0.0,3.219
-2.0,3.0,3.22
-1.0,1.0,3.221
-5.0,-4.0,3.222
-7.0,-6.0,3.223
-4.0,-4.0,3.224
-2.0,1.0,3.225
-7.0,2.0,3.226
-11.0,-2.0,3.227
-1.0,-5.0,3.228
10.0,-4.0,3.229
10.0,0.0,3.23
1.0,0.0,3.231
-5.0,2.0,3.232
-9.0,6.0,3.233
-12.0,10.0,3.234
-7.0,11.0,3.235
6.0,10.0,3.236
17.0,7.0,3.237
15.0,0.0,3.238
12.0,-4.0,3.239
19.0,-6.0,3.24
27.0,-7.0,3.241
20.0,-4.0,3.242
9.0,-1.0,3.243
9.0,6.0,3.244
13.0,14.0,3.245
-1.0,14.0,3.246
-25.0,3.0,3.247
-35.0,-7.0,3.248
-25.0,-8.0,3.249
-9.0,-2.0,3.25
3.0,-4.0,3.251
11.0,-11.0,3.252
13.0,-13.0,3.253
12.0,-4.0,3.254
10.0,5.0,3.255
10.0,6.0,3.256
8.0,4.0,3.257
2.0,0.0,3.258
-3.0,-5.0,3.259
-8.0,-9.0,3.26
-11.0,-10.0,3.261
-10.0,-3.0,3.262
-2.0,1.0,3.263
6.0,-2.0,3.264
7.0,-5.0,3.265
-1.0,-2.0,3.266
-4.0,3.0,3.267
1.0,1.0,3.268
7.0,-6.0,3.269
8.0,-10.0,3.27
8.0,-9.0,3.271
10.0,-4.0,3.272
11.0,0.0,3.273
9.0,7.0,3.274
10.0,10.0,3.275
17.0,11.0,3.276
23.0,10.0,3.277
20.0,6.0,3.278
8.0,3.0,3.279
-4.0,2.0,3.28
-14.0,-2.0,3.281
-17.0,-6.0,3.282
-12.0,-11.0,3.283
-3.0,-11.0,3.284
1.0,-3.0,3.285
1.0,5.0,3.286
0.0,5.0,3.287
-5.0,-1.0,3.288
-19.0,-5.0,3.289
-39.0,-7.0,3.29
-51.0,-7.0,3.291
-44.0,-9.0,3.292
-25.0,-6.0,3.293
-3.0,-3.0,3.294
25.0,-2.0,3.295
59.0,-2.0,3.296
86.0,2.0,3.297
85.0,5.0,3.298
54.0,6.0,3.299
18.0,7.0,3.3
1.0,9.0,3.301
-1.0,12.0,3.302
0.0,6.0,3.303
2.0,-3.0,3.304
11.0,-7.0,3.305
20.0,-6.0,3.306
19.0,-7.0,3.307
9.0,-7.0,3.308
-6.0,0.0,3.309
-23.0,9.0,3.31
-35.0,6.0,3.311
-31.0,-5.0,3.312
-10.0,-9.0,3.313
15.0,-4.0,3.314
24.0,1.0,3.315
20.0,0.0,3.316
15.0,3.0,3.317
5.0,12.0,3.318
-8.0,16.0,3.319
-25.0,6.0,3.32
-33.0,-7.0,3.321
-26.0,-7.0,3.322
-2.0,0.0,3.323
23.0,-2.0,3.324
27.0,-8.0,3.325
7.0,-8.0,3.326
-15.0,-3.0,3.327
-16.0,-10.0,3.328
4.0,-24.0,3.329
20.0,-33.0,3.33
16.0,-26.0,3.331
3.0,-8.0,3.332
-3.0,7.0,3.333
-3.0,10.0,3.334
-3.0,3.0,3.335
-2.0,-1.0,3.336
2.0,6.0,3.337
10.0,14.0,3.338
20.0,11.0,3.339
30.0,0.0,3.34
35.0,-6.0,3.341
24.0,-4.0,3.342
0.0,-4.0,3.343
-20.0,-7.0,3.344
-31.0,-3.0,3.345
-39.0,8.0,3.346
-45.0,10.0,3.347
-37.0,-1.0,3.348
-20.0,-9.0,3.349
-10.0,-4.0,3.35
-10.0,7.0,3.351
-4.0,10.0,3.352
14.0,5.0,3.353
26.0,0.0,3.354
19.0,0.0,3.355
5.0,3.0,3.356
7.0,5.0,3.357
15.0,0.0,3.358
16.0,-5.0,3.359
6.0,-6.0,3.36
2.0,-7.0,3.361
8.0,-6.0,3.362
15.0,-5.0,3.363
18.0,-1.0,3.364
17.0,6.0,3.365
12.0,6.0,3.366
9.0,-2.0,3.367
9.0,-6.0,3.368
12.0,-2.0,3.369
10.0,1.0,3.37
0.0,0.0,3.371
-6.0,0.0,3.372
-7.0,7.0,3.373
-4.0,14.0,3.374
-3.0,15.0,3.375
-2.0,10.0,3.376
3.0,5.0,3.377
7.0,-4.0,3.378
7.0,-13.0,3.379
1.0,-15.0,3.38
-7.0,-10.0,3.381
-17.0,-3.0,3.382
-27.0,2.0,3.383
-32.0,0.0,3.384
-23.0,-6.0,3.385
0.0,-12.0,3.386
27.0,-11.0,3.387
46.0,-4.0,3.388
50.0,0.0,3.389
40.0,-2.0,3.39
25.0,-6.0,3.391
6.0,-5.0,3.392
-12.0,-5.0,3.393
-24.0,-3.0,3.394
-24.0,5.0,3.395
-14.0,16.0,3.396
0.0,18.0,3.397
16.0,8.0,3.398
32.0,1.0,3.399
42.0,2.0,3.4
38.0,0.0,3.401
23.0,-3.0,3.402
10.0,-3.0,3.403
5.0,2.0,3.404
4.0,4.0,3.405
-3.0,2.0,3.406
-9.0,5.0,3.407
-6.0,10.0,3.408
2.0,4.0,3.409
5.0,-8.0,3.41
1.0,-14.0,3.411
-3.0,-7.0,3.412
-7.0,-1.0,3.413
-13.0,0.0,3.414
-15.0,-2.0,3.415
-7.0,-3.0,3.416
2.0,-2.0,3.417
1.0,-5.0,3.418
-4.0,-7.0,3.419
-8.0,-3.0,3.42
-10.0,1.0,3.421
-15.0,5.0,3.422
-15.0,1.0,3.423
-9.0,-8.0,3.424
-7.0,-10.0,3.425
-16.0,-2.0,3.426
-18.0,5.0,3.427
-6.0,3.0,3.428
13.0,-1.0,3.429
17.0,1.0,3.43
7.0,3.0,3.431
0.0,1.0,3.432
-1.0,-1.0,3.433
0.0,2.0,3.434
5.0,4.0,3.435
14.0,-2.0,3.436
17.0,-6.0,3.437
13.0,-5.0,3.438
9.0,-3.0,3.439
5.0,-1.0,3.44
4.0,-2.0,3.441
4.0,-3.0,3.442
10.0,-6.0,3.443
14.0,-6.0,3.444
11.0,3.0,3.445
8.0,12.0,3.446
4.0,10.0,3.447
0.0,7.0,3.448
-3.0,0.0,3.449
-6.0,-5.0,3.45
-6.0,-3.0,3.451
-3.0,-2.0,3.452
6.0,-2.0,3.453
14.0,-1.0,3.454
18.0,8.0,3.455
21.0,13.0,3.456
21.0,2.0,3.457
15.0,-7.0,3.458
-18.0,-9.0,3.459
-52.0,-11.0,3.46
-59.0,-12.0,3.461
-36.0,-2.0,3.462
-9.0,6.0,3.463
5.0,4.0,3.464
5.0,-2.0,3.465
5.0,-5.0,3.466
12.0,-7.0,3.467
20.0,-8.0,3.468
29.0,-2.0,3.469
32.0,8.0,3.47
28.0,15.0,3.471
18.0,10.0,3.472
5.0,-1.0,3.473
-7.0,-10.0,3.474
-20.0,-12.0,3.475
-26.0,-12.0,3.476
-17.0,-9.0,3.477
5.0,-6.0,3.478
24.0,-3.0,3.479
32.0,0.0,3.48
32.0,-2.0,3.481
27.0,-3.0,3.482
19.0,-2.0,3.483
19.0,2.0,3.484
32.0,4.0,3.485
44.0,1.0,3.486
36.0,0.0,3.487
12.0,5.0,3.488
-14.0,14.0,3.489
-30.0,12.0,3.49
-28.0,-2.0,3.491
-12.0,-9.0,3.492
8.0,-6.0,3.493
12.0,2.0,3.494
1.0,4.0,3.495
-8.0,-1.0,3.496
-6.0,-3.0,3.497
-6.0,-3.0,3.498
-12.0,-5.0,3.499
-19.0,-6.0,3.5
-18.0,-5.0,3.501
-16.0,-4.0,3.502
-19.0,-7.0,3.503
-20.0,-12.0,3.504
-17.0,-12.0,3.505
-10.0,-9.0,3.506
-4.0,-7.0,3.507
4.0,-9.0,3.508
11.0,-9.0,3.509
11.0,-1.0,3.51
6.0,8.0,3.511
2.0,14.0,3.512
3.0,18.0,3.513
7.0,25.0,3.514
11.0,27.0,3.515
15.0,18.0,3.516
13.0,4.0,3.517
5.0,4.0,3.518
0.0,2.0,3.519
-1.0,0.0,3.52
-2.0,-2.0,3.521
-5.0,-5.0,3.522
-1.0,-9.0,3.523
9.0,-11.0,3.524
11.0,-5.0,3.525
1.0,-1.0,3.526
-5.0,0.0,3.527
-1.0,0.0,3.528
5.0,-1.0,3.529
5.0,-3.0,3.53
4.0,0.0,3.531
8.0,2.0,3.532
7.0,6.0,3.533
-3.0,9.0,3.534
-11.0,6.0,3.535
-6.0,3.0,3.536
8.0,6.0,3.537
13.0,5.0,3.538
7.0,3.0,3.539
3.0,1.0,3.54
5.0,-3.0,3.541
9.0,-6.0,3.542
17.0,-10.0,3.543
22.0,-12.0,3.544
18.0,-6.0,3.545
10.0,-2.0,3.546
-4.0,0.0,3.547
-17.0,0.0,3.548
-25.0,-2.0,3.549
-28.0,-4.0,3.55
-15.0,-1.0,3.551
-2.0,3.0,3.552
10.0,7.0,3.553
17.0,10.0,3.554
11.0,7.0,3.555
3.0,4.0,3.556
-8.0,7.0,3.557
-15.0,9.0,3.558
-1.0,4.0,3.559
20.0,5.0,3.56
31.0,10.0,3.561
24.0,12.0,3.562
19.0,5.0,3.563
22.0,-2.0,3.564
22.0,-2.0,3.565
19.0,-3.0,3.566
17.0,-8.0,3.567
16.0,-19.0,3.568
6.0,-30.0,3.569
-5.0,-35.0,3.57
-6.0,-28.0,3.571
2.0,-12.0,3.572
7.0,2.0,3.573
-3.0,8.0,3.574
-19.0,8.0,3.575
-26.0,10.0,3.576
-21.0,13.0,3.577
-10.0,5.0,3.578
1.0,-10.0,3.579
0.0,-18.0,3.58
-9.0,-14.0,3.581
-14.0,-7.0,3.582
-7.0,-6.0,3.583
0.0,-7.0,3.584
1.0,-2.0,3.585
4.0,4.0,3.586
13.0,6.0,3.587
22.0,10.0,3.588
24.0,17.0,3.589
21.0,16.0,3.59
17.0,5.0,3.591
14.0,-2.0,3.592
12.0,5.0,3.593
10.0,12.0,3.594
5.0,4.0,3.595
-2.0,-7.0,3.596
-9.0,-7.0,3.597
-13.0,0.0,3.598
-11.0,2.0,3.599
-8.0,-3.0,3.6
-2.0,-11.0,3.601
2.0,-10.0,3.602
6.0,-9.0,3.603
8.0,-7.0,3.604
5.0,-1.0,3.605
-2.0,2.0,3.606
-19.0,-4.0,3.607
-28.0,-8.0,3.608
-14.0,-3.0,3.609
-1.0,3.0,3.61
11.0,3.0,3.611
21.0,-2.0,3.612
26.0,-1.0,3.613
30.0,7.0,3.614
25.0,12.0,3.615
16.0,13.0,3.616
-4.0,7.0,3.617
-22.0,-3.0,3.618
-29.0,-7.0,3.619
-31.0,-6.0,3.62
-37.0,-6.0,3.621
-42.0,-8.0,3.622
-26.0,-11.0,3.623
4.0,-8.0,3.624
21.0,-4.0,3.625
16.0,-4.0,3.626
7.0,-8.0,3.627
8.0,-6.0,3.628
11.0,2.0,3.629
13.0,11.0,3.63
19.0,11.0,3.631
31.0,8.0,3.632
32.0,7.0,3.633
21.0,13.0,3.634
14.0,21.0,3.635
16.0,23.0,3.636
17.0,19.0,3.637
2.0,10.0,3.638
-8.0,6.0,3.639
-2.0,5.0,3.64
16.0,-1.0,3.641
26.0,-7.0,3.642
23.0,-11.0,3.643
10.0,-10.0,3.644
2.0,-7.0,3.645
8.0,-4.0,3.646
19.0,-3.0,3.647
17.0,-5.0,3.648
-4.0,-7.0,3.649
-25.0,-9.0,3.65
-25.0,-7.0,3.651
-9.0,-3.0,3.652
-3.0,5.0,3.653
-19.0,10.0,3.654
-39.0,8.0,3.655
-38.0,1.0,3.656
-14.0,-5.0,3.657
13.0,-13.0,3.658
22.0,-17.0,3.659
17.0,-13.0,3.66
7.0,-8.0,3.661
-7.0,-1.0,3.662
-25.0,2.0,3.663
-28.0,0.0,3.664
-4.0,-3.0,3.665
31.0,-5.0,3.666
50.0,-7.0,3.667
50.0,-8.0,3.668
52.0,-6.0,3.669
62.0,-1.0,3.67
59.0,1.0,3.671
36.0,-1.0,3.672
11.0,-1.0,3.673
-3.0,1.0,3.674
-16.0,7.0,3.675
-33.0,11.0,3.676
-44.0,12.0,3.677
-53.0,6.0,3.678
-65.0,-3.0,3.679
-70.0,-6.0,3.68
-55.0,-6.0,3.681
-37.0,-4.0,3.682
-9.0,-5.0,3.683
14.0,-6.0,3.684
20.0,-1.0,3.685
27.0,2.0,3.686
36.0,-2.0,3.687
39.0,-7.0,3.688
23.0,-5.0,3.689
8.0,0.0,3.69
-4.0,1.0,3.691
-8.0,-1.0,3.692
10.0,1.0,3.693
23.0,6.0,3.694
13.0,4.0,3.695
3.0,-1.0,3.696
-9.0,-5.0,3.697
-19.0,-7.0,3.698
-20.0,-7.0,3.699
-14.0,-8.0,3.7
-3.0,-7.0,3.701
4.0,-3.0,3.702
1.0,0.0,3.703
1.0,1.0,3.704
12.0,2.0,3.705
21.0,6.0,3.706
23.0,7.0,3.707
20.0,7.0,3.708
18.0,8.0,3.709
9.0,9.0,3.71
-8.0,6.0,3.711
-19.0,1.0,3.712
-21.0,-5.0,3.713
-27.0,-12.0,3.714
-36.0,-17.0,3.715
-36.0,-16.0,3.716
-20.0,-11.0,3.717
1.0,-11.0,3.718
18.0,-13.0,3.719
20.0,-10.0,3.72
16.0,1.0,3.721
9.0,20.0,3.722
11.0,27.0,3.723
25.0,22.0,3.724
43.0,16.0,3.725
54.0,14.0,3.726
53.0,7.0,3.727
48.0,-9.0,3.728
39.0,-18.0,3.729
22.0,-11.0,3.73
1.0,0.0,3.731
-12.0,2.0,3.732
-18.0,0.0,3.733
-24.0,5.0,3.734
-32.0,12.0,3.735
-31.0,9.0,3.736
-16.0,2.0,3.737
0.0,4.0,3.738
-1.0,13.0,3.739
-19.0,14.0,3.74
-29.0,-3.0,3.741
-14.0,-18.0,3.742
8.0,-15.0,3.743
18.0,-7.0,3.744
16.0,-8.0,3.745
26.0,-14.0,3.746
45.0,-16.0,3.747
52.0,-13.0,3.748
44.0,-9.0,3.749
29.0,-2.0,3.75
11.0,3.0,3.751
-12.0,2.0,3.752
-25.0,-4.0,3.753
-20.0,-5.0,3.754
-9.0,2.0,3.755
-10.0,6.0,3.756
-20.0,3.0,3.757
-27.0,-1.0,3.758
-31.0,1.0,3.759
-39.0,2.0,3.76
-40.0,-6.0,3.761
-23.0,-11.0,3.762
11.0,-7.0,3.763
36.0,-2.0,3.764
40.0,3.0,3.765
32.0,7.0,3.766
25.0,6.0,3.767
25.0,5.0,3.768
27.0,6.0,3.769
20.0,7.0,3.77
-2.0,7.0,3.771
-26.0,6.0,3.772
-37.0,0.0,3.773
-31.0,-4.0,3.774
-20.0,-5.0,3.775
-9.0,-6.0,3.776
8.0,-6.0,3.777
25.0,-4.0,3.778
39.0,0.0,3.779
39.0,2.0,3.78
30.0,-3.0,3.781
20.0,-3.0,3.782
17.0,2.0,3.783
16.0,10.0,3.784
10.0,9.0,3.785
-4.0,1.0,3.786
-15.0,-6.0,3.787
-11.0,-8.0,3.788
-2.0,-3.0,3.789
-1.0,4.0,3.79
-10.0,9.0,3.791
-21.0,3.0,3.792
-28.0,-6.0,3.793
-30.0,-9.0,3.794
-21.0,-5.0,3.795
4.0,0.0,3.796
25.0,4.0,3.797
18.0,0.0,3.798
-4.0,0.0,3.799
-22.0,-1.0,3.8
-23.0,-3.0,3.801
-23.0,-5.0,3.802
-16.0,-5.0,3.803
-11.0,-6.0,3.804
-11.0,-8.0,3.805
-9.0,-11.0,3.806
-4.0,-13.0,3.807
4.0,-14.0,3.808
22.0,-12.0,3.809
33.0,-8.0,3.81
21.0,0.0,3.811
12.0,7.0,3.812
17.0,9.0,3.813
23.0,12.0,3.814
28.0,12.0,3.815
28.0,13.0,3.816
14.0,17.0,3.817
1.0,22.0,3.818
-2.0,22.0,3.819
4.0,11.0,3.82
9.0,-3.0,3.821
-2.0,-6.0,3.822
-8.0,-1.0,3.823
0.0,-1.0,3.824
7.0,-9.0,3.825
-5.0,-14.0,3.826
-31.0,-11.0,3.827
-44.0,-3.0,3.828
-40.0,1.0,3.829
-29.0,2.0,3.83
-17.0,-1.0,3.831
1.0,-5.0,3.832
27.0,-10.0,3.833
53.0,-12.0,3.834
79.0,-7.0,3.835
100.0,0.0,3.836
113.0,3.0,3.837
100.0,2.0,3.838
72.0,5.0,3.839
40.0,12.0,3.84
22.0,8.0,3.841
11.0,0.0,3.842
-1.0,-5.0,3.843
-24.0,-2.0,3.844
-50.0,0.0,3.845
-65.0,-2.0,3.846
-59.0,-4.0,3.847
-40.0,1.0,3.848
-24.0,4.0,3.849
-20.0,-2.0,3.85
-19.0,-10.0,3.851
-15.0,-9.0,3.852
-4.0,-1.0,3.853
6.0,7.0,3.854
13.0,7.0,3.855
10.0,1.0,3.856
0.0,-2.0,3.857
25.0,-4.0,3.858
27.0,-1.0,3.859
25.0,0.0,3.86
11.0,-4.0,3.861
-1.0,-8.0,3.862
-10.0,-7.0,3.863
-17.0,-6.0,3.864
-14.0,-4.0,3.865
-12.0,-3.0,3.866
-13.0,-3.0,3.867
-10.0,-3.0,3.868
5.0,-7.0,3.869
19.0,-10.0,3.87
34.0,-11.0,3.871
42.0,-11.0,3.872
27.0,-9.0,3.873
15.0,-4.0,3.874
12.0,5.0,3.875
9.0,14.0,3.876
6.0,12.0,3.877
42.0,9.0,3.878
46.0,0.0,3.879
42.0,0.0,3.88
14.0,0.0,3.881
-11.0,2.0,3.882
-29.0,5.0,3.883
-43.0,9.0,3.884
-38.0,12.0,3.885
-34.0,11.0,3.886
-35.0,3.0,3.887
-29.0,-7.0,3.888
0.0,-8.0,3.889
30.0,-3.0,3.89
59.0,-2.0,3.891
75.0,-6.0,3.892
45.0,-11.0,3.893
21.0,-14.0,3.894
15.0,-15.0,3.895
9.0,-14.0,3.896
3.0,-11.0,3.897
3.0,-6.0,3.898
31.0,-2.0,3.899
73.0,1.0,3.9
101.0,-1.0,3.901
104.0,-4.0,3.902
90.0,-6.0,3.903
67.0,-5.0,3.904
36.0,0.0,3.905
6.0,7.0,3.906
-17.0,7.0,3.907
-40.0,0.0,3.908
-55.0,-5.0,3.909
-58.0,-5.0,3.91
-52.0,-2.0,3.911
-50.0,-3.0,3.912
-53.0,-5.0,3.913
-42.0,-2.0,3.914
-20.0,6.0,3.915
-11.0,8.0,3.916
-24.0,4.0,3.917
-38.0,-1.0,3.918
-31.0,-2.0,3.919
-20.0,-2.0,3.92
-15.0,-4.0,3.921
-9.0,-3.0,3.922
10.0,2.0,3.923
26.0,6.0,3.924
10.0,6.0,3.925
-26.0,3.0,3.926
-48.0,4.0,3.927
-45.0,9.0,3.928
-41.0,13.0,3.929
-43.0,12.0,3.93
-30.0,7.0,3.931
0.0,0.0,3.932
12.0,-5.0,3.933
-8.0,-7.0,3.934
-23.0,-8.0,3.935
6.0,-5.0,3.936
61.0,2.0,3.937
94.0,7.0,3.938
84.0,8.0,3.939
60.0,8.0,3.94
58.0,13.0,3.941
73.0,26.0,3.942
67.0,31.0,3.943
24.0,19.0,3.944
-31.0,1.0,3.945
-70.0,-8.0,3.946
-72.0,-9.0,3.947
-32.0,-16.0,3.948
36.0,-23.0,3.949
105.0,-21.0,3.95
154.0,-14.0,3.951
179.0,-10.0,3.952
180.0,-10.0,3.953
140.0,-6.0,3.954
58.0,0.0,3.955
-23.0,-1.0,3.956
-62.0,-7.0,3.957
-75.0,-12.0,3.958
-97.0,-9.0,3.959
-131.0,-4.0,3.96
-136.0,-4.0,3.961
-96.0,-6.0,3.962
-45.0,-6.0,3.963
-16.0,-4.0,3.964
-6.0,4.0,3.965
-5.0,14.0,3.966
-20.0,17.0,3.967
-48.0,14.0,3.968
-65.0,12.0,3.969
-59.0,10.0,3.97
-41.0,0.0,3.971
-21.0,-18.0,3.972
13.0,-27.0,3.973
54.0,-26.0,3.974
74.0,-18.0,3.975
59.0,-5.0,3.976
32.0,15.0,3.977
5.0,31.0,3.978
-31.0,32.0,3.979
-84.0,17.0,3.98
-131.0,-3.0,3.981
-148.0,-16.0,3.982
-126.0,-27.0,3.983
-76.0,-37.0,3.984
-21.0,-40.0,3.985
10.0,-30.0,3.986
24.0,-10.0,3.987
74.0,9.0,3.988
177.0,21.0,3.989
265.0,21.0,3.99
261.0,15.0,3.991
190.0,15.0,3.992
130.0,22.0,3.993
98.0,19.0,3.994
42.0,2.0,3.995
-45.0,-12.0,3.996
-100.0,-6.0,3.997
-88.0,12.0,3.998
-40.0,24.0,3.999
-15.0,21.0,4.0
-23.0,6.0,4.001
-36.0,-4.0,4.002
-31.0,-6.0,4.003
-17.0,0.0,4.004
-13.0,5.0,4.005
-24.0,-1.0,4.006
-40.0,-17.0,4.007
-50.0,-28.0,4.008
-53.0,-24.0,4.009
-61.0,-16.0,4.01
-78.0,-16.0,4.011
-88.0,-19.0,4.012
-67.0,-15.0,4.013
-18.0,-3.0,4.014
31.0,4.0,4.015
58.0,0.0,4.016
75.0,-5.0,4.017
106.0,-8.0,4.018
133.0,3.0,4.019
102.0,20.0,4.02
3.0,27.0,4.021
-104.0,19.0,4.022
-150.0,7.0,4.023
-124.0,-3.0,4.024
-67.0,-6.0,4.025
-10.0,-2.0,4.026
47.0,1.0,4.027
95.0,1.0,4.028
100.0,-2.0,4.029
56.0,-3.0,4.03
1.0,-4.0,4.031
-16.0,-4.0,4.032
0.0,-4.0,4.033
8.0,-1.0,4.034
-8.0,-2.0,4.035
-9.0,-9.0,4.036
23.0,-10.0,4.037
52.0,-3.0,4.038
31.0,7.0,4.039
-27.0,7.0,4.04
-69.0,-2.0,4.041
-79.0,-1.0,4.042
-68.0,7.0,4.043
-25.0,11.0,4.044
61.0,6.0,4.045
138.0,0.0,4.046
129.0,-4.0,4.047
65.0,-6.0,4.048
52.0,-9.0,4.049
113.0,-8.0,4.05
144.0,-3.0,4.051
83.0,7.0,4.052
1.0,19.0,4.053
-25.0,23.0,4.054
-28.0,12.0,4.055
-70.0,1.0,4.056
-129.0,4.0,4.057
-158.0,11.0,4.058
-153.0,8.0,4.059
-140.0,-6.0,4.06
-106.0,-19.0,4.061
-35.0,-18.0,4.062
40.0,-13.0,4.063
81.0,-14.0,4.064
91.0,-18.0,4.065
80.0,-21.0,4.066
41.0,-17.0,4.067
-12.0,-4.0,4.068
-29.0,8.0,4.069
4.0,13.0,4.07
41.0,4.0,4.071
51.0,-6.0,4.072
59.0,-10.0,4.073
80.0,-7.0,4.074
79.0,-6.0,4.075
41.0,-8.0,4.076
0.0,-9.0,4.077
-18.0,-8.0,4.078
-24.0,-2.0,4.079
-44.0,7.0,4.08
-67.0,12.0,4.081
-64.0,14.0,4.082
-35.0,12.0,4.083
-8.0,8.0,4.084
-2.0,4.0,4.085
-10.0,2.0,4.086
-12.0,-5.0,4.087
4.0,-14.0,4.088
27.0,-23.0,4.089
29.0,-25.0,4.09
9.0,-21.0,4.091
-6.0,-15.0,4.092
-4.0,-9.0,4.093
-1.0,2.0,4.094
-18.0,19.0,4.095
-48.0,32.0,4.096
-70.0,33.0,4.097
-77.0,25.0,4.098
-65.0,25.0,4.099
-31.0,34.0,4.1
8.0,26.0,4.101
34.0,-2.0,4.102
38.0,-28.0,4.103
44.0,-28.0,4.104
67.0,-13.0,4.105
96.0,-6.0,4.106
98.0,-8.0,4.107
68.0,-9.0,4.108
16.0,-6.0,4.109
-28.0,-10.0,4.11
-48.0,-15.0,4.111
-46.0,-1.0,4.112
-33.0,29.0,4.113
-24.0,45.0,4.114
-18.0,33.0,4.115
-10.0,10.0,4.116
-3.0,0.0,4.117
-7.0,1.0,4.118
-34.0,4.0,4.119
-75.0,-4.0,4.12
-95.0,-24.0,4.121
-64.0,-40.0,4.122
6.0,-44.0,4.123
86.0,-39.0,4.124
159.0,-30.0,4.125
207.0,-9.0,4.126
198.0,19.0,4.127
117.0,36.0,4.128
6.0,31.0,4.129
-63.0,18.0,4.13
-76.0,18.0,4.131
-52.0,24.0,4.132
-14.0,17.0,4.133
20.0,-4.0,4.134
17.0,-13.0,4.135
-34.0,-2.0,4.136
-88.0,12.0,4.137
-100.0,5.0,4.138
-61.0,-15.0,4.139
-15.0,-28.0,4.14
13.0,-32.0,4.141
32.0,-30.0,4.142
42.0,-21.0,4.143
19.0,0.0,4.144
-36.0,26.0,4.145
-68.0,36.0,4.146
-33.0,20.0,4.147
44.0,-6.0,4.148
108.0,-19.0,4.149
146.0,-15.0,4.15
176.0,-10.0,4.151
191.0,-10.0,4.152
152.0,-4.0,4.153
64.0,11.0,4.154
-22.0,28.0,4.155
-75.0,30.0,4.156
-105.0,16.0,4.157
-124.0,1.0,4.158
-112.0,-8.0,4.159
-70.0,-21.0,4.16
-42.0,-38.0,4.161
-48.0,-47.0,4.162
-63.0,-27.0,4.163
-54.0,-9.0,4.164
-43.0,1.0,4.165
-59.0,10.0,4.166
-88.0,13.0,4.167
-86.0,16.0,4.168
-40.0,16.0,4.169
28.0,10.0,4.17
86.0,-9.0,4.171
112.0,-17.0,4.172
98.0,10.0,4.173
55.0,35.0,4.174
16.0,53.0,4.175
12.0,59.0,4.176
41.0,29.0,4.177
68.0,0.0,4.178
59.0,-17.0,4.179
20.0,-22.0,4.18
-13.0,-24.0,4.181
-22.0,-20.0,4.182
-32.0,-10.0,4.183
-54.0,-1.0,4.184
-69.0,3.0,4.185
-64.0,0.0,4.186
-54.0,-8.0,4.187
-54.0,-22.0,4.188
-47.0,-34.0,4.189
-19.0,-37.0,4.19
16.0,-29.0,4.191
40.0,-22.0,4.192
61.0,-11.0,4.193
80.0,4.0,4.194
70.0,12.0,4.195
18.0,3.0,4.196
-31.0,-10.0,4.197
-47.0,-10.0,4.198
-37.0,8.0,4.199
-28.0,23.0,4.2
-20.0,23.0,4.201
0.0,18.0,4.202
23.0,13.0,4.203
39.0,4.0,4.204
55.0,-5.0,4.205
71.0,-7.0,4.206
70.0,-5.0,4.207
46.0,-10.0,4.208
21.0,-23.0,4.209
7.0,-34.0,4.21
-8.0,-38.0,4.211
-36.0,-38.0,4.212
-65.0,-27.0,4.213
-67.0,-1.0,4.214
-31.0,29.0,4.215
22.0,40.0,4.216
50.0,32.0,4.217
6.0,23.0,4.218
-92.0,32.0,4.219
-173.0,48.0,4.22
-162.0,39.0,4.221
-67.0,4.0,4.222
41.0,-26.0,4.223
116.0,-28.0,4.224
154.0,-12.0,4.225
155.0,-3.0,4.226
113.0,-1.0,4.227
48.0,9.0,4.228
15.0,26.0,4.229
44.0,25.0,4.23
95.0,1.0,4.231
102.0,-16.0,4.232
55.0,-7.0,4.233
-7.0,22.0,4.234
-57.0,42.0,4.235
-86.0,41.0,4.236
-80.0,29.0,4.237
-33.0,8.0,4.238
13.0,-11.0,4.239
5.0,-23.0,4.24
-34.0,-24.0,4.241
-40.0,-15.0,4.242
-8.0,-14.0,4.243
4.0,-25.0,4.244
-18.0,-33.0,4.245
-30.0,-31.0,4.246
-11.0,-26.0,4.247
4.0,-28.0,4.248
1.0,-31.0,4.249
2.0,-27.0,4.25
8.0,-21.0,4.251
-10.0,-22.0,4.252
-40.0,-25.0,4.253
-37.0,-19.0,4.254
2.0,-6.0,4.255
22.0,8.0,4.256
-8.0,16.0,4.257
-66.0,18.0,4.258
-112.0,20.0,4.259
-135.0,21.0,4.26
-129.0,20.0,4.261
-95.0,15.0,4.262
-31.0,0.0,4.263
62.0,-14.0,4.264
167.0,-12.0,4.265
232.0,15.0,4.266
210.0,52.0,4.267
130.0,71.0,4.268
81.0,68.0,4.269
105.0,52.0,4.27
131.0,32.0,4.271
87.0,16.0,4.272
4.0,3.0,4.273
-34.0,-7.0,4.274
-18.0,-15.0,4.275
-5.0,-18.0,4.276
-24.0,-13.0,4.277
-57.0,-12.0,4.278
-78.0,-21.0,4.279
-104.0,-32.0,4.28
-135.0,-37.0,4.281
-133.0,-35.0,4.282
-70.0,-34.0,4.283
21.0,-31.0,4.284
86.0,-21.0,4.285
106.0,-8.0,4.286
94.0,-2.0,4.287
62.0,0.0,4.288
19.0,2.0,4.289
-15.0,2.0,4.29
-34.0,-4.0,4.291
-41.0,-9.0,4.292
-41.0,-7.0,4.293
-38.0,0.0,4.294
-26.0,1.0,4.295
-5.0,-3.0,4.296
21.0,-2.0,4.297
32.0,8.0,4.298
16.0,25.0,4.299
-22.0,35.0,4.3
-53.0,30.0,4.301
-71.0,15.0,4.302
-78.0,-1.0,4.303
-55.0,-14.0,4.304
3.0,-24.0,4.305
68.0,-32.0,4.306
100.0,-42.0,4.307
116.0,-48.0,4.308
143.0,-43.0,4.309
147.0,-28.0,4.31
75.0,-6.0,4.311
-54.0,19.0,4.312
-136.0,49.0,4.313
-126.0,71.0,4.314
-89.0,71.0,4.315
-93.0,54.0,4.316
-112.0,37.0,4.317
-77.0,19.0,4.318
9.0,3.0,4.319
66.0,-2.0,4.32
44.0,3.0,4.321
-5.0,8.0,4.322
-3.0,-11.0,4.323
55.0,-49.0,4.324
101.0,-83.0,4.325
88.0,-97.0,4.326
37.0,-83.0,4.327
14.0,-38.0,4.328
34.0,24.0,4.329
42.0,79.0,4.33
-12.0,104.0,4.331
-96.0,107.0,4.332
-120.0,99.0,4.333
-53.0,81.0,4.334
41.0,48.0,4.335
85.0,13.0,4.336
75.0,-5.0,4.337
49.0,-9.0,4.338
40.0,-5.0,4.339
36.0,-5.0,4.34
16.0,-13.0,4.341
-14.0,-21.0,4.342
-29.0,-27.0,4.343
-21.0,-30.0,4.344
-17.0,-34.0,4.345
-24.0,-37.0,4.346
-31.0,-40.0,4.347
-24.0,-44.0,4.348
-17.0,-50.0,4.349
-24.0,-57.0,4.35
-39.0,-62.0,4.351
-38.0,-64.0,4.352
-19.0,-57.0,4.353
-5.0,-38.0,4.354
-8.0,-10.0,4.355
-13.0,14.0,4.356
5.0,26.0,4.357
48.0,20.0,4.358
88.0,7.0,4.359
94.0,-9.0,4.36
65.0,-17.0,4.361
0.0,-1.0,4.362
-82.0,31.0,4.363
-136.0,45.0,4.364
-104.0,28.0,4.365
-6.0,12.0,4.366
75.0,28.0,4.367
90.0,52.0,4.368
69.0,47.0,4.369
59.0,25.0,4.37
57.0,20.0,4.371
41.0,30.0,4.372
17.0,21.0,4.373
6.0,-4.0,4.374
-1.0,-11.0,4.375
-7.0,8.0,4.376
-8.0,19.0,4.377
-8.0,2.0,4.378
-17.0,-14.0,4.379
-31.0,-15.0,4.38
-31.0,-15.0,4.381
-19.0,-24.0,4.382
-13.0,-30.0,4.383
-18.0,-25.0,4.384
-23.0,-20.0,4.385
-24.0,-19.0,4.386
-22.0,-18.0,4.387
-6.0,-14.0,4.388
34.0,-16.0,4.389
78.0,-27.0,4.39
88.0,-37.0,4.391
40.0,-38.0,4.392
-39.0,-32.0,4.393
-93.0,-19.0,4.394
-88.0,9.0,4.395
-44.0,51.0,4.396
-2.0,84.0,4.397
33.0,78.0,4.398
71.0,38.0,4.399
87.0,2.0,4.4
34.0,1.0,4.401
-58.0,32.0,4.402
-85.0,50.0,4.403
0.0,42.0,4.404
101.0,23.0,4.405
105.0,12.0,4.406
32.0,5.0,4.407
-15.0,-5.0,4.408
-2.0,-13.0,4.409
13.0,-15.0,4.41
-8.0,-21.0,4.411
-28.0,-33.0,4.412
-27.0,-42.0,4.413
-26.0,-47.0,4.414
-41.0,-52.0,4.415
-41.0,-55.0,4.416
-11.0,-46.0,4.417
34.0,-13.0,4.418
65.0,34.0,4.419
77.0,68.0,4.42
75.0,57.0,4.421
55.0,12.0,4.422
29.0,-30.0,4.423
21.0,-45.0,4.424
22.0,-41.0,4.425
-15.0,-45.0,4.426
-111.0,-52.0,4.427
-212.0,-39.0,4.428
-235.0,1.0,4.429
-130.0,43.0,4.43
65.0,67.0,4.431
233.0,77.0,4.432
252.0,89.0,4.433
119.0,92.0,4.434
-31.0,68.0,4.435
-68.0,24.0,4.436
-19.0,-2.0,4.437
7.0,0.0,4.438
-22.0,8.0,4.439
-43.0,-5.0,4.44
-13.0,-27.0,4.441
18.0,-31.0,4.442
12.0,-26.0,4.443
-16.0,-32.0,4.444
-50.0,-47.0,4.445
-88.0,-52.0,4.446
-97.0,-50.0,4.447
-41.0,-54.0,4.448
37.0,-60.0,4.449
64.0,-44.0,4.45
52.0,-16.0,4.451
77.0,4.0,4.452
151.0,13.0,4.453
184.0,16.0,4.454
117.0,10.0,4.455
-8.0,4.0,4.456
-106.0,16.0,4.457
-142.0,40.0,4.458
-117.0,38.0,4.459
-68.0,-15.0,4.46
-49.0,-80.0,4.461
-79.0,-91.0,4.462
-100.0,-43.0,4.463
-43.0,16.0,4.464
70.0,67.0,4.465
139.0,115.0,4.466
107.0,141.0,4.467
31.0,111.0,4.468
5.0,39.0,4.469
51.0,-12.0,4.47
95.0,-16.0,4.471
67.0,-8.0,4.472
-4.0,-16.0,4.473
-43.0,-28.0,4.474
-24.0,-18.0,4.475
0.0,-5.0,4.476
-1.0,-5.0,4.477
-15.0,-20.0,4.478
-7.0,-25.0,4.479
2.0,-22.0,4.48
-5.0,-23.0,4.481
-26.0,-25.0,4.482
-39.0,-23.0,4.483
-44.0,-16.0,4.484
-45.0,-8.0,4.485
-35.0,3.0,4.486
-16.0,10.0,4.487
-13.0,2.0,4.488
-31.0,-13.0,4.489
-48.0,-26.0,4.49
-38.0,-38.0,4.491
-12.0,-46.0,4.492
17.0,-32.0,4.493
50.0,11.0,4.494
91.0,58.0,4.495
120.0,76.0,4.496
114.0,65.0,4.497
63.0,38.0,4.498
0.0,11.0,4.499
-44.0,-8.0,4.5
-46.0,-14.0,4.501
-18.0,-6.0,4.502
15.0,-4.0,4.503
33.0,-15.0,4.504
30.0,-24.0,4.505
11.0,-23.0,4.506
-15.0,-18.0,4.507
-32.0,-15.0,4.508
-21.0,-4.0,4.509
18.0,7.0,4.51
57.0,0.0,4.511
62.0,-21.0,4.512
25.0,-32.0,4.513
-33.0,-24.0,4.514
-75.0,-11.0,4.515
-81.0,0.0,4.516
-49.0,18.0,4.517
-1.0,41.0,4.518
31.0,50.0,4.519
26.0,36.0,4.52
8.0,15.0,4.521
5.0,8.0,4.522
11.0,6.0,4.523
-6.0,4.0,4.524
-50.0,0.0,4.525
-76.0,-2.0,4.526
-44.0,-13.0,4.527
38.0,-27.0,4.528
119.0,-30.0,4.529
142.0,-16.0,4.53
73.0,-4.0,4.531
-62.0,-1.0,4.532
-164.0,6.0,4.533
-141.0,21.0,4.534
-18.0,26.0,4.535
81.0,15.0,4.536
88.0,9.0,4.537
51.0,12.0,4.538
38.0,11.0,4.539
32.0,-4.0,4.54
3.0,-20.0,4.541
-23.0,-18.0,4.542
-13.0,-9.0,4.543
7.0,-9.0,4.544
-3.0,-15.0,4.545
-20.0,-14.0,4.546
-6.0,-11.0,4.547
25.0,-10.0,4.548
37.0,-10.0,4.549
33.0,-6.0,4.55
31.0,-4.0,4.551
19.0,-7.0,4.552
-10.0,-6.0,4.553
-33.0,6.0,4.554
-27.0,19.0,4.555
7.0,14.0,4.556
51.0,-7.0,4.557
90.0,-34.0,4.558
89.0,-48.0,4.559
9.0,-37.0,4.56
-116.0,-9.0,4.561
-198.0,22.0,4.562
-185.0,37.0,4.563
-106.0,30.0,4.564
-28.0,18.0,4.565
14.0,19.0,4.566
30.0,33.0,4.567
39.0,42.0,4.568
46.0,33.0,4.569
49.0,13.0,4.57
41.0,-2.0,4.571
33.0,-6.0,4.572
34.0,-7.0,4.573
37.0,-7.0,4.574
32.0,-6.0,4.575
19.0,-8.0,4.576
13.0,-6.0,4.577
14.0,-4.0,4.578
18.0,-4.0,4.579
12.0,-9.0,4.58
2.0,-19.0,4.581
-2.0,-20.0,4.582
4.0,-15.0,4.583
14.0,-15.0,4.584
18.0,-16.0,4.585
13.0,-12.0,4.586
8.0,-6.0,4.587
12.0,-10.0,4.588
15.0,-22.0,4.589
0.0,-24.0,4.59
-39.0,-14.0,4.591
-91.0,-5.0,4.592
-129.0,-1.0,4.593
-124.0,1.0,4.594
-60.0,5.0,4.595
44.0,6.0,4.596
137.0,6.0,4.597
191.0,0.0,4.598
193.0,-9.0,4.599
165.0,-21.0,4.6
108.0,-21.0,4.601
24.0,2.0,4.602
-59.0,39.0,4.603
-106.0,61.0,4.604
-104.0,67.0,4.605
-72.0,56.0,4.606
-38.0,31.0,4.607
-22.0,0.0,4.608
-29.0,-18.0,4.609
-39.0,-11.0,4.61
-20.0,4.0,4.611
24.0,4.0,4.612
60.0,-8.0,4.613
66.0,-16.0,4.614
40.0,-15.0,4.615
-3.0,-13.0,4.616
-44.0,-5.0,4.617
-62.0,9.0,4.618
-44.0,18.0,4.619
-14.0,8.0,4.62
-2.0,-10.0,4.621
-7.0,-12.0,4.622
-3.0,-4.0,4.623
14.0,-6.0,4.624
28.0,-18.0,4.625
33.0,-24.0,4.626
28.0,-21.0,4.627
6.0,-20.0,4.628
-43.0,-20.0,4.629
-93.0,-14.0,4.63
-104.0,-5.0,4.631
-64.0,0.0,4.632
-4.0,-3.0,4.633
43.0,-4.0,4.634
67.0,1.0,4.635
69.0,8.0,4.636
55.0,12.0,4.637
25.0,7.0,4.638
-5.0,2.0,4.639
-29.0,3.0,4.64
-35.0,6.0,4.641
-21.0,6.0,4.642
-1.0,1.0,4.643
14.0,0.0,4.644
13.0,7.0,4.645
4.0,9.0,4.646
-6.0,-3.0,4.647
-19.0,-19.0,4.648
-26.0,-19.0,4.649
-14.0,-12.0,4.65
11.0,-15.0,4.651
30.0,-24.0,4.652
38.0,-17.0,4.653
57.0,9.0,4.654
92.0,34.0,4.655
109.0,42.0,4.656
85.0,40.0,4.657
31.0,30.0,4.658
-3.0,15.0,4.659
-7.0,2.0,4.66
-1.0,-5.0,4.661
-4.0,-7.0,4.662
-4.0,-9.0,4.663
1.0,-13.0,4.664
-1.0,-12.0,4.665
-17.0,-12.0,4.666
-29.0,-16.0,4.667
-26.0,-21.0,4.668
-24.0,-17.0,4.669
-41.0,-12.0,4.67
-60.0,-17.0,4.671
-49.0,-28.0,4.672
-3.0,-31.0,4.673
53.0,-19.0,4.674
75.0,2.0,4.675
38.0,22.0,4.676
-30.0,33.0,4.677
-87.0,29.0,4.678
-90.0,18.0,4.679
-55.0,16.0,4.68
-20.0,24.0,4.681
18.0,33.0,4.682
71.0,25.0,4.683
102.0,7.0,4.684
69.0,3.0,4.685
16.0,16.0,4.686
24.0,22.0,4.687
67.0,5.0,4.688
52.0,-16.0,4.689
-19.0,-20.0,4.69
-47.0,-12.0,4.691
-3.0,-14.0,4.692
31.0,-22.0,4.693
4.0,-21.0,4.694
-26.0,-10.0,4.695
-12.0,-4.0,4.696
7.0,-5.0,4.697
-7.0,-7.0,4.698
-23.0,0.0,4.699
-17.0,4.0,4.7
-8.0,0.0,4.701
-10.0,-9.0,4.702
3.0,-13.0,4.703
34.0,-17.0,4.704
46.0,-20.0,4.705
24.0,-20.0,4.706
-8.0,-13.0,4.707
-24.0,-4.0,4.708
-35.0,7.0,4.709
-42.0,13.0,4.71
-40.0,14.0,4.711
-36.0,12.0,4.712
-41.0,10.0,4.713
-37.0,9.0,4.714
-6.0,7.0,4.715
28.0,1.0,4.716
35.0,-2.0,4.717
20.0,-2.0,4.718
19.0,3.0,4.719
32.0,10.0,4.72
32.0,3.0,4.721
13.0,-6.0,4.722
-1.0,-11.0,4.723
-5.0,-5.0,4.724
-11.0,6.0,4.725
-15.0,11.0,4.726
-7.0,10.0,4.727
-3.0,2.0,4.728
-17.0,-6.0,4.729
-36.0,-15.0,4.73
-35.0,-28.0,4.731
-15.0,-37.0,4.732
7.0,-34.0,4.733
35.0,-22.0,4.734
71.0,-6.0,4.735
81.0,9.0,4.736
39.0,23.0,4.737
-38.0,30.0,4.738
-85.0,30.0,4.739
-66.0,25.0,4.74
-4.0,14.0,4.741
61.0,4.0,4.742
103.0,1.0,4.743
117.0,7.0,4.744
102.0,23.0,4.745
65.0,35.0,4.746
25.0,29.0,4.747
-1.0,3.0,4.748
-4.0,-18.0,4.749
1.0,-12.0,4.75
5.0,5.0,4.751
5.0,11.0,4.752
3.0,-2.0,4.753
-16.0,-14.0,4.754
-60.0,-11.0,4.755
-95.0,-5.0,4.756
-85.0,-6.0,4.757
-39.0,-14.0,4.758
3.0,-18.0,4.759
23.0,-17.0,4.76
38.0,-18.0,4.761
49.0,-16.0,4.762
31.0,-14.0,4.763
-18.0,-8.0,4.764
-61.0,3.0,4.765
-60.0,16.0,4.766
-10.0,14.0,4.767
53.0,-3.0,4.768
76.0,-21.0,4.769
29.0,-23.0,4.77
-56.0,-12.0,4.771
-112.0,-7.0,4.772
-96.0,-1.0,4.773
-36.0,12.0,4.774
10.0,26.0,4.775
13.0,26.0,4.776
-9.0,20.0,4.777
-18.0,6.0,4.778
0.0,3.0,4.779
14.0,0.0,4.78
15.0,-4.0,4.781
13.0,-5.0,4.782
0.0,-4.0,4.783
-7.0,-3.0,4.784
6.0,-3.0,4.785
19.0,-3.0,4.786
27.0,-8.0,4.787
32.0,-11.0,4.788
24.0,-9.0,4.789
18.0,-5.0,4.79
22.0,0.0,4.791
27.0,3.0,4.792
31.0,7.0,4.793
33.0,11.0,4.794
30.0,13.0,4.795
23.0,17.0,4.796
7.0,24.0,4.797
-8.0,8.0,4.798
-10.0,4.0,4.799
-1.0,-1.0,4.8
5.0,-5.0,4.801
1.0,-7.0,4.802
-8.0,-5.0,4.803
-18.0,-4.0,4.804
-29.0,-4.0,4.805
-40.0,-4.0,4.806
-37.0,-10.0,4.807
-23.0,-14.0,4.808
-14.0,-11.0,4.809
-13.0,-7.0,4.81
-11.0,-1.0,4.811
11.0,4.0,4.812
54.0,9.0,4.813
87.0,13.0,4.814
79.0,16.0,4.815
44.0,21.0,4.816
22.0,29.0,4.817
30.0,36.0,4.818
45.0,32.0,4.819
44.0,16.0,4.82
31.0,-3.0,4.821
13.0,-9.0,4.822
-11.0,-10.0,4.823
-42.0,-10.0,4.824
-69.0,-10.0,4.825
-75.0,-15.0,4.826
-54.0,-21.0,4.827
-15.0,-21.0,4.828
15.0,-13.0,4.829
19.0,-5.0,4.83
6.0,-3.0,4.831
8.0,-2.0,4.832
30.0,5.0,4.833
43.0,11.0,4.834
30.0,8.0,4.835
6.0,0.0,4.836
-8.0,-2.0,4.837
-15.0,-2.0,4.838
-22.0,-2.0,4.839
-35.0,-4.0,4.84
-45.0,-7.0,4.841
-57.0,-4.0,4.842
-73.0,-2.0,4.843
-88.0,-7.0,4.844
-77.0,-12.0,4.845
-12.0,-11.0,4.846
91.0,0.0,4.847
164.0,13.0,4.848
149.0,15.0,4.849
68.0,8.0,4.85
7.0,1.0,4.851
11.0,-2.0,4.852
30.0,-4.0,4.853
2.0,-5.0,4.854
-47.0,0.0,4.855
-54.0,9.0,4.856
-16.0,16.0,4.857
11.0,15.0,4.858
-3.0,11.0,4.859
-29.0,6.0,4.86
-31.0,-1.0,4.861
-19.0,-4.0,4.862
-5.0,-7.0,4.863
15.0,-12.0,4.864
42.0,-17.0,4.865
62.0,-9.0,4.866
61.0,1.0,4.867
34.0,0.0,4.868
-8.0,-11.0,4.869
-36.0,-21.0,4.87
-25.0,-14.0,4.871
21.0,-4.0,4.872
52.0,-1.0,4.873
30.0,0.0,4.874
-21.0,8.0,4.875
-48.0,18.0,4.876
-18.0,18.0,4.877
47.0,4.0,4.878
89.0,-11.0,4.879
59.0,-19.0,4.88
-25.0,-23.0,4.881
-102.0,-13.0,4.882
-126.0,2.0,4.883
-108.0,10.0,4.884
-78.0,4.0,4.885
-45.0,-3.0,4.886
-12.0,0.0,4.887
4.0,2.0,4.888
-10.0,-1.0,4.889
-33.0,-4.0,4.89
-32.0,-1.0,4.891
-1.0,2.0,4.892
37.0,0.0,4.893
64.0,-4.0,4.894
79.0,-2.0,4.895
77.0,-3.0,4.896
62.0,-9.0,4.897
38.0,-17.0,4.898
24.0,-17.0,4.899
22.0,-11.0,4.9
20.0,-6.0,4.901
14.0,2.0,4.902
11.0,10.0,4.903
9.0,10.0,4.904
-1.0,0.0,4.905
-19.0,-6.0,4.906
-34.0,-2.0,4.907
-46.0,7.0,4.908
-50.0,8.0,4.909
-30.0,6.0,4.91
22.0,2.0,4.911
75.0,-1.0,4.912
77.0,-3.0,4.913
26.0,-3.0,4.914
-20.0,-1.0,4.915
-17.0,0.0,4.916
12.0,2.0,4.917
33.0,4.0,4.918
32.0,2.0,4.919
23.0,-9.0,4.92
10.0,-22.0,4.921
-5.0,-19.0,4.922
-5.0,-7.0,4.923
11.0,4.0,4.924
21.0,10.0,4.925
3.0,17.0,4.926
-18.0,22.0,4.927
-9.0,15.0,4.928
10.0,9.0,4.929
7.0,8.0,4.93
-14.0,5.0,4.931
-24.0,-1.0,4.932
-20.0,0.0,4.933
-16.0,11.0,4.934
-5.0,14.0,4.935
26.0,-2.0,4.936
54.0,-16.0,4.937
45.0,-16.0,4.938
-19.0,-8.0,4.939
-119.0,-9.0,4.94
-199.0,-15.0,4.941
-206.0,-9.0,4.942
-115.0,-2.0,4.943
25.0,-6.0,4.944
113.0,-10.0,4.945
104.0,1.0,4.946
53.0,16.0,4.947
38.0,11.0,4.948
51.0,-9.0,4.949
46.0,-25.0,4.95
27.0,-26.0,4.951
40.0,-16.0,4.952
69.0,-2.0,4.953
61.0,14.0,4.954
22.0,33.0,4.955
16.0,53.0,4.956
48.0,67.0,4.957
52.0,58.0,4.958
6.0,24.0,4.959
-27.0,-12.0,4.96
0.0,-23.0,4.961
31.0,-9.0,4.962
5.0,-3.0,4.963
-43.0,-13.0,4.964
-48.0,-22.0,4.965
-20.0,-20.0,4.966
-13.0,-20.0,4.967
-32.0,-28.0,4.968
-30.0,-34.0,4.969
-3.0,-29.0,4.97
16.0,-17.0,4.971
19.0,-5.0,4.972
21.0,6.0,4.973
21.0,12.0,4.974
10.0,5.0,4.975
1.0,-3.0,4.976
9.0,-1.0,4.977
1.0,4.0,4.978
-46.0,2.0,4.979
-101.0,-8.0,4.98
-96.0,-18.0,4.981
-21.0,-18.0,4.982
61.0,-14.0,4.983
87.0,-8.0,4.984
58.0,6.0,4.985
14.0,16.0,4.986
-13.0,12.0,4.987
-33.0,-4.0,4.988
-59.0,-13.0,4.989
-78.0,-8.0,4.99
-63.0,-1.0,4.991
-5.0,0.0,4.992
66.0,4.0,4.993
127.0,15.0,4.994
166.0,26.0,4.995
167.0,24.0,4.996
127.0,15.0,4.997
57.0,9.0,4.998
0.0,12.0,4.999
-27.0,14.0,5.0
-52.0,6.0,5.001
-88.0,-3.0,5.002
-107.0,-6.0,5.003
-80.0,-2.0,5.004
-27.0,-3.0,5.005
6.0,-12.0,5.006
2.0,-18.0,5.007
-16.0,-12.0,5.008
-20.0,0.0,5.009
-4.0,3.0,5.01
18.0,-6.0,5.011
34.0,-17.0,5.012
47.0,-23.0,5.013
52.0,-20.0,5.014
27.0,-12.0,5.015
-33.0,2.0,5.016
-87.0,22.0,5.017
-106.0,35.0,5.018
-103.0,31.0,5.019
-111.0,13.0,5.02
-103.0,-3.0,5.021
-33.0,-6.0,5.022
74.0,-8.0,5.023
131.0,-15.0,5.024
110.0,-21.0,5.025
61.0,-16.0,5.026
34.0,-7.0,5.027
22.0,0.0,5.028
10.0,3.0,5.029
2.0,9.0,5.03
3.0,11.0,5.031
7.0,2.0,5.032
19.0,-6.0,5.033
44.0,-3.0,5.034
59.0,2.0,5.035
39.0,-3.0,5.036
4.0,-15.0,5.037
-16.0,-26.0,5.038
-8.0,-23.0,5.039
-4.0,-8.0,5.04
-15.0,2.0,5.041
-22.0,11.0,5.042
-15.0,14.0,5.043
-13.0,11.0,5.044
-32.0,3.0,5.045
-48.0,-5.0,5.046
-29.0,-8.0,5.047
10.0,-3.0,5.048
24.0,9.0,5.049
10.0,15.0,5.05
12.0,8.0,5.051
40.0,-7.0,5.052
57.0,-16.0,5.053
23.0,-9.0,5.054
-43.0,6.0,5.055
-77.0,16.0,5.056
-44.0,17.0,5.057
34.0,14.0,5.058
88.0,6.0,5.059
73.0,-3.0,5.06
29.0,-9.0,5.061
32.0,-4.0,5.062
82.0,4.0,5.063
100.0,0.0,5.064
39.0,-14.0,5.065
-52.0,-26.0,5.066
-103.0,-25.0,5.067
-101.0,-13.0,5.068
-83.0,0.0,5.069
-65.0,10.0,5.07
-39.0,16.0,5.071
-7.0,18.0,5.072
12.0,12.0,5.073
12.0,1.0,5.074
12.0,-8.0,5.075
26.0,-5.0,5.076
50.0,1.0,5.077
60.0,1.0,5.078
41.0,-5.0,5.079
0.0,-6.0,5.08
-37.0,-2.0,5.081
-57.0,3.0,5.082
-59.0,4.0,5.083
-47.0,5.0,5.084
-11.0,6.0,5.085
44.0,0.0,5.086
81.0,-12.0,5.087
70.0,-17.0,5.088
19.0,-13.0,5.089
-37.0,-6.0,5.09
-66.0,0.0,5.091
-53.0,1.0,5.092
2.0,-4.0,5.093
53.0,-9.0,5.094
48.0,0.0,5.095
-1.0,27.0,5.096
-14.0,46.0,5.097
38.0,35.0,5.098
82.0,8.0,5.099
41.0,-6.0,5.1
-37.0,-7.0,5.101
-55.0,-6.0,5.102
-9.0,-13.0,5.103
20.0,-20.0,5.104
1.0,-21.0,5.105
-20.0,-20.0,5.106
-19.0,-18.0,5.107
-19.0,-8.0,5.108
-15.0,9.0,5.109
30.0,14.0,5.11
95.0,0.0,5.111
96.0,-13.0,5.112
-2.0,-9.0,5.113
-115.0,14.0,5.114
-143.0,36.0,5.115
-79.0,46.0,5.116
-1.0,41.0,5.117
48.0,19.0,5.118
76.0,-7.0,5.119
91.0,-18.0,5.12
69.0,-18.0,5.121
2.0,-16.0,5.122
-60.0,-23.0,5.123
-55.0,-30.0,5.124
-7.0,-28.0,5.125
13.0,-18.0,5.126
-4.0,-9.0,5.127
-7.0,1.0,5.128
22.0,15.0,5.129
37.0,20.0,5.13
18.0,13.0,5.131
6.0,4.0,5.132
29.0,2.0,5.133
57.0,0.0,5.134
61.0,-8.0,5.135
63.0,-16.0,5.136
74.0,-16.0,5.137
57.0,-12.0,5.138
-15.0,-12.0,5.139
-100.0,-17.0,5.14
-139.0,-21.0,5.141
-139.0,-11.0,5.142
-144.0,11.0,5.143
-140.0,31.0,5.144
-73.0,37.0,5.145
40.0,28.0,5.146
111.0,18.0,5.147
96.0,20.0,5.148
66.0,27.0,5.149
90.0,26.0,5.15
137.0,14.0,5.151
133.0,0.0,5.152
70.0,-11.0,5.153
7.0,-15.0,5.154
-27.0,-14.0,5.155
-43.0,-10.0,5.156
-54.0,-6.0,5.157
-57.0,-5.0,5.158
-50.0,-2.0,5.159
-42.0,2.0,5.16
-34.0,1.0,5.161
-23.0,-5.0,5.162
-9.0,-15.0,5.163
10.0,-27.0,5.164
36.0,-37.0,5.165
56.0,-41.0,5.166
49.0,-32.0,5.167
11.0,-14.0,5.168
-26.0,6.0,5.169
-28.0,20.0,5.17
0.0,21.0,5.171
26.0,12.0,5.172
25.0,4.0,5.173
11.0,2.0,5.174
14.0,3.0,5.175
35.0,0.0,5.176
45.0,-5.0,5.177
24.0,-8.0,5.178
1.0,-7.0,5.179
-2.0,-9.0,5.18
-9.0,-18.0,5.181
-54.0,-22.0,5.182
-108.0,-10.0,5.183
-121.0,13.0,5.184
-95.0,37.0,5.185
-62.0,39.0,5.186
-21.0,16.0,5.187
40.0,-16.0,5.188
75.0,-28.0,5.189
47.0,-9.0,5.19
4.0,13.0,5.191
19.0,22.0,5.192
72.0,23.0,5.193
81.0,21.0,5.194
41.0,4.0,5.195
14.0,-23.0,5.196
11.0,-37.0,5.197
-10.0,-21.0,5.198
-41.0,9.0,5.199
-31.0,31.0,5.2
17.0,32.0,5.201
33.0,26.0,5.202
8.0,9.0,5.203
3.0,-12.0,5.204
41.0,-19.0,5.205
78.0,-11.0,5.206
85.0,-9.0,5.207
85.0,-24.0,5.208
65.0,-37.0,5.209
-7.0,-30.0,5.21
-104.0,-20.0,5.211
-139.0,-17.0,5.212
-81.0,-12.0,5.213
8.0,4.0,5.214
55.0,17.0,5.215
35.0,23.0,5.216
-16.0,33.0,5.217
-66.0,49.0,5.218
-79.0,51.0,5.219
-61.0,31.0,5.22
-42.0,11.0,5.221
-31.0,11.0,5.222
-11.0,11.0,5.223
11.0,-5.0,5.224
9.0,-22.0,5.225
-10.0,-22.0,5.226
-12.0,-13.0,5.227
-1.0,-15.0,5.228
-7.0,-19.0,5.229
-23.0,-14.0,5.23
-3.0,-5.0,5.231
52.0,-7.0,5.232
79.0,-17.0,5.233
47.0,-19.0,5.234
1.0,-3.0,5.235
1.0,19.0,5.236
51.0,36.0,5.237
95.0,32.0,5.238
102.0,14.0,5.239
94.0,-1.0,5.24
39.0,-9.0,5.241
-13.0,-18.0,5.242
-56.0,-26.0,5.243
-84.0,-29.0,5.244
-66.0,-11.0,5.245
-49.0,2.0,5.246
-37.0,5.0,5.247
-13.0,8.0,5.248
44.0,8.0,5.249
87.0,6.0,5.25
83.0,-7.0,5.251
66.0,-18.0,5.252
12.0,-22.0,5.253
-27.0,-24.0,5.254
-20.0,-14.0,5.255
-19.0,-6.0,5.256
-36.0,-2.0,5.257
-47.0,5.0,5.258
-27.0,20.0,5.259
2.0,24.0,5.26
13.0,11.0,5.261
-18.0,2.0,5.262
-71.0,5.0,5.263
-88.0,9.0,5.264
-48.0,-1.0,5.265
-9.0,-16.0,5.266
-29.0,-15.0,5.267
-71.0,0.0,5.268
-53.0,10.0,5.269
28.0,0.0,5.27
101.0,-11.0,5.271
120.0,-11.0,5.272
111.0,-6.0,5.273
93.0,-9.0,5.274
53.0,-17.0,5.275
-15.0,-14.0,5.276
-66.0,4.0,5.277
-73.0,26.0,5.278
-28.0,38.0,5.279
26.0,38.0,5.28
51.0,22.0,5.281
39.0,1.0,5.282
14.0,-18.0,5.283
-4.0,-26.0,5.284
-21.0,-20.0,5.285
-36.0,-9.0,5.286
-32.0,-3.0,5.287
-5.0,-2.0,5.288
19.0,2.0,5.289
31.0,12.0,5.29
85.0,9.0,5.291
206.0,-11.0,5.292
296.0,-34.0,5.293
211.0,-37.0,5.294
-44.0,-19.0,5.295
-288.0,7.0,5.296
-358.0,31.0,5.297
-298.0,42.0,5.298
-182.0,38.0,5.299
-90.0,25.0,5.3
-13.0,15.0,5.301
41.0,19.0,5.302
51.0,26.0,5.303
32.0,17.0,5.304
35.0,0.0,5.305
54.0,-14.0,5.306
52.0,-22.0,5.307
30.0,-29.0,5.308
21.0,-30.0,5.309
18.0,-22.0,5.31
0.0,-8.0,5.311
-6.0,4.0,5.312
32.0,13.0,5.313
83.0,17.0,5.314
73.0,7.0,5.315
-6.0,-13.0,5.316
-80.0,-31.0,5.317
-96.0,-36.0,5.318
-63.0,-24.0,5.319
-38.0,-10.0,5.32
-34.0,-7.0,5.321
-25.0,-8.0,5.322
0.0,-7.0,5.323
30.0,2.0,5.324
61.0,17.0,5.325
94.0,29.0,5.326
112.0,24.0,5.327
93.0,4.0,5.328
59.0,-14.0,5.329
55.0,-22.0,5.33
76.0,-23.0,5.331
79.0,-26.0,5.332
47.0,-24.0,5.333
21.0,-8.0,5.334
38.0,9.0,5.335
88.0,9.0,5.336
111.0,-4.0,5.337
39.0,-9.0,5.338
-116.0,9.0,5.339
-246.0,43.0,5.34
-237.0,64.0,5.341
-123.0,62.0,5.342
-31.0,41.0,5.343
-10.0,16.0,5.344
5.0,5.0,5.345
45.0,1.0,5.346
55.0,-8.0,5.347
14.0,-21.0,5.348
-15.0,-27.0,5.349
1.0,-22.0,5.35
26.0,-22.0,5.351
26.0,-30.0,5.352
23.0,-36.0,5.353
12.0,-37.0,5.354
-50.0,-35.0,5.355
-146.0,-28.0,5.356
-181.0,-12.0,5.357
-118.0,3.0,5.358
-32.0,6.0,5.359
31.0,2.0,5.36
27.0,12.0,5.361
36.0,36.0,5.362
88.0,43.0,5.363
124.0,23.0,5.364
113.0,4.0,5.365
102.0,3.0,5.366
94.0,0.0,5.367
76.0,-16.0,5.368
34.0,-29.0,5.369
-5.0,-17.0,5.37
-35.0,7.0,5.371
-45.0,13.0,5.372
8.0,0.0,5.373
33.0,-13.0,5.374
-32.0,-13.0,5.375
-94.0,-1.0,5.376
-142.0,21.0,5.377
-166.0,37.0,5.378
-109.0,36.0,5.379
-60.0,16.0,5.38
-33.0,-1.0,5.381
-1.0,0.0,5.382
49.0,0.0,5.383
91.0,-10.0,5.384
92.0,-13.0,5.385
52.0,-2.0,5.386
12.0,-1.0,5.387
30.0,-20.0,5.388
99.0,-37.0,5.389
130.0,-27.0,5.39
41.0,-11.0,5.391
-110.0,-11.0,5.392
-154.0,-19.0,5.393
-22.0,-15.0,5.394
149.0,-4.0,5.395
188.0,12.0,5.396
111.0,32.0,5.397
46.0,42.0,5.398
71.0,25.0,5.399
103.0,7.0,5.4
59.0,-12.0,5.401
-20.0,-22.0,5.402
-42.0,-1.0,5.403
-17.0,13.0,5.404
-40.0,6.0,5.405
-135.0,-2.0,5.406
-209.0,-12.0,5.407
-191.0,-19.0,5.408
-122.0,-16.0,5.409
-62.0,-8.0,5.41
-6.0,12.0,5.411
73.0,27.0,5.412
141.0,22.0,5.413
148.0,12.0,5.414
105.0,-13.0,5.415
56.0,-27.0,5.416
10.0,-7.0,5.417
-50.0,15.0,5.418
-95.0,29.0,5.419
-84.0,34.0,5.42
-26.0,30.0,5.421
21.0,17.0,5.422
8.0,-2.0,5.423
-51.0,-11.0,5.424
-96.0,0.0,5.425
-82.0,15.0,5.426
-11.0,12.0,5.427
77.0,-7.0,5.428
137.0,-24.0,5.429
157.0,-32.0,5.43
147.0,-40.0,5.431
115.0,-43.0,5.432
50.0,-30.0,5.433
-56.0,1.0,5.434
-171.0,28.0,5.435
-221.0,24.0,5.436
-174.0,6.0,5.437
-58.0,-4.0,5.438
42.0,3.0,5.439
78.0,9.0,5.44
80.0,3.0,5.441
96.0,4.0,5.442
116.0,6.0,5.443
98.0,-3.0,5.444
27.0,-23.0,5.445
-53.0,-27.0,5.446
-88.0,-15.0,5.447
-63.0,-11.0,5.448
-12.0,-22.0,5.449
23.0,-23.0,5.45
31.0,-7.0,5.451
26.0,4.0,5.452
21.0,-1.0,5.453
6.0,-16.0,5.454
-10.0,-24.0,5.455
-12.0,-26.0,5.456
-4.0,-18.0,5.457
-20.0,4.0,5.458
-62.0,28.0,5.459
-71.0,30.0,5.46
1.0,4.0,5.461
90.0,-15.0,5.462
101.0,-12.0,5.463
42.0,0.0,5.464
-3.0,8.0,5.465
-5.0,10.0,5.466
-17.0,12.0,5.467
-56.0,13.0,5.468
-73.0,14.0,5.469
-50.0,22.0,5.47
-21.0,36.0,5.471
-7.0,36.0,5.472
-3.0,17.0,5.473
-27.0,-6.0,5.474
-78.0,-13.0,5.475
-105.0,-8.0,5.476
-57.0,0.0,5.477
26.0,-5.0,5.478
74.0,0.0,5.479
101.0,7.0,5.48
65.0,26.0,5.481
41.0,35.0,5.482
57.0,19.0,5.483
61.0,3.0,5.484
31.0,-8.0,5.485
-4.0,-17.0,5.486
-54.0,-17.0,5.487
-75.0,-17.0,5.488
-3.0,-17.0,5.489
39.0,-15.0,5.49
-10.0,-9.0,5.491
-38.0,-3.0,5.492
3.0,-1.0,5.493
49.0,0.0,5.494
107.0,4.0,5.495
144.0,6.0,5.496
114.0,4.0,5.497
62.0,-7.0,5.498
-53.0,-1.0,5.499
-98.0,10.0,5.5
-36.0,35.0,5.501
43.0,48.0,5.502
63.0,26.0,5.503
29.0,5.0,5.504
-42.0,-11.0,5.505
-145.0,-24.0,5.506
-208.0,-24.0,5.507
-145.0,-23.0,5.508
13.0,-23.0,5.509
123.0,-21.0,5.51
114.0,-13.0,5.511
50.0,-5.0,5.512
11.0,-2.0,5.513
28.0,1.0,5.514
108.0,6.0,5.515
203.0,9.0,5.516
199.0,6.0,5.517
0.0,0.0,5.518
-166.0,-9.0,5.519
-120.0,-17.0,5.52
42.0,-33.0,5.521
59.0,-42.0,5.522
-113.0,-33.0,5.523
-245.0,-5.0,5.524
-185.0,28.0,5.525
-60.0,55.0,5.526
-40.0,69.0,5.527
-101.0,61.0,5.528
-117.0,30.0,5.529
-66.0,-8.0,5.53
-13.0,-31.0,5.531
14.0,-30.0,5.532
36.0,-13.0,5.533
58.0,5.0,5.534
87.0,18.0,5.535
146.0,13.0,5.536
211.0,-6.0,5.537
38.0,31.0,5.538
40.0,29.0,5.539
22.0,28.0,5.54
-56.0,26.0,5.541
-104.0,22.0,5.542
-51.0,14.0,5.543
4.0,4.0,5.544
62.0,-16.0,5.545
89.0,-30.0,5.546
11.0,-25.0,5.547
-33.0,-18.0,5.548
23.0,-14.0,5.549
53.0,-7.0,5.55
5.0,6.0,5.551
-61.0,19.0,5.552
-177.0,35.0,5.553
-255.0,45.0,5.554
-213.0,36.0,5.555
-172.0,25.0,5.556
-131.0,11.0,5.557
20.0,37.0,5.558
21.0,35.0,5.559
7.0,33.0,5.56
-54.0,31.0,5.561
-91.0,26.0,5.562
-50.0,15.0,5.563
-7.0,1.0,5.564
38.0,-24.0,5.565
59.0,-42.0,5.566
-1.0,-35.0,5.567
-35.0,-27.0,5.568
8.0,-21.0,5.569
31.0,-13.0,5.57
-6.0,4.0,5.571
-58.0,22.0,5.572
-148.0,42.0,5.573
-208.0,55.0,5.574
-176.0,43.0,5.575
-144.0,30.0,5.576
-112.0,12.0,5.577
-85.0,-2.0,5.578
-26.0,-4.0,5.579
134.0,-6.0,5.58
288.0,-18.0,5.581
310.0,-27.0,5.582
228.0,-29.0,5.583
135.0,-23.0,5.584
28.0,-14.0,5.585
-119.0,-5.0,5.586
-215.0,8.0,5.587
-146.0,15.0,5.588
33.0,9.0,5.589
145.0,-11.0,5.59
122.0,-30.0,5.591
47.0,-37.0,5.592
-9.0,-30.0,5.593
-36.0,-16.0,5.594
-21.0,-4.0,5.595
41.0,3.0,5.596
81.0,-2.0,5.597
37.0,-20.0,5.598
-27.0,-38.0,5.599
13.0,-44.0,5.6
146.0,-46.0,5.601
194.0,-42.0,5.602
53.0,-14.0,5.603
-168.0,53.0,5.604
-281.0,125.0,5.605
-224.0,137.0,5.606
-84.0,74.0,5.607
17.0,-2.0,5.608
41.0,-20.0,5.609
33.0,6.0,5.61
39.0,17.0,5.611
41.0,-7.0,5.612
12.0,-28.0,5.613
-7.0,-27.0,5.614
38.0,-34.0,5.615
130.0,-64.0,5.616
184.0,-91.0,5.617
137.0,-89.0,5.618
-9.0,-55.0,5.619
-202.0,7.0,5.62
-325.0,89.0,5.621
-280.0,153.0,5.622
-91.0,146.0,5.623
99.0,70.0,5.624
179.0,-9.0,5.625
160.0,-31.0,5.626
96.0,-17.0,5.627
1.0,-14.0,5.628
-98.0,-22.0,5.629
-132.0,-20.0,5.63
-70.0,-7.0,5.631
15.0,-4.0,5.632
49.0,-9.0,5.633
52.0,-5.0,5.634
82.0,3.0,5.635
134.0,-2.0,5.636
137.0,-18.0,5.637
50.0,-8.0,5.638
-45.0,-10.0,5.639
-30.0,-8.0,5.64
114.0,8.0,5.641
252.0,28.0,5.642
243.0,53.0,5.643
89.0,60.0,5.644
-90.0,9.0,5.645
-216.0,-26.0,5.646
-297.0,-21.0,5.647
-346.0,-12.0,5.648
-344.0,0.0,5.649
-257.0,6.0,5.65
-70.0,-12.0,5.651
170.0,-26.0,5.652
342.0,-27.0,5.653
334.0,-26.0,5.654
186.0,-18.0,5.655
43.0,-14.0,5.656
-15.0,-17.0,5.657
-40.0,-10.0,5.658
-72.0,-13.0,5.659
-97.0,-10.0,5.66
-97.0,12.0,5.661
-69.0,38.0,5.662
36.0,71.0,5.663
129.0,80.0,5.664
183.0,14.0,5.665
167.0,-34.0,5.666
-62.0,-27.0,5.667
-207.0,-16.0,5.668
-101.0,1.0,5.669
2.0,10.0,5.67
102.0,-15.0,5.671
150.0,-34.0,5.672
42.0,-35.0,5.673
-36.0,-34.0,5.674
-21.0,-24.0,5.675
-19.0,-18.0,5.676
-55.0,-22.0,5.677
-98.0,-22.0,5.678
-126.0,-5.0,5.679
-55.0,16.0,5.68
64.0,11.0,5.681
123.0,-17.0,5.682
74.0,-39.0,5.683
-22.0,-25.0,5.684
-80.0,23.0,5.685
-66.0,78.0,5.686
-22.0,99.0,5.687
-11.0,84.0,5.688
-50.0,58.0,5.689
-91.0,39.0,5.69
-74.0,15.0,5.691
-2.0,-24.0,5.692
64.0,-53.0,5.693
82.0,-48.0,5.694
65.0,-21.0,5.695
56.0,-9.0,5.696
65.0,-18.0,5.697
57.0,-28.0,5.698
10.0,-18.0,5.699
-45.0,-2.0,5.7
-38.0,-2.0,5.701
46.0,-21.0,5.702
114.0,-50.0,5.703
64.0,-61.0,5.704
-75.0,-33.0,5.705
-184.0,21.0,5.706
-197.0,62.0,5.707
-138.0,58.0,5.708
-26.0,20.0,5.709
114.0,-15.0,5.71
194.0,-24.0,5.711
133.0,-16.0,5.712
11.0,-10.0,5.713
-3.0,-8.0,5.714
93.0,-10.0,5.715
135.0,-16.0,5.716
61.0,-24.0,5.717
-17.0,-25.0,5.718
11.0,-3.0,5.719
65.0,33.0,5.72
29.0,54.0,5.721
-35.0,41.0,5.722
4.0,9.0,5.723
118.0,-16.0,5.724
173.0,-25.0,5.725
133.0,-30.0,5.726
72.0,-35.0,5.727
11.0,-29.0,5.728
-80.0,-6.0,5.729
-173.0,11.0,5.73
-205.0,10.0,5.731
-201.0,8.0,5.732
-227.0,24.0,5.733
-262.0,54.0,5.734
-214.0,77.0,5.735
-76.0,76.0,5.736
42.0,54.0,5.737
78.0,15.0,5.738
68.0,-16.0,5.739
78.0,-34.0,5.74
114.0,-52.0,5.741
119.0,-67.0,5.742
49.0,-64.0,5.743
-79.0,-33.0,5.744
-174.0,9.0,5.745
-118.0,32.0,5.746
96.0,25.0,5.747
318.0,8.0,5.748
363.0,-4.0,5.749
198.0,-13.0,5.75
-57.0,-8.0,5.751
-259.0,20.0,5.752
-315.0,57.0,5.753
-204.0,58.0,5.754
5.0,15.0,5.755
184.0,-22.0,5.756
250.0,-21.0,5.757
218.0,2.0,5.758
141.0,7.0,5.759
82.0,-14.0,5.76
97.0,-46.0,5.761
174.0,-71.0,5.762
184.0,-80.0,5.763
20.0,-56.0,5.764
-224.0,7.0,5.765
-322.0,68.0,5.766
-208.0,80.0,5.767
-48.0,45.0,5.768
-1.0,3.0,5.769
-22.0,-18.0,5.77
22.0,-31.0,5.771
139.0,-50.0,5.772
186.0,-71.0,5.773
43.0,-74.0,5.774
-246.0,-42.0,5.775
-478.0,18.0,5.776
-478.0,72.0,5.777
-225.0,87.0,5.778
105.0,53.0,5.779
290.0,8.0,5.78
247.0,-16.0,5.781
81.0,-11.0,5.782
-52.0,3.0,5.783
-79.0,16.0,5.784
-38.0,19.0,5.785
17.0,4.0,5.786
81.0,-20.0,5.787
160.0,-25.0,5.788
207.0,5.0,5.789
160.0,37.0,5.79
23.0,39.0,5.791
-108.0,14.0,5.792
-122.0,-5.0,5.793
-16.0,-8.0,5.794
103.0,-4.0,5.795
144.0,-2.0,5.796
140.0,-6.0,5.797
137.0,-26.0,5.798
106.0,-46.0,5.799
-10.0,-47.0,5.8
-151.0,-32.0,5.801
-180.0,-16.0,5.802
-81.0,-17.0,5.803
-4.0,-17.0,5.804
-58.0,-8.0,5.805
-172.0,11.0,5.806
-173.0,32.0,5.807
-16.0,36.0,5.808
140.0,12.0,5.809
127.0,-14.0,5.81
5.0,-4.0,5.811
-12.0,37.0,5.812
105.0,52.0,5.813
151.0,20.0,5.814
24.0,-17.0,5.815
-101.0,-18.0,5.816
-74.0,1.0,5.817
18.0,14.0,5.818
39.0,24.0,5.819
36.0,41.0,5.82
92.0,45.0,5.821
113.0,31.0,5.822
20.0,11.0,5.823
-54.0,3.0,5.824
-23.0,-6.0,5.825
-56.0,-22.0,5.826
-277.0,-35.0,5.827
-457.0,-42.0,5.828
-323.0,-58.0,5.829
6.0,-74.0,5.83
194.0,-57.0,5.831
152.0,-15.0,5.832
64.0,9.0,5.833
49.0,7.0,5.834
85.0,6.0,5.835
143.0,20.0,5.836
202.0,24.0,5.837
203.0,8.0,5.838
115.0,-1.0,5.839
31.0,4.0,5.84
53.0,-6.0,5.841
128.0,-35.0,5.842
125.0,-60.0,5.843
38.0,-55.0,5.844
-19.0,-33.0,5.845
6.0,-15.0,5.846
48.0,-11.0,5.847
25.0,-17.0,5.848
-63.0,-22.0,5.849
-175.0,-3.0,5.85
-267.0,49.0,5.851
-309.0,109.0,5.852
-278.0,128.0,5.853
-180.0,90.0,5.854
-63.0,32.0,5.855
21.0,7.0,5.856
72.0,17.0,5.857
114.0,24.0,5.858
148.0,-2.0,5.859
159.0,-42.0,5.86
101.0,-58.0,5.861
17.0,-42.0,5.862
-144.0,-23.0,5.863
-265.0,-12.0,5.864
-266.0,-3.0,5.865
-194.0,6.0,5.866
99.0,7.0,5.867
308.0,3.0,5.868
261.0,13.0,5.869
220.0,23.0,5.87
194.0,4.0,5.871
173.0,-33.0,5.872
165.0,-51.0,5.873
121.0,-36.0,5.874
-24.0,-15.0,5.875
-150.0,-4.0,5.876
-214.0,12.0,5.877
-257.0,31.0,5.878
-213.0,32.0,5.879
-166.0,14.0,5.88
-92.0,7.0,5.881
58.0,27.0,5.882
225.0,39.0,5.883
244.0,23.0,5.884
87.0,-1.0,5.885
-39.0,-11.0,5.886
74.0,-25.0,5.887
357.0,-54.0,5.888
543.0,-85.0,5.889
459.0,-101.0,5.89
123.0,-95.0,5.891
-345.0,-59.0,5.892
-759.0,12.0,5.893
-857.0,90.0,5.894
-542.0,124.0,5.895
-77.0,103.0,5.896
140.0,68.0,5.897
24.0,48.0,5.898
-53.0,49.0,5.899
98.0,45.0,5.9
276.0,16.0,5.901
266.0,-22.0,5.902
155.0,-44.0,5.903
117.0,-42.0,5.904
95.0,-28.0,5.905
-41.0,-17.0,5.906
-189.0,-6.0,5.907
-135.0,13.0,5.908
76.0,24.0,5.909
171.0,10.0,5.91
51.0,-15.0,5.911
-77.0,-32.0,5.912
-31.0,-33.0,5.913
85.0,-27.0,5.914
83.0,-13.0,5.915
-17.0,0.0,5.916
-54.0,-2.0,5.917
-20.0,-20.0,5.918
-36.0,-32.0,5.919
-52.0,-41.0,5.92
-67.0,-41.0,5.921
-35.0,-41.0,5.922
141.0,-49.0,5.923
243.0,-41.0,5.924
119.0,15.0,5.925
0.0,63.0,5.926
-99.0,87.0,5.927
-153.0,92.0,5.928
-71.0,41.0,5.929
-24.0,0.0,5.93
-86.0,-11.0,5.931
-115.0,-19.0,5.932
-45.0,-16.0,5.933
5.0,-14.0,5.934
0.0,-14.0,5.935
-29.0,-12.0,5.936
-125.0,-4.0,5.937
-171.0,1.0,5.938
-8.0,-2.0,5.939
159.0,9.0,5.94
192.0,30.0,5.941
127.0,36.0,5.942
101.0,16.0,5.943
149.0,-7.0,5.944
169.0,-16.0,5.945
112.0,-16.0,5.946
60.0,-16.0,5.947
57.0,-12.0,5.948
17.0,2.0,5.949
-113.0,13.0,5.95
-234.0,5.0,5.951
-242.0,-5.0,5.952
-180.0,-1.0,5.953
-107.0,14.0,5.954
10.0,16.0,5.955
155.0,5.0,5.956
203.0,-9.0,5.957
127.0,-24.0,5.958
81.0,-34.0,5.959
61.0,-35.0,5.96
118.0,-31.0,5.961
130.0,-26.0,5.962
6.0,-17.0,5.963
-81.0,0.0,5.964
-59.0,20.0,5.965
-41.0,30.0,5.966
-32.0,33.0,5.967
-27.0,43.0,5.968
-36.0,53.0,5.969
-56.0,36.0,5.97
-104.0,-7.0,5.971
-133.0,-31.0,5.972
-102.0,-11.0,5.973
-54.0,7.0,5.974
47.0,-22.0,5.975
100.0,-80.0,5.976
8.0,-100.0,5.977
-76.0,-66.0,5.978
-68.0,-12.0,5.979
-17.0,33.0,5.98
-48.0,72.0,5.981
-99.0,106.0,5.982
-16.0,102.0,5.983
145.0,53.0,5.984
179.0,1.0,5.985
82.0,-22.0,5.986
58.0,-36.0,5.987
159.0,-62.0,5.988
189.0,-79.0,5.989
50.0,-60.0,5.99
-103.0,-16.0,5.991
-125.0,21.0,5.992
-65.0,34.0,5.993
-5.0,26.0,5.994
51.0,9.0,5.995
75.0,-2.0,5.996
12.0,-1.0,5.997
-93.0,-3.0,5.998
-60.0,-23.0,5.999
59.0,-50.0,6.0
96.0,-55.0,6.001
59.0,-25.0,6.002
120.0,24.0,6.003
273.0,68.0,6.004
278.0,93.0,6.005
22.0,95.0,6.006
-287.0,82.0,6.007
-377.0,60.0,6.008
-242.0,26.0,6.009
-83.0,-10.0,6.01
-39.0,-29.0,6.011
-66.0,-21.0,6.012
-78.0,-5.0,6.013
-74.0,-5.0,6.014
-90.0,-17.0,6.015
-75.0,-25.0,6.016
37.0,-28.0,6.017
193.0,-40.0,6.018
222.0,-51.0,6.019
93.0,-43.0,6.02
-24.0,-33.0,6.021
-42.0,-37.0,6.022
-80.0,-54.0,6.023
-179.0,-65.0,6.024
-150.0,-73.0,6.025
82.0,-84.0,6.026
244.0,-73.0,6.027
94.0,-17.0,6.028
-161.0,58.0,6.029
-153.0,93.0,6.03
91.0,68.0,6.031
264.0,22.0,6.032
267.0,0.0,6.033
259.0,9.0,6.034
265.0,25.0,6.035
118.0,31.0,6.036
-144.0,21.0,6.037
-293.0,9.0,6.038
-202.0,14.0,6.039
-98.0,42.0,6.04
-189.0,71.0,6.041
-299.0,74.0,6.042
-136.0,41.0,6.043
215.0,-9.0,6.044
379.0,-36.0,6.045
201.0,-24.0,6.046
-83.0,7.0,6.047
-203.0,23.0,6.048
-151.0,7.0,6.049
-69.0,-15.0,6.05
-15.0,-14.0,6.051
41.0,2.0,6.052
91.0,5.0,6.053
112.0,-15.0,6.054
125.0,-37.0,6.055
165.0,-49.0,6.056
195.0,-64.0,6.057
130.0,-82.0,6.058
-35.0,-72.0,6.059
-196.0,-12.0,6.06
-236.0,68.0,6.061
-153.0,126.0,6.062
-47.0,133.0,6.063
-2.0,91.0,6.064
-29.0,16.0,6.065
-81.0,-49.0,6.066
-79.0,-67.0,6.067
25.0,-42.0,6.068
184.0,-19.0,6.069
261.0,-29.0,6.07
175.0,-52.0,6.071
-2.0,-60.0,6.072
-121.0,-43.0,6.073
-101.0,-13.0,6.074
32.0,7.0,6.075
178.0,2.0,6.076
218.0,-19.0,6.077
97.0,-25.0,6.078
-67.0,0.0,6.079
-167.0,18.0,6.08
-75.0,6.0,6.081
-10.0,-3.0,6.082
-27.0,-5.0,6.083
-41.0,-3.0,6.084
-46.0,14.0,6.085
-66.0,31.0,6.086
-127.0,49.0,6.087
-147.0,68.0,6.088
-42.0,88.0,6.089
32.0,91.0,6.09
13.0,37.0,6.091
-11.0,-9.0,6.092
-48.0,-35.0,6.093
-56.0,-54.0,6.094
21.0,-50.0,6.095
78.0,-47.0,6.096
69.0,-50.0,6.097
30.0,-52.0,6.098
-85.0,-55.0,6.099
-76.0,-73.0,6.1
105.0,-90.0,6.101
253.0,-66.0,6.102
173.0,-4.0,6.103
-55.0,55.0,6.104
-198.0,76.0,6.105
-171.0,64.0,6.106
-58.0,46.0,6.107
55.0,31.0,6.108
131.0,25.0,6.109
137.0,41.0,6.11
72.0,78.0,6.111
16.0,100.0,6.112
25.0,75.0,6.113
74.0,16.0,6.114
136.0,-39.0,6.115
220.0,-74.0,6.116
257.0,-91.0,6.117
80.0,-87.0,6.118
-217.0,-45.0,6.119
-358.0,21.0,6.12
-196.0,67.0,6.121
67.0,72.0,6.122
148.0,58.0,6.123
35.0,48.0,6.124
-83.0,36.0,6.125
-117.0,7.0,6.126
-123.0,-26.0,6.127
-123.0,-42.0,6.128
-75.0,-39.0,6.129
21.0,-25.0,6.13
112.0,-12.0,6.131
172.0,-1.0,6.132
205.0,0.0,6.133
186.0,-16.0,6.134
107.0,-43.0,6.135
25.0,-66.0,6.136
-9.0,-75.0,6.137
-36.0,-71.0,6.138
-109.0,-56.0,6.139
-203.0,-39.0,6.14
-231.0,-30.0,6.141
-165.0,-21.0,6.142
-77.0,4.0,6.143
-46.0,53.0,6.144
-52.0,108.0,6.145
-23.0,143.0,6.146
57.0,161.0,6.147
105.0,179.0,6.148
51.0,193.0,6.149
-65.0,156.0,6.15
-130.0,57.0,6.151
-86.0,-44.0,6.152
52.0,-86.0,6.153
209.0,-91.0,6.154
256.0,-124.0,6.155
108.0,-187.0,6.156
-109.0,-216.0,6.157
-155.0,-196.0,6.158
11.0,-172.0,6.159
139.0,-149.0,6.16
147.0,-129.0,6.161
140.0,-92.0,6.162
90.0,-6.0,6.163
13.0,61.0,6.164
-140.0,74.0,6.165
-175.0,71.0,6.166
150.0,16.0,6.167
328.0,-28.0,6.168
64.0,-40.0,6.169
-179.0,-23.0,6.17
-361.0,85.0,6.171
-434.0,169.0,6.172
-176.0,179.0,6.173
28.0,184.0,6.174
76.0,172.0,6.175
114.0,154.0,6.176
124.0,119.0,6.177
128.0,67.0,6.178
107.0,-57.0,6.179
63.0,-179.0,6.18
-51.0,-243.0,6.181
-160.0,-244.0,6.182
-79.0,-222.0,6.183
206.0,-194.0,6.184
404.0,-133.0,6.185
225.0,-25.0,6.186
-229.0,94.0,6.187
-523.0,160.0,6.188
-369.0,133.0,6.189
40.0,37.0,6.19
269.0,-42.0,6.191
145.0,-31.0,6.192
-90.0,58.0,6.193
-156.0,128.0,6.194
-87.0,112.0,6.195
-101.0,40.0,6.196
-224.0,-18.0,6.197
-244.0,-37.0,6.198
-4.0,-20.0,6.199
345.0,16.0,6.2
547.0,49.0,6.201
562.0,70.0,6.202
494.0,80.0,6.203
321.0,88.0,6.204
-11.0,90.0,6.205
-329.0,77.0,6.206
-376.0,56.0,6.207
-199.0,46.0,6.208
-72.0,53.0,6.209
-64.0,69.0,6.21
-21.0,73.0,6.211
68.0,51.0,6.212
48.0,0.0,6.213
-45.0,-60.0,6.214
-14.0,-123.0,6.215
89.0,-186.0,6.216
17.0,-228.0,6.217
-249.0,-223.0,6.218
-364.0,-165.0,6.219
-150.0,-104.0,6.22
124.0,-79.0,6.221
190.0,-58.0,6.222
134.0,-5.0,6.223
127.0,60.0,6.224
103.0,88.0,6.225
-61.0,77.0,6.226
-246.0,70.0,6.227
-260.0,85.0,6.228
-128.0,104.0,6.229
-22.0,94.0,6.23
25.0,62.0,6.231
115.0,35.0,6.232
252.0,32.0,6.233
310.0,43.0,6.234
243.0,43.0,6.235
168.0,21.0,6.236
142.0,0.0,6.237
56.0,-4.0,6.238
-158.0,1.0,6.239
-328.0,-9.0,6.24
-245.0,-70.0,6.241
-24.0,-117.0,6.242
32.0,-123.0,6.243
-99.0,-130.0,6.244
-139.0,-134.0,6.245
2.0,-134.0,6.246
75.0,-124.0,6.247
-30.0,-104.0,6.248
-73.0,-51.0,6.249
83.0,4.0,6.25
171.0,66.0,6.251
-22.0,109.0,6.252
-238.0,91.0,6.253
-161.0,69.0,6.254
67.0,34.0,6.255
103.0,10.0,6.256
-38.0,21.0,6.257
-99.0,28.0,6.258
12.0,23.0,6.259
116.0,44.0,6.26
123.0,94.0,6.261
151.0,148.0,6.262
271.0,166.0,6.263
368.0,114.0,6.264
305.0,1.0,6.265
86.0,-111.0,6.266
-172.0,-145.0,6.267
-337.0,-95.0,6.268
-326.0,-32.0,6.269
-185.0,-19.0,6.27
-55.0,-52.0,6.271
-31.0,-76.0,6.272
-65.0,-49.0,6.273
-72.0,20.0,6.274
-28.0,78.0,6.275
43.0,73.0,6.276
112.0,18.0,6.277
128.0,-27.0,6.278
36.0,-15.0,6.279
-94.0,34.0,6.28
-95.0,58.0,6.281
89.0,46.0,6.282
306.0,28.0,6.283
377.0,31.0,6.284
265.0,46.0,6.285
28.0,60.0,6.286
-255.0,59.0,6.287
-436.0,31.0,6.288
-351.0,-36.0,6.289
-38.0,-127.0,6.29
210.0,-192.0,6.291
164.0,-182.0,6.292
-66.0,-95.0,6.293
-194.0,25.0,6.294
-128.0,117.0,6.295
-31.0,150.0,6.296
-26.0,130.0,6.297
-48.0,75.0,6.298
-6.0,9.0,6.299
26.0,-59.0,6.3
34.0,-121.0,6.301
44.0,-153.0,6.302
62.0,-138.0,6.303
80.0,-88.0,6.304
97.0,-37.0,6.305
96.0,-9.0,6.306
37.0,8.0,6.307
-33.0,29.0,6.308
-139.0,46.0,6.309
-196.0,38.0,6.31
-104.0,6.0,6.311
-25.0,-25.0,6.312
8.0,-26.0,6.313
53.0,5.0,6.314
125.0,52.0,6.315
169.0,93.0,6.316
123.0,113.0,6.317
73.0,96.0,6.318
40.0,54.0,6.319
25.0,20.0,6.32
-30.0,9.0,6.321
-37.0,0.0,6.322
113.0,0.0,6.323
295.0,0.0,6.324
283.0,-2.0,6.325
71.0,-5.0,6.326
-127.0,-6.0,6.327
-165.0,-14.0,6.328
-74.0,-45.0,6.329
58.0,-70.0,6.33
154.0,-75.0,6.331
126.0,-70.0,6.332
-38.0,-32.0,6.333
-204.0,7.0,6.334
-227.0,47.0,6.335
-135.0,76.0,6.336
-74.0,70.0,6.337
-97.0,62.0,6.338
-118.0,48.0,6.339
-81.0,35.0,6.34
-41.0,21.0,6.341
-45.0,17.0,6.342
-38.0,25.0,6.343
25.0,27.0,6.344
65.0,23.0,6.345
6.0,22.0,6.346
-75.0,37.0,6.347
-43.0,60.0,6.348
72.0,64.0,6.349
129.0,25.0,6.35
80.0,-53.0,6.351
12.0,-131.0,6.352
15.0,-178.0,6.353
98.0,-194.0,6.354
201.0,-202.0,6.355
201.0,-195.0,6.356
39.0,-151.0,6.357
-209.0,-71.0,6.358
-312.0,5.0,6.359
-195.0,62.0,6.36
-65.0,62.0,6.361
-125.0,65.0,6.362
-267.0,81.0,6.363
-247.0,101.0,6.364
-39.0,137.0,6.365
157.0,165.0,6.366
204.0,172.0,6.367
154.0,155.0,6.368
117.0,65.0,6.369
125.0,-17.0,6.37
137.0,-73.0,6.371
122.0,-113.0,6.372
85.0,-106.0,6.373
54.0,-87.0,6.374
41.0,-31.0,6.375
45.0,17.0,6.376
56.0,42.0,6.377
60.0,52.0,6.378
48.0,3.0,6.379
25.0,-52.0,6.38
16.0,-111.0,6.381
17.0,-160.0,6.382
-8.0,-179.0,6.383
-70.0,-144.0,6.384
-113.0,-84.0,6.385
-91.0,-45.0,6.386
-26.0,-28.0,6.387
31.0,7.0,6.388
91.0,72.0,6.389
175.0,122.0,6.39
231.0,124.0,6.391
143.0,92.0,6.392
-110.0,68.0,6.393
-372.0,72.0,6.394
-432.0,86.0,6.395
-262.0,82.0,6.396
-58.0,52.0,6.397
10.0,11.0,6.398
-41.0,-6.0,6.399
-48.0,0.0,6.4
54.0,0.0,6.401
156.0,-11.0,6.402
160.0,-6.0,6.403
121.0,24.0,6.404
133.0,44.0,6.405
183.0,25.0,6.406
202.0,-16.0,6.407
179.0,-45.0,6.408
128.0,-50.0,6.409
28.0,-46.0,6.41
-110.0,-42.0,6.411
-201.0,-30.0,6.412
-190.0,-3.0,6.413
-141.0,38.0,6.414
-119.0,71.0,6.415
-87.0,76.0,6.416
-13.0,66.0,6.417
47.0,60.0,6.418
24.0,60.0,6.419
-38.0,41.0,6.42
-45.0,-18.0,6.421
-14.0,-88.0,6.422
-22.0,-135.0,6.423
-55.0,-152.0,6.424
-20.0,-147.0,6.425
78.0,-124.0,6.426
127.0,-84.0,6.427
67.0,-32.0,6.428
-30.0,20.0,6.429
-69.0,58.0,6.43
-53.0,71.0,6.431
-20.0,63.0,6.432
34.0,57.0,6.433
93.0,75.0,6.434
94.0,99.0,6.435
0.0,95.0,6.436
-91.0,59.0,6.437
-62.0,11.0,6.438
85.0,-21.0,6.439
201.0,-43.0,6.44
159.0,-67.0,6.441
24.0,-86.0,6.442
-21.0,-89.0,6.443
83.0,-80.0,6.444
185.0,-66.0,6.445
85.0,-47.0,6.446
-190.0,-22.0,6.447
-368.0,5.0,6.448
-244.0,27.0,6.449
37.0,39.0,6.45
139.0,48.0,6.451
-38.0,63.0,6.452
-243.0,98.0,6.453
-213.0,136.0,6.454
-2.0,134.0,6.455
137.0,69.0,6.456
106.0,-8.0,6.457
23.0,-49.0,6.458
30.0,-51.0,6.459
113.0,-51.0,6.46
172.0,-65.0,6.461
172.0,-67.0,6.462
145.0,-50.0,6.463
82.0,-33.0,6.464
-37.0,-18.0,6.465
-146.0,6.0,6.466
-146.0,33.0,6.467
-61.0,35.0,6.468
-20.0,16.0,6.469
-58.0,-3.0,6.47
-63.0,-25.0,6.471
34.0,-60.0,6.472
133.0,-90.0,6.473
111.0,-91.0,6.474
7.0,-68.0,6.475
-44.0,-43.0,6.476
-9.0,-18.0,6.477
43.0,16.0,6.478
52.0,55.0,6.479
45.0,84.0,6.48
68.0,98.0,6.481
90.0,102.0,6.482
46.0,86.0,6.483
-82.0,48.0,6.484
-220.0,4.0,6.485
-253.0,-35.0,6.486
-142.0,-76.0,6.487
28.0,-109.0,6.488
121.0,-106.0,6.489
86.0,-67.0,6.49
-16.0,-22.0,6.491
-101.0,9.0,6.492
-121.0,33.0,6.493
-75.0,51.0,6.494
8.0,55.0,6.495
70.0,54.0,6.496
63.0,64.0,6.497
-1.0,69.0,6.498
-45.0,45.0,6.499
-57.0,19.0,6.5
27.0,-9.0,6.501
94.0,-26.0,6.502
108.0,-5.0,6.503
112.0,21.0,6.504
81.0,63.0,6.505
41.0,92.0,6.506
-27.0,76.0,6.507
-61.0,49.0,6.508
11.0,-11.0,6.509
66.0,-62.0,6.51
73.0,-89.0,6.511
64.0,-109.0,6.512
4.0,-105.0,6.513
-5.0,-91.0,6.514
140.0,-53.0,6.515
215.0,-22.0,6.516
77.0,-12.0,6.517
-67.0,-6.0,6.518
-198.0,-11.0,6.519
-253.0,-10.0,6.52
-188.0,-5.0,6.521
1.0,-6.0,6.522
164.0,-21.0,6.523
144.0,-37.0,6.524
-7.0,-28.0,6.525
-116.0,1.0,6.526
-136.0,27.0,6.527
-127.0,36.0,6.528
-102.0,32.0,6.529
-40.0,8.0,6.53
-8.0,-25.0,6.531
-63.0,-30.0,6.532
-120.0,25.0,6.533
-55.0,98.0,6.534
104.0,115.0,6.535
226.0,73.0,6.536
239.0,31.0,6.537
156.0,18.0,6.538
38.0,24.0,6.539
-37.0,27.0,6.54
15.0,21.0,6.541
57.0,9.0,6.542
71.0,-19.0,6.543
50.0,-40.0,6.544
-79.0,-39.0,6.545
-177.0,-33.0,6.546
-177.0,-13.0,6.547
-157.0,-1.0,6.548
-79.0,-13.0,6.549
8.0,-21.0,6.55
122.0,-18.0,6.551
206.0,-15.0,6.552
200.0,-15.0,6.553
200.0,-21.0,6.554
218.0,-42.0,6.555
187.0,-49.0,6.556
9.0,-15.0,6.557
-173.0,23.0,6.558
-292.0,60.0,6.559
-242.0,60.0,6.56
-131.0,32.0,6.561
-71.0,4.0,6.562
-46.0,-20.0,6.563
8.0,-40.0,6.564
76.0,-44.0,6.565
83.0,-23.0,6.566
23.0,28.0,6.567
-19.0,84.0,6.568
32.0,102.0,6.569
140.0,66.0,6.57
206.0,6.0,6.571
188.0,-32.0,6.572
107.0,-42.0,6.573
-26.0,-51.0,6.574
-196.0,-62.0,6.575
-313.0,-52.0,6.576
-285.0,-19.0,6.577
-157.0,8.0,6.578
-71.0,15.0,6.579
-7.0,15.0,6.58
-9.0,25.0,6.581
-8.0,56.0,6.582
6.0,93.0,6.583
17.0,115.0,6.584
15.0,108.0,6.585
19.0,64.0,6.586
43.0,-14.0,6.587
51.0,-106.0,6.588
8.0,-176.0,6.589
-7.0,-203.0,6.59
61.0,-192.0,6.591
103.0,-165.0,6.592
65.0,-130.0,6.593
30.0,-79.0,6.594
2.0,-18.0,6.595
-30.0,31.0,6.596
-72.0,68.0,6.597
-106.0,108.0,6.598
-71.0,143.0,6.599
2.0,136.0,6.6
48.0,81.0,6.601
44.0,28.0,6.602
17.0,9.0,6.603
-9.0,0.0,6.604
-20.0,-21.0,6.605
8.0,-43.0,6.606
75.0,-41.0,6.607
121.0,-27.0,6.608
98.0,-22.0,6.609
49.0,-15.0,6.61
46.0,4.0,6.611
58.0,27.0,6.612
1.0,35.0,6.613
-109.0,40.0,6.614
-139.0,52.0,6.615
-35.0,52.0,6.616
88.0,30.0,6.617
127.0,-12.0,6.618
89.0,-44.0,6.619
35.0,-55.0,6.62
-37.0,-43.0,6.621
-106.0,0.0,6.622
-79.0,52.0,6.623
55.0,78.0,6.624
153.0,51.0,6.625
89.0,1.0,6.626
-70.0,-21.0,6.627
-167.0,4.0,6.628
-138.0,46.0,6.629
-34.0,54.0,6.63
69.0,23.0,6.631
112.0,-10.0,6.632
76.0,-16.0,6.633
40.0,-9.0,6.634
90.0,-24.0,6.635
167.0,-62.0,6.636
132.0,-87.0,6.637
-48.0,-69.0,6.638
-209.0,-5.0,6.639
-210.0,62.0,6.64
-113.0,87.0,6.641
-60.0,55.0,6.642
-81.0,-6.0,6.643
-105.0,-46.0,6.644
-68.0,-54.0,6.645
36.0,-49.0,6.646
148.0,-47.0,6.647
149.0,-37.0,6.648
-10.0,-10.0,6.649
-203.0,16.0,6.65
-244.0,24.0,6.651
-122.0,12.0,6.652
3.0,-3.0,6.653
38.0,-9.0,6.654
42.0,2.0,6.655
71.0,32.0,6.656
89.0,62.0,6.657
73.0,67.0,6.658
63.0,44.0,6.659
58.0,11.0,6.66
66.0,-15.0,6.661
72.0,-27.0,6.662
74.0,-31.0,6.663
64.0,-31.0,6.664
17.0,-26.0,6.665
-20.0,-19.0,6.666
-24.0,-14.0,6.667
-20.0,-9.0,6.668
10.0,-5.0,6.669
31.0,-4.0,6.67
19.0,-8.0,6.671
4.0,-16.0,6.672
-16.0,-24.0,6.673
-32.0,-25.0,6.674
-40.0,-20.0,6.675
-35.0,-10.0,6.676
10.0,-1.0,6.677
46.0,0.0,6.678
19.0,-1.0,6.679
-46.0,0.0,6.68
-87.0,8.0,6.681
-54.0,25.0,6.682
35.0,33.0,6.683
113.0,24.0,6.684
138.0,3.0,6.685
132.0,-6.0,6.686
123.0,2.0,6.687
88.0,14.0,6.688
7.0,16.0,6.689
-79.0,11.0,6.69
-98.0,8.0,6.691
-49.0,1.0,6.692
-21.0,-8.0,6.693
-88.0,-12.0,6.694
-206.0,-6.0,6.695
-231.0,-4.0,6.696
-86.0,-16.0,6.697
172.0,-41.0,6.698
353.0,-54.0,6.699
328.0,-49.0,6.7
172.0,-36.0,6.701
28.0,-14.0,6.702
-70.0,15.0,6.703
-173.0,43.0,6.704
-257.0,54.0,6.705
-222.0,55.0,6.706
-77.0,75.0,6.707
47.0,126.0,6.708
72.0,165.0,6.709
42.0,130.0,6.71
-11.0,17.0,6.711
-96.0,-99.0,6.712
-150.0,-153.0,6.713
-70.0,-145.0,6.714
92.0,-108.0,6.715
159.0,-55.0,6.716
103.0,-3.0,6.717
58.0,17.0,6.718
84.0,1.0,6.719
46.0,-20.0,6.72
-113.0,-10.0,6.721
-220.0,17.0,6.722
-134.0,19.0,6.723
17.0,-6.0,6.724
43.0,-25.0,6.725
-26.0,-23.0,6.726
-41.0,-9.0,6.727
19.0,0.0,6.728
70.0,11.0,6.729
91.0,25.0,6.73
111.0,34.0,6.731
108.0,28.0,6.732
55.0,9.0,6.733
-1.0,-9.0,6.734
-13.0,-16.0,6.735
-26.0,-19.0,6.736
-86.0,-24.0,6.737
-132.0,-34.0,6.738
-86.0,-37.0,6.739
-29.0,-28.0,6.74
63.0,-14.0,6.741
134.0,7.0,6.742
143.0,36.0,6.743
151.0,62.0,6.744
157.0,68.0,6.745
154.0,48.0,6.746
117.0,16.0,6.747
60.0,-7.0,6.748
-57.0,-10.0,6.749
-142.0,2.0,6.75
-132.0,20.0,6.751
-101.0,26.0,6.752
-6.0,16.0,6.753
51.0,0.0,6.754
-5.0,-7.0,6.755
-46.0,-2.0,6.756
-38.0,0.0,6.757
-29.0,-9.0,6.758
-42.0,-27.0,6.759
-80.0,-38.0,6.76
-64.0,-40.0,6.761
14.0,-35.0,6.762
80.0,-31.0,6.763
74.0,-23.0,6.764
12.0,-5.0,6.765
-56.0,17.0,6.766
-93.0,36.0,6.767
-74.0,46.0,6.768
-5.0,44.0,6.769
57.0,25.0,6.77
48.0,-1.0,6.771
-7.0,-16.0,6.772
-24.0,-15.0,6.773
33.0,-12.0,6.774
94.0,-12.0,6.775
75.0,-12.0,6.776
4.0,-7.0,6.777
-46.0,-17.0,6.778
-33.0,-39.0,6.779
-29.0,-50.0,6.78
-63.0,-25.0,6.781
-84.0,-1.0,6.782
-42.0,19.0,6.783
21.0,34.0,6.784
35.0,32.0,6.785
2.0,26.0,6.786
-3.0,8.0,6.787
47.0,-5.0,6.788
103.0,-1.0,6.789
97.0,3.0,6.79
34.0,11.0,6.791
-25.0,18.0,6.792
-39.0,24.0,6.793
-24.0,29.0,6.794
-19.0,28.0,6.795
-31.0,23.0,6.796
-24.0,7.0,6.797
20.0,-1.0,6.798
75.0,17.0,6.799
97.0,13.0,6.8
91.0,-16.0,6.801
87.0,-35.0,6.802
78.0,-36.0,6.803
18.0,-39.0,6.804
-91.0,-47.0,6.805
-176.0,-36.0,6.806
-160.0,-9.0,6.807
-59.0,3.0,6.808
37.0,-9.0,6.809
68.0,-26.0,6.81
54.0,-29.0,6.811
43.0,-22.0,6.812
30.0,-11.0,6.813
-11.0,8.0,6.814
-63.0,31.0,6.815
-58.0,43.0,6.816
4.0,42.0,6.817
34.0,35.0,6.818
0.0,29.0,6.819
-20.0,24.0,6.82
1.0,16.0,6.821
13.0,14.0,6.822
-11.0,17.0,6.823
-18.0,15.0,6.824
26.0,0.0,6.825
55.0,-22.0,6.826
37.0,-35.0,6.827
22.0,-29.0,6.828
16.0,-6.0,6.829
11.0,28.0,6.83
13.0,59.0,6.831
20.0,67.0,6.832
36.0,31.0,6.833
34.0,-42.0,6.834
-26.0,-111.0,6.835
-71.0,-142.0,6.836
-66.0,-135.0,6.837
-53.0,-113.0,6.838
-35.0,-87.0,6.839
-28.0,-60.0,6.84
3.0,-32.0,6.841
45.0,6.0,6.842
55.0,53.0,6.843
36.0,93.0,6.844
38.0,101.0,6.845
61.0,76.0,6.846
67.0,32.0,6.847
34.0,0.0,6.848
-28.0,-4.0,6.849
-73.0,18.0,6.85
-78.0,47.0,6.851
-56.0,70.0,6.852
-35.0,74.0,6.853
-21.0,57.0,6.854
1.0,29.0,6.855
30.0,6.0,6.856
37.0,0.0,6.857
18.0,-2.0,6.858
14.0,-8.0,6.859
21.0,-16.0,6.86
-13.0,-23.0,6.861
-100.0,-22.0,6.862
-158.0,-23.0,6.863
-109.0,-26.0,6.864
10.0,-26.0,6.865
99.0,-25.0,6.866
112.0,-23.0,6.867
72.0,-17.0,6.868
21.0,-3.0,6.869
-14.0,12.0,6.87
-11.0,23.0,6.871
26.0,25.0,6.872
63.0,27.0,6.873
78.0,27.0,6.874
81.0,25.0,6.875
90.0,13.0,6.876
106.0,-2.0,6.877
118.0,-22.0,6.878
119.0,-33.0,6.879
90.0,-39.0,6.88
19.0,-27.0,6.881
-80.0,-15.0,6.882
-162.0,-2.0,6.883
-185.0,10.0,6.884
-148.0,22.0,6.885
-95.0,29.0,6.886
-67.0,19.0,6.887
-69.0,9.0,6.888
-68.0,-3.0,6.889
-44.0,-19.0,6.89
-21.0,-44.0,6.891
-9.0,-59.0,6.892
25.0,-44.0,6.893
94.0,-24.0,6.894
140.0,5.0,6.895
119.0,29.0,6.896
69.0,35.0,6.897
38.0,37.0,6.898
24.0,12.0,6.899
-16.0,-16.0,6.9
-70.0,-27.0,6.901
-83.0,-23.0,6.902
-43.0,-30.0,6.903
4.0,-43.0,6.904
26.0,-32.0,6.905
27.0,8.0,6.906
10.0,44.0,6.907
-30.0,51.0,6.908
-75.0,41.0,6.909
-67.0,37.0,6.91
17.0,36.0,6.911
128.0,32.0,6.912
171.0,22.0,6.913
128.0,10.0,6.914
77.0,-7.0,6.915
85.0,-26.0,6.916
114.0,-35.0,6.917
73.0,-25.0,6.918
-46.0,19.0,6.919
-160.0,99.0,6.92
-188.0,170.0,6.921
-139.0,161.0,6.922
-74.0,44.0,6.923
-32.0,-113.0,6.924
-14.0,-210.0,6.925
11.0,-223.0,6.926
56.0,-205.0,6.927
89.0,-182.0,6.928
61.0,-127.0,6.929
-13.0,-33.0,6.93
-60.0,50.0,6.931
-46.0,88.0,6.932
-4.0,90.0,6.933
37.0,79.0,6.934
87.0,62.0,6.935
118.0,44.0,6.936
79.0,38.0,6.937
-18.0,33.0,6.938
-86.0,19.0,6.939
-112.0,6.0,6.94
-165.0,15.0,6.941
-229.0,38.0,6.942
-175.0,43.0,6.943
5.0,27.0,6.944
131.0,18.0,6.945
91.0,19.0,6.946
10.0,14.0,6.947
33.0,3.0,6.948
96.0,0.0,6.949
76.0,2.0,6.95
14.0,-6.0,6.951
24.0,-19.0,6.952
89.0,-16.0,6.953
99.0,-3.0,6.954
46.0,-2.0,6.955
11.0,-15.0,6.956
17.0,-24.0,6.957
11.0,-23.0,6.958
-21.0,-20.0,6.959
-36.0,-14.0,6.96
-7.0,-6.0,6.961
36.0,3.0,6.962
59.0,-1.0,6.963
46.0,-9.0,6.964
2.0,0.0,6.965
-61.0,22.0,6.966
-117.0,30.0,6.967
-130.0,16.0,6.968
-89.0,4.0,6.969
-7.0,8.0,6.97
78.0,8.0,6.971
120.0,-8.0,6.972
101.0,-25.0,6.973
63.0,-22.0,6.974
45.0,-5.0,6.975
39.0,0.0,6.976
23.0,-8.0,6.977
3.0,-18.0,6.978
10.0,-21.0,6.979
28.0,-22.0,6.98
11.0,-32.0,6.981
-36.0,-35.0,6.982
-69.0,-23.0,6.983
-76.0,-2.0,6.984
-91.0,16.0,6.985
-115.0,26.0,6.986
-99.0,21.0,6.987
-24.0,8.0,6.988
61.0,-2.0,6.989
96.0,0.0,6.99
80.0,3.0,6.991
54.0,-1.0,6.992
40.0,-7.0,6.993
29.0,-7.0,6.994
8.0,-1.0,6.995
-21.0,2.0,6.996
-52.0,2.0,6.997
-89.0,3.0,6.998
-108.0,7.0,6.999
-73.0,1.0,7.0
19.0,-21.0,7.001
107.0,-46.0,7.002
125.0,-55.0,7.003
69.0,-34.0,7.004
-12.0,5.0,7.005
-82.0,43.0,7.006
-110.0,54.0,7.007
-73.0,40.0,7.008
15.0,27.0,7.009
89.0,24.0,7.01
103.0,28.0,7.011
80.0,28.0,7.012
66.0,26.0,7.013
65.0,28.0,7.014
42.0,27.0,7.015
-2.0,17.0,7.016
-33.0,7.0,7.017
-33.0,0.0,7.018
-16.0,-3.0,7.019
-7.0,-11.0,7.02
-23.0,-21.0,7.021
-32.0,-15.0,7.022
-14.0,-3.0,7.023
-6.0,-4.0,7.024
-29.0,-27.0,7.025
-55.0,-49.0,7.026
-89.0,-53.0,7.027
-108.0,-45.0,7.028
-76.0,-26.0,7.029
-36.0,22.0,7.03
21.0,100.0,7.031
82.0,160.0,7.032
148.0,137.0,7.033
182.0,26.0,7.034
119.0,-104.0,7.035
51.0,-181.0,7.036
-26.0,-182.0,7.037
-92.0,-146.0,7.038
-89.0,-91.0,7.039
-56.0,-39.0,7.04
-37.0,-6.0,7.041
-37.0,16.0,7.042
-37.0,29.0,7.043
-33.0,32.0,7.044
-39.0,21.0,7.045
-30.0,6.0,7.046
27.0,5.0,7.047
103.0,25.0,7.048
124.0,55.0,7.049
72.0,79.0,7.05
13.0,83.0,7.051
-11.0,58.0,7.052
-26.0,20.0,7.053
-49.0,-4.0,7.054
-41.0,-6.0,7.055
17.0,-9.0,7.056
74.0,-23.0,7.057
87.0,-32.0,7.058
68.0,-19.0,7.059
62.0,-12.0,7.06
65.0,-24.0,7.061
61.0,-29.0,7.062
52.0,-14.0,7.063
29.0,0.0,7.064
-24.0,10.0,7.065
-87.0,19.0,7.066
-104.0,19.0,7.067
-64.0,16.0,7.068
-12.0,1.0,7.069
12.0,-9.0,7.07
15.0,-4.0,7.071
12.0,0.0,7.072
0.0,-4.0,7.073
-25.0,-4.0,7.074
-46.0,8.0,7.075
-47.0,18.0,7.076
-39.0,18.0,7.077
-34.0,17.0,7.078
-28.0,9.0,7.079
-16.0,0.0,7.08
-8.0,-16.0,7.081
-14.0,-25.0,7.082
-13.0,-20.0,7.083
9.0,-9.0,7.084
27.0,-4.0,7.085
8.0,1.0,7.086
-33.0,11.0,7.087
-50.0,14.0,7.088
-35.0,6.0,7.089
-15.0,0.0,7.09
-1.0,2.0,7.091
23.0,9.0,7.092
57.0,11.0,7.093
79.0,10.0,7.094
72.0,5.0,7.095
57.0,-5.0,7.096
58.0,-15.0,7.097
67.0,-25.0,7.098
67.0,-30.0,7.099
56.0,-34.0,7.1
11.0,-32.0,7.101
-35.0,-26.0,7.102
-84.0,-8.0,7.103
-112.0,9.0,7.104
-71.0,21.0,7.105
-26.0,33.0,7.106
30.0,41.0,7.107
59.0,45.0,7.108
7.0,39.0,7.109
-28.0,30.0,7.11
-6.0,15.0,7.111
10.0,1.0,7.112
10.0,-8.0,7.113
3.0,-15.0,7.114
-28.0,-13.0,7.115
-49.0,-12.0,7.116
-39.0,-13.0,7.117
-23.0,-16.0,7.118
13.0,-19.0,7.119
55.0,-18.0,7.12
76.0,-19.0,7.121
63.0,-20.0,7.122
32.0,-25.0,7.123
-15.0,-34.0,7.124
-73.0,-44.0,7.125
-118.0,-41.0,7.126
-130.0,-19.0,7.127
-101.0,9.0,7.128
-25.0,28.0,7.129
105.0,38.0,7.13
243.0,56.0,7.131
277.0,73.0,7.132
169.0,76.0,7.133
28.0,74.0,7.134
-15.0,94.0,7.135
30.0,126.0,7.136
55.0,122.0,7.137
26.0,62.0,7.138
-29.0,-47.0,7.139
-52.0,-138.0,7.14
-40.0,-186.0,7.141
-23.0,-196.0,7.142
0.0,-171.0,7.143
24.0,-123.0,7.144
32.0,-70.0,7.145
0.0,-30.0,7.146
-63.0,8.0,7.147
-125.0,49.0,7.148
-154.0,70.0,7.149
-122.0,57.0,7.15
-37.0,30.0,7.151
42.0,17.0,7.152
53.0,15.0,7.153
11.0,14.0,7.154
-13.0,15.0,7.155
7.0,19.0,7.156
23.0,19.0,7.157
-8.0,13.0,7.158
-36.0,19.0,7.159
-17.0,27.0,7.16
17.0,18.0,7.161
20.0,4.0,7.162
4.0,4.0,7.163
5.0,18.0,7.164
10.0,28.0,7.165
-3.0,21.0,7.166
-18.0,5.0,7.167
-12.0,-8.0,7.168
3.0,-20.0,7.169
4.0,-26.0,7.17
10.0,-26.0,7.171
34.0,-21.0,7.172
53.0,-21.0,7.173
32.0,-20.0,7.174
-14.0,-15.0,7.175
-50.0,-5.0,7.176
-64.0,10.0,7.177
-63.0,30.0,7.178
-36.0,47.0,7.179
14.0,48.0,7.18
53.0,25.0,7.181
55.0,2.0,7.182
46.0,-9.0,7.183
51.0,-15.0,7.184
57.0,-24.0,7.185
36.0,-28.0,7.186
4.0,-21.0,7.187
-10.0,-13.0,7.188
-10.0,-12.0,7.189
-7.0,-13.0,7.19
-3.0,-8.0,7.191
4.0,-6.0,7.192
9.0,-11.0,7.193
3.0,-12.0,7.194
2.0,-2.0,7.195
17.0,8.0,7.196
37.0,4.0,7.197
41.0,-8.0,7.198
25.0,-12.0,7.199
-4.0,-12.0,7.2
-73.0,1.0,7.201
-132.0,17.0,7.202
-160.0,37.0,7.203
-143.0,49.0,7.204
10.0,35.0,7.205
131.0,20.0,7.206
149.0,0.0,7.207
145.0,-16.0,7.208
74.0,-21.0,7.209
14.0,-25.0,7.21
-13.0,-19.0,7.211
-35.0,-15.0,7.212
-41.0,-17.0,7.213
-24.0,-13.0,7.214
66.0,8.0,7.215
132.0,24.0,7.216
120.0,14.0,7.217
100.0,5.0,7.218
47.0,14.0,7.219
-28.0,48.0,7.22
-93.0,77.0,7.221
-106.0,84.0,7.222
-61.0,65.0,7.223
-3.0,24.0,7.224
20.0,-34.0,7.225
-9.0,-102.0,7.226
-57.0,-158.0,7.227
-61.0,-166.0,7.228
-8.0,-117.0,7.229
30.0,-48.0,7.23
-6.0,-4.0,7.231
-63.0,14.0,7.232
-55.0,35.0,7.233
15.0,58.0,7.234
76.0,62.0,7.235
99.0,46.0,7.236
111.0,32.0,7.237
102.0,25.0,7.238
38.0,15.0,7.239
-57.0,3.0,7.24
-112.0,0.0,7.241
-104.0,8.0,7.242
-71.0,8.0,7.243
-50.0,-2.0,7.244
-41.0,-9.0,7.245
-26.0,-3.0,7.246
-3.0,3.0,7.247
19.0,4.0,7.248
18.0,5.0,7.249
-7.0,8.0,7.25
-20.0,9.0,7.251
0.0,4.0,7.252
25.0,0.0,7.253
21.0,3.0,7.254
9.0,17.0,7.255
23.0,34.0,7.256
46.0,41.0,7.257
42.0,11.0,7.258
20.0,21.0,7.259
17.0,30.0,7.26
24.0,21.0,7.261
13.0,11.0,7.262
-4.0,5.0,7.263
3.0,3.0,7.264
20.0,19.0,7.265
7.0,30.0,7.266
-32.0,23.0,7.267
-61.0,15.0,7.268
-67.0,11.0,7.269
-59.0,1.0,7.27
-32.0,-34.0,7.271
17.0,-59.0,7.272
63.0,-43.0,7.273
61.0,-24.0,7.274
11.0,-7.0,7.275
-41.0,11.0,7.276
-59.0,38.0,7.277
-28.0,7.0,7.278
36.0,12.0,7.279
86.0,16.0,7.28
75.0,12.0,7.281
23.0,7.0,7.282
-1.0,4.0,7.283
39.0,3.0,7.284
97.0,11.0,7.285
116.0,16.0,7.286
85.0,13.0,7.287
22.0,9.0,7.288
-59.0,7.0,7.289
-136.0,2.0,7.29
-159.0,-15.0,7.291
-106.0,-27.0,7.292
-26.0,-19.0,7.293
13.0,-10.0,7.294
11.0,-2.0,7.295
17.0,7.0,7.296
49.0,20.0,7.297
82.0,30.0,7.298
83.0,23.0,7.299
53.0,16.0,7.3
23.0,20.0,7.301
10.0,35.0,7.302
1.0,48.0,7.303
-25.0,54.0,7.304
-64.0,50.0,7.305
-67.0,27.0,7.306
-14.0,-23.0,7.307
59.0,-88.0,7.308
81.0,-146.0,7.309
46.0,-168.0,7.31
5.0,-146.0,7.311
-5.0,-96.0,7.312
-9.0,-45.0,7.313
-31.0,-6.0,7.314
-59.0,19.0,7.315
-64.0,32.0,7.316
-44.0,32.0,7.317
-17.0,21.0,7.318
-1.0,17.0,7.319
6.0,22.0,7.32
7.0,19.0,7.321
8.0,15.0,7.322
9.0,25.0,7.323
9.0,47.0,7.324
9.0,59.0,7.325
18.0,44.0,7.326
35.0,18.0,7.327
43.0,6.0,7.328
30.0,4.0,7.329
20.0,0.0,7.33
34.0,-7.0,7.331
56.0,-10.0,7.332
51.0,-10.0,7.333
10.0,-8.0,7.334
-42.0,-1.0,7.335
-71.0,13.0,7.336
-68.0,32.0,7.337
-50.0,40.0,7.338
-39.0,39.0,7.339
-49.0,32.0,7.34
-60.0,26.0,7.341
-44.0,27.0,7.342
4.0,22.0,7.343
49.0,2.0,7.344
57.0,-25.0,7.345
40.0,-45.0,7.346
37.0,-55.0,7.347
50.0,-63.0,7.348
53.0,-69.0,7.349
27.0,-67.0,7.35
-11.0,-51.0,7.351
-33.0,-23.0,7.352
-36.0,9.0,7.353
-36.0,31.0,7.354
-51.0,29.0,7.355
-79.0,9.0,7.356
-99.0,-3.0,7.357
-88.0,-2.0,7.358
-32.0,3.0,7.359
55.0,4.0,7.36
138.0,9.0,7.361
175.0,29.0,7.362
154.0,40.0,7.363
94.0,28.0,7.364
45.0,7.0,7.365
29.0,0.0,7.366
24.0,6.0,7.367
9.0,5.0,7.368
-12.0,1.0,7.369
-17.0,8.0,7.37
-9.0,18.0,7.371
-11.0,9.0,7.372
-24.0,-11.0,7.373
-34.0,-23.0,7.374
-43.0,-23.0,7.375
-55.0,-23.0,7.376
-55.0,-25.0,7.377
-33.0,-23.0,7.378
-2.0,-12.0,7.379
5.0,-7.0,7.38
-12.0,-6.0,7.381
-26.0,3.0,7.382
-18.0,19.0,7.383
5.0,32.0,7.384
21.0,40.0,7.385
17.0,46.0,7.386
-1.0,43.0,7.387
-7.0,23.0,7.388
13.0,-5.0,7.389
28.0,-29.0,7.39
0.0,-49.0,7.391
-51.0,-69.0,7.392
-60.0,-77.0,7.393
-4.0,-60.0,7.394
73.0,-28.0,7.395
115.0,-7.0,7.396
117.0,1.0,7.397
89.0,15.0,7.398
48.0,46.0,7.399
5.0,84.0,7.4
-21.0,110.0,7.401
-25.0,120.0,7.402
-16.0,108.0,7.403
-9.0,60.0,7.404
-14.0,-24.0,7.405
-22.0,-112.0,7.406
-25.0,-161.0,7.407
-19.0,-152.0,7.408
-18.0,-99.0,7.409
-20.0,-38.0,7.41
-12.0,5.0,7.411
0.0,26.0,7.412
-2.0,25.0,7.413
-32.0,7.0,7.414
-62.0,-12.0,7.415
-60.0,-20.0,7.416
-32.0,-13.0,7.417
0.0,-2.0,7.418
26.0,12.0,7.419
38.0,26.0,7.42
24.0,35.0,7.421
-11.0,41.0,7.422
-30.0,32.0,7.423
-4.0,25.0,7.424
44.0,28.0,7.425
63.0,27.0,7.426
46.0,13.0,7.427
20.0,0.0,7.428
7.0,-5.0,7.429
3.0,-10.0,7.43
2.0,-10.0,7.431
3.0,-10.0,7.432
-1.0,-15.0,7.433
-15.0,-17.0,7.434
-31.0,-9.0,7.435
-41.0,-2.0,7.436
-40.0,-2.0,7.437
-33.0,-3.0,7.438
-10.0,-5.0,7.439
26.0,0.0,7.44
62.0,9.0,7.441
79.0,15.0,7.442
74.0,9.0,7.443
54.0,-8.0,7.444
27.0,-19.0,7.445
5.0,-14.0,7.446
-9.0,-4.0,7.447
-10.0,-2.0,7.448
-3.0,-12.0,7.449
