Deltoid,Bicep,Time
10,-1,0.0
15,2,0.001
10,7,0.002
3,6,0.003
5,0,0.004
9,-1,0.005
7,2,0.006
3,4,0.007
0,0,0.008
-1,-3,0.009
0,-1,0.01
2,0,0.011
0,-3,0.012
0,-2,0.013
0,-1,0.014
3,-1,0.015
3,-5,0.016
1,-8,0.017
-1,-6,0.018
4,-3,0.019
12,-4,0.02
10,-1,0.021
1,5,0.022
-4,8,0.023
-2,5,0.024
0,1,0.025
0,3,0.026
-1,3,0.027
0,0,0.028
0,-2,0.029
-3,2,0.03
-7,6,0.031
-4,2,0.032
-1,-2,0.033
1,-2,0.034
2,1,0.035
2,0,0.036
3,-6,0.037
7,-6,0.038
16,-3,0.039
23,-2,0.04
19,-1,0.041
10,0,0.042
4,0,0.043
4,-3,0.044
1,-6,0.045
-5,-3,0.046
-10,0,0.047
-7,0,0.048
-5,2,0.049
-5,6,0.05
-2,5,0.051
3,0,0.052
6,-2,0.053
5,1,0.054
3,3,0.055
0,0,0.056
-8,-6,0.057
-11,-4,0.058
-3,2,0.059
9,9,0.06
11,24,0.061
3,40,0.062
0,45,0.063
8,29,0.064
13,6,0.065
7,-6,0.066
0,-11,0.067
-1,-20,0.068
0,-31,0.069
0,-33,0.07
3,-34,0.071
7,-42,0.072
9,-52,0.073
3,-54,0.074
-2,-44,0.075
-4,-30,0.076
-6,-23,0.077
-6,-11,0.078
1,6,0.079
8,26,0.08
8,45,0.081
4,63,0.082
4,79,0.083
7,86,0.084
7,70,0.085
3,32,0.086
2,-15,0.087
3,-51,0.088
0,-69,0.089
-3,-72,0.09
0,-61,0.091
5,-39,0.092
10,-15,0.093
7,0,0.094
8,10,0.095
6,26,0.096
0,50,0.097
-4,64,0.098
0,50,0.099
9,21,0.1
11,-1,0.101
5,-11,0.102
3,-26,0.103
5,-40,0.104
5,-40,0.105
3,-19,0.106
3,6,0.107
8,23,0.108
8,21,0.109
3,6,0.11
0,-16,0.111
0,-35,0.112
2,-42,0.113
1,-42,0.114
-3,-31,0.115
-11,-6,0.116
-14,14,0.117
-10,21,0.118
-1,12,0.119
6,9,0.12
6,19,0.121
1,29,0.122
-1,22,0.123
2,12,0.124
6,11,0.125
8,13,0.126
6,7,0.127
4,0,0.128
3,4,0.129
3,9,0.13
4,7,0.131
5,3,0.132
4,6,0.133
1,10,0.134
0,10,0.135
-4,6,0.136
-6,4,0.137
-4,8,0.138
3,9,0.139
13,11,0.14
15,19,0.141
12,36,0.142
8,46,0.143
8,36,0.144
7,-1,0.145
3,-49,0.146
1,-86,0.147
2,-101,0.148
2,-98,0.149
1,-80,0.15
0,-48,0.151
0,-14,0.152
2,5,0.153
2,7,0.154
1,5,0.155
-3,12,0.156
-8,18,0.157
-8,17,0.158
-1,15,0.159
7,19,0.16
4,25,0.161
0,24,0.162
0,17,0.163
4,12,0.164
6,10,0.165
2,6,0.166
-1,3,0.167
-2,3,0.168
-3,6,0.169
-4,7,0.17
-1,4,0.171
4,1,0.172
7,0,0.173
5,-2,0.174
3,-1,0.175
3,0,0.176
2,-1,0.177
3,1,0.178
10,3,0.179
18,3,0.18
16,0,0.181
8,0,0.182
2,0,0.183
4,1,0.184
5,-1,0.185
3,-4,0.186
0,-7,0.187
0,-5,0.188
-1,-4,0.189
-3,-4,0.19
-3,-4,0.191
-1,-4,0.192
1,-1,0.193
0,-1,0.194
-2,-5,0.195
-6,-6,0.196
-10,-9,0.197
-11,-5,0.198
-4,0,0.199
5,2,0.2
10,3,0.201
5,2,0.202
0,2,0.203
0,1,0.204
3,2,0.205
3,3,0.206
4,4,0.207
6,10,0.208
8,24,0.209
7,39,0.21
7,44,0.211
8,30,0.212
9,1,0.213
9,-32,0.214
8,-59,0.215
6,-71,0.216
3,-68,0.217
1,-48,0.218
4,-19,0.219
8,0,0.22
5,3,0.221
-1,2,0.222
-2,8,0.223
1,17,0.224
2,15,0.225
0,10,0.226
0,11,0.227
2,12,0.228
0,8,0.229
-4,4,0.23
-3,6,0.231
4,10,0.232
10,10,0.233
5,2,0.234
0,0,0.235
-4,1,0.236
-6,0,0.237
-3,-2,0.238
3,1,0.239
9,6,0.24
6,4,0.241
0,3,0.242
-1,3,0.243
3,4,0.244
5,1,0.245
3,-2,0.246
2,-2,0.247
3,0,0.248
3,-2,0.249
1,-6,0.25
1,-5,0.251
2,-4,0.252
0,-1,0.253
-2,-1,0.254
-1,0,0.255
0,-1,0.256
-1,-8,0.257
-1,-9,0.258
7,-5,0.259
15,-2,0.26
13,0,0.261
7,0,0.262
8,1,0.263
12,1,0.264
11,0,0.265
4,1,0.266
1,3,0.267
1,3,0.268
2,5,0.269
-1,11,0.27
-2,16,0.271
-1,10,0.272
1,0,0.273
-3,-11,0.274
-3,-15,0.275
-6,-13,0.276
-7,-11,0.277
-7,-6,0.278
0,1,0.279
10,8,0.28
12,12,0.281
5,12,0.282
0,5,0.283
3,-4,0.284
6,-12,0.285
5,-13,0.286
1,-12,0.287
1,-15,0.288
3,-20,0.289
2,-22,0.29
1,-18,0.291
2,-13,0.292
2,-9,0.293
2,-6,0.294
2,-2,0.295
1,3,0.296
-2,7,0.297
-3,11,0.298
1,13,0.299
9,13,0.3
9,13,0.301
5,14,0.302
3,11,0.303
7,5,0.304
9,-1,0.305
5,-4,0.306
1,-3,0.307
2,-5,0.308
5,-3,0.309
7,1,0.31
5,5,0.311
3,3,0.312
4,1,0.313
2,-1,0.314
0,0,0.315
-4,-2,0.316
-6,-6,0.317
-6,-4,0.318
0,-2,0.319
6,2,0.32
6,4,0.321
1,6,0.322
-1,4,0.323
0,-1,0.324
0,-3,0.325
-2,-2,0.326
-3,0,0.327
-3,-1,0.328
-3,-3,0.329
-4,-3,0.33
-3,-1,0.331
-1,-1,0.332
-1,-2,0.333
0,-5,0.334
1,-7,0.335
0,-4,0.336
-4,-5,0.337
-5,-5,0.338
2,-7,0.339
11,-4,0.34
11,3,0.341
2,6,0.342
0,6,0.343
4,3,0.344
5,3,0.345
2,3,0.346
2,1,0.347
6,-1,0.348
5,1,0.349
3,3,0.35
4,2,0.351
7,-1,0.352
8,-1,0.353
4,1,0.354
2,0,0.355
2,-2,0.356
2,-6,0.357
4,-4,0.358
10,0,0.359
15,2,0.36
14,3,0.361
6,8,0.362
2,14,0.363
5,28,0.364
9,42,0.365
9,43,0.366
4,21,0.367
2,-13,0.368
3,-41,0.369
2,-54,0.37
0,-59,0.371
-2,-55,0.372
0,-34,0.373
0,-5,0.374
-1,11,0.375
-2,4,0.376
-3,-9,0.377
0,-7,0.378
6,7,0.379
15,25,0.38
16,40,0.381
7,57,0.382
-1,56,0.383
-4,29,0.384
-3,-9,0.385
-1,-34,0.386
0,-45,0.387
2,-51,0.388
4,-49,0.389
5,-30,0.39
3,-6,0.391
0,2,0.392
-3,-4,0.393
-4,-6,0.394
-2,7,0.395
-4,16,0.396
-10,9,0.397
-12,-1,0.398
-4,2,0.399
3,9,0.4
1,4,0.401
-4,-7,0.402
-4,-7,0.403
2,-2,0.404
9,4,0.405
12,9,0.406
14,13,0.407
13,13,0.408
4,8,0.409
-1,0,0.41
4,-2,0.411
14,-4,0.412
16,-6,0.413
7,-6,0.414
-1,-5,0.415
-4,-5,0.416
-6,-8,0.417
-5,-5,0.418
-2,2,0.419
5,7,0.42
7,6,0.421
0,6,0.422
-7,4,0.423
-6,1,0.424
-1,-1,0.425
0,3,0.426
-1,4,0.427
-1,0,0.428
0,-1,0.429
0,1,0.43
1,4,0.431
5,3,0.432
11,2,0.433
14,3,0.434
12,1,0.435
7,-2,0.436
0,-6,0.437
-3,-3,0.438
0,1,0.439
6,2,0.44
7,3,0.441
2,7,0.442
0,8,0.443
4,4,0.444
9,0,0.445
7,-2,0.446
4,-2,0.447
6,-4,0.448
10,-3,0.449
9,-2,0.45
5,-3,0.451
1,-5,0.452
-1,-3,0.453
-4,0,0.454
-7,0,0.455
-8,-3,0.456
-6,-7,0.457
-2,-6,0.458
4,-4,0.459
9,-1,0.46
2,3,0.461
-9,4,0.462
-14,0,0.463
-8,-4,0.464
-3,0,0.465
-3,5,0.466
0,5,0.467
6,1,0.468
10,2,0.469
8,8,0.47
3,20,0.471
-2,36,0.472
-11,49,0.473
-23,40,0.474
-36,6,0.475
-39,-35,0.476
-26,-67,0.477
-3,-75,0.478
23,-67,0.479
48,-46,0.48
66,-14,0.481
75,13,0.482
70,18,0.483
55,8,0.484
33,3,0.485
12,11,0.486
0,14,0.487
-3,10,0.488
-2,10,0.489
-5,25,0.49
-10,38,0.491
-9,30,0.492
-4,4,0.493
-5,-30,0.494
-12,-58,0.495
-21,-72,0.496
-21,-72,0.497
-17,-54,0.498
-11,-21,0.499
-4,7,0.5
-2,21,0.501
-5,21,0.502
-8,17,0.503
-6,19,0.504
-2,21,0.505
-2,20,0.506
-5,20,0.507
-4,21,0.508
-3,20,0.509
-3,17,0.51
-4,13,0.511
-2,10,0.512
0,11,0.513
-1,10,0.514
-4,8,0.515
-4,3,0.516
-2,-5,0.517
1,-6,0.518
5,-1,0.519
9,2,0.52
13,0,0.521
12,-6,0.522
9,-7,0.523
9,-7,0.524
8,-9,0.525
2,-9,0.526
-2,-5,0.527
-3,-3,0.528
-2,-5,0.529
-3,-5,0.53
-4,-2,0.531
0,1,0.532
9,2,0.533
13,0,0.534
13,0,0.535
14,0,0.536
22,-2,0.537
28,0,0.538
29,0,0.539
28,0,0.54
20,-1,0.541
13,2,0.542
7,8,0.543
3,9,0.544
3,6,0.545
1,5,0.546
-3,4,0.547
-6,1,0.548
-4,-2,0.549
-3,1,0.55
-4,6,0.551
-5,3,0.552
-3,-4,0.553
-2,-9,0.554
-5,-9,0.555
-8,-10,0.556
-9,-16,0.557
-9,-19,0.558
-6,-13,0.559
0,-8,0.56
3,-5,0.561
1,-3,0.562
-3,-1,0.563
-3,0,0.564
0,2,0.565
2,5,0.566
3,5,0.567
7,5,0.568
9,3,0.569
3,2,0.57
-4,2,0.571
-6,2,0.572
-1,0,0.573
3,-2,0.574
3,-1,0.575
-2,1,0.576
-4,0,0.577
-4,0,0.578
1,0,0.579
9,0,0.58
11,0,0.581
5,0,0.582
3,-2,0.583
7,-3,0.584
8,0,0.585
4,4,0.586
0,6,0.587
0,2,0.588
0,-1,0.589
0,-2,0.59
0,1,0.591
2,5,0.592
4,10,0.593
1,18,0.594
0,31,0.595
-1,45,0.596
-3,47,0.597
-4,25,0.598
1,-12,0.599
12,-46,0.6
14,-62,0.601
8,-63,0.602
8,-57,0.603
15,-38,0.604
17,-5,0.605
8,23,0.606
3,30,0.607
8,13,0.608
11,-7,0.609
6,-23,0.61
2,-38,0.611
5,-48,0.612
7,-44,0.613
2,-26,0.614
-3,-3,0.615
-4,12,0.616
-5,14,0.617
-7,14,0.618
-1,16,0.619
7,23,0.62
7,30,0.621
-2,29,0.622
-5,24,0.623
1,19,0.624
7,18,0.625
2,19,0.626
-3,16,0.627
0,12,0.628
5,9,0.629
5,12,0.63
2,11,0.631
0,5,0.632
1,1,0.633
2,0,0.634
2,3,0.635
1,3,0.636
0,-3,0.637
-2,-8,0.638
2,-9,0.639
7,-9,0.64
8,-13,0.641
2,-16,0.642
0,-17,0.643
3,-19,0.644
7,-17,0.645
2,-12,0.646
-1,-7,0.647
2,-4,0.648
6,-3,0.649
5,-1,0.65
0,3,0.651
-2,4,0.652
-2,3,0.653
-5,3,0.654
-12,6,0.655
-18,5,0.656
-21,0,0.657
-18,-2,0.658
-8,4,0.659
8,9,0.66
21,7,0.661
22,2,0.662
18,0,0.663
16,2,0.664
17,0,0.665
17,-2,0.666
15,-3,0.667
11,0,0.668
7,0,0.669
2,-1,0.67
-1,0,0.671
0,0,0.672
1,0,0.673
0,-3,0.674
-2,-3,0.675
-4,-2,0.676
-5,-6,0.677
-5,-7,0.678
-3,-5,0.679
3,-1,0.68
6,3,0.681
5,2,0.682
3,0,0.683
5,-2,0.684
7,-3,0.685
6,-4,0.686
3,-3,0.687
4,-2,0.688
8,0,0.689
7,1,0.69
3,0,0.691
1,-2,0.692
3,-1,0.693
2,0,0.694
-2,2,0.695
-7,0,0.696
-11,-5,0.697
-8,-6,0.698
-2,-5,0.699
5,-3,0.7
8,-1,0.701
4,2,0.702
-1,4,0.703
-1,4,0.704
2,1,0.705
2,0,0.706
1,0,0.707
2,1,0.708
5,2,0.709
3,2,0.71
0,2,0.711
0,3,0.712
4,4,0.713
3,3,0.714
1,-1,0.715
-2,-7,0.716
-3,-10,0.717
-6,-5,0.718
-4,-1,0.719
2,0,0.72
6,-1,0.721
1,0,0.722
-2,1,0.723
0,0,0.724
3,-4,0.725
0,-6,0.726
-1,-5,0.727
3,-4,0.728
8,-4,0.729
7,-2,0.73
6,2,0.731
9,2,0.732
11,0,0.733
5,-2,0.734
0,-3,0.735
-1,-1,0.736
-1,-5,0.737
-3,-7,0.738
0,-4,0.739
8,1,0.74
12,5,0.741
6,5,0.742
3,1,0.743
6,-1,0.744
8,-1,0.745
5,0,0.746
0,-3,0.747
2,-5,0.748
7,-3,0.749
6,3,0.75
5,6,0.751
4,4,0.752
5,2,0.753
2,3,0.754
-2,6,0.755
-5,9,0.756
-6,8,0.757
-8,7,0.758
-4,4,0.759
4,0,0.76
10,-2,0.761
5,-6,0.762
-2,-12,0.763
-2,-18,0.764
1,-17,0.765
2,-10,0.766
1,-4,0.767
2,-4,0.768
6,-5,0.769
5,-4,0.77
4,-1,0.771
3,-1,0.772
5,-1,0.773
3,0,0.774
1,5,0.775
-1,7,0.776
-4,4,0.777
-4,1,0.778
1,0,0.779
8,-1,0.78
6,-2,0.781
3,-4,0.782
2,-3,0.783
5,-4,0.784
8,-2,0.785
7,0,0.786
5,-1,0.787
2,-1,0.788
0,0,0.789
-3,2,0.79
1,2,0.791
8,1,0.792
11,1,0.793
5,1,0.794
-1,1,0.795
-4,3,0.796
-6,2,0.797
-8,4,0.798
-4,4,0.799
4,2,0.8
7,0,0.801
3,1,0.802
0,1,0.803
1,-3,0.804
3,-5,0.805
1,-1,0.806
-2,0,0.807
0,-4,0.808
1,-8,0.809
0,-6,0.81
-1,-1,0.811
1,1,0.812
7,2,0.813
8,1,0.814
1,1,0.815
-4,0,0.816
-5,-5,0.817
-4,-6,0.818
0,-3,0.819
7,-1,0.82
11,2,0.821
7,4,0.822
5,0,0.823
5,-4,0.824
6,-4,0.825
3,-1,0.826
1,0,0.827
4,0,0.828
7,0,0.829
4,3,0.83
2,1,0.831
5,-3,0.832
9,-4,0.833
3,-2,0.834
-3,-1,0.835
-5,-1,0.836
-3,-4,0.837
0,-5,0.838
4,-5,0.839
7,-1,0.84
7,4,0.841
1,6,0.842
-1,2,0.843
1,-2,0.844
4,-1,0.845
1,3,0.846
-1,5,0.847
1,3,0.848
5,0,0.849
3,-1,0.85
1,-3,0.851
0,-3,0.852
4,-1,0.853
3,-1,0.854
-2,-4,0.855
-9,-6,0.856
-12,-7,0.857
-9,-7,0.858
-1,-6,0.859
7,-4,0.86
10,-1,0.861
10,2,0.862
12,3,0.863
15,2,0.864
15,1,0.865
10,1,0.866
5,0,0.867
6,-2,0.868
7,-2,0.869
6,-1,0.87
2,0,0.871
0,-1,0.872
0,1,0.873
-2,0,0.874
-3,0,0.875
-4,-1,0.876
-7,-5,0.877
-8,-5,0.878
-3,-2,0.879
5,-2,0.88
7,-2,0.881
1,0,0.882
0,5,0.883
4,2,0.884
9,-2,0.885
4,-3,0.886
0,1,0.887
1,2,0.888
4,0,0.889
1,0,0.89
-1,3,0.891
3,4,0.892
9,2,0.893
7,-1,0.894
0,-3,0.895
-4,-3,0.896
-3,-6,0.897
-1,-6,0.898
1,-3,0.899
6,-3,0.9
8,-3,0.901
1,-1,0.902
-3,0,0.903
0,-2,0.904
7,-3,0.905
7,0,0.906
3,3,0.907
2,0,0.908
5,-1,0.909
5,3,0.91
3,5,0.911
2,2,0.912
3,-1,0.913
1,-1,0.914
-2,1,0.915
-4,-2,0.916
-4,-8,0.917
-3,-7,0.918
0,-3,0.919
6,-1,0.92
8,0,0.921
2,3,0.922
-1,3,0.923
3,0,0.924
9,0,0.925
7,1,0.926
3,2,0.927
6,0,0.928
8,2,0.929
3,6,0.93
-2,5,0.931
-3,0,0.932
1,0,0.933
2,0,0.934
2,0,0.935
1,-3,0.936
0,-6,0.937
0,-5,0.938
3,-5,0.939
9,-3,0.94
9,0,0.941
0,2,0.942
-5,0,0.943
-4,-3,0.944
-5,0,0.945
-10,3,0.946
-15,0,0.947
-15,-5,0.948
-17,-5,0.949
-25,0,0.95
-36,2,0.951
-34,1,0.952
-20,2,0.953
0,0,0.954
21,-4,0.955
35,-7,0.956
44,-10,0.957
51,-9,0.958
51,-8,0.959
43,-1,0.96
27,9,0.961
10,16,0.962
-12,14,0.963
-58,10,0.964
-130,14,0.965
-189,23,0.966
-190,27,0.967
-134,20,0.968
-76,8,0.969
-52,-4,0.97
-49,-12,0.971
-42,-21,0.972
-36,-25,0.973
-76,-26,0.974
-170,-21,0.975
-258,0,0.976
-220,37,0.977
3,76,0.978
323,95,0.979
561,90,0.98
624,69,0.981
576,41,0.982
500,16,0.983
351,6,0.984
35,6,0.985
-364,-2,0.986
-565,-3,0.987
-366,68,0.988
96,213,0.989
485,296,0.99
600,180,0.991
480,-75,0.992
251,-270,0.993
-69,-357,0.994
-381,-418,0.995
-532,-502,0.996
-494,-508,0.997
-421,-374,0.998
-416,-211,0.999
-377,-106,1.0
-192,31,1.001
50,277,1.002
192,488,1.003
226,474,1.004
246,296,1.005
309,167,1.006
430,134,1.007
596,62,1.008
704,-102,1.009
639,-236,1.01
455,-248,1.011
318,-205,1.012
227,-192,1.013
-26,-198,1.014
-453,-168,1.015
-775,-104,1.016
-768,-49,1.017
-555,-8,1.018
-348,30,1.019
-165,61,1.02
16,77,1.021
55,85,1.022
-131,90,1.023
-335,94,1.024
-315,111,1.025
-153,140,1.026
-96,158,1.027
-166,139,1.028
-169,95,1.029
-43,65,1.03
75,55,1.031
106,54,1.032
108,59,1.033
134,80,1.034
161,105,1.035
165,106,1.036
159,74,1.037
131,43,1.038
64,27,1.039
1,17,1.04
-10,7,1.041
-6,-1,1.042
-47,-11,1.043
-113,-26,1.044
-134,-37,1.045
-93,-34,1.046
-34,-21,1.047
18,-18,1.048
64,-27,1.049
95,-33,1.05
103,-28,1.051
86,-24,1.052
52,-26,1.053
7,-32,1.054
-20,-33,1.055
-16,-32,1.056
-1,-31,1.057
-6,-30,1.058
-19,-31,1.059
-8,-30,1.06
12,-29,1.061
9,-25,1.062
-7,-22,1.063
-6,-22,1.064
7,-20,1.065
7,-15,1.066
0,-10,1.067
6,-9,1.068
16,-8,1.069
14,-6,1.07
8,-7,1.071
14,-11,1.072
25,-13,1.073
22,-10,1.074
15,-8,1.075
14,-8,1.076
14,-12,1.077
8,-11,1.078
9,-7,1.079
18,-2,1.08
24,1,1.081
18,5,1.082
10,8,1.083
13,7,1.084
20,5,1.085
18,6,1.086
16,8,1.087
18,7,1.088
18,5,1.089
12,5,1.09
6,4,1.091
7,0,1.092
7,-1,1.093
1,-2,1.094
0,1,1.095
-1,2,1.096
-1,-2,1.097
0,-3,1.098
8,-1,1.099
14,0,1.1
12,1,1.101
8,2,1.102
1,3,1.103
-4,-1,1.104
0,-5,1.105
4,0,1.106
2,7,1.107
1,8,1.108
2,1,1.109
2,-3,1.11
0,-5,1.111
-1,-4,1.112
-1,-2,1.113
-1,5,1.114
-1,1,1.115
-5,-4,1.116
-7,-9,1.117
-3,-11,1.118
4,-2,1.119
12,1,1.12
10,0,1.121
3,-1,1.122
0,2,1.123
0,5,1.124
1,2,1.125
2,0,1.126
2,0,1.127
2,-1,1.128
0,-2,1.129
-2,-4,1.13
-2,-1,1.131
0,0,1.132
3,-1,1.133
0,4,1.134
-3,1,1.135
-4,-3,1.136
-4,-7,1.137
-5,-8,1.138
-4,-2,1.139
1,1,1.14
6,0,1.141
4,-1,1.142
0,2,1.143
0,4,1.144
5,2,1.145
7,0,1.146
6,0,1.147
5,-1,1.148
3,-2,1.149
-2,-3,1.15
-4,-1,1.151
-1,0,1.152
4,-1,1.153
3,-3,1.154
-2,-6,1.155
-4,-6,1.156
-1,-4,1.157
4,-1,1.158
5,-2,1.159
4,-2,1.16
5,0,1.161
7,3,1.162
7,1,1.163
8,-2,1.164
10,-1,1.165
11,1,1.166
10,1,1.167
7,-4,1.168
4,-7,1.169
1,-2,1.17
-1,2,1.171
-1,2,1.172
0,2,1.173
-2,0,1.174
-4,-2,1.175
-7,-4,1.176
-10,-5,1.177
-10,-1,1.178
-6,1,1.179
0,1,1.18
-1,1,1.181
-3,3,1.182
-2,2,1.183
2,-1,1.184
7,-2,1.185
8,1,1.186
9,3,1.187
9,1,1.188
4,0,1.189
-1,0,1.19
2,1,1.191
12,1,1.192
20,1,1.193
21,1,1.194
20,-1,1.195
18,-2,1.196
12,-5,1.197
2,-3,1.198
0,-2,1.199
5,-2,1.2
7,0,1.201
1,1,1.202
-2,0,1.203
-3,-3,1.204
-3,-2,1.205
-6,1,1.206
-10,1,1.207
-6,-2,1.208
-2,-2,1.209
-2,1,1.21
-4,4,1.211
-5,2,1.212
0,0,1.213
1,-4,1.214
1,-4,1.215
-4,-5,1.216
-9,-6,1.217
-8,-7,1.218
-1,-5,1.219
3,-3,1.22
2,0,1.221
-2,2,1.222
0,0,1.223
1,-1,1.224
-2,-2,1.225
-3,-3,1.226
-2,-3,1.227
-3,-4,1.228
-10,-2,1.229
-16,-1,1.23
-18,-1,1.231
-25,0,1.232
-38,2,1.233
-50,5,1.234
-46,2,1.235
-32,-1,1.236
-20,-3,1.237
-4,-3,1.238
31,-4,1.239
84,-3,1.24
130,1,1.241
145,7,1.242
126,5,1.243
82,0,1.244
25,-2,1.245
-14,0,1.246
-15,-1,1.247
11,-6,1.248
28,-9,1.249
22,-5,1.25
10,-2,1.251
0,-5,1.252
-6,-6,1.253
-15,-7,1.254
-17,-4,1.255
-20,-3,1.256
-27,-5,1.257
-35,0,1.258
-29,11,1.259
-18,17,1.26
-16,14,1.261
-22,9,1.262
-24,4,1.263
-20,0,1.264
-23,-2,1.265
-33,-2,1.266
-43,-4,1.267
-44,-7,1.268
-35,-9,1.269
-21,-8,1.27
-5,-7,1.271
4,-6,1.272
11,-2,1.273
17,2,1.274
26,2,1.275
30,-3,1.276
28,-8,1.277
30,-6,1.278
38,-1,1.279
41,0,1.28
34,0,1.281
23,1,1.282
15,3,1.283
8,4,1.284
1,4,1.285
-1,2,1.286
-5,0,1.287
-9,0,1.288
-11,4,1.289
-8,7,1.29
-5,4,1.291
-7,-3,1.292
-9,-5,1.293
-10,-2,1.294
-14,1,1.295
-29,1,1.296
-45,-3,1.297
-51,-6,1.298
-44,-6,1.299
-43,-4,1.3
-68,4,1.301
-126,8,1.302
-196,4,1.303
-225,-2,1.304
-176,-2,1.305
-83,2,1.306
-16,3,1.307
24,-1,1.308
118,-3,1.309
292,0,1.31
443,2,1.311
450,0,1.312
354,-1,1.313
269,-4,1.314
265,-4,1.315
272,-5,1.316
200,-9,1.317
60,-9,1.318
-63,-8,1.319
-116,-6,1.32
-115,-5,1.321
-108,-3,1.322
-120,-1,1.323
-133,-2,1.324
-122,-1,1.325
-100,2,1.326
-92,7,1.327
-99,5,1.328
-98,-1,1.329
-84,-6,1.33
-74,-5,1.331
-75,0,1.332
-69,4,1.333
-56,3,1.334
-46,4,1.335
-49,10,1.336
-47,16,1.337
-36,22,1.338
-26,21,1.339
-24,10,1.34
-20,-1,1.341
-13,-5,1.342
-8,-3,1.343
-4,-2,1.344
0,-6,1.345
3,-4,1.346
3,0,1.347
6,2,1.348
13,-5,1.349
17,-11,1.35
14,-10,1.351
11,-8,1.352
15,-5,1.353
19,-5,1.354
18,-3,1.355
13,-1,1.356
10,-8,1.357
14,-14,1.358
19,-13,1.359
24,-6,1.36
23,-1,1.361
20,-1,1.362
17,-3,1.363
19,-4,1.364
20,-4,1.365
18,-1,1.366
13,-1,1.367
15,-3,1.368
17,-5,1.369
16,-2,1.37
12,4,1.371
12,4,1.372
13,-1,1.373
13,-7,1.374
11,-4,1.375
6,0,1.376
4,-2,1.377
2,-4,1.378
2,-3,1.379
4,1,1.38
7,2,1.381
5,2,1.382
1,3,1.383
1,4,1.384
3,3,1.385
3,0,1.386
2,0,1.387
1,1,1.388
1,2,1.389
3,2,1.39
5,0,1.391
2,-1,1.392
-1,0,1.393
-3,0,1.394
0,1,1.395
2,-1,1.396
2,-6,1.397
2,-6,1.398
8,-1,1.399
13,3,1.4
9,5,1.401
5,3,1.402
2,0,1.403
-1,0,1.404
0,1,1.405
2,4,1.406
1,6,1.407
0,4,1.408
4,3,1.409
6,3,1.41
2,4,1.411
-2,3,1.412
-3,3,1.413
-3,0,1.414
0,0,1.415
-1,-1,1.416
-5,-5,1.417
-7,-8,1.418
-2,-5,1.419
3,-2,1.42
2,0,1.421
-3,1,1.422
-4,-1,1.423
0,-4,1.424
2,-3,1.425
0,-2,1.426
0,0,1.427
0,0,1.428
1,-1,1.429
1,-2,1.43
1,1,1.431
1,4,1.432
0,2,1.433
-2,0,1.434
-3,-3,1.435
-5,-2,1.436
-7,-5,1.437
-7,-6,1.438
-1,-5,1.439
9,-1,1.44
13,3,1.441
9,5,1.442
5,2,1.443
3,-1,1.444
0,-2,1.445
-3,-1,1.446
-4,1,1.447
-1,2,1.448
2,0,1.449
2,-2,1.45
1,-1,1.451
1,0,1.452
3,0,1.453
2,0,1.454
2,0,1.455
1,-1,1.456
-1,-4,1.457
-1,-4,1.458
3,0,1.459
12,3,1.46
14,2,1.461
9,2,1.462
2,2,1.463
3,4,1.464
7,4,1.465
7,3,1.466
5,0,1.467
4,-3,1.468
7,-4,1.469
9,-2,1.47
7,-1,1.471
7,-1,1.472
8,-2,1.473
5,-3,1.474
2,-2,1.475
-3,-2,1.476
-5,-5,1.477
-3,-5,1.478
0,-3,1.479
4,-2,1.48
5,0,1.481
4,3,1.482
2,1,1.483
4,-2,1.484
7,-3,1.485
5,0,1.486
0,5,1.487
-3,2,1.488
-4,-2,1.489
-2,-3,1.49
0,-1,1.491
0,-1,1.492
3,-2,1.493
8,-3,1.494
14,-1,1.495
14,-1,1.496
9,-6,1.497
10,-8,1.498
16,-6,1.499
20,-2,1.5
15,3,1.501
7,6,1.502
3,4,1.503
7,0,1.504
8,-1,1.505
3,1,1.506
0,1,1.507
-1,-1,1.508
-1,-1,1.509
-3,2,1.51
-5,2,1.511
-4,-2,1.512
-1,-2,1.513
-2,-1,1.514
-4,-2,1.515
-7,-5,1.516
-7,-8,1.517
-5,-6,1.518
0,-5,1.519
4,-6,1.52
8,-2,1.521
7,4,1.522
3,4,1.523
3,0,1.524
5,-4,1.525
7,1,1.526
4,3,1.527
2,-1,1.528
4,-3,1.529
4,-1,1.53
2,2,1.531
2,1,1.532
3,1,1.533
2,-1,1.534
-3,-1,1.535
-7,0,1.536
-7,0,1.537
-2,0,1.538
8,-1,1.539
16,-2,1.54
19,2,1.541
15,6,1.542
11,3,1.543
11,-3,1.544
13,-4,1.545
8,0,1.546
1,1,1.547
-1,-3,1.548
2,-3,1.549
4,3,1.55
1,6,1.551
-1,1,1.552
-1,0,1.553
0,-2,1.554
-3,-1,1.555
-7,-1,1.556
-9,-5,1.557
-7,-8,1.558
-2,-6,1.559
0,-4,1.56
0,-2,1.561
-3,0,1.562
-3,0,1.563
-1,1,1.564
0,0,1.565
0,-2,1.566
0,-2,1.567
0,-2,1.568
3,-2,1.569
4,-3,1.57
3,-3,1.571
0,-2,1.572
1,-2,1.573
0,0,1.574
0,0,1.575
-4,-1,1.576
-9,-5,1.577
-12,-4,1.578
-6,-1,1.579
3,1,1.58
8,4,1.581
5,5,1.582
3,3,1.583
5,1,1.584
6,2,1.585
1,5,1.586
-1,4,1.587
3,0,1.588
8,0,1.589
8,4,1.59
6,6,1.591
7,4,1.592
11,2,1.593
10,0,1.594
6,-1,1.595
2,-5,1.596
-1,-8,1.597
-1,-8,1.598
2,-4,1.599
8,-1,1.6
8,0,1.601
2,2,1.602
-1,4,1.603
0,2,1.604
3,-1,1.605
3,-1,1.606
3,-1,1.607
6,-1,1.608
8,-1,1.609
4,0,1.61
-2,3,1.611
-1,1,1.612
3,0,1.613
7,-5,1.614
4,-6,1.615
-3,-6,1.616
-10,-7,1.617
-10,-7,1.618
-5,-7,1.619
-2,-5,1.62
-5,-3,1.621
-8,0,1.622
-4,0,1.623
4,-3,1.624
9,-3,1.625
12,-1,1.626
18,0,1.627
24,-2,1.628
24,-2,1.629
20,1,1.63
16,1,1.631
13,-2,1.632
9,-3,1.633
4,-4,1.634
0,-2,1.635
-7,-4,1.636
-16,-8,1.637
-16,-6,1.638
-8,-3,1.639
0,-1,1.64
0,-1,1.641
-2,0,1.642
1,1,1.643
10,0,1.644
16,0,1.645
14,3,1.646
9,5,1.647
6,3,1.648
2,1,1.649
-2,3,1.65
-5,3,1.651
-5,1,1.652
-3,1,1.653
-5,1,1.654
-6,1,1.655
-7,-2,1.656
-9,-6,1.657
-8,-4,1.658
-2,2,1.659
6,4,1.66
7,4,1.661
1,4,1.662
0,2,1.663
4,1,1.664
5,1,1.665
0,3,1.666
-4,2,1.667
-3,-1,1.668
-4,-2,1.669
-8,-1,1.67
-8,-1,1.671
-4,-4,1.672
-1,-3,1.673
-1,-1,1.674
2,-1,1.675
9,-3,1.676
13,-8,1.677
13,-9,1.678
14,-6,1.679
20,-2,1.68
21,2,1.681
13,1,1.682
4,-3,1.683
3,-6,1.684
5,-5,1.685
3,-4,1.686
-1,-4,1.687
0,-3,1.688
1,0,1.689
0,3,1.69
0,2,1.691
1,-1,1.692
3,-1,1.693
4,-1,1.694
2,0,1.695
-3,0,1.696
-7,-2,1.697
-6,-2,1.698
0,-2,1.699
7,-1,1.7
6,0,1.701
1,2,1.702
1,4,1.703
6,4,1.704
8,3,1.705
2,0,1.706
0,-2,1.707
3,-2,1.708
6,-1,1.709
4,0,1.71
1,1,1.711
1,2,1.712
2,3,1.713
-1,0,1.714
-2,-2,1.715
-3,-2,1.716
-3,-4,1.717
-1,-4,1.718
2,-3,1.719
6,-1,1.72
4,2,1.721
0,4,1.722
-2,2,1.723
2,0,1.724
4,-1,1.725
2,-1,1.726
0,0,1.727
2,1,1.728
4,2,1.729
5,2,1.73
5,0,1.731
6,-2,1.732
6,-2,1.733
1,0,1.734
0,1,1.735
0,0,1.736
-3,-6,1.737
-5,-6,1.738
-2,-2,1.739
6,1,1.74
9,4,1.741
5,6,1.742
2,7,1.743
3,4,1.744
5,-1,1.745
4,-3,1.746
5,-2,1.747
5,-2,1.748
3,-4,1.749
0,-4,1.75
-1,0,1.751
0,2,1.752
2,0,1.753
0,-3,1.754
-1,-3,1.755
-4,-2,1.756
-8,-6,1.757
-6,-7,1.758
4,-5,1.759
16,-2,1.76
17,0,1.761
12,3,1.762
9,5,1.763
12,4,1.764
13,1,1.765
14,1,1.766
14,2,1.767
11,1,1.768
6,-2,1.769
0,-2,1.77
-2,-2,1.771
-3,-2,1.772
-3,-1,1.773
-3,0,1.774
-5,0,1.775
-8,-3,1.776
-10,-6,1.777
-8,-4,1.778
-3,-1,1.779
1,1,1.78
1,3,1.781
-2,6,1.782
-3,3,1.783
0,-4,1.784
1,-6,1.785
0,0,1.786
0,4,1.787
2,0,1.788
3,-3,1.789
3,-1,1.79
3,1,1.791
6,-1,1.792
5,-1,1.793
0,-2,1.794
-4,-2,1.795
-8,-3,1.796
-6,-4,1.797
-4,-1,1.798
1,-2,1.799
7,-3,1.8
12,-1,1.801
16,4,1.802
15,4,1.803
14,1,1.804
14,0,1.805
12,1,1.806
8,0,1.807
5,-3,1.808
4,0,1.809
3,2,1.81
1,1,1.811
0,-3,1.812
0,-2,1.813
0,0,1.814
-1,0,1.815
-3,-3,1.816
-5,-8,1.817
-5,-7,1.818
-1,-5,1.819
7,-3,1.82
10,2,1.821
4,6,1.822
1,6,1.823
3,2,1.824
5,0,1.825
2,0,1.826
-1,0,1.827
-1,-1,1.828
4,0,1.829
5,1,1.83
5,0,1.831
1,-4,1.832
0,-4,1.833
-3,-2,1.834
-4,-2,1.835
-6,-3,1.836
-7,-5,1.837
-6,-5,1.838
-2,-3,1.839
3,0,1.84
6,2,1.841
3,3,1.842
2,0,1.843
2,-3,1.844
3,-2,1.845
2,0,1.846
3,0,1.847
6,-1,1.848
9,-1,1.849
5,0,1.85
1,1,1.851
0,2,1.852
2,3,1.853
0,3,1.854
-1,0,1.855
-4,-4,1.856
-4,-9,1.857
-3,-8,1.858
6,-7,1.859
13,-3,1.86
14,1,1.861
16,4,1.862
14,6,1.863
12,4,1.864
9,2,1.865
5,3,1.866
3,5,1.867
2,7,1.868
3,6,1.869
5,4,1.87
4,0,1.871
3,-1,1.872
2,0,1.873
0,-2,1.874
0,-2,1.875
-4,-3,1.876
-8,-4,1.877
-9,-6,1.878
-2,-6,1.879
8,-5,1.88
12,-1,1.881
4,2,1.882
0,0,1.883
6,-1,1.884
12,-3,1.885
10,-4,1.886
3,-1,1.887
1,1,1.888
4,1,1.889
3,1,1.89
0,1,1.891
1,0,1.892
4,0,1.893
2,0,1.894
0,-4,1.895
-2,-4,1.896
-4,-5,1.897
-5,-3,1.898
0,-3,1.899
9,-4,1.9
10,-1,1.901
2,2,1.902
-2,3,1.903
0,5,1.904
3,4,1.905
0,3,1.906
0,1,1.907
3,-1,1.908
7,-2,1.909
6,-2,1.91
3,-3,1.911
3,-3,1.912
5,0,1.913
3,0,1.914
0,-1,1.915
-3,-5,1.916
-7,-9,1.917
-8,-7,1.918
-2,-3,1.919
6,0,1.92
7,2,1.921
3,3,1.922
1,2,1.923
7,0,1.924
10,0,1.925
6,1,1.926
2,3,1.927
3,1,1.928
5,0,1.929
2,-1,1.93
1,0,1.931
4,0,1.932
9,0,1.933
3,0,1.934
-3,1,1.935
-8,1,1.936
-6,-2,1.937
-3,-4,1.938
2,-3,1.939
8,-2,1.94
6,-1,1.941
4,-1,1.942
0,0,1.943
-3,0,1.944
0,1,1.945
3,0,1.946
4,-1,1.947
5,-1,1.948
4,0,1.949
3,1,1.95
3,0,1.951
2,-4,1.952
2,-4,1.953
2,-4,1.954
4,-3,1.955
2,-2,1.956
-2,-5,1.957
-5,-4,1.958
0,-2,1.959
12,0,1.96
17,1,1.961
9,0,1.962
0,0,1.963
1,1,1.964
7,2,1.965
8,2,1.966
3,-1,1.967
1,-2,1.968
3,-1,1.969
3,0,1.97
3,1,1.971
2,2,1.972
1,3,1.973
-1,2,1.974
-4,-1,1.975
-7,-2,1.976
-9,-6,1.977
-9,-8,1.978
-2,-9,1.979
4,-5,1.98
8,1,1.981
7,6,1.982
7,4,1.983
9,-1,1.984
7,-2,1.985
4,0,1.986
4,1,1.987
6,0,1.988
3,0,1.989
0,0,1.99
0,1,1.991
4,1,1.992
8,1,1.993
8,0,1.994
6,-2,1.995
2,-3,1.996
-3,-5,1.997
-4,-5,1.998
1,-4,1.999
9,-1,2.0
10,3,2.001
4,3,2.002
-1,0,2.003
0,-3,2.004
2,-1,2.005
0,0,2.006
0,-2,2.007
3,-6,2.008
4,-7,2.009
2,-3,2.01
-1,0,2.011
0,0,2.012
2,1,2.013
0,0,2.014
-1,-1,2.015
-3,-3,2.016
-3,-7,2.017
-1,-6,2.018
4,-3,2.019
8,0,2.02
10,1,2.021
12,1,2.022
13,2,2.023
13,3,2.024
7,4,2.025
2,2,2.026
0,-2,2.027
0,-4,2.028
3,-2,2.029
5,2,2.03
1,4,2.031
-3,1,2.032
-10,1,2.033
-18,2,2.034
-20,2,2.035
-23,0,2.036
-22,-7,2.037
-18,-8,2.038
-7,-6,2.039
6,-3,2.04
15,0,2.041
15,0,2.042
7,-2,2.043
-4,-3,2.044
-10,2,2.045
-8,8,2.046
2,7,2.047
12,0,2.048
17,-4,2.049
17,-2,2.05
19,-1,2.051
20,-4,2.052
19,-4,2.053
13,-2,2.054
6,-2,2.055
-1,-6,2.056
-11,-13,2.057
-17,-11,2.058
-10,-7,2.059
7,0,2.06
20,5,2.061
19,6,2.062
10,2,2.063
6,0,2.064
7,1,2.065
6,3,2.066
2,4,2.067
-1,2,2.068
-1,2,2.069
-6,2,2.07
-19,0,2.071
-36,-1,2.072
-47,1,2.073
-45,3,2.074
-28,0,2.075
-6,-4,2.076
15,-6,2.077
34,-3,2.078
62,-1,2.079
95,0,2.08
103,2,2.081
72,4,2.082
21,1,2.083
-16,-2,2.084
-30,-2,2.085
-25,-1,2.086
-9,-1,2.087
10,-2,2.088
17,-5,2.089
-2,-5,2.09
-25,-4,2.091
-28,-3,2.092
-10,-1,2.093
2,-2,2.094
-4,-2,2.095
-12,-1,2.096
-22,-3,2.097
-27,-6,2.098
-10,-7,2.099
4,-4,2.1
8,3,2.101
11,6,2.102
13,5,2.103
11,2,2.104
-2,1,2.105
-13,0,2.106
-15,-4,2.107
-16,-6,2.108
-14,-4,2.109
-13,2,2.11
-14,4,2.111
-14,2,2.112
-8,0,2.113
-4,0,2.114
-4,1,2.115
-11,3,2.116
-15,-1,2.117
-6,-3,2.118
10,2,2.119
20,6,2.12
19,3,2.121
24,0,2.122
44,-3,2.123
62,-6,2.124
54,-5,2.125
22,-3,2.126
-1,-1,2.127
-1,1,2.128
7,0,2.129
11,-1,2.13
15,-1,2.131
25,-2,2.132
38,-2,2.133
42,-3,2.134
31,-6,2.135
6,-6,2.136
-21,-6,2.137
-31,-6,2.138
-22,-6,2.139
-15,-7,2.14
-30,-5,2.141
-56,-1,2.142
-63,0,2.143
-50,0,2.144
-36,2,2.145
-26,9,2.146
-11,12,2.147
6,7,2.148
12,0,2.149
10,-3,2.15
17,0,2.151
36,4,2.152
50,7,2.153
42,3,2.154
15,-1,2.155
-19,-3,2.156
-44,-5,2.157
-44,-3,2.158
-17,-1,2.159
8,-1,2.16
12,0,2.161
6,2,2.162
22,0,2.163
54,-3,2.164
78,-2,2.165
85,1,2.166
84,1,2.167
75,-2,2.168
52,-3,2.169
22,0,2.17
0,1,2.171
-16,-2,2.172
-27,-4,2.173
-26,-4,2.174
-10,0,2.175
0,0,2.176
-10,-3,2.177
-19,-6,2.178
-19,-8,2.179
-17,-5,2.18
-6,0,2.181
1,0,2.182
-2,-5,2.183
-9,-8,2.184
-27,-5,2.185
-41,2,2.186
-39,5,2.187
-34,4,2.188
-20,6,2.189
-5,7,2.19
11,5,2.191
21,1,2.192
9,0,2.193
-8,0,2.194
-36,-2,2.195
-52,-5,2.196
-50,-8,2.197
-42,-6,2.198
-29,-4,2.199
-19,-4,2.2
-3,-4,2.201
31,-3,2.202
69,-2,2.203
83,-2,2.204
66,0,2.205
38,3,2.206
19,4,2.207
6,2,2.208
-7,-2,2.209
-11,-4,2.21
-4,-2,2.211
-1,2,2.212
-5,5,2.213
-5,7,2.214
3,5,2.215
11,1,2.216
6,-3,2.217
3,-3,2.218
8,2,2.219
12,4,2.22
10,6,2.221
11,7,2.222
24,6,2.223
39,3,2.224
38,0,2.225
20,-1,2.226
0,0,2.227
-17,0,2.228
-33,0,2.229
-49,0,2.23
-55,1,2.231
-44,1,2.232
-22,1,2.233
0,-3,2.234
19,-6,2.235
28,-8,2.236
29,-7,2.237
27,-5,2.238
35,-5,2.239
49,-4,2.24
49,-2,2.241
28,2,2.242
1,3,2.243
-8,-1,2.244
-2,-3,2.245
5,-3,2.246
16,-3,2.247
34,-5,2.248
48,-6,2.249
39,-3,2.25
11,0,2.251
-11,-2,2.252
-17,-2,2.253
-22,-1,2.254
-30,1,2.255
-34,-1,2.256
-28,-7,2.257
-22,-7,2.258
-18,-2,2.259
-13,1,2.26
-8,2,2.261
-4,3,2.262
-2,3,2.263
-1,1,2.264
-1,1,2.265
-1,2,2.266
-6,2,2.267
-10,0,2.268
-11,-3,2.269
-12,-5,2.27
-9,-5,2.271
-4,-4,2.272
5,0,2.273
16,3,2.274
27,1,2.275
30,0,2.276
30,-4,2.277
35,-4,2.278
51,-4,2.279
60,-4,2.28
43,0,2.281
1,4,2.282
-32,0,2.283
-38,-5,2.284
-28,-5,2.285
-20,0,2.286
-23,6,2.287
-37,4,2.288
-44,-1,2.289
-36,-5,2.29
-20,-6,2.291
-8,-5,2.292
-2,-1,2.293
3,3,2.294
13,2,2.295
16,-1,2.296
7,-4,2.297
0,-4,2.298
3,-3,2.299
10,-3,2.3
6,0,2.301
-2,3,2.302
-1,4,2.303
9,0,2.304
21,0,2.305
30,4,2.306
38,6,2.307
39,4,2.308
27,0,2.309
11,0,2.31
1,0,2.311
-1,1,2.312
-4,2,2.313
-9,0,2.314
-10,-2,2.315
-12,-6,2.316
-19,-9,2.317
-24,-9,2.318
-13,-6,2.319
8,-3,2.32
18,-1,2.321
8,0,2.322
-5,0,2.323
-6,1,2.324
9,5,2.325
26,8,2.326
36,6,2.327
36,-2,2.328
29,-5,2.329
22,0,2.33
15,1,2.331
12,-3,2.332
13,-5,2.333
7,-4,2.334
-7,0,2.335
-20,0,2.336
-24,-6,2.337
-27,-6,2.338
-29,-5,2.339
-29,-5,2.34
-18,-3,2.341
-5,2,2.342
15,8,2.343
32,8,2.344
41,5,2.345
47,2,2.346
44,-1,2.347
39,-3,2.348
33,-4,2.349
24,0,2.35
10,3,2.351
-4,2,2.352
-18,2,2.353
-27,2,2.354
-23,3,2.355
-26,-1,2.356
-31,-10,2.357
-28,-11,2.358
-19,-3,2.359
-9,5,2.36
-2,8,2.361
2,4,2.362
4,0,2.363
1,0,2.364
-2,1,2.365
-3,2,2.366
-4,1,2.367
-9,-2,2.368
-16,-2,2.369
-19,0,2.37
-16,0,2.371
-5,-3,2.372
13,-5,2.373
31,-5,2.374
45,-4,2.375
48,-4,2.376
43,-7,2.377
31,-6,2.378
13,-5,2.379
-3,-5,2.38
-15,-3,2.381
-22,2,2.382
-28,2,2.383
-34,-1,2.384
-36,-4,2.385
-37,-2,2.386
-34,1,2.387
-30,-2,2.388
-25,-2,2.389
-33,2,2.39
-44,6,2.391
-29,4,2.392
19,-1,2.393
76,-3,2.394
98,-2,2.395
81,-2,2.396
62,-6,2.397
62,-3,2.398
61,2,2.399
43,4,2.4
16,0,2.401
-5,-5,2.402
-18,-6,2.403
-23,-4,2.404
-20,-1,2.405
-10,2,2.406
-1,3,2.407
0,4,2.408
1,2,2.409
4,2,2.41
3,2,2.411
0,4,2.412
0,5,2.413
-1,1,2.414
-7,-1,2.415
-12,-3,2.416
-14,-4,2.417
-14,-1,2.418
-7,0,2.419
-2,1,2.42
-2,2,2.421
-2,2,2.422
-3,-2,2.423
-4,-6,2.424
0,-6,2.425
3,-2,2.426
2,-1,2.427
0,-2,2.428
-1,-2,2.429
-3,-1,2.43
-7,0,2.431
-11,-2,2.432
-16,-3,2.433
-23,-5,2.434
-33,-6,2.435
-28,-8,2.436
-1,-10,2.437
34,-6,2.438
65,1,2.439
89,7,2.44
97,9,2.441
78,6,2.442
32,2,2.443
-15,-1,2.444
-45,-3,2.445
-59,-1,2.446
-63,0,2.447
-55,0,2.448
-37,0,2.449
-20,0,2.45
-8,0,2.451
8,2,2.452
33,4,2.453
54,3,2.454
52,1,2.455
22,-3,2.456
-6,-6,2.457
-12,-6,2.458
5,-4,2.459
19,0,2.46
15,1,2.461
-1,0,2.462
-21,-2,2.463
-38,-3,2.464
-44,-1,2.465
-33,1,2.466
-8,1,2.467
17,1,2.468
31,2,2.469
31,5,2.47
19,5,2.471
2,3,2.472
-13,2,2.473
-23,0,2.474
-35,-1,2.475
-47,-4,2.476
-49,-7,2.477
-34,-6,2.478
-7,-5,2.479
17,-1,2.48
28,2,2.481
26,0,2.482
25,-2,2.483
31,-2,2.484
39,0,2.485
39,0,2.486
33,-2,2.487
25,-4,2.488
16,-2,2.489
4,-2,2.49
-1,-5,2.491
4,-6,2.492
14,-2,2.493
15,-2,2.494
8,-3,2.495
0,-3,2.496
-1,-2,2.497
2,-3,2.498
2,-7,2.499
5,-7,2.5
8,-4,2.501
5,-1,2.502
0,0,2.503
-3,0,2.504
-2,4,2.505
-1,7,2.506
0,7,2.507
2,2,2.508
2,1,2.509
0,4,2.51
0,4,2.511
6,2,2.512
10,1,2.513
8,-1,2.514
2,-1,2.515
-2,-2,2.516
-3,-6,2.517
-1,-6,2.518
0,-4,2.519
-2,-3,2.52
-15,-1,2.521
-37,0,2.522
-57,2,2.523
-59,2,2.524
-41,0,2.525
-10,-1,2.526
28,-3,2.527
59,-4,2.528
68,-3,2.529
52,-4,2.53
31,-4,2.531
30,-2,2.532
40,0,2.533
31,0,2.534
1,-4,2.535
-26,-6,2.536
-30,-9,2.537
-19,-8,2.538
-9,-7,2.539
-5,-4,2.54
1,0,2.541
9,2,2.542
15,0,2.543
14,-2,2.544
11,1,2.545
2,7,2.546
-4,8,2.547
-4,6,2.548
3,4,2.549
3,3,2.55
-10,4,2.551
-22,3,2.552
-23,2,2.553
-20,-2,2.554
-23,-4,2.555
-34,-3,2.556
-41,-5,2.557
-35,-8,2.558
-19,-12,2.559
-1,-9,2.56
16,0,2.561
34,6,2.562
45,4,2.563
45,0,2.564
41,0,2.565
39,3,2.566
40,2,2.567
29,-2,2.568
2,-2,2.569
-26,0,2.57
-41,3,2.571
-40,3,2.572
-27,2,2.573
-12,0,2.574
1,-3,2.575
5,-4,2.576
5,-7,2.577
11,-5,2.578
21,-5,2.579
25,-4,2.58
17,-1,2.581
10,1,2.582
8,2,2.583
9,-1,2.584
6,-2,2.585
3,-2,2.586
7,-4,2.587
14,-5,2.588
16,-3,2.589
11,3,2.59
7,6,2.591
10,2,2.592
17,-2,2.593
20,-5,2.594
18,-5,2.595
3,-5,2.596
-11,-7,2.597
-16,-7,2.598
-7,-3,2.599
0,1,2.6
-18,3,2.601
-53,5,2.602
-71,5,2.603
-48,3,2.604
-5,1,2.605
22,5,2.606
23,5,2.607
18,1,2.608
15,-1,2.609
15,1,2.61
22,4,2.611
38,1,2.612
42,-3,2.613
4,-4,2.614
-53,1,2.615
-79,4,2.616
-50,-2,2.617
3,-8,2.618
43,-8,2.619
63,-5,2.62
76,-2,2.621
80,-2,2.622
75,-1,2.623
76,0,2.624
71,3,2.625
46,6,2.626
5,5,2.627
-20,2,2.628
-20,-2,2.629
-16,-2,2.63
-24,0,2.631
-36,1,2.632
-37,-2,2.633
-33,-8,2.634
-32,-8,2.635
-33,-4,2.636
-25,-2,2.637
-19,-3,2.638
-17,-2,2.639
-17,0,2.64
-21,3,2.641
-32,3,2.642
-50,2,2.643
-57,3,2.644
-45,4,2.645
-29,4,2.646
-19,0,2.647
-9,-3,2.648
12,3,2.649
30,12,2.65
13,14,2.651
-48,7,2.652
-112,1,2.653
-141,-2,2.654
-130,-1,2.655
-114,-2,2.656
-83,-7,2.657
-52,-11,2.658
-23,-11,2.659
-22,-6,2.66
-107,3,2.661
-162,6,2.662
-121,0,2.663
-92,-9,2.664
-101,-11,2.665
-69,-5,2.666
88,-2,2.667
230,-8,2.668
320,-16,2.669
404,-16,2.67
468,-8,2.671
523,-1,2.672
548,6,2.673
511,12,2.674
224,19,2.675
-63,11,2.676
-210,-5,2.677
-180,2,2.678
-47,39,2.679
42,64,2.68
19,42,2.681
-37,-10,2.682
-53,-41,2.683
-77,-24,2.684
-162,13,2.685
-253,28,2.686
-282,7,2.687
-281,-26,2.688
-271,-36,2.689
-188,-7,2.69
-23,33,2.691
96,45,2.692
91,29,2.693
22,10,2.694
-38,23,2.695
-157,56,2.696
-394,67,2.697
-647,44,2.698
-736,0,2.699
-608,-33,2.7
-359,-20,2.701
-95,40,2.702
148,95,2.703
388,73,2.704
643,-7,2.705
849,-32,2.706
855,58,2.707
574,170,2.708
169,158,2.709
-51,20,2.71
45,-107,2.711
273,-138,2.712
402,-109,2.713
434,-74,2.714
516,-22,2.715
669,57,2.716
732,114,2.717
574,102,2.718
259,48,2.719
-63,-6,2.72
-283,-70,2.721
-365,-159,2.722
-338,-223,2.723
-303,-206,2.724
-320,-133,2.725
-295,-48,2.726
-101,93,2.727
180,334,2.728
284,556,2.729
90,557,2.73
-206,332,2.731
-304,103,2.732
-152,21,2.733
82,-16,2.734
184,-136,2.735
102,-300,2.736
-58,-389,2.737
-208,-402,2.738
-349,-412,2.739
-487,-419,2.74
-578,-401,2.741
-582,-401,2.742
-523,-419,2.743
-506,-342,2.744
-672,-142,2.745
-1086,25,2.746
-1575,0,2.747
-1745,-209,2.748
-1351,-504,2.749
-581,-764,2.75
205,-778,2.751
928,-371,2.752
1615,255,2.753
2142,759,2.754
2100,928,2.755
1448,957,2.756
674,1026,2.757
168,939,2.758
-121,455,2.759
-334,-245,2.76
-382,-731,2.761
-189,-842,2.762
77,-769,2.763
247,-683,2.764
351,-540,2.765
456,-243,2.766
504,194,2.767
429,652,2.768
277,1000,2.769
157,1184,2.77
148,1238,2.771
256,1144,2.772
353,799,2.773
207,67,2.774
-186,-801,2.775
-557,-1404,2.776
-861,-1611,2.777
-1127,-1583,2.778
-1280,-1391,2.779
-1331,-960,2.78
-1071,-429,2.781
-790,-116,2.782
-448,-50,2.783
-91,79,2.784
314,393,2.785
727,641,2.786
1160,677,2.787
1461,675,2.788
1362,768,2.789
1205,825,2.79
872,759,2.791
584,706,2.792
430,759,2.793
262,819,2.794
2,835,2.795
-255,890,2.796
-369,1064,2.797
-382,1160,2.798
-454,1022,2.799
-601,812,2.8
-667,382,2.801
-594,-96,2.802
-488,-723,2.803
-416,-1327,2.804
-312,-1859,2.805
-147,-2188,2.806
-38,-1902,2.807
-79,-1549,2.808
-199,-994,2.809
-263,-428,2.81
-243,169,2.811
-197,610,2.812
-152,578,2.813
-66,557,2.814
65,712,2.815
157,974,2.816
124,1040,2.817
7,903,2.818
-29,736,2.819
108,512,2.82
310,7,2.821
394,-815,2.822
330,-1642,2.823
225,-2064,2.824
143,-1939,2.825
69,-1434,2.826
-3,-759,2.827
-54,50,2.828
-136,944,2.829
-327,1630,2.83
-581,1799,2.831
-708,1571,2.832
-565,1383,2.833
-151,1326,2.834
293,1062,2.835
489,375,2.836
373,-389,2.837
195,-772,2.838
229,-808,2.839
453,-837,2.84
605,-987,2.841
579,-1172,2.842
528,-1347,2.843
555,-1471,2.844
534,-1375,2.845
352,-944,2.846
140,-344,2.847
84,152,2.848
145,431,2.849
126,533,2.85
-46,525,2.851
-297,482,2.852
-562,468,2.853
-923,456,2.854
-1341,403,2.855
-1604,370,2.856
-1454,476,2.857
-833,672,2.858
19,746,2.859
737,609,2.86
1128,403,2.861
1294,265,2.862
1389,146,2.863
1370,-41,2.864
1110,-248,2.865
675,-352,2.866
309,-313,2.867
112,-164,2.868
-21,76,2.869
-171,369,2.87
-281,591,2.871
-333,641,2.872
-398,566,2.873
-507,412,2.874
-576,130,2.875
-566,-327,2.876
-528,-805,2.877
-493,-1056,2.878
-457,-1035,2.879
-436,-862,2.88
-438,-597,2.881
-405,-270,2.882
-312,-29,2.883
-237,16,2.884
-203,5,2.885
-99,140,2.886
108,399,2.887
233,672,2.888
117,961,2.889
-117,1210,2.89
-265,1198,2.891
-293,837,2.892
-228,340,2.893
16,-251,2.894
410,-982,2.895
658,-1649,2.896
529,-1757,2.897
248,-1214,2.898
167,-566,2.899
220,-194,2.9
78,137,2.901
-209,603,2.902
-210,847,2.903
204,629,2.904
614,321,2.905
645,267,2.906
455,239,2.907
393,-27,2.908
462,-311,2.909
403,-344,2.91
142,-274,2.911
-118,-298,2.912
-221,-301,2.913
-232,-156,2.914
-241,33,2.915
-228,163,2.916
-142,282,2.917
-46,322,2.918
-28,89,2.919
-40,-297,2.92
16,-448,2.921
96,-290,2.922
53,-161,2.923
-107,-204,2.924
-210,-209,2.925
-157,-99,2.926
-57,-81,2.927
-19,-169,2.928
5,-97,2.929
77,189,2.93
117,400,2.931
15,386,2.932
-181,359,2.933
-383,507,2.934
-520,769,2.935
-581,1003,2.936
-545,1124,2.937
-398,1025,2.938
-181,650,2.939
54,207,2.94
265,-50,2.941
375,-212,2.942
303,-544,2.943
100,-967,2.944
-42,-1140,2.945
-15,-976,2.946
97,-720,2.947
173,-507,2.948
238,-265,2.949
340,-22,2.95
400,76,2.951
309,68,2.952
131,125,2.953
-21,240,2.954
-83,222,2.955
-110,52,2.956
-134,-41,2.957
-125,66,2.958
-65,251,2.959
10,397,2.96
54,520,2.961
38,576,2.962
-25,423,2.963
-92,54,2.964
-129,-345,2.965
-141,-618,2.966
-167,-761,2.967
-206,-787,2.968
-227,-648,2.969
-228,-371,2.97
-236,-107,2.971
-233,34,2.972
-178,104,2.973
-67,199,2.974
20,301,2.975
40,333,2.976
43,283,2.977
81,215,2.978
116,161,2.979
103,101,2.98
100,35,2.981
181,-15,2.982
291,-38,2.983
305,-44,2.984
229,-20,2.985
196,75,2.986
259,255,2.987
311,456,2.988
256,571,2.989
174,531,2.99
194,346,2.991
304,82,2.992
373,-161,2.993
350,-323,2.994
300,-345,2.995
265,-289,2.996
175,-303,2.997
-18,-448,2.998
-219,-600,2.999
-304,-577,3.0
-298,-361,3.001
-313,-104,3.002
-366,73,3.003
-381,187,3.004
-324,281,3.005
-240,303,3.006
-162,187,3.007
-81,-28,3.008
-9,-232,3.009
11,-356,3.01
-27,-381,3.011
-86,-301,3.012
-121,-134,3.013
-125,72,3.014
-109,218,3.015
-97,243,3.016
-97,168,3.017
-86,70,3.018
-44,5,3.019
-12,-19,3.02
-8,-32,3.021
-6,-45,3.022
-15,-37,3.023
-30,4,3.024
-63,60,3.025
-90,109,3.026
-94,155,3.027
-89,186,3.028
-53,180,3.029
-11,147,3.03
46,135,3.031
97,161,3.032
121,188,3.033
135,181,3.034
122,153,3.035
135,126,3.036
161,102,3.037
162,78,3.038
136,56,3.039
108,35,3.04
77,19,3.041
29,11,3.042
-22,29,3.043
-44,41,3.044
-35,31,3.045
-22,18,3.046
-3,0,3.047
48,-22,3.048
118,-58,3.049
152,-92,3.05
122,-124,3.051
62,-149,3.052
7,-157,3.053
-56,-160,3.054
-123,-146,3.055
-163,-140,3.056
-156,-147,3.057
-136,-151,3.058
-132,-148,3.059
-101,-136,3.06
1,-100,3.061
138,-36,3.062
218,26,3.063
210,58,3.064
166,71,3.065
139,83,3.066
133,76,3.067
123,35,3.068
90,-11,3.069
44,-27,3.07
1,-22,3.071
-26,-15,3.072
-41,5,3.073
-60,46,3.074
-77,75,3.075
-81,63,3.076
-74,27,3.077
-74,12,3.078
-78,10,3.079
-76,-2,3.08
-68,-10,3.081
-65,2,3.082
-64,16,3.083
-58,8,3.084
-46,-6,3.085
-40,-2,3.086
-36,7,3.087
-28,5,3.088
-19,-3,3.089
-15,-6,3.09
-17,-6,3.091
-14,-10,3.092
-10,-11,3.093
-9,-6,3.094
-8,3,3.095
1,3,3.096
21,1,3.097
38,13,3.098
45,27,3.099
38,31,3.1
24,28,3.101
15,19,3.102
17,9,3.103
20,-3,3.104
19,-8,3.105
15,-10,3.106
15,-16,3.107
18,-25,3.108
18,-28,3.109
15,-20,3.11
14,-9,3.111
17,-2,3.112
19,1,3.113
16,-5,3.114
14,-15,3.115
5,-25,3.116
-5,-34,3.117
-10,-34,3.118
-3,-21,3.119
5,-4,3.12
6,7,3.121
5,10,3.122
11,10,3.123
19,14,3.124
21,14,3.125
17,10,3.126
13,8,3.127
12,13,3.128
8,13,3.129
2,7,3.13
0,4,3.131
1,8,3.132
2,12,3.133
1,2,3.134
1,-3,3.135
-1,4,3.136
-5,10,3.137
-8,8,3.138
-4,3,3.139
4,3,3.14
7,4,3.141
2,2,3.142
-3,-2,3.143
0,-4,3.144
5,-10,3.145
6,-15,3.146
3,-13,3.147
0,-5,3.148
2,0,3.149
3,1,3.15
4,0,3.151
4,0,3.152
6,0,3.153
5,-2,3.154
0,-1,3.155
-5,3,3.156
-5,2,3.157
-1,-2,3.158
3,-3,3.159
7,-1,3.16
6,0,3.161
3,1,3.162
2,4,3.163
4,7,3.164
6,6,3.165
3,3,3.166
-1,0,3.167
-1,-1,3.168
1,0,3.169
4,0,3.17
3,0,3.171
2,-2,3.172
3,-5,3.173
1,-7,3.174
-2,-6,3.175
-7,-4,3.176
-10,-7,3.177
-7,-6,3.178
1,-2,3.179
9,1,3.18
7,0,3.181
0,0,3.182
-1,-1,3.183
3,-2,3.184
4,-1,3.185
0,0,3.186
0,1,3.187
2,0,3.188
3,-2,3.189
-2,0,3.19
-5,1,3.191
-2,0,3.192
2,-2,3.193
5,-4,3.194
5,-3,3.195
2,0,3.196
-2,-2,3.197
0,3,3.198
9,18,3.199
14,37,3.2
9,48,3.201
-2,45,3.202
-6,40,3.203
-3,41,3.204
-3,34,3.205
-5,0,3.206
-5,-56,3.207
2,-105,3.208
10,-127,3.209
10,-122,3.21
9,-96,3.211
12,-50,3.212
14,-2,3.213
7,30,3.214
0,32,3.215
-6,18,3.216
-8,13,3.217
-10,20,3.218
-4,25,3.219
0,22,3.22
1,24,3.221
-1,31,3.222
-20,28,3.223
-42,13,3.224
-70,5,3.225
-85,9,3.226
-57,13,3.227
-33,8,3.228
-23,2,3.229
-5,2,3.23
37,7,3.231
65,7,3.232
44,5,3.233
9,-1,3.234
-48,-5,3.235
-67,-7,3.236
-28,-8,3.237
61,-6,3.238
165,-5,3.239
218,-6,3.24
187,-5,3.241
111,-2,3.242
57,-5,3.243
33,-10,3.244
15,-14,3.245
3,-13,3.246
30,-11,3.247
82,-13,3.248
107,-12,3.249
78,-5,3.25
22,1,3.251
-31,4,3.252
-67,7,3.253
-95,10,3.254
-101,11,3.255
-97,10,3.256
-93,5,3.257
-89,1,3.258
-86,-1,3.259
-89,0,3.26
-91,0,3.261
-74,0,3.262
-43,-4,3.263
-29,-10,3.264
-40,-9,3.265
-44,-1,3.266
-23,4,3.267
4,8,3.268
17,11,3.269
29,16,3.27
59,17,3.271
101,9,3.272
139,1,3.273
164,-7,3.274
152,-10,3.275
86,-9,3.276
4,-11,3.277
-37,-11,3.278
-28,-10,3.279
-11,-8,3.28
-16,-1,3.281
-25,2,3.282
-22,3,3.283
-20,1,3.284
-28,1,3.285
-36,1,3.286
-34,-1,3.287
-29,-3,3.288
-28,0,3.289
-29,5,3.29
-25,8,3.291
-22,11,3.292
-18,14,3.293
-15,10,3.294
-11,3,3.295
-10,0,3.296
-14,1,3.297
-12,1,3.298
0,-3,3.299
13,-6,3.3
20,-2,3.301
18,3,3.302
15,2,3.303
12,-3,3.304
9,-6,3.305
4,-4,3.306
2,-4,3.307
4,-5,3.308
10,-4,3.309
15,-5,3.31
17,-8,3.311
18,-10,3.312
19,-10,3.313
15,-10,3.314
6,-11,3.315
-4,-10,3.316
-14,-9,3.317
-16,-8,3.318
-11,-8,3.319
-2,-8,3.32
-1,-4,3.321
-4,-1,3.322
-5,-2,3.323
0,-2,3.324
11,-1,3.325
22,-1,3.326
29,-3,3.327
29,-5,3.328
20,0,3.329
11,5,3.33
14,6,3.331
26,2,3.332
36,2,3.333
38,3,3.334
32,5,3.335
24,2,3.336
16,-3,3.337
7,-5,3.338
0,-2,3.339
-6,-2,3.34
-10,-3,3.341
-14,-3,3.342
-16,-1,3.343
-15,0,3.344
-15,1,3.345
-18,1,3.346
-19,3,3.347
-17,3,3.348
-13,1,3.349
-10,2,3.35
-7,3,3.351
-5,2,3.352
-4,0,3.353
-4,-2,3.354
-5,0,3.355
-7,0,3.356
-9,-3,3.357
-9,-3,3.358
-3,1,3.359
5,3,3.36
8,3,3.361
4,2,3.362
5,3,3.363
12,2,3.364
15,0,3.365
10,-2,3.366
6,-1,3.367
9,0,3.368
14,0,3.369
11,-2,3.37
9,0,3.371
11,1,3.372
14,1,3.373
11,-3,3.374
9,-5,3.375
9,-6,3.376
10,-9,3.377
8,-9,3.378
11,-7,3.379
18,-4,3.38
19,0,3.381
12,1,3.382
4,1,3.383
4,0,3.384
11,-1,3.385
13,0,3.386
13,0,3.387
15,-2,3.388
12,-4,3.389
9,-4,3.39
10,-3,3.391
12,-1,3.392
10,0,3.393
0,-1,3.394
-7,-1,3.395
-9,-1,3.396
-11,-4,3.397
-12,-4,3.398
-6,-2,3.399
4,3,3.4
10,7,3.401
5,7,3.402
0,4,3.403
2,1,3.404
4,0,3.405
0,2,3.406
-3,2,3.407
-2,1,3.408
-2,1,3.409
-5,4,3.41
-9,6,3.411
-9,5,3.412
-6,2,3.413
-5,0,3.414
-7,0,3.415
-7,-1,3.416
-7,-4,3.417
-6,-6,3.418
0,-5,3.419
10,-2,3.42
13,1,3.421
4,2,3.422
-3,0,3.423
-3,-2,3.424
2,-1,3.425
7,1,3.426
6,2,3.427
5,1,3.428
6,2,3.429
7,4,3.43
7,6,3.431
6,2,3.432
4,-1,3.433
0,-4,3.434
-3,-2,3.435
-5,-3,3.436
-8,-8,3.437
-10,-8,3.438
-9,-6,3.439
-3,-1,3.44
0,3,3.441
0,3,3.442
-2,1,3.443
-3,-1,3.444
-2,0,3.445
0,4,3.446
5,7,3.447
12,3,3.448
17,-2,3.449
18,-2,3.45
19,-1,3.451
17,-3,3.452
11,-5,3.453
1,-3,3.454
-3,-1,3.455
-3,-1,3.456
-3,-9,3.457
-5,-11,3.458
-2,-6,3.459
6,0,3.46
10,2,3.461
5,2,3.462
-1,1,3.463
-1,-1,3.464
0,-2,3.465
-3,-2,3.466
-8,-2,3.467
-12,-2,3.468
-10,-1,3.469
-8,0,3.47
-7,1,3.471
-7,-1,3.472
-8,0,3.473
-8,0,3.474
-3,0,3.475
3,-4,3.476
9,-9,3.477
15,-10,3.478
24,-8,3.479
31,-5,3.48
27,-3,3.481
16,1,3.482
9,0,3.483
10,-2,3.484
10,-2,3.485
4,3,3.486
2,6,3.487
3,1,3.488
1,-2,3.489
-5,0,3.49
-7,4,3.491
-4,6,3.492
-2,9,3.493
-4,8,3.494
-7,6,3.495
-8,3,3.496
-11,0,3.497
-12,3,3.498
-6,6,3.499
2,7,3.5
1,7,3.501
-3,7,3.502
-4,5,3.503
1,3,3.504
4,2,3.505
0,0,3.506
-2,-1,3.507
-1,-1,3.508
-4,1,3.509
-7,2,3.51
-5,0,3.511
2,-2,3.512
7,-2,3.513
8,-1,3.514
13,-2,3.515
18,-5,3.516
19,-10,3.517
21,-8,3.518
28,-5,3.519
31,-4,3.52
22,-3,3.521
8,-2,3.522
5,0,3.523
11,0,3.524
9,-2,3.525
0,-1,3.526
-4,-1,3.527
-1,-4,3.528
0,-6,3.529
-3,-4,3.53
-1,1,3.531
4,2,3.532
6,0,3.533
2,-2,3.534
-2,-4,3.535
-5,-5,3.536
-9,-9,3.537
-10,-8,3.538
0,-4,3.539
6,-2,3.54
0,-1,3.541
-4,-1,3.542
-6,0,3.543
-12,-1,3.544
-29,-1,3.545
-43,0,3.546
-51,0,3.547
-51,0,3.548
-27,1,3.549
-8,2,3.55
-6,3,3.551
0,3,3.552
22,3,3.553
51,2,3.554
91,3,3.555
113,3,3.556
109,-2,3.557
80,-6,3.558
44,-4,3.559
21,-2,3.56
13,0,3.561
11,0,3.562
4,-2,3.563
-2,-5,3.564
-7,-4,3.565
-13,-3,3.566
-19,-3,3.567
-17,-3,3.568
-11,0,3.569
-11,2,3.57
-19,0,3.571
-22,-2,3.572
-16,0,3.573
-14,1,3.574
-18,3,3.575
-24,2,3.576
-23,0,3.577
-18,0,3.578
-14,0,3.579
-8,0,3.58
-4,1,3.581
-5,3,3.582
-7,3,3.583
-4,1,3.584
-1,-2,3.585
-2,-2,3.586
-5,1,3.587
-2,3,3.588
4,0,3.589
5,-4,3.59
2,-3,3.591
2,-1,3.592
6,0,3.593
5,-3,3.594
1,-4,3.595
-5,-4,3.596
-7,-9,3.597
-4,-10,3.598
3,-6,3.599
10,-1,3.6
11,2,3.601
7,3,3.602
7,1,3.603
11,0,3.604
12,-1,3.605
6,0,3.606
4,0,3.607
7,0,3.608
9,-1,3.609
6,-2,3.61
3,0,3.611
5,1,3.612
6,0,3.613
3,-3,3.614
3,-6,3.615
3,-5,3.616
4,-5,3.617
3,-3,3.618
6,0,3.619
16,2,3.62
21,2,3.621
17,2,3.622
12,0,3.623
13,-1,3.624
15,0,3.625
10,2,3.626
3,4,3.627
3,1,3.628
4,-1,3.629
1,-1,3.63
-4,2,3.631
-9,4,3.632
-10,4,3.633
-9,-1,3.634
-8,-3,3.635
-10,-4,3.636
-15,-6,3.637
-18,-6,3.638
-9,-4,3.639
4,-1,3.64
4,2,3.641
-6,4,3.642
-10,1,3.643
0,-2,3.644
8,-2,3.645
7,0,3.646
5,3,3.647
5,4,3.648
0,3,3.649
-11,1,3.65
-20,-2,3.651
-18,-3,3.652
-12,-1,3.653
-13,-1,3.654
-14,-3,3.655
-14,-5,3.656
-8,-6,3.657
8,-2,3.658
39,0,3.659
71,-2,3.66
83,-2,3.661
72,0,3.662
52,2,3.663
36,0,3.664
21,0,3.665
8,3,3.666
2,4,3.667
-2,2,3.668
-7,2,3.669
-12,6,3.67
-10,7,3.671
-9,0,3.672
-14,-6,3.673
-19,-6,3.674
-17,0,3.675
-16,2,3.676
-20,-3,3.677
-24,-6,3.678
-18,-5,3.679
-6,-4,3.68
-3,-2,3.681
-8,-2,3.682
-8,-1,3.683
-1,-1,3.684
0,0,3.685
-3,1,3.686
-4,2,3.687
-1,-1,3.688
0,-3,3.689
-3,-2,3.69
-2,3,3.691
2,2,3.692
7,3,3.693
2,1,3.694
0,0,3.695
-3,-1,3.696
-1,-5,3.697
1,-7,3.698
5,-5,3.699
8,-4,3.7
8,0,3.701
8,4,3.702
8,4,3.703
9,-1,3.704
10,-4,3.705
11,0,3.706
8,5,3.707
5,7,3.708
5,5,3.709
4,5,3.71
4,5,3.711
4,2,3.712
4,0,3.713
3,-4,3.714
2,-2,3.715
-1,3,3.716
-3,10,3.717
-1,12,3.718
4,4,3.719
10,-12,3.72
10,-21,3.721
5,-16,3.722
3,-6,3.723
5,-3,3.724
5,-4,3.725
2,-4,3.726
-1,-1,3.727
2,0,3.728
5,-4,3.729
4,-3,3.73
1,-1,3.731
2,1,3.732
7,2,3.733
6,1,3.734
2,1,3.735
-2,-1,3.736
-2,-7,3.737
-1,-8,3.738
3,-5,3.739
6,-2,3.74
7,2,3.741
7,7,3.742
0,8,3.743
-5,1,3.744
-1,-3,3.745
2,0,3.746
-2,5,3.747
-5,3,3.748
-5,-4,3.749
-3,-4,3.75
2,1,3.751
6,5,3.752
8,4,3.753
11,0,3.754
11,0,3.755
10,0,3.756
9,-4,3.757
5,-6,3.758
5,-3,3.759
8,3,3.76
7,6,3.761
1,4,3.762
-2,0,3.763
1,-2,3.764
7,-1,3.765
5,3,3.766
2,3,3.767
5,-1,3.768
10,-4,3.769
8,-1,3.77
4,2,3.771
3,0,3.772
7,-5,3.773
5,-7,3.774
-2,-4,3.775
-12,-1,3.776
-17,-4,3.777
-15,-5,3.778
-6,-3,3.779
2,1,3.78
3,5,3.781
0,6,3.782
3,2,3.783
13,-2,3.784
20,-2,3.785
16,0,3.786
11,3,3.787
13,2,3.788
15,-1,3.789
12,-2,3.79
7,-1,3.791
6,-1,3.792
8,0,3.793
3,0,3.794
-3,3,3.795
-6,3,3.796
-8,-2,3.797
-8,-4,3.798
-2,-4,3.799
5,0,3.8
7,3,3.801
2,4,3.802
-3,0,3.803
-1,-5,3.804
1,-5,3.805
0,-2,3.806
0,0,3.807
0,-2,3.808
-2,-3,3.809
-6,1,3.81
-7,1,3.811
-4,-2,3.812
-1,-2,3.813
-2,0,3.814
-4,1,3.815
-5,-3,3.816
-4,-10,3.817
-1,-10,3.818
8,-5,3.819
17,-2,3.82
17,0,3.821
9,3,3.822
7,6,3.823
13,5,3.824
14,1,3.825
7,3,3.826
2,5,3.827
3,3,3.828
6,1,3.829
5,1,3.83
3,2,3.831
3,-1,3.832
4,-1,3.833
0,-1,3.834
-3,0,3.835
-7,-3,3.836
-11,-9,3.837
-12,-10,3.838
-5,-3,3.839
2,2,3.84
3,4,3.841
0,6,3.842
1,3,3.843
6,-1,3.844
4,-3,3.845
-3,-1,3.846
-7,3,3.847
-5,1,3.848
-7,-3,3.849
-11,-4,3.85
-12,-1,3.851
-8,0,3.852
0,-1,3.853
8,-4,3.854
16,-4,3.855
19,-2,3.856
20,-4,3.857
19,-6,3.858
22,-5,3.859
23,-3,3.86
20,0,3.861
11,2,3.862
6,3,3.863
6,2,3.864
7,0,3.865
5,-1,3.866
4,0,3.867
4,2,3.868
3,7,3.869
2,10,3.87
1,8,3.871
0,0,3.872
-3,-4,3.873
-5,-4,3.874
-6,0,3.875
-9,0,3.876
-10,-7,3.877
-8,-7,3.878
-1,-4,3.879
3,0,3.88
2,3,3.881
-1,4,3.882
-1,2,3.883
3,-1,3.884
3,0,3.885
2,1,3.886
-1,0,3.887
-4,-2,3.888
-6,-3,3.889
-9,0,3.89
-12,0,3.891
-17,-3,3.892
-22,-2,3.893
-28,0,3.894
-30,-2,3.895
-30,-6,3.896
-24,-10,3.897
-13,-6,3.898
8,-2,3.899
30,-1,3.9
50,-1,3.901
66,0,3.902
74,1,3.903
75,0,3.904
57,0,3.905
40,2,3.906
26,3,3.907
14,0,3.908
7,-3,3.909
1,-3,3.91
-3,1,3.911
-7,3,3.912
-9,4,3.913
-13,4,3.914
-21,2,3.915
-21,0,3.916
-18,-5,3.917
-17,-7,3.918
-16,1,3.919
-11,7,3.92
-8,7,3.921
-11,6,3.922
-15,0,3.923
-9,-4,3.924
-2,-2,3.925
-2,-1,3.926
-5,-2,3.927
-5,-4,3.928
-1,-4,3.929
-1,-3,3.93
-5,-3,3.931
-5,-3,3.932
-2,-2,3.933
0,0,3.934
-2,-1,3.935
-7,-1,3.936
-13,-2,3.937
-22,0,3.938
-32,1,3.939
-37,1,3.94
-36,2,3.941
-24,4,3.942
-7,2,3.943
13,-2,3.944
33,0,3.945
50,2,3.946
61,0,3.947
68,-4,3.948
72,-3,3.949
67,3,3.95
51,5,3.951
26,1,3.952
8,-2,3.953
4,-2,3.954
7,-2,3.955
2,-3,3.956
-8,-6,3.957
-12,-6,3.958
-6,-6,3.959
0,-4,3.96
-4,1,3.961
-11,7,3.962
-11,5,3.963
-8,-1,3.964
-9,-4,3.965
-13,0,3.966
-14,3,3.967
-11,3,3.968
-10,3,3.969
-9,2,3.97
-7,-1,3.971
-6,-7,3.972
-5,-6,3.973
-9,-6,3.974
-9,-4,3.975
-9,-3,3.976
-10,-6,3.977
-10,-7,3.978
-3,-7,3.979
3,-2,3.98
3,4,3.981
3,7,3.982
4,3,3.983
6,-1,3.984
7,-1,3.985
9,0,3.986
9,1,3.987
9,1,3.988
5,2,3.989
1,1,3.99
1,-1,3.991
1,-2,3.992
3,1,3.993
6,1,3.994
5,-2,3.995
2,-5,3.996
-2,-7,3.997
-2,-5,3.998
3,-3,3.999
9,-3,4.0
8,0,4.001
3,3,4.002
1,3,4.003
3,0,4.004
1,-2,4.005
-4,0,4.006
-10,1,4.007
-10,-2,4.008
-5,-5,4.009
0,-1,4.01
6,3,4.011
12,4,4.012
20,2,4.013
27,-1,4.014
31,-2,4.015
32,-2,4.016
18,-6,4.017
7,-5,4.018
5,0,4.019
3,2,4.02
2,2,4.021
1,2,4.022
0,2,4.023
-2,0,4.024
-3,-2,4.025
-5,-3,4.026
-5,0,4.027
-4,4,4.028
-3,7,4.029
-1,4,4.03
0,0,4.031
3,-2,4.032
7,0,4.033
9,-2,4.034
2,-2,4.035
-7,-3,4.036
-14,-4,4.037
-14,-4,4.038
-5,-5,4.039
4,-2,4.04
6,4,4.041
0,6,4.042
-2,-1,4.043
4,-7,4.044
8,-3,4.045
5,3,4.046
-2,0,4.047
-1,-6,4.048
4,-4,4.049
6,1,4.05
2,2,4.051
-1,0,4.052
0,2,4.053
0,0,4.054
2,-2,4.055
0,-3,4.056
-4,-5,4.057
-4,-4,4.058
0,-6,4.059
10,-4,4.06
15,4,4.061
10,7,4.062
3,3,4.063
6,-2,4.064
11,-1,4.065
7,1,4.066
-2,0,4.067
-6,-2,4.068
-6,-1,4.069
-5,0,4.07
-1,-1,4.071
5,-1,4.072
10,1,4.073
3,2,4.074
-4,0,4.075
-6,-3,4.076
-1,-6,4.077
3,-6,4.078
7,-5,4.079
14,-2,4.08
18,1,4.081
13,1,4.082
2,0,4.083
1,0,4.084
6,0,4.085
10,0,4.086
9,-1,4.087
7,0,4.088
3,2,4.089
0,2,4.09
0,2,4.091
3,3,4.092
6,4,4.093
1,1,4.094
-5,-4,4.095
-12,-4,4.096
-18,-2,4.097
-24,-2,4.098
-31,-2,4.099
-36,-2,4.1
-34,0,4.101
-29,2,4.102
-14,2,4.103
2,2,4.104
18,4,4.105
33,4,4.106
42,1,4.107
51,-2,4.108
59,-1,4.109
64,0,4.11
56,2,4.111
47,3,4.112
36,1,4.113
26,-5,4.114
28,-8,4.115
17,-7,4.116
-4,-7,4.117
-19,-7,4.118
-16,-6,4.119
-7,0,4.12
-10,6,4.121
-18,4,4.122
-18,-2,4.123
-12,-2,4.124
-10,2,4.125
-13,5,4.126
-14,2,4.127
-13,0,4.128
-14,-1,4.129
-16,-1,4.13
-16,0,4.131
-14,1,4.132
-14,1,4.133
-17,-7,4.134
-17,-17,4.135
-17,-19,4.136
-19,-14,4.137
-18,-7,4.138
-10,-5,4.139
0,-6,4.14
5,-2,4.141
5,2,4.142
7,3,4.143
13,1,4.144
16,3,4.145
16,7,4.146
13,9,4.147
14,4,4.148
15,2,4.149
16,7,4.15
17,13,4.151
16,12,4.152
14,9,4.153
8,5,4.154
5,4,4.155
3,1,4.156
1,-5,4.157
-2,-5,4.158
-2,-1,4.159
1,2,4.16
3,4,4.161
2,4,4.162
4,3,4.163
6,0,4.164
8,-1,4.165
6,3,4.166
5,4,4.167
8,0,4.168
6,-3,4.169
1,-2,4.17
0,2,4.171
5,2,4.172
15,-2,4.173
20,-7,4.174
22,-9,4.175
20,-8,4.176
15,-7,4.177
12,-4,4.178
12,-2,4.179
9,-1,4.18
-1,0,4.181
-13,0,4.182
-18,0,4.183
-17,-3,4.184
-19,-6,4.185
-18,-7,4.186
-14,-5,4.187
-8,-3,4.188
-3,-3,4.189
3,-3,4.19
9,-3,4.191
7,-1,4.192
-3,-1,4.193
-13,-5,4.194
-19,-6,4.195
-26,-5,4.196
-33,-7,4.197
-28,-7,4.198
-7,-2,4.199
15,3,4.2
19,4,4.201
11,1,4.202
1,2,4.203
8,4,4.204
32,1,4.205
60,0,4.206
76,0,4.207
78,4,4.208
64,1,4.209
40,-3,4.21
15,-4,4.211
2,1,4.212
7,7,4.213
15,7,4.214
7,4,4.215
-7,-2,4.216
-14,-9,4.217
-10,-8,4.218
-10,-1,4.219
-18,2,4.22
-24,-1,4.221
-22,-7,4.222
-18,-8,4.223
-16,-4,4.224
-18,-3,4.225
-20,-1,4.226
-21,2,4.227
-19,10,4.228
-14,14,4.229
-7,10,4.23
1,1,4.231
19,-4,4.232
42,-2,4.233
61,0,4.234
65,0,4.235
56,0,4.236
41,-1,4.237
22,3,4.238
-2,4,4.239
-29,2,4.24
-55,0,4.241
-78,0,4.242
-90,0,4.243
-89,1,4.244
-76,3,4.245
-56,3,4.246
-35,0,4.247
-19,-5,4.248
-12,-7,4.249
-9,-5,4.25
0,-3,4.251
17,-3,4.252
29,-1,4.253
30,0,4.254
26,0,4.255
27,-2,4.256
36,-6,4.257
43,-7,4.258
43,-4,4.259
33,-1,4.26
15,1,4.261
-8,2,4.262
-24,-1,4.263
-22,-5,4.264
-11,-4,4.265
0,1,4.266
8,6,4.267
17,9,4.268
29,5,4.269
38,-1,4.27
42,-6,4.271
45,-5,4.272
48,1,4.273
42,1,4.274
21,-2,4.275
2,-5,4.276
1,-6,4.277
14,-4,4.278
22,-5,4.279
22,-5,4.28
22,-1,4.281
25,2,4.282
21,0,4.283
4,-2,4.284
-13,0,4.285
-22,0,4.286
-26,-5,4.287
-26,-6,4.288
-23,-4,4.289
-23,-1,4.29
-27,0,4.291
-29,3,4.292
-21,11,4.293
-4,13,4.294
10,10,4.295
12,2,4.296
8,-5,4.297
5,-5,4.298
10,-4,4.299
16,-4,4.3
14,-1,4.301
5,3,4.302
-3,5,4.303
0,-1,4.304
7,-4,4.305
9,0,4.306
6,5,4.307
2,3,4.308
-1,-2,4.309
-5,-2,4.31
-8,0,4.311
-8,0,4.312
-6,0,4.313
-7,-1,4.314
-7,-3,4.315
-8,-8,4.316
-7,-16,4.317
-3,-12,4.318
3,-1,4.319
11,6,4.32
12,5,4.321
5,4,4.322
2,4,4.323
6,1,4.324
7,-1,4.325
2,-1,4.326
-3,3,4.327
-2,3,4.328
-2,0,4.329
-3,-2,4.33
-6,-1,4.331
-4,3,4.332
-1,3,4.333
0,-2,4.334
0,-8,4.335
1,-7,4.336
0,-6,4.337
2,-5,4.338
16,-2,4.339
34,1,4.34
37,3,4.341
21,3,4.342
3,2,4.343
-2,3,4.344
-1,6,4.345
-5,5,4.346
-16,4,4.347
-22,3,4.348
-18,0,4.349
-11,-3,4.35
-7,-7,4.351
-5,-6,4.352
-1,-2,4.353
7,-1,4.354
16,0,4.355
18,1,4.356
17,-3,4.357
18,-7,4.358
27,-7,4.359
30,-1,4.36
19,1,4.361
-1,-1,4.362
-7,-4,4.363
4,-3,4.364
18,-3,4.365
22,-3,4.366
23,-1,4.367
29,3,4.368
28,6,4.369
10,5,4.37
-16,2,4.371
-30,-1,4.372
-29,-3,4.373
-31,-4,4.374
-39,-5,4.375
-45,-2,4.376
-41,-6,4.377
-29,-6,4.378
-5,-4,4.379
27,0,4.38
50,4,4.381
45,5,4.382
20,1,4.383
0,-4,4.384
-3,-4,4.385
-2,2,4.386
-5,4,4.387
-7,0,4.388
-8,-2,4.389
-16,-2,4.39
-27,-3,4.391
-27,-7,4.392
-13,-6,4.393
0,0,4.394
6,4,4.395
9,0,4.396
17,-7,4.397
22,-7,4.398
21,-3,4.399
23,-2,4.4
27,-2,4.401
26,0,4.402
19,2,4.403
17,3,4.404
17,3,4.405
14,3,4.406
9,2,4.407
8,0,4.408
11,0,4.409
6,2,4.41
-3,1,4.411
-7,-2,4.412
-1,-4,4.413
1,-4,4.414
-2,-2,4.415
-9,-3,4.416
-13,-4,4.417
-9,-1,4.418
0,3,4.419
11,5,4.42
11,3,4.421
2,1,4.422
-3,2,4.423
-1,4,4.424
2,3,4.425
0,-1,4.426
-4,-2,4.427
-3,0,4.428
-2,1,4.429
-5,-1,4.43
-6,-5,4.431
-2,-5,4.432
8,-2,4.433
13,-2,4.434
13,-4,4.435
10,-4,4.436
7,-5,4.437
2,-3,4.438
1,-4,4.439
6,-2,4.44
6,1,4.441
-2,3,4.442
-9,4,4.443
0,5,4.444
20,4,4.445
36,3,4.446
37,3,4.447
22,5,4.448
1,5,4.449
-11,2,4.45
-14,-2,4.451
-21,-2,4.452
-34,-1,4.453
-43,-4,4.454
-35,-6,4.455
-15,-5,4.456
0,-2,4.457
9,7,4.458
10,18,4.459
1,29,4.46
-16,27,4.461
-25,11,4.462
-18,-12,4.463
-4,-32,4.464
4,-43,4.465
17,-44,4.466
40,-38,4.467
57,-23,4.468
46,-3,4.469
15,8,4.47
-4,5,4.471
-2,0,4.472
15,4,4.473
43,5,4.474
74,1,4.475
83,-5,4.476
60,-2,4.477
26,7,4.478
7,11,4.479
-1,7,4.48
-24,4,4.481
-60,7,4.482
-82,9,4.483
-77,5,4.484
-63,2,4.485
-53,2,4.486
-47,4,4.487
-41,2,4.488
-38,3,4.489
-30,8,4.49
-11,11,4.491
13,8,4.492
22,0,4.493
16,-9,4.494
12,-14,4.495
14,-14,4.496
15,-14,4.497
16,-10,4.498
25,-6,4.499
35,-3,4.5
32,-4,4.501
19,0,4.502
16,17,4.503
22,52,4.504
27,94,4.505
23,113,4.506
18,85,4.507
16,7,4.508
15,-76,4.509
15,-127,4.51
21,-140,4.511
22,-126,4.512
12,-89,4.513
-2,-29,4.514
-4,28,4.515
0,52,4.516
0,47,4.517
-6,44,4.518
-9,48,4.519
-11,46,4.52
-22,41,4.521
-30,36,4.522
-11,21,4.523
23,-19,4.524
34,-62,4.525
9,-78,4.526
-19,-70,4.527
-28,-61,4.528
-24,-47,4.529
-16,-16,4.53
2,17,4.531
33,29,4.532
63,23,4.533
75,19,4.534
69,23,4.535
48,21,4.536
17,11,4.537
-10,8,4.538
-20,10,4.539
-18,9,4.54
-20,7,4.541
-34,8,4.542
-42,9,4.543
-30,6,4.544
-16,3,4.545
-18,4,4.546
-32,0,4.547
-40,-7,4.548
-38,-7,4.549
-31,1,4.55
-24,7,4.551
-14,6,4.552
-4,6,4.553
0,11,4.554
8,13,4.555
16,6,4.556
28,-6,4.557
36,-9,4.558
34,-6,4.559
28,0,4.56
7,9,4.561
-9,26,4.562
-9,50,4.563
-6,71,4.564
2,71,4.565
8,41,4.566
8,-9,4.567
12,-48,4.568
32,-65,4.569
49,-71,4.57
58,-73,4.571
69,-51,4.572
81,-11,4.573
84,18,4.574
42,22,4.575
-1,28,4.576
-12,38,4.577
0,46,4.578
1,41,4.579
-20,27,4.58
-56,-13,4.581
-88,-49,4.582
-103,-77,4.583
-96,-96,4.584
-69,-89,4.585
-30,-82,4.586
3,-72,4.587
17,-62,4.588
15,-50,4.589
30,-37,4.59
79,-25,4.591
117,-10,4.592
96,15,4.593
23,36,4.594
-26,39,4.595
-22,33,4.596
-14,29,4.597
-41,32,4.598
-68,34,4.599
-54,37,4.6
-28,41,4.601
-32,44,4.602
-47,44,4.603
-34,40,4.604
0,36,4.605
26,34,4.606
34,31,4.607
34,25,4.608
25,15,4.609
7,10,4.61
2,9,4.611
22,8,4.612
39,3,4.613
29,-5,4.614
3,-6,4.615
-12,-1,4.616
-8,-2,4.617
8,-5,4.618
33,-3,4.619
47,9,4.62
32,25,4.621
-4,32,4.622
-24,24,4.623
-13,0,4.624
6,-27,4.625
23,-46,4.626
43,-51,4.627
61,-48,4.628
58,-40,4.629
42,-23,4.63
32,-7,4.631
27,-2,4.632
3,-5,4.633
-45,-4,4.634
-84,4,4.635
-93,7,4.636
-90,1,4.637
-85,-1,4.638
-57,1,4.639
-11,1,4.64
16,-4,4.641
5,-4,4.642
-12,0,4.643
-9,1,4.644
3,-2,4.645
14,-3,4.646
36,-1,4.647
74,0,4.648
96,-3,4.649
73,-5,4.65
30,-4,4.651
3,0,4.652
-3,2,4.653
-13,0,4.654
-28,-3,4.655
-37,-4,4.656
-32,-2,4.657
-14,2,4.658
12,1,4.659
29,-3,4.66
32,-3,4.661
20,3,4.662
5,7,4.663
-7,5,4.664
-20,3,4.665
-29,3,4.666
-29,4,4.667
-16,2,4.668
0,0,4.669
16,-2,4.67
22,-7,4.671
13,-9,4.672
-2,-2,4.673
-5,13,4.674
11,41,4.675
21,78,4.676
-1,106,4.677
-40,100,4.678
-56,44,4.679
-30,-40,4.68
12,-114,4.681
46,-157,4.682
69,-166,4.683
83,-131,4.684
80,-59,4.685
67,13,4.686
63,41,4.687
60,26,4.688
22,9,4.689
-63,15,4.69
-148,25,4.691
-170,20,4.692
-131,12,4.693
-75,15,4.694
-31,19,4.695
-8,11,4.696
10,1,4.697
23,8,4.698
31,21,4.699
33,22,4.7
29,14,4.701
21,7,4.702
17,0,4.703
22,-6,4.704
23,-6,4.705
21,2,4.706
20,9,4.707
24,11,4.708
24,19,4.709
14,33,4.71
0,36,4.711
-1,27,4.712
14,22,4.713
32,22,4.714
43,18,4.715
42,-1,4.716
31,-28,4.717
26,-44,4.718
33,-53,4.719
46,-58,4.72
46,-52,4.721
29,-29,4.722
2,-4,4.723
-23,4,4.724
-47,0,4.725
-70,-3,4.726
-86,2,4.727
-83,6,4.728
-63,8,4.729
-32,10,4.73
7,12,4.731
51,8,4.732
85,2,4.733
108,1,4.734
133,6,4.735
146,10,4.736
108,7,4.737
1,1,4.738
-120,-3,4.739
-179,-10,4.74
-155,-14,4.741
-97,-16,4.742
-55,-19,4.743
-37,-24,4.744
-31,-23,4.745
-22,-8,4.746
-18,9,4.747
-27,14,4.748
-45,5,4.749
-48,-1,4.75
-27,0,4.751
1,5,4.752
14,6,4.753
17,2,4.754
26,0,4.755
38,-2,4.756
40,-4,4.757
42,-7,4.758
58,-9,4.759
76,-11,4.76
72,-7,4.761
46,0,4.762
32,12,4.763
45,22,4.764
60,24,4.765
48,25,4.766
6,18,4.767
-37,12,4.768
-54,6,4.769
-39,2,4.77
-7,2,4.771
23,1,4.772
33,2,4.773
17,1,4.774
-9,-5,4.775
-28,-10,4.776
-32,-13,4.777
-27,-11,4.778
-12,-7,4.779
17,-5,4.78
45,-5,4.781
53,-8,4.782
39,-11,4.783
21,-8,4.784
12,0,4.785
6,9,4.786
0,11,4.787
-4,6,4.788
-2,-1,4.789
1,-6,4.79
5,-9,4.791
16,-11,4.792
29,-12,4.793
32,-15,4.794
19,-12,4.795
-8,-2,4.796
-30,12,4.797
-40,30,4.798
-41,43,4.799
-39,39,4.8
-39,20,4.801
-28,-7,4.802
0,-31,4.803
24,-45,4.804
26,-47,4.805
12,-38,4.806
1,-20,4.807
9,-4,4.808
29,1,4.809
48,2,4.81
45,4,4.811
9,13,4.812
-37,23,4.813
-50,31,4.814
-9,34,4.815
21,23,4.816
23,-1,4.817
28,-24,4.818
43,-35,4.819
54,-36,4.82
52,-33,4.821
52,-24,4.822
57,-8,4.823
59,6,4.824
45,9,4.825
33,7,4.826
24,6,4.827
14,7,4.828
3,9,4.829
-14,12,4.83
-44,17,4.831
-63,16,4.832
-46,9,4.833
-47,1,4.834
-8,4,4.835
21,9,4.836
23,19,4.837
28,29,4.838
42,34,4.839
52,35,4.84
50,20,4.841
50,7,4.842
55,-2,4.843
57,-11,4.844
44,-20,4.845
32,-26,4.846
24,-20,4.847
14,-15,4.848
3,-11,4.849
-13,-8,4.85
-41,-12,4.851
-59,-13,4.852
-43,-3,4.853
-24,12,4.854
-3,49,4.855
5,85,4.856
8,97,4.857
12,67,4.858
19,-2,4.859
25,-81,4.86
30,-129,4.861
39,-132,4.862
56,-99,4.863
67,-44,4.864
58,15,4.865
34,53,4.866
11,52,4.867
-8,31,4.868
-27,16,4.869
-46,10,4.87
-50,-6,4.871
-49,-31,4.872
-56,-47,4.873
-67,-52,4.874
-57,-52,4.875
-29,-48,4.876
-6,-38,4.877
5,-17,4.878
5,0,4.879
0,11,4.88
-4,21,4.881
0,31,4.882
9,36,4.883
11,34,4.884
8,29,4.885
12,26,4.886
20,21,4.887
20,14,4.888
14,9,4.889
14,7,4.89
24,11,4.891
30,22,4.892
33,35,4.893
30,34,4.894
20,19,4.895
8,0,4.896
-9,-9,4.897
-18,-4,4.898
1,3,4.899
12,4,4.9
-5,1,4.901
-19,0,4.902
-18,0,4.903
-18,-3,4.904
-26,-7,4.905
-29,-4,4.906
-18,-3,4.907
-7,-6,4.908
0,-10,4.909
6,-11,4.91
13,-10,4.911
19,-11,4.912
22,-10,4.913
26,-9,4.914
31,-9,4.915
33,-10,4.916
31,-13,4.917
28,-10,4.918
29,-8,4.919
28,-7,4.92
24,-3,4.921
26,4,4.922
35,10,4.923
39,11,4.924
24,9,4.925
-10,5,4.926
-43,0,4.927
-64,-1,4.928
-77,0,4.929
-82,1,4.93
-76,-1,4.931
-54,-4,4.932
-26,-1,4.933
-3,3,4.934
7,1,4.935
4,-5,4.936
1,-9,4.937
9,-7,4.938
32,-6,4.939
65,-7,4.94
94,-6,4.941
108,2,4.942
105,11,4.943
92,14,4.944
72,11,4.945
38,5,4.946
-11,-4,4.947
-61,-9,4.948
-101,-7,4.949
-131,-7,4.95
-150,-12,4.951
-151,-14,4.952
-118,-8,4.953
-58,-4,4.954
4,-3,4.955
37,-6,4.956
39,-3,4.957
37,4,4.958
43,7,4.959
49,3,4.96
38,1,4.961
11,2,4.962
-9,-1,4.963
-7,-8,4.964
4,-9,4.965
13,-8,4.966
13,-7,4.967
13,-3,4.968
24,6,4.969
45,18,4.97
70,18,4.971
89,10,4.972
91,7,4.973
71,11,4.974
39,13,4.975
11,5,4.976
-14,-6,4.977
-48,-8,4.978
-83,-2,4.979
-93,0,4.98
-67,-3,4.981
-21,-6,4.982
28,-8,4.983
67,-9,4.984
74,-10,4.985
31,-8,4.986
-34,-2,4.987
-68,5,4.988
-46,7,4.989
-4,5,4.99
13,3,4.991
5,3,4.992
-4,2,4.993
-6,-4,4.994
-9,-11,4.995
-14,-13,4.996
-8,-12,4.997
18,-4,4.998
54,8,4.999
67,13,5.0
48,10,5.001
24,3,5.002
17,3,5.003
14,14,5.004
-6,25,5.005
-24,24,5.006
-24,11,5.007
-27,-1,5.008
-54,-4,5.009
-88,2,5.01
-88,13,5.011
-62,24,5.012
-33,26,5.013
-4,12,5.014
39,-8,5.015
67,-24,5.016
65,-33,5.017
53,-42,5.018
55,-57,5.019
49,-64,5.02
19,-51,5.021
-9,-25,5.022
-9,-4,5.023
-3,11,5.024
-10,23,5.025
-14,29,5.026
6,23,5.027
24,13,5.028
20,10,5.029
4,13,5.03
-1,13,5.031
3,11,5.032
6,9,5.033
10,4,5.034
17,-1,5.035
16,-5,5.036
5,-6,5.037
-3,-3,5.038
-1,-1,5.039
0,2,5.04
-5,8,5.041
-6,6,5.042
4,-2,5.043
17,-7,5.044
22,-4,5.045
20,0,5.046
15,-1,5.047
0,-3,5.048
-16,0,5.049
-21,4,5.05
-18,1,5.051
-16,-2,5.052
-7,0,5.053
12,0,5.054
33,-2,5.055
46,-7,5.056
32,-9,5.057
9,-3,5.058
-37,2,5.059
-70,6,5.06
-60,5,5.061
-41,5,5.062
2,6,5.063
30,10,5.064
10,11,5.065
-8,6,5.066
-20,-1,5.067
-32,-1,5.068
-44,1,5.069
-42,1,5.07
3,-3,5.071
41,-5,5.072
53,-3,5.073
57,-3,5.074
26,-4,5.075
-6,-4,5.076
-21,0,5.077
-14,3,5.078
2,1,5.079
19,-1,5.08
29,-6,5.081
34,-10,5.082
36,-8,5.083
40,-7,5.084
46,-6,5.085
50,-2,5.086
56,8,5.087
69,18,5.088
84,22,5.089
80,22,5.09
45,8,5.091
-3,-4,5.092
-48,-8,5.093
-102,-12,5.094
-154,-12,5.095
-182,-7,5.096
-138,-5,5.097
-97,-7,5.098
-68,-11,5.099
-40,-14,5.1
-17,-12,5.101
0,-8,5.102
2,-2,5.103
13,6,5.104
46,13,5.105
71,14,5.106
71,13,5.107
63,18,5.108
37,34,5.109
17,54,5.11
20,68,5.111
25,70,5.112
33,67,5.113
40,61,5.114
32,51,5.115
13,38,5.116
5,19,5.117
1,0,5.118
-23,-27,5.119
-58,-61,5.12
-64,-93,5.121
-26,-114,5.122
23,-124,5.123
49,-133,5.124
48,-141,5.125
38,-134,5.126
31,-101,5.127
25,-47,5.128
17,8,5.129
7,40,5.13
2,32,5.131
6,-11,5.132
9,-63,5.133
8,-99,5.134
2,-95,5.135
-2,-51,5.136
-4,10,5.137
-3,64,5.138
3,86,5.139
11,80,5.14
11,72,5.141
3,76,5.142
-2,83,5.143
2,77,5.144
4,61,5.145
-2,47,5.146
-6,39,5.147
-1,30,5.148
4,20,5.149
2,14,5.15
-5,13,5.151
-7,11,5.152
-2,10,5.153
0,10,5.154
0,10,5.155
-2,8,5.156
-5,1,5.157
-9,-1,5.158
-4,-2,5.159
9,-3,5.16
21,-1,5.161
24,1,5.162
19,0,5.163
10,-4,5.164
-2,-5,5.165
-12,-1,5.166
-18,2,5.167
-21,-1,5.168
-23,-7,5.169
-17,-8,5.17
-4,-6,5.171
5,0,5.172
0,3,5.173
-16,0,5.174
-26,-4,5.175
-27,-1,5.176
-23,0,5.177
-18,-1,5.178
0,-7,5.179
26,-10,5.18
43,-9,5.181
48,-6,5.182
52,-10,5.183
62,-12,5.184
58,-9,5.185
27,-8,5.186
-15,-11,5.187
-40,-14,5.188
-38,-5,5.189
-19,7,5.19
-5,10,5.191
-7,0,5.192
-19,-8,5.193
-23,-5,5.194
-11,4,5.195
-1,6,5.196
-4,-1,5.197
2,-5,5.198
39,-6,5.199
73,-5,5.2
63,-5,5.201
33,-4,5.202
43,-4,5.203
78,-5,5.204
57,-6,5.205
-36,-6,5.206
-125,-3,5.207
-141,-3,5.208
-108,-2,5.209
-75,4,5.21
-40,11,5.211
5,11,5.212
34,5,5.213
22,0,5.214
-4,1,5.215
-1,3,5.216
28,0,5.217
45,-1,5.218
38,-2,5.219
31,-4,5.22
35,-7,5.221
31,-11,5.222
19,-16,5.223
14,-19,5.224
20,-17,5.225
23,-8,5.226
18,1,5.227
12,2,5.228
8,-3,5.229
6,0,5.23
2,17,5.231
2,41,5.232
6,52,5.233
4,39,5.234
3,13,5.235
1,-8,5.236
0,-13,5.237
-2,-7,5.238
-2,-5,5.239
-1,-9,5.24
-2,-9,5.241
-7,-6,5.242
-8,-4,5.243
-4,-4,5.244
-1,-4,5.245
0,-5,5.246
0,-5,5.247
1,-4,5.248
1,-1,5.249
0,-2,5.25
-2,-7,5.251
0,-10,5.252
1,-9,5.253
-2,-10,5.254
-7,-11,5.255
-10,-9,5.256
-9,-3,5.257
-7,1,5.258
0,0,5.259
12,-1,5.26
15,-1,5.261
7,-3,5.262
0,-9,5.263
2,-13,5.264
8,-8,5.265
6,1,5.266
0,7,5.267
-2,8,5.268
-1,5,5.269
-1,2,5.27
-4,0,5.271
-1,0,5.272
4,3,5.273
7,4,5.274
5,3,5.275
2,1,5.276
-1,-2,5.277
-1,-1,5.278
2,0,5.279
7,0,5.28
7,0,5.281
1,2,5.282
-3,5,5.283
-3,5,5.284
-1,2,5.285
0,1,5.286
3,2,5.287
8,3,5.288
7,2,5.289
-2,2,5.29
-12,5,5.291
-12,8,5.292
-5,8,5.293
0,1,5.294
3,-6,5.295
3,-10,5.296
7,-10,5.297
12,-6,5.298
18,-5,5.299
18,-6,5.3
12,-3,5.301
5,4,5.302
3,10,5.303
2,4,5.304
1,-4,5.305
-2,-6,5.306
-1,-4,5.307
6,0,5.308
15,2,5.309
17,3,5.31
12,5,5.311
4,7,5.312
1,11,5.313
3,8,5.314
0,-2,5.315
-9,-14,5.316
-17,-19,5.317
-13,-11,5.318
1,-4,5.319
16,-1,5.32
17,2,5.321
12,8,5.322
11,13,5.323
16,14,5.324
21,10,5.325
19,5,5.326
13,1,5.327
4,0,5.328
-12,0,5.329
-36,1,5.33
-54,0,5.331
-47,-3,5.332
-22,-6,5.333
-2,-11,5.334
0,-16,5.335
-7,-17,5.336
-6,-15,5.337
1,-11,5.338
12,-7,5.339
22,-2,5.34
27,2,5.341
24,3,5.342
14,0,5.343
8,-3,5.344
11,0,5.345
15,3,5.346
14,-1,5.347
10,-7,5.348
9,-3,5.349
8,8,5.35
7,17,5.351
7,11,5.352
9,4,5.353
4,0,5.354
-2,2,5.355
-5,0,5.356
-4,-10,5.357
-2,-16,5.358
2,-12,5.359
8,-1,5.36
7,7,5.361
-1,9,5.362
-3,8,5.363
3,4,5.364
10,3,5.365
7,3,5.366
0,2,5.367
0,1,5.368
2,-4,5.369
-1,-6,5.37
-6,-4,5.371
-5,-3,5.372
0,-1,5.373
2,-5,5.374
-2,-4,5.375
-5,0,5.376
-7,-1,5.377
-7,-3,5.378
-3,-1,5.379
5,3,5.38
9,6,5.381
8,6,5.382
6,4,5.383
7,4,5.384
7,5,5.385
2,4,5.386
-1,2,5.387
0,0,5.388
2,0,5.389
1,0,5.39
-1,-1,5.391
3,-3,5.392
11,-4,5.393
15,-4,5.394
14,-3,5.395
8,-4,5.396
1,-8,5.397
1,-9,5.398
8,-6,5.399
14,-3,5.4
9,0,5.401
0,3,5.402
0,4,5.403
6,2,5.404
9,1,5.405
3,2,5.406
0,3,5.407
0,1,5.408
0,1,5.409
0,2,5.41
0,1,5.411
4,-1,5.412
7,0,5.413
3,-1,5.414
-1,-3,5.415
-6,-7,5.416
-12,-8,5.417
-17,-5,5.418
-14,-1,5.419
-3,0,5.42
0,1,5.421
-5,3,5.422
-4,4,5.423
4,0,5.424
10,-1,5.425
5,4,5.426
-1,5,5.427
-2,-2,5.428
-1,-9,5.429
-3,-7,5.43
-3,-4,5.431
1,-3,5.432
5,-4,5.433
3,-7,5.434
2,-5,5.435
2,-2,5.436
1,-1,5.437
0,5,5.438
3,13,5.439
11,16,5.44
12,14,5.441
4,10,5.442
-1,5,5.443
0,0,5.444
2,-2,5.445
0,-2,5.446
0,-2,5.447
3,-2,5.448
2,-3,5.449
-2,-2,5.45
-1,-4,5.451
6,-9,5.452
14,-10,5.453
12,-8,5.454
6,-4,5.455
1,-3,5.456
-1,-8,5.457
-3,-8,5.458
1,-5,5.459
10,-2,5.46
14,1,5.461
11,4,5.462
7,3,5.463
6,0,5.464
4,0,5.465
-3,4,5.466
-7,4,5.467
-2,0,5.468
5,0,5.469
9,3,5.47
9,5,5.471
7,-1,5.472
3,-3,5.473
-1,-3,5.474
-2,-3,5.475
-5,-6,5.476
-12,-11,5.477
-17,-7,5.478
-10,0,5.479
3,1,5.48
8,0,5.481
3,1,5.482
5,3,5.483
15,2,5.484
22,1,5.485
18,3,5.486
18,3,5.487
21,-1,5.488
19,-2,5.489
6,-2,5.49
-2,-2,5.491
1,-4,5.492
11,-4,5.493
11,-2,5.494
3,-3,5.495
-2,-6,5.496
-4,-6,5.497
-3,0,5.498
-1,3,5.499
1,3,5.5
2,3,5.501
-1,3,5.502
-1,0,5.503
0,-4,5.504
1,-5,5.505
-1,-2,5.506
-4,-3,5.507
-5,-6,5.508
-6,-4,5.509
-6,0,5.51
-5,-1,5.511
-4,-5,5.512
-4,-5,5.513
-7,-6,5.514
-6,-6,5.515
-4,-7,5.516
-6,-6,5.517
-8,-6,5.518
-7,-7,5.519
0,-5,5.52
7,3,5.521
11,11,5.522
16,10,5.523
22,4,5.524
21,2,5.525
13,7,5.526
6,7,5.527
3,3,5.528
2,0,5.529
-2,2,5.53
-4,4,5.531
-2,1,5.532
2,1,5.533
0,3,5.534
-1,7,5.535
-1,4,5.536
2,-4,5.537
6,-4,5.538
11,3,5.539
15,8,5.54
9,6,5.541
-1,1,5.542
-5,-4,5.543
-2,-7,5.544
0,-6,5.545
-2,-1,5.546
-5,1,5.547
-5,-2,5.548
-3,-4,5.549
4,-4,5.55
14,-1,5.551
20,0,5.552
19,0,5.553
12,0,5.554
7,-1,5.555
5,-3,5.556
0,-7,5.557
-7,-8,5.558
-10,-4,5.559
-4,-1,5.56
3,0,5.561
10,1,5.562
16,2,5.563
19,1,5.564
16,0,5.565
6,3,5.566
0,4,5.567
1,3,5.568
2,-1,5.569
-1,-3,5.57
-4,-4,5.571
-1,-3,5.572
5,-2,5.573
5,-4,5.574
0,-5,5.575
-3,-5,5.576
-5,-6,5.577
-4,-3,5.578
-2,0,5.579
2,1,5.58
3,0,5.581
-1,0,5.582
-2,-1,5.583
3,-3,5.584
8,-2,5.585
6,1,5.586
1,4,5.587
0,1,5.588
1,-3,5.589
-1,-2,5.59
-2,0,5.591
2,0,5.592
8,-1,5.593
4,-1,5.594
-3,-1,5.595
-11,-3,5.596
-11,-8,5.597
-7,-5,5.598
0,0,5.599
10,4,5.6
13,6,5.601
6,8,5.602
-3,8,5.603
-4,5,5.604
0,5,5.605
3,8,5.606
0,6,5.607
-2,0,5.608
0,-5,5.609
3,0,5.61
3,4,5.611
0,-1,5.612
3,-8,5.613
11,-9,5.614
15,-4,5.615
8,-4,5.616
-3,-9,5.617
-6,-5,5.618
1,3,5.619
11,5,5.62
13,3,5.621
8,10,5.622
3,20,5.623
-2,19,5.624
-5,10,5.625
-6,1,5.626
-7,0,5.627
-8,2,5.628
-6,0,5.629
6,-1,5.63
20,-2,5.631
24,-5,5.632
20,-7,5.633
12,-8,5.634
9,-6,5.635
7,-8,5.636
3,-15,5.637
0,-15,5.638
2,-7,5.639
7,-3,5.64
9,-3,5.641
4,-5,5.642
0,-3,5.643
0,0,5.644
3,2,5.645
7,3,5.646
9,3,5.647
7,1,5.648
3,-1,5.649
1,-2,5.65
-1,-4,5.651
-5,-4,5.652
-8,-4,5.653
-15,-4,5.654
-19,-3,5.655
-21,-5,5.656
-16,-6,5.657
-7,-2,5.658
1,3,5.659
6,5,5.66
4,6,5.661
1,8,5.662
5,8,5.663
15,1,5.664
19,-5,5.665
17,-5,5.666
13,-2,5.667
13,-2,5.668
14,-5,5.669
13,-2,5.67
10,5,5.671
10,13,5.672
10,19,5.673
9,21,5.674
2,23,5.675
-7,19,5.676
-14,8,5.677
-13,-3,5.678
-6,-11,5.679
3,-15,5.68
10,-16,5.681
14,-14,5.682
10,-13,5.683
2,-14,5.684
-9,-15,5.685
-15,-14,5.686
-12,-11,5.687
-3,-11,5.688
2,-8,5.689
4,-4,5.69
5,1,5.691
4,2,5.692
-2,2,5.693
-10,3,5.694
-15,6,5.695
-16,4,5.696
-14,-2,5.697
-8,-2,5.698
2,1,5.699
13,3,5.7
13,2,5.701
7,3,5.702
8,3,5.703
15,1,5.704
19,2,5.705
20,7,5.706
23,9,5.707
25,4,5.708
21,-3,5.709
11,-7,5.71
2,-8,5.711
1,-5,5.712
3,-2,5.713
2,2,5.714
0,4,5.715
-5,4,5.716
-9,4,5.717
-9,7,5.718
-1,6,5.719
11,2,5.72
14,0,5.721
4,3,5.722
-4,3,5.723
-4,-2,5.724
-3,-7,5.725
-5,-8,5.726
-8,-7,5.727
-5,-7,5.728
4,-5,5.729
10,-1,5.73
10,-2,5.731
6,-4,5.732
0,-3,5.733
-4,0,5.734
-4,0,5.735
-4,-4,5.736
-5,-7,5.737
-4,-4,5.738
1,-1,5.739
8,3,5.74
7,8,5.741
0,11,5.742
-5,8,5.743
-3,0,5.744
-2,0,5.745
0,5,5.746
2,7,5.747
9,5,5.748
11,6,5.749
4,15,5.75
1,24,5.751
7,24,5.752
16,17,5.753
16,10,5.754
10,8,5.755
1,11,5.756
-6,10,5.757
-9,1,5.758
-5,-15,5.759
2,-34,5.76
1,-47,5.761
-9,-50,5.762
-18,-49,5.763
-12,-44,5.764
7,-31,5.765
26,-13,5.766
34,-2,5.767
24,3,5.768
5,3,5.769
-7,7,5.77
-8,9,5.771
-5,5,5.772
-3,3,5.773
-2,5,5.774
2,10,5.775
5,12,5.776
3,8,5.777
-2,7,5.778
-3,11,5.779
0,13,5.78
0,13,5.781
-4,17,5.782
-9,21,5.783
-12,18,5.784
-14,9,5.785
-6,2,5.786
9,1,5.787
22,1,5.788
25,2,5.789
21,1,5.79
19,2,5.791
19,1,5.792
16,-2,5.793
6,-9,5.794
2,-14,5.795
5,-14,5.796
4,-13,5.797
0,-14,5.798
0,-15,5.799
5,-14,5.8
6,-7,5.801
2,0,5.802
1,3,5.803
7,3,5.804
13,5,5.805
11,6,5.806
3,0,5.807
-3,-6,5.808
-8,-7,5.809
-11,-4,5.81
-15,-3,5.811
-20,-3,5.812
-23,-2,5.813
-22,-3,5.814
-14,-6,5.815
-6,-8,5.816
-5,-10,5.817
-7,-7,5.818
-8,-1,5.819
-6,6,5.82
-6,11,5.821
0,10,5.822
14,4,5.823
27,-3,5.824
27,-7,5.825
23,-10,5.826
21,-9,5.827
23,-4,5.828
18,4,5.829
8,10,5.83
3,14,5.831
7,23,5.832
12,35,5.833
10,34,5.834
3,17,5.835
-5,-1,5.836
-16,-8,5.837
-24,-2,5.838
-31,2,5.839
-39,0,5.84
-46,0,5.841
-41,-3,5.842
-27,-8,5.843
-16,-12,5.844
-23,-10,5.845
-49,-7,5.846
-74,-8,5.847
-80,-12,5.848
-59,-12,5.849
-19,-7,5.85
19,-5,5.851
41,-7,5.852
56,-9,5.853
80,-9,5.854
112,-8,5.855
132,-6,5.856
139,-6,5.857
146,-4,5.858
150,1,5.859
135,5,5.86
99,11,5.861
67,12,5.862
51,7,5.863
40,0,5.864
23,2,5.865
3,8,5.866
-16,9,5.867
-35,4,5.868
-53,-1,5.869
-59,-4,5.87
-51,-8,5.871
-42,-10,5.872
-41,-9,5.873
-50,-4,5.874
-57,1,5.875
-59,2,5.876
-54,-1,5.877
-46,-3,5.878
-39,-5,5.879
-34,-6,5.88
-32,-5,5.881
-33,-2,5.882
-31,1,5.883
-27,2,5.884
-23,5,5.885
-21,8,5.886
-15,9,5.887
-7,7,5.888
-3,7,5.889
-4,9,5.89
-8,8,5.891
-7,3,5.892
-1,-2,5.893
0,-3,5.894
-7,0,5.895
-18,-1,5.896
-22,-8,5.897
-12,-12,5.898
4,-9,5.899
17,-2,5.9
19,2,5.901
14,0,5.902
10,-2,5.903
14,-3,5.904
22,0,5.905
25,-1,5.906
23,-3,5.907
20,-5,5.908
18,-4,5.909
16,-4,5.91
14,-6,5.911
13,-7,5.912
12,-4,5.913
9,-3,5.914
7,-3,5.915
5,-1,5.916
4,0,5.917
0,2,5.918
0,3,5.919
6,4,5.92
10,5,5.921
7,8,5.922
2,11,5.923
6,10,5.924
13,8,5.925
17,6,5.926
16,6,5.927
14,5,5.928
13,2,5.929
11,-1,5.93
6,-3,5.931
2,-3,5.932
-3,-5,5.933
-9,-12,5.934
-13,-17,5.935
-14,-14,5.936
-9,-11,5.937
2,-8,5.938
19,-6,5.939
29,-3,5.94
25,2,5.941
14,7,5.942
8,7,5.943
7,4,5.944
6,2,5.945
3,1,5.946
1,-1,5.947
-1,-2,5.948
-6,0,5.949
-9,5,5.95
-4,8,5.951
3,4,5.952
9,1,5.953
8,-1,5.954
2,-2,5.955
-11,-5,5.956
-24,-12,5.957
-26,-15,5.958
-11,-11,5.959
5,-3,5.96
7,4,5.961
-4,5,5.962
-7,-1,5.963
-1,-6,5.964
6,-1,5.965
9,5,5.966
14,4,5.967
25,-3,5.968
36,-4,5.969
40,4,5.97
34,8,5.971
20,5,5.972
7,3,5.973
-5,5,5.974
-15,8,5.975
-24,6,5.976
-28,0,5.977
-19,-1,5.978
6,-2,5.979
29,-3,5.98
32,0,5.981
17,5,5.982
2,2,5.983
-1,-5,5.984
0,-8,5.985
-1,-6,5.986
-6,-7,5.987
-11,-10,5.988
-13,-10,5.989
-18,-5,5.99
-25,0,5.991
-33,-2,5.992
-37,0,5.993
-34,5,5.994
-30,12,5.995
-33,15,5.996
-42,13,5.997
-44,13,5.998
-33,14,5.999
-15,10,6.0
1,5,6.001
19,3,6.002
42,4,6.003
67,-1,6.004
81,-8,6.005
82,-8,6.006
83,-4,6.007
89,-1,6.008
82,-3,6.009
55,-7,6.01
25,-6,6.011
16,-6,6.012
18,-7,6.013
15,-7,6.014
1,-7,6.015
-12,-6,6.016
-19,-6,6.017
-27,-4,6.018
-30,-3,6.019
-23,-2,6.02
-18,-2,6.021
-26,2,6.022
-38,5,6.023
-34,4,6.024
-17,1,6.025
-6,3,6.026
-10,6,6.027
-20,7,6.028
-40,6,6.029
-78,3,6.03
-110,-1,6.031
-106,-4,6.032
-63,-3,6.033
0,0,6.034
54,2,6.035
98,4,6.036
129,0,6.037
135,-3,6.038
109,-6,6.039
68,-9,6.04
28,-9,6.041
-4,-7,6.042
-17,-5,6.043
-4,-5,6.044
20,-3,6.045
28,-4,6.046
10,-7,6.047
-8,-9,6.048
-14,-10,6.049
-14,-6,6.05
-22,-5,6.051
-37,-7,6.052
-49,-7,6.053
-63,-5,6.054
-69,2,6.055
-70,10,6.056
-54,12,6.057
-36,13,6.058
-10,9,6.059
17,4,6.06
50,3,6.061
79,13,6.062
91,28,6.063
93,33,6.064
62,22,6.065
37,-1,6.066
35,-16,6.067
36,-8,6.068
45,19,6.069
48,43,6.07
30,39,6.071
16,7,6.072
17,-24,6.073
17,-39,6.074
5,-39,6.075
-4,-41,6.076
-16,-51,6.077
-38,-57,6.078
-58,-45,6.079
-61,-35,6.08
-51,-29,6.081
-49,-24,6.082
-55,-19,6.083
-57,-11,6.084
-49,3,6.085
-45,15,6.086
-57,14,6.087
-83,15,6.088
-114,26,6.089
-133,36,6.09
-119,42,6.091
-58,48,6.092
19,46,6.093
84,43,6.094
121,30,6.095
138,12,6.096
137,0,6.097
97,3,6.098
19,9,6.099
-50,10,6.1
-54,8,6.101
10,19,6.102
88,61,6.103
130,143,6.104
139,222,6.105
140,220,6.106
140,99,6.107
106,-77,6.108
30,-202,6.109
-45,-243,6.11
-71,-246,6.111
-57,-241,6.112
-49,-210,6.113
-68,-138,6.114
-81,-59,6.115
-54,-12,6.116
-10,6,6.117
9,30,6.118
-3,63,6.119
-10,86,6.12
8,86,6.121
34,69,6.122
29,40,6.123
-32,1,6.124
-127,-33,6.125
-194,-45,6.126
-171,-39,6.127
-68,-27,6.128
33,-10,6.129
82,21,6.13
110,64,6.131
173,92,6.132
246,93,6.133
257,76,6.134
191,56,6.135
121,35,6.136
35,17,6.137
-29,14,6.138
-30,38,6.139
-31,93,6.14
-35,176,6.141
-43,247,6.142
-65,232,6.143
-89,101,6.144
-118,-80,6.145
-139,-219,6.146
-133,-289,6.147
-122,-319,6.148
-94,-328,6.149
-58,-295,6.15
-4,-219,6.151
45,-134,6.152
77,-75,6.153
100,-43,6.154
84,-11,6.155
60,24,6.156
31,64,6.157
-4,91,6.158
-23,75,6.159
-20,67,6.16
-10,86,6.161
-15,105,6.162
-26,125,6.163
-30,137,6.164
-24,125,6.165
-18,120,6.166
-10,138,6.167
-3,171,6.168
0,251,6.169
-4,317,6.17
-8,341,6.171
-5,296,6.172
0,44,6.173
-4,-223,6.174
-17,-474,6.175
-48,-567,6.176
-90,-555,6.177
-122,-513,6.178
-118,-433,6.179
-83,-287,6.18
-45,-129,6.181
-15,-47,6.182
44,-21,6.183
148,43,6.184
257,163,6.185
310,242,6.186
287,228,6.187
223,175,6.188
147,156,6.189
75,177,6.19
15,207,6.191
-21,234,6.192
-35,243,6.193
-48,208,6.194
-65,119,6.195
-79,4,6.196
-77,-94,6.197
-64,-133,6.198
-50,-103,6.199
-41,-31,6.2
-37,28,6.201
-37,33,6.202
-34,-3,6.203
-26,-35,6.204
-20,-47,6.205
-20,-68,6.206
-28,-114,6.207
-35,-149,6.208
-37,-128,6.209
-39,-71,6.21
-43,-33,6.211
-44,-29,6.212
-37,-18,6.213
-17,22,6.214
11,60,6.215
34,78,6.216
38,109,6.217
27,184,6.218
19,239,6.219
18,197,6.22
10,68,6.221
-8,-56,6.222
-23,-109,6.223
-29,-115,6.224
-36,-137,6.225
-45,-200,6.226
-45,-262,6.227
-32,-254,6.228
-11,-174,6.229
7,-89,6.23
29,-48,6.231
56,-19,6.232
81,42,6.233
102,111,6.234
116,148,6.235
110,189,6.236
72,311,6.237
16,485,6.238
-14,547,6.239
-7,377,6.24
3,38,6.241
-13,-288,6.242
-41,-479,6.243
-44,-536,6.244
-21,-514,6.245
-5,-423,6.246
-16,-259,6.247
-38,-76,6.248
-48,30,6.249
-29,51,6.25
4,72,6.251
20,138,6.252
5,190,6.253
-21,179,6.254
-10,148,6.255
28,150,6.256
44,159,6.257
20,129,6.258
4,93,6.259
38,126,6.26
88,225,6.261
103,307,6.262
83,302,6.263
67,205,6.264
71,62,6.265
83,-68,6.266
92,-170,6.267
80,-264,6.268
12,-346,6.269
-96,-374,6.27
-165,-336,6.271
-138,-285,6.272
-64,-253,6.273
-15,-200,6.274
-5,-96,6.275
6,7,6.276
34,43,6.277
40,44,6.278
15,70,6.279
-14,115,6.28
-29,130,6.281
-37,111,6.282
-46,94,6.283
-50,90,6.284
-53,83,6.285
-57,63,6.286
-55,44,6.287
-42,32,6.288
-39,25,6.289
-70,25,6.29
-113,29,6.291
-130,25,6.292
-119,19,6.293
-110,14,6.294
-116,13,6.295
-111,6,6.296
-73,-11,6.297
-31,-21,6.298
26,-23,6.299
65,-21,6.3
45,-19,6.301
30,-15,6.302
30,-10,6.303
48,-6,6.304
122,0,6.305
197,5,6.306
272,2,6.307
321,-11,6.308
290,-20,6.309
262,-16,6.31
242,-5,6.311
209,0,6.312
142,5,6.313
90,15,6.314
110,20,6.315
122,18,6.316
68,-7,6.317
-11,-26,6.318
-63,-21,6.319
-93,-16,6.32
-125,-13,6.321
-145,-7,6.322
-146,5,6.323
-143,14,6.324
-136,12,6.325
-110,8,6.326
-82,-1,6.327
-83,-10,6.328
-101,-15,6.329
-98,-17,6.33
-74,-9,6.331
-67,-1,6.332
-73,0,6.333
-71,5,6.334
-60,16,6.335
-66,30,6.336
-85,34,6.337
-85,31,6.338
-62,16,6.339
-46,-6,6.34
-44,-20,6.341
-32,-11,6.342
0,16,6.343
28,45,6.344
36,61,6.345
35,45,6.346
39,5,6.347
36,-31,6.348
21,-55,6.349
4,-83,6.35
1,-109,6.351
9,-95,6.352
16,-40,6.353
19,-9,6.354
21,-42,6.355
20,-90,6.356
22,-79,6.357
31,-19,6.358
44,40,6.359
50,111,6.36
46,214,6.361
43,274,6.362
42,195,6.363
37,43,6.364
28,-22,6.365
22,16,6.366
21,8,6.367
10,-105,6.368
-16,-187,6.369
-40,-149,6.37
-38,-101,6.371
-20,-144,6.372
-2,-185,6.373
12,-124,6.374
19,-30,6.375
10,-25,6.376
-14,-55,6.377
-36,37,6.378
-28,246,6.379
14,436,6.38
72,508,6.381
114,438,6.382
121,212,6.383
82,-95,6.384
15,-317,6.385
-45,-395,6.386
-65,-428,6.387
-40,-457,6.388
12,-372,6.389
77,-155,6.39
139,18,6.391
174,62,6.392
156,103,6.393
80,211,6.394
-11,214,6.395
-68,9,6.396
-76,-196,6.397
-62,-170,6.398
-60,-23,6.399
-70,22,6.4
-70,-10,6.401
-56,31,6.402
-42,114,6.403
-38,123,6.404
-35,97,6.405
-29,130,6.406
-24,168,6.407
-25,120,6.408
-26,47,6.409
-28,47,6.41
-34,90,6.411
-39,117,6.412
-36,149,6.413
-19,180,6.414
1,114,6.415
19,-61,6.416
27,-168,6.417
31,-65,6.418
24,113,6.419
14,175,6.42
-1,132,6.421
-20,80,6.422
-49,-28,6.423
-69,-265,6.424
-60,-492,6.425
-45,-516,6.426
-14,-381,6.427
19,-275,6.428
61,-208,6.429
95,-66,6.43
104,104,6.431
109,140,6.432
98,79,6.433
84,76,6.434
58,146,6.435
43,156,6.436
43,108,6.437
39,140,6.438
31,239,6.439
23,261,6.44
22,231,6.441
12,314,6.442
-17,468,6.443
-50,412,6.444
-71,33,6.445
-75,-435,6.446
-69,-707,6.447
-62,-739,6.448
-56,-626,6.449
-52,-406,6.45
-46,-106,6.451
-35,147,6.452
-19,234,6.453
3,181,6.454
22,106,6.455
17,60,6.456
-29,39,6.457
-99,95,6.458
-153,286,6.459
-157,512,6.46
-106,542,6.461
-15,266,6.462
89,-144,6.463
191,-398,6.464
270,-368,6.465
297,-184,6.466
241,-65,6.467
118,-90,6.468
5,-154,6.469
-23,-143,6.47
16,-69,6.471
46,-13,6.472
32,16,6.473
16,93,6.474
30,265,6.475
32,430,6.476
-18,392,6.477
-76,85,6.478
-76,-279,6.479
-35,-389,6.48
-21,-198,6.481
-45,2,6.482
-63,-29,6.483
-66,-197,6.484
-79,-260,6.485
-93,-168,6.486
-82,-46,6.487
-54,32,6.488
-42,76,6.489
-42,95,6.49
-31,102,6.491
-6,138,6.492
10,213,6.493
13,293,6.494
14,327,6.495
10,278,6.496
-6,110,6.497
-21,-115,6.498
-20,-237,6.499
-18,-189,6.5
-42,-142,6.501
-76,-274,6.502
-76,-480,6.503
-31,-496,6.504
28,-261,6.505
85,48,6.506
146,284,6.507
204,433,6.508
215,495,6.509
157,447,6.51
68,320,6.511
27,182,6.512
52,60,6.513
89,-80,6.514
62,-196,6.515
-26,-209,6.516
-103,-126,6.517
-114,-35,6.518
-92,-11,6.519
-84,-46,6.52
-90,-107,6.521
-72,-154,6.522
-32,-142,6.523
-3,-61,6.524
2,13,6.525
8,0,6.526
19,-62,6.527
17,-47,6.528
-4,64,6.529
-21,160,6.53
-19,151,6.531
-17,84,6.532
-26,36,6.533
-48,3,6.534
-60,-35,6.535
-63,-82,6.536
-54,-161,6.537
-29,-282,6.538
15,-359,6.539
70,-247,6.54
124,66,6.541
165,368,6.542
176,437,6.543
132,264,6.544
34,15,6.545
-84,-167,6.546
-170,-227,6.547
-193,-159,6.548
-151,-11,6.549
-65,114,6.55
34,131,6.551
114,61,6.552
160,-9,6.553
179,-32,6.554
177,-29,6.555
140,-40,6.556
72,-51,6.557
14,15,6.558
4,174,6.559
23,299,6.56
16,255,6.561
-26,75,6.562
-58,-58,6.563
-58,-36,6.564
-50,37,6.565
-57,1,6.566
-66,-155,6.567
-60,-286,6.568
-43,-269,6.569
-32,-120,6.57
-27,41,6.571
-24,97,6.572
-25,44,6.573
-44,-35,6.574
-69,-41,6.575
-80,4,6.576
-60,17,6.577
-21,4,6.578
12,25,6.579
32,63,6.58
57,66,6.581
93,82,6.582
122,160,6.583
117,171,6.584
85,-37,6.585
46,-341,6.586
13,-486,6.587
-9,-450,6.588
-17,-390,6.589
-8,-279,6.59
0,19,6.591
-8,405,6.592
-18,599,6.593
-22,526,6.594
-22,362,6.595
-26,240,6.596
-13,134,6.597
38,41,6.598
94,22,6.599
94,60,6.6
21,63,6.601
-67,5,6.602
-99,-56,6.603
-68,-84,6.604
-27,-77,6.605
-23,-50,6.606
-46,-86,6.607
-59,-269,6.608
-47,-500,6.609
-24,-533,6.61
-9,-287,6.611
-3,37,6.612
1,227,6.613
11,287,6.614
22,290,6.615
16,238,6.616
-17,123,6.617
-58,27,6.618
-72,10,6.619
-50,46,6.62
-20,77,6.621
-8,82,6.622
8,44,6.623
52,-35,6.624
110,-84,6.625
142,-41,6.626
132,28,6.627
93,16,6.628
44,-61,6.629
9,-92,6.63
0,-38,6.631
6,32,6.632
4,64,6.633
-6,58,6.634
4,32,6.635
46,-13,6.636
79,-60,6.637
61,-80,6.638
13,-91,6.639
-19,-107,6.64
-17,-112,6.641
7,-136,6.642
34,-277,6.643
51,-499,6.644
29,-515,6.645
-50,-119,6.646
-156,451,6.647
-209,734,6.648
-156,611,6.649
-29,354,6.65
88,144,6.651
142,-89,6.652
133,-354,6.653
72,-524,6.654
6,-464,6.655
-36,-214,6.656
-9,111,6.657
8,395,6.658
-7,487,6.659
-21,368,6.66
-33,239,6.661
-35,243,6.662
-5,248,6.663
17,111,6.664
19,-43,6.665
11,-51,6.666
-29,-6,6.667
-62,-81,6.668
-75,-279,6.669
-81,-521,6.67
-63,-742,6.671
-42,-756,6.672
-12,-395,6.673
21,168,6.674
62,488,6.675
75,673,6.676
74,455,6.677
81,256,6.678
86,116,6.679
62,12,6.68
18,18,6.681
-13,16,6.682
-22,-15,6.683
-24,-69,6.684
-30,-190,6.685
-30,-276,6.686
-13,-258,6.687
18,-232,6.688
46,-184,6.689
47,-132,6.69
16,-69,6.691
-32,-16,6.692
-68,1,6.693
-88,28,6.694
-104,96,6.695
-125,196,6.696
-125,276,6.697
-81,247,6.698
-11,113,6.699
36,28,6.7
49,74,6.701
62,138,6.702
99,92,6.703
129,-38,6.704
127,-160,6.705
121,-244,6.706
142,-275,6.707
160,-229,6.708
120,-158,6.709
32,-152,6.71
-28,-178,6.711
-22,-116,6.712
1,14,6.713
-5,57,6.714
-25,-110,6.715
-29,-399,6.716
-21,-628,6.717
-32,-564,6.718
-54,-119,6.719
-48,472,6.72
-20,820,6.721
-6,785,6.722
-18,529,6.723
-32,225,6.724
-34,9,6.725
-29,84,6.726
-25,487,6.727
-14,824,6.728
11,703,6.729
53,312,6.73
99,111,6.731
119,106,6.732
83,-6,6.733
-12,-266,6.734
-105,-405,6.735
-143,-401,6.736
-130,-460,6.737
-103,-518,6.738
-75,-354,6.739
-43,-67,6.74
-14,32,6.741
1,-73,6.742
9,-167,6.743
14,-225,6.744
10,-340,6.745
-12,-392,6.746
-47,-218,6.747
-105,23,6.748
-185,70,6.749
-236,-4,6.75
-184,74,6.751
-42,299,6.752
85,419,6.753
138,353,6.754
150,251,6.755
165,192,6.756
154,84,6.757
75,-70,6.758
-20,-133,6.759
-38,-69,6.76
37,-24,6.761
164,-81,6.762
316,-156,6.763
466,-199,6.764
536,-278,6.765
456,-395,6.766
258,-389,6.767
40,-159,6.768
-114,147,6.769
-165,282,6.77
-122,175,6.771
-47,-12,6.772
-6,-94,6.773
-8,-38,6.774
-38,60,6.775
-104,104,6.776
-205,87,6.777
-270,67,6.778
-245,70,6.779
-177,88,6.78
-147,105,6.781
-151,92,6.782
-136,9,6.783
-104,-138,6.784
-98,-278,6.785
-107,-329,6.786
-87,-256,6.787
-41,-62,6.788
-8,184,6.789
6,335,6.79
23,279,6.791
44,96,6.792
55,-38,6.793
55,-82,6.794
54,-60,6.795
47,81,6.796
28,399,6.797
10,717,6.798
11,718,6.799
22,346,6.8
28,-156,6.801
32,-567,6.802
46,-782,6.803
57,-675,6.804
51,-239,6.805
42,200,6.806
46,263,6.807
44,-7,6.808
15,-220,6.809
-25,-127,6.81
-42,214,6.811
-32,605,6.812
-18,769,6.813
-15,459,6.814
-17,-216,6.815
-21,-713,6.816
-29,-608,6.817
-36,-87,6.818
-26,352,6.819
-2,491,6.82
25,433,6.821
46,291,6.822
61,111,6.823
64,-61,6.824
50,-235,6.825
30,-455,6.826
18,-638,6.827
11,-577,6.828
2,-243,6.829
-11,125,6.83
-17,307,6.831
-13,321,6.832
1,278,6.833
21,186,6.834
33,45,6.835
23,-51,6.836
-1,-25,6.837
-15,47,6.838
0,30,6.839
25,-68,6.84
27,-128,6.841
7,-109,6.842
-13,-81,6.843
-19,-88,6.844
-14,-107,6.845
-3,-143,6.846
14,-247,6.847
30,-440,6.848
36,-682,6.849
34,-875,6.85
28,-829,6.851
19,-371,6.852
8,350,6.853
-1,1024,6.854
1,1266,6.855
7,1060,6.856
11,666,6.857
21,312,6.858
39,86,6.859
34,-1,6.86
-17,-61,6.861
-82,-216,6.862
-100,-365,6.863
-63,-286,6.864
-27,-35,6.865
-30,75,6.866
-37,-18,6.867
-12,-45,6.868
26,91,6.869
42,154,6.87
51,30,6.871
73,-67,6.872
89,-11,6.873
54,50,6.874
-10,-50,6.875
-50,-299,6.876
-52,-655,6.877
-63,-1028,6.878
-96,-1104,6.879
-107,-581,6.88
-73,322,6.881
-27,999,6.882
-8,1156,6.883
-11,1004,6.884
-5,749,6.885
16,398,6.886
30,47,6.887
29,-123,6.888
25,-189,6.889
35,-347,6.89
59,-432,6.891
73,-111,6.892
68,410,6.893
53,618,6.894
37,344,6.895
-2,27,6.896
-65,-27,6.897
-102,-33,6.898
-60,-176,6.899
30,-250,6.9
73,-138,6.901
44,-110,6.902
20,-373,6.903
55,-738,6.904
108,-925,6.905
106,-838,6.906
47,-484,6.907
-2,31,6.908
-4,406,6.909
25,414,6.91
39,225,6.911
16,160,6.912
-22,250,6.913
-45,346,6.914
-35,430,6.915
-25,544,6.916
-38,550,6.917
-49,319,6.918
-32,11,6.919
-6,-114,6.92
-1,-56,6.921
-8,11,6.922
-3,28,6.923
13,26,6.924
21,-12,6.925
26,-99,6.926
41,-161,6.927
60,-157,6.928
66,-149,6.929
55,-175,6.93
29,-207,6.931
-16,-247,6.932
-64,-293,6.933
-104,-274,6.934
-124,-129,6.935
-132,24,6.936
-132,28,6.937
-102,-45,6.938
-38,-13,6.939
22,126,6.94
43,184,6.941
37,85,6.942
38,-37,6.943
47,-58,6.944
42,-6,6.945
27,17,6.946
26,-21,6.947
39,-56,6.948
46,-9,6.949
40,103,6.95
30,182,6.951
16,116,6.952
-5,-123,6.953
-21,-525,6.954
-7,-829,6.955
39,-657,6.956
93,76,6.957
137,914,6.958
153,1269,6.959
135,1053,6.96
77,633,6.961
0,287,6.962
-73,38,6.963
-136,-102,6.964
-186,-107,6.965
-202,-107,6.966
-173,-226,6.967
-129,-336,6.968
-97,-276,6.969
-74,-148,6.97
-40,-131,6.971
-3,-166,6.972
17,-128,6.973
22,-100,6.974
30,-190,6.975
40,-250,6.976
45,-94,6.977
48,145,6.978
59,187,6.979
74,35,6.98
80,-102,6.981
70,-171,6.982
58,-246,6.983
52,-264,6.984
53,-114,6.985
52,94,6.986
47,131,6.987
45,-5,6.988
60,-98,6.989
87,-37,6.99
98,79,6.991
75,144,6.992
43,160,6.993
24,136,6.994
5,55,6.995
-44,-51,6.996
-113,-101,6.997
-158,-39,6.998
-151,98,6.999
-122,237,7.0
-109,311,7.001
-108,282,7.002
-96,187,7.003
-73,113,7.004
-50,93,7.005
-30,74,7.006
-3,17,7.007
40,-45,7.008
88,-90,7.009
128,-146,7.01
147,-217,7.011
136,-243,7.012
97,-197,7.013
34,-126,7.014
-24,-78,7.015
-51,-51,7.016
-47,-40,7.017
-38,-54,7.018
-38,-86,7.019
-37,-95,7.02
-19,-66,7.021
9,-21,7.022
38,27,7.023
67,65,7.024
90,71,7.025
85,66,7.026
44,101,7.027
0,159,7.028
-10,160,7.029
9,83,7.03
20,9,7.031
8,-9,7.032
-6,2,7.033
-15,24,7.034
-21,66,7.035
-35,90,7.036
-41,31,7.037
-28,-56,7.038
-5,-71,7.039
18,-36,7.04
40,-55,7.041
65,-112,7.042
83,-95,7.043
86,-13,7.044
73,10,7.045
42,-56,7.046
-11,-103,7.047
-73,-71,7.048
-105,-52,7.049
-99,-148,7.05
-84,-321,7.051
-85,-419,7.052
-83,-311,7.053
-53,18,7.054
-5,382,7.055
25,551,7.056
26,472,7.057
30,280,7.058
58,106,7.059
93,-11,7.06
93,-48,7.061
48,13,7.062
-17,98,7.063
-78,96,7.064
-132,20,7.065
-175,-15,7.066
-175,15,7.067
-109,21,7.068
-14,-49,7.069
41,-139,7.07
49,-178,7.071
50,-150,7.072
71,-74,7.073
87,-6,7.074
85,-26,7.075
73,-130,7.076
62,-171,7.077
46,-41,7.078
33,157,7.079
43,243,7.08
60,167,7.081
45,24,7.082
-1,-57,7.083
-31,-30,7.084
-20,41,7.085
2,26,7.086
2,-92,7.087
-7,-153,7.088
4,-42,7.089
30,116,7.09
46,136,7.091
43,53,7.092
34,22,7.093
31,66,7.094
40,77,7.095
54,22,7.096
53,-28,7.097
22,-45,7.098
-33,-75,7.099
-81,-107,7.1
-100,-93,7.101
-93,-48,7.102
-66,-12,7.103
-28,38,7.104
9,119,7.105
19,139,7.106
-10,2,7.107
-50,-224,7.108
-48,-359,7.109
1,-318,7.11
41,-154,7.111
15,33,7.112
-52,160,7.113
-93,180,7.114
-64,121,7.115
-2,93,7.116
25,156,7.117
6,205,7.118
-20,120,7.119
-29,-44,7.12
-37,-125,7.121
-47,-91,7.122
-29,-47,7.123
38,-70,7.124
112,-97,7.125
135,-51,7.126
100,50,7.127
44,110,7.128
-13,56,7.129
-64,-78,7.13
-71,-156,7.131
-10,-72,7.132
71,115,7.133
109,258,7.134
107,239,7.135
122,114,7.136
164,34,7.137
164,77,7.138
88,147,7.139
1,79,7.14
-27,-165,7.141
-11,-404,7.142
-5,-422,7.143
-25,-221,7.144
-46,-10,7.145
-59,58,7.146
-76,31,7.147
-97,58,7.148
-111,250,7.149
-122,549,7.15
-126,698,7.151
-107,450,7.152
-63,-51,7.153
-19,-441,7.154
-3,-449,7.155
3,-291,7.156
28,-298,7.157
59,-414,7.158
78,-384,7.159
92,-209,7.16
112,-90,7.161
131,-56,7.162
139,14,7.163
133,128,7.164
97,186,7.165
18,173,7.166
-75,147,7.167
-131,113,7.168
-142,66,7.169
-158,57,7.17
-205,96,7.171
-234,108,7.172
-191,64,7.173
-77,19,7.174
36,38,7.175
84,109,7.176
68,200,7.177
38,280,7.178
36,261,7.179
52,75,7.18
62,-184,7.181
58,-333,7.182
47,-325,7.183
37,-268,7.184
37,-233,7.185
57,-178,7.186
85,-82,7.187
91,0,7.188
68,48,7.189
52,126,7.19
70,237,7.191
96,264,7.192
88,152,7.193
35,1,7.194
-20,-9,7.195
-35,118,7.196
-16,179,7.197
-15,51,7.198
-66,-168,7.199
-129,-306,7.2
-137,-320,7.201
-97,-265,7.202
-70,-156,7.203
-59,16,7.204
-2,169,7.205
100,186,7.206
133,83,7.207
21,-1,7.208
-145,-12,7.209
-222,-20,7.21
-185,-43,7.211
-111,10,7.212
-52,162,7.213
9,325,7.214
83,409,7.215
153,430,7.216
205,376,7.217
217,150,7.218
173,-243,7.219
93,-570,7.22
19,-615,7.221
-23,-439,7.222
-46,-229,7.223
-60,-39,7.224
-52,127,7.225
-10,154,7.226
46,-39,7.227
81,-267,7.228
72,-284,7.229
29,-152,7.23
-19,-102,7.231
-56,-132,7.232
-83,-58,7.233
-98,134,7.234
-88,236,7.235
-58,179,7.236
-35,129,7.237
-27,179,7.238
-3,204,7.239
47,142,7.24
76,99,7.241
40,132,7.242
-23,136,7.243
-42,48,7.244
-17,-30,7.245
2,-18,7.246
16,34,7.247
65,65,7.248
143,95,7.249
176,132,7.25
121,113,7.251
51,5,7.252
64,-124,7.253
164,-213,7.254
232,-230,7.255
166,-189,7.256
1,-139,7.257
-150,-124,7.258
-238,-137,7.259
-297,-95,7.26
-353,28,7.261
-365,132,7.262
-297,113,7.263
-176,30,7.264
-49,17,7.265
55,88,7.266
121,132,7.267
126,89,7.268
85,17,7.269
50,10,7.27
49,92,7.271
61,196,7.272
64,215,7.273
78,77,7.274
125,-128,7.275
161,-214,7.276
123,-88,7.277
37,150,7.278
3,327,7.279
58,330,7.28
112,129,7.281
63,-220,7.282
-67,-540,7.283
-156,-623,7.284
-138,-449,7.285
-72,-199,7.286
-49,-40,7.287
-67,34,7.288
-57,108,7.289
-3,182,7.29
43,188,7.291
55,109,7.292
50,8,7.293
22,-85,7.294
-52,-173,7.295
-129,-244,7.296
-116,-240,7.297
-18,-137,7.298
57,-17,7.299
53,44,7.3
31,84,7.301
44,152,7.302
51,197,7.303
18,165,7.304
-7,128,7.305
12,167,7.306
45,230,7.307
57,238,7.308
73,250,7.309
113,325,7.31
146,343,7.311
127,158,7.312
74,-132,7.313
15,-350,7.314
-22,-415,7.315
-42,-404,7.316
-41,-355,7.317
-21,-215,7.318
7,-46,7.319
25,24,7.32
24,-3,7.321
-2,-3,7.322
-82,49,7.323
-227,57,7.324
-370,10,7.325
-383,5,7.326
-218,63,7.327
9,95,7.328
172,74,7.329
270,60,7.33
362,83,7.331
392,87,7.332
275,55,7.333
41,30,7.334
-119,46,7.335
-137,76,7.336
-128,65,7.337
-169,24,7.338
-167,2,7.339
-52,43,7.34
84,128,7.341
138,182,7.342
124,145,7.343
103,40,7.344
70,-78,7.345
9,-184,7.346
-20,-261,7.347
27,-268,7.348
68,-211,7.349
-18,-156,7.35
-198,-128,7.351
-293,-63,7.352
-217,55,7.353
-65,163,7.354
13,214,7.355
6,259,7.356
12,288,7.357
41,192,7.358
12,-53,7.359
-71,-261,7.36
-105,-260,7.361
-55,-95,7.362
-3,80,7.363
6,197,7.364
23,250,7.365
78,207,7.366
133,39,7.367
180,-210,7.368
248,-452,7.369
284,-595,7.37
186,-592,7.371
-13,-475,7.372
-128,-347,7.373
-65,-233,7.374
65,-77,7.375
90,160,7.376
-11,397,7.377
-114,520,7.378
-135,479,7.379
-112,316,7.38
-118,110,7.381
-138,-41,7.382
-88,-68,7.383
50,2,7.384
158,81,7.385
117,109,7.386
-25,73,7.387
-118,-7,7.388
-97,-86,7.389
-46,-104,7.39
-32,-69,7.391
-35,-47,7.392
-25,-61,7.393
-20,-62,7.394
-27,-15,7.395
-12,40,7.396
39,63,7.397
82,73,7.398
96,88,7.399
108,95,7.4
134,97,7.401
136,108,7.402
92,109,7.403
28,74,7.404
-18,28,7.405
-41,18,7.406
-37,26,7.407
5,5,7.408
88,-31,7.409
181,-30,7.41
244,8,7.411
251,34,7.412
194,30,7.413
57,15,7.414
-123,13,7.415
-290,21,7.416
-391,21,7.417
-427,1,7.418
-430,-41,7.419
-415,-71,7.42
-335,-46,7.421
-149,3,7.422
91,3,7.423
267,-62,7.424
306,-122,7.425
234,-123,7.426
130,-95,7.427
65,-76,7.428
81,-53,7.429
161,-3,7.43
208,67,7.431
141,142,7.432
4,202,7.433
-111,213,7.434
-141,147,7.435
-109,45,7.436
-50,4,7.437
19,72,7.438
91,173,7.439
134,201,7.44
141,117,7.441
127,-10,7.442
102,-63,7.443
58,-15,7.444
-10,9,7.445
-86,-129,7.446
-143,-394,7.447
-161,-606,7.448
-135,-654,7.449
-71,-533,7.45
8,-271,7.451
67,28,7.452
87,163,7.453
70,78,7.454
38,7,7.455
1,148,7.456
-35,310,7.457
-63,205,7.458
-67,-62,7.459
-43,-177,7.46
-14,-135,7.461
0,-163,7.462
2,-242,7.463
9,-173,7.464
21,-11,7.465
29,24,7.466
28,-25,7.467
26,71,7.468
24,287,7.469
18,377,7.47
12,287,7.471
8,189,7.472
9,160,7.473
12,131,7.474
24,102,7.475
34,148,7.476
30,230,7.477
11,213,7.478
-1,74,7.479
10,-72,7.48
27,-152,7.481
29,-186,7.482
8,-187,7.483
-20,-126,7.484
-38,-20,7.485
-34,60,7.486
-27,73,7.487
-51,52,7.488
-121,39,7.489
-195,39,7.49
-213,27,7.491
-147,1,7.492
-28,-19,7.493
149,-26,7.494
383,-21,7.495
624,-10,7.496
734,3,7.497
567,29,7.498
153,45,7.499
-258,42,7.5
-425,39,7.501
-353,86,7.502
-254,227,7.503
-243,433,7.504
-220,602,7.505
-93,598,7.506
47,378,7.507
55,73,7.508
-57,-88,7.509
-157,-23,7.51
-195,75,7.511
-239,-78,7.512
-316,-501,7.513
-361,-1016,7.514
-271,-1337,7.515
-54,-1361,7.516
152,-1132,7.517
244,-685,7.518
265,-131,7.519
299,284,7.52
308,400,7.521
179,351,7.522
-46,363,7.523
-165,429,7.524
-99,382,7.525
-7,225,7.526
-16,100,7.527
-24,33,7.528
89,-60,7.529
226,-154,7.53
220,-130,7.531
112,-6,7.532
59,79,7.533
79,101,7.534
78,150,7.535
33,251,7.536
16,298,7.537
30,252,7.538
12,197,7.539
-38,196,7.54
-71,189,7.541
-99,92,7.542
-167,-85,7.543
-223,-247,7.544
-181,-305,7.545
-75,-247,7.546
-13,-115,7.547
-5,53,7.548
24,226,7.549
85,344,7.55
113,352,7.551
95,275,7.552
79,193,7.553
70,111,7.554
39,6,7.555
0,-107,7.556
8,-171,7.557
43,-172,7.558
46,-146,7.559
17,-87,7.56
14,40,7.561
36,191,7.562
33,249,7.563
5,163,7.564
1,-22,7.565
20,-236,7.566
22,-414,7.567
0,-491,7.568
-11,-424,7.569
-3,-254,7.57
-7,-88,7.571
-31,-7,7.572
-61,0,7.573
-79,-5,7.574
-58,22,7.575
32,61,7.576
173,66,7.577
273,49,7.578
252,50,7.579
128,84,7.58
-23,119,7.581
-148,148,7.582
-226,188,7.583
-235,229,7.584
-176,234,7.585
-109,189,7.586
-81,131,7.587
-75,90,7.588
-53,76,7.589
-14,89,7.59
20,109,7.591
56,71,7.592
89,-55,7.593
82,-241,7.594
15,-374,7.595
-62,-406,7.596
-86,-379,7.597
-62,-319,7.598
-43,-211,7.599
-65,-91,7.6
-120,-40,7.601
-190,-60,7.602
-250,-34,7.603
-250,95,7.604
-143,220,7.605
62,228,7.606
267,162,7.607
352,131,7.608
315,145,7.609
286,148,7.61
350,141,7.611
416,178,7.612
355,254,7.613
163,320,7.614
-28,340,7.615
-147,325,7.616
-202,280,7.617
-194,174,7.618
-134,-35,7.619
-97,-333,7.62
-132,-640,7.621
-161,-847,7.622
-114,-861,7.623
-72,-675,7.624
-123,-403,7.625
-191,-202,7.626
-161,-104,7.627
-65,-33,7.628
12,45,7.629
99,76,7.63
239,78,7.631
352,165,7.632
347,326,7.633
257,390,7.634
169,241,7.635
79,23,7.636
-14,-62,7.637
-102,-11,7.638
-171,59,7.639
-215,146,7.64
-177,275,7.641
-141,356,7.642
-107,294,7.643
-70,166,7.644
-20,96,7.645
56,63,7.646
214,-14,7.647
308,-94,7.648
204,-82,7.649
80,8,7.65
-100,96,7.651
-231,166,7.652
-213,237,7.653
-172,248,7.654
-82,165,7.655
-47,75,7.656
-4,-31,7.657
103,-143,7.658
201,-268,7.659
188,-389,7.66
96,-500,7.661
43,-572,7.662
27,-524,7.663
-47,-452,7.664
-185,-307,7.665
-264,-153,7.666
-207,24,7.667
-74,170,7.668
54,216,7.669
144,243,7.67
156,209,7.671
68,181,7.672
-33,170,7.673
-53,166,7.674
6,189,7.675
31,192,7.676
-6,162,7.677
-17,120,7.678
44,82,7.679
141,47,7.68
247,12,7.681
339,-19,7.682
314,-28,7.683
98,-8,7.684
-179,22,7.685
-301,33,7.686
-242,23,7.687
-154,16,7.688
-108,28,7.689
-49,35,7.69
21,20,7.691
2,-3,7.692
-90,-11,7.693
-133,-9,7.694
-79,-11,7.695
-41,-14,7.696
-51,-10,7.697
-48,9,7.698
-3,47,7.699
33,94,7.7
43,122,7.701
47,88,7.702
33,-4,7.703
31,-94,7.704
69,-128,7.705
109,-124,7.706
155,-128,7.707
172,-147,7.708
99,-156,7.709
19,-149,7.71
-78,-132,7.711
-140,-101,7.712
-90,-54,7.713
0,-5,7.714
228,28,7.715
372,43,7.716
295,49,7.717
42,45,7.718
-211,26,7.719
-363,4,7.72
-425,0,7.721
-409,12,7.722
-291,20,7.723
-111,15,7.724
23,19,7.725
70,44,7.726
116,81,7.727
224,110,7.728
310,112,7.729
278,80,7.73
171,30,7.731
96,-13,7.732
59,-36,7.733
-24,-52,7.734
-151,-64,7.735
-197,-61,7.736
-90,-43,7.737
66,-17,7.738
117,18,7.739
37,93,7.74
-67,233,7.741
-94,396,7.742
-55,465,7.743
-12,349,7.744
9,70,7.745
28,-249,7.746
63,-474,7.747
108,-524,7.748
153,-386,7.749
197,-136,7.75
234,54,7.751
216,43,7.752
111,-127,7.753
-75,-299,7.754
-234,-365,7.755
-277,-396,7.756
-223,-318,7.757
-144,-216,7.758
-73,-42,7.759
-16,89,7.76
1,93,7.761
-27,102,7.762
-50,129,7.763
-24,155,7.764
8,175,7.765
-2,191,7.766
-37,193,7.767
-33,188,7.768
13,160,7.769
62,137,7.77
100,130,7.771
140,124,7.772
182,118,7.773
210,107,7.774
197,83,7.775
101,75,7.776
-74,74,7.777
-237,76,7.778
-269,76,7.779
-172,70,7.78
-63,54,7.781
-10,34,7.782
25,7,7.783
69,-35,7.784
81,-93,7.785
44,-139,7.786
9,-154,7.787
16,-154,7.788
42,-151,7.789
61,-132,7.79
66,-80,7.791
19,-16,7.792
-87,25,7.793
-181,30,7.794
-131,17,7.795
34,10,7.796
116,9,7.797
5,12,7.798
-169,17,7.799
-239,24,7.8
-190,25,7.801
-90,17,7.802
42,6,7.803
177,2,7.804
221,6,7.805
140,14,7.806
27,21,7.807
-40,23,7.808
-78,18,7.809
-87,8,7.81
-40,-1,7.811
9,7,7.812
-21,32,7.813
-85,59,7.814
-34,78,7.815
122,96,7.816
213,117,7.817
171,128,7.818
122,107,7.819
137,69,7.82
144,40,7.821
138,9,7.822
249,-28,7.823
472,-47,7.824
553,-34,7.825
303,-55,7.826
-135,-187,7.827
-452,-375,7.828
-528,-470,7.829
-476,-403,7.83
-418,-254,7.831
-366,-122,7.832
-301,-24,7.833
-212,74,7.834
-79,153,7.835
84,177,7.836
179,175,7.837
122,200,7.838
-17,237,7.839
-91,221,7.84
-63,129,7.841
-3,25,7.842
61,-28,7.843
146,-31,7.844
194,-8,7.845
139,36,7.846
37,93,7.847
3,105,7.848
32,10,7.849
37,-164,7.85
6,-302,7.851
3,-298,7.852
31,-171,7.853
35,-18,7.854
14,51,7.855
9,8,7.856
24,-90,7.857
21,-161,7.858
6,-156,7.859
16,-67,7.86
44,68,7.861
53,181,7.862
47,220,7.863
42,207,7.864
35,214,7.865
4,299,7.866
-34,431,7.867
-52,532,7.868
-49,569,7.869
-39,551,7.87
-23,445,7.871
-1,169,7.872
20,-231,7.873
35,-614,7.874
50,-760,7.875
58,-654,7.876
49,-457,7.877
31,-288,7.878
25,-165,7.879
34,-86,7.88
36,-58,7.881
11,-54,7.882
-30,-33,7.883
-67,21,7.884
-87,101,7.885
-94,161,7.886
-82,79,7.887
-40,-248,7.888
20,-726,7.889
50,-1089,7.89
12,-1149,7.891
-61,-935,7.892
-94,-599,7.893
-78,-182,7.894
-60,233,7.895
-74,534,7.896
-82,663,7.897
-42,675,7.898
28,639,7.899
82,578,7.9
103,508,7.901
100,460,7.902
82,419,7.903
58,345,7.904
44,277,7.905
40,305,7.906
39,433,7.907
25,556,7.908
0,600,7.909
-19,553,7.91
-16,382,7.911
-5,55,7.912
-5,-303,7.913
-11,-555,7.914
-8,-655,7.915
0,-737,7.916
-2,-866,7.917
-7,-907,7.918
4,-754,7.919
32,-493,7.92
65,-266,7.921
112,-100,7.922
168,40,7.923
194,156,7.924
152,246,7.925
47,335,7.926
-94,419,7.927
-240,467,7.928
-314,493,7.929
-264,525,7.93
-154,507,7.931
-111,384,7.932
-132,249,7.933
-106,224,7.934
9,294,7.935
102,275,7.936
111,89,7.937
115,-143,7.938
158,-331,7.939
133,-502,7.94
-9,-630,7.941
-129,-572,7.942
-102,-311,7.943
-3,-63,7.944
48,-25,7.945
62,-119,7.946
89,-145,7.947
91,-55,7.948
33,55,7.949
-15,125,7.95
-2,174,7.951
15,190,7.952
-12,129,7.953
-38,-21,7.954
-17,-167,7.955
6,-223,7.956
-3,-198,7.957
0,-125,7.958
27,-18,7.959
19,106,7.96
-26,161,7.961
-29,95,7.962
33,-1,7.963
73,11,7.964
40,109,7.965
-18,127,7.966
-31,7,7.967
7,-129,7.968
70,-182,7.969
123,-196,7.97
135,-241,7.971
102,-278,7.972
65,-258,7.973
33,-220,7.974
-4,-204,7.975
-34,-146,7.976
-38,23,7.977
-35,243,7.978
-7,385,7.979
-6,446,7.98
-87,508,7.981
-142,557,7.982
-114,486,7.983
-68,295,7.984
28,110,7.985
66,15,7.986
-71,-34,7.987
-169,-91,7.988
-146,-144,7.989
-104,-171,7.99
-10,-188,7.991
54,-186,7.992
28,-141,7.993
4,-64,7.994
-1,-25,7.995
19,-60,7.996
49,-109,7.997
86,-83,7.998
120,22,7.999
125,131,8.0
79,165,8.001
12,115,8.002
-23,34,8.003
-16,-30,8.004
-6,-81,8.005
-17,-135,8.006
-24,-183,8.007
-8,-206,8.008
11,-208,8.009
10,-190,8.01
3,-124,8.011
12,1,8.012
32,127,8.013
45,203,8.014
49,235,8.015
43,280,8.016
26,353,8.017
7,427,8.018
4,479,8.019
13,509,8.02
10,496,8.021
-5,388,8.022
-15,171,8.023
-17,-108,8.024
-21,-392,8.025
-28,-655,8.026
-29,-868,8.027
-23,-976,8.028
-22,-943,8.029
-25,-813,8.03
-22,-652,8.031
-10,-460,8.032
1,-230,8.033
9,20,8.034
12,176,8.035
8,195,8.036
0,168,8.037
-2,200,8.038
5,269,8.039
15,301,8.04
14,292,8.041
4,282,8.042
-1,277,8.043
1,253,8.044
6,215,8.045
6,187,8.046
-2,170,8.047
-11,150,8.048
-15,125,8.049
-7,107,8.05
3,93,8.051
17,80,8.052
31,70,8.053
47,63,8.054
51,52,8.055
29,43,8.056
-4,44,8.057
-25,56,8.058
-29,60,8.059
-31,47,8.06
-34,24,8.061
-36,0,8.062
-33,-25,8.063
-30,-52,8.064
-24,-68,8.065
-5,-72,8.066
16,-77,8.067
21,-89,8.068
11,-97,8.069
12,-86,8.07
29,-62,8.071
37,-35,8.072
24,-18,8.073
7,-1,8.074
10,28,8.075
26,63,8.076
37,82,8.077
37,87,8.078
35,95,8.079
29,111,8.08
14,120,8.081
-13,123,8.082
-38,132,8.083
-46,120,8.084
-33,23,8.085
-6,-188,8.086
11,-440,8.087
5,-608,8.088
-8,-613,8.089
-11,-480,8.09
-7,-290,8.091
-3,-128,8.092
11,-44,8.093
39,-29,8.094
53,-34,8.095
29,-7,8.096
-13,37,8.097
-21,56,8.098
19,50,8.099
58,76,8.1
46,140,8.101
-2,185,8.102
-36,179,8.103
-38,158,8.104
-35,155,8.105
-45,150,8.106
-47,128,8.107
-19,113,8.108
13,123,8.109
14,131,8.11
0,118,8.111
6,101,8.112
29,99,8.113
33,100,8.114
18,98,8.115
7,100,8.116
11,112,8.117
8,126,8.118
-2,129,8.119
-4,111,8.12
6,65,8.121
8,1,8.122
2,-60,8.123
3,-97,8.124
5,-129,8.125
3,-184,8.126
-1,-265,8.127
5,-347,8.128
13,-396,8.129
6,-388,8.13
-9,-319,8.131
-18,-212,8.132
-16,-104,8.133
-15,-9,8.134
-12,62,8.135
-7,101,8.136
-4,110,8.137
-2,111,8.138
2,117,8.139
15,122,8.14
33,117,8.141
61,104,8.142
102,93,8.143
141,87,8.144
139,80,8.145
74,69,8.146
-37,62,8.147
-149,61,8.148
-218,70,8.149
-215,84,8.15
-149,90,8.151
-61,76,8.152
2,55,8.153
30,40,8.154
40,26,8.155
41,-5,8.156
34,-50,8.157
21,-76,8.158
17,-69,8.159
21,-43,8.16
23,-14,8.161
17,20,8.162
11,60,8.163
12,90,8.164
19,91,8.165
26,43,8.166
31,-55,8.167
29,-169,8.168
19,-235,8.169
11,-217,8.17
12,-134,8.171
19,-43,8.172
26,19,8.173
29,49,8.174
28,47,8.175
20,20,8.176
9,-8,8.177
3,2,8.178
8,54,8.179
15,115,8.18
13,152,8.181
4,154,8.182
-1,118,8.183
-2,50,8.184
-4,-36,8.185
-13,-120,8.186
-18,-199,8.187
-15,-263,8.188
-4,-284,8.189
0,-240,8.19
-4,-152,8.191
-10,-66,8.192
-13,-5,8.193
-10,41,8.194
-7,76,8.195
-12,96,8.196
-19,99,8.197
-20,91,8.198
-9,76,8.199
4,62,8.2
9,68,8.201
2,89,8.202
-3,101,8.203
-3,87,8.204
-1,66,8.205
0,52,8.206
5,39,8.207
13,17,8.208
20,-1,8.209
21,-5,8.21
20,0,8.211
13,-2,8.212
4,-8,8.213
-3,-15,8.214
-3,-17,8.215
-3,-16,8.216
-10,-17,8.217
-15,-17,8.218
-6,-18,8.219
15,-16,8.22
31,-6,8.221
38,6,8.222
44,7,8.223
46,0,8.224
35,0,8.225
15,8,8.226
0,12,8.227
-7,11,8.228
-24,12,8.229
-58,16,8.23
-78,13,8.231
-56,-1,8.232
-9,-11,8.233
21,-19,8.234
16,-27,8.235
-5,-32,8.236
-8,-34,8.237
3,-28,8.238
12,-22,8.239
10,-18,8.24
6,-6,8.241
10,6,8.242
14,8,8.243
11,-1,8.244
4,-5,8.245
1,1,8.246
1,2,8.247
4,-7,8.248
8,-9,8.249
7,6,8.25
-4,18,8.251
-17,11,8.252
-20,1,8.253
-9,1,8.254
-1,4,8.255
-3,-5,8.256
-5,-18,8.257
4,-12,8.258
18,5,8.259
23,11,8.26
18,6,8.261
13,5,8.262
15,7,8.263
23,3,8.264
30,-1,8.265
28,6,8.266
20,20,8.267
9,27,8.268
5,25,8.269
9,21,8.27
8,12,8.271
-9,-3,8.272
-28,-16,8.273
-33,-25,8.274
-12,-25,8.275
7,-20,8.276
1,-11,8.277
-22,-3,8.278
-31,-2,8.279
-16,-4,8.28
0,2,8.281
5,18,8.282
10,30,8.283
17,29,8.284
14,27,8.285
-1,23,8.286
-10,2,8.287
-6,-30,8.288
4,-59,8.289
21,-68,8.29
41,-63,8.291
45,-49,8.292
21,-26,8.293
-16,9,8.294
-23,35,8.295
-6,29,8.296
3,-4,8.297
-6,-36,8.298
-6,-63,8.299
10,-87,8.3
17,-95,8.301
6,-75,8.302
0,-45,8.303
11,-24,8.304
20,-6,8.305
18,25,8.306
19,54,8.307
24,61,8.308
21,56,8.309
4,59,8.31
-10,64,8.311
-21,53,8.312
-41,34,8.313
-65,23,8.314
-59,21,8.315
-24,16,8.316
6,7,8.317
8,9,8.318
-4,17,8.319
-3,19,8.32
2,20,8.321
-1,23,8.322
-4,20,8.323
3,8,8.324
16,0,8.325
17,6,8.326
13,12,8.327
13,11,8.328
15,10,8.329
10,12,8.33
4,9,8.331
9,0,8.332
16,-7,8.333
16,-9,8.334
9,-9,8.335
4,-8,8.336
1,-9,8.337
-4,-6,8.338
-6,0,8.339
-1,2,8.34
7,-1,8.341
10,-12,8.342
11,-26,8.343
17,-34,8.344
24,-25,8.345
24,-8,8.346
11,0,8.347
-4,-3,8.348
-12,-6,8.349
-17,-3,8.35
-22,2,8.351
-22,13,8.352
-10,35,8.353
8,67,8.354
25,102,8.355
27,136,8.356
21,164,8.357
17,188,8.358
17,191,8.359
18,167,8.36
14,118,8.361
10,41,8.362
10,-75,8.363
12,-220,8.364
8,-346,8.365
1,-407,8.366
-7,-400,8.367
-10,-351,8.368
-11,-276,8.369
-13,-182,8.37
-18,-105,8.371
-19,-65,8.372
-16,-41,8.373
-13,6,8.374
-6,65,8.375
0,105,8.376
7,122,8.377
8,150,8.378
5,190,8.379
3,209,8.38
2,194,8.381
2,166,8.382
-1,140,8.383
-1,115,8.384
1,96,8.385
2,94,8.386
-3,108,8.387
-6,124,8.388
-1,121,8.389
9,87,8.39
17,17,8.391
17,-73,8.392
17,-152,8.393
16,-212,8.394
14,-250,8.395
4,-268,8.396
-7,-264,8.397
-11,-230,8.398
-3,-175,8.399
4,-123,8.4
0,-85,8.401
-9,-53,8.402
-11,-13,8.403
-4,27,8.404
1,57,8.405
-1,74,8.406
-4,87,8.407
-1,94,8.408
4,82,8.409
3,52,8.41
-1,28,8.411
-2,29,8.412
4,45,8.413
6,65,8.414
7,89,8.415
5,113,8.416
4,121,8.417
4,118,8.418
3,119,8.419
3,141,8.42
3,172,8.421
3,188,8.422
7,172,8.423
16,134,8.424
30,94,8.425
39,48,8.426
34,-26,8.427
18,-132,8.428
-4,-225,8.429
-24,-257,8.43
-39,-234,8.431
-44,-200,8.432
-38,-182,8.433
-33,-157,8.434
-29,-107,8.435
-23,-62,8.436
-10,-31,8.437
2,-5,8.438
8,6,8.439
10,23,8.44
21,55,8.441
34,79,8.442
38,73,8.443
32,65,8.444
21,49,8.445
8,31,8.446
-7,9,8.447
-15,-8,8.448
-16,-12,8.449
-15,-6,8.45
-15,32,8.451
-4,66,8.452
19,83,8.453
38,89,8.454
40,53,8.455
33,22,8.456
29,11,8.457
20,8,8.458
1,-14,8.459
-20,-47,8.46
-26,-65,8.461
-23,-64,8.462
-20,-60,8.463
-15,-54,8.464
-5,-40,8.465
7,-27,8.466
13,-25,8.467
14,-29,8.468
16,-22,8.469
18,-12,8.47
16,-14,8.471
11,-14,8.472
5,-2,8.473
-6,17,8.474
-19,27,8.475
-21,23,8.476
-9,18,8.477
11,25,8.478
28,36,8.479
41,50,8.48
49,62,8.481
42,55,8.482
29,31,8.483
24,13,8.484
27,16,8.485
21,23,8.486
-2,24,8.487
-24,42,8.488
-25,87,8.489
-13,118,8.49
-5,100,8.491
-13,49,8.492
-19,4,8.493
-19,-38,8.494
-9,-94,8.495
-1,-158,8.496
3,-206,8.497
1,-220,8.498
-6,-206,8.499
-18,-168,8.5
-28,-107,8.501
-31,-49,8.502
-29,-23,8.503
-22,-26,8.504
-8,-33,8.505
10,-26,8.506
26,0,8.507
30,45,8.508
20,104,8.509
12,156,8.51
12,203,8.511
12,288,8.512
10,407,8.513
5,482,8.514
8,408,8.515
7,188,8.516
-4,-62,8.517
-20,-256,8.518
-23,-397,8.519
-13,-478,8.52
-7,-450,8.521
-12,-309,8.522
-14,-127,8.523
-5,7,8.524
6,65,8.525
14,47,8.526
25,-17,8.527
43,-67,8.528
58,-59,8.529
54,-14,8.53
37,21,8.531
20,48,8.532
9,91,8.533
2,126,8.534
0,114,8.535
-2,55,8.536
-9,-10,8.537
-19,-63,8.538
-14,-121,8.539
2,-167,8.54
18,-147,8.541
19,-38,8.542
13,107,8.543
6,218,8.544
-1,271,8.545
-12,277,8.546
-23,234,8.547
-31,130,8.548
-31,-12,8.549
-22,-146,8.55
-5,-253,8.551
7,-335,8.552
9,-367,8.553
0,-314,8.554
-1,-192,8.555
5,-78,8.556
11,-13,8.557
11,45,8.558
9,112,8.559
8,153,8.56
2,151,8.561
-4,142,8.562
-4,140,8.563
1,118,8.564
5,77,8.565
0,59,8.566
-6,71,8.567
-5,72,8.568
-3,43,8.569
-4,16,8.57
-5,9,8.571
-4,4,8.572
-2,0,8.573
-7,14,8.574
-18,39,8.575
-29,45,8.576
-31,28,8.577
-25,22,8.578
-12,35,8.579
0,44,8.58
8,40,8.581
8,45,8.582
10,61,8.583
15,68,8.584
19,52,8.585
19,22,8.586
21,-10,8.587
22,-33,8.588
20,-37,8.589
16,-9,8.59
18,48,8.591
27,114,8.592
33,154,8.593
24,142,8.594
12,76,8.595
5,-13,8.596
2,-102,8.597
-1,-183,8.598
-2,-252,8.599
7,-280,8.6
24,-241,8.601
32,-167,8.602
29,-111,8.603
21,-89,8.604
12,-79,8.605
-2,-65,8.606
-17,-53,8.607
-21,-36,8.608
-16,8,8.609
-10,79,8.61
-11,138,8.611
-16,150,8.612
-19,118,8.613
-24,60,8.614
-28,-1,8.615
-27,-56,8.616
-15,-96,8.617
2,-83,8.618
17,-10,8.619
23,85,8.62
23,149,8.621
17,165,8.622
12,148,8.623
8,112,8.624
2,73,8.625
-3,64,8.626
-7,89,8.627
-5,97,8.628
-4,54,8.629
-4,-11,8.63
1,-67,8.631
13,-143,8.632
22,-252,8.633
23,-362,8.634
26,-393,8.635
34,-332,8.636
41,-219,8.637
34,-78,8.638
20,68,8.639
12,175,8.64
11,219,8.641
6,226,8.642
-3,208,8.643
-10,132,8.644
-13,-2,8.645
-16,-122,8.646
-18,-159,8.647
-13,-134,8.648
-1,-96,8.649
4,-58,8.65
-2,-2,8.651
-15,77,8.652
-24,184,8.653
-25,315,8.654
-18,398,8.655
-7,356,8.656
1,194,8.657
5,-2,8.658
2,-170,8.659
-2,-298,8.66
-6,-370,8.661
-8,-364,8.662
-7,-305,8.663
-6,-240,8.664
-10,-181,8.665
-10,-114,8.666
1,-50,8.667
22,3,8.668
34,72,8.669
36,172,8.67
35,256,8.671
37,266,8.672
37,221,8.673
28,171,8.674
14,143,8.675
2,136,8.676
-6,144,8.677
-13,166,8.678
-15,175,8.679
-9,172,8.68
-3,204,8.681
-8,257,8.682
-17,229,8.683
-23,58,8.684
-20,-184,8.685
-17,-382,8.686
-13,-500,8.687
-6,-552,8.688
-3,-504,8.689
-6,-345,8.69
-8,-161,8.691
1,-48,8.692
13,-4,8.693
17,31,8.694
15,68,8.695
13,77,8.696
8,73,8.697
-1,98,8.698
-3,135,8.699
2,136,8.7
7,112,8.701
2,106,8.702
-1,114,8.703
2,101,8.704
8,75,8.705
10,66,8.706
15,74,8.707
16,81,8.708
8,88,8.709
-1,96,8.71
2,86,8.711
16,46,8.712
22,5,8.713
7,-21,8.714
-13,-48,8.715
-23,-92,8.716
-27,-131,8.717
-24,-131,8.718
-6,-101,8.719
17,-50,8.72
29,44,8.721
25,192,8.722
19,356,8.723
15,457,8.724
4,410,8.725
-7,182,8.726
-8,-151,8.727
0,-435,8.728
5,-571,8.729
1,-580,8.73
-1,-511,8.731
-3,-369,8.732
-12,-197,8.733
-22,-64,8.734
-18,-11,8.735
-2,15,8.736
9,59,8.737
10,82,8.738
13,67,8.739
19,82,8.74
17,164,8.741
2,234,8.742
-11,229,8.743
-16,204,8.744
-17,224,8.745
-17,247,8.746
-10,191,8.747
7,73,8.748
30,-22,8.749
57,-47,8.75
80,-20,8.751
90,26,8.752
81,49,8.753
61,7,8.754
47,-104,8.755
29,-238,8.756
-2,-345,8.757
-30,-402,8.758
-29,-407,8.759
-7,-348,8.76
5,-224,8.761
-5,-76,8.762
-17,43,8.763
-16,106,8.764
-14,123,8.765
-21,124,8.766
-32,132,8.767
-42,150,8.768
-50,162,8.769
-55,159,8.77
-47,148,8.771
-26,137,8.772
-9,120,8.773
-10,90,8.774
-25,72,8.775
-41,84,8.776
-44,111,8.777
-27,128,8.778
7,115,8.779
40,80,8.78
50,44,8.781
40,15,8.782
24,-21,8.783
16,-71,8.784
8,-113,8.785
-9,-111,8.786
-37,-55,8.787
-74,2,8.788
-114,7,8.789
-149,-42,8.79
-173,-90,8.791
-177,-96,8.792
-155,-74,8.793
-106,-57,8.794
-35,-49,8.795
42,-34,8.796
117,-6,8.797
191,11,8.798
263,6,8.799
310,-8,8.8
292,-7,8.801
169,-2,8.802
-45,-7,8.803
-266,-15,8.804
-375,-12,8.805
-314,-8,8.806
-135,-14,8.807
52,-11,8.808
184,46,8.809
273,180,8.81
350,339,8.811
417,399,8.812
456,285,8.813
450,21,8.814
378,-205,8.815
242,-227,8.816
96,-85,8.817
17,43,8.818
9,42,8.819
2,-36,8.82
-52,-86,8.821
-117,-100,8.822
-145,-149,8.823
-154,-266,8.824
-180,-384,8.825
-210,-419,8.826
-212,-379,8.827
-195,-320,8.828
-187,-243,8.829
-183,-99,8.83
-165,91,8.831
-133,234,8.832
-109,287,8.833
-95,301,8.834
-84,318,8.835
-73,296,8.836
-62,204,8.837
-46,104,8.838
-26,62,8.839
-13,61,8.84
-15,58,8.841
-22,58,8.842
-21,95,8.843
-11,146,8.844
-1,133,8.845
6,24,8.846
13,-119,8.847
20,-196,8.848
26,-189,8.849
28,-158,8.85
28,-142,8.851
27,-106,8.852
27,-6,8.853
24,146,8.854
21,260,8.855
17,239,8.856
15,63,8.857
17,-160,8.858
24,-284,8.859
32,-259,8.86
31,-175,8.861
26,-121,8.862
21,-72,8.863
21,24,8.864
19,136,8.865
7,189,8.866
-5,180,8.867
-10,142,8.868
-12,71,8.869
-19,-18,8.87
-28,-60,8.871
-38,-22,8.872
-38,25,8.873
-26,16,8.874
-7,-17,8.875
4,-23,8.876
8,-21,8.877
23,-45,8.878
65,-54,8.879
126,8,8.88
171,99,8.881
174,119,8.882
142,43,8.883
89,-45,8.884
28,-63,8.885
-29,-4,8.886
-71,77,8.887
-102,121,8.888
-132,115,8.889
-171,77,8.89
-205,20,8.891
-203,-51,8.892
-152,-108,8.893
-57,-126,8.894
37,-112,8.895
79,-122,8.896
84,-175,8.897
122,-200,8.898
220,-147,8.899
310,-57,8.9
309,1,8.901
230,29,8.902
151,61,8.903
100,102,8.904
53,138,8.905
-11,173,8.906
-78,200,8.907
-128,176,8.908
-149,102,8.909
-140,66,8.91
-107,128,8.911
-66,219,8.912
-21,210,8.913
34,62,8.914
87,-109,8.915
118,-191,8.916
133,-186,8.917
145,-161,8.918
144,-143,8.919
110,-100,8.92
53,-45,8.921
5,-56,8.922
-20,-159,8.923
-47,-264,8.924
-84,-275,8.925
-117,-217,8.926
-130,-168,8.927
-128,-119,8.928
-124,-4,8.929
-115,157,8.93
-96,257,8.931
-78,248,8.932
-74,194,8.933
-93,148,8.934
-121,142,8.935
-144,198,8.936
-145,302,8.937
-119,353,8.938
-72,237,8.939
-17,-3,8.94
30,-199,8.941
51,-287,8.942
35,-346,8.943
-21,-405,8.944
-100,-370,8.945
-165,-201,8.946
-177,-13,8.947
-112,97,8.948
2,185,8.949
105,308,8.95
158,377,8.951
184,281,8.952
218,104,8.953
271,-43,8.954
299,-147,8.955
276,-274,8.956
219,-372,8.957
164,-310,8.958
120,-129,8.959
83,-6,8.96
38,-5,8.961
-10,-17,8.962
-58,20,8.963
-105,51,8.964
-146,57,8.965
-172,100,8.966
-179,175,8.967
-172,192,8.968
-168,126,8.969
-178,54,8.97
-204,22,8.971
-221,5,8.972
-190,-7,8.973
-86,18,8.974
72,86,8.975
234,132,8.976
361,113,8.977
427,82,8.978
417,15,8.979
328,-47,8.98
187,-92,8.981
49,-135,8.982
-39,-167,8.983
-68,-179,8.984
-60,-132,8.985
-52,-94,8.986
-61,-85,8.987
-83,-59,8.988
-103,14,8.989
-111,74,8.99
-116,89,8.991
-134,108,8.992
-158,136,8.993
-171,151,8.994
-149,83,8.995
-97,-4,8.996
-33,-29,8.997
32,-5,8.998
91,-7,8.999
108,-28,9.0
59,-1,9.001
-18,87,9.002
-64,179,9.003
-63,195,9.004
-47,83,9.005
-18,-122,9.006
50,-277,9.007
149,-246,9.008
212,-80,9.009
200,55,9.01
141,95,9.011
77,126,9.012
17,179,9.013
-35,154,9.014
-47,-16,9.015
-50,-241,9.016
-21,-375,9.017
-4,-374,9.018
-28,-291,9.019
-46,-156,9.02
-49,-1,9.021
-59,96,9.022
-90,87,9.023
-107,34,9.024
-80,29,9.025
-64,69,9.026
-80,99,9.027
-69,122,9.028
27,194,9.029
110,293,9.03
154,317,9.031
173,224,9.032
113,104,9.033
62,22,9.034
47,-42,9.035
42,-119,9.036
34,-234,9.037
30,-310,9.038
28,-268,9.039
18,-219,9.04
2,-145,9.041
0,-68,9.042
13,18,9.043
7,85,9.044
-31,93,9.045
-72,104,9.046
-75,124,9.047
-62,132,9.048
-71,103,9.049
-100,70,9.05
-98,28,9.051
-55,-12,9.052
-9,-52,9.053
17,-79,9.054
27,-55,9.055
19,-37,9.056
-21,-42,9.057
-72,-26,9.058
-87,16,9.059
-58,46,9.06
-30,45,9.061
-31,45,9.062
-17,52,9.063
45,40,9.064
110,10,9.065
124,0,9.066
99,12,9.067
92,15,9.068
108,0,9.069
86,-4,9.07
2,8,9.071
-90,14,9.072
-127,5,9.073
-129,-2,9.074
-155,-1,9.075
-206,-5,9.076
-197,-18,9.077
-55,-24,9.078
165,-26,9.079
326,-33,9.08
366,-37,9.081
338,-24,9.082
301,-6,9.083
224,0,9.084
63,-5,9.085
-133,-4,9.086
-264,4,9.087
-292,9,9.088
-251,8,9.089
-159,5,9.09
-7,4,9.091
151,4,9.092
231,10,9.093
-170,12,9.094
-166,12,9.095
-159,11,9.096
-143,12,9.097
-116,21,9.098
-59,28,9.099
-37,26,9.1
-119,15,9.101
-173,0,9.102
-138,-26,9.103
-71,-54,9.104
90,-76,9.105
230,-82,9.106
299,-73,9.107
331,-50,9.108
247,-14,9.109
170,24,9.11
114,52,9.111
61,60,9.112
23,59,9.113
-141,5,9.114
-139,39,9.115
-132,65,9.116
-119,67,9.117
-96,69,9.118
-48,65,9.119
-29,60,9.12
-99,51,9.121
-144,43,9.122
-115,44,9.123
-58,54,9.124
77,90,9.125
195,102,9.126
254,38,9.127
280,-11,9.128
210,-15,9.129
144,-9,9.13
97,26,9.131
53,38,9.132
21,-19,9.133
-151,-57,9.134
-148,37,9.135
-141,110,9.136
-127,117,9.137
-103,120,9.138
-52,110,9.139
-32,96,9.14
-106,70,9.141
-154,50,9.142
-123,52,9.143
-63,81,9.144
82,180,9.145
207,210,9.146
269,34,9.147
297,-102,9.148
222,-112,9.149
153,-96,9.15
103,1,9.151
56,34,9.152
22,-123,9.153
-25,-36,9.154
-125,37,9.155
-194,95,9.156
-207,100,9.157
-186,103,9.158
-163,95,9.159
-138,84,9.16
-91,64,9.161
-17,48,9.162
50,50,9.163
71,72,9.164
60,149,9.165
50,173,9.166
50,35,9.167
45,-71,9.168
50,-79,9.169
92,-66,9.17
153,9,9.171
197,35,9.172
225,-87,9.173
245,-200,9.174
218,-229,9.175
98,-172,9.176
-62,-103,9.177
-149,-53,9.178
-134,-19,9.179
-100,11,9.18
-114,33,9.181
-152,38,9.182
-163,37,9.183
-145,38,9.184
-126,39,9.185
-108,34,9.186
-71,28,9.187
-15,30,9.188
41,35,9.189
81,39,9.19
97,39,9.191
68,30,9.192
-22,9,9.193
-173,-27,9.194
-295,-56,9.195
-297,-63,9.196
-176,-51,9.197
-16,-29,9.198
116,-3,9.199
235,26,9.2
351,48,9.201
390,48,9.202
282,27,9.203
93,4,9.204
-17,-4,9.205
16,-3,9.206
104,0,9.207
139,5,9.208
122,5,9.209
95,-5,9.21
56,-26,9.211
-12,-48,9.212
-81,-60,9.213
-121,-57,9.214
-145,-33,9.215
-156,-9,9.216
-129,16,9.217
-92,34,9.218
-27,31,9.219
26,28,9.22
43,25,9.221
49,30,9.222
17,58,9.223
-8,69,9.224
-8,26,9.225
-8,-25,9.226
-16,-102,9.227
-39,-137,9.228
-110,-47,9.229
-151,18,9.23
-101,8,9.231
-49,-1,9.232
8,-13,9.233
64,-2,9.234
85,96,9.235
57,178,9.236
23,153,9.237
11,26,9.238
0,-112,9.239
-21,-173,9.24
-6,-163,9.241
70,-128,9.242
146,-67,9.243
140,35,9.244
56,149,9.245
-35,206,9.246
-87,170,9.247
-107,63,9.248
-122,-42,9.249
-147,-57,9.25
-172,33,9.251
-172,113,9.252
-145,65,9.253
-111,-98,9.254
-84,-197,9.255
-16,-114,9.256
113,71,9.257
238,192,9.258
301,162,9.259
332,39,9.26
375,-68,9.261
377,-95,9.262
245,-67,9.263
11,-48,9.264
-168,-53,9.265
-199,-27,9.266
-156,81,9.267
-143,223,9.268
-154,283,9.269
-132,189,9.27
-98,-3,9.271
-109,-178,9.272
-135,-261,9.273
-90,-272,9.274
35,-244,9.275
146,-198,9.276
161,-155,9.277
116,-122,9.278
98,-82,9.279
125,-14,9.28
150,60,9.281
145,86,9.282
134,69,9.283
142,87,9.284
144,167,9.285
83,216,9.286
-48,131,9.287
-187,-50,9.288
-260,-169,9.289
-260,-132,9.29
-218,-20,9.291
-145,40,9.292
-39,39,9.293
77,51,9.294
149,113,9.295
146,168,9.296
93,157,9.297
15,107,9.298
-70,55,9.299
-139,5,9.3
-171,-48,9.301
-175,-100,9.302
-163,-173,9.303
-124,-281,9.304
-43,-352,9.305
55,-249,9.306
123,47,9.307
135,337,9.308
102,382,9.309
46,182,9.31
-5,-35,9.311
-24,-88,9.312
-10,-25,9.313
11,21,9.314
20,11,9.315
19,-12,9.316
16,-26,9.317
3,-38,9.318
-22,-27,9.319
-39,30,9.32
-29,99,9.321
-8,109,9.322
5,44,9.323
5,-52,9.324
-11,-143,9.325
-46,-214,9.326
-82,-239,9.327
-81,-175,9.328
-31,-16,9.329
38,160,9.33
79,231,9.331
75,152,9.332
60,0,9.333
72,-138,9.334
124,-194,9.335
161,-173,9.336
120,76,9.337
14,273,9.338
-65,309,9.339
-66,284,9.34
-29,77,9.341
-15,-84,9.342
-21,-108,9.343
9,-125,9.344
98,-121,9.345
192,-115,9.346
184,-108,9.347
23,-126,9.348
-190,-224,9.349
-265,-256,9.35
-133,-86,9.351
73,97,9.352
195,321,9.353
216,491,9.354
190,401,9.355
122,221,9.356
18,112,9.357
-55,97,9.358
-44,78,9.359
-25,15,9.36
-70,-38,9.361
-129,-47,9.362
-124,-47,9.363
-87,-72,9.364
-104,-95,9.365
-160,-91,9.366
-195,-75,9.367
-197,-76,9.368
-182,-85,9.369
-129,-88,9.37
-17,-82,9.371
112,-74,9.372
218,-64,9.373
301,-56,9.374
314,-33,9.375
190,23,9.376
-13,98,9.377
-128,129,9.378
-72,69,9.379
42,-36,9.38
79,-94,9.381
42,-82,9.382
9,-57,9.383
-12,-58,9.384
-55,-70,9.385
-122,-61,9.386
-194,-37,9.387
-268,-15,9.388
-307,-2,9.389
-245,9,9.39
-69,19,9.391
133,24,9.392
273,26,9.393
346,19,9.394
396,7,9.395
380,-1,9.396
266,1,9.397
101,10,9.398
-7,14,9.399
-12,9,9.4
26,3,9.401
22,1,9.402
-35,-10,9.403
-84,-32,9.404
-76,-49,9.405
-42,-42,9.406
-33,-17,9.407
-47,0,9.408
-46,2,9.409
-27,3,9.41
-27,19,9.411
-55,44,9.412
-74,60,9.413
-63,65,9.414
-60,65,9.415
-90,65,9.416
-135,60,9.417
-162,43,9.418
-159,19,9.419
-128,-2,9.42
-69,-18,9.421
7,-34,9.422
78,-51,9.423
122,-57,9.424
102,-40,9.425
-10,-12,9.426
-180,9,9.427
-272,20,9.428
-179,25,9.429
33,24,9.43
208,15,9.431
295,-10,9.432
343,-60,9.433
352,-156,9.434
253,-216,9.435
93,-162,9.436
48,-12,9.437
150,130,9.438
211,179,9.439
111,146,9.44
1,27,9.441
42,-213,9.442
146,-473,9.443
136,-494,9.444
30,-192,9.445
-37,157,9.446
-50,286,9.447
-90,300,9.448
-158,406,9.449
-181,515,9.45
-159,435,9.451
-140,258,9.452
-129,186,9.453
-110,162,9.454
-94,40,9.455
-81,-96,9.456
-78,-72,9.457
-72,42,9.458
-57,55,9.459
-47,-10,9.46
-52,-37,9.461
-51,-110,9.462
-32,-320,9.463
-13,-494,9.464
4,-407,9.465
16,-136,9.466
10,67,9.467
5,123,9.468
0,122,9.469
-8,124,9.47
-21,130,9.471
-29,145,9.472
-18,151,9.473
-4,106,9.474
1,38,9.475
-3,-19,9.476
-2,-44,9.477
4,-92,9.478
13,-204,9.479
23,-282,9.48
31,-260,9.481
22,-214,9.482
-2,-96,9.483
-25,6,9.484
-38,62,9.485
-30,77,9.486
16,-28,9.487
105,-109,9.488
201,-115,9.489
272,-57,9.49
303,196,9.491
266,395,9.492
157,435,9.493
10,428,9.494
-70,268,9.495
-62,144,9.496
-49,42,9.497
-82,-87,9.498
-106,-222,9.499
-74,-287,9.5
-28,-249,9.501
-21,-134,9.502
-27,5,9.503
-9,97,9.504
14,74,9.505
12,-49,9.506
2,-167,9.507
0,-196,9.508
-16,-162,9.509
-49,-118,9.51
-58,-40,9.511
-39,67,9.512
-34,81,9.513
-71,-142,9.514
-103,-340,9.515
-92,-218,9.516
-60,175,9.517
-56,467,9.518
-75,408,9.519
-78,141,9.52
-44,-62,9.521
17,-111,9.522
86,-49,9.523
130,70,9.524
93,165,9.525
-50,139,9.526
-232,16,9.527
-308,-73,9.528
-181,-107,9.529
93,-197,9.53
363,-338,9.531
512,-358,9.532
519,-192,9.533
405,47,9.534
234,214,9.535
86,315,9.536
4,382,9.537
-38,354,9.538
-83,216,9.539
-115,86,9.54
-105,35,9.541
-78,-22,9.542
-81,-143,9.543
-109,-225,9.544
-119,-194,9.545
-107,-125,9.546
-94,-97,9.547
-78,-68,9.548
-52,-13,9.549
-41,14,9.55
-64,12,9.551
-88,58,9.552
-73,138,9.553
-37,132,9.554
-20,-29,9.555
-31,-235,9.556
-46,-335,9.557
-58,-262,9.558
-66,-66,9.559
-47,139,9.56
5,234,9.561
60,189,9.562
101,78,9.563
155,0,9.564
233,-8,9.565
269,56,9.566
198,153,9.567
63,186,9.568
-33,77,9.569
-51,-120,9.57
-41,-251,9.571
-49,-210,9.572
-66,-49,9.573
-73,113,9.574
-69,169,9.575
-64,121,9.576
-61,43,9.577
-58,-42,9.578
-56,-185,9.579
-55,-343,9.58
-56,-351,9.581
-53,-144,9.582
-35,106,9.583
-1,208,9.584
28,172,9.585
27,123,9.586
11,92,9.587
19,66,9.588
60,86,9.589
94,158,9.59
86,151,9.591
45,-52,9.592
15,-331,9.593
9,-468,9.594
26,-334,9.595
47,-69,9.596
56,100,9.597
60,139,9.598
76,152,9.599
85,170,9.6
40,140,9.601
-79,109,9.602
-195,195,9.603
-209,345,9.604
-120,373,9.605
-19,256,9.606
29,183,9.607
51,205,9.608
96,159,9.609
151,-25,9.61
138,-208,9.611
1,-267,9.612
-197,-256,9.613
-348,-264,9.614
-350,-314,9.615
-247,-377,9.616
-158,-342,9.617
-100,-81,9.618
25,307,9.619
252,507,9.62
465,375,9.621
540,108,9.622
473,-111,9.623
338,-327,9.624
188,-516,9.625
55,-447,9.626
-28,-72,9.627
-60,275,9.628
-74,322,9.629
-108,213,9.63
-166,175,9.631
-226,161,9.632
-257,67,9.633
-221,-29,9.634
-104,-14,9.635
42,22,9.636
128,-48,9.637
116,-137,9.638
65,-116,9.639
53,-52,9.64
82,-62,9.641
75,-113,9.642
-24,-118,9.643
-175,-115,9.644
-276,-161,9.645
-268,-210,9.646
-200,-200,9.647
-144,-148,9.648
-68,-95,9.649
121,-40,9.65
403,3,9.651
553,0,9.652
398,-47,9.653
50,-111,9.654
-170,-140,9.655
-296,-72,9.656
-140,111,9.657
-21,303,9.658
-17,339,9.659
-15,217,9.66
-24,110,9.661
-40,117,9.662
-76,181,9.663
-84,228,9.664
-9,209,9.665
52,35,9.666
74,-292,9.667
76,-511,9.668
18,-364,9.669
-24,12,9.67
-20,242,9.671
-15,223,9.672
-11,168,9.673
-4,205,9.674
26,275,9.675
76,324,9.676
68,390,9.677
-21,435,9.678
-107,339,9.679
-106,128,9.68
-19,-27,9.681
105,-65,9.682
243,-74,9.683
355,-115,9.684
361,-157,9.685
217,-210,9.686
-15,-318,9.687
-215,-439,9.688
-340,-459,9.689
-435,-385,9.69
-522,-358,9.691
-524,-439,9.692
-370,-510,9.693
-60,-432,9.694
260,-178,9.695
433,176,9.696
428,522,9.697
326,740,9.698
215,720,9.699
111,484,9.7
2,193,9.701
-87,-4,9.702
-110,-93,9.703
-59,-100,9.704
25,-28,9.705
95,88,9.706
114,151,9.707
68,86,9.708
12,-87,9.709
28,-266,9.71
119,-328,9.711
184,-201,9.712
161,18,9.713
83,163,9.714
26,127,9.715
-6,12,9.716
-45,-23,9.717
-78,10,9.718
-74,-10,9.719
-49,-95,9.72
-44,-140,9.721
-60,-114,9.722
-65,-98,9.723
-53,-125,9.724
-45,-170,9.725
-56,-291,9.726
-65,-572,9.727
-60,-838,9.728
-63,-672,9.729
-97,48,9.73
-133,841,9.731
-122,1110,9.732
-62,856,9.733
-7,463,9.734
8,254,9.735
19,207,9.736
15,214,9.737
8,250,9.738
-4,222,9.739
-13,42,9.74
-13,-168,9.741
-4,-231,9.742
27,-212,9.743
51,-284,9.744
54,-375,9.745
53,-303,9.746
39,-153,9.747
27,-160,9.748
19,-304,9.749
10,-359,9.75
0,-302,9.751
-2,-332,9.752
21,-444,9.753
49,-365,9.754
75,89,9.755
58,700,9.756
7,1057,9.757
-34,1002,9.758
-32,685,9.759
-4,330,9.76
9,99,9.761
8,54,9.762
31,122,9.763
79,124,9.764
88,-46,9.765
25,-280,9.766
-49,-394,9.767
-59,-365,9.768
-29,-324,9.769
-30,-323,9.77
-64,-262,9.771
-67,-64,9.772
-31,162,9.773
-14,261,9.774
-39,166,9.775
-56,-28,9.776
