Deltoid,Bicep,Time
4.0,-4.0,0.0
5.0,-5.0,0.001
5.0,-3.0,0.002
0.0,0.0,0.003
-2.0,0.0,0.004
0.0,0.0,0.005
5.0,2.0,0.006
5.0,4.0,0.007
1.0,4.0,0.008
-4.0,-2.0,0.009
-9.0,-5.0,0.01
-9.0,-3.0,0.011
-2.0,-1.0,0.012
9.0,-1.0,0.013
16.0,-1.0,0.014
18.0,2.0,0.015
17.0,3.0,0.016
18.0,3.0,0.017
17.0,0.0,0.018
14.0,-1.0,0.019
8.0,-3.0,0.02
-1.0,-10.0,0.021
-11.0,-10.0,0.022
-13.0,-4.0,0.023
-3.0,0.0,0.024
6.0,1.0,0.025
4.0,0.0,0.026
-2.0,2.0,0.027
-1.0,3.0,0.028
8.0,2.0,0.029
16.0,3.0,0.03
15.0,4.0,0.031
16.0,2.0,0.032
20.0,0.0,0.033
22.0,1.0,0.034
15.0,0.0,0.035
2.0,-3.0,0.036
-5.0,-5.0,0.037
-10.0,-3.0,0.038
-13.0,0.0,0.039
-19.0,-1.0,0.04
-21.0,-8.0,0.041
-16.0,-8.0,0.042
-4.0,-4.0,0.043
4.0,-1.0,0.044
2.0,-1.0,0.045
0.0,0.0,0.046
2.0,2.0,0.047
5.0,1.0,0.048
-9.0,-2.0,0.049
-37.0,-2.0,0.05
-56.0,0.0,0.051
-48.0,2.0,0.052
-19.0,2.0,0.053
9.0,2.0,0.054
24.0,1.0,0.055
31.0,0.0,0.056
45.0,0.0,0.057
55.0,0.0,0.058
51.0,1.0,0.059
26.0,-3.0,0.06
4.0,-10.0,0.061
5.0,-9.0,0.062
22.0,-4.0,0.063
27.0,3.0,0.064
12.0,4.0,0.065
-5.0,2.0,0.066
-11.0,0.0,0.067
-9.0,-2.0,0.068
-10.0,-1.0,0.069
-10.0,0.0,0.07
0.0,2.0,0.071
11.0,1.0,0.072
15.0,-1.0,0.073
13.0,-1.0,0.074
8.0,1.0,0.075
-1.0,3.0,0.076
-12.0,3.0,0.077
-21.0,-1.0,0.078
-18.0,-3.0,0.079
-8.0,-4.0,0.08
-5.0,-5.0,0.081
-6.0,-2.0,0.082
-3.0,1.0,0.083
5.0,3.0,0.084
6.0,1.0,0.085
0.0,0.0,0.086
-5.0,-1.0,0.087
-4.0,0.0,0.088
0.0,3.0,0.089
9.0,9.0,0.09
24.0,11.0,0.091
36.0,3.0,0.092
29.0,-4.0,0.093
4.0,-4.0,0.094
-15.0,0.0,0.095
-11.0,1.0,0.096
6.0,0.0,0.097
21.0,-4.0,0.098
29.0,-4.0,0.099
27.0,-3.0,0.1
25.0,-7.0,0.101
21.0,-10.0,0.102
15.0,-10.0,0.103
0.0,-6.0,0.104
-24.0,0.0,0.105
-47.0,3.0,0.106
-52.0,0.0,0.107
-42.0,-3.0,0.108
-30.0,-3.0,0.109
-24.0,1.0,0.11
-14.0,5.0,0.111
1.0,7.0,0.112
16.0,8.0,0.113
17.0,7.0,0.114
7.0,1.0,0.115
-8.0,-4.0,0.116
-18.0,-4.0,0.117
-19.0,-1.0,0.118
-6.0,1.0,0.119
15.0,0.0,0.12
32.0,-4.0,0.121
39.0,-6.0,0.122
39.0,-7.0,0.123
38.0,-4.0,0.124
33.0,1.0,0.125
21.0,5.0,0.126
6.0,2.0,0.127
-5.0,0.0,0.128
-8.0,2.0,0.129
-5.0,1.0,0.13
-2.0,-3.0,0.131
-1.0,-8.0,0.132
-3.0,-7.0,0.133
-6.0,-2.0,0.134
-6.0,-1.0,0.135
-5.0,-3.0,0.136
0.0,-3.0,0.137
1.0,-2.0,0.138
3.0,-2.0,0.139
-2.0,-5.0,0.14
-13.0,-7.0,0.141
-24.0,-6.0,0.142
-24.0,-2.0,0.143
-11.0,0.0,0.144
3.0,3.0,0.145
13.0,6.0,0.146
19.0,5.0,0.147
26.0,1.0,0.148
30.0,-2.0,0.149
23.0,0.0,0.15
11.0,2.0,0.151
0.0,3.0,0.152
-3.0,2.0,0.153
-3.0,2.0,0.154
2.0,4.0,0.155
9.0,5.0,0.156
14.0,5.0,0.157
10.0,2.0,0.158
2.0,1.0,0.159
-6.0,0.0,0.16
-11.0,-4.0,0.161
-11.0,-7.0,0.162
-6.0,-7.0,0.163
1.0,-5.0,0.164
2.0,0.0,0.165
-3.0,3.0,0.166
-2.0,4.0,0.167
0.0,4.0,0.168
-1.0,2.0,0.169
-3.0,0.0,0.17
0.0,-2.0,0.171
11.0,-2.0,0.172
18.0,-1.0,0.173
14.0,-1.0,0.174
5.0,0.0,0.175
1.0,-3.0,0.176
3.0,-5.0,0.177
3.0,-6.0,0.178
1.0,-6.0,0.179
-4.0,-6.0,0.18
-11.0,-8.0,0.181
-14.0,-5.0,0.182
-10.0,2.0,0.183
-4.0,7.0,0.184
-7.0,7.0,0.185
-11.0,2.0,0.186
-5.0,-1.0,0.187
14.0,-2.0,0.188
26.0,-1.0,0.189
18.0,0.0,0.19
1.0,-2.0,0.191
-2.0,-7.0,0.192
6.0,-6.0,0.193
19.0,1.0,0.194
28.0,9.0,0.195
36.0,7.0,0.196
35.0,2.0,0.197
13.0,-2.0,0.198
-15.0,-1.0,0.199
-32.0,0.0,0.2
-25.0,-5.0,0.201
-12.0,-9.0,0.202
-4.0,-8.0,0.203
-3.0,-5.0,0.204
-1.0,0.0,0.205
6.0,0.0,0.206
16.0,-2.0,0.207
20.0,-2.0,0.208
12.0,1.0,0.209
-2.0,4.0,0.21
-8.0,3.0,0.211
-5.0,2.0,0.212
-6.0,2.0,0.213
-15.0,3.0,0.214
-18.0,-1.0,0.215
-4.0,-3.0,0.216
12.0,0.0,0.217
18.0,0.0,0.218
17.0,0.0,0.219
15.0,-3.0,0.22
11.0,-4.0,0.221
2.0,0.0,0.222
-3.0,3.0,0.223
2.0,6.0,0.224
10.0,9.0,0.225
8.0,9.0,0.226
1.0,3.0,0.227
6.0,-3.0,0.228
12.0,-4.0,0.229
12.0,-1.0,0.23
7.0,-1.0,0.231
4.0,-3.0,0.232
0.0,-5.0,0.233
-11.0,-4.0,0.234
-22.0,-4.0,0.235
-20.0,-4.0,0.236
-10.0,0.0,0.237
-5.0,-1.0,0.238
-6.0,-5.0,0.239
-6.0,-8.0,0.24
-2.0,-10.0,0.241
0.0,-7.0,0.242
3.0,-6.0,0.243
8.0,-4.0,0.244
10.0,0.0,0.245
4.0,0.0,0.246
-3.0,-2.0,0.247
-3.0,-5.0,0.248
-2.0,-3.0,0.249
-3.0,3.0,0.25
-2.0,8.0,0.251
10.0,7.0,0.252
27.0,5.0,0.253
32.0,4.0,0.254
25.0,1.0,0.255
16.0,-2.0,0.256
12.0,-3.0,0.257
3.0,-6.0,0.258
-5.0,-7.0,0.259
-13.0,-7.0,0.26
-17.0,-8.0,0.261
-20.0,-5.0,0.262
-23.0,-2.0,0.263
-22.0,-1.0,0.264
-8.0,1.0,0.265
13.0,4.0,0.266
25.0,4.0,0.267
26.0,2.0,0.268
17.0,3.0,0.269
12.0,6.0,0.27
16.0,5.0,0.271
22.0,-1.0,0.272
19.0,-6.0,0.273
6.0,-5.0,0.274
-2.0,-1.0,0.275
6.0,0.0,0.276
21.0,0.0,0.277
21.0,-1.0,0.278
11.0,0.0,0.279
-3.0,2.0,0.28
-11.0,0.0,0.281
-14.0,-1.0,0.282
-10.0,-2.0,0.283
-3.0,0.0,0.284
-3.0,3.0,0.285
-11.0,5.0,0.286
-16.0,2.0,0.287
-12.0,-2.0,0.288
-5.0,-3.0,0.289
-6.0,-2.0,0.29
-5.0,-2.0,0.291
6.0,-4.0,0.292
19.0,-3.0,0.293
23.0,0.0,0.294
16.0,0.0,0.295
5.0,-3.0,0.296
-1.0,-4.0,0.297
-4.0,-3.0,0.298
-2.0,0.0,0.299
-3.0,0.0,0.3
-9.0,-2.0,0.301
-13.0,0.0,0.302
-9.0,2.0,0.303
0.0,3.0,0.304
4.0,2.0,0.305
1.0,4.0,0.306
5.0,5.0,0.307
15.0,3.0,0.308
19.0,2.0,0.309
11.0,3.0,0.31
0.0,4.0,0.311
-2.0,0.0,0.312
-2.0,-4.0,0.313
-8.0,-3.0,0.314
-16.0,-1.0,0.315
-15.0,-1.0,0.316
-10.0,-3.0,0.317
-12.0,-3.0,0.318
-17.0,0.0,0.319
-13.0,3.0,0.32
6.0,-2.0,0.321
28.0,-4.0,0.322
34.0,-1.0,0.323
22.0,2.0,0.324
8.0,0.0,0.325
1.0,-2.0,0.326
0.0,-2.0,0.327
0.0,-2.0,0.328
1.0,-3.0,0.329
6.0,-2.0,0.33
15.0,-1.0,0.331
16.0,0.0,0.332
11.0,0.0,0.333
10.0,2.0,0.334
15.0,4.0,0.335
16.0,3.0,0.336
12.0,-1.0,0.337
2.0,-4.0,0.338
-4.0,-4.0,0.339
-9.0,-3.0,0.34
-14.0,-7.0,0.341
-17.0,-7.0,0.342
-8.0,-1.0,0.343
5.0,6.0,0.344
9.0,9.0,0.345
2.0,10.0,0.346
0.0,9.0,0.347
14.0,6.0,0.348
28.0,2.0,0.349
26.0,0.0,0.35
7.0,-2.0,0.351
-11.0,-5.0,0.352
-16.0,-6.0,0.353
-11.0,-3.0,0.354
-5.0,2.0,0.355
-1.0,1.0,0.356
1.0,-4.0,0.357
-1.0,-8.0,0.358
-3.0,-6.0,0.359
-4.0,-5.0,0.36
-2.0,-5.0,0.361
0.0,-5.0,0.362
4.0,-3.0,0.363
8.0,0.0,0.364
9.0,6.0,0.365
10.0,11.0,0.366
10.0,5.0,0.367
10.0,1.0,0.368
8.0,1.0,0.369
7.0,1.0,0.37
7.0,1.0,0.371
5.0,0.0,0.372
2.0,-1.0,0.373
-1.0,-3.0,0.374
-7.0,-1.0,0.375
-14.0,-1.0,0.376
-18.0,-5.0,0.377
-21.0,-7.0,0.378
-19.0,-4.0,0.379
-11.0,-3.0,0.38
1.0,-7.0,0.381
12.0,-7.0,0.382
18.0,-3.0,0.383
17.0,2.0,0.384
5.0,6.0,0.385
-4.0,10.0,0.386
3.0,10.0,0.387
23.0,6.0,0.388
30.0,-1.0,0.389
18.0,-3.0,0.39
4.0,-2.0,0.391
4.0,0.0,0.392
8.0,-2.0,0.393
5.0,-3.0,0.394
0.0,-2.0,0.395
-2.0,-1.0,0.396
-11.0,1.0,0.397
-23.0,0.0,0.398
-24.0,0.0,0.399
-7.0,1.0,0.4
8.0,-3.0,0.401
5.0,-4.0,0.402
1.0,-3.0,0.403
6.0,0.0,0.404
10.0,5.0,0.405
0.0,6.0,0.406
-8.0,3.0,0.407
-3.0,-2.0,0.408
6.0,-5.0,0.409
9.0,-2.0,0.41
11.0,0.0,0.411
20.0,-1.0,0.412
33.0,-4.0,0.413
35.0,-3.0,0.414
22.0,1.0,0.415
-1.0,3.0,0.416
-17.0,4.0,0.417
-18.0,2.0,0.418
-8.0,-3.0,0.419
-8.0,-6.0,0.42
-21.0,-10.0,0.421
-26.0,-7.0,0.422
-10.0,-1.0,0.423
10.0,2.0,0.424
15.0,5.0,0.425
7.0,8.0,0.426
8.0,5.0,0.427
14.0,1.0,0.428
16.0,1.0,0.429
11.0,2.0,0.43
8.0,2.0,0.431
4.0,-2.0,0.432
-6.0,-4.0,0.433
-17.0,-2.0,0.434
-16.0,-2.0,0.435
-9.0,-2.0,0.436
-4.0,-1.0,0.437
-4.0,-1.0,0.438
3.0,-1.0,0.439
15.0,-4.0,0.44
24.0,-8.0,0.441
25.0,-7.0,0.442
24.0,-4.0,0.443
21.0,-2.0,0.444
14.0,-1.0,0.445
-4.0,2.0,0.446
-22.0,5.0,0.447
-28.0,5.0,0.448
-20.0,0.0,0.449
-4.0,-3.0,0.45
13.0,0.0,0.451
21.0,2.0,0.452
16.0,1.0,0.453
7.0,-2.0,0.454
5.0,-2.0,0.455
5.0,1.0,0.456
5.0,3.0,0.457
5.0,-1.0,0.458
8.0,-6.0,0.459
8.0,-9.0,0.46
-1.0,-10.0,0.461
-10.0,-6.0,0.462
-5.0,0.0,0.463
9.0,7.0,0.464
15.0,10.0,0.465
5.0,9.0,0.466
-7.0,6.0,0.467
-13.0,6.0,0.468
-8.0,5.0,0.469
-1.0,3.0,0.47
5.0,1.0,0.471
2.0,0.0,0.472
-5.0,-2.0,0.473
-8.0,-3.0,0.474
-7.0,-4.0,0.475
-6.0,-4.0,0.476
-3.0,-1.0,0.477
4.0,2.0,0.478
13.0,5.0,0.479
14.0,6.0,0.48
8.0,0.0,0.481
7.0,-4.0,0.482
18.0,-6.0,0.483
27.0,-5.0,0.484
26.0,0.0,0.485
14.0,5.0,0.486
2.0,3.0,0.487
-2.0,-3.0,0.488
-2.0,-6.0,0.489
-2.0,-1.0,0.49
-2.0,4.0,0.491
0.0,2.0,0.492
0.0,-3.0,0.493
-1.0,-6.0,0.494
-3.0,-5.0,0.495
-4.0,-4.0,0.496
-5.0,-4.0,0.497
-9.0,-5.0,0.498
-14.0,-4.0,0.499
-18.0,-3.0,0.5
-21.0,-6.0,0.501
-17.0,-5.0,0.502
0.0,-2.0,0.503
27.0,-1.0,0.504
37.0,-2.0,0.505
26.0,0.0,0.506
6.0,0.0,0.507
-2.0,2.0,0.508
-4.0,3.0,0.509
-14.0,5.0,0.51
-27.0,4.0,0.511
-22.0,0.0,0.512
7.0,-1.0,0.513
36.0,0.0,0.514
40.0,0.0,0.515
27.0,-1.0,0.516
23.0,-1.0,0.517
30.0,0.0,0.518
24.0,1.0,0.519
-5.0,-1.0,0.52
-26.0,-6.0,0.521
-19.0,-7.0,0.522
4.0,-4.0,0.523
12.0,0.0,0.524
1.0,2.0,0.525
-8.0,3.0,0.526
-5.0,4.0,0.527
-3.0,5.0,0.528
-4.0,4.0,0.529
-5.0,0.0,0.53
-4.0,-3.0,0.531
-7.0,-4.0,0.532
-10.0,0.0,0.533
-12.0,4.0,0.534
-10.0,3.0,0.535
-10.0,-2.0,0.536
-9.0,-6.0,0.537
-6.0,-6.0,0.538
-3.0,-5.0,0.539
0.0,-7.0,0.54
5.0,-10.0,0.541
17.0,-8.0,0.542
28.0,-5.0,0.543
33.0,-3.0,0.544
32.0,-1.0,0.545
25.0,3.0,0.546
11.0,5.0,0.547
-6.0,0.0,0.548
-18.0,-3.0,0.549
-17.0,1.0,0.55
-7.0,6.0,0.551
-1.0,4.0,0.552
0.0,-2.0,0.553
3.0,-3.0,0.554
10.0,1.0,0.555
9.0,2.0,0.556
-1.0,1.0,0.557
-12.0,-1.0,0.558
-11.0,-1.0,0.559
-4.0,-1.0,0.56
0.0,-6.0,0.561
5.0,-4.0,0.562
19.0,0.0,0.563
32.0,3.0,0.564
31.0,1.0,0.565
20.0,0.0,0.566
12.0,0.0,0.567
12.0,2.0,0.568
7.0,3.0,0.569
-6.0,2.0,0.57
-20.0,3.0,0.571
-28.0,2.0,0.572
-33.0,0.0,0.573
-25.0,-1.0,0.574
-2.0,-1.0,0.575
19.0,-3.0,0.576
21.0,-2.0,0.577
13.0,-2.0,0.578
14.0,1.0,0.579
18.0,2.0,0.58
9.0,-4.0,0.581
-10.0,-9.0,0.582
-12.0,-8.0,0.583
2.0,-4.0,0.584
7.0,0.0,0.585
-6.0,1.0,0.586
-16.0,-2.0,0.587
-8.0,-4.0,0.588
1.0,-2.0,0.589
0.0,1.0,0.59
0.0,1.0,0.591
10.0,0.0,0.592
16.0,-1.0,0.593
12.0,0.0,0.594
7.0,2.0,0.595
6.0,0.0,0.596
9.0,0.0,0.597
4.0,1.0,0.598
-1.0,3.0,0.599
-5.0,3.0,0.6
-5.0,-1.0,0.601
-6.0,-4.0,0.602
-2.0,-1.0,0.603
3.0,3.0,0.604
4.0,4.0,0.605
-1.0,3.0,0.606
-3.0,0.0,0.607
2.0,-2.0,0.608
10.0,-2.0,0.609
14.0,0.0,0.61
13.0,0.0,0.611
7.0,-1.0,0.612
2.0,-4.0,0.613
-1.0,-3.0,0.614
-4.0,-1.0,0.615
-7.0,0.0,0.616
-8.0,0.0,0.617
-5.0,-2.0,0.618
2.0,-2.0,0.619
0.0,-3.0,0.62
-9.0,-9.0,0.621
-11.0,-9.0,0.622
3.0,-6.0,0.623
19.0,-1.0,0.624
19.0,3.0,0.625
11.0,6.0,0.626
10.0,7.0,0.627
21.0,4.0,0.628
23.0,1.0,0.629
17.0,3.0,0.63
14.0,5.0,0.631
14.0,3.0,0.632
0.0,-3.0,0.633
-23.0,-3.0,0.634
-30.0,1.0,0.635
-11.0,3.0,0.636
12.0,2.0,0.637
12.0,-3.0,0.638
1.0,-6.0,0.639
3.0,-5.0,0.64
16.0,-8.0,0.641
20.0,-7.0,0.642
13.0,-3.0,0.643
5.0,-2.0,0.644
-1.0,1.0,0.645
-4.0,4.0,0.646
2.0,6.0,0.647
19.0,4.0,0.648
23.0,0.0,0.649
10.0,-4.0,0.65
-4.0,-5.0,0.651
-4.0,-3.0,0.652
-3.0,1.0,0.653
-13.0,3.0,0.654
-19.0,0.0,0.655
-10.0,-3.0,0.656
1.0,-3.0,0.657
4.0,-2.0,0.658
8.0,-4.0,0.659
10.0,-6.0,0.66
6.0,-8.0,0.661
0.0,-6.0,0.662
-9.0,-3.0,0.663
-17.0,0.0,0.664
-16.0,5.0,0.665
-12.0,9.0,0.666
-2.0,8.0,0.667
7.0,4.0,0.668
13.0,1.0,0.669
18.0,0.0,0.67
17.0,0.0,0.671
15.0,-2.0,0.672
13.0,-2.0,0.673
10.0,-1.0,0.674
3.0,-3.0,0.675
-2.0,-3.0,0.676
-4.0,0.0,0.677
-11.0,3.0,0.678
-24.0,4.0,0.679
-18.0,4.0,0.68
-1.0,2.0,0.681
2.0,0.0,0.682
-5.0,-3.0,0.683
-8.0,-3.0,0.684
-1.0,2.0,0.685
3.0,5.0,0.686
-1.0,1.0,0.687
-3.0,-3.0,0.688
1.0,-1.0,0.689
6.0,1.0,0.69
3.0,0.0,0.691
-1.0,-3.0,0.692
-4.0,-2.0,0.693
-2.0,1.0,0.694
2.0,0.0,0.695
12.0,-5.0,0.696
17.0,-5.0,0.697
16.0,-3.0,0.698
14.0,-1.0,0.699
14.0,-2.0,0.7
15.0,-7.0,0.701
14.0,-7.0,0.702
17.0,-6.0,0.703
19.0,-2.0,0.704
11.0,2.0,0.705
-4.0,2.0,0.706
-14.0,-2.0,0.707
-15.0,-7.0,0.708
-17.0,-4.0,0.709
-22.0,2.0,0.71
-12.0,3.0,0.711
17.0,-1.0,0.712
40.0,-3.0,0.713
42.0,-1.0,0.714
26.0,1.0,0.715
12.0,0.0,0.716
3.0,0.0,0.717
-2.0,2.0,0.718
-5.0,4.0,0.719
-8.0,2.0,0.72
-11.0,-5.0,0.721
-14.0,-7.0,0.722
-11.0,-2.0,0.723
-6.0,5.0,0.724
-5.0,8.0,0.725
-11.0,5.0,0.726
-14.0,1.0,0.727
-6.0,1.0,0.728
5.0,1.0,0.729
17.0,0.0,0.73
29.0,-1.0,0.731
38.0,-2.0,0.732
35.0,-3.0,0.733
18.0,-3.0,0.734
0.0,-1.0,0.735
-6.0,1.0,0.736
-3.0,2.0,0.737
2.0,-1.0,0.738
8.0,-2.0,0.739
8.0,0.0,0.74
2.0,0.0,0.741
0.0,-1.0,0.742
6.0,-3.0,0.743
9.0,-3.0,0.744
-2.0,0.0,0.745
-16.0,3.0,0.746
-17.0,4.0,0.747
-6.0,2.0,0.748
-2.0,2.0,0.749
-3.0,1.0,0.75
-5.0,1.0,0.751
-7.0,0.0,0.752
-13.0,0.0,0.753
-13.0,0.0,0.754
0.0,-2.0,0.755
16.0,-4.0,0.756
19.0,-3.0,0.757
11.0,-1.0,0.758
5.0,0.0,0.759
2.0,-1.0,0.76
-6.0,-5.0,0.761
-19.0,-3.0,0.762
-22.0,-2.0,0.763
-9.0,-1.0,0.764
9.0,-2.0,0.765
21.0,-1.0,0.766
24.0,3.0,0.767
21.0,4.0,0.768
21.0,3.0,0.769
23.0,2.0,0.77
22.0,3.0,0.771
13.0,3.0,0.772
3.0,2.0,0.773
0.0,0.0,0.774
5.0,-3.0,0.775
4.0,-5.0,0.776
-3.0,-4.0,0.777
-16.0,-2.0,0.778
-26.0,0.0,0.779
-28.0,-2.0,0.78
-22.0,-7.0,0.781
-13.0,-8.0,0.782
-8.0,-5.0,0.783
-6.0,0.0,0.784
-4.0,4.0,0.785
-5.0,5.0,0.786
-3.0,2.0,0.787
4.0,-2.0,0.788
13.0,-2.0,0.789
13.0,1.0,0.79
6.0,2.0,0.791
4.0,0.0,0.792
13.0,-2.0,0.793
18.0,-1.0,0.794
14.0,0.0,0.795
9.0,1.0,0.796
12.0,3.0,0.797
15.0,2.0,0.798
14.0,0.0,0.799
5.0,-3.0,0.8
-4.0,-4.0,0.801
-6.0,-5.0,0.802
-2.0,-2.0,0.803
4.0,1.0,0.804
6.0,2.0,0.805
2.0,2.0,0.806
-1.0,0.0,0.807
0.0,-1.0,0.808
3.0,-1.0,0.809
0.0,0.0,0.81
-2.0,0.0,0.811
-4.0,0.0,0.812
-5.0,1.0,0.813
-5.0,2.0,0.814
-3.0,0.0,0.815
2.0,-1.0,0.816
6.0,-1.0,0.817
8.0,0.0,0.818
19.0,2.0,0.819
30.0,1.0,0.82
29.0,-6.0,0.821
16.0,-8.0,0.822
8.0,-7.0,0.823
6.0,-3.0,0.824
0.0,0.0,0.825
-13.0,4.0,0.826
-21.0,5.0,0.827
-12.0,4.0,0.828
0.0,3.0,0.829
3.0,1.0,0.83
0.0,-1.0,0.831
1.0,-1.0,0.832
11.0,1.0,0.833
18.0,4.0,0.834
15.0,2.0,0.835
4.0,-1.0,0.836
-5.0,-2.0,0.837
-8.0,-2.0,0.838
-5.0,-2.0,0.839
-7.0,-4.0,0.84
-16.0,-8.0,0.841
-17.0,-8.0,0.842
-7.0,-4.0,0.843
7.0,0.0,0.844
13.0,2.0,0.845
12.0,0.0,0.846
14.0,-1.0,0.847
13.0,-3.0,0.848
-2.0,0.0,0.849
-18.0,2.0,0.85
-14.0,0.0,0.851
8.0,-4.0,0.852
24.0,-4.0,0.853
15.0,0.0,0.854
-1.0,4.0,0.855
-6.0,3.0,0.856
-5.0,1.0,0.857
-10.0,-2.0,0.858
-20.0,-4.0,0.859
-18.0,-4.0,0.86
-3.0,-6.0,0.861
13.0,-5.0,0.862
19.0,-2.0,0.863
17.0,1.0,0.864
12.0,4.0,0.865
5.0,2.0,0.866
0.0,-1.0,0.867
1.0,-4.0,0.868
2.0,-3.0,0.869
0.0,-1.0,0.87
-1.0,-1.0,0.871
2.0,-1.0,0.872
8.0,2.0,0.873
11.0,5.0,0.874
9.0,6.0,0.875
9.0,4.0,0.876
6.0,2.0,0.877
-3.0,0.0,0.878
-13.0,-1.0,0.879
-15.0,-1.0,0.88
-11.0,-3.0,0.881
-4.0,-3.0,0.882
10.0,-4.0,0.883
27.0,-4.0,0.884
32.0,1.0,0.885
20.0,5.0,0.886
3.0,4.0,0.887
-2.0,1.0,0.888
0.0,2.0,0.889
0.0,4.0,0.89
-4.0,0.0,0.891
-7.0,-3.0,0.892
-6.0,-3.0,0.893
-9.0,-2.0,0.894
-7.0,-5.0,0.895
-1.0,-2.0,0.896
10.0,7.0,0.897
19.0,11.0,0.898
24.0,8.0,0.899
21.0,1.0,0.9
15.0,-4.0,0.901
6.0,-4.0,0.902
2.0,-3.0,0.903
1.0,-3.0,0.904
-4.0,-2.0,0.905
-14.0,0.0,0.906
-25.0,-1.0,0.907
-27.0,-1.0,0.908
-17.0,0.0,0.909
0.0,0.0,0.91
15.0,-2.0,0.911
23.0,-6.0,0.912
25.0,-4.0,0.913
26.0,2.0,0.914
26.0,5.0,0.915
19.0,3.0,0.916
4.0,2.0,0.917
-10.0,-1.0,0.918
-15.0,-1.0,0.919
-17.0,-2.0,0.92
-17.0,-4.0,0.921
-7.0,-2.0,0.922
9.0,0.0,0.923
17.0,1.0,0.924
7.0,2.0,0.925
-13.0,1.0,0.926
-20.0,1.0,0.927
-11.0,0.0,0.928
0.0,0.0,0.929
3.0,-1.0,0.93
2.0,-1.0,0.931
7.0,0.0,0.932
18.0,1.0,0.933
24.0,2.0,0.934
19.0,0.0,0.935
6.0,-3.0,0.936
-2.0,-2.0,0.937
0.0,-3.0,0.938
3.0,-3.0,0.939
-3.0,-6.0,0.94
-12.0,-10.0,0.941
-10.0,-7.0,0.942
0.0,-4.0,0.943
7.0,0.0,0.944
2.0,3.0,0.945
-4.0,3.0,0.946
-6.0,-1.0,0.947
-3.0,-8.0,0.948
1.0,-8.0,0.949
3.0,-1.0,0.95
7.0,5.0,0.951
10.0,1.0,0.952
15.0,-2.0,0.953
21.0,0.0,0.954
21.0,4.0,0.955
14.0,3.0,0.956
4.0,0.0,0.957
-3.0,-2.0,0.958
-5.0,-1.0,0.959
-9.0,0.0,0.96
-16.0,-2.0,0.961
-18.0,-2.0,0.962
-10.0,-1.0,0.963
0.0,0.0,0.964
4.0,1.0,0.965
4.0,3.0,0.966
8.0,2.0,0.967
15.0,-2.0,0.968
16.0,-5.0,0.969
3.0,-3.0,0.97
-8.0,0.0,0.971
-9.0,-1.0,0.972
-5.0,-1.0,0.973
-4.0,2.0,0.974
-4.0,5.0,0.975
3.0,3.0,0.976
18.0,0.0,0.977
25.0,-1.0,0.978
17.0,0.0,0.979
-5.0,-4.0,0.98
-22.0,-9.0,0.981
-17.0,-8.0,0.982
9.0,-2.0,0.983
32.0,1.0,0.984
32.0,0.0,0.985
18.0,0.0,0.986
13.0,4.0,0.987
19.0,5.0,0.988
19.0,5.0,0.989
5.0,5.0,0.99
-7.0,5.0,0.991
-2.0,5.0,0.992
11.0,6.0,0.993
12.0,7.0,0.994
1.0,6.0,0.995
-8.0,0.0,0.996
-8.0,-4.0,0.997
-5.0,-5.0,0.998
-6.0,-3.0,0.999
-14.0,-6.0,1.0
-22.0,-11.0,1.001
-22.0,-9.0,1.002
-13.0,-3.0,1.003
1.0,2.0,1.004
12.0,4.0,1.005
13.0,5.0,1.006
5.0,3.0,1.007
2.0,-1.0,1.008
4.0,-5.0,1.009
4.0,-6.0,1.01
0.0,-5.0,1.011
1.0,-1.0,1.012
8.0,4.0,1.013
11.0,6.0,1.014
9.0,2.0,1.015
10.0,-2.0,1.016
14.0,-1.0,1.017
12.0,-1.0,1.018
0.0,-5.0,1.019
-13.0,-7.0,1.02
-23.0,-9.0,1.021
-23.0,-5.0,1.022
-19.0,-2.0,1.023
-7.0,-2.0,1.024
5.0,-1.0,1.025
8.0,2.0,1.026
4.0,1.0,1.027
9.0,-1.0,1.028
20.0,-1.0,1.029
25.0,2.0,1.03
19.0,0.0,1.031
10.0,-2.0,1.032
12.0,0.0,1.033
19.0,2.0,1.034
17.0,1.0,1.035
2.0,0.0,1.036
-7.0,4.0,1.037
-6.0,7.0,1.038
8.0,3.0,1.039
18.0,-5.0,1.04
18.0,-10.0,1.041
12.0,-7.0,1.042
7.0,-2.0,1.043
3.0,-2.0,1.044
-4.0,-1.0,1.045
-11.0,4.0,1.046
-10.0,6.0,1.047
-3.0,4.0,1.048
-2.0,3.0,1.049
-3.0,4.0,1.05
0.0,3.0,1.051
10.0,0.0,1.052
13.0,-1.0,1.053
6.0,-2.0,1.054
-5.0,-4.0,1.055
-12.0,-6.0,1.056
-12.0,-4.0,1.057
-13.0,-3.0,1.058
-13.0,-2.0,1.059
-15.0,-3.0,1.06
-16.0,-6.0,1.061
-10.0,-6.0,1.062
5.0,-2.0,1.063
18.0,3.0,1.064
17.0,7.0,1.065
4.0,5.0,1.066
-1.0,-1.0,1.067
6.0,-5.0,1.068
11.0,-1.0,1.069
7.0,2.0,1.07
4.0,0.0,1.071
8.0,-3.0,1.072
11.0,-2.0,1.073
3.0,1.0,1.074
-6.0,1.0,1.075
-8.0,0.0,1.076
-2.0,1.0,1.077
0.0,2.0,1.078
-1.0,0.0,1.079
-3.0,-2.0,1.08
-2.0,-4.0,1.081
2.0,-5.0,1.082
14.0,-3.0,1.083
21.0,-1.0,1.084
15.0,2.0,1.085
10.0,4.0,1.086
10.0,1.0,1.087
9.0,-1.0,1.088
13.0,-1.0,1.089
12.0,-2.0,1.09
-1.0,-2.0,1.091
-13.0,-1.0,1.092
-19.0,0.0,1.093
-26.0,2.0,1.094
-36.0,0.0,1.095
-40.0,0.0,1.096
-24.0,1.0,1.097
0.0,2.0,1.098
40.0,0.0,1.099
62.0,-1.0,1.1
59.0,-3.0,1.101
49.0,-1.0,1.102
44.0,0.0,1.103
38.0,1.0,1.104
14.0,1.0,1.105
-8.0,1.0,1.106
-10.0,0.0,1.107
2.0,1.0,1.108
10.0,2.0,1.109
3.0,1.0,1.11
-6.0,0.0,1.111
-16.0,-2.0,1.112
-24.0,0.0,1.113
-24.0,1.0,1.114
-15.0,0.0,1.115
-10.0,-3.0,1.116
-16.0,-5.0,1.117
-24.0,-6.0,1.118
-18.0,-6.0,1.119
-6.0,-6.0,1.12
2.0,-6.0,1.121
0.0,-5.0,1.122
0.0,-4.0,1.123
7.0,-2.0,1.124
14.0,0.0,1.125
16.0,2.0,1.126
14.0,1.0,1.127
13.0,-2.0,1.128
11.0,-1.0,1.129
13.0,3.0,1.13
9.0,6.0,1.131
0.0,4.0,1.132
-8.0,3.0,1.133
-4.0,2.0,1.134
7.0,4.0,1.135
12.0,3.0,1.136
8.0,3.0,1.137
3.0,0.0,1.138
2.0,-3.0,1.139
-1.0,-6.0,1.14
-10.0,-8.0,1.141
-15.0,-8.0,1.142
-9.0,-6.0,1.143
-2.0,-2.0,1.144
-1.0,5.0,1.145
-5.0,10.0,1.146
-3.0,10.0,1.147
5.0,2.0,1.148
12.0,-1.0,1.149
16.0,1.0,1.15
18.0,1.0,1.151
19.0,0.0,1.152
11.0,0.0,1.153
-4.0,1.0,1.154
-15.0,0.0,1.155
-19.0,-5.0,1.156
-19.0,-5.0,1.157
-18.0,-4.0,1.158
-6.0,-2.0,1.159
14.0,-2.0,1.16
31.0,-4.0,1.161
31.0,-3.0,1.162
24.0,-2.0,1.163
21.0,-1.0,1.164
15.0,1.0,1.165
-1.0,4.0,1.166
-17.0,5.0,1.167
-14.0,3.0,1.168
4.0,2.0,1.169
19.0,0.0,1.17
21.0,-1.0,1.171
17.0,-2.0,1.172
16.0,1.0,1.173
15.0,4.0,1.174
16.0,5.0,1.175
12.0,6.0,1.176
-1.0,8.0,1.177
-18.0,5.0,1.178
-26.0,-2.0,1.179
-21.0,-5.0,1.18
-14.0,-3.0,1.181
-15.0,-1.0,1.182
-9.0,-3.0,1.183
13.0,-7.0,1.184
32.0,-4.0,1.185
25.0,0.0,1.186
3.0,-2.0,1.187
-7.0,-7.0,1.188
-3.0,-6.0,1.189
-1.0,-1.0,1.19
-5.0,0.0,1.191
-5.0,-3.0,1.192
0.0,-3.0,1.193
6.0,0.0,1.194
8.0,-1.0,1.195
10.0,-5.0,1.196
9.0,-5.0,1.197
-1.0,1.0,1.198
-13.0,5.0,1.199
-18.0,4.0,1.2
-14.0,-3.0,1.201
-12.0,-5.0,1.202
-9.0,-3.0,1.203
0.0,0.0,1.204
11.0,2.0,1.205
10.0,4.0,1.206
1.0,5.0,1.207
-5.0,3.0,1.208
-2.0,0.0,1.209
4.0,-1.0,1.21
9.0,-1.0,1.211
10.0,1.0,1.212
8.0,3.0,1.213
6.0,5.0,1.214
13.0,3.0,1.215
25.0,0.0,1.216
35.0,-1.0,1.217
31.0,-5.0,1.218
18.0,-6.0,1.219
4.0,-5.0,1.22
-4.0,-6.0,1.221
-10.0,-6.0,1.222
-11.0,-4.0,1.223
-1.0,0.0,1.224
8.0,3.0,1.225
5.0,5.0,1.226
1.0,2.0,1.227
11.0,-2.0,1.228
21.0,-1.0,1.229
13.0,1.0,1.23
-6.0,2.0,1.231
-13.0,-1.0,1.232
-4.0,-4.0,1.233
-1.0,-3.0,1.234
-11.0,-2.0,1.235
-22.0,-3.0,1.236
-23.0,-1.0,1.237
-20.0,-1.0,1.238
-16.0,1.0,1.239
-9.0,0.0,1.24
5.0,-4.0,1.241
19.0,-4.0,1.242
27.0,-2.0,1.243
28.0,-1.0,1.244
18.0,1.0,1.245
3.0,4.0,1.246
-4.0,4.0,1.247
-1.0,0.0,1.248
-2.0,-4.0,1.249
-11.0,-3.0,1.25
-15.0,0.0,1.251
-7.0,3.0,1.252
0.0,6.0,1.253
2.0,11.0,1.254
8.0,10.0,1.255
20.0,5.0,1.256
24.0,0.0,1.257
13.0,-3.0,1.258
1.0,-5.0,1.259
2.0,-5.0,1.26
5.0,-8.0,1.261
1.0,-7.0,1.262
0.0,-3.0,1.263
6.0,-2.0,1.264
4.0,-1.0,1.265
-11.0,0.0,1.266
-20.0,0.0,1.267
-14.0,0.0,1.268
-5.0,2.0,1.269
-4.0,6.0,1.27
-1.0,7.0,1.271
11.0,3.0,1.272
19.0,0.0,1.273
17.0,0.0,1.274
11.0,1.0,1.275
9.0,0.0,1.276
8.0,1.0,1.277
-5.0,-2.0,1.278
-19.0,-3.0,1.279
-29.0,-6.0,1.28
-27.0,-10.0,1.281
-11.0,-10.0,1.282
9.0,-9.0,1.283
24.0,-7.0,1.284
22.0,-4.0,1.285
14.0,-1.0,1.286
14.0,1.0,1.287
21.0,4.0,1.288
25.0,3.0,1.289
26.0,2.0,1.29
27.0,1.0,1.291
28.0,2.0,1.292
23.0,1.0,1.293
14.0,-1.0,1.294
1.0,-3.0,1.295
-11.0,0.0,1.296
-14.0,2.0,1.297
-9.0,0.0,1.298
-7.0,-1.0,1.299
-15.0,-4.0,1.3
-24.0,-7.0,1.301
-20.0,-7.0,1.302
-6.0,-6.0,1.303
3.0,-3.0,1.304
0.0,2.0,1.305
-3.0,5.0,1.306
0.0,3.0,1.307
3.0,0.0,1.308
-1.0,2.0,1.309
-4.0,9.0,1.31
-3.0,10.0,1.311
-1.0,6.0,1.312
-1.0,2.0,1.313
0.0,4.0,1.314
2.0,5.0,1.315
9.0,1.0,1.316
15.0,0.0,1.317
17.0,0.0,1.318
15.0,0.0,1.319
10.0,-3.0,1.32
7.0,-8.0,1.321
4.0,-6.0,1.322
2.0,-3.0,1.323
-1.0,-2.0,1.324
-3.0,-1.0,1.325
-4.0,0.0,1.326
-5.0,0.0,1.327
-4.0,-4.0,1.328
1.0,-4.0,1.329
11.0,0.0,1.33
17.0,5.0,1.331
15.0,5.0,1.332
2.0,1.0,1.333
-12.0,-3.0,1.334
-17.0,-2.0,1.335
-10.0,0.0,1.336
-6.0,2.0,1.337
-13.0,0.0,1.338
-13.0,-4.0,1.339
6.0,-7.0,1.34
28.0,-7.0,1.341
28.0,-7.0,1.342
12.0,-7.0,1.343
2.0,-6.0,1.344
8.0,0.0,1.345
12.0,3.0,1.346
6.0,0.0,1.347
1.0,-2.0,1.348
3.0,-1.0,1.349
7.0,0.0,1.35
6.0,1.0,1.351
1.0,1.0,1.352
-4.0,0.0,1.353
-13.0,-2.0,1.354
-16.0,0.0,1.355
-7.0,1.0,1.356
6.0,0.0,1.357
7.0,-2.0,1.358
-2.0,-5.0,1.359
-12.0,-7.0,1.36
-16.0,-6.0,1.361
-16.0,-1.0,1.362
-12.0,6.0,1.363
0.0,11.0,1.364
11.0,11.0,1.365
15.0,8.0,1.366
16.0,0.0,1.367
21.0,-4.0,1.368
24.0,-2.0,1.369
16.0,-2.0,1.37
4.0,-4.0,1.371
4.0,-3.0,1.372
14.0,3.0,1.373
15.0,7.0,1.374
1.0,1.0,1.375
-10.0,-6.0,1.376
-9.0,-4.0,1.377
-4.0,1.0,1.378
-5.0,4.0,1.379
-10.0,0.0,1.38
-11.0,-6.0,1.381
-8.0,-8.0,1.382
-6.0,-6.0,1.383
-4.0,-3.0,1.384
-2.0,-1.0,1.385
0.0,-2.0,1.386
5.0,-3.0,1.387
19.0,-3.0,1.388
30.0,-1.0,1.389
24.0,-1.0,1.39
1.0,-4.0,1.391
-16.0,-3.0,1.392
-16.0,2.0,1.393
-2.0,4.0,1.394
4.0,0.0,1.395
0.0,-2.0,1.396
-5.0,1.0,1.397
-9.0,2.0,1.398
-11.0,-2.0,1.399
-9.0,-5.0,1.4
5.0,-6.0,1.401
24.0,-4.0,1.402
36.0,-3.0,1.403
33.0,1.0,1.404
22.0,7.0,1.405
12.0,9.0,1.406
1.0,3.0,1.407
-7.0,-2.0,1.408
-10.0,-2.0,1.409
-4.0,1.0,1.41
2.0,0.0,1.411
4.0,-2.0,1.412
6.0,0.0,1.413
12.0,4.0,1.414
13.0,2.0,1.415
7.0,-3.0,1.416
0.0,-3.0,1.417
0.0,-3.0,1.418
0.0,-5.0,1.419
-6.0,-8.0,1.42
-14.0,-13.0,1.421
-11.0,-11.0,1.422
2.0,-8.0,1.423
14.0,-5.0,1.424
11.0,0.0,1.425
2.0,4.0,1.426
0.0,3.0,1.427
3.0,-3.0,1.428
7.0,-5.0,1.429
8.0,0.0,1.43
2.0,3.0,1.431
-4.0,1.0,1.432
-8.0,-2.0,1.433
-7.0,-1.0,1.434
-5.0,4.0,1.435
-1.0,7.0,1.436
1.0,9.0,1.437
0.0,4.0,1.438
-4.0,0.0,1.439
-11.0,-5.0,1.44
-14.0,-6.0,1.441
-11.0,-1.0,1.442
-6.0,2.0,1.443
-5.0,1.0,1.444
-5.0,-2.0,1.445
-2.0,0.0,1.446
2.0,3.0,1.447
7.0,0.0,1.448
11.0,-3.0,1.449
18.0,-4.0,1.45
28.0,2.0,1.451
33.0,7.0,1.452
19.0,7.0,1.453
-2.0,6.0,1.454
-9.0,3.0,1.455
2.0,0.0,1.456
15.0,-1.0,1.457
10.0,-1.0,1.458
-1.0,-1.0,1.459
-5.0,-1.0,1.46
-4.0,-4.0,1.461
-3.0,-2.0,1.462
0.0,1.0,1.463
4.0,4.0,1.464
3.0,5.0,1.465
-12.0,7.0,1.466
-26.0,5.0,1.467
-25.0,3.0,1.468
-6.0,0.0,1.469
19.0,-1.0,1.47
33.0,-3.0,1.471
32.0,-4.0,1.472
24.0,-3.0,1.473
27.0,1.0,1.474
35.0,4.0,1.475
31.0,2.0,1.476
14.0,1.0,1.477
-5.0,-2.0,1.478
-5.0,-1.0,1.479
-2.0,-2.0,1.48
-11.0,-8.0,1.481
-18.0,-10.0,1.482
-7.0,-10.0,1.483
11.0,-4.0,1.484
10.0,3.0,1.485
-6.0,6.0,1.486
-18.0,4.0,1.487
-12.0,0.0,1.488
-6.0,-2.0,1.489
-7.0,-3.0,1.49
-8.0,-1.0,1.491
-2.0,0.0,1.492
2.0,4.0,1.493
1.0,6.0,1.494
0.0,3.0,1.495
2.0,2.0,1.496
4.0,2.0,1.497
4.0,0.0,1.498
6.0,-2.0,1.499
9.0,-3.0,1.5
5.0,-5.0,1.501
-6.0,-6.0,1.502
-8.0,-5.0,1.503
1.0,-3.0,1.504
9.0,-1.0,1.505
4.0,2.0,1.506
-3.0,2.0,1.507
-2.0,1.0,1.508
2.0,0.0,1.509
3.0,1.0,1.51
2.0,3.0,1.511
6.0,3.0,1.512
7.0,1.0,1.513
4.0,-1.0,1.514
2.0,-2.0,1.515
5.0,-2.0,1.516
8.0,0.0,1.517
1.0,1.0,1.518
-8.0,-1.0,1.519
-15.0,-5.0,1.52
-16.0,-9.0,1.521
-15.0,-8.0,1.522
-7.0,-5.0,1.523
2.0,-3.0,1.524
9.0,-3.0,1.525
8.0,-2.0,1.526
8.0,1.0,1.527
11.0,2.0,1.528
8.0,1.0,1.529
3.0,3.0,1.53
4.0,6.0,1.531
10.0,6.0,1.532
12.0,1.0,1.533
8.0,-1.0,1.534
0.0,0.0,1.535
-4.0,0.0,1.536
-2.0,0.0,1.537
3.0,-4.0,1.538
9.0,-7.0,1.539
9.0,-9.0,1.54
3.0,-11.0,1.541
-3.0,-9.0,1.542
-2.0,-7.0,1.543
3.0,-5.0,1.544
6.0,0.0,1.545
5.0,4.0,1.546
7.0,4.0,1.547
13.0,1.0,1.548
16.0,1.0,1.549
15.0,4.0,1.55
11.0,4.0,1.551
5.0,-1.0,1.552
-4.0,-6.0,1.553
-16.0,-4.0,1.554
-19.0,-1.0,1.555
-9.0,-1.0,1.556
11.0,0.0,1.557
21.0,0.0,1.558
12.0,1.0,1.559
-5.0,1.0,1.56
-11.0,-2.0,1.561
-5.0,-1.0,1.562
3.0,0.0,1.563
13.0,4.0,1.564
25.0,10.0,1.565
36.0,11.0,1.566
32.0,8.0,1.567
15.0,1.0,1.568
-4.0,2.0,1.569
-14.0,6.0,1.57
-15.0,6.0,1.571
-13.0,0.0,1.572
-14.0,-2.0,1.573
-19.0,-1.0,1.574
-22.0,0.0,1.575
-15.0,-2.0,1.576
-1.0,-1.0,1.577
12.0,-1.0,1.578
19.0,-2.0,1.579
17.0,-4.0,1.58
8.0,-7.0,1.581
-1.0,-5.0,1.582
0.0,-3.0,1.583
15.0,0.0,1.584
29.0,4.0,1.585
25.0,9.0,1.586
13.0,7.0,1.587
4.0,0.0,1.588
0.0,-2.0,1.589
-8.0,1.0,1.59
-9.0,1.0,1.591
1.0,-4.0,1.592
11.0,-4.0,1.593
3.0,0.0,1.594
-9.0,0.0,1.595
-7.0,-2.0,1.596
8.0,-3.0,1.597
13.0,-2.0,1.598
-2.0,-3.0,1.599
-24.0,-6.0,1.6
-36.0,-9.0,1.601
-36.0,-7.0,1.602
-23.0,-4.0,1.603
0.0,-2.0,1.604
23.0,2.0,1.605
29.0,7.0,1.606
19.0,4.0,1.607
7.0,-3.0,1.608
4.0,-4.0,1.609
10.0,2.0,1.61
13.0,6.0,1.611
7.0,0.0,1.612
3.0,-6.0,1.613
3.0,-5.0,1.614
6.0,0.0,1.615
4.0,3.0,1.616
-2.0,3.0,1.617
-12.0,0.0,1.618
-15.0,-2.0,1.619
-15.0,-5.0,1.62
-17.0,-8.0,1.621
-14.0,-6.0,1.622
-1.0,-4.0,1.623
14.0,-2.0,1.624
19.0,0.0,1.625
16.0,5.0,1.626
19.0,5.0,1.627
31.0,-1.0,1.628
35.0,-3.0,1.629
22.0,1.0,1.63
0.0,4.0,1.631
-14.0,2.0,1.632
-13.0,-4.0,1.633
-7.0,-6.0,1.634
-2.0,-2.0,1.635
-1.0,0.0,1.636
0.0,1.0,1.637
7.0,-1.0,1.638
21.0,-2.0,1.639
24.0,-3.0,1.64
11.0,-7.0,1.641
-6.0,-7.0,1.642
-6.0,-6.0,1.643
2.0,-6.0,1.644
0.0,-1.0,1.645
-9.0,7.0,1.646
-10.0,10.0,1.647
0.0,6.0,1.648
3.0,1.0,1.649
-6.0,3.0,1.65
-12.0,7.0,1.651
-7.0,4.0,1.652
-3.0,-2.0,1.653
-4.0,-3.0,1.654
-5.0,1.0,1.655
-3.0,3.0,1.656
-3.0,2.0,1.657
-2.0,-1.0,1.658
9.0,-4.0,1.659
24.0,-5.0,1.66
27.0,-9.0,1.661
14.0,-9.0,1.662
5.0,-7.0,1.663
13.0,-3.0,1.664
20.0,2.0,1.665
8.0,6.0,1.666
-4.0,5.0,1.667
0.0,1.0,1.668
13.0,-1.0,1.669
9.0,-1.0,1.67
-4.0,-1.0,1.671
-8.0,-2.0,1.672
-1.0,-1.0,1.673
1.0,2.0,1.674
-4.0,2.0,1.675
-7.0,-1.0,1.676
-1.0,1.0,1.677
1.0,1.0,1.678
-2.0,1.0,1.679
-5.0,0.0,1.68
-6.0,-1.0,1.681
-6.0,-4.0,1.682
0.0,-4.0,1.683
2.0,-3.0,1.684
-3.0,1.0,1.685
-8.0,4.0,1.686
-6.0,0.0,1.687
-3.0,-3.0,1.688
-1.0,-2.0,1.689
1.0,-1.0,1.69
4.0,-1.0,1.691
8.0,-1.0,1.692
15.0,-1.0,1.693
19.0,0.0,1.694
12.0,-1.0,1.695
5.0,-2.0,1.696
2.0,0.0,1.697
0.0,2.0,1.698
-6.0,3.0,1.699
-10.0,0.0,1.7
-6.0,-6.0,1.701
1.0,-6.0,1.702
16.0,-5.0,1.703
31.0,-3.0,1.704
37.0,2.0,1.705
26.0,5.0,1.706
8.0,6.0,1.707
-2.0,6.0,1.708
-1.0,8.0,1.709
-1.0,9.0,1.71
-9.0,5.0,1.711
-13.0,-1.0,1.712
-2.0,-2.0,1.713
22.0,0.0,1.714
38.0,2.0,1.715
37.0,0.0,1.716
25.0,1.0,1.717
13.0,0.0,1.718
2.0,-2.0,1.719
-12.0,-3.0,1.72
-28.0,-6.0,1.721
-37.0,-6.0,1.722
-26.0,-6.0,1.723
-3.0,-4.0,1.724
13.0,-1.0,1.725
9.0,-1.0,1.726
-3.0,-5.0,1.727
-9.0,-8.0,1.728
-8.0,-6.0,1.729
-7.0,0.0,1.73
-3.0,3.0,1.731
10.0,4.0,1.732
17.0,5.0,1.733
8.0,5.0,1.734
-4.0,1.0,1.735
1.0,-2.0,1.736
18.0,-1.0,1.737
19.0,0.0,1.738
2.0,0.0,1.739
-13.0,-2.0,1.74
-10.0,-6.0,1.741
-3.0,-6.0,1.742
0.0,-3.0,1.743
2.0,0.0,1.744
5.0,3.0,1.745
5.0,3.0,1.746
0.0,3.0,1.747
0.0,1.0,1.748
7.0,0.0,1.749
8.0,-2.0,1.75
1.0,-3.0,1.751
-2.0,-1.0,1.752
-1.0,1.0,1.753
-3.0,1.0,1.754
-8.0,0.0,1.755
-12.0,0.0,1.756
-8.0,1.0,1.757
-5.0,2.0,1.758
0.0,3.0,1.759
3.0,1.0,1.76
4.0,-4.0,1.761
3.0,-8.0,1.762
4.0,-8.0,1.763
10.0,-3.0,1.764
12.0,0.0,1.765
7.0,2.0,1.766
2.0,3.0,1.767
8.0,1.0,1.768
14.0,-1.0,1.769
13.0,-3.0,1.77
4.0,-1.0,1.771
-2.0,0.0,1.772
-7.0,-1.0,1.773
-9.0,-2.0,1.774
-8.0,-1.0,1.775
-2.0,0.0,1.776
5.0,0.0,1.777
8.0,-4.0,1.778
8.0,-1.0,1.779
9.0,3.0,1.78
6.0,0.0,1.781
-4.0,-2.0,1.782
-17.0,-4.0,1.783
-26.0,-3.0,1.784
-25.0,-1.0,1.785
-11.0,0.0,1.786
13.0,3.0,1.787
30.0,6.0,1.788
31.0,8.0,1.789
24.0,6.0,1.79
24.0,1.0,1.791
26.0,-2.0,1.792
16.0,-2.0,1.793
-2.0,0.0,1.794
-10.0,1.0,1.795
-4.0,0.0,1.796
5.0,0.0,1.797
4.0,-1.0,1.798
5.0,-3.0,1.799
12.0,-3.0,1.8
20.0,-4.0,1.801
19.0,-1.0,1.802
12.0,1.0,1.803
2.0,2.0,1.804
-5.0,3.0,1.805
-11.0,5.0,1.806
-14.0,5.0,1.807
-12.0,1.0,1.808
-8.0,-2.0,1.809
-3.0,-2.0,1.81
7.0,0.0,1.811
15.0,-1.0,1.812
14.0,-1.0,1.813
7.0,0.0,1.814
2.0,0.0,1.815
1.0,-3.0,1.816
0.0,-5.0,1.817
-4.0,-4.0,1.818
-6.0,-5.0,1.819
-4.0,-8.0,1.82
-3.0,-10.0,1.821
-3.0,-8.0,1.822
2.0,-7.0,1.823
8.0,-6.0,1.824
6.0,-4.0,1.825
-5.0,2.0,1.826
-19.0,6.0,1.827
-30.0,5.0,1.828
-34.0,5.0,1.829
-24.0,6.0,1.83
-4.0,3.0,1.831
11.0,-2.0,1.832
12.0,-4.0,1.833
14.0,1.0,1.834
27.0,4.0,1.835
40.0,1.0,1.836
37.0,0.0,1.837
22.0,1.0,1.838
14.0,5.0,1.839
13.0,4.0,1.84
6.0,-3.0,1.841
-6.0,-6.0,1.842
-13.0,-5.0,1.843
-13.0,-3.0,1.844
-17.0,0.0,1.845
-24.0,2.0,1.846
-23.0,4.0,1.847
-1.0,3.0,1.848
28.0,3.0,1.849
39.0,4.0,1.85
29.0,5.0,1.851
13.0,3.0,1.852
7.0,0.0,1.853
10.0,-2.0,1.854
12.0,-5.0,1.855
5.0,-8.0,1.856
-1.0,-4.0,1.857
0.0,-2.0,1.858
8.0,0.0,1.859
14.0,0.0,1.86
8.0,-2.0,1.861
-3.0,-1.0,1.862
-10.0,0.0,1.863
-6.0,-1.0,1.864
-4.0,-1.0,1.865
-7.0,1.0,1.866
-12.0,1.0,1.867
-9.0,-2.0,1.868
0.0,-6.0,1.869
3.0,-4.0,1.87
-2.0,-1.0,1.871
-7.0,-1.0,1.872
-8.0,-1.0,1.873
-9.0,1.0,1.874
-9.0,2.0,1.875
-8.0,1.0,1.876
-3.0,1.0,1.877
0.0,3.0,1.878
2.0,4.0,1.879
4.0,2.0,1.88
7.0,-3.0,1.881
7.0,-1.0,1.882
4.0,2.0,1.883
2.0,3.0,1.884
0.0,3.0,1.885
-2.0,5.0,1.886
-5.0,3.0,1.887
-6.0,0.0,1.888
-1.0,-1.0,1.889
14.0,3.0,1.89
35.0,6.0,1.891
49.0,4.0,1.892
46.0,0.0,1.893
28.0,0.0,1.894
11.0,0.0,1.895
1.0,0.0,1.896
-2.0,1.0,1.897
-9.0,0.0,1.898
-14.0,-3.0,1.899
-15.0,-8.0,1.9
-13.0,-10.0,1.901
-7.0,-9.0,1.902
1.0,-6.0,1.903
16.0,-4.0,1.904
22.0,2.0,1.905
12.0,5.0,1.906
-8.0,1.0,1.907
-20.0,-4.0,1.908
-20.0,-4.0,1.909
-17.0,1.0,1.91
-17.0,2.0,1.911
-10.0,-1.0,1.912
11.0,-5.0,1.913
32.0,-4.0,1.914
33.0,-5.0,1.915
15.0,-3.0,1.916
4.0,1.0,1.917
5.0,1.0,1.918
6.0,0.0,1.919
-6.0,-3.0,1.92
-22.0,-6.0,1.921
-21.0,-6.0,1.922
-7.0,-6.0,1.923
5.0,-4.0,1.924
8.0,-2.0,1.925
9.0,0.0,1.926
12.0,-1.0,1.927
11.0,-3.0,1.928
-1.0,-2.0,1.929
-17.0,-2.0,1.93
-30.0,-5.0,1.931
-35.0,-9.0,1.932
-33.0,-7.0,1.933
-25.0,0.0,1.934
-9.0,10.0,1.935
16.0,15.0,1.936
42.0,13.0,1.937
58.0,5.0,1.938
57.0,-3.0,1.939
39.0,-3.0,1.94
12.0,0.0,1.941
-17.0,1.0,1.942
-27.0,-1.0,1.943
-13.0,-2.0,1.944
6.0,1.0,1.945
10.0,1.0,1.946
3.0,-1.0,1.947
6.0,-3.0,1.948
18.0,-3.0,1.949
22.0,-2.0,1.95
17.0,-3.0,1.951
14.0,-5.0,1.952
9.0,-5.0,1.953
-4.0,-5.0,1.954
-15.0,-2.0,1.955
-6.0,1.0,1.956
15.0,3.0,1.957
20.0,2.0,1.958
10.0,1.0,1.959
2.0,-1.0,1.96
2.0,-5.0,1.961
1.0,-8.0,1.962
-3.0,-4.0,1.963
-4.0,0.0,1.964
1.0,2.0,1.965
6.0,5.0,1.966
3.0,3.0,1.967
0.0,1.0,1.968
-3.0,-2.0,1.969
-7.0,-4.0,1.97
-11.0,-2.0,1.971
-13.0,0.0,1.972
-7.0,1.0,1.973
-3.0,2.0,1.974
-3.0,3.0,1.975
-2.0,4.0,1.976
-2.0,1.0,1.977
-2.0,-2.0,1.978
-8.0,-2.0,1.979
-11.0,-3.0,1.98
-10.0,-6.0,1.981
-8.0,-7.0,1.982
-5.0,-3.0,1.983
1.0,2.0,1.984
6.0,5.0,1.985
6.0,4.0,1.986
5.0,1.0,1.987
7.0,-1.0,1.988
6.0,0.0,1.989
3.0,3.0,1.99
0.0,3.0,1.991
0.0,0.0,1.992
-1.0,-1.0,1.993
0.0,4.0,1.994
2.0,8.0,1.995
7.0,4.0,1.996
6.0,-1.0,1.997
0.0,-3.0,1.998
-1.0,0.0,1.999
1.0,0.0,2.0
3.0,-7.0,2.001
2.0,-10.0,2.002
2.0,-9.0,2.003
4.0,-5.0,2.004
8.0,-2.0,2.005
12.0,3.0,2.006
18.0,9.0,2.007
21.0,9.0,2.008
16.0,10.0,2.009
8.0,8.0,2.01
5.0,3.0,2.011
4.0,-1.0,2.012
2.0,-4.0,2.013
-3.0,-3.0,2.014
-6.0,0.0,2.015
-12.0,1.0,2.016
-24.0,3.0,2.017
-41.0,1.0,2.018
-48.0,-2.0,2.019
-38.0,-4.0,2.02
-12.0,-6.0,2.021
21.0,-7.0,2.022
48.0,-8.0,2.023
63.0,-9.0,2.024
71.0,-2.0,2.025
73.0,7.0,2.026
63.0,11.0,2.027
35.0,8.0,2.028
4.0,4.0,2.029
-14.0,5.0,2.03
-17.0,4.0,2.031
-16.0,-1.0,2.032
-15.0,-7.0,2.033
-10.0,-6.0,2.034
0.0,-3.0,2.035
5.0,-1.0,2.036
4.0,-1.0,2.037
-2.0,-3.0,2.038
-4.0,-6.0,2.039
-3.0,-3.0,2.04
0.0,-3.0,2.041
3.0,-3.0,2.042
6.0,-3.0,2.043
6.0,-3.0,2.044
1.0,2.0,2.045
-3.0,6.0,2.046
-3.0,2.0,2.047
-3.0,-6.0,2.048
-5.0,-9.0,2.049
-12.0,-4.0,2.05
-17.0,2.0,2.051
-20.0,5.0,2.052
-23.0,3.0,2.053
-24.0,1.0,2.054
-22.0,0.0,2.055
-20.0,1.0,2.056
-16.0,2.0,2.057
-6.0,0.0,2.058
12.0,-2.0,2.059
24.0,-1.0,2.06
23.0,-3.0,2.061
14.0,-3.0,2.062
13.0,-3.0,2.063
20.0,-2.0,2.064
22.0,0.0,2.065
15.0,0.0,2.066
5.0,-1.0,2.067
1.0,-3.0,2.068
0.0,-3.0,2.069
-2.0,-4.0,2.07
-5.0,-1.0,2.071
-5.0,2.0,2.072
-6.0,4.0,2.073
-8.0,1.0,2.074
-11.0,-3.0,2.075
-8.0,-5.0,2.076
4.0,-2.0,2.077
20.0,0.0,2.078
26.0,0.0,2.079
19.0,-1.0,2.08
6.0,-6.0,2.081
-3.0,-5.0,2.082
-6.0,-4.0,2.083
-10.0,-2.0,2.084
-15.0,0.0,2.085
-13.0,4.0,2.086
-3.0,5.0,2.087
6.0,2.0,2.088
6.0,-1.0,2.089
2.0,-1.0,2.09
6.0,1.0,2.091
16.0,3.0,2.092
24.0,3.0,2.093
24.0,4.0,2.094
17.0,4.0,2.095
8.0,2.0,2.096
4.0,2.0,2.097
2.0,1.0,2.098
2.0,0.0,2.099
-3.0,-3.0,2.1
-10.0,-9.0,2.101
-9.0,-7.0,2.102
-1.0,-1.0,2.103
3.0,1.0,2.104
0.0,1.0,2.105
0.0,4.0,2.106
9.0,4.0,2.107
20.0,1.0,2.108
24.0,-4.0,2.109
22.0,-5.0,2.11
21.0,-4.0,2.111
14.0,-4.0,2.112
0.0,-2.0,2.113
-10.0,4.0,2.114
-8.0,8.0,2.115
-4.0,7.0,2.116
-6.0,3.0,2.117
-16.0,0.0,2.118
-22.0,-1.0,2.119
-28.0,-3.0,2.12
-33.0,-8.0,2.121
-27.0,-9.0,2.122
-3.0,-8.0,2.123
25.0,-5.0,2.124
33.0,-1.0,2.125
28.0,2.0,2.126
25.0,4.0,2.127
27.0,3.0,2.128
18.0,2.0,2.129
1.0,0.0,2.13
-10.0,-2.0,2.131
-5.0,-4.0,2.132
10.0,-3.0,2.133
19.0,1.0,2.134
19.0,4.0,2.135
11.0,3.0,2.136
0.0,3.0,2.137
-10.0,3.0,2.138
-18.0,1.0,2.139
-23.0,-1.0,2.14
-20.0,-6.0,2.141
-7.0,-9.0,2.142
5.0,-8.0,2.143
3.0,-4.0,2.144
-9.0,0.0,2.145
-15.0,3.0,2.146
-4.0,2.0,2.147
12.0,-1.0,2.148
23.0,-3.0,2.149
32.0,-2.0,2.15
35.0,-1.0,2.151
25.0,-1.0,2.152
10.0,-2.0,2.153
2.0,-3.0,2.154
1.0,-3.0,2.155
-3.0,0.0,2.156
-12.0,5.0,2.157
-18.0,5.0,2.158
-18.0,3.0,2.159
-18.0,1.0,2.16
-20.0,-1.0,2.161
-18.0,-2.0,2.162
-12.0,-4.0,2.163
-3.0,-2.0,2.164
4.0,3.0,2.165
11.0,4.0,2.166
12.0,0.0,2.167
9.0,-4.0,2.168
8.0,-3.0,2.169
11.0,1.0,2.17
14.0,2.0,2.171
12.0,0.0,2.172
7.0,2.0,2.173
7.0,4.0,2.174
6.0,3.0,2.175
2.0,-1.0,2.176
-4.0,-1.0,2.177
-8.0,-1.0,2.178
-9.0,-1.0,2.179
-7.0,-2.0,2.18
-5.0,-4.0,2.181
0.0,-2.0,2.182
7.0,-1.0,2.183
12.0,-1.0,2.184
7.0,3.0,2.185
5.0,7.0,2.186
10.0,6.0,2.187
20.0,2.0,2.188
25.0,1.0,2.189
24.0,4.0,2.19
18.0,5.0,2.191
15.0,-2.0,2.192
8.0,-5.0,2.193
-1.0,-5.0,2.194
-8.0,-4.0,2.195
-5.0,-3.0,2.196
1.0,-1.0,2.197
4.0,0.0,2.198
-4.0,0.0,2.199
-16.0,-4.0,2.2
-17.0,-9.0,2.201
-10.0,-9.0,2.202
-4.0,-5.0,2.203
-2.0,-1.0,2.204
-5.0,-1.0,2.205
-7.0,2.0,2.206
-11.0,7.0,2.207
-10.0,8.0,2.208
-1.0,2.0,2.209
9.0,-3.0,2.21
12.0,-6.0,2.211
7.0,-4.0,2.212
4.0,-2.0,2.213
8.0,0.0,2.214
15.0,2.0,2.215
18.0,3.0,2.216
18.0,6.0,2.217
14.0,3.0,2.218
9.0,1.0,2.219
3.0,0.0,2.22
2.0,-4.0,2.221
5.0,-4.0,2.222
11.0,-2.0,2.223
13.0,2.0,2.224
11.0,4.0,2.225
5.0,4.0,2.226
-2.0,1.0,2.227
-9.0,-2.0,2.228
-13.0,-3.0,2.229
-10.0,-2.0,2.23
-5.0,-3.0,2.231
0.0,-5.0,2.232
1.0,-7.0,2.233
4.0,-4.0,2.234
7.0,-2.0,2.235
10.0,-2.0,2.236
12.0,-1.0,2.237
11.0,-3.0,2.238
9.0,-4.0,2.239
3.0,-6.0,2.24
-4.0,-10.0,2.241
-10.0,-7.0,2.242
-8.0,-1.0,2.243
-2.0,0.0,2.244
1.0,-3.0,2.245
-2.0,-5.0,2.246
-4.0,-2.0,2.247
-2.0,0.0,2.248
2.0,-1.0,2.249
2.0,-2.0,2.25
0.0,-2.0,2.251
0.0,0.0,2.252
1.0,1.0,2.253
2.0,4.0,2.254
3.0,5.0,2.255
2.0,3.0,2.256
-3.0,1.0,2.257
-10.0,0.0,2.258
-7.0,1.0,2.259
2.0,0.0,2.26
9.0,-4.0,2.261
9.0,-3.0,2.262
12.0,3.0,2.263
22.0,8.0,2.264
26.0,10.0,2.265
18.0,11.0,2.266
5.0,11.0,2.267
1.0,8.0,2.268
2.0,1.0,2.269
0.0,-3.0,2.27
0.0,-1.0,2.271
0.0,0.0,2.272
0.0,-1.0,2.273
-3.0,0.0,2.274
-4.0,0.0,2.275
-1.0,-3.0,2.276
3.0,-5.0,2.277
2.0,-5.0,2.278
-1.0,-3.0,2.279
-5.0,-4.0,2.28
-8.0,-8.0,2.281
-8.0,-8.0,2.282
-3.0,-4.0,2.283
4.0,-2.0,2.284
6.0,-2.0,2.285
1.0,0.0,2.286
0.0,0.0,2.287
4.0,0.0,2.288
5.0,-1.0,2.289
1.0,-2.0,2.29
1.0,0.0,2.291
5.0,2.0,2.292
5.0,4.0,2.293
2.0,1.0,2.294
3.0,-1.0,2.295
7.0,-3.0,2.296
8.0,-1.0,2.297
1.0,-1.0,2.298
-2.0,0.0,2.299
-3.0,-3.0,2.3
-2.0,-7.0,2.301
0.0,-6.0,2.302
5.0,-4.0,2.303
14.0,-2.0,2.304
15.0,0.0,2.305
5.0,0.0,2.306
-2.0,-1.0,2.307
2.0,-4.0,2.308
8.0,-3.0,2.309
7.0,0.0,2.31
1.0,0.0,2.311
0.0,-2.0,2.312
5.0,-4.0,2.313
7.0,-3.0,2.314
7.0,-2.0,2.315
5.0,-2.0,2.316
5.0,0.0,2.317
3.0,-2.0,2.318
2.0,-6.0,2.319
-1.0,-9.0,2.32
-6.0,-9.0,2.321
-9.0,-2.0,2.322
-4.0,1.0,2.323
3.0,3.0,2.324
7.0,3.0,2.325
5.0,5.0,2.326
3.0,4.0,2.327
3.0,1.0,2.328
4.0,0.0,2.329
2.0,4.0,2.33
2.0,4.0,2.331
3.0,0.0,2.332
2.0,-3.0,2.333
0.0,-1.0,2.334
-1.0,2.0,2.335
2.0,1.0,2.336
6.0,0.0,2.337
5.0,-2.0,2.338
2.0,-3.0,2.339
-4.0,-1.0,2.34
-10.0,-3.0,2.341
-12.0,-3.0,2.342
-6.0,-5.0,2.343
6.0,-4.0,2.344
12.0,-1.0,2.345
13.0,1.0,2.346
13.0,2.0,2.347
13.0,0.0,2.348
13.0,-1.0,2.349
12.0,-1.0,2.35
12.0,-2.0,2.351
11.0,0.0,2.352
7.0,5.0,2.353
4.0,8.0,2.354
4.0,3.0,2.355
2.0,-3.0,2.356
0.0,-2.0,2.357
-6.0,0.0,2.358
-17.0,0.0,2.359
-35.0,-8.0,2.36
-46.0,-12.0,2.361
-29.0,-8.0,2.362
11.0,-2.0,2.363
42.0,-1.0,2.364
40.0,-2.0,2.365
24.0,-1.0,2.366
21.0,1.0,2.367
27.0,-1.0,2.368
18.0,-3.0,2.369
-1.0,-1.0,2.37
-11.0,2.0,2.371
-8.0,-1.0,2.372
-9.0,-3.0,2.373
-16.0,0.0,2.374
-16.0,3.0,2.375
-10.0,4.0,2.376
-4.0,4.0,2.377
2.0,3.0,2.378
14.0,4.0,2.379
18.0,1.0,2.38
8.0,-5.0,2.381
-3.0,-6.0,2.382
3.0,-4.0,2.383
21.0,-1.0,2.384
20.0,2.0,2.385
-1.0,1.0,2.386
-19.0,-2.0,2.387
-14.0,-4.0,2.388
-3.0,0.0,2.389
-4.0,6.0,2.39
-15.0,5.0,2.391
-17.0,-2.0,2.392
-16.0,-7.0,2.393
-19.0,-4.0,2.394
-23.0,0.0,2.395
-11.0,-1.0,2.396
19.0,-2.0,2.397
49.0,-1.0,2.398
58.0,-1.0,2.399
46.0,-3.0,2.4
28.0,-8.0,2.401
15.0,-6.0,2.402
5.0,0.0,2.403
-7.0,7.0,2.404
-15.0,9.0,2.405
-7.0,8.0,2.406
13.0,5.0,2.407
27.0,0.0,2.408
20.0,-1.0,2.409
5.0,-1.0,2.41
-2.0,-2.0,2.411
1.0,-4.0,2.412
-3.0,-3.0,2.413
-17.0,-1.0,2.414
-24.0,0.0,2.415
-17.0,-3.0,2.416
-7.0,-3.0,2.417
-4.0,-1.0,2.418
-4.0,0.0,2.419
-1.0,0.0,2.42
3.0,-5.0,2.421
5.0,-6.0,2.422
11.0,-3.0,2.423
16.0,-2.0,2.424
9.0,-1.0,2.425
-5.0,0.0,2.426
-9.0,1.0,2.427
1.0,1.0,2.428
6.0,0.0,2.429
0.0,-1.0,2.43
-5.0,0.0,2.431
0.0,2.0,2.432
3.0,3.0,2.433
0.0,0.0,2.434
-3.0,-1.0,2.435
-1.0,-2.0,2.436
1.0,-1.0,2.437
-1.0,-1.0,2.438
-1.0,-2.0,2.439
0.0,-4.0,2.44
0.0,-7.0,2.441
-4.0,-9.0,2.442
0.0,-8.0,2.443
9.0,-4.0,2.444
9.0,0.0,2.445
1.0,3.0,2.446
0.0,5.0,2.447
7.0,4.0,2.448
10.0,2.0,2.449
6.0,0.0,2.45
6.0,-1.0,2.451
11.0,-1.0,2.452
9.0,-2.0,2.453
0.0,-1.0,2.454
-2.0,0.0,2.455
4.0,0.0,2.456
9.0,2.0,2.457
2.0,1.0,2.458
-4.0,1.0,2.459
-4.0,1.0,2.46
-3.0,0.0,2.461
-4.0,-3.0,2.462
0.0,-4.0,2.463
10.0,0.0,2.464
13.0,3.0,2.465
6.0,3.0,2.466
-1.0,0.0,2.467
0.0,0.0,2.468
2.0,0.0,2.469
1.0,0.0,2.47
1.0,-2.0,2.471
6.0,-5.0,2.472
9.0,-4.0,2.473
3.0,-1.0,2.474
1.0,0.0,2.475
2.0,-1.0,2.476
-1.0,0.0,2.477
-10.0,0.0,2.478
-19.0,2.0,2.479
-18.0,0.0,2.48
-14.0,-5.0,2.481
-3.0,-7.0,2.482
17.0,-6.0,2.483
34.0,-2.0,2.484
36.0,0.0,2.485
27.0,0.0,2.486
26.0,3.0,2.487
36.0,6.0,2.488
32.0,6.0,2.489
4.0,2.0,2.49
-24.0,0.0,2.491
-24.0,2.0,2.492
-5.0,4.0,2.493
6.0,4.0,2.494
0.0,1.0,2.495
-8.0,-2.0,2.496
-13.0,-3.0,2.497
-17.0,-4.0,2.498
-18.0,-5.0,2.499
-9.0,-5.0,2.5
5.0,-8.0,2.501
8.0,-7.0,2.502
2.0,-4.0,2.503
7.0,0.0,2.504
19.0,2.0,2.505
23.0,3.0,2.506
16.0,2.0,2.507
7.0,3.0,2.508
4.0,2.0,2.509
-4.0,3.0,2.51
-12.0,0.0,2.511
-12.0,-3.0,2.512
-7.0,-3.0,2.513
-6.0,-1.0,2.514
-6.0,-1.0,2.515
-1.0,0.0,2.516
6.0,-1.0,2.517
5.0,-3.0,2.518
6.0,-5.0,2.519
11.0,-6.0,2.52
12.0,-6.0,2.521
0.0,-6.0,2.522
-4.0,-5.0,2.523
5.0,-3.0,2.524
17.0,4.0,2.525
14.0,12.0,2.526
3.0,10.0,2.527
2.0,5.0,2.528
7.0,0.0,2.529
4.0,0.0,2.53
-4.0,1.0,2.531
-8.0,2.0,2.532
-7.0,3.0,2.533
-10.0,1.0,2.534
-13.0,-4.0,2.535
-7.0,-7.0,2.536
2.0,-5.0,2.537
3.0,-4.0,2.538
-1.0,-3.0,2.539
-2.0,-3.0,2.54
4.0,-4.0,2.541
14.0,-2.0,2.542
23.0,-2.0,2.543
24.0,0.0,2.544
20.0,2.0,2.545
12.0,3.0,2.546
11.0,1.0,2.547
10.0,-3.0,2.548
-1.0,-3.0,2.549
-22.0,0.0,2.55
-38.0,0.0,2.551
-36.0,-1.0,2.552
-16.0,0.0,2.553
10.0,2.0,2.554
30.0,5.0,2.555
35.0,4.0,2.556
31.0,1.0,2.557
23.0,-5.0,2.558
20.0,-6.0,2.559
7.0,-4.0,2.56
-11.0,-6.0,2.561
-22.0,-7.0,2.562
-20.0,-5.0,2.563
-10.0,1.0,2.564
-8.0,6.0,2.565
-9.0,6.0,2.566
-5.0,1.0,2.567
3.0,0.0,2.568
8.0,2.0,2.569
8.0,4.0,2.57
12.0,4.0,2.571
17.0,4.0,2.572
13.0,4.0,2.573
0.0,4.0,2.574
-6.0,2.0,2.575
-3.0,0.0,2.576
1.0,-2.0,2.577
-2.0,-3.0,2.578
-7.0,-4.0,2.579
-6.0,-5.0,2.58
-1.0,-9.0,2.581
-1.0,-11.0,2.582
0.0,-9.0,2.583
4.0,-5.0,2.584
3.0,1.0,2.585
-3.0,4.0,2.586
-4.0,5.0,2.587
2.0,4.0,2.588
8.0,4.0,2.589
4.0,3.0,2.59
-1.0,0.0,2.591
-1.0,-3.0,2.592
-2.0,-1.0,2.593
-8.0,2.0,2.594
-6.0,3.0,2.595
8.0,0.0,2.596
21.0,-2.0,2.597
21.0,-4.0,2.598
9.0,-4.0,2.599
-10.0,-5.0,2.6
-47.0,-8.0,2.601
-67.0,-7.0,2.602
-33.0,-4.0,2.603
4.0,0.0,2.604
49.0,0.0,2.605
81.0,0.0,2.606
71.0,1.0,2.607
63.0,5.0,2.608
60.0,8.0,2.609
48.0,6.0,2.61
6.0,0.0,2.611
-22.0,-4.0,2.612
-11.0,-3.0,2.613
-3.0,1.0,2.614
-6.0,1.0,2.615
-8.0,0.0,2.616
-5.0,-1.0,2.617
-1.0,-3.0,2.618
-3.0,-6.0,2.619
-12.0,-7.0,2.62
-17.0,-9.0,2.621
-16.0,-7.0,2.622
-10.0,-5.0,2.623
-1.0,-1.0,2.624
4.0,8.0,2.625
-1.0,15.0,2.626
-12.0,11.0,2.627
-13.0,3.0,2.628
-2.0,-1.0,2.629
8.0,2.0,2.63
8.0,3.0,2.631
3.0,1.0,2.632
0.0,-1.0,2.633
0.0,0.0,2.634
0.0,-1.0,2.635
0.0,-5.0,2.636
0.0,-4.0,2.637
-2.0,-2.0,2.638
-2.0,0.0,2.639
-5.0,-2.0,2.64
-14.0,-7.0,2.641
-23.0,-8.0,2.642
-23.0,-5.0,2.643
-9.0,-1.0,2.644
3.0,2.0,2.645
5.0,3.0,2.646
8.0,0.0,2.647
18.0,-2.0,2.648
26.0,-3.0,2.649
22.0,1.0,2.65
12.0,1.0,2.651
2.0,-3.0,2.652
-8.0,-4.0,2.653
-15.0,-3.0,2.654
-11.0,0.0,2.655
5.0,-2.0,2.656
20.0,0.0,2.657
22.0,1.0,2.658
17.0,2.0,2.659
9.0,2.0,2.66
-4.0,2.0,2.661
-18.0,2.0,2.662
-14.0,0.0,2.663
7.0,-3.0,2.664
25.0,-3.0,2.665
23.0,0.0,2.666
11.0,-2.0,2.667
4.0,-5.0,2.668
3.0,-4.0,2.669
2.0,2.0,2.67
5.0,7.0,2.671
14.0,6.0,2.672
21.0,5.0,2.673
19.0,4.0,2.674
17.0,1.0,2.675
20.0,-2.0,2.676
18.0,0.0,2.677
4.0,0.0,2.678
-8.0,-1.0,2.679
-17.0,-6.0,2.68
-17.0,-9.0,2.681
-16.0,-8.0,2.682
-11.0,-8.0,2.683
-7.0,-8.0,2.684
-7.0,-6.0,2.685
-8.0,0.0,2.686
-13.0,1.0,2.687
-13.0,-1.0,2.688
4.0,-3.0,2.689
16.0,-2.0,2.69
9.0,2.0,2.691
3.0,1.0,2.692
-1.0,-1.0,2.693
-6.0,0.0,2.694
-15.0,0.0,2.695
-21.0,0.0,2.696
-15.0,1.0,2.697
-10.0,-4.0,2.698
-14.0,-5.0,2.699
-11.0,-2.0,2.7
12.0,0.0,2.701
46.0,4.0,2.702
62.0,3.0,2.703
52.0,2.0,2.704
26.0,2.0,2.705
7.0,4.0,2.706
4.0,2.0,2.707
8.0,-2.0,2.708
10.0,-1.0,2.709
8.0,4.0,2.71
6.0,6.0,2.711
2.0,3.0,2.712
-5.0,-1.0,2.713
-13.0,-3.0,2.714
-13.0,-2.0,2.715
-6.0,0.0,2.716
4.0,2.0,2.717
5.0,1.0,2.718
-5.0,-1.0,2.719
-17.0,-2.0,2.72
-20.0,-5.0,2.721
-8.0,-5.0,2.722
0.0,-6.0,2.723
1.0,-5.0,2.724
-6.0,-1.0,2.725
-17.0,3.0,2.726
-28.0,2.0,2.727
-30.0,-2.0,2.728
-15.0,-2.0,2.729
9.0,1.0,2.73
22.0,1.0,2.731
16.0,-3.0,2.732
6.0,-2.0,2.733
12.0,2.0,2.734
24.0,5.0,2.735
27.0,2.0,2.736
18.0,-1.0,2.737
1.0,-3.0,2.738
-13.0,0.0,2.739
-20.0,2.0,2.74
-20.0,0.0,2.741
-15.0,-3.0,2.742
-6.0,-4.0,2.743
0.0,-3.0,2.744
6.0,-1.0,2.745
17.0,1.0,2.746
32.0,1.0,2.747
41.0,-1.0,2.748
37.0,-1.0,2.749
34.0,1.0,2.75
37.0,1.0,2.751
35.0,-3.0,2.752
18.0,-6.0,2.753
-4.0,-1.0,2.754
-13.0,3.0,2.755
-8.0,3.0,2.756
-7.0,1.0,2.757
-12.0,-1.0,2.758
-14.0,0.0,2.759
-16.0,0.0,2.76
-20.0,-7.0,2.761
-21.0,-12.0,2.762
-13.0,-8.0,2.763
-6.0,-2.0,2.764
-3.0,3.0,2.765
0.0,8.0,2.766
-2.0,8.0,2.767
-5.0,6.0,2.768
-4.0,0.0,2.769
0.0,-4.0,2.77
10.0,-3.0,2.771
19.0,-2.0,2.772
19.0,-3.0,2.773
17.0,-3.0,2.774
7.0,-1.0,2.775
1.0,0.0,2.776
6.0,0.0,2.777
9.0,1.0,2.778
-4.0,0.0,2.779
-13.0,-4.0,2.78
-12.0,-9.0,2.781
-6.0,-8.0,2.782
-1.0,-3.0,2.783
1.0,2.0,2.784
0.0,4.0,2.785
-9.0,3.0,2.786
-19.0,1.0,2.787
-26.0,-4.0,2.788
-32.0,-6.0,2.789
-35.0,-3.0,2.79
-28.0,0.0,2.791
-7.0,-1.0,2.792
23.0,0.0,2.793
41.0,5.0,2.794
50.0,7.0,2.795
64.0,2.0,2.796
78.0,-2.0,2.797
71.0,-1.0,2.798
37.0,2.0,2.799
-2.0,-1.0,2.8
-16.0,-9.0,2.801
-4.0,-7.0,2.802
11.0,0.0,2.803
9.0,4.0,2.804
-3.0,3.0,2.805
-16.0,2.0,2.806
-22.0,3.0,2.807
-27.0,0.0,2.808
-28.0,-3.0,2.809
-20.0,-2.0,2.81
-4.0,0.0,2.811
9.0,-1.0,2.812
13.0,-2.0,2.813
14.0,-2.0,2.814
15.0,0.0,2.815
14.0,0.0,2.816
8.0,0.0,2.817
0.0,-2.0,2.818
-3.0,-3.0,2.819
-6.0,-5.0,2.82
-11.0,-6.0,2.821
-15.0,-4.0,2.822
-11.0,-2.0,2.823
-5.0,-2.0,2.824
-5.0,1.0,2.825
-10.0,6.0,2.826
-12.0,6.0,2.827
-6.0,0.0,2.828
-2.0,-4.0,2.829
-8.0,0.0,2.83
-22.0,3.0,2.831
-39.0,0.0,2.832
-47.0,-3.0,2.833
-30.0,-1.0,2.834
15.0,1.0,2.835
61.0,0.0,2.836
78.0,-1.0,2.837
66.0,-2.0,2.838
56.0,0.0,2.839
45.0,0.0,2.84
29.0,-1.0,2.841
13.0,1.0,2.842
3.0,5.0,2.843
-3.0,4.0,2.844
3.0,1.0,2.845
6.0,0.0,2.846
-4.0,0.0,2.847
-13.0,-3.0,2.848
-13.0,-3.0,2.849
-14.0,1.0,2.85
-20.0,8.0,2.851
-24.0,6.0,2.852
-15.0,1.0,2.853
-6.0,0.0,2.854
1.0,0.0,2.855
8.0,-1.0,2.856
12.0,-1.0,2.857
16.0,1.0,2.858
7.0,4.0,2.859
-6.0,0.0,2.86
-17.0,-8.0,2.861
-17.0,-10.0,2.862
-3.0,-5.0,2.863
15.0,1.0,2.864
23.0,5.0,2.865
20.0,6.0,2.866
15.0,3.0,2.867
14.0,-3.0,2.868
6.0,-3.0,2.869
-10.0,-2.0,2.87
-20.0,-3.0,2.871
-16.0,-5.0,2.872
-4.0,-5.0,2.873
3.0,-1.0,2.874
4.0,-1.0,2.875
8.0,-6.0,2.876
15.0,-7.0,2.877
20.0,-5.0,2.878
19.0,-3.0,2.879
6.0,-4.0,2.88
-12.0,-8.0,2.881
-18.0,-4.0,2.882
-7.0,1.0,2.883
8.0,4.0,2.884
8.0,5.0,2.885
-3.0,7.0,2.886
-2.0,4.0,2.887
13.0,0.0,2.888
22.0,-3.0,2.889
12.0,-3.0,2.89
-4.0,-4.0,2.891
-8.0,-5.0,2.892
-6.0,-2.0,2.893
-10.0,0.0,2.894
-15.0,0.0,2.895
-12.0,-1.0,2.896
0.0,3.0,2.897
5.0,6.0,2.898
2.0,3.0,2.899
-7.0,-2.0,2.9
-16.0,-7.0,2.901
-15.0,-7.0,2.902
-2.0,-4.0,2.903
14.0,0.0,2.904
21.0,6.0,2.905
14.0,8.0,2.906
10.0,4.0,2.907
17.0,0.0,2.908
24.0,4.0,2.909
22.0,6.0,2.91
17.0,2.0,2.911
16.0,-4.0,2.912
14.0,-3.0,2.913
3.0,1.0,2.914
-2.0,3.0,2.915
1.0,0.0,2.916
5.0,-2.0,2.917
-5.0,-1.0,2.918
-13.0,0.0,2.919
-19.0,2.0,2.92
-16.0,-3.0,2.921
-14.0,-7.0,2.922
-14.0,-5.0,2.923
-11.0,-2.0,2.924
2.0,0.0,2.925
11.0,3.0,2.926
4.0,7.0,2.927
-4.0,9.0,2.928
-17.0,5.0,2.929
-21.0,1.0,2.93
0.0,0.0,2.931
19.0,-2.0,2.932
29.0,-7.0,2.933
37.0,-10.0,2.934
33.0,-6.0,2.935
32.0,-1.0,2.936
46.0,3.0,2.937
54.0,5.0,2.938
29.0,0.0,2.939
3.0,-6.0,2.94
0.0,-9.0,2.941
13.0,-4.0,2.942
15.0,-1.0,2.943
4.0,0.0,2.944
-7.0,0.0,2.945
-13.0,2.0,2.946
-18.0,7.0,2.947
-23.0,6.0,2.948
-23.0,4.0,2.949
-18.0,5.0,2.95
-14.0,4.0,2.951
-14.0,1.0,2.952
-13.0,-1.0,2.953
-7.0,-1.0,2.954
-5.0,-2.0,2.955
-5.0,-4.0,2.956
-6.0,-3.0,2.957
-5.0,-2.0,2.958
-5.0,-4.0,2.959
-9.0,-7.0,2.96
-12.0,-12.0,2.961
-9.0,-10.0,2.962
-1.0,-6.0,2.963
5.0,-4.0,2.964
5.0,-1.0,2.965
0.0,2.0,2.966
0.0,5.0,2.967
2.0,1.0,2.968
5.0,-3.0,2.969
5.0,-2.0,2.97
3.0,0.0,2.971
1.0,-1.0,2.972
-1.0,-3.0,2.973
-6.0,-3.0,2.974
-10.0,-2.0,2.975
-11.0,-2.0,2.976
-10.0,-3.0,2.977
-4.0,-2.0,2.978
10.0,-2.0,2.979
24.0,-3.0,2.98
27.0,-5.0,2.981
18.0,-3.0,2.982
12.0,3.0,2.983
14.0,9.0,2.984
15.0,11.0,2.985
12.0,10.0,2.986
10.0,4.0,2.987
11.0,-2.0,2.988
9.0,-5.0,2.989
2.0,-1.0,2.99
-2.0,2.0,2.991
-7.0,3.0,2.992
-23.0,3.0,2.993
-36.0,6.0,2.994
-22.0,6.0,2.995
17.0,4.0,2.996
50.0,4.0,2.997
51.0,2.0,2.998
41.0,1.0,2.999
37.0,-1.0,3.0
39.0,-2.0,3.001
32.0,0.0,3.002
17.0,0.0,3.003
6.0,0.0,3.004
2.0,1.0,3.005
-6.0,3.0,3.006
-15.0,3.0,3.007
-16.0,-1.0,3.008
-13.0,-1.0,3.009
-12.0,1.0,3.01
-11.0,1.0,3.011
-3.0,-2.0,3.012
8.0,-4.0,3.013
7.0,0.0,3.014
-1.0,2.0,3.015
-6.0,-3.0,3.016
-3.0,-7.0,3.017
-3.0,-6.0,3.018
-10.0,-1.0,3.019
-21.0,-1.0,3.02
-24.0,-7.0,3.021
-18.0,-6.0,3.022
-9.0,-1.0,3.023
-4.0,1.0,3.024
-7.0,0.0,3.025
-11.0,0.0,3.026
-9.0,-1.0,3.027
0.0,-3.0,3.028
8.0,-5.0,3.029
8.0,-2.0,3.03
0.0,1.0,3.031
-13.0,-1.0,3.032
-14.0,-4.0,3.033
3.0,-2.0,3.034
29.0,0.0,3.035
41.0,0.0,3.036
33.0,0.0,3.037
16.0,-2.0,3.038
7.0,-5.0,3.039
2.0,-5.0,3.04
-6.0,-8.0,3.041
-18.0,-5.0,3.042
-14.0,-2.0,3.043
2.0,-1.0,3.044
8.0,3.0,3.045
-2.0,9.0,3.046
-10.0,10.0,3.047
-2.0,5.0,3.048
8.0,-1.0,3.049
7.0,0.0,3.05
-1.0,3.0,3.051
-7.0,4.0,3.052
-4.0,2.0,3.053
4.0,3.0,3.054
14.0,2.0,3.055
18.0,-2.0,3.056
18.0,-5.0,3.057
9.0,-4.0,3.058
2.0,-3.0,3.059
-3.0,-2.0,3.06
-7.0,-4.0,3.061
-9.0,-6.0,3.062
-6.0,-6.0,3.063
-3.0,-4.0,3.064
-2.0,0.0,3.065
1.0,5.0,3.066
10.0,4.0,3.067
16.0,0.0,3.068
8.0,-2.0,3.069
1.0,0.0,3.07
0.0,0.0,3.071
0.0,-2.0,3.072
6.0,-4.0,3.073
12.0,-2.0,3.074
14.0,-3.0,3.075
17.0,-4.0,3.076
19.0,-2.0,3.077
22.0,0.0,3.078
21.0,2.0,3.079
20.0,5.0,3.08
20.0,6.0,3.081
17.0,5.0,3.082
13.0,0.0,3.083
9.0,-3.0,3.084
3.0,-2.0,3.085
-2.0,1.0,3.086
-3.0,1.0,3.087
-4.0,-1.0,3.088
-6.0,0.0,3.089
-10.0,4.0,3.09
-13.0,5.0,3.091
-17.0,0.0,3.092
-21.0,-7.0,3.093
-21.0,-7.0,3.094
-18.0,-4.0,3.095
-24.0,-4.0,3.096
-43.0,-5.0,3.097
-65.0,-5.0,3.098
-67.0,0.0,3.099
-45.0,2.0,3.1
-15.0,-5.0,3.101
7.0,-9.0,3.102
28.0,-9.0,3.103
54.0,-5.0,3.104
80.0,0.0,3.105
99.0,3.0,3.106
101.0,9.0,3.107
84.0,12.0,3.108
50.0,12.0,3.109
18.0,9.0,3.11
5.0,6.0,3.111
5.0,2.0,3.112
-2.0,-1.0,3.113
-16.0,-4.0,3.114
-19.0,-3.0,3.115
-16.0,-2.0,3.116
-16.0,0.0,3.117
-24.0,-5.0,3.118
-27.0,-7.0,3.119
-23.0,-6.0,3.12
-21.0,-7.0,3.121
-24.0,-8.0,3.122
-17.0,-6.0,3.123
-5.0,-2.0,3.124
0.0,3.0,3.125
-3.0,3.0,3.126
-3.0,2.0,3.127
2.0,0.0,3.128
2.0,0.0,3.129
-4.0,0.0,3.13
-5.0,-1.0,3.131
0.0,-2.0,3.132
3.0,-1.0,3.133
0.0,-1.0,3.134
-3.0,-3.0,3.135
-3.0,-3.0,3.136
-2.0,-2.0,3.137
-6.0,-1.0,3.138
-14.0,-4.0,3.139
-21.0,-8.0,3.14
-24.0,-9.0,3.141
-17.0,-7.0,3.142
-1.0,-4.0,3.143
12.0,0.0,3.144
15.0,8.0,3.145
15.0,12.0,3.146
28.0,10.0,3.147
49.0,5.0,3.148
51.0,2.0,3.149
31.0,4.0,3.15
16.0,7.0,3.151
21.0,7.0,3.152
28.0,3.0,3.153
18.0,1.0,3.154
0.0,1.0,3.155
-6.0,0.0,3.156
-2.0,-1.0,3.157
-4.0,-5.0,3.158
-10.0,-4.0,3.159
-14.0,-5.0,3.16
-14.0,-9.0,3.161
-12.0,-11.0,3.162
-7.0,-9.0,3.163
-1.0,-3.0,3.164
-1.0,2.0,3.165
-14.0,3.0,3.166
-29.0,0.0,3.167
-29.0,-4.0,3.168
-13.0,-6.0,3.169
-1.0,-4.0,3.17
-3.0,-2.0,3.171
-3.0,0.0,3.172
10.0,2.0,3.173
23.0,4.0,3.174
20.0,3.0,3.175
7.0,1.0,3.176
7.0,2.0,3.177
22.0,1.0,3.178
35.0,-1.0,3.179
30.0,-4.0,3.18
21.0,-9.0,3.181
25.0,-8.0,3.182
38.0,-5.0,3.183
41.0,1.0,3.184
24.0,8.0,3.185
0.0,9.0,3.186
-12.0,6.0,3.187
-5.0,0.0,3.188
3.0,-2.0,3.189
3.0,0.0,3.19
-6.0,-1.0,3.191
-16.0,-4.0,3.192
-17.0,-3.0,3.193
-13.0,0.0,3.194
-9.0,2.0,3.195
-11.0,-1.0,3.196
-9.0,-5.0,3.197
-3.0,-4.0,3.198
-4.0,-4.0,3.199
-5.0,-4.0,3.2
-2.0,-6.0,3.201
3.0,-7.0,3.202
9.0,-3.0,3.203
12.0,0.0,3.204
-2.0,0.0,3.205
-13.0,0.0,3.206
-19.0,-3.0,3.207
-22.0,-5.0,3.208
-16.0,-3.0,3.209
-7.0,-1.0,3.21
3.0,3.0,3.211
14.0,6.0,3.212
23.0,3.0,3.213
30.0,0.0,3.214
28.0,-2.0,3.215
24.0,-4.0,3.216
18.0,-2.0,3.217
-5.0,-4.0,3.218
-6.0,-4.0,3.219
-7.0,-4.0,3.22
-3.0,-6.0,3.221
3.0,-7.0,3.222
11.0,-3.0,3.223
14.0,0.0,3.224
-3.0,0.0,3.225
-17.0,0.0,3.226
-24.0,-3.0,3.227
-28.0,-5.0,3.228
-20.0,-3.0,3.229
-9.0,-1.0,3.23
4.0,3.0,3.231
17.0,6.0,3.232
28.0,3.0,3.233
36.0,0.0,3.234
33.0,-2.0,3.235
29.0,-4.0,3.236
21.0,-2.0,3.237
16.0,-4.0,3.238
16.0,-4.0,3.239
8.0,-4.0,3.24
-4.0,-6.0,3.241
-8.0,-7.0,3.242
1.0,-3.0,3.243
10.0,0.0,3.244
3.0,0.0,3.245
-7.0,0.0,3.246
-7.0,-3.0,3.247
4.0,-5.0,3.248
12.0,-3.0,3.249
9.0,-1.0,3.25
7.0,3.0,3.251
9.0,6.0,3.252
8.0,3.0,3.253
-4.0,0.0,3.254
-12.0,-2.0,3.255
-11.0,-4.0,3.256
-4.0,-2.0,3.257
-2.0,-2.0,3.258
-5.0,-7.0,3.259
-11.0,-8.0,3.26
-16.0,-6.0,3.261
-16.0,-1.0,3.262
-10.0,-1.0,3.263
0.0,-5.0,3.264
0.0,-7.0,3.265
-11.0,-3.0,3.266
-19.0,-1.0,3.267
-9.0,-3.0,3.268
10.0,-2.0,3.269
20.0,6.0,3.27
16.0,10.0,3.271
10.0,8.0,3.272
9.0,3.0,3.273
13.0,0.0,3.274
14.0,-1.0,3.275
12.0,-1.0,3.276
6.0,1.0,3.277
-1.0,1.0,3.278
-4.0,-1.0,3.279
-2.0,-6.0,3.28
-2.0,-11.0,3.281
-4.0,-7.0,3.282
-1.0,0.0,3.283
1.0,2.0,3.284
0.0,1.0,3.285
-5.0,-1.0,3.286
-7.0,-2.0,3.287
-2.0,-3.0,3.288
2.0,-2.0,3.289
1.0,-1.0,3.29
0.0,1.0,3.291
-1.0,3.0,3.292
-2.0,3.0,3.293
-2.0,0.0,3.294
-9.0,-3.0,3.295
-22.0,-5.0,3.296
-32.0,-1.0,3.297
-25.0,3.0,3.298
4.0,5.0,3.299
31.0,4.0,3.3
33.0,2.0,3.301
25.0,2.0,3.302
32.0,1.0,3.303
47.0,-2.0,3.304
48.0,-6.0,3.305
25.0,-2.0,3.306
7.0,2.0,3.307
7.0,5.0,3.308
13.0,5.0,3.309
13.0,2.0,3.31
11.0,-2.0,3.311
15.0,-2.0,3.312
17.0,1.0,3.313
4.0,5.0,3.314
-12.0,3.0,3.315
-22.0,-1.0,3.316
-22.0,0.0,3.317
-22.0,3.0,3.318
-21.0,3.0,3.319
-18.0,-1.0,3.32
-15.0,-8.0,3.321
-10.0,-9.0,3.322
0.0,-7.0,3.323
10.0,-2.0,3.324
9.0,2.0,3.325
-2.0,3.0,3.326
-8.0,1.0,3.327
-4.0,-2.0,3.328
-5.0,-2.0,3.329
-14.0,1.0,3.33
-13.0,4.0,3.331
8.0,4.0,3.332
29.0,3.0,3.333
29.0,2.0,3.334
12.0,4.0,3.335
-2.0,7.0,3.336
-1.0,7.0,3.337
3.0,0.0,3.338
3.0,-6.0,3.339
-4.0,-8.0,3.34
-7.0,-12.0,3.341
3.0,-15.0,3.342
25.0,-14.0,3.343
37.0,-5.0,3.344
27.0,5.0,3.345
9.0,9.0,3.346
4.0,6.0,3.347
11.0,2.0,3.348
9.0,1.0,3.349
-4.0,1.0,3.35
-13.0,0.0,3.351
-8.0,-2.0,3.352
-9.0,-3.0,3.353
-22.0,-2.0,3.354
-35.0,0.0,3.355
-27.0,1.0,3.356
-3.0,1.0,3.357
23.0,-1.0,3.358
36.0,-4.0,3.359
30.0,-7.0,3.36
16.0,-13.0,3.361
8.0,-15.0,3.362
8.0,-9.0,3.363
7.0,0.0,3.364
-3.0,7.0,3.365
-12.0,5.0,3.366
-9.0,1.0,3.367
0.0,0.0,3.368
4.0,3.0,3.369
4.0,6.0,3.37
5.0,5.0,3.371
8.0,4.0,3.372
4.0,4.0,3.373
-5.0,5.0,3.374
-12.0,5.0,3.375
-12.0,3.0,3.376
-9.0,3.0,3.377
-5.0,4.0,3.378
-3.0,3.0,3.379
-4.0,0.0,3.38
-6.0,-8.0,3.381
-5.0,-11.0,3.382
0.0,-8.0,3.383
7.0,-3.0,3.384
8.0,0.0,3.385
7.0,0.0,3.386
11.0,0.0,3.387
16.0,1.0,3.388
10.0,5.0,3.389
-2.0,9.0,3.39
-8.0,7.0,3.391
-1.0,0.0,3.392
9.0,-5.0,3.393
11.0,-5.0,3.394
7.0,-3.0,3.395
6.0,-1.0,3.396
12.0,4.0,3.397
13.0,6.0,3.398
10.0,3.0,3.399
4.0,-2.0,3.4
-7.0,-10.0,3.401
-13.0,-15.0,3.402
-2.0,-9.0,3.403
7.0,-4.0,3.404
8.0,-1.0,3.405
9.0,1.0,3.406
12.0,2.0,3.407
16.0,3.0,3.408
20.0,1.0,3.409
21.0,0.0,3.41
9.0,4.0,3.411
-2.0,7.0,3.412
-8.0,3.0,3.413
-13.0,0.0,3.414
-16.0,-1.0,3.415
-19.0,-3.0,3.416
-23.0,-5.0,3.417
-27.0,-9.0,3.418
-32.0,-14.0,3.419
-19.0,-9.0,3.42
2.0,1.0,3.421
15.0,11.0,3.422
20.0,9.0,3.423
30.0,0.0,3.424
36.0,-2.0,3.425
26.0,0.0,3.426
7.0,0.0,3.427
6.0,-2.0,3.428
23.0,-2.0,3.429
32.0,1.0,3.43
25.0,4.0,3.431
17.0,3.0,3.432
17.0,0.0,3.433
13.0,-1.0,3.434
-3.0,-2.0,3.435
-21.0,-1.0,3.436
-27.0,3.0,3.437
-22.0,7.0,3.438
-12.0,6.0,3.439
-4.0,0.0,3.44
-1.0,-6.0,3.441
-2.0,-7.0,3.442
-2.0,-4.0,3.443
1.0,-3.0,3.444
0.0,-1.0,3.445
-11.0,0.0,3.446
-19.0,1.0,3.447
-12.0,1.0,3.448
2.0,0.0,3.449
6.0,-1.0,3.45
6.0,0.0,3.451
16.0,4.0,3.452
27.0,7.0,3.453
26.0,5.0,3.454
13.0,-1.0,3.455
1.0,-4.0,3.456
2.0,-1.0,3.457
7.0,1.0,3.458
10.0,2.0,3.459
9.0,1.0,3.46
11.0,-2.0,3.461
18.0,-4.0,3.462
24.0,-4.0,3.463
23.0,-2.0,3.464
9.0,3.0,3.465
-11.0,4.0,3.466
-26.0,-1.0,3.467
-33.0,-6.0,3.468
-37.0,-3.0,3.469
-41.0,-1.0,3.47
-37.0,0.0,3.471
-18.0,-2.0,3.472
3.0,-1.0,3.473
10.0,2.0,3.474
2.0,2.0,3.475
3.0,3.0,3.476
19.0,10.0,3.477
31.0,14.0,3.478
30.0,10.0,3.479
20.0,3.0,3.48
10.0,-1.0,3.481
-1.0,0.0,3.482
-10.0,-6.0,3.483
-9.0,-12.0,3.484
-1.0,-10.0,3.485
6.0,-3.0,3.486
6.0,-7.0,3.487
12.0,-21.0,3.488
20.0,-21.0,3.489
20.0,-5.0,3.49
9.0,8.0,3.491
-2.0,12.0,3.492
0.0,15.0,3.493
7.0,17.0,3.494
6.0,7.0,3.495
-1.0,-13.0,3.496
-9.0,-22.0,3.497
-16.0,-14.0,3.498
-16.0,-1.0,3.499
-7.0,1.0,3.5
3.0,-6.0,3.501
8.0,-2.0,3.502
10.0,7.0,3.503
19.0,7.0,3.504
26.0,-2.0,3.505
21.0,-9.0,3.506
6.0,-9.0,3.507
1.0,-4.0,3.508
13.0,2.0,3.509
18.0,9.0,3.51
5.0,6.0,3.511
-16.0,0.0,3.512
-30.0,0.0,3.513
-37.0,3.0,3.514
-43.0,-4.0,3.515
-48.0,-22.0,3.516
-41.0,-31.0,3.517
-15.0,-19.0,3.518
16.0,1.0,3.519
33.0,9.0,3.52
30.0,2.0,3.521
24.0,0.0,3.522
29.0,2.0,3.523
36.0,5.0,3.524
30.0,8.0,3.525
11.0,13.0,3.526
3.0,16.0,3.527
16.0,14.0,3.528
27.0,14.0,3.529
20.0,15.0,3.53
-5.0,6.0,3.531
-33.0,-11.0,3.532
-52.0,-21.0,3.533
-61.0,-11.0,3.534
-62.0,1.0,3.535
-53.0,0.0,3.536
-41.0,-8.0,3.537
-24.0,-11.0,3.538
-4.0,-9.0,3.539
21.0,-7.0,3.54
52.0,-3.0,3.541
84.0,10.0,3.542
105.0,25.0,3.543
100.0,28.0,3.544
75.0,19.0,3.545
51.0,11.0,3.546
42.0,9.0,3.547
32.0,6.0,3.548
1.0,-2.0,3.549
-41.0,-13.0,3.55
-73.0,-25.0,3.551
-82.0,-38.0,3.552
-82.0,-47.0,3.553
-77.0,-43.0,3.554
-74.0,-22.0,3.555
-95.0,2.0,3.556
-144.0,14.0,3.557
-166.0,15.0,3.558
-98.0,22.0,3.559
-18.0,30.0,3.56
99.0,25.0,3.561
194.0,10.0,3.562
222.0,4.0,3.563
251.0,11.0,3.564
284.0,19.0,3.565
293.0,26.0,3.566
231.0,31.0,3.567
156.0,26.0,3.568
43.0,4.0,3.569
-49.0,-12.0,3.57
-78.0,-7.0,3.571
-111.0,5.0,3.572
-152.0,0.0,3.573
-176.0,-17.0,3.574
-144.0,-14.0,3.575
-110.0,9.0,3.576
-68.0,28.0,3.577
-32.0,23.0,3.578
-17.0,11.0,3.579
-15.0,5.0,3.58
-40.0,-2.0,3.581
-63.0,-6.0,3.582
-51.0,9.0,3.583
-26.0,49.0,3.584
-25.0,81.0,3.585
-35.0,71.0,3.586
-26.0,20.0,3.587
-11.0,-39.0,3.588
-24.0,-84.0,3.589
-47.0,-122.0,3.59
-47.0,-167.0,3.591
-17.0,-195.0,3.592
21.0,-172.0,3.593
69.0,-103.0,3.594
122.0,-39.0,3.595
166.0,-8.0,3.596
183.0,7.0,3.597
174.0,28.0,3.598
151.0,50.0,3.599
110.0,67.0,3.6
18.0,65.0,3.601
-71.0,55.0,3.602
-151.0,25.0,3.603
-205.0,7.0,3.604
-175.0,25.0,3.605
-152.0,40.0,3.606
-150.0,47.0,3.607
-133.0,45.0,3.608
-67.0,11.0,3.609
0.0,-10.0,3.61
73.0,4.0,3.611
135.0,19.0,3.612
163.0,31.0,3.613
169.0,37.0,3.614
108.0,26.0,3.615
51.0,17.0,3.616
8.0,13.0,3.617
-28.0,11.0,3.618
-50.0,17.0,3.619
-71.0,11.0,3.62
-69.0,4.0,3.621
-42.0,11.0,3.622
-5.0,21.0,3.623
33.0,19.0,3.624
70.0,16.0,3.625
99.0,27.0,3.626
112.0,48.0,3.627
95.0,57.0,3.628
35.0,27.0,3.629
-68.0,-36.0,3.63
-163.0,-97.0,3.631
-188.0,-109.0,3.632
-148.0,-66.0,3.633
-112.0,-15.0,3.634
-116.0,2.0,3.635
-125.0,-9.0,3.636
-105.0,-13.0,3.637
-76.0,-10.0,3.638
-53.0,-6.0,3.639
-18.0,-4.0,3.64
34.0,6.0,3.641
65.0,13.0,3.642
50.0,-6.0,3.643
44.0,-36.0,3.644
85.0,-38.0,3.645
133.0,-9.0,3.646
131.0,7.0,3.647
111.0,-4.0,3.648
139.0,-19.0,3.649
187.0,-24.0,3.65
177.0,-26.0,3.651
100.0,-28.0,3.652
29.0,-14.0,3.653
-1.0,1.0,3.654
-41.0,-6.0,3.655
-116.0,-31.0,3.656
-166.0,-27.0,3.657
-140.0,12.0,3.658
-73.0,43.0,3.659
-26.0,40.0,3.66
1.0,35.0,3.661
36.0,62.0,3.662
45.0,86.0,3.663
-9.0,73.0,3.664
-85.0,38.0,3.665
-88.0,13.0,3.666
1.0,-7.0,3.667
117.0,-32.0,3.668
212.0,-47.0,3.669
301.0,-38.0,3.67
395.0,-16.0,3.671
450.0,10.0,3.672
388.0,43.0,3.673
174.0,71.0,3.674
-123.0,58.0,3.675
-335.0,-1.0,3.676
-334.0,-50.0,3.677
-209.0,-50.0,3.678
-155.0,-17.0,3.679
-122.0,-8.0,3.68
-152.0,-30.0,3.681
-140.0,-37.0,3.682
1.0,-11.0,3.683
102.0,14.0,3.684
80.0,16.0,3.685
56.0,16.0,3.686
30.0,28.0,3.687
-4.0,26.0,3.688
-62.0,-11.0,3.689
-103.0,-48.0,3.69
-93.0,-45.0,3.691
-88.0,-16.0,3.692
-101.0,0.0,3.693
-106.0,4.0,3.694
-83.0,25.0,3.695
-71.0,51.0,3.696
-97.0,54.0,3.697
-113.0,37.0,3.698
-82.0,31.0,3.699
-35.0,22.0,3.7
10.0,-27.0,3.701
52.0,-87.0,3.702
64.0,-104.0,3.703
33.0,-71.0,3.704
2.0,-38.0,3.705
32.0,-22.0,3.706
99.0,-14.0,3.707
117.0,-29.0,3.708
52.0,-85.0,3.709
-29.0,-145.0,3.71
-50.0,-152.0,3.711
-7.0,-88.0,3.712
32.0,5.0,3.713
13.0,87.0,3.714
-46.0,123.0,3.715
-85.0,106.0,3.716
-71.0,65.0,3.717
-41.0,32.0,3.718
-25.0,23.0,3.719
-46.0,21.0,3.72
-49.0,14.0,3.721
12.0,12.0,3.722
122.0,9.0,3.723
203.0,-6.0,3.724
197.0,-5.0,3.725
119.0,37.0,3.726
41.0,84.0,3.727
19.0,83.0,3.728
49.0,49.0,3.729
70.0,38.0,3.73
34.0,50.0,3.731
-18.0,37.0,3.732
7.0,-2.0,3.733
113.0,-17.0,3.734
159.0,4.0,3.735
25.0,25.0,3.736
-203.0,19.0,3.737
-389.0,-1.0,3.738
-386.0,-20.0,3.739
-270.0,-34.0,3.74
-120.0,-30.0,3.741
13.0,1.0,3.742
106.0,28.0,3.743
187.0,16.0,3.744
300.0,-15.0,3.745
418.0,-25.0,3.746
443.0,-7.0,3.747
353.0,17.0,3.748
244.0,36.0,3.749
190.0,43.0,3.75
144.0,29.0,3.751
27.0,-6.0,3.752
-163.0,-50.0,3.753
-383.0,-98.0,3.754
-571.0,-135.0,3.755
-622.0,-137.0,3.756
-477.0,-94.0,3.757
-240.0,-59.0,3.758
-105.0,-65.0,3.759
21.0,-62.0,3.76
120.0,-26.0,3.761
228.0,13.0,3.762
360.0,59.0,3.763
427.0,92.0,3.764
299.0,85.0,3.765
171.0,73.0,3.766
45.0,50.0,3.767
-81.0,24.0,3.768
-206.0,-9.0,3.769
-251.0,-23.0,3.77
-56.0,25.0,3.771
88.0,58.0,3.772
78.0,47.0,3.773
79.0,39.0,3.774
117.0,39.0,3.775
124.0,38.0,3.776
38.0,35.0,3.777
-59.0,29.0,3.778
-160.0,14.0,3.779
-215.0,18.0,3.78
-242.0,31.0,3.781
-208.0,28.0,3.782
-100.0,-19.0,3.783
0.0,-112.0,3.784
2.0,-187.0,3.785
-49.0,-174.0,3.786
-53.0,-89.0,3.787
7.0,-16.0,3.788
55.0,1.0,3.789
51.0,8.0,3.79
27.0,33.0,3.791
30.0,40.0,3.792
63.0,3.0,3.793
109.0,-19.0,3.794
143.0,31.0,3.795
124.0,111.0,3.796
37.0,131.0,3.797
-91.0,68.0,3.798
-167.0,-10.0,3.799
-169.0,-39.0,3.8
-157.0,-29.0,3.801
-166.0,-21.0,3.802
-143.0,-27.0,3.803
-56.0,-17.0,3.804
40.0,27.0,3.805
100.0,73.0,3.806
147.0,67.0,3.807
166.0,-5.0,3.808
95.0,-89.0,3.809
-62.0,-108.0,3.81
-179.0,-58.0,3.811
-165.0,-12.0,3.812
-70.0,-19.0,3.813
0.0,-42.0,3.814
27.0,-19.0,3.815
41.0,26.0,3.816
72.0,35.0,3.817
137.0,0.0,3.818
222.0,-11.0,3.819
267.0,21.0,3.82
229.0,51.0,3.821
126.0,46.0,3.822
-1.0,21.0,3.823
-124.0,0.0,3.824
-187.0,-15.0,3.825
-122.0,-21.0,3.826
31.0,-17.0,3.827
144.0,-10.0,3.828
159.0,2.0,3.829
137.0,32.0,3.83
127.0,48.0,3.831
91.0,-10.0,3.832
16.0,-124.0,3.833
-10.0,-175.0,3.834
65.0,-103.0,3.835
161.0,7.0,3.836
179.0,61.0,3.837
108.0,67.0,3.838
11.0,72.0,3.839
-54.0,61.0,3.84
-56.0,15.0,3.841
4.0,11.0,3.842
82.0,89.0,3.843
104.0,157.0,3.844
39.0,113.0,3.845
-71.0,16.0,3.846
-178.0,-13.0,3.847
-267.0,28.0,3.848
-339.0,43.0,3.849
-373.0,19.0,3.85
-355.0,8.0,3.851
-300.0,-10.0,3.852
-227.0,-91.0,3.853
-119.0,-187.0,3.854
28.0,-175.0,3.855
161.0,-61.0,3.856
209.0,8.0,3.857
170.0,-23.0,3.858
108.0,-61.0,3.859
62.0,-29.0,3.86
31.0,9.0,3.861
27.0,-3.0,3.862
53.0,-10.0,3.863
43.0,45.0,3.864
-80.0,99.0,3.865
-244.0,69.0,3.866
-270.0,-13.0,3.867
-122.0,-61.0,3.868
33.0,-67.0,3.869
73.0,-77.0,3.87
68.0,-84.0,3.871
111.0,-54.0,3.872
166.0,7.0,3.873
181.0,55.0,3.874
205.0,84.0,3.875
257.0,119.0,3.876
254.0,154.0,3.877
136.0,153.0,3.878
6.0,104.0,3.879
-41.0,49.0,3.88
-58.0,18.0,3.881
-129.0,-2.0,3.882
-183.0,-39.0,3.883
-122.0,-66.0,3.884
-12.0,-28.0,3.885
8.0,82.0,3.886
-63.0,192.0,3.887
-86.0,226.0,3.888
16.0,155.0,3.889
180.0,11.0,3.89
290.0,-146.0,3.891
275.0,-270.0,3.892
155.0,-340.0,3.893
10.0,-347.0,3.894
-93.0,-282.0,3.895
-151.0,-162.0,3.896
-170.0,-54.0,3.897
-142.0,-3.0,3.898
-96.0,13.0,3.899
-72.0,58.0,3.9
-114.0,116.0,3.901
-126.0,112.0,3.902
-44.0,35.0,3.903
38.0,-15.0,3.904
121.0,16.0,3.905
184.0,61.0,3.906
184.0,52.0,3.907
139.0,19.0,3.908
-40.0,21.0,3.909
-196.0,35.0,3.91
-281.0,20.0,3.911
-304.0,-5.0,3.912
-136.0,1.0,3.913
10.0,26.0,3.914
90.0,42.0,3.915
137.0,53.0,3.916
81.0,66.0,3.917
54.0,57.0,3.918
166.0,33.0,3.919
265.0,38.0,3.92
227.0,79.0,3.921
76.0,99.0,3.922
-64.0,57.0,3.923
-110.0,5.0,3.924
-76.0,-6.0,3.925
-31.0,1.0,3.926
-27.0,5.0,3.927
-52.0,41.0,3.928
-58.0,119.0,3.929
-31.0,153.0,3.93
-28.0,57.0,3.931
-97.0,-110.0,3.932
-184.0,-203.0,3.933
-164.0,-173.0,3.934
9.0,-111.0,3.935
222.0,-107.0,3.936
321.0,-137.0,3.937
284.0,-135.0,3.938
216.0,-78.0,3.939
137.0,-4.0,3.94
-20.0,41.0,3.941
-224.0,36.0,3.942
-295.0,-29.0,3.943
-167.0,-104.0,3.944
-6.0,-103.0,3.945
15.0,-15.0,3.946
-37.0,59.0,3.947
-21.0,45.0,3.948
38.0,2.0,3.949
29.0,27.0,3.95
-13.0,100.0,3.951
31.0,143.0,3.952
143.0,137.0,3.953
176.0,124.0,3.954
81.0,107.0,3.955
-46.0,67.0,3.956
-118.0,18.0,3.957
-149.0,-19.0,3.958
-153.0,-49.0,3.959
-123.0,-93.0,3.96
-70.0,-120.0,3.961
-29.0,-80.0,3.962
-31.0,6.0,3.963
-71.0,74.0,3.964
-118.0,86.0,3.965
-117.0,58.0,3.966
-53.0,21.0,3.967
15.0,-16.0,3.968
27.0,-70.0,3.969
28.0,-147.0,3.97
103.0,-201.0,3.971
233.0,-165.0,3.972
304.0,-60.0,3.973
258.0,14.0,3.974
139.0,16.0,3.975
13.0,28.0,3.976
-75.0,104.0,3.977
-100.0,172.0,3.978
-58.0,145.0,3.979
-2.0,76.0,3.98
29.0,75.0,3.981
46.0,130.0,3.982
47.0,110.0,3.983
7.0,-23.0,3.984
-23.0,-158.0,3.985
25.0,-196.0,3.986
98.0,-170.0,3.987
67.0,-149.0,3.988
-49.0,-137.0,3.989
-100.0,-84.0,3.99
-67.0,20.0,3.991
-75.0,131.0,3.992
-130.0,200.0,3.993
-83.0,197.0,3.994
78.0,125.0,3.995
152.0,19.0,3.996
51.0,-67.0,3.997
-105.0,-110.0,3.998
-165.0,-115.0,3.999
-166.0,-115.0,4.0
-189.0,-118.0,4.001
-186.0,-99.0,4.002
-91.0,-36.0,4.003
35.0,46.0,4.004
104.0,97.0,4.005
153.0,82.0,4.006
238.0,13.0,4.007
309.0,-47.0,4.008
305.0,-51.0,4.009
267.0,-6.0,4.01
241.0,42.0,4.011
167.0,71.0,4.012
2.0,91.0,4.013
-152.0,108.0,4.014
-184.0,103.0,4.015
-154.0,74.0,4.016
-199.0,56.0,4.017
-300.0,76.0,4.018
-313.0,113.0,4.019
-288.0,115.0,4.02
-148.0,10.0,4.021
-35.0,-85.0,4.022
-1.0,-150.0,4.023
47.0,-187.0,4.024
142.0,-141.0,4.025
209.0,-104.0,4.026
188.0,-91.0,4.027
166.0,-68.0,4.028
144.0,-16.0,4.029
133.0,28.0,4.03
161.0,48.0,4.031
160.0,62.0,4.032
70.0,56.0,4.033
-2.0,52.0,4.034
-22.0,52.0,4.035
-51.0,52.0,4.036
-104.0,49.0,4.037
-166.0,36.0,4.038
-239.0,-17.0,4.039
-241.0,-53.0,4.04
-151.0,-62.0,4.041
-3.0,-67.0,4.042
125.0,-85.0,4.043
176.0,-97.0,4.044
143.0,-65.0,4.045
47.0,5.0,4.046
-83.0,83.0,4.047
-210.0,137.0,4.048
-274.0,146.0,4.049
-227.0,110.0,4.05
-66.0,68.0,4.051
151.0,47.0,4.052
309.0,11.0,4.053
316.0,-83.0,4.054
203.0,-194.0,4.055
100.0,-219.0,4.056
85.0,-152.0,4.057
114.0,-80.0,4.058
122.0,-67.0,4.059
91.0,-69.0,4.06
24.0,-29.0,4.061
-77.0,24.0,4.062
-158.0,37.0,4.063
-159.0,38.0,4.064
-117.0,81.0,4.065
-105.0,151.0,4.066
-103.0,194.0,4.067
-36.0,185.0,4.068
53.0,128.0,4.069
34.0,36.0,4.07
-94.0,-63.0,4.071
-203.0,-130.0,4.072
-231.0,-142.0,4.073
-238.0,-100.0,4.074
-234.0,-20.0,4.075
-149.0,69.0,4.076
-3.0,134.0,4.077
86.0,143.0,4.078
100.0,91.0,4.079
143.0,18.0,4.08
271.0,-115.0,4.081
353.0,-199.0,4.082
291.0,-133.0,4.083
231.0,-64.0,4.084
177.0,17.0,4.085
137.0,78.0,4.086
140.0,80.0,4.087
131.0,77.0,4.088
84.0,53.0,4.089
20.0,25.0,4.09
-91.0,-15.0,4.091
-191.0,-47.0,4.092
-255.0,-58.0,4.093
-281.0,-66.0,4.094
-195.0,-63.0,4.095
-119.0,-51.0,4.096
-70.0,-16.0,4.097
-29.0,10.0,4.098
-48.0,-12.0,4.099
-122.0,-55.0,4.1
-200.0,-79.0,4.101
-217.0,-59.0,4.102
-135.0,-21.0,4.103
41.0,1.0,4.104
247.0,8.0,4.105
375.0,23.0,4.106
370.0,51.0,4.107
281.0,82.0,4.108
173.0,131.0,4.109
47.0,203.0,4.11
-81.0,229.0,4.111
-127.0,105.0,4.112
-50.0,-137.0,4.113
53.0,-310.0,4.114
56.0,-277.0,4.115
-29.0,-113.0,4.116
-89.0,14.0,4.117
-65.0,62.0,4.118
19.0,69.0,4.119
108.0,53.0,4.12
163.0,5.0,4.121
129.0,-25.0,4.122
-15.0,-3.0,4.123
-182.0,28.0,4.124
-225.0,18.0,4.125
-119.0,6.0,4.126
-1.0,31.0,4.127
3.0,45.0,4.128
-71.0,5.0,4.129
-118.0,-18.0,4.13
-119.0,78.0,4.131
-118.0,273.0,4.132
-118.0,416.0,4.133
-84.0,365.0,4.134
-29.0,115.0,4.135
6.0,-180.0,4.136
19.0,-333.0,4.137
24.0,-309.0,4.138
14.0,-211.0,4.139
-15.0,-157.0,4.14
0.0,-149.0,4.141
109.0,-124.0,4.142
260.0,-82.0,4.143
334.0,-56.0,4.144
271.0,-40.0,4.145
119.0,-27.0,4.146
-23.0,-22.0,4.147
-99.0,-6.0,4.148
-120.0,55.0,4.149
-125.0,122.0,4.15
-123.0,97.0,4.151
-106.0,-10.0,4.152
-74.0,-67.0,4.153
-44.0,-6.0,4.154
-8.0,78.0,4.155
54.0,85.0,4.156
116.0,45.0,4.157
118.0,32.0,4.158
47.0,49.0,4.159
-13.0,60.0,4.16
-39.0,49.0,4.161
-56.0,39.0,4.162
-39.0,29.0,4.163
-22.0,25.0,4.164
-8.0,39.0,4.165
0.0,40.0,4.166
-6.0,0.0,4.167
-32.0,-28.0,4.168
-113.0,-22.0,4.169
-151.0,-17.0,4.17
-53.0,-18.0,4.171
31.0,-19.0,4.172
76.0,-19.0,4.173
94.0,-18.0,4.174
26.0,-19.0,4.175
-16.0,-20.0,4.176
25.0,-16.0,4.177
67.0,-9.0,4.178
68.0,-16.0,4.179
14.0,-47.0,4.18
-35.0,-55.0,4.181
-44.0,-28.0,4.182
-30.0,-11.0,4.183
-32.0,-22.0,4.184
-50.0,-34.0,4.185
-46.0,-35.0,4.186
15.0,-37.0,4.187
123.0,-29.0,4.188
196.0,-2.0,4.189
165.0,17.0,4.19
54.0,12.0,4.191
-25.0,10.0,4.192
6.0,35.0,4.193
113.0,53.0,4.194
190.0,46.0,4.195
172.0,44.0,4.196
88.0,64.0,4.197
-5.0,66.0,4.198
-52.0,31.0,4.199
-45.0,-5.0,4.2
-19.0,-12.0,4.201
-9.0,-8.0,4.202
-21.0,-13.0,4.203
-22.0,3.0,4.204
2.0,45.0,4.205
9.0,42.0,4.206
-77.0,-44.0,4.207
-230.0,-140.0,4.208
-279.0,-152.0,4.209
-100.0,-93.0,4.21
167.0,-39.0,4.211
239.0,-8.0,4.212
52.0,32.0,4.213
-154.0,63.0,4.214
-178.0,33.0,4.215
-95.0,-35.0,4.216
-51.0,-61.0,4.217
-28.0,-16.0,4.218
44.0,47.0,4.219
93.0,91.0,4.22
39.0,130.0,4.221
-20.0,174.0,4.222
30.0,148.0,4.223
89.0,-2.0,4.224
15.0,-201.0,4.225
-83.0,-288.0,4.226
-10.0,-196.0,4.227
161.0,-15.0,4.228
182.0,112.0,4.229
32.0,135.0,4.23
-86.0,92.0,4.231
-89.0,46.0,4.232
-95.0,45.0,4.233
-154.0,90.0,4.234
-172.0,126.0,4.235
-106.0,95.0,4.236
-45.0,18.0,4.237
-41.0,-46.0,4.238
-43.0,-67.0,4.239
-4.0,-84.0,4.24
56.0,-115.0,4.241
103.0,-117.0,4.242
136.0,-75.0,4.243
159.0,-41.0,4.244
170.0,-41.0,4.245
154.0,-41.0,4.246
82.0,-15.0,4.247
-41.0,22.0,4.248
-119.0,68.0,4.249
-60.0,123.0,4.25
63.0,138.0,4.251
91.0,65.0,4.252
14.0,-43.0,4.253
-22.0,-92.0,4.254
42.0,-80.0,4.255
111.0,-68.0,4.256
124.0,-66.0,4.257
118.0,-49.0,4.258
103.0,-15.0,4.259
10.0,-2.0,4.26
-155.0,-8.0,4.261
-264.0,0.0,4.262
-236.0,32.0,4.263
-145.0,78.0,4.264
-81.0,108.0,4.265
-38.0,73.0,4.266
10.0,-35.0,4.267
36.0,-113.0,4.268
12.0,-58.0,4.269
-36.0,67.0,4.27
-66.0,109.0,4.271
-54.0,52.0,4.272
7.0,14.0,4.273
84.0,35.0,4.274
113.0,24.0,4.275
72.0,-47.0,4.276
26.0,-86.0,4.277
16.0,-50.0,4.278
-8.0,-4.0,4.279
-90.0,-7.0,4.28
-173.0,-34.0,4.281
-154.0,-47.0,4.282
-27.0,-64.0,4.283
117.0,-75.0,4.284
187.0,-44.0,4.285
157.0,9.0,4.286
68.0,25.0,4.287
1.0,7.0,4.288
4.0,18.0,4.289
33.0,58.0,4.29
5.0,70.0,4.291
-73.0,62.0,4.292
-104.0,94.0,4.293
-31.0,164.0,4.294
87.0,178.0,4.295
156.0,87.0,4.296
157.0,-40.0,4.297
130.0,-125.0,4.298
120.0,-128.0,4.299
126.0,-87.0,4.3
118.0,-64.0,4.301
76.0,-65.0,4.302
14.0,-57.0,4.303
-55.0,-27.0,4.304
-123.0,-4.0,4.305
-163.0,-5.0,4.306
-148.0,-2.0,4.307
-108.0,35.0,4.308
-97.0,84.0,4.309
-107.0,95.0,4.31
-87.0,53.0,4.311
-32.0,-9.0,4.312
-3.0,-51.0,4.313
-16.0,-56.0,4.314
-17.0,-36.0,4.315
25.0,-14.0,4.316
59.0,-3.0,4.317
23.0,-6.0,4.318
-47.0,-21.0,4.319
-87.0,-47.0,4.32
-31.0,-68.0,4.321
27.0,-52.0,4.322
92.0,-4.0,4.323
143.0,41.0,4.324
147.0,58.0,4.325
148.0,61.0,4.326
142.0,71.0,4.327
112.0,78.0,4.328
13.0,59.0,4.329
-65.0,5.0,4.33
-84.0,-50.0,4.331
-98.0,-74.0,4.332
-96.0,-58.0,4.333
-84.0,-34.0,4.334
-46.0,-24.0,4.335
-19.0,-16.0,4.336
-30.0,3.0,4.337
-36.0,15.0,4.338
-17.0,3.0,4.339
7.0,-15.0,4.34
16.0,-14.0,4.341
13.0,11.0,4.342
5.0,29.0,4.343
-14.0,27.0,4.344
-33.0,18.0,4.345
-29.0,18.0,4.346
-3.0,15.0,4.347
15.0,10.0,4.348
12.0,7.0,4.349
-7.0,6.0,4.35
-32.0,-2.0,4.351
-57.0,-12.0,4.352
-66.0,-17.0,4.353
-43.0,-14.0,4.354
0.0,-12.0,4.355
41.0,-12.0,4.356
69.0,-9.0,4.357
93.0,-2.0,4.358
115.0,5.0,4.359
117.0,8.0,4.36
91.0,3.0,4.361
62.0,2.0,4.362
61.0,0.0,4.363
78.0,-5.0,4.364
70.0,-3.0,4.365
20.0,7.0,4.366
-27.0,18.0,4.367
-30.0,18.0,4.368
-2.0,17.0,4.369
14.0,21.0,4.37
1.0,18.0,4.371
-19.0,-2.0,4.372
-28.0,-30.0,4.373
-32.0,-41.0,4.374
-33.0,-28.0,4.375
-31.0,-9.0,4.376
-30.0,-1.0,4.377
-37.0,-5.0,4.378
-42.0,-14.0,4.379
-43.0,-19.0,4.38
-40.0,-17.0,4.381
-39.0,-11.0,4.382
-34.0,-5.0,4.383
-16.0,-1.0,4.384
9.0,4.0,4.385
23.0,10.0,4.386
24.0,11.0,4.387
25.0,6.0,4.388
34.0,1.0,4.389
48.0,0.0,4.39
52.0,1.0,4.391
42.0,0.0,4.392
28.0,-3.0,4.393
24.0,-4.0,4.394
26.0,-5.0,4.395
13.0,0.0,4.396
-26.0,7.0,4.397
-66.0,11.0,4.398
-69.0,5.0,4.399
-63.0,-9.0,4.4
-28.0,-22.0,4.401
0.0,-23.0,4.402
6.0,-11.0,4.403
18.0,6.0,4.404
43.0,22.0,4.405
55.0,23.0,4.406
21.0,11.0,4.407
-7.0,-4.0,4.408
-21.0,-10.0,4.409
-32.0,-9.0,4.41
-36.0,-2.0,4.411
-40.0,6.0,4.412
-44.0,13.0,4.413
-51.0,12.0,4.414
-64.0,1.0,4.415
-72.0,-8.0,4.416
-61.0,-8.0,4.417
-49.0,-2.0,4.418
-27.0,7.0,4.419
4.0,9.0,4.42
40.0,0.0,4.421
57.0,-10.0,4.422
64.0,-17.0,4.423
95.0,-12.0,4.424
151.0,-1.0,4.425
185.0,3.0,4.426
163.0,-3.0,4.427
113.0,-7.0,4.428
78.0,-5.0,4.429
64.0,0.0,4.43
51.0,3.0,4.431
27.0,11.0,4.432
1.0,19.0,4.433
-23.0,17.0,4.434
-39.0,2.0,4.435
-45.0,-17.0,4.436
-41.0,-25.0,4.437
-39.0,-24.0,4.438
-34.0,-20.0,4.439
-15.0,-10.0,4.44
12.0,0.0,4.441
6.0,11.0,4.442
-53.0,12.0,4.443
-128.0,7.0,4.444
-149.0,2.0,4.445
-100.0,1.0,4.446
-33.0,5.0,4.447
-7.0,8.0,4.448
-16.0,9.0,4.449
-19.0,11.0,4.45
-17.0,13.0,4.451
-43.0,18.0,4.452
-96.0,11.0,4.453
-110.0,-8.0,4.454
-48.0,-26.0,4.455
52.0,-23.0,4.456
123.0,-6.0,4.457
140.0,7.0,4.458
122.0,12.0,4.459
90.0,14.0,4.46
56.0,12.0,4.461
22.0,3.0,4.462
-6.0,-7.0,4.463
-21.0,-4.0,4.464
-18.0,6.0,4.465
-2.0,6.0,4.466
8.0,-8.0,4.467
-6.0,-18.0,4.468
-23.0,-8.0,4.469
-20.0,6.0,4.47
-2.0,6.0,4.471
2.0,-6.0,4.472
14.0,-16.0,4.473
60.0,-20.0,4.474
118.0,-16.0,4.475
124.0,-4.0,4.476
74.0,13.0,4.477
25.0,16.0,4.478
18.0,3.0,4.479
4.0,-7.0,4.48
-31.0,-6.0,4.481
-60.0,0.0,4.482
-69.0,-6.0,4.483
-75.0,-13.0,4.484
-65.0,-8.0,4.485
-56.0,2.0,4.486
-47.0,2.0,4.487
-42.0,-4.0,4.488
-52.0,-5.0,4.489
-47.0,-3.0,4.49
4.0,-7.0,4.491
43.0,-9.0,4.492
43.0,-7.0,4.493
47.0,-2.0,4.494
67.0,-1.0,4.495
84.0,-1.0,4.496
92.0,7.0,4.497
89.0,15.0,4.498
49.0,15.0,4.499
31.0,9.0,4.5
36.0,2.0,4.501
41.0,-2.0,4.502
35.0,-5.0,4.503
7.0,-4.0,4.504
-42.0,2.0,4.505
-86.0,6.0,4.506
-104.0,2.0,4.507
-102.0,0.0,4.508
-97.0,5.0,4.509
-77.0,10.0,4.51
-19.0,7.0,4.511
57.0,0.0,4.512
94.0,-6.0,4.513
57.0,-12.0,4.514
-15.0,-24.0,4.515
-56.0,-27.0,4.516
-49.0,-15.0,4.517
-51.0,2.0,4.518
-115.0,12.0,4.519
-209.0,16.0,4.52
-233.0,16.0,4.521
-145.0,8.0,4.522
-8.0,-14.0,4.523
96.0,-39.0,4.524
168.0,-44.0,4.525
254.0,-27.0,4.526
338.0,-7.0,4.527
340.0,8.0,4.528
242.0,32.0,4.529
121.0,59.0,4.53
45.0,62.0,4.531
-20.0,36.0,4.532
-110.0,5.0,4.533
-168.0,-1.0,4.534
-112.0,4.0,4.535
18.0,2.0,4.536
95.0,0.0,4.537
57.0,7.0,4.538
-30.0,18.0,4.539
-69.0,11.0,4.54
-42.0,-11.0,4.541
-5.0,-15.0,4.542
-10.0,-7.0,4.543
-62.0,-11.0,4.544
-133.0,-29.0,4.545
-174.0,-30.0,4.546
-152.0,-9.0,4.547
-86.0,2.0,4.548
-31.0,-11.0,4.549
-3.0,-27.0,4.55
32.0,-27.0,4.551
102.0,-18.0,4.552
169.0,-5.0,4.553
170.0,21.0,4.554
98.0,49.0,4.555
14.0,48.0,4.556
-26.0,21.0,4.557
-45.0,-4.0,4.558
-82.0,-9.0,4.559
-139.0,-12.0,4.56
-165.0,-28.0,4.561
-130.0,-35.0,4.562
-58.0,-25.0,4.563
5.0,-16.0,4.564
55.0,-19.0,4.565
105.0,-22.0,4.566
151.0,-14.0,4.567
168.0,-2.0,4.568
146.0,11.0,4.569
94.0,30.0,4.57
37.0,44.0,4.571
-1.0,40.0,4.572
-11.0,21.0,4.573
-9.0,7.0,4.574
-11.0,3.0,4.575
-11.0,0.0,4.576
-8.0,0.0,4.577
-31.0,0.0,4.578
-83.0,-1.0,4.579
-134.0,-6.0,4.58
-180.0,-19.0,4.581
-209.0,-27.0,4.582
-179.0,-17.0,4.583
-128.0,-11.0,4.584
-13.0,-15.0,4.585
75.0,-18.0,4.586
87.0,-15.0,4.587
109.0,-8.0,4.588
162.0,13.0,4.589
193.0,29.0,4.59
154.0,28.0,4.591
127.0,24.0,4.592
137.0,14.0,4.593
134.0,6.0,4.594
91.0,0.0,4.595
58.0,-3.0,4.596
53.0,2.0,4.597
50.0,11.0,4.598
12.0,20.0,4.599
-85.0,7.0,4.6
-162.0,-14.0,4.601
-178.0,-20.0,4.602
-172.0,-17.0,4.603
-164.0,-25.0,4.604
-119.0,-32.0,4.605
-11.0,-22.0,4.606
110.0,0.0,4.607
167.0,18.0,4.608
134.0,30.0,4.609
62.0,38.0,4.61
4.0,38.0,4.611
-38.0,20.0,4.612
-103.0,-5.0,4.613
-170.0,-16.0,4.614
-176.0,-12.0,4.615
-104.0,-7.0,4.616
-22.0,-10.0,4.617
38.0,-16.0,4.618
103.0,-15.0,4.619
176.0,-11.0,4.62
196.0,-12.0,4.621
130.0,-8.0,4.622
41.0,9.0,4.623
1.0,31.0,4.624
-1.0,35.0,4.625
-9.0,20.0,4.626
-17.0,3.0,4.627
-7.0,-6.0,4.628
26.0,-11.0,4.629
68.0,-15.0,4.63
107.0,-11.0,4.631
103.0,2.0,4.632
27.0,14.0,4.633
-70.0,12.0,4.634
-104.0,-5.0,4.635
-74.0,-17.0,4.636
-50.0,-14.0,4.637
-63.0,-6.0,4.638
-56.0,-2.0,4.639
9.0,-2.0,4.64
85.0,-1.0,4.641
92.0,7.0,4.642
29.0,11.0,4.643
-49.0,10.0,4.644
-100.0,9.0,4.645
-116.0,9.0,4.646
-109.0,4.0,4.647
-98.0,-6.0,4.648
-101.0,-12.0,4.649
-115.0,-8.0,4.65
-113.0,-2.0,4.651
-84.0,-1.0,4.652
-61.0,-6.0,4.653
-76.0,-8.0,4.654
-87.0,-11.0,4.655
-14.0,-18.0,4.656
141.0,-20.0,4.657
272.0,-10.0,4.658
284.0,11.0,4.659
264.0,30.0,4.66
149.0,33.0,4.661
46.0,30.0,4.662
-18.0,22.0,4.663
-71.0,4.0,4.664
-88.0,-17.0,4.665
-88.0,-27.0,4.666
-37.0,-21.0,4.667
4.0,-15.0,4.668
16.0,-21.0,4.669
31.0,-23.0,4.67
56.0,-7.0,4.671
81.0,15.0,4.672
102.0,17.0,4.673
110.0,-4.0,4.674
75.0,-22.0,4.675
35.0,-22.0,4.676
-18.0,-15.0,4.677
-74.0,-18.0,4.678
-130.0,-26.0,4.679
-158.0,-27.0,4.68
-140.0,-15.0,4.681
-87.0,5.0,4.682
-26.0,24.0,4.683
36.0,37.0,4.684
88.0,41.0,4.685
82.0,35.0,4.686
6.0,22.0,4.687
-70.0,8.0,4.688
-55.0,1.0,4.689
40.0,0.0,4.69
96.0,2.0,4.691
27.0,2.0,4.692
-131.0,1.0,4.693
-254.0,3.0,4.694
-246.0,3.0,4.695
-113.0,3.0,4.696
36.0,3.0,4.697
120.0,-6.0,4.698
142.0,-15.0,4.699
149.0,-20.0,4.7
135.0,-14.0,4.701
54.0,-1.0,4.702
-63.0,5.0,4.703
-118.0,1.0,4.704
-93.0,-3.0,4.705
-47.0,-5.0,4.706
17.0,-4.0,4.707
141.0,0.0,4.708
253.0,15.0,4.709
222.0,33.0,4.71
56.0,33.0,4.711
-75.0,6.0,4.712
-84.0,-19.0,4.713
-45.0,-27.0,4.714
-16.0,-18.0,4.715
58.0,-13.0,4.716
183.0,-8.0,4.717
268.0,1.0,4.718
215.0,13.0,4.719
67.0,13.0,4.72
-45.0,0.0,4.721
-74.0,-10.0,4.722
-67.0,-10.0,4.723
-92.0,-7.0,4.724
-146.0,-4.0,4.725
-166.0,-4.0,4.726
-113.0,-7.0,4.727
-45.0,-10.0,4.728
-35.0,-9.0,4.729
-67.0,-4.0,4.73
-58.0,-4.0,4.731
-2.0,-1.0,4.732
15.0,10.0,4.733
-25.0,23.0,4.734
-46.0,17.0,4.735
-4.0,-1.0,4.736
45.0,-8.0,4.737
36.0,-3.0,4.738
-18.0,8.0,4.739
-69.0,11.0,4.74
-102.0,4.0,4.741
-127.0,-6.0,4.742
-122.0,-20.0,4.743
-60.0,-34.0,4.744
40.0,-36.0,4.745
121.0,-23.0,4.746
141.0,-3.0,4.747
122.0,16.0,4.748
112.0,28.0,4.749
131.0,29.0,4.75
152.0,23.0,4.751
152.0,15.0,4.752
135.0,13.0,4.753
98.0,16.0,4.754
18.0,19.0,4.755
-90.0,21.0,4.756
-164.0,14.0,4.757
-178.0,-8.0,4.758
-157.0,-29.0,4.759
-128.0,-31.0,4.76
-64.0,-18.0,4.761
57.0,-5.0,4.762
178.0,0.0,4.763
201.0,13.0,4.764
102.0,29.0,4.765
-32.0,21.0,4.766
-101.0,-11.0,4.767
-85.0,-31.0,4.768
-54.0,-22.0,4.769
-63.0,-1.0,4.77
-88.0,5.0,4.771
-81.0,-3.0,4.772
-43.0,-11.0,4.773
-25.0,-15.0,4.774
-47.0,-18.0,4.775
-75.0,-17.0,4.776
-65.0,-15.0,4.777
-6.0,-11.0,4.778
82.0,0.0,4.779
160.0,18.0,4.78
197.0,25.0,4.781
184.0,18.0,4.782
135.0,9.0,4.783
47.0,8.0,4.784
-79.0,5.0,4.785
-184.0,1.0,4.786
-177.0,3.0,4.787
-62.0,9.0,4.788
38.0,4.0,4.789
39.0,-13.0,4.79
16.0,-24.0,4.791
73.0,-17.0,4.792
170.0,-3.0,4.793
179.0,9.0,4.794
86.0,20.0,4.795
7.0,18.0,4.796
5.0,5.0,4.797
12.0,-11.0,4.798
-54.0,-12.0,4.799
-157.0,-7.0,4.8
-184.0,-14.0,4.801
-102.0,-26.0,4.802
12.0,-19.0,4.803
74.0,5.0,4.804
71.0,28.0,4.805
44.0,30.0,4.806
10.0,23.0,4.807
-36.0,17.0,4.808
-73.0,6.0,4.809
-61.0,-12.0,4.81
-1.0,-26.0,4.811
35.0,-20.0,4.812
-4.0,-4.0,4.813
-62.0,7.0,4.814
-53.0,7.0,4.815
15.0,3.0,4.816
64.0,2.0,4.817
56.0,0.0,4.818
27.0,0.0,4.819
12.0,2.0,4.82
-8.0,3.0,4.821
-40.0,0.0,4.822
-66.0,-3.0,4.823
-75.0,-5.0,4.824
-81.0,-3.0,4.825
-79.0,-7.0,4.826
-56.0,-19.0,4.827
-10.0,-33.0,4.828
51.0,-36.0,4.829
126.0,-26.0,4.83
187.0,-7.0,4.831
181.0,14.0,4.832
114.0,31.0,4.833
67.0,32.0,4.834
88.0,20.0,4.835
119.0,13.0,4.836
89.0,24.0,4.837
3.0,37.0,4.838
-56.0,36.0,4.839
-68.0,15.0,4.84
-69.0,-14.0,4.841
-81.0,-27.0,4.842
-64.0,-25.0,4.843
-13.0,-13.0,4.844
31.0,-9.0,4.845
22.0,-9.0,4.846
-26.0,-6.0,4.847
-75.0,1.0,4.848
-96.0,10.0,4.849
-87.0,13.0,4.85
-63.0,9.0,4.851
-43.0,-1.0,4.852
-31.0,-7.0,4.853
-14.0,-6.0,4.854
23.0,-3.0,4.855
54.0,-7.0,4.856
41.0,-16.0,4.857
-8.0,-23.0,4.858
-40.0,-14.0,4.859
-43.0,-5.0,4.86
-62.0,-11.0,4.861
-102.0,-30.0,4.862
-78.0,-44.0,4.863
39.0,-42.0,4.864
149.0,-14.0,4.865
165.0,34.0,4.866
147.0,71.0,4.867
170.0,65.0,4.868
171.0,23.0,4.869
85.0,-9.0,4.87
-3.0,0.0,4.871
2.0,25.0,4.872
40.0,24.0,4.873
0.0,-1.0,4.874
-79.0,-18.0,4.875
-85.0,-10.0,4.876
-35.0,-2.0,4.877
-13.0,-5.0,4.878
-42.0,-4.0,4.879
-73.0,7.0,4.88
-85.0,10.0,4.881
-82.0,-3.0,4.882
-44.0,-20.0,4.883
24.0,-21.0,4.884
51.0,-10.0,4.885
5.0,1.0,4.886
-44.0,5.0,4.887
-36.0,3.0,4.888
-2.0,-6.0,4.889
17.0,-15.0,4.89
33.0,-12.0,4.891
47.0,-3.0,4.892
12.0,-2.0,4.893
-76.0,-6.0,4.894
-132.0,0.0,4.895
-81.0,15.0,4.896
44.0,15.0,4.897
167.0,-9.0,4.898
209.0,-32.0,4.899
141.0,-31.0,4.9
18.0,-14.0,4.901
-65.0,10.0,4.902
-56.0,37.0,4.903
0.0,55.0,4.904
7.0,48.0,4.905
-84.0,18.0,4.906
-238.0,-9.0,4.907
-360.0,-16.0,4.908
-342.0,-15.0,4.909
-153.0,-19.0,4.91
108.0,-34.0,4.911
302.0,-42.0,4.912
378.0,-31.0,4.913
378.0,-1.0,4.914
330.0,36.0,4.915
221.0,57.0,4.916
93.0,47.0,4.917
6.0,12.0,4.918
7.0,-14.0,4.919
47.0,-13.0,4.92
59.0,2.0,4.921
21.0,9.0,4.922
-44.0,1.0,4.923
-116.0,-4.0,4.924
-168.0,7.0,4.925
-180.0,27.0,4.926
-160.0,35.0,4.927
-133.0,23.0,4.928
-103.0,2.0,4.929
-55.0,-14.0,4.93
-7.0,-28.0,4.931
5.0,-38.0,4.932
-12.0,-40.0,4.933
-19.0,-30.0,4.934
-4.0,-18.0,4.935
5.0,-12.0,4.936
-8.0,-11.0,4.937
-30.0,-9.0,4.938
-43.0,-4.0,4.939
-52.0,-3.0,4.94
-65.0,-11.0,4.941
-71.0,-17.0,4.942
-58.0,-17.0,4.943
-33.0,-10.0,4.944
-20.0,-2.0,4.945
-19.0,5.0,4.946
-3.0,6.0,4.947
34.0,-2.0,4.948
76.0,-13.0,4.949
106.0,-16.0,4.95
137.0,-8.0,4.951
176.0,2.0,4.952
203.0,13.0,4.953
199.0,34.0,4.954
162.0,56.0,4.955
88.0,59.0,4.956
-5.0,39.0,4.957
-72.0,15.0,4.958
-54.0,13.0,4.959
-21.0,11.0,4.96
60.0,8.0,4.961
120.0,4.0,4.962
113.0,-1.0,4.963
91.0,-5.0,4.964
28.0,-3.0,4.965
-23.0,-2.0,4.966
-39.0,-3.0,4.967
-55.0,-3.0,4.968
-73.0,2.0,4.969
-89.0,5.0,4.97
-93.0,-4.0,4.971
-101.0,-11.0,4.972
-119.0,-11.0,4.973
-125.0,-12.0,4.974
-95.0,-16.0,4.975
-63.0,-23.0,4.976
-24.0,-40.0,4.977
9.0,-55.0,4.978
4.0,-52.0,4.979
-45.0,-21.0,4.98
-108.0,17.0,4.981
-108.0,40.0,4.982
-30.0,33.0,4.983
33.0,7.0,4.984
9.0,-14.0,4.985
-42.0,-16.0,4.986
-12.0,-2.0,4.987
74.0,16.0,4.988
123.0,24.0,4.989
127.0,22.0,4.99
160.0,17.0,4.991
202.0,20.0,4.992
153.0,23.0,4.993
20.0,18.0,4.994
-64.0,6.0,4.995
-45.0,-3.0,4.996
-14.0,-7.0,4.997
-40.0,-10.0,4.998
-92.0,-8.0,4.999
-131.0,-1.0,5.0
-172.0,0.0,5.001
-214.0,-13.0,5.002
-196.0,-33.0,5.003
-104.0,-37.0,5.004
-10.0,-22.0,5.005
45.0,-4.0,5.006
109.0,3.0,5.007
207.0,12.0,5.008
272.0,24.0,5.009
236.0,23.0,5.01
133.0,3.0,5.011
53.0,-12.0,5.012
29.0,-10.0,5.013
24.0,-3.0,5.014
11.0,-12.0,5.015
9.0,-26.0,5.016
51.0,-15.0,5.017
125.0,21.0,5.018
141.0,59.0,5.019
45.0,61.0,5.02
-82.0,26.0,5.021
-109.0,-5.0,5.022
-40.0,-7.0,5.023
-19.0,6.0,5.024
-110.0,6.0,5.025
-204.0,-5.0,5.026
-184.0,-10.0,5.027
-91.0,-8.0,5.028
-30.0,-20.0,5.029
-9.0,-38.0,5.03
19.0,-36.0,5.031
21.0,-17.0,5.032
-46.0,-5.0,5.033
-118.0,-9.0,5.034
-89.0,-19.0,5.035
27.0,-18.0,5.036
117.0,-6.0,5.037
140.0,6.0,5.038
147.0,17.0,5.039
153.0,27.0,5.04
105.0,33.0,5.041
19.0,38.0,5.042
-7.0,32.0,5.043
52.0,3.0,5.044
85.0,-29.0,5.045
7.0,-37.0,5.046
-116.0,-22.0,5.047
-178.0,-16.0,5.048
-152.0,-27.0,5.049
-76.0,-30.0,5.05
5.0,-15.0,5.051
47.0,0.0,5.052
-1.0,2.0,5.053
-113.0,-2.0,5.054
-173.0,-1.0,5.055
-102.0,-6.0,5.056
47.0,-10.0,5.057
203.0,-3.0,5.058
312.0,16.0,5.059
342.0,29.0,5.06
257.0,29.0,5.061
80.0,34.0,5.062
-68.0,45.0,5.063
-91.0,43.0,5.064
-59.0,23.0,5.065
-84.0,1.0,5.066
-141.0,-14.0,5.067
-124.0,-25.0,5.068
-49.0,-32.0,5.069
-28.0,-27.0,5.07
-57.0,-13.0,5.071
-39.0,-2.0,5.072
29.0,0.0,5.073
43.0,0.0,5.074
-16.0,-1.0,5.075
-48.0,0.0,5.076
-16.0,2.0,5.077
13.0,5.0,5.078
-8.0,5.0,5.079
-38.0,1.0,5.08
-39.0,-6.0,5.081
-33.0,-9.0,5.082
-35.0,-9.0,5.083
-19.0,-4.0,5.084
4.0,0.0,5.085
1.0,0.0,5.086
-14.0,-9.0,5.087
-5.0,-12.0,5.088
22.0,16.0,5.089
34.0,76.0,5.09
38.0,115.0,5.091
52.0,87.0,5.092
65.0,11.0,5.093
66.0,-47.0,5.094
68.0,-62.0,5.095
71.0,-66.0,5.096
44.0,-80.0,5.097
-42.0,-91.0,5.098
-135.0,-76.0,5.099
-162.0,-53.0,5.1
-103.0,-47.0,5.101
-1.0,-45.0,5.102
83.0,-27.0,5.103
99.0,-3.0,5.104
44.0,9.0,5.105
-20.0,18.0,5.106
-13.0,25.0,5.107
58.0,16.0,5.108
99.0,-8.0,5.109
69.0,-18.0,5.11
31.0,0.0,5.111
38.0,29.0,5.112
65.0,47.0,5.113
85.0,57.0,5.114
133.0,65.0,5.115
192.0,62.0,5.116
182.0,55.0,5.117
65.0,50.0,5.118
-63.0,49.0,5.119
-125.0,29.0,5.12
-154.0,-9.0,5.121
-182.0,-30.0,5.122
-170.0,-21.0,5.123
-106.0,-9.0,5.124
-56.0,-18.0,5.125
-44.0,-38.0,5.126
-15.0,-48.0,5.127
26.0,-42.0,5.128
18.0,-30.0,5.129
-22.0,-14.0,5.13
-4.0,2.0,5.131
57.0,7.0,5.132
54.0,0.0,5.133
-5.0,-3.0,5.134
2.0,9.0,5.135
79.0,26.0,5.136
94.0,29.0,5.137
-4.0,13.0,5.138
-101.0,-7.0,5.139
-110.0,-22.0,5.14
-96.0,-32.0,5.141
-118.0,-36.0,5.142
-120.0,-36.0,5.143
-65.0,-33.0,5.144
-28.0,-26.0,5.145
-47.0,-8.0,5.146
-29.0,19.0,5.147
77.0,54.0,5.148
167.0,74.0,5.149
142.0,64.0,5.15
67.0,30.0,5.151
61.0,5.0,5.152
109.0,8.0,5.153
122.0,14.0,5.154
91.0,-1.0,5.155
68.0,-25.0,5.156
67.0,-25.0,5.157
55.0,-2.0,5.158
31.0,20.0,5.159
5.0,25.0,5.16
-36.0,17.0,5.161
-82.0,7.0,5.162
-83.0,-7.0,5.163
-31.0,-15.0,5.164
-3.0,-5.0,5.165
-46.0,13.0,5.166
-102.0,18.0,5.167
-110.0,3.0,5.168
-90.0,-10.0,5.169
-77.0,-15.0,5.17
-48.0,-15.0,5.171
12.0,-15.0,5.172
76.0,-7.0,5.173
111.0,7.0,5.174
113.0,14.0,5.175
86.0,10.0,5.176
41.0,6.0,5.177
-3.0,2.0,5.178
-14.0,-1.0,5.179
-14.0,-9.0,5.18
-32.0,-18.0,5.181
-54.0,-23.0,5.182
-46.0,-26.0,5.183
-27.0,-30.0,5.184
-32.0,-31.0,5.185
-47.0,-27.0,5.186
-31.0,-18.0,5.187
9.0,-5.0,5.188
39.0,9.0,5.189
52.0,22.0,5.19
67.0,29.0,5.191
71.0,30.0,5.192
39.0,21.0,5.193
-15.0,6.0,5.194
-50.0,-7.0,5.195
-46.0,-10.0,5.196
-17.0,-1.0,5.197
13.0,8.0,5.198
33.0,9.0,5.199
34.0,2.0,5.2
17.0,-6.0,5.201
-1.0,-10.0,5.202
-4.0,-14.0,5.203
2.0,-13.0,5.204
4.0,-8.0,5.205
-6.0,-2.0,5.206
-33.0,4.0,5.207
-74.0,19.0,5.208
-115.0,47.0,5.209
-120.0,70.0,5.21
-73.0,56.0,5.211
-2.0,11.0,5.212
46.0,-24.0,5.213
55.0,-26.0,5.214
21.0,-18.0,5.215
-39.0,-39.0,5.216
-85.0,-72.0,5.217
-79.0,-84.0,5.218
-12.0,-65.0,5.219
75.0,-50.0,5.22
164.0,-65.0,5.221
265.0,-80.0,5.222
351.0,-58.0,5.223
342.0,-6.0,5.224
216.0,50.0,5.225
74.0,92.0,5.226
10.0,111.0,5.227
11.0,97.0,5.228
2.0,61.0,5.229
-44.0,38.0,5.23
-104.0,37.0,5.231
-141.0,31.0,5.232
-135.0,2.0,5.233
-101.0,-19.0,5.234
-73.0,-10.0,5.235
-73.0,6.0,5.236
-90.0,3.0,5.237
-127.0,-10.0,5.238
-217.0,-12.0,5.239
-370.0,-12.0,5.24
-495.0,-32.0,5.241
-448.0,-58.0,5.242
-185.0,-74.0,5.243
165.0,-74.0,5.244
420.0,-51.0,5.245
509.0,6.0,5.246
489.0,78.0,5.247
423.0,113.0,5.248
319.0,85.0,5.249
192.0,38.0,5.25
98.0,19.0,5.251
49.0,23.0,5.252
0.0,13.0,5.253
-61.0,-10.0,5.254
-94.0,-16.0,5.255
-84.0,-6.0,5.256
-76.0,-4.0,5.257
-95.0,-19.0,5.258
-108.0,-25.0,5.259
-95.0,-16.0,5.26
-90.0,-12.0,5.261
-109.0,-19.0,5.262
-114.0,-23.0,5.263
-86.0,-14.0,5.264
-58.0,-3.0,5.265
-46.0,-4.0,5.266
-25.0,-7.0,5.267
8.0,-7.0,5.268
18.0,-3.0,5.269
-9.0,0.0,5.27
-33.0,0.0,5.271
-30.0,-2.0,5.272
-15.0,-6.0,5.273
-5.0,1.0,5.274
16.0,33.0,5.275
51.0,73.0,5.276
69.0,86.0,5.277
50.0,51.0,5.278
21.0,-5.0,5.279
10.0,-48.0,5.28
9.0,-65.0,5.281
4.0,-65.0,5.282
2.0,-61.0,5.283
17.0,-50.0,5.284
30.0,-34.0,5.285
27.0,-22.0,5.286
10.0,-21.0,5.287
-10.0,-26.0,5.288
-31.0,-27.0,5.289
-45.0,-22.0,5.29
-29.0,-11.0,5.291
13.0,0.0,5.292
49.0,8.0,5.293
59.0,12.0,5.294
55.0,22.0,5.295
45.0,31.0,5.296
11.0,38.0,5.297
-65.0,32.0,5.298
-151.0,15.0,5.299
-205.0,-2.0,5.3
-211.0,-16.0,5.301
-177.0,-20.0,5.302
-114.0,-14.0,5.303
-22.0,-9.0,5.304
91.0,-8.0,5.305
219.0,-8.0,5.306
334.0,-5.0,5.307
382.0,0.0,5.308
327.0,6.0,5.309
196.0,33.0,5.31
73.0,80.0,5.311
28.0,118.0,5.312
65.0,101.0,5.313
117.0,45.0,5.314
111.0,4.0,5.315
41.0,5.0,5.316
-24.0,13.0,5.317
-42.0,-10.0,5.318
-35.0,-40.0,5.319
-48.0,-41.0,5.32
-67.0,-30.0,5.321
-64.0,-24.0,5.322
-79.0,-22.0,5.323
-166.0,-12.0,5.324
-275.0,0.0,5.325
-283.0,5.0,5.326
-172.0,5.0,5.327
-51.0,6.0,5.328
-9.0,1.0,5.329
-20.0,-6.0,5.33
-38.0,-9.0,5.331
-81.0,-6.0,5.332
-194.0,-5.0,5.333
-360.0,-15.0,5.334
-473.0,-31.0,5.335
-396.0,-49.0,5.336
-117.0,-65.0,5.337
271.0,-78.0,5.338
558.0,-69.0,5.339
642.0,-27.0,5.34
597.0,46.0,5.341
490.0,122.0,5.342
311.0,144.0,5.343
87.0,94.0,5.344
-44.0,21.0,5.345
-34.0,-8.0,5.346
1.0,7.0,5.347
-46.0,16.0,5.348
-113.0,-7.0,5.349
-104.0,-27.0,5.35
-51.0,-17.0,5.351
-44.0,-3.0,5.352
-66.0,-11.0,5.353
-55.0,-27.0,5.354
-30.0,-25.0,5.355
-42.0,-15.0,5.356
-66.0,-18.0,5.357
-64.0,-30.0,5.358
-46.0,-28.0,5.359
-54.0,-13.0,5.36
-75.0,-6.0,5.361
-67.0,-6.0,5.362
-38.0,-7.0,5.363
-24.0,-9.0,5.364
-26.0,-10.0,5.365
-19.0,-7.0,5.366
-4.0,0.0,5.367
0.0,3.0,5.368
-2.0,5.0,5.369
2.0,17.0,5.37
9.0,37.0,5.371
8.0,48.0,5.372
6.0,44.0,5.373
10.0,29.0,5.374
15.0,12.0,5.375
10.0,-6.0,5.376
7.0,-19.0,5.377
1.0,-25.0,5.378
-11.0,-22.0,5.379
-29.0,-17.0,5.38
-26.0,-16.0,5.381
4.0,-14.0,5.382
44.0,-13.0,5.383
69.0,-17.0,5.384
79.0,-20.0,5.385
81.0,-10.0,5.386
74.0,8.0,5.387
61.0,20.0,5.388
58.0,15.0,5.389
67.0,-1.0,5.39
72.0,-17.0,5.391
52.0,-27.0,5.392
14.0,-32.0,5.393
-26.0,-32.0,5.394
-76.0,-28.0,5.395
-136.0,-23.0,5.396
-177.0,-16.0,5.397
-169.0,-7.0,5.398
-117.0,8.0,5.399
-67.0,20.0,5.4
-39.0,23.0,5.401
-3.0,28.0,5.402
63.0,36.0,5.403
116.0,43.0,5.404
102.0,43.0,5.405
23.0,35.0,5.406
-62.0,23.0,5.407
-113.0,7.0,5.408
-118.0,-9.0,5.409
-78.0,-19.0,5.41
-12.0,-28.0,5.411
38.0,-47.0,5.412
62.0,-71.0,5.413
118.0,-80.0,5.414
249.0,-57.0,5.415
371.0,-9.0,5.416
346.0,34.0,5.417
135.0,47.0,5.418
-114.0,29.0,5.419
-241.0,-1.0,5.42
-206.0,-21.0,5.421
-88.0,-18.0,5.422
22.0,-9.0,5.423
77.0,-6.0,5.424
86.0,-2.0,5.425
94.0,20.0,5.426
114.0,58.0,5.427
96.0,80.0,5.428
21.0,65.0,5.429
-46.0,28.0,5.43
-54.0,3.0,5.431
-39.0,2.0,5.432
-49.0,5.0,5.433
-58.0,-3.0,5.434
-32.0,-8.0,5.435
-7.0,1.0,5.436
-25.0,20.0,5.437
-58.0,23.0,5.438
-52.0,10.0,5.439
-34.0,0.0,5.44
-58.0,-1.0,5.441
-102.0,-8.0,5.442
-93.0,-28.0,5.443
-31.0,-37.0,5.444
20.0,-20.0,5.445
35.0,-2.0,5.446
49.0,-2.0,5.447
67.0,-11.0,5.448
52.0,-6.0,5.449
-7.0,7.0,5.45
-50.0,8.0,5.451
-38.0,-4.0,5.452
-3.0,-12.0,5.453
9.0,-5.0,5.454
-2.0,10.0,5.455
-16.0,18.0,5.456
-25.0,15.0,5.457
-18.0,-2.0,5.458
27.0,-23.0,5.459
73.0,-36.0,5.46
119.0,-35.0,5.461
145.0,-18.0,5.462
110.0,5.0,5.463
48.0,30.0,5.464
-93.0,43.0,5.465
-194.0,38.0,5.466
-168.0,21.0,5.467
-124.0,8.0,5.468
-28.0,5.0,5.469
45.0,-1.0,5.47
51.0,-12.0,5.471
56.0,-15.0,5.472
53.0,1.0,5.473
35.0,18.0,5.474
-22.0,18.0,5.475
-82.0,0.0,5.476
-145.0,-14.0,5.477
-206.0,-27.0,5.478
-216.0,-38.0,5.479
-116.0,-53.0,5.48
36.0,-66.0,5.481
154.0,-66.0,5.482
229.0,-44.0,5.483
275.0,0.0,5.484
251.0,41.0,5.485
120.0,47.0,5.486
-29.0,15.0,5.487
-54.0,-16.0,5.488
79.0,-16.0,5.489
226.0,7.0,5.49
230.0,34.0,5.491
97.0,62.0,5.492
-34.0,77.0,5.493
-64.0,55.0,5.494
-42.0,3.0,5.495
-54.0,-30.0,5.496
-99.0,-22.0,5.497
-126.0,-1.0,5.498
-130.0,0.0,5.499
-156.0,-19.0,5.5
-198.0,-36.0,5.501
-193.0,-35.0,5.502
-120.0,-24.0,5.503
-15.0,-6.0,5.504
89.0,4.0,5.505
168.0,-7.0,5.506
180.0,-21.0,5.507
127.0,-7.0,5.508
83.0,32.0,5.509
92.0,53.0,5.51
88.0,38.0,5.511
13.0,14.0,5.512
-68.0,9.0,5.513
-72.0,8.0,5.514
-31.0,-7.0,5.515
-26.0,-20.0,5.516
-43.0,-14.0,5.517
-32.0,-3.0,5.518
-5.0,-8.0,5.519
-17.0,-21.0,5.52
-62.0,-24.0,5.521
-96.0,-14.0,5.522
-107.0,-8.0,5.523
-112.0,-11.0,5.524
-101.0,-12.0,5.525
-48.0,-13.0,5.526
34.0,-12.0,5.527
122.0,-7.0,5.528
190.0,8.0,5.529
217.0,21.0,5.53
177.0,21.0,5.531
90.0,17.0,5.532
18.0,15.0,5.533
-4.0,14.0,5.534
-6.0,7.0,5.535
-20.0,-2.0,5.536
-38.0,-4.0,5.537
-45.0,-3.0,5.538
-34.0,-2.0,5.539
-29.0,-5.0,5.54
-37.0,-11.0,5.541
-46.0,-13.0,5.542
-41.0,-16.0,5.543
-21.0,-20.0,5.544
10.0,-23.0,5.545
39.0,-22.0,5.546
34.0,-19.0,5.547
-14.0,-11.0,5.548
-78.0,3.0,5.549
-101.0,20.0,5.55
-61.0,34.0,5.551
10.0,43.0,5.552
63.0,44.0,5.553
75.0,39.0,5.554
48.0,22.0,5.555
0.0,-1.0,5.556
-38.0,-12.0,5.557
-54.0,-10.0,5.558
-43.0,1.0,5.559
-20.0,3.0,5.56
-7.0,-9.0,5.561
-5.0,-17.0,5.562
3.0,-15.0,5.563
28.0,-12.0,5.564
58.0,-17.0,5.565
65.0,-25.0,5.566
41.0,-25.0,5.567
13.0,-22.0,5.568
11.0,-19.0,5.569
41.0,-10.0,5.57
92.0,15.0,5.571
141.0,46.0,5.572
146.0,59.0,5.573
73.0,40.0,5.574
-35.0,4.0,5.575
-86.0,-17.0,5.576
-45.0,-18.0,5.577
23.0,-10.0,5.578
29.0,-7.0,5.579
-42.0,-6.0,5.58
-114.0,-10.0,5.581
-100.0,-15.0,5.582
10.0,-22.0,5.583
131.0,-26.0,5.584
138.0,-24.0,5.585
-2.0,-14.0,5.586
-178.0,0.0,5.587
-254.0,19.0,5.588
-207.0,38.0,5.589
-90.0,45.0,5.59
54.0,36.0,5.591
180.0,23.0,5.592
204.0,15.0,5.593
101.0,10.0,5.594
-19.0,1.0,5.595
-44.0,-7.0,5.596
-1.0,-7.0,5.597
16.0,-2.0,5.598
-13.0,0.0,5.599
-26.0,-4.0,5.6
-12.0,-11.0,5.601
-8.0,-13.0,5.602
-21.0,-9.0,5.603
-15.0,-8.0,5.604
4.0,-10.0,5.605
3.0,-12.0,5.606
-15.0,-11.0,5.607
-22.0,-8.0,5.608
-22.0,-5.0,5.609
-28.0,-1.0,5.61
-21.0,-2.0,5.611
20.0,-4.0,5.612
69.0,-7.0,5.613
88.0,-5.0,5.614
73.0,-6.0,5.615
47.0,-8.0,5.616
19.0,-8.0,5.617
-13.0,-6.0,5.618
-27.0,1.0,5.619
-24.0,6.0,5.62
-22.0,1.0,5.621
-30.0,-4.0,5.622
-31.0,-5.0,5.623
-19.0,-1.0,5.624
-15.0,4.0,5.625
-25.0,9.0,5.626
-21.0,7.0,5.627
0.0,3.0,5.628
14.0,1.0,5.629
5.0,1.0,5.63
-2.0,0.0,5.631
9.0,2.0,5.632
21.0,3.0,5.633
20.0,4.0,5.634
17.0,1.0,5.635
21.0,-2.0,5.636
23.0,-2.0,5.637
20.0,-3.0,5.638
23.0,-5.0,5.639
27.0,-7.0,5.64
10.0,-10.0,5.641
-28.0,-9.0,5.642
-54.0,-8.0,5.643
-37.0,-6.0,5.644
15.0,0.0,5.645
75.0,6.0,5.646
111.0,10.0,5.647
104.0,14.0,5.648
58.0,15.0,5.649
11.0,13.0,5.65
-2.0,7.0,5.651
0.0,2.0,5.652
-27.0,2.0,5.653
-80.0,3.0,5.654
-101.0,3.0,5.655
-60.0,0.0,5.656
-5.0,-2.0,5.657
5.0,-4.0,5.658
-37.0,-6.0,5.659
-99.0,-10.0,5.66
-145.0,-20.0,5.661
-151.0,-28.0,5.662
-114.0,-27.0,5.663
-56.0,-19.0,5.664
-2.0,-8.0,5.665
60.0,-1.0,5.666
158.0,9.0,5.667
265.0,20.0,5.668
302.0,32.0,5.669
243.0,41.0,5.67
150.0,52.0,5.671
82.0,63.0,5.672
18.0,58.0,5.673
-64.0,28.0,5.674
-120.0,-11.0,5.675
-101.0,-28.0,5.676
-40.0,-17.0,5.677
-3.0,-7.0,5.678
-5.0,-16.0,5.679
-16.0,-27.0,5.68
-15.0,-25.0,5.681
-18.0,-15.0,5.682
-30.0,-16.0,5.683
-32.0,-21.0,5.684
-25.0,-16.0,5.685
-38.0,-11.0,5.686
-88.0,-17.0,5.687
-150.0,-26.0,5.688
-168.0,-25.0,5.689
-100.0,-21.0,5.69
31.0,-24.0,5.691
141.0,-27.0,5.692
158.0,-15.0,5.693
97.0,11.0,5.694
27.0,29.0,5.695
-13.0,31.0,5.696
-25.0,21.0,5.697
-20.0,7.0,5.698
0.0,3.0,5.699
10.0,8.0,5.7
2.0,11.0,5.701
8.0,9.0,5.702
43.0,8.0,5.703
63.0,8.0,5.704
32.0,4.0,5.705
-8.0,-5.0,5.706
-2.0,-9.0,5.707
19.0,-6.0,5.708
-6.0,-3.0,5.709
-73.0,-6.0,5.71
-122.0,-5.0,5.711
-134.0,-2.0,5.712
-138.0,-10.0,5.713
-142.0,-28.0,5.714
-126.0,-35.0,5.715
-50.0,-17.0,5.716
92.0,18.0,5.717
286.0,53.0,5.718
409.0,66.0,5.719
331.0,50.0,5.72
96.0,21.0,5.721
-88.0,11.0,5.722
-82.0,22.0,5.723
16.0,23.0,5.724
34.0,4.0,5.725
-40.0,-10.0,5.726
-88.0,-4.0,5.727
-61.0,0.0,5.728
-24.0,-13.0,5.729
-17.0,-28.0,5.73
-21.0,-22.0,5.731
-24.0,-7.0,5.732
-46.0,-8.0,5.733
-85.0,-20.0,5.734
-102.0,-28.0,5.735
-76.0,-28.0,5.736
-19.0,-28.0,5.737
49.0,-19.0,5.738
101.0,4.0,5.739
102.0,27.0,5.74
45.0,27.0,5.741
-16.0,14.0,5.742
-24.0,11.0,5.743
21.0,16.0,5.744
70.0,20.0,5.745
82.0,18.0,5.746
57.0,14.0,5.747
13.0,11.0,5.748
-21.0,9.0,5.749
-31.0,7.0,5.75
-22.0,2.0,5.751
-22.0,-6.0,5.752
-37.0,-17.0,5.753
-54.0,-24.0,5.754
-60.0,-26.0,5.755
-54.0,-29.0,5.756
-26.0,-35.0,5.757
26.0,-45.0,5.758
75.0,-56.0,5.759
75.0,-62.0,5.76
34.0,-64.0,5.761
-10.0,-50.0,5.762
-31.0,-26.0,5.763
-45.0,-5.0,5.764
-56.0,6.0,5.765
-40.0,4.0,5.766
9.0,-4.0,5.767
55.0,-6.0,5.768
62.0,2.0,5.769
54.0,17.0,5.77
67.0,34.0,5.771
64.0,41.0,5.772
-38.0,38.0,5.773
-211.0,28.0,5.774
-295.0,15.0,5.775
-184.0,8.0,5.776
2.0,8.0,5.777
112.0,16.0,5.778
154.0,38.0,5.779
234.0,71.0,5.78
297.0,90.0,5.781
182.0,80.0,5.782
-52.0,52.0,5.783
-128.0,49.0,5.784
20.0,79.0,5.785
133.0,104.0,5.786
47.0,84.0,5.787
-82.0,43.0,5.788
-91.0,14.0,5.789
-53.0,-2.0,5.79
-64.0,-30.0,5.791
-54.0,-75.0,5.792
38.0,-109.0,5.793
109.0,-131.0,5.794
69.0,-154.0,5.795
-18.0,-172.0,5.796
-72.0,-167.0,5.797
-106.0,-132.0,5.798
-128.0,-83.0,5.799
-109.0,-35.0,5.8
-69.0,-3.0,5.801
-77.0,6.0,5.802
-125.0,-4.0,5.803
-130.0,-9.0,5.804
-55.0,6.0,5.805
67.0,27.0,5.806
195.0,34.0,5.807
273.0,36.0,5.808
251.0,47.0,5.809
168.0,60.0,5.81
129.0,61.0,5.811
139.0,50.0,5.812
96.0,39.0,5.813
-7.0,31.0,5.814
-53.0,30.0,5.815
-12.0,38.0,5.816
2.0,48.0,5.817
-65.0,45.0,5.818
-119.0,30.0,5.819
-97.0,16.0,5.82
-67.0,9.0,5.821
-89.0,7.0,5.822
-101.0,1.0,5.823
-55.0,-4.0,5.824
-8.0,-7.0,5.825
-3.0,-10.0,5.826
-7.0,-14.0,5.827
0.0,-15.0,5.828
-14.0,-13.0,5.829
-46.0,-10.0,5.83
-45.0,-3.0,5.831
-10.0,-3.0,5.832
-1.0,-17.0,5.833
-25.0,-37.0,5.834
-38.0,-34.0,5.835
-41.0,-6.0,5.836
-70.0,16.0,5.837
-107.0,6.0,5.838
-85.0,-21.0,5.839
-10.0,-35.0,5.84
37.0,-29.0,5.841
37.0,-17.0,5.842
50.0,-6.0,5.843
101.0,7.0,5.844
147.0,18.0,5.845
163.0,17.0,5.846
154.0,16.0,5.847
89.0,33.0,5.848
-53.0,49.0,5.849
-184.0,36.0,5.85
-156.0,-7.0,5.851
16.0,-39.0,5.852
136.0,-39.0,5.853
103.0,-18.0,5.854
74.0,11.0,5.855
191.0,53.0,5.856
312.0,92.0,5.857
224.0,91.0,5.858
-16.0,44.0,5.859
-147.0,-5.0,5.86
-72.0,-19.0,5.861
24.0,-8.0,5.862
6.0,-10.0,5.863
-43.0,-22.0,5.864
-40.0,-20.0,5.865
-32.0,-13.0,5.866
-65.0,-25.0,5.867
-89.0,-47.0,5.868
-79.0,-52.0,5.869
-99.0,-33.0,5.87
-180.0,-20.0,5.871
-239.0,-21.0,5.872
-184.0,-23.0,5.873
-38.0,-19.0,5.874
111.0,-15.0,5.875
200.0,-15.0,5.876
226.0,-11.0,5.877
193.0,1.0,5.878
110.0,26.0,5.879
-1.0,45.0,5.88
-74.0,41.0,5.881
-58.0,20.0,5.882
3.0,-2.0,5.883
25.0,-8.0,5.884
-2.0,0.0,5.885
-13.0,8.0,5.886
12.0,9.0,5.887
10.0,10.0,5.888
-43.0,17.0,5.889
-97.0,22.0,5.89
-109.0,21.0,5.891
-99.0,16.0,5.892
-87.0,7.0,5.893
-44.0,-7.0,5.894
35.0,-23.0,5.895
103.0,-25.0,5.896
118.0,-15.0,5.897
95.0,-4.0,5.898
69.0,-1.0,5.899
40.0,2.0,5.9
-14.0,1.0,5.901
-94.0,-8.0,5.902
-153.0,-26.0,5.903
-140.0,-39.0,5.904
-68.0,-35.0,5.905
-2.0,-25.0,5.906
16.0,-21.0,5.907
15.0,-17.0,5.908
35.0,-7.0,5.909
61.0,3.0,5.91
63.0,2.0,5.911
67.0,0.0,5.912
107.0,13.0,5.913
157.0,36.0,5.914
161.0,55.0,5.915
128.0,58.0,5.916
105.0,52.0,5.917
83.0,32.0,5.918
29.0,8.0,5.919
-41.0,-6.0,5.92
-69.0,-6.0,5.921
-51.0,-1.0,5.922
-43.0,4.0,5.923
-70.0,15.0,5.924
-99.0,35.0,5.925
-106.0,45.0,5.926
-101.0,32.0,5.927
-98.0,11.0,5.928
-97.0,9.0,5.929
-76.0,13.0,5.93
-18.0,4.0,5.931
60.0,-27.0,5.932
102.0,-61.0,5.933
74.0,-86.0,5.934
2.0,-92.0,5.935
-69.0,-68.0,5.936
-114.0,-30.0,5.937
-116.0,-15.0,5.938
-37.0,-43.0,5.939
90.0,-71.0,5.94
161.0,-55.0,5.941
125.0,-5.0,5.942
65.0,27.0,5.943
67.0,24.0,5.944
96.0,6.0,5.945
84.0,-17.0,5.946
53.0,-43.0,5.947
51.0,-57.0,5.948
53.0,-45.0,5.949
9.0,-30.0,5.95
-41.0,-38.0,5.951
-50.0,-54.0,5.952
-39.0,-51.0,5.953
-54.0,-34.0,5.954
-81.0,-20.0,5.955
-85.0,-8.0,5.956
-64.0,11.0,5.957
-40.0,28.0,5.958
-14.0,32.0,5.959
5.0,38.0,5.96
2.0,57.0,5.961
-15.0,79.0,5.962
-14.0,83.0,5.963
-12.0,72.0,5.964
-56.0,69.0,5.965
-143.0,76.0,5.966
-209.0,84.0,5.967
-208.0,89.0,5.968
-140.0,92.0,5.969
-9.0,87.0,5.97
164.0,72.0,5.971
310.0,56.0,5.972
353.0,58.0,5.973
311.0,77.0,5.974
244.0,87.0,5.975
153.0,70.0,5.976
35.0,43.0,5.977
-65.0,34.0,5.978
-70.0,56.0,5.979
-10.0,75.0,5.98
18.0,56.0,5.981
0.0,9.0,5.982
-1.0,-52.0,5.983
12.0,-123.0,5.984
-23.0,-198.0,5.985
-99.0,-253.0,5.986
-148.0,-273.0,5.987
-149.0,-273.0,5.988
-138.0,-267.0,5.989
-118.0,-237.0,5.99
-65.0,-178.0,5.991
-2.0,-119.0,5.992
27.0,-90.0,5.993
20.0,-74.0,5.994
12.0,-33.0,5.995
29.0,28.0,5.996
76.0,82.0,5.997
147.0,120.0,5.998
198.0,150.0,5.999
177.0,166.0,6.0
94.0,161.0,6.001
15.0,149.0,6.002
-27.0,146.0,6.003
-65.0,144.0,6.004
-111.0,125.0,6.005
-126.0,90.0,6.006
-94.0,60.0,6.007
-62.0,46.0,6.008
-73.0,36.0,6.009
-101.0,12.0,6.01
-104.0,-26.0,6.011
-89.0,-58.0,6.012
-94.0,-64.0,6.013
-135.0,-43.0,6.014
-187.0,-21.0,6.015
-218.0,-23.0,6.016
-210.0,-40.0,6.017
-153.0,-44.0,6.018
-49.0,-21.0,6.019
78.0,0.0,6.02
190.0,-8.0,6.021
284.0,-26.0,6.022
394.0,-12.0,6.023
510.0,52.0,6.024
519.0,144.0,6.025
343.0,213.0,6.026
82.0,205.0,6.027
-86.0,112.0,6.028
-125.0,-7.0,6.029
-141.0,-56.0,6.03
-174.0,-6.0,6.031
-152.0,77.0,6.032
-35.0,96.0,6.033
113.0,21.0,6.034
222.0,-83.0,6.035
265.0,-139.0,6.036
237.0,-128.0,6.037
133.0,-99.0,6.038
1.0,-100.0,6.039
-89.0,-129.0,6.04
-123.0,-136.0,6.041
-127.0,-91.0,6.042
-119.0,-27.0,6.043
-108.0,13.0,6.044
-109.0,40.0,6.045
-125.0,83.0,6.046
-135.0,122.0,6.047
-132.0,103.0,6.048
-133.0,17.0,6.049
-132.0,-80.0,6.05
-109.0,-131.0,6.051
-90.0,-121.0,6.052
-122.0,-66.0,6.053
-166.0,-5.0,6.054
-132.0,4.0,6.055
-2.0,-63.0,6.056
124.0,-134.0,6.057
200.0,-96.0,6.058
250.0,79.0,6.059
291.0,249.0,6.06
273.0,235.0,6.061
161.0,55.0,6.062
38.0,-110.0,6.063
-7.0,-146.0,6.064
0.0,-99.0,6.065
-28.0,-64.0,6.066
-104.0,-49.0,6.067
-156.0,-30.0,6.068
-144.0,-31.0,6.069
-111.0,-84.0,6.07
-97.0,-156.0,6.071
-94.0,-195.0,6.072
-78.0,-181.0,6.073
-73.0,-130.0,6.074
-122.0,-62.0,6.075
-234.0,-8.0,6.076
-342.0,8.0,6.077
-353.0,13.0,6.078
-194.0,48.0,6.079
83.0,100.0,6.08
351.0,122.0,6.081
524.0,135.0,6.082
597.0,195.0,6.083
557.0,281.0,6.084
369.0,288.0,6.085
103.0,191.0,6.086
-81.0,93.0,6.087
-111.0,89.0,6.088
-91.0,162.0,6.089
-114.0,246.0,6.09
-130.0,300.0,6.091
-83.0,272.0,6.092
-47.0,105.0,6.093
-95.0,-138.0,6.094
-161.0,-287.0,6.095
-151.0,-258.0,6.096
-91.0,-145.0,6.097
-46.0,-36.0,6.098
-17.0,71.0,6.099
41.0,163.0,6.1
103.0,105.0,6.101
109.0,-151.0,6.102
75.0,-427.0,6.103
73.0,-483.0,6.104
102.0,-305.0,6.105
113.0,-91.0,6.106
98.0,19.0,6.107
98.0,37.0,6.108
114.0,33.0,6.109
85.0,40.0,6.11
-9.0,60.0,6.111
-109.0,89.0,6.112
-149.0,109.0,6.113
-132.0,118.0,6.114
-98.0,132.0,6.115
-62.0,144.0,6.116
-37.0,128.0,6.117
-50.0,69.0,6.118
-101.0,-1.0,6.119
-146.0,-72.0,6.12
-131.0,-173.0,6.121
-90.0,-293.0,6.122
-101.0,-382.0,6.123
-160.0,-405.0,6.124
-158.0,-388.0,6.125
-35.0,-363.0,6.126
115.0,-317.0,6.127
171.0,-234.0,6.128
159.0,-135.0,6.129
213.0,-46.0,6.13
351.0,36.0,6.131
417.0,131.0,6.132
318.0,221.0,6.133
170.0,268.0,6.134
119.0,270.0,6.135
129.0,270.0,6.136
74.0,286.0,6.137
-61.0,296.0,6.138
-161.0,288.0,6.139
-187.0,284.0,6.14
-215.0,298.0,6.141
-258.0,296.0,6.142
-219.0,234.0,6.143
-83.0,134.0,6.144
18.0,60.0,6.145
1.0,28.0,6.146
-50.0,1.0,6.147
-53.0,-32.0,6.148
-71.0,-46.0,6.149
-172.0,-53.0,6.15
-261.0,-96.0,6.151
-201.0,-172.0,6.152
-27.0,-210.0,6.153
118.0,-165.0,6.154
177.0,-85.0,6.155
185.0,-32.0,6.156
167.0,-13.0,6.157
99.0,-105.0,6.158
-3.0,-121.0,6.159
-106.0,-128.0,6.16
-181.0,-110.0,6.161
-181.0,-98.0,6.162
-47.0,-98.0,6.163
182.0,-89.0,6.164
365.0,-53.0,6.165
411.0,-15.0,6.166
357.0,34.0,6.167
251.0,63.0,6.168
94.0,31.0,6.169
-65.0,10.0,6.17
-136.0,22.0,6.171
-123.0,37.0,6.172
-122.0,64.0,6.173
-152.0,61.0,6.174
-141.0,-33.0,6.175
-75.0,-110.0,6.176
-32.0,-142.0,6.177
-48.0,-152.0,6.178
-86.0,-178.0,6.179
-127.0,-191.0,6.18
-173.0,-161.0,6.181
-190.0,-139.0,6.182
-116.0,-139.0,6.183
-59.0,-124.0,6.184
-49.0,-63.0,6.185
-37.0,3.0,6.186
-19.0,85.0,6.187
5.0,134.0,6.188
49.0,80.0,6.189
94.0,45.0,6.19
140.0,65.0,6.191
175.0,91.0,6.192
176.0,136.0,6.193
178.0,131.0,6.194
184.0,-28.0,6.195
169.0,-161.0,6.196
88.0,-215.0,6.197
-1.0,-222.0,6.198
-53.0,-89.0,6.199
-12.0,-25.0,6.2
-1.0,-44.0,6.201
-70.0,-59.0,6.202
-108.0,-35.0,6.203
-58.0,-16.0,6.204
-27.0,-32.0,6.205
-85.0,-44.0,6.206
-148.0,-24.0,6.207
-126.0,1.0,6.208
-55.0,12.0,6.209
7.0,30.0,6.21
75.0,67.0,6.211
145.0,104.0,6.212
149.0,123.0,6.213
60.0,134.0,6.214
-56.0,144.0,6.215
-120.0,134.0,6.216
-115.0,96.0,6.217
-41.0,39.0,6.218
43.0,-6.0,6.219
87.0,-25.0,6.22
67.0,-26.0,6.221
14.0,-23.0,6.222
-40.0,-30.0,6.223
-81.0,-45.0,6.224
-86.0,-54.0,6.225
-21.0,-55.0,6.226
83.0,-54.0,6.227
149.0,-52.0,6.228
150.0,-35.0,6.229
126.0,-2.0,6.23
106.0,30.0,6.231
76.0,47.0,6.232
37.0,54.0,6.233
6.0,61.0,6.234
-32.0,70.0,6.235
-103.0,84.0,6.236
-166.0,97.0,6.237
-165.0,174.0,6.238
-89.0,159.0,6.239
7.0,133.0,6.24
92.0,84.0,6.241
171.0,42.0,6.242
207.0,27.0,6.243
134.0,13.0,6.244
-21.0,5.0,6.245
-134.0,-2.0,6.246
-125.0,9.0,6.247
-54.0,23.0,6.248
-17.0,38.0,6.249
-27.0,42.0,6.25
-46.0,5.0,6.251
-59.0,-29.0,6.252
-71.0,-48.0,6.253
-69.0,-67.0,6.254
-40.0,-70.0,6.255
-1.0,-78.0,6.256
21.0,-78.0,6.257
16.0,58.0,6.258
-9.0,54.0,6.259
-32.0,47.0,6.26
-48.0,34.0,6.261
-54.0,23.0,6.262
-27.0,19.0,6.263
-4.0,15.0,6.264
8.0,13.0,6.265
31.0,11.0,6.266
87.0,14.0,6.267
120.0,18.0,6.268
82.0,22.0,6.269
58.0,23.0,6.27
76.0,13.0,6.271
83.0,4.0,6.272
53.0,-1.0,6.273
22.0,-6.0,6.274
-14.0,-7.0,6.275
-60.0,-9.0,6.276
-139.0,-9.0,6.277
-218.0,-8.0,6.278
-263.0,-5.0,6.279
-215.0,-6.0,6.28
-65.0,-15.0,6.281
118.0,-17.0,6.282
232.0,-10.0,6.283
243.0,0.0,6.284
235.0,8.0,6.285
270.0,10.0,6.286
280.0,7.0,6.287
187.0,0.0,6.288
49.0,2.0,6.289
-38.0,14.0,6.29
-95.0,20.0,6.291
-185.0,0.0,6.292
-244.0,-35.0,6.293
-167.0,-42.0,6.294
-4.0,-13.0,6.295
80.0,14.0,6.296
40.0,11.0,6.297
-29.0,-6.0,6.298
-37.0,-4.0,6.299
-22.0,14.0,6.3
-48.0,18.0,6.301
-98.0,12.0,6.302
-122.0,12.0,6.303
-115.0,12.0,6.304
-110.0,3.0,6.305
-106.0,-11.0,6.306
-73.0,-15.0,6.307
-8.0,-12.0,6.308
38.0,-19.0,6.309
31.0,-30.0,6.31
2.0,-32.0,6.311
10.0,-23.0,6.312
54.0,-11.0,6.313
89.0,-4.0,6.314
102.0,0.0,6.315
112.0,5.0,6.316
118.0,4.0,6.317
103.0,0.0,6.318
97.0,2.0,6.319
105.0,3.0,6.32
157.0,-2.0,6.321
172.0,-7.0,6.322
77.0,-11.0,6.323
-6.0,-12.0,6.324
-52.0,-5.0,6.325
-81.0,2.0,6.326
-57.0,13.0,6.327
-44.0,24.0,6.328
-66.0,34.0,6.329
-85.0,37.0,6.33
-93.0,14.0,6.331
-93.0,-4.0,6.332
-71.0,-5.0,6.333
-51.0,-6.0,6.334
-38.0,-8.0,6.335
-28.0,-9.0,6.336
-29.0,-6.0,6.337
-37.0,-3.0,6.338
-64.0,-8.0,6.339
-62.0,-9.0,6.34
-32.0,-8.0,6.341
-8.0,-6.0,6.342
-4.0,-11.0,6.343
5.0,-12.0,6.344
37.0,-4.0,6.345
76.0,0.0,6.346
102.0,0.0,6.347
117.0,0.0,6.348
118.0,14.0,6.349
90.0,26.0,6.35
38.0,18.0,6.351
-3.0,-2.0,6.352
-11.0,-9.0,6.353
-16.0,3.0,6.354
-58.0,21.0,6.355
-125.0,18.0,6.356
-161.0,-3.0,6.357
-141.0,-29.0,6.358
-79.0,-27.0,6.359
-3.0,-2.0,6.36
71.0,19.0,6.361
126.0,22.0,6.362
128.0,12.0,6.363
77.0,2.0,6.364
24.0,-8.0,6.365
14.0,-19.0,6.366
22.0,-22.0,6.367
5.0,-16.0,6.368
-20.0,-14.0,6.369
16.0,-16.0,6.37
133.0,-7.0,6.371
257.0,16.0,6.372
298.0,38.0,6.373
228.0,39.0,6.374
99.0,23.0,6.375
-17.0,6.0,6.376
-78.0,0.0,6.377
-96.0,0.0,6.378
-99.0,0.0,6.379
-103.0,-6.0,6.38
-98.0,-17.0,6.381
-64.0,-18.0,6.382
-18.0,-9.0,6.383
-5.0,-4.0,6.384
-37.0,-9.0,6.385
-75.0,-15.0,6.386
-79.0,-14.0,6.387
-61.0,-8.0,6.388
-62.0,-5.0,6.389
-88.0,-4.0,6.39
-112.0,-4.0,6.391
-126.0,-10.0,6.392
-149.0,-23.0,6.393
-156.0,-32.0,6.394
-75.0,-23.0,6.395
112.0,7.0,6.396
277.0,45.0,6.397
273.0,57.0,6.398
91.0,33.0,6.399
-88.0,-3.0,6.4
-106.0,-13.0,6.401
-27.0,10.0,6.402
-8.0,27.0,6.403
-57.0,10.0,6.404
-42.0,-12.0,6.405
64.0,-11.0,6.406
132.0,-2.0,6.407
85.0,-11.0,6.408
28.0,-33.0,6.409
75.0,-43.0,6.41
160.0,-36.0,6.411
143.0,-26.0,6.412
17.0,-24.0,6.413
-93.0,-22.0,6.414
-115.0,-15.0,6.415
-92.0,-3.0,6.416
-71.0,3.0,6.417
-39.0,-6.0,6.418
13.0,-17.0,6.419
36.0,-12.0,6.42
-6.0,8.0,6.421
-69.0,24.0,6.422
-60.0,25.0,6.423
37.0,21.0,6.424
143.0,24.0,6.425
175.0,26.0,6.426
144.0,18.0,6.427
105.0,15.0,6.428
62.0,23.0,6.429
-23.0,24.0,6.43
-134.0,8.0,6.431
-185.0,-11.0,6.432
-125.0,-18.0,6.433
-20.0,-14.0,6.434
41.0,-8.0,6.435
48.0,1.0,6.436
53.0,19.0,6.437
54.0,36.0,6.438
0.0,40.0,6.439
-131.0,26.0,6.44
-268.0,1.0,6.441
-320.0,-16.0,6.442
-280.0,-27.0,6.443
-199.0,-37.0,6.444
-106.0,-47.0,6.445
33.0,-53.0,6.446
242.0,-41.0,6.447
448.0,-10.0,6.448
522.0,26.0,6.449
416.0,35.0,6.45
217.0,3.0,6.451
49.0,-36.0,6.452
-53.0,-43.0,6.453
-118.0,-19.0,6.454
-158.0,2.0,6.455
-169.0,7.0,6.456
-175.0,9.0,6.457
-195.0,19.0,6.458
-198.0,24.0,6.459
-152.0,14.0,6.46
-87.0,-1.0,6.461
-40.0,-5.0,6.462
9.0,-3.0,6.463
84.0,0.0,6.464
157.0,12.0,6.465
193.0,35.0,6.466
182.0,50.0,6.467
102.0,40.0,6.468
-56.0,14.0,6.469
-190.0,-10.0,6.47
-170.0,-21.0,6.471
-43.0,-29.0,6.472
33.0,-36.0,6.473
63.0,-31.0,6.474
203.0,3.0,6.475
411.0,60.0,6.476
432.0,98.0,6.477
229.0,85.0,6.478
-64.0,33.0,6.479
-145.0,-9.0,6.48
-53.0,-15.0,6.481
-23.0,2.0,6.482
-86.0,7.0,6.483
-104.0,-6.0,6.484
-63.0,-21.0,6.485
-73.0,-33.0,6.486
-131.0,-48.0,6.487
-119.0,-59.0,6.488
-30.0,-53.0,6.489
33.0,-34.0,6.49
19.0,-26.0,6.491
-12.0,-34.0,6.492
-11.0,-34.0,6.493
3.0,-11.0,6.494
-17.0,19.0,6.495
-85.0,28.0,6.496
-159.0,13.0,6.497
-173.0,0.0,6.498
-113.0,1.0,6.499
-75.0,8.0,6.5
-111.0,10.0,6.501
-167.0,15.0,6.502
-172.0,23.0,6.503
-120.0,15.0,6.504
-18.0,-6.0,6.505
138.0,-17.0,6.506
307.0,-6.0,6.507
388.0,14.0,6.508
350.0,32.0,6.509
264.0,47.0,6.51
192.0,50.0,6.511
144.0,27.0,6.512
130.0,-3.0,6.513
149.0,-4.0,6.514
129.0,27.0,6.515
7.0,44.0,6.516
-155.0,25.0,6.517
-280.0,-13.0,6.518
-343.0,-34.0,6.519
-352.0,-38.0,6.52
-272.0,-45.0,6.521
-102.0,-60.0,6.522
54.0,-78.0,6.523
117.0,-83.0,6.524
163.0,-51.0,6.525
259.0,13.0,6.526
300.0,53.0,6.527
181.0,27.0,6.528
3.0,-23.0,6.529
-57.0,-28.0,6.53
-11.0,21.0,6.531
-7.0,69.0,6.532
-101.0,79.0,6.533
-254.0,60.0,6.534
-442.0,35.0,6.535
-618.0,14.0,6.536
-641.0,0.0,6.537
-371.0,-16.0,6.538
121.0,-38.0,6.539
610.0,-49.0,6.54
912.0,-18.0,6.541
934.0,47.0,6.542
650.0,82.0,6.543
199.0,51.0,6.544
-117.0,-3.0,6.545
-129.0,-18.0,6.546
-10.0,-3.0,6.547
-18.0,-3.0,6.548
-128.0,-20.0,6.549
-160.0,-29.0,6.55
-113.0,-24.0,6.551
-138.0,-23.0,6.552
-233.0,-30.0,6.553
-246.0,-34.0,6.554
-147.0,-32.0,6.555
-66.0,-37.0,6.556
-57.0,-42.0,6.557
-72.0,-38.0,6.558
-79.0,-29.0,6.559
-103.0,-29.0,6.56
-127.0,-37.0,6.561
-98.0,-30.0,6.562
-37.0,-14.0,6.563
17.0,2.0,6.564
85.0,29.0,6.565
172.0,85.0,6.566
188.0,145.0,6.567
76.0,151.0,6.568
-46.0,87.0,6.569
-47.0,18.0,6.57
12.0,-3.0,6.571
0.0,9.0,6.572
-62.0,2.0,6.573
-66.0,-32.0,6.574
-26.0,-60.0,6.575
-22.0,-64.0,6.576
-31.0,-55.0,6.577
4.0,-39.0,6.578
16.0,-20.0,6.579
-21.0,-9.0,6.58
-205.0,-24.0,6.581
-320.0,-37.0,6.582
-229.0,-43.0,6.583
-85.0,-45.0,6.584
220.0,-35.0,6.585
492.0,-14.0,6.586
660.0,39.0,6.587
703.0,86.0,6.588
366.0,116.0,6.589
80.0,128.0,6.59
-52.0,85.0,6.591
-140.0,45.0,6.592
-94.0,18.0,6.593
-59.0,-7.0,6.594
-59.0,-23.0,6.595
-58.0,-36.0,6.596
-55.0,-42.0,6.597
-65.0,-53.0,6.598
-100.0,-80.0,6.599
-58.0,-83.0,6.6
20.0,-62.0,6.601
6.0,-38.0,6.602
-126.0,-30.0,6.603
-250.0,-33.0,6.604
-252.0,-34.0,6.605
-162.0,-33.0,6.606
-61.0,-24.0,6.607
36.0,4.0,6.608
140.0,51.0,6.609
202.0,88.0,6.61
178.0,86.0,6.611
111.0,37.0,6.612
70.0,-21.0,6.613
50.0,-34.0,6.614
1.0,7.0,6.615
-68.0,50.0,6.616
-105.0,44.0,6.617
-105.0,1.0,6.618
-103.0,-17.0,6.619
-129.0,0.0,6.62
-189.0,9.0,6.621
-295.0,-10.0,6.622
-411.0,-28.0,6.623
-408.0,-27.0,6.624
-169.0,-18.0,6.625
225.0,-17.0,6.626
531.0,-5.0,6.627
595.0,28.0,6.628
479.0,62.0,6.629
323.0,71.0,6.63
187.0,53.0,6.631
55.0,27.0,6.632
-66.0,2.0,6.633
-136.0,-11.0,6.634
-132.0,-15.0,6.635
-75.0,-19.0,6.636
-21.0,-25.0,6.637
-8.0,-28.0,6.638
-39.0,-15.0,6.639
-106.0,0.0,6.64
-217.0,-2.0,6.641
-331.0,-23.0,6.642
-329.0,-47.0,6.643
-153.0,-63.0,6.644
58.0,-59.0,6.645
144.0,-26.0,6.646
131.0,26.0,6.647
141.0,65.0,6.648
166.0,53.0,6.649
137.0,9.0,6.65
108.0,-7.0,6.651
139.0,25.0,6.652
131.0,55.0,6.653
-2.0,33.0,6.654
-135.0,-15.0,6.655
-119.0,-32.0,6.656
-34.0,-11.0,6.657
-4.0,11.0,6.658
15.0,25.0,6.659
105.0,36.0,6.66
172.0,35.0,6.661
101.0,29.0,6.662
-13.0,8.0,6.663
-30.0,-4.0,6.664
8.0,12.0,6.665
-1.0,26.0,6.666
-27.0,30.0,6.667
-18.0,31.0,6.668
-27.0,19.0,6.669
-79.0,4.0,6.67
-78.0,-18.0,6.671
13.0,-36.0,6.672
85.0,-40.0,6.673
51.0,-50.0,6.674
-41.0,-79.0,6.675
-140.0,-98.0,6.676
-226.0,-87.0,6.677
-240.0,-78.0,6.678
-89.0,-82.0,6.679
151.0,-74.0,6.68
267.0,-46.0,6.681
179.0,-10.0,6.682
6.0,11.0,6.683
-139.0,7.0,6.684
-233.0,-17.0,6.685
-219.0,-41.0,6.686
-52.0,-45.0,6.687
163.0,-24.0,6.688
262.0,14.0,6.689
242.0,58.0,6.69
204.0,87.0,6.691
139.0,76.0,6.692
-2.0,29.0,6.693
-122.0,0.0,6.694
-99.0,18.0,6.695
-30.0,54.0,6.696
-92.0,58.0,6.697
-263.0,20.0,6.698
-317.0,-15.0,6.699
-172.0,-25.0,6.7
28.0,-17.0,6.701
174.0,17.0,6.702
287.0,84.0,6.703
341.0,145.0,6.704
245.0,139.0,6.705
62.0,61.0,6.706
1.0,-14.0,6.707
107.0,-25.0,6.708
161.0,6.0,6.709
31.0,13.0,6.71
-125.0,-26.0,6.711
-130.0,-66.0,6.712
-50.0,-64.0,6.713
-41.0,-40.0,6.714
-80.0,-33.0,6.715
-67.0,-46.0,6.716
-25.0,-46.0,6.717
-42.0,-21.0,6.718
-98.0,7.0,6.719
-109.0,6.0,6.72
-71.0,-15.0,6.721
-40.0,-15.0,6.722
-11.0,27.0,6.723
43.0,74.0,6.724
76.0,82.0,6.725
40.0,51.0,6.726
-11.0,18.0,6.727
-3.0,10.0,6.728
36.0,14.0,6.729
42.0,7.0,6.73
17.0,-17.0,6.731
-3.0,-46.0,6.732
-25.0,-72.0,6.733
-62.0,-92.0,6.734
-76.0,-95.0,6.735
-36.0,-80.0,6.736
15.0,-55.0,6.737
42.0,-36.0,6.738
51.0,-28.0,6.739
49.0,-24.0,6.74
24.0,-20.0,6.741
-21.0,-18.0,6.742
-59.0,-13.0,6.743
-103.0,1.0,6.744
-184.0,24.0,6.745
-257.0,33.0,6.746
-232.0,21.0,6.747
-123.0,4.0,6.748
-37.0,-1.0,6.749
3.0,-2.0,6.75
88.0,-12.0,6.751
244.0,-29.0,6.752
376.0,-27.0,6.753
413.0,9.0,6.754
388.0,72.0,6.755
328.0,134.0,6.756
218.0,157.0,6.757
88.0,138.0,6.758
21.0,89.0,6.759
-35.0,43.0,6.76
-59.0,15.0,6.761
-78.0,1.0,6.762
-82.0,-8.0,6.763
-86.0,-11.0,6.764
-85.0,-7.0,6.765
-95.0,-1.0,6.766
-139.0,4.0,6.767
-153.0,5.0,6.768
-74.0,1.0,6.769
-4.0,-4.0,6.77
41.0,-2.0,6.771
71.0,16.0,6.772
51.0,36.0,6.773
26.0,37.0,6.774
-11.0,14.0,6.775
-38.0,-18.0,6.776
-34.0,-41.0,6.777
-24.0,-64.0,6.778
-3.0,-86.0,6.779
-5.0,-105.0,6.78
-29.0,-111.0,6.781
-48.0,-92.0,6.782
-45.0,-55.0,6.783
-35.0,-26.0,6.784
-29.0,-20.0,6.785
-22.0,-25.0,6.786
-12.0,-19.0,6.787
-8.0,0.0,6.788
-8.0,16.0,6.789
0.0,14.0,6.79
6.0,-1.0,6.791
-14.0,-8.0,6.792
-53.0,7.0,6.793
-85.0,36.0,6.794
-113.0,52.0,6.795
-153.0,46.0,6.796
-183.0,32.0,6.797
-148.0,20.0,6.798
-32.0,17.0,6.799
110.0,13.0,6.8
214.0,-1.0,6.801
270.0,-9.0,6.802
293.0,-5.0,6.803
266.0,7.0,6.804
172.0,2.0,6.805
48.0,-22.0,6.806
-23.0,-44.0,6.807
-22.0,-37.0,6.808
-20.0,-15.0,6.809
-69.0,-10.0,6.81
-123.0,-24.0,6.811
-108.0,-29.0,6.812
-25.0,-8.0,6.813
65.0,22.0,6.814
128.0,51.0,6.815
159.0,88.0,6.816
134.0,128.0,6.817
33.0,132.0,6.818
-78.0,90.0,6.819
-113.0,53.0,6.82
-93.0,29.0,6.821
-118.0,3.0,6.822
-198.0,-25.0,6.823
-221.0,-49.0,6.824
-113.0,-64.0,6.825
51.0,-70.0,6.826
162.0,-48.0,6.827
190.0,-20.0,6.828
152.0,24.0,6.829
50.0,59.0,6.83
-90.0,71.0,6.831
-197.0,69.0,6.832
-227.0,26.0,6.833
-188.0,-12.0,6.834
-84.0,-32.0,6.835
89.0,-48.0,6.836
266.0,-47.0,6.837
364.0,-46.0,6.838
347.0,-44.0,6.839
256.0,-43.0,6.84
136.0,-55.0,6.841
12.0,-77.0,6.842
-61.0,-85.0,6.843
-60.0,-66.0,6.844
-54.0,-34.0,6.845
-107.0,-13.0,6.846
-171.0,4.0,6.847
-154.0,36.0,6.848
-78.0,69.0,6.849
-27.0,74.0,6.85
-26.0,52.0,6.851
-33.0,31.0,6.852
-39.0,27.0,6.853
-52.0,32.0,6.854
-57.0,33.0,6.855
-47.0,23.0,6.856
-68.0,7.0,6.857
-146.0,-3.0,6.858
-206.0,2.0,6.859
-155.0,1.0,6.86
7.0,-38.0,6.861
189.0,-91.0,6.862
317.0,-104.0,6.863
360.0,-53.0,6.864
300.0,19.0,6.865
149.0,62.0,6.866
-8.0,70.0,6.867
-71.0,67.0,6.868
-36.0,68.0,6.869
-3.0,66.0,6.87
-33.0,53.0,6.871
-74.0,24.0,6.872
-63.0,-25.0,6.873
-28.0,-88.0,6.874
-25.0,-135.0,6.875
-42.0,-139.0,6.876
-37.0,-102.0,6.877
-13.0,-58.0,6.878
-7.0,-38.0,6.879
-23.0,-42.0,6.88
-31.0,-49.0,6.881
-30.0,-34.0,6.882
-38.0,7.0,6.883
-61.0,52.0,6.884
-88.0,68.0,6.885
-109.0,40.0,6.886
-104.0,1.0,6.887
-44.0,-4.0,6.888
55.0,27.0,6.889
123.0,54.0,6.89
121.0,52.0,6.891
90.0,38.0,6.892
82.0,36.0,6.893
90.0,39.0,6.894
68.0,21.0,6.895
31.0,-29.0,6.896
26.0,-87.0,6.897
48.0,-120.0,6.898
42.0,-100.0,6.899
-38.0,-67.0,6.9
-157.0,2.0,6.901
-234.0,65.0,6.902
-203.0,107.0,6.903
-71.0,144.0,6.904
95.0,164.0,6.905
221.0,167.0,6.906
266.0,119.0,6.907
210.0,73.0,6.908
59.0,39.0,6.909
-115.0,4.0,6.91
-214.0,-33.0,6.911
-202.0,-64.0,6.912
-113.0,-76.0,6.913
27.0,-73.0,6.914
206.0,-22.0,6.915
328.0,20.0,6.916
296.0,37.0,6.917
141.0,37.0,6.918
31.0,-36.0,6.919
32.0,-109.0,6.92
52.0,-126.0,6.921
12.0,-111.0,6.922
-39.0,-137.0,6.923
-68.0,-206.0,6.924
-105.0,-235.0,6.925
-139.0,-186.0,6.926
-105.0,-123.0,6.927
-32.0,-108.0,6.928
-18.0,-101.0,6.929
-63.0,-44.0,6.93
-82.0,42.0,6.931
-59.0,100.0,6.932
-51.0,122.0,6.933
-56.0,141.0,6.934
-26.0,161.0,6.935
14.0,166.0,6.936
15.0,162.0,6.937
-3.0,148.0,6.938
6.0,113.0,6.939
10.0,54.0,6.94
-36.0,12.0,6.941
-79.0,48.0,6.942
-52.0,152.0,6.943
-12.0,262.0,6.944
-36.0,317.0,6.945
-73.0,295.0,6.946
-31.0,206.0,6.947
57.0,100.0,6.948
107.0,35.0,6.949
132.0,25.0,6.95
180.0,7.0,6.951
195.0,-58.0,6.952
102.0,-130.0,6.953
-27.0,-164.0,6.954
-67.0,-200.0,6.955
-46.0,-296.0,6.956
-73.0,-408.0,6.957
-146.0,-457.0,6.958
-132.0,-424.0,6.959
-7.0,-364.0,6.96
96.0,-297.0,6.961
102.0,-192.0,6.962
77.0,-63.0,6.963
57.0,15.0,6.964
-44.0,35.0,6.965
-254.0,72.0,6.966
-407.0,168.0,6.967
-330.0,251.0,6.968
-72.0,233.0,6.969
167.0,124.0,6.97
287.0,34.0,6.971
326.0,64.0,6.972
293.0,198.0,6.973
136.0,310.0,6.974
-79.0,298.0,6.975
-146.0,197.0,6.976
-1.0,119.0,6.977
185.0,84.0,6.978
200.0,36.0,6.979
78.0,-57.0,6.98
2.0,-150.0,6.981
4.0,-183.0,6.982
-22.0,-178.0,6.983
-76.0,-161.0,6.984
-79.0,-126.0,6.985
-70.0,-82.0,6.986
-150.0,-66.0,6.987
-260.0,-76.0,6.988
-228.0,-64.0,6.989
-54.0,-26.0,6.99
71.0,-7.0,6.991
71.0,-9.0,6.992
73.0,25.0,6.993
168.0,116.0,6.994
271.0,212.0,6.995
273.0,277.0,6.996
181.0,317.0,6.997
15.0,316.0,6.998
-168.0,250.0,6.999
-252.0,143.0,7.0
-143.0,68.0,7.001
61.0,39.0,7.002
178.0,-18.0,7.003
194.0,-123.0,7.004
217.0,-198.0,7.005
225.0,-189.0,7.006
110.0,-145.0,7.007
-70.0,-146.0,7.008
-131.0,-201.0,7.009
-70.0,-268.0,7.01
-50.0,-306.0,7.011
-114.0,-289.0,7.012
-150.0,-210.0,7.013
-134.0,-106.0,7.014
-153.0,-41.0,7.015
-192.0,-24.0,7.016
-163.0,-11.0,7.017
-78.0,27.0,7.018
-53.0,72.0,7.019
-77.0,93.0,7.02
-26.0,104.0,7.021
103.0,165.0,7.022
177.0,309.0,7.023
142.0,495.0,7.024
87.0,589.0,7.025
49.0,474.0,7.026
-16.0,195.0,7.027
-98.0,-42.0,7.028
-103.0,-122.0,7.029
-13.0,-144.0,7.03
77.0,-230.0,7.031
106.0,-316.0,7.032
88.0,-274.0,7.033
52.0,-147.0,7.034
14.0,-89.0,7.035
2.0,-134.0,7.036
22.0,-183.0,7.037
24.0,-183.0,7.038
-13.0,-160.0,7.039
-42.0,-142.0,7.04
-43.0,-118.0,7.041
-47.0,-80.0,7.042
-57.0,-32.0,7.043
-70.0,33.0,7.044
-88.0,117.0,7.045
-104.0,177.0,7.046
-109.0,169.0,7.047
-106.0,119.0,7.048
-72.0,78.0,7.049
-47.0,56.0,7.05
-47.0,36.0,7.051
-39.0,18.0,7.052
-7.0,20.0,7.053
49.0,39.0,7.054
177.0,52.0,7.055
278.0,58.0,7.056
298.0,74.0,7.057
303.0,114.0,7.058
257.0,153.0,7.059
198.0,135.0,7.06
77.0,28.0,7.061
-76.0,-126.0,7.062
-143.0,-253.0,7.063
-91.0,-299.0,7.064
-55.0,-282.0,7.065
-125.0,-238.0,7.066
-195.0,-181.0,7.067
-144.0,-109.0,7.068
-22.0,-36.0,7.069
61.0,16.0,7.07
113.0,62.0,7.071
167.0,121.0,7.072
160.0,174.0,7.073
52.0,183.0,7.074
-56.0,147.0,7.075
-69.0,113.0,7.076
-53.0,100.0,7.077
-109.0,88.0,7.078
-184.0,70.0,7.079
-168.0,63.0,7.08
-79.0,75.0,7.081
-8.0,95.0,7.082
41.0,98.0,7.083
105.0,81.0,7.084
110.0,48.0,7.085
-5.0,-2.0,7.086
-125.0,-64.0,7.087
-86.0,-113.0,7.088
70.0,-128.0,7.089
166.0,-97.0,7.09
151.0,-36.0,7.091
123.0,28.0,7.092
114.0,67.0,7.093
71.0,62.0,7.094
25.0,10.0,7.095
58.0,-68.0,7.096
106.0,-120.0,7.097
39.0,-105.0,7.098
-114.0,-29.0,7.099
-175.0,55.0,7.1
-107.0,122.0,7.101
-63.0,189.0,7.102
-99.0,204.0,7.103
-101.0,74.0,7.104
-31.0,-147.0,7.105
-23.0,-259.0,7.106
-138.0,-162.0,7.107
-242.0,-8.0,7.108
-206.0,10.0,7.109
-87.0,-75.0,7.11
20.0,-108.0,7.111
117.0,-66.0,7.112
230.0,-39.0,7.113
303.0,-53.0,7.114
265.0,-34.0,7.115
144.0,40.0,7.116
33.0,112.0,7.117
-39.0,137.0,7.118
-73.0,104.0,7.119
-79.0,0.0,7.12
-61.0,-148.0,7.121
-32.0,-247.0,7.122
-10.0,-228.0,7.123
3.0,-138.0,7.124
21.0,-70.0,7.125
49.0,-36.0,7.126
79.0,7.0,7.127
89.0,60.0,7.128
59.0,93.0,7.129
0.0,110.0,7.13
-52.0,129.0,7.131
-67.0,131.0,7.132
-43.0,92.0,7.133
-6.0,53.0,7.134
16.0,64.0,7.135
-3.0,98.0,7.136
-59.0,102.0,7.137
-120.0,75.0,7.138
-144.0,60.0,7.139
-152.0,57.0,7.14
-184.0,20.0,7.141
-227.0,-57.0,7.142
-204.0,-132.0,7.143
-81.0,-169.0,7.144
74.0,-166.0,7.145
183.0,-133.0,7.146
256.0,-76.0,7.147
316.0,-8.0,7.148
303.0,53.0,7.149
169.0,99.0,7.15
24.0,128.0,7.151
34.0,140.0,7.152
167.0,138.0,7.153
212.0,130.0,7.154
97.0,113.0,7.155
-32.0,70.0,7.156
-56.0,11.0,7.157
-43.0,-55.0,7.158
-69.0,-108.0,7.159
-89.0,-145.0,7.16
-56.0,-158.0,7.161
-51.0,-131.0,7.162
-120.0,-79.0,7.163
-163.0,-46.0,7.164
-95.0,-37.0,7.165
-2.0,-24.0,7.166
1.0,-6.0,7.167
-49.0,-14.0,7.168
-54.0,-47.0,7.169
-20.0,-52.0,7.17
-10.0,-10.0,7.171
-16.0,29.0,7.172
19.0,31.0,7.173
71.0,21.0,7.174
56.0,32.0,7.175
-31.0,40.0,7.176
-98.0,31.0,7.177
-78.0,14.0,7.178
13.0,20.0,7.179
100.0,24.0,7.18
159.0,-1.0,7.181
195.0,-28.0,7.182
190.0,-12.0,7.183
121.0,42.0,7.184
7.0,96.0,7.185
-78.0,116.0,7.186
-84.0,103.0,7.187
-23.0,72.0,7.188
58.0,47.0,7.189
111.0,44.0,7.19
105.0,47.0,7.191
47.0,35.0,7.192
-27.0,12.0,7.193
-77.0,-1.0,7.194
-92.0,-7.0,7.195
-92.0,-29.0,7.196
-95.0,-63.0,7.197
-107.0,-84.0,7.198
-127.0,-76.0,7.199
-143.0,-69.0,7.2
-122.0,-65.0,7.201
-41.0,-57.0,7.202
71.0,-41.0,7.203
139.0,-27.0,7.204
119.0,-22.0,7.205
54.0,-14.0,7.206
11.0,2.0,7.207
7.0,17.0,7.208
-4.0,25.0,7.209
-54.0,33.0,7.21
-125.0,38.0,7.211
-173.0,39.0,7.212
-171.0,23.0,7.213
-119.0,8.0,7.214
-33.0,1.0,7.215
51.0,-9.0,7.216
95.0,-26.0,7.217
87.0,-46.0,7.218
56.0,-58.0,7.219
48.0,-40.0,7.22
81.0,-11.0,7.221
127.0,10.0,7.222
160.0,13.0,7.223
182.0,7.0,7.224
193.0,7.0,7.225
170.0,12.0,7.226
93.0,18.0,7.227
-13.0,18.0,7.228
-96.0,9.0,7.229
-121.0,-18.0,7.23
-92.0,-58.0,7.231
-46.0,-83.0,7.232
-22.0,-75.0,7.233
-23.0,-42.0,7.234
-38.0,-6.0,7.235
-67.0,20.0,7.236
-110.0,36.0,7.237
-140.0,36.0,7.238
-94.0,17.0,7.239
20.0,-2.0,7.24
114.0,-12.0,7.241
137.0,-8.0,7.242
131.0,8.0,7.243
125.0,32.0,7.244
72.0,42.0,7.245
-33.0,24.0,7.246
-90.0,-3.0,7.247
-40.0,-7.0,7.248
20.0,10.0,7.249
-7.0,16.0,7.25
-71.0,7.0,7.251
-73.0,8.0,7.252
-31.0,22.0,7.253
-21.0,21.0,7.254
-28.0,5.0,7.255
-5.0,-2.0,7.256
26.0,4.0,7.257
12.0,4.0,7.258
-29.0,0.0,7.259
-48.0,9.0,7.26
-43.0,21.0,7.261
-52.0,14.0,7.262
-62.0,-5.0,7.263
-38.0,-7.0,7.264
7.0,6.0,7.265
26.0,4.0,7.266
13.0,-16.0,7.267
1.0,-23.0,7.268
1.0,-2.0,7.269
-22.0,15.0,7.27
-75.0,1.0,7.271
-99.0,-27.0,7.272
-27.0,-35.0,7.273
106.0,-16.0,7.274
192.0,1.0,7.275
182.0,2.0,7.276
136.0,0.0,7.277
127.0,-4.0,7.278
154.0,-3.0,7.279
155.0,-1.0,7.28
105.0,0.0,7.281
36.0,1.0,7.282
-26.0,0.0,7.283
-58.0,0.0,7.284
-46.0,0.0,7.285
0.0,-2.0,7.286
28.0,-8.0,7.287
15.0,-14.0,7.288
-13.0,-21.0,7.289
-22.0,-24.0,7.29
-20.0,-17.0,7.291
-20.0,-6.0,7.292
-21.0,19.0,7.293
-25.0,37.0,7.294
-57.0,30.0,7.295
-107.0,20.0,7.296
-135.0,2.0,7.297
-124.0,-9.0,7.298
-96.0,-7.0,7.299
-64.0,-4.0,7.3
-21.0,1.0,7.301
20.0,4.0,7.302
15.0,1.0,7.303
-47.0,-1.0,7.304
-112.0,-1.0,7.305
-119.0,-5.0,7.306
-71.0,-17.0,7.307
-1.0,-29.0,7.308
66.0,-43.0,7.309
119.0,-50.0,7.31
140.0,-36.0,7.311
136.0,-13.0,7.312
134.0,40.0,7.313
141.0,76.0,7.314
113.0,62.0,7.315
24.0,42.0,7.316
-59.0,6.0,7.317
-77.0,-19.0,7.318
-41.0,-3.0,7.319
-25.0,4.0,7.32
-56.0,-13.0,7.321
-91.0,-25.0,7.322
-105.0,-19.0,7.323
-119.0,-13.0,7.324
-122.0,-15.0,7.325
-62.0,-16.0,7.326
59.0,-8.0,7.327
159.0,-1.0,7.328
175.0,1.0,7.329
138.0,9.0,7.33
110.0,23.0,7.331
77.0,26.0,7.332
-1.0,10.0,7.333
-97.0,-4.0,7.334
-119.0,-9.0,7.335
-51.0,-10.0,7.336
22.0,-14.0,7.337
51.0,-16.0,7.338
53.0,-10.0,7.339
57.0,0.0,7.34
32.0,4.0,7.341
-31.0,12.0,7.342
-53.0,23.0,7.343
13.0,32.0,7.344
88.0,30.0,7.345
69.0,16.0,7.346
-3.0,3.0,7.347
-22.0,4.0,7.348
21.0,16.0,7.349
42.0,18.0,7.35
16.0,3.0,7.351
1.0,-11.0,7.352
29.0,-5.0,7.353
49.0,8.0,7.354
27.0,6.0,7.355
1.0,-9.0,7.356
8.0,-13.0,7.357
25.0,-6.0,7.358
17.0,1.0,7.359
-19.0,-3.0,7.36
-51.0,-12.0,7.361
-66.0,-15.0,7.362
-59.0,-12.0,7.363
-36.0,-7.0,7.364
-16.0,-2.0,7.365
-12.0,0.0,7.366
-20.0,-6.0,7.367
-23.0,-17.0,7.368
-27.0,-25.0,7.369
-38.0,-30.0,7.37
-44.0,-33.0,7.371
-33.0,-32.0,7.372
-27.0,-27.0,7.373
-53.0,-16.0,7.374
-94.0,-5.0,7.375
-97.0,4.0,7.376
-41.0,11.0,7.377
31.0,11.0,7.378
42.0,4.0,7.379
-25.0,-5.0,7.38
-87.0,-11.0,7.381
-53.0,-12.0,7.382
