Deltoid,Bicep,Time
23.0,-22.0,0.0
24.0,-23.0,0.001
48.0,-11.0,0.002
88.0,10.0,0.003
96.0,22.0,0.004
53.0,17.0,0.005
8.0,11.0,0.006
11.0,10.0,0.007
33.0,15.0,0.008
8.0,13.0,0.009
-59.0,2.0,0.01
-90.0,-6.0,0.011
-54.0,-10.0,0.012
-4.0,-9.0,0.013
7.0,-9.0,0.014
0.0,-14.0,0.015
13.0,-14.0,0.016
31.0,-11.0,0.017
27.0,-7.0,0.018
29.0,-3.0,0.019
62.0,6.0,0.02
106.0,21.0,0.021
106.0,33.0,0.022
62.0,30.0,0.023
16.0,17.0,0.024
-5.0,8.0,0.025
-18.0,1.0,0.026
-33.0,-6.0,0.027
-47.0,-11.0,0.028
-55.0,-8.0,0.029
-57.0,-2.0,0.03
-52.0,-2.0,0.031
-39.0,-7.0,0.032
-21.0,-9.0,0.033
-5.0,-9.0,0.034
0.0,-11.0,0.035
-5.0,-11.0,0.036
-6.0,-8.0,0.037
3.0,-8.0,0.038
18.0,-7.0,0.039
8.0,-5.0,0.04
-32.0,-6.0,0.041
-72.0,-8.0,0.042
-98.0,-10.0,0.043
-121.0,-6.0,0.044
-132.0,-1.0,0.045
-85.0,-6.0,0.046
23.0,-17.0,0.047
114.0,-20.0,0.048
130.0,-9.0,0.049
112.0,10.0,0.05
126.0,27.0,0.051
146.0,32.0,0.052
118.0,22.0,0.053
64.0,7.0,0.054
57.0,4.0,0.055
91.0,11.0,0.056
90.0,13.0,0.057
32.0,1.0,0.058
-20.0,-6.0,0.059
-57.0,-11.0,0.06
-49.0,-6.0,0.061
-45.0,-2.0,0.062
-57.0,-1.0,0.063
-75.0,0.0,0.064
-112.0,0.0,0.065
-128.0,-1.0,0.066
-77.0,-5.0,0.067
-21.0,-8.0,0.068
47.0,-6.0,0.069
102.0,-5.0,0.07
116.0,-6.0,0.071
120.0,-6.0,0.072
87.0,-4.0,0.073
50.0,-3.0,0.074
4.0,-8.0,0.075
-33.0,-8.0,0.076
-44.0,6.0,0.077
-47.0,20.0,0.078
-27.0,19.0,0.079
-21.0,13.0,0.08
-36.0,5.0,0.081
-49.0,-2.0,0.082
-44.0,-7.0,0.083
-26.0,-7.0,0.084
-17.0,-3.0,0.085
-18.0,-4.0,0.086
-23.0,-11.0,0.087
-31.0,-14.0,0.088
-36.0,-7.0,0.089
-26.0,4.0,0.09
-4.0,10.0,0.091
0.0,5.0,0.092
-24.0,-6.0,0.093
-55.0,-11.0,0.094
-59.0,-11.0,0.095
-30.0,-6.0,0.096
11.0,-3.0,0.097
49.0,-5.0,0.098
81.0,-1.0,0.099
105.0,7.0,0.1
115.0,14.0,0.101
96.0,16.0,0.102
49.0,7.0,0.103
4.0,-1.0,0.104
-11.0,-2.0,0.105
-5.0,1.0,0.106
-8.0,2.0,0.107
-21.0,-6.0,0.108
-17.0,-11.0,0.109
12.0,-10.0,0.11
44.0,-6.0,0.111
64.0,1.0,0.112
71.0,10.0,0.113
53.0,16.0,0.114
0.0,11.0,0.115
-65.0,1.0,0.116
-99.0,-3.0,0.117
-95.0,0.0,0.118
-78.0,1.0,0.119
-58.0,-10.0,0.12
-22.0,-21.0,0.121
35.0,-15.0,0.122
85.0,2.0,0.123
106.0,16.0,0.124
105.0,20.0,0.125
88.0,14.0,0.126
56.0,5.0,0.127
25.0,-3.0,0.128
17.0,-2.0,0.129
25.0,3.0,0.13
25.0,3.0,0.131
8.0,-4.0,0.132
-4.0,-10.0,0.133
-7.0,-11.0,0.134
-24.0,-3.0,0.135
-67.0,7.0,0.136
-98.0,12.0,0.137
-84.0,1.0,0.138
-34.0,-15.0,0.139
4.0,-21.0,0.14
16.0,-16.0,0.141
15.0,-9.0,0.142
18.0,-7.0,0.143
13.0,-4.0,0.144
-8.0,6.0,0.145
-25.0,10.0,0.146
-16.0,5.0,0.147
8.0,1.0,0.148
11.0,4.0,0.149
-10.0,3.0,0.15
-26.0,-4.0,0.151
-22.0,-4.0,0.152
-18.0,11.0,0.153
-32.0,19.0,0.154
-51.0,4.0,0.155
-56.0,-22.0,0.156
-48.0,-38.0,0.157
-38.0,-38.0,0.158
-14.0,-29.0,0.159
22.0,-12.0,0.16
40.0,8.0,0.161
17.0,27.0,0.162
-21.0,32.0,0.163
-42.0,26.0,0.164
-47.0,14.0,0.165
-36.0,4.0,0.166
14.0,2.0,0.167
104.0,8.0,0.168
167.0,13.0,0.169
144.0,8.0,0.17
76.0,-6.0,0.171
41.0,-12.0,0.172
45.0,-3.0,0.173
31.0,10.0,0.174
-6.0,9.0,0.175
-15.0,1.0,0.176
16.0,1.0,0.177
36.0,8.0,0.178
12.0,8.0,0.179
-31.0,-5.0,0.18
-53.0,-20.0,0.181
-57.0,-23.0,0.182
-64.0,-21.0,0.183
-75.0,-19.0,0.184
-76.0,-13.0,0.185
-59.0,0.0,0.186
-25.0,10.0,0.187
16.0,7.0,0.188
47.0,0.0,0.189
53.0,-4.0,0.19
48.0,-3.0,0.191
50.0,0.0,0.192
45.0,6.0,0.193
13.0,7.0,0.194
-18.0,-1.0,0.195
2.0,-9.0,0.196
64.0,-5.0,0.197
100.0,1.0,0.198
74.0,7.0,0.199
30.0,7.0,0.2
24.0,5.0,0.201
38.0,4.0,0.202
22.0,-2.0,0.203
-16.0,-6.0,0.204
-33.0,-1.0,0.205
-27.0,4.0,0.206
-33.0,2.0,0.207
-55.0,-1.0,0.208
-65.0,3.0,0.209
-52.0,7.0,0.21
-41.0,-4.0,0.211
-51.0,-23.0,0.212
-65.0,-33.0,0.213
-61.0,-23.0,0.214
-37.0,-2.0,0.215
-13.0,12.0,0.216
-5.0,14.0,0.217
-17.0,6.0,0.218
-16.0,1.0,0.219
11.0,6.0,0.22
48.0,9.0,0.221
71.0,5.0,0.222
87.0,-3.0,0.223
115.0,-2.0,0.224
132.0,7.0,0.225
101.0,12.0,0.226
40.0,4.0,0.227
1.0,-4.0,0.228
-7.0,-2.0,0.229
-28.0,7.0,0.23
-73.0,7.0,0.231
-103.0,-3.0,0.232
-84.0,-11.0,0.233
-36.0,-12.0,0.234
2.0,-7.0,0.235
28.0,-4.0,0.236
50.0,-2.0,0.237
68.0,3.0,0.238
61.0,16.0,0.239
19.0,26.0,0.24
-29.0,14.0,0.241
-45.0,-6.0,0.242
-12.0,-16.0,0.243
33.0,-10.0,0.244
43.0,-1.0,0.245
11.0,-4.0,0.246
-25.0,-10.0,0.247
-41.0,-9.0,0.248
-49.0,0.0,0.249
-58.0,7.0,0.25
-51.0,10.0,0.251
-27.0,11.0,0.252
-15.0,4.0,0.253
-25.0,-8.0,0.254
-34.0,-14.0,0.255
-19.0,-9.0,0.256
5.0,0.0,0.257
20.0,0.0,0.258
28.0,-6.0,0.259
39.0,-7.0,0.26
47.0,-5.0,0.261
42.0,-2.0,0.262
35.0,-3.0,0.263
33.0,0.0,0.264
32.0,6.0,0.265
21.0,8.0,0.266
6.0,5.0,0.267
1.0,-1.0,0.268
2.0,-5.0,0.269
0.0,-7.0,0.27
-3.0,-7.0,0.271
2.0,-4.0,0.272
8.0,3.0,0.273
-4.0,6.0,0.274
-30.0,3.0,0.275
-49.0,-4.0,0.276
-44.0,-6.0,0.277
-23.0,-5.0,0.278
-6.0,-4.0,0.279
-1.0,-5.0,0.28
11.0,-10.0,0.281
32.0,-7.0,0.282
45.0,-3.0,0.283
26.0,0.0,0.284
-3.0,3.0,0.285
-3.0,8.0,0.286
36.0,12.0,0.287
73.0,13.0,0.288
75.0,11.0,0.289
52.0,8.0,0.29
29.0,5.0,0.291
12.0,-1.0,0.292
-3.0,-6.0,0.293
-17.0,-7.0,0.294
-20.0,-5.0,0.295
-17.0,-2.0,0.296
-15.0,0.0,0.297
-16.0,0.0,0.298
-18.0,-2.0,0.299
-22.0,-8.0,0.3
-30.0,-16.0,0.301
-32.0,-11.0,0.302
-24.0,-2.0,0.303
-13.0,2.0,0.304
-8.0,3.0,0.305
-8.0,6.0,0.306
-3.0,9.0,0.307
0.0,7.0,0.308
-2.0,3.0,0.309
-4.0,1.0,0.31
8.0,0.0,0.311
27.0,-6.0,0.312
25.0,-10.0,0.313
0.0,-10.0,0.314
-15.0,-8.0,0.315
1.0,-4.0,0.316
29.0,3.0,0.317
45.0,8.0,0.318
51.0,6.0,0.319
52.0,1.0,0.32
42.0,-2.0,0.321
15.0,2.0,0.322
-6.0,5.0,0.323
-3.0,0.0,0.324
5.0,-8.0,0.325
-3.0,-11.0,0.326
-17.0,-7.0,0.327
-15.0,2.0,0.328
-10.0,11.0,0.329
-29.0,7.0,0.33
-57.0,-7.0,0.331
-59.0,-16.0,0.332
-30.0,-7.0,0.333
1.0,9.0,0.334
17.0,11.0,0.335
26.0,1.0,0.336
38.0,-4.0,0.337
42.0,-3.0,0.338
32.0,0.0,0.339
13.0,-1.0,0.34
-3.0,-3.0,0.341
-8.0,1.0,0.342
-1.0,5.0,0.343
6.0,1.0,0.344
2.0,-1.0,0.345
-14.0,0.0,0.346
-25.0,1.0,0.347
-25.0,0.0,0.348
-20.0,1.0,0.349
-14.0,4.0,0.35
-4.0,1.0,0.351
10.0,-4.0,0.352
23.0,-7.0,0.353
27.0,-4.0,0.354
26.0,-1.0,0.355
26.0,0.0,0.356
26.0,7.0,0.357
19.0,10.0,0.358
11.0,5.0,0.359
3.0,-6.0,0.36
0.0,-11.0,0.361
-3.0,-3.0,0.362
-3.0,2.0,0.363
-5.0,0.0,0.364
-12.0,5.0,0.365
-16.0,16.0,0.366
-7.0,17.0,0.367
0.0,0.0,0.368
1.0,-13.0,0.369
-1.0,-13.0,0.37
-16.0,-11.0,0.371
-27.0,-14.0,0.372
-23.0,-13.0,0.373
-13.0,-5.0,0.374
8.0,-3.0,0.375
28.0,-10.0,0.376
38.0,-13.0,0.377
47.0,-3.0,0.378
48.0,10.0,0.379
33.0,12.0,0.38
10.0,1.0,0.381
-1.0,-6.0,0.382
4.0,-2.0,0.383
11.0,5.0,0.384
5.0,6.0,0.385
-7.0,4.0,0.386
-11.0,0.0,0.387
-5.0,-1.0,0.388
-4.0,-1.0,0.389
-7.0,2.0,0.39
-7.0,8.0,0.391
-4.0,9.0,0.392
-3.0,3.0,0.393
-6.0,-5.0,0.394
-9.0,-7.0,0.395
-11.0,-7.0,0.396
-9.0,-6.0,0.397
-7.0,-6.0,0.398
-4.0,-5.0,0.399
-3.0,-3.0,0.4
-4.0,-6.0,0.401
-2.0,-7.0,0.402
6.0,-1.0,0.403
13.0,6.0,0.404
11.0,6.0,0.405
4.0,2.0,0.406
4.0,0.0,0.407
8.0,0.0,0.408
7.0,-2.0,0.409
2.0,-3.0,0.41
0.0,-3.0,0.411
4.0,-4.0,0.412
5.0,-6.0,0.413
3.0,-3.0,0.414
2.0,4.0,0.415
4.0,7.0,0.416
5.0,4.0,0.417
3.0,-2.0,0.418
1.0,-2.0,0.419
0.0,-1.0,0.42
-1.0,-1.0,0.421
0.0,-1.0,0.422
5.0,-2.0,0.423
10.0,-3.0,0.424
10.0,-1.0,0.425
8.0,0.0,0.426
6.0,-1.0,0.427
5.0,-3.0,0.428
7.0,-3.0,0.429
9.0,-2.0,0.43
7.0,-1.0,0.431
5.0,0.0,0.432
5.0,2.0,0.433
4.0,4.0,0.434
5.0,4.0,0.435
7.0,5.0,0.436
7.0,3.0,0.437
7.0,2.0,0.438
6.0,1.0,0.439
3.0,-1.0,0.44
-3.0,-6.0,0.441
-10.0,-4.0,0.442
-16.0,-8.0,0.443
-18.0,-17.0,0.444
-13.0,-16.0,0.445
-2.0,-3.0,0.446
6.0,9.0,0.447
8.0,6.0,0.448
3.0,-1.0,0.449
3.0,0.0,0.45
8.0,3.0,0.451
12.0,0.0,0.452
11.0,2.0,0.453
12.0,10.0,0.454
14.0,13.0,0.455
15.0,8.0,0.456
10.0,2.0,0.457
0.0,-1.0,0.458
-5.0,-3.0,0.459
-10.0,-7.0,0.46
-11.0,-12.0,0.461
-10.0,-16.0,0.462
-2.0,-11.0,0.463
5.0,-5.0,0.464
9.0,3.0,0.465
12.0,7.0,0.466
7.0,1.0,0.467
3.0,-2.0,0.468
3.0,0.0,0.469
2.0,3.0,0.47
2.0,3.0,0.471
2.0,2.0,0.472
2.0,3.0,0.473
2.0,5.0,0.474
2.0,5.0,0.475
3.0,4.0,0.476
4.0,4.0,0.477
6.0,3.0,0.478
1.0,-1.0,0.479
-3.0,-4.0,0.48
-4.0,-6.0,0.481
-3.0,-2.0,0.482
1.0,-1.0,0.483
5.0,0.0,0.484
8.0,2.0,0.485
5.0,4.0,0.486
1.0,3.0,0.487
1.0,-3.0,0.488
4.0,-3.0,0.489
8.0,-1.0,0.49
7.0,0.0,0.491
5.0,2.0,0.492
4.0,7.0,0.493
5.0,8.0,0.494
5.0,3.0,0.495
3.0,-1.0,0.496
-1.0,1.0,0.497
-3.0,3.0,0.498
-1.0,-4.0,0.499
0.0,-10.0,0.5
-1.0,-12.0,0.501
-4.0,-3.0,0.502
-3.0,0.0,0.503
-2.0,-4.0,0.504
-2.0,-6.0,0.505
-2.0,-1.0,0.506
0.0,4.0,0.507
3.0,5.0,0.508
4.0,3.0,0.509
4.0,-1.0,0.51
2.0,-4.0,0.511
1.0,-3.0,0.512
3.0,0.0,0.513
5.0,-1.0,0.514
5.0,-5.0,0.515
5.0,-6.0,0.516
6.0,0.0,0.517
7.0,3.0,0.518
3.0,0.0,0.519
0.0,-6.0,0.52
-3.0,-10.0,0.521
-3.0,-7.0,0.522
2.0,-3.0,0.523
10.0,-2.0,0.524
13.0,3.0,0.525
10.0,8.0,0.526
7.0,10.0,0.527
10.0,10.0,0.528
10.0,8.0,0.529
3.0,5.0,0.53
-4.0,-2.0,0.531
-4.0,-7.0,0.532
0.0,-5.0,0.533
-2.0,-3.0,0.534
-7.0,-6.0,0.535
-11.0,-9.0,0.536
-4.0,-6.0,0.537
3.0,-1.0,0.538
6.0,0.0,0.539
0.0,-3.0,0.54
-3.0,-5.0,0.541
0.0,-2.0,0.542
12.0,2.0,0.543
20.0,8.0,0.544
19.0,13.0,0.545
8.0,15.0,0.546
-1.0,3.0,0.547
-6.0,-11.0,0.548
-6.0,-15.0,0.549
-5.0,-2.0,0.55
0.0,11.0,0.551
2.0,9.0,0.552
2.0,-3.0,0.553
-1.0,-8.0,0.554
-1.0,-5.0,0.555
1.0,0.0,0.556
5.0,1.0,0.557
5.0,-3.0,0.558
4.0,-2.0,0.559
0.0,-2.0,0.56
-4.0,-5.0,0.561
-3.0,-6.0,0.562
3.0,-5.0,0.563
9.0,-4.0,0.564
9.0,0.0,0.565
3.0,4.0,0.566
1.0,5.0,0.567
3.0,1.0,0.568
4.0,-3.0,0.569
2.0,-3.0,0.57
1.0,-2.0,0.571
3.0,-4.0,0.572
5.0,-5.0,0.573
1.0,-1.0,0.574
-2.0,4.0,0.575
0.0,3.0,0.576
5.0,-1.0,0.577
5.0,-3.0,0.578
2.0,0.0,0.579
0.0,1.0,0.58
-1.0,-2.0,0.581
-1.0,-4.0,0.582
4.0,-1.0,0.583
9.0,2.0,0.584
8.0,2.0,0.585
6.0,3.0,0.586
3.0,3.0,0.587
1.0,3.0,0.588
1.0,3.0,0.589
0.0,2.0,0.59
-1.0,0.0,0.591
-1.0,-1.0,0.592
1.0,0.0,0.593
4.0,1.0,0.594
4.0,0.0,0.595
4.0,-2.0,0.596
4.0,-2.0,0.597
5.0,-2.0,0.598
3.0,-5.0,0.599
-2.0,-5.0,0.6
-5.0,-3.0,0.601
-5.0,0.0,0.602
0.0,-4.0,0.603
6.0,-7.0,0.604
6.0,-2.0,0.605
4.0,4.0,0.606
3.0,1.0,0.607
3.0,-4.0,0.608
4.0,-2.0,0.609
6.0,4.0,0.61
8.0,4.0,0.611
8.0,-3.0,0.612
4.0,-6.0,0.613
0.0,-1.0,0.614
1.0,0.0,0.615
2.0,-4.0,0.616
3.0,-6.0,0.617
3.0,-2.0,0.618
3.0,1.0,0.619
2.0,-2.0,0.62
-2.0,-6.0,0.621
-4.0,-1.0,0.622
2.0,4.0,0.623
10.0,8.0,0.624
12.0,9.0,0.625
5.0,9.0,0.626
0.0,4.0,0.627
-1.0,-4.0,0.628
-4.0,-8.0,0.629
-7.0,-7.0,0.63
-2.0,-4.0,0.631
6.0,-1.0,0.632
8.0,0.0,0.633
2.0,1.0,0.634
-3.0,0.0,0.635
-1.0,-2.0,0.636
3.0,0.0,0.637
4.0,0.0,0.638
2.0,0.0,0.639
2.0,1.0,0.64
0.0,0.0,0.641
-2.0,-1.0,0.642
2.0,-3.0,0.643
8.0,0.0,0.644
9.0,4.0,0.645
0.0,4.0,0.646
-3.0,1.0,0.647
1.0,-1.0,0.648
6.0,0.0,0.649
2.0,-1.0,0.65
-2.0,-4.0,0.651
-3.0,-3.0,0.652
1.0,0.0,0.653
2.0,0.0,0.654
3.0,-1.0,0.655
6.0,-1.0,0.656
7.0,3.0,0.657
-2.0,2.0,0.658
-3.0,0.0,0.659
-5.0,-2.0,0.66
-7.0,-3.0,0.661
-8.0,-4.0,0.662
1.0,-1.0,0.663
7.0,1.0,0.664
4.0,1.0,0.665
1.0,2.0,0.666
2.0,2.0,0.667
4.0,1.0,0.668
6.0,0.0,0.669
7.0,-2.0,0.67
4.0,-1.0,0.671
1.0,0.0,0.672
2.0,-1.0,0.673
4.0,-2.0,0.674
4.0,-4.0,0.675
3.0,-5.0,0.676
4.0,-3.0,0.677
-1.0,-2.0,0.678
-1.0,-5.0,0.679
-3.0,-3.0,0.68
-4.0,-3.0,0.681
-5.0,-2.0,0.682
1.0,-3.0,0.683
5.0,-2.0,0.684
3.0,0.0,0.685
1.0,0.0,0.686
1.0,-1.0,0.687
3.0,0.0,0.688
4.0,0.0,0.689
5.0,0.0,0.69
3.0,1.0,0.691
1.0,0.0,0.692
1.0,-2.0,0.693
3.0,-4.0,0.694
3.0,-3.0,0.695
2.0,-1.0,0.696
3.0,0.0,0.697
-2.0,-2.0,0.698
-3.0,-2.0,0.699
-5.0,-2.0,0.7
-7.0,-3.0,0.701
-8.0,-4.0,0.702
1.0,-2.0,0.703
7.0,-1.0,0.704
4.0,0.0,0.705
1.0,1.0,0.706
2.0,1.0,0.707
4.0,2.0,0.708
6.0,0.0,0.709
7.0,0.0,0.71
4.0,1.0,0.711
1.0,3.0,0.712
2.0,1.0,0.713
4.0,0.0,0.714
4.0,0.0,0.715
3.0,0.0,0.716
4.0,-2.0,0.717
5.0,-4.0,0.718
3.0,-4.0,0.719
-2.0,-5.0,0.72
-7.0,-8.0,0.721
-8.0,-8.0,0.722
1.0,-3.0,0.723
9.0,2.0,0.724
9.0,6.0,0.725
2.0,6.0,0.726
-1.0,3.0,0.727
1.0,-1.0,0.728
2.0,-3.0,0.729
3.0,-2.0,0.73
3.0,0.0,0.731
4.0,0.0,0.732
4.0,-2.0,0.733
2.0,0.0,0.734
2.0,2.0,0.735
1.0,0.0,0.736
1.0,-3.0,0.737
-4.0,-4.0,0.738
-5.0,-1.0,0.739
-5.0,-2.0,0.74
-5.0,-8.0,0.741
-6.0,-9.0,0.742
-2.0,-3.0,0.743
3.0,2.0,0.744
4.0,3.0,0.745
0.0,1.0,0.746
0.0,0.0,0.747
4.0,-1.0,0.748
8.0,-3.0,0.749
6.0,-1.0,0.75
1.0,0.0,0.751
2.0,0.0,0.752
4.0,-1.0,0.753
4.0,0.0,0.754
3.0,0.0,0.755
7.0,0.0,0.756
13.0,1.0,0.757
13.0,1.0,0.758
8.0,0.0,0.759
-1.0,-1.0,0.76
-6.0,-4.0,0.761
-3.0,-4.0,0.762
5.0,-1.0,0.763
14.0,0.0,0.764
15.0,4.0,0.765
12.0,7.0,0.766
6.0,7.0,0.767
3.0,4.0,0.768
4.0,1.0,0.769
5.0,0.0,0.77
5.0,-1.0,0.771
4.0,-2.0,0.772
3.0,0.0,0.773
2.0,1.0,0.774
-1.0,-1.0,0.775
-4.0,-3.0,0.776
-3.0,0.0,0.777
1.0,1.0,0.778
2.0,1.0,0.779
-4.0,0.0,0.78
-6.0,-3.0,0.781
-3.0,-5.0,0.782
2.0,-3.0,0.783
3.0,-1.0,0.784
0.0,0.0,0.785
1.0,2.0,0.786
3.0,0.0,0.787
3.0,-1.0,0.788
0.0,-1.0,0.789
-2.0,-2.0,0.79
-1.0,-2.0,0.791
1.0,-2.0,0.792
3.0,-2.0,0.793
2.0,-3.0,0.794
0.0,-3.0,0.795
0.0,-3.0,0.796
1.0,-1.0,0.797
1.0,-1.0,0.798
0.0,-2.0,0.799
-4.0,-4.0,0.8
-7.0,-9.0,0.801
-6.0,-4.0,0.802
0.0,1.0,0.803
9.0,3.0,0.804
11.0,1.0,0.805
7.0,1.0,0.806
4.0,3.0,0.807
7.0,2.0,0.808
8.0,-2.0,0.809
5.0,-3.0,0.81
1.0,-1.0,0.811
1.0,1.0,0.812
3.0,0.0,0.813
4.0,-1.0,0.814
4.0,-3.0,0.815
4.0,-2.0,0.816
4.0,-2.0,0.817
2.0,-2.0,0.818
0.0,-2.0,0.819
-3.0,-1.0,0.82
-5.0,-3.0,0.821
-2.0,-2.0,0.822
7.0,-1.0,0.823
13.0,-1.0,0.824
9.0,-1.0,0.825
2.0,1.0,0.826
2.0,3.0,0.827
7.0,-1.0,0.828
9.0,-4.0,0.829
4.0,-1.0,0.83
0.0,1.0,0.831
1.0,0.0,0.832
1.0,-3.0,0.833
0.0,-3.0,0.834
0.0,0.0,0.835
2.0,2.0,0.836
5.0,2.0,0.837
1.0,0.0,0.838
-3.0,-2.0,0.839
-7.0,-5.0,0.84
-7.0,-7.0,0.841
-4.0,-6.0,0.842
1.0,-3.0,0.843
6.0,-2.0,0.844
8.0,-1.0,0.845
10.0,3.0,0.846
10.0,7.0,0.847
10.0,5.0,0.848
8.0,3.0,0.849
7.0,5.0,0.85
7.0,6.0,0.851
7.0,1.0,0.852
4.0,-4.0,0.853
1.0,0.0,0.854
2.0,6.0,0.855
3.0,4.0,0.856
4.0,-3.0,0.857
4.0,-5.0,0.858
1.0,0.0,0.859
-3.0,3.0,0.86
-7.0,-4.0,0.861
-7.0,-9.0,0.862
1.0,-4.0,0.863
11.0,0.0,0.864
10.0,1.0,0.865
2.0,2.0,0.866
0.0,-1.0,0.867
7.0,-4.0,0.868
9.0,-4.0,0.869
3.0,-2.0,0.87
-1.0,0.0,0.871
5.0,2.0,0.872
9.0,0.0,0.873
5.0,-1.0,0.874
0.0,0.0,0.875
0.0,1.0,0.876
2.0,-1.0,0.877
2.0,-3.0,0.878
0.0,-1.0,0.879
-4.0,-1.0,0.88
-8.0,-7.0,0.881
-9.0,-6.0,0.882
-3.0,-1.0,0.883
7.0,1.0,0.884
9.0,-1.0,0.885
2.0,0.0,0.886
0.0,3.0,0.887
6.0,3.0,0.888
9.0,-3.0,0.889
1.0,-4.0,0.89
-4.0,-2.0,0.891
-1.0,2.0,0.892
5.0,1.0,0.893
5.0,0.0,0.894
2.0,-1.0,0.895
0.0,-2.0,0.896
0.0,-2.0,0.897
-2.0,-1.0,0.898
-5.0,0.0,0.899
-4.0,-1.0,0.9
-3.0,-7.0,0.901
-1.0,-6.0,0.902
2.0,0.0,0.903
6.0,6.0,0.904
5.0,7.0,0.905
0.0,4.0,0.906
-3.0,1.0,0.907
-3.0,0.0,0.908
0.0,3.0,0.909
1.0,5.0,0.91
4.0,3.0,0.911
6.0,-2.0,0.912
4.0,-7.0,0.913
0.0,-6.0,0.914
0.0,-2.0,0.915
3.0,0.0,0.916
6.0,-1.0,0.917
2.0,-3.0,0.918
2.0,-3.0,0.919
0.0,-2.0,0.92
-2.0,-4.0,0.921
-4.0,-7.0,0.922
-1.0,-5.0,0.923
3.0,0.0,0.924
4.0,2.0,0.925
1.0,1.0,0.926
3.0,0.0,0.927
8.0,0.0,0.928
11.0,1.0,0.929
6.0,0.0,0.93
2.0,0.0,0.931
1.0,0.0,0.932
1.0,-1.0,0.933
1.0,-2.0,0.934
3.0,-2.0,0.935
6.0,0.0,0.936
9.0,0.0,0.937
8.0,-3.0,0.938
6.0,-3.0,0.939
1.0,-1.0,0.94
-5.0,-4.0,0.941
-8.0,-4.0,0.942
-3.0,-3.0,0.943
6.0,1.0,0.944
10.0,4.0,0.945
6.0,3.0,0.946
3.0,1.0,0.947
7.0,0.0,0.948
8.0,0.0,0.949
5.0,2.0,0.95
1.0,2.0,0.951
1.0,2.0,0.952
4.0,1.0,0.953
4.0,1.0,0.954
3.0,0.0,0.955
3.0,-2.0,0.956
3.0,0.0,0.957
2.0,0.0,0.958
0.0,-1.0,0.959
-4.0,-4.0,0.96
-6.0,-9.0,0.961
-6.0,-6.0,0.962
0.0,-2.0,0.963
5.0,-1.0,0.964
6.0,2.0,0.965
2.0,6.0,0.966
0.0,8.0,0.967
3.0,4.0,0.968
7.0,-2.0,0.969
5.0,-4.0,0.97
3.0,-5.0,0.971
3.0,-4.0,0.972
5.0,-3.0,0.973
4.0,0.0,0.974
2.0,0.0,0.975
3.0,-2.0,0.976
5.0,-2.0,0.977
5.0,0.0,0.978
5.0,2.0,0.979
4.0,0.0,0.98
0.0,-3.0,0.981
-5.0,-2.0,0.982
-2.0,0.0,0.983
7.0,2.0,0.984
6.0,2.0,0.985
-1.0,4.0,0.986
-4.0,3.0,0.987
3.0,-2.0,0.988
9.0,-6.0,0.989
5.0,-3.0,0.99
2.0,1.0,0.991
5.0,0.0,0.992
6.0,-3.0,0.993
2.0,-3.0,0.994
-1.0,0.0,0.995
1.0,3.0,0.996
3.0,5.0,0.997
0.0,3.0,0.998
-3.0,0.0,0.999
-4.0,-5.0,1.0
-6.0,-10.0,1.001
-6.0,-8.0,1.002
0.0,-3.0,1.003
11.0,-1.0,1.004
13.0,0.0,1.005
7.0,3.0,1.006
3.0,3.0,1.007
5.0,0.0,1.008
6.0,-2.0,1.009
2.0,0.0,1.01
1.0,1.0,1.011
3.0,-1.0,1.012
2.0,-3.0,1.013
-1.0,-1.0,1.014
0.0,0.0,1.015
4.0,0.0,1.016
7.0,1.0,1.017
5.0,0.0,1.018
2.0,-2.0,1.019
1.0,-7.0,1.02
-2.0,-9.0,1.021
-4.0,-4.0,1.022
2.0,0.0,1.023
8.0,0.0,1.024
8.0,0.0,1.025
2.0,1.0,1.026
1.0,2.0,1.027
4.0,-2.0,1.028
4.0,-3.0,1.029
2.0,0.0,1.03
4.0,2.0,1.031
8.0,-1.0,1.032
6.0,-5.0,1.033
-1.0,-4.0,1.034
-2.0,-1.0,1.035
2.0,-1.0,1.036
3.0,-2.0,1.037
-2.0,-6.0,1.038
-4.0,-4.0,1.039
-5.0,-1.0,1.04
-5.0,-3.0,1.041
-6.0,-5.0,1.042
0.0,-5.0,1.043
11.0,-2.0,1.044
15.0,2.0,1.045
10.0,4.0,1.046
3.0,2.0,1.047
7.0,0.0,1.048
8.0,-2.0,1.049
3.0,-1.0,1.05
0.0,1.0,1.051
0.0,2.0,1.052
1.0,-1.0,1.053
0.0,-2.0,1.054
0.0,2.0,1.055
3.0,3.0,1.056
8.0,1.0,1.057
8.0,-2.0,1.058
5.0,-3.0,1.059
-1.0,-2.0,1.06
-5.0,-5.0,1.061
-4.0,-7.0,1.062
3.0,-3.0,1.063
11.0,3.0,1.064
8.0,5.0,1.065
0.0,6.0,1.066
-3.0,4.0,1.067
1.0,2.0,1.068
5.0,-3.0,1.069
3.0,-5.0,1.07
1.0,-2.0,1.071
1.0,-1.0,1.072
2.0,0.0,1.073
0.0,-1.0,1.074
-2.0,0.0,1.075
0.0,-1.0,1.076
6.0,-1.0,1.077
3.0,0.0,1.078
-2.0,2.0,1.079
-7.0,0.0,1.08
-5.0,-5.0,1.081
-2.0,-6.0,1.082
4.0,0.0,1.083
10.0,1.0,1.084
10.0,0.0,1.085
8.0,0.0,1.086
5.0,3.0,1.087
2.0,3.0,1.088
2.0,-1.0,1.089
3.0,-3.0,1.09
1.0,0.0,1.091
0.0,2.0,1.092
2.0,0.0,1.093
4.0,-2.0,1.094
4.0,-1.0,1.095
5.0,0.0,1.096
6.0,0.0,1.097
6.0,-2.0,1.098
1.0,-1.0,1.099
-5.0,0.0,1.1
-5.0,-1.0,1.101
-3.0,-2.0,1.102
4.0,-2.0,1.103
10.0,-1.0,1.104
10.0,3.0,1.105
5.0,8.0,1.106
1.0,8.0,1.107
2.0,1.0,1.108
3.0,-4.0,1.109
1.0,-4.0,1.11
0.0,-2.0,1.111
4.0,0.0,1.112
9.0,-1.0,1.113
10.0,0.0,1.114
7.0,1.0,1.115
5.0,-2.0,1.116
4.0,-5.0,1.117
2.0,-4.0,1.118
-1.0,-1.0,1.119
-5.0,0.0,1.12
-6.0,-6.0,1.121
-5.0,-7.0,1.122
-2.0,-5.0,1.123
2.0,-2.0,1.124
3.0,0.0,1.125
2.0,2.0,1.126
1.0,2.0,1.127
3.0,0.0,1.128
5.0,0.0,1.129
5.0,0.0,1.13
2.0,-1.0,1.131
2.0,-1.0,1.132
2.0,2.0,1.133
2.0,5.0,1.134
1.0,5.0,1.135
0.0,-1.0,1.136
2.0,-4.0,1.137
0.0,-4.0,1.138
-1.0,-1.0,1.139
-3.0,-1.0,1.14
-5.0,-7.0,1.141
-5.0,-6.0,1.142
4.0,-1.0,1.143
12.0,2.0,1.144
11.0,3.0,1.145
9.0,4.0,1.146
5.0,4.0,1.147
1.0,2.0,1.148
1.0,0.0,1.149
0.0,0.0,1.15
1.0,-1.0,1.151
2.0,-3.0,1.152
3.0,-4.0,1.153
4.0,-2.0,1.154
2.0,1.0,1.155
1.0,0.0,1.156
3.0,0.0,1.157
5.0,-1.0,1.158
2.0,-2.0,1.159
0.0,-2.0,1.16
-1.0,-6.0,1.161
0.0,-6.0,1.162
4.0,-4.0,1.163
10.0,-1.0,1.164
10.0,1.0,1.165
3.0,4.0,1.166
1.0,5.0,1.167
6.0,3.0,1.168
6.0,-1.0,1.169
0.0,-3.0,1.17
-3.0,-1.0,1.171
0.0,1.0,1.172
1.0,0.0,1.173
-2.0,0.0,1.174
-3.0,-2.0,1.175
0.0,-4.0,1.176
3.0,-3.0,1.177
1.0,-5.0,1.178
0.0,-4.0,1.179
2.0,-3.0,1.18
2.0,-4.0,1.181
-3.0,-3.0,1.182
-2.0,-3.0,1.183
6.0,-2.0,1.184
10.0,-1.0,1.185
3.0,-2.0,1.186
-3.0,-1.0,1.187
-1.0,2.0,1.188
4.0,3.0,1.189
4.0,5.0,1.19
1.0,4.0,1.191
1.0,0.0,1.192
1.0,-4.0,1.193
1.0,-5.0,1.194
1.0,-3.0,1.195
3.0,0.0,1.196
6.0,1.0,1.197
3.0,-1.0,1.198
-1.0,-2.0,1.199
-4.0,-3.0,1.2
-5.0,-5.0,1.201
-6.0,-5.0,1.202
-1.0,-4.0,1.203
8.0,-3.0,1.204
12.0,1.0,1.205
8.0,6.0,1.206
2.0,5.0,1.207
3.0,-2.0,1.208
10.0,-6.0,1.209
9.0,-1.0,1.21
5.0,5.0,1.211
4.0,4.0,1.212
6.0,0.0,1.213
6.0,-2.0,1.214
4.0,1.0,1.215
5.0,3.0,1.216
5.0,2.0,1.217
-1.0,-1.0,1.218
-5.0,-3.0,1.219
-5.0,-5.0,1.22
-4.0,-7.0,1.221
-6.0,-6.0,1.222
-5.0,-3.0,1.223
1.0,0.0,1.224
4.0,1.0,1.225
0.0,3.0,1.226
-5.0,3.0,1.227
-2.0,0.0,1.228
4.0,-1.0,1.229
4.0,1.0,1.23
1.0,3.0,1.231
2.0,0.0,1.232
4.0,-1.0,1.233
1.0,2.0,1.234
-1.0,3.0,1.235
0.0,1.0,1.236
4.0,-2.0,1.237
2.0,-4.0,1.238
-3.0,-2.0,1.239
-4.0,0.0,1.24
-1.0,-2.0,1.241
0.0,-5.0,1.242
2.0,-6.0,1.243
6.0,-1.0,1.244
10.0,5.0,1.245
8.0,9.0,1.246
5.0,7.0,1.247
5.0,2.0,1.248
8.0,1.0,1.249
8.0,1.0,1.25
4.0,0.0,1.251
4.0,-2.0,1.252
7.0,0.0,1.253
7.0,0.0,1.254
3.0,-3.0,1.255
3.0,-5.0,1.256
7.0,-1.0,1.257
8.0,2.0,1.258
3.0,1.0,1.259
-2.0,-2.0,1.26
-4.0,-7.0,1.261
-1.0,-6.0,1.262
1.0,-4.0,1.263
4.0,-1.0,1.264
5.0,0.0,1.265
3.0,3.0,1.266
1.0,5.0,1.267
0.0,4.0,1.268
0.0,0.0,1.269
1.0,-2.0,1.27
1.0,-2.0,1.271
3.0,0.0,1.272
5.0,1.0,1.273
1.0,0.0,1.274
-1.0,-1.0,1.275
1.0,-3.0,1.276
4.0,-1.0,1.277
2.0,-2.0,1.278
-2.0,-5.0,1.279
-3.0,-6.0,1.28
0.0,-7.0,1.281
2.0,-4.0,1.282
6.0,-1.0,1.283
9.0,-1.0,1.284
11.0,0.0,1.285
7.0,1.0,1.286
2.0,1.0,1.287
1.0,-1.0,1.288
2.0,-2.0,1.289
3.0,0.0,1.29
3.0,2.0,1.291
4.0,0.0,1.292
3.0,-2.0,1.293
0.0,1.0,1.294
-2.0,5.0,1.295
-1.0,3.0,1.296
3.0,3.0,1.297
4.0,0.0,1.298
5.0,-1.0,1.299
2.0,-4.0,1.3
-2.0,-6.0,1.301
-6.0,-4.0,1.302
-3.0,0.0,1.303
5.0,0.0,1.304
11.0,-1.0,1.305
7.0,2.0,1.306
0.0,4.0,1.307
-2.0,3.0,1.308
0.0,-1.0,1.309
1.0,-2.0,1.31
2.0,-1.0,1.311
3.0,-2.0,1.312
4.0,-3.0,1.313
2.0,0.0,1.314
-1.0,3.0,1.315
-1.0,-1.0,1.316
2.0,-6.0,1.317
3.0,-7.0,1.318
2.0,-2.0,1.319
-2.0,0.0,1.32
-4.0,-5.0,1.321
-3.0,-7.0,1.322
4.0,-5.0,1.323
10.0,-1.0,1.324
9.0,-1.0,1.325
3.0,0.0,1.326
0.0,2.0,1.327
4.0,2.0,1.328
5.0,0.0,1.329
5.0,0.0,1.33
4.0,3.0,1.331
4.0,2.0,1.332
3.0,-1.0,1.333
0.0,-3.0,1.334
0.0,-1.0,1.335
1.0,1.0,1.336
3.0,1.0,1.337
3.0,-2.0,1.338
3.0,-3.0,1.339
1.0,-1.0,1.34
-1.0,-3.0,1.341
0.0,-6.0,1.342
5.0,-5.0,1.343
11.0,-1.0,1.344
9.0,3.0,1.345
2.0,4.0,1.346
0.0,1.0,1.347
5.0,-3.0,1.348
9.0,-5.0,1.349
5.0,-2.0,1.35
2.0,0.0,1.351
2.0,0.0,1.352
4.0,-3.0,1.353
1.0,-3.0,1.354
-2.0,-1.0,1.355
-1.0,0.0,1.356
3.0,-2.0,1.357
2.0,-5.0,1.358
-3.0,-5.0,1.359
-8.0,-2.0,1.36
-9.0,-2.0,1.361
-6.0,-2.0,1.362
1.0,-2.0,1.363
8.0,-1.0,1.364
8.0,4.0,1.365
2.0,7.0,1.366
-1.0,6.0,1.367
2.0,2.0,1.368
6.0,0.0,1.369
3.0,3.0,1.37
1.0,6.0,1.371
3.0,2.0,1.372
9.0,-3.0,1.373
9.0,-6.0,1.374
5.0,-3.0,1.375
3.0,0.0,1.376
5.0,2.0,1.377
4.0,0.0,1.378
0.0,-2.0,1.379
-2.0,-5.0,1.38
-4.0,-8.0,1.381
-3.0,-7.0,1.382
0.0,-4.0,1.383
5.0,-3.0,1.384
10.0,-1.0,1.385
9.0,3.0,1.386
5.0,5.0,1.387
5.0,4.0,1.388
4.0,1.0,1.389
0.0,0.0,1.39
-3.0,0.0,1.391
0.0,0.0,1.392
3.0,-2.0,1.393
2.0,-3.0,1.394
-1.0,-2.0,1.395
-1.0,1.0,1.396
2.0,3.0,1.397
2.0,0.0,1.398
0.0,-4.0,1.399
-4.0,-4.0,1.4
-5.0,-4.0,1.401
-4.0,-4.0,1.402
0.0,-5.0,1.403
7.0,-4.0,1.404
8.0,0.0,1.405
3.0,2.0,1.406
1.0,1.0,1.407
2.0,-2.0,1.408
4.0,-2.0,1.409
1.0,-1.0,1.41
0.0,-3.0,1.411
4.0,-6.0,1.412
8.0,-4.0,1.413
6.0,0.0,1.414
6.0,3.0,1.415
9.0,2.0,1.416
13.0,1.0,1.417
11.0,-3.0,1.418
5.0,-4.0,1.419
-1.0,-2.0,1.42
-3.0,-2.0,1.421
-4.0,-1.0,1.422
2.0,-2.0,1.423
13.0,0.0,1.424
15.0,5.0,1.425
6.0,6.0,1.426
0.0,4.0,1.427
3.0,1.0,1.428
9.0,1.0,1.429
8.0,4.0,1.43
5.0,3.0,1.431
5.0,1.0,1.432
7.0,-1.0,1.433
4.0,-1.0,1.434
1.0,0.0,1.435
0.0,2.0,1.436
4.0,3.0,1.437
2.0,2.0,1.438
-1.0,-2.0,1.439
-3.0,-1.0,1.44
-4.0,-3.0,1.441
-6.0,-4.0,1.442
-4.0,-3.0,1.443
4.0,0.0,1.444
7.0,2.0,1.445
1.0,2.0,1.446
-3.0,0.0,1.447
0.0,0.0,1.448
7.0,4.0,1.449
4.0,3.0,1.45
-3.0,-5.0,1.451
-2.0,-7.0,1.452
2.0,-1.0,1.453
4.0,4.0,1.454
2.0,1.0,1.455
3.0,-2.0,1.456
4.0,0.0,1.457
1.0,2.0,1.458
-2.0,0.0,1.459
-4.0,-3.0,1.46
-4.0,-4.0,1.461
-5.0,-6.0,1.462
-1.0,-4.0,1.463
8.0,-2.0,1.464
10.0,0.0,1.465
2.0,2.0,1.466
-2.0,2.0,1.467
3.0,0.0,1.468
8.0,-1.0,1.469
3.0,-4.0,1.47
-3.0,-5.0,1.471
-2.0,-5.0,1.472
1.0,-3.0,1.473
-1.0,-1.0,1.474
0.0,-1.0,1.475
3.0,-1.0,1.476
8.0,0.0,1.477
4.0,2.0,1.478
0.0,-1.0,1.479
-1.0,-6.0,1.48
0.0,-10.0,1.481
-1.0,-8.0,1.482
1.0,-4.0,1.483
6.0,-2.0,1.484
8.0,-1.0,1.485
3.0,2.0,1.486
2.0,2.0,1.487
8.0,-1.0,1.488
10.0,-4.0,1.489
6.0,-5.0,1.49
3.0,-4.0,1.491
4.0,-2.0,1.492
5.0,0.0,1.493
1.0,0.0,1.494
-1.0,-2.0,1.495
0.0,-3.0,1.496
2.0,1.0,1.497
0.0,3.0,1.498
-1.0,2.0,1.499
-1.0,-1.0,1.5
-3.0,-2.0,1.501
-6.0,1.0,1.502
-3.0,1.0,1.503
4.0,1.0,1.504
8.0,3.0,1.505
4.0,5.0,1.506
2.0,2.0,1.507
6.0,-1.0,1.508
10.0,1.0,1.509
6.0,4.0,1.51
0.0,2.0,1.511
-1.0,-3.0,1.512
2.0,-2.0,1.513
3.0,1.0,1.514
1.0,1.0,1.515
1.0,-3.0,1.516
4.0,-3.0,1.517
5.0,-3.0,1.518
1.0,-4.0,1.519
-4.0,-7.0,1.52
-7.0,-9.0,1.521
-4.0,-5.0,1.522
4.0,-2.0,1.523
11.0,0.0,1.524
11.0,5.0,1.525
5.0,6.0,1.526
3.0,3.0,1.527
5.0,-1.0,1.528
7.0,-2.0,1.529
3.0,0.0,1.53
2.0,-1.0,1.531
2.0,-4.0,1.532
3.0,-3.0,1.533
1.0,-2.0,1.534
0.0,-3.0,1.535
3.0,-7.0,1.536
4.0,-4.0,1.537
2.0,0.0,1.538
0.0,1.0,1.539
-2.0,2.0,1.54
-5.0,-1.0,1.541
-6.0,-4.0,1.542
0.0,-4.0,1.543
9.0,-3.0,1.544
12.0,-1.0,1.545
5.0,0.0,1.546
0.0,0.0,1.547
3.0,1.0,1.548
9.0,0.0,1.549
8.0,-1.0,1.55
3.0,0.0,1.551
2.0,0.0,1.552
3.0,-1.0,1.553
2.0,-2.0,1.554
0.0,0.0,1.555
-2.0,2.0,1.556
0.0,0.0,1.557
0.0,-1.0,1.558
1.0,-1.0,1.559
0.0,-2.0,1.56
-1.0,-7.0,1.561
-2.0,-7.0,1.562
0.0,-5.0,1.563
5.0,-2.0,1.564
10.0,0.0,1.565
7.0,1.0,1.566
1.0,1.0,1.567
0.0,0.0,1.568
2.0,-1.0,1.569
6.0,0.0,1.57
6.0,3.0,1.571
2.0,3.0,1.572
0.0,2.0,1.573
1.0,0.0,1.574
4.0,-3.0,1.575
4.0,-6.0,1.576
3.0,-5.0,1.577
1.0,-3.0,1.578
1.0,0.0,1.579
0.0,-2.0,1.58
-3.0,-9.0,1.581
-5.0,-8.0,1.582
0.0,-4.0,1.583
6.0,0.0,1.584
6.0,3.0,1.585
3.0,5.0,1.586
2.0,7.0,1.587
5.0,5.0,1.588
4.0,1.0,1.589
-1.0,-1.0,1.59
-3.0,-1.0,1.591
-1.0,0.0,1.592
4.0,1.0,1.593
4.0,2.0,1.594
0.0,1.0,1.595
0.0,0.0,1.596
4.0,1.0,1.597
6.0,1.0,1.598
5.0,-1.0,1.599
0.0,-4.0,1.6
-2.0,-7.0,1.601
0.0,-5.0,1.602
2.0,-1.0,1.603
4.0,2.0,1.604
3.0,4.0,1.605
3.0,4.0,1.606
5.0,3.0,1.607
6.0,1.0,1.608
4.0,2.0,1.609
1.0,4.0,1.61
0.0,0.0,1.611
4.0,-4.0,1.612
5.0,-4.0,1.613
3.0,0.0,1.614
0.0,-1.0,1.615
1.0,-3.0,1.616
5.0,-1.0,1.617
2.0,-1.0,1.618
-1.0,-2.0,1.619
-3.0,-4.0,1.62
-2.0,-4.0,1.621
-2.0,-4.0,1.622
0.0,-2.0,1.623
5.0,0.0,1.624
7.0,2.0,1.625
3.0,5.0,1.626
0.0,4.0,1.627
0.0,3.0,1.628
2.0,3.0,1.629
3.0,2.0,1.63
3.0,0.0,1.631
5.0,-1.0,1.632
5.0,0.0,1.633
0.0,1.0,1.634
-1.0,-2.0,1.635
1.0,-5.0,1.636
6.0,-4.0,1.637
4.0,-2.0,1.638
0.0,-1.0,1.639
-4.0,-4.0,1.64
-4.0,-8.0,1.641
-1.0,-6.0,1.642
3.0,-5.0,1.643
9.0,-3.0,1.644
11.0,1.0,1.645
8.0,2.0,1.646
2.0,0.0,1.647
0.0,-4.0,1.648
1.0,-2.0,1.649
5.0,1.0,1.65
4.0,1.0,1.651
1.0,-1.0,1.652
0.0,0.0,1.653
3.0,0.0,1.654
7.0,-3.0,1.655
7.0,-4.0,1.656
5.0,0.0,1.657
4.0,4.0,1.658
5.0,2.0,1.659
1.0,-2.0,1.66
-6.0,-4.0,1.661
-8.0,-1.0,1.662
-3.0,0.0,1.663
4.0,0.0,1.664
4.0,3.0,1.665
2.0,6.0,1.666
3.0,4.0,1.667
6.0,0.0,1.668
3.0,0.0,1.669
0.0,3.0,1.67
1.0,1.0,1.671
5.0,-4.0,1.672
2.0,-4.0,1.673
-2.0,-3.0,1.674
0.0,-3.0,1.675
2.0,-6.0,1.676
4.0,-3.0,1.677
1.0,-1.0,1.678
0.0,-2.0,1.679
1.0,-4.0,1.68
0.0,-7.0,1.681
-2.0,-3.0,1.682
1.0,1.0,1.683
10.0,3.0,1.684
12.0,3.0,1.685
6.0,4.0,1.686
3.0,2.0,1.687
5.0,0.0,1.688
6.0,1.0,1.689
2.0,3.0,1.69
1.0,2.0,1.691
2.0,-2.0,1.692
2.0,-3.0,1.693
0.0,0.0,1.694
-2.0,0.0,1.695
1.0,-2.0,1.696
3.0,-2.0,1.697
0.0,-1.0,1.698
-2.0,-1.0,1.699
-5.0,0.0,1.7
-4.0,-2.0,1.701
-4.0,-4.0,1.702
2.0,-2.0,1.703
9.0,-1.0,1.704
9.0,0.0,1.705
0.0,2.0,1.706
-3.0,1.0,1.707
1.0,0.0,1.708
5.0,-2.0,1.709
4.0,-3.0,1.71
2.0,-1.0,1.711
5.0,1.0,1.712
7.0,1.0,1.713
5.0,0.0,1.714
3.0,1.0,1.715
2.0,1.0,1.716
4.0,-1.0,1.717
3.0,-4.0,1.718
1.0,-2.0,1.719
-1.0,-1.0,1.72
-3.0,-5.0,1.721
-3.0,-7.0,1.722
0.0,-5.0,1.723
5.0,-1.0,1.724
7.0,3.0,1.725
4.0,5.0,1.726
2.0,3.0,1.727
4.0,-1.0,1.728
6.0,-2.0,1.729
4.0,-1.0,1.73
3.0,-1.0,1.731
4.0,-1.0,1.732
7.0,-1.0,1.733
5.0,0.0,1.734
1.0,0.0,1.735
0.0,-2.0,1.736
2.0,-3.0,1.737
3.0,-1.0,1.738
1.0,-2.0,1.739
-1.0,-3.0,1.74
0.0,-8.0,1.741
-1.0,-4.0,1.742
0.0,2.0,1.743
4.0,3.0,1.744
6.0,2.0,1.745
4.0,3.0,1.746
2.0,4.0,1.747
4.0,2.0,1.748
5.0,0.0,1.749
0.0,0.0,1.75
-2.0,-1.0,1.751
0.0,-2.0,1.752
3.0,-2.0,1.753
2.0,2.0,1.754
0.0,3.0,1.755
0.0,0.0,1.756
3.0,-1.0,1.757
1.0,1.0,1.758
-1.0,3.0,1.759
-2.0,-1.0,1.76
-2.0,-8.0,1.761
-4.0,-7.0,1.762
-3.0,-3.0,1.763
7.0,-2.0,1.764
14.0,0.0,1.765
10.0,3.0,1.766
1.0,3.0,1.767
0.0,0.0,1.768
3.0,-2.0,1.769
3.0,-2.0,1.77
2.0,-1.0,1.771
3.0,-3.0,1.772
5.0,-2.0,1.773
2.0,1.0,1.774
-1.0,-1.0,1.775
-1.0,-5.0,1.776
3.0,-4.0,1.777
4.0,-3.0,1.778
4.0,-1.0,1.779
0.0,0.0,1.78
-2.0,-4.0,1.781
-4.0,-6.0,1.782
1.0,-4.0,1.783
7.0,-2.0,1.784
7.0,0.0,1.785
2.0,1.0,1.786
1.0,2.0,1.787
6.0,2.0,1.788
8.0,0.0,1.789
5.0,-1.0,1.79
2.0,-1.0,1.791
3.0,-1.0,1.792
4.0,-2.0,1.793
2.0,-2.0,1.794
0.0,0.0,1.795
0.0,1.0,1.796
3.0,1.0,1.797
2.0,0.0,1.798
1.0,-2.0,1.799
-2.0,-5.0,1.8
-2.0,-7.0,1.801
0.0,-5.0,1.802
3.0,-1.0,1.803
7.0,3.0,1.804
5.0,5.0,1.805
0.0,6.0,1.806
-2.0,2.0,1.807
1.0,0.0,1.808
3.0,0.0,1.809
1.0,4.0,1.81
1.0,4.0,1.811
4.0,0.0,1.812
6.0,-1.0,1.813
4.0,2.0,1.814
1.0,5.0,1.815
3.0,3.0,1.816
8.0,1.0,1.817
8.0,-1.0,1.818
2.0,-1.0,1.819
-3.0,-2.0,1.82
-6.0,-6.0,1.821
-4.0,-5.0,1.822
0.0,-3.0,1.823
6.0,-4.0,1.824
8.0,-2.0,1.825
6.0,1.0,1.826
1.0,4.0,1.827
0.0,0.0,1.828
1.0,-3.0,1.829
1.0,-1.0,1.83
0.0,0.0,1.831
-1.0,1.0,1.832
0.0,2.0,1.833
2.0,1.0,1.834
2.0,0.0,1.835
1.0,-2.0,1.836
1.0,-2.0,1.837
2.0,1.0,1.838
3.0,2.0,1.839
2.0,-3.0,1.84
-1.0,-9.0,1.841
-3.0,-8.0,1.842
1.0,-3.0,1.843
8.0,-1.0,1.844
7.0,-1.0,1.845
2.0,0.0,1.846
0.0,0.0,1.847
5.0,0.0,1.848
8.0,-1.0,1.849
3.0,1.0,1.85
0.0,3.0,1.851
0.0,1.0,1.852
0.0,1.0,1.853
0.0,1.0,1.854
2.0,-1.0,1.855
7.0,-3.0,1.856
9.0,-3.0,1.857
5.0,-1.0,1.858
0.0,0.0,1.859
-2.0,-3.0,1.86
-5.0,-9.0,1.861
-6.0,-9.0,1.862
-1.0,-3.0,1.863
7.0,1.0,1.864
10.0,4.0,1.865
3.0,3.0,1.866
-2.0,-1.0,1.867
1.0,-6.0,1.868
4.0,-5.0,1.869
2.0,-3.0,1.87
-1.0,-1.0,1.871
0.0,-2.0,1.872
4.0,1.0,1.873
5.0,6.0,1.874
3.0,6.0,1.875
2.0,0.0,1.876
3.0,-2.0,1.877
3.0,-1.0,1.878
3.0,-1.0,1.879
3.0,-5.0,1.88
1.0,-7.0,1.881
-1.0,-3.0,1.882
0.0,0.0,1.883
6.0,2.0,1.884
10.0,2.0,1.885
5.0,4.0,1.886
1.0,4.0,1.887
2.0,1.0,1.888
6.0,1.0,1.889
7.0,3.0,1.89
3.0,2.0,1.891
0.0,1.0,1.892
2.0,0.0,1.893
4.0,1.0,1.894
5.0,0.0,1.895
5.0,-5.0,1.896
5.0,-6.0,1.897
2.0,-4.0,1.898
-1.0,-2.0,1.899
-5.0,-1.0,1.9
-8.0,-2.0,1.901
-8.0,-3.0,1.902
0.0,-2.0,1.903
9.0,-1.0,1.904
12.0,-1.0,1.905
7.0,-2.0,1.906
2.0,0.0,1.907
1.0,1.0,1.908
3.0,1.0,1.909
4.0,0.0,1.91
5.0,0.0,1.911
5.0,1.0,1.912
5.0,0.0,1.913
3.0,-1.0,1.914
2.0,-1.0,1.915
3.0,-1.0,1.916
6.0,-2.0,1.917
5.0,-2.0,1.918
6.0,-1.0,1.919
0.0,1.0,1.92
-6.0,-3.0,1.921
-9.0,-7.0,1.922
-2.0,-8.0,1.923
6.0,-3.0,1.924
5.0,4.0,1.925
0.0,9.0,1.926
1.0,7.0,1.927
6.0,3.0,1.928
5.0,-1.0,1.929
-1.0,-3.0,1.93
-2.0,-5.0,1.931
3.0,-5.0,1.932
8.0,-2.0,1.933
4.0,2.0,1.934
0.0,2.0,1.935
0.0,0.0,1.936
3.0,-1.0,1.937
3.0,-3.0,1.938
2.0,-3.0,1.939
-1.0,-5.0,1.94
-4.0,-9.0,1.941
-5.0,-9.0,1.942
-1.0,-4.0,1.943
7.0,1.0,1.944
8.0,6.0,1.945
1.0,6.0,1.946
0.0,1.0,1.947
4.0,-2.0,1.948
6.0,0.0,1.949
1.0,3.0,1.95
-1.0,1.0,1.951
3.0,-4.0,1.952
7.0,-6.0,1.953
4.0,-1.0,1.954
1.0,3.0,1.955
2.0,1.0,1.956
5.0,0.0,1.957
5.0,-2.0,1.958
1.0,-1.0,1.959
-5.0,-1.0,1.96
-9.0,-4.0,1.961
-6.0,-5.0,1.962
1.0,-3.0,1.963
9.0,0.0,1.964
9.0,4.0,1.965
6.0,7.0,1.966
4.0,3.0,1.967
4.0,-2.0,1.968
2.0,-3.0,1.969
2.0,0.0,1.97
4.0,0.0,1.971
5.0,-3.0,1.972
4.0,-3.0,1.973
2.0,0.0,1.974
3.0,3.0,1.975
8.0,2.0,1.976
9.0,2.0,1.977
5.0,0.0,1.978
1.0,-1.0,1.979
-1.0,-3.0,1.98
-4.0,-6.0,1.981
-4.0,-4.0,1.982
1.0,-2.0,1.983
8.0,-2.0,1.984
7.0,0.0,1.985
3.0,3.0,1.986
3.0,4.0,1.987
6.0,1.0,1.988
8.0,-2.0,1.989
4.0,-1.0,1.99
1.0,0.0,1.991
1.0,0.0,1.992
0.0,-1.0,1.993
-1.0,-1.0,1.994
-1.0,-3.0,1.995
2.0,-3.0,1.996
5.0,0.0,1.997
5.0,0.0,1.998
2.0,0.0,1.999
-1.0,0.0,2.0
-5.0,-4.0,2.001
-6.0,-5.0,2.002
-1.0,-5.0,2.003
7.0,-1.0,2.004
8.0,4.0,2.005
4.0,4.0,2.006
2.0,1.0,2.007
3.0,-2.0,2.008
3.0,-1.0,2.009
0.0,1.0,2.01
1.0,3.0,2.011
3.0,4.0,2.012
1.0,3.0,2.013
0.0,-1.0,2.014
0.0,-5.0,2.015
3.0,-5.0,2.016
3.0,-1.0,2.017
1.0,0.0,2.018
-1.0,0.0,2.019
-4.0,-1.0,2.02
-6.0,-2.0,2.021
-5.0,-5.0,2.022
3.0,-7.0,2.023
13.0,-4.0,2.024
12.0,1.0,2.025
4.0,3.0,2.026
2.0,0.0,2.027
6.0,-2.0,2.028
6.0,0.0,2.029
0.0,2.0,2.03
-4.0,1.0,2.031
-3.0,-3.0,2.032
0.0,-4.0,2.033
2.0,0.0,2.034
2.0,2.0,2.035
2.0,2.0,2.036
2.0,1.0,2.037
0.0,-1.0,2.038
0.0,-3.0,2.039
0.0,-5.0,2.04
-2.0,-8.0,2.041
-3.0,-7.0,2.042
2.0,-5.0,2.043
9.0,-2.0,2.044
8.0,1.0,2.045
3.0,3.0,2.046
0.0,1.0,2.047
3.0,-1.0,2.048
5.0,-1.0,2.049
4.0,1.0,2.05
4.0,0.0,2.051
4.0,-2.0,2.052
4.0,-2.0,2.053
1.0,0.0,2.054
2.0,0.0,2.055
5.0,-2.0,2.056
7.0,-1.0,2.057
4.0,2.0,2.058
-1.0,1.0,2.059
-4.0,-2.0,2.06
-4.0,-5.0,2.061
-3.0,-2.0,2.062
0.0,0.0,2.063
6.0,-2.0,2.064
8.0,-3.0,2.065
7.0,1.0,2.066
5.0,4.0,2.067
5.0,1.0,2.068
4.0,-2.0,2.069
2.0,0.0,2.07
2.0,2.0,2.071
4.0,1.0,2.072
5.0,0.0,2.073
5.0,2.0,2.074
2.0,4.0,2.075
1.0,3.0,2.076
2.0,2.0,2.077
2.0,0.0,2.078
1.0,0.0,2.079
-4.0,-1.0,2.08
-9.0,-3.0,2.081
-7.0,-3.0,2.082
2.0,-3.0,2.083
12.0,-2.0,2.084
11.0,0.0,2.085
3.0,5.0,2.086
-1.0,4.0,2.087
-1.0,1.0,2.088
1.0,0.0,2.089
3.0,1.0,2.09
2.0,1.0,2.091
2.0,-4.0,2.092
1.0,-4.0,2.093
2.0,1.0,2.094
4.0,4.0,2.095
5.0,3.0,2.096
6.0,0.0,2.097
4.0,-3.0,2.098
1.0,-3.0,2.099
-4.0,-7.0,2.1
-7.0,-9.0,2.101
-8.0,-8.0,2.102
-2.0,-4.0,2.103
7.0,0.0,2.104
9.0,0.0,2.105
3.0,0.0,2.106
-2.0,0.0,2.107
0.0,-3.0,2.108
6.0,-5.0,2.109
10.0,-4.0,2.11
4.0,-5.0,2.111
0.0,-6.0,2.112
-2.0,-6.0,2.113
0.0,-3.0,2.114
2.0,1.0,2.115
3.0,-1.0,2.116
7.0,-3.0,2.117
7.0,-5.0,2.118
3.0,-4.0,2.119
-2.0,-2.0,2.12
-3.0,-4.0,2.121
0.0,-3.0,2.122
5.0,-1.0,2.123
8.0,1.0,2.124
7.0,3.0,2.125
7.0,4.0,2.126
5.0,4.0,2.127
5.0,4.0,2.128
3.0,6.0,2.129
2.0,6.0,2.13
2.0,2.0,2.131
2.0,-1.0,2.132
4.0,1.0,2.133
6.0,7.0,2.134
6.0,7.0,2.135
5.0,3.0,2.136
4.0,4.0,2.137
3.0,5.0,2.138
3.0,4.0,2.139
0.0,3.0,2.14
-6.0,1.0,2.141
-10.0,0.0,2.142
-1.0,0.0,2.143
6.0,1.0,2.144
6.0,3.0,2.145
4.0,5.0,2.146
2.0,4.0,2.147
1.0,2.0,2.148
1.0,-3.0,2.149
1.0,-7.0,2.15
1.0,-5.0,2.151
1.0,-3.0,2.152
1.0,-1.0,2.153
2.0,0.0,2.154
2.0,-2.0,2.155
0.0,-5.0,2.156
-1.0,-5.0,2.157
-3.0,-2.0,2.158
-5.0,-2.0,2.159
-6.0,-4.0,2.16
-9.0,-6.0,2.161
-10.0,-5.0,2.162
-2.0,-5.0,2.163
10.0,-4.0,2.164
14.0,-1.0,2.165
8.0,4.0,2.166
4.0,1.0,2.167
7.0,-3.0,2.168
8.0,-2.0,2.169
4.0,0.0,2.17
1.0,2.0,2.171
3.0,0.0,2.172
4.0,0.0,2.173
1.0,1.0,2.174
0.0,0.0,2.175
2.0,-1.0,2.176
5.0,0.0,2.177
2.0,-2.0,2.178
1.0,-4.0,2.179
0.0,-6.0,2.18
-4.0,-5.0,2.181
-6.0,-3.0,2.182
-2.0,-4.0,2.183
7.0,-3.0,2.184
9.0,2.0,2.185
3.0,3.0,2.186
-1.0,-1.0,2.187
4.0,-5.0,2.188
9.0,-3.0,2.189
7.0,1.0,2.19
1.0,2.0,2.191
0.0,0.0,2.192
1.0,0.0,2.193
0.0,-1.0,2.194
0.0,-4.0,2.195
4.0,-4.0,2.196
7.0,0.0,2.197
2.0,-2.0,2.198
-3.0,0.0,2.199
-5.0,0.0,2.2
-5.0,-1.0,2.201
-5.0,-3.0,2.202
-1.0,0.0,2.203
8.0,3.0,2.204
9.0,4.0,2.205
3.0,4.0,2.206
-1.0,2.0,2.207
2.0,1.0,2.208
6.0,1.0,2.209
1.0,0.0,2.21
-3.0,0.0,2.211
-1.0,1.0,2.212
5.0,0.0,2.213
6.0,-1.0,2.214
5.0,-2.0,2.215
4.0,-3.0,2.216
4.0,-3.0,2.217
6.0,-2.0,2.218
4.0,0.0,2.219
0.0,0.0,2.22
-2.0,-1.0,2.221
-3.0,-3.0,2.222
0.0,0.0,2.223
8.0,3.0,2.224
9.0,4.0,2.225
4.0,4.0,2.226
0.0,2.0,2.227
5.0,1.0,2.228
10.0,1.0,2.229
6.0,0.0,2.23
-1.0,0.0,2.231
0.0,1.0,2.232
4.0,0.0,2.233
4.0,-1.0,2.234
0.0,-2.0,2.235
-1.0,-3.0,2.236
3.0,-3.0,2.237
4.0,-3.0,2.238
0.0,-3.0,2.239
-4.0,-5.0,2.24
-7.0,-6.0,2.241
-7.0,-4.0,2.242
-1.0,-2.0,2.243
8.0,-2.0,2.244
13.0,1.0,2.245
7.0,6.0,2.246
1.0,4.0,2.247
2.0,-3.0,2.248
8.0,-7.0,2.249
7.0,-4.0,2.25
2.0,0.0,2.251
1.0,-1.0,2.252
3.0,-2.0,2.253
2.0,1.0,2.254
0.0,4.0,2.255
2.0,2.0,2.256
4.0,0.0,2.257
2.0,-4.0,2.258
-1.0,-2.0,2.259
-6.0,-2.0,2.26
-8.0,-5.0,2.261
-8.0,-7.0,2.262
-2.0,-6.0,2.263
7.0,0.0,2.264
9.0,5.0,2.265
4.0,6.0,2.266
3.0,4.0,2.267
7.0,0.0,2.268
8.0,0.0,2.269
2.0,1.0,2.27
1.0,1.0,2.271
6.0,1.0,2.272
10.0,0.0,2.273
4.0,0.0,2.274
2.0,1.0,2.275
3.0,0.0,2.276
4.0,0.0,2.277
0.0,-3.0,2.278
-2.0,-3.0,2.279
-3.0,-3.0,2.28
-3.0,-6.0,2.281
-2.0,-6.0,2.282
3.0,-4.0,2.283
10.0,-1.0,2.284
9.0,0.0,2.285
3.0,2.0,2.286
2.0,3.0,2.287
6.0,4.0,2.288
6.0,1.0,2.289
1.0,-1.0,2.29
-1.0,-1.0,2.291
2.0,0.0,2.292
5.0,0.0,2.293
2.0,-1.0,2.294
1.0,-2.0,2.295
1.0,-1.0,2.296
4.0,-1.0,2.297
2.0,-3.0,2.298
0.0,-3.0,2.299
-3.0,-4.0,2.3
-4.0,-4.0,2.301
-5.0,-4.0,2.302
0.0,-4.0,2.303
7.0,-2.0,2.304
9.0,0.0,2.305
4.0,2.0,2.306
0.0,2.0,2.307
0.0,3.0,2.308
0.0,3.0,2.309
-1.0,3.0,2.31
-3.0,1.0,2.311
-2.0,0.0,2.312
1.0,-3.0,2.313
3.0,-5.0,2.314
3.0,-3.0,2.315
1.0,0.0,2.316
1.0,1.0,2.317
2.0,3.0,2.318
3.0,3.0,2.319
0.0,0.0,2.32
-4.0,-3.0,2.321
-3.0,-4.0,2.322
3.0,-3.0,2.323
8.0,0.0,2.324
7.0,2.0,2.325
3.0,5.0,2.326
3.0,5.0,2.327
6.0,3.0,2.328
7.0,2.0,2.329
6.0,0.0,2.33
5.0,-3.0,2.331
5.0,-4.0,2.332
6.0,-2.0,2.333
6.0,0.0,2.334
7.0,-1.0,2.335
7.0,-4.0,2.336
7.0,-1.0,2.337
6.0,-1.0,2.338
2.0,-2.0,2.339
-3.0,-5.0,2.34
-8.0,-8.0,2.341
-8.0,-7.0,2.342
0.0,-5.0,2.343
8.0,-3.0,2.344
9.0,1.0,2.345
2.0,6.0,2.346
-2.0,6.0,2.347
0.0,0.0,2.348
4.0,-2.0,2.349
6.0,-2.0,2.35
6.0,-2.0,2.351
6.0,-2.0,2.352
5.0,-2.0,2.353
0.0,-1.0,2.354
-2.0,-1.0,2.355
0.0,-2.0,2.356
3.0,-1.0,2.357
3.0,-1.0,2.358
0.0,0.0,2.359
-4.0,1.0,2.36
-6.0,-1.0,2.361
-5.0,-1.0,2.362
0.0,-2.0,2.363
4.0,-2.0,2.364
4.0,-1.0,2.365
0.0,1.0,2.366
0.0,1.0,2.367
4.0,0.0,2.368
5.0,0.0,2.369
0.0,0.0,2.37
-4.0,0.0,2.371
-1.0,-1.0,2.372
5.0,-2.0,2.373
7.0,-2.0,2.374
5.0,-1.0,2.375
4.0,-1.0,2.376
6.0,2.0,2.377
4.0,2.0,2.378
1.0,1.0,2.379
0.0,-1.0,2.38
0.0,-4.0,2.381
0.0,-5.0,2.382
3.0,-5.0,2.383
10.0,-4.0,2.384
10.0,0.0,2.385
3.0,3.0,2.386
-1.0,2.0,2.387
1.0,0.0,2.388
4.0,0.0,2.389
2.0,1.0,2.39
2.0,0.0,2.391
7.0,-2.0,2.392
7.0,-2.0,2.393
1.0,2.0,2.394
-3.0,3.0,2.395
-1.0,2.0,2.396
3.0,4.0,2.397
1.0,3.0,2.398
0.0,1.0,2.399
-2.0,-2.0,2.4
-4.0,-6.0,2.401
-2.0,-6.0,2.402
4.0,-6.0,2.403
9.0,-5.0,2.404
9.0,-2.0,2.405
4.0,0.0,2.406
5.0,1.0,2.407
9.0,-1.0,2.408
8.0,-2.0,2.409
2.0,0.0,2.41
-2.0,0.0,2.411
0.0,0.0,2.412
1.0,-2.0,2.413
1.0,1.0,2.414
2.0,3.0,2.415
2.0,0.0,2.416
1.0,-1.0,2.417
-1.0,-2.0,2.418
-1.0,-1.0,2.419
-1.0,-1.0,2.42
0.0,-7.0,2.421
2.0,-7.0,2.422
5.0,-2.0,2.423
8.0,3.0,2.424
6.0,3.0,2.425
2.0,0.0,2.426
3.0,-1.0,2.427
5.0,-1.0,2.428
5.0,-3.0,2.429
3.0,-3.0,2.43
2.0,-1.0,2.431
3.0,0.0,2.432
3.0,-2.0,2.433
2.0,-4.0,2.434
0.0,-2.0,2.435
2.0,-1.0,2.436
3.0,-1.0,2.437
3.0,-3.0,2.438
1.0,-3.0,2.439
-5.0,-2.0,2.44
-8.0,-6.0,2.441
-5.0,-6.0,2.442
4.0,0.0,2.443
12.0,3.0,2.444
11.0,3.0,2.445
7.0,3.0,2.446
4.0,4.0,2.447
3.0,3.0,2.448
1.0,1.0,2.449
0.0,0.0,2.45
0.0,0.0,2.451
3.0,1.0,2.452
6.0,2.0,2.453
6.0,2.0,2.454
3.0,1.0,2.455
1.0,-1.0,2.456
2.0,0.0,2.457
2.0,-5.0,2.458
2.0,-1.0,2.459
-2.0,0.0,2.46
-5.0,-6.0,2.461
-5.0,-8.0,2.462
2.0,-1.0,2.463
11.0,3.0,2.464
13.0,3.0,2.465
6.0,3.0,2.466
1.0,1.0,2.467
2.0,0.0,2.468
6.0,-1.0,2.469
4.0,-2.0,2.47
0.0,0.0,2.471
0.0,1.0,2.472
3.0,0.0,2.473
5.0,-2.0,2.474
5.0,-2.0,2.475
3.0,-1.0,2.476
2.0,-1.0,2.477
-1.0,-4.0,2.478
-2.0,-1.0,2.479
-4.0,0.0,2.48
-7.0,-5.0,2.481
-9.0,-7.0,2.482
-4.0,-1.0,2.483
4.0,3.0,2.484
6.0,3.0,2.485
2.0,3.0,2.486
0.0,1.0,2.487
1.0,0.0,2.488
2.0,-1.0,2.489
0.0,-2.0,2.49
2.0,0.0,2.491
6.0,1.0,2.492
4.0,0.0,2.493
0.0,-2.0,2.494
0.0,-2.0,2.495
5.0,-1.0,2.496
6.0,-1.0,2.497
3.0,0.0,2.498
1.0,0.0,2.499
0.0,-2.0,2.5
-1.0,-7.0,2.501
-4.0,-8.0,2.502
-1.0,-6.0,2.503
8.0,-2.0,2.504
10.0,2.0,2.505
4.0,3.0,2.506
-1.0,1.0,2.507
1.0,-1.0,2.508
4.0,0.0,2.509
3.0,1.0,2.51
2.0,-1.0,2.511
2.0,-3.0,2.512
2.0,-2.0,2.513
1.0,1.0,2.514
2.0,2.0,2.515
4.0,-1.0,2.516
5.0,-1.0,2.517
3.0,0.0,2.518
2.0,1.0,2.519
1.0,-1.0,2.52
-1.0,-6.0,2.521
-2.0,-5.0,2.522
3.0,-4.0,2.523
11.0,-4.0,2.524
10.0,0.0,2.525
1.0,5.0,2.526
-3.0,3.0,2.527
0.0,-3.0,2.528
4.0,-5.0,2.529
4.0,-1.0,2.53
1.0,0.0,2.531
0.0,-1.0,2.532
3.0,-1.0,2.533
3.0,4.0,2.534
1.0,5.0,2.535
0.0,2.0,2.536
2.0,1.0,2.537
4.0,2.0,2.538
4.0,1.0,2.539
-1.0,-5.0,2.54
-5.0,-8.0,2.541
-6.0,-7.0,2.542
-1.0,-3.0,2.543
6.0,-4.0,2.544
10.0,-2.0,2.545
6.0,3.0,2.546
1.0,7.0,2.547
-2.0,5.0,2.548
-1.0,4.0,2.549
2.0,3.0,2.55
3.0,2.0,2.551
1.0,-1.0,2.552
0.0,-1.0,2.553
2.0,2.0,2.554
4.0,3.0,2.555
6.0,0.0,2.556
5.0,-2.0,2.557
2.0,-4.0,2.558
0.0,-4.0,2.559
-5.0,-5.0,2.56
-9.0,-8.0,2.561
-5.0,-9.0,2.562
5.0,-7.0,2.563
14.0,-2.0,2.564
11.0,4.0,2.565
3.0,5.0,2.566
1.0,1.0,2.567
7.0,-2.0,2.568
10.0,-2.0,2.569
8.0,1.0,2.57
4.0,2.0,2.571
3.0,1.0,2.572
3.0,0.0,2.573
2.0,0.0,2.574
2.0,-3.0,2.575
4.0,-6.0,2.576
3.0,-2.0,2.577
1.0,-1.0,2.578
0.0,0.0,2.579
-1.0,-4.0,2.58
-3.0,-8.0,2.581
-2.0,-6.0,2.582
4.0,-2.0,2.583
10.0,1.0,2.584
10.0,5.0,2.585
3.0,6.0,2.586
1.0,4.0,2.587
4.0,0.0,2.588
5.0,-1.0,2.589
1.0,1.0,2.59
-1.0,3.0,2.591
0.0,3.0,2.592
0.0,2.0,2.593
0.0,1.0,2.594
2.0,0.0,2.595
6.0,-3.0,2.596
6.0,-3.0,2.597
1.0,-3.0,2.598
-2.0,-3.0,2.599
-4.0,-3.0,2.6
-6.0,-4.0,2.601
-5.0,-1.0,2.602
2.0,1.0,2.603
9.0,0.0,2.604
5.0,1.0,2.605
0.0,2.0,2.606
1.0,2.0,2.607
5.0,1.0,2.608
5.0,0.0,2.609
1.0,0.0,2.61
1.0,-2.0,2.611
4.0,-2.0,2.612
3.0,0.0,2.613
-1.0,4.0,2.614
-2.0,4.0,2.615
2.0,2.0,2.616
6.0,2.0,2.617
6.0,0.0,2.618
1.0,-2.0,2.619
-1.0,-6.0,2.62
-2.0,-8.0,2.621
-1.0,-5.0,2.622
1.0,-5.0,2.623
7.0,-6.0,2.624
10.0,-2.0,2.625
7.0,2.0,2.626
3.0,1.0,2.627
3.0,-4.0,2.628
7.0,-4.0,2.629
7.0,1.0,2.63
2.0,3.0,2.631
-1.0,-1.0,2.632
2.0,-3.0,2.633
5.0,0.0,2.634
2.0,2.0,2.635
-1.0,0.0,2.636
1.0,-2.0,2.637
5.0,-3.0,2.638
4.0,-1.0,2.639
-3.0,-4.0,2.64
-8.0,-8.0,2.641
-8.0,-7.0,2.642
-1.0,-3.0,2.643
8.0,-2.0,2.644
12.0,-2.0,2.645
8.0,1.0,2.646
4.0,5.0,2.647
5.0,4.0,2.648
9.0,-1.0,2.649
6.0,-2.0,2.65
1.0,2.0,2.651
0.0,4.0,2.652
0.0,1.0,2.653
1.0,0.0,2.654
2.0,3.0,2.655
3.0,4.0,2.656
6.0,3.0,2.657
2.0,-4.0,2.658
-2.0,-4.0,2.659
-7.0,-1.0,2.66
-9.0,-4.0,2.661
-6.0,-5.0,2.662
0.0,-4.0,2.663
8.0,1.0,2.664
8.0,4.0,2.665
2.0,3.0,2.666
1.0,0.0,2.667
7.0,-1.0,2.668
10.0,-2.0,2.669
6.0,0.0,2.67
1.0,1.0,2.671
4.0,-1.0,2.672
7.0,-3.0,2.673
7.0,-3.0,2.674
2.0,0.0,2.675
1.0,1.0,2.676
4.0,0.0,2.677
5.0,-4.0,2.678
3.0,-2.0,2.679
-2.0,2.0,2.68
-5.0,0.0,2.681
-3.0,-6.0,2.682
6.0,-8.0,2.683
14.0,-3.0,2.684
11.0,3.0,2.685
2.0,5.0,2.686
-2.0,1.0,2.687
1.0,-2.0,2.688
4.0,-3.0,2.689
2.0,0.0,2.69
1.0,0.0,2.691
3.0,-1.0,2.692
2.0,-2.0,2.693
0.0,0.0,2.694
0.0,3.0,2.695
4.0,3.0,2.696
9.0,2.0,2.697
4.0,-1.0,2.698
-2.0,-1.0,2.699
-5.0,-2.0,2.7
-7.0,-4.0,2.701
-6.0,-5.0,2.702
-2.0,-3.0,2.703
3.0,0.0,2.704
7.0,2.0,2.705
3.0,3.0,2.706
1.0,2.0,2.707
5.0,2.0,2.708
8.0,1.0,2.709
5.0,1.0,2.71
1.0,2.0,2.711
2.0,0.0,2.712
3.0,-3.0,2.713
0.0,-2.0,2.714
-2.0,0.0,2.715
1.0,0.0,2.716
7.0,-1.0,2.717
8.0,-3.0,2.718
2.0,-2.0,2.719
-3.0,-2.0,2.72
-6.0,-7.0,2.721
-8.0,-6.0,2.722
-4.0,-3.0,2.723
4.0,-1.0,2.724
8.0,-2.0,2.725
2.0,-1.0,2.726
-2.0,2.0,2.727
2.0,3.0,2.728
7.0,2.0,2.729
6.0,1.0,2.73
2.0,0.0,2.731
2.0,-3.0,2.732
3.0,-5.0,2.733
1.0,-5.0,2.734
-1.0,-2.0,2.735
0.0,-2.0,2.736
2.0,-1.0,2.737
0.0,-3.0,2.738
-1.0,-3.0,2.739
0.0,-4.0,2.74
0.0,-5.0,2.741
-1.0,-3.0,2.742
3.0,0.0,2.743
10.0,2.0,2.744
12.0,2.0,2.745
6.0,4.0,2.746
1.0,3.0,2.747
5.0,1.0,2.748
9.0,0.0,2.749
5.0,2.0,2.75
-1.0,2.0,2.751
-3.0,-1.0,2.752
-7.0,-3.0,2.753
-22.0,-2.0,2.754
-43.0,0.0,2.755
-49.0,-2.0,2.756
-30.0,-3.0,2.757
-1.0,-2.0,2.758
17.0,-2.0,2.759
19.0,-2.0,2.76
19.0,-6.0,2.761
36.0,-5.0,2.762
60.0,-1.0,2.763
70.0,0.0,2.764
54.0,5.0,2.765
23.0,10.0,2.766
2.0,9.0,2.767
-2.0,4.0,2.768
1.0,0.0,2.769
-2.0,0.0,2.77
-7.0,2.0,2.771
-8.0,0.0,2.772
-6.0,-2.0,2.773
-9.0,0.0,2.774
-12.0,3.0,2.775
-10.0,1.0,2.776
-4.0,-2.0,2.777
0.0,-3.0,2.778
0.0,-3.0,2.779
-5.0,-6.0,2.78
-10.0,-10.0,2.781
-16.0,-9.0,2.782
-16.0,-6.0,2.783
-12.0,-4.0,2.784
-10.0,-2.0,2.785
-9.0,3.0,2.786
-5.0,5.0,2.787
6.0,1.0,2.788
15.0,0.0,2.789
16.0,5.0,2.79
16.0,8.0,2.791
18.0,4.0,2.792
17.0,0.0,2.793
10.0,0.0,2.794
4.0,1.0,2.795
2.0,-2.0,2.796
4.0,-3.0,2.797
1.0,-4.0,2.798
-1.0,-1.0,2.799
-2.0,0.0,2.8
-4.0,-5.0,2.801
-6.0,-5.0,2.802
-2.0,-3.0,2.803
6.0,0.0,2.804
7.0,1.0,2.805
1.0,3.0,2.806
-1.0,1.0,2.807
4.0,-1.0,2.808
6.0,-1.0,2.809
2.0,1.0,2.81
-3.0,4.0,2.811
-1.0,5.0,2.812
1.0,4.0,2.813
1.0,2.0,2.814
2.0,2.0,2.815
6.0,2.0,2.816
8.0,5.0,2.817
3.0,1.0,2.818
-5.0,-7.0,2.819
-10.0,-15.0,2.82
-11.0,-21.0,2.821
-8.0,-18.0,2.822
-1.0,-12.0,2.823
6.0,-3.0,2.824
7.0,5.0,2.825
5.0,11.0,2.826
7.0,11.0,2.827
12.0,8.0,2.828
13.0,2.0,2.829
8.0,-4.0,2.83
7.0,-11.0,2.831
5.0,-14.0,2.832
-3.0,-11.0,2.833
-16.0,-3.0,2.834
-16.0,1.0,2.835
-3.0,1.0,2.836
8.0,3.0,2.837
10.0,6.0,2.838
9.0,8.0,2.839
9.0,7.0,2.84
8.0,5.0,2.841
6.0,7.0,2.842
12.0,10.0,2.843
20.0,10.0,2.844
19.0,11.0,2.845
5.0,9.0,2.846
-3.0,6.0,2.847
3.0,1.0,2.848
16.0,-3.0,2.849
18.0,-8.0,2.85
11.0,-14.0,2.851
2.0,-18.0,2.852
-4.0,-14.0,2.853
-7.0,-7.0,2.854
-5.0,-1.0,2.855
-1.0,1.0,2.856
-3.0,5.0,2.857
-12.0,8.0,2.858
-14.0,7.0,2.859
-7.0,1.0,2.86
0.0,-3.0,2.861
3.0,0.0,2.862
6.0,2.0,2.863
13.0,2.0,2.864
11.0,-1.0,2.865
-1.0,-2.0,2.866
-9.0,-5.0,2.867
-2.0,-7.0,2.868
7.0,-3.0,2.869
10.0,3.0,2.87
6.0,3.0,2.871
8.0,-2.0,2.872
14.0,-3.0,2.873
17.0,1.0,2.874
20.0,5.0,2.875
20.0,4.0,2.876
16.0,6.0,2.877
4.0,9.0,2.878
-2.0,10.0,2.879
-3.0,2.0,2.88
-7.0,-12.0,2.881
-14.0,-15.0,2.882
-17.0,-9.0,2.883
-10.0,0.0,2.884
-4.0,1.0,2.885
-6.0,-5.0,2.886
-12.0,-12.0,2.887
-15.0,-12.0,2.888
-15.0,-5.0,2.889
-8.0,0.0,2.89
4.0,-3.0,2.891
18.0,-6.0,2.892
20.0,-4.0,2.893
15.0,3.0,2.894
12.0,4.0,2.895
14.0,0.0,2.896
15.0,3.0,2.897
14.0,8.0,2.898
12.0,11.0,2.899
7.0,7.0,2.9
-2.0,0.0,2.901
-6.0,0.0,2.902
0.0,4.0,2.903
8.0,5.0,2.904
4.0,0.0,2.905
-5.0,-7.0,2.906
-6.0,-9.0,2.907
2.0,-5.0,2.908
6.0,2.0,2.909
2.0,2.0,2.91
-3.0,-3.0,2.911
-6.0,-8.0,2.912
-10.0,-8.0,2.913
-12.0,-10.0,2.914
-8.0,-11.0,2.915
0.0,-5.0,2.916
8.0,9.0,2.917
10.0,15.0,2.918
11.0,9.0,2.919
7.0,0.0,2.92
1.0,-4.0,2.921
-1.0,-2.0,2.922
2.0,-7.0,2.923
3.0,-12.0,2.924
-1.0,-9.0,2.925
-4.0,-1.0,2.926
-1.0,2.0,2.927
4.0,-2.0,2.928
2.0,-3.0,2.929
-1.0,3.0,2.93
5.0,10.0,2.931
15.0,12.0,2.932
17.0,11.0,2.933
13.0,6.0,2.934
11.0,-1.0,2.935
10.0,-7.0,2.936
5.0,-7.0,2.937
-2.0,-7.0,2.938
-8.0,-8.0,2.939
-11.0,-11.0,2.94
-14.0,-11.0,2.941
-16.0,-6.0,2.942
-5.0,-2.0,2.943
12.0,-3.0,2.944
16.0,-4.0,2.945
5.0,0.0,2.946
-5.0,3.0,2.947
0.0,3.0,2.948
10.0,2.0,2.949
9.0,-1.0,2.95
-1.0,-4.0,2.951
-1.0,-5.0,2.952
7.0,0.0,2.953
12.0,9.0,2.954
9.0,10.0,2.955
4.0,4.0,2.956
5.0,3.0,2.957
10.0,4.0,2.958
6.0,4.0,2.959
0.0,-1.0,2.96
-4.0,-6.0,2.961
-3.0,-4.0,2.962
0.0,-1.0,2.963
5.0,0.0,2.964
8.0,4.0,2.965
7.0,9.0,2.966
1.0,6.0,2.967
-2.0,-4.0,2.968
-2.0,-9.0,2.969
0.0,-4.0,2.97
4.0,2.0,2.971
7.0,4.0,2.972
7.0,4.0,2.973
3.0,7.0,2.974
0.0,10.0,2.975
3.0,10.0,2.976
11.0,8.0,2.977
9.0,-3.0,2.978
1.0,-13.0,2.979
-6.0,-15.0,2.98
-4.0,-6.0,2.981
3.0,6.0,2.982
10.0,6.0,2.983
13.0,-9.0,2.984
10.0,-21.0,2.985
5.0,-19.0,2.986
4.0,-6.0,2.987
2.0,0.0,2.988
-2.0,-7.0,2.989
-8.0,-18.0,2.99
-8.0,-21.0,2.991
-3.0,-10.0,2.992
0.0,4.0,2.993
-2.0,11.0,2.994
0.0,12.0,2.995
9.0,9.0,2.996
16.0,6.0,2.997
12.0,0.0,2.998
5.0,-2.0,2.999
2.0,2.0,3.0
2.0,8.0,3.001
5.0,8.0,3.002
9.0,0.0,3.003
11.0,-4.0,3.004
5.0,1.0,3.005
-7.0,11.0,3.006
-16.0,14.0,3.007
-20.0,3.0,3.008
-23.0,-13.0,3.009
-22.0,-24.0,3.01
-10.0,-23.0,3.011
11.0,-11.0,3.012
28.0,-2.0,3.013
33.0,2.0,3.014
20.0,-4.0,3.015
5.0,-8.0,3.016
4.0,-2.0,3.017
16.0,6.0,3.018
25.0,16.0,3.019
16.0,25.0,3.02
-3.0,32.0,3.021
-14.0,34.0,3.022
-9.0,26.0,3.023
1.0,10.0,3.024
1.0,-3.0,3.025
-13.0,-13.0,3.026
-33.0,-20.0,3.027
-49.0,-24.0,3.028
-45.0,-14.0,3.029
-19.0,4.0,3.03
11.0,17.0,3.031
19.0,9.0,3.032
5.0,-6.0,3.033
-6.0,-11.0,3.034
4.0,-8.0,3.035
23.0,-11.0,3.036
32.0,-24.0,3.037
29.0,-37.0,3.038
31.0,-29.0,3.039
43.0,-7.0,3.04
53.0,9.0,3.041
49.0,9.0,3.042
35.0,-2.0,3.043
18.0,-8.0,3.044
2.0,-2.0,3.045
-10.0,9.0,3.046
-14.0,18.0,3.047
-15.0,25.0,3.048
-23.0,29.0,3.049
-38.0,25.0,3.05
-48.0,9.0,3.051
-43.0,-3.0,3.052
-19.0,4.0,3.053
6.0,21.0,3.054
18.0,17.0,3.055
6.0,-12.0,3.056
-13.0,-32.0,3.057
-26.0,-22.0,3.058
-34.0,7.0,3.059
-51.0,23.0,3.06
-82.0,10.0,3.061
-105.0,-10.0,3.062
-96.0,-23.0,3.063
-58.0,-34.0,3.064
-5.0,-42.0,3.065
59.0,-40.0,3.066
133.0,-26.0,3.067
185.0,-4.0,3.068
182.0,19.0,3.069
127.0,38.0,3.07
70.0,44.0,3.071
40.0,27.0,3.072
20.0,-3.0,3.073
-7.0,-18.0,3.074
-19.0,-7.0,3.075
4.0,6.0,3.076
43.0,2.0,3.077
53.0,-6.0,3.078
21.0,9.0,3.079
-39.0,36.0,3.08
-96.0,30.0,3.081
-119.0,-5.0,3.082
-84.0,-24.0,3.083
-6.0,-5.0,3.084
51.0,17.0,3.085
51.0,13.0,3.086
35.0,2.0,3.087
63.0,15.0,3.088
117.0,34.0,3.089
126.0,21.0,3.09
69.0,-25.0,3.091
-2.0,-73.0,3.092
-47.0,-98.0,3.093
-68.0,-91.0,3.094
-78.0,-54.0,3.095
-69.0,-8.0,3.096
-45.0,10.0,3.097
-40.0,-6.0,3.098
-70.0,-30.0,3.099
-105.0,-37.0,3.1
-96.0,-32.0,3.101
-46.0,-14.0,3.102
10.0,15.0,3.103
49.0,46.0,3.104
68.0,52.0,3.105
66.0,36.0,3.106
47.0,27.0,3.107
26.0,29.0,3.108
8.0,26.0,3.109
-16.0,11.0,3.11
-45.0,-2.0,3.111
-48.0,-2.0,3.112
-10.0,3.0,3.113
29.0,10.0,3.114
24.0,11.0,3.115
-14.0,4.0,3.116
-33.0,-7.0,3.117
-10.0,-5.0,3.118
44.0,21.0,3.119
99.0,51.0,3.12
132.0,54.0,3.121
120.0,32.0,3.122
57.0,0.0,3.123
-22.0,-25.0,3.124
-74.0,-27.0,3.125
-94.0,-13.0,3.126
-114.0,-8.0,3.127
-137.0,-24.0,3.128
-128.0,-35.0,3.129
-77.0,-13.0,3.13
-24.0,13.0,3.131
-6.0,11.0,3.132
-4.0,-4.0,3.133
23.0,9.0,3.134
79.0,49.0,3.135
119.0,68.0,3.136
123.0,43.0,3.137
97.0,-3.0,3.138
49.0,-26.0,3.139
-35.0,-23.0,3.14
-134.0,-25.0,3.141
-172.0,-38.0,3.142
-104.0,-46.0,3.143
2.0,-39.0,3.144
40.0,-24.0,3.145
12.0,-13.0,3.146
5.0,-8.0,3.147
42.0,0.0,3.148
48.0,8.0,3.149
1.0,14.0,3.15
-34.0,22.0,3.151
-18.0,38.0,3.152
12.0,52.0,3.153
27.0,53.0,3.154
48.0,41.0,3.155
78.0,28.0,3.156
83.0,17.0,3.157
55.0,11.0,3.158
44.0,14.0,3.159
64.0,19.0,3.16
76.0,6.0,3.161
51.0,-27.0,3.162
8.0,-72.0,3.163
-21.0,-102.0,3.164
-21.0,-89.0,3.165
9.0,-31.0,3.166
57.0,37.0,3.167
83.0,68.0,3.168
71.0,59.0,3.169
33.0,53.0,3.17
-18.0,65.0,3.171
-97.0,69.0,3.172
-191.0,52.0,3.173
-241.0,36.0,3.174
-204.0,30.0,3.175
-104.0,2.0,3.176
3.0,-49.0,3.177
79.0,-94.0,3.178
98.0,-93.0,3.179
61.0,-60.0,3.18
21.0,-55.0,3.181
23.0,-92.0,3.182
60.0,-140.0,3.183
98.0,-152.0,3.184
111.0,-107.0,3.185
96.0,-42.0,3.186
52.0,-12.0,3.187
9.0,-28.0,3.188
12.0,-35.0,3.189
57.0,0.0,3.19
83.0,43.0,3.191
51.0,48.0,3.192
1.0,32.0,3.193
-31.0,45.0,3.194
-74.0,83.0,3.195
-168.0,86.0,3.196
-262.0,43.0,3.197
-268.0,-8.0,3.198
-159.0,-13.0,3.199
-34.0,23.0,3.2
17.0,51.0,3.201
30.0,41.0,3.202
110.0,12.0,3.203
256.0,-1.0,3.204
354.0,19.0,3.205
313.0,47.0,3.206
178.0,52.0,3.207
65.0,29.0,3.208
28.0,9.0,3.209
22.0,14.0,3.21
-21.0,24.0,3.211
-104.0,10.0,3.212
-165.0,-5.0,3.213
-168.0,6.0,3.214
-140.0,19.0,3.215
-123.0,-6.0,3.216
-111.0,-48.0,3.217
-89.0,-55.0,3.218
-74.0,-24.0,3.219
-87.0,-9.0,3.22
-97.0,-26.0,3.221
-67.0,-23.0,3.222
-17.0,19.0,3.223
13.0,68.0,3.224
37.0,101.0,3.225
102.0,128.0,3.226
191.0,158.0,3.227
232.0,187.0,3.228
192.0,212.0,3.229
106.0,203.0,3.23
10.0,98.0,3.231
-68.0,-99.0,3.232
-84.0,-284.0,3.233
-14.0,-350.0,3.234
70.0,-311.0,3.235
58.0,-238.0,3.236
-54.0,-165.0,3.237
-167.0,-89.0,3.238
-196.0,-32.0,3.239
-192.0,-17.0,3.24
-84.0,-31.0,3.241
25.0,-39.0,3.242
134.0,-39.0,3.243
210.0,-28.0,3.244
183.0,12.0,3.245
149.0,65.0,3.246
94.0,86.0,3.247
51.0,72.0,3.248
45.0,58.0,3.249
31.0,56.0,3.25
-10.0,44.0,3.251
-45.0,42.0,3.252
-59.0,90.0,3.253
-84.0,159.0,3.254
-144.0,165.0,3.255
-186.0,95.0,3.256
-176.0,18.0,3.257
-136.0,-40.0,3.258
-28.0,-92.0,3.259
0.0,-130.0,3.26
-15.0,-115.0,3.261
-1.0,-46.0,3.262
37.0,-1.0,3.263
44.0,-35.0,3.264
23.0,-112.0,3.265
29.0,-161.0,3.266
77.0,-154.0,3.267
125.0,-106.0,3.268
142.0,-39.0,3.269
138.0,19.0,3.27
126.0,52.0,3.271
84.0,60.0,3.272
-4.0,66.0,3.273
-110.0,73.0,3.274
-170.0,69.0,3.275
-158.0,55.0,3.276
-106.0,53.0,3.277
-37.0,72.0,3.278
56.0,91.0,3.279
171.0,84.0,3.28
252.0,51.0,3.281
237.0,20.0,3.282
135.0,7.0,3.283
18.0,31.0,3.284
-64.0,76.0,3.285
-109.0,95.0,3.286
-120.0,56.0,3.287
-86.0,-8.0,3.288
-27.0,-43.0,3.289
0.0,-51.0,3.29
-23.0,-66.0,3.291
-61.0,-89.0,3.292
-75.0,-84.0,3.293
-79.0,-48.0,3.294
-92.0,-15.0,3.295
-81.0,0.0,3.296
-7.0,11.0,3.297
107.0,14.0,3.298
157.0,-6.0,3.299
74.0,-33.0,3.3
-79.0,-49.0,3.301
-162.0,-48.0,3.302
-88.0,-40.0,3.303
75.0,-16.0,3.304
173.0,20.0,3.305
134.0,40.0,3.306
39.0,27.0,3.307
8.0,3.0,3.308
49.0,-11.0,3.309
90.0,-16.0,3.31
111.0,0.0,3.311
149.0,59.0,3.312
179.0,139.0,3.313
119.0,168.0,3.314
-30.0,119.0,3.315
-157.0,47.0,3.316
-197.0,17.0,3.317
-215.0,13.0,3.318
-263.0,-8.0,3.319
-291.0,-54.0,3.32
-231.0,-79.0,3.321
-127.0,-62.0,3.322
-64.0,-37.0,3.323
-41.0,-40.0,3.324
-11.0,-73.0,3.325
23.0,-113.0,3.326
34.0,-138.0,3.327
57.0,-132.0,3.328
144.0,-94.0,3.329
267.0,-41.0,3.33
344.0,10.0,3.331
322.0,55.0,3.332
207.0,79.0,3.333
27.0,58.0,3.334
-155.0,-9.0,3.335
-260.0,-76.0,3.336
-268.0,-91.0,3.337
-230.0,-45.0,3.338
-189.0,25.0,3.339
-125.0,67.0,3.34
-6.0,46.0,3.341
134.0,-4.0,3.342
233.0,-21.0,3.343
246.0,22.0,3.344
174.0,79.0,3.345
66.0,86.0,3.346
15.0,45.0,3.347
62.0,4.0,3.348
107.0,-11.0,3.349
21.0,-17.0,3.35
-169.0,-13.0,3.351
-290.0,20.0,3.352
-252.0,72.0,3.353
-145.0,91.0,3.354
-73.0,57.0,3.355
-33.0,9.0,3.356
16.0,-6.0,3.357
58.0,-4.0,3.358
54.0,-10.0,3.359
22.0,-32.0,3.36
30.0,-45.0,3.361
114.0,-33.0,3.362
239.0,-12.0,3.363
317.0,4.0,3.364
268.0,25.0,3.365
98.0,55.0,3.366
-92.0,53.0,3.367
-205.0,-13.0,3.368
-220.0,-107.0,3.369
-181.0,-143.0,3.37
-134.0,-86.0,3.371
-98.0,-1.0,3.372
-49.0,34.0,3.373
36.0,21.0,3.374
136.0,3.0,3.375
181.0,4.0,3.376
158.0,7.0,3.377
126.0,5.0,3.378
133.0,16.0,3.379
133.0,48.0,3.38
86.0,98.0,3.381
41.0,169.0,3.382
61.0,233.0,3.383
98.0,219.0,3.384
67.0,90.0,3.385
-36.0,-91.0,3.386
-145.0,-223.0,3.387
-218.0,-266.0,3.388
-240.0,-225.0,3.389
-191.0,-94.0,3.39
-82.0,114.0,3.391
16.0,278.0,3.392
45.0,246.0,3.393
26.0,23.0,3.394
0.0,-205.0,3.395
-15.0,-293.0,3.396
-13.0,-271.0,3.397
20.0,-224.0,3.398
73.0,-158.0,3.399
103.0,-38.0,3.4
101.0,89.0,3.401
80.0,140.0,3.402
27.0,99.0,3.403
-67.0,31.0,3.404
-158.0,-25.0,3.405
-191.0,-73.0,3.406
-173.0,-91.0,3.407
-145.0,-41.0,3.408
-98.0,37.0,3.409
-6.0,53.0,3.41
76.0,-7.0,3.411
71.0,-57.0,3.412
6.0,-34.0,3.413
-7.0,24.0,3.414
49.0,56.0,3.415
88.0,57.0,3.416
68.0,59.0,3.417
35.0,56.0,3.418
36.0,35.0,3.419
34.0,4.0,3.42
-5.0,0.0,3.421
-49.0,34.0,3.422
-47.0,76.0,3.423
-10.0,99.0,3.424
16.0,113.0,3.425
15.0,126.0,3.426
4.0,114.0,3.427
14.0,54.0,3.428
52.0,-20.0,3.429
76.0,-55.0,3.43
-1.0,-43.0,3.431
-187.0,-33.0,3.432
-342.0,-46.0,3.433
-287.0,-66.0,3.434
-43.0,-77.0,3.435
165.0,-74.0,3.436
179.0,-58.0,3.437
68.0,-26.0,3.438
41.0,9.0,3.439
170.0,28.0,3.44
319.0,35.0,3.441
341.0,56.0,3.442
256.0,78.0,3.443
182.0,71.0,3.444
158.0,48.0,3.445
123.0,56.0,3.446
55.0,102.0,3.447
12.0,134.0,3.448
25.0,113.0,3.449
29.0,73.0,3.45
-31.0,53.0,3.451
-97.0,39.0,3.452
-90.0,-19.0,3.453
-22.0,-120.0,3.454
41.0,-210.0,3.455
76.0,-232.0,3.456
88.0,-167.0,3.457
53.0,-26.0,3.458
-37.0,107.0,3.459
-144.0,107.0,3.46
-224.0,-61.0,3.461
-283.0,-258.0,3.462
-321.0,-310.0,3.463
-292.0,-207.0,3.464
-185.0,-71.0,3.465
-84.0,27.0,3.466
-45.0,96.0,3.467
-23.0,127.0,3.468
22.0,83.0,3.469
59.0,-6.0,3.47
65.0,-51.0,3.471
101.0,-36.0,3.472
180.0,-17.0,3.473
202.0,-7.0,3.474
100.0,25.0,3.475
-47.0,47.0,3.476
-118.0,1.0,3.477
-118.0,-89.0,3.478
-108.0,-100.0,3.479
-135.0,-2.0,3.48
-191.0,73.0,3.481
-249.0,43.0,3.482
-246.0,-1.0,3.483
-128.0,45.0,3.484
56.0,133.0,3.485
182.0,149.0,3.486
208.0,95.0,3.487
210.0,47.0,3.488
236.0,20.0,3.489
219.0,-9.0,3.49
103.0,-10.0,3.491
-48.0,61.0,3.492
-131.0,128.0,3.493
-130.0,69.0,3.494
-103.0,-99.0,3.495
-81.0,-223.0,3.496
-48.0,-208.0,3.497
19.0,-113.0,3.498
107.0,-38.0,3.499
165.0,0.0,3.5
158.0,35.0,3.501
81.0,68.0,3.502
-34.0,75.0,3.503
-140.0,68.0,3.504
-195.0,89.0,3.505
-175.0,134.0,3.506
-90.0,168.0,3.507
32.0,158.0,3.508
171.0,100.0,3.509
312.0,15.0,3.51
390.0,-45.0,3.511
302.0,-48.0,3.512
26.0,-38.0,3.513
-289.0,-103.0,3.514
-430.0,-229.0,3.515
-346.0,-270.0,3.516
-189.0,-156.0,3.517
-96.0,16.0,3.518
-75.0,72.0,3.519
-34.0,-5.0,3.52
67.0,-77.0,3.521
149.0,-58.0,3.522
167.0,-18.0,3.523
187.0,-13.0,3.524
267.0,-3.0,3.525
336.0,47.0,3.526
293.0,94.0,3.527
171.0,91.0,3.528
99.0,62.0,3.529
120.0,38.0,3.53
147.0,17.0,3.531
118.0,6.0,3.532
70.0,31.0,3.533
59.0,77.0,3.534
64.0,99.0,3.535
42.0,94.0,3.536
10.0,92.0,3.537
16.0,70.0,3.538
84.0,-11.0,3.539
140.0,-113.0,3.54
84.0,-135.0,3.541
-97.0,-55.0,3.542
-300.0,22.0,3.543
-417.0,21.0,3.544
-453.0,-13.0,3.545
-460.0,-1.0,3.546
-422.0,66.0,3.547
-285.0,134.0,3.548
-89.0,150.0,3.549
38.0,99.0,3.55
38.0,4.0,3.551
-13.0,-99.0,3.552
-22.0,-192.0,3.553
7.0,-256.0,3.554
16.0,-255.0,3.555
7.0,-173.0,3.556
23.0,-66.0,3.557
70.0,8.0,3.558
101.0,39.0,3.559
75.0,61.0,3.56
25.0,81.0,3.561
-2.0,79.0,3.562
2.0,59.0,3.563
7.0,46.0,3.564
-9.0,22.0,3.565
-23.0,-39.0,3.566
-15.0,-98.0,3.567
16.0,-79.0,3.568
63.0,19.0,3.569
112.0,106.0,3.57
140.0,112.0,3.571
134.0,56.0,3.572
126.0,-7.0,3.573
165.0,-49.0,3.574
241.0,-73.0,3.575
260.0,-67.0,3.576
163.0,-9.0,3.577
-37.0,104.0,3.578
-235.0,189.0,3.579
-336.0,133.0,3.58
-311.0,-68.0,3.581
-198.0,-259.0,3.582
-84.0,-290.0,3.583
-36.0,-180.0,3.584
-42.0,-63.0,3.585
-8.0,-13.0,3.586
125.0,5.0,3.587
289.0,29.0,3.588
352.0,55.0,3.589
248.0,77.0,3.59
50.0,95.0,3.591
-114.0,89.0,3.592
-177.0,52.0,3.593
-175.0,27.0,3.594
-174.0,49.0,3.595
-165.0,87.0,3.596
-96.0,89.0,3.597
47.0,57.0,3.598
181.0,40.0,3.599
215.0,49.0,3.6
169.0,57.0,3.601
126.0,59.0,3.602
112.0,64.0,3.603
56.0,63.0,3.604
-82.0,52.0,3.605
-233.0,49.0,3.606
-280.0,45.0,3.607
-207.0,2.0,3.608
-96.0,-82.0,3.609
-14.0,-137.0,3.61
41.0,-110.0,3.611
73.0,-44.0,3.612
58.0,-23.0,3.613
11.0,-70.0,3.614
13.0,-132.0,3.615
101.0,-152.0,3.616
200.0,-127.0,3.617
241.0,-82.0,3.618
229.0,-42.0,3.619
186.0,-11.0,3.62
73.0,21.0,3.621
-116.0,50.0,3.622
-262.0,47.0,3.623
-242.0,14.0,3.624
-120.0,5.0,3.625
-58.0,52.0,3.626
-82.0,103.0,3.627
-80.0,102.0,3.628
-12.0,80.0,3.629
51.0,92.0,3.63
53.0,111.0,3.631
28.0,61.0,3.632
-8.0,-37.0,3.633
-66.0,-75.0,3.634
-113.0,-25.0,3.635
-88.0,0.0,3.636
-17.0,-73.0,3.637
31.0,-192.0,3.638
33.0,-231.0,3.639
38.0,-177.0,3.64
66.0,-100.0,3.641
66.0,-31.0,3.642
16.0,44.0,3.643
-40.0,103.0,3.644
-58.0,99.0,3.645
-53.0,57.0,3.646
-48.0,41.0,3.647
-36.0,54.0,3.648
12.0,51.0,3.649
100.0,32.0,3.65
178.0,26.0,3.651
175.0,13.0,3.652
80.0,-35.0,3.653
-29.0,-78.0,3.654
-71.0,-48.0,3.655
-63.0,34.0,3.656
-84.0,84.0,3.657
-152.0,78.0,3.658
-188.0,65.0,3.659
-137.0,72.0,3.66
-39.0,74.0,3.661
32.0,64.0,3.662
43.0,60.0,3.663
15.0,49.0,3.664
-9.0,13.0,3.665
13.0,-28.0,3.666
85.0,-50.0,3.667
156.0,-64.0,3.668
176.0,-88.0,3.669
160.0,-86.0,3.67
166.0,-32.0,3.671
196.0,28.0,3.672
172.0,31.0,3.673
37.0,-5.0,3.674
-130.0,-16.0,3.675
-176.0,15.0,3.676
-61.0,51.0,3.677
105.0,65.0,3.678
163.0,51.0,3.679
94.0,11.0,3.68
-1.0,-23.0,3.681
-62.0,-9.0,3.682
-107.0,17.0,3.683
-139.0,-26.0,3.684
-122.0,-128.0,3.685
-59.0,-174.0,3.686
-9.0,-114.0,3.687
-2.0,-32.0,3.688
-1.0,0.0,3.689
19.0,15.0,3.69
32.0,48.0,3.691
27.0,59.0,3.692
30.0,29.0,3.693
53.0,3.0,3.694
57.0,3.0,3.695
13.0,-11.0,3.696
-44.0,-45.0,3.697
-78.0,-40.0,3.698
-88.0,15.0,3.699
-96.0,40.0,3.7
-107.0,-9.0,3.701
-106.0,-53.0,3.702
-98.0,-31.0,3.703
-84.0,5.0,3.704
-46.0,-2.0,3.705
18.0,-26.0,3.706
76.0,-14.0,3.707
102.0,16.0,3.708
127.0,25.0,3.709
180.0,12.0,3.71
214.0,9.0,3.711
161.0,22.0,3.712
13.0,38.0,3.713
-161.0,54.0,3.714
-267.0,59.0,3.715
-237.0,43.0,3.716
-108.0,17.0,3.717
6.0,-3.0,3.718
-4.0,-17.0,3.719
-98.0,-41.0,3.72
-136.0,-63.0,3.721
-71.0,-57.0,3.722
27.0,-29.0,3.723
129.0,-6.0,3.724
264.0,2.0,3.725
374.0,9.0,3.726
330.0,24.0,3.727
122.0,45.0,3.728
-91.0,59.0,3.729
-171.0,47.0,3.73
-135.0,7.0,3.731
-62.0,-23.0,3.732
9.0,-3.0,3.733
63.0,43.0,3.734
70.0,56.0,3.735
32.0,27.0,3.736
-1.0,4.0,3.737
1.0,-2.0,3.738
33.0,-19.0,3.739
65.0,-51.0,3.74
86.0,-56.0,3.741
100.0,-16.0,3.742
101.0,35.0,3.743
62.0,81.0,3.744
-22.0,116.0,3.745
-108.0,90.0,3.746
-138.0,-31.0,3.747
-124.0,-156.0,3.748
-135.0,-152.0,3.749
-186.0,-45.0,3.75
-193.0,13.0,3.751
-102.0,-34.0,3.752
4.0,-90.0,3.753
14.0,-77.0,3.754
-47.0,-35.0,3.755
-55.0,-11.0,3.756
12.0,14.0,3.757
71.0,49.0,3.758
60.0,63.0,3.759
22.0,49.0,3.76
19.0,37.0,3.761
38.0,38.0,3.762
42.0,15.0,3.763
29.0,-26.0,3.764
16.0,-43.0,3.765
1.0,-23.0,3.766
-8.0,-6.0,3.767
1.0,-5.0,3.768
41.0,1.0,3.769
92.0,20.0,3.77
123.0,30.0,3.771
110.0,30.0,3.772
58.0,36.0,3.773
0.0,39.0,3.774
-17.0,20.0,3.775
3.0,-9.0,3.776
16.0,-13.0,3.777
-4.0,5.0,3.778
-33.0,28.0,3.779
-39.0,32.0,3.78
-25.0,13.0,3.781
-15.0,-11.0,3.782
-19.0,-38.0,3.783
-28.0,-52.0,3.784
-30.0,-47.0,3.785
-16.0,-31.0,3.786
4.0,-16.0,3.787
13.0,-7.0,3.788
1.0,0.0,3.789
-15.0,3.0,3.79
-18.0,4.0,3.791
-12.0,5.0,3.792
-12.0,13.0,3.793
-10.0,24.0,3.794
-1.0,30.0,3.795
8.0,27.0,3.796
9.0,20.0,3.797
3.0,11.0,3.798
5.0,1.0,3.799
8.0,-12.0,3.8
9.0,-25.0,3.801
20.0,-21.0,3.802
41.0,-1.0,3.803
49.0,15.0,3.804
27.0,8.0,3.805
0.0,-16.0,3.806
-2.0,-36.0,3.807
15.0,-41.0,3.808
15.0,-34.0,3.809
-6.0,-16.0,3.81
-25.0,3.0,3.811
-29.0,11.0,3.812
-24.0,4.0,3.813
-14.0,2.0,3.814
4.0,11.0,3.815
16.0,21.0,3.816
11.0,16.0,3.817
-5.0,0.0,3.818
-10.0,-9.0,3.819
0.0,-10.0,3.82
10.0,-9.0,3.821
8.0,4.0,3.822
11.0,25.0,3.823
16.0,34.0,3.824
10.0,21.0,3.825
-7.0,-5.0,3.826
-22.0,-24.0,3.827
-21.0,-26.0,3.828
-4.0,-13.0,3.829
10.0,0.0,3.83
14.0,3.0,3.831
7.0,1.0,3.832
0.0,0.0,3.833
2.0,4.0,3.834
11.0,5.0,3.835
9.0,-2.0,3.836
-2.0,-8.0,3.837
-14.0,-14.0,3.838
-9.0,-11.0,3.839
2.0,-4.0,3.84
5.0,-3.0,3.841
0.0,-6.0,3.842
4.0,-7.0,3.843
13.0,-1.0,3.844
11.0,14.0,3.845
3.0,23.0,3.846
4.0,17.0,3.847
14.0,8.0,3.848
18.0,5.0,3.849
13.0,1.0,3.85
12.0,-8.0,3.851
18.0,-18.0,3.852
25.0,-21.0,3.853
23.0,-19.0,3.854
15.0,-10.0,3.855
10.0,3.0,3.856
12.0,13.0,3.857
11.0,10.0,3.858
9.0,-3.0,3.859
14.0,-11.0,3.86
19.0,-8.0,3.861
14.0,0.0,3.862
-9.0,3.0,3.863
-42.0,4.0,3.864
-66.0,1.0,3.865
-61.0,-1.0,3.866
-32.0,-6.0,3.867
-9.0,-7.0,3.868
-9.0,-1.0,3.869
-12.0,7.0,3.87
-3.0,12.0,3.871
10.0,11.0,3.872
7.0,6.0,3.873
-3.0,0.0,3.874
-3.0,-7.0,3.875
5.0,-6.0,3.876
9.0,2.0,3.877
8.0,9.0,3.878
13.0,5.0,3.879
16.0,-4.0,3.88
8.0,-6.0,3.881
3.0,0.0,3.882
19.0,2.0,3.883
43.0,0.0,3.884
50.0,5.0,3.885
38.0,18.0,3.886
28.0,23.0,3.887
20.0,16.0,3.888
0.0,3.0,3.889
-34.0,-12.0,3.89
-60.0,-29.0,3.891
-53.0,-30.0,3.892
-18.0,-7.0,3.893
13.0,17.0,3.894
25.0,14.0,3.895
21.0,-8.0,3.896
19.0,-13.0,3.897
14.0,-1.0,3.898
-6.0,6.0,3.899
-38.0,-1.0,3.9
-55.0,-9.0,3.901
-39.0,-3.0,3.902
-8.0,-3.0,3.903
10.0,-11.0,3.904
6.0,-10.0,3.905
3.0,2.0,3.906
13.0,6.0,3.907
21.0,-4.0,3.908
17.0,-8.0,3.909
8.0,5.0,3.91
8.0,14.0,3.911
10.0,1.0,3.912
4.0,-13.0,3.913
4.0,-8.0,3.914
20.0,2.0,3.915
39.0,1.0,3.916
44.0,-3.0,3.917
30.0,1.0,3.918
9.0,5.0,3.919
-9.0,-2.0,3.92
-21.0,-14.0,3.921
-28.0,-10.0,3.922
-34.0,5.0,3.923
-37.0,17.0,3.924
-26.0,17.0,3.925
7.0,6.0,3.926
41.0,-7.0,3.927
50.0,-11.0,3.928
38.0,-5.0,3.929
35.0,3.0,3.93
44.0,4.0,3.931
39.0,4.0,3.932
12.0,11.0,3.933
-12.0,15.0,3.934
-17.0,3.0,3.935
-10.0,-11.0,3.936
-6.0,-12.0,3.937
-3.0,-4.0,3.938
4.0,2.0,3.939
6.0,3.0,3.94
1.0,4.0,3.941
-1.0,4.0,3.942
0.0,-5.0,3.943
-2.0,-12.0,3.944
-8.0,-8.0,3.945
-10.0,0.0,3.946
-5.0,-3.0,3.947
-1.0,-10.0,3.948
-2.0,-7.0,3.949
-3.0,4.0,3.95
-6.0,8.0,3.951
-13.0,1.0,3.952
-21.0,-4.0,3.953
-28.0,-4.0,3.954
-33.0,-3.0,3.955
-35.0,-2.0,3.956
-30.0,-1.0,3.957
-20.0,-3.0,3.958
-10.0,-4.0,3.959
-12.0,-1.0,3.96
-21.0,3.0,3.961
-27.0,8.0,3.962
-14.0,7.0,3.963
23.0,6.0,3.964
62.0,5.0,3.965
79.0,0.0,3.966
72.0,-10.0,3.967
61.0,-16.0,3.968
66.0,-10.0,3.969
76.0,3.0,3.97
69.0,10.0,3.971
37.0,6.0,3.972
-3.0,-2.0,3.973
-27.0,-8.0,3.974
-24.0,-11.0,3.975
-11.0,-9.0,3.976
-6.0,-4.0,3.977
-16.0,-3.0,3.978
-21.0,-6.0,3.979
-13.0,-7.0,3.98
-1.0,-7.0,3.981
3.0,0.0,3.982
3.0,9.0,3.983
7.0,13.0,3.984
8.0,14.0,3.985
5.0,9.0,3.986
-2.0,3.0,3.987
-7.0,3.0,3.988
-11.0,4.0,3.989
-17.0,-3.0,3.99
-31.0,-13.0,3.991
-55.0,-11.0,3.992
-73.0,4.0,3.993
-63.0,15.0,3.994
-23.0,6.0,3.995
14.0,-7.0,3.996
24.0,-8.0,3.997
12.0,-5.0,3.998
8.0,-5.0,3.999
18.0,-7.0,4.0
27.0,-7.0,4.001
30.0,0.0,4.002
34.0,8.0,4.003
38.0,17.0,4.004
25.0,20.0,4.005
-4.0,2.0,4.006
-29.0,-33.0,4.007
-34.0,-53.0,4.008
-25.0,-31.0,4.009
-17.0,6.0,4.01
-10.0,24.0,4.011
-2.0,13.0,4.012
8.0,4.0,4.013
11.0,6.0,4.014
4.0,8.0,4.015
0.0,3.0,4.016
5.0,2.0,4.017
-2.0,5.0,4.018
-40.0,4.0,4.019
-95.0,-5.0,4.02
-106.0,-14.0,4.021
-49.0,-11.0,4.022
31.0,-3.0,4.023
70.0,2.0,4.024
65.0,8.0,4.025
78.0,18.0,4.026
139.0,23.0,4.027
199.0,14.0,4.028
183.0,3.0,4.029
84.0,0.0,4.03
-35.0,0.0,4.031
-125.0,-7.0,4.032
-190.0,-15.0,4.033
-244.0,-9.0,4.034
-255.0,5.0,4.035
-192.0,11.0,4.036
-97.0,5.0,4.037
-14.0,-9.0,4.038
67.0,-21.0,4.039
190.0,-28.0,4.04
334.0,-26.0,4.041
406.0,-3.0,4.042
363.0,28.0,4.043
241.0,44.0,4.044
100.0,43.0,4.045
-28.0,35.0,4.046
-103.0,22.0,4.047
-104.0,0.0,4.048
-69.0,-20.0,4.049
-62.0,-27.0,4.05
-81.0,-20.0,4.051
-81.0,-9.0,4.052
-63.0,-2.0,4.053
-63.0,8.0,4.054
-81.0,22.0,4.055
-77.0,29.0,4.056
-42.0,18.0,4.057
-7.0,-12.0,4.058
5.0,-37.0,4.059
-5.0,-38.0,4.06
-14.0,-28.0,4.061
-13.0,-26.0,4.062
-5.0,-31.0,4.063
-4.0,-30.0,4.064
-13.0,-18.0,4.065
-17.0,-11.0,4.066
-7.0,-17.0,4.067
2.0,-26.0,4.068
-7.0,-21.0,4.069
-21.0,-2.0,4.07
-22.0,17.0,4.071
-6.0,28.0,4.072
4.0,31.0,4.073
1.0,29.0,4.074
-10.0,17.0,4.075
-20.0,4.0,4.076
-23.0,3.0,4.077
-21.0,10.0,4.078
-19.0,14.0,4.079
-21.0,10.0,4.08
-19.0,10.0,4.081
2.0,23.0,4.082
35.0,26.0,4.083
59.0,3.0,4.084
59.0,-16.0,4.085
52.0,-11.0,4.086
45.0,5.0,4.087
35.0,2.0,4.088
18.0,-19.0,4.089
3.0,-29.0,4.09
-4.0,-21.0,4.091
-7.0,-14.0,4.092
-9.0,-19.0,4.093
-7.0,-19.0,4.094
-2.0,-6.0,4.095
0.0,6.0,4.096
-3.0,10.0,4.097
-16.0,8.0,4.098
-33.0,9.0,4.099
-50.0,5.0,4.1
-51.0,-9.0,4.101
-36.0,-12.0,4.102
-18.0,-5.0,4.103
-6.0,0.0,4.104
5.0,-5.0,4.105
23.0,-4.0,4.106
45.0,5.0,4.107
61.0,16.0,4.108
68.0,19.0,4.109
66.0,23.0,4.11
54.0,21.0,4.111
44.0,8.0,4.112
44.0,-8.0,4.113
47.0,-7.0,4.114
42.0,1.0,4.115
29.0,-2.0,4.116
20.0,-14.0,4.117
16.0,-14.0,4.118
0.0,0.0,4.119
-23.0,6.0,4.12
-29.0,-5.0,4.121
-16.0,-9.0,4.122
-9.0,0.0,4.123
-29.0,4.0,4.124
-61.0,-1.0,4.125
-79.0,-3.0,4.126
-76.0,3.0,4.127
-74.0,5.0,4.128
-82.0,-2.0,4.129
-86.0,-7.0,4.13
-66.0,-6.0,4.131
-14.0,-6.0,4.132
50.0,-10.0,4.133
99.0,-10.0,4.134
118.0,-3.0,4.135
106.0,6.0,4.136
82.0,12.0,4.137
59.0,12.0,4.138
44.0,15.0,4.139
29.0,20.0,4.14
10.0,18.0,4.141
-12.0,11.0,4.142
-23.0,1.0,4.143
-16.0,0.0,4.144
8.0,12.0,4.145
30.0,19.0,4.146
36.0,8.0,4.147
26.0,-12.0,4.148
9.0,-23.0,4.149
-8.0,-23.0,4.15
-26.0,-25.0,4.151
-43.0,-25.0,4.152
-60.0,-11.0,4.153
-82.0,5.0,4.154
-107.0,8.0,4.155
-120.0,-2.0,4.156
-103.0,-6.0,4.157
-56.0,-5.0,4.158
-4.0,-15.0,4.159
36.0,-31.0,4.16
73.0,-32.0,4.161
114.0,-5.0,4.162
157.0,22.0,4.163
181.0,30.0,4.164
171.0,24.0,4.165
114.0,18.0,4.166
18.0,12.0,4.167
-70.0,6.0,4.168
-94.0,1.0,4.169
-47.0,0.0,4.17
3.0,-6.0,4.171
-1.0,-19.0,4.172
-34.0,-32.0,4.173
-28.0,-37.0,4.174
34.0,-27.0,4.175
98.0,-1.0,4.176
109.0,33.0,4.177
60.0,53.0,4.178
-9.0,43.0,4.179
-58.0,18.0,4.18
-71.0,-1.0,4.181
-65.0,0.0,4.182
-67.0,5.0,4.183
-84.0,2.0,4.184
-93.0,0.0,4.185
-65.0,2.0,4.186
-10.0,1.0,4.187
31.0,-5.0,4.188
35.0,-6.0,4.189
18.0,-3.0,4.19
15.0,-7.0,4.191
31.0,-20.0,4.192
46.0,-19.0,4.193
42.0,-2.0,4.194
22.0,9.0,4.195
3.0,1.0,4.196
-8.0,-6.0,4.197
-18.0,-5.0,4.198
-27.0,2.0,4.199
-43.0,-3.0,4.2
-60.0,-17.0,4.201
-69.0,-22.0,4.202
-69.0,-21.0,4.203
-75.0,-15.0,4.204
-85.0,-5.0,4.205
-77.0,7.0,4.206
-44.0,7.0,4.207
-13.0,-2.0,4.208
-2.0,-4.0,4.209
17.0,1.0,4.21
65.0,-1.0,4.211
120.0,-8.0,4.212
149.0,-11.0,4.213
158.0,-6.0,4.214
162.0,-3.0,4.215
150.0,-4.0,4.216
117.0,3.0,4.217
76.0,14.0,4.218
43.0,22.0,4.219
1.0,26.0,4.22
-53.0,24.0,4.221
-86.0,13.0,4.222
-70.0,-5.0,4.223
-36.0,-15.0,4.224
-25.0,-7.0,4.225
-36.0,2.0,4.226
-39.0,0.0,4.227
-30.0,-1.0,4.228
-23.0,11.0,4.229
-20.0,27.0,4.23
-14.0,27.0,4.231
-9.0,16.0,4.232
-7.0,14.0,4.233
0.0,18.0,4.234
9.0,18.0,4.235
13.0,17.0,4.236
9.0,13.0,4.237
9.0,-7.0,4.238
21.0,-39.0,4.239
26.0,-60.0,4.24
2.0,-61.0,4.241
-38.0,-50.0,4.242
-67.0,-49.0,4.243
-62.0,-50.0,4.244
-34.0,-33.0,4.245
-5.0,-4.0,4.246
11.0,13.0,4.247
17.0,13.0,4.248
12.0,11.0,4.249
-4.0,16.0,4.25
-15.0,18.0,4.251
-3.0,16.0,4.252
22.0,12.0,4.253
22.0,13.0,4.254
-9.0,10.0,4.255
-30.0,3.0,4.256
-7.0,0.0,4.257
37.0,-2.0,4.258
56.0,-4.0,4.259
37.0,-9.0,4.26
15.0,-8.0,4.261
19.0,5.0,4.262
33.0,22.0,4.263
37.0,24.0,4.264
25.0,14.0,4.265
12.0,8.0,4.266
8.0,11.0,4.267
15.0,16.0,4.268
12.0,17.0,4.269
-16.0,7.0,4.27
-56.0,-12.0,4.271
-72.0,-29.0,4.272
-49.0,-25.0,4.273
-14.0,-3.0,4.274
5.0,7.0,4.275
12.0,-3.0,4.276
18.0,-10.0,4.277
20.0,-6.0,4.278
6.0,3.0,4.279
-22.0,-3.0,4.28
-53.0,-11.0,4.281
-76.0,-3.0,4.282
-65.0,10.0,4.283
0.0,12.0,4.284
94.0,11.0,4.285
139.0,16.0,4.286
93.0,12.0,4.287
17.0,-9.0,4.288
4.0,-22.0,4.289
51.0,-10.0,4.29
69.0,8.0,4.291
18.0,8.0,4.292
-45.0,0.0,4.293
-58.0,2.0,4.294
-28.0,9.0,4.295
-2.0,6.0,4.296
1.0,-1.0,4.297
-13.0,-4.0,4.298
-25.0,-4.0,4.299
-21.0,-8.0,4.3
-8.0,-14.0,4.301
1.0,-14.0,4.302
4.0,-13.0,4.303
1.0,-11.0,4.304
-10.0,-5.0,4.305
-27.0,7.0,4.306
-16.0,18.0,4.307
46.0,21.0,4.308
122.0,20.0,4.309
160.0,15.0,4.31
167.0,5.0,4.311
187.0,-4.0,4.312
199.0,1.0,4.313
139.0,9.0,4.314
14.0,3.0,4.315
-92.0,-12.0,4.316
-131.0,-16.0,4.317
-135.0,-4.0,4.318
-136.0,6.0,4.319
-119.0,4.0,4.32
-75.0,-6.0,4.321
-44.0,-7.0,4.322
-50.0,-6.0,4.323
-59.0,-9.0,4.324
-45.0,-15.0,4.325
-22.0,-14.0,4.326
-17.0,-6.0,4.327
-20.0,1.0,4.328
-13.0,1.0,4.329
0.0,-2.0,4.33
1.0,-2.0,4.331
-10.0,0.0,4.332
-26.0,3.0,4.333
-34.0,1.0,4.334
-30.0,-4.0,4.335
-17.0,-7.0,4.336
-12.0,-4.0,4.337
-24.0,-2.0,4.338
-39.0,-3.0,4.339
-49.0,-9.0,4.34
-58.0,-18.0,4.341
-62.0,-24.0,4.342
-35.0,-22.0,4.343
32.0,-6.0,4.344
101.0,19.0,4.345
125.0,34.0,4.346
105.0,27.0,4.347
71.0,4.0,4.348
29.0,-7.0,4.349
-26.0,1.0,4.35
-57.0,12.0,4.351
-25.0,14.0,4.352
45.0,10.0,4.353
77.0,7.0,4.354
52.0,0.0,4.355
25.0,-10.0,4.356
31.0,-19.0,4.357
41.0,-20.0,4.358
34.0,-7.0,4.359
14.0,10.0,4.36
11.0,17.0,4.361
27.0,9.0,4.362
47.0,-5.0,4.363
55.0,-7.0,4.364
37.0,3.0,4.365
1.0,12.0,4.366
-21.0,12.0,4.367
-16.0,10.0,4.368
-16.0,9.0,4.369
-64.0,3.0,4.37
-142.0,-9.0,4.371
-191.0,-20.0,4.372
-171.0,-22.0,4.373
-94.0,-15.0,4.374
-14.0,-3.0,4.375
18.0,11.0,4.376
1.0,19.0,4.377
-17.0,10.0,4.378
17.0,-12.0,4.379
89.0,-29.0,4.38
131.0,-31.0,4.381
129.0,-19.0,4.382
143.0,-2.0,4.383
187.0,15.0,4.384
192.0,38.0,4.385
104.0,57.0,4.386
-12.0,55.0,4.387
-51.0,27.0,4.388
-16.0,-9.0,4.389
0.0,-34.0,4.39
-58.0,-38.0,4.391
-150.0,-33.0,4.392
-213.0,-26.0,4.393
-216.0,-15.0,4.394
-177.0,4.0,4.395
-119.0,21.0,4.396
-69.0,24.0,4.397
0.0,6.0,4.398
126.0,-11.0,4.399
237.0,-10.0,4.4
298.0,0.0,4.401
291.0,5.0,4.402
80.0,0.0,4.403
-73.0,-3.0,4.404
-51.0,1.0,4.405
-27.0,-2.0,4.406
2.0,-16.0,4.407
29.0,-23.0,4.408
41.0,-9.0,4.409
51.0,14.0,4.41
57.0,30.0,4.411
39.0,31.0,4.412
-50.0,21.0,4.413
-112.0,4.0,4.414
-90.0,-10.0,4.415
-69.0,-8.0,4.416
-54.0,0.0,4.417
-43.0,-5.0,4.418
-44.0,-18.0,4.419
-30.0,-22.0,4.42
-10.0,-5.0,4.421
9.0,17.0,4.422
32.0,18.0,4.423
58.0,-2.0,4.424
45.0,-23.0,4.425
-33.0,-24.0,4.426
-125.0,-11.0,4.427
-143.0,0.0,4.428
-70.0,1.0,4.429
11.0,-3.0,4.43
43.0,-10.0,4.431
66.0,-22.0,4.432
136.0,-28.0,4.433
204.0,-9.0,4.434
177.0,32.0,4.435
66.0,59.0,4.436
-20.0,50.0,4.437
-41.0,15.0,4.438
-43.0,-10.0,4.439
-66.0,-11.0,4.44
-81.0,-5.0,4.441
-54.0,0.0,4.442
-25.0,-2.0,4.443
-46.0,-5.0,4.444
-103.0,-5.0,4.445
-140.0,1.0,4.446
-139.0,7.0,4.447
-111.0,0.0,4.448
-76.0,-15.0,4.449
-43.0,-23.0,4.45
-5.0,-25.0,4.451
53.0,-25.0,4.452
117.0,-18.0,4.453
134.0,0.0,4.454
86.0,18.0,4.455
32.0,11.0,4.456
26.0,-3.0,4.457
43.0,-3.0,4.458
21.0,9.0,4.459
-36.0,1.0,4.46
-58.0,-32.0,4.461
-17.0,-41.0,4.462
43.0,-2.0,4.463
93.0,48.0,4.464
139.0,62.0,4.465
172.0,42.0,4.466
155.0,21.0,4.467
93.0,10.0,4.468
31.0,2.0,4.469
-4.0,-6.0,4.47
-36.0,-12.0,4.471
-82.0,-10.0,4.472
-119.0,-2.0,4.473
-122.0,3.0,4.474
-96.0,-4.0,4.475
-65.0,-21.0,4.476
-49.0,-25.0,4.477
-47.0,-12.0,4.478
-51.0,0.0,4.479
-62.0,-12.0,4.48
-77.0,-34.0,4.481
-82.0,-34.0,4.482
-55.0,-20.0,4.483
-13.0,-16.0,4.484
12.0,-21.0,4.485
23.0,-3.0,4.486
64.0,37.0,4.487
138.0,64.0,4.488
183.0,51.0,4.489
170.0,17.0,4.49
143.0,-8.0,4.491
149.0,-13.0,4.492
161.0,2.0,4.493
133.0,35.0,4.494
77.0,64.0,4.495
21.0,58.0,4.496
-30.0,17.0,4.497
-74.0,-27.0,4.498
-71.0,-37.0,4.499
-58.0,-19.0,4.5
-19.0,-9.0,4.501
-2.0,-14.0,4.502
-55.0,-17.0,4.503
-95.0,-9.0,4.504
-97.0,-4.0,4.505
-97.0,-10.0,4.506
-90.0,-22.0,4.507
-78.0,-26.0,4.508
-56.0,-12.0,4.509
-49.0,13.0,4.51
-87.0,29.0,4.511
-122.0,15.0,4.512
-142.0,-12.0,4.513
-118.0,-26.0,4.514
42.0,-15.0,4.515
173.0,-1.0,4.516
218.0,-1.0,4.517
250.0,-11.0,4.518
264.0,-10.0,4.519
275.0,5.0,4.52
199.0,14.0,4.521
43.0,10.0,4.522
-59.0,-1.0,4.523
-45.0,-7.0,4.524
-20.0,-1.0,4.525
-70.0,7.0,4.526
-132.0,6.0,4.527
-122.0,-7.0,4.528
-75.0,-20.0,4.529
-66.0,-26.0,4.53
-76.0,-24.0,4.531
-50.0,-18.0,4.532
-13.0,-2.0,4.533
-19.0,19.0,4.534
-63.0,30.0,4.535
-107.0,14.0,4.536
-139.0,-9.0,4.537
-130.0,-22.0,4.538
-52.0,-17.0,4.539
23.0,-12.0,4.54
88.0,-7.0,4.541
134.0,-2.0,4.542
118.0,3.0,4.543
96.0,9.0,4.544
59.0,15.0,4.545
20.0,19.0,4.546
-23.0,13.0,4.547
-37.0,7.0,4.548
39.0,-2.0,4.549
97.0,-8.0,4.55
95.0,-4.0,4.551
81.0,1.0,4.552
30.0,9.0,4.553
-9.0,15.0,4.554
-13.0,15.0,4.555
-12.0,12.0,4.556
8.0,-1.0,4.557
22.0,-11.0,4.558
13.0,-8.0,4.559
11.0,-2.0,4.56
17.0,-2.0,4.561
13.0,5.0,4.562
-3.0,20.0,4.563
-27.0,33.0,4.564
-48.0,25.0,4.565
-60.0,0.0,4.566
-54.0,-16.0,4.567
-44.0,-8.0,4.568
-47.0,5.0,4.569
-59.0,1.0,4.57
-63.0,-11.0,4.571
-66.0,-17.0,4.572
-87.0,-16.0,4.573
-113.0,-20.0,4.574
-128.0,-24.0,4.575
-135.0,-8.0,4.576
-130.0,17.0,4.577
-61.0,25.0,4.578
94.0,3.0,4.579
236.0,-28.0,4.58
251.0,-53.0,4.581
199.0,-57.0,4.582
243.0,-33.0,4.583
369.0,16.0,4.584
363.0,66.0,4.585
156.0,74.0,4.586
-37.0,41.0,4.587
-54.0,7.0,4.588
-17.0,2.0,4.589
-89.0,10.0,4.59
-185.0,7.0,4.591
-148.0,-3.0,4.592
-36.0,-8.0,4.593
-2.0,-13.0,4.594
-39.0,-20.0,4.595
-42.0,-21.0,4.596
-15.0,-9.0,4.597
-28.0,-5.0,4.598
-67.0,-12.0,4.599
-78.0,-19.0,4.6
-79.0,-18.0,4.601
-105.0,-15.0,4.602
-112.0,-17.0,4.603
-47.0,-19.0,4.604
35.0,-14.0,4.605
59.0,-13.0,4.606
44.0,-9.0,4.607
27.0,11.0,4.608
-10.0,42.0,4.609
-78.0,43.0,4.61
-117.0,4.0,4.611
-71.0,-38.0,4.612
24.0,-46.0,4.613
111.0,-30.0,4.614
166.0,-4.0,4.615
175.0,38.0,4.616
139.0,84.0,4.617
67.0,92.0,4.618
3.0,46.0,4.619
-39.0,-7.0,4.62
-57.0,-17.0,4.621
-39.0,0.0,4.622
-4.0,1.0,4.623
6.0,-14.0,4.624
-18.0,-9.0,4.625
-30.0,6.0,4.626
-18.0,-2.0,4.627
-39.0,-27.0,4.628
-126.0,-31.0,4.629
-233.0,-17.0,4.63
-310.0,-19.0,4.631
-350.0,-38.0,4.632
-320.0,-45.0,4.633
-154.0,-32.0,4.634
134.0,-28.0,4.635
410.0,-35.0,4.636
535.0,-29.0,4.637
493.0,-10.0,4.638
376.0,8.0,4.639
288.0,36.0,4.64
252.0,87.0,4.641
191.0,134.0,4.642
52.0,109.0,4.643
-96.0,14.0,4.644
-146.0,-51.0,4.645
-106.0,-29.0,4.646
-77.0,24.0,4.647
-104.0,24.0,4.648
-153.0,-16.0,4.649
-186.0,-34.0,4.65
-186.0,-19.0,4.651
-119.0,-3.0,4.652
0.0,14.0,4.653
67.0,37.0,4.654
34.0,39.0,4.655
2.0,3.0,4.656
49.0,-32.0,4.657
99.0,-30.0,4.658
48.0,-3.0,4.659
-46.0,-1.0,4.66
-45.0,-27.0,4.661
32.0,-36.0,4.662
66.0,-22.0,4.663
41.0,-12.0,4.664
36.0,-17.0,4.665
47.0,-15.0,4.666
7.0,0.0,4.667
-73.0,9.0,4.668
-112.0,6.0,4.669
-96.0,0.0,4.67
-94.0,0.0,4.671
-149.0,-3.0,4.672
-231.0,-14.0,4.673
-282.0,-25.0,4.674
-253.0,-28.0,4.675
-132.0,-34.0,4.676
24.0,-38.0,4.677
171.0,-31.0,4.678
292.0,-3.0,4.679
385.0,34.0,4.68
392.0,52.0,4.681
252.0,44.0,4.682
45.0,24.0,4.683
-73.0,11.0,4.684
-64.0,14.0,4.685
-37.0,19.0,4.686
-53.0,12.0,4.687
-60.0,4.0,4.688
-21.0,5.0,4.689
15.0,7.0,4.69
11.0,-4.0,4.691
1.0,-18.0,4.692
17.0,-17.0,4.693
25.0,0.0,4.694
-6.0,10.0,4.695
-51.0,1.0,4.696
-68.0,-13.0,4.697
-52.0,-25.0,4.698
-26.0,-29.0,4.699
-42.0,-30.0,4.7
-127.0,-23.0,4.701
-230.0,-15.0,4.702
-230.0,-5.0,4.703
-82.0,2.0,4.704
115.0,1.0,4.705
239.0,5.0,4.706
281.0,25.0,4.707
274.0,41.0,4.708
171.0,45.0,4.709
-65.0,42.0,4.71
-314.0,17.0,4.711
-404.0,-3.0,4.712
-322.0,-9.0,4.713
-177.0,-18.0,4.714
3.0,-32.0,4.715
246.0,-34.0,4.716
454.0,6.0,4.717
506.0,45.0,4.718
410.0,64.0,4.719
304.0,63.0,4.72
222.0,57.0,4.721
83.0,42.0,4.722
-81.0,6.0,4.723
-137.0,-25.0,4.724
-81.0,-24.0,4.725
-57.0,-8.0,4.726
-114.0,-13.0,4.727
-155.0,-30.0,4.728
-145.0,-34.0,4.729
-162.0,-25.0,4.73
-211.0,-24.0,4.731
-199.0,-33.0,4.732
-104.0,-36.0,4.733
-15.0,-33.0,4.734
42.0,-31.0,4.735
120.0,-24.0,4.736
197.0,-7.0,4.737
169.0,6.0,4.738
24.0,5.0,4.739
-84.0,3.0,4.74
-45.0,13.0,4.741
47.0,28.0,4.742
52.0,24.0,4.743
-7.0,10.0,4.744
-23.0,13.0,4.745
4.0,25.0,4.746
-8.0,12.0,4.747
-61.0,-18.0,4.748
-71.0,-32.0,4.749
-25.0,-20.0,4.75
-4.0,-13.0,4.751
-30.0,-28.0,4.752
-32.0,-38.0,4.753
26.0,-27.0,4.754
87.0,-19.0,4.755
88.0,-30.0,4.756
64.0,-40.0,4.757
65.0,-28.0,4.758
74.0,0.0,4.759
-12.0,26.0,4.76
-214.0,47.0,4.761
-376.0,60.0,4.762
-328.0,50.0,4.763
-125.0,39.0,4.764
-6.0,25.0,4.765
-76.0,14.0,4.766
-185.0,12.0,4.767
-174.0,3.0,4.768
-81.0,-26.0,4.769
7.0,-43.0,4.77
127.0,-19.0,4.771
296.0,5.0,4.772
374.0,25.0,4.773
246.0,41.0,4.774
34.0,39.0,4.775
-61.0,34.0,4.776
-39.0,18.0,4.777
-19.0,1.0,4.778
-9.0,-13.0,4.779
46.0,-13.0,4.78
236.0,-4.0,4.781
378.0,9.0,4.782
375.0,18.0,4.783
342.0,16.0,4.784
218.0,6.0,4.785
102.0,-6.0,4.786
15.0,-14.0,4.787
-55.0,-17.0,4.788
-76.0,-20.0,4.789
-94.0,-25.0,4.79
-102.0,-26.0,4.791
-122.0,-24.0,4.792
-177.0,-19.0,4.793
-201.0,-12.0,4.794
-129.0,-8.0,4.795
-50.0,-10.0,4.796
48.0,-15.0,4.797
139.0,-14.0,4.798
153.0,5.0,4.799
56.0,21.0,4.8
-110.0,1.0,4.801
-229.0,-33.0,4.802
-206.0,-44.0,4.803
-90.0,-20.0,4.804
-17.0,4.0,4.805
-34.0,9.0,4.806
-52.0,11.0,4.807
-7.0,24.0,4.808
30.0,33.0,4.809
-11.0,29.0,4.81
-72.0,20.0,4.811
-74.0,11.0,4.812
-57.0,-4.0,4.813
-94.0,-19.0,4.814
-148.0,-20.0,4.815
-129.0,-7.0,4.816
-58.0,0.0,4.817
-16.0,-10.0,4.818
-19.0,-25.0,4.819
-15.0,-38.0,4.82
26.0,-54.0,4.821
81.0,-48.0,4.822
147.0,7.0,4.823
233.0,89.0,4.824
293.0,132.0,4.825
256.0,103.0,4.826
148.0,41.0,4.827
67.0,0.0,4.828
45.0,-7.0,4.829
13.0,-8.0,4.83
-62.0,-16.0,4.831
-122.0,-21.0,4.832
-119.0,-20.0,4.833
-98.0,-22.0,4.834
-105.0,-29.0,4.835
-86.0,-32.0,4.836
-2.0,-23.0,4.837
92.0,-10.0,4.838
107.0,-3.0,4.839
45.0,-8.0,4.84
-9.0,-24.0,4.841
-28.0,-34.0,4.842
-7.0,-28.0,4.843
75.0,-4.0,4.844
193.0,29.0,4.845
233.0,52.0,4.846
134.0,44.0,4.847
7.0,18.0,4.848
-33.0,3.0,4.849
-35.0,9.0,4.85
-89.0,13.0,4.851
-152.0,5.0,4.852
-128.0,-1.0,4.853
-48.0,0.0,4.854
-24.0,-2.0,4.855
-70.0,-9.0,4.856
-112.0,-4.0,4.857
-117.0,3.0,4.858
-79.0,-8.0,4.859
6.0,-37.0,4.86
104.0,-52.0,4.861
133.0,-33.0,4.862
57.0,-10.0,4.863
-33.0,-3.0,4.864
-52.0,7.0,4.865
-33.0,24.0,4.866
-51.0,26.0,4.867
-90.0,6.0,4.868
-84.0,-8.0,4.869
-35.0,4.0,4.87
-3.0,22.0,4.871
-7.0,21.0,4.872
-15.0,7.0,4.873
1.0,2.0,4.874
43.0,8.0,4.875
101.0,10.0,4.876
150.0,4.0,4.877
155.0,-7.0,4.878
109.0,-9.0,4.879
49.0,-5.0,4.88
5.0,-3.0,4.881
-43.0,-8.0,4.882
-106.0,-19.0,4.883
-134.0,-29.0,4.884
-85.0,-35.0,4.885
-7.0,-39.0,4.886
25.0,-32.0,4.887
10.0,-9.0,4.888
-4.0,24.0,4.889
-1.0,42.0,4.89
19.0,40.0,4.891
74.0,38.0,4.892
148.0,49.0,4.893
160.0,51.0,4.894
54.0,25.0,4.895
-105.0,-17.0,4.896
-210.0,-39.0,4.897
-232.0,-43.0,4.898
-174.0,-48.0,4.899
-35.0,-54.0,4.9
165.0,-43.0,4.901
339.0,1.0,4.902
385.0,52.0,4.903
266.0,78.0,4.904
57.0,70.0,4.905
-92.0,42.0,4.906
-97.0,5.0,4.907
-36.0,-26.0,4.908
-52.0,-44.0,4.909
-129.0,-42.0,4.91
-122.0,-21.0,4.911
-15.0,3.0,4.912
39.0,19.0,4.913
-34.0,20.0,4.914
-114.0,9.0,4.915
-103.0,-12.0,4.916
-64.0,-35.0,4.917
-43.0,-44.0,4.918
22.0,0.0,4.919
87.0,95.0,4.92
151.0,187.0,4.921
171.0,206.0,4.922
56.0,135.0,4.923
-30.0,30.0,4.924
-27.0,-54.0,4.925
-26.0,-121.0,4.926
-31.0,-178.0,4.927
-35.0,-196.0,4.928
-37.0,-139.0,4.929
-56.0,-39.0,4.93
-122.0,33.0,4.931
-165.0,33.0,4.932
-132.0,-27.0,4.933
-91.0,-101.0,4.934
-29.0,-145.0,4.935
32.0,-133.0,4.936
88.0,-85.0,4.937
153.0,-46.0,4.938
247.0,-35.0,4.939
301.0,-24.0,4.94
257.0,23.0,4.941
111.0,91.0,4.942
-69.0,125.0,4.943
-184.0,102.0,4.944
-167.0,64.0,4.945
-51.0,54.0,4.946
32.0,65.0,4.947
-1.0,64.0,4.948
-79.0,45.0,4.949
-79.0,33.0,4.95
-13.0,38.0,4.951
11.0,37.0,4.952
-23.0,18.0,4.953
-36.0,2.0,4.954
-13.0,8.0,4.955
-17.0,16.0,4.956
-55.0,5.0,4.957
-95.0,-24.0,4.958
-144.0,-48.0,4.959
-187.0,-73.0,4.96
-215.0,-99.0,4.961
-171.0,-117.0,4.962
89.0,-110.0,4.963
294.0,-91.0,4.964
334.0,-33.0,4.965
338.0,23.0,4.966
232.0,79.0,4.967
124.0,120.0,4.968
10.0,116.0,4.969
-71.0,103.0,4.97
-56.0,63.0,4.971
-60.0,25.0,4.972
-122.0,-4.0,4.973
-150.0,-26.0,4.974
-72.0,-27.0,4.975
-19.0,-25.0,4.976
-40.0,-10.0,4.977
-83.0,10.0,4.978
-157.0,37.0,4.979
-131.0,28.0,4.98
-11.0,-7.0,4.981
181.0,-17.0,4.982
395.0,9.0,4.983
491.0,40.0,4.984
371.0,51.0,4.985
134.0,52.0,4.986
-28.0,46.0,4.987
-51.0,28.0,4.988
-35.0,15.0,4.989
-54.0,46.0,4.99
-80.0,125.0,4.991
-80.0,177.0,4.992
-78.0,132.0,4.993
-109.0,-3.0,4.994
-177.0,-147.0,4.995
-266.0,-228.0,4.996
-332.0,-240.0,4.997
-318.0,-223.0,4.998
-191.0,-206.0,4.999
8.0,-187.0,5.0
209.0,-134.0,5.001
378.0,-30.0,5.002
462.0,79.0,5.003
366.0,137.0,5.004
111.0,121.0,5.005
-98.0,72.0,5.006
-103.0,41.0,5.007
-10.0,31.0,5.008
-10.0,17.0,5.009
-88.0,0.0,5.01
-98.0,1.0,5.011
-36.0,14.0,5.012
-29.0,13.0,5.013
-85.0,-7.0,5.014
-95.0,-23.0,5.015
-42.0,-18.0,5.016
-16.0,-5.0,5.017
-49.0,1.0,5.018
-77.0,5.0,5.019
-74.0,15.0,5.02
-67.0,24.0,5.021
-54.0,25.0,5.022
-6.0,18.0,5.023
43.0,15.0,5.024
43.0,14.0,5.025
21.0,3.0,5.026
39.0,-21.0,5.027
82.0,-44.0,5.028
91.0,-48.0,5.029
64.0,-32.0,5.03
44.0,-7.0,5.031
38.0,14.0,5.032
23.0,25.0,5.033
1.0,21.0,5.034
-7.0,9.0,5.035
-8.0,3.0,5.036
-16.0,7.0,5.037
-122.0,40.0,5.038
34.0,61.0,5.039
141.0,67.0,5.04
85.0,27.0,5.041
45.0,-3.0,5.042
60.0,-7.0,5.043
62.0,-13.0,5.044
18.0,-21.0,5.045
-12.0,-29.0,5.046
-8.0,-33.0,5.047
-8.0,-34.0,5.048
-17.0,-24.0,5.049
-24.0,-15.0,5.05
-17.0,-13.0,5.051
-10.0,-9.0,5.052
-12.0,5.0,5.053
-17.0,16.0,5.054
-24.0,24.0,5.055
-29.0,35.0,5.056
-31.0,54.0,5.057
-335.0,58.0,5.058
84.0,90.0,5.059
368.0,99.0,5.06
219.0,39.0,5.061
112.0,-8.0,5.062
154.0,-14.0,5.063
158.0,-23.0,5.064
42.0,-36.0,5.065
-41.0,-47.0,5.066
-32.0,-54.0,5.067
-32.0,-56.0,5.068
-55.0,-40.0,5.069
-74.0,-27.0,5.07
-55.0,-24.0,5.071
-36.0,-17.0,5.072
-41.0,3.0,5.073
-55.0,22.0,5.074
-74.0,34.0,5.075
-88.0,51.0,5.076
-92.0,80.0,5.077
-284.0,104.0,5.078
72.0,86.0,5.079
314.0,32.0,5.08
187.0,-19.0,5.081
96.0,-27.0,5.082
131.0,-7.0,5.083
135.0,-1.0,5.084
36.0,-15.0,5.085
-34.0,-28.0,5.086
-26.0,-26.0,5.087
-26.0,-23.0,5.088
-46.0,-26.0,5.089
-62.0,-27.0,5.09
-46.0,-23.0,5.091
-30.0,-22.0,5.092
-34.0,-21.0,5.093
-46.0,-18.0,5.094
-62.0,-19.0,5.095
-74.0,-33.0,5.096
-78.0,-40.0,5.097
-68.0,-18.0,5.098
22.0,41.0,5.099
83.0,101.0,5.1
51.0,120.0,5.101
28.0,102.0,5.102
37.0,69.0,5.103
38.0,35.0,5.104
13.0,-19.0,5.105
-5.0,-95.0,5.106
-3.0,-153.0,5.107
-3.0,-162.0,5.108
-8.0,-137.0,5.109
-12.0,-113.0,5.11
-8.0,-93.0,5.111
-4.0,-58.0,5.112
-5.0,-20.0,5.113
-8.0,4.0,5.114
-12.0,16.0,5.115
-15.0,35.0,5.116
-16.0,49.0,5.117
-15.0,41.0,5.118
-7.0,19.0,5.119
-2.0,9.0,5.12
-8.0,10.0,5.121
-12.0,14.0,5.122
-6.0,18.0,5.123
1.0,26.0,5.124
1.0,33.0,5.125
-3.0,29.0,5.126
-4.0,16.0,5.127
1.0,11.0,5.128
1.0,12.0,5.129
-21.0,16.0,5.13
-65.0,24.0,5.131
-98.0,37.0,5.132
-77.0,41.0,5.133
7.0,29.0,5.134
114.0,5.0,5.135
188.0,-18.0,5.136
184.0,-32.0,5.137
90.0,-40.0,5.138
-32.0,-36.0,5.139
-127.0,-26.0,5.14
-137.0,-2.0,5.141
-123.0,15.0,5.142
-36.0,11.0,5.143
46.0,2.0,5.144
111.0,-15.0,5.145
141.0,-10.0,5.146
67.0,70.0,5.147
3.0,120.0,5.148
-30.0,81.0,5.149
-28.0,45.0,5.15
82.0,21.0,5.151
173.0,15.0,5.152
201.0,64.0,5.153
191.0,90.0,5.154
65.0,43.0,5.155
-19.0,4.0,5.156
18.0,-5.0,5.157
47.0,-13.0,5.158
9.0,-16.0,5.159
-46.0,-28.0,5.16
-78.0,-40.0,5.161
-94.0,-45.0,5.162
-93.0,-48.0,5.163
-66.0,-49.0,5.164
-34.0,-43.0,5.165
-28.0,-30.0,5.166
-37.0,-24.0,5.167
-39.0,-28.0,5.168
-42.0,-35.0,5.169
-49.0,-32.0,5.17
-25.0,-24.0,5.171
33.0,-19.0,5.172
70.0,-18.0,5.173
40.0,-18.0,5.174
-16.0,-16.0,5.175
-37.0,-14.0,5.176
-22.0,-9.0,5.177
-22.0,-5.0,5.178
-41.0,-2.0,5.179
-59.0,-2.0,5.18
-73.0,-10.0,5.181
-81.0,-16.0,5.182
-69.0,-14.0,5.183
-49.0,-15.0,5.184
-5.0,-23.0,5.185
31.0,-29.0,5.186
39.0,-28.0,5.187
60.0,-14.0,5.188
120.0,38.0,5.189
153.0,74.0,5.19
106.0,59.0,5.191
56.0,40.0,5.192
-1.0,10.0,5.193
-45.0,-10.0,5.194
-51.0,1.0,5.195
-45.0,6.0,5.196
1.0,-11.0,5.197
46.0,-20.0,5.198
58.0,0.0,5.199
35.0,9.0,5.2
6.0,-8.0,5.201
-12.0,-13.0,5.202
-20.0,2.0,5.203
-15.0,12.0,5.204
-3.0,0.0,5.205
0.0,-6.0,5.206
-2.0,0.0,5.207
-3.0,2.0,5.208
-4.0,-6.0,5.209
-18.0,-12.0,5.21
-39.0,-10.0,5.211
-45.0,-15.0,5.212
-27.0,-23.0,5.213
9.0,-21.0,5.214
46.0,-8.0,5.215
58.0,0.0,5.216
28.0,10.0,5.217
-34.0,33.0,5.218
-76.0,65.0,5.219
-62.0,75.0,5.22
-16.0,42.0,5.221
-2.0,0.0,5.222
-27.0,-15.0,5.223
-43.0,-5.0,5.224
-14.0,2.0,5.225
48.0,-1.0,5.226
107.0,2.0,5.227
140.0,20.0,5.228
125.0,27.0,5.229
54.0,6.0,5.23
-33.0,-24.0,5.231
-75.0,-31.0,5.232
-68.0,-14.0,5.233
-78.0,-2.0,5.234
-119.0,-8.0,5.235
-125.0,-21.0,5.236
-46.0,-31.0,5.237
74.0,-47.0,5.238
147.0,-59.0,5.239
139.0,-38.0,5.24
91.0,19.0,5.241
54.0,81.0,5.242
48.0,90.0,5.243
61.0,47.0,5.244
52.0,2.0,5.245
-1.0,-6.0,5.246
-51.0,8.0,5.247
-42.0,9.0,5.248
1.0,-2.0,5.249
5.0,-9.0,5.25
-35.0,-7.0,5.251
-58.0,-8.0,5.252
-41.0,-16.0,5.253
-28.0,-21.0,5.254
-29.0,-18.0,5.255
-11.0,-13.0,5.256
33.0,-10.0,5.257
58.0,-4.0,5.258
46.0,0.0,5.259
19.0,-3.0,5.26
4.0,-12.0,5.261
1.0,-13.0,5.262
9.0,-4.0,5.263
23.0,3.0,5.264
26.0,3.0,5.265
1.0,-4.0,5.266
-46.0,-14.0,5.267
-97.0,-26.0,5.268
-148.0,-30.0,5.269
-178.0,-22.0,5.27
-138.0,-4.0,5.271
-6.0,17.0,5.272
165.0,35.0,5.273
278.0,45.0,5.274
273.0,38.0,5.275
156.0,17.0,5.276
15.0,-1.0,5.277
-73.0,-8.0,5.278
-68.0,-4.0,5.279
-19.0,-1.0,5.28
-5.0,-7.0,5.281
-28.0,-11.0,5.282
-37.0,-10.0,5.283
-27.0,-9.0,5.284
-37.0,-9.0,5.285
-63.0,-8.0,5.286
-55.0,-1.0,5.287
0.0,4.0,5.288
54.0,3.0,5.289
63.0,-1.0,5.29
31.0,-2.0,5.291
-23.0,5.0,5.292
-75.0,12.0,5.293
-93.0,17.0,5.294
-54.0,13.0,5.295
11.0,1.0,5.296
45.0,-10.0,5.297
26.0,-23.0,5.298
-20.0,-26.0,5.299
-57.0,-17.0,5.3
-64.0,1.0,5.301
-34.0,26.0,5.302
22.0,37.0,5.303
67.0,26.0,5.304
69.0,4.0,5.305
42.0,-5.0,5.306
18.0,-3.0,5.307
14.0,-2.0,5.308
19.0,-8.0,5.309
21.0,-12.0,5.31
18.0,-7.0,5.311
13.0,0.0,5.312
12.0,4.0,5.313
15.0,1.0,5.314
17.0,-3.0,5.315
14.0,-10.0,5.316
12.0,-16.0,5.317
11.0,-17.0,5.318
8.0,-14.0,5.319
-10.0,-6.0,5.32
-31.0,-1.0,5.321
-32.0,-1.0,5.322
-3.0,-8.0,5.323
29.0,-10.0,5.324
34.0,6.0,5.325
18.0,33.0,5.326
4.0,43.0,5.327
6.0,24.0,5.328
9.0,-1.0,5.329
0.0,-6.0,5.33
-29.0,4.0,5.331
-66.0,2.0,5.332
-74.0,-15.0,5.333
-24.0,-31.0,5.334
65.0,-30.0,5.335
127.0,-19.0,5.336
116.0,-11.0,5.337
45.0,-8.0,5.338
-23.0,-1.0,5.339
-56.0,4.0,5.34
-67.0,0.0,5.341
-73.0,-8.0,5.342
-68.0,-9.0,5.343
-17.0,-1.0,5.344
72.0,12.0,5.345
126.0,18.0,5.346
85.0,18.0,5.347
-9.0,15.0,5.348
-49.0,17.0,5.349
-6.0,20.0,5.35
27.0,14.0,5.351
-4.0,3.0,5.352
-43.0,-6.0,5.353
-28.0,-8.0,5.354
5.0,-7.0,5.355
-1.0,-5.0,5.356
-16.0,1.0,5.357
4.0,5.0,5.358
36.0,3.0,5.359
29.0,-8.0,5.36
2.0,-20.0,5.361
4.0,-17.0,5.362
20.0,-8.0,5.363
5.0,-3.0,5.364
-27.0,-5.0,5.365
-31.0,-2.0,5.366
-8.0,2.0,5.367
1.0,3.0,5.368
-11.0,1.0,5.369
-21.0,5.0,5.37
-20.0,11.0,5.371
-13.0,7.0,5.372
-4.0,-5.0,5.373
1.0,-9.0,5.374
-4.0,0.0,5.375
-10.0,11.0,5.376
2.0,9.0,5.377
22.0,-1.0,5.378
31.0,-1.0,5.379
27.0,8.0,5.38
26.0,9.0,5.381
26.0,5.0,5.382
16.0,0.0,5.383
0.0,-7.0,5.384
-6.0,-17.0,5.385
-8.0,-28.0,5.386
-21.0,-27.0,5.387
-31.0,-17.0,5.388
-14.0,-9.0,5.389
25.0,-7.0,5.39
45.0,-1.0,5.391
33.0,13.0,5.392
15.0,19.0,5.393
9.0,8.0,5.394
7.0,-2.0,5.395
-6.0,0.0,5.396
-19.0,11.0,5.397
-20.0,13.0,5.398
-5.0,4.0,5.399
6.0,-1.0,5.4
0.0,-3.0,5.401
-8.0,-2.0,5.402
-5.0,-3.0,5.403
9.0,0.0,5.404
16.0,6.0,5.405
10.0,9.0,5.406
1.0,0.0,5.407
-2.0,-9.0,5.408
1.0,-9.0,5.409
3.0,-4.0,5.41
6.0,-1.0,5.411
10.0,-1.0,5.412
13.0,-2.0,5.413
11.0,1.0,5.414
13.0,3.0,5.415
18.0,2.0,5.416
19.0,1.0,5.417
11.0,0.0,5.418
0.0,-3.0,5.419
-8.0,-7.0,5.42
-17.0,-8.0,5.421
-22.0,-1.0,5.422
-22.0,9.0,5.423
-11.0,8.0,5.424
3.0,-1.0,5.425
9.0,-7.0,5.426
8.0,-9.0,5.427
8.0,-6.0,5.428
7.0,-2.0,5.429
-1.0,3.0,5.43
-11.0,5.0,5.431
-9.0,2.0,5.432
4.0,1.0,5.433
15.0,1.0,5.434
13.0,-2.0,5.435
12.0,-6.0,5.436
24.0,-3.0,5.437
40.0,0.0,5.438
40.0,1.0,5.439
20.0,-6.0,5.44
-4.0,-16.0,5.441
-22.0,-15.0,5.442
-39.0,-7.0,5.443
-56.0,5.0,5.444
-61.0,14.0,5.445
-41.0,14.0,5.446
-3.0,11.0,5.447
29.0,9.0,5.448
42.0,13.0,5.449
43.0,15.0,5.45
36.0,6.0,5.451
22.0,-5.0,5.452
-8.0,-16.0,5.453
-49.0,-17.0,5.454
-87.0,-11.0,5.455
-90.0,-6.0,5.456
-40.0,-1.0,5.457
53.0,1.0,5.458
132.0,8.0,5.459
127.0,16.0,5.46
49.0,13.0,5.461
-21.0,3.0,5.462
-27.0,-3.0,5.463
0.0,0.0,5.464
5.0,6.0,5.465
-10.0,6.0,5.466
-8.0,2.0,5.467
11.0,-1.0,5.468
19.0,-2.0,5.469
12.0,0.0,5.47
16.0,5.0,5.471
33.0,6.0,5.472
37.0,-1.0,5.473
21.0,-12.0,5.474
9.0,-18.0,5.475
10.0,-13.0,5.476
5.0,-2.0,5.477
-24.0,4.0,5.478
-53.0,0.0,5.479
-54.0,-7.0,5.48
-29.0,-14.0,5.481
-10.0,-10.0,5.482
-7.0,-5.0,5.483
-5.0,0.0,5.484
5.0,8.0,5.485
14.0,10.0,5.486
8.0,3.0,5.487
-3.0,-6.0,5.488
-1.0,-7.0,5.489
15.0,0.0,5.49
25.0,3.0,5.491
18.0,-2.0,5.492
3.0,-3.0,5.493
-6.0,-4.0,5.494
-16.0,-10.0,5.495
-35.0,-18.0,5.496
-57.0,-19.0,5.497
-66.0,-18.0,5.498
-48.0,-20.0,5.499
-13.0,-20.0,5.5
16.0,-6.0,5.501
32.0,21.0,5.502
50.0,43.0,5.503
74.0,47.0,5.504
85.0,38.0,5.505
74.0,26.0,5.506
51.0,11.0,5.507
26.0,2.0,5.508
2.0,3.0,5.509
-3.0,4.0,5.51
13.0,0.0,5.511
20.0,-7.0,5.512
-4.0,-6.0,5.513
-29.0,0.0,5.514
-21.0,0.0,5.515
2.0,-1.0,5.516
1.0,-2.0,5.517
-18.0,-5.0,5.518
-19.0,-7.0,5.519
-20.0,-9.0,5.52
-17.0,-12.0,5.521
-10.0,-15.0,5.522
11.0,-15.0,5.523
26.0,-12.0,5.524
20.0,-2.0,5.525
16.0,2.0,5.526
18.0,-11.0,5.527
20.0,-19.0,5.528
20.0,-7.0,5.529
9.0,2.0,5.53
-29.0,2.0,5.531
-66.0,2.0,5.532
-95.0,-2.0,5.533
-108.0,-4.0,5.534
-68.0,1.0,5.535
-23.0,3.0,5.536
30.0,-6.0,5.537
76.0,-14.0,5.538
80.0,-9.0,5.539
65.0,-6.0,5.54
57.0,-5.0,5.541
38.0,8.0,5.542
-9.0,32.0,5.543
-47.0,42.0,5.544
-22.0,25.0,5.545
35.0,-1.0,5.546
41.0,-9.0,5.547
-7.0,-2.0,5.548
-31.0,6.0,5.549
-7.0,1.0,5.55
15.0,-8.0,5.551
4.0,-10.0,5.552
-2.0,-3.0,5.553
15.0,5.0,5.554
28.0,7.0,5.555
26.0,4.0,5.556
35.0,3.0,5.557
48.0,2.0,5.558
39.0,5.0,5.559
-1.0,4.0,5.56
-34.0,-8.0,5.561
-43.0,-21.0,5.562
-35.0,-23.0,5.563
-13.0,-10.0,5.564
21.0,3.0,5.565
40.0,2.0,5.566
22.0,-8.0,5.567
-6.0,-11.0,5.568
-10.0,1.0,5.569
-1.0,18.0,5.57
-5.0,24.0,5.571
-10.0,17.0,5.572
7.0,6.0,5.573
27.0,-4.0,5.574
19.0,-9.0,5.575
-5.0,-11.0,5.576
-14.0,-9.0,5.577
-13.0,4.0,5.578
-27.0,-2.0,5.579
-37.0,-8.0,5.58
-27.0,-7.0,5.581
-11.0,-4.0,5.582
15.0,1.0,5.583
34.0,8.0,5.584
15.0,6.0,5.585
3.0,4.0,5.586
9.0,0.0,5.587
10.0,-2.0,5.588
-2.0,-2.0,5.589
-13.0,-2.0,5.59
-7.0,-3.0,5.591
-2.0,-5.0,5.592
2.0,-5.0,5.593
7.0,-5.0,5.594
13.0,-10.0,5.595
18.0,-13.0,5.596
23.0,-10.0,5.597
-10.0,3.0,5.598
-21.0,-2.0,5.599
-28.0,-7.0,5.6
-21.0,-6.0,5.601
-9.0,-4.0,5.602
12.0,1.0,5.603
26.0,6.0,5.604
12.0,5.0,5.605
3.0,3.0,5.606
7.0,0.0,5.607
8.0,-2.0,5.608
-2.0,-2.0,5.609
-10.0,-2.0,5.61
-6.0,-3.0,5.611
-2.0,-5.0,5.612
2.0,-5.0,5.613
6.0,-5.0,5.614
10.0,-9.0,5.615
14.0,-12.0,5.616
18.0,-9.0,5.617
20.0,3.0,5.618
15.0,-2.0,5.619
9.0,-7.0,5.62
4.0,-6.0,5.621
6.0,-4.0,5.622
13.0,1.0,5.623
17.0,6.0,5.624
14.0,5.0,5.625
8.0,3.0,5.626
4.0,0.0,5.627
2.0,-2.0,5.628
-5.0,-2.0,5.629
-14.0,-2.0,5.63
-24.0,-3.0,5.631
-30.0,-5.0,5.632
-26.0,-5.0,5.633
-4.0,-5.0,5.634
26.0,-9.0,5.635
50.0,-11.0,5.636
62.0,-9.0,5.637
58.0,-7.0,5.638
40.0,-13.0,5.639
3.0,-17.0,5.64
-42.0,-11.0,5.641
-81.0,2.0,5.642
-96.0,14.0,5.643
-75.0,17.0,5.644
-27.0,13.0,5.645
14.0,7.0,5.646
21.0,5.0,5.647
3.0,7.0,5.648
-5.0,8.0,5.649
3.0,7.0,5.65
12.0,4.0,5.651
9.0,2.0,5.652
13.0,3.0,5.653
25.0,8.0,5.654
28.0,8.0,5.655
12.0,3.0,5.656
0.0,1.0,5.657
6.0,1.0,5.658
17.0,5.0,5.659
13.0,1.0,5.66
-1.0,-7.0,5.661
-4.0,-12.0,5.662
5.0,-7.0,5.663
14.0,0.0,5.664
10.0,1.0,5.665
2.0,-6.0,5.666
2.0,-15.0,5.667
8.0,-17.0,5.668
11.0,-10.0,5.669
8.0,0.0,5.67
7.0,3.0,5.671
10.0,-3.0,5.672
13.0,-7.0,5.673
10.0,-5.0,5.674
2.0,-3.0,5.675
-9.0,-5.0,5.676
-25.0,-5.0,5.677
-41.0,-7.0,5.678
-36.0,-6.0,5.679
1.0,-1.0,5.68
52.0,2.0,5.681
75.0,9.0,5.682
52.0,8.0,5.683
2.0,-1.0,5.684
-31.0,-10.0,5.685
-33.0,-7.0,5.686
-19.0,11.0,5.687
-6.0,31.0,5.688
2.0,33.0,5.689
15.0,20.0,5.69
21.0,4.0,5.691
9.0,-6.0,5.692
-11.0,-11.0,5.693
-18.0,-10.0,5.694
-9.0,-4.0,5.695
4.0,-1.0,5.696
15.0,-4.0,5.697
18.0,-6.0,5.698
5.0,-4.0,5.699
-29.0,-4.0,5.7
-52.0,-12.0,5.701
-33.0,-17.0,5.702
9.0,-15.0,5.703
12.0,-12.0,5.704
-33.0,-6.0,5.705
-54.0,0.0,5.706
11.0,10.0,5.707
125.0,15.0,5.708
188.0,5.0,5.709
156.0,-2.0,5.71
73.0,-3.0,5.711
4.0,-3.0,5.712
-26.0,3.0,5.713
-30.0,7.0,5.714
-33.0,1.0,5.715
-46.0,-1.0,5.716
-54.0,4.0,5.717
-44.0,9.0,5.718
-26.0,6.0,5.719
-30.0,3.0,5.72
-45.0,-1.0,5.721
-39.0,-5.0,5.722
-12.0,-8.0,5.723
1.0,-6.0,5.724
-6.0,0.0,5.725
-10.0,2.0,5.726
0.0,-4.0,5.727
2.0,-8.0,5.728
-10.0,-6.0,5.729
-15.0,0.0,5.73
-3.0,0.0,5.731
5.0,-4.0,5.732
4.0,-6.0,5.733
3.0,-3.0,5.734
12.0,0.0,5.735
12.0,2.0,5.736
2.0,1.0,5.737
1.0,-6.0,5.738
15.0,-10.0,5.739
25.0,-8.0,5.74
13.0,-2.0,5.741
-7.0,3.0,5.742
-11.0,3.0,5.743
-2.0,0.0,5.744
4.0,-1.0,5.745
6.0,0.0,5.746
22.0,0.0,5.747
49.0,-1.0,5.748
63.0,-1.0,5.749
39.0,5.0,5.75
-13.0,11.0,5.751
-58.0,12.0,5.752
-69.0,3.0,5.753
-48.0,-6.0,5.754
-12.0,-9.0,5.755
30.0,-9.0,5.756
70.0,-6.0,5.757
95.0,-4.0,5.758
83.0,1.0,5.759
39.0,4.0,5.76
-7.0,1.0,5.761
-43.0,-2.0,5.762
-75.0,-4.0,5.763
-99.0,-5.0,5.764
-86.0,-3.0,5.765
-25.0,1.0,5.766
56.0,4.0,5.767
100.0,3.0,5.768
71.0,-2.0,5.769
-2.0,-5.0,5.77
-48.0,0.0,5.771
-23.0,8.0,5.772
34.0,10.0,5.773
54.0,3.0,5.774
23.0,-6.0,5.775
-10.0,-4.0,5.776
-14.0,8.0,5.777
-9.0,16.0,5.778
-7.0,11.0,5.779
-1.0,-1.0,5.78
21.0,-7.0,5.781
43.0,-2.0,5.782
47.0,2.0,5.783
35.0,1.0,5.784
22.0,-1.0,5.785
12.0,0.0,5.786
3.0,-4.0,5.787
-8.0,-9.0,5.788
-23.0,-10.0,5.789
-36.0,-7.0,5.79
-30.0,-6.0,5.791
-5.0,-9.0,5.792
25.0,-9.0,5.793
37.0,-7.0,5.794
29.0,-5.0,5.795
5.0,-5.0,5.796
-21.0,-2.0,5.797
-57.0,6.0,5.798
-92.0,11.0,5.799
-112.0,6.0,5.8
-100.0,-3.0,5.801
-56.0,-4.0,5.802
-4.0,-1.0,5.803
29.0,0.0,5.804
30.0,-1.0,5.805
17.0,1.0,5.806
15.0,1.0,5.807
26.0,-7.0,5.808
33.0,-13.0,5.809
29.0,-10.0,5.81
24.0,-4.0,5.811
25.0,-4.0,5.812
28.0,-6.0,5.813
24.0,-5.0,5.814
22.0,-3.0,5.815
22.0,-2.0,5.816
24.0,0.0,5.817
22.0,3.0,5.818
23.0,5.0,5.819
16.0,0.0,5.82
-3.0,-8.0,5.821
-26.0,-9.0,5.822
-47.0,-5.0,5.823
-89.0,-2.0,5.824
-164.0,-3.0,5.825
-216.0,-4.0,5.826
-152.0,-4.0,5.827
20.0,-2.0,5.828
185.0,5.0,5.829
253.0,15.0,5.83
265.0,20.0,5.831
266.0,18.0,5.832
215.0,15.0,5.833
77.0,12.0,5.834
-60.0,4.0,5.835
-85.0,-5.0,5.836
-29.0,-6.0,5.837
0.0,1.0,5.838
-24.0,7.0,5.839
-31.0,1.0,5.84
10.0,-14.0,5.841
31.0,-20.0,5.842
-7.0,-13.0,5.843
-56.0,-2.0,5.844
-66.0,3.0,5.845
-54.0,2.0,5.846
-52.0,0.0,5.847
-59.0,0.0,5.848
-63.0,7.0,5.849
-67.0,20.0,5.85
-68.0,30.0,5.851
-53.0,31.0,5.852
-21.0,27.0,5.853
6.0,23.0,5.854
22.0,19.0,5.855
29.0,13.0,5.856
32.0,10.0,5.857
24.0,6.0,5.858
7.0,1.0,5.859
-18.0,-8.0,5.86
-63.0,-26.0,5.861
-122.0,-43.0,5.862
-152.0,-57.0,5.863
-104.0,-65.0,5.864
12.0,-60.0,5.865
124.0,-47.0,5.866
177.0,-34.0,5.867
173.0,-23.0,5.868
132.0,-6.0,5.869
61.0,15.0,5.87
-12.0,26.0,5.871
-39.0,22.0,5.872
-9.0,18.0,5.873
23.0,22.0,5.874
10.0,25.0,5.875
-18.0,21.0,5.876
-15.0,22.0,5.877
5.0,28.0,5.878
5.0,32.0,5.879
-14.0,25.0,5.88
-17.0,4.0,5.881
1.0,-14.0,5.882
14.0,-28.0,5.883
14.0,-30.0,5.884
15.0,-24.0,5.885
20.0,-17.0,5.886
23.0,-21.0,5.887
23.0,-31.0,5.888
21.0,-32.0,5.889
7.0,-19.0,5.89
-14.0,-7.0,5.891
-24.0,-6.0,5.892
-13.0,-7.0,5.893
9.0,0.0,5.894
20.0,8.0,5.895
13.0,10.0,5.896
-14.0,10.0,5.897
-70.0,17.0,5.898
-127.0,29.0,5.899
-128.0,28.0,5.9
-46.0,8.0,5.901
75.0,-7.0,5.902
161.0,-10.0,5.903
175.0,-6.0,5.904
122.0,-3.0,5.905
28.0,0.0,5.906
-70.0,12.0,5.907
-126.0,29.0,5.908
-120.0,41.0,5.909
-76.0,40.0,5.91
-32.0,34.0,5.911
-1.0,33.0,5.912
22.0,34.0,5.913
45.0,22.0,5.914
76.0,-4.0,5.915
121.0,-33.0,5.916
163.0,-51.0,5.917
149.0,-61.0,5.918
48.0,-53.0,5.919
-98.0,-21.0,5.92
-164.0,11.0,5.921
-89.0,13.0,5.922
30.0,-15.0,5.923
49.0,-33.0,5.924
-36.0,-16.0,5.925
-106.0,6.0,5.926
-104.0,2.0,5.927
-89.0,-11.0,5.928
-89.0,-11.0,5.929
-46.0,-2.0,5.93
51.0,-4.0,5.931
123.0,-8.0,5.932
129.0,4.0,5.933
120.0,26.0,5.934
125.0,39.0,5.935
105.0,44.0,5.936
53.0,51.0,5.937
0.0,52.0,5.938
-46.0,45.0,5.939
-132.0,33.0,5.94
-242.0,23.0,5.941
-281.0,12.0,5.942
-211.0,-4.0,5.943
-105.0,-21.0,5.944
-14.0,-35.0,5.945
104.0,-54.0,5.946
259.0,-71.0,5.947
357.0,-76.0,5.948
325.0,-65.0,5.949
215.0,-55.0,5.95
119.0,-52.0,5.951
44.0,-39.0,5.952
-43.0,-8.0,5.953
-118.0,30.0,5.954
-123.0,53.0,5.955
-72.0,54.0,5.956
-40.0,39.0,5.957
-30.0,20.0,5.958
11.0,13.0,5.959
44.0,6.0,5.96
48.0,2.0,5.961
34.0,0.0,5.962
-34.0,4.0,5.963
-81.0,8.0,5.964
-67.0,14.0,5.965
-69.0,17.0,5.966
-124.0,6.0,5.967
-161.0,0.0,5.968
-143.0,5.0,5.969
-145.0,6.0,5.97
-206.0,-11.0,5.971
-220.0,-23.0,5.972
-91.0,-14.0,5.973
9.0,-7.0,5.974
21.0,-11.0,5.975
65.0,-11.0,5.976
206.0,1.0,5.977
358.0,14.0,5.978
451.0,29.0,5.979
336.0,33.0,5.98
167.0,22.0,5.981
121.0,8.0,5.982
184.0,7.0,5.983
215.0,19.0,5.984
162.0,28.0,5.985
92.0,21.0,5.986
55.0,8.0,5.987
5.0,4.0,5.988
-94.0,0.0,5.989
-191.0,-10.0,5.99
-224.0,-21.0,5.991
-212.0,-21.0,5.992
-210.0,-19.0,5.993
-227.0,-30.0,5.994
-237.0,-44.0,5.995
-261.0,-48.0,5.996
-320.0,-41.0,5.997
-362.0,-30.0,5.998
-273.0,-18.0,5.999
-90.0,-1.0,6.0
67.0,7.0,6.001
152.0,-2.0,6.002
228.0,-18.0,6.003
329.0,-17.0,6.004
385.0,7.0,6.005
348.0,38.0,6.006
281.0,57.0,6.007
252.0,62.0,6.008
224.0,57.0,6.009
128.0,42.0,6.01
-3.0,23.0,6.011
-65.0,9.0,6.012
-34.0,-3.0,6.013
3.0,-18.0,6.014
-22.0,-33.0,6.015
-78.0,-33.0,6.016
-118.0,-19.0,6.017
-164.0,-9.0,6.018
-226.0,-14.0,6.019
-260.0,-19.0,6.02
-213.0,-14.0,6.021
-122.0,-1.0,6.022
-71.0,4.0,6.023
-85.0,-6.0,6.024
-118.0,-22.0,6.025
-103.0,-22.0,6.026
-3.0,-4.0,6.027
145.0,15.0,6.028
239.0,12.0,6.029
218.0,-12.0,6.03
155.0,-29.0,6.031
148.0,-19.0,6.032
155.0,6.0,6.033
69.0,21.0,6.034
-55.0,22.0,6.035
-59.0,24.0,6.036
56.0,36.0,6.037
131.0,46.0,6.038
101.0,50.0,6.039
61.0,53.0,6.04
-8.0,49.0,6.041
-83.0,42.0,6.042
-171.0,25.0,6.043
-225.0,6.0,6.044
-177.0,-17.0,6.045
-145.0,-44.0,6.046
-167.0,-81.0,6.047
-160.0,-109.0,6.048
-64.0,-111.0,6.049
34.0,-104.0,6.05
140.0,-66.0,6.051
224.0,-27.0,6.052
236.0,14.0,6.053
219.0,47.0,6.054
112.0,48.0,6.055
15.0,44.0,6.056
-48.0,24.0,6.057
-90.0,9.0,6.058
-54.0,11.0,6.059
-30.0,-9.0,6.06
-48.0,-52.0,6.061
-50.0,-80.0,6.062
15.0,-75.0,6.063
65.0,-48.0,6.064
-17.0,-19.0,6.065
-176.0,2.0,6.066
-243.0,17.0,6.067
-183.0,27.0,6.068
-111.0,33.0,6.069
-82.0,31.0,6.07
-33.0,15.0,6.071
63.0,-3.0,6.072
153.0,-5.0,6.073
237.0,4.0,6.074
338.0,10.0,6.075
371.0,10.0,6.076
252.0,15.0,6.077
38.0,27.0,6.078
-81.0,32.0,6.079
-88.0,28.0,6.08
-107.0,26.0,6.081
-136.0,33.0,6.082
-45.0,39.0,6.083
147.0,37.0,6.084
245.0,34.0,6.085
168.0,38.0,6.086
36.0,52.0,6.087
-44.0,73.0,6.088
-87.0,93.0,6.089
-88.0,92.0,6.09
-3.0,72.0,6.091
107.0,56.0,6.092
107.0,48.0,6.093
-13.0,30.0,6.094
-124.0,-7.0,6.095
-171.0,-48.0,6.096
-220.0,-78.0,6.097
-292.0,-115.0,6.098
-290.0,-165.0,6.099
-167.0,-202.0,6.1
-10.0,-208.0,6.101
84.0,-191.0,6.102
126.0,-173.0,6.103
164.0,-142.0,6.104
206.0,-68.0,6.105
217.0,29.0,6.106
137.0,93.0,6.107
-64.0,93.0,6.108
-301.0,63.0,6.109
-406.0,62.0,6.11
-314.0,92.0,6.111
-128.0,105.0,6.112
51.0,68.0,6.113
236.0,10.0,6.114
416.0,-14.0,6.115
465.0,2.0,6.116
331.0,31.0,6.117
117.0,41.0,6.118
-9.0,31.0,6.119
-32.0,9.0,6.12
-55.0,-11.0,6.121
-108.0,-15.0,6.122
-144.0,0.0,6.123
-120.0,14.0,6.124
-33.0,0.0,6.125
76.0,-35.0,6.126
101.0,-59.0,6.127
-24.0,-50.0,6.128
-183.0,-18.0,6.129
-179.0,7.0,6.13
-26.0,17.0,6.131
76.0,13.0,6.132
61.0,2.0,6.133
64.0,-2.0,6.134
135.0,14.0,6.135
130.0,47.0,6.136
-15.0,81.0,6.137
-205.0,111.0,6.138
-293.0,127.0,6.139
-277.0,107.0,6.14
-216.0,33.0,6.141
-129.0,-46.0,6.142
-17.0,-58.0,6.143
120.0,16.0,6.144
291.0,121.0,6.145
431.0,184.0,6.146
397.0,180.0,6.147
177.0,128.0,6.148
-16.0,58.0,6.149
-27.0,0.0,6.15
5.0,-38.0,6.151
-86.0,-83.0,6.152
-203.0,-148.0,6.153
-168.0,-207.0,6.154
-80.0,-226.0,6.155
-167.0,-216.0,6.156
-392.0,-209.0,6.157
-490.0,-208.0,6.158
-319.0,-191.0,6.159
-93.0,-173.0,6.16
300.0,-154.0,6.161
575.0,-111.0,6.162
496.0,0.0,6.163
383.0,115.0,6.164
167.0,245.0,6.165
8.0,327.0,6.166
24.0,260.0,6.167
53.0,187.0,6.168
122.0,95.0,6.169
185.0,20.0,6.17
225.0,1.0,6.171
224.0,-15.0,6.172
96.0,-27.0,6.173
-16.0,-38.0,6.174
-83.0,-48.0,6.175
-143.0,-63.0,6.176
-180.0,-92.0,6.177
-230.0,-117.0,6.178
-365.0,-105.0,6.179
-493.0,-57.0,6.18
-421.0,-16.0,6.181
-173.0,0.0,6.182
0.0,2.0,6.183
-3.0,11.0,6.184
-19.0,22.0,6.185
63.0,6.0,6.186
133.0,-39.0,6.187
112.0,-85.0,6.188
95.0,-96.0,6.189
143.0,-59.0,6.19
179.0,15.0,6.191
161.0,101.0,6.192
157.0,169.0,6.193
162.0,182.0,6.194
71.0,129.0,6.195
-67.0,41.0,6.196
-73.0,-24.0,6.197
75.0,-56.0,6.198
171.0,-70.0,6.199
91.0,-89.0,6.2
-12.0,-91.0,6.201
-11.0,-31.0,6.202
1.0,75.0,6.203
-70.0,153.0,6.204
-128.0,150.0,6.205
-87.0,95.0,6.206
-42.0,51.0,6.207
-100.0,36.0,6.208
-207.0,31.0,6.209
-266.0,17.0,6.21
-250.0,3.0,6.211
-148.0,-5.0,6.212
37.0,-18.0,6.213
188.0,-40.0,6.214
161.0,-59.0,6.215
18.0,-55.0,6.216
-55.0,-31.0,6.217
-32.0,-20.0,6.218
-27.0,-47.0,6.219
-47.0,-83.0,6.22
30.0,-74.0,6.221
169.0,-9.0,6.222
163.0,42.0,6.223
-24.0,19.0,6.224
-163.0,-45.0,6.225
-81.0,-76.0,6.226
145.0,-59.0,6.227
372.0,-47.0,6.228
517.0,-63.0,6.229
464.0,-67.0,6.23
137.0,-21.0,6.231
-268.0,52.0,6.232
-400.0,107.0,6.233
-197.0,124.0,6.234
32.0,111.0,6.235
56.0,83.0,6.236
-29.0,56.0,6.237
-75.0,41.0,6.238
-84.0,42.0,6.239
-116.0,39.0,6.24
-131.0,4.0,6.241
-73.0,-51.0,6.242
28.0,-99.0,6.243
117.0,-105.0,6.244
181.0,-66.0,6.245
194.0,-12.0,6.246
121.0,17.0,6.247
-14.0,17.0,6.248
-148.0,8.0,6.249
-263.0,12.0,6.25
-351.0,37.0,6.251
-333.0,59.0,6.252
-169.0,51.0,6.253
47.0,15.0,6.254
181.0,-15.0,6.255
211.0,-21.0,6.256
182.0,-24.0,6.257
92.0,-46.0,6.258
-40.0,-64.0,6.259
-135.0,-51.0,6.26
-131.0,-34.0,6.261
-66.0,-42.0,6.262
22.0,-60.0,6.263
140.0,-38.0,6.264
248.0,26.0,6.265
248.0,80.0,6.266
146.0,91.0,6.267
76.0,71.0,6.268
100.0,46.0,6.269
122.0,20.0,6.27
65.0,-4.0,6.271
-12.0,-21.0,6.272
-40.0,-34.0,6.273
-54.0,-42.0,6.274
-90.0,-42.0,6.275
-100.0,-26.0,6.276
-41.0,0.0,6.277
34.0,14.0,6.278
31.0,8.0,6.279
-62.0,-12.0,6.28
-152.0,-32.0,6.281
-171.0,-39.0,6.282
-124.0,-30.0,6.283
-70.0,-6.0,6.284
-28.0,28.0,6.285
11.0,54.0,6.286
39.0,43.0,6.287
26.0,0.0,6.288
-13.0,-37.0,6.289
-17.0,-41.0,6.29
37.0,-21.0,6.291
108.0,-7.0,6.292
149.0,-6.0,6.293
165.0,0.0,6.294
171.0,31.0,6.295
151.0,77.0,6.296
100.0,102.0,6.297
10.0,76.0,6.298
-88.0,14.0,6.299
-164.0,-37.0,6.3
-195.0,-47.0,6.301
-195.0,-39.0,6.302
-205.0,-46.0,6.303
-226.0,-53.0,6.304
-219.0,-32.0,6.305
-158.0,6.0,6.306
-67.0,29.0,6.307
38.0,30.0,6.308
153.0,30.0,6.309
233.0,36.0,6.31
214.0,44.0,6.311
106.0,45.0,6.312
-12.0,34.0,6.313
-90.0,-3.0,6.314
-108.0,-52.0,6.315
-43.0,-73.0,6.316
88.0,-55.0,6.317
203.0,-23.0,6.318
196.0,-3.0,6.319
97.0,9.0,6.32
38.0,26.0,6.321
51.0,37.0,6.322
52.0,30.0,6.323
4.0,11.0,6.324
-29.0,3.0,6.325
-19.0,3.0,6.326
-11.0,-5.0,6.327
-16.0,-21.0,6.328
10.0,-28.0,6.329
55.0,-15.0,6.33
53.0,0.0,6.331
13.0,-6.0,6.332
18.0,-33.0,6.333
72.0,-55.0,6.334
68.0,-57.0,6.335
-41.0,-48.0,6.336
-153.0,-40.0,6.337
-176.0,-25.0,6.338
-109.0,-3.0,6.339
-29.0,9.0,6.34
9.0,-3.0,6.341
6.0,-12.0,6.342
-8.0,12.0,6.343
9.0,57.0,6.344
76.0,77.0,6.345
142.0,54.0,6.346
126.0,20.0,6.347
19.0,9.0,6.348
-94.0,16.0,6.349
-125.0,23.0,6.35
-73.0,19.0,6.351
-2.0,2.0,6.352
34.0,-24.0,6.353
26.0,-47.0,6.354
-7.0,-40.0,6.355
-38.0,7.0,6.356
-35.0,61.0,6.357
11.0,78.0,6.358
63.0,38.0,6.359
66.0,-24.0,6.36
29.0,-57.0,6.361
22.0,-44.0,6.362
68.0,-24.0,6.363
89.0,-32.0,6.364
23.0,-53.0,6.365
-77.0,-39.0,6.366
-124.0,4.0,6.367
-110.0,34.0,6.368
-92.0,43.0,6.369
-80.0,65.0,6.37
-48.0,96.0,6.371
-23.0,81.0,6.372
-41.0,8.0,6.373
-61.0,-50.0,6.374
-16.0,-46.0,6.375
65.0,-30.0,6.376
93.0,-58.0,6.377
61.0,-108.0,6.378
43.0,-97.0,6.379
54.0,-11.0,6.38
42.0,85.0,6.381
14.0,145.0,6.382
29.0,153.0,6.383
71.0,109.0,6.384
50.0,29.0,6.385
-21.0,-28.0,6.386
-35.0,-28.0,6.387
19.0,-9.0,6.388
22.0,-28.0,6.389
-73.0,-74.0,6.39
-163.0,-103.0,6.391
-154.0,-109.0,6.392
-76.0,-114.0,6.393
9.0,-108.0,6.394
112.0,-58.0,6.395
233.0,31.0,6.396
289.0,110.0,6.397
211.0,142.0,6.398
42.0,113.0,6.399
-87.0,39.0,6.4
-112.0,-34.0,6.401
-60.0,-59.0,6.402
21.0,-47.0,6.403
114.0,-36.0,6.404
173.0,-36.0,6.405
139.0,-19.0,6.406
5.0,17.0,6.407
-133.0,49.0,6.408
-168.0,73.0,6.409
-98.0,94.0,6.41
-25.0,87.0,6.411
-33.0,29.0,6.412
-104.0,-35.0,6.413
-148.0,-40.0,6.414
-106.0,8.0,6.415
-14.0,39.0,6.416
31.0,13.0,6.417
-22.0,-48.0,6.418
-122.0,-95.0,6.419
-152.0,-117.0,6.42
-44.0,-122.0,6.421
139.0,-94.0,6.422
268.0,-21.0,6.423
256.0,68.0,6.424
128.0,126.0,6.425
-2.0,130.0,6.426
-35.0,101.0,6.427
21.0,68.0,6.428
64.0,41.0,6.429
36.0,17.0,6.43
-14.0,-6.0,6.431
-34.0,-26.0,6.432
-50.0,-43.0,6.433
-88.0,-51.0,6.434
-102.0,-48.0,6.435
-46.0,-43.0,6.436
41.0,-45.0,6.437
109.0,-55.0,6.438
155.0,-53.0,6.439
189.0,-29.0,6.44
176.0,-1.0,6.441
67.0,10.0,6.442
-107.0,-10.0,6.443
-261.0,-44.0,6.444
-337.0,-57.0,6.445
-322.0,-35.0,6.446
-209.0,-11.0,6.447
-33.0,-17.0,6.448
102.0,-44.0,6.449
108.0,-24.0,6.45
39.0,62.0,6.451
23.0,146.0,6.452
63.0,142.0,6.453
42.0,65.0,6.454
-64.0,21.0,6.455
-108.0,57.0,6.456
-3.0,102.0,6.457
162.0,73.0,6.458
239.0,2.0,6.459
224.0,-30.0,6.46
201.0,-14.0,6.461
182.0,-10.0,6.462
145.0,-47.0,6.463
111.0,-83.0,6.464
80.0,-85.0,6.465
-13.0,-70.0,6.466
-171.0,-53.0,6.467
-272.0,-24.0,6.468
-239.0,17.0,6.469
-158.0,41.0,6.47
-123.0,34.0,6.471
-99.0,19.0,6.472
-38.0,14.0,6.473
7.0,8.0,6.474
-19.0,-6.0,6.475
-55.0,-13.0,6.476
-20.0,-8.0,6.477
57.0,-7.0,6.478
87.0,-16.0,6.479
55.0,-15.0,6.48
15.0,0.0,6.481
-15.0,14.0,6.482
-57.0,16.0,6.483
-86.0,21.0,6.484
-50.0,29.0,6.485
37.0,17.0,6.486
106.0,-15.0,6.487
134.0,-24.0,6.488
157.0,5.0,6.489
173.0,29.0,6.49
136.0,11.0,6.491
46.0,-16.0,6.492
-23.0,-14.0,6.493
-29.0,-2.0,6.494
-12.0,-15.0,6.495
-7.0,-41.0,6.496
-5.0,-42.0,6.497
1.0,-25.0,6.498
-8.0,-23.0,6.499
-51.0,-46.0,6.5
-104.0,-58.0,6.501
-138.0,-28.0,6.502
-121.0,23.0,6.503
-11.0,50.0,6.504
161.0,35.0,6.505
251.0,4.0,6.506
132.0,-1.0,6.507
-94.0,31.0,6.508
-198.0,62.0,6.509
-101.0,54.0,6.51
37.0,19.0,6.511
56.0,-1.0,6.512
-18.0,9.0,6.513
-67.0,25.0,6.514
-45.0,20.0,6.515
4.0,-4.0,6.516
38.0,-29.0,6.517
44.0,-47.0,6.518
29.0,-48.0,6.519
-3.0,-37.0,6.52
-50.0,-31.0,6.521
-94.0,-22.0,6.522
-95.0,9.0,6.523
-30.0,53.0,6.524
48.0,68.0,6.525
61.0,42.0,6.526
17.0,9.0,6.527
8.0,-5.0,6.528
67.0,-16.0,6.529
107.0,-39.0,6.53
61.0,-51.0,6.531
-15.0,-27.0,6.532
-28.0,20.0,6.533
14.0,51.0,6.534
37.0,38.0,6.535
14.0,-5.0,6.536
-11.0,-40.0,6.537
-8.0,-51.0,6.538
9.0,-34.0,6.539
6.0,-18.0,6.54
-32.0,-18.0,6.541
-107.0,-13.0,6.542
-179.0,6.0,6.543
-164.0,29.0,6.544
-16.0,36.0,6.545
175.0,32.0,6.546
239.0,26.0,6.547
131.0,19.0,6.548
-2.0,12.0,6.549
-21.0,6.0,6.55
33.0,5.0,6.551
36.0,10.0,6.552
-32.0,10.0,6.553
-87.0,-6.0,6.554
-77.0,-34.0,6.555
-27.0,-48.0,6.556
24.0,-39.0,6.557
57.0,-29.0,6.558
68.0,-24.0,6.559
69.0,-9.0,6.56
72.0,26.0,6.561
51.0,51.0,6.562
-16.0,35.0,6.563
-80.0,3.0,6.564
-62.0,-7.0,6.565
20.0,-4.0,6.566
74.0,-9.0,6.567
50.0,-7.0,6.568
-12.0,13.0,6.569
-70.0,20.0,6.57
-104.0,-4.0,6.571
-92.0,-22.0,6.572
-18.0,-4.0,6.573
63.0,5.0,6.574
66.0,-25.0,6.575
-17.0,-51.0,6.576
-100.0,-21.0,6.577
-122.0,38.0,6.578
-61.0,63.0,6.579
49.0,40.0,6.58
133.0,-1.0,6.581
116.0,-26.0,6.582
13.0,-21.0,6.583
-62.0,24.0,6.584
-30.0,80.0,6.585
56.0,80.0,6.586
99.0,21.0,6.587
81.0,-30.0,6.588
41.0,-26.0,6.589
-8.0,-8.0,6.59
-62.0,-16.0,6.591
-77.0,-35.0,6.592
-30.0,-31.0,6.593
25.0,-18.0,6.594
37.0,-11.0,6.595
38.0,2.0,6.596
62.0,29.0,6.597
74.0,29.0,6.598
25.0,0.0,6.599
-39.0,-22.0,6.6
-48.0,-19.0,6.601
-35.0,-18.0,6.602
-58.0,-26.0,6.603
-74.0,-31.0,6.604
-7.0,-28.0,6.605
93.0,-26.0,6.606
106.0,-30.0,6.607
33.0,-28.0,6.608
-21.0,-8.0,6.609
-13.0,8.0,6.61
0.0,8.0,6.611
-14.0,7.0,6.612
-35.0,-2.0,6.613
-55.0,-6.0,6.614
-80.0,10.0,6.615
-82.0,25.0,6.616
-42.0,40.0,6.617
1.0,47.0,6.618
0.0,21.0,6.619
-15.0,-7.0,6.62
22.0,-16.0,6.621
81.0,-11.0,6.622
76.0,-10.0,6.623
3.0,-6.0,6.624
-52.0,12.0,6.625
-46.0,26.0,6.626
-6.0,13.0,6.627
13.0,-4.0,6.628
3.0,-2.0,6.629
1.0,11.0,6.63
41.0,8.0,6.631
97.0,-13.0,6.632
102.0,-33.0,6.633
24.0,-43.0,6.634
-79.0,-48.0,6.635
-124.0,-41.0,6.636
-94.0,-6.0,6.637
-22.0,44.0,6.638
55.0,48.0,6.639
99.0,-1.0,6.64
63.0,-52.0,6.641
-24.0,-31.0,6.642
-56.0,60.0,6.643
-2.0,132.0,6.644
30.0,108.0,6.645
-47.0,23.0,6.646
-139.0,-27.0,6.647
-120.0,-15.0,6.648
-31.0,1.0,6.649
5.0,-26.0,6.65
-6.0,-67.0,6.651
21.0,-79.0,6.652
67.0,-64.0,6.653
27.0,-32.0,6.654
-85.0,24.0,6.655
-138.0,80.0,6.656
-70.0,82.0,6.657
74.0,12.0,6.658
210.0,-57.0,6.659
286.0,-66.0,6.66
287.0,-47.0,6.661
211.0,-35.0,6.662
110.0,6.0,6.663
46.0,103.0,6.664
43.0,180.0,6.665
72.0,150.0,6.666
76.0,47.0,6.667
13.0,-23.0,6.668
-95.0,-22.0,6.669
-167.0,-3.0,6.67
-154.0,-4.0,6.671
-103.0,-10.0,6.672
-85.0,-18.0,6.673
-103.0,-36.0,6.674
-115.0,-54.0,6.675
-98.0,-53.0,6.676
-54.0,-37.0,6.677
23.0,-28.0,6.678
103.0,-24.0,6.679
122.0,-14.0,6.68
72.0,-19.0,6.681
-12.0,-50.0,6.682
-111.0,-85.0,6.683
-222.0,-80.0,6.684
-270.0,-30.0,6.685
-145.0,24.0,6.686
118.0,42.0,6.687
325.0,26.0,6.688
324.0,-2.0,6.689
158.0,-20.0,6.69
-21.0,-15.0,6.691
-103.0,12.0,6.692
-62.0,46.0,6.693
55.0,67.0,6.694
139.0,74.0,6.695
98.0,71.0,6.696
-25.0,54.0,6.697
-119.0,17.0,6.698
-104.0,-14.0,6.699
-47.0,-21.0,6.7
-36.0,-16.0,6.701
-71.0,-22.0,6.702
-88.0,-36.0,6.703
-72.0,-39.0,6.704
-48.0,-34.0,6.705
-18.0,-37.0,6.706
28.0,-39.0,6.707
61.0,-24.0,6.708
44.0,1.0,6.709
-5.0,5.0,6.71
-28.0,-17.0,6.711
-7.0,-42.0,6.712
13.0,-45.0,6.713
-16.0,-32.0,6.714
-73.0,-14.0,6.715
-76.0,18.0,6.716
3.0,62.0,6.717
87.0,95.0,6.718
84.0,89.0,6.719
44.0,45.0,6.72
-104.0,-1.0,6.721
-193.0,-10.0,6.722
-105.0,12.0,6.723
26.0,36.0,6.724
286.0,39.0,6.725
445.0,28.0,6.726
303.0,12.0,6.727
160.0,-4.0,6.728
11.0,-21.0,6.729
-88.0,-26.0,6.73
-38.0,-18.0,6.731
-15.0,-12.0,6.732
-73.0,-23.0,6.733
-128.0,-44.0,6.734
-168.0,-59.0,6.735
-197.0,-68.0,6.736
-189.0,-72.0,6.737
-166.0,-72.0,6.738
-80.0,-53.0,6.739
42.0,-11.0,6.74
158.0,36.0,6.741
223.0,69.0,6.742
223.0,70.0,6.743
171.0,53.0,6.744
91.0,35.0,6.745
-2.0,17.0,6.746
-103.0,-10.0,6.747
-199.0,-39.0,6.748
-244.0,-37.0,6.749
-193.0,-2.0,6.75
-54.0,35.0,6.751
98.0,39.0,6.752
178.0,10.0,6.753
156.0,-22.0,6.754
72.0,-30.0,6.755
-21.0,-14.0,6.756
-79.0,11.0,6.757
-77.0,36.0,6.758
-11.0,66.0,6.759
58.0,93.0,6.76
47.0,79.0,6.761
-22.0,28.0,6.762
-28.0,-3.0,6.763
72.0,19.0,6.764
143.0,39.0,6.765
60.0,7.0,6.766
-93.0,-37.0,6.767
-148.0,-28.0,6.768
-90.0,0.0,6.769
-41.0,-18.0,6.77
-63.0,-72.0,6.771
-115.0,-90.0,6.772
-156.0,-70.0,6.773
-151.0,-66.0,6.774
-56.0,-75.0,6.775
116.0,-43.0,6.776
239.0,28.0,6.777
228.0,66.0,6.778
151.0,50.0,6.779
132.0,33.0,6.78
181.0,19.0,6.781
213.0,6.0,6.782
191.0,-5.0,6.783
135.0,-13.0,6.784
51.0,-9.0,6.785
-54.0,-5.0,6.786
-121.0,-4.0,6.787
-114.0,-9.0,6.788
-100.0,-34.0,6.789
-150.0,-60.0,6.79
-224.0,-88.0,6.791
-221.0,-93.0,6.792
-126.0,-30.0,6.793
3.0,40.0,6.794
114.0,130.0,6.795
159.0,182.0,6.796
96.0,112.0,6.797
-56.0,27.0,6.798
-165.0,-60.0,6.799
-162.0,-36.0,6.8
-121.0,20.0,6.801
-87.0,13.0,6.802
25.0,-36.0,6.803
244.0,-37.0,6.804
392.0,25.0,6.805
288.0,80.0,6.806
3.0,76.0,6.807
-237.0,18.0,6.808
-298.0,-54.0,6.809
-200.0,-107.0,6.81
-29.0,-115.0,6.811
134.0,-82.0,6.812
222.0,-29.0,6.813
213.0,30.0,6.814
124.0,76.0,6.815
-15.0,75.0,6.816
-148.0,25.0,6.817
-212.0,-30.0,6.818
-169.0,-39.0,6.819
-62.0,-19.0,6.82
55.0,-20.0,6.821
156.0,-24.0,6.822
204.0,-5.0,6.823
139.0,9.0,6.824
4.0,-15.0,6.825
-66.0,-48.0,6.826
-29.0,-39.0,6.827
-17.0,-17.0,6.828
-125.0,-37.0,6.829
-237.0,-77.0,6.83
-197.0,-77.0,6.831
-23.0,-29.0,6.832
157.0,34.0,6.833
280.0,101.0,6.834
316.0,154.0,6.835
211.0,136.0,6.836
23.0,49.0,6.837
-95.0,-36.0,6.838
-54.0,-48.0,6.839
-14.0,-31.0,6.84
-124.0,-53.0,6.841
-224.0,-67.0,6.842
-93.0,-11.0,6.843
136.0,65.0,6.844
141.0,79.0,6.845
-78.0,49.0,6.846
-186.0,44.0,6.847
-25.0,53.0,6.848
184.0,28.0,6.849
207.0,-1.0,6.85
97.0,17.0,6.851
8.0,41.0,6.852
-57.0,0.0,6.853
-171.0,-64.0,6.854
-313.0,-71.0,6.855
-384.0,-31.0,6.856
-323.0,-13.0,6.857
-90.0,34.0,6.858
59.0,-6.0,6.859
96.0,-38.0,6.86
-213.0,-31.0,6.861
-428.0,-36.0,6.862
-357.0,-74.0,6.863
-239.0,-84.0,6.864
19.0,-4.0,6.865
230.0,61.0,6.866
289.0,86.0,6.867
274.0,100.0,6.868
32.0,77.0,6.869
-132.0,48.0,6.87
-66.0,-8.0,6.871
4.0,-54.0,6.872
91.0,-70.0,6.873
161.0,-72.0,6.874
172.0,-27.0,6.875
154.0,9.0,6.876
42.0,9.0,6.877
-52.0,14.0,6.878
37.0,-4.0,6.879
59.0,-18.0,6.88
-125.0,-15.0,6.881
-252.0,-17.0,6.882
-210.0,-34.0,6.883
-140.0,-38.0,6.884
13.0,-3.0,6.885
138.0,26.0,6.886
173.0,37.0,6.887
164.0,43.0,6.888
21.0,33.0,6.889
-77.0,20.0,6.89
-38.0,-5.0,6.891
4.0,-25.0,6.892
56.0,-32.0,6.893
97.0,-33.0,6.894
104.0,-13.0,6.895
93.0,3.0,6.896
27.0,3.0,6.897
-39.0,-3.0,6.898
-104.0,-30.0,6.899
-119.0,-36.0,6.9
-27.0,-1.0,6.901
124.0,48.0,6.902
180.0,58.0,6.903
66.0,28.0,6.904
-111.0,-6.0,6.905
-207.0,-25.0,6.906
-186.0,-31.0,6.907
-83.0,-29.0,6.908
60.0,-19.0,6.909
171.0,-9.0,6.91
166.0,-4.0,6.911
37.0,8.0,6.912
-113.0,22.0,6.913
-185.0,20.0,6.914
-180.0,8.0,6.915
-164.0,0.0,6.916
-173.0,-14.0,6.917
-175.0,-76.0,6.918
-109.0,-161.0,6.919
42.0,-181.0,6.92
231.0,-78.0,6.921
374.0,98.0,6.922
397.0,220.0,6.923
277.0,199.0,6.924
83.0,71.0,6.925
-44.0,-40.0,6.926
-44.0,-58.0,6.927
-20.0,-27.0,6.928
-85.0,-31.0,6.929
-182.0,-70.0,6.93
-179.0,-80.0,6.931
-82.0,-41.0,6.932
-17.0,13.0,6.933
-16.0,65.0,6.934
0.0,107.0,6.935
61.0,91.0,6.936
118.0,0.0,6.937
164.0,-99.0,6.938
211.0,-92.0,6.939
176.0,5.0,6.94
-52.0,56.0,6.941
-398.0,1.0,6.942
-583.0,-71.0,6.943
-441.0,-70.0,6.944
-114.0,-6.0,6.945
131.0,57.0,6.946
212.0,105.0,6.947
247.0,143.0,6.948
327.0,151.0,6.949
407.0,99.0,6.95
400.0,21.0,6.951
301.0,-18.0,6.952
174.0,-4.0,6.953
72.0,9.0,6.954
-5.0,-11.0,6.955
-70.0,-45.0,6.956
-129.0,-54.0,6.957
-182.0,-35.0,6.958
-214.0,-6.0,6.959
-233.0,14.0,6.96
-244.0,20.0,6.961
-219.0,22.0,6.962
-133.0,16.0,6.963
-26.0,-4.0,6.964
18.0,-39.0,6.965
-12.0,-81.0,6.966
-19.0,-122.0,6.967
53.0,-154.0,6.968
136.0,-169.0,6.969
124.0,-152.0,6.97
14.0,-99.0,6.971
-138.0,-42.0,6.972
-285.0,-32.0,6.973
-353.0,-69.0,6.974
-249.0,-95.0,6.975
17.0,-57.0,6.976
272.0,29.0,6.977
397.0,109.0,6.978
400.0,133.0,6.979
338.0,112.0,6.98
195.0,103.0,6.981
-14.0,165.0,6.982
-153.0,294.0,6.983
-114.0,427.0,6.984
24.0,468.0,6.985
121.0,353.0,6.986
155.0,100.0,6.987
174.0,-201.0,6.988
155.0,-429.0,6.989
51.0,-503.0,6.99
-110.0,-437.0,6.991
-251.0,-323.0,6.992
-313.0,-243.0,6.993
-264.0,-202.0,6.994
-125.0,-148.0,6.995
8.0,-50.0,6.996
60.0,57.0,6.997
67.0,131.0,6.998
107.0,135.0,6.999
149.0,94.0,7.0
104.0,69.0,7.001
2.0,104.0,7.002
-48.0,157.0,7.003
-37.0,156.0,7.004
-49.0,94.0,7.005
-88.0,40.0,7.006
-80.0,39.0,7.007
-45.0,52.0,7.008
-85.0,34.0,7.009
-196.0,-2.0,7.01
-256.0,-22.0,7.011
-204.0,-20.0,7.012
-99.0,-12.0,7.013
12.0,-6.0,7.014
144.0,-6.0,7.015
267.0,-9.0,7.016
298.0,-7.0,7.017
222.0,20.0,7.018
126.0,72.0,7.019
73.0,110.0,7.02
21.0,94.0,7.021
-88.0,24.0,7.022
-218.0,-63.0,7.023
-281.0,-115.0,7.024
-239.0,-99.0,7.025
-144.0,-30.0,7.026
-88.0,44.0,7.027
-102.0,69.0,7.028
-72.0,24.0,7.029
140.0,-62.0,7.03
459.0,-114.0,7.031
614.0,-62.0,7.032
475.0,72.0,7.033
221.0,183.0,7.034
55.0,174.0,7.035
-29.0,77.0,7.036
-84.0,3.0,7.037
-47.0,-2.0,7.038
85.0,16.0,7.039
87.0,-13.0,7.04
-170.0,-83.0,7.041
-436.0,-128.0,7.042
-389.0,-134.0,7.043
-98.0,-132.0,7.044
132.0,-127.0,7.045
194.0,-83.0,7.046
187.0,-7.0,7.047
138.0,58.0,7.048
7.0,69.0,7.049
-112.0,30.0,7.05
-94.0,-20.0,7.051
-8.0,-46.0,7.052
-45.0,-40.0,7.053
-240.0,-27.0,7.054
-424.0,-25.0,7.055
-414.0,-26.0,7.056
-163.0,-21.0,7.057
283.0,3.0,7.058
668.0,71.0,7.059
691.0,185.0,7.06
329.0,268.0,7.061
-87.0,224.0,7.062
-239.0,65.0,7.063
-153.0,-67.0,7.064
-51.0,-82.0,7.065
-29.0,-33.0,7.066
-32.0,-8.0,7.067
-57.0,-4.0,7.068
-130.0,4.0,7.069
-169.0,-7.0,7.07
-52.0,-57.0,7.071
155.0,-99.0,7.072
236.0,-101.0,7.073
114.0,-92.0,7.074
-67.0,-104.0,7.075
-150.0,-110.0,7.076
-143.0,-95.0,7.077
-134.0,-81.0,7.078
-147.0,-76.0,7.079
-143.0,-45.0,7.08
-103.0,3.0,7.081
-64.0,15.0,7.082
-48.0,-26.0,7.083
-21.0,-35.0,7.084
33.0,34.0,7.085
45.0,104.0,7.086
-65.0,71.0,7.087
-218.0,-30.0,7.088
-178.0,-74.0,7.089
145.0,-6.0,7.09
497.0,100.0,7.091
555.0,165.0,7.092
342.0,175.0,7.093
140.0,148.0,7.094
84.0,95.0,7.095
43.0,32.0,7.096
-52.0,-5.0,7.097
-120.0,-5.0,7.098
-87.0,5.0,7.099
-51.0,-10.0,7.1
-109.0,-39.0,7.101
-222.0,-43.0,7.102
-326.0,-30.0,7.103
-409.0,-38.0,7.104
-387.0,-74.0,7.105
-128.0,-87.0,7.106
313.0,-26.0,7.107
637.0,82.0,7.108
605.0,145.0,7.109
319.0,96.0,7.11
52.0,-16.0,7.111
-46.0,-78.0,7.112
-23.0,-53.0,7.113
21.0,-22.0,7.114
28.0,-37.0,7.115
-12.0,-50.0,7.116
-62.0,-11.0,7.117
-87.0,33.0,7.118
-85.0,23.0,7.119
-98.0,-15.0,7.12
-133.0,-20.0,7.121
-138.0,-3.0,7.122
-78.0,-12.0,7.123
1.0,-33.0,7.124
30.0,-14.0,7.125
-1.0,29.0,7.126
-45.0,39.0,7.127
-58.0,10.0,7.128
-51.0,-18.0,7.129
-72.0,-38.0,7.13
-129.0,-62.0,7.131
-151.0,-77.0,7.132
-63.0,-54.0,7.133
113.0,3.0,7.134
240.0,59.0,7.135
193.0,83.0,7.136
14.0,67.0,7.137
-170.0,8.0,7.138
-204.0,-52.0,7.139
-68.0,-68.0,7.14
120.0,-33.0,7.141
222.0,12.0,7.142
212.0,36.0,7.143
152.0,36.0,7.144
90.0,26.0,7.145
16.0,7.0,7.146
-80.0,-7.0,7.147
-172.0,-7.0,7.148
-202.0,-4.0,7.149
-140.0,-5.0,7.15
-23.0,-4.0,7.151
60.0,8.0,7.152
50.0,12.0,7.153
-26.0,0.0,7.154
-72.0,-5.0,7.155
-31.0,20.0,7.156
77.0,52.0,7.157
175.0,62.0,7.158
154.0,47.0,7.159
-12.0,33.0,7.16
-188.0,21.0,7.161
-200.0,-1.0,7.162
-36.0,-33.0,7.163
143.0,-50.0,7.164
192.0,-37.0,7.165
89.0,-17.0,7.166
-109.0,-22.0,7.167
-285.0,-54.0,7.168
-265.0,-78.0,7.169
7.0,-57.0,7.17
335.0,19.0,7.171
453.0,112.0,7.172
323.0,154.0,7.173
129.0,107.0,7.174
7.0,10.0,7.175
-44.0,-50.0,7.176
-65.0,-43.0,7.177
-88.0,-19.0,7.178
-124.0,-33.0,7.179
-124.0,-67.0,7.18
-15.0,-71.0,7.181
150.0,-37.0,7.182
202.0,-4.0,7.183
90.0,10.0,7.184
-16.0,13.0,7.185
7.0,5.0,7.186
69.0,-16.0,7.187
31.0,-28.0,7.188
-64.0,-12.0,7.189
-109.0,12.0,7.19
-104.0,18.0,7.191
-111.0,9.0,7.192
-121.0,1.0,7.193
-98.0,-7.0,7.194
-62.0,-21.0,7.195
-46.0,-23.0,7.196
-30.0,-9.0,7.197
-2.0,0.0,7.198
3.0,-2.0,7.199
-33.0,-5.0,7.2
-50.0,-2.0,7.201
-12.0,0.0,7.202
31.0,-5.0,7.203
23.0,-7.0,7.204
-8.0,-6.0,7.205
-10.0,-6.0,7.206
3.0,-11.0,7.207
4.0,-10.0,7.208
-2.0,0.0,7.209
-7.0,11.0,7.21
-26.0,16.0,7.211
-56.0,10.0,7.212
-51.0,-4.0,7.213
8.0,-8.0,7.214
77.0,18.0,7.215
91.0,58.0,7.216
53.0,63.0,7.217
0.0,13.0,7.218
-16.0,-30.0,7.219
2.0,-15.0,7.22
20.0,24.0,7.221
13.0,23.0,7.222
-4.0,-16.0,7.223
-29.0,-37.0,7.224
-87.0,-25.0,7.225
-179.0,-20.0,7.226
-239.0,-47.0,7.227
-179.0,-73.0,7.228
9.0,-61.0,7.229
221.0,-1.0,7.23
343.0,78.0,7.231
347.0,135.0,7.232
289.0,130.0,7.233
225.0,70.0,7.234
161.0,10.0,7.235
78.0,-6.0,7.236
-3.0,8.0,7.237
-64.0,10.0,7.238
-88.0,-9.0,7.239
-89.0,-38.0,7.24
-82.0,-68.0,7.241
-90.0,-82.0,7.242
-139.0,-57.0,7.243
-224.0,6.0,7.244
-284.0,57.0,7.245
-242.0,39.0,7.246
-95.0,-30.0,7.247
83.0,-67.0,7.248
183.0,-28.0,7.249
118.0,28.0,7.25
-90.0,25.0,7.251
-233.0,-24.0,7.252
-64.0,-34.0,7.253
386.0,24.0,7.254
729.0,86.0,7.255
625.0,92.0,7.256
230.0,67.0,7.257
-98.0,45.0,7.258
-139.0,29.0,7.259
-55.0,-1.0,7.26
-74.0,-26.0,7.261
-165.0,-25.0,7.262
-173.0,-23.0,7.263
-98.0,-42.0,7.264
-67.0,-50.0,7.265
-107.0,-26.0,7.266
-123.0,-5.0,7.267
-75.0,-18.0,7.268
-32.0,-34.0,7.269
-36.0,-19.0,7.27
-40.0,3.0,7.271
-10.0,-2.0,7.272
6.0,-20.0,7.273
-27.0,-21.0,7.274
-67.0,-19.0,7.275
-64.0,-34.0,7.276
-35.0,-43.0,7.277
-9.0,-17.0,7.278
21.0,26.0,7.279
47.0,41.0,7.28
39.0,15.0,7.281
-7.0,-11.0,7.282
-37.0,-11.0,7.283
-16.0,1.0,7.284
16.0,4.0,7.285
13.0,-5.0,7.286
-8.0,-9.0,7.287
-10.0,-3.0,7.288
0.0,12.0,7.289
3.0,22.0,7.29
11.0,15.0,7.291
33.0,0.0,7.292
48.0,-10.0,7.293
35.0,-10.0,7.294
16.0,-2.0,7.295
21.0,7.0,7.296
37.0,12.0,7.297
32.0,5.0,7.298
9.0,-5.0,7.299
-4.0,-6.0,7.3
1.0,-5.0,7.301
9.0,-4.0,7.302
5.0,-7.0,7.303
-9.0,-10.0,7.304
-35.0,-7.0,7.305
-57.0,-8.0,7.306
-48.0,-10.0,7.307
5.0,-3.0,7.308
70.0,24.0,7.309
113.0,56.0,7.31
117.0,67.0,7.311
73.0,51.0,7.312
-9.0,20.0,7.313
-76.0,-7.0,7.314
-58.0,-21.0,7.315
25.0,-21.0,7.316
70.0,-14.0,7.317
19.0,-16.0,7.318
-55.0,-21.0,7.319
-54.0,-23.0,7.32
15.0,-14.0,7.321
32.0,-11.0,7.322
-92.0,-27.0,7.323
-277.0,-52.0,7.324
-319.0,-100.0,7.325
-106.0,-133.0,7.326
237.0,-117.0,7.327
480.0,-59.0,7.328
527.0,122.0,7.329
424.0,248.0,7.33
201.0,204.0,7.331
-101.0,147.0,7.332
-309.0,53.0,7.333
-285.0,-10.0,7.334
-196.0,18.0,7.335
-283.0,17.0,7.336
-443.0,-70.0,7.337
-377.0,-131.0,7.338
-48.0,-69.0,7.339
228.0,7.0,7.34
276.0,50.0,7.341
245.0,87.0,7.342
256.0,96.0,7.343
226.0,40.0,7.344
117.0,-21.0,7.345
39.0,-7.0,7.346
31.0,33.0,7.347
1.0,2.0,7.348
-62.0,-65.0,7.349
-74.0,-71.0,7.35
-31.0,-28.0,7.351
-21.0,-19.0,7.352
-49.0,-41.0,7.353
-48.0,-34.0,7.354
-21.0,-11.0,7.355
-28.0,-22.0,7.356
-46.0,-44.0,7.357
-31.0,-24.0,7.358
-11.0,14.0,7.359
-34.0,6.0,7.36
-66.0,-39.0,7.361
-39.0,-46.0,7.362
19.0,-15.0,7.363
36.0,0.0,7.364
13.0,-13.0,7.365
-4.0,-16.0,7.366
-7.0,-3.0,7.367
-12.0,0.0,7.368
-7.0,-6.0,7.369
11.0,-2.0,7.37
15.0,7.0,7.371
-5.0,6.0,7.372
-13.0,0.0,7.373
7.0,3.0,7.374
24.0,10.0,7.375
22.0,9.0,7.376
20.0,8.0,7.377
21.0,8.0,7.378
9.0,3.0,7.379
-17.0,-6.0,7.38
-22.0,-8.0,7.381
-3.0,2.0,7.382
12.0,10.0,7.383
10.0,2.0,7.384
4.0,-6.0,7.385
2.0,-2.0,7.386
-1.0,9.0,7.387
1.0,17.0,7.388
14.0,19.0,7.389
20.0,15.0,7.39
11.0,6.0,7.391
0.0,-1.0,7.392
5.0,1.0,7.393
13.0,6.0,7.394
4.0,4.0,7.395
-6.0,-1.0,7.396
-3.0,-1.0,7.397
6.0,3.0,7.398
8.0,4.0,7.399
3.0,2.0,7.4
3.0,2.0,7.401
8.0,8.0,7.402
9.0,11.0,7.403
9.0,6.0,7.404
11.0,2.0,7.405
8.0,-1.0,7.406
6.0,-3.0,7.407
10.0,-3.0,7.408
13.0,-3.0,7.409
-4.0,-4.0,7.41
-42.0,-3.0,7.411
-82.0,-1.0,7.412
-91.0,0.0,7.413
-49.0,-4.0,7.414
26.0,-14.0,7.415
86.0,-22.0,7.416
100.0,-18.0,7.417
82.0,-6.0,7.418
77.0,11.0,7.419
78.0,20.0,7.42
55.0,6.0,7.421
14.0,-11.0,7.422
-5.0,-5.0,7.423
-1.0,27.0,7.424
-20.0,52.0,7.425
-61.0,39.0,7.426
-64.0,4.0,7.427
-12.0,-11.0,7.428
28.0,-1.0,7.429
5.0,9.0,7.43
-37.0,4.0,7.431
-45.0,-5.0,7.432
-33.0,-4.0,7.433
-51.0,10.0,7.434
-85.0,22.0,7.435
-89.0,12.0,7.436
-55.0,-17.0,7.437
-7.0,-46.0,7.438
29.0,-39.0,7.439
42.0,-5.0,7.44
35.0,10.0,7.441
20.0,-3.0,7.442
23.0,-21.0,7.443
45.0,-15.0,7.444
64.0,-2.0,7.445
59.0,-4.0,7.446
39.0,-9.0,7.447
23.0,-7.0,7.448
15.0,-2.0,7.449
7.0,-6.0,7.45
-2.0,-11.0,7.451
-9.0,-8.0,7.452
-3.0,-2.0,7.453
5.0,-2.0,7.454
6.0,-4.0,7.455
-3.0,-4.0,7.456
-11.0,0.0,7.457
-15.0,2.0,7.458
-10.0,6.0,7.459
-7.0,8.0,7.46
-6.0,2.0,7.461
-2.0,-6.0,7.462
6.0,-7.0,7.463
14.0,-4.0,7.464
14.0,3.0,7.465
7.0,8.0,7.466
0.0,6.0,7.467
-1.0,-2.0,7.468
5.0,-8.0,7.469
9.0,-3.0,7.47
0.0,5.0,7.471
-14.0,5.0,7.472
-21.0,-2.0,7.473
-13.0,-4.0,7.474
1.0,1.0,7.475
