Deltoid,Bicep,Time
-3.0,-2.0,0.0
-3.0,-2.0,0.001
-1.0,-3.0,0.002
3.0,-2.0,0.003
7.0,0.0,0.004
4.0,4.0,0.005
-1.0,5.0,0.006
-3.0,3.0,0.007
0.0,1.0,0.008
2.0,4.0,0.009
4.0,6.0,0.01
5.0,6.0,0.011
9.0,3.0,0.012
6.0,0.0,0.013
2.0,-1.0,0.014
1.0,-1.0,0.015
4.0,0.0,0.016
8.0,0.0,0.017
5.0,-4.0,0.018
2.0,-5.0,0.019
-1.0,-4.0,0.02
-4.0,-4.0,0.021
-4.0,-3.0,0.022
0.0,-2.0,0.023
4.0,2.0,0.024
5.0,2.0,0.025
0.0,-11.0,0.026
1.0,-45.0,0.027
6.0,-88.0,0.028
5.0,-112.0,0.029
-1.0,-83.0,0.03
-3.0,-3.0,0.031
0.0,90.0,0.032
3.0,148.0,0.033
4.0,153.0,0.034
5.0,115.0,0.035
6.0,54.0,0.036
4.0,-1.0,0.037
-2.0,-27.0,0.038
-2.0,-19.0,0.039
-3.0,-13.0,0.04
-3.0,-16.0,0.041
-1.0,-19.0,0.042
6.0,-20.0,0.043
10.0,-23.0,0.044
4.0,-28.0,0.045
0.0,-35.0,0.046
0.0,-44.0,0.047
1.0,-46.0,0.048
1.0,-26.0,0.049
2.0,-3.0,0.05
1.0,23.0,0.051
0.0,42.0,0.052
1.0,35.0,0.053
2.0,26.0,0.054
2.0,16.0,0.055
2.0,9.0,0.056
2.0,9.0,0.057
3.0,9.0,0.058
1.0,7.0,0.059
-1.0,-3.0,0.06
-5.0,-14.0,0.061
-8.0,-13.0,0.062
-3.0,-9.0,0.063
8.0,-13.0,0.064
12.0,-17.0,0.065
6.0,-10.0,0.066
0.0,-2.0,0.067
0.0,-4.0,0.068
3.0,-10.0,0.069
1.0,-9.0,0.07
0.0,-3.0,0.071
4.0,-2.0,0.072
8.0,-5.0,0.073
7.0,-2.0,0.074
3.0,1.0,0.075
4.0,0.0,0.076
4.0,-4.0,0.077
1.0,-8.0,0.078
-1.0,-7.0,0.079
-2.0,-9.0,0.08
-2.0,-8.0,0.081
-4.0,-5.0,0.082
-1.0,-1.0,0.083
6.0,1.0,0.084
7.0,7.0,0.085
-1.0,14.0,0.086
-5.0,13.0,0.087
2.0,7.0,0.088
9.0,4.0,0.089
8.0,6.0,0.09
4.0,5.0,0.091
5.0,-1.0,0.092
9.0,-3.0,0.093
6.0,1.0,0.094
1.0,3.0,0.095
2.0,-2.0,0.096
7.0,-5.0,0.097
5.0,-4.0,0.098
0.0,0.0,0.099
-3.0,2.0,0.1
-2.0,0.0,0.101
-1.0,1.0,0.102
2.0,2.0,0.103
6.0,-5.0,0.104
8.0,-27.0,0.105
3.0,-67.0,0.106
0.0,-105.0,0.107
2.0,-107.0,0.108
4.0,-47.0,0.109
2.0,49.0,0.11
2.0,129.0,0.111
6.0,154.0,0.112
10.0,127.0,0.113
5.0,72.0,0.114
0.0,11.0,0.115
0.0,-32.0,0.116
3.0,-40.0,0.117
2.0,-24.0,0.118
-2.0,-9.0,0.119
-6.0,-13.0,0.12
-7.0,-22.0,0.121
-7.0,-15.0,0.122
-3.0,-6.0,0.123
3.0,-6.0,0.124
8.0,-6.0,0.125
4.0,-3.0,0.126
0.0,0.0,0.127
3.0,-5.0,0.128
7.0,-8.0,0.129
6.0,-6.0,0.13
2.0,-6.0,0.131
3.0,-10.0,0.132
6.0,-10.0,0.133
6.0,-5.0,0.134
2.0,-4.0,0.135
1.0,-9.0,0.136
4.0,-7.0,0.137
3.0,-4.0,0.138
1.0,-6.0,0.139
-2.0,-16.0,0.14
-4.0,-29.0,0.141
-5.0,-37.0,0.142
0.0,-40.0,0.143
8.0,-32.0,0.144
7.0,-2.0,0.145
0.0,38.0,0.146
-2.0,65.0,0.147
3.0,68.0,0.148
8.0,56.0,0.149
4.0,36.0,0.15
1.0,9.0,0.151
5.0,-14.0,0.152
7.0,-22.0,0.153
3.0,-23.0,0.154
-2.0,-26.0,0.155
0.0,-29.0,0.156
5.0,-19.0,0.157
4.0,-1.0,0.158
0.0,11.0,0.159
-3.0,15.0,0.16
-4.0,13.0,0.161
-5.0,9.0,0.162
-1.0,1.0,0.163
8.0,-3.0,0.164
12.0,0.0,0.165
5.0,2.0,0.166
1.0,-4.0,0.167
2.0,-9.0,0.168
5.0,-2.0,0.169
2.0,4.0,0.17
-1.0,1.0,0.171
2.0,-6.0,0.172
7.0,-6.0,0.173
7.0,-2.0,0.174
5.0,-3.0,0.175
2.0,-7.0,0.176
1.0,-3.0,0.177
0.0,1.0,0.178
0.0,2.0,0.179
-1.0,-3.0,0.18
-3.0,-7.0,0.181
-3.0,-6.0,0.182
3.0,-5.0,0.183
11.0,-4.0,0.184
10.0,1.0,0.185
4.0,8.0,0.186
3.0,11.0,0.187
4.0,7.0,0.188
4.0,0.0,0.189
2.0,-17.0,0.19
4.0,-53.0,0.191
7.0,-97.0,0.192
6.0,-113.0,0.193
2.0,-73.0,0.194
0.0,13.0,0.195
1.0,100.0,0.196
2.0,146.0,0.197
2.0,139.0,0.198
3.0,95.0,0.199
3.0,34.0,0.2
-4.0,-19.0,0.201
-8.0,-35.0,0.202
-4.0,-18.0,0.203
9.0,1.0,0.204
12.0,2.0,0.205
4.0,-7.0,0.206
0.0,-9.0,0.207
4.0,-7.0,0.208
9.0,-7.0,0.209
6.0,-9.0,0.21
3.0,-10.0,0.211
4.0,-9.0,0.212
5.0,-9.0,0.213
1.0,-9.0,0.214
-2.0,-7.0,0.215
-1.0,-8.0,0.216
3.0,-9.0,0.217
2.0,-12.0,0.218
-1.0,-10.0,0.219
-4.0,-8.0,0.22
-4.0,-9.0,0.221
-2.0,-10.0,0.222
0.0,-12.0,0.223
3.0,-18.0,0.224
3.0,-24.0,0.225
0.0,-30.0,0.226
0.0,-33.0,0.227
4.0,-23.0,0.228
7.0,4.0,0.229
4.0,35.0,0.23
1.0,51.0,0.231
3.0,45.0,0.232
5.0,29.0,0.233
5.0,15.0,0.234
4.0,10.0,0.235
8.0,12.0,0.236
11.0,15.0,0.237
6.0,10.0,0.238
-1.0,-1.0,0.239
-4.0,-11.0,0.24
-5.0,-16.0,0.241
-7.0,-14.0,0.242
-4.0,-12.0,0.243
5.0,-9.0,0.244
12.0,-4.0,0.245
6.0,1.0,0.246
-3.0,0.0,0.247
-3.0,-4.0,0.248
5.0,-1.0,0.249
9.0,2.0,0.25
6.0,0.0,0.251
4.0,-6.0,0.252
6.0,-6.0,0.253
5.0,-1.0,0.254
1.0,0.0,0.255
1.0,-2.0,0.256
5.0,-3.0,0.257
6.0,-4.0,0.258
2.0,-5.0,0.259
-2.0,-6.0,0.26
-3.0,-8.0,0.261
-4.0,-9.0,0.262
0.0,-4.0,0.263
3.0,0.0,0.264
2.0,3.0,0.265
1.0,5.0,0.266
1.0,1.0,0.267
0.0,0.0,0.268
2.0,5.0,0.269
4.0,10.0,0.27
2.0,11.0,0.271
0.0,7.0,0.272
3.0,-14.0,0.273
6.0,-41.0,0.274
6.0,-82.0,0.275
5.0,-105.0,0.276
5.0,-73.0,0.277
3.0,-25.0,0.278
-4.0,69.0,0.279
-7.0,131.0,0.28
-7.0,140.0,0.281
-7.0,104.0,0.282
-3.0,49.0,0.283
5.0,-4.0,0.284
8.0,-31.0,0.285
4.0,-23.0,0.286
1.0,-1.0,0.287
4.0,5.0,0.288
5.0,-6.0,0.289
3.0,-11.0,0.29
1.0,-5.0,0.291
5.0,-2.0,0.292
8.0,-7.0,0.293
7.0,-12.0,0.294
5.0,-11.0,0.295
7.0,-11.0,0.296
10.0,-17.0,0.297
8.0,-20.0,0.298
4.0,-15.0,0.299
-1.0,-8.0,0.3
-3.0,-8.0,0.301
-4.0,-10.0,0.302
0.0,-9.0,0.303
7.0,-6.0,0.304
6.0,-3.0,0.305
0.0,2.0,0.306
-2.0,3.0,0.307
0.0,-2.0,0.308
3.0,-5.0,0.309
2.0,0.0,0.31
-1.0,6.0,0.311
0.0,3.0,0.312
3.0,-2.0,0.313
5.0,-2.0,0.314
3.0,-2.0,0.315
2.0,-12.0,0.316
2.0,-26.0,0.317
3.0,-39.0,0.318
4.0,-41.0,0.319
1.0,-28.0,0.32
-5.0,0.0,0.321
-10.0,35.0,0.322
-5.0,59.0,0.323
2.0,60.0,0.324
7.0,40.0,0.325
2.0,12.0,0.326
0.0,-13.0,0.327
5.0,-25.0,0.328
9.0,-14.0,0.329
8.0,7.0,0.33
4.0,19.0,0.331
3.0,17.0,0.332
1.0,14.0,0.333
-2.0,13.0,0.334
-3.0,3.0,0.335
1.0,-11.0,0.336
5.0,-15.0,0.337
1.0,-13.0,0.338
0.0,-9.0,0.339
-2.0,-6.0,0.34
-3.0,-10.0,0.341
-3.0,-12.0,0.342
2.0,-10.0,0.343
7.0,-7.0,0.344
6.0,-4.0,0.345
4.0,-2.0,0.346
2.0,-3.0,0.347
2.0,-4.0,0.348
6.0,-2.0,0.349
9.0,-1.0,0.35
6.0,-3.0,0.351
4.0,-4.0,0.352
4.0,-1.0,0.353
4.0,2.0,0.354
2.0,3.0,0.355
1.0,4.0,0.356
4.0,1.0,0.357
7.0,-2.0,0.358
5.0,-4.0,0.359
1.0,-4.0,0.36
-2.0,-6.0,0.361
-5.0,-4.0,0.362
-1.0,0.0,0.363
7.0,5.0,0.364
7.0,6.0,0.365
0.0,4.0,0.366
-3.0,0.0,0.367
3.0,-1.0,0.368
9.0,-1.0,0.369
6.0,0.0,0.37
3.0,0.0,0.371
5.0,2.0,0.372
7.0,8.0,0.373
2.0,10.0,0.374
-1.0,-4.0,0.375
2.0,-38.0,0.376
7.0,-79.0,0.377
6.0,-113.0,0.378
1.0,-106.0,0.379
-1.0,-45.0,0.38
-3.0,45.0,0.381
-5.0,125.0,0.382
-1.0,155.0,0.383
4.0,133.0,0.384
7.0,81.0,0.385
2.0,21.0,0.386
-3.0,-20.0,0.387
0.0,-29.0,0.388
3.0,-13.0,0.389
4.0,-2.0,0.39
2.0,-9.0,0.391
2.0,-18.0,0.392
0.0,-15.0,0.393
-2.0,-8.0,0.394
-5.0,-11.0,0.395
-4.0,-16.0,0.396
-2.0,-13.0,0.397
0.0,-10.0,0.398
0.0,-11.0,0.399
-3.0,-16.0,0.4
-7.0,-19.0,0.401
-7.0,-14.0,0.402
1.0,-9.0,0.403
11.0,-6.0,0.404
10.0,-4.0,0.405
3.0,-2.0,0.406
2.0,-1.0,0.407
8.0,-1.0,0.408
12.0,-3.0,0.409
7.0,-8.0,0.41
3.0,-19.0,0.411
4.0,-33.0,0.412
9.0,-43.0,0.413
9.0,-41.0,0.414
8.0,-23.0,0.415
7.0,9.0,0.416
6.0,43.0,0.417
1.0,60.0,0.418
0.0,58.0,0.419
-2.0,39.0,0.42
-2.0,9.0,0.421
-1.0,-11.0,0.422
3.0,-20.0,0.423
7.0,-16.0,0.424
8.0,-10.0,0.425
8.0,-12.0,0.426
4.0,-15.0,0.427
1.0,-9.0,0.428
3.0,2.0,0.429
4.0,15.0,0.43
2.0,23.0,0.431
1.0,24.0,0.432
2.0,17.0,0.433
3.0,8.0,0.434
5.0,0.0,0.435
7.0,-6.0,0.436
9.0,-7.0,0.437
10.0,-10.0,0.438
0.0,-9.0,0.439
-9.0,-6.0,0.44
-9.0,-4.0,0.441
-6.0,-1.0,0.442
-2.0,-1.0,0.443
1.0,-2.0,0.444
3.0,0.0,0.445
2.0,4.0,0.446
1.0,5.0,0.447
3.0,3.0,0.448
5.0,0.0,0.449
2.0,0.0,0.45
1.0,0.0,0.451
2.0,-4.0,0.452
2.0,-7.0,0.453
0.0,-6.0,0.454
-2.0,0.0,0.455
0.0,5.0,0.456
3.0,5.0,0.457
2.0,-7.0,0.458
-1.0,-35.0,0.459
-2.0,-77.0,0.46
-3.0,-112.0,0.461
-5.0,-104.0,0.462
-2.0,-37.0,0.463
7.0,58.0,0.464
10.0,133.0,0.465
3.0,156.0,0.466
-1.0,129.0,0.467
3.0,70.0,0.468
8.0,8.0,0.469
3.0,-28.0,0.47
-2.0,-29.0,0.471
0.0,-13.0,0.472
4.0,-9.0,0.473
3.0,-14.0,0.474
1.0,-16.0,0.475
3.0,-10.0,0.476
7.0,-8.0,0.477
4.0,-14.0,0.478
-1.0,-17.0,0.479
-5.0,-13.0,0.48
-4.0,-15.0,0.481
-3.0,-17.0,0.482
0.0,-12.0,0.483
5.0,-6.0,0.484
9.0,-3.0,0.485
4.0,-4.0,0.486
0.0,-3.0,0.487
1.0,-4.0,0.488
6.0,-9.0,0.489
7.0,-20.0,0.49
5.0,-34.0,0.491
5.0,-45.0,0.492
7.0,-45.0,0.493
6.0,-25.0,0.494
4.0,12.0,0.495
4.0,48.0,0.496
7.0,69.0,0.497
4.0,65.0,0.498
-2.0,45.0,0.499
-6.0,15.0,0.5
-6.0,-13.0,0.501
-4.0,-25.0,0.502
-1.0,-24.0,0.503
3.0,-25.0,0.504
7.0,-29.0,0.505
7.0,-26.0,0.506
4.0,-8.0,0.507
3.0,10.0,0.508
2.0,23.0,0.509
-2.0,27.0,0.51
-4.0,27.0,0.511
-2.0,18.0,0.512
1.0,6.0,0.513
0.0,-1.0,0.514
1.0,-1.0,0.515
6.0,-1.0,0.516
10.0,-1.0,0.517
4.0,-2.0,0.518
-3.0,-3.0,0.519
-7.0,-5.0,0.52
-1.0,-13.0,0.521
4.0,-14.0,0.522
9.0,-9.0,0.523
13.0,-2.0,0.524
9.0,-1.0,0.525
4.0,-3.0,0.526
2.0,-4.0,0.527
1.0,-2.0,0.528
5.0,-2.0,0.529
7.0,-1.0,0.53
5.0,-2.0,0.531
4.0,-6.0,0.532
2.0,-7.0,0.533
1.0,-5.0,0.534
0.0,-2.0,0.535
-2.0,-2.0,0.536
-3.0,-3.0,0.537
-3.0,-2.0,0.538
-2.0,2.0,0.539
-2.0,2.0,0.54
-3.0,-1.0,0.541
-4.0,0.0,0.542
0.0,7.0,0.543
8.0,12.0,0.544
9.0,7.0,0.545
3.0,-16.0,0.546
1.0,-56.0,0.547
6.0,-99.0,0.548
10.0,-108.0,0.549
6.0,-57.0,0.55
2.0,38.0,0.551
3.0,124.0,0.552
4.0,159.0,0.553
3.0,139.0,0.554
7.0,85.0,0.555
12.0,23.0,0.556
13.0,-24.0,0.557
7.0,-41.0,0.558
2.0,-28.0,0.559
2.0,-12.0,0.56
0.0,-15.0,0.561
-1.0,-20.0,0.562
1.0,-14.0,0.563
10.0,-8.0,0.564
13.0,-11.0,0.565
6.0,-13.0,0.566
-1.0,-8.0,0.567
-2.0,-5.0,0.568
-1.0,-10.0,0.569
-1.0,-14.0,0.57
0.0,-11.0,0.571
2.0,-5.0,0.572
4.0,-2.0,0.573
2.0,1.0,0.574
2.0,3.0,0.575
3.0,-5.0,0.576
3.0,-14.0,0.577
0.0,-25.0,0.578
-4.0,-32.0,0.579
-3.0,-40.0,0.58
-3.0,-44.0,0.581
-1.0,-24.0,0.582
0.0,16.0,0.583
2.0,52.0,0.584
4.0,68.0,0.585
4.0,66.0,0.586
1.0,45.0,0.587
1.0,5.0,0.588
0.0,-29.0,0.589
0.0,-40.0,0.59
0.0,-29.0,0.591
0.0,-16.0,0.592
3.0,-5.0,0.593
4.0,10.0,0.594
6.0,25.0,0.595
7.0,27.0,0.596
6.0,17.0,0.597
2.0,8.0,0.598
-2.0,4.0,0.599
-6.0,-1.0,0.6
-8.0,-11.0,0.601
-6.0,-12.0,0.602
-1.0,-6.0,0.603
6.0,-4.0,0.604
9.0,-6.0,0.605
8.0,-5.0,0.606
5.0,-3.0,0.607
4.0,-3.0,0.608
4.0,-5.0,0.609
3.0,-2.0,0.61
4.0,7.0,0.611
5.0,9.0,0.612
5.0,-1.0,0.613
5.0,-25.0,0.614
5.0,-64.0,0.615
5.0,-107.0,0.616
4.0,-118.0,0.617
-1.0,-75.0,0.618
-2.0,18.0,0.619
-4.0,109.0,0.62
-7.0,147.0,0.621
-8.0,133.0,0.622
2.0,84.0,0.623
12.0,24.0,0.624
11.0,-22.0,0.625
1.0,-32.0,0.626
-1.0,-16.0,0.627
4.0,-6.0,0.628
8.0,-13.0,0.629
5.0,-20.0,0.63
4.0,-14.0,0.631
7.0,-8.0,0.632
8.0,-11.0,0.633
3.0,-15.0,0.634
0.0,-9.0,0.635
1.0,-2.0,0.636
4.0,-3.0,0.637
0.0,-9.0,0.638
-4.0,-8.0,0.639
-7.0,-6.0,0.64
-8.0,-7.0,0.641
-5.0,-6.0,0.642
-1.0,-1.0,0.643
7.0,4.0,0.644
10.0,2.0,0.645
6.0,-1.0,0.646
0.0,-1.0,0.647
-1.0,-1.0,0.648
1.0,-3.0,0.649
3.0,-1.0,0.65
2.0,3.0,0.651
3.0,3.0,0.652
4.0,-3.0,0.653
3.0,-5.0,0.654
2.0,-1.0,0.655
2.0,1.0,0.656
3.0,2.0,0.657
0.0,0.0,0.658
-2.0,-1.0,0.659
-6.0,-1.0,0.66
-7.0,-6.0,0.661
-7.0,-4.0,0.662
-5.0,-2.0,0.663
-1.0,-6.0,0.664
2.0,-15.0,0.665
6.0,-27.0,0.666
4.0,-36.0,0.667
3.0,-39.0,0.668
4.0,-25.0,0.669
6.0,7.0,0.67
6.0,44.0,0.671
4.0,65.0,0.672
4.0,65.0,0.673
6.0,50.0,0.674
3.0,22.0,0.675
2.0,-5.0,0.676
3.0,-15.0,0.677
0.0,-13.0,0.678
-2.0,-9.0,0.679
-5.0,-7.0,0.68
-6.0,-15.0,0.681
-6.0,-21.0,0.682
-4.0,-21.0,0.683
-1.0,-21.0,0.684
2.0,-19.0,0.685
5.0,-14.0,0.686
4.0,0.0,0.687
3.0,13.0,0.688
4.0,21.0,0.689
5.0,26.0,0.69
5.0,19.0,0.691
4.0,12.0,0.692
4.0,5.0,0.693
5.0,-1.0,0.694
3.0,-3.0,0.695
2.0,-4.0,0.696
3.0,-2.0,0.697
3.0,1.0,0.698
-1.0,3.0,0.699
-5.0,1.0,0.7
-6.0,-8.0,0.701
-3.0,-23.0,0.702
2.0,-54.0,0.703
7.0,-96.0,0.704
7.0,-114.0,0.705
1.0,-78.0,0.706
0.0,6.0,0.707
1.0,96.0,0.708
4.0,147.0,0.709
4.0,144.0,0.71
2.0,99.0,0.711
0.0,36.0,0.712
-2.0,-19.0,0.713
0.0,-39.0,0.714
4.0,-27.0,0.715
6.0,-11.0,0.716
3.0,-11.0,0.717
-1.0,-18.0,0.718
-2.0,-17.0,0.719
-2.0,-9.0,0.72
-3.0,-9.0,0.721
-3.0,-14.0,0.722
3.0,-15.0,0.723
13.0,-11.0,0.724
12.0,-8.0,0.725
3.0,-5.0,0.726
-2.0,-2.0,0.727
1.0,-2.0,0.728
5.0,-3.0,0.729
3.0,-3.0,0.73
2.0,-1.0,0.731
6.0,-1.0,0.732
8.0,-3.0,0.733
6.0,-4.0,0.734
2.0,-5.0,0.735
3.0,-6.0,0.736
6.0,-7.0,0.737
4.0,-6.0,0.738
-1.0,-4.0,0.739
-6.0,-2.0,0.74
-6.0,-5.0,0.741
-5.0,-6.0,0.742
-2.0,-4.0,0.743
5.0,-1.0,0.744
8.0,4.0,0.745
3.0,5.0,0.746
0.0,3.0,0.747
3.0,0.0,0.748
8.0,2.0,0.749
5.0,4.0,0.75
-1.0,1.0,0.751
-1.0,-4.0,0.752
1.0,-5.0,0.753
3.0,-2.0,0.754
2.0,1.0,0.755
1.0,0.0,0.756
5.0,0.0,0.757
4.0,0.0,0.758
0.0,0.0,0.759
-5.0,-3.0,0.76
-6.0,-7.0,0.761
-3.0,-4.0,0.762
3.0,1.0,0.763
8.0,4.0,0.764
9.0,5.0,0.765
5.0,8.0,0.766
5.0,8.0,0.767
6.0,2.0,0.768
5.0,-6.0,0.769
-1.0,-15.0,0.77
-2.0,-28.0,0.771
3.0,-39.0,0.772
8.0,-37.0,0.773
3.0,-14.0,0.774
-1.0,20.0,0.775
2.0,47.0,0.776
7.0,58.0,0.777
4.0,45.0,0.778
0.0,15.0,0.779
-4.0,-17.0,0.78
-5.0,-34.0,0.781
-4.0,-22.0,0.782
0.0,3.0,0.783
8.0,23.0,0.784
11.0,26.0,0.785
4.0,17.0,0.786
0.0,9.0,0.787
1.0,2.0,0.788
2.0,0.0,0.789
0.0,-1.0,0.79
-1.0,-3.0,0.791
4.0,-1.0,0.792
4.0,3.0,0.793
1.0,6.0,0.794
0.0,-3.0,0.795
6.0,-27.0,0.796
11.0,-59.0,0.797
9.0,-99.0,0.798
2.0,-120.0,0.799
-3.0,-88.0,0.8
-5.0,-8.0,0.801
-4.0,87.0,0.802
-1.0,141.0,0.803
3.0,139.0,0.804
5.0,99.0,0.805
4.0,43.0,0.806
2.0,-10.0,0.807
1.0,-36.0,0.808
0.0,-27.0,0.809
0.0,-9.0,0.81
3.0,-8.0,0.811
5.0,-18.0,0.812
5.0,-17.0,0.813
3.0,-9.0,0.814
2.0,-7.0,0.815
3.0,-13.0,0.816
3.0,-14.0,0.817
3.0,-11.0,0.818
2.0,-11.0,0.819
0.0,-12.0,0.82
-5.0,-11.0,0.821
-6.0,-7.0,0.822
0.0,-5.0,0.823
9.0,-8.0,0.824
8.0,-2.0,0.825
2.0,3.0,0.826
-1.0,2.0,0.827
3.0,-3.0,0.828
8.0,-1.0,0.829
6.0,4.0,0.83
3.0,1.0,0.831
2.0,-7.0,0.832
3.0,-9.0,0.833
2.0,-4.0,0.834
0.0,0.0,0.835
1.0,0.0,0.836
3.0,-1.0,0.837
2.0,0.0,0.838
-2.0,-1.0,0.839
-6.0,-3.0,0.84
-7.0,-4.0,0.841
-8.0,-5.0,0.842
-2.0,-2.0,0.843
2.0,0.0,0.844
3.0,3.0,0.845
4.0,6.0,0.846
4.0,5.0,0.847
5.0,3.0,0.848
8.0,1.0,0.849
11.0,-1.0,0.85
11.0,0.0,0.851
10.0,0.0,0.852
11.0,-1.0,0.853
10.0,-4.0,0.854
3.0,-4.0,0.855
-2.0,-3.0,0.856
0.0,-1.0,0.857
2.0,1.0,0.858
0.0,1.0,0.859
-4.0,1.0,0.86
-8.0,0.0,0.861
-11.0,1.0,0.862
-6.0,3.0,0.863
5.0,3.0,0.864
10.0,3.0,0.865
5.0,6.0,0.866
0.0,6.0,0.867
3.0,0.0,0.868
9.0,-8.0,0.869
5.0,-19.0,0.87
-2.0,-34.0,0.871
-2.0,-46.0,0.872
3.0,-42.0,0.873
4.0,-15.0,0.874
0.0,19.0,0.875
0.0,46.0,0.876
5.0,59.0,0.877
7.0,59.0,0.878
2.0,42.0,0.879
-4.0,12.0,0.88
-6.0,-17.0,0.881
-6.0,-31.0,0.882
-2.0,-32.0,0.883
4.0,-31.0,0.884
8.0,-22.0,0.885
5.0,-4.0,0.886
1.0,14.0,0.887
1.0,18.0,0.888
4.0,2.0,0.889
5.0,-32.0,0.89
4.0,-72.0,0.891
4.0,-93.0,0.892
6.0,-65.0,0.893
7.0,13.0,0.894
6.0,98.0,0.895
6.0,140.0,0.896
7.0,135.0,0.897
5.0,90.0,0.898
2.0,29.0,0.899
-2.0,-27.0,0.9
-4.0,-53.0,0.901
-4.0,-35.0,0.902
2.0,-13.0,0.903
7.0,-9.0,0.904
6.0,-17.0,0.905
3.0,-11.0,0.906
2.0,-3.0,0.907
2.0,-7.0,0.908
1.0,-17.0,0.909
1.0,-15.0,0.91
5.0,-7.0,0.911
7.0,-7.0,0.912
5.0,-11.0,0.913
3.0,-10.0,0.914
2.0,-6.0,0.915
1.0,-5.0,0.916
2.0,-8.0,0.917
2.0,-7.0,0.918
-1.0,-5.0,0.919
-6.0,-7.0,0.92
-11.0,-11.0,0.921
-8.0,-8.0,0.922
0.0,-2.0,0.923
7.0,1.0,0.924
5.0,2.0,0.925
-1.0,3.0,0.926
-1.0,3.0,0.927
4.0,0.0,0.928
7.0,-3.0,0.929
6.0,-4.0,0.93
5.0,-2.0,0.931
8.0,-2.0,0.932
8.0,-2.0,0.933
5.0,-1.0,0.934
2.0,-1.0,0.935
2.0,0.0,0.936
2.0,2.0,0.937
1.0,3.0,0.938
1.0,0.0,0.939
-1.0,-3.0,0.94
-3.0,-4.0,0.941
-4.0,0.0,0.942
0.0,3.0,0.943
6.0,5.0,0.944
7.0,8.0,0.945
3.0,7.0,0.946
0.0,4.0,0.947
3.0,3.0,0.948
5.0,4.0,0.949
3.0,4.0,0.95
0.0,0.0,0.951
0.0,-2.0,0.952
3.0,-2.0,0.953
5.0,1.0,0.954
6.0,2.0,0.955
5.0,2.0,0.956
6.0,3.0,0.957
8.0,3.0,0.958
8.0,2.0,0.959
1.0,0.0,0.96
-6.0,-6.0,0.961
-8.0,-6.0,0.962
-3.0,-5.0,0.963
4.0,-1.0,0.964
4.0,3.0,0.965
1.0,6.0,0.966
1.0,2.0,0.967
5.0,-3.0,0.968
6.0,-4.0,0.969
3.0,0.0,0.97
2.0,0.0,0.971
6.0,-3.0,0.972
7.0,-7.0,0.973
6.0,-12.0,0.974
4.0,-25.0,0.975
5.0,-43.0,0.976
6.0,-48.0,0.977
3.0,-31.0,0.978
1.0,2.0,0.979
-1.0,29.0,0.98
-6.0,32.0,0.981
-8.0,11.0,0.982
-3.0,-30.0,0.983
6.0,-66.0,0.984
7.0,-59.0,0.985
0.0,8.0,0.986
-2.0,98.0,0.987
3.0,151.0,0.988
9.0,141.0,0.989
6.0,89.0,0.99
3.0,23.0,0.991
4.0,-31.0,0.992
4.0,-54.0,0.993
0.0,-43.0,0.994
-4.0,-22.0,0.995
-2.0,-16.0,0.996
0.0,-22.0,0.997
-2.0,-19.0,0.998
-4.0,-9.0,0.999
-3.0,-7.0,1.0
-4.0,-13.0,1.001
-7.0,-13.0,1.002
-6.0,-8.0,1.003
3.0,-8.0,1.004
12.0,-9.0,1.005
9.0,-6.0,1.006
2.0,-5.0,1.007
3.0,-10.0,1.008
7.0,-16.0,1.009
7.0,-14.0,1.01
4.0,-6.0,1.011
6.0,-3.0,1.012
8.0,-6.0,1.013
5.0,-6.0,1.014
2.0,-2.0,1.015
2.0,-2.0,1.016
7.0,-3.0,1.017
5.0,-7.0,1.018
1.0,-7.0,1.019
-1.0,-5.0,1.02
-4.0,-6.0,1.021
-6.0,-5.0,1.022
-3.0,-1.0,1.023
5.0,3.0,1.024
8.0,5.0,1.025
2.0,6.0,1.026
-2.0,5.0,1.027
3.0,4.0,1.028
9.0,3.0,1.029
8.0,4.0,1.03
4.0,3.0,1.031
6.0,2.0,1.032
11.0,0.0,1.033
8.0,-1.0,1.034
5.0,2.0,1.035
2.0,4.0,1.036
3.0,5.0,1.037
4.0,0.0,1.038
3.0,-5.0,1.039
0.0,-6.0,1.04
-6.0,-9.0,1.041
-7.0,-8.0,1.042
-3.0,-8.0,1.043
5.0,-3.0,1.044
7.0,1.0,1.045
2.0,2.0,1.046
0.0,1.0,1.047
4.0,0.0,1.048
5.0,4.0,1.049
2.0,8.0,1.05
2.0,8.0,1.051
4.0,4.0,1.052
5.0,0.0,1.053
2.0,-2.0,1.054
2.0,0.0,1.055
5.0,0.0,1.056
6.0,2.0,1.057
0.0,2.0,1.058
-3.0,3.0,1.059
-4.0,6.0,1.06
-5.0,4.0,1.061
-6.0,0.0,1.062
-4.0,-13.0,1.063
3.0,-43.0,1.064
5.0,-83.0,1.065
1.0,-111.0,1.066
-3.0,-93.0,1.067
0.0,-19.0,1.068
6.0,72.0,1.069
7.0,129.0,1.07
5.0,130.0,1.071
5.0,91.0,1.072
6.0,36.0,1.073
6.0,-19.0,1.074
5.0,-51.0,1.075
4.0,-42.0,1.076
3.0,-6.0,1.077
-1.0,26.0,1.078
-3.0,38.0,1.079
-5.0,42.0,1.08
-3.0,40.0,1.081
-1.0,24.0,1.082
2.0,-7.0,1.083
6.0,-28.0,1.084
5.0,-25.0,1.085
3.0,-18.0,1.086
4.0,-21.0,1.087
8.0,-26.0,1.088
8.0,-19.0,1.089
5.0,-9.0,1.09
3.0,-7.0,1.091
5.0,-9.0,1.092
6.0,-6.0,1.093
3.0,-2.0,1.094
2.0,-6.0,1.095
4.0,-11.0,1.096
6.0,-10.0,1.097
2.0,-7.0,1.098
-1.0,-4.0,1.099
-1.0,-7.0,1.1
0.0,-10.0,1.101
0.0,-10.0,1.102
2.0,-9.0,1.103
6.0,-6.0,1.104
6.0,0.0,1.105
0.0,1.0,1.106
-5.0,0.0,1.107
-4.0,1.0,1.108
0.0,6.0,1.109
2.0,7.0,1.11
-1.0,4.0,1.111
-3.0,1.0,1.112
0.0,2.0,1.113
3.0,6.0,1.114
5.0,5.0,1.115
4.0,0.0,1.116
4.0,-1.0,1.117
3.0,-3.0,1.118
1.0,-4.0,1.119
-1.0,-4.0,1.12
-5.0,-4.0,1.121
-6.0,-2.0,1.122
-2.0,-1.0,1.123
5.0,-2.0,1.124
7.0,0.0,1.125
3.0,1.0,1.126
0.0,2.0,1.127
3.0,0.0,1.128
6.0,-1.0,1.129
4.0,1.0,1.13
1.0,2.0,1.131
1.0,0.0,1.132
3.0,-2.0,1.133
4.0,-3.0,1.134
4.0,0.0,1.135
7.0,3.0,1.136
7.0,3.0,1.137
2.0,2.0,1.138
-1.0,2.0,1.139
-4.0,1.0,1.14
-4.0,1.0,1.141
-3.0,0.0,1.142
1.0,1.0,1.143
5.0,2.0,1.144
4.0,5.0,1.145
3.0,7.0,1.146
2.0,4.0,1.147
1.0,1.0,1.148
4.0,1.0,1.149
7.0,0.0,1.15
5.0,0.0,1.151
4.0,0.0,1.152
3.0,2.0,1.153
2.0,2.0,1.154
0.0,-10.0,1.155
0.0,-29.0,1.156
3.0,-69.0,1.157
6.0,-110.0,1.158
5.0,-125.0,1.159
-1.0,-83.0,1.16
-6.0,1.0,1.161
-7.0,85.0,1.162
-1.0,131.0,1.163
6.0,134.0,1.164
4.0,104.0,1.165
-3.0,52.0,1.166
-3.0,-1.0,1.167
3.0,-29.0,1.168
9.0,-30.0,1.169
6.0,-25.0,1.17
2.0,-20.0,1.171
2.0,-3.0,1.172
3.0,25.0,1.173
2.0,47.0,1.174
4.0,45.0,1.175
7.0,28.0,1.176
7.0,6.0,1.177
3.0,-15.0,1.178
2.0,-30.0,1.179
0.0,-28.0,1.18
-4.0,-23.0,1.181
-6.0,-21.0,1.182
-1.0,-24.0,1.183
7.0,-19.0,1.184
6.0,-8.0,1.185
-1.0,-6.0,1.186
-4.0,-8.0,1.187
0.0,-9.0,1.188
4.0,-7.0,1.189
4.0,-10.0,1.19
3.0,-13.0,1.191
4.0,-10.0,1.192
3.0,-7.0,1.193
0.0,-6.0,1.194
-2.0,-6.0,1.195
1.0,-5.0,1.196
6.0,-3.0,1.197
7.0,-5.0,1.198
4.0,-6.0,1.199
-2.0,-4.0,1.2
-8.0,-4.0,1.201
-8.0,-4.0,1.202
-1.0,-3.0,1.203
6.0,0.0,1.204
6.0,4.0,1.205
4.0,3.0,1.206
4.0,1.0,1.207
6.0,1.0,1.208
4.0,3.0,1.209
-1.0,2.0,1.21
-2.0,0.0,1.211
2.0,0.0,1.212
6.0,1.0,1.213
5.0,0.0,1.214
2.0,-1.0,1.215
2.0,-3.0,1.216
4.0,-1.0,1.217
2.0,0.0,1.218
-2.0,0.0,1.219
-5.0,-2.0,1.22
-6.0,-7.0,1.221
-5.0,-6.0,1.222
-2.0,-1.0,1.223
3.0,2.0,1.224
6.0,4.0,1.225
5.0,5.0,1.226
3.0,6.0,1.227
3.0,7.0,1.228
4.0,10.0,1.229
3.0,14.0,1.23
4.0,15.0,1.231
6.0,5.0,1.232
8.0,-15.0,1.233
6.0,-49.0,1.234
3.0,-89.0,1.235
3.0,-113.0,1.236
7.0,-88.0,1.237
5.0,-9.0,1.238
0.0,88.0,1.239
-6.0,148.0,1.24
-9.0,144.0,1.241
-8.0,98.0,1.242
1.0,36.0,1.243
8.0,-14.0,1.244
10.0,-36.0,1.245
5.0,-24.0,1.246
2.0,-5.0,1.247
3.0,-3.0,1.248
3.0,-13.0,1.249
1.0,-14.0,1.25
2.0,-7.0,1.251
5.0,-8.0,1.252
4.0,-14.0,1.253
3.0,-16.0,1.254
2.0,-12.0,1.255
3.0,-12.0,1.256
4.0,-13.0,1.257
4.0,-12.0,1.258
4.0,-7.0,1.259
0.0,-8.0,1.26
-7.0,-13.0,1.261
-8.0,-9.0,1.262
-1.0,0.0,1.263
4.0,3.0,1.264
3.0,0.0,1.265
-1.0,-1.0,1.266
0.0,0.0,1.267
3.0,-1.0,1.268
3.0,-3.0,1.269
0.0,-1.0,1.27
3.0,1.0,1.271
8.0,2.0,1.272
8.0,0.0,1.273
3.0,0.0,1.274
1.0,-3.0,1.275
4.0,-8.0,1.276
4.0,-11.0,1.277
-1.0,-12.0,1.278
-4.0,-15.0,1.279
-7.0,-19.0,1.28
-8.0,-23.0,1.281
-7.0,-16.0,1.282
0.0,-2.0,1.283
7.0,14.0,1.284
7.0,30.0,1.285
3.0,39.0,1.286
1.0,36.0,1.287
5.0,24.0,1.288
9.0,12.0,1.289
9.0,5.0,1.29
10.0,-1.0,1.291
11.0,-7.0,1.292
10.0,-11.0,1.293
6.0,-14.0,1.294
3.0,-23.0,1.295
6.0,-38.0,1.296
8.0,-49.0,1.297
7.0,-48.0,1.298
4.0,-28.0,1.299
-1.0,5.0,1.3
-4.0,36.0,1.301
-5.0,59.0,1.302
0.0,61.0,1.303
5.0,46.0,1.304
6.0,21.0,1.305
3.0,0.0,1.306
2.0,-8.0,1.307
2.0,-7.0,1.308
2.0,-4.0,1.309
2.0,0.0,1.31
2.0,0.0,1.311
2.0,-2.0,1.312
0.0,-4.0,1.313
-1.0,-4.0,1.314
0.0,-3.0,1.315
0.0,-1.0,1.316
2.0,-1.0,1.317
3.0,-5.0,1.318
0.0,-6.0,1.319
-6.0,-6.0,1.32
-12.0,-9.0,1.321
-13.0,-9.0,1.322
-7.0,-5.0,1.323
0.0,-1.0,1.324
1.0,-4.0,1.325
-2.0,-20.0,1.326
-5.0,-57.0,1.327
-3.0,-102.0,1.328
2.0,-120.0,1.329
5.0,-77.0,1.33
2.0,14.0,1.331
3.0,104.0,1.332
6.0,149.0,1.333
8.0,141.0,1.334
6.0,93.0,1.335
2.0,26.0,1.336
4.0,-25.0,1.337
5.0,-46.0,1.338
6.0,-30.0,1.339
4.0,-9.0,1.34
3.0,-8.0,1.341
2.0,-16.0,1.342
3.0,-14.0,1.343
7.0,-7.0,1.344
9.0,-4.0,1.345
7.0,-7.0,1.346
4.0,-6.0,1.347
6.0,-4.0,1.348
9.0,-4.0,1.349
8.0,-5.0,1.35
5.0,-3.0,1.351
4.0,0.0,1.352
7.0,0.0,1.353
8.0,-2.0,1.354
6.0,-3.0,1.355
5.0,-3.0,1.356
6.0,-1.0,1.357
7.0,-2.0,1.358
3.0,-4.0,1.359
0.0,-9.0,1.36
-1.0,-13.0,1.361
-2.0,-7.0,1.362
-1.0,-1.0,1.363
4.0,4.0,1.364
5.0,6.0,1.365
1.0,7.0,1.366
-2.0,5.0,1.367
0.0,1.0,1.368
1.0,1.0,1.369
1.0,4.0,1.37
-1.0,4.0,1.371
-1.0,0.0,1.372
1.0,-2.0,1.373
1.0,0.0,1.374
3.0,1.0,1.375
6.0,0.0,1.376
8.0,-1.0,1.377
2.0,-3.0,1.378
-3.0,-4.0,1.379
-7.0,-3.0,1.38
-8.0,-3.0,1.381
-6.0,-1.0,1.382
-1.0,-1.0,1.383
3.0,-2.0,1.384
2.0,-2.0,1.385
-1.0,1.0,1.386
0.0,3.0,1.387
2.0,1.0,1.388
3.0,-3.0,1.389
0.0,-4.0,1.39
0.0,-5.0,1.391
4.0,-8.0,1.392
6.0,-11.0,1.393
5.0,-14.0,1.394
2.0,-12.0,1.395
1.0,-4.0,1.396
4.0,9.0,1.397
5.0,22.0,1.398
6.0,32.0,1.399
2.0,30.0,1.4
-3.0,16.0,1.401
-4.0,3.0,1.402
0.0,-3.0,1.403
9.0,-4.0,1.404
9.0,-4.0,1.405
1.0,-1.0,1.406
-1.0,-1.0,1.407
4.0,-4.0,1.408
5.0,-10.0,1.409
2.0,-18.0,1.41
1.0,-31.0,1.411
5.0,-44.0,1.412
9.0,-47.0,1.413
5.0,-27.0,1.414
1.0,9.0,1.415
2.0,44.0,1.416
5.0,63.0,1.417
5.0,60.0,1.418
2.0,45.0,1.419
-3.0,20.0,1.42
-8.0,-7.0,1.421
-8.0,-17.0,1.422
-1.0,-12.0,1.423
8.0,-3.0,1.424
11.0,0.0,1.425
5.0,-2.0,1.426
0.0,-1.0,1.427
0.0,2.0,1.428
3.0,4.0,1.429
2.0,5.0,1.43
0.0,0.0,1.431
0.0,-22.0,1.432
3.0,-67.0,1.433
3.0,-109.0,1.434
2.0,-117.0,1.435
1.0,-68.0,1.436
4.0,16.0,1.437
7.0,102.0,1.438
5.0,147.0,1.439
0.0,137.0,1.44
-4.0,83.0,1.441
-1.0,20.0,1.442
4.0,-25.0,1.443
7.0,-38.0,1.444
5.0,-24.0,1.445
3.0,-9.0,1.446
1.0,-8.0,1.447
0.0,-15.0,1.448
-1.0,-14.0,1.449
-3.0,-9.0,1.45
-1.0,-8.0,1.451
3.0,-8.0,1.452
5.0,-8.0,1.453
4.0,-8.0,1.454
2.0,-11.0,1.455
3.0,-12.0,1.456
4.0,-6.0,1.457
4.0,-1.0,1.458
3.0,-1.0,1.459
-1.0,-4.0,1.46
-5.0,-8.0,1.461
-4.0,-8.0,1.462
5.0,-8.0,1.463
12.0,-8.0,1.464
9.0,-4.0,1.465
2.0,2.0,1.466
2.0,2.0,1.467
5.0,0.0,1.468
6.0,1.0,1.469
0.0,2.0,1.47
-2.0,1.0,1.471
2.0,-2.0,1.472
6.0,-3.0,1.473
4.0,0.0,1.474
3.0,1.0,1.475
5.0,-1.0,1.476
8.0,-4.0,1.477
7.0,-8.0,1.478
4.0,-10.0,1.479
-2.0,-8.0,1.48
-4.0,-7.0,1.481
-3.0,-4.0,1.482
4.0,0.0,1.483
9.0,5.0,1.484
7.0,12.0,1.485
0.0,14.0,1.486
-2.0,8.0,1.487
1.0,0.0,1.488
4.0,-7.0,1.489
3.0,-12.0,1.49
1.0,-17.0,1.491
4.0,-11.0,1.492
8.0,6.0,1.493
7.0,24.0,1.494
6.0,30.0,1.495
4.0,21.0,1.496
2.0,10.0,1.497
-1.0,-8.0,1.498
-1.0,-27.0,1.499
-1.0,-40.0,1.5
-4.0,-39.0,1.501
-5.0,-19.0,1.502
0.0,2.0,1.503
11.0,6.0,1.504
11.0,-17.0,1.505
3.0,-50.0,1.506
0.0,-55.0,1.507
4.0,-12.0,1.508
5.0,63.0,1.509
1.0,126.0,1.51
0.0,140.0,1.511
2.0,103.0,1.512
4.0,42.0,1.513
2.0,-14.0,1.514
3.0,-44.0,1.515
8.0,-40.0,1.516
10.0,-22.0,1.517
3.0,-16.0,1.518
-2.0,-23.0,1.519
-5.0,-28.0,1.52
-5.0,-24.0,1.521
-5.0,-19.0,1.522
0.0,-19.0,1.523
7.0,-14.0,1.524
8.0,-4.0,1.525
1.0,-1.0,1.526
-3.0,-6.0,1.527
0.0,-9.0,1.528
2.0,-8.0,1.529
0.0,-6.0,1.53
-2.0,-7.0,1.531
1.0,-6.0,1.532
3.0,0.0,1.533
2.0,0.0,1.534
3.0,-5.0,1.535
6.0,-8.0,1.536
11.0,-5.0,1.537
8.0,-2.0,1.538
3.0,-3.0,1.539
-2.0,-4.0,1.54
-4.0,-3.0,1.541
-3.0,-1.0,1.542
4.0,-2.0,1.543
11.0,-2.0,1.544
11.0,5.0,1.545
4.0,10.0,1.546
1.0,10.0,1.547
2.0,4.0,1.548
4.0,3.0,1.549
2.0,4.0,1.55
1.0,3.0,1.551
0.0,-1.0,1.552
-1.0,-3.0,1.553
0.0,-1.0,1.554
2.0,2.0,1.555
5.0,2.0,1.556
5.0,0.0,1.557
1.0,-1.0,1.558
-1.0,1.0,1.559
-4.0,3.0,1.56
-7.0,-3.0,1.561
-4.0,-9.0,1.562
3.0,-9.0,1.563
10.0,-2.0,1.564
7.0,2.0,1.565
-2.0,3.0,1.566
-4.0,0.0,1.567
-1.0,-1.0,1.568
1.0,-2.0,1.569
2.0,-5.0,1.57
4.0,-7.0,1.571
6.0,-3.0,1.572
9.0,0.0,1.573
6.0,0.0,1.574
4.0,-4.0,1.575
2.0,-8.0,1.576
2.0,-11.0,1.577
2.0,-17.0,1.578
3.0,-21.0,1.579
-1.0,-18.0,1.58
-4.0,-8.0,1.581
-5.0,8.0,1.582
-1.0,23.0,1.583
4.0,29.0,1.584
2.0,26.0,1.585
-3.0,18.0,1.586
-3.0,8.0,1.587
0.0,0.0,1.588
1.0,-5.0,1.589
0.0,-7.0,1.59
0.0,-8.0,1.591
1.0,-9.0,1.592
5.0,-6.0,1.593
7.0,-2.0,1.594
5.0,1.0,1.595
3.0,0.0,1.596
3.0,0.0,1.597
4.0,-2.0,1.598
5.0,-2.0,1.599
1.0,-2.0,1.6
-4.0,-14.0,1.601
-4.0,-40.0,1.602
2.0,-77.0,1.603
8.0,-103.0,1.604
5.0,-87.0,1.605
1.0,-18.0,1.606
2.0,73.0,1.607
6.0,131.0,1.608
8.0,133.0,1.609
5.0,87.0,1.61
1.0,21.0,1.611
0.0,-29.0,1.612
0.0,-42.0,1.613
0.0,-9.0,1.614
2.0,35.0,1.615
3.0,54.0,1.616
5.0,44.0,1.617
4.0,20.0,1.618
1.0,-4.0,1.619
-3.0,-18.0,1.62
-7.0,-26.0,1.621
-7.0,-23.0,1.622
0.0,-19.0,1.623
7.0,-20.0,1.624
8.0,-19.0,1.625
4.0,-11.0,1.626
3.0,-8.0,1.627
8.0,-11.0,1.628
9.0,-14.0,1.629
4.0,-12.0,1.63
1.0,-9.0,1.631
5.0,-12.0,1.632
8.0,-12.0,1.633
5.0,-8.0,1.634
3.0,-5.0,1.635
8.0,-5.0,1.636
11.0,-6.0,1.637
6.0,-7.0,1.638
-3.0,-5.0,1.639
-6.0,-3.0,1.64
-5.0,-4.0,1.641
-4.0,-2.0,1.642
-3.0,0.0,1.643
1.0,5.0,1.644
5.0,10.0,1.645
3.0,11.0,1.646
1.0,6.0,1.647
4.0,0.0,1.648
6.0,0.0,1.649
1.0,2.0,1.65
-2.0,1.0,1.651
-1.0,-2.0,1.652
4.0,-3.0,1.653
4.0,-1.0,1.654
3.0,0.0,1.655
4.0,0.0,1.656
7.0,1.0,1.657
5.0,-2.0,1.658
0.0,-2.0,1.659
-5.0,-3.0,1.66
-8.0,-3.0,1.661
-5.0,-3.0,1.662
2.0,-3.0,1.663
7.0,-2.0,1.664
4.0,3.0,1.665
-2.0,7.0,1.666
-4.0,4.0,1.667
0.0,1.0,1.668
6.0,0.0,1.669
7.0,-3.0,1.67
6.0,-5.0,1.671
5.0,-7.0,1.672
5.0,-9.0,1.673
5.0,-10.0,1.674
5.0,-6.0,1.675
4.0,-7.0,1.676
4.0,-23.0,1.677
3.0,-45.0,1.678
2.0,-79.0,1.679
-2.0,-85.0,1.68
-6.0,-42.0,1.681
-6.0,42.0,1.682
0.0,121.0,1.683
9.0,152.0,1.684
8.0,130.0,1.685
3.0,74.0,1.686
0.0,14.0,1.687
1.0,-25.0,1.688
6.0,-32.0,1.689
6.0,-19.0,1.69
5.0,-11.0,1.691
4.0,-16.0,1.692
5.0,-20.0,1.693
5.0,-16.0,1.694
4.0,-12.0,1.695
2.0,-15.0,1.696
1.0,-17.0,1.697
-2.0,-17.0,1.698
-5.0,-19.0,1.699
-7.0,-23.0,1.7
-6.0,-21.0,1.701
-4.0,-11.0,1.702
1.0,-2.0,1.703
7.0,-1.0,1.704
8.0,3.0,1.705
3.0,9.0,1.706
0.0,5.0,1.707
3.0,-11.0,1.708
7.0,-27.0,1.709
6.0,-34.0,1.71
4.0,-32.0,1.711
3.0,-16.0,1.712
2.0,12.0,1.713
1.0,45.0,1.714
4.0,61.0,1.715
8.0,55.0,1.716
12.0,39.0,1.717
9.0,17.0,1.718
4.0,-5.0,1.719
-1.0,-18.0,1.72
-5.0,-20.0,1.721
-7.0,-13.0,1.722
0.0,-12.0,1.723
10.0,-12.0,1.724
11.0,-8.0,1.725
2.0,0.0,1.726
-3.0,2.0,1.727
-1.0,-3.0,1.728
3.0,-5.0,1.729
2.0,-2.0,1.73
0.0,-3.0,1.731
4.0,-6.0,1.732
8.0,-4.0,1.733
7.0,1.0,1.734
5.0,1.0,1.735
6.0,-4.0,1.736
6.0,-6.0,1.737
4.0,-5.0,1.738
1.0,-1.0,1.739
0.0,1.0,1.74
-5.0,-4.0,1.741
-6.0,-7.0,1.742
-3.0,-8.0,1.743
4.0,-3.0,1.744
6.0,3.0,1.745
0.0,7.0,1.746
-5.0,5.0,1.747
-3.0,1.0,1.748
0.0,0.0,1.749
0.0,2.0,1.75
-4.0,3.0,1.751
-2.0,0.0,1.752
1.0,-2.0,1.753
3.0,-6.0,1.754
3.0,-10.0,1.755
5.0,-15.0,1.756
5.0,-18.0,1.757
1.0,-15.0,1.758
-2.0,-6.0,1.759
-3.0,9.0,1.76
-3.0,21.0,1.761
-2.0,29.0,1.762
2.0,30.0,1.763
9.0,26.0,1.764
10.0,16.0,1.765
3.0,-6.0,1.766
1.0,-46.0,1.767
5.0,-95.0,1.768
7.0,-119.0,1.769
3.0,-88.0,1.77
1.0,-7.0,1.771
5.0,83.0,1.772
9.0,138.0,1.773
7.0,140.0,1.774
2.0,99.0,1.775
1.0,37.0,1.776
3.0,-16.0,1.777
3.0,-40.0,1.778
3.0,-30.0,1.779
1.0,-12.0,1.78
-1.0,-15.0,1.781
-4.0,-25.0,1.782
-1.0,-22.0,1.783
7.0,-9.0,1.784
11.0,-8.0,1.785
5.0,-14.0,1.786
0.0,-14.0,1.787
0.0,-6.0,1.788
0.0,-2.0,1.789
-4.0,-4.0,1.79
-4.0,-1.0,1.791
-1.0,6.0,1.792
3.0,5.0,1.793
4.0,0.0,1.794
4.0,0.0,1.795
4.0,3.0,1.796
6.0,-1.0,1.797
3.0,-15.0,1.798
0.0,-28.0,1.799
-3.0,-38.0,1.8
-4.0,-51.0,1.801
-2.0,-49.0,1.802
1.0,-23.0,1.803
5.0,20.0,1.804
6.0,56.0,1.805
4.0,69.0,1.806
4.0,63.0,1.807
7.0,44.0,1.808
7.0,15.0,1.809
4.0,-9.0,1.81
2.0,-13.0,1.811
1.0,-6.0,1.812
0.0,-5.0,1.813
-1.0,-11.0,1.814
0.0,-13.0,1.815
2.0,-11.0,1.816
3.0,-7.0,1.817
2.0,-7.0,1.818
0.0,-5.0,1.819
-3.0,-3.0,1.82
-4.0,-7.0,1.821
-3.0,-9.0,1.822
1.0,-8.0,1.823
7.0,-5.0,1.824
8.0,-2.0,1.825
5.0,0.0,1.826
5.0,1.0,1.827
7.0,2.0,1.828
6.0,-1.0,1.829
2.0,-3.0,1.83
0.0,-5.0,1.831
2.0,-6.0,1.832
7.0,-4.0,1.833
6.0,-1.0,1.834
3.0,0.0,1.835
0.0,-1.0,1.836
1.0,2.0,1.837
1.0,9.0,1.838
0.0,11.0,1.839
-4.0,5.0,1.84
-7.0,-12.0,1.841
-6.0,-34.0,1.842
-1.0,-66.0,1.843
4.0,-105.0,1.844
2.0,-117.0,1.845
-3.0,-68.0,1.846
-2.0,33.0,1.847
4.0,131.0,1.848
10.0,176.0,1.849
9.0,160.0,1.85
4.0,104.0,1.851
4.0,35.0,1.852
7.0,-20.0,1.853
9.0,-38.0,1.854
8.0,-23.0,1.855
7.0,-10.0,1.856
8.0,-11.0,1.857
2.0,-18.0,1.858
-4.0,-14.0,1.859
-10.0,-9.0,1.86
-8.0,-14.0,1.861
-5.0,-19.0,1.862
-1.0,-15.0,1.863
4.0,-9.0,1.864
8.0,-9.0,1.865
7.0,-14.0,1.866
3.0,-18.0,1.867
2.0,-21.0,1.868
2.0,-18.0,1.869
1.0,-11.0,1.87
0.0,-3.0,1.871
4.0,2.0,1.872
7.0,0.0,1.873
6.0,0.0,1.874
3.0,1.0,1.875
4.0,2.0,1.876
6.0,1.0,1.877
3.0,-1.0,1.878
0.0,-2.0,1.879
-2.0,-2.0,1.88
-6.0,-5.0,1.881
-9.0,-5.0,1.882
-4.0,-2.0,1.883
6.0,2.0,1.884
12.0,6.0,1.885
7.0,8.0,1.886
1.0,4.0,1.887
4.0,-2.0,1.888
5.0,-3.0,1.889
2.0,3.0,1.89
0.0,6.0,1.891
3.0,3.0,1.892
7.0,-5.0,1.893
4.0,-13.0,1.894
2.0,-27.0,1.895
4.0,-41.0,1.896
7.0,-44.0,1.897
4.0,-27.0,1.898
0.0,6.0,1.899
-5.0,40.0,1.9
-8.0,57.0,1.901
-8.0,62.0,1.902
-1.0,52.0,1.903
8.0,31.0,1.904
8.0,7.0,1.905
2.0,-6.0,1.906
0.0,-9.0,1.907
3.0,-8.0,1.908
4.0,-13.0,1.909
0.0,-15.0,1.91
-3.0,-10.0,1.911
-1.0,-7.0,1.912
3.0,-6.0,1.913
3.0,-8.0,1.914
1.0,-7.0,1.915
2.0,-7.0,1.916
4.0,-9.0,1.917
2.0,-12.0,1.918
0.0,-10.0,1.919
-4.0,-11.0,1.92
-6.0,-22.0,1.921
-5.0,-28.0,1.922
2.0,-22.0,1.923
10.0,-4.0,1.924
10.0,18.0,1.925
5.0,35.0,1.926
1.0,36.0,1.927
4.0,15.0,1.928
6.0,-28.0,1.929
4.0,-81.0,1.93
3.0,-115.0,1.931
5.0,-96.0,1.932
4.0,-17.0,1.933
1.0,82.0,1.934
0.0,149.0,1.935
3.0,152.0,1.936
6.0,112.0,1.937
6.0,46.0,1.938
5.0,-13.0,1.939
0.0,-43.0,1.94
-5.0,-36.0,1.941
-4.0,-12.0,1.942
3.0,-5.0,1.943
12.0,-15.0,1.944
10.0,-18.0,1.945
2.0,-9.0,1.946
0.0,-6.0,1.947
6.0,-12.0,1.948
7.0,-14.0,1.949
2.0,-9.0,1.95
-1.0,-6.0,1.951
1.0,-10.0,1.952
4.0,-12.0,1.953
2.0,-7.0,1.954
1.0,-5.0,1.955
4.0,-8.0,1.956
5.0,-9.0,1.957
0.0,-6.0,1.958
-3.0,-3.0,1.959
-5.0,-2.0,1.96
-6.0,-2.0,1.961
-8.0,0.0,1.962
-3.0,3.0,1.963
5.0,6.0,1.964
9.0,10.0,1.965
3.0,11.0,1.966
-1.0,4.0,1.967
-1.0,-9.0,1.968
0.0,-23.0,1.969
-2.0,-36.0,1.97
-2.0,-43.0,1.971
3.0,-32.0,1.972
7.0,0.0,1.973
2.0,40.0,1.974
-2.0,64.0,1.975
1.0,63.0,1.976
7.0,47.0,1.977
8.0,20.0,1.978
4.0,-7.0,1.979
2.0,-24.0,1.98
3.0,-28.0,1.981
3.0,-21.0,1.982
4.0,-13.0,1.983
7.0,-9.0,1.984
8.0,-4.0,1.985
5.0,-2.0,1.986
1.0,-8.0,1.987
3.0,-19.0,1.988
5.0,-23.0,1.989
5.0,-10.0,1.99
1.0,8.0,1.991
-2.0,26.0,1.992
-4.0,35.0,1.993
-2.0,36.0,1.994
4.0,29.0,1.995
8.0,18.0,1.996
10.0,12.0,1.997
5.0,4.0,1.998
1.0,-8.0,1.999
-5.0,-36.0,2.0
-11.0,-80.0,2.001
-11.0,-118.0,2.002
0.0,-118.0,2.003
11.0,-60.0,2.004
7.0,37.0,2.005
-1.0,122.0,2.006
-3.0,154.0,2.007
1.0,130.0,2.008
4.0,74.0,2.009
3.0,12.0,2.01
5.0,-32.0,2.011
10.0,-42.0,2.012
9.0,-25.0,2.013
4.0,-11.0,2.014
3.0,-14.0,2.015
6.0,-22.0,2.016
9.0,-19.0,2.017
2.0,-12.0,2.018
-2.0,-11.0,2.019
-4.0,-13.0,2.02
-5.0,-13.0,2.021
-7.0,-11.0,2.022
-4.0,-11.0,2.023
4.0,-10.0,2.024
7.0,-6.0,2.025
0.0,-4.0,2.026
-5.0,-8.0,2.027
0.0,-11.0,2.028
5.0,-9.0,2.029
6.0,-7.0,2.03
3.0,-4.0,2.031
3.0,-2.0,2.032
4.0,1.0,2.033
3.0,3.0,2.034
1.0,4.0,2.035
3.0,5.0,2.036
7.0,7.0,2.037
5.0,5.0,2.038
2.0,4.0,2.039
-1.0,2.0,2.04
-3.0,-4.0,2.041
-4.0,-7.0,2.042
0.0,-6.0,2.043
6.0,-1.0,2.044
7.0,3.0,2.045
0.0,6.0,2.046
-1.0,3.0,2.047
3.0,-5.0,2.048
8.0,-17.0,2.049
6.0,-30.0,2.05
2.0,-38.0,2.051
3.0,-36.0,2.052
5.0,-16.0,2.053
2.0,17.0,2.054
1.0,48.0,2.055
4.0,62.0,2.056
6.0,61.0,2.057
3.0,44.0,2.058
-1.0,22.0,2.059
-4.0,-1.0,2.06
-5.0,-15.0,2.061
-6.0,-14.0,2.062
-2.0,-8.0,2.063
4.0,-7.0,2.064
5.0,-7.0,2.065
0.0,-4.0,2.066
-1.0,-2.0,2.067
5.0,-3.0,2.068
8.0,-6.0,2.069
2.0,-2.0,2.07
-2.0,2.0,2.071
1.0,-2.0,2.072
6.0,-6.0,2.073
5.0,-4.0,2.074
3.0,-1.0,2.075
4.0,-5.0,2.076
7.0,-8.0,2.077
2.0,-7.0,2.078
-1.0,-3.0,2.079
-3.0,-3.0,2.08
-3.0,-11.0,2.081
-3.0,-10.0,2.082
-2.0,-4.0,2.083
2.0,-1.0,2.084
4.0,-1.0,2.085
2.0,3.0,2.086
3.0,7.0,2.087
7.0,7.0,2.088
9.0,3.0,2.089
7.0,0.0,2.09
3.0,-4.0,2.091
2.0,-14.0,2.092
0.0,-23.0,2.093
-1.0,-20.0,2.094
-1.0,-8.0,2.095
4.0,4.0,2.096
8.0,13.0,2.097
5.0,17.0,2.098
0.0,16.0,2.099
-4.0,12.0,2.1
-5.0,5.0,2.101
-6.0,1.0,2.102
-1.0,-4.0,2.103
6.0,-7.0,2.104
9.0,-5.0,2.105
4.0,-1.0,2.106
0.0,2.0,2.107
1.0,0.0,2.108
3.0,-1.0,2.109
2.0,0.0,2.11
2.0,1.0,2.111
6.0,0.0,2.112
6.0,-2.0,2.113
2.0,-3.0,2.114
1.0,-5.0,2.115
6.0,-5.0,2.116
9.0,-2.0,2.117
4.0,-2.0,2.118
1.0,-2.0,2.119
0.0,0.0,2.12
-1.0,1.0,2.121
-4.0,4.0,2.122
-3.0,-1.0,2.123
4.0,-20.0,2.124
4.0,-54.0,2.125
1.0,-93.0,2.126
0.0,-110.0,2.127
5.0,-75.0,2.128
5.0,12.0,2.129
1.0,106.0,2.13
1.0,155.0,2.131
6.0,145.0,2.132
10.0,97.0,2.133
7.0,34.0,2.134
5.0,-20.0,2.135
7.0,-40.0,2.136
6.0,-29.0,2.137
-1.0,-11.0,2.138
-4.0,-9.0,2.139
-6.0,-16.0,2.14
-9.0,-16.0,2.141
-11.0,-10.0,2.142
-4.0,-10.0,2.143
5.0,-14.0,2.144
7.0,-8.0,2.145
-1.0,-1.0,2.146
-5.0,-1.0,2.147
-1.0,-7.0,2.148
5.0,-9.0,2.149
3.0,-6.0,2.15
2.0,-4.0,2.151
5.0,-8.0,2.152
8.0,-10.0,2.153
7.0,-11.0,2.154
3.0,-11.0,2.155
4.0,-10.0,2.156
7.0,-7.0,2.157
3.0,-4.0,2.158
1.0,0.0,2.159
0.0,2.0,2.16
0.0,3.0,2.161
-1.0,7.0,2.162
3.0,8.0,2.163
10.0,4.0,2.164
11.0,-3.0,2.165
3.0,-13.0,2.166
0.0,-24.0,2.167
2.0,-35.0,2.168
6.0,-35.0,2.169
4.0,-18.0,2.17
1.0,13.0,2.171
3.0,45.0,2.172
4.0,64.0,2.173
2.0,61.0,2.174
2.0,44.0,2.175
2.0,17.0,2.176
3.0,-4.0,2.177
-1.0,-13.0,2.178
-4.0,-11.0,2.179
-6.0,-9.0,2.18
-6.0,-15.0,2.181
-6.0,-18.0,2.182
-2.0,-14.0,2.183
2.0,-5.0,2.184
4.0,-2.0,2.185
2.0,-2.0,2.186
1.0,-2.0,2.187
2.0,-3.0,2.188
2.0,-5.0,2.189
3.0,-6.0,2.19
6.0,-5.0,2.191
12.0,-3.0,2.192
12.0,-4.0,2.193
7.0,-3.0,2.194
4.0,2.0,2.195
4.0,3.0,2.196
5.0,2.0,2.197
2.0,-5.0,2.198
0.0,-9.0,2.199
-2.0,-13.0,2.2
-4.0,-20.0,2.201
-6.0,-23.0,2.202
-2.0,-11.0,2.203
2.0,2.0,2.204
4.0,18.0,2.205
6.0,31.0,2.206
3.0,31.0,2.207
1.0,28.0,2.208
3.0,18.0,2.209
4.0,8.0,2.21
2.0,1.0,2.211
1.0,-4.0,2.212
1.0,-6.0,2.213
0.0,-6.0,2.214
-4.0,2.0,2.215
-7.0,4.0,2.216
-6.0,-9.0,2.217
-3.0,-28.0,2.218
0.0,-63.0,2.219
0.0,-102.0,2.22
-4.0,-123.0,2.221
-10.0,-90.0,2.222
-6.0,0.0,2.223
3.0,98.0,2.224
9.0,150.0,2.225
6.0,141.0,2.226
2.0,94.0,2.227
3.0,32.0,2.228
8.0,-21.0,2.229
8.0,-41.0,2.23
5.0,-25.0,2.231
3.0,-5.0,2.232
3.0,-5.0,2.233
3.0,-17.0,2.234
4.0,-19.0,2.235
9.0,-11.0,2.236
12.0,-9.0,2.237
8.0,-15.0,2.238
2.0,-17.0,2.239
-2.0,-13.0,2.24
-4.0,-13.0,2.241
-3.0,-13.0,2.242
0.0,-10.0,2.243
5.0,-2.0,2.244
8.0,4.0,2.245
3.0,7.0,2.246
-1.0,5.0,2.247
2.0,0.0,2.248
7.0,0.0,2.249
8.0,1.0,2.25
2.0,2.0,2.251
0.0,0.0,2.252
2.0,-4.0,2.253
5.0,-5.0,2.254
3.0,-7.0,2.255
1.0,-8.0,2.256
3.0,-5.0,2.257
6.0,-1.0,2.258
7.0,1.0,2.259
1.0,0.0,2.26
-5.0,-3.0,2.261
-7.0,2.0,2.262
-1.0,8.0,2.263
7.0,11.0,2.264
8.0,11.0,2.265
1.0,11.0,2.266
-1.0,6.0,2.267
3.0,-6.0,2.268
7.0,-21.0,2.269
4.0,-33.0,2.27
1.0,-39.0,2.271
5.0,-34.0,2.272
11.0,-11.0,2.273
6.0,24.0,2.274
0.0,52.0,2.275
2.0,58.0,2.276
9.0,51.0,2.277
6.0,33.0,2.278
-4.0,9.0,2.279
-10.0,-8.0,2.28
-6.0,-15.0,2.281
-1.0,-11.0,2.282
0.0,-9.0,2.283
0.0,-10.0,2.284
4.0,-8.0,2.285
4.0,-7.0,2.286
1.0,-15.0,2.287
-2.0,-26.0,2.288
-2.0,-29.0,2.289
0.0,-18.0,2.29
1.0,-3.0,2.291
2.0,9.0,2.292
4.0,20.0,2.293
3.0,25.0,2.294
4.0,23.0,2.295
5.0,14.0,2.296
6.0,7.0,2.297
4.0,-6.0,2.298
3.0,-33.0,2.299
-1.0,-74.0,2.3
-5.0,-114.0,2.301
-9.0,-119.0,2.302
-3.0,-68.0,2.303
7.0,25.0,2.304
12.0,116.0,2.305
6.0,158.0,2.306
0.0,139.0,2.307
-1.0,82.0,2.308
1.0,16.0,2.309
3.0,-26.0,2.31
4.0,-33.0,2.311
7.0,-17.0,2.312
7.0,-6.0,2.313
4.0,-10.0,2.314
0.0,-18.0,2.315
1.0,-13.0,2.316
4.0,-4.0,2.317
2.0,-5.0,2.318
-1.0,-10.0,2.319
-4.0,-12.0,2.32
-3.0,-12.0,2.321
-1.0,-13.0,2.322
2.0,-10.0,2.323
6.0,-6.0,2.324
7.0,-4.0,2.325
2.0,-5.0,2.326
0.0,-7.0,2.327
2.0,-5.0,2.328
4.0,-4.0,2.329
1.0,-5.0,2.33
0.0,-3.0,2.331
1.0,0.0,2.332
2.0,0.0,2.333
0.0,-5.0,2.334
0.0,-7.0,2.335
1.0,-4.0,2.336
6.0,-1.0,2.337
8.0,-5.0,2.338
6.0,-7.0,2.339
0.0,-7.0,2.34
-5.0,-6.0,2.341
-7.0,-3.0,2.342
-1.0,2.0,2.343
7.0,6.0,2.344
9.0,8.0,2.345
4.0,7.0,2.346
-1.0,8.0,2.347
-1.0,4.0,2.348
0.0,-2.0,2.349
0.0,-6.0,2.35
4.0,-4.0,2.351
8.0,-3.0,2.352
11.0,-3.0,2.353
8.0,-1.0,2.354
4.0,4.0,2.355
4.0,6.0,2.356
5.0,5.0,2.357
4.0,0.0,2.358
3.0,-1.0,2.359
-1.0,-2.0,2.36
-6.0,-5.0,2.361
-5.0,-4.0,2.362
2.0,-3.0,2.363
9.0,-5.0,2.364
7.0,-12.0,2.365
3.0,-24.0,2.366
3.0,-36.0,2.367
7.0,-41.0,2.368
6.0,-27.0,2.369
1.0,7.0,2.37
1.0,44.0,2.371
3.0,65.0,2.372
4.0,66.0,2.373
4.0,50.0,2.374
6.0,22.0,2.375
8.0,-6.0,2.376
6.0,-18.0,2.377
1.0,-15.0,2.378
0.0,-10.0,2.379
1.0,-14.0,2.38
-1.0,-30.0,2.381
-7.0,-53.0,2.382
-5.0,-82.0,2.383
1.0,-90.0,2.384
5.0,-46.0,2.385
2.0,43.0,2.386
0.0,122.0,2.387
5.0,146.0,2.388
9.0,117.0,2.389
4.0,66.0,2.39
0.0,9.0,2.391
1.0,-34.0,2.392
4.0,-45.0,2.393
2.0,-31.0,2.394
0.0,-17.0,2.395
2.0,-20.0,2.396
7.0,-23.0,2.397
8.0,-20.0,2.398
3.0,-16.0,2.399
-4.0,-18.0,2.4
-8.0,-22.0,2.401
-5.0,-16.0,2.402
0.0,-10.0,2.403
6.0,-7.0,2.404
6.0,-4.0,2.405
3.0,2.0,2.406
3.0,3.0,2.407
2.0,-2.0,2.408
3.0,-2.0,2.409
2.0,2.0,2.41
2.0,5.0,2.411
3.0,1.0,2.412
3.0,-2.0,2.413
3.0,-4.0,2.414
4.0,-6.0,2.415
3.0,-5.0,2.416
3.0,-2.0,2.417
2.0,-1.0,2.418
2.0,-4.0,2.419
-1.0,-8.0,2.42
-7.0,-9.0,2.421
-9.0,-5.0,2.422
-2.0,-3.0,2.423
5.0,-2.0,2.424
5.0,0.0,2.425
0.0,4.0,2.426
0.0,4.0,2.427
4.0,2.0,2.428
7.0,5.0,2.429
6.0,7.0,2.43
6.0,6.0,2.431
6.0,-1.0,2.432
5.0,-4.0,2.433
2.0,-3.0,2.434
2.0,-4.0,2.435
5.0,-8.0,2.436
6.0,-8.0,2.437
4.0,-4.0,2.438
0.0,0.0,2.439
-4.0,0.0,2.44
-8.0,-2.0,2.441
-9.0,1.0,2.442
-4.0,4.0,2.443
5.0,6.0,2.444
8.0,8.0,2.445
5.0,10.0,2.446
0.0,7.0,2.447
3.0,0.0,2.448
5.0,-3.0,2.449
3.0,-2.0,2.45
-1.0,-3.0,2.451
-1.0,-7.0,2.452
2.0,-9.0,2.453
4.0,-7.0,2.454
4.0,-3.0,2.455
4.0,-3.0,2.456
5.0,-4.0,2.457
3.0,-5.0,2.458
0.0,-5.0,2.459
-2.0,-9.0,2.46
-1.0,-20.0,2.461
0.0,-35.0,2.462
3.0,-42.0,2.463
7.0,-32.0,2.464
4.0,-3.0,2.465
-1.0,34.0,2.466
-3.0,60.0,2.467
0.0,67.0,2.468
5.0,57.0,2.469
6.0,35.0,2.47
5.0,2.0,2.471
6.0,-24.0,2.472
7.0,-30.0,2.473
6.0,-13.0,2.474
5.0,6.0,2.475
5.0,15.0,2.476
8.0,21.0,2.477
6.0,19.0,2.478
3.0,8.0,2.479
0.0,-25.0,2.48
-2.0,-76.0,2.481
-3.0,-119.0,2.482
-1.0,-125.0,2.483
4.0,-74.0,2.484
4.0,23.0,2.485
0.0,115.0,2.486
-3.0,154.0,2.487
0.0,133.0,2.488
6.0,78.0,2.489
6.0,21.0,2.49
4.0,-22.0,2.491
4.0,-35.0,2.492
5.0,-23.0,2.493
5.0,-11.0,2.494
4.0,-15.0,2.495
4.0,-22.0,2.496
6.0,-16.0,2.497
4.0,-11.0,2.498
1.0,-13.0,2.499
-1.0,-15.0,2.5
-3.0,-10.0,2.501
-3.0,-6.0,2.502
-1.0,-10.0,2.503
4.0,-11.0,2.504
6.0,-3.0,2.505
2.0,2.0,2.506
0.0,-3.0,2.507
3.0,-8.0,2.508
7.0,-6.0,2.509
3.0,-4.0,2.51
-3.0,-4.0,2.511
-2.0,-4.0,2.512
5.0,-2.0,2.513
11.0,-1.0,2.514
9.0,-1.0,2.515
3.0,-1.0,2.516
0.0,-1.0,2.517
-3.0,-2.0,2.518
-4.0,-8.0,2.519
-5.0,-12.0,2.52
-6.0,-12.0,2.521
-6.0,-7.0,2.522
0.0,0.0,2.523
5.0,6.0,2.524
3.0,12.0,2.525
2.0,12.0,2.526
0.0,11.0,2.527
-1.0,9.0,2.528
0.0,6.0,2.529
2.0,0.0,2.53
2.0,-4.0,2.531
3.0,-4.0,2.532
4.0,0.0,2.533
4.0,0.0,2.534
1.0,-1.0,2.535
-1.0,-4.0,2.536
0.0,-4.0,2.537
3.0,-6.0,2.538
0.0,-6.0,2.539
-4.0,-5.0,2.54
-5.0,-6.0,2.541
-4.0,-7.0,2.542
1.0,-5.0,2.543
5.0,0.0,2.544
5.0,6.0,2.545
5.0,8.0,2.546
5.0,8.0,2.547
7.0,8.0,2.548
5.0,6.0,2.549
2.0,4.0,2.55
4.0,4.0,2.551
5.0,4.0,2.552
3.0,2.0,2.553
-1.0,-2.0,2.554
1.0,-7.0,2.555
8.0,-10.0,2.556
14.0,-15.0,2.557
9.0,-19.0,2.558
4.0,-15.0,2.559
0.0,-3.0,2.56
-1.0,8.0,2.561
1.0,14.0,2.562
5.0,5.0,2.563
8.0,-22.0,2.564
3.0,-71.0,2.565
-1.0,-118.0,2.566
2.0,-124.0,2.567
10.0,-58.0,2.568
8.0,59.0,2.569
0.0,165.0,2.57
-3.0,209.0,2.571
3.0,181.0,2.572
7.0,105.0,2.573
2.0,21.0,2.574
-3.0,-37.0,2.575
-1.0,-52.0,2.576
6.0,-37.0,2.577
5.0,-22.0,2.578
1.0,-22.0,2.579
-3.0,-26.0,2.58
-5.0,-26.0,2.581
-6.0,-21.0,2.582
-2.0,-21.0,2.583
4.0,-21.0,2.584
9.0,-15.0,2.585
6.0,-9.0,2.586
2.0,-9.0,2.587
3.0,-12.0,2.588
3.0,-10.0,2.589
3.0,-7.0,2.59
3.0,-10.0,2.591
4.0,-13.0,2.592
5.0,-11.0,2.593
3.0,-5.0,2.594
2.0,-2.0,2.595
4.0,-3.0,2.596
9.0,-1.0,2.597
8.0,-1.0,2.598
1.0,-3.0,2.599
-4.0,-5.0,2.6
-5.0,-7.0,2.601
-2.0,-4.0,2.602
1.0,-3.0,2.603
4.0,-2.0,2.604
4.0,2.0,2.605
1.0,8.0,2.606
0.0,7.0,2.607
5.0,1.0,2.608
5.0,-2.0,2.609
1.0,-4.0,2.61
-2.0,-4.0,2.611
-1.0,-4.0,2.612
1.0,-2.0,2.613
0.0,3.0,2.614
0.0,5.0,2.615
2.0,3.0,2.616
5.0,1.0,2.617
2.0,3.0,2.618
0.0,5.0,2.619
-2.0,2.0,2.62
-2.0,-4.0,2.621
-2.0,-5.0,2.622
1.0,-3.0,2.623
6.0,-1.0,2.624
5.0,0.0,2.625
0.0,4.0,2.626
-1.0,2.0,2.627
2.0,-3.0,2.628
4.0,-4.0,2.629
2.0,0.0,2.63
3.0,2.0,2.631
7.0,-1.0,2.632
7.0,-3.0,2.633
1.0,1.0,2.634
-2.0,5.0,2.635
1.0,0.0,2.636
6.0,-4.0,2.637
5.0,-4.0,2.638
3.0,-1.0,2.639
-1.0,0.0,2.64
-4.0,-5.0,2.641
-5.0,-5.0,2.642
-1.0,-1.0,2.643
5.0,1.0,2.644
2.0,3.0,2.645
-2.0,2.0,2.646
0.0,-5.0,2.647
8.0,-18.0,2.648
7.0,-35.0,2.649
2.0,-55.0,2.65
2.0,-81.0,2.651
6.0,-92.0,2.652
8.0,-52.0,2.653
4.0,38.0,2.654
0.0,127.0,2.655
2.0,164.0,2.656
3.0,145.0,2.657
1.0,86.0,2.658
-1.0,13.0,2.659
-3.0,-53.0,2.66
-6.0,-88.0,2.661
-8.0,-77.0,2.662
-3.0,-38.0,2.663
6.0,1.0,2.664
8.0,31.0,2.665
3.0,50.0,2.666
0.0,52.0,2.667
3.0,31.0,2.668
4.0,0.0,2.669
2.0,-20.0,2.67
3.0,-27.0,2.671
6.0,-25.0,2.672
6.0,-18.0,2.673
3.0,-14.0,2.674
2.0,-15.0,2.675
5.0,-18.0,2.676
5.0,-14.0,2.677
3.0,-10.0,2.678
0.0,-8.0,2.679
-4.0,-9.0,2.68
-9.0,-12.0,2.681
-11.0,-9.0,2.682
-4.0,-5.0,2.683
5.0,-5.0,2.684
7.0,-3.0,2.685
6.0,-2.0,2.686
7.0,-4.0,2.687
9.0,-3.0,2.688
7.0,-1.0,2.689
2.0,2.0,2.69
3.0,1.0,2.691
6.0,-1.0,2.692
6.0,-3.0,2.693
3.0,-1.0,2.694
2.0,0.0,2.695
3.0,0.0,2.696
4.0,-3.0,2.697
3.0,-7.0,2.698
4.0,-9.0,2.699
0.0,-8.0,2.7
-5.0,-7.0,2.701
-7.0,-3.0,2.702
0.0,0.0,2.703
8.0,2.0,2.704
4.0,5.0,2.705
-4.0,9.0,2.706
-5.0,11.0,2.707
1.0,12.0,2.708
5.0,9.0,2.709
0.0,2.0,2.71
-1.0,-1.0,2.711
2.0,-1.0,2.712
7.0,0.0,2.713
7.0,-1.0,2.714
5.0,-4.0,2.715
3.0,-3.0,2.716
6.0,0.0,2.717
7.0,0.0,2.718
5.0,-1.0,2.719
-2.0,-2.0,2.72
-7.0,-2.0,2.721
-5.0,-1.0,2.722
4.0,0.0,2.723
8.0,2.0,2.724
5.0,5.0,2.725
-2.0,8.0,2.726
-2.0,7.0,2.727
1.0,3.0,2.728
4.0,0.0,2.729
5.0,0.0,2.73
5.0,1.0,2.731
5.0,0.0,2.732
3.0,-3.0,2.733
2.0,-4.0,2.734
2.0,-1.0,2.735
4.0,1.0,2.736
4.0,1.0,2.737
2.0,-5.0,2.738
1.0,-9.0,2.739
0.0,-10.0,2.74
-4.0,-16.0,2.741
-6.0,-17.0,2.742
-2.0,-14.0,2.743
6.0,-11.0,2.744
8.0,-22.0,2.745
1.0,-53.0,2.746
-2.0,-83.0,2.747
1.0,-73.0,2.748
7.0,-9.0,2.749
6.0,81.0,2.75
2.0,142.0,2.751
1.0,146.0,2.752
4.0,104.0,2.753
6.0,42.0,2.754
6.0,-19.0,2.755
6.0,-62.0,2.756
5.0,-73.0,2.757
3.0,-60.0,2.758
0.0,-38.0,2.759
-3.0,-12.0,2.76
-5.0,15.0,2.761
-3.0,43.0,2.762
2.0,54.0,2.763
5.0,41.0,2.764
2.0,18.0,2.765
-3.0,-3.0,2.766
-5.0,-15.0,2.767
0.0,-18.0,2.768
4.0,-15.0,2.769
5.0,-13.0,2.77
3.0,-14.0,2.771
2.0,-13.0,2.772
6.0,-9.0,2.773
9.0,-11.0,2.774
10.0,-16.0,2.775
9.0,-20.0,2.776
9.0,-16.0,2.777
4.0,-11.0,2.778
-1.0,-10.0,2.779
-6.0,-8.0,2.78
-9.0,-8.0,2.781
-7.0,-8.0,2.782
-2.0,-9.0,2.783
3.0,-7.0,2.784
7.0,1.0,2.785
6.0,10.0,2.786
3.0,11.0,2.787
0.0,6.0,2.788
0.0,2.0,2.789
0.0,3.0,2.79
3.0,5.0,2.791
6.0,3.0,2.792
5.0,4.0,2.793
1.0,8.0,2.794
0.0,11.0,2.795
1.0,7.0,2.796
4.0,2.0,2.797
3.0,-3.0,2.798
0.0,-5.0,2.799
-4.0,-7.0,2.8
-6.0,-12.0,2.801
-5.0,-13.0,2.802
0.0,-9.0,2.803
7.0,-4.0,2.804
10.0,-2.0,2.805
5.0,-1.0,2.806
2.0,0.0,2.807
5.0,2.0,2.808
6.0,3.0,2.809
6.0,4.0,2.81
5.0,2.0,2.811
7.0,0.0,2.812
7.0,-1.0,2.813
2.0,-3.0,2.814
-1.0,-6.0,2.815
0.0,-10.0,2.816
6.0,-11.0,2.817
5.0,-16.0,2.818
0.0,-11.0,2.819
-7.0,2.0,2.82
-9.0,22.0,2.821
-6.0,33.0,2.822
0.0,28.0,2.823
6.0,0.0,2.824
9.0,-46.0,2.825
8.0,-93.0,2.826
6.0,-111.0,2.827
4.0,-70.0,2.828
3.0,20.0,2.829
3.0,107.0,2.83
1.0,144.0,2.831
0.0,119.0,2.832
0.0,52.0,2.833
0.0,-24.0,2.834
1.0,-72.0,2.835
3.0,-67.0,2.836
5.0,-21.0,2.837
2.0,25.0,2.838
-3.0,42.0,2.839
-7.0,37.0,2.84
-6.0,24.0,2.841
-2.0,8.0,2.842
2.0,-11.0,2.843
6.0,-19.0,2.844
5.0,-9.0,2.845
3.0,0.0,2.846
0.0,-3.0,2.847
2.0,-11.0,2.848
5.0,-7.0,2.849
4.0,0.0,2.85
2.0,-5.0,2.851
3.0,-13.0,2.852
5.0,-15.0,2.853
3.0,-12.0,2.854
0.0,-11.0,2.855
3.0,-10.0,2.856
11.0,-7.0,2.857
14.0,-6.0,2.858
8.0,-9.0,2.859
-3.0,-10.0,2.86
-12.0,-7.0,2.861
-10.0,-8.0,2.862
-2.0,-20.0,2.863
1.0,-40.0,2.864
-4.0,-57.0,2.865
-13.0,-65.0,2.866
-15.0,-58.0,2.867
-8.0,-34.0,2.868
0.0,-1.0,2.869
14.0,27.0,2.87
25.0,47.0,2.871
27.0,54.0,2.872
16.0,36.0,2.873
8.0,-7.0,2.874
21.0,-50.0,2.875
48.0,-49.0,2.876
67.0,9.0,2.877
53.0,89.0,2.878
14.0,143.0,2.879
-21.0,171.0,2.88
-43.0,121.0,2.881
-57.0,69.0,2.882
-46.0,7.0,2.883
-37.0,-39.0,2.884
-35.0,-41.0,2.885
-31.0,-42.0,2.886
-23.0,-36.0,2.887
-11.0,-33.0,2.888
14.0,-39.0,2.889
40.0,-46.0,2.89
68.0,-55.0,2.891
80.0,-62.0,2.892
45.0,-59.0,2.893
23.0,-51.0,2.894
39.0,-31.0,2.895
66.0,-12.0,2.896
128.0,1.0,2.897
174.0,13.0,2.898
136.0,13.0,2.899
65.0,-3.0,2.9
29.0,-20.0,2.901
55.0,-18.0,2.902
86.0,-11.0,2.903
32.0,-13.0,2.904
-111.0,-18.0,2.905
-213.0,-7.0,2.906
-172.0,24.0,2.907
-79.0,57.0,2.908
-106.0,83.0,2.909
-249.0,98.0,2.91
-334.0,98.0,2.911
-289.0,76.0,2.912
-222.0,38.0,2.913
-205.0,-3.0,2.914
-169.0,-38.0,2.915
-73.0,-63.0,2.916
3.0,-75.0,2.917
26.0,-68.0,2.918
69.0,-35.0,2.919
176.0,7.0,2.92
253.0,35.0,2.921
213.0,44.0,2.922
136.0,44.0,2.923
129.0,39.0,2.924
180.0,20.0,2.925
218.0,-14.0,2.926
228.0,-50.0,2.927
210.0,-68.0,2.928
143.0,-64.0,2.929
47.0,-42.0,2.93
-14.0,-9.0,2.931
-39.0,27.0,2.932
-102.0,57.0,2.933
-205.0,81.0,2.934
-246.0,95.0,2.935
-205.0,88.0,2.936
-173.0,56.0,2.937
-182.0,1.0,2.938
-134.0,-43.0,2.939
32.0,-62.0,2.94
216.0,-65.0,2.941
280.0,-63.0,2.942
201.0,-57.0,2.943
59.0,-41.0,2.944
-47.0,-28.0,2.945
-44.0,-33.0,2.946
52.0,-45.0,2.947
125.0,-46.0,2.948
78.0,-30.0,2.949
-44.0,-20.0,2.95
-127.0,-26.0,2.951
-149.0,-34.0,2.952
-155.0,-21.0,2.953
-150.0,11.0,2.954
-103.0,42.0,2.955
-29.0,56.0,2.956
15.0,57.0,2.957
29.0,52.0,2.958
46.0,47.0,2.959
67.0,37.0,2.96
61.0,15.0,2.961
30.0,-2.0,2.962
11.0,-8.0,2.963
17.0,-1.0,2.964
36.0,3.0,2.965
60.0,-2.0,2.966
87.0,-9.0,2.967
105.0,-6.0,2.968
102.0,3.0,2.969
98.0,9.0,2.97
111.0,10.0,2.971
125.0,10.0,2.972
98.0,5.0,2.973
28.0,-13.0,2.974
-34.0,-53.0,2.975
-52.0,-108.0,2.976
-46.0,-157.0,2.977
-50.0,-175.0,2.978
-40.0,-122.0,2.979
16.0,-5.0,2.98
92.0,110.0,2.981
110.0,168.0,2.982
38.0,160.0,2.983
-70.0,114.0,2.984
-137.0,55.0,2.985
-106.0,4.0,2.986
22.0,-9.0,2.987
182.0,10.0,2.988
252.0,31.0,2.989
146.0,25.0,2.99
-64.0,5.0,2.991
-198.0,-1.0,2.992
-158.0,-2.0,2.993
-30.0,-10.0,2.994
43.0,-16.0,2.995
25.0,-9.0,2.996
-45.0,2.0,2.997
-146.0,-1.0,2.998
-238.0,-6.0,2.999
-284.0,-10.0,3.0
-186.0,-6.0,3.001
-101.0,-5.0,3.002
-55.0,-20.0,3.003
-27.0,-37.0,3.004
-59.0,-60.0,3.005
-66.0,-81.0,3.006
3.0,-94.0,3.007
51.0,-96.0,3.008
30.0,-61.0,3.009
10.0,-21.0,3.01
-6.0,33.0,3.011
1.0,77.0,3.012
79.0,88.0,3.013
145.0,91.0,3.014
172.0,65.0,3.015
180.0,42.0,3.016
128.0,25.0,3.017
55.0,13.0,3.018
-75.0,30.0,3.019
-144.0,56.0,3.02
-111.0,67.0,3.021
-31.0,65.0,3.022
39.0,55.0,3.023
83.0,39.0,3.024
99.0,16.0,3.025
65.0,-4.0,3.026
4.0,-12.0,3.027
-23.0,-12.0,3.028
6.0,-15.0,3.029
41.0,-20.0,3.03
39.0,-23.0,3.031
18.0,-25.0,3.032
13.0,-26.0,3.033
24.0,-25.0,3.034
29.0,-24.0,3.035
28.0,-28.0,3.036
32.0,-31.0,3.037
35.0,-31.0,3.038
31.0,-28.0,3.039
24.0,-28.0,3.04
18.0,-31.0,3.041
14.0,-26.0,3.042
7.0,-16.0,3.043
5.0,-10.0,3.044
8.0,-11.0,3.045
9.0,-10.0,3.046
5.0,-6.0,3.047
2.0,-9.0,3.048
-3.0,-16.0,3.049
-10.0,-19.0,3.05
-13.0,-15.0,3.051
-5.0,-9.0,3.052
2.0,-8.0,3.053
0.0,-7.0,3.054
-5.0,-3.0,3.055
-8.0,-3.0,3.056
-4.0,-4.0,3.057
-5.0,-5.0,3.058
-4.0,-1.0,3.059
3.0,6.0,3.06
20.0,11.0,3.061
47.0,17.0,3.062
80.0,24.0,3.063
93.0,28.0,3.064
63.0,25.0,3.065
8.0,17.0,3.066
-27.0,12.0,3.067
-35.0,13.0,3.068
-61.0,11.0,3.069
-122.0,-9.0,3.07
-167.0,-59.0,3.071
-148.0,-124.0,3.072
-88.0,-172.0,3.073
-46.0,-159.0,3.074
-39.0,-72.0,3.075
-39.0,48.0,3.076
-27.0,139.0,3.077
-14.0,172.0,3.078
-6.0,158.0,3.079
-7.0,120.0,3.08
-10.0,68.0,3.081
-4.0,21.0,3.082
13.0,-2.0,3.083
29.0,3.0,3.084
31.0,14.0,3.085
26.0,15.0,3.086
29.0,12.0,3.087
39.0,15.0,3.088
43.0,13.0,3.089
40.0,3.0,3.09
40.0,-6.0,3.091
43.0,-8.0,3.092
42.0,-9.0,3.093
33.0,-14.0,3.094
28.0,-20.0,3.095
27.0,-20.0,3.096
25.0,-18.0,3.097
19.0,-19.0,3.098
14.0,-18.0,3.099
7.0,-17.0,3.1
1.0,-19.0,3.101
-2.0,-17.0,3.102
-1.0,-13.0,3.103
3.0,-10.0,3.104
2.0,-10.0,3.105
-2.0,-9.0,3.106
-5.0,-9.0,3.107
-3.0,-11.0,3.108
-2.0,-14.0,3.109
-4.0,-14.0,3.11
-5.0,-10.0,3.111
-2.0,-9.0,3.112
0.0,-11.0,3.113
-1.0,-11.0,3.114
-1.0,-9.0,3.115
0.0,-9.0,3.116
2.0,-9.0,3.117
0.0,-12.0,3.118
-4.0,-10.0,3.119
-7.0,-8.0,3.12
-6.0,-8.0,3.121
-4.0,-4.0,3.122
-3.0,0.0,3.123
0.0,4.0,3.124
2.0,4.0,3.125
2.0,7.0,3.126
-1.0,9.0,3.127
-3.0,8.0,3.128
-2.0,4.0,3.129
1.0,3.0,3.13
4.0,5.0,3.131
5.0,5.0,3.132
3.0,1.0,3.133
2.0,-2.0,3.134
6.0,-4.0,3.135
12.0,-2.0,3.136
15.0,0.0,3.137
8.0,-1.0,3.138
-3.0,-3.0,3.139
-9.0,-2.0,3.14
-6.0,-1.0,3.141
1.0,0.0,3.142
9.0,0.0,3.143
10.0,0.0,3.144
6.0,7.0,3.145
1.0,12.0,3.146
0.0,11.0,3.147
2.0,4.0,3.148
2.0,-1.0,3.149
0.0,-1.0,3.15
2.0,1.0,3.151
7.0,0.0,3.152
8.0,0.0,3.153
3.0,2.0,3.154
0.0,2.0,3.155
0.0,0.0,3.156
4.0,1.0,3.157
3.0,3.0,3.158
1.0,1.0,3.159
-2.0,-2.0,3.16
-5.0,-6.0,3.161
-6.0,-4.0,3.162
-3.0,-2.0,3.163
2.0,-4.0,3.164
3.0,-2.0,3.165
-1.0,3.0,3.166
-5.0,5.0,3.167
-2.0,2.0,3.168
4.0,0.0,3.169
5.0,2.0,3.17
1.0,2.0,3.171
0.0,-1.0,3.172
2.0,-2.0,3.173
5.0,0.0,3.174
4.0,-1.0,3.175
1.0,-3.0,3.176
1.0,-3.0,3.177
0.0,-1.0,3.178
1.0,-2.0,3.179
1.0,-5.0,3.18
1.0,-6.0,3.181
1.0,-4.0,3.182
2.0,-1.0,3.183
6.0,0.0,3.184
10.0,3.0,3.185
8.0,6.0,3.186
5.0,4.0,3.187
5.0,1.0,3.188
7.0,1.0,3.189
6.0,3.0,3.19
2.0,3.0,3.191
1.0,0.0,3.192
5.0,0.0,3.193
6.0,0.0,3.194
3.0,0.0,3.195
0.0,-2.0,3.196
2.0,-1.0,3.197
5.0,0.0,3.198
3.0,-3.0,3.199
-2.0,-8.0,3.2
-7.0,-8.0,3.201
-8.0,-4.0,3.202
-4.0,-4.0,3.203
1.0,-7.0,3.204
5.0,-5.0,3.205
3.0,2.0,3.206
1.0,5.0,3.207
4.0,1.0,3.208
6.0,-1.0,3.209
5.0,0.0,3.21
1.0,0.0,3.211
1.0,-1.0,3.212
3.0,-1.0,3.213
4.0,-1.0,3.214
3.0,-2.0,3.215
4.0,-4.0,3.216
5.0,-5.0,3.217
5.0,-6.0,3.218
3.0,-6.0,3.219
-2.0,-6.0,3.22
-7.0,-7.0,3.221
-7.0,-5.0,3.222
-1.0,-5.0,3.223
7.0,-3.0,3.224
7.0,3.0,3.225
2.0,5.0,3.226
1.0,2.0,3.227
6.0,0.0,3.228
7.0,0.0,3.229
1.0,0.0,3.23
-2.0,-1.0,3.231
2.0,-2.0,3.232
4.0,0.0,3.233
1.0,2.0,3.234
0.0,1.0,3.235
5.0,-2.0,3.236
11.0,-2.0,3.237
9.0,-1.0,3.238
3.0,0.0,3.239
-3.0,-1.0,3.24
-6.0,-7.0,3.241
-5.0,-8.0,3.242
0.0,-5.0,3.243
6.0,-2.0,3.244
9.0,-1.0,3.245
4.0,2.0,3.246
0.0,7.0,3.247
3.0,9.0,3.248
6.0,-3.0,3.249
3.0,-35.0,3.25
0.0,-76.0,3.251
1.0,-99.0,3.252
4.0,-70.0,3.253
2.0,5.0,3.254
-1.0,87.0,3.255
0.0,128.0,3.256
1.0,122.0,3.257
0.0,82.0,3.258
-1.0,27.0,3.259
-2.0,-21.0,3.26
-4.0,-43.0,3.261
-7.0,-30.0,3.262
-6.0,-8.0,3.263
0.0,-2.0,3.264
1.0,-3.0,3.265
-2.0,2.0,3.266
0.0,7.0,3.267
12.0,-1.0,3.268
22.0,-9.0,3.269
21.0,-8.0,3.27
17.0,-6.0,3.271
17.0,-13.0,3.272
17.0,-21.0,3.273
13.0,-18.0,3.274
10.0,-22.0,3.275
11.0,-41.0,3.276
11.0,-54.0,3.277
2.0,-41.0,3.278
-6.0,-8.0,3.279
-11.0,18.0,3.28
-9.0,31.0,3.281
-7.0,42.0,3.282
-2.0,50.0,3.283
3.0,42.0,3.284
7.0,22.0,3.285
4.0,6.0,3.286
0.0,0.0,3.287
0.0,-1.0,3.288
3.0,-5.0,3.289
2.0,-8.0,3.29
-1.0,-8.0,3.291
-3.0,-6.0,3.292
-3.0,-6.0,3.293
-2.0,-7.0,3.294
-1.0,-8.0,3.295
-2.0,-10.0,3.296
0.0,-12.0,3.297
2.0,-15.0,3.298
2.0,-16.0,3.299
1.0,-13.0,3.3
0.0,-14.0,3.301
-1.0,-21.0,3.302
4.0,-33.0,3.303
8.0,-46.0,3.304
6.0,-50.0,3.305
4.0,-35.0,3.306
1.0,-6.0,3.307
0.0,27.0,3.308
1.0,53.0,3.309
5.0,65.0,3.31
13.0,67.0,3.311
18.0,61.0,3.312
12.0,51.0,3.313
5.0,37.0,3.314
-4.0,25.0,3.315
-12.0,10.0,3.316
-13.0,-13.0,3.317
-16.0,-55.0,3.318
-25.0,-93.0,3.319
-31.0,-93.0,3.32
-30.0,-47.0,3.321
-24.0,23.0,3.322
-3.0,81.0,3.323
39.0,104.0,3.324
78.0,95.0,3.325
79.0,60.0,3.326
36.0,9.0,3.327
-12.0,-31.0,3.328
-26.0,-40.0,3.329
-4.0,-23.0,3.33
21.0,-14.0,3.331
22.0,-24.0,3.332
-3.0,-32.0,3.333
-42.0,-29.0,3.334
-73.0,-30.0,3.335
-81.0,-43.0,3.336
-68.0,-49.0,3.337
-49.0,-39.0,3.338
-29.0,-27.0,3.339
-9.0,-25.0,3.34
12.0,-26.0,3.341
26.0,-17.0,3.342
33.0,-11.0,3.343
41.0,-15.0,3.344
50.0,-16.0,3.345
52.0,-4.0,3.346
63.0,7.0,3.347
132.0,8.0,3.348
291.0,8.0,3.349
476.0,19.0,3.35
512.0,32.0,3.351
277.0,37.0,3.352
-117.0,38.0,3.353
-392.0,39.0,3.354
-414.0,37.0,3.355
-324.0,30.0,3.356
-273.0,27.0,3.357
-219.0,27.0,3.358
-90.0,26.0,3.359
11.0,19.0,3.36
-52.0,7.0,3.361
-185.0,1.0,3.362
-185.0,0.0,3.363
-59.0,0.0,3.364
18.0,6.0,3.365
-11.0,10.0,3.366
-57.0,7.0,3.367
-81.0,-6.0,3.368
-119.0,-17.0,3.369
-129.0,-23.0,3.37
-38.0,-28.0,3.371
100.0,-40.0,3.372
158.0,-48.0,3.373
117.0,-47.0,3.374
74.0,-40.0,3.375
67.0,-31.0,3.376
63.0,-20.0,3.377
51.0,-7.0,3.378
60.0,5.0,3.379
70.0,6.0,3.38
78.0,-5.0,3.381
102.0,-9.0,3.382
173.0,-5.0,3.383
228.0,0.0,3.384
236.0,3.0,3.385
232.0,10.0,3.386
190.0,15.0,3.387
105.0,15.0,3.388
-110.0,10.0,3.389
-284.0,13.0,3.39
-334.0,17.0,3.391
-352.0,13.0,3.392
-267.0,5.0,3.393
-178.0,6.0,3.394
-77.0,9.0,3.395
12.0,1.0,3.396
66.0,-15.0,3.397
103.0,-30.0,3.398
87.0,-37.0,3.399
74.0,-28.0,3.4
37.0,-17.0,3.401
-3.0,-2.0,3.402
13.0,8.0,3.403
72.0,9.0,3.404
94.0,5.0,3.405
79.0,3.0,3.406
99.0,9.0,3.407
151.0,19.0,3.408
159.0,34.0,3.409
111.0,43.0,3.41
66.0,35.0,3.411
49.0,14.0,3.412
28.0,0.0,3.413
3.0,5.0,3.414
-3.0,13.0,3.415
0.0,9.0,3.416
-9.0,0.0,3.417
-23.0,-3.0,3.418
-17.0,-5.0,3.419
-8.0,-10.0,3.42
-20.0,-15.0,3.421
-21.0,-12.0,3.422
28.0,-6.0,3.423
89.0,-7.0,3.424
82.0,-12.0,3.425
-5.0,-11.0,3.426
-108.0,-7.0,3.427
-167.0,-6.0,3.428
-181.0,0.0,3.429
-173.0,10.0,3.43
-154.0,18.0,3.431
-118.0,17.0,3.432
-63.0,12.0,3.433
-5.0,10.0,3.434
36.0,6.0,3.435
54.0,-2.0,3.436
56.0,-10.0,3.437
45.0,-14.0,3.438
23.0,-12.0,3.439
-5.0,-8.0,3.44
-20.0,-7.0,3.441
-11.0,-3.0,3.442
3.0,0.0,3.443
10.0,-2.0,3.444
7.0,-6.0,3.445
9.0,-5.0,3.446
15.0,-2.0,3.447
18.0,1.0,3.448
18.0,3.0,3.449
20.0,5.0,3.45
26.0,3.0,3.451
30.0,1.0,3.452
25.0,0.0,3.453
17.0,0.0,3.454
12.0,0.0,3.455
9.0,-3.0,3.456
8.0,-4.0,3.457
6.0,-4.0,3.458
5.0,-7.0,3.459
0.0,-10.0,3.46
-5.0,-12.0,3.461
-8.0,-8.0,3.462
-4.0,-4.0,3.463
-1.0,-5.0,3.464
-3.0,-5.0,3.465
-11.0,-3.0,3.466
-16.0,-3.0,3.467
-15.0,-6.0,3.468
-16.0,-7.0,3.469
-19.0,-4.0,3.47
-20.0,-4.0,3.471
-16.0,-10.0,3.472
-9.0,-12.0,3.473
-6.0,-9.0,3.474
-1.0,-8.0,3.475
11.0,-13.0,3.476
23.0,-15.0,3.477
25.0,-9.0,3.478
21.0,5.0,3.479
17.0,16.0,3.48
16.0,14.0,3.481
16.0,10.0,3.482
19.0,10.0,3.483
22.0,17.0,3.484
23.0,26.0,3.485
20.0,21.0,3.486
17.0,7.0,3.487
19.0,-3.0,3.488
21.0,4.0,3.489
18.0,14.0,3.49
11.0,13.0,3.491
5.0,2.0,3.492
0.0,-6.0,3.493
-7.0,-6.0,3.494
-14.0,-6.0,3.495
-16.0,-6.0,3.496
-18.0,-4.0,3.497
-23.0,-7.0,3.498
-24.0,-9.0,3.499
-22.0,-13.0,3.5
-18.0,-14.0,3.501
-18.0,-15.0,3.502
-20.0,-14.0,3.503
-15.0,-9.0,3.504
-7.0,-2.0,3.505
-4.0,1.0,3.506
-1.0,0.0,3.507
7.0,-2.0,3.508
13.0,-5.0,3.509
8.0,-4.0,3.51
5.0,5.0,3.511
16.0,19.0,3.512
30.0,27.0,3.513
28.0,24.0,3.514
13.0,15.0,3.515
4.0,8.0,3.516
11.0,4.0,3.517
15.0,-5.0,3.518
10.0,-9.0,3.519
2.0,-8.0,3.52
2.0,-9.0,3.521
9.0,-10.0,3.522
18.0,-7.0,3.523
23.0,2.0,3.524
21.0,7.0,3.525
11.0,2.0,3.526
-4.0,-5.0,3.527
-16.0,-5.0,3.528
-28.0,-4.0,3.529
-38.0,-6.0,3.53
-43.0,-12.0,3.531
-43.0,-17.0,3.532
-38.0,-18.0,3.533
-30.0,-13.0,3.534
-18.0,-5.0,3.535
1.0,0.0,3.536
21.0,-1.0,3.537
42.0,-6.0,3.538
58.0,-7.0,3.539
55.0,-8.0,3.54
21.0,-4.0,3.541
-25.0,1.0,3.542
-42.0,12.0,3.543
-18.0,21.0,3.544
17.0,20.0,3.545
32.0,18.0,3.546
33.0,14.0,3.547
45.0,9.0,3.548
65.0,2.0,3.549
71.0,-3.0,3.55
55.0,-3.0,3.551
26.0,-2.0,3.552
3.0,-2.0,3.553
-6.0,-2.0,3.554
-12.0,-2.0,3.555
-34.0,-3.0,3.556
-71.0,-5.0,3.557
-106.0,-6.0,3.558
-111.0,-5.0,3.559
-93.0,-9.0,3.56
-74.0,-16.0,3.561
-68.0,-15.0,3.562
-59.0,-8.0,3.563
-34.0,-8.0,3.564
2.0,-20.0,3.565
34.0,-31.0,3.566
49.0,-29.0,3.567
50.0,-15.0,3.568
47.0,1.0,3.569
47.0,17.0,3.57
50.0,24.0,3.571
50.0,21.0,3.572
44.0,16.0,3.573
33.0,16.0,3.574
23.0,15.0,3.575
22.0,10.0,3.576
23.0,4.0,3.577
22.0,4.0,3.578
18.0,9.0,3.579
13.0,5.0,3.58
15.0,-9.0,3.581
25.0,-10.0,3.582
40.0,2.0,3.583
45.0,14.0,3.584
30.0,14.0,3.585
6.0,10.0,3.586
-5.0,11.0,3.587
0.0,12.0,3.588
10.0,7.0,3.589
7.0,-1.0,3.59
0.0,-5.0,3.591
-1.0,-3.0,3.592
-4.0,-4.0,3.593
-14.0,-5.0,3.594
-20.0,-5.0,3.595
-17.0,-6.0,3.596
-4.0,-5.0,3.597
2.0,-5.0,3.598
3.0,-5.0,3.599
5.0,-6.0,3.6
3.0,-11.0,3.601
5.0,-10.0,3.602
18.0,-6.0,3.603
32.0,-2.0,3.604
48.0,0.0,3.605
62.0,0.0,3.606
71.0,0.0,3.607
91.0,-1.0,3.608
142.0,-2.0,3.609
146.0,-3.0,3.61
6.0,-4.0,3.611
-115.0,-7.0,3.612
-180.0,-8.0,3.613
-218.0,-8.0,3.614
-176.0,-3.0,3.615
-147.0,1.0,3.616
-161.0,2.0,3.617
-155.0,-1.0,3.618
-79.0,-3.0,3.619
-39.0,-1.0,3.62
-33.0,-2.0,3.621
-2.0,-1.0,3.622
47.0,0.0,3.623
65.0,3.0,3.624
68.0,6.0,3.625
108.0,5.0,3.626
162.0,4.0,3.627
136.0,2.0,3.628
20.0,2.0,3.629
-87.0,3.0,3.63
-102.0,3.0,3.631
-49.0,2.0,3.632
-4.0,0.0,3.633
8.0,-2.0,3.634
13.0,-3.0,3.635
34.0,-4.0,3.636
69.0,-6.0,3.637
-5.0,-13.0,3.638
-6.0,-15.0,3.639
-7.0,-14.0,3.64
-7.0,-14.0,3.641
-4.0,-14.0,3.642
2.0,-11.0,3.643
9.0,-3.0,3.644
17.0,7.0,3.645
25.0,11.0,3.646
36.0,8.0,3.647
41.0,5.0,3.648
31.0,5.0,3.649
14.0,5.0,3.65
-20.0,4.0,3.651
-46.0,3.0,3.652
-39.0,5.0,3.653
-34.0,8.0,3.654
-36.0,7.0,3.655
-35.0,2.0,3.656
-23.0,1.0,3.657
-5.0,0.0,3.658
-5.0,0.0,3.659
-6.0,0.0,3.66
-6.0,-4.0,3.661
-4.0,-7.0,3.662
0.0,-5.0,3.663
6.0,-3.0,3.664
11.0,-2.0,3.665
17.0,-1.0,3.666
25.0,0.0,3.667
29.0,0.0,3.668
21.0,-2.0,3.669
9.0,-5.0,3.67
-15.0,-8.0,3.671
-34.0,-10.0,3.672
-29.0,-6.0,3.673
-26.0,-3.0,3.674
-27.0,-3.0,3.675
-26.0,-4.0,3.676
-17.0,-3.0,3.677
-7.0,-2.0,3.678
-8.0,-7.0,3.679
-10.0,-10.0,3.68
-9.0,-11.0,3.681
-5.0,-4.0,3.682
6.0,4.0,3.683
17.0,13.0,3.684
29.0,26.0,3.685
41.0,31.0,3.686
57.0,24.0,3.687
65.0,10.0,3.688
50.0,3.0,3.689
24.0,2.0,3.69
-29.0,1.0,3.691
-68.0,-3.0,3.692
-58.0,-6.0,3.693
-51.0,-8.0,3.694
-54.0,-11.0,3.695
-52.0,-16.0,3.696
-33.0,-17.0,3.697
-10.0,-18.0,3.698
1.0,-19.0,3.699
-19.0,-20.0,3.7
-32.0,-17.0,3.701
-14.0,-6.0,3.702
19.0,5.0,3.703
36.0,8.0,3.704
30.0,8.0,3.705
20.0,11.0,3.706
19.0,13.0,3.707
21.0,10.0,3.708
21.0,4.0,3.709
17.0,1.0,3.71
14.0,4.0,3.711
14.0,4.0,3.712
14.0,-1.0,3.713
12.0,-2.0,3.714
8.0,-2.0,3.715
5.0,-1.0,3.716
7.0,-2.0,3.717
-14.0,-6.0,3.718
-41.0,-7.0,3.719
-60.0,-5.0,3.72
-53.0,-6.0,3.721
-47.0,-5.0,3.722
-45.0,-5.0,3.723
-42.0,-4.0,3.724
-37.0,-2.0,3.725
-31.0,3.0,3.726
-25.0,6.0,3.727
-18.0,4.0,3.728
-13.0,0.0,3.729
-8.0,0.0,3.73
-9.0,-1.0,3.731
-9.0,-1.0,3.732
-8.0,0.0,3.733
-8.0,4.0,3.734
-10.0,4.0,3.735
-11.0,-1.0,3.736
-11.0,-3.0,3.737
18.0,-2.0,3.738
-87.0,-2.0,3.739
-161.0,-6.0,3.74
-136.0,-12.0,3.741
-114.0,-8.0,3.742
-105.0,-5.0,3.743
-94.0,-6.0,3.744
-74.0,-4.0,3.745
-52.0,-2.0,3.746
-24.0,-2.0,3.747
2.0,-7.0,3.748
24.0,-7.0,3.749
41.0,4.0,3.75
39.0,19.0,3.751
38.0,24.0,3.752
41.0,19.0,3.753
42.0,14.0,3.754
34.0,10.0,3.755
29.0,5.0,3.756
29.0,0.0,3.757
36.0,-5.0,3.758
-113.0,-15.0,3.759
-217.0,-30.0,3.76
-181.0,-43.0,3.761
-150.0,-42.0,3.762
-138.0,-34.0,3.763
-122.0,-26.0,3.764
-94.0,-18.0,3.765
-63.0,-7.0,3.766
-23.0,3.0,3.767
14.0,8.0,3.768
45.0,8.0,3.769
68.0,12.0,3.77
66.0,28.0,3.771
64.0,41.0,3.772
68.0,41.0,3.773
69.0,28.0,3.774
59.0,13.0,3.775
52.0,5.0,3.776
52.0,4.0,3.777
49.0,-2.0,3.778
34.0,-8.0,3.779
14.0,-10.0,3.78
13.0,-9.0,3.781
21.0,-8.0,3.782
27.0,-6.0,3.783
37.0,0.0,3.784
51.0,9.0,3.785
49.0,15.0,3.786
23.0,12.0,3.787
0.0,3.0,3.788
-4.0,0.0,3.789
-11.0,4.0,3.79
-25.0,6.0,3.791
-30.0,-1.0,3.792
-19.0,-7.0,3.793
-12.0,-9.0,3.794
-18.0,-9.0,3.795
-22.0,-15.0,3.796
-20.0,-22.0,3.797
39.0,-26.0,3.798
39.0,-27.0,3.799
34.0,-28.0,3.8
15.0,-35.0,3.801
4.0,-28.0,3.802
20.0,2.0,3.803
34.0,49.0,3.804
41.0,80.0,3.805
33.0,76.0,3.806
-13.0,49.0,3.807
-49.0,27.0,3.808
-43.0,17.0,3.809
-33.0,9.0,3.81
-7.0,-6.0,3.811
8.0,-21.0,3.812
-10.0,-23.0,3.813
-9.0,-21.0,3.814
49.0,-20.0,3.815
101.0,-21.0,3.816
133.0,-18.0,3.817
41.0,-19.0,3.818
41.0,-28.0,3.819
36.0,-47.0,3.82
14.0,-77.0,3.821
2.0,-104.0,3.822
20.0,-103.0,3.823
36.0,-50.0,3.824
43.0,34.0,3.825
35.0,101.0,3.826
-17.0,121.0,3.827
-56.0,109.0,3.828
-50.0,82.0,3.829
-38.0,43.0,3.83
-10.0,1.0,3.831
7.0,-17.0,3.832
-13.0,-18.0,3.833
-12.0,-41.0,3.834
52.0,-97.0,3.835
110.0,-138.0,3.836
145.0,-136.0,3.837
58.0,-119.0,3.838
58.0,-130.0,3.839
49.0,-170.0,3.84
10.0,-206.0,3.841
-11.0,-209.0,3.842
21.0,-176.0,3.843
49.0,-118.0,3.844
61.0,-37.0,3.845
47.0,62.0,3.846
-43.0,172.0,3.847
-109.0,290.0,3.848
-99.0,391.0,3.849
-79.0,433.0,3.85
-31.0,377.0,3.851
-2.0,242.0,3.852
-36.0,106.0,3.853
-35.0,28.0,3.854
76.0,-5.0,3.855
174.0,-44.0,3.856
234.0,-88.0,3.857
267.0,-116.0,3.858
176.0,-132.0,3.859
35.0,-172.0,3.86
-71.0,-228.0,3.861
-106.0,-244.0,3.862
-95.0,-212.0,3.863
-83.0,-187.0,3.864
-70.0,-204.0,3.865
-45.0,-211.0,3.866
-24.0,-158.0,3.867
-29.0,-69.0,3.868
-44.0,-10.0,3.869
-21.0,3.0,3.87
64.0,22.0,3.871
174.0,77.0,3.872
235.0,142.0,3.873
207.0,179.0,3.874
122.0,197.0,3.875
45.0,230.0,3.876
5.0,266.0,3.877
-40.0,259.0,3.878
-111.0,188.0,3.879
-173.0,86.0,3.88
-207.0,7.0,3.881
-214.0,-10.0,3.882
-140.0,49.0,3.883
-51.0,176.0,3.884
82.0,339.0,3.885
200.0,462.0,3.886
269.0,475.0,3.887
271.0,354.0,3.888
66.0,147.0,3.889
-113.0,-66.0,3.89
-216.0,-222.0,3.891
-284.0,-301.0,3.892
-243.0,-322.0,3.893
-201.0,-311.0,3.894
-158.0,-269.0,3.895
-118.0,-189.0,3.896
-88.0,-90.0,3.897
-79.0,0.0,3.898
-125.0,63.0,3.899
-76.0,110.0,3.9
58.0,163.0,3.901
168.0,206.0,3.902
192.0,206.0,3.903
167.0,180.0,3.904
129.0,180.0,3.905
86.0,207.0,3.906
55.0,191.0,3.907
51.0,94.0,3.908
52.0,-22.0,3.909
36.0,-68.0,3.91
39.0,-51.0,3.911
114.0,-34.0,3.912
253.0,-47.0,3.913
375.0,-78.0,3.914
395.0,-151.0,3.915
301.0,-290.0,3.916
184.0,-426.0,3.917
150.0,-467.0,3.918
242.0,-405.0,3.919
331.0,-361.0,3.92
238.0,-423.0,3.921
-52.0,-506.0,3.922
-351.0,-492.0,3.923
-501.0,-376.0,3.924
-517.0,-238.0,3.925
-477.0,-107.0,3.926
-392.0,50.0,3.927
-255.0,242.0,3.928
-116.0,426.0,3.929
-6.0,557.0,3.93
101.0,627.0,3.931
187.0,642.0,3.932
155.0,587.0,3.933
-11.0,444.0,3.934
-165.0,238.0,3.935
-182.0,27.0,3.936
-136.0,-137.0,3.937
-155.0,-292.0,3.938
-217.0,-423.0,3.939
-161.0,-436.0,3.94
71.0,-246.0,3.941
290.0,79.0,3.942
250.0,349.0,3.943
-42.0,445.0,3.944
-317.0,406.0,3.945
-353.0,304.0,3.946
-215.0,140.0,3.947
-102.0,-65.0,3.948
-57.0,-212.0,3.949
36.0,-233.0,3.95
217.0,-191.0,3.951
370.0,-186.0,3.952
399.0,-228.0,3.953
338.0,-264.0,3.954
253.0,-276.0,3.955
139.0,-280.0,3.956
5.0,-277.0,3.957
-99.0,-250.0,3.958
-104.0,-203.0,3.959
-40.0,-152.0,3.96
17.0,-113.0,3.961
44.0,-84.0,3.962
58.0,-91.0,3.963
48.0,-162.0,3.964
-4.0,-285.0,3.965
-78.0,-383.0,3.966
-133.0,-368.0,3.967
-140.0,-221.0,3.968
-83.0,-41.0,3.969
21.0,44.0,3.97
80.0,27.0,3.971
36.0,11.0,3.972
-8.0,73.0,3.973
100.0,174.0,3.974
325.0,260.0,3.975
457.0,330.0,3.976
390.0,381.0,3.977
180.0,387.0,3.978
-19.0,371.0,3.979
-119.0,419.0,3.98
-125.0,545.0,3.981
-110.0,628.0,3.982
-130.0,565.0,3.983
-128.0,409.0,3.984
-46.0,253.0,3.985
13.0,71.0,3.986
-107.0,-192.0,3.987
-335.0,-469.0,3.988
-415.0,-651.0,3.989
-274.0,-706.0,3.99
-108.0,-655.0,3.991
-49.0,-489.0,3.992
-18.0,-222.0,3.993
33.0,41.0,3.994
16.0,205.0,3.995
-72.0,271.0,3.996
-97.0,285.0,3.997
-30.0,251.0,3.998
-15.0,185.0,3.999
-104.0,144.0,4.0
-121.0,141.0,4.001
38.0,152.0,4.002
209.0,165.0,4.003
199.0,201.0,4.004
76.0,218.0,4.005
39.0,165.0,4.006
142.0,115.0,4.007
274.0,190.0,4.008
324.0,345.0,4.009
265.0,402.0,4.01
136.0,292.0,4.011
15.0,123.0,4.012
-37.0,-24.0,4.013
-39.0,-194.0,4.014
-39.0,-405.0,4.015
-49.0,-561.0,4.016
-56.0,-596.0,4.017
-70.0,-571.0,4.018
-90.0,-576.0,4.019
-78.0,-616.0,4.02
-21.0,-611.0,4.021
34.0,-446.0,4.022
66.0,-44.0,4.023
107.0,520.0,4.024
141.0,995.0,4.025
85.0,1138.0,4.026
-64.0,950.0,4.027
-204.0,622.0,4.028
-287.0,278.0,4.029
-368.0,-56.0,4.03
-425.0,-324.0,4.031
-316.0,-411.0,4.032
7.0,-314.0,4.033
372.0,-171.0,4.034
553.0,-106.0,4.035
493.0,-133.0,4.036
309.0,-194.0,4.037
113.0,-240.0,4.038
2.0,-227.0,4.039
-43.0,-177.0,4.04
-93.0,-161.0,4.041
-122.0,-187.0,4.042
-28.0,-186.0,4.043
144.0,-136.0,4.044
175.0,-115.0,4.045
-23.0,-165.0,4.046
-239.0,-221.0,4.047
-257.0,-222.0,4.048
-130.0,-198.0,4.049
-34.0,-182.0,4.05
-7.0,-160.0,4.051
14.0,-143.0,4.052
40.0,-171.0,4.053
71.0,-220.0,4.054
116.0,-207.0,4.055
123.0,-126.0,4.056
29.0,-49.0,4.057
-123.0,9.0,4.058
-169.0,99.0,4.059
-75.0,198.0,4.06
18.0,192.0,4.061
40.0,62.0,4.062
84.0,-25.0,4.063
196.0,141.0,4.064
275.0,569.0,4.065
211.0,1032.0,4.066
10.0,1265.0,4.067
-240.0,1180.0,4.068
-431.0,877.0,4.069
-462.0,491.0,4.07
-333.0,109.0,4.071
-158.0,-181.0,4.072
-11.0,-307.0,4.073
120.0,-303.0,4.074
208.0,-303.0,4.075
161.0,-371.0,4.076
5.0,-440.0,4.077
-110.0,-430.0,4.078
-76.0,-335.0,4.079
-1.0,-202.0,4.08
-21.0,-82.0,4.081
-76.0,-21.0,4.082
-38.0,-58.0,4.083
70.0,-190.0,4.084
125.0,-369.0,4.085
119.0,-544.0,4.086
148.0,-664.0,4.087
227.0,-662.0,4.088
252.0,-482.0,4.089
146.0,-120.0,4.09
-21.0,355.0,4.091
-120.0,813.0,4.092
-108.0,1087.0,4.093
-37.0,1090.0,4.094
49.0,868.0,4.095
164.0,567.0,4.096
267.0,306.0,4.097
260.0,80.0,4.098
86.0,-103.0,4.099
-136.0,-243.0,4.1
-227.0,-347.0,4.101
-165.0,-414.0,4.102
-67.0,-449.0,4.103
-23.0,-466.0,4.104
-19.0,-493.0,4.105
-35.0,-533.0,4.106
-79.0,-537.0,4.107
-132.0,-481.0,4.108
-154.0,-402.0,4.109
-139.0,-339.0,4.11
-93.0,-275.0,4.111
9.0,-163.0,4.112
178.0,-6.0,4.113
315.0,159.0,4.114
290.0,307.0,4.115
104.0,434.0,4.116
-72.0,536.0,4.117
-115.0,587.0,4.118
-51.0,519.0,4.119
-31.0,304.0,4.12
-107.0,33.0,4.121
-170.0,-149.0,4.122
-128.0,-198.0,4.123
-41.0,-184.0,4.124
-20.0,-146.0,4.125
-59.0,-73.0,4.126
-82.0,-36.0,4.127
-76.0,-184.0,4.128
-78.0,-515.0,4.129
-74.0,-778.0,4.13
2.0,-706.0,4.131
161.0,-265.0,4.132
331.0,380.0,4.133
413.0,1017.0,4.134
349.0,1425.0,4.135
169.0,1418.0,4.136
6.0,1042.0,4.137
-61.0,478.0,4.138
-69.0,0.0,4.139
-116.0,-304.0,4.14
-179.0,-486.0,4.141
-126.0,-538.0,4.142
66.0,-417.0,4.143
234.0,-174.0,4.144
232.0,61.0,4.145
79.0,217.0,4.146
-105.0,321.0,4.147
-217.0,393.0,4.148
-205.0,410.0,4.149
-90.0,363.0,4.15
40.0,281.0,4.151
110.0,176.0,4.152
124.0,23.0,4.153
113.0,-187.0,4.154
54.0,-397.0,4.155
-69.0,-517.0,4.156
-179.0,-530.0,4.157
-197.0,-510.0,4.158
-111.0,-520.0,4.159
4.0,-511.0,4.16
94.0,-392.0,4.161
165.0,-179.0,4.162
219.0,-6.0,4.163
228.0,38.0,4.164
163.0,12.0,4.165
32.0,-13.0,4.166
-118.0,-54.0,4.167
-236.0,-136.0,4.168
-259.0,-196.0,4.169
-169.0,-164.0,4.17
-23.0,-80.0,4.171
53.0,-35.0,4.172
7.0,-42.0,4.173
-82.0,-60.0,4.174
-139.0,-89.0,4.175
-215.0,-126.0,4.176
-347.0,-108.0,4.177
-428.0,15.0,4.178
-297.0,158.0,4.179
-41.0,178.0,4.18
81.0,67.0,4.181
4.0,-44.0,4.182
-67.0,-90.0,4.183
-7.0,-117.0,4.184
69.0,-152.0,4.185
55.0,-151.0,4.186
10.0,-69.0,4.187
7.0,91.0,4.188
5.0,314.0,4.189
27.0,570.0,4.19
193.0,779.0,4.191
487.0,852.0,4.192
664.0,767.0,4.193
535.0,574.0,4.194
240.0,332.0,4.195
55.0,91.0,4.196
47.0,-88.0,4.197
68.0,-212.0,4.198
0.0,-286.0,4.199
-102.0,-350.0,4.2
-131.0,-442.0,4.201
-99.0,-568.0,4.202
-90.0,-670.0,4.203
-114.0,-629.0,4.204
-113.0,-364.0,4.205
-73.0,58.0,4.206
-20.0,476.0,4.207
52.0,742.0,4.208
146.0,763.0,4.209
180.0,517.0,4.21
70.0,116.0,4.211
-114.0,-221.0,4.212
-204.0,-352.0,4.213
-141.0,-327.0,4.214
-48.0,-263.0,4.215
-23.0,-182.0,4.216
-21.0,-78.0,4.217
13.0,-4.0,4.218
30.0,-22.0,4.219
-29.0,-77.0,4.22
-94.0,-71.0,4.221
-67.0,-18.0,4.222
29.0,-6.0,4.223
94.0,-51.0,4.224
98.0,-106.0,4.225
97.0,-160.0,4.226
119.0,-210.0,4.227
127.0,-194.0,4.228
92.0,-85.0,4.229
18.0,36.0,4.23
-68.0,94.0,4.231
-143.0,126.0,4.232
-171.0,183.0,4.233
-146.0,197.0,4.234
-99.0,106.0,4.235
-59.0,-20.0,4.236
-26.0,-74.0,4.237
-3.0,-69.0,4.238
-26.0,-76.0,4.239
-101.0,-99.0,4.24
-159.0,-81.0,4.241
-123.0,-12.0,4.242
2.0,59.0,4.243
131.0,117.0,4.244
183.0,171.0,4.245
140.0,198.0,4.246
46.0,164.0,4.247
-26.0,101.0,4.248
-29.0,79.0,4.249
20.0,115.0,4.25
69.0,150.0,4.251
87.0,146.0,4.252
81.0,118.0,4.253
62.0,90.0,4.254
33.0,57.0,4.255
6.0,4.0,4.256
-1.0,-61.0,4.257
0.0,-135.0,4.258
-10.0,-187.0,4.259
-27.0,-188.0,4.26
-14.0,-136.0,4.261
42.0,-60.0,4.262
93.0,-7.0,4.263
87.0,12.0,4.264
34.0,16.0,4.265
-15.0,9.0,4.266
-48.0,-24.0,4.267
-88.0,-77.0,4.268
-126.0,-116.0,4.269
-121.0,-129.0,4.27
-78.0,-127.0,4.271
-49.0,-121.0,4.272
-59.0,-108.0,4.273
-76.0,-100.0,4.274
-60.0,-108.0,4.275
-18.0,-127.0,4.276
24.0,-138.0,4.277
41.0,-140.0,4.278
20.0,-111.0,4.279
-30.0,-25.0,4.28
-57.0,117.0,4.281
-18.0,254.0,4.282
84.0,308.0,4.283
200.0,251.0,4.284
283.0,130.0,4.285
323.0,24.0,4.286
332.0,-26.0,4.287
301.0,-40.0,4.288
200.0,-63.0,4.289
24.0,-98.0,4.29
-173.0,-101.0,4.291
-342.0,-63.0,4.292
-458.0,-37.0,4.293
-492.0,-62.0,4.294
-402.0,-99.0,4.295
-222.0,-91.0,4.296
-76.0,-41.0,4.297
-26.0,18.0,4.298
-18.0,78.0,4.299
24.0,154.0,4.3
77.0,226.0,4.301
73.0,255.0,4.302
44.0,239.0,4.303
49.0,209.0,4.304
76.0,184.0,4.305
81.0,143.0,4.306
80.0,81.0,4.307
98.0,21.0,4.308
102.0,-22.0,4.309
60.0,-66.0,4.31
19.0,-118.0,4.311
36.0,-138.0,4.312
88.0,-102.0,4.313
113.0,-48.0,4.314
94.0,-35.0,4.315
55.0,-64.0,4.316
25.0,-86.0,4.317
19.0,-83.0,4.318
53.0,-72.0,4.319
94.0,-84.0,4.32
88.0,-119.0,4.321
33.0,-156.0,4.322
-22.0,-180.0,4.323
-53.0,-184.0,4.324
-86.0,-156.0,4.325
-126.0,-104.0,4.326
-138.0,-52.0,4.327
-101.0,-5.0,4.328
-54.0,44.0,4.329
-31.0,84.0,4.33
-33.0,78.0,4.331
-28.0,31.0,4.332
-8.0,-4.0,4.333
24.0,-1.0,4.334
61.0,-1.0,4.335
96.0,-48.0,4.336
119.0,-102.0,4.337
116.0,-96.0,4.338
85.0,12.0,4.339
41.0,191.0,4.34
26.0,366.0,4.341
50.0,476.0,4.342
67.0,476.0,4.343
29.0,358.0,4.344
-41.0,180.0,4.345
-86.0,29.0,4.346
-90.0,-33.0,4.347
-93.0,-10.0,4.348
-115.0,52.0,4.349
-121.0,118.0,4.35
-80.0,164.0,4.351
-7.0,164.0,4.352
56.0,95.0,4.353
87.0,-20.0,4.354
82.0,-120.0,4.355
53.0,-166.0,4.356
21.0,-180.0,4.357
-8.0,-207.0,4.358
-25.0,-236.0,4.359
-31.0,-230.0,4.36
-26.0,-190.0,4.361
-18.0,-159.0,4.362
-32.0,-160.0,4.363
-74.0,-161.0,4.364
-102.0,-121.0,4.365
-57.0,-39.0,4.366
65.0,48.0,4.367
177.0,85.0,4.368
188.0,32.0,4.369
110.0,-88.0,4.37
27.0,-189.0,4.371
-4.0,-203.0,4.372
-26.0,-154.0,4.373
-92.0,-125.0,4.374
-175.0,-154.0,4.375
-208.0,-223.0,4.376
-166.0,-294.0,4.377
-73.0,-357.0,4.378
34.0,-372.0,4.379
116.0,-296.0,4.38
132.0,-116.0,4.381
85.0,159.0,4.382
45.0,487.0,4.383
51.0,768.0,4.384
58.0,857.0,4.385
20.0,689.0,4.386
-16.0,365.0,4.387
-1.0,44.0,4.388
21.0,-211.0,4.389
-13.0,-400.0,4.39
-65.0,-445.0,4.391
-69.0,-242.0,4.392
-49.0,144.0,4.393
-66.0,467.0,4.394
-97.0,528.0,4.395
-74.0,342.0,4.396
3.0,90.0,4.397
98.0,-106.0,4.398
187.0,-142.0,4.399
229.0,4.0,4.4
183.0,249.0,4.401
76.0,451.0,4.402
18.0,502.0,4.403
46.0,393.0,4.404
59.0,172.0,4.405
-25.0,-92.0,4.406
-137.0,-351.0,4.407
-169.0,-608.0,4.408
-109.0,-866.0,4.409
1.0,-1035.0,4.41
148.0,-964.0,4.411
283.0,-654.0,4.412
286.0,-320.0,4.413
93.0,-156.0,4.414
-157.0,-103.0,4.415
-269.0,31.0,4.416
-217.0,279.0,4.417
-130.0,549.0,4.418
-118.0,690.0,4.419
-149.0,639.0,4.42
-139.0,437.0,4.421
-85.0,218.0,4.422
-36.0,107.0,4.423
-10.0,93.0,4.424
19.0,70.0,4.425
56.0,35.0,4.426
82.0,108.0,4.427
98.0,325.0,4.428
115.0,529.0,4.429
109.0,573.0,4.43
53.0,494.0,4.431
-14.0,427.0,4.432
-17.0,436.0,4.433
60.0,491.0,4.434
130.0,535.0,4.435
113.0,501.0,4.436
26.0,351.0,4.437
-76.0,73.0,4.438
-135.0,-237.0,4.439
-141.0,-486.0,4.44
-98.0,-641.0,4.441
-26.0,-701.0,4.442
39.0,-679.0,4.443
61.0,-621.0,4.444
44.0,-588.0,4.445
13.0,-581.0,4.446
4.0,-548.0,4.447
40.0,-468.0,4.448
110.0,-387.0,4.449
167.0,-348.0,4.45
151.0,-343.0,4.451
48.0,-356.0,4.452
-80.0,-379.0,4.453
-144.0,-378.0,4.454
-106.0,-312.0,4.455
-10.0,-207.0,4.456
71.0,-136.0,4.457
104.0,-113.0,4.458
63.0,-90.0,4.459
-45.0,-48.0,4.46
-170.0,-23.0,4.461
-234.0,-21.0,4.462
-211.0,11.0,4.463
-139.0,110.0,4.464
-56.0,237.0,4.465
51.0,344.0,4.466
177.0,401.0,4.467
257.0,374.0,4.468
231.0,241.0,4.469
135.0,60.0,4.47
52.0,-60.0,4.471
9.0,-101.0,4.472
-12.0,-118.0,4.473
-13.0,-142.0,4.474
19.0,-137.0,4.475
53.0,-100.0,4.476
45.0,-87.0,4.477
-5.0,-128.0,4.478
-52.0,-173.0,4.479
-81.0,-186.0,4.48
-122.0,-167.0,4.481
-173.0,-69.0,4.482
-178.0,183.0,4.483
-110.0,574.0,4.484
-27.0,973.0,4.485
0.0,1251.0,4.486
-7.0,1346.0,4.487
26.0,1219.0,4.488
113.0,892.0,4.489
166.0,482.0,4.49
118.0,135.0,4.491
5.0,-102.0,4.492
-73.0,-259.0,4.493
-82.0,-325.0,4.494
-63.0,-276.0,4.495
-59.0,-157.0,4.496
-60.0,-77.0,4.497
-52.0,-78.0,4.498
-30.0,-142.0,4.499
6.0,-227.0,4.5
68.0,-283.0,4.501
132.0,-234.0,4.502
147.0,-71.0,4.503
91.0,85.0,4.504
7.0,98.0,4.505
-53.0,-22.0,4.506
-77.0,-152.0,4.507
-80.0,-215.0,4.508
-65.0,-236.0,4.509
-29.0,-256.0,4.51
7.0,-268.0,4.511
22.0,-269.0,4.512
14.0,-269.0,4.513
-7.0,-267.0,4.514
-28.0,-254.0,4.515
-28.0,-228.0,4.516
25.0,-194.0,4.517
107.0,-137.0,4.518
141.0,-65.0,4.519
139.0,-24.0,4.52
23.0,-39.0,4.521
-60.0,-70.0,4.522
-38.0,-73.0,4.523
-22.0,-58.0,4.524
-24.0,-55.0,4.525
-24.0,-60.0,4.526
-13.0,-51.0,4.527
-7.0,-49.0,4.528
-16.0,-74.0,4.529
-19.0,-107.0,4.53
0.0,-105.0,4.531
18.0,-69.0,4.532
36.0,-30.0,4.533
54.0,-6.0,4.534
68.0,28.0,4.535
85.0,90.0,4.536
109.0,162.0,4.537
119.0,212.0,4.538
62.0,220.0,4.539
-20.0,184.0,4.54
-74.0,99.0,4.541
-70.0,-22.0,4.542
-35.0,-146.0,4.543
-29.0,-220.0,4.544
-56.0,-233.0,4.545
-58.0,-218.0,4.546
-13.0,-188.0,4.547
26.0,-113.0,4.548
6.0,25.0,4.549
-51.0,208.0,4.55
-82.0,400.0,4.551
-71.0,569.0,4.552
-56.0,678.0,4.553
-63.0,673.0,4.554
-70.0,503.0,4.555
-40.0,163.0,4.556
24.0,-232.0,4.557
86.0,-548.0,4.558
95.0,-598.0,4.559
34.0,-361.0,4.56
-46.0,31.0,4.561
-72.0,449.0,4.562
-27.0,773.0,4.563
39.0,862.0,4.564
99.0,642.0,4.565
165.0,264.0,4.566
213.0,-7.0,4.567
178.0,-102.0,4.568
81.0,-164.0,4.569
20.0,-265.0,4.57
21.0,-308.0,4.571
-3.0,-250.0,4.572
-83.0,-183.0,4.573
-119.0,-166.0,4.574
-53.0,-136.0,4.575
13.0,-76.0,4.576
-16.0,-62.0,4.577
-117.0,-122.0,4.578
-185.0,-169.0,4.579
-194.0,-158.0,4.58
-151.0,-147.0,4.581
-46.0,-176.0,4.582
87.0,-196.0,4.583
143.0,-172.0,4.584
76.0,-157.0,4.585
-22.0,-198.0,4.586
-41.0,-267.0,4.587
15.0,-323.0,4.588
72.0,-349.0,4.589
77.0,-327.0,4.59
23.0,-245.0,4.591
-69.0,-136.0,4.592
-147.0,-42.0,4.593
-163.0,70.0,4.594
-117.0,263.0,4.595
-36.0,514.0,4.596
49.0,698.0,4.597
121.0,733.0,4.598
147.0,625.0,4.599
135.0,437.0,4.6
141.0,222.0,4.601
157.0,6.0,4.602
117.0,-179.0,4.603
21.0,-276.0,4.604
-29.0,-266.0,4.605
1.0,-221.0,4.606
28.0,-220.0,4.607
-4.0,-249.0,4.608
-27.0,-233.0,4.609
20.0,-193.0,4.61
70.0,-204.0,4.611
44.0,-248.0,4.612
-34.0,-197.0,4.613
-100.0,-6.0,4.614
-135.0,217.0,4.615
-146.0,364.0,4.616
-113.0,427.0,4.617
-35.0,430.0,4.618
41.0,361.0,4.619
68.0,231.0,4.62
56.0,113.0,4.621
30.0,61.0,4.622
-5.0,29.0,4.623
-60.0,-46.0,4.624
-122.0,-168.0,4.625
-178.0,-301.0,4.626
-213.0,-423.0,4.627
-201.0,-500.0,4.628
-94.0,-463.0,4.629
104.0,-281.0,4.63
317.0,-11.0,4.631
425.0,232.0,4.632
380.0,348.0,4.633
245.0,305.0,4.634
130.0,171.0,4.635
75.0,68.0,4.636
51.0,55.0,4.637
17.0,86.0,4.638
-40.0,91.0,4.639
-101.0,69.0,4.64
-146.0,32.0,4.641
-172.0,-43.0,4.642
-166.0,-193.0,4.643
-129.0,-360.0,4.644
-79.0,-422.0,4.645
-20.0,-326.0,4.646
60.0,-126.0,4.647
137.0,104.0,4.648
135.0,308.0,4.649
17.0,422.0,4.65
-122.0,400.0,4.651
-159.0,256.0,4.652
-99.0,90.0,4.653
-59.0,-15.0,4.654
-94.0,-65.0,4.655
-129.0,-119.0,4.656
-86.0,-183.0,4.657
36.0,-214.0,4.658
109.0,-180.0,4.659
103.0,-115.0,4.66
62.0,-55.0,4.661
39.0,23.0,4.662
44.0,117.0,4.663
40.0,162.0,4.664
-8.0,110.0,4.665
-88.0,19.0,4.666
-153.0,-29.0,4.667
-167.0,-41.0,4.668
-122.0,-92.0,4.669
-36.0,-184.0,4.67
64.0,-213.0,4.671
134.0,-90.0,4.672
150.0,134.0,4.673
123.0,312.0,4.674
91.0,351.0,4.675
79.0,291.0,4.676
86.0,239.0,4.677
94.0,227.0,4.678
90.0,237.0,4.679
69.0,237.0,4.68
48.0,213.0,4.681
34.0,157.0,4.682
19.0,63.0,4.683
1.0,-41.0,4.684
-8.0,-128.0,4.685
-6.0,-202.0,4.686
-1.0,-294.0,4.687
0.0,-397.0,4.688
-3.0,-476.0,4.689
-19.0,-513.0,4.69
-52.0,-505.0,4.691
-73.0,-417.0,4.692
-56.0,-211.0,4.693
-30.0,66.0,4.694
-43.0,298.0,4.695
-77.0,421.0,4.696
-71.0,466.0,4.697
-15.0,474.0,4.698
34.0,421.0,4.699
35.0,286.0,4.7
19.0,122.0,4.701
21.0,0.0,4.702
37.0,-78.0,4.703
43.0,-150.0,4.704
35.0,-202.0,4.705
20.0,-197.0,4.706
-2.0,-153.0,4.707
-26.0,-120.0,4.708
-46.0,-111.0,4.709
-59.0,-100.0,4.71
-60.0,-77.0,4.711
-38.0,-68.0,4.712
1.0,-77.0,4.713
17.0,-86.0,4.714
-7.0,-82.0,4.715
-33.0,-68.0,4.716
-18.0,-58.0,4.717
28.0,-51.0,4.718
65.0,-43.0,4.719
62.0,-28.0,4.72
26.0,-6.0,4.721
-21.0,17.0,4.722
-44.0,27.0,4.723
-24.0,22.0,4.724
17.0,20.0,4.725
38.0,21.0,4.726
25.0,13.0,4.727
4.0,-3.0,4.728
-7.0,-9.0,4.729
-18.0,-2.0,4.73
-30.0,4.0,4.731
-26.0,4.0,4.732
-9.0,7.0,4.733
-4.0,14.0,4.734
-16.0,17.0,4.735
-16.0,19.0,4.736
16.0,31.0,4.737
68.0,47.0,4.738
101.0,58.0,4.739
94.0,60.0,4.74
69.0,59.0,4.741
63.0,62.0,4.742
88.0,57.0,4.743
97.0,44.0,4.744
44.0,37.0,4.745
-56.0,45.0,4.746
-128.0,50.0,4.747
-134.0,33.0,4.748
-116.0,1.0,4.749
-119.0,-21.0,4.75
-130.0,-24.0,4.751
-120.0,-23.0,4.752
-92.0,-35.0,4.753
-62.0,-51.0,4.754
-25.0,-54.0,4.755
17.0,-34.0,4.756
46.0,-10.0,4.757
51.0,4.0,4.758
51.0,14.0,4.759
50.0,22.0,4.76
51.0,24.0,4.761
52.0,24.0,4.762
53.0,18.0,4.763
51.0,13.0,4.764
41.0,15.0,4.765
37.0,15.0,4.766
49.0,9.0,4.767
63.0,4.0,4.768
83.0,0.0,4.769
90.0,-4.0,4.77
59.0,-3.0,4.771
34.0,-2.0,4.772
28.0,-2.0,4.773
25.0,-2.0,4.774
32.0,2.0,4.775
24.0,5.0,4.776
-32.0,1.0,4.777
-91.0,-3.0,4.778
-133.0,-7.0,4.779
-112.0,-12.0,4.78
-60.0,-20.0,4.781
-29.0,-19.0,4.782
-28.0,-13.0,4.783
-19.0,-14.0,4.784
13.0,-19.0,4.785
48.0,-17.0,4.786
58.0,-4.0,4.787
37.0,8.0,4.788
0.0,9.0,4.789
-27.0,4.0,4.79
-30.0,3.0,4.791
-21.0,3.0,4.792
-21.0,0.0,4.793
-31.0,-6.0,4.794
-29.0,-10.0,4.795
-4.0,-11.0,4.796
18.0,-9.0,4.797
18.0,-7.0,4.798
14.0,-2.0,4.799
24.0,1.0,4.8
37.0,-1.0,4.801
35.0,-1.0,4.802
29.0,0.0,4.803
45.0,5.0,4.804
73.0,11.0,4.805
80.0,15.0,4.806
49.0,16.0,4.807
-3.0,13.0,4.808
-33.0,11.0,4.809
-29.0,10.0,4.81
-8.0,5.0,4.811
4.0,0.0,4.812
-3.0,-5.0,4.813
-21.0,-9.0,4.814
-43.0,-13.0,4.815
-67.0,-14.0,4.816
-81.0,-8.0,4.817
-75.0,-4.0,4.818
-40.0,-4.0,4.819
0.0,-11.0,4.82
21.0,-19.0,4.821
26.0,-12.0,4.822
38.0,-3.0,4.823
70.0,4.0,4.824
129.0,10.0,4.825
205.0,15.0,4.826
243.0,20.0,4.827
175.0,23.0,4.828
2.0,29.0,4.829
-164.0,35.0,4.83
-219.0,30.0,4.831
-183.0,11.0,4.832
-148.0,-11.0,4.833
-150.0,-33.0,4.834
-146.0,-49.0,4.835
-106.0,-50.0,4.836
-53.0,-32.0,4.837
0.0,-8.0,4.838
49.0,2.0,4.839
69.0,-2.0,4.84
49.0,-9.0,4.841
21.0,-9.0,4.842
21.0,-10.0,4.843
35.0,-12.0,4.844
22.0,-8.0,4.845
0.0,-1.0,4.846
33.0,0.0,4.847
122.0,-3.0,4.848
189.0,-1.0,4.849
167.0,7.0,4.85
74.0,11.0,4.851
-10.0,11.0,4.852
-43.0,17.0,4.853
-52.0,23.0,4.854
-79.0,21.0,4.855
-118.0,16.0,4.856
-136.0,17.0,4.857
-128.0,18.0,4.858
-104.0,8.0,4.859
-69.0,-4.0,4.86
-13.0,-20.0,4.861
48.0,-34.0,4.862
76.0,-38.0,4.863
63.0,-38.0,4.864
35.0,-25.0,4.865
28.0,-14.0,4.866
54.0,-8.0,4.867
88.0,-2.0,4.868
85.0,4.0,4.869
35.0,10.0,4.87
-15.0,9.0,4.871
-12.0,8.0,4.872
26.0,11.0,4.873
43.0,13.0,4.874
29.0,11.0,4.875
22.0,8.0,4.876
37.0,5.0,4.877
46.0,3.0,4.878
28.0,3.0,4.879
-5.0,2.0,4.88
-28.0,0.0,4.881
-38.0,2.0,4.882
-29.0,3.0,4.883
1.0,6.0,4.884
45.0,12.0,4.885
76.0,21.0,4.886
77.0,18.0,4.887
54.0,3.0,4.888
18.0,-11.0,4.889
-20.0,-19.0,4.89
-63.0,-24.0,4.891
-110.0,-24.0,4.892
-140.0,-17.0,4.893
-127.0,-9.0,4.894
-73.0,-5.0,4.895
-10.0,-10.0,4.896
49.0,-16.0,4.897
119.0,-16.0,4.898
176.0,-6.0,4.899
145.0,8.0,4.9
12.0,15.0,4.901
-124.0,21.0,4.902
-156.0,23.0,4.903
-107.0,20.0,4.904
-79.0,8.0,4.905
-101.0,-5.0,4.906
-99.0,-14.0,4.907
-30.0,-17.0,4.908
61.0,-14.0,4.909
102.0,-11.0,4.91
76.0,-9.0,4.911
30.0,-7.0,4.912
30.0,-1.0,4.913
88.0,5.0,4.914
139.0,6.0,4.915
113.0,1.0,4.916
34.0,0.0,4.917
-24.0,1.0,4.918
-64.0,4.0,4.919
-98.0,3.0,4.92
-117.0,-1.0,4.921
-119.0,6.0,4.922
-69.0,18.0,4.923
-29.0,21.0,4.924
-19.0,12.0,4.925
-8.0,-2.0,4.926
5.0,-18.0,4.927
19.0,-36.0,4.928
28.0,-50.0,4.929
28.0,-51.0,4.93
-1.0,-37.0,4.931
-21.0,-23.0,4.932
-10.0,-17.0,4.933
1.0,-10.0,4.934
13.0,6.0,4.935
27.0,31.0,4.936
47.0,48.0,4.937
68.0,40.0,4.938
81.0,18.0,4.939
80.0,0.0,4.94
78.0,-2.0,4.941
76.0,6.0,4.942
74.0,8.0,4.943
75.0,3.0,4.944
87.0,2.0,4.945
103.0,4.0,4.946
114.0,0.0,4.947
105.0,-3.0,4.948
59.0,-3.0,4.949
-28.0,-2.0,4.95
-114.0,-5.0,4.951
-150.0,-9.0,4.952
-134.0,-4.0,4.953
-118.0,13.0,4.954
-121.0,28.0,4.955
-114.0,30.0,4.956
-77.0,25.0,4.957
-40.0,15.0,4.958
-20.0,3.0,4.959
1.0,-7.0,4.96
25.0,-13.0,4.961
46.0,-17.0,4.962
55.0,-15.0,4.963
57.0,-14.0,4.964
36.0,-16.0,4.965
16.0,-16.0,4.966
1.0,-8.0,4.967
-4.0,-2.0,4.968
20.0,-3.0,4.969
46.0,-2.0,4.97
78.0,3.0,4.971
119.0,8.0,4.972
188.0,9.0,4.973
216.0,11.0,4.974
118.0,9.0,4.975
12.0,8.0,4.976
-119.0,8.0,4.977
-226.0,6.0,4.978
-235.0,0.0,4.979
-226.0,-10.0,4.98
-205.0,-22.0,4.981
-151.0,-28.0,4.982
-84.0,-23.0,4.983
-47.0,-14.0,4.984
-42.0,-8.0,4.985
-28.0,-11.0,4.986
5.0,-16.0,4.987
27.0,-13.0,4.988
30.0,-4.0,4.989
35.0,3.0,4.99
53.0,3.0,4.991
63.0,0.0,4.992
59.0,3.0,4.993
58.0,11.0,4.994
65.0,15.0,4.995
63.0,11.0,4.996
50.0,5.0,4.997
40.0,1.0,4.998
40.0,3.0,4.999
38.0,5.0,5.0
24.0,-1.0,5.001
11.0,-5.0,5.002
12.0,-4.0,5.003
20.0,4.0,5.004
23.0,9.0,5.005
18.0,7.0,5.006
6.0,-2.0,5.007
-4.0,-6.0,5.008
-7.0,-2.0,5.009
-2.0,4.0,5.01
3.0,7.0,5.011
2.0,5.0,5.012
-1.0,5.0,5.013
-3.0,3.0,5.014
-3.0,0.0,5.015
-7.0,-8.0,5.016
-10.0,-15.0,5.017
-6.0,-17.0,5.018
6.0,-9.0,5.019
14.0,5.0,5.02
13.0,11.0,5.021
7.0,6.0,5.022
8.0,-1.0,5.023
13.0,-1.0,5.024
14.0,2.0,5.025
7.0,-2.0,5.026
-3.0,-10.0,5.027
-10.0,-12.0,5.028
-11.0,-4.0,5.029
-4.0,1.0,5.03
0.0,-1.0,5.031
3.0,-1.0,5.032
3.0,4.0,5.033
1.0,5.0,5.034
-3.0,-2.0,5.035
-12.0,-7.0,5.036
-17.0,-2.0,5.037
-15.0,0.0,5.038
-9.0,-4.0,5.039
-9.0,-10.0,5.04
-11.0,-12.0,5.041
-9.0,-10.0,5.042
3.0,-9.0,5.043
21.0,-5.0,5.044
40.0,0.0,5.045
57.0,5.0,5.046
59.0,8.0,5.047
33.0,12.0,5.048
-11.0,22.0,5.049
-47.0,27.0,5.05
-62.0,22.0,5.051
-62.0,9.0,5.052
-60.0,-5.0,5.053
-52.0,-18.0,5.054
-34.0,-22.0,5.055
-16.0,-12.0,5.056
-3.0,-2.0,5.057
4.0,-2.0,5.058
9.0,-7.0,5.059
10.0,-11.0,5.06
13.0,-8.0,5.061
16.0,-5.0,5.062
19.0,-7.0,5.063
19.0,-7.0,5.064
18.0,2.0,5.065
19.0,10.0,5.066
22.0,8.0,5.067
25.0,6.0,5.068
25.0,2.0,5.069
30.0,-1.0,5.07
35.0,0.0,5.071
38.0,4.0,5.072
37.0,8.0,5.073
31.0,11.0,5.074
20.0,9.0,5.075
3.0,9.0,5.076
-13.0,15.0,5.077
-23.0,18.0,5.078
-28.0,1.0,5.079
-42.0,-24.0,5.08
-59.0,-39.0,5.081
-55.0,-26.0,5.082
-23.0,-5.0,5.083
10.0,0.0,5.084
19.0,-6.0,5.085
12.0,-9.0,5.086
12.0,-6.0,5.087
21.0,0.0,5.088
19.0,5.0,5.089
4.0,9.0,5.09
-1.0,7.0,5.091
7.0,1.0,5.092
15.0,-3.0,5.093
12.0,0.0,5.094
9.0,4.0,5.095
14.0,1.0,5.096
21.0,-4.0,5.097
23.0,-4.0,5.098
28.0,-1.0,5.099
34.0,-4.0,5.1
39.0,-8.0,5.101
40.0,-5.0,5.102
48.0,3.0,5.103
77.0,6.0,5.104
118.0,6.0,5.105
132.0,9.0,5.106
72.0,15.0,5.107
-53.0,13.0,5.108
-161.0,6.0,5.109
-176.0,-3.0,5.11
-121.0,-7.0,5.111
-96.0,-5.0,5.112
-135.0,3.0,5.113
-164.0,5.0,5.114
-116.0,-12.0,5.115
-30.0,-38.0,5.116
13.0,-48.0,5.117
-1.0,-39.0,5.118
-27.0,-27.0,5.119
-25.0,-21.0,5.12
-4.0,-19.0,5.121
17.0,-9.0,5.122
35.0,1.0,5.123
52.0,14.0,5.124
60.0,29.0,5.125
57.0,39.0,5.126
57.0,37.0,5.127
65.0,26.0,5.128
65.0,18.0,5.129
50.0,15.0,5.13
37.0,11.0,5.131
37.0,6.0,5.132
44.0,4.0,5.133
39.0,4.0,5.134
28.0,-2.0,5.135
24.0,-8.0,5.136
23.0,-8.0,5.137
19.0,-9.0,5.138
10.0,-10.0,5.139
-1.0,-11.0,5.14
-7.0,-11.0,5.141
-11.0,-10.0,5.142
-5.0,-10.0,5.143
11.0,-6.0,5.144
24.0,6.0,5.145
27.0,17.0,5.146
28.0,17.0,5.147
37.0,11.0,5.148
48.0,10.0,5.149
50.0,16.0,5.15
48.0,19.0,5.151
48.0,11.0,5.152
37.0,0.0,5.153
1.0,-7.0,5.154
-53.0,-10.0,5.155
-106.0,-14.0,5.156
-141.0,-15.0,5.157
-162.0,-17.0,5.158
-161.0,-22.0,5.159
-127.0,-33.0,5.16
-62.0,-43.0,5.161
15.0,-44.0,5.162
104.0,-36.0,5.163
206.0,-21.0,5.164
304.0,8.0,5.165
325.0,39.0,5.166
215.0,46.0,5.167
9.0,29.0,5.168
-174.0,15.0,5.169
-257.0,19.0,5.17
-263.0,22.0,5.171
-253.0,9.0,5.172
-228.0,-6.0,5.173
-153.0,-16.0,5.174
-42.0,-32.0,5.175
30.0,-50.0,5.176
26.0,-49.0,5.177
-20.0,-24.0,5.178
-31.0,1.0,5.179
10.0,8.0,5.18
60.0,-3.0,5.181
72.0,-9.0,5.182
62.0,-7.0,5.183
75.0,3.0,5.184
119.0,24.0,5.185
152.0,49.0,5.186
136.0,59.0,5.187
81.0,42.0,5.188
24.0,18.0,5.189
0.0,10.0,5.19
15.0,18.0,5.191
34.0,26.0,5.192
21.0,29.0,5.193
-26.0,24.0,5.194
-58.0,3.0,5.195
-2.0,-30.0,5.196
134.0,-60.0,5.197
254.0,-76.0,5.198
202.0,-70.0,5.199
-44.0,-49.0,5.2
-298.0,-18.0,5.201
-352.0,23.0,5.202
-209.0,55.0,5.203
-40.0,53.0,5.204
56.0,24.0,5.205
137.0,-7.0,5.206
247.0,-24.0,5.207
297.0,-33.0,5.208
212.0,-24.0,5.209
57.0,16.0,5.21
-64.0,77.0,5.211
-167.0,113.0,5.212
-313.0,100.0,5.213
-433.0,52.0,5.214
-388.0,-13.0,5.215
-180.0,-83.0,5.216
3.0,-136.0,5.217
30.0,-159.0,5.218
-66.0,-145.0,5.219
-125.0,-116.0,5.22
-39.0,-87.0,5.221
126.0,-45.0,5.222
219.0,10.0,5.223
164.0,59.0,5.224
33.0,92.0,5.225
-45.0,112.0,5.226
-26.0,118.0,5.227
42.0,93.0,5.228
106.0,41.0,5.229
155.0,-13.0,5.23
175.0,-46.0,5.231
138.0,-56.0,5.232
58.0,-52.0,5.233
7.0,-37.0,5.234
24.0,-17.0,5.235
62.0,-1.0,5.236
71.0,2.0,5.237
60.0,0.0,5.238
70.0,10.0,5.239
97.0,38.0,5.24
103.0,61.0,5.241
72.0,67.0,5.242
35.0,50.0,5.243
11.0,19.0,5.244
-13.0,-7.0,5.245
-38.0,-19.0,5.246
-52.0,-14.0,5.247
-50.0,-5.0,5.248
-49.0,-5.0,5.249
-57.0,-16.0,5.25
-62.0,-28.0,5.251
-57.0,-30.0,5.252
-51.0,-25.0,5.253
-50.0,-12.0,5.254
-39.0,7.0,5.255
-4.0,26.0,5.256
38.0,32.0,5.257
60.0,25.0,5.258
48.0,24.0,5.259
14.0,30.0,5.26
-14.0,26.0,5.261
-23.0,8.0,5.262
-21.0,-9.0,5.263
-19.0,-13.0,5.264
-15.0,-9.0,5.265
-14.0,-9.0,5.266
-16.0,-13.0,5.267
-23.0,-17.0,5.268
-26.0,-15.0,5.269
-24.0,-14.0,5.27
-27.0,-19.0,5.271
-38.0,-26.0,5.272
-47.0,-30.0,5.273
-48.0,-30.0,5.274
-41.0,-29.0,5.275
-28.0,-26.0,5.276
-5.0,-10.0,5.277
30.0,21.0,5.278
58.0,49.0,5.279
57.0,49.0,5.28
40.0,22.0,5.281
32.0,2.0,5.282
35.0,0.0,5.283
31.0,2.0,5.284
12.0,-3.0,5.285
-2.0,-9.0,5.286
-1.0,-6.0,5.287
1.0,-3.0,5.288
-8.0,-11.0,5.289
-20.0,-19.0,5.29
-18.0,-19.0,5.291
-10.0,-10.0,5.292
-4.0,-3.0,5.293
-2.0,5.0,5.294
2.0,14.0,5.295
4.0,14.0,5.296
1.0,2.0,5.297
-2.0,-10.0,5.298
2.0,-9.0,5.299
9.0,0.0,5.3
11.0,3.0,5.301
8.0,3.0,5.302
11.0,2.0,5.303
15.0,3.0,5.304
13.0,3.0,5.305
2.0,1.0,5.306
-6.0,-3.0,5.307
-8.0,-8.0,5.308
-6.0,-16.0,5.309
-10.0,-23.0,5.31
-19.0,-29.0,5.311
-22.0,-34.0,5.312
-20.0,-31.0,5.313
-14.0,-17.0,5.314
-7.0,1.0,5.315
4.0,16.0,5.316
17.0,22.0,5.317
17.0,13.0,5.318
12.0,7.0,5.319
15.0,17.0,5.32
30.0,36.0,5.321
37.0,40.0,5.322
21.0,17.0,5.323
3.0,-5.0,5.324
2.0,-1.0,5.325
11.0,15.0,5.326
3.0,10.0,5.327
-13.0,-9.0,5.328
-21.0,-18.0,5.329
-21.0,-15.0,5.33
-25.0,-19.0,5.331
-31.0,-28.0,5.332
-29.0,-28.0,5.333
-19.0,-13.0,5.334
-12.0,-5.0,5.335
-2.0,-6.0,5.336
21.0,3.0,5.337
58.0,26.0,5.338
96.0,50.0,5.339
122.0,49.0,5.34
148.0,21.0,5.341
179.0,-1.0,5.342
193.0,3.0,5.343
145.0,22.0,5.344
25.0,30.0,5.345
-107.0,19.0,5.346
-182.0,5.0,5.347
-190.0,-7.0,5.348
-179.0,-23.0,5.349
-172.0,-42.0,5.35
-150.0,-49.0,5.351
-112.0,-45.0,5.352
-86.0,-39.0,5.353
-81.0,-40.0,5.354
-66.0,-40.0,5.355
-18.0,-30.0,5.356
32.0,-10.0,5.357
55.0,7.0,5.358
58.0,15.0,5.359
58.0,8.0,5.36
58.0,-4.0,5.361
51.0,0.0,5.362
51.0,16.0,5.363
61.0,22.0,5.364
57.0,13.0,5.365
31.0,4.0,5.366
13.0,3.0,5.367
26.0,8.0,5.368
51.0,17.0,5.369
61.0,27.0,5.37
54.0,23.0,5.371
49.0,4.0,5.372
52.0,-8.0,5.373
69.0,-2.0,5.374
100.0,11.0,5.375
131.0,19.0,5.376
130.0,29.0,5.377
79.0,42.0,5.378
10.0,44.0,5.379
-47.0,22.0,5.38
-96.0,-7.0,5.381
-140.0,-20.0,5.382
-159.0,-24.0,5.383
-146.0,-30.0,5.384
-131.0,-37.0,5.385
-128.0,-38.0,5.386
-109.0,-37.0,5.387
-60.0,-34.0,5.388
-17.0,-19.0,5.389
-12.0,-2.0,5.39
-24.0,-4.0,5.391
-23.0,-22.0,5.392
-10.0,-30.0,5.393
32.0,-19.0,5.394
170.0,-4.0,5.395
417.0,14.0,5.396
611.0,40.0,5.397
535.0,61.0,5.398
153.0,63.0,5.399
-281.0,50.0,5.4
-477.0,44.0,5.401
-425.0,40.0,5.402
-329.0,18.0,5.403
-299.0,-20.0,5.404
-257.0,-50.0,5.405
-149.0,-58.0,5.406
-41.0,-53.0,5.407
7.0,-41.0,5.408
40.0,-27.0,5.409
98.0,-19.0,5.41
128.0,-18.0,5.411
86.0,-18.0,5.412
38.0,-12.0,5.413
99.0,-14.0,5.414
293.0,-16.0,5.415
507.0,0.0,5.416
552.0,33.0,5.417
296.0,57.0,5.418
-154.0,58.0,5.419
-488.0,59.0,5.42
-493.0,63.0,5.421
-289.0,47.0,5.422
-135.0,-10.0,5.423
-104.0,-78.0,5.424
-86.0,-111.0,5.425
-35.0,-102.0,5.426
-6.0,-77.0,5.427
0.0,-51.0,5.428
36.0,-22.0,5.429
83.0,7.0,5.43
85.0,20.0,5.431
63.0,10.0,5.432
83.0,3.0,5.433
132.0,19.0,5.434
153.0,46.0,5.435
147.0,56.0,5.436
141.0,42.0,5.437
121.0,16.0,5.438
70.0,8.0,5.439
25.0,19.0,5.44
23.0,22.0,5.441
28.0,10.0,5.442
1.0,0.0,5.443
-28.0,2.0,5.444
-28.0,4.0,5.445
-25.0,-6.0,5.446
-41.0,-20.0,5.447
-48.0,-23.0,5.448
-26.0,-12.0,5.449
2.0,10.0,5.45
18.0,42.0,5.451
31.0,63.0,5.452
35.0,49.0,5.453
6.0,10.0,5.454
-34.0,-5.0,5.455
-45.0,19.0,5.456
-31.0,41.0,5.457
-37.0,20.0,5.458
-62.0,-24.0,5.459
-63.0,-42.0,5.46
-39.0,-28.0,5.461
-26.0,-15.0,5.462
-28.0,-18.0,5.463
-13.0,-21.0,5.464
11.0,-12.0,5.465
7.0,-5.0,5.466
-16.0,-8.0,5.467
-19.0,-11.0,5.468
-3.0,-11.0,5.469
1.0,-12.0,5.47
-1.0,-14.0,5.471
20.0,-5.0,5.472
54.0,8.0,5.473
57.0,10.0,5.474
18.0,0.0,5.475
-27.0,-4.0,5.476
-48.0,4.0,5.477
-50.0,12.0,5.478
-40.0,14.0,5.479
-26.0,6.0,5.48
-13.0,-7.0,5.481
-8.0,-21.0,5.482
-6.0,-28.0,5.483
-2.0,-22.0,5.484
0.0,-15.0,5.485
-2.0,-13.0,5.486
-1.0,-10.0,5.487
10.0,2.0,5.488
22.0,17.0,5.489
23.0,17.0,5.49
16.0,1.0,5.491
13.0,-8.0,5.492
19.0,-4.0,5.493
24.0,2.0,5.494
23.0,0.0,5.495
27.0,-4.0,5.496
46.0,-1.0,5.497
79.0,0.0,5.498
100.0,-2.0,5.499
75.0,-5.0,5.5
8.0,-5.0,5.501
-55.0,-2.0,5.502
-74.0,-2.0,5.503
-62.0,0.0,5.504
-61.0,8.0,5.505
-70.0,14.0,5.506
-61.0,12.0,5.507
-29.0,6.0,5.508
-2.0,1.0,5.509
0.0,-2.0,5.51
-4.0,-10.0,5.511
2.0,-22.0,5.512
9.0,-27.0,5.513
1.0,-23.0,5.514
-7.0,-14.0,5.515
0.0,-7.0,5.516
16.0,-1.0,5.517
19.0,0.0,5.518
12.0,0.0,5.519
2.0,-1.0,5.52
4.0,-3.0,5.521
11.0,-2.0,5.522
16.0,0.0,5.523
20.0,2.0,5.524
24.0,7.0,5.525
24.0,12.0,5.526
23.0,15.0,5.527
26.0,15.0,5.528
32.0,10.0,5.529
32.0,3.0,5.53
25.0,-3.0,5.531
17.0,-5.0,5.532
10.0,-4.0,5.533
4.0,-2.0,5.534
-1.0,2.0,5.535
-3.0,5.0,5.536
-1.0,2.0,5.537
-4.0,-9.0,5.538
-6.0,-17.0,5.539
-9.0,-14.0,5.54
-13.0,-10.0,5.541
-13.0,-9.0,5.542
-5.0,-12.0,5.543
8.0,-15.0,5.544
14.0,-14.0,5.545
10.0,-8.0,5.546
9.0,2.0,5.547
18.0,8.0,5.548
19.0,2.0,5.549
2.0,-19.0,5.55
-19.0,-62.0,5.551
-30.0,-125.0,5.552
-29.0,-179.0,5.553
-20.0,-169.0,5.554
-10.0,-64.0,5.555
-10.0,95.0,5.556
-20.0,226.0,5.557
-24.0,301.0,5.558
-2.0,325.0,5.559
32.0,300.0,5.56
46.0,214.0,5.561
34.0,93.0,5.562
23.0,-6.0,5.563
31.0,-53.0,5.564
37.0,-70.0,5.565
27.0,-80.0,5.566
11.0,-82.0,5.567
9.0,-71.0,5.568
18.0,-57.0,5.569
25.0,-54.0,5.57
25.0,-56.0,5.571
14.0,-52.0,5.572
-8.0,-44.0,5.573
-34.0,-40.0,5.574
-48.0,-40.0,5.575
-52.0,-38.0,5.576
-49.0,-36.0,5.577
-44.0,-42.0,5.578
-30.0,-48.0,5.579
-17.0,-49.0,5.58
-20.0,-46.0,5.581
-33.0,-36.0,5.582
-26.0,-23.0,5.583
0.0,-11.0,5.584
18.0,-3.0,5.585
12.0,0.0,5.586
4.0,0.0,5.587
10.0,0.0,5.588
16.0,1.0,5.589
10.0,3.0,5.59
5.0,6.0,5.591
11.0,8.0,5.592
17.0,7.0,5.593
14.0,-1.0,5.594
8.0,-13.0,5.595
6.0,-33.0,5.596
6.0,-50.0,5.597
4.0,-68.0,5.598
7.0,-77.0,5.599
10.0,-72.0,5.6
8.0,-57.0,5.601
1.0,-32.0,5.602
1.0,-3.0,5.603
8.0,29.0,5.604
7.0,63.0,5.605
-1.0,92.0,5.606
-4.0,103.0,5.607
6.0,97.0,5.608
27.0,85.0,5.609
56.0,74.0,5.61
86.0,70.0,5.611
97.0,73.0,5.612
73.0,83.0,5.613
28.0,94.0,5.614
-8.0,89.0,5.615
-23.0,64.0,5.616
-29.0,28.0,5.617
-41.0,-13.0,5.618
-39.0,-44.0,5.619
-18.0,-58.0,5.62
4.0,-54.0,5.621
-10.0,-36.0,5.622
-63.0,-17.0,5.623
-105.0,-6.0,5.624
-90.0,-4.0,5.625
-37.0,-9.0,5.626
-1.0,-22.0,5.627
0.0,-32.0,5.628
-4.0,-34.0,5.629
1.0,-35.0,5.63
-4.0,-43.0,5.631
-20.0,-45.0,5.632
-21.0,-34.0,5.633
1.0,-18.0,5.634
18.0,-14.0,5.635
13.0,-21.0,5.636
14.0,-22.0,5.637
27.0,-18.0,5.638
34.0,-15.0,5.639
22.0,-17.0,5.64
16.0,-16.0,5.641
24.0,-8.0,5.642
33.0,2.0,5.643
29.0,8.0,5.644
22.0,9.0,5.645
23.0,11.0,5.646
26.0,8.0,5.647
21.0,4.0,5.648
17.0,2.0,5.649
18.0,4.0,5.65
18.0,6.0,5.651
13.0,4.0,5.652
10.0,2.0,5.653
9.0,1.0,5.654
4.0,0.0,5.655
-2.0,-2.0,5.656
-4.0,0.0,5.657
-3.0,-1.0,5.658
-3.0,-1.0,5.659
-5.0,-4.0,5.66
-7.0,-9.0,5.661
-6.0,-9.0,5.662
-3.0,-5.0,5.663
0.0,1.0,5.664
0.0,4.0,5.665
-7.0,0.0,5.666
-18.0,-8.0,5.667
-19.0,-9.0,5.668
-8.0,-2.0,5.669
0.0,-6.0,5.67
-7.0,-35.0,5.671
-23.0,-77.0,5.672
-28.0,-98.0,5.673
-16.0,-86.0,5.674
7.0,-69.0,5.675
31.0,-63.0,5.676
45.0,-59.0,5.677
44.0,-51.0,5.678
33.0,-53.0,5.679
23.0,-95.0,5.68
17.0,-159.0,5.681
11.0,-176.0,5.682
4.0,-85.0,5.683
-1.0,105.0,5.684
0.0,321.0,5.685
11.0,472.0,5.686
39.0,507.0,5.687
80.0,405.0,5.688
110.0,193.0,5.689
102.0,-50.0,5.69
68.0,-220.0,5.691
29.0,-272.0,5.692
-13.0,-265.0,5.693
-72.0,-262.0,5.694
-139.0,-247.0,5.695
-185.0,-171.0,5.696
-192.0,-74.0,5.697
-173.0,-36.0,5.698
-142.0,-75.0,5.699
-105.0,-119.0,5.7
-68.0,-100.0,5.701
-37.0,1.0,5.702
-1.0,186.0,5.703
53.0,440.0,5.704
151.0,689.0,5.705
293.0,814.0,5.706
417.0,765.0,5.707
396.0,589.0,5.708
193.0,370.0,5.709
-54.0,161.0,5.71
-164.0,-12.0,5.711
-138.0,-135.0,5.712
-122.0,-212.0,5.713
-171.0,-262.0,5.714
-187.0,-288.0,5.715
-117.0,-288.0,5.716
-51.0,-275.0,5.717
-65.0,-257.0,5.718
-106.0,-234.0,5.719
-125.0,-217.0,5.72
-76.0,-220.0,5.721
-30.0,-222.0,5.722
3.0,-218.0,5.723
34.0,-207.0,5.724
50.0,-175.0,5.725
60.0,-145.0,5.726
54.0,-120.0,5.727
50.0,-93.0,5.728
56.0,-62.0,5.729
62.0,-37.0,5.73
62.0,-31.0,5.731
61.0,-25.0,5.732
55.0,-15.0,5.733
50.0,-6.0,5.734
47.0,3.0,5.735
42.0,11.0,5.736
36.0,11.0,5.737
30.0,11.0,5.738
26.0,19.0,5.739
26.0,23.0,5.74
18.0,15.0,5.741
4.0,8.0,5.742
1.0,11.0,5.743
5.0,20.0,5.744
-1.0,23.0,5.745
-20.0,21.0,5.746
-32.0,20.0,5.747
-25.0,28.0,5.748
-11.0,40.0,5.749
6.0,53.0,5.75
20.0,54.0,5.751
30.0,40.0,5.752
38.0,24.0,5.753
42.0,21.0,5.754
39.0,39.0,5.755
21.0,58.0,5.756
-7.0,62.0,5.757
-28.0,44.0,5.758
-34.0,25.0,5.759
-39.0,18.0,5.76
-49.0,16.0,5.761
-48.0,8.0,5.762
-21.0,-5.0,5.763
8.0,-10.0,5.764
4.0,-5.0,5.765
-21.0,0.0,5.766
-25.0,2.0,5.767
-5.0,1.0,5.768
10.0,4.0,5.769
4.0,6.0,5.77
7.0,5.0,5.771
33.0,3.0,5.772
55.0,2.0,5.773
43.0,2.0,5.774
11.0,0.0,5.775
-8.0,-2.0,5.776
-6.0,-2.0,5.777
0.0,-1.0,5.778
-6.0,-1.0,5.779
-28.0,0.0,5.78
-50.0,-1.0,5.781
-58.0,-3.0,5.782
-45.0,-5.0,5.783
-27.0,-5.0,5.784
-18.0,-4.0,5.785
-13.0,0.0,5.786
-7.0,3.0,5.787
-4.0,5.0,5.788
-7.0,6.0,5.789
-8.0,4.0,5.79
-1.0,0.0,5.791
7.0,-3.0,5.792
9.0,-3.0,5.793
9.0,-4.0,5.794
15.0,-8.0,5.795
22.0,-11.0,5.796
18.0,-9.0,5.797
3.0,-6.0,5.798
-3.0,-4.0,5.799
-9.0,-5.0,5.8
-7.0,-16.0,5.801
-5.0,-24.0,5.802
-1.0,-20.0,5.803
5.0,-13.0,5.804
13.0,1.0,5.805
20.0,15.0,5.806
25.0,25.0,5.807
32.0,36.0,5.808
45.0,50.0,5.809
57.0,59.0,5.81
67.0,45.0,5.811
68.0,30.0,5.812
42.0,11.0,5.813
22.0,-4.0,5.814
19.0,-8.0,5.815
15.0,-11.0,5.816
11.0,-10.0,5.817
2.0,-10.0,5.818
-17.0,-16.0,5.819
-18.0,-16.0,5.82
-13.0,-13.0,5.821
-22.0,-11.0,5.822
-28.0,-13.0,5.823
-21.0,-13.0,5.824
-12.0,-12.0,5.825
-18.0,-14.0,5.826
-31.0,-17.0,5.827
-31.0,-19.0,5.828
-20.0,-17.0,5.829
-14.0,-15.0,5.83
-10.0,-12.0,5.831
0.0,-4.0,5.832
13.0,7.0,5.833
17.0,13.0,5.834
14.0,12.0,5.835
9.0,3.0,5.836
6.0,-3.0,5.837
0.0,-6.0,5.838
-1.0,-4.0,5.839
-3.0,1.0,5.84
-1.0,0.0,5.841
3.0,-1.0,5.842
20.0,-1.0,5.843
41.0,0.0,5.844
49.0,3.0,5.845
26.0,2.0,5.846
-11.0,0.0,5.847
-34.0,-2.0,5.848
-34.0,-3.0,5.849
-27.0,-4.0,5.85
-29.0,-6.0,5.851
-32.0,-8.0,5.852
-24.0,-5.0,5.853
-7.0,-2.0,5.854
11.0,-1.0,5.855
42.0,-4.0,5.856
110.0,-3.0,5.857
222.0,0.0,5.858
333.0,4.0,5.859
390.0,7.0,5.86
362.0,10.0,5.861
229.0,19.0,5.862
15.0,27.0,5.863
-211.0,30.0,5.864
-374.0,31.0,5.865
-461.0,24.0,5.866
-501.0,4.0,5.867
-492.0,-25.0,5.868
-403.0,-49.0,5.869
-273.0,-62.0,5.87
-178.0,-70.0,5.871
-128.0,-75.0,5.872
-62.0,-69.0,5.873
37.0,-49.0,5.874
107.0,-29.0,5.875
105.0,-15.0,5.876
68.0,-7.0,5.877
43.0,0.0,5.878
51.0,11.0,5.879
82.0,27.0,5.88
121.0,33.0,5.881
158.0,24.0,5.882
182.0,-8.0,5.883
188.0,-42.0,5.884
166.0,-50.0,5.885
117.0,-24.0,5.886
65.0,3.0,5.887
53.0,15.0,5.888
76.0,22.0,5.889
90.0,51.0,5.89
68.0,90.0,5.891
41.0,117.0,5.892
39.0,120.0,5.893
47.0,106.0,5.894
42.0,78.0,5.895
32.0,32.0,5.896
35.0,-25.0,5.897
41.0,-92.0,5.898
35.0,-150.0,5.899
18.0,-166.0,5.9
4.0,-119.0,5.901
-5.0,-20.0,5.902
-8.0,81.0,5.903
-4.0,137.0,5.904
0.0,156.0,5.905
-5.0,146.0,5.906
-21.0,93.0,5.907
-34.0,-16.0,5.908
-35.0,-159.0,5.909
-27.0,-291.0,5.91
-12.0,-378.0,5.911
4.0,-410.0,5.912
16.0,-388.0,5.913
22.0,-322.0,5.914
27.0,-230.0,5.915
45.0,-121.0,5.916
93.0,-8.0,5.917
174.0,87.0,5.918
211.0,131.0,5.919
93.0,125.0,5.92
-161.0,129.0,5.921
-368.0,212.0,5.922
-373.0,383.0,5.923
-252.0,587.0,5.924
-191.0,751.0,5.925
-218.0,820.0,5.926
-202.0,766.0,5.927
-92.0,606.0,5.928
14.0,391.0,5.929
50.0,186.0,5.93
61.0,22.0,5.931
93.0,-117.0,5.932
120.0,-253.0,5.933
117.0,-368.0,5.934
105.0,-416.0,5.935
92.0,-383.0,5.936
71.0,-297.0,5.937
56.0,-196.0,5.938
73.0,-121.0,5.939
93.0,-99.0,5.94
66.0,-124.0,5.941
12.0,-165.0,5.942
-9.0,-194.0,5.943
11.0,-203.0,5.944
17.0,-191.0,5.945
0.0,-170.0,5.946
-4.0,-154.0,5.947
11.0,-145.0,5.948
17.0,-131.0,5.949
6.0,-99.0,5.95
1.0,-60.0,5.951
9.0,-29.0,5.952
9.0,-9.0,5.953
1.0,6.0,5.954
0.0,10.0,5.955
2.0,5.0,5.956
2.0,-3.0,5.957
-4.0,-8.0,5.958
-5.0,-9.0,5.959
-7.0,-9.0,5.96
-14.0,-8.0,5.961
-16.0,-3.0,5.962
-9.0,0.0,5.963
-3.0,-1.0,5.964
-4.0,2.0,5.965
-7.0,16.0,5.966
-3.0,33.0,5.967
6.0,43.0,5.968
11.0,42.0,5.969
7.0,32.0,5.97
-2.0,17.0,5.971
-13.0,8.0,5.972
-19.0,8.0,5.973
-17.0,12.0,5.974
-8.0,12.0,5.975
-6.0,11.0,5.976
-8.0,22.0,5.977
0.0,48.0,5.978
29.0,73.0,5.979
52.0,72.0,5.98
42.0,35.0,5.981
4.0,-2.0,5.982
-22.0,-12.0,5.983
-21.0,-1.0,5.984
-15.0,5.0,5.985
-26.0,-5.0,5.986
-41.0,-11.0,5.987
-41.0,-4.0,5.988
-23.0,12.0,5.989
1.0,24.0,5.99
28.0,31.0,5.991
46.0,25.0,5.992
40.0,5.0,5.993
10.0,-9.0,5.994
-13.0,-3.0,5.995
-6.0,13.0,5.996
21.0,24.0,5.997
42.0,29.0,5.998
48.0,42.0,5.999
42.0,52.0,6.0
22.0,30.0,6.001
-5.0,-7.0,6.002
-17.0,-23.0,6.003
-11.0,-13.0,6.004
-10.0,-7.0,6.005
-27.0,-20.0,6.006
-45.0,-32.0,6.007
-42.0,-30.0,6.008
-24.0,-22.0,6.009
0.0,-15.0,6.01
31.0,-2.0,6.011
78.0,16.0,6.012
128.0,24.0,6.013
159.0,12.0,6.014
149.0,-4.0,6.015
90.0,-7.0,6.016
8.0,0.0,6.017
-70.0,9.0,6.018
-113.0,14.0,6.019
-132.0,12.0,6.02
-157.0,2.0,6.021
-174.0,-5.0,6.022
-148.0,-8.0,6.023
-73.0,-9.0,6.024
20.0,-16.0,6.025
107.0,-25.0,6.026
160.0,-20.0,6.027
144.0,-5.0,6.028
51.0,16.0,6.029
-68.0,27.0,6.03
-146.0,22.0,6.031
-167.0,4.0,6.032
-165.0,-13.0,6.033
-157.0,-18.0,6.034
-116.0,-20.0,6.035
-40.0,-26.0,6.036
26.0,-27.0,6.037
51.0,-15.0,6.038
57.0,6.0,6.039
83.0,19.0,6.04
127.0,14.0,6.041
145.0,5.0,6.042
116.0,-1.0,6.043
88.0,-2.0,6.044
114.0,0.0,6.045
196.0,8.0,6.046
262.0,8.0,6.047
221.0,2.0,6.048
56.0,3.0,6.049
-130.0,13.0,6.05
-204.0,21.0,6.051
-137.0,18.0,6.052
-36.0,13.0,6.053
7.0,9.0,6.054
11.0,-1.0,6.055
36.0,-19.0,6.056
76.0,-33.0,6.057
72.0,-36.0,6.058
0.0,-32.0,6.059
-91.0,-23.0,6.06
-133.0,-6.0,6.061
-117.0,15.0,6.062
-113.0,22.0,6.063
-164.0,8.0,6.064
-214.0,-7.0,6.065
-172.0,-10.0,6.066
-55.0,-11.0,6.067
22.0,-14.0,6.068
12.0,-10.0,6.069
-6.0,6.0,6.07
35.0,17.0,6.071
96.0,9.0,6.072
101.0,-8.0,6.073
55.0,-10.0,6.074
16.0,2.0,6.075
20.0,12.0,6.076
49.0,9.0,6.077
74.0,-3.0,6.078
80.0,-17.0,6.079
66.0,-25.0,6.08
49.0,-23.0,6.081
49.0,-9.0,6.082
62.0,-1.0,6.083
66.0,-3.0,6.084
51.0,-6.0,6.085
30.0,-1.0,6.086
10.0,7.0,6.087
-15.0,7.0,6.088
-43.0,5.0,6.089
-46.0,8.0,6.09
-16.0,9.0,6.091
17.0,5.0,6.092
19.0,5.0,6.093
0.0,15.0,6.094
-14.0,26.0,6.095
-9.0,23.0,6.096
2.0,14.0,6.097
6.0,4.0,6.098
0.0,1.0,6.099
-10.0,-2.0,6.1
-19.0,-9.0,6.101
-20.0,-13.0,6.102
-10.0,-15.0,6.103
7.0,-10.0,6.104
23.0,6.0,6.105
30.0,25.0,6.106
29.0,25.0,6.107
21.0,6.0,6.108
16.0,-5.0,6.109
16.0,0.0,6.11
16.0,5.0,6.111
7.0,-3.0,6.112
-9.0,-13.0,6.113
-21.0,-11.0,6.114
-26.0,-11.0,6.115
-27.0,-29.0,6.116
-28.0,-57.0,6.117
-27.0,-82.0,6.118
-24.0,-93.0,6.119
-23.0,-94.0,6.12
-20.0,-94.0,6.121
-7.0,-84.0,6.122
11.0,-65.0,6.123
25.0,-33.0,6.124
34.0,-1.0,6.125
36.0,10.0,6.126
31.0,-12.0,6.127
22.0,-43.0,6.128
12.0,-31.0,6.129
2.0,51.0,6.13
-4.0,173.0,6.131
-9.0,278.0,6.132
-9.0,335.0,6.133
-3.0,340.0,6.134
2.0,291.0,6.135
7.0,198.0,6.136
12.0,95.0,6.137
16.0,6.0,6.138
14.0,-48.0,6.139
2.0,-87.0,6.14
-8.0,-120.0,6.141
-15.0,-131.0,6.142
-13.0,-118.0,6.143
-9.0,-104.0,6.144
-10.0,-102.0,6.145
-16.0,-94.0,6.146
-11.0,-68.0,6.147
7.0,-41.0,6.148
24.0,-36.0,6.149
20.0,-45.0,6.15
3.0,-48.0,6.151
-3.0,-41.0,6.152
3.0,-38.0,6.153
8.0,-43.0,6.154
3.0,-45.0,6.155
-4.0,-39.0,6.156
-8.0,-28.0,6.157
-6.0,-17.0,6.158
11.0,-4.0,6.159
38.0,5.0,6.16
44.0,0.0,6.161
18.0,-12.0,6.162
-17.0,-23.0,6.163
-26.0,-21.0,6.164
-17.0,-9.0,6.165
-3.0,2.0,6.166
29.0,5.0,6.167
77.0,7.0,6.168
92.0,19.0,6.169
26.0,35.0,6.17
-84.0,37.0,6.171
-147.0,19.0,6.172
-141.0,-3.0,6.173
-122.0,-7.0,6.174
-128.0,4.0,6.175
-114.0,12.0,6.176
-47.0,14.0,6.177
51.0,9.0,6.178
112.0,-4.0,6.179
103.0,-23.0,6.18
63.0,-32.0,6.181
50.0,-16.0,6.182
83.0,5.0,6.183
152.0,12.0,6.184
232.0,12.0,6.185
280.0,23.0,6.186
226.0,34.0,6.187
47.0,27.0,6.188
-147.0,11.0,6.189
-221.0,7.0,6.19
-185.0,12.0,6.191
-173.0,5.0,6.192
-236.0,-11.0,6.193
-265.0,-20.0,6.194
-172.0,-19.0,6.195
-28.0,-15.0,6.196
52.0,-12.0,6.197
69.0,-7.0,6.198
88.0,-4.0,6.199
128.0,-3.0,6.2
167.0,-4.0,6.201
179.0,0.0,6.202
139.0,4.0,6.203
39.0,4.0,6.204
-70.0,0.0,6.205
-117.0,-11.0,6.206
-106.0,-23.0,6.207
-97.0,-22.0,6.208
-98.0,-1.0,6.209
-69.0,26.0,6.21
-26.0,35.0,6.211
-18.0,32.0,6.212
-24.0,30.0,6.213
10.0,29.0,6.214
65.0,16.0,6.215
71.0,0.0,6.216
55.0,-7.0,6.217
89.0,-12.0,6.218
158.0,-25.0,6.219
158.0,-37.0,6.22
73.0,-36.0,6.221
10.0,-17.0,6.222
33.0,-1.0,6.223
71.0,3.0,6.224
47.0,6.0,6.225
-20.0,13.0,6.226
-65.0,18.0,6.227
-74.0,21.0,6.228
-76.0,25.0,6.229
-88.0,28.0,6.23
-85.0,30.0,6.231
-40.0,25.0,6.232
39.0,8.0,6.233
96.0,-22.0,6.234
70.0,-57.0,6.235
-20.0,-71.0,6.236
-84.0,-53.0,6.237
-68.0,-22.0,6.238
-13.0,-3.0,6.239
3.0,-1.0,6.24
-16.0,-5.0,6.241
-10.0,-4.0,6.242
31.0,3.0,6.243
54.0,15.0,6.244
39.0,25.0,6.245
25.0,22.0,6.246
54.0,10.0,6.247
136.0,4.0,6.248
275.0,13.0,6.249
420.0,29.0,6.25
441.0,33.0,6.251
243.0,28.0,6.252
-94.0,26.0,6.253
-365.0,27.0,6.254
-464.0,26.0,6.255
-451.0,14.0,6.256
-404.0,-3.0,6.257
-305.0,-24.0,6.258
-145.0,-40.0,6.259
-2.0,-42.0,6.26
34.0,-35.0,6.261
-21.0,-25.0,6.262
-80.0,-19.0,6.263
-93.0,-12.0,6.264
-72.0,-2.0,6.265
-29.0,6.0,6.266
42.0,3.0,6.267
137.0,-5.0,6.268
208.0,-8.0,6.269
218.0,-4.0,6.27
168.0,1.0,6.271
101.0,-2.0,6.272
51.0,-8.0,6.273
43.0,-8.0,6.274
107.0,-2.0,6.275
246.0,3.0,6.276
380.0,5.0,6.277
401.0,3.0,6.278
239.0,9.0,6.279
-83.0,19.0,6.28
-391.0,22.0,6.281
-543.0,19.0,6.282
-524.0,12.0,6.283
-408.0,3.0,6.284
-263.0,-11.0,6.285
-118.0,-31.0,6.286
19.0,-51.0,6.287
137.0,-58.0,6.288
217.0,-44.0,6.289
239.0,-23.0,6.29
204.0,-10.0,6.291
154.0,-4.0,6.292
128.0,9.0,6.293
124.0,25.0,6.294
108.0,28.0,6.295
72.0,15.0,6.296
37.0,4.0,6.297
-5.0,-4.0,6.298
-60.0,-9.0,6.299
-111.0,-12.0,6.3
-108.0,-13.0,6.301
-54.0,-5.0,6.302
-12.0,3.0,6.303
-16.0,9.0,6.304
-31.0,15.0,6.305
-18.0,18.0,6.306
11.0,16.0,6.307
30.0,11.0,6.308
39.0,11.0,6.309
48.0,15.0,6.31
49.0,17.0,6.311
38.0,14.0,6.312
23.0,13.0,6.313
9.0,12.0,6.314
-5.0,10.0,6.315
-16.0,7.0,6.316
-13.0,6.0,6.317
-2.0,4.0,6.318
1.0,-1.0,6.319
-7.0,-5.0,6.32
-10.0,-8.0,6.321
0.0,-7.0,6.322
12.0,-6.0,6.323
13.0,-6.0,6.324
12.0,1.0,6.325
21.0,8.0,6.326
41.0,8.0,6.327
52.0,4.0,6.328
44.0,2.0,6.329
18.0,5.0,6.33
-13.0,6.0,6.331
-44.0,3.0,6.332
-75.0,0.0,6.333
-96.0,-1.0,6.334
-87.0,-5.0,6.335
-46.0,-10.0,6.336
-6.0,-14.0,6.337
11.0,-18.0,6.338
11.0,-25.0,6.339
14.0,-30.0,6.34
26.0,-34.0,6.341
31.0,-28.0,6.342
19.0,-14.0,6.343
0.0,0.0,6.344
-11.0,12.0,6.345
-2.0,16.0,6.346
44.0,13.0,6.347
145.0,8.0,6.348
298.0,13.0,6.349
418.0,25.0,6.35
371.0,31.0,6.351
111.0,30.0,6.352
-228.0,29.0,6.353
-433.0,29.0,6.354
-441.0,25.0,6.355
-362.0,12.0,6.356
-294.0,-6.0,6.357
-203.0,-30.0,6.358
-63.0,-57.0,6.359
29.0,-78.0,6.36
-2.0,-86.0,6.361
-76.0,-73.0,6.362
-69.0,-45.0,6.363
0.0,-16.0,6.364
43.0,0.0,6.365
54.0,5.0,6.366
80.0,4.0,6.367
106.0,6.0,6.368
95.0,8.0,6.369
90.0,11.0,6.37
149.0,15.0,6.371
221.0,17.0,6.372
214.0,13.0,6.373
131.0,7.0,6.374
34.0,4.0,6.375
-63.0,9.0,6.376
-171.0,17.0,6.377
-238.0,19.0,6.378
-170.0,19.0,6.379
-17.0,15.0,6.38
57.0,2.0,6.381
18.0,-9.0,6.382
24.0,-14.0,6.383
163.0,-10.0,6.384
283.0,-3.0,6.385
210.0,2.0,6.386
24.0,11.0,6.387
-69.0,24.0,6.388
-37.0,31.0,6.389
-9.0,25.0,6.39
-38.0,13.0,6.391
-44.0,6.0,6.392
0.0,4.0,6.393
23.0,1.0,6.394
-7.0,-4.0,6.395
-34.0,-4.0,6.396
-20.0,-2.0,6.397
-3.0,-5.0,6.398
-10.0,-10.0,6.399
-21.0,-9.0,6.4
-9.0,-5.0,6.401
10.0,-3.0,6.402
24.0,-4.0,6.403
48.0,-5.0,6.404
98.0,1.0,6.405
174.0,8.0,6.406
253.0,13.0,6.407
256.0,16.0,6.408
98.0,22.0,6.409
-158.0,24.0,6.41
-328.0,16.0,6.411
-336.0,5.0,6.412
-305.0,-6.0,6.413
-325.0,-21.0,6.414
-299.0,-46.0,6.415
-140.0,-67.0,6.416
32.0,-60.0,6.417
97.0,-31.0,6.418
95.0,0.0,6.419
119.0,11.0,6.42
104.0,9.0,6.421
-33.0,13.0,6.422
-172.0,16.0,6.423
-140.0,5.0,6.424
-2.0,-14.0,6.425
51.0,-28.0,6.426
14.0,-36.0,6.427
26.0,-45.0,6.428
107.0,-51.0,6.429
139.0,-40.0,6.43
86.0,-22.0,6.431
35.0,-11.0,6.432
30.0,-5.0,6.433
32.0,6.0,6.434
31.0,18.0,6.435
66.0,20.0,6.436
134.0,17.0,6.437
206.0,21.0,6.438
260.0,31.0,6.439
265.0,36.0,6.44
168.0,31.0,6.441
-16.0,32.0,6.442
-158.0,44.0,6.443
-165.0,50.0,6.444
-124.0,39.0,6.445
-168.0,20.0,6.446
-242.0,6.0,6.447
-190.0,-1.0,6.448
-18.0,-9.0,6.449
112.0,-23.0,6.45
107.0,-34.0,6.451
45.0,-36.0,6.452
2.0,-29.0,6.453
-25.0,-20.0,6.454
-45.0,-13.0,6.455
-32.0,-7.0,6.456
1.0,1.0,6.457
7.0,8.0,6.458
-16.0,7.0,6.459
-31.0,3.0,6.46
-20.0,-1.0,6.461
7.0,1.0,6.462
81.0,8.0,6.463
134.0,14.0,6.464
117.0,20.0,6.465
93.0,26.0,6.466
48.0,28.0,6.467
-1.0,26.0,6.468
-64.0,20.0,6.469
-113.0,14.0,6.47
-118.0,9.0,6.471
-109.0,3.0,6.472
-57.0,-2.0,6.473
-16.0,-7.0,6.474
-8.0,-12.0,6.475
11.0,-17.0,6.476
65.0,-24.0,6.477
89.0,-33.0,6.478
9.0,-40.0,6.479
-20.0,-41.0,6.48
7.0,-37.0,6.481
0.0,-22.0,6.482
-68.0,-5.0,6.483
-126.0,8.0,6.484
-98.0,17.0,6.485
6.0,22.0,6.486
113.0,22.0,6.487
138.0,16.0,6.488
97.0,8.0,6.489
93.0,-2.0,6.49
151.0,-16.0,6.491
155.0,-28.0,6.492
39.0,-25.0,6.493
-75.0,-9.0,6.494
-65.0,2.0,6.495
-1.0,-3.0,6.496
-4.0,-10.0,6.497
-58.0,-10.0,6.498
-70.0,-2.0,6.499
-47.0,0.0,6.5
-63.0,-6.0,6.501
-110.0,-10.0,6.502
-129.0,-10.0,6.503
-121.0,-7.0,6.504
-110.0,-8.0,6.505
-70.0,-10.0,6.506
18.0,-7.0,6.507
113.0,1.0,6.508
179.0,10.0,6.509
224.0,19.0,6.51
238.0,21.0,6.511
181.0,16.0,6.512
82.0,10.0,6.513
35.0,7.0,6.514
63.0,6.0,6.515
98.0,6.0,6.516
117.0,8.0,6.517
167.0,11.0,6.518
224.0,18.0,6.519
220.0,23.0,6.52
34.0,17.0,6.521
-141.0,10.0,6.522
-283.0,-1.0,6.523
-395.0,-15.0,6.524
-417.0,-39.0,6.525
-410.0,-58.0,6.526
-312.0,-63.0,6.527
-224.0,-63.0,6.528
-164.0,-49.0,6.529
-95.0,-33.0,6.53
-1.0,-9.0,6.531
61.0,15.0,6.532
31.0,40.0,6.533
12.0,58.0,6.534
24.0,55.0,6.535
34.0,48.0,6.536
32.0,28.0,6.537
25.0,9.0,6.538
18.0,-1.0,6.539
47.0,-6.0,6.54
86.0,-6.0,6.541
118.0,7.0,6.542
138.0,26.0,6.543
142.0,33.0,6.544
134.0,31.0,6.545
132.0,26.0,6.546
127.0,28.0,6.547
92.0,27.0,6.548
35.0,25.0,6.549
-1.0,27.0,6.55
-4.0,32.0,6.551
-8.0,30.0,6.552
-27.0,21.0,6.553
-30.0,11.0,6.554
-4.0,3.0,6.555
16.0,-5.0,6.556
6.0,-11.0,6.557
-22.0,-5.0,6.558
-40.0,-13.0,6.559
-44.0,-19.0,6.56
-40.0,-22.0,6.561
-31.0,-22.0,6.562
-20.0,-16.0,6.563
-6.0,-11.0,6.564
12.0,-8.0,6.565
32.0,-4.0,6.566
44.0,3.0,6.567
39.0,8.0,6.568
35.0,11.0,6.569
45.0,14.0,6.57
62.0,16.0,6.571
69.0,19.0,6.572
80.0,21.0,6.573
97.0,23.0,6.574
66.0,24.0,6.575
-64.0,24.0,6.576
-220.0,19.0,6.577
-255.0,-28.0,6.578
-140.0,-56.0,6.579
-40.0,-79.0,6.58
17.0,-87.0,6.581
54.0,-88.0,6.582
28.0,-68.0,6.583
12.0,-49.0,6.584
26.0,-38.0,6.585
65.0,-24.0,6.586
175.0,1.0,6.587
254.0,23.0,6.588
238.0,33.0,6.589
187.0,43.0,6.59
37.0,53.0,6.591
-58.0,63.0,6.592
11.0,69.0,6.593
53.0,76.0,6.594
10.0,81.0,6.595
-60.0,81.0,6.596
-211.0,61.0,6.597
-328.0,38.0,6.598
-298.0,11.0,6.599
-240.0,-12.0,6.6
-208.0,-40.0,6.601
-177.0,-61.0,6.602
-121.0,-69.0,6.603
-49.0,-66.0,6.604
27.0,-53.0,6.605
101.0,-38.0,6.606
159.0,-27.0,6.607
173.0,-17.0,6.608
143.0,-4.0,6.609
98.0,14.0,6.61
63.0,32.0,6.611
39.0,44.0,6.612
12.0,56.0,6.613
-15.0,71.0,6.614
-29.0,82.0,6.615
-22.0,77.0,6.616
-5.0,55.0,6.617
8.0,18.0,6.618
14.0,-13.0,6.619
16.0,-30.0,6.62
13.0,-39.0,6.621
3.0,-40.0,6.622
6.0,-40.0,6.623
22.0,-41.0,6.624
34.0,-41.0,6.625
26.0,-40.0,6.626
17.0,-36.0,6.627
27.0,-30.0,6.628
42.0,-18.0,6.629
35.0,-1.0,6.63
14.0,18.0,6.631
0.0,33.0,6.632
-3.0,38.0,6.633
-7.0,34.0,6.634
-12.0,26.0,6.635
-12.0,23.0,6.636
-12.0,27.0,6.637
-17.0,21.0,6.638
-22.0,0.0,6.639
-25.0,-30.0,6.64
-27.0,-49.0,6.641
-26.0,-44.0,6.642
-12.0,-35.0,6.643
14.0,-36.0,6.644
38.0,-39.0,6.645
49.0,-31.0,6.646
45.0,-12.0,6.647
22.0,7.0,6.648
-16.0,31.0,6.649
-27.0,60.0,6.65
14.0,81.0,6.651
83.0,88.0,6.652
126.0,87.0,6.653
133.0,85.0,6.654
121.0,72.0,6.655
104.0,43.0,6.656
82.0,8.0,6.657
60.0,-23.0,6.658
17.0,-42.0,6.659
-93.0,-45.0,6.66
-243.0,-40.0,6.661
-320.0,-32.0,6.662
-268.0,-35.0,6.663
-177.0,-43.0,6.664
-142.0,-42.0,6.665
-121.0,-37.0,6.666
-28.0,-42.0,6.667
95.0,-55.0,6.668
134.0,-57.0,6.669
76.0,-41.0,6.67
16.0,-17.0,6.671
13.0,0.0,6.672
37.0,9.0,6.673
47.0,9.0,6.674
38.0,6.0,6.675
21.0,2.0,6.676
3.0,2.0,6.677
-12.0,0.0,6.678
-12.0,-6.0,6.679
-3.0,-12.0,6.68
14.0,-15.0,6.681
40.0,-12.0,6.682
63.0,-10.0,6.683
66.0,-10.0,6.684
50.0,-8.0,6.685
43.0,-5.0,6.686
50.0,-2.0,6.687
57.0,0.0,6.688
49.0,4.0,6.689
32.0,12.0,6.69
18.0,18.0,6.691
8.0,20.0,6.692
0.0,16.0,6.693
-2.0,5.0,6.694
-2.0,-10.0,6.695
2.0,-27.0,6.696
16.0,-43.0,6.697
34.0,-60.0,6.698
45.0,-67.0,6.699
35.0,-62.0,6.7
19.0,-52.0,6.701
17.0,-35.0,6.702
21.0,-15.0,6.703
9.0,11.0,6.704
-26.0,40.0,6.705
-64.0,67.0,6.706
-85.0,92.0,6.707
-87.0,117.0,6.708
-78.0,137.0,6.709
-56.0,142.0,6.71
-21.0,126.0,6.711
14.0,94.0,6.712
31.0,58.0,6.713
26.0,27.0,6.714
16.0,6.0,6.715
14.0,-7.0,6.716
17.0,-13.0,6.717
17.0,-22.0,6.718
13.0,-33.0,6.719
2.0,-47.0,6.72
-11.0,-58.0,6.721
-20.0,-60.0,6.722
-17.0,-52.0,6.723
-9.0,-43.0,6.724
-10.0,-34.0,6.725
-19.0,-23.0,6.726
-18.0,-14.0,6.727
-1.0,-9.0,6.728
25.0,-5.0,6.729
58.0,2.0,6.73
93.0,16.0,6.731
83.0,32.0,6.732
-17.0,42.0,6.733
-169.0,40.0,6.734
-258.0,27.0,6.735
-215.0,5.0,6.736
-95.0,-19.0,6.737
32.0,-51.0,6.738
134.0,-79.0,6.739
184.0,-84.0,6.74
148.0,-68.0,6.741
56.0,-51.0,6.742
39.0,-51.0,6.743
177.0,-58.0,6.744
350.0,-52.0,6.745
347.0,-33.0,6.746
124.0,-18.0,6.747
-138.0,-12.0,6.748
-261.0,-3.0,6.749
-256.0,11.0,6.75
-244.0,18.0,6.751
-259.0,8.0,6.752
-228.0,-7.0,6.753
-127.0,-11.0,6.754
-35.0,-10.0,6.755
-12.0,-14.0,6.756
-13.0,-16.0,6.757
32.0,-12.0,6.758
110.0,-5.0,6.759
142.0,0.0,6.76
102.0,0.0,6.761
39.0,2.0,6.762
-3.0,14.0,6.763
-23.0,26.0,6.764
-26.0,41.0,6.765
0.0,55.0,6.766
50.0,63.0,6.767
91.0,71.0,6.768
103.0,75.0,6.769
90.0,75.0,6.77
56.0,63.0,6.771
11.0,49.0,6.772
-12.0,32.0,6.773
10.0,17.0,6.774
47.0,9.0,6.775
55.0,1.0,6.776
39.0,-5.0,6.777
31.0,-11.0,6.778
37.0,-15.0,6.779
29.0,-20.0,6.78
2.0,-27.0,6.781
-18.0,-25.0,6.782
-19.0,-13.0,6.783
-15.0,2.0,6.784
-22.0,14.0,6.785
-34.0,25.0,6.786
-39.0,31.0,6.787
-34.0,30.0,6.788
-26.0,18.0,6.789
-16.0,-5.0,6.79
-10.0,-27.0,6.791
-10.0,-40.0,6.792
-7.0,-44.0,6.793
-3.0,-44.0,6.794
-1.0,-45.0,6.795
-4.0,-44.0,6.796
-4.0,-38.0,6.797
-1.0,-31.0,6.798
-3.0,-22.0,6.799
-14.0,-12.0,6.8
-25.0,-1.0,6.801
-29.0,16.0,6.802
-32.0,32.0,6.803
-38.0,36.0,6.804
-44.0,27.0,6.805
-42.0,7.0,6.806
-30.0,-10.0,6.807
-4.0,-21.0,6.808
33.0,-22.0,6.809
69.0,-19.0,6.81
84.0,-19.0,6.811
77.0,-25.0,6.812
55.0,-28.0,6.813
32.0,-25.0,6.814
17.0,-15.0,6.815
11.0,-3.0,6.816
4.0,13.0,6.817
-10.0,25.0,6.818
-22.0,30.0,6.819
-23.0,27.0,6.82
-18.0,18.0,6.821
-19.0,13.0,6.822
-20.0,9.0,6.823
-11.0,4.0,6.824
-2.0,2.0,6.825
-3.0,5.0,6.826
-7.0,7.0,6.827
2.0,2.0,6.828
23.0,-4.0,6.829
30.0,-5.0,6.83
23.0,-8.0,6.831
19.0,-14.0,6.832
27.0,-18.0,6.833
40.0,-14.0,6.834
58.0,-8.0,6.835
92.0,-11.0,6.836
150.0,-14.0,6.837
214.0,-9.0,6.838
245.0,5.0,6.839
215.0,18.0,6.84
0.0,25.0,6.841
-192.0,30.0,6.842
-312.0,26.0,6.843
-388.0,17.0,6.844
-334.0,-4.0,6.845
-281.0,-25.0,6.846
-234.0,-39.0,6.847
-171.0,-49.0,6.848
-58.0,-40.0,6.849
31.0,-32.0,6.85
47.0,-28.0,6.851
60.0,-26.0,6.852
64.0,-32.0,6.853
69.0,-34.0,6.854
75.0,-24.0,6.855
85.0,-16.0,6.856
104.0,-14.0,6.857
118.0,-11.0,6.858
118.0,-5.0,6.859
118.0,11.0,6.86
96.0,28.0,6.861
32.0,42.0,6.862
-34.0,49.0,6.863
-53.0,53.0,6.864
-24.0,62.0,6.865
12.0,74.0,6.866
48.0,77.0,6.867
94.0,65.0,6.868
126.0,46.0,6.869
101.0,28.0,6.87
30.0,11.0,6.871
-25.0,-8.0,6.872
-27.0,-29.0,6.873
4.0,-51.0,6.874
30.0,-74.0,6.875
36.0,-103.0,6.876
36.0,-130.0,6.877
42.0,-146.0,6.878
50.0,-142.0,6.879
45.0,-120.0,6.88
26.0,-92.0,6.881
3.0,-56.0,6.882
-14.0,-9.0,6.883
-31.0,48.0,6.884
-57.0,109.0,6.885
-83.0,166.0,6.886
-95.0,210.0,6.887
-91.0,230.0,6.888
-79.0,221.0,6.889
-45.0,188.0,6.89
41.0,140.0,6.891
170.0,90.0,6.892
243.0,48.0,6.893
158.0,22.0,6.894
-52.0,12.0,6.895
-212.0,13.0,6.896
-204.0,18.0,6.897
-94.0,13.0,6.898
-32.0,-10.0,6.899
-57.0,-51.0,6.9
-77.0,-100.0,6.901
-57.0,-135.0,6.902
-55.0,-146.0,6.903
-95.0,-140.0,6.904
-120.0,-125.0,6.905
-89.0,-108.0,6.906
-40.0,-89.0,6.907
-9.0,-70.0,6.908
22.0,-54.0,6.909
58.0,-39.0,6.91
68.0,-28.0,6.911
53.0,-20.0,6.912
51.0,-16.0,6.913
67.0,-13.0,6.914
72.0,-11.0,6.915
58.0,-8.0,6.916
54.0,-1.0,6.917
66.0,6.0,6.918
71.0,11.0,6.919
54.0,11.0,6.92
35.0,7.0,6.921
31.0,5.0,6.922
27.0,5.0,6.923
20.0,8.0,6.924
13.0,9.0,6.925
11.0,7.0,6.926
5.0,4.0,6.927
1.0,3.0,6.928
3.0,6.0,6.929
6.0,8.0,6.93
2.0,6.0,6.931
-2.0,5.0,6.932
2.0,8.0,6.933
10.0,9.0,6.934
16.0,4.0,6.935
19.0,-6.0,6.936
20.0,-8.0,6.937
16.0,-4.0,6.938
8.0,2.0,6.939
4.0,6.0,6.94
7.0,6.0,6.941
10.0,12.0,6.942
10.0,21.0,6.943
5.0,33.0,6.944
-4.0,46.0,6.945
-17.0,55.0,6.946
-23.0,58.0,6.947
-21.0,49.0,6.948
-13.0,32.0,6.949
-11.0,15.0,6.95
-13.0,4.0,6.951
-12.0,-2.0,6.952
-9.0,-6.0,6.953
-11.0,-9.0,6.954
-13.0,-14.0,6.955
-10.0,-16.0,6.956
-4.0,-14.0,6.957
-5.0,-14.0,6.958
-13.0,-17.0,6.959
-22.0,-18.0,6.96
-26.0,-20.0,6.961
-23.0,-20.0,6.962
-15.0,-17.0,6.963
-6.0,-7.0,6.964
-3.0,11.0,6.965
-1.0,26.0,6.966
5.0,30.0,6.967
21.0,26.0,6.968
31.0,21.0,6.969
26.0,19.0,6.97
14.0,20.0,6.971
13.0,20.0,6.972
17.0,17.0,6.973
15.0,8.0,6.974
4.0,-1.0,6.975
0.0,-7.0,6.976
5.0,-8.0,6.977
6.0,-13.0,6.978
2.0,-19.0,6.979
-2.0,-19.0,6.98
-6.0,-17.0,6.981
-8.0,-15.0,6.982
-5.0,-14.0,6.983
-3.0,-9.0,6.984
-5.0,-1.0,6.985
-6.0,0.0,6.986
3.0,-6.0,6.987
18.0,-9.0,6.988
53.0,-3.0,6.989
79.0,6.0,6.99
76.0,12.0,6.991
63.0,18.0,6.992
21.0,28.0,6.993
-20.0,35.0,6.994
-60.0,33.0,6.995
-89.0,19.0,6.996
-85.0,2.0,6.997
-79.0,-13.0,6.998
-70.0,-33.0,6.999
-65.0,-43.0,7.0
-59.0,-48.0,7.001
-60.0,-42.0,7.002
-65.0,-35.0,7.003
-65.0,-24.0,7.004
-45.0,-10.0,7.005
-14.0,-1.0,7.006
11.0,0.0,7.007
17.0,-4.0,7.008
12.0,-5.0,7.009
7.0,2.0,7.01
12.0,10.0,7.011
19.0,12.0,7.012
27.0,11.0,7.013
45.0,12.0,7.014
81.0,14.0,7.015
141.0,13.0,7.016
197.0,8.0,7.017
190.0,2.0,7.018
76.0,-2.0,7.019
-77.0,-4.0,7.02
-152.0,-6.0,7.021
-120.0,-4.0,7.022
-68.0,2.0,7.023
-62.0,8.0,7.024
-68.0,10.0,7.025
-30.0,13.0,7.026
24.0,15.0,7.027
37.0,17.0,7.028
18.0,24.0,7.029
14.0,34.0,7.03
21.0,38.0,7.031
16.0,31.0,7.032
2.0,17.0,7.033
0.0,10.0,7.034
4.0,10.0,7.035
-4.0,8.0,7.036
-11.0,4.0,7.037
1.0,0.0,7.038
19.0,-3.0,7.039
19.0,-9.0,7.04
11.0,-15.0,7.041
17.0,-11.0,7.042
30.0,-2.0,7.043
28.0,1.0,7.044
13.0,-1.0,7.045
4.0,-1.0,7.046
4.0,-1.0,7.047
2.0,-5.0,7.048
-1.0,-10.0,7.049
-2.0,-10.0,7.05
-3.0,-7.0,7.051
-9.0,-4.0,7.052
-13.0,-6.0,7.053
-7.0,-7.0,7.054
2.0,-5.0,7.055
12.0,-6.0,7.056
20.0,-5.0,7.057
25.0,-4.0,7.058
19.0,-4.0,7.059
-1.0,-2.0,7.06
-14.0,-1.0,7.061
6.0,4.0,7.062
47.0,1.0,7.063
61.0,-5.0,7.064
25.0,-11.0,7.065
-21.0,-14.0,7.066
-27.0,-18.0,7.067
10.0,-19.0,7.068
61.0,-15.0,7.069
109.0,-11.0,7.07
135.0,-12.0,7.071
93.0,-18.0,7.072
-27.0,-15.0,7.073
-146.0,-8.0,7.074
-182.0,-4.0,7.075
-156.0,-11.0,7.076
-133.0,-22.0,7.077
-123.0,-38.0,7.078
-92.0,-52.0,7.079
-48.0,-56.0,7.08
-31.0,-45.0,7.081
-35.0,-23.0,7.082
-22.0,-12.0,7.083
7.0,-12.0,7.084
26.0,-8.0,7.085
45.0,3.0,7.086
88.0,7.0,7.087
135.0,-1.0,7.088
159.0,-6.0,7.089
177.0,-2.0,7.09
195.0,0.0,7.091
154.0,-5.0,7.092
10.0,-9.0,7.093
-146.0,-8.0,7.094
-191.0,-7.0,7.095
-132.0,-10.0,7.096
-86.0,-5.0,7.097
-89.0,9.0,7.098
-78.0,27.0,7.099
-19.0,39.0,7.1
34.0,31.0,7.101
43.0,23.0,7.102
44.0,13.0,7.103
65.0,5.0,7.104
72.0,1.0,7.105
43.0,-5.0,7.106
19.0,-14.0,7.107
25.0,-21.0,7.108
35.0,-15.0,7.109
27.0,-11.0,7.11
24.0,-11.0,7.111
41.0,-12.0,7.112
55.0,-14.0,7.113
40.0,-15.0,7.114
14.0,-8.0,7.115
12.0,-1.0,7.116
49.0,6.0,7.117
115.0,14.0,7.118
166.0,15.0,7.119
143.0,7.0,7.12
60.0,0.0,7.121
1.0,0.0,7.122
24.0,1.0,7.123
70.0,-4.0,7.124
47.0,-13.0,7.125
-42.0,-24.0,7.126
-130.0,-28.0,7.127
-193.0,-25.0,7.128
-247.0,-20.0,7.129
-256.0,-20.0,7.13
-162.0,-28.0,7.131
0.0,-29.0,7.132
116.0,-16.0,7.133
114.0,-3.0,7.134
7.0,0.0,7.135
-135.0,-2.0,7.136
-227.0,8.0,7.137
-217.0,24.0,7.138
-109.0,30.0,7.139
-5.0,30.0,7.14
21.0,32.0,7.141
0.0,42.0,7.142
3.0,49.0,7.143
44.0,46.0,7.144
82.0,30.0,7.145
97.0,1.0,7.146
101.0,-33.0,7.147
100.0,-54.0,7.148
93.0,-50.0,7.149
95.0,-31.0,7.15
139.0,-16.0,7.151
223.0,-2.0,7.152
282.0,18.0,7.153
228.0,32.0,7.154
52.0,33.0,7.155
-139.0,31.0,7.156
-228.0,35.0,7.157
-188.0,35.0,7.158
-25.0,16.0,7.159
224.0,-17.0,7.16
436.0,-45.0,7.161
404.0,-51.0,7.162
82.0,-40.0,7.163
-275.0,-24.0,7.164
-392.0,-14.0,7.165
-313.0,-10.0,7.166
-269.0,-10.0,7.167
-294.0,-7.0,7.168
-245.0,-3.0,7.169
-109.0,3.0,7.17
-28.0,5.0,7.171
-28.0,7.0,7.172
-6.0,12.0,7.173
55.0,18.0,7.174
72.0,21.0,7.175
38.0,21.0,7.176
35.0,22.0,7.177
9.0,18.0,7.178
-14.0,12.0,7.179
-28.0,6.0,7.18
-14.0,0.0,7.181
-1.0,2.0,7.182
4.0,6.0,7.183
10.0,10.0,7.184
11.0,10.0,7.185
11.0,8.0,7.186
4.0,2.0,7.187
0.0,-4.0,7.188
-1.0,-8.0,7.189
-5.0,-10.0,7.19
-16.0,-9.0,7.191
-19.0,-10.0,7.192
3.0,-9.0,7.193
24.0,-7.0,7.194
37.0,-6.0,7.195
41.0,-4.0,7.196
12.0,2.0,7.197
11.0,10.0,7.198
-18.0,19.0,7.199
-36.0,25.0,7.2
-18.0,20.0,7.201
-3.0,15.0,7.202
5.0,11.0,7.203
12.0,6.0,7.204
13.0,0.0,7.205
13.0,-5.0,7.206
5.0,-3.0,7.207
-1.0,-1.0,7.208
-2.0,-4.0,7.209
-7.0,-7.0,7.21
-21.0,-9.0,7.211
-25.0,-12.0,7.212
4.0,-12.0,7.213
30.0,-11.0,7.214
46.0,-9.0,7.215
50.0,-5.0,7.216
15.0,4.0,7.217
-27.0,14.0,7.218
-81.0,19.0,7.219
-96.0,19.0,7.22
-71.0,12.0,7.221
-21.0,6.0,7.222
55.0,6.0,7.223
147.0,18.0,7.224
216.0,33.0,7.225
219.0,38.0,7.226
132.0,32.0,7.227
-38.0,15.0,7.228
-218.0,-6.0,7.229
-296.0,-35.0,7.23
-241.0,-64.0,7.231
-170.0,-72.0,7.232
-189.0,-53.0,7.233
-233.0,-30.0,7.234
-172.0,-21.0,7.235
-34.0,-23.0,7.236
45.0,-17.0,7.237
43.0,-4.0,7.238
51.0,0.0,7.239
99.0,-4.0,7.24
122.0,-6.0,7.241
97.0,2.0,7.242
93.0,12.0,7.243
130.0,13.0,7.244
146.0,15.0,7.245
115.0,19.0,7.246
89.0,20.0,7.247
81.0,16.0,7.248
51.0,13.0,7.249
-4.0,12.0,7.25
-30.0,9.0,7.251
-5.0,4.0,7.252
30.0,7.0,7.253
41.0,15.0,7.254
36.0,14.0,7.255
19.0,8.0,7.256
-12.0,6.0,7.257
-44.0,182.0,7.258
-44.0,160.0,7.259
-17.0,129.0,7.26
2.0,67.0,7.261
5.0,12.0,7.262
7.0,-23.0,7.263
9.0,-53.0,7.264
-6.0,-63.0,7.265
-27.0,-69.0,7.266
-35.0,-63.0,7.267
-26.0,-55.0,7.268
-17.0,-40.0,7.269
6.0,-25.0,7.27
51.0,-13.0,7.271
90.0,-2.0,7.272
82.0,7.0,7.273
39.0,12.0,7.274
7.0,10.0,7.275
-11.0,10.0,7.276
-31.0,17.0,7.277
-47.0,184.0,7.278
-35.0,162.0,7.279
-28.0,130.0,7.28
-41.0,68.0,7.281
-51.0,13.0,7.282
-49.0,-24.0,7.283
-27.0,-54.0,7.284
56.0,-64.0,7.285
111.0,-70.0,7.286
80.0,-64.0,7.287
16.0,-56.0,7.288
-141.0,-41.0,7.289
-218.0,-26.0,7.29
-46.0,-14.0,7.291
80.0,-3.0,7.292
68.0,6.0,7.293
34.0,13.0,7.294
-67.0,11.0,7.295
-135.0,11.0,7.296
-101.0,18.0,7.297
-65.0,24.0,7.298
-15.0,20.0,7.299
48.0,11.0,7.3
101.0,0.0,7.301
116.0,-6.0,7.302
85.0,-8.0,7.303
7.0,-17.0,7.304
-80.0,-32.0,7.305
-113.0,-39.0,7.306
-65.0,-34.0,7.307
18.0,-25.0,7.308
74.0,-26.0,7.309
78.0,-31.0,7.31
41.0,-24.0,7.311
-8.0,-8.0,7.312
-29.0,1.0,7.313
0.0,-2.0,7.314
45.0,-6.0,7.315
60.0,-4.0,7.316
54.0,1.0,7.317
60.0,7.0,7.318
79.0,14.0,7.319
71.0,26.0,7.32
48.0,28.0,7.321
44.0,24.0,7.322
46.0,17.0,7.323
14.0,17.0,7.324
-37.0,19.0,7.325
-55.0,16.0,7.326
-39.0,9.0,7.327
-35.0,1.0,7.328
-47.0,-6.0,7.329
-39.0,-6.0,7.33
-7.0,1.0,7.331
10.0,10.0,7.332
-3.0,12.0,7.333
-11.0,5.0,7.334
-2.0,-2.0,7.335
7.0,-3.0,7.336
11.0,-3.0,7.337
33.0,-10.0,7.338
83.0,-22.0,7.339
127.0,-30.0,7.34
127.0,-26.0,7.341
74.0,-13.0,7.342
-1.0,21.0,7.343
-56.0,48.0,7.344
-68.0,51.0,7.345
-65.0,47.0,7.346
-100.0,20.0,7.347
-172.0,-5.0,7.348
-207.0,-29.0,7.349
-155.0,-46.0,7.35
-59.0,-41.0,7.351
3.0,-37.0,7.352
20.0,-37.0,7.353
28.0,-35.0,7.354
57.0,-28.0,7.355
111.0,-20.0,7.356
173.0,-14.0,7.357
196.0,-12.0,7.358
134.0,-12.0,7.359
31.0,0.0,7.36
8.0,17.0,7.361
72.0,30.0,7.362
67.0,38.0,7.363
-81.0,46.0,7.364
-216.0,46.0,7.365
-185.0,32.0,7.366
-70.0,9.0,7.367
-42.0,-9.0,7.368
-77.0,-18.0,7.369
-52.0,-22.0,7.37
1.0,-17.0,7.371
-24.0,-6.0,7.372
-88.0,5.0,7.373
-59.0,7.0,7.374
36.0,2.0,7.375
69.0,-3.0,7.376
36.0,-6.0,7.377
40.0,-10.0,7.378
93.0,-17.0,7.379
95.0,-22.0,7.38
28.0,-23.0,7.381
-2.0,-15.0,7.382
40.0,-8.0,7.383
70.0,-3.0,7.384
39.0,2.0,7.385
13.0,11.0,7.386
36.0,16.0,7.387
68.0,15.0,7.388
72.0,13.0,7.389
71.0,19.0,7.39
81.0,25.0,7.391
83.0,28.0,7.392
79.0,30.0,7.393
96.0,35.0,7.394
129.0,38.0,7.395
129.0,24.0,7.396
75.0,-7.0,7.397
-20.0,-62.0,7.398
-112.0,-119.0,7.399
-176.0,-149.0,7.4
-209.0,-126.0,7.401
-223.0,-52.0,7.402
-226.0,32.0,7.403
-211.0,93.0,7.404
-161.0,117.0,7.405
-82.0,101.0,7.406
-15.0,50.0,7.407
23.0,-2.0,7.408
36.0,-18.0,7.409
