Deltoid,Bicep,Time
1.0,0.0,0.0
-1.0,-6.0,0.001
0.0,-5.0,0.002
10.0,0.0,0.003
18.0,4.0,0.004
12.0,4.0,0.005
1.0,3.0,0.006
2.0,1.0,0.007
10.0,0.0,0.008
12.0,0.0,0.009
6.0,1.0,0.01
-2.0,1.0,0.011
-7.0,-1.0,0.012
-13.0,-4.0,0.013
-15.0,-6.0,0.014
-12.0,-8.0,0.015
-12.0,-6.0,0.016
-13.0,0.0,0.017
-13.0,3.0,0.018
-2.0,4.0,0.019
12.0,0.0,0.02
20.0,-7.0,0.021
21.0,-7.0,0.022
25.0,-4.0,0.023
27.0,-1.0,0.024
21.0,2.0,0.025
11.0,7.0,0.026
9.0,8.0,0.027
13.0,1.0,0.028
4.0,-6.0,0.029
-11.0,-7.0,0.03
-16.0,-3.0,0.031
-7.0,-2.0,0.032
-1.0,-4.0,0.033
-3.0,-2.0,0.034
-3.0,0.0,0.035
3.0,-1.0,0.036
9.0,-3.0,0.037
8.0,-3.0,0.038
2.0,1.0,0.039
-3.0,1.0,0.04
-8.0,-5.0,0.041
-9.0,-5.0,0.042
-2.0,-2.0,0.043
12.0,2.0,0.044
20.0,3.0,0.045
18.0,7.0,0.046
16.0,8.0,0.047
14.0,5.0,0.048
7.0,-3.0,0.049
0.0,-6.0,0.05
-2.0,-3.0,0.051
0.0,0.0,0.052
-1.0,0.0,0.053
-8.0,-2.0,0.054
-8.0,-5.0,0.055
-3.0,-7.0,0.056
-2.0,-6.0,0.057
-6.0,-5.0,0.058
-9.0,-2.0,0.059
-7.0,-1.0,0.06
-5.0,-5.0,0.061
-2.0,-7.0,0.062
6.0,-3.0,0.063
17.0,3.0,0.064
18.0,11.0,0.065
13.0,15.0,0.066
10.0,7.0,0.067
12.0,0.0,0.068
10.0,-2.0,0.069
1.0,-5.0,0.07
-1.0,-3.0,0.071
0.0,-2.0,0.072
-1.0,0.0,0.073
-7.0,1.0,0.074
-8.0,1.0,0.075
-1.0,0.0,0.076
10.0,-3.0,0.077
9.0,-5.0,0.078
3.0,-2.0,0.079
-3.0,-2.0,0.08
-4.0,-5.0,0.081
-2.0,-7.0,0.082
6.0,-4.0,0.083
15.0,0.0,0.084
16.0,4.0,0.085
11.0,5.0,0.086
2.0,4.0,0.087
-1.0,2.0,0.088
-3.0,2.0,0.089
-4.0,1.0,0.09
-3.0,-1.0,0.091
-2.0,-6.0,0.092
2.0,-10.0,0.093
5.0,-11.0,0.094
6.0,-8.0,0.095
6.0,-5.0,0.096
5.0,-2.0,0.097
2.0,0.0,0.098
-3.0,3.0,0.099
-7.0,5.0,0.1
-4.0,3.0,0.101
4.0,3.0,0.102
12.0,5.0,0.103
13.0,9.0,0.104
5.0,8.0,0.105
-5.0,3.0,0.106
-11.0,-1.0,0.107
-7.0,-2.0,0.108
2.0,0.0,0.109
9.0,0.0,0.11
9.0,-1.0,0.111
6.0,-3.0,0.112
2.0,-5.0,0.113
1.0,-6.0,0.114
1.0,-4.0,0.115
1.0,0.0,0.116
0.0,2.0,0.117
-2.0,1.0,0.118
-3.0,1.0,0.119
-6.0,2.0,0.12
-16.0,-1.0,0.121
-24.0,-3.0,0.122
-20.0,-4.0,0.123
-1.0,-3.0,0.124
19.0,1.0,0.125
26.0,2.0,0.126
28.0,1.0,0.127
31.0,-1.0,0.128
28.0,0.0,0.129
18.0,0.0,0.13
7.0,-2.0,0.131
5.0,-7.0,0.132
4.0,-10.0,0.133
-3.0,-8.0,0.134
-13.0,-3.0,0.135
-11.0,-1.0,0.136
-1.0,3.0,0.137
3.0,9.0,0.138
0.0,8.0,0.139
-3.0,0.0,0.14
-1.0,-8.0,0.141
2.0,-4.0,0.142
10.0,3.0,0.143
18.0,1.0,0.144
19.0,-1.0,0.145
8.0,5.0,0.146
-1.0,10.0,0.147
2.0,5.0,0.148
13.0,-2.0,0.149
13.0,0.0,0.15
3.0,4.0,0.151
-4.0,-2.0,0.152
-6.0,-9.0,0.153
-9.0,-8.0,0.154
-13.0,-2.0,0.155
-12.0,-2.0,0.156
-7.0,-4.0,0.157
-4.0,-4.0,0.158
-4.0,-5.0,0.159
-5.0,-4.0,0.16
-5.0,-1.0,0.161
-3.0,3.0,0.162
4.0,2.0,0.163
10.0,0.0,0.164
9.0,0.0,0.165
7.0,1.0,0.166
3.0,0.0,0.167
0.0,-1.0,0.168
4.0,-1.0,0.169
5.0,2.0,0.17
0.0,1.0,0.171
-4.0,-3.0,0.172
4.0,-6.0,0.173
11.0,-4.0,0.174
11.0,-3.0,0.175
11.0,-3.0,0.176
7.0,-1.0,0.177
2.0,-1.0,0.178
-8.0,0.0,0.179
-18.0,-2.0,0.18
-19.0,-6.0,0.181
-12.0,-5.0,0.182
-4.0,-1.0,0.183
2.0,4.0,0.184
7.0,8.0,0.185
10.0,7.0,0.186
11.0,3.0,0.187
12.0,0.0,0.188
9.0,1.0,0.189
4.0,1.0,0.19
2.0,-3.0,0.191
4.0,-5.0,0.192
3.0,-1.0,0.193
0.0,5.0,0.194
-1.0,4.0,0.195
4.0,-2.0,0.196
6.0,-4.0,0.197
1.0,-3.0,0.198
-4.0,0.0,0.199
-6.0,1.0,0.2
-2.0,-3.0,0.201
4.0,-4.0,0.202
12.0,0.0,0.203
20.0,5.0,0.204
22.0,9.0,0.205
15.0,8.0,0.206
5.0,3.0,0.207
-1.0,0.0,0.208
-3.0,-2.0,0.209
-4.0,-2.0,0.21
-6.0,-4.0,0.211
-4.0,-8.0,0.212
0.0,-8.0,0.213
7.0,-4.0,0.214
10.0,0.0,0.215
12.0,0.0,0.216
15.0,-2.0,0.217
12.0,-4.0,0.218
5.0,0.0,0.219
-7.0,5.0,0.22
-17.0,4.0,0.221
-16.0,0.0,0.222
-2.0,-5.0,0.223
16.0,-2.0,0.224
23.0,4.0,0.225
20.0,8.0,0.226
14.0,3.0,0.227
11.0,-3.0,0.228
9.0,-2.0,0.229
5.0,1.0,0.23
1.0,2.0,0.231
1.0,-2.0,0.232
0.0,-5.0,0.233
-4.0,0.0,0.234
-9.0,3.0,0.235
-10.0,0.0,0.236
-6.0,-4.0,0.237
-3.0,-5.0,0.238
-1.0,-1.0,0.239
-4.0,-2.0,0.24
-8.0,-9.0,0.241
-8.0,-8.0,0.242
1.0,-3.0,0.243
8.0,-1.0,0.244
4.0,-1.0,0.245
-4.0,0.0,0.246
-5.0,4.0,0.247
3.0,2.0,0.248
12.0,-3.0,0.249
14.0,-3.0,0.25
11.0,1.0,0.251
4.0,0.0,0.252
-1.0,-6.0,0.253
-4.0,-7.0,0.254
-4.0,-5.0,0.255
-4.0,-5.0,0.256
-5.0,-4.0,0.257
-11.0,-1.0,0.258
-13.0,5.0,0.259
-11.0,6.0,0.26
-8.0,2.0,0.261
-3.0,0.0,0.262
9.0,4.0,0.263
20.0,6.0,0.264
20.0,5.0,0.265
11.0,5.0,0.266
0.0,4.0,0.267
-3.0,0.0,0.268
-2.0,-2.0,0.269
0.0,-1.0,0.27
6.0,-2.0,0.271
7.0,-6.0,0.272
5.0,-7.0,0.273
2.0,-8.0,0.274
4.0,-7.0,0.275
5.0,-8.0,0.276
3.0,-3.0,0.277
2.0,1.0,0.278
6.0,1.0,0.279
5.0,0.0,0.28
-1.0,-1.0,0.281
-3.0,-2.0,0.282
6.0,-1.0,0.283
14.0,0.0,0.284
11.0,0.0,0.285
5.0,0.0,0.286
6.0,0.0,0.287
8.0,1.0,0.288
4.0,6.0,0.289
-2.0,9.0,0.29
-3.0,6.0,0.291
-1.0,3.0,0.292
-2.0,2.0,0.293
-6.0,1.0,0.294
-3.0,2.0,0.295
5.0,2.0,0.296
11.0,-1.0,0.297
10.0,-3.0,0.298
5.0,-2.0,0.299
-1.0,-3.0,0.3
-10.0,-6.0,0.301
-15.0,-4.0,0.302
-5.0,1.0,0.303
3.0,4.0,0.304
8.0,3.0,0.305
14.0,0.0,0.306
18.0,-5.0,0.307
21.0,-9.0,0.308
17.0,-7.0,0.309
12.0,-1.0,0.31
6.0,3.0,0.311
1.0,0.0,0.312
-2.0,-1.0,0.313
-5.0,1.0,0.314
-9.0,1.0,0.315
-11.0,-4.0,0.316
-9.0,-4.0,0.317
-6.0,1.0,0.318
-1.0,6.0,0.319
5.0,1.0,0.32
7.0,-6.0,0.321
4.0,-4.0,0.322
7.0,3.0,0.323
16.0,4.0,0.324
19.0,2.0,0.325
14.0,4.0,0.326
11.0,5.0,0.327
11.0,1.0,0.328
3.0,-5.0,0.329
-6.0,-5.0,0.33
-5.0,-3.0,0.331
5.0,-2.0,0.332
7.0,-3.0,0.333
-4.0,-3.0,0.334
-12.0,-2.0,0.335
-6.0,-5.0,0.336
-2.0,-6.0,0.337
-5.0,-5.0,0.338
-4.0,-2.0,0.339
1.0,0.0,0.34
4.0,-3.0,0.341
-4.0,-5.0,0.342
-9.0,-3.0,0.343
-1.0,-2.0,0.344
8.0,1.0,0.345
7.0,5.0,0.346
4.0,4.0,0.347
8.0,-2.0,0.348
12.0,-8.0,0.349
5.0,-9.0,0.35
-3.0,-7.0,0.351
-5.0,-1.0,0.352
-4.0,2.0,0.353
-3.0,3.0,0.354
-1.0,0.0,0.355
1.0,-2.0,0.356
2.0,1.0,0.357
0.0,4.0,0.358
1.0,3.0,0.359
3.0,-2.0,0.36
3.0,-8.0,0.361
2.0,-6.0,0.362
9.0,-1.0,0.363
17.0,2.0,0.364
17.0,6.0,0.365
7.0,9.0,0.366
3.0,9.0,0.367
7.0,4.0,0.368
4.0,-2.0,0.369
-5.0,-3.0,0.37
-11.0,0.0,0.371
-5.0,0.0,0.372
1.0,-2.0,0.373
2.0,-3.0,0.374
2.0,-4.0,0.375
7.0,-6.0,0.376
12.0,-5.0,0.377
7.0,-5.0,0.378
1.0,-1.0,0.379
-1.0,2.0,0.38
-2.0,0.0,0.381
-2.0,-2.0,0.382
1.0,0.0,0.383
9.0,1.0,0.384
12.0,1.0,0.385
9.0,2.0,0.386
7.0,6.0,0.387
9.0,8.0,0.388
11.0,4.0,0.389
7.0,0.0,0.39
3.0,-3.0,0.391
5.0,-6.0,0.392
7.0,-8.0,0.393
1.0,-9.0,0.394
-2.0,-5.0,0.395
0.0,-1.0,0.396
3.0,-1.0,0.397
-5.0,-1.0,0.398
-17.0,-1.0,0.399
-24.0,-2.0,0.4
-18.0,-5.0,0.401
-9.0,-1.0,0.402
8.0,2.0,0.403
22.0,2.0,0.404
24.0,1.0,0.405
25.0,2.0,0.406
16.0,0.0,0.407
9.0,-5.0,0.408
9.0,-7.0,0.409
9.0,-4.0,0.41
6.0,-2.0,0.411
2.0,-3.0,0.412
-3.0,-5.0,0.413
-7.0,-3.0,0.414
-10.0,-1.0,0.415
-12.0,-3.0,0.416
-7.0,-5.0,0.417
-1.0,-5.0,0.418
0.0,-5.0,0.419
0.0,-5.0,0.42
-6.0,-6.0,0.421
-11.0,0.0,0.422
-6.0,6.0,0.423
6.0,10.0,0.424
12.0,12.0,0.425
7.0,12.0,0.426
3.0,7.0,0.427
9.0,3.0,0.428
12.0,2.0,0.429
6.0,3.0,0.43
0.0,0.0,0.431
4.0,-6.0,0.432
10.0,-7.0,0.433
7.0,-2.0,0.434
2.0,3.0,0.435
4.0,1.0,0.436
9.0,-1.0,0.437
4.0,-3.0,0.438
-3.0,-1.0,0.439
-5.0,-1.0,0.44
-4.0,-7.0,0.441
-4.0,-9.0,0.442
1.0,-4.0,0.443
10.0,2.0,0.444
12.0,7.0,0.445
8.0,5.0,0.446
4.0,0.0,0.447
7.0,-3.0,0.448
6.0,0.0,0.449
-2.0,5.0,0.45
-8.0,4.0,0.451
-9.0,0.0,0.452
-9.0,-5.0,0.453
-12.0,-4.0,0.454
-7.0,-3.0,0.455
4.0,-1.0,0.456
14.0,0.0,0.457
14.0,1.0,0.458
10.0,1.0,0.459
6.0,0.0,0.46
1.0,-3.0,0.461
-2.0,-5.0,0.462
3.0,-2.0,0.463
12.0,1.0,0.464
13.0,5.0,0.465
8.0,8.0,0.466
9.0,7.0,0.467
13.0,5.0,0.468
6.0,0.0,0.469
-7.0,-5.0,0.47
-10.0,-3.0,0.471
-1.0,-2.0,0.472
7.0,-5.0,0.473
8.0,-7.0,0.474
7.0,-4.0,0.475
9.0,-2.0,0.476
9.0,-3.0,0.477
0.0,-4.0,0.478
-2.0,-5.0,0.479
-3.0,-5.0,0.48
4.0,-6.0,0.481
10.0,-2.0,0.482
14.0,3.0,0.483
15.0,6.0,0.484
8.0,7.0,0.485
2.0,10.0,0.486
-2.0,10.0,0.487
-6.0,3.0,0.488
-10.0,-7.0,0.489
-13.0,-8.0,0.49
-11.0,-6.0,0.491
-9.0,-4.0,0.492
-5.0,-7.0,0.493
-2.0,-7.0,0.494
-3.0,-4.0,0.495
-6.0,-4.0,0.496
-12.0,-5.0,0.497
-16.0,-8.0,0.498
-4.0,-4.0,0.499
12.0,4.0,0.5
20.0,6.0,0.501
22.0,4.0,0.502
27.0,2.0,0.503
29.0,2.0,0.504
22.0,6.0,0.505
13.0,6.0,0.506
12.0,2.0,0.507
14.0,-3.0,0.508
7.0,-4.0,0.509
-2.0,-2.0,0.51
-4.0,-1.0,0.511
0.0,-4.0,0.512
-1.0,-6.0,0.513
-7.0,-4.0,0.514
-6.0,0.0,0.515
-1.0,1.0,0.516
-1.0,3.0,0.517
-3.0,0.0,0.518
-2.0,-4.0,0.519
0.0,-5.0,0.52
0.0,-5.0,0.521
-1.0,-3.0,0.522
5.0,-1.0,0.523
12.0,3.0,0.524
7.0,8.0,0.525
-2.0,9.0,0.526
-5.0,3.0,0.527
1.0,-4.0,0.528
4.0,-5.0,0.529
-1.0,-4.0,0.53
-3.0,-5.0,0.531
0.0,-7.0,0.532
1.0,-1.0,0.533
-2.0,4.0,0.534
-3.0,2.0,0.535
1.0,-5.0,0.536
8.0,-4.0,0.537
8.0,1.0,0.538
6.0,3.0,0.539
1.0,4.0,0.54
-3.0,1.0,0.541
-5.0,-1.0,0.542
-3.0,4.0,0.543
2.0,8.0,0.544
2.0,6.0,0.545
2.0,4.0,0.546
5.0,2.0,0.547
11.0,0.0,0.548
9.0,-2.0,0.549
2.0,-4.0,0.55
-3.0,-2.0,0.551
-3.0,-2.0,0.552
-3.0,-8.0,0.553
-3.0,-12.0,0.554
-4.0,-8.0,0.555
-3.0,-4.0,0.556
1.0,-3.0,0.557
6.0,-2.0,0.558
15.0,-2.0,0.559
22.0,-2.0,0.56
19.0,-3.0,0.561
16.0,0.0,0.562
14.0,1.0,0.563
10.0,2.0,0.564
0.0,5.0,0.565
-5.0,6.0,0.566
4.0,1.0,0.567
8.0,-7.0,0.568
-5.0,-9.0,0.569
-15.0,-4.0,0.57
-18.0,0.0,0.571
-19.0,0.0,0.572
-13.0,0.0,0.573
-5.0,3.0,0.574
11.0,4.0,0.575
22.0,3.0,0.576
19.0,2.0,0.577
16.0,0.0,0.578
15.0,0.0,0.579
12.0,-1.0,0.58
4.0,-4.0,0.581
0.0,-2.0,0.582
9.0,1.0,0.583
14.0,0.0,0.584
8.0,1.0,0.585
0.0,4.0,0.586
-1.0,4.0,0.587
0.0,0.0,0.588
-2.0,-4.0,0.589
-4.0,-7.0,0.59
-3.0,-8.0,0.591
-4.0,-11.0,0.592
-8.0,-12.0,0.593
-10.0,-7.0,0.594
-6.0,0.0,0.595
-1.0,5.0,0.596
4.0,9.0,0.597
8.0,9.0,0.598
12.0,5.0,0.599
8.0,0.0,0.6
1.0,-6.0,0.601
-4.0,-5.0,0.602
-5.0,0.0,0.603
-4.0,4.0,0.604
-1.0,6.0,0.605
4.0,3.0,0.606
10.0,-1.0,0.607
13.0,-7.0,0.608
8.0,-7.0,0.609
3.0,-5.0,0.61
-2.0,-4.0,0.611
-3.0,-5.0,0.612
-1.0,-5.0,0.613
1.0,-4.0,0.614
2.0,-2.0,0.615
1.0,-2.0,0.616
-1.0,-3.0,0.617
-1.0,-6.0,0.618
0.0,-7.0,0.619
0.0,-3.0,0.62
-1.0,0.0,0.621
-3.0,-2.0,0.622
0.0,-5.0,0.623
6.0,-3.0,0.624
10.0,4.0,0.625
5.0,7.0,0.626
2.0,3.0,0.627
4.0,-2.0,0.628
9.0,1.0,0.629
11.0,8.0,0.63
6.0,11.0,0.631
2.0,5.0,0.632
0.0,-1.0,0.633
-1.0,-1.0,0.634
-3.0,1.0,0.635
-4.0,5.0,0.636
-2.0,4.0,0.637
-1.0,1.0,0.638
-2.0,2.0,0.639
-3.0,5.0,0.64
-2.0,4.0,0.641
4.0,2.0,0.642
13.0,0.0,0.643
21.0,0.0,0.644
20.0,0.0,0.645
11.0,-1.0,0.646
0.0,-3.0,0.647
0.0,-4.0,0.648
6.0,-4.0,0.649
10.0,-3.0,0.65
6.0,-3.0,0.651
3.0,-4.0,0.652
2.0,-4.0,0.653
0.0,-3.0,0.654
-7.0,-2.0,0.655
-11.0,-1.0,0.656
-6.0,1.0,0.657
5.0,2.0,0.658
15.0,3.0,0.659
18.0,0.0,0.66
16.0,-7.0,0.661
12.0,-11.0,0.662
8.0,-9.0,0.663
6.0,-2.0,0.664
7.0,4.0,0.665
3.0,4.0,0.666
-3.0,0.0,0.667
-5.0,-2.0,0.668
-2.0,0.0,0.669
1.0,1.0,0.67
0.0,1.0,0.671
-1.0,0.0,0.672
-3.0,-1.0,0.673
-9.0,-4.0,0.674
-16.0,-7.0,0.675
-15.0,-5.0,0.676
-3.0,-2.0,0.677
3.0,0.0,0.678
0.0,-2.0,0.679
-3.0,-3.0,0.68
-2.0,-3.0,0.681
2.0,0.0,0.682
7.0,3.0,0.683
14.0,4.0,0.684
17.0,3.0,0.685
10.0,0.0,0.686
-2.0,-4.0,0.687
-3.0,-6.0,0.688
4.0,-7.0,0.689
10.0,-7.0,0.69
6.0,-6.0,0.691
4.0,-4.0,0.692
3.0,-3.0,0.693
-1.0,-1.0,0.694
-8.0,-1.0,0.695
-14.0,0.0,0.696
-9.0,5.0,0.697
-2.0,4.0,0.698
4.0,0.0,0.699
6.0,-5.0,0.7
7.0,-5.0,0.701
9.0,3.0,0.702
9.0,8.0,0.703
7.0,9.0,0.704
5.0,9.0,0.705
3.0,9.0,0.706
4.0,5.0,0.707
5.0,-2.0,0.708
0.0,-5.0,0.709
-5.0,-4.0,0.71
-8.0,-6.0,0.711
-9.0,-12.0,0.712
-6.0,-11.0,0.713
0.0,-2.0,0.714
11.0,9.0,0.715
18.0,10.0,0.716
17.0,6.0,0.717
9.0,-3.0,0.718
4.0,-8.0,0.719
7.0,-8.0,0.72
8.0,-4.0,0.721
4.0,1.0,0.722
4.0,5.0,0.723
6.0,7.0,0.724
5.0,8.0,0.725
-1.0,5.0,0.726
-2.0,1.0,0.727
1.0,-1.0,0.728
3.0,-1.0,0.729
1.0,-3.0,0.73
1.0,-7.0,0.731
3.0,-6.0,0.732
3.0,-2.0,0.733
0.0,-2.0,0.734
-2.0,-5.0,0.735
-3.0,-7.0,0.736
-5.0,-3.0,0.737
-10.0,0.0,0.738
-9.0,-1.0,0.739
-6.0,-1.0,0.74
0.0,-2.0,0.741
7.0,-1.0,0.742
16.0,0.0,0.743
23.0,1.0,0.744
19.0,5.0,0.745
13.0,4.0,0.746
7.0,0.0,0.747
2.0,-3.0,0.748
2.0,-3.0,0.749
1.0,-2.0,0.75
0.0,-4.0,0.751
0.0,-6.0,0.752
3.0,-8.0,0.753
5.0,-6.0,0.754
0.0,-3.0,0.755
-5.0,1.0,0.756
-5.0,5.0,0.757
-2.0,-7.0,0.758
1.0,-1.0,0.759
4.0,0.0,0.76
5.0,0.0,0.761
2.0,-1.0,0.762
2.0,0.0,0.763
3.0,1.0,0.764
-1.0,6.0,0.765
-9.0,9.0,0.766
-11.0,8.0,0.767
-3.0,6.0,0.768
5.0,2.0,0.769
5.0,0.0,0.77
2.0,-3.0,0.771
3.0,-6.0,0.772
4.0,-6.0,0.773
2.0,-6.0,0.774
0.0,-6.0,0.775
1.0,-4.0,0.776
1.0,0.0,0.777
-3.0,-8.0,0.778
-5.0,-2.0,0.779
-5.0,1.0,0.78
-3.0,0.0,0.781
-3.0,-2.0,0.782
-1.0,0.0,0.783
7.0,2.0,0.784
16.0,7.0,0.785
14.0,11.0,0.786
8.0,9.0,0.787
6.0,7.0,0.788
8.0,3.0,0.789
10.0,-1.0,0.79
8.0,-4.0,0.791
6.0,-7.0,0.792
3.0,-7.0,0.793
0.0,-7.0,0.794
-2.0,-7.0,0.795
-2.0,-5.0,0.796
-2.0,-1.0,0.797
-5.0,4.0,0.798
-7.0,4.0,0.799
-7.0,-1.0,0.8
-1.0,-8.0,0.801
5.0,-9.0,0.802
12.0,-7.0,0.803
17.0,-3.0,0.804
13.0,3.0,0.805
8.0,9.0,0.806
-1.0,7.0,0.807
-7.0,-2.0,0.808
1.0,-7.0,0.809
7.0,-3.0,0.81
7.0,2.0,0.811
6.0,1.0,0.812
4.0,0.0,0.813
2.0,0.0,0.814
3.0,0.0,0.815
5.0,-3.0,0.816
5.0,-3.0,0.817
6.0,0.0,0.818
2.0,1.0,0.819
1.0,0.0,0.82
-1.0,-6.0,0.821
-4.0,-2.0,0.822
0.0,2.0,0.823
10.0,2.0,0.824
13.0,0.0,0.825
3.0,0.0,0.826
-3.0,1.0,0.827
-2.0,1.0,0.828
-4.0,-1.0,0.829
-15.0,-1.0,0.83
-21.0,-1.0,0.831
-10.0,-1.0,0.832
9.0,2.0,0.833
20.0,6.0,0.834
23.0,3.0,0.835
22.0,-3.0,0.836
20.0,-4.0,0.837
9.0,-1.0,0.838
0.0,0.0,0.839
-5.0,-5.0,0.84
-5.0,-10.0,0.841
-5.0,-8.0,0.842
1.0,-4.0,0.843
14.0,-3.0,0.844
18.0,-3.0,0.845
11.0,0.0,0.846
9.0,3.0,0.847
15.0,0.0,0.848
15.0,-1.0,0.849
2.0,0.0,0.85
-7.0,-1.0,0.851
-10.0,-4.0,0.852
-12.0,-5.0,0.853
-18.0,-2.0,0.854
-18.0,0.0,0.855
-4.0,0.0,0.856
5.0,1.0,0.857
1.0,0.0,0.858
-3.0,-1.0,0.859
-1.0,-2.0,0.86
5.0,-2.0,0.861
7.0,-1.0,0.862
10.0,2.0,0.863
15.0,5.0,0.864
15.0,5.0,0.865
3.0,3.0,0.866
-7.0,1.0,0.867
-7.0,-1.0,0.868
-1.0,0.0,0.869
2.0,1.0,0.87
4.0,-4.0,0.871
5.0,-8.0,0.872
2.0,-6.0,0.873
-1.0,-5.0,0.874
-1.0,-5.0,0.875
-1.0,-5.0,0.876
-2.0,-3.0,0.877
-6.0,-2.0,0.878
-1.0,0.0,0.879
4.0,0.0,0.88
8.0,-6.0,0.881
12.0,-8.0,0.882
15.0,-4.0,0.883
17.0,5.0,0.884
13.0,11.0,0.885
9.0,10.0,0.886
4.0,6.0,0.887
0.0,1.0,0.888
-4.0,-3.0,0.889
-7.0,-5.0,0.89
-8.0,-4.0,0.891
-10.0,-1.0,0.892
-14.0,-2.0,0.893
-17.0,-5.0,0.894
-18.0,-3.0,0.895
-17.0,2.0,0.896
-5.0,5.0,0.897
8.0,1.0,0.898
21.0,-4.0,0.899
26.0,-5.0,0.9
25.0,-4.0,0.901
21.0,-2.0,0.902
21.0,2.0,0.903
21.0,5.0,0.904
16.0,5.0,0.905
7.0,3.0,0.906
3.0,4.0,0.907
6.0,4.0,0.908
11.0,-1.0,0.909
10.0,-6.0,0.91
4.0,-6.0,0.911
-1.0,-4.0,0.912
-8.0,-5.0,0.913
-16.0,-6.0,0.914
-23.0,-2.0,0.915
-22.0,0.0,0.916
-12.0,0.0,0.917
-1.0,-3.0,0.918
5.0,-2.0,0.919
7.0,0.0,0.92
6.0,-5.0,0.921
6.0,-8.0,0.922
6.0,-7.0,0.923
8.0,-1.0,0.924
9.0,4.0,0.925
7.0,7.0,0.926
3.0,5.0,0.927
2.0,3.0,0.928
2.0,-1.0,0.929
1.0,-2.0,0.93
0.0,-3.0,0.931
0.0,-5.0,0.932
3.0,-6.0,0.933
3.0,-6.0,0.934
-2.0,-5.0,0.935
-4.0,-5.0,0.936
-4.0,-2.0,0.937
0.0,0.0,0.938
1.0,3.0,0.939
0.0,2.0,0.94
-1.0,-2.0,0.941
0.0,-2.0,0.942
7.0,0.0,0.943
12.0,2.0,0.944
9.0,3.0,0.945
-1.0,4.0,0.946
-3.0,1.0,0.947
2.0,-4.0,0.948
10.0,-3.0,0.949
11.0,2.0,0.95
10.0,8.0,0.951
10.0,4.0,0.952
9.0,-3.0,0.953
2.0,-8.0,0.954
-4.0,-5.0,0.955
-4.0,-2.0,0.956
1.0,1.0,0.957
2.0,0.0,0.958
0.0,1.0,0.959
-6.0,1.0,0.96
-10.0,-2.0,0.961
-7.0,-2.0,0.962
1.0,2.0,0.963
10.0,4.0,0.964
14.0,3.0,0.965
12.0,0.0,0.966
11.0,-3.0,0.967
9.0,-3.0,0.968
4.0,-4.0,0.969
-2.0,-3.0,0.97
-6.0,-2.0,0.971
-3.0,-2.0,0.972
-1.0,-7.0,0.973
-3.0,-8.0,0.974
-5.0,-4.0,0.975
-4.0,1.0,0.976
-1.0,3.0,0.977
1.0,-3.0,0.978
1.0,-10.0,0.979
0.0,-8.0,0.98
0.0,-4.0,0.981
-2.0,3.0,0.982
-1.0,7.0,0.983
1.0,8.0,0.984
5.0,7.0,0.985
11.0,4.0,0.986
17.0,0.0,0.987
18.0,0.0,0.988
12.0,2.0,0.989
0.0,1.0,0.99
-5.0,-1.0,0.991
-1.0,-4.0,0.992
8.0,-4.0,0.993
13.0,0.0,0.994
7.0,1.0,0.995
0.0,-1.0,0.996
0.0,-1.0,0.997
5.0,-1.0,0.998
5.0,0.0,0.999
-2.0,0.0,1.0
-7.0,-1.0,1.001
-5.0,3.0,1.002
0.0,5.0,1.003
6.0,1.0,1.004
7.0,-2.0,1.005
4.0,0.0,1.006
1.0,4.0,1.007
0.0,6.0,1.008
3.0,3.0,1.009
7.0,-2.0,1.01
5.0,-9.0,1.011
0.0,-14.0,1.012
-3.0,-11.0,1.013
-3.0,-1.0,1.014
-4.0,1.0,1.015
-5.0,-2.0,1.016
-4.0,-4.0,1.017
-1.0,-2.0,1.018
2.0,0.0,1.019
3.0,-4.0,1.02
3.0,-8.0,1.021
7.0,-2.0,1.022
11.0,7.0,1.023
12.0,9.0,1.024
12.0,5.0,1.025
8.0,4.0,1.026
3.0,6.0,1.027
1.0,4.0,1.028
3.0,0.0,1.029
0.0,-2.0,1.03
-6.0,-1.0,1.031
-8.0,-3.0,1.032
-4.0,-6.0,1.033
0.0,-6.0,1.034
0.0,-1.0,1.035
0.0,0.0,1.036
3.0,1.0,1.037
6.0,1.0,1.038
4.0,1.0,1.039
-3.0,-1.0,1.04
-10.0,-8.0,1.041
-10.0,-7.0,1.042
-4.0,-3.0,1.043
6.0,0.0,1.044
15.0,2.0,1.045
21.0,3.0,1.046
26.0,1.0,1.047
26.0,-2.0,1.048
19.0,-4.0,1.049
6.0,-1.0,1.05
-4.0,0.0,1.051
-7.0,-5.0,1.052
-12.0,-12.0,1.053
-21.0,-11.0,1.054
-22.0,-4.0,1.055
-10.0,4.0,1.056
7.0,8.0,1.057
15.0,5.0,1.058
15.0,1.0,1.059
12.0,1.0,1.06
9.0,-2.0,1.061
4.0,-1.0,1.062
7.0,0.0,1.063
17.0,0.0,1.064
17.0,-2.0,1.065
3.0,-4.0,1.066
-5.0,-6.0,1.067
-2.0,-8.0,1.068
0.0,-7.0,1.069
-7.0,-1.0,1.07
-9.0,3.0,1.071
1.0,-2.0,1.072
11.0,-6.0,1.073
9.0,-4.0,1.074
2.0,0.0,1.075
-3.0,-2.0,1.076
-11.0,-5.0,1.077
-21.0,-3.0,1.078
-21.0,4.0,1.079
-7.0,4.0,1.08
7.0,-4.0,1.081
5.0,-6.0,1.082
1.0,1.0,1.083
8.0,8.0,1.084
17.0,9.0,1.085
13.0,8.0,1.086
7.0,7.0,1.087
7.0,2.0,1.088
7.0,-4.0,1.089
-1.0,-9.0,1.09
-8.0,-7.0,1.091
-7.0,-6.0,1.092
-1.0,-2.0,1.093
-1.0,4.0,1.094
-3.0,3.0,1.095
-1.0,-2.0,1.096
4.0,-3.0,1.097
4.0,-2.0,1.098
1.0,-1.0,1.099
-2.0,-3.0,1.1
-3.0,-6.0,1.101
2.0,-6.0,1.102
14.0,-6.0,1.103
24.0,-5.0,1.104
22.0,0.0,1.105
10.0,6.0,1.106
4.0,8.0,1.107
7.0,7.0,1.108
10.0,8.0,1.109
5.0,10.0,1.11
-1.0,6.0,1.111
-2.0,-1.0,1.112
-2.0,-6.0,1.113
-5.0,-7.0,1.114
-5.0,-8.0,1.115
1.0,-7.0,1.116
7.0,-4.0,1.117
7.0,-5.0,1.118
1.0,-8.0,1.119
-2.0,-8.0,1.12
-2.0,-7.0,1.121
-1.0,-4.0,1.122
3.0,-1.0,1.123
4.0,3.0,1.124
0.0,9.0,1.125
-4.0,9.0,1.126
-3.0,2.0,1.127
5.0,-3.0,1.128
11.0,-1.0,1.129
12.0,0.0,1.13
10.0,-3.0,1.131
7.0,-7.0,1.132
4.0,-6.0,1.133
4.0,-5.0,1.134
6.0,-3.0,1.135
7.0,-1.0,1.136
5.0,1.0,1.137
3.0,0.0,1.138
6.0,-3.0,1.139
3.0,-1.0,1.14
-6.0,0.0,1.141
-19.0,-2.0,1.142
-20.0,-6.0,1.143
-13.0,-5.0,1.144
-3.0,5.0,1.145
4.0,13.0,1.146
14.0,10.0,1.147
22.0,1.0,1.148
22.0,-4.0,1.149
13.0,-4.0,1.15
1.0,-3.0,1.151
-3.0,-4.0,1.152
1.0,-3.0,1.153
5.0,0.0,1.154
4.0,2.0,1.155
4.0,0.0,1.156
8.0,-1.0,1.157
9.0,0.0,1.158
3.0,4.0,1.159
-5.0,6.0,1.16
-11.0,-1.0,1.161
-9.0,-7.0,1.162
-1.0,-7.0,1.163
7.0,0.0,1.164
9.0,4.0,1.165
1.0,3.0,1.166
-4.0,0.0,1.167
-2.0,0.0,1.168
5.0,0.0,1.169
8.0,-3.0,1.17
4.0,-5.0,1.171
-1.0,-4.0,1.172
-5.0,-3.0,1.173
-4.0,-3.0,1.174
-2.0,-5.0,1.175
0.0,-3.0,1.176
3.0,1.0,1.177
3.0,3.0,1.178
3.0,1.0,1.179
0.0,-1.0,1.18
0.0,-3.0,1.181
2.0,0.0,1.182
6.0,3.0,1.183
9.0,6.0,1.184
10.0,10.0,1.185
8.0,12.0,1.186
7.0,7.0,1.187
6.0,-2.0,1.188
3.0,-4.0,1.189
-2.0,5.0,1.19
-5.0,11.0,1.191
-4.0,5.0,1.192
-1.0,-7.0,1.193
-1.0,-10.0,1.194
-1.0,-7.0,1.195
4.0,-6.0,1.196
12.0,-6.0,1.197
14.0,-6.0,1.198
9.0,-4.0,1.199
2.0,-6.0,1.2
0.0,-12.0,1.201
-1.0,-8.0,1.202
1.0,0.0,1.203
5.0,1.0,1.204
5.0,-2.0,1.205
2.0,-3.0,1.206
0.0,-1.0,1.207
3.0,-2.0,1.208
7.0,-4.0,1.209
6.0,-1.0,1.21
-1.0,4.0,1.211
-7.0,3.0,1.212
-8.0,-1.0,1.213
-5.0,-1.0,1.214
-2.0,2.0,1.215
-3.0,2.0,1.216
-1.0,0.0,1.217
1.0,-2.0,1.218
5.0,-2.0,1.219
5.0,0.0,1.22
1.0,0.0,1.221
0.0,2.0,1.222
5.0,2.0,1.223
12.0,-1.0,1.224
13.0,0.0,1.225
11.0,6.0,1.226
12.0,6.0,1.227
14.0,-1.0,1.228
13.0,-4.0,1.229
8.0,-2.0,1.23
3.0,0.0,1.231
-1.0,-2.0,1.232
-6.0,-2.0,1.233
-9.0,1.0,1.234
-6.0,0.0,1.235
-2.0,-7.0,1.236
-1.0,-8.0,1.237
-1.0,-1.0,1.238
-1.0,3.0,1.239
-1.0,0.0,1.24
-3.0,-6.0,1.241
-2.0,-2.0,1.242
6.0,6.0,1.243
15.0,8.0,1.244
13.0,6.0,1.245
3.0,4.0,1.246
-1.0,2.0,1.247
4.0,-4.0,1.248
10.0,-7.0,1.249
11.0,-6.0,1.25
9.0,-7.0,1.251
4.0,-10.0,1.252
-4.0,-11.0,1.253
-14.0,-7.0,1.254
-18.0,-5.0,1.255
-11.0,-3.0,1.256
1.0,0.0,1.257
7.0,0.0,1.258
4.0,-1.0,1.259
-3.0,-3.0,1.26
-4.0,-4.0,1.261
0.0,-2.0,1.262
11.0,-1.0,1.263
18.0,1.0,1.264
15.0,5.0,1.265
5.0,9.0,1.266
-1.0,7.0,1.267
-3.0,-1.0,1.268
-4.0,-7.0,1.269
-10.0,-5.0,1.27
-11.0,0.0,1.271
0.0,1.0,1.272
13.0,-2.0,1.273
14.0,-4.0,1.274
12.0,0.0,1.275
12.0,6.0,1.276
15.0,14.0,1.277
14.0,17.0,1.278
11.0,16.0,1.279
10.0,8.0,1.28
11.0,0.0,1.281
4.0,-1.0,1.282
-2.0,4.0,1.283
2.0,7.0,1.284
7.0,6.0,1.285
6.0,3.0,1.286
0.0,0.0,1.287
3.0,-4.0,1.288
6.0,-9.0,1.289
3.0,-9.0,1.29
-4.0,-4.0,1.291
-4.0,0.0,1.292
-1.0,-2.0,1.293
0.0,-6.0,1.294
-3.0,-5.0,1.295
-3.0,0.0,1.296
0.0,2.0,1.297
0.0,-2.0,1.298
0.0,-8.0,1.299
-4.0,-9.0,1.3
-7.0,-12.0,1.301
-6.0,-10.0,1.302
1.0,-5.0,1.303
10.0,0.0,1.304
10.0,6.0,1.305
3.0,7.0,1.306
0.0,4.0,1.307
1.0,-2.0,1.308
2.0,-6.0,1.309
-1.0,-7.0,1.31
-1.0,-6.0,1.311
2.0,-6.0,1.312
2.0,-8.0,1.313
-2.0,-8.0,1.314
-4.0,-5.0,1.315
0.0,-2.0,1.316
4.0,1.0,1.317
3.0,5.0,1.318
2.0,6.0,1.319
1.0,6.0,1.32
-2.0,2.0,1.321
-5.0,2.0,1.322
-2.0,2.0,1.323
5.0,4.0,1.324
11.0,5.0,1.325
7.0,5.0,1.326
4.0,4.0,1.327
6.0,-1.0,1.328
7.0,-5.0,1.329
6.0,-5.0,1.33
2.0,-6.0,1.331
0.0,-8.0,1.332
-2.0,-7.0,1.333
-1.0,-2.0,1.334
2.0,3.0,1.335
8.0,3.0,1.336
11.0,1.0,1.337
10.0,0.0,1.338
8.0,1.0,1.339
4.0,1.0,1.34
-4.0,-3.0,1.341
-8.0,-3.0,1.342
-3.0,0.0,1.343
4.0,3.0,1.344
3.0,5.0,1.345
1.0,6.0,1.346
5.0,3.0,1.347
14.0,0.0,1.348
14.0,-1.0,1.349
7.0,-2.0,1.35
-1.0,-5.0,1.351
-3.0,-10.0,1.352
-4.0,-9.0,1.353
-8.0,-5.0,1.354
-11.0,-2.0,1.355
-9.0,-2.0,1.356
-4.0,0.0,1.357
-1.0,0.0,1.358
3.0,-4.0,1.359
4.0,-6.0,1.36
3.0,-5.0,1.361
5.0,2.0,1.362
13.0,8.0,1.363
21.0,7.0,1.364
19.0,5.0,1.365
11.0,3.0,1.366
6.0,0.0,1.367
6.0,-1.0,1.368
4.0,-1.0,1.369
0.0,-2.0,1.37
-2.0,-5.0,1.371
-1.0,-9.0,1.372
-2.0,-6.0,1.373
-3.0,-1.0,1.374
-3.0,0.0,1.375
0.0,-1.0,1.376
3.0,0.0,1.377
2.0,2.0,1.378
3.0,2.0,1.379
3.0,-1.0,1.38
2.0,-6.0,1.381
2.0,-6.0,1.382
6.0,1.0,1.383
11.0,8.0,1.384
11.0,13.0,1.385
5.0,10.0,1.386
0.0,0.0,1.387
-6.0,-7.0,1.388
-13.0,-4.0,1.389
-17.0,0.0,1.39
-12.0,-4.0,1.391
-3.0,-12.0,1.392
7.0,-10.0,1.393
16.0,2.0,1.394
22.0,8.0,1.395
24.0,3.0,1.396
16.0,-1.0,1.397
3.0,0.0,1.398
0.0,2.0,1.399
4.0,-1.0,1.4
5.0,-10.0,1.401
1.0,-9.0,1.402
1.0,-3.0,1.403
6.0,-1.0,1.404
8.0,-1.0,1.405
2.0,-2.0,1.406
-2.0,0.0,1.407
-1.0,-1.0,1.408
-1.0,-1.0,1.409
-5.0,-1.0,1.41
-6.0,-3.0,1.411
-1.0,-5.0,1.412
-1.0,-6.0,1.413
-3.0,-3.0,1.414
-2.0,-1.0,1.415
2.0,-3.0,1.416
2.0,-2.0,1.417
-3.0,1.0,1.418
-6.0,7.0,1.419
-2.0,6.0,1.42
0.0,-1.0,1.421
-1.0,-5.0,1.422
0.0,-3.0,1.423
7.0,1.0,1.424
9.0,5.0,1.425
2.0,6.0,1.426
1.0,4.0,1.427
7.0,2.0,1.428
12.0,1.0,1.429
9.0,1.0,1.43
2.0,-1.0,1.431
-3.0,-5.0,1.432
-7.0,-8.0,1.433
-12.0,-8.0,1.434
-12.0,-4.0,1.435
-6.0,-3.0,1.436
0.0,-1.0,1.437
1.0,1.0,1.438
0.0,4.0,1.439
1.0,6.0,1.44
5.0,5.0,1.441
9.0,4.0,1.442
15.0,3.0,1.443
22.0,5.0,1.444
22.0,9.0,1.445
14.0,10.0,1.446
3.0,5.0,1.447
0.0,-1.0,1.448
-2.0,-4.0,1.449
-9.0,-4.0,1.45
-17.0,-4.0,1.451
-14.0,-9.0,1.452
-5.0,-11.0,1.453
-1.0,-7.0,1.454
1.0,1.0,1.455
5.0,6.0,1.456
14.0,7.0,1.457
14.0,4.0,1.458
7.0,2.0,1.459
-2.0,-1.0,1.46
-5.0,-7.0,1.461
-5.0,-7.0,1.462
0.0,-2.0,1.463
9.0,2.0,1.464
14.0,3.0,1.465
10.0,-1.0,1.466
6.0,-3.0,1.467
7.0,-5.0,1.468
9.0,-5.0,1.469
5.0,-5.0,1.47
0.0,-8.0,1.471
-1.0,-9.0,1.472
0.0,-9.0,1.473
-1.0,-7.0,1.474
-4.0,-8.0,1.475
-2.0,-9.0,1.476
3.0,-7.0,1.477
4.0,-4.0,1.478
4.0,1.0,1.479
3.0,4.0,1.48
2.0,0.0,1.481
0.0,0.0,1.482
5.0,-1.0,1.483
13.0,-1.0,1.484
15.0,1.0,1.485
6.0,3.0,1.486
0.0,3.0,1.487
3.0,0.0,1.488
6.0,-2.0,1.489
2.0,-2.0,1.49
-4.0,1.0,1.491
-4.0,2.0,1.492
0.0,0.0,1.493
-1.0,-1.0,1.494
-8.0,0.0,1.495
-14.0,5.0,1.496
-13.0,10.0,1.497
-9.0,6.0,1.498
-3.0,4.0,1.499
5.0,8.0,1.5
11.0,12.0,1.501
17.0,13.0,1.502
22.0,8.0,1.503
24.0,5.0,1.504
19.0,4.0,1.505
14.0,1.0,1.506
12.0,-3.0,1.507
9.0,-4.0,1.508
2.0,-3.0,1.509
-1.0,-4.0,1.51
-1.0,-10.0,1.511
-2.0,-13.0,1.512
-5.0,-10.0,1.513
-3.0,-8.0,1.514
6.0,-6.0,1.515
16.0,-3.0,1.516
16.0,2.0,1.517
9.0,4.0,1.518
4.0,1.0,1.519
-5.0,2.0,1.52
-19.0,0.0,1.521
-26.0,-3.0,1.522
-15.0,-7.0,1.523
1.0,-6.0,1.524
3.0,0.0,1.525
-4.0,4.0,1.526
-4.0,3.0,1.527
4.0,0.0,1.528
5.0,1.0,1.529
-3.0,4.0,1.53
-5.0,3.0,1.531
-1.0,-3.0,1.532
2.0,-6.0,1.533
4.0,-4.0,1.534
10.0,0.0,1.535
15.0,0.0,1.536
15.0,0.0,1.537
7.0,-2.0,1.538
3.0,-3.0,1.539
5.0,-3.0,1.54
4.0,-3.0,1.541
1.0,0.0,1.542
2.0,3.0,1.543
6.0,2.0,1.544
3.0,-1.0,1.545
-3.0,0.0,1.546
-3.0,5.0,1.547
4.0,6.0,1.548
11.0,1.0,1.549
8.0,-4.0,1.55
0.0,-3.0,1.551
-4.0,0.0,1.552
-3.0,-1.0,1.553
0.0,-4.0,1.554
0.0,-5.0,1.555
-1.0,-4.0,1.556
-1.0,-3.0,1.557
3.0,-3.0,1.558
6.0,0.0,1.559
3.0,0.0,1.56
1.0,-5.0,1.561
4.0,-6.0,1.562
11.0,-3.0,1.563
15.0,0.0,1.564
13.0,0.0,1.565
6.0,0.0,1.566
0.0,2.0,1.567
-3.0,3.0,1.568
-4.0,4.0,1.569
-3.0,2.0,1.57
-3.0,-1.0,1.571
-4.0,-5.0,1.572
-4.0,-5.0,1.573
-3.0,0.0,1.574
-1.0,3.0,1.575
-1.0,1.0,1.576
-2.0,-1.0,1.577
-2.0,-1.0,1.578
-1.0,-1.0,1.579
-1.0,-4.0,1.58
0.0,-8.0,1.581
2.0,-5.0,1.582
8.0,1.0,1.583
13.0,4.0,1.584
13.0,4.0,1.585
5.0,3.0,1.586
1.0,2.0,1.587
5.0,-2.0,1.588
8.0,-6.0,1.589
2.0,-6.0,1.59
-3.0,-4.0,1.591
-5.0,-1.0,1.592
-4.0,4.0,1.593
-5.0,7.0,1.594
-10.0,6.0,1.595
-10.0,0.0,1.596
-1.0,-1.0,1.597
12.0,0.0,1.598
21.0,-2.0,1.599
22.0,-5.0,1.6
18.0,-8.0,1.601
10.0,-3.0,1.602
3.0,4.0,1.603
-1.0,8.0,1.604
0.0,8.0,1.605
5.0,5.0,1.606
6.0,-1.0,1.607
2.0,-7.0,1.608
-2.0,-11.0,1.609
-4.0,-8.0,1.61
-7.0,-3.0,1.611
-13.0,2.0,1.612
-14.0,2.0,1.613
-7.0,-3.0,1.614
1.0,-6.0,1.615
6.0,-4.0,1.616
6.0,2.0,1.617
3.0,1.0,1.618
1.0,-1.0,1.619
-2.0,0.0,1.62
-4.0,2.0,1.621
0.0,0.0,1.622
11.0,-3.0,1.623
20.0,-2.0,1.624
20.0,3.0,1.625
13.0,3.0,1.626
8.0,-2.0,1.627
5.0,-7.0,1.628
4.0,-5.0,1.629
-3.0,-2.0,1.63
-11.0,-2.0,1.631
-15.0,-3.0,1.632
-7.0,-3.0,1.633
2.0,-3.0,1.634
5.0,-5.0,1.635
5.0,-7.0,1.636
10.0,-4.0,1.637
13.0,-3.0,1.638
8.0,-1.0,1.639
-4.0,0.0,1.64
-11.0,-2.0,1.641
-8.0,-1.0,1.642
2.0,-1.0,1.643
8.0,2.0,1.644
7.0,5.0,1.645
1.0,7.0,1.646
-1.0,5.0,1.647
0.0,1.0,1.648
3.0,0.0,1.649
4.0,0.0,1.65
5.0,-1.0,1.651
5.0,-4.0,1.652
3.0,-5.0,1.653
0.0,-3.0,1.654
-2.0,1.0,1.655
-2.0,1.0,1.656
0.0,0.0,1.657
0.0,-2.0,1.658
2.0,0.0,1.659
3.0,2.0,1.66
3.0,-1.0,1.661
2.0,-5.0,1.662
7.0,-3.0,1.663
16.0,0.0,1.664
16.0,5.0,1.665
8.0,6.0,1.666
0.0,4.0,1.667
1.0,0.0,1.668
3.0,-3.0,1.669
0.0,-1.0,1.67
-3.0,2.0,1.671
-1.0,-1.0,1.672
2.0,-5.0,1.673
2.0,-7.0,1.674
0.0,-3.0,1.675
3.0,-2.0,1.676
10.0,-5.0,1.677
10.0,-5.0,1.678
1.0,2.0,1.679
-7.0,8.0,1.68
-10.0,0.0,1.681
-9.0,-6.0,1.682
-6.0,-4.0,1.683
1.0,-1.0,1.684
12.0,-2.0,1.685
18.0,-3.0,1.686
15.0,0.0,1.687
6.0,3.0,1.688
-3.0,-1.0,1.689
-8.0,-7.0,1.69
-5.0,-8.0,1.691
-2.0,-6.0,1.692
0.0,-4.0,1.693
0.0,-2.0,1.694
0.0,0.0,1.695
2.0,2.0,1.696
3.0,3.0,1.697
2.0,3.0,1.698
4.0,4.0,1.699
3.0,3.0,1.7
2.0,-2.0,1.701
1.0,-1.0,1.702
5.0,4.0,1.703
13.0,9.0,1.704
15.0,9.0,1.705
8.0,5.0,1.706
2.0,1.0,1.707
0.0,0.0,1.708
-1.0,-2.0,1.709
-3.0,-5.0,1.71
-3.0,-5.0,1.711
-5.0,-4.0,1.712
-12.0,-1.0,1.713
-19.0,1.0,1.714
-15.0,1.0,1.715
3.0,-1.0,1.716
22.0,-2.0,1.717
25.0,-3.0,1.718
18.0,-1.0,1.719
8.0,-2.0,1.72
0.0,-5.0,1.721
-1.0,0.0,1.722
3.0,6.0,1.723
14.0,6.0,1.724
20.0,3.0,1.725
17.0,3.0,1.726
8.0,6.0,1.727
3.0,5.0,1.728
0.0,0.0,1.729
-6.0,-3.0,1.73
-10.0,-3.0,1.731
-6.0,-4.0,1.732
-3.0,-9.0,1.733
-5.0,-9.0,1.734
-10.0,-4.0,1.735
-7.0,-1.0,1.736
0.0,0.0,1.737
0.0,-3.0,1.738
-7.0,-6.0,1.739
-13.0,-9.0,1.74
-8.0,-10.0,1.741
0.0,-6.0,1.742
5.0,1.0,1.743
11.0,8.0,1.744
16.0,8.0,1.745
17.0,4.0,1.746
13.0,-1.0,1.747
10.0,-3.0,1.748
7.0,-2.0,1.749
4.0,0.0,1.75
1.0,0.0,1.751
1.0,-4.0,1.752
1.0,-6.0,1.753
1.0,-5.0,1.754
-1.0,-4.0,1.755
-1.0,-2.0,1.756
3.0,0.0,1.757
8.0,3.0,1.758
9.0,6.0,1.759
3.0,6.0,1.76
0.0,-2.0,1.761
0.0,-6.0,1.762
6.0,-2.0,1.763
14.0,4.0,1.764
13.0,7.0,1.765
8.0,5.0,1.766
1.0,1.0,1.767
-5.0,-1.0,1.768
-11.0,-3.0,1.769
-14.0,-4.0,1.77
-10.0,-3.0,1.771
-2.0,-1.0,1.772
2.0,1.0,1.773
1.0,0.0,1.774
0.0,0.0,1.775
2.0,0.0,1.776
7.0,0.0,1.777
4.0,-2.0,1.778
0.0,-4.0,1.779
-2.0,-4.0,1.78
0.0,-3.0,1.781
2.0,-1.0,1.782
5.0,0.0,1.783
11.0,1.0,1.784
14.0,4.0,1.785
9.0,4.0,1.786
5.0,-1.0,1.787
4.0,-5.0,1.788
2.0,-2.0,1.789
0.0,2.0,1.79
0.0,0.0,1.791
1.0,-5.0,1.792
1.0,-6.0,1.793
1.0,-1.0,1.794
1.0,1.0,1.795
2.0,0.0,1.796
2.0,0.0,1.797
-1.0,-1.0,1.798
-1.0,-1.0,1.799
-1.0,-2.0,1.8
-2.0,-3.0,1.801
-3.0,0.0,1.802
1.0,0.0,1.803
10.0,0.0,1.804
12.0,6.0,1.805
6.0,8.0,1.806
2.0,2.0,1.807
7.0,-6.0,1.808
10.0,-6.0,1.809
5.0,-1.0,1.81
-1.0,-3.0,1.811
-2.0,-9.0,1.812
-2.0,-8.0,1.813
-3.0,0.0,1.814
-2.0,4.0,1.815
0.0,-1.0,1.816
3.0,-4.0,1.817
1.0,0.0,1.818
0.0,4.0,1.819
-1.0,6.0,1.82
-1.0,0.0,1.821
-1.0,-3.0,1.822
2.0,-2.0,1.823
9.0,1.0,1.824
11.0,5.0,1.825
7.0,5.0,1.826
4.0,0.0,1.827
6.0,-2.0,1.828
6.0,0.0,1.829
1.0,4.0,1.83
-1.0,2.0,1.831
0.0,-4.0,1.832
0.0,-9.0,1.833
-3.0,-6.0,1.834
-3.0,-1.0,1.835
1.0,1.0,1.836
6.0,2.0,1.837
5.0,1.0,1.838
4.0,0.0,1.839
4.0,-1.0,1.84
1.0,-3.0,1.841
-4.0,-3.0,1.842
-3.0,-1.0,1.843
5.0,-1.0,1.844
10.0,1.0,1.845
5.0,5.0,1.846
-2.0,5.0,1.847
0.0,-1.0,1.848
6.0,-7.0,1.849
8.0,-7.0,1.85
5.0,-3.0,1.851
4.0,-2.0,1.852
5.0,-3.0,1.853
6.0,-2.0,1.854
5.0,0.0,1.855
3.0,1.0,1.856
2.0,0.0,1.857
0.0,-2.0,1.858
-6.0,-2.0,1.859
-14.0,-2.0,1.86
-18.0,-3.0,1.861
-16.0,1.0,1.862
-6.0,5.0,1.863
8.0,5.0,1.864
14.0,0.0,1.865
8.0,0.0,1.866
1.0,2.0,1.867
0.0,2.0,1.868
2.0,-1.0,1.869
2.0,-4.0,1.87
-2.0,-7.0,1.871
-3.0,-9.0,1.872
1.0,-12.0,1.873
6.0,-13.0,1.874
8.0,-13.0,1.875
7.0,-11.0,1.876
11.0,-7.0,1.877
12.0,-4.0,1.878
9.0,0.0,1.879
0.0,1.0,1.88
-5.0,-2.0,1.881
-4.0,0.0,1.882
3.0,2.0,1.883
9.0,5.0,1.884
11.0,5.0,1.885
6.0,4.0,1.886
0.0,1.0,1.887
0.0,0.0,1.888
0.0,4.0,1.889
0.0,9.0,1.89
0.0,8.0,1.891
2.0,1.0,1.892
3.0,0.0,1.893
3.0,4.0,1.894
6.0,5.0,1.895
8.0,2.0,1.896
7.0,3.0,1.897
1.0,5.0,1.898
-3.0,8.0,1.899
-6.0,5.0,1.9
-9.0,2.0,1.901
-10.0,3.0,1.902
-2.0,4.0,1.903
9.0,2.0,1.904
10.0,3.0,1.905
1.0,7.0,1.906
-4.0,7.0,1.907
-5.0,0.0,1.908
-7.0,-5.0,1.909
-10.0,-4.0,1.91
-6.0,-2.0,1.911
7.0,-6.0,1.912
21.0,-9.0,1.913
26.0,-10.0,1.914
26.0,-8.0,1.915
25.0,-4.0,1.916
20.0,1.0,1.917
11.0,2.0,1.918
6.0,0.0,1.919
6.0,-5.0,1.92
2.0,-6.0,1.921
-4.0,-2.0,1.922
-1.0,0.0,1.923
11.0,-1.0,1.924
12.0,-2.0,1.925
-1.0,-1.0,1.926
-10.0,0.0,1.927
-4.0,-5.0,1.928
2.0,-8.0,1.929
-2.0,-8.0,1.93
-10.0,-8.0,1.931
-8.0,-8.0,1.932
-3.0,-8.0,1.933
-3.0,-3.0,1.934
-2.0,-1.0,1.935
2.0,-3.0,1.936
9.0,-3.0,1.937
7.0,0.0,1.938
0.0,4.0,1.939
-10.0,4.0,1.94
-20.0,-2.0,1.941
-19.0,-2.0,1.942
-4.0,1.0,1.943
11.0,6.0,1.944
12.0,5.0,1.945
2.0,2.0,1.946
3.0,-3.0,1.947
14.0,-6.0,1.948
14.0,-3.0,1.949
0.0,2.0,1.95
-8.0,3.0,1.951
-3.0,-2.0,1.952
4.0,-7.0,1.953
3.0,-5.0,1.954
2.0,-2.0,1.955
4.0,-3.0,1.956
5.0,-3.0,1.957
-2.0,0.0,1.958
-6.0,3.0,1.959
-7.0,2.0,1.96
-5.0,-3.0,1.961
-3.0,0.0,1.962
2.0,3.0,1.963
14.0,2.0,1.964
20.0,1.0,1.965
16.0,3.0,1.966
7.0,2.0,1.967
7.0,-1.0,1.968
12.0,-3.0,1.969
11.0,1.0,1.97
4.0,5.0,1.971
1.0,0.0,1.972
4.0,-6.0,1.973
5.0,-6.0,1.974
3.0,-2.0,1.975
3.0,-1.0,1.976
4.0,-1.0,1.977
2.0,-3.0,1.978
-4.0,-3.0,1.979
-9.0,-2.0,1.98
-9.0,-4.0,1.981
-7.0,-2.0,1.982
-3.0,-1.0,1.983
3.0,-2.0,1.984
8.0,0.0,1.985
7.0,4.0,1.986
6.0,4.0,1.987
6.0,-3.0,1.988
6.0,-7.0,1.989
4.0,-5.0,1.99
3.0,-2.0,1.991
6.0,-3.0,1.992
6.0,-3.0,1.993
2.0,-2.0,1.994
0.0,-3.0,1.995
1.0,-7.0,1.996
3.0,-5.0,1.997
1.0,-1.0,1.998
0.0,3.0,1.999
0.0,5.0,2.0
-2.0,1.0,2.001
-5.0,0.0,2.002
-1.0,-1.0,2.003
7.0,-2.0,2.004
8.0,0.0,2.005
3.0,3.0,2.006
0.0,5.0,2.007
3.0,8.0,2.008
5.0,12.0,2.009
0.0,10.0,2.01
-2.0,-2.0,2.011
-1.0,-11.0,2.012
2.0,-8.0,2.013
1.0,2.0,2.014
-1.0,4.0,2.015
1.0,0.0,2.016
7.0,-1.0,2.017
9.0,-3.0,2.018
5.0,-9.0,2.019
2.0,-13.0,2.02
0.0,-10.0,2.021
2.0,-2.0,2.022
9.0,0.0,2.023
16.0,-1.0,2.024
17.0,2.0,2.025
6.0,9.0,2.026
-6.0,8.0,2.027
-16.0,2.0,2.028
-24.0,-1.0,2.029
-29.0,-1.0,2.03
-22.0,-3.0,2.031
-9.0,-5.0,2.032
1.0,-3.0,2.033
4.0,-2.0,2.034
9.0,-5.0,2.035
18.0,-8.0,2.036
26.0,-3.0,2.037
24.0,-1.0,2.038
17.0,-2.0,2.039
14.0,-5.0,2.04
14.0,-6.0,2.041
12.0,0.0,2.042
12.0,3.0,2.043
13.0,3.0,2.044
12.0,8.0,2.045
3.0,11.0,2.046
-5.0,5.0,2.047
-6.0,-3.0,2.048
-4.0,-4.0,2.049
-3.0,1.0,2.05
-3.0,4.0,2.051
0.0,0.0,2.052
2.0,-7.0,2.053
4.0,-9.0,2.054
2.0,-6.0,2.055
3.0,0.0,2.056
2.0,4.0,2.057
-1.0,4.0,2.058
-4.0,0.0,2.059
-6.0,-3.0,2.06
-9.0,-7.0,2.061
-8.0,-5.0,2.062
-3.0,-1.0,2.063
1.0,2.0,2.064
0.0,4.0,2.065
-2.0,4.0,2.066
2.0,2.0,2.067
12.0,-1.0,2.068
16.0,-4.0,2.069
10.0,-3.0,2.07
7.0,-2.0,2.071
8.0,-2.0,2.072
9.0,-2.0,2.073
3.0,0.0,2.074
-1.0,0.0,2.075
0.0,-1.0,2.076
1.0,-1.0,2.077
0.0,-1.0,2.078
-1.0,0.0,2.079
-3.0,1.0,2.08
-5.0,0.0,2.081
-6.0,3.0,2.082
-1.0,2.0,2.083
9.0,0.0,2.084
11.0,-2.0,2.085
4.0,1.0,2.086
0.0,1.0,2.087
1.0,-2.0,2.088
3.0,-4.0,2.089
0.0,-2.0,2.09
-1.0,0.0,2.091
-1.0,-2.0,2.092
0.0,-2.0,2.093
0.0,-2.0,2.094
2.0,-3.0,2.095
10.0,-3.0,2.096
15.0,0.0,2.097
15.0,3.0,2.098
10.0,4.0,2.099
3.0,2.0,2.1
-5.0,-4.0,2.101
-10.0,-3.0,2.102
-7.0,-2.0,2.103
-3.0,0.0,2.104
-4.0,1.0,2.105
-6.0,3.0,2.106
-3.0,2.0,2.107
4.0,-2.0,2.108
3.0,-6.0,2.109
-3.0,-5.0,2.11
-4.0,-5.0,2.111
4.0,-5.0,2.112
10.0,-5.0,2.113
7.0,-4.0,2.114
5.0,-1.0,2.115
9.0,2.0,2.116
11.0,7.0,2.117
9.0,7.0,2.118
2.0,3.0,2.119
0.0,-3.0,2.12
-1.0,-9.0,2.121
-4.0,-5.0,2.122
-4.0,-2.0,2.123
-3.0,-3.0,2.124
-2.0,-2.0,2.125
-4.0,4.0,2.126
1.0,9.0,2.127
11.0,6.0,2.128
16.0,-2.0,2.129
12.0,-4.0,2.13
7.0,-2.0,2.131
5.0,2.0,2.132
5.0,2.0,2.133
8.0,-4.0,2.134
15.0,-7.0,2.135
18.0,-7.0,2.136
17.0,-1.0,2.137
10.0,5.0,2.138
9.0,6.0,2.139
5.0,2.0,2.14
-4.0,-5.0,2.141
-11.0,-5.0,2.142
-8.0,-1.0,2.143
0.0,1.0,2.144
-2.0,0.0,2.145
-12.0,-1.0,2.146
-15.0,-1.0,2.147
-9.0,-1.0,2.148
-5.0,-3.0,2.149
-6.0,-3.0,2.15
-3.0,-1.0,2.151
0.0,0.0,2.152
2.0,-1.0,2.153
0.0,-1.0,2.154
0.0,0.0,2.155
4.0,1.0,2.156
8.0,3.0,2.157
9.0,1.0,2.158
10.0,-2.0,2.159
6.0,-3.0,2.16
0.0,-4.0,2.161
-2.0,-1.0,2.162
7.0,2.0,2.163
17.0,5.0,2.164
14.0,7.0,2.165
4.0,5.0,2.166
2.0,-1.0,2.167
7.0,-6.0,2.168
7.0,-6.0,2.169
0.0,-1.0,2.17
-5.0,3.0,2.171
-4.0,3.0,2.172
-4.0,0.0,2.173
-3.0,-4.0,2.174
-3.0,-6.0,2.175
-1.0,-6.0,2.176
-3.0,-4.0,2.177
-1.0,-5.0,2.178
9.0,-8.0,2.179
19.0,-6.0,2.18
16.0,-1.0,2.181
3.0,2.0,2.182
-1.0,0.0,2.183
0.0,-3.0,2.184
-4.0,0.0,2.185
-11.0,5.0,2.186
-5.0,2.0,2.187
8.0,-5.0,2.188
13.0,-7.0,2.189
6.0,-7.0,2.19
4.0,-7.0,2.191
11.0,-7.0,2.192
12.0,-6.0,2.193
2.0,-2.0,2.194
-5.0,-1.0,2.195
-4.0,-3.0,2.196
-3.0,-1.0,2.197
-5.0,3.0,2.198
-3.0,4.0,2.199
4.0,5.0,2.2
10.0,4.0,2.201
7.0,6.0,2.202
10.0,6.0,2.203
14.0,6.0,2.204
11.0,8.0,2.205
-2.0,10.0,2.206
-8.0,5.0,2.207
-2.0,-2.0,2.208
3.0,-4.0,2.209
-2.0,0.0,2.21
-6.0,1.0,2.211
-4.0,-3.0,2.212
0.0,-3.0,2.213
-1.0,0.0,2.214
-2.0,3.0,2.215
1.0,1.0,2.216
9.0,0.0,2.217
8.0,-1.0,2.218
4.0,-1.0,2.219
-1.0,-4.0,2.22
-1.0,-6.0,2.221
2.0,-2.0,2.222
8.0,3.0,2.223
12.0,5.0,2.224
9.0,3.0,2.225
2.0,2.0,2.226
0.0,2.0,2.227
1.0,0.0,2.228
2.0,-1.0,2.229
0.0,-5.0,2.23
-1.0,-7.0,2.231
0.0,-6.0,2.232
0.0,-3.0,2.233
-7.0,-3.0,2.234
-16.0,-6.0,2.235
-16.0,-6.0,2.236
-7.0,0.0,2.237
4.0,1.0,2.238
15.0,-1.0,2.239
20.0,-3.0,2.24
21.0,-2.0,2.241
20.0,0.0,2.242
16.0,-1.0,2.243
13.0,0.0,2.244
12.0,5.0,2.245
10.0,11.0,2.246
8.0,10.0,2.247
4.0,3.0,2.248
1.0,-1.0,2.249
0.0,-3.0,2.25
-1.0,-6.0,2.251
-3.0,-9.0,2.252
-4.0,-6.0,2.253
-2.0,0.0,2.254
-2.0,2.0,2.255
-3.0,0.0,2.256
-4.0,0.0,2.257
-4.0,0.0,2.258
-3.0,2.0,2.259
-5.0,0.0,2.26
-9.0,-5.0,2.261
-7.0,-3.0,2.262
1.0,-1.0,2.263
7.0,1.0,2.264
5.0,4.0,2.265
-1.0,7.0,2.266
-2.0,3.0,2.267
2.0,-5.0,2.268
5.0,-9.0,2.269
7.0,-9.0,2.27
6.0,-5.0,2.271
5.0,-2.0,2.272
3.0,-1.0,2.273
-1.0,-1.0,2.274
-1.0,-5.0,2.275
3.0,-10.0,2.276
11.0,-8.0,2.277
14.0,-3.0,2.278
12.0,6.0,2.279
6.0,9.0,2.28
2.0,4.0,2.281
3.0,0.0,2.282
8.0,-2.0,2.283
6.0,-3.0,2.284
-3.0,-1.0,2.285
-11.0,4.0,2.286
-9.0,5.0,2.287
2.0,1.0,2.288
11.0,-3.0,2.289
10.0,0.0,2.29
3.0,1.0,2.291
0.0,-1.0,2.292
-2.0,-3.0,2.293
-3.0,-2.0,2.294
-3.0,1.0,2.295
0.0,3.0,2.296
3.0,5.0,2.297
5.0,5.0,2.298
5.0,1.0,2.299
2.0,-5.0,2.3
-2.0,-10.0,2.301
-4.0,-6.0,2.302
5.0,-1.0,2.303
18.0,0.0,2.304
19.0,-1.0,2.305
12.0,1.0,2.306
4.0,1.0,2.307
3.0,-1.0,2.308
1.0,-5.0,2.309
-5.0,-5.0,2.31
-9.0,-3.0,2.311
-4.0,-2.0,2.312
1.0,-1.0,2.313
0.0,1.0,2.314
-1.0,1.0,2.315
2.0,0.0,2.316
4.0,1.0,2.317
2.0,4.0,2.318
0.0,5.0,2.319
-1.0,2.0,2.32
-5.0,-3.0,2.321
-13.0,-3.0,2.322
-16.0,0.0,2.323
-13.0,4.0,2.324
-11.0,5.0,2.325
-6.0,5.0,2.326
5.0,5.0,2.327
20.0,4.0,2.328
28.0,2.0,2.329
24.0,-1.0,2.33
17.0,-4.0,2.331
15.0,-7.0,2.332
15.0,-7.0,2.333
8.0,-5.0,2.334
0.0,-4.0,2.335
-1.0,-3.0,2.336
2.0,-1.0,2.337
5.0,-1.0,2.338
5.0,-2.0,2.339
0.0,-2.0,2.34
-5.0,-2.0,2.341
-4.0,1.0,2.342
4.0,4.0,2.343
13.0,5.0,2.344
11.0,3.0,2.345
2.0,2.0,2.346
-5.0,0.0,2.347
-7.0,-5.0,2.348
-8.0,-8.0,2.349
-11.0,-6.0,2.35
-12.0,-4.0,2.351
-7.0,-1.0,2.352
-3.0,-2.0,2.353
-2.0,-3.0,2.354
-2.0,-1.0,2.355
2.0,-2.0,2.356
6.0,-3.0,2.357
9.0,-3.0,2.358
9.0,-1.0,2.359
9.0,3.0,2.36
9.0,0.0,2.361
10.0,-2.0,2.362
10.0,-3.0,2.363
7.0,-1.0,2.364
-2.0,4.0,2.365
-14.0,4.0,2.366
-16.0,-1.0,2.367
-5.0,-7.0,2.368
5.0,-5.0,2.369
9.0,1.0,2.37
9.0,3.0,2.371
9.0,-1.0,2.372
8.0,-4.0,2.373
2.0,-1.0,2.374
-3.0,5.0,2.375
-1.0,5.0,2.376
4.0,3.0,2.377
4.0,2.0,2.378
0.0,3.0,2.379
-2.0,3.0,2.38
2.0,0.0,2.381
8.0,0.0,2.382
11.0,-1.0,2.383
12.0,-3.0,2.384
9.0,-5.0,2.385
5.0,-1.0,2.386
0.0,2.0,2.387
1.0,1.0,2.388
3.0,-2.0,2.389
1.0,0.0,2.39
-1.0,4.0,2.391
-2.0,0.0,2.392
0.0,-7.0,2.393
2.0,-11.0,2.394
0.0,-8.0,2.395
2.0,-3.0,2.396
8.0,-1.0,2.397
9.0,-2.0,2.398
4.0,-3.0,2.399
-5.0,-4.0,2.4
-11.0,-6.0,2.401
-10.0,-5.0,2.402
-4.0,-1.0,2.403
4.0,2.0,2.404
8.0,6.0,2.405
6.0,10.0,2.406
6.0,6.0,2.407
12.0,-1.0,2.408
16.0,-5.0,2.409
9.0,-1.0,2.41
-1.0,2.0,2.411
-4.0,0.0,2.412
2.0,-4.0,2.413
4.0,-2.0,2.414
0.0,1.0,2.415
-3.0,0.0,2.416
1.0,-1.0,2.417
5.0,-4.0,2.418
7.0,-5.0,2.419
5.0,-7.0,2.42
1.0,-11.0,2.421
-2.0,-8.0,2.422
-4.0,-1.0,2.423
-4.0,6.0,2.424
-5.0,13.0,2.425
-6.0,13.0,2.426
1.0,8.0,2.427
15.0,3.0,2.428
25.0,5.0,2.429
23.0,7.0,2.43
16.0,3.0,2.431
7.0,-5.0,2.432
2.0,-8.0,2.433
1.0,-4.0,2.434
5.0,-1.0,2.435
9.0,-3.0,2.436
5.0,-2.0,2.437
-2.0,2.0,2.438
-2.0,5.0,2.439
-2.0,1.0,2.44
-6.0,-7.0,2.441
-12.0,-8.0,2.442
-7.0,-2.0,2.443
3.0,2.0,2.444
8.0,2.0,2.445
5.0,2.0,2.446
4.0,0.0,2.447
7.0,-1.0,2.448
7.0,-3.0,2.449
0.0,-4.0,2.45
-7.0,-3.0,2.451
-10.0,-2.0,2.452
-11.0,1.0,2.453
-8.0,3.0,2.454
0.0,2.0,2.455
10.0,0.0,2.456
13.0,0.0,2.457
5.0,2.0,2.458
0.0,3.0,2.459
-2.0,0.0,2.46
-3.0,-7.0,2.461
-4.0,-5.0,2.462
1.0,-2.0,2.463
9.0,-1.0,2.464
10.0,-2.0,2.465
5.0,0.0,2.466
1.0,4.0,2.467
0.0,4.0,2.468
0.0,-1.0,2.469
-2.0,-5.0,2.47
-6.0,-4.0,2.471
-5.0,-3.0,2.472
-1.0,-1.0,2.473
6.0,-1.0,2.474
12.0,-1.0,2.475
14.0,0.0,2.476
11.0,1.0,2.477
4.0,-2.0,2.478
0.0,-5.0,2.479
-3.0,-4.0,2.48
-2.0,-4.0,2.481
0.0,-5.0,2.482
5.0,-5.0,2.483
11.0,1.0,2.484
15.0,10.0,2.485
14.0,11.0,2.486
11.0,3.0,2.487
7.0,-5.0,2.488
6.0,-3.0,2.489
7.0,2.0,2.49
4.0,0.0,2.491
0.0,-6.0,2.492
-1.0,-11.0,2.493
0.0,-8.0,2.494
-1.0,-6.0,2.495
0.0,-4.0,2.496
2.0,-3.0,2.497
0.0,-1.0,2.498
-3.0,3.0,2.499
-6.0,5.0,2.5
-6.0,-3.0,2.501
-3.0,-7.0,2.502
5.0,-4.0,2.503
11.0,2.0,2.504
8.0,6.0,2.505
4.0,6.0,2.506
2.0,6.0,2.507
1.0,5.0,2.508
1.0,2.0,2.509
0.0,-1.0,2.51
-1.0,-1.0,2.511
-1.0,1.0,2.512
0.0,0.0,2.513
3.0,-1.0,2.514
3.0,0.0,2.515
3.0,4.0,2.516
4.0,5.0,2.517
3.0,2.0,2.518
-3.0,-2.0,2.519
-7.0,-3.0,2.52
-5.0,-5.0,2.521
-5.0,-4.0,2.522
-4.0,-3.0,2.523
0.0,-3.0,2.524
6.0,-2.0,2.525
6.0,1.0,2.526
3.0,2.0,2.527
4.0,1.0,2.528
7.0,-1.0,2.529
2.0,-2.0,2.53
-3.0,-4.0,2.531
-2.0,-9.0,2.532
3.0,-10.0,2.533
2.0,-7.0,2.534
-1.0,0.0,2.535
0.0,3.0,2.536
4.0,5.0,2.537
10.0,4.0,2.538
11.0,2.0,2.539
10.0,0.0,2.54
8.0,-4.0,2.541
8.0,-5.0,2.542
14.0,-4.0,2.543
20.0,-3.0,2.544
13.0,-2.0,2.545
-5.0,0.0,2.546
-18.0,0.0,2.547
-16.0,0.0,2.548
-11.0,0.0,2.549
-11.0,-2.0,2.55
-8.0,-4.0,2.551
0.0,-4.0,2.552
5.0,0.0,2.553
5.0,6.0,2.554
6.0,6.0,2.555
11.0,2.0,2.556
14.0,2.0,2.557
12.0,5.0,2.558
8.0,5.0,2.559
6.0,1.0,2.56
0.0,-4.0,2.561
-5.0,-2.0,2.562
-2.0,2.0,2.563
8.0,2.0,2.564
11.0,3.0,2.565
-1.0,4.0,2.566
-10.0,1.0,2.567
-3.0,-4.0,2.568
10.0,-6.0,2.569
11.0,-1.0,2.57
0.0,1.0,2.571
-9.0,-1.0,2.572
-9.0,-5.0,2.573
-3.0,-5.0,2.574
7.0,-2.0,2.575
18.0,-2.0,2.576
27.0,-3.0,2.577
28.0,-5.0,2.578
24.0,-5.0,2.579
17.0,-1.0,2.58
10.0,0.0,2.581
5.0,3.0,2.582
9.0,3.0,2.583
12.0,2.0,2.584
7.0,2.0,2.585
-2.0,3.0,2.586
-4.0,2.0,2.587
-1.0,-1.0,2.588
0.0,-3.0,2.589
-4.0,-2.0,2.59
-9.0,-2.0,2.591
-6.0,-5.0,2.592
-3.0,-9.0,2.593
-3.0,-9.0,2.594
-3.0,-5.0,2.595
0.0,0.0,2.596
4.0,5.0,2.597
3.0,2.0,2.598
0.0,-2.0,2.599
-5.0,-3.0,2.6
-12.0,-4.0,2.601
-14.0,-2.0,2.602
-7.0,1.0,2.603
3.0,5.0,2.604
6.0,8.0,2.605
0.0,8.0,2.606
-2.0,3.0,2.607
3.0,-1.0,2.608
9.0,-1.0,2.609
5.0,-1.0,2.61
1.0,-3.0,2.611
2.0,-5.0,2.612
5.0,-4.0,2.613
2.0,-1.0,2.614
-4.0,0.0,2.615
-9.0,1.0,2.616
-7.0,2.0,2.617
-2.0,0.0,2.618
1.0,-4.0,2.619
3.0,-5.0,2.62
2.0,-6.0,2.621
7.0,-5.0,2.622
15.0,-6.0,2.623
20.0,-6.0,2.624
18.0,0.0,2.625
8.0,6.0,2.626
2.0,4.0,2.627
2.0,-2.0,2.628
4.0,-3.0,2.629
1.0,-3.0,2.63
0.0,-5.0,2.631
0.0,-7.0,2.632
2.0,-2.0,2.633
1.0,5.0,2.634
0.0,4.0,2.635
0.0,0.0,2.636
2.0,2.0,2.637
2.0,6.0,2.638
2.0,6.0,2.639
-1.0,1.0,2.64
-6.0,-3.0,2.641
-8.0,0.0,2.642
1.0,3.0,2.643
11.0,2.0,2.644
13.0,1.0,2.645
10.0,1.0,2.646
12.0,-3.0,2.647
17.0,-8.0,2.648
13.0,-5.0,2.649
1.0,0.0,2.65
-6.0,0.0,2.651
-6.0,-5.0,2.652
-7.0,-6.0,2.653
-15.0,-3.0,2.654
-20.0,-2.0,2.655
-18.0,-6.0,2.656
-8.0,-5.0,2.657
1.0,-1.0,2.658
10.0,3.0,2.659
16.0,2.0,2.66
17.0,-2.0,2.661
15.0,-2.0,2.662
13.0,0.0,2.663
14.0,0.0,2.664
14.0,0.0,2.665
8.0,-1.0,2.666
3.0,-1.0,2.667
1.0,-1.0,2.668
3.0,0.0,2.669
2.0,2.0,2.67
0.0,1.0,2.671
1.0,-3.0,2.672
5.0,-4.0,2.673
7.0,-1.0,2.674
4.0,2.0,2.675
0.0,-1.0,2.676
1.0,-2.0,2.677
3.0,-2.0,2.678
2.0,0.0,2.679
-3.0,1.0,2.68
-7.0,-1.0,2.681
-4.0,-1.0,2.682
4.0,0.0,2.683
9.0,2.0,2.684
5.0,4.0,2.685
0.0,5.0,2.686
-2.0,7.0,2.687
-2.0,5.0,2.688
-4.0,1.0,2.689
-8.0,-4.0,2.69
-10.0,-7.0,2.691
-7.0,-9.0,2.692
-4.0,-6.0,2.693
-3.0,-1.0,2.694
-3.0,3.0,2.695
0.0,5.0,2.696
7.0,6.0,2.697
12.0,2.0,2.698
14.0,-3.0,2.699
12.0,-5.0,2.7
8.0,-2.0,2.701
4.0,0.0,2.702
4.0,-2.0,2.703
7.0,-5.0,2.704
8.0,-1.0,2.705
0.0,4.0,2.706
-7.0,3.0,2.707
-8.0,-2.0,2.708
-2.0,-3.0,2.709
3.0,0.0,2.71
3.0,-1.0,2.711
0.0,-5.0,2.712
-3.0,-6.0,2.713
-3.0,-1.0,2.714
1.0,5.0,2.715
4.0,4.0,2.716
3.0,2.0,2.717
0.0,-1.0,2.718
2.0,-2.0,2.719
4.0,-1.0,2.72
2.0,-1.0,2.721
-2.0,-4.0,2.722
0.0,-9.0,2.723
5.0,-7.0,2.724
8.0,1.0,2.725
7.0,8.0,2.726
11.0,6.0,2.727
19.0,2.0,2.728
20.0,0.0,2.729
9.0,-1.0,2.73
-5.0,-4.0,2.731
-11.0,-7.0,2.732
-10.0,-5.0,2.733
-4.0,0.0,2.734
0.0,3.0,2.735
5.0,3.0,2.736
8.0,4.0,2.737
10.0,1.0,2.738
13.0,-1.0,2.739
12.0,-3.0,2.74
10.0,-3.0,2.741
6.0,0.0,2.742
10.0,7.0,2.743
10.0,11.0,2.744
0.0,9.0,2.745
-15.0,1.0,2.746
-23.0,-6.0,2.747
-19.0,-6.0,2.748
-6.0,-2.0,2.749
4.0,-3.0,2.75
10.0,-9.0,2.751
8.0,-11.0,2.752
3.0,-8.0,2.753
1.0,-7.0,2.754
7.0,-8.0,2.755
12.0,-6.0,2.756
14.0,1.0,2.757
15.0,5.0,2.758
17.0,2.0,2.759
13.0,-2.0,2.76
2.0,-6.0,2.761
-7.0,-5.0,2.762
-5.0,1.0,2.763
-2.0,6.0,2.764
-3.0,5.0,2.765
-8.0,0.0,2.766
-6.0,-3.0,2.767
0.0,0.0,2.768
0.0,3.0,2.769
-3.0,2.0,2.77
-3.0,0.0,2.771
2.0,1.0,2.772
5.0,2.0,2.773
3.0,-2.0,2.774
3.0,-7.0,2.775
3.0,-5.0,2.776
7.0,0.0,2.777
6.0,1.0,2.778
4.0,1.0,2.779
0.0,1.0,2.78
-3.0,1.0,2.781
-1.0,1.0,2.782
6.0,2.0,2.783
14.0,2.0,2.784
15.0,3.0,2.785
10.0,4.0,2.786
5.0,2.0,2.787
4.0,-2.0,2.788
2.0,-4.0,2.789
-4.0,-5.0,2.79
-11.0,-3.0,2.791
-12.0,-2.0,2.792
-7.0,-4.0,2.793
-3.0,-7.0,2.794
-2.0,-7.0,2.795
-2.0,-3.0,2.796
0.0,3.0,2.797
0.0,2.0,2.798
-4.0,-3.0,2.799
-10.0,-6.0,2.8
-10.0,-6.0,2.801
1.0,-3.0,2.802
17.0,-1.0,2.803
28.0,-1.0,2.804
29.0,0.0,2.805
20.0,1.0,2.806
13.0,-1.0,2.807
10.0,-3.0,2.808
9.0,-2.0,2.809
6.0,0.0,2.81
0.0,-2.0,2.811
-4.0,-3.0,2.812
-4.0,-2.0,2.813
-2.0,0.0,2.814
1.0,1.0,2.815
5.0,0.0,2.816
8.0,3.0,2.817
6.0,3.0,2.818
2.0,1.0,2.819
-2.0,-1.0,2.82
-3.0,-2.0,2.821
-1.0,-1.0,2.822
2.0,-2.0,2.823
5.0,-3.0,2.824
6.0,0.0,2.825
4.0,4.0,2.826
3.0,5.0,2.827
7.0,4.0,2.828
10.0,3.0,2.829
4.0,2.0,2.83
-9.0,0.0,2.831
-19.0,-5.0,2.832
-19.0,-7.0,2.833
-13.0,-8.0,2.834
-7.0,-5.0,2.835
-2.0,0.0,2.836
3.0,6.0,2.837
8.0,5.0,2.838
9.0,2.0,2.839
4.0,0.0,2.84
-2.0,-2.0,2.841
-3.0,-2.0,2.842
2.0,-2.0,2.843
13.0,0.0,2.844
14.0,5.0,2.845
6.0,13.0,2.846
0.0,15.0,2.847
5.0,8.0,2.848
12.0,-4.0,2.849
8.0,-10.0,2.85
-5.0,-7.0,2.851
-14.0,-4.0,2.852
-10.0,-4.0,2.853
1.0,-4.0,2.854
12.0,-5.0,2.855
19.0,-5.0,2.856
23.0,-4.0,2.857
22.0,-5.0,2.858
19.0,-3.0,2.859
11.0,-3.0,2.86
0.0,-6.0,2.861
-9.0,-5.0,2.862
-9.0,-2.0,2.863
-2.0,2.0,2.864
4.0,3.0,2.865
3.0,4.0,2.866
-2.0,5.0,2.867
-4.0,3.0,2.868
-6.0,-2.0,2.869
-11.0,-6.0,2.87
-18.0,-9.0,2.871
-18.0,-8.0,2.872
-12.0,-4.0,2.873
-2.0,-1.0,2.874
10.0,-1.0,2.875
20.0,-3.0,2.876
24.0,-2.0,2.877
19.0,0.0,2.878
10.0,0.0,2.879
2.0,-1.0,2.88
2.0,-4.0,2.881
4.0,-2.0,2.882
5.0,1.0,2.883
5.0,4.0,2.884
7.0,3.0,2.885
4.0,0.0,2.886
0.0,-1.0,2.887
-1.0,-2.0,2.888
4.0,-3.0,2.889
7.0,-3.0,2.89
4.0,-4.0,2.891
-4.0,1.0,2.892
-9.0,5.0,2.893
-8.0,6.0,2.894
-3.0,0.0,2.895
0.0,-4.0,2.896
3.0,0.0,2.897
2.0,6.0,2.898
-1.0,8.0,2.899
-6.0,8.0,2.9
-8.0,1.0,2.901
-4.0,-5.0,2.902
5.0,-5.0,2.903
12.0,-3.0,2.904
8.0,2.0,2.905
-1.0,6.0,2.906
-3.0,4.0,2.907
3.0,2.0,2.908
9.0,-1.0,2.909
9.0,-3.0,2.91
8.0,-1.0,2.911
11.0,0.0,2.912
15.0,-3.0,2.913
12.0,-6.0,2.914
-1.0,-4.0,2.915
-13.0,-3.0,2.916
-16.0,-4.0,2.917
-13.0,-5.0,2.918
-10.0,-6.0,2.919
-10.0,-6.0,2.92
-10.0,-6.0,2.921
-2.0,-1.0,2.922
12.0,6.0,2.923
20.0,8.0,2.924
16.0,7.0,2.925
5.0,5.0,2.926
4.0,2.0,2.927
12.0,-4.0,2.928
15.0,-5.0,2.929
9.0,-2.0,2.93
3.0,0.0,2.931
2.0,-5.0,2.932
0.0,-9.0,2.933
-3.0,-9.0,2.934
-2.0,-6.0,2.935
2.0,-5.0,2.936
0.0,0.0,2.937
-9.0,7.0,2.938
-18.0,11.0,2.939
-19.0,8.0,2.94
-15.0,-1.0,2.941
-7.0,-5.0,2.942
8.0,-1.0,2.943
28.0,4.0,2.944
35.0,6.0,2.945
26.0,6.0,2.946
11.0,0.0,2.947
2.0,-8.0,2.948
3.0,-7.0,2.949
3.0,-3.0,2.95
0.0,-4.0,2.951
-3.0,-7.0,2.952
-4.0,-7.0,2.953
-2.0,-3.0,2.954
0.0,-1.0,2.955
1.0,-3.0,2.956
2.0,1.0,2.957
2.0,6.0,2.958
0.0,6.0,2.959
-3.0,1.0,2.96
-4.0,-2.0,2.961
0.0,0.0,2.962
8.0,0.0,2.963
13.0,-6.0,2.964
13.0,-10.0,2.965
6.0,-7.0,2.966
2.0,-4.0,2.967
5.0,-2.0,2.968
6.0,0.0,2.969
4.0,5.0,2.97
1.0,4.0,2.971
1.0,-3.0,2.972
1.0,-8.0,2.973
-2.0,-6.0,2.974
-7.0,-1.0,2.975
-9.0,0.0,2.976
-4.0,3.0,2.977
1.0,5.0,2.978
3.0,5.0,2.979
1.0,0.0,2.98
-2.0,-7.0,2.981
0.0,-5.0,2.982
7.0,0.0,2.983
12.0,2.0,2.984
10.0,3.0,2.985
6.0,4.0,2.986
3.0,2.0,2.987
2.0,-2.0,2.988
-2.0,-4.0,2.989
-5.0,-2.0,2.99
-4.0,-2.0,2.991
1.0,-7.0,2.992
2.0,-8.0,2.993
-2.0,-2.0,2.994
-5.0,1.0,2.995
-3.0,0.0,2.996
2.0,-2.0,2.997
6.0,0.0,2.998
7.0,0.0,2.999
3.0,-1.0,3.0
-1.0,-5.0,3.001
-3.0,-3.0,3.002
0.0,-2.0,3.003
7.0,-2.0,3.004
8.0,-3.0,3.005
3.0,-2.0,3.006
1.0,-4.0,3.007
3.0,-6.0,3.008
4.0,-3.0,3.009
1.0,2.0,3.01
1.0,3.0,3.011
4.0,-1.0,3.012
3.0,-4.0,3.013
-2.0,-1.0,3.014
-3.0,1.0,3.015
1.0,3.0,3.016
5.0,8.0,3.017
2.0,11.0,3.018
0.0,8.0,3.019
1.0,1.0,3.02
1.0,-2.0,3.021
4.0,1.0,3.022
15.0,2.0,3.023
28.0,-3.0,3.024
28.0,-6.0,3.025
10.0,-3.0,3.026
-3.0,1.0,3.027
-4.0,0.0,3.028
-6.0,0.0,3.029
-15.0,-2.0,3.03
-19.0,-6.0,3.031
-12.0,-9.0,3.032
-3.0,-10.0,3.033
-2.0,-8.0,3.034
-3.0,-2.0,3.035
5.0,5.0,3.036
13.0,13.0,3.037
15.0,12.0,3.038
11.0,4.0,3.039
7.0,0.0,3.04
0.0,3.0,3.041
-7.0,7.0,3.042
-9.0,4.0,3.043
-5.0,-3.0,3.044
-8.0,-5.0,3.045
-16.0,-2.0,3.046
-15.0,3.0,3.047
0.0,3.0,3.048
16.0,0.0,3.049
21.0,-1.0,3.05
22.0,-2.0,3.051
27.0,-3.0,3.052
25.0,-3.0,3.053
17.0,-2.0,3.054
11.0,-1.0,3.055
13.0,-1.0,3.056
15.0,2.0,3.057
7.0,3.0,3.058
1.0,2.0,3.059
3.0,-3.0,3.06
5.0,-10.0,3.061
0.0,-10.0,3.062
-4.0,-6.0,3.063
-1.0,-2.0,3.064
0.0,0.0,3.065
-4.0,0.0,3.066
-6.0,-2.0,3.067
1.0,-3.0,3.068
9.0,-4.0,3.069
4.0,-3.0,3.07
-4.0,-2.0,3.071
-6.0,-5.0,3.072
-5.0,-5.0,3.073
-6.0,-3.0,3.074
-7.0,0.0,3.075
-5.0,0.0,3.076
-1.0,-1.0,3.077
-2.0,-2.0,3.078
-6.0,-1.0,3.079
-6.0,-1.0,3.08
-4.0,-3.0,3.081
-1.0,-2.0,3.082
5.0,2.0,3.083
13.0,5.0,3.084
11.0,6.0,3.085
3.0,8.0,3.086
0.0,3.0,3.087
3.0,-4.0,3.088
6.0,-10.0,3.089
4.0,-8.0,3.09
3.0,-3.0,3.091
8.0,1.0,3.092
11.0,4.0,3.093
8.0,5.0,3.094
4.0,3.0,3.095
4.0,0.0,3.096
7.0,1.0,3.097
1.0,2.0,3.098
-9.0,5.0,3.099
-20.0,4.0,3.1
-20.0,2.0,3.101
-11.0,6.0,3.102
4.0,6.0,3.103
17.0,1.0,3.104
18.0,-2.0,3.105
14.0,0.0,3.106
8.0,3.0,3.107
5.0,-3.0,3.108
2.0,-9.0,3.109
0.0,-8.0,3.11
-2.0,-3.0,3.111
-1.0,-3.0,3.112
-2.0,-7.0,3.113
-2.0,-4.0,3.114
1.0,2.0,3.115
8.0,3.0,3.116
14.0,2.0,3.117
16.0,0.0,3.118
14.0,-1.0,3.119
7.0,-4.0,3.12
0.0,-7.0,3.121
-4.0,-3.0,3.122
-2.0,3.0,3.123
1.0,5.0,3.124
2.0,4.0,3.125
0.0,4.0,3.126
-4.0,4.0,3.127
-10.0,3.0,3.128
-15.0,0.0,3.129
-15.0,-3.0,3.13
-5.0,-5.0,3.131
10.0,-5.0,3.132
20.0,-4.0,3.133
22.0,-4.0,3.134
21.0,-5.0,3.135
22.0,-3.0,3.136
22.0,3.0,3.137
19.0,9.0,3.138
15.0,7.0,3.139
2.0,0.0,3.14
-17.0,-4.0,3.141
-25.0,-2.0,3.142
-13.0,-1.0,3.143
9.0,-2.0,3.144
17.0,-1.0,3.145
8.0,1.0,3.146
3.0,0.0,3.147
10.0,-4.0,3.148
14.0,-4.0,3.149
5.0,1.0,3.15
-1.0,5.0,3.151
2.0,2.0,3.152
5.0,-2.0,3.153
-1.0,-1.0,3.154
-8.0,-1.0,3.155
-3.0,-5.0,3.156
5.0,-6.0,3.157
3.0,-5.0,3.158
-3.0,1.0,3.159
-8.0,6.0,3.16
-11.0,5.0,3.161
-13.0,5.0,3.162
-8.0,4.0,3.163
2.0,3.0,3.164
8.0,4.0,3.165
3.0,6.0,3.166
-3.0,4.0,3.167
-3.0,-3.0,3.168
0.0,-12.0,3.169
0.0,-12.0,3.17
-2.0,-5.0,3.171
0.0,1.0,3.172
1.0,0.0,3.173
3.0,-2.0,3.174
5.0,-2.0,3.175
6.0,-2.0,3.176
5.0,-2.0,3.177
2.0,-5.0,3.178
0.0,0.0,3.179
-1.0,9.0,3.18
-3.0,9.0,3.181
-4.0,2.0,3.182
0.0,-2.0,3.183
7.0,1.0,3.184
10.0,5.0,3.185
8.0,0.0,3.186
7.0,-9.0,3.187
8.0,-13.0,3.188
5.0,-11.0,3.189
0.0,-9.0,3.19
0.0,-9.0,3.191
1.0,-5.0,3.192
3.0,3.0,3.193
2.0,11.0,3.194
3.0,8.0,3.195
2.0,1.0,3.196
0.0,1.0,3.197
-3.0,2.0,3.198
-5.0,1.0,3.199
-7.0,-5.0,3.2
-8.0,-8.0,3.201
-1.0,-3.0,3.202
11.0,4.0,3.203
23.0,8.0,3.204
24.0,13.0,3.205
17.0,17.0,3.206
13.0,12.0,3.207
12.0,0.0,3.208
9.0,-7.0,3.209
0.0,-7.0,3.21
-8.0,-9.0,3.211
-12.0,-16.0,3.212
-17.0,-16.0,3.213
-22.0,-8.0,3.214
-21.0,0.0,3.215
-8.0,-1.0,3.216
11.0,-2.0,3.217
24.0,1.0,3.218
28.0,6.0,3.219
24.0,4.0,3.22
17.0,-6.0,3.221
10.0,-6.0,3.222
6.0,0.0,3.223
5.0,3.0,3.224
5.0,4.0,3.225
2.0,4.0,3.226
-4.0,3.0,3.227
-11.0,-1.0,3.228
-15.0,-8.0,3.229
-16.0,-9.0,3.23
-15.0,-6.0,3.231
-13.0,-6.0,3.232
-11.0,-7.0,3.233
-7.0,-5.0,3.234
-5.0,0.0,3.235
-4.0,4.0,3.236
-3.0,7.0,3.237
-1.0,5.0,3.238
4.0,4.0,3.239
8.0,1.0,3.24
10.0,-1.0,3.241
14.0,-1.0,3.242
20.0,-3.0,3.243
24.0,-6.0,3.244
22.0,-6.0,3.245
10.0,-5.0,3.246
-1.0,-5.0,3.247
-6.0,-5.0,3.248
-4.0,-4.0,3.249
-2.0,-4.0,3.25
-3.0,-7.0,3.251
-7.0,-8.0,3.252
-8.0,-4.0,3.253
-7.0,0.0,3.254
-3.0,1.0,3.255
7.0,5.0,3.256
24.0,11.0,3.257
36.0,14.0,3.258
35.0,12.0,3.259
19.0,6.0,3.26
0.0,1.0,3.261
-8.0,4.0,3.262
-7.0,7.0,3.263
-7.0,8.0,3.264
-7.0,8.0,3.265
-3.0,7.0,3.266
7.0,4.0,3.267
16.0,-1.0,3.268
13.0,-5.0,3.269
2.0,-8.0,3.27
-4.0,-10.0,3.271
0.0,-9.0,3.272
4.0,-3.0,3.273
-1.0,6.0,3.274
-10.0,9.0,3.275
-12.0,6.0,3.276
-2.0,1.0,3.277
9.0,-4.0,3.278
8.0,-7.0,3.279
-8.0,-6.0,3.28
-28.0,-9.0,3.281
-38.0,-10.0,3.282
-27.0,-11.0,3.283
0.0,-7.0,3.284
26.0,3.0,3.285
35.0,11.0,3.286
35.0,10.0,3.287
37.0,1.0,3.288
37.0,-6.0,3.289
30.0,-6.0,3.29
17.0,-3.0,3.291
6.0,-5.0,3.292
2.0,-6.0,3.293
0.0,-3.0,3.294
-6.0,2.0,3.295
-10.0,-2.0,3.296
-7.0,-7.0,3.297
-8.0,-8.0,3.298
-9.0,2.0,3.299
-11.0,11.0,3.3
-12.0,6.0,3.301
-12.0,-1.0,3.302
-7.0,-1.0,3.303
-3.0,2.0,3.304
-1.0,1.0,3.305
0.0,-3.0,3.306
1.0,-6.0,3.307
1.0,-3.0,3.308
0.0,-1.0,3.309
-4.0,-3.0,3.31
-9.0,-6.0,3.311
-12.0,-8.0,3.312
-5.0,-6.0,3.313
1.0,-2.0,3.314
2.0,-1.0,3.315
3.0,-3.0,3.316
4.0,-3.0,3.317
6.0,1.0,3.318
5.0,8.0,3.319
3.0,9.0,3.32
0.0,3.0,3.321
-3.0,0.0,3.322
0.0,1.0,3.323
8.0,3.0,3.324
11.0,5.0,3.325
5.0,6.0,3.326
2.0,5.0,3.327
3.0,0.0,3.328
6.0,-6.0,3.329
4.0,-5.0,3.33
2.0,5.0,3.331
5.0,14.0,3.332
8.0,12.0,3.333
8.0,2.0,3.334
10.0,-4.0,3.335
14.0,-3.0,3.336
17.0,2.0,3.337
16.0,1.0,3.338
15.0,-1.0,3.339
10.0,-3.0,3.34
2.0,-6.0,3.341
-4.0,-6.0,3.342
-1.0,-5.0,3.343
5.0,0.0,3.344
0.0,6.0,3.345
-16.0,7.0,3.346
-28.0,3.0,3.347
-22.0,-3.0,3.348
-8.0,-5.0,3.349
-1.0,-4.0,3.35
-11.0,-5.0,3.351
-23.0,-7.0,3.352
-25.0,-9.0,3.353
-10.0,-8.0,3.354
14.0,-8.0,3.355
29.0,-7.0,3.356
28.0,-3.0,3.357
15.0,1.0,3.358
6.0,-4.0,3.359
4.0,-11.0,3.36
9.0,-12.0,3.361
16.0,2.0,3.362
30.0,16.0,3.363
42.0,13.0,3.364
38.0,1.0,3.365
21.0,-6.0,3.366
14.0,-5.0,3.367
19.0,0.0,3.368
21.0,2.0,3.369
10.0,3.0,3.37
-1.0,1.0,3.371
-3.0,-2.0,3.372
-5.0,-1.0,3.373
-16.0,1.0,3.374
-21.0,0.0,3.375
-17.0,-2.0,3.376
-10.0,-4.0,3.377
-10.0,-3.0,3.378
-10.0,-1.0,3.379
-9.0,1.0,3.38
-10.0,1.0,3.381
-15.0,4.0,3.382
-7.0,4.0,3.383
14.0,0.0,3.384
28.0,-1.0,3.385
23.0,1.0,3.386
9.0,1.0,3.387
-6.0,-1.0,3.388
-17.0,-5.0,3.389
-23.0,-6.0,3.39
-29.0,-10.0,3.391
-33.0,-15.0,3.392
-35.0,-10.0,3.393
-28.0,4.0,3.394
-10.0,16.0,3.395
8.0,15.0,3.396
11.0,5.0,3.397
-1.0,-3.0,3.398
-5.0,-2.0,3.399
6.0,1.0,3.4
21.0,-2.0,3.401
23.0,-7.0,3.402
25.0,-9.0,3.403
32.0,-6.0,3.404
36.0,-3.0,3.405
27.0,4.0,3.406
16.0,14.0,3.407
12.0,18.0,3.408
11.0,10.0,3.409
4.0,-4.0,3.41
-3.0,-10.0,3.411
-6.0,-8.0,3.412
-11.0,-5.0,3.413
-18.0,-5.0,3.414
-19.0,-6.0,3.415
-9.0,-6.0,3.416
2.0,-4.0,3.417
5.0,-3.0,3.418
8.0,1.0,3.419
13.0,3.0,3.42
14.0,-4.0,3.421
10.0,-12.0,3.422
14.0,-13.0,3.423
22.0,0.0,3.424
22.0,14.0,3.425
7.0,15.0,3.426
-9.0,6.0,3.427
-12.0,0.0,3.428
-6.0,5.0,3.429
-4.0,11.0,3.43
-4.0,7.0,3.431
0.0,-2.0,3.432
3.0,-5.0,3.433
3.0,-2.0,3.434
5.0,-2.0,3.435
12.0,-6.0,3.436
18.0,-5.0,3.437
14.0,-2.0,3.438
4.0,-5.0,3.439
-5.0,-7.0,3.44
-10.0,-8.0,3.441
-10.0,-6.0,3.442
-2.0,-10.0,3.443
7.0,-13.0,3.444
2.0,-4.0,3.445
-9.0,6.0,3.446
-13.0,5.0,3.447
-5.0,0.0,3.448
0.0,-1.0,3.449
-3.0,1.0,3.45
-2.0,-2.0,3.451
9.0,-7.0,3.452
12.0,-2.0,3.453
1.0,8.0,3.454
-5.0,6.0,3.455
0.0,-5.0,3.456
9.0,-10.0,3.457
7.0,-7.0,3.458
-1.0,0.0,3.459
-8.0,5.0,3.46
-15.0,2.0,3.461
-20.0,1.0,3.462
-16.0,4.0,3.463
0.0,8.0,3.464
18.0,9.0,3.465
29.0,6.0,3.466
33.0,0.0,3.467
34.0,-4.0,3.468
26.0,-2.0,3.469
15.0,2.0,3.47
10.0,2.0,3.471
7.0,-3.0,3.472
-1.0,-7.0,3.473
-14.0,-6.0,3.474
-17.0,-5.0,3.475
-10.0,-4.0,3.476
-5.0,-6.0,3.477
-8.0,-9.0,3.478
-11.0,-9.0,3.479
-12.0,-9.0,3.48
-12.0,-11.0,3.481
-10.0,-9.0,3.482
-5.0,0.0,3.483
-3.0,9.0,3.484
-8.0,11.0,3.485
-12.0,8.0,3.486
0.0,5.0,3.487
17.0,4.0,3.488
24.0,3.0,3.489
23.0,3.0,3.49
23.0,3.0,3.491
22.0,2.0,3.492
12.0,3.0,3.493
-1.0,5.0,3.494
-4.0,9.0,3.495
-3.0,10.0,3.496
-2.0,9.0,3.497
0.0,5.0,3.498
14.0,4.0,3.499
24.0,2.0,3.5
23.0,-3.0,3.501
14.0,-3.0,3.502
10.0,-1.0,3.503
1.0,0.0,3.504
-16.0,-4.0,3.505
-27.0,-10.0,3.506
-18.0,-11.0,3.507
0.0,-11.0,3.508
4.0,-11.0,3.509
0.0,-10.0,3.51
4.0,-8.0,3.511
15.0,-6.0,3.512
17.0,-4.0,3.513
15.0,0.0,3.514
17.0,9.0,3.515
20.0,17.0,3.516
15.0,17.0,3.517
4.0,10.0,3.518
0.0,1.0,3.519
-4.0,-3.0,3.52
-5.0,-2.0,3.521
-5.0,5.0,3.522
-1.0,12.0,3.523
1.0,10.0,3.524
0.0,0.0,3.525
-2.0,-8.0,3.526
0.0,-10.0,3.527
1.0,-13.0,3.528
-3.0,-14.0,3.529
-5.0,-11.0,3.53
-2.0,-4.0,3.531
0.0,0.0,3.532
-1.0,0.0,3.533
-3.0,1.0,3.534
-4.0,3.0,3.535
-5.0,4.0,3.536
-6.0,3.0,3.537
-8.0,0.0,3.538
-12.0,-1.0,3.539
-11.0,-1.0,3.54
-11.0,-5.0,3.541
-12.0,-8.0,3.542
-9.0,-8.0,3.543
1.0,-2.0,3.544
12.0,8.0,3.545
15.0,16.0,3.546
15.0,16.0,3.547
19.0,4.0,3.548
26.0,-8.0,3.549
25.0,-15.0,3.55
16.0,-17.0,3.551
9.0,-16.0,3.552
10.0,-9.0,3.553
11.0,1.0,3.554
7.0,4.0,3.555
3.0,-2.0,3.556
9.0,-9.0,3.557
14.0,-7.0,3.558
11.0,1.0,3.559
-5.0,0.0,3.56
-21.0,-9.0,3.561
-24.0,-12.0,3.562
-15.0,-1.0,3.563
0.0,10.0,3.564
8.0,12.0,3.565
4.0,10.0,3.566
3.0,12.0,3.567
11.0,12.0,3.568
18.0,8.0,3.569
14.0,0.0,3.57
-1.0,0.0,3.571
-13.0,9.0,3.572
-17.0,15.0,3.573
-16.0,10.0,3.574
-14.0,0.0,3.575
-11.0,-7.0,3.576
-5.0,-4.0,3.577
-3.0,-3.0,3.578
0.0,-7.0,3.579
4.0,-11.0,3.58
10.0,-12.0,3.581
17.0,-8.0,3.582
26.0,-5.0,3.583
30.0,-4.0,3.584
24.0,-2.0,3.585
10.0,0.0,3.586
-3.0,0.0,3.587
-5.0,-2.0,3.588
-2.0,-6.0,3.589
1.0,-8.0,3.59
-1.0,-10.0,3.591
-1.0,-8.0,3.592
0.0,-4.0,3.593
4.0,-3.0,3.594
5.0,-2.0,3.595
0.0,0.0,3.596
-7.0,6.0,3.597
-13.0,3.0,3.598
-8.0,-5.0,3.599
0.0,-8.0,3.6
9.0,-5.0,3.601
16.0,1.0,3.602
23.0,0.0,3.603
26.0,-2.0,3.604
18.0,4.0,3.605
4.0,11.0,3.606
-1.0,6.0,3.607
3.0,-5.0,3.608
5.0,-9.0,3.609
2.0,-4.0,3.61
0.0,-1.0,3.611
0.0,-3.0,3.612
-4.0,-3.0,3.613
-10.0,0.0,3.614
-8.0,3.0,3.615
0.0,6.0,3.616
7.0,15.0,3.617
2.0,27.0,3.618
-4.0,35.0,3.619
-8.0,30.0,3.62
-5.0,9.0,3.621
-2.0,-11.0,3.622
3.0,-17.0,3.623
8.0,-11.0,3.624
8.0,0.0,3.625
4.0,5.0,3.626
2.0,3.0,3.627
2.0,-4.0,3.628
-1.0,-8.0,3.629
-10.0,-10.0,3.63
-13.0,-10.0,3.631
-6.0,-10.0,3.632
0.0,-7.0,3.633
3.0,-2.0,3.634
3.0,0.0,3.635
3.0,0.0,3.636
1.0,0.0,3.637
-3.0,0.0,3.638
-3.0,3.0,3.639
-2.0,0.0,3.64
4.0,-6.0,3.641
15.0,-8.0,3.642
24.0,-6.0,3.643
26.0,-5.0,3.644
16.0,-6.0,3.645
7.0,-4.0,3.646
10.0,-1.0,3.647
14.0,-2.0,3.648
7.0,-2.0,3.649
-2.0,3.0,3.65
-1.0,6.0,3.651
4.0,-3.0,3.652
5.0,-13.0,3.653
2.0,-12.0,3.654
3.0,-6.0,3.655
4.0,-3.0,3.656
1.0,0.0,3.657
-4.0,3.0,3.658
-6.0,2.0,3.659
-9.0,-10.0,3.66
-16.0,-21.0,3.661
-15.0,-12.0,3.662
-2.0,7.0,3.663
14.0,20.0,3.664
14.0,20.0,3.665
4.0,15.0,3.666
1.0,7.0,3.667
8.0,-3.0,3.668
10.0,-9.0,3.669
3.0,-8.0,3.67
-3.0,-4.0,3.671
-6.0,-2.0,3.672
-10.0,-3.0,3.673
-13.0,-3.0,3.674
-10.0,-1.0,3.675
-3.0,4.0,3.676
4.0,10.0,3.677
4.0,11.0,3.678
3.0,6.0,3.679
1.0,3.0,3.68
0.0,1.0,3.681
4.0,4.0,3.682
11.0,0.0,3.683
16.0,-4.0,3.684
14.0,0.0,3.685
7.0,3.0,3.686
4.0,-3.0,3.687
3.0,-16.0,3.688
2.0,-16.0,3.689
2.0,-8.0,3.69
5.0,-5.0,3.691
1.0,-13.0,3.692
-6.0,-17.0,3.693
-9.0,-8.0,3.694
-1.0,5.0,3.695
9.0,13.0,3.696
12.0,14.0,3.697
5.0,10.0,3.698
6.0,6.0,3.699
15.0,2.0,3.7
26.0,0.0,3.701
30.0,1.0,3.702
24.0,0.0,3.703
14.0,-6.0,3.704
2.0,-10.0,3.705
-9.0,-3.0,3.706
-19.0,8.0,3.707
-28.0,18.0,3.708
-35.0,22.0,3.709
-34.0,19.0,3.71
-20.0,6.0,3.711
0.0,-10.0,3.712
18.0,-13.0,3.713
22.0,-2.0,3.714
14.0,6.0,3.715
4.0,0.0,3.716
3.0,-7.0,3.717
0.0,-8.0,3.718
-7.0,-6.0,3.719
-15.0,-12.0,3.72
-15.0,-18.0,3.721
-7.0,-11.0,3.722
8.0,-2.0,3.723
24.0,-4.0,3.724
32.0,-8.0,3.725
22.0,-6.0,3.726
8.0,-1.0,3.727
5.0,-4.0,3.728
12.0,-5.0,3.729
14.0,3.0,3.73
7.0,10.0,3.731
5.0,1.0,3.732
13.0,-12.0,3.733
11.0,-11.0,3.734
-4.0,-1.0,3.735
-21.0,4.0,3.736
-23.0,7.0,3.737
-13.0,7.0,3.738
1.0,4.0,3.739
12.0,-8.0,3.74
18.0,-20.0,3.741
19.0,-9.0,3.742
17.0,17.0,3.743
11.0,30.0,3.744
-1.0,22.0,3.745
-9.0,9.0,3.746
-6.0,10.0,3.747
0.0,17.0,3.748
-2.0,15.0,3.749
-14.0,4.0,3.75
-20.0,-11.0,3.751
-18.0,-24.0,3.752
-13.0,-27.0,3.753
-4.0,-16.0,3.754
12.0,-2.0,3.755
23.0,3.0,3.756
28.0,3.0,3.757
30.0,6.0,3.758
40.0,13.0,3.759
38.0,11.0,3.76
20.0,-1.0,3.761
0.0,-1.0,3.762
3.0,9.0,3.763
19.0,11.0,3.764
19.0,-5.0,3.765
-1.0,-19.0,3.766
-21.0,-19.0,3.767
-31.0,-14.0,3.768
-38.0,-17.0,3.769
-39.0,-24.0,3.77
-27.0,-22.0,3.771
-4.0,-11.0,3.772
15.0,3.0,3.773
30.0,19.0,3.774
39.0,27.0,3.775
37.0,17.0,3.776
21.0,4.0,3.777
0.0,1.0,3.778
-2.0,11.0,3.779
6.0,16.0,3.78
7.0,2.0,3.781
1.0,-11.0,3.782
8.0,-18.0,3.783
27.0,-21.0,3.784
34.0,-25.0,3.785
18.0,-27.0,3.786
-6.0,-19.0,3.787
-18.0,-10.0,3.788
-22.0,-4.0,3.789
-28.0,0.0,3.79
-34.0,3.0,3.791
-37.0,-3.0,3.792
-36.0,-10.0,3.793
-29.0,-5.0,3.794
-17.0,6.0,3.795
-4.0,12.0,3.796
-3.0,16.0,3.797
-8.0,26.0,3.798
-8.0,34.0,3.799
-2.0,27.0,3.8
0.0,10.0,3.801
-5.0,9.0,3.802
-3.0,14.0,3.803
7.0,7.0,3.804
15.0,-2.0,3.805
13.0,11.0,3.806
10.0,28.0,3.807
12.0,16.0,3.808
11.0,-15.0,3.809
7.0,-30.0,3.81
10.0,-18.0,3.811
21.0,-6.0,3.812
29.0,-7.0,3.813
25.0,-8.0,3.814
19.0,-2.0,3.815
16.0,6.0,3.816
14.0,12.0,3.817
5.0,14.0,3.818
-1.0,2.0,3.819
1.0,-22.0,3.82
8.0,-37.0,3.821
11.0,-19.0,3.822
14.0,8.0,3.823
17.0,16.0,3.824
18.0,4.0,3.825
13.0,-7.0,3.826
5.0,-12.0,3.827
2.0,-20.0,3.828
-2.0,-23.0,3.829
-9.0,-5.0,3.83
-17.0,23.0,3.831
-17.0,38.0,3.832
-11.0,32.0,3.833
-5.0,15.0,3.834
0.0,1.0,3.835
4.0,-8.0,3.836
8.0,-10.0,3.837
1.0,-11.0,3.838
-15.0,-19.0,3.839
-31.0,-30.0,3.84
-38.0,-34.0,3.841
-28.0,-19.0,3.842
-10.0,3.0,3.843
13.0,15.0,3.844
34.0,16.0,3.845
50.0,12.0,3.846
52.0,5.0,3.847
41.0,-2.0,3.848
30.0,-5.0,3.849
30.0,-8.0,3.85
32.0,-18.0,3.851
22.0,-26.0,3.852
-1.0,-18.0,3.853
-16.0,0.0,3.854
-17.0,10.0,3.855
-13.0,8.0,3.856
-13.0,11.0,3.857
-12.0,18.0,3.858
-6.0,23.0,3.859
-4.0,14.0,3.86
-3.0,5.0,3.861
1.0,9.0,3.862
8.0,11.0,3.863
2.0,0.0,3.864
-20.0,-16.0,3.865
-44.0,-22.0,3.866
-49.0,-21.0,3.867
-36.0,-17.0,3.868
-22.0,-10.0,3.869
-21.0,-3.0,3.87
-20.0,-3.0,3.871
-9.0,-12.0,3.872
17.0,-18.0,3.873
40.0,-11.0,3.874
51.0,8.0,3.875
58.0,28.0,3.876
61.0,37.0,3.877
56.0,35.0,3.878
38.0,31.0,3.879
17.0,22.0,3.88
2.0,-1.0,3.881
-6.0,-25.0,3.882
-14.0,-30.0,3.883
-21.0,-10.0,3.884
-23.0,12.0,3.885
-22.0,15.0,3.886
-16.0,5.0,3.887
-2.0,-13.0,3.888
11.0,-33.0,3.889
12.0,-41.0,3.89
7.0,-21.0,3.891
11.0,11.0,3.892
22.0,19.0,3.893
26.0,4.0,3.894
19.0,0.0,3.895
12.0,16.0,3.896
11.0,25.0,3.897
8.0,6.0,3.898
0.0,-13.0,3.899
-3.0,-19.0,3.9
-3.0,-25.0,3.901
-10.0,-27.0,3.902
-23.0,-9.0,3.903
-29.0,24.0,3.904
-24.0,38.0,3.905
-20.0,22.0,3.906
-30.0,6.0,3.907
-45.0,11.0,3.908
-49.0,19.0,3.909
-36.0,9.0,3.91
-12.0,-9.0,3.911
12.0,-21.0,3.912
27.0,-22.0,3.913
32.0,-12.0,3.914
34.0,5.0,3.915
39.0,20.0,3.916
40.0,24.0,3.917
29.0,14.0,3.918
14.0,0.0,3.919
0.0,-13.0,3.92
-6.0,-25.0,3.921
-9.0,-25.0,3.922
-5.0,-14.0,3.923
2.0,-3.0,3.924
7.0,5.0,3.925
5.0,9.0,3.926
1.0,8.0,3.927
3.0,1.0,3.928
11.0,0.0,3.929
12.0,4.0,3.93
4.0,3.0,3.931
-6.0,-8.0,3.932
-5.0,-13.0,3.933
9.0,3.0,3.934
20.0,14.0,3.935
15.0,-5.0,3.936
3.0,-28.0,3.937
3.0,-26.0,3.938
19.0,6.0,3.939
23.0,33.0,3.94
7.0,19.0,3.941
-8.0,-4.0,3.942
-7.0,-7.0,3.943
-1.0,-1.0,3.944
-5.0,-6.0,3.945
-10.0,-9.0,3.946
-1.0,2.0,3.947
21.0,16.0,3.948
34.0,13.0,3.949
35.0,-2.0,3.95
34.0,-11.0,3.951
30.0,-14.0,3.952
14.0,-10.0,3.953
-8.0,3.0,3.954
-20.0,19.0,3.955
-19.0,20.0,3.956
-10.0,12.0,3.957
-4.0,15.0,3.958
3.0,20.0,3.959
3.0,3.0,3.96
-5.0,-29.0,3.961
-11.0,-36.0,3.962
-4.0,-12.0,3.963
-1.0,2.0,3.964
-15.0,-5.0,3.965
-28.0,-10.0,3.966
-14.0,5.0,3.967
18.0,17.0,3.968
35.0,11.0,3.969
24.0,0.0,3.97
14.0,-4.0,3.971
19.0,-10.0,3.972
17.0,-16.0,3.973
-3.0,-8.0,3.974
-20.0,11.0,3.975
-13.0,18.0,3.976
2.0,2.0,3.977
1.0,-21.0,3.978
-16.0,-31.0,3.979
-33.0,-26.0,3.98
-42.0,-9.0,3.981
-45.0,10.0,3.982
-34.0,14.0,3.983
-3.0,-4.0,3.984
33.0,-13.0,3.985
48.0,13.0,3.986
43.0,45.0,3.987
35.0,39.0,3.988
27.0,8.0,3.989
12.0,3.0,3.99
-3.0,31.0,3.991
-5.0,37.0,3.992
5.0,1.0,3.993
13.0,-35.0,3.994
15.0,-37.0,3.995
17.0,-22.0,3.996
17.0,-14.0,3.997
7.0,-9.0,3.998
-1.0,0.0,3.999
0.0,3.0,4.0
4.0,-17.0,4.001
-6.0,-40.0,4.002
-19.0,-43.0,4.003
-14.0,-29.0,4.004
2.0,-13.0,4.005
15.0,-6.0,4.006
19.0,-11.0,4.007
23.0,-18.0,4.008
24.0,-12.0,4.009
17.0,3.0,4.01
10.0,9.0,4.011
7.0,3.0,4.012
-2.0,-1.0,4.013
-14.0,1.0,4.014
-17.0,0.0,4.015
-8.0,-7.0,4.016
-8.0,-6.0,4.017
-22.0,1.0,4.018
-33.0,11.0,4.019
-40.0,20.0,4.02
-55.0,20.0,4.021
-73.0,19.0,4.022
-66.0,20.0,4.023
-35.0,20.0,4.024
-10.0,18.0,4.025
-4.0,15.0,4.026
3.0,9.0,4.027
20.0,4.0,4.028
32.0,6.0,4.029
36.0,7.0,4.03
42.0,5.0,4.031
45.0,3.0,4.032
32.0,7.0,4.033
6.0,8.0,4.034
-16.0,0.0,4.035
-37.0,-8.0,4.036
-58.0,-13.0,4.037
-62.0,-16.0,4.038
-29.0,-11.0,4.039
3.0,0.0,4.04
35.0,6.0,4.041
64.0,8.0,4.042
87.0,8.0,4.043
100.0,14.0,4.044
82.0,21.0,4.045
65.0,17.0,4.046
54.0,3.0,4.047
44.0,-8.0,4.048
40.0,-11.0,4.049
34.0,-14.0,4.05
23.0,-22.0,4.051
13.0,-29.0,4.052
11.0,-30.0,4.053
7.0,-21.0,4.054
-4.0,0.0,4.055
-15.0,26.0,4.056
-25.0,43.0,4.057
-35.0,33.0,4.058
-44.0,5.0,4.059
-49.0,-13.0,4.06
-59.0,-12.0,4.061
-65.0,-3.0,4.062
-53.0,-3.0,4.063
-29.0,-12.0,4.064
-14.0,-15.0,4.065
-11.0,-11.0,4.066
-3.0,-8.0,4.067
15.0,-6.0,4.068
24.0,-5.0,4.069
18.0,-7.0,4.07
17.0,-11.0,4.071
29.0,-11.0,4.072
34.0,-4.0,4.073
18.0,-2.0,4.074
-1.0,-7.0,4.075
-1.0,-4.0,4.076
12.0,8.0,4.077
16.0,11.0,4.078
13.0,0.0,4.079
14.0,-10.0,4.08
17.0,-7.0,4.081
15.0,0.0,4.082
7.0,-2.0,4.083
-3.0,-4.0,4.084
-13.0,7.0,4.085
-17.0,16.0,4.086
-14.0,10.0,4.087
-7.0,3.0,4.088
-8.0,9.0,4.089
-15.0,18.0,4.09
-10.0,12.0,4.091
5.0,-3.0,4.092
12.0,-8.0,4.093
0.0,-4.0,4.094
-13.0,-2.0,4.095
-10.0,-6.0,4.096
4.0,-10.0,4.097
8.0,-13.0,4.098
2.0,-3.0,4.099
-4.0,17.0,4.1
-2.0,26.0,4.101
0.0,3.0,4.102
-3.0,-29.0,4.103
-3.0,-36.0,4.104
4.0,-12.0,4.105
15.0,8.0,4.106
15.0,10.0,4.107
7.0,5.0,4.108
4.0,0.0,4.109
7.0,-8.0,4.11
6.0,-14.0,4.111
1.0,-4.0,4.112
3.0,12.0,4.113
12.0,12.0,4.114
14.0,0.0,4.115
6.0,-1.0,4.116
6.0,11.0,4.117
14.0,7.0,4.118
19.0,-12.0,4.119
20.0,-18.0,4.12
3.0,-7.0,4.121
-11.0,3.0,4.122
-19.0,0.0,4.123
-27.0,0.0,4.124
-36.0,14.0,4.125
-41.0,22.0,4.126
-29.0,13.0,4.127
-19.0,-1.0,4.128
-17.0,-8.0,4.129
-11.0,-3.0,4.13
5.0,6.0,4.131
16.0,11.0,4.132
14.0,8.0,4.133
12.0,0.0,4.134
9.0,-3.0,4.135
7.0,-2.0,4.136
12.0,-7.0,4.137
18.0,-18.0,4.138
24.0,-23.0,4.139
43.0,-16.0,4.14
58.0,-11.0,4.141
56.0,-5.0,4.142
41.0,9.0,4.143
33.0,23.0,4.144
32.0,19.0,4.145
17.0,4.0,4.146
-14.0,-5.0,4.147
-39.0,-3.0,4.148
-40.0,-3.0,4.149
-29.0,-13.0,4.15
-29.0,-18.0,4.151
-36.0,-11.0,4.152
-23.0,2.0,4.153
10.0,11.0,4.154
31.0,16.0,4.155
23.0,13.0,4.156
5.0,1.0,4.157
-3.0,-15.0,4.158
0.0,-19.0,4.159
-2.0,-10.0,4.16
-7.0,-5.0,4.161
-6.0,-9.0,4.162
-3.0,-11.0,4.163
-7.0,3.0,4.164
-8.0,18.0,4.165
3.0,14.0,4.166
16.0,-3.0,4.167
14.0,-15.0,4.168
5.0,-5.0,4.169
6.0,11.0,4.17
18.0,21.0,4.171
25.0,19.0,4.172
25.0,11.0,4.173
24.0,0.0,4.174
20.0,-8.0,4.175
12.0,-8.0,4.176
4.0,-5.0,4.177
-1.0,-10.0,4.178
-8.0,-17.0,4.179
-24.0,-20.0,4.18
-38.0,-18.0,4.181
-34.0,-12.0,4.182
-13.0,-5.0,4.183
5.0,5.0,4.184
10.0,16.0,4.185
6.0,16.0,4.186
10.0,8.0,4.187
17.0,5.0,4.188
17.0,13.0,4.189
2.0,13.0,4.19
-15.0,-3.0,4.191
-20.0,-18.0,4.192
-12.0,-14.0,4.193
-3.0,0.0,4.194
-1.0,9.0,4.195
-3.0,6.0,4.196
-4.0,9.0,4.197
-10.0,18.0,4.198
-18.0,24.0,4.199
-21.0,16.0,4.2
-8.0,-1.0,4.201
4.0,-13.0,4.202
16.0,-14.0,4.203
23.0,-7.0,4.204
13.0,-1.0,4.205
3.0,-4.0,4.206
-6.0,-14.0,4.207
-15.0,-18.0,4.208
-15.0,-11.0,4.209
-13.0,1.0,4.21
-5.0,10.0,4.211
1.0,12.0,4.212
1.0,11.0,4.213
6.0,8.0,4.214
26.0,6.0,4.215
42.0,5.0,4.216
47.0,4.0,4.217
52.0,-2.0,4.218
47.0,-9.0,4.219
34.0,-9.0,4.22
24.0,-11.0,4.221
33.0,-11.0,4.222
51.0,-13.0,4.223
47.0,-13.0,4.224
13.0,-13.0,4.225
-19.0,-14.0,4.226
-16.0,-19.0,4.227
5.0,-17.0,4.228
6.0,0.0,4.229
-15.0,26.0,4.23
-27.0,39.0,4.231
-19.0,27.0,4.232
-10.0,3.0,4.233
-12.0,-4.0,4.234
-15.0,5.0,4.235
-11.0,11.0,4.236
-9.0,4.0,4.237
-15.0,-11.0,4.238
-16.0,-13.0,4.239
-13.0,-6.0,4.24
-11.0,-7.0,4.241
-13.0,-16.0,4.242
-6.0,-24.0,4.243
6.0,-20.0,4.244
11.0,-13.0,4.245
8.0,-7.0,4.246
12.0,3.0,4.247
19.0,17.0,4.248
20.0,22.0,4.249
10.0,12.0,4.25
0.0,1.0,4.251
-7.0,0.0,4.252
-22.0,-2.0,4.253
-42.0,-8.0,4.254
-51.0,-8.0,4.255
-33.0,4.0,4.256
-4.0,18.0,4.257
17.0,17.0,4.258
18.0,11.0,4.259
5.0,5.0,4.26
-3.0,-3.0,4.261
-5.0,-8.0,4.262
-6.0,-5.0,4.263
-4.0,-2.0,4.264
4.0,0.0,4.265
13.0,3.0,4.266
12.0,3.0,4.267
5.0,2.0,4.268
5.0,2.0,4.269
12.0,-1.0,4.27
16.0,-13.0,4.271
12.0,-23.0,4.272
7.0,-27.0,4.273
7.0,-22.0,4.274
10.0,8.0,4.275
12.0,30.0,4.276
13.0,21.0,4.277
11.0,8.0,4.278
3.0,-8.0,4.279
-4.0,-9.0,4.28
-11.0,-8.0,4.281
-14.0,-1.0,4.282
-4.0,10.0,4.283
4.0,18.0,4.284
10.0,13.0,4.285
18.0,0.0,4.286
28.0,-5.0,4.287
36.0,0.0,4.288
34.0,6.0,4.289
30.0,6.0,4.29
16.0,-6.0,4.291
6.0,-20.0,4.292
6.0,-21.0,4.293
5.0,-9.0,4.294
1.0,7.0,4.295
-3.0,13.0,4.296
-9.0,19.0,4.297
-13.0,22.0,4.298
-7.0,16.0,4.299
2.0,-8.0,4.3
3.0,-29.0,4.301
-8.0,-16.0,4.302
-21.0,19.0,4.303
-24.0,38.0,4.304
-17.0,26.0,4.305
-8.0,-2.0,4.306
-3.0,-22.0,4.307
2.0,-29.0,4.308
6.0,-25.0,4.309
6.0,-17.0,4.31
0.0,-13.0,4.311
-13.0,-12.0,4.312
-23.0,-9.0,4.313
-16.0,-5.0,4.314
9.0,0.0,4.315
37.0,2.0,4.316
49.0,-1.0,4.317
45.0,-9.0,4.318
38.0,-4.0,4.319
23.0,15.0,4.32
0.0,24.0,4.321
-18.0,10.0,4.322
-7.0,-10.0,4.323
13.0,-7.0,4.324
11.0,12.0,4.325
-8.0,13.0,4.326
-13.0,-5.0,4.327
1.0,-17.0,4.328
10.0,-12.0,4.329
2.0,-8.0,4.33
1.0,-9.0,4.331
10.0,-6.0,4.332
12.0,2.0,4.333
-5.0,1.0,4.334
-20.0,-11.0,4.335
-20.0,-14.0,4.336
-15.0,0.0,4.337
-15.0,16.0,4.338
-10.0,17.0,4.339
-2.0,10.0,4.34
2.0,3.0,4.341
-5.0,0.0,4.342
-6.0,-3.0,4.343
4.0,-2.0,4.344
16.0,1.0,4.345
18.0,1.0,4.346
21.0,-3.0,4.347
29.0,-3.0,4.348
25.0,7.0,4.349
8.0,13.0,4.35
-6.0,7.0,4.351
-12.0,-5.0,4.352
-19.0,-10.0,4.353
-29.0,-3.0,4.354
-27.0,4.0,4.355
-7.0,5.0,4.356
14.0,6.0,4.357
22.0,9.0,4.358
21.0,10.0,4.359
19.0,2.0,4.36
12.0,-15.0,4.361
1.0,-26.0,4.362
1.0,-22.0,4.363
13.0,-10.0,4.364
20.0,-6.0,4.365
10.0,-13.0,4.366
-7.0,-20.0,4.367
-14.0,-10.0,4.368
-13.0,11.0,4.369
-9.0,22.0,4.37
-1.0,14.0,4.371
6.0,0.0,4.372
9.0,-5.0,4.373
8.0,-6.0,4.374
7.0,-5.0,4.375
7.0,2.0,4.376
3.0,17.0,4.377
-2.0,24.0,4.378
-7.0,16.0,4.379
-16.0,2.0,4.38
-28.0,-3.0,4.381
-29.0,3.0,4.382
-10.0,7.0,4.383
13.0,6.0,4.384
16.0,7.0,4.385
-4.0,11.0,4.386
-21.0,6.0,4.387
-23.0,-8.0,4.388
-8.0,-19.0,4.389
22.0,-22.0,4.39
49.0,-23.0,4.391
56.0,-27.0,4.392
44.0,-27.0,4.393
32.0,-19.0,4.394
22.0,-8.0,4.395
3.0,-2.0,4.396
-16.0,-2.0,4.397
-15.0,-7.0,4.398
6.0,-9.0,4.399
18.0,-5.0,4.4
10.0,-2.0,4.401
1.0,-1.0,4.402
5.0,0.0,4.403
11.0,6.0,4.404
12.0,15.0,4.405
16.0,16.0,4.406
22.0,6.0,4.407
17.0,-8.0,4.408
5.0,-12.0,4.409
2.0,-7.0,4.41
1.0,-4.0,4.411
-14.0,-6.0,4.412
-35.0,-7.0,4.413
-37.0,-2.0,4.414
-18.0,4.0,4.415
-3.0,-1.0,4.416
-4.0,-9.0,4.417
-9.0,-12.0,4.418
-6.0,-3.0,4.419
-2.0,9.0,4.42
0.0,8.0,4.421
6.0,5.0,4.422
16.0,8.0,4.423
23.0,16.0,4.424
16.0,19.0,4.425
1.0,13.0,4.426
-6.0,7.0,4.427
-5.0,7.0,4.428
0.0,14.0,4.429
1.0,19.0,4.43
-5.0,13.0,4.431
-20.0,-1.0,4.432
-37.0,-13.0,4.433
-44.0,-11.0,4.434
-31.0,-3.0,4.435
-5.0,0.0,4.436
21.0,-1.0,4.437
33.0,-4.0,4.438
33.0,-2.0,4.439
25.0,1.0,4.44
15.0,-1.0,4.441
9.0,1.0,4.442
18.0,4.0,4.443
31.0,6.0,4.444
29.0,4.0,4.445
13.0,1.0,4.446
2.0,-1.0,4.447
8.0,-2.0,4.448
12.0,-6.0,4.449
0.0,-11.0,4.45
-14.0,-11.0,4.451
-12.0,-9.0,4.452
-3.0,-5.0,4.453
0.0,2.0,4.454
1.0,6.0,4.455
3.0,7.0,4.456
4.0,4.0,4.457
-7.0,0.0,4.458
-13.0,-3.0,4.459
-6.0,-5.0,4.46
3.0,-9.0,4.461
3.0,-8.0,4.462
0.0,-5.0,4.463
4.0,-3.0,4.464
10.0,-2.0,4.465
6.0,0.0,4.466
-2.0,4.0,4.467
-3.0,1.0,4.468
-5.0,-5.0,4.469
-20.0,-7.0,4.47
-37.0,0.0,4.471
-32.0,7.0,4.472
-2.0,6.0,4.473
28.0,-2.0,4.474
46.0,-10.0,4.475
58.0,-13.0,4.476
71.0,-9.0,4.477
73.0,-4.0,4.478
51.0,-2.0,4.479
9.0,-6.0,4.48
-22.0,-16.0,4.481
-33.0,-18.0,4.482
-32.0,-11.0,4.483
-36.0,-3.0,4.484
-42.0,3.0,4.485
-35.0,4.0,4.486
-9.0,2.0,4.487
15.0,0.0,4.488
19.0,1.0,4.489
7.0,3.0,4.49
-5.0,0.0,4.491
-10.0,-3.0,4.492
-14.0,-2.0,4.493
-19.0,2.0,4.494
-18.0,5.0,4.495
-11.0,2.0,4.496
-3.0,4.0,4.497
2.0,10.0,4.498
9.0,18.0,4.499
14.0,18.0,4.5
17.0,8.0,4.501
18.0,-1.0,4.502
21.0,-6.0,4.503
25.0,-6.0,4.504
25.0,-3.0,4.505
13.0,-2.0,4.506
-8.0,-4.0,4.507
-24.0,-9.0,4.508
-23.0,-10.0,4.509
-13.0,-10.0,4.51
-5.0,-12.0,4.511
1.0,-9.0,4.512
11.0,-4.0,4.513
21.0,1.0,4.514
29.0,3.0,4.515
32.0,8.0,4.516
33.0,20.0,4.517
30.0,25.0,4.518
24.0,16.0,4.519
12.0,0.0,4.52
2.0,-9.0,4.521
1.0,-4.0,4.522
8.0,8.0,4.523
12.0,17.0,4.524
6.0,17.0,4.525
-1.0,6.0,4.526
-5.0,-8.0,4.527
-8.0,-15.0,4.528
-14.0,-12.0,4.529
-21.0,-8.0,4.53
-22.0,-9.0,4.531
-17.0,-11.0,4.532
-10.0,-7.0,4.533
-8.0,-2.0,4.534
-15.0,3.0,4.535
-23.0,8.0,4.536
-22.0,16.0,4.537
-12.0,19.0,4.538
-5.0,12.0,4.539
-5.0,0.0,4.54
-9.0,-7.0,4.541
-2.0,-8.0,4.542
11.0,-10.0,4.543
24.0,-13.0,4.544
33.0,-10.0,4.545
37.0,-5.0,4.546
26.0,-8.0,4.547
-2.0,-15.0,4.548
-25.0,-11.0,4.549
-27.0,6.0,4.55
-22.0,22.0,4.551
-26.0,20.0,4.552
-28.0,6.0,4.553
-5.0,-5.0,4.554
43.0,-9.0,4.555
79.0,-5.0,4.556
88.0,3.0,4.557
79.0,9.0,4.558
60.0,8.0,4.559
26.0,0.0,4.56
-20.0,-9.0,4.561
-56.0,-13.0,4.562
-65.0,-11.0,4.563
-56.0,-5.0,4.564
-41.0,-3.0,4.565
-25.0,-3.0,4.566
-9.0,-5.0,4.567
-1.0,-7.0,4.568
0.0,-6.0,4.569
2.0,-5.0,4.57
14.0,-6.0,4.571
27.0,-5.0,4.572
33.0,-4.0,4.573
29.0,-3.0,4.574
18.0,-6.0,4.575
4.0,-9.0,4.576
-4.0,-5.0,4.577
-1.0,4.0,4.578
12.0,11.0,4.579
20.0,11.0,4.58
23.0,3.0,4.581
25.0,-1.0,4.582
25.0,-2.0,4.583
14.0,-1.0,4.584
-13.0,-1.0,4.585
-34.0,-1.0,4.586
-41.0,-2.0,4.587
-43.0,-4.0,4.588
-48.0,-6.0,4.589
-47.0,-4.0,4.59
-29.0,-3.0,4.591
3.0,-2.0,4.592
28.0,-1.0,4.593
39.0,3.0,4.594
42.0,9.0,4.595
48.0,12.0,4.596
57.0,10.0,4.597
56.0,7.0,4.598
41.0,7.0,4.599
16.0,5.0,4.6
-5.0,0.0,4.601
-8.0,-5.0,4.602
-2.0,-3.0,4.603
0.0,0.0,4.604
-9.0,4.0,4.605
-19.0,5.0,4.606
-22.0,5.0,4.607
-16.0,4.0,4.608
-11.0,2.0,4.609
-9.0,-1.0,4.61
-7.0,-4.0,4.611
-2.0,-6.0,4.612
6.0,-7.0,4.613
16.0,-8.0,4.614
19.0,-7.0,4.615
15.0,-5.0,4.616
5.0,-3.0,4.617
0.0,1.0,4.618
-2.0,1.0,4.619
-5.0,0.0,4.62
-9.0,-5.0,4.621
-8.0,-6.0,4.622
0.0,0.0,4.623
4.0,5.0,4.624
0.0,0.0,4.625
-10.0,-8.0,4.626
-16.0,-10.0,4.627
-13.0,-4.0,4.628
-7.0,2.0,4.629
-5.0,0.0,4.63
-6.0,-4.0,4.631
-5.0,-2.0,4.632
0.0,2.0,4.633
9.0,0.0,4.634
16.0,-6.0,4.635
15.0,-7.0,4.636
11.0,5.0,4.637
1.0,15.0,4.638
-3.0,14.0,4.639
-4.0,4.0,4.64
-4.0,-7.0,4.641
-4.0,-7.0,4.642
-3.0,-3.0,4.643
3.0,-3.0,4.644
2.0,-6.0,4.645
-7.0,-6.0,4.646
-18.0,-4.0,4.647
-16.0,-4.0,4.648
-5.0,-12.0,4.649
0.0,-23.0,4.65
1.0,-27.0,4.651
3.0,-17.0,4.652
8.0,1.0,4.653
11.0,17.0,4.654
15.0,23.0,4.655
25.0,15.0,4.656
37.0,7.0,4.657
39.0,3.0,4.658
31.0,6.0,4.659
20.0,10.0,4.66
14.0,5.0,4.661
13.0,-4.0,4.662
15.0,-8.0,4.663
16.0,-3.0,4.664
8.0,1.0,4.665
-6.0,0.0,4.666
-13.0,-3.0,4.667
-8.0,-4.0,4.668
-3.0,-5.0,4.669
-11.0,-8.0,4.67
-26.0,-12.0,4.671
-23.0,-7.0,4.672
4.0,0.0,4.673
38.0,5.0,4.674
55.0,7.0,4.675
56.0,9.0,4.676
49.0,13.0,4.677
33.0,9.0,4.678
6.0,2.0,4.679
-21.0,-1.0,4.68
-38.0,0.0,4.681
-48.0,6.0,4.682
-59.0,7.0,4.683
-63.0,2.0,4.684
-49.0,-4.0,4.685
-23.0,-8.0,4.686
-9.0,-10.0,4.687
-16.0,-8.0,4.688
-20.0,-5.0,4.689
-8.0,-1.0,4.69
14.0,-3.0,4.691
26.0,-6.0,4.692
30.0,-6.0,4.693
36.0,-3.0,4.694
49.0,0.0,4.695
59.0,0.0,4.696
61.0,-2.0,4.697
48.0,-6.0,4.698
26.0,-8.0,4.699
-4.0,-9.0,4.7
-27.0,-9.0,4.701
-32.0,-1.0,4.702
-19.0,10.0,4.703
0.0,15.0,4.704
13.0,12.0,4.705
13.0,4.0,4.706
5.0,1.0,4.707
-6.0,4.0,4.708
-22.0,10.0,4.709
-37.0,10.0,4.71
-43.0,2.0,4.711
-30.0,-7.0,4.712
-12.0,-8.0,4.713
-3.0,-5.0,4.714
-4.0,-9.0,4.715
0.0,-20.0,4.716
23.0,-23.0,4.717
50.0,-17.0,4.718
62.0,-1.0,4.719
48.0,10.0,4.72
24.0,12.0,4.721
14.0,10.0,4.722
26.0,2.0,4.723
40.0,-2.0,4.724
34.0,0.0,4.725
20.0,1.0,4.726
15.0,-4.0,4.727
13.0,-10.0,4.728
-4.0,-6.0,4.729
-28.0,5.0,4.73
-35.0,6.0,4.731
-26.0,-4.0,4.732
-29.0,-11.0,4.733
-49.0,-6.0,4.734
-64.0,0.0,4.735
-59.0,1.0,4.736
-41.0,4.0,4.737
-23.0,6.0,4.738
-6.0,4.0,4.739
9.0,0.0,4.74
17.0,-2.0,4.741
25.0,3.0,4.742
45.0,4.0,4.743
64.0,-4.0,4.744
57.0,-8.0,4.745
26.0,-4.0,4.746
4.0,4.0,4.747
6.0,8.0,4.748
14.0,10.0,4.749
5.0,8.0,4.75
-13.0,-2.0,4.751
-21.0,-11.0,4.752
-19.0,-10.0,4.753
-11.0,4.0,4.754
-5.0,16.0,4.755
-3.0,11.0,4.756
2.0,3.0,4.757
12.0,4.0,4.758
23.0,9.0,4.759
30.0,7.0,4.76
24.0,-4.0,4.761
2.0,-10.0,4.762
-24.0,-10.0,4.763
-48.0,-8.0,4.764
-69.0,-5.0,4.765
-84.0,-1.0,4.766
-80.0,-1.0,4.767
-49.0,-5.0,4.768
-4.0,-10.0,4.769
33.0,-12.0,4.77
54.0,-12.0,4.771
56.0,-13.0,4.772
45.0,-8.0,4.773
30.0,3.0,4.774
21.0,15.0,4.775
21.0,17.0,4.776
19.0,11.0,4.777
9.0,3.0,4.778
-8.0,-1.0,4.779
-35.0,-5.0,4.78
-58.0,-6.0,4.781
-58.0,-8.0,4.782
-27.0,-11.0,4.783
17.0,-13.0,4.784
48.0,-9.0,4.785
54.0,-5.0,4.786
42.0,-2.0,4.787
18.0,0.0,4.788
-6.0,1.0,4.789
-13.0,3.0,4.79
10.0,5.0,4.791
48.0,6.0,4.792
71.0,0.0,4.793
67.0,-5.0,4.794
53.0,-6.0,4.795
42.0,-7.0,4.796
34.0,-8.0,4.797
16.0,-8.0,4.798
-8.0,0.0,4.799
-23.0,14.0,4.8
-25.0,16.0,4.801
-27.0,4.0,4.802
-38.0,-15.0,4.803
-37.0,-21.0,4.804
-4.0,-11.0,4.805
45.0,7.0,4.806
65.0,21.0,4.807
41.0,27.0,4.808
17.0,24.0,4.809
18.0,20.0,4.81
23.0,20.0,4.811
1.0,19.0,4.812
-29.0,14.0,4.813
-31.0,5.0,4.814
-20.0,-1.0,4.815
-38.0,-2.0,4.816
-94.0,-3.0,4.817
-161.0,-10.0,4.818
-183.0,-12.0,4.819
-147.0,-8.0,4.82
-77.0,-7.0,4.821
-9.0,-10.0,4.822
47.0,-13.0,4.823
96.0,-8.0,4.824
133.0,0.0,4.825
141.0,2.0,4.826
130.0,-8.0,4.827
129.0,-22.0,4.828
148.0,-29.0,4.829
148.0,-24.0,4.83
90.0,-7.0,4.831
7.0,9.0,4.832
-40.0,13.0,4.833
-43.0,9.0,4.834
-40.0,4.0,4.835
-52.0,1.0,4.836
-50.0,1.0,4.837
-21.0,-1.0,4.838
8.0,-1.0,4.839
-2.0,0.0,4.84
-41.0,-3.0,4.841
-68.0,-6.0,4.842
-63.0,-7.0,4.843
-38.0,-7.0,4.844
-12.0,-4.0,4.845
5.0,-2.0,4.846
10.0,-8.0,4.847
-1.0,-19.0,4.848
-21.0,-24.0,4.849
-32.0,-15.0,4.85
-24.0,5.0,4.851
-2.0,22.0,4.852
16.0,24.0,4.853
17.0,15.0,4.854
14.0,6.0,4.855
21.0,1.0,4.856
33.0,4.0,4.857
31.0,4.0,4.858
13.0,6.0,4.859
-7.0,9.0,4.86
-21.0,8.0,4.861
-40.0,4.0,4.862
-63.0,0.0,4.863
-70.0,0.0,4.864
-52.0,6.0,4.865
-26.0,10.0,4.866
-13.0,7.0,4.867
-19.0,0.0,4.868
-33.0,-7.0,4.869
-43.0,-16.0,4.87
-30.0,-22.0,4.871
15.0,-17.0,4.872
78.0,-7.0,4.873
133.0,-3.0,4.874
165.0,-3.0,4.875
167.0,1.0,4.876
136.0,11.0,4.877
76.0,7.0,4.878
25.0,-4.0,4.879
2.0,-6.0,4.88
-13.0,2.0,4.881
-39.0,6.0,4.882
-44.0,-7.0,4.883
-9.0,-20.0,4.884
18.0,-13.0,4.885
-12.0,2.0,4.886
-72.0,7.0,4.887
-97.0,-3.0,4.888
-78.0,-13.0,4.889
-55.0,-12.0,4.89
-37.0,-3.0,4.891
-4.0,10.0,4.892
37.0,21.0,4.893
61.0,21.0,4.894
65.0,11.0,4.895
57.0,8.0,4.896
37.0,15.0,4.897
-1.0,19.0,4.898
-35.0,10.0,4.899
-46.0,-4.0,4.9
-52.0,-7.0,4.901
-63.0,2.0,4.902
-54.0,11.0,4.903
-12.0,12.0,4.904
37.0,7.0,4.905
68.0,-4.0,4.906
87.0,-18.0,4.907
104.0,-27.0,4.908
102.0,-24.0,4.909
68.0,-17.0,4.91
20.0,-19.0,4.911
-23.0,-25.0,4.912
-64.0,-17.0,4.913
-99.0,4.0,4.914
-111.0,22.0,4.915
-93.0,16.0,4.916
-61.0,-2.0,4.917
-23.0,-19.0,4.918
12.0,-19.0,4.919
29.0,-8.0,4.92
21.0,-2.0,4.921
9.0,4.0,4.922
19.0,13.0,4.923
41.0,25.0,4.924
48.0,33.0,4.925
40.0,35.0,4.926
41.0,28.0,4.927
50.0,9.0,4.928
54.0,-15.0,4.929
47.0,-35.0,4.93
30.0,-42.0,4.931
-6.0,-37.0,4.932
-59.0,-30.0,4.933
-93.0,-25.0,4.934
-78.0,-21.0,4.935
-32.0,-7.0,4.936
8.0,12.0,4.937
37.0,22.0,4.938
65.0,16.0,4.939
81.0,2.0,4.94
68.0,-10.0,4.941
36.0,-12.0,4.942
5.0,1.0,4.943
-29.0,27.0,4.944
-71.0,48.0,4.945
-87.0,45.0,4.946
-59.0,17.0,4.947
-11.0,-9.0,4.948
19.0,-12.0,4.949
38.0,1.0,4.95
62.0,10.0,4.951
67.0,1.0,4.952
16.0,-11.0,4.953
-70.0,-11.0,4.954
-143.0,0.0,4.955
-169.0,10.0,4.956
-135.0,10.0,4.957
-39.0,3.0,4.958
70.0,0.0,4.959
124.0,7.0,4.96
118.0,15.0,4.961
113.0,16.0,4.962
133.0,1.0,4.963
111.0,-17.0,4.964
4.0,-24.0,4.965
-128.0,-17.0,4.966
-190.0,-5.0,4.967
-167.0,-1.0,4.968
-104.0,2.0,4.969
-24.0,7.0,4.97
69.0,7.0,4.971
154.0,-1.0,4.972
188.0,-7.0,4.973
163.0,0.0,4.974
127.0,10.0,4.975
116.0,4.0,4.976
113.0,-7.0,4.977
74.0,-12.0,4.978
11.0,-9.0,4.979
-24.0,-7.0,4.98
-14.0,-8.0,4.981
5.0,-2.0,4.982
-10.0,-2.0,4.983
-66.0,-20.0,4.984
-137.0,-40.0,4.985
-194.0,-36.0,4.986
-192.0,-8.0,4.987
-106.0,18.0,4.988
17.0,25.0,4.989
89.0,13.0,4.99
80.0,-4.0,4.991
44.0,-21.0,4.992
37.0,-30.0,4.993
49.0,-30.0,4.994
46.0,-26.0,4.995
13.0,-23.0,4.996
-47.0,-8.0,4.997
-137.0,22.0,4.998
-220.0,57.0,4.999
-248.0,70.0,5.0
-200.0,49.0,5.001
-87.0,18.0,5.002
58.0,0.0,5.003
196.0,8.0,5.004
285.0,28.0,5.005
307.0,37.0,5.006
276.0,27.0,5.007
212.0,13.0,5.008
126.0,9.0,5.009
38.0,8.0,5.01
-21.0,-3.0,5.011
-52.0,-19.0,5.012
-87.0,-26.0,5.013
-128.0,-22.0,5.014
-131.0,-22.0,5.015
-84.0,-22.0,5.016
-41.0,-17.0,5.017
-43.0,-14.0,5.018
-56.0,-18.0,5.019
-31.0,-25.0,5.02
21.0,-23.0,5.021
42.0,-11.0,5.022
27.0,-10.0,5.023
1.0,-21.0,5.024
-27.0,-24.0,5.025
-63.0,-8.0,5.026
-79.0,10.0,5.027
-51.0,17.0,5.028
-8.0,12.0,5.029
14.0,4.0,5.03
18.0,1.0,5.031
24.0,2.0,5.032
16.0,6.0,5.033
-12.0,4.0,5.034
-25.0,-6.0,5.035
-12.0,-14.0,5.036
-3.0,-7.0,5.037
-21.0,6.0,5.038
-41.0,10.0,5.039
-40.0,8.0,5.04
-41.0,-13.0,5.041
-57.0,-26.0,5.042
-52.0,-13.0,5.043
-4.0,-5.0,5.044
53.0,-15.0,5.045
88.0,-22.0,5.046
126.0,-12.0,5.047
167.0,-2.0,5.048
167.0,10.0,5.049
104.0,17.0,5.05
41.0,6.0,5.051
28.0,-3.0,5.052
34.0,-9.0,5.053
8.0,-3.0,5.054
-38.0,38.0,5.055
-78.0,67.0,5.056
-103.0,56.0,5.057
-130.0,33.0,5.058
-146.0,-6.0,5.059
-146.0,0.0,5.06
-121.0,28.0,5.061
-38.0,42.0,5.062
113.0,23.0,5.063
253.0,-5.0,5.064
273.0,-19.0,5.065
183.0,-14.0,5.066
94.0,-7.0,5.067
61.0,-6.0,5.068
36.0,-12.0,5.069
-5.0,-12.0,5.07
-11.0,-7.0,5.071
37.0,-7.0,5.072
55.0,-12.0,5.073
-21.0,-10.0,5.074
-128.0,1.0,5.075
-155.0,2.0,5.076
-88.0,-11.0,5.077
2.0,-23.0,5.078
51.0,-14.0,5.079
48.0,1.0,5.08
13.0,-3.0,5.081
-37.0,-14.0,5.082
-81.0,-11.0,5.083
-95.0,0.0,5.084
-89.0,6.0,5.085
-84.0,-1.0,5.086
-87.0,-8.0,5.087
-79.0,-11.0,5.088
-49.0,-18.0,5.089
-4.0,-23.0,5.09
42.0,-19.0,5.091
79.0,-9.0,5.092
98.0,-1.0,5.093
82.0,5.0,5.094
35.0,7.0,5.095
-25.0,1.0,5.096
-58.0,-9.0,5.097
-55.0,-19.0,5.098
-28.0,-20.0,5.099
-3.0,-14.0,5.1
15.0,-8.0,5.101
37.0,8.0,5.102
48.0,31.0,5.103
30.0,43.0,5.104
-9.0,37.0,5.105
-39.0,16.0,5.106
-36.0,-6.0,5.107
-7.0,-22.0,5.108
33.0,-24.0,5.109
65.0,-15.0,5.11
65.0,-4.0,5.111
38.0,4.0,5.112
17.0,5.0,5.113
21.0,7.0,5.114
20.0,15.0,5.115
-14.0,28.0,5.116
-52.0,36.0,5.117
-51.0,26.0,5.118
-12.0,3.0,5.119
16.0,-8.0,5.12
20.0,-4.0,5.121
28.0,2.0,5.122
41.0,-3.0,5.123
18.0,-12.0,5.124
-42.0,-13.0,5.125
-76.0,-11.0,5.126
-45.0,-19.0,5.127
14.0,-33.0,5.128
59.0,-33.0,5.129
98.0,-13.0,5.13
138.0,12.0,5.131
145.0,28.0,5.132
95.0,25.0,5.133
28.0,10.0,5.134
-7.0,-1.0,5.135
-17.0,1.0,5.136
-23.0,14.0,5.137
-26.0,22.0,5.138
-21.0,16.0,5.139
-23.0,2.0,5.14
-42.0,-16.0,5.141
-61.0,-27.0,5.142
-72.0,-27.0,5.143
-97.0,-19.0,5.144
-135.0,-14.0,5.145
-140.0,-21.0,5.146
-80.0,-30.0,5.147
4.0,-20.0,5.148
55.0,4.0,5.149
55.0,20.0,5.15
35.0,15.0,5.151
27.0,-2.0,5.152
60.0,-15.0,5.153
131.0,-24.0,5.154
190.0,-33.0,5.155
176.0,-39.0,5.156
101.0,-31.0,5.157
18.0,-5.0,5.158
-15.0,30.0,5.159
-7.0,56.0,5.16
0.0,63.0,5.161
-13.0,67.0,5.162
-44.0,66.0,5.163
-90.0,47.0,5.164
-141.0,10.0,5.165
-168.0,-24.0,5.166
-134.0,-36.0,5.167
-51.0,-34.0,5.168
31.0,-37.0,5.169
70.0,-43.0,5.17
81.0,-38.0,5.171
96.0,-15.0,5.172
93.0,10.0,5.173
30.0,21.0,5.174
-86.0,16.0,5.175
-188.0,3.0,5.176
-223.0,0.0,5.177
-189.0,16.0,5.178
-95.0,45.0,5.179
38.0,65.0,5.18
166.0,60.0,5.181
221.0,44.0,5.182
184.0,33.0,5.183
102.0,20.0,5.184
24.0,-2.0,5.185
-34.0,-22.0,5.186
-85.0,-30.0,5.187
-114.0,-31.0,5.188
-86.0,-40.0,5.189
4.0,-48.0,5.19
97.0,-46.0,5.191
121.0,-35.0,5.192
63.0,-23.0,5.193
-6.0,-13.0,5.194
7.0,-1.0,5.195
100.0,10.0,5.196
170.0,14.0,5.197
124.0,9.0,5.198
-5.0,3.0,5.199
-97.0,0.0,5.2
-82.0,-6.0,5.201
-23.0,-9.0,5.202
0.0,-13.0,5.203
-4.0,-24.0,5.204
-3.0,-30.0,5.205
-3.0,-29.0,5.206
-26.0,-23.0,5.207
-39.0,-17.0,5.208
-5.0,-10.0,5.209
51.0,-4.0,5.21
68.0,0.0,5.211
34.0,4.0,5.212
-8.0,16.0,5.213
-23.0,34.0,5.214
-10.0,41.0,5.215
9.0,26.0,5.216
18.0,8.0,5.217
13.0,-1.0,5.218
5.0,2.0,5.219
-3.0,7.0,5.22
-17.0,3.0,5.221
-36.0,0.0,5.222
-39.0,-6.0,5.223
-25.0,-14.0,5.224
-15.0,-14.0,5.225
-22.0,0.0,5.226
-25.0,12.0,5.227
-13.0,2.0,5.228
-4.0,-23.0,5.229
-12.0,-31.0,5.23
-18.0,-9.0,5.231
-4.0,20.0,5.232
15.0,28.0,5.233
18.0,13.0,5.234
6.0,-4.0,5.235
-9.0,-7.0,5.236
-22.0,4.0,5.237
-30.0,15.0,5.238
-36.0,14.0,5.239
-53.0,-1.0,5.24
-82.0,-24.0,5.241
-98.0,-41.0,5.242
-81.0,-49.0,5.243
-43.0,-38.0,5.244
-7.0,3.0,5.245
28.0,58.0,5.246
64.0,86.0,5.247
82.0,65.0,5.248
80.0,21.0,5.249
106.0,-5.0,5.25
181.0,0.0,5.251
226.0,8.0,5.252
139.0,7.0,5.253
-46.0,9.0,5.254
-163.0,23.0,5.255
-123.0,33.0,5.256
-9.0,30.0,5.257
69.0,15.0,5.258
96.0,10.0,5.259
125.0,11.0,5.26
156.0,0.0,5.261
134.0,-17.0,5.262
58.0,-25.0,5.263
-22.0,-24.0,5.264
-90.0,-29.0,5.265
-167.0,-51.0,5.266
-231.0,-77.0,5.267
-225.0,-93.0,5.268
-143.0,-96.0,5.269
-34.0,-87.0,5.27
56.0,-49.0,5.271
107.0,17.0,5.272
105.0,83.0,5.273
56.0,107.0,5.274
7.0,78.0,5.275
-4.0,32.0,5.276
10.0,16.0,5.277
14.0,32.0,5.278
10.0,44.0,5.279
18.0,24.0,5.28
34.0,-15.0,5.281
37.0,-37.0,5.282
20.0,-31.0,5.283
-11.0,-12.0,5.284
-59.0,1.0,5.285
-114.0,2.0,5.286
-128.0,-9.0,5.287
-63.0,-27.0,5.288
54.0,-34.0,5.289
150.0,-27.0,5.29
170.0,-13.0,5.291
112.0,0.0,5.292
21.0,15.0,5.293
-45.0,22.0,5.294
-57.0,14.0,5.295
-25.0,2.0,5.296
13.0,8.0,5.297
41.0,19.0,5.298
53.0,18.0,5.299
41.0,2.0,5.3
5.0,-10.0,5.301
-34.0,-5.0,5.302
-54.0,8.0,5.303
-60.0,15.0,5.304
-76.0,14.0,5.305
-95.0,7.0,5.306
-86.0,-6.0,5.307
-46.0,-15.0,5.308
-4.0,-19.0,5.309
12.0,-27.0,5.31
9.0,-47.0,5.311
5.0,-66.0,5.312
1.0,-67.0,5.313
-12.0,-51.0,5.314
-27.0,-24.0,5.315
-6.0,11.0,5.316
65.0,52.0,5.317
144.0,79.0,5.318
158.0,72.0,5.319
105.0,41.0,5.32
53.0,9.0,5.321
35.0,1.0,5.322
18.0,6.0,5.323
-23.0,8.0,5.324
-54.0,3.0,5.325
-49.0,-4.0,5.326
-33.0,-5.0,5.327
-29.0,6.0,5.328
-36.0,21.0,5.329
-42.0,26.0,5.33
-48.0,8.0,5.331
-35.0,-15.0,5.332
21.0,-29.0,5.333
94.0,-33.0,5.334
109.0,-29.0,5.335
46.0,-19.0,5.336
-26.0,2.0,5.337
-47.0,25.0,5.338
-15.0,42.0,5.339
1.0,48.0,5.34
-28.0,40.0,5.341
-66.0,23.0,5.342
-74.0,0.0,5.343
-61.0,-12.0,5.344
-52.0,-14.0,5.345
-32.0,-9.0,5.346
18.0,-12.0,5.347
68.0,-20.0,5.348
74.0,-21.0,5.349
43.0,-21.0,5.35
6.0,-25.0,5.351
-22.0,-33.0,5.352
-42.0,-34.0,5.353
-30.0,-29.0,5.354
27.0,-23.0,5.355
97.0,-9.0,5.356
143.0,11.0,5.357
154.0,26.0,5.358
131.0,23.0,5.359
72.0,10.0,5.36
0.0,3.0,5.361
-36.0,5.0,5.362
-20.0,6.0,5.363
5.0,4.0,5.364
-7.0,8.0,5.365
-46.0,18.0,5.366
-62.0,18.0,5.367
-43.0,2.0,5.368
-28.0,-12.0,5.369
-34.0,-10.0,5.37
-33.0,-4.0,5.371
-5.0,-8.0,5.372
20.0,-17.0,5.373
12.0,-17.0,5.374
-19.0,-7.0,5.375
-47.0,-3.0,5.376
-64.0,-5.0,5.377
-80.0,-6.0,5.378
-83.0,-8.0,5.379
-65.0,-14.0,5.38
-38.0,-30.0,5.381
-13.0,-37.0,5.382
24.0,-19.0,5.383
81.0,-1.0,5.384
125.0,19.0,5.385
111.0,31.0,5.386
47.0,17.0,5.387
-14.0,8.0,5.388
-29.0,13.0,5.389
-8.0,20.0,5.39
8.0,35.0,5.391
5.0,44.0,5.392
-5.0,33.0,5.393
-8.0,23.0,5.394
-10.0,17.0,5.395
-23.0,12.0,5.396
-38.0,9.0,5.397
-41.0,8.0,5.398
-29.0,20.0,5.399
-20.0,20.0,5.4
-22.0,-2.0,5.401
-16.0,-20.0,5.402
17.0,-22.0,5.403
59.0,-19.0,5.404
121.0,-22.0,5.405
152.0,-27.0,5.406
90.0,-24.0,5.407
24.0,-20.0,5.408
-57.0,-23.0,5.409
-102.0,-25.0,5.41
-38.0,-21.0,5.411
18.0,-17.0,5.412
50.0,-22.0,5.413
73.0,-26.0,5.414
63.0,-15.0,5.415
47.0,10.0,5.416
12.0,38.0,5.417
-17.0,56.0,5.418
-27.0,55.0,5.419
-33.0,39.0,5.42
-35.0,17.0,5.421
-21.0,8.0,5.422
0.0,6.0,5.423
0.0,-1.0,5.424
-21.0,-12.0,5.425
-44.0,-12.0,5.426
-56.0,-7.0,5.427
-68.0,-12.0,5.428
-76.0,-23.0,5.429
-44.0,-23.0,5.43
47.0,-14.0,5.431
149.0,-12.0,5.432
174.0,-18.0,5.433
97.0,-18.0,5.434
-24.0,-6.0,5.435
-121.0,4.0,5.436
-163.0,13.0,5.437
-149.0,21.0,5.438
-75.0,22.0,5.439
12.0,9.0,5.44
44.0,-4.0,5.441
14.0,1.0,5.442
-3.0,16.0,5.443
30.0,20.0,5.444
54.0,13.0,5.445
29.0,8.0,5.446
0.0,2.0,5.447
16.0,-10.0,5.448
36.0,-24.0,5.449
17.0,-28.0,5.45
-17.0,-25.0,5.451
-18.0,-18.0,5.452
0.0,-5.0,5.453
7.0,4.0,5.454
13.0,-1.0,5.455
34.0,-15.0,5.456
50.0,-11.0,5.457
44.0,9.0,5.458
36.0,22.0,5.459
44.0,6.0,5.46
51.0,-14.0,5.461
35.0,-6.0,5.462
13.0,13.0,5.463
9.0,17.0,5.464
9.0,11.0,5.465
-3.0,13.0,5.466
-24.0,23.0,5.467
-35.0,13.0,5.468
-34.0,-10.0,5.469
-26.0,-22.0,5.47
-17.0,-6.0,5.471
-2.0,21.0,5.472
8.0,30.0,5.473
9.0,14.0,5.474
5.0,-8.0,5.475
6.0,-16.0,5.476
14.0,-9.0,5.477
20.0,0.0,5.478
28.0,8.0,5.479
36.0,14.0,5.48
37.0,12.0,5.481
13.0,4.0,5.482
-38.0,-6.0,5.483
-86.0,-10.0,5.484
-88.0,-10.0,5.485
-33.0,-12.0,5.486
38.0,-18.0,5.487
68.0,-16.0,5.488
33.0,-8.0,5.489
-24.0,-8.0,5.49
-47.0,-14.0,5.491
-20.0,-17.0,5.492
16.0,-12.0,5.493
25.0,-5.0,5.494
21.0,-3.0,5.495
40.0,-2.0,5.496
70.0,3.0,5.497
64.0,5.0,5.498
-3.0,1.0,5.499
-83.0,-3.0,5.5
-95.0,-5.0,5.501
-43.0,-2.0,5.502
-4.0,-2.0,5.503
-17.0,-3.0,5.504
-40.0,1.0,5.505
-23.0,8.0,5.506
9.0,9.0,5.507
8.0,3.0,5.508
-15.0,-6.0,5.509
-13.0,-19.0,5.51
12.0,-33.0,5.511
20.0,-40.0,5.512
11.0,-30.0,5.513
11.0,-6.0,5.514
21.0,23.0,5.515
22.0,48.0,5.516
15.0,57.0,5.517
15.0,39.0,5.518
22.0,6.0,5.519
20.0,-9.0,5.52
13.0,2.0,5.521
21.0,18.0,5.522
43.0,9.0,5.523
54.0,-5.0,5.524
35.0,6.0,5.525
-6.0,32.0,5.526
-49.0,32.0,5.527
-67.0,6.0,5.528
-55.0,-11.0,5.529
-25.0,-8.0,5.53
12.0,-12.0,5.531
60.0,-32.0,5.532
114.0,-40.0,5.533
132.0,-17.0,5.534
80.0,15.0,5.535
-20.0,24.0,5.536
-88.0,13.0,5.537
-90.0,4.0,5.538
-48.0,7.0,5.539
-16.0,9.0,5.54
-12.0,-2.0,5.541
-9.0,-9.0,5.542
15.0,-4.0,5.543
45.0,7.0,5.544
45.0,11.0,5.545
14.0,5.0,5.546
-10.0,-1.0,5.547
-11.0,-3.0,5.548
-14.0,-6.0,5.549
-33.0,-13.0,5.55
-35.0,-23.0,5.551
1.0,-23.0,5.552
41.0,-14.0,5.553
39.0,-7.0,5.554
6.0,-6.0,5.555
-18.0,-8.0,5.556
-24.0,-6.0,5.557
-19.0,-4.0,5.558
9.0,-6.0,5.559
51.0,-10.0,5.56
57.0,-12.0,5.561
6.0,-8.0,5.562
-45.0,-2.0,5.563
-34.0,2.0,5.564
5.0,5.0,5.565
-2.0,2.0,5.566
-51.0,-7.0,5.567
-77.0,-18.0,5.568
-55.0,-24.0,5.569
-29.0,-24.0,5.57
-18.0,-17.0,5.571
4.0,-10.0,5.572
43.0,-10.0,5.573
57.0,-13.0,5.574
35.0,-8.0,5.575
16.0,9.0,5.576
26.0,37.0,5.577
42.0,57.0,5.578
30.0,61.0,5.579
-9.0,57.0,5.58
-36.0,26.0,5.581
-31.0,3.0,5.582
-3.0,11.0,5.583
34.0,16.0,5.584
75.0,14.0,5.585
111.0,13.0,5.586
119.0,13.0,5.587
77.0,9.0,5.588
-7.0,-4.0,5.589
-88.0,-19.0,5.59
-105.0,-34.0,5.591
-46.0,-45.0,5.592
39.0,-43.0,5.593
73.0,-35.0,5.594
18.0,-12.0,5.595
-69.0,8.0,5.596
-109.0,17.0,5.597
-99.0,19.0,5.598
-77.0,3.0,5.599
-50.0,-4.0,5.6
-5.0,0.0,5.601
29.0,8.0,5.602
27.0,6.0,5.603
30.0,-6.0,5.604
48.0,-17.0,5.605
59.0,-15.0,5.606
46.0,-2.0,5.607
32.0,6.0,5.608
14.0,1.0,5.609
2.0,-7.0,5.61
9.0,-11.0,5.611
10.0,-9.0,5.612
-7.0,-4.0,5.613
-21.0,5.0,5.614
-17.0,11.0,5.615
-10.0,9.0,5.616
7.0,3.0,5.617
26.0,-2.0,5.618
27.0,-3.0,5.619
-9.0,-3.0,5.62
-39.0,-3.0,5.621
-33.0,0.0,5.622
2.0,2.0,5.623
39.0,-2.0,5.624
58.0,-8.0,5.625
54.0,-10.0,5.626
39.0,-10.0,5.627
23.0,-17.0,5.628
5.0,-26.0,5.629
-20.0,-30.0,5.63
-35.0,-27.0,5.631
-29.0,-23.0,5.632
-13.0,-15.0,5.633
-9.0,0.0,5.634
-11.0,16.0,5.635
-1.0,23.0,5.636
12.0,20.0,5.637
10.0,15.0,5.638
2.0,25.0,5.639
3.0,44.0,5.64
8.0,57.0,5.641
0.0,55.0,5.642
-7.0,31.0,5.643
-2.0,0.0,5.644
3.0,-15.0,5.645
-4.0,-11.0,5.646
-15.0,-9.0,5.647
-15.0,-13.0,5.648
-15.0,-11.0,5.649
-24.0,-1.0,5.65
-26.0,2.0,5.651
-7.0,-11.0,5.652
25.0,-21.0,5.653
52.0,-11.0,5.654
78.0,3.0,5.655
101.0,9.0,5.656
100.0,11.0,5.657
54.0,16.0,5.658
-12.0,16.0,5.659
-65.0,4.0,5.66
-87.0,-12.0,5.661
-79.0,-11.0,5.662
-52.0,-4.0,5.663
-29.0,-4.0,5.664
-52.0,-8.0,5.665
-113.0,-6.0,5.666
-137.0,-1.0,5.667
-76.0,-7.0,5.668
11.0,-20.0,5.669
51.0,-21.0,5.67
54.0,-11.0,5.671
78.0,-7.0,5.672
127.0,-14.0,5.673
149.0,-18.0,5.674
128.0,-8.0,5.675
91.0,3.0,5.676
58.0,4.0,5.677
20.0,0.0,5.678
-11.0,5.0,5.679
-21.0,13.0,5.68
-26.0,12.0,5.681
-44.0,5.0,5.682
-58.0,0.0,5.683
-50.0,-5.0,5.684
-32.0,-9.0,5.685
-16.0,-12.0,5.686
8.0,-11.0,5.687
30.0,-10.0,5.688
20.0,-10.0,5.689
-16.0,-14.0,5.69
-31.0,-14.0,5.691
-10.0,-7.0,5.692
6.0,2.0,5.693
-5.0,3.0,5.694
-10.0,-3.0,5.695
8.0,-2.0,5.696
22.0,17.0,5.697
10.0,40.0,5.698
-3.0,49.0,5.699
0.0,38.0,5.7
0.0,17.0,5.701
-15.0,5.0,5.702
-19.0,0.0,5.703
6.0,-2.0,5.704
35.0,-6.0,5.705
38.0,-13.0,5.706
15.0,-20.0,5.707
-29.0,-20.0,5.708
-91.0,-13.0,5.709
-134.0,-5.0,5.71
-98.0,1.0,5.711
17.0,3.0,5.712
127.0,1.0,5.713
167.0,-3.0,5.714
154.0,-6.0,5.715
128.0,0.0,5.716
77.0,11.0,5.717
-12.0,17.0,5.718
-79.0,15.0,5.719
-71.0,7.0,5.72
-24.0,0.0,5.721
-7.0,-6.0,5.722
-18.0,-9.0,5.723
-14.0,-8.0,5.724
-1.0,-6.0,5.725
-23.0,-8.0,5.726
-73.0,-15.0,5.727
-100.0,-25.0,5.728
-84.0,-31.0,5.729
-49.0,-33.0,5.73
-8.0,-28.0,5.731
45.0,-12.0,5.732
95.0,8.0,5.733
112.0,20.0,5.734
86.0,26.0,5.735
42.0,34.0,5.736
9.0,41.0,5.737
-4.0,29.0,5.738
0.0,1.0,5.739
4.0,-14.0,5.74
0.0,-8.0,5.741
-6.0,1.0,5.742
-3.0,-5.0,5.743
0.0,-14.0,5.744
-13.0,-9.0,5.745
-30.0,1.0,5.746
-22.0,1.0,5.747
13.0,-3.0,5.748
41.0,3.0,5.749
33.0,10.0,5.75
-2.0,1.0,5.751
-38.0,-17.0,5.752
-56.0,-26.0,5.753
-53.0,-20.0,5.754
-29.0,-11.0,5.755
3.0,-2.0,5.756
32.0,12.0,5.757
48.0,25.0,5.758
44.0,30.0,5.759
24.0,31.0,5.76
8.0,17.0,5.761
10.0,4.0,5.762
23.0,-8.0,5.763
28.0,-17.0,5.764
21.0,-15.0,5.765
13.0,-13.0,5.766
-1.0,-13.0,5.767
-33.0,-12.0,5.768
-80.0,-12.0,5.769
-110.0,-12.0,5.77
-95.0,-10.0,5.771
-37.0,-5.0,5.772
21.0,11.0,5.773
43.0,25.0,5.774
31.0,30.0,5.775
29.0,28.0,5.776
58.0,6.0,5.777
89.0,-12.0,5.778
85.0,-5.0,5.779
51.0,20.0,5.78
32.0,24.0,5.781
38.0,6.0,5.782
35.0,-12.0,5.783
3.0,-12.0,5.784
-37.0,-4.0,5.785
-60.0,-2.0,5.786
-60.0,-6.0,5.787
-43.0,-6.0,5.788
-29.0,-6.0,5.789
-34.0,-9.0,5.79
-52.0,-17.0,5.791
-50.0,-19.0,5.792
-9.0,-13.0,5.793
33.0,-3.0,5.794
40.0,4.0,5.795
31.0,7.0,5.796
47.0,5.0,5.797
73.0,-6.0,5.798
64.0,-20.0,5.799
32.0,-23.0,5.8
32.0,-11.0,5.801
61.0,11.0,5.802
49.0,30.0,5.803
-11.0,35.0,5.804
-52.0,27.0,5.805
-45.0,9.0,5.806
-41.0,-7.0,5.807
-60.0,-12.0,5.808
-55.0,-11.0,5.809
-9.0,-15.0,5.81
20.0,-25.0,5.811
-6.0,-25.0,5.812
-33.0,-13.0,5.813
-24.0,1.0,5.814
2.0,6.0,5.815
15.0,7.0,5.816
30.0,9.0,5.817
52.0,4.0,5.818
51.0,-4.0,5.819
9.0,-10.0,5.82
-36.0,-15.0,5.821
-52.0,-18.0,5.822
-40.0,-18.0,5.823
-10.0,-7.0,5.824
23.0,10.0,5.825
33.0,17.0,5.826
13.0,3.0,5.827
2.0,-14.0,5.828
30.0,-14.0,5.829
60.0,5.0,5.83
46.0,23.0,5.831
4.0,19.0,5.832
-18.0,4.0,5.833
-24.0,-5.0,5.834
-40.0,2.0,5.835
-54.0,13.0,5.836
-41.0,20.0,5.837
-12.0,23.0,5.838
8.0,23.0,5.839
16.0,19.0,5.84
23.0,5.0,5.841
12.0,-3.0,5.842
-28.0,4.0,5.843
-66.0,7.0,5.844
-50.0,-2.0,5.845
7.0,-10.0,5.846
57.0,-9.0,5.847
71.0,-8.0,5.848
76.0,-9.0,5.849
99.0,-10.0,5.85
126.0,-11.0,5.851
132.0,-12.0,5.852
102.0,-6.0,5.853
41.0,-1.0,5.854
-34.0,4.0,5.855
-100.0,7.0,5.856
-135.0,4.0,5.857
-139.0,0.0,5.858
-125.0,-2.0,5.859
-110.0,-4.0,5.86
-91.0,-7.0,5.861
-48.0,-8.0,5.862
22.0,-9.0,5.863
94.0,-10.0,5.864
120.0,-6.0,5.865
85.0,-2.0,5.866
30.0,-4.0,5.867
0.0,-10.0,5.868
-3.0,-12.0,5.869
-6.0,-10.0,5.87
-15.0,-12.0,5.871
-6.0,-17.0,5.872
34.0,-19.0,5.873
74.0,-15.0,5.874
73.0,-8.0,5.875
37.0,-1.0,5.876
9.0,10.0,5.877
10.0,27.0,5.878
21.0,36.0,5.879
1.0,39.0,5.88
-45.0,20.0,5.881
-68.0,5.0,5.882
-34.0,3.0,5.883
11.0,2.0,5.884
11.0,2.0,5.885
-27.0,2.0,5.886
-43.0,-3.0,5.887
-24.0,-8.0,5.888
-7.0,-9.0,5.889
-19.0,-9.0,5.89
-45.0,-3.0,5.891
-66.0,2.0,5.892
-89.0,8.0,5.893
-107.0,10.0,5.894
-79.0,0.0,5.895
4.0,-6.0,5.896
88.0,-2.0,5.897
126.0,1.0,5.898
127.0,0.0,5.899
123.0,8.0,5.9
103.0,13.0,5.901
79.0,7.0,5.902
47.0,-10.0,5.903
19.0,-19.0,5.904
5.0,-12.0,5.905
-8.0,-3.0,5.906
-22.0,0.0,5.907
-32.0,-2.0,5.908
-26.0,-5.0,5.909
-25.0,-7.0,5.91
-42.0,-7.0,5.911
-49.0,0.0,5.912
-24.0,8.0,5.913
1.0,9.0,5.914
27.0,3.0,5.915
42.0,-1.0,5.916
19.0,2.0,5.917
-10.0,2.0,5.918
-54.0,0.0,5.919
-64.0,-2.0,5.92
-29.0,-3.0,5.921
21.0,-6.0,5.922
59.0,-14.0,5.923
78.0,-21.0,5.924
76.0,-26.0,5.925
43.0,-32.0,5.926
-13.0,-40.0,5.927
-65.0,-43.0,5.928
-82.0,-28.0,5.929
-64.0,-7.0,5.93
-34.0,27.0,5.931
-13.0,54.0,5.932
-6.0,55.0,5.933
-6.0,52.0,5.934
0.0,32.0,5.935
13.0,14.0,5.936
21.0,8.0,5.937
20.0,2.0,5.938
15.0,0.0,5.939
15.0,5.0,5.94
13.0,9.0,5.941
8.0,4.0,5.942
4.0,-14.0,5.943
4.0,-29.0,5.944
-5.0,-20.0,5.945
-23.0,3.0,5.946
-30.0,17.0,5.947
-15.0,11.0,5.948
16.0,-2.0,5.949
44.0,-12.0,5.95
58.0,-20.0,5.951
51.0,-27.0,5.952
32.0,-29.0,5.953
11.0,-21.0,5.954
-15.0,-2.0,5.955
-56.0,18.0,5.956
-89.0,35.0,5.957
-70.0,34.0,5.958
13.0,16.0,5.959
101.0,-5.0,5.96
133.0,-17.0,5.961
115.0,-17.0,5.962
85.0,-14.0,5.963
46.0,-7.0,5.964
-6.0,2.0,5.965
-51.0,7.0,5.966
-59.0,2.0,5.967
-49.0,-4.0,5.968
-52.0,-9.0,5.969
-64.0,-17.0,5.97
-65.0,-28.0,5.971
-54.0,-34.0,5.972
-41.0,-26.0,5.973
-13.0,-10.0,5.974
40.0,5.0,5.975
89.0,9.0,5.976
95.0,0.0,5.977
61.0,11.0,5.978
36.0,-3.0,5.979
43.0,-14.0,5.98
51.0,-7.0,5.981
22.0,0.0,5.982
-29.0,12.0,5.983
-68.0,22.0,5.984
-85.0,20.0,5.985
-89.0,11.0,5.986
-77.0,-15.0,5.987
-31.0,-37.0,5.988
30.0,-39.0,5.989
66.0,-33.0,5.99
54.0,-4.0,5.991
22.0,15.0,5.992
-12.0,12.0,5.993
-43.0,11.0,5.994
-67.0,12.0,5.995
-52.0,14.0,5.996
12.0,4.0,5.997
91.0,7.0,5.998
114.0,-2.0,5.999
57.0,-9.0,6.0
-26.0,-5.0,6.001
-70.0,0.0,6.002
-57.0,8.0,6.003
-17.0,14.0,6.004
21.0,13.0,6.005
45.0,7.0,6.006
54.0,-10.0,6.007
51.0,-24.0,6.008
33.0,-25.0,6.009
1.0,-21.0,6.01
-30.0,-3.0,6.011
-29.0,10.0,6.012
5.0,8.0,6.013
33.0,7.0,6.014
17.0,8.0,6.015
-17.0,9.0,6.016
-23.0,3.0,6.017
4.0,-3.0,6.018
30.0,-11.0,6.019
22.0,-18.0,6.02
-8.0,-29.0,6.021
-35.0,-24.0,6.022
-53.0,8.0,6.023
-61.0,50.0,6.024
-56.0,74.0,6.025
-33.0,68.0,6.026
4.0,47.0,6.027
38.0,26.0,6.028
50.0,5.0,6.029
35.0,-9.0,6.03
11.0,-15.0,6.031
-3.0,-15.0,6.032
-3.0,-15.0,6.033
0.0,-17.0,6.034
-5.0,-19.0,6.035
-26.0,-18.0,6.036
-65.0,-11.0,6.037
-115.0,-6.0,6.038
-132.0,-3.0,6.039
-86.0,-4.0,6.04
10.0,-13.0,6.041
106.0,-16.0,6.042
170.0,-13.0,6.043
199.0,-11.0,6.044
190.0,-11.0,6.045
139.0,-10.0,6.046
81.0,-7.0,6.047
60.0,-6.0,6.048
65.0,-8.0,6.049
36.0,-9.0,6.05
-39.0,-11.0,6.051
-86.0,-14.0,6.052
-56.0,-17.0,6.053
-4.0,-17.0,6.054
-7.0,-15.0,6.055
-54.0,-12.0,6.056
-82.0,-3.0,6.057
-77.0,13.0,6.058
-63.0,29.0,6.059
-43.0,37.0,6.06
-4.0,35.0,6.061
32.0,31.0,6.062
28.0,20.0,6.063
-13.0,6.0,6.064
-41.0,-2.0,6.065
-36.0,-2.0,6.066
-10.0,-6.0,6.067
28.0,-17.0,6.068
67.0,-24.0,6.069
75.0,-17.0,6.07
32.0,-1.0,6.071
-27.0,9.0,6.072
-56.0,11.0,6.073
-53.0,6.0,6.074
-48.0,0.0,6.075
-47.0,0.0,6.076
-30.0,4.0,6.077
0.0,4.0,6.078
14.0,2.0,6.079
-2.0,1.0,6.08
-20.0,2.0,6.081
-18.0,3.0,6.082
-2.0,1.0,6.083
16.0,-3.0,6.084
36.0,-17.0,6.085
56.0,-28.0,6.086
65.0,-30.0,6.087
56.0,-29.0,6.088
43.0,-19.0,6.089
28.0,-9.0,6.09
2.0,0.0,6.091
-27.0,10.0,6.092
-36.0,23.0,6.093
-26.0,31.0,6.094
-23.0,17.0,6.095
-34.0,7.0,6.096
-35.0,7.0,6.097
-14.0,8.0,6.098
16.0,4.0,6.099
31.0,-5.0,6.1
36.0,-12.0,6.101
38.0,-12.0,6.102
40.0,-5.0,6.103
38.0,10.0,6.104
22.0,24.0,6.105
-18.0,23.0,6.106
-74.0,3.0,6.107
-103.0,-19.0,6.108
-75.0,-27.0,6.109
-22.0,-17.0,6.11
11.0,5.0,6.111
23.0,27.0,6.112
56.0,32.0,6.113
107.0,15.0,6.114
120.0,-8.0,6.115
68.0,-14.0,6.116
9.0,-3.0,6.117
-3.0,10.0,6.118
21.0,10.0,6.119
21.0,0.0,6.12
-14.0,-17.0,6.121
-30.0,-25.0,6.122
0.0,-21.0,6.123
32.0,-10.0,6.124
17.0,0.0,6.125
-23.0,2.0,6.126
-43.0,-1.0,6.127
-38.0,0.0,6.128
-33.0,-1.0,6.129
-41.0,-10.0,6.13
-42.0,-21.0,6.131
-29.0,-17.0,6.132
-14.0,2.0,6.133
0.0,15.0,6.134
24.0,6.0,6.135
55.0,-17.0,6.136
76.0,-32.0,6.137
80.0,-30.0,6.138
86.0,-11.0,6.139
91.0,14.0,6.14
69.0,32.0,6.141
9.0,35.0,6.142
-47.0,28.0,6.143
-68.0,22.0,6.144
-76.0,26.0,6.145
-100.0,33.0,6.146
-111.0,28.0,6.147
-61.0,13.0,6.148
27.0,0.0,6.149
79.0,-5.0,6.15
57.0,-11.0,6.151
-17.0,-18.0,6.152
-103.0,-23.0,6.153
-156.0,-25.0,6.154
-137.0,-29.0,6.155
-53.0,-28.0,6.156
26.0,-15.0,6.157
55.0,10.0,6.158
56.0,1.0,6.159
67.0,-6.0,6.16
73.0,-7.0,6.161
40.0,-6.0,6.162
1.0,0.0,6.163
15.0,9.0,6.164
58.0,19.0,6.165
67.0,23.0,6.166
44.0,13.0,6.167
42.0,5.0,6.168
61.0,2.0,6.169
58.0,0.0,6.17
31.0,-1.0,6.171
21.0,-3.0,6.172
35.0,-9.0,6.173
40.0,-13.0,6.174
28.0,-14.0,6.175
6.0,-13.0,6.176
-32.0,-4.0,6.177
-82.0,14.0,6.178
-96.0,2.0,6.179
-58.0,-8.0,6.18
-22.0,-10.0,6.181
-35.0,-9.0,6.182
-46.0,1.0,6.183
-8.0,13.0,6.184
47.0,25.0,6.185
69.0,31.0,6.186
64.0,18.0,6.187
54.0,7.0,6.188
27.0,3.0,6.189
-9.0,0.0,6.19
-18.0,-2.0,6.191
-5.0,-5.0,6.192
-21.0,-12.0,6.193
-62.0,-18.0,6.194
-73.0,-19.0,6.195
-51.0,-18.0,6.196
-41.0,-6.0,6.197
-52.0,7.0,6.198
-39.0,20.0,6.199
0.0,26.0,6.2
21.0,26.0,6.201
7.0,28.0,6.202
-13.0,26.0,6.203
-20.0,11.0,6.204
-21.0,-5.0,6.205
-7.0,-8.0,6.206
29.0,-4.0,6.207
66.0,-12.0,6.208
76.0,-29.0,6.209
67.0,-38.0,6.21
74.0,-34.0,6.211
85.0,-33.0,6.212
77.0,-37.0,6.213
56.0,-28.0,6.214
34.0,-4.0,6.215
-6.0,8.0,6.216
-54.0,9.0,6.217
-70.0,8.0,6.218
-44.0,15.0,6.219
-26.0,19.0,6.22
-32.0,5.0,6.221
-31.0,-7.0,6.222
-5.0,-10.0,6.223
11.0,-7.0,6.224
1.0,1.0,6.225
-2.0,17.0,6.226
16.0,31.0,6.227
22.0,30.0,6.228
-14.0,16.0,6.229
-41.0,9.0,6.23
-41.0,6.0,6.231
-31.0,-2.0,6.232
2.0,-8.0,6.233
39.0,-1.0,6.234
83.0,7.0,6.235
111.0,3.0,6.236
90.0,-3.0,6.237
67.0,-1.0,6.238
37.0,5.0,6.239
8.0,0.0,6.24
-7.0,-9.0,6.241
6.0,-3.0,6.242
18.0,7.0,6.243
0.0,-1.0,6.244
-21.0,-18.0,6.245
-15.0,-22.0,6.246
-18.0,-13.0,6.247
-69.0,-8.0,6.248
-119.0,-9.0,6.249
-116.0,-9.0,6.25
-95.0,-6.0,6.251
-100.0,-4.0,6.252
-79.0,-2.0,6.253
8.0,9.0,6.254
90.0,17.0,6.255
72.0,10.0,6.256
7.0,1.0,6.257
-3.0,2.0,6.258
45.0,12.0,6.259
59.0,15.0,6.26
27.0,8.0,6.261
26.0,6.0,6.262
71.0,3.0,6.263
78.0,-8.0,6.264
17.0,-22.0,6.265
-32.0,-29.0,6.266
-7.0,-29.0,6.267
45.0,-26.0,6.268
49.0,-20.0,6.269
12.0,-9.0,6.27
-22.0,-2.0,6.271
-35.0,-5.0,6.272
-35.0,-8.0,6.273
-17.0,0.0,6.274
12.0,13.0,6.275
27.0,18.0,6.276
18.0,23.0,6.277
3.0,33.0,6.278
0.0,40.0,6.279
-9.0,30.0,6.28
-39.0,7.0,6.281
-60.0,-6.0,6.282
-36.0,-11.0,6.283
11.0,-22.0,6.284
32.0,-28.0,6.285
10.0,-15.0,6.286
-28.0,14.0,6.287
-54.0,36.0,6.288
-62.0,39.0,6.289
-54.0,29.0,6.29
-37.0,13.0,6.291
-6.0,-1.0,6.292
40.0,-5.0,6.293
82.0,-4.0,6.294
90.0,-5.0,6.295
59.0,-15.0,6.296
28.0,-24.0,6.297
32.0,-29.0,6.298
63.0,-31.0,6.299
82.0,-36.0,6.3
72.0,-41.0,6.301
44.0,-33.0,6.302
20.0,-18.0,6.303
7.0,-3.0,6.304
-11.0,6.0,6.305
-52.0,8.0,6.306
-107.0,7.0,6.307
-124.0,4.0,6.308
-74.0,3.0,6.309
0.0,3.0,6.31
28.0,0.0,6.311
7.0,0.0,6.312
-1.0,9.0,6.313
21.0,22.0,6.314
32.0,26.0,6.315
13.0,15.0,6.316
2.0,5.0,6.317
23.0,1.0,6.318
49.0,6.0,6.319
40.0,10.0,6.32
2.0,9.0,6.321
-35.0,9.0,6.322
-50.0,7.0,6.323
-40.0,3.0,6.324
-12.0,-5.0,6.325
22.0,-11.0,6.326
40.0,-19.0,6.327
32.0,-32.0,6.328
-6.0,-42.0,6.329
-60.0,-33.0,6.33
-83.0,-4.0,6.331
-41.0,26.0,6.332
30.0,34.0,6.333
62.0,21.0,6.334
43.0,5.0,6.335
43.0,6.0,6.336
93.0,23.0,6.337
128.0,40.0,6.338
69.0,39.0,6.339
-50.0,17.0,6.34
-116.0,-9.0,6.341
-89.0,-19.0,6.342
-36.0,-14.0,6.343
-20.0,-7.0,6.344
-29.0,-4.0,6.345
-28.0,-5.0,6.346
-13.0,-8.0,6.347
1.0,-16.0,6.348
0.0,-23.0,6.349
-20.0,-26.0,6.35
-53.0,-21.0,6.351
-62.0,-15.0,6.352
-21.0,-17.0,6.353
45.0,-22.0,6.354
89.0,-11.0,6.355
93.0,18.0,6.356
76.0,41.0,6.357
61.0,36.0,6.358
41.0,15.0,6.359
-7.0,-2.0,6.36
-71.0,-7.0,6.361
-96.0,1.0,6.362
-55.0,13.0,6.363
4.0,26.0,6.364
22.0,33.0,6.365
5.0,24.0,6.366
8.0,5.0,6.367
39.0,-12.0,6.368
63.0,-21.0,6.369
76.0,-21.0,6.37
107.0,-16.0,6.371
123.0,-9.0,6.372
56.0,-2.0,6.373
-86.0,-4.0,6.374
-203.0,-16.0,6.375
-219.0,-28.0,6.376
-155.0,-30.0,6.377
-34.0,-29.0,6.378
107.0,-27.0,6.379
185.0,-23.0,6.38
143.0,-11.0,6.381
43.0,0.0,6.382
4.0,6.0,6.383
37.0,15.0,6.384
37.0,29.0,6.385
-18.0,39.0,6.386
-41.0,30.0,6.387
7.0,22.0,6.388
48.0,17.0,6.389
22.0,12.0,6.39
-17.0,9.0,6.391
-7.0,3.0,6.392
23.0,-6.0,6.393
20.0,-14.0,6.394
2.0,-15.0,6.395
16.0,-15.0,6.396
54.0,-13.0,6.397
68.0,-9.0,6.398
38.0,-7.0,6.399
-3.0,-7.0,6.4
-81.0,-6.0,6.401
-144.0,-3.0,6.402
-157.0,-7.0,6.403
-148.0,-14.0,6.404
-70.0,-10.0,6.405
-6.0,8.0,6.406
15.0,24.0,6.407
21.0,19.0,6.408
-23.0,2.0,6.409
-48.0,-5.0,6.41
-10.0,5.0,6.411
23.0,16.0,6.412
43.0,14.0,6.413
60.0,-4.0,6.414
71.0,-22.0,6.415
82.0,-27.0,6.416
90.0,-16.0,6.417
94.0,-3.0,6.418
72.0,5.0,6.419
19.0,1.0,6.42
-61.0,-13.0,6.421
-119.0,-15.0,6.422
-103.0,3.0,6.423
-35.0,39.0,6.424
9.0,59.0,6.425
-1.0,42.0,6.426
-6.0,-1.0,6.427
43.0,-23.0,6.428
99.0,-7.0,6.429
89.0,20.0,6.43
23.0,27.0,6.431
-20.0,13.0,6.432
-3.0,1.0,6.433
30.0,-3.0,6.434
28.0,-6.0,6.435
4.0,-12.0,6.436
-8.0,-12.0,6.437
-22.0,-11.0,6.438
-64.0,-17.0,6.439
-104.0,-22.0,6.44
-137.0,-21.0,6.441
-141.0,-10.0,6.442
-54.0,-8.0,6.443
15.0,-22.0,6.444
29.0,-34.0,6.445
65.0,-39.0,6.446
164.0,-44.0,6.447
218.0,-51.0,6.448
132.0,-50.0,6.449
49.0,-32.0,6.45
-28.0,2.0,6.451
-71.0,43.0,6.452
-7.0,84.0,6.453
32.0,106.0,6.454
-5.0,93.0,6.455
-38.0,48.0,6.456
-61.0,10.0,6.457
-81.0,-4.0,6.458
-78.0,0.0,6.459
-45.0,-2.0,6.46
-11.0,-15.0,6.461
11.0,-21.0,6.462
36.0,-15.0,6.463
68.0,-11.0,6.464
94.0,-14.0,6.465
125.0,-17.0,6.466
188.0,-18.0,6.467
250.0,-26.0,6.468
234.0,-44.0,6.469
113.0,-59.0,6.47
-60.0,-51.0,6.471
-218.0,-16.0,6.472
-308.0,36.0,6.473
-302.0,81.0,6.474
-206.0,88.0,6.475
-88.0,61.0,6.476
-23.0,33.0,6.477
-19.0,24.0,6.478
-18.0,25.0,6.479
10.0,15.0,6.48
39.0,-7.0,6.481
37.0,-17.0,6.482
22.0,-17.0,6.483
15.0,-22.0,6.484
1.0,-32.0,6.485
-28.0,-39.0,6.486
-36.0,-41.0,6.487
17.0,-45.0,6.488
98.0,-49.0,6.489
121.0,-45.0,6.49
52.0,-34.0,6.491
-51.0,-25.0,6.492
-105.0,-19.0,6.493
-76.0,-16.0,6.494
-4.0,-11.0,6.495
53.0,-6.0,6.496
65.0,2.0,6.497
47.0,7.0,6.498
30.0,5.0,6.499
28.0,0.0,6.5
29.0,3.0,6.501
24.0,13.0,6.502
20.0,19.0,6.503
21.0,23.0,6.504
24.0,26.0,6.505
18.0,28.0,6.506
5.0,29.0,6.507
-2.0,26.0,6.508
-3.0,20.0,6.509
-5.0,11.0,6.51
-2.0,4.0,6.511
5.0,1.0,6.512
11.0,-5.0,6.513
11.0,-18.0,6.514
5.0,-27.0,6.515
2.0,-12.0,6.516
8.0,16.0,6.517
15.0,33.0,6.518
16.0,35.0,6.519
9.0,35.0,6.52
11.0,24.0,6.521
24.0,10.0,6.522
27.0,-11.0,6.523
1.0,-22.0,6.524
-28.0,3.0,6.525
-26.0,20.0,6.526
-6.0,9.0,6.527
-13.0,-3.0,6.528
-39.0,-16.0,6.529
-37.0,-21.0,6.53
1.0,4.0,6.531
47.0,20.0,6.532
82.0,6.0,6.533
105.0,-7.0,6.534
89.0,-15.0,6.535
2.0,-21.0,6.536
-101.0,-15.0,6.537
-148.0,-9.0,6.538
-105.0,0.0,6.539
0.0,12.0,6.54
124.0,13.0,6.541
201.0,6.0,6.542
134.0,-3.0,6.543
-87.0,-6.0,6.544
-291.0,-10.0,6.545
-293.0,-13.0,6.546
-125.0,-13.0,6.547
21.0,-11.0,6.548
52.0,-14.0,6.549
35.0,-21.0,6.55
31.0,-19.0,6.551
4.0,-10.0,6.552
-66.0,-7.0,6.553
-108.0,-7.0,6.554
-51.0,6.0,6.555
72.0,30.0,6.556
174.0,37.0,6.557
211.0,10.0,6.558
179.0,-25.0,6.559
89.0,-30.0,6.56
-37.0,-3.0,6.561
-137.0,26.0,6.562
-130.0,28.0,6.563
-9.0,4.0,6.564
131.0,-15.0,6.565
187.0,-13.0,6.566
156.0,7.0,6.567
113.0,28.0,6.568
85.0,37.0,6.569
34.0,31.0,6.57
-40.0,11.0,6.571
-68.0,-16.0,6.572
-19.0,-39.0,6.573
23.0,-39.0,6.574
-6.0,-11.0,6.575
-42.0,19.0,6.576
-7.0,31.0,6.577
51.0,15.0,6.578
16.0,-8.0,6.579
-123.0,-20.0,6.58
-228.0,-23.0,6.581
-204.0,-22.0,6.582
-98.0,-20.0,6.583
-19.0,-13.0,6.584
-1.0,0.0,6.585
13.0,12.0,6.586
46.0,15.0,6.587
35.0,6.0,6.588
-78.0,-3.0,6.589
-212.0,0.0,6.59
-209.0,9.0,6.591
-30.0,12.0,6.592
179.0,1.0,6.593
262.0,-13.0,6.594
200.0,-18.0,6.595
81.0,-14.0,6.596
-1.0,-6.0,6.597
-16.0,1.0,6.598
17.0,5.0,6.599
33.0,-10.0,6.6
-3.0,-37.0,6.601
-29.0,-45.0,6.602
-25.0,-13.0,6.603
-19.0,39.0,6.604
-9.0,70.0,6.605
-4.0,61.0,6.606
-16.0,29.0,6.607
-10.0,5.0,6.608
50.0,1.0,6.609
85.0,6.0,6.61
46.0,3.0,6.611
18.0,-7.0,6.612
23.0,-10.0,6.613
23.0,-3.0,6.614
8.0,0.0,6.615
-6.0,-11.0,6.616
-19.0,-25.0,6.617
-30.0,-31.0,6.618
-36.0,-26.0,6.619
-43.0,-19.0,6.62
-13.0,-16.0,6.621
47.0,-15.0,6.622
95.0,-11.0,6.623
109.0,-4.0,6.624
92.0,7.0,6.625
46.0,16.0,6.626
-21.0,12.0,6.627
-78.0,-6.0,6.628
-92.0,-20.0,6.629
-68.0,-14.0,6.63
-27.0,5.0,6.631
16.0,23.0,6.632
37.0,25.0,6.633
8.0,14.0,6.634
-48.0,0.0,6.635
-71.0,1.0,6.636
-40.0,19.0,6.637
-3.0,45.0,6.638
13.0,43.0,6.639
-3.0,21.0,6.64
-6.0,-6.0,6.641
6.0,-20.0,6.642
10.0,-24.0,6.643
-11.0,-23.0,6.644
-54.0,-10.0,6.645
-106.0,9.0,6.646
-114.0,18.0,6.647
-39.0,9.0,6.648
84.0,-9.0,6.649
159.0,-13.0,6.65
155.0,-10.0,6.651
114.0,-10.0,6.652
61.0,-19.0,6.653
-22.0,-23.0,6.654
-112.0,-13.0,6.655
-134.0,-8.0,6.656
-90.0,-15.0,6.657
-37.0,-29.0,6.658
-22.0,-31.0,6.659
28.0,-26.0,6.66
109.0,-25.0,6.661
164.0,-23.0,6.662
181.0,-10.0,6.663
177.0,13.0,6.664
112.0,35.0,6.665
-48.0,49.0,6.666
-212.0,59.0,6.667
-235.0,54.0,6.668
-126.0,31.0,6.669
-46.0,1.0,6.67
-70.0,-12.0,6.671
-87.0,-14.0,6.672
8.0,-13.0,6.673
138.0,1.0,6.674
172.0,32.0,6.675
119.0,52.0,6.676
90.0,38.0,6.677
119.0,-4.0,6.678
153.0,-33.0,6.679
171.0,-28.0,6.68
139.0,-19.0,6.681
71.0,-23.0,6.682
-106.0,-33.0,6.683
-248.0,-35.0,6.684
-281.0,-23.0,6.685
-266.0,-8.0,6.686
-104.0,2.0,6.687
5.0,3.0,6.688
-45.0,-4.0,6.689
-88.0,-12.0,6.69
-106.0,-13.0,6.691
-99.0,-6.0,6.692
-17.0,-3.0,6.693
59.0,-6.0,6.694
119.0,-2.0,6.695
153.0,11.0,6.696
109.0,24.0,6.697
65.0,25.0,6.698
45.0,18.0,6.699
59.0,14.0,6.7
89.0,13.0,6.701
115.0,13.0,6.702
115.0,13.0,6.703
75.0,14.0,6.704
15.0,8.0,6.705
-13.0,-7.0,6.706
12.0,-18.0,6.707
52.0,-11.0,6.708
58.0,2.0,6.709
27.0,2.0,6.71
-1.0,-18.0,6.711
0.0,-43.0,6.712
1.0,-51.0,6.713
-53.0,-39.0,6.714
-165.0,-18.0,6.715
-243.0,3.0,6.716
-211.0,23.0,6.717
-82.0,35.0,6.718
35.0,32.0,6.719
58.0,21.0,6.72
9.0,12.0,6.721
-38.0,11.0,6.722
-30.0,4.0,6.723
33.0,-11.0,6.724
97.0,-20.0,6.725
94.0,-13.0,6.726
8.0,3.0,6.727
-96.0,10.0,6.728
-130.0,3.0,6.729
-87.0,-2.0,6.73
-23.0,-4.0,6.731
22.0,-9.0,6.732
55.0,-22.0,6.733
70.0,-28.0,6.734
34.0,-18.0,6.735
-50.0,-3.0,6.736
-119.0,6.0,6.737
-119.0,9.0,6.738
-48.0,19.0,6.739
42.0,33.0,6.74
103.0,31.0,6.741
135.0,17.0,6.742
155.0,5.0,6.743
160.0,6.0,6.744
123.0,10.0,6.745
45.0,5.0,6.746
-25.0,-4.0,6.747
-36.0,-7.0,6.748
7.0,-10.0,6.749
53.0,-20.0,6.75
65.0,-29.0,6.751
52.0,-26.0,6.752
29.0,-10.0,6.753
-3.0,0.0,6.754
-48.0,-2.0,6.755
-75.0,-4.0,6.756
-58.0,2.0,6.757
-9.0,9.0,6.758
23.0,11.0,6.759
15.0,4.0,6.76
-6.0,-12.0,6.761
-20.0,-26.0,6.762
-49.0,-25.0,6.763
-102.0,-4.0,6.764
-122.0,26.0,6.765
-68.0,44.0,6.766
12.0,37.0,6.767
61.0,19.0,6.768
97.0,5.0,6.769
149.0,2.0,6.77
146.0,11.0,6.771
18.0,23.0,6.772
-142.0,19.0,6.773
-163.0,-7.0,6.774
-32.0,-36.0,6.775
71.0,-46.0,6.776
31.0,-34.0,6.777
-95.0,-21.0,6.778
-148.0,-14.0,6.779
-58.0,-12.0,6.78
108.0,-14.0,6.781
215.0,-13.0,6.782
167.0,-6.0,6.783
-16.0,9.0,6.784
-198.0,18.0,6.785
-250.0,11.0,6.786
-158.0,-6.0,6.787
-7.0,-16.0,6.788
117.0,-6.0,6.789
161.0,18.0,6.79
118.0,45.0,6.791
36.0,54.0,6.792
-13.0,37.0,6.793
-10.0,7.0,6.794
6.0,-8.0,6.795
37.0,1.0,6.796
102.0,14.0,6.797
177.0,8.0,6.798
163.0,-13.0,6.799
36.0,-27.0,6.8
-85.0,-29.0,6.801
-109.0,-31.0,6.802
-76.0,-41.0,6.803
-84.0,-51.0,6.804
-134.0,-39.0,6.805
-134.0,-12.0,6.806
-41.0,11.0,6.807
74.0,17.0,6.808
109.0,14.0,6.809
55.0,15.0,6.81
-2.0,20.0,6.811
6.0,23.0,6.812
44.0,23.0,6.813
51.0,12.0,6.814
34.0,-4.0,6.815
32.0,-13.0,6.816
37.0,-9.0,6.817
9.0,3.0,6.818
-27.0,7.0,6.819
-25.0,-3.0,6.82
2.0,-14.0,6.821
0.0,-15.0,6.822
-9.0,-12.0,6.823
26.0,-5.0,6.824
50.0,16.0,6.825
-25.0,42.0,6.826
-134.0,47.0,6.827
-119.0,16.0,6.828
-3.0,-24.0,6.829
36.0,-38.0,6.83
-48.0,-27.0,6.831
-93.0,-18.0,6.832
-2.0,-34.0,6.833
112.0,-52.0,6.834
122.0,-39.0,6.835
62.0,6.0,6.836
17.0,52.0,6.837
-15.0,73.0,6.838
-53.0,66.0,6.839
-71.0,38.0,6.84
-43.0,-1.0,6.841
-5.0,-28.0,6.842
-1.0,-29.0,6.843
-24.0,-9.0,6.844
-31.0,13.0,6.845
10.0,28.0,6.846
83.0,36.0,6.847
120.0,35.0,6.848
70.0,20.0,6.849
-26.0,-4.0,6.85
-53.0,-26.0,6.851
41.0,-42.0,6.852
170.0,-54.0,6.853
213.0,-61.0,6.854
138.0,-49.0,6.855
2.0,-24.0,6.856
-121.0,-7.0,6.857
-66.0,-8.0,6.858
-40.0,-35.0,6.859
-18.0,-58.0,6.86
-6.0,-60.0,6.861
15.0,-53.0,6.862
65.0,-19.0,6.863
89.0,4.0,6.864
28.0,-1.0,6.865
-30.0,-8.0,6.866
-85.0,-16.0,6.867
-103.0,-24.0,6.868
-5.0,-25.0,6.869
82.0,-22.0,6.87
142.0,-2.0,6.871
169.0,16.0,6.872
92.0,24.0,6.873
30.0,29.0,6.874
19.0,23.0,6.875
15.0,15.0,6.876
36.0,1.0,6.877
-129.0,-7.0,6.878
-85.0,-36.0,6.879
-46.0,-59.0,6.88
-27.0,-61.0,6.881
9.0,-54.0,6.882
98.0,-20.0,6.883
139.0,5.0,6.884
34.0,0.0,6.885
-68.0,-7.0,6.886
-162.0,-17.0,6.887
-192.0,-25.0,6.888
-24.0,-26.0,6.889
127.0,-23.0,6.89
230.0,-1.0,6.891
275.0,17.0,6.892
143.0,25.0,6.893
38.0,30.0,6.894
16.0,24.0,6.895
9.0,16.0,6.896
47.0,2.0,6.897
83.0,-16.0,6.898
86.0,-45.0,6.899
63.0,-48.0,6.9
48.0,-15.0,6.901
10.0,42.0,6.902
-112.0,82.0,6.903
-265.0,75.0,6.904
-278.0,34.0,6.905
-106.0,1.0,6.906
91.0,-4.0,6.907
161.0,-3.0,6.908
116.0,-17.0,6.909
29.0,-34.0,6.91
-73.0,-27.0,6.911
-136.0,0.0,6.912
-87.0,20.0,6.913
20.0,24.0,6.914
29.0,22.0,6.915
-72.0,20.0,6.916
-106.0,5.0,6.917
15.0,-34.0,6.918
132.0,-69.0,6.919
76.0,-62.0,6.92
-51.0,-12.0,6.921
-52.0,45.0,6.922
58.0,68.0,6.923
111.0,50.0,6.924
64.0,14.0,6.925
27.0,-17.0,6.926
42.0,-33.0,6.927
45.0,-35.0,6.928
22.0,-25.0,6.929
50.0,-8.0,6.93
142.0,5.0,6.931
193.0,5.0,6.932
110.0,3.0,6.933
-64.0,19.0,6.934
-192.0,49.0,6.935
-185.0,59.0,6.936
-73.0,42.0,6.937
48.0,19.0,6.938
110.0,14.0,6.939
141.0,16.0,6.94
73.0,0.0,6.941
-5.0,-28.0,6.942
-113.0,-53.0,6.943
-189.0,-71.0,6.944
-170.0,-73.0,6.945
-158.0,-45.0,6.946
-168.0,-6.0,6.947
-182.0,2.0,6.948
-206.0,-27.0,6.949
-165.0,-49.0,6.95
69.0,-30.0,6.951
233.0,12.0,6.952
183.0,45.0,6.953
125.0,57.0,6.954
41.0,43.0,6.955
15.0,4.0,6.956
165.0,-26.0,6.957
278.0,-26.0,6.958
182.0,-4.0,6.959
18.0,10.0,6.96
-50.0,2.0,6.961
-30.0,0.0,6.962
0.0,22.0,6.963
16.0,41.0,6.964
-4.0,51.0,6.965
-105.0,55.0,6.966
-243.0,37.0,6.967
-271.0,14.0,6.968
-128.0,-27.0,6.969
61.0,-65.0,6.97
139.0,-90.0,6.971
99.0,-103.0,6.972
41.0,-80.0,6.973
20.0,-52.0,6.974
23.0,-10.0,6.975
32.0,20.0,6.976
46.0,11.0,6.977
74.0,3.0,6.978
85.0,9.0,6.979
60.0,21.0,6.98
10.0,32.0,6.981
-25.0,38.0,6.982
-23.0,20.0,6.983
-20.0,-19.0,6.984
-67.0,-39.0,6.985
-140.0,-11.0,6.986
-152.0,32.0,6.987
-53.0,51.0,6.988
110.0,43.0,6.989
252.0,35.0,6.99
309.0,31.0,6.991
264.0,24.0,6.992
121.0,14.0,6.993
-76.0,10.0,6.994
-228.0,9.0,6.995
-219.0,7.0,6.996
-64.0,10.0,6.997
90.0,15.0,6.998
56.0,10.0,6.999
-151.0,-16.0,7.0
-293.0,-45.0,7.001
-213.0,-53.0,7.002
-25.0,-46.0,7.003
63.0,-32.0,7.004
33.0,-21.0,7.005
3.0,-12.0,7.006
7.0,-11.0,7.007
-8.0,-11.0,7.008
-8.0,3.0,7.009
97.0,35.0,7.01
251.0,60.0,7.011
271.0,57.0,7.012
97.0,32.0,7.013
-111.0,8.0,7.014
-185.0,-8.0,7.015
-115.0,-24.0,7.016
-4.0,-42.0,7.017
39.0,-53.0,7.018
-16.0,-44.0,7.019
-58.0,-13.0,7.02
-58.0,20.0,7.021
-36.0,45.0,7.022
54.0,45.0,7.023
113.0,20.0,7.024
71.0,-15.0,7.025
56.0,-35.0,7.026
123.0,-34.0,7.027
169.0,-21.0,7.028
150.0,-6.0,7.029
95.0,7.0,7.03
-65.0,13.0,7.031
-196.0,4.0,7.032
-241.0,-13.0,7.033
-224.0,-21.0,7.034
-20.0,-7.0,7.035
120.0,23.0,7.036
69.0,50.0,7.037
-4.0,57.0,7.038
-110.0,45.0,7.039
-160.0,26.0,7.04
-172.0,13.0,7.041
-148.0,9.0,7.042
-76.0,-5.0,7.043
6.0,-26.0,7.044
42.0,-40.0,7.045
36.0,-42.0,7.046
61.0,-38.0,7.047
149.0,-33.0,7.048
225.0,-18.0,7.049
179.0,3.0,7.05
46.0,17.0,7.051
-7.0,13.0,7.052
87.0,0.0,7.053
160.0,-8.0,7.054
27.0,-11.0,7.055
-221.0,-10.0,7.056
-307.0,-6.0,7.057
-98.0,-7.0,7.058
104.0,-19.0,7.059
113.0,-31.0,7.06
25.0,-28.0,7.061
8.0,-5.0,7.062
61.0,16.0,7.063
85.0,15.0,7.064
65.0,-2.0,7.065
66.0,-19.0,7.066
116.0,-25.0,7.067
175.0,-17.0,7.068
173.0,8.0,7.069
50.0,36.0,7.07
-180.0,41.0,7.071
-360.0,13.0,7.072
-317.0,-18.0,7.073
-75.0,-17.0,7.074
136.0,19.0,7.075
145.0,52.0,7.076
27.0,50.0,7.077
-51.0,22.0,7.078
-12.0,4.0,7.079
51.0,-6.0,7.08
26.0,7.0,7.081
-70.0,15.0,7.082
-136.0,-1.0,7.083
-118.0,-11.0,7.084
-45.0,0.0,7.085
41.0,13.0,7.086
115.0,29.0,7.087
125.0,29.0,7.088
48.0,-16.0,7.089
-31.0,-46.0,7.09
-6.0,-20.0,7.091
74.0,1.0,7.092
47.0,11.0,7.093
-103.0,15.0,7.094
-189.0,-3.0,7.095
-74.0,-21.0,7.096
124.0,-34.0,7.097
121.0,-40.0,7.098
73.0,-13.0,7.099
27.0,26.0,7.1
-11.0,43.0,7.101
-38.0,38.0,7.102
-26.0,27.0,7.103
-25.0,14.0,7.104
-61.0,-1.0,7.105
-82.0,-16.0,7.106
-54.0,-23.0,7.107
-18.0,-27.0,7.108
41.0,-34.0,7.109
93.0,-40.0,7.11
117.0,-41.0,7.111
99.0,-34.0,7.112
-54.0,-19.0,7.113
-147.0,2.0,7.114
-54.0,25.0,7.115
54.0,34.0,7.116
208.0,20.0,7.117
124.0,-6.0,7.118
75.0,-18.0,7.119
28.0,-8.0,7.12
-12.0,-1.0,7.121
-39.0,-10.0,7.122
-27.0,-23.0,7.123
-26.0,-13.0,7.124
-63.0,16.0,7.125
-84.0,35.0,7.126
-56.0,30.0,7.127
-19.0,22.0,7.128
42.0,30.0,7.129
95.0,48.0,7.13
120.0,58.0,7.131
101.0,49.0,7.132
-56.0,26.0,7.133
-151.0,-4.0,7.134
-56.0,-24.0,7.135
55.0,-16.0,7.136
212.0,15.0,7.137
309.0,31.0,7.138
156.0,3.0,7.139
10.0,-45.0,7.14
8.0,-69.0,7.141
66.0,-55.0,7.142
14.0,-37.0,7.143
-150.0,-39.0,7.144
-255.0,-48.0,7.145
-204.0,-45.0,7.146
-106.0,-38.0,7.147
-85.0,-38.0,7.148
-100.0,-41.0,7.149
-49.0,-31.0,7.15
58.0,-11.0,7.151
138.0,8.0,7.152
153.0,22.0,7.153
103.0,34.0,7.154
2.0,39.0,7.155
-82.0,37.0,7.156
-67.0,36.0,7.157
16.0,37.0,7.158
61.0,41.0,7.159
74.0,38.0,7.16
-11.0,17.0,7.161
-77.0,-13.0,7.162
-85.0,-45.0,7.163
-84.0,-70.0,7.164
-54.0,-74.0,7.165
-31.0,-56.0,7.166
-29.0,-26.0,7.167
-7.0,3.0,7.168
74.0,38.0,7.169
119.0,81.0,7.17
47.0,110.0,7.171
-16.0,98.0,7.172
-54.0,56.0,7.173
-61.0,27.0,7.174
28.0,23.0,7.175
84.0,12.0,7.176
38.0,-13.0,7.177
-6.0,-34.0,7.178
-49.0,-27.0,7.179
-81.0,-5.0,7.18
-48.0,-6.0,7.181
77.0,-15.0,7.182
209.0,-14.0,7.183
233.0,0.0,7.184
145.0,22.0,7.185
36.0,41.0,7.186
-27.0,52.0,7.187
-61.0,46.0,7.188
-119.0,20.0,7.189
-202.0,-17.0,7.19
-243.0,-54.0,7.191
-185.0,-78.0,7.192
-72.0,-71.0,7.193
-5.0,-34.0,7.194
-10.0,7.0,7.195
-10.0,20.0,7.196
37.0,0.0,7.197
90.0,-24.0,7.198
101.0,-27.0,7.199
97.0,-29.0,7.2
111.0,-27.0,7.201
112.0,-27.0,7.202
69.0,-34.0,7.203
37.0,-38.0,7.204
72.0,-28.0,7.205
124.0,-25.0,7.206
69.0,-43.0,7.207
-105.0,-50.0,7.208
-232.0,-24.0,7.209
-165.0,3.0,7.21
15.0,36.0,7.211
89.0,56.0,7.212
-1.0,38.0,7.213
-78.0,23.0,7.214
-13.0,18.0,7.215
76.0,15.0,7.216
40.0,23.0,7.217
-59.0,26.0,7.218
-60.0,10.0,7.219
-33.0,0.0,7.22
76.0,9.0,7.221
153.0,36.0,7.222
128.0,57.0,7.223
103.0,57.0,7.224
79.0,41.0,7.225
71.0,33.0,7.226
118.0,32.0,7.227
114.0,20.0,7.228
-44.0,-6.0,7.229
-168.0,-24.0,7.23
-187.0,-18.0,7.231
-184.0,-7.0,7.232
-114.0,-15.0,7.233
-49.0,-31.0,7.234
0.0,-36.0,7.235
42.0,-30.0,7.236
62.0,-28.0,7.237
91.0,-26.0,7.238
130.0,1.0,7.239
79.0,37.0,7.24
-60.0,39.0,7.241
-163.0,8.0,7.242
-143.0,-14.0,7.243
-74.0,-11.0,7.244
-64.0,-4.0,7.245
-85.0,-11.0,7.246
-40.0,-11.0,7.247
51.0,9.0,7.248
88.0,38.0,7.249
64.0,47.0,7.25
72.0,36.0,7.251
116.0,18.0,7.252
92.0,-5.0,7.253
-26.0,-31.0,7.254
-110.0,-53.0,7.255
-74.0,-62.0,7.256
5.0,-60.0,7.257
25.0,-54.0,7.258
-13.0,-36.0,7.259
-48.0,-18.0,7.26
-37.0,-26.0,7.261
24.0,-53.0,7.262
107.0,-72.0,7.263
146.0,-56.0,7.264
102.0,-21.0,7.265
46.0,2.0,7.266
54.0,19.0,7.267
58.0,48.0,7.268
-40.0,81.0,7.269
-152.0,91.0,7.27
-91.0,67.0,7.271
138.0,31.0,7.272
310.0,1.0,7.273
286.0,-11.0,7.274
151.0,-8.0,7.275
22.0,1.0,7.276
-94.0,5.0,7.277
-239.0,9.0,7.278
-326.0,31.0,7.279
-268.0,58.0,7.28
-114.0,51.0,7.281
-1.0,6.0,7.282
33.0,-23.0,7.283
52.0,-4.0,7.284
78.0,35.0,7.285
50.0,47.0,7.286
-59.0,29.0,7.287
-159.0,14.0,7.288
-148.0,10.0,7.289
-31.0,1.0,7.29
103.0,-14.0,7.291
165.0,-16.0,7.292
121.0,-10.0,7.293
-6.0,-21.0,7.294
-125.0,-53.0,7.295
-137.0,-76.0,7.296
-34.0,-73.0,7.297
114.0,-56.0,7.298
215.0,-46.0,7.299
219.0,-40.0,7.3
113.0,-22.0,7.301
-66.0,-1.0,7.302
-201.0,0.0,7.303
-192.0,-19.0,7.304
-78.0,-29.0,7.305
13.0,-9.0,7.306
31.0,24.0,7.307
34.0,48.0,7.308
42.0,58.0,7.309
15.0,51.0,7.31
-22.0,25.0,7.311
20.0,3.0,7.312
128.0,2.0,7.313
176.0,12.0,7.314
114.0,10.0,7.315
29.0,-3.0,7.316
-9.0,-7.0,7.317
-31.0,-3.0,7.318
-57.0,5.0,7.319
-45.0,18.0,7.32
19.0,41.0,7.321
52.0,59.0,7.322
1.0,43.0,7.323
-64.0,3.0,7.324
-51.0,-25.0,7.325
-1.0,-38.0,7.326
-31.0,-56.0,7.327
-136.0,-79.0,7.328
-163.0,-76.0,7.329
-27.0,-29.0,7.33
126.0,21.0,7.331
113.0,28.0,7.332
-33.0,-8.0,7.333
-101.0,-37.0,7.334
-20.0,-29.0,7.335
56.0,-1.0,7.336
6.0,16.0,7.337
-107.0,19.0,7.338
-118.0,23.0,7.339
7.0,30.0,7.34
147.0,23.0,7.341
177.0,4.0,7.342
99.0,-9.0,7.343
-2.0,-7.0,7.344
-45.0,3.0,7.345
12.0,16.0,7.346
143.0,43.0,7.347
253.0,87.0,7.348
224.0,121.0,7.349
35.0,111.0,7.35
-182.0,66.0,7.351
-254.0,17.0,7.352
-152.0,-15.0,7.353
-19.0,-48.0,7.354
10.0,-86.0,7.355
-42.0,-106.0,7.356
-68.0,-85.0,7.357
-41.0,-34.0,7.358
-16.0,3.0,7.359
-44.0,0.0,7.36
-86.0,-33.0,7.361
-61.0,-51.0,7.362
49.0,-25.0,7.363
174.0,22.0,7.364
205.0,52.0,7.365
116.0,50.0,7.366
-1.0,34.0,7.367
-48.0,3.0,7.368
-30.0,-49.0,7.369
-22.0,-112.0,7.37
-44.0,-146.0,7.371
-41.0,-144.0,7.372
11.0,-127.0,7.373
52.0,-108.0,7.374
7.0,-68.0,7.375
-97.0,-17.0,7.376
-159.0,16.0,7.377
-126.0,26.0,7.378
-37.0,50.0,7.379
11.0,98.0,7.38
10.0,129.0,7.381
31.0,115.0,7.382
103.0,78.0,7.383
152.0,52.0,7.384
123.0,43.0,7.385
72.0,38.0,7.386
56.0,35.0,7.387
35.0,35.0,7.388
-27.0,29.0,7.389
-56.0,13.0,7.39
6.0,0.0,7.391
77.0,-5.0,7.392
56.0,-9.0,7.393
-1.0,-10.0,7.394
-6.0,3.0,7.395
-36.0,27.0,7.396
-169.0,37.0,7.397
-296.0,21.0,7.398
-195.0,0.0,7.399
80.0,-12.0,7.4
232.0,-21.0,7.401
139.0,-28.0,7.402
0.0,-27.0,7.403
-10.0,-12.0,7.404
37.0,1.0,7.405
11.0,4.0,7.406
-51.0,3.0,7.407
-49.0,3.0,7.408
21.0,0.0,7.409
99.0,-6.0,7.41
151.0,-5.0,7.411
149.0,3.0,7.412
70.0,2.0,7.413
-54.0,-14.0,7.414
-146.0,-33.0,7.415
-161.0,-35.0,7.416
-128.0,-24.0,7.417
-68.0,-10.0,7.418
22.0,2.0,7.419
126.0,8.0,7.42
185.0,-1.0,7.421
153.0,-18.0,7.422
47.0,-31.0,7.423
-81.0,-26.0,7.424
-169.0,-2.0,7.425
-154.0,29.0,7.426
-27.0,44.0,7.427
97.0,29.0,7.428
76.0,0.0,7.429
-72.0,-11.0,7.43
-159.0,3.0,7.431
-72.0,18.0,7.432
75.0,17.0,7.433
119.0,8.0,7.434
51.0,1.0,7.435
-38.0,-12.0,7.436
-98.0,-31.0,7.437
-122.0,-43.0,7.438
-65.0,-30.0,7.439
77.0,-9.0,7.44
216.0,-8.0,7.441
264.0,-14.0,7.442
215.0,-9.0,7.443
84.0,1.0,7.444
-127.0,1.0,7.445
-314.0,-4.0,7.446
-312.0,6.0,7.447
-110.0,23.0,7.448
88.0,22.0,7.449
124.0,-2.0,7.45
53.0,-19.0,7.451
-9.0,-16.0,7.452
-51.0,-7.0,7.453
-77.0,-2.0,7.454
-36.0,11.0,7.455
69.0,39.0,7.456
136.0,62.0,7.457
108.0,50.0,7.458
52.0,5.0,7.459
28.0,-45.0,7.46
3.0,-74.0,7.461
-35.0,-66.0,7.462
-35.0,-34.0,7.463
2.0,6.0,7.464
-6.0,33.0,7.465
-66.0,28.0,7.466
-68.0,5.0,7.467
23.0,2.0,7.468
95.0,30.0,7.469
82.0,56.0,7.47
57.0,42.0,7.471
78.0,2.0,7.472
84.0,-17.0,7.473
25.0,-2.0,7.474
-49.0,12.0,7.475
-86.0,8.0,7.476
-95.0,-3.0,7.477
-78.0,1.0,7.478
-5.0,23.0,7.479
81.0,39.0,7.48
92.0,30.0,7.481
38.0,4.0,7.482
17.0,-22.0,7.483
37.0,-38.0,7.484
18.0,-47.0,7.485
-16.0,-48.0,7.486
18.0,-38.0,7.487
35.0,-13.0,7.488
-131.0,21.0,7.489
-377.0,41.0,7.49
-388.0,33.0,7.491
-103.0,3.0,7.492
172.0,-21.0,7.493
227.0,-20.0,7.494
193.0,2.0,7.495
233.0,23.0,7.496
290.0,22.0,7.497
257.0,0.0,7.498
142.0,-17.0,7.499
-26.0,-17.0,7.5
-233.0,-10.0,7.501
-364.0,-4.0,7.502
-273.0,-7.0,7.503
-40.0,-16.0,7.504
79.0,-29.0,7.505
17.0,-36.0,7.506
-60.0,-22.0,7.507
-59.0,9.0,7.508
-49.0,34.0,7.509
-41.0,31.0,7.51
41.0,4.0,7.511
150.0,-15.0,7.512
133.0,-18.0,7.513
9.0,-19.0,7.514
-41.0,-23.0,7.515
25.0,-27.0,7.516
73.0,-21.0,7.517
34.0,-10.0,7.518
-5.0,4.0,7.519
10.0,18.0,7.52
14.0,22.0,7.521
-25.0,9.0,7.522
-49.0,-13.0,7.523
-26.0,-22.0,7.524
8.0,-10.0,7.525
37.0,6.0,7.526
57.0,11.0,7.527
54.0,9.0,7.528
30.0,9.0,7.529
22.0,18.0,7.53
23.0,33.0,7.531
-23.0,40.0,7.532
-102.0,32.0,7.533
-107.0,13.0,7.534
-15.0,1.0,7.535
57.0,1.0,7.536
35.0,2.0,7.537
-25.0,-11.0,7.538
-27.0,-25.0,7.539
29.0,-34.0,7.54
101.0,-41.0,7.541
167.0,-39.0,7.542
190.0,-23.0,7.543
103.0,0.0,7.544
-76.0,14.0,7.545
-213.0,19.0,7.546
-201.0,24.0,7.547
-91.0,20.0,7.548
-17.0,-1.0,7.549
-25.0,-19.0,7.55
-42.0,-2.0,7.551
20.0,41.0,7.552
152.0,63.0,7.553
236.0,43.0,7.554
179.0,2.0,7.555
30.0,-20.0,7.556
-74.0,-18.0,7.557
-79.0,-13.0,7.558
-21.0,-15.0,7.559
31.0,-20.0,7.56
57.0,-25.0,7.561
46.0,-19.0,7.562
-16.0,-9.0,7.563
-114.0,-5.0,7.564
-211.0,-9.0,7.565
-296.0,-13.0,7.566
-344.0,-10.0,7.567
-268.0,-3.0,7.568
-24.0,6.0,7.569
218.0,13.0,7.57
233.0,15.0,7.571
54.0,7.0,7.572
-38.0,-5.0,7.573
67.0,-6.0,7.574
169.0,4.0,7.575
109.0,13.0,7.576
21.0,9.0,7.577
44.0,-9.0,7.578
84.0,-19.0,7.579
91.0,-9.0,7.58
-2.0,6.0,7.581
-52.0,17.0,7.582
36.0,14.0,7.583
98.0,7.0,7.584
82.0,2.0,7.585
66.0,0.0,7.586
48.0,2.0,7.587
20.0,6.0,7.588
-40.0,9.0,7.589
-70.0,5.0,7.59
-7.0,-9.0,7.591
20.0,-28.0,7.592
-61.0,-39.0,7.593
-119.0,-37.0,7.594
-105.0,-26.0,7.595
-78.0,-13.0,7.596
-14.0,-4.0,7.597
44.0,4.0,7.598
58.0,16.0,7.599
