Deltoid,Bicep,Time
-1.0,-1.0,0.0
0.0,-5.0,0.001
5.0,-7.0,0.002
11.0,-6.0,0.003
14.0,-3.0,0.004
14.0,-1.0,0.005
8.0,-3.0,0.006
3.0,-6.0,0.007
5.0,-8.0,0.008
4.0,-8.0,0.009
-2.0,-5.0,0.01
-8.0,-2.0,0.011
-7.0,1.0,0.012
-3.0,1.0,0.013
-1.0,1.0,0.014
0.0,2.0,0.015
3.0,6.0,0.016
7.0,9.0,0.017
8.0,7.0,0.018
5.0,3.0,0.019
3.0,2.0,0.02
2.0,0.0,0.021
3.0,-2.0,0.022
8.0,-5.0,0.023
18.0,-4.0,0.024
20.0,0.0,0.025
10.0,2.0,0.026
0.0,0.0,0.027
1.0,-2.0,0.028
7.0,-2.0,0.029
4.0,-1.0,0.03
-2.0,-1.0,0.031
-5.0,-2.0,0.032
-3.0,0.0,0.033
-2.0,3.0,0.034
-1.0,3.0,0.035
1.0,2.0,0.036
3.0,4.0,0.037
1.0,5.0,0.038
-1.0,6.0,0.039
-1.0,4.0,0.04
1.0,-1.0,0.041
2.0,-5.0,0.042
7.0,-7.0,0.043
12.0,-5.0,0.044
12.0,0.0,0.045
5.0,1.0,0.046
0.0,-3.0,0.047
1.0,-7.0,0.048
4.0,-5.0,0.049
0.0,0.0,0.05
-6.0,1.0,0.051
-7.0,-1.0,0.052
-5.0,-2.0,0.053
-6.0,0.0,0.054
-8.0,1.0,0.055
-3.0,1.0,0.056
3.0,3.0,0.057
5.0,3.0,0.058
1.0,1.0,0.059
-3.0,-2.0,0.06
-3.0,-8.0,0.061
3.0,-9.0,0.062
13.0,-7.0,0.063
18.0,-2.0,0.064
16.0,0.0,0.065
8.0,0.0,0.066
2.0,-1.0,0.067
1.0,-3.0,0.068
0.0,-2.0,0.069
-3.0,0.0,0.07
-4.0,0.0,0.071
-2.0,0.0,0.072
-3.0,1.0,0.073
-4.0,2.0,0.074
-3.0,0.0,0.075
2.0,0.0,0.076
5.0,5.0,0.077
4.0,5.0,0.078
3.0,2.0,0.079
2.0,-1.0,0.08
4.0,-3.0,0.081
5.0,0.0,0.082
9.0,-1.0,0.083
14.0,-5.0,0.084
14.0,-5.0,0.085
8.0,-2.0,0.086
2.0,0.0,0.087
2.0,-1.0,0.088
2.0,-4.0,0.089
-1.0,-5.0,0.09
-4.0,-6.0,0.091
-3.0,-4.0,0.092
0.0,-2.0,0.093
-2.0,1.0,0.094
-5.0,1.0,0.095
-4.0,-1.0,0.096
0.0,-2.0,0.097
3.0,-2.0,0.098
1.0,0.0,0.099
0.0,1.0,0.1
0.0,-1.0,0.101
3.0,-4.0,0.102
13.0,-4.0,0.103
20.0,-3.0,0.104
14.0,0.0,0.105
9.0,2.0,0.106
7.0,-2.0,0.107
6.0,-5.0,0.108
6.0,-5.0,0.109
4.0,-4.0,0.11
2.0,-3.0,0.111
0.0,-2.0,0.112
-1.0,0.0,0.113
-3.0,1.0,0.114
-4.0,3.0,0.115
-5.0,6.0,0.116
-1.0,6.0,0.117
1.0,4.0,0.118
0.0,1.0,0.119
-3.0,0.0,0.12
-1.0,-2.0,0.121
1.0,-5.0,0.122
7.0,-5.0,0.123
14.0,-2.0,0.124
18.0,2.0,0.125
11.0,1.0,0.126
4.0,-2.0,0.127
3.0,-4.0,0.128
6.0,-1.0,0.129
5.0,1.0,0.13
1.0,0.0,0.131
0.0,-2.0,0.132
0.0,-3.0,0.133
-3.0,0.0,0.134
-5.0,4.0,0.135
-1.0,8.0,0.136
4.0,9.0,0.137
5.0,3.0,0.138
0.0,0.0,0.139
-2.0,0.0,0.14
0.0,0.0,0.141
2.0,-1.0,0.142
5.0,-3.0,0.143
10.0,-4.0,0.144
11.0,-4.0,0.145
7.0,-5.0,0.146
1.0,-6.0,0.147
1.0,-5.0,0.148
2.0,-3.0,0.149
-1.0,-1.0,0.15
-5.0,-1.0,0.151
-5.0,-1.0,0.152
-6.0,-2.0,0.153
-10.0,1.0,0.154
-11.0,3.0,0.155
-6.0,5.0,0.156
2.0,4.0,0.157
5.0,2.0,0.158
3.0,3.0,0.159
1.0,4.0,0.16
0.0,0.0,0.161
0.0,-3.0,0.162
3.0,-5.0,0.163
10.0,-4.0,0.164
15.0,-2.0,0.165
14.0,-1.0,0.166
9.0,-3.0,0.167
7.0,-6.0,0.168
5.0,-6.0,0.169
3.0,-3.0,0.17
0.0,0.0,0.171
1.0,-1.0,0.172
3.0,0.0,0.173
2.0,2.0,0.174
1.0,5.0,0.175
1.0,2.0,0.176
4.0,0.0,0.177
2.0,-1.0,0.178
-1.0,0.0,0.179
-3.0,1.0,0.18
-3.0,-1.0,0.181
-1.0,-3.0,0.182
5.0,-1.0,0.183
12.0,0.0,0.184
14.0,0.0,0.185
9.0,-1.0,0.186
4.0,-3.0,0.187
3.0,-4.0,0.188
1.0,-6.0,0.189
-1.0,-5.0,0.19
-3.0,-2.0,0.191
-3.0,-1.0,0.192
-2.0,-1.0,0.193
-3.0,-2.0,0.194
-3.0,1.0,0.195
0.0,6.0,0.196
4.0,9.0,0.197
6.0,5.0,0.198
6.0,0.0,0.199
3.0,-1.0,0.2
1.0,-3.0,0.201
3.0,-4.0,0.202
10.0,-5.0,0.203
15.0,-3.0,0.204
14.0,-1.0,0.205
9.0,-1.0,0.206
7.0,-4.0,0.207
8.0,-7.0,0.208
4.0,-4.0,0.209
-3.0,1.0,0.21
-8.0,3.0,0.211
-6.0,0.0,0.212
-4.0,-1.0,0.213
-3.0,2.0,0.214
-4.0,7.0,0.215
-3.0,8.0,0.216
-1.0,6.0,0.217
-1.0,1.0,0.218
0.0,1.0,0.219
3.0,0.0,0.22
3.0,-1.0,0.221
3.0,-2.0,0.222
11.0,-4.0,0.223
16.0,-6.0,0.224
14.0,-4.0,0.225
11.0,-3.0,0.226
8.0,-2.0,0.227
5.0,-1.0,0.228
1.0,-1.0,0.229
-2.0,0.0,0.23
-2.0,-1.0,0.231
-1.0,-2.0,0.232
-3.0,-1.0,0.233
-4.0,0.0,0.234
-1.0,2.0,0.235
2.0,4.0,0.236
2.0,2.0,0.237
1.0,2.0,0.238
0.0,3.0,0.239
0.0,0.0,0.24
-2.0,-7.0,0.241
-1.0,-5.0,0.242
9.0,-2.0,0.243
19.0,0.0,0.244
16.0,0.0,0.245
4.0,-2.0,0.246
1.0,-4.0,0.247
6.0,-6.0,0.248
6.0,-6.0,0.249
-3.0,-2.0,0.25
-8.0,-1.0,0.251
-5.0,-2.0,0.252
-2.0,-1.0,0.253
-4.0,3.0,0.254
-5.0,5.0,0.255
-2.0,3.0,0.256
3.0,4.0,0.257
1.0,5.0,0.258
0.0,4.0,0.259
-2.0,2.0,0.26
-2.0,-2.0,0.261
-1.0,-5.0,0.262
4.0,-2.0,0.263
10.0,1.0,0.264
12.0,0.0,0.265
13.0,-1.0,0.266
8.0,-1.0,0.267
4.0,-2.0,0.268
4.0,-6.0,0.269
2.0,-8.0,0.27
-1.0,-2.0,0.271
-4.0,2.0,0.272
-4.0,0.0,0.273
-3.0,-1.0,0.274
-4.0,2.0,0.275
-4.0,5.0,0.276
-2.0,6.0,0.277
1.0,5.0,0.278
1.0,1.0,0.279
-1.0,0.0,0.28
-1.0,-2.0,0.281
2.0,-4.0,0.282
9.0,-7.0,0.283
15.0,-5.0,0.284
15.0,-1.0,0.285
8.0,0.0,0.286
4.0,-2.0,0.287
4.0,-6.0,0.288
5.0,-7.0,0.289
2.0,-5.0,0.29
-2.0,-4.0,0.291
-3.0,-4.0,0.292
-3.0,-5.0,0.293
-4.0,-1.0,0.294
-4.0,4.0,0.295
0.0,8.0,0.296
7.0,8.0,0.297
8.0,5.0,0.298
6.0,6.0,0.299
2.0,5.0,0.3
1.0,-1.0,0.301
3.0,-5.0,0.302
10.0,-4.0,0.303
17.0,-2.0,0.304
16.0,-2.0,0.305
9.0,-2.0,0.306
0.0,-1.0,0.307
0.0,0.0,0.308
2.0,0.0,0.309
0.0,-1.0,0.31
-2.0,-3.0,0.311
-2.0,-3.0,0.312
-3.0,-2.0,0.313
-4.0,1.0,0.314
-5.0,4.0,0.315
-4.0,5.0,0.316
3.0,6.0,0.317
7.0,2.0,0.318
5.0,0.0,0.319
1.0,0.0,0.32
0.0,-3.0,0.321
3.0,-5.0,0.322
11.0,-6.0,0.323
17.0,-5.0,0.324
16.0,-3.0,0.325
10.0,-1.0,0.326
4.0,-3.0,0.327
3.0,-2.0,0.328
1.0,-2.0,0.329
-3.0,2.0,0.33
-6.0,1.0,0.331
-5.0,-1.0,0.332
-6.0,-1.0,0.333
-9.0,2.0,0.334
-9.0,3.0,0.335
-4.0,4.0,0.336
1.0,4.0,0.337
1.0,4.0,0.338
-1.0,5.0,0.339
-2.0,4.0,0.34
-1.0,-4.0,0.341
3.0,-8.0,0.342
11.0,-7.0,0.343
20.0,-5.0,0.344
19.0,-2.0,0.345
8.0,-3.0,0.346
0.0,-8.0,0.347
4.0,-7.0,0.348
9.0,-4.0,0.349
5.0,-2.0,0.35
-3.0,0.0,0.351
-3.0,0.0,0.352
1.0,2.0,0.353
0.0,4.0,0.354
-2.0,4.0,0.355
0.0,4.0,0.356
4.0,4.0,0.357
2.0,2.0,0.358
0.0,1.0,0.359
0.0,0.0,0.36
1.0,-4.0,0.361
1.0,-6.0,0.362
5.0,-7.0,0.363
14.0,-6.0,0.364
17.0,-2.0,0.365
8.0,0.0,0.366
0.0,0.0,0.367
0.0,-2.0,0.368
2.0,-3.0,0.369
-2.0,-2.0,0.37
-8.0,0.0,0.371
-9.0,2.0,0.372
-6.0,2.0,0.373
-3.0,2.0,0.374
-4.0,5.0,0.375
-4.0,6.0,0.376
0.0,5.0,0.377
0.0,3.0,0.378
1.0,2.0,0.379
3.0,0.0,0.38
2.0,-1.0,0.381
2.0,-3.0,0.382
9.0,-4.0,0.383
15.0,-5.0,0.384
15.0,-4.0,0.385
13.0,-3.0,0.386
10.0,-3.0,0.387
7.0,-4.0,0.388
3.0,-3.0,0.389
0.0,-2.0,0.39
-2.0,0.0,0.391
-4.0,1.0,0.392
-4.0,0.0,0.393
-3.0,0.0,0.394
0.0,1.0,0.395
3.0,3.0,0.396
3.0,3.0,0.397
2.0,3.0,0.398
3.0,-1.0,0.399
4.0,-4.0,0.4
3.0,-7.0,0.401
0.0,-7.0,0.402
4.0,-6.0,0.403
14.0,-5.0,0.404
13.0,-3.0,0.405
4.0,0.0,0.406
-2.0,0.0,0.407
3.0,-3.0,0.408
7.0,-4.0,0.409
0.0,-2.0,0.41
-5.0,0.0,0.411
-2.0,0.0,0.412
1.0,1.0,0.413
0.0,5.0,0.414
-4.0,9.0,0.415
0.0,7.0,0.416
4.0,4.0,0.417
4.0,3.0,0.418
2.0,3.0,0.419
1.0,1.0,0.42
0.0,-4.0,0.421
2.0,-5.0,0.422
12.0,-5.0,0.423
21.0,-6.0,0.424
19.0,-6.0,0.425
6.0,-3.0,0.426
-1.0,0.0,0.427
1.0,0.0,0.428
7.0,0.0,0.429
4.0,-1.0,0.43
0.0,0.0,0.431
-1.0,0.0,0.432
-1.0,0.0,0.433
-5.0,0.0,0.434
-9.0,0.0,0.435
-7.0,0.0,0.436
2.0,2.0,0.437
7.0,3.0,0.438
7.0,2.0,0.439
3.0,1.0,0.44
0.0,0.0,0.441
0.0,0.0,0.442
5.0,-1.0,0.443
12.0,-2.0,0.444
13.0,-1.0,0.445
7.0,-2.0,0.446
1.0,-4.0,0.447
0.0,-6.0,0.448
-1.0,-6.0,0.449
-2.0,-2.0,0.45
-2.0,-1.0,0.451
0.0,-4.0,0.452
-1.0,-5.0,0.453
-5.0,-1.0,0.454
-6.0,3.0,0.455
-4.0,4.0,0.456
0.0,3.0,0.457
0.0,-1.0,0.458
1.0,-1.0,0.459
2.0,-1.0,0.46
4.0,-1.0,0.461
6.0,-1.0,0.462
8.0,-2.0,0.463
11.0,-2.0,0.464
11.0,0.0,0.465
9.0,1.0,0.466
5.0,-2.0,0.467
1.0,-4.0,0.468
2.0,-2.0,0.469
2.0,0.0,0.47
-2.0,0.0,0.471
-5.0,0.0,0.472
-7.0,0.0,0.473
-9.0,1.0,0.474
-6.0,2.0,0.475
-2.0,4.0,0.476
0.0,4.0,0.477
4.0,4.0,0.478
4.0,0.0,0.479
1.0,-2.0,0.48
-3.0,-4.0,0.481
-2.0,-1.0,0.482
5.0,0.0,0.483
14.0,1.0,0.484
14.0,3.0,0.485
4.0,4.0,0.486
-3.0,1.0,0.487
-3.0,-2.0,0.488
0.0,-1.0,0.489
-2.0,3.0,0.49
-2.0,5.0,0.491
0.0,1.0,0.492
5.0,-2.0,0.493
6.0,-1.0,0.494
3.0,2.0,0.495
4.0,3.0,0.496
9.0,1.0,0.497
11.0,-2.0,0.498
12.0,-2.0,0.499
11.0,-2.0,0.5
9.0,-7.0,0.501
11.0,-11.0,0.502
16.0,-12.0,0.503
21.0,-9.0,0.504
20.0,-4.0,0.505
11.0,-1.0,0.506
5.0,-4.0,0.507
5.0,-8.0,0.508
5.0,-7.0,0.509
-1.0,-5.0,0.51
-7.0,-1.0,0.511
-9.0,-1.0,0.512
-9.0,1.0,0.513
-10.0,7.0,0.514
-9.0,10.0,0.515
-3.0,7.0,0.516
4.0,1.0,0.517
3.0,-4.0,0.518
0.0,-4.0,0.519
-2.0,-3.0,0.52
0.0,-4.0,0.521
1.0,-1.0,0.522
3.0,0.0,0.523
7.0,-2.0,0.524
8.0,-3.0,0.525
4.0,-2.0,0.526
1.0,1.0,0.527
1.0,2.0,0.528
2.0,4.0,0.529
-1.0,7.0,0.53
-5.0,7.0,0.531
-7.0,5.0,0.532
-8.0,2.0,0.533
-7.0,1.0,0.534
-2.0,0.0,0.535
1.0,0.0,0.536
1.0,2.0,0.537
-2.0,4.0,0.538
0.0,3.0,0.539
1.0,1.0,0.54
2.0,-3.0,0.541
5.0,-5.0,0.542
11.0,-2.0,0.543
16.0,0.0,0.544
13.0,-2.0,0.545
9.0,-4.0,0.546
5.0,-4.0,0.547
0.0,-4.0,0.548
-2.0,-4.0,0.549
-5.0,-3.0,0.55
-4.0,-3.0,0.551
-3.0,-3.0,0.552
-5.0,2.0,0.553
-7.0,5.0,0.554
-4.0,3.0,0.555
0.0,2.0,0.556
1.0,2.0,0.557
1.0,1.0,0.558
-1.0,1.0,0.559
-1.0,0.0,0.56
0.0,-4.0,0.561
0.0,-4.0,0.562
8.0,-3.0,0.563
21.0,-5.0,0.564
24.0,-4.0,0.565
14.0,-1.0,0.566
5.0,-1.0,0.567
6.0,-3.0,0.568
10.0,-3.0,0.569
4.0,0.0,0.57
-3.0,3.0,0.571
-5.0,2.0,0.572
-4.0,3.0,0.573
-5.0,5.0,0.574
-5.0,7.0,0.575
1.0,5.0,0.576
6.0,3.0,0.577
6.0,0.0,0.578
3.0,-2.0,0.579
2.0,-4.0,0.58
3.0,-7.0,0.581
5.0,-5.0,0.582
10.0,-3.0,0.583
15.0,-2.0,0.584
14.0,0.0,0.585
5.0,2.0,0.586
-2.0,1.0,0.587
-1.0,-3.0,0.588
2.0,-4.0,0.589
0.0,-2.0,0.59
-4.0,2.0,0.591
-8.0,3.0,0.592
-12.0,1.0,0.593
-11.0,2.0,0.594
-6.0,4.0,0.595
-1.0,5.0,0.596
1.0,5.0,0.597
0.0,3.0,0.598
0.0,0.0,0.599
1.0,-1.0,0.6
0.0,-2.0,0.601
0.0,-1.0,0.602
8.0,-2.0,0.603
18.0,-4.0,0.604
20.0,-2.0,0.605
13.0,0.0,0.606
6.0,1.0,0.607
7.0,-3.0,0.608
7.0,-7.0,0.609
3.0,-5.0,0.61
-1.0,-3.0,0.611
-1.0,-1.0,0.612
-2.0,1.0,0.613
-5.0,3.0,0.614
-6.0,3.0,0.615
1.0,0.0,0.616
8.0,1.0,0.617
5.0,2.0,0.618
1.0,3.0,0.619
-2.0,0.0,0.62
0.0,-6.0,0.621
2.0,-7.0,0.622
7.0,-7.0,0.623
11.0,-6.0,0.624
10.0,-4.0,0.625
8.0,-3.0,0.626
5.0,-2.0,0.627
2.0,-2.0,0.628
2.0,-1.0,0.629
3.0,1.0,0.63
1.0,2.0,0.631
0.0,2.0,0.632
-1.0,3.0,0.633
-2.0,5.0,0.634
-3.0,5.0,0.635
-3.0,5.0,0.636
2.0,6.0,0.637
7.0,4.0,0.638
6.0,-1.0,0.639
2.0,-6.0,0.64
3.0,-8.0,0.641
6.0,-6.0,0.642
11.0,-2.0,0.643
17.0,0.0,0.644
17.0,0.0,0.645
11.0,0.0,0.646
2.0,-3.0,0.647
1.0,-1.0,0.648
3.0,2.0,0.649
0.0,2.0,0.65
-4.0,-1.0,0.651
-7.0,-1.0,0.652
-5.0,2.0,0.653
-3.0,6.0,0.654
-2.0,4.0,0.655
-2.0,3.0,0.656
0.0,5.0,0.657
1.0,2.0,0.658
5.0,-1.0,0.659
7.0,-3.0,0.66
4.0,-3.0,0.661
2.0,-4.0,0.662
5.0,-6.0,0.663
11.0,-4.0,0.664
10.0,-1.0,0.665
5.0,0.0,0.666
4.0,-3.0,0.667
5.0,-6.0,0.668
3.0,-2.0,0.669
-1.0,1.0,0.67
-3.0,2.0,0.671
-1.0,-2.0,0.672
-3.0,-3.0,0.673
-5.0,0.0,0.674
-5.0,3.0,0.675
-1.0,1.0,0.676
3.0,0.0,0.677
3.0,-2.0,0.678
0.0,1.0,0.679
-3.0,2.0,0.68
-4.0,-2.0,0.681
-3.0,-6.0,0.682
5.0,-5.0,0.683
14.0,-3.0,0.684
17.0,-2.0,0.685
10.0,-2.0,0.686
1.0,-1.0,0.687
0.0,0.0,0.688
0.0,1.0,0.689
0.0,1.0,0.69
-2.0,0.0,0.691
-3.0,-3.0,0.692
-4.0,-4.0,0.693
-3.0,0.0,0.694
-1.0,5.0,0.695
0.0,6.0,0.696
1.0,5.0,0.697
0.0,3.0,0.698
0.0,4.0,0.699
0.0,2.0,0.7
1.0,-3.0,0.701
4.0,-7.0,0.702
12.0,-5.0,0.703
18.0,-1.0,0.704
16.0,1.0,0.705
7.0,1.0,0.706
1.0,0.0,0.707
3.0,-1.0,0.708
4.0,-1.0,0.709
-1.0,1.0,0.71
-7.0,2.0,0.711
-6.0,1.0,0.712
-4.0,1.0,0.713
-5.0,3.0,0.714
-4.0,4.0,0.715
0.0,1.0,0.716
6.0,2.0,0.717
6.0,3.0,0.718
4.0,3.0,0.719
2.0,0.0,0.72
3.0,-6.0,0.721
3.0,-5.0,0.722
6.0,-3.0,0.723
10.0,-4.0,0.724
12.0,-6.0,0.725
9.0,-3.0,0.726
5.0,-1.0,0.727
3.0,-2.0,0.728
1.0,-2.0,0.729
-3.0,0.0,0.73
-5.0,1.0,0.731
-2.0,-1.0,0.732
-2.0,-1.0,0.733
-4.0,2.0,0.734
-3.0,6.0,0.735
0.0,4.0,0.736
2.0,2.0,0.737
-2.0,1.0,0.738
-1.0,3.0,0.739
3.0,1.0,0.74
4.0,-6.0,0.741
4.0,-8.0,0.742
11.0,-7.0,0.743
19.0,-4.0,0.744
17.0,0.0,0.745
8.0,2.0,0.746
5.0,4.0,0.747
9.0,1.0,0.748
8.0,-1.0,0.749
0.0,-1.0,0.75
-5.0,-2.0,0.751
-2.0,-3.0,0.752
-1.0,-1.0,0.753
-3.0,3.0,0.754
-3.0,5.0,0.755
2.0,1.0,0.756
8.0,0.0,0.757
4.0,-1.0,0.758
0.0,2.0,0.759
-1.0,1.0,0.76
0.0,-4.0,0.761
3.0,-4.0,0.762
7.0,-3.0,0.763
11.0,-3.0,0.764
8.0,-3.0,0.765
2.0,-3.0,0.766
-1.0,-4.0,0.767
1.0,-7.0,0.768
0.0,-5.0,0.769
-2.0,-3.0,0.77
-3.0,0.0,0.771
-3.0,0.0,0.772
-3.0,0.0,0.773
-5.0,1.0,0.774
-5.0,2.0,0.775
-2.0,1.0,0.776
1.0,1.0,0.777
2.0,0.0,0.778
4.0,0.0,0.779
6.0,0.0,0.78
6.0,-4.0,0.781
8.0,-6.0,0.782
13.0,-2.0,0.783
17.0,1.0,0.784
14.0,1.0,0.785
11.0,1.0,0.786
8.0,0.0,0.787
4.0,-2.0,0.788
1.0,-2.0,0.789
-1.0,-3.0,0.79
-3.0,-1.0,0.791
-6.0,0.0,0.792
-4.0,1.0,0.793
-2.0,3.0,0.794
0.0,3.0,0.795
3.0,2.0,0.796
2.0,3.0,0.797
2.0,5.0,0.798
3.0,7.0,0.799
3.0,4.0,0.8
1.0,-3.0,0.801
2.0,-6.0,0.802
8.0,-4.0,0.803
15.0,-2.0,0.804
13.0,0.0,0.805
6.0,0.0,0.806
1.0,-1.0,0.807
2.0,-6.0,0.808
2.0,-8.0,0.809
-2.0,-4.0,0.81
-3.0,2.0,0.811
-2.0,5.0,0.812
-2.0,3.0,0.813
-5.0,2.0,0.814
-7.0,3.0,0.815
-2.0,4.0,0.816
3.0,3.0,0.817
5.0,0.0,0.818
3.0,-2.0,0.819
2.0,-2.0,0.82
3.0,-5.0,0.821
7.0,-6.0,0.822
13.0,-6.0,0.823
18.0,-3.0,0.824
18.0,0.0,0.825
12.0,3.0,0.826
7.0,1.0,0.827
7.0,-1.0,0.828
7.0,0.0,0.829
2.0,2.0,0.83
-3.0,1.0,0.831
-5.0,1.0,0.832
-1.0,3.0,0.833
-2.0,8.0,0.834
-2.0,8.0,0.835
-2.0,3.0,0.836
0.0,3.0,0.837
2.0,5.0,0.838
0.0,6.0,0.839
-1.0,1.0,0.84
0.0,-9.0,0.841
3.0,-10.0,0.842
10.0,-5.0,0.843
14.0,-1.0,0.844
10.0,-1.0,0.845
1.0,-4.0,0.846
-1.0,-5.0,0.847
0.0,-6.0,0.848
-2.0,-5.0,0.849
-5.0,-2.0,0.85
-7.0,-1.0,0.851
-6.0,-1.0,0.852
-6.0,-3.0,0.853
-8.0,0.0,0.854
-4.0,6.0,0.855
1.0,10.0,0.856
4.0,9.0,0.857
1.0,4.0,0.858
0.0,2.0,0.859
1.0,2.0,0.86
2.0,-2.0,0.861
2.0,-4.0,0.862
7.0,-2.0,0.863
15.0,-2.0,0.864
16.0,-1.0,0.865
9.0,-2.0,0.866
2.0,-2.0,0.867
2.0,-1.0,0.868
4.0,-3.0,0.869
0.0,-4.0,0.87
-4.0,-2.0,0.871
-4.0,-2.0,0.872
-3.0,-3.0,0.873
-2.0,-1.0,0.874
0.0,3.0,0.875
2.0,6.0,0.876
4.0,5.0,0.877
4.0,1.0,0.878
6.0,0.0,0.879
7.0,1.0,0.88
3.0,-2.0,0.881
2.0,-7.0,0.882
10.0,-9.0,0.883
20.0,-6.0,0.884
19.0,0.0,0.885
8.0,2.0,0.886
0.0,-2.0,0.887
0.0,-5.0,0.888
0.0,-5.0,0.889
-3.0,-1.0,0.89
-6.0,2.0,0.891
-5.0,3.0,0.892
-1.0,1.0,0.893
-2.0,0.0,0.894
-4.0,1.0,0.895
-5.0,4.0,0.896
-2.0,6.0,0.897
-1.0,0.0,0.898
-1.0,-5.0,0.899
-5.0,-7.0,0.9
-4.0,-5.0,0.901
1.0,-2.0,0.902
10.0,-3.0,0.903
12.0,-5.0,0.904
9.0,-6.0,0.905
4.0,-3.0,0.906
1.0,-2.0,0.907
0.0,-5.0,0.908
-1.0,-6.0,0.909
-3.0,-3.0,0.91
-7.0,2.0,0.911
-8.0,1.0,0.912
-5.0,-1.0,0.913
0.0,-2.0,0.914
3.0,0.0,0.915
1.0,5.0,0.916
1.0,9.0,0.917
4.0,5.0,0.918
6.0,-1.0,0.919
4.0,-6.0,0.92
0.0,-7.0,0.921
0.0,-5.0,0.922
9.0,-7.0,0.923
18.0,-9.0,0.924
17.0,-5.0,0.925
9.0,1.0,0.926
7.0,3.0,0.927
7.0,-3.0,0.928
5.0,-3.0,0.929
0.0,5.0,0.93
-5.0,8.0,0.931
-4.0,2.0,0.932
-2.0,-2.0,0.933
-3.0,3.0,0.934
-5.0,9.0,0.935
-3.0,7.0,0.936
3.0,4.0,0.937
6.0,3.0,0.938
7.0,3.0,0.939
3.0,0.0,0.94
2.0,-6.0,0.941
6.0,-3.0,0.942
12.0,0.0,0.943
16.0,-1.0,0.944
12.0,-3.0,0.945
5.0,0.0,0.946
0.0,1.0,0.947
-1.0,-3.0,0.948
-1.0,-7.0,0.949
-1.0,-3.0,0.95
-5.0,1.0,0.951
-6.0,-2.0,0.952
-6.0,-6.0,0.953
-4.0,-3.0,0.954
-2.0,4.0,0.955
1.0,8.0,0.956
7.0,8.0,0.957
12.0,5.0,0.958
12.0,2.0,0.959
5.0,-1.0,0.96
1.0,-6.0,0.961
3.0,-5.0,0.962
11.0,-2.0,0.963
17.0,-1.0,0.964
17.0,0.0,0.965
10.0,2.0,0.966
2.0,1.0,0.967
-1.0,-3.0,0.968
0.0,-5.0,0.969
0.0,-5.0,0.97
-1.0,-4.0,0.971
-2.0,-5.0,0.972
0.0,-3.0,0.973
1.0,-1.0,0.974
1.0,0.0,0.975
-1.0,-2.0,0.976
-1.0,-1.0,0.977
0.0,1.0,0.978
2.0,4.0,0.979
0.0,2.0,0.98
-1.0,-4.0,0.981
0.0,-5.0,0.982
7.0,-4.0,0.983
12.0,-2.0,0.984
9.0,-1.0,0.985
1.0,1.0,0.986
-2.0,0.0,0.987
2.0,-4.0,0.988
3.0,-4.0,0.989
-3.0,-1.0,0.99
-10.0,1.0,0.991
-9.0,2.0,0.992
-1.0,3.0,0.993
3.0,5.0,0.994
0.0,5.0,0.995
-2.0,2.0,0.996
3.0,4.0,0.997
7.0,4.0,0.998
8.0,2.0,0.999
1.0,-4.0,1.0
-1.0,-8.0,1.001
4.0,-5.0,1.002
10.0,-3.0,1.003
15.0,-5.0,1.004
12.0,-3.0,1.005
6.0,-1.0,1.006
2.0,1.0,1.007
2.0,-2.0,1.008
0.0,-3.0,1.009
-4.0,1.0,1.01
-6.0,5.0,1.011
-5.0,4.0,1.012
-5.0,-1.0,1.013
-7.0,-1.0,1.014
-6.0,1.0,1.015
-2.0,3.0,1.016
3.0,6.0,1.017
7.0,6.0,1.018
7.0,3.0,1.019
5.0,-2.0,1.02
3.0,-8.0,1.021
3.0,-7.0,1.022
7.0,-3.0,1.023
14.0,-3.0,1.024
14.0,-3.0,1.025
7.0,-1.0,1.026
1.0,-1.0,1.027
2.0,-4.0,1.028
2.0,-7.0,1.029
-3.0,-4.0,1.03
-8.0,1.0,1.031
-7.0,1.0,1.032
-4.0,0.0,1.033
-4.0,0.0,1.034
-4.0,2.0,1.035
0.0,2.0,1.036
8.0,2.0,1.037
10.0,0.0,1.038
4.0,0.0,1.039
-3.0,-1.0,1.04
-3.0,-5.0,1.041
2.0,-7.0,1.042
10.0,-5.0,1.043
12.0,-2.0,1.044
10.0,-1.0,1.045
4.0,-1.0,1.046
1.0,-1.0,1.047
4.0,0.0,1.048
9.0,0.0,1.049
5.0,1.0,1.05
-1.0,2.0,1.051
-2.0,2.0,1.052
0.0,2.0,1.053
1.0,1.0,1.054
-2.0,2.0,1.055
0.0,3.0,1.056
7.0,6.0,1.057
9.0,5.0,1.058
5.0,2.0,1.059
1.0,-2.0,1.06
2.0,-5.0,1.061
5.0,-4.0,1.062
7.0,-1.0,1.063
10.0,-1.0,1.064
10.0,-3.0,1.065
7.0,-2.0,1.066
2.0,-1.0,1.067
1.0,-2.0,1.068
1.0,-4.0,1.069
-2.0,-3.0,1.07
-7.0,-2.0,1.071
-8.0,-2.0,1.072
-5.0,-2.0,1.073
-3.0,1.0,1.074
-2.0,4.0,1.075
-3.0,5.0,1.076
-1.0,5.0,1.077
1.0,3.0,1.078
6.0,1.0,1.079
6.0,0.0,1.08
3.0,-4.0,1.081
4.0,-3.0,1.082
9.0,-2.0,1.083
16.0,-4.0,1.084
14.0,-3.0,1.085
7.0,-1.0,1.086
4.0,-1.0,1.087
6.0,-3.0,1.088
6.0,-4.0,1.089
0.0,-2.0,1.09
-4.0,-2.0,1.091
-2.0,-2.0,1.092
-1.0,1.0,1.093
-3.0,6.0,1.094
-6.0,10.0,1.095
-3.0,5.0,1.096
2.0,2.0,1.097
3.0,1.0,1.098
2.0,1.0,1.099
1.0,-1.0,1.1
4.0,-8.0,1.101
8.0,-8.0,1.102
14.0,-6.0,1.103
16.0,-5.0,1.104
13.0,-3.0,1.105
7.0,0.0,1.106
4.0,0.0,1.107
3.0,-2.0,1.108
1.0,-3.0,1.109
-3.0,1.0,1.11
-4.0,3.0,1.111
-4.0,2.0,1.112
-4.0,2.0,1.113
-4.0,5.0,1.114
-2.0,6.0,1.115
1.0,2.0,1.116
3.0,0.0,1.117
3.0,3.0,1.118
3.0,4.0,1.119
3.0,0.0,1.12
0.0,-7.0,1.121
-1.0,-9.0,1.122
4.0,-7.0,1.123
13.0,-4.0,1.124
15.0,-1.0,1.125
9.0,0.0,1.126
3.0,-3.0,1.127
3.0,-6.0,1.128
3.0,-5.0,1.129
-2.0,0.0,1.13
-6.0,3.0,1.131
-6.0,2.0,1.132
-5.0,1.0,1.133
-4.0,3.0,1.134
0.0,4.0,1.135
5.0,2.0,1.136
9.0,1.0,1.137
7.0,0.0,1.138
5.0,-1.0,1.139
3.0,-1.0,1.14
0.0,-4.0,1.141
1.0,-4.0,1.142
9.0,-2.0,1.143
18.0,-2.0,1.144
16.0,-2.0,1.145
5.0,-1.0,1.146
-1.0,-1.0,1.147
1.0,-5.0,1.148
2.0,-6.0,1.149
-3.0,-4.0,1.15
-8.0,-2.0,1.151
-8.0,-1.0,1.152
-7.0,0.0,1.153
-8.0,2.0,1.154
-7.0,4.0,1.155
-4.0,3.0,1.156
2.0,4.0,1.157
5.0,4.0,1.158
6.0,3.0,1.159
4.0,0.0,1.16
0.0,-7.0,1.161
0.0,-7.0,1.162
8.0,-4.0,1.163
17.0,-4.0,1.164
15.0,-3.0,1.165
4.0,0.0,1.166
-1.0,3.0,1.167
1.0,2.0,1.168
3.0,-2.0,1.169
-2.0,-5.0,1.17
-5.0,-4.0,1.171
-4.0,-1.0,1.172
-2.0,2.0,1.173
-2.0,4.0,1.174
-1.0,4.0,1.175
0.0,5.0,1.176
4.0,8.0,1.177
5.0,5.0,1.178
6.0,0.0,1.179
4.0,-4.0,1.18
0.0,-5.0,1.181
-3.0,-2.0,1.182
1.0,-1.0,1.183
9.0,-2.0,1.184
11.0,-1.0,1.185
5.0,2.0,1.186
0.0,3.0,1.187
1.0,0.0,1.188
3.0,-1.0,1.189
1.0,0.0,1.19
-1.0,1.0,1.191
-1.0,0.0,1.192
1.0,-1.0,1.193
2.0,0.0,1.194
2.0,1.0,1.195
4.0,-1.0,1.196
7.0,-2.0,1.197
9.0,-3.0,1.198
12.0,-3.0,1.199
13.0,-5.0,1.2
11.0,-7.0,1.201
8.0,-6.0,1.202
13.0,-5.0,1.203
20.0,-7.0,1.204
20.0,-9.0,1.205
13.0,-7.0,1.206
6.0,-4.0,1.207
7.0,-6.0,1.208
4.0,-8.0,1.209
-4.0,-4.0,1.21
-10.0,2.0,1.211
-9.0,4.0,1.212
-6.0,2.0,1.213
-8.0,3.0,1.214
-9.0,5.0,1.215
-5.0,3.0,1.216
0.0,1.0,1.217
2.0,1.0,1.218
0.0,5.0,1.219
-2.0,4.0,1.22
-3.0,-3.0,1.221
0.0,-5.0,1.222
6.0,-5.0,1.223
14.0,-3.0,1.224
12.0,-2.0,1.225
4.0,0.0,1.226
-1.0,3.0,1.227
1.0,1.0,1.228
3.0,0.0,1.229
-2.0,2.0,1.23
-9.0,4.0,1.231
-8.0,3.0,1.232
-5.0,3.0,1.233
-3.0,3.0,1.234
-2.0,5.0,1.235
1.0,4.0,1.236
4.0,2.0,1.237
3.0,0.0,1.238
2.0,-1.0,1.239
2.0,-4.0,1.24
5.0,-9.0,1.241
8.0,-6.0,1.242
12.0,-4.0,1.243
15.0,-3.0,1.244
13.0,-2.0,1.245
4.0,-1.0,1.246
0.0,0.0,1.247
4.0,0.0,1.248
6.0,0.0,1.249
3.0,1.0,1.25
-2.0,2.0,1.251
-3.0,0.0,1.252
-2.0,1.0,1.253
-4.0,3.0,1.254
-3.0,3.0,1.255
0.0,1.0,1.256
6.0,0.0,1.257
8.0,0.0,1.258
7.0,0.0,1.259
4.0,0.0,1.26
3.0,-5.0,1.261
4.0,-7.0,1.262
12.0,-6.0,1.263
16.0,-4.0,1.264
11.0,-2.0,1.265
5.0,1.0,1.266
3.0,0.0,1.267
4.0,-4.0,1.268
-2.0,-5.0,1.269
-8.0,-2.0,1.27
-8.0,1.0,1.271
-3.0,1.0,1.272
-3.0,1.0,1.273
-9.0,2.0,1.274
-9.0,3.0,1.275
-4.0,1.0,1.276
2.0,0.0,1.277
5.0,0.0,1.278
3.0,-1.0,1.279
1.0,-4.0,1.28
-1.0,-7.0,1.281
0.0,-7.0,1.282
3.0,-6.0,1.283
8.0,-6.0,1.284
9.0,-5.0,1.285
7.0,-3.0,1.286
2.0,-3.0,1.287
-2.0,-3.0,1.288
-3.0,-1.0,1.289
-3.0,2.0,1.29
1.0,3.0,1.291
2.0,0.0,1.292
0.0,1.0,1.293
-2.0,4.0,1.294
1.0,5.0,1.295
5.0,4.0,1.296
7.0,6.0,1.297
6.0,7.0,1.298
7.0,5.0,1.299
5.0,2.0,1.3
1.0,-5.0,1.301
1.0,-7.0,1.302
7.0,-9.0,1.303
15.0,-7.0,1.304
15.0,-5.0,1.305
10.0,-1.0,1.306
5.0,-2.0,1.307
1.0,-6.0,1.308
-1.0,-6.0,1.309
-3.0,0.0,1.31
-3.0,3.0,1.311
-3.0,1.0,1.312
-4.0,-1.0,1.313
-6.0,1.0,1.314
-2.0,4.0,1.315
4.0,2.0,1.316
8.0,2.0,1.317
5.0,3.0,1.318
3.0,3.0,1.319
1.0,2.0,1.32
1.0,-3.0,1.321
0.0,-8.0,1.322
6.0,-7.0,1.323
13.0,-5.0,1.324
14.0,-3.0,1.325
7.0,-1.0,1.326
2.0,-3.0,1.327
2.0,-4.0,1.328
2.0,-1.0,1.329
-2.0,1.0,1.33
-6.0,1.0,1.331
-4.0,0.0,1.332
-4.0,2.0,1.333
-7.0,5.0,1.334
-8.0,8.0,1.335
-2.0,10.0,1.336
6.0,8.0,1.337
7.0,5.0,1.338
5.0,1.0,1.339
4.0,0.0,1.34
4.0,-3.0,1.341
4.0,-4.0,1.342
11.0,-7.0,1.343
16.0,-9.0,1.344
10.0,-6.0,1.345
5.0,0.0,1.346
3.0,-1.0,1.347
1.0,-4.0,1.348
-1.0,-4.0,1.349
-4.0,-1.0,1.35
-3.0,1.0,1.351
-2.0,0.0,1.352
0.0,2.0,1.353
1.0,7.0,1.354
0.0,9.0,1.355
0.0,7.0,1.356
1.0,4.0,1.357
5.0,0.0,1.358
6.0,-1.0,1.359
4.0,-4.0,1.36
4.0,-4.0,1.361
3.0,-3.0,1.362
7.0,-2.0,1.363
12.0,-3.0,1.364
12.0,-1.0,1.365
6.0,0.0,1.366
0.0,0.0,1.367
1.0,-2.0,1.368
1.0,-1.0,1.369
0.0,2.0,1.37
-3.0,3.0,1.371
-3.0,0.0,1.372
-2.0,0.0,1.373
-2.0,4.0,1.374
0.0,4.0,1.375
4.0,1.0,1.376
8.0,0.0,1.377
8.0,0.0,1.378
4.0,0.0,1.379
0.0,-4.0,1.38
0.0,-10.0,1.381
2.0,-10.0,1.382
9.0,-6.0,1.383
16.0,-5.0,1.384
14.0,-6.0,1.385
3.0,-4.0,1.386
-3.0,-1.0,1.387
0.0,-2.0,1.388
2.0,-4.0,1.389
-1.0,-4.0,1.39
-5.0,-1.0,1.391
-4.0,1.0,1.392
-2.0,1.0,1.393
-1.0,2.0,1.394
-1.0,3.0,1.395
0.0,2.0,1.396
4.0,2.0,1.397
5.0,1.0,1.398
7.0,1.0,1.399
4.0,0.0,1.4
0.0,-4.0,1.401
0.0,-4.0,1.402
5.0,-3.0,1.403
12.0,-3.0,1.404
12.0,-2.0,1.405
6.0,-1.0,1.406
2.0,0.0,1.407
0.0,-2.0,1.408
-2.0,-4.0,1.409
-7.0,-1.0,1.41
-9.0,1.0,1.411
-7.0,3.0,1.412
-4.0,5.0,1.413
-3.0,7.0,1.414
-2.0,7.0,1.415
3.0,6.0,1.416
9.0,8.0,1.417
8.0,6.0,1.418
3.0,1.0,1.419
1.0,-5.0,1.42
4.0,-9.0,1.421
7.0,-8.0,1.422
12.0,-5.0,1.423
15.0,-5.0,1.424
14.0,-1.0,1.425
8.0,2.0,1.426
3.0,2.0,1.427
1.0,-1.0,1.428
0.0,-2.0,1.429
-1.0,1.0,1.43
-2.0,4.0,1.431
-4.0,2.0,1.432
-4.0,0.0,1.433
-3.0,1.0,1.434
1.0,3.0,1.435
4.0,5.0,1.436
3.0,7.0,1.437
2.0,5.0,1.438
3.0,0.0,1.439
3.0,-4.0,1.44
1.0,-9.0,1.441
0.0,-9.0,1.442
6.0,-8.0,1.443
15.0,-6.0,1.444
14.0,-4.0,1.445
8.0,0.0,1.446
4.0,0.0,1.447
3.0,-2.0,1.448
0.0,-4.0,1.449
-4.0,-2.0,1.45
-5.0,0.0,1.451
-3.0,0.0,1.452
-2.0,2.0,1.453
0.0,5.0,1.454
5.0,7.0,1.455
9.0,5.0,1.456
5.0,4.0,1.457
-1.0,2.0,1.458
0.0,1.0,1.459
6.0,-3.0,1.46
9.0,-8.0,1.461
8.0,-7.0,1.462
11.0,-6.0,1.463
14.0,-6.0,1.464
9.0,-4.0,1.465
1.0,-1.0,1.466
-2.0,0.0,1.467
-2.0,-4.0,1.468
-5.0,-6.0,1.469
-9.0,-2.0,1.47
-11.0,1.0,1.471
-8.0,2.0,1.472
-5.0,1.0,1.473
-5.0,2.0,1.474
-3.0,4.0,1.475
-1.0,3.0,1.476
1.0,3.0,1.477
5.0,2.0,1.478
7.0,1.0,1.479
3.0,-1.0,1.48
-1.0,-5.0,1.481
1.0,-2.0,1.482
7.0,0.0,1.483
13.0,-3.0,1.484
12.0,-4.0,1.485
8.0,-2.0,1.486
7.0,0.0,1.487
7.0,-2.0,1.488
3.0,-4.0,1.489
-3.0,-3.0,1.49
-4.0,1.0,1.491
-1.0,3.0,1.492
2.0,3.0,1.493
0.0,4.0,1.494
0.0,7.0,1.495
2.0,5.0,1.496
6.0,3.0,1.497
8.0,0.0,1.498
8.0,-1.0,1.499
9.0,-1.0,1.5
9.0,-3.0,1.501
6.0,-5.0,1.502
6.0,-6.0,1.503
10.0,-4.0,1.504
10.0,-1.0,1.505
8.0,2.0,1.506
4.0,-1.0,1.507
2.0,-3.0,1.508
1.0,-3.0,1.509
0.0,0.0,1.51
-4.0,1.0,1.511
-6.0,0.0,1.512
-8.0,-1.0,1.513
-6.0,0.0,1.514
-1.0,3.0,1.515
4.0,3.0,1.516
8.0,2.0,1.517
8.0,-1.0,1.518
6.0,-2.0,1.519
3.0,-3.0,1.52
-1.0,-4.0,1.521
-1.0,-5.0,1.522
4.0,-6.0,1.523
11.0,-6.0,1.524
10.0,-4.0,1.525
3.0,1.0,1.526
0.0,4.0,1.527
2.0,3.0,1.528
1.0,2.0,1.529
-5.0,3.0,1.53
-9.0,3.0,1.531
-7.0,1.0,1.532
-2.0,0.0,1.533
1.0,3.0,1.534
2.0,5.0,1.535
2.0,3.0,1.536
2.0,2.0,1.537
2.0,-1.0,1.538
4.0,-2.0,1.539
4.0,-6.0,1.54
1.0,-8.0,1.541
0.0,-7.0,1.542
5.0,-6.0,1.543
12.0,-5.0,1.544
12.0,-4.0,1.545
4.0,-1.0,1.546
-1.0,0.0,1.547
-1.0,-2.0,1.548
0.0,-3.0,1.549
-3.0,-2.0,1.55
-6.0,-1.0,1.551
-6.0,-1.0,1.552
-3.0,0.0,1.553
-3.0,5.0,1.554
-3.0,8.0,1.555
0.0,6.0,1.556
4.0,4.0,1.557
4.0,2.0,1.558
5.0,2.0,1.559
5.0,1.0,1.56
5.0,-2.0,1.561
6.0,-5.0,1.562
10.0,-4.0,1.563
15.0,-3.0,1.564
13.0,-4.0,1.565
3.0,-5.0,1.566
-4.0,-1.0,1.567
-3.0,2.0,1.568
2.0,-1.0,1.569
2.0,-3.0,1.57
-3.0,0.0,1.571
-6.0,3.0,1.572
-5.0,4.0,1.573
-3.0,5.0,1.574
-1.0,4.0,1.575
2.0,3.0,1.576
6.0,4.0,1.577
10.0,6.0,1.578
9.0,5.0,1.579
6.0,2.0,1.58
3.0,-6.0,1.581
4.0,-9.0,1.582
10.0,-7.0,1.583
15.0,-4.0,1.584
12.0,0.0,1.585
5.0,2.0,1.586
0.0,0.0,1.587
3.0,-3.0,1.588
4.0,-4.0,1.589
0.0,-1.0,1.59
-3.0,2.0,1.591
-1.0,2.0,1.592
2.0,1.0,1.593
0.0,0.0,1.594
-1.0,-1.0,1.595
3.0,0.0,1.596
9.0,3.0,1.597
8.0,4.0,1.598
5.0,2.0,1.599
3.0,-2.0,1.6
6.0,-7.0,1.601
4.0,-7.0,1.602
2.0,-6.0,1.603
7.0,-6.0,1.604
10.0,-5.0,1.605
6.0,-2.0,1.606
2.0,-2.0,1.607
3.0,-3.0,1.608
4.0,-2.0,1.609
-2.0,1.0,1.61
-8.0,4.0,1.611
-5.0,3.0,1.612
0.0,2.0,1.613
-1.0,2.0,1.614
-4.0,2.0,1.615
0.0,-2.0,1.616
10.0,-2.0,1.617
10.0,-3.0,1.618
4.0,-1.0,1.619
0.0,0.0,1.62
0.0,-3.0,1.621
2.0,-3.0,1.622
6.0,-3.0,1.623
10.0,-4.0,1.624
9.0,-2.0,1.625
2.0,-1.0,1.626
-3.0,0.0,1.627
-2.0,-1.0,1.628
0.0,-2.0,1.629
-1.0,0.0,1.63
-4.0,3.0,1.631
-6.0,2.0,1.632
-6.0,1.0,1.633
-4.0,2.0,1.634
-3.0,5.0,1.635
0.0,4.0,1.636
3.0,2.0,1.637
2.0,-2.0,1.638
3.0,-3.0,1.639
4.0,-2.0,1.64
3.0,-4.0,1.641
2.0,-4.0,1.642
7.0,-4.0,1.643
12.0,-2.0,1.644
13.0,0.0,1.645
8.0,3.0,1.646
1.0,4.0,1.647
-2.0,2.0,1.648
-4.0,-2.0,1.649
-5.0,-3.0,1.65
-6.0,0.0,1.651
-5.0,2.0,1.652
-5.0,3.0,1.653
-6.0,3.0,1.654
-4.0,3.0,1.655
0.0,2.0,1.656
7.0,2.0,1.657
10.0,0.0,1.658
10.0,-1.0,1.659
5.0,-2.0,1.66
3.0,-5.0,1.661
3.0,-6.0,1.662
11.0,-6.0,1.663
16.0,-6.0,1.664
14.0,-6.0,1.665
6.0,-5.0,1.666
1.0,-3.0,1.667
2.0,-1.0,1.668
3.0,0.0,1.669
1.0,2.0,1.67
-2.0,3.0,1.671
-3.0,3.0,1.672
-2.0,3.0,1.673
-1.0,3.0,1.674
1.0,4.0,1.675
5.0,6.0,1.676
9.0,6.0,1.677
8.0,3.0,1.678
8.0,-1.0,1.679
7.0,-4.0,1.68
5.0,-7.0,1.681
4.0,-6.0,1.682
7.0,-6.0,1.683
11.0,-5.0,1.684
11.0,-4.0,1.685
7.0,-1.0,1.686
4.0,0.0,1.687
4.0,0.0,1.688
0.0,0.0,1.689
-4.0,3.0,1.69
-8.0,5.0,1.691
-7.0,4.0,1.692
-1.0,4.0,1.693
1.0,3.0,1.694
0.0,2.0,1.695
-1.0,0.0,1.696
1.0,2.0,1.697
3.0,-1.0,1.698
3.0,-4.0,1.699
2.0,-4.0,1.7
2.0,-5.0,1.701
7.0,-4.0,1.702
11.0,-7.0,1.703
11.0,-11.0,1.704
7.0,-8.0,1.705
3.0,-2.0,1.706
1.0,-1.0,1.707
3.0,-4.0,1.708
1.0,-4.0,1.709
-2.0,2.0,1.71
-5.0,5.0,1.711
-6.0,3.0,1.712
-6.0,2.0,1.713
-6.0,3.0,1.714
-1.0,5.0,1.715
4.0,3.0,1.716
7.0,1.0,1.717
5.0,0.0,1.718
2.0,0.0,1.719
0.0,-2.0,1.72
-1.0,-5.0,1.721
1.0,-5.0,1.722
6.0,-5.0,1.723
14.0,-6.0,1.724
16.0,-5.0,1.725
8.0,-1.0,1.726
1.0,0.0,1.727
-1.0,-4.0,1.728
-1.0,-5.0,1.729
-4.0,0.0,1.73
-8.0,4.0,1.731
-3.0,1.0,1.732
0.0,-1.0,1.733
1.0,2.0,1.734
2.0,6.0,1.735
4.0,5.0,1.736
7.0,3.0,1.737
6.0,1.0,1.738
6.0,1.0,1.739
7.0,2.0,1.74
7.0,-1.0,1.741
4.0,-3.0,1.742
5.0,-3.0,1.743
10.0,-2.0,1.744
12.0,-1.0,1.745
6.0,-1.0,1.746
1.0,-3.0,1.747
1.0,-4.0,1.748
2.0,-2.0,1.749
0.0,-1.0,1.75
-4.0,-1.0,1.751
-5.0,-1.0,1.752
-5.0,0.0,1.753
-4.0,4.0,1.754
-3.0,5.0,1.755
3.0,4.0,1.756
8.0,4.0,1.757
8.0,4.0,1.758
6.0,3.0,1.759
2.0,-1.0,1.76
0.0,-6.0,1.761
0.0,-6.0,1.762
3.0,-3.0,1.763
11.0,-2.0,1.764
12.0,-3.0,1.765
5.0,-2.0,1.766
-1.0,0.0,1.767
-1.0,-1.0,1.768
0.0,-2.0,1.769
-1.0,-1.0,1.77
-4.0,2.0,1.771
-3.0,1.0,1.772
-1.0,0.0,1.773
-1.0,0.0,1.774
-2.0,3.0,1.775
0.0,3.0,1.776
4.0,3.0,1.777
6.0,0.0,1.778
7.0,-2.0,1.779
6.0,-2.0,1.78
3.0,-6.0,1.781
3.0,-6.0,1.782
9.0,-6.0,1.783
14.0,-6.0,1.784
11.0,-2.0,1.785
4.0,2.0,1.786
3.0,3.0,1.787
5.0,-2.0,1.788
0.0,-6.0,1.789
-7.0,-3.0,1.79
-12.0,1.0,1.791
-8.0,0.0,1.792
-5.0,-2.0,1.793
-5.0,-1.0,1.794
-3.0,4.0,1.795
0.0,7.0,1.796
4.0,7.0,1.797
5.0,3.0,1.798
5.0,0.0,1.799
5.0,-1.0,1.8
4.0,-4.0,1.801
4.0,-6.0,1.802
9.0,-7.0,1.803
14.0,-8.0,1.804
11.0,-3.0,1.805
3.0,3.0,1.806
1.0,2.0,1.807
5.0,-2.0,1.808
0.0,-4.0,1.809
-7.0,0.0,1.81
-7.0,3.0,1.811
-1.0,2.0,1.812
0.0,1.0,1.813
-4.0,2.0,1.814
-6.0,1.0,1.815
0.0,0.0,1.816
8.0,2.0,1.817
7.0,5.0,1.818
5.0,5.0,1.819
4.0,1.0,1.82
5.0,-5.0,1.821
6.0,-7.0,1.822
9.0,-5.0,1.823
14.0,-3.0,1.824
12.0,0.0,1.825
3.0,3.0,1.826
-2.0,1.0,1.827
0.0,-5.0,1.828
1.0,-4.0,1.829
-2.0,0.0,1.83
-4.0,1.0,1.831
-4.0,0.0,1.832
-1.0,1.0,1.833
-1.0,8.0,1.834
-2.0,8.0,1.835
0.0,1.0,1.836
3.0,-4.0,1.837
4.0,-2.0,1.838
5.0,2.0,1.839
2.0,0.0,1.84
2.0,-9.0,1.841
6.0,-11.0,1.842
12.0,-9.0,1.843
16.0,-6.0,1.844
13.0,-3.0,1.845
2.0,0.0,1.846
-3.0,1.0,1.847
-2.0,-3.0,1.848
0.0,-6.0,1.849
-1.0,-1.0,1.85
-4.0,5.0,1.851
-5.0,4.0,1.852
-3.0,1.0,1.853
0.0,1.0,1.854
1.0,5.0,1.855
0.0,6.0,1.856
2.0,6.0,1.857
1.0,6.0,1.858
3.0,8.0,1.859
3.0,3.0,1.86
3.0,-5.0,1.861
3.0,-9.0,1.862
9.0,-7.0,1.863
13.0,-3.0,1.864
10.0,-1.0,1.865
3.0,0.0,1.866
0.0,2.0,1.867
-1.0,2.0,1.868
-3.0,1.0,1.869
-7.0,1.0,1.87
-6.0,2.0,1.871
0.0,4.0,1.872
2.0,6.0,1.873
2.0,8.0,1.874
3.0,7.0,1.875
5.0,3.0,1.876
5.0,3.0,1.877
2.0,3.0,1.878
4.0,2.0,1.879
8.0,0.0,1.88
10.0,-6.0,1.881
9.0,-9.0,1.882
15.0,-11.0,1.883
22.0,-10.0,1.884
19.0,-4.0,1.885
7.0,0.0,1.886
0.0,-3.0,1.887
4.0,-8.0,1.888
10.0,-9.0,1.889
4.0,-7.0,1.89
-4.0,-5.0,1.891
-6.0,-3.0,1.892
-6.0,1.0,1.893
-7.0,6.0,1.894
-5.0,5.0,1.895
-1.0,-1.0,1.896
4.0,-3.0,1.897
4.0,-1.0,1.898
1.0,0.0,1.899
-1.0,-2.0,1.9
-3.0,-6.0,1.901
-3.0,-8.0,1.902
2.0,-7.0,1.903
7.0,-4.0,1.904
5.0,-1.0,1.905
2.0,1.0,1.906
0.0,-1.0,1.907
-1.0,-3.0,1.908
-1.0,0.0,1.909
-2.0,4.0,1.91
-2.0,6.0,1.911
-3.0,6.0,1.912
-3.0,6.0,1.913
-2.0,6.0,1.914
2.0,3.0,1.915
5.0,2.0,1.916
6.0,6.0,1.917
6.0,8.0,1.918
9.0,6.0,1.919
10.0,0.0,1.92
9.0,-6.0,1.921
4.0,-6.0,1.922
6.0,-5.0,1.923
13.0,-3.0,1.924
15.0,-2.0,1.925
9.0,-1.0,1.926
4.0,-2.0,1.927
3.0,-4.0,1.928
2.0,-2.0,1.929
-4.0,0.0,1.93
-9.0,2.0,1.931
-10.0,0.0,1.932
-6.0,0.0,1.933
-2.0,0.0,1.934
2.0,0.0,1.935
4.0,-2.0,1.936
3.0,-1.0,1.937
1.0,0.0,1.938
2.0,-1.0,1.939
5.0,-2.0,1.94
6.0,-5.0,1.941
5.0,-5.0,1.942
7.0,-5.0,1.943
11.0,-5.0,1.944
10.0,-2.0,1.945
4.0,2.0,1.946
1.0,0.0,1.947
2.0,-2.0,1.948
1.0,-1.0,1.949
-3.0,2.0,1.95
-4.0,1.0,1.951
-1.0,-3.0,1.952
1.0,0.0,1.953
0.0,5.0,1.954
0.0,5.0,1.955
2.0,2.0,1.956
5.0,3.0,1.957
6.0,5.0,1.958
7.0,3.0,1.959
6.0,-5.0,1.96
2.0,-12.0,1.961
3.0,-10.0,1.962
9.0,-5.0,1.963
16.0,-2.0,1.964
15.0,0.0,1.965
7.0,3.0,1.966
1.0,0.0,1.967
-1.0,-3.0,1.968
-3.0,-3.0,1.969
-7.0,0.0,1.97
-11.0,1.0,1.971
-8.0,0.0,1.972
-3.0,1.0,1.973
0.0,5.0,1.974
1.0,6.0,1.975
2.0,3.0,1.976
3.0,3.0,1.977
4.0,1.0,1.978
7.0,0.0,1.979
6.0,0.0,1.98
3.0,-3.0,1.981
2.0,-5.0,1.982
6.0,-7.0,1.983
8.0,-8.0,1.984
5.0,-2.0,1.985
1.0,2.0,1.986
2.0,0.0,1.987
4.0,-4.0,1.988
2.0,-3.0,1.989
-3.0,0.0,1.99
-6.0,0.0,1.991
-5.0,0.0,1.992
-1.0,2.0,1.993
0.0,6.0,1.994
0.0,5.0,1.995
1.0,2.0,1.996
4.0,2.0,1.997
6.0,3.0,1.998
7.0,2.0,1.999
5.0,-1.0,2.0
2.0,-5.0,2.001
4.0,-2.0,2.002
8.0,-2.0,2.003
11.0,-5.0,2.004
9.0,-6.0,2.005
2.0,-4.0,2.006
-2.0,-1.0,2.007
-3.0,0.0,2.008
-4.0,0.0,2.009
-7.0,1.0,2.01
-7.0,2.0,2.011
-3.0,2.0,2.012
0.0,1.0,2.013
0.0,0.0,2.014
-1.0,0.0,2.015
1.0,2.0,2.016
5.0,4.0,2.017
6.0,4.0,2.018
3.0,2.0,2.019
0.0,-1.0,2.02
-1.0,-9.0,2.021
3.0,-10.0,2.022
12.0,-7.0,2.023
17.0,-4.0,2.024
14.0,-4.0,2.025
6.0,-5.0,2.026
2.0,-3.0,2.027
3.0,-1.0,2.028
4.0,0.0,2.029
0.0,0.0,2.03
-4.0,1.0,2.031
-6.0,1.0,2.032
-6.0,1.0,2.033
-5.0,4.0,2.034
-2.0,6.0,2.035
0.0,5.0,2.036
3.0,4.0,2.037
4.0,3.0,2.038
5.0,5.0,2.039
3.0,5.0,2.04
0.0,0.0,2.041
1.0,-5.0,2.042
8.0,-7.0,2.043
15.0,-7.0,2.044
13.0,-5.0,2.045
4.0,-1.0,2.046
-1.0,-2.0,2.047
2.0,-4.0,2.048
4.0,-5.0,2.049
3.0,-2.0,2.05
0.0,0.0,2.051
-2.0,2.0,2.052
-3.0,3.0,2.053
-3.0,6.0,2.054
3.0,6.0,2.055
8.0,2.0,2.056
10.0,0.0,2.057
5.0,0.0,2.058
5.0,0.0,2.059
3.0,-1.0,2.06
1.0,-6.0,2.061
0.0,-9.0,2.062
7.0,-7.0,2.063
12.0,-4.0,2.064
10.0,-2.0,2.065
8.0,0.0,2.066
2.0,-1.0,2.067
-2.0,-2.0,2.068
-3.0,-1.0,2.069
-4.0,0.0,2.07
-5.0,1.0,2.071
-6.0,2.0,2.072
-2.0,3.0,2.073
1.0,5.0,2.074
1.0,4.0,2.075
1.0,2.0,2.076
5.0,0.0,2.077
7.0,-1.0,2.078
6.0,-1.0,2.079
0.0,-3.0,2.08
-3.0,-6.0,2.081
-1.0,-6.0,2.082
8.0,-6.0,2.083
17.0,-6.0,2.084
18.0,-2.0,2.085
7.0,1.0,2.086
-3.0,0.0,2.087
-2.0,-2.0,2.088
2.0,-1.0,2.089
0.0,3.0,2.09
-5.0,4.0,2.091
-8.0,0.0,2.092
-5.0,-1.0,2.093
-2.0,0.0,2.094
0.0,3.0,2.095
4.0,1.0,2.096
8.0,1.0,2.097
9.0,2.0,2.098
5.0,1.0,2.099
1.0,-4.0,2.1
1.0,-10.0,2.101
2.0,-8.0,2.102
7.0,-2.0,2.103
13.0,0.0,2.104
11.0,1.0,2.105
3.0,1.0,2.106
-5.0,1.0,2.107
-4.0,-2.0,2.108
1.0,-5.0,2.109
2.0,-2.0,2.11
-2.0,1.0,2.111
-4.0,3.0,2.112
-1.0,2.0,2.113
0.0,2.0,2.114
1.0,3.0,2.115
4.0,2.0,2.116
8.0,2.0,2.117
8.0,4.0,2.118
5.0,6.0,2.119
1.0,5.0,2.12
3.0,-4.0,2.121
7.0,-8.0,2.122
12.0,-6.0,2.123
16.0,-3.0,2.124
15.0,-2.0,2.125
7.0,-1.0,2.126
0.0,-1.0,2.127
0.0,-1.0,2.128
0.0,-1.0,2.129
-3.0,-2.0,2.13
-5.0,-2.0,2.131
-4.0,-1.0,2.132
-1.0,1.0,2.133
-3.0,4.0,2.134
-5.0,3.0,2.135
-1.0,1.0,2.136
7.0,1.0,2.137
9.0,1.0,2.138
8.0,-1.0,2.139
3.0,-5.0,2.14
0.0,-6.0,2.141
-1.0,-5.0,2.142
2.0,-3.0,2.143
9.0,-3.0,2.144
10.0,-3.0,2.145
4.0,-3.0,2.146
0.0,-5.0,2.147
0.0,-5.0,2.148
1.0,-1.0,2.149
-1.0,3.0,2.15
-4.0,3.0,2.151
-6.0,0.0,2.152
-6.0,1.0,2.153
-8.0,4.0,2.154
-5.0,4.0,2.155
0.0,0.0,2.156
4.0,0.0,2.157
5.0,0.0,2.158
6.0,-1.0,2.159
8.0,-2.0,2.16
8.0,-6.0,2.161
6.0,-7.0,2.162
9.0,-7.0,2.163
15.0,-2.0,2.164
14.0,6.0,2.165
6.0,7.0,2.166
-2.0,1.0,2.167
0.0,-4.0,2.168
3.0,-2.0,2.169
-1.0,1.0,2.17
-6.0,0.0,2.171
-7.0,-1.0,2.172
-4.0,3.0,2.173
-1.0,8.0,2.174
0.0,8.0,2.175
2.0,4.0,2.176
6.0,2.0,2.177
8.0,2.0,2.178
6.0,1.0,2.179
2.0,-3.0,2.18
0.0,-9.0,2.181
2.0,-11.0,2.182
9.0,-10.0,2.183
13.0,-7.0,2.184
11.0,-2.0,2.185
3.0,-1.0,2.186
0.0,-3.0,2.187
0.0,-1.0,2.188
0.0,4.0,2.189
-2.0,8.0,2.19
-5.0,4.0,2.191
-4.0,1.0,2.192
-2.0,3.0,2.193
0.0,9.0,2.194
4.0,8.0,2.195
9.0,2.0,2.196
9.0,0.0,2.197
5.0,-1.0,2.198
6.0,-1.0,2.199
8.0,-4.0,2.2
6.0,-6.0,2.201
1.0,-5.0,2.202
2.0,-4.0,2.203
11.0,-6.0,2.204
12.0,-6.0,2.205
4.0,-2.0,2.206
-1.0,1.0,2.207
1.0,1.0,2.208
2.0,-1.0,2.209
-1.0,-3.0,2.21
-5.0,0.0,2.211
-3.0,3.0,2.212
1.0,4.0,2.213
3.0,4.0,2.214
0.0,3.0,2.215
1.0,2.0,2.216
5.0,4.0,2.217
6.0,6.0,2.218
5.0,3.0,2.219
2.0,-4.0,2.22
-2.0,-9.0,2.221
-2.0,-7.0,2.222
5.0,-6.0,2.223
13.0,-7.0,2.224
11.0,-7.0,2.225
2.0,-1.0,2.226
-4.0,3.0,2.227
-2.0,0.0,2.228
1.0,-2.0,2.229
-1.0,-1.0,2.23
-3.0,2.0,2.231
-1.0,0.0,2.232
1.0,-3.0,2.233
0.0,0.0,2.234
-1.0,5.0,2.235
1.0,6.0,2.236
7.0,4.0,2.237
12.0,3.0,2.238
13.0,2.0,2.239
7.0,-3.0,2.24
1.0,-9.0,2.241
2.0,-8.0,2.242
11.0,-5.0,2.243
18.0,-3.0,2.244
14.0,-2.0,2.245
3.0,-1.0,2.246
-2.0,0.0,2.247
-1.0,-2.0,2.248
-1.0,-6.0,2.249
-3.0,-3.0,2.25
-4.0,0.0,2.251
-2.0,2.0,2.252
0.0,4.0,2.253
0.0,5.0,2.254
0.0,3.0,2.255
0.0,0.0,2.256
3.0,1.0,2.257
5.0,4.0,2.258
4.0,3.0,2.259
-1.0,-3.0,2.26
-7.0,-11.0,2.261
-6.0,-11.0,2.262
0.0,-6.0,2.263
9.0,-4.0,2.264
10.0,-3.0,2.265
5.0,0.0,2.266
0.0,0.0,2.267
0.0,-3.0,2.268
-2.0,-4.0,2.269
-5.0,1.0,2.27
-5.0,7.0,2.271
-3.0,7.0,2.272
-1.0,4.0,2.273
-2.0,5.0,2.274
-1.0,7.0,2.275
2.0,5.0,2.276
8.0,2.0,2.277
10.0,0.0,2.278
8.0,-2.0,2.279
3.0,-7.0,2.28
3.0,-14.0,2.281
6.0,-14.0,2.282
12.0,-9.0,2.283
14.0,-5.0,2.284
11.0,-3.0,2.285
4.0,-2.0,2.286
1.0,-4.0,2.287
0.0,-6.0,2.288
-1.0,-4.0,2.289
-4.0,2.0,2.29
-4.0,7.0,2.291
0.0,8.0,2.292
2.0,7.0,2.293
-2.0,4.0,2.294
-3.0,2.0,2.295
1.0,0.0,2.296
8.0,0.0,2.297
5.0,2.0,2.298
1.0,1.0,2.299
2.0,-4.0,2.3
4.0,-11.0,2.301
5.0,-11.0,2.302
8.0,-7.0,2.303
14.0,-1.0,2.304
14.0,1.0,2.305
4.0,2.0,2.306
-4.0,-1.0,2.307
-2.0,-4.0,2.308
1.0,-2.0,2.309
-4.0,3.0,2.31
-10.0,7.0,2.311
-9.0,7.0,2.312
1.0,6.0,2.313
5.0,6.0,2.314
1.0,5.0,2.315
-2.0,3.0,2.316
1.0,3.0,2.317
4.0,1.0,2.318
8.0,1.0,2.319
9.0,0.0,2.32
8.0,-6.0,2.321
7.0,-7.0,2.322
11.0,-6.0,2.323
15.0,-4.0,2.324
14.0,-1.0,2.325
2.0,1.0,2.326
-6.0,0.0,2.327
-6.0,-4.0,2.328
-2.0,-3.0,2.329
-2.0,1.0,2.33
-5.0,4.0,2.331
-4.0,1.0,2.332
0.0,0.0,2.333
4.0,5.0,2.334
6.0,7.0,2.335
6.0,2.0,2.336
6.0,-2.0,2.337
6.0,-3.0,2.338
5.0,-1.0,2.339
4.0,-3.0,2.34
2.0,-9.0,2.341
4.0,-9.0,2.342
10.0,-7.0,2.343
14.0,-5.0,2.344
11.0,-3.0,2.345
4.0,0.0,2.346
1.0,2.0,2.347
1.0,-1.0,2.348
0.0,-1.0,2.349
-3.0,2.0,2.35
-4.0,5.0,2.351
-2.0,3.0,2.352
-3.0,2.0,2.353
-1.0,2.0,2.354
2.0,2.0,2.355
7.0,1.0,2.356
8.0,1.0,2.357
5.0,1.0,2.358
7.0,0.0,2.359
7.0,-2.0,2.36
1.0,-6.0,2.361
-3.0,-8.0,2.362
0.0,-10.0,2.363
8.0,-9.0,2.364
8.0,-4.0,2.365
1.0,0.0,2.366
-4.0,-1.0,2.367
-4.0,-7.0,2.368
-2.0,-6.0,2.369
-3.0,-1.0,2.37
-4.0,3.0,2.371
-4.0,4.0,2.372
-1.0,3.0,2.373
1.0,4.0,2.374
3.0,4.0,2.375
3.0,3.0,2.376
3.0,3.0,2.377
3.0,2.0,2.378
4.0,0.0,2.379
5.0,-1.0,2.38
5.0,-5.0,2.381
8.0,-6.0,2.382
11.0,-6.0,2.383
13.0,-4.0,2.384
11.0,1.0,2.385
5.0,5.0,2.386
0.0,3.0,2.387
-2.0,-1.0,2.388
-2.0,0.0,2.389
-3.0,3.0,2.39
-6.0,6.0,2.391
-6.0,4.0,2.392
-3.0,3.0,2.393
0.0,4.0,2.394
1.0,4.0,2.395
2.0,3.0,2.396
5.0,3.0,2.397
8.0,1.0,2.398
7.0,0.0,2.399
5.0,-3.0,2.4
5.0,-7.0,2.401
5.0,-11.0,2.402
6.0,-13.0,2.403
5.0,-7.0,2.404
8.0,2.0,2.405
9.0,5.0,2.406
4.0,-2.0,2.407
-2.0,-7.0,2.408
-6.0,-6.0,2.409
-4.0,0.0,2.41
-4.0,0.0,2.411
-4.0,-2.0,2.412
-4.0,-1.0,2.413
-1.0,2.0,2.414
2.0,3.0,2.415
4.0,1.0,2.416
7.0,0.0,2.417
9.0,-1.0,2.418
9.0,-2.0,2.419
9.0,-2.0,2.42
3.0,-3.0,2.421
0.0,-3.0,2.422
7.0,-2.0,2.423
12.0,-2.0,2.424
8.0,1.0,2.425
3.0,3.0,2.426
1.0,1.0,2.427
0.0,-1.0,2.428
0.0,-1.0,2.429
0.0,2.0,2.43
-3.0,3.0,2.431
-6.0,2.0,2.432
-6.0,4.0,2.433
-4.0,4.0,2.434
-1.0,3.0,2.435
1.0,0.0,2.436
3.0,2.0,2.437
6.0,5.0,2.438
7.0,2.0,2.439
2.0,-3.0,2.44
-3.0,-7.0,2.441
-3.0,-5.0,2.442
4.0,-2.0,2.443
11.0,-2.0,2.444
9.0,-2.0,2.445
2.0,0.0,2.446
3.0,0.0,2.447
6.0,-3.0,2.448
4.0,-6.0,2.449
-2.0,-2.0,2.45
-7.0,3.0,2.451
-4.0,6.0,2.452
0.0,4.0,2.453
2.0,3.0,2.454
3.0,3.0,2.455
3.0,2.0,2.456
7.0,2.0,2.457
10.0,-1.0,2.458
11.0,-2.0,2.459
6.0,-3.0,2.46
0.0,-6.0,2.461
2.0,-9.0,2.462
12.0,-10.0,2.463
18.0,-10.0,2.464
12.0,-4.0,2.465
-1.0,0.0,2.466
-7.0,-1.0,2.467
-4.0,-2.0,2.468
-3.0,-2.0,2.469
-7.0,0.0,2.47
-14.0,2.0,2.471
-14.0,5.0,2.472
-9.0,5.0,2.473
-3.0,5.0,2.474
0.0,4.0,2.475
3.0,2.0,2.476
8.0,0.0,2.477
11.0,-1.0,2.478
11.0,-1.0,2.479
5.0,-2.0,2.48
1.0,-7.0,2.481
0.0,-8.0,2.482
4.0,-7.0,2.483
7.0,-3.0,2.484
9.0,-1.0,2.485
7.0,-2.0,2.486
0.0,-2.0,2.487
-4.0,-2.0,2.488
-3.0,-3.0,2.489
0.0,-1.0,2.49
2.0,0.0,2.491
2.0,3.0,2.492
3.0,5.0,2.493
4.0,5.0,2.494
4.0,4.0,2.495
3.0,3.0,2.496
4.0,6.0,2.497
6.0,6.0,2.498
10.0,5.0,2.499
7.0,2.0,2.5
4.0,-3.0,2.501
4.0,-7.0,2.502
10.0,-11.0,2.503
14.0,-12.0,2.504
10.0,-8.0,2.505
3.0,-3.0,2.506
-1.0,0.0,2.507
-2.0,-1.0,2.508
-4.0,-3.0,2.509
-8.0,-1.0,2.51
-9.0,2.0,2.511
-4.0,2.0,2.512
0.0,2.0,2.513
0.0,4.0,2.514
-1.0,7.0,2.515
1.0,6.0,2.516
7.0,4.0,2.517
8.0,1.0,2.518
3.0,0.0,2.519
-2.0,-2.0,2.52
-3.0,-5.0,2.521
-1.0,-6.0,2.522
4.0,-3.0,2.523
9.0,1.0,2.524
8.0,0.0,2.525
2.0,-1.0,2.526
-2.0,-2.0,2.527
-3.0,-5.0,2.528
-2.0,-4.0,2.529
-5.0,-1.0,2.53
-7.0,0.0,2.531
-3.0,3.0,2.532
1.0,4.0,2.533
4.0,7.0,2.534
2.0,6.0,2.535
2.0,3.0,2.536
8.0,5.0,2.537
13.0,5.0,2.538
13.0,3.0,2.539
8.0,0.0,2.54
4.0,-4.0,2.541
3.0,-8.0,2.542
7.0,-6.0,2.543
9.0,-5.0,2.544
7.0,-3.0,2.545
3.0,-2.0,2.546
2.0,-2.0,2.547
1.0,-1.0,2.548
-2.0,-1.0,2.549
-6.0,-2.0,2.55
-7.0,0.0,2.551
-4.0,1.0,2.552
0.0,3.0,2.553
0.0,5.0,2.554
3.0,3.0,2.555
6.0,1.0,2.556
8.0,1.0,2.557
6.0,2.0,2.558
3.0,4.0,2.559
0.0,3.0,2.56
-1.0,-3.0,2.561
0.0,-6.0,2.562
6.0,-6.0,2.563
13.0,-4.0,2.564
10.0,-1.0,2.565
0.0,-1.0,2.566
-3.0,-2.0,2.567
-1.0,-3.0,2.568
-1.0,-3.0,2.569
-3.0,-2.0,2.57
-3.0,-2.0,2.571
1.0,-2.0,2.572
4.0,0.0,2.573
1.0,0.0,2.574
-2.0,-1.0,2.575
0.0,0.0,2.576
6.0,4.0,2.577
11.0,4.0,2.578
13.0,-3.0,2.579
9.0,-9.0,2.58
2.0,-12.0,2.581
-1.0,-8.0,2.582
4.0,-6.0,2.583
11.0,-6.0,2.584
11.0,-2.0,2.585
5.0,2.0,2.586
-1.0,2.0,2.587
-3.0,-1.0,2.588
-5.0,-1.0,2.589
-7.0,3.0,2.59
-8.0,6.0,2.591
-5.0,5.0,2.592
-1.0,5.0,2.593
-1.0,8.0,2.594
-2.0,9.0,2.595
0.0,5.0,2.596
5.0,4.0,2.597
5.0,3.0,2.598
3.0,3.0,2.599
-1.0,1.0,2.6
0.0,-3.0,2.601
4.0,-5.0,2.602
8.0,-8.0,2.603
9.0,-9.0,2.604
5.0,-3.0,2.605
1.0,3.0,2.606
-1.0,3.0,2.607
0.0,0.0,2.608
2.0,0.0,2.609
4.0,4.0,2.61
4.0,5.0,2.611
4.0,3.0,2.612
2.0,3.0,2.613
3.0,4.0,2.614
10.0,5.0,2.615
17.0,2.0,2.616
19.0,0.0,2.617
16.0,-4.0,2.618
10.0,-9.0,2.619
5.0,-14.0,2.62
0.0,-18.0,2.621
-3.0,-15.0,2.622
3.0,-10.0,2.623
8.0,-8.0,2.624
3.0,-9.0,2.625
-1.0,-10.0,2.626
0.0,-7.0,2.627
0.0,-2.0,2.628
-1.0,3.0,2.629
-2.0,4.0,2.63
0.0,0.0,2.631
0.0,-3.0,2.632
-1.0,-2.0,2.633
-4.0,2.0,2.634
-4.0,4.0,2.635
-1.0,2.0,2.636
4.0,3.0,2.637
8.0,5.0,2.638
9.0,5.0,2.639
4.0,-1.0,2.64
-2.0,-10.0,2.641
-2.0,-10.0,2.642
6.0,-5.0,2.643
15.0,-1.0,2.644
13.0,1.0,2.645
3.0,4.0,2.646
0.0,5.0,2.647
5.0,2.0,2.648
5.0,-1.0,2.649
-1.0,0.0,2.65
-7.0,2.0,2.651
-5.0,3.0,2.652
-2.0,4.0,2.653
-3.0,4.0,2.654
0.0,3.0,2.655
8.0,1.0,2.656
14.0,1.0,2.657
13.0,1.0,2.658
9.0,1.0,2.659
6.0,-1.0,2.66
2.0,-6.0,2.661
1.0,-6.0,2.662
5.0,-5.0,2.663
11.0,-3.0,2.664
8.0,1.0,2.665
-1.0,6.0,2.666
-5.0,4.0,2.667
-5.0,-1.0,2.668
-7.0,-3.0,2.669
-10.0,3.0,2.67
-8.0,7.0,2.671
0.0,5.0,2.672
7.0,1.0,2.673
7.0,2.0,2.674
5.0,7.0,2.675
9.0,9.0,2.676
16.0,8.0,2.677
14.0,4.0,2.678
7.0,-1.0,2.679
-1.0,-7.0,2.68
-4.0,-13.0,2.681
-2.0,-13.0,2.682
4.0,-9.0,2.683
8.0,-4.0,2.684
5.0,-3.0,2.685
-2.0,-2.0,2.686
-4.0,-3.0,2.687
-3.0,-4.0,2.688
-4.0,-3.0,2.689
-11.0,-4.0,2.69
-14.0,-3.0,2.691
-10.0,0.0,2.692
-6.0,4.0,2.693
-6.0,6.0,2.694
-5.0,5.0,2.695
2.0,3.0,2.696
11.0,4.0,2.697
12.0,2.0,2.698
10.0,0.0,2.699
7.0,-1.0,2.7
4.0,-5.0,2.701
3.0,-8.0,2.702
10.0,-7.0,2.703
15.0,-5.0,2.704
13.0,-1.0,2.705
10.0,3.0,2.706
4.0,1.0,2.707
0.0,0.0,2.708
0.0,2.0,2.709
-1.0,4.0,2.71
-1.0,1.0,2.711
-1.0,0.0,2.712
3.0,1.0,2.713
7.0,4.0,2.714
8.0,5.0,2.715
9.0,6.0,2.716
10.0,4.0,2.717
10.0,3.0,2.718
7.0,0.0,2.719
0.0,-3.0,2.72
-5.0,-10.0,2.721
-7.0,-11.0,2.722
-4.0,-9.0,2.723
4.0,-5.0,2.724
7.0,2.0,2.725
5.0,7.0,2.726
0.0,7.0,2.727
-1.0,2.0,2.728
-2.0,-3.0,2.729
-3.0,-3.0,2.73
-5.0,0.0,2.731
-4.0,5.0,2.732
-2.0,7.0,2.733
0.0,7.0,2.734
4.0,3.0,2.735
9.0,-1.0,2.736
12.0,-1.0,2.737
11.0,0.0,2.738
9.0,2.0,2.739
7.0,0.0,2.74
5.0,-6.0,2.741
7.0,-7.0,2.742
11.0,-4.0,2.743
15.0,-3.0,2.744
12.0,-3.0,2.745
7.0,-2.0,2.746
3.0,-4.0,2.747
1.0,-5.0,2.748
-1.0,-4.0,2.749
-7.0,-1.0,2.75
-8.0,1.0,2.751
-4.0,3.0,2.752
4.0,2.0,2.753
10.0,2.0,2.754
11.0,2.0,2.755
9.0,4.0,2.756
9.0,6.0,2.757
7.0,0.0,2.758
4.0,-7.0,2.759
-3.0,-12.0,2.76
-10.0,-14.0,2.761
-13.0,-12.0,2.762
-7.0,-11.0,2.763
1.0,-7.0,2.764
2.0,1.0,2.765
-3.0,8.0,2.766
-5.0,3.0,2.767
-3.0,-6.0,2.768
-2.0,-6.0,2.769
-6.0,1.0,2.77
-8.0,5.0,2.771
-5.0,1.0,2.772
0.0,-2.0,2.773
4.0,1.0,2.774
7.0,4.0,2.775
11.0,3.0,2.776
14.0,5.0,2.777
13.0,5.0,2.778
11.0,3.0,2.779
8.0,1.0,2.78
5.0,-1.0,2.781
3.0,-4.0,2.782
5.0,-6.0,2.783
7.0,-7.0,2.784
5.0,-3.0,2.785
3.0,0.0,2.786
0.0,0.0,2.787
-2.0,0.0,2.788
-2.0,2.0,2.789
-3.0,4.0,2.79
-7.0,4.0,2.791
-10.0,3.0,2.792
-5.0,4.0,2.793
0.0,5.0,2.794
6.0,4.0,2.795
11.0,3.0,2.796
13.0,1.0,2.797
14.0,0.0,2.798
10.0,0.0,2.799
0.0,-3.0,2.8
-4.0,-9.0,2.801
1.0,-8.0,2.802
9.0,-6.0,2.803
14.0,-6.0,2.804
10.0,-5.0,2.805
2.0,0.0,2.806
-1.0,3.0,2.807
0.0,1.0,2.808
-2.0,-3.0,2.809
-7.0,-3.0,2.81
-8.0,4.0,2.811
-5.0,10.0,2.812
-2.0,11.0,2.813
-1.0,8.0,2.814
1.0,3.0,2.815
3.0,1.0,2.816
1.0,3.0,2.817
-3.0,2.0,2.818
-2.0,-1.0,2.819
-1.0,-5.0,2.82
-2.0,-9.0,2.821
-1.0,-8.0,2.822
12.0,-6.0,2.823
29.0,-6.0,2.824
32.0,-4.0,2.825
21.0,-3.0,2.826
14.0,-2.0,2.827
16.0,-2.0,2.828
14.0,-4.0,2.829
0.0,-3.0,2.83
-16.0,1.0,2.831
-18.0,5.0,2.832
-10.0,5.0,2.833
-4.0,3.0,2.834
-4.0,-1.0,2.835
-2.0,-2.0,2.836
8.0,1.0,2.837
19.0,3.0,2.838
22.0,6.0,2.839
15.0,6.0,2.84
9.0,2.0,2.841
7.0,-3.0,2.842
7.0,-7.0,2.843
2.0,-9.0,2.844
-5.0,-7.0,2.845
-11.0,-4.0,2.846
-12.0,-2.0,2.847
-11.0,1.0,2.848
-9.0,3.0,2.849
-7.0,3.0,2.85
-7.0,0.0,2.851
-4.0,1.0,2.852
0.0,5.0,2.853
1.0,7.0,2.854
-2.0,1.0,2.855
-4.0,-3.0,2.856
5.0,0.0,2.857
14.0,0.0,2.858
9.0,-1.0,2.859
4.0,-3.0,2.86
2.0,-3.0,2.861
1.0,-4.0,2.862
7.0,-4.0,2.863
12.0,-3.0,2.864
9.0,2.0,2.865
6.0,6.0,2.866
4.0,1.0,2.867
1.0,-3.0,2.868
0.0,-3.0,2.869
-2.0,-3.0,2.87
-2.0,-3.0,2.871
0.0,-2.0,2.872
1.0,0.0,2.873
3.0,2.0,2.874
2.0,4.0,2.875
1.0,7.0,2.876
3.0,11.0,2.877
7.0,12.0,2.878
6.0,3.0,2.879
3.0,-4.0,2.88
6.0,-9.0,2.881
10.0,-9.0,2.882
11.0,-9.0,2.883
8.0,-5.0,2.884
4.0,-1.0,2.885
0.0,-1.0,2.886
-4.0,-1.0,2.887
-3.0,0.0,2.888
-2.0,1.0,2.889
-4.0,2.0,2.89
-10.0,1.0,2.891
-11.0,0.0,2.892
-5.0,3.0,2.893
1.0,3.0,2.894
6.0,0.0,2.895
8.0,-2.0,2.896
10.0,-1.0,2.897
8.0,2.0,2.898
5.0,3.0,2.899
3.0,0.0,2.9
2.0,-7.0,2.901
2.0,-10.0,2.902
5.0,-10.0,2.903
9.0,-7.0,2.904
8.0,-5.0,2.905
5.0,-5.0,2.906
3.0,-5.0,2.907
2.0,-5.0,2.908
0.0,-1.0,2.909
-3.0,8.0,2.91
-5.0,12.0,2.911
-2.0,9.0,2.912
0.0,3.0,2.913
0.0,2.0,2.914
2.0,3.0,2.915
8.0,2.0,2.916
12.0,2.0,2.917
15.0,2.0,2.918
14.0,2.0,2.919
9.0,-4.0,2.92
2.0,-12.0,2.921
-2.0,-12.0,2.922
0.0,-8.0,2.923
4.0,-5.0,2.924
4.0,-5.0,2.925
-2.0,-5.0,2.926
-3.0,-1.0,2.927
2.0,0.0,2.928
6.0,2.0,2.929
1.0,2.0,2.93
-4.0,0.0,2.931
-4.0,-1.0,2.932
-1.0,-1.0,2.933
1.0,4.0,2.934
1.0,8.0,2.935
2.0,9.0,2.936
7.0,9.0,2.937
11.0,5.0,2.938
12.0,-1.0,2.939
9.0,-8.0,2.94
7.0,-15.0,2.941
5.0,-11.0,2.942
6.0,-6.0,2.943
7.0,-3.0,2.944
5.0,0.0,2.945
-2.0,3.0,2.946
-6.0,3.0,2.947
-5.0,1.0,2.948
-2.0,2.0,2.949
-2.0,3.0,2.95
-4.0,2.0,2.951
-3.0,-1.0,2.952
1.0,-3.0,2.953
3.0,-3.0,2.954
2.0,-2.0,2.955
5.0,-1.0,2.956
8.0,3.0,2.957
7.0,4.0,2.958
5.0,3.0,2.959
1.0,0.0,2.96
-2.0,-5.0,2.961
-3.0,-7.0,2.962
0.0,-8.0,2.963
9.0,-8.0,2.964
10.0,-7.0,2.965
4.0,-3.0,2.966
0.0,-1.0,2.967
1.0,2.0,2.968
4.0,5.0,2.969
0.0,7.0,2.97
-7.0,6.0,2.971
-6.0,2.0,2.972
0.0,2.0,2.973
7.0,2.0,2.974
10.0,1.0,2.975
9.0,1.0,2.976
7.0,4.0,2.977
2.0,5.0,2.978
5.0,2.0,2.979
10.0,-1.0,2.98
8.0,-6.0,2.981
1.0,-8.0,2.982
2.0,-7.0,2.983
11.0,-4.0,2.984
13.0,-1.0,2.985
2.0,-1.0,2.986
-5.0,-3.0,2.987
-4.0,0.0,2.988
-2.0,4.0,2.989
-6.0,5.0,2.99
-10.0,3.0,2.991
-3.0,3.0,2.992
6.0,7.0,2.993
8.0,6.0,2.994
5.0,-1.0,2.995
6.0,-4.0,2.996
13.0,-1.0,2.997
19.0,0.0,2.998
18.0,-2.0,2.999
8.0,-6.0,3.0
-4.0,-7.0,3.001
-9.0,-6.0,3.002
-8.0,-3.0,3.003
-6.0,1.0,3.004
-8.0,4.0,3.005
-13.0,-1.0,3.006
-11.0,-10.0,3.007
-5.0,-13.0,3.008
-2.0,-6.0,3.009
0.0,0.0,3.01
2.0,-1.0,3.011
10.0,-2.0,3.012
16.0,1.0,3.013
12.0,5.0,3.014
6.0,4.0,3.015
5.0,4.0,3.016
9.0,8.0,3.017
8.0,6.0,3.018
5.0,-1.0,3.019
3.0,-7.0,3.02
3.0,-8.0,3.021
-4.0,-1.0,3.022
-7.0,3.0,3.023
-1.0,2.0,3.024
10.0,2.0,3.025
15.0,4.0,3.026
14.0,3.0,3.027
13.0,-2.0,3.028
15.0,-4.0,3.029
14.0,1.0,3.03
12.0,5.0,3.031
14.0,2.0,3.032
12.0,-1.0,3.033
2.0,3.0,3.034
-3.0,9.0,3.035
7.0,2.0,3.036
20.0,-4.0,3.037
18.0,-5.0,3.038
5.0,1.0,3.039
-3.0,2.0,3.04
-3.0,-7.0,3.041
-5.0,-14.0,3.042
-8.0,-15.0,3.043
-6.0,-11.0,3.044
-6.0,-3.0,3.045
-11.0,4.0,3.046
-13.0,7.0,3.047
-9.0,1.0,3.048
-8.0,-3.0,3.049
-13.0,-1.0,3.05
-14.0,5.0,3.051
-8.0,7.0,3.052
1.0,4.0,3.053
1.0,4.0,3.054
-2.0,5.0,3.055
1.0,3.0,3.056
9.0,1.0,3.057
11.0,0.0,3.058
8.0,1.0,3.059
5.0,-1.0,3.06
1.0,-9.0,3.061
2.0,-14.0,3.062
10.0,-12.0,3.063
17.0,-7.0,3.064
14.0,0.0,3.065
2.0,5.0,3.066
-5.0,5.0,3.067
-5.0,5.0,3.068
-7.0,5.0,3.069
-12.0,6.0,3.07
-11.0,4.0,3.071
-5.0,0.0,3.072
2.0,2.0,3.073
4.0,4.0,3.074
9.0,5.0,3.075
17.0,2.0,3.076
19.0,2.0,3.077
11.0,1.0,3.078
-1.0,0.0,3.079
-4.0,-2.0,3.08
0.0,-9.0,3.081
3.0,-10.0,3.082
5.0,-11.0,3.083
9.0,-8.0,3.084
13.0,-6.0,3.085
14.0,-6.0,3.086
11.0,-8.0,3.087
8.0,-9.0,3.088
3.0,-5.0,3.089
-3.0,3.0,3.09
-9.0,8.0,3.091
-8.0,7.0,3.092
-4.0,5.0,3.093
-2.0,5.0,3.094
0.0,6.0,3.095
-1.0,8.0,3.096
2.0,10.0,3.097
4.0,8.0,3.098
8.0,2.0,3.099
8.0,-2.0,3.1
4.0,-6.0,3.101
1.0,-4.0,3.102
5.0,-4.0,3.103
14.0,-5.0,3.104
16.0,-6.0,3.105
11.0,-5.0,3.106
6.0,-2.0,3.107
2.0,0.0,3.108
-1.0,5.0,3.109
-5.0,10.0,3.11
-6.0,9.0,3.111
-2.0,2.0,3.112
1.0,-2.0,3.113
1.0,0.0,3.114
3.0,3.0,3.115
7.0,1.0,3.116
12.0,-4.0,3.117
12.0,-8.0,3.118
10.0,-6.0,3.119
5.0,-3.0,3.12
0.0,-6.0,3.121
1.0,-9.0,3.122
10.0,-9.0,3.123
17.0,-5.0,3.124
12.0,1.0,3.125
-2.0,6.0,3.126
-12.0,5.0,3.127
-10.0,0.0,3.128
-5.0,-2.0,3.129
-5.0,0.0,3.13
-10.0,0.0,3.131
-15.0,-2.0,3.132
-12.0,-2.0,3.133
-4.0,1.0,3.134
4.0,4.0,3.135
4.0,1.0,3.136
0.0,-1.0,3.137
-3.0,-3.0,3.138
2.0,-3.0,3.139
7.0,-3.0,3.14
5.0,-7.0,3.141
1.0,-9.0,3.142
2.0,-7.0,3.143
6.0,-5.0,3.144
7.0,-3.0,3.145
4.0,0.0,3.146
3.0,0.0,3.147
3.0,-3.0,3.148
2.0,-1.0,3.149
1.0,4.0,3.15
2.0,8.0,3.151
1.0,6.0,3.152
0.0,1.0,3.153
0.0,-1.0,3.154
3.0,-2.0,3.155
1.0,0.0,3.156
-1.0,3.0,3.157
-1.0,0.0,3.158
15.0,-5.0,3.159
30.0,-6.0,3.16
28.0,-4.0,3.161
18.0,0.0,3.162
15.0,-1.0,3.163
19.0,-4.0,3.164
15.0,-1.0,3.165
2.0,3.0,3.166
-2.0,1.0,3.167
6.0,-6.0,3.168
7.0,-7.0,3.169
-6.0,0.0,3.17
-17.0,4.0,3.171
-12.0,3.0,3.172
0.0,2.0,3.173
3.0,3.0,3.174
-6.0,3.0,3.175
-11.0,6.0,3.176
-4.0,11.0,3.177
2.0,9.0,3.178
0.0,2.0,3.179
-1.0,-3.0,3.18
-2.0,0.0,3.181
-3.0,2.0,3.182
-2.0,2.0,3.183
0.0,1.0,3.184
1.0,-4.0,3.185
4.0,-8.0,3.186
2.0,-6.0,3.187
1.0,-2.0,3.188
3.0,4.0,3.189
5.0,7.0,3.19
5.0,-2.0,3.191
4.0,-11.0,3.192
8.0,-10.0,3.193
11.0,-10.0,3.194
11.0,-14.0,3.195
12.0,-17.0,3.196
14.0,-13.0,3.197
17.0,-8.0,3.198
13.0,-4.0,3.199
3.0,0.0,3.2
-4.0,6.0,3.201
-6.0,14.0,3.202
-5.0,16.0,3.203
0.0,12.0,3.204
3.0,8.0,3.205
0.0,10.0,3.206
-9.0,11.0,3.207
-12.0,9.0,3.208
-9.0,3.0,3.209
-7.0,-6.0,3.21
-8.0,-16.0,3.211
-8.0,-33.0,3.212
-6.0,-57.0,3.213
-8.0,-70.0,3.214
-13.0,-50.0,3.215
-11.0,-7.0,3.216
0.0,34.0,3.217
13.0,54.0,3.218
16.0,59.0,3.219
15.0,61.0,3.22
19.0,54.0,3.221
26.0,42.0,3.222
31.0,27.0,3.223
29.0,16.0,3.224
22.0,8.0,3.225
12.0,1.0,3.226
2.0,0.0,3.227
-2.0,2.0,3.228
-4.0,-4.0,3.229
-4.0,-23.0,3.23
-3.0,-44.0,3.231
-4.0,-59.0,3.232
-9.0,-68.0,3.233
-13.0,-75.0,3.234
-7.0,-75.0,3.235
8.0,-67.0,3.236
21.0,-50.0,3.237
22.0,-75.0,3.238
19.0,-100.0,3.239
17.0,-115.0,3.24
18.0,-103.0,3.241
18.0,-94.0,3.242
21.0,-93.0,3.243
28.0,-92.0,3.244
27.0,-94.0,3.245
15.0,-90.0,3.246
5.0,-68.0,3.247
5.0,-45.0,3.248
3.0,-27.0,3.249
-9.0,0.0,3.25
-20.0,46.0,3.251
-21.0,85.0,3.252
-25.0,96.0,3.253
-39.0,103.0,3.254
-51.0,93.0,3.255
-45.0,76.0,3.256
-33.0,46.0,3.257
-31.0,-65.0,3.258
-40.0,-85.0,3.259
-47.0,-97.0,3.26
-43.0,-87.0,3.261
-35.0,-80.0,3.262
-16.0,-79.0,3.263
1.0,-78.0,3.264
10.0,-80.0,3.265
18.0,-77.0,3.266
20.0,-59.0,3.267
23.0,-41.0,3.268
24.0,-26.0,3.269
27.0,-4.0,3.27
34.0,33.0,3.271
43.0,64.0,3.272
57.0,73.0,3.273
66.0,78.0,3.274
60.0,70.0,3.275
50.0,57.0,3.276
28.0,33.0,3.277
5.0,8.0,3.278
-13.0,-20.0,3.279
-23.0,-61.0,3.28
-29.0,-109.0,3.281
-30.0,-130.0,3.282
-28.0,-122.0,3.283
-34.0,-97.0,3.284
-51.0,-61.0,3.285
-55.0,-18.0,3.286
-24.0,15.0,3.287
25.0,21.0,3.288
59.0,7.0,3.289
70.0,6.0,3.29
82.0,30.0,3.291
104.0,65.0,3.292
111.0,96.0,3.293
91.0,122.0,3.294
58.0,144.0,3.295
24.0,158.0,3.296
-15.0,173.0,3.297
-64.0,181.0,3.298
-75.0,165.0,3.299
-48.0,122.0,3.3
-26.0,60.0,3.301
-39.0,-55.0,3.302
-66.0,-299.0,3.303
-72.0,-634.0,3.304
-59.0,-856.0,3.305
-46.0,-763.0,3.306
-27.0,-386.0,3.307
12.0,37.0,3.308
56.0,318.0,3.309
82.0,439.0,3.31
94.0,469.0,3.311
103.0,448.0,3.312
100.0,406.0,3.313
69.0,381.0,3.314
29.0,380.0,3.315
8.0,360.0,3.316
-1.0,310.0,3.317
-33.0,244.0,3.318
-89.0,172.0,3.319
-131.0,75.0,3.32
-132.0,-50.0,3.321
-112.0,-153.0,3.322
-98.0,-221.0,3.323
-94.0,-290.0,3.324
-92.0,-376.0,3.325
-85.0,-461.0,3.326
-67.0,-524.0,3.327
-43.0,-557.0,3.328
-17.0,-524.0,3.329
11.0,-399.0,3.33
47.0,-211.0,3.331
83.0,-34.0,3.332
104.0,75.0,3.333
111.0,106.0,3.334
120.0,107.0,3.335
131.0,166.0,3.336
129.0,311.0,3.337
95.0,461.0,3.338
49.0,519.0,3.339
6.0,552.0,3.34
-27.0,506.0,3.341
-42.0,437.0,3.342
-2.0,298.0,3.343
27.0,158.0,3.344
25.0,18.0,3.345
17.0,-110.0,3.346
-5.0,-204.0,3.347
-39.0,-257.0,3.348
-107.0,-182.0,3.349
-151.0,-148.0,3.35
-121.0,-236.0,3.351
-84.0,-316.0,3.352
-25.0,-369.0,3.353
26.0,-386.0,3.354
50.0,-292.0,3.355
76.0,-209.0,3.356
112.0,-155.0,3.357
138.0,-85.0,3.358
132.0,23.0,3.359
128.0,92.0,3.36
122.0,186.0,3.361
87.0,337.0,3.362
36.0,409.0,3.363
8.0,306.0,3.364
12.0,173.0,3.365
31.0,181.0,3.366
35.0,249.0,3.367
10.0,184.0,3.368
-43.0,20.0,3.369
-94.0,-89.0,3.37
-109.0,-179.0,3.371
-98.0,-393.0,3.372
-103.0,-621.0,3.373
-131.0,-588.0,3.374
-124.0,-303.0,3.375
-47.0,-81.0,3.376
41.0,-45.0,3.377
65.0,17.0,3.378
33.0,252.0,3.379
27.0,475.0,3.38
48.0,486.0,3.381
36.0,415.0,3.382
0.0,441.0,3.383
16.0,483.0,3.384
92.0,398.0,3.385
137.0,260.0,3.386
108.0,220.0,3.387
63.0,227.0,3.388
43.0,142.0,3.389
-7.0,-7.0,3.39
-132.0,-121.0,3.391
-262.0,-232.0,3.392
-289.0,-429.0,3.393
-205.0,-667.0,3.394
-93.0,-833.0,3.395
-11.0,-920.0,3.396
47.0,-1010.0,3.397
107.0,-1155.0,3.398
137.0,-1257.0,3.399
75.0,-1141.0,3.4
-52.0,-712.0,3.401
-126.0,-100.0,3.402
-62.0,402.0,3.403
67.0,637.0,3.404
132.0,739.0,3.405
120.0,871.0,3.406
125.0,988.0,3.407
178.0,1004.0,3.408
218.0,1004.0,3.409
215.0,1083.0,3.41
202.0,1133.0,3.411
175.0,962.0,3.412
81.0,523.0,3.413
-59.0,-72.0,3.414
-162.0,-665.0,3.415
-204.0,-1055.0,3.416
-254.0,-1092.0,3.417
-319.0,-793.0,3.418
-321.0,-375.0,3.419
-302.0,-22.0,3.42
-215.0,136.0,3.421
-141.0,242.0,3.422
-107.0,187.0,3.423
-64.0,179.0,3.424
9.0,316.0,3.425
82.0,440.0,3.426
151.0,526.0,3.427
213.0,620.0,3.428
254.0,736.0,3.429
271.0,764.0,3.43
209.0,524.0,3.431
145.0,303.0,3.432
73.0,145.0,3.433
3.0,-15.0,3.434
-61.0,-187.0,3.435
-98.0,-319.0,3.436
-53.0,-331.0,3.437
7.0,-358.0,3.438
109.0,-477.0,3.439
140.0,-562.0,3.44
51.0,-496.0,3.441
-115.0,-407.0,3.442
-246.0,-455.0,3.443
-269.0,-566.0,3.444
-219.0,-586.0,3.445
-161.0,-545.0,3.446
-113.0,-552.0,3.447
-61.0,-576.0,3.448
-11.0,-519.0,3.449
23.0,-392.0,3.45
51.0,-277.0,3.451
77.0,-180.0,3.452
103.0,-63.0,3.453
137.0,48.0,3.454
193.0,102.0,3.455
250.0,120.0,3.456
251.0,156.0,3.457
177.0,210.0,3.458
125.0,236.0,3.459
137.0,230.0,3.46
164.0,228.0,3.461
132.0,239.0,3.462
48.0,208.0,3.463
-24.0,114.0,3.464
-48.0,32.0,3.465
-49.0,55.0,3.466
-59.0,166.0,3.467
-88.0,206.0,3.468
-111.0,29.0,3.469
-101.0,-318.0,3.47
-66.0,-613.0,3.471
-42.0,-678.0,3.472
-50.0,-524.0,3.473
-71.0,-248.0,3.474
-72.0,93.0,3.475
-45.0,458.0,3.476
-4.0,730.0,3.477
41.0,837.0,3.478
83.0,792.0,3.479
118.0,691.0,3.48
154.0,580.0,3.481
197.0,439.0,3.482
235.0,270.0,3.483
232.0,144.0,3.484
157.0,115.0,3.485
14.0,166.0,3.486
-168.0,245.0,3.487
-354.0,304.0,3.488
-492.0,293.0,3.489
-520.0,187.0,3.49
-424.0,24.0,3.491
-282.0,-122.0,3.492
-181.0,-224.0,3.493
-124.0,-305.0,3.494
-63.0,-372.0,3.495
4.0,-401.0,3.496
37.0,-402.0,3.497
50.0,-439.0,3.498
94.0,-529.0,3.499
134.0,-598.0,3.5
164.0,-596.0,3.501
192.0,-562.0,3.502
208.0,-431.0,3.503
215.0,-289.0,3.504
196.0,-115.0,3.505
174.0,49.0,3.506
144.0,185.0,3.507
113.0,297.0,3.508
75.0,334.0,3.509
50.0,354.0,3.51
64.0,321.0,3.511
70.0,290.0,3.512
44.0,267.0,3.513
13.0,242.0,3.514
-36.0,215.0,3.515
-75.0,182.0,3.516
-84.0,130.0,3.517
-95.0,71.0,3.518
-89.0,-10.0,3.519
-41.0,-98.0,3.52
-1.0,-201.0,3.521
0.0,-340.0,3.522
-1.0,-507.0,3.523
17.0,-650.0,3.524
14.0,-721.0,3.525
-28.0,-690.0,3.526
-70.0,-514.0,3.527
-81.0,-169.0,3.528
-61.0,247.0,3.529
-25.0,552.0,3.53
28.0,669.0,3.531
76.0,683.0,3.532
100.0,683.0,3.533
110.0,647.0,3.534
120.0,545.0,3.535
116.0,437.0,3.536
77.0,388.0,3.537
-1.0,354.0,3.538
-78.0,279.0,3.539
-130.0,169.0,3.54
-145.0,56.0,3.541
-124.0,-77.0,3.542
-94.0,-257.0,3.543
-94.0,-439.0,3.544
-121.0,-533.0,3.545
-123.0,-486.0,3.546
-69.0,-339.0,3.547
4.0,-196.0,3.548
40.0,-155.0,3.549
32.0,-200.0,3.55
18.0,-223.0,3.551
18.0,-154.0,3.552
23.0,-47.0,3.553
14.0,19.0,3.554
-3.0,52.0,3.555
0.0,88.0,3.556
43.0,110.0,3.557
109.0,80.0,3.558
146.0,42.0,3.559
130.0,65.0,3.56
91.0,141.0,3.561
61.0,195.0,3.562
32.0,181.0,3.563
-23.0,140.0,3.564
-98.0,110.0,3.565
-156.0,73.0,3.566
-161.0,-6.0,3.567
-111.0,-100.0,3.568
-41.0,-159.0,3.569
3.0,-194.0,3.57
11.0,-280.0,3.571
15.0,-430.0,3.572
46.0,-548.0,3.573
93.0,-524.0,3.574
115.0,-354.0,3.575
98.0,-131.0,3.576
71.0,27.0,3.577
48.0,50.0,3.578
31.0,-47.0,3.579
18.0,-138.0,3.58
18.0,-210.0,3.581
24.0,-232.0,3.582
52.0,-103.0,3.583
82.0,64.0,3.584
119.0,348.0,3.585
145.0,593.0,3.586
131.0,722.0,3.587
102.0,819.0,3.588
26.0,819.0,3.589
-51.0,799.0,3.59
-128.0,714.0,3.591
-182.0,613.0,3.592
-163.0,467.0,3.593
-130.0,306.0,3.594
-54.0,101.0,3.595
1.0,-79.0,3.596
-8.0,-186.0,3.597
-35.0,-279.0,3.598
-115.0,-386.0,3.599
-163.0,-684.0,3.6
-163.0,-1153.0,3.601
-136.0,-1530.0,3.602
-111.0,-1458.0,3.603
-91.0,-877.0,3.604
-72.0,-207.0,3.605
-39.0,71.0,3.606
27.0,-2.0,3.607
137.0,23.0,3.608
247.0,332.0,3.609
296.0,654.0,3.61
269.0,795.0,3.611
216.0,882.0,3.612
167.0,992.0,3.613
78.0,961.0,3.614
-54.0,724.0,3.615
-124.0,470.0,3.616
-53.0,323.0,3.617
77.0,168.0,3.618
82.0,-22.0,3.619
-90.0,-134.0,3.62
-279.0,-163.0,3.621
-335.0,-267.0,3.622
-278.0,-522.0,3.623
-201.0,-867.0,3.624
-121.0,-1306.0,3.625
-26.0,-1809.0,3.626
56.0,-2057.0,3.627
90.0,-1665.0,3.628
104.0,-717.0,3.629
123.0,244.0,3.63
143.0,840.0,3.631
158.0,1151.0,3.632
186.0,1360.0,3.633
218.0,1432.0,3.634
219.0,1307.0,3.635
185.0,1118.0,3.636
148.0,1025.0,3.637
103.0,980.0,3.638
17.0,855.0,3.639
-116.0,628.0,3.64
-244.0,375.0,3.641
-314.0,141.0,3.642
-318.0,-74.0,3.643
-280.0,-248.0,3.644
-215.0,-369.0,3.645
-125.0,-484.0,3.646
-32.0,-619.0,3.647
24.0,-721.0,3.648
18.0,-751.0,3.649
-22.0,-741.0,3.65
-47.0,-696.0,3.651
-43.0,-573.0,3.652
-26.0,-397.0,3.653
19.0,-293.0,3.654
110.0,-306.0,3.655
195.0,-322.0,3.656
209.0,-252.0,3.657
182.0,-157.0,3.658
202.0,-118.0,3.659
222.0,-77.0,3.66
242.0,-34.0,3.661
240.0,-1.0,3.662
172.0,0.0,3.663
105.0,-1.0,3.664
41.0,-13.0,3.665
-12.0,-95.0,3.666
-30.0,-389.0,3.667
-45.0,-610.0,3.668
-44.0,-610.0,3.669
-51.0,-491.0,3.67
-86.0,-18.0,3.671
-122.0,309.0,3.672
-160.0,195.0,3.673
-170.0,144.0,3.674
-91.0,280.0,3.675
-28.0,444.0,3.676
-16.0,689.0,3.677
-8.0,896.0,3.678
8.0,956.0,3.679
54.0,976.0,3.68
68.0,934.0,3.681
44.0,827.0,3.682
29.0,686.0,3.683
25.0,540.0,3.684
-8.0,401.0,3.685
-58.0,292.0,3.686
-81.0,209.0,3.687
-68.0,115.0,3.688
-47.0,-8.0,3.689
-21.0,-144.0,3.69
-5.0,-256.0,3.691
-50.0,-320.0,3.692
-156.0,-333.0,3.693
-222.0,-332.0,3.694
-186.0,-393.0,3.695
-113.0,-550.0,3.696
-77.0,-727.0,3.697
-43.0,-830.0,3.698
32.0,-801.0,3.699
83.0,-685.0,3.7
43.0,-595.0,3.701
-14.0,-620.0,3.702
27.0,-752.0,3.703
135.0,-840.0,3.704
194.0,-696.0,3.705
200.0,-294.0,3.706
230.0,192.0,3.707
291.0,579.0,3.708
311.0,814.0,3.709
259.0,931.0,3.71
161.0,953.0,3.711
44.0,893.0,3.712
-60.0,782.0,3.713
-98.0,642.0,3.714
-68.0,475.0,3.715
-49.0,307.0,3.716
-81.0,185.0,3.717
-123.0,95.0,3.718
-138.0,21.0,3.719
-178.0,-43.0,3.72
-275.0,-106.0,3.721
-347.0,-192.0,3.722
-302.0,-318.0,3.723
-180.0,-425.0,3.724
-98.0,-440.0,3.725
-80.0,-393.0,3.726
-63.0,-372.0,3.727
-17.0,-386.0,3.728
23.0,-359.0,3.729
39.0,-267.0,3.73
62.0,-169.0,3.731
104.0,-100.0,3.732
143.0,-19.0,3.733
170.0,91.0,3.734
198.0,186.0,3.735
227.0,222.0,3.736
231.0,217.0,3.737
202.0,202.0,3.738
171.0,190.0,3.739
136.0,164.0,3.74
93.0,96.0,3.741
49.0,4.0,3.742
5.0,-161.0,3.743
-24.0,-292.0,3.744
-6.0,-320.0,3.745
7.0,-313.0,3.746
8.0,-202.0,3.747
3.0,-116.0,3.748
-22.0,-106.0,3.749
-36.0,-108.0,3.75
-10.0,-145.0,3.751
7.0,-130.0,3.752
1.0,39.0,3.753
-6.0,192.0,3.754
-15.0,293.0,3.755
-27.0,368.0,3.756
-44.0,365.0,3.757
-55.0,356.0,3.758
-32.0,324.0,3.759
-2.0,295.0,3.76
6.0,305.0,3.761
2.0,318.0,3.762
0.0,271.0,3.763
-32.0,211.0,3.764
-118.0,244.0,3.765
-202.0,326.0,3.766
-191.0,281.0,3.767
-95.0,58.0,3.768
-28.0,-192.0,3.769
-50.0,-352.0,3.77
-95.0,-492.0,3.771
-91.0,-668.0,3.772
-51.0,-752.0,3.773
-22.0,-612.0,3.774
8.0,-348.0,3.775
63.0,-173.0,3.776
104.0,-100.0,3.777
73.0,61.0,3.778
7.0,381.0,3.779
-23.0,677.0,3.78
-8.0,731.0,3.781
29.0,577.0,3.782
72.0,392.0,3.783
120.0,256.0,3.784
153.0,130.0,3.785
150.0,-2.0,3.786
114.0,-83.0,3.787
65.0,-89.0,3.788
9.0,-60.0,3.789
-55.0,-38.0,3.79
-125.0,-27.0,3.791
-174.0,-34.0,3.792
-180.0,-80.0,3.793
-133.0,-164.0,3.794
-47.0,-244.0,3.795
35.0,-272.0,3.796
78.0,-236.0,3.797
70.0,-178.0,3.798
33.0,-151.0,3.799
-22.0,-156.0,3.8
-77.0,-155.0,3.801
-100.0,-140.0,3.802
-66.0,-163.0,3.803
-3.0,-229.0,3.804
37.0,-271.0,3.805
46.0,-259.0,3.806
66.0,-238.0,3.807
113.0,-224.0,3.808
157.0,-159.0,3.809
173.0,-32.0,3.81
166.0,62.0,3.811
134.0,81.0,3.812
62.0,108.0,3.813
-31.0,214.0,3.814
-99.0,311.0,3.815
-114.0,285.0,3.816
-88.0,166.0,3.817
-33.0,56.0,3.818
40.0,-17.0,3.819
104.0,-141.0,3.82
138.0,-414.0,3.821
160.0,-645.0,3.822
142.0,-748.0,3.823
107.0,-704.0,3.824
19.0,-214.0,3.825
-56.0,214.0,3.826
-88.0,459.0,3.827
-110.0,645.0,3.828
-100.0,649.0,3.829
-85.0,605.0,3.83
-54.0,415.0,3.831
-26.0,275.0,3.832
-8.0,287.0,3.833
16.0,318.0,3.834
56.0,403.0,3.835
83.0,443.0,3.836
69.0,343.0,3.837
45.0,254.0,3.838
-13.0,203.0,3.839
-70.0,132.0,3.84
-118.0,40.0,3.841
-126.0,-40.0,3.842
-73.0,-124.0,3.843
-5.0,-213.0,3.844
0.0,-263.0,3.845
-84.0,-230.0,3.846
-206.0,-137.0,3.847
-286.0,-48.0,3.848
-266.0,-10.0,3.849
-148.0,-22.0,3.85
-6.0,-25.0,3.851
70.0,26.0,3.852
84.0,78.0,3.853
113.0,27.0,3.854
174.0,-114.0,3.855
190.0,-200.0,3.856
141.0,-151.0,3.857
83.0,-19.0,3.858
87.0,100.0,3.859
111.0,182.0,3.86
98.0,216.0,3.861
63.0,185.0,3.862
32.0,106.0,3.863
-27.0,42.0,3.864
-123.0,-6.0,3.865
-181.0,-104.0,3.866
-154.0,-242.0,3.867
-100.0,-319.0,3.868
-91.0,-304.0,3.869
-86.0,-287.0,3.87
-18.0,-337.0,3.871
72.0,-421.0,3.872
108.0,-505.0,3.873
98.0,-616.0,3.874
98.0,-727.0,3.875
97.0,-716.0,3.876
62.0,-517.0,3.877
18.0,-182.0,3.878
43.0,122.0,3.879
122.0,291.0,3.88
173.0,358.0,3.881
170.0,412.0,3.882
176.0,486.0,3.883
199.0,543.0,3.884
164.0,530.0,3.885
46.0,414.0,3.886
-50.0,208.0,3.887
-57.0,0.0,3.888
-59.0,-96.0,3.889
-168.0,-46.0,3.89
-333.0,59.0,3.891
-394.0,114.0,3.892
-311.0,114.0,3.893
-193.0,104.0,3.894
-125.0,82.0,3.895
-76.0,20.0,3.896
-15.0,-74.0,3.897
39.0,-247.0,3.898
66.0,-487.0,3.899
89.0,-611.0,3.9
97.0,-387.0,3.901
107.0,-111.0,3.902
125.0,318.0,3.903
146.0,625.0,3.904
174.0,563.0,3.905
182.0,510.0,3.906
128.0,483.0,3.907
74.0,384.0,3.908
17.0,72.0,3.909
-28.0,-164.0,3.91
-38.0,-168.0,3.911
-41.0,-118.0,3.912
-23.0,99.0,3.913
-11.0,266.0,3.914
-20.0,283.0,3.915
-33.0,233.0,3.916
-53.0,-17.0,3.917
-81.0,-331.0,3.918
-132.0,-879.0,3.919
-159.0,-1319.0,3.92
-129.0,-1364.0,3.921
-46.0,-1023.0,3.922
47.0,-583.0,3.923
93.0,-212.0,3.924
68.0,189.0,3.925
19.0,715.0,3.926
19.0,1244.0,3.927
65.0,1596.0,3.928
92.0,1715.0,3.929
84.0,1599.0,3.93
79.0,1217.0,3.931
83.0,631.0,3.932
49.0,74.0,3.933
-17.0,-214.0,3.934
-53.0,-209.0,3.935
-50.0,-76.0,3.936
-70.0,20.0,3.937
-136.0,49.0,3.938
-164.0,36.0,3.939
-111.0,-23.0,3.94
-49.0,-183.0,3.941
-54.0,-442.0,3.942
-99.0,-703.0,3.943
-119.0,-868.0,3.944
-115.0,-939.0,3.945
-107.0,-957.0,3.946
-84.0,-900.0,3.947
-36.0,-735.0,3.948
8.0,-532.0,3.949
29.0,-383.0,3.95
58.0,-264.0,3.951
113.0,-85.0,3.952
160.0,135.0,3.953
161.0,287.0,3.954
143.0,335.0,3.955
147.0,353.0,3.956
163.0,390.0,3.957
143.0,409.0,3.958
86.0,370.0,3.959
26.0,289.0,3.96
-6.0,205.0,3.961
-24.0,142.0,3.962
-38.0,102.0,3.963
-36.0,65.0,3.964
-13.0,0.0,3.965
12.0,-100.0,3.966
26.0,-176.0,3.967
35.0,-193.0,3.968
42.0,-217.0,3.969
34.0,-336.0,3.97
-3.0,-515.0,3.971
-47.0,-614.0,3.972
-62.0,-549.0,3.973
-37.0,-373.0,3.974
8.0,-182.0,3.975
43.0,-20.0,3.976
58.0,116.0,3.977
57.0,230.0,3.978
50.0,294.0,3.979
42.0,306.0,3.98
32.0,301.0,3.981
26.0,318.0,3.982
34.0,342.0,3.983
38.0,342.0,3.984
32.0,320.0,3.985
25.0,295.0,3.986
17.0,268.0,3.987
-1.0,223.0,3.988
-46.0,150.0,3.989
-89.0,56.0,3.99
-121.0,-79.0,3.991
-146.0,-303.0,3.992
-148.0,-622.0,3.993
-138.0,-913.0,3.994
-86.0,-958.0,3.995
-37.0,-664.0,3.996
0.0,-223.0,3.997
38.0,154.0,3.998
85.0,372.0,3.999
116.0,536.0,4.0
111.0,712.0,4.001
91.0,802.0,4.002
92.0,730.0,4.003
98.0,572.0,4.004
74.0,394.0,4.005
32.0,154.0,4.006
11.0,-130.0,4.007
10.0,-286.0,4.008
-10.0,-208.0,4.009
-52.0,-51.0,4.01
-90.0,-14.0,4.011
-109.0,-84.0,4.012
-117.0,-168.0,4.013
-106.0,-293.0,4.014
-58.0,-484.0,4.015
-2.0,-570.0,4.016
21.0,-424.0,4.017
5.0,-155.0,4.018
2.0,26.0,4.019
15.0,178.0,4.02
10.0,474.0,4.021
-5.0,809.0,4.022
10.0,887.0,4.023
48.0,696.0,4.024
49.0,470.0,4.025
4.0,263.0,4.026
-30.0,-37.0,4.027
-24.0,-341.0,4.028
-16.0,-409.0,4.029
-32.0,-256.0,4.03
-42.0,-130.0,4.031
-22.0,-106.0,4.032
0.0,-42.0,4.033
5.0,75.0,4.034
19.0,102.0,4.035
55.0,26.0,4.036
81.0,-14.0,4.037
61.0,1.0,4.038
10.0,-16.0,4.039
-35.0,-82.0,4.04
-58.0,-126.0,4.041
-63.0,-148.0,4.042
-44.0,-216.0,4.043
-2.0,-308.0,4.044
51.0,-377.0,4.045
91.0,-470.0,4.046
87.0,-616.0,4.047
18.0,-681.0,4.048
-97.0,-530.0,4.049
-171.0,-262.0,4.05
-127.0,-78.0,4.051
4.0,11.0,4.052
104.0,145.0,4.053
113.0,338.0,4.054
86.0,450.0,4.055
90.0,417.0,4.056
104.0,333.0,4.057
87.0,245.0,4.058
50.0,133.0,4.059
33.0,23.0,4.06
28.0,-77.0,4.061
7.0,-138.0,4.062
-13.0,-81.0,4.063
-4.0,-5.0,4.064
14.0,124.0,4.065
9.0,240.0,4.066
-9.0,308.0,4.067
-5.0,332.0,4.068
9.0,225.0,4.069
5.0,100.0,4.07
-6.0,-74.0,4.071
-10.0,-245.0,4.072
-18.0,-402.0,4.073
-49.0,-453.0,4.074
-80.0,-181.0,4.075
-72.0,33.0,4.076
-37.0,75.0,4.077
-6.0,62.0,4.078
15.0,-145.0,4.079
32.0,-365.0,4.08
44.0,-528.0,4.081
39.0,-505.0,4.082
31.0,-246.0,4.083
40.0,127.0,4.084
47.0,464.0,4.085
35.0,737.0,4.086
21.0,952.0,4.087
30.0,1020.0,4.088
48.0,882.0,4.089
55.0,636.0,4.09
57.0,435.0,4.091
53.0,316.0,4.092
5.0,232.0,4.093
-96.0,156.0,4.094
-195.0,70.0,4.095
-228.0,-72.0,4.096
-199.0,-277.0,4.097
-141.0,-512.0,4.098
-80.0,-676.0,4.099
-29.0,-726.0,4.1
10.0,-683.0,4.101
49.0,-573.0,4.102
90.0,-427.0,4.103
102.0,-298.0,4.104
63.0,-236.0,4.105
9.0,-222.0,4.106
-5.0,-192.0,4.107
10.0,-120.0,4.108
18.0,-81.0,4.109
36.0,-161.0,4.11
93.0,-305.0,4.111
146.0,-348.0,4.112
130.0,-203.0,4.113
52.0,46.0,4.114
-22.0,293.0,4.115
-59.0,521.0,4.116
-73.0,718.0,4.117
-70.0,816.0,4.118
-40.0,737.0,4.119
-13.0,546.0,4.12
-22.0,364.0,4.121
-54.0,214.0,4.122
-62.0,23.0,4.123
-38.0,-203.0,4.124
-14.0,-352.0,4.125
-1.0,-350.0,4.126
19.0,-250.0,4.127
42.0,-182.0,4.128
44.0,-215.0,4.129
19.0,-298.0,4.13
-5.0,-335.0,4.131
-19.0,-320.0,4.132
-35.0,-342.0,4.133
-54.0,-422.0,4.134
-47.0,-421.0,4.135
2.0,-200.0,4.136
66.0,158.0,4.137
106.0,443.0,4.138
120.0,534.0,4.139
129.0,571.0,4.14
123.0,444.0,4.141
105.0,307.0,4.142
51.0,141.0,4.143
7.0,-9.0,4.144
-6.0,-110.0,4.145
-10.0,-156.0,4.146
15.0,-32.0,4.147
32.0,85.0,4.148
24.0,180.0,4.149
-12.0,244.0,4.15
-132.0,210.0,4.151
-227.0,177.0,4.152
-247.0,147.0,4.153
-230.0,97.0,4.154
-101.0,-16.0,4.155
-9.0,-119.0,4.156
-30.0,-193.0,4.157
-48.0,-290.0,4.158
-17.0,-448.0,4.159
39.0,-504.0,4.16
66.0,-425.0,4.161
68.0,-302.0,4.162
83.0,-193.0,4.163
96.0,-53.0,4.164
78.0,151.0,4.165
57.0,358.0,4.166
77.0,475.0,4.167
120.0,439.0,4.168
126.0,254.0,4.169
90.0,-13.0,4.17
60.0,-288.0,4.171
55.0,-595.0,4.172
44.0,-995.0,4.173
6.0,-1345.0,4.174
-29.0,-1281.0,4.175
-29.0,-640.0,4.176
-1.0,181.0,4.177
34.0,748.0,4.178
51.0,879.0,4.179
68.0,800.0,4.18
98.0,739.0,4.181
140.0,678.0,4.182
176.0,575.0,4.183
179.0,512.0,4.184
119.0,523.0,4.185
0.0,519.0,4.186
-146.0,458.0,4.187
-276.0,395.0,4.188
-361.0,319.0,4.189
-387.0,138.0,4.19
-351.0,-139.0,4.191
-266.0,-402.0,4.192
-167.0,-610.0,4.193
-87.0,-788.0,4.194
-32.0,-856.0,4.195
23.0,-678.0,4.196
82.0,-343.0,4.197
124.0,-63.0,4.198
128.0,29.0,4.199
103.0,60.0,4.2
80.0,140.0,4.201
73.0,134.0,4.202
65.0,-167.0,4.203
47.0,-663.0,4.204
37.0,-948.0,4.205
55.0,-737.0,4.206
87.0,-180.0,4.207
107.0,313.0,4.208
102.0,549.0,4.209
81.0,718.0,4.21
52.0,1035.0,4.211
5.0,1388.0,4.212
-57.0,1510.0,4.213
-106.0,1329.0,4.214
-107.0,993.0,4.215
-74.0,618.0,4.216
-59.0,264.0,4.217
-89.0,-51.0,4.218
-121.0,-264.0,4.219
-131.0,-415.0,4.22
-74.0,-578.0,4.221
-20.0,-694.0,4.222
25.0,-681.0,4.223
67.0,-602.0,4.224
98.0,-573.0,4.225
113.0,-586.0,4.226
78.0,-547.0,4.227
37.0,-454.0,4.228
-20.0,-382.0,4.229
-63.0,-361.0,4.23
-55.0,-380.0,4.231
-27.0,-441.0,4.232
58.0,-492.0,4.233
120.0,-408.0,4.234
108.0,-168.0,4.235
98.0,53.0,4.236
95.0,100.0,4.237
87.0,19.0,4.238
53.0,-57.0,4.239
8.0,-115.0,4.24
8.0,-212.0,4.241
38.0,-289.0,4.242
45.0,-245.0,4.243
26.0,-83.0,4.244
34.0,125.0,4.245
79.0,360.0,4.246
107.0,603.0,4.247
97.0,757.0,4.248
74.0,759.0,4.249
59.0,681.0,4.25
26.0,611.0,4.251
-41.0,535.0,4.252
-130.0,415.0,4.253
-202.0,282.0,4.254
-229.0,170.0,4.255
-202.0,57.0,4.256
-150.0,-46.0,4.257
-102.0,-111.0,4.258
-78.0,-130.0,4.259
-54.0,-166.0,4.26
-31.0,-260.0,4.261
-19.0,-361.0,4.262
-5.0,-413.0,4.263
25.0,-397.0,4.264
47.0,-308.0,4.265
40.0,-163.0,4.266
31.0,-18.0,4.267
47.0,78.0,4.268
67.0,145.0,4.269
57.0,214.0,4.27
41.0,252.0,4.271
54.0,202.0,4.272
81.0,71.0,4.273
69.0,-76.0,4.274
17.0,-201.0,4.275
-21.0,-290.0,4.276
-7.0,-325.0,4.277
38.0,-292.0,4.278
59.0,-215.0,4.279
32.0,-135.0,4.28
-7.0,-53.0,4.281
-19.0,68.0,4.282
-8.0,210.0,4.283
-3.0,307.0,4.284
-1.0,280.0,4.285
21.0,105.0,4.286
52.0,-154.0,4.287
54.0,-355.0,4.288
30.0,-393.0,4.289
19.0,-317.0,4.29
33.0,-279.0,4.291
44.0,-312.0,4.292
37.0,-283.0,4.293
19.0,-84.0,4.294
-3.0,212.0,4.295
-31.0,452.0,4.296
-50.0,574.0,4.297
-48.0,632.0,4.298
-34.0,670.0,4.299
-29.0,679.0,4.3
-50.0,625.0,4.301
-62.0,492.0,4.302
-44.0,297.0,4.303
-27.0,97.0,4.304
-15.0,-48.0,4.305
-14.0,-127.0,4.306
-48.0,-154.0,4.307
-85.0,-134.0,4.308
-132.0,-85.0,4.309
-155.0,-87.0,4.31
-104.0,-208.0,4.311
-52.0,-383.0,4.312
0.0,-448.0,4.313
39.0,-345.0,4.314
37.0,-174.0,4.315
41.0,-50.0,4.316
63.0,23.0,4.317
81.0,91.0,4.318
74.0,134.0,4.319
75.0,123.0,4.32
87.0,87.0,4.321
90.0,63.0,4.322
78.0,13.0,4.323
68.0,-87.0,4.324
52.0,-189.0,4.325
18.0,-266.0,4.326
-20.0,-407.0,4.327
-32.0,-641.0,4.328
-22.0,-784.0,4.329
-15.0,-610.0,4.33
-12.0,-176.0,4.331
1.0,212.0,4.332
20.0,353.0,4.333
28.0,315.0,4.334
29.0,230.0,4.335
34.0,111.0,4.336
41.0,-44.0,4.337
39.0,-180.0,4.338
38.0,-190.0,4.339
47.0,-65.0,4.34
56.0,105.0,4.341
46.0,232.0,4.342
20.0,286.0,4.343
-6.0,323.0,4.344
-27.0,437.0,4.345
-48.0,628.0,4.346
-69.0,766.0,4.347
-81.0,753.0,4.348
-78.0,626.0,4.349
-68.0,468.0,4.35
-74.0,278.0,4.351
-98.0,48.0,4.352
-106.0,-152.0,4.353
-71.0,-254.0,4.354
-14.0,-302.0,4.355
14.0,-361.0,4.356
9.0,-411.0,4.357
3.0,-412.0,4.358
16.0,-395.0,4.359
24.0,-415.0,4.36
27.0,-471.0,4.361
46.0,-518.0,4.362
79.0,-555.0,4.363
90.0,-561.0,4.364
67.0,-478.0,4.365
41.0,-307.0,4.366
41.0,-170.0,4.367
54.0,-171.0,4.368
59.0,-235.0,4.369
49.0,-177.0,4.37
28.0,83.0,4.371
7.0,439.0,4.372
0.0,713.0,4.373
9.0,819.0,4.374
15.0,795.0,4.375
6.0,718.0,4.376
-1.0,616.0,4.377
13.0,453.0,4.378
38.0,267.0,4.379
48.0,127.0,4.38
13.0,52.0,4.381
-24.0,-5.0,4.382
-68.0,-86.0,4.383
-104.0,-161.0,4.384
-120.0,-196.0,4.385
-129.0,-204.0,4.386
-119.0,-211.0,4.387
-98.0,-228.0,4.388
-43.0,-254.0,4.389
8.0,-282.0,4.39
47.0,-289.0,4.391
74.0,-275.0,4.392
60.0,-276.0,4.393
40.0,-302.0,4.394
0.0,-297.0,4.395
-26.0,-212.0,4.396
-8.0,-94.0,4.397
22.0,4.0,4.398
69.0,66.0,4.399
58.0,87.0,4.4
9.0,18.0,4.401
-14.0,-122.0,4.402
15.0,-192.0,4.403
58.0,-93.0,4.404
68.0,66.0,4.405
45.0,126.0,4.406
18.0,126.0,4.407
4.0,221.0,4.408
2.0,405.0,4.409
3.0,521.0,4.41
5.0,505.0,4.411
7.0,435.0,4.412
6.0,348.0,4.413
-4.0,214.0,4.414
-17.0,63.0,4.415
-28.0,-30.0,4.416
-33.0,-65.0,4.417
-39.0,-125.0,4.418
-47.0,-210.0,4.419
-55.0,-247.0,4.42
-53.0,-236.0,4.421
-32.0,-269.0,4.422
7.0,-379.0,4.423
44.0,-463.0,4.424
61.0,-419.0,4.425
61.0,-267.0,4.426
63.0,-94.0,4.427
71.0,52.0,4.428
70.0,163.0,4.429
65.0,232.0,4.43
72.0,250.0,4.431
89.0,234.0,4.432
93.0,220.0,4.433
67.0,224.0,4.434
15.0,235.0,4.435
-53.0,225.0,4.436
-124.0,195.0,4.437
-188.0,168.0,4.438
-207.0,163.0,4.439
-180.0,147.0,4.44
-132.0,98.0,4.441
-87.0,40.0,4.442
-43.0,-42.0,4.443
-2.0,-125.0,4.444
19.0,-207.0,4.445
20.0,-274.0,4.446
25.0,-294.0,4.447
43.0,-308.0,4.448
61.0,-302.0,4.449
62.0,-275.0,4.45
52.0,-181.0,4.451
46.0,-92.0,4.452
44.0,-17.0,4.453
39.0,58.0,4.454
36.0,134.0,4.455
48.0,208.0,4.456
70.0,276.0,4.457
84.0,320.0,4.458
74.0,263.0,4.459
54.0,183.0,4.46
4.0,97.0,4.461
-42.0,7.0,4.462
-76.0,-62.0,4.463
-103.0,-90.0,4.464
-107.0,-92.0,4.465
-96.0,-89.0,4.466
-42.0,-83.0,4.467
10.0,-68.0,4.468
60.0,-52.0,4.469
99.0,-50.0,4.47
104.0,-58.0,4.471
102.0,-64.0,4.472
79.0,-66.0,4.473
56.0,-67.0,4.474
36.0,-66.0,4.475
17.0,-59.0,4.476
2.0,-50.0,4.477
-16.0,-37.0,4.478
-40.0,-16.0,4.479
-55.0,0.0,4.48
-49.0,-9.0,4.481
-31.0,-34.0,4.482
-17.0,-34.0,4.483
-25.0,6.0,4.484
-51.0,60.0,4.485
-65.0,83.0,4.486
-46.0,64.0,4.487
-14.0,31.0,4.488
-1.0,16.0,4.489
-11.0,23.0,4.49
-21.0,30.0,4.491
-14.0,20.0,4.492
-3.0,2.0,4.493
2.0,-4.0,4.494
7.0,2.0,4.495
18.0,8.0,4.496
27.0,8.0,4.497
29.0,8.0,4.498
23.0,10.0,4.499
18.0,10.0,4.5
17.0,2.0,4.501
23.0,-2.0,4.502
31.0,0.0,4.503
25.0,4.0,4.504
7.0,1.0,4.505
-3.0,-26.0,4.506
12.0,-90.0,4.507
41.0,-174.0,4.508
57.0,-238.0,4.509
54.0,-246.0,4.51
39.0,-196.0,4.511
21.0,-114.0,4.512
5.0,-23.0,4.513
-4.0,60.0,4.514
-8.0,125.0,4.515
-1.0,169.0,4.516
16.0,200.0,4.517
34.0,230.0,4.518
27.0,262.0,4.519
-8.0,281.0,4.52
-48.0,253.0,4.521
-71.0,149.0,4.522
-80.0,-52.0,4.523
-79.0,-284.0,4.524
-67.0,-384.0,4.525
-52.0,-257.0,4.526
-41.0,-14.0,4.527
-22.0,137.0,4.528
12.0,152.0,4.529
40.0,163.0,4.53
31.0,250.0,4.531
2.0,339.0,4.532
-19.0,363.0,4.533
-42.0,357.0,4.534
-73.0,348.0,4.535
-65.0,278.0,4.536
5.0,137.0,4.537
97.0,-16.0,4.538
137.0,-100.0,4.539
111.0,-145.0,4.54
64.0,-206.0,4.541
19.0,-252.0,4.542
-27.0,-242.0,4.543
-64.0,-206.0,4.544
-84.0,-202.0,4.545
-99.0,-212.0,4.546
-97.0,-204.0,4.547
-52.0,-197.0,4.548
15.0,-225.0,4.549
46.0,-277.0,4.55
41.0,-312.0,4.551
66.0,-299.0,4.552
126.0,-217.0,4.553
134.0,-79.0,4.554
61.0,44.0,4.555
0.0,94.0,4.556
21.0,102.0,4.557
79.0,141.0,4.558
86.0,210.0,4.559
40.0,243.0,4.56
3.0,219.0,4.561
-6.0,195.0,4.562
-20.0,194.0,4.563
-43.0,171.0,4.564
-44.0,100.0,4.565
-19.0,25.0,4.566
-6.0,-10.0,4.567
-22.0,-12.0,4.568
-34.0,-20.0,4.569
-24.0,-51.0,4.57
-10.0,-101.0,4.571
-15.0,-146.0,4.572
-20.0,-160.0,4.573
-5.0,-136.0,4.574
-9.0,-93.0,4.575
-68.0,-45.0,4.576
-129.0,-3.0,4.577
-114.0,15.0,4.578
-26.0,4.0,4.579
36.0,2.0,4.58
27.0,50.0,4.581
14.0,122.0,4.582
51.0,141.0,4.583
83.0,89.0,4.584
55.0,23.0,4.585
18.0,-14.0,4.586
41.0,-37.0,4.587
89.0,-58.0,4.588
88.0,-70.0,4.589
46.0,-75.0,4.59
19.0,-82.0,4.591
-5.0,-65.0,4.592
-72.0,-7.0,4.593
-154.0,61.0,4.594
-160.0,91.0,4.595
-71.0,83.0,4.596
31.0,71.0,4.597
79.0,64.0,4.598
64.0,57.0,4.599
18.0,55.0,4.6
-19.0,61.0,4.601
-21.0,61.0,4.602
21.0,26.0,4.603
84.0,-40.0,4.604
108.0,-103.0,4.605
61.0,-124.0,4.606
-17.0,-88.0,4.607
-47.0,-8.0,4.608
-8.0,65.0,4.609
44.0,76.0,4.61
50.0,24.0,4.611
35.0,-38.0,4.612
48.0,-63.0,4.613
64.0,-35.0,4.614
4.0,32.0,4.615
-116.0,111.0,4.616
-183.0,149.0,4.617
-148.0,110.0,4.618
-79.0,40.0,4.619
-24.0,-10.0,4.62
-12.0,0.0,4.621
-1.0,-1.0,4.622
8.0,-37.0,4.623
16.0,-60.0,4.624
22.0,-46.0,4.625
26.0,-48.0,4.626
20.0,-97.0,4.627
21.0,-128.0,4.628
42.0,-104.0,4.629
65.0,-77.0,4.63
94.0,-45.0,4.631
92.0,-16.0,4.632
-3.0,3.0,4.633
-70.0,13.0,4.634
-52.0,-5.0,4.635
-41.0,-14.0,4.636
-52.0,7.0,4.637
-51.0,31.0,4.638
1.0,44.0,4.639
50.0,37.0,4.64
76.0,25.0,4.641
98.0,5.0,4.642
104.0,-17.0,4.643
72.0,-26.0,4.644
31.0,-15.0,4.645
30.0,-14.0,4.646
51.0,-25.0,4.647
29.0,-13.0,4.648
-34.0,30.0,4.649
-81.0,64.0,4.65
-90.0,59.0,4.651
-84.0,42.0,4.652
-72.0,39.0,4.653
-42.0,37.0,4.654
4.0,25.0,4.655
43.0,18.0,4.656
59.0,31.0,4.657
45.0,39.0,4.658
6.0,30.0,4.659
-23.0,16.0,4.66
-26.0,5.0,4.661
-43.0,-9.0,4.662
-100.0,-35.0,4.663
-144.0,-59.0,4.664
-148.0,-68.0,4.665
-116.0,-61.0,4.666
25.0,-44.0,4.667
127.0,-22.0,4.668
112.0,-15.0,4.669
100.0,-38.0,4.67
98.0,-81.0,4.671
81.0,-132.0,4.672
23.0,-191.0,4.673
-16.0,-252.0,4.674
4.0,-273.0,4.675
24.0,-233.0,4.676
42.0,-172.0,4.677
69.0,-483.0,4.678
123.0,-539.0,4.679
145.0,-577.0,4.68
97.0,-556.0,4.681
27.0,-497.0,4.682
-6.0,-329.0,4.683
-5.0,-197.0,4.684
-3.0,-183.0,4.685
-8.0,-172.0,4.686
-29.0,-172.0,4.687
-67.0,-176.0,4.688
-94.0,-179.0,4.689
-71.0,-155.0,4.69
-21.0,-34.0,4.691
-3.0,78.0,4.692
-27.0,144.0,4.693
-54.0,221.0,4.694
-62.0,325.0,4.695
-73.0,402.0,4.696
-90.0,406.0,4.697
-76.0,-232.0,4.698
-22.0,-248.0,4.699
23.0,-259.0,4.7
45.0,-253.0,4.701
55.0,-236.0,4.702
25.0,-188.0,4.703
-3.0,-150.0,4.704
-28.0,-146.0,4.705
-45.0,-143.0,4.706
-36.0,-143.0,4.707
-28.0,-144.0,4.708
-26.0,-145.0,4.709
-20.0,-138.0,4.71
-4.0,-103.0,4.711
15.0,-71.0,4.712
47.0,-52.0,4.713
74.0,-30.0,4.714
87.0,0.0,4.715
95.0,22.0,4.716
89.0,23.0,4.717
75.0,27.0,4.718
41.0,38.0,4.719
19.0,40.0,4.72
9.0,32.0,4.721
-10.0,41.0,4.722
-21.0,66.0,4.723
5.0,85.0,4.724
52.0,74.0,4.725
64.0,47.0,4.726
37.0,29.0,4.727
25.0,35.0,4.728
44.0,67.0,4.729
19.0,110.0,4.73
-107.0,140.0,4.731
-272.0,139.0,4.732
-353.0,131.0,4.733
-304.0,141.0,4.734
-182.0,148.0,4.735
-45.0,107.0,4.736
91.0,31.0,4.737
253.0,-34.0,4.738
333.0,-46.0,4.739
298.0,-33.0,4.74
187.0,-38.0,4.741
70.0,-57.0,4.742
-14.0,-79.0,4.743
-70.0,-112.0,4.744
-99.0,-153.0,4.745
-104.0,-178.0,4.746
-102.0,-195.0,4.747
-122.0,-251.0,4.748
-160.0,-350.0,4.749
-171.0,-431.0,4.75
-115.0,-435.0,4.751
-9.0,-366.0,4.752
80.0,-246.0,4.753
110.0,-75.0,4.754
116.0,143.0,4.755
151.0,361.0,4.756
201.0,518.0,4.757
217.0,610.0,4.758
181.0,643.0,4.759
145.0,613.0,4.76
144.0,510.0,4.761
140.0,370.0,4.762
99.0,252.0,4.763
22.0,183.0,4.764
-71.0,132.0,4.765
-177.0,66.0,4.766
-264.0,-10.0,4.767
-272.0,-66.0,4.768
-188.0,-108.0,4.769
-80.0,-151.0,4.77
-27.0,-176.0,4.771
-43.0,-151.0,4.772
-80.0,-101.0,4.773
-91.0,-82.0,4.774
-60.0,-103.0,4.775
1.0,-127.0,4.776
67.0,-146.0,4.777
119.0,-203.0,4.778
145.0,-295.0,4.779
137.0,-355.0,4.78
106.0,-337.0,4.781
69.0,-274.0,4.782
38.0,-226.0,4.783
6.0,-200.0,4.784
-29.0,-156.0,4.785
-39.0,-77.0,4.786
-5.0,23.0,4.787
40.0,131.0,4.788
51.0,232.0,4.789
36.0,297.0,4.79
25.0,295.0,4.791
15.0,238.0,4.792
-14.0,175.0,4.793
-35.0,134.0,4.794
-26.0,93.0,4.795
-28.0,33.0,4.796
-72.0,-19.0,4.797
-122.0,-30.0,4.798
-101.0,-2.0,4.799
-30.0,10.0,4.8
-7.0,-18.0,4.801
-59.0,-53.0,4.802
-115.0,-85.0,4.803
-107.0,-144.0,4.804
-42.0,-220.0,4.805
39.0,-245.0,4.806
96.0,-192.0,4.807
102.0,-110.0,4.808
62.0,-49.0,4.809
30.0,12.0,4.81
45.0,104.0,4.811
75.0,196.0,4.812
75.0,241.0,4.813
59.0,233.0,4.814
66.0,198.0,4.815
91.0,142.0,4.816
98.0,80.0,4.817
84.0,12.0,4.818
70.0,-39.0,4.819
51.0,-73.0,4.82
-6.0,-92.0,4.821
-97.0,-84.0,4.822
-168.0,-59.0,4.823
-170.0,-46.0,4.824
-113.0,-82.0,4.825
-60.0,-166.0,4.826
-45.0,-246.0,4.827
-37.0,-258.0,4.828
-2.0,-196.0,4.829
46.0,-112.0,4.83
71.0,-33.0,4.831
79.0,65.0,4.832
96.0,180.0,4.833
102.0,249.0,4.834
71.0,231.0,4.835
33.0,182.0,4.836
35.0,184.0,4.837
61.0,237.0,4.838
50.0,275.0,4.839
-8.0,252.0,4.84
-54.0,187.0,4.841
-65.0,137.0,4.842
-73.0,107.0,4.843
-97.0,72.0,4.844
-113.0,4.0,4.845
-103.0,-92.0,4.846
-85.0,-176.0,4.847
-55.0,-204.0,4.848
14.0,-179.0,4.849
117.0,-150.0,4.85
196.0,-144.0,4.851
190.0,-136.0,4.852
106.0,-97.0,4.853
-9.0,-34.0,4.854
-91.0,19.0,4.855
-105.0,52.0,4.856
-58.0,70.0,4.857
4.0,70.0,4.858
36.0,53.0,4.859
40.0,27.0,4.86
-41.0,1.0,4.861
-106.0,-13.0,4.862
-124.0,-12.0,4.863
-108.0,-1.0,4.864
13.0,-4.0,4.865
92.0,-30.0,4.866
38.0,-57.0,4.867
-26.0,-57.0,4.868
-126.0,-40.0,4.869
-176.0,-32.0,4.87
-77.0,-34.0,4.871
24.0,-25.0,4.872
136.0,-7.0,4.873
225.0,-5.0,4.874
248.0,-20.0,4.875
250.0,-38.0,4.876
188.0,-52.0,4.877
115.0,-75.0,4.878
7.0,-92.0,4.879
-100.0,-75.0,4.88
-185.0,-37.0,4.881
-216.0,-22.0,4.882
-171.0,-55.0,4.883
-87.0,-92.0,4.884
-32.0,-78.0,4.885
-26.0,-17.0,4.886
-19.0,36.0,4.887
17.0,44.0,4.888
49.0,29.0,4.889
41.0,25.0,4.89
20.0,31.0,4.891
20.0,31.0,4.892
27.0,12.0,4.893
17.0,-16.0,4.894
4.0,-44.0,4.895
22.0,-58.0,4.896
50.0,-49.0,4.897
51.0,-17.0,4.898
27.0,31.0,4.899
17.0,87.0,4.9
32.0,140.0,4.901
55.0,181.0,4.902
69.0,197.0,4.903
65.0,189.0,4.904
36.0,170.0,4.905
-7.0,145.0,4.906
-37.0,110.0,4.907
-50.0,75.0,4.908
-67.0,50.0,4.909
-101.0,28.0,4.91
-121.0,-14.0,4.911
-94.0,-67.0,4.912
-42.0,-94.0,4.913
-10.0,-85.0,4.914
4.0,-72.0,4.915
27.0,-80.0,4.916
61.0,-89.0,4.917
82.0,-80.0,4.918
77.0,-61.0,4.919
66.0,-53.0,4.92
68.0,-57.0,4.921
81.0,-47.0,4.922
94.0,-21.0,4.923
87.0,3.0,4.924
36.0,16.0,4.925
-56.0,22.0,4.926
-151.0,24.0,4.927
-207.0,12.0,4.928
-194.0,-18.0,4.929
-106.0,-44.0,4.93
21.0,-35.0,4.931
104.0,0.0,4.932
93.0,19.0,4.933
31.0,3.0,4.934
-2.0,-14.0,4.935
-2.0,-6.0,4.936
-2.0,7.0,4.937
-6.0,-7.0,4.938
2.0,-40.0,4.939
3.0,-59.0,4.94
-18.0,-57.0,4.941
-25.0,-40.0,4.942
16.0,-21.0,4.943
45.0,-3.0,4.944
33.0,16.0,4.945
30.0,37.0,4.946
58.0,54.0,4.947
63.0,55.0,4.948
-1.0,35.0,4.949
-42.0,4.0,4.95
-13.0,-15.0,4.951
2.0,-22.0,4.952
-27.0,-29.0,4.953
-35.0,-38.0,4.954
20.0,-35.0,4.955
57.0,-8.0,4.956
37.0,28.0,4.957
-12.0,55.0,4.958
-118.0,62.0,4.959
-124.0,47.0,4.96
-84.0,15.0,4.961
-68.0,-13.0,4.962
-43.0,-19.0,4.963
36.0,-3.0,4.964
119.0,7.0,4.965
138.0,1.0,4.966
101.0,-6.0,4.967
70.0,4.0,4.968
58.0,20.0,4.969
47.0,20.0,4.97
38.0,10.0,4.971
43.0,1.0,4.972
51.0,-3.0,4.973
42.0,-9.0,4.974
21.0,-8.0,4.975
3.0,3.0,4.976
-5.0,16.0,4.977
-7.0,15.0,4.978
-1.0,1.0,4.979
0.0,-14.0,4.98
-16.0,-31.0,4.981
-34.0,-51.0,4.982
-59.0,-72.0,4.983
-80.0,-77.0,4.984
-87.0,-67.0,4.985
-85.0,-73.0,4.986
-52.0,-120.0,4.987
-22.0,-177.0,4.988
-4.0,-198.0,4.989
13.0,-170.0,4.99
30.0,-122.0,4.991
43.0,-56.0,4.992
43.0,58.0,4.993
44.0,214.0,4.994
44.0,350.0,4.995
40.0,416.0,4.996
28.0,420.0,4.997
17.0,380.0,4.998
12.0,300.0,4.999
8.0,189.0,5.0
-19.0,82.0,5.001
-63.0,20.0,5.002
-89.0,-3.0,5.003
-84.0,-13.0,5.004
-62.0,-27.0,5.005
-34.0,-40.0,5.006
-16.0,-52.0,5.007
-13.0,-65.0,5.008
-25.0,-73.0,5.009
-33.0,-79.0,5.01
-18.0,-86.0,5.011
21.0,-93.0,5.012
69.0,-92.0,5.013
107.0,-84.0,5.014
118.0,-81.0,5.015
101.0,-90.0,5.016
67.0,-104.0,5.017
12.0,-119.0,5.018
-53.0,-129.0,5.019
-108.0,-127.0,5.02
-116.0,-110.0,5.021
-73.0,-82.0,5.022
-17.0,-52.0,5.023
16.0,-26.0,5.024
23.0,-7.0,5.025
16.0,4.0,5.026
-2.0,9.0,5.027
-17.0,13.0,5.028
-7.0,20.0,5.029
22.0,27.0,5.03
28.0,35.0,5.031
6.0,36.0,5.032
2.0,13.0,5.033
43.0,-29.0,5.034
78.0,-70.0,5.035
64.0,-88.0,5.036
34.0,-100.0,5.037
35.0,-133.0,5.038
57.0,-174.0,5.039
58.0,-174.0,5.04
49.0,-108.0,5.041
66.0,-1.0,5.042
89.0,100.0,5.043
61.0,180.0,5.044
-28.0,236.0,5.045
-131.0,250.0,5.046
-204.0,212.0,5.047
-222.0,151.0,5.048
-180.0,113.0,5.049
-93.0,106.0,5.05
-13.0,95.0,5.051
44.0,66.0,5.052
105.0,37.0,5.053
170.0,20.0,5.054
186.0,4.0,5.055
123.0,0.0,5.056
30.0,24.0,5.057
-49.0,62.0,5.058
-81.0,68.0,5.059
-59.0,22.0,5.06
-2.0,-36.0,5.061
42.0,-59.0,5.062
38.0,-60.0,5.063
15.0,-75.0,5.064
20.0,-98.0,5.065
37.0,-88.0,5.066
18.0,-44.0,5.067
-19.0,-13.0,5.068
-13.0,-23.0,5.069
35.0,-41.0,5.07
57.0,-30.0,5.071
15.0,-9.0,5.072
-51.0,-20.0,5.073
-92.0,-58.0,5.074
-95.0,-82.0,5.075
-87.0,-72.0,5.076
-78.0,-48.0,5.077
-59.0,-20.0,5.078
-4.0,16.0,5.079
77.0,42.0,5.08
132.0,32.0,5.081
112.0,8.0,5.082
40.0,10.0,5.083
-14.0,30.0,5.084
-27.0,26.0,5.085
-26.0,-16.0,5.086
-15.0,-56.0,5.087
23.0,-61.0,5.088
60.0,-46.0,5.089
25.0,-49.0,5.09
-79.0,-108.0,5.091
-149.0,-223.0,5.092
-110.0,-344.0,5.093
-10.0,-386.0,5.094
55.0,-313.0,5.095
74.0,-182.0,5.096
89.0,-66.0,5.097
117.0,49.0,5.098
127.0,182.0,5.099
102.0,302.0,5.1
63.0,363.0,5.101
28.0,386.0,5.102
-8.0,423.0,5.103
-38.0,473.0,5.104
-32.0,495.0,5.105
26.0,462.0,5.106
90.0,374.0,5.107
81.0,234.0,5.108
-31.0,63.0,5.109
-176.0,-79.0,5.11
-244.0,-148.0,5.111
-195.0,-139.0,5.112
-80.0,-81.0,5.113
33.0,-13.0,5.114
101.0,16.0,5.115
95.0,-14.0,5.116
24.0,-75.0,5.117
-63.0,-127.0,5.118
-86.0,-156.0,5.119
-55.0,-184.0,5.12
-41.0,-214.0,5.121
-57.0,-214.0,5.122
-33.0,-184.0,5.123
51.0,-152.0,5.124
123.0,-122.0,5.125
125.0,-81.0,5.126
83.0,-37.0,5.127
37.0,-24.0,5.128
-7.0,-41.0,5.129
-48.0,-63.0,5.13
-73.0,-71.0,5.131
-83.0,-76.0,5.132
-74.0,-88.0,5.133
-34.0,-112.0,5.134
31.0,-169.0,5.135
69.0,-256.0,5.136
63.0,-323.0,5.137
51.0,-329.0,5.138
59.0,-278.0,5.139
45.0,-213.0,5.14
-23.0,-152.0,5.141
-100.0,-69.0,5.142
-118.0,30.0,5.143
-64.0,99.0,5.144
43.0,119.0,5.145
189.0,141.0,5.146
304.0,229.0,5.147
297.0,382.0,5.148
166.0,525.0,5.149
30.0,582.0,5.15
-20.0,543.0,5.151
-5.0,468.0,5.152
14.0,417.0,5.153
0.0,393.0,5.154
-59.0,363.0,5.155
-146.0,307.0,5.156
-167.0,235.0,5.157
-42.0,140.0,5.158
154.0,34.0,5.159
233.0,-67.0,5.16
110.0,-151.0,5.161
-148.0,-224.0,5.162
-443.0,-307.0,5.163
-683.0,-409.0,5.164
-725.0,-507.0,5.165
-486.0,-559.0,5.166
-99.0,-524.0,5.167
212.0,-400.0,5.168
369.0,-248.0,5.169
439.0,-149.0,5.17
438.0,-109.0,5.171
331.0,-51.0,5.172
183.0,71.0,5.173
94.0,203.0,5.174
60.0,255.0,5.175
22.0,225.0,5.176
8.0,182.0,5.177
62.0,148.0,5.178
117.0,110.0,5.179
65.0,65.0,5.18
-58.0,41.0,5.181
-118.0,49.0,5.182
-59.0,44.0,5.183
69.0,-5.0,5.184
199.0,-68.0,5.185
266.0,-115.0,5.186
178.0,-167.0,5.187
-64.0,-254.0,5.188
-311.0,-359.0,5.189
-406.0,-405.0,5.19
-353.0,-335.0,5.191
-251.0,-171.0,5.192
-139.0,5.0,5.193
-21.0,126.0,5.194
51.0,193.0,5.195
29.0,228.0,5.196
-26.0,239.0,5.197
-15.0,220.0,5.198
72.0,182.0,5.199
157.0,141.0,5.2
185.0,96.0,5.201
182.0,62.0,5.202
182.0,68.0,5.203
173.0,121.0,5.204
135.0,176.0,5.205
85.0,182.0,5.206
67.0,157.0,5.207
90.0,152.0,5.208
113.0,166.0,5.209
83.0,145.0,5.21
-11.0,61.0,5.211
-146.0,-49.0,5.212
-256.0,-141.0,5.213
-244.0,-217.0,5.214
-78.0,-282.0,5.215
103.0,-299.0,5.216
134.0,-229.0,5.217
22.0,-74.0,5.218
-74.0,79.0,5.219
-104.0,142.0,5.22
-131.0,115.0,5.221
-130.0,90.0,5.222
-54.0,105.0,5.223
-28.0,91.0,5.224
-163.0,-18.0,5.225
-279.0,-149.0,5.226
-164.0,-182.0,5.227
-14.0,-128.0,5.228
-127.0,-115.0,5.229
-346.0,-185.0,5.23
-301.0,-235.0,5.231
-43.0,-196.0,5.232
77.0,-124.0,5.233
38.0,-78.0,5.234
96.0,-30.0,5.235
271.0,43.0,5.236
356.0,101.0,5.237
341.0,115.0,5.238
378.0,131.0,5.239
432.0,180.0,5.24
346.0,215.0,5.241
167.0,203.0,5.242
75.0,172.0,5.243
42.0,151.0,5.244
-66.0,102.0,5.245
-180.0,0.0,5.246
-141.0,-103.0,5.247
-33.0,-129.0,5.248
-55.0,-79.0,5.249
-175.0,-27.0,5.25
-184.0,-34.0,5.251
-56.0,-86.0,5.252
46.0,-138.0,5.253
45.0,-161.0,5.254
29.0,-157.0,5.255
47.0,-142.0,5.256
47.0,-114.0,5.257
11.0,-67.0,5.258
-1.0,-13.0,5.259
40.0,32.0,5.26
89.0,69.0,5.261
102.0,130.0,5.262
80.0,215.0,5.263
44.0,292.0,5.264
28.0,319.0,5.265
59.0,284.0,5.266
95.0,201.0,5.267
33.0,98.0,5.268
-160.0,5.0,5.269
-361.0,-58.0,5.27
-413.0,-98.0,5.271
-309.0,-125.0,5.272
-156.0,-129.0,5.273
-39.0,-110.0,5.274
39.0,-96.0,5.275
82.0,-116.0,5.276
80.0,-159.0,5.277
49.0,-211.0,5.278
40.0,-257.0,5.279
62.0,-285.0,5.28
72.0,-262.0,5.281
56.0,-168.0,5.282
60.0,-43.0,5.283
111.0,48.0,5.284
168.0,91.0,5.285
167.0,118.0,5.286
92.0,155.0,5.287
-24.0,191.0,5.288
-139.0,209.0,5.289
-216.0,201.0,5.29
-225.0,176.0,5.291
-147.0,146.0,5.292
-11.0,112.0,5.293
107.0,74.0,5.294
135.0,37.0,5.295
88.0,18.0,5.296
48.0,14.0,5.297
54.0,-3.0,5.298
72.0,-49.0,5.299
50.0,-91.0,5.3
19.0,-94.0,5.301
38.0,-45.0,5.302
89.0,30.0,5.303
98.0,107.0,5.304
37.0,153.0,5.305
-39.0,144.0,5.306
-76.0,92.0,5.307
-76.0,29.0,5.308
-72.0,-17.0,5.309
-80.0,-42.0,5.31
-93.0,-46.0,5.311
-71.0,-33.0,5.312
15.0,-15.0,5.313
139.0,-9.0,5.314
203.0,-20.0,5.315
162.0,-39.0,5.316
75.0,-64.0,5.317
-22.0,-99.0,5.318
-155.0,-134.0,5.319
-305.0,-153.0,5.32
-348.0,-160.0,5.321
-228.0,-163.0,5.322
-90.0,-172.0,5.323
-76.0,-187.0,5.324
-111.0,-207.0,5.325
-44.0,-227.0,5.326
96.0,-225.0,5.327
184.0,-182.0,5.328
200.0,-86.0,5.329
206.0,35.0,5.33
194.0,142.0,5.331
141.0,214.0,5.332
99.0,253.0,5.333
110.0,273.0,5.334
119.0,276.0,5.335
75.0,257.0,5.336
16.0,222.0,5.337
-31.0,184.0,5.338
-91.0,169.0,5.339
-169.0,186.0,5.34
-211.0,210.0,5.341
-182.0,209.0,5.342
-115.0,158.0,5.343
-58.0,60.0,5.344
-15.0,-56.0,5.345
22.0,-146.0,5.346
60.0,-182.0,5.347
100.0,-168.0,5.348
137.0,-136.0,5.349
159.0,-119.0,5.35
159.0,-133.0,5.351
126.0,-167.0,5.352
44.0,-188.0,5.353
-58.0,-162.0,5.354
-88.0,-92.0,5.355
0.0,-24.0,5.356
117.0,9.0,5.357
162.0,25.0,5.358
124.0,43.0,5.359
69.0,44.0,5.36
45.0,10.0,5.361
39.0,-4.0,5.362
33.0,38.0,5.363
7.0,92.0,5.364
-60.0,89.0,5.365
-145.0,42.0,5.366
-174.0,13.0,5.367
-114.0,17.0,5.368
-30.0,18.0,5.369
-3.0,9.0,5.37
-39.0,9.0,5.371
-70.0,14.0,5.372
-30.0,8.0,5.373
71.0,8.0,5.374
137.0,38.0,5.375
73.0,72.0,5.376
-96.0,69.0,5.377
-272.0,28.0,5.378
-319.0,-15.0,5.379
-230.0,-51.0,5.38
-110.0,-64.0,5.381
-42.0,-88.0,5.382
-3.0,-142.0,5.383
59.0,-188.0,5.384
127.0,-204.0,5.385
140.0,-209.0,5.386
85.0,-183.0,5.387
23.0,-157.0,5.388
10.0,-129.0,5.389
35.0,-99.0,5.39
58.0,-62.0,5.391
71.0,-24.0,5.392
90.0,13.0,5.393
102.0,57.0,5.394
89.0,118.0,5.395
60.0,168.0,5.396
48.0,180.0,5.397
63.0,213.0,5.398
96.0,328.0,5.399
117.0,413.0,5.4
89.0,411.0,5.401
-22.0,357.0,5.402
-203.0,275.0,5.403
-360.0,159.0,5.404
-384.0,28.0,5.405
-249.0,-60.0,5.406
-45.0,-88.0,5.407
111.0,-109.0,5.408
159.0,-164.0,5.409
117.0,-223.0,5.41
52.0,-238.0,5.411
38.0,-220.0,5.412
92.0,-219.0,5.413
164.0,-242.0,5.414
185.0,-253.0,5.415
144.0,-220.0,5.416
91.0,-146.0,5.417
61.0,-44.0,5.418
42.0,53.0,5.419
11.0,115.0,5.42
-54.0,140.0,5.421
-90.0,156.0,5.422
-31.0,170.0,5.423
25.0,162.0,5.424
75.0,119.0,5.425
85.0,57.0,5.426
-28.0,5.0,5.427
-114.0,-24.0,5.428
-115.0,-26.0,5.429
-106.0,0.0,5.43
-64.0,34.0,5.431
-32.0,47.0,5.432
-33.0,29.0,5.433
-34.0,-2.0,5.434
-33.0,-38.0,5.435
-34.0,-84.0,5.436
-43.0,-133.0,5.437
-47.0,-183.0,5.438
-4.0,-215.0,5.439
68.0,-217.0,5.44
109.0,-187.0,5.441
74.0,-138.0,5.442
2.0,-105.0,5.443
-31.0,-96.0,5.444
5.0,-76.0,5.445
64.0,-10.0,5.446
76.0,89.0,5.447
26.0,189.0,5.448
-51.0,281.0,5.449
-121.0,367.0,5.45
-161.0,426.0,5.451
-142.0,436.0,5.452
-47.0,404.0,5.453
74.0,336.0,5.454
128.0,223.0,5.455
92.0,72.0,5.456
30.0,-58.0,5.457
-34.0,-133.0,5.458
-99.0,-147.0,5.459
-154.0,-137.0,5.46
-132.0,-133.0,5.461
-43.0,-130.0,5.462
25.0,-125.0,5.463
33.0,-123.0,5.464
39.0,-130.0,5.465
82.0,-160.0,5.466
116.0,-221.0,5.467
86.0,-291.0,5.468
11.0,-326.0,5.469
-48.0,-308.0,5.47
-40.0,-254.0,5.471
52.0,-178.0,5.472
174.0,-84.0,5.473
224.0,-1.0,5.474
171.0,32.0,5.475
83.0,39.0,5.476
27.0,78.0,5.477
-22.0,164.0,5.478
-70.0,248.0,5.479
-89.0,315.0,5.48
-23.0,331.0,5.481
21.0,324.0,5.482
-3.0,246.0,5.483
-21.0,162.0,5.484
-22.0,59.0,5.485
-27.0,-26.0,5.486
-41.0,-56.0,5.487
-49.0,-78.0,5.488
-34.0,-74.0,5.489
-23.0,-74.0,5.49
-22.0,-87.0,5.491
-22.0,-109.0,5.492
-26.0,-155.0,5.493
-22.0,-178.0,5.494
6.0,-131.0,5.495
33.0,-80.0,5.496
54.0,-18.0,5.497
66.0,39.0,5.498
31.0,66.0,5.499
-12.0,52.0,5.5
-29.0,14.0,5.501
-22.0,-9.0,5.502
-4.0,-6.0,5.503
14.0,14.0,5.504
20.0,34.0,5.505
5.0,38.0,5.506
-16.0,11.0,5.507
-21.0,-37.0,5.508
-7.0,-69.0,5.509
9.0,-61.0,5.51
17.0,-30.0,5.511
16.0,-2.0,5.512
5.0,26.0,5.513
-6.0,66.0,5.514
8.0,109.0,5.515
77.0,121.0,5.516
164.0,83.0,5.517
198.0,7.0,5.518
130.0,-35.0,5.519
1.0,8.0,5.52
-101.0,117.0,5.521
-158.0,204.0,5.522
-195.0,195.0,5.523
-200.0,105.0,5.524
-137.0,3.0,5.525
-46.0,-73.0,5.526
-11.0,-120.0,5.527
-22.0,-131.0,5.528
-7.0,-98.0,5.529
30.0,-61.0,5.53
24.0,-66.0,5.531
-16.0,-106.0,5.532
-8.0,-128.0,5.533
43.0,-111.0,5.534
53.0,-84.0,5.535
14.0,-68.0,5.536
-3.0,-58.0,5.537
23.0,-51.0,5.538
39.0,-46.0,5.539
27.0,-29.0,5.54
29.0,2.0,5.541
49.0,44.0,5.542
44.0,80.0,5.543
11.0,108.0,5.544
-9.0,111.0,5.545
-14.0,64.0,5.546
-43.0,-25.0,5.547
-92.0,-97.0,5.548
-93.0,-104.0,5.549
-11.0,-58.0,5.55
99.0,7.0,5.551
160.0,81.0,5.552
150.0,144.0,5.553
101.0,153.0,5.554
48.0,94.0,5.555
5.0,25.0,5.556
-14.0,6.0,5.557
9.0,35.0,5.558
66.0,73.0,5.559
106.0,87.0,5.56
105.0,67.0,5.561
85.0,20.0,5.562
60.0,-37.0,5.563
0.0,-78.0,5.564
-100.0,-99.0,5.565
-159.0,-121.0,5.566
-129.0,-148.0,5.567
-75.0,-158.0,5.568
-72.0,-140.0,5.569
-86.0,-102.0,5.57
-48.0,-32.0,5.571
19.0,98.0,5.572
54.0,267.0,5.573
78.0,390.0,5.574
127.0,394.0,5.575
150.0,280.0,5.576
80.0,107.0,5.577
-76.0,-91.0,5.578
-227.0,-241.0,5.579
-319.0,-281.0,5.58
-330.0,-213.0,5.581
-242.0,-96.0,5.582
-79.0,-2.0,5.583
68.0,46.0,5.584
134.0,66.0,5.585
139.0,72.0,5.586
121.0,65.0,5.587
81.0,47.0,5.588
33.0,16.0,5.589
18.0,-25.0,5.59
32.0,-69.0,5.591
22.0,-101.0,5.592
-14.0,-125.0,5.593
-17.0,-148.0,5.594
26.0,-170.0,5.595
61.0,-178.0,5.596
56.0,-166.0,5.597
35.0,-126.0,5.598
26.0,-48.0,5.599
14.0,63.0,5.6
-6.0,170.0,5.601
-10.0,234.0,5.602
15.0,247.0,5.603
40.0,222.0,5.604
40.0,168.0,5.605
24.0,97.0,5.606
16.0,34.0,5.607
21.0,-2.0,5.608
31.0,-26.0,5.609
30.0,-62.0,5.61
12.0,-101.0,5.611
-2.0,-118.0,5.612
4.0,-108.0,5.613
22.0,-93.0,5.614
25.0,-90.0,5.615
16.0,-103.0,5.616
17.0,-125.0,5.617
26.0,-158.0,5.618
28.0,-186.0,5.619
11.0,-195.0,5.62
-2.0,-176.0,5.621
-2.0,-135.0,5.622
-2.0,-91.0,5.623
-8.0,-62.0,5.624
-9.0,-39.0,5.625
6.0,12.0,5.626
31.0,114.0,5.627
59.0,251.0,5.628
82.0,364.0,5.629
75.0,404.0,5.63
12.0,368.0,5.631
-82.0,290.0,5.632
-142.0,215.0,5.633
-133.0,165.0,5.634
-85.0,127.0,5.635
-44.0,85.0,5.636
-20.0,52.0,5.637
-4.0,31.0,5.638
0.0,13.0,5.639
-8.0,-20.0,5.64
-12.0,-71.0,5.641
-16.0,-117.0,5.642
-47.0,-157.0,5.643
-109.0,-196.0,5.644
-155.0,-223.0,5.645
-137.0,-223.0,5.646
-43.0,-198.0,5.647
91.0,-167.0,5.648
211.0,-146.0,5.649
274.0,-142.0,5.65
275.0,-165.0,5.651
230.0,-200.0,5.652
148.0,-199.0,5.653
43.0,-123.0,5.654
-47.0,-12.0,5.655
-89.0,55.0,5.656
-96.0,59.0,5.657
-94.0,51.0,5.658
-89.0,85.0,5.659
-86.0,136.0,5.66
-105.0,160.0,5.661
-125.0,177.0,5.662
-99.0,229.0,5.663
-42.0,294.0,5.664
-32.0,304.0,5.665
-71.0,236.0,5.666
-65.0,124.0,5.667
12.0,6.0,5.668
70.0,-107.0,5.669
51.0,-184.0,5.67
22.0,-177.0,5.671
41.0,-103.0,5.672
60.0,-38.0,5.673
40.0,-27.0,5.674
26.0,-34.0,5.675
51.0,-8.0,5.676
74.0,43.0,5.677
62.0,99.0,5.678
44.0,157.0,5.679
44.0,209.0,5.68
34.0,224.0,5.681
-4.0,177.0,5.682
-35.0,79.0,5.683
-36.0,-25.0,5.684
-26.0,-95.0,5.685
-20.0,-121.0,5.686
0.0,-117.0,5.687
34.0,-103.0,5.688
53.0,-88.0,5.689
45.0,-79.0,5.69
20.0,-88.0,5.691
-17.0,-117.0,5.692
-56.0,-153.0,5.693
-71.0,-158.0,5.694
-50.0,-130.0,5.695
-30.0,-87.0,5.696
-38.0,-48.0,5.697
-56.0,-9.0,5.698
-36.0,27.0,5.699
15.0,35.0,5.7
58.0,-13.0,5.701
80.0,-102.0,5.702
95.0,-199.0,5.703
98.0,-276.0,5.704
64.0,-312.0,5.705
8.0,-279.0,5.706
-18.0,-159.0,5.707
9.0,21.0,5.708
46.0,191.0,5.709
44.0,293.0,5.71
9.0,322.0,5.711
-8.0,299.0,5.712
4.0,229.0,5.713
16.0,135.0,5.714
6.0,73.0,5.715
-11.0,89.0,5.716
-26.0,149.0,5.717
-58.0,189.0,5.718
-91.0,191.0,5.719
-96.0,174.0,5.72
-64.0,144.0,5.721
-39.0,91.0,5.722
-50.0,17.0,5.723
-77.0,-39.0,5.724
-80.0,-57.0,5.725
-47.0,-59.0,5.726
21.0,-65.0,5.727
111.0,-79.0,5.728
197.0,-108.0,5.729
250.0,-161.0,5.73
258.0,-211.0,5.731
206.0,-206.0,5.732
73.0,-139.0,5.733
-112.0,-57.0,5.734
-258.0,-7.0,5.735
-290.0,21.0,5.736
-233.0,44.0,5.737
-139.0,50.0,5.738
-35.0,36.0,5.739
65.0,27.0,5.74
119.0,36.0,5.741
93.0,42.0,5.742
25.0,39.0,5.743
-19.0,32.0,5.744
-15.0,10.0,5.745
5.0,-8.0,5.746
15.0,-18.0,5.747
14.0,-27.0,5.748
10.0,-31.0,5.749
11.0,-37.0,5.75
20.0,-51.0,5.751
35.0,-58.0,5.752
49.0,-42.0,5.753
49.0,-19.0,5.754
29.0,20.0,5.755
1.0,49.0,5.756
-12.0,47.0,5.757
-2.0,34.0,5.758
15.0,-35.0,5.759
16.0,-149.0,5.76
6.0,-281.0,5.761
5.0,-374.0,5.762
15.0,-377.0,5.763
18.0,-275.0,5.764
11.0,-105.0,5.765
2.0,81.0,5.766
-3.0,251.0,5.767
-8.0,391.0,5.768
-9.0,488.0,5.769
-2.0,511.0,5.77
1.0,453.0,5.771
-9.0,347.0,5.772
-30.0,234.0,5.773
-43.0,128.0,5.774
-44.0,26.0,5.775
-43.0,-62.0,5.776
-41.0,-122.0,5.777
-35.0,-159.0,5.778
-21.0,-183.0,5.779
-2.0,-210.0,5.78
21.0,-248.0,5.781
51.0,-283.0,5.782
76.0,-275.0,5.783
78.0,-179.0,5.784
56.0,-10.0,5.785
33.0,155.0,5.786
30.0,245.0,5.787
44.0,254.0,5.788
47.0,210.0,5.789
24.0,123.0,5.79
-3.0,-2.0,5.791
-19.0,-136.0,5.792
-30.0,-217.0,5.793
-44.0,-200.0,5.794
-48.0,-90.0,5.795
-30.0,41.0,5.796
-3.0,91.0,5.797
15.0,21.0,5.798
24.0,-97.0,5.799
35.0,-145.0,5.8
40.0,-107.0,5.801
21.0,-58.0,5.802
-18.0,-42.0,5.803
-55.0,-20.0,5.804
-71.0,35.0,5.805
-69.0,90.0,5.806
-45.0,122.0,5.807
-12.0,159.0,5.808
-2.0,207.0,5.809
-14.0,212.0,5.81
7.0,159.0,5.811
98.0,99.0,5.812
200.0,78.0,5.813
222.0,61.0,5.814
146.0,17.0,5.815
32.0,-34.0,5.816
-73.0,-63.0,5.817
-179.0,-81.0,5.818
-256.0,-106.0,5.819
-265.0,-148.0,5.82
-206.0,-219.0,5.821
-115.0,-296.0,5.822
-18.0,-310.0,5.823
66.0,-208.0,5.824
101.0,-38.0,5.825
68.0,99.0,5.826
16.0,171.0,5.827
1.0,206.0,5.828
24.0,203.0,5.829
34.0,139.0,5.83
22.0,38.0,5.831
16.0,-37.0,5.832
27.0,-71.0,5.833
38.0,-103.0,5.834
32.0,-147.0,5.835
21.0,-168.0,5.836
30.0,-155.0,5.837
61.0,-131.0,5.838
79.0,-102.0,5.839
56.0,-51.0,5.84
12.0,25.0,5.841
-8.0,98.0,5.842
1.0,136.0,5.843
9.0,147.0,5.844
4.0,156.0,5.845
9.0,151.0,5.846
27.0,88.0,5.847
30.0,-56.0,5.848
4.0,-245.0,5.849
-25.0,-397.0,5.85
-36.0,-436.0,5.851
-29.0,-344.0,5.852
-12.0,-147.0,5.853
17.0,102.0,5.854
45.0,344.0,5.855
54.0,505.0,5.856
44.0,541.0,5.857
37.0,458.0,5.858
47.0,319.0,5.859
59.0,188.0,5.86
54.0,81.0,5.861
33.0,-6.0,5.862
10.0,-72.0,5.863
-11.0,-119.0,5.864
-27.0,-191.0,5.865
-36.0,-310.0,5.866
-35.0,-387.0,5.867
-32.0,-278.0,5.868
-37.0,21.0,5.869
-40.0,324.0,5.87
-30.0,456.0,5.871
-7.0,430.0,5.872
13.0,356.0,5.873
16.0,253.0,5.874
-1.0,92.0,5.875
-25.0,-78.0,5.876
-37.0,-171.0,5.877
-26.0,-188.0,5.878
-6.0,-182.0,5.879
-6.0,-174.0,5.88
-34.0,-149.0,5.881
-63.0,-120.0,5.882
-61.0,-132.0,5.883
-28.0,-172.0,5.884
4.0,-173.0,5.885
16.0,-111.0,5.886
14.0,-26.0,5.887
7.0,27.0,5.888
-14.0,36.0,5.889
-46.0,16.0,5.89
-63.0,-16.0,5.891
-45.0,-54.0,5.892
-3.0,-88.0,5.893
38.0,-95.0,5.894
70.0,-59.0,5.895
92.0,-4.0,5.896
91.0,32.0,5.897
63.0,41.0,5.898
33.0,45.0,5.899
19.0,43.0,5.9
15.0,16.0,5.901
2.0,-14.0,5.902
-10.0,-17.0,5.903
-14.0,-18.0,5.904
-19.0,-76.0,5.905
-12.0,-169.0,5.906
32.0,-174.0,5.907
94.0,-35.0,5.908
103.0,145.0,5.909
29.0,228.0,5.91
-55.0,207.0,5.911
-73.0,148.0,5.912
-53.0,75.0,5.913
-57.0,-14.0,5.914
-79.0,-69.0,5.915
-63.0,-46.0,5.916
-29.0,-2.0,5.917
-38.0,-45.0,5.918
-69.0,-179.0,5.919
-38.0,-270.0,5.92
53.0,-201.0,5.921
97.0,1.0,5.922
59.0,203.0,5.923
17.0,314.0,5.924
25.0,317.0,5.925
31.0,224.0,5.926
0.0,71.0,5.927
-15.0,-59.0,5.928
22.0,-77.0,5.929
61.0,11.0,5.93
50.0,91.0,5.931
28.0,67.0,5.932
54.0,-40.0,5.933
115.0,-142.0,5.934
165.0,-179.0,5.935
172.0,-130.0,5.936
138.0,-19.0,5.937
64.0,111.0,5.938
-27.0,184.0,5.939
-107.0,179.0,5.94
-154.0,143.0,5.941
-158.0,114.0,5.942
-131.0,63.0,5.943
-102.0,-26.0,5.944
-85.0,-112.0,5.945
-62.0,-145.0,5.946
-20.0,-135.0,5.947
2.0,-115.0,5.948
-12.0,-96.0,5.949
-25.0,-71.0,5.95
-2.0,-47.0,5.951
32.0,-34.0,5.952
46.0,-23.0,5.953
63.0,1.0,5.954
98.0,23.0,5.955
108.0,18.0,5.956
63.0,-10.0,5.957
-1.0,27.0,5.958
-35.0,-35.0,5.959
-71.0,-85.0,5.96
-142.0,-91.0,5.961
-181.0,-98.0,5.962
-112.0,-108.0,5.963
9.0,-110.0,5.964
72.0,-81.0,5.965
79.0,-68.0,5.966
107.0,-106.0,5.967
149.0,-137.0,5.968
131.0,-135.0,5.969
62.0,-153.0,5.97
26.0,-230.0,5.971
27.0,-317.0,5.972
0.0,-441.0,5.973
-50.0,-445.0,5.974
-64.0,-85.0,5.975
-43.0,231.0,5.976
-42.0,410.0,5.977
-52.0,64.0,5.978
-36.0,-16.0,5.979
-31.0,-79.0,5.98
-59.0,-87.0,5.981
-72.0,-96.0,5.982
-41.0,-110.0,5.983
-8.0,-112.0,5.984
32.0,-74.0,5.985
63.0,-58.0,5.986
65.0,-108.0,5.987
71.0,-147.0,5.988
86.0,-145.0,5.989
79.0,-168.0,5.99
4.0,-265.0,5.991
-55.0,-377.0,5.992
-70.0,-535.0,5.993
-68.0,-540.0,5.994
-12.0,-79.0,5.995
23.0,324.0,5.996
-8.0,552.0,5.997
-31.0,653.0,5.998
-4.0,345.0,5.999
38.0,187.0,6.0
36.0,187.0,6.001
3.0,164.0,6.002
-17.0,90.0,6.003
-20.0,59.0,6.004
-22.0,63.0,6.005
-13.0,23.0,6.006
10.0,-40.0,6.007
24.0,-78.0,6.008
19.0,-94.0,6.009
23.0,-91.0,6.01
49.0,-30.0,6.011
80.0,58.0,6.012
113.0,65.0,6.013
154.0,-14.0,6.014
176.0,-70.0,6.015
138.0,-54.0,6.016
63.0,-39.0,6.017
-13.0,-85.0,6.018
-89.0,-147.0,6.019
-169.0,-169.0,6.02
-193.0,-150.0,6.021
-95.0,-92.0,6.022
59.0,-14.0,6.023
132.0,39.0,6.024
80.0,36.0,6.025
-23.0,3.0,6.026
-122.0,-26.0,6.027
-201.0,-61.0,6.028
-224.0,-87.0,6.029
-161.0,-51.0,6.03
-74.0,32.0,6.031
-56.0,67.0,6.032
-93.0,23.0,6.033
-86.0,-25.0,6.034
-10.0,-20.0,6.035
62.0,-12.0,6.036
92.0,-32.0,6.037
115.0,-32.0,6.038
167.0,41.0,6.039
212.0,137.0,6.04
191.0,170.0,6.041
93.0,143.0,6.042
-31.0,103.0,6.043
-134.0,67.0,6.044
-208.0,35.0,6.045
-233.0,25.0,6.046
-174.0,46.0,6.047
-35.0,64.0,6.048
104.0,32.0,6.049
177.0,-45.0,6.05
200.0,-119.0,6.051
205.0,-141.0,6.052
182.0,-99.0,6.053
121.0,-28.0,6.054
62.0,7.0,6.055
30.0,-8.0,6.056
-1.0,-24.0,6.057
-64.0,-5.0,6.058
-120.0,19.0,6.059
-121.0,-11.0,6.06
-76.0,-92.0,6.061
-44.0,-153.0,6.062
-54.0,-155.0,6.063
-66.0,-96.0,6.064
-27.0,1.0,6.065
45.0,78.0,6.066
76.0,78.0,6.067
38.0,26.0,6.068
-8.0,12.0,6.069
-3.0,55.0,6.07
30.0,79.0,6.071
58.0,50.0,6.072
102.0,30.0,6.073
171.0,62.0,6.074
206.0,106.0,6.075
152.0,122.0,6.076
44.0,123.0,6.077
-53.0,102.0,6.078
-154.0,39.0,6.079
-219.0,-29.0,6.08
-204.0,-45.0,6.081
-107.0,-17.0,6.082
-19.0,-17.0,6.083
-21.0,-56.0,6.084
-83.0,-72.0,6.085
-105.0,-56.0,6.086
-73.0,-50.0,6.087
-47.0,-59.0,6.088
-43.0,-45.0,6.089
-16.0,-29.0,6.09
47.0,-66.0,6.091
88.0,-124.0,6.092
83.0,-91.0,6.093
93.0,56.0,6.094
178.0,191.0,6.095
308.0,206.0,6.096
393.0,146.0,6.097
350.0,90.0,6.098
203.0,44.0,6.099
59.0,-11.0,6.1
-76.0,-91.0,6.101
-200.0,-133.0,6.102
-288.0,-58.0,6.103
-356.0,-8.0,6.104
-362.0,-38.0,6.105
-348.0,-62.0,6.106
-270.0,-67.0,6.107
-181.0,-63.0,6.108
-58.0,-31.0,6.109
19.0,-3.0,6.11
-42.0,10.0,6.111
-76.0,23.0,6.112
-24.0,31.0,6.113
23.0,29.0,6.114
57.0,-8.0,6.115
116.0,-34.0,6.116
244.0,-24.0,6.117
387.0,-3.0,6.118
495.0,59.0,6.119
414.0,116.0,6.12
223.0,130.0,6.121
12.0,97.0,6.122
-215.0,36.0,6.123
-417.0,-20.0,6.124
-432.0,-54.0,6.125
-185.0,-63.0,6.126
143.0,-50.0,6.127
304.0,-21.0,6.128
259.0,14.0,6.129
127.0,27.0,6.13
-41.0,-11.0,6.131
-241.0,-86.0,6.132
-355.0,-125.0,6.133
-257.0,-85.0,6.134
-46.0,-25.0,6.135
56.0,-20.0,6.136
19.0,-53.0,6.137
-11.0,-49.0,6.138
45.0,-3.0,6.139
78.0,12.0,6.14
54.0,-12.0,6.141
48.0,-16.0,6.142
86.0,18.0,6.143
95.0,36.0,6.144
54.0,14.0,6.145
28.0,-13.0,6.146
45.0,-10.0,6.147
45.0,10.0,6.148
-12.0,32.0,6.149
-81.0,52.0,6.15
-92.0,68.0,6.151
-34.0,72.0,6.152
68.0,70.0,6.153
180.0,65.0,6.154
236.0,44.0,6.155
166.0,4.0,6.156
-6.0,-30.0,6.157
-172.0,-50.0,6.158
-206.0,-57.0,6.159
-120.0,-52.0,6.16
-24.0,-23.0,6.161
27.0,26.0,6.162
51.0,58.0,6.163
57.0,52.0,6.164
41.0,39.0,6.165
51.0,46.0,6.166
117.0,65.0,6.167
168.0,73.0,6.168
120.0,68.0,6.169
5.0,55.0,6.17
-72.0,28.0,6.171
-67.0,-2.0,6.172
10.0,-7.0,6.173
181.0,15.0,6.174
403.0,28.0,6.175
478.0,2.0,6.176
261.0,-38.0,6.177
-188.0,-69.0,6.178
-555.0,-93.0,6.179
-644.0,-112.0,6.18
-513.0,-110.0,6.181
-267.0,-66.0,6.182
27.0,-9.0,6.183
211.0,12.0,6.184
114.0,-4.0,6.185
-166.0,-32.0,6.186
-309.0,-50.0,6.187
-219.0,-57.0,6.188
-131.0,-57.0,6.189
-179.0,-59.0,6.19
-178.0,-66.0,6.191
8.0,-58.0,6.192
190.0,-14.0,6.193
171.0,36.0,6.194
72.0,44.0,6.195
91.0,16.0,6.196
176.0,0.0,6.197
181.0,5.0,6.198
125.0,-6.0,6.199
101.0,-35.0,6.2
97.0,-42.0,6.201
59.0,-4.0,6.202
40.0,33.0,6.203
95.0,42.0,6.204
141.0,59.0,6.205
107.0,110.0,6.206
47.0,149.0,6.207
21.0,130.0,6.208
5.0,73.0,6.209
-2.0,39.0,6.21
46.0,41.0,6.211
110.0,48.0,6.212
76.0,38.0,6.213
-38.0,8.0,6.214
-86.0,-29.0,6.215
-31.0,-55.0,6.216
7.0,-49.0,6.217
-21.0,-21.0,6.218
-15.0,2.0,6.219
73.0,5.0,6.22
153.0,2.0,6.221
172.0,17.0,6.222
198.0,34.0,6.223
242.0,22.0,6.224
189.0,-10.0,6.225
-17.0,-31.0,6.226
-259.0,-40.0,6.227
-407.0,-72.0,6.228
-420.0,-119.0,6.229
-308.0,-121.0,6.23
-139.0,-49.0,6.231
-66.0,26.0,6.232
-188.0,34.0,6.233
-357.0,-2.0,6.234
-315.0,-13.0,6.235
-18.0,7.0,6.236
297.0,22.0,6.237
428.0,17.0,6.238
312.0,11.0,6.239
48.0,-1.0,6.24
-181.0,-23.0,6.241
-232.0,-16.0,6.242
-116.0,51.0,6.243
-22.0,120.0,6.244
-101.0,99.0,6.245
-259.0,-31.0,6.246
-228.0,-181.0,6.247
91.0,-240.0,6.248
464.0,-172.0,6.249
532.0,-51.0,6.25
241.0,11.0,6.251
-55.0,-10.0,6.252
3.0,-30.0,6.253
316.0,15.0,6.254
462.0,76.0,6.255
266.0,74.0,6.256
-22.0,32.0,6.257
-181.0,6.0,6.258
-199.0,10.0,6.259
-159.0,21.0,6.26
-58.0,38.0,6.261
45.0,72.0,6.262
-22.0,78.0,6.263
-263.0,27.0,6.264
-399.0,-26.0,6.265
-245.0,-18.0,6.266
9.0,31.0,6.267
96.0,53.0,6.268
37.0,33.0,6.269
16.0,10.0,6.27
55.0,13.0,6.271
54.0,24.0,6.272
25.0,24.0,6.273
47.0,9.0,6.274
97.0,-10.0,6.275
95.0,-18.0,6.276
49.0,-14.0,6.277
17.0,-18.0,6.278
12.0,-36.0,6.279
11.0,-47.0,6.28
52.0,-25.0,6.281
178.0,30.0,6.282
328.0,79.0,6.283
372.0,101.0,6.284
265.0,101.0,6.285
91.0,87.0,6.286
-51.0,53.0,6.287
-138.0,4.0,6.288
-212.0,-32.0,6.289
-304.0,-47.0,6.29
-387.0,-58.0,6.291
-409.0,-75.0,6.292
-343.0,-83.0,6.293
-221.0,-61.0,6.294
-97.0,-28.0,6.295
-6.0,-11.0,6.296
41.0,-9.0,6.297
50.0,-7.0,6.298
40.0,1.0,6.299
38.0,5.0,6.3
56.0,-4.0,6.301
89.0,0.0,6.302
164.0,46.0,6.303
324.0,87.0,6.304
530.0,111.0,6.305
616.0,111.0,6.306
407.0,41.0,6.307
-82.0,-42.0,6.308
-569.0,-165.0,6.309
-696.0,-236.0,6.31
-383.0,-150.0,6.311
49.0,-69.0,6.312
205.0,-6.0,6.313
52.0,34.0,6.314
-106.0,6.0,6.315
-74.0,-7.0,6.316
42.0,22.0,6.317
125.0,44.0,6.318
199.0,53.0,6.319
289.0,102.0,6.32
269.0,132.0,6.321
46.0,68.0,6.322
-252.0,-46.0,6.323
-444.0,-103.0,6.324
-499.0,-85.0,6.325
-456.0,-74.0,6.326
-295.0,-92.0,6.327
-40.0,-79.0,6.328
139.0,-12.0,6.329
115.0,34.0,6.33
4.0,2.0,6.331
6.0,-54.0,6.332
116.0,-47.0,6.333
165.0,10.0,6.334
105.0,41.0,6.335
57.0,21.0,6.336
90.0,2.0,6.337
129.0,12.0,6.338
104.0,30.0,6.339
61.0,43.0,6.34
68.0,35.0,6.341
92.0,30.0,6.342
77.0,35.0,6.343
44.0,38.0,6.344
40.0,32.0,6.345
51.0,27.0,6.346
43.0,25.0,6.347
27.0,19.0,6.348
28.0,4.0,6.349
33.0,-7.0,6.35
25.0,-1.0,6.351
15.0,2.0,6.352
15.0,-2.0,6.353
12.0,-5.0,6.354
-2.0,-2.0,6.355
-10.0,4.0,6.356
-4.0,24.0,6.357
-3.0,43.0,6.358
-17.0,50.0,6.359
-30.0,43.0,6.36
-30.0,25.0,6.361
-22.0,7.0,6.362
-19.0,-8.0,6.363
-17.0,-19.0,6.364
-17.0,-21.0,6.365
-25.0,-19.0,6.366
-37.0,-20.0,6.367
-35.0,-24.0,6.368
-22.0,-25.0,6.369
-13.0,-21.0,6.37
-11.0,-12.0,6.371
-9.0,0.0,6.372
-6.0,13.0,6.373
-8.0,13.0,6.374
-7.0,-8.0,6.375
7.0,-40.0,6.376
30.0,-51.0,6.377
40.0,-36.0,6.378
35.0,-7.0,6.379
34.0,2.0,6.38
81.0,-6.0,6.381
198.0,-3.0,6.382
346.0,30.0,6.383
412.0,69.0,6.384
275.0,70.0,6.385
-88.0,15.0,6.386
-524.0,-69.0,6.387
-758.0,-125.0,6.388
-625.0,-103.0,6.389
-257.0,-9.0,6.39
8.0,85.0,6.391
1.0,105.0,6.392
-101.0,54.0,6.393
-65.0,4.0,6.394
66.0,1.0,6.395
110.0,14.0,6.396
63.0,8.0,6.397
55.0,-11.0,6.398
126.0,-13.0,6.399
177.0,-2.0,6.4
177.0,-2.0,6.401
198.0,-4.0,6.402
264.0,11.0,6.403
310.0,40.0,6.404
301.0,61.0,6.405
237.0,61.0,6.406
74.0,35.0,6.407
-209.0,-24.0,6.408
-479.0,-104.0,6.409
-546.0,-156.0,6.41
-393.0,-150.0,6.411
-194.0,-103.0,6.412
-79.0,-60.0,6.413
-27.0,-31.0,6.414
22.0,-3.0,6.415
60.0,20.0,6.416
64.0,26.0,6.417
58.0,14.0,6.418
70.0,13.0,6.419
84.0,27.0,6.42
78.0,30.0,6.421
66.0,22.0,6.422
73.0,16.0,6.423
79.0,20.0,6.424
62.0,21.0,6.425
45.0,18.0,6.426
48.0,18.0,6.427
57.0,26.0,6.428
62.0,29.0,6.429
72.0,32.0,6.43
88.0,34.0,6.431
80.0,32.0,6.432
31.0,18.0,6.433
-25.0,-1.0,6.434
-42.0,-13.0,6.435
-21.0,-15.0,6.436
1.0,-12.0,6.437
4.0,-12.0,6.438
-2.0,-12.0,6.439
-7.0,-10.0,6.44
-3.0,-10.0,6.441
0.0,-8.0,6.442
-4.0,-6.0,6.443
-7.0,-3.0,6.444
-4.0,3.0,6.445
-1.0,7.0,6.446
1.0,8.0,6.447
7.0,8.0,6.448
25.0,10.0,6.449
46.0,15.0,6.45
50.0,19.0,6.451
36.0,18.0,6.452
20.0,12.0,6.453
21.0,5.0,6.454
51.0,2.0,6.455
100.0,4.0,6.456
127.0,12.0,6.457
76.0,5.0,6.458
-61.0,-24.0,6.459
-205.0,-69.0,6.46
-259.0,-97.0,6.461
-238.0,-88.0,6.462
-226.0,-57.0,6.463
-228.0,-27.0,6.464
-158.0,-4.0,6.465
-16.0,19.0,6.466
76.0,42.0,6.467
54.0,56.0,6.468
18.0,65.0,6.469
53.0,68.0,6.47
98.0,63.0,6.471
90.0,49.0,6.472
94.0,34.0,6.473
172.0,31.0,6.474
241.0,37.0,6.475
193.0,41.0,6.476
56.0,40.0,6.477
-97.0,30.0,6.478
-208.0,12.0,6.479
-248.0,-21.0,6.48
-175.0,-61.0,6.481
-26.0,-85.0,6.482
74.0,-88.0,6.483
59.0,-81.0,6.484
14.0,-67.0,6.485
41.0,-39.0,6.486
97.0,-5.0,6.487
85.0,10.0,6.488
17.0,0.0,6.489
-10.0,-8.0,6.49
22.0,3.0,6.491
45.0,14.0,6.492
28.0,7.0,6.493
15.0,-4.0,6.494
27.0,4.0,6.495
34.0,15.0,6.496
23.0,13.0,6.497
18.0,5.0,6.498
33.0,8.0,6.499
42.0,13.0,6.5
26.0,4.0,6.501
7.0,-4.0,6.502
-2.0,-3.0,6.503
-17.0,-4.0,6.504
-47.0,-12.0,6.505
-68.0,-19.0,6.506
-51.0,-10.0,6.507
-2.0,6.0,6.508
37.0,13.0,6.509
47.0,17.0,6.51
39.0,23.0,6.511
29.0,27.0,6.512
8.0,22.0,6.513
-31.0,11.0,6.514
-66.0,2.0,6.515
-48.0,-5.0,6.516
26.0,-4.0,6.517
117.0,7.0,6.518
150.0,24.0,6.519
86.0,19.0,6.52
-37.0,-17.0,6.521
-153.0,-67.0,6.522
-207.0,-107.0,6.523
-183.0,-105.0,6.524
-101.0,-54.0,6.525
-14.0,22.0,6.526
21.0,70.0,6.527
-3.0,66.0,6.528
-31.0,42.0,6.529
-15.0,34.0,6.53
33.0,36.0,6.531
57.0,23.0,6.532
43.0,0.0,6.533
21.0,-8.0,6.534
18.0,-6.0,6.535
25.0,-11.0,6.536
35.0,-18.0,6.537
48.0,-15.0,6.538
83.0,-3.0,6.539
176.0,10.0,6.54
345.0,34.0,6.541
508.0,70.0,6.542
498.0,70.0,6.543
203.0,-8.0,6.544
-291.0,-138.0,6.545
-737.0,-237.0,6.546
-881.0,-252.0,6.547
-638.0,-174.0,6.548
-205.0,-43.0,6.549
75.0,62.0,6.55
62.0,83.0,6.551
-37.0,60.0,6.552
14.0,79.0,6.553
155.0,149.0,6.554
186.0,198.0,6.555
121.0,187.0,6.556
115.0,156.0,6.557
167.0,132.0,6.558
135.0,104.0,6.559
8.0,58.0,6.56
-69.0,12.0,6.561
-40.0,-19.0,6.562
5.0,-48.0,6.563
20.0,-66.0,6.564
31.0,-50.0,6.565
21.0,-19.0,6.566
-36.0,-13.0,6.567
-71.0,-35.0,6.568
-10.0,-47.0,6.569
86.0,-44.0,6.57
107.0,-46.0,6.571
59.0,-61.0,6.572
31.0,-68.0,6.573
39.0,-57.0,6.574
42.0,-41.0,6.575
36.0,-30.0,6.576
51.0,-25.0,6.577
69.0,-24.0,6.578
56.0,-26.0,6.579
21.0,-23.0,6.58
6.0,-17.0,6.581
9.0,-10.0,6.582
2.0,-7.0,6.583
-11.0,1.0,6.584
-8.0,11.0,6.585
9.0,14.0,6.586
18.0,10.0,6.587
12.0,10.0,6.588
-1.0,13.0,6.589
-14.0,12.0,6.59
-25.0,6.0,6.591
-33.0,4.0,6.592
-37.0,9.0,6.593
-35.0,9.0,6.594
-24.0,5.0,6.595
-1.0,4.0,6.596
18.0,11.0,6.597
5.0,15.0,6.598
-34.0,13.0,6.599
-71.0,7.0,6.6
-78.0,0.0,6.601
-52.0,-5.0,6.602
-9.0,-11.0,6.603
25.0,-11.0,6.604
39.0,-2.0,6.605
27.0,0.0,6.606
12.0,-10.0,6.607
20.0,-23.0,6.608
66.0,-20.0,6.609
115.0,-2.0,6.61
117.0,18.0,6.611
64.0,27.0,6.612
11.0,29.0,6.613
-5.0,28.0,6.614
-9.0,25.0,6.615
-29.0,23.0,6.616
-51.0,23.0,6.617
-64.0,18.0,6.618
-92.0,-2.0,6.619
-140.0,-32.0,6.62
-157.0,-53.0,6.621
-118.0,-42.0,6.622
-69.0,-13.0,6.623
-61.0,3.0,6.624
-63.0,-3.0,6.625
-27.0,-10.0,6.626
29.0,-1.0,6.627
67.0,15.0,6.628
94.0,19.0,6.629
135.0,9.0,6.63
169.0,0.0,6.631
155.0,-3.0,6.632
87.0,-2.0,6.633
0.0,-1.0,6.634
-75.0,-1.0,6.635
-122.0,-6.0,6.636
-137.0,-15.0,6.637
-124.0,-30.0,6.638
-83.0,-34.0,6.639
-30.0,-25.0,6.64
3.0,-18.0,6.641
10.0,-14.0,6.642
24.0,-7.0,6.643
71.0,8.0,6.644
121.0,14.0,6.645
126.0,-17.0,6.646
90.0,-84.0,6.647
53.0,-141.0,6.648
34.0,-133.0,6.649
42.0,-58.0,6.65
70.0,15.0,6.651
82.0,20.0,6.652
36.0,-27.0,6.653
-40.0,-35.0,6.654
-65.0,42.0,6.655
-26.0,148.0,6.656
7.0,197.0,6.657
5.0,187.0,6.658
8.0,166.0,6.659
28.0,156.0,6.66
7.0,127.0,6.661
-71.0,82.0,6.662
-125.0,55.0,6.663
-105.0,55.0,6.664
-66.0,50.0,6.665
-67.0,30.0,6.666
-71.0,20.0,6.667
-26.0,16.0,6.668
49.0,-19.0,6.669
94.0,-94.0,6.67
101.0,-151.0,6.671
91.0,-144.0,6.672
70.0,-90.0,6.673
46.0,-43.0,6.674
40.0,-29.0,6.675
43.0,-29.0,6.676
28.0,-21.0,6.677
-15.0,-8.0,6.678
-48.0,-4.0,6.679
-52.0,-16.0,6.68
-49.0,-33.0,6.681
-54.0,-37.0,6.682
-46.0,-34.0,6.683
-10.0,-27.0,6.684
48.0,-14.0,6.685
116.0,2.0,6.686
162.0,6.0,6.687
142.0,-9.0,6.688
50.0,-24.0,6.689
-63.0,-21.0,6.69
-147.0,-7.0,6.691
-195.0,0.0,6.692
-202.0,5.0,6.693
-132.0,15.0,6.694
0.0,29.0,6.695
102.0,36.0,6.696
109.0,39.0,6.697
62.0,39.0,6.698
31.0,29.0,6.699
4.0,-2.0,6.7
-13.0,-45.0,6.701
-20.0,-73.0,6.702
4.0,-72.0,6.703
16.0,-51.0,6.704
-9.0,-27.0,6.705
-38.0,-19.0,6.706
-75.0,-23.0,6.707
-86.0,-24.0,6.708
-15.0,-12.0,6.709
40.0,2.0,6.71
48.0,11.0,6.711
56.0,17.0,6.712
66.0,24.0,6.713
68.0,28.0,6.714
45.0,28.0,6.715
28.0,23.0,6.716
31.0,21.0,6.717
39.0,15.0,6.718
61.0,7.0,6.719
87.0,4.0,6.72
114.0,8.0,6.721
99.0,15.0,6.722
18.0,16.0,6.723
-66.0,15.0,6.724
-70.0,21.0,6.725
-10.0,22.0,6.726
19.0,12.0,6.727
-15.0,4.0,6.728
-59.0,12.0,6.729
-91.0,28.0,6.73
-142.0,25.0,6.731
-196.0,-2.0,6.732
-169.0,-33.0,6.733
-43.0,-46.0,6.734
76.0,-36.0,6.735
98.0,-17.0,6.736
68.0,-6.0,6.737
76.0,-13.0,6.738
101.0,-18.0,6.739
66.0,-20.0,6.74
-8.0,-9.0,6.741
-34.0,3.0,6.742
-4.0,17.0,6.743
11.0,33.0,6.744
-21.0,50.0,6.745
-44.0,59.0,6.746
-14.0,43.0,6.747
38.0,23.0,6.748
65.0,-5.0,6.749
55.0,-29.0,6.75
23.0,-37.0,6.751
-11.0,-39.0,6.752
-19.0,-20.0,6.753
12.0,-6.0,6.754
49.0,-9.0,6.755
52.0,-12.0,6.756
36.0,-12.0,6.757
31.0,-10.0,6.758
33.0,-6.0,6.759
14.0,-3.0,6.76
-20.0,-3.0,6.761
-33.0,-1.0,6.762
-26.0,2.0,6.763
-24.0,3.0,6.764
-30.0,6.0,6.765
-19.0,9.0,6.766
-1.0,13.0,6.767
1.0,12.0,6.768
-9.0,7.0,6.769
-11.0,7.0,6.77
-8.0,11.0,6.771
-13.0,11.0,6.772
-15.0,6.0,6.773
4.0,0.0,6.774
31.0,0.0,6.775
38.0,9.0,6.776
24.0,12.0,6.777
0.0,4.0,6.778
-24.0,-4.0,6.779
-43.0,-11.0,6.78
-47.0,-13.0,6.781
-40.0,-15.0,6.782
1.0,-15.0,6.783
32.0,-12.0,6.784
32.0,-1.0,6.785
25.0,7.0,6.786
-4.0,4.0,6.787
-27.0,0.0,6.788
-32.0,-6.0,6.789
-32.0,-11.0,6.79
-14.0,-11.0,6.791
-3.0,-9.0,6.792
-18.0,-2.0,6.793
-30.0,5.0,6.794
-32.0,15.0,6.795
-15.0,23.0,6.796
66.0,25.0,6.797
152.0,27.0,6.798
217.0,27.0,6.799
208.0,21.0,6.8
124.0,1.0,6.801
2.0,-24.0,6.802
-104.0,-46.0,6.803
-161.0,-49.0,6.804
-173.0,-36.0,6.805
-151.0,-18.0,6.806
-93.0,-7.0,6.807
-14.0,-4.0,6.808
32.0,-4.0,6.809
21.0,-7.0,6.81
-5.0,-12.0,6.811
5.0,-10.0,6.812
34.0,0.0,6.813
42.0,11.0,6.814
39.0,9.0,6.815
51.0,1.0,6.816
60.0,0.0,6.817
29.0,9.0,6.818
-19.0,15.0,6.819
-45.0,17.0,6.82
-45.0,17.0,6.821
-41.0,16.0,6.822
-35.0,13.0,6.823
-10.0,11.0,6.824
11.0,18.0,6.825
17.0,23.0,6.826
29.0,11.0,6.827
57.0,-8.0,6.828
66.0,-14.0,6.829
38.0,-3.0,6.83
10.0,7.0,6.831
21.0,3.0,6.832
38.0,-2.0,6.833
21.0,0.0,6.834
-12.0,4.0,6.835
-9.0,-5.0,6.836
29.0,-18.0,6.837
47.0,-26.0,6.838
24.0,-19.0,6.839
-9.0,-13.0,6.84
-22.0,-18.0,6.841
-31.0,-21.0,6.842
-47.0,-10.0,6.843
-54.0,4.0,6.844
-34.0,9.0,6.845
-7.0,6.0,6.846
9.0,7.0,6.847
19.0,15.0,6.848
34.0,17.0,6.849
43.0,13.0,6.85
34.0,10.0,6.851
12.0,10.0,6.852
-6.0,10.0,6.853
-8.0,8.0,6.854
11.0,5.0,6.855
43.0,-2.0,6.856
67.0,-13.0,6.857
61.0,-22.0,6.858
31.0,-20.0,6.859
5.0,-19.0,6.86
-11.0,-19.0,6.861
-26.0,-16.0,6.862
-40.0,-9.0,6.863
-49.0,-1.0,6.864
-43.0,10.0,6.865
-37.0,17.0,6.866
-34.0,11.0,6.867
-28.0,7.0,6.868
-17.0,12.0,6.869
-9.0,16.0,6.87
-11.0,12.0,6.871
-8.0,8.0,6.872
16.0,4.0,6.873
38.0,0.0,6.874
58.0,2.0,6.875
70.0,5.0,6.876
58.0,6.0,6.877
38.0,4.0,6.878
-8.0,-8.0,6.879
-52.0,-18.0,6.88
-72.0,-25.0,6.881
-69.0,-23.0,6.882
-62.0,-20.0,6.883
-64.0,-15.0,6.884
-68.0,-1.0,6.885
-58.0,9.0,6.886
-27.0,2.0,6.887
12.0,-18.0,6.888
43.0,-22.0,6.889
56.0,2.0,6.89
50.0,30.0,6.891
29.0,32.0,6.892
12.0,10.0,6.893
13.0,-4.0,6.894
26.0,-6.0,6.895
27.0,-13.0,6.896
17.0,-25.0,6.897
13.0,-24.0,6.898
24.0,-7.0,6.899
30.0,4.0,6.9
19.0,-6.0,6.901
4.0,-13.0,6.902
5.0,-2.0,6.903
11.0,11.0,6.904
3.0,12.0,6.905
-11.0,10.0,6.906
-15.0,18.0,6.907
-9.0,25.0,6.908
-6.0,21.0,6.909
-5.0,13.0,6.91
3.0,10.0,6.911
18.0,10.0,6.912
31.0,5.0,6.913
47.0,0.0,6.914
66.0,-1.0,6.915
74.0,-5.0,6.916
54.0,-11.0,6.917
-9.0,-12.0,6.918
8.0,0.0,6.919
27.0,9.0,6.92
50.0,2.0,6.921
64.0,-9.0,6.922
49.0,-14.0,6.923
35.0,-11.0,6.924
22.0,-5.0,6.925
10.0,3.0,6.926
-4.0,9.0,6.927
-11.0,9.0,6.928
5.0,7.0,6.929
17.0,8.0,6.93
10.0,8.0,6.931
7.0,4.0,6.932
20.0,-2.0,6.933
28.0,-4.0,6.934
14.0,-4.0,6.935
3.0,-4.0,6.936
7.0,1.0,6.937
-11.0,15.0,6.938
7.0,39.0,6.939
28.0,60.0,6.94
53.0,62.0,6.941
68.0,42.0,6.942
52.0,0.0,6.943
37.0,-51.0,6.944
23.0,-96.0,6.945
9.0,-123.0,6.946
-6.0,-120.0,6.947
-13.0,-91.0,6.948
4.0,-47.0,6.949
16.0,-9.0,6.95
9.0,13.0,6.951
6.0,26.0,6.952
21.0,29.0,6.953
29.0,20.0,6.954
13.0,3.0,6.955
1.0,-9.0,6.956
6.0,-15.0,6.957
8.0,-20.0,6.958
-3.0,-12.0,6.959
1.0,5.0,6.96
20.0,18.0,6.961
10.0,17.0,6.962
-29.0,11.0,6.963
-53.0,12.0,6.964
-47.0,20.0,6.965
-41.0,22.0,6.966
-44.0,20.0,6.967
-37.0,27.0,6.968
-12.0,35.0,6.969
10.0,31.0,6.97
14.0,21.0,6.971
16.0,16.0,6.972
19.0,19.0,6.973
17.0,16.0,6.974
9.0,7.0,6.975
2.0,2.0,6.976
-7.0,5.0,6.977
-23.0,6.0,6.978
-21.0,5.0,6.979
13.0,8.0,6.98
59.0,15.0,6.981
77.0,25.0,6.982
70.0,26.0,6.983
63.0,18.0,6.984
52.0,5.0,6.985
21.0,-11.0,6.986
-29.0,-32.0,6.987
-90.0,-51.0,6.988
-145.0,-57.0,6.989
-169.0,-40.0,6.99
-152.0,-8.0,6.991
-109.0,23.0,6.992
-63.0,37.0,6.993
6.0,35.0,6.994
114.0,29.0,6.995
209.0,19.0,6.996
217.0,4.0,6.997
-115.0,-20.0,6.998
-121.0,-42.0,6.999
-107.0,-60.0,7.0
-29.0,-80.0,7.001
31.0,-84.0,7.002
47.0,-57.0,7.003
58.0,-9.0,7.004
42.0,20.0,7.005
22.0,18.0,7.006
-17.0,12.0,7.007
-53.0,24.0,7.008
-74.0,34.0,7.009
-83.0,27.0,7.01
-48.0,19.0,7.011
-6.0,27.0,7.012
60.0,34.0,7.013
115.0,26.0,7.014
128.0,14.0,7.015
133.0,13.0,7.016
115.0,9.0,7.017
-71.0,-16.0,7.018
-75.0,-41.0,7.019
-66.0,-54.0,7.02
-17.0,-32.0,7.021
22.0,-13.0,7.022
32.0,-4.0,7.023
39.0,5.0,7.024
29.0,13.0,7.025
16.0,19.0,7.026
-9.0,21.0,7.027
-32.0,22.0,7.028
-45.0,16.0,7.029
-51.0,12.0,7.03
-29.0,11.0,7.031
-2.0,11.0,7.032
40.0,17.0,7.033
75.0,24.0,7.034
83.0,28.0,7.035
86.0,30.0,7.036
75.0,28.0,7.037
57.0,26.0,7.038
1.0,19.0,7.039
-69.0,4.0,7.04
-107.0,-10.0,7.041
-101.0,-10.0,7.042
-83.0,-16.0,7.043
-72.0,-48.0,7.044
-30.0,-88.0,7.045
60.0,-87.0,7.046
124.0,-40.0,7.047
84.0,1.0,7.048
-26.0,-3.0,7.049
-91.0,-22.0,7.05
-68.0,-13.0,7.051
-13.0,14.0,7.052
22.0,26.0,7.053
25.0,24.0,7.054
-15.0,32.0,7.055
-92.0,46.0,7.056
-144.0,43.0,7.057
-113.0,24.0,7.058
-12.0,10.0,7.059
88.0,9.0,7.06
154.0,-6.0,7.061
180.0,-37.0,7.062
135.0,-62.0,7.063
16.0,-51.0,7.064
-87.0,-11.0,7.065
-82.0,21.0,7.066
-9.0,18.0,7.067
24.0,-6.0,7.068
8.0,-17.0,7.069
6.0,-18.0,7.07
14.0,-35.0,7.071
-24.0,-63.0,7.072
-73.0,-57.0,7.073
-34.0,-3.0,7.074
74.0,44.0,7.075
124.0,45.0,7.076
84.0,30.0,7.077
43.0,29.0,7.078
66.0,40.0,7.079
92.0,36.0,7.08
60.0,26.0,7.081
5.0,32.0,7.082
-17.0,38.0,7.083
-37.0,19.0,7.084
-85.0,-14.0,7.085
-124.0,-33.0,7.086
-114.0,-44.0,7.087
-86.0,-64.0,7.088
-80.0,-79.0,7.089
-72.0,-69.0,7.09
-23.0,-50.0,7.091
37.0,-50.0,7.092
29.0,-63.0,7.093
-74.0,-61.0,7.094
-208.0,-36.0,7.095
-278.0,-2.0,7.096
-232.0,39.0,7.097
-82.0,97.0,7.098
79.0,167.0,7.099
208.0,219.0,7.1
233.0,227.0,7.101
289.0,185.0,7.102
434.0,106.0,7.103
508.0,37.0,7.104
369.0,26.0,7.105
203.0,51.0,7.106
-45.0,19.0,7.107
-223.0,-96.0,7.108
-187.0,-195.0,7.109
-141.0,-176.0,7.11
-71.0,-81.0,7.111
-18.0,-25.0,7.112
-13.0,-32.0,7.113
-11.0,-40.0,7.114
-21.0,-22.0,7.115
-32.0,-21.0,7.116
-40.0,-44.0,7.117
-67.0,-55.0,7.118
-160.0,-23.0,7.119
-201.0,18.0,7.12
-137.0,30.0,7.121
-43.0,27.0,7.122
-27.0,23.0,7.123
-66.0,6.0,7.124
-47.0,-25.0,7.125
47.0,-55.0,7.126
108.0,-62.0,7.127
69.0,-45.0,7.128
7.0,-12.0,7.129
22.0,25.0,7.13
84.0,48.0,7.131
100.0,36.0,7.132
42.0,3.0,7.133
-44.0,-22.0,7.134
-118.0,-35.0,7.135
-173.0,-42.0,7.136
-189.0,-32.0,7.137
-147.0,2.0,7.138
-54.0,38.0,7.139
46.0,38.0,7.14
123.0,8.0,7.141
166.0,-15.0,7.142
167.0,-30.0,7.143
129.0,-51.0,7.144
87.0,-57.0,7.145
57.0,-25.0,7.146
21.0,17.0,7.147
-39.0,16.0,7.148
-88.0,-13.0,7.149
-98.0,-9.0,7.15
-110.0,33.0,7.151
-153.0,62.0,7.152
-147.0,66.0,7.153
3.0,93.0,7.154
207.0,147.0,7.155
258.0,170.0,7.156
118.0,129.0,7.157
-54.0,38.0,7.158
-80.0,-65.0,7.159
23.0,-142.0,7.16
153.0,-147.0,7.161
272.0,-69.0,7.162
349.0,-4.0,7.163
288.0,-42.0,7.164
81.0,-120.0,7.165
-122.0,-118.0,7.166
-192.0,-42.0,7.167
-155.0,-3.0,7.168
-101.0,-20.0,7.169
-71.0,-10.0,7.17
-80.0,43.0,7.171
-130.0,53.0,7.172
-172.0,2.0,7.173
-161.0,-39.0,7.174
-127.0,-46.0,7.175
-97.0,-72.0,7.176
-31.0,-119.0,7.177
69.0,-129.0,7.178
116.0,-87.0,7.179
138.0,-47.0,7.18
83.0,-32.0,7.181
9.0,11.0,7.182
-120.0,90.0,7.183
-226.0,156.0,7.184
-254.0,194.0,7.185
-203.0,237.0,7.186
85.0,280.0,7.187
307.0,281.0,7.188
330.0,221.0,7.189
314.0,127.0,7.19
178.0,20.0,7.191
57.0,-76.0,7.192
-16.0,-126.0,7.193
-60.0,-120.0,7.194
-14.0,-104.0,7.195
15.0,-104.0,7.196
-5.0,-90.0,7.197
-17.0,-44.0,7.198
-6.0,-8.0,7.199
-27.0,-16.0,7.2
-79.0,-33.0,7.201
-114.0,-12.0,7.202
-106.0,23.0,7.203
-74.0,38.0,7.204
-43.0,48.0,7.205
-23.0,67.0,7.206
-25.0,57.0,7.207
-44.0,-1.0,7.208
-73.0,-55.0,7.209
-99.0,-60.0,7.21
-93.0,-45.0,7.211
-15.0,-35.0,7.212
103.0,-12.0,7.213
152.0,13.0,7.214
86.0,-9.0,7.215
22.0,-78.0,7.216
60.0,-106.0,7.217
135.0,-55.0,7.218
135.0,3.0,7.219
114.0,-3.0,7.22
30.0,-44.0,7.221
-47.0,-53.0,7.222
-104.0,-58.0,7.223
-136.0,-104.0,7.224
-90.0,-150.0,7.225
-57.0,-141.0,7.226
-62.0,-116.0,7.227
-83.0,-126.0,7.228
-151.0,-139.0,7.229
-180.0,-92.0,7.23
-93.0,-6.0,7.231
21.0,55.0,7.232
213.0,87.0,7.233
348.0,128.0,7.234
312.0,173.0,7.235
256.0,195.0,7.236
142.0,192.0,7.237
31.0,182.0,7.238
-34.0,166.0,7.239
-36.0,137.0,7.24
-33.0,107.0,7.241
-74.0,105.0,7.242
-87.0,121.0,7.243
28.0,134.0,7.244
217.0,140.0,7.245
285.0,136.0,7.246
104.0,89.0,7.247
-232.0,-28.0,7.248
-498.0,-189.0,7.249
-511.0,-298.0,7.25
-273.0,-279.0,7.251
21.0,-166.0,7.252
146.0,-85.0,7.253
70.0,-103.0,7.254
-27.0,-144.0,7.255
-9.0,-111.0,7.256
54.0,-36.0,7.257
43.0,-6.0,7.258
-10.0,-30.0,7.259
-7.0,-38.0,7.26
30.0,-15.0,7.261
25.0,-16.0,7.262
-4.0,-48.0,7.263
6.0,-47.0,7.264
37.0,10.0,7.265
38.0,67.0,7.266
27.0,87.0,7.267
46.0,96.0,7.268
69.0,117.0,7.269
50.0,124.0,7.27
20.0,100.0,7.271
24.0,69.0,7.272
39.0,52.0,7.273
31.0,39.0,7.274
11.0,26.0,7.275
9.0,14.0,7.276
14.0,3.0,7.277
-1.0,-18.0,7.278
-17.0,-37.0,7.279
-17.0,-35.0,7.28
-11.0,-23.0,7.281
-18.0,-17.0,7.282
-25.0,-11.0,7.283
-19.0,8.0,7.284
-13.0,43.0,7.285
-16.0,83.0,7.286
-16.0,120.0,7.287
-3.0,148.0,7.288
7.0,144.0,7.289
9.0,103.0,7.29
15.0,49.0,7.291
33.0,9.0,7.292
44.0,-22.0,7.293
35.0,-52.0,7.294
19.0,-79.0,7.295
10.0,-100.0,7.296
10.0,-118.0,7.297
6.0,-137.0,7.298
0.0,-147.0,7.299
-6.0,-151.0,7.3
-12.0,-159.0,7.301
-16.0,-162.0,7.302
-15.0,-146.0,7.303
-6.0,-113.0,7.304
-3.0,-86.0,7.305
-10.0,-70.0,7.306
-20.0,-52.0,7.307
-15.0,-23.0,7.308
9.0,1.0,7.309
45.0,12.0,7.31
87.0,12.0,7.311
107.0,9.0,7.312
80.0,6.0,7.313
5.0,0.0,7.314
-83.0,0.0,7.315
-149.0,19.0,7.316
-178.0,53.0,7.317
-179.0,100.0,7.318
-140.0,150.0,7.319
-69.0,187.0,7.32
8.0,190.0,7.321
57.0,166.0,7.322
60.0,131.0,7.323
24.0,86.0,7.324
-7.0,29.0,7.325
13.0,-29.0,7.326
80.0,-64.0,7.327
128.0,-69.0,7.328
113.0,-55.0,7.329
76.0,-29.0,7.33
69.0,14.0,7.331
63.0,61.0,7.332
17.0,83.0,7.333
-34.0,71.0,7.334
-25.0,52.0,7.335
23.0,42.0,7.336
46.0,37.0,7.337
34.0,22.0,7.338
21.0,0.0,7.339
2.0,-37.0,7.34
-33.0,-105.0,7.341
-63.0,-181.0,7.342
-76.0,-228.0,7.343
-85.0,-237.0,7.344
-83.0,-228.0,7.345
-65.0,-205.0,7.346
-1.0,-143.0,7.347
28.0,-38.0,7.348
-49.0,70.0,7.349
-104.0,126.0,7.35
-87.0,105.0,7.351
-28.0,22.0,7.352
156.0,-76.0,7.353
271.0,-117.0,7.354
180.0,-67.0,7.355
97.0,11.0,7.356
39.0,35.0,7.357
-17.0,-3.0,7.358
-99.0,-10.0,7.359
-200.0,64.0,7.36
-236.0,165.0,7.361
-191.0,246.0,7.362
-102.0,323.0,7.363
32.0,409.0,7.364
218.0,453.0,7.365
359.0,416.0,7.366
344.0,332.0,7.367
212.0,243.0,7.368
