Deltoid,Bicep,Time
5,-4,0.0
7,-1,0.001
3,4,0.002
0,3,0.003
2,-2,0.004
5,-6,0.005
2,-3,0.006
-2,0,0.007
-2,0,0.008
-2,-2,0.009
-2,0,0.01
0,2,0.011
4,1,0.012
7,-1,0.013
6,-4,0.014
4,-5,0.015
5,-4,0.016
5,-6,0.017
2,-2,0.018
2,1,0.019
5,1,0.02
8,0,0.021
4,5,0.022
-2,8,0.023
-3,2,0.024
-2,-3,0.025
-3,-3,0.026
-6,2,0.027
-6,3,0.028
-1,-1,0.029
3,-4,0.03
0,-1,0.031
-1,1,0.032
2,3,0.033
4,1,0.034
1,1,0.035
-2,1,0.036
-2,-4,0.037
-1,-7,0.038
3,-5,0.039
6,-3,0.04
4,1,0.041
3,3,0.042
2,1,0.043
1,-1,0.044
1,-1,0.045
1,0,0.046
1,0,0.047
0,0,0.048
1,0,0.049
2,0,0.05
3,1,0.051
5,2,0.052
5,3,0.053
4,5,0.054
1,4,0.055
-2,0,0.056
-2,-7,0.057
-1,-7,0.058
3,-5,0.059
6,-3,0.06
4,0,0.061
3,4,0.062
2,2,0.063
1,-1,0.064
1,-3,0.065
1,0,0.066
1,0,0.067
0,-3,0.068
1,-5,0.069
2,-3,0.07
3,-2,0.071
5,-2,0.072
5,-1,0.073
5,2,0.074
2,2,0.075
2,0,0.076
0,-4,0.077
-1,-4,0.078
2,-1,0.079
12,1,0.08
16,1,0.081
6,1,0.082
-1,0,0.083
-2,0,0.084
0,-2,0.085
0,0,0.086
-1,0,0.087
0,1,0.088
2,0,0.089
1,0,0.09
0,0,0.091
3,0,0.092
6,0,0.093
6,-2,0.094
4,-3,0.095
0,-3,0.096
-3,-6,0.097
-4,-6,0.098
2,-5,0.099
9,-2,0.1
10,1,0.101
4,2,0.102
-1,2,0.103
-2,0,0.104
-1,-1,0.105
-1,-2,0.106
-2,-2,0.107
0,-2,0.108
1,-3,0.109
4,-1,0.11
4,0,0.111
3,3,0.112
3,6,0.113
2,6,0.114
1,4,0.115
1,2,0.116
-1,-2,0.117
-3,-5,0.118
0,-3,0.119
5,-1,0.12
5,0,0.121
0,1,0.122
-4,0,0.123
-1,-2,0.124
3,-3,0.125
3,-3,0.126
0,-1,0.127
0,0,0.128
1,0,0.129
4,0,0.13
6,1,0.131
6,2,0.132
6,2,0.133
4,2,0.134
2,0,0.135
0,-1,0.136
-5,-4,0.137
-5,-6,0.138
1,-6,0.139
11,-4,0.14
12,-1,0.141
6,2,0.142
-1,4,0.143
0,3,0.144
2,4,0.145
0,5,0.146
1,4,0.147
4,0,0.148
7,-4,0.149
4,-5,0.15
0,-3,0.151
1,-1,0.152
4,1,0.153
6,2,0.154
6,1,0.155
2,0,0.156
-2,-4,0.157
-3,-5,0.158
2,-4,0.159
9,-2,0.16
10,0,0.161
5,1,0.162
2,1,0.163
5,1,0.164
4,0,0.165
-2,0,0.166
-4,-3,0.167
0,-5,0.168
5,-5,0.169
2,-3,0.17
-1,-1,0.171
1,-2,0.172
8,0,0.173
7,0,0.174
0,0,0.175
-7,-2,0.176
-10,-5,0.177
-8,-3,0.178
-2,0,0.179
4,0,0.18
6,1,0.181
0,3,0.182
-4,2,0.183
-4,-1,0.184
-1,-4,0.185
1,-3,0.186
2,-1,0.187
1,0,0.188
0,0,0.189
1,1,0.19
5,2,0.191
8,0,0.192
10,-1,0.193
8,-1,0.194
7,0,0.195
5,1,0.196
0,-2,0.197
0,-5,0.198
6,-5,0.199
12,-4,0.2
10,-3,0.201
4,-2,0.202
1,-2,0.203
4,0,0.204
6,1,0.205
1,3,0.206
-3,-1,0.207
0,-3,0.208
5,0,0.209
8,3,0.21
6,4,0.211
4,4,0.212
4,-1,0.213
1,-5,0.214
-1,-4,0.215
-2,-3,0.216
-3,-4,0.217
-4,-2,0.218
1,0,0.219
11,0,0.22
12,0,0.221
3,1,0.222
-4,1,0.223
-1,-3,0.224
4,-6,0.225
0,-5,0.226
-3,-2,0.227
-1,-2,0.228
3,-5,0.229
2,-4,0.23
0,-1,0.231
0,1,0.232
3,0,0.233
2,-2,0.234
1,-1,0.235
0,0,0.236
-2,-3,0.237
-3,-7,0.238
3,-8,0.239
14,-3,0.24
14,1,0.241
4,1,0.242
-2,0,0.243
0,0,0.244
2,1,0.245
-1,1,0.246
-5,-1,0.247
-1,-3,0.248
4,-2,0.249
2,0,0.25
-1,1,0.251
0,0,0.252
6,0,0.253
6,0,0.254
1,0,0.255
-2,-1,0.256
-2,-6,0.257
-1,-4,0.258
3,2,0.259
7,8,0.26
7,8,0.261
4,3,0.262
1,-2,0.263
1,-5,0.264
2,-4,0.265
1,1,0.266
1,4,0.267
3,3,0.268
4,1,0.269
2,2,0.27
1,3,0.271
4,0,0.272
8,-2,0.273
7,-1,0.274
3,0,0.275
0,2,0.276
0,-2,0.277
0,-5,0.278
2,-4,0.279
8,-3,0.28
10,-1,0.281
5,0,0.282
0,-2,0.283
0,-5,0.284
0,-4,0.285
-2,-2,0.286
-3,0,0.287
0,1,0.288
2,1,0.289
-1,0,0.29
-2,0,0.291
1,-1,0.292
5,0,0.293
4,1,0.294
5,0,0.295
5,-2,0.296
2,-6,0.297
-4,-6,0.298
-3,-3,0.299
6,1,0.3
13,2,0.301
6,0,0.302
-1,-2,0.303
-1,-3,0.304
1,0,0.305
0,2,0.306
-1,2,0.307
1,-1,0.308
5,-2,0.309
2,0,0.31
-2,3,0.311
0,4,0.312
9,5,0.313
11,6,0.314
5,4,0.315
0,1,0.316
-1,-3,0.317
2,-2,0.318
7,-1,0.319
10,-1,0.32
6,-3,0.321
0,-4,0.322
0,-5,0.323
5,-5,0.324
8,-4,0.325
2,0,0.326
-3,0,0.327
0,0,0.328
3,-1,0.329
3,0,0.33
1,1,0.331
7,1,0.332
11,2,0.333
8,0,0.334
2,-1,0.335
0,-3,0.336
1,-6,0.337
0,-6,0.338
2,-2,0.339
6,0,0.34
8,1,0.341
4,3,0.342
1,1,0.343
2,0,0.344
3,0,0.345
1,-1,0.346
0,-3,0.347
0,-5,0.348
2,-5,0.349
0,-3,0.35
-1,-1,0.351
0,-1,0.352
1,0,0.353
-1,1,0.354
-2,0,0.355
-2,-1,0.356
-3,-3,0.357
-4,-4,0.358
0,-2,0.359
7,0,0.36
6,1,0.361
-2,3,0.362
-5,1,0.363
0,0,0.364
5,-1,0.365
5,-1,0.366
3,0,0.367
3,1,0.368
4,-2,0.369
2,-4,0.37
1,0,0.371
6,3,0.372
12,3,0.373
10,2,0.374
5,0,0.375
0,-1,0.376
-2,-3,0.377
-3,-4,0.378
1,-6,0.379
9,-4,0.38
11,1,0.381
5,5,0.382
-1,3,0.383
-1,-2,0.384
2,-5,0.385
1,-2,0.386
0,1,0.387
3,1,0.388
5,-2,0.389
1,-3,0.39
-2,-1,0.391
1,0,0.392
6,3,0.393
6,2,0.394
3,-1,0.395
1,-2,0.396
3,-3,0.397
5,-2,0.398
9,-1,0.399
11,0,0.4
10,4,0.401
3,6,0.402
-1,1,0.403
0,-4,0.404
1,-4,0.405
-2,0,0.406
-5,2,0.407
-3,3,0.408
2,2,0.409
3,2,0.41
2,1,0.411
5,0,0.412
10,1,0.413
9,0,0.414
4,-2,0.415
0,-5,0.416
0,-6,0.417
1,-3,0.418
2,0,0.419
5,0,0.42
6,2,0.421
5,4,0.422
1,1,0.423
-1,-2,0.424
0,-3,0.425
0,-1,0.426
0,0,0.427
0,-2,0.428
0,-3,0.429
0,-2,0.43
3,-2,0.431
8,-1,0.432
11,0,0.433
7,0,0.434
3,-1,0.435
-2,-2,0.436
-5,-4,0.437
-6,-5,0.438
0,-3,0.439
11,-1,0.44
12,4,0.441
5,8,0.442
1,4,0.443
1,0,0.444
0,0,0.445
-4,1,0.446
-5,0,0.447
0,-2,0.448
2,-2,0.449
1,-2,0.45
0,0,0.451
3,1,0.452
8,1,0.453
5,0,0.454
1,-2,0.455
-1,-4,0.456
-4,-7,0.457
-5,-7,0.458
0,-7,0.459
8,-4,0.46
9,-1,0.461
1,2,0.462
-4,0,0.463
-2,-4,0.464
1,-6,0.465
0,-1,0.466
-2,1,0.467
-2,0,0.468
-1,-2,0.469
0,-2,0.47
1,1,0.471
5,5,0.472
10,9,0.473
9,8,0.474
5,3,0.475
2,-2,0.476
2,-6,0.477
2,-4,0.478
5,-1,0.479
8,-3,0.48
7,-4,0.481
2,-1,0.482
1,1,0.483
3,1,0.484
2,0,0.485
-2,0,0.486
-2,1,0.487
4,3,0.488
9,1,0.489
7,0,0.49
3,0,0.491
3,0,0.492
7,1,0.493
7,-1,0.494
6,-3,0.495
2,-1,0.496
0,0,0.497
-3,-2,0.498
0,-4,0.499
7,-5,0.5
7,-1,0.501
0,2,0.502
-4,2,0.503
0,-1,0.504
3,-2,0.505
0,0,0.506
-1,0,0.507
2,-1,0.508
4,-1,0.509
4,0,0.51
5,2,0.511
8,2,0.512
8,3,0.513
5,2,0.514
3,2,0.515
1,1,0.516
-1,-2,0.517
-3,-4,0.518
0,-1,0.519
7,2,0.52
10,2,0.521
2,2,0.522
-2,1,0.523
1,0,0.524
2,0,0.525
-4,0,0.526
-8,1,0.527
-5,4,0.528
1,4,0.529
4,3,0.53
3,1,0.531
3,0,0.532
6,0,0.533
7,0,0.534
8,-4,0.535
6,-5,0.536
2,-6,0.537
0,-5,0.538
4,-4,0.539
7,-2,0.54
8,0,0.541
4,-1,0.542
1,-2,0.543
1,-3,0.544
0,-1,0.545
-4,0,0.546
-2,0,0.547
2,-1,0.548
3,-3,0.549
2,-2,0.55
0,-3,0.551
1,-2,0.552
5,-1,0.553
7,-1,0.554
4,-4,0.555
-1,-5,0.556
-4,-7,0.557
0,-4,0.558
7,-3,0.559
11,-2,0.56
7,0,0.561
0,4,0.562
-3,3,0.563
-1,-2,0.564
1,-6,0.565
2,-4,0.566
4,0,0.567
4,0,0.568
1,1,0.569
0,3,0.57
2,4,0.571
7,1,0.572
8,1,0.573
6,1,0.574
4,2,0.575
3,0,0.576
-1,-5,0.577
-5,-7,0.578
-2,-4,0.579
8,-1,0.58
10,0,0.581
3,1,0.582
-3,1,0.583
-1,1,0.584
2,1,0.585
-1,2,0.586
-3,4,0.587
2,3,0.588
7,2,0.589
6,1,0.59
1,0,0.591
1,-1,0.592
6,3,0.593
3,0,0.594
1,1,0.595
1,0,0.596
-3,-3,0.597
-4,-8,0.598
1,-5,0.599
6,-1,0.6
4,0,0.601
2,1,0.602
1,2,0.603
0,3,0.604
0,1,0.605
1,0,0.606
0,0,0.607
-1,0,0.608
-1,0,0.609
1,0,0.61
1,1,0.611
3,4,0.612
5,2,0.613
4,1,0.614
2,2,0.615
0,1,0.616
-4,-4,0.617
-5,-9,0.618
1,-6,0.619
7,-2,0.62
5,0,0.621
3,2,0.622
1,3,0.623
-1,4,0.624
-1,2,0.625
0,1,0.626
-1,1,0.627
-2,0,0.628
-2,0,0.629
0,0,0.63
1,2,0.631
4,5,0.632
6,3,0.633
8,0,0.634
6,-2,0.635
3,-2,0.636
1,-8,0.637
0,-8,0.638
3,-4,0.639
7,-1,0.64
8,2,0.641
5,3,0.642
0,2,0.643
1,0,0.644
1,-2,0.645
0,-2,0.646
-3,1,0.647
-3,2,0.648
0,0,0.649
2,-1,0.65
1,0,0.651
3,1,0.652
8,0,0.653
7,-3,0.654
2,-2,0.655
-5,-4,0.656
-6,-9,0.657
-2,-10,0.658
4,-6,0.659
8,0,0.66
6,2,0.661
0,2,0.662
-5,1,0.663
-3,-1,0.664
1,-2,0.665
1,-1,0.666
-2,4,0.667
-1,3,0.668
4,1,0.669
7,0,0.67
5,3,0.671
4,5,0.672
7,4,0.673
5,3,0.674
3,3,0.675
2,1,0.676
0,-4,0.677
0,-7,0.678
1,-1,0.679
4,2,0.68
7,0,0.681
9,-2,0.682
5,-2,0.683
1,-1,0.684
2,-3,0.685
2,-4,0.686
0,0,0.687
-1,2,0.688
3,0,0.689
5,0,0.69
3,1,0.691
2,3,0.692
4,3,0.693
6,3,0.694
5,5,0.695
0,5,0.696
-2,-4,0.697
-4,-7,0.698
-1,-6,0.699
5,-1,0.7
6,1,0.701
0,3,0.702
-1,0,0.703
3,-2,0.704
3,-3,0.705
0,0,0.706
-2,0,0.707
0,-1,0.708
2,-1,0.709
0,0,0.71
-1,0,0.711
2,-3,0.712
8,-3,0.713
8,-2,0.714
2,0,0.715
-2,-2,0.716
-2,-6,0.717
0,-5,0.718
3,1,0.719
7,4,0.72
7,4,0.721
3,3,0.722
0,5,0.723
0,4,0.724
1,1,0.725
0,-2,0.726
1,-3,0.727
3,-6,0.728
5,-6,0.729
3,-1,0.73
3,1,0.731
6,1,0.732
10,2,0.733
9,3,0.734
7,3,0.735
2,1,0.736
-2,-5,0.737
-3,-7,0.738
2,-5,0.739
8,-2,0.74
7,-1,0.741
0,0,0.742
-4,-3,0.743
-1,-4,0.744
1,-3,0.745
0,1,0.746
0,1,0.747
6,-1,0.748
9,-3,0.749
5,-1,0.75
0,3,0.751
2,4,0.752
8,3,0.753
7,0,0.754
4,1,0.755
0,2,0.756
-1,-2,0.757
-2,-5,0.758
3,-3,0.759
7,-1,0.76
5,1,0.761
3,3,0.762
-2,0,0.763
-6,-2,0.764
-2,-1,0.765
2,0,0.766
2,1,0.767
2,1,0.768
1,-3,0.769
0,-5,0.77
2,-2,0.771
4,1,0.772
5,0,0.773
7,-2,0.774
7,0,0.775
5,3,0.776
0,-3,0.777
-2,-7,0.778
1,-5,0.779
6,0,0.78
5,2,0.781
-3,-2,0.782
-4,-4,0.783
0,-2,0.784
1,-1,0.785
-3,-3,0.786
-5,-4,0.787
0,-2,0.788
4,1,0.789
4,0,0.79
3,-1,0.791
8,0,0.792
14,2,0.793
11,2,0.794
3,0,0.795
-4,1,0.796
-4,-1,0.797
0,-3,0.798
5,-3,0.799
9,-1,0.8
6,2,0.801
2,3,0.802
0,0,0.803
4,-2,0.804
4,-2,0.805
1,0,0.806
0,2,0.807
5,3,0.808
6,2,0.809
1,3,0.81
-1,4,0.811
2,3,0.812
9,3,0.813
6,0,0.814
2,-1,0.815
-1,-4,0.816
-3,-6,0.817
-5,-5,0.818
-5,-2,0.819
2,0,0.82
5,0,0.821
2,-1,0.822
-1,-3,0.823
0,-6,0.824
1,-4,0.825
-2,-1,0.826
-4,2,0.827
-2,0,0.828
1,-3,0.829
3,-4,0.83
6,-2,0.831
7,0,0.832
8,1,0.833
4,-1,0.834
3,-1,0.835
3,-1,0.836
0,-5,0.837
-2,-8,0.838
1,-6,0.839
9,-4,0.84
9,0,0.841
3,3,0.842
0,1,0.843
4,0,0.844
5,0,0.845
0,0,0.846
-4,0,0.847
-3,1,0.848
0,3,0.849
2,5,0.85
3,3,0.851
4,2,0.852
5,1,0.853
3,0,0.854
3,-1,0.855
2,-4,0.856
0,-9,0.857
-2,-8,0.858
1,-4,0.859
8,-1,0.86
10,1,0.861
5,3,0.862
-2,2,0.863
-2,0,0.864
2,0,0.865
5,3,0.866
4,4,0.867
3,3,0.868
5,3,0.869
4,4,0.87
0,6,0.871
-2,6,0.872
2,7,0.873
4,5,0.874
5,4,0.875
2,0,0.876
-2,-5,0.877
-2,-5,0.878
4,-3,0.879
11,-1,0.88
9,-1,0.881
2,-2,0.882
-1,-4,0.883
4,-6,0.884
9,-6,0.885
6,-4,0.886
1,-2,0.887
0,-2,0.888
2,-3,0.889
3,-2,0.89
4,-3,0.891
8,-3,0.892
12,0,0.893
11,-1,0.894
6,-2,0.895
-1,-2,0.896
-4,-1,0.897
-1,1,0.898
5,0,0.899
9,-2,0.9
7,-1,0.901
0,1,0.902
-4,2,0.903
-3,-1,0.904
-2,-3,0.905
-4,-1,0.906
-4,0,0.907
-2,0,0.908
0,1,0.909
0,3,0.91
0,1,0.911
4,-1,0.912
10,-1,0.913
7,-3,0.914
3,-4,0.915
0,-5,0.916
-1,-4,0.917
-1,-3,0.918
3,-3,0.919
8,-2,0.92
10,-2,0.921
4,-2,0.922
-1,-3,0.923
-1,-3,0.924
1,-1,0.925
2,0,0.926
1,-1,0.927
1,-2,0.928
1,-2,0.929
1,-2,0.93
0,-2,0.931
1,-2,0.932
3,0,0.933
2,1,0.934
4,-1,0.935
2,-2,0.936
-3,-5,0.937
-5,-4,0.938
-1,-3,0.939
6,-3,0.94
6,-2,0.941
0,0,0.942
-4,1,0.943
2,-1,0.944
5,-1,0.945
3,1,0.946
0,3,0.947
0,1,0.948
3,-1,0.949
4,-1,0.95
5,1,0.951
6,3,0.952
8,2,0.953
9,1,0.954
4,0,0.955
-1,-1,0.956
-4,-6,0.957
-3,-7,0.958
1,-6,0.959
8,-4,0.96
9,-2,0.961
4,1,0.962
-1,3,0.963
-1,2,0.964
1,0,0.965
2,0,0.966
0,3,0.967
1,2,0.968
3,-1,0.969
3,0,0.97
2,3,0.971
3,4,0.972
5,1,0.973
4,-3,0.974
1,-3,0.975
0,-2,0.976
2,-6,0.977
4,-8,0.978
6,-7,0.979
7,-3,0.98
5,-1,0.981
4,-2,0.982
1,-1,0.983
1,0,0.984
0,2,0.985
0,1,0.986
0,-2,0.987
2,-5,0.988
2,-6,0.989
1,-3,0.99
1,0,0.991
6,0,0.992
13,0,0.993
11,0,0.994
5,3,0.995
-2,4,0.996
-5,-1,0.997
-5,-5,0.998
0,-1,0.999
6,1,1.0
5,0,1.001
0,-2,1.002
-2,-2,1.003
2,-3,1.004
3,-1,1.005
-3,0,1.006
-6,0,1.007
-1,-1,1.008
5,-3,1.009
5,-4,1.01
2,-1,1.011
2,2,1.012
7,3,1.013
8,4,1.014
6,1,1.015
0,-4,1.016
-7,-10,1.017
-8,-9,1.018
0,-4,1.019
9,-1,1.02
9,3,1.021
0,4,1.022
-1,0,1.023
3,-5,1.024
5,-4,1.025
1,1,1.026
-2,3,1.027
1,-1,1.028
4,-3,1.029
5,1,1.03
7,6,1.031
8,4,1.032
7,1,1.033
4,-1,1.034
6,0,1.035
3,-3,1.036
-3,-10,1.037
-6,-9,1.038
1,-6,1.039
9,-2,1.04
6,-2,1.041
-2,0,1.042
-3,3,1.043
2,0,1.044
3,-4,1.045
0,-5,1.046
0,0,1.047
2,2,1.048
2,0,1.049
2,0,1.05
7,0,1.051
11,2,1.052
11,2,1.053
5,1,1.054
6,1,1.055
5,0,1.056
0,-2,1.057
-3,0,1.058
2,0,1.059
8,1,1.06
4,2,1.061
-4,4,1.062
-5,3,1.063
0,-3,1.064
1,-7,1.065
-1,-2,1.066
1,3,1.067
6,3,1.068
6,0,1.069
4,-2,1.07
6,-1,1.071
10,-1,1.072
10,1,1.073
1,-1,1.074
-4,-2,1.075
-3,-3,1.076
-1,-3,1.077
0,-4,1.078
2,-2,1.079
5,-1,1.08
4,-1,1.081
0,-1,1.082
-2,-3,1.083
0,-5,1.084
1,-3,1.085
-2,-2,1.086
-3,0,1.087
-1,1,1.088
2,1,1.089
1,1,1.09
0,1,1.091
1,1,1.092
6,2,1.093
6,-1,1.094
1,-2,1.095
-4,-3,1.096
-5,-3,1.097
-4,-4,1.098
1,-2,1.099
4,-1,1.1
6,-1,1.101
2,-1,1.102
-1,-3,1.103
-1,-5,1.104
0,-3,1.105
2,-2,1.106
3,0,1.107
4,1,1.108
7,1,1.109
8,1,1.11
7,1,1.111
8,1,1.112
9,2,1.113
9,4,1.114
7,4,1.115
2,0,1.116
-1,-5,1.117
-1,-4,1.118
4,-4,1.119
10,-3,1.12
7,-1,1.121
0,2,1.122
-3,-1,1.123
1,-6,1.124
7,-5,1.125
6,1,1.126
0,5,1.127
-1,1,1.128
1,-2,1.129
1,0,1.13
2,3,1.131
6,2,1.132
8,1,1.133
4,-1,1.134
-1,0,1.135
-4,0,1.136
-5,-3,1.137
-4,-5,1.138
-1,-4,1.139
4,0,1.14
7,3,1.141
4,3,1.142
0,0,1.143
1,-3,1.144
2,-2,1.145
0,1,1.146
1,2,1.147
5,1,1.148
8,0,1.149
7,0,1.15
6,0,1.151
5,-1,1.152
7,-1,1.153
2,-2,1.154
0,0,1.155
0,0,1.156
0,-3,1.157
-2,-6,1.158
0,-6,1.159
6,-5,1.16
8,0,1.161
0,4,1.162
-4,1,1.163
-2,-1,1.164
2,-1,1.165
0,-1,1.166
-3,-1,1.167
0,-1,1.168
3,0,1.169
2,0,1.17
1,-1,1.171
5,-3,1.172
11,-3,1.173
8,-2,1.174
3,-3,1.175
1,-3,1.176
-1,-5,1.177
-2,-6,1.178
1,-6,1.179
7,-3,1.18
5,-2,1.181
-3,-1,1.182
-6,-2,1.183
0,-1,1.184
7,1,1.185
4,0,1.186
0,-3,1.187
0,-5,1.188
2,-3,1.189
0,-1,1.19
-3,0,1.191
0,3,1.192
7,4,1.193
7,1,1.194
2,-1,1.195
-2,-2,1.196
-4,0,1.197
-2,0,1.198
2,-2,1.199
10,-2,1.2
11,0,1.201
4,4,1.202
-2,5,1.203
-1,2,1.204
2,0,1.205
3,-1,1.206
1,0,1.207
2,0,1.208
4,0,1.209
6,-3,1.21
5,-3,1.211
6,1,1.212
9,8,1.213
8,7,1.214
4,1,1.215
-1,-4,1.216
-2,-8,1.217
1,-6,1.218
9,-5,1.219
10,-5,1.22
4,-3,1.221
-3,-1,1.222
-6,1,1.223
-3,-1,1.224
0,-3,1.225
0,-2,1.226
0,-1,1.227
3,0,1.228
5,0,1.229
5,-2,1.23
3,-2,1.231
2,-2,1.232
6,0,1.233
6,-1,1.234
4,-2,1.235
-2,-4,1.236
-6,-5,1.237
-6,-6,1.238
0,-3,1.239
7,-1,1.24
9,-1,1.241
3,0,1.242
-3,-1,1.243
-3,-1,1.244
0,1,1.245
0,4,1.246
-2,3,1.247
-1,2,1.248
0,2,1.249
2,1,1.25
6,3,1.251
9,4,1.252
8,1,1.253
5,-2,1.254
3,-4,1.255
3,-5,1.256
1,-6,1.257
-1,-4,1.258
-1,-2,1.259
5,0,1.26
5,4,1.261
0,5,1.262
-4,3,1.263
-1,-2,1.264
5,-3,1.265
3,-3,1.266
0,0,1.267
0,2,1.268
5,5,1.269
7,6,1.27
6,2,1.271
10,-4,1.272
14,-6,1.273
14,-4,1.274
8,0,1.275
1,0,1.276
-1,-4,1.277
-2,-4,1.278
3,-3,1.279
9,-2,1.28
8,-2,1.281
1,0,1.282
-3,3,1.283
0,1,1.284
7,-1,1.285
6,-1,1.286
3,0,1.287
4,-1,1.288
5,-1,1.289
2,0,1.29
-2,3,1.291
0,4,1.292
7,5,1.293
6,2,1.294
1,0,1.295
-4,-2,1.296
-5,-8,1.297
-5,-6,1.298
-1,-2,1.299
4,2,1.3
4,1,1.301
0,-3,1.302
-3,-5,1.303
-1,-3,1.304
0,-1,1.305
-3,0,1.306
-7,-1,1.307
-2,-1,1.308
6,-2,1.309
9,-3,1.31
4,-1,1.311
1,0,1.312
3,0,1.313
4,0,1.314
2,0,1.315
-1,0,1.316
-3,-4,1.317
-3,-7,1.318
-1,-5,1.319
1,-3,1.32
3,1,1.321
2,5,1.322
1,4,1.323
2,3,1.324
3,3,1.325
3,2,1.326
3,5,1.327
4,7,1.328
3,3,1.329
3,0,1.33
4,0,1.331
5,0,1.332
8,-1,1.333
9,-2,1.334
6,-3,1.335
-2,-3,1.336
-6,-7,1.337
-5,-10,1.338
3,-9,1.339
8,-4,1.34
6,0,1.341
0,1,1.342
-1,0,1.343
1,-1,1.344
1,0,1.345
-1,0,1.346
-2,-1,1.347
1,-2,1.348
3,0,1.349
2,1,1.35
2,1,1.351
4,-1,1.352
6,1,1.353
5,1,1.354
5,1,1.355
2,-1,1.356
-3,-5,1.357
-5,-7,1.358
0,-7,1.359
9,-5,1.36
8,0,1.361
2,4,1.362
-2,1,1.363
1,-5,1.364
3,-6,1.365
0,0,1.366
-2,2,1.367
0,0,1.368
2,0,1.369
1,4,1.37
0,5,1.371
1,1,1.372
4,-1,1.373
7,-1,1.374
6,0,1.375
2,0,1.376
-1,-4,1.377
0,-4,1.378
5,-2,1.379
11,1,1.38
10,0,1.381
2,-1,1.382
-3,-2,1.383
0,-2,1.384
4,0,1.385
2,2,1.386
-1,1,1.387
1,0,1.388
5,2,1.389
5,3,1.39
4,4,1.391
5,0,1.392
8,0,1.393
5,-2,1.394
3,-2,1.395
0,-1,1.396
-1,-3,1.397
-3,-5,1.398
0,-3,1.399
2,-2,1.4
4,0,1.401
5,1,1.402
2,1,1.403
-1,0,1.404
-1,0,1.405
-2,0,1.406
-2,1,1.407
-1,3,1.408
1,3,1.409
4,2,1.41
2,2,1.411
1,2,1.412
5,0,1.413
8,-1,1.414
4,1,1.415
0,-2,1.416
-2,-8,1.417
-2,-8,1.418
0,-3,1.419
6,-1,1.42
8,-4,1.421
2,-4,1.422
-2,-4,1.423
-2,-5,1.424
1,-4,1.425
2,-1,1.426
4,0,1.427
7,-3,1.428
9,-5,1.429
5,-3,1.43
3,-1,1.431
5,-1,1.432
8,-1,1.433
6,0,1.434
3,1,1.435
0,-3,1.436
-3,-8,1.437
-5,-4,1.438
-1,1,1.439
8,5,1.44
10,5,1.441
5,4,1.442
1,2,1.443
2,2,1.444
0,3,1.445
-4,6,1.446
-3,8,1.447
6,4,1.448
10,1,1.449
5,2,1.45
-1,5,1.451
3,3,1.452
9,2,1.453
7,3,1.454
1,4,1.455
-2,1,1.456
-2,-4,1.457
-3,-5,1.458
-2,-4,1.459
4,-4,1.46
8,-3,1.461
5,0,1.462
1,1,1.463
1,-1,1.464
5,-3,1.465
4,-1,1.466
0,0,1.467
-2,-2,1.468
-1,-2,1.469
-1,2,1.47
-1,6,1.471
2,3,1.472
8,1,1.473
7,-2,1.474
1,-2,1.475
-3,-3,1.476
-4,-4,1.477
-5,-6,1.478
-1,-4,1.479
3,-2,1.48
3,0,1.481
4,1,1.482
2,0,1.483
1,-3,1.484
4,-2,1.485
6,-1,1.486
3,-1,1.487
1,-2,1.488
2,-2,1.489
3,-1,1.49
4,0,1.491
6,2,1.492
4,-1,1.493
3,-3,1.494
1,-1,1.495
-3,-2,1.496
-5,-6,1.497
-3,-8,1.498
3,-5,1.499
10,-3,1.5
9,-2,1.501
4,-2,1.502
1,-2,1.503
1,-2,1.504
3,0,1.505
2,2,1.506
0,3,1.507
0,0,1.508
1,0,1.509
3,1,1.51
5,3,1.511
7,0,1.512
7,0,1.513
5,1,1.514
6,3,1.515
3,3,1.516
-2,-1,1.517
-4,-4,1.518
0,-6,1.519
8,-7,1.52
7,-3,1.521
0,2,1.522
-3,4,1.523
1,1,1.524
3,-1,1.525
0,1,1.526
1,3,1.527
5,-1,1.528
6,-5,1.529
3,-4,1.53
3,0,1.531
5,1,1.532
7,3,1.533
4,1,1.534
3,0,1.535
0,0,1.536
-3,-3,1.537
-6,-4,1.538
-1,-4,1.539
8,-3,1.54
9,-1,1.541
1,3,1.542
0,4,1.543
3,2,1.544
4,1,1.545
-1,2,1.546
-1,4,1.547
4,3,1.548
7,0,1.549
3,0,1.55
2,-1,1.551
6,-1,1.552
9,1,1.553
3,0,1.554
-1,-1,1.555
-4,-3,1.556
-3,-7,1.557
-1,-9,1.558
2,-5,1.559
4,-2,1.56
1,0,1.561
0,0,1.562
1,-1,1.563
3,-4,1.564
3,-4,1.565
4,-3,1.566
2,-2,1.567
1,-1,1.568
5,-1,1.569
8,0,1.57
6,0,1.571
5,0,1.572
7,1,1.573
8,2,1.574
3,-2,1.575
-1,-5,1.576
-3,-6,1.577
-6,-6,1.578
-4,-6,1.579
2,-4,1.58
8,0,1.581
5,2,1.582
-1,1,1.583
-3,-3,1.584
-1,-3,1.585
0,-2,1.586
1,-2,1.587
4,-3,1.588
8,-2,1.589
8,1,1.59
6,2,1.591
5,0,1.592
5,0,1.593
6,2,1.594
6,1,1.595
3,-5,1.596
-3,-9,1.597
-5,-5,1.598
1,4,1.599
9,6,1.6
9,3,1.601
1,3,1.602
-3,5,1.603
-2,4,1.604
2,1,1.605
4,0,1.606
3,1,1.607
2,2,1.608
1,3,1.609
1,4,1.61
1,3,1.611
2,0,1.612
5,0,1.613
6,-2,1.614
5,-3,1.615
0,0,1.616
-4,-2,1.617
-4,-4,1.618
2,-5,1.619
9,-3,1.62
9,2,1.621
2,7,1.622
-3,4,1.623
-2,-1,1.624
0,-3,1.625
1,0,1.626
0,0,1.627
1,-2,1.628
4,-2,1.629
5,-1,1.63
5,0,1.631
5,-2,1.632
8,-1,1.633
6,-1,1.634
3,-2,1.635
0,-4,1.636
-2,-8,1.637
-4,-10,1.638
-1,-8,1.639
1,-6,1.64
0,-2,1.641
-1,0,1.642
0,-1,1.643
2,-4,1.644
3,-3,1.645
4,-1,1.646
4,1,1.647
4,4,1.648
4,4,1.649
5,4,1.65
5,4,1.651
5,3,1.652
6,1,1.653
7,0,1.654
3,1,1.655
-1,0,1.656
-4,-4,1.657
-6,-3,1.658
-4,0,1.659
4,0,1.66
5,0,1.661
1,0,1.662
-3,2,1.663
-1,1,1.664
1,1,1.665
2,2,1.666
1,3,1.667
1,1,1.668
1,-3,1.669
3,-2,1.67
7,3,1.671
10,5,1.672
8,3,1.673
1,-4,1.674
-2,-6,1.675
-4,-4,1.676
-4,-5,1.677
-3,-7,1.678
0,-6,1.679
6,0,1.68
8,6,1.681
6,6,1.682
5,2,1.683
5,-3,1.684
4,-5,1.685
2,-2,1.686
2,-1,1.687
2,0,1.688
4,1,1.689
6,2,1.69
9,2,1.691
10,0,1.692
10,-1,1.693
7,-3,1.694
5,-2,1.695
0,-1,1.696
-6,-6,1.697
-5,-9,1.698
1,-8,1.699
6,-2,1.7
2,3,1.701
-3,6,1.702
-2,3,1.703
2,-1,1.704
2,-2,1.705
0,1,1.706
2,5,1.707
4,5,1.708
0,5,1.709
-3,3,1.71
-1,1,1.711
5,-2,1.712
8,-3,1.713
4,-3,1.714
0,-3,1.715
-3,-3,1.716
-4,-5,1.717
-4,-7,1.718
0,-5,1.719
4,-3,1.72
6,0,1.721
7,2,1.722
4,0,1.723
1,-1,1.724
3,-1,1.725
5,-2,1.726
4,-2,1.727
3,-2,1.728
3,0,1.729
4,2,1.73
4,2,1.731
3,1,1.732
4,1,1.733
6,2,1.734
4,-2,1.735
0,-6,1.736
-5,-8,1.737
-5,-6,1.738
-2,-3,1.739
3,0,1.74
4,2,1.741
1,5,1.742
-2,4,1.743
-2,0,1.744
-1,0,1.745
0,2,1.746
2,1,1.747
6,-1,1.748
8,-1,1.749
6,5,1.75
3,5,1.751
4,1,1.752
8,0,1.753
8,-2,1.754
4,-2,1.755
-2,-5,1.756
-6,-9,1.757
-4,-7,1.758
5,-6,1.759
12,-7,1.76
10,-4,1.761
1,0,1.762
-2,1,1.763
0,-1,1.764
2,-2,1.765
0,-1,1.766
0,0,1.767
4,0,1.768
7,3,1.769
5,6,1.77
3,6,1.771
6,1,1.772
9,1,1.773
6,1,1.774
2,-1,1.775
-1,-5,1.776
-3,-9,1.777
-5,-7,1.778
-1,-2,1.779
5,0,1.78
6,1,1.781
0,3,1.782
-1,3,1.783
3,0,1.784
6,-1,1.785
0,0,1.786
-2,2,1.787
2,3,1.788
5,1,1.789
2,0,1.79
-1,1,1.791
0,0,1.792
4,0,1.793
2,-1,1.794
0,0,1.795
-2,0,1.796
-4,-4,1.797
-5,-7,1.798
1,-7,1.799
7,-5,1.8
6,-2,1.801
5,0,1.802
5,-2,1.803
4,-4,1.804
2,-2,1.805
1,-1,1.806
1,-1,1.807
2,-1,1.808
2,0,1.809
3,3,1.81
5,3,1.811
7,2,1.812
8,0,1.813
8,-2,1.814
6,-1,1.815
3,-1,1.816
0,-4,1.817
-4,-2,1.818
-1,0,1.819
8,4,1.82
10,7,1.821
3,8,1.822
-3,5,1.823
-2,0,1.824
0,0,1.825
-2,4,1.826
-4,5,1.827
0,3,1.828
6,0,1.829
7,-1,1.83
4,-1,1.831
2,-1,1.832
6,1,1.833
8,-1,1.834
6,-2,1.835
0,-1,1.836
-4,-4,1.837
-4,-6,1.838
0,-8,1.839
6,-6,1.84
8,0,1.841
3,2,1.842
1,-1,1.843
3,-4,1.844
5,-5,1.845
1,-3,1.846
-1,-1,1.847
-2,2,1.848
2,2,1.849
5,0,1.85
7,-3,1.851
5,-4,1.852
4,-1,1.853
5,-1,1.854
6,-1,1.855
0,-1,1.856
-6,-4,1.857
-8,-5,1.858
0,-6,1.859
6,-4,1.86
4,1,1.861
-2,4,1.862
-1,3,1.863
3,-1,1.864
2,-3,1.865
0,-1,1.866
0,2,1.867
3,2,1.868
4,0,1.869
3,0,1.87
4,0,1.871
8,-1,1.872
12,-1,1.873
9,-3,1.874
3,-3,1.875
-1,-2,1.876
-3,-2,1.877
-4,-2,1.878
1,0,1.879
4,1,1.88
2,3,1.881
1,5,1.882
0,1,1.883
-1,-2,1.884
-1,-2,1.885
-2,-3,1.886
-1,-1,1.887
0,0,1.888
2,0,1.889
5,-1,1.89
6,0,1.891
7,1,1.892
8,1,1.893
7,0,1.894
6,0,1.895
0,-3,1.896
-4,-8,1.897
-6,-6,1.898
1,-4,1.899
10,-2,1.9
10,0,1.901
0,2,1.902
-4,5,1.903
0,4,1.904
7,0,1.905
5,-2,1.906
2,0,1.907
1,3,1.908
1,3,1.909
1,0,1.91
0,-1,1.911
3,-2,1.912
6,0,1.913
7,-1,1.914
6,-4,1.915
1,-4,1.916
-2,-4,1.917
-2,-2,1.918
2,-2,1.919
8,-2,1.92
6,-1,1.921
-1,1,1.922
-4,0,1.923
-2,-1,1.924
1,1,1.925
-1,5,1.926
-3,6,1.927
-3,2,1.928
0,0,1.929
1,-2,1.93
3,-1,1.931
4,-1,1.932
4,1,1.933
3,1,1.934
2,0,1.935
2,-2,1.936
-1,-7,1.937
-4,-8,1.938
-1,-6,1.939
5,-4,1.94
4,-1,1.941
-2,-1,1.942
-3,-3,1.943
6,-1,1.944
12,1,1.945
7,2,1.946
1,0,1.947
3,-2,1.948
8,0,1.949
6,1,1.95
2,1,1.951
4,0,1.952
9,2,1.953
7,2,1.954
3,2,1.955
-1,1,1.956
-2,-3,1.957
-2,-6,1.958
0,-3,1.959
3,0,1.96
4,2,1.961
4,4,1.962
2,3,1.963
1,2,1.964
1,0,1.965
0,-1,1.966
0,-3,1.967
1,-6,1.968
2,-4,1.969
4,-3,1.97
3,-2,1.971
2,-1,1.972
4,0,1.973
5,1,1.974
5,-3,1.975
-1,-6,1.976
-6,-9,1.977
-8,-6,1.978
0,-3,1.979
9,1,1.98
10,4,1.981
1,5,1.982
-1,2,1.983
1,-1,1.984
2,-3,1.985
-2,-2,1.986
-2,-1,1.987
2,0,1.988
5,2,1.989
4,3,1.99
4,2,1.991
5,1,1.992
7,3,1.993
3,1,1.994
-1,-1,1.995
-4,-1,1.996
-5,-2,1.997
-7,-2,1.998
-6,-2,1.999
1,-1,2.0
8,1,2.001
5,2,2.002
-1,0,2.003
-1,-2,2.004
3,0,2.005
2,3,2.006
-1,1,2.007
0,-2,2.008
6,-3,2.009
6,0,2.01
2,1,2.011
2,-1,2.012
8,0,2.013
12,0,2.014
6,0,2.015
1,-4,2.016
0,-8,2.017
-2,-7,2.018
-3,-3,2.019
2,-2,2.02
7,-4,2.021
4,-3,2.022
-3,-1,2.023
-4,2,2.024
0,3,2.025
4,2,2.026
2,3,2.027
2,3,2.028
4,3,2.029
5,3,2.03
4,2,2.031
5,1,2.032
8,1,2.033
6,1,2.034
3,2,2.035
0,2,2.036
-3,-3,2.037
-5,-8,2.038
-2,-6,2.039
0,-4,2.04
2,-1,2.041
4,2,2.042
2,0,2.043
0,-1,2.044
2,-1,2.045
4,0,2.046
3,4,2.047
2,6,2.048
4,3,2.049
6,0,2.05
5,0,2.051
4,0,2.052
4,0,2.053
4,-1,2.054
1,-1,2.055
-3,-3,2.056
-5,-9,2.057
-6,-10,2.058
-3,-8,2.059
2,-3,2.06
7,0,2.061
3,-1,2.062
0,-4,2.063
0,-5,2.064
2,-1,2.065
2,2,2.066
2,2,2.067
4,-2,2.068
5,-4,2.069
3,-2,2.07
3,0,2.071
6,0,2.072
8,1,2.073
5,0,2.074
1,-1,2.075
-2,-3,2.076
-3,-7,2.077
0,-7,2.078
3,-3,2.079
7,0,2.08
6,1,2.081
0,2,2.082
-5,2,2.083
-3,-1,2.084
1,-4,2.085
3,-4,2.086
2,-3,2.087
3,-3,2.088
5,-2,2.089
7,-2,2.09
7,0,2.091
9,1,2.092
9,3,2.093
7,2,2.094
2,0,2.095
-4,-2,2.096
-9,-5,2.097
-9,-4,2.098
-1,-1,2.099
6,0,2.1
4,0,2.101
-1,0,2.102
-2,-1,2.103
1,-3,2.104
3,-3,2.105
1,2,2.106
0,4,2.107
5,3,2.108
9,1,2.109
10,3,2.11
8,3,2.111
5,1,2.112
5,0,2.113
3,0,2.114
3,0,2.115
2,0,2.116
-3,-2,2.117
-6,-5,2.118
-1,-5,2.119
3,-4,2.12
1,0,2.121
0,3,2.122
2,1,2.123
4,-1,2.124
2,-1,2.125
1,0,2.126
3,1,2.127
5,2,2.128
5,1,2.129
5,0,2.13
5,-1,2.131
5,-2,2.132
6,-3,2.133
5,-4,2.134
1,0,2.135
-5,-2,2.136
-9,-9,2.137
-8,-9,2.138
-1,-6,2.139
7,-2,2.14
8,0,2.141
0,2,2.142
-3,0,2.143
0,-1,2.144
6,1,2.145
6,6,2.146
2,6,2.147
1,2,2.148
4,1,2.149
5,3,2.15
5,1,2.151
5,-2,2.152
5,-2,2.153
1,0,2.154
-3,-2,2.155
-3,-7,2.156
-2,-10,2.157
-4,-7,2.158
-1,-4,2.159
6,-3,2.16
9,0,2.161
3,5,2.162
-2,7,2.163
1,3,2.164
7,1,2.165
4,2,2.166
0,2,2.167
2,0,2.168
7,0,2.169
6,0,2.17
3,0,2.171
6,-2,2.172
11,0,2.173
7,0,2.174
0,0,2.175
-5,-4,2.176
-5,-7,2.177
-4,-7,2.178
0,-3,2.179
5,1,2.18
6,4,2.181
0,5,2.182
-3,1,2.183
-1,-2,2.184
1,-2,2.185
1,1,2.186
3,1,2.187
7,-1,2.188
9,-1,2.189
6,3,2.19
3,4,2.191
6,2,2.192
11,1,2.193
10,1,2.194
4,-1,2.195
0,-4,2.196
-2,-6,2.197
-4,-7,2.198
-2,-3,2.199
0,0,2.2
0,2,2.201
0,3,2.202
-1,0,2.203
-2,-3,2.204
1,-1,2.205
4,0,2.206
3,2,2.207
3,3,2.208
8,1,2.209
11,-1,2.21
8,0,2.211
6,1,2.212
7,1,2.213
8,0,2.214
5,-4,2.215
0,-4,2.216
-5,-6,2.217
-9,-6,2.218
-6,-6,2.219
3,-4,2.22
6,0,2.221
0,3,2.222
-3,0,2.223
3,-2,2.224
9,0,2.225
6,1,2.226
3,-1,2.227
5,-4,2.228
9,-3,2.229
7,2,2.23
3,3,2.231
6,2,2.232
9,2,2.233
7,1,2.234
2,0,2.235
-1,-1,2.236
-4,-4,2.237
-6,-2,2.238
-3,-1,2.239
5,0,2.24
6,-1,2.241
-1,-1,2.242
-6,-1,2.243
0,0,2.244
7,0,2.245
4,1,2.246
0,1,2.247
2,-1,2.248
8,-3,2.249
8,-3,2.25
3,-1,2.251
3,0,2.252
9,0,2.253
9,-1,2.254
4,-2,2.255
-2,-5,2.256
-6,-9,2.257
-6,-9,2.258
-2,-6,2.259
2,-2,2.26
5,-3,2.261
2,-1,2.262
-2,0,2.263
-1,0,2.264
3,0,2.265
4,1,2.266
3,3,2.267
3,3,2.268
5,3,2.269
4,2,2.27
2,1,2.271
3,0,2.272
9,0,2.273
9,-2,2.274
4,0,2.275
0,1,2.276
-4,0,2.277
-6,-3,2.278
-2,-3,2.279
1,-2,2.28
0,2,2.281
-1,5,2.282
-2,5,2.283
-3,4,2.284
1,2,2.285
5,1,2.286
5,3,2.287
4,4,2.288
5,2,2.289
7,1,2.29
7,1,2.291
6,0,2.292
4,-1,2.293
3,-2,2.294
2,-4,2.295
0,-7,2.296
-5,-11,2.297
-5,-6,2.298
-1,-1,2.299
4,2,2.3
5,3,2.301
2,1,2.302
1,0,2.303
4,-1,2.304
7,-1,2.305
4,3,2.306
-1,3,2.307
0,1,2.308
4,-1,2.309
9,0,2.31
10,1,2.311
9,2,2.312
9,1,2.313
7,1,2.314
7,1,2.315
0,0,2.316
-6,-3,2.317
-5,-5,2.318
3,-5,2.319
9,-4,2.32
5,-2,2.321
-3,0,2.322
-4,2,2.323
0,0,2.324
2,-3,2.325
1,-5,2.326
3,-4,2.327
6,-2,2.328
5,-2,2.329
4,-1,2.33
4,0,2.331
5,1,2.332
5,-1,2.333
3,-4,2.334
3,-5,2.335
2,-5,2.336
-2,-7,2.337
-7,-7,2.338
-3,-5,2.339
5,-1,2.34
6,2,2.341
0,5,2.342
-4,3,2.343
0,0,2.344
3,0,2.345
2,6,2.346
1,8,2.347
7,4,2.348
12,1,2.349
11,1,2.35
7,3,2.351
5,4,2.352
6,2,2.353
3,-3,2.354
2,0,2.355
-1,2,2.356
-5,-3,2.357
-7,-8,2.358
2,-5,2.359
6,-4,2.36
4,-2,2.361
2,-1,2.362
1,-1,2.363
0,-1,2.364
1,2,2.365
2,4,2.366
2,1,2.367
2,-1,2.368
3,0,2.369
4,2,2.37
6,2,2.371
8,2,2.372
7,0,2.373
4,-3,2.374
1,0,2.375
-2,2,2.376
-6,-3,2.377
-8,-7,2.378
1,-5,2.379
7,-4,2.38
5,-2,2.381
2,-1,2.382
0,-1,2.383
-1,-1,2.384
0,2,2.385
2,4,2.386
2,1,2.387
3,-1,2.388
4,0,2.389
5,2,2.39
7,2,2.391
9,2,2.392
8,0,2.393
6,-1,2.394
0,-3,2.395
-1,-4,2.396
0,-6,2.397
0,-6,2.398
3,-4,2.399
9,-3,2.4
8,0,2.401
2,0,2.402
-2,-2,2.403
1,-3,2.404
7,-2,2.405
5,0,2.406
-1,3,2.407
-3,2,2.408
0,0,2.409
4,-1,2.41
4,0,2.411
4,0,2.412
6,2,2.413
5,1,2.414
2,0,2.415
-3,0,2.416
-7,0,2.417
-6,-1,2.418
-1,-1,2.419
3,0,2.42
3,1,2.421
0,1,2.422
-4,0,2.423
-2,0,2.424
1,2,2.425
3,1,2.426
5,0,2.427
9,1,2.428
11,5,2.429
7,5,2.43
5,-2,2.431
6,-7,2.432
9,-5,2.433
2,-1,2.434
-1,-1,2.435
-4,-3,2.436
-5,-6,2.437
-5,-8,2.438
1,-3,2.439
5,-1,2.44
4,-1,2.441
2,0,2.442
2,0,2.443
1,0,2.444
2,-1,2.445
5,-1,2.446
5,-1,2.447
4,-1,2.448
4,-1,2.449
3,-1,2.45
4,-1,2.451
5,-2,2.452
7,-2,2.453
2,-1,2.454
-3,-2,2.455
-7,-4,2.456
-8,-8,2.457
-8,-10,2.458
0,-4,2.459
7,0,2.46
5,0,2.461
3,1,2.462
1,1,2.463
0,1,2.464
3,0,2.465
6,-2,2.466
6,-1,2.467
5,0,2.468
5,0,2.469
4,0,2.47
5,-1,2.471
7,-3,2.472
9,-3,2.473
11,-3,2.474
5,-2,2.475
0,1,2.476
-2,-1,2.477
-2,-5,2.478
1,-6,2.479
5,-3,2.48
4,2,2.481
0,4,2.482
-3,3,2.483
-1,1,2.484
2,1,2.485
1,4,2.486
2,4,2.487
2,2,2.488
1,0,2.489
0,-1,2.49
4,-1,2.491
9,-3,2.492
10,-2,2.493
4,0,2.494
0,0,2.495
-2,-3,2.496
-7,-8,2.497
-9,-8,2.498
-2,-3,2.499
6,1,2.5
6,4,2.501
1,3,2.502
-1,0,2.503
2,-2,2.504
4,-2,2.505
3,0,2.506
3,0,2.507
6,-1,2.508
6,-2,2.509
5,-1,2.51
7,-1,2.511
7,-1,2.512
9,0,2.513
9,0,2.514
6,1,2.515
-2,0,2.516
-9,-5,2.517
-10,-8,2.518
0,-7,2.519
9,-3,2.52
9,2,2.521
3,2,2.522
-1,0,2.523
0,1,2.524
2,4,2.525
7,5,2.526
9,3,2.527
5,-1,2.528
1,-2,2.529
1,1,2.53
4,5,2.531
5,3,2.532
4,0,2.533
4,-3,2.534
4,-2,2.535
2,-3,2.536
-3,-8,2.537
-4,-9,2.538
-2,-6,2.539
1,0,2.54
0,5,2.541
0,5,2.542
2,0,2.543
5,-5,2.544
4,-5,2.545
3,0,2.546
3,0,2.547
3,-2,2.548
0,-4,2.549
2,-3,2.55
6,-1,2.551
7,0,2.552
5,2,2.553
0,3,2.554
-1,3,2.555
-2,-1,2.556
-4,-5,2.557
-5,-4,2.558
2,-1,2.559
7,0,2.56
3,-1,2.561
0,1,2.562
1,3,2.563
2,1,2.564
5,-1,2.565
8,-1,2.566
7,1,2.567
6,1,2.568
6,0,2.569
6,0,2.57
6,-1,2.571
4,-1,2.572
2,3,2.573
1,5,2.574
0,4,2.575
-2,-2,2.576
-6,-7,2.577
-8,-7,2.578
-4,-4,2.579
4,0,2.58
7,6,2.581
1,7,2.582
-3,1,2.583
1,-4,2.584
5,-3,2.585
4,2,2.586
2,4,2.587
6,0,2.588
11,-3,2.589
9,-2,2.59
6,0,2.591
6,1,2.592
9,2,2.593
8,-1,2.594
4,-2,2.595
0,-5,2.596
-3,-8,2.597
-3,-7,2.598
-3,-4,2.599
1,0,2.6
3,2,2.601
1,0,2.602
-1,-2,2.603
0,-1,2.604
0,0,2.605
0,2,2.606
1,0,2.607
3,0,2.608
3,1,2.609
2,4,2.61
5,3,2.611
8,0,2.612
9,0,2.613
4,-1,2.614
0,-2,2.615
-3,-5,2.616
-6,-8,2.617
-6,-6,2.618
0,-3,2.619
9,-2,2.62
10,0,2.621
4,2,2.622
1,1,2.623
6,0,2.624
9,-1,2.625
4,1,2.626
0,1,2.627
0,-2,2.628
4,-4,2.629
5,-3,2.63
4,0,2.631
4,-1,2.632
5,0,2.633
4,0,2.634
2,-1,2.635
-1,-3,2.636
-5,-8,2.637
-7,-6,2.638
-1,-1,2.639
3,1,2.64
1,4,2.641
0,5,2.642
-2,5,2.643
-4,1,2.644
1,-3,2.645
6,-3,2.646
6,1,2.647
6,4,2.648
6,4,2.649
6,3,2.65
5,2,2.651
4,0,2.652
3,-2,2.653
2,-4,2.654
-1,-1,2.655
-5,0,2.656
-9,-4,2.657
-8,-8,2.658
1,-9,2.659
11,-4,2.66
10,2,2.661
4,4,2.662
0,2,2.663
3,-1,2.664
6,0,2.665
4,1,2.666
0,2,2.667
2,1,2.668
6,2,2.669
6,6,2.67
4,5,2.671
4,1,2.672
10,0,2.673
10,1,2.674
4,1,2.675
-4,-2,2.676
-6,-7,2.677
-4,-6,2.678
0,-4,2.679
3,1,2.68
3,3,2.681
0,3,2.682
1,0,2.683
5,-4,2.684
8,-5,2.685
6,-2,2.686
4,0,2.687
6,2,2.688
9,1,2.689
5,-1,2.69
3,-3,2.691
6,-2,2.692
11,1,2.693
6,0,2.694
-1,-3,2.695
-8,-6,2.696
-6,-7,2.697
-2,-6,2.698
2,-7,2.699
6,-8,2.7
6,-4,2.701
2,1,2.702
-2,1,2.703
-2,-2,2.704
-2,-2,2.705
-1,1,2.706
0,2,2.707
3,0,2.708
4,0,2.709
2,1,2.71
1,1,2.711
1,0,2.712
4,1,2.713
4,2,2.714
2,0,2.715
0,-1,2.716
-6,-2,2.717
-9,-3,2.718
-3,-1,2.719
1,0,2.72
1,2,2.721
0,3,2.722
1,1,2.723
2,-1,2.724
4,-2,2.725
5,-3,2.726
2,-1,2.727
-1,1,2.728
0,2,2.729
2,3,2.73
2,3,2.731
2,2,2.732
3,1,2.733
5,0,2.734
5,0,2.735
2,-2,2.736
-1,-7,2.737
0,-5,2.738
4,-2,2.739
9,0,2.74
7,5,2.741
1,9,2.742
-1,7,2.743
1,3,2.744
3,0,2.745
2,0,2.746
1,-1,2.747
2,-1,2.748
5,0,2.749
9,3,2.75
9,5,2.751
5,7,2.752
3,8,2.753
2,4,2.754
2,-2,2.755
-1,-5,2.756
-4,-9,2.757
-5,-7,2.758
0,-5,2.759
8,-4,2.76
8,-2,2.761
2,-2,2.762
-1,-2,2.763
1,-2,2.764
6,0,2.765
7,3,2.766
3,2,2.767
1,0,2.768
4,-1,2.769
6,0,2.77
5,0,2.771
1,0,2.772
1,1,2.773
3,0,2.774
3,-3,2.775
-3,-6,2.776
-9,-11,2.777
-9,-8,2.778
-3,-4,2.779
4,0,2.78
4,3,2.781
0,1,2.782
-2,-1,2.783
1,-3,2.784
2,-2,2.785
0,-1,2.786
0,-1,2.787
2,0,2.788
6,2,2.789
7,4,2.79
6,4,2.791
8,2,2.792
10,2,2.793
6,1,2.794
3,0,2.795
0,-2,2.796
-4,-4,2.797
-6,-5,2.798
-2,-3,2.799
1,-1,2.8
2,0,2.801
3,1,2.802
1,1,2.803
0,1,2.804
1,1,2.805
2,0,2.806
4,2,2.807
7,3,2.808
11,1,2.809
13,-1,2.81
10,-3,2.811
8,-5,2.812
10,-3,2.813
11,-1,2.814
3,-2,2.815
-3,-2,2.816
-5,-4,2.817
-6,-4,2.818
-5,-3,2.819
2,0,2.82
6,3,2.821
3,3,2.822
0,-2,2.823
2,-3,2.824
3,1,2.825
-2,6,2.826
-6,7,2.827
-1,4,2.828
6,4,2.829
7,4,2.83
3,1,2.831
2,-1,2.832
4,1,2.833
4,3,2.834
1,1,2.835
-4,-4,2.836
-7,-9,2.837
-7,-7,2.838
0,-3,2.839
8,-3,2.84
8,-2,2.841
-2,-1,2.842
-7,3,2.843
-3,3,2.844
2,2,2.845
2,1,2.846
1,0,2.847
5,-1,2.848
9,-1,2.849
7,3,2.85
6,5,2.851
10,1,2.852
15,-4,2.853
13,-7,2.854
5,-6,2.855
-4,-3,2.856
-9,-6,2.857
-9,-8,2.858
-2,-6,2.859
5,-4,2.86
7,-2,2.861
1,-1,2.862
-3,1,2.863
-2,3,2.864
3,3,2.865
8,2,2.866
12,0,2.867
17,-1,2.868
16,-1,2.869
10,-1,2.87
4,0,2.871
4,1,2.872
4,4,2.873
2,2,2.874
3,-1,2.875
3,0,2.876
-2,-2,2.877
-5,-3,2.878
-2,-5,2.879
0,-4,2.88
-1,2,2.881
-4,7,2.882
-6,5,2.883
-7,-1,2.884
-1,-4,2.885
3,-2,2.886
3,3,2.887
3,6,2.888
7,6,2.889
10,4,2.89
10,1,2.891
9,-3,2.892
6,0,2.893
2,0,2.894
-1,0,2.895
1,-5,2.896
2,-10,2.897
-1,-8,2.898
-3,-1,2.899
2,1,2.9
6,0,2.901
1,1,2.902
-1,3,2.903
1,0,2.904
4,-5,2.905
3,-6,2.906
2,-2,2.907
5,1,2.908
6,3,2.909
4,4,2.91
2,4,2.911
4,0,2.912
6,-1,2.913
2,-1,2.914
-2,1,2.915
-7,3,2.916
-10,-2,2.917
-10,-4,2.918
-4,-5,2.919
5,-2,2.92
10,1,2.921
9,0,2.922
6,-2,2.923
5,-3,2.924
4,1,2.925
2,5,2.926
2,5,2.927
1,1,2.928
-2,0,2.929
-10,1,2.93
-16,1,2.931
-14,0,2.932
-4,-1,2.933
4,1,2.934
5,2,2.935
-3,-1,2.936
-8,-8,2.937
-1,-9,2.938
16,-7,2.939
28,-4,2.94
28,-1,2.941
22,3,2.942
21,4,2.943
21,4,2.944
19,2,2.945
17,-1,2.946
16,-5,2.947
14,-6,2.948
7,-3,2.949
-3,2,2.95
-7,4,2.951
-6,3,2.952
-4,3,2.953
-5,0,2.954
-7,-4,2.955
-9,-7,2.956
-11,-7,2.957
-12,-7,2.958
-4,-3,2.959
2,0,2.96
2,0,2.961
1,0,2.962
1,-1,2.963
1,-3,2.964
1,-2,2.965
1,-1,2.966
1,-1,2.967
0,-1,2.968
2,-2,2.969
5,-2,2.97
7,1,2.971
9,4,2.972
9,3,2.973
8,1,2.974
4,-1,2.975
-3,-5,2.976
-10,-8,2.977
-12,-6,2.978
-4,-4,2.979
3,-3,2.98
5,-4,2.981
1,-2,2.982
0,0,2.983
0,0,2.984
-1,1,2.985
-1,2,2.986
1,4,2.987
6,4,2.988
8,4,2.989
7,4,2.99
7,3,2.991
6,2,2.992
7,3,2.993
4,2,2.994
1,-2,2.995
-2,-6,2.996
-4,-8,2.997
-6,-6,2.998
-2,-4,2.999
6,-5,3.0
9,0,3.001
5,8,3.002
1,7,3.003
2,-1,3.004
4,-4,3.005
3,0,3.006
3,2,3.007
7,0,3.008
9,0,3.009
6,3,3.01
1,1,3.011
2,-3,3.012
5,-4,3.013
4,-2,3.014
-1,-1,3.015
-7,-5,3.016
-7,-9,3.017
-4,-7,3.018
1,-3,3.019
3,-3,3.02
3,-1,3.021
0,1,3.022
-2,2,3.023
2,0,3.024
5,2,3.025
6,5,3.026
5,5,3.027
7,2,3.028
5,2,3.029
2,4,3.03
1,2,3.031
3,-2,3.032
6,-1,3.033
4,-1,3.034
0,-3,3.035
-4,-7,3.036
-7,-10,3.037
-5,-7,3.038
5,-4,3.039
16,-2,3.04
13,0,3.041
2,3,3.042
-4,3,3.043
-1,1,3.044
1,0,3.045
-2,0,3.046
-5,2,3.047
0,1,3.048
6,0,3.049
6,-1,3.05
4,-2,3.051
5,-4,3.052
9,0,3.053
9,0,3.054
6,-1,3.055
1,-2,3.056
-4,-4,3.057
-4,-2,3.058
1,-2,3.059
11,-3,3.06
14,-2,3.061
9,0,3.062
6,0,3.063
9,0,3.064
11,1,3.065
8,4,3.066
4,4,3.067
5,1,3.068
8,0,3.069
6,1,3.07
5,1,3.071
4,-1,3.072
5,0,3.073
2,1,3.074
-1,1,3.075
-6,-1,3.076
-12,-5,3.077
-13,-8,3.078
-8,-6,3.079
-2,-4,3.08
-2,-2,3.081
-6,-1,3.082
-7,-1,3.083
-2,-1,3.084
2,1,3.085
5,4,3.086
10,3,3.087
15,2,3.088
17,2,3.089
14,2,3.09
12,3,3.091
11,4,3.092
10,2,3.093
5,0,3.094
1,0,3.095
-4,-3,3.096
-11,-10,3.097
-13,-8,3.098
-6,-3,3.099
4,1,3.1
6,1,3.101
1,2,3.102
-1,3,3.103
2,2,3.104
4,0,3.105
3,1,3.106
5,1,3.107
7,-1,3.108
6,-2,3.109
1,1,3.11
0,3,3.111
4,-1,3.112
9,-4,3.113
5,0,3.114
-1,2,3.115
-6,-2,3.116
-8,-9,3.117
-8,-9,3.118
-4,-6,3.119
3,-1,3.12
8,2,3.121
3,5,3.122
-2,5,3.123
-1,1,3.124
4,0,3.125
5,-3,3.126
1,-4,3.127
1,-3,3.128
3,-1,3.129
4,3,3.13
6,4,3.131
7,4,3.132
9,5,3.133
4,1,3.134
0,-3,3.135
-5,-7,3.136
-7,-8,3.137
-7,-4,3.138
-1,-2,3.139
6,-2,3.14
8,0,3.141
2,3,3.142
-1,3,3.143
2,-1,3.144
8,-5,3.145
9,-2,3.146
8,2,3.147
10,3,3.148
14,2,3.149
12,1,3.15
8,0,3.151
7,-2,3.152
7,-1,3.153
1,-1,3.154
-8,0,3.155
-14,0,3.156
-16,-5,3.157
-14,-9,3.158
-8,-6,3.159
-2,-3,3.16
0,0,3.161
-1,3,3.162
0,3,3.163
6,2,3.164
8,0,3.165
2,-1,3.166
-3,1,3.167
0,3,3.168
5,0,3.169
7,-1,3.17
7,0,3.171
9,2,3.172
9,3,3.173
3,4,3.174
-1,1,3.175
-2,-2,3.176
-1,-7,3.177
0,-11,3.178
5,-12,3.179
11,-8,3.18
12,-1,3.181
8,2,3.182
2,2,3.183
2,0,3.184
5,-1,3.185
9,-2,3.186
12,-1,3.187
11,-1,3.188
8,-3,3.189
5,-5,3.19
5,-4,3.191
6,0,3.192
5,4,3.193
2,2,3.194
1,-2,3.195
-3,-3,3.196
-8,-6,3.197
-12,-6,3.198
-6,-5,3.199
3,0,3.2
6,4,3.201
-1,5,3.202
-3,2,3.203
0,0,3.204
4,0,3.205
2,0,3.206
1,-1,3.207
4,0,3.208
6,-1,3.209
4,-7,3.21
5,-16,3.211
8,-25,3.212
8,-25,3.213
2,-17,3.214
-2,-7,3.215
-4,3,3.216
-6,6,3.217
-7,15,3.218
-3,35,3.219
5,56,3.22
8,74,3.221
1,78,3.222
-2,67,3.223
0,41,3.224
3,7,3.225
2,-15,3.226
-2,-19,3.227
0,-22,3.228
5,-74,3.229
7,-190,3.23
6,-298,3.231
7,-282,3.232
8,-127,3.233
8,62,3.234
5,151,3.235
-1,128,3.236
-6,88,3.237
-6,81,3.238
-1,62,3.239
5,12,3.24
3,-14,3.241
0,18,3.242
-4,66,3.243
-2,84,3.244
0,78,3.245
2,62,3.246
9,35,3.247
17,4,3.248
22,-9,3.249
21,-14,3.25
16,-38,3.251
8,-49,3.252
2,7,3.253
-1,120,3.254
-2,176,3.255
-4,86,3.256
-9,-109,3.257
-12,-264,3.258
-9,-274,3.259
-3,-151,3.26
-1,-4,3.261
-2,55,3.262
-2,22,3.263
1,-23,3.264
7,-16,3.265
12,19,3.266
15,39,3.267
15,46,3.268
13,65,3.269
11,85,3.27
12,80,3.271
13,58,3.272
11,44,3.273
7,41,3.274
9,39,3.275
10,40,3.276
2,38,3.277
-5,28,3.278
-3,0,3.279
-2,-30,3.28
-4,-46,3.281
-6,-52,3.282
-7,-57,3.283
-8,-53,3.284
-6,-36,3.285
-4,-17,3.286
-8,-13,3.287
-9,-15,3.288
0,-16,3.289
8,-16,3.29
12,-15,3.291
12,3,3.292
1,58,3.293
-9,128,3.294
-14,142,3.295
-15,50,3.296
-9,-96,3.297
1,-166,3.298
21,-113,3.299
40,-32,3.3
45,-28,3.301
31,-77,3.302
8,-84,3.303
-12,-42,3.304
-19,-24,3.305
-15,-40,3.306
-8,-36,3.307
-4,3,3.308
-9,27,3.309
-15,14,3.31
-13,8,3.311
-3,27,3.312
9,44,3.313
13,37,3.314
7,30,3.315
1,32,3.316
0,28,3.317
2,20,3.318
3,19,3.319
1,23,3.32
-1,17,3.321
0,8,3.322
4,10,3.323
9,12,3.324
12,5,3.325
9,-1,3.326
5,5,3.327
3,9,3.328
2,4,3.329
0,-1,3.33
-2,3,3.331
-2,11,3.332
6,12,3.333
13,10,3.334
16,2,3.335
8,-16,3.336
-3,-36,3.337
-9,-33,3.338
-7,-11,3.339
-1,6,3.34
4,9,3.341
2,10,3.342
0,12,3.343
-1,10,3.344
-1,5,3.345
-3,7,3.346
-5,11,3.347
-3,7,3.348
2,-2,3.349
8,-4,3.35
9,-4,3.351
9,-7,3.352
11,-12,3.353
9,-16,3.354
3,-14,3.355
-1,-13,3.356
-3,-16,3.357
-4,-18,3.358
1,-14,3.359
4,-10,3.36
-2,-8,3.361
-11,-3,3.362
-24,7,3.363
-25,15,3.364
12,11,3.365
50,7,3.366
85,7,3.367
103,5,3.368
68,-1,3.369
36,-7,3.37
14,-10,3.371
-7,-12,3.372
-28,-8,3.373
-48,-2,3.374
-67,7,3.375
-73,0,3.376
-64,-29,3.377
-50,-54,3.378
-36,-50,3.379
-25,-19,3.38
-11,13,3.381
3,26,3.382
8,22,3.383
4,15,3.384
6,18,3.385
14,22,3.386
16,24,3.387
10,28,3.388
13,42,3.389
19,73,3.39
20,109,3.391
14,125,3.392
14,99,3.393
18,22,3.394
18,-71,3.395
10,-139,3.396
3,-166,3.397
4,-146,3.398
10,-89,3.399
14,-10,3.4
11,52,3.401
4,64,3.402
-7,43,3.403
-11,29,3.404
9,33,3.405
51,34,3.406
90,22,3.407
87,12,3.408
37,11,3.409
-17,7,3.41
-35,0,3.411
-26,-2,3.412
-24,0,3.413
-35,-7,3.414
-41,-18,3.415
-33,-21,3.416
-18,-16,3.417
-10,-15,3.418
-3,-19,3.419
1,-19,3.42
-3,-12,3.421
-8,-7,3.422
-2,-6,3.423
9,-8,3.424
11,-8,3.425
7,-8,3.426
8,-8,3.427
11,-2,3.428
8,0,3.429
1,-3,3.43
1,-5,3.431
7,-2,3.432
8,1,3.433
3,0,3.434
3,0,3.435
3,0,3.436
-2,-4,3.437
-5,-6,3.438
-1,-4,3.439
3,-1,3.44
2,1,3.441
1,4,3.442
1,4,3.443
0,5,3.444
3,3,3.445
6,2,3.446
6,1,3.447
5,0,3.448
7,-2,3.449
10,-3,3.45
10,1,3.451
10,4,3.452
7,2,3.453
3,0,3.454
-1,-1,3.455
-3,2,3.456
-3,-2,3.457
-4,-6,3.458
-3,-7,3.459
2,-3,3.46
5,1,3.461
3,3,3.462
3,2,3.463
5,1,3.464
4,2,3.465
1,5,3.466
3,5,3.467
6,3,3.468
5,1,3.469
0,2,3.47
-1,4,3.471
4,2,3.472
8,0,3.473
4,-3,3.474
0,-3,3.475
-2,-4,3.476
-5,-7,3.477
-7,-8,3.478
-3,-6,3.479
6,-3,3.48
10,-1,3.481
8,0,3.482
3,2,3.483
4,0,3.484
8,0,3.485
6,2,3.486
1,6,3.487
1,8,3.488
5,4,3.489
7,0,3.49
4,-1,3.491
0,0,3.492
0,4,3.493
-1,5,3.494
-1,2,3.495
-6,-4,3.496
-11,-9,3.497
-17,-8,3.498
-23,-4,3.499
-31,0,3.5
-37,2,3.501
-42,4,3.502
-58,3,3.503
-94,1,3.504
-119,0,3.505
-84,1,3.506
14,1,3.507
109,-1,3.508
139,-4,3.509
112,-3,3.51
83,0,3.511
81,1,3.512
98,1,3.513
3,0,3.514
-21,-1,3.515
-44,0,3.516
-63,-1,3.517
-76,0,3.518
-68,1,3.519
-49,3,3.52
4,4,3.521
49,8,3.522
65,20,3.523
64,45,3.524
7,67,3.525
-41,51,3.526
-69,-15,3.527
-88,-81,3.528
-78,-78,3.529
-60,-18,3.53
-19,17,3.531
15,-9,3.532
24,-45,3.533
10,-45,3.534
-20,-25,3.535
-50,-26,3.536
-74,-36,3.537
-91,-14,3.538
-81,29,3.539
-57,49,3.54
12,29,3.541
69,-27,3.542
89,-110,3.543
87,-170,3.544
15,-134,3.545
-47,-11,3.546
-82,94,3.547
-106,101,3.548
-94,60,3.549
-71,51,3.55
-17,68,3.551
25,70,3.552
37,68,3.553
40,81,3.554
10,91,3.555
-17,77,3.556
-8,69,3.557
24,92,3.558
39,82,3.559
6,-11,3.56
-43,-127,3.561
-69,-155,3.562
-69,-95,3.563
-51,-33,3.564
-8,-20,3.565
55,-25,3.566
98,-13,3.567
82,11,3.568
24,21,3.569
-18,6,3.57
-11,-22,3.571
30,-25,3.572
75,31,3.573
109,123,3.574
83,165,3.575
-33,99,3.576
-188,-49,3.577
-246,-204,3.578
-133,-299,3.579
43,-277,3.58
120,-135,3.581
103,18,3.582
134,69,3.583
266,39,3.584
381,52,3.585
365,157,3.586
235,256,3.587
72,227,3.588
-76,58,3.589
-164,-124,3.59
-166,-167,3.591
-129,-55,3.592
-131,42,3.593
-167,0,3.594
-162,-72,3.595
-144,-86,3.596
-88,73,3.597
-30,165,3.598
31,54,3.599
83,-35,3.6
106,-61,3.601
113,-79,3.602
71,-71,3.603
31,-57,3.604
0,-25,3.605
-24,1,3.606
-26,9,3.607
-31,14,3.608
-40,8,3.609
-46,17,3.61
-36,77,3.611
-32,109,3.612
-47,57,3.613
-62,-23,3.614
-59,-134,3.615
-17,-88,3.616
29,23,3.617
55,18,3.618
70,-109,3.619
71,-184,3.62
42,-122,3.621
-12,-16,3.622
-57,50,3.623
-77,95,3.624
-78,137,3.625
-72,150,3.626
-52,148,3.627
-30,158,3.628
-20,127,3.629
-12,-2,3.63
20,-141,3.631
48,-124,3.632
28,11,3.633
-49,93,3.634
-99,42,3.635
-57,-20,3.636
48,9,3.637
131,64,3.638
140,48,3.639
89,-10,3.64
38,-57,3.641
47,-97,3.642
107,-132,3.643
122,-128,3.644
30,-80,3.645
-97,-33,3.646
-145,0,3.647
-116,34,3.648
-93,34,3.649
-75,-28,3.65
4,-88,3.651
114,-58,3.652
149,29,3.653
87,74,3.654
30,4,3.655
29,-52,3.656
25,-68,3.657
-23,-109,3.658
-54,-209,3.659
-32,-256,3.66
-17,-139,3.661
-49,-14,3.662
-88,124,3.663
-89,177,3.664
-67,-25,3.665
-54,-179,3.666
-45,-188,3.667
-46,-177,3.668
-61,-95,3.669
-49,-43,3.67
36,-92,3.671
153,-83,3.672
201,118,3.673
171,82,3.674
150,8,3.675
126,-51,3.676
94,-69,3.677
53,-112,3.678
-12,-218,3.679
-60,-267,3.68
-48,-143,3.681
-42,-11,3.682
-56,135,3.683
-57,191,3.684
-19,-23,3.685
11,-187,3.686
16,-196,3.687
26,-184,3.688
47,-97,3.689
45,-42,3.69
-32,-94,3.691
-105,-84,3.692
-161,129,3.693
-203,-14,3.694
-186,-38,3.695
-109,-57,3.696
40,-63,3.697
220,-77,3.698
332,-111,3.699
300,-127,3.7
161,-87,3.701
39,-44,3.702
7,3,3.703
13,21,3.704
-14,-48,3.705
-56,-101,3.706
-58,-104,3.707
-34,-100,3.708
-33,-72,3.709
-50,-54,3.71
-46,-71,3.711
-26,-68,3.712
-22,1,3.713
-35,59,3.714
-27,58,3.715
3,39,3.716
27,26,3.717
23,6,3.718
-5,-17,3.719
-48,-18,3.72
-80,1,3.721
-66,16,3.722
-22,29,3.723
5,53,3.724
2,73,3.725
8,70,3.726
29,67,3.727
21,78,3.728
-23,69,3.729
-48,7,3.73
-21,-65,3.731
14,-78,3.732
17,-34,3.733
4,18,3.734
6,31,3.735
15,30,3.736
5,30,3.737
-10,27,3.738
-5,8,3.739
13,-24,3.74
20,-59,3.741
14,-79,3.742
8,-72,3.743
12,-48,3.744
13,-25,3.745
8,-3,3.746
5,20,3.747
14,27,3.748
33,-2,3.749
47,-40,3.75
43,-32,3.751
22,38,3.752
0,114,3.753
-19,144,3.754
-32,122,3.755
-38,75,3.756
-27,30,3.757
-3,-7,3.758
15,-60,3.759
18,-147,3.76
14,-240,3.761
12,-256,3.762
10,-145,3.763
5,31,3.764
3,141,3.765
6,125,3.766
5,57,3.767
0,46,3.768
3,108,3.769
14,159,3.77
9,119,3.771
-26,16,3.772
-65,-44,3.773
-86,-22,3.774
-84,30,3.775
-82,29,3.776
-79,-9,3.777
-48,-12,3.778
21,22,3.779
104,34,3.78
164,14,3.781
187,16,3.782
176,50,3.783
142,67,3.784
95,43,3.785
47,19,3.786
5,12,3.787
-21,-8,3.788
-20,-53,3.789
-2,-88,3.79
2,-82,3.791
-20,-51,3.792
-47,-26,3.793
-58,-10,3.794
-57,-5,3.795
-61,-13,3.796
-55,-37,3.797
-26,-57,3.798
8,-57,3.799
17,-37,3.8
3,-8,3.801
-1,-4,3.802
1,-57,3.803
-7,-137,3.804
-27,-152,3.805
-37,-52,3.806
-28,79,3.807
-17,109,3.808
-9,30,3.809
1,-42,3.81
18,-25,3.811
37,31,3.812
50,51,3.813
43,25,3.814
11,4,3.815
-35,-5,3.816
-58,-38,3.817
-50,-78,3.818
-40,-48,3.819
-54,81,3.82
-62,219,3.821
-27,235,3.822
29,122,3.823
47,3,3.824
18,-25,3.825
-1,-2,3.826
20,-11,3.827
32,-47,3.828
1,-53,3.829
-26,-33,3.83
0,-31,3.831
45,-45,3.832
47,-36,3.833
15,-6,3.834
18,4,3.835
54,-12,3.836
63,-23,3.837
37,-12,3.838
23,-7,3.839
24,-16,3.84
-7,-14,3.841
-56,2,3.842
-49,11,3.843
1,2,3.844
14,-10,3.845
-23,-12,3.846
-33,-12,3.847
7,-14,3.848
31,-16,3.849
7,-21,3.85
-12,-44,3.851
4,-77,3.852
17,-84,3.853
-1,-38,3.854
-17,34,3.855
-11,83,3.856
-7,63,3.857
-16,44,3.858
-14,31,3.859
2,20,3.86
3,15,3.861
-14,10,3.862
-18,6,3.863
5,2,3.864
29,-2,3.865
35,-4,3.866
32,-2,3.867
22,-1,3.868
-7,-5,3.869
-51,-8,3.87
-86,-8,3.871
-86,-8,3.872
-55,-9,3.873
-3,-20,3.874
50,-66,3.875
93,-106,3.876
120,-87,3.877
121,11,3.878
99,115,3.879
72,129,3.88
55,64,3.881
36,16,3.882
-1,32,3.883
-30,52,3.884
-17,31,3.885
22,1,3.886
24,1,3.887
-28,10,3.888
-78,-9,3.889
-84,-48,3.89
-62,-86,3.891
-41,-106,3.892
-21,-89,3.893
6,-42,3.894
21,-23,3.895
7,-82,3.896
-17,-141,3.897
-25,-65,3.898
-14,122,3.899
-3,252,3.9
-4,221,3.901
-13,116,3.902
-18,62,3.903
-13,70,3.904
2,83,3.905
21,67,3.906
43,39,3.907
56,11,3.908
50,-12,3.909
25,-31,3.91
3,-43,3.911
4,-50,3.912
22,-48,3.913
27,-43,3.914
1,-42,3.915
-45,-50,3.916
-81,-68,3.917
-87,-91,3.918
-66,-116,3.919
-36,-111,3.92
-2,-41,3.921
40,55,3.922
92,85,3.923
125,26,3.924
118,-31,3.925
83,-12,3.926
50,39,3.927
15,48,3.928
-42,21,3.929
-110,8,3.93
-147,11,3.931
-132,-1,3.932
-76,-25,3.933
11,-32,3.934
102,-18,3.935
141,-10,3.936
108,-13,3.937
40,-9,3.938
-4,0,3.939
-22,4,3.94
-37,4,3.941
-46,6,3.942
-37,6,3.943
-26,1,3.944
-26,-2,3.945
-18,4,3.946
16,7,3.947
51,1,3.948
56,-4,3.949
42,-1,3.95
25,-9,3.951
2,-37,3.952
-25,-65,3.953
-43,-64,3.954
-32,-20,3.955
-13,38,3.956
0,74,3.957
15,75,3.958
37,58,3.959
40,39,3.96
1,15,3.961
-41,-20,3.962
-38,-55,3.963
9,-69,3.964
46,-50,3.965
46,-7,3.966
35,34,3.967
33,46,3.968
28,31,3.969
4,14,3.97
-20,15,3.971
-33,22,3.972
-47,18,3.973
-79,3,3.974
-97,-8,3.975
-73,-7,3.976
-16,-8,3.977
39,-6,3.978
71,1,3.979
79,11,3.98
58,13,3.981
20,6,3.982
-2,0,3.983
5,0,3.984
13,1,3.985
5,0,3.986
-4,-5,3.987
-1,-12,3.988
0,-22,3.989
-4,-35,3.99
-4,-58,3.991
3,-80,3.992
4,-77,3.993
-3,-39,3.994
-4,10,3.995
3,37,3.996
5,34,3.997
2,29,3.998
6,32,3.999
13,31,4.0
1,23,4.001
-18,18,4.002
-28,18,4.003
-24,12,4.004
-14,7,4.005
8,15,4.006
44,31,4.007
68,28,4.008
48,0,4.009
7,-28,4.01
-13,-34,4.011
-10,-17,4.012
-18,5,4.013
-35,15,4.014
-21,6,4.015
26,-21,4.016
45,-49,4.017
5,-53,4.018
-40,-36,4.019
-38,-17,4.02
-11,-3,4.021
-2,15,4.022
-12,31,4.023
-13,34,4.024
-6,27,4.025
0,26,4.026
9,30,4.027
24,27,4.028
28,15,4.029
17,6,4.03
5,1,4.031
6,-1,4.032
14,-5,4.033
16,-10,4.034
15,-13,4.035
10,-13,4.036
0,-15,4.037
-7,-16,4.038
-1,-15,4.039
12,-14,4.04
14,-9,4.041
6,-2,4.042
4,-1,4.043
10,-6,4.044
10,-7,4.045
3,-1,4.046
1,0,4.047
8,-6,4.048
9,-6,4.049
4,3,4.05
1,6,4.051
5,0,4.052
9,-5,4.053
4,-4,4.054
0,-2,4.055
-4,-6,4.056
-7,-11,4.057
-6,-7,4.058
2,-3,4.059
8,0,4.06
3,3,4.061
-8,8,4.062
-6,9,4.063
3,4,4.064
5,0,4.065
1,2,4.066
1,5,4.067
8,4,4.068
10,3,4.069
4,3,4.07
1,3,4.071
0,1,4.072
-1,0,4.073
-3,0,4.074
2,-3,4.075
2,-7,4.076
-9,-10,4.077
-18,-8,4.078
-8,-5,4.079
9,-3,4.08
10,0,4.081
-1,3,4.082
0,3,4.083
11,-1,4.084
14,-1,4.085
4,3,4.086
1,5,4.087
8,3,4.088
8,2,4.089
1,3,4.09
-2,2,4.091
4,-2,4.092
7,-4,4.093
2,-4,4.094
-2,-3,4.095
-3,-4,4.096
-5,-6,4.097
-7,-6,4.098
-3,-4,4.099
3,-1,4.1
6,3,4.101
4,5,4.102
5,3,4.103
9,-1,4.104
5,0,4.105
-1,3,4.106
0,2,4.107
7,-2,4.108
8,-4,4.109
5,-2,4.11
4,-1,4.111
6,-2,4.112
5,0,4.113
-2,-1,4.114
-4,-3,4.115
-4,-6,4.116
-2,-10,4.117
-3,-6,4.118
0,-1,4.119
8,1,4.12
10,3,4.121
4,6,4.122
0,8,4.123
3,6,4.124
7,2,4.125
8,1,4.126
4,3,4.127
3,5,4.128
2,2,4.129
3,0,4.13
3,-1,4.131
2,0,4.132
2,2,4.133
-1,-2,4.134
-4,-7,4.135
-6,-7,4.136
-8,-7,4.137
-7,-3,4.138
-2,-1,4.139
6,0,4.14
10,4,4.141
8,12,4.142
4,18,4.143
1,18,4.144
2,14,4.145
4,11,4.146
5,9,4.147
4,4,4.148
4,-9,4.149
4,-25,4.15
3,-35,4.151
1,-37,4.152
0,-30,4.153
1,-23,4.154
0,-11,4.155
-5,0,4.156
-10,3,4.157
-8,3,4.158
0,4,4.159
8,7,4.16
8,11,4.161
5,11,4.162
2,8,4.163
3,5,4.164
5,4,4.165
5,4,4.166
3,5,4.167
0,6,4.168
0,5,4.169
4,0,4.17
6,-4,4.171
6,0,4.172
4,5,4.173
2,3,4.174
0,-1,4.175
-5,-5,4.176
-10,-5,4.177
-6,-3,4.178
2,-5,4.179
9,-4,4.18
5,1,4.181
0,7,4.182
-1,7,4.183
3,3,4.184
6,1,4.185
6,1,4.186
7,2,4.187
9,2,4.188
9,2,4.189
5,2,4.19
5,0,4.191
4,-4,4.192
5,-5,4.193
1,-6,4.194
0,-5,4.195
-2,-5,4.196
-4,-8,4.197
-6,-6,4.198
-2,-2,4.199
6,1,4.2
8,3,4.201
1,3,4.202
-1,5,4.203
3,4,4.204
7,2,4.205
5,1,4.206
3,0,4.207
6,0,4.208
9,-3,4.209
8,-4,4.21
6,-3,4.211
6,0,4.212
8,2,4.213
4,-2,4.214
-1,-6,4.215
-7,-6,4.216
-10,-6,4.217
-10,-3,4.218
-3,-2,4.219
5,-2,4.22
3,1,4.221
-3,4,4.222
-1,3,4.223
9,2,4.224
10,4,4.225
3,8,4.226
-1,9,4.227
5,10,4.228
12,12,4.229
9,17,4.23
3,17,4.231
3,8,4.232
4,-5,4.233
1,-26,4.234
-1,-43,4.235
-3,-54,4.236
-5,-54,4.237
-7,-37,4.238
-2,-14,4.239
8,3,4.24
11,10,4.241
4,11,4.242
-1,12,4.243
3,15,4.244
8,18,4.245
6,17,4.246
5,10,4.247
8,5,4.248
9,3,4.249
6,3,4.25
2,2,4.251
2,0,4.252
2,1,4.253
0,0,4.254
0,-1,4.255
-2,-3,4.256
-5,-5,4.257
-6,-3,4.258
0,-3,4.259
6,-3,4.26
4,-1,4.261
-1,3,4.262
-2,2,4.263
3,0,4.264
7,0,4.265
4,0,4.266
1,1,4.267
1,0,4.268
2,0,4.269
2,0,4.27
2,-3,4.271
2,-7,4.272
2,-6,4.273
1,-2,4.274
0,3,4.275
-3,2,4.276
-7,-5,4.277
-11,-5,4.278
-8,-2,4.279
0,2,4.28
2,3,4.281
-2,3,4.282
-6,3,4.283
-2,1,4.284
4,1,4.285
8,4,4.286
7,6,4.287
7,5,4.288
10,1,4.289
11,0,4.29
6,0,4.291
3,-1,4.292
2,-1,4.293
3,-2,4.294
3,-4,4.295
0,-5,4.296
0,-7,4.297
1,-5,4.298
3,-2,4.299
5,-1,4.3
7,3,4.301
5,5,4.302
3,3,4.303
4,-2,4.304
8,-3,4.305
12,0,4.306
14,0,4.307
11,-3,4.308
7,-6,4.309
2,-5,4.31
0,-3,4.311
-1,-2,4.312
0,0,4.313
0,2,4.314
0,3,4.315
-6,1,4.316
-12,-2,4.317
-10,-1,4.318
0,-1,4.319
9,-4,4.32
7,-4,4.321
-1,3,4.322
0,8,4.323
6,6,4.324
7,0,4.325
4,-1,4.326
4,1,4.327
10,1,4.328
13,0,4.329
8,1,4.33
1,1,4.331
0,0,4.332
4,-2,4.333
4,-4,4.334
1,-3,4.335
-6,-3,4.336
-10,-7,4.337
-7,-9,4.338
0,-8,4.339
5,-6,4.34
4,-5,4.341
1,-2,4.342
3,1,4.343
7,1,4.344
10,-1,4.345
8,0,4.346
7,2,4.347
11,3,4.348
10,1,4.349
7,0,4.35
3,-2,4.351
3,-5,4.352
4,-3,4.353
0,-2,4.354
-2,-4,4.355
-5,-7,4.356
-8,-10,4.357
-12,-7,4.358
-8,-4,4.359
0,-3,4.36
8,-1,4.361
3,3,4.362
0,4,4.363
3,1,4.364
7,2,4.365
6,5,4.366
3,4,4.367
5,-1,4.368
8,-3,4.369
5,-2,4.37
2,0,4.371
1,-3,4.372
3,-2,4.373
2,2,4.374
-1,1,4.375
-5,-3,4.376
-7,-9,4.377
-6,-7,4.378
1,-1,4.379
7,1,4.38
6,1,4.381
2,2,4.382
4,3,4.383
9,3,4.384
8,2,4.385
4,5,4.386
5,7,4.387
10,2,4.388
12,-1,4.389
9,0,4.39
5,3,4.391
2,1,4.392
1,-2,4.393
-2,-3,4.394
-2,-2,4.395
-2,-5,4.396
-4,-13,4.397
-5,-13,4.398
0,-5,4.399
7,1,4.4
4,1,4.401
0,1,4.402
-2,2,4.403
4,2,4.404
8,0,4.405
7,0,4.406
4,2,4.407
4,3,4.408
6,2,4.409
9,2,4.41
8,0,4.411
7,-2,4.412
6,-3,4.413
3,-4,4.414
-1,-3,4.415
-7,-5,4.416
-14,-8,4.417
-14,-7,4.418
-5,-4,4.419
7,-3,4.42
11,-1,4.421
6,4,4.422
2,7,4.423
5,4,4.424
8,1,4.425
6,3,4.426
1,6,4.427
4,5,4.428
9,2,4.429
7,0,4.43
1,1,4.431
0,3,4.432
2,5,4.433
3,3,4.434
0,-1,4.435
-4,-8,4.436
-6,-11,4.437
-5,-7,4.438
-2,-3,4.439
3,1,4.44
4,3,4.441
1,5,4.442
2,3,4.443
5,0,4.444
7,0,4.445
5,2,4.446
2,2,4.447
3,0,4.448
4,0,4.449
4,3,4.45
3,1,4.451
2,-2,4.452
1,-1,4.453
-2,0,4.454
-6,-3,4.455
-10,-6,4.456
-12,-7,4.457
-10,-7,4.458
-3,-5,4.459
4,-3,4.46
8,0,4.461
6,2,4.462
5,2,4.463
5,3,4.464
4,3,4.465
3,2,4.466
6,3,4.467
8,3,4.468
6,0,4.469
2,-1,4.47
2,0,4.471
5,3,4.472
8,1,4.473
5,0,4.474
2,0,4.475
-1,0,4.476
-4,-4,4.477
-5,-4,4.478
-1,-1,4.479
5,3,4.48
6,6,4.481
2,6,4.482
0,4,4.483
4,0,4.484
9,-3,4.485
9,-2,4.486
6,-1,4.487
5,-3,4.488
5,-5,4.489
5,-6,4.49
6,-4,4.491
6,-2,4.492
6,0,4.493
4,-2,4.494
0,-6,4.495
-6,-10,4.496
-9,-10,4.497
-7,-6,4.498
0,-3,4.499
5,-2,4.5
3,0,4.501
0,5,4.502
0,6,4.503
3,4,4.504
4,3,4.505
2,3,4.506
3,2,4.507
6,0,4.508
4,0,4.509
0,0,4.51
-1,-2,4.511
0,-5,4.512
2,-3,4.513
-1,-1,4.514
-5,-2,4.515
-8,-5,4.516
-7,-10,4.517
-3,-8,4.518
5,-4,4.519
11,0,4.52
9,3,4.521
2,3,4.522
0,1,4.523
1,1,4.524
4,5,4.525
5,6,4.526
8,1,4.527
11,-4,4.528
10,-3,4.529
4,0,4.53
1,1,4.531
1,0,4.532
3,2,4.533
0,2,4.534
-3,-1,4.535
-5,-4,4.536
-8,-6,4.537
-9,-3,4.538
-3,0,4.539
7,1,4.54
11,0,4.541
9,0,4.542
6,0,4.543
7,2,4.544
5,4,4.545
0,3,4.546
-2,0,4.547
2,-2,4.548
3,0,4.549
0,1,4.55
-1,-1,4.551
2,-4,4.552
6,-4,4.553
3,-3,4.554
-2,-3,4.555
-4,-6,4.556
-6,-9,4.557
-4,-10,4.558
1,-8,4.559
7,-5,4.56
8,0,4.561
4,3,4.562
-1,6,4.563
-3,3,4.564
-10,-3,4.565
-16,-5,4.566
-17,-2,4.567
-4,1,4.568
11,-1,4.569
17,-2,4.57
18,-3,4.571
20,-2,4.572
25,-1,4.573
26,-4,4.574
16,-3,4.575
-2,-1,4.576
-16,-4,4.577
-19,-5,4.578
-5,-4,4.579
20,-1,4.58
41,1,4.581
41,2,4.582
16,0,4.583
-18,-2,4.584
-44,-2,4.585
-55,1,4.586
-49,4,4.587
-39,4,4.588
-29,3,4.589
-10,5,4.59
25,6,4.591
64,4,4.592
81,3,4.593
65,3,4.594
30,3,4.595
0,-2,4.596
-10,-11,4.597
-1,-9,4.598
10,-2,4.599
13,2,4.6
9,1,4.601
8,0,4.602
17,2,4.603
19,3,4.604
0,3,4.605
-34,3,4.606
-61,3,4.607
-63,1,4.608
-40,0,4.609
-8,0,4.61
14,4,4.611
23,4,4.612
30,2,4.613
35,-1,4.614
26,-3,4.615
-2,-5,4.616
-27,-9,4.617
-23,-9,4.618
1,-4,4.619
14,0,4.62
10,4,4.621
17,5,4.622
41,3,4.623
56,-1,4.624
44,-2,4.625
16,2,4.626
-4,4,4.627
-10,0,4.628
-9,-4,4.629
-6,-2,4.63
-2,0,4.631
-2,0,4.632
-9,-2,4.633
-18,-4,4.634
-15,-6,4.635
-7,-7,4.636
-7,-9,4.637
-13,-5,4.638
-10,0,4.639
-2,-1,4.64
0,-3,4.641
-9,-1,4.642
-14,0,4.643
-8,0,4.644
-4,-4,4.645
-12,-3,4.646
-26,-1,4.647
-33,0,4.648
-20,0,4.649
9,0,4.65
35,1,4.651
42,0,4.652
36,1,4.653
30,0,4.654
31,-1,4.655
25,-3,4.656
13,-7,4.657
9,-3,4.658
17,-1,4.659
19,0,4.66
-2,0,4.661
-28,-1,4.662
-31,0,4.663
-13,-2,4.664
4,-2,4.665
11,0,4.666
6,1,4.667
-5,1,4.668
-22,1,4.669
-39,3,4.67
-34,4,4.671
-4,1,4.672
32,-1,4.673
47,-3,4.674
36,-4,4.675
18,-5,4.676
16,-9,4.677
24,-9,4.678
27,-7,4.679
14,-2,4.68
-3,1,4.681
3,2,4.682
44,1,4.683
84,2,4.684
71,2,4.685
-3,3,4.686
-70,1,4.687
-73,-1,4.688
-40,-3,4.689
-40,-3,4.69
-71,-1,4.691
-78,2,4.692
-48,4,4.693
-22,1,4.694
-24,-3,4.695
-25,-6,4.696
3,-8,4.697
38,-9,4.698
54,-8,4.699
55,-3,4.7
51,3,4.701
31,5,4.702
-1,4,4.703
-16,4,4.704
1,6,4.705
21,8,4.706
16,5,4.707
3,0,4.708
6,-3,4.709
8,-6,4.71
-7,-8,4.711
-20,-8,4.712
-5,-7,4.713
26,-8,4.714
41,-9,4.715
34,-10,4.716
28,-9,4.717
28,-3,4.718
25,2,4.719
15,4,4.72
4,3,4.721
0,2,4.722
-1,2,4.723
1,2,4.724
1,2,4.725
-10,4,4.726
-27,6,4.727
-30,4,4.728
-4,2,4.729
32,2,4.73
49,3,4.731
37,1,4.732
18,-1,4.733
-3,-1,4.734
-19,3,4.735
-32,5,4.736
-38,1,4.737
-39,-3,4.738
-24,-3,4.739
-10,-3,4.74
-4,0,4.741
1,3,4.742
9,1,4.743
13,0,4.744
7,-1,4.745
2,-1,4.746
3,1,4.747
3,3,4.748
-1,-2,4.749
-4,-5,4.75
-4,-2,4.751
-3,0,4.752
-1,0,4.753
1,-2,4.754
4,-4,4.755
3,-4,4.756
-2,-7,4.757
-5,-7,4.758
1,-4,4.759
9,-2,4.76
10,2,4.761
5,6,4.762
-3,4,4.763
-15,-2,4.764
-33,-3,4.765
-41,2,4.766
-23,7,4.767
16,4,4.768
48,1,4.769
59,1,4.77
55,0,4.771
47,-5,4.772
22,-6,4.773
-32,-3,4.774
-92,-2,4.775
-111,-4,4.776
-71,-8,4.777
-1,-7,4.778
53,-5,4.779
66,-8,4.78
47,-7,4.781
28,1,4.782
34,8,4.783
68,7,4.784
101,2,4.785
97,1,4.786
54,4,4.787
20,4,4.788
21,2,4.789
31,-1,4.79
7,-2,4.791
-39,-3,4.792
-62,-2,4.793
-36,-3,4.794
1,-3,4.795
1,-4,4.796
-27,-6,4.797
-40,-6,4.798
-25,-7,4.799
-19,-5,4.8
-34,-1,4.801
-39,1,4.802
-14,2,4.803
7,2,4.804
2,2,4.805
-8,4,4.806
0,3,4.807
12,1,4.808
6,0,4.809
-8,0,4.81
-9,-2,4.811
-4,-3,4.812
-7,-1,4.813
-13,0,4.814
-9,-1,4.815
0,-6,4.816
1,-8,4.817
1,-2,4.818
12,5,4.819
27,5,4.82
26,1,4.821
6,0,4.822
-11,0,4.823
-10,-1,4.824
0,-2,4.825
3,1,4.826
1,5,4.827
2,6,4.828
7,3,4.829
9,1,4.83
10,-5,4.831
11,-12,4.832
15,-12,4.833
15,-9,4.834
11,-9,4.835
5,-13,4.836
2,-20,4.837
0,-14,4.838
4,-3,4.839
20,6,4.84
48,11,4.841
76,12,4.842
75,7,4.843
27,2,4.844
-32,2,4.845
-57,5,4.846
-41,5,4.847
-23,2,4.848
-26,0,4.849
-31,1,4.85
-21,2,4.851
-14,0,4.852
-21,0,4.853
-32,-3,4.854
-30,-6,4.855
-21,-9,4.856
-19,-10,4.857
-13,-2,4.858
0,8,4.859
16,12,4.86
22,11,4.861
20,15,4.862
19,27,4.863
21,35,4.864
23,28,4.865
24,3,4.866
22,-28,4.867
19,-55,4.868
20,-68,4.869
21,-61,4.87
17,-35,4.871
5,-2,4.872
0,20,4.873
1,22,4.874
3,12,4.875
-4,4,4.876
-10,3,4.877
-8,5,4.878
1,5,4.879
9,8,4.88
13,12,4.881
11,17,4.882
8,16,4.883
3,11,4.884
1,8,4.885
1,3,4.886
-2,0,4.887
-5,0,4.888
-1,3,4.889
9,5,4.89
16,3,4.891
12,2,4.892
10,1,4.893
21,0,4.894
35,0,4.895
32,2,4.896
4,5,4.897
-24,6,4.898
-27,5,4.899
-14,9,4.9
-5,23,4.901
-6,33,4.902
-2,18,4.903
7,-17,4.904
11,-52,4.905
5,-71,4.906
3,-73,4.907
6,-59,4.908
5,-27,4.909
-1,8,4.91
-3,22,4.911
-3,11,4.912
-8,4,4.913
-18,9,4.914
-18,17,4.915
-11,11,4.916
-3,1,4.917
1,7,4.918
16,18,4.919
34,13,4.92
33,2,4.921
12,-3,4.922
-6,2,4.923
-5,5,4.924
4,3,4.925
5,4,4.926
0,6,4.927
0,4,4.928
2,0,4.929
2,0,4.93
3,2,4.931
20,0,4.932
48,-4,4.933
60,-6,4.934
31,-6,4.935
-28,-3,4.936
-69,-4,4.937
-66,-7,4.938
-40,-8,4.939
-27,-5,4.94
-29,2,4.941
-23,6,4.942
-9,5,4.943
-3,1,4.944
-5,1,4.945
1,1,4.946
17,-2,4.947
22,-5,4.948
17,-3,4.949
13,3,4.95
16,4,4.951
17,1,4.952
12,0,4.953
4,-1,4.954
2,-2,4.955
-1,-4,4.956
-4,-6,4.957
-4,-6,4.958
2,-5,4.959
12,-2,4.96
14,1,4.961
11,3,4.962
8,1,4.963
9,-2,4.964
19,-1,4.965
30,5,4.966
31,9,4.967
21,6,4.968
10,3,4.969
4,3,4.97
4,3,4.971
6,-3,4.972
8,-6,4.973
6,-6,4.974
0,-1,4.975
-13,-3,4.976
-21,-12,4.977
-22,-15,4.978
-12,-11,4.979
7,-3,4.98
23,0,4.981
24,3,4.982
12,5,4.983
-1,5,4.984
0,0,4.985
8,-2,4.986
11,1,4.987
3,6,4.988
-2,8,4.989
-3,5,4.99
-6,0,4.991
-9,-5,4.992
-5,-7,4.993
1,-8,4.994
3,-7,4.995
-3,-6,4.996
-6,-10,4.997
-1,-10,4.998
8,-8,4.999
11,-5,5.0
8,-1,5.001
4,0,5.002
0,0,5.003
-2,2,5.004
-3,7,5.005
-2,9,5.006
-3,10,5.007
-4,11,5.008
-3,11,5.009
-2,10,5.01
0,7,5.011
0,3,5.012
3,2,5.013
6,-6,5.014
5,-4,5.015
-3,-3,5.016
-12,-3,5.017
-12,-4,5.018
-3,-5,5.019
6,-4,5.02
8,1,5.021
5,6,5.022
5,6,5.023
10,5,5.024
17,4,5.025
15,3,5.026
7,3,5.027
4,1,5.028
7,-2,5.029
9,-5,5.03
6,-5,5.031
2,-5,5.032
1,-4,5.033
0,-6,5.034
-2,-4,5.035
-8,-3,5.036
-11,-3,5.037
-10,-4,5.038
-2,-5,5.039
8,-4,5.04
11,1,5.041
4,6,5.042
0,6,5.043
5,5,5.044
11,4,5.045
10,3,5.046
5,3,5.047
4,1,5.048
4,-2,5.049
2,-5,5.05
1,-5,5.051
5,-5,5.052
8,-4,5.053
5,-3,5.054
1,-4,5.055
-3,-4,5.056
-9,-4,5.057
-13,-1,5.058
-12,0,5.059
-3,2,5.06
6,6,5.061
11,9,5.062
10,8,5.063
10,6,5.064
6,9,5.065
2,16,5.066
3,18,5.067
6,14,5.068
6,10,5.069
0,14,5.07
-4,26,5.071
-3,30,5.072
1,17,5.073
8,-19,5.074
18,-60,5.075
21,-83,5.076
13,-86,5.077
1,-67,5.078
0,-36,5.079
4,-2,5.08
-2,22,5.081
-15,29,5.082
-16,24,5.083
-3,20,5.084
5,19,5.085
2,17,5.086
1,14,5.087
9,11,5.088
10,10,5.089
0,8,5.09
-5,8,5.091
-1,8,5.092
5,6,5.093
4,-1,5.094
5,-7,5.095
9,-5,5.096
10,-2,5.097
3,1,5.098
0,4,5.099
5,3,5.1
9,1,5.101
8,-1,5.102
6,-3,5.103
7,-3,5.104
8,0,5.105
3,3,5.106
1,3,5.107
2,0,5.108
2,-2,5.109
0,-3,5.11
0,-5,5.111
3,-5,5.112
5,-5,5.113
0,-5,5.114
-4,-5,5.115
-6,-8,5.116
-9,-11,5.117
-11,-10,5.118
-6,-5,5.119
2,0,5.12
6,3,5.121
1,5,5.122
0,6,5.123
5,6,5.124
12,5,5.125
11,4,5.126
9,0,5.127
9,-2,5.128
10,-2,5.129
8,0,5.13
5,-1,5.131
3,-1,5.132
0,1,5.133
-8,2,5.134
-13,0,5.135
-15,0,5.136
-15,-1,5.137
-12,2,5.138
-4,2,5.139
5,1,5.14
7,2,5.141
4,5,5.142
4,2,5.143
11,-3,5.144
11,-4,5.145
7,2,5.146
5,2,5.147
11,-5,5.148
14,-10,5.149
11,-10,5.15
5,-9,5.151
5,-12,5.152
11,-13,5.153
13,-13,5.154
12,-14,5.155
8,-15,5.156
1,-17,5.157
-3,-13,5.158
-5,-2,5.159
-3,11,5.16
-2,25,5.161
-5,27,5.162
-8,19,5.163
-8,12,5.164
-10,15,5.165
-16,22,5.166
-20,21,5.167
-14,14,5.168
-3,11,5.169
5,10,5.17
8,3,5.171
6,-6,5.172
5,-9,5.173
4,-8,5.174
4,-9,5.175
1,-14,5.176
-3,-20,5.177
-1,-20,5.178
10,-15,5.179
17,-7,5.18
11,0,5.181
4,5,5.182
6,3,5.183
13,-1,5.184
11,0,5.185
4,5,5.186
7,6,5.187
14,4,5.188
14,0,5.189
6,-1,5.19
5,-2,5.191
10,-4,5.192
10,-4,5.193
2,-6,5.194
-2,-8,5.195
-1,-10,5.196
-3,-10,5.197
-7,-6,5.198
-5,-2,5.199
3,1,5.2
8,2,5.201
4,5,5.202
4,4,5.203
11,2,5.204
15,0,5.205
11,2,5.206
4,2,5.207
6,0,5.208
8,-2,5.209
6,0,5.21
5,-1,5.211
5,-2,5.212
3,1,5.213
-2,3,5.214
-3,4,5.215
-4,2,5.216
-9,3,5.217
-12,13,5.218
-6,25,5.219
6,23,5.22
9,1,5.221
0,-21,5.222
-3,-20,5.223
6,16,5.224
17,51,5.225
18,30,5.226
14,-49,5.227
9,-118,5.228
0,-101,5.229
-9,1,5.23
-15,108,5.231
-12,136,5.232
-4,71,5.233
-3,-57,5.234
-8,-153,5.235
-14,-148,5.236
-15,-72,5.237
-9,-22,5.238
-2,-47,5.239
1,-92,5.24
-2,-83,5.241
-8,-15,5.242
-8,84,5.243
-3,205,5.244
-1,301,5.245
0,266,5.246
1,85,5.247
4,-80,5.248
9,-75,5.249
15,48,5.25
21,110,5.251
24,52,5.252
17,-48,5.253
0,-144,5.254
-13,-226,5.255
-27,-272,5.256
-35,-238,5.257
-31,-134,5.258
9,-38,5.259
42,2,5.26
54,18,5.261
59,49,5.262
40,86,5.263
24,102,5.264
18,94,5.265
12,89,5.266
4,111,5.267
-1,163,5.268
7,202,5.269
11,176,5.27
1,85,5.271
-6,-15,5.272
-8,-82,5.273
-12,-150,5.274
-18,-216,5.275
-15,-224,5.276
-5,-143,5.277
0,-34,5.278
-1,21,5.279
0,32,5.28
-1,50,5.281
-5,69,5.282
-6,54,5.283
4,25,5.284
11,20,5.285
6,27,5.286
-1,12,5.287
3,-8,5.288
13,-1,5.289
12,19,5.29
6,19,5.291
5,5,5.292
8,11,5.293
3,41,5.294
-5,59,5.295
-9,34,5.296
-6,-29,5.297
-5,-83,5.298
-5,-96,5.299
-2,-73,5.3
0,-44,5.301
-4,-26,5.302
-9,-12,5.303
-8,4,5.304
-5,15,5.305
-9,15,5.306
-20,19,5.307
-26,31,5.308
-21,36,5.309
-9,24,5.31
0,6,5.311
4,-1,5.312
4,-4,5.313
3,-6,5.314
1,-10,5.315
0,-14,5.316
0,-18,5.317
2,-20,5.318
14,-14,5.319
22,-9,5.32
20,-6,5.321
17,-2,5.322
15,7,5.323
14,13,5.324
15,9,5.325
16,5,5.326
13,8,5.327
11,10,5.328
11,6,5.329
10,2,5.33
10,0,5.331
10,-2,5.332
6,-2,5.333
1,-5,5.334
-3,-8,5.335
-7,-3,5.336
-11,-1,5.337
-15,0,5.338
-12,4,5.339
-5,13,5.34
-2,27,5.341
-3,43,5.342
-3,57,5.343
3,56,5.344
8,26,5.345
9,-21,5.346
11,-51,5.347
18,-42,5.348
25,-8,5.349
25,9,5.35
18,-3,5.351
7,-18,5.352
-2,-11,5.353
-11,-1,5.354
-18,-18,5.355
-21,-66,5.356
-21,-106,5.357
-16,-110,5.358
-3,-92,5.359
5,-71,5.36
5,-38,5.361
0,10,5.362
0,50,5.363
6,66,5.364
8,66,5.365
5,63,5.366
6,52,5.367
13,35,5.368
18,28,5.369
14,31,5.37
6,33,5.371
0,26,5.372
-3,19,5.373
-6,21,5.374
-6,33,5.375
-5,64,5.376
-9,106,5.377
-15,118,5.378
-11,45,5.379
1,-94,5.38
8,-203,5.381
3,-209,5.382
-2,-134,5.383
0,-50,5.384
5,5,5.385
7,38,5.386
7,54,5.387
11,53,5.388
15,47,5.389
14,46,5.39
14,45,5.391
14,40,5.392
15,35,5.393
14,28,5.394
11,9,5.395
3,-18,5.396
-2,-34,5.397
-3,-3,5.398
3,71,5.399
9,133,5.4
6,112,5.401
-1,-16,5.402
-4,-176,5.403
-1,-263,5.404
0,-234,5.405
6,-139,5.406
15,-41,5.407
17,35,5.408
3,78,5.409
-13,84,5.41
-18,76,5.411
-13,77,5.412
-6,74,5.413
-7,44,5.414
-7,17,5.415
-8,40,5.416
-9,91,5.417
-8,99,5.418
0,32,5.419
12,-68,5.42
14,-148,5.421
6,-191,5.422
3,-186,5.423
10,-123,5.424
14,-24,5.425
10,52,5.426
3,75,5.427
3,67,5.428
7,62,5.429
9,61,5.43
11,43,5.431
15,16,5.432
20,5,5.433
19,8,5.434
14,13,5.435
-1,11,5.436
-18,11,5.437
-25,21,5.438
-13,25,5.439
8,15,5.44
15,4,5.441
3,5,5.442
-5,25,5.443
0,66,5.444
6,113,5.445
5,129,5.446
2,86,5.447
4,2,5.448
7,-80,5.449
3,-139,5.45
-3,-173,5.451
-5,-173,5.452
-4,-133,5.453
-6,-81,5.454
-10,-54,5.455
-13,-53,5.456
-17,-49,5.457
-12,-24,5.458
-1,3,5.459
8,31,5.46
8,59,5.461
2,75,5.462
5,63,5.463
12,42,5.464
8,43,5.465
2,53,5.466
7,48,5.467
17,39,5.468
16,58,5.469
6,101,5.47
4,116,5.471
11,58,5.472
13,-42,5.473
6,-129,5.474
-1,-141,5.475
-4,-84,5.476
-10,-20,5.477
-17,3,5.478
-14,-17,5.479
-3,-36,5.48
3,-9,5.481
4,64,5.482
10,126,5.483
14,109,5.484
7,20,5.485
-2,-63,5.486
2,-90,5.487
15,-90,5.488
14,-112,5.489
0,-142,5.49
-8,-133,5.491
-8,-76,5.492
-7,-6,5.493
-9,56,5.494
-3,104,5.495
1,129,5.496
0,122,5.497
2,99,5.498
16,79,5.499
28,67,5.5
27,57,5.501
25,45,5.502
22,36,5.503
18,34,5.504
13,51,5.505
8,92,5.506
6,130,5.507
3,107,5.508
0,-2,5.509
-2,-149,5.51
-3,-241,5.511
-4,-232,5.512
-5,-156,5.513
-10,-70,5.514
-18,37,5.515
-20,136,5.516
-21,182,5.517
-19,138,5.518
-9,21,5.519
3,-89,5.52
9,-130,5.521
3,-115,5.522
1,-103,5.523
10,-128,5.524
17,-166,5.525
16,-177,5.526
14,-138,5.527
13,-66,5.528
8,1,5.529
-2,47,5.53
-8,77,5.531
-9,102,5.532
-4,113,5.533
0,95,5.534
4,70,5.535
5,63,5.536
5,59,5.537
6,44,5.538
12,25,5.539
17,24,5.54
15,47,5.541
10,78,5.542
7,92,5.543
11,77,5.544
12,26,5.545
7,-37,5.546
0,-91,5.547
-4,-121,5.548
-5,-123,5.549
-8,-84,5.55
-8,-5,5.551
-4,61,5.552
1,62,5.553
0,0,5.554
-7,-58,5.555
-16,-51,5.556
-22,10,5.557
-20,80,5.558
-9,103,5.559
1,45,5.56
6,-88,5.561
5,-228,5.562
7,-270,5.563
15,-174,5.564
19,-9,5.565
18,102,5.566
14,105,5.567
8,49,5.568
3,20,5.569
1,55,5.57
6,110,5.571
16,125,5.572
20,98,5.573
19,57,5.574
13,36,5.575
5,32,5.576
0,25,5.577
0,22,5.578
5,41,5.579
8,74,5.58
4,78,5.581
-3,21,5.582
-3,-67,5.583
2,-124,5.584
4,-113,5.585
-1,-56,5.586
-7,6,5.587
-7,62,5.588
-3,94,5.589
3,77,5.59
9,4,5.591
12,-73,5.592
10,-93,5.593
3,-50,5.594
1,4,5.595
0,10,5.596
-2,-37,5.597
-5,-84,5.598
-5,-87,5.599
-3,-43,5.6
-5,18,5.601
-10,60,5.602
-11,50,5.603
-5,-16,5.604
-1,-99,5.605
0,-127,5.606
0,-79,5.607
2,-4,5.608
1,39,5.609
-2,49,5.61
-3,59,5.611
0,67,5.612
5,52,5.613
7,29,5.614
6,54,5.615
7,139,5.616
13,186,5.617
18,112,5.618
21,-55,5.619
21,-176,5.62
16,-147,5.621
4,1,5.622
-5,135,5.623
-9,137,5.624
-6,-1,5.625
-1,-168,5.626
2,-238,5.627
5,-182,5.628
6,-74,5.629
5,-13,5.63
1,-42,5.631
0,-144,5.632
2,-248,5.633
5,-278,5.634
6,-184,5.635
0,-14,5.636
-6,132,5.637
-5,196,5.638
6,176,5.639
19,112,5.64
19,68,5.641
9,83,5.642
-3,133,5.643
-11,166,5.644
-15,175,5.645
-15,174,5.646
-7,146,5.647
2,60,5.648
4,-27,5.649
0,-25,5.65
-4,60,5.651
-3,119,5.652
0,85,5.653
3,-15,5.654
13,-104,5.655
21,-157,5.656
20,-170,5.657
13,-109,5.658
12,16,5.659
17,107,5.66
15,72,5.661
1,-41,5.662
-6,-98,5.663
-4,-55,5.664
2,13,5.665
3,39,5.666
3,38,5.667
8,27,5.668
13,-15,5.669
10,-66,5.67
0,-45,5.671
-5,46,5.672
-4,85,5.673
-4,-19,5.674
-5,-157,5.675
-9,-157,5.676
-12,-18,5.677
-6,99,5.678
3,92,5.679
13,22,5.68
14,-35,5.681
11,-85,5.682
9,-135,5.683
13,-149,5.684
17,-115,5.685
14,-70,5.686
7,-28,5.687
0,52,5.688
-4,172,5.689
-8,243,5.69
-10,182,5.691
-7,22,5.692
-2,-112,5.693
1,-156,5.694
1,-107,5.695
-3,-5,5.696
-7,106,5.697
-8,204,5.698
-6,252,5.699
0,199,5.7
2,14,5.701
-3,-246,5.702
-12,-422,5.703
-15,-388,5.704
-7,-202,5.705
2,-25,5.706
9,59,5.707
11,99,5.708
9,140,5.709
4,168,5.71
0,190,5.711
-1,228,5.712
2,250,5.713
4,180,5.714
4,33,5.715
3,-75,5.716
2,-81,5.717
0,-32,5.718
0,-7,5.719
7,-19,5.72
17,-45,5.721
22,-58,5.722
19,-42,5.723
15,-15,5.724
13,-34,5.725
8,-120,5.726
0,-220,5.727
-9,-257,5.728
-7,-209,5.729
0,-100,5.73
3,26,5.731
0,111,5.732
-4,141,5.733
-7,168,5.734
-5,248,5.735
-2,309,5.736
2,207,5.737
5,-44,5.738
7,-245,5.739
12,-236,5.74
13,-89,5.741
7,21,5.742
0,31,5.743
-6,-7,5.744
-9,-39,5.745
-16,-35,5.746
-18,45,5.747
-8,206,5.748
8,338,5.749
17,291,5.75
16,41,5.751
13,-277,5.752
9,-505,5.753
0,-587,5.754
-4,-519,5.755
-3,-258,5.756
1,86,5.757
0,314,5.758
-1,315,5.759
4,197,5.76
15,123,5.761
15,114,5.762
4,98,5.763
0,77,5.764
8,93,5.765
19,115,5.766
21,85,5.767
20,44,5.768
19,61,5.769
16,89,5.77
7,33,5.771
-2,-82,5.772
-5,-135,5.773
-5,-81,5.774
-9,-30,5.775
-18,-44,5.776
-23,-88,5.777
-22,-117,5.778
-16,-136,5.779
-8,-150,5.78
-4,-134,5.781
-5,-65,5.782
-5,45,5.783
0,149,5.784
7,201,5.785
11,174,5.786
13,83,5.787
11,-20,5.788
6,-71,5.789
1,-39,5.79
2,45,5.791
10,107,5.792
16,99,5.793
9,44,5.794
-3,-1,5.795
-11,-20,5.796
-10,-56,5.797
-6,-125,5.798
0,-184,5.799
9,-181,5.8
14,-103,5.801
13,10,5.802
10,90,5.803
10,78,5.804
10,-15,5.805
9,-112,5.806
7,-161,5.807
8,-175,5.808
4,-180,5.809
-1,-130,5.81
-3,8,5.811
1,177,5.812
3,278,5.813
0,275,5.814
0,212,5.815
2,167,5.816
3,169,5.817
0,173,5.818
2,75,5.819
7,-138,5.82
9,-318,5.821
2,-307,5.822
2,-129,5.823
8,38,5.824
8,103,5.825
0,118,5.826
-4,137,5.827
-2,133,5.828
2,80,5.829
-1,6,5.83
-5,-50,5.831
-1,-81,5.832
7,-91,5.833
11,-80,5.834
8,-53,5.835
4,-22,5.836
0,-2,5.837
-3,9,5.838
0,15,5.839
8,34,5.84
10,65,5.841
4,68,5.842
0,45,5.843
3,58,5.844
5,132,5.845
1,154,5.846
-1,16,5.847
0,-192,5.848
2,-263,5.849
-1,-159,5.85
-4,-65,5.851
-2,-115,5.852
2,-227,5.853
-1,-255,5.854
-9,-154,5.855
-17,0,5.856
-20,123,5.857
-18,185,5.858
-7,184,5.859
11,132,5.86
23,68,5.861
23,28,5.862
19,23,5.863
19,36,5.864
16,41,5.865
9,29,5.866
2,21,5.867
0,35,5.868
2,58,5.869
4,66,5.87
3,63,5.871
-3,70,5.872
-8,78,5.873
-13,46,5.874
-11,-28,5.875
-12,-92,5.876
-16,-106,5.877
-13,-106,5.878
2,-147,5.879
18,-182,5.88
18,-116,5.881
10,43,5.882
8,149,5.883
17,104,5.884
20,-19,5.885
14,-79,5.886
6,-48,5.887
3,6,5.888
5,36,5.889
6,48,5.89
5,37,5.891
1,-23,5.892
-3,-103,5.893
-5,-142,5.894
-2,-102,5.895
-3,-14,5.896
-5,71,5.897
-4,136,5.898
5,168,5.899
10,147,5.9
2,71,5.901
-12,-22,5.902
-10,-84,5.903
4,-85,5.904
18,-34,5.905
18,25,5.906
14,34,5.907
5,-47,5.908
-9,-171,5.909
-28,-227,5.91
-39,-146,5.911
-30,19,5.912
-11,140,5.913
5,160,5.914
11,111,5.915
11,61,5.916
14,32,5.917
20,20,5.918
29,24,5.919
33,56,5.92
29,107,5.921
20,153,5.922
15,172,5.923
16,150,5.924
15,74,5.925
9,-40,5.926
0,-146,5.927
-8,-194,5.928
-15,-189,5.929
-15,-156,5.93
-7,-100,5.931
3,-23,5.932
7,38,5.933
2,45,5.934
-3,10,5.935
-11,-21,5.936
-21,-38,5.937
-23,-46,5.938
-12,-34,5.939
4,13,5.94
9,46,5.941
2,22,5.942
-2,-13,5.943
0,21,5.944
3,103,5.945
1,121,5.946
3,39,5.947
7,-54,5.948
9,-78,5.949
2,-43,5.95
-4,-10,5.951
-5,-7,5.952
0,-29,5.953
4,-70,5.954
3,-82,5.955
0,-37,5.956
0,32,5.957
3,64,5.958
13,37,5.959
22,-6,5.96
28,-16,5.961
27,13,5.962
22,59,5.963
12,91,5.964
0,85,5.965
-7,43,5.966
-11,-26,5.967
-11,-121,5.968
-11,-225,5.969
-15,-297,5.97
-21,-282,5.971
-23,-175,5.972
-19,-22,5.973
-8,144,5.974
2,272,5.975
7,302,5.976
11,223,5.977
19,124,5.978
28,85,5.979
31,92,5.98
23,71,5.981
12,17,5.982
6,-2,5.983
5,57,5.984
-4,146,5.985
-20,161,5.986
-29,42,5.987
-23,-168,5.988
-4,-344,5.989
15,-376,5.99
26,-277,5.991
33,-124,5.992
33,40,5.993
-8,177,5.994
-31,207,5.995
-49,174,5.996
-52,-55,5.997
-45,-230,5.998
-9,-242,5.999
17,-221,6.0
18,-103,6.001
21,13,6.002
21,126,6.003
22,193,6.004
31,122,6.005
35,44,6.006
24,-52,6.007
13,-75,6.008
9,125,6.009
5,274,6.01
2,266,6.011
1,219,6.012
0,56,6.013
-4,-74,6.014
-18,-116,6.015
-28,-239,6.016
-29,-340,6.017
-26,-230,6.018
-5,38,6.019
10,230,6.02
11,236,6.021
12,149,6.022
12,77,6.023
13,22,6.024
18,-46,6.025
20,-123,6.026
14,-167,6.027
8,-119,6.028
5,40,6.029
3,212,6.03
1,188,6.031
1,-143,6.032
1,-580,6.033
-6,-675,6.034
-23,-216,6.035
-36,217,6.036
-38,570,6.037
-33,683,6.038
-7,73,6.039
13,-364,6.04
14,-285,6.041
16,-164,6.042
16,84,6.043
17,271,6.044
23,275,6.045
26,262,6.046
18,195,6.047
10,126,6.048
7,56,6.049
4,-2,6.05
2,-25,6.051
1,-44,6.052
0,-50,6.053
-1,-67,6.054
-6,-119,6.055
-15,-154,6.056
-17,-174,6.057
-9,-177,6.058
1,-127,6.059
8,-5,6.06
9,117,6.061
11,132,6.062
18,17,6.063
20,-145,6.064
9,-268,6.065
-6,-329,6.066
-13,-352,6.067
-10,-357,6.068
-9,-358,6.069
-9,-359,6.07
-8,-308,6.071
-2,-102,6.072
3,249,6.073
4,577,6.074
4,687,6.075
0,719,6.076
-9,512,6.077
-16,332,6.078
-9,238,6.079
-1,162,6.08
9,138,6.081
18,94,6.082
17,-3,6.083
14,-77,6.084
7,-75,6.085
2,-93,6.086
2,-170,6.087
4,-231,6.088
10,-240,6.089
14,-249,6.09
12,-255,6.091
7,-287,6.092
-6,-396,6.093
-18,-455,6.094
-24,-251,6.095
-29,39,6.096
-30,179,6.097
-21,160,6.098
1,218,6.099
23,422,6.1
29,489,6.101
20,239,6.102
13,-37,6.103
23,0,6.104
32,205,6.105
14,196,6.106
-20,-85,6.107
-28,-397,6.108
4,-552,6.109
44,-445,6.11
46,-21,6.111
20,495,6.112
5,688,6.113
2,449,6.114
-5,134,6.115
-13,52,6.116
-22,57,6.117
-24,-58,6.118
1,-177,6.119
20,-141,6.12
19,-52,6.121
16,-43,6.122
7,-71,6.123
2,-95,6.124
13,-156,6.125
19,-187,6.126
7,-69,6.127
-2,60,6.128
-2,-84,6.129
0,-458,6.13
2,-668,6.131
4,-489,6.132
2,-126,6.133
-2,200,6.134
-17,380,6.135
-25,421,6.136
-24,347,6.137
-27,233,6.138
-31,162,6.139
-25,138,6.14
-14,122,6.141
-1,128,6.142
7,161,6.143
17,136,6.144
22,-27,6.145
16,-249,6.146
0,-335,6.147
-16,-185,6.148
-20,97,6.149
-12,303,6.15
0,308,6.151
9,173,6.152
12,46,6.153
15,-26,6.154
29,-104,6.155
38,-265,6.156
32,-496,6.157
15,-665,6.158
8,-614,6.159
9,-295,6.16
2,142,6.161
-9,451,6.162
-7,522,6.163
2,438,6.164
-11,317,6.165
-49,193,6.166
-69,78,6.167
-42,17,6.168
7,16,6.169
42,18,6.17
57,-1,6.171
68,-11,6.172
82,-3,6.173
86,-11,6.174
71,-43,6.175
42,-66,6.176
14,-69,6.177
-1,-81,6.178
2,-129,6.179
4,-219,6.18
-11,-346,6.181
-34,-455,6.182
-36,-413,6.183
-17,-151,6.184
-1,185,6.185
5,359,6.186
17,304,6.187
33,160,6.188
29,35,6.189
-6,-109,6.19
-41,-284,6.191
-51,-359,6.192
-41,-228,6.193
-34,64,6.194
-23,322,6.195
-7,408,6.196
3,331,6.197
-9,197,6.198
-31,104,6.199
-39,109,6.2
-26,193,6.201
0,281,6.202
24,312,6.203
39,268,6.204
46,135,6.205
39,-102,6.206
14,-388,6.207
-16,-567,6.208
-32,-519,6.209
-24,-289,6.21
-2,-31,6.211
9,164,6.212
4,284,6.213
-3,322,6.214
1,243,6.215
12,41,6.216
14,-240,6.217
10,-515,6.218
9,-638,6.219
12,-455,6.22
15,22,6.221
22,520,6.222
35,756,6.223
39,692,6.224
17,489,6.225
-20,269,6.226
-38,75,6.227
-32,-44,6.228
-28,-91,6.229
-42,-147,6.23
-60,-230,6.231
-53,-222,6.232
-22,-81,6.233
15,50,6.234
41,56,6.235
51,50,6.236
52,1,6.237
53,-55,6.238
49,-134,6.239
31,-210,6.24
1,-275,6.241
-26,-330,6.242
-38,-354,6.243
-32,-312,6.244
-8,-72,6.245
36,117,6.246
75,153,6.247
62,166,6.248
-5,110,6.249
-63,48,6.25
-53,-29,6.251
1,-83,6.252
32,-59,6.253
29,-33,6.254
26,-32,6.255
38,-50,6.256
38,-36,6.257
19,-10,6.258
4,0,6.259
1,27,6.26
-6,92,6.261
-17,131,6.262
-11,98,6.263
6,55,6.264
3,62,6.265
-30,71,6.266
-62,20,6.267
-71,-73,6.268
-66,-160,6.269
-54,-239,6.27
-27,-301,6.271
26,-280,6.272
80,-165,6.273
96,-33,6.274
70,18,6.275
35,9,6.276
25,34,6.277
36,144,6.278
36,295,6.279
8,413,6.28
-36,442,6.281
-76,380,6.282
-88,269,6.283
-73,156,6.284
-44,53,6.285
-29,-24,6.286
-36,-43,6.287
-49,-3,6.288
-40,27,6.289
0,-6,6.29
60,-67,6.291
103,-96,6.292
110,-91,6.293
86,-86,6.294
55,-81,6.295
27,-61,6.296
-11,-49,6.297
-63,-69,6.298
-107,-101,6.299
-107,-108,6.3
-53,-95,6.301
27,-94,6.302
87,-101,6.303
100,-97,6.304
89,-75,6.305
85,-60,6.306
93,-63,6.307
90,-95,6.308
62,-179,6.309
25,-326,6.31
-2,-454,6.311
-22,-404,6.312
-38,-128,6.313
-49,287,6.314
-46,601,6.315
-35,674,6.316
-29,563,6.317
-32,399,6.318
-30,255,6.319
-19,164,6.32
-6,126,6.321
-6,92,6.322
-10,-6,6.323
-5,-144,6.324
6,-226,6.325
1,-231,6.326
-20,-238,6.327
-40,-285,6.328
-49,-307,6.329
-44,-233,6.33
-26,-83,6.331
7,88,6.332
48,240,6.333
81,335,6.334
100,307,6.335
95,172,6.336
53,35,6.337
-12,-21,6.338
-52,-22,6.339
-42,-22,6.34
-22,-24,6.341
-36,-14,6.342
-61,-3,6.343
-46,-6,6.344
-6,-17,6.345
6,-33,6.346
-7,-59,6.347
-2,-84,6.348
27,-89,6.349
33,-76,6.35
-3,-64,6.351
-40,-64,6.352
-37,-59,6.353
-8,-53,6.354
27,-52,6.355
56,-57,6.356
78,-60,6.357
78,-56,6.358
49,-50,6.359
12,-39,6.36
-12,-17,6.361
-24,12,6.362
-45,32,6.363
-75,37,6.364
-92,35,6.365
-68,28,6.366
-7,16,6.367
50,3,6.368
55,0,6.369
3,7,6.37
-52,16,6.371
-51,16,6.372
0,11,6.373
56,-183,6.374
60,-195,6.375
-1,-183,6.376
-81,-93,6.377
-105,-8,6.378
-41,63,6.379
59,119,6.38
113,126,6.381
111,130,6.382
109,118,6.383
133,100,6.384
150,74,6.385
128,41,6.386
78,-6,6.387
23,-41,6.388
-29,-37,6.389
-57,-20,6.39
-42,44,6.391
-10,79,6.392
-7,23,6.393
-36,-102,6.394
-58,-109,6.395
-55,-102,6.396
-50,-51,6.397
-52,-2,6.398
-45,39,6.399
-27,71,6.4
-25,75,6.401
-38,77,6.402
-40,70,6.403
-29,60,6.404
-17,45,6.405
5,26,6.406
44,-1,6.407
61,-21,6.408
23,-19,6.409
-36,-9,6.41
-48,28,6.411
-11,48,6.412
30,16,6.413
68,-21,6.414
119,-59,6.415
146,-61,6.416
96,-51,6.417
-6,-50,6.418
-74,-60,6.419
-80,-72,6.42
-76,-78,6.421
-89,-70,6.422
-86,-45,6.423
-56,-7,6.424
-34,26,6.425
-33,44,6.426
-20,43,6.427
15,27,6.428
37,4,6.429
33,-5,6.43
29,13,6.431
38,42,6.432
38,50,6.433
15,29,6.434
-6,15,6.435
-7,28,6.436
0,45,6.437
-3,42,6.438
-2,22,6.439
10,5,6.44
19,1,6.441
15,3,6.442
9,1,6.443
15,-9,6.444
21,-22,6.445
16,-32,6.446
7,-35,6.447
9,-33,6.448
13,-32,6.449
10,-34,6.45
5,-34,6.451
5,-30,6.452
6,-25,6.453
-2,-24,6.454
-17,-20,6.455
-27,-16,6.456
-21,-14,6.457
-12,-12,6.458
6,-8,6.459
22,-2,6.46
27,5,6.461
33,9,6.462
37,2,6.463
37,-10,6.464
24,-36,6.465
12,-64,6.466
4,-98,6.467
-6,-106,6.468
-18,-32,6.469
-29,39,6.47
-35,106,6.471
-36,149,6.472
-22,119,6.473
4,83,6.474
64,43,6.475
88,34,6.476
58,45,6.477
8,50,6.478
-11,25,6.479
3,-4,6.48
16,-11,6.481
8,-2,6.482
-7,-7,6.483
-21,-25,6.484
-46,-29,6.485
-87,-19,6.486
-116,-16,6.487
-93,-26,6.488
-27,-31,6.489
37,-26,6.49
63,-23,6.491
67,-26,6.492
79,-23,6.493
95,-14,6.494
93,-7,6.495
63,-1,6.496
28,9,6.497
5,25,6.498
-7,30,6.499
-13,19,6.5
-13,5,6.501
-12,-1,6.502
-18,-1,6.503
-23,-4,6.504
-18,-9,6.505
-3,-16,6.506
7,-27,6.507
3,-43,6.508
-13,-69,6.509
-35,-107,6.51
-49,-136,6.511
-40,-115,6.512
-17,-32,6.513
1,86,6.514
8,165,6.515
16,169,6.516
28,121,6.517
25,70,6.518
-1,34,6.519
-33,11,6.52
-42,14,6.521
-16,36,6.522
26,51,6.523
58,40,6.524
60,17,6.525
35,-1,6.526
6,-15,6.527
-12,-31,6.528
-16,-33,6.529
-13,-15,6.53
-10,3,6.531
-8,7,6.532
0,4,6.533
22,-1,6.534
39,-19,6.535
15,-53,6.536
-51,-90,6.537
-101,-123,6.538
-84,-177,6.539
-18,-231,6.54
27,-204,6.541
32,-70,6.542
28,64,6.543
28,83,6.544
16,31,6.545
-1,42,6.546
-1,144,6.547
10,237,6.548
3,258,6.549
-25,246,6.55
-38,224,6.551
-26,163,6.552
-7,77,6.553
6,14,6.554
31,0,6.555
61,-24,6.556
75,-97,6.557
60,-166,6.558
38,-192,6.559
28,-208,6.56
25,-245,6.561
15,-250,6.562
4,-157,6.563
0,7,6.564
-1,142,6.565
-6,188,6.566
-12,177,6.567
-5,159,6.568
17,141,6.569
35,108,6.57
26,69,6.571
-11,34,6.572
-46,1,6.573
-60,-39,6.574
-49,-60,6.575
-33,-49,6.576
-15,-32,6.577
10,-34,6.578
29,-44,6.579
15,-39,6.58
-29,-32,6.581
-61,-38,6.582
-50,-51,6.583
-13,-48,6.584
27,-39,6.585
59,-35,6.586
72,-36,6.587
50,-35,6.588
2,-28,6.589
-30,-24,6.59
-21,-19,6.591
4,-13,6.592
2,-6,6.593
-20,-4,6.594
-35,-4,6.595
-11,4,6.596
37,11,6.597
54,13,6.598
21,1,6.599
-34,-24,6.6
-64,-51,6.601
-43,-61,6.602
8,-43,6.603
45,-7,6.604
29,29,6.605
-20,54,6.606
-34,65,6.607
26,62,6.608
108,62,6.609
135,71,6.61
86,70,6.611
8,20,6.612
-37,-76,6.613
-34,-174,6.614
-8,-143,6.615
0,-5,6.616
-19,126,6.617
-42,150,6.618
-35,91,6.619
-10,40,6.62
5,41,6.621
15,54,6.622
39,42,6.623
63,19,6.624
45,1,6.625
-11,-7,6.626
-48,-9,6.627
-31,-4,6.628
3,-2,6.629
16,-12,6.63
16,-26,6.631
24,-29,6.632
26,-29,6.633
-6,-54,6.634
-55,-96,6.635
-67,-121,6.636
-26,-106,6.637
24,-52,6.638
35,6,6.639
12,43,6.64
-5,54,6.641
-5,52,6.642
-22,49,6.643
-74,40,6.644
-126,28,6.645
-120,26,6.646
-47,39,6.647
36,58,6.648
73,67,6.649
66,58,6.65
63,26,6.651
91,-21,6.652
117,-55,6.653
93,-65,6.654
23,-54,6.655
-36,-41,6.656
-45,-30,6.657
-19,-10,6.658
6,8,6.659
12,11,6.66
0,5,6.661
-7,7,6.662
12,15,6.663
46,12,6.664
53,-3,6.665
12,-12,6.666
-37,-12,6.667
-59,-8,6.668
-74,-5,6.669
-115,-4,6.67
-159,-9,6.671
-151,-23,6.672
-74,-30,6.673
48,-25,6.674
164,-14,6.675
216,-10,6.676
168,-13,6.677
63,-11,6.678
-7,-8,6.679
-6,-7,6.68
4,-5,6.681
-24,-2,6.682
-45,0,6.683
-8,0,6.684
51,5,6.685
67,16,6.686
45,27,6.687
31,32,6.688
26,32,6.689
-1,28,6.69
-37,20,6.691
-42,12,6.692
-17,7,6.693
-15,0,6.694
-41,-6,6.695
-53,-7,6.696
-30,-7,6.697
-9,-8,6.698
-3,-12,6.699
3,-16,6.7
20,-11,6.701
30,-2,6.702
24,-1,6.703
15,-2,6.704
9,1,6.705
3,4,6.706
1,0,6.707
-1,-5,6.708
5,-5,6.709
9,2,6.71
-1,8,6.711
-3,8,6.712
15,4,6.713
-8,0,6.714
-20,-6,6.715
-26,-9,6.716
-15,-12,6.717
-5,-13,6.718
-2,-11,6.719
1,-8,6.72
9,-5,6.721
14,-4,6.722
11,-5,6.723
7,-4,6.724
4,0,6.725
1,0,6.726
0,-2,6.727
-1,-2,6.728
2,1,6.729
4,5,6.73
-1,6,6.731
-2,3,6.732
7,1,6.733
16,-1,6.734
20,-3,6.735
17,-4,6.736
14,-5,6.737
12,-2,6.738
16,1,6.739
26,1,6.74
29,1,6.741
22,1,6.742
9,0,6.743
2,-7,6.744
6,-26,6.745
10,-53,6.746
4,-62,6.747
-8,-19,6.748
-16,62,6.749
-15,115,6.75
-9,85,6.751
-6,12,6.752
-8,-19,6.753
-12,-4,6.754
-17,9,6.755
-22,-9,6.756
-22,-28,6.757
-13,-19,6.758
2,-5,6.759
20,-13,6.76
40,-20,6.761
64,-9,6.762
76,2,6.763
58,-2,6.764
14,-10,6.765
-32,-7,6.766
-65,-3,6.767
-89,-5,6.768
-110,0,6.769
-110,13,6.77
-76,17,6.771
-18,4,6.772
33,-6,6.773
69,-7,6.774
88,-4,6.775
82,-4,6.776
50,-1,6.777
8,9,6.778
-18,14,6.779
-19,6,6.78
-9,-11,6.781
-8,-40,6.782
-22,-73,6.783
-39,-70,6.784
-31,0,6.785
13,88,6.786
59,102,6.787
59,23,6.788
20,-60,6.789
-5,-75,6.79
3,-44,6.791
12,-17,6.792
1,2,6.793
-13,33,6.794
0,58,6.795
23,50,6.796
27,31,6.797
15,39,6.798
5,56,6.799
12,49,6.8
17,23,6.801
16,9,6.802
14,8,6.803
11,1,6.804
8,-9,6.805
6,-9,6.806
8,-11,6.807
11,-21,6.808
15,-26,6.809
20,-18,6.81
25,-12,6.811
25,-20,6.812
18,-27,6.813
6,-23,6.814
-15,-19,6.815
-36,-16,6.816
-56,-17,6.817
-63,-16,6.818
-32,-8,6.819
-6,-2,6.82
0,-3,6.821
5,-5,6.822
0,-4,6.823
-3,-2,6.824
1,0,6.825
4,2,6.826
6,-2,6.827
9,-4,6.828
14,0,6.829
15,2,6.83
-1,0,6.831
-11,-2,6.832
-5,-1,6.833
0,2,6.834
0,5,6.835
-1,3,6.836
2,-1,6.837
2,-1,6.838
-1,0,6.839
-4,1,6.84
-5,2,6.841
-27,2,6.842
-69,-2,6.843
-91,-5,6.844
-50,-2,6.845
40,1,6.846
116,0,6.847
122,-3,6.848
92,-1,6.849
87,6,6.85
106,11,6.851
88,13,6.852
20,13,6.853
-44,10,6.854
-52,6,6.855
-53,2,6.856
-29,0,6.857
-7,-3,6.858
10,-3,6.859
19,-2,6.86
3,2,6.861
-11,4,6.862
-20,2,6.863
-26,0,6.864
-23,0,6.865
-18,0,6.866
-12,0,6.867
-7,0,6.868
-1,-4,6.869
4,-7,6.87
9,-6,6.871
11,-5,6.872
-2,-5,6.873
-17,-7,6.874
-26,-9,6.875
-23,-11,6.876
-20,-19,6.877
-21,-28,6.878
-7,-33,6.879
19,-30,6.88
31,-16,6.881
22,0,6.882
9,13,6.883
11,22,6.884
17,29,6.885
14,34,6.886
5,32,6.887
3,28,6.888
4,22,6.889
3,19,6.89
0,15,6.891
1,15,6.892
5,20,6.893
9,26,6.894
10,20,6.895
12,9,6.896
14,-3,6.897
15,-12,6.898
16,-23,6.899
14,-30,6.9
6,-25,6.901
-1,-12,6.902
1,-8,6.903
11,-15,6.904
12,-21,6.905
3,-19,6.906
-4,-10,6.907
-7,0,6.908
-11,11,6.909
-17,22,6.91
-16,26,6.911
-10,30,6.912
-6,39,6.913
-8,48,6.914
-4,37,6.915
1,0,6.916
3,-52,6.917
-1,-96,6.918
1,-118,6.919
10,-108,6.92
13,-67,6.921
8,-18,6.922
4,15,6.923
12,23,6.924
17,16,6.925
11,14,6.926
0,17,6.927
-4,21,6.928
-2,19,6.929
0,17,6.93
-1,15,6.931
0,12,6.932
6,12,6.933
14,8,6.934
17,8,6.935
10,8,6.936
2,4,6.937
2,0,6.938
10,-2,6.939
16,2,6.94
11,8,6.941
5,13,6.942
3,13,6.943
4,11,6.944
3,7,6.945
2,5,6.946
4,4,6.947
8,0,6.948
6,-5,6.949
2,-5,6.95
0,-4,6.951
-1,-3,6.952
-3,-3,6.953
-9,-7,6.954
-12,-7,6.955
-19,-1,6.956
-25,3,6.957
-27,6,6.958
-19,6,6.959
-5,6,6.96
1,10,6.961
1,7,6.962
3,-5,6.963
7,-21,6.964
8,-25,6.965
5,-10,6.966
2,6,6.967
5,6,6.968
10,-4,6.969
10,-8,6.97
6,-4,6.971
3,-3,6.972
6,-7,6.973
11,-9,6.974
8,-8,6.975
0,-9,6.976
-7,-13,6.977
-6,-9,6.978
0,0,6.979
8,4,6.98
13,1,6.981
9,3,6.982
5,9,6.983
6,8,6.984
8,0,6.985
9,-4,6.986
8,-2,6.987
8,0,6.988
8,1,6.989
3,3,6.99
-3,3,6.991
-3,-1,6.992
2,-7,6.993
3,-7,6.994
-2,-2,6.995
-8,1,6.996
-8,-3,6.997
-8,-5,6.998
-5,0,6.999
-2,5,7.0
0,6,7.001
4,7,7.002
10,7,7.003
16,6,7.004
16,6,7.005
14,6,7.006
10,6,7.007
7,3,7.008
8,-2,7.009
9,-7,7.01
7,-2,7.011
5,1,7.012
3,-3,7.013
1,-7,7.014
0,-9,7.015
-2,-7,7.016
-6,-7,7.017
-6,-7,7.018
0,-6,7.019
9,-2,7.02
10,3,7.021
4,8,7.022
1,6,7.023
3,2,7.024
7,0,7.025
6,0,7.026
4,-1,7.027
4,-4,7.028
2,-3,7.029
0,2,7.03
0,3,7.031
4,-2,7.032
9,-4,7.033
9,-5,7.034
9,-3,7.035
7,-2,7.036
2,-4,7.037
-2,-6,7.038
-2,-6,7.039
-1,-4,7.04
-2,-2,7.041
-4,1,7.042
-4,5,7.043
-3,8,7.044
2,8,7.045
7,6,7.046
7,3,7.047
6,0,7.048
6,0,7.049
4,0,7.05
0,-2,7.051
-3,-4,7.052
-2,-6,7.053
0,-9,7.054
-4,-8,7.055
-4,-8,7.056
1,-10,7.057
4,-8,7.058
7,-2,7.059
10,3,7.06
11,8,7.061
8,8,7.062
4,3,7.063
7,0,7.064
10,2,7.065
7,6,7.066
3,7,7.067
1,1,7.068
0,-2,7.069
-2,0,7.07
-7,0,7.071
-7,-2,7.072
-3,0,7.073
0,2,7.074
0,4,7.075
-5,2,7.076
-10,-1,7.077
-7,0,7.078
3,1,7.079
10,4,7.08
8,6,7.081
2,8,7.082
5,5,7.083
12,0,7.084
15,-3,7.085
8,-5,7.086
2,-7,7.087
1,-8,7.088
0,-6,7.089
-4,-3,7.09
-6,-2,7.091
-10,0,7.092
-12,4,7.093
-13,2,7.094
-9,-4,7.095
-5,-9,7.096
-6,-9,7.097
-7,-3,7.098
2,-1,7.099
15,-3,7.1
15,-2,7.101
8,2,7.102
8,4,7.103
15,3,7.104
18,3,7.105
11,6,7.106
7,4,7.107
13,-3,7.108
13,-7,7.109
6,-4,7.11
0,0,7.111
0,-2,7.112
2,-2,7.113
0,-2,7.114
-2,2,7.115
-3,2,7.116
-1,-3,7.117
-1,-5,7.118
1,-2,7.119
11,1,7.12
15,6,7.121
12,8,7.122
9,3,7.123
12,-3,7.124
13,-3,7.125
10,0,7.126
3,-1,7.127
0,-6,7.128
0,-5,7.129
0,0,7.13
-1,1,7.131
-2,-3,7.132
-1,-5,7.133
1,-6,7.134
1,-8,7.135
-1,-10,7.136
-4,-11,7.137
-2,-6,7.138
7,-2,7.139
16,0,7.14
16,5,7.141
9,9,7.142
4,9,7.143
3,4,7.144
1,4,7.145
-4,8,7.146
-8,9,7.147
-6,4,7.148
-1,-1,7.149
2,-2,7.15
4,-4,7.151
4,-4,7.152
4,-3,7.153
3,-2,7.154
5,-1,7.155
3,-3,7.156
0,-4,7.157
-3,1,7.158
-1,6,7.159
3,11,7.16
5,14,7.161
3,18,7.162
4,15,7.163
5,9,7.164
4,5,7.165
1,6,7.166
-1,4,7.167
-1,-6,7.168
-2,-16,7.169
-5,-16,7.17
-10,-10,7.171
-14,-5,7.172
-15,0,7.173
-14,0,7.174
-11,-5,7.175
-7,-14,7.176
-1,-26,7.177
5,-33,7.178
13,-25,7.179
17,-16,7.18
10,-4,7.181
2,7,7.182
-5,18,7.183
-10,26,7.184
-4,24,7.185
0,20,7.186
-1,8,7.187
-1,-1,7.188
3,-4,7.189
6,-6,7.19
2,-1,7.191
0,2,7.192
1,0,7.193
4,-3,7.194
5,-6,7.195
4,-9,7.196
5,-14,7.197
5,-9,7.198
10,-2,7.199
15,1,7.2
17,2,7.201
10,5,7.202
2,9,7.203
3,8,7.204
9,3,7.205
9,1,7.206
6,5,7.207
6,3,7.208
9,-3,7.209
7,-8,7.21
3,-9,7.211
2,-10,7.212
5,-8,7.213
4,-9,7.214
2,-11,7.215
3,-14,7.216
4,-17,7.217
4,-13,7.218
7,-7,7.219
14,-1,7.22
16,6,7.221
12,11,7.222
6,5,7.223
8,-4,7.224
11,-6,7.225
6,-1,7.226
-2,2,7.227
-10,-2,7.228
-18,-3,7.229
-23,7,7.23
-20,20,7.231
-12,23,7.232
-6,13,7.233
-5,5,7.234
-4,9,7.235
-2,33,7.236
-1,77,7.237
-1,135,7.238
5,164,7.239
14,101,7.24
12,-76,7.241
1,-285,7.242
-4,-376,7.243
0,-287,7.244
4,-107,7.245
-3,19,7.246
-14,48,7.247
-14,43,7.248
-6,50,7.249
0,56,7.25
0,45,7.251
0,44,7.252
3,65,7.253
6,82,7.254
5,69,7.255
0,37,7.256
-4,16,7.257
-2,17,7.258
10,28,7.259
23,34,7.26
23,34,7.261
12,30,7.262
5,22,7.263
11,17,7.264
20,14,7.265
18,9,7.266
13,0,7.267
12,-7,7.268
11,-10,7.269
5,-14,7.27
0,-21,7.271
-1,-25,7.272
-1,-19,7.273
-7,-11,7.274
-15,-2,7.275
-15,4,7.276
-6,-2,7.277
0,-12,7.278
8,-15,7.279
14,7,7.28
13,52,7.281
2,76,7.282
-6,33,7.283
-7,-60,7.284
-7,-131,7.285
-8,-113,7.286
-6,-19,7.287
-1,76,7.288
0,93,7.289
-2,20,7.29
-4,-84,7.291
-9,-137,7.292
-13,-112,7.293
-14,-41,7.294
-9,22,7.295
-3,58,7.296
-3,63,7.297
-3,48,7.298
6,24,7.299
17,30,7.3
20,80,7.301
19,123,7.302
23,79,7.303
33,-53,7.304
33,-181,7.305
24,-210,7.306
15,-142,7.307
8,-45,7.308
-1,26,7.309
-11,61,7.31
-12,59,7.311
-5,21,7.312
2,-20,7.313
-1,-26,7.314
-11,7,7.315
-20,35,7.316
-21,30,7.317
-14,17,7.318
-2,35,7.319
12,77,7.32
15,102,7.321
10,86,7.322
8,40,7.323
14,3,7.324
21,18,7.325
22,90,7.326
19,179,7.327
15,216,7.328
13,152,7.329
12,-7,7.33
12,-189,7.331
10,-307,7.332
7,-320,7.333
4,-230,7.334
1,-64,7.335
-2,76,7.336
-8,141,7.337
-12,140,7.338
-6,-61,7.339
-1,-202,7.34
2,-164,7.341
5,-117,7.342
7,-43,7.343
9,27,7.344
6,84,7.345
2,124,7.346
-7,113,7.347
-14,89,7.348
-12,31,7.349
-9,-22,7.35
-3,-58,7.351
1,-78,7.352
2,-49,7.353
3,-12,7.354
0,31,7.355
-3,42,7.356
-6,31,7.357
-4,17,7.358
2,3,7.359
11,-8,7.36
14,-8,7.361
12,2,7.362
6,16,7.363
2,28,7.364
-2,33,7.365
-3,32,7.366
-2,33,7.367
-4,51,7.368
-7,89,7.369
-5,128,7.37
1,136,7.371
5,75,7.372
3,-53,7.373
0,-207,7.374
2,-282,7.375
4,-228,7.376
0,-112,7.377
-1,-20,7.378
11,17,7.379
20,28,7.38
20,31,7.381
19,32,7.382
12,41,7.383
6,58,7.384
4,67,7.385
2,56,7.386
1,33,7.387
0,14,7.388
1,19,7.389
1,60,7.39
-2,121,7.391
-5,145,7.392
-6,82,7.393
-8,-60,7.394
-10,-185,7.395
-10,-211,7.396
-6,-149,7.397
-2,-57,7.398
4,15,7.399
12,59,7.4
16,87,7.401
13,109,7.402
7,110,7.403
3,72,7.404
4,6,7.405
5,-40,7.406
5,-28,7.407
2,29,7.408
-1,68,7.409
-6,34,7.41
-8,-58,7.411
-7,-124,7.412
-1,-107,7.413
1,-46,7.414
2,-38,7.415
-2,-101,7.416
-4,-148,7.417
-1,-112,7.418
13,-31,7.419
26,38,7.42
29,92,7.421
21,133,7.422
9,131,7.423
2,90,7.424
-1,52,7.425
-2,51,7.426
0,96,7.427
4,184,7.428
4,249,7.429
-4,149,7.43
-15,-162,7.431
-17,-496,7.432
-11,-590,7.433
-6,-386,7.434
-3,-64,7.435
-5,153,7.436
-8,187,7.437
-6,99,7.438
2,-9,7.439
16,-44,7.44
19,21,7.441
13,123,7.442
8,194,7.443
12,206,7.444
17,145,7.445
18,12,7.446
15,-115,7.447
8,-137,7.448
0,-60,7.449
-6,-2,7.45
-7,-22,7.451
-2,-62,7.452
1,-73,7.453
0,-62,7.454
0,-21,7.455
0,72,7.456
-2,155,7.457
-2,132,7.458
9,6,7.459
22,-79,7.46
22,-37,7.461
11,54,7.462
4,81,7.463
9,36,7.464
10,-23,7.465
-1,-71,7.466
-9,-94,7.467
-4,-60,7.468
1,31,7.469
-3,101,7.47
-7,74,7.471
-2,-16,7.472
5,-70,7.473
2,-46,7.474
-6,31,7.475
-10,108,7.476
-6,139,7.477
-3,99,7.478
2,-16,7.479
9,-125,7.48
11,-126,7.481
6,-12,7.482
1,94,7.483
1,90,7.484
0,-2,7.485
-1,-87,7.486
2,-130,7.487
6,-159,7.488
-1,-174,7.489
-11,-117,7.49
-8,15,7.491
4,122,7.492
10,122,7.493
0,51,7.494
-6,6,7.495
-2,-30,7.496
2,-39,7.497
6,-34,7.498
15,19,7.499
26,50,7.5
23,9,7.501
11,-2,7.502
7,75,7.503
15,182,7.504
15,376,7.505
0,448,7.506
-12,152,7.507
-9,-126,7.508
-5,-347,7.509
-9,-440,7.51
-13,-146,7.511
-7,61,7.512
0,7,7.513
-2,-83,7.514
-10,-234,7.515
-17,-275,7.516
-19,-259,7.517
-15,-192,7.518
-4,-64,7.519
12,53,7.52
21,97,7.521
21,116,7.522
23,165,7.523
32,194,7.524
38,148,7.525
35,82,7.526
27,71,7.527
20,87,7.528
12,85,7.529
2,91,7.53
-2,132,7.531
0,151,7.532
1,115,7.533
-3,75,7.534
-6,99,7.535
-9,110,7.536
-14,14,7.537
-21,-158,7.538
-18,-318,7.539
-6,-402,7.54
2,-375,7.541
2,-218,7.542
1,13,7.543
6,191,7.544
12,225,7.545
12,143,7.546
6,35,7.547
2,-36,7.548
3,-40,7.549
5,22,7.55
7,76,7.551
7,15,7.552
5,-141,7.553
1,-260,7.554
0,-217,7.555
-5,-72,7.556
-17,42,7.557
-24,140,7.558
-16,273,7.559
-1,345,7.56
2,203,7.561
-7,-86,7.562
-8,-254,7.563
1,-185,7.564
4,-49,7.565
-3,-14,7.566
-5,-48,7.567
8,-47,7.568
20,-20,7.569
20,-19,7.57
16,-17,7.571
15,26,7.572
17,77,7.573
13,95,7.574
9,101,7.575
6,118,7.576
5,104,7.577
3,46,7.578
6,-4,7.579
11,5,7.58
11,38,7.581
7,45,7.582
6,52,7.583
12,96,7.584
12,127,7.585
3,64,7.586
-3,-69,7.587
-4,-164,7.588
-4,-173,7.589
-7,-161,7.59
-8,-183,7.591
-7,-205,7.592
-5,-169,7.593
-11,-78,7.594
-14,10,7.595
-13,63,7.596
-10,91,7.597
-8,103,7.598
-2,74,7.599
3,7,7.6
6,-50,7.601
6,-62,7.602
8,-38,7.603
12,-6,7.604
12,39,7.605
7,95,7.606
6,132,7.607
10,132,7.608
13,122,7.609
9,117,7.61
4,67,7.611
5,-51,7.612
7,-172,7.613
3,-223,7.614
0,-177,7.615
-1,-78,7.616
-2,25,7.617
-4,100,7.618
-1,130,7.619
8,183,7.62
16,328,7.621
19,455,7.622
21,323,7.623
20,-67,7.624
12,-374,7.625
-1,-344,7.626
-8,-179,7.627
-6,-206,7.628
-4,-379,7.629
-7,-404,7.63
-7,-209,7.631
-2,-6,7.632
1,69,7.633
0,74,7.634
-2,66,7.635
-5,39,7.636
-5,10,7.637
-2,37,7.638
6,94,7.639
15,130,7.64
15,158,7.641
5,188,7.642
2,135,7.643
6,-40,7.644
8,-191,7.645
7,-145,7.646
5,43,7.647
1,169,7.648
-5,129,7.649
-9,3,7.65
-3,-82,7.651
6,-56,7.652
4,56,7.653
-7,173,7.654
-13,193,7.655
-11,119,7.656
-7,48,7.657
-3,26,7.658
7,-5,7.659
19,-65,7.66
21,-88,7.661
11,-64,7.662
-1,-61,7.663
-10,-95,7.664
-13,-100,7.665
-7,-52,7.666
1,-18,7.667
8,-24,7.668
11,-19,7.669
16,14,7.67
20,35,7.671
18,36,7.672
12,50,7.673
4,55,7.674
1,-5,7.675
0,-115,7.676
-2,-178,7.677
-7,-139,7.678
-9,-55,7.679
-6,12,7.68
-5,50,7.681
-2,75,7.682
0,82,7.683
2,72,7.684
6,58,7.685
7,42,7.686
3,21,7.687
0,0,7.688
-2,-15,7.689
-3,-30,7.69
-3,-42,7.691
-1,-36,7.692
3,-17,7.693
5,5,7.694
2,34,7.695
-1,78,7.696
0,124,7.697
3,124,7.698
8,48,7.699
11,-62,7.7
11,-137,7.701
6,-147,7.702
3,-104,7.703
5,-44,7.704
9,-9,7.705
9,-39,7.706
5,-118,7.707
3,-164,7.708
2,-115,7.709
1,-6,7.71
-2,83,7.711
-5,118,7.712
-6,112,7.713
-1,67,7.714
2,-1,7.715
1,-52,7.716
-6,-54,7.717
-11,-16,7.718
-5,18,7.719
4,17,7.72
6,-30,7.721
0,-111,7.722
0,-143,7.723
7,-34,7.724
9,182,7.725
3,335,7.726
-1,314,7.727
6,206,7.728
15,152,7.729
14,148,7.73
9,98,7.731
8,3,7.732
11,-48,7.733
7,-38,7.734
-1,-22,7.735
-2,-33,7.736
6,-38,7.737
19,-24,7.738
25,-35,7.739
25,-83,7.74
19,-138,7.741
11,-173,7.742
5,-186,7.743
4,-171,7.744
4,-143,7.745
2,-147,7.746
0,-172,7.747
-3,-118,7.748
-10,48,7.749
-16,180,7.75
-17,131,7.751
-13,-5,7.752
-9,-17,7.753
-6,126,7.754
0,235,7.755
4,183,7.756
2,70,7.757
-3,51,7.758
-7,100,7.759
-5,101,7.76
-2,30,7.761
0,-48,7.762
2,-99,7.763
5,-133,7.764
4,-145,7.765
0,-116,7.766
-2,-63,7.767
-1,-35,7.768
-3,-31,7.769
-11,-11,7.77
-17,37,7.771
-11,84,7.772
0,95,7.773
13,26,7.774
18,-161,7.775
19,-448,7.776
18,-647,7.777
15,-502,7.778
11,-29,7.779
6,392,7.78
-1,421,7.781
-11,187,7.782
-21,81,7.783
-24,206,7.784
-24,307,7.785
-22,222,7.786
-17,74,7.787
-2,4,7.788
13,0,7.789
17,31,7.79
13,85,7.791
18,18,7.792
35,-245,7.793
43,-499,7.794
35,-342,7.795
27,169,7.796
24,471,7.797
19,278,7.798
11,-15,7.799
-1,56,7.8
-23,371,7.801
-34,497,7.802
-11,336,7.803
7,105,7.804
5,-83,7.805
5,-244,7.806
10,-283,7.807
18,-105,7.808
35,107,7.809
43,63,7.81
25,-227,7.811
11,-470,7.812
7,-471,7.813
4,-277,7.814
0,-33,7.815
0,138,7.816
-4,167,7.817
-6,66,7.818
-4,-69,7.819
1,-156,7.82
-4,-179,7.821
-18,-173,7.822
-21,-203,7.823
-13,-329,7.824
-5,-463,7.825
-13,-363,7.826
-22,59,7.827
-24,523,7.828
-23,677,7.829
-21,517,7.83
-12,327,7.831
2,277,7.832
11,292,7.833
8,263,7.834
7,182,7.835
11,77,7.836
11,-54,7.837
6,-202,7.838
13,-318,7.839
33,-300,7.84
34,-97,7.841
-1,136,7.842
-47,133,7.843
-62,-137,7.844
-37,-350,7.845
-1,-236,7.846
25,63,7.847
37,231,7.848
39,178,7.849
33,16,7.85
23,-179,7.851
17,-328,7.852
18,-271,7.853
23,18,7.854
22,223,7.855
15,30,7.856
17,-407,7.857
32,-609,7.858
45,-347,7.859
43,159,7.86
31,547,7.861
12,640,7.862
-25,516,7.863
-78,367,7.864
-115,300,7.865
-107,251,7.866
-66,118,7.867
-28,-67,7.868
-3,-191,7.869
24,-205,7.87
44,-133,7.871
37,-5,7.872
18,93,7.873
11,33,7.874
17,-188,7.875
12,-337,7.876
-10,-205,7.877
-26,85,7.878
-20,238,7.879
-4,182,7.88
-3,83,7.881
-8,37,7.882
-2,-18,7.883
13,-104,7.884
22,-139,7.885
19,-121,7.886
16,-178,7.887
20,-379,7.888
28,-595,7.889
28,-628,7.89
15,-408,7.891
-9,-48,7.892
-33,232,7.893
-56,313,7.894
-64,197,7.895
-44,3,7.896
-7,-154,7.897
22,-198,7.898
37,-89,7.899
57,152,7.9
82,412,7.901
83,538,7.902
50,436,7.903
14,123,7.904
-1,-254,7.905
-7,-470,7.906
-24,-407,7.907
-46,-178,7.908
-62,47,7.909
-75,235,7.91
-82,410,7.911
-57,496,7.912
2,451,7.913
67,383,7.914
101,438,7.915
99,542,7.916
81,527,7.917
47,418,7.918
0,321,7.919
-47,173,7.92
-66,-124,7.921
-42,-437,7.922
6,-516,7.923
42,-352,7.924
37,-166,7.925
8,-104,7.926
8,-143,7.927
57,-228,7.928
113,-328,7.929
118,-389,7.93
73,-387,7.931
20,-381,7.932
-13,-430,7.933
-40,-532,7.934
-76,-625,7.935
-116,-637,7.936
-126,-456,7.937
-92,4,7.938
-38,609,7.939
-8,1049,7.94
-8,1144,7.941
0,982,7.942
53,725,7.943
128,431,7.944
177,149,7.945
183,-27,7.946
154,-81,7.947
86,-116,7.948
-32,-195,7.949
-168,-272,7.95
-260,-341,7.951
-276,-467,7.952
-232,-608,7.953
-154,-625,7.954
-60,-455,7.955
24,-258,7.956
75,-210,7.957
89,-294,7.958
87,-380,7.959
79,-361,7.96
64,-176,7.961
43,177,7.962
21,578,7.963
-14,810,7.964
-69,777,7.965
-114,598,7.966
-106,466,7.967
-49,444,7.968
5,447,7.969
23,370,7.97
39,199,7.971
104,8,7.972
201,-122,7.973
263,-217,7.974
233,-353,7.975
131,-608,7.976
43,-949,7.977
17,-1206,7.978
10,-1179,7.979
-43,-775,7.98
-127,-107,7.981
-159,541,7.982
-99,900,7.983
-9,913,7.984
33,743,7.985
9,594,7.986
-33,523,7.987
-46,452,7.988
-26,314,7.989
-5,154,7.99
-9,77,7.991
-17,101,7.992
6,120,7.993
50,42,7.994
59,-67,7.995
12,-142,7.996
-28,-112,7.997
-12,-109,7.998
21,-186,7.999
-1,-253,8.0
-66,-293,8.001
-92,-351,8.002
-55,-467,8.003
-12,-530,8.004
-7,-433,8.005
-15,-366,8.006
3,-390,8.007
27,-482,8.008
28,-780,8.009
16,-904,8.01
14,-502,8.011
21,17,8.012
20,889,8.013
15,1645,8.014
20,1736,8.015
24,1349,8.016
27,814,8.017
29,376,8.018
27,102,8.019
19,-17,8.02
-2,-51,8.021
-16,-102,8.022
0,-219,8.023
12,-350,8.024
16,-429,8.025
17,-438,8.026
10,-383,8.027
3,-272,8.028
-5,-146,8.029
-10,-60,8.03
-2,-11,8.031
11,35,8.032
37,81,8.033
58,96,8.034
45,94,8.035
15,121,8.036
-16,155,8.037
-53,133,8.038
-108,57,8.039
-161,6,8.04
-161,-1,8.041
-92,-28,8.042
-6,-112,8.043
26,-203,8.044
9,-266,8.045
10,-299,8.046
58,-266,8.047
112,-117,8.048
120,84,8.049
86,179,8.05
50,105,8.051
46,-45,8.052
60,-168,8.053
67,-266,8.054
50,-342,8.055
15,-366,8.056
-26,-330,8.057
-55,-241,8.058
-59,-66,8.059
-33,220,8.06
-2,514,8.061
12,649,8.062
-1,590,8.063
-23,453,8.064
-34,332,8.065
-28,224,8.066
-11,114,8.067
5,24,8.068
7,-38,8.069
-5,-89,8.07
-10,-112,8.071
14,-98,8.072
64,-80,8.073
112,-97,8.074
126,-120,8.075
88,-123,8.076
24,-145,8.077
-29,-227,8.078
-74,-345,8.079
-145,-436,8.08
-236,-456,8.081
-263,-371,8.082
-165,-161,8.083
-18,116,8.084
47,330,8.085
19,397,8.086
12,380,8.087
98,383,8.088
204,427,8.089
225,428,8.09
157,321,8.091
77,131,8.092
37,-44,8.093
22,-161,8.094
16,-213,8.095
16,-251,8.096
20,-334,8.097
0,-469,8.098
-55,-618,8.099
-125,-713,8.1
-163,-672,8.101
-143,-414,8.102
-97,53,8.103
-94,578,8.104
-163,959,8.105
-218,1114,8.106
-137,1081,8.107
79,869,8.108
285,477,8.109
359,53,8.11
334,-149,8.111
288,-93,8.112
222,-16,8.113
97,-73,8.114
-16,-153,8.115
-90,-221,8.116
-44,-254,8.117
-35,-305,8.118
-141,-406,8.119
-248,-472,8.12
-356,-430,8.121
-402,-439,8.122
-261,-604,8.123
-99,-731,8.124
126,-744,8.125
302,-578,8.126
327,131,8.127
344,748,8.128
336,1086,8.129
285,1243,8.13
107,851,8.131
-24,489,8.132
-14,215,8.133
1,-12,8.134
-1,-35,8.135
-29,-14,8.136
-57,-56,8.137
-115,-123,8.138
-184,-116,8.139
-183,-42,8.14
-104,0,8.141
-50,-21,8.142
-63,-66,8.143
-65,-112,8.144
-9,-159,8.145
37,-178,8.146
30,-148,8.147
26,-112,8.148
49,-112,8.149
23,-126,8.15
-69,-115,8.151
-112,-96,8.152
-48,-90,8.153
2,-90,8.154
-38,-74,8.155
-59,-61,8.156
-19,-61,8.157
16,-52,8.158
34,-29,8.159
51,-14,8.16
61,-19,8.161
50,-16,8.162
-26,2,8.163
-98,15,8.164
-156,10,8.165
-175,5,8.166
-72,14,8.167
38,31,8.168
168,44,8.169
241,55,8.17
135,58,8.171
53,44,8.172
41,27,8.173
47,18,8.174
62,18,8.175
-6,17,8.176
-95,10,8.177
-178,10,8.178
-251,10,8.179
-230,6,8.18
-36,6,8.181
222,19,8.182
334,33,8.183
278,32,8.184
234,29,8.185
274,36,8.186
261,41,8.187
95,21,8.188
-112,-28,8.189
-219,-107,8.19
-224,-238,8.191
-196,-419,8.192
-144,-568,8.193
-61,-539,8.194
0,-289,8.195
50,-30,8.196
63,258,8.197
81,473,8.198
113,468,8.199
103,446,8.2
-31,374,8.201
-126,273,8.202
-100,85,8.203
-78,-75,8.204
-64,-153,8.205
-49,-143,8.206
-31,130,8.207
-2,373,8.208
63,520,8.209
104,590,8.21
72,427,8.211
37,267,8.212
-3,115,8.213
-42,-36,8.214
-58,-183,8.215
-28,-280,8.216
9,-244,8.217
7,-80,8.218
-13,79,8.219
-10,126,8.22
12,60,8.221
15,-49,8.222
3,-160,8.223
2,-241,8.224
18,-259,8.225
35,-223,8.226
45,-207,8.227
40,-256,8.228
15,-307,8.229
-14,-266,8.23
-34,-132,8.231
-64,0,8.232
-113,56,8.233
-150,43,8.234
-117,4,8.235
-35,-33,8.236
20,-64,8.237
20,-74,8.238
-3,-59,8.239
-27,-43,8.24
-59,-36,8.241
-79,-27,8.242
-66,-13,8.243
-33,-7,8.244
-3,-10,8.245
42,-11,8.246
117,4,8.247
180,24,8.248
189,31,8.249
165,29,8.25
133,29,8.251
68,28,8.252
-37,23,8.253
-133,20,8.254
-134,21,8.255
-48,20,8.256
36,13,8.257
73,16,8.258
90,28,8.259
108,35,8.26
105,34,8.261
59,29,8.262
-9,16,8.263
-59,-4,8.264
-59,-14,8.265
-36,0,8.266
-43,25,8.267
-91,32,8.268
-116,11,8.269
-52,-19,8.27
66,-33,8.271
147,-21,8.272
141,7,8.273
75,34,8.274
8,48,8.275
-46,52,8.276
-64,53,8.277
-82,54,8.278
-96,50,8.279
-104,46,8.28
-90,54,8.281
-85,64,8.282
-111,57,8.283
-131,34,8.284
-125,12,8.285
-85,-4,8.286
56,-19,8.287
185,-58,8.288
273,-159,8.289
317,-347,8.29
228,-513,8.291
146,-456,8.292
86,-138,8.293
29,278,8.294
-21,484,8.295
-72,387,8.296
-86,164,8.297
-75,14,8.298
-73,-17,8.299
-72,38,8.3
-43,145,8.301
-8,231,8.302
-11,223,8.303
-48,153,8.304
-78,102,8.305
-76,61,8.306
-40,-70,8.307
26,-295,8.308
95,-473,8.309
121,-455,8.31
91,-235,8.311
46,21,8.312
19,127,8.313
2,68,8.314
-22,40,8.315
-41,209,8.316
-33,443,8.317
-9,483,8.318
12,296,8.319
21,108,8.32
11,48,8.321
-14,14,8.322
-33,-70,8.323
-28,-121,8.324
-18,-95,8.325
-22,-82,8.326
-39,-123,8.327
-39,-142,8.328
-10,-103,8.329
37,-81,8.33
66,-113,8.331
55,-129,8.332
22,-98,8.333
0,-72,8.334
10,-80,8.335
10,-83,8.336
-27,-58,8.337
-63,-41,8.338
-60,-47,8.339
-29,-43,8.34
14,-21,8.341
86,-12,8.342
169,-20,8.343
182,-15,8.344
87,5,8.345
-31,13,8.346
-68,7,8.347
-25,9,8.348
20,18,8.349
30,14,8.35
24,1,8.351
5,2,8.352
-32,16,8.353
-80,20,8.354
-122,11,8.355
-151,5,8.356
-136,4,8.357
-95,5,8.358
25,8,8.359
114,21,8.36
109,38,8.361
107,50,8.362
118,55,8.363
113,51,8.364
58,26,8.365
12,-15,8.366
-9,-44,8.367
-25,-38,8.368
-21,-15,8.369
-20,-1,8.37
-29,3,8.371
-36,11,8.372
-37,21,8.373
-44,0,8.374
-53,3,8.375
-45,3,8.376
-18,-6,8.377
19,-12,8.378
70,-13,8.379
103,-11,8.38
71,-6,8.381
-21,-2,8.382
-107,-5,8.383
-121,-7,8.384
-87,-11,8.385
-54,-13,8.386
-33,-16,8.387
-10,-22,8.388
3,-40,8.389
-11,-48,8.39
-39,-27,8.391
-68,-7,8.392
-99,16,8.393
-114,37,8.394
-34,49,8.395
124,48,8.396
241,10,8.397
235,-19,8.398
174,-20,8.399
151,-14,8.4
121,11,8.401
8,28,8.402
-112,18,8.403
-110,7,8.404
-11,-9,8.405
38,-23,8.406
3,-32,8.407
-22,-58,8.408
-6,-132,8.409
-5,-166,8.41
-37,-79,8.411
-41,9,8.412
-7,103,8.413
6,154,8.414
-14,32,8.415
-25,-77,8.416
-8,-82,8.417
3,29,8.418
-2,185,8.419
-5,264,8.42
4,176,8.421
11,-35,8.422
4,-222,8.423
0,-284,8.424
8,-216,8.425
10,-51,8.426
-6,152,8.427
-15,280,8.428
-1,244,8.429
9,114,8.43
10,37,8.431
12,40,8.432
14,33,8.433
14,-4,8.434
1,0,8.435
-4,14,8.436
-1,58,8.437
0,78,8.438
3,26,8.439
11,-27,8.44
17,-84,8.441
16,-142,8.442
15,-205,8.443
17,-237,8.444
14,-174,8.445
-7,-89,8.446
-48,62,8.447
-91,154,8.448
-111,66,8.449
-94,1,8.45
-50,12,8.451
6,17,8.452
61,0,8.453
113,-21,8.454
139,-20,8.455
125,11,8.456
102,7,8.457
102,-18,8.458
98,-12,8.459
41,12,8.46
-53,8,8.461
-108,-13,8.462
-97,-15,8.463
-68,-7,8.464
-57,-13,8.465
-32,-24,8.466
16,-12,8.467
44,3,8.468
23,2,8.469
-6,-2,8.47
-11,4,8.471
-23,5,8.472
-49,-6,8.473
-46,-16,8.474
5,-6,8.475
41,4,8.476
16,-2,8.477
-23,-5,8.478
-17,3,8.479
0,10,8.48
-18,7,8.481
-44,4,8.482
-28,8,8.483
9,8,8.484
21,2,8.485
18,0,8.486
28,4,8.487
40,2,8.488
30,-6,8.489
14,-9,8.49
14,-11,8.491
18,-16,8.492
14,-19,8.493
2,-13,8.494
5,-2,8.495
8,4,8.496
0,3,8.497
-7,7,8.498
0,17,8.499
7,22,8.5
3,23,8.501
-2,29,8.502
-1,34,8.503
0,32,8.504
1,22,8.505
4,10,8.506
13,0,8.507
14,-7,8.508
6,-8,8.509
-1,-4,8.51
2,-1,8.511
10,-4,8.512
16,-6,8.513
19,-9,8.514
17,-11,8.515
7,-16,8.516
-7,-19,8.517
-16,-9,8.518
-11,8,8.519
-2,26,8.52
-1,42,8.521
-5,45,8.522
-5,22,8.523
2,-27,8.524
5,-85,8.525
-5,-124,8.526
-18,-123,8.527
-19,-72,8.528
-10,4,8.529
-6,53,8.53
-15,40,8.531
-22,3,8.532
-16,-6,8.533
3,-1,8.534
17,-23,8.535
11,-60,8.536
-6,-50,8.537
-9,22,8.538
9,83,8.539
35,86,8.54
57,80,8.541
73,106,8.542
79,117,8.543
63,69,8.544
24,10,8.545
-13,0,8.546
-19,16,8.547
0,7,8.548
18,-19,8.549
14,-28,8.55
-6,-31,8.551
-28,-54,8.552
-40,-67,8.553
-51,-41,8.554
-67,4,8.555
-96,17,8.556
-123,-3,8.557
-128,-12,8.558
-101,-4,8.559
-42,-2,8.56
36,-8,8.561
117,-4,8.562
184,6,8.563
233,8,8.564
248,6,8.565
192,14,8.566
57,24,8.567
-76,15,8.568
-107,-2,8.569
-54,-8,8.57
-25,-12,8.571
-57,-27,8.572
-74,-43,8.573
-44,-50,8.574
-28,-41,8.575
-64,-30,8.576
-88,-21,8.577
-44,-8,8.578
20,0,8.579
41,2,8.58
38,7,8.581
54,16,8.582
65,20,8.583
39,11,8.584
1,1,8.585
-4,2,8.586
8,8,8.587
2,8,8.588
-13,7,8.589
-18,10,8.59
-8,13,8.591
-5,11,8.592
-6,11,8.593
-5,11,8.594
-1,9,8.595
-2,0,8.596
-8,-12,8.597
-7,-13,8.598
1,-8,8.599
9,-5,8.6
7,-5,8.601
1,-5,8.602
-2,-3,8.603
-1,-2,8.604
0,-2,8.605
-1,-2,8.606
-1,-2,8.607
-3,-2,8.608
-1,-1,8.609
-1,-2,8.61
0,-4,8.611
1,-4,8.612
4,0,8.613
4,0,8.614
4,-2,8.615
1,-4,8.616
-2,-3,8.617
-2,-1,8.618
4,-1,8.619
12,0,8.62
17,3,8.621
15,7,8.622
12,6,8.623
11,1,8.624
13,0,8.625
10,1,8.626
4,4,8.627
0,10,8.628
-3,21,8.629
-3,31,8.63
-4,21,8.631
-5,-6,8.632
-5,-16,8.633
-5,10,8.634
-5,51,8.635
-8,58,8.636
-10,12,8.637
-7,-52,8.638
0,-106,8.639
7,-143,8.64
7,-147,8.641
4,-106,8.642
6,-38,8.643
12,16,8.644
14,51,8.645
11,83,8.646
5,95,8.647
3,62,8.648
3,14,8.649
5,0,8.65
8,20,8.651
14,25,8.652
18,4,8.653
14,-4,8.654
7,23,8.655
1,48,8.656
-2,35,8.657
-3,13,8.658
4,10,8.659
9,15,8.66
7,9,8.661
5,3,8.662
2,6,8.663
0,2,8.664
-1,-13,8.665
-1,-5,8.666
0,50,8.667
3,113,8.668
3,131,8.669
3,102,8.67
0,44,8.671
-3,-58,8.672
-4,-192,8.673
-5,-290,8.674
-2,-248,8.675
0,-108,8.676
0,-21,8.677
4,-45,8.678
16,-75,8.679
24,-26,8.68
23,52,8.681
14,75,8.682
8,62,8.683
10,69,8.684
11,94,8.685
6,98,8.686
-3,81,8.687
-8,69,8.688
-11,59,8.689
-15,34,8.69
-20,6,8.691
-19,-3,8.692
-16,-5,8.693
-12,-14,8.694
-11,-24,8.695
-13,-22,8.696
-12,-21,8.697
-6,-24,8.698
6,-24,8.699
18,-18,8.7
20,-12,8.701
14,-13,8.702
7,-16,8.703
7,-14,8.704
10,-14,8.705
7,-17,8.706
3,-17,8.707
7,-13,8.708
11,-10,8.709
7,-8,8.71
0,-5,8.711
0,0,8.712
7,4,8.713
9,0,8.714
4,-1,8.715
-2,0,8.716
-4,-4,8.717
-1,-6,8.718
5,-5,8.719
14,-3,8.72
16,-3,8.721
11,-2,8.722
6,0,8.723
9,2,8.724
13,0,8.725
12,-3,8.726
3,-2,8.727
-3,2,8.728
-6,4,8.729
-7,5,8.73
-4,6,8.731
0,9,8.732
0,12,8.733
-4,15,8.734
-10,16,8.735
-9,12,8.736
-6,1,8.737
-4,-5,8.738
1,-1,8.739
11,2,8.74
18,3,8.741
14,-1,8.742
8,-5,8.743
11,-7,8.744
15,-9,8.745
8,-6,8.746
2,-2,8.747
4,1,8.748
4,4,8.749
-4,3,8.75
-12,0,8.751
-8,0,8.752
0,5,8.753
-2,5,8.754
-10,0,8.755
-12,-5,8.756
-5,-7,8.757
3,-4,8.758
11,-3,8.759
18,-9,8.76
18,-11,8.761
9,-6,8.762
2,-2,8.763
4,-4,8.764
9,-8,8.765
7,-7,8.766
3,-3,8.767
3,-1,8.768
0,1,8.769
-4,5,8.77
-5,7,8.771
1,5,8.772
9,5,8.773
1,9,8.774
-9,9,8.775
-13,4,8.776
-7,-2,8.777
0,-1,8.778
3,6,8.779
6,11,8.78
6,15,8.781
1,15,8.782
-2,10,8.783
-1,0,8.784
2,-7,8.785
2,-6,8.786
1,-2,8.787
2,0,8.788
4,4,8.789
3,7,8.79
3,7,8.791
6,8,8.792
12,20,8.793
13,34,8.794
10,25,8.795
2,-19,8.796
-2,-76,8.797
-1,-108,8.798
5,-99,8.799
13,-59,8.8
14,-8,8.801
8,32,8.802
5,42,8.803
5,26,8.804
3,11,8.805
-2,16,8.806
-6,24,8.807
-6,16,8.808
-5,3,8.809
-6,1,8.81
-9,6,8.811
-7,3,8.812
-1,-2,8.813
5,-3,8.814
8,-2,8.815
2,-1,8.816
-4,-4,8.817
-1,-2,8.818
9,-1,8.819
16,-6,8.82
13,-7,8.821
4,0,8.822
0,7,8.823
2,4,8.824
0,0,8.825
-2,1,8.826
-1,1,8.827
1,-4,8.828
2,-8,8.829
1,-7,8.83
1,-5,8.831
6,-3,8.832
7,1,8.833
2,4,8.834
-2,6,8.835
-6,6,8.836
-9,5,8.837
-8,8,8.838
0,10,8.839
8,9,8.84
5,10,8.841
-5,13,8.842
-14,13,8.843
-10,10,8.844
-1,5,8.845
4,-1,8.846
3,-8,8.847
2,-13,8.848
2,-12,8.849
0,-10,8.85
-3,-10,8.851
-3,-8,8.852
3,-4,8.853
7,-4,8.854
3,-5,8.855
-4,-1,8.856
-4,4,8.857
4,8,8.858
11,4,8.859
12,5,8.86
12,21,8.861
15,42,8.862
18,38,8.863
19,0,8.864
20,-54,8.865
17,-93,8.866
10,-101,8.867
5,-75,8.868
1,-28,8.869
-1,18,8.87
-3,41,8.871
-4,38,8.872
-2,30,8.873
1,25,8.874
5,23,8.875
11,18,8.876
13,10,8.877
11,10,8.878
10,14,8.879
12,15,8.88
12,13,8.881
4,11,8.882
-4,9,8.883
-6,6,8.884
-5,2,8.885
-6,1,8.886
-11,-2,8.887
-13,-5,8.888
-15,-4,8.889
-14,2,8.89
-10,1,8.891
-7,-12,8.892
-2,-26,8.893
2,-34,8.894
6,-30,8.895
7,-24,8.896
3,-19,8.897
0,-12,8.898
9,-5,8.899
22,-1,8.9
26,10,8.901
17,47,8.902
11,102,8.903
15,123,8.904
15,65,8.905
-2,-51,8.906
-24,-139,8.907
-33,-136,8.908
-25,-62,8.909
-13,27,8.91
-6,106,8.911
-5,161,8.912
-4,177,8.913
-3,135,8.914
0,54,8.915
3,-41,8.916
6,-132,8.917
9,-174,8.918
16,-128,8.919
24,-42,8.92
27,-13,8.921
23,-56,8.922
16,-82,8.923
10,-37,8.924
1,25,8.925
-6,45,8.926
-6,28,8.927
0,1,8.928
3,-16,8.929
1,8,8.93
0,100,8.931
5,179,8.932
10,145,8.933
6,8,8.934
1,-106,8.935
0,-186,8.936
1,-157,8.937
-3,-116,8.938
-6,-41,8.939
-1,15,8.94
4,11,8.941
6,0,8.942
4,-31,8.943
1,-48,8.944
-3,-20,8.945
-8,17,8.946
-10,82,8.947
-9,131,8.948
-6,130,8.949
-1,125,8.95
5,111,8.951
10,93,8.952
10,66,8.953
9,39,8.954
9,33,8.955
8,68,8.956
1,107,8.957
-2,132,8.958
6,127,8.959
19,57,8.96
22,-88,8.961
16,-246,8.962
11,-322,8.963
10,-297,8.964
4,-222,8.965
-6,-147,8.966
-13,-80,8.967
-15,-24,8.968
-15,7,8.969
-15,26,8.97
-13,45,8.971
-11,52,8.972
-10,41,8.973
-9,22,8.974
-4,28,8.975
-1,58,8.976
-2,84,8.977
-1,103,8.978
7,116,8.979
19,108,8.98
25,62,8.981
25,-7,8.982
27,-63,8.983
29,-82,8.984
23,-67,8.985
12,-29,8.986
0,10,8.987
-12,32,8.988
-23,25,8.989
-26,5,8.99
-15,-7,8.991
-3,5,8.992
0,46,8.993
-7,110,8.994
-10,149,8.995
-7,102,8.996
-4,-33,8.997
-3,-159,8.998
2,-183,8.999
14,-116,9.0
19,-57,9.001
19,-68,9.002
16,-110,9.003
17,-108,9.004
15,-47,9.005
7,27,9.006
-2,76,9.007
-4,100,9.008
-3,121,9.009
-5,145,9.01
-11,157,9.011
-11,136,9.012
-4,103,9.013
0,84,9.014
0,78,9.015
-2,18,9.016
-1,-123,9.017
4,-255,9.018
12,-274,9.019
17,-194,9.02
14,-119,9.021
8,-96,9.022
8,-90,9.023
11,-73,9.024
10,-49,9.025
2,-11,9.026
-6,49,9.027
-11,105,9.028
-14,129,9.029
-13,144,9.03
-5,183,9.031
2,225,9.032
6,226,9.033
1,172,9.034
-1,81,9.035
1,-45,9.036
3,-180,9.037
5,-232,9.038
9,-151,9.039
13,-11,9.04
15,56,9.041
13,7,9.042
11,-94,9.043
4,-175,9.044
-6,-191,9.045
-16,-121,9.046
-17,8,9.047
-10,111,9.048
-6,129,9.049
-8,100,9.05
-9,89,9.051
-6,93,9.052
0,88,9.053
6,73,9.054
11,51,9.055
11,3,9.056
8,-125,9.057
6,-217,9.058
10,-196,9.059
16,-161,9.06
16,-87,9.061
11,-12,9.062
12,64,9.063
15,137,9.064
15,201,9.065
7,234,9.066
3,172,9.067
5,91,9.068
5,-48,9.069
1,-126,9.07
-3,-20,9.071
1,65,9.072
8,90,9.073
6,88,9.074
0,-6,9.075
-7,-104,9.076
-11,-178,9.077
-7,-181,9.078
7,-122,9.079
21,-63,9.08
18,-35,9.081
3,-1,9.082
-4,59,9.083
3,149,9.084
9,304,9.085
2,511,9.086
-8,553,9.087
-7,200,9.088
-2,-403,9.089
-1,-769,9.09
-3,-625,9.091
-1,-231,9.092
2,8,9.093
0,24,9.094
-6,-25,9.095
-11,-70,9.096
-6,-98,9.097
-1,-90,9.098
4,27,9.099
11,121,9.1
14,145,9.101
14,173,9.102
13,213,9.103
13,227,9.104
9,165,9.105
2,83,9.106
1,-58,9.107
2,-146,9.108
-2,-70,9.109
-9,-7,9.11
-13,18,9.111
-5,34,9.112
1,16,9.113
-4,12,9.114
-10,52,9.115
-13,42,9.116
-10,-41,9.117
-4,-127,9.118
3,-161,9.119
13,-146,9.12
17,-93,9.121
15,-11,9.122
14,71,9.123
18,105,9.124
18,90,9.125
11,72,9.126
4,69,9.127
4,49,9.128
6,-23,9.129
2,-108,9.13
-1,-150,9.131
-1,-120,9.132
1,-33,9.133
1,114,9.134
-3,228,9.135
-8,241,9.136
-15,119,9.137
-19,-63,9.138
-13,-188,9.139
1,-177,9.14
11,-48,9.141
14,112,9.142
18,186,9.143
25,106,9.144
24,-67,9.145
12,-195,9.146
3,-204,9.147
4,-154,9.148
5,-115,9.149
0,-59,9.15
-4,63,9.151
-4,215,9.152
-5,285,9.153
-6,210,9.154
-2,45,9.155
1,-96,9.156
0,-132,9.157
-3,-73,9.158
1,-9,9.159
12,13,9.16
12,48,9.161
2,132,9.162
-2,165,9.163
4,17,9.164
7,-236,9.165
-1,-358,9.166
-10,-236,9.167
-8,-25,9.168
-3,75,9.169
-4,49,9.17
-9,3,9.171
-9,-3,9.172
-4,17,9.173
-1,58,9.174
3,114,9.175
8,148,9.176
11,136,9.177
13,99,9.178
18,52,9.179
24,1,9.18
21,-29,9.181
11,-9,9.182
3,27,9.183
2,6,9.184
3,-68,9.185
0,-116,9.186
-6,-98,9.187
-5,-58,9.188
-2,-37,9.189
-4,-29,9.19
-9,-24,9.191
-9,-12,9.192
-3,33,9.193
2,118,9.194
5,161,9.195
2,56,9.196
-1,-166,9.197
0,-328,9.198
7,-301,9.199
16,-131,9.2
15,37,9.201
7,124,9.202
0,140,9.203
0,109,9.204
2,42,9.205
-1,-48,9.206
-4,-129,9.207
-2,-147,9.208
2,-73,9.209
4,63,9.21
6,176,9.211
11,195,9.212
14,151,9.213
10,117,9.214
4,131,9.215
2,137,9.216
3,113,9.217
1,72,9.218
2,-20,9.219
8,-86,9.22
13,-70,9.221
8,-53,9.222
0,-31,9.223
-5,-15,9.224
-4,-19,9.225
-2,-19,9.226
0,-6,9.227
3,5,9.228
5,12,9.229
3,17,9.23
0,13,9.231
1,10,9.232
6,15,9.233
10,31,9.234
12,57,9.235
6,4,9.236
-3,-100,9.237
-7,-175,9.238
-2,-191,9.239
3,-166,9.24
2,-103,9.241
-4,-13,9.242
-7,41,9.243
-6,9,9.244
-6,-56,9.245
-8,-52,9.246
-5,38,9.247
3,123,9.248
9,135,9.249
6,107,9.25
3,94,9.251
1,89,9.252
1,64,9.253
4,23,9.254
8,-6,9.255
9,-27,9.256
5,-60,9.257
3,-64,9.258
8,9,9.259
15,105,9.26
15,79,9.261
6,-109,9.262
0,-284,9.263
0,-240,9.264
1,-24,9.265
1,121,9.266
-1,85,9.267
-4,9,9.268
-9,38,9.269
-16,113,9.27
-14,90,9.271
-6,-30,9.272
2,-111,9.273
8,-78,9.274
14,24,9.275
17,92,9.276
14,79,9.277
5,41,9.278
3,39,9.279
7,65,9.28
7,57,9.281
2,-3,9.282
-3,-64,9.283
-4,-82,9.284
-3,-66,9.285
-5,-39,9.286
-5,8,9.287
3,60,9.288
15,66,9.289
17,20,9.29
10,-12,9.291
5,-7,9.292
8,-15,9.293
11,-82,9.294
12,-156,9.295
6,-167,9.296
5,-123,9.297
7,-58,9.298
12,13,9.299
19,66,9.3
25,61,9.301
25,11,9.302
21,-1,9.303
13,45,9.304
6,76,9.305
-1,43,9.306
-7,8,9.307
-14,36,9.308
-19,94,9.309
-21,133,9.31
-19,152,9.311
-16,155,9.312
-16,105,9.313
-15,-22,9.314
-7,-141,9.315
0,-172,9.316
1,-126,9.317
-2,-59,9.318
0,1,9.319
8,49,9.32
13,64,9.321
15,47,9.322
19,34,9.323
22,42,9.324
13,34,9.325
-5,-13,9.326
-11,-63,9.327
-3,-70,9.328
0,-40,9.329
-9,-14,9.33
-16,-12,9.331
-11,-29,9.332
-1,-46,9.333
5,-52,9.334
10,-32,9.335
14,10,9.336
8,38,9.337
-1,41,9.338
4,29,9.339
16,22,9.34
17,29,9.341
6,37,9.342
1,26,9.343
5,-22,9.344
3,-102,9.345
-14,-173,9.346
-27,-187,9.347
-22,-142,9.348
-12,-81,9.349
-9,-42,9.35
-8,-19,9.351
-5,9,9.352
2,47,9.353
8,75,9.354
15,75,9.355
19,58,9.356
19,51,9.357
18,73,9.358
19,104,9.359
23,116,9.36
22,101,9.361
17,64,9.362
17,5,9.363
20,-46,9.364
20,-33,9.365
16,47,9.366
15,107,9.367
11,69,9.368
-1,-6,9.369
-13,-1,9.37
-11,72,9.371
0,94,9.372
5,32,9.373
1,-40,9.374
-3,-46,9.375
-3,-15,9.376
-8,-7,9.377
-17,-11,9.378
-16,-8,9.379
-5,-17,9.38
0,-62,9.381
-3,-120,9.382
-5,-151,9.383
0,-128,9.384
6,-52,9.385
4,48,9.386
1,114,9.387
0,103,9.388
-5,12,9.389
-17,-147,9.39
-24,-354,9.391
-23,-527,9.392
-15,-521,9.393
-4,-239,9.394
9,195,9.395
20,509,9.396
18,537,9.397
16,375,9.398
13,183,9.399
10,4,9.4
10,-189,9.401
9,-323,9.402
3,-243,9.403
0,61,9.404
5,360,9.405
10,409,9.406
12,225,9.407
10,41,9.408
-5,-6,9.409
-18,-4,9.41
-23,-61,9.411
-28,-129,9.412
-26,-123,9.413
-27,-68,9.414
-36,-35,9.415
-29,-21,9.416
0,20,9.417
36,68,9.418
61,45,9.419
69,-42,9.42
62,-115,9.421
45,-112,9.422
35,-43,9.423
41,44,9.424
49,81,9.425
42,0,9.426
25,-183,9.427
10,-332,9.428
-6,-289,9.429
-28,-67,9.43
-44,140,9.431
-38,173,9.432
-20,98,9.433
-14,81,9.434
-23,168,9.435
-38,235,9.436
-48,191,9.437
-47,112,9.438
-26,60,9.439
5,-6,9.44
26,-106,9.441
26,-146,9.442
26,-111,9.443
35,-133,9.444
40,-247,9.445
27,-298,9.446
9,-248,9.447
2,-316,9.448
2,-536,9.449
-2,-504,9.45
-8,66,9.451
-7,773,9.452
-4,995,9.453
-11,675,9.454
-23,285,9.455
-29,157,9.456
-29,173,9.457
-24,173,9.458
-12,165,9.459
1,140,9.46
2,38,9.461
-13,-76,9.462
-37,-110,9.463
-59,-144,9.464
-61,-295,9.465
-33,-481,9.466
20,-527,9.467
64,-406,9.468
73,-207,9.469
59,14,9.47
48,204,9.471
45,282,9.472
38,263,9.473
1,240,9.474
10,241,9.475
15,231,9.476
7,184,9.477
1,152,9.478
2,164,9.479
3,131,9.48
-1,-39,9.481
-5,-179,9.482
-6,-226,9.483
-9,-249,9.484
-13,-196,9.485
-13,-156,9.486
-13,-157,9.487
-13,-141,9.488
-24,-75,9.489
-36,-18,9.49
-53,12,9.491
-65,27,9.492
-60,-6,9.493
2,-20,9.494
12,17,9.495
18,-7,9.496
9,-62,9.497
2,-56,9.498
4,10,9.499
5,76,9.5
0,111,9.501
-4,106,9.502
-5,50,9.503
-8,-54,9.504
-12,-193,9.505
-14,-346,9.506
-12,-448,9.507
-13,-401,9.508
-25,-222,9.509
-38,-101,9.51
-56,-173,9.511
-69,-286,9.512
-64,-187,9.513
-54,173,9.514
-33,559,9.515
-12,768,9.516
13,822,9.517
45,796,9.518
81,645,9.519
110,378,9.52
128,156,9.521
127,88,9.522
101,75,9.523
65,-6,9.524
53,-111,9.525
67,-147,9.526
62,-151,9.527
2,-196,9.528
-81,-247,9.529
-118,-244,9.53
-92,-258,9.531
-61,-395,9.532
-51,-598,9.533
-39,-683,9.534
-1,-534,9.535
30,-327,9.536
46,52,9.537
60,349,9.538
68,399,9.539
67,409,9.54
41,293,9.541
14,207,9.542
-17,213,9.543
-39,210,9.544
-33,175,9.545
-26,130,9.546
-16,60,9.547
-11,-1,9.548
-26,-35,9.549
-38,-75,9.55
-38,-131,9.551
-36,-140,9.552
-26,-6,9.553
-15,99,9.554
-3,51,9.555
2,-41,9.556
-2,-69,9.557
-10,-63,9.558
-12,-81,9.559
-4,-80,9.56
0,-24,9.561
0,17,9.562
0,-21,9.563
7,-89,9.564
18,-107,9.565
29,-99,9.566
40,-131,9.567
44,-196,9.568
28,-227,9.569
-7,-186,9.57
-35,-89,9.571
-31,31,9.572
2,126,9.573
34,-163,9.574
32,-222,9.575
3,-286,9.576
-17,-365,9.577
-14,-419,9.578
-10,-402,9.579
-30,-353,9.58
-59,-210,9.581
-59,-79,9.582
-14,13,9.583
44,104,9.584
77,191,9.585
85,268,9.586
87,318,9.587
83,349,9.588
57,319,9.589
17,272,9.59
0,173,9.591
13,84,9.592
12,29,9.593
-25,-189,9.594
-49,-258,9.595
-48,-334,9.596
29,-426,9.597
80,-490,9.598
52,-470,9.599
29,-412,9.6
26,-244,9.601
15,-90,9.602
-15,19,9.603
-41,126,9.604
-50,228,9.605
-44,319,9.606
8,378,9.607
47,414,9.608
48,379,9.609
44,324,9.61
22,207,9.611
-5,103,9.612
-49,38,9.613
-90,-26,9.614
-107,-46,9.615
-99,14,9.616
-69,78,9.617
-33,75,9.618
-5,16,9.619
4,-48,9.62
1,-115,9.621
4,-181,9.622
20,-201,9.623
26,-156,9.624
15,-99,9.625
2,-78,9.626
4,-82,9.627
13,-87,9.628
21,-113,9.629
35,-165,9.63
48,-205,9.631
39,-214,9.632
15,-219,9.633
-4,-228,9.634
-4,-192,9.635
-9,-76,9.636
-25,82,9.637
-33,226,9.638
-14,322,9.639
-3,352,9.64
-18,300,9.641
-22,197,9.642
11,110,9.643
40,70,9.644
53,34,9.645
57,-50,9.646
27,-171,9.647
12,-296,9.648
42,-437,9.649
60,-599,9.65
35,-701,9.651
13,-614,9.652
1,-316,9.653
-13,145,9.654
-39,595,9.655
-73,862,9.656
-83,891,9.657
-43,770,9.658
25,630,9.659
53,503,9.66
1,335,9.661
-70,113,9.662
-59,-74,9.663
29,-146,9.664
84,-119,9.665
47,-68,9.666
-13,-41,9.667
-27,-58,9.668
-15,-115,9.669
-21,-166,9.67
-34,-163,9.671
-12,-137,9.672
34,-146,9.673
63,-185,9.674
71,-181,9.675
51,-135,9.676
16,-118,9.677
-6,-144,9.678
9,-156,9.679
45,-142,9.68
44,-163,9.681
0,-240,9.682
-34,-338,9.683
-24,-442,9.684
-10,-546,9.685
-20,-547,9.686
-36,-312,9.687
-35,131,9.688
-30,567,9.689
-35,807,9.69
-32,822,9.691
-5,677,9.692
25,470,9.693
41,270,9.694
37,156,9.695
27,92,9.696
15,-3,9.697
14,-101,9.698
35,-122,9.699
61,-81,9.7
57,-74,9.701
27,-118,9.702
11,-143,9.703
27,-136,9.704
46,-153,9.705
42,-194,9.706
30,-196,9.707
16,-160,9.708
-24,-165,9.709
-84,-252,9.71
-120,-358,9.711
-110,-374,9.712
-83,-247,9.713
-60,18,9.714
-27,306,9.715
-11,479,9.716
-49,472,9.717
-76,310,9.718
-66,20,9.719
-20,-373,9.72
131,-777,9.721
237,-991,9.722
206,-823,9.723
145,-256,9.724
-7,491,9.725
-122,1087,9.726
-128,1288,9.727
-124,1037,9.728
-90,426,9.729
-72,-334,9.73
-105,-912,9.731
-106,-1010,9.732
-8,-651,9.733
87,-35,9.734
129,605,9.735
103,1180,9.736
97,1553,9.737
175,1510,9.738
275,1047,9.739
295,501,9.74
221,158,9.741
133,-44,9.742
62,-263,9.743
-48,-452,9.744
-214,-512,9.745
-347,-536,9.746
-368,-664,9.747
-293,-848,9.748
-167,-912,9.749
-23,-744,9.75
73,-365,9.751
56,89,9.752
-27,395,9.753
-34,448,9.754
101,312,9.755
251,144,9.756
251,-8,9.757
106,-166,9.758
-32,-281,9.759
-64,-288,9.76
-39,-255,9.761
-56,-268,9.762
-114,-273,9.763
-119,-173,9.764
-18,-38,9.765
115,-1,9.766
178,-32,9.767
168,9,9.768
142,146,9.769
95,251,9.77
1,242,9.771
-94,173,9.772
-112,125,9.773
-65,100,9.774
-41,66,9.775
-72,7,9.776
-87,-57,9.777
-43,-86,9.778
24,-72,9.779
63,-46,9.78
66,-45,9.781
39,-61,9.782
0,-60,9.783
-31,-41,9.784
-48,-30,9.785
-60,-32,9.786
-60,-27,9.787
-31,-12,9.788
6,-10,9.789
10,-23,9.79
-28,-35,9.791
-63,-42,9.792
-71,-58,9.793
-42,-91,9.794
-23,-108,9.795
-10,-86,9.796
-15,-33,9.797
-25,44,9.798
-52,120,9.799
-60,169,9.8
-7,170,9.801
34,142,9.802
42,123,9.803
50,128,9.804
52,137,9.805
57,129,9.806
70,103,9.807
79,64,9.808
73,14,9.809
74,-29,9.81
99,-46,9.811
106,-42,9.812
57,-57,9.813
-83,-152,9.814
-53,-365,9.815
-32,-706,9.816
-40,-1110,9.817
-56,-1406,9.818
-98,-1398,9.819
-110,-972,9.82
-27,-145,9.821
38,903,9.822
51,1833,9.823
63,2273,9.824
67,2103,9.825
75,1581,9.826
95,1067,9.827
108,687,9.828
99,360,9.829
101,65,9.83
140,-128,9.831
151,-222,9.832
75,-300,9.833
-12,-389,9.834
-100,-421,9.835
-117,-389,9.836
-138,-379,9.837
-248,-422,9.838
-389,-495,9.839
-406,-625,9.84
-233,-842,9.841
26,-1022,9.842
239,-948,9.843
360,-577,9.844
403,-96,9.845
360,291,9.846
213,520,9.847
15,599,9.848
-113,537,9.849
-103,407,9.85
-17,325,9.851
23,311,9.852
1,269,9.853
-23,105,9.854
-10,-137,9.855
-13,-346,9.856
-77,-429,9.857
-139,-348,9.858
-109,-148,9.859
-18,55,9.86
40,163,9.861
45,181,9.862
52,159,9.863
81,115,9.864
93,53,9.865
66,5,9.866
10,-5,9.867
-51,-15,9.868
-86,-54,9.869
-57,-84,9.87
13,-72,9.871
40,-49,9.872
-2,-53,9.873
-40,-65,9.874
-22,-55,9.875
-13,-47,9.876
-31,-51,9.877
-41,-50,9.878
-27,-33,9.879
-15,-19,9.88
-8,-16,9.881
10,-11,9.882
60,-5,9.883
84,0,9.884
29,0,9.885
-28,0,9.886
-93,8,9.887
-137,14,9.888
-114,14,9.889
-91,15,9.89
-72,21,9.891
-55,25,9.892
-44,23,9.893
-21,20,9.894
77,23,9.895
208,26,9.896
250,23,9.897
151,24,9.898
7,14,9.899
-73,-49,9.9
-89,-221,9.901
-82,-509,9.902
-46,-804,9.903
27,-905,9.904
86,-637,9.905
98,-27,9.906
97,669,9.907
101,1128,9.908
66,1192,9.909
-10,963,9.91
-49,640,9.911
-11,378,9.912
37,221,9.913
36,132,9.914
-8,76,9.915
-52,19,9.916
-68,-51,9.917
-56,-110,9.918
-32,-149,9.919
-44,-172,9.92
-92,-187,9.921
-106,-203,9.922
-45,-267,9.923
9,-445,9.924
-6,-702,9.925
-19,-831,9.926
55,-617,9.927
143,-116,9.928
122,316,9.929
27,359,9.93
-8,72,9.931
34,-184,9.932
54,-139,9.933
24,195,9.934
7,569,9.935
33,736,9.936
46,630,9.937
17,373,9.938
-8,127,9.939
3,-20,9.94
14,-67,9.941
-5,-70,9.942
-26,-86,9.943
-24,-128,9.944
-13,-148,9.945
-10,-107,9.946
-9,-35,9.947
-4,-1,9.948
-11,-15,9.949
-29,-41,9.95
-43,-54,9.951
-40,-63,9.952
-28,-75,9.953
-22,-85,9.954
-17,-85,9.955
-12,-84,9.956
-6,-85,9.957
-3,-82,9.958
-9,-71,9.959
-19,-61,9.96
-35,-53,9.961
-42,-47,9.962
-20,-46,9.963
-1,-43,9.964
9,-36,9.965
18,-25,9.966
18,-16,9.967
38,-10,9.968
115,-4,9.969
148,3,9.97
44,8,9.971
-38,7,9.972
-54,12,9.973
-62,18,9.974
-67,21,9.975
-96,14,9.976
-70,3,9.977
26,4,9.978
115,12,9.979
143,16,9.98
143,15,9.981
150,8,9.982
119,-11,9.983
0,-51,9.984
-155,-131,9.985
-211,-267,9.986
-111,-395,9.987
37,-343,9.988
88,-7,9.989
29,426,9.99
-19,605,9.991
13,430,9.992
61,184,9.993
39,96,9.994
-5,107,9.995
-23,98,9.996
35,28,9.997
78,-40,9.998
72,-106,9.999
63,-174,10.0
43,-246,10.001
14,-215,10.002
-38,130,10.003
-90,365,10.004
-144,267,10.005
-184,164,10.006
-176,47,10.007
-155,-43,10.008
-94,-54,10.009
-54,-71,10.01
-78,-103,10.011
-71,-125,10.012
34,-116,10.013
129,-101,10.014
140,-62,10.015
115,-33,10.016
144,-52,10.017
191,-78,10.018
171,-56,10.019
97,-4,10.02
71,30,10.021
116,49,10.022
152,87,10.023
94,115,10.024
-41,84,10.025
-134,14,10.026
-90,-42,10.027
42,-87,10.028
107,-141,10.029
27,-167,10.03
-112,-122,10.031
-179,-51,10.032
-152,-63,10.033
-94,-217,10.034
-50,-418,10.035
-28,-451,10.036
-15,-165,10.037
-11,312,10.038
-18,579,10.039
-41,394,10.04
-74,-22,10.041
-88,-278,10.042
-53,-279,10.043
10,-158,10.044
60,105,10.045
74,554,10.046
62,872,10.047
43,631,10.048
41,-42,10.049
72,-512,10.05
101,-438,10.051
81,-108,10.052
24,110,10.053
-21,230,10.054
-32,383,10.055
-49,494,10.056
-82,410,10.057
-80,162,10.058
-21,-139,10.059
36,-481,10.06
29,-798,10.061
-11,-792,10.062
-24,-278,10.063
-3,377,10.064
19,541,10.065
38,135,10.066
70,-250,10.067
103,-256,10.068
102,-222,10.069
53,-418,10.07
-18,-394,10.071
-66,273,10.072
-61,1027,10.073
-18,1047,10.074
20,315,10.075
12,-301,10.076
-21,-295,10.077
-37,-54,10.078
-20,5,10.079
1,17,10.08
-1,161,10.081
-16,250,10.082
-15,149,10.083
4,54,10.084
24,97,10.085
29,119,10.086
24,6,10.087
19,-105,10.088
9,-129,10.089
-5,-180,10.09
-15,-288,10.091
-3,-287,10.092
29,-133,10.093
74,-36,10.094
118,-120,10.095
133,-187,10.096
91,-204,10.097
-9,-203,10.098
-121,-148,10.099
-183,-91,10.1
-183,-28,10.101
-148,26,10.102
-100,56,10.103
-53,76,10.104
-24,64,10.105
-22,52,10.106
-23,39,10.107
-5,29,10.108
17,29,10.109
28,25,10.11
41,9,10.111
70,3,10.112
97,29,10.113
97,61,10.114
89,81,10.115
86,33,10.116
78,-77,10.117
54,-176,10.118
36,-198,10.119
32,-152,10.12
10,-102,10.121
-37,-96,10.122
-69,-122,10.123
-62,-167,10.124
-43,-219,10.125
-39,-189,10.126
-29,30,10.127
-5,357,10.128
2,526,10.129
-13,391,10.13
-16,138,10.131
7,22,10.132
27,28,10.133
23,-33,10.134
20,-191,10.135
30,-274,10.136
26,-173,10.137
-7,19,10.138
-40,150,10.139
-36,183,10.14
-13,179,10.141
-3,172,10.142
-5,137,10.143
-3,42,10.144
2,-55,10.145
0,-41,10.146
1,99,10.147
17,215,10.148
33,176,10.149
30,26,10.15
18,-98,10.151
15,-142,10.152
17,-101,10.153
10,27,10.154
-1,175,10.155
