Deltoid,Bicep,Time
4,-2,0.0
6,1,0.001
-2,3,0.002
-8,2,0.003
-10,-2,0.004
-19,-5,0.005
-35,-4,0.006
-41,0,0.007
-23,1,0.008
3,0,0.009
16,0,0.01
12,2,0.011
10,5,0.012
17,5,0.013
25,1,0.014
27,-1,0.015
24,-1,0.016
20,-3,0.017
17,0,0.018
17,3,0.019
15,4,0.02
9,5,0.021
4,6,0.022
2,5,0.023
3,0,0.024
4,-3,0.025
1,-2,0.026
1,0,0.027
0,-2,0.028
-4,-4,0.029
-12,-4,0.03
-11,-3,0.031
-4,-2,0.032
1,-2,0.033
-1,-2,0.034
-5,-2,0.035
-9,-3,0.036
-12,-6,0.037
-13,-4,0.038
-6,-2,0.039
1,-1,0.04
0,0,0.041
-6,2,0.042
-8,5,0.043
-2,3,0.044
2,-1,0.045
3,-2,0.046
5,0,0.047
9,-1,0.048
1,-2,0.049
-18,-1,0.05
-36,1,0.051
-31,1,0.052
-8,-1,0.053
15,-5,0.054
22,-7,0.055
19,-6,0.056
23,-7,0.057
37,-5,0.058
46,0,0.059
38,3,0.06
14,3,0.061
-11,5,0.062
-24,8,0.063
-16,7,0.064
6,2,0.065
18,-1,0.066
17,1,0.067
17,5,0.068
24,3,0.069
24,0,0.07
13,-1,0.071
0,-1,0.072
1,-1,0.073
7,-3,0.074
3,-1,0.075
-8,1,0.076
-12,-3,0.077
-7,-7,0.078
-5,-7,0.079
-7,-3,0.08
-11,0,0.081
-13,0,0.082
-11,-2,0.083
-8,-6,0.084
-5,-7,0.085
-4,-4,0.086
-2,-2,0.087
2,-3,0.088
6,-5,0.089
6,-4,0.09
5,0,0.091
7,0,0.092
8,0,0.093
5,-1,0.094
6,1,0.095
11,2,0.096
18,-1,0.097
18,-4,0.098
15,-3,0.099
12,-2,0.1
8,0,0.101
-1,3,0.102
-8,3,0.103
-9,1,0.104
-7,-1,0.105
-13,0,0.106
-18,2,0.107
-15,0,0.108
-6,-3,0.109
-2,-2,0.11
-1,0,0.111
2,0,0.112
7,-1,0.113
4,-1,0.114
1,-1,0.115
-2,-2,0.116
-1,-5,0.117
1,-5,0.118
5,-1,0.119
8,-1,0.12
8,0,0.121
9,1,0.122
7,3,0.123
6,1,0.124
8,-3,0.125
10,-3,0.126
6,0,0.127
2,0,0.128
2,-1,0.129
1,0,0.13
-3,1,0.131
-5,0,0.132
-3,-2,0.133
-2,-4,0.134
-6,-3,0.135
-9,-3,0.136
-8,-6,0.137
-3,-6,0.138
9,-5,0.139
21,-1,0.14
28,5,0.141
24,10,0.142
14,8,0.143
0,0,0.144
-13,-3,0.145
-25,-1,0.146
-27,0,0.147
-21,-3,0.148
-10,-4,0.149
1,0,0.15
15,1,0.151
25,-1,0.152
31,0,0.153
34,3,0.154
37,4,0.155
31,0,0.156
20,-7,0.157
22,-5,0.158
41,1,0.159
53,6,0.16
43,4,0.161
22,2,0.162
9,1,0.163
5,0,0.164
-2,0,0.165
-15,0,0.166
-22,-2,0.167
-21,-5,0.168
-23,-6,0.169
-26,-3,0.17
-24,0,0.171
-23,1,0.172
-24,1,0.173
-29,0,0.174
-26,-1,0.175
-20,-3,0.176
-19,-9,0.177
-16,-9,0.178
0,-5,0.179
18,-1,0.18
22,0,0.181
13,2,0.182
-1,3,0.183
-13,3,0.184
-29,1,0.185
-37,0,0.186
-24,-1,0.187
8,-2,0.188
32,-2,0.189
35,0,0.19
33,0,0.191
33,0,0.192
34,0,0.193
22,0,0.194
3,3,0.195
-11,2,0.196
-16,-2,0.197
-14,-5,0.198
-7,-6,0.199
1,-4,0.2
6,-1,0.201
3,2,0.202
0,3,0.203
3,1,0.204
6,-1,0.205
7,0,0.206
5,2,0.207
5,2,0.208
5,-3,0.209
5,-4,0.21
6,-3,0.211
7,-2,0.212
7,-2,0.213
5,-2,0.214
5,-2,0.215
4,-4,0.216
0,-9,0.217
-2,-8,0.218
0,-3,0.219
4,2,0.22
0,2,0.221
-9,0,0.222
-12,0,0.223
-3,-2,0.224
4,-3,0.225
4,-2,0.226
3,2,0.227
8,5,0.228
15,3,0.229
16,-1,0.23
13,-1,0.231
9,0,0.232
1,2,0.233
-10,2,0.234
-19,1,0.235
-23,0,0.236
-24,-6,0.237
-10,-6,0.238
17,-4,0.239
39,-2,0.24
36,-1,0.241
16,0,0.242
1,0,0.243
2,3,0.244
11,7,0.245
18,8,0.246
21,3,0.247
20,-2,0.248
16,-3,0.249
12,1,0.25
8,4,0.251
3,-1,0.252
-3,-3,0.253
-7,-3,0.254
-8,-1,0.255
-10,0,0.256
-15,-2,0.257
-13,-5,0.258
-4,-3,0.259
2,-2,0.26
1,0,0.261
-5,1,0.262
-10,1,0.263
-8,0,0.264
-5,-1,0.265
-5,-3,0.266
-6,-2,0.267
-9,-1,0.268
-10,-3,0.269
-2,-4,0.27
12,-2,0.271
16,-1,0.272
5,-1,0.273
-17,1,0.274
-23,4,0.275
-6,5,0.276
22,0,0.277
34,-4,0.278
28,-5,0.279
17,-2,0.28
8,0,0.281
0,4,0.282
-4,4,0.283
-1,0,0.284
7,-3,0.285
13,-2,0.286
15,0,0.287
16,1,0.288
11,0,0.289
-3,-1,0.29
-22,-1,0.291
-32,0,0.292
-26,1,0.293
-16,-4,0.294
-5,-8,0.295
3,-8,0.296
16,-4,0.297
33,0,0.298
45,3,0.299
42,4,0.3
19,4,0.301
-9,3,0.302
-20,-2,0.303
-13,-5,0.304
-2,-1,0.305
2,5,0.306
4,8,0.307
15,3,0.308
33,0,0.309
41,0,0.31
31,1,0.311
15,0,0.312
10,1,0.313
12,0,0.314
9,-2,0.315
-7,-5,0.316
-29,-7,0.317
-39,-4,0.318
-34,-2,0.319
-23,-1,0.32
-15,1,0.321
-11,4,0.322
-10,4,0.323
-4,0,0.324
7,-3,0.325
21,-2,0.326
30,-2,0.327
26,-4,0.328
13,-5,0.329
1,-3,0.33
0,0,0.331
1,0,0.332
1,0,0.333
2,-1,0.334
7,-1,0.335
4,0,0.336
-8,2,0.337
-19,3,0.338
-14,-1,0.339
2,-3,0.34
11,-1,0.341
6,1,0.342
1,0,0.343
3,-2,0.344
2,-2,0.345
-2,-2,0.346
-3,-1,0.347
2,0,0.348
6,-1,0.349
7,-2,0.35
7,0,0.351
6,1,0.352
4,1,0.353
-1,0,0.354
-8,-2,0.355
-22,-3,0.356
-33,-5,0.357
-31,-3,0.358
-15,0,0.359
-3,3,0.36
-5,1,0.361
-11,-1,0.362
-2,-2,0.363
21,1,0.364
38,4,0.365
39,5,0.366
33,5,0.367
34,4,0.368
45,3,0.369
58,5,0.37
57,5,0.371
37,3,0.372
10,0,0.373
-12,-2,0.374
-15,-1,0.375
-12,-3,0.376
-18,-8,0.377
-25,-9,0.378
-23,-7,0.379
-15,-3,0.38
-18,-4,0.381
-26,-4,0.382
-20,-2,0.383
4,-3,0.384
24,-5,0.385
20,-5,0.386
5,-2,0.387
-1,-1,0.388
3,-3,0.389
5,-3,0.39
-2,-1,0.391
-11,0,0.392
-20,1,0.393
-24,2,0.394
-19,2,0.395
-9,1,0.396
-5,-4,0.397
-12,-5,0.398
-19,-3,0.399
-21,0,0.4
-22,3,0.401
-23,5,0.402
-11,3,0.403
12,-1,0.404
26,-4,0.405
20,-2,0.406
3,-2,0.407
-9,-5,0.408
-12,-5,0.409
1,-2,0.41
42,2,0.411
93,-1,0.412
118,-6,0.413
105,-4,0.414
82,-1,0.415
65,2,0.416
65,1,0.417
57,0,0.418
26,1,0.419
-3,3,0.42
-24,2,0.421
-38,1,0.422
-26,1,0.423
-16,1,0.424
-12,0,0.425
-11,-2,0.426
-20,-2,0.427
-32,-1,0.428
-48,-2,0.429
-60,-3,0.43
-57,-2,0.431
-50,-1,0.432
-31,-2,0.433
-11,-3,0.434
7,-2,0.435
17,-2,0.436
17,-5,0.437
13,-5,0.438
13,-3,0.439
10,-1,0.44
-2,1,0.441
-18,4,0.442
-19,4,0.443
-6,2,0.444
-1,0,0.445
-14,2,0.446
-25,2,0.447
-19,-5,0.448
-4,-7,0.449
2,-5,0.45
-4,0,0.451
-16,0,0.452
-21,-2,0.453
-20,-1,0.454
-3,0,0.455
18,0,0.456
25,-5,0.457
17,-6,0.458
12,-4,0.459
20,-1,0.46
27,2,0.461
22,8,0.462
15,8,0.463
14,0,0.464
13,-7,0.465
3,-5,0.466
-8,-1,0.467
-11,0,0.468
-4,0,0.469
8,1,0.47
22,5,0.471
33,6,0.472
39,6,0.473
42,3,0.474
43,-1,0.475
34,-2,0.476
16,-5,0.477
-5,-5,0.478
-12,-5,0.479
-5,-4,0.48
0,-1,0.481
-1,2,0.482
-4,0,0.483
-5,-3,0.484
-12,-3,0.485
-22,2,0.486
-23,4,0.487
-12,-1,0.488
-2,-8,0.489
0,-8,0.49
4,-6,0.491
20,-5,0.492
36,-2,0.493
33,0,0.494
14,1,0.495
-3,2,0.496
-12,-2,0.497
-18,-5,0.498
-8,0,0.499
-2,4,0.5
-8,3,0.501
-13,1,0.502
-12,0,0.503
-10,-3,0.504
-8,-1,0.505
-6,0,0.506
-4,0,0.507
-1,1,0.508
3,1,0.509
2,0,0.51
-12,1,0.511
-26,2,0.512
-34,2,0.513
-39,2,0.514
-32,0,0.515
-31,-2,0.516
-32,-6,0.517
-14,-7,0.518
35,-4,0.519
86,2,0.52
98,8,0.521
68,8,0.522
39,5,0.523
42,3,0.524
56,3,0.525
48,3,0.526
24,-1,0.527
9,-5,0.528
14,-5,0.529
23,-3,0.53
18,-4,0.531
4,-6,0.532
-9,-5,0.533
-22,-7,0.534
-35,-6,0.535
-45,-6,0.536
-48,-9,0.537
-42,-7,0.538
-24,-2,0.539
2,4,0.54
29,6,0.541
41,7,0.542
31,7,0.543
12,4,0.544
-3,0,0.545
-6,-3,0.546
-10,-5,0.547
-24,-6,0.548
-49,-6,0.549
-70,-2,0.55
-73,0,0.551
-53,-1,0.552
-28,-4,0.553
-3,-7,0.554
16,-5,0.555
32,-3,0.556
45,-8,0.557
52,-8,0.558
51,-2,0.559
39,5,0.56
13,10,0.561
-18,11,0.562
-33,9,0.563
-19,8,0.564
12,5,0.565
35,0,0.566
47,-4,0.567
54,-4,0.568
49,-1,0.569
26,-1,0.57
-6,-2,0.571
-23,-2,0.572
-15,1,0.573
-1,1,0.574
-3,0,0.575
-5,-3,0.576
-6,-2,0.577
-7,-1,0.578
-6,-1,0.579
-5,-1,0.58
-6,3,0.581
-7,5,0.582
-2,2,0.583
3,0,0.584
11,-1,0.585
20,-2,0.586
30,-3,0.587
35,-3,0.588
24,-1,0.589
15,0,0.59
11,0,0.591
7,-1,0.592
4,-1,0.593
-7,-1,0.594
-11,-3,0.595
-14,-7,0.596
-16,-10,0.597
-18,-6,0.598
-16,-4,0.599
-14,-2,0.6
-16,0,0.601
-17,4,0.602
-9,4,0.603
1,-1,0.604
17,-5,0.605
33,-3,0.606
51,-1,0.607
60,0,0.608
41,3,0.609
24,6,0.61
17,5,0.611
9,2,0.612
3,1,0.613
-3,5,0.614
-10,4,0.615
-8,0,0.616
-3,-6,0.617
5,-4,0.618
12,0,0.619
10,0,0.62
1,-1,0.621
0,-3,0.622
15,-1,0.623
28,0,0.624
21,0,0.625
3,-2,0.626
1,-4,0.627
13,-1,0.628
17,2,0.629
4,2,0.63
-9,-2,0.631
-9,-3,0.632
-4,1,0.633
-8,2,0.634
-16,-1,0.635
-19,-5,0.636
-16,-8,0.637
-11,-5,0.638
-5,-2,0.639
-1,-2,0.64
-1,-2,0.641
-10,0,0.642
-22,1,0.643
-30,0,0.644
-29,-3,0.645
-24,-5,0.646
-20,-5,0.647
-19,-4,0.648
-22,-2,0.649
-21,0,0.65
-10,4,0.651
13,6,0.652
34,5,0.653
45,0,0.654
55,-1,0.655
65,-3,0.656
70,-1,0.657
61,0,0.658
46,2,0.659
31,5,0.66
17,5,0.661
4,4,0.662
3,-1,0.663
20,-6,0.664
35,-4,0.665
35,-2,0.666
22,0,0.667
1,1,0.668
-28,0,0.669
-57,-2,0.67
-60,-3,0.671
-31,-3,0.672
4,-1,0.673
17,0,0.674
9,1,0.675
-1,1,0.676
-5,-3,0.677
-13,-5,0.678
-26,-7,0.679
-28,-6,0.68
-20,-4,0.681
-13,-2,0.682
-15,2,0.683
-21,5,0.684
-25,4,0.685
-23,1,0.686
-10,-2,0.687
18,-2,0.688
42,0,0.689
45,3,0.69
31,4,0.691
20,3,0.692
15,1,0.693
4,0,0.694
-11,-1,0.695
-22,-1,0.696
-18,-5,0.697
-8,-7,0.698
-1,-4,0.699
2,2,0.7
1,7,0.701
-4,3,0.702
-6,-3,0.703
-1,-4,0.704
9,-2,0.705
19,0,0.706
26,-1,0.707
36,-2,0.708
41,-3,0.709
31,-1,0.71
8,0,0.711
-13,0,0.712
-21,0,0.713
-17,0,0.714
-12,2,0.715
-15,1,0.716
-18,-4,0.717
-14,-8,0.718
-1,-5,0.719
2,0,0.72
-19,0,0.721
-43,-2,0.722
-44,-5,0.723
-23,-5,0.724
-9,-3,0.725
-8,1,0.726
5,2,0.727
39,-2,0.728
60,-4,0.729
50,-3,0.73
30,2,0.731
29,8,0.732
43,13,0.733
45,11,0.734
39,7,0.735
37,3,0.736
48,-1,0.737
59,-3,0.738
67,1,0.739
67,4,0.74
44,5,0.741
21,6,0.742
0,3,0.743
-21,0,0.744
-39,-1,0.745
-50,-3,0.746
-39,-5,0.747
-28,-7,0.748
-15,-5,0.749
-10,-4,0.75
-30,-4,0.751
-47,-3,0.752
-56,0,0.753
-61,2,0.754
-55,0,0.755
-45,-3,0.756
-31,-6,0.757
-20,-7,0.758
-13,-6,0.759
-6,-3,0.76
3,0,0.761
7,0,0.762
2,-1,0.763
-7,-1,0.764
-9,0,0.765
-4,0,0.766
3,-4,0.767
4,-6,0.768
2,-6,0.769
3,-5,0.77
10,-4,0.771
19,-5,0.772
30,-1,0.773
38,3,0.774
40,5,0.775
37,4,0.776
36,-2,0.777
34,-4,0.778
27,-3,0.779
17,-3,0.78
11,-2,0.781
13,-1,0.782
15,3,0.783
11,4,0.784
-1,2,0.785
-16,-1,0.786
-21,0,0.787
-19,2,0.788
-13,3,0.789
-10,2,0.79
-7,2,0.791
-3,0,0.792
3,0,0.793
6,-3,0.794
6,-1,0.795
2,2,0.796
-4,-2,0.797
-12,-4,0.798
-13,-2,0.799
-12,0,0.8
-21,1,0.801
-42,1,0.802
-54,1,0.803
-39,-1,0.804
-8,-3,0.805
17,-4,0.806
25,-1,0.807
33,0,0.808
44,0,0.809
46,3,0.81
37,5,0.811
30,2,0.812
37,0,0.813
39,1,0.814
28,5,0.815
16,7,0.816
-1,1,0.817
-11,-3,0.818
2,-3,0.819
16,-2,0.82
30,-3,0.821
39,-4,0.822
33,-4,0.823
30,-4,0.824
36,-4,0.825
36,-2,0.826
13,0,0.827
-8,1,0.828
-23,0,0.829
-37,-3,0.83
-45,-1,0.831
-47,0,0.832
-33,-2,0.833
-16,-5,0.834
-9,-3,0.835
-14,-3,0.836
-14,-9,0.837
-4,-9,0.838
4,-4,0.839
5,-1,0.84
1,-1,0.841
-5,1,0.842
-10,3,0.843
-12,0,0.844
-8,-3,0.845
-3,-3,0.846
-1,0,0.847
-2,1,0.848
-5,1,0.849
-8,0,0.85
-7,-1,0.851
-3,-4,0.852
1,-4,0.853
1,1,0.854
-2,1,0.855
-8,-1,0.856
-17,-6,0.857
-24,-6,0.858
-26,-3,0.859
-20,-1,0.86
-6,-1,0.861
6,2,0.862
14,2,0.863
22,0,0.864
34,-3,0.865
46,-1,0.866
48,2,0.867
32,6,0.868
9,6,0.869
-7,4,0.87
-8,3,0.871
-2,0,0.872
-1,0,0.873
-5,-2,0.874
-5,-3,0.875
-5,-4,0.876
-4,-6,0.877
0,-3,0.878
24,-1,0.879
58,0,0.88
68,3,0.881
45,3,0.882
17,-1,0.883
17,-5,0.884
31,-2,0.885
26,4,0.886
2,6,0.887
-12,1,0.888
-7,-3,0.889
-3,-2,0.89
-11,2,0.891
-23,3,0.892
-26,2,0.893
-26,-1,0.894
-24,-2,0.895
-20,-3,0.896
-14,-5,0.897
-8,-6,0.898
-2,-2,0.899
0,1,0.9
-11,0,0.901
-24,-2,0.902
-40,-2,0.903
-46,-1,0.904
-18,-1,0.905
11,-1,0.906
39,-4,0.907
57,-7,0.908
45,-6,0.909
34,-4,0.91
29,0,0.911
21,3,0.912
3,3,0.913
-15,3,0.914
-29,5,0.915
-30,5,0.916
-24,-2,0.917
-10,-7,0.918
15,-5,0.919
37,0,0.92
31,2,0.921
-1,-2,0.922
-26,-4,0.923
-18,-2,0.924
11,2,0.925
23,6,0.926
7,6,0.927
-13,2,0.928
-16,-4,0.929
-9,-6,0.93
-6,-4,0.931
-10,-3,0.932
-11,-3,0.933
-8,-4,0.934
-2,-5,0.935
12,-6,0.936
31,-8,0.937
38,-8,0.938
26,-4,0.939
11,0,0.94
8,1,0.941
15,1,0.942
17,1,0.943
13,0,0.944
15,-1,0.945
20,2,0.946
16,7,0.947
4,7,0.948
0,2,0.949
8,0,0.95
7,3,0.951
-3,6,0.952
-13,7,0.953
-13,4,0.954
-12,0,0.955
-25,-2,0.956
-51,-4,0.957
-70,-4,0.958
-65,-3,0.959
-39,-1,0.96
-9,2,0.961
17,4,0.962
40,1,0.963
60,-2,0.964
69,-3,0.965
56,-1,0.966
25,2,0.967
0,2,0.968
-7,1,0.969
-1,0,0.97
0,-1,0.971
-3,-1,0.972
-7,2,0.973
-10,2,0.974
-6,0,0.975
-2,-2,0.976
-2,-5,0.977
-1,-7,0.978
-5,-5,0.979
-4,-3,0.98
13,1,0.981
22,4,0.982
8,4,0.983
-2,4,0.984
0,0,0.985
3,-3,0.986
13,-2,0.987
21,-1,0.988
25,-1,0.989
28,-1,0.99
28,-1,0.991
22,0,0.992
3,0,0.993
-16,0,0.994
-32,-3,0.995
-49,-4,0.996
-59,-9,0.997
-55,-8,0.998
-35,-4,0.999
-10,-3,1.0
16,-5,1.001
45,-5,1.002
71,-3,1.003
77,-1,1.004
55,-2,1.005
21,-1,1.006
-6,0,1.007
-17,0,1.008
-23,-2,1.009
-23,-1,1.01
-10,1,1.011
11,9,1.012
24,13,1.013
10,5,1.014
-20,5,1.015
-38,1,1.016
-19,-5,1.017
26,-13,1.018
65,-9,1.019
78,-7,1.02
70,-3,1.021
48,-1,1.022
10,0,1.023
-41,1,1.024
-79,1,1.025
-80,1,1.026
-58,0,1.027
-37,-1,1.028
-30,0,1.029
-35,3,1.03
-43,5,1.031
-41,5,1.032
-17,1,1.033
16,3,1.034
34,3,1.035
25,1,1.036
11,-3,1.037
6,-8,1.038
3,-5,1.039
-1,-4,1.04
1,-2,1.041
14,-1,1.042
17,0,1.043
2,1,1.044
-3,1,1.045
30,1,1.046
81,0,1.047
96,-1,1.048
51,0,1.049
-16,2,1.05
-46,3,1.051
-27,3,1.052
4,1,1.053
8,3,1.054
-9,3,1.055
-23,1,1.056
-23,-3,1.057
-19,-7,1.058
-5,-5,1.059
8,-4,1.06
21,-2,1.061
30,-1,1.062
25,0,1.063
19,1,1.064
13,1,1.065
5,1,1.066
-8,0,1.067
-15,-1,1.068
-2,0,1.069
9,2,1.07
17,3,1.071
23,3,1.072
25,1,1.073
27,-1,1.074
21,-2,1.075
6,0,1.076
-4,0,1.077
-10,-3,1.078
-10,-5,1.079
-5,-5,1.08
0,0,1.081
0,1,1.082
-5,0,1.083
-11,-2,1.084
-12,-2,1.085
-15,-1,1.086
-19,-2,1.087
-21,-3,1.088
-20,-2,1.089
-20,-1,1.09
-23,-2,1.091
-27,-3,1.092
-31,-4,1.093
-35,-5,1.094
-34,-3,1.095
-18,0,1.096
19,-1,1.097
70,-4,1.098
110,-4,1.099
118,3,1.1
91,12,1.101
56,13,1.102
29,7,1.103
10,1,1.104
-10,0,1.105
-29,2,1.106
-32,1,1.107
-21,2,1.108
-7,3,1.109
-1,2,1.11
1,-1,1.111
-3,-2,1.112
-20,1,1.113
-49,0,1.114
-62,-4,1.115
-41,-8,1.116
4,-10,1.117
55,-8,1.118
84,-5,1.119
69,-1,1.12
18,3,1.121
-26,4,1.122
-28,1,1.123
-4,-2,1.124
4,-1,1.125
-6,2,1.126
-12,3,1.127
-6,0,1.128
-6,-2,1.129
-15,-2,1.13
-17,0,1.131
-9,0,1.132
-2,0,1.133
-6,-4,1.134
-6,-4,1.135
-4,-4,1.136
-1,-6,1.137
1,-7,1.138
5,-5,1.139
7,-3,1.14
3,-3,1.141
0,-3,1.142
3,-1,1.143
6,0,1.144
6,0,1.145
5,-1,1.146
3,-1,1.147
2,-1,1.148
2,-1,1.149
0,-1,1.15
-4,0,1.151
-8,3,1.152
-12,3,1.153
-16,2,1.154
-23,0,1.155
-29,-4,1.156
-27,-11,1.157
-12,-10,1.158
17,-4,1.159
46,2,1.16
65,3,1.161
67,1,1.162
57,0,1.163
37,2,1.164
14,6,1.165
1,10,1.166
4,11,1.167
5,8,1.168
-16,3,1.169
-49,2,1.17
-49,2,1.171
-6,1,1.172
46,1,1.173
68,2,1.174
57,4,1.175
35,1,1.176
23,-6,1.177
14,-7,1.178
-2,-6,1.179
-18,-5,1.18
-25,-4,1.181
-28,-2,1.182
-27,1,1.183
-21,1,1.184
-11,-1,1.185
-7,-3,1.186
-12,-4,1.187
-16,-6,1.188
-10,-6,1.189
-4,-3,1.19
-6,-2,1.191
-8,-3,1.192
-6,0,1.193
-5,-1,1.194
-7,-1,1.195
-9,-1,1.196
-5,-1,1.197
0,-1,1.198
10,-1,1.199
17,0,1.2
12,1,1.201
6,2,1.202
-2,0,1.203
-7,-1,1.204
-3,-1,1.205
3,-2,1.206
13,-4,1.207
15,-4,1.208
-6,-2,1.209
-28,-1,1.21
-44,-1,1.211
-49,-1,1.212
-19,-1,1.213
12,-2,1.214
44,-2,1.215
82,-1,1.216
125,-2,1.217
142,-2,1.218
117,0,1.219
64,2,1.22
16,3,1.221
-15,4,1.222
-40,2,1.223
-65,0,1.224
-77,-2,1.225
-68,-4,1.226
-55,-6,1.227
-50,-7,1.228
-39,-4,1.229
-13,-2,1.23
11,-2,1.231
19,-1,1.232
16,-1,1.233
14,0,1.234
18,3,1.235
21,3,1.236
21,0,1.237
18,-3,1.238
7,-5,1.239
-7,-3,1.24
-16,0,1.241
-9,1,1.242
7,0,1.243
18,-2,1.244
22,-3,1.245
26,-3,1.246
23,0,1.247
13,3,1.248
-3,4,1.249
-18,3,1.25
-33,1,1.251
-50,0,1.252
-53,2,1.253
-37,3,1.254
-11,0,1.255
6,-5,1.256
21,-10,1.257
39,-7,1.258
56,-2,1.259
50,-2,1.26
25,-3,1.261
0,0,1.262
-9,3,1.263
-7,0,1.264
-3,-5,1.265
0,-3,1.266
5,0,1.267
8,0,1.268
3,-2,1.269
-4,1,1.27
-9,5,1.271
-13,2,1.272
-17,-1,1.273
-21,-2,1.274
-24,-3,1.275
-33,-3,1.276
-38,-6,1.277
-24,-3,1.278
9,0,1.279
43,-2,1.28
59,-3,1.281
63,-1,1.282
66,2,1.283
56,2,1.284
13,-1,1.285
-46,0,1.286
-83,0,1.287
-73,-3,1.288
-35,-7,1.289
4,-4,1.29
30,2,1.291
37,5,1.292
26,4,1.293
14,0,1.294
21,2,1.295
23,3,1.296
8,-1,1.297
-5,-4,1.298
-10,-4,1.299
-13,-3,1.3
-5,1,1.301
-1,4,1.302
-13,0,1.303
-14,-2,1.304
19,0,1.305
44,3,1.306
39,4,1.307
38,4,1.308
51,2,1.309
61,0,1.31
63,1,1.311
51,2,1.312
-3,0,1.313
-50,-2,1.314
-50,-2,1.315
-34,-3,1.316
-38,-5,1.317
-53,-7,1.318
-47,-3,1.319
-24,0,1.32
-8,3,1.321
-2,0,1.322
18,-2,1.323
40,-3,1.324
33,-1,1.325
7,0,1.326
-6,0,1.327
3,0,1.328
5,0,1.329
-9,0,1.33
-21,-1,1.331
-22,-2,1.332
-23,-1,1.333
-29,-3,1.334
-21,-4,1.335
-6,-2,1.336
-3,-4,1.337
-10,-5,1.338
6,-7,1.339
46,-1,1.34
68,6,1.341
50,7,1.342
24,1,1.343
17,-2,1.344
20,1,1.345
11,6,1.346
-5,6,1.347
-15,3,1.348
-18,2,1.349
-22,2,1.35
-24,0,1.351
-21,-3,1.352
-16,-1,1.353
-15,2,1.354
-8,3,1.355
5,-1,1.356
21,-6,1.357
36,-6,1.358
54,-2,1.359
68,1,1.36
59,4,1.361
14,7,1.362
-41,4,1.363
-73,-2,1.364
-77,-6,1.365
-68,-4,1.366
-51,0,1.367
-27,-3,1.368
-2,-6,1.369
12,-4,1.37
21,0,1.371
42,0,1.372
69,0,1.373
85,1,1.374
83,5,1.375
69,6,1.376
18,0,1.377
-26,-5,1.378
-50,-2,1.379
-66,0,1.38
-56,-1,1.381
-41,-3,1.382
-9,-4,1.383
22,-6,1.384
50,-6,1.385
64,-6,1.386
38,-2,1.387
19,2,1.388
20,3,1.389
18,6,1.39
0,10,1.391
-15,11,1.392
-25,4,1.393
-36,-4,1.394
-41,-8,1.395
-35,-5,1.396
-26,-7,1.397
-23,-10,1.398
-13,-8,1.399
17,-1,1.4
45,5,1.401
40,3,1.402
15,-2,1.403
5,-2,1.404
17,2,1.405
23,4,1.406
17,2,1.407
16,2,1.408
22,2,1.409
22,2,1.41
11,4,1.411
-1,5,1.412
-10,3,1.413
-18,-3,1.414
-20,-6,1.415
-16,-4,1.416
-12,-5,1.417
-17,-7,1.418
-17,-7,1.419
-8,-5,1.42
-3,-1,1.421
-13,1,1.422
-23,0,1.423
-18,-1,1.424
-5,-2,1.425
1,0,1.426
8,1,1.427
24,-1,1.428
37,-2,1.429
29,-1,1.43
2,0,1.431
-20,0,1.432
-23,2,1.433
-19,3,1.434
-13,3,1.435
-7,0,1.436
6,-4,1.437
18,-1,1.438
19,1,1.439
9,-1,1.44
2,-3,1.441
5,-1,1.442
9,2,1.443
7,-1,1.444
6,-5,1.445
10,-4,1.446
6,0,1.447
-14,0,1.448
-39,-1,1.449
-42,0,1.45
-14,0,1.451
17,-1,1.452
28,0,1.453
27,3,1.454
35,4,1.455
42,4,1.456
42,-1,1.457
42,-6,1.458
47,-1,1.459
49,3,1.46
41,3,1.461
29,2,1.462
7,0,1.463
-10,-2,1.464
-15,-3,1.465
-22,-4,1.466
-36,-4,1.467
-43,-4,1.468
-29,-1,1.469
-13,2,1.47
4,0,1.471
17,-1,1.472
15,-1,1.473
10,-1,1.474
0,0,1.475
-25,-2,1.476
-57,-7,1.477
-75,-8,1.478
-67,-6,1.479
-47,-1,1.48
-35,0,1.481
-19,-3,1.482
16,-4,1.483
57,-3,1.484
71,1,1.485
58,4,1.486
50,5,1.487
60,6,1.488
64,9,1.489
44,10,1.49
12,8,1.491
-10,3,1.492
-19,1,1.493
-18,3,1.494
-8,2,1.495
-4,-2,1.496
-10,-10,1.497
-16,-11,1.498
-7,-8,1.499
6,-2,1.5
8,3,1.501
-1,5,1.502
0,2,1.503
6,-2,1.504
5,-5,1.505
-4,-1,1.506
-10,1,1.507
-7,-1,1.508
-6,-3,1.509
-9,-2,1.51
-9,0,1.511
-8,0,1.512
-9,-1,1.513
-16,-2,1.514
-17,-2,1.515
-16,-3,1.516
-17,-6,1.517
-10,-4,1.518
12,2,1.519
35,4,1.52
32,4,1.521
9,2,1.522
-8,0,1.523
-2,-2,1.524
10,-3,1.525
11,-2,1.526
7,-1,1.527
11,-3,1.528
18,-2,1.529
20,1,1.53
19,2,1.531
20,-1,1.532
20,-2,1.533
9,-1,1.534
-2,0,1.535
-5,1,1.536
-1,-4,1.537
1,-7,1.538
1,-4,1.539
1,-1,1.54
-1,0,1.541
-10,3,1.542
-21,3,1.543
-27,2,1.544
-31,-1,1.545
-29,-3,1.546
-17,-1,1.547
4,0,1.548
22,2,1.549
26,4,1.55
28,1,1.551
36,-1,1.552
45,0,1.553
36,3,1.554
17,4,1.555
1,0,1.556
-8,-10,1.557
-15,-9,1.558
-14,-2,1.559
-11,4,1.56
-4,6,1.561
1,5,1.562
5,3,1.563
9,0,1.564
13,-2,1.565
16,1,1.566
15,4,1.567
10,4,1.568
-3,2,1.569
-15,-1,1.57
-20,0,1.571
-25,-1,1.572
-29,1,1.573
-33,2,1.574
-28,-2,1.575
-21,-4,1.576
-13,-9,1.577
-4,-12,1.578
12,-10,1.579
33,-6,1.58
48,0,1.581
52,4,1.582
49,1,1.583
40,-1,1.584
28,0,1.585
18,1,1.586
10,3,1.587
5,2,1.588
-2,2,1.589
-12,2,1.59
-18,0,1.591
-19,-2,1.592
-18,-3,1.593
-18,-1,1.594
-17,-1,1.595
-17,-1,1.596
-14,-3,1.597
-11,-5,1.598
-7,-5,1.599
-3,-4,1.6
-1,-4,1.601
1,-5,1.602
3,-6,1.603
9,-7,1.604
18,-4,1.605
29,0,1.606
32,1,1.607
26,3,1.608
16,3,1.609
8,4,1.61
3,5,1.611
2,6,1.612
1,4,1.613
-1,-1,1.614
-3,-1,1.615
-7,-1,1.616
-11,-3,1.617
-15,-5,1.618
-19,-5,1.619
-24,-4,1.62
-32,-4,1.621
-33,-5,1.622
-12,-6,1.623
2,-7,1.624
-4,-4,1.625
-4,0,1.626
18,1,1.627
38,3,1.628
47,3,1.629
48,4,1.63
20,5,1.631
4,6,1.632
31,4,1.633
50,1,1.634
26,-2,1.635
-8,-6,1.636
-20,-12,1.637
-20,-11,1.638
-22,-6,1.639
-25,-2,1.64
-33,-2,1.641
-43,-3,1.642
-40,-5,1.643
-13,-3,1.644
29,-2,1.645
55,-1,1.646
58,0,1.647
52,0,1.648
39,0,1.649
18,2,1.65
-5,7,1.651
-15,9,1.652
-12,5,1.653
-12,0,1.654
-13,-3,1.655
-9,0,1.656
-2,-1,1.657
5,-4,1.658
18,-5,1.659
35,-3,1.66
41,2,1.661
20,2,1.662
-6,-1,1.663
-17,-4,1.664
-15,-2,1.665
-18,2,1.666
-22,3,1.667
-15,0,1.668
-3,-2,1.669
-3,-3,1.67
-10,-1,1.671
-7,2,1.672
3,6,1.673
5,4,1.674
-9,0,1.675
-25,-4,1.676
-34,-8,1.677
-34,-9,1.678
-27,-8,1.679
-17,-5,1.68
-7,-2,1.681
5,0,1.682
22,0,1.683
38,-2,1.684
44,-1,1.685
38,2,1.686
29,4,1.687
20,5,1.688
6,6,1.689
-10,6,1.69
-11,3,1.691
6,-2,1.692
20,-3,1.693
17,-4,1.694
13,-2,1.695
9,0,1.696
9,-4,1.697
7,-6,1.698
-1,-4,1.699
-5,-2,1.7
0,-1,1.701
2,0,1.702
-11,-2,1.703
-19,-4,1.704
-13,-2,1.705
-9,-1,1.706
-11,-1,1.707
-11,0,1.708
-3,1,1.709
4,3,1.71
3,5,1.711
4,6,1.712
15,4,1.713
26,1,1.714
26,0,1.715
19,0,1.716
13,-1,1.717
8,-3,1.718
0,-3,1.719
-13,-3,1.72
-31,-1,1.721
-39,0,1.722
-26,-1,1.723
-4,-3,1.724
12,-3,1.725
16,1,1.726
19,5,1.727
24,6,1.728
20,4,1.729
5,4,1.73
-3,5,1.731
6,3,1.732
23,2,1.733
33,-2,1.734
30,-3,1.735
22,-1,1.736
18,-3,1.737
17,-8,1.738
13,-9,1.739
6,-6,1.74
1,-1,1.741
3,1,1.742
3,1,1.743
-5,2,1.744
-20,2,1.745
-27,-1,1.746
-23,-3,1.747
-23,-5,1.748
-36,-6,1.749
-49,-5,1.75
-41,-1,1.751
-14,4,1.752
12,4,1.753
19,5,1.754
15,10,1.755
11,11,1.756
13,2,1.757
19,-3,1.758
27,-1,1.759
33,0,1.76
29,5,1.761
15,7,1.762
3,3,1.763
-1,0,1.764
-8,-3,1.765
-22,-6,1.766
-32,-3,1.767
-27,-2,1.768
-20,0,1.769
-23,0,1.77
-28,-3,1.771
-15,-7,1.772
10,-7,1.773
29,4,1.774
39,8,1.775
48,9,1.776
48,2,1.777
50,-3,1.778
57,-1,1.779
58,0,1.78
40,4,1.781
23,6,1.782
7,3,1.783
-7,0,1.784
-15,-3,1.785
-22,-5,1.786
-25,-3,1.787
-27,-2,1.788
-24,0,1.789
-23,0,1.79
-29,-3,1.791
-35,-6,1.792
-39,-6,1.793
-41,-4,1.794
-29,-1,1.795
-1,-4,1.796
28,-9,1.797
40,-8,1.798
38,-4,1.799
29,-1,1.8
8,0,1.801
-18,3,1.802
-27,2,1.803
-13,0,1.804
3,0,1.805
7,2,1.806
3,1,1.807
7,-1,1.808
8,1,1.809
0,4,1.81
-14,4,1.811
-24,1,1.812
-28,2,1.813
-23,3,1.814
-6,0,1.815
8,-6,1.816
8,-11,1.817
-2,-6,1.818
-4,0,1.819
9,1,1.82
22,1,1.821
21,4,1.822
8,5,1.823
-3,0,1.824
-2,-2,1.825
20,-1,1.826
48,0,1.827
59,-1,1.828
41,-1,1.829
16,-2,1.83
5,-3,1.831
2,-2,1.832
-7,3,1.833
-24,-3,1.834
-27,-1,1.835
-10,0,1.836
7,-3,1.837
9,-5,1.838
12,-3,1.839
26,0,1.84
36,3,1.841
27,7,1.842
9,2,1.843
0,0,1.844
1,0,1.845
-3,1,1.846
-13,0,1.847
-19,0,1.848
-14,2,1.849
-8,5,1.85
-5,5,1.851
-3,3,1.852
1,1,1.853
-5,-4,1.854
-17,-2,1.855
-25,-1,1.856
-17,-4,1.857
-7,-6,1.858
6,-4,1.859
18,-1,1.86
19,4,1.861
20,8,1.862
21,3,1.863
17,-1,1.864
-2,0,1.865
-17,2,1.866
-21,1,1.867
-22,0,1.868
-15,3,1.869
-5,6,1.87
10,6,1.871
23,4,1.872
27,2,1.873
28,0,1.874
17,-5,1.875
6,-8,1.876
-2,-9,1.877
-5,-8,1.878
-1,-9,1.879
4,-6,1.88
4,0,1.881
-3,5,1.882
-10,2,1.883
-11,-2,1.884
-12,-2,1.885
-13,0,1.886
-9,0,1.887
-11,-1,1.888
-30,0,1.889
-58,0,1.89
-71,-2,1.891
-58,-4,1.892
-27,-3,1.893
11,-3,1.894
47,-3,1.895
67,-1,1.896
72,-2,1.897
72,-3,1.898
78,-4,1.899
77,-1,1.9
58,3,1.901
26,6,1.902
3,4,1.903
-1,0,1.904
5,0,1.905
12,2,1.906
9,2,1.907
-3,2,1.908
-14,4,1.909
-19,5,1.91
-21,2,1.911
-29,-1,1.912
-35,-1,1.913
-37,-2,1.914
-33,-1,1.915
-26,0,1.916
-16,-2,1.917
-1,-4,1.918
12,-4,1.919
20,-3,1.92
23,1,1.921
24,3,1.922
18,1,1.923
2,-1,1.924
-17,-1,1.925
-22,0,1.926
-18,-1,1.927
-12,-3,1.928
-9,-3,1.929
-3,-4,1.93
8,-2,1.931
18,0,1.932
19,3,1.933
9,-2,1.934
7,-1,1.935
5,0,1.936
4,-2,1.937
3,-4,1.938
5,-4,1.939
8,-3,1.94
10,1,1.941
12,3,1.942
10,1,1.943
8,-1,1.944
3,-1,1.945
0,0,1.946
2,-1,1.947
6,-3,1.948
16,-3,1.949
25,-4,1.95
26,-2,1.951
26,0,1.952
21,3,1.953
4,6,1.954
-1,0,1.955
-7,-5,1.956
-12,-8,1.957
-14,-4,1.958
-6,-3,1.959
2,-2,1.96
11,1,1.961
17,7,1.962
10,5,1.963
1,-1,1.964
-13,-4,1.965
-23,0,1.966
-17,3,1.967
-3,2,1.968
30,0,1.969
58,0,1.97
63,0,1.971
63,0,1.972
45,2,1.973
24,1,1.974
-1,0,1.975
-16,-1,1.976
-24,-5,1.977
-27,-4,1.978
-19,-4,1.979
8,-3,1.98
32,-4,1.981
32,-1,1.982
17,1,1.983
4,0,1.984
-10,-3,1.985
-26,-5,1.986
-33,-6,1.987
-25,-6,1.988
-16,-5,1.989
-22,-3,1.99
-24,-2,1.991
-1,1,1.992
33,5,1.993
44,-3,1.994
24,-1,1.995
3,0,1.996
10,-2,1.997
37,-4,1.998
51,-5,1.999
38,-5,2.0
15,-2,2.001
0,1,2.002
-2,1,2.003
-7,0,2.004
-21,-2,2.005
-29,-4,2.006
-28,-1,2.007
-23,1,2.008
-21,0,2.009
-20,-2,2.01
-14,0,2.011
-12,0,2.012
-13,-2,2.013
10,-3,2.014
7,-1,2.015
6,0,2.016
7,-2,2.017
9,-4,2.018
13,-5,2.019
18,-5,2.02
24,-2,2.021
29,1,2.022
33,1,2.023
34,0,2.024
26,-2,2.025
20,-4,2.026
19,-1,2.027
17,1,2.028
17,0,2.029
17,-2,2.03
14,0,2.031
11,0,2.032
12,-2,2.033
-32,-5,2.034
-48,-6,2.035
-58,-6,2.036
-52,-8,2.037
-39,-7,2.038
-9,-3,2.039
24,1,2.04
64,4,2.041
100,5,2.042
121,5,2.043
126,4,2.044
78,4,2.045
39,3,2.046
30,0,2.047
23,0,2.048
21,1,2.049
14,3,2.05
-8,3,2.051
-24,4,2.052
-16,8,2.053
-8,8,2.054
-1,2,2.055
2,-5,2.056
-4,-7,2.057
-24,-1,2.058
-39,-1,2.059
-28,-5,2.06
12,-7,2.061
69,0,2.062
110,8,2.063
98,10,2.064
16,13,2.065
-88,19,2.066
-145,19,2.067
-135,4,2.068
-102,-15,2.069
-81,-25,2.07
-41,-24,2.071
47,-24,2.072
133,-23,2.073
148,-22,2.074
81,-19,2.075
-4,-18,2.076
-46,-21,2.077
-50,-12,2.078
-51,4,2.079
-64,23,2.08
-89,37,2.081
-121,52,2.082
-139,70,2.083
-117,85,2.084
-58,92,2.085
15,89,2.086
85,70,2.087
142,27,2.088
180,-21,2.089
186,-49,2.09
158,-55,2.091
113,-71,2.092
76,-105,2.093
42,-133,2.094
-7,-125,2.095
-60,-116,2.096
-126,-104,2.097
-170,-86,2.098
-147,-48,2.099
-107,-14,2.1
-16,11,2.101
72,34,2.102
152,50,2.103
201,63,2.104
156,64,2.105
96,62,2.106
-9,51,2.107
-108,43,2.108
-186,43,2.109
-242,41,2.11
-232,38,2.111
-196,32,2.112
-81,19,2.113
64,8,2.114
295,12,2.115
390,11,2.116
284,-9,2.117
110,-28,2.118
29,-28,2.119
38,-9,2.12
52,25,2.121
47,93,2.122
49,202,2.123
38,289,2.124
-9,248,2.125
-35,55,2.126
7,-179,2.127
59,-311,2.128
33,-307,2.129
-49,-243,2.13
-115,-185,2.131
-149,-123,2.132
-164,-54,2.133
-137,0,2.134
-79,15,2.135
-61,21,2.136
-102,42,2.137
-111,69,2.138
-30,74,2.139
59,67,2.14
55,66,2.141
-23,60,2.142
-81,36,2.143
-82,10,2.144
-40,7,2.145
19,17,2.146
53,16,2.147
14,11,2.148
-66,10,2.149
-87,18,2.15
-8,17,2.151
83,5,2.152
98,-2,2.153
51,-1,2.154
23,0,2.155
41,3,2.156
59,-3,2.157
53,-10,2.158
48,-7,2.159
54,-3,2.16
49,3,2.161
26,7,2.162
14,1,2.163
24,-1,2.164
19,0,2.165
-26,3,2.166
-59,3,2.167
-11,1,2.168
93,-3,2.169
149,-9,2.17
106,-9,2.171
26,-5,2.172
-3,-1,2.173
2,-1,2.174
-6,0,2.175
-15,2,2.176
-30,-2,2.177
-39,-6,2.178
-27,-4,2.179
-14,-2,2.18
0,2,2.181
3,4,2.182
-23,1,2.183
-43,-1,2.184
-41,0,2.185
-31,2,2.186
2,2,2.187
25,1,2.188
8,-2,2.189
-2,-5,2.19
9,-5,2.191
22,-3,2.192
39,-1,2.193
47,1,2.194
18,-2,2.195
-7,-4,2.196
-3,-6,2.197
10,0,2.198
1,8,2.199
-23,14,2.2
-46,12,2.201
-63,7,2.202
-72,3,2.203
-53,4,2.204
5,4,2.205
67,2,2.206
80,1,2.207
50,0,2.208
33,-3,2.209
53,-5,2.21
72,-2,2.211
45,3,2.212
-9,5,2.213
-43,-2,2.214
-26,-6,2.215
-4,-5,2.216
-7,-4,2.217
-21,-3,2.218
-18,-4,2.219
-4,-3,2.22
0,-3,2.221
-11,-4,2.222
-17,-2,2.223
-12,0,2.224
-8,1,2.225
-12,-1,2.226
-14,-3,2.227
-10,-2,2.228
-6,-2,2.229
-9,-1,2.23
-11,1,2.231
-8,3,2.232
-1,5,2.233
0,-3,2.234
-3,-3,2.235
-5,-3,2.236
-3,-3,2.237
-1,-2,2.238
4,0,2.239
9,1,2.24
9,-1,2.241
7,-3,2.242
5,-6,2.243
4,-7,2.244
5,-6,2.245
5,-4,2.246
3,-3,2.247
2,-3,2.248
3,-3,2.249
4,-3,2.25
2,-3,2.251
-1,-4,2.252
-8,-4,2.253
-1,-1,2.254
-5,-3,2.255
-7,-3,2.256
-5,5,2.257
-2,16,2.258
5,36,2.259
11,46,2.26
11,22,2.261
9,-3,2.262
7,-33,2.263
5,-52,2.264
6,-35,2.265
6,-18,2.266
4,-4,2.267
2,5,2.268
4,2,2.269
5,-2,2.27
2,-12,2.271
-3,-19,2.272
-11,-13,2.273
-18,-6,2.274
-23,-2,2.275
-26,4,2.276
-30,11,2.277
-40,13,2.278
-42,9,2.279
-19,7,2.28
26,10,2.281
68,12,2.282
93,13,2.283
109,21,2.284
113,37,2.285
87,51,2.286
15,58,2.287
-65,65,2.288
-96,81,2.289
-57,105,2.29
5,120,2.291
37,99,2.292
37,30,2.293
31,-91,2.294
33,-212,2.295
25,-261,2.296
0,-215,2.297
-24,-104,2.298
-28,-11,2.299
-15,11,2.3
0,-14,2.301
11,-5,2.302
8,90,2.303
-17,212,2.304
-63,230,2.305
-108,93,2.306
-104,-102,2.307
-43,-224,2.308
18,-246,2.309
31,-228,2.31
26,-188,2.311
64,-101,2.312
129,16,2.313
59,-92,2.314
-36,106,2.315
-104,316,2.316
-91,555,2.317
-88,739,2.318
-116,754,2.319
-125,605,2.32
-71,-47,2.321
10,-526,2.322
176,-486,2.323
274,-411,2.324
168,-262,2.325
70,-142,2.326
0,-102,2.327
-58,-92,2.328
-88,-177,2.329
-97,-207,2.33
-42,-62,2.331
6,126,2.332
31,445,2.333
46,23,2.334
-30,63,2.335
-84,105,2.336
-74,153,2.337
-72,190,2.338
-94,193,2.339
-101,163,2.34
-58,32,2.341
7,-64,2.342
139,-56,2.343
217,-41,2.344
133,-11,2.345
55,13,2.346
-1,21,2.347
-48,23,2.348
-72,6,2.349
-79,0,2.35
-35,29,2.351
4,67,2.352
24,131,2.353
37,201,2.354
30,253,2.355
31,196,2.356
34,62,2.357
32,-36,2.358
8,-74,2.359
-45,-121,2.36
-110,-190,2.361
-142,-192,2.362
-125,-84,2.363
-91,42,2.364
-74,68,2.365
-76,-15,2.366
-85,-113,2.367
-102,-143,2.368
-108,-108,2.369
-61,-53,2.37
46,-11,2.371
153,44,2.372
186,150,2.373
139,296,2.374
71,336,2.375
50,130,2.376
99,-214,2.377
175,-375,2.378
202,-214,2.379
145,42,2.38
47,104,2.381
-33,-10,2.382
-80,-82,2.383
-108,-28,2.384
-109,50,2.385
-74,50,2.386
-33,-51,2.387
-19,-219,2.388
-21,-347,2.389
-25,-324,2.39
-59,-203,2.391
-120,-140,2.392
-143,-152,2.393
-81,-110,2.394
12,0,2.395
84,81,2.396
92,73,2.397
96,82,2.398
88,146,2.399
76,188,2.4
50,162,2.401
37,144,2.402
65,148,2.403
76,152,2.404
34,151,2.405
3,153,2.406
2,166,2.407
8,169,2.408
37,135,2.409
52,109,2.41
21,104,2.411
-31,80,2.412
-145,0,2.413
-221,-74,2.414
-111,-105,2.415
42,-68,2.416
113,135,2.417
82,586,2.418
4,1092,2.419
-83,1201,2.42
-184,617,2.421
-276,-382,2.422
-260,-1130,2.423
-88,-1262,2.424
124,-1061,2.425
203,-971,2.426
172,-1004,2.427
204,-872,2.428
320,-527,2.429
322,-204,2.43
113,-7,2.431
-118,217,2.432
-172,519,2.433
-101,757,2.434
-69,742,2.435
-90,489,2.436
-67,167,2.437
-6,-71,2.438
7,-166,2.439
-27,-124,2.44
-44,-17,2.441
-48,70,2.442
-97,103,2.443
-184,102,2.444
-229,78,2.445
-159,59,2.446
56,147,2.447
347,445,2.448
523,848,2.449
437,982,2.45
184,562,2.451
-7,-203,2.452
-73,-760,2.453
-162,-864,2.454
-115,-717,2.455
-42,-558,2.456
107,-366,2.457
247,-187,2.458
355,-48,2.459
386,51,2.46
186,28,2.461
48,85,2.462
102,387,2.463
145,604,2.464
151,564,2.465
150,394,2.466
127,-160,2.467
101,-584,2.468
59,-613,2.469
4,-576,2.47
-92,-341,2.471
-166,-96,2.472
-171,176,2.473
-108,443,2.474
-71,581,2.475
-16,498,2.476
98,298,2.477
206,27,2.478
288,-290,2.479
312,-436,2.48
159,-149,2.481
53,448,2.482
94,878,2.483
127,785,2.484
132,255,2.485
131,-328,2.486
114,-603,2.487
93,-488,2.488
62,-259,2.489
20,-264,2.49
-54,-513,2.491
-111,-696,2.492
-115,-649,2.493
-116,-483,2.494
-78,-349,2.495
-20,-179,2.496
100,102,2.497
212,311,2.498
298,303,2.499
323,296,2.5
163,298,2.501
52,315,2.502
96,372,2.503
130,404,2.504
135,357,2.505
134,277,2.506
116,97,2.507
95,-37,2.508
61,-31,2.509
17,-20,2.51
-60,5,2.511
-119,58,2.512
-123,194,2.513
-151,288,2.514
-264,148,2.515
-343,-59,2.516
-344,-101,2.517
-271,42,2.518
-133,140,2.519
6,-13,2.52
65,-351,2.521
71,-613,2.522
147,-598,2.523
306,-331,2.524
400,42,2.525
354,377,2.526
293,541,2.527
309,433,2.528
278,151,2.529
57,9,2.53
-262,183,2.531
-448,409,2.532
-422,346,2.533
-114,209,2.534
-138,-370,2.535
-156,-831,2.536
-152,-933,2.537
-144,-961,2.538
-127,-763,2.539
-123,-514,2.54
-163,-112,2.541
-202,159,2.542
-234,41,2.543
-255,-27,2.544
-242,62,2.545
-192,112,2.546
-33,48,2.547
111,43,2.548
214,222,2.549
325,381,2.55
454,471,2.551
495,593,2.552
273,815,2.553
-124,158,2.554
-150,-314,2.555
-170,-689,2.556
-166,-772,2.557
-157,-795,2.558
-138,-634,2.559
-134,-431,2.56
-178,-104,2.561
-220,117,2.562
-256,21,2.563
-279,-34,2.564
-265,38,2.565
-210,79,2.566
-35,27,2.567
124,23,2.568
238,169,2.569
360,298,2.57
501,371,2.571
546,471,2.572
303,651,2.573
49,746,2.574
-97,424,2.575
-58,-14,2.576
-24,-266,2.577
-80,-233,2.578
-145,-79,2.579
-153,-6,2.58
-175,-72,2.581
-279,-202,2.582
-393,-323,2.583
-392,-407,2.584
-293,-409,2.585
-210,-277,2.586
-153,-64,2.587
-14,139,2.588
199,370,2.589
330,721,2.59
320,1045,2.591
305,984,2.592
373,465,2.593
412,-287,2.594
314,-834,2.595
190,-1016,2.596
180,-943,2.597
185,-705,2.598
44,-339,2.599
-156,62,2.6
-219,410,2.601
-186,746,2.602
-237,1144,2.603
-332,1470,2.604
-260,1392,2.605
-28,704,2.606
113,-374,2.607
54,-1301,2.608
-73,-1708,2.609
-187,-1713,2.61
-347,-1622,2.611
-488,-1457,2.612
-404,-1072,2.613
-205,-141,2.614
-185,-488,2.615
-154,-640,2.616
-93,-205,2.617
-42,103,2.618
-28,32,2.619
-20,-54,2.62
-29,-187,2.621
-29,-322,2.622
-3,-452,2.623
29,-507,2.624
81,-336,2.625
112,-126,2.626
76,198,2.627
35,491,2.628
-24,687,2.629
-134,752,2.63
-398,423,2.631
-585,11,2.632
-531,-648,2.633
-194,-182,2.634
-176,-722,2.635
-149,-959,2.636
-94,-281,2.637
-49,200,2.638
-37,90,2.639
-30,-44,2.64
-38,-254,2.641
-38,-463,2.642
-15,-666,2.643
13,-752,2.644
59,-485,2.645
86,-158,2.646
55,349,2.647
19,806,2.648
-33,1111,2.649
-131,1212,2.65
-364,700,2.651
-528,57,2.652
-481,-972,2.653
-321,-1737,2.654
183,-1376,2.655
476,-895,2.656
387,-683,2.657
170,-448,2.658
114,-26,2.659
132,316,2.66
1,446,2.661
-174,578,2.662
-106,784,2.663
193,839,2.664
401,724,2.665
342,715,2.666
174,864,2.667
100,814,2.668
142,370,2.669
197,-178,2.67
182,-461,2.671
86,-453,2.672
-28,-353,2.673
-74,-298,2.674
-112,-344,2.675
-136,-438,2.676
-119,-333,2.677
-82,253,2.678
15,1170,2.679
89,1692,2.68
96,1147,2.681
140,-265,2.682
296,-1525,2.683
383,-1814,2.684
265,-1286,2.685
182,-674,2.686
204,-358,2.687
164,-171,2.688
-65,57,2.689
-206,245,2.69
-74,345,2.691
9,467,2.692
-54,658,2.693
-55,848,2.694
-87,900,2.695
-108,660,2.696
-93,52,2.697
-62,-678,2.698
20,-1044,2.699
82,-877,2.7
88,-576,2.701
125,-495,2.702
257,-404,2.703
331,46,2.704
231,623,2.705
160,758,2.706
179,374,2.707
145,-4,2.708
-48,53,2.709
-166,438,2.71
-55,781,2.711
15,905,2.712
-38,845,2.713
-107,505,2.714
-155,-145,2.715
-186,-753,2.716
-164,-1231,2.717
-117,-1501,2.718
6,-1142,2.719
101,-782,2.72
110,-419,2.721
166,-108,2.722
364,45,2.723
475,201,2.724
325,362,2.725
219,601,2.726
247,1070,2.727
196,1240,2.728
-96,509,2.729
-274,-146,2.73
-107,-570,2.731
-1,-802,2.732
-81,-454,2.733
-141,-91,2.734
-86,372,2.735
-120,913,2.736
-353,1233,2.737
-491,947,2.738
-330,72,2.739
-108,-850,2.74
-88,-1219,2.741
-152,-949,2.742
-91,-494,2.743
36,-271,2.744
63,-239,2.745
19,-145,2.746
56,52,2.747
183,277,2.748
259,613,2.749
198,1080,2.75
77,1272,2.751
29,725,2.752
80,-263,2.753
134,-1027,2.754
80,-1082,2.755
-49,-721,2.756
-121,-427,2.757
-99,-195,2.758
-44,155,2.759
0,475,2.76
36,499,2.761
8,323,2.762
-128,246,2.763
-265,325,2.764
-236,405,2.765
-48,421,2.766
137,362,2.767
218,151,2.768
205,-164,2.769
123,-309,2.77
5,-166,2.771
-44,-41,2.772
30,-193,2.773
99,-419,2.774
198,-396,2.775
261,-356,2.776
215,-262,2.777
170,-256,2.778
131,-515,2.779
85,-698,2.78
18,-652,2.781
5,-445,2.782
154,244,2.783
236,799,2.784
115,944,2.785
0,876,2.786
-100,170,2.787
-148,-261,2.788
-31,135,2.789
40,461,2.79
-29,575,2.791
-52,466,2.792
71,-311,2.793
96,-967,2.794
184,-1061,2.795
240,-955,2.796
199,-693,2.797
159,-200,2.798
125,283,2.799
84,452,2.8
24,436,2.801
12,611,2.802
145,1064,2.803
218,1516,2.804
111,1562,2.805
8,872,2.806
-81,-461,2.807
-124,-1711,2.808
-20,-2075,2.809
43,-1542,2.81
-18,-776,2.811
-38,-179,2.812
71,290,2.813
127,532,2.814
-20,336,2.815
-40,176,2.816
143,129,2.817
258,199,2.818
138,625,2.819
-37,876,2.82
-88,598,2.821
-91,252,2.822
-149,-295,2.823
-169,-674,2.824
-78,-546,2.825
-11,-395,2.826
-84,-177,2.827
-172,-9,2.828
-115,8,2.829
11,-13,2.83
9,-157,2.831
-115,-246,2.832
-181,-170,2.833
-115,-65,2.834
-12,97,2.835
37,239,2.836
51,400,2.837
48,470,2.838
-16,316,2.839
-145,79,2.84
-223,18,2.841
-150,154,2.842
1,263,2.843
80,232,2.844
57,207,2.845
25,341,2.846
19,470,2.847
-34,223,2.848
-152,-455,2.849
-226,-1059,2.85
-163,-1050,2.851
-1,-550,2.852
170,-164,2.853
327,-122,2.854
408,-120,2.855
334,164,2.856
139,637,2.857
0,1039,2.858
24,1180,2.859
114,821,2.86
151,-140,2.861
159,-1205,2.862
211,-1562,2.863
281,-1088,2.864
296,-498,2.865
228,-294,2.866
83,-179,2.867
-108,206,2.868
-241,607,2.869
-212,659,2.87
-66,495,2.871
29,387,2.872
-3,250,2.873
-83,-128,2.874
-124,-541,2.875
-178,-644,2.876
-270,-453,2.877
-337,-232,2.878
-329,-64,2.879
-266,145,2.88
-40,382,2.881
149,609,2.882
225,908,2.883
257,1204,2.884
153,1061,2.885
58,223,2.886
-6,-781,2.887
-50,-1118,2.888
-31,-681,2.889
-38,-150,2.89
-126,-4,2.891
-182,-58,2.892
-140,-39,2.893
-118,-16,2.894
-231,-104,2.895
-385,-180,2.896
-339,-162,2.897
-38,-205,2.898
318,-360,2.899
496,-382,2.9
456,-133,2.901
318,146,2.902
190,261,2.903
70,403,2.904
-71,747,2.905
-171,1023,2.906
-110,850,2.907
78,344,2.908
192,-13,2.909
125,-58,2.91
39,-103,2.911
129,-399,2.912
304,-736,2.913
314,-819,2.914
120,-608,2.915
-39,-358,2.916
-57,-264,2.917
-66,-257,2.918
-177,-183,2.919
-301,-15,2.92
-294,149,2.921
-178,214,2.922
-86,166,2.923
-71,70,2.924
-81,2,2.925
-83,12,2.926
-80,158,2.927
-47,445,2.928
40,696,2.929
122,602,2.93
108,123,2.931
33,-332,2.932
19,-392,2.933
66,-189,2.934
48,-146,2.935
-73,-306,2.936
-154,-283,2.937
-100,53,2.938
-19,333,2.939
-28,355,2.94
-67,468,2.941
-24,935,2.942
68,1292,2.943
106,838,2.944
74,-366,2.945
26,-1410,2.946
-37,-1519,2.947
-135,-869,2.948
-196,-273,2.949
-111,-210,2.95
110,-405,2.951
304,-364,2.952
339,-89,2.953
236,24,2.954
129,-146,2.955
45,-246,2.956
31,-128,2.957
5,-5,2.958
-59,135,2.959
-157,265,2.96
-357,363,2.961
-531,445,2.962
-627,474,2.963
-568,505,2.964
-46,544,2.965
432,635,2.966
778,882,2.967
982,888,2.968
758,169,2.969
499,-555,2.97
137,-1295,2.971
-158,-1691,2.972
-258,-1053,2.973
-291,-434,2.974
-140,-104,2.975
-97,-47,2.976
-105,25,2.977
-43,132,2.978
37,194,2.979
35,299,2.98
10,502,2.981
39,663,2.982
47,635,2.983
-46,439,2.984
-152,168,2.985
-169,-84,2.986
-156,-188,2.987
-194,-57,2.988
-241,232,2.989
-223,522,2.99
-157,733,2.991
-91,820,2.992
-31,703,2.993
27,291,2.994
72,-289,2.995
117,-792,2.996
173,-1063,2.997
198,-1124,2.998
161,-1086,2.999
123,-983,3.0
129,-701,3.001
107,-93,3.002
-24,751,3.003
-194,1389,3.004
-281,1341,3.005
-275,640,3.006
-237,-88,3.007
-148,-281,3.008
33,-116,3.009
242,-230,3.01
357,-764,3.011
345,-1132,3.012
263,-950,3.013
135,-527,3.014
1,-363,3.015
-74,-318,3.016
-78,45,3.017
-109,569,3.018
-236,653,3.019
-335,258,3.02
-224,-11,3.021
69,229,3.022
327,735,3.023
399,1055,3.024
325,917,3.025
197,261,3.026
49,-645,3.027
-114,-1248,3.028
-260,-1235,3.029
-318,-863,3.03
-232,-512,3.031
-33,-206,3.032
116,118,3.033
68,361,3.034
-119,407,3.035
-200,424,3.036
-59,558,3.037
132,625,3.038
202,443,3.039
199,222,3.04
203,238,3.041
113,416,3.042
-169,481,3.043
-470,331,3.044
-494,63,3.045
-200,-172,3.046
143,-242,3.047
310,-116,3.048
329,13,3.049
349,-65,3.05
396,-286,3.051
387,-398,3.052
292,-316,3.053
142,-118,3.054
-9,119,3.055
-144,314,3.056
-226,297,3.057
-218,72,3.058
-156,-16,3.059
-123,265,3.06
-126,539,3.061
-90,280,3.062
-16,-283,3.063
-19,-357,3.064
-153,237,3.065
-293,715,3.066
-294,396,3.067
-161,-445,3.068
-23,-1108,3.069
9,-1330,3.07
-73,-1223,3.071
-152,-873,3.072
-81,-448,3.073
156,-218,3.074
335,-257,3.075
258,-172,3.076
60,294,3.077
23,763,3.078
161,785,3.079
227,550,3.08
126,572,3.081
29,915,3.082
55,1183,3.083
105,1082,3.084
75,702,3.085
11,275,3.086
-21,-160,3.087
-26,-821,3.088
-25,-1771,3.089
-14,-2481,3.09
-23,-2252,3.091
-79,-1171,3.092
-125,-172,3.093
-98,268,3.094
-4,414,3.095
77,700,3.096
113,992,3.097
114,973,3.098
58,698,3.099
-72,392,3.1
-214,101,3.101
-269,-100,3.102
-229,-51,3.103
-158,173,3.104
-78,291,3.105
36,270,3.106
160,299,3.107
194,338,3.108
114,171,3.109
29,-107,3.11
33,-179,3.111
76,-31,3.112
46,51,3.113
-49,1,3.114
-91,-10,3.115
-97,-21,3.116
11,-31,3.117
72,-35,3.118
-9,-17,3.119
-44,1,3.12
63,17,3.121
147,36,3.122
160,62,3.123
137,56,3.124
5,-48,3.125
-90,-110,3.126
-74,-43,3.127
-65,6,3.128
-77,-3,3.129
-77,6,3.13
-43,70,3.131
-21,108,3.132
-39,62,3.133
-51,-9,3.134
-33,-101,3.135
-11,-61,3.136
14,21,3.137
38,48,3.138
36,25,3.139
13,-8,3.14
20,-86,3.141
71,-243,3.142
101,-399,3.143
62,-422,3.144
-2,-290,3.145
-20,-125,3.146
2,-29,3.147
25,7,3.148
45,56,3.149
74,129,3.15
85,170,3.151
50,118,3.152
-10,1,3.153
-55,-104,3.154
-58,-110,3.155
-43,-27,3.156
-33,49,3.157
-22,76,3.158
-2,90,3.159
13,139,3.16
4,233,3.161
-14,331,3.162
-17,355,3.163
1,244,3.164
12,55,3.165
-2,-60,3.166
-21,-55,3.167
-22,-70,3.168
-9,-191,3.169
-2,-288,3.17
-2,-220,3.171
1,-92,3.172
12,-84,3.173
20,-195,3.174
26,-272,3.175
27,-234,3.176
24,-111,3.177
18,60,3.178
13,208,3.179
15,213,3.18
18,64,3.181
14,-69,3.182
5,-50,3.183
1,42,3.184
-2,79,3.185
-7,83,3.186
-14,129,3.187
-15,215,3.188
-13,326,3.189
-13,506,3.19
-16,735,3.191
-17,832,3.192
-15,629,3.193
-12,59,3.194
-7,-682,3.195
-3,-1269,3.196
-6,-1406,3.197
-14,-1049,3.198
-15,-493,3.199
-7,-102,3.2
1,41,3.201
5,91,3.202
12,149,3.203
25,189,3.204
36,202,3.205
36,225,3.206
29,237,3.207
23,199,3.208
20,150,3.209
13,139,3.21
6,125,3.211
3,80,3.212
9,75,3.213
9,146,3.214
0,194,3.215
-18,97,3.216
-43,-77,3.217
-66,-162,3.218
-67,-120,3.219
-40,-50,3.22
3,-9,3.221
34,15,3.222
44,32,3.223
50,22,3.224
63,14,3.225
68,41,3.226
48,73,3.227
16,59,3.228
-4,2,3.229
-2,-32,3.23
1,8,3.231
-4,111,3.232
-10,175,3.233
-10,95,3.234
-9,-125,3.235
-17,-320,3.236
-30,-321,3.237
-37,-162,3.238
-38,-19,3.239
-39,21,3.24
-40,27,3.241
-33,43,3.242
-12,40,3.243
12,11,3.244
28,3,3.245
41,27,3.246
61,34,3.247
73,20,3.248
61,25,3.249
25,52,3.25
1,57,3.251
9,31,3.252
27,13,3.253
24,7,3.254
-8,-4,3.255
-60,-19,3.256
-99,-17,3.257
-111,-4,3.258
-88,-10,3.259
-36,-26,3.26
12,-19,3.261
25,5,3.262
15,10,3.263
27,-6,3.264
74,-8,3.265
101,3,3.266
62,3,3.267
-2,-10,3.268
1,-15,3.269
89,-6,3.27
168,0,3.271
155,-2,3.272
78,0,3.273
-2,5,3.274
-28,7,3.275
-48,3,3.276
-81,-2,3.277
-103,-2,3.278
-95,-1,3.279
-77,-2,3.28
-66,-1,3.281
-45,1,3.282
-5,-2,3.283
30,-5,3.284
36,-2,3.285
27,5,3.286
21,15,3.287
14,33,3.288
-7,57,3.289
-28,70,3.29
-32,89,3.291
-29,184,3.292
-30,345,3.293
-35,403,3.294
-29,139,3.295
-20,-384,3.296
-19,-778,3.297
-21,-748,3.298
-14,-436,3.299
-5,-163,3.3
-10,-27,3.301
-17,81,3.302
-11,185,3.303
5,206,3.304
22,171,3.305
46,182,3.306
82,221,3.307
104,179,3.308
91,67,3.309
65,11,3.31
44,41,3.311
27,61,3.312
8,36,3.313
-1,11,3.314
12,15,3.315
19,10,3.316
0,-19,3.317
-24,-33,3.318
-18,-21,3.319
10,-11,3.32
25,-14,3.321
15,-9,3.322
-7,0,3.323
-37,-6,3.324
-80,-19,3.325
-120,-18,3.326
-145,-10,3.327
-154,-14,3.328
-153,-22,3.329
-126,-20,3.33
-60,-14,3.331
31,-18,3.332
118,-20,3.333
-255,-8,3.334
-158,-6,3.335
-90,-5,3.336
-112,-6,3.337
-110,-7,3.338
-34,-7,3.339
43,-7,3.34
132,-9,3.341
188,-9,3.342
146,-1,3.343
112,5,3.344
103,7,3.345
76,10,3.346
0,15,3.347
-46,17,3.348
-11,13,3.349
8,8,3.35
-24,2,3.351
-35,-3,3.352
17,-7,3.353
-196,-10,3.354
-122,-8,3.355
-70,-6,3.356
-87,-8,3.357
-85,-9,3.358
-27,-9,3.359
33,-9,3.36
101,-12,3.361
144,-12,3.362
112,-1,3.363
86,6,3.364
79,9,3.365
58,13,3.366
0,19,3.367
-36,21,3.368
-9,17,3.369
6,10,3.37
-19,2,3.371
-28,-4,3.372
13,-9,3.373
53,-8,3.374
58,-6,3.375
27,-5,3.376
-22,-6,3.377
-81,-7,3.378
-133,-7,3.379
-134,-7,3.38
-71,-9,3.381
19,-9,3.382
82,-1,3.383
94,5,3.384
85,7,3.385
94,10,3.386
118,14,3.387
106,16,3.388
35,13,3.389
-43,8,3.39
-58,2,3.391
-27,-3,3.392
-21,-7,3.393
-53,-7,3.394
-45,4,3.395
34,11,3.396
112,5,3.397
114,-5,3.398
65,-14,3.399
33,-25,3.4
11,-32,3.401
-46,-28,3.402
-112,-16,3.403
-118,4,3.404
-64,43,3.405
-37,119,3.406
-76,199,3.407
-104,193,3.408
-45,43,3.409
59,-167,3.41
108,-276,3.411
80,-229,3.412
56,-123,3.413
66,-49,3.414
60,-10,3.415
44,24,3.416
-1,40,3.417
-30,27,3.418
-8,14,3.419
1,29,3.42
-24,50,3.421
-38,49,3.422
-16,41,3.423
1,45,3.424
3,55,3.425
6,68,3.426
9,89,3.427
6,91,3.428
-19,38,3.429
-38,-47,3.43
-38,-98,3.431
-35,-88,3.432
-25,-66,3.433
-12,-66,3.434
4,-56,3.435
17,-8,3.436
19,59,3.437
14,108,3.438
11,115,3.439
12,77,3.44
15,3,3.441
14,-77,3.442
6,-133,3.443
-6,-147,3.444
-7,-119,3.445
0,-65,3.446
4,-23,3.447
0,-19,3.448
-6,-33,3.449
-9,-28,3.45
-16,2,3.451
-24,26,3.452
-24,32,3.453
-19,40,3.454
-30,54,3.455
-73,61,3.456
-111,43,3.457
-92,30,3.458
-9,33,3.459
85,35,3.46
139,33,3.461
156,30,3.462
171,27,3.463
177,21,3.464
130,10,3.465
25,1,3.466
-65,-3,3.467
-65,-6,3.468
-2,-10,3.469
33,-12,3.47
11,-6,3.471
-14,-1,3.472
-7,2,3.473
-2,5,3.474
-31,4,3.475
-65,-4,3.476
-64,-17,3.477
-41,-19,3.478
-37,-12,3.479
-52,-7,3.48
-61,-7,3.481
-66,-8,3.482
-87,-8,3.483
-118,-9,3.484
-126,-8,3.485
-102,-4,3.486
-52,0,3.487
32,-2,3.488
168,-4,3.489
317,-4,3.49
379,0,3.491
294,3,3.492
131,2,3.493
-3,-1,3.494
-40,1,3.495
-40,7,3.496
-73,6,3.497
-117,1,3.498
-100,-8,3.499
-34,-18,3.5
-1,-18,3.501
-20,-11,3.502
-42,-4,3.503
-33,-4,3.504
-22,-6,3.505
-29,-4,3.506
-34,-2,3.507
-23,-5,3.508
-14,-6,3.509
-19,-1,3.51
-25,8,3.511
-17,6,3.512
-6,-1,3.513
-6,-4,3.514
-9,2,3.515
-6,6,3.516
0,1,3.517
3,-1,3.518
4,0,3.519
9,2,3.52
10,0,3.521
6,-1,3.522
6,-2,3.523
11,-3,3.524
15,2,3.525
14,15,3.526
9,29,3.527
7,33,3.528
5,22,3.529
3,2,3.53
4,-20,3.531
6,-33,3.532
4,-30,3.533
-3,-23,3.534
-9,-17,3.535
-13,-13,3.536
-13,-11,3.537
-6,-11,3.538
12,-15,3.539
28,-12,3.54
34,2,3.541
32,19,3.542
32,21,3.543
33,11,3.544
23,8,3.545
8,12,3.546
-1,29,3.547
-2,64,3.548
-4,109,3.549
-18,121,3.55
-34,53,3.551
-37,-68,3.552
-26,-149,3.553
-5,-150,3.554
7,-98,3.555
-3,-52,3.556
-20,-28,3.557
-23,-6,3.558
-8,11,3.559
8,11,3.56
16,6,3.561
27,16,3.562
51,32,3.563
70,34,3.564
61,28,3.565
32,28,3.566
16,32,3.567
22,28,3.568
32,22,3.569
27,19,3.57
14,16,3.571
8,5,3.572
10,-8,3.573
5,-17,3.574
-3,-17,3.575
-11,-15,3.576
-12,-17,3.577
-16,-18,3.578
-18,-17,3.579
-19,-10,3.58
-19,-1,3.581
-19,3,3.582
-20,-2,3.583
-19,-5,3.584
-17,-1,3.585
-18,3,3.586
-18,1,3.587
-14,-3,3.588
-14,-3,3.589
-14,0,3.59
-12,-4,3.591
-6,-6,3.592
-1,-1,3.593
-1,5,3.594
-1,5,3.595
-3,0,3.596
-4,-4,3.597
-8,-2,3.598
-8,-1,3.599
-5,-3,3.6
-10,0,3.601
-17,6,3.602
-9,15,3.603
13,28,3.604
37,50,3.605
49,70,3.606
50,66,3.607
49,34,3.608
39,9,3.609
17,28,3.61
-3,68,3.611
-14,56,3.612
-22,-22,3.613
-32,-106,3.614
-42,-110,3.615
-42,-64,3.616
-36,-71,3.617
-26,-140,3.618
-14,-179,3.619
3,-138,3.62
14,-77,3.621
14,-55,3.622
19,-44,3.623
41,-1,3.624
69,46,3.625
75,67,3.626
55,73,3.627
33,84,3.628
29,85,3.629
35,81,3.63
34,107,3.631
23,166,3.632
13,188,3.633
8,113,3.634
2,-19,3.635
-9,-113,3.636
-24,-129,3.637
-28,-92,3.638
-18,-51,3.639
-5,-19,3.64
-5,5,3.641
-21,14,3.642
-41,5,3.643
-41,-6,3.644
-18,0,3.645
10,17,3.646
19,24,3.647
10,19,3.648
9,12,3.649
29,6,3.65
46,-3,3.651
33,-10,3.652
6,-13,3.653
-11,-15,3.654
-10,-17,3.655
-13,-16,3.656
-25,-12,3.657
-28,-8,3.658
-15,-5,3.659
-2,0,3.66
-2,9,3.661
-8,9,3.662
-6,-2,3.663
-3,-12,3.664
-8,-8,3.665
-10,0,3.666
-4,0,3.667
1,-3,3.668
-1,1,3.669
-5,4,3.67
-1,-3,3.671
3,-13,3.672
1,-9,3.673
-2,0,3.674
0,0,3.675
0,-5,3.676
-4,-7,3.677
-6,0,3.678
0,3,3.679
3,1,3.68
-2,2,3.681
-5,6,3.682
-3,5,3.683
1,2,3.684
10,0,3.685
13,1,3.686
-2,6,3.687
-17,25,3.688
-29,55,3.689
-31,56,3.69
0,3,3.691
25,-71,3.692
33,-104,3.693
36,-82,3.694
35,-32,3.695
44,8,3.696
48,38,3.697
32,63,3.698
6,68,3.699
-10,73,3.7
-12,130,3.701
-6,223,3.702
0,241,3.703
4,123,3.704
-1,-46,3.705
-7,-151,3.706
-9,-195,3.707
-5,-233,3.708
-6,-247,3.709
-6,-201,3.71
2,-150,3.711
22,-161,3.712
36,-186,3.713
35,-135,3.714
20,-23,3.715
8,53,3.716
2,70,3.717
3,96,3.718
3,138,3.719
0,144,3.72
-9,112,3.721
-25,96,3.722
-39,98,3.723
-45,78,3.724
-44,46,3.725
-36,45,3.726
-18,60,3.727
9,45,3.728
42,7,3.729
75,-8,3.73
94,-3,3.731
92,-3,3.732
75,-9,3.733
58,-7,3.734
47,1,3.735
29,-3,3.736
-4,-18,3.737
-36,-21,3.738
-50,-14,3.739
-43,-12,3.74
-32,-12,3.741
-31,-9,3.742
-33,-8,3.743
-35,-13,3.744
-35,-15,3.745
-34,-7,3.746
-27,-2,3.747
-13,-8,3.748
1,-11,3.749
11,-4,3.75
13,-2,3.751
9,-14,3.752
5,-24,3.753
2,-24,3.754
0,-17,3.755
-2,-17,3.756
-7,-20,3.757
-11,-10,3.758
-9,1,3.759
-3,3,3.76
3,0,3.761
4,3,3.762
4,8,3.763
7,7,3.764
7,5,3.765
2,6,3.766
-2,5,3.767
2,1,3.768
10,0,3.769
13,5,3.77
9,5,3.771
5,0,3.772
4,0,3.773
4,5,3.774
2,10,3.775
0,7,3.776
-3,0,3.777
-3,1,3.778
-2,0,3.779
-4,-4,3.78
-9,-2,3.781
-19,6,3.782
-23,9,3.783
-21,5,3.784
-15,2,3.785
-5,6,3.786
8,8,3.787
21,5,3.788
33,2,3.789
47,3,3.79
56,5,3.791
54,1,3.792
41,-3,3.793
20,-12,3.794
0,-16,3.795
-17,-10,3.796
-21,-4,3.797
-21,-1,3.798
-29,-5,3.799
-53,-3,3.8
-74,12,3.801
-66,26,3.802
-28,22,3.803
18,3,3.804
54,-10,3.805
78,-11,3.806
99,-9,3.807
105,-13,3.808
86,-13,3.809
54,-6,3.81
33,0,3.811
34,-4,3.812
44,-15,3.813
38,-25,3.814
13,-21,3.815
-10,-9,3.816
-26,-3,3.817
-36,-3,3.818
-30,-3,3.819
-27,4,3.82
-33,15,3.821
-38,21,3.822
-38,17,3.823
-38,12,3.824
-36,10,3.825
-33,10,3.826
-29,5,3.827
-25,-1,3.828
-23,0,3.829
-18,9,3.83
-2,11,3.831
12,0,3.832
17,-14,3.833
23,-21,3.834
33,-15,3.835
34,-10,3.836
16,-13,3.837
-7,-16,3.838
-11,-17,3.839
-2,-15,3.84
-4,-3,3.841
-21,6,3.842
-30,6,3.843
-21,7,3.844
-9,9,3.845
-8,11,3.846
-6,12,3.847
5,13,3.848
16,14,3.849
22,13,3.85
31,6,3.851
43,2,3.852
44,6,3.853
27,9,3.854
14,3,3.855
13,-13,3.856
14,-23,3.857
8,-17,3.858
3,-10,3.859
1,-11,3.86
-9,-10,3.861
-26,0,3.862
-29,5,3.863
-17,-5,3.864
-14,-15,3.865
-33,-11,3.866
-61,0,3.867
-75,11,3.868
-73,16,3.869
-63,21,3.87
-31,17,3.871
30,11,3.872
96,15,3.873
128,21,3.874
123,9,3.875
110,-19,3.876
113,-36,3.877
106,-21,3.878
70,2,3.879
21,8,3.88
-7,0,3.881
-10,-3,3.882
-14,-3,3.883
-32,-2,3.884
-50,-2,3.885
-55,4,3.886
-45,10,3.887
-28,11,3.888
-13,5,3.889
-4,-1,3.89
-6,-6,3.891
-16,-10,3.892
-21,-7,3.893
-25,1,3.894
-29,10,3.895
-33,13,3.896
-33,-7,3.897
-28,-22,3.898
-11,-23,3.899
3,-22,3.9
10,-12,3.901
15,-5,3.902
13,-9,3.903
10,-10,3.904
6,0,3.905
2,6,3.906
1,3,3.907
1,1,3.908
6,3,3.909
9,6,3.91
2,9,3.911
-5,12,3.912
-11,16,3.913
-18,19,3.914
-22,16,3.915
-24,9,3.916
-21,3,3.917
-6,0,3.918
21,-5,3.919
46,-14,3.92
49,-18,3.921
32,-13,3.922
15,-5,3.923
9,0,3.924
8,3,3.925
1,5,3.926
-2,2,3.927
10,0,3.928
33,-1,3.929
47,-3,3.93
46,-11,3.931
36,-19,3.932
27,-19,3.933
22,-17,3.934
18,-20,3.935
10,-23,3.936
-3,-13,3.937
-17,12,3.938
-19,28,3.939
-14,25,3.94
-13,19,3.941
-21,21,3.942
-25,21,3.943
-21,14,3.944
-16,10,3.945
-16,11,3.946
-16,9,3.947
-10,1,3.948
-1,-1,3.949
3,1,3.95
6,2,3.951
10,-1,3.952
14,-7,3.953
13,-17,3.954
13,-27,3.955
10,-29,3.956
0,-21,3.957
-7,-5,3.958
-4,4,3.959
2,9,3.96
0,13,3.961
-5,14,3.962
-2,8,3.963
5,0,3.964
3,0,3.965
-6,3,3.966
-9,5,3.967
-6,6,3.968
-7,11,3.969
-13,15,3.97
-12,10,3.971
-6,0,3.972
0,-3,3.973
7,0,3.974
17,3,3.975
23,-7,3.976
22,-36,3.977
21,-57,3.978
25,-49,3.979
26,-12,3.98
16,22,3.981
3,29,3.982
1,15,3.983
1,5,3.984
-8,6,3.985
-19,7,3.986
-18,5,3.987
-8,4,3.988
-5,6,3.989
-10,8,3.99
-14,7,3.991
-14,3,3.992
-8,0,3.993
0,-3,3.994
14,-3,3.995
25,-7,3.996
26,-18,3.997
28,-24,3.998
32,-21,3.999
35,-11,4.0
35,-3,4.001
31,0,4.002
17,1,4.003
5,0,4.004
3,-4,4.005
1,-5,4.006
-3,-2,4.007
-7,4,4.008
-6,7,4.009
-5,6,4.01
-5,9,4.011
-7,29,4.012
-11,70,4.013
-14,123,4.014
-17,139,4.015
-21,64,4.016
-26,-76,4.017
-26,-175,4.018
-18,-167,4.019
-9,-96,4.02
-8,-41,4.021
-11,-15,4.022
-4,10,4.023
15,33,4.024
30,24,4.025
26,2,4.026
10,1,4.027
0,10,4.028
3,9,4.029
14,4,4.03
18,13,4.031
18,19,4.032
18,9,4.033
14,7,4.034
4,53,4.035
-8,120,4.036
-17,128,4.037
-19,70,4.038
-16,15,4.039
-12,16,4.04
-12,22,4.041
-14,-48,4.042
-8,-173,4.043
7,-243,4.044
20,-199,4.045
18,-112,4.046
3,-63,4.047
-12,-39,4.048
-18,5,4.049
-18,58,4.05
-16,76,4.051
-6,67,4.052
13,68,4.053
37,72,4.054
57,57,4.055
58,46,4.056
43,114,4.057
23,293,4.058
10,496,4.059
1,532,4.06
-8,270,4.061
-18,-189,4.062
-16,-535,4.063
-2,-563,4.064
12,-388,4.065
16,-260,4.066
13,-228,4.067
6,-172,4.068
-1,-64,4.069
-8,-10,4.07
-12,-22,4.071
-11,13,4.072
-4,152,4.073
0,354,4.074
0,523,4.075
0,544,4.076
-4,313,4.077
-7,-84,4.078
-5,-350,4.079
-4,-310,4.08
-7,-151,4.081
-10,-114,4.082
-10,-141,4.083
-9,-70,4.084
-8,20,4.085
-14,-22,4.086
-42,-138,4.087
-58,-186,4.088
-34,-198,4.089
-7,-214,4.09
26,-112,4.091
51,142,4.092
48,338,4.093
51,322,4.094
83,213,4.095
118,155,4.096
126,60,4.097
93,-151,4.098
30,-303,4.099
-38,-223,4.1
-81,-46,4.101
-82,10,4.102
-50,-12,4.103
-16,30,4.104
-6,111,4.105
-13,111,4.106
-16,65,4.107
-8,77,4.108
1,109,4.109
7,53,4.11
8,-61,4.111
7,-106,4.112
3,-53,4.113
-9,-84,4.114
-22,-62,4.115
-30,-37,4.116
-29,-8,4.117
-17,8,4.118
6,-17,4.119
26,-27,4.12
30,13,4.121
19,65,4.122
10,147,4.123
9,210,4.124
9,215,4.125
4,192,4.126
-5,87,4.127
-11,-17,4.128
-10,-115,4.129
-3,-216,4.13
4,-322,4.131
8,-357,4.132
6,-176,4.133
12,-81,4.134
10,-60,4.135
6,-36,4.136
-7,-9,4.137
-14,6,4.138
-4,-18,4.139
2,-27,4.14
-16,11,4.141
-32,60,4.142
-34,137,4.143
-34,197,4.144
-26,201,4.145
-16,180,4.146
-6,80,4.147
2,-18,4.148
6,-110,4.149
6,-205,4.15
-4,-305,4.151
-10,-337,4.152
-6,-167,4.153
3,-77,4.154
2,-58,4.155
0,-36,4.156
-7,-10,4.157
-11,4,4.158
-5,-18,4.159
-2,-27,4.16
-12,9,4.161
-20,54,4.162
-21,126,4.163
-21,181,4.164
-17,185,4.165
-12,165,4.166
-6,73,4.167
-2,-18,4.168
0,-104,4.169
0,-192,4.17
-5,-285,4.171
-9,-315,4.172
-6,-157,4.173
0,6,4.174
8,110,4.175
12,44,4.176
9,-92,4.177
10,-136,4.178
19,-45,4.179
32,71,4.18
34,104,4.181
25,88,4.182
21,121,4.183
21,197,4.184
16,204,4.185
3,87,4.186
-4,-64,4.187
-2,-134,4.188
0,-114,4.189
-4,-67,4.19
-10,-19,4.191
-11,44,4.192
-9,114,4.193
-8,147,4.194
-8,98,4.195
-10,-32,4.196
-15,-180,4.197
-16,-223,4.198
-2,-78,4.199
17,183,4.2
26,324,4.201
24,196,4.202
23,-61,4.203
26,-194,4.204
25,-195,4.205
17,-257,4.206
13,-382,4.207
17,-339,4.208
17,-81,4.209
10,129,4.21
7,120,4.211
8,60,4.212
7,105,4.213
0,179,4.214
-5,174,4.215
-9,173,4.216
-8,239,4.217
-4,241,4.218
5,86,4.219
12,-74,4.22
8,-112,4.221
4,-125,4.222
2,-209,4.223
0,-257,4.224
-5,-180,4.225
-10,-85,4.226
-14,-75,4.227
-17,-71,4.228
-19,12,4.229
-19,97,4.23
-12,101,4.231
-5,70,4.232
1,77,4.233
4,87,4.234
-5,68,4.235
-15,78,4.236
-18,182,4.237
-16,332,4.238
-3,367,4.239
13,176,4.24
16,-172,4.241
4,-442,4.242
-3,-435,4.243
2,-221,4.244
11,-40,4.245
10,-2,4.246
5,1,4.247
4,67,4.248
8,142,4.249
11,174,4.25
17,168,4.251
24,99,4.252
23,-46,4.253
16,-167,4.254
11,-105,4.255
5,75,4.256
-3,126,4.257
-14,26,4.258
-16,-20,4.259
-11,41,4.26
-9,35,4.261
-12,-93,4.262
-9,-170,4.263
3,-101,4.264
15,-10,4.265
16,29,4.266
12,98,4.267
15,202,4.268
20,201,4.269
21,52,4.27
20,-90,4.271
22,-121,4.272
24,-124,4.273
19,-202,4.274
6,-283,4.275
-6,-257,4.276
-14,-159,4.277
-17,-89,4.278
-14,-64,4.279
-9,-21,4.28
-4,75,4.281
-2,214,4.282
1,366,4.283
4,440,4.284
3,318,4.285
-1,23,4.286
-5,-250,4.287
-7,-345,4.288
-11,-304,4.289
-13,-227,4.29
-11,-114,4.291
-5,34,4.292
-1,122,4.293
-3,87,4.294
-6,18,4.295
-8,27,4.296
-9,83,4.297
-12,106,4.298
-7,99,4.299
8,91,4.3
17,55,4.301
15,-10,4.302
10,-30,4.303
15,19,4.304
20,58,4.305
13,59,4.306
2,108,4.307
4,223,4.308
12,245,4.309
13,57,4.31
7,-215,4.311
8,-345,4.312
16,-290,4.313
17,-174,4.314
9,-101,4.315
0,-54,4.316
-4,8,4.317
-4,80,4.318
-3,139,4.319
-1,174,4.32
-1,157,4.321
-3,93,4.322
-4,69,4.323
-1,143,4.324
-1,202,4.325
-6,82,4.326
-11,-156,4.327
-8,-272,4.328
-2,-190,4.329
-1,-91,4.33
-2,-111,4.331
2,-162,4.332
15,-146,4.333
21,-104,4.334
20,-96,4.335
14,-71,4.336
11,6,4.337
14,71,4.338
20,66,4.339
23,53,4.34
19,77,4.341
9,92,4.342
1,65,4.343
-3,45,4.344
-8,64,4.345
-13,73,4.346
-15,43,4.347
-15,13,4.348
-18,16,4.349
-23,31,4.35
-20,34,4.351
-6,16,4.352
8,-40,4.353
12,-111,4.354
7,-113,4.355
-2,-90,4.356
-7,14,4.357
-10,84,4.358
-8,54,4.359
-1,34,4.36
3,45,4.361
0,46,4.362
-6,12,4.363
-7,-10,4.364
0,0,4.365
11,5,4.366
19,-8,4.367
24,-15,4.368
26,2,4.369
22,14,4.37
14,10,4.371
6,7,4.372
6,13,4.373
10,15,4.374
13,-4,4.375
3,-37,4.376
-9,-70,4.377
-15,-56,4.378
-9,60,4.379
-4,266,4.38
-2,394,4.381
-5,248,4.382
-2,-119,4.383
6,-368,4.384
13,-270,4.385
12,-39,4.386
5,-40,4.387
0,-224,4.388
1,-216,4.389
0,59,4.39
-1,232,4.391
0,82,4.392
5,-132,4.393
13,-141,4.394
13,-42,4.395
6,-34,4.396
5,-58,4.397
14,-4,4.398
25,57,4.399
30,61,4.4
27,75,4.401
15,129,4.402
2,132,4.403
-2,60,4.404
0,22,4.405
-1,51,4.406
-11,44,4.407
-18,-32,4.408
-13,-79,4.409
-1,-56,4.41
5,-44,4.411
4,-77,4.412
0,-86,4.413
-9,-38,4.414
-18,21,4.415
-25,53,4.416
-25,56,4.417
-22,8,4.418
-15,-102,4.419
-3,-185,4.42
10,-145,4.421
15,-34,4.422
10,18,4.423
3,4,4.424
-2,9,4.425
-5,41,4.426
-6,38,4.427
-3,13,4.428
3,35,4.429
7,83,4.43
11,87,4.431
13,48,4.432
13,34,4.433
5,54,4.434
0,65,4.435
3,50,4.436
6,35,4.437
6,29,4.438
8,8,4.439
12,-16,4.44
11,-10,4.441
4,39,4.442
-3,116,4.443
-5,194,4.444
-7,189,4.445
-9,1,4.446
-6,-306,4.447
0,-471,4.448
1,-328,4.449
-2,-45,4.45
-5,89,4.451
0,71,4.452
5,114,4.453
5,273,4.454
0,328,4.455
-3,128,4.456
-2,-139,4.457
6,-193,4.458
23,-31,4.459
40,122,4.46
44,121,4.461
35,29,4.462
22,-17,4.463
17,29,4.464
12,102,4.465
1,79,4.466
-7,-80,4.467
-9,-267,4.468
-5,-307,4.469
-3,-179,4.47
-3,-50,4.471
0,-47,4.472
4,-96,4.473
7,-89,4.474
7,-18,4.475
4,41,4.476
0,82,4.477
-1,130,4.478
1,141,4.479
1,70,4.48
-5,-28,4.481
-13,-69,4.482
-13,-58,4.483
-11,-49,4.484
-13,-44,4.485
-15,-31,4.486
-9,-30,4.487
-2,-49,4.488
2,-49,4.489
5,-15,4.49
9,16,4.491
8,28,4.492
2,55,4.493
-1,102,4.494
5,106,4.495
9,48,4.496
0,0,4.497
-10,17,4.498
-5,53,4.499
7,47,4.5
10,31,4.501
2,54,4.502
-1,106,4.503
1,138,4.504
0,105,4.505
-6,-9,4.506
-4,-164,4.507
2,-242,4.508
9,-173,4.509
11,-46,4.51
12,1,4.511
13,-18,4.512
12,-7,4.513
6,4,4.514
1,-69,4.515
-4,-120,4.516
-8,-104,4.517
-9,-53,4.518
0,104,4.519
7,213,4.52
6,173,4.521
4,134,4.522
-1,99,4.523
-2,56,4.524
7,-8,4.525
15,-40,4.526
16,29,4.527
16,76,4.528
9,52,4.529
4,15,4.53
5,-58,4.531
6,-106,4.532
7,-70,4.533
6,-28,4.534
4,17,4.535
-2,38,4.536
-9,52,4.537
-14,60,4.538
-5,30,4.539
10,-28,4.54
16,-71,4.541
6,-79,4.542
-2,-80,4.543
0,-95,4.544
2,-117,4.545
-2,-125,4.546
-4,-99,4.547
-1,-32,4.548
-3,54,4.549
-11,100,4.55
-14,79,4.551
0,37,4.552
18,29,4.553
25,44,4.554
26,42,4.555
18,31,4.556
9,29,4.557
-1,29,4.558
-1,5,4.559
7,-29,4.56
13,-46,4.561
8,-44,4.562
-1,-47,4.563
-10,-67,4.564
-17,-92,4.565
-18,-105,4.566
-10,-85,4.567
0,-26,4.568
2,44,4.569
0,90,4.57
0,114,4.571
2,131,4.572
1,113,4.573
-2,20,4.574
-2,-100,4.575
-6,-136,4.576
-13,-61,4.577
-14,23,4.578
-7,26,4.579
0,-5,4.58
-1,6,4.581
-1,30,4.582
9,0,4.583
24,-36,4.584
30,20,4.585
26,131,4.586
23,161,4.587
22,67,4.588
18,-48,4.589
9,-109,4.59
3,-136,4.591
4,-139,4.592
5,-74,4.593
0,65,4.594
-5,166,4.595
-11,136,4.596
-17,26,4.597
-18,-43,4.598
-8,-41,4.599
7,-5,4.6
13,22,4.601
6,13,4.602
1,-37,4.603
8,-65,4.604
15,18,4.605
11,174,4.606
2,246,4.607
-1,159,4.608
2,29,4.609
2,-14,4.61
-1,0,4.611
-2,-23,4.612
1,-78,4.613
4,-99,4.614
4,-74,4.615
-2,-70,4.616
-6,-104,4.617
-6,-113,4.618
0,-72,4.619
6,-31,4.62
8,-27,4.621
6,-31,4.622
6,-11,4.623
10,20,4.624
18,31,4.625
22,27,4.626
24,25,4.627
22,21,4.628
21,7,4.629
21,-8,4.63
20,-11,4.631
8,-9,4.632
-8,-11,4.633
-22,-24,4.634
-24,-34,4.635
-29,-43,4.636
-36,-53,4.637
-32,-53,4.638
-15,-37,4.639
0,-11,4.64
2,10,4.641
1,20,4.642
9,23,4.643
16,21,4.644
13,21,4.645
11,24,4.646
15,23,4.647
19,12,4.648
11,-4,4.649
-5,-11,4.65
-11,-7,4.651
-11,-2,4.652
-9,-3,4.653
-12,2,4.654
-9,28,4.655
-5,51,4.656
-2,64,4.657
2,71,4.658
8,53,4.659
13,39,4.66
13,37,4.661
12,29,4.662
8,5,4.663
5,-28,4.664
3,-88,4.665
3,-128,4.666
7,-109,4.667
10,-79,4.668
7,-17,4.669
4,36,4.67
0,61,4.671
-3,81,4.672
-3,86,4.673
-3,88,4.674
-5,66,4.675
-5,18,4.676
-3,-29,4.677
-3,-37,4.678
2,0,4.679
16,54,4.68
30,86,4.681
32,73,4.682
25,21,4.683
19,-44,4.684
15,-95,4.685
12,-115,4.686
8,-108,4.687
5,-117,4.688
0,-170,4.689
-6,-203,4.69
-9,-104,4.691
-4,110,4.692
0,261,4.693
-9,243,4.694
-20,144,4.695
-22,108,4.696
-17,112,4.697
-15,72,4.698
-12,14,4.699
-1,16,4.7
12,52,4.701
12,43,4.702
1,-1,4.703
0,-40,4.704
12,-110,4.705
23,-233,4.706
23,-296,4.707
15,-192,4.708
4,-7,4.709
-6,78,4.71
-15,39,4.711
-18,1,4.712
-14,26,4.713
-6,46,4.714
3,15,4.715
10,-23,4.716
8,-14,4.717
6,39,4.718
11,84,4.719
21,96,4.72
22,75,4.721
9,28,4.722
-6,-20,4.723
-10,-42,4.724
-5,-33,4.725
2,-21,4.726
6,-22,4.727
4,-49,4.728
0,-108,4.729
-3,-180,4.73
3,-197,4.731
16,-102,4.732
22,57,4.733
15,175,4.734
2,175,4.735
-8,110,4.736
-17,72,4.737
-21,75,4.738
-13,56,4.739
5,13,4.74
13,-5,4.741
0,8,4.742
-21,7,4.743
-22,-12,4.744
-3,-17,4.745
21,1,4.746
29,6,4.747
24,-14,4.748
21,-37,4.749
24,-69,4.75
29,-131,4.751
25,-188,4.752
16,-168,4.753
2,-59,4.754
-9,56,4.755
-17,102,4.756
-23,82,4.757
-22,41,4.758
-17,-7,4.759
-15,-25,4.76
-13,50,4.761
-3,198,4.762
12,268,4.763
18,171,4.764
11,17,4.765
7,-35,4.766
14,0,4.767
20,4,4.768
9,-43,4.769
-9,-63,4.77
-19,-52,4.771
-18,-75,4.772
-17,-121,4.773
-19,-64,4.774
-17,-48,4.775
-8,-40,4.776
0,-60,4.777
14,-77,4.778
31,-82,4.779
43,-73,4.78
38,-14,4.781
24,41,4.782
17,89,4.783
8,126,4.784
-16,124,4.785
-44,120,4.786
-49,113,4.787
-37,98,4.788
-38,62,4.789
-57,2,4.79
-63,-134,4.791
-36,-215,4.792
4,-127,4.793
38,-56,4.794
59,-42,4.795
74,-35,4.796
72,-52,4.797
71,-67,4.798
72,-71,4.799
68,-63,4.8
45,-13,4.801
24,34,4.802
8,75,4.803
-5,106,4.804
-12,104,4.805
-17,101,4.806
-12,95,4.807
-8,82,4.808
-6,52,4.809
-6,1,4.81
-10,-115,4.811
-13,-184,4.812
-13,-109,4.813
-12,2,4.814
-18,181,4.815
-30,209,4.816
-41,105,4.817
-40,23,4.818
-25,24,4.819
-8,28,4.82
-1,-17,4.821
0,-82,4.822
1,-152,4.823
6,-250,4.824
10,-300,4.825
10,-151,4.826
3,179,4.827
-4,427,4.828
-4,383,4.829
1,152,4.83
6,-5,4.831
9,-13,4.832
15,8,4.833
23,-30,4.834
21,-87,4.835
4,-130,4.836
-10,-211,4.837
-10,-332,4.838
-1,-367,4.839
3,-206,4.84
-2,66,4.841
-8,232,4.842
-11,179,4.843
-12,0,4.844
-15,-120,4.845
-16,-69,4.846
-17,122,4.847
-20,312,4.848
-28,352,4.849
-35,230,4.85
-22,83,4.851
12,36,4.852
44,55,4.853
52,36,4.854
47,-26,4.855
51,-58,4.856
73,-48,4.857
89,-44,4.858
84,-58,4.859
65,-51,4.86
41,-25,4.861
20,-25,4.862
1,-52,4.863
-8,-64,4.864
-11,-52,4.865
-16,-48,4.866
-25,-57,4.867
-26,-54,4.868
-15,-45,4.869
-1,-45,4.87
-3,-47,4.871
-13,-35,4.872
-20,-21,4.873
-22,-26,4.874
-27,-42,4.875
-40,-45,4.876
-51,-26,4.877
-53,-2,4.878
-46,13,4.879
-40,15,4.88
-42,13,4.881
-41,15,4.882
-24,28,4.883
10,37,4.884
40,32,4.885
49,18,4.886
44,13,4.887
35,16,4.888
31,18,4.889
36,11,4.89
44,5,4.891
35,1,4.892
9,-1,4.893
-19,-4,4.894
-13,0,4.895
19,4,4.896
40,-4,4.897
29,-27,4.898
15,-69,4.899
21,-128,4.9
46,-181,4.901
62,-179,4.902
52,-99,4.903
18,26,4.904
-15,135,4.905
-27,188,4.906
-23,191,4.907
-20,168,4.908
-24,139,4.909
-26,115,4.91
-21,97,4.911
-22,91,4.912
-25,92,4.913
-23,87,4.914
-13,62,4.915
-9,14,4.916
-14,-32,4.917
-12,-50,4.918
-2,-46,4.919
3,-46,4.92
1,-53,4.921
8,-55,4.922
23,-50,4.923
34,-51,4.924
35,-64,4.925
29,-81,4.926
15,-103,4.927
-3,-124,4.928
-12,-119,4.929
-9,-68,4.93
-6,-1,4.931
-15,28,4.932
-19,17,4.933
-12,3,4.934
-5,14,4.935
-8,28,4.936
-16,19,4.937
-15,12,4.938
-8,30,4.939
-6,57,4.94
-7,67,4.941
-8,58,4.942
-7,41,4.943
-5,24,4.944
2,9,4.945
17,3,4.946
26,3,4.947
21,-8,4.948
10,-49,4.949
10,-121,4.95
22,-209,4.951
30,-255,4.952
25,-183,4.953
17,43,4.954
18,295,4.955
20,371,4.956
11,224,4.957
-4,34,4.958
-8,-29,4.959
-4,12,4.96
-13,36,4.961
-32,7,4.962
-29,-8,4.963
6,14,4.964
40,32,4.965
42,22,4.966
22,4,4.967
16,-7,4.968
31,-18,4.969
44,-21,4.97
38,-7,4.971
21,7,4.972
11,8,4.973
10,1,4.974
12,5,4.975
2,4,4.976
-16,-13,4.977
-28,-30,4.978
-25,-43,4.979
-10,-55,4.98
-2,-64,4.981
-7,-68,4.982
-17,-54,4.983
-23,-20,4.984
-23,72,4.985
-18,135,4.986
-6,105,4.987
4,71,4.988
2,25,4.989
-9,-7,4.99
-16,0,4.991
-15,1,4.992
-14,-12,4.993
-20,-19,4.994
-25,-1,4.995
-20,0,4.996
-7,-12,4.997
4,-12,4.998
7,-6,4.999
12,-6,5.0
23,-7,5.001
34,-9,5.002
41,-14,5.003
41,-23,5.004
35,-22,5.005
25,-12,5.006
15,-13,5.007
10,-20,5.008
6,-14,5.009
3,3,5.01
-6,10,5.011
-14,0,5.012
-18,-12,5.013
-19,-21,5.014
-16,-33,5.015
-10,-47,5.016
-5,-50,5.017
-3,-36,5.018
-5,-22,5.019
-3,-21,5.02
-1,-29,5.021
-2,-39,5.022
-6,-53,5.023
-12,-72,5.024
-16,-87,5.025
-18,-86,5.026
-17,-55,5.027
-11,3,5.028
-1,59,5.029
4,83,5.03
11,77,5.031
19,72,5.032
27,80,5.033
22,81,5.034
13,63,5.035
10,38,5.036
15,2,5.037
18,-41,5.038
14,-82,5.039
12,-86,5.04
19,-50,5.041
23,-12,5.042
19,-5,5.043
12,-15,5.044
14,-26,5.045
19,-47,5.046
11,-76,5.047
-7,-83,5.048
-21,-42,5.049
-21,12,5.05
-13,33,5.051
-7,17,5.052
-6,-14,5.053
-8,-48,5.054
-4,-59,5.055
-2,-36,5.056
-8,90,5.057
-18,175,5.058
-20,129,5.059
-12,92,5.06
-5,82,5.061
-7,78,5.062
-5,91,5.063
7,83,5.064
17,10,5.065
11,-39,5.066
-1,-17,5.067
-6,-9,5.068
-6,-44,5.069
-11,-70,5.07
-18,-66,5.071
-20,-59,5.072
-21,-47,5.073
-28,-34,5.074
-28,-32,5.075
-5,-46,5.076
37,-43,5.077
65,-9,5.078
68,16,5.079
59,12,5.08
46,6,5.081
22,17,5.082
-8,23,5.083
-22,7,5.084
-16,-6,5.085
-7,-5,5.086
-8,-2,5.087
1,-6,5.088
23,-2,5.089
37,7,5.09
29,3,5.091
17,-10,5.092
20,-11,5.093
22,-2,5.094
11,3,5.095
-10,0,5.096
-20,2,5.097
-17,10,5.098
-8,9,5.099
2,2,5.1
9,9,5.101
3,24,5.102
-13,27,5.103
-25,17,5.104
-29,14,5.105
-25,16,5.106
-23,11,5.107
-18,6,5.108
-11,12,5.109
-5,22,5.11
6,18,5.111
22,3,5.112
36,-4,5.113
33,-2,5.114
21,-1,5.115
9,-4,5.116
3,-4,5.117
-2,-1,5.118
-3,-5,5.119
8,-14,5.12
18,-18,5.121
8,-10,5.122
-8,-1,5.123
-7,3,5.124
6,1,5.125
13,-3,5.126
10,-6,5.127
5,-9,5.128
0,-6,5.129
-12,0,5.13
-18,4,5.131
-8,3,5.132
11,3,5.133
18,8,5.134
11,16,5.135
-1,24,5.136
-6,27,5.137
-4,29,5.138
-2,25,5.139
-2,22,5.14
-3,22,5.141
-4,21,5.142
1,18,5.143
11,16,5.144
14,16,5.145
8,15,5.146
3,10,5.147
3,4,5.148
3,1,5.149
-3,-3,5.15
-8,-5,5.151
-7,-9,5.152
-3,-16,5.153
-1,0,5.154
-2,24,5.155
-5,43,5.156
-9,50,5.157
-10,54,5.158
-3,46,5.159
1,39,5.16
0,38,5.161
0,35,5.162
6,29,5.163
13,24,5.164
18,24,5.165
23,21,5.166
27,6,5.167
27,-8,5.168
13,-17,5.169
2,-25,5.17
0,-32,5.171
-1,-42,5.172
-1,-58,5.173
-1,-68,5.174
1,-60,5.175
7,-55,5.176
6,-56,5.177
-1,-43,5.178
-2,-23,5.179
7,-8,5.18
14,-5,5.181
8,1,5.182
3,13,5.183
8,23,5.184
13,22,5.185
11,14,5.186
5,13,5.187
8,16,5.188
12,20,5.189
6,19,5.19
-3,14,5.191
-3,8,5.192
5,5,5.193
9,3,5.194
0,-3,5.195
-10,-16,5.196
-14,-26,5.197
-8,-21,5.198
1,-10,5.199
8,-5,5.2
7,-8,5.201
-2,-6,5.202
-10,-2,5.203
-10,-3,5.204
-8,-7,5.205
-8,-7,5.206
-10,-1,5.207
-8,5,5.208
-5,7,5.209
-3,5,5.21
0,3,5.211
8,2,5.212
17,5,5.213
18,6,5.214
13,6,5.215
3,2,5.216
-6,0,5.217
-13,4,5.218
-13,9,5.219
-10,12,5.22
-6,11,5.221
-2,10,5.222
9,6,5.223
19,1,5.224
19,-2,5.225
9,0,5.226
4,1,5.227
11,0,5.228
14,-2,5.229
6,-4,5.23
-2,-7,5.231
3,-13,5.232
16,-14,5.233
15,-12,5.234
5,-11,5.235
-3,-11,5.236
-5,-11,5.237
-7,-3,5.238
-3,4,5.239
1,11,5.24
0,15,5.241
-2,14,5.242
-2,11,5.243
0,8,5.244
3,11,5.245
6,12,5.246
7,3,5.247
8,-8,5.248
4,-11,5.249
0,-9,5.25
-1,-8,5.251
-2,-10,5.252
6,-11,5.253
14,-10,5.254
15,-8,5.255
6,-4,5.256
-2,1,5.257
0,6,5.258
12,6,5.259
22,6,5.26
18,4,5.261
2,3,5.262
-6,3,5.263
-4,0,5.264
0,-8,5.265
-1,-14,5.266
-6,-14,5.267
-10,-15,5.268
-13,-17,5.269
-13,-17,5.27
-10,-6,5.271
-4,3,5.272
2,7,5.273
6,8,5.274
4,4,5.275
1,7,5.276
-2,10,5.277
-1,15,5.278
6,24,5.279
12,37,5.28
14,47,5.281
9,46,5.282
2,39,5.283
0,29,5.284
-1,17,5.285
-1,2,5.286
0,-7,5.287
0,-3,5.288
0,0,5.289
0,-10,5.29
-2,-34,5.291
0,-50,5.292
10,-45,5.293
21,-25,5.294
21,-14,5.295
16,-10,5.296
-1,-10,5.297
-12,-9,5.298
-4,-10,5.299
3,-9,5.3
2,-7,5.301
2,-1,5.302
6,4,5.303
8,5,5.304
2,8,5.305
-3,10,5.306
-5,8,5.307
-7,2,5.308
-9,-1,5.309
-11,-1,5.31
-11,-2,5.311
-8,-7,5.312
-1,-10,5.313
8,-10,5.314
14,-9,5.315
7,-10,5.316
-2,-13,5.317
-4,-11,5.318
1,-7,5.319
9,-5,5.32
9,-3,5.321
6,1,5.322
4,3,5.323
1,5,5.324
-3,6,5.325
-11,7,5.326
-12,5,5.327
-7,0,5.328
9,-2,5.329
25,-1,5.33
33,-2,5.331
34,-3,5.332
32,-1,5.333
29,5,5.334
22,15,5.335
9,29,5.336
-5,35,5.337
-12,24,5.338
-10,-11,5.339
-7,-45,5.34
-6,-47,5.341
-7,-22,5.342
-9,-2,5.343
-8,5,5.344
0,10,5.345
12,20,5.346
15,19,5.347
7,7,5.348
-2,0,5.349
-2,2,5.35
0,3,5.351
-3,0,5.352
-9,3,5.353
-12,6,5.354
-4,0,5.355
0,-10,5.356
-2,-15,5.357
-2,-9,5.358
9,-5,5.359
21,-4,5.36
20,-1,5.361
5,7,5.362
-7,13,5.363
-6,12,5.364
-2,10,5.365
-3,7,5.366
-7,0,5.367
-7,-1,5.368
-4,4,5.369
0,8,5.37
4,6,5.371
3,0,5.372
0,0,5.373
-3,0,5.374
0,-4,5.375
2,-12,5.376
2,-18,5.377
2,-13,5.378
8,-8,5.379
15,-4,5.38
15,-2,5.381
10,-1,5.382
5,2,5.383
6,4,5.384
8,4,5.385
9,0,5.386
7,-6,5.387
6,-9,5.388
2,-8,5.389
-1,-8,5.39
-2,-7,5.391
0,-9,5.392
4,-10,5.393
5,-12,5.394
3,-15,5.395
-3,-13,5.396
-11,4,5.397
-11,56,5.398
-2,114,5.399
7,116,5.4
8,21,5.401
1,-117,5.402
-3,-187,5.403
-4,-138,5.404
-4,-37,5.405
-5,25,5.406
-1,34,5.407
2,30,5.408
3,37,5.409
3,44,5.41
7,47,5.411
14,50,5.412
20,50,5.413
19,38,5.414
12,32,5.415
3,27,5.416
-9,28,5.417
-16,25,5.418
-8,9,5.419
0,-3,5.42
10,-5,5.421
19,-9,5.422
17,-15,5.423
16,-20,5.424
15,-19,5.425
12,-18,5.426
6,-19,5.427
1,-20,5.428
0,-20,5.429
-3,-20,5.43
-2,-21,5.431
0,-22,5.432
3,-17,5.433
6,-13,5.434
3,-14,5.435
-2,-10,5.436
-5,-8,5.437
-6,-5,5.438
0,-2,5.439
4,2,5.44
2,5,5.441
-3,5,5.442
-5,2,5.443
-5,-2,5.444
-8,-1,5.445
-13,2,5.446
-11,1,5.447
-3,-3,5.448
3,-9,5.449
4,-12,5.45
7,-10,5.451
13,-7,5.452
14,-2,5.453
6,4,5.454
-3,14,5.455
-11,23,5.456
-16,24,5.457
-17,23,5.458
-4,13,5.459
6,5,5.46
9,3,5.461
12,0,5.462
10,-1,5.463
9,-3,5.464
11,-4,5.465
12,-4,5.466
10,-2,5.467
8,-2,5.468
8,-7,5.469
7,-10,5.47
4,-4,5.471
1,2,5.472
0,8,5.473
-1,12,5.474
0,3,5.475
0,0,5.476
0,-5,5.477
-3,-17,5.478
-3,-33,5.479
-3,-33,5.48
-4,-15,5.481
-5,3,5.482
-2,16,5.483
5,34,5.484
11,38,5.485
12,6,5.486
8,-43,5.487
7,-57,5.488
9,-26,5.489
10,-4,5.49
9,-20,5.491
3,-35,5.492
0,-9,5.493
-2,33,5.494
-1,48,5.495
-4,39,5.496
-9,50,5.497
-8,99,5.498
2,130,5.499
13,79,5.5
11,-31,5.501
0,-112,5.502
-3,-100,5.503
0,-30,5.504
6,15,5.505
15,7,5.506
24,-10,5.507
31,-6,5.508
23,3,5.509
9,-2,5.51
3,-9,5.511
10,-4,5.512
16,1,5.513
6,-9,5.514
-7,-16,5.515
-12,-14,5.516
-11,-14,5.517
-10,-20,5.518
-7,-22,5.519
-1,-12,5.52
1,0,5.521
-3,22,5.522
-7,67,5.523
-8,118,5.524
-11,115,5.525
-17,30,5.526
-20,-82,5.527
-12,-133,5.528
-1,-108,5.529
3,-61,5.53
3,-37,5.531
7,-25,5.532
13,-6,5.533
11,8,5.534
4,7,5.535
-4,1,5.536
-8,7,5.537
-7,16,5.538
-2,10,5.539
2,1,5.54
3,12,5.541
2,29,5.542
4,26,5.543
8,9,5.544
12,10,5.545
12,37,5.546
11,72,5.547
12,92,5.548
8,76,5.549
1,10,5.55
-1,-81,5.551
3,-138,5.552
8,-123,5.553
5,-64,5.554
0,-17,5.555
-7,-5,5.556
-11,-8,5.557
-12,-8,5.558
-7,-11,5.559
0,-19,5.56
1,-11,5.561
-2,22,5.562
-2,68,5.563
6,106,5.564
12,123,5.565
7,108,5.566
3,62,5.567
10,-11,5.568
19,-86,5.569
19,-130,5.57
8,-118,5.571
2,-67,5.572
8,-18,5.573
12,1,5.574
8,5,5.575
0,28,5.576
-5,81,5.577
-5,150,5.578
-1,206,5.579
5,223,5.58
7,161,5.581
2,-9,5.582
-1,-239,5.583
4,-385,5.584
12,-338,5.585
15,-156,5.586
11,-11,5.587
5,18,5.588
-3,2,5.589
-10,16,5.59
-13,36,5.591
-7,24,5.592
3,12,5.593
13,29,5.594
15,49,5.595
6,45,5.596
-6,53,5.597
-14,129,5.598
-7,238,5.599
6,263,5.6
11,116,5.601
7,-150,5.602
5,-343,5.603
8,-307,5.604
8,-113,5.605
-1,30,5.606
-9,42,5.607
-9,25,5.608
-6,53,5.609
-6,64,5.61
-8,22,5.611
-7,-8,5.612
-5,16,5.613
-7,38,5.614
-6,21,5.615
-1,8,5.616
6,36,5.617
11,61,5.618
12,36,5.619
12,-9,5.62
10,-38,5.621
5,-57,5.622
-1,-71,5.623
-2,-56,5.624
1,-13,5.625
4,15,5.626
3,14,5.627
-1,8,5.628
1,11,5.629
9,10,5.63
12,15,5.631
10,50,5.632
9,101,5.633
5,117,5.634
3,69,5.635
-3,-13,5.636
-9,-78,5.637
-8,-100,5.638
-1,-90,5.639
7,-73,5.64
6,-54,5.641
1,-32,5.642
0,-10,5.643
2,13,5.644
3,37,5.645
0,58,5.646
0,66,5.647
7,67,5.648
15,80,5.649
18,91,5.65
15,41,5.651
13,-85,5.652
14,-190,5.653
12,-185,5.654
6,-85,5.655
0,-3,5.656
-5,8,5.657
-10,12,5.658
-7,40,5.659
-3,51,5.66
-1,35,5.661
-1,25,5.662
0,32,5.663
5,22,5.664
9,-11,5.665
6,-24,5.666
2,-8,5.667
2,-2,5.668
2,-23,5.669
3,-37,5.67
7,-18,5.671
14,23,5.672
18,60,5.673
10,56,5.674
-1,-13,5.675
-7,-103,5.676
-7,-116,5.677
-5,-26,5.678
-2,67,5.679
2,77,5.68
2,44,5.681
-3,35,5.682
-8,30,5.683
-8,-13,5.684
-6,-59,5.685
-2,-51,5.686
4,-7,5.687
12,23,5.688
17,39,5.689
12,79,5.69
2,143,5.691
-1,204,5.692
3,206,5.693
6,86,5.694
5,-130,5.695
1,-293,5.696
0,-268,5.697
-2,-112,5.698
-2,-5,5.699
-1,-2,5.7
2,-10,5.701
4,18,5.702
0,29,5.703
-4,1,5.704
-7,-6,5.705
-6,21,5.706
-2,31,5.707
6,11,5.708
12,3,5.709
13,19,5.71
12,27,5.711
11,34,5.712
12,87,5.713
7,184,5.714
1,239,5.715
-5,165,5.716
-10,-27,5.717
-13,-208,5.718
-9,-260,5.719
-5,-177,5.72
-5,-76,5.721
-3,-46,5.722
2,-62,5.723
7,-61,5.724
7,-45,5.725
6,-46,5.726
4,-54,5.727
4,-39,5.728
10,-17,5.729
14,-13,5.73
12,-1,5.731
10,48,5.732
12,98,5.733
13,95,5.734
11,50,5.735
3,18,5.736
-3,18,5.737
-6,29,5.738
-1,28,5.739
6,22,5.74
5,13,5.741
-6,-1,5.742
-16,-8,5.743
-16,4,5.744
-11,31,5.745
-10,52,5.746
-9,46,5.747
0,-3,5.748
11,-80,5.749
12,-124,5.75
7,-83,5.751
4,6,5.752
6,57,5.753
5,34,5.754
0,-25,5.755
-2,-67,5.756
-2,-74,5.757
-2,-38,5.758
-2,31,5.759
3,92,5.76
7,108,5.761
6,96,5.762
4,91,5.763
6,91,5.764
8,72,5.765
5,41,5.766
6,31,5.767
13,34,5.768
19,23,5.769
19,1,5.77
15,-4,5.771
11,4,5.772
8,-1,5.773
1,-30,5.774
-3,-55,5.775
-7,-59,5.776
-9,-47,5.777
-11,-18,5.778
-8,18,5.779
0,26,5.78
10,-23,5.781
11,-95,5.782
4,-127,5.783
0,-103,5.784
-3,-71,5.785
-8,-70,5.786
-12,-79,5.787
-10,-68,5.788
-5,-42,5.789
-3,-19,5.79
-3,2,5.791
0,29,5.792
8,49,5.793
8,53,5.794
3,55,5.795
-1,68,5.796
-1,82,5.797
-1,82,5.798
0,64,5.799
1,34,5.8
-1,3,5.801
-4,-19,5.802
-4,-33,5.803
-3,-37,5.804
2,-36,5.805
7,-27,5.806
11,-13,5.807
14,1,5.808
18,9,5.809
20,6,5.81
16,-6,5.811
12,-24,5.812
10,-34,5.813
7,-20,5.814
2,32,5.815
-5,105,5.816
-11,160,5.817
-15,166,5.818
-11,104,5.819
-2,4,5.82
3,-77,5.821
-1,-105,5.822
-4,-103,5.823
-1,-100,5.824
3,-84,5.825
1,-36,5.826
-2,13,5.827
3,29,5.828
9,20,5.829
6,6,5.83
-2,-38,5.831
0,-113,5.832
9,-133,5.833
13,-38,5.834
13,100,5.835
14,145,5.836
14,95,5.837
11,68,5.838
7,100,5.839
6,101,5.84
0,32,5.841
-11,-32,5.842
-19,-37,5.843
-13,-22,5.844
0,-29,5.845
16,-37,5.846
27,-33,5.847
29,-51,5.848
21,-102,5.849
12,-149,5.85
6,-152,5.851
2,-106,5.852
-1,-27,5.853
-4,65,5.854
-5,121,5.855
-7,108,5.856
-8,57,5.857
-6,33,5.858
-1,32,5.859
4,20,5.86
-1,-1,5.861
-8,-4,5.862
-10,1,5.863
-9,-12,5.864
-12,-32,5.865
-14,-27,5.866
-11,-2,5.867
-4,9,5.868
-1,-2,5.869
0,-20,5.87
5,-30,5.871
13,-29,5.872
15,-13,5.873
-7,8,5.874
-10,21,5.875
-13,32,5.876
-13,40,5.877
-9,49,5.878
8,61,5.879
22,66,5.88
24,52,5.881
21,39,5.882
3,25,5.883
-7,8,5.884
-1,-21,5.885
2,-43,5.886
0,-42,5.887
-1,-40,5.888
5,-37,5.889
10,-31,5.89
6,-17,5.891
4,-10,5.892
8,-27,5.893
-9,-51,5.894
-12,-90,5.895
-15,-99,5.896
-15,-62,5.897
-11,9,5.898
9,57,5.899
25,43,5.9
27,-1,5.901
24,-6,5.902
4,43,5.903
-9,94,5.904
-2,99,5.905
2,71,5.906
-1,42,5.907
-2,22,5.908
6,3,5.909
11,-13,5.91
7,-27,5.911
5,-41,5.912
9,-59,5.913
13,-78,5.914
10,-69,5.915
0,-20,5.916
-3,46,5.917
3,85,5.918
12,67,5.919
16,25,5.92
12,11,5.921
2,29,5.922
-7,28,5.923
-15,-13,5.924
-16,-63,5.925
-11,-74,5.926
-2,-32,5.927
4,47,5.928
5,115,5.929
-2,114,5.93
-11,45,5.931
-15,-35,5.932
-8,-82,5.933
3,-117,5.934
11,-144,5.935
13,-122,5.936
14,-47,5.937
14,18,5.938
12,28,5.939
6,17,5.94
-2,35,5.941
-11,50,5.942
-18,28,5.943
-18,1,5.944
-9,10,5.945
-2,28,5.946
0,20,5.947
-1,6,5.948
-2,16,5.949
-2,25,5.95
0,10,5.951
7,-7,5.952
19,-5,5.953
27,3,5.954
22,-4,5.955
12,-13,5.956
5,-12,5.957
4,-6,5.958
6,-8,5.959
9,-5,5.96
7,9,5.961
-3,20,5.962
-18,12,5.963
-25,-8,5.964
-24,-26,5.965
-20,-41,5.966
-14,-47,5.967
-6,-32,5.968
-2,-3,5.969
-3,18,5.97
1,24,5.971
17,28,5.972
34,32,5.973
-1,-31,5.974
5,-91,5.975
14,-121,5.976
17,-53,5.977
18,-11,5.978
5,-53,5.979
-4,-98,5.98
-5,-138,5.981
-7,-181,5.982
-11,-236,5.983
-15,-259,5.984
-14,-178,5.985
-7,-121,5.986
17,-133,5.987
33,-96,5.988
23,91,5.989
13,244,5.99
2,284,5.991
-5,312,5.992
2,307,5.993
0,-28,5.994
5,-52,5.995
11,-64,5.996
13,-37,5.997
14,-20,5.998
5,-37,5.999
-2,-55,6.0
-3,-71,6.001
-4,-88,6.002
-7,-110,6.003
-10,-119,6.004
-9,-87,6.005
-4,-64,6.006
13,-69,6.007
24,-54,6.008
17,21,6.009
10,82,6.01
2,98,6.011
-3,109,6.012
2,107,6.013
7,106,6.014
7,99,6.015
13,75,6.016
9,60,6.017
-3,61,6.018
-5,58,6.019
11,39,6.02
23,10,6.021
10,-21,6.022
-14,-49,6.023
-26,-58,6.024
-25,-45,6.025
-20,-32,6.026
-12,-39,6.027
-5,-50,6.028
-3,-44,6.029
-5,-33,6.03
-6,-36,6.031
-7,-42,6.032
-12,-33,6.033
-15,-23,6.034
-3,-28,6.035
13,-40,6.036
9,-37,6.037
-14,-14,6.038
-29,6,6.039
-24,19,6.04
-8,27,6.041
8,23,6.042
22,5,6.043
32,-9,6.044
25,-7,6.045
8,1,6.046
-4,0,6.047
-4,-4,6.048
-3,-1,6.049
-7,10,6.05
-7,16,6.051
0,15,6.052
10,13,6.053
19,7,6.054
27,0,6.055
27,2,6.056
15,10,6.057
-2,15,6.058
-6,4,6.059
4,-10,6.06
7,-11,6.061
-7,-5,6.062
-25,-6,6.063
-27,-33,6.064
-18,-89,6.065
-10,-141,6.066
-4,-134,6.067
7,-46,6.068
26,54,6.069
42,83,6.07
51,40,6.071
53,-15,6.072
51,-75,6.073
34,-189,6.074
5,-298,6.075
-22,-233,6.076
-28,49,6.077
-15,356,6.078
-2,454,6.079
-1,352,6.08
-5,238,6.081
-1,195,6.082
19,151,6.083
40,60,6.084
44,-16,6.085
28,-24,6.086
10,7,6.087
6,27,6.088
8,-5,6.089
-3,-112,6.09
-20,-252,6.091
-21,-304,6.092
-5,-203,6.093
7,-10,6.094
3,131,6.095
-5,164,6.096
-8,144,6.097
-9,115,6.098
-19,69,6.099
-28,8,6.1
-28,-37,6.101
-23,-61,6.102
-19,-73,6.103
-12,-61,6.104
-3,-23,6.105
7,1,6.106
13,-13,6.107
15,-36,6.108
15,-33,6.109
14,-23,6.11
10,-36,6.111
4,-57,6.112
-1,-55,6.113
-6,-35,6.114
-10,-19,6.115
-13,-12,6.116
-12,-15,6.117
-7,-24,6.118
-2,-35,6.119
0,-41,6.12
-3,-60,6.121
-2,-99,6.122
4,-109,6.123
10,-32,6.124
9,96,6.125
2,159,6.126
0,112,6.127
-1,35,6.128
-4,6,6.129
-11,13,6.13
-8,6,6.131
4,-10,6.132
23,-5,6.133
37,11,6.134
40,17,6.135
34,6,6.136
27,-7,6.137
24,-17,6.138
21,-28,6.139
8,-45,6.14
-14,-53,6.141
-25,-48,6.142
-16,-27,6.143
0,-7,6.144
6,-9,6.145
4,-48,6.146
2,-110,6.147
-3,-159,6.148
-12,-153,6.149
-14,-76,6.15
-2,43,6.151
11,141,6.152
15,175,6.153
16,157,6.154
27,135,6.155
40,136,6.156
38,138,6.157
21,118,6.158
5,79,6.159
1,42,6.16
-2,20,6.161
-8,11,6.162
-14,4,6.163
-19,-11,6.164
-23,-31,6.165
-22,-38,6.166
-9,-34,6.167
0,-34,6.168
-5,-44,6.169
-16,-51,6.17
-13,-47,6.171
2,-44,6.172
15,-47,6.173
13,-54,6.174
4,-58,6.175
-5,-75,6.176
-11,-116,6.177
-9,-147,6.178
-3,-123,6.179
2,-30,6.18
0,82,6.181
0,138,6.182
5,114,6.183
10,58,6.184
8,30,6.185
3,25,6.186
3,2,6.187
5,-45,6.188
7,-86,6.189
15,-111,6.19
23,-136,6.191
23,-134,6.192
10,-57,6.193
-6,96,6.194
-10,222,6.195
-6,226,6.196
-7,141,6.197
-11,78,6.198
-4,72,6.199
11,71,6.2
17,49,6.201
8,40,6.202
0,53,6.203
6,52,6.204
15,19,6.205
10,-13,6.206
-1,-19,6.207
-7,-18,6.208
-6,-27,6.209
-11,-39,6.21
-21,-40,6.211
-23,-38,6.212
-14,-38,6.213
-4,-41,6.214
2,-39,6.215
5,-37,6.216
14,-32,6.217
27,-28,6.218
43,-27,6.219
50,-32,6.22
39,-56,6.221
12,-94,6.222
-10,-172,6.223
-15,-215,6.224
-9,-148,6.225
-7,-39,6.226
-6,197,6.227
4,360,6.228
23,306,6.229
36,242,6.23
38,144,6.231
31,68,6.232
20,57,6.233
4,48,6.234
0,52,6.235
2,60,6.236
2,49,6.237
-10,30,6.238
-24,19,6.239
-32,15,6.24
-31,2,6.241
-22,-14,6.242
-4,-19,6.243
19,-16,6.244
32,-26,6.245
33,-42,6.246
38,-49,6.247
46,-46,6.248
40,-44,6.249
17,-45,6.25
-4,-48,6.251
-9,-52,6.252
-7,-51,6.253
-14,-37,6.254
-22,-10,6.255
-28,6,6.256
-33,-4,6.257
-32,-20,6.258
-23,-19,6.259
-12,-5,6.26
-13,1,6.261
-25,-2,6.262
-29,-8,6.263
-12,-9,6.264
14,-10,6.265
26,-11,6.266
20,-15,6.267
7,-23,6.268
1,-31,6.269
6,-32,6.27
11,-27,6.271
7,-26,6.272
-2,-29,6.273
-6,-41,6.274
-4,-54,6.275
-8,-71,6.276
-18,-96,6.277
-23,-114,6.278
-18,-105,6.279
-11,-58,6.28
-13,7,6.281
-18,52,6.282
-15,55,6.283
-5,33,6.284
-1,16,6.285
-3,14,6.286
-7,7,6.287
-12,-19,6.288
-11,-58,6.289
-8,-87,6.29
3,-81,6.291
22,-34,6.292
41,32,6.293
53,75,6.294
48,80,6.295
26,78,6.296
4,51,6.297
0,25,6.298
8,2,6.299
7,-16,6.3
-10,-20,6.301
-19,-22,6.302
-7,-20,6.303
12,-18,6.304
14,-20,6.305
4,-25,6.306
3,-35,6.307
12,-49,6.308
16,-73,6.309
9,-99,6.31
1,-133,6.311
0,-137,6.312
3,-48,6.313
0,42,6.314
-6,94,6.315
-15,82,6.316
-23,58,6.317
-24,48,6.318
-19,17,6.319
-17,-54,6.32
-20,-115,6.321
-21,-86,6.322
-8,35,6.323
14,155,6.324
20,177,6.325
4,110,6.326
-8,46,6.327
5,41,6.328
35,63,6.329
50,60,6.33
42,36,6.331
27,24,6.332
22,26,6.333
22,22,6.334
17,23,6.335
6,20,6.336
-4,1,6.337
-14,-31,6.338
-21,-104,6.339
-11,-146,6.34
8,-94,6.341
17,-23,6.342
9,102,6.343
1,180,6.344
4,114,6.345
7,56,6.346
-1,22,6.347
-14,-3,6.348
-14,-5,6.349
-4,-7,6.35
7,-8,6.351
15,-8,6.352
17,-1,6.353
13,5,6.354
9,11,6.355
6,16,6.356
3,-5,6.357
-5,-30,6.358
-13,-25,6.359
-9,1,6.36
1,8,6.361
6,-12,6.362
6,-30,6.363
8,-28,6.364
10,-23,6.365
6,-20,6.366
5,-15,6.367
8,-13,6.368
7,-16,6.369
2,-16,6.37
-3,-9,6.371
-3,-5,6.372
-2,-6,6.373
-7,-1,6.374
-11,13,6.375
-11,26,6.376
-12,18,6.377
-14,8,6.378
-8,8,6.379
2,13,6.38
2,13,6.381
-7,9,6.382
-12,9,6.383
-3,6,6.384
7,-2,6.385
7,-5,6.386
6,-2,6.387
12,3,6.388
15,4,6.389
14,3,6.39
17,0,6.391
24,-8,6.392
22,-19,6.393
2,-29,6.394
-26,-27,6.395
-48,-18,6.396
-56,-13,6.397
-48,-8,6.398
-22,-5,6.399
12,-10,6.4
36,-20,6.401
39,-24,6.402
35,-5,6.403
39,32,6.404
48,60,6.405
55,62,6.406
56,49,6.407
54,37,6.408
45,29,6.409
28,17,6.41
13,-2,6.411
10,-19,6.412
11,-35,6.413
3,-62,6.414
-7,-82,6.415
-14,-81,6.416
-17,-12,6.417
-22,44,6.418
-23,63,6.419
-16,71,6.42
-14,45,6.421
-22,27,6.422
-28,35,6.423
-20,40,6.424
-7,31,6.425
-6,25,6.426
-13,30,6.427
-10,30,6.428
0,10,6.429
8,-10,6.43
8,-31,6.431
7,-50,6.432
4,-60,6.433
-1,-60,6.434
-6,-25,6.435
-14,-3,6.436
-19,-9,6.437
-16,-16,6.438
-4,-12,6.439
9,-6,6.44
8,-8,6.441
-2,-9,6.442
-5,-5,6.443
-1,-4,6.444
5,-8,6.445
6,-7,6.446
9,4,6.447
9,15,6.448
0,19,6.449
-7,15,6.45
-7,10,6.451
2,1,6.452
11,-6,6.453
13,-16,6.454
19,-20,6.455
20,-18,6.456
14,-13,6.457
1,-4,6.458
-3,4,6.459
-1,3,6.46
-1,-4,6.461
-2,-13,6.462
4,-11,6.463
16,0,6.464
20,13,6.465
11,16,6.466
1,9,6.467
3,2,6.468
8,5,6.469
6,7,6.47
2,4,6.471
7,-3,6.472
15,-3,6.473
11,-2,6.474
-6,-4,6.475
-23,-9,6.476
-22,-16,6.477
-10,-19,6.478
6,-20,6.479
15,-19,6.48
14,-12,6.481
12,0,6.482
11,10,6.483
11,13,6.484
8,12,6.485
4,13,6.486
-2,15,6.487
-14,13,6.488
-30,8,6.489
-44,6,6.49
-45,3,6.491
-36,-1,6.492
-18,-1,6.493
5,0,6.494
35,2,6.495
57,0,6.496
55,-5,6.497
53,-4,6.498
48,-2,6.499
41,1,6.5
29,4,6.501
17,12,6.502
5,23,6.503
-3,27,6.504
3,13,6.505
8,-16,6.506
6,-45,6.507
2,-50,6.508
-3,-29,6.509
-9,-5,6.51
-11,1,6.511
-14,0,6.512
-18,4,6.513
-20,10,6.514
-17,9,6.515
-18,0,6.516
-23,-11,6.517
-24,-12,6.518
-13,-8,6.519
-1,-2,6.52
1,5,6.521
-3,11,6.522
-4,13,6.523
1,13,6.524
5,16,6.525
1,22,6.526
-4,23,6.527
-7,19,6.528
-7,18,6.529
-5,16,6.53
0,11,6.531
9,7,6.532
19,9,6.533
25,8,6.534
25,-2,6.535
17,-11,6.536
2,-11,6.537
-5,-2,6.538
4,-2,6.539
21,-13,6.54
23,-18,6.541
6,-10,6.542
-7,-6,6.543
-4,-10,6.544
3,-16,6.545
3,-14,6.546
-3,-11,6.547
-3,-10,6.548
0,-10,6.549
-2,-6,6.55
-8,-3,6.551
-10,-4,6.552
-5,-6,6.553
0,-3,6.554
0,2,6.555
-5,3,6.556
-10,-1,6.557
-10,-4,6.558
-2,-5,6.559
9,-5,6.56
14,-7,6.561
9,-7,6.562
8,-5,6.563
15,-4,6.564
19,-4,6.565
14,-2,6.566
8,0,6.567
6,1,6.568
4,3,6.569
-4,3,6.57
-8,0,6.571
-4,-5,6.572
3,-6,6.573
3,-3,6.574
3,0,6.575
1,0,6.576
-1,-1,6.577
-1,3,6.578
7,9,6.579
16,9,6.58
12,8,6.581
-1,10,6.582
-2,9,6.583
9,7,6.584
14,4,6.585
4,3,6.586
-1,-1,6.587
-1,-7,6.588
1,-4,6.589
0,8,6.59
2,13,6.591
6,7,6.592
4,-1,6.593
0,-4,6.594
0,-5,6.595
3,-11,6.596
0,-14,6.597
-8,-2,6.598
-8,13,6.599
-1,13,6.6
2,5,6.601
-1,5,6.602
-2,13,6.603
3,17,6.604
4,15,6.605
1,14,6.606
4,10,6.607
11,1,6.608
10,-9,6.609
4,-9,6.61
5,1,6.611
13,12,6.612
16,20,6.613
9,11,6.614
4,-14,6.615
3,-44,6.616
-2,-55,6.617
-13,-39,6.618
-15,-25,6.619
-2,-26,6.62
7,-32,6.621
1,-28,6.622
-5,-19,6.623
0,-13,6.624
11,-3,6.625
11,16,6.626
5,34,6.627
0,38,6.628
0,33,6.629
-1,27,6.63
0,18,6.631
3,8,6.632
7,2,6.633
1,1,6.634
-2,0,6.635
-2,-4,6.636
-2,-7,6.637
-3,-5,6.638
0,-4,6.639
9,-8,6.64
13,-9,6.641
10,-5,6.642
7,-4,6.643
9,-5,6.644
8,1,6.645
2,18,6.646
-2,39,6.647
-1,43,6.648
-1,29,6.649
-4,5,6.65
-7,-4,6.651
-5,7,6.652
1,11,6.653
5,-28,6.654
6,-87,6.655
2,-104,6.656
-3,-65,6.657
-5,-29,6.658
-1,-40,6.659
5,-57,6.66
8,-30,6.661
6,9,6.662
2,15,6.663
3,7,6.664
8,25,6.665
14,55,6.666
16,57,6.667
9,45,6.668
-1,47,6.669
-2,46,6.67
5,24,6.671
11,11,6.672
11,29,6.673
7,51,6.674
8,37,6.675
5,5,6.676
2,-11,6.677
1,-7,6.678
5,-6,6.679
8,-5,6.68
1,7,6.681
-5,19,6.682
-3,11,6.683
2,-6,6.684
2,-10,6.685
-2,-3,6.686
-4,3,6.687
-2,8,6.688
-2,21,6.689
-5,31,6.69
-5,21,6.691
-3,-9,6.692
-1,-34,6.693
-3,-45,6.694
-6,-43,6.695
-9,-37,6.696
-10,-25,6.697
-6,3,6.698
-1,31,6.699
5,28,6.7
6,-5,6.701
2,-42,6.702
0,-63,6.703
5,-71,6.704
10,-74,6.705
7,-65,6.706
1,-47,6.707
0,-33,6.708
2,-29,6.709
4,-23,6.71
7,-7,6.711
11,7,6.712
13,17,6.713
8,34,6.714
2,55,6.715
-2,51,6.716
-5,18,6.717
-5,-2,6.718
1,21,6.719
12,58,6.72
17,66,6.721
15,47,6.722
13,29,6.723
12,20,6.724
9,7,6.725
3,-5,6.726
3,-9,6.727
7,-11,6.728
7,-17,6.729
0,-21,6.73
-4,-11,6.731
-4,7,6.732
-2,30,6.733
-6,50,6.734
-10,54,6.735
-13,39,6.736
-13,-34,6.737
-12,-89,6.738
-4,-86,6.739
3,-77,6.74
5,-50,6.741
8,-25,6.742
10,-10,6.743
12,11,6.744
10,50,6.745
7,82,6.746
1,93,6.747
-1,75,6.748
8,-34,6.749
14,-105,6.75
12,-61,6.751
10,-18,6.752
11,19,6.753
13,41,6.754
9,16,6.755
1,2,6.756
-2,-20,6.757
-2,-42,6.758
3,-33,6.759
8,11,6.76
4,56,6.761
-1,74,6.762
-2,58,6.763
0,17,6.764
3,-18,6.765
5,-13,6.766
6,39,6.767
4,96,6.768
-2,106,6.769
-11,48,6.77
-14,-54,6.771
-8,-141,6.772
-1,-155,6.773
-3,-107,6.774
-7,-59,6.775
-10,-47,6.776
-9,-41,6.777
-6,-15,6.778
3,3,6.779
13,-10,6.78
13,-23,6.781
4,-13,6.782
-1,-4,6.783
2,-4,6.784
4,13,6.785
-2,53,6.786
-5,79,6.787
-1,89,6.788
3,126,6.789
0,160,6.79
-2,85,6.791
1,-94,6.792
6,-205,6.793
4,-148,6.794
-1,-17,6.795
-5,26,6.796
-6,-17,6.797
-5,-34,6.798
0,-13,6.799
9,-25,6.8
15,-63,6.801
16,-59,6.802
17,-18,6.803
23,3,6.804
23,6,6.805
18,29,6.806
11,53,6.807
9,34,6.808
9,-3,6.809
3,0,6.81
0,38,6.811
4,53,6.812
6,30,6.813
-2,-12,6.814
-13,-32,6.815
-19,0,6.816
-18,93,6.817
-14,212,6.818
-8,254,6.819
0,138,6.82
5,-75,6.821
1,-230,6.822
-2,-231,6.823
2,-141,6.824
10,-70,6.825
12,-35,6.826
9,20,6.827
10,110,6.828
14,164,6.829
16,118,6.83
13,-7,6.831
8,-127,6.832
7,-166,6.833
6,-119,6.834
8,-42,6.835
8,16,6.836
0,19,6.837
-7,21,6.838
-11,19,6.839
-12,13,6.84
-2,0,6.841
5,-9,6.842
3,4,6.843
1,17,6.844
0,26,6.845
-2,33,6.846
0,27,6.847
2,24,6.848
8,28,6.849
13,32,6.85
14,34,6.851
15,36,6.852
15,38,6.853
10,36,6.854
0,3,6.855
-12,-51,6.856
-17,-88,6.857
-17,-75,6.858
-11,-43,6.859
-4,-28,6.86
-1,-31,6.861
1,-28,6.862
0,-25,6.863
1,-30,6.864
2,-35,6.865
1,-29,6.866
1,-17,6.867
4,-5,6.868
8,15,6.869
7,52,6.87
5,99,6.871
3,142,6.872
4,152,6.873
3,77,6.874
0,-46,6.875
-4,-127,6.876
-9,-115,6.877
-10,-45,6.878
-5,2,6.879
1,17,6.88
1,33,6.881
-4,41,6.882
-4,19,6.883
1,-22,6.884
4,-48,6.885
-1,-57,6.886
-7,-72,6.887
-6,-84,6.888
2,-67,6.889
14,-28,6.89
23,5,6.891
23,26,6.892
14,42,6.893
3,51,6.894
5,45,6.895
7,33,6.896
6,24,6.897
2,20,6.898
5,15,6.899
12,11,6.9
8,15,6.901
5,20,6.902
7,16,6.903
9,4,6.904
2,-5,6.905
-9,-4,6.906
-9,10,6.907
-1,34,6.908
3,46,6.909
3,37,6.91
5,20,6.911
13,18,6.912
17,21,6.913
12,10,6.914
6,-9,6.915
0,-22,6.916
-5,-12,6.917
-9,-9,6.918
-7,-27,6.919
-5,-43,6.92
-3,-49,6.921
-2,-54,6.922
-7,-51,6.923
-12,-45,6.924
-12,-29,6.925
-9,-8,6.926
0,23,6.927
9,46,6.928
15,41,6.929
18,34,6.93
9,24,6.931
1,15,6.932
0,8,6.933
-3,-3,6.934
-3,-29,6.935
-5,-49,6.936
-6,-62,6.937
-6,-65,6.938
-3,-58,6.939
2,-35,6.94
8,-5,6.941
8,17,6.942
8,24,6.943
11,24,6.944
14,23,6.945
15,22,6.946
14,20,6.947
17,21,6.948
18,25,6.949
16,23,6.95
9,12,6.951
4,0,6.952
1,-1,6.953
-1,7,6.954
-3,10,6.955
-8,11,6.956
-14,23,6.957
-13,44,6.958
-5,51,6.959
6,31,6.96
10,2,6.961
7,-5,6.962
1,7,6.963
-1,11,6.964
0,-7,6.965
1,-28,6.966
2,-36,6.967
0,-35,6.968
-1,-37,6.969
0,-38,6.97
1,-27,6.971
4,-14,6.972
8,-13,6.973
10,-21,6.974
7,-19,6.975
1,-9,6.976
-2,-9,6.977
-2,-9,6.978
-2,3,6.979
-5,27,6.98
-5,36,6.981
0,22,6.982
4,6,6.983
2,10,6.984
-3,26,6.985
-8,30,6.986
-6,13,6.987
5,-8,6.988
21,-15,6.989
27,-4,6.99
22,9,6.991
9,7,6.992
0,-2,6.993
-4,-2,6.994
-6,15,6.995
-10,25,6.996
-13,9,6.997
-15,-16,6.998
-6,-69,6.999
5,-94,7.0
11,-28,7.001
5,21,7.002
-2,24,7.003
-5,22,7.004
-8,0,7.005
-11,-10,7.006
-8,14,7.007
5,32,7.008
20,26,7.009
26,24,7.01
20,35,7.011
10,43,7.012
7,40,7.013
9,36,7.014
9,27,7.015
5,4,7.016
5,-19,7.017
8,-27,7.018
8,-29,7.019
2,-40,7.02
-2,-57,7.021
-2,-71,7.022
-2,-80,7.023
-7,-73,7.024
-13,-45,7.025
-11,-3,7.026
-5,38,7.027
1,69,7.028
4,84,7.029
5,82,7.03
6,57,7.031
5,26,7.032
4,10,7.033
3,-2,7.034
3,-20,7.035
2,-47,7.036
-3,-69,7.037
-13,-75,7.038
-18,-69,7.039
-15,-53,7.04
-10,-29,7.041
-8,-2,7.042
-3,19,7.043
13,37,7.044
27,52,7.045
26,57,7.046
14,50,7.047
4,46,7.048
5,50,7.049
9,50,7.05
7,28,7.051
8,-4,7.052
11,-27,7.053
13,-41,7.054
10,-52,7.055
2,-55,7.056
-6,-44,7.057
-12,-25,7.058
-11,-16,7.059
-6,-21,7.06
-7,-24,7.061
-14,-17,7.062
-15,-9,7.063
-3,0,7.064
12,14,7.065
18,32,7.066
20,29,7.067
20,2,7.068
18,-27,7.069
16,-29,7.07
16,-7,7.071
18,14,7.072
18,23,7.073
8,20,7.074
-4,12,7.075
-17,0,7.076
-24,-25,7.077
-26,-41,7.078
-18,-22,7.079
-4,35,7.08
0,92,7.081
-7,92,7.082
-10,31,7.083
-4,-26,7.084
3,-26,7.085
10,6,7.086
14,21,7.087
19,15,7.088
19,20,7.089
12,33,7.09
7,28,7.091
8,6,7.092
13,0,7.093
14,-1,7.094
12,-13,7.095
8,-32,7.096
-2,-70,7.097
-9,-96,7.098
0,-78,7.099
7,-42,7.1
4,48,7.101
2,117,7.102
7,117,7.103
11,112,7.104
13,94,7.105
14,71,7.106
12,32,7.107
9,-10,7.108
4,-63,7.109
0,-105,7.11
0,-117,7.111
-3,-117,7.112
-12,-80,7.113
-20,-49,7.114
-21,-54,7.115
-17,-58,7.116
-13,-44,7.117
-10,-28,7.118
3,-26,7.119
20,-12,7.12
23,27,7.121
9,59,7.122
-3,58,7.123
1,42,7.124
10,35,7.125
11,31,7.126
7,21,7.127
4,16,7.128
1,20,7.129
-6,21,7.13
-11,19,7.131
-11,24,7.132
-6,28,7.133
-7,12,7.134
-7,-15,7.135
-6,-30,7.136
-5,-30,7.137
-8,-30,7.138
-6,-33,7.139
2,-25,7.14
12,-5,7.141
17,5,7.142
18,1,7.143
19,0,7.144
16,8,7.145
14,15,7.146
12,15,7.147
6,11,7.148
-6,5,7.149
-17,-5,7.15
-19,-8,7.151
-12,1,7.152
-7,17,7.153
-5,24,7.154
2,20,7.155
15,10,7.156
27,-5,7.157
36,-22,7.158
41,-36,7.159
41,-37,7.16
35,-34,7.161
23,-38,7.162
11,-50,7.163
-2,-59,7.164
-10,-49,7.165
-9,-12,7.166
-7,40,7.167
-10,81,7.168
-18,90,7.169
-21,79,7.17
-16,69,7.171
-9,60,7.172
-8,52,7.173
-13,42,7.174
-19,40,7.175
-21,34,7.176
-10,7,7.177
1,-18,7.178
9,-19,7.179
11,-5,7.18
-2,-6,7.181
-15,-29,7.182
-21,-52,7.183
-26,-60,7.184
-28,-61,7.185
-28,-62,7.186
-15,-57,7.187
-3,-46,7.188
2,-37,7.189
11,-48,7.19
31,-76,7.191
50,-95,7.192
66,-71,7.193
78,-4,7.194
67,47,7.195
47,32,7.196
27,-14,7.197
15,0,7.198
8,83,7.199
2,142,7.2
-4,121,7.201
-8,71,7.202
-10,50,7.203
-16,33,7.204
-28,-14,7.205
-37,-56,7.206
-30,-41,7.207
-13,-2,7.208
4,13,7.209
12,13,7.21
10,33,7.211
5,55,7.212
4,50,7.213
4,15,7.214
7,-10,7.215
-1,-13,7.216
-16,-28,7.217
-24,-70,7.218
-19,-123,7.219
-9,-136,7.22
-5,-73,7.221
0,38,7.222
13,116,7.223
23,111,7.224
21,65,7.225
12,49,7.226
14,60,7.227
23,54,7.228
29,23,7.229
28,-6,7.23
23,-30,7.231
6,-56,7.232
-16,-65,7.233
-28,-34,7.234
-19,18,7.235
-4,39,7.236
1,16,7.237
1,-6,7.238
14,-14,7.239
23,-21,7.24
14,-29,7.241
-9,-24,7.242
-18,-12,7.243
-9,-13,7.244
-4,-24,7.245
-7,-26,7.246
-6,-14,7.247
6,-7,7.248
16,-9,7.249
7,-9,7.25
-9,-7,7.251
-12,-8,7.252
-3,-10,7.253
2,-10,7.254
-3,-6,7.255
-17,0,7.256
-23,4,7.257
-17,12,7.258
0,20,7.259
15,23,7.26
16,23,7.261
10,17,7.262
-1,4,7.263
-18,-14,7.264
-48,-26,7.265
-76,-27,7.266
-76,-29,7.267
-46,-37,7.268
-12,-40,7.269
8,-31,7.27
24,-15,7.271
55,-3,7.272
97,7,7.273
139,16,7.274
155,26,7.275
125,33,7.276
59,30,7.277
-6,20,7.278
-36,5,7.279
-31,-7,7.28
-18,-6,7.281
-7,0,7.282
14,-2,7.283
36,-19,7.284
37,-28,7.285
12,-12,7.286
-16,20,7.287
-36,42,7.288
-56,39,7.289
-72,24,7.29
-63,13,7.291
-28,10,7.292
12,9,7.293
41,2,7.294
66,-3,7.295
77,-3,7.296
58,-6,7.297
10,-12,7.298
-34,-19,7.299
-45,-21,7.3
-40,-14,7.301
-42,-8,7.302
-54,-7,7.303
-66,-6,7.304
-71,-5,7.305
-68,-1,7.306
-53,-1,7.307
-20,-4,7.308
24,-3,7.309
68,6,7.31
97,19,7.311
105,23,7.312
100,15,7.313
88,-2,7.314
72,-10,7.315
41,-7,7.316
6,-6,7.317
-15,-9,7.318
-12,-11,7.319
-9,-7,7.32
-23,1,7.321
-43,5,7.322
-47,7,7.323
-36,7,7.324
-29,6,7.325
-27,2,7.326
-22,1,7.327
-6,4,7.328
5,9,7.329
3,9,7.33
-2,1,7.331
-8,-7,7.332
-13,-12,7.333
-23,-13,7.334
-34,-10,7.335
-43,-9,7.336
-41,-10,7.337
-24,-8,7.338
-3,1,7.339
15,13,7.34
29,22,7.341
44,21,7.342
49,14,7.343
29,8,7.344
-4,4,7.345
-18,0,7.346
-1,-10,7.347
22,-25,7.348
24,-35,7.349
11,-38,7.35
1,-34,7.351
12,-34,7.352
31,-35,7.353
36,-27,7.354
21,-10,7.355
2,3,7.356
-27,2,7.357
-50,0,7.358
-46,-5,7.359
-38,-5,7.36
-20,16,7.361
-4,31,7.362
9,28,7.363
21,26,7.364
28,31,7.365
35,36,7.366
43,39,7.367
45,37,7.368
30,19,7.369
22,4,7.37
39,-4,7.371
50,-13,7.372
41,-22,7.373
30,-28,7.374
19,-24,7.375
25,-19,7.376
32,-24,7.377
16,-27,7.378
-16,-20,7.379
-37,-7,7.38
-39,4,7.381
-28,3,7.382
-29,-5,7.383
-47,-9,7.384
-67,-5,7.385
-70,-4,7.386
-60,-9,7.387
-57,-14,7.388
-64,-14,7.389
-58,-13,7.39
-23,-18,7.391
13,-20,7.392
19,-13,7.393
0,-2,7.394
2,4,7.395
44,5,7.396
98,6,7.397
126,20,7.398
122,32,7.399
106,31,7.4
98,18,7.401
98,8,7.402
84,0,7.403
44,-8,7.404
-8,-19,7.405
-44,-32,7.406
-53,-39,7.407
-48,-31,7.408
-40,0,7.409
-30,45,7.41
-13,72,7.411
2,67,7.412
12,48,7.413
18,29,7.414
20,17,7.415
6,8,7.416
-22,0,7.417
-42,5,7.418
-38,13,7.419
-27,15,7.42
-31,13,7.421
-38,13,7.422
-29,10,7.423
-2,1,7.424
22,-4,7.425
28,-1,7.426
17,7,7.427
-3,13,7.428
-18,20,7.429
-14,28,7.43
-4,32,7.431
-2,30,7.432
-4,30,7.433
1,32,7.434
14,32,7.435
15,31,7.436
0,30,7.437
-9,33,7.438
-4,38,7.439
0,44,7.44
-6,53,7.441
-14,59,7.442
-10,53,7.443
-2,39,7.444
1,28,7.445
5,22,7.446
16,18,7.447
25,10,7.448
23,4,7.449
17,1,7.45
13,2,7.451
10,4,7.452
8,8,7.453
2,7,7.454
-1,1,7.455
-5,-9,7.456
-11,-20,7.457
-13,-21,7.458
-5,-10,7.459
4,2,7.46
6,8,7.461
2,3,7.462
0,-7,7.463
0,-19,7.464
-3,-29,7.465
-9,-36,7.466
-14,-37,7.467
-15,-37,7.468
-21,-37,7.469
-26,-39,7.47
-24,-44,7.471
-14,-51,7.472
-1,-53,7.473
11,-50,7.474
27,-46,7.475
40,-45,7.476
44,-53,7.477
46,-58,7.478
58,-55,7.479
65,-54,7.48
41,-55,7.481
-2,-58,7.482
-23,-59,7.483
-12,-65,7.484
-1,-72,7.485
-8,-70,7.486
-18,-58,7.487
-12,-48,7.488
-8,-41,7.489
-20,-36,7.49
-32,-27,7.491
-30,-19,7.492
-26,-15,7.493
-36,-17,7.494
-49,-22,7.495
-55,-36,7.496
-57,-53,7.497
-60,-56,7.498
-44,-45,7.499
0,-31,7.5
47,-19,7.501
67,-6,7.502
67,6,7.503
61,8,7.504
52,4,7.505
39,4,7.506
33,12,7.507
36,18,7.508
33,18,7.509
21,16,7.51
14,17,7.511
14,16,7.512
8,16,7.513
-8,16,7.514
-19,17,7.515
-20,14,7.516
-21,5,7.517
-22,2,7.518
-16,4,7.519
-9,8,7.52
-10,11,7.521
-17,21,7.522
-11,29,7.523
5,33,7.524
11,35,7.525
0,39,7.526
-11,39,7.527
-6,30,7.528
6,18,7.529
10,17,7.53
4,29,7.531
-1,38,7.532
1,39,7.533
5,32,7.534
4,25,7.535
-1,13,7.536
-5,-5,7.537
-7,-16,7.538
-9,-13,7.539
-11,2,7.54
-12,15,7.541
-10,20,7.542
-6,18,7.543
0,17,7.544
12,17,7.545
22,17,7.546
23,23,7.547
19,35,7.548
21,47,7.549
30,53,7.55
32,45,7.551
23,21,7.552
14,-13,7.553
8,-44,7.554
2,-44,7.555
-3,-36,7.556
-9,-2,7.557
-14,21,7.558
-12,14,7.559
-10,8,7.56
-8,10,7.561
-4,12,7.562
5,12,7.563
10,14,7.564
4,21,7.565
0,28,7.566
5,32,7.567
13,34,7.568
26,29,7.569
34,23,7.57
24,16,7.571
15,11,7.572
5,11,7.573
1,9,7.574
12,-1,7.575
14,-12,7.576
4,-17,7.577
-3,-17,7.578
2,-20,7.579
11,-24,7.58
8,-22,7.581
0,-17,7.582
-3,-20,7.583
-3,-29,7.584
-9,-35,7.585
-16,-33,7.586
-12,-29,7.587
-3,-27,7.588
-1,-22,7.589
-7,-14,7.59
-9,-8,7.591
-1,-8,7.592
10,-4,7.593
16,3,7.594
20,7,7.595
22,4,7.596
21,-7,7.597
13,-11,7.598
6,-11,7.599
5,-9,7.6
5,-6,7.601
-2,-1,7.602
-11,0,7.603
-11,-3,7.604
-5,-1,7.605
-4,8,7.606
-8,11,7.607
-8,8,7.608
-2,3,7.609
0,7,7.61
-2,16,7.611
1,16,7.612
9,10,7.613
8,3,7.614
0,1,7.615
-7,0,7.616
-7,-7,7.617
-6,-5,7.618
-7,1,7.619
-3,6,7.62
3,6,7.621
4,8,7.622
2,9,7.623
6,5,7.624
16,-4,7.625
20,-11,7.626
12,-11,7.627
4,-11,7.628
9,-16,7.629
14,-16,7.63
9,-7,7.631
-5,9,7.632
-19,19,7.633
-28,17,7.634
-29,8,7.635
-21,2,7.636
-8,4,7.637
8,11,7.638
29,15,7.639
45,11,7.64
40,3,7.641
19,0,7.642
0,0,7.643
-4,-3,7.644
-3,-8,7.645
-5,-11,7.646
-8,-10,7.647
-4,-10,7.648
0,-7,7.649
-3,0,7.65
-6,5,7.651
-4,7,7.652
3,4,7.653
11,-2,7.654
14,-8,7.655
8,-12,7.656
-1,-17,7.657
-5,-17,7.658
0,-16,7.659
9,-14,7.66
10,-13,7.661
2,-9,7.662
-5,-2,7.663
-9,8,7.664
-11,16,7.665
-8,21,7.666
-1,14,7.667
2,7,7.668
-1,5,7.669
-8,5,7.67
-6,3,7.671
2,-1,7.672
7,1,7.673
4,6,7.674
1,10,7.675
0,9,7.676
0,6,7.677
0,7,7.678
4,7,7.679
13,5,7.68
15,5,7.681
8,4,7.682
1,3,7.683
2,-2,7.684
4,-5,7.685
1,-6,7.686
-2,-4,7.687
0,-3,7.688
3,-4,7.689
1,-8,7.69
-5,-14,7.691
-10,-16,7.692
-6,-14,7.693
2,-13,7.694
6,-14,7.695
0,-15,7.696
-6,-15,7.697
-2,-12,7.698
13,-4,7.699
27,4,7.7
31,14,7.701
24,22,7.702
16,18,7.703
10,12,7.704
6,6,7.705
-1,2,7.706
-12,6,7.707
-16,7,7.708
-7,1,7.709
4,-5,7.71
10,-9,7.711
8,-13,7.712
9,-15,7.713
12,-16,7.714
10,-15,7.715
5,-14,7.716
7,-14,7.717
11,-9,7.718
14,0,7.719
11,6,7.72
7,9,7.721
0,10,7.722
-6,9,7.723
-11,6,7.724
-8,3,7.725
-6,2,7.726
-8,2,7.727
-10,1,7.728
-8,1,7.729
-7,4,7.73
-9,6,7.731
-9,5,7.732
-3,2,7.733
5,-2,7.734
7,-1,7.735
1,3,7.736
-6,6,7.737
-12,10,7.738
-10,11,7.739
-5,12,7.74
-3,8,7.741
-7,0,7.742
-6,-5,7.743
5,-8,7.744
19,-8,7.745
20,-10,7.746
9,-10,7.747
2,-9,7.748
4,-5,7.749
12,1,7.75
14,8,7.751
13,14,7.752
10,15,7.753
5,10,7.754
4,3,7.755
-1,1,7.756
-7,0,7.757
-11,0,7.758
-3,0,7.759
10,-1,7.76
17,-3,7.761
11,-8,7.762
8,-12,7.763
10,-13,7.764
10,-9,7.765
1,-3,7.766
-6,-2,7.767
-5,-3,7.768
-5,-2,7.769
-10,-2,7.77
-10,-5,7.771
-2,-12,7.772
2,-13,7.773
-4,-8,7.774
-10,-3,7.775
-7,0,7.776
-2,0,7.777
-2,3,7.778
-2,7,7.779
3,11,7.78
4,16,7.781
0,21,7.782
1,17,7.783
15,7,7.784
24,2,7.785
24,8,7.786
22,15,7.787
24,13,7.788
20,5,7.789
8,-3,7.79
-2,-7,7.791
0,-9,7.792
8,-10,7.793
11,-12,7.794
12,-17,7.795
12,-21,7.796
8,-19,7.797
2,-15,7.798
-3,-4,7.799
-8,5,7.8
-8,8,7.801
-8,9,7.802
-6,2,7.803
-5,-4,7.804
-6,-3,7.805
-7,-2,7.806
-4,-5,7.807
0,-8,7.808
2,-8,7.809
5,-6,7.81
5,0,7.811
3,5,7.812
1,0,7.813
-1,-4,7.814
-5,-3,7.815
-8,-5,7.816
-9,-9,7.817
-13,-7,7.818
-16,-3,7.819
-13,0,7.82
-3,1,7.821
3,4,7.822
4,7,7.823
4,8,7.824
5,9,7.825
4,9,7.826
4,8,7.827
5,2,7.828
5,-1,7.829
3,5,7.83
3,13,7.831
3,16,7.832
3,16,7.833
4,16,7.834
11,7,7.835
16,-17,7.836
12,-50,7.837
1,-61,7.838
0,-46,7.839
7,-23,7.84
7,-8,7.841
-4,3,7.842
-10,12,7.843
1,13,7.844
16,7,7.845
20,8,7.846
14,17,7.847
12,34,7.848
15,60,7.849
17,95,7.85
16,111,7.851
10,61,7.852
3,-41,7.853
-2,-144,7.854
-3,-171,7.855
-5,-107,7.856
-9,-13,7.857
-11,49,7.858
-7,58,7.859
-3,36,7.86
-4,14,7.861
-7,2,7.862
-6,-4,7.863
-2,-8,7.864
0,-5,7.865
1,10,7.866
2,31,7.867
5,50,7.868
5,51,7.869
3,22,7.87
6,-24,7.871
12,-48,7.872
17,-21,7.873
14,43,7.874
7,95,7.875
0,78,7.876
-1,-20,7.877
-3,-127,7.878
-3,-159,7.879
-3,-106,7.88
-8,-40,7.881
-10,-15,7.882
-4,-11,7.883
2,6,7.884
10,23,7.885
15,12,7.886
13,-6,7.887
11,-5,7.888
10,2,7.889
8,5,7.89
4,33,7.891
0,100,7.892
-2,154,7.893
-6,130,7.894
-7,26,7.895
-8,-80,7.896
-10,-115,7.897
-10,-86,7.898
-5,-49,7.899
2,-24,7.9
6,2,7.901
3,29,7.902
4,39,7.903
10,31,7.904
15,18,7.905
7,12,7.906
-1,10,7.907
0,7,7.908
4,4,7.909
3,4,7.91
-2,17,7.911
-1,56,7.912
4,103,7.913
3,106,7.914
-1,22,7.915
-6,-91,7.916
-4,-150,7.917
5,-125,7.918
17,-74,7.919
25,-43,7.92
19,-17,7.921
7,16,7.922
3,36,7.923
7,27,7.924
7,35,7.925
0,111,7.926
-5,210,7.927
-6,202,7.928
-7,16,7.929
-6,-236,7.93
1,-353,7.931
13,-267,7.932
18,-115,7.933
11,-6,7.934
1,86,7.935
-8,204,7.936
-14,252,7.937
-14,118,7.938
-7,-106,7.939
0,-206,7.94
0,-136,7.941
-2,-53,7.942
2,-47,7.943
8,-43,7.944
8,9,7.945
0,42,7.946
-1,16,7.947
5,6,7.948
11,83,7.949
9,191,7.95
6,238,7.951
7,177,7.952
10,32,7.953
7,-145,7.954
3,-228,7.955
0,-156,7.956
-1,-37,7.957
-1,-6,7.958
2,-50,7.959
9,-61,7.96
13,-21,7.961
7,2,7.962
-2,-2,7.963
-4,37,7.964
0,135,7.965
4,218,7.966
5,202,7.967
4,76,7.968
4,-94,7.969
5,-204,7.97
6,-192,7.971
4,-102,7.972
0,-32,7.973
-3,-10,7.974
-6,9,7.975
-13,44,7.976
-20,53,7.977
-19,35,7.978
-8,27,7.979
4,47,7.98
9,64,7.981
9,66,7.982
9,71,7.983
11,80,7.984
10,64,7.985
4,24,7.986
0,-9,7.987
-2,-30,7.988
-4,-56,7.989
-3,-80,7.99
-1,-81,7.991
4,-62,7.992
10,-50,7.993
9,-43,7.994
6,-17,7.995
4,6,7.996
4,26,7.997
5,35,7.998
9,10,7.999
11,-10,8.0
8,-15,8.001
6,-18,8.002
6,-14,8.003
6,-10,8.004
4,-8,8.005
1,-6,8.006
-1,-3,8.007
-4,-3,8.008
-4,-13,8.009
-5,-22,8.01
-5,-20,8.011
-3,-17,8.012
-1,-8,8.013
0,1,8.014
-4,3,8.015
-15,-2,8.016
-22,-8,8.017
-22,-1,8.018
-12,17,8.019
-2,36,8.02
3,46,8.021
4,58,8.022
5,93,8.023
6,143,8.024
4,154,8.025
1,68,8.026
1,-80,8.027
5,-191,8.028
8,-206,8.029
8,-151,8.03
6,-80,8.031
4,-14,8.032
6,32,8.033
9,29,8.034
14,-3,8.035
17,-19,8.036
11,14,8.037
7,58,8.038
9,130,8.039
11,175,8.04
14,141,8.041
17,83,8.042
16,-48,8.043
14,-123,8.044
12,-29,8.045
10,38,8.046
10,27,8.047
7,31,8.048
-1,83,8.049
-8,98,8.05
-9,-1,8.051
-10,-75,8.052
-9,-72,8.053
-9,-87,8.054
-12,-214,8.055
-19,-314,8.056
-22,-225,8.057
-16,-54,8.058
-1,-1,8.059
12,-33,8.06
13,-3,8.061
7,70,8.062
4,74,8.063
7,29,8.064
11,37,8.065
10,80,8.066
4,76,8.067
-4,51,8.068
-6,63,8.069
-2,72,8.07
4,19,8.071
5,-36,8.072
5,-13,8.073
9,49,8.074
10,66,8.075
1,41,8.076
-12,34,8.077
-16,46,8.078
-6,32,8.079
-2,3,8.08
-8,-5,8.081
-15,-6,8.082
-7,-22,8.083
7,-32,8.084
17,-16,8.085
21,3,8.086
23,3,8.087
21,0,8.088
13,4,8.089
4,-6,8.09
5,-35,8.091
10,-55,8.092
10,-57,8.093
3,-62,8.094
-2,-65,8.095
-9,-38,8.096
-15,8,8.097
-15,40,8.098
-4,42,8.099
9,43,8.1
10,61,8.101
5,67,8.102
6,50,8.103
12,35,8.104
15,41,8.105
10,53,8.106
11,48,8.107
15,32,8.108
15,16,8.109
8,-2,8.11
2,-28,8.111
-1,-55,8.112
-1,-71,8.113
-1,-66,8.114
-1,-17,8.115
-4,72,8.116
-12,139,8.117
-20,124,8.118
-22,46,8.119
-18,-32,8.12
-14,-117,8.121
-10,-253,8.122
-3,-377,8.123
0,-350,8.124
-1,-170,8.125
-5,-5,8.126
-7,39,8.127
-4,53,8.128
-1,140,8.129
9,247,8.13
21,249,8.131
26,117,8.132
19,-52,8.133
5,-169,8.134
1,-154,8.135
6,-37,8.136
9,60,8.137
5,65,8.138
3,33,8.139
4,42,8.14
2,75,8.141
0,73,8.142
10,59,8.143
27,77,8.144
34,103,8.145
26,86,8.146
19,45,8.147
20,27,8.148
16,23,8.149
4,0,8.15
-6,-34,8.151
-9,-59,8.152
-12,-76,8.153
-20,-98,8.154
-22,-105,8.155
-20,-85,8.156
-18,-53,8.157
-20,-20,8.158
-18,13,8.159
-8,42,8.16
0,42,8.161
3,29,8.162
11,29,8.163
21,32,8.164
22,0,8.165
11,-54,8.166
-2,-71,8.167
-2,-41,8.168
7,-12,8.169
16,-10,8.17
19,-7,8.171
13,13,8.172
4,31,8.173
-3,28,8.174
-3,25,8.175
-2,34,8.176
-3,36,8.177
-4,17,8.178
-3,-2,8.179
-3,-1,8.18
-6,13,8.181
-7,19,8.182
-4,3,8.183
-1,-24,8.184
0,-49,8.185
12,-60,8.186
29,-59,8.187
33,-51,8.188
14,-39,8.189
-9,-23,8.19
-13,-9,8.191
-6,-2,8.192
-5,3,8.193
-10,14,8.194
-11,27,8.195
-7,31,8.196
-5,20,8.197
-5,17,8.198
3,28,8.199
13,38,8.2
13,38,8.201
10,27,8.202
13,14,8.203
19,5,8.204
17,4,8.205
6,8,8.206
1,12,8.207
2,13,8.208
0,12,8.209
-4,14,8.21
-7,18,8.211
-7,21,8.212
-8,20,8.213
-14,15,8.214
-18,5,8.215
-17,-9,8.216
-14,-28,8.217
-13,-41,8.218
-8,-42,8.219
0,-34,8.22
10,-31,8.221
18,-37,8.222
28,-49,8.223
34,-54,8.224
28,-43,8.225
10,-18,8.226
-6,6,8.227
-10,19,8.228
-7,19,8.229
-2,20,8.23
-1,35,8.231
-1,59,8.232
-1,68,8.233
0,42,8.234
6,1,8.235
7,-29,8.236
-1,-47,8.237
-8,-67,8.238
-6,-101,8.239
3,-133,8.24
10,-126,8.241
7,-57,8.242
6,43,8.243
16,101,8.244
23,76,8.245
22,13,8.246
12,-5,8.247
2,38,8.248
-1,84,8.249
-2,83,8.25
-5,55,8.251
-11,39,8.252
-10,40,8.253
-4,31,8.254
4,22,8.255
9,44,8.256
10,84,8.257
10,97,8.258
11,63,8.259
8,15,8.26
4,-1,8.261
8,-11,8.262
19,-48,8.263
29,-94,8.264
25,-102,8.265
8,-69,8.266
-6,-32,8.267
-7,-7,8.268
0,16,8.269
3,33,8.27
-1,19,8.271
-7,-19,8.272
-12,-47,8.273
-11,-69,8.274
-6,-89,8.275
-3,-95,8.276
-7,-66,8.277
-9,-13,8.278
-1,17,8.279
8,12,8.28
6,3,8.281
-10,6,8.282
-23,0,8.283
-22,-14,8.284
-13,-4,8.285
-6,35,8.286
-4,64,8.287
-4,57,8.288
-6,40,8.289
-6,37,8.29
-1,39,8.291
11,25,8.292
24,5,8.293
30,-9,8.294
26,-15,8.295
14,-21,8.296
2,-16,8.297
0,6,8.298
10,33,8.299
23,40,8.3
23,30,8.301
13,17,8.302
5,5,8.303
10,-7,8.304
16,-30,8.305
13,-65,8.306
5,-99,8.307
3,-100,8.308
1,-53,8.309
-4,0,8.31
-12,10,8.311
-16,-15,8.312
-17,-28,8.313
-21,-21,8.314
-27,-36,8.315
-29,-103,8.316
-22,-173,8.317
-8,-154,8.318
7,-26,8.319
18,128,8.32
17,205,8.321
11,178,8.322
8,115,8.323
14,96,8.324
17,109,8.325
13,95,8.326
3,49,8.327
1,14,8.328
3,19,8.329
4,40,8.33
6,49,8.331
10,41,8.332
14,18,8.333
11,-11,8.334
7,-23,8.335
8,-33,8.336
12,-38,8.337
10,-54,8.338
7,-102,8.339
6,-127,8.34
3,-83,8.341
-1,-37,8.342
-1,12,8.343
2,44,8.344
0,23,8.345
-9,5,8.346
-12,-2,8.347
-4,-10,8.348
-1,-20,8.349
-6,-27,8.35
-7,-19,8.351
-1,-10,8.352
0,0,8.353
-8,10,8.354
-11,2,8.355
-8,-53,8.356
-17,-132,8.357
-36,-145,8.358
-41,-51,8.359
-20,84,8.36
3,149,8.361
10,115,8.362
11,57,8.363
23,44,8.364
38,65,8.365
45,61,8.366
46,24,8.367
43,-9,8.368
31,-11,8.369
14,1,8.37
6,9,8.371
7,12,8.372
4,17,8.373
-6,16,8.374
-4,6,8.375
16,-3,8.376
40,-9,8.377
47,-15,8.378
31,-30,8.379
2,-44,8.38
-24,-49,8.381
-31,-50,8.382
-18,-46,8.383
-10,-30,8.384
-18,-5,8.385
-33,14,8.386
-33,20,8.387
-23,20,8.388
-21,20,8.389
-25,16,8.39
-25,6,8.391
-18,-1,8.392
-8,-3,8.393
2,-7,8.394
14,-13,8.395
18,-15,8.396
20,-18,8.397
30,-22,8.398
42,-23,8.399
43,-16,8.4
25,-6,8.401
1,-2,8.402
-14,-1,8.403
-23,6,8.404
-26,17,8.405
-13,24,8.406
16,23,8.407
37,20,8.408
36,14,8.409
24,-2,8.41
18,-32,8.411
14,-59,8.412
8,-60,8.413
2,-33,8.414
0,4,8.415
-6,32,8.416
-12,43,8.417
-4,49,8.418
19,47,8.419
31,35,8.42
19,24,8.421
2,11,8.422
3,-14,8.423
11,-41,8.424
2,-36,8.425
-15,11,8.426
-20,45,8.427
-9,18,8.428
-7,-39,8.429
-21,-60,8.43
-34,-35,8.431
-35,-1,8.432
-28,23,8.433
-26,45,8.434
-26,68,8.435
-28,71,8.436
-25,46,8.437
-11,17,8.438
12,-1,8.439
28,-10,8.44
26,-10,8.441
19,-6,8.442
24,-12,8.443
36,-52,8.444
32,-109,8.445
17,-132,8.446
14,-86,8.447
28,5,8.448
27,81,8.449
4,108,8.45
-18,102,8.451
-19,87,8.452
-12,64,8.453
-26,21,8.454
-51,-19,8.455
-65,-35,8.456
-54,-31,8.457
-28,-22,8.458
3,-12,8.459
19,-4,8.46
3,-8,8.461
-36,-29,8.462
-63,-46,8.463
-51,-46,8.464
-12,-48,8.465
24,-73,8.466
48,-96,8.467
70,-74,8.468
96,-8,8.469
129,53,8.47
160,78,8.471
166,77,8.472
126,74,8.473
52,68,8.474
5,53,8.475
18,34,8.476
48,23,8.477
35,22,8.478
-12,13,8.479
-44,-1,8.48
-51,-7,8.481
-63,-7,8.482
-80,-12,8.483
-69,-28,8.484
-27,-45,8.485
0,-68,8.486
-13,-94,8.487
-38,-97,8.488
-44,-46,8.489
-37,32,8.49
-40,68,8.491
-57,37,8.492
-69,-13,8.493
-67,-52,8.494
-47,-78,8.495
-29,-91,8.496
-23,-63,8.497
-21,9,8.498
-1,68,8.499
27,66,8.5
40,32,8.501
46,21,8.502
76,31,8.503
132,28,8.504
158,8,8.505
116,-3,8.506
43,3,8.507
-3,20,8.508
-12,39,8.509
-25,50,8.51
-48,37,8.511
-56,9,8.512
-36,-11,8.513
-15,-34,8.514
-8,-80,8.515
-5,-118,8.516
9,-68,8.517
18,98,8.518
10,264,8.519
2,290,8.52
16,183,8.521
40,71,8.522
48,29,8.523
31,14,8.524
4,-16,8.525
-12,-54,8.526
-16,-79,8.527
-20,-106,8.528
-38,-142,8.529
-71,-170,8.53
-101,-207,8.531
-119,-300,8.532
-124,-411,8.533
-125,-428,8.534
-104,-250,8.535
-42,43,8.536
48,261,8.537
117,320,8.538
142,284,8.539
146,246,8.54
149,218,8.541
128,178,8.542
70,135,8.543
2,111,8.544
-29,97,8.545
-19,75,8.546
0,50,8.547
12,33,8.548
24,11,8.549
46,-13,8.55
59,-26,8.551
39,-17,8.552
-2,-14,8.553
-44,-39,8.554
-60,-68,8.555
-61,-76,8.556
-68,-70,8.557
-75,-69,8.558
-54,-75,8.559
-12,-71,8.56
3,-59,8.561
-24,-54,8.562
-49,-55,8.563
-28,-49,8.564
8,-37,8.565
7,-22,8.566
-18,-10,8.567
-7,-7,8.568
53,-20,8.569
109,-46,8.57
119,-55,8.571
102,-30,8.572
88,3,8.573
65,-4,8.574
20,-61,8.575
-34,-117,8.576
-62,-98,8.577
-61,2,8.578
-46,104,8.579
-32,128,8.58
-21,82,8.581
-19,32,8.582
-29,13,8.583
-38,-3,8.584
-34,-43,8.585
-19,-89,8.586
-6,-113,8.587
-1,-119,8.588
1,-110,8.589
11,-46,8.59
27,97,8.591
44,258,8.592
44,333,8.593
13,282,8.594
-35,176,8.595
-68,68,8.596
-54,-41,8.597
-40,-113,8.598
-24,-67,8.599
-6,-2,8.6
14,123,8.601
34,196,8.602
58,108,8.603
75,34,8.604
73,0,8.605
75,-37,8.606
91,-85,8.607
94,-123,8.608
57,-131,8.609
28,-125,8.61
24,-78,8.611
15,-39,8.612
-2,-21,8.613
-24,-15,8.614
-46,-37,8.615
-54,-24,8.616
-49,-2,8.617
-31,-4,8.618
1,-23,8.619
24,-26,8.62
19,-17,8.621
-1,-23,8.622
-10,-46,8.623
-9,-67,8.624
-14,-66,8.625
-28,-31,8.626
-37,33,8.627
-42,86,8.628
-53,91,8.629
-61,57,8.63
-50,29,8.631
-26,20,8.632
-4,14,8.633
19,7,8.634
57,13,8.635
97,26,8.636
102,17,8.637
54,0,8.638
-15,-1,8.639
-51,14,8.64
-36,20,8.641
-2,12,8.642
12,10,8.643
8,21,8.644
13,28,8.645
22,25,8.646
4,20,8.647
-36,24,8.648
-48,31,8.649
-1,39,8.65
57,48,8.651
66,48,8.652
39,45,8.653
13,45,8.654
7,49,8.655
-5,41,8.656
-19,17,8.657
-8,2,8.658
26,2,8.659
43,-5,8.66
34,-40,8.661
30,-81,8.662
39,-85,8.663
28,-38,8.664
-15,36,8.665
-51,89,8.666
-45,96,8.667
-20,74,8.668
-10,61,8.669
-12,63,8.67
-2,58,8.671
25,39,8.672
45,22,8.673
-8,-56,8.674
-13,70,8.675
-15,161,8.676
-6,141,8.677
-1,123,8.678
-8,109,8.679
-11,97,8.68
-6,91,8.681
6,78,8.682
38,42,8.683
63,8,8.684
67,-19,8.685
71,-43,8.686
76,-54,8.687
75,-66,8.688
58,-78,8.689
42,-83,8.69
33,-68,8.691
25,-58,8.692
19,-61,8.693
-40,-83,8.694
-50,90,8.695
-54,215,8.696
-38,188,8.697
-28,163,8.698
-40,144,8.699
-47,128,8.7
-37,120,8.701
-13,102,8.702
51,52,8.703
101,5,8.704
109,-33,8.705
117,-66,8.706
126,-81,8.707
124,-97,8.708
90,-113,8.709
60,-120,8.71
41,-100,8.711
24,-86,8.712
12,-90,8.713
-2,-90,8.714
-18,-73,8.715
-11,-65,8.716
-10,-76,8.717
-30,-79,8.718
-54,-71,8.719
-62,-65,8.72
-63,-64,8.721
-65,-57,8.722
-60,-52,8.723
-40,-53,8.724
-17,-50,8.725
-5,-36,8.726
-9,-27,8.727
-22,-39,8.728
-26,-72,8.729
-6,-93,8.73
35,-73,8.731
57,-10,8.732
38,62,8.733
-3,97,8.734
-17,84,8.735
-3,62,8.736
-1,65,8.737
-19,85,8.738
-14,91,8.739
27,80,8.74
56,71,8.741
37,68,8.742
1,58,8.743
-4,44,8.744
13,31,8.745
15,17,8.746
1,1,8.747
-2,-11,8.748
3,-12,8.749
0,-6,8.75
-8,-5,8.751
-7,-9,8.752
-4,-13,8.753
-10,-19,8.754
-20,-23,8.755
-18,-20,8.756
-11,-18,8.757
-11,-18,8.758
-11,-24,8.759
1,-34,8.76
14,-40,8.761
11,-29,8.762
3,9,8.763
11,59,8.764
25,91,8.765
23,83,8.766
8,52,8.767
-4,25,8.768
-2,0,8.769
5,-43,8.77
14,-103,8.771
21,-147,8.772
30,-141,8.773
28,-80,8.774
15,13,8.775
-6,104,8.776
-18,151,8.777
-15,101,8.778
-4,-64,8.779
0,-232,8.78
-11,-226,8.781
-26,-1,8.782
-35,261,8.783
-38,355,8.784
-47,289,8.785
-59,215,8.786
-46,199,8.787
8,179,8.788
81,118,8.789
130,60,8.79
144,41,8.791
139,35,8.792
124,24,8.793
75,10,8.794
9,-2,8.795
-31,-24,8.796
-24,-50,8.797
-2,-58,8.798
-4,-59,8.799
-20,-76,8.8
-27,-96,8.801
-26,-98,8.802
-30,-97,8.803
-34,-114,8.804
-26,-131,8.805
-14,-121,8.806
-10,-91,8.807
-12,-64,8.808
-9,-39,8.809
-3,-9,8.81
1,15,8.811
2,21,8.812
0,20,8.813
-7,20,8.814
-17,26,8.815
-20,30,8.816
-18,32,8.817
-15,37,8.818
-8,28,8.819
2,5,8.82
9,-8,8.821
5,-3,8.822
0,3,8.823
4,-7,8.824
7,-15,8.825
-3,-7,8.826
-13,2,8.827
-7,-4,8.828
6,-17,8.829
6,-11,8.83
-1,3,8.831
-1,1,8.832
11,-12,8.833
20,-23,8.834
19,-19,8.835
11,-12,8.836
3,-13,8.837
2,-12,8.838
9,-9,8.839
18,-7,8.84
17,-7,8.841
6,-8,8.842
-3,-8,8.843
-4,-13,8.844
-2,-20,8.845
-3,-21,8.846
-8,-20,8.847
-17,-22,8.848
-32,-18,8.849
-43,0,8.85
-37,19,8.851
-14,15,8.852
8,-5,8.853
20,-13,8.854
33,17,8.855
55,66,8.856
74,83,8.857
73,63,8.858
50,39,8.859
26,36,8.86
18,40,8.861
25,35,8.862
32,25,8.863
27,19,8.864
12,14,8.865
-2,4,8.866
-11,-11,8.867
-17,-35,8.868
-17,-79,8.869
-15,-139,8.87
-15,-188,8.871
-24,-185,8.872
-40,-124,8.873
-55,-14,8.874
-61,100,8.875
-62,169,8.876
-56,174,8.877
-37,139,8.878
-1,106,8.879
39,92,8.88
65,73,8.881
66,30,8.882
56,-18,8.883
51,-36,8.884
50,-22,8.885
41,-13,8.886
21,-31,8.887
5,-50,8.888
1,-33,8.889
-2,18,8.89
-18,60,8.891
-36,60,8.892
-34,32,8.893
-18,-1,8.894
-6,-10,8.895
-5,-2,8.896
-8,1,8.897
-8,-3,8.898
-7,-9,8.899
-5,-16,8.9
0,-35,8.901
5,-64,8.902
3,-78,8.903
-2,-65,8.904
-4,-44,8.905
-5,-36,8.906
-8,-37,8.907
-9,-27,8.908
-4,-7,8.909
4,4,8.91
7,5,8.911
4,7,8.912
5,14,8.913
7,14,8.914
5,13,8.915
-2,18,8.916
-7,24,8.917
-1,18,8.918
8,8,8.919
10,9,8.92
3,20,8.921
-3,23,8.922
-1,13,8.923
4,5,8.924
3,3,8.925
1,-1,8.926
5,-10,8.927
16,-17,8.928
21,-20,8.929
15,-29,8.93
5,-47,8.931
-3,-58,8.932
-10,-46,8.933
-20,-22,8.934
-18,-2,8.935
0,1,8.936
24,-7,8.937
38,-11,8.938
31,-9,8.939
9,-4,8.94
-13,7,8.941
-20,24,8.942
-18,34,8.943
-28,22,8.944
-45,-9,8.945
-37,-34,8.946
5,-34,8.947
50,-8,8.948
63,24,8.949
56,43,8.95
59,51,8.951
67,55,8.952
57,53,8.953
20,35,8.954
-12,17,8.955
-24,18,8.956
-26,33,8.957
-30,42,8.958
-26,23,8.959
-16,-8,8.96
-12,-20,8.961
-20,-1,8.962
-21,29,8.963
-3,29,8.964
20,-14,8.965
24,-74,8.966
7,-99,8.967
-10,-71,8.968
-14,-24,8.969
-6,-6,8.97
4,-35,8.971
18,-91,8.972
37,-120,8.973
48,-86,8.974
32,11,8.975
-15,109,8.976
-57,135,8.977
-57,84,8.978
-23,-4,8.979
5,-80,8.98
10,-104,8.981
12,-61,8.982
26,21,8.983
38,80,8.984
28,92,8.985
6,84,8.986
-7,74,8.987
-6,49,8.988
0,15,8.989
7,10,8.99
6,42,8.991
-3,63,8.992
-13,48,8.993
-18,18,8.994
-14,10,8.995
-10,8,8.996
-10,-15,8.997
-8,-35,8.998
1,-31,8.999
8,-16,9.0
6,-17,9.001
4,-28,9.002
4,-31,9.003
2,-29,9.004
0,-30,9.005
-2,-29,9.006
-8,-18,9.007
-12,-12,9.008
-8,-21,9.009
-4,-29,9.01
0,-30,9.011
5,-26,9.012
10,-24,9.013
14,-20,9.014
11,-14,9.015
0,-10,9.016
-13,-9,9.017
-22,-7,9.018
-20,0,9.019
-5,5,9.02
17,8,9.021
31,10,9.022
37,7,9.023
33,-1,9.024
20,-8,9.025
2,-7,9.026
-5,-2,9.027
1,-2,9.028
12,-6,9.029
6,-7,9.03
-10,0,9.031
-16,16,9.032
-5,29,9.033
8,23,9.034
13,-9,9.035
13,-48,9.036
17,-60,9.037
17,-13,9.038
11,70,9.039
0,117,9.04
-14,69,9.041
-29,-50,9.042
-33,-126,9.043
-18,-91,9.044
4,-5,9.045
6,35,9.046
-12,23,9.047
-23,23,9.048
-9,51,9.049
20,61,9.05
48,44,9.051
65,44,9.052
75,92,9.053
81,175,9.054
81,251,9.055
62,242,9.056
20,79,9.057
-24,-185,9.058
-36,-371,9.059
-15,-344,9.06
0,-184,9.061
-16,-64,9.062
-39,-36,9.063
-37,-24,9.064
-23,7,9.065
-19,18,9.066
-19,-1,9.067
-11,-6,9.068
0,20,9.069
-3,43,9.07
-16,42,9.071
-25,30,9.072
-29,22,9.073
-35,33,9.074
-33,97,9.075
-16,207,9.076
6,248,9.077
16,112,9.078
16,-142,9.079
20,-302,9.08
24,-247,9.081
21,-82,9.082
10,13,9.083
2,13,9.084
0,13,9.085
-5,45,9.086
-8,59,9.087
-6,36,9.088
2,22,9.089
12,31,9.09
19,31,9.091
23,9,9.092
20,-1,9.093
9,-1,9.094
-2,-8,9.095
-4,-23,9.096
-1,-26,9.097
1,-12,9.098
8,-5,9.099
23,-10,9.1
40,-5,9.101
44,15,9.102
25,39,9.103
-10,57,9.104
-40,59,9.105
-48,30,9.106
-33,-26,9.107
-7,-72,9.108
20,-70,9.109
42,-4,9.11
43,101,9.111
11,170,9.112
-37,143,9.113
-71,15,9.114
-68,-130,9.115
-46,-228,9.116
-27,-255,9.117
-8,-171,9.118
21,42,9.119
46,252,9.12
46,241,9.121
28,-16,9.122
11,-265,9.123
-9,-281,9.124
-38,-135,9.125
-62,-47,9.126
-53,-59,9.127
-17,-43,9.128
18,45,9.129
44,101,9.13
67,80,9.131
89,62,9.132
97,93,9.133
81,110,9.134
57,64,9.135
36,12,9.136
23,22,9.137
15,72,9.138
14,88,9.139
14,68,9.14
7,48,9.141
-7,38,9.142
-17,20,9.143
-16,-2,9.144
-12,-12,9.145
-14,-11,9.146
-18,-3,9.147
-20,32,9.148
-20,111,9.149
-23,193,9.15
-27,156,9.151
-27,-59,9.152
-22,-307,9.153
-20,-394,9.154
-17,-248,9.155
-13,-55,9.156
-6,-7,9.157
1,-44,9.158
5,-20,9.159
9,53,9.16
9,65,9.161
9,15,9.162
3,-4,9.163
-2,28,9.164
-8,56,9.165
-13,68,9.166
-11,100,9.167
-6,153,9.168
4,195,9.169
12,187,9.17
7,66,9.171
4,-171,9.172
9,-367,9.173
18,-368,9.174
32,-182,9.175
30,11,9.176
6,97,9.177
-21,111,9.178
-26,69,9.179
-15,-41,9.18
-5,-129,9.181
0,-78,9.182
15,44,9.183
36,80,9.184
38,48,9.185
19,74,9.186
1,129,9.187
0,65,9.188
3,-86,9.189
-4,-134,9.19
-13,-32,9.191
-11,53,9.192
-6,37,9.193
-10,14,9.194
-12,54,9.195
-12,82,9.196
-6,71,9.197
0,62,9.198
9,63,9.199
17,61,9.2
17,49,9.201
17,64,9.202
19,167,9.203
22,234,9.204
22,192,9.205
19,109,9.206
9,-98,9.207
-1,-262,9.208
-10,-294,9.209
-17,-301,9.21
-17,-233,9.211
-15,-174,9.212
-1,-146,9.213
9,-106,9.214
3,-27,9.215
0,0,9.216
5,-47,9.217
8,-73,9.218
1,-6,9.219
-11,94,9.22
-22,128,9.221
-23,92,9.222
-7,57,9.223
19,69,9.224
34,130,9.225
33,227,9.226
28,300,9.227
28,236,9.228
20,4,9.229
2,-245,9.23
-8,-312,9.231
-3,-184,9.232
3,-33,9.233
-1,29,9.234
-8,13,9.235
-14,-27,9.236
-21,-81,9.237
-30,-121,9.238
-30,-91,9.239
-8,11,9.24
18,118,9.241
34,171,9.242
39,164,9.243
42,97,9.244
38,33,9.245
25,128,9.246
16,411,9.247
12,579,9.248
8,253,9.249
-2,-454,9.25
-10,-949,9.251
-10,-835,9.252
-7,-393,9.253
-11,-59,9.254
-16,20,9.255
-20,36,9.256
-22,107,9.257
-23,142,9.258
-21,100,9.259
-13,79,9.26
-3,109,9.261
1,115,9.262
0,75,9.263
1,61,9.264
4,83,9.265
6,73,9.266
6,29,9.267
3,17,9.268
3,57,9.269
9,94,9.27
16,89,9.271
12,52,9.272
1,-4,9.273
-5,-70,9.274
3,-87,9.275
16,-22,9.276
16,65,9.277
4,99,9.278
5,52,9.279
23,-33,9.28
38,-100,9.281
35,-111,9.282
19,-67,9.283
5,-10,9.284
-1,19,9.285
-9,22,9.286
-17,18,9.287
-20,10,9.288
-18,-5,9.289
-17,-12,9.29
-18,-1,9.291
-17,5,9.292
-14,-3,9.293
-11,-19,9.294
-7,-25,9.295
-3,-26,9.296
5,-32,9.297
15,-15,9.298
23,63,9.299
27,206,9.3
23,368,9.301
9,428,9.302
0,244,9.303
5,-166,9.304
18,-541,9.305
18,-578,9.306
1,-289,9.307
-14,30,9.308
-15,142,9.309
-11,59,9.31
-12,-102,9.311
-14,-252,9.312
-9,-294,9.313
3,-165,9.314
11,32,9.315
8,113,9.316
0,53,9.317
-4,7,9.318
-5,30,9.319
-1,40,9.32
1,27,9.321
0,89,9.322
2,217,9.323
7,265,9.324
9,191,9.325
6,106,9.326
3,56,9.327
8,-26,9.328
12,-145,9.329
8,-176,9.33
4,-76,9.331
8,32,9.332
16,52,9.333
17,21,9.334
12,13,9.335
0,14,9.336
-11,-17,9.337
-18,-39,9.338
-14,-18,9.339
3,5,9.34
21,-32,9.341
25,-105,9.342
17,-132,9.343
8,-76,9.344
1,15,9.345
-4,68,9.346
-10,64,9.347
-16,41,9.348
-16,33,9.349
-9,31,9.35
1,15,9.351
12,-2,9.352
16,7,9.353
13,34,9.354
11,57,9.355
6,78,9.356
0,111,9.357
-6,136,9.358
-7,112,9.359
-3,47,9.36
-7,-31,9.361
-22,-129,9.362
-33,-237,9.363
-26,-267,9.364
-4,-157,9.365
20,0,9.366
35,58,9.367
40,24,9.368
34,19,9.369
19,75,9.37
8,97,9.371
12,49,9.372
23,2,9.373
23,0,9.374
8,8,9.375
-6,3,9.376
-5,3,9.377
4,27,9.378
13,53,9.379
15,103,9.38
13,213,9.381
10,311,9.382
3,235,9.383
-1,-63,9.384
-3,-389,9.385
-8,-495,9.386
-13,-361,9.387
-18,-173,9.388
-19,-72,9.389
-17,-21,9.39
-12,58,9.391
-3,144,9.392
2,159,9.393
0,84,9.394
-1,1,9.395
-3,-16,9.396
-8,16,9.397
-11,29,9.398
-5,-14,9.399
7,-57,9.4
11,3,9.401
4,197,9.402
-2,383,9.403
-1,333,9.404
-1,-12,9.405
-4,-403,9.406
-2,-513,9.407
6,-315,9.408
11,-97,9.409
10,-60,9.41
11,-92,9.411
16,-28,9.412
17,79,9.413
15,103,9.414
22,66,9.415
30,80,9.416
27,132,9.417
13,134,9.418
6,96,9.419
13,97,9.42
17,113,9.421
7,66,9.422
-1,-23,9.423
-4,-54,9.424
-5,-10,9.425
-7,29,9.426
-5,17,9.427
-2,-7,9.428
-7,-9,9.429
-19,-5,9.43
-22,-8,9.431
-17,-13,9.432
-12,-16,9.433
-13,-15,9.434
-12,20,9.435
-7,93,9.436
-1,147,9.437
3,96,9.438
8,-53,9.439
12,-171,9.44
9,-153,9.441
3,-48,9.442
0,13,9.443
3,-2,9.444
8,-22,9.445
16,3,9.446
23,37,9.447
23,37,9.448
13,2,9.449
2,-43,9.45
0,-80,9.451
4,-86,9.452
4,-52,9.453
-1,-7,9.454
-2,10,9.455
-2,7,9.456
-4,11,9.457
-8,22,9.458
-9,12,9.459
-4,-5,9.46
1,-7,9.461
2,3,9.462
3,9,9.463
2,19,9.464
-3,31,9.465
-8,23,9.466
-2,-11,9.467
14,-32,9.468
25,-10,9.469
25,29,9.47
20,33,9.471
17,-3,9.472
14,-39,9.473
10,-247,9.474
4,-185,9.475
0,-91,9.476
-1,95,9.477
0,250,9.478
11,299,9.479
20,284,9.48
20,80,9.481
19,-74,9.482
15,-82,9.483
10,-58,9.484
4,62,9.485
0,121,9.486
-2,-13,9.487
-5,-141,9.488
-5,-237,9.489
-5,-261,9.49
-7,-69,9.491
-10,99,9.492
-10,191,9.493
10,-133,9.494
4,-100,9.495
0,-49,9.496
-1,52,9.497
0,136,9.498
11,162,9.499
20,154,9.5
20,44,9.501
19,-40,9.502
15,-44,9.503
10,-31,9.504
4,34,9.505
0,66,9.506
-2,-7,9.507
-5,-76,9.508
-5,-128,9.509
-5,-141,9.51
-7,-37,9.511
-10,54,9.512
-10,104,9.513
-7,123,9.514
-2,26,9.515
6,-48,9.516
10,-68,9.517
6,-42,9.518
3,0,9.519
4,35,9.52
5,40,9.521
1,16,9.522
-2,-11,9.523
-5,-17,9.524
-11,-7,9.525
-17,9,9.526
-16,33,9.527
-9,51,9.528
-3,55,9.529
1,48,9.53
10,47,9.531
22,49,9.532
30,37,9.533
25,7,9.534
13,-21,9.535
2,-37,9.536
0,-54,9.537
3,-64,9.538
9,-53,9.539
14,-31,9.54
14,-17,9.541
6,-14,9.542
-3,-10,9.543
-10,0,9.544
-17,9,9.545
-22,16,9.546
-23,17,9.547
-17,-5,9.548
-3,-37,9.549
11,-37,9.55
20,8,9.551
19,51,9.552
19,47,9.553
21,13,9.554
26,0,9.555
22,7,9.556
8,-8,9.557
-8,-39,9.558
-17,-55,9.559
-15,-57,9.56
-6,-76,9.561
9,-99,9.562
23,-74,9.563
27,6,9.564
21,78,9.565
15,88,9.566
10,64,9.567
3,60,9.568
-5,77,9.569
-12,79,9.57
-14,53,9.571
-14,20,9.572
-17,-9,9.573
-20,-54,9.574
-15,-108,9.575
-5,-127,9.576
1,-81,9.577
2,4,9.578
4,52,9.579
7,40,9.58
4,22,9.581
-9,41,9.582
-25,66,9.583
-35,51,9.584
-33,3,9.585
-24,-24,9.586
-12,-19,9.587
2,3,9.588
16,35,9.589
31,69,9.59
45,72,9.591
50,30,9.592
46,-10,9.593
33,-19,9.594
21,-7,9.595
13,-16,9.596
3,-42,9.597
-7,-56,9.598
-11,-65,9.599
-10,-84,9.6
-7,-93,9.601
-6,-69,9.602
-5,-30,9.603
-5,-10,9.604
-4,-5,9.605
1,10,9.606
13,30,9.607
23,35,9.608
24,20,9.609
15,9,9.61
1,10,9.611
-10,17,9.612
-15,29,9.613
-14,3,9.614
-12,-2,9.615
-15,-5,9.616
-12,-5,9.617
9,-4,9.618
38,-2,9.619
50,1,9.62
38,7,9.621
23,9,9.622
18,4,9.623
14,-2,9.624
1,-12,9.625
-7,-18,9.626
-5,-7,9.627
-4,-2,9.628
-18,-12,9.629
-33,-23,9.63
-40,-28,9.631
-40,-37,9.632
-35,-54,9.633
22,18,9.634
21,8,9.635
21,1,9.636
29,1,9.637
32,3,9.638
21,7,9.639
11,14,9.64
9,26,9.641
8,32,9.642
11,21,9.643
16,7,9.644
26,-17,9.645
33,-30,9.646
25,-4,9.647
14,8,9.648
-3,-17,9.649
-21,-40,9.65
-35,-52,9.651
-46,-70,9.652
-42,-107,9.653
18,-157,9.654
17,-214,9.655
17,-153,9.656
23,9,9.657
25,138,9.658
17,138,9.659
10,82,9.66
8,85,9.661
7,134,9.662
10,142,9.663
13,98,9.664
21,60,9.665
26,20,9.666
20,-86,9.667
12,-243,9.668
0,-331,9.669
-14,-257,9.67
-24,-46,9.671
-33,184,9.672
-30,312,9.673
22,289,9.674
21,173,9.675
21,82,9.676
29,63,9.677
32,62,9.678
21,27,9.679
11,-1,9.68
9,24,9.681
8,62,9.682
11,45,9.683
16,-17,9.684
26,-70,9.685
33,-84,9.686
25,-78,9.687
14,-79,9.688
-3,-105,9.689
-21,-175,9.69
-35,-262,9.691
-46,-274,9.692
-42,-143,9.693
-32,104,9.694
-6,303,9.695
9,319,9.696
8,188,9.697
6,70,9.698
27,36,9.699
61,32,9.7
76,-3,9.701
53,-42,9.702
8,-43,9.703
-26,-22,9.704
-37,-19,9.705
-42,-30,9.706
-53,-38,9.707
-65,-45,9.708
-58,-62,9.709
-28,-71,9.71
10,-62,9.711
40,-50,9.712
61,-44,9.713
98,-37,9.714
127,-15,9.715
130,6,9.716
96,5,9.717
43,-4,9.718
12,-13,9.719
13,-30,9.72
13,-56,9.721
-15,-66,9.722
-51,-38,9.723
-62,11,9.724
-45,42,9.725
-36,44,9.726
-53,37,9.727
-71,37,9.728
-64,49,9.729
-43,61,9.73
-25,66,9.731
-13,62,9.732
0,56,9.733
3,33,9.734
0,-15,9.735
-1,-61,9.736
3,-97,9.737
1,-106,9.738
-20,-31,9.739
-45,30,9.74
-81,48,9.741
-104,58,9.742
-90,40,9.743
-69,27,9.744
-31,32,9.745
7,41,9.746
46,61,9.747
86,67,9.748
130,31,9.749
153,-3,9.75
114,-29,9.751
76,-51,9.752
46,-55,9.753
23,-57,9.754
42,-47,9.755
58,-31,9.756
43,-26,9.757
1,-27,9.758
-15,-11,9.759
21,14,9.76
