Deltoid,Bicep,Time
-10.0,-29.0,0.0
-12.0,-31.0,0.001
-12.0,-7.0,0.002
-1.0,16.0,0.003
7.0,18.0,0.004
3.0,7.0,0.005
4.0,3.0,0.006
24.0,7.0,0.007
41.0,3.0,0.008
26.0,-10.0,0.009
-8.0,-21.0,0.01
-18.0,-19.0,0.011
-3.0,-6.0,0.012
-1.0,8.0,0.013
-20.0,10.0,0.014
-25.0,4.0,0.015
-4.0,-3.0,0.016
14.0,-5.0,0.017
9.0,-3.0,0.018
5.0,-4.0,0.019
13.0,-6.0,0.02
19.0,-8.0,0.021
15.0,-5.0,0.022
14.0,-2.0,0.023
22.0,-1.0,0.024
23.0,4.0,0.025
11.0,9.0,0.026
4.0,6.0,0.027
11.0,-2.0,0.028
15.0,-7.0,0.029
11.0,0.0,0.03
8.0,9.0,0.031
13.0,11.0,0.032
13.0,8.0,0.033
9.0,8.0,0.034
6.0,8.0,0.035
4.0,1.0,0.036
-3.0,-5.0,0.037
-14.0,-5.0,0.038
-15.0,0.0,0.039
-11.0,-1.0,0.04
-14.0,-10.0,0.041
-22.0,-12.0,0.042
-22.0,-8.0,0.043
-15.0,-6.0,0.044
-10.0,-10.0,0.045
0.0,-9.0,0.046
23.0,-2.0,0.047
40.0,1.0,0.048
28.0,-1.0,0.049
1.0,0.0,0.05
-9.0,5.0,0.051
0.0,8.0,0.052
8.0,5.0,0.053
-5.0,5.0,0.054
-24.0,8.0,0.055
-31.0,8.0,0.056
-26.0,6.0,0.057
-17.0,-1.0,0.058
-3.0,-4.0,0.059
5.0,-5.0,0.06
12.0,-6.0,0.061
16.0,-3.0,0.062
22.0,-4.0,0.063
28.0,-6.0,0.064
26.0,-6.0,0.065
16.0,0.0,0.066
11.0,8.0,0.067
19.0,12.0,0.068
27.0,15.0,0.069
22.0,12.0,0.07
11.0,5.0,0.071
4.0,1.0,0.072
5.0,1.0,0.073
-5.0,-1.0,0.074
-26.0,-13.0,0.075
-43.0,-26.0,0.076
-40.0,-20.0,0.077
-20.0,-2.0,0.078
-5.0,7.0,0.079
-4.0,-3.0,0.08
-9.0,-21.0,0.081
-2.0,-24.0,0.082
14.0,-12.0,0.083
22.0,-2.0,0.084
19.0,1.0,0.085
14.0,4.0,0.086
13.0,6.0,0.087
13.0,4.0,0.088
13.0,-2.0,0.089
16.0,-6.0,0.09
22.0,-4.0,0.091
25.0,2.0,0.092
23.0,10.0,0.093
18.0,22.0,0.094
13.0,28.0,0.095
6.0,27.0,0.096
2.0,21.0,0.097
0.0,11.0,0.098
-5.0,3.0,0.099
-25.0,-5.0,0.1
-43.0,-14.0,0.101
-38.0,-13.0,0.102
-12.0,-4.0,0.103
5.0,0.0,0.104
-6.0,0.0,0.105
-26.0,0.0,0.106
-27.0,-1.0,0.107
-8.0,-3.0,0.108
9.0,-4.0,0.109
16.0,2.0,0.11
25.0,4.0,0.111
38.0,-5.0,0.112
40.0,-13.0,0.113
27.0,-11.0,0.114
12.0,-1.0,0.115
5.0,3.0,0.116
10.0,3.0,0.117
15.0,3.0,0.118
19.0,7.0,0.119
19.0,3.0,0.12
13.0,-8.0,0.121
5.0,-11.0,0.122
2.0,-8.0,0.123
-1.0,-1.0,0.124
-10.0,5.0,0.125
-13.0,11.0,0.126
-7.0,5.0,0.127
-3.0,-13.0,0.128
-7.0,-26.0,0.129
-10.0,-16.0,0.13
0.0,2.0,0.131
13.0,6.0,0.132
13.0,0.0,0.133
3.0,-1.0,0.134
-5.0,5.0,0.135
-12.0,5.0,0.136
-18.0,0.0,0.137
-19.0,-3.0,0.138
-6.0,2.0,0.139
9.0,9.0,0.14
8.0,8.0,0.141
-6.0,4.0,0.142
-13.0,-2.0,0.143
-7.0,-7.0,0.144
-3.0,-12.0,0.145
0.0,-18.0,0.146
12.0,-18.0,0.147
32.0,-3.0,0.148
42.0,25.0,0.149
27.0,39.0,0.15
2.0,21.0,0.151
-4.0,-14.0,0.152
12.0,-26.0,0.153
34.0,-10.0,0.154
36.0,-5.0,0.155
11.0,-25.0,0.156
-23.0,-36.0,0.157
-51.0,-11.0,0.158
-53.0,30.0,0.159
-26.0,34.0,0.16
12.0,-1.0,0.161
38.0,-23.0,0.162
41.0,-8.0,0.163
33.0,12.0,0.164
32.0,12.0,0.165
39.0,3.0,0.166
38.0,6.0,0.167
24.0,12.0,0.168
-1.0,7.0,0.169
-21.0,-8.0,0.17
-31.0,-20.0,0.171
-32.0,-20.0,0.172
-33.0,-7.0,0.173
-44.0,11.0,0.174
-65.0,16.0,0.175
-78.0,3.0,0.176
-66.0,-10.0,0.177
-34.0,-13.0,0.178
3.0,-8.0,0.179
27.0,-10.0,0.18
42.0,-23.0,0.181
50.0,-19.0,0.182
45.0,5.0,0.183
26.0,31.0,0.184
2.0,31.0,0.185
-11.0,14.0,0.186
-7.0,5.0,0.187
4.0,12.0,0.188
10.0,17.0,0.189
10.0,-2.0,0.19
16.0,-27.0,0.191
35.0,-26.0,0.192
60.0,8.0,0.193
67.0,41.0,0.194
49.0,42.0,0.195
16.0,26.0,0.196
-10.0,17.0,0.197
-35.0,11.0,0.198
-55.0,-1.0,0.199
-65.0,-21.0,0.2
-53.0,-36.0,0.201
-22.0,-40.0,0.202
13.0,-39.0,0.203
34.0,-32.0,0.204
38.0,-12.0,0.205
28.0,8.0,0.206
23.0,12.0,0.207
32.0,9.0,0.208
63.0,22.0,0.209
95.0,45.0,0.21
92.0,39.0,0.211
43.0,1.0,0.212
-21.0,-28.0,0.213
-54.0,-18.0,0.214
-51.0,5.0,0.215
-54.0,11.0,0.216
-82.0,-3.0,0.217
-120.0,-22.0,0.218
-125.0,-40.0,0.219
-93.0,-56.0,0.22
-48.0,-57.0,0.221
-8.0,-31.0,0.222
22.0,4.0,0.223
31.0,18.0,0.224
19.0,15.0,0.225
3.0,11.0,0.226
0.0,10.0,0.227
7.0,-1.0,0.228
16.0,-15.0,0.229
24.0,-9.0,0.23
36.0,17.0,0.231
51.0,37.0,0.232
63.0,32.0,0.233
76.0,12.0,0.234
87.0,-1.0,0.235
91.0,-3.0,0.236
85.0,11.0,0.237
66.0,35.0,0.238
33.0,54.0,0.239
-7.0,47.0,0.24
-37.0,12.0,0.241
-53.0,-12.0,0.242
-57.0,-13.0,0.243
-49.0,-12.0,0.244
-27.0,-23.0,0.245
-2.0,-32.0,0.246
11.0,-19.0,0.247
14.0,6.0,0.248
33.0,22.0,0.249
73.0,24.0,0.25
99.0,29.0,0.251
87.0,33.0,0.252
46.0,25.0,0.253
4.0,5.0,0.254
-21.0,-8.0,0.255
-28.0,-15.0,0.256
-38.0,-24.0,0.257
-69.0,-45.0,0.258
-90.0,-57.0,0.259
-58.0,-45.0,0.26
14.0,-21.0,0.261
49.0,-2.0,0.262
11.0,9.0,0.263
-49.0,23.0,0.264
-85.0,34.0,0.265
-106.0,27.0,0.266
-127.0,-8.0,0.267
-115.0,-51.0,0.268
-57.0,-71.0,0.269
2.0,-53.0,0.27
40.0,-15.0,0.271
92.0,11.0,0.272
179.0,19.0,0.273
256.0,27.0,0.274
289.0,58.0,0.275
299.0,99.0,0.276
300.0,103.0,0.277
244.0,49.0,0.278
103.0,-17.0,0.279
-74.0,-23.0,0.28
-212.0,21.0,0.281
-299.0,36.0,0.282
-351.0,-27.0,0.283
-354.0,-105.0,0.284
-297.0,-110.0,0.285
-207.0,-51.0,0.286
-124.0,0.0,0.287
-52.0,3.0,0.288
5.0,-16.0,0.289
23.0,-32.0,0.29
8.0,-40.0,0.291
14.0,-39.0,0.292
71.0,-28.0,0.293
131.0,-10.0,0.294
143.0,18.0,0.295
121.0,46.0,0.296
106.0,52.0,0.297
96.0,24.0,0.298
70.0,0.0,0.299
18.0,23.0,0.3
-47.0,53.0,0.301
-97.0,27.0,0.302
-91.0,-38.0,0.303
-21.0,-51.0,0.304
54.0,7.0,0.305
62.0,54.0,0.306
17.0,29.0,0.307
-6.0,-10.0,0.308
7.0,7.0,0.309
1.0,46.0,0.31
-48.0,37.0,0.311
-92.0,-13.0,0.312
-93.0,-45.0,0.313
-80.0,-40.0,0.314
-71.0,-26.0,0.315
-30.0,-14.0,0.316
45.0,4.0,0.317
86.0,125.0,0.318
48.0,52.0,0.319
-7.0,-1.0,0.32
20.0,4.0,0.321
113.0,6.0,0.322
168.0,-7.0,0.323
143.0,-19.0,0.324
99.0,-23.0,0.325
83.0,-26.0,0.326
63.0,-26.0,0.327
-15.0,-26.0,0.328
-141.0,-28.0,0.329
-231.0,-24.0,0.33
-224.0,1.0,0.331
-145.0,13.0,0.332
-78.0,-17.0,0.333
-61.0,-49.0,0.334
-28.0,-83.0,0.335
83.0,-94.0,0.336
217.0,-31.0,0.337
267.0,124.0,0.338
194.0,52.0,0.339
100.0,-1.0,0.34
84.0,4.0,0.341
117.0,6.0,0.342
101.0,-7.0,0.343
3.0,-19.0,0.344
-108.0,-23.0,0.345
-154.0,-26.0,0.346
-120.0,-26.0,0.347
-66.0,-26.0,0.348
-37.0,-28.0,0.349
-6.0,-24.0,0.35
61.0,1.0,0.351
108.0,13.0,0.352
40.0,-17.0,0.353
-127.0,-49.0,0.354
-253.0,-83.0,0.355
-235.0,-94.0,0.356
-122.0,-31.0,0.357
5.0,19.0,0.358
90.0,7.0,0.359
126.0,-3.0,0.36
129.0,23.0,0.361
114.0,50.0,0.362
83.0,36.0,0.363
17.0,4.0,0.364
-65.0,-1.0,0.365
-95.0,23.0,0.366
-38.0,51.0,0.367
35.0,73.0,0.368
54.0,91.0,0.369
66.0,99.0,0.37
143.0,83.0,0.371
236.0,52.0,0.372
248.0,29.0,0.373
199.0,27.0,0.374
173.0,32.0,0.375
153.0,1.0,0.376
70.0,-77.0,0.377
-64.0,-173.0,0.378
-138.0,-181.0,0.379
-143.0,-79.0,0.38
-197.0,18.0,0.381
-337.0,1.0,0.382
-423.0,-91.0,0.383
-342.0,-120.0,0.384
-163.0,-34.0,0.385
-16.0,72.0,0.386
64.0,103.0,0.387
111.0,81.0,0.388
124.0,77.0,0.389
78.0,90.0,0.39
8.0,48.0,0.391
-41.0,-56.0,0.392
-94.0,-130.0,0.393
-187.0,-104.0,0.394
-269.0,-25.0,0.395
-235.0,7.0,0.396
-94.0,-22.0,0.397
30.0,-69.0,0.398
92.0,-81.0,0.399
59.0,-48.0,0.4
18.0,19.0,0.401
10.0,93.0,0.402
40.0,110.0,0.403
117.0,44.0,0.404
205.0,-40.0,0.405
206.0,-61.0,0.406
105.0,-27.0,0.407
18.0,-10.0,0.408
38.0,-24.0,0.409
91.0,-17.0,0.41
73.0,14.0,0.411
33.0,19.0,0.412
72.0,4.0,0.413
157.0,32.0,0.414
176.0,94.0,0.415
110.0,94.0,0.416
52.0,20.0,0.417
46.0,-39.0,0.418
80.0,3.0,0.419
138.0,93.0,0.42
185.0,121.0,0.421
155.0,69.0,0.422
40.0,-18.0,0.423
-72.0,-95.0,0.424
-115.0,-118.0,0.425
-104.0,-53.0,0.426
-73.0,59.0,0.427
-41.0,115.0,0.428
-66.0,68.0,0.429
-171.0,-15.0,0.43
-246.0,-61.0,0.431
-176.0,-75.0,0.432
-43.0,-77.0,0.433
-9.0,-53.0,0.434
-41.0,6.0,0.435
16.0,56.0,0.436
142.0,58.0,0.437
171.0,20.0,0.438
64.0,-4.0,0.439
-41.0,-6.0,0.44
-75.0,-10.0,0.441
-137.0,-30.0,0.442
-234.0,-56.0,0.443
-234.0,-76.0,0.444
-125.0,-91.0,0.445
-72.0,-100.0,0.446
-123.0,-81.0,0.447
-116.0,-14.0,0.448
27.0,71.0,0.449
155.0,119.0,0.45
149.0,108.0,0.451
91.0,72.0,0.452
58.0,31.0,0.453
-17.0,-23.0,0.454
-174.0,-64.0,0.455
-291.0,-51.0,0.456
-253.0,1.0,0.457
-88.0,22.0,0.458
109.0,0.0,0.459
298.0,1.0,0.46
448.0,53.0,0.461
487.0,93.0,0.462
406.0,79.0,0.463
303.0,58.0,0.464
234.0,56.0,0.465
124.0,21.0,0.466
-101.0,-69.0,0.467
-360.0,-138.0,0.468
-492.0,-121.0,0.469
-432.0,-62.0,0.47
-257.0,-36.0,0.471
-86.0,-45.0,0.472
9.0,-58.0,0.473
31.0,-65.0,0.474
30.0,-49.0,0.475
63.0,22.0,0.476
126.0,117.0,0.477
163.0,162.0,0.478
153.0,120.0,0.479
142.0,52.0,0.48
180.0,21.0,0.481
223.0,11.0,0.482
207.0,1.0,0.483
137.0,19.0,0.484
70.0,65.0,0.485
16.0,72.0,0.486
-51.0,6.0,0.487
-101.0,-55.0,0.488
-74.0,-41.0,0.489
-7.0,-6.0,0.49
-11.0,-32.0,0.491
-104.0,-93.0,0.492
-166.0,-96.0,0.493
-117.0,-34.0,0.494
-21.0,24.0,0.495
18.0,42.0,0.496
2.0,39.0,0.497
-18.0,30.0,0.498
-34.0,-1.0,0.499
-68.0,-46.0,0.5
-95.0,-64.0,0.501
-77.0,-30.0,0.502
-31.0,9.0,0.503
-4.0,-4.0,0.504
9.0,-56.0,0.505
49.0,-63.0,0.506
121.0,16.0,0.507
179.0,103.0,0.508
191.0,101.0,0.509
172.0,18.0,0.51
140.0,-39.0,0.511
100.0,-22.0,0.512
34.0,12.0,0.513
-82.0,7.0,0.514
-253.0,-20.0,0.515
-426.0,-35.0,0.516
-507.0,-41.0,0.517
-427.0,-51.0,0.518
-234.0,-38.0,0.519
-64.0,-13.0,0.52
33.0,44.0,0.521
111.0,81.0,0.522
124.0,51.0,0.523
124.0,24.0,0.524
84.0,4.0,0.525
45.0,-13.0,0.526
8.0,-23.0,0.527
-15.0,-34.0,0.528
5.0,-47.0,0.529
47.0,-48.0,0.53
151.0,-10.0,0.531
249.0,27.0,0.532
326.0,64.0,0.533
359.0,91.0,0.534
257.0,85.0,0.535
147.0,72.0,0.536
9.0,37.0,0.537
-130.0,-11.0,0.538
-259.0,-95.0,0.539
-319.0,-127.0,0.54
-268.0,-85.0,0.541
-134.0,-32.0,0.542
29.0,-26.0,0.543
175.0,-30.0,0.544
283.0,22.0,0.545
326.0,100.0,0.546
285.0,115.0,0.547
167.0,49.0,0.548
12.0,-17.0,0.549
-137.0,-23.0,0.55
-253.0,2.0,0.551
-304.0,7.0,0.552
-288.0,-13.0,0.553
-252.0,-34.0,0.554
-243.0,-46.0,0.555
-246.0,-57.0,0.556
-193.0,-60.0,0.557
-53.0,-45.0,0.558
101.0,-5.0,0.559
177.0,36.0,0.56
177.0,41.0,0.561
152.0,19.0,0.562
129.0,1.0,0.563
79.0,7.0,0.564
-15.0,15.0,0.565
-115.0,5.0,0.566
-155.0,-21.0,0.567
-92.0,-29.0,0.568
20.0,-7.0,0.569
71.0,14.0,0.57
21.0,8.0,0.571
-23.0,-11.0,0.572
58.0,-12.0,0.573
210.0,8.0,0.574
275.0,19.0,0.575
197.0,15.0,0.576
66.0,13.0,0.577
-75.0,-4.0,0.578
-210.0,-50.0,0.579
-283.0,-87.0,0.58
-205.0,-58.0,0.581
-9.0,21.0,0.582
154.0,60.0,0.583
212.0,46.0,0.584
239.0,53.0,0.585
279.0,91.0,0.586
268.0,79.0,0.587
160.0,7.0,0.588
17.0,-28.0,0.589
-99.0,-3.0,0.59
-204.0,-15.0,0.591
-298.0,-88.0,0.592
-315.0,-108.0,0.593
-224.0,-12.0,0.594
-103.0,79.0,0.595
-29.0,56.0,0.596
7.0,-5.0,0.597
23.0,0.0,0.598
0.0,42.0,0.599
-24.0,15.0,0.6
-50.0,-65.0,0.601
-43.0,-92.0,0.602
62.0,-41.0,0.603
142.0,16.0,0.604
142.0,38.0,0.605
117.0,40.0,0.606
19.0,25.0,0.607
-61.0,-7.0,0.608
-86.0,-28.0,0.609
-78.0,-22.0,0.61
27.0,-11.0,0.611
122.0,-10.0,0.612
179.0,16.0,0.613
216.0,65.0,0.614
192.0,76.0,0.615
137.0,23.0,0.616
-11.0,-27.0,0.617
-156.0,-43.0,0.618
-248.0,-55.0,0.619
-261.0,-89.0,0.62
-212.0,-92.0,0.621
-125.0,-14.0,0.622
-27.0,75.0,0.623
46.0,84.0,0.624
74.0,30.0,0.625
56.0,0.0,0.626
21.0,14.0,0.627
5.0,17.0,0.628
23.0,-18.0,0.629
54.0,-48.0,0.63
87.0,-27.0,0.631
138.0,35.0,0.632
218.0,97.0,0.633
272.0,132.0,0.634
225.0,136.0,0.635
84.0,102.0,0.636
-57.0,28.0,0.637
-155.0,-82.0,0.638
-217.0,-166.0,0.639
-265.0,-168.0,0.64
-288.0,-107.0,0.641
-260.0,-47.0,0.642
-185.0,-30.0,0.643
-93.0,-30.0,0.644
-7.0,-7.0,0.645
61.0,27.0,0.646
94.0,32.0,0.647
89.0,8.0,0.648
82.0,-2.0,0.649
110.0,9.0,0.65
164.0,8.0,0.651
192.0,-4.0,0.652
157.0,2.0,0.653
66.0,16.0,0.654
-35.0,1.0,0.655
-98.0,-31.0,0.656
-101.0,-29.0,0.657
-72.0,1.0,0.658
-51.0,13.0,0.659
-49.0,22.0,0.66
-33.0,20.0,0.661
3.0,17.0,0.662
25.0,10.0,0.663
13.0,4.0,0.664
-5.0,1.0,0.665
8.0,-1.0,0.666
41.0,1.0,0.667
62.0,5.0,0.668
66.0,12.0,0.669
62.0,18.0,0.67
55.0,21.0,0.671
40.0,22.0,0.672
23.0,16.0,0.673
9.0,9.0,0.674
7.0,3.0,0.675
18.0,0.0,0.676
41.0,3.0,0.677
8.0,8.0,0.678
-29.0,10.0,0.679
-65.0,0.0,0.68
-83.0,-7.0,0.681
-92.0,-4.0,0.682
-63.0,-6.0,0.683
-34.0,-14.0,0.684
-5.0,-20.0,0.685
21.0,-19.0,0.686
30.0,-23.0,0.687
32.0,-24.0,0.688
19.0,-17.0,0.689
8.0,-7.0,0.69
12.0,0.0,0.691
19.0,7.0,0.692
35.0,15.0,0.693
50.0,19.0,0.694
68.0,13.0,0.695
84.0,5.0,0.696
95.0,2.0,0.697
7.0,-2.0,0.698
-10.0,-8.0,0.699
-26.0,-13.0,0.7
-34.0,-17.0,0.701
-38.0,-20.0,0.702
-25.0,-20.0,0.703
-12.0,-13.0,0.704
1.0,0.0,0.705
13.0,8.0,0.706
17.0,4.0,0.707
18.0,-1.0,0.708
12.0,-1.0,0.709
7.0,3.0,0.71
9.0,8.0,0.711
12.0,12.0,0.712
19.0,12.0,0.713
26.0,3.0,0.714
34.0,-3.0,0.715
41.0,2.0,0.716
46.0,14.0,0.717
40.0,12.0,0.718
-5.0,-5.0,0.719
-29.0,-15.0,0.72
-20.0,-6.0,0.721
-6.0,13.0,0.722
-13.0,17.0,0.723
-34.0,0.0,0.724
-46.0,-15.0,0.725
-39.0,-14.0,0.726
-24.0,-3.0,0.727
-7.0,-1.0,0.728
13.0,-6.0,0.729
45.0,-1.0,0.73
69.0,12.0,0.731
60.0,6.0,0.732
20.0,-19.0,0.733
-24.0,-32.0,0.734
-44.0,-9.0,0.735
-40.0,18.0,0.736
-28.0,21.0,0.737
-18.0,-3.0,0.738
-10.0,-14.0,0.739
-3.0,-5.0,0.74
4.0,0.0,0.741
10.0,-5.0,0.742
12.0,-5.0,0.743
5.0,6.0,0.744
-9.0,14.0,0.745
-24.0,9.0,0.746
-34.0,-3.0,0.747
-35.0,-13.0,0.748
-25.0,-18.0,0.749
-6.0,-16.0,0.75
22.0,-6.0,0.751
48.0,3.0,0.752
61.0,5.0,0.753
55.0,1.0,0.754
41.0,1.0,0.755
36.0,6.0,0.756
38.0,11.0,0.757
32.0,11.0,0.758
18.0,7.0,0.759
4.0,-1.0,0.76
-6.0,-11.0,0.761
-15.0,-10.0,0.762
-14.0,-4.0,0.763
-14.0,-2.0,0.764
-19.0,-6.0,0.765
-20.0,-6.0,0.766
-8.0,1.0,0.767
2.0,7.0,0.768
9.0,4.0,0.769
13.0,0.0,0.77
6.0,3.0,0.771
1.0,8.0,0.772
0.0,6.0,0.773
-3.0,0.0,0.774
-8.0,0.0,0.775
-10.0,6.0,0.776
2.0,13.0,0.777
11.0,11.0,0.778
0.0,4.0,0.779
-7.0,-1.0,0.78
-5.0,-5.0,0.781
-5.0,-5.0,0.782
-8.0,-3.0,0.783
0.0,-2.0,0.784
16.0,2.0,0.785
25.0,5.0,0.786
23.0,4.0,0.787
18.0,-1.0,0.788
13.0,-5.0,0.789
4.0,-4.0,0.79
-11.0,-7.0,0.791
-26.0,-15.0,0.792
-30.0,-16.0,0.793
-20.0,-4.0,0.794
-5.0,11.0,0.795
6.0,10.0,0.796
14.0,-1.0,0.797
18.0,-2.0,0.798
22.0,9.0,0.799
22.0,12.0,0.8
22.0,-3.0,0.801
22.0,-9.0,0.802
23.0,-1.0,0.803
15.0,5.0,0.804
-2.0,-4.0,0.805
-20.0,-13.0,0.806
-24.0,-10.0,0.807
-9.0,-3.0,0.808
17.0,-2.0,0.809
36.0,0.0,0.81
31.0,6.0,0.811
7.0,7.0,0.812
-19.0,-3.0,0.813
-29.0,-13.0,0.814
-27.0,-14.0,0.815
-24.0,-7.0,0.816
-30.0,1.0,0.817
-33.0,7.0,0.818
-19.0,10.0,0.819
3.0,10.0,0.82
14.0,11.0,0.821
12.0,9.0,0.822
15.0,3.0,0.823
22.0,-2.0,0.824
15.0,-2.0,0.825
-9.0,0.0,0.826
-25.0,-3.0,0.827
-19.0,-7.0,0.828
-3.0,-4.0,0.829
3.0,3.0,0.83
0.0,3.0,0.831
-3.0,0.0,0.832
-8.0,-4.0,0.833
-19.0,-8.0,0.834
-23.0,-12.0,0.835
-15.0,-8.0,0.836
4.0,2.0,0.837
19.0,5.0,0.838
28.0,-5.0,0.839
36.0,-12.0,0.84
40.0,-7.0,0.841
43.0,0.0,0.842
38.0,-3.0,0.843
33.0,-5.0,0.844
28.0,3.0,0.845
24.0,13.0,0.846
23.0,11.0,0.847
21.0,6.0,0.848
15.0,6.0,0.849
10.0,5.0,0.85
7.0,3.0,0.851
4.0,3.0,0.852
-1.0,6.0,0.853
-5.0,6.0,0.854
-1.0,2.0,0.855
0.0,0.0,0.856
-7.0,1.0,0.857
-14.0,-2.0,0.858
-20.0,-8.0,0.859
-20.0,-10.0,0.86
-20.0,-9.0,0.861
-17.0,-8.0,0.862
-3.0,-8.0,0.863
12.0,-7.0,0.864
12.0,-3.0,0.865
2.0,-1.0,0.866
0.0,-4.0,0.867
9.0,-4.0,0.868
12.0,0.0,0.869
2.0,4.0,0.87
-4.0,5.0,0.871
-2.0,5.0,0.872
-1.0,5.0,0.873
-4.0,3.0,0.874
-3.0,0.0,0.875
0.0,-2.0,0.876
0.0,-2.0,0.877
-6.0,-3.0,0.878
-6.0,-3.0,0.879
-3.0,-4.0,0.88
-5.0,-6.0,0.881
-8.0,-8.0,0.882
-2.0,-5.0,0.883
10.0,-3.0,0.884
13.0,-4.0,0.885
2.0,-5.0,0.886
-1.0,-5.0,0.887
4.0,-3.0,0.888
9.0,-1.0,0.889
7.0,0.0,0.89
4.0,1.0,0.891
7.0,7.0,0.892
8.0,7.0,0.893
5.0,1.0,0.894
4.0,-2.0,0.895
4.0,0.0,0.896
3.0,5.0,0.897
1.0,0.0,0.898
2.0,-5.0,0.899
3.0,-4.0,0.9
1.0,-1.0,0.901
2.0,0.0,0.902
13.0,-1.0,0.903
20.0,1.0,0.904
16.0,5.0,0.905
-3.0,4.0,0.906
-15.0,-3.0,0.907
-16.0,-6.0,0.908
-11.0,-1.0,0.909
-10.0,1.0,0.91
-8.0,1.0,0.911
-1.0,0.0,0.912
6.0,3.0,0.913
7.0,5.0,0.914
4.0,2.0,0.915
3.0,-2.0,0.916
6.0,-2.0,0.917
9.0,0.0,0.918
13.0,-1.0,0.919
13.0,-5.0,0.92
0.0,-10.0,0.921
-8.0,-10.0,0.922
0.0,-8.0,0.923
6.0,-4.0,0.924
4.0,-1.0,0.925
0.0,4.0,0.926
-9.0,9.0,0.927
-15.0,9.0,0.928
-7.0,7.0,0.929
0.0,5.0,0.93
7.0,4.0,0.931
10.0,-1.0,0.932
0.0,-4.0,0.933
-11.0,-4.0,0.934
-28.0,-2.0,0.935
-37.0,-4.0,0.936
-20.0,-3.0,0.937
0.0,-1.0,0.938
20.0,0.0,0.939
34.0,-1.0,0.94
36.0,-6.0,0.941
32.0,-5.0,0.942
36.0,-1.0,0.943
50.0,1.0,0.944
57.0,5.0,0.945
46.0,10.0,0.946
28.0,13.0,0.947
19.0,7.0,0.948
16.0,1.0,0.949
9.0,1.0,0.95
1.0,4.0,0.951
2.0,4.0,0.952
6.0,1.0,0.953
1.0,1.0,0.954
-12.0,2.0,0.955
-25.0,0.0,0.956
-33.0,0.0,0.957
-42.0,-2.0,0.958
-45.0,-4.0,0.959
-43.0,-6.0,0.96
-34.0,-10.0,0.961
-21.0,-10.0,0.962
-2.0,-7.0,0.963
20.0,-3.0,0.964
29.0,1.0,0.965
22.0,4.0,0.966
12.0,5.0,0.967
13.0,3.0,0.968
19.0,0.0,0.969
18.0,-4.0,0.97
11.0,-5.0,0.971
14.0,-2.0,0.972
22.0,4.0,0.973
23.0,8.0,0.974
14.0,6.0,0.975
6.0,2.0,0.976
8.0,0.0,0.977
5.0,-2.0,0.978
-10.0,-2.0,0.979
-32.0,-4.0,0.98
-46.0,-6.0,0.981
-45.0,-7.0,0.982
-32.0,-14.0,0.983
-17.0,-19.0,0.984
-3.0,-15.0,0.985
8.0,-7.0,0.986
15.0,-3.0,0.987
16.0,-6.0,0.988
12.0,-4.0,0.989
7.0,6.0,0.99
10.0,16.0,0.991
14.0,17.0,0.992
9.0,12.0,0.993
-1.0,7.0,0.994
-6.0,4.0,0.995
-4.0,0.0,0.996
-4.0,-1.0,0.997
-6.0,-4.0,0.998
-5.0,-4.0,0.999
1.0,-5.0,1.0
8.0,-8.0,1.001
8.0,-5.0,1.002
10.0,-3.0,1.003
11.0,0.0,1.004
0.0,0.0,1.005
-17.0,-2.0,1.006
-20.0,-3.0,1.007
-3.0,-4.0,1.008
16.0,-1.0,1.009
26.0,5.0,1.01
37.0,12.0,1.011
48.0,12.0,1.012
43.0,9.0,1.013
23.0,6.0,1.014
7.0,7.0,1.015
11.0,7.0,1.016
16.0,3.0,1.017
0.0,-5.0,1.018
-17.0,-10.0,1.019
-19.0,-7.0,1.02
-12.0,-5.0,1.021
-13.0,-5.0,1.022
-17.0,-7.0,1.023
-16.0,-8.0,1.024
-18.0,-5.0,1.025
-30.0,0.0,1.026
-33.0,-1.0,1.027
-14.0,-4.0,1.028
11.0,-6.0,1.029
21.0,-2.0,1.03
20.0,-1.0,1.031
18.0,-6.0,1.032
9.0,-6.0,1.033
-9.0,-1.0,1.034
-8.0,5.0,1.035
15.0,2.0,1.036
23.0,-1.0,1.037
-10.0,-2.0,1.038
-56.0,-2.0,1.039
-64.0,-5.0,1.04
-33.0,-7.0,1.041
-3.0,-4.0,1.042
14.0,0.0,1.043
35.0,1.0,1.044
62.0,1.0,1.045
73.0,1.0,1.046
60.0,-1.0,1.047
44.0,-2.0,1.048
51.0,7.0,1.049
65.0,22.0,1.05
61.0,24.0,1.051
38.0,11.0,1.052
16.0,1.0,1.053
4.0,2.0,1.054
0.0,7.0,1.055
-6.0,8.0,1.056
-8.0,8.0,1.057
-12.0,5.0,1.058
-18.0,2.0,1.059
-26.0,-5.0,1.06
-35.0,-17.0,1.061
-45.0,-21.0,1.062
-54.0,-18.0,1.063
-52.0,-13.0,1.064
-40.0,-9.0,1.065
-33.0,-8.0,1.066
-38.0,-7.0,1.067
-39.0,-4.0,1.068
-27.0,3.0,1.069
-10.0,10.0,1.07
-1.0,8.0,1.071
7.0,0.0,1.072
28.0,-4.0,1.073
52.0,2.0,1.074
61.0,9.0,1.075
48.0,6.0,1.076
33.0,-1.0,1.077
22.0,-5.0,1.078
18.0,-2.0,1.079
14.0,1.0,1.08
11.0,0.0,1.081
7.0,-2.0,1.082
5.0,-2.0,1.083
1.0,-3.0,1.084
-5.0,-1.0,1.085
-10.0,0.0,1.086
-7.0,3.0,1.087
-4.0,4.0,1.088
1.0,-1.0,1.089
4.0,-4.0,1.09
-4.0,2.0,1.091
-9.0,8.0,1.092
-5.0,6.0,1.093
-1.0,4.0,1.094
-2.0,2.0,1.095
-2.0,0.0,1.096
2.0,-3.0,1.097
3.0,-6.0,1.098
-7.0,-8.0,1.099
-19.0,-6.0,1.1
-21.0,-9.0,1.101
-16.0,-8.0,1.102
-7.0,-6.0,1.103
2.0,-3.0,1.104
8.0,-2.0,1.105
4.0,-3.0,1.106
-4.0,-3.0,1.107
-9.0,-1.0,1.108
-8.0,1.0,1.109
-2.0,1.0,1.11
8.0,0.0,1.111
20.0,-2.0,1.112
25.0,-2.0,1.113
21.0,0.0,1.114
17.0,3.0,1.115
16.0,6.0,1.116
13.0,9.0,1.117
5.0,9.0,1.118
0.0,7.0,1.119
-2.0,2.0,1.12
-13.0,-2.0,1.121
-29.0,0.0,1.122
-30.0,2.0,1.123
-10.0,0.0,1.124
14.0,-3.0,1.125
22.0,-3.0,1.126
22.0,0.0,1.127
27.0,4.0,1.128
35.0,9.0,1.129
36.0,12.0,1.13
38.0,13.0,1.131
45.0,6.0,1.132
49.0,0.0,1.133
37.0,2.0,1.134
23.0,4.0,1.135
19.0,1.0,1.136
21.0,-3.0,1.137
-8.0,-7.0,1.138
-10.0,-9.0,1.139
-11.0,-12.0,1.14
-7.0,-16.0,1.141
0.0,-18.0,1.142
14.0,-10.0,1.143
26.0,-2.0,1.144
29.0,1.0,1.145
31.0,3.0,1.146
26.0,0.0,1.147
22.0,-1.0,1.148
23.0,1.0,1.149
22.0,4.0,1.15
6.0,2.0,1.151
-8.0,1.0,1.152
-17.0,2.0,1.153
-23.0,3.0,1.154
-23.0,3.0,1.155
-19.0,3.0,1.156
-3.0,2.0,1.157
-6.0,1.0,1.158
-7.0,-3.0,1.159
-8.0,-12.0,1.16
-5.0,-18.0,1.161
0.0,-11.0,1.162
11.0,-1.0,1.163
20.0,5.0,1.164
22.0,10.0,1.165
24.0,12.0,1.166
20.0,9.0,1.167
17.0,1.0,1.168
18.0,0.0,1.169
17.0,8.0,1.17
5.0,13.0,1.171
-6.0,4.0,1.172
-12.0,-9.0,1.173
-17.0,-16.0,1.174
-17.0,-14.0,1.175
-14.0,-7.0,1.176
-2.0,-2.0,1.177
9.0,-4.0,1.178
6.0,-7.0,1.179
-3.0,-7.0,1.18
-4.0,-5.0,1.181
0.0,0.0,1.182
6.0,-2.0,1.183
9.0,-5.0,1.184
7.0,-1.0,1.185
1.0,5.0,1.186
-2.0,1.0,1.187
0.0,-6.0,1.188
8.0,-8.0,1.189
11.0,0.0,1.19
8.0,5.0,1.191
2.0,3.0,1.192
0.0,2.0,1.193
-2.0,4.0,1.194
-2.0,6.0,1.195
0.0,9.0,1.196
8.0,12.0,1.197
14.0,8.0,1.198
17.0,2.0,1.199
15.0,-3.0,1.2
9.0,-6.0,1.201
5.0,-4.0,1.202
6.0,-4.0,1.203
13.0,-8.0,1.204
17.0,-12.0,1.205
15.0,-8.0,1.206
9.0,0.0,1.207
2.0,7.0,1.208
-7.0,3.0,1.209
-17.0,-3.0,1.21
-19.0,-2.0,1.211
-10.0,4.0,1.212
3.0,6.0,1.213
9.0,3.0,1.214
2.0,3.0,1.215
-5.0,7.0,1.216
-9.0,7.0,1.217
-8.0,-2.0,1.218
-9.0,-9.0,1.219
-17.0,-8.0,1.22
-24.0,-9.0,1.221
-17.0,-9.0,1.222
7.0,-6.0,1.223
27.0,4.0,1.224
31.0,11.0,1.225
21.0,8.0,1.226
11.0,3.0,1.227
4.0,3.0,1.228
5.0,8.0,1.229
17.0,9.0,1.23
30.0,5.0,1.231
30.0,-1.0,1.232
13.0,-3.0,1.233
-3.0,1.0,1.234
-3.0,4.0,1.235
3.0,5.0,1.236
4.0,4.0,1.237
0.0,-1.0,1.238
0.0,-5.0,1.239
0.0,-9.0,1.24
-1.0,-15.0,1.241
-1.0,-11.0,1.242
3.0,-3.0,1.243
4.0,0.0,1.244
-5.0,-6.0,1.245
-12.0,-15.0,1.246
-10.0,-15.0,1.247
-7.0,-5.0,1.248
-3.0,3.0,1.249
0.0,3.0,1.25
3.0,2.0,1.251
5.0,6.0,1.252
1.0,13.0,1.253
-2.0,15.0,1.254
-2.0,9.0,1.255
-4.0,1.0,1.256
-8.0,-3.0,1.257
-11.0,-8.0,1.258
-9.0,-16.0,1.259
1.0,-18.0,1.26
13.0,-13.0,1.261
22.0,-3.0,1.262
30.0,2.0,1.263
33.0,3.0,1.264
25.0,6.0,1.265
6.0,13.0,1.266
-14.0,11.0,1.267
-26.0,0.0,1.268
-31.0,-11.0,1.269
-31.0,-10.0,1.27
-27.0,0.0,1.271
-18.0,4.0,1.272
-11.0,-2.0,1.273
-9.0,-15.0,1.274
-9.0,-23.0,1.275
-5.0,-19.0,1.276
1.0,-6.0,1.277
9.0,6.0,1.278
9.0,11.0,1.279
1.0,6.0,1.28
-8.0,-2.0,1.281
-10.0,-3.0,1.282
1.0,0.0,1.283
20.0,2.0,1.284
32.0,5.0,1.285
34.0,10.0,1.286
32.0,9.0,1.287
38.0,5.0,1.288
42.0,4.0,1.289
34.0,7.0,1.29
17.0,7.0,1.291
4.0,1.0,1.292
3.0,2.0,1.293
5.0,9.0,1.294
3.0,12.0,1.295
0.0,3.0,1.296
-1.0,-2.0,1.297
-7.0,-1.0,1.298
-17.0,1.0,1.299
-26.0,-5.0,1.3
-32.0,-15.0,1.301
-25.0,-19.0,1.302
-4.0,-21.0,1.303
28.0,-18.0,1.304
54.0,-9.0,1.305
62.0,2.0,1.306
51.0,4.0,1.307
27.0,-2.0,1.308
-4.0,-3.0,1.309
-36.0,0.0,1.31
-60.0,-4.0,1.311
-73.0,-11.0,1.312
-76.0,-7.0,1.313
-61.0,7.0,1.314
-26.0,15.0,1.315
12.0,14.0,1.316
38.0,14.0,1.317
43.0,15.0,1.318
40.0,11.0,1.319
40.0,2.0,1.32
43.0,-3.0,1.321
42.0,-3.0,1.322
32.0,-6.0,1.323
19.0,-11.0,1.324
7.0,-8.0,1.325
4.0,2.0,1.326
6.0,3.0,1.327
5.0,-6.0,1.328
-1.0,-6.0,1.329
-3.0,4.0,1.33
1.0,8.0,1.331
6.0,0.0,1.332
3.0,-2.0,1.333
0.0,2.0,1.334
1.0,5.0,1.335
0.0,0.0,1.336
-1.0,-2.0,1.337
-5.0,0.0,1.338
-8.0,0.0,1.339
-14.0,-3.0,1.34
-21.0,-9.0,1.341
-23.0,-8.0,1.342
-18.0,-6.0,1.343
-9.0,-8.0,1.344
-4.0,-6.0,1.345
-4.0,0.0,1.346
-2.0,4.0,1.347
4.0,0.0,1.348
9.0,-5.0,1.349
5.0,-3.0,1.35
-5.0,2.0,1.351
-6.0,7.0,1.352
8.0,10.0,1.353
22.0,10.0,1.354
23.0,9.0,1.355
15.0,5.0,1.356
11.0,5.0,1.357
11.0,3.0,1.358
6.0,-2.0,1.359
-3.0,-7.0,1.36
-8.0,-6.0,1.361
-5.0,0.0,1.362
2.0,3.0,1.363
13.0,2.0,1.364
24.0,2.0,1.365
35.0,5.0,1.366
39.0,5.0,1.367
30.0,0.0,1.368
13.0,-3.0,1.369
1.0,-4.0,1.37
1.0,-2.0,1.371
1.0,-3.0,1.372
-8.0,-4.0,1.373
-20.0,-2.0,1.374
-21.0,0.0,1.375
-13.0,-1.0,1.376
-3.0,-1.0,1.377
-3.0,-5.0,1.378
-9.0,-9.0,1.379
-20.0,-15.0,1.38
-26.0,-18.0,1.381
-22.0,-16.0,1.382
-9.0,-11.0,1.383
4.0,-6.0,1.384
7.0,-2.0,1.385
2.0,1.0,1.386
-2.0,0.0,1.387
-3.0,-3.0,1.388
-4.0,0.0,1.389
2.0,7.0,1.39
19.0,11.0,1.391
33.0,9.0,1.392
35.0,1.0,1.393
24.0,-4.0,1.394
15.0,-3.0,1.395
14.0,1.0,1.396
17.0,7.0,1.397
10.0,10.0,1.398
-5.0,12.0,1.399
-20.0,13.0,1.4
-20.0,9.0,1.401
-9.0,4.0,1.402
0.0,-2.0,1.403
-1.0,-2.0,1.404
-5.0,5.0,1.405
-3.0,11.0,1.406
-1.0,11.0,1.407
-2.0,3.0,1.408
-5.0,-5.0,1.409
-5.0,-9.0,1.41
0.0,-13.0,1.411
2.0,-12.0,1.412
3.0,-10.0,1.413
9.0,-5.0,1.414
13.0,-2.0,1.415
8.0,-2.0,1.416
-5.0,0.0,1.417
-20.0,1.0,1.418
-23.0,-2.0,1.419
-15.0,-11.0,1.42
-1.0,-20.0,1.421
11.0,-18.0,1.422
18.0,-7.0,1.423
18.0,0.0,1.424
9.0,4.0,1.425
1.0,3.0,1.426
9.0,3.0,1.427
26.0,2.0,1.428
33.0,4.0,1.429
22.0,7.0,1.43
10.0,8.0,1.431
13.0,5.0,1.432
23.0,4.0,1.433
26.0,7.0,1.434
22.0,9.0,1.435
19.0,2.0,1.436
11.0,-5.0,1.437
-4.0,-8.0,1.438
-17.0,-1.0,1.439
-21.0,3.0,1.44
-21.0,0.0,1.441
-22.0,-1.0,1.442
-19.0,2.0,1.443
-10.0,0.0,1.444
-4.0,-9.0,1.445
-5.0,-15.0,1.446
-3.0,-8.0,1.447
0.0,1.0,1.448
-4.0,7.0,1.449
-17.0,8.0,1.45
-22.0,4.0,1.451
-14.0,-4.0,1.452
3.0,-10.0,1.453
23.0,-6.0,1.454
46.0,5.0,1.455
58.0,10.0,1.456
49.0,4.0,1.457
27.0,-2.0,1.458
11.0,0.0,1.459
1.0,3.0,1.46
-6.0,-1.0,1.461
-12.0,-7.0,1.462
-11.0,-11.0,1.463
-5.0,-9.0,1.464
-5.0,-2.0,1.465
-8.0,5.0,1.466
-7.0,4.0,1.467
-4.0,-6.0,1.468
-6.0,-12.0,1.469
-8.0,-3.0,1.47
-2.0,6.0,1.471
6.0,3.0,1.472
10.0,-9.0,1.473
13.0,-9.0,1.474
19.0,0.0,1.475
13.0,7.0,1.476
-6.0,4.0,1.477
-28.0,-2.0,1.478
-32.0,-5.0,1.479
-28.0,-3.0,1.48
-30.0,-4.0,1.481
-33.0,1.0,1.482
-13.0,7.0,1.483
16.0,9.0,1.484
28.0,7.0,1.485
20.0,3.0,1.486
14.0,2.0,1.487
21.0,3.0,1.488
22.0,6.0,1.489
13.0,9.0,1.49
11.0,10.0,1.491
23.0,9.0,1.492
25.0,10.0,1.493
12.0,11.0,1.494
0.0,11.0,1.495
4.0,5.0,1.496
8.0,-2.0,1.497
-5.0,-11.0,1.498
-18.0,-19.0,1.499
-16.0,-21.0,1.5
-6.0,-17.0,1.501
-3.0,-9.0,1.502
-2.0,-7.0,1.503
2.0,-4.0,1.504
6.0,3.0,1.505
4.0,10.0,1.506
1.0,4.0,1.507
4.0,-8.0,1.508
9.0,-11.0,1.509
12.0,-3.0,1.51
14.0,2.0,1.511
14.0,0.0,1.512
5.0,2.0,1.513
-8.0,8.0,1.514
-14.0,7.0,1.515
-7.0,1.0,1.516
-3.0,-1.0,1.517
-7.0,0.0,1.518
-6.0,0.0,1.519
4.0,-4.0,1.52
15.0,-8.0,1.521
17.0,-6.0,1.522
19.0,-7.0,1.523
29.0,-8.0,1.524
35.0,-4.0,1.525
22.0,2.0,1.526
4.0,4.0,1.527
-2.0,-3.0,1.528
2.0,-6.0,1.529
5.0,-2.0,1.53
0.0,7.0,1.531
-3.0,10.0,1.532
0.0,8.0,1.533
3.0,7.0,1.534
3.0,7.0,1.535
0.0,7.0,1.536
-5.0,7.0,1.537
-12.0,-1.0,1.538
-15.0,-12.0,1.539
-11.0,-20.0,1.54
-4.0,-21.0,1.541
2.0,-15.0,1.542
10.0,-14.0,1.543
14.0,-13.0,1.544
5.0,-6.0,1.545
-12.0,7.0,1.546
-21.0,13.0,1.547
-15.0,9.0,1.548
-3.0,4.0,1.549
5.0,7.0,1.55
15.0,10.0,1.551
25.0,6.0,1.552
25.0,1.0,1.553
11.0,3.0,1.554
-1.0,5.0,1.555
-1.0,3.0,1.556
1.0,3.0,1.557
-3.0,5.0,1.558
-8.0,5.0,1.559
-7.0,-3.0,1.56
-6.0,-17.0,1.561
-9.0,-20.0,1.562
-11.0,-14.0,1.563
-11.0,-7.0,1.564
-17.0,-2.0,1.565
-29.0,3.0,1.566
-33.0,4.0,1.567
-19.0,0.0,1.568
-1.0,-7.0,1.569
13.0,-6.0,1.57
22.0,1.0,1.571
34.0,9.0,1.572
42.0,10.0,1.573
40.0,6.0,1.574
35.0,2.0,1.575
29.0,2.0,1.576
21.0,6.0,1.577
12.0,5.0,1.578
8.0,1.0,1.579
8.0,-4.0,1.58
4.0,-8.0,1.581
-4.0,-5.0,1.582
-4.0,2.0,1.583
4.0,5.0,1.584
13.0,1.0,1.585
15.0,-2.0,1.586
21.0,-3.0,1.587
26.0,-3.0,1.588
18.0,-3.0,1.589
-4.0,-3.0,1.59
-18.0,1.0,1.591
-20.0,4.0,1.592
-21.0,1.0,1.593
-29.0,-2.0,1.594
-28.0,-3.0,1.595
-14.0,-2.0,1.596
-1.0,-2.0,1.597
-1.0,-5.0,1.598
-8.0,-5.0,1.599
-14.0,-4.0,1.6
-11.0,-5.0,1.601
-4.0,-3.0,1.602
7.0,0.0,1.603
19.0,3.0,1.604
24.0,4.0,1.605
22.0,5.0,1.606
21.0,6.0,1.607
20.0,4.0,1.608
12.0,-2.0,1.609
-3.0,-5.0,1.61
-11.0,-8.0,1.611
-4.0,-9.0,1.612
8.0,-2.0,1.613
14.0,5.0,1.614
7.0,2.0,1.615
0.0,-7.0,1.616
1.0,-8.0,1.617
4.0,2.0,1.618
3.0,9.0,1.619
-6.0,-1.0,1.62
-10.0,-19.0,1.621
-1.0,-20.0,1.622
15.0,-8.0,1.623
21.0,0.0,1.624
15.0,1.0,1.625
1.0,4.0,1.626
-4.0,7.0,1.627
-7.0,2.0,1.628
-8.0,-2.0,1.629
-6.0,2.0,1.63
2.0,9.0,1.631
17.0,9.0,1.632
26.0,3.0,1.633
26.0,3.0,1.634
16.0,8.0,1.635
4.0,9.0,1.636
-1.0,4.0,1.637
1.0,-1.0,1.638
5.0,-5.0,1.639
3.0,-6.0,1.64
-2.0,-12.0,1.641
-4.0,-13.0,1.642
-3.0,-9.0,1.643
-8.0,-3.0,1.644
-15.0,4.0,1.645
-14.0,8.0,1.646
-8.0,11.0,1.647
-6.0,13.0,1.648
-6.0,13.0,1.649
-1.0,13.0,1.65
6.0,10.0,1.651
0.0,1.0,1.652
-12.0,-5.0,1.653
-11.0,-5.0,1.654
6.0,-1.0,1.655
15.0,0.0,1.656
6.0,-7.0,1.657
-5.0,-12.0,1.658
-4.0,-12.0,1.659
1.0,-8.0,1.66
0.0,-10.0,1.661
1.0,-11.0,1.662
11.0,-5.0,1.663
18.0,-1.0,1.664
10.0,-2.0,1.665
2.0,-2.0,1.666
10.0,1.0,1.667
20.0,2.0,1.668
17.0,-2.0,1.669
8.0,-3.0,1.67
7.0,1.0,1.671
12.0,4.0,1.672
10.0,0.0,1.673
2.0,-3.0,1.674
1.0,0.0,1.675
8.0,7.0,1.676
14.0,8.0,1.677
14.0,4.0,1.678
10.0,4.0,1.679
2.0,4.0,1.68
-5.0,-4.0,1.681
-8.0,-10.0,1.682
-3.0,-7.0,1.683
2.0,-1.0,1.684
-1.0,-3.0,1.685
-6.0,-8.0,1.686
-1.0,-8.0,1.687
10.0,-7.0,1.688
9.0,-3.0,1.689
-5.0,0.0,1.69
-16.0,2.0,1.691
-10.0,2.0,1.692
1.0,1.0,1.693
4.0,2.0,1.694
-1.0,3.0,1.695
-5.0,0.0,1.696
-8.0,-2.0,1.697
-18.0,-1.0,1.698
-25.0,5.0,1.699
-25.0,10.0,1.7
-13.0,3.0,1.701
7.0,-4.0,1.702
25.0,-8.0,1.703
38.0,-9.0,1.704
41.0,-10.0,1.705
30.0,-7.0,1.706
17.0,-3.0,1.707
11.0,-2.0,1.708
12.0,-1.0,1.709
13.0,2.0,1.71
7.0,7.0,1.711
0.0,8.0,1.712
3.0,7.0,1.713
12.0,8.0,1.714
17.0,12.0,1.715
15.0,5.0,1.716
7.0,-7.0,1.717
-6.0,-15.0,1.718
-20.0,-8.0,1.719
-29.0,5.0,1.72
-25.0,4.0,1.721
-8.0,-3.0,1.722
14.0,-5.0,1.723
29.0,-2.0,1.724
31.0,0.0,1.725
21.0,-3.0,1.726
1.0,-9.0,1.727
-20.0,-10.0,1.728
-35.0,-7.0,1.729
-37.0,0.0,1.73
-24.0,8.0,1.731
-11.0,14.0,1.732
-3.0,15.0,1.733
4.0,10.0,1.734
14.0,6.0,1.735
18.0,4.0,1.736
16.0,2.0,1.737
12.0,-3.0,1.738
12.0,-5.0,1.739
11.0,-3.0,1.74
3.0,-4.0,1.741
-2.0,-10.0,1.742
0.0,-17.0,1.743
0.0,-17.0,1.744
-5.0,-6.0,1.745
-8.0,5.0,1.746
-2.0,9.0,1.747
3.0,5.0,1.748
2.0,1.0,1.749
3.0,2.0,1.75
12.0,7.0,1.751
18.0,9.0,1.752
17.0,6.0,1.753
14.0,3.0,1.754
14.0,0.0,1.755
11.0,0.0,1.756
7.0,2.0,1.757
5.0,1.0,1.758
6.0,-2.0,1.759
2.0,-6.0,1.76
-3.0,-9.0,1.761
-1.0,-5.0,1.762
7.0,-1.0,1.763
12.0,1.0,1.764
8.0,2.0,1.765
4.0,2.0,1.766
9.0,-2.0,1.767
13.0,-7.0,1.768
5.0,-5.0,1.769
-7.0,-1.0,1.77
-16.0,0.0,1.771
-16.0,-6.0,1.772
-13.0,-12.0,1.773
-8.0,-9.0,1.774
-2.0,-4.0,1.775
2.0,-3.0,1.776
3.0,0.0,1.777
-1.0,6.0,1.778
-4.0,9.0,1.779
-5.0,0.0,1.78
-9.0,-11.0,1.781
-11.0,-14.0,1.782
-5.0,-12.0,1.783
11.0,-12.0,1.784
22.0,-8.0,1.785
21.0,2.0,1.786
12.0,13.0,1.787
6.0,10.0,1.788
11.0,2.0,1.789
17.0,1.0,1.79
21.0,5.0,1.791
18.0,5.0,1.792
9.0,1.0,1.793
0.0,1.0,1.794
1.0,4.0,1.795
9.0,5.0,1.796
12.0,4.0,1.797
2.0,2.0,1.798
-7.0,0.0,1.799
-9.0,-2.0,1.8
-5.0,-8.0,1.801
-2.0,-9.0,1.802
2.0,-7.0,1.803
9.0,-5.0,1.804
8.0,-2.0,1.805
-6.0,-1.0,1.806
-22.0,-1.0,1.807
-26.0,0.0,1.808
-16.0,1.0,1.809
2.0,3.0,1.81
22.0,4.0,1.811
40.0,3.0,1.812
50.0,5.0,1.813
48.0,8.0,1.814
33.0,8.0,1.815
13.0,6.0,1.816
0.0,4.0,1.817
-9.0,-2.0,1.818
-19.0,-6.0,1.819
-38.0,-5.0,1.82
-51.0,-1.0,1.821
-47.0,5.0,1.822
-27.0,4.0,1.823
-11.0,-2.0,1.824
-8.0,-6.0,1.825
-6.0,-7.0,1.826
3.0,-9.0,1.827
13.0,-12.0,1.828
14.0,-9.0,1.829
11.0,-2.0,1.83
10.0,0.0,1.831
10.0,-4.0,1.832
7.0,-7.0,1.833
5.0,-5.0,1.834
13.0,-3.0,1.835
19.0,-1.0,1.836
15.0,3.0,1.837
-1.0,5.0,1.838
-14.0,8.0,1.839
-18.0,9.0,1.84
-20.0,6.0,1.841
-19.0,3.0,1.842
-7.0,3.0,1.843
15.0,4.0,1.844
29.0,4.0,1.845
31.0,2.0,1.846
29.0,0.0,1.847
28.0,-2.0,1.848
19.0,-3.0,1.849
10.0,-1.0,1.85
9.0,1.0,1.851
11.0,3.0,1.852
5.0,3.0,1.853
-4.0,4.0,1.854
-7.0,10.0,1.855
-6.0,12.0,1.856
-9.0,9.0,1.857
-12.0,-3.0,1.858
-2.0,-9.0,1.859
9.0,-10.0,1.86
7.0,-12.0,1.861
-6.0,-14.0,1.862
-8.0,-11.0,1.863
1.0,-6.0,1.864
6.0,-3.0,1.865
1.0,-3.0,1.866
1.0,-4.0,1.867
10.0,-3.0,1.868
15.0,-4.0,1.869
6.0,-2.0,1.87
-5.0,-2.0,1.871
-10.0,-5.0,1.872
-8.0,-6.0,1.873
-2.0,-4.0,1.874
6.0,2.0,1.875
12.0,2.0,1.876
12.0,-2.0,1.877
3.0,-3.0,1.878
-2.0,1.0,1.879
-4.0,3.0,1.88
-6.0,-6.0,1.881
-9.0,-12.0,1.882
-9.0,-7.0,1.883
-4.0,0.0,1.884
0.0,2.0,1.885
3.0,0.0,1.886
9.0,0.0,1.887
16.0,2.0,1.888
19.0,3.0,1.889
17.0,2.0,1.89
15.0,5.0,1.891
17.0,7.0,1.892
20.0,9.0,1.893
20.0,8.0,1.894
13.0,7.0,1.895
2.0,3.0,1.896
-2.0,0.0,1.897
-3.0,-2.0,1.898
-6.0,-2.0,1.899
-16.0,0.0,1.9
-18.0,-4.0,1.901
-5.0,-5.0,1.902
11.0,-3.0,1.903
15.0,-2.0,1.904
0.0,-2.0,1.905
-13.0,0.0,1.906
-17.0,4.0,1.907
-14.0,7.0,1.908
-8.0,3.0,1.909
0.0,-2.0,1.91
9.0,-1.0,1.911
16.0,4.0,1.912
15.0,5.0,1.913
14.0,0.0,1.914
12.0,-4.0,1.915
10.0,-1.0,1.916
7.0,4.0,1.917
3.0,3.0,1.918
0.0,0.0,1.919
-4.0,-3.0,1.92
0.0,-7.0,1.921
12.0,-8.0,1.922
19.0,-8.0,1.923
13.0,-4.0,1.924
2.0,-1.0,1.925
0.0,-4.0,1.926
0.0,-10.0,1.927
-6.0,-10.0,1.928
-18.0,-1.0,1.929
-17.0,8.0,1.93
0.0,7.0,1.931
17.0,2.0,1.932
16.0,1.0,1.933
2.0,5.0,1.934
-5.0,5.0,1.935
-4.0,3.0,1.936
-6.0,2.0,1.937
-14.0,0.0,1.938
-18.0,-4.0,1.939
-19.0,-6.0,1.94
-24.0,-8.0,1.941
-29.0,-5.0,1.942
-23.0,-2.0,1.943
-1.0,-1.0,1.944
23.0,1.0,1.945
41.0,1.0,1.946
51.0,0.0,1.947
52.0,0.0,1.948
34.0,3.0,1.949
6.0,6.0,1.95
-5.0,1.0,1.951
7.0,-5.0,1.952
21.0,-1.0,1.953
13.0,8.0,1.954
-7.0,10.0,1.955
-16.0,3.0,1.956
-6.0,0.0,1.957
1.0,0.0,1.958
1.0,-4.0,1.959
-3.0,-10.0,1.96
-3.0,-10.0,1.961
0.0,7.0,1.962
4.0,15.0,1.963
5.0,4.0,1.964
1.0,-8.0,1.965
-4.0,-4.0,1.966
-7.0,3.0,1.967
-2.0,-1.0,1.968
8.0,-9.0,1.969
13.0,-7.0,1.97
9.0,-3.0,1.971
2.0,-7.0,1.972
-2.0,-14.0,1.973
-5.0,-10.0,1.974
-7.0,0.0,1.975
-7.0,4.0,1.976
-2.0,-1.0,1.977
1.0,-6.0,1.978
0.0,-4.0,1.979
-6.0,0.0,1.98
-9.0,-3.0,1.981
-4.0,-4.0,1.982
4.0,-3.0,1.983
9.0,-1.0,1.984
5.0,1.0,1.985
0.0,4.0,1.986
5.0,4.0,1.987
16.0,1.0,1.988
19.0,-1.0,1.989
14.0,0.0,1.99
8.0,1.0,1.991
11.0,3.0,1.992
11.0,6.0,1.993
6.0,9.0,1.994
5.0,9.0,1.995
12.0,3.0,1.996
16.0,0.0,1.997
8.0,-4.0,1.998
-2.0,-5.0,1.999
-6.0,-3.0,2.0
-5.0,-1.0,2.001
-5.0,2.0,2.002
-4.0,0.0,2.003
2.0,-5.0,2.004
6.0,-3.0,2.005
5.0,6.0,2.006
6.0,9.0,2.007
14.0,0.0,2.008
19.0,-8.0,2.009
13.0,-8.0,2.01
4.0,0.0,2.011
-3.0,3.0,2.012
-7.0,0.0,2.013
-14.0,-2.0,2.014
-14.0,-3.0,2.015
-8.0,-3.0,2.016
-1.0,0.0,2.017
0.0,0.0,2.018
-1.0,-3.0,2.019
-2.0,-6.0,2.02
1.0,-8.0,2.021
8.0,-5.0,2.022
12.0,-3.0,2.023
12.0,-4.0,2.024
9.0,-1.0,2.025
6.0,6.0,2.026
0.0,7.0,2.027
-7.0,1.0,2.028
-9.0,-4.0,2.029
-2.0,-1.0,2.03
4.0,2.0,2.031
0.0,0.0,2.032
-10.0,0.0,2.033
-11.0,0.0,2.034
0.0,1.0,2.035
7.0,-1.0,2.036
7.0,0.0,2.037
5.0,0.0,2.038
9.0,-1.0,2.039
5.0,-5.0,2.04
-10.0,-9.0,2.041
-19.0,-6.0,2.042
-10.0,-4.0,2.043
11.0,-5.0,2.044
25.0,-4.0,2.045
30.0,1.0,2.046
30.0,8.0,2.047
24.0,8.0,2.048
14.0,6.0,2.049
3.0,5.0,2.05
2.0,4.0,2.051
7.0,3.0,2.052
6.0,4.0,2.053
0.0,7.0,2.054
-4.0,2.0,2.055
-1.0,-6.0,2.056
5.0,-11.0,2.057
5.0,-8.0,2.058
-2.0,1.0,2.059
-11.0,4.0,2.06
-16.0,-1.0,2.061
-14.0,-4.0,2.062
-6.0,-1.0,2.063
1.0,0.0,2.064
5.0,-3.0,2.065
2.0,-5.0,2.066
3.0,-6.0,2.067
11.0,-4.0,2.068
14.0,1.0,2.069
7.0,6.0,2.07
1.0,11.0,2.071
1.0,12.0,2.072
2.0,7.0,2.073
0.0,0.0,2.074
-3.0,-3.0,2.075
-2.0,0.0,2.076
1.0,3.0,2.077
0.0,-3.0,2.078
-4.0,-12.0,2.079
-9.0,-15.0,2.08
-8.0,-12.0,2.081
0.0,-7.0,2.082
13.0,-4.0,2.083
20.0,0.0,2.084
16.0,3.0,2.085
7.0,3.0,2.086
7.0,1.0,2.087
13.0,2.0,2.088
10.0,6.0,2.089
-1.0,7.0,2.09
-3.0,3.0,2.091
5.0,1.0,2.092
11.0,3.0,2.093
8.0,6.0,2.094
1.0,7.0,2.095
-1.0,6.0,2.096
0.0,4.0,2.097
-2.0,-2.0,2.098
-2.0,-7.0,2.099
1.0,-8.0,2.1
7.0,-9.0,2.101
13.0,-9.0,2.102
18.0,-10.0,2.103
18.0,-6.0,2.104
9.0,2.0,2.105
-6.0,3.0,2.106
-14.0,-4.0,2.107
-14.0,-9.0,2.108
-15.0,-5.0,2.109
-19.0,3.0,2.11
-15.0,10.0,2.111
-2.0,9.0,2.112
11.0,2.0,2.113
9.0,-5.0,2.114
2.0,-5.0,2.115
2.0,0.0,2.116
9.0,8.0,2.117
9.0,5.0,2.118
2.0,-4.0,2.119
-8.0,-10.0,2.12
-16.0,-9.0,2.121
-17.0,-7.0,2.122
-12.0,-7.0,2.123
-5.0,-9.0,2.124
-3.0,-3.0,2.125
-1.0,2.0,2.126
3.0,0.0,2.127
10.0,-4.0,2.128
6.0,-4.0,2.129
-6.0,0.0,2.13
-11.0,4.0,2.131
0.0,5.0,2.132
18.0,7.0,2.133
29.0,7.0,2.134
36.0,4.0,2.135
44.0,1.0,2.136
47.0,3.0,2.137
36.0,2.0,2.138
19.0,-1.0,2.139
3.0,-3.0,2.14
-10.0,-4.0,2.141
-19.0,-5.0,2.142
-18.0,-7.0,2.143
-1.0,-2.0,2.144
13.0,7.0,2.145
11.0,11.0,2.146
4.0,7.0,2.147
10.0,-1.0,2.148
15.0,-1.0,2.149
3.0,3.0,2.15
-13.0,6.0,2.151
-18.0,5.0,2.152
-14.0,3.0,2.153
-16.0,-2.0,2.154
-20.0,-6.0,2.155
-12.0,-4.0,2.156
6.0,1.0,2.157
24.0,-2.0,2.158
32.0,-8.0,2.159
27.0,-8.0,2.16
10.0,-5.0,2.161
-5.0,-1.0,2.162
-9.0,-5.0,2.163
-3.0,-8.0,2.164
-9.0,-3.0,2.165
-22.0,5.0,2.166
-24.0,5.0,2.167
-10.0,-3.0,2.168
0.0,-8.0,2.169
0.0,-6.0,2.17
2.0,-3.0,2.171
15.0,-3.0,2.172
22.0,0.0,2.173
16.0,7.0,2.174
8.0,9.0,2.175
4.0,1.0,2.176
0.0,-6.0,2.177
-11.0,-8.0,2.178
-14.0,-4.0,2.179
-7.0,-3.0,2.18
-1.0,-8.0,2.181
-4.0,-8.0,2.182
-5.0,-4.0,2.183
5.0,0.0,2.184
15.0,1.0,2.185
12.0,4.0,2.186
8.0,7.0,2.187
12.0,5.0,2.188
21.0,-4.0,2.189
21.0,-9.0,2.19
10.0,-4.0,2.191
-3.0,5.0,2.192
-9.0,9.0,2.193
-8.0,2.0,2.194
-2.0,-2.0,2.195
6.0,0.0,2.196
13.0,3.0,2.197
16.0,0.0,2.198
14.0,-7.0,2.199
3.0,-9.0,2.2
-8.0,-7.0,2.201
-15.0,-1.0,2.202
-15.0,0.0,2.203
-15.0,-3.0,2.204
-20.0,-7.0,2.205
-18.0,-6.0,2.206
0.0,-3.0,2.207
22.0,-2.0,2.208
30.0,-1.0,2.209
23.0,-2.0,2.21
16.0,-3.0,2.211
11.0,-2.0,2.212
7.0,4.0,2.213
2.0,11.0,2.214
-1.0,11.0,2.215
-1.0,6.0,2.216
-1.0,0.0,2.217
0.0,-2.0,2.218
2.0,-1.0,2.219
5.0,0.0,2.22
4.0,-3.0,2.221
3.0,-5.0,2.222
8.0,-7.0,2.223
12.0,-9.0,2.224
11.0,-6.0,2.225
6.0,1.0,2.226
3.0,7.0,2.227
5.0,6.0,2.228
6.0,4.0,2.229
7.0,9.0,2.23
8.0,13.0,2.231
4.0,9.0,2.232
-1.0,-4.0,2.233
-5.0,-14.0,2.234
-2.0,-12.0,2.235
3.0,-2.0,2.236
5.0,8.0,2.237
1.0,7.0,2.238
1.0,2.0,2.239
1.0,0.0,2.24
-3.0,1.0,2.241
-7.0,3.0,2.242
-2.0,-2.0,2.243
4.0,-6.0,2.244
0.0,-1.0,2.245
-7.0,4.0,2.246
-5.0,2.0,2.247
3.0,-5.0,2.248
6.0,-10.0,2.249
-1.0,-10.0,2.25
-6.0,-4.0,2.251
-1.0,4.0,2.252
3.0,9.0,2.253
1.0,9.0,2.254
0.0,8.0,2.255
4.0,6.0,2.256
11.0,3.0,2.257
10.0,-5.0,2.258
9.0,-6.0,2.259
9.0,2.0,2.26
9.0,7.0,2.261
6.0,-1.0,2.262
0.0,-18.0,2.263
-4.0,-25.0,2.264
-10.0,-13.0,2.265
-11.0,6.0,2.266
-4.0,13.0,2.267
10.0,7.0,2.268
18.0,0.0,2.269
20.0,-1.0,2.27
22.0,-4.0,2.271
16.0,-12.0,2.272
-6.0,-17.0,2.273
-29.0,-13.0,2.274
-31.0,-4.0,2.275
-12.0,2.0,2.276
-2.0,8.0,2.277
-12.0,11.0,2.278
-24.0,8.0,2.279
-21.0,3.0,2.28
-8.0,0.0,2.281
-2.0,2.0,2.282
1.0,5.0,2.283
8.0,2.0,2.284
16.0,-3.0,2.285
25.0,-4.0,2.286
34.0,-2.0,2.287
36.0,0.0,2.288
21.0,-1.0,2.289
-1.0,-7.0,2.29
-11.0,-13.0,2.291
-9.0,-11.0,2.292
-8.0,1.0,2.293
-8.0,16.0,2.294
6.0,24.0,2.295
29.0,25.0,2.296
41.0,22.0,2.297
30.0,6.0,2.298
17.0,-8.0,2.299
19.0,-10.0,2.3
28.0,-3.0,2.301
28.0,0.0,2.302
21.0,-3.0,2.303
17.0,0.0,2.304
9.0,9.0,2.305
-7.0,8.0,2.306
-27.0,-6.0,2.307
-36.0,-12.0,2.308
-32.0,-2.0,2.309
-23.0,1.0,2.31
-15.0,-13.0,2.311
-7.0,-25.0,2.312
-4.0,-12.0,2.313
-7.0,6.0,2.314
-9.0,6.0,2.315
-3.0,-6.0,2.316
9.0,-8.0,2.317
13.0,0.0,2.318
8.0,7.0,2.319
-1.0,5.0,2.32
-7.0,-6.0,2.321
-8.0,-12.0,2.322
-4.0,-9.0,2.323
1.0,2.0,2.324
6.0,14.0,2.325
5.0,13.0,2.326
3.0,2.0,2.327
3.0,-3.0,2.328
7.0,3.0,2.329
10.0,10.0,2.33
17.0,8.0,2.331
24.0,1.0,2.332
25.0,-7.0,2.333
14.0,-15.0,2.334
1.0,-16.0,2.335
-5.0,-8.0,2.336
-7.0,-1.0,2.337
-12.0,-8.0,2.338
-15.0,-17.0,2.339
-12.0,-12.0,2.34
-8.0,-6.0,2.341
-6.0,-9.0,2.342
-2.0,-19.0,2.343
5.0,-17.0,2.344
1.0,-4.0,2.345
-12.0,3.0,2.346
-16.0,4.0,2.347
0.0,8.0,2.348
16.0,16.0,2.349
17.0,13.0,2.35
10.0,4.0,2.351
16.0,5.0,2.352
28.0,11.0,2.353
32.0,7.0,2.354
26.0,-6.0,2.355
22.0,-5.0,2.356
15.0,11.0,2.357
-2.0,25.0,2.358
-16.0,21.0,2.359
-14.0,7.0,2.36
0.0,-7.0,2.361
7.0,-13.0,2.362
2.0,-12.0,2.363
-2.0,-6.0,2.364
0.0,1.0,2.365
5.0,4.0,2.366
9.0,5.0,2.367
10.0,7.0,2.368
7.0,7.0,2.369
3.0,0.0,2.37
8.0,-4.0,2.371
17.0,0.0,2.372
16.0,5.0,2.373
4.0,4.0,2.374
2.0,-5.0,2.375
15.0,-11.0,2.376
30.0,-6.0,2.377
25.0,1.0,2.378
7.0,8.0,2.379
-9.0,8.0,2.38
-20.0,0.0,2.381
-24.0,-8.0,2.382
-25.0,-13.0,2.383
-26.0,-10.0,2.384
-30.0,-1.0,2.385
-31.0,9.0,2.386
-16.0,17.0,2.387
9.0,20.0,2.388
22.0,12.0,2.389
15.0,1.0,2.39
3.0,-4.0,2.391
3.0,0.0,2.392
9.0,2.0,2.393
4.0,-3.0,2.394
-5.0,-10.0,2.395
-9.0,-10.0,2.396
-4.0,-4.0,2.397
-1.0,-5.0,2.398
-2.0,-10.0,2.399
-4.0,-14.0,2.4
-4.0,-13.0,2.401
0.0,-8.0,2.402
8.0,-3.0,2.403
15.0,-1.0,2.404
16.0,-1.0,2.405
12.0,-4.0,2.406
9.0,-6.0,2.407
8.0,0.0,2.408
7.0,13.0,2.409
3.0,22.0,2.41
0.0,13.0,2.411
-2.0,-5.0,2.412
-3.0,-12.0,2.413
1.0,-5.0,2.414
11.0,3.0,2.415
19.0,0.0,2.416
15.0,-6.0,2.417
-4.0,-8.0,2.418
-27.0,-1.0,2.419
-41.0,8.0,2.42
-39.0,10.0,2.421
-21.0,4.0,2.422
4.0,-8.0,2.423
26.0,-18.0,2.424
33.0,-14.0,2.425
30.0,-5.0,2.426
27.0,-7.0,2.427
37.0,-13.0,2.428
50.0,-5.0,2.429
47.0,16.0,2.43
23.0,24.0,2.431
0.0,12.0,2.432
4.0,7.0,2.433
19.0,17.0,2.434
21.0,21.0,2.435
13.0,6.0,2.436
10.0,-6.0,2.437
11.0,-1.0,2.438
0.0,12.0,2.439
-22.0,8.0,2.44
-32.0,-13.0,2.441
-20.0,-21.0,2.442
0.0,-12.0,2.443
8.0,-7.0,2.444
7.0,-11.0,2.445
1.0,-14.0,2.446
-4.0,-5.0,2.447
-11.0,6.0,2.448
-16.0,7.0,2.449
-19.0,3.0,2.45
-21.0,1.0,2.451
-24.0,0.0,2.452
-26.0,1.0,2.453
-24.0,3.0,2.454
-20.0,3.0,2.455
-9.0,2.0,2.456
5.0,0.0,2.457
16.0,-3.0,2.458
17.0,-5.0,2.459
12.0,-7.0,2.46
8.0,-9.0,2.461
2.0,-7.0,2.462
-4.0,-2.0,2.463
-2.0,3.0,2.464
6.0,6.0,2.465
12.0,5.0,2.466
7.0,-4.0,2.467
6.0,-10.0,2.468
15.0,-6.0,2.469
24.0,8.0,2.47
27.0,15.0,2.471
21.0,10.0,2.472
11.0,-3.0,2.473
1.0,-14.0,2.474
-3.0,-21.0,2.475
-4.0,-16.0,2.476
-9.0,-1.0,2.477
-21.0,9.0,2.478
-26.0,8.0,2.479
-20.0,-2.0,2.48
-11.0,-8.0,2.481
-11.0,-1.0,2.482
-8.0,5.0,2.483
6.0,6.0,2.484
19.0,8.0,2.485
17.0,9.0,2.486
9.0,5.0,2.487
8.0,-1.0,2.488
17.0,3.0,2.489
19.0,12.0,2.49
14.0,9.0,2.491
12.0,-2.0,2.492
11.0,-2.0,2.493
5.0,8.0,2.494
0.0,9.0,2.495
-1.0,-4.0,2.496
-2.0,-13.0,2.497
-7.0,-15.0,2.498
-6.0,-15.0,2.499
0.0,-19.0,2.5
5.0,-19.0,2.501
1.0,-5.0,2.502
-1.0,9.0,2.503
2.0,13.0,2.504
3.0,9.0,2.505
1.0,5.0,2.506
5.0,-2.0,2.507
19.0,-8.0,2.508
26.0,-8.0,2.509
19.0,0.0,2.51
8.0,8.0,2.511
6.0,4.0,2.512
7.0,-1.0,2.513
3.0,0.0,2.514
-1.0,6.0,2.515
3.0,8.0,2.516
9.0,5.0,2.517
5.0,1.0,2.518
2.0,2.0,2.519
1.0,3.0,2.52
2.0,-2.0,2.521
2.0,-6.0,2.522
6.0,-6.0,2.523
7.0,-2.0,2.524
0.0,-1.0,2.525
-14.0,-3.0,2.526
-23.0,-10.0,2.527
-20.0,-12.0,2.528
-14.0,-9.0,2.529
-6.0,-4.0,2.53
2.0,0.0,2.531
13.0,1.0,2.532
20.0,6.0,2.533
21.0,9.0,2.534
20.0,5.0,2.535
15.0,-5.0,2.536
4.0,-6.0,2.537
-11.0,1.0,2.538
-21.0,4.0,2.539
-22.0,-6.0,2.54
-18.0,-19.0,2.541
-5.0,-15.0,2.542
12.0,-1.0,2.543
27.0,9.0,2.544
33.0,13.0,2.545
20.0,16.0,2.546
4.0,13.0,2.547
1.0,0.0,2.548
13.0,-10.0,2.549
20.0,-7.0,2.55
15.0,0.0,2.551
5.0,0.0,2.552
5.0,-5.0,2.553
8.0,-5.0,2.554
1.0,0.0,2.555
-4.0,2.0,2.556
-2.0,4.0,2.557
1.0,5.0,2.558
-6.0,2.0,2.559
-21.0,-5.0,2.56
-25.0,-16.0,2.561
-15.0,-16.0,2.562
0.0,-12.0,2.563
8.0,-8.0,2.564
9.0,-2.0,2.565
7.0,4.0,2.566
8.0,7.0,2.567
9.0,3.0,2.568
6.0,-1.0,2.569
-2.0,4.0,2.57
-10.0,8.0,2.571
-12.0,4.0,2.572
-6.0,-7.0,2.573
-1.0,-11.0,2.574
1.0,-3.0,2.575
-1.0,5.0,2.576
-5.0,4.0,2.577
-15.0,-7.0,2.578
-19.0,-15.0,2.579
-13.0,-12.0,2.58
0.0,-8.0,2.581
12.0,-6.0,2.582
22.0,-7.0,2.583
29.0,-11.0,2.584
29.0,-11.0,2.585
24.0,-2.0,2.586
20.0,10.0,2.587
17.0,16.0,2.588
8.0,17.0,2.589
-2.0,17.0,2.59
-5.0,17.0,2.591
2.0,12.0,2.592
7.0,0.0,2.593
4.0,-7.0,2.594
-4.0,-1.0,2.595
-9.0,7.0,2.596
-11.0,8.0,2.597
-16.0,-2.0,2.598
-15.0,-9.0,2.599
-5.0,-11.0,2.6
12.0,-14.0,2.601
20.0,-10.0,2.602
17.0,4.0,2.603
8.0,15.0,2.604
5.0,13.0,2.605
9.0,1.0,2.606
12.0,-6.0,2.607
11.0,-6.0,2.608
9.0,-3.0,2.609
7.0,-4.0,2.61
1.0,-4.0,2.611
-8.0,-2.0,2.612
-17.0,-4.0,2.613
-16.0,-4.0,2.614
-6.0,0.0,2.615
6.0,11.0,2.616
15.0,16.0,2.617
17.0,10.0,2.618
14.0,1.0,2.619
10.0,-3.0,2.62
9.0,-4.0,2.621
11.0,-2.0,2.622
15.0,-1.0,2.623
15.0,-1.0,2.624
5.0,-2.0,2.625
-9.0,-1.0,2.626
-15.0,3.0,2.627
-13.0,2.0,2.628
-10.0,-3.0,2.629
-10.0,-7.0,2.63
-7.0,-1.0,2.631
3.0,6.0,2.632
13.0,3.0,2.633
14.0,-5.0,2.634
8.0,-4.0,2.635
6.0,3.0,2.636
8.0,10.0,2.637
8.0,4.0,2.638
6.0,-1.0,2.639
2.0,-2.0,2.64
-3.0,-7.0,2.641
-9.0,-11.0,2.642
-10.0,-12.0,2.643
-1.0,-7.0,2.644
4.0,-2.0,2.645
3.0,-1.0,2.646
2.0,0.0,2.647
8.0,4.0,2.648
11.0,7.0,2.649
1.0,6.0,2.65
-5.0,0.0,2.651
-1.0,-6.0,2.652
6.0,-7.0,2.653
3.0,-1.0,2.654
-1.0,6.0,2.655
0.0,4.0,2.656
6.0,-2.0,2.657
5.0,-7.0,2.658
5.0,-6.0,2.659
5.0,-3.0,2.66
1.0,-6.0,2.661
-8.0,-11.0,2.662
-9.0,-14.0,2.663
4.0,-11.0,2.664
13.0,-1.0,2.665
2.0,7.0,2.666
-11.0,4.0,2.667
-9.0,-4.0,2.668
1.0,-2.0,2.669
-3.0,10.0,2.67
-19.0,14.0,2.671
-27.0,5.0,2.672
-18.0,-1.0,2.673
-3.0,4.0,2.674
9.0,11.0,2.675
16.0,10.0,2.676
20.0,8.0,2.677
19.0,8.0,2.678
14.0,4.0,2.679
6.0,-6.0,2.68
0.0,-16.0,2.681
-3.0,-15.0,2.682
-3.0,-8.0,2.683
0.0,-2.0,2.684
1.0,1.0,2.685
0.0,4.0,2.686
0.0,-1.0,2.687
8.0,-12.0,2.688
16.0,-14.0,2.689
13.0,-3.0,2.69
1.0,9.0,2.691
-7.0,12.0,2.692
-4.0,7.0,2.693
4.0,3.0,2.694
17.0,0.0,2.695
35.0,-1.0,2.696
53.0,0.0,2.697
61.0,4.0,2.698
55.0,6.0,2.699
41.0,5.0,2.7
24.0,0.0,2.701
8.0,-2.0,2.702
-3.0,-6.0,2.703
-2.0,-9.0,2.704
0.0,-7.0,2.705
-7.0,0.0,2.706
-19.0,2.0,2.707
-22.0,-3.0,2.708
-16.0,-6.0,2.709
-10.0,2.0,2.71
-9.0,13.0,2.711
-10.0,15.0,2.712
-9.0,6.0,2.713
-10.0,-4.0,2.714
-13.0,-4.0,2.715
-13.0,2.0,2.716
-7.0,4.0,2.717
-4.0,-4.0,2.718
-8.0,-8.0,2.719
-16.0,-5.0,2.72
-20.0,-5.0,2.721
-18.0,-12.0,2.722
-9.0,-19.0,2.723
0.0,-13.0,2.724
4.0,-1.0,2.725
3.0,0.0,2.726
7.0,-5.0,2.727
17.0,-6.0,2.728
23.0,3.0,2.729
21.0,13.0,2.73
14.0,14.0,2.731
4.0,6.0,2.732
-8.0,-4.0,2.733
-17.0,-8.0,2.734
-18.0,-3.0,2.735
-13.0,4.0,2.736
-5.0,5.0,2.737
0.0,-4.0,2.738
6.0,-11.0,2.739
7.0,-11.0,2.74
1.0,-12.0,2.741
-2.0,-13.0,2.742
10.0,-10.0,2.743
30.0,-4.0,2.744
36.0,1.0,2.745
21.0,2.0,2.746
0.0,-1.0,2.747
-13.0,-1.0,2.748
-20.0,0.0,2.749
-26.0,0.0,2.75
-23.0,2.0,2.751
-9.0,6.0,2.752
8.0,12.0,2.753
17.0,18.0,2.754
20.0,17.0,2.755
21.0,7.0,2.756
22.0,-3.0,2.757
19.0,-7.0,2.758
14.0,0.0,2.759
9.0,8.0,2.76
6.0,0.0,2.761
6.0,-8.0,2.762
11.0,-7.0,2.763
17.0,3.0,2.764
17.0,10.0,2.765
8.0,8.0,2.766
-1.0,3.0,2.767
-6.0,0.0,2.768
-16.0,0.0,2.769
-27.0,-2.0,2.77
-27.0,-3.0,2.771
-8.0,-3.0,2.772
8.0,-6.0,2.773
7.0,-4.0,2.774
3.0,8.0,2.775
16.0,18.0,2.776
36.0,16.0,2.777
36.0,2.0,2.778
10.0,-5.0,2.779
-24.0,0.0,2.78
-40.0,0.0,2.781
-35.0,-4.0,2.782
-18.0,-5.0,2.783
5.0,0.0,2.784
25.0,1.0,2.785
34.0,-6.0,2.786
29.0,-11.0,2.787
22.0,-8.0,2.788
20.0,-5.0,2.789
27.0,-8.0,2.79
35.0,-9.0,2.791
35.0,2.0,2.792
24.0,14.0,2.793
9.0,12.0,2.794
0.0,2.0,2.795
0.0,-2.0,2.796
-5.0,-1.0,2.797
-24.0,-7.0,2.798
-46.0,-15.0,2.799
-54.0,-13.0,2.8
-41.0,-5.0,2.801
-21.0,3.0,2.802
-8.0,1.0,2.803
-4.0,-5.0,2.804
-1.0,-8.0,2.805
6.0,-9.0,2.806
13.0,-10.0,2.807
15.0,-13.0,2.808
13.0,-9.0,2.809
13.0,1.0,2.81
13.0,11.0,2.811
10.0,16.0,2.812
4.0,15.0,2.813
1.0,7.0,2.814
2.0,-3.0,2.815
5.0,-6.0,2.816
13.0,1.0,2.817
19.0,9.0,2.818
19.0,8.0,2.819
8.0,1.0,2.82
-7.0,-4.0,2.821
-9.0,-2.0,2.822
3.0,-3.0,2.823
14.0,-8.0,2.824
8.0,-8.0,2.825
-11.0,0.0,2.826
-20.0,4.0,2.827
-11.0,0.0,2.828
14.0,-4.0,2.829
35.0,-3.0,2.83
43.0,-2.0,2.831
32.0,-1.0,2.832
5.0,0.0,2.833
-28.0,3.0,2.834
-53.0,2.0,2.835
-60.0,0.0,2.836
-52.0,1.0,2.837
-38.0,2.0,2.838
-25.0,4.0,2.839
-18.0,-2.0,2.84
-7.0,-15.0,2.841
8.0,-22.0,2.842
22.0,-16.0,2.843
27.0,2.0,2.844
19.0,19.0,2.845
6.0,16.0,2.846
0.0,-1.0,2.847
1.0,-10.0,2.848
2.0,-1.0,2.849
6.0,13.0,2.85
21.0,16.0,2.851
46.0,8.0,2.852
58.0,0.0,2.853
47.0,0.0,2.854
28.0,4.0,2.855
20.0,10.0,2.856
19.0,16.0,2.857
7.0,14.0,2.858
-5.0,-1.0,2.859
-7.0,-21.0,2.86
0.0,-34.0,2.861
2.0,-30.0,2.862
1.0,-19.0,2.863
3.0,-13.0,2.864
5.0,-6.0,2.865
-5.0,6.0,2.866
-18.0,15.0,2.867
-19.0,9.0,2.868
-11.0,-5.0,2.869
-8.0,-5.0,2.87
-9.0,12.0,2.871
-8.0,25.0,2.872
-6.0,15.0,2.873
-6.0,-3.0,2.874
-7.0,-17.0,2.875
-5.0,-22.0,2.876
-1.0,-20.0,2.877
-1.0,-14.0,2.878
2.0,-6.0,2.879
8.0,3.0,2.88
10.0,9.0,2.881
1.0,13.0,2.882
-11.0,11.0,2.883
-22.0,1.0,2.884
-19.0,-5.0,2.885
-2.0,-2.0,2.886
21.0,0.0,2.887
36.0,-7.0,2.888
33.0,-12.0,2.889
16.0,-3.0,2.89
5.0,8.0,2.891
11.0,6.0,2.892
22.0,0.0,2.893
30.0,3.0,2.894
27.0,13.0,2.895
18.0,13.0,2.896
11.0,4.0,2.897
6.0,-7.0,2.898
4.0,-8.0,2.899
-1.0,-10.0,2.9
-12.0,-10.0,2.901
-22.0,-8.0,2.902
-20.0,-1.0,2.903
-9.0,5.0,2.904
5.0,8.0,2.905
15.0,10.0,2.906
15.0,7.0,2.907
2.0,4.0,2.908
-15.0,1.0,2.909
-23.0,-2.0,2.91
-24.0,-2.0,2.911
-25.0,1.0,2.912
-27.0,10.0,2.913
-18.0,16.0,2.914
7.0,9.0,2.915
29.0,3.0,2.916
34.0,5.0,2.917
23.0,10.0,2.918
8.0,15.0,2.919
-7.0,1.0,2.92
-17.0,-25.0,2.921
-22.0,-37.0,2.922
-13.0,-21.0,2.923
5.0,2.0,2.924
14.0,9.0,2.925
9.0,3.0,2.926
1.0,4.0,2.927
-1.0,9.0,2.928
0.0,5.0,2.929
4.0,-10.0,2.93
15.0,-15.0,2.931
28.0,-7.0,2.932
29.0,-1.0,2.933
14.0,-3.0,2.934
-5.0,-1.0,2.935
-14.0,6.0,2.936
-12.0,10.0,2.937
2.0,4.0,2.938
17.0,-3.0,2.939
28.0,-10.0,2.94
30.0,-22.0,2.941
27.0,-22.0,2.942
24.0,-7.0,2.943
16.0,7.0,2.944
-2.0,6.0,2.945
-23.0,-4.0,2.946
-31.0,-5.0,2.947
-25.0,4.0,2.948
-16.0,13.0,2.949
-10.0,12.0,2.95
-10.0,9.0,2.951
-10.0,2.0,2.952
-4.0,-1.0,2.953
7.0,2.0,2.954
16.0,11.0,2.955
17.0,12.0,2.956
13.0,2.0,2.957
10.0,-11.0,2.958
10.0,-11.0,2.959
8.0,2.0,2.96
0.0,11.0,2.961
-4.0,12.0,2.962
-1.0,6.0,2.963
5.0,1.0,2.964
5.0,-3.0,2.965
-1.0,-8.0,2.966
-4.0,-12.0,2.967
-3.0,-12.0,2.968
0.0,-6.0,2.969
4.0,4.0,2.97
9.0,9.0,2.971
10.0,2.0,2.972
2.0,-8.0,2.973
-9.0,-10.0,2.974
-13.0,-5.0,2.975
-2.0,0.0,2.976
11.0,0.0,2.977
23.0,-4.0,2.978
20.0,0.0,2.979
13.0,5.0,2.98
10.0,-1.0,2.981
14.0,-13.0,2.982
16.0,-22.0,2.983
10.0,-15.0,2.984
-3.0,-2.0,2.985
-9.0,8.0,2.986
-4.0,7.0,2.987
-2.0,5.0,2.988
-7.0,12.0,2.989
-12.0,22.0,2.99
-4.0,18.0,2.991
11.0,5.0,2.992
18.0,-4.0,2.993
16.0,-2.0,2.994
11.0,-4.0,2.995
8.0,-13.0,2.996
8.0,-15.0,2.997
12.0,-8.0,2.998
20.0,-8.0,2.999
21.0,-17.0,3.0
9.0,-26.0,3.001
-6.0,-15.0,3.002
-8.0,0.0,3.003
-4.0,2.0,3.004
-10.0,-3.0,3.005
-24.0,4.0,3.006
-31.0,17.0,3.007
-21.0,17.0,3.008
-12.0,4.0,3.009
-15.0,-5.0,3.01
-14.0,4.0,3.011
1.0,16.0,3.012
14.0,16.0,3.013
8.0,9.0,3.014
-8.0,8.0,3.015
-14.0,19.0,3.016
-9.0,26.0,3.017
-9.0,15.0,3.018
-17.0,-1.0,3.019
-23.0,-6.0,3.02
-19.0,-4.0,3.021
-13.0,-1.0,3.022
0.0,-8.0,3.023
20.0,-20.0,3.024
40.0,-27.0,3.025
46.0,-29.0,3.026
41.0,-25.0,3.027
34.0,-7.0,3.028
32.0,16.0,3.029
27.0,31.0,3.03
25.0,22.0,3.031
26.0,2.0,3.032
27.0,-6.0,3.033
21.0,-4.0,3.034
11.0,-3.0,3.035
4.0,-8.0,3.036
3.0,-4.0,3.037
0.0,9.0,3.038
-3.0,19.0,3.039
-9.0,8.0,3.04
-11.0,-16.0,3.041
-9.0,-23.0,3.042
-2.0,-7.0,3.043
4.0,14.0,3.044
4.0,17.0,3.045
-4.0,3.0,3.046
-13.0,-8.0,3.047
-14.0,-3.0,3.048
-5.0,2.0,3.049
3.0,-6.0,3.05
11.0,-18.0,3.051
11.0,-15.0,3.052
4.0,-3.0,3.053
-7.0,2.0,3.054
-13.0,1.0,3.055
-12.0,7.0,3.056
0.0,16.0,3.057
11.0,11.0,3.058
12.0,-3.0,3.059
1.0,-9.0,3.06
-6.0,-8.0,3.061
-5.0,-7.0,3.062
0.0,-10.0,3.063
-2.0,-7.0,3.064
-14.0,8.0,3.065
-23.0,22.0,3.066
-22.0,16.0,3.067
-14.0,1.0,3.068
-6.0,-8.0,3.069
-2.0,-8.0,3.07
-2.0,-4.0,3.071
-5.0,-3.0,3.072
-4.0,-7.0,3.073
6.0,-8.0,3.074
21.0,-5.0,3.075
31.0,-4.0,3.076
26.0,-7.0,3.077
4.0,-15.0,3.078
-14.0,-13.0,3.079
-14.0,-1.0,3.08
4.0,10.0,3.081
25.0,12.0,3.082
30.0,8.0,3.083
20.0,2.0,3.084
8.0,0.0,3.085
0.0,3.0,3.086
-6.0,10.0,3.087
-9.0,12.0,3.088
-4.0,9.0,3.089
3.0,3.0,3.09
3.0,0.0,3.091
1.0,-2.0,3.092
4.0,-7.0,3.093
12.0,-10.0,3.094
19.0,-11.0,3.095
26.0,-11.0,3.096
39.0,-10.0,3.097
44.0,-12.0,3.098
37.0,-7.0,3.099
16.0,6.0,3.1
0.0,15.0,3.101
-6.0,13.0,3.102
-10.0,-1.0,3.103
-20.0,-16.0,3.104
-33.0,-20.0,3.105
-44.0,-14.0,3.106
-49.0,-8.0,3.107
-47.0,-6.0,3.108
-44.0,-5.0,3.109
-36.0,-5.0,3.11
-13.0,-9.0,3.111
22.0,-9.0,3.112
53.0,-3.0,3.113
59.0,3.0,3.114
44.0,4.0,3.115
28.0,7.0,3.116
25.0,16.0,3.117
25.0,19.0,3.118
24.0,14.0,3.119
19.0,11.0,3.12
10.0,11.0,3.121
-3.0,7.0,3.122
-12.0,-11.0,3.123
-7.0,-22.0,3.124
-3.0,-7.0,3.125
-14.0,14.0,3.126
-30.0,16.0,3.127
-33.0,8.0,3.128
-17.0,6.0,3.129
0.0,9.0,3.13
8.0,6.0,3.131
9.0,2.0,3.132
7.0,7.0,3.133
6.0,14.0,3.134
7.0,7.0,3.135
7.0,-5.0,3.136
6.0,-8.0,3.137
-2.0,-5.0,3.138
-9.0,-4.0,3.139
-23.0,-9.0,3.14
-38.0,-16.0,3.141
-37.0,-19.0,3.142
-17.0,-18.0,3.143
5.0,-13.0,3.144
8.0,-5.0,3.145
2.0,1.0,3.146
7.0,3.0,3.147
17.0,5.0,3.148
22.0,9.0,3.149
34.0,13.0,3.15
59.0,12.0,3.151
78.0,9.0,3.152
66.0,7.0,3.153
37.0,2.0,3.154
23.0,0.0,3.155
26.0,5.0,3.156
29.0,10.0,3.157
23.0,5.0,3.158
19.0,-3.0,3.159
9.0,-9.0,3.16
-13.0,-12.0,3.161
-35.0,-15.0,3.162
-38.0,-14.0,3.163
-29.0,-12.0,3.164
-32.0,-9.0,3.165
-38.0,-7.0,3.166
-31.0,-11.0,3.167
-13.0,-13.0,3.168
-6.0,-8.0,3.169
-7.0,-3.0,3.17
0.0,0.0,3.171
17.0,2.0,3.172
26.0,4.0,3.173
21.0,7.0,3.174
13.0,9.0,3.175
2.0,11.0,3.176
-9.0,11.0,3.177
-25.0,9.0,3.178
-34.0,5.0,3.179
-30.0,1.0,3.18
-18.0,-3.0,3.181
-5.0,-5.0,3.182
10.0,-6.0,3.183
20.0,-2.0,3.184
19.0,6.0,3.185
10.0,8.0,3.186
7.0,-1.0,3.187
12.0,-13.0,3.188
13.0,-10.0,3.189
3.0,14.0,3.19
-14.0,37.0,3.191
-26.0,35.0,3.192
-24.0,8.0,3.193
-12.0,-14.0,3.194
0.0,-10.0,3.195
1.0,5.0,3.196
2.0,11.0,3.197
8.0,1.0,3.198
14.0,-3.0,3.199
9.0,1.0,3.2
-3.0,0.0,3.201
-4.0,-7.0,3.202
6.0,-8.0,3.203
15.0,-4.0,3.204
14.0,1.0,3.205
11.0,-1.0,3.206
11.0,-8.0,3.207
13.0,-14.0,3.208
8.0,-17.0,3.209
4.0,-15.0,3.21
8.0,-4.0,3.211
15.0,9.0,3.212
19.0,14.0,3.213
17.0,8.0,3.214
15.0,-1.0,3.215
8.0,-6.0,3.216
0.0,0.0,3.217
-8.0,4.0,3.218
-6.0,3.0,3.219
-4.0,1.0,3.22
0.0,-3.0,3.221
5.0,-7.0,3.222
10.0,-7.0,3.223
18.0,-6.0,3.224
30.0,-6.0,3.225
39.0,-5.0,3.226
34.0,-2.0,3.227
24.0,0.0,3.228
2.0,3.0,3.229
-17.0,6.0,3.23
-25.0,5.0,3.231
-30.0,3.0,3.232
-25.0,0.0,3.233
-22.0,-2.0,3.234
-26.0,-2.0,3.235
-27.0,-1.0,3.236
-16.0,-3.0,3.237
-5.0,-4.0,3.238
-1.0,-3.0,3.239
0.0,-5.0,3.24
4.0,-10.0,3.241
0.0,-10.0,3.242
-20.0,-7.0,3.243
-46.0,-5.0,3.244
-52.0,-1.0,3.245
-34.0,4.0,3.246
-7.0,4.0,3.247
11.0,-3.0,3.248
29.0,-9.0,3.249
55.0,-8.0,3.25
82.0,0.0,3.251
99.0,13.0,3.252
103.0,28.0,3.253
91.0,38.0,3.254
69.0,37.0,3.255
46.0,25.0,3.256
34.0,14.0,3.257
24.0,10.0,3.258
4.0,6.0,3.259
-27.0,-2.0,3.26
-58.0,-14.0,3.261
-74.0,-20.0,3.262
-63.0,-21.0,3.263
-32.0,-24.0,3.264
4.0,-29.0,3.265
23.0,-30.0,3.266
18.0,-27.0,3.267
1.0,-22.0,3.268
-7.0,-22.0,3.269
-7.0,-20.0,3.27
-5.0,-12.0,3.271
-1.0,0.0,3.272
5.0,12.0,3.273
8.0,16.0,3.274
5.0,15.0,3.275
7.0,9.0,3.276
10.0,3.0,3.277
-5.0,-2.0,3.278
-1.0,-1.0,3.279
2.0,-1.0,3.28
6.0,-3.0,3.281
10.0,-5.0,3.282
10.0,-4.0,3.283
10.0,-2.0,3.284
7.0,1.0,3.285
7.0,5.0,3.286
17.0,6.0,3.287
22.0,7.0,3.288
9.0,4.0,3.289
-1.0,2.0,3.29
-8.0,3.0,3.291
-14.0,4.0,3.292
-11.0,5.0,3.293
-8.0,6.0,3.294
-5.0,3.0,3.295
0.0,1.0,3.296
5.0,1.0,3.297
-9.0,-4.0,3.298
-3.0,-2.0,3.299
2.0,-2.0,3.3
8.0,-6.0,3.301
14.0,-9.0,3.302
14.0,-7.0,3.303
14.0,-4.0,3.304
10.0,2.0,3.305
9.0,8.0,3.306
23.0,9.0,3.307
30.0,10.0,3.308
12.0,6.0,3.309
-3.0,3.0,3.31
-13.0,4.0,3.311
-21.0,6.0,3.312
-17.0,8.0,3.313
-13.0,9.0,3.314
-9.0,5.0,3.315
-2.0,1.0,3.316
7.0,2.0,3.317
15.0,5.0,3.318
9.0,12.0,3.319
3.0,15.0,3.32
-1.0,6.0,3.321
-10.0,-3.0,3.322
-16.0,-10.0,3.323
-5.0,-10.0,3.324
21.0,-6.0,3.325
41.0,-1.0,3.326
37.0,1.0,3.327
12.0,-2.0,3.328
-12.0,-4.0,3.329
-19.0,0.0,3.33
-12.0,5.0,3.331
-4.0,8.0,3.332
1.0,4.0,3.333
13.0,-1.0,3.334
28.0,-4.0,3.335
36.0,-5.0,3.336
28.0,-1.0,3.337
20.0,-1.0,3.338
23.0,-2.0,3.339
21.0,1.0,3.34
2.0,4.0,3.341
-15.0,6.0,3.342
0.0,0.0,3.343
31.0,-6.0,3.344
38.0,-6.0,3.345
23.0,-2.0,3.346
13.0,-4.0,3.347
18.0,-11.0,3.348
14.0,-13.0,3.349
-5.0,-4.0,3.35
-25.0,7.0,3.351
-42.0,12.0,3.352
-69.0,9.0,3.353
-88.0,2.0,3.354
-73.0,-3.0,3.355
-25.0,-8.0,3.356
18.0,-10.0,3.357
41.0,-14.0,3.358
52.0,-13.0,3.359
55.0,-9.0,3.36
45.0,-2.0,3.361
26.0,5.0,3.362
21.0,4.0,3.363
43.0,2.0,3.364
68.0,4.0,3.365
62.0,13.0,3.366
22.0,15.0,3.367
-20.0,4.0,3.368
-47.0,-7.0,3.369
-60.0,-10.0,3.37
-69.0,-2.0,3.371
-68.0,6.0,3.372
-50.0,6.0,3.373
-29.0,0.0,3.374
-18.0,-5.0,3.375
-15.0,-5.0,3.376
-3.0,-2.0,3.377
13.0,-2.0,3.378
25.0,-5.0,3.379
34.0,-8.0,3.38
35.0,-12.0,3.381
36.0,-10.0,3.382
38.0,-7.0,3.383
35.0,-4.0,3.384
14.0,-1.0,3.385
-2.0,0.0,3.386
-4.0,-2.0,3.387
-8.0,-5.0,3.388
-13.0,-5.0,3.389
-13.0,-2.0,3.39
7.0,0.0,3.391
25.0,-3.0,3.392
37.0,-4.0,3.393
41.0,0.0,3.394
20.0,6.0,3.395
0.0,8.0,3.396
-13.0,11.0,3.397
-24.0,10.0,3.398
-21.0,6.0,3.399
-19.0,1.0,3.4
-24.0,-4.0,3.401
-29.0,-2.0,3.402
-22.0,0.0,3.403
-9.0,-1.0,3.404
-3.0,-3.0,3.405
-5.0,-2.0,3.406
-6.0,1.0,3.407
-2.0,1.0,3.408
2.0,7.0,3.409
8.0,17.0,3.41
25.0,25.0,3.411
43.0,17.0,3.412
46.0,1.0,3.413
28.0,-8.0,3.414
12.0,-6.0,3.415
7.0,-5.0,3.416
7.0,-4.0,3.417
-7.0,-6.0,3.418
-24.0,-3.0,3.419
-30.0,0.0,3.42
-23.0,-4.0,3.421
-13.0,-8.0,3.422
-4.0,-10.0,3.423
3.0,-10.0,3.424
2.0,-7.0,3.425
-7.0,-6.0,3.426
-21.0,-7.0,3.427
-31.0,-8.0,3.428
-33.0,-8.0,3.429
-23.0,-4.0,3.43
0.0,1.0,3.431
24.0,3.0,3.432
40.0,0.0,3.433
45.0,-2.0,3.434
47.0,-3.0,3.435
55.0,-2.0,3.436
71.0,0.0,3.437
78.0,3.0,3.438
63.0,0.0,3.439
22.0,-6.0,3.44
-22.0,-13.0,3.441
-48.0,-10.0,3.442
-55.0,2.0,3.443
-52.0,18.0,3.444
-37.0,26.0,3.445
-16.0,20.0,3.446
0.0,7.0,3.447
3.0,0.0,3.448
0.0,0.0,3.449
-1.0,3.0,3.45
0.0,5.0,3.451
-5.0,6.0,3.452
-8.0,6.0,3.453
-4.0,3.0,3.454
1.0,-3.0,3.455
5.0,-6.0,3.456
9.0,-5.0,3.457
13.0,-3.0,3.458
12.0,-6.0,3.459
3.0,-13.0,3.46
-5.0,-25.0,3.461
-12.0,-31.0,3.462
-15.0,-31.0,3.463
-17.0,-24.0,3.464
-12.0,-16.0,3.465
-3.0,-9.0,3.466
5.0,-8.0,3.467
13.0,-8.0,3.468
22.0,-3.0,3.469
27.0,6.0,3.47
20.0,16.0,3.471
2.0,19.0,3.472
-17.0,14.0,3.473
-38.0,6.0,3.474
-60.0,2.0,3.475
-66.0,3.0,3.476
-40.0,7.0,3.477
6.0,5.0,3.478
44.0,3.0,3.479
66.0,1.0,3.48
86.0,-3.0,3.481
107.0,-5.0,3.482
113.0,-1.0,3.483
93.0,4.0,3.484
59.0,13.0,3.485
28.0,20.0,3.486
-2.0,19.0,3.487
-22.0,17.0,3.488
-23.0,12.0,3.489
-6.0,7.0,3.49
10.0,3.0,3.491
10.0,0.0,3.492
-7.0,1.0,3.493
-25.0,2.0,3.494
-34.0,3.0,3.495
-27.0,4.0,3.496
-16.0,4.0,3.497
-18.0,2.0,3.498
-31.0,-5.0,3.499
-45.0,-12.0,3.5
-49.0,-17.0,3.501
-45.0,-15.0,3.502
-38.0,-12.0,3.503
-24.0,-9.0,3.504
-7.0,-9.0,3.505
0.0,-8.0,3.506
0.0,-6.0,3.507
10.0,-3.0,3.508
23.0,-3.0,3.509
19.0,-5.0,3.51
-12.0,-6.0,3.511
-51.0,-5.0,3.512
-71.0,-1.0,3.513
-66.0,0.0,3.514
-41.0,-2.0,3.515
-8.0,-6.0,3.516
19.0,-8.0,3.517
40.0,-6.0,3.518
66.0,2.0,3.519
103.0,12.0,3.52
122.0,14.0,3.521
103.0,13.0,3.522
68.0,6.0,3.523
55.0,0.0,3.524
59.0,-5.0,3.525
53.0,-8.0,3.526
27.0,-10.0,3.527
5.0,-9.0,3.528
-8.0,-8.0,3.529
-24.0,-8.0,3.53
-42.0,-7.0,3.531
-50.0,-2.0,3.532
-46.0,8.0,3.533
-39.0,13.0,3.534
-26.0,11.0,3.535
-5.0,6.0,3.536
11.0,4.0,3.537
10.0,1.0,3.538
-7.0,-4.0,3.539
-28.0,-10.0,3.54
-42.0,-11.0,3.541
-47.0,-2.0,3.542
-47.0,4.0,3.543
-44.0,1.0,3.544
-39.0,-6.0,3.545
-28.0,-10.0,3.546
-20.0,-7.0,3.547
-23.0,-3.0,3.548
-36.0,2.0,3.549
-31.0,6.0,3.55
-1.0,8.0,3.551
33.0,9.0,3.552
54.0,8.0,3.553
68.0,10.0,3.554
84.0,9.0,3.555
92.0,0.0,3.556
90.0,-6.0,3.557
86.0,-6.0,3.558
83.0,0.0,3.559
56.0,6.0,3.56
0.0,0.0,3.561
-50.0,-2.0,3.562
-57.0,0.0,3.563
-33.0,2.0,3.564
-12.0,-2.0,3.565
2.0,-11.0,3.566
23.0,-12.0,3.567
39.0,-8.0,3.568
30.0,-2.0,3.569
2.0,3.0,3.57
-13.0,9.0,3.571
-4.0,14.0,3.572
4.0,11.0,3.573
-5.0,1.0,3.574
-23.0,-7.0,3.575
-29.0,-9.0,3.576
-20.0,-2.0,3.577
-12.0,2.0,3.578
-13.0,-1.0,3.579
-22.0,-6.0,3.58
-27.0,-12.0,3.581
-27.0,-12.0,3.582
-21.0,-13.0,3.583
-19.0,-10.0,3.584
-21.0,-3.0,3.585
-17.0,2.0,3.586
-4.0,-4.0,3.587
2.0,-15.0,3.588
-12.0,-21.0,3.589
-33.0,-16.0,3.59
-31.0,-11.0,3.591
-7.0,-9.0,3.592
5.0,-2.0,3.593
-5.0,9.0,3.594
-8.0,17.0,3.595
25.0,20.0,3.596
72.0,26.0,3.597
95.0,32.0,3.598
84.0,29.0,3.599
55.0,13.0,3.6
31.0,-4.0,3.601
14.0,-7.0,3.602
6.0,-3.0,3.603
12.0,1.0,3.604
20.0,7.0,3.605
16.0,13.0,3.606
-3.0,11.0,3.607
-22.0,-1.0,3.608
-35.0,-9.0,3.609
-42.0,-8.0,3.61
-39.0,-5.0,3.611
-26.0,-11.0,3.612
-8.0,-17.0,3.613
9.0,-11.0,3.614
22.0,-1.0,3.615
26.0,5.0,3.616
17.0,3.0,3.617
-6.0,-7.0,3.618
-27.0,-18.0,3.619
-43.0,-24.0,3.62
-43.0,-23.0,3.621
-41.0,-16.0,3.622
-38.0,-16.0,3.623
-28.0,-18.0,3.624
4.0,-12.0,3.625
32.0,1.0,3.626
52.0,6.0,3.627
62.0,2.0,3.628
42.0,3.0,3.629
33.0,17.0,3.63
59.0,28.0,3.631
79.0,26.0,3.632
79.0,20.0,3.633
68.0,19.0,3.634
27.0,19.0,3.635
-7.0,14.0,3.636
-21.0,7.0,3.637
-35.0,0.0,3.638
-45.0,-4.0,3.639
-45.0,-5.0,3.64
-36.0,-13.0,3.641
-28.0,-20.0,3.642
-18.0,-23.0,3.643
5.0,-16.0,3.644
30.0,0.0,3.645
35.0,13.0,3.646
21.0,13.0,3.647
9.0,4.0,3.648
6.0,-5.0,3.649
6.0,-8.0,3.65
6.0,-6.0,3.651
10.0,-2.0,3.652
7.0,-1.0,3.653
-20.0,-4.0,3.654
-65.0,-8.0,3.655
-107.0,-10.0,3.656
-132.0,-11.0,3.657
-74.0,-14.0,3.658
-68.0,-14.0,3.659
-71.0,-5.0,3.66
-102.0,3.0,3.661
-115.0,4.0,3.662
-68.0,-1.0,3.663
-13.0,2.0,3.664
57.0,19.0,3.665
115.0,34.0,3.666
125.0,33.0,3.667
125.0,21.0,3.668
91.0,13.0,3.669
50.0,10.0,3.67
-17.0,5.0,3.671
-61.0,0.0,3.672
-27.0,-3.0,3.673
-4.0,-7.0,3.674
-13.0,-11.0,3.675
-27.0,-16.0,3.676
-44.0,-14.0,3.677
-27.0,-13.0,3.678
-25.0,-11.0,3.679
-26.0,-8.0,3.68
-35.0,-2.0,3.681
-39.0,2.0,3.682
-25.0,0.0,3.683
-9.0,-1.0,3.684
12.0,3.0,3.685
29.0,3.0,3.686
32.0,-6.0,3.687
32.0,-14.0,3.688
22.0,-11.0,3.689
10.0,-9.0,3.69
-10.0,-11.0,3.691
-23.0,-12.0,3.692
-13.0,-8.0,3.693
-6.0,-3.0,3.694
-9.0,0.0,3.695
-13.0,5.0,3.696
-18.0,13.0,3.697
-18.0,21.0,3.698
-6.0,18.0,3.699
-2.0,7.0,3.7
-5.0,-2.0,3.701
-4.0,2.0,3.702
5.0,9.0,3.703
15.0,10.0,3.704
15.0,7.0,3.705
9.0,3.0,3.706
9.0,-1.0,3.707
12.0,-7.0,3.708
12.0,-9.0,3.709
9.0,-9.0,3.71
9.0,-9.0,3.711
9.0,-10.0,3.712
0.0,-12.0,3.713
-12.0,-15.0,3.714
-17.0,-17.0,3.715
-13.0,-14.0,3.716
-7.0,-6.0,3.717
-9.0,-2.0,3.718
-9.0,0.0,3.719
-3.0,6.0,3.72
8.0,18.0,3.721
11.0,33.0,3.722
1.0,39.0,3.723
4.0,31.0,3.724
33.0,13.0,3.725
68.0,-2.0,3.726
72.0,-10.0,3.727
44.0,-11.0,3.728
12.0,-4.0,3.729
-2.0,4.0,3.73
-11.0,5.0,3.731
-19.0,-1.0,3.732
-9.0,-5.0,3.733
18.0,-4.0,3.734
32.0,0.0,3.735
13.0,-2.0,3.736
-13.0,-8.0,3.737
-27.0,-13.0,3.738
-32.0,-13.0,3.739
-52.0,-8.0,3.74
-86.0,-5.0,3.741
-102.0,-7.0,3.742
-75.0,-12.0,3.743
-10.0,-14.0,3.744
63.0,-7.0,3.745
114.0,4.0,3.746
135.0,10.0,3.747
127.0,5.0,3.748
94.0,-5.0,3.749
38.0,-13.0,3.75
-20.0,-8.0,3.751
-45.0,11.0,3.752
-22.0,37.0,3.753
21.0,54.0,3.754
41.0,48.0,3.755
28.0,18.0,3.756
12.0,-8.0,3.757
2.0,-18.0,3.758
-4.0,-13.0,3.759
-18.0,-7.0,3.76
-25.0,-8.0,3.761
-18.0,-9.0,3.762
-10.0,-7.0,3.763
-5.0,-8.0,3.764
1.0,-14.0,3.765
25.0,-21.0,3.766
52.0,-27.0,3.767
56.0,-40.0,3.768
21.0,-48.0,3.769
-44.0,-32.0,3.77
-111.0,-1.0,3.771
-148.0,20.0,3.772
-134.0,22.0,3.773
-81.0,24.0,3.774
-15.0,39.0,3.775
32.0,47.0,3.776
48.0,33.0,3.777
37.0,2.0,3.778
11.0,-11.0,3.779
-13.0,-4.0,3.78
-24.0,2.0,3.781
-19.0,-4.0,3.782
2.0,-16.0,3.783
32.0,-17.0,3.784
46.0,-8.0,3.785
28.0,-1.0,3.786
-6.0,-4.0,3.787
-30.0,-10.0,3.788
-32.0,-9.0,3.789
-17.0,-1.0,3.79
11.0,6.0,3.791
44.0,10.0,3.792
71.0,8.0,3.793
79.0,0.0,3.794
66.0,-10.0,3.795
43.0,-17.0,3.796
23.0,-14.0,3.797
4.0,-9.0,3.798
-14.0,-6.0,3.799
-40.0,-3.0,3.8
-68.0,-3.0,3.801
-83.0,-1.0,3.802
-78.0,-9.0,3.803
-50.0,-17.0,3.804
7.0,-12.0,3.805
88.0,3.0,3.806
146.0,14.0,3.807
139.0,20.0,3.808
78.0,30.0,3.809
21.0,41.0,3.81
-2.0,33.0,3.811
2.0,11.0,3.812
17.0,-3.0,3.813
30.0,0.0,3.814
31.0,7.0,3.815
14.0,10.0,3.816
-5.0,16.0,3.817
-13.0,24.0,3.818
-18.0,23.0,3.819
-30.0,6.0,3.82
-39.0,-12.0,3.821
-32.0,-14.0,3.822
-19.0,-10.0,3.823
-13.0,-13.0,3.824
-14.0,-17.0,3.825
-11.0,-17.0,3.826
-10.0,-17.0,3.827
-18.0,-21.0,3.828
-24.0,-21.0,3.829
-22.0,-12.0,3.83
-15.0,-3.0,3.831
-10.0,-6.0,3.832
-11.0,-9.0,3.833
-14.0,-4.0,3.834
-18.0,2.0,3.835
-21.0,2.0,3.836
-18.0,1.0,3.837
-6.0,0.0,3.838
7.0,2.0,3.839
12.0,-2.0,3.84
14.0,-13.0,3.841
18.0,-17.0,3.842
23.0,-10.0,3.843
27.0,5.0,3.844
21.0,17.0,3.845
9.0,15.0,3.846
-2.0,0.0,3.847
-5.0,-14.0,3.848
-3.0,-18.0,3.849
0.0,-14.0,3.85
1.0,-10.0,3.851
-2.0,-5.0,3.852
-8.0,2.0,3.853
-7.0,9.0,3.854
8.0,10.0,3.855
36.0,9.0,3.856
60.0,10.0,3.857
70.0,8.0,3.858
63.0,6.0,3.859
39.0,2.0,3.86
2.0,-1.0,3.861
-38.0,0.0,3.862
-61.0,3.0,3.863
-56.0,8.0,3.864
-33.0,9.0,3.865
-9.0,8.0,3.866
4.0,8.0,3.867
10.0,10.0,3.868
17.0,8.0,3.869
32.0,-1.0,3.87
41.0,-8.0,3.871
33.0,-11.0,3.872
9.0,-11.0,3.873
-9.0,-9.0,3.874
-15.0,-1.0,3.875
-22.0,12.0,3.876
-31.0,20.0,3.877
-34.0,13.0,3.878
-17.0,0.0,3.879
4.0,-7.0,3.88
18.0,-10.0,3.881
26.0,-11.0,3.882
40.0,-6.0,3.883
50.0,9.0,3.884
45.0,19.0,3.885
27.0,8.0,3.886
5.0,-17.0,3.887
-27.0,-29.0,3.888
-71.0,-20.0,3.889
-103.0,-9.0,3.89
-89.0,-19.0,3.891
-33.0,-36.0,3.892
22.0,-37.0,3.893
43.0,-14.0,3.894
37.0,13.0,3.895
29.0,35.0,3.896
27.0,51.0,3.897
26.0,63.0,3.898
29.0,61.0,3.899
35.0,40.0,3.9
33.0,8.0,3.901
10.0,-10.0,3.902
-19.0,-11.0,3.903
-27.0,-6.0,3.904
-13.0,-7.0,3.905
-4.0,-11.0,3.906
-16.0,-14.0,3.907
-23.0,-14.0,3.908
-4.0,-14.0,3.909
32.0,-14.0,3.91
51.0,-11.0,3.911
36.0,-9.0,3.912
3.0,-12.0,3.913
-22.0,-20.0,3.914
-20.0,-26.0,3.915
4.0,-27.0,3.916
25.0,-21.0,3.917
27.0,-13.0,3.918
27.0,4.0,3.919
32.0,21.0,3.92
38.0,25.0,3.921
32.0,19.0,3.922
30.0,9.0,3.923
42.0,2.0,3.924
47.0,1.0,3.925
23.0,9.0,3.926
-12.0,14.0,3.927
-24.0,6.0,3.928
-22.0,-10.0,3.929
-22.0,-14.0,3.93
-25.0,2.0,3.931
-20.0,22.0,3.932
-15.0,21.0,3.933
-22.0,2.0,3.934
-30.0,-12.0,3.935
-24.0,-14.0,3.936
-14.0,-4.0,3.937
-12.0,3.0,3.938
-12.0,4.0,3.939
-4.0,2.0,3.94
2.0,-9.0,3.941
-5.0,-18.0,3.942
-13.0,-18.0,3.943
-7.0,-16.0,3.944
-3.0,-14.0,3.945
-10.0,-13.0,3.946
-11.0,-13.0,3.947
11.0,-12.0,3.948
41.0,-7.0,3.949
49.0,1.0,3.95
28.0,19.0,3.951
-1.0,28.0,3.952
-28.0,10.0,3.953
-46.0,-1.0,3.954
-51.0,4.0,3.955
-43.0,9.0,3.956
-26.0,10.0,3.957
-5.0,5.0,3.958
10.0,-15.0,3.959
9.0,-16.0,3.96
-4.0,-7.0,3.961
-9.0,1.0,3.962
5.0,0.0,3.963
25.0,-1.0,3.964
25.0,7.0,3.965
9.0,13.0,3.966
-2.0,8.0,3.967
3.0,-3.0,3.968
16.0,-6.0,3.969
21.0,3.0,3.97
20.0,9.0,3.971
20.0,6.0,3.972
21.0,-2.0,3.973
22.0,-8.0,3.974
23.0,-8.0,3.975
25.0,-6.0,3.976
21.0,1.0,3.977
13.0,7.0,3.978
10.0,7.0,3.979
7.0,-6.0,3.98
7.0,-24.0,3.981
5.0,-29.0,3.982
-7.0,-19.0,3.983
-22.0,-7.0,3.984
-48.0,1.0,3.985
-56.0,4.0,3.986
-4.0,0.0,3.987
42.0,-6.0,3.988
71.0,-8.0,3.989
82.0,-2.0,3.99
36.0,11.0,3.991
-6.0,19.0,3.992
-38.0,17.0,3.993
-64.0,12.0,3.994
-74.0,4.0,3.995
-72.0,-4.0,3.996
-27.0,-12.0,3.997
15.0,-15.0,3.998
37.0,-14.0,3.999
60.0,-11.0,4.0
82.0,-7.0,4.001
77.0,5.0,4.002
47.0,24.0,4.003
22.0,34.0,4.004
13.0,29.0,4.005
2.0,14.0,4.006
-15.0,4.0,4.007
-20.0,-3.0,4.008
-3.0,-5.0,4.009
6.0,-5.0,4.01
-10.0,-1.0,4.011
-39.0,3.0,4.012
-54.0,-1.0,4.013
-41.0,-5.0,4.014
-8.0,-4.0,4.015
26.0,1.0,4.016
46.0,3.0,4.017
43.0,-5.0,4.018
26.0,-13.0,4.019
5.0,-16.0,4.02
-8.0,-17.0,4.021
-12.0,-13.0,4.022
-8.0,-6.0,4.023
6.0,2.0,4.024
27.0,4.0,4.025
41.0,-1.0,4.026
31.0,-10.0,4.027
-2.0,-15.0,4.028
-32.0,-14.0,4.029
-41.0,-7.0,4.03
-35.0,6.0,4.031
-32.0,16.0,4.032
-27.0,17.0,4.033
-14.0,5.0,4.034
6.0,-5.0,4.035
14.0,-4.0,4.036
6.0,4.0,4.037
-11.0,4.0,4.038
-21.0,-2.0,4.039
-23.0,-4.0,4.04
-15.0,-5.0,4.041
2.0,-6.0,4.042
25.0,-6.0,4.043
45.0,-4.0,4.044
52.0,3.0,4.045
43.0,8.0,4.046
25.0,6.0,4.047
10.0,-1.0,4.048
-5.0,-3.0,4.049
-18.0,0.0,4.05
-22.0,3.0,4.051
-11.0,4.0,4.052
5.0,3.0,4.053
12.0,3.0,4.054
-1.0,8.0,4.055
-18.0,15.0,4.056
-19.0,17.0,4.057
-8.0,-9.0,4.058
4.0,-2.0,4.059
8.0,4.0,4.06
-12.0,7.0,4.061
-34.0,11.0,4.062
-58.0,22.0,4.063
-72.0,32.0,4.064
-53.0,32.0,4.065
-22.0,29.0,4.066
45.0,12.0,4.067
97.0,1.0,4.068
101.0,0.0,4.069
95.0,-1.0,4.07
60.0,-4.0,4.071
37.0,-6.0,4.072
49.0,-8.0,4.073
57.0,-9.0,4.074
55.0,-8.0,4.075
44.0,-8.0,4.076
5.0,-8.0,4.077
-31.0,-14.0,4.078
-41.0,-4.0,4.079
-35.0,4.0,4.08
-26.0,8.0,4.081
-24.0,14.0,4.082
-21.0,29.0,4.083
-16.0,41.0,4.084
-14.0,41.0,4.085
-19.0,37.0,4.086
-23.0,15.0,4.087
-18.0,-1.0,4.088
-9.0,-2.0,4.089
-6.0,-3.0,4.09
-7.0,-7.0,4.091
-3.0,-10.0,4.092
9.0,-12.0,4.093
18.0,-14.0,4.094
14.0,-13.0,4.095
0.0,-12.0,4.096
-12.0,-12.0,4.097
-26.0,-12.0,4.098
-35.0,-9.0,4.099
-29.0,-2.0,4.1
-6.0,-3.0,4.101
24.0,-12.0,4.102
43.0,-25.0,4.103
39.0,-31.0,4.104
13.0,-25.0,4.105
-15.0,-16.0,4.106
-21.0,-10.0,4.107
-4.0,-1.0,4.108
7.0,16.0,4.109
-2.0,30.0,4.11
-17.0,28.0,4.111
-17.0,14.0,4.112
-7.0,4.0,4.113
-10.0,4.0,4.114
-21.0,7.0,4.115
-25.0,5.0,4.116
-17.0,0.0,4.117
4.0,-3.0,4.118
24.0,-1.0,4.119
30.0,4.0,4.12
18.0,1.0,4.121
5.0,-4.0,4.122
17.0,-9.0,4.123
42.0,-10.0,4.124
45.0,-10.0,4.125
14.0,-6.0,4.126
-16.0,-2.0,4.127
-13.0,1.0,4.128
9.0,4.0,4.129
29.0,10.0,4.13
37.0,13.0,4.131
33.0,11.0,4.132
21.0,5.0,4.133
4.0,0.0,4.134
0.0,-4.0,4.135
9.0,-9.0,4.136
6.0,-12.0,4.137
-15.0,-12.0,4.138
-38.0,-8.0,4.139
-39.0,-4.0,4.14
-22.0,-4.0,4.141
-7.0,-3.0,4.142
-6.0,-2.0,4.143
-14.0,-3.0,4.144
-20.0,-1.0,4.145
-6.0,4.0,4.146
40.0,7.0,4.147
90.0,2.0,4.148
109.0,-3.0,4.149
93.0,-5.0,4.15
60.0,-6.0,4.151
18.0,-6.0,4.152
-31.0,-4.0,4.153
-65.0,2.0,4.154
-58.0,12.0,4.155
-26.0,19.0,4.156
-5.0,23.0,4.157
-3.0,17.0,4.158
-6.0,6.0,4.159
-15.0,-2.0,4.16
-28.0,-3.0,4.161
-35.0,-5.0,4.162
-28.0,-11.0,4.163
-25.0,-16.0,4.164
-38.0,-18.0,4.165
-45.0,-20.0,4.166
-25.0,-23.0,4.167
10.0,-24.0,4.168
32.0,-17.0,4.169
43.0,-8.0,4.17
49.0,5.0,4.171
38.0,15.0,4.172
-1.0,13.0,4.173
-36.0,12.0,4.174
-27.0,11.0,4.175
15.0,11.0,4.176
42.0,16.0,4.177
39.0,22.0,4.178
31.0,27.0,4.179
29.0,22.0,4.18
18.0,6.0,4.181
1.0,-6.0,4.182
4.0,-11.0,4.183
22.0,-11.0,4.184
29.0,-10.0,4.185
24.0,-12.0,4.186
25.0,-17.0,4.187
22.0,-22.0,4.188
-11.0,-19.0,4.189
-52.0,-12.0,4.19
-57.0,-6.0,4.191
-29.0,1.0,4.192
-18.0,12.0,4.193
-34.0,26.0,4.194
-33.0,32.0,4.195
6.0,28.0,4.196
42.0,17.0,4.197
37.0,2.0,4.198
6.0,-10.0,4.199
-13.0,-14.0,4.2
-7.0,-12.0,4.201
7.0,-7.0,4.202
17.0,-6.0,4.203
16.0,-11.0,4.204
-3.0,-12.0,4.205
-32.0,-8.0,4.206
-51.0,-3.0,4.207
-40.0,0.0,4.208
-8.0,3.0,4.209
18.0,1.0,4.21
19.0,-4.0,4.211
2.0,-7.0,4.212
-4.0,-3.0,4.213
4.0,1.0,4.214
6.0,5.0,4.215
-12.0,10.0,4.216
-25.0,19.0,4.217
-5.0,16.0,4.218
38.0,3.0,4.219
57.0,-10.0,4.22
45.0,-15.0,4.221
32.0,-10.0,4.222
30.0,-7.0,4.223
22.0,-6.0,4.224
2.0,-6.0,4.225
-5.0,-4.0,4.226
5.0,-3.0,4.227
14.0,-3.0,4.228
12.0,-5.0,4.229
6.0,-11.0,4.23
-8.0,-11.0,4.231
-42.0,-7.0,4.232
-79.0,-2.0,4.233
-76.0,-6.0,4.234
-21.0,-7.0,4.235
49.0,3.0,4.236
93.0,18.0,4.237
87.0,16.0,4.238
40.0,3.0,4.239
-9.0,1.0,4.24
-17.0,9.0,4.241
11.0,18.0,4.242
33.0,16.0,4.243
30.0,12.0,4.244
18.0,8.0,4.245
0.0,2.0,4.246
-32.0,-4.0,4.247
-56.0,-2.0,4.248
-34.0,1.0,4.249
22.0,-2.0,4.25
60.0,-7.0,4.251
46.0,-4.0,4.252
9.0,2.0,4.253
-14.0,0.0,4.254
-22.0,-9.0,4.255
-30.0,-14.0,4.256
-35.0,-8.0,4.257
-29.0,-5.0,4.258
-14.0,-3.0,4.259
0.0,-5.0,4.26
4.0,-11.0,4.261
2.0,-14.0,4.262
1.0,-12.0,4.263
2.0,-9.0,4.264
-1.0,-9.0,4.265
-7.0,-10.0,4.266
-6.0,-9.0,4.267
5.0,-4.0,4.268
18.0,2.0,4.269
19.0,7.0,4.27
14.0,7.0,4.271
16.0,0.0,4.272
25.0,-8.0,4.273
26.0,-7.0,4.274
6.0,4.0,4.275
-17.0,14.0,4.276
-25.0,25.0,4.277
-25.0,32.0,4.278
-25.0,30.0,4.279
-22.0,24.0,4.28
-16.0,5.0,4.281
-10.0,-9.0,4.282
-5.0,-5.0,4.283
-1.0,-4.0,4.284
-5.0,-14.0,4.285
-5.0,-21.0,4.286
7.0,-14.0,4.287
15.0,-10.0,4.288
9.0,-15.0,4.289
0.0,-18.0,4.29
-21.0,-11.0,4.291
-33.0,-6.0,4.292
-18.0,-7.0,4.293
0.0,-8.0,4.294
28.0,-4.0,4.295
52.0,1.0,4.296
66.0,10.0,4.297
78.0,18.0,4.298
70.0,20.0,4.299
45.0,11.0,4.3
19.0,2.0,4.301
-1.0,5.0,4.302
-11.0,10.0,4.303
-10.0,8.0,4.304
0.0,1.0,4.305
11.0,-1.0,4.306
15.0,-3.0,4.307
5.0,-7.0,4.308
-16.0,-10.0,4.309
-42.0,-10.0,4.31
-51.0,-10.0,4.311
-26.0,-14.0,4.312
27.0,-13.0,4.313
88.0,-2.0,4.314
128.0,13.0,4.315
127.0,23.0,4.316
83.0,23.0,4.317
-3.0,15.0,4.318
-94.0,11.0,4.319
-147.0,16.0,4.32
-139.0,18.0,4.321
-88.0,10.0,4.322
-35.0,-5.0,4.323
-11.0,-11.0,4.324
-17.0,-6.0,4.325
-28.0,2.0,4.326
-23.0,1.0,4.327
-3.0,-3.0,4.328
16.0,0.0,4.329
21.0,8.0,4.33
16.0,10.0,4.331
5.0,4.0,4.332
0.0,-4.0,4.333
13.0,-7.0,4.334
34.0,-1.0,4.335
33.0,11.0,4.336
10.0,19.0,4.337
-5.0,10.0,4.338
16.0,-11.0,4.339
45.0,-26.0,4.34
51.0,-25.0,4.341
37.0,-12.0,4.342
32.0,-10.0,4.343
31.0,-18.0,4.344
7.0,-19.0,4.345
-25.0,-12.0,4.346
-32.0,-8.0,4.347
-16.0,-13.0,4.348
-9.0,-11.0,4.349
-13.0,2.0,4.35
-5.0,13.0,4.351
12.0,9.0,4.352
17.0,-3.0,4.353
9.0,-6.0,4.354
10.0,-1.0,4.355
18.0,-4.0,4.356
18.0,-16.0,4.357
102.0,-28.0,4.358
64.0,-30.0,4.359
17.0,-27.0,4.36
-49.0,-25.0,4.361
-96.0,-24.0,4.362
-72.0,-19.0,4.363
-52.0,-16.0,4.364
-58.0,-12.0,4.365
-52.0,-8.0,4.366
8.0,-3.0,4.367
49.0,2.0,4.368
32.0,10.0,4.369
29.0,21.0,4.37
72.0,30.0,4.371
90.0,28.0,4.372
23.0,21.0,4.373
-29.0,20.0,4.374
-49.0,25.0,4.375
-55.0,25.0,4.376
-8.0,21.0,4.377
35.0,15.0,4.378
22.0,13.0,4.379
6.0,10.0,4.38
-17.0,4.0,4.381
-33.0,0.0,4.382
-25.0,2.0,4.383
-18.0,5.0,4.384
-20.0,3.0,4.385
-18.0,2.0,4.386
3.0,3.0,4.387
17.0,5.0,4.388
11.0,11.0,4.389
10.0,15.0,4.39
25.0,12.0,4.391
31.0,7.0,4.392
8.0,-2.0,4.393
-10.0,-9.0,4.394
-17.0,-8.0,4.395
-19.0,-7.0,4.396
-3.0,-8.0,4.397
12.0,-10.0,4.398
19.0,-12.0,4.399
28.0,-15.0,4.4
20.0,-19.0,4.401
-4.0,-16.0,4.402
-11.0,-10.0,4.403
1.0,-3.0,4.404
3.0,4.0,4.405
-12.0,13.0,4.406
-19.0,19.0,4.407
-1.0,17.0,4.408
25.0,10.0,4.409
37.0,4.0,4.41
26.0,-6.0,4.411
-4.0,-20.0,4.412
-38.0,-31.0,4.413
-50.0,-30.0,4.414
-33.0,-15.0,4.415
-10.0,-2.0,4.416
-2.0,6.0,4.417
-14.0,8.0,4.418
-35.0,12.0,4.419
-53.0,23.0,4.42
-45.0,32.0,4.421
-4.0,34.0,4.422
44.0,30.0,4.423
59.0,21.0,4.424
41.0,14.0,4.425
15.0,8.0,4.426
-2.0,-3.0,4.427
-19.0,-15.0,4.428
-34.0,-24.0,4.429
-27.0,-21.0,4.43
0.0,-10.0,4.431
26.0,2.0,4.432
25.0,7.0,4.433
5.0,5.0,4.434
-20.0,1.0,4.435
-29.0,1.0,4.436
-12.0,4.0,4.437
24.0,-4.0,4.438
50.0,-20.0,4.439
45.0,-32.0,4.44
24.0,-37.0,4.441
17.0,-43.0,4.442
23.0,-49.0,4.443
21.0,-46.0,4.444
1.0,-28.0,4.445
-17.0,-9.0,4.446
-15.0,-6.0,4.447
5.0,-11.0,4.448
25.0,-10.0,4.449
31.0,-3.0,4.45
28.0,1.0,4.451
29.0,1.0,4.452
28.0,2.0,4.453
14.0,2.0,4.454
-1.0,-3.0,4.455
0.0,-13.0,4.456
8.0,-15.0,4.457
0.0,-10.0,4.458
-23.0,-2.0,4.459
-36.0,6.0,4.46
-31.0,5.0,4.461
-31.0,3.0,4.462
-38.0,2.0,4.463
-35.0,6.0,4.464
-25.0,10.0,4.465
-30.0,15.0,4.466
-36.0,21.0,4.467
-11.0,23.0,4.468
36.0,21.0,4.469
58.0,19.0,4.47
40.0,16.0,4.471
12.0,13.0,4.472
-3.0,12.0,4.473
-13.0,12.0,4.474
-14.0,18.0,4.475
7.0,25.0,4.476
34.0,27.0,4.477
42.0,18.0,4.478
37.0,10.0,4.479
56.0,9.0,4.48
95.0,12.0,4.481
110.0,18.0,4.482
84.0,24.0,4.483
46.0,24.0,4.484
26.0,18.0,4.485
13.0,6.0,4.486
-4.0,-12.0,4.487
-24.0,-29.0,4.488
-52.0,-40.0,4.489
-88.0,-40.0,4.49
-104.0,-33.0,4.491
-76.0,-22.0,4.492
-18.0,-14.0,4.493
26.0,-12.0,4.494
35.0,-17.0,4.495
22.0,-20.0,4.496
2.0,-14.0,4.497
-25.0,-5.0,4.498
-42.0,8.0,4.499
-36.0,19.0,4.5
-14.0,23.0,4.501
0.0,24.0,4.502
0.0,17.0,4.503
-7.0,12.0,4.504
-14.0,13.0,4.505
-21.0,12.0,4.506
-30.0,-1.0,4.507
-40.0,-11.0,4.508
-45.0,-13.0,4.509
-31.0,-14.0,4.51
0.0,-8.0,4.511
26.0,-4.0,4.512
22.0,-6.0,4.513
5.0,-5.0,4.514
12.0,8.0,4.515
34.0,18.0,4.516
42.0,13.0,4.517
20.0,9.0,4.518
-9.0,12.0,4.519
-25.0,10.0,4.52
-27.0,-6.0,4.521
-18.0,-18.0,4.522
3.0,-21.0,4.523
24.0,-20.0,4.524
26.0,-21.0,4.525
15.0,-27.0,4.526
10.0,-33.0,4.527
13.0,-37.0,4.528
9.0,-34.0,4.529
6.0,-27.0,4.53
24.0,-21.0,4.531
49.0,-19.0,4.532
48.0,-14.0,4.533
20.0,-5.0,4.534
-1.0,3.0,4.535
3.0,6.0,4.536
8.0,11.0,4.537
1.0,16.0,4.538
-7.0,17.0,4.539
-4.0,12.0,4.54
0.0,9.0,4.541
0.0,16.0,4.542
4.0,27.0,4.543
15.0,30.0,4.544
18.0,29.0,4.545
16.0,28.0,4.546
13.0,24.0,4.547
8.0,16.0,4.548
-9.0,9.0,4.549
-33.0,5.0,4.55
-33.0,4.0,4.551
0.0,0.0,4.552
34.0,-8.0,4.553
36.0,-19.0,4.554
12.0,-30.0,4.555
-6.0,-35.0,4.556
-1.0,-34.0,4.557
11.0,-35.0,4.558
12.0,-40.0,4.559
-6.0,-40.0,4.56
-18.0,-28.0,4.561
-2.0,-8.0,4.562
34.0,7.0,4.563
57.0,13.0,4.564
48.0,18.0,4.565
21.0,25.0,4.566
-1.0,30.0,4.567
-6.0,29.0,4.568
0.0,28.0,4.569
10.0,30.0,4.57
4.0,31.0,4.571
-25.0,33.0,4.572
-62.0,36.0,4.573
-75.0,40.0,4.574
-54.0,42.0,4.575
-23.0,36.0,4.576
-3.0,29.0,4.577
9.0,16.0,4.578
17.0,1.0,4.579
14.0,-14.0,4.58
0.0,-27.0,4.581
-12.0,-35.0,4.582
-17.0,-28.0,4.583
-19.0,-22.0,4.584
-27.0,-19.0,4.585
-32.0,-16.0,4.586
-19.0,-16.0,4.587
10.0,-14.0,4.588
40.0,-5.0,4.589
59.0,4.0,4.59
69.0,13.0,4.591
63.0,16.0,4.592
40.0,0.0,4.593
26.0,-12.0,4.594
44.0,-13.0,4.595
80.0,-15.0,4.596
93.0,-15.0,4.597
63.0,-14.0,4.598
8.0,-15.0,4.599
-48.0,-15.0,4.6
-89.0,-18.0,4.601
-104.0,-16.0,4.602
-85.0,-8.0,4.603
-49.0,2.0,4.604
-24.0,4.0,4.605
-18.0,-1.0,4.606
-9.0,-5.0,4.607
0.0,-4.0,4.608
-12.0,-4.0,4.609
-43.0,-10.0,4.61
-52.0,-14.0,4.611
-22.0,-12.0,4.612
12.0,-4.0,4.613
17.0,-1.0,4.614
4.0,-2.0,4.615
10.0,0.0,4.616
26.0,2.0,4.617
29.0,-4.0,4.618
12.0,-12.0,4.619
2.0,-18.0,4.62
12.0,-22.0,4.621
13.0,-17.0,4.622
-7.0,-4.0,4.623
-27.0,9.0,4.624
-28.0,8.0,4.625
-25.0,-4.0,4.626
-37.0,-9.0,4.627
-46.0,-6.0,4.628
-18.0,0.0,4.629
51.0,0.0,4.63
124.0,3.0,4.631
159.0,19.0,4.632
147.0,42.0,4.633
111.0,61.0,4.634
85.0,64.0,4.635
74.0,53.0,4.636
61.0,45.0,4.637
26.0,45.0,4.638
-14.0,51.0,4.639
-39.0,52.0,4.64
-50.0,46.0,4.641
-58.0,44.0,4.642
-67.0,36.0,4.643
-62.0,15.0,4.644
-44.0,-8.0,4.645
-26.0,-24.0,4.646
-21.0,-35.0,4.647
-28.0,-53.0,4.648
-40.0,-70.0,4.649
-46.0,-70.0,4.65
-37.0,-55.0,4.651
-13.0,-42.0,4.652
13.0,-40.0,4.653
33.0,-44.0,4.654
46.0,-49.0,4.655
47.0,-57.0,4.656
39.0,-62.0,4.657
20.0,-60.0,4.658
5.0,-48.0,4.659
-6.0,-34.0,4.66
-14.0,-25.0,4.661
-22.0,-15.0,4.662
-27.0,4.0,4.663
-34.0,23.0,4.664
-39.0,35.0,4.665
-31.0,41.0,4.666
-12.0,47.0,4.667
-1.0,49.0,4.668
-6.0,46.0,4.669
-19.0,46.0,4.67
-25.0,51.0,4.671
-21.0,57.0,4.672
-6.0,58.0,4.673
33.0,52.0,4.674
78.0,42.0,4.675
91.0,26.0,4.676
60.0,6.0,4.677
2.0,-14.0,4.678
-42.0,-29.0,4.679
-63.0,-35.0,4.68
-63.0,-44.0,4.681
-44.0,-58.0,4.682
-3.0,-78.0,4.683
50.0,-95.0,4.684
90.0,-99.0,4.685
94.0,-82.0,4.686
66.0,-50.0,4.687
30.0,-12.0,4.688
10.0,25.0,4.689
8.0,47.0,4.69
-7.0,41.0,4.691
-49.0,21.0,4.692
-77.0,14.0,4.693
-48.0,28.0,4.694
4.0,34.0,4.695
19.0,21.0,4.696
-1.0,8.0,4.697
-6.0,12.0,4.698
30.0,21.0,4.699
64.0,26.0,4.7
60.0,20.0,4.701
44.0,16.0,4.702
41.0,23.0,4.703
38.0,28.0,4.704
13.0,26.0,4.705
-21.0,26.0,4.706
-33.0,30.0,4.707
-22.0,33.0,4.708
-6.0,27.0,4.709
2.0,21.0,4.71
10.0,11.0,4.711
12.0,4.0,4.712
1.0,4.0,4.713
-25.0,4.0,4.714
-48.0,4.0,4.715
-52.0,3.0,4.716
-39.0,-5.0,4.717
-24.0,-11.0,4.718
-14.0,-12.0,4.719
0.0,-15.0,4.72
15.0,-20.0,4.721
24.0,-17.0,4.722
22.0,-13.0,4.723
16.0,-14.0,4.724
7.0,-20.0,4.725
-3.0,-28.0,4.726
-11.0,-44.0,4.727
-12.0,-64.0,4.728
-10.0,-82.0,4.729
-12.0,-88.0,4.73
-16.0,-83.0,4.731
-17.0,-66.0,4.732
-16.0,-42.0,4.733
-17.0,-15.0,4.734
-8.0,5.0,4.735
19.0,27.0,4.736
51.0,47.0,4.737
62.0,55.0,4.738
44.0,50.0,4.739
13.0,44.0,4.74
-2.0,52.0,4.741
5.0,74.0,4.742
16.0,89.0,4.743
9.0,92.0,4.744
-11.0,86.0,4.745
-25.0,72.0,4.746
-22.0,49.0,4.747
-11.0,23.0,4.748
-1.0,5.0,4.749
15.0,-6.0,4.75
37.0,-24.0,4.751
41.0,-53.0,4.752
14.0,-80.0,4.753
-21.0,-96.0,4.754
-30.0,-105.0,4.755
-14.0,-108.0,4.756
-1.0,-102.0,4.757
-3.0,-82.0,4.758
2.0,-54.0,4.759
23.0,-24.0,4.76
31.0,-1.0,4.761
-4.0,18.0,4.762
-66.0,33.0,4.763
-113.0,43.0,4.764
-120.0,50.0,4.765
-98.0,51.0,4.766
-63.0,49.0,4.767
-25.0,48.0,4.768
19.0,52.0,4.769
87.0,65.0,4.77
188.0,76.0,4.771
274.0,77.0,4.772
279.0,61.0,4.773
182.0,35.0,4.774
67.0,7.0,4.775
20.0,-20.0,4.776
34.0,-46.0,4.777
42.0,-65.0,4.778
11.0,-73.0,4.779
-26.0,-78.0,4.78
-38.0,-76.0,4.781
-37.0,-73.0,4.782
-46.0,-64.0,4.783
-58.0,-55.0,4.784
-60.0,-47.0,4.785
-53.0,-37.0,4.786
-50.0,-23.0,4.787
-50.0,-12.0,4.788
-53.0,-6.0,4.789
-58.0,3.0,4.79
-62.0,24.0,4.791
-62.0,38.0,4.792
-60.0,29.0,4.793
-57.0,21.0,4.794
-55.0,18.0,4.795
-49.0,16.0,4.796
-39.0,17.0,4.797
-17.0,22.0,4.798
16.0,33.0,4.799
45.0,32.0,4.8
46.0,15.0,4.801
22.0,8.0,4.802
8.0,21.0,4.803
19.0,41.0,4.804
24.0,53.0,4.805
2.0,52.0,4.806
-31.0,47.0,4.807
-40.0,44.0,4.808
-25.0,42.0,4.809
-3.0,34.0,4.81
19.0,20.0,4.811
43.0,5.0,4.812
57.0,-10.0,4.813
53.0,-27.0,4.814
37.0,-52.0,4.815
30.0,-74.0,4.816
29.0,-80.0,4.817
17.0,-79.0,4.818
-2.0,-80.0,4.819
-17.0,-82.0,4.82
-16.0,-73.0,4.821
-5.0,-47.0,4.822
3.0,-27.0,4.823
2.0,-20.0,4.824
-5.0,-10.0,4.825
-14.0,9.0,4.826
-18.0,25.0,4.827
-16.0,25.0,4.828
-10.0,23.0,4.829
-3.0,32.0,4.83
6.0,44.0,4.831
16.0,47.0,4.832
18.0,44.0,4.833
10.0,42.0,4.834
-3.0,42.0,4.835
-9.0,35.0,4.836
-7.0,27.0,4.837
-1.0,21.0,4.838
11.0,18.0,4.839
31.0,9.0,4.84
57.0,-10.0,4.841
70.0,-30.0,4.842
58.0,-42.0,4.843
32.0,-38.0,4.844
9.0,-19.0,4.845
-9.0,2.0,4.846
-31.0,14.0,4.847
-50.0,16.0,4.848
-49.0,20.0,4.849
-27.0,22.0,4.85
-5.0,16.0,4.851
3.0,8.0,4.852
2.0,7.0,4.853
-4.0,10.0,4.854
-14.0,3.0,4.855
-16.0,-12.0,4.856
3.0,-21.0,4.857
29.0,-26.0,4.858
34.0,-29.0,4.859
15.0,-30.0,4.86
3.0,-25.0,4.861
11.0,-14.0,4.862
10.0,-10.0,4.863
-18.0,-11.0,4.864
-39.0,-3.0,4.865
-9.0,20.0,4.866
46.0,51.0,4.867
67.0,75.0,4.868
33.0,91.0,4.869
-1.0,97.0,4.87
11.0,79.0,4.871
43.0,44.0,4.872
41.0,12.0,4.873
9.0,0.0,4.874
0.0,-8.0,4.875
29.0,-29.0,4.876
54.0,-51.0,4.877
35.0,-71.0,4.878
-5.0,-85.0,4.879
-28.0,-108.0,4.88
-30.0,-127.0,4.881
-35.0,-118.0,4.882
-51.0,-87.0,4.883
-61.0,-57.0,4.884
-51.0,-30.0,4.885
-20.0,1.0,4.886
20.0,32.0,4.887
43.0,44.0,4.888
21.0,40.0,4.889
-32.0,38.0,4.89
-69.0,34.0,4.891
-57.0,23.0,4.892
-10.0,17.0,4.893
40.0,26.0,4.894
74.0,33.0,4.895
84.0,15.0,4.896
66.0,-11.0,4.897
27.0,-24.0,4.898
2.0,-21.0,4.899
1.0,-17.0,4.9
1.0,-10.0,4.901
-17.0,0.0,4.902
-31.0,19.0,4.903
-17.0,33.0,4.904
-2.0,30.0,4.905
-11.0,28.0,4.906
-26.0,27.0,4.907
-19.0,25.0,4.908
1.0,20.0,4.909
2.0,14.0,4.91
-6.0,8.0,4.911
0.0,3.0,4.912
13.0,2.0,4.913
6.0,1.0,4.914
-12.0,0.0,4.915
-19.0,-4.0,4.916
-11.0,-16.0,4.917
1.0,-26.0,4.918
18.0,-24.0,4.919
34.0,-13.0,4.92
36.0,-4.0,4.921
18.0,5.0,4.922
-2.0,7.0,4.923
-14.0,2.0,4.924
-25.0,-6.0,4.925
-38.0,-8.0,4.926
-30.0,-7.0,4.927
-4.0,-6.0,4.928
8.0,-10.0,4.929
-8.0,-20.0,4.93
-20.0,-28.0,4.931
-2.0,-33.0,4.932
28.0,-37.0,4.933
40.0,-40.0,4.934
39.0,-39.0,4.935
43.0,-30.0,4.936
47.0,-13.0,4.937
38.0,6.0,4.938
20.0,21.0,4.939
5.0,35.0,4.94
0.0,51.0,4.941
-8.0,77.0,4.942
-14.0,93.0,4.943
-8.0,86.0,4.944
-1.0,64.0,4.945
-12.0,37.0,4.946
-48.0,3.0,4.947
-71.0,-36.0,4.948
-53.0,-68.0,4.949
-9.0,-73.0,4.95
18.0,-60.0,4.951
20.0,-55.0,4.952
33.0,-63.0,4.953
68.0,-59.0,4.954
85.0,-38.0,4.955
56.0,-18.0,4.956
17.0,-6.0,4.957
5.0,0.0,4.958
20.0,8.0,4.959
17.0,6.0,4.96
-13.0,-7.0,4.961
-46.0,-10.0,4.962
-51.0,1.0,4.963
-27.0,11.0,4.964
9.0,9.0,4.965
38.0,3.0,4.966
51.0,8.0,4.967
45.0,21.0,4.968
20.0,37.0,4.969
-20.0,58.0,4.97
-46.0,78.0,4.971
-28.0,85.0,4.972
22.0,73.0,4.973
41.0,55.0,4.974
7.0,42.0,4.975
-40.0,35.0,4.976
-46.0,32.0,4.977
-27.0,27.0,4.978
-19.0,19.0,4.979
-27.0,9.0,4.98
-21.0,-2.0,4.981
0.0,-12.0,4.982
15.0,-20.0,4.983
18.0,-28.0,4.984
22.0,-35.0,4.985
33.0,-44.0,4.986
37.0,-58.0,4.987
31.0,-75.0,4.988
21.0,-90.0,4.989
6.0,-100.0,4.99
-14.0,-105.0,4.991
-30.0,-100.0,4.992
-33.0,-83.0,4.993
-18.0,-54.0,4.994
5.0,-19.0,4.995
22.0,20.0,4.996
27.0,51.0,4.997
21.0,58.0,4.998
16.0,51.0,4.999
10.0,53.0,5.0
-5.0,68.0,5.001
-22.0,80.0,5.002
-25.0,78.0,5.003
-18.0,73.0,5.004
-19.0,71.0,5.005
-34.0,55.0,5.006
-31.0,15.0,5.007
5.0,-33.0,5.008
45.0,-65.0,5.009
50.0,-79.0,5.01
23.0,-78.0,5.011
-10.0,-58.0,5.012
-22.0,-23.0,5.013
-8.0,2.0,5.014
27.0,10.0,5.015
49.0,19.0,5.016
39.0,42.0,5.017
9.0,-36.0,5.018
-10.0,-29.0,5.019
-13.0,-17.0,5.02
-18.0,12.0,5.021
-23.0,36.0,5.022
-5.0,56.0,5.023
28.0,75.0,5.024
38.0,87.0,5.025
17.0,94.0,5.026
-4.0,90.0,5.027
-8.0,85.0,5.028
-9.0,81.0,5.029
-16.0,74.0,5.03
-15.0,64.0,5.031
-3.0,54.0,5.032
4.0,42.0,5.033
4.0,26.0,5.034
4.0,-5.0,5.035
6.0,-32.0,5.036
5.0,-51.0,5.037
-2.0,-16.0,5.038
-6.0,-11.0,5.039
-10.0,-2.0,5.04
-16.0,18.0,5.041
-23.0,36.0,5.042
-27.0,50.0,5.043
-26.0,64.0,5.044
-12.0,72.0,5.045
1.0,77.0,5.046
15.0,74.0,5.047
27.0,71.0,5.048
34.0,68.0,5.049
38.0,63.0,5.05
30.0,56.0,5.051
21.0,49.0,5.052
11.0,40.0,5.053
5.0,28.0,5.054
13.0,6.0,5.055
19.0,-13.0,5.056
20.0,-26.0,5.057
16.0,-35.0,5.058
-6.0,-24.0,5.059
-5.0,-9.0,5.06
22.0,-6.0,5.061
50.0,-10.0,5.062
60.0,-18.0,5.063
50.0,-24.0,5.064
29.0,-33.0,5.065
12.0,-46.0,5.066
10.0,-56.0,5.067
14.0,-59.0,5.068
5.0,-62.0,5.069
-17.0,-68.0,5.07
-40.0,-62.0,5.071
-59.0,-35.0,5.072
-74.0,0.0,5.073
-84.0,25.0,5.074
-74.0,36.0,5.075
-48.0,43.0,5.076
-19.0,44.0,5.077
0.0,33.0,5.078
3.0,12.0,5.079
-8.0,-4.0,5.08
-20.0,-14.0,5.081
-19.0,-22.0,5.082
3.0,-23.0,5.083
33.0,-8.0,5.084
58.0,7.0,5.085
68.0,6.0,5.086
60.0,-2.0,5.087
27.0,-1.0,5.088
-24.0,9.0,5.089
-70.0,8.0,5.09
-95.0,-3.0,5.091
-84.0,-2.0,5.092
-29.0,15.0,5.093
50.0,28.0,5.094
105.0,26.0,5.095
98.0,21.0,5.096
65.0,28.0,5.097
56.0,41.0,5.098
65.0,46.0,5.099
40.0,45.0,5.1
-14.0,21.0,5.101
-38.0,2.0,5.102
-10.0,1.0,5.103
15.0,3.0,5.104
1.0,16.0,5.105
-17.0,21.0,5.106
-11.0,0.0,5.107
-2.0,-17.0,5.108
-14.0,-16.0,5.109
-22.0,-22.0,5.11
-8.0,-51.0,5.111
4.0,-80.0,5.112
-5.0,-106.0,5.113
-21.0,-124.0,5.114
-18.0,-118.0,5.115
-7.0,-108.0,5.116
-6.0,-85.0,5.117
-14.0,-57.0,5.118
-16.0,-13.0,5.119
-15.0,19.0,5.12
-18.0,37.0,5.121
-17.0,56.0,5.122
-2.0,78.0,5.123
21.0,90.0,5.124
31.0,88.0,5.125
18.0,79.0,5.126
-2.0,69.0,5.127
-9.0,56.0,5.128
7.0,42.0,5.129
32.0,29.0,5.13
44.0,15.0,5.131
36.0,-7.0,5.132
28.0,-39.0,5.133
37.0,-71.0,5.134
49.0,-82.0,5.135
40.0,-57.0,5.136
10.0,-8.0,5.137
-30.0,37.0,5.138
-60.0,58.0,5.139
-67.0,55.0,5.14
-47.0,37.0,5.141
-8.0,17.0,5.142
26.0,-7.0,5.143
40.0,-21.0,5.144
44.0,-14.0,5.145
46.0,4.0,5.146
37.0,10.0,5.147
15.0,5.0,5.148
-7.0,9.0,5.149
-15.0,24.0,5.15
-17.0,33.0,5.151
-21.0,36.0,5.152
-21.0,43.0,5.153
-16.0,50.0,5.154
-12.0,46.0,5.155
-10.0,26.0,5.156
-4.0,10.0,5.157
2.0,-6.0,5.158
-4.0,-23.0,5.159
-19.0,-38.0,5.16
-15.0,-46.0,5.161
3.0,-40.0,5.162
11.0,-35.0,5.163
-2.0,-29.0,5.164
-16.0,-20.0,5.165
-15.0,-8.0,5.166
-2.0,-4.0,5.167
18.0,-7.0,5.168
42.0,-8.0,5.169
58.0,-9.0,5.17
55.0,-18.0,5.171
38.0,-30.0,5.172
20.0,-38.0,5.173
3.0,-46.0,5.174
-10.0,-56.0,5.175
-20.0,-58.0,5.176
-22.0,-38.0,5.177
-23.0,-12.0,5.178
-26.0,-2.0,5.179
-32.0,1.0,5.18
-33.0,-17.0,5.181
-21.0,-35.0,5.182
8.0,-51.0,5.183
35.0,-64.0,5.184
42.0,-69.0,5.185
31.0,-66.0,5.186
20.0,-37.0,5.187
13.0,-7.0,5.188
0.0,23.0,5.189
-15.0,51.0,5.19
-16.0,68.0,5.191
-5.0,80.0,5.192
-8.0,78.0,5.193
-28.0,75.0,5.194
-40.0,72.0,5.195
-20.0,68.0,5.196
13.0,66.0,5.197
29.0,64.0,5.198
24.0,61.0,5.199
15.0,58.0,5.2
21.0,48.0,5.201
29.0,38.0,5.202
21.0,23.0,5.203
1.0,-1.0,5.204
-8.0,-30.0,5.205
0.0,-56.0,5.206
14.0,-69.0,5.207
23.0,-65.0,5.208
29.0,-52.0,5.209
30.0,-37.0,5.21
25.0,-19.0,5.211
25.0,0.0,5.212
28.0,16.0,5.213
30.0,21.0,5.214
25.0,16.0,5.215
21.0,11.0,5.216
15.0,10.0,5.217
-4.0,3.0,5.218
-35.0,-8.0,5.219
-61.0,-16.0,5.22
-69.0,-18.0,5.221
-63.0,-13.0,5.222
-49.0,-12.0,5.223
-30.0,-10.0,5.224
-18.0,-1.0,5.225
-20.0,17.0,5.226
-19.0,31.0,5.227
-3.0,35.0,5.228
21.0,31.0,5.229
29.0,25.0,5.23
20.0,16.0,5.231
6.0,5.0,5.232
-13.0,-6.0,5.233
-42.0,-15.0,5.234
-60.0,-21.0,5.235
-35.0,-18.0,5.236
19.0,-9.0,5.237
64.0,-12.0,5.238
74.0,-28.0,5.239
60.0,-48.0,5.24
45.0,-57.0,5.241
33.0,-48.0,5.242
22.0,-33.0,5.243
11.0,-16.0,5.244
-1.0,0.0,5.245
-9.0,12.0,5.246
-1.0,11.0,5.247
20.0,2.0,5.248
36.0,2.0,5.249
35.0,15.0,5.25
22.0,24.0,5.251
13.0,16.0,5.252
14.0,0.0,5.253
15.0,-14.0,5.254
1.0,-22.0,5.255
-34.0,-21.0,5.256
-70.0,-3.0,5.257
-81.0,22.0,5.258
-62.0,40.0,5.259
-43.0,40.0,5.26
-31.0,22.0,5.261
-3.0,-1.0,5.262
42.0,-23.0,5.263
59.0,-35.0,5.264
28.0,-28.0,5.265
-2.0,-12.0,5.266
10.0,-3.0,5.267
39.0,3.0,5.268
36.0,10.0,5.269
6.0,16.0,5.27
-10.0,13.0,5.271
-7.0,9.0,5.272
-4.0,15.0,5.273
-11.0,26.0,5.274
-17.0,26.0,5.275
-16.0,21.0,5.276
-14.0,25.0,5.277
-14.0,39.0,5.278
-7.0,54.0,5.279
2.0,58.0,5.28
5.0,48.0,5.281
0.0,29.0,5.282
0.0,6.0,5.283
14.0,-9.0,5.284
34.0,-14.0,5.285
47.0,-24.0,5.286
44.0,-53.0,5.287
30.0,-90.0,5.288
16.0,-107.0,5.289
13.0,-96.0,5.29
20.0,-71.0,5.291
28.0,-46.0,5.292
24.0,-15.0,5.293
3.0,27.0,5.294
-24.0,68.0,5.295
-42.0,86.0,5.296
-45.0,80.0,5.297
-40.0,58.0,5.298
-32.0,28.0,5.299
-22.0,-8.0,5.3
-8.0,-38.0,5.301
3.0,-48.0,5.302
17.0,-53.0,5.303
32.0,-68.0,5.304
42.0,-82.0,5.305
34.0,-72.0,5.306
14.0,-39.0,5.307
-3.0,-11.0,5.308
-9.0,-2.0,5.309
-17.0,4.0,5.31
-26.0,24.0,5.311
-34.0,44.0,5.312
-32.0,46.0,5.313
-19.0,38.0,5.314
4.0,32.0,5.315
23.0,27.0,5.316
27.0,17.0,5.317
13.0,-17.0,5.318
5.0,4.0,5.319
9.0,25.0,5.32
14.0,48.0,5.321
1.0,67.0,5.322
-13.0,77.0,5.323
-17.0,82.0,5.324
-21.0,68.0,5.325
-33.0,60.0,5.326
-39.0,65.0,5.327
-20.0,71.0,5.328
15.0,69.0,5.329
42.0,62.0,5.33
46.0,40.0,5.331
28.0,11.0,5.332
4.0,-41.0,5.333
-1.0,-82.0,5.334
14.0,-89.0,5.335
19.0,-92.0,5.336
2.0,-81.0,5.337
-16.0,-18.0,5.338
-8.0,3.0,5.339
18.0,26.0,5.34
37.0,49.0,5.341
51.0,69.0,5.342
65.0,79.0,5.343
59.0,84.0,5.344
24.0,70.0,5.345
-2.0,61.0,5.346
11.0,67.0,5.347
37.0,73.0,5.348
25.0,71.0,5.349
-18.0,64.0,5.35
-45.0,41.0,5.351
-34.0,10.0,5.352
-3.0,-43.0,5.353
11.0,-85.0,5.354
-7.0,-92.0,5.355
-39.0,-95.0,5.356
-48.0,-84.0,5.357
-26.0,-68.0,5.358
-8.0,-31.0,5.359
-27.0,4.0,5.36
-52.0,20.0,5.361
-42.0,26.0,5.362
-11.0,31.0,5.363
3.0,39.0,5.364
4.0,37.0,5.365
16.0,31.0,5.366
31.0,31.0,5.367
19.0,45.0,5.368
-2.0,61.0,5.369
-4.0,50.0,5.37
10.0,6.0,5.371
10.0,-46.0,5.372
-1.0,-82.0,5.373
1.0,-98.0,5.374
14.0,-104.0,5.375
16.0,-101.0,5.376
8.0,-88.0,5.377
0.0,-66.0,5.378
-1.0,-54.0,5.379
-4.0,-43.0,5.38
-5.0,-27.0,5.381
0.0,-5.0,5.382
4.0,13.0,5.383
0.0,27.0,5.384
-4.0,37.0,5.385
-1.0,44.0,5.386
9.0,43.0,5.387
14.0,40.0,5.388
16.0,49.0,5.389
17.0,65.0,5.39
18.0,75.0,5.391
19.0,69.0,5.392
18.0,52.0,5.393
18.0,32.0,5.394
17.0,13.0,5.395
12.0,3.0,5.396
4.0,4.0,5.397
-8.0,3.0,5.398
-18.0,-2.0,5.399
-23.0,-11.0,5.4
-29.0,-20.0,5.401
-35.0,-18.0,5.402
-35.0,-14.0,5.403
-29.0,-12.0,5.404
-18.0,-13.0,5.405
-2.0,-18.0,5.406
25.0,-30.0,5.407
47.0,-52.0,5.408
49.0,-74.0,5.409
37.0,-81.0,5.41
35.0,-72.0,5.411
52.0,-53.0,5.412
57.0,-32.0,5.413
33.0,-12.0,5.414
-3.0,7.0,5.415
-22.0,28.0,5.416
-20.0,45.0,5.417
-9.0,44.0,5.418
-8.0,25.0,5.419
-17.0,6.0,5.42
-21.0,-10.0,5.421
-13.0,-18.0,5.422
8.0,-2.0,5.423
22.0,13.0,5.424
17.0,22.0,5.425
3.0,30.0,5.426
-2.0,31.0,5.427
1.0,30.0,5.428
1.0,23.0,5.429
-11.0,19.0,5.43
-18.0,24.0,5.431
-8.0,27.0,5.432
9.0,18.0,5.433
15.0,9.0,5.434
8.0,0.0,5.435
4.0,-8.0,5.436
10.0,-14.0,5.437
10.0,-17.0,5.438
4.0,-4.0,5.439
0.0,12.0,5.44
8.0,16.0,5.441
14.0,14.0,5.442
11.0,8.0,5.443
1.0,8.0,5.444
-2.0,12.0,5.445
1.0,15.0,5.446
2.0,15.0,5.447
-7.0,14.0,5.448
-22.0,17.0,5.449
-24.0,21.0,5.45
-7.0,20.0,5.451
6.0,18.0,5.452
-5.0,19.0,5.453
-23.0,16.0,5.454
-15.0,6.0,5.455
7.0,-8.0,5.456
15.0,-22.0,5.457
0.0,-37.0,5.458
0.0,-46.0,5.459
2.0,-51.0,5.46
8.0,-37.0,5.461
13.0,-27.0,5.462
15.0,-27.0,5.463
18.0,-23.0,5.464
18.0,-7.0,5.465
16.0,6.0,5.466
7.0,6.0,5.467
0.0,2.0,5.468
0.0,-8.0,5.469
0.0,-18.0,5.47
-1.0,-24.0,5.471
-2.0,-29.0,5.472
-2.0,-25.0,5.473
-4.0,-18.0,5.474
-9.0,-4.0,5.475
-11.0,8.0,5.476
-5.0,18.0,5.477
3.0,28.0,5.478
13.0,35.0,5.479
15.0,38.0,5.48
8.0,31.0,5.481
2.0,23.0,5.482
8.0,13.0,5.483
20.0,6.0,5.484
17.0,4.0,5.485
0.0,1.0,5.486
-19.0,-4.0,5.487
-34.0,-14.0,5.488
-40.0,-24.0,5.489
-29.0,-28.0,5.49
-6.0,-22.0,5.491
12.0,-7.0,5.492
25.0,18.0,5.493
41.0,43.0,5.494
61.0,51.0,5.495
68.0,37.0,5.496
60.0,17.0,5.497
40.0,-11.0,5.498
17.0,-12.0,5.499
-2.0,-16.0,5.5
-5.0,-14.0,5.501
2.0,-9.0,5.502
5.0,0.0,5.503
-3.0,5.0,5.504
-4.0,-2.0,5.505
16.0,-7.0,5.506
30.0,-19.0,5.507
21.0,-24.0,5.508
0.0,-7.0,5.509
-13.0,5.0,5.51
-23.0,15.0,5.511
-34.0,21.0,5.512
-38.0,18.0,5.513
-31.0,13.0,5.514
-28.0,0.0,5.515
-34.0,-11.0,5.516
-34.0,-14.0,5.517
-23.0,-12.0,5.518
-5.0,-14.0,5.519
4.0,-18.0,5.52
6.0,-16.0,5.521
1.0,-10.0,5.522
-6.0,0.0,5.523
-9.0,6.0,5.524
2.0,-2.0,5.525
25.0,-8.0,5.526
36.0,-22.0,5.527
27.0,-28.0,5.528
16.0,-8.0,5.529
15.0,6.0,5.53
18.0,18.0,5.531
3.0,26.0,5.532
-26.0,22.0,5.533
-39.0,16.0,5.534
-23.0,0.0,5.535
8.0,-12.0,5.536
22.0,-16.0,5.537
10.0,-8.0,5.538
1.0,-9.0,5.539
9.0,-11.0,5.54
19.0,-10.0,5.541
18.0,-7.0,5.542
13.0,-1.0,5.543
13.0,2.0,5.544
12.0,-2.0,5.545
6.0,-6.0,5.546
0.0,-13.0,5.547
1.0,-16.0,5.548
0.0,-6.0,5.549
-6.0,2.0,5.55
-10.0,8.0,5.551
-5.0,12.0,5.552
0.0,10.0,5.553
1.0,7.0,5.554
4.0,-1.0,5.555
13.0,-8.0,5.556
15.0,-10.0,5.557
2.0,-13.0,5.558
-11.0,-12.0,5.559
-16.0,-13.0,5.56
-12.0,-15.0,5.561
-9.0,-7.0,5.562
-5.0,2.0,5.563
5.0,1.0,5.564
18.0,-9.0,5.565
21.0,-12.0,5.566
16.0,-9.0,5.567
14.0,-6.0,5.568
18.0,-9.0,5.569
13.0,-9.0,5.57
-7.0,-3.0,5.571
-28.0,3.0,5.572
-35.0,6.0,5.573
-26.0,7.0,5.574
-3.0,8.0,5.575
24.0,7.0,5.576
42.0,5.0,5.577
47.0,5.0,5.578
38.0,5.0,5.579
17.0,3.0,5.58
-9.0,-8.0,5.581
-32.0,-12.0,5.582
-42.0,8.0,5.583
-35.0,27.0,5.584
-15.0,47.0,5.585
10.0,59.0,5.586
26.0,49.0,5.587
28.0,37.0,5.588
16.0,15.0,5.589
7.0,-6.0,5.59
10.0,-26.0,5.591
17.0,-42.0,5.592
22.0,-47.0,5.593
27.0,-50.0,5.594
32.0,-45.0,5.595
25.0,-38.0,5.596
1.0,-27.0,5.597
-32.0,-13.0,5.598
-56.0,7.0,5.599
-65.0,22.0,5.6
-60.0,21.0,5.601
-39.0,19.0,5.602
-2.0,19.0,5.603
34.0,21.0,5.604
41.0,23.0,5.605
18.0,28.0,5.606
-5.0,30.0,5.607
-12.0,21.0,5.608
-9.0,1.0,5.609
-5.0,-16.0,5.61
5.0,-21.0,5.611
28.0,-12.0,5.612
53.0,-7.0,5.613
68.0,-12.0,5.614
72.0,-21.0,5.615
63.0,-14.0,5.616
44.0,6.0,5.617
16.0,59.0,5.618
-11.0,31.0,5.619
-26.0,5.0,5.62
-28.0,-13.0,5.621
-16.0,-27.0,5.622
5.0,-19.0,5.623
16.0,-9.0,5.624
8.0,3.0,5.625
-7.0,13.0,5.626
-14.0,15.0,5.627
-12.0,15.0,5.628
-13.0,1.0,5.629
-14.0,-7.0,5.63
-14.0,9.0,5.631
-16.0,25.0,5.632
-23.0,41.0,5.633
-25.0,49.0,5.634
-15.0,35.0,5.635
0.0,15.0,5.636
7.0,-11.0,5.637
2.0,35.0,5.638
-7.0,21.0,5.639
-19.0,8.0,5.64
-19.0,-1.0,5.641
-6.0,-8.0,5.642
13.0,-4.0,5.643
18.0,1.0,5.644
3.0,7.0,5.645
-14.0,12.0,5.646
-20.0,13.0,5.647
-13.0,13.0,5.648
-1.0,6.0,5.649
7.0,2.0,5.65
11.0,10.0,5.651
9.0,18.0,5.652
-2.0,26.0,5.653
-16.0,30.0,5.654
-21.0,23.0,5.655
-4.0,13.0,5.656
34.0,0.0,5.657
75.0,-16.0,5.658
92.0,-33.0,5.659
80.0,-43.0,5.66
53.0,-48.0,5.661
21.0,-48.0,5.662
-9.0,-41.0,5.663
-23.0,-29.0,5.664
-25.0,-15.0,5.665
-31.0,-3.0,5.666
-45.0,9.0,5.667
-38.0,20.0,5.668
-7.0,26.0,5.669
18.0,22.0,5.67
21.0,14.0,5.671
24.0,9.0,5.672
36.0,4.0,5.673
29.0,-2.0,5.674
-15.0,-8.0,5.675
-53.0,-7.0,5.676
-57.0,4.0,5.677
-49.0,15.0,5.678
-49.0,26.0,5.679
-41.0,27.0,5.68
-9.0,14.0,5.681
18.0,0.0,5.682
17.0,-4.0,5.683
5.0,3.0,5.684
9.0,9.0,5.685
20.0,2.0,5.686
20.0,-8.0,5.687
24.0,-8.0,5.688
45.0,-5.0,5.689
69.0,-8.0,5.69
69.0,-18.0,5.691
48.0,-24.0,5.692
22.0,-24.0,5.693
1.0,-24.0,5.694
-13.0,-22.0,5.695
-23.0,-17.0,5.696
-26.0,-11.0,5.697
-20.0,-15.0,5.698
-8.0,-18.0,5.699
-5.0,-14.0,5.7
-15.0,-4.0,5.701
-22.0,7.0,5.702
-13.0,14.0,5.703
2.0,22.0,5.704
13.0,31.0,5.705
12.0,35.0,5.706
9.0,25.0,5.707
0.0,8.0,5.708
-15.0,-3.0,5.709
-29.0,-7.0,5.71
-28.0,-7.0,5.711
-14.0,-12.0,5.712
-3.0,-14.0,5.713
2.0,-11.0,5.714
14.0,-6.0,5.715
32.0,-3.0,5.716
45.0,-2.0,5.717
41.0,-1.0,5.718
19.0,0.0,5.719
-7.0,2.0,5.72
-18.0,3.0,5.721
-6.0,4.0,5.722
17.0,5.0,5.723
24.0,7.0,5.724
10.0,11.0,5.725
-1.0,14.0,5.726
13.0,14.0,5.727
39.0,12.0,5.728
41.0,9.0,5.729
14.0,6.0,5.73
-8.0,8.0,5.731
-2.0,10.0,5.732
14.0,5.0,5.733
10.0,0.0,5.734
-10.0,-6.0,5.735
-22.0,-13.0,5.736
-22.0,-21.0,5.737
-22.0,-28.0,5.738
-23.0,-25.0,5.739
-22.0,-7.0,5.74
-9.0,17.0,5.741
2.0,36.0,5.742
13.0,36.0,5.743
28.0,20.0,5.744
48.0,6.0,5.745
54.0,-3.0,5.746
35.0,-18.0,5.747
5.0,-43.0,5.748
-23.0,-58.0,5.749
-48.0,-58.0,5.75
-68.0,-48.0,5.751
-70.0,-36.0,5.752
-41.0,-19.0,5.753
0.0,2.0,5.754
20.0,18.0,5.755
5.0,20.0,5.756
-20.0,18.0,5.757
-29.0,12.0,5.758
-21.0,10.0,5.759
-12.0,10.0,5.76
-2.0,17.0,5.761
21.0,22.0,5.762
50.0,17.0,5.763
65.0,13.0,5.764
54.0,14.0,5.765
38.0,14.0,5.766
29.0,11.0,5.767
23.0,8.0,5.768
15.0,3.0,5.769
6.0,0.0,5.77
5.0,2.0,5.771
8.0,6.0,5.772
10.0,10.0,5.773
13.0,9.0,5.774
15.0,-4.0,5.775
4.0,-17.0,5.776
-14.0,-22.0,5.777
-27.0,-26.0,5.778
-22.0,-27.0,5.779
-11.0,-29.0,5.78
-13.0,-30.0,5.781
-24.0,-27.0,5.782
-23.0,-24.0,5.783
-1.0,-16.0,5.784
32.0,4.0,5.785
52.0,26.0,5.786
50.0,31.0,5.787
21.0,15.0,5.788
-12.0,0.0,5.789
-30.0,-7.0,5.79
-27.0,-9.0,5.791
-19.0,-9.0,5.792
-14.0,-3.0,5.793
-7.0,6.0,5.794
6.0,11.0,5.795
18.0,10.0,5.796
19.0,11.0,5.797
11.0,17.0,5.798
2.0,21.0,5.799
-2.0,23.0,5.8
1.0,16.0,5.801
8.0,9.0,5.802
17.0,6.0,5.803
20.0,3.0,5.804
11.0,-1.0,5.805
-2.0,-5.0,5.806
-10.0,-9.0,5.807
-11.0,-11.0,5.808
-8.0,-4.0,5.809
-2.0,4.0,5.81
3.0,12.0,5.811
0.0,17.0,5.812
-13.0,15.0,5.813
-20.0,11.0,5.814
-12.0,3.0,5.815
-5.0,-4.0,5.816
-11.0,-3.0,5.817
-21.0,-1.0,5.818
-10.0,-1.0,5.819
15.0,-8.0,5.82
40.0,-15.0,5.821
51.0,-12.0,5.822
43.0,-9.0,5.823
20.0,-9.0,5.824
-2.0,-9.0,5.825
-4.0,-7.0,5.826
10.0,-4.0,5.827
15.0,-4.0,5.828
9.0,-2.0,5.829
8.0,0.0,5.83
15.0,1.0,5.831
10.0,0.0,5.832
-16.0,0.0,5.833
-39.0,0.0,5.834
-41.0,2.0,5.835
-27.0,2.0,5.836
-12.0,6.0,5.837
2.0,9.0,5.838
22.0,12.0,5.839
32.0,12.0,5.84
27.0,1.0,5.841
19.0,-7.0,5.842
23.0,-9.0,5.843
26.0,-12.0,5.844
13.0,-12.0,5.845
0.0,-11.0,5.846
4.0,-8.0,5.847
17.0,-5.0,5.848
8.0,-4.0,5.849
-18.0,-2.0,5.85
-27.0,1.0,5.851
-11.0,4.0,5.852
-1.0,6.0,5.853
-17.0,8.0,5.854
-38.0,2.0,5.855
-32.0,0.0,5.856
-6.0,6.0,5.857
19.0,14.0,5.858
25.0,14.0,5.859
19.0,3.0,5.86
11.0,-10.0,5.861
6.0,-7.0,5.862
7.0,9.0,5.863
7.0,23.0,5.864
-6.0,17.0,5.865
-26.0,-3.0,5.866
-33.0,-23.0,5.867
-15.0,-31.0,5.868
11.0,-30.0,5.869
22.0,-26.0,5.87
20.0,-21.0,5.871
10.0,-10.0,5.872
-2.0,2.0,5.873
-12.0,11.0,5.874
-4.0,14.0,5.875
22.0,10.0,5.876
46.0,5.0,5.877
45.0,-3.0,5.878
27.0,-5.0,5.879
11.0,-2.0,5.88
2.0,6.0,5.881
-3.0,13.0,5.882
-4.0,13.0,5.883
-4.0,10.0,5.884
-14.0,10.0,5.885
-32.0,9.0,5.886
-36.0,0.0,5.887
-16.0,-12.0,5.888
14.0,-19.0,5.889
37.0,-17.0,5.89
45.0,-13.0,5.891
44.0,-13.0,5.892
35.0,-14.0,5.893
30.0,-11.0,5.894
28.0,-9.0,5.895
16.0,-3.0,5.896
-5.0,6.0,5.897
-21.0,13.0,5.898
-19.0,14.0,5.899
-13.0,11.0,5.9
-19.0,6.0,5.901
-22.0,5.0,5.902
-11.0,5.0,5.903
4.0,5.0,5.904
3.0,3.0,5.905
-8.0,2.0,5.906
-12.0,0.0,5.907
-15.0,-1.0,5.908
-21.0,-1.0,5.909
-21.0,-5.0,5.91
-3.0,-10.0,5.911
18.0,-10.0,5.912
17.0,-9.0,5.913
-4.0,-14.0,5.914
-15.0,-18.0,5.915
-3.0,-12.0,5.916
22.0,3.0,5.917
36.0,13.0,5.918
26.0,13.0,5.919
3.0,10.0,5.92
-12.0,4.0,5.921
-4.0,-1.0,5.922
11.0,-5.0,5.923
11.0,-6.0,5.924
-9.0,0.0,5.925
-23.0,5.0,5.926
-11.0,4.0,5.927
12.0,3.0,5.928
20.0,5.0,5.929
13.0,7.0,5.93
8.0,3.0,5.931
16.0,0.0,5.932
21.0,1.0,5.933
13.0,4.0,5.934
2.0,8.0,5.935
-1.0,11.0,5.936
0.0,10.0,5.937
-5.0,7.0,5.938
-16.0,3.0,5.939
-20.0,5.0,5.94
-21.0,6.0,5.941
-25.0,2.0,5.942
-30.0,-1.0,5.943
-24.0,2.0,5.944
-3.0,9.0,5.945
16.0,9.0,5.946
19.0,4.0,5.947
14.0,0.0,5.948
11.0,-1.0,5.949
16.0,-9.0,5.95
27.0,-18.0,5.951
37.0,-21.0,5.952
41.0,-18.0,5.953
36.0,-12.0,5.954
27.0,2.0,5.955
19.0,26.0,5.956
15.0,39.0,5.957
12.0,23.0,5.958
12.0,-6.0,5.959
8.0,-22.0,5.96
-3.0,-20.0,5.961
-12.0,-8.0,5.962
-11.0,9.0,5.963
-3.0,28.0,5.964
1.0,34.0,5.965
-2.0,19.0,5.966
-7.0,-11.0,5.967
-10.0,-33.0,5.968
-12.0,-33.0,5.969
-6.0,-23.0,5.97
9.0,-19.0,5.971
27.0,-19.0,5.972
36.0,-13.0,5.973
31.0,0.0,5.974
16.0,11.0,5.975
-4.0,17.0,5.976
-20.0,21.0,5.977
-23.0,21.0,5.978
-16.0,15.0,5.979
-12.0,6.0,5.98
-13.0,-5.0,5.981
-12.0,-17.0,5.982
-11.0,-41.0,5.983
-26.0,-68.0,5.984
-55.0,-80.0,5.985
-71.0,-70.0,5.986
-48.0,-52.0,5.987
0.0,-38.0,5.988
40.0,-21.0,5.989
56.0,7.0,5.99
58.0,29.0,5.991
52.0,27.0,5.992
34.0,8.0,5.993
3.0,0.0,5.994
-18.0,5.0,5.995
-14.0,8.0,5.996
6.0,1.0,5.997
15.0,-3.0,5.998
9.0,3.0,5.999
-1.0,9.0,6.0
-7.0,7.0,6.001
-12.0,6.0,6.002
-10.0,10.0,6.003
6.0,15.0,6.004
22.0,24.0,6.005
17.0,31.0,6.006
0.0,29.0,6.007
-3.0,28.0,6.008
8.0,26.0,6.009
11.0,24.0,6.01
2.0,22.0,6.011
0.0,21.0,6.012
9.0,20.0,6.013
16.0,18.0,6.014
15.0,14.0,6.015
14.0,9.0,6.016
12.0,6.0,6.017
-1.0,3.0,6.018
-20.0,1.0,6.019
-38.0,-2.0,6.02
-48.0,-4.0,6.021
-53.0,5.0,6.022
-49.0,14.0,6.023
-39.0,15.0,6.024
-33.0,8.0,6.025
-28.0,0.0,6.026
-8.0,-4.0,6.027
31.0,-9.0,6.028
67.0,-10.0,6.029
85.0,-4.0,6.03
88.0,4.0,6.031
78.0,1.0,6.032
53.0,-6.0,6.033
27.0,-6.0,6.034
18.0,-1.0,6.035
22.0,3.0,6.036
20.0,0.0,6.037
7.0,-5.0,6.038
0.0,-5.0,6.039
-2.0,-7.0,6.04
-7.0,-15.0,6.041
-20.0,-21.0,6.042
-25.0,-20.0,6.043
-21.0,-18.0,6.044
-22.0,-15.0,6.045
-20.0,-11.0,6.046
6.0,-5.0,6.047
49.0,-1.0,6.048
69.0,-1.0,6.049
48.0,-1.0,6.05
9.0,2.0,6.051
-21.0,5.0,6.052
-47.0,8.0,6.053
-74.0,11.0,6.054
-89.0,11.0,6.055
-74.0,5.0,6.056
-38.0,-16.0,6.057
-5.0,-34.0,6.058
4.0,-38.0,6.059
-10.0,-30.0,6.06
-23.0,-25.0,6.061
-20.0,-19.0,6.062
-6.0,-8.0,6.063
7.0,5.0,6.064
18.0,18.0,6.065
32.0,31.0,6.066
40.0,44.0,6.067
34.0,56.0,6.068
12.0,58.0,6.069
-16.0,43.0,6.07
-40.0,6.0,6.071
-43.0,-29.0,6.072
-5.0,-40.0,6.073
65.0,-27.0,6.074
119.0,-18.0,6.075
119.0,-29.0,6.076
80.0,-44.0,6.077
40.0,-47.0,6.078
20.0,-35.0,6.079
10.0,-22.0,6.08
-1.0,-11.0,6.081
-11.0,-3.0,6.082
-11.0,-6.0,6.083
-9.0,-12.0,6.084
-23.0,-24.0,6.085
-45.0,-31.0,6.086
-55.0,-19.0,6.087
-39.0,-6.0,6.088
-12.0,7.0,6.089
-2.0,16.0,6.09
-9.0,10.0,6.091
-12.0,6.0,6.092
-1.0,6.0,6.093
4.0,8.0,6.094
-7.0,16.0,6.095
-17.0,25.0,6.096
-8.0,37.0,6.097
3.0,49.0,6.098
0.0,61.0,6.099
-7.0,64.0,6.1
0.0,55.0,6.101
21.0,44.0,6.102
33.0,30.0,6.103
33.0,10.0,6.104
30.0,-9.0,6.105
26.0,-29.0,6.106
19.0,-46.0,6.107
7.0,-53.0,6.108
-9.0,-46.0,6.109
-27.0,-28.0,6.11
-38.0,-11.0,6.111
-36.0,2.0,6.112
-30.0,14.0,6.113
-26.0,18.0,6.114
-9.0,11.0,6.115
27.0,0.0,6.116
63.0,-3.0,6.117
72.0,-4.0,6.118
58.0,-6.0,6.119
41.0,-9.0,6.12
28.0,-7.0,6.121
13.0,6.0,6.122
-1.0,16.0,6.123
-6.0,18.0,6.124
-9.0,18.0,6.125
-18.0,16.0,6.126
-22.0,2.0,6.127
-19.0,-16.0,6.128
-15.0,-21.0,6.129
-22.0,-12.0,6.13
-31.0,-8.0,6.131
-33.0,-16.0,6.132
-31.0,-22.0,6.133
-28.0,-15.0,6.134
-21.0,-7.0,6.135
-9.0,-9.0,6.136
-1.0,-9.0,6.137
-2.0,-2.0,6.138
0.0,6.0,6.139
3.0,4.0,6.14
3.0,-7.0,6.141
5.0,-12.0,6.142
24.0,-17.0,6.143
50.0,-18.0,6.144
66.0,-11.0,6.145
73.0,-1.0,6.146
80.0,1.0,6.147
77.0,-1.0,6.148
44.0,3.0,6.149
-2.0,22.0,6.15
-23.0,40.0,6.151
-12.0,45.0,6.152
3.0,44.0,6.153
1.0,31.0,6.154
-11.0,0.0,6.155
-26.0,-34.0,6.156
-34.0,-45.0,6.157
-31.0,-32.0,6.158
-16.0,-13.0,6.159
-10.0,-7.0,6.16
-21.0,-7.0,6.161
-30.0,2.0,6.162
-19.0,26.0,6.163
-5.0,54.0,6.164
-10.0,74.0,6.165
-19.0,73.0,6.166
-11.0,48.0,6.167
8.0,11.0,6.168
11.0,-24.0,6.169
-13.0,-58.0,6.17
-38.0,-89.0,6.171
-46.0,-108.0,6.172
-31.0,-109.0,6.173
-5.0,-101.0,6.174
17.0,-88.0,6.175
29.0,-62.0,6.176
40.0,-22.0,6.177
54.0,13.0,6.178
60.0,33.0,6.179
43.0,37.0,6.18
14.0,39.0,6.181
-4.0,42.0,6.182
-5.0,39.0,6.183
-3.0,38.0,6.184
-8.0,39.0,6.185
-9.0,32.0,6.186
0.0,15.0,6.187
12.0,2.0,6.188
9.0,5.0,6.189
-3.0,12.0,6.19
-12.0,11.0,6.191
-12.0,11.0,6.192
-5.0,19.0,6.193
-2.0,27.0,6.194
-1.0,26.0,6.195
9.0,20.0,6.196
28.0,18.0,6.197
38.0,16.0,6.198
24.0,9.0,6.199
-10.0,1.0,6.2
-28.0,-5.0,6.201
-20.0,-3.0,6.202
0.0,-1.0,6.203
11.0,0.0,6.204
18.0,0.0,6.205
26.0,0.0,6.206
31.0,-2.0,6.207
21.0,-3.0,6.208
9.0,-6.0,6.209
6.0,-9.0,6.21
4.0,-12.0,6.211
-12.0,-11.0,6.212
-35.0,-7.0,6.213
-54.0,4.0,6.214
-59.0,17.0,6.215
-53.0,29.0,6.216
-39.0,34.0,6.217
-22.0,27.0,6.218
1.0,10.0,6.219
26.0,-10.0,6.22
49.0,-30.0,6.221
70.0,-45.0,6.222
89.0,-52.0,6.223
99.0,-50.0,6.224
91.0,-40.0,6.225
55.0,-28.0,6.226
1.0,-21.0,6.227
-34.0,-16.0,6.228
-26.0,-12.0,6.229
14.0,-9.0,6.23
42.0,-3.0,6.231
34.0,5.0,6.232
6.0,13.0,6.233
-11.0,13.0,6.234
-13.0,6.0,6.235
-17.0,4.0,6.236
-25.0,12.0,6.237
-36.0,18.0,6.238
-41.0,18.0,6.239
-44.0,15.0,6.24
-44.0,9.0,6.241
-38.0,6.0,6.242
-25.0,10.0,6.243
-7.0,33.0,6.244
10.0,66.0,6.245
20.0,73.0,6.246
21.0,32.0,6.247
18.0,-33.0,6.248
11.0,-78.0,6.249
3.0,-83.0,6.25
-5.0,-74.0,6.251
-18.0,-66.0,6.252
-33.0,-51.0,6.253
-40.0,-20.0,6.254
-26.0,8.0,6.255
1.0,16.0,6.256
21.0,10.0,6.257
26.0,4.0,6.258
13.0,8.0,6.259
-2.0,15.0,6.26
0.0,17.0,6.261
27.0,16.0,6.262
66.0,7.0,6.263
77.0,-6.0,6.264
44.0,-17.0,6.265
0.0,-21.0,6.266
-14.0,-23.0,6.267
1.0,-24.0,6.268
7.0,-15.0,6.269
-7.0,0.0,6.27
-19.0,7.0,6.271
-11.0,1.0,6.272
-3.0,-3.0,6.273
-11.0,3.0,6.274
-20.0,8.0,6.275
-19.0,6.0,6.276
-16.0,5.0,6.277
-26.0,9.0,6.278
-34.0,12.0,6.279
-29.0,13.0,6.28
-14.0,10.0,6.281
5.0,14.0,6.282
21.0,17.0,6.283
33.0,19.0,6.284
34.0,23.0,6.285
23.0,28.0,6.286
12.0,23.0,6.287
8.0,10.0,6.288
5.0,1.0,6.289
2.0,4.0,6.29
2.0,10.0,6.291
11.0,10.0,6.292
18.0,6.0,6.293
19.0,8.0,6.294
20.0,13.0,6.295
23.0,19.0,6.296
27.0,20.0,6.297
24.0,15.0,6.298
15.0,3.0,6.299
-5.0,-13.0,6.3
-30.0,-25.0,6.301
-58.0,-22.0,6.302
-78.0,-13.0,6.303
-86.0,-10.0,6.304
-80.0,-11.0,6.305
-58.0,-14.0,6.306
-17.0,-16.0,6.307
39.0,-16.0,6.308
88.0,-12.0,6.309
116.0,-4.0,6.31
114.0,5.0,6.311
88.0,11.0,6.312
58.0,17.0,6.313
42.0,21.0,6.314
35.0,23.0,6.315
22.0,21.0,6.316
3.0,20.0,6.317
-9.0,14.0,6.318
-11.0,7.0,6.319
-19.0,0.0,6.32
-35.0,-7.0,6.321
-41.0,-14.0,6.322
-30.0,-20.0,6.323
-22.0,-25.0,6.324
-26.0,-26.0,6.325
-32.0,-30.0,6.326
-22.0,-38.0,6.327
0.0,-39.0,6.328
26.0,-16.0,6.329
48.0,7.0,6.33
56.0,29.0,6.331
41.0,44.0,6.332
11.0,33.0,6.333
-12.0,24.0,6.334
-21.0,25.0,6.335
-24.0,25.0,6.336
-29.0,22.0,6.337
-36.0,16.0,6.338
-42.0,4.0,6.339
-48.0,-14.0,6.34
-46.0,-43.0,6.341
-18.0,-65.0,6.342
29.0,-68.0,6.343
62.0,-53.0,6.344
56.0,-27.0,6.345
22.0,-2.0,6.346
-7.0,13.0,6.347
-20.0,11.0,6.348
-21.0,-2.0,6.349
-19.0,-17.0,6.35
-4.0,-25.0,6.351
19.0,-33.0,6.352
34.0,-41.0,6.353
36.0,-46.0,6.354
40.0,-41.0,6.355
52.0,-32.0,6.356
58.0,-27.0,6.357
38.0,-27.0,6.358
4.0,-22.0,6.359
-25.0,-8.0,6.36
-40.0,-1.0,6.361
-45.0,5.0,6.362
-40.0,14.0,6.363
-25.0,29.0,6.364
-12.0,41.0,6.365
-7.0,44.0,6.366
-1.0,42.0,6.367
6.0,46.0,6.368
-2.0,63.0,6.369
-29.0,92.0,6.37
-47.0,116.0,6.371
-30.0,113.0,6.372
10.0,75.0,6.373
43.0,33.0,6.374
56.0,10.0,6.375
59.0,4.0,6.376
58.0,-4.0,6.377
45.0,-18.0,6.378
29.0,-30.0,6.379
14.0,-44.0,6.38
2.0,-69.0,6.381
-8.0,-87.0,6.382
-15.0,-85.0,6.383
-10.0,-71.0,6.384
-10.0,-64.0,6.385
-17.0,-61.0,6.386
-23.0,-45.0,6.387
-22.0,-28.0,6.388
-20.0,-24.0,6.389
-20.0,-22.0,6.39
-16.0,1.0,6.391
-4.0,40.0,6.392
1.0,65.0,6.393
-6.0,76.0,6.394
-15.0,85.0,6.395
-15.0,93.0,6.396
-16.0,92.0,6.397
-25.0,83.0,6.398
-36.0,75.0,6.399
-35.0,59.0,6.4
-20.0,21.0,6.401
5.0,-11.0,6.402
41.0,-24.0,6.403
76.0,-37.0,6.404
87.0,-50.0,6.405
69.0,-58.0,6.406
39.0,-44.0,6.407
25.0,-33.0,6.408
24.0,-27.0,6.409
21.0,-27.0,6.41
13.0,-45.0,6.411
7.0,-58.0,6.412
4.0,-51.0,6.413
-2.0,-45.0,6.414
-16.0,-45.0,6.415
-24.0,-42.0,6.416
-20.0,-29.0,6.417
-3.0,-15.0,6.418
10.0,-6.0,6.419
4.0,-1.0,6.42
-10.0,2.0,6.421
-19.0,15.0,6.422
-14.0,30.0,6.423
-3.0,39.0,6.424
0.0,48.0,6.425
-4.0,61.0,6.426
0.0,74.0,6.427
16.0,74.0,6.428
26.0,58.0,6.429
14.0,42.0,6.43
-9.0,37.0,6.431
-16.0,38.0,6.432
-12.0,22.0,6.433
-18.0,-16.0,6.434
-33.0,-64.0,6.435
-29.0,-94.0,6.436
-2.0,-99.0,6.437
23.0,-89.0,6.438
29.0,-73.0,6.439
29.0,-52.0,6.44
38.0,-28.0,6.441
38.0,-4.0,6.442
21.0,10.0,6.443
-4.0,14.0,6.444
-29.0,15.0,6.445
-55.0,19.0,6.446
-64.0,22.0,6.447
-36.0,27.0,6.448
13.0,32.0,6.449
45.0,36.0,6.45
54.0,39.0,6.451
63.0,41.0,6.452
71.0,39.0,6.453
59.0,22.0,6.454
25.0,-3.0,6.455
-7.0,-26.0,6.456
-23.0,-37.0,6.457
-29.0,-40.0,6.458
-22.0,-37.0,6.459
-5.0,-25.0,6.46
6.0,-15.0,6.461
1.0,-10.0,6.462
-4.0,-8.0,6.463
3.0,-5.0,6.464
8.0,2.0,6.465
0.0,9.0,6.466
-12.0,17.0,6.467
-12.0,23.0,6.468
-7.0,24.0,6.469
-10.0,15.0,6.47
-15.0,8.0,6.471
-16.0,10.0,6.472
-16.0,21.0,6.473
-20.0,30.0,6.474
-20.0,30.0,6.475
-17.0,24.0,6.476
-17.0,21.0,6.477
-21.0,14.0,6.478
-20.0,7.0,6.479
-8.0,1.0,6.48
3.0,1.0,6.481
9.0,0.0,6.482
18.0,4.0,6.483
30.0,9.0,6.484
36.0,19.0,6.485
32.0,25.0,6.486
24.0,17.0,6.487
21.0,20.0,6.488
17.0,57.0,6.489
8.0,93.0,6.49
-9.0,124.0,6.491
-25.0,132.0,6.492
-39.0,68.0,6.493
-43.0,1.0,6.494
-33.0,-68.0,6.495
-3.0,-132.0,6.496
39.0,-172.0,6.497
80.0,-210.0,6.498
94.0,-232.0,6.499
71.0,-236.0,6.5
34.0,-223.0,6.501
13.0,-192.0,6.502
14.0,-142.0,6.503
13.0,-80.0,6.504
-10.0,-14.0,6.505
-46.0,54.0,6.506
-73.0,120.0,6.507
-79.0,175.0,6.508
-66.0,197.0,6.509
-41.0,174.0,6.51
-8.0,122.0,6.511
24.0,70.0,6.512
40.0,34.0,6.513
37.0,5.0,6.514
27.0,-22.0,6.515
27.0,-46.0,6.516
36.0,-53.0,6.517
31.0,-50.0,6.518
6.0,-39.0,6.519
-20.0,-18.0,6.52
-22.0,8.0,6.521
-2.0,34.0,6.522
18.0,48.0,6.523
26.0,49.0,6.524
27.0,46.0,6.525
36.0,42.0,6.526
50.0,35.0,6.527
61.0,25.0,6.528
45.0,4.0,6.529
5.0,-23.0,6.53
-36.0,-58.0,6.531
-57.0,-88.0,6.532
-62.0,-95.0,6.533
-60.0,-75.0,6.534
-42.0,-41.0,6.535
-5.0,-4.0,6.536
22.0,24.0,6.537
15.0,44.0,6.538
-10.0,52.0,6.539
-23.0,47.0,6.54
-20.0,35.0,6.541
-15.0,30.0,6.542
-15.0,30.0,6.543
-7.0,31.0,6.544
9.0,30.0,6.545
24.0,31.0,6.546
30.0,33.0,6.547
29.0,29.0,6.548
21.0,21.0,6.549
7.0,19.0,6.55
-3.0,21.0,6.551
-5.0,20.0,6.552
-4.0,13.0,6.553
-6.0,12.0,6.554
-4.0,14.0,6.555
8.0,16.0,6.556
23.0,11.0,6.557
24.0,2.0,6.558
8.0,-7.0,6.559
-11.0,-21.0,6.56
-18.0,-43.0,6.561
-8.0,-59.0,6.562
14.0,-52.0,6.563
34.0,-41.0,6.564
45.0,-18.0,6.565
42.0,0.0,6.566
29.0,4.0,6.567
14.0,7.0,6.568
4.0,7.0,6.569
0.0,8.0,6.57
-4.0,8.0,6.571
-9.0,7.0,6.572
-10.0,3.0,6.573
-10.0,0.0,6.574
-11.0,1.0,6.575
-17.0,1.0,6.576
-20.0,0.0,6.577
-20.0,-6.0,6.578
-14.0,-13.0,6.579
-12.0,-17.0,6.58
-7.0,-18.0,6.581
6.0,-16.0,6.582
21.0,-15.0,6.583
22.0,-13.0,6.584
2.0,-10.0,6.585
-23.0,0.0,6.586
-40.0,19.0,6.587
-44.0,36.0,6.588
-42.0,39.0,6.589
-28.0,27.0,6.59
1.0,11.0,6.591
41.0,2.0,6.592
72.0,2.0,6.593
84.0,10.0,6.594
74.0,15.0,6.595
54.0,10.0,6.596
35.0,-5.0,6.597
21.0,-27.0,6.598
12.0,-41.0,6.599
0.0,-55.0,6.6
-15.0,-68.0,6.601
-23.0,-77.0,6.602
-18.0,-73.0,6.603
-11.0,-64.0,6.604
-17.0,-44.0,6.605
-26.0,-23.0,6.606
-28.0,-4.0,6.607
-23.0,15.0,6.608
-18.0,34.0,6.609
-16.0,47.0,6.61
-11.0,41.0,6.611
0.0,33.0,6.612
12.0,23.0,6.613
18.0,13.0,6.614
17.0,3.0,6.615
12.0,-4.0,6.616
7.0,-6.0,6.617
5.0,-8.0,6.618
5.0,-5.0,6.619
0.0,3.0,6.62
-9.0,6.0,6.621
-11.0,4.0,6.622
-3.0,1.0,6.623
4.0,6.0,6.624
2.0,17.0,6.625
-4.0,25.0,6.626
-2.0,22.0,6.627
6.0,14.0,6.628
8.0,11.0,6.629
2.0,10.0,6.63
0.0,7.0,6.631
5.0,5.0,6.632
7.0,8.0,6.633
5.0,11.0,6.634
5.0,10.0,6.635
9.0,9.0,6.636
13.0,12.0,6.637
8.0,17.0,6.638
4.0,18.0,6.639
-1.0,17.0,6.64
-2.0,7.0,6.641
-1.0,0.0,6.642
3.0,1.0,6.643
8.0,3.0,6.644
9.0,3.0,6.645
3.0,2.0,6.646
0.0,0.0,6.647
0.0,-3.0,6.648
0.0,-11.0,6.649
-2.0,-17.0,6.65
-2.0,-13.0,6.651
1.0,-9.0,6.652
6.0,-9.0,6.653
8.0,-10.0,6.654
8.0,-10.0,6.655
8.0,-10.0,6.656
7.0,-10.0,6.657
3.0,-9.0,6.658
-2.0,-14.0,6.659
-6.0,-15.0,6.66
-9.0,-14.0,6.661
-9.0,-8.0,6.662
2.0,-2.0,6.663
11.0,5.0,6.664
13.0,14.0,6.665
15.0,25.0,6.666
11.0,29.0,6.667
7.0,25.0,6.668
8.0,15.0,6.669
10.0,10.0,6.67
12.0,7.0,6.671
14.0,1.0,6.672
10.0,-7.0,6.673
6.0,-14.0,6.674
1.0,-13.0,6.675
-4.0,3.0,6.676
-9.0,32.0,6.677
-15.0,47.0,6.678
-25.0,30.0,6.679
-41.0,-16.0,6.68
-57.0,-56.0,6.681
-61.0,-66.0,6.682
-45.0,-64.0,6.683
-9.0,-66.0,6.684
33.0,-61.0,6.685
63.0,-42.0,6.686
73.0,-26.0,6.687
69.0,-24.0,6.688
66.0,-19.0,6.689
61.0,2.0,6.69
45.0,19.0,6.691
16.0,10.0,6.692
-18.0,-4.0,6.693
-47.0,0.0,6.694
-65.0,16.0,6.695
-67.0,20.0,6.696
-42.0,12.0,6.697
2.0,6.0,6.698
36.0,6.0,6.699
34.0,1.0,6.7
25.0,-6.0,6.701
39.0,-2.0,6.702
69.0,10.0,6.703
69.0,15.0,6.704
34.0,13.0,6.705
0.0,10.0,6.706
-11.0,10.0,6.707
-12.0,10.0,6.708
-21.0,17.0,6.709
-30.0,32.0,6.71
-37.0,46.0,6.711
-54.0,47.0,6.712
-79.0,46.0,6.713
-75.0,56.0,6.714
-26.0,69.0,6.715
33.0,67.0,6.716
61.0,48.0,6.717
55.0,17.0,6.718
49.0,-12.0,6.719
44.0,-40.0,6.72
21.0,-62.0,6.721
-17.0,-78.0,6.722
-32.0,-75.0,6.723
-13.0,-70.0,6.724
13.0,-59.0,6.725
12.0,-48.0,6.726
-8.0,-36.0,6.727
-13.0,-25.0,6.728
-4.0,-20.0,6.729
-2.0,-12.0,6.73
-11.0,1.0,6.731
-19.0,11.0,6.732
-19.0,7.0,6.733
-16.0,3.0,6.734
-14.0,5.0,6.735
-7.0,8.0,6.736
4.0,6.0,6.737
12.0,3.0,6.738
13.0,2.0,6.739
13.0,7.0,6.74
3.0,6.0,6.741
-3.0,7.0,6.742
2.0,15.0,6.743
6.0,27.0,6.744
9.0,32.0,6.745
10.0,28.0,6.746
4.0,22.0,6.747
-1.0,21.0,6.748
-1.0,20.0,6.749
0.0,15.0,6.75
2.0,8.0,6.751
5.0,0.0,6.752
11.0,-4.0,6.753
16.0,-8.0,6.754
15.0,-9.0,6.755
13.0,-12.0,6.756
11.0,-16.0,6.757
9.0,-19.0,6.758
2.0,-19.0,6.759
-1.0,-19.0,6.76
-3.0,-20.0,6.761
-2.0,-18.0,6.762
2.0,-7.0,6.763
6.0,2.0,6.764
-1.0,6.0,6.765
-19.0,7.0,6.766
-30.0,0.0,6.767
-25.0,-5.0,6.768
-14.0,-7.0,6.769
-5.0,-7.0,6.77
5.0,-1.0,6.771
26.0,5.0,6.772
44.0,13.0,6.773
48.0,20.0,6.774
41.0,20.0,6.775
34.0,21.0,6.776
30.0,29.0,6.777
21.0,37.0,6.778
12.0,37.0,6.779
3.0,24.0,6.78
-2.0,0.0,6.781
-9.0,-18.0,6.782
-15.0,-34.0,6.783
-16.0,-45.0,6.784
-16.0,-44.0,6.785
-17.0,-35.0,6.786
-18.0,-25.0,6.787
-17.0,-23.0,6.788
-19.0,-20.0,6.789
-10.0,-11.0,6.79
20.0,0.0,6.791
51.0,9.0,6.792
49.0,22.0,6.793
20.0,36.0,6.794
-2.0,38.0,6.795
-2.0,28.0,6.796
-6.0,18.0,6.797
-28.0,17.0,6.798
-41.0,15.0,6.799
-24.0,10.0,6.8
3.0,-3.0,6.801
12.0,-16.0,6.802
13.0,-24.0,6.803
30.0,-34.0,6.804
55.0,-47.0,6.805
52.0,-56.0,6.806
18.0,-52.0,6.807
-16.0,-47.0,6.808
-28.0,-41.0,6.809
-20.0,-32.0,6.81
-7.0,-14.0,6.811
-5.0,2.0,6.812
-14.0,15.0,6.813
-13.0,27.0,6.814
7.0,31.0,6.815
20.0,34.0,6.816
3.0,34.0,6.817
-28.0,36.0,6.818
-27.0,35.0,6.819
1.0,23.0,6.82
21.0,6.0,6.821
18.0,2.0,6.822
15.0,8.0,6.823
18.0,14.0,6.824
10.0,14.0,6.825
-6.0,11.0,6.826
-7.0,9.0,6.827
4.0,8.0,6.828
3.0,5.0,6.829
-11.0,3.0,6.83
-18.0,3.0,6.831
-13.0,1.0,6.832
-12.0,-2.0,6.833
-15.0,-3.0,6.834
-10.0,2.0,6.835
0.0,7.0,6.836
7.0,8.0,6.837
12.0,3.0,6.838
23.0,-2.0,6.839
30.0,-6.0,6.84
26.0,-9.0,6.841
19.0,-12.0,6.842
21.0,-12.0,6.843
20.0,-12.0,6.844
3.0,-12.0,6.845
-14.0,-12.0,6.846
-9.0,-10.0,6.847
5.0,-6.0,6.848
7.0,3.0,6.849
-3.0,10.0,6.85
-5.0,8.0,6.851
-4.0,5.0,6.852
-9.0,3.0,6.853
-18.0,3.0,6.854
-19.0,7.0,6.855
-12.0,10.0,6.856
-3.0,8.0,6.857
1.0,5.0,6.858
9.0,0.0,6.859
12.0,-6.0,6.86
13.0,-13.0,6.861
14.0,-18.0,6.862
18.0,-19.0,6.863
17.0,-18.0,6.864
9.0,-17.0,6.865
4.0,-19.0,6.866
9.0,-22.0,6.867
12.0,-21.0,6.868
3.0,-16.0,6.869
-3.0,-9.0,6.87
2.0,-2.0,6.871
7.0,0.0,6.872
1.0,3.0,6.873
-1.0,10.0,6.874
8.0,18.0,6.875
16.0,20.0,6.876
9.0,15.0,6.877
-2.0,10.0,6.878
0.0,11.0,6.879
10.0,12.0,6.88
15.0,8.0,6.881
7.0,3.0,6.882
-1.0,1.0,6.883
-10.0,0.0,6.884
-21.0,0.0,6.885
-28.0,0.0,6.886
-24.0,1.0,6.887
-10.0,3.0,6.888
2.0,0.0,6.889
9.0,0.0,6.89
16.0,5.0,6.891
28.0,10.0,6.892
35.0,7.0,6.893
30.0,4.0,6.894
19.0,1.0,6.895
9.0,-1.0,6.896
8.0,-1.0,6.897
11.0,-1.0,6.898
9.0,3.0,6.899
-2.0,6.0,6.9
-16.0,3.0,6.901
-23.0,2.0,6.902
-23.0,3.0,6.903
-21.0,2.0,6.904
-26.0,2.0,6.905
-29.0,5.0,6.906
-11.0,8.0,6.907
26.0,3.0,6.908
54.0,-8.0,6.909
52.0,-18.0,6.91
30.0,-24.0,6.911
12.0,-30.0,6.912
6.0,-36.0,6.913
-3.0,-36.0,6.914
-21.0,-28.0,6.915
-26.0,-17.0,6.916
-3.0,-7.0,6.917
29.0,0.0,6.918
31.0,6.0,6.919
-6.0,11.0,6.92
-48.0,9.0,6.921
-58.0,8.0,6.922
-33.0,6.0,6.923
-1.0,5.0,6.924
18.0,6.0,6.925
24.0,10.0,6.926
26.0,18.0,6.927
27.0,22.0,6.928
28.0,16.0,6.929
30.0,10.0,6.93
34.0,1.0,6.931
30.0,-7.0,6.932
17.0,-11.0,6.933
3.0,-13.0,6.934
1.0,-6.0,6.935
5.0,-1.0,6.936
6.0,0.0,6.937
2.0,0.0,6.938
-1.0,-11.0,6.939
-9.0,-18.0,6.94
-19.0,-17.0,6.941
-22.0,-5.0,6.942
-15.0,4.0,6.943
-4.0,4.0,6.944
-3.0,4.0,6.945
-5.0,8.0,6.946
-7.0,10.0,6.947
-6.0,3.0,6.948
-6.0,-5.0,6.949
-4.0,-5.0,6.95
-3.0,3.0,6.951
-3.0,9.0,6.952
-1.0,9.0,6.953
2.0,9.0,6.954
4.0,7.0,6.955
-1.0,4.0,6.956
-4.0,4.0,6.957
1.0,7.0,6.958
7.0,7.0,6.959
-1.0,0.0,6.96
-11.0,-11.0,6.961
-8.0,-13.0,6.962
4.0,-7.0,6.963
8.0,-1.0,6.964
1.0,0.0,6.965
0.0,-2.0,6.966
7.0,-1.0,6.967
12.0,-1.0,6.968
10.0,-2.0,6.969
9.0,-3.0,6.97
14.0,-5.0,6.971
14.0,-5.0,6.972
4.0,-2.0,6.973
-6.0,1.0,6.974
-6.0,2.0,6.975
-3.0,1.0,6.976
0.0,2.0,6.977
-1.0,2.0,6.978
0.0,1.0,6.979
2.0,-2.0,6.98
2.0,-8.0,6.981
2.0,-9.0,6.982
8.0,-8.0,6.983
13.0,-9.0,6.984
13.0,-7.0,6.985
8.0,-4.0,6.986
-5.0,0.0,6.987
-16.0,4.0,6.988
-16.0,11.0,6.989
-11.0,17.0,6.99
6.0,16.0,6.991
20.0,10.0,6.992
21.0,4.0,6.993
26.0,2.0,6.994
40.0,3.0,6.995
49.0,7.0,6.996
42.0,10.0,6.997
30.0,8.0,6.998
6.0,5.0,6.999
-9.0,0.0,7.0
-16.0,-10.0,7.001
-18.0,-21.0,7.002
-15.0,-29.0,7.003
-9.0,-34.0,7.004
-10.0,-28.0,7.005
-16.0,-23.0,7.006
-15.0,-19.0,7.007
-8.0,-15.0,7.008
-9.0,-17.0,7.009
-17.0,-18.0,7.01
-22.0,-15.0,7.011
-13.0,-11.0,7.012
-11.0,-7.0,7.013
-24.0,-1.0,7.014
-39.0,7.0,7.015
-41.0,14.0,7.016
-30.0,13.0,7.017
-11.0,13.0,7.018
15.0,21.0,7.019
40.0,25.0,7.02
57.0,16.0,7.021
70.0,7.0,7.022
85.0,3.0,7.023
89.0,0.0,7.024
69.0,-2.0,7.025
37.0,0.0,7.026
21.0,6.0,7.027
18.0,7.0,7.028
4.0,5.0,7.029
-17.0,9.0,7.03
-28.0,13.0,7.031
-31.0,11.0,7.032
-37.0,1.0,7.033
-43.0,-4.0,7.034
-29.0,1.0,7.035
2.0,5.0,7.036
24.0,6.0,7.037
22.0,10.0,7.038
11.0,14.0,7.039
1.0,12.0,7.04
-1.0,-1.0,7.041
-7.0,-5.0,7.042
-13.0,2.0,7.043
-13.0,6.0,7.044
-17.0,-2.0,7.045
-26.0,-11.0,7.046
-33.0,-13.0,7.047
-23.0,-14.0,7.048
-6.0,-19.0,7.049
-4.0,-23.0,7.05
-10.0,-18.0,7.051
-8.0,-12.0,7.052
1.0,-11.0,7.053
5.0,-12.0,7.054
0.0,-8.0,7.055
-3.0,-1.0,7.056
0.0,3.0,7.057
-2.0,4.0,7.058
-6.0,6.0,7.059
-5.0,6.0,7.06
1.0,0.0,7.061
6.0,-6.0,7.062
15.0,-6.0,7.063
26.0,1.0,7.064
31.0,11.0,7.065
24.0,16.0,7.066
13.0,12.0,7.067
10.0,4.0,7.068
14.0,0.0,7.069
15.0,0.0,7.07
14.0,2.0,7.071
15.0,0.0,7.072
13.0,-3.0,7.073
6.0,-3.0,7.074
-1.0,-1.0,7.075
0.0,0.0,7.076
7.0,5.0,7.077
8.0,8.0,7.078
4.0,4.0,7.079
-6.0,-1.0,7.08
-15.0,-12.0,7.081
-17.0,-18.0,7.082
-13.0,-5.0,7.083
-9.0,4.0,7.084
-7.0,1.0,7.085
0.0,-2.0,7.086
21.0,-6.0,7.087
43.0,-8.0,7.088
52.0,-4.0,7.089
49.0,0.0,7.09
39.0,1.0,7.091
17.0,5.0,7.092
-23.0,10.0,7.093
-65.0,13.0,7.094
-85.0,5.0,7.095
-76.0,0.0,7.096
-50.0,4.0,7.097
-16.0,9.0,7.098
24.0,13.0,7.099
44.0,9.0,7.1
26.0,0.0,7.101
-12.0,-5.0,7.102
-12.0,-6.0,7.103
39.0,-3.0,7.104
86.0,3.0,7.105
79.0,6.0,7.106
33.0,1.0,7.107
7.0,-5.0,7.108
19.0,-6.0,7.109
32.0,-9.0,7.11
21.0,-22.0,7.111
2.0,-36.0,7.112
-1.0,-40.0,7.113
4.0,-30.0,7.114
-2.0,-18.0,7.115
-28.0,-8.0,7.116
-58.0,1.0,7.117
-70.0,3.0,7.118
-43.0,4.0,7.119
7.0,7.0,7.12
44.0,15.0,7.121
53.0,20.0,7.122
53.0,16.0,7.123
48.0,12.0,7.124
24.0,12.0,7.125
-10.0,13.0,7.126
-19.0,13.0,7.127
4.0,13.0,7.128
19.0,13.0,7.129
-3.0,11.0,7.13
-26.0,5.0,7.131
-23.0,-1.0,7.132
-10.0,-5.0,7.133
-10.0,-9.0,7.134
-17.0,-9.0,7.135
-16.0,-8.0,7.136
-12.0,-11.0,7.137
-19.0,-14.0,7.138
-21.0,-14.0,7.139
-16.0,-15.0,7.14
-12.0,-16.0,7.141
-16.0,-14.0,7.142
-15.0,-14.0,7.143
-2.0,-16.0,7.144
3.0,-15.0,7.145
-4.0,-11.0,7.146
-7.0,-8.0,7.147
0.0,-7.0,7.148
11.0,-2.0,7.149
12.0,4.0,7.15
11.0,8.0,7.151
15.0,8.0,7.152
15.0,7.0,7.153
8.0,9.0,7.154
6.0,12.0,7.155
13.0,18.0,7.156
16.0,24.0,7.157
13.0,24.0,7.158
9.0,22.0,7.159
6.0,19.0,7.16
0.0,15.0,7.161
-6.0,10.0,7.162
-5.0,7.0,7.163
0.0,6.0,7.164
-7.0,10.0,7.165
-19.0,13.0,7.166
-19.0,17.0,7.167
-7.0,18.0,7.168
0.0,10.0,7.169
-1.0,3.0,7.17
4.0,0.0,7.171
22.0,-5.0,7.172
42.0,-15.0,7.173
49.0,-26.0,7.174
47.0,-34.0,7.175
39.0,-41.0,7.176
26.0,-41.0,7.177
0.0,-38.0,7.178
-22.0,-25.0,7.179
-33.0,-12.0,7.18
-36.0,-12.0,7.181
-36.0,-18.0,7.182
-23.0,-19.0,7.183
7.0,-8.0,7.184
26.0,10.0,7.185
15.0,21.0,7.186
-6.0,19.0,7.187
-4.0,15.0,7.188
20.0,12.0,7.189
34.0,9.0,7.19
26.0,1.0,7.191
11.0,-5.0,7.192
0.0,-2.0,7.193
-3.0,7.0,7.194
3.0,14.0,7.195
15.0,12.0,7.196
17.0,7.0,7.197
-3.0,8.0,7.198
-21.0,20.0,7.199
-15.0,29.0,7.2
12.0,25.0,7.201
32.0,20.0,7.202
35.0,17.0,7.203
28.0,14.0,7.204
18.0,16.0,7.205
7.0,15.0,7.206
-1.0,4.0,7.207
-5.0,-5.0,7.208
-8.0,-7.0,7.209
-10.0,-10.0,7.21
-9.0,-10.0,7.211
-4.0,-9.0,7.212
-2.0,-10.0,7.213
-7.0,-10.0,7.214
-11.0,-8.0,7.215
-13.0,-8.0,7.216
-13.0,-12.0,7.217
-13.0,-15.0,7.218
-11.0,-12.0,7.219
-11.0,-10.0,7.22
-17.0,-12.0,7.221
-22.0,-8.0,7.222
-20.0,-2.0,7.223
-10.0,3.0,7.224
-4.0,3.0,7.225
-3.0,1.0,7.226
4.0,-1.0,7.227
25.0,-6.0,7.228
45.0,-7.0,7.229
51.0,-1.0,7.23
45.0,8.0,7.231
37.0,10.0,7.232
28.0,10.0,7.233
16.0,9.0,7.234
2.0,10.0,7.235
-5.0,8.0,7.236
-7.0,7.0,7.237
-12.0,2.0,7.238
-23.0,-2.0,7.239
-39.0,-6.0,7.24
-62.0,-8.0,7.241
-84.0,-5.0,7.242
-88.0,-1.0,7.243
-59.0,0.0,7.244
-13.0,-2.0,7.245
28.0,-5.0,7.246
62.0,-10.0,7.247
90.0,-17.0,7.248
100.0,-18.0,7.249
83.0,-15.0,7.25
57.0,-16.0,7.251
46.0,-19.0,7.252
40.0,-19.0,7.253
24.0,-11.0,7.254
7.0,-2.0,7.255
8.0,8.0,7.256
19.0,20.0,7.257
19.0,28.0,7.258
5.0,28.0,7.259
-8.0,22.0,7.26
-18.0,16.0,7.261
-34.0,14.0,7.262
-53.0,9.0,7.263
-60.0,0.0,7.264
-53.0,-4.0,7.265
-34.0,-3.0,7.266
-3.0,-4.0,7.267
29.0,-11.0,7.268
36.0,-22.0,7.269
14.0,-24.0,7.27
-12.0,-18.0,7.271
-25.0,-9.0,7.272
-28.0,-5.0,7.273
-23.0,-6.0,7.274
-9.0,-7.0,7.275
9.0,-6.0,7.276
11.0,-5.0,7.277
-3.0,-9.0,7.278
-11.0,-15.0,7.279
-6.0,-18.0,7.28
1.0,-11.0,7.281
3.0,-5.0,7.282
10.0,0.0,7.283
22.0,6.0,7.284
24.0,14.0,7.285
12.0,21.0,7.286
0.0,27.0,7.287
-1.0,32.0,7.288
3.0,28.0,7.289
1.0,23.0,7.29
-4.0,17.0,7.291
-2.0,13.0,7.292
6.0,13.0,7.293
14.0,12.0,7.294
14.0,14.0,7.295
12.0,13.0,7.296
7.0,3.0,7.297
0.0,-6.0,7.298
-7.0,-14.0,7.299
-16.0,-15.0,7.3
-17.0,-15.0,7.301
-7.0,-13.0,7.302
10.0,-14.0,7.303
20.0,-18.0,7.304
15.0,-24.0,7.305
-1.0,-25.0,7.306
-10.0,-28.0,7.307
-6.0,-31.0,7.308
9.0,-30.0,7.309
25.0,-21.0,7.31
36.0,-11.0,7.311
47.0,-9.0,7.312
47.0,-8.0,7.313
33.0,0.0,7.314
9.0,10.0,7.315
-10.0,17.0,7.316
-14.0,17.0,7.317
-11.0,14.0,7.318
-13.0,13.0,7.319
-21.0,14.0,7.32
-27.0,14.0,7.321
-26.0,18.0,7.322
-23.0,22.0,7.323
-24.0,24.0,7.324
-26.0,24.0,7.325
-22.0,22.0,7.326
-9.0,17.0,7.327
17.0,14.0,7.328
50.0,14.0,7.329
79.0,12.0,7.33
84.0,0.0,7.331
58.0,-20.0,7.332
10.0,-37.0,7.333
-35.0,-43.0,7.334
-60.0,-41.0,7.335
-59.0,-40.0,7.336
-43.0,-39.0,7.337
-19.0,-36.0,7.338
14.0,-25.0,7.339
53.0,-3.0,7.34
84.0,20.0,7.341
83.0,38.0,7.342
47.0,41.0,7.343
1.0,32.0,7.344
-33.0,24.0,7.345
-52.0,25.0,7.346
-62.0,29.0,7.347
-60.0,31.0,7.348
-52.0,30.0,7.349
-44.0,28.0,7.35
-31.0,22.0,7.351
6.0,12.0,7.352
64.0,3.0,7.353
98.0,-3.0,7.354
84.0,-5.0,7.355
44.0,-7.0,7.356
22.0,-8.0,7.357
28.0,-15.0,7.358
45.0,-22.0,7.359
51.0,-30.0,7.36
39.0,-40.0,7.361
14.0,-40.0,7.362
-8.0,-31.0,7.363
-18.0,-18.0,7.364
-18.0,-11.0,7.365
-17.0,-8.0,7.366
-22.0,-9.0,7.367
-28.0,-6.0,7.368
-34.0,-4.0,7.369
-40.0,-5.0,7.37
-44.0,-7.0,7.371
-37.0,-8.0,7.372
-20.0,-4.0,7.373
-2.0,2.0,7.374
12.0,6.0,7.375
15.0,12.0,7.376
7.0,23.0,7.377
-9.0,27.0,7.378
-23.0,23.0,7.379
-29.0,18.0,7.38
-28.0,16.0,7.381
-20.0,20.0,7.382
-8.0,24.0,7.383
8.0,24.0,7.384
17.0,18.0,7.385
18.0,3.0,7.386
23.0,-15.0,7.387
34.0,-29.0,7.388
38.0,-36.0,7.389
21.0,-41.0,7.39
-1.0,-48.0,7.391
-6.0,-52.0,7.392
0.0,-43.0,7.393
0.0,-20.0,7.394
-7.0,3.0,7.395
-7.0,15.0,7.396
-2.0,20.0,7.397
-8.0,20.0,7.398
-19.0,22.0,7.399
-9.0,23.0,7.4
25.0,12.0,7.401
53.0,2.0,7.402
48.0,-3.0,7.403
15.0,-1.0,7.404
-27.0,-3.0,7.405
-63.0,-9.0,7.406
-79.0,-13.0,7.407
-68.0,-7.0,7.408
-34.0,4.0,7.409
7.0,5.0,7.41
35.0,-6.0,7.411
43.0,-15.0,7.412
47.0,-12.0,7.413
69.0,1.0,7.414
100.0,19.0,7.415
99.0,30.0,7.416
55.0,34.0,7.417
3.0,26.0,7.418
-11.0,10.0,7.419
4.0,-1.0,7.42
5.0,0.0,7.421
-15.0,10.0,7.422
-31.0,18.0,7.423
-35.0,19.0,7.424
-44.0,17.0,7.425
-54.0,8.0,7.426
-45.0,-6.0,7.427
-17.0,-13.0,7.428
7.0,-8.0,7.429
12.0,-2.0,7.43
14.0,-10.0,7.431
23.0,-24.0,7.432
39.0,-32.0,7.433
51.0,-30.0,7.434
50.0,-32.0,7.435
32.0,-40.0,7.436
11.0,-40.0,7.437
3.0,-24.0,7.438
4.0,-2.0,7.439
-15.0,13.0,7.44
-59.0,12.0,7.441
-88.0,9.0,7.442
-65.0,11.0,7.443
-7.0,13.0,7.444
37.0,16.0,7.445
39.0,20.0,7.446
17.0,23.0,7.447
-2.0,18.0,7.448
-6.0,4.0,7.449
0.0,-12.0,7.45
4.0,-23.0,7.451
3.0,-25.0,7.452
5.0,-26.0,7.453
18.0,-27.0,7.454
34.0,-22.0,7.455
37.0,-5.0,7.456
28.0,12.0,7.457
20.0,20.0,7.458
14.0,21.0,7.459
-3.0,25.0,7.46
-32.0,27.0,7.461
-45.0,26.0,7.462
-27.0,20.0,7.463
2.0,17.0,7.464
20.0,20.0,7.465
35.0,15.0,7.466
59.0,5.0,7.467
69.0,2.0,7.468
45.0,7.0,7.469
9.0,6.0,7.47
-4.0,-5.0,7.471
3.0,-12.0,7.472
4.0,-9.0,7.473
-5.0,-6.0,7.474
-8.0,-8.0,7.475
-8.0,-9.0,7.476
-14.0,-7.0,7.477
-22.0,-8.0,7.478
-14.0,-12.0,7.479
0.0,-14.0,7.48
-5.0,-11.0,7.481
-31.0,-4.0,7.482
-51.0,-2.0,7.483
-49.0,-5.0,7.484
-38.0,-8.0,7.485
-39.0,-4.0,7.486
-45.0,8.0,7.487
-37.0,19.0,7.488
-12.0,23.0,7.489
15.0,19.0,7.49
25.0,14.0,7.491
21.0,9.0,7.492
18.0,-2.0,7.493
31.0,-17.0,7.494
58.0,-24.0,7.495
74.0,-16.0,7.496
56.0,-3.0,7.497
8.0,3.0,7.498
-33.0,5.0,7.499
