Deltoid,Bicep,Time
4.0,-3.0,0.0
-2.0,-6.0,0.001
-3.0,-8.0,0.002
6.0,-4.0,0.003
15.0,2.0,0.004
10.0,7.0,0.005
-3.0,7.0,0.006
-9.0,2.0,0.007
-3.0,0.0,0.008
2.0,3.0,0.009
0.0,4.0,0.01
-4.0,1.0,0.011
-1.0,-3.0,0.012
3.0,-2.0,0.013
5.0,1.0,0.014
5.0,1.0,0.015
7.0,0.0,0.016
11.0,1.0,0.017
8.0,-2.0,0.018
6.0,-5.0,0.019
6.0,-8.0,0.02
4.0,-8.0,0.021
1.0,-3.0,0.022
4.0,0.0,0.023
9.0,0.0,0.024
10.0,3.0,0.025
3.0,6.0,0.026
1.0,5.0,0.027
2.0,1.0,0.028
4.0,1.0,0.029
3.0,3.0,0.03
0.0,5.0,0.031
-2.0,4.0,0.032
-3.0,3.0,0.033
-4.0,2.0,0.034
2.0,-2.0,0.035
5.0,-8.0,0.036
6.0,-10.0,0.037
3.0,-8.0,0.038
3.0,-6.0,0.039
2.0,-4.0,0.04
-3.0,-4.0,0.041
-6.0,-3.0,0.042
-3.0,-1.0,0.043
-1.0,1.0,0.044
-1.0,5.0,0.045
-1.0,8.0,0.046
-2.0,8.0,0.047
-3.0,8.0,0.048
0.0,4.0,0.049
3.0,1.0,0.05
7.0,1.0,0.051
9.0,0.0,0.052
7.0,-1.0,0.053
5.0,-4.0,0.054
5.0,-4.0,0.055
5.0,-5.0,0.056
5.0,-7.0,0.057
4.0,-9.0,0.058
9.0,-8.0,0.059
7.0,-5.0,0.06
0.0,-5.0,0.061
-5.0,-5.0,0.062
-1.0,-3.0,0.063
4.0,1.0,0.064
3.0,4.0,0.065
-4.0,7.0,0.066
-8.0,7.0,0.067
-8.0,4.0,0.068
-5.0,1.0,0.069
-3.0,4.0,0.07
-1.0,6.0,0.071
6.0,3.0,0.072
11.0,-2.0,0.073
12.0,-5.0,0.074
8.0,-4.0,0.075
5.0,-1.0,0.076
3.0,0.0,0.077
4.0,-1.0,0.078
3.0,-3.0,0.079
0.0,-5.0,0.08
-3.0,-7.0,0.081
-3.0,-3.0,0.082
0.0,3.0,0.083
5.0,6.0,0.084
5.0,8.0,0.085
0.0,8.0,0.086
-4.0,9.0,0.087
-3.0,6.0,0.088
1.0,5.0,0.089
3.0,4.0,0.09
3.0,2.0,0.091
4.0,0.0,0.092
6.0,-2.0,0.093
7.0,-3.0,0.094
9.0,-6.0,0.095
12.0,-7.0,0.096
15.0,-7.0,0.097
11.0,-6.0,0.098
4.0,-6.0,0.099
-3.0,-6.0,0.1
-8.0,-7.0,0.101
-9.0,-6.0,0.102
-5.0,-3.0,0.103
2.0,-2.0,0.104
5.0,-2.0,0.105
0.0,0.0,0.106
-3.0,0.0,0.107
-1.0,0.0,0.108
2.0,0.0,0.109
1.0,1.0,0.11
-2.0,3.0,0.111
0.0,2.0,0.112
3.0,0.0,0.113
3.0,-3.0,0.114
3.0,-7.0,0.115
6.0,-9.0,0.116
9.0,-8.0,0.117
7.0,-7.0,0.118
3.0,-6.0,0.119
0.0,-5.0,0.12
1.0,-5.0,0.121
6.0,-4.0,0.122
12.0,0.0,0.123
17.0,3.0,0.124
15.0,5.0,0.125
6.0,7.0,0.126
-2.0,7.0,0.127
-3.0,7.0,0.128
-1.0,5.0,0.129
0.0,4.0,0.13
-3.0,4.0,0.131
-1.0,4.0,0.132
6.0,4.0,0.133
11.0,3.0,0.134
12.0,0.0,0.135
10.0,-2.0,0.136
8.0,-2.0,0.137
8.0,-2.0,0.138
7.0,-1.0,0.139
2.0,-1.0,0.14
-3.0,-3.0,0.141
-7.0,-2.0,0.142
-3.0,0.0,0.143
6.0,2.0,0.144
8.0,6.0,0.145
0.0,8.0,0.146
-9.0,6.0,0.147
-9.0,3.0,0.148
-3.0,5.0,0.149
-1.0,9.0,0.15
-2.0,8.0,0.151
0.0,2.0,0.152
5.0,0.0,0.153
7.0,-2.0,0.154
2.0,-3.0,0.155
-1.0,-5.0,0.156
0.0,-3.0,0.157
1.0,-3.0,0.158
0.0,-5.0,0.159
-3.0,-7.0,0.16
-4.0,-10.0,0.161
-2.0,-9.0,0.162
3.0,-7.0,0.163
5.0,-5.0,0.164
3.0,0.0,0.165
-1.0,4.0,0.166
-1.0,4.0,0.167
1.0,1.0,0.168
1.0,0.0,0.169
-1.0,1.0,0.17
-3.0,3.0,0.171
-1.0,2.0,0.172
2.0,0.0,0.173
4.0,-2.0,0.174
1.0,-3.0,0.175
-1.0,-3.0,0.176
4.0,0.0,0.177
11.0,-2.0,0.178
13.0,-4.0,0.179
4.0,-6.0,0.18
-4.0,-7.0,0.181
-3.0,-6.0,0.182
8.0,-5.0,0.183
15.0,-2.0,0.184
11.0,2.0,0.185
1.0,6.0,0.186
-2.0,7.0,0.187
0.0,5.0,0.188
1.0,5.0,0.189
-2.0,6.0,0.19
-1.0,3.0,0.191
4.0,-1.0,0.192
8.0,-3.0,0.193
7.0,0.0,0.194
4.0,0.0,0.195
4.0,-5.0,0.196
6.0,-8.0,0.197
6.0,-2.0,0.198
5.0,-4.0,0.199
2.0,-5.0,0.2
-3.0,-9.0,0.201
-4.0,-6.0,0.202
0.0,0.0,0.203
7.0,3.0,0.204
6.0,5.0,0.205
0.0,6.0,0.206
-1.0,6.0,0.207
1.0,7.0,0.208
3.0,8.0,0.209
0.0,8.0,0.21
-1.0,3.0,0.211
1.0,-4.0,0.212
0.0,-5.0,0.213
-2.0,-3.0,0.214
0.0,-2.0,0.215
5.0,-5.0,0.216
7.0,-7.0,0.217
4.0,-7.0,0.218
3.0,-5.0,0.219
1.0,-4.0,0.22
-1.0,-6.0,0.221
-3.0,-4.0,0.222
0.0,1.0,0.223
8.0,3.0,0.224
12.0,4.0,0.225
9.0,7.0,0.226
5.0,8.0,0.227
5.0,6.0,0.228
3.0,2.0,0.229
0.0,1.0,0.23
-2.0,1.0,0.231
0.0,-1.0,0.232
0.0,-7.0,0.233
0.0,-7.0,0.234
0.0,-5.0,0.235
2.0,-4.0,0.236
5.0,-5.0,0.237
7.0,-6.0,0.238
12.0,-5.0,0.239
10.0,-3.0,0.24
3.0,-5.0,0.241
-2.0,-3.0,0.242
3.0,-1.0,0.243
8.0,0.0,0.244
2.0,4.0,0.245
-7.0,9.0,0.246
-9.0,9.0,0.247
-4.0,4.0,0.248
-3.0,2.0,0.249
-5.0,4.0,0.25
-5.0,5.0,0.251
0.0,0.0,0.252
4.0,-5.0,0.253
4.0,-4.0,0.254
5.0,-3.0,0.255
7.0,-3.0,0.256
9.0,-3.0,0.257
8.0,-4.0,0.258
8.0,-4.0,0.259
4.0,-5.0,0.26
-3.0,-5.0,0.261
-5.0,-5.0,0.262
1.0,-5.0,0.263
11.0,-4.0,0.264
10.0,1.0,0.265
2.0,5.0,0.266
-1.0,8.0,0.267
2.0,11.0,0.268
1.0,9.0,0.269
-4.0,7.0,0.27
-4.0,5.0,0.271
1.0,3.0,0.272
1.0,1.0,0.273
-2.0,0.0,0.274
-2.0,0.0,0.275
2.0,-1.0,0.276
7.0,-4.0,0.277
8.0,-8.0,0.278
7.0,-10.0,0.279
3.0,-8.0,0.28
-1.0,-6.0,0.281
-5.0,-2.0,0.282
-1.0,-1.0,0.283
4.0,-1.0,0.284
5.0,2.0,0.285
-1.0,5.0,0.286
-4.0,6.0,0.287
-5.0,2.0,0.288
-5.0,1.0,0.289
-4.0,3.0,0.29
2.0,4.0,0.291
7.0,1.0,0.292
10.0,-1.0,0.293
11.0,-3.0,0.294
15.0,-2.0,0.295
18.0,-4.0,0.296
17.0,-4.0,0.297
11.0,-3.0,0.298
5.0,-2.0,0.299
1.0,-2.0,0.3
-4.0,-4.0,0.301
-6.0,-4.0,0.302
-2.0,-1.0,0.303
3.0,3.0,0.304
3.0,8.0,0.305
-3.0,9.0,0.306
-7.0,6.0,0.307
-3.0,1.0,0.308
-1.0,2.0,0.309
-2.0,4.0,0.31
-4.0,3.0,0.311
-2.0,-2.0,0.312
1.0,-5.0,0.313
1.0,-4.0,0.314
1.0,-5.0,0.315
6.0,-7.0,0.316
11.0,-7.0,0.317
9.0,-7.0,0.318
3.0,-6.0,0.319
-1.0,-6.0,0.32
-2.0,-6.0,0.321
-1.0,-4.0,0.322
3.0,-3.0,0.323
9.0,-1.0,0.324
10.0,1.0,0.325
5.0,7.0,0.326
0.0,7.0,0.327
-3.0,4.0,0.328
-5.0,3.0,0.329
-5.0,4.0,0.33
-2.0,3.0,0.331
3.0,-2.0,0.332
5.0,-4.0,0.333
4.0,-1.0,0.334
4.0,1.0,0.335
7.0,0.0,0.336
10.0,-2.0,0.337
9.0,-5.0,0.338
8.0,-5.0,0.339
5.0,-6.0,0.34
0.0,-7.0,0.341
-3.0,-7.0,0.342
0.0,-1.0,0.343
8.0,4.0,0.344
10.0,4.0,0.345
3.0,4.0,0.346
-2.0,4.0,0.347
-2.0,4.0,0.348
0.0,2.0,0.349
-1.0,0.0,0.35
-3.0,0.0,0.351
-4.0,0.0,0.352
-2.0,1.0,0.353
-1.0,2.0,0.354
3.0,-1.0,0.355
9.0,-4.0,0.356
12.0,-4.0,0.357
9.0,-4.0,0.358
3.0,-2.0,0.359
-2.0,-1.0,0.36
-3.0,-3.0,0.361
-1.0,-3.0,0.362
3.0,-1.0,0.363
7.0,2.0,0.364
5.0,9.0,0.365
-1.0,12.0,0.366
-3.0,11.0,0.367
0.0,6.0,0.368
1.0,6.0,0.369
-2.0,13.0,0.37
-5.0,18.0,0.371
-3.0,14.0,0.372
-1.0,7.0,0.373
1.0,4.0,0.374
7.0,3.0,0.375
11.0,1.0,0.376
9.0,0.0,0.377
4.0,-2.0,0.378
1.0,-3.0,0.379
-1.0,-7.0,0.38
-5.0,-18.0,0.381
-9.0,-26.0,0.382
-5.0,-33.0,0.383
3.0,-39.0,0.384
4.0,-40.0,0.385
-1.0,-37.0,0.386
-4.0,-29.0,0.387
0.0,-21.0,0.388
3.0,-15.0,0.389
0.0,-8.0,0.39
-3.0,-2.0,0.391
0.0,3.0,0.392
1.0,7.0,0.393
2.0,8.0,0.394
4.0,8.0,0.395
8.0,8.0,0.396
12.0,11.0,0.397
8.0,16.0,0.398
5.0,14.0,0.399
3.0,9.0,0.4
1.0,4.0,0.401
0.0,7.0,0.402
4.0,11.0,0.403
13.0,13.0,0.404
14.0,14.0,0.405
6.0,18.0,0.406
-2.0,19.0,0.407
-2.0,16.0,0.408
1.0,17.0,0.409
0.0,21.0,0.41
1.0,22.0,0.411
5.0,19.0,0.412
8.0,12.0,0.413
6.0,1.0,0.414
4.0,-15.0,0.415
7.0,-32.0,0.416
10.0,-40.0,0.417
7.0,-36.0,0.418
1.0,-26.0,0.419
-4.0,-17.0,0.42
-6.0,-10.0,0.421
-6.0,-1.0,0.422
0.0,8.0,0.423
10.0,18.0,0.424
12.0,28.0,0.425
6.0,37.0,0.426
0.0,42.0,0.427
0.0,45.0,0.428
0.0,39.0,0.429
0.0,34.0,0.43
1.0,29.0,0.431
5.0,23.0,0.432
6.0,15.0,0.433
5.0,2.0,0.434
7.0,-21.0,0.435
13.0,-43.0,0.436
18.0,-60.0,0.437
16.0,-73.0,0.438
10.0,-65.0,0.439
5.0,-52.0,0.44
3.0,-46.0,0.441
3.0,-37.0,0.442
9.0,-25.0,0.443
13.0,-15.0,0.444
10.0,-10.0,0.445
0.0,-7.0,0.446
-9.0,-2.0,0.447
-8.0,4.0,0.448
-4.0,9.0,0.449
-3.0,13.0,0.45
-6.0,15.0,0.451
-7.0,15.0,0.452
-8.0,19.0,0.453
-9.0,27.0,0.454
-8.0,32.0,0.455
-9.0,27.0,0.456
-8.0,16.0,0.457
-9.0,7.0,0.458
-7.0,4.0,0.459
-10.0,2.0,0.46
-15.0,-3.0,0.461
-14.0,-5.0,0.462
-2.0,-4.0,0.463
8.0,-1.0,0.464
8.0,2.0,0.465
0.0,6.0,0.466
-1.0,9.0,0.467
3.0,16.0,0.468
3.0,31.0,0.469
0.0,45.0,0.47
0.0,42.0,0.471
4.0,18.0,0.472
7.0,-5.0,0.473
6.0,-17.0,0.474
5.0,-24.0,0.475
7.0,-33.0,0.476
9.0,-34.0,0.477
8.0,-23.0,0.478
10.0,-11.0,0.479
9.0,-9.0,0.48
3.0,-14.0,0.481
-1.0,-15.0,0.482
5.0,-16.0,0.483
15.0,-18.0,0.484
16.0,-13.0,0.485
9.0,4.0,0.486
7.0,18.0,0.487
11.0,14.0,0.488
12.0,2.0,0.489
10.0,-3.0,0.49
7.0,-9.0,0.491
12.0,-19.0,0.492
13.0,-27.0,0.493
11.0,-21.0,0.494
11.0,-10.0,0.495
12.0,-8.0,0.496
13.0,-8.0,0.497
7.0,-10.0,0.498
1.0,-5.0,0.499
-3.0,-1.0,0.5
-7.0,-5.0,0.501
-12.0,-4.0,0.502
-9.0,0.0,0.503
-5.0,8.0,0.504
-8.0,17.0,0.505
-18.0,26.0,0.506
-23.0,27.0,0.507
-18.0,24.0,0.508
-11.0,21.0,0.509
-7.0,17.0,0.51
-4.0,12.0,0.511
0.0,8.0,0.512
1.0,6.0,0.513
1.0,7.0,0.514
7.0,9.0,0.515
14.0,8.0,0.516
18.0,7.0,0.517
15.0,4.0,0.518
12.0,1.0,0.519
9.0,-1.0,0.52
4.0,-5.0,0.521
1.0,-7.0,0.522
5.0,-10.0,0.523
13.0,-10.0,0.524
14.0,-7.0,0.525
4.0,-3.0,0.526
-6.0,-3.0,0.527
-6.0,-3.0,0.528
-2.0,1.0,0.529
-2.0,8.0,0.53
-6.0,14.0,0.531
-2.0,24.0,0.532
7.0,38.0,0.533
12.0,41.0,0.534
8.0,23.0,0.535
2.0,-4.0,0.536
3.0,-18.0,0.537
6.0,-17.0,0.538
7.0,-14.0,0.539
3.0,-24.0,0.54
-1.0,-42.0,0.541
-2.0,-49.0,0.542
0.0,-33.0,0.543
3.0,8.0,0.544
4.0,54.0,0.545
2.0,75.0,0.546
3.0,62.0,0.547
6.0,40.0,0.548
6.0,34.0,0.549
1.0,27.0,0.55
0.0,-17.0,0.551
7.0,-92.0,0.552
12.0,-145.0,0.553
11.0,-147.0,0.554
7.0,-122.0,0.555
6.0,-100.0,0.556
10.0,-77.0,0.557
13.0,-40.0,0.558
13.0,2.0,0.559
7.0,25.0,0.56
0.0,30.0,0.561
-1.0,47.0,0.562
2.0,78.0,0.563
6.0,106.0,0.564
5.0,104.0,0.565
0.0,76.0,0.566
-1.0,33.0,0.567
2.0,-2.0,0.568
4.0,-23.0,0.569
3.0,-30.0,0.57
2.0,-21.0,0.571
3.0,12.0,0.572
6.0,61.0,0.573
8.0,86.0,0.574
10.0,57.0,0.575
7.0,-7.0,0.576
4.0,-56.0,0.577
-3.0,-70.0,0.578
-10.0,-64.0,0.579
-18.0,-60.0,0.58
-21.0,-59.0,0.581
-20.0,-56.0,0.582
-12.0,-49.0,0.583
-4.0,-37.0,0.584
0.0,-15.0,0.585
-1.0,10.0,0.586
-3.0,47.0,0.587
-5.0,80.0,0.588
-4.0,102.0,0.589
-4.0,108.0,0.59
-3.0,62.0,0.591
-1.0,16.0,0.592
1.0,-31.0,0.593
5.0,-66.0,0.594
10.0,-63.0,0.595
12.0,-57.0,0.596
12.0,-40.0,0.597
8.0,-24.0,0.598
4.0,-17.0,0.599
1.0,-5.0,0.6
-2.0,13.0,0.601
-2.0,32.0,0.602
3.0,39.0,0.603
11.0,43.0,0.604
13.0,45.0,0.605
8.0,47.0,0.606
1.0,52.0,0.607
-4.0,60.0,0.608
-7.0,60.0,0.609
-8.0,36.0,0.61
-7.0,-9.0,0.611
-4.0,-49.0,0.612
-4.0,-66.0,0.613
-3.0,-64.0,0.614
1.0,-56.0,0.615
11.0,-39.0,0.616
17.0,-15.0,0.617
16.0,0.0,0.618
13.0,2.0,0.619
6.0,4.0,0.62
1.0,10.0,0.621
1.0,15.0,0.622
5.0,20.0,0.623
11.0,37.0,0.624
11.0,60.0,0.625
5.0,49.0,0.626
2.0,-7.0,0.627
5.0,-70.0,0.628
10.0,-86.0,0.629
11.0,-58.0,0.63
13.0,-31.0,0.631
18.0,-23.0,0.632
22.0,-16.0,0.633
24.0,-6.0,0.634
23.0,-5.0,0.635
21.0,-6.0,0.636
16.0,6.0,0.637
4.0,26.0,0.638
-5.0,28.0,0.639
-13.0,9.0,0.64
-17.0,-6.0,0.641
-18.0,-1.0,0.642
-13.0,2.0,0.643
-6.0,-9.0,0.644
-6.0,-22.0,0.645
-13.0,-21.0,0.646
-16.0,-17.0,0.647
-11.0,-19.0,0.648
-6.0,-8.0,0.649
-7.0,27.0,0.65
-7.0,61.0,0.651
0.0,55.0,0.652
9.0,12.0,0.653
10.0,-24.0,0.654
5.0,-27.0,0.655
0.0,-15.0,0.656
0.0,-7.0,0.657
0.0,-3.0,0.658
1.0,7.0,0.659
0.0,13.0,0.66
-3.0,3.0,0.661
-3.0,-3.0,0.662
7.0,6.0,0.663
17.0,22.0,0.664
18.0,29.0,0.665
9.0,29.0,0.666
3.0,34.0,0.667
7.0,45.0,0.668
7.0,47.0,0.669
0.0,31.0,0.67
-6.0,7.0,0.671
-6.0,-11.0,0.672
-8.0,-20.0,0.673
-13.0,-27.0,0.674
-15.0,-42.0,0.675
-6.0,-65.0,0.676
3.0,-83.0,0.677
5.0,-88.0,0.678
4.0,-72.0,0.679
5.0,-41.0,0.68
13.0,-10.0,0.681
21.0,11.0,0.682
28.0,28.0,0.683
31.0,44.0,0.684
26.0,59.0,0.685
22.0,62.0,0.686
24.0,48.0,0.687
25.0,29.0,0.688
9.0,23.0,0.689
-12.0,31.0,0.69
-19.0,31.0,0.691
-7.0,7.0,0.692
2.0,-29.0,0.693
-1.0,-48.0,0.694
-6.0,-38.0,0.695
-6.0,-13.0,0.696
-5.0,3.0,0.697
-14.0,7.0,0.698
-18.0,4.0,0.699
-11.0,6.0,0.7
-4.0,4.0,0.701
-10.0,-6.0,0.702
-18.0,-26.0,0.703
-19.0,-44.0,0.704
-13.0,-46.0,0.705
-10.0,-32.0,0.706
-9.0,-6.0,0.707
-5.0,33.0,0.708
-2.0,75.0,0.709
-1.0,91.0,0.71
3.0,57.0,0.711
10.0,0.0,0.712
13.0,-38.0,0.713
8.0,-52.0,0.714
8.0,-63.0,0.715
15.0,-79.0,0.716
19.0,-70.0,0.717
17.0,-38.0,0.718
13.0,-9.0,0.719
5.0,-2.0,0.72
-3.0,0.0,0.721
-7.0,12.0,0.722
1.0,22.0,0.723
17.0,23.0,0.724
23.0,32.0,0.725
16.0,47.0,0.726
7.0,51.0,0.727
1.0,43.0,0.728
-2.0,33.0,0.729
-3.0,22.0,0.73
1.0,2.0,0.731
10.0,-19.0,0.732
10.0,-27.0,0.733
4.0,-24.0,0.734
6.0,-21.0,0.735
13.0,-19.0,0.736
18.0,-10.0,0.737
12.0,-1.0,0.738
7.0,0.0,0.739
2.0,0.0,0.74
-8.0,6.0,0.741
-22.0,17.0,0.742
-27.0,18.0,0.743
-19.0,14.0,0.744
-12.0,13.0,0.745
-11.0,9.0,0.746
-5.0,-6.0,0.747
14.0,-22.0,0.748
32.0,-22.0,0.749
32.0,-9.0,0.75
19.0,-4.0,0.751
6.0,-12.0,0.752
0.0,-18.0,0.753
0.0,-16.0,0.754
-4.0,-11.0,0.755
-9.0,-13.0,0.756
-7.0,-15.0,0.757
1.0,-16.0,0.758
11.0,-11.0,0.759
8.0,-3.0,0.76
-1.0,3.0,0.761
-6.0,9.0,0.762
-2.0,15.0,0.763
5.0,21.0,0.764
4.0,25.0,0.765
-1.0,18.0,0.766
-1.0,5.0,0.767
2.0,-5.0,0.768
4.0,-6.0,0.769
5.0,-5.0,0.77
8.0,-6.0,0.771
10.0,-10.0,0.772
10.0,-11.0,0.773
8.0,-10.0,0.774
3.0,-12.0,0.775
1.0,-11.0,0.776
1.0,-6.0,0.777
3.0,-2.0,0.778
5.0,-1.0,0.779
-1.0,-4.0,0.78
-12.0,-9.0,0.781
-14.0,-14.0,0.782
-6.0,-15.0,0.783
1.0,-7.0,0.784
1.0,8.0,0.785
-3.0,22.0,0.786
-3.0,30.0,0.787
2.0,28.0,0.788
6.0,13.0,0.789
6.0,-11.0,0.79
6.0,-24.0,0.791
9.0,-11.0,0.792
8.0,18.0,0.793
7.0,46.0,0.794
9.0,66.0,0.795
12.0,72.0,0.796
14.0,51.0,0.797
10.0,-2.0,0.798
5.0,-52.0,0.799
2.0,-86.0,0.8
1.0,-64.0,0.801
4.0,-44.0,0.802
9.0,-26.0,0.803
12.0,-8.0,0.804
8.0,10.0,0.805
0.0,28.0,0.806
-4.0,40.0,0.807
-2.0,48.0,0.808
-3.0,46.0,0.809
-5.0,39.0,0.81
-5.0,16.0,0.811
0.0,-4.0,0.812
5.0,-14.0,0.813
2.0,-26.0,0.814
0.0,-40.0,0.815
-1.0,-50.0,0.816
1.0,-41.0,0.817
-1.0,-30.0,0.818
-2.0,-15.0,0.819
-3.0,0.0,0.82
-4.0,8.0,0.821
-3.0,9.0,0.822
6.0,5.0,0.823
13.0,6.0,0.824
8.0,11.0,0.825
3.0,11.0,0.826
0.0,5.0,0.827
-3.0,5.0,0.828
-3.0,11.0,0.829
-4.0,15.0,0.83
-3.0,11.0,0.831
-2.0,7.0,0.832
-2.0,9.0,0.833
0.0,13.0,0.834
4.0,13.0,0.835
6.0,11.0,0.836
4.0,11.0,0.837
1.0,9.0,0.838
0.0,4.0,0.839
0.0,-4.0,0.84
-3.0,-12.0,0.841
-2.0,-16.0,0.842
3.0,-18.0,0.843
9.0,-19.0,0.844
6.0,-17.0,0.845
0.0,-11.0,0.846
-2.0,-9.0,0.847
1.0,-15.0,0.848
3.0,-20.0,0.849
1.0,-14.0,0.85
0.0,0.0,0.851
3.0,12.0,0.852
7.0,25.0,0.853
10.0,46.0,0.854
12.0,73.0,0.855
13.0,87.0,0.856
13.0,66.0,0.857
10.0,-2.0,0.858
8.0,-84.0,0.859
4.0,-131.0,0.86
-2.0,-117.0,0.861
-3.0,-64.0,0.862
1.0,-15.0,0.863
8.0,4.0,0.864
8.0,3.0,0.865
2.0,3.0,0.866
-3.0,8.0,0.867
-3.0,12.0,0.868
-2.0,11.0,0.869
-4.0,6.0,0.87
-5.0,3.0,0.871
-1.0,8.0,0.872
4.0,10.0,0.873
8.0,7.0,0.874
9.0,3.0,0.875
8.0,9.0,0.876
11.0,20.0,0.877
11.0,27.0,0.878
8.0,26.0,0.879
3.0,19.0,0.88
0.0,9.0,0.881
0.0,6.0,0.882
1.0,9.0,0.883
3.0,13.0,0.884
-2.0,13.0,0.885
-10.0,10.0,0.886
-17.0,9.0,0.887
-14.0,10.0,0.888
-9.0,9.0,0.889
-8.0,9.0,0.89
-5.0,10.0,0.891
1.0,12.0,0.892
7.0,10.0,0.893
3.0,1.0,0.894
0.0,-9.0,0.895
3.0,-22.0,0.896
10.0,-31.0,0.897
12.0,-40.0,0.898
8.0,-41.0,0.899
6.0,-36.0,0.9
5.0,-29.0,0.901
3.0,-19.0,0.902
4.0,-8.0,0.903
8.0,0.0,0.904
10.0,3.0,0.905
1.0,2.0,0.906
-7.0,2.0,0.907
-7.0,2.0,0.908
-5.0,3.0,0.909
-7.0,2.0,0.91
-9.0,-3.0,0.911
-4.0,-10.0,0.912
3.0,-14.0,0.913
7.0,-12.0,0.914
6.0,-7.0,0.915
10.0,-3.0,0.916
13.0,3.0,0.917
9.0,16.0,0.918
5.0,33.0,0.919
3.0,46.0,0.92
5.0,49.0,0.921
5.0,36.0,0.922
6.0,8.0,0.923
11.0,-15.0,0.924
13.0,-18.0,0.925
7.0,-6.0,0.926
-2.0,-1.0,0.927
-3.0,-9.0,0.928
0.0,-14.0,0.929
2.0,-9.0,0.93
2.0,-6.0,0.931
7.0,-8.0,0.932
11.0,-2.0,0.933
11.0,20.0,0.934
5.0,44.0,0.935
3.0,49.0,0.936
5.0,35.0,0.937
2.0,10.0,0.938
-3.0,-9.0,0.939
-10.0,-17.0,0.94
-13.0,-20.0,0.941
-11.0,-24.0,0.942
-4.0,-34.0,0.943
2.0,-42.0,0.944
3.0,-42.0,0.945
0.0,-35.0,0.946
0.0,-26.0,0.947
4.0,-11.0,0.948
8.0,11.0,0.949
5.0,21.0,0.95
3.0,4.0,0.951
7.0,-24.0,0.952
8.0,-36.0,0.953
4.0,-30.0,0.954
3.0,-26.0,0.955
7.0,-29.0,0.956
12.0,-23.0,0.957
6.0,-4.0,0.958
-1.0,15.0,0.959
-4.0,25.0,0.96
-2.0,24.0,0.961
0.0,22.0,0.962
6.0,23.0,0.963
12.0,30.0,0.964
10.0,47.0,0.965
0.0,58.0,0.966
-7.0,47.0,0.967
-5.0,22.0,0.968
-1.0,4.0,0.969
-1.0,1.0,0.97
-1.0,-3.0,0.971
3.0,-13.0,0.972
9.0,-20.0,0.973
11.0,-19.0,0.974
10.0,-14.0,0.975
9.0,-12.0,0.976
9.0,-10.0,0.977
7.0,-8.0,0.978
4.0,-6.0,0.979
0.0,-8.0,0.98
-3.0,-11.0,0.981
-1.0,-5.0,0.982
1.0,8.0,0.983
3.0,12.0,0.984
3.0,11.0,0.985
-2.0,9.0,0.986
-8.0,10.0,0.987
-10.0,10.0,0.988
-8.0,8.0,0.989
-2.0,3.0,0.99
3.0,-4.0,0.991
4.0,-10.0,0.992
0.0,-10.0,0.993
-2.0,-6.0,0.994
1.0,-7.0,0.995
8.0,-13.0,0.996
9.0,-11.0,0.997
8.0,-3.0,0.998
7.0,0.0,0.999
4.0,-6.0,1.0
-1.0,-12.0,1.001
-4.0,-6.0,1.002
0.0,6.0,1.003
11.0,17.0,1.004
12.0,28.0,1.005
4.0,31.0,1.006
0.0,10.0,1.007
0.0,-25.0,1.008
-1.0,-40.0,1.009
-7.0,-15.0,1.01
-10.0,21.0,1.011
-3.0,33.0,1.012
5.0,12.0,1.013
9.0,-19.0,1.014
10.0,-40.0,1.015
11.0,-42.0,1.016
9.0,-17.0,1.017
3.0,28.0,1.018
-2.0,68.0,1.019
-4.0,77.0,1.02
-5.0,53.0,1.021
-4.0,23.0,1.022
0.0,-4.0,1.023
6.0,-40.0,1.024
7.0,-78.0,1.025
4.0,-98.0,1.026
6.0,-85.0,1.027
7.0,-50.0,1.028
5.0,-15.0,1.029
4.0,7.0,1.03
8.0,18.0,1.031
16.0,13.0,1.032
15.0,0.0,1.033
9.0,-10.0,1.034
6.0,-10.0,1.035
4.0,-9.0,1.036
1.0,-12.0,1.037
-4.0,-16.0,1.038
-7.0,-8.0,1.039
-9.0,7.0,1.04
-16.0,14.0,1.041
-20.0,14.0,1.042
-13.0,14.0,1.043
3.0,16.0,1.044
9.0,17.0,1.045
3.0,17.0,1.046
0.0,19.0,1.047
6.0,19.0,1.048
8.0,14.0,1.049
2.0,9.0,1.05
0.0,9.0,1.051
5.0,10.0,1.052
12.0,6.0,1.053
14.0,1.0,1.054
14.0,0.0,1.055
14.0,0.0,1.056
17.0,-1.0,1.057
15.0,-4.0,1.058
10.0,-1.0,1.059
0.0,5.0,1.06
-5.0,5.0,1.061
-6.0,2.0,1.062
-1.0,2.0,1.063
4.0,7.0,1.064
1.0,13.0,1.065
-5.0,14.0,1.066
-7.0,13.0,1.067
-2.0,11.0,1.068
1.0,12.0,1.069
0.0,15.0,1.07
-1.0,24.0,1.071
0.0,38.0,1.072
3.0,41.0,1.073
4.0,20.0,1.074
5.0,-16.0,1.075
6.0,-42.0,1.076
6.0,-50.0,1.077
4.0,-7.0,1.078
3.0,-1.0,1.079
0.0,3.0,1.08
0.0,2.0,1.081
0.0,4.0,1.082
3.0,20.0,1.083
7.0,36.0,1.084
5.0,51.0,1.085
-2.0,59.0,1.086
-5.0,35.0,1.087
-6.0,10.0,1.088
-3.0,-19.0,1.089
1.0,-46.0,1.09
5.0,-65.0,1.091
6.0,-79.0,1.092
5.0,-68.0,1.093
4.0,-49.0,1.094
5.0,-4.0,1.095
7.0,29.0,1.096
8.0,26.0,1.097
8.0,-4.0,1.098
11.0,-2.0,1.099
11.0,0.0,1.1
5.0,-1.0,1.101
-3.0,0.0,1.102
-4.0,7.0,1.103
0.0,14.0,1.104
2.0,21.0,1.105
0.0,24.0,1.106
-4.0,14.0,1.107
-4.0,3.0,1.108
-2.0,-9.0,1.109
-1.0,-20.0,1.11
1.0,-29.0,1.111
5.0,-35.0,1.112
10.0,-30.0,1.113
14.0,-22.0,1.114
13.0,-2.0,1.115
9.0,11.0,1.116
6.0,10.0,1.117
3.0,-7.0,1.118
1.0,-1.0,1.119
-2.0,3.0,1.12
-7.0,2.0,1.121
-10.0,4.0,1.122
-8.0,19.0,1.123
-4.0,34.0,1.124
-5.0,48.0,1.125
-7.0,55.0,1.126
-7.0,33.0,1.127
-5.0,10.0,1.128
-3.0,-18.0,1.129
0.0,-43.0,1.13
4.0,-61.0,1.131
10.0,-74.0,1.132
11.0,-64.0,1.133
8.0,-46.0,1.134
9.0,-4.0,1.135
11.0,27.0,1.136
13.0,25.0,1.137
12.0,11.0,1.138
12.0,-34.0,1.139
8.0,-52.0,1.14
0.0,-34.0,1.141
-5.0,-6.0,1.142
0.0,12.0,1.143
9.0,25.0,1.144
10.0,35.0,1.145
3.0,35.0,1.146
0.0,18.0,1.147
2.0,2.0,1.148
6.0,-2.0,1.149
7.0,-2.0,1.15
11.0,-9.0,1.151
13.0,-17.0,1.152
11.0,-13.0,1.153
4.0,-2.0,1.154
-1.0,7.0,1.155
-2.0,11.0,1.156
-1.0,16.0,1.157
-1.0,18.0,1.158
0.0,17.0,1.159
1.0,14.0,1.16
-1.0,6.0,1.161
-5.0,-1.0,1.162
-5.0,-7.0,1.163
-3.0,-10.0,1.164
-2.0,-3.0,1.165
-4.0,2.0,1.166
-6.0,1.0,1.167
-6.0,1.0,1.168
-3.0,5.0,1.169
0.0,7.0,1.17
7.0,1.0,1.171
13.0,-3.0,1.172
12.0,-4.0,1.173
6.0,-5.0,1.174
3.0,-7.0,1.175
6.0,-9.0,1.176
8.0,-5.0,1.177
5.0,-1.0,1.178
1.0,-6.0,1.179
0.0,-12.0,1.18
-3.0,-8.0,1.181
-7.0,9.0,1.182
-3.0,25.0,1.183
5.0,27.0,1.184
9.0,24.0,1.185
1.0,23.0,1.186
-8.0,17.0,1.187
-7.0,4.0,1.188
1.0,-8.0,1.189
5.0,-7.0,1.19
2.0,17.0,1.191
1.0,44.0,1.192
5.0,50.0,1.193
9.0,23.0,1.194
11.0,-20.0,1.195
11.0,-55.0,1.196
11.0,-72.0,1.197
10.0,-79.0,1.198
5.0,-78.0,1.199
2.0,-60.0,1.2
-1.0,-33.0,1.201
-2.0,-9.0,1.202
-1.0,-1.0,1.203
1.0,-4.0,1.204
1.0,-4.0,1.205
-5.0,1.0,1.206
-10.0,8.0,1.207
-9.0,13.0,1.208
-5.0,20.0,1.209
-4.0,30.0,1.21
-4.0,31.0,1.211
-2.0,19.0,1.212
0.0,-1.0,1.213
0.0,-16.0,1.214
3.0,-25.0,1.215
13.0,-33.0,1.216
23.0,-39.0,1.217
21.0,-35.0,1.218
10.0,-11.0,1.219
0.0,25.0,1.22
0.0,45.0,1.221
1.0,41.0,1.222
4.0,25.0,1.223
6.0,22.0,1.224
5.0,34.0,1.225
-1.0,41.0,1.226
-7.0,26.0,1.227
-6.0,1.0,1.228
0.0,-3.0,1.229
7.0,13.0,1.23
11.0,27.0,1.231
14.0,21.0,1.232
15.0,6.0,1.233
14.0,-6.0,1.234
14.0,-12.0,1.235
15.0,-17.0,1.236
16.0,-17.0,1.237
11.0,-16.0,1.238
4.0,-18.0,1.239
-3.0,-18.0,1.24
-6.0,-12.0,1.241
-6.0,-6.0,1.242
-2.0,3.0,1.243
2.0,12.0,1.244
1.0,20.0,1.245
-4.0,25.0,1.246
-6.0,16.0,1.247
-3.0,5.0,1.248
-2.0,-11.0,1.249
0.0,-21.0,1.25
3.0,-10.0,1.251
8.0,-2.0,1.252
7.0,-2.0,1.253
4.0,-1.0,1.254
4.0,0.0,1.255
9.0,2.0,1.256
11.0,1.0,1.257
5.0,-1.0,1.258
-1.0,-4.0,1.259
-6.0,-7.0,1.26
-10.0,-16.0,1.261
-11.0,-23.0,1.262
-5.0,-20.0,1.263
2.0,-8.0,1.264
4.0,8.0,1.265
0.0,23.0,1.266
-4.0,28.0,1.267
-4.0,16.0,1.268
-3.0,-13.0,1.269
-5.0,-36.0,1.27
-3.0,-36.0,1.271
4.0,-16.0,1.272
8.0,7.0,1.273
6.0,29.0,1.274
5.0,49.0,1.275
9.0,55.0,1.276
13.0,42.0,1.277
8.0,22.0,1.278
1.0,-2.0,1.279
-1.0,-21.0,1.28
1.0,-52.0,1.281
3.0,-89.0,1.282
5.0,-111.0,1.283
8.0,-102.0,1.284
9.0,-67.0,1.285
2.0,-20.0,1.286
-3.0,22.0,1.287
-4.0,43.0,1.288
0.0,30.0,1.289
2.0,4.0,1.29
1.0,-4.0,1.291
0.0,9.0,1.292
3.0,20.0,1.293
7.0,17.0,1.294
9.0,13.0,1.295
8.0,23.0,1.296
9.0,34.0,1.297
12.0,28.0,1.298
15.0,17.0,1.299
9.0,16.0,1.3
1.0,14.0,1.301
-3.0,7.0,1.302
-2.0,-1.0,1.303
-2.0,-1.0,1.304
-5.0,6.0,1.305
-5.0,12.0,1.306
-4.0,14.0,1.307
-2.0,18.0,1.308
-4.0,22.0,1.309
-5.0,22.0,1.31
-3.0,17.0,1.311
1.0,14.0,1.312
2.0,9.0,1.313
1.0,0.0,1.314
-2.0,-9.0,1.315
0.0,-13.0,1.316
3.0,-8.0,1.317
6.0,-5.0,1.318
5.0,-7.0,1.319
2.0,-13.0,1.32
-3.0,-12.0,1.321
-4.0,0.0,1.322
1.0,10.0,1.323
7.0,9.0,1.324
7.0,0.0,1.325
3.0,-8.0,1.326
2.0,-13.0,1.327
4.0,-16.0,1.328
4.0,-16.0,1.329
2.0,-17.0,1.33
1.0,-23.0,1.331
3.0,-33.0,1.332
2.0,-39.0,1.333
1.0,-29.0,1.334
5.0,-5.0,1.335
10.0,22.0,1.336
13.0,38.0,1.337
10.0,41.0,1.338
9.0,35.0,1.339
4.0,22.0,1.34
-2.0,-7.0,1.341
-6.0,-27.0,1.342
-1.0,-16.0,1.343
9.0,-5.0,1.344
13.0,4.0,1.345
5.0,3.0,1.346
0.0,-29.0,1.347
1.0,-48.0,1.348
2.0,-27.0,1.349
1.0,-4.0,1.35
2.0,25.0,1.351
5.0,47.0,1.352
7.0,49.0,1.353
7.0,41.0,1.354
9.0,1.0,1.355
12.0,-31.0,1.356
11.0,-40.0,1.357
8.0,-50.0,1.358
3.0,-63.0,1.359
-3.0,-64.0,1.36
-10.0,-36.0,1.361
-9.0,10.0,1.362
-1.0,42.0,1.363
5.0,53.0,1.364
1.0,59.0,1.365
-3.0,60.0,1.366
-2.0,54.0,1.367
3.0,40.0,1.368
4.0,28.0,1.369
3.0,21.0,1.37
2.0,19.0,1.371
3.0,20.0,1.372
3.0,16.0,1.373
1.0,-1.0,1.374
0.0,-25.0,1.375
-1.0,-39.0,1.376
0.0,-38.0,1.377
0.0,-40.0,1.378
-1.0,-53.0,1.379
-7.0,-64.0,1.38
-14.0,-63.0,1.381
-15.0,-50.0,1.382
-7.0,-33.0,1.383
2.0,-20.0,1.384
5.0,-10.0,1.385
5.0,0.0,1.386
8.0,8.0,1.387
10.0,17.0,1.388
7.0,17.0,1.389
0.0,13.0,1.39
1.0,10.0,1.391
11.0,11.0,1.392
20.0,11.0,1.393
21.0,9.0,1.394
17.0,7.0,1.395
13.0,11.0,1.396
11.0,14.0,1.397
5.0,-3.0,1.398
0.0,11.0,1.399
-4.0,19.0,1.4
-5.0,6.0,1.401
-4.0,-3.0,1.402
-2.0,-3.0,1.403
0.0,-3.0,1.404
-2.0,-2.0,1.405
-8.0,-5.0,1.406
-10.0,-28.0,1.407
-5.0,-43.0,1.408
1.0,-32.0,1.409
3.0,-24.0,1.41
1.0,-24.0,1.411
1.0,-19.0,1.412
3.0,-3.0,1.413
4.0,10.0,1.414
8.0,13.0,1.415
11.0,14.0,1.416
12.0,10.0,1.417
7.0,0.0,1.418
1.0,28.0,1.419
0.0,44.0,1.42
-1.0,18.0,1.421
-3.0,-1.0,1.422
0.0,-1.0,1.423
8.0,-1.0,1.424
13.0,2.0,1.425
8.0,-6.0,1.426
2.0,-52.0,1.427
4.0,-82.0,1.428
7.0,-60.0,1.429
3.0,-43.0,1.43
-3.0,-43.0,1.431
-4.0,-34.0,1.432
-2.0,0.0,1.433
0.0,26.0,1.434
5.0,31.0,1.435
11.0,34.0,1.436
12.0,26.0,1.437
7.0,19.0,1.438
1.0,21.0,1.439
-2.0,24.0,1.44
-2.0,24.0,1.441
-2.0,16.0,1.442
0.0,-2.0,1.443
6.0,-20.0,1.444
6.0,-16.0,1.445
0.0,2.0,1.446
-3.0,15.0,1.447
1.0,10.0,1.448
5.0,-1.0,1.449
1.0,-6.0,1.45
-2.0,-8.0,1.451
0.0,-14.0,1.452
0.0,-18.0,1.453
-4.0,-17.0,1.454
-5.0,-16.0,1.455
0.0,-17.0,1.456
6.0,-11.0,1.457
7.0,3.0,1.458
5.0,15.0,1.459
0.0,14.0,1.46
-5.0,6.0,1.461
-8.0,9.0,1.462
-2.0,22.0,1.463
6.0,30.0,1.464
7.0,19.0,1.465
0.0,-6.0,1.466
-4.0,-26.0,1.467
0.0,-30.0,1.468
7.0,-19.0,1.469
8.0,-9.0,1.47
8.0,-3.0,1.471
10.0,0.0,1.472
11.0,-1.0,1.473
8.0,-3.0,1.474
4.0,-5.0,1.475
7.0,-2.0,1.476
11.0,6.0,1.477
7.0,-8.0,1.478
2.0,-6.0,1.479
-2.0,-4.0,1.48
-4.0,-5.0,1.481
-6.0,-6.0,1.482
-3.0,-7.0,1.483
4.0,-8.0,1.484
9.0,-9.0,1.485
4.0,-8.0,1.486
0.0,-2.0,1.487
3.0,2.0,1.488
10.0,0.0,1.489
9.0,-2.0,1.49
3.0,-2.0,1.491
1.0,-1.0,1.492
2.0,0.0,1.493
1.0,0.0,1.494
0.0,2.0,1.495
0.0,6.0,1.496
3.0,17.0,1.497
7.0,-12.0,1.498
10.0,-8.0,1.499
10.0,-5.0,1.5
5.0,-7.0,1.501
2.0,-9.0,1.502
6.0,-10.0,1.503
11.0,-12.0,1.504
6.0,-13.0,1.505
-5.0,-12.0,1.506
-11.0,-2.0,1.507
-7.0,5.0,1.508
-1.0,2.0,1.509
-2.0,-1.0,1.51
-4.0,-1.0,1.511
-1.0,0.0,1.512
3.0,1.0,1.513
4.0,2.0,1.514
7.0,4.0,1.515
11.0,11.0,1.516
14.0,27.0,1.517
9.0,45.0,1.518
2.0,52.0,1.519
-3.0,32.0,1.52
-4.0,-14.0,1.521
-4.0,-45.0,1.522
-1.0,-40.0,1.523
5.0,-16.0,1.524
6.0,-1.0,1.525
-1.0,-4.0,1.526
-7.0,-9.0,1.527
-4.0,-9.0,1.528
-2.0,-7.0,1.529
-5.0,-8.0,1.53
-9.0,-9.0,1.531
-5.0,-8.0,1.532
6.0,-5.0,1.533
15.0,-4.0,1.534
16.0,-5.0,1.535
12.0,-5.0,1.536
6.0,-4.0,1.537
4.0,-4.0,1.538
6.0,-2.0,1.539
2.0,3.0,1.54
-9.0,17.0,1.541
-18.0,28.0,1.542
-9.0,25.0,1.543
8.0,19.0,1.544
13.0,7.0,1.545
-1.0,-4.0,1.546
-10.0,-8.0,1.547
-1.0,-12.0,1.548
11.0,-12.0,1.549
10.0,-8.0,1.55
3.0,1.0,1.551
4.0,9.0,1.552
11.0,10.0,1.553
13.0,11.0,1.554
11.0,9.0,1.555
11.0,7.0,1.556
10.0,3.0,1.557
6.0,-1.0,1.558
0.0,-2.0,1.559
-6.0,-6.0,1.56
-13.0,-13.0,1.561
-14.0,-20.0,1.562
-6.0,-26.0,1.563
5.0,-27.0,1.564
5.0,-18.0,1.565
-3.0,-6.0,1.566
-9.0,-2.0,1.567
-4.0,-6.0,1.568
3.0,-3.0,1.569
7.0,9.0,1.57
8.0,22.0,1.571
11.0,23.0,1.572
11.0,20.0,1.573
7.0,18.0,1.574
4.0,15.0,1.575
2.0,9.0,1.576
0.0,4.0,1.577
-4.0,0.0,1.578
-3.0,-3.0,1.579
0.0,-4.0,1.58
0.0,-6.0,1.581
-2.0,-3.0,1.582
-2.0,0.0,1.583
-1.0,1.0,1.584
-4.0,5.0,1.585
-4.0,8.0,1.586
14.0,6.0,1.587
39.0,-1.0,1.588
55.0,-8.0,1.589
48.0,-12.0,1.59
30.0,-15.0,1.591
10.0,-12.0,1.592
-15.0,-7.0,1.593
-42.0,-4.0,1.594
-52.0,-6.0,1.595
-34.0,-8.0,1.596
-4.0,-7.0,1.597
17.0,-2.0,1.598
15.0,0.0,1.599
0.0,1.0,1.6
-11.0,0.0,1.601
-15.0,3.0,1.602
-12.0,4.0,1.603
-1.0,4.0,1.604
8.0,5.0,1.605
6.0,10.0,1.606
-6.0,10.0,1.607
-12.0,2.0,1.608
-6.0,-9.0,1.609
3.0,-15.0,1.61
8.0,-17.0,1.611
13.0,-16.0,1.612
25.0,-12.0,1.613
33.0,-5.0,1.614
28.0,0.0,1.615
13.0,1.0,1.616
6.0,3.0,1.617
5.0,7.0,1.618
4.0,13.0,1.619
-7.0,17.0,1.62
-12.0,15.0,1.621
-2.0,13.0,1.622
12.0,12.0,1.623
13.0,10.0,1.624
-2.0,8.0,1.625
-16.0,5.0,1.626
-18.0,2.0,1.627
-12.0,-2.0,1.628
-6.0,-6.0,1.629
2.0,-9.0,1.63
12.0,-7.0,1.631
14.0,-6.0,1.632
5.0,-7.0,1.633
1.0,-8.0,1.634
8.0,-8.0,1.635
12.0,-7.0,1.636
9.0,-5.0,1.637
3.0,-3.0,1.638
1.0,2.0,1.639
-4.0,5.0,1.64
-16.0,2.0,1.641
-23.0,-2.0,1.642
-15.0,-5.0,1.643
2.0,-1.0,1.644
9.0,3.0,1.645
2.0,4.0,1.646
-9.0,0.0,1.647
-17.0,-4.0,1.648
-23.0,-3.0,1.649
-25.0,-3.0,1.65
-16.0,-5.0,1.651
5.0,-6.0,1.652
29.0,-4.0,1.653
46.0,-3.0,1.654
53.0,-6.0,1.655
44.0,-8.0,1.656
24.0,-2.0,1.657
-2.0,3.0,1.658
-16.0,5.0,1.659
-12.0,3.0,1.66
-6.0,-1.0,1.661
-9.0,0.0,1.662
-9.0,1.0,1.663
4.0,2.0,1.664
12.0,4.0,1.665
1.0,7.0,1.666
-7.0,9.0,1.667
1.0,7.0,1.668
15.0,6.0,1.669
14.0,7.0,1.67
3.0,8.0,1.671
4.0,8.0,1.672
12.0,5.0,1.673
10.0,0.0,1.674
3.0,-5.0,1.675
5.0,-10.0,1.676
13.0,-11.0,1.677
10.0,-14.0,1.678
2.0,-16.0,1.679
1.0,-16.0,1.68
-1.0,-14.0,1.681
-6.0,-11.0,1.682
-11.0,-10.0,1.683
-12.0,-8.0,1.684
-16.0,-2.0,1.685
-21.0,3.0,1.686
-17.0,6.0,1.687
0.0,4.0,1.688
17.0,3.0,1.689
24.0,1.0,1.69
30.0,0.0,1.691
32.0,1.0,1.692
19.0,6.0,1.693
0.0,10.0,1.694
-1.0,6.0,1.695
13.0,2.0,1.696
19.0,2.0,1.697
2.0,0.0,1.698
-11.0,-2.0,1.699
-8.0,-5.0,1.7
-5.0,-6.0,1.701
-11.0,-6.0,1.702
-12.0,-2.0,1.703
-4.0,1.0,1.704
0.0,1.0,1.705
-7.0,1.0,1.706
-12.0,1.0,1.707
-5.0,1.0,1.708
1.0,-1.0,1.709
0.0,-4.0,1.71
1.0,-5.0,1.711
7.0,-6.0,1.712
10.0,-6.0,1.713
5.0,-5.0,1.714
1.0,-4.0,1.715
5.0,-3.0,1.716
11.0,-2.0,1.717
13.0,0.0,1.718
10.0,3.0,1.719
3.0,3.0,1.72
-6.0,-1.0,1.721
-10.0,0.0,1.722
-3.0,4.0,1.723
6.0,10.0,1.724
5.0,13.0,1.725
-2.0,14.0,1.726
-3.0,16.0,1.727
2.0,17.0,1.728
3.0,17.0,1.729
0.0,13.0,1.73
0.0,0.0,1.731
4.0,-13.0,1.732
8.0,-19.0,1.733
5.0,-15.0,1.734
4.0,-10.0,1.735
6.0,-9.0,1.736
8.0,-7.0,1.737
5.0,-5.0,1.738
3.0,0.0,1.739
0.0,3.0,1.74
-3.0,4.0,1.741
-4.0,9.0,1.742
1.0,11.0,1.743
8.0,9.0,1.744
8.0,6.0,1.745
1.0,5.0,1.746
-4.0,5.0,1.747
-4.0,-4.0,1.748
-2.0,-15.0,1.749
-2.0,-22.0,1.75
-1.0,-19.0,1.751
1.0,-13.0,1.752
3.0,-10.0,1.753
4.0,-9.0,1.754
4.0,-8.0,1.755
3.0,-7.0,1.756
2.0,-2.0,1.757
3.0,1.0,1.758
5.0,2.0,1.759
0.0,3.0,1.76
-8.0,2.0,1.761
-12.0,3.0,1.762
-6.0,5.0,1.763
5.0,10.0,1.764
6.0,14.0,1.765
1.0,14.0,1.766
1.0,7.0,1.767
7.0,0.0,1.768
8.0,-2.0,1.769
2.0,-3.0,1.77
2.0,-6.0,1.771
8.0,-10.0,1.772
10.0,-10.0,1.773
5.0,-3.0,1.774
1.0,3.0,1.775
1.0,2.0,1.776
3.0,0.0,1.777
2.0,-3.0,1.778
0.0,-1.0,1.779
-2.0,-1.0,1.78
-2.0,-5.0,1.781
-3.0,-9.0,1.782
1.0,-9.0,1.783
9.0,-6.0,1.784
9.0,1.0,1.785
2.0,6.0,1.786
0.0,3.0,1.787
2.0,1.0,1.788
6.0,3.0,1.789
4.0,5.0,1.79
3.0,3.0,1.791
6.0,2.0,1.792
6.0,2.0,1.793
4.0,3.0,1.794
1.0,2.0,1.795
4.0,1.0,1.796
9.0,1.0,1.797
9.0,2.0,1.798
7.0,1.0,1.799
4.0,-1.0,1.8
2.0,-3.0,1.801
1.0,2.0,1.802
3.0,7.0,1.803
6.0,8.0,1.804
4.0,9.0,1.805
-2.0,10.0,1.806
-3.0,9.0,1.807
1.0,4.0,1.808
4.0,1.0,1.809
1.0,1.0,1.81
-1.0,3.0,1.811
3.0,1.0,1.812
6.0,0.0,1.813
4.0,-1.0,1.814
1.0,-1.0,1.815
4.0,-3.0,1.816
8.0,-3.0,1.817
8.0,-5.0,1.818
3.0,-6.0,1.819
-1.0,-6.0,1.82
-4.0,-9.0,1.821
-9.0,-7.0,1.822
-8.0,-4.0,1.823
-2.0,1.0,1.824
2.0,7.0,1.825
-1.0,11.0,1.826
-5.0,6.0,1.827
-5.0,-4.0,1.828
-3.0,-10.0,1.829
-3.0,-11.0,1.83
-3.0,-13.0,1.831
-1.0,-14.0,1.832
0.0,-16.0,1.833
2.0,-15.0,1.834
5.0,-15.0,1.835
8.0,-15.0,1.836
9.0,-11.0,1.837
7.0,-8.0,1.838
2.0,-3.0,1.839
-2.0,0.0,1.84
-7.0,0.0,1.841
-7.0,5.0,1.842
-2.0,8.0,1.843
6.0,9.0,1.844
8.0,10.0,1.845
2.0,13.0,1.846
-1.0,12.0,1.847
0.0,7.0,1.848
2.0,5.0,1.849
3.0,10.0,1.85
5.0,13.0,1.851
10.0,11.0,1.852
12.0,11.0,1.853
10.0,14.0,1.854
8.0,18.0,1.855
10.0,15.0,1.856
14.0,9.0,1.857
16.0,4.0,1.858
16.0,-1.0,1.859
7.0,-7.0,1.86
-3.0,-15.0,1.861
-8.0,-21.0,1.862
-5.0,-23.0,1.863
0.0,-25.0,1.864
-2.0,-22.0,1.865
-7.0,-18.0,1.866
-9.0,-14.0,1.867
-4.0,-10.0,1.868
0.0,-8.0,1.869
5.0,-5.0,1.87
10.0,-2.0,1.871
12.0,1.0,1.872
10.0,2.0,1.873
12.0,3.0,1.874
15.0,1.0,1.875
14.0,0.0,1.876
10.0,0.0,1.877
4.0,1.0,1.878
3.0,7.0,1.879
2.0,9.0,1.88
-4.0,3.0,1.881
-6.0,1.0,1.882
-1.0,5.0,1.883
4.0,8.0,1.884
1.0,10.0,1.885
-5.0,12.0,1.886
-9.0,11.0,1.887
-7.0,5.0,1.888
-4.0,2.0,1.889
-3.0,3.0,1.89
-2.0,5.0,1.891
-1.0,1.0,1.892
1.0,-2.0,1.893
6.0,-1.0,1.894
12.0,0.0,1.895
12.0,-2.0,1.896
10.0,-4.0,1.897
8.0,-5.0,1.898
7.0,-4.0,1.899
3.0,-3.0,1.9
-3.0,-6.0,1.901
-4.0,-6.0,1.902
0.0,-2.0,1.903
4.0,0.0,1.904
2.0,2.0,1.905
-2.0,4.0,1.906
-3.0,4.0,1.907
0.0,1.0,1.908
1.0,-3.0,1.909
0.0,-4.0,1.91
0.0,-3.0,1.911
3.0,-3.0,1.912
6.0,-2.0,1.913
7.0,-2.0,1.914
7.0,1.0,1.915
9.0,2.0,1.916
8.0,4.0,1.917
6.0,4.0,1.918
4.0,5.0,1.919
1.0,3.0,1.92
-2.0,-4.0,1.921
-6.0,-7.0,1.922
-4.0,-7.0,1.923
1.0,-10.0,1.924
3.0,-11.0,1.925
-2.0,-9.0,1.926
-7.0,-5.0,1.927
-6.0,-4.0,1.928
-1.0,-6.0,1.929
2.0,-6.0,1.93
1.0,-4.0,1.931
2.0,-2.0,1.932
5.0,-2.0,1.933
5.0,-2.0,1.934
3.0,0.0,1.935
4.0,2.0,1.936
8.0,3.0,1.937
9.0,2.0,1.938
6.0,3.0,1.939
1.0,4.0,1.94
1.0,3.0,1.941
3.0,2.0,1.942
4.0,4.0,1.943
6.0,6.0,1.944
3.0,6.0,1.945
-2.0,5.0,1.946
-4.0,2.0,1.947
0.0,-1.0,1.948
5.0,-1.0,1.949
8.0,-1.0,1.95
4.0,-1.0,1.951
1.0,-2.0,1.952
1.0,-2.0,1.953
5.0,-1.0,1.954
9.0,-1.0,1.955
8.0,-2.0,1.956
9.0,0.0,1.957
5.0,2.0,1.958
3.0,5.0,1.959
-1.0,3.0,1.96
-4.0,-1.0,1.961
-4.0,-1.0,1.962
0.0,0.0,1.963
4.0,0.0,1.964
0.0,0.0,1.965
-6.0,0.0,1.966
-7.0,0.0,1.967
-2.0,-3.0,1.968
1.0,-7.0,1.969
3.0,-9.0,1.97
6.0,-5.0,1.971
8.0,-1.0,1.972
6.0,-3.0,1.973
3.0,-6.0,1.974
6.0,-4.0,1.975
11.0,-1.0,1.976
13.0,0.0,1.977
8.0,-1.0,1.978
2.0,0.0,1.979
-1.0,2.0,1.98
-1.0,2.0,1.981
-1.0,1.0,1.982
1.0,2.0,1.983
3.0,4.0,1.984
-3.0,5.0,1.985
-14.0,6.0,1.986
-17.0,4.0,1.987
-12.0,3.0,1.988
-6.0,5.0,1.989
-3.0,5.0,1.99
-4.0,0.0,1.991
-2.0,-5.0,1.992
0.0,-7.0,1.993
2.0,-9.0,1.994
5.0,-5.0,1.995
11.0,-2.0,1.996
12.0,-3.0,1.997
8.0,-4.0,1.998
4.0,-3.0,1.999
3.0,-2.0,2.0
2.0,-5.0,2.001
0.0,-6.0,2.002
2.0,-5.0,2.003
6.0,-1.0,2.004
6.0,6.0,2.005
3.0,10.0,2.006
3.0,8.0,2.007
8.0,3.0,2.008
9.0,-2.0,2.009
3.0,-4.0,2.01
3.0,-3.0,2.011
9.0,-1.0,2.012
11.0,0.0,2.013
7.0,0.0,2.014
3.0,-4.0,2.015
5.0,-6.0,2.016
9.0,-4.0,2.017
5.0,-2.0,2.018
1.0,0.0,2.019
-3.0,1.0,2.02
-5.0,1.0,2.021
-5.0,1.0,2.022
0.0,1.0,2.023
3.0,2.0,2.024
2.0,4.0,2.025
-3.0,5.0,2.026
-4.0,3.0,2.027
2.0,1.0,2.028
8.0,1.0,2.029
7.0,1.0,2.03
3.0,0.0,2.031
6.0,-2.0,2.032
8.0,-3.0,2.033
7.0,-4.0,2.034
7.0,-2.0,2.035
11.0,-1.0,2.036
15.0,-3.0,2.037
11.0,-5.0,2.038
3.0,-6.0,2.039
-3.0,-4.0,2.04
-6.0,-4.0,2.041
-7.0,-3.0,2.042
-3.0,-3.0,2.043
3.0,-1.0,2.044
6.0,3.0,2.045
1.0,6.0,2.046
-3.0,4.0,2.047
-1.0,1.0,2.048
1.0,1.0,2.049
-1.0,3.0,2.05
-4.0,4.0,2.051
-3.0,-1.0,2.052
0.0,-6.0,2.053
0.0,-7.0,2.054
-2.0,-5.0,2.055
-2.0,-4.0,2.056
0.0,-5.0,2.057
1.0,-6.0,2.058
1.0,-4.0,2.059
0.0,-1.0,2.06
-1.0,-2.0,2.061
-2.0,0.0,2.062
3.0,5.0,2.063
9.0,11.0,2.064
7.0,12.0,2.065
0.0,10.0,2.066
-4.0,5.0,2.067
-2.0,1.0,2.068
0.0,-4.0,2.069
2.0,-6.0,2.07
4.0,-6.0,2.071
9.0,-4.0,2.072
14.0,-3.0,2.073
15.0,-3.0,2.074
17.0,-4.0,2.075
16.0,-4.0,2.076
13.0,-5.0,2.077
3.0,-7.0,2.078
-2.0,-9.0,2.079
-4.0,-7.0,2.08
-8.0,-6.0,2.081
-9.0,-2.0,2.082
-5.0,3.0,2.083
0.0,5.0,2.084
1.0,5.0,2.085
-4.0,5.0,2.086
-6.0,3.0,2.087
-5.0,2.0,2.088
-2.0,4.0,2.089
-1.0,5.0,2.09
0.0,4.0,2.091
4.0,-2.0,2.092
9.0,-6.0,2.093
13.0,-6.0,2.094
15.0,-6.0,2.095
13.0,-6.0,2.096
10.0,-7.0,2.097
2.0,-1.0,2.098
-4.0,-1.0,2.099
-10.0,-2.0,2.1
-10.0,-2.0,2.101
-5.0,-3.0,2.102
-2.0,-5.0,2.103
-2.0,-6.0,2.104
-6.0,0.0,2.105
-7.0,4.0,2.106
-6.0,-2.0,2.107
-3.0,-9.0,2.108
2.0,-2.0,2.109
8.0,3.0,2.11
13.0,0.0,2.111
16.0,-1.0,2.112
16.0,-1.0,2.113
11.0,0.0,2.114
8.0,3.0,2.115
9.0,4.0,2.116
12.0,-1.0,2.117
10.0,-1.0,2.118
2.0,-1.0,2.119
-5.0,-2.0,2.12
-8.0,-2.0,2.121
-4.0,-3.0,2.122
0.0,-4.0,2.123
4.0,-5.0,2.124
6.0,0.0,2.125
5.0,3.0,2.126
5.0,-2.0,2.127
5.0,-7.0,2.128
3.0,-2.0,2.129
0.0,2.0,2.13
0.0,0.0,2.131
3.0,-1.0,2.132
6.0,-1.0,2.133
5.0,0.0,2.134
6.0,2.0,2.135
8.0,3.0,2.136
10.0,-1.0,2.137
3.0,-3.0,2.138
-5.0,-1.0,2.139
-9.0,1.0,2.14
-6.0,-3.0,2.141
-2.0,-6.0,2.142
2.0,-3.0,2.143
4.0,3.0,2.144
5.0,9.0,2.145
4.0,11.0,2.146
2.0,6.0,2.147
4.0,-2.0,2.148
10.0,-4.0,2.149
13.0,2.0,2.15
13.0,4.0,2.151
12.0,0.0,2.152
12.0,-5.0,2.153
8.0,-5.0,2.154
-1.0,-5.0,2.155
-5.0,-8.0,2.156
-5.0,-8.0,2.157
-6.0,-3.0,2.158
-8.0,2.0,2.159
-10.0,3.0,2.16
-10.0,-3.0,2.161
-8.0,-4.0,2.162
0.0,-1.0,2.163
10.0,1.0,2.164
9.0,1.0,2.165
-3.0,4.0,2.166
-14.0,6.0,2.167
-9.0,3.0,2.168
1.0,-1.0,2.169
2.0,-2.0,2.17
-4.0,0.0,2.171
-4.0,-1.0,2.172
4.0,-5.0,2.173
10.0,-5.0,2.174
7.0,-3.0,2.175
8.0,-2.0,2.176
14.0,-1.0,2.177
14.0,-1.0,2.178
9.0,-1.0,2.179
3.0,-1.0,2.18
0.0,-5.0,2.181
-2.0,-2.0,2.182
0.0,3.0,2.183
7.0,6.0,2.184
10.0,6.0,2.185
4.0,5.0,2.186
-1.0,5.0,2.187
2.0,3.0,2.188
9.0,0.0,2.189
8.0,-2.0,2.19
3.0,-4.0,2.191
5.0,-4.0,2.192
10.0,-5.0,2.193
8.0,-5.0,2.194
4.0,-5.0,2.195
6.0,-7.0,2.196
10.0,-3.0,2.197
8.0,0.0,2.198
2.0,2.0,2.199
-4.0,2.0,2.2
-10.0,-1.0,2.201
-10.0,0.0,2.202
-2.0,2.0,2.203
7.0,1.0,2.204
10.0,1.0,2.205
5.0,4.0,2.206
3.0,4.0,2.207
2.0,0.0,2.208
-1.0,-2.0,2.209
-6.0,-1.0,2.21
-6.0,-1.0,2.211
0.0,-3.0,2.212
4.0,-3.0,2.213
3.0,-3.0,2.214
6.0,-4.0,2.215
10.0,-5.0,2.216
11.0,-1.0,2.217
3.0,3.0,2.218
-1.0,3.0,2.219
-3.0,1.0,2.22
-5.0,0.0,2.221
-6.0,4.0,2.222
-1.0,3.0,2.223
7.0,0.0,2.224
6.0,0.0,2.225
0.0,2.0,2.226
-3.0,1.0,2.227
2.0,-4.0,2.228
7.0,-9.0,2.229
6.0,-10.0,2.23
4.0,-8.0,2.231
3.0,-8.0,2.232
1.0,-4.0,2.233
-1.0,3.0,2.234
-2.0,6.0,2.235
-2.0,3.0,2.236
2.0,0.0,2.237
7.0,1.0,2.238
7.0,5.0,2.239
2.0,7.0,2.24
-3.0,1.0,2.241
-4.0,-3.0,2.242
-2.0,-3.0,2.243
-1.0,-2.0,2.244
0.0,0.0,2.245
1.0,3.0,2.246
2.0,3.0,2.247
5.0,2.0,2.248
7.0,2.0,2.249
7.0,1.0,2.25
6.0,0.0,2.251
3.0,-2.0,2.252
4.0,-3.0,2.253
10.0,-5.0,2.254
12.0,-6.0,2.255
5.0,-8.0,2.256
-1.0,-7.0,2.257
-1.0,-5.0,2.258
5.0,-2.0,2.259
3.0,-3.0,2.26
-8.0,-6.0,2.261
-14.0,-4.0,2.262
-6.0,-3.0,2.263
4.0,0.0,2.264
3.0,6.0,2.265
-3.0,10.0,2.266
-5.0,8.0,2.267
-1.0,3.0,2.268
2.0,3.0,2.269
2.0,6.0,2.27
4.0,5.0,2.271
8.0,-1.0,2.272
8.0,-5.0,2.273
5.0,-2.0,2.274
4.0,2.0,2.275
6.0,2.0,2.276
6.0,3.0,2.277
0.0,2.0,2.278
-2.0,0.0,2.279
-3.0,-5.0,2.28
-1.0,-9.0,2.281
2.0,-6.0,2.282
9.0,-2.0,2.283
15.0,3.0,2.284
14.0,5.0,2.285
7.0,7.0,2.286
0.0,5.0,2.287
-3.0,3.0,2.288
-5.0,1.0,2.289
-7.0,-2.0,2.29
-7.0,-7.0,2.291
0.0,-10.0,2.292
8.0,-10.0,2.293
11.0,-9.0,2.294
12.0,-8.0,2.295
12.0,-9.0,2.296
12.0,-6.0,2.297
2.0,-4.0,2.298
-6.0,-3.0,2.299
-10.0,-2.0,2.3
-7.0,-3.0,2.301
-4.0,-4.0,2.302
-1.0,-4.0,2.303
4.0,-3.0,2.304
10.0,-1.0,2.305
10.0,1.0,2.306
8.0,0.0,2.307
11.0,-1.0,2.308
12.0,0.0,2.309
4.0,1.0,2.31
-8.0,0.0,2.311
-13.0,-2.0,2.312
-11.0,-2.0,2.313
-4.0,-2.0,2.314
2.0,-3.0,2.315
8.0,-4.0,2.316
12.0,-2.0,2.317
7.0,0.0,2.318
2.0,0.0,2.319
-2.0,-1.0,2.32
-2.0,0.0,2.321
-3.0,9.0,2.322
-1.0,13.0,2.323
0.0,12.0,2.324
-2.0,11.0,2.325
-4.0,11.0,2.326
-2.0,10.0,2.327
0.0,6.0,2.328
5.0,3.0,2.329
10.0,3.0,2.33
8.0,3.0,2.331
8.0,0.0,2.332
12.0,-4.0,2.333
15.0,-6.0,2.334
12.0,-4.0,2.335
9.0,-1.0,2.336
7.0,3.0,2.337
5.0,3.0,2.338
0.0,2.0,2.339
-2.0,-1.0,2.34
-1.0,-5.0,2.341
0.0,-3.0,2.342
4.0,0.0,2.343
12.0,4.0,2.344
15.0,7.0,2.345
9.0,5.0,2.346
6.0,0.0,2.347
9.0,-4.0,2.348
5.0,-6.0,2.349
-10.0,-8.0,2.35
-20.0,-9.0,2.351
-9.0,-9.0,2.352
9.0,-7.0,2.353
14.0,-7.0,2.354
9.0,-7.0,2.355
8.0,-9.0,2.356
13.0,-7.0,2.357
10.0,-6.0,2.358
0.0,-6.0,2.359
-11.0,-4.0,2.36
-16.0,-4.0,2.361
-15.0,-2.0,2.362
-7.0,0.0,2.363
0.0,3.0,2.364
-2.0,6.0,2.365
-10.0,6.0,2.366
-14.0,2.0,2.367
-9.0,-2.0,2.368
-3.0,-4.0,2.369
-3.0,-5.0,2.37
-2.0,-6.0,2.371
2.0,-7.0,2.372
6.0,-9.0,2.373
3.0,-9.0,2.374
3.0,-7.0,2.375
9.0,-3.0,2.376
14.0,3.0,2.377
11.0,4.0,2.378
7.0,2.0,2.379
4.0,2.0,2.38
2.0,3.0,2.381
-1.0,5.0,2.382
1.0,5.0,2.383
11.0,8.0,2.384
10.0,12.0,2.385
-1.0,12.0,2.386
-10.0,6.0,2.387
-5.0,0.0,2.388
4.0,-1.0,2.389
5.0,-2.0,2.39
5.0,-4.0,2.391
9.0,-5.0,2.392
14.0,-4.0,2.393
10.0,0.0,2.394
2.0,0.0,2.395
1.0,-1.0,2.396
5.0,-1.0,2.397
2.0,-2.0,2.398
-5.0,0.0,2.399
-8.0,0.0,2.4
-6.0,-2.0,2.401
-8.0,-3.0,2.402
-10.0,-3.0,2.403
-4.0,0.0,2.404
7.0,4.0,2.405
9.0,4.0,2.406
1.0,0.0,2.407
-2.0,-6.0,2.408
4.0,-7.0,2.409
8.0,-4.0,2.41
3.0,0.0,2.411
0.0,-1.0,2.412
8.0,-7.0,2.413
15.0,-8.0,2.414
15.0,-7.0,2.415
9.0,-4.0,2.416
10.0,-1.0,2.417
12.0,-3.0,2.418
9.0,-2.0,2.419
0.0,-1.0,2.42
-2.0,-3.0,2.421
-2.0,0.0,2.422
2.0,7.0,2.423
5.0,10.0,2.424
4.0,4.0,2.425
0.0,-1.0,2.426
-3.0,0.0,2.427
-3.0,4.0,2.428
-1.0,5.0,2.429
-2.0,3.0,2.43
-2.0,-1.0,2.431
2.0,-3.0,2.432
9.0,-2.0,2.433
12.0,0.0,2.434
10.0,1.0,2.435
8.0,-1.0,2.436
7.0,-4.0,2.437
2.0,-5.0,2.438
0.0,-2.0,2.439
0.0,0.0,2.44
0.0,-1.0,2.441
-2.0,-1.0,2.442
-1.0,2.0,2.443
0.0,4.0,2.444
-5.0,4.0,2.445
-16.0,2.0,2.446
-15.0,1.0,2.447
-5.0,0.0,2.448
4.0,-2.0,2.449
7.0,-1.0,2.45
11.0,0.0,2.451
17.0,-4.0,2.452
19.0,-7.0,2.453
17.0,-10.0,2.454
14.0,-10.0,2.455
11.0,-9.0,2.456
1.0,-7.0,2.457
-11.0,-3.0,2.458
-16.0,-1.0,2.459
-13.0,-2.0,2.46
-12.0,-4.0,2.461
-11.0,0.0,2.462
1.0,6.0,2.463
18.0,9.0,2.464
19.0,8.0,2.465
6.0,8.0,2.466
-2.0,6.0,2.467
6.0,4.0,2.468
13.0,2.0,2.469
6.0,-1.0,2.47
1.0,-3.0,2.471
6.0,-4.0,2.472
13.0,-5.0,2.473
11.0,-5.0,2.474
6.0,-6.0,2.475
10.0,-5.0,2.476
14.0,-1.0,2.477
7.0,3.0,2.478
-2.0,4.0,2.479
-8.0,-1.0,2.48
-8.0,-7.0,2.481
-6.0,-6.0,2.482
-4.0,-4.0,2.483
1.0,0.0,2.484
1.0,2.0,2.485
-1.0,4.0,2.486
-4.0,4.0,2.487
-5.0,2.0,2.488
-8.0,0.0,2.489
-11.0,-1.0,2.49
-3.0,-2.0,2.491
9.0,-4.0,2.492
13.0,-6.0,2.493
8.0,-4.0,2.494
6.0,-3.0,2.495
11.0,-2.0,2.496
13.0,0.0,2.497
4.0,-1.0,2.498
-2.0,0.0,2.499
-3.0,2.0,2.5
-3.0,4.0,2.501
-5.0,6.0,2.502
-1.0,2.0,2.503
7.0,-1.0,2.504
8.0,0.0,2.505
-1.0,1.0,2.506
-5.0,-3.0,2.507
0.0,-6.0,2.508
6.0,-1.0,2.509
6.0,3.0,2.51
4.0,2.0,2.511
6.0,0.0,2.512
7.0,-1.0,2.513
6.0,-4.0,2.514
7.0,-2.0,2.515
11.0,0.0,2.516
16.0,6.0,2.517
14.0,11.0,2.518
8.0,3.0,2.519
-1.0,-5.0,2.52
-7.0,-6.0,2.521
-12.0,3.0,2.522
-9.0,6.0,2.523
-1.0,2.0,2.524
2.0,0.0,2.525
-2.0,4.0,2.526
-7.0,4.0,2.527
-9.0,0.0,2.528
-12.0,-3.0,2.529
-19.0,-4.0,2.53
-20.0,-3.0,2.531
-7.0,-5.0,2.532
15.0,-6.0,2.533
31.0,-7.0,2.534
37.0,-7.0,2.535
37.0,-7.0,2.536
36.0,-4.0,2.537
29.0,-2.0,2.538
11.0,-3.0,2.539
-10.0,-5.0,2.54
-20.0,-7.0,2.541
-14.0,-6.0,2.542
-5.0,-7.0,2.543
-4.0,-6.0,2.544
-7.0,-1.0,2.545
-9.0,5.0,2.546
-6.0,6.0,2.547
1.0,4.0,2.548
4.0,2.0,2.549
7.0,3.0,2.55
5.0,3.0,2.551
4.0,6.0,2.552
7.0,8.0,2.553
11.0,10.0,2.554
8.0,6.0,2.555
3.0,2.0,2.556
1.0,1.0,2.557
2.0,-7.0,2.558
5.0,-6.0,2.559
1.0,-5.0,2.56
-4.0,-4.0,2.561
-7.0,-3.0,2.562
-2.0,0.0,2.563
4.0,5.0,2.564
4.0,10.0,2.565
-5.0,15.0,2.566
-11.0,15.0,2.567
-8.0,17.0,2.568
-1.0,22.0,2.569
3.0,25.0,2.57
3.0,22.0,2.571
7.0,15.0,2.572
12.0,0.0,2.573
14.0,-14.0,2.574
14.0,-26.0,2.575
18.0,-37.0,2.576
20.0,-45.0,2.577
13.0,-12.0,2.578
1.0,-10.0,2.579
-9.0,-9.0,2.58
-10.0,-8.0,2.581
-8.0,-5.0,2.582
-6.0,1.0,2.583
-5.0,8.0,2.584
-4.0,17.0,2.585
-3.0,24.0,2.586
-2.0,25.0,2.587
0.0,28.0,2.588
2.0,37.0,2.589
6.0,42.0,2.59
8.0,36.0,2.591
5.0,25.0,2.592
-3.0,0.0,2.593
-4.0,-23.0,2.594
7.0,-43.0,2.595
19.0,-61.0,2.596
20.0,-75.0,2.597
10.0,-54.0,2.598
3.0,-47.0,2.599
2.0,-40.0,2.6
0.0,-35.0,2.601
-4.0,-24.0,2.602
0.0,5.0,2.603
10.0,37.0,2.604
15.0,76.0,2.605
11.0,107.0,2.606
5.0,112.0,2.607
6.0,125.0,2.608
7.0,162.0,2.609
6.0,184.0,2.61
5.0,157.0,2.611
3.0,110.0,2.612
-1.0,2.0,2.613
-3.0,-101.0,2.614
-3.0,-186.0,2.615
-2.0,-266.0,2.616
-1.0,-326.0,2.617
2.0,-355.0,2.618
7.0,-260.0,2.619
6.0,-172.0,2.62
-1.0,-132.0,2.621
-6.0,-95.0,2.622
-5.0,-39.0,2.623
-2.0,3.0,2.624
-4.0,16.0,2.625
-7.0,34.0,2.626
-3.0,75.0,2.627
9.0,110.0,2.628
15.0,117.0,2.629
10.0,131.0,2.63
4.0,190.0,2.631
3.0,288.0,2.632
5.0,395.0,2.633
9.0,478.0,2.634
15.0,511.0,2.635
19.0,459.0,2.636
19.0,325.0,2.637
13.0,260.0,2.638
9.0,4.0,2.639
8.0,-238.0,2.64
7.0,-441.0,2.641
-1.0,-582.0,2.642
-13.0,-525.0,2.643
-21.0,-436.0,2.644
-23.0,-260.0,2.645
-21.0,-67.0,2.646
-16.0,166.0,2.647
-11.0,363.0,2.648
-8.0,451.0,2.649
-6.0,513.0,2.65
-1.0,492.0,2.651
11.0,426.0,2.652
22.0,237.0,2.653
24.0,94.0,2.654
16.0,91.0,2.655
1.0,112.0,2.656
-13.0,208.0,2.657
-23.0,165.0,2.658
-20.0,21.0,2.659
-6.0,-115.0,2.66
18.0,-229.0,2.661
45.0,-308.0,2.662
61.0,-276.0,2.663
57.0,-226.0,2.664
32.0,-127.0,2.665
3.0,-19.0,2.666
-22.0,112.0,2.667
-46.0,223.0,2.668
-64.0,272.0,2.669
-65.0,307.0,2.67
-45.0,295.0,2.671
-22.0,258.0,2.672
-10.0,152.0,2.673
-5.0,72.0,2.674
8.0,70.0,2.675
32.0,82.0,2.676
48.0,136.0,2.677
42.0,184.0,2.678
30.0,193.0,2.679
22.0,169.0,2.68
26.0,127.0,2.681
30.0,62.0,2.682
31.0,-46.0,2.683
29.0,-166.0,2.684
13.0,-249.0,2.685
-4.0,-298.0,2.686
-27.0,-334.0,2.687
-42.0,-313.0,2.688
-29.0,-172.0,2.689
-22.0,37.0,2.69
-35.0,184.0,2.691
-43.0,196.0,2.692
-32.0,117.0,2.693
-17.0,9.0,2.694
4.0,-73.0,2.695
20.0,-47.0,2.696
16.0,138.0,2.697
9.0,512.0,2.698
7.0,751.0,2.699
12.0,689.0,2.7
19.0,339.0,2.701
12.0,-112.0,2.702
-9.0,-508.0,2.703
-24.0,-826.0,2.704
-27.0,-1073.0,2.705
-28.0,-1152.0,2.706
-31.0,-944.0,2.707
-22.0,-488.0,2.708
7.0,16.0,2.709
44.0,388.0,2.71
71.0,560.0,2.711
83.0,580.0,2.712
79.0,564.0,2.713
50.0,593.0,2.714
8.0,638.0,2.715
-12.0,628.0,2.716
6.0,600.0,2.717
31.0,592.0,2.718
15.0,548.0,2.719
-17.0,456.0,2.72
-14.0,222.0,2.721
25.0,-23.0,2.722
70.0,-306.0,2.723
93.0,-571.0,2.724
87.0,-779.0,2.725
48.0,-915.0,2.726
-15.0,-831.0,2.727
-73.0,-817.0,2.728
-105.0,-1018.0,2.729
-112.0,-1147.0,2.73
-107.0,-1059.0,2.731
-86.0,-869.0,2.732
-57.0,-379.0,2.733
-31.0,46.0,2.734
-12.0,274.0,2.735
7.0,350.0,2.736
27.0,-27.0,2.737
43.0,-395.0,2.738
56.0,-691.0,2.739
65.0,-906.0,2.74
60.0,-902.0,2.741
39.0,-555.0,2.742
19.0,-73.0,2.743
24.0,242.0,2.744
47.0,374.0,2.745
59.0,478.0,2.746
37.0,564.0,2.747
-2.0,561.0,2.748
-31.0,540.0,2.749
-35.0,632.0,2.75
-21.0,794.0,2.751
-2.0,903.0,2.752
7.0,946.0,2.753
2.0,977.0,2.754
-16.0,959.0,2.755
-47.0,834.0,2.756
-76.0,675.0,2.757
-90.0,570.0,2.758
-82.0,533.0,2.759
-66.0,504.0,2.76
-56.0,479.0,2.761
-44.0,499.0,2.762
-16.0,514.0,2.763
23.0,425.0,2.764
52.0,227.0,2.765
51.0,7.0,2.766
21.0,-179.0,2.767
-21.0,-349.0,2.768
-59.0,-512.0,2.769
-78.0,-645.0,2.77
-69.0,-707.0,2.771
-39.0,-598.0,2.772
-11.0,-168.0,2.773
1.0,527.0,2.774
15.0,1057.0,2.775
44.0,932.0,2.776
77.0,220.0,2.777
89.0,-721.0,2.778
85.0,-1442.0,2.779
87.0,-1827.0,2.78
106.0,-1913.0,2.781
129.0,-1684.0,2.782
154.0,-1212.0,2.783
182.0,-712.0,2.784
199.0,-313.0,2.785
178.0,54.0,2.786
117.0,437.0,2.787
43.0,745.0,2.788
-17.0,884.0,2.789
-53.0,847.0,2.79
-72.0,637.0,2.791
-86.0,285.0,2.792
-102.0,-20.0,2.793
-106.0,-47.0,2.794
-96.0,213.0,2.795
-79.0,536.0,2.796
-65.0,734.0,2.797
-53.0,845.0,2.798
-47.0,923.0,2.799
-69.0,906.0,2.8
-123.0,689.0,2.801
-161.0,295.0,2.802
-138.0,-181.0,2.803
-80.0,-692.0,2.804
-50.0,-1206.0,2.805
-56.0,-1592.0,2.806
-56.0,-1684.0,2.807
-33.0,-1456.0,2.808
-12.0,-1031.0,2.809
1.0,-537.0,2.81
27.0,-60.0,2.811
56.0,269.0,2.812
58.0,327.0,2.813
39.0,158.0,2.814
33.0,-44.0,2.815
48.0,-153.0,2.816
50.0,-187.0,2.817
30.0,-177.0,2.818
23.0,-73.0,2.819
33.0,125.0,2.82
23.0,311.0,2.821
-16.0,417.0,2.822
-29.0,491.0,2.823
21.0,582.0,2.824
87.0,629.0,2.825
109.0,581.0,2.826
104.0,492.0,2.827
113.0,438.0,2.828
116.0,405.0,2.829
79.0,342.0,2.83
35.0,265.0,2.831
36.0,214.0,2.832
59.0,192.0,2.833
43.0,210.0,2.834
-11.0,326.0,2.835
-46.0,522.0,2.836
-43.0,641.0,2.837
-24.0,559.0,2.838
-4.0,341.0,2.839
18.0,163.0,2.84
28.0,65.0,2.841
6.0,-65.0,2.842
-36.0,-266.0,2.843
-74.0,-402.0,2.844
-97.0,-382.0,2.845
-99.0,-350.0,2.846
-61.0,-485.0,2.847
3.0,-728.0,2.848
50.0,-848.0,2.849
48.0,-766.0,2.85
20.0,-613.0,2.851
-5.0,-497.0,2.852
-31.0,-394.0,2.853
-52.0,-278.0,2.854
-36.0,-200.0,2.855
23.0,-170.0,2.856
79.0,-129.0,2.857
87.0,-78.0,2.858
54.0,-85.0,2.859
11.0,-130.0,2.86
-25.0,-68.0,2.861
-54.0,143.0,2.862
-72.0,351.0,2.863
-88.0,434.0,2.864
-110.0,484.0,2.865
-122.0,640.0,2.866
-98.0,875.0,2.867
-44.0,1041.0,2.868
10.0,1078.0,2.869
50.0,1014.0,2.87
81.0,844.0,2.871
93.0,504.0,2.872
69.0,-29.0,2.873
18.0,-669.0,2.874
-22.0,-1201.0,2.875
-24.0,-1390.0,2.876
2.0,-1202.0,2.877
35.0,-814.0,2.878
42.0,-519.0,2.879
19.0,-377.0,2.88
0.0,-198.0,2.881
22.0,104.0,2.882
64.0,342.0,2.883
74.0,304.0,2.884
49.0,27.0,2.885
30.0,-266.0,2.886
21.0,-374.0,2.887
-9.0,-209.0,2.888
-57.0,155.0,2.889
-75.0,473.0,2.89
-48.0,515.0,2.891
-18.0,335.0,2.892
-9.0,199.0,2.893
0.0,210.0,2.894
24.0,176.0,2.895
38.0,-78.0,2.896
31.0,-442.0,2.897
20.0,-783.0,2.898
24.0,-1001.0,2.899
28.0,-1037.0,2.9
25.0,-808.0,2.901
38.0,-355.0,2.902
77.0,61.0,2.903
110.0,216.0,2.904
111.0,168.0,2.905
85.0,129.0,2.906
45.0,174.0,2.907
-15.0,227.0,2.908
-93.0,216.0,2.909
-163.0,154.0,2.91
-189.0,97.0,2.911
-161.0,83.0,2.912
-99.0,96.0,2.913
-37.0,95.0,2.914
2.0,115.0,2.915
19.0,286.0,2.916
32.0,626.0,2.917
41.0,1008.0,2.918
38.0,1184.0,2.919
23.0,1079.0,2.92
23.0,806.0,2.921
35.0,492.0,2.922
33.0,197.0,2.923
17.0,23.0,2.924
35.0,62.0,2.925
103.0,258.0,2.926
161.0,453.0,2.927
149.0,534.0,2.928
83.0,419.0,2.929
12.0,-27.0,2.93
-51.0,-817.0,2.931
-117.0,-1601.0,2.932
-163.0,-1832.0,2.933
-170.0,-1233.0,2.934
-161.0,-25.0,2.935
-164.0,1244.0,2.936
-167.0,1975.0,2.937
-135.0,1732.0,2.938
-81.0,682.0,2.939
-49.0,-395.0,2.94
-39.0,-1558.0,2.941
-13.0,-2498.0,2.942
34.0,-2767.0,2.943
68.0,-2768.0,2.944
77.0,-1958.0,2.945
87.0,-1199.0,2.946
102.0,-590.0,2.947
96.0,-17.0,2.948
65.0,444.0,2.949
56.0,877.0,2.95
84.0,1223.0,2.951
112.0,1505.0,2.952
111.0,1595.0,2.953
107.0,1596.0,2.954
123.0,1326.0,2.955
129.0,1078.0,2.956
99.0,898.0,2.957
51.0,751.0,2.958
22.0,731.0,2.959
-3.0,756.0,2.96
-17.0,762.0,2.961
-33.0,657.0,2.962
-50.0,415.0,2.963
-63.0,112.0,2.964
-57.0,-203.0,2.965
-49.0,-561.0,2.966
-31.0,-951.0,2.967
-24.0,-1274.0,2.968
-50.0,-1469.0,2.969
-70.0,-1569.0,2.97
-71.0,-1588.0,2.971
-61.0,-1442.0,2.972
-15.0,-1092.0,2.973
24.0,-682.0,2.974
44.0,-411.0,2.975
50.0,-294.0,2.976
12.0,-181.0,2.977
-18.0,57.0,2.978
-6.0,385.0,2.979
25.0,742.0,2.98
42.0,1153.0,2.981
42.0,1620.0,2.982
36.0,1978.0,2.983
14.0,2000.0,2.984
-37.0,1591.0,2.985
-95.0,849.0,2.986
-117.0,-11.0,2.987
-101.0,-758.0,2.988
-85.0,-1211.0,2.989
-85.0,-1293.0,2.99
-72.0,-1050.0,2.991
-20.0,-650.0,2.992
49.0,-316.0,2.993
87.0,-151.0,2.994
80.0,-51.0,2.995
63.0,130.0,2.996
61.0,322.0,2.997
61.0,345.0,2.998
37.0,180.0,2.999
-8.0,64.0,3.0
-40.0,172.0,3.001
-49.0,361.0,3.002
-68.0,394.0,3.003
-93.0,256.0,3.004
-80.0,89.0,3.005
-5.0,-36.0,3.006
87.0,-97.0,3.007
140.0,-25.0,3.008
166.0,149.0,3.009
203.0,176.0,3.01
235.0,-167.0,3.011
203.0,-736.0,3.012
92.0,-1142.0,3.013
-30.0,-1164.0,3.014
-87.0,-894.0,3.015
-56.0,-538.0,3.016
6.0,-236.0,3.017
25.0,-70.0,3.018
-29.0,-88.0,3.019
-100.0,-150.0,3.02
-110.0,-345.0,3.021
-74.0,-465.0,3.022
-79.0,-357.0,3.023
-159.0,-217.0,3.024
-229.0,16.0,3.025
-194.0,243.0,3.026
-79.0,448.0,3.027
8.0,653.0,3.028
18.0,853.0,3.029
-2.0,983.0,3.03
-2.0,901.0,3.031
13.0,854.0,3.032
25.0,913.0,3.033
47.0,1026.0,3.034
86.0,1302.0,3.035
114.0,1546.0,3.036
107.0,1696.0,3.037
77.0,1720.0,3.038
57.0,1021.0,3.039
49.0,-289.0,3.04
48.0,-1810.0,3.041
47.0,-2883.0,3.042
36.0,-3019.0,3.043
6.0,-2282.0,3.044
-17.0,-1246.0,3.045
-10.0,-491.0,3.046
-2.0,-148.0,3.047
-34.0,19.0,3.048
-80.0,243.0,3.049
-75.0,568.0,3.05
-6.0,914.0,3.051
58.0,1149.0,3.052
82.0,1149.0,3.053
88.0,898.0,3.054
102.0,490.0,3.055
97.0,41.0,3.056
55.0,-324.0,3.057
-10.0,-546.0,3.058
-40.0,-595.0,3.059
-18.0,-626.0,3.06
14.0,-798.0,3.061
-1.0,-1033.0,3.062
-60.0,-1119.0,3.063
-105.0,-1013.0,3.064
-102.0,-846.0,3.065
-77.0,-635.0,3.066
-68.0,-277.0,3.067
-69.0,175.0,3.068
-61.0,495.0,3.069
-54.0,573.0,3.07
-58.0,519.0,3.071
-48.0,434.0,3.072
-1.0,325.0,3.073
58.0,287.0,3.074
91.0,489.0,3.075
98.0,917.0,3.076
104.0,1315.0,3.077
108.0,1537.0,3.078
92.0,1543.0,3.079
46.0,1311.0,3.08
-17.0,895.0,3.081
-73.0,624.0,3.082
-97.0,875.0,3.083
-80.0,1561.0,3.084
-32.0,2167.0,3.085
30.0,2305.0,3.086
91.0,1803.0,3.087
126.0,369.0,3.088
107.0,-2007.0,3.089
47.0,-3919.0,3.09
-8.0,-4000.0,3.091
-36.0,-3724.0,3.092
-44.0,-2236.0,3.093
-34.0,-1156.0,3.094
-3.0,-389.0,3.095
11.0,451.0,3.096
-31.0,947.0,3.097
-110.0,854.0,3.098
-136.0,658.0,3.099
-88.0,488.0,3.1
-41.0,398.0,3.101
-23.0,394.0,3.102
27.0,648.0,3.103
127.0,904.0,3.104
199.0,1164.0,3.105
193.0,1328.0,3.106
162.0,1204.0,3.107
148.0,1077.0,3.108
116.0,946.0,3.109
43.0,818.0,3.11
-23.0,700.0,3.111
-46.0,604.0,3.112
-50.0,573.0,3.113
-57.0,416.0,3.114
-56.0,-118.0,3.115
-63.0,-645.0,3.116
-99.0,-1148.0,3.117
-129.0,-1495.0,3.118
-108.0,-955.0,3.119
-92.0,28.0,3.12
-96.0,643.0,3.121
-99.0,628.0,3.122
-99.0,336.0,3.123
-98.0,-59.0,3.124
-98.0,-667.0,3.125
-82.0,-1214.0,3.126
-22.0,-1132.0,3.127
25.0,-387.0,3.128
34.0,431.0,3.129
46.0,868.0,3.13
65.0,858.0,3.131
79.0,364.0,3.132
77.0,-576.0,3.133
79.0,-1446.0,3.134
95.0,-1615.0,3.135
102.0,-1172.0,3.136
82.0,-834.0,3.137
61.0,-926.0,3.138
65.0,-1063.0,3.139
108.0,-779.0,3.14
127.0,-194.0,3.141
102.0,275.0,3.142
74.0,487.0,3.143
65.0,588.0,3.144
64.0,685.0,3.145
61.0,740.0,3.146
50.0,688.0,3.147
23.0,529.0,3.148
-12.0,388.0,3.149
-36.0,477.0,3.15
-69.0,903.0,3.151
-145.0,1459.0,3.152
-223.0,1749.0,3.153
-213.0,1534.0,3.154
-109.0,866.0,3.155
-12.0,-38.0,3.156
23.0,-877.0,3.157
36.0,-1500.0,3.158
67.0,-1744.0,3.159
72.0,-1664.0,3.16
6.0,-1436.0,3.161
-93.0,-1122.0,3.162
-166.0,-690.0,3.163
-202.0,-180.0,3.164
-219.0,222.0,3.165
-196.0,362.0,3.166
-105.0,283.0,3.167
29.0,220.0,3.168
137.0,373.0,3.169
178.0,646.0,3.17
160.0,681.0,3.171
124.0,267.0,3.172
85.0,-369.0,3.173
38.0,-794.0,3.174
-13.0,-837.0,3.175
-37.0,-643.0,3.176
-9.0,-386.0,3.177
59.0,-67.0,3.178
114.0,318.0,3.179
117.0,743.0,3.18
83.0,1133.0,3.181
53.0,1305.0,3.182
37.0,984.0,3.183
15.0,127.0,3.184
-18.0,-879.0,3.185
-43.0,-1532.0,3.186
-42.0,-1655.0,3.187
-26.0,-1391.0,3.188
-16.0,-931.0,3.189
-3.0,-456.0,3.19
29.0,-181.0,3.191
74.0,-143.0,3.192
105.0,-41.0,3.193
113.0,419.0,3.194
112.0,1110.0,3.195
115.0,1615.0,3.196
118.0,1748.0,3.197
96.0,1630.0,3.198
30.0,1396.0,3.199
-60.0,1027.0,3.2
-222.0,462.0,3.201
-321.0,-204.0,3.202
-225.0,-664.0,3.203
-122.0,-484.0,3.204
2.0,486.0,3.205
91.0,1726.0,3.206
71.0,2357.0,3.207
54.0,1965.0,3.208
46.0,800.0,3.209
8.0,-793.0,3.21
-117.0,-2591.0,3.211
-208.0,-3890.0,3.212
-192.0,-4000.0,3.213
-143.0,-3188.0,3.214
2.0,-1728.0,3.215
94.0,-769.0,3.216
23.0,-332.0,3.217
-51.0,70.0,3.218
-74.0,615.0,3.219
7.0,1238.0,3.22
75.0,1866.0,3.221
74.0,2264.0,3.222
70.0,1996.0,3.223
102.0,942.0,3.224
112.0,-405.0,3.225
64.0,-1381.0,3.226
5.0,-1640.0,3.227
-11.0,-1181.0,3.228
9.0,-271.0,3.229
47.0,560.0,3.23
96.0,820.0,3.231
130.0,487.0,3.232
114.0,-4.0,3.233
67.0,-243.0,3.234
33.0,-118.0,3.235
2.0,223.0,3.236
-56.0,485.0,3.237
-128.0,423.0,3.238
-152.0,70.0,3.239
-151.0,-216.0,3.24
-75.0,-159.0,3.241
-3.0,137.0,3.242
54.0,424.0,3.243
87.0,656.0,3.244
44.0,909.0,3.245
7.0,1207.0,3.246
-13.0,1537.0,3.247
-18.0,1842.0,3.248
22.0,1890.0,3.249
52.0,1421.0,3.25
52.0,486.0,3.251
50.0,-574.0,3.252
38.0,-1493.0,3.253
21.0,-2115.0,3.254
-8.0,-2171.0,3.255
-23.0,-1479.0,3.256
8.0,-462.0,3.257
34.0,236.0,3.258
35.0,124.0,3.259
27.0,-644.0,3.26
11.0,-1538.0,3.261
-36.0,-2085.0,3.262
-80.0,-2017.0,3.263
-66.0,-1383.0,3.264
-9.0,-586.0,3.265
28.0,-51.0,3.266
35.0,161.0,3.267
48.0,218.0,3.268
51.0,197.0,3.269
0.0,129.0,3.27
-78.0,188.0,3.271
-96.0,494.0,3.272
-37.0,877.0,3.273
21.0,1099.0,3.274
18.0,1190.0,3.275
-15.0,1337.0,3.276
-20.0,1553.0,3.277
17.0,1707.0,3.278
45.0,1650.0,3.279
59.0,1286.0,3.28
33.0,605.0,3.281
22.0,-223.0,3.282
54.0,-929.0,3.283
77.0,-1388.0,3.284
71.0,-1653.0,3.285
50.0,-1725.0,3.286
-16.0,-1507.0,3.287
-80.0,-1035.0,3.288
-134.0,-534.0,3.289
-173.0,-156.0,3.29
-165.0,113.0,3.291
-151.0,305.0,3.292
-121.0,447.0,3.293
-92.0,684.0,3.294
-66.0,1152.0,3.295
-33.0,1720.0,3.296
23.0,2095.0,3.297
72.0,2195.0,3.298
86.0,2017.0,3.299
69.0,1368.0,3.3
32.0,22.0,3.301
10.0,-1673.0,3.302
45.0,-2763.0,3.303
131.0,-2513.0,3.304
196.0,-1164.0,3.305
197.0,328.0,3.306
162.0,1138.0,3.307
126.0,1050.0,3.308
75.0,349.0,3.309
-10.0,-547.0,3.31
-89.0,-1382.0,3.311
-122.0,-2081.0,3.312
-125.0,-2534.0,3.313
-128.0,-2517.0,3.314
-120.0,-1969.0,3.315
-86.0,-1176.0,3.316
-48.0,-490.0,3.317
-13.0,63.0,3.318
37.0,837.0,3.319
105.0,1637.0,3.32
138.0,2133.0,3.321
115.0,2203.0,3.322
86.0,2008.0,3.323
86.0,1609.0,3.324
63.0,909.0,3.325
-14.0,82.0,3.326
-85.0,-357.0,3.327
-73.0,-144.0,3.328
3.0,347.0,3.329
74.0,521.0,3.33
109.0,164.0,3.331
128.0,-520.0,3.332
145.0,-1251.0,3.333
140.0,-1808.0,3.334
84.0,-1967.0,3.335
-31.0,-1576.0,3.336
-174.0,-809.0,3.337
-283.0,180.0,3.338
-342.0,749.0,3.339
-316.0,901.0,3.34
-252.0,749.0,3.341
-184.0,414.0,3.342
-109.0,43.0,3.343
-22.0,-134.0,3.344
52.0,9.0,3.345
94.0,310.0,3.346
111.0,508.0,3.347
97.0,622.0,3.348
50.0,907.0,3.349
-1.0,1390.0,3.35
-4.0,1704.0,3.351
38.0,1514.0,3.352
75.0,877.0,3.353
85.0,110.0,3.354
101.0,-587.0,3.355
136.0,-1166.0,3.356
150.0,-1534.0,3.357
108.0,-1577.0,3.358
66.0,-1235.0,3.359
32.0,-676.0,3.36
24.0,-149.0,3.361
8.0,236.0,3.362
-29.0,495.0,3.363
-55.0,627.0,3.364
-44.0,588.0,3.365
-33.0,406.0,3.366
-20.0,237.0,3.367
-11.0,237.0,3.368
-19.0,404.0,3.369
-22.0,587.0,3.37
-9.0,621.0,3.371
23.0,413.0,3.372
111.0,-19.0,3.373
176.0,-468.0,3.374
170.0,-565.0,3.375
154.0,-116.0,3.376
109.0,548.0,3.377
61.0,906.0,3.378
2.0,554.0,3.379
-81.0,-431.0,3.38
-181.0,-1672.0,3.381
-260.0,-2731.0,3.382
-274.0,-3120.0,3.383
-218.0,-2518.0,3.384
-130.0,-1242.0,3.385
-54.0,-150.0,3.386
-5.0,226.0,3.387
30.0,240.0,3.388
50.0,540.0,3.389
59.0,1194.0,3.39
65.0,1723.0,3.391
67.0,1794.0,3.392
54.0,1483.0,3.393
38.0,937.0,3.394
49.0,189.0,3.395
84.0,-616.0,3.396
104.0,-1103.0,3.397
83.0,-1003.0,3.398
59.0,-378.0,3.399
61.0,354.0,3.4
70.0,780.0,3.401
45.0,792.0,3.402
-20.0,463.0,3.403
-92.0,-134.0,3.404
-136.0,-835.0,3.405
-159.0,-1255.0,3.406
-182.0,-1062.0,3.407
-199.0,-401.0,3.408
-177.0,188.0,3.409
-120.0,381.0,3.41
-67.0,348.0,3.411
-38.0,368.0,3.412
-2.0,475.0,3.413
59.0,620.0,3.414
118.0,899.0,3.415
149.0,1349.0,3.416
166.0,1706.0,3.417
172.0,1719.0,3.418
142.0,1345.0,3.419
69.0,711.0,3.42
-1.0,-91.0,3.421
-18.0,-1062.0,3.422
2.0,-1920.0,3.423
17.0,-2109.0,3.424
4.0,-1439.0,3.425
-8.0,-481.0,3.426
6.0,5.0,3.427
54.0,-96.0,3.428
111.0,-304.0,3.429
136.0,-302.0,3.43
108.0,-288.0,3.431
54.0,-505.0,3.432
6.0,-761.0,3.433
-36.0,-683.0,3.434
-99.0,-285.0,3.435
-169.0,59.0,3.436
-202.0,137.0,3.437
-170.0,131.0,3.438
-92.0,332.0,3.439
-17.0,767.0,3.44
51.0,1329.0,3.441
94.0,1889.0,3.442
61.0,2229.0,3.443
29.0,2106.0,3.444
3.0,1431.0,3.445
-29.0,294.0,3.446
-79.0,-1092.0,3.447
-118.0,-2291.0,3.448
-123.0,-2702.0,3.449
-100.0,-2119.0,3.45
9.0,-1093.0,3.451
87.0,-353.0,3.452
69.0,-26.0,3.453
53.0,201.0,3.454
43.0,385.0,3.455
36.0,342.0,3.456
41.0,174.0,3.457
43.0,146.0,3.458
18.0,270.0,3.459
-39.0,318.0,3.46
-79.0,347.0,3.461
-43.0,679.0,3.462
50.0,1300.0,3.463
113.0,1762.0,3.464
114.0,1715.0,3.465
127.0,1173.0,3.466
196.0,277.0,3.467
253.0,-786.0,3.468
220.0,-1648.0,3.469
108.0,-1917.0,3.47
-2.0,-1540.0,3.471
-80.0,-830.0,3.472
-138.0,-165.0,3.473
-172.0,160.0,3.474
-151.0,36.0,3.475
-86.0,-292.0,3.476
-34.0,-381.0,3.477
-22.0,-98.0,3.478
-24.0,236.0,3.479
-16.0,470.0,3.48
-24.0,398.0,3.481
-82.0,243.0,3.482
-154.0,-156.0,3.483
-174.0,-550.0,3.484
-141.0,-926.0,3.485
-104.0,-1153.0,3.486
-77.0,-929.0,3.487
-29.0,-641.0,3.488
30.0,-164.0,3.489
54.0,264.0,3.49
45.0,545.0,3.491
48.0,723.0,3.492
68.0,589.0,3.493
60.0,381.0,3.494
24.0,-51.0,3.495
11.0,-397.0,3.496
39.0,-485.0,3.497
70.0,-437.0,3.498
74.0,14.0,3.499
61.0,229.0,3.5
55.0,219.0,3.501
52.0,301.0,3.502
51.0,545.0,3.503
57.0,743.0,3.504
65.0,779.0,3.505
57.0,689.0,3.506
32.0,466.0,3.507
16.0,125.0,3.508
13.0,-127.0,3.509
0.0,-68.0,3.51
-25.0,185.0,3.511
-41.0,296.0,3.512
-28.0,141.0,3.513
4.0,-74.0,3.514
35.0,-130.0,3.515
48.0,-3.0,3.516
48.0,203.0,3.517
37.0,425.0,3.518
21.0,579.0,3.519
2.0,648.0,3.52
-19.0,705.0,3.521
-30.0,758.0,3.522
-4.0,612.0,3.523
13.0,125.0,3.524
3.0,-542.0,3.525
-9.0,-1098.0,3.526
-29.0,-1428.0,3.527
-52.0,-1512.0,3.528
-85.0,-1217.0,3.529
-114.0,-471.0,3.53
-126.0,442.0,3.531
-129.0,1093.0,3.532
-103.0,1319.0,3.533
-70.0,1157.0,3.534
-16.0,552.0,3.535
35.0,-507.0,3.536
77.0,-1567.0,3.537
102.0,-2138.0,3.538
67.0,-1933.0,3.539
55.0,-1189.0,3.54
72.0,-301.0,3.541
68.0,520.0,3.542
25.0,1117.0,3.543
-18.0,1285.0,3.544
-27.0,929.0,3.545
-10.0,225.0,3.546
5.0,-453.0,3.547
10.0,-782.0,3.548
15.0,-778.0,3.549
27.0,-757.0,3.55
36.0,-919.0,3.551
39.0,-1014.0,3.552
37.0,-700.0,3.553
38.0,-129.0,3.554
41.0,201.0,3.555
38.0,160.0,3.556
27.0,114.0,3.557
7.0,319.0,3.558
-9.0,604.0,3.559
-19.0,719.0,3.56
-30.0,704.0,3.561
-51.0,718.0,3.562
-76.0,750.0,3.563
-93.0,760.0,3.564
-93.0,825.0,3.565
-71.0,951.0,3.566
-24.0,972.0,3.567
44.0,763.0,3.568
99.0,412.0,3.569
113.0,35.0,3.57
92.0,-342.0,3.571
58.0,-645.0,3.572
25.0,-724.0,3.573
-26.0,-568.0,3.574
-87.0,-378.0,3.575
-119.0,-299.0,3.576
-100.0,-266.0,3.577
-61.0,-180.0,3.578
-46.0,-84.0,3.579
-55.0,-10.0,3.58
-40.0,-8.0,3.581
10.0,-2.0,3.582
53.0,14.0,3.583
56.0,24.0,3.584
37.0,17.0,3.585
40.0,31.0,3.586
66.0,114.0,3.587
77.0,232.0,3.588
60.0,453.0,3.589
43.0,639.0,3.59
47.0,720.0,3.591
60.0,700.0,3.592
55.0,378.0,3.593
36.0,-2.0,3.594
21.0,-555.0,3.595
14.0,-979.0,3.596
10.0,-1014.0,3.597
3.0,-950.0,3.598
-1.0,-585.0,3.599
-3.0,-352.0,3.6
0.0,-271.0,3.601
3.0,-203.0,3.602
7.0,-114.0,3.603
1.0,-53.0,3.604
-38.0,8.0,3.605
-70.0,172.0,3.606
-78.0,429.0,3.607
-77.0,643.0,3.608
-46.0,669.0,3.609
-16.0,429.0,3.61
9.0,-45.0,3.611
34.0,-530.0,3.612
52.0,-690.0,3.613
62.0,-392.0,3.614
45.0,108.0,3.615
29.0,435.0,3.616
19.0,483.0,3.617
13.0,377.0,3.618
19.0,221.0,3.619
16.0,11.0,3.62
-3.0,-242.0,3.621
-35.0,-467.0,3.622
-62.0,-627.0,3.623
-74.0,-689.0,3.624
-83.0,-598.0,3.625
-95.0,-375.0,3.626
-89.0,-176.0,3.627
-53.0,-95.0,3.628
-6.0,-37.0,3.629
20.0,107.0,3.63
21.0,264.0,3.631
20.0,305.0,3.632
31.0,272.0,3.633
42.0,291.0,3.634
45.0,362.0,3.635
45.0,384.0,3.636
45.0,340.0,3.637
46.0,280.0,3.638
41.0,237.0,3.639
31.0,207.0,3.64
27.0,200.0,3.641
28.0,244.0,3.642
30.0,286.0,3.643
31.0,247.0,3.644
26.0,110.0,3.645
9.0,-75.0,3.646
-13.0,-251.0,3.647
-27.0,-365.0,3.648
-25.0,-360.0,3.649
-17.0,-252.0,3.65
-20.0,-139.0,3.651
-27.0,-96.0,3.652
-26.0,-93.0,3.653
-12.0,-67.0,3.654
1.0,-25.0,3.655
5.0,0.0,3.656
3.0,14.0,3.657
4.0,34.0,3.658
11.0,51.0,3.659
13.0,60.0,3.66
9.0,44.0,3.661
9.0,32.0,3.662
15.0,34.0,3.663
20.0,34.0,3.664
20.0,27.0,3.665
16.0,18.0,3.666
15.0,7.0,3.667
18.0,-3.0,3.668
13.0,-13.0,3.669
-1.0,-21.0,3.67
-12.0,-16.0,3.671
-12.0,-14.0,3.672
-5.0,-26.0,3.673
0.0,-32.0,3.674
0.0,-20.0,3.675
3.0,-11.0,3.676
13.0,-14.0,3.677
20.0,-16.0,3.678
19.0,-12.0,3.679
9.0,-10.0,3.68
-2.0,-17.0,3.681
-7.0,-23.0,3.682
-6.0,-18.0,3.683
-5.0,-9.0,3.684
-12.0,-1.0,3.685
-23.0,0.0,3.686
-29.0,2.0,3.687
-25.0,4.0,3.688
-16.0,0.0,3.689
-9.0,-10.0,3.69
-9.0,-19.0,3.691
-9.0,-18.0,3.692
-5.0,-9.0,3.693
-3.0,-3.0,3.694
-6.0,-5.0,3.695
-8.0,-9.0,3.696
0.0,-8.0,3.697
13.0,-9.0,3.698
16.0,-9.0,3.699
4.0,-6.0,3.7
-8.0,-1.0,3.701
-12.0,4.0,3.702
-9.0,2.0,3.703
-7.0,-1.0,3.704
-2.0,1.0,3.705
8.0,7.0,3.706
19.0,6.0,3.707
26.0,-1.0,3.708
34.0,-8.0,3.709
46.0,-8.0,3.71
57.0,-5.0,3.711
65.0,-4.0,3.712
69.0,-2.0,3.713
58.0,5.0,3.714
23.0,16.0,3.715
-24.0,20.0,3.716
-62.0,20.0,3.717
-88.0,23.0,3.718
-104.0,26.0,3.719
-109.0,17.0,3.72
-91.0,-5.0,3.721
-53.0,-19.0,3.722
-10.0,-13.0,3.723
28.0,3.0,3.724
59.0,13.0,3.725
75.0,14.0,3.726
77.0,9.0,3.727
69.0,4.0,3.728
47.0,0.0,3.729
12.0,-1.0,3.73
-15.0,-3.0,3.731
-4.0,-11.0,3.732
29.0,-18.0,3.733
45.0,-13.0,3.734
38.0,1.0,3.735
34.0,11.0,3.736
41.0,10.0,3.737
36.0,2.0,3.738
16.0,0.0,3.739
11.0,0.0,3.74
27.0,-9.0,3.741
26.0,-28.0,3.742
-7.0,-45.0,3.743
-34.0,-50.0,3.744
-17.0,-37.0,3.745
25.0,-15.0,3.746
57.0,1.0,3.747
58.0,6.0,3.748
33.0,2.0,3.749
-1.0,-4.0,3.75
-23.0,-8.0,3.751
-26.0,0.0,3.752
-37.0,27.0,3.753
-80.0,57.0,3.754
-128.0,66.0,3.755
-138.0,48.0,3.756
-114.0,22.0,3.757
-98.0,2.0,3.758
-91.0,-3.0,3.759
-56.0,-3.0,3.76
19.0,-8.0,3.761
84.0,-13.0,3.762
98.0,-10.0,3.763
80.0,-1.0,3.764
72.0,4.0,3.765
80.0,-2.0,3.766
77.0,-11.0,3.767
58.0,-16.0,3.768
38.0,-12.0,3.769
31.0,-8.0,3.77
27.0,-6.0,3.771
14.0,-8.0,3.772
-4.0,-10.0,3.773
-12.0,-7.0,3.774
-8.0,-2.0,3.775
-2.0,3.0,3.776
0.0,5.0,3.777
2.0,1.0,3.778
1.0,0.0,3.779
-11.0,-2.0,3.78
-20.0,-4.0,3.781
-8.0,-5.0,3.782
18.0,-1.0,3.783
24.0,1.0,3.784
-3.0,-1.0,3.785
-32.0,-5.0,3.786
-41.0,-9.0,3.787
-47.0,-11.0,3.788
-73.0,-5.0,3.789
-103.0,1.0,3.79
-106.0,9.0,3.791
-80.0,14.0,3.792
-42.0,9.0,3.793
-6.0,4.0,3.794
28.0,0.0,3.795
55.0,-3.0,3.796
71.0,1.0,3.797
72.0,3.0,3.798
59.0,-1.0,3.799
26.0,-4.0,3.8
-15.0,-6.0,3.801
-46.0,-4.0,3.802
-61.0,-1.0,3.803
-66.0,2.0,3.804
-59.0,5.0,3.805
-31.0,5.0,3.806
8.0,4.0,3.807
38.0,1.0,3.808
49.0,-1.0,3.809
59.0,-3.0,3.81
72.0,-3.0,3.811
79.0,-2.0,3.812
77.0,0.0,3.813
67.0,1.0,3.814
52.0,-2.0,3.815
35.0,-6.0,3.816
24.0,-5.0,3.817
21.0,1.0,3.818
18.0,5.0,3.819
2.0,5.0,3.82
-23.0,0.0,3.821
-51.0,-5.0,3.822
-70.0,-8.0,3.823
-72.0,-10.0,3.824
-46.0,-7.0,3.825
-10.0,2.0,3.826
4.0,9.0,3.827
-9.0,10.0,3.828
-17.0,11.0,3.829
2.0,17.0,3.83
19.0,25.0,3.831
12.0,21.0,3.832
0.0,7.0,3.833
13.0,-3.0,3.834
33.0,-4.0,3.835
29.0,-1.0,3.836
9.0,7.0,3.837
-2.0,16.0,3.838
2.0,21.0,3.839
-3.0,12.0,3.84
-23.0,-6.0,3.841
-32.0,-13.0,3.842
-14.0,-10.0,3.843
8.0,-14.0,3.844
1.0,-26.0,3.845
-34.0,-33.0,3.846
-59.0,-31.0,3.847
-42.0,-22.0,3.848
8.0,-10.0,3.849
47.0,2.0,3.85
55.0,15.0,3.851
51.0,20.0,3.852
57.0,21.0,3.853
69.0,20.0,3.854
80.0,14.0,3.855
95.0,-3.0,3.856
105.0,-24.0,3.857
87.0,-38.0,3.858
43.0,-34.0,3.859
8.0,-20.0,3.86
-2.0,-9.0,3.861
-12.0,0.0,3.862
-36.0,9.0,3.863
-44.0,16.0,3.864
-22.0,17.0,3.865
-13.0,23.0,3.866
-50.0,41.0,3.867
-110.0,66.0,3.868
-132.0,77.0,3.869
-98.0,59.0,3.87
-43.0,34.0,3.871
-5.0,18.0,3.872
13.0,4.0,3.873
25.0,-27.0,3.874
39.0,-69.0,3.875
50.0,-98.0,3.876
47.0,-106.0,3.877
37.0,-109.0,3.878
25.0,-106.0,3.879
11.0,-81.0,3.88
-13.0,-31.0,3.881
-33.0,28.0,3.882
-33.0,78.0,3.883
-17.0,125.0,3.884
-2.0,170.0,3.885
3.0,195.0,3.886
8.0,167.0,3.887
9.0,79.0,3.888
-1.0,-42.0,3.889
-11.0,-155.0,3.89
-7.0,-224.0,3.891
14.0,-239.0,3.892
30.0,-218.0,3.893
27.0,-183.0,3.894
15.0,-138.0,3.895
11.0,-78.0,3.896
16.0,-16.0,3.897
19.0,33.0,3.898
15.0,61.0,3.899
2.0,77.0,3.9
-5.0,84.0,3.901
-1.0,82.0,3.902
14.0,69.0,3.903
20.0,60.0,3.904
11.0,62.0,3.905
-5.0,62.0,3.906
-8.0,53.0,3.907
1.0,40.0,3.908
9.0,37.0,3.909
10.0,36.0,3.91
5.0,32.0,3.911
-3.0,21.0,3.912
-16.0,13.0,3.913
-30.0,10.0,3.914
-35.0,9.0,3.915
-34.0,11.0,3.916
-38.0,13.0,3.917
-55.0,12.0,3.918
-68.0,9.0,3.919
-54.0,5.0,3.92
-13.0,2.0,3.921
36.0,-1.0,3.922
68.0,-1.0,3.923
70.0,-1.0,3.924
62.0,-1.0,3.925
61.0,-3.0,3.926
65.0,-8.0,3.927
59.0,-12.0,3.928
40.0,-7.0,3.929
23.0,-3.0,3.93
13.0,-7.0,3.931
4.0,-10.0,3.932
-6.0,-11.0,3.933
-15.0,-12.0,3.934
-16.0,-10.0,3.935
-13.0,-9.0,3.936
-16.0,-8.0,3.937
-30.0,-7.0,3.938
-44.0,-3.0,3.939
-51.0,2.0,3.94
-33.0,1.0,3.941
-14.0,-2.0,3.942
7.0,-6.0,3.943
21.0,-2.0,3.944
15.0,2.0,3.945
11.0,0.0,3.946
10.0,-7.0,3.947
7.0,-10.0,3.948
1.0,-9.0,3.949
-4.0,-9.0,3.95
-4.0,-12.0,3.951
-2.0,-13.0,3.952
11.0,-11.0,3.953
20.0,-10.0,3.954
14.0,-9.0,3.955
16.0,-6.0,3.956
46.0,-3.0,3.957
73.0,-1.0,3.958
63.0,0.0,3.959
27.0,3.0,3.96
1.0,2.0,3.961
-3.0,1.0,3.962
-4.0,-2.0,3.963
-13.0,-1.0,3.964
-20.0,4.0,3.965
-17.0,9.0,3.966
-18.0,10.0,3.967
-29.0,8.0,3.968
-40.0,5.0,3.969
-38.0,2.0,3.97
-22.0,-1.0,3.971
-10.0,-3.0,3.972
0.0,-2.0,3.973
8.0,0.0,3.974
12.0,2.0,3.975
13.0,1.0,3.976
14.0,2.0,3.977
12.0,2.0,3.978
6.0,4.0,3.979
1.0,4.0,3.98
1.0,0.0,3.981
0.0,-1.0,3.982
3.0,0.0,3.983
6.0,4.0,3.984
6.0,6.0,3.985
4.0,3.0,3.986
2.0,-2.0,3.987
3.0,-6.0,3.988
13.0,-4.0,3.989
21.0,-3.0,3.99
18.0,-2.0,3.991
15.0,-3.0,3.992
11.0,-4.0,3.993
8.0,-3.0,3.994
7.0,-2.0,3.995
4.0,-2.0,3.996
-1.0,-2.0,3.997
-6.0,-3.0,3.998
-7.0,-1.0,3.999
-19.0,-1.0,4.0
-34.0,-8.0,4.001
-37.0,-10.0,4.002
-24.0,-7.0,4.003
-9.0,-1.0,4.004
-3.0,0.0,4.005
0.0,0.0,4.006
5.0,2.0,4.007
10.0,4.0,4.008
14.0,2.0,4.009
19.0,-3.0,4.01
25.0,-6.0,4.011
24.0,-3.0,4.012
12.0,-3.0,4.013
-3.0,-4.0,4.014
-6.0,-5.0,4.015
2.0,-3.0,4.016
6.0,1.0,4.017
1.0,3.0,4.018
-2.0,2.0,4.019
-1.0,3.0,4.02
-3.0,3.0,4.021
-6.0,5.0,4.022
-6.0,4.0,4.023
-1.0,0.0,4.024
0.0,-1.0,4.025
-5.0,0.0,4.026
-8.0,0.0,4.027
-3.0,-6.0,4.028
5.0,-10.0,4.029
9.0,-10.0,4.03
10.0,-7.0,4.031
13.0,-7.0,4.032
14.0,-8.0,4.033
12.0,-5.0,4.034
12.0,-1.0,4.035
13.0,1.0,4.036
13.0,5.0,4.037
5.0,5.0,4.038
-1.0,5.0,4.039
-3.0,5.0,4.04
-3.0,2.0,4.041
-3.0,2.0,4.042
-2.0,3.0,4.043
5.0,6.0,4.044
9.0,11.0,4.045
6.0,13.0,4.046
4.0,6.0,4.047
9.0,-4.0,4.048
14.0,-11.0,4.049
9.0,-7.0,4.05
0.0,-2.0,4.051
-4.0,-5.0,4.052
-3.0,-8.0,4.053
-2.0,-5.0,4.054
-6.0,0.0,4.055
-9.0,1.0,4.056
-7.0,2.0,4.057
-7.0,-1.0,4.058
-9.0,-1.0,4.059
-15.0,-3.0,4.06
-12.0,-7.0,4.061
-1.0,-7.0,4.062
11.0,-7.0,4.063
16.0,-6.0,4.064
13.0,-5.0,4.065
5.0,-2.0,4.066
0.0,4.0,4.067
0.0,12.0,4.068
5.0,15.0,4.069
10.0,11.0,4.07
12.0,2.0,4.071
15.0,-4.0,4.072
20.0,-5.0,4.073
24.0,-3.0,4.074
18.0,-2.0,4.075
5.0,-3.0,4.076
-1.0,-2.0,4.077
-3.0,-2.0,4.078
-2.0,1.0,4.079
-4.0,1.0,4.08
-8.0,-4.0,4.081
-16.0,-4.0,4.082
-28.0,-3.0,4.083
-29.0,0.0,4.084
-7.0,2.0,4.085
31.0,1.0,4.086
50.0,-1.0,4.087
32.0,-5.0,4.088
-4.0,-7.0,4.089
-25.0,-6.0,4.09
-16.0,-3.0,4.091
3.0,-4.0,4.092
10.0,-8.0,4.093
9.0,-9.0,4.094
11.0,-6.0,4.095
20.0,-4.0,4.096
23.0,-3.0,4.097
12.0,-1.0,4.098
-2.0,4.0,4.099
-9.0,7.0,4.1
-13.0,1.0,4.101
-20.0,0.0,4.102
-20.0,7.0,4.103
-3.0,12.0,4.104
12.0,11.0,4.105
11.0,7.0,4.106
3.0,4.0,4.107
11.0,-1.0,4.108
21.0,-5.0,4.109
17.0,-5.0,4.11
6.0,-6.0,4.111
8.0,-9.0,4.112
19.0,-15.0,4.113
18.0,-15.0,4.114
3.0,-11.0,4.115
-3.0,-8.0,4.116
1.0,0.0,4.117
-2.0,8.0,4.118
-13.0,13.0,4.119
-19.0,4.0,4.12
-13.0,-10.0,4.121
-9.0,-10.0,4.122
-15.0,6.0,4.123
-17.0,16.0,4.124
-9.0,14.0,4.125
-2.0,13.0,4.126
-3.0,17.0,4.127
-4.0,15.0,4.128
1.0,3.0,4.129
4.0,-8.0,4.13
-2.0,-9.0,4.131
-15.0,-7.0,4.132
-22.0,-11.0,4.133
-21.0,-20.0,4.134
-13.0,-24.0,4.135
1.0,-18.0,4.136
18.0,-9.0,4.137
31.0,-3.0,4.138
33.0,5.0,4.139
28.0,10.0,4.14
29.0,15.0,4.141
33.0,21.0,4.142
28.0,24.0,4.143
3.0,20.0,4.144
-25.0,13.0,4.145
-29.0,8.0,4.146
-5.0,-1.0,4.147
26.0,-12.0,4.148
38.0,-19.0,4.149
30.0,-22.0,4.15
18.0,-25.0,4.151
14.0,-30.0,4.152
9.0,-27.0,4.153
-1.0,-9.0,4.154
-9.0,9.0,4.155
-6.0,17.0,4.156
12.0,23.0,4.157
37.0,36.0,4.158
53.0,43.0,4.159
37.0,31.0,4.16
-9.0,5.0,4.161
-53.0,-6.0,4.162
-63.0,-8.0,4.163
-51.0,-10.0,4.164
-44.0,-15.0,4.165
-36.0,-12.0,4.166
-2.0,-5.0,4.167
44.0,-5.0,4.168
61.0,-8.0,4.169
32.0,-6.0,4.17
-15.0,-7.0,4.171
-51.0,-10.0,4.172
-69.0,-10.0,4.173
-66.0,-5.0,4.174
-34.0,-2.0,4.175
9.0,-10.0,4.176
35.0,-13.0,4.177
46.0,-7.0,4.178
56.0,1.0,4.179
57.0,7.0,4.18
29.0,5.0,4.181
-13.0,5.0,4.182
-25.0,14.0,4.183
-8.0,20.0,4.184
0.0,12.0,4.185
-16.0,3.0,4.186
-22.0,-2.0,4.187
-6.0,-8.0,4.188
12.0,-14.0,4.189
10.0,-19.0,4.19
7.0,-21.0,4.191
12.0,-21.0,4.192
13.0,-13.0,4.193
-1.0,-4.0,4.194
-14.0,1.0,4.195
-15.0,9.0,4.196
-11.0,18.0,4.197
-14.0,28.0,4.198
-12.0,31.0,4.199
-11.0,23.0,4.2
-10.0,6.0,4.201
-7.0,-3.0,4.202
1.0,-4.0,4.203
10.0,-5.0,4.204
24.0,-11.0,4.205
33.0,-13.0,4.206
25.0,-6.0,4.207
18.0,0.0,4.208
20.0,-2.0,4.209
27.0,-12.0,4.21
47.0,-20.0,4.211
61.0,-26.0,4.212
58.0,-29.0,4.213
54.0,-26.0,4.214
51.0,-15.0,4.215
46.0,-7.0,4.216
40.0,-3.0,4.217
21.0,-2.0,4.218
-39.0,5.0,4.219
-75.0,24.0,4.22
-61.0,45.0,4.221
-36.0,58.0,4.222
-35.0,53.0,4.223
-46.0,36.0,4.224
-49.0,18.0,4.225
-49.0,6.0,4.226
-44.0,-2.0,4.227
-28.0,-8.0,4.228
-5.0,-8.0,4.229
-3.0,-8.0,4.23
-34.0,-9.0,4.231
-68.0,-13.0,4.232
-72.0,-14.0,4.233
-36.0,-11.0,4.234
19.0,-9.0,4.235
69.0,-10.0,4.236
91.0,-8.0,4.237
84.0,-6.0,4.238
68.0,-4.0,4.239
60.0,-6.0,4.24
61.0,-12.0,4.241
66.0,-12.0,4.242
63.0,-7.0,4.243
39.0,-2.0,4.244
11.0,0.0,4.245
9.0,0.0,4.246
26.0,3.0,4.247
19.0,5.0,4.248
-20.0,5.0,4.249
-43.0,-2.0,4.25
-16.0,-8.0,4.251
26.0,-8.0,4.252
34.0,-3.0,4.253
19.0,2.0,4.254
4.0,3.0,4.255
-13.0,-3.0,4.256
-35.0,-8.0,4.257
-46.0,-14.0,4.258
-33.0,-16.0,4.259
-27.0,-14.0,4.26
-51.0,-13.0,4.261
-70.0,-12.0,4.262
-55.0,-13.0,4.263
-37.0,-16.0,4.264
-50.0,-25.0,4.265
-65.0,-40.0,4.266
-34.0,-50.0,4.267
23.0,-39.0,4.268
49.0,0.0,4.269
36.0,48.0,4.27
30.0,79.0,4.271
48.0,85.0,4.272
62.0,81.0,4.273
59.0,77.0,4.274
46.0,68.0,4.275
27.0,48.0,4.276
2.0,32.0,4.277
-17.0,26.0,4.278
-19.0,24.0,4.279
-23.0,15.0,4.28
-54.0,-10.0,4.281
-85.0,-29.0,4.282
-72.0,-32.0,4.283
-21.0,-25.0,4.284
12.0,-26.0,4.285
-5.0,-33.0,4.286
-43.0,-20.0,4.287
-50.0,15.0,4.288
0.0,47.0,4.289
79.0,43.0,4.29
130.0,3.0,4.291
125.0,-38.0,4.292
101.0,-53.0,4.293
107.0,-44.0,4.294
124.0,-28.0,4.295
95.0,-20.0,4.296
32.0,-17.0,4.297
-9.0,-17.0,4.298
-27.0,-16.0,4.299
-36.0,-12.0,4.3
-16.0,-11.0,4.301
6.0,-9.0,4.302
30.0,-7.0,4.303
37.0,-5.0,4.304
-4.0,-3.0,4.305
-42.0,-4.0,4.306
-68.0,-7.0,4.307
-91.0,-9.0,4.308
-107.0,-9.0,4.309
-104.0,-8.0,4.31
-42.0,-10.0,4.311
-4.0,-17.0,4.312
-40.0,-22.0,4.313
-59.0,-19.0,4.314
-26.0,-12.0,4.315
-1.0,-9.0,4.316
-3.0,-9.0,4.317
-10.0,-4.0,4.318
-6.0,9.0,4.319
11.0,21.0,4.32
7.0,27.0,4.321
-8.0,33.0,4.322
3.0,38.0,4.323
30.0,34.0,4.324
35.0,19.0,4.325
21.0,6.0,4.326
18.0,4.0,4.327
26.0,7.0,4.328
27.0,2.0,4.329
16.0,-3.0,4.33
10.0,-5.0,4.331
4.0,-4.0,4.332
-12.0,-4.0,4.333
-29.0,-7.0,4.334
-32.0,-5.0,4.335
-22.0,-1.0,4.336
-6.0,-1.0,4.337
30.0,-3.0,4.338
60.0,-3.0,4.339
80.0,0.0,4.34
80.0,-4.0,4.341
55.0,-9.0,4.342
5.0,-9.0,4.343
-43.0,-8.0,4.344
-45.0,-8.0,4.345
-8.0,-9.0,4.346
16.0,-10.0,4.347
3.0,-11.0,4.348
-9.0,-10.0,4.349
5.0,-7.0,4.35
20.0,-2.0,4.351
11.0,-1.0,4.352
1.0,-2.0,4.353
15.0,3.0,4.354
23.0,22.0,4.355
7.0,35.0,4.356
-7.0,32.0,4.357
-1.0,13.0,4.358
7.0,-2.0,4.359
-3.0,0.0,4.36
-19.0,5.0,4.361
-17.0,5.0,4.362
-7.0,2.0,4.363
-6.0,9.0,4.364
-8.0,20.0,4.365
2.0,15.0,4.366
19.0,-2.0,4.367
28.0,-9.0,4.368
28.0,-3.0,4.369
22.0,-1.0,4.37
16.0,-9.0,4.371
21.0,-11.0,4.372
40.0,-5.0,4.373
54.0,-4.0,4.374
29.0,-11.0,4.375
-30.0,-11.0,4.376
-75.0,6.0,4.377
-75.0,23.0,4.378
-47.0,25.0,4.379
-30.0,10.0,4.38
-50.0,-13.0,4.381
-57.0,-30.0,4.382
-20.0,-26.0,4.383
18.0,-4.0,4.384
59.0,17.0,4.385
84.0,13.0,4.386
61.0,-5.0,4.387
30.0,-14.0,4.388
-24.0,-9.0,4.389
-68.0,-6.0,4.39
-79.0,-14.0,4.391
-74.0,-20.0,4.392
-16.0,-17.0,4.393
31.0,-13.0,4.394
49.0,-14.0,4.395
61.0,-16.0,4.396
50.0,-15.0,4.397
43.0,-21.0,4.398
50.0,-26.0,4.399
53.0,-23.0,4.4
39.0,-16.0,4.401
18.0,-12.0,4.402
-4.0,-5.0,4.403
-24.0,23.0,4.404
-43.0,64.0,4.405
-50.0,82.0,4.406
-37.0,56.0,4.407
-15.0,18.0,4.408
-9.0,14.0,4.409
-23.0,37.0,4.41
-38.0,43.0,4.411
-32.0,14.0,4.412
-6.0,-24.0,4.413
21.0,-39.0,4.414
32.0,-31.0,4.415
12.0,-17.0,4.416
-32.0,-2.0,4.417
-85.0,18.0,4.418
-97.0,41.0,4.419
-46.0,53.0,4.42
29.0,29.0,4.421
76.0,3.0,4.422
82.0,-26.0,4.423
68.0,-52.0,4.424
40.0,-64.0,4.425
11.0,-75.0,4.426
13.0,-79.0,4.427
57.0,-77.0,4.428
92.0,-53.0,4.429
71.0,-28.0,4.43
32.0,0.0,4.431
17.0,26.0,4.432
10.0,45.0,4.433
-10.0,60.0,4.434
-12.0,60.0,4.435
26.0,62.0,4.436
45.0,66.0,4.437
10.0,60.0,4.438
-19.0,20.0,4.439
-32.0,-3.0,4.44
9.0,2.0,4.441
35.0,6.0,4.442
9.0,-12.0,4.443
-5.0,-26.0,4.444
16.0,-22.0,4.445
32.0,-20.0,4.446
29.0,-30.0,4.447
12.0,-23.0,4.448
-41.0,14.0,4.449
-90.0,43.0,4.45
-118.0,28.0,4.451
-128.0,-4.0,4.452
-85.0,-12.0,4.453
-46.0,-1.0,4.454
-20.0,-3.0,4.455
-4.0,-21.0,4.456
-22.0,-32.0,4.457
-28.0,-28.0,4.458
27.0,-23.0,4.459
77.0,-27.0,4.46
49.0,-33.0,4.461
-3.0,-21.0,4.462
12.0,1.0,4.463
43.0,19.0,4.464
-6.0,23.0,4.465
-73.0,15.0,4.466
-36.0,3.0,4.467
62.0,-6.0,4.468
84.0,-8.0,4.469
35.0,-2.0,4.47
21.0,2.0,4.471
38.0,0.0,4.472
-1.0,-5.0,4.473
-66.0,-7.0,4.474
-49.0,-7.0,4.475
28.0,-9.0,4.476
54.0,-8.0,4.477
1.0,-6.0,4.478
-42.0,0.0,4.479
-37.0,1.0,4.48
-22.0,-6.0,4.481
-15.0,-8.0,4.482
6.0,3.0,4.483
28.0,15.0,4.484
15.0,11.0,4.485
-16.0,-7.0,4.486
-16.0,-23.0,4.487
25.0,-26.0,4.488
73.0,-19.0,4.489
105.0,-11.0,4.49
110.0,-6.0,4.491
84.0,-3.0,4.492
42.0,-2.0,4.493
4.0,-4.0,4.494
-19.0,-1.0,4.495
-32.0,11.0,4.496
-33.0,27.0,4.497
-28.0,40.0,4.498
-29.0,48.0,4.499
-37.0,59.0,4.5
-37.0,70.0,4.501
-25.0,75.0,4.502
-15.0,55.0,4.503
-6.0,15.0,4.504
16.0,-17.0,4.505
46.0,-38.0,4.506
59.0,-65.0,4.507
31.0,-104.0,4.508
-30.0,-129.0,4.509
-96.0,-116.0,4.51
-131.0,-76.0,4.511
-113.0,-20.0,4.512
-66.0,36.0,4.513
-13.0,73.0,4.514
40.0,72.0,4.515
83.0,59.0,4.516
86.0,71.0,4.517
61.0,92.0,4.518
61.0,78.0,4.519
62.0,30.0,4.52
72.0,11.0,4.521
71.0,40.0,4.522
34.0,54.0,4.523
-7.0,24.0,4.524
-62.0,-7.0,4.525
-121.0,-11.0,4.526
-189.0,-20.0,4.527
-212.0,-45.0,4.528
-101.0,-56.0,4.529
-5.0,-42.0,4.53
44.0,-39.0,4.531
84.0,-61.0,4.532
92.0,-75.0,4.533
85.0,-65.0,4.534
31.0,-52.0,4.535
-10.0,-42.0,4.536
-14.0,-13.0,4.537
-3.0,31.0,4.538
64.0,57.0,4.539
132.0,43.0,4.54
167.0,10.0,4.541
167.0,-10.0,4.542
145.0,-23.0,4.543
107.0,-36.0,4.544
50.0,-43.0,4.545
-10.0,-35.0,4.546
-42.0,-11.0,4.547
-34.0,27.0,4.548
-13.0,64.0,4.549
-18.0,74.0,4.55
-58.0,50.0,4.551
-116.0,15.0,4.552
-149.0,-9.0,4.553
-120.0,-16.0,4.554
-32.0,-1.0,4.555
64.0,25.0,4.556
115.0,37.0,4.557
98.0,16.0,4.558
17.0,-2.0,4.559
-92.0,14.0,4.56
-161.0,38.0,4.561
-138.0,30.0,4.562
-63.0,-6.0,4.563
-25.0,-24.0,4.564
-33.0,-13.0,4.565
2.0,-13.0,4.566
105.0,-39.0,4.567
176.0,-61.0,4.568
139.0,-58.0,4.569
58.0,-48.0,4.57
23.0,-36.0,4.571
3.0,-8.0,4.572
-65.0,30.0,4.573
-148.0,43.0,4.574
-170.0,12.0,4.575
-131.0,-28.0,4.576
-73.0,-38.0,4.577
-7.0,-19.0,4.578
62.0,5.0,4.579
101.0,23.0,4.58
85.0,25.0,4.581
49.0,22.0,4.582
26.0,-3.0,4.583
-3.0,-17.0,4.584
-61.0,0.0,4.585
-116.0,14.0,4.586
-123.0,12.0,4.587
-75.0,11.0,4.588
-4.0,19.0,4.589
51.0,24.0,4.59
70.0,18.0,4.591
67.0,17.0,4.592
69.0,30.0,4.593
96.0,37.0,4.594
130.0,24.0,4.595
143.0,10.0,4.596
120.0,-3.0,4.597
67.0,-9.0,4.598
25.0,5.0,4.599
-5.0,-5.0,4.6
0.0,-22.0,4.601
1.0,-19.0,4.602
-9.0,-12.0,4.603
-13.0,-15.0,4.604
7.0,-19.0,4.605
27.0,-14.0,4.606
48.0,-14.0,4.607
63.0,-22.0,4.608
57.0,-26.0,4.609
26.0,-19.0,4.61
-82.0,-17.0,4.611
-152.0,-23.0,4.612
-110.0,-22.0,4.613
-75.0,-11.0,4.614
-60.0,-2.0,4.615
-44.0,-3.0,4.616
-25.0,-4.0,4.617
-36.0,-5.0,4.618
-144.0,-10.0,4.619
-150.0,-17.0,4.62
-31.0,-23.0,4.621
43.0,-14.0,4.622
7.0,2.0,4.623
-16.0,21.0,4.624
35.0,33.0,4.625
64.0,33.0,4.626
20.0,30.0,4.627
-11.0,33.0,4.628
23.0,38.0,4.629
50.0,27.0,4.63
29.0,1.0,4.631
14.0,-9.0,4.632
38.0,-2.0,4.633
50.0,-5.0,4.634
24.0,-30.0,4.635
10.0,-35.0,4.636
31.0,6.0,4.637
55.0,57.0,4.638
63.0,64.0,4.639
63.0,31.0,4.64
41.0,1.0,4.641
-15.0,-2.0,4.642
-61.0,-4.0,4.643
-47.0,-16.0,4.644
-9.0,-25.0,4.645
-17.0,-20.0,4.646
-65.0,-9.0,4.647
-86.0,14.0,4.648
-48.0,48.0,4.649
25.0,70.0,4.65
105.0,58.0,4.651
156.0,26.0,4.652
154.0,7.0,4.653
112.0,5.0,4.654
64.0,-3.0,4.655
5.0,-30.0,4.656
-76.0,-53.0,4.657
-157.0,-58.0,4.658
-171.0,-49.0,4.659
-128.0,-40.0,4.66
-115.0,-38.0,4.661
-157.0,-31.0,4.662
-170.0,-23.0,4.663
-83.0,-19.0,4.664
73.0,-20.0,4.665
220.0,-19.0,4.666
301.0,-16.0,4.667
289.0,-14.0,4.668
179.0,-13.0,4.669
18.0,-12.0,4.67
-105.0,-11.0,4.671
-132.0,-7.0,4.672
-77.0,3.0,4.673
0.0,14.0,4.674
51.0,17.0,4.675
65.0,16.0,4.676
59.0,23.0,4.677
33.0,34.0,4.678
-3.0,39.0,4.679
-36.0,29.0,4.68
-47.0,10.0,4.681
-37.0,1.0,4.682
-26.0,1.0,4.683
-23.0,3.0,4.684
-26.0,2.0,4.685
-33.0,-5.0,4.686
-46.0,-17.0,4.687
-51.0,-24.0,4.688
-32.0,-19.0,4.689
2.0,-2.0,4.69
23.0,11.0,4.691
17.0,20.0,4.692
0.0,27.0,4.693
9.0,32.0,4.694
43.0,24.0,4.695
71.0,-2.0,4.696
75.0,-29.0,4.697
48.0,-49.0,4.698
6.0,-51.0,4.699
-39.0,-33.0,4.7
-57.0,1.0,4.701
-35.0,40.0,4.702
-1.0,49.0,4.703
5.0,18.0,4.704
-8.0,-14.0,4.705
-3.0,-14.0,4.706
17.0,0.0,4.707
8.0,0.0,4.708
-39.0,-3.0,4.709
-77.0,12.0,4.71
-69.0,27.0,4.711
-28.0,16.0,4.712
13.0,4.0,4.713
25.0,16.0,4.714
-4.0,30.0,4.715
-59.0,9.0,4.716
-93.0,-23.0,4.717
-67.0,-28.0,4.718
28.0,-14.0,4.719
134.0,-21.0,4.72
186.0,-46.0,4.721
164.0,-41.0,4.722
103.0,-2.0,4.723
42.0,30.0,4.724
-21.0,34.0,4.725
-83.0,23.0,4.726
-130.0,11.0,4.727
-156.0,0.0,4.728
-161.0,-15.0,4.729
-111.0,-35.0,4.73
18.0,-62.0,4.731
159.0,-85.0,4.732
191.0,-82.0,4.733
112.0,-40.0,4.734
43.0,31.0,4.735
44.0,109.0,4.736
49.0,159.0,4.737
2.0,139.0,4.738
-37.0,45.0,4.739
-16.0,-56.0,4.74
15.0,-86.0,4.741
2.0,-47.0,4.742
-16.0,-7.0,4.743
15.0,6.0,4.744
62.0,14.0,4.745
66.0,22.0,4.746
41.0,4.0,4.747
20.0,-22.0,4.748
-4.0,-5.0,4.749
-49.0,56.0,4.75
-75.0,97.0,4.751
-42.0,77.0,4.752
18.0,28.0,4.753
52.0,-10.0,4.754
58.0,-27.0,4.755
33.0,-32.0,4.756
-44.0,-25.0,4.757
-166.0,-17.0,4.758
-206.0,-20.0,4.759
-81.0,-30.0,4.76
73.0,-33.0,4.761
65.0,-28.0,4.762
-74.0,-23.0,4.763
-143.0,-18.0,4.764
-70.0,-11.0,4.765
38.0,-13.0,4.766
114.0,-26.0,4.767
190.0,-35.0,4.768
234.0,-30.0,4.769
162.0,-20.0,4.77
11.0,-20.0,4.771
-66.0,-19.0,4.772
-24.0,-7.0,4.773
28.0,7.0,4.774
8.0,13.0,4.775
-38.0,10.0,4.776
-58.0,9.0,4.777
-72.0,8.0,4.778
-95.0,7.0,4.779
-98.0,11.0,4.78
-59.0,12.0,4.781
-11.0,16.0,4.782
12.0,24.0,4.783
8.0,37.0,4.784
-8.0,47.0,4.785
-27.0,41.0,4.786
-28.0,21.0,4.787
2.0,-2.0,4.788
40.0,-22.0,4.789
52.0,-38.0,4.79
45.0,-49.0,4.791
36.0,-48.0,4.792
20.0,-37.0,4.793
-3.0,-23.0,4.794
-11.0,-15.0,4.795
9.0,-11.0,4.796
23.0,-10.0,4.797
7.0,-8.0,4.798
-17.0,-6.0,4.799
-17.0,-2.0,4.8
-7.0,-1.0,4.801
-10.0,3.0,4.802
-13.0,13.0,4.803
8.0,26.0,4.804
37.0,32.0,4.805
48.0,31.0,4.806
45.0,27.0,4.807
41.0,23.0,4.808
28.0,20.0,4.809
0.0,15.0,4.81
-25.0,8.0,4.811
-22.0,2.0,4.812
-2.0,0.0,4.813
13.0,2.0,4.814
16.0,6.0,4.815
13.0,9.0,4.816
0.0,11.0,4.817
-23.0,4.0,4.818
-43.0,-3.0,4.819
-44.0,-8.0,4.82
-24.0,-6.0,4.821
-3.0,-4.0,4.822
11.0,-5.0,4.823
21.0,-9.0,4.824
30.0,-22.0,4.825
28.0,-35.0,4.826
19.0,-46.0,4.827
11.0,-48.0,4.828
7.0,-22.0,4.829
2.0,0.0,4.83
-2.0,5.0,4.831
8.0,12.0,4.832
38.0,21.0,4.833
70.0,27.0,4.834
71.0,22.0,4.835
25.0,18.0,4.836
-45.0,18.0,4.837
-98.0,19.0,4.838
-88.0,18.0,4.839
-35.0,7.0,4.84
-1.0,-4.0,4.841
1.0,-6.0,4.842
19.0,-6.0,4.843
62.0,-8.0,4.844
75.0,-11.0,4.845
29.0,-17.0,4.846
-20.0,-25.0,4.847
-18.0,-28.0,4.848
-2.0,-23.0,4.849
-16.0,-14.0,4.85
-44.0,-7.0,4.851
-55.0,5.0,4.852
-58.0,23.0,4.853
-56.0,38.0,4.854
-11.0,35.0,4.855
75.0,9.0,4.856
126.0,-17.0,4.857
91.0,-27.0,4.858
17.0,-9.0,4.859
-19.0,23.0,4.86
-25.0,43.0,4.861
-39.0,43.0,4.862
-43.0,29.0,4.863
-15.0,12.0,4.864
18.0,1.0,4.865
30.0,4.0,4.866
43.0,19.0,4.867
78.0,42.0,4.868
81.0,63.0,4.869
20.0,72.0,4.87
-51.0,70.0,4.871
-81.0,61.0,4.872
-103.0,50.0,4.873
-163.0,33.0,4.874
-207.0,10.0,4.875
-140.0,-14.0,4.876
22.0,-35.0,4.877
189.0,-56.0,4.878
264.0,-71.0,4.879
220.0,-87.0,4.88
100.0,-110.0,4.881
-15.0,-129.0,4.882
-42.0,-133.0,4.883
18.0,-122.0,4.884
68.0,-106.0,4.885
40.0,-96.0,4.886
-6.0,-85.0,4.887
2.0,-66.0,4.888
22.0,-42.0,4.889
-22.0,-16.0,4.89
-97.0,14.0,4.891
-111.0,41.0,4.892
-65.0,56.0,4.893
-28.0,59.0,4.894
-21.0,59.0,4.895
-12.0,55.0,4.896
-1.0,48.0,4.897
-8.0,40.0,4.898
-18.0,41.0,4.899
-4.0,51.0,4.9
18.0,54.0,4.901
16.0,46.0,4.902
-2.0,31.0,4.903
-11.0,24.0,4.904
-7.0,36.0,4.905
10.0,59.0,4.906
36.0,66.0,4.907
42.0,43.0,4.908
3.0,12.0,4.909
-47.0,9.0,4.91
-45.0,40.0,4.911
6.0,76.0,4.912
40.0,82.0,4.913
20.0,45.0,4.914
-5.0,-19.0,4.915
15.0,-72.0,4.916
63.0,-88.0,4.917
89.0,-83.0,4.918
68.0,-85.0,4.919
10.0,-95.0,4.92
-46.0,-94.0,4.921
-78.0,-75.0,4.922
-73.0,-61.0,4.923
-39.0,-65.0,4.924
1.0,-66.0,4.925
39.0,-41.0,4.926
80.0,1.0,4.927
115.0,44.0,4.928
109.0,72.0,4.929
42.0,75.0,4.93
-37.0,50.0,4.931
-63.0,19.0,4.932
-40.0,18.0,4.933
-18.0,42.0,4.934
-20.0,60.0,4.935
-23.0,56.0,4.936
-17.0,50.0,4.937
-19.0,49.0,4.938
-26.0,37.0,4.939
-22.0,11.0,4.94
-7.0,-18.0,4.941
2.0,-33.0,4.942
-2.0,-43.0,4.943
-11.0,-50.0,4.944
-14.0,-39.0,4.945
-8.0,-17.0,4.946
3.0,-2.0,4.947
17.0,1.0,4.948
22.0,2.0,4.949
29.0,7.0,4.95
45.0,7.0,4.951
50.0,4.0,4.952
17.0,0.0,4.953
-28.0,-2.0,4.954
-40.0,-8.0,4.955
-19.0,-16.0,4.956
-2.0,-14.0,4.957
-2.0,-10.0,4.958
2.0,-12.0,4.959
13.0,-20.0,4.96
17.0,-27.0,4.961
20.0,-24.0,4.962
41.0,-13.0,4.963
65.0,-4.0,4.964
51.0,4.0,4.965
-4.0,4.0,4.966
-65.0,-10.0,4.967
-94.0,-30.0,4.968
-91.0,-42.0,4.969
-72.0,-38.0,4.97
-45.0,-28.0,4.971
-11.0,-14.0,4.972
24.0,0.0,4.973
44.0,15.0,4.974
41.0,24.0,4.975
25.0,20.0,4.976
17.0,15.0,4.977
14.0,20.0,4.978
14.0,41.0,4.979
29.0,66.0,4.98
64.0,81.0,4.981
79.0,80.0,4.982
36.0,63.0,4.983
-48.0,34.0,4.984
-110.0,4.0,4.985
-121.0,-16.0,4.986
-89.0,-24.0,4.987
-33.0,-24.0,4.988
26.0,-19.0,4.989
55.0,-13.0,4.99
40.0,-15.0,4.991
10.0,-31.0,4.992
0.0,-46.0,4.993
13.0,-45.0,4.994
41.0,-31.0,4.995
96.0,-24.0,4.996
154.0,-22.0,4.997
144.0,-24.0,4.998
54.0,-25.0,4.999
-24.0,-25.0,5.0
-70.0,-19.0,5.001
-103.0,5.0,5.002
-91.0,31.0,5.003
-73.0,40.0,5.004
-42.0,35.0,5.005
-15.0,41.0,5.006
-3.0,55.0,5.007
5.0,59.0,5.008
-3.0,40.0,5.009
-11.0,13.0,5.01
-15.0,-4.0,5.011
-6.0,-6.0,5.012
43.0,1.0,5.013
73.0,13.0,5.014
37.0,12.0,5.015
7.0,-6.0,5.016
-2.0,-30.0,5.017
0.0,-51.0,5.018
49.0,-62.0,5.019
101.0,-69.0,5.02
109.0,-77.0,5.021
41.0,-69.0,5.022
-44.0,-42.0,5.023
-61.0,-7.0,5.024
-16.0,15.0,5.025
5.0,14.0,5.026
-17.0,2.0,5.027
-23.0,0.0,5.028
3.0,6.0,5.029
5.0,2.0,5.03
-34.0,-19.0,5.031
-46.0,-40.0,5.032
-3.0,-40.0,5.033
33.0,-27.0,5.034
10.0,-6.0,5.035
-39.0,19.0,5.036
-55.0,40.0,5.037
-30.0,43.0,5.038
6.0,39.0,5.039
24.0,51.0,5.04
13.0,75.0,5.041
-12.0,75.0,5.042
-22.0,38.0,5.043
-10.0,11.0,5.044
2.0,25.0,5.045
18.0,42.0,5.046
50.0,25.0,5.047
73.0,-4.0,5.048
40.0,-2.0,5.049
-21.0,18.0,5.05
-35.0,18.0,5.051
9.0,2.0,5.052
31.0,0.0,5.053
-21.0,6.0,5.054
-100.0,0.0,5.055
-141.0,-14.0,5.056
-126.0,-18.0,5.057
-54.0,-21.0,5.058
50.0,-33.0,5.059
114.0,-42.0,5.06
95.0,-28.0,5.061
41.0,3.0,5.062
25.0,23.0,5.063
34.0,23.0,5.064
26.0,23.0,5.065
38.0,24.0,5.066
111.0,14.0,5.067
166.0,2.0,5.068
109.0,7.0,5.069
-13.0,22.0,5.07
-86.0,21.0,5.071
-83.0,5.0,5.072
-53.0,-1.0,5.073
-22.0,6.0,5.074
1.0,7.0,5.075
-9.0,-5.0,5.076
-39.0,-16.0,5.077
-28.0,-22.0,5.078
42.0,-35.0,5.079
77.0,-60.0,5.08
26.0,-83.0,5.081
-40.0,-86.0,5.082
-54.0,-72.0,5.083
-55.0,-58.0,5.084
-80.0,-51.0,5.085
-81.0,-52.0,5.086
-28.0,-56.0,5.087
16.0,-51.0,5.088
13.0,-31.0,5.089
13.0,-5.0,5.09
50.0,20.0,5.091
63.0,53.0,5.092
7.0,101.0,5.093
-62.0,137.0,5.094
-62.0,124.0,5.095
-11.0,71.0,5.096
26.0,30.0,5.097
20.0,10.0,5.098
-10.0,-8.0,5.099
-35.0,-52.0,5.1
-33.0,-101.0,5.101
6.0,-107.0,5.102
63.0,-69.0,5.103
94.0,-25.0,5.104
88.0,1.0,5.105
73.0,27.0,5.106
78.0,63.0,5.107
97.0,89.0,5.108
98.0,86.0,5.109
66.0,62.0,5.11
-2.0,47.0,5.111
-96.0,39.0,5.112
-172.0,15.0,5.113
-180.0,-29.0,5.114
-119.0,-61.0,5.115
-55.0,-54.0,5.116
-32.0,-28.0,5.117
-37.0,-15.0,5.118
-43.0,-19.0,5.119
-62.0,-21.0,5.12
-80.0,-29.0,5.121
-37.0,-53.0,5.122
80.0,-69.0,5.123
182.0,-48.0,5.124
196.0,-5.0,5.125
150.0,15.0,5.126
91.0,9.0,5.127
6.0,8.0,5.128
-95.0,25.0,5.129
-139.0,35.0,5.13
-110.0,28.0,5.131
-82.0,18.0,5.132
-71.0,18.0,5.133
-2.0,17.0,5.134
117.0,11.0,5.135
163.0,11.0,5.136
104.0,23.0,5.137
47.0,31.0,5.138
58.0,33.0,5.139
56.0,39.0,5.14
-5.0,53.0,5.141
-34.0,69.0,5.142
11.0,91.0,5.143
36.0,96.0,5.144
-6.0,42.0,5.145
-24.0,-9.0,5.146
22.0,-56.0,5.147
44.0,-97.0,5.148
-2.0,-119.0,5.149
-44.0,-136.0,5.15
-33.0,-135.0,5.151
-19.0,-127.0,5.152
-20.0,-97.0,5.153
-6.0,-64.0,5.154
13.0,-22.0,5.155
-2.0,13.0,5.156
-25.0,28.0,5.157
-24.0,35.0,5.158
-22.0,25.0,5.159
-22.0,49.0,5.16
-34.0,95.0,5.161
-33.0,121.0,5.162
4.0,100.0,5.163
27.0,54.0,5.164
1.0,12.0,5.165
-13.0,-15.0,5.166
7.0,-26.0,5.167
28.0,-17.0,5.168
50.0,8.0,5.169
70.0,30.0,5.17
82.0,25.0,5.171
76.0,1.0,5.172
18.0,-12.0,5.173
-27.0,-10.0,5.174
-35.0,-11.0,5.175
-41.0,-26.0,5.176
-41.0,-40.0,5.177
-46.0,-33.0,5.178
-76.0,-15.0,5.179
-103.0,-11.0,5.18
-85.0,-23.0,5.181
-34.0,-24.0,5.182
8.0,-5.0,5.183
29.0,16.0,5.184
44.0,27.0,5.185
56.0,25.0,5.186
42.0,19.0,5.187
-6.0,16.0,5.188
-53.0,17.0,5.189
-60.0,20.0,5.19
-21.0,14.0,5.191
23.0,-4.0,5.192
25.0,-16.0,5.193
-10.0,-12.0,5.194
-29.0,6.0,5.195
-10.0,12.0,5.196
2.0,-5.0,5.197
-22.0,-46.0,5.198
-33.0,-78.0,5.199
6.0,-72.0,5.2
54.0,-31.0,5.201
58.0,19.0,5.202
30.0,65.0,5.203
20.0,104.0,5.204
36.0,134.0,5.205
48.0,120.0,5.206
41.0,44.0,5.207
26.0,-61.0,5.208
13.0,-139.0,5.209
7.0,-165.0,5.21
7.0,-157.0,5.211
6.0,-129.0,5.212
0.0,-80.0,5.213
2.0,-13.0,5.214
16.0,43.0,5.215
33.0,63.0,5.216
41.0,49.0,5.217
39.0,29.0,5.218
40.0,25.0,5.219
31.0,39.0,5.22
11.0,48.0,5.221
-3.0,52.0,5.222
0.0,66.0,5.223
7.0,83.0,5.224
11.0,73.0,5.225
26.0,19.0,5.226
54.0,-46.0,5.227
69.0,-75.0,5.228
55.0,-48.0,5.229
37.0,6.0,5.23
30.0,42.0,5.231
15.0,39.0,5.232
-33.0,12.0,5.233
-105.0,-8.0,5.234
-165.0,-9.0,5.235
-176.0,1.0,5.236
-118.0,13.0,5.237
117.0,19.0,5.238
75.0,13.0,5.239
18.0,-7.0,5.24
-83.0,-30.0,5.241
-135.0,-29.0,5.242
-21.0,-19.0,5.243
65.0,-29.0,5.244
73.0,-54.0,5.245
84.0,-59.0,5.246
109.0,-34.0,5.247
103.0,-9.0,5.248
-1.0,1.0,5.249
-85.0,23.0,5.25
-114.0,62.0,5.251
-121.0,77.0,5.252
-65.0,49.0,5.253
-30.0,12.0,5.254
-63.0,8.0,5.255
-85.0,24.0,5.256
-74.0,28.0,5.257
57.0,12.0,5.258
35.0,1.0,5.259
5.0,-8.0,5.26
-49.0,-37.0,5.261
-76.0,-65.0,5.262
-16.0,-73.0,5.263
30.0,-66.0,5.264
34.0,-63.0,5.265
40.0,-65.0,5.266
53.0,-54.0,5.267
50.0,-30.0,5.268
-5.0,6.0,5.269
-50.0,57.0,5.27
-65.0,100.0,5.271
-69.0,94.0,5.272
-39.0,40.0,5.273
-21.0,-15.0,5.274
-38.0,-27.0,5.275
-50.0,-12.0,5.276
-44.0,-7.0,5.277
-29.0,-13.0,5.278
3.0,-10.0,5.279
-8.0,-3.0,5.28
-44.0,-14.0,5.281
-59.0,-39.0,5.282
-27.0,-55.0,5.283
38.0,-52.0,5.284
95.0,-38.0,5.285
103.0,-21.0,5.286
57.0,3.0,5.287
10.0,27.0,5.288
13.0,41.0,5.289
49.0,51.0,5.29
55.0,71.0,5.291
4.0,97.0,5.292
-60.0,103.0,5.293
-81.0,66.0,5.294
-49.0,-7.0,5.295
-8.0,-72.0,5.296
-1.0,-81.0,5.297
-33.0,-30.0,5.298
-37.0,36.0,5.299
-24.0,61.0,5.3
-18.0,30.0,5.301
-7.0,-14.0,5.302
45.0,-40.0,5.303
122.0,-40.0,5.304
159.0,-17.0,5.305
132.0,20.0,5.306
88.0,45.0,5.307
79.0,36.0,5.308
98.0,14.0,5.309
106.0,12.0,5.31
69.0,28.0,5.311
-25.0,28.0,5.312
-136.0,12.0,5.313
-174.0,4.0,5.314
-81.0,5.0,5.315
70.0,-9.0,5.316
131.0,-28.0,5.317
29.0,-27.0,5.318
-155.0,-12.0,5.319
-263.0,-25.0,5.32
-233.0,-63.0,5.321
-133.0,-71.0,5.322
-59.0,-36.0,5.323
-40.0,-23.0,5.324
-50.0,-73.0,5.325
-63.0,-128.0,5.326
-58.0,-111.0,5.327
-9.0,-33.0,5.328
70.0,26.0,5.329
124.0,40.0,5.33
111.0,49.0,5.331
64.0,76.0,5.332
46.0,96.0,5.333
58.0,83.0,5.334
52.0,57.0,5.335
25.0,50.0,5.336
13.0,53.0,5.337
13.0,23.0,5.338
-14.0,-25.0,5.339
-60.0,-41.0,5.34
-62.0,-5.0,5.341
10.0,35.0,5.342
114.0,16.0,5.343
204.0,-41.0,5.344
255.0,-71.0,5.345
223.0,-48.0,5.346
80.0,0.0,5.347
-90.0,42.0,5.348
-146.0,61.0,5.349
-76.0,49.0,5.35
-22.0,12.0,5.351
-66.0,-9.0,5.352
-126.0,3.0,5.353
-105.0,10.0,5.354
-52.0,-22.0,5.355
-54.0,-49.0,5.356
-81.0,-24.0,5.357
-47.0,19.0,5.358
33.0,3.0,5.359
43.0,-72.0,5.36
-32.0,-123.0,5.361
-52.0,-92.0,5.362
63.0,-32.0,5.363
193.0,-11.0,5.364
185.0,-25.0,5.365
65.0,-36.0,5.366
-25.0,-28.0,5.367
-28.0,-14.0,5.368
-8.0,5.0,5.369
-6.0,30.0,5.37
1.0,48.0,5.371
17.0,46.0,5.372
-4.0,34.0,5.373
-57.0,39.0,5.374
-77.0,55.0,5.375
-34.0,51.0,5.376
11.0,20.0,5.377
4.0,-16.0,5.378
-15.0,-15.0,5.379
10.0,13.0,5.38
55.0,26.0,5.381
38.0,8.0,5.382
-37.0,-19.0,5.383
-83.0,-40.0,5.384
-71.0,-58.0,5.385
-63.0,-68.0,5.386
-99.0,-62.0,5.387
-118.0,-36.0,5.388
-67.0,9.0,5.389
23.0,57.0,5.39
93.0,87.0,5.391
133.0,81.0,5.392
155.0,43.0,5.393
162.0,-2.0,5.394
144.0,-33.0,5.395
105.0,-44.0,5.396
62.0,-32.0,5.397
14.0,8.0,5.398
-35.0,84.0,5.399
-73.0,161.0,5.4
-73.0,178.0,5.401
-53.0,112.0,5.402
32.0,8.0,5.403
87.0,-50.0,5.404
50.0,-41.0,5.405
6.0,-17.0,5.406
-59.0,-17.0,5.407
-85.0,-6.0,5.408
12.0,40.0,5.409
103.0,76.0,5.41
177.0,37.0,5.411
171.0,-51.0,5.412
-75.0,-117.0,5.413
-264.0,-140.0,5.414
-276.0,-148.0,5.415
-238.0,-156.0,5.416
-51.0,-142.0,5.417
91.0,-104.0,5.418
12.0,-70.0,5.419
-135.0,-59.0,5.42
-184.0,-50.0,5.421
-94.0,11.0,5.422
35.0,121.0,5.423
107.0,216.0,5.424
128.0,219.0,5.425
144.0,140.0,5.426
143.0,54.0,5.427
73.0,3.0,5.428
-50.0,-35.0,5.429
-131.0,-66.0,5.43
-104.0,-51.0,5.431
3.0,14.0,5.432
130.0,49.0,5.433
254.0,2.0,5.434
340.0,-69.0,5.435
294.0,-75.0,5.436
93.0,-25.0,5.437
-175.0,13.0,5.438
-287.0,1.0,5.439
-177.0,-29.0,5.44
-38.0,-39.0,5.441
-82.0,-27.0,5.442
-231.0,-20.0,5.443
-218.0,-28.0,5.444
2.0,-37.0,5.445
174.0,-25.0,5.446
128.0,10.0,5.447
47.0,46.0,5.448
146.0,48.0,5.449
294.0,2.0,5.45
224.0,-57.0,5.451
-34.0,-84.0,5.452
-222.0,-61.0,5.453
-238.0,-18.0,5.454
-194.0,8.0,5.455
-147.0,18.0,5.456
-58.0,27.0,5.457
66.0,50.0,5.458
127.0,85.0,5.459
86.0,105.0,5.46
-2.0,78.0,5.461
-84.0,48.0,5.462
-109.0,8.0,5.463
-22.0,-21.0,5.464
132.0,-15.0,5.465
202.0,-16.0,5.466
131.0,-38.0,5.467
51.0,-44.0,5.468
85.0,1.0,5.469
168.0,34.0,5.47
175.0,31.0,5.471
96.0,24.0,5.472
4.0,3.0,5.473
-51.0,-10.0,5.474
-51.0,0.0,5.475
14.0,3.0,5.476
82.0,-18.0,5.477
43.0,-38.0,5.478
-131.0,-42.0,5.479
-295.0,-36.0,5.48
-277.0,-47.0,5.481
-105.0,-69.0,5.482
27.0,-75.0,5.483
17.0,-58.0,5.484
-33.0,-38.0,5.485
4.0,-24.0,5.486
90.0,1.0,5.487
87.0,48.0,5.488
-39.0,83.0,5.489
-167.0,78.0,5.49
-175.0,45.0,5.491
-68.0,27.0,5.492
39.0,38.0,5.493
58.0,53.0,5.494
9.0,43.0,5.495
-20.0,22.0,5.496
7.0,16.0,5.497
47.0,25.0,5.498
82.0,25.0,5.499
129.0,-5.0,5.5
210.0,-55.0,5.501
242.0,-87.0,5.502
123.0,-72.0,5.503
7.0,-13.0,5.504
-102.0,52.0,5.505
-170.0,75.0,5.506
-110.0,44.0,5.507
-64.0,-1.0,5.508
-65.0,-23.0,5.509
-67.0,-19.0,5.51
-67.0,-5.0,5.511
-63.0,5.0,5.512
-51.0,14.0,5.513
-26.0,22.0,5.514
32.0,21.0,5.515
70.0,8.0,5.516
43.0,-4.0,5.517
0.0,-7.0,5.518
-52.0,-3.0,5.519
24.0,-4.0,5.52
183.0,-14.0,5.521
271.0,-16.0,5.522
194.0,-3.0,5.523
-1.0,4.0,5.524
-193.0,-3.0,5.525
-279.0,-4.0,5.526
-219.0,13.0,5.527
-26.0,23.0,5.528
214.0,9.0,5.529
314.0,-6.0,5.53
143.0,3.0,5.531
-163.0,15.0,5.532
-298.0,1.0,5.533
-181.0,-21.0,5.534
-44.0,-25.0,5.535
-56.0,-20.0,5.536
-87.0,-24.0,5.537
-4.0,1.0,5.538
91.0,3.0,5.539
45.0,3.0,5.54
-49.0,-1.0,5.541
-20.0,-6.0,5.542
77.0,-8.0,5.543
83.0,-10.0,5.544
30.0,-12.0,5.545
49.0,-10.0,5.546
114.0,1.0,5.547
106.0,13.0,5.548
41.0,22.0,5.549
24.0,25.0,5.55
48.0,10.0,5.551
33.0,-4.0,5.552
-7.0,-15.0,5.553
1.0,-21.0,5.554
39.0,-10.0,5.555
38.0,1.0,5.556
11.0,13.0,5.557
7.0,2.0,5.558
21.0,6.0,5.559
9.0,6.0,5.56
-18.0,-3.0,5.561
-17.0,-12.0,5.562
4.0,-16.0,5.563
9.0,-20.0,5.564
-3.0,-24.0,5.565
-18.0,-21.0,5.566
-42.0,3.0,5.567
-74.0,26.0,5.568
-68.0,44.0,5.569
-3.0,51.0,5.57
67.0,20.0,5.571
75.0,-8.0,5.572
32.0,-30.0,5.573
-8.0,-42.0,5.574
-20.0,-20.0,5.575
-19.0,2.0,5.576
-17.0,26.0,5.577
-16.0,51.0,5.578
-12.0,65.0,5.579
-7.0,52.0,5.58
19.0,21.0,5.581
83.0,1.0,5.582
177.0,4.0,5.583
249.0,13.0,5.584
229.0,21.0,5.585
83.0,24.0,5.586
-131.0,18.0,5.587
-294.0,1.0,5.588
-307.0,-16.0,5.589
-179.0,-19.0,5.59
-29.0,-11.0,5.591
19.0,-8.0,5.592
-62.0,-10.0,5.593
-194.0,-10.0,5.594
-271.0,-6.0,5.595
-243.0,-7.0,5.596
-154.0,-10.0,5.597
-69.0,-12.0,5.598
-19.0,-6.0,5.599
12.0,8.0,5.6
61.0,21.0,5.601
117.0,34.0,5.602
145.0,32.0,5.603
142.0,4.0,5.604
137.0,-34.0,5.605
136.0,-60.0,5.606
122.0,-61.0,5.607
101.0,-42.0,5.608
92.0,-15.0,5.609
93.0,7.0,5.61
80.0,12.0,5.611
52.0,2.0,5.612
33.0,-8.0,5.613
27.0,-7.0,5.614
20.0,-6.0,5.615
10.0,-8.0,5.616
10.0,-3.0,5.617
14.0,0.0,5.618
8.0,-1.0,5.619
-3.0,-16.0,5.62
-8.0,-31.0,5.621
-9.0,-35.0,5.622
-17.0,-38.0,5.623
-25.0,-37.0,5.624
-22.0,-11.0,5.625
-9.0,36.0,5.626
3.0,66.0,5.627
7.0,53.0,5.628
7.0,25.0,5.629
1.0,17.0,5.63
-8.0,29.0,5.631
-22.0,32.0,5.632
-26.0,18.0,5.633
-21.0,9.0,5.634
-12.0,20.0,5.635
-11.0,33.0,5.636
-9.0,31.0,5.637
1.0,16.0,5.638
23.0,6.0,5.639
44.0,-2.0,5.64
63.0,-6.0,5.641
98.0,-10.0,5.642
146.0,-18.0,5.643
152.0,-24.0,5.644
53.0,-24.0,5.645
-140.0,-23.0,5.646
-323.0,-24.0,5.647
-380.0,-24.0,5.648
-289.0,-18.0,5.649
-129.0,-12.0,5.65
-1.0,-9.0,5.651
50.0,-6.0,5.652
46.0,-4.0,5.653
23.0,-3.0,5.654
3.0,-5.0,5.655
7.0,-8.0,5.656
44.0,-11.0,5.657
90.0,-11.0,5.658
91.0,0.0,5.659
43.0,21.0,5.66
8.0,42.0,5.661
23.0,54.0,5.662
46.0,45.0,5.663
36.0,10.0,5.664
17.0,-26.0,5.665
31.0,-46.0,5.666
49.0,-44.0,5.667
37.0,-32.0,5.668
15.0,-17.0,5.669
18.0,3.0,5.67
34.0,23.0,5.671
30.0,30.0,5.672
21.0,20.0,5.673
34.0,10.0,5.674
64.0,7.0,5.675
90.0,9.0,5.676
113.0,9.0,5.677
135.0,5.0,5.678
123.0,0.0,5.679
41.0,-9.0,5.68
-81.0,-23.0,5.681
-188.0,-31.0,5.682
-230.0,-16.0,5.683
-179.0,3.0,5.684
-54.0,38.0,5.685
50.0,62.0,5.686
37.0,51.0,5.687
-68.0,34.0,5.688
-138.0,0.0,5.689
-113.0,-25.0,5.69
-58.0,-22.0,5.691
-32.0,-24.0,5.692
-9.0,-46.0,5.693
37.0,-59.0,5.694
65.0,-44.0,5.695
53.0,-30.0,5.696
43.0,-17.0,5.697
61.0,-6.0,5.698
92.0,-1.0,5.699
119.0,1.0,5.7
160.0,-4.0,5.701
207.0,-5.0,5.702
194.0,-3.0,5.703
77.0,-2.0,5.704
-96.0,0.0,5.705
-233.0,5.0,5.706
-265.0,8.0,5.707
-195.0,2.0,5.708
-94.0,-6.0,5.709
-40.0,-8.0,5.71
-43.0,-7.0,5.711
-35.0,-4.0,5.712
26.0,11.0,5.713
85.0,40.0,5.714
71.0,58.0,5.715
0.0,45.0,5.716
-44.0,12.0,5.717
-33.0,-11.0,5.718
3.0,-10.0,5.719
25.0,3.0,5.72
33.0,8.0,5.721
43.0,9.0,5.722
54.0,7.0,5.723
61.0,-1.0,5.724
62.0,-9.0,5.725
54.0,-5.0,5.726
42.0,8.0,5.727
41.0,18.0,5.728
68.0,16.0,5.729
108.0,6.0,5.73
134.0,-6.0,5.731
125.0,-16.0,5.732
68.0,-19.0,5.733
-45.0,-14.0,5.734
-157.0,-6.0,5.735
-173.0,1.0,5.736
-71.0,9.0,5.737
55.0,17.0,5.738
67.0,14.0,5.739
-39.0,0.0,5.74
-139.0,-15.0,5.741
-146.0,-14.0,5.742
-91.0,-4.0,5.743
-37.0,6.0,5.744
-10.0,9.0,5.745
-5.0,10.0,5.746
-16.0,9.0,5.747
-23.0,2.0,5.748
-13.0,-5.0,5.749
20.0,-8.0,5.75
60.0,-16.0,5.751
88.0,-34.0,5.752
78.0,-51.0,5.753
34.0,-47.0,5.754
-2.0,-21.0,5.755
-5.0,11.0,5.756
2.0,34.0,5.757
-8.0,45.0,5.758
-13.0,45.0,5.759
18.0,30.0,5.76
66.0,9.0,5.761
73.0,2.0,5.762
25.0,5.0,5.763
-31.0,1.0,5.764
-48.0,-11.0,5.765
-29.0,-16.0,5.766
-8.0,-12.0,5.767
-6.0,-9.0,5.768
-18.0,-13.0,5.769
-26.0,-19.0,5.77
-16.0,-24.0,5.771
25.0,-24.0,5.772
74.0,-19.0,5.773
85.0,-6.0,5.774
26.0,6.0,5.775
-63.0,8.0,5.776
-105.0,5.0,5.777
-74.0,-5.0,5.778
-19.0,-17.0,5.779
16.0,-28.0,5.78
-13.0,-28.0,5.781
-36.0,-7.0,5.782
-36.0,18.0,5.783
-28.0,33.0,5.784
-2.0,32.0,5.785
21.0,20.0,5.786
33.0,-1.0,5.787
44.0,-18.0,5.788
56.0,-12.0,5.789
65.0,12.0,5.79
63.0,29.0,5.791
67.0,23.0,5.792
89.0,5.0,5.793
94.0,-3.0,5.794
43.0,1.0,5.795
-7.0,8.0,5.796
-59.0,10.0,5.797
-99.0,7.0,5.798
-94.0,6.0,5.799
-65.0,4.0,5.8
-28.0,0.0,5.801
-8.0,-5.0,5.802
-17.0,-9.0,5.803
-38.0,-11.0,5.804
-37.0,-9.0,5.805
-3.0,-9.0,5.806
38.0,-15.0,5.807
47.0,-20.0,5.808
23.0,-16.0,5.809
-4.0,-11.0,5.81
-7.0,-7.0,5.811
2.0,-5.0,5.812
13.0,-10.0,5.813
28.0,-15.0,5.814
44.0,-15.0,5.815
37.0,-14.0,5.816
11.0,-16.0,5.817
-7.0,-18.0,5.818
3.0,-15.0,5.819
15.0,5.0,5.82
-2.0,31.0,5.821
-20.0,41.0,5.822
-8.0,25.0,5.823
16.0,-4.0,5.824
17.0,-12.0,5.825
2.0,9.0,5.826
1.0,40.0,5.827
16.0,45.0,5.828
20.0,28.0,5.829
13.0,12.0,5.83
10.0,9.0,5.831
11.0,9.0,5.832
8.0,15.0,5.833
10.0,31.0,5.834
37.0,36.0,5.835
84.0,14.0,5.836
116.0,-20.0,5.837
99.0,-39.0,5.838
43.0,-39.0,5.839
-21.0,-47.0,5.84
-105.0,-73.0,5.841
-154.0,-89.0,5.842
-99.0,-83.0,5.843
-40.0,-64.0,5.844
25.0,-34.0,5.845
55.0,16.0,5.846
-29.0,74.0,5.847
-89.0,112.0,5.848
-78.0,119.0,5.849
-71.0,105.0,5.85
-77.0,76.0,5.851
-76.0,31.0,5.852
-54.0,-7.0,5.853
-46.0,-20.0,5.854
-82.0,-13.0,5.855
-85.0,-12.0,5.856
12.0,-20.0,5.857
95.0,-24.0,5.858
103.0,-15.0,5.859
134.0,-4.0,5.86
231.0,-5.0,5.861
304.0,-11.0,5.862
281.0,-18.0,5.863
210.0,-27.0,5.864
121.0,-36.0,5.865
-23.0,-48.0,5.866
-221.0,-64.0,5.867
-369.0,-83.0,5.868
-382.0,-84.0,5.869
-278.0,-53.0,5.87
-138.0,0.0,5.871
-20.0,44.0,5.872
48.0,68.0,5.873
66.0,81.0,5.874
63.0,88.0,5.875
53.0,75.0,5.876
37.0,44.0,5.877
20.0,4.0,5.878
21.0,-19.0,5.879
34.0,-24.0,5.88
25.0,-22.0,5.881
3.0,-14.0,5.882
21.0,-4.0,5.883
89.0,-4.0,5.884
150.0,-15.0,5.885
170.0,-27.0,5.886
172.0,-43.0,5.887
179.0,-74.0,5.888
152.0,-108.0,5.889
59.0,-108.0,5.89
-75.0,-62.0,5.891
-183.0,3.0,5.892
-220.0,55.0,5.893
-168.0,95.0,5.894
-50.0,128.0,5.895
51.0,139.0,5.896
49.0,118.0,5.897
-67.0,78.0,5.898
-169.0,53.0,5.899
-149.0,44.0,5.9
-49.0,26.0,5.901
4.0,0.0,5.902
7.0,-21.0,5.903
54.0,-33.0,5.904
154.0,-48.0,5.905
210.0,-62.0,5.906
191.0,-63.0,5.907
181.0,-50.0,5.908
199.0,-31.0,5.909
162.0,-9.0,5.91
35.0,9.0,5.911
-87.0,13.0,5.912
-145.0,5.0,5.913
-207.0,8.0,5.914
-309.0,23.0,5.915
-327.0,21.0,5.916
-187.0,0.0,5.917
-7.0,-20.0,5.918
19.0,-20.0,5.919
-77.0,-16.0,5.92
-91.0,-28.0,5.921
5.0,-40.0,5.922
52.0,-42.0,5.923
6.0,-36.0,5.924
1.0,-25.0,5.925
69.0,-8.0,5.926
80.0,10.0,5.927
2.0,9.0,5.928
-28.0,-6.0,5.929
51.0,-13.0,5.93
129.0,-3.0,5.931
135.0,13.0,5.932
123.0,24.0,5.933
122.0,32.0,5.934
84.0,42.0,5.935
27.0,44.0,5.936
17.0,33.0,5.937
47.0,9.0,5.938
49.0,-7.0,5.939
20.0,-11.0,5.94
13.0,-14.0,5.941
1.0,-15.0,5.942
-91.0,-9.0,5.943
-222.0,13.0,5.944
-249.0,36.0,5.945
-125.0,40.0,5.946
39.0,24.0,5.947
139.0,6.0,5.948
189.0,-6.0,5.949
233.0,-15.0,5.95
243.0,-24.0,5.951
159.0,-25.0,5.952
14.0,-22.0,5.953
-82.0,-19.0,5.954
-80.0,-21.0,5.955
-34.0,-18.0,5.956
-13.0,-12.0,5.957
-23.0,-14.0,5.958
-37.0,-21.0,5.959
-39.0,-28.0,5.96
-22.0,-27.0,5.961
17.0,-10.0,5.962
41.0,19.0,5.963
-6.0,45.0,5.964
-120.0,45.0,5.965
-201.0,21.0,5.966
-168.0,-2.0,5.967
-61.0,-8.0,5.968
8.0,-8.0,5.969
-13.0,-9.0,5.97
-57.0,-5.0,5.971
-48.0,13.0,5.972
0.0,25.0,5.973
17.0,12.0,5.974
-9.0,-7.0,5.975
-15.0,-11.0,5.976
33.0,-5.0,5.977
107.0,-8.0,5.978
151.0,-15.0,5.979
130.0,-15.0,5.98
63.0,-15.0,5.981
-18.0,-26.0,5.982
-79.0,-48.0,5.983
-94.0,-56.0,5.984
-58.0,-42.0,5.985
-4.0,-21.0,5.986
13.0,1.0,5.987
-24.0,36.0,5.988
-59.0,85.0,5.989
-37.0,123.0,5.99
16.0,120.0,5.991
34.0,82.0,5.992
13.0,40.0,5.993
11.0,21.0,5.994
39.0,17.0,5.995
47.0,8.0,5.996
24.0,-4.0,5.997
7.0,-17.0,5.998
22.0,-17.0,5.999
36.0,-16.0,6.0
34.0,-26.0,6.001
52.0,-32.0,6.002
97.0,-31.0,6.003
122.0,-29.0,6.004
97.0,-31.0,6.005
46.0,-36.0,6.006
0.0,-40.0,6.007
-64.0,-38.0,6.008
-157.0,-35.0,6.009
-228.0,-32.0,6.01
-213.0,-29.0,6.011
-104.0,-20.0,6.012
22.0,-4.0,6.013
69.0,17.0,6.014
26.0,31.0,6.015
-25.0,29.0,6.016
-13.0,16.0,6.017
30.0,6.0,6.018
29.0,7.0,6.019
-14.0,11.0,6.02
-23.0,6.0,6.021
11.0,2.0,6.022
27.0,6.0,6.023
8.0,11.0,6.024
8.0,13.0,6.025
38.0,6.0,6.026
54.0,-3.0,6.027
54.0,-9.0,6.028
87.0,-13.0,6.029
141.0,-15.0,6.03
143.0,-14.0,6.031
66.0,-12.0,6.032
-31.0,-6.0,6.033
-100.0,1.0,6.034
-116.0,2.0,6.035
-63.0,-5.0,6.036
41.0,-13.0,6.037
130.0,-15.0,6.038
134.0,-10.0,6.039
72.0,-3.0,6.04
18.0,-2.0,6.041
-23.0,1.0,6.042
-86.0,8.0,6.043
-138.0,16.0,6.044
-117.0,22.0,6.045
-40.0,26.0,6.046
8.0,25.0,6.047
-3.0,10.0,6.048
-19.0,-20.0,6.049
-4.0,-59.0,6.05
14.0,-87.0,6.051
4.0,-89.0,6.052
-19.0,-54.0,6.053
-30.0,22.0,6.054
-25.0,114.0,6.055
-13.0,173.0,6.056
4.0,164.0,6.057
28.0,88.0,6.058
53.0,11.0,6.059
67.0,-11.0,6.06
67.0,2.0,6.061
52.0,4.0,6.062
25.0,-20.0,6.063
-7.0,-33.0,6.064
-30.0,-21.0,6.065
-34.0,-13.0,6.066
-24.0,-28.0,6.067
-6.0,-39.0,6.068
37.0,-33.0,6.069
125.0,-23.0,6.07
228.0,-28.0,6.071
274.0,-34.0,6.072
208.0,-24.0,6.073
38.0,-9.0,6.074
-187.0,-9.0,6.075
-377.0,-16.0,6.076
-423.0,-16.0,6.077
-279.0,-8.0,6.078
-63.0,1.0,6.079
30.0,5.0,6.08
-31.0,0.0,6.081
-82.0,-5.0,6.082
-19.0,-7.0,6.083
61.0,-4.0,6.084
48.0,0.0,6.085
0.0,-1.0,6.086
18.0,-3.0,6.087
67.0,-4.0,6.088
63.0,-1.0,6.089
32.0,-2.0,6.09
40.0,-5.0,6.091
66.0,-2.0,6.092
52.0,4.0,6.093
21.0,6.0,6.094
22.0,4.0,6.095
36.0,3.0,6.096
27.0,7.0,6.097
3.0,9.0,6.098
-2.0,8.0,6.099
0.0,6.0,6.1
-10.0,0.0,6.101
-18.0,-6.0,6.102
1.0,-9.0,6.103
23.0,-6.0,6.104
18.0,-3.0,6.105
4.0,-11.0,6.106
7.0,-31.0,6.107
22.0,-52.0,6.108
23.0,-61.0,6.109
17.0,-49.0,6.11
16.0,-16.0,6.111
17.0,31.0,6.112
12.0,75.0,6.113
4.0,98.0,6.114
2.0,90.0,6.115
0.0,66.0,6.116
-7.0,44.0,6.117
-14.0,27.0,6.118
-12.0,15.0,6.119
-12.0,3.0,6.12
-16.0,-7.0,6.121
-15.0,-7.0,6.122
-4.0,3.0,6.123
0.0,9.0,6.124
-5.0,-6.0,6.125
2.0,-28.0,6.126
50.0,-38.0,6.127
118.0,-33.0,6.128
150.0,-27.0,6.129
109.0,-25.0,6.13
11.0,-14.0,6.131
-92.0,4.0,6.132
-156.0,13.0,6.133
-156.0,8.0,6.134
-102.0,-1.0,6.135
-36.0,-3.0,6.136
-2.0,1.0,6.137
-8.0,0.0,6.138
-18.0,-3.0,6.139
-14.0,-6.0,6.14
-13.0,-8.0,6.141
-33.0,-8.0,6.142
-50.0,-8.0,6.143
-43.0,-9.0,6.144
-17.0,-10.0,6.145
18.0,-10.0,6.146
56.0,-7.0,6.147
91.0,-4.0,6.148
104.0,-1.0,6.149
88.0,0.0,6.15
50.0,-1.0,6.151
0.0,0.0,6.152
-35.0,2.0,6.153
-25.0,5.0,6.154
15.0,5.0,6.155
31.0,4.0,6.156
7.0,6.0,6.157
-19.0,8.0,6.158
-7.0,6.0,6.159
10.0,1.0,6.16
-2.0,-5.0,6.161
-18.0,-7.0,6.162
-1.0,-9.0,6.163
29.0,-16.0,6.164
35.0,-20.0,6.165
26.0,-23.0,6.166
26.0,-23.0,6.167
27.0,-13.0,6.168
12.0,8.0,6.169
-6.0,38.0,6.17
-7.0,49.0,6.171
2.0,34.0,6.172
2.0,6.0,6.173
1.0,-5.0,6.174
3.0,3.0,6.175
-1.0,9.0,6.176
-10.0,1.0,6.177
-14.0,-13.0,6.178
-9.0,-17.0,6.179
-13.0,-10.0,6.18
-29.0,-10.0,6.181
-47.0,-11.0,6.182
-68.0,-8.0,6.183
-92.0,0.0,6.184
-99.0,8.0,6.185
-53.0,9.0,6.186
36.0,3.0,6.187
116.0,-12.0,6.188
149.0,-23.0,6.189
143.0,-19.0,6.19
119.0,-4.0,6.191
84.0,3.0,6.192
44.0,4.0,6.193
17.0,9.0,6.194
3.0,16.0,6.195
-4.0,12.0,6.196
-10.0,10.0,6.197
-13.0,24.0,6.198
-14.0,45.0,6.199
-17.0,41.0,6.2
-20.0,10.0,6.201
-29.0,-12.0,6.202
-53.0,-12.0,6.203
-83.0,-3.0,6.204
-91.0,8.0,6.205
-58.0,17.0,6.206
9.0,11.0,6.207
85.0,-25.0,6.208
123.0,-71.0,6.209
87.0,-88.0,6.21
0.0,-68.0,6.211
-64.0,-37.0,6.212
-67.0,-4.0,6.213
-50.0,37.0,6.214
-52.0,66.0,6.215
-48.0,62.0,6.216
-26.0,40.0,6.217
164.0,30.0,6.218
71.0,42.0,6.219
-10.0,51.0,6.22
-62.0,34.0,6.221
-92.0,9.0,6.222
-55.0,-4.0,6.223
-32.0,-4.0,6.224
-45.0,-4.0,6.225
-47.0,-8.0,6.226
-10.0,-14.0,6.227
16.0,-21.0,6.228
15.0,-28.0,6.229
10.0,-36.0,6.23
-5.0,-46.0,6.231
-15.0,-56.0,6.232
-5.0,-61.0,6.233
2.0,-57.0,6.234
5.0,-50.0,6.235
6.0,-41.0,6.236
-2.0,-28.0,6.237
152.0,-16.0,6.238
66.0,-9.0,6.239
-10.0,0.0,6.24
-58.0,16.0,6.241
-86.0,43.0,6.242
-52.0,65.0,6.243
-30.0,73.0,6.244
-42.0,72.0,6.245
-44.0,55.0,6.246
-10.0,13.0,6.247
15.0,-39.0,6.248
14.0,-66.0,6.249
9.0,-58.0,6.25
-5.0,-38.0,6.251
-15.0,-27.0,6.252
-5.0,-21.0,6.253
2.0,-9.0,6.254
5.0,10.0,6.255
6.0,29.0,6.256
-2.0,46.0,6.257
-10.0,48.0,6.258
-15.0,34.0,6.259
-14.0,13.0,6.26
-14.0,-1.0,6.261
-15.0,-4.0,6.262
-6.0,-7.0,6.263
8.0,-9.0,6.264
12.0,1.0,6.265
3.0,8.0,6.266
-3.0,-8.0,6.267
-3.0,-28.0,6.268
-2.0,-15.0,6.269
-8.0,13.0,6.27
-10.0,7.0,6.271
0.0,-33.0,6.272
15.0,-52.0,6.273
28.0,-28.0,6.274
46.0,-3.0,6.275
62.0,-8.0,6.276
59.0,-17.0,6.277
24.0,-6.0,6.278
-12.0,15.0,6.279
-15.0,27.0,6.28
4.0,33.0,6.281
15.0,53.0,6.282
9.0,68.0,6.283
0.0,64.0,6.284
-21.0,51.0,6.285
-60.0,43.0,6.286
-82.0,32.0,6.287
-52.0,9.0,6.288
-6.0,-13.0,6.289
-9.0,-24.0,6.29
-41.0,-35.0,6.291
-31.0,-55.0,6.292
18.0,-70.0,6.293
31.0,-62.0,6.294
-6.0,-40.0,6.295
-20.0,-22.0,6.296
9.0,-7.0,6.297
27.0,9.0,6.298
2.0,29.0,6.299
-22.0,37.0,6.3
-8.0,25.0,6.301
14.0,5.0,6.302
11.0,-9.0,6.303
6.0,-10.0,6.304
19.0,0.0,6.305
31.0,10.0,6.306
26.0,7.0,6.307
24.0,-14.0,6.308
30.0,-38.0,6.309
27.0,-53.0,6.31
17.0,-56.0,6.311
22.0,-49.0,6.312
39.0,-30.0,6.313
38.0,-9.0,6.314
13.0,6.0,6.315
-6.0,10.0,6.316
-9.0,14.0,6.317
-15.0,26.0,6.318
-30.0,45.0,6.319
-44.0,62.0,6.32
-46.0,66.0,6.321
-32.0,53.0,6.322
1.0,28.0,6.323
45.0,4.0,6.324
63.0,-2.0,6.325
37.0,2.0,6.326
-1.0,4.0,6.327
-11.0,4.0,6.328
0.0,8.0,6.329
8.0,10.0,6.33
10.0,-4.0,6.331
20.0,-23.0,6.332
32.0,-23.0,6.333
34.0,-6.0,6.334
32.0,6.0,6.335
38.0,8.0,6.336
39.0,9.0,6.337
13.0,10.0,6.338
-35.0,5.0,6.339
-75.0,0.0,6.34
-80.0,-1.0,6.341
-45.0,-5.0,6.342
5.0,-13.0,6.343
22.0,-20.0,6.344
-15.0,-22.0,6.345
-52.0,-23.0,6.346
-24.0,-16.0,6.347
37.0,-9.0,6.348
43.0,-6.0,6.349
-8.0,-2.0,6.35
-26.0,4.0,6.351
16.0,10.0,6.352
40.0,10.0,6.353
0.0,8.0,6.354
-34.0,-4.0,6.355
-11.0,-16.0,6.356
17.0,-26.0,6.357
2.0,-34.0,6.358
-18.0,-25.0,6.359
-28.0,-7.0,6.36
-5.0,15.0,6.361
17.0,40.0,6.362
35.0,50.0,6.363
49.0,40.0,6.364
50.0,10.0,6.365
43.0,-20.0,6.366
7.0,-39.0,6.367
-21.0,-38.0,6.368
-21.0,-28.0,6.369
-21.0,-20.0,6.37
-19.0,-13.0,6.371
-12.0,-2.0,6.372
13.0,12.0,6.373
29.0,25.0,6.374
17.0,34.0,6.375
8.0,40.0,6.376
8.0,39.0,6.377
9.0,24.0,6.378
4.0,4.0,6.379
-23.0,-5.0,6.38
-50.0,-9.0,6.381
-40.0,-11.0,6.382
10.0,-16.0,6.383
49.0,-13.0,6.384
38.0,-4.0,6.385
1.0,3.0,6.386
-16.0,3.0,6.387
0.0,2.0,6.388
24.0,8.0,6.389
39.0,11.0,6.39
49.0,11.0,6.391
41.0,19.0,6.392
2.0,42.0,6.393
-45.0,56.0,6.394
-58.0,48.0,6.395
-32.0,24.0,6.396
-4.0,7.0,6.397
-3.0,-3.0,6.398
-14.0,-5.0,6.399
-10.0,2.0,6.4
5.0,14.0,6.401
10.0,18.0,6.402
1.0,-6.0,6.403
-5.0,-48.0,6.404
-3.0,-79.0,6.405
7.0,-88.0,6.406
28.0,-89.0,6.407
52.0,-93.0,6.408
57.0,-90.0,6.409
27.0,-72.0,6.41
-16.0,-47.0,6.411
-33.0,-32.0,6.412
-19.0,-27.0,6.413
-5.0,-26.0,6.414
-17.0,-22.0,6.415
-36.0,-13.0,6.416
-34.0,3.0,6.417
-10.0,30.0,6.418
15.0,54.0,6.419
21.0,64.0,6.42
13.0,70.0,6.421
1.0,81.0,6.422
0.0,86.0,6.423
12.0,69.0,6.424
29.0,47.0,6.425
39.0,42.0,6.426
40.0,44.0,6.427
42.0,28.0,6.428
52.0,-1.0,6.429
48.0,-27.0,6.43
16.0,-49.0,6.431
-16.0,-68.0,6.432
-24.0,-76.0,6.433
-21.0,-64.0,6.434
-29.0,-40.0,6.435
-42.0,-19.0,6.436
-35.0,-2.0,6.437
-13.0,15.0,6.438
0.0,30.0,6.439
-4.0,35.0,6.44
-9.0,34.0,6.441
-7.0,33.0,6.442
-6.0,28.0,6.443
-1.0,18.0,6.444
12.0,6.0,6.445
21.0,-3.0,6.446
9.0,-2.0,6.447
-10.0,28.0,6.448
-9.0,81.0,6.449
11.0,119.0,6.45
20.0,99.0,6.451
11.0,28.0,6.452
2.0,-45.0,6.453
10.0,-89.0,6.454
18.0,-111.0,6.455
14.0,-119.0,6.456
2.0,-102.0,6.457
-1.0,-69.0,6.458
8.0,-42.0,6.459
16.0,-23.0,6.46
5.0,1.0,6.461
-21.0,30.0,6.462
-47.0,31.0,6.463
-55.0,6.0,6.464
-40.0,0.0,6.465
-13.0,25.0,6.466
15.0,54.0,6.467
38.0,57.0,6.468
41.0,41.0,6.469
24.0,19.0,6.47
3.0,-11.0,6.471
-4.0,-37.0,6.472
-3.0,-34.0,6.473
-1.0,-6.0,6.474
8.0,14.0,6.475
25.0,11.0,6.476
33.0,1.0,6.477
15.0,2.0,6.478
-10.0,25.0,6.479
-14.0,54.0,6.48
-7.0,68.0,6.481
-15.0,58.0,6.482
-31.0,28.0,6.483
-20.0,-6.0,6.484
15.0,-39.0,6.485
39.0,-64.0,6.486
34.0,-69.0,6.487
22.0,-54.0,6.488
18.0,-34.0,6.489
9.0,-27.0,6.49
-7.0,-26.0,6.491
-12.0,-13.0,6.492
14.0,11.0,6.493
63.0,32.0,6.494
94.0,38.0,6.495
78.0,31.0,6.496
19.0,18.0,6.497
-56.0,0.0,6.498
-101.0,-16.0,6.499
-107.0,-23.0,6.5
-87.0,-22.0,6.501
-44.0,-19.0,6.502
15.0,-26.0,6.503
58.0,-43.0,6.504
44.0,-49.0,6.505
-3.0,-30.0,6.506
-27.0,1.0,6.507
-19.0,17.0,6.508
-13.0,13.0,6.509
-13.0,3.0,6.51
11.0,2.0,6.511
49.0,12.0,6.512
56.0,31.0,6.513
33.0,49.0,6.514
29.0,54.0,6.515
48.0,36.0,6.516
53.0,5.0,6.517
27.0,-15.0,6.518
4.0,-13.0,6.519
-9.0,0.0,6.52
-44.0,2.0,6.521
-92.0,-9.0,6.522
-96.0,-19.0,6.523
-38.0,-17.0,6.524
22.0,-7.0,6.525
43.0,0.0,6.526
40.0,1.0,6.527
33.0,-6.0,6.528
15.0,-16.0,6.529
-12.0,-28.0,6.53
-18.0,-25.0,6.531
1.0,2.0,6.532
14.0,41.0,6.533
1.0,56.0,6.534
-15.0,33.0,6.535
-19.0,-6.0,6.536
-17.0,-26.0,6.537
-10.0,-25.0,6.538
13.0,-20.0,6.539
39.0,-22.0,6.54
31.0,-21.0,6.541
-10.0,-4.0,6.542
-35.0,26.0,6.543
-17.0,55.0,6.544
21.0,66.0,6.545
42.0,55.0,6.546
53.0,34.0,6.547
59.0,3.0,6.548
39.0,-24.0,6.549
-7.0,-27.0,6.55
-54.0,3.0,6.551
-80.0,43.0,6.552
-82.0,44.0,6.553
-48.0,0.0,6.554
21.0,-37.0,6.555
75.0,-33.0,6.556
70.0,-5.0,6.557
17.0,16.0,6.558
-19.0,23.0,6.559
-25.0,12.0,6.56
-28.0,-20.0,6.561
-29.0,-54.0,6.562
0.0,-72.0,6.563
52.0,-87.0,6.564
82.0,-117.0,6.565
70.0,-137.0,6.566
38.0,-93.0,6.567
5.0,9.0,6.568
-29.0,100.0,6.569
-78.0,126.0,6.57
-131.0,91.0,6.571
-142.0,30.0,6.572
-62.0,-18.0,6.573
68.0,-19.0,6.574
134.0,33.0,6.575
85.0,93.0,6.576
5.0,115.0,6.577
-21.0,92.0,6.578
8.0,57.0,6.579
32.0,23.0,6.58
40.0,-23.0,6.581
58.0,-72.0,6.582
84.0,-107.0,6.583
75.0,-114.0,6.584
14.0,-94.0,6.585
-59.0,-61.0,6.586
-87.0,-44.0,6.587
-53.0,-51.0,6.588
3.0,-47.0,6.589
43.0,0.0,6.59
77.0,62.0,6.591
126.0,82.0,6.592
158.0,55.0,6.593
127.0,27.0,6.594
57.0,9.0,6.595
-14.0,-11.0,6.596
-108.0,-25.0,6.597
-229.0,-3.0,6.598
-269.0,42.0,6.599
-244.0,60.0,6.6
-21.0,38.0,6.601
145.0,29.0,6.602
138.0,35.0,6.603
109.0,17.0,6.604
15.0,-26.0,6.605
-36.0,-46.0,6.606
40.0,-33.0,6.607
84.0,-37.0,6.608
30.0,-64.0,6.609
-46.0,-68.0,6.61
-191.0,-33.0,6.611
-280.0,-8.0,6.612
-198.0,-19.0,6.613
-82.0,-27.0,6.614
139.0,9.0,6.615
278.0,77.0,6.616
167.0,140.0,6.617
4.0,177.0,6.618
-219.0,162.0,6.619
-176.0,88.0,6.62
-7.0,-1.0,6.621
57.0,-34.0,6.622
50.0,-17.0,6.623
109.0,-23.0,6.624
186.0,-65.0,6.625
163.0,-81.0,6.626
96.0,-37.0,6.627
90.0,4.0,6.628
85.0,-8.0,6.629
-26.0,-35.0,6.63
-144.0,-11.0,6.631
-89.0,52.0,6.632
109.0,82.0,6.633
246.0,38.0,6.634
203.0,-57.0,6.635
39.0,-147.0,6.636
-136.0,-186.0,6.637
-285.0,-188.0,6.638
-345.0,-176.0,6.639
-284.0,-155.0,6.64
-141.0,-106.0,6.641
-7.0,-21.0,6.642
60.0,58.0,6.643
79.0,105.0,6.644
85.0,123.0,6.645
72.0,120.0,6.646
19.0,89.0,6.647
-58.0,38.0,6.648
-118.0,-17.0,6.649
-154.0,-64.0,6.65
-171.0,-89.0,6.651
-124.0,-50.0,6.652
32.0,64.0,6.653
225.0,182.0,6.654
276.0,206.0,6.655
139.0,121.0,6.656
-8.0,14.0,6.657
5.0,-43.0,6.658
161.0,-45.0,6.659
279.0,-45.0,6.66
253.0,-31.0,6.661
126.0,-21.0,6.662
-34.0,-19.0,6.663
-188.0,-16.0,6.664
-265.0,-10.0,6.665
-199.0,2.0,6.666
-45.0,34.0,6.667
60.0,54.0,6.668
93.0,32.0,6.669
141.0,15.0,6.67
223.0,13.0,6.671
217.0,2.0,6.672
47.0,-38.0,6.673
-191.0,-63.0,6.674
-327.0,-43.0,6.675
-286.0,-28.0,6.676
-127.0,-36.0,6.677
62.0,-41.0,6.678
168.0,-13.0,6.679
140.0,50.0,6.68
31.0,74.0,6.681
-68.0,38.0,6.682
-109.0,-18.0,6.683
-89.0,-60.0,6.684
-43.0,-81.0,6.685
-23.0,-80.0,6.686
-29.0,-38.0,6.687
19.0,41.0,6.688
153.0,120.0,6.689
244.0,148.0,6.69
171.0,118.0,6.691
-9.0,76.0,6.692
-169.0,75.0,6.693
-296.0,105.0,6.694
-390.0,105.0,6.695
-329.0,37.0,6.696
-79.0,-54.0,6.697
205.0,53.0,6.698
294.0,71.0,6.699
227.0,75.0,6.7
202.0,30.0,6.701
238.0,-10.0,6.702
224.0,-40.0,6.703
168.0,-65.0,6.704
152.0,-76.0,6.705
117.0,-72.0,6.706
-61.0,-15.0,6.707
-320.0,42.0,6.708
-453.0,106.0,6.709
-370.0,145.0,6.71
-169.0,105.0,6.711
-11.0,69.0,6.712
30.0,46.0,6.713
11.0,24.0,6.714
74.0,7.0,6.715
279.0,-14.0,6.716
488.0,-50.0,6.717
506.0,60.0,6.718
322.0,83.0,6.719
99.0,87.0,6.72
-242.0,32.0,6.721
-512.0,-17.0,6.722
-565.0,-54.0,6.723
-506.0,-85.0,6.724
-111.0,-98.0,6.725
167.0,-92.0,6.726
92.0,-23.0,6.727
29.0,47.0,6.728
5.0,125.0,6.729
-22.0,172.0,6.73
-57.0,124.0,6.731
-58.0,80.0,6.732
45.0,52.0,6.733
139.0,25.0,6.734
205.0,4.0,6.735
213.0,-22.0,6.736
42.0,-66.0,6.737
-124.0,39.0,6.738
-194.0,50.0,6.739
-68.0,52.0,6.74
137.0,26.0,6.741
209.0,3.0,6.742
102.0,-14.0,6.743
-9.0,-29.0,6.744
-19.0,-36.0,6.745
-6.0,-33.0,6.746
-19.0,0.0,6.747
27.0,33.0,6.748
137.0,70.0,6.749
185.0,93.0,6.75
149.0,70.0,6.751
171.0,49.0,6.752
252.0,35.0,6.753
169.0,23.0,6.754
-179.0,13.0,6.755
-537.0,0.0,6.756
-604.0,-20.0,6.757
-372.0,67.0,6.758
-87.0,93.0,6.759
47.0,98.0,6.76
43.0,34.0,6.761
44.0,-24.0,6.762
145.0,-66.0,6.763
277.0,-102.0,6.764
257.0,-118.0,6.765
1.0,-111.0,6.766
-296.0,-31.0,6.767
-341.0,52.0,6.768
-94.0,142.0,6.769
164.0,197.0,6.77
172.0,141.0,6.771
-5.0,90.0,6.772
-109.0,57.0,6.773
-40.0,26.0,6.774
64.0,1.0,6.775
69.0,-30.0,6.776
16.0,-80.0,6.777
-4.0,-125.0,6.778
21.0,-120.0,6.779
47.0,-56.0,6.78
62.0,24.0,6.781
79.0,63.0,6.782
84.0,35.0,6.783
73.0,-16.0,6.784
82.0,-29.0,6.785
111.0,7.0,6.786
78.0,41.0,6.787
-64.0,31.0,6.788
-211.0,-12.0,6.789
-212.0,-42.0,6.79
-64.0,-35.0,6.791
88.0,-16.0,6.792
141.0,-20.0,6.793
129.0,-36.0,6.794
136.0,-32.0,6.795
167.0,-6.0,6.796
173.0,13.0,6.797
100.0,7.0,6.798
-48.0,-13.0,6.799
-211.0,-34.0,6.8
-269.0,-57.0,6.801
-160.0,-67.0,6.802
23.0,-33.0,6.803
97.0,-5.0,6.804
-13.0,7.0,6.805
-186.0,13.0,6.806
-250.0,-3.0,6.807
-165.0,-6.0,6.808
-24.0,33.0,6.809
53.0,73.0,6.81
32.0,116.0,6.811
-20.0,122.0,6.812
-12.0,16.0,6.813
46.0,-58.0,6.814
64.0,-33.0,6.815
15.0,-7.0,6.816
-18.0,19.0,6.817
16.0,32.0,6.818
74.0,-4.0,6.819
98.0,-40.0,6.82
96.0,-65.0,6.821
74.0,-37.0,6.822
22.0,56.0,6.823
-15.0,139.0,6.824
66.0,129.0,6.825
249.0,54.0,6.826
378.0,10.0,6.827
324.0,13.0,6.828
114.0,-5.0,6.829
-136.0,-62.0,6.83
-317.0,-90.0,6.831
-333.0,-56.0,6.832
-187.0,-10.0,6.833
-27.0,-3.0,6.834
7.0,-30.0,6.835
-42.0,-56.0,6.836
-41.0,-47.0,6.837
18.0,6.0,6.838
38.0,43.0,6.839
-9.0,19.0,6.84
-55.0,-39.0,6.841
-77.0,-47.0,6.842
-108.0,6.0,6.843
-114.0,45.0,6.844
-38.0,22.0,6.845
51.0,-20.0,6.846
54.0,-33.0,6.847
19.0,-27.0,6.848
58.0,-25.0,6.849
120.0,-15.0,6.85
57.0,4.0,6.851
-106.0,12.0,6.852
-162.0,0.0,6.853
3.0,-7.0,6.854
245.0,2.0,6.855
302.0,5.0,6.856
96.0,-2.0,6.857
-242.0,-2.0,6.858
-411.0,6.0,6.859
-282.0,0.0,6.86
-45.0,-30.0,6.861
53.0,-48.0,6.862
16.0,-39.0,6.863
8.0,-12.0,6.864
55.0,19.0,6.865
48.0,54.0,6.866
4.0,72.0,6.867
43.0,41.0,6.868
154.0,-24.0,6.869
197.0,-61.0,6.87
135.0,-34.0,6.871
71.0,32.0,6.872
64.0,85.0,6.873
59.0,94.0,6.874
32.0,64.0,6.875
21.0,18.0,6.876
27.0,-14.0,6.877
8.0,-34.0,6.878
-33.0,-59.0,6.879
-44.0,-98.0,6.88
-12.0,-115.0,6.881
26.0,-73.0,6.882
45.0,-3.0,6.883
50.0,41.0,6.884
32.0,54.0,6.885
0.0,73.0,6.886
-7.0,90.0,6.887
40.0,74.0,6.888
97.0,32.0,6.889
93.0,10.0,6.89
23.0,18.0,6.891
-55.0,16.0,6.892
-76.0,-5.0,6.893
-18.0,-11.0,6.894
77.0,9.0,6.895
120.0,23.0,6.896
67.0,8.0,6.897
-38.0,-3.0,6.898
-84.0,-1.0,6.899
-42.0,0.0,6.9
-8.0,-3.0,6.901
-52.0,-5.0,6.902
-116.0,-5.0,6.903
-133.0,-3.0,6.904
-169.0,4.0,6.905
-303.0,12.0,6.906
-430.0,19.0,6.907
-342.0,24.0,6.908
-59.0,20.0,6.909
146.0,16.0,6.91
114.0,9.0,6.911
-6.0,4.0,6.912
-31.0,4.0,6.913
-4.0,3.0,6.914
-25.0,0.0,6.915
-34.0,-3.0,6.916
42.0,-5.0,6.917
144.0,-8.0,6.918
156.0,-5.0,6.919
116.0,-3.0,6.92
123.0,-8.0,6.921
156.0,-13.0,6.922
141.0,-13.0,6.923
99.0,-8.0,6.924
90.0,5.0,6.925
94.0,19.0,6.926
68.0,31.0,6.927
41.0,39.0,6.928
50.0,33.0,6.929
52.0,26.0,6.93
19.0,13.0,6.931
-12.0,3.0,6.932
-9.0,3.0,6.933
-3.0,1.0,6.934
-17.0,-3.0,6.935
-18.0,-8.0,6.936
15.0,-12.0,6.937
52.0,-19.0,6.938
55.0,-42.0,6.939
36.0,-66.0,6.94
29.0,-69.0,6.941
36.0,-35.0,6.942
26.0,22.0,6.943
-36.0,78.0,6.944
-147.0,105.0,6.945
-230.0,93.0,6.946
-184.0,53.0,6.947
-21.0,12.0,6.948
115.0,-7.0,6.949
107.0,-6.0,6.95
11.0,1.0,6.951
-36.0,5.0,6.952
-6.0,1.0,6.953
13.0,-6.0,6.954
-15.0,-9.0,6.955
-37.0,-7.0,6.956
-8.0,-3.0,6.957
54.0,-9.0,6.958
112.0,-25.0,6.959
140.0,-45.0,6.96
109.0,-54.0,6.961
2.0,-39.0,6.962
-127.0,-12.0,6.963
-193.0,0.0,6.964
-169.0,-6.0,6.965
-95.0,-13.0,6.966
-16.0,-13.0,6.967
41.0,-17.0,6.968
50.0,-25.0,6.969
5.0,-21.0,6.97
-35.0,-2.0,6.971
-14.0,16.0,6.972
62.0,32.0,6.973
138.0,53.0,6.974
177.0,63.0,6.975
189.0,33.0,6.976
197.0,-15.0,6.977
189.0,-31.0,6.978
121.0,-5.0,6.979
-38.0,15.0,6.98
-249.0,19.0,6.981
-406.0,24.0,6.982
-419.0,36.0,6.983
-298.0,38.0,6.984
-159.0,10.0,6.985
-102.0,-9.0,6.986
-103.0,0.0,6.987
-51.0,6.0,6.988
76.0,-7.0,6.989
153.0,-15.0,6.99
84.0,-1.0,6.991
-41.0,8.0,6.992
-71.0,2.0,6.993
1.0,0.0,6.994
93.0,8.0,6.995
181.0,12.0,6.996
254.0,2.0,6.997
236.0,-7.0,6.998
74.0,-13.0,6.999
-110.0,-20.0,7.0
-158.0,-34.0,7.001
-86.0,-41.0,7.002
-12.0,-38.0,7.003
33.0,-36.0,7.004
71.0,-34.0,7.005
70.0,-24.0,7.006
18.0,-14.0,7.007
-6.0,-19.0,7.008
45.0,-31.0,7.009
92.0,-31.0,7.01
67.0,-13.0,7.011
30.0,12.0,7.012
49.0,44.0,7.013
71.0,80.0,7.014
40.0,100.0,7.015
4.0,89.0,7.016
14.0,69.0,7.017
32.0,55.0,7.018
13.0,44.0,7.019
-10.0,18.0,7.02
-1.0,-19.0,7.021
6.0,-42.0,7.022
-19.0,-51.0,7.023
-37.0,-65.0,7.024
-1.0,-76.0,7.025
68.0,-72.0,7.026
136.0,-58.0,7.027
197.0,-51.0,7.028
233.0,-49.0,7.029
199.0,-38.0,7.03
87.0,-27.0,7.031
-48.0,-20.0,7.032
-153.0,-4.0,7.033
-216.0,33.0,7.034
-234.0,67.0,7.035
-200.0,60.0,7.036
-139.0,23.0,7.037
-89.0,-15.0,7.038
-62.0,-31.0,7.039
-54.0,-30.0,7.04
-58.0,-25.0,7.041
-78.0,-5.0,7.042
-95.0,23.0,7.043
-91.0,44.0,7.044
-65.0,59.0,7.045
-20.0,78.0,7.046
45.0,91.0,7.047
104.0,76.0,7.048
123.0,37.0,7.049
113.0,4.0,7.05
98.0,1.0,7.051
69.0,8.0,7.052
-5.0,0.0,7.053
-86.0,-20.0,7.054
-90.0,-29.0,7.055
11.0,-18.0,7.056
134.0,-5.0,7.057
200.0,-3.0,7.058
192.0,-6.0,7.059
157.0,-10.0,7.06
116.0,-16.0,7.061
17.0,-23.0,7.062
-178.0,-26.0,7.063
-388.0,-23.0,7.064
-458.0,-23.0,7.065
-339.0,-30.0,7.066
-147.0,-31.0,7.067
-28.0,-21.0,7.068
14.0,-8.0,7.069
55.0,4.0,7.07
102.0,11.0,7.071
106.0,13.0,7.072
70.0,3.0,7.073
59.0,-4.0,7.074
87.0,1.0,7.075
98.0,14.0,7.076
75.0,18.0,7.077
55.0,8.0,7.078
60.0,2.0,7.079
59.0,4.0,7.08
39.0,1.0,7.081
36.0,-8.0,7.082
69.0,-12.0,7.083
105.0,-8.0,7.084
116.0,-3.0,7.085
106.0,-8.0,7.086
81.0,-17.0,7.087
40.0,-19.0,7.088
2.0,-19.0,7.089
-21.0,-20.0,7.09
-40.0,-14.0,7.091
-58.0,0.0,7.092
-52.0,10.0,7.093
-24.0,2.0,7.094
-14.0,-5.0,7.095
-38.0,6.0,7.096
-53.0,21.0,7.097
-35.0,19.0,7.098
-22.0,19.0,7.099
-41.0,43.0,7.1
-39.0,67.0,7.101
26.0,48.0,7.102
104.0,-7.0,7.103
111.0,-36.0,7.104
56.0,-12.0,7.105
8.0,16.0,7.106
-12.0,8.0,7.107
-22.0,-10.0,7.108
-6.0,-2.0,7.109
38.0,12.0,7.11
52.0,6.0,7.111
-11.0,-14.0,7.112
-87.0,-20.0,7.113
-82.0,-13.0,7.114
-8.0,-14.0,7.115
36.0,-17.0,7.116
12.0,-15.0,7.117
-64.0,-18.0,7.118
-155.0,-30.0,7.119
-219.0,-39.0,7.12
-176.0,-38.0,7.121
-25.0,-35.0,7.122
108.0,-35.0,7.123
111.0,-26.0,7.124
50.0,0.0,7.125
51.0,28.0,7.126
87.0,43.0,7.127
41.0,41.0,7.128
-58.0,26.0,7.129
-79.0,4.0,7.13
-8.0,-8.0,7.131
32.0,-1.0,7.132
8.0,9.0,7.133
0.0,6.0,7.134
32.0,-7.0,7.135
40.0,-9.0,7.136
15.0,0.0,7.137
18.0,7.0,7.138
59.0,8.0,7.139
87.0,8.0,7.14
77.0,-1.0,7.141
58.0,-15.0,7.142
16.0,-23.0,7.143
-30.0,-9.0,7.144
-91.0,10.0,7.145
-121.0,11.0,7.146
-59.0,-3.0,7.147
-5.0,-11.0,7.148
22.0,-8.0,7.149
41.0,1.0,7.15
33.0,16.0,7.151
31.0,38.0,7.152
54.0,48.0,7.153
70.0,32.0,7.154
62.0,6.0,7.155
42.0,-1.0,7.156
-12.0,12.0,7.157
-57.0,17.0,7.158
-61.0,4.0,7.159
-52.0,-11.0,7.16
-22.0,-15.0,7.161
36.0,-10.0,7.162
86.0,-8.0,7.163
76.0,-17.0,7.164
12.0,-32.0,7.165
-61.0,-47.0,7.166
-124.0,-50.0,7.167
-151.0,-37.0,7.168
-107.0,-15.0,7.169
0.0,1.0,7.17
83.0,18.0,7.171
78.0,38.0,7.172
37.0,48.0,7.173
39.0,32.0,7.174
65.0,5.0,7.175
41.0,0.0,7.176
-14.0,23.0,7.177
-43.0,38.0,7.178
-32.0,19.0,7.179
-21.0,-15.0,7.18
-17.0,-25.0,7.181
9.0,-9.0,7.182
38.0,0.0,7.183
38.0,-11.0,7.184
44.0,-24.0,7.185
95.0,-25.0,7.186
143.0,-20.0,7.187
118.0,-12.0,7.188
48.0,1.0,7.189
-5.0,13.0,7.19
-60.0,13.0,7.191
-163.0,3.0,7.192
-237.0,-3.0,7.193
-172.0,-2.0,7.194
-27.0,-5.0,7.195
21.0,-9.0,7.196
-50.0,-8.0,7.197
-105.0,0.0,7.198
-48.0,5.0,7.199
24.0,5.0,7.2
4.0,-2.0,7.201
-50.0,-9.0,7.202
-30.0,-24.0,7.203
44.0,-42.0,7.204
86.0,-49.0,7.205
92.0,-39.0,7.206
107.0,-17.0,7.207
122.0,13.0,7.208
87.0,49.0,7.209
21.0,77.0,7.21
-17.0,73.0,7.211
-2.0,37.0,7.212
32.0,3.0,7.213
48.0,-2.0,7.214
37.0,7.0,7.215
13.0,1.0,7.216
-7.0,-19.0,7.217
-17.0,-37.0,7.218
-20.0,-31.0,7.219
-33.0,-11.0,7.22
-42.0,10.0,7.221
-18.0,24.0,7.222
45.0,26.0,7.223
110.0,10.0,7.224
141.0,-3.0,7.225
131.0,-2.0,7.226
91.0,7.0,7.227
12.0,-1.0,7.228
-109.0,-25.0,7.229
-231.0,-43.0,7.23
-268.0,-47.0,7.231
-183.0,-47.0,7.232
-39.0,-43.0,7.233
54.0,-28.0,7.234
58.0,-7.0,7.235
28.0,2.0,7.236
19.0,0.0,7.237
18.0,4.0,7.238
-5.0,32.0,7.239
-34.0,71.0,7.24
-21.0,97.0,7.241
13.0,95.0,7.242
4.0,62.0,7.243
-44.0,18.0,7.244
-53.0,-9.0,7.245
6.0,-14.0,7.246
59.0,-14.0,7.247
53.0,-21.0,7.248
30.0,-28.0,7.249
43.0,-20.0,7.25
66.0,-8.0,7.251
52.0,-3.0,7.252
29.0,-2.0,7.253
40.0,-1.0,7.254
65.0,-2.0,7.255
74.0,-13.0,7.256
89.0,-28.0,7.257
135.0,-38.0,7.258
140.0,-41.0,7.259
24.0,-48.0,7.26
-171.0,-58.0,7.261
-283.0,-62.0,7.262
-219.0,-60.0,7.263
-60.0,-55.0,7.264
41.0,-40.0,7.265
42.0,-2.0,7.266
12.0,55.0,7.267
15.0,97.0,7.268
29.0,101.0,7.269
11.0,77.0,7.27
-22.0,53.0,7.271
-36.0,41.0,7.272
-33.0,31.0,7.273
-29.0,15.0,7.274
-22.0,7.0,7.275
-7.0,12.0,7.276
1.0,13.0,7.277
4.0,-3.0,7.278
38.0,-15.0,7.279
100.0,-2.0,7.28
136.0,22.0,7.281
115.0,27.0,7.282
93.0,4.0,7.283
119.0,-15.0,7.284
149.0,-17.0,7.285
108.0,-17.0,7.286
-2.0,-29.0,7.287
-105.0,-41.0,7.288
-141.0,-37.0,7.289
-107.0,-29.0,7.29
-42.0,-32.0,7.291
4.0,-39.0,7.292
-9.0,-28.0,7.293
-89.0,2.0,7.294
-190.0,36.0,7.295
-239.0,53.0,7.296
-195.0,50.0,7.297
-81.0,26.0,7.298
19.0,0.0,7.299
67.0,-14.0,7.3
107.0,-12.0,7.301
168.0,-1.0,7.302
180.0,-1.0,7.303
77.0,-12.0,7.304
-66.0,-23.0,7.305
-101.0,-26.0,7.306
0.0,-27.0,7.307
126.0,-28.0,7.308
168.0,-23.0,7.309
117.0,-9.0,7.31
29.0,0.0,7.311
-27.0,-2.0,7.312
-8.0,-10.0,7.313
36.0,-16.0,7.314
-18.0,-20.0,7.315
-180.0,-20.0,7.316
-277.0,-9.0,7.317
-171.0,13.0,7.318
31.0,41.0,7.319
97.0,52.0,7.32
5.0,36.0,7.321
-52.0,11.0,7.322
16.0,-4.0,7.323
74.0,-5.0,7.324
27.0,-3.0,7.325
-26.0,-3.0,7.326
16.0,-5.0,7.327
86.0,-2.0,7.328
94.0,2.0,7.329
74.0,-1.0,7.33
83.0,-16.0,7.331
90.0,-32.0,7.332
58.0,-37.0,7.333
37.0,-30.0,7.334
60.0,-15.0,7.335
68.0,14.0,7.336
16.0,49.0,7.337
-61.0,64.0,7.338
-99.0,31.0,7.339
-100.0,-35.0,7.34
-90.0,-79.0,7.341
-50.0,-65.0,7.342
5.0,-22.0,7.343
7.0,11.0,7.344
-66.0,39.0,7.345
-122.0,71.0,7.346
-86.0,89.0,7.347
-18.0,71.0,7.348
-11.0,37.0,7.349
-48.0,21.0,7.35
