Deltoid,Bicep,Time
5.0,-4.0,0.0
-2.0,-8.0,0.001
-5.0,-4.0,0.002
0.0,1.0,0.003
10.0,5.0,0.004
10.0,5.0,0.005
3.0,6.0,0.006
0.0,5.0,0.007
3.0,2.0,0.008
5.0,0.0,0.009
2.0,4.0,0.01
2.0,6.0,0.011
5.0,3.0,0.012
5.0,-1.0,0.013
1.0,-1.0,0.014
0.0,0.0,0.015
3.0,-2.0,0.016
6.0,-4.0,0.017
4.0,-3.0,0.018
4.0,0.0,0.019
7.0,-3.0,0.02
13.0,-9.0,0.021
16.0,-8.0,0.022
13.0,-4.0,0.023
0.0,-2.0,0.024
-13.0,-2.0,0.025
-20.0,1.0,0.026
-14.0,3.0,0.027
-4.0,0.0,0.028
2.0,-2.0,0.029
5.0,0.0,0.03
7.0,4.0,0.031
6.0,2.0,0.032
2.0,-2.0,0.033
0.0,-2.0,0.034
4.0,0.0,0.035
9.0,0.0,0.036
10.0,0.0,0.037
7.0,0.0,0.038
6.0,2.0,0.039
2.0,1.0,0.04
-3.0,-4.0,0.041
-6.0,-5.0,0.042
-2.0,-7.0,0.043
5.0,-6.0,0.044
8.0,-4.0,0.045
5.0,0.0,0.046
3.0,3.0,0.047
5.0,0.0,0.048
3.0,-1.0,0.049
-2.0,0.0,0.05
-3.0,1.0,0.051
-1.0,0.0,0.052
1.0,-1.0,0.053
1.0,-2.0,0.054
2.0,-1.0,0.055
7.0,0.0,0.056
12.0,1.0,0.057
11.0,0.0,0.058
6.0,-2.0,0.059
0.0,-4.0,0.06
-4.0,-8.0,0.061
-4.0,-8.0,0.062
2.0,-6.0,0.063
9.0,-2.0,0.064
9.0,0.0,0.065
7.0,0.0,0.066
5.0,0.0,0.067
5.0,1.0,0.068
2.0,1.0,0.069
-3.0,0.0,0.07
-3.0,-1.0,0.071
1.0,0.0,0.072
3.0,-1.0,0.073
2.0,-3.0,0.074
-1.0,-3.0,0.075
0.0,-1.0,0.076
1.0,3.0,0.077
0.0,1.0,0.078
1.0,-3.0,0.079
0.0,-5.0,0.08
-4.0,-7.0,0.081
-7.0,-5.0,0.082
-1.0,-2.0,0.083
8.0,1.0,0.084
10.0,3.0,0.085
4.0,4.0,0.086
2.0,3.0,0.087
5.0,1.0,0.088
7.0,0.0,0.089
4.0,3.0,0.09
4.0,5.0,0.091
7.0,3.0,0.092
6.0,0.0,0.093
1.0,0.0,0.094
0.0,4.0,0.095
4.0,4.0,0.096
9.0,3.0,0.097
5.0,0.0,0.098
1.0,-2.0,0.099
-4.0,-4.0,0.1
-5.0,-8.0,0.101
-4.0,-10.0,0.102
1.0,-7.0,0.103
8.0,-2.0,0.104
9.0,0.0,0.105
4.0,3.0,0.106
2.0,2.0,0.107
4.0,-2.0,0.108
5.0,-4.0,0.109
4.0,0.0,0.11
4.0,6.0,0.111
4.0,4.0,0.112
5.0,-3.0,0.113
3.0,-6.0,0.114
2.0,-1.0,0.115
2.0,3.0,0.116
2.0,2.0,0.117
1.0,-2.0,0.118
0.0,-2.0,0.119
-4.0,-3.0,0.12
-7.0,-6.0,0.121
-5.0,-8.0,0.122
2.0,-6.0,0.123
11.0,-3.0,0.124
12.0,2.0,0.125
6.0,6.0,0.126
2.0,3.0,0.127
3.0,0.0,0.128
1.0,1.0,0.129
-1.0,2.0,0.13
-1.0,2.0,0.131
3.0,2.0,0.132
3.0,3.0,0.133
1.0,3.0,0.134
-1.0,1.0,0.135
1.0,0.0,0.136
7.0,-1.0,0.137
7.0,-1.0,0.138
5.0,-2.0,0.139
1.0,-3.0,0.14
-2.0,-8.0,0.141
-3.0,-5.0,0.142
0.0,-2.0,0.143
6.0,-1.0,0.144
7.0,-1.0,0.145
3.0,0.0,0.146
0.0,1.0,0.147
1.0,0.0,0.148
3.0,0.0,0.149
2.0,1.0,0.15
3.0,0.0,0.151
3.0,0.0,0.152
2.0,0.0,0.153
0.0,2.0,0.154
0.0,1.0,0.155
0.0,-1.0,0.156
0.0,-2.0,0.157
-1.0,-4.0,0.158
-1.0,-5.0,0.159
-1.0,-5.0,0.16
0.0,-8.0,0.161
-1.0,-7.0,0.162
3.0,-4.0,0.163
9.0,-1.0,0.164
10.0,2.0,0.165
3.0,2.0,0.166
0.0,1.0,0.167
0.0,0.0,0.168
4.0,-1.0,0.169
3.0,0.0,0.17
3.0,1.0,0.171
3.0,3.0,0.172
3.0,3.0,0.173
0.0,0.0,0.174
0.0,-4.0,0.175
1.0,-6.0,0.176
4.0,-4.0,0.177
1.0,-2.0,0.178
-4.0,-3.0,0.179
-7.0,-3.0,0.18
-9.0,-4.0,0.181
-8.0,-4.0,0.182
0.0,-8.0,0.183
9.0,-8.0,0.184
9.0,-3.0,0.185
-1.0,1.0,0.186
-4.0,3.0,0.187
1.0,2.0,0.188
11.0,0.0,0.189
10.0,0.0,0.19
5.0,-3.0,0.191
4.0,-5.0,0.192
5.0,-3.0,0.193
3.0,-1.0,0.194
4.0,0.0,0.195
10.0,-1.0,0.196
13.0,-2.0,0.197
10.0,-6.0,0.198
4.0,-6.0,0.199
0.0,-4.0,0.2
0.0,-3.0,0.201
0.0,-3.0,0.202
2.0,-3.0,0.203
7.0,-2.0,0.204
10.0,0.0,0.205
8.0,1.0,0.206
6.0,-1.0,0.207
9.0,-2.0,0.208
10.0,-1.0,0.209
4.0,2.0,0.21
-2.0,4.0,0.211
-1.0,3.0,0.212
4.0,2.0,0.213
4.0,0.0,0.214
0.0,0.0,0.215
-2.0,0.0,0.216
1.0,-1.0,0.217
2.0,-5.0,0.218
-1.0,-5.0,0.219
-5.0,-3.0,0.22
-5.0,-4.0,0.221
-3.0,-6.0,0.222
2.0,-6.0,0.223
9.0,-3.0,0.224
10.0,0.0,0.225
3.0,4.0,0.226
0.0,4.0,0.227
2.0,1.0,0.228
2.0,0.0,0.229
0.0,0.0,0.23
-1.0,2.0,0.231
1.0,4.0,0.232
3.0,2.0,0.233
-1.0,0.0,0.234
-3.0,-1.0,0.235
-1.0,-3.0,0.236
1.0,-2.0,0.237
-2.0,0.0,0.238
-4.0,-1.0,0.239
-2.0,-6.0,0.24
0.0,-12.0,0.241
0.0,-10.0,0.242
0.0,-3.0,0.243
6.0,2.0,0.244
11.0,4.0,0.245
14.0,5.0,0.246
19.0,5.0,0.247
24.0,3.0,0.248
20.0,0.0,0.249
1.0,1.0,0.25
-20.0,2.0,0.251
-25.0,0.0,0.252
-19.0,-3.0,0.253
-15.0,-2.0,0.254
-12.0,1.0,0.255
-7.0,0.0,0.256
0.0,-1.0,0.257
4.0,-3.0,0.258
2.0,-4.0,0.259
1.0,-5.0,0.26
4.0,-9.0,0.261
9.0,-6.0,0.262
12.0,-1.0,0.263
15.0,-1.0,0.264
14.0,-1.0,0.265
10.0,1.0,0.266
5.0,4.0,0.267
4.0,2.0,0.268
6.0,-2.0,0.269
6.0,0.0,0.27
5.0,5.0,0.271
3.0,6.0,0.272
2.0,0.0,0.273
2.0,-3.0,0.274
4.0,-1.0,0.275
5.0,1.0,0.276
3.0,1.0,0.277
-2.0,-2.0,0.278
-1.0,-4.0,0.279
-1.0,-6.0,0.28
-5.0,-10.0,0.281
-8.0,-11.0,0.282
-3.0,-10.0,0.283
8.0,-8.0,0.284
12.0,-5.0,0.285
6.0,-3.0,0.286
0.0,0.0,0.287
2.0,2.0,0.288
5.0,0.0,0.289
3.0,0.0,0.29
0.0,2.0,0.291
0.0,2.0,0.292
0.0,0.0,0.293
2.0,-1.0,0.294
2.0,0.0,0.295
1.0,3.0,0.296
0.0,6.0,0.297
-2.0,5.0,0.298
-2.0,3.0,0.299
-2.0,0.0,0.3
-6.0,-3.0,0.301
-7.0,-5.0,0.302
1.0,-3.0,0.303
8.0,0.0,0.304
7.0,5.0,0.305
6.0,8.0,0.306
5.0,4.0,0.307
4.0,0.0,0.308
4.0,0.0,0.309
4.0,-1.0,0.31
4.0,0.0,0.311
4.0,1.0,0.312
5.0,0.0,0.313
6.0,-1.0,0.314
6.0,-2.0,0.315
5.0,-3.0,0.316
5.0,-3.0,0.317
5.0,-3.0,0.318
4.0,-4.0,0.319
3.0,-5.0,0.32
0.0,-8.0,0.321
-1.0,-7.0,0.322
2.0,-8.0,0.323
7.0,-5.0,0.324
4.0,0.0,0.325
0.0,2.0,0.326
0.0,1.0,0.327
4.0,0.0,0.328
5.0,1.0,0.329
0.0,3.0,0.33
-1.0,5.0,0.331
5.0,5.0,0.332
9.0,4.0,0.333
7.0,3.0,0.334
4.0,0.0,0.335
4.0,-4.0,0.336
4.0,-4.0,0.337
3.0,-1.0,0.338
2.0,0.0,0.339
-2.0,-2.0,0.34
-5.0,-8.0,0.341
-7.0,-10.0,0.342
0.0,-6.0,0.343
9.0,-3.0,0.344
10.0,-1.0,0.345
5.0,0.0,0.346
2.0,3.0,0.347
6.0,6.0,0.348
6.0,4.0,0.349
3.0,1.0,0.35
0.0,2.0,0.351
0.0,4.0,0.352
2.0,4.0,0.353
2.0,1.0,0.354
2.0,0.0,0.355
3.0,1.0,0.356
3.0,5.0,0.357
2.0,3.0,0.358
-1.0,-1.0,0.359
-2.0,-4.0,0.36
-2.0,-6.0,0.361
-2.0,-5.0,0.362
1.0,-5.0,0.363
6.0,-5.0,0.364
10.0,-1.0,0.365
7.0,2.0,0.366
2.0,1.0,0.367
-2.0,-4.0,0.368
-2.0,-7.0,0.369
2.0,-4.0,0.37
6.0,1.0,0.371
9.0,1.0,0.372
7.0,0.0,0.373
4.0,-1.0,0.374
1.0,-1.0,0.375
0.0,-4.0,0.376
2.0,-6.0,0.377
2.0,-5.0,0.378
0.0,-3.0,0.379
-4.0,-3.0,0.38
-7.0,-7.0,0.381
-4.0,-7.0,0.382
4.0,-3.0,0.383
11.0,1.0,0.384
10.0,4.0,0.385
1.0,4.0,0.386
-2.0,4.0,0.387
0.0,4.0,0.388
4.0,4.0,0.389
2.0,4.0,0.39
2.0,4.0,0.391
5.0,3.0,0.392
9.0,2.0,0.393
6.0,1.0,0.394
2.0,-3.0,0.395
2.0,-6.0,0.396
4.0,-5.0,0.397
2.0,-3.0,0.398
-2.0,-3.0,0.399
-6.0,-4.0,0.4
-7.0,-9.0,0.401
-7.0,-7.0,0.402
-1.0,-5.0,0.403
6.0,-4.0,0.404
10.0,0.0,0.405
7.0,5.0,0.406
4.0,7.0,0.407
8.0,2.0,0.408
10.0,-1.0,0.409
6.0,1.0,0.41
1.0,7.0,0.411
1.0,6.0,0.412
4.0,0.0,0.413
5.0,-2.0,0.414
5.0,-1.0,0.415
5.0,-1.0,0.416
4.0,-1.0,0.417
0.0,0.0,0.418
0.0,1.0,0.419
-1.0,2.0,0.42
-3.0,-2.0,0.421
-4.0,-6.0,0.422
-1.0,-5.0,0.423
2.0,-3.0,0.424
2.0,-1.0,0.425
1.0,0.0,0.426
1.0,3.0,0.427
1.0,5.0,0.428
1.0,2.0,0.429
2.0,-1.0,0.43
3.0,-1.0,0.431
4.0,0.0,0.432
4.0,-1.0,0.433
3.0,-2.0,0.434
3.0,-2.0,0.435
3.0,-1.0,0.436
3.0,-2.0,0.437
2.0,-4.0,0.438
0.0,-4.0,0.439
-1.0,-4.0,0.44
-2.0,-6.0,0.441
-2.0,-6.0,0.442
4.0,-4.0,0.443
13.0,0.0,0.444
14.0,4.0,0.445
5.0,5.0,0.446
1.0,4.0,0.447
4.0,2.0,0.448
6.0,3.0,0.449
2.0,3.0,0.45
0.0,1.0,0.451
4.0,-1.0,0.452
6.0,-1.0,0.453
1.0,0.0,0.454
-3.0,1.0,0.455
0.0,0.0,0.456
6.0,-2.0,0.457
6.0,-4.0,0.458
0.0,-3.0,0.459
-4.0,-3.0,0.46
-4.0,-7.0,0.461
-2.0,-9.0,0.462
0.0,-9.0,0.463
2.0,-4.0,0.464
5.0,0.0,0.465
5.0,3.0,0.466
5.0,0.0,0.467
6.0,-2.0,0.468
6.0,0.0,0.469
5.0,5.0,0.47
2.0,5.0,0.471
3.0,0.0,0.472
3.0,-2.0,0.473
2.0,1.0,0.474
0.0,6.0,0.475
4.0,6.0,0.476
7.0,3.0,0.477
6.0,1.0,0.478
2.0,2.0,0.479
-2.0,-1.0,0.48
-4.0,-8.0,0.481
-4.0,-7.0,0.482
0.0,-3.0,0.483
4.0,0.0,0.484
3.0,-1.0,0.485
0.0,-3.0,0.486
0.0,-3.0,0.487
4.0,-1.0,0.488
7.0,2.0,0.489
3.0,4.0,0.49
0.0,2.0,0.491
2.0,-3.0,0.492
6.0,-3.0,0.493
8.0,1.0,0.494
7.0,4.0,0.495
5.0,1.0,0.496
2.0,0.0,0.497
-2.0,0.0,0.498
-3.0,0.0,0.499
-3.0,-3.0,0.5
-3.0,-7.0,0.501
-2.0,-3.0,0.502
3.0,0.0,0.503
12.0,-1.0,0.504
11.0,-2.0,0.505
2.0,1.0,0.506
-1.0,1.0,0.507
0.0,-3.0,0.508
3.0,-5.0,0.509
1.0,-3.0,0.51
2.0,0.0,0.511
6.0,0.0,0.512
6.0,1.0,0.513
5.0,2.0,0.514
3.0,1.0,0.515
3.0,-2.0,0.516
4.0,-3.0,0.517
4.0,-1.0,0.518
4.0,-1.0,0.519
1.0,-4.0,0.52
-3.0,-7.0,0.521
-5.0,-5.0,0.522
0.0,-4.0,0.523
8.0,-2.0,0.524
9.0,2.0,0.525
1.0,8.0,0.526
-2.0,9.0,0.527
2.0,4.0,0.528
8.0,2.0,0.529
5.0,5.0,0.53
0.0,4.0,0.531
-1.0,-1.0,0.532
0.0,-5.0,0.533
2.0,-3.0,0.534
3.0,-3.0,0.535
4.0,-5.0,0.536
5.0,-5.0,0.537
4.0,-4.0,0.538
5.0,-4.0,0.539
6.0,-6.0,0.54
3.0,-7.0,0.541
-3.0,-5.0,0.542
-2.0,-4.0,0.543
5.0,-1.0,0.544
7.0,1.0,0.545
3.0,5.0,0.546
0.0,5.0,0.547
3.0,2.0,0.548
6.0,1.0,0.549
2.0,2.0,0.55
-1.0,0.0,0.551
0.0,-2.0,0.552
3.0,-2.0,0.553
0.0,1.0,0.554
-1.0,1.0,0.555
2.0,-1.0,0.556
8.0,-2.0,0.557
7.0,-1.0,0.558
3.0,0.0,0.559
-3.0,0.0,0.56
-6.0,-3.0,0.561
-7.0,-2.0,0.562
0.0,0.0,0.563
8.0,0.0,0.564
6.0,1.0,0.565
-1.0,3.0,0.566
-2.0,3.0,0.567
3.0,1.0,0.568
4.0,0.0,0.569
2.0,2.0,0.57
3.0,4.0,0.571
6.0,2.0,0.572
4.0,-1.0,0.573
0.0,-3.0,0.574
1.0,0.0,0.575
6.0,0.0,0.576
10.0,0.0,0.577
6.0,-2.0,0.578
3.0,-4.0,0.579
1.0,-4.0,0.58
0.0,-6.0,0.581
0.0,-6.0,0.582
3.0,-5.0,0.583
9.0,-4.0,0.584
10.0,-2.0,0.585
3.0,-1.0,0.586
-1.0,0.0,0.587
0.0,2.0,0.588
2.0,4.0,0.589
2.0,4.0,0.59
0.0,2.0,0.591
-2.0,-1.0,0.592
0.0,1.0,0.593
3.0,4.0,0.594
7.0,4.0,0.595
5.0,1.0,0.596
0.0,2.0,0.597
-4.0,2.0,0.598
-5.0,1.0,0.599
-3.0,-2.0,0.6
-4.0,-7.0,0.601
-3.0,-7.0,0.602
2.0,-3.0,0.603
11.0,0.0,0.604
13.0,0.0,0.605
8.0,1.0,0.606
4.0,0.0,0.607
6.0,0.0,0.608
10.0,1.0,0.609
7.0,0.0,0.61
3.0,-1.0,0.611
2.0,-2.0,0.612
3.0,0.0,0.613
1.0,1.0,0.614
0.0,-2.0,0.615
0.0,-4.0,0.616
3.0,-2.0,0.617
5.0,-2.0,0.618
3.0,-3.0,0.619
-2.0,-6.0,0.62
-4.0,-9.0,0.621
-3.0,-7.0,0.622
2.0,-7.0,0.623
10.0,-5.0,0.624
9.0,0.0,0.625
4.0,3.0,0.626
0.0,3.0,0.627
0.0,0.0,0.628
0.0,0.0,0.629
-1.0,1.0,0.63
-1.0,2.0,0.631
3.0,0.0,0.632
7.0,-1.0,0.633
7.0,-1.0,0.634
2.0,0.0,0.635
0.0,0.0,0.636
0.0,0.0,0.637
2.0,-1.0,0.638
4.0,-2.0,0.639
1.0,-2.0,0.64
-4.0,-6.0,0.641
-4.0,-7.0,0.642
2.0,-7.0,0.643
11.0,-3.0,0.644
10.0,0.0,0.645
4.0,0.0,0.646
2.0,0.0,0.647
2.0,-1.0,0.648
1.0,1.0,0.649
-1.0,5.0,0.65
-1.0,7.0,0.651
1.0,8.0,0.652
2.0,4.0,0.653
1.0,-1.0,0.654
-1.0,-2.0,0.655
-1.0,-1.0,0.656
1.0,0.0,0.657
2.0,0.0,0.658
5.0,-2.0,0.659
6.0,-3.0,0.66
0.0,-7.0,0.661
-3.0,-7.0,0.662
2.0,-4.0,0.663
13.0,1.0,0.664
14.0,5.0,0.665
7.0,5.0,0.666
1.0,1.0,0.667
2.0,0.0,0.668
2.0,0.0,0.669
1.0,1.0,0.67
1.0,1.0,0.671
5.0,-1.0,0.672
4.0,-3.0,0.673
-1.0,-2.0,0.674
-4.0,2.0,0.675
0.0,3.0,0.676
6.0,1.0,0.677
7.0,-2.0,0.678
4.0,-1.0,0.679
0.0,0.0,0.68
-5.0,-2.0,0.681
-3.0,-6.0,0.682
3.0,-7.0,0.683
8.0,-4.0,0.684
6.0,0.0,0.685
1.0,3.0,0.686
2.0,2.0,0.687
6.0,0.0,0.688
6.0,1.0,0.689
4.0,4.0,0.69
3.0,4.0,0.691
4.0,1.0,0.692
4.0,-1.0,0.693
2.0,0.0,0.694
0.0,0.0,0.695
0.0,0.0,0.696
0.0,0.0,0.697
0.0,-1.0,0.698
1.0,-2.0,0.699
0.0,-5.0,0.7
-5.0,-8.0,0.701
-6.0,-10.0,0.702
2.0,-9.0,0.703
13.0,-7.0,0.704
11.0,-4.0,0.705
0.0,0.0,0.706
-2.0,3.0,0.707
3.0,2.0,0.708
8.0,0.0,0.709
3.0,1.0,0.71
0.0,0.0,0.711
2.0,0.0,0.712
4.0,0.0,0.713
2.0,2.0,0.714
0.0,2.0,0.715
1.0,-1.0,0.716
3.0,-3.0,0.717
1.0,-2.0,0.718
1.0,0.0,0.719
0.0,0.0,0.72
-1.0,-6.0,0.721
-2.0,-8.0,0.722
2.0,-6.0,0.723
6.0,-1.0,0.724
6.0,2.0,0.725
5.0,3.0,0.726
5.0,0.0,0.727
4.0,-2.0,0.728
4.0,0.0,0.729
4.0,3.0,0.73
1.0,2.0,0.731
0.0,-1.0,0.732
3.0,-2.0,0.733
6.0,0.0,0.734
8.0,1.0,0.735
9.0,2.0,0.736
6.0,4.0,0.737
3.0,3.0,0.738
-2.0,2.0,0.739
-3.0,1.0,0.74
-2.0,-2.0,0.741
-3.0,-3.0,0.742
-2.0,-3.0,0.743
3.0,-2.0,0.744
7.0,1.0,0.745
3.0,2.0,0.746
0.0,1.0,0.747
0.0,1.0,0.748
3.0,3.0,0.749
6.0,2.0,0.75
6.0,0.0,0.751
4.0,0.0,0.752
0.0,1.0,0.753
0.0,0.0,0.754
3.0,-2.0,0.755
5.0,-3.0,0.756
6.0,-2.0,0.757
2.0,-4.0,0.758
2.0,-4.0,0.759
1.0,-4.0,0.76
-2.0,-3.0,0.761
-3.0,-3.0,0.762
5.0,-3.0,0.763
14.0,-4.0,0.764
13.0,-1.0,0.765
3.0,0.0,0.766
0.0,-1.0,0.767
5.0,-3.0,0.768
10.0,-1.0,0.769
13.0,1.0,0.77
18.0,3.0,0.771
24.0,1.0,0.772
20.0,1.0,0.773
1.0,2.0,0.774
-19.0,3.0,0.775
-25.0,1.0,0.776
-20.0,0.0,0.777
-13.0,-2.0,0.778
-8.0,-1.0,0.779
-3.0,-1.0,0.78
0.0,-3.0,0.781
0.0,-5.0,0.782
-2.0,-7.0,0.783
-1.0,-5.0,0.784
1.0,0.0,0.785
2.0,4.0,0.786
1.0,3.0,0.787
2.0,-1.0,0.788
3.0,-3.0,0.789
5.0,-1.0,0.79
3.0,0.0,0.791
2.0,0.0,0.792
3.0,-2.0,0.793
7.0,-5.0,0.794
9.0,-6.0,0.795
10.0,-6.0,0.796
10.0,-1.0,0.797
7.0,-1.0,0.798
7.0,-2.0,0.799
1.0,-4.0,0.8
-5.0,-7.0,0.801
-8.0,-6.0,0.802
-2.0,-2.0,0.803
4.0,1.0,0.804
3.0,4.0,0.805
-2.0,4.0,0.806
-6.0,1.0,0.807
-5.0,-1.0,0.808
-2.0,0.0,0.809
2.0,5.0,0.81
10.0,5.0,0.811
15.0,2.0,0.812
6.0,1.0,0.813
-10.0,3.0,0.814
-19.0,4.0,0.815
-18.0,3.0,0.816
-11.0,5.0,0.817
-2.0,5.0,0.818
11.0,3.0,0.819
25.0,-1.0,0.82
33.0,-6.0,0.821
35.0,-6.0,0.822
35.0,-5.0,0.823
37.0,-6.0,0.824
37.0,-4.0,0.825
30.0,2.0,0.826
17.0,4.0,0.827
2.0,0.0,0.828
-10.0,-5.0,0.829
-24.0,-4.0,0.83
-29.0,0.0,0.831
-24.0,0.0,0.832
-13.0,-2.0,0.833
-3.0,-3.0,0.834
0.0,-2.0,0.835
4.0,-1.0,0.836
18.0,1.0,0.837
39.0,0.0,0.838
47.0,-3.0,0.839
27.0,-10.0,0.84
-15.0,-11.0,0.841
-44.0,-5.0,0.842
-42.0,-1.0,0.843
-25.0,0.0,0.844
-23.0,3.0,0.845
-32.0,8.0,0.846
-26.0,8.0,0.847
-6.0,4.0,0.848
6.0,4.0,0.849
3.0,7.0,0.85
1.0,8.0,0.851
6.0,5.0,0.852
9.0,3.0,0.853
6.0,5.0,0.854
7.0,4.0,0.855
13.0,-1.0,0.856
17.0,-5.0,0.857
17.0,-6.0,0.858
18.0,-6.0,0.859
16.0,-9.0,0.86
5.0,-12.0,0.861
-3.0,-10.0,0.862
0.0,-6.0,0.863
10.0,-6.0,0.864
10.0,-3.0,0.865
4.0,0.0,0.866
2.0,2.0,0.867
5.0,1.0,0.868
1.0,2.0,0.869
-3.0,5.0,0.87
-2.0,4.0,0.871
3.0,0.0,0.872
4.0,0.0,0.873
0.0,5.0,0.874
3.0,6.0,0.875
9.0,0.0,0.876
10.0,-4.0,0.877
3.0,-4.0,0.878
-2.0,0.0,0.879
-3.0,-3.0,0.88
-1.0,-9.0,0.881
-1.0,-8.0,0.882
3.0,-3.0,0.883
9.0,0.0,0.884
10.0,1.0,0.885
3.0,0.0,0.886
0.0,-1.0,0.887
0.0,-1.0,0.888
3.0,0.0,0.889
1.0,1.0,0.89
-1.0,2.0,0.891
0.0,1.0,0.892
1.0,1.0,0.893
-1.0,0.0,0.894
-3.0,-1.0,0.895
-1.0,0.0,0.896
1.0,2.0,0.897
1.0,0.0,0.898
-1.0,-3.0,0.899
-4.0,-5.0,0.9
-5.0,-9.0,0.901
-2.0,-9.0,0.902
8.0,-7.0,0.903
19.0,-4.0,0.904
18.0,-1.0,0.905
10.0,0.0,0.906
6.0,1.0,0.907
13.0,1.0,0.908
16.0,1.0,0.909
9.0,1.0,0.91
2.0,1.0,0.911
5.0,-1.0,0.912
6.0,-2.0,0.913
0.0,0.0,0.914
-6.0,3.0,0.915
-6.0,4.0,0.916
0.0,4.0,0.917
0.0,2.0,0.918
-2.0,0.0,0.919
-5.0,-4.0,0.92
-6.0,-7.0,0.921
-4.0,-5.0,0.922
2.0,-2.0,0.923
8.0,-3.0,0.924
7.0,-4.0,0.925
0.0,-2.0,0.926
-3.0,2.0,0.927
2.0,0.0,0.928
6.0,-3.0,0.929
3.0,-2.0,0.93
-1.0,3.0,0.931
0.0,4.0,0.932
3.0,0.0,0.933
4.0,-2.0,0.934
5.0,-1.0,0.935
7.0,0.0,0.936
7.0,-2.0,0.937
3.0,-3.0,0.938
0.0,-2.0,0.939
-2.0,0.0,0.94
-3.0,-4.0,0.941
-2.0,-4.0,0.942
4.0,-2.0,0.943
11.0,0.0,0.944
13.0,0.0,0.945
8.0,2.0,0.946
2.0,2.0,0.947
1.0,1.0,0.948
1.0,0.0,0.949
0.0,0.0,0.95
0.0,1.0,0.951
2.0,0.0,0.952
4.0,-1.0,0.953
2.0,0.0,0.954
-2.0,1.0,0.955
-2.0,0.0,0.956
2.0,1.0,0.957
5.0,0.0,0.958
6.0,-1.0,0.959
0.0,-3.0,0.96
-4.0,-7.0,0.961
-4.0,-6.0,0.962
2.0,-2.0,0.963
9.0,0.0,0.964
8.0,1.0,0.965
3.0,1.0,0.966
2.0,0.0,0.967
4.0,-2.0,0.968
5.0,-3.0,0.969
2.0,-3.0,0.97
0.0,-1.0,0.971
-1.0,0.0,0.972
-4.0,-2.0,0.973
-3.0,-2.0,0.974
0.0,0.0,0.975
3.0,1.0,0.976
3.0,1.0,0.977
0.0,-1.0,0.978
0.0,-2.0,0.979
2.0,-2.0,0.98
1.0,-4.0,0.981
-1.0,-6.0,0.982
1.0,-5.0,0.983
9.0,-2.0,0.984
15.0,2.0,0.985
10.0,5.0,0.986
4.0,5.0,0.987
8.0,3.0,0.988
13.0,3.0,0.989
11.0,3.0,0.99
6.0,3.0,0.991
4.0,2.0,0.992
5.0,4.0,0.993
3.0,6.0,0.994
3.0,4.0,0.995
4.0,-1.0,0.996
6.0,-4.0,0.997
4.0,-5.0,0.998
1.0,-4.0,0.999
0.0,-5.0,1.0
0.0,-6.0,1.001
-2.0,-4.0,1.002
0.0,-4.0,1.003
6.0,-4.0,1.004
10.0,0.0,1.005
6.0,4.0,1.006
0.0,3.0,1.007
1.0,-1.0,1.008
2.0,-2.0,1.009
0.0,-1.0,1.01
-3.0,0.0,1.011
-2.0,0.0,1.012
0.0,1.0,1.013
2.0,3.0,1.014
1.0,3.0,1.015
2.0,1.0,1.016
4.0,2.0,1.017
2.0,2.0,1.018
-1.0,0.0,1.019
-2.0,-1.0,1.02
-3.0,-4.0,1.021
-2.0,-2.0,1.022
1.0,-1.0,1.023
4.0,0.0,1.024
4.0,2.0,1.025
-1.0,3.0,1.026
-3.0,0.0,1.027
1.0,-5.0,1.028
7.0,-5.0,1.029
4.0,-1.0,1.03
-2.0,2.0,1.031
-3.0,0.0,1.032
0.0,-4.0,1.033
3.0,-5.0,1.034
1.0,-5.0,1.035
0.0,-5.0,1.036
1.0,-4.0,1.037
6.0,-5.0,1.038
9.0,-8.0,1.039
6.0,-9.0,1.04
0.0,-12.0,1.041
-4.0,-11.0,1.042
-1.0,-8.0,1.043
8.0,-4.0,1.044
11.0,0.0,1.045
5.0,3.0,1.046
0.0,2.0,1.047
0.0,0.0,1.048
5.0,0.0,1.049
7.0,-1.0,1.05
5.0,-1.0,1.051
3.0,0.0,1.052
2.0,4.0,1.053
0.0,6.0,1.054
0.0,5.0,1.055
4.0,2.0,1.056
9.0,1.0,1.057
10.0,-1.0,1.058
4.0,-2.0,1.059
-2.0,-2.0,1.06
-3.0,-4.0,1.061
-1.0,-4.0,1.062
3.0,-3.0,1.063
5.0,-1.0,1.064
4.0,1.0,1.065
3.0,5.0,1.066
3.0,6.0,1.067
5.0,3.0,1.068
2.0,0.0,1.069
0.0,-1.0,1.07
0.0,-1.0,1.071
2.0,-2.0,1.072
3.0,0.0,1.073
1.0,2.0,1.074
1.0,-1.0,1.075
3.0,-4.0,1.076
5.0,-4.0,1.077
4.0,0.0,1.078
0.0,2.0,1.079
-3.0,0.0,1.08
-5.0,-6.0,1.081
-3.0,-7.0,1.082
3.0,-5.0,1.083
10.0,0.0,1.084
9.0,3.0,1.085
3.0,4.0,1.086
1.0,2.0,1.087
3.0,1.0,1.088
6.0,3.0,1.089
5.0,6.0,1.09
2.0,7.0,1.091
1.0,4.0,1.092
1.0,2.0,1.093
1.0,2.0,1.094
0.0,1.0,1.095
1.0,-2.0,1.096
5.0,-3.0,1.097
6.0,-3.0,1.098
3.0,-1.0,1.099
-2.0,0.0,1.1
-6.0,-6.0,1.101
-6.0,-7.0,1.102
1.0,-7.0,1.103
12.0,-5.0,1.104
13.0,-2.0,1.105
7.0,1.0,1.106
2.0,3.0,1.107
4.0,4.0,1.108
7.0,2.0,1.109
2.0,0.0,1.11
-3.0,1.0,1.111
-2.0,2.0,1.112
2.0,3.0,1.113
3.0,3.0,1.114
2.0,2.0,1.115
2.0,1.0,1.116
3.0,2.0,1.117
2.0,0.0,1.118
0.0,-5.0,1.119
-2.0,-7.0,1.12
-4.0,-9.0,1.121
-5.0,-6.0,1.122
0.0,-4.0,1.123
7.0,-5.0,1.124
7.0,-4.0,1.125
-1.0,-1.0,1.126
-4.0,0.0,1.127
1.0,-3.0,1.128
7.0,-3.0,1.129
7.0,0.0,1.13
4.0,1.0,1.131
3.0,-2.0,1.132
3.0,-1.0,1.133
1.0,4.0,1.134
1.0,5.0,1.135
5.0,1.0,1.136
10.0,0.0,1.137
8.0,0.0,1.138
4.0,0.0,1.139
-1.0,0.0,1.14
-3.0,-5.0,1.141
-4.0,-6.0,1.142
1.0,-6.0,1.143
7.0,-5.0,1.144
9.0,-1.0,1.145
3.0,4.0,1.146
1.0,3.0,1.147
3.0,-2.0,1.148
4.0,-3.0,1.149
1.0,1.0,1.15
-1.0,4.0,1.151
2.0,1.0,1.152
3.0,-1.0,1.153
1.0,3.0,1.154
1.0,6.0,1.155
2.0,3.0,1.156
5.0,-1.0,1.157
4.0,-3.0,1.158
0.0,-1.0,1.159
-4.0,-1.0,1.16
-6.0,-6.0,1.161
-6.0,-7.0,1.162
-3.0,-4.0,1.163
2.0,0.0,1.164
2.0,1.0,1.165
-2.0,0.0,1.166
0.0,-1.0,1.167
7.0,0.0,1.168
9.0,0.0,1.169
5.0,1.0,1.17
9.0,0.0,1.171
16.0,0.0,1.172
19.0,0.0,1.173
13.0,-1.0,1.174
4.0,-1.0,1.175
0.0,0.0,1.176
0.0,1.0,1.177
-1.0,-3.0,1.178
-3.0,-7.0,1.179
-4.0,-6.0,1.18
-4.0,-5.0,1.181
-1.0,-4.0,1.182
5.0,-4.0,1.183
9.0,-3.0,1.184
6.0,2.0,1.185
1.0,4.0,1.186
-1.0,2.0,1.187
0.0,0.0,1.188
2.0,3.0,1.189
4.0,6.0,1.19
5.0,6.0,1.191
3.0,2.0,1.192
0.0,1.0,1.193
-1.0,4.0,1.194
0.0,4.0,1.195
2.0,-1.0,1.196
2.0,-3.0,1.197
2.0,-3.0,1.198
2.0,-2.0,1.199
-2.0,-6.0,1.2
-6.0,-12.0,1.201
-6.0,-12.0,1.202
-2.0,-7.0,1.203
7.0,-5.0,1.204
11.0,-2.0,1.205
9.0,1.0,1.206
5.0,4.0,1.207
1.0,1.0,1.208
0.0,-1.0,1.209
-1.0,2.0,1.21
0.0,8.0,1.211
3.0,8.0,1.212
5.0,4.0,1.213
5.0,1.0,1.214
2.0,0.0,1.215
1.0,-1.0,1.216
5.0,-1.0,1.217
4.0,-1.0,1.218
0.0,-1.0,1.219
-3.0,-2.0,1.22
-7.0,-6.0,1.221
-8.0,-8.0,1.222
1.0,-4.0,1.223
9.0,0.0,1.224
9.0,0.0,1.225
8.0,0.0,1.226
4.0,-1.0,1.227
1.0,-2.0,1.228
3.0,-1.0,1.229
6.0,0.0,1.23
6.0,-1.0,1.231
5.0,-2.0,1.232
3.0,-2.0,1.233
1.0,-2.0,1.234
0.0,-2.0,1.235
-1.0,-3.0,1.236
0.0,-3.0,1.237
2.0,-4.0,1.238
2.0,-5.0,1.239
-2.0,-5.0,1.24
-8.0,-5.0,1.241
-10.0,-5.0,1.242
-1.0,-5.0,1.243
11.0,-5.0,1.244
12.0,-4.0,1.245
3.0,-1.0,1.246
-2.0,1.0,1.247
1.0,1.0,1.248
6.0,3.0,1.249
6.0,4.0,1.25
4.0,4.0,1.251
3.0,2.0,1.252
2.0,0.0,1.253
0.0,1.0,1.254
2.0,3.0,1.255
6.0,5.0,1.256
7.0,6.0,1.257
2.0,3.0,1.258
-2.0,1.0,1.259
-3.0,0.0,1.26
-2.0,-4.0,1.261
-2.0,-3.0,1.262
1.0,-2.0,1.263
9.0,0.0,1.264
9.0,1.0,1.265
2.0,1.0,1.266
0.0,1.0,1.267
5.0,0.0,1.268
11.0,0.0,1.269
7.0,0.0,1.27
0.0,0.0,1.271
0.0,0.0,1.272
1.0,0.0,1.273
1.0,0.0,1.274
-2.0,-1.0,1.275
0.0,-1.0,1.276
5.0,0.0,1.277
2.0,-9.0,1.278
-1.0,-6.0,1.279
-4.0,-3.0,1.28
-4.0,-4.0,1.281
-3.0,-7.0,1.282
2.0,-6.0,1.283
8.0,-3.0,1.284
8.0,0.0,1.285
7.0,1.0,1.286
5.0,4.0,1.287
4.0,6.0,1.288
8.0,1.0,1.289
9.0,-1.0,1.29
3.0,0.0,1.291
0.0,3.0,1.292
1.0,3.0,1.293
4.0,4.0,1.294
5.0,4.0,1.295
6.0,3.0,1.296
2.0,0.0,1.297
2.0,-6.0,1.298
-1.0,-4.0,1.299
-4.0,-2.0,1.3
-4.0,-3.0,1.301
-3.0,-5.0,1.302
2.0,-4.0,1.303
8.0,-2.0,1.304
8.0,0.0,1.305
7.0,1.0,1.306
5.0,3.0,1.307
4.0,4.0,1.308
8.0,1.0,1.309
9.0,-1.0,1.31
3.0,0.0,1.311
0.0,2.0,1.312
1.0,2.0,1.313
4.0,3.0,1.314
5.0,3.0,1.315
6.0,2.0,1.316
2.0,0.0,1.317
-2.0,0.0,1.318
-6.0,0.0,1.319
-8.0,-4.0,1.32
-7.0,-10.0,1.321
-4.0,-11.0,1.322
1.0,-8.0,1.323
9.0,-5.0,1.324
11.0,-4.0,1.325
6.0,0.0,1.326
2.0,3.0,1.327
4.0,0.0,1.328
10.0,-1.0,1.329
6.0,0.0,1.33
0.0,1.0,1.331
-1.0,0.0,1.332
2.0,-3.0,1.333
2.0,-1.0,1.334
-1.0,3.0,1.335
-2.0,3.0,1.336
0.0,1.0,1.337
4.0,-2.0,1.338
4.0,-3.0,1.339
0.0,-2.0,1.34
-4.0,-5.0,1.341
-4.0,-6.0,1.342
-1.0,-5.0,1.343
8.0,-4.0,1.344
12.0,-1.0,1.345
7.0,3.0,1.346
3.0,3.0,1.347
3.0,2.0,1.348
5.0,3.0,1.349
4.0,5.0,1.35
3.0,4.0,1.351
5.0,-1.0,1.352
6.0,0.0,1.353
6.0,2.0,1.354
6.0,2.0,1.355
5.0,-1.0,1.356
6.0,-1.0,1.357
4.0,0.0,1.358
3.0,0.0,1.359
0.0,-2.0,1.36
-5.0,-5.0,1.361
-5.0,-5.0,1.362
4.0,-4.0,1.363
15.0,-3.0,1.364
14.0,0.0,1.365
4.0,3.0,1.366
1.0,1.0,1.367
4.0,-3.0,1.368
4.0,-5.0,1.369
0.0,-2.0,1.37
-2.0,1.0,1.371
-1.0,0.0,1.372
-1.0,-2.0,1.373
-3.0,-2.0,1.374
-2.0,-1.0,1.375
2.0,0.0,1.376
6.0,0.0,1.377
3.0,-4.0,1.378
0.0,-4.0,1.379
-2.0,-2.0,1.38
-5.0,-1.0,1.381
-10.0,-2.0,1.382
-8.0,-3.0,1.383
1.0,-2.0,1.384
8.0,0.0,1.385
3.0,1.0,1.386
0.0,1.0,1.387
4.0,-1.0,1.388
7.0,-2.0,1.389
4.0,-1.0,1.39
0.0,3.0,1.391
2.0,4.0,1.392
5.0,3.0,1.393
5.0,1.0,1.394
4.0,1.0,1.395
2.0,2.0,1.396
2.0,3.0,1.397
0.0,0.0,1.398
2.0,-2.0,1.399
4.0,-3.0,1.4
4.0,-6.0,1.401
0.0,-7.0,1.402
2.0,-8.0,1.403
9.0,-6.0,1.404
10.0,-3.0,1.405
2.0,2.0,1.406
-3.0,2.0,1.407
0.0,-2.0,1.408
5.0,-4.0,1.409
5.0,1.0,1.41
2.0,8.0,1.411
2.0,8.0,1.412
3.0,3.0,1.413
3.0,0.0,1.414
1.0,1.0,1.415
1.0,1.0,1.416
4.0,0.0,1.417
7.0,-3.0,1.418
5.0,-5.0,1.419
-1.0,-7.0,1.42
-7.0,-10.0,1.421
-7.0,-7.0,1.422
0.0,-3.0,1.423
8.0,0.0,1.424
9.0,3.0,1.425
4.0,5.0,1.426
3.0,5.0,1.427
4.0,1.0,1.428
3.0,-1.0,1.429
2.0,0.0,1.43
1.0,-1.0,1.431
1.0,-5.0,1.432
1.0,-6.0,1.433
1.0,-3.0,1.434
4.0,-1.0,1.435
6.0,-2.0,1.436
6.0,0.0,1.437
2.0,3.0,1.438
3.0,0.0,1.439
0.0,-7.0,1.44
-5.0,-11.0,1.441
-8.0,-8.0,1.442
-1.0,-4.0,1.443
10.0,-3.0,1.444
10.0,-1.0,1.445
1.0,3.0,1.446
-2.0,5.0,1.447
4.0,1.0,1.448
9.0,-1.0,1.449
6.0,0.0,1.45
1.0,2.0,1.451
2.0,0.0,1.452
4.0,-1.0,1.453
1.0,1.0,1.454
0.0,5.0,1.455
3.0,4.0,1.456
8.0,2.0,1.457
8.0,0.0,1.458
3.0,-1.0,1.459
-2.0,-3.0,1.46
-5.0,-8.0,1.461
-4.0,-8.0,1.462
2.0,-5.0,1.463
9.0,-4.0,1.464
10.0,-5.0,1.465
3.0,0.0,1.466
0.0,3.0,1.467
3.0,2.0,1.468
5.0,-2.0,1.469
3.0,0.0,1.47
-1.0,6.0,1.471
0.0,10.0,1.472
1.0,6.0,1.473
3.0,2.0,1.474
2.0,1.0,1.475
3.0,2.0,1.476
3.0,0.0,1.477
3.0,-2.0,1.478
4.0,-2.0,1.479
2.0,-1.0,1.48
-1.0,-4.0,1.481
-2.0,-5.0,1.482
0.0,-4.0,1.483
2.0,-1.0,1.484
2.0,0.0,1.485
1.0,0.0,1.486
3.0,-2.0,1.487
5.0,-3.0,1.488
4.0,-2.0,1.489
2.0,0.0,1.49
5.0,-1.0,1.491
7.0,-3.0,1.492
3.0,-3.0,1.493
-1.0,-1.0,1.494
-1.0,1.0,1.495
4.0,2.0,1.496
8.0,3.0,1.497
2.0,-1.0,1.498
-1.0,-4.0,1.499
-3.0,-5.0,1.5
-2.0,-8.0,1.501
-3.0,-3.0,1.502
1.0,0.0,1.503
7.0,3.0,1.504
10.0,4.0,1.505
7.0,4.0,1.506
5.0,4.0,1.507
6.0,1.0,1.508
5.0,-2.0,1.509
1.0,-2.0,1.51
0.0,0.0,1.511
3.0,2.0,1.512
5.0,4.0,1.513
4.0,3.0,1.514
2.0,1.0,1.515
4.0,-2.0,1.516
9.0,-1.0,1.517
7.0,-2.0,1.518
1.0,-1.0,1.519
-4.0,0.0,1.52
-7.0,-5.0,1.521
-6.0,-8.0,1.522
0.0,-6.0,1.523
9.0,0.0,1.524
11.0,2.0,1.525
5.0,2.0,1.526
-1.0,-2.0,1.527
-1.0,-3.0,1.528
4.0,-1.0,1.529
4.0,2.0,1.53
0.0,0.0,1.531
-2.0,-3.0,1.532
0.0,-3.0,1.533
1.0,2.0,1.534
0.0,4.0,1.535
0.0,1.0,1.536
1.0,0.0,1.537
0.0,-1.0,1.538
-1.0,-3.0,1.539
-4.0,-5.0,1.54
-4.0,-8.0,1.541
-3.0,-5.0,1.542
1.0,-2.0,1.543
5.0,-3.0,1.544
7.0,-2.0,1.545
6.0,1.0,1.546
3.0,2.0,1.547
4.0,-1.0,1.548
6.0,0.0,1.549
6.0,5.0,1.55
6.0,9.0,1.551
6.0,8.0,1.552
7.0,3.0,1.553
2.0,0.0,1.554
-2.0,-1.0,1.555
0.0,-2.0,1.556
4.0,-1.0,1.557
4.0,-2.0,1.558
-2.0,-4.0,1.559
-6.0,-5.0,1.56
-3.0,-6.0,1.561
1.0,-5.0,1.562
6.0,-6.0,1.563
10.0,-5.0,1.564
11.0,0.0,1.565
7.0,5.0,1.566
2.0,6.0,1.567
2.0,1.0,1.568
4.0,-3.0,1.569
4.0,-3.0,1.57
2.0,0.0,1.571
2.0,2.0,1.572
3.0,3.0,1.573
1.0,1.0,1.574
-1.0,0.0,1.575
0.0,0.0,1.576
3.0,1.0,1.577
1.0,-1.0,1.578
0.0,-2.0,1.579
-2.0,-4.0,1.58
-2.0,-6.0,1.581
-1.0,-7.0,1.582
4.0,-5.0,1.583
11.0,-3.0,1.584
10.0,0.0,1.585
9.0,2.0,1.586
8.0,1.0,1.587
5.0,0.0,1.588
3.0,2.0,1.589
1.0,4.0,1.59
2.0,2.0,1.591
3.0,0.0,1.592
3.0,1.0,1.593
2.0,2.0,1.594
1.0,1.0,1.595
0.0,0.0,1.596
0.0,-1.0,1.597
1.0,-1.0,1.598
0.0,-2.0,1.599
-2.0,-4.0,1.6
-2.0,-7.0,1.601
-1.0,-4.0,1.602
4.0,-2.0,1.603
10.0,-2.0,1.604
9.0,-2.0,1.605
8.0,2.0,1.606
7.0,5.0,1.607
5.0,4.0,1.608
3.0,1.0,1.609
1.0,-1.0,1.61
2.0,-1.0,1.611
3.0,-1.0,1.612
3.0,0.0,1.613
2.0,1.0,1.614
1.0,1.0,1.615
0.0,2.0,1.616
0.0,2.0,1.617
0.0,0.0,1.618
-3.0,-1.0,1.619
-4.0,-1.0,1.62
-5.0,-4.0,1.621
-5.0,-5.0,1.622
0.0,-7.0,1.623
6.0,-7.0,1.624
8.0,-2.0,1.625
4.0,1.0,1.626
2.0,1.0,1.627
5.0,0.0,1.628
8.0,2.0,1.629
3.0,3.0,1.63
0.0,1.0,1.631
1.0,-4.0,1.632
3.0,-5.0,1.633
3.0,0.0,1.634
2.0,2.0,1.635
1.0,1.0,1.636
2.0,0.0,1.637
2.0,0.0,1.638
1.0,0.0,1.639
0.0,-1.0,1.64
-1.0,-3.0,1.641
0.0,-2.0,1.642
5.0,-2.0,1.643
12.0,-3.0,1.644
13.0,-1.0,1.645
9.0,2.0,1.646
4.0,3.0,1.647
3.0,1.0,1.648
3.0,0.0,1.649
-1.0,4.0,1.65
-4.0,5.0,1.651
-2.0,2.0,1.652
4.0,-1.0,1.653
6.0,0.0,1.654
3.0,2.0,1.655
1.0,1.0,1.656
2.0,0.0,1.657
2.0,-2.0,1.658
-2.0,-2.0,1.659
-4.0,-4.0,1.66
-4.0,-8.0,1.661
-3.0,-6.0,1.662
0.0,-1.0,1.663
5.0,0.0,1.664
10.0,0.0,1.665
4.0,1.0,1.666
-2.0,4.0,1.667
0.0,3.0,1.668
4.0,-2.0,1.669
4.0,-4.0,1.67
0.0,-1.0,1.671
0.0,1.0,1.672
3.0,0.0,1.673
3.0,-1.0,1.674
0.0,3.0,1.675
0.0,4.0,1.676
2.0,3.0,1.677
5.0,-1.0,1.678
3.0,-3.0,1.679
1.0,-4.0,1.68
1.0,-7.0,1.681
1.0,-7.0,1.682
3.0,-6.0,1.683
6.0,-2.0,1.684
8.0,-1.0,1.685
6.0,0.0,1.686
4.0,-2.0,1.687
4.0,-6.0,1.688
4.0,-6.0,1.689
2.0,-2.0,1.69
0.0,2.0,1.691
0.0,0.0,1.692
0.0,-5.0,1.693
0.0,-5.0,1.694
1.0,-2.0,1.695
4.0,1.0,1.696
6.0,0.0,1.697
3.0,-1.0,1.698
-1.0,-1.0,1.699
-5.0,0.0,1.7
-7.0,-5.0,1.701
-3.0,-7.0,1.702
5.0,-4.0,1.703
12.0,1.0,1.704
9.0,3.0,1.705
2.0,2.0,1.706
-1.0,0.0,1.707
1.0,-1.0,1.708
2.0,0.0,1.709
0.0,2.0,1.71
-2.0,4.0,1.711
0.0,4.0,1.712
1.0,3.0,1.713
0.0,3.0,1.714
-1.0,1.0,1.715
0.0,-2.0,1.716
3.0,-2.0,1.717
3.0,-4.0,1.718
2.0,-3.0,1.719
0.0,-3.0,1.72
-2.0,-5.0,1.721
-2.0,-4.0,1.722
1.0,-2.0,1.723
9.0,-1.0,1.724
13.0,-1.0,1.725
8.0,0.0,1.726
4.0,0.0,1.727
5.0,1.0,1.728
6.0,1.0,1.729
3.0,0.0,1.73
1.0,-3.0,1.731
3.0,-1.0,1.732
4.0,2.0,1.733
5.0,4.0,1.734
3.0,3.0,1.735
1.0,2.0,1.736
0.0,4.0,1.737
-2.0,2.0,1.738
0.0,-1.0,1.739
0.0,-3.0,1.74
-3.0,-6.0,1.741
-4.0,-6.0,1.742
1.0,-5.0,1.743
13.0,-3.0,1.744
11.0,1.0,1.745
1.0,3.0,1.746
-1.0,2.0,1.747
5.0,1.0,1.748
8.0,2.0,1.749
3.0,1.0,1.75
0.0,2.0,1.751
2.0,2.0,1.752
3.0,5.0,1.753
0.0,6.0,1.754
-1.0,3.0,1.755
1.0,0.0,1.756
5.0,-1.0,1.757
2.0,-2.0,1.758
0.0,-2.0,1.759
-2.0,-1.0,1.76
-3.0,-4.0,1.761
-2.0,-7.0,1.762
3.0,-5.0,1.763
8.0,-3.0,1.764
6.0,-1.0,1.765
4.0,1.0,1.766
1.0,0.0,1.767
-2.0,-2.0,1.768
-1.0,-2.0,1.769
0.0,-1.0,1.77
2.0,-1.0,1.771
4.0,-2.0,1.772
5.0,-1.0,1.773
6.0,0.0,1.774
4.0,1.0,1.775
3.0,2.0,1.776
3.0,0.0,1.777
4.0,-3.0,1.778
3.0,-5.0,1.779
1.0,-5.0,1.78
-4.0,-6.0,1.781
-6.0,-5.0,1.782
-1.0,-5.0,1.783
7.0,-3.0,1.784
10.0,-2.0,1.785
3.0,1.0,1.786
0.0,4.0,1.787
7.0,2.0,1.788
12.0,1.0,1.789
6.0,2.0,1.79
0.0,5.0,1.791
-1.0,4.0,1.792
3.0,2.0,1.793
4.0,2.0,1.794
3.0,2.0,1.795
2.0,0.0,1.796
1.0,-1.0,1.797
-1.0,-4.0,1.798
0.0,-5.0,1.799
1.0,-4.0,1.8
0.0,-7.0,1.801
-3.0,-7.0,1.802
1.0,-6.0,1.803
10.0,-2.0,1.804
13.0,2.0,1.805
7.0,6.0,1.806
2.0,7.0,1.807
1.0,6.0,1.808
0.0,2.0,1.809
-2.0,0.0,1.81
-1.0,0.0,1.811
1.0,1.0,1.812
4.0,0.0,1.813
1.0,-1.0,1.814
0.0,0.0,1.815
1.0,3.0,1.816
5.0,3.0,1.817
4.0,-2.0,1.818
1.0,-4.0,1.819
-2.0,-1.0,1.82
-4.0,-3.0,1.821
-3.0,-4.0,1.822
3.0,-3.0,1.823
9.0,0.0,1.824
8.0,1.0,1.825
4.0,0.0,1.826
3.0,0.0,1.827
4.0,3.0,1.828
4.0,6.0,1.829
1.0,5.0,1.83
0.0,3.0,1.831
1.0,-1.0,1.832
3.0,-1.0,1.833
4.0,2.0,1.834
5.0,5.0,1.835
4.0,5.0,1.836
4.0,2.0,1.837
3.0,0.0,1.838
1.0,1.0,1.839
-2.0,-2.0,1.84
-6.0,-10.0,1.841
-7.0,-13.0,1.842
-2.0,-10.0,1.843
3.0,-6.0,1.844
2.0,-5.0,1.845
-2.0,-2.0,1.846
-7.0,0.0,1.847
-5.0,-2.0,1.848
-2.0,-5.0,1.849
0.0,-2.0,1.85
1.0,4.0,1.851
2.0,5.0,1.852
2.0,0.0,1.853
1.0,-2.0,1.854
2.0,-1.0,1.855
3.0,0.0,1.856
5.0,-2.0,1.857
6.0,-6.0,1.858
5.0,-5.0,1.859
0.0,-3.0,1.86
-2.0,-5.0,1.861
-1.0,-5.0,1.862
4.0,-4.0,1.863
13.0,-3.0,1.864
13.0,-2.0,1.865
8.0,0.0,1.866
3.0,3.0,1.867
6.0,1.0,1.868
9.0,-3.0,1.869
6.0,-2.0,1.87
4.0,1.0,1.871
4.0,2.0,1.872
6.0,0.0,1.873
7.0,1.0,1.874
5.0,3.0,1.875
2.0,2.0,1.876
1.0,2.0,1.877
2.0,1.0,1.878
1.0,3.0,1.879
-2.0,2.0,1.88
-5.0,-2.0,1.881
-4.0,-3.0,1.882
2.0,0.0,1.883
9.0,0.0,1.884
6.0,0.0,1.885
3.0,3.0,1.886
4.0,5.0,1.887
6.0,4.0,1.888
3.0,0.0,1.889
-1.0,1.0,1.89
-2.0,1.0,1.891
1.0,-2.0,1.892
1.0,-4.0,1.893
-1.0,-2.0,1.894
-1.0,3.0,1.895
2.0,3.0,1.896
5.0,1.0,1.897
4.0,-2.0,1.898
2.0,-4.0,1.899
-1.0,-5.0,1.9
-5.0,-9.0,1.901
-7.0,-10.0,1.902
-2.0,-4.0,1.903
7.0,0.0,1.904
10.0,0.0,1.905
8.0,-2.0,1.906
3.0,-4.0,1.907
3.0,-3.0,1.908
4.0,-2.0,1.909
2.0,0.0,1.91
1.0,1.0,1.911
3.0,1.0,1.912
4.0,0.0,1.913
1.0,-2.0,1.914
0.0,-4.0,1.915
0.0,-3.0,1.916
4.0,0.0,1.917
5.0,1.0,1.918
3.0,0.0,1.919
0.0,-2.0,1.92
-2.0,-5.0,1.921
-2.0,-6.0,1.922
0.0,-5.0,1.923
6.0,-1.0,1.924
7.0,3.0,1.925
3.0,6.0,1.926
2.0,5.0,1.927
7.0,1.0,1.928
7.0,-1.0,1.929
1.0,0.0,1.93
-2.0,2.0,1.931
1.0,0.0,1.932
5.0,-4.0,1.933
3.0,-5.0,1.934
0.0,0.0,1.935
2.0,4.0,1.936
6.0,5.0,1.937
2.0,0.0,1.938
-4.0,-3.0,1.939
-7.0,-4.0,1.94
-4.0,-6.0,1.941
-2.0,-6.0,1.942
-1.0,-4.0,1.943
6.0,-3.0,1.944
11.0,0.0,1.945
8.0,2.0,1.946
1.0,4.0,1.947
1.0,2.0,1.948
6.0,2.0,1.949
9.0,3.0,1.95
9.0,3.0,1.951
7.0,0.0,1.952
5.0,-1.0,1.953
4.0,1.0,1.954
2.0,3.0,1.955
2.0,1.0,1.956
2.0,0.0,1.957
1.0,-3.0,1.958
0.0,-4.0,1.959
-2.0,-5.0,1.96
-7.0,-9.0,1.961
-10.0,-10.0,1.962
-4.0,-7.0,1.963
8.0,-3.0,1.964
12.0,2.0,1.965
6.0,7.0,1.966
0.0,7.0,1.967
3.0,1.0,1.968
3.0,-2.0,1.969
0.0,-1.0,1.97
-1.0,-2.0,1.971
2.0,-4.0,1.972
5.0,-4.0,1.973
3.0,0.0,1.974
0.0,2.0,1.975
1.0,0.0,1.976
5.0,0.0,1.977
5.0,0.0,1.978
2.0,-2.0,1.979
-2.0,-6.0,1.98
-4.0,-10.0,1.981
-3.0,-13.0,1.982
1.0,-8.0,1.983
7.0,-3.0,1.984
10.0,0.0,1.985
6.0,1.0,1.986
5.0,0.0,1.987
5.0,-2.0,1.988
6.0,-4.0,1.989
6.0,-5.0,1.99
4.0,-1.0,1.991
0.0,2.0,1.992
-4.0,2.0,1.993
-4.0,2.0,1.994
0.0,2.0,1.995
3.0,2.0,1.996
3.0,0.0,1.997
1.0,-1.0,1.998
-1.0,-2.0,1.999
-3.0,-1.0,2.0
-6.0,-2.0,2.001
-3.0,0.0,2.002
6.0,2.0,2.003
13.0,2.0,2.004
13.0,2.0,2.005
8.0,5.0,2.006
4.0,5.0,2.007
2.0,2.0,2.008
1.0,-1.0,2.009
0.0,-1.0,2.01
2.0,0.0,2.011
1.0,0.0,2.012
-1.0,0.0,2.013
-2.0,1.0,2.014
0.0,4.0,2.015
0.0,3.0,2.016
-1.0,0.0,2.017
-2.0,-2.0,2.018
0.0,-2.0,2.019
0.0,-5.0,2.02
-3.0,-9.0,2.021
-3.0,-10.0,2.022
2.0,-8.0,2.023
8.0,-6.0,2.024
8.0,-4.0,2.025
4.0,-2.0,2.026
4.0,0.0,2.027
7.0,1.0,2.028
6.0,1.0,2.029
3.0,3.0,2.03
2.0,5.0,2.031
4.0,4.0,2.032
6.0,0.0,2.033
6.0,-2.0,2.034
4.0,-3.0,2.035
6.0,-1.0,2.036
6.0,2.0,2.037
4.0,5.0,2.038
1.0,3.0,2.039
-3.0,-3.0,2.04
-5.0,-9.0,2.041
-3.0,-6.0,2.042
4.0,0.0,2.043
11.0,0.0,2.044
11.0,0.0,2.045
5.0,1.0,2.046
2.0,4.0,2.047
3.0,2.0,2.048
6.0,-2.0,2.049
4.0,-3.0,2.05
-1.0,-2.0,2.051
-4.0,0.0,2.052
-3.0,0.0,2.053
-1.0,-1.0,2.054
1.0,-1.0,2.055
3.0,-2.0,2.056
2.0,0.0,2.057
-1.0,0.0,2.058
-2.0,0.0,2.059
1.0,-2.0,2.06
4.0,-7.0,2.061
3.0,-8.0,2.062
2.0,-6.0,2.063
6.0,-3.0,2.064
11.0,-1.0,2.065
7.0,1.0,2.066
1.0,3.0,2.067
0.0,2.0,2.068
2.0,3.0,2.069
1.0,4.0,2.07
0.0,2.0,2.071
2.0,-3.0,2.072
5.0,-6.0,2.073
2.0,-2.0,2.074
1.0,1.0,2.075
3.0,1.0,2.076
5.0,1.0,2.077
3.0,2.0,2.078
-1.0,2.0,2.079
-4.0,-2.0,2.08
-4.0,-9.0,2.081
-4.0,-10.0,2.082
0.0,-4.0,2.083
8.0,1.0,2.084
12.0,2.0,2.085
8.0,2.0,2.086
3.0,-1.0,2.087
5.0,-4.0,2.088
7.0,-2.0,2.089
2.0,3.0,2.09
-3.0,3.0,2.091
-3.0,0.0,2.092
2.0,-2.0,2.093
4.0,1.0,2.094
2.0,2.0,2.095
0.0,-1.0,2.096
1.0,-2.0,2.097
2.0,-1.0,2.098
1.0,0.0,2.099
-2.0,-2.0,2.1
-7.0,-6.0,2.101
-6.0,-6.0,2.102
1.0,-7.0,2.103
12.0,-6.0,2.104
13.0,-1.0,2.105
7.0,4.0,2.106
4.0,5.0,2.107
7.0,0.0,2.108
11.0,-2.0,2.109
7.0,0.0,2.11
3.0,2.0,2.111
2.0,1.0,2.112
2.0,1.0,2.113
0.0,3.0,2.114
-1.0,2.0,2.115
0.0,-2.0,2.116
3.0,-3.0,2.117
4.0,0.0,2.118
3.0,0.0,2.119
-2.0,-4.0,2.12
-7.0,-9.0,2.121
-6.0,-7.0,2.122
2.0,-2.0,2.123
10.0,0.0,2.124
8.0,3.0,2.125
2.0,6.0,2.126
0.0,6.0,2.127
3.0,1.0,2.128
6.0,0.0,2.129
1.0,1.0,2.13
-3.0,2.0,2.131
-2.0,0.0,2.132
-1.0,-1.0,2.133
1.0,-1.0,2.134
6.0,0.0,2.135
11.0,0.0,2.136
11.0,2.0,2.137
5.0,0.0,2.138
0.0,-4.0,2.139
-3.0,-6.0,2.14
-4.0,-5.0,2.141
-7.0,-2.0,2.142
-3.0,-3.0,2.143
6.0,-3.0,2.144
9.0,0.0,2.145
2.0,5.0,2.146
-2.0,4.0,2.147
2.0,-2.0,2.148
6.0,-3.0,2.149
5.0,0.0,2.15
2.0,0.0,2.151
3.0,-1.0,2.152
3.0,-3.0,2.153
-1.0,-2.0,2.154
-3.0,-1.0,2.155
-2.0,0.0,2.156
0.0,2.0,2.157
0.0,0.0,2.158
0.0,-2.0,2.159
0.0,-5.0,2.16
-1.0,-5.0,2.161
-2.0,-4.0,2.162
3.0,-3.0,2.163
7.0,-1.0,2.164
7.0,3.0,2.165
6.0,5.0,2.166
3.0,1.0,2.167
0.0,-3.0,2.168
2.0,-2.0,2.169
3.0,-1.0,2.17
1.0,-2.0,2.171
0.0,-3.0,2.172
3.0,-1.0,2.173
5.0,0.0,2.174
1.0,0.0,2.175
-2.0,-1.0,2.176
0.0,-1.0,2.177
2.0,-2.0,2.178
1.0,-1.0,2.179
1.0,-2.0,2.18
1.0,-6.0,2.181
1.0,-6.0,2.182
6.0,-3.0,2.183
13.0,-1.0,2.184
16.0,2.0,2.185
10.0,5.0,2.186
5.0,5.0,2.187
9.0,4.0,2.188
13.0,3.0,2.189
8.0,3.0,2.19
2.0,1.0,2.191
3.0,0.0,2.192
5.0,4.0,2.193
2.0,6.0,2.194
0.0,4.0,2.195
1.0,0.0,2.196
3.0,1.0,2.197
2.0,3.0,2.198
5.0,1.0,2.199
10.0,-2.0,2.2
9.0,-8.0,2.201
-2.0,-9.0,2.202
-14.0,-9.0,2.203
-16.0,-8.0,2.204
-14.0,-3.0,2.205
-12.0,3.0,2.206
-7.0,3.0,2.207
5.0,-1.0,2.208
17.0,-2.0,2.209
18.0,2.0,2.21
13.0,4.0,2.211
9.0,1.0,2.212
8.0,-1.0,2.213
8.0,0.0,2.214
6.0,1.0,2.215
5.0,2.0,2.216
5.0,3.0,2.217
1.0,2.0,2.218
-2.0,0.0,2.219
-8.0,-4.0,2.22
-12.0,-7.0,2.221
-9.0,-9.0,2.222
1.0,-8.0,2.223
9.0,-5.0,2.224
7.0,0.0,2.225
3.0,4.0,2.226
3.0,0.0,2.227
4.0,-5.0,2.228
2.0,-5.0,2.229
0.0,-2.0,2.23
1.0,1.0,2.231
4.0,2.0,2.232
4.0,4.0,2.233
0.0,2.0,2.234
0.0,0.0,2.235
4.0,-2.0,2.236
5.0,-2.0,2.237
3.0,-2.0,2.238
1.0,-1.0,2.239
-2.0,-3.0,2.24
-5.0,-7.0,2.241
-8.0,-6.0,2.242
-3.0,-3.0,2.243
6.0,2.0,2.244
10.0,4.0,2.245
5.0,2.0,2.246
2.0,1.0,2.247
5.0,2.0,2.248
8.0,3.0,2.249
3.0,2.0,2.25
2.0,1.0,2.251
10.0,0.0,2.252
21.0,-1.0,2.253
22.0,0.0,2.254
11.0,3.0,2.255
-5.0,4.0,2.256
-16.0,3.0,2.257
-20.0,0.0,2.258
-18.0,0.0,2.259
-14.0,2.0,2.26
-10.0,-3.0,2.261
-3.0,-6.0,2.262
5.0,-7.0,2.263
11.0,-3.0,2.264
9.0,0.0,2.265
6.0,0.0,2.266
7.0,-1.0,2.267
11.0,2.0,2.268
10.0,3.0,2.269
3.0,1.0,2.27
-1.0,-2.0,2.271
-1.0,-3.0,2.272
-1.0,0.0,2.273
-4.0,2.0,2.274
-4.0,1.0,2.275
0.0,2.0,2.276
6.0,5.0,2.277
7.0,4.0,2.278
4.0,-1.0,2.279
-1.0,-6.0,2.28
-2.0,-9.0,2.281
2.0,-8.0,2.282
13.0,-6.0,2.283
21.0,-6.0,2.284
19.0,-3.0,2.285
10.0,0.0,2.286
8.0,3.0,2.287
25.0,1.0,2.288
57.0,-2.0,2.289
81.0,-3.0,2.29
67.0,-2.0,2.291
10.0,0.0,2.292
-51.0,3.0,2.293
-76.0,4.0,2.294
-63.0,3.0,2.295
-48.0,0.0,2.296
-42.0,1.0,2.297
-32.0,0.0,2.298
-7.0,-4.0,2.299
10.0,-8.0,2.3
9.0,-11.0,2.301
7.0,-9.0,2.302
17.0,-8.0,2.303
19.0,-7.0,2.304
7.0,-4.0,2.305
-2.0,2.0,2.306
8.0,5.0,2.307
21.0,4.0,2.308
20.0,5.0,2.309
16.0,7.0,2.31
33.0,6.0,2.311
62.0,2.0,2.312
71.0,1.0,2.313
45.0,5.0,2.314
0.0,7.0,2.315
-27.0,5.0,2.316
-22.0,4.0,2.317
-9.0,2.0,2.318
-21.0,-1.0,2.319
-53.0,-11.0,2.32
-60.0,-19.0,2.321
-27.0,-17.0,2.322
7.0,-10.0,2.323
10.0,-7.0,2.324
-7.0,-7.0,2.325
-14.0,-5.0,2.326
-2.0,1.0,2.327
19.0,5.0,2.328
43.0,6.0,2.329
56.0,9.0,2.33
33.0,11.0,2.331
-29.0,9.0,2.332
-88.0,5.0,2.333
-102.0,3.0,2.334
-73.0,1.0,2.335
-32.0,-2.0,2.336
-6.0,-9.0,2.337
1.0,-19.0,2.338
-4.0,-22.0,2.339
-15.0,-18.0,2.34
-17.0,-14.0,2.341
-4.0,-7.0,2.342
14.0,-2.0,2.343
27.0,1.0,2.344
33.0,4.0,2.345
32.0,6.0,2.346
29.0,7.0,2.347
29.0,7.0,2.348
34.0,8.0,2.349
38.0,8.0,2.35
37.0,8.0,2.351
32.0,7.0,2.352
26.0,6.0,2.353
19.0,5.0,2.354
7.0,5.0,2.355
-5.0,5.0,2.356
-10.0,8.0,2.357
3.0,7.0,2.358
55.0,2.0,2.359
150.0,-2.0,2.36
250.0,-6.0,2.361
294.0,-1.0,2.362
261.0,7.0,2.363
182.0,9.0,2.364
87.0,6.0,2.365
-17.0,5.0,2.366
-113.0,7.0,2.367
-174.0,6.0,2.368
-216.0,4.0,2.369
-278.0,3.0,2.37
-339.0,1.0,2.371
-323.0,-7.0,2.372
-223.0,-18.0,2.373
-126.0,-27.0,2.374
-84.0,-29.0,2.375
-56.0,-30.0,2.376
-6.0,-25.0,2.377
28.0,-14.0,2.378
4.0,1.0,2.379
-59.0,10.0,2.38
-104.0,8.0,2.381
-114.0,7.0,2.382
-97.0,14.0,2.383
-58.0,16.0,2.384
1.0,6.0,2.385
75.0,-10.0,2.386
176.0,-22.0,2.387
310.0,-24.0,2.388
412.0,-16.0,2.389
370.0,-7.0,2.39
179.0,-2.0,2.391
-5.0,0.0,2.392
-61.0,4.0,2.393
-48.0,10.0,2.394
-80.0,11.0,2.395
-135.0,10.0,2.396
-124.0,10.0,2.397
-51.0,8.0,2.398
-3.0,3.0,2.399
7.0,-5.0,2.4
38.0,-11.0,2.401
74.0,-9.0,2.402
47.0,-4.0,2.403
-17.0,3.0,2.404
-20.0,11.0,2.405
38.0,12.0,2.406
70.0,3.0,2.407
53.0,-10.0,2.408
46.0,-15.0,2.409
54.0,-11.0,2.41
31.0,-4.0,2.411
-12.0,4.0,2.412
-15.0,9.0,2.413
15.0,12.0,2.414
20.0,7.0,2.415
-2.0,2.0,2.416
-6.0,3.0,2.417
11.0,5.0,2.418
10.0,4.0,2.419
-14.0,2.0,2.42
-20.0,0.0,2.421
-3.0,1.0,2.422
5.0,0.0,2.423
-1.0,0.0,2.424
-3.0,2.0,2.425
1.0,5.0,2.426
-2.0,4.0,2.427
-8.0,2.0,2.428
-6.0,1.0,2.429
-4.0,0.0,2.43
-11.0,-1.0,2.431
-14.0,-4.0,2.432
-6.0,-5.0,2.433
-2.0,-4.0,2.434
-7.0,-2.0,2.435
-11.0,0.0,2.436
-6.0,0.0,2.437
-2.0,-3.0,2.438
-7.0,-5.0,2.439
-14.0,-5.0,2.44
-14.0,-8.0,2.441
-11.0,-7.0,2.442
-9.0,-6.0,2.443
-2.0,-4.0,2.444
5.0,-1.0,2.445
4.0,0.0,2.446
-1.0,-1.0,2.447
0.0,0.0,2.448
5.0,1.0,2.449
1.0,2.0,2.45
-5.0,0.0,2.451
-6.0,-1.0,2.452
-2.0,0.0,2.453
-2.0,2.0,2.454
-3.0,1.0,2.455
1.0,1.0,2.456
8.0,2.0,2.457
5.0,2.0,2.458
0.0,-1.0,2.459
-3.0,-4.0,2.46
-4.0,-6.0,2.461
-4.0,-6.0,2.462
-1.0,-5.0,2.463
6.0,-3.0,2.464
12.0,-1.0,2.465
6.0,-1.0,2.466
-1.0,-2.0,2.467
2.0,-3.0,2.468
10.0,0.0,2.469
17.0,1.0,2.47
20.0,1.0,2.471
22.0,0.0,2.472
13.0,0.0,2.473
-8.0,1.0,2.474
-23.0,2.0,2.475
-13.0,3.0,2.476
17.0,5.0,2.477
44.0,1.0,2.478
42.0,-1.0,2.479
12.0,-2.0,2.48
-18.0,-6.0,2.481
-20.0,-5.0,2.482
-2.0,-5.0,2.483
-3.0,-5.0,2.484
-25.0,-4.0,2.485
-32.0,-2.0,2.486
-13.0,-1.0,2.487
-7.0,-5.0,2.488
-34.0,-8.0,2.489
-50.0,-7.0,2.49
-20.0,-3.0,2.491
16.0,0.0,2.492
4.0,0.0,2.493
-29.0,1.0,2.494
-29.0,4.0,2.495
12.0,3.0,2.496
54.0,4.0,2.497
73.0,4.0,2.498
60.0,3.0,2.499
15.0,0.0,2.5
-29.0,-5.0,2.501
-32.0,-5.0,2.502
9.0,-3.0,2.503
41.0,-1.0,2.504
38.0,1.0,2.505
26.0,2.0,2.506
28.0,-2.0,2.507
27.0,-7.0,2.508
8.0,-6.0,2.509
-8.0,1.0,2.51
-13.0,6.0,2.511
-27.0,3.0,2.512
-53.0,-1.0,2.513
-59.0,-1.0,2.514
-21.0,2.0,2.515
62.0,3.0,2.516
157.0,4.0,2.517
229.0,5.0,2.518
225.0,5.0,2.519
133.0,1.0,2.52
13.0,-5.0,2.521
-80.0,-2.0,2.522
-126.0,5.0,2.523
-94.0,7.0,2.524
33.0,4.0,2.525
169.0,9.0,2.526
148.0,22.0,2.527
-52.0,30.0,2.528
-228.0,26.0,2.529
-221.0,14.0,2.53
-134.0,2.0,2.531
-147.0,-12.0,2.532
-248.0,-27.0,2.533
-281.0,-35.0,2.534
-206.0,-40.0,2.535
-114.0,-48.0,2.536
-52.0,-55.0,2.537
-1.0,-54.0,2.538
36.0,-42.0,2.539
31.0,-24.0,2.54
17.0,-15.0,2.541
46.0,-9.0,2.542
123.0,0.0,2.543
226.0,13.0,2.544
324.0,28.0,2.545
344.0,40.0,2.546
202.0,50.0,2.547
-38.0,55.0,2.548
-174.0,49.0,2.549
-85.0,34.0,2.55
134.0,12.0,2.551
297.0,-9.0,2.552
302.0,-20.0,2.553
153.0,-18.0,2.554
-58.0,-11.0,2.555
-195.0,0.0,2.556
-212.0,17.0,2.557
-228.0,28.0,2.558
-350.0,26.0,2.559
-473.0,4.0,2.56
-403.0,-22.0,2.561
-172.0,-36.0,2.562
1.0,-32.0,2.563
36.0,-20.0,2.564
59.0,-5.0,2.565
148.0,4.0,2.566
228.0,-1.0,2.567
237.0,-21.0,2.568
216.0,-39.0,2.569
187.0,-36.0,2.57
133.0,-12.0,2.571
105.0,10.0,2.572
158.0,17.0,2.573
209.0,15.0,2.574
117.0,18.0,2.575
-82.0,27.0,2.576
-194.0,28.0,2.577
-154.0,17.0,2.578
-58.0,0.0,2.579
-13.0,-14.0,2.58
0.0,-28.0,2.581
20.0,-31.0,2.582
52.0,-24.0,2.583
96.0,-17.0,2.584
131.0,-23.0,2.585
82.0,-29.0,2.586
-57.0,-19.0,2.587
-154.0,1.0,2.588
-103.0,12.0,2.589
-3.0,11.0,2.59
-2.0,11.0,2.591
-57.0,19.0,2.592
-29.0,27.0,2.593
81.0,30.0,2.594
146.0,34.0,2.595
126.0,38.0,2.596
82.0,42.0,2.597
34.0,39.0,2.598
-21.0,36.0,2.599
-54.0,34.0,2.6
-49.0,27.0,2.601
-66.0,18.0,2.602
-129.0,6.0,2.603
-173.0,-8.0,2.604
-166.0,-24.0,2.605
-170.0,-35.0,2.606
-186.0,-33.0,2.607
-121.0,-23.0,2.608
30.0,-20.0,2.609
127.0,-22.0,2.61
107.0,-18.0,2.611
86.0,-4.0,2.612
140.0,5.0,2.613
174.0,4.0,2.614
98.0,3.0,2.615
-18.0,13.0,2.616
-73.0,23.0,2.617
-69.0,15.0,2.618
-36.0,-3.0,2.619
19.0,-17.0,2.62
70.0,-27.0,2.621
66.0,-29.0,2.622
21.0,-29.0,2.623
23.0,-22.0,2.624
96.0,-17.0,2.625
167.0,-17.0,2.626
165.0,-16.0,2.627
90.0,-12.0,2.628
-14.0,-7.0,2.629
-98.0,-7.0,2.63
-117.0,-2.0,2.631
-74.0,10.0,2.632
-35.0,21.0,2.633
-55.0,17.0,2.634
-102.0,6.0,2.635
-121.0,-2.0,2.636
-113.0,-1.0,2.637
-110.0,-5.0,2.638
-102.0,-10.0,2.639
-50.0,-18.0,2.64
35.0,-21.0,2.641
90.0,-18.0,2.642
88.0,-12.0,2.643
55.0,-6.0,2.644
29.0,-1.0,2.645
13.0,6.0,2.646
-4.0,11.0,2.647
-14.0,14.0,2.648
-2.0,12.0,2.649
22.0,12.0,2.65
32.0,13.0,2.651
11.0,15.0,2.652
-16.0,13.0,2.653
-16.0,12.0,2.654
16.0,12.0,2.655
44.0,12.0,2.656
46.0,13.0,2.657
33.0,14.0,2.658
46.0,15.0,2.659
84.0,13.0,2.66
107.0,6.0,2.661
59.0,3.0,2.662
-60.0,4.0,2.663
-164.0,0.0,2.664
-154.0,-6.0,2.665
-32.0,-12.0,2.666
100.0,-14.0,2.667
152.0,-18.0,2.668
123.0,-23.0,2.669
63.0,-21.0,2.67
1.0,-11.0,2.671
-38.0,-4.0,2.672
-38.0,-6.0,2.673
-4.0,-13.0,2.674
27.0,-17.0,2.675
32.0,-21.0,2.676
30.0,-21.0,2.677
36.0,-20.0,2.678
37.0,-15.0,2.679
12.0,-7.0,2.68
-17.0,-5.0,2.681
-24.0,0.0,2.682
-7.0,6.0,2.683
5.0,13.0,2.684
3.0,27.0,2.685
-4.0,40.0,2.686
-13.0,43.0,2.687
-41.0,38.0,2.688
-85.0,33.0,2.689
-106.0,30.0,2.69
-75.0,22.0,2.691
-20.0,7.0,2.692
6.0,-6.0,2.693
-1.0,-10.0,2.694
-7.0,-7.0,2.695
0.0,-2.0,2.696
1.0,1.0,2.697
-16.0,-1.0,2.698
-21.0,-9.0,2.699
0.0,-20.0,2.7
27.0,-28.0,2.701
39.0,-24.0,2.702
39.0,-14.0,2.703
26.0,-5.0,2.704
-16.0,4.0,2.705
-66.0,10.0,2.706
-56.0,9.0,2.707
38.0,1.0,2.708
153.0,-2.0,2.709
189.0,-3.0,2.71
137.0,-6.0,2.711
67.0,-13.0,2.712
37.0,-17.0,2.713
29.0,-9.0,2.714
2.0,4.0,2.715
-32.0,10.0,2.716
-32.0,4.0,2.717
-14.0,-13.0,2.718
-55.0,-24.0,2.719
-185.0,-24.0,2.72
-290.0,-20.0,2.721
-250.0,-12.0,2.722
-103.0,-9.0,2.723
14.0,-2.0,2.724
54.0,4.0,2.725
76.0,2.0,2.726
108.0,-5.0,2.727
103.0,-8.0,2.728
41.0,-3.0,2.729
-33.0,2.0,2.73
-80.0,-2.0,2.731
-93.0,-6.0,2.732
-77.0,1.0,2.733
-31.0,11.0,2.734
29.0,12.0,2.735
72.0,6.0,2.736
92.0,3.0,2.737
103.0,3.0,2.738
102.0,2.0,2.739
60.0,0.0,2.74
-32.0,-2.0,2.741
-137.0,2.0,2.742
-188.0,8.0,2.743
-161.0,11.0,2.744
-101.0,11.0,2.745
-57.0,10.0,2.746
-13.0,6.0,2.747
67.0,1.0,2.748
173.0,-2.0,2.749
259.0,-5.0,2.75
289.0,-10.0,2.751
266.0,-12.0,2.752
203.0,-10.0,2.753
117.0,-3.0,2.754
35.0,1.0,2.755
-19.0,3.0,2.756
-33.0,7.0,2.757
-25.0,10.0,2.758
-18.0,8.0,2.759
-35.0,0.0,2.76
-65.0,-10.0,2.761
-72.0,-13.0,2.762
-50.0,-9.0,2.763
-30.0,-2.0,2.764
-26.0,7.0,2.765
-14.0,13.0,2.766
7.0,13.0,2.767
-2.0,8.0,2.768
-46.0,5.0,2.769
-74.0,6.0,2.77
-58.0,6.0,2.771
-47.0,2.0,2.772
-83.0,-3.0,2.773
-128.0,-4.0,2.774
-107.0,-1.0,2.775
-3.0,4.0,2.776
126.0,7.0,2.777
216.0,1.0,2.778
205.0,-10.0,2.779
94.0,-19.0,2.78
-24.0,-19.0,2.781
-59.0,-9.0,2.782
-34.0,-6.0,2.783
-38.0,-13.0,2.784
-87.0,-18.0,2.785
-104.0,-7.0,2.786
-57.0,6.0,2.787
-11.0,7.0,2.788
-18.0,0.0,2.789
-43.0,2.0,2.79
-31.0,10.0,2.791
10.0,12.0,2.792
50.0,9.0,2.793
86.0,9.0,2.794
108.0,14.0,2.795
81.0,14.0,2.796
16.0,12.0,2.797
-39.0,9.0,2.798
-51.0,7.0,2.799
-45.0,1.0,2.8
-39.0,-16.0,2.801
-6.0,-33.0,2.802
49.0,-39.0,2.803
52.0,-33.0,2.804
-22.0,-20.0,2.805
-86.0,-10.0,2.806
-56.0,-8.0,2.807
32.0,-8.0,2.808
96.0,-3.0,2.809
118.0,4.0,2.81
133.0,8.0,2.811
149.0,9.0,2.812
132.0,14.0,2.813
56.0,24.0,2.814
-76.0,26.0,2.815
-197.0,17.0,2.816
-215.0,9.0,2.817
-106.0,2.0,2.818
24.0,-5.0,2.819
38.0,-22.0,2.82
-52.0,-41.0,2.821
-105.0,-45.0,2.822
-58.0,-33.0,2.823
8.0,-13.0,2.824
16.0,4.0,2.825
-3.0,11.0,2.826
8.0,10.0,2.827
31.0,9.0,2.828
31.0,11.0,2.829
17.0,14.0,2.83
19.0,14.0,2.831
26.0,11.0,2.832
17.0,10.0,2.833
3.0,12.0,2.834
3.0,13.0,2.835
14.0,13.0,2.836
29.0,11.0,2.837
57.0,6.0,2.838
91.0,2.0,2.839
94.0,2.0,2.84
53.0,1.0,2.841
9.0,3.0,2.842
5.0,4.0,2.843
17.0,5.0,2.844
-7.0,7.0,2.845
-75.0,9.0,2.846
-130.0,7.0,2.847
-130.0,1.0,2.848
-95.0,-5.0,2.849
-65.0,-9.0,2.85
-37.0,-13.0,2.851
15.0,-19.0,2.852
83.0,-23.0,2.853
122.0,-21.0,2.854
104.0,-14.0,2.855
54.0,-9.0,2.856
13.0,-7.0,2.857
-11.0,-6.0,2.858
-22.0,-1.0,2.859
-28.0,4.0,2.86
-24.0,3.0,2.861
-8.0,-1.0,2.862
14.0,-4.0,2.863
24.0,-4.0,2.864
17.0,-1.0,2.865
2.0,1.0,2.866
3.0,6.0,2.867
23.0,11.0,2.868
39.0,11.0,2.869
34.0,8.0,2.87
21.0,8.0,2.871
21.0,7.0,2.872
33.0,4.0,2.873
42.0,4.0,2.874
44.0,11.0,2.875
49.0,22.0,2.876
48.0,28.0,2.877
18.0,27.0,2.878
-42.0,22.0,2.879
-100.0,16.0,2.88
-126.0,4.0,2.881
-119.0,-12.0,2.882
-73.0,-32.0,2.883
10.0,-50.0,2.884
80.0,-58.0,2.885
48.0,-51.0,2.886
-77.0,-37.0,2.887
-159.0,-26.0,2.888
-86.0,-22.0,2.889
83.0,-17.0,2.89
191.0,-8.0,2.891
161.0,0.0,2.892
42.0,5.0,2.893
-73.0,8.0,2.894
-131.0,8.0,2.895
-130.0,4.0,2.896
-108.0,1.0,2.897
-80.0,4.0,2.898
-22.0,11.0,2.899
73.0,11.0,2.9
149.0,1.0,2.901
134.0,0.0,2.902
47.0,9.0,2.903
-29.0,16.0,2.904
-67.0,12.0,2.905
-86.0,4.0,2.906
-80.0,6.0,2.907
-25.0,8.0,2.908
40.0,-1.0,2.909
50.0,-11.0,2.91
10.0,-8.0,2.911
-3.0,6.0,2.912
38.0,17.0,2.913
83.0,18.0,2.914
87.0,21.0,2.915
59.0,28.0,2.916
29.0,31.0,2.917
5.0,22.0,2.918
-9.0,10.0,2.919
-2.0,1.0,2.92
27.0,-7.0,2.921
58.0,-13.0,2.922
71.0,-19.0,2.923
43.0,-28.0,2.924
-8.0,-35.0,2.925
-35.0,-31.0,2.926
-9.0,-19.0,2.927
22.0,-8.0,2.928
-7.0,-6.0,2.929
-73.0,1.0,2.93
-86.0,18.0,2.931
-13.0,29.0,2.932
95.0,20.0,2.933
181.0,5.0,2.934
205.0,2.0,2.935
141.0,12.0,2.936
29.0,23.0,2.937
-64.0,23.0,2.938
-85.0,11.0,2.939
-101.0,-7.0,2.94
-174.0,-28.0,2.941
-220.0,-34.0,2.942
-128.0,-28.0,2.943
14.0,-21.0,2.944
28.0,-21.0,2.945
-80.0,-17.0,2.946
-127.0,0.0,2.947
-38.0,17.0,2.948
51.0,15.0,2.949
36.0,-7.0,2.95
-21.0,-33.0,2.951
-53.0,-44.0,2.952
-88.0,-41.0,2.953
-131.0,-34.0,2.954
-103.0,-31.0,2.955
8.0,-25.0,2.956
95.0,-8.0,2.957
101.0,15.0,2.958
81.0,34.0,2.959
83.0,37.0,2.96
59.0,33.0,2.961
-13.0,36.0,2.962
-56.0,44.0,2.963
-20.0,46.0,2.964
41.0,34.0,2.965
73.0,11.0,2.966
108.0,-11.0,2.967
155.0,-21.0,2.968
162.0,-11.0,2.969
121.0,11.0,2.97
111.0,25.0,2.971
176.0,12.0,2.972
229.0,-10.0,2.973
163.0,-16.0,2.974
-1.0,-1.0,2.975
-123.0,13.0,2.976
-100.0,16.0,2.977
12.0,8.0,2.978
45.0,-4.0,2.979
-79.0,-14.0,2.98
-211.0,-27.0,2.981
-186.0,-30.0,2.982
-67.0,-25.0,2.983
-41.0,-17.0,2.984
-123.0,-8.0,2.985
-156.0,1.0,2.986
-97.0,3.0,2.987
-62.0,-2.0,2.988
-93.0,-11.0,2.989
-89.0,-13.0,2.99
-18.0,-8.0,2.991
22.0,0.0,2.992
6.0,10.0,2.993
11.0,15.0,2.994
58.0,17.0,2.995
70.0,16.0,2.996
36.0,13.0,2.997
22.0,8.0,2.998
50.0,0.0,2.999
56.0,-2.0,3.0
27.0,-1.0,3.001
30.0,5.0,3.002
78.0,9.0,3.003
105.0,13.0,3.004
84.0,19.0,3.005
70.0,25.0,3.006
105.0,26.0,3.007
154.0,21.0,3.008
146.0,13.0,3.009
64.0,5.0,3.01
-31.0,-3.0,3.011
-67.0,-13.0,3.012
-57.0,-21.0,3.013
-85.0,-23.0,3.014
-158.0,-16.0,3.015
-182.0,-5.0,3.016
-110.0,3.0,3.017
-29.0,3.0,3.018
-37.0,-3.0,3.019
-88.0,-10.0,3.02
-83.0,-18.0,3.021
-40.0,-20.0,3.022
-24.0,-17.0,3.023
9.0,-11.0,3.024
142.0,-7.0,3.025
315.0,-6.0,3.026
374.0,-11.0,3.027
258.0,-17.0,3.028
44.0,-14.0,3.029
-160.0,0.0,3.03
-278.0,13.0,3.031
-285.0,7.0,3.032
-229.0,-18.0,3.033
-187.0,-39.0,3.034
-169.0,-38.0,3.035
-130.0,-20.0,3.036
-63.0,-3.0,3.037
0.0,0.0,3.038
35.0,4.0,3.039
58.0,10.0,3.04
80.0,13.0,3.041
97.0,18.0,3.042
113.0,26.0,3.043
136.0,31.0,3.044
155.0,24.0,3.045
149.0,2.0,3.046
131.0,-17.0,3.047
113.0,-18.0,3.048
84.0,-2.0,3.049
36.0,11.0,3.05
-19.0,12.0,3.051
-65.0,4.0,3.052
-86.0,-5.0,3.053
-72.0,-17.0,3.054
-27.0,-26.0,3.055
7.0,-20.0,3.056
11.0,0.0,3.057
-5.0,14.0,3.058
-5.0,14.0,3.059
1.0,7.0,3.06
1.0,2.0,3.061
3.0,5.0,3.062
15.0,7.0,3.063
20.0,7.0,3.064
9.0,8.0,3.065
-3.0,10.0,3.066
3.0,6.0,3.067
11.0,1.0,3.068
2.0,0.0,3.069
-5.0,6.0,3.07
1.0,9.0,3.071
15.0,7.0,3.072
20.0,9.0,3.073
19.0,13.0,3.074
8.0,18.0,3.075
-14.0,17.0,3.076
-33.0,19.0,3.077
-32.0,15.0,3.078
-13.0,7.0,3.079
-5.0,-7.0,3.08
-19.0,-24.0,3.081
-33.0,-36.0,3.082
-27.0,-41.0,3.083
-11.0,-37.0,3.084
4.0,-19.0,3.085
22.0,0.0,3.086
34.0,7.0,3.087
22.0,0.0,3.088
-5.0,-5.0,3.089
-15.0,-1.0,3.09
-4.0,1.0,3.091
-4.0,-4.0,3.092
-18.0,-10.0,3.093
-11.0,-8.0,3.094
24.0,-3.0,3.095
51.0,1.0,3.096
46.0,6.0,3.097
14.0,8.0,3.098
-17.0,5.0,3.099
-42.0,-3.0,3.1
-51.0,-12.0,3.101
-37.0,-10.0,3.102
-15.0,-2.0,3.103
2.0,3.0,3.104
17.0,2.0,3.105
28.0,0.0,3.106
26.0,-2.0,3.107
14.0,-2.0,3.108
4.0,0.0,3.109
0.0,4.0,3.11
-12.0,5.0,3.111
-15.0,4.0,3.112
42.0,2.0,3.113
177.0,1.0,3.114
304.0,0.0,3.115
285.0,0.0,3.116
97.0,4.0,3.117
-156.0,10.0,3.118
-276.0,12.0,3.119
-225.0,8.0,3.12
-131.0,2.0,3.121
-99.0,5.0,3.122
-85.0,11.0,3.123
-27.0,8.0,3.124
27.0,1.0,3.125
8.0,1.0,3.126
-46.0,10.0,3.127
-68.0,12.0,3.128
-69.0,-2.0,3.129
-91.0,-22.0,3.13
-116.0,-37.0,3.131
-94.0,-41.0,3.132
-42.0,-36.0,3.133
-8.0,-28.0,3.134
9.0,-24.0,3.135
37.0,-21.0,3.136
79.0,-15.0,3.137
120.0,-5.0,3.138
153.0,7.0,3.139
162.0,15.0,3.14
119.0,16.0,3.141
26.0,18.0,3.142
-44.0,23.0,3.143
-22.0,27.0,3.144
62.0,24.0,3.145
113.0,11.0,3.146
85.0,-5.0,3.147
25.0,-16.0,3.148
-3.0,-18.0,3.149
13.0,-14.0,3.15
34.0,-12.0,3.151
36.0,-15.0,3.152
35.0,-13.0,3.153
69.0,0.0,3.154
126.0,13.0,3.155
146.0,15.0,3.156
92.0,8.0,3.157
-8.0,6.0,3.158
-74.0,16.0,3.159
-79.0,27.0,3.16
-70.0,19.0,3.161
-98.0,8.0,3.162
-137.0,5.0,3.163
-139.0,6.0,3.164
-106.0,3.0,3.165
-81.0,-6.0,3.166
-76.0,-10.0,3.167
-65.0,-9.0,3.168
-27.0,-11.0,3.169
13.0,-17.0,3.17
26.0,-13.0,3.171
17.0,0.0,3.172
11.0,10.0,3.173
23.0,4.0,3.174
37.0,-6.0,3.175
37.0,-10.0,3.176
27.0,-4.0,3.177
23.0,0.0,3.178
36.0,4.0,3.179
67.0,6.0,3.18
134.0,5.0,3.181
226.0,4.0,3.182
255.0,5.0,3.183
157.0,11.0,3.184
-10.0,22.0,3.185
-115.0,27.0,3.186
-123.0,23.0,3.187
-132.0,19.0,3.188
-195.0,20.0,3.189
-235.0,25.0,3.19
-177.0,25.0,3.191
-57.0,13.0,3.192
38.0,0.0,3.193
64.0,-9.0,3.194
24.0,-12.0,3.195
-39.0,-13.0,3.196
-53.0,-19.0,3.197
14.0,-33.0,3.198
92.0,-50.0,3.199
83.0,-63.0,3.2
4.0,-63.0,3.201
-45.0,-58.0,3.202
-35.0,-36.0,3.203
-12.0,-19.0,3.204
0.0,-17.0,3.205
20.0,-15.0,3.206
38.0,-15.0,3.207
32.0,-11.0,3.208
23.0,0.0,3.209
30.0,11.0,3.21
28.0,21.0,3.211
-8.0,30.0,3.212
-33.0,30.0,3.213
4.0,29.0,3.214
87.0,32.0,3.215
137.0,34.0,3.216
104.0,31.0,3.217
-6.0,26.0,3.218
-105.0,14.0,3.219
-117.0,6.0,3.22
-58.0,-3.0,3.221
-6.0,-5.0,3.222
6.0,-1.0,3.223
11.0,0.0,3.224
25.0,-2.0,3.225
21.0,0.0,3.226
5.0,6.0,3.227
25.0,9.0,3.228
68.0,3.0,3.229
71.0,-4.0,3.23
26.0,-2.0,3.231
-3.0,1.0,3.232
10.0,2.0,3.233
18.0,1.0,3.234
0.0,3.0,3.235
-8.0,5.0,3.236
14.0,5.0,3.237
69.0,1.0,3.238
150.0,-2.0,3.239
211.0,-6.0,3.24
154.0,-10.0,3.241
-40.0,-4.0,3.242
-205.0,10.0,3.243
-178.0,20.0,3.244
-46.0,18.0,3.245
-28.0,11.0,3.246
-145.0,5.0,3.247
-196.0,-8.0,3.248
-82.0,-28.0,3.249
47.0,-47.0,3.25
48.0,-52.0,3.251
-21.0,-42.0,3.252
-39.0,-22.0,3.253
-13.0,-5.0,3.254
-11.0,4.0,3.255
-26.0,5.0,3.256
-10.0,4.0,3.257
25.0,0.0,3.258
39.0,-3.0,3.259
28.0,-8.0,3.26
35.0,-13.0,3.261
75.0,-8.0,3.262
123.0,2.0,3.263
141.0,10.0,3.264
115.0,11.0,3.265
47.0,12.0,3.266
-35.0,15.0,3.267
-93.0,15.0,3.268
-112.0,13.0,3.269
-95.0,14.0,3.27
-46.0,14.0,3.271
19.0,7.0,3.272
56.0,-3.0,3.273
32.0,-3.0,3.274
-28.0,7.0,3.275
-65.0,13.0,3.276
-49.0,8.0,3.277
-15.0,-8.0,3.278
-3.0,-21.0,3.279
-16.0,-26.0,3.28
-18.0,-27.0,3.281
3.0,-24.0,3.282
28.0,-18.0,3.283
30.0,-14.0,3.284
15.0,-6.0,3.285
10.0,1.0,3.286
21.0,8.0,3.287
34.0,9.0,3.288
32.0,7.0,3.289
24.0,5.0,3.29
22.0,8.0,3.291
22.0,9.0,3.292
16.0,9.0,3.293
6.0,11.0,3.294
7.0,11.0,3.295
13.0,10.0,3.296
15.0,8.0,3.297
10.0,4.0,3.298
2.0,1.0,3.299
-2.0,-1.0,3.3
-7.0,-3.0,3.301
-7.0,0.0,3.302
20.0,6.0,3.303
89.0,10.0,3.304
162.0,10.0,3.305
148.0,10.0,3.306
7.0,10.0,3.307
-165.0,8.0,3.308
-214.0,7.0,3.309
-120.0,7.0,3.31
-21.0,4.0,3.311
-13.0,-5.0,3.312
-36.0,-18.0,3.313
-15.0,-24.0,3.314
20.0,-22.0,3.315
13.0,-12.0,3.316
-3.0,-5.0,3.317
14.0,-2.0,3.318
37.0,-4.0,3.319
18.0,-6.0,3.32
-10.0,-7.0,3.321
1.0,-5.0,3.322
28.0,-1.0,3.323
24.0,3.0,3.324
5.0,5.0,3.325
10.0,4.0,3.326
20.0,0.0,3.327
12.0,-2.0,3.328
-1.0,-3.0,3.329
3.0,-2.0,3.33
11.0,-2.0,3.331
2.0,-3.0,3.332
-6.0,-2.0,3.333
1.0,0.0,3.334
8.0,-1.0,3.335
1.0,-4.0,3.336
0.0,-4.0,3.337
13.0,-5.0,3.338
28.0,-5.0,3.339
22.0,-6.0,3.34
2.0,-8.0,3.341
-15.0,-6.0,3.342
-22.0,-5.0,3.343
-21.0,-4.0,3.344
-16.0,-2.0,3.345
-9.0,1.0,3.346
-4.0,4.0,3.347
-1.0,2.0,3.348
1.0,0.0,3.349
2.0,1.0,3.35
2.0,0.0,3.351
5.0,-1.0,3.352
8.0,-1.0,3.353
7.0,0.0,3.354
4.0,1.0,3.355
4.0,0.0,3.356
11.0,-1.0,3.357
10.0,0.0,3.358
6.0,1.0,3.359
2.0,2.0,3.36
0.0,0.0,3.361
0.0,-1.0,3.362
5.0,0.0,3.363
9.0,3.0,3.364
5.0,3.0,3.365
1.0,3.0,3.366
0.0,3.0,3.367
-1.0,3.0,3.368
5.0,3.0,3.369
10.0,1.0,3.37
8.0,0.0,3.371
4.0,-2.0,3.372
-1.0,0.0,3.373
-7.0,2.0,3.374
-7.0,0.0,3.375
-6.0,-1.0,3.376
-4.0,0.0,3.377
-1.0,0.0,3.378
3.0,-2.0,3.379
8.0,-3.0,3.38
7.0,-4.0,3.381
3.0,-6.0,3.382
8.0,-8.0,3.383
14.0,-6.0,3.384
12.0,0.0,3.385
1.0,5.0,3.386
-2.0,4.0,3.387
1.0,-1.0,3.388
3.0,-4.0,3.389
2.0,-3.0,3.39
9.0,0.0,3.391
20.0,2.0,3.392
20.0,2.0,3.393
3.0,2.0,3.394
-16.0,4.0,3.395
-21.0,3.0,3.396
-18.0,1.0,3.397
-14.0,-3.0,3.398
-12.0,-3.0,3.399
-12.0,-2.0,3.4
-10.0,-2.0,3.401
-6.0,-2.0,3.402
0.0,0.0,3.403
12.0,2.0,3.404
16.0,2.0,3.405
12.0,0.0,3.406
7.0,-1.0,3.407
10.0,-3.0,3.408
11.0,-2.0,3.409
7.0,0.0,3.41
9.0,3.0,3.411
26.0,0.0,3.412
42.0,-5.0,3.413
35.0,-5.0,3.414
4.0,-1.0,3.415
-27.0,-1.0,3.416
-38.0,-2.0,3.417
-33.0,-3.0,3.418
-29.0,-1.0,3.419
-25.0,-1.0,3.42
-24.0,-4.0,3.421
-20.0,-7.0,3.422
-6.0,-3.0,3.423
3.0,0.0,3.424
-1.0,3.0,3.425
-4.0,4.0,3.426
1.0,3.0,3.427
6.0,1.0,3.428
12.0,1.0,3.429
19.0,1.0,3.43
24.0,1.0,3.431
30.0,0.0,3.432
34.0,0.0,3.433
36.0,0.0,3.434
31.0,0.0,3.435
25.0,2.0,3.436
17.0,0.0,3.437
8.0,-4.0,3.438
-1.0,-2.0,3.439
-10.0,-2.0,3.44
-15.0,-6.0,3.441
-12.0,-9.0,3.442
-3.0,-4.0,3.443
3.0,0.0,3.444
3.0,4.0,3.445
-1.0,6.0,3.446
-1.0,4.0,3.447
1.0,2.0,3.448
1.0,2.0,3.449
-3.0,2.0,3.45
-5.0,2.0,3.451
-5.0,1.0,3.452
-2.0,0.0,3.453
1.0,-1.0,3.454
2.0,1.0,3.455
0.0,3.0,3.456
0.0,1.0,3.457
-2.0,0.0,3.458
-4.0,1.0,3.459
-9.0,1.0,3.46
-16.0,-4.0,3.461
-18.0,-5.0,3.462
-4.0,-4.0,3.463
19.0,-3.0,3.464
35.0,0.0,3.465
30.0,4.0,3.466
16.0,4.0,3.467
12.0,-2.0,3.468
17.0,-4.0,3.469
15.0,-3.0,3.47
0.0,0.0,3.471
-13.0,-2.0,3.472
-8.0,-3.0,3.473
7.0,-1.0,3.474
15.0,0.0,3.475
13.0,-2.0,3.476
7.0,-2.0,3.477
0.0,-4.0,3.478
-6.0,-5.0,3.479
-9.0,-6.0,3.48
-6.0,-6.0,3.481
-2.0,-5.0,3.482
1.0,-6.0,3.483
4.0,-6.0,3.484
5.0,-1.0,3.485
3.0,5.0,3.486
-1.0,7.0,3.487
-2.0,1.0,3.488
0.0,-2.0,3.489
0.0,0.0,3.49
-3.0,2.0,3.491
-3.0,3.0,3.492
1.0,3.0,3.493
2.0,3.0,3.494
-2.0,1.0,3.495
-6.0,0.0,3.496
-7.0,1.0,3.497
-4.0,2.0,3.498
-2.0,3.0,3.499
0.0,0.0,3.5
0.0,-6.0,3.501
0.0,-9.0,3.502
3.0,-9.0,3.503
8.0,-6.0,3.504
7.0,1.0,3.505
3.0,5.0,3.506
1.0,1.0,3.507
4.0,-4.0,3.508
9.0,-5.0,3.509
10.0,-1.0,3.51
7.0,1.0,3.511
9.0,2.0,3.512
8.0,1.0,3.513
5.0,0.0,3.514
3.0,-1.0,3.515
3.0,-2.0,3.516
6.0,-1.0,3.517
3.0,-2.0,3.518
0.0,-4.0,3.519
-4.0,-2.0,3.52
-8.0,-4.0,3.521
-8.0,-3.0,3.522
-1.0,-2.0,3.523
8.0,0.0,3.524
8.0,4.0,3.525
1.0,5.0,3.526
0.0,3.0,3.527
3.0,0.0,3.528
7.0,-2.0,3.529
6.0,-2.0,3.53
3.0,-2.0,3.531
6.0,-4.0,3.532
9.0,-3.0,3.533
7.0,-2.0,3.534
3.0,-1.0,3.535
1.0,-1.0,3.536
5.0,1.0,3.537
5.0,1.0,3.538
2.0,-1.0,3.539
-5.0,-4.0,3.54
-8.0,-6.0,3.541
-5.0,-6.0,3.542
2.0,-3.0,3.543
11.0,2.0,3.544
11.0,4.0,3.545
5.0,4.0,3.546
2.0,2.0,3.547
5.0,0.0,3.548
5.0,1.0,3.549
0.0,3.0,3.55
-2.0,1.0,3.551
2.0,-3.0,3.552
3.0,-5.0,3.553
0.0,-6.0,3.554
-1.0,-6.0,3.555
2.0,-5.0,3.556
8.0,-2.0,3.557
5.0,0.0,3.558
1.0,1.0,3.559
1.0,1.0,3.56
2.0,-3.0,3.561
1.0,-6.0,3.562
1.0,-5.0,3.563
6.0,-1.0,3.564
11.0,2.0,3.565
8.0,4.0,3.566
2.0,3.0,3.567
2.0,0.0,3.568
4.0,-1.0,3.569
5.0,-1.0,3.57
5.0,1.0,3.571
5.0,2.0,3.572
2.0,1.0,3.573
-2.0,1.0,3.574
-4.0,1.0,3.575
-3.0,0.0,3.576
0.0,0.0,3.577
-1.0,-1.0,3.578
-2.0,0.0,3.579
-4.0,-1.0,3.58
-3.0,-7.0,3.581
0.0,-6.0,3.582
5.0,-3.0,3.583
11.0,-2.0,3.584
9.0,-1.0,3.585
7.0,0.0,3.586
4.0,1.0,3.587
1.0,0.0,3.588
0.0,-4.0,3.589
-2.0,-4.0,3.59
-1.0,-2.0,3.591
0.0,0.0,3.592
4.0,-2.0,3.593
7.0,-3.0,3.594
7.0,-3.0,3.595
5.0,-1.0,3.596
3.0,1.0,3.597
0.0,2.0,3.598
-2.0,0.0,3.599
-3.0,-2.0,3.6
-3.0,-5.0,3.601
-4.0,-3.0,3.602
0.0,-1.0,3.603
7.0,0.0,3.604
11.0,2.0,3.605
7.0,3.0,3.606
3.0,0.0,3.607
4.0,-4.0,3.608
3.0,-5.0,3.609
0.0,-3.0,3.61
-3.0,0.0,3.611
0.0,-3.0,3.612
4.0,-4.0,3.613
3.0,-3.0,3.614
-1.0,2.0,3.615
0.0,4.0,3.616
7.0,3.0,3.617
8.0,0.0,3.618
4.0,-2.0,3.619
-2.0,-3.0,3.62
-3.0,-7.0,3.621
-2.0,-8.0,3.622
3.0,-5.0,3.623
8.0,-1.0,3.624
8.0,1.0,3.625
5.0,0.0,3.626
6.0,-1.0,3.627
13.0,-1.0,3.628
20.0,0.0,3.629
23.0,1.0,3.63
18.0,2.0,3.631
2.0,0.0,3.632
-16.0,-1.0,3.633
-23.0,0.0,3.634
-19.0,2.0,3.635
-12.0,5.0,3.636
-6.0,8.0,3.637
-1.0,2.0,3.638
4.0,-2.0,3.639
1.0,-4.0,3.64
-4.0,-4.0,3.641
-6.0,-2.0,3.642
2.0,0.0,3.643
12.0,1.0,3.644
11.0,-1.0,3.645
5.0,-2.0,3.646
5.0,-2.0,3.647
9.0,-2.0,3.648
10.0,0.0,3.649
6.0,3.0,3.65
4.0,3.0,3.651
5.0,0.0,3.652
4.0,-4.0,3.653
4.0,-3.0,3.654
4.0,-1.0,3.655
6.0,0.0,3.656
7.0,1.0,3.657
5.0,-1.0,3.658
6.0,-4.0,3.659
4.0,-5.0,3.66
-2.0,-10.0,3.661
-4.0,-9.0,3.662
3.0,-5.0,3.663
14.0,-1.0,3.664
15.0,2.0,3.665
9.0,3.0,3.666
4.0,3.0,3.667
3.0,3.0,3.668
3.0,4.0,3.669
1.0,3.0,3.67
1.0,-1.0,3.671
4.0,-5.0,3.672
4.0,-3.0,3.673
1.0,-1.0,3.674
-2.0,1.0,3.675
-2.0,3.0,3.676
-1.0,6.0,3.677
-2.0,3.0,3.678
-2.0,-4.0,3.679
-4.0,-8.0,3.68
-6.0,-7.0,3.681
-4.0,-1.0,3.682
3.0,0.0,3.683
7.0,-3.0,3.684
3.0,0.0,3.685
-4.0,5.0,3.686
-2.0,3.0,3.687
5.0,-2.0,3.688
7.0,-5.0,3.689
6.0,-1.0,3.69
4.0,1.0,3.691
6.0,-2.0,3.692
6.0,-1.0,3.693
3.0,0.0,3.694
3.0,0.0,3.695
5.0,-2.0,3.696
7.0,-1.0,3.697
3.0,-1.0,3.698
-1.0,-3.0,3.699
-4.0,-5.0,3.7
-4.0,-6.0,3.701
2.0,-2.0,3.702
15.0,1.0,3.703
25.0,3.0,3.704
19.0,4.0,3.705
1.0,4.0,3.706
-12.0,1.0,3.707
-11.0,-1.0,3.708
-6.0,0.0,3.709
-5.0,0.0,3.71
-4.0,-2.0,3.711
3.0,-3.0,3.712
8.0,1.0,3.713
0.0,6.0,3.714
-8.0,5.0,3.715
-10.0,0.0,3.716
-8.0,0.0,3.717
-9.0,0.0,3.718
-16.0,-1.0,3.719
-18.0,-4.0,3.72
-12.0,-9.0,3.721
0.0,-8.0,3.722
22.0,-6.0,3.723
50.0,-3.0,3.724
69.0,0.0,3.725
63.0,1.0,3.726
35.0,2.0,3.727
3.0,2.0,3.728
-16.0,3.0,3.729
-23.0,2.0,3.73
-29.0,0.0,3.731
-33.0,0.0,3.732
-29.0,0.0,3.733
-17.0,-1.0,3.734
-5.0,-2.0,3.735
-2.0,0.0,3.736
1.0,3.0,3.737
3.0,0.0,3.738
5.0,-2.0,3.739
-1.0,-2.0,3.74
-7.0,-5.0,3.741
-6.0,-5.0,3.742
4.0,-5.0,3.743
13.0,-2.0,3.744
12.0,1.0,3.745
4.0,0.0,3.746
1.0,-2.0,3.747
5.0,0.0,3.748
12.0,1.0,3.749
15.0,-2.0,3.75
18.0,-5.0,3.751
20.0,-3.0,3.752
15.0,2.0,3.753
8.0,3.0,3.754
13.0,0.0,3.755
30.0,2.0,3.756
43.0,7.0,3.757
30.0,8.0,3.758
-5.0,1.0,3.759
-39.0,-6.0,3.76
-48.0,-11.0,3.761
-27.0,-10.0,3.762
15.0,-7.0,3.763
56.0,-6.0,3.764
68.0,-3.0,3.765
37.0,-2.0,3.766
-13.0,-3.0,3.767
-49.0,-2.0,3.768
-57.0,0.0,3.769
-52.0,2.0,3.77
-39.0,0.0,3.771
-2.0,-2.0,3.772
56.0,0.0,3.773
84.0,4.0,3.774
41.0,4.0,3.775
-38.0,-2.0,3.776
-78.0,-2.0,3.777
-64.0,0.0,3.778
-42.0,4.0,3.779
-39.0,2.0,3.78
-31.0,-3.0,3.781
-1.0,-4.0,3.782
21.0,-1.0,3.783
14.0,0.0,3.784
3.0,1.0,3.785
19.0,5.0,3.786
42.0,7.0,3.787
48.0,3.0,3.788
35.0,-4.0,3.789
17.0,-7.0,3.79
-4.0,-5.0,3.791
-21.0,-2.0,3.792
-21.0,-1.0,3.793
-14.0,-2.0,3.794
-18.0,-3.0,3.795
-27.0,-2.0,3.796
-21.0,2.0,3.797
-2.0,4.0,3.798
6.0,1.0,3.799
-1.0,-2.0,3.8
0.0,-7.0,3.801
16.0,-5.0,3.802
30.0,-5.0,3.803
29.0,-6.0,3.804
27.0,-4.0,3.805
32.0,3.0,3.806
41.0,7.0,3.807
48.0,5.0,3.808
52.0,2.0,3.809
48.0,1.0,3.81
35.0,0.0,3.811
17.0,-2.0,3.812
5.0,-3.0,3.813
2.0,0.0,3.814
3.0,2.0,3.815
2.0,0.0,3.816
-1.0,0.0,3.817
-6.0,1.0,3.818
-1.0,3.0,3.819
9.0,2.0,3.82
7.0,-4.0,3.821
-16.0,-3.0,3.822
-40.0,-1.0,3.823
-41.0,-1.0,3.824
-24.0,0.0,3.825
-16.0,1.0,3.826
-24.0,-1.0,3.827
-27.0,-4.0,3.828
-14.0,-5.0,3.829
1.0,-2.0,3.83
1.0,0.0,3.831
-3.0,-4.0,3.832
-3.0,-7.0,3.833
5.0,-3.0,3.834
11.0,0.0,3.835
13.0,-1.0,3.836
14.0,-3.0,3.837
9.0,-2.0,3.838
4.0,0.0,3.839
8.0,0.0,3.84
25.0,-6.0,3.841
45.0,-7.0,3.842
50.0,-4.0,3.843
24.0,0.0,3.844
-20.0,5.0,3.845
-51.0,8.0,3.846
-46.0,5.0,3.847
-25.0,-1.0,3.848
-16.0,-5.0,3.849
-19.0,-3.0,3.85
-9.0,-2.0,3.851
16.0,-6.0,3.852
29.0,-7.0,3.853
20.0,-3.0,3.854
7.0,0.0,3.855
8.0,-1.0,3.856
18.0,-1.0,3.857
20.0,-1.0,3.858
13.0,1.0,3.859
3.0,0.0,3.86
-2.0,-3.0,3.861
-1.0,-4.0,3.862
3.0,-5.0,3.863
6.0,-4.0,3.864
3.0,0.0,3.865
-2.0,4.0,3.866
-1.0,3.0,3.867
3.0,0.0,3.868
4.0,0.0,3.869
1.0,4.0,3.87
2.0,4.0,3.871
11.0,1.0,3.872
26.0,0.0,3.873
46.0,3.0,3.874
57.0,6.0,3.875
42.0,5.0,3.876
5.0,4.0,3.877
-34.0,1.0,3.878
-47.0,-1.0,3.879
-39.0,0.0,3.88
-35.0,-2.0,3.881
-39.0,-3.0,3.882
-34.0,-6.0,3.883
-21.0,-7.0,3.884
-8.0,-6.0,3.885
1.0,-6.0,3.886
12.0,-6.0,3.887
18.0,-6.0,3.888
10.0,-2.0,3.889
0.0,1.0,3.89
3.0,-1.0,3.891
11.0,-4.0,3.892
11.0,-2.0,3.893
6.0,1.0,3.894
6.0,2.0,3.895
9.0,0.0,3.896
7.0,0.0,3.897
3.0,1.0,3.898
8.0,2.0,3.899
11.0,0.0,3.9
3.0,-7.0,3.901
-3.0,-8.0,3.902
2.0,-5.0,3.903
14.0,-2.0,3.904
14.0,1.0,3.905
6.0,4.0,3.906
6.0,4.0,3.907
10.0,1.0,3.908
10.0,-1.0,3.909
6.0,0.0,3.91
3.0,4.0,3.911
3.0,6.0,3.912
0.0,7.0,3.913
3.0,4.0,3.914
8.0,0.0,3.915
2.0,-2.0,3.916
-8.0,1.0,3.917
-3.0,3.0,3.918
19.0,1.0,3.919
28.0,-4.0,3.92
8.0,-9.0,3.921
-19.0,-8.0,3.922
-20.0,-5.0,3.923
-8.0,-5.0,3.924
-6.0,-3.0,3.925
-10.0,2.0,3.926
-4.0,2.0,3.927
8.0,0.0,3.928
10.0,-3.0,3.929
18.0,-1.0,3.93
43.0,0.0,3.931
63.0,-4.0,3.932
50.0,-8.0,3.933
20.0,-5.0,3.934
0.0,-1.0,3.935
-14.0,0.0,3.936
-39.0,-1.0,3.937
-66.0,0.0,3.938
-62.0,2.0,3.939
-32.0,0.0,3.94
-14.0,-5.0,3.941
-13.0,-5.0,3.942
-8.0,-3.0,3.943
9.0,-3.0,3.944
16.0,-3.0,3.945
11.0,1.0,3.946
14.0,5.0,3.947
27.0,4.0,3.948
32.0,0.0,3.949
19.0,0.0,3.95
9.0,1.0,3.951
14.0,0.0,3.952
18.0,-1.0,3.953
4.0,2.0,3.954
-13.0,3.0,3.955
-5.0,1.0,3.956
40.0,1.0,3.957
106.0,1.0,3.958
148.0,2.0,3.959
127.0,3.0,3.96
51.0,1.0,3.961
-34.0,3.0,3.962
-93.0,3.0,3.963
-119.0,1.0,3.964
-111.0,1.0,3.965
-83.0,2.0,3.966
-70.0,0.0,3.967
-88.0,-6.0,3.968
-94.0,-7.0,3.969
-45.0,0.0,3.97
24.0,2.0,3.971
39.0,-1.0,3.972
-4.0,-5.0,3.973
-36.0,-3.0,3.974
-23.0,-1.0,3.975
-2.0,-2.0,3.976
-7.0,-5.0,3.977
-25.0,-8.0,3.978
-29.0,-11.0,3.979
-23.0,-10.0,3.98
-13.0,-9.0,3.981
1.0,-6.0,3.982
21.0,-4.0,3.983
34.0,-2.0,3.984
37.0,3.0,3.985
43.0,6.0,3.986
53.0,6.0,3.987
58.0,2.0,3.988
58.0,1.0,3.989
52.0,4.0,3.99
38.0,5.0,3.991
24.0,2.0,3.992
18.0,0.0,3.993
19.0,0.0,3.994
16.0,2.0,3.995
9.0,2.0,3.996
10.0,3.0,3.997
18.0,2.0,3.998
25.0,2.0,3.999
25.0,0.0,4.0
23.0,-6.0,4.001
20.0,-9.0,4.002
16.0,-9.0,4.003
8.0,-7.0,4.004
6.0,-2.0,4.005
8.0,2.0,4.006
8.0,1.0,4.007
4.0,-3.0,4.008
3.0,-5.0,4.009
3.0,-3.0,4.01
1.0,-2.0,4.011
-1.0,-1.0,4.012
4.0,2.0,4.013
18.0,6.0,4.014
39.0,6.0,4.015
56.0,1.0,4.016
53.0,0.0,4.017
24.0,2.0,4.018
-11.0,3.0,4.019
-26.0,4.0,4.02
-16.0,3.0,4.021
1.0,6.0,4.022
10.0,7.0,4.023
0.0,6.0,4.024
-29.0,7.0,4.025
-60.0,7.0,4.026
-68.0,1.0,4.027
-64.0,-6.0,4.028
-66.0,-7.0,4.029
-61.0,-5.0,4.03
-22.0,-7.0,4.031
22.0,-12.0,4.032
13.0,-16.0,4.033
-42.0,-13.0,4.034
-60.0,-9.0,4.035
-14.0,-6.0,4.036
36.0,-5.0,4.037
40.0,-6.0,4.038
26.0,-6.0,4.039
8.0,-7.0,4.04
-17.0,-8.0,4.041
-40.0,-10.0,4.042
-48.0,-8.0,4.043
-51.0,-6.0,4.044
-33.0,-2.0,4.045
-14.0,1.0,4.046
11.0,1.0,4.047
42.0,1.0,4.048
92.0,-1.0,4.049
137.0,-2.0,4.05
161.0,6.0,4.051
155.0,11.0,4.052
55.0,9.0,4.053
-28.0,6.0,4.054
-56.0,4.0,4.055
-73.0,1.0,4.056
-52.0,-2.0,4.057
-32.0,-6.0,4.058
-6.0,-5.0,4.059
26.0,-1.0,4.06
3.0,-4.0,4.061
-53.0,-9.0,4.062
-52.0,-10.0,4.063
32.0,-7.0,4.064
120.0,0.0,4.065
130.0,3.0,4.066
54.0,2.0,4.067
-73.0,1.0,4.068
-181.0,-1.0,4.069
-196.0,0.0,4.07
-124.0,1.0,4.071
-55.0,3.0,4.072
-42.0,6.0,4.073
-39.0,8.0,4.074
-5.0,6.0,4.075
32.0,4.0,4.076
40.0,3.0,4.077
45.0,3.0,4.078
77.0,3.0,4.079
107.0,1.0,4.08
105.0,-1.0,4.081
84.0,1.0,4.082
59.0,3.0,4.083
23.0,5.0,4.084
-19.0,8.0,4.085
-36.0,10.0,4.086
-24.0,7.0,4.087
-13.0,0.0,4.088
-14.0,-3.0,4.089
-7.0,-1.0,4.09
15.0,1.0,4.091
25.0,-2.0,4.092
22.0,-8.0,4.093
23.0,-9.0,4.094
29.0,-7.0,4.095
21.0,-3.0,4.096
11.0,0.0,4.097
12.0,-2.0,4.098
20.0,-3.0,4.099
15.0,-4.0,4.1
5.0,-6.0,4.101
8.0,-5.0,4.102
19.0,-5.0,4.103
20.0,-6.0,4.104
22.0,-2.0,4.105
45.0,4.0,4.106
69.0,5.0,4.107
54.0,0.0,4.108
3.0,-1.0,4.109
-40.0,2.0,4.11
-44.0,6.0,4.111
-33.0,4.0,4.112
-31.0,-1.0,4.113
-38.0,-3.0,4.114
-40.0,-4.0,4.115
-38.0,-5.0,4.116
-30.0,-2.0,4.117
-17.0,0.0,4.118
2.0,-1.0,4.119
19.0,-6.0,4.12
22.0,-10.0,4.121
13.0,-7.0,4.122
-3.0,-4.0,4.123
-19.0,-2.0,4.124
-27.0,-4.0,4.125
-26.0,-3.0,4.126
-23.0,0.0,4.127
-28.0,1.0,4.128
-34.0,0.0,4.129
-23.0,3.0,4.13
3.0,9.0,4.131
30.0,11.0,4.132
40.0,7.0,4.133
31.0,2.0,4.134
12.0,3.0,4.135
0.0,6.0,4.136
8.0,9.0,4.137
20.0,4.0,4.138
15.0,0.0,4.139
-14.0,-1.0,4.14
-35.0,-4.0,4.141
-22.0,-6.0,4.142
12.0,-9.0,4.143
34.0,-7.0,4.144
37.0,-2.0,4.145
34.0,-1.0,4.146
32.0,-6.0,4.147
28.0,-9.0,4.148
31.0,-9.0,4.149
48.0,-5.0,4.15
62.0,-2.0,4.151
49.0,-1.0,4.152
20.0,0.0,4.153
-11.0,2.0,4.154
-40.0,1.0,4.155
-70.0,0.0,4.156
-88.0,0.0,4.157
-86.0,0.0,4.158
-70.0,0.0,4.159
-53.0,-1.0,4.16
-32.0,-3.0,4.161
-6.0,-3.0,4.162
17.0,-2.0,4.163
28.0,-2.0,4.164
38.0,0.0,4.165
54.0,3.0,4.166
72.0,0.0,4.167
80.0,-4.0,4.168
77.0,-5.0,4.169
66.0,-1.0,4.17
46.0,2.0,4.171
25.0,-1.0,4.172
0.0,-2.0,4.173
-38.0,1.0,4.174
-83.0,6.0,4.175
-101.0,5.0,4.176
-80.0,3.0,4.177
-45.0,3.0,4.178
-25.0,3.0,4.179
-21.0,-1.0,4.18
-11.0,-8.0,4.181
-2.0,-8.0,4.182
-3.0,-5.0,4.183
-5.0,-2.0,4.184
8.0,-2.0,4.185
28.0,-3.0,4.186
33.0,-5.0,4.187
28.0,-3.0,4.188
25.0,1.0,4.189
23.0,4.0,4.19
18.0,2.0,4.191
14.0,1.0,4.192
15.0,2.0,4.193
17.0,4.0,4.194
14.0,2.0,4.195
10.0,2.0,4.196
10.0,5.0,4.197
9.0,2.0,4.198
9.0,-1.0,4.199
4.0,-3.0,4.2
1.0,-2.0,4.201
2.0,0.0,4.202
7.0,-2.0,4.203
13.0,-4.0,4.204
14.0,0.0,4.205
10.0,2.0,4.206
7.0,0.0,4.207
5.0,-2.0,4.208
2.0,0.0,4.209
0.0,2.0,4.21
1.0,-2.0,4.211
8.0,-4.0,4.212
16.0,0.0,4.213
18.0,4.0,4.214
13.0,4.0,4.215
6.0,4.0,4.216
7.0,7.0,4.217
15.0,8.0,4.218
26.0,2.0,4.219
24.0,-3.0,4.22
5.0,-7.0,4.221
-15.0,-3.0,4.222
-26.0,-3.0,4.223
-38.0,-7.0,4.224
-51.0,-7.0,4.225
-52.0,-5.0,4.226
-33.0,-4.0,4.227
-7.0,-6.0,4.228
17.0,-6.0,4.229
42.0,-4.0,4.23
55.0,-1.0,4.231
34.0,-2.0,4.232
-14.0,-1.0,4.233
-54.0,0.0,4.234
-52.0,-2.0,4.235
-27.0,-4.0,4.236
-10.0,-4.0,4.237
-14.0,-4.0,4.238
-24.0,-5.0,4.239
-25.0,-4.0,4.24
-9.0,-4.0,4.241
27.0,-4.0,4.242
69.0,-3.0,4.243
82.0,0.0,4.244
59.0,4.0,4.245
21.0,7.0,4.246
0.0,6.0,4.247
-8.0,5.0,4.248
-26.0,3.0,4.249
-56.0,0.0,4.25
-74.0,-3.0,4.251
-66.0,-2.0,4.252
-40.0,-2.0,4.253
-15.0,-3.0,4.254
5.0,-4.0,4.255
29.0,-5.0,4.256
55.0,-5.0,4.257
68.0,-6.0,4.258
60.0,-4.0,4.259
49.0,-3.0,4.26
33.0,-3.0,4.261
19.0,-3.0,4.262
12.0,-3.0,4.263
6.0,-1.0,4.264
0.0,1.0,4.265
-4.0,4.0,4.266
-6.0,4.0,4.267
-7.0,3.0,4.268
-5.0,3.0,4.269
-3.0,3.0,4.27
-4.0,3.0,4.271
-4.0,3.0,4.272
-2.0,3.0,4.273
2.0,2.0,4.274
11.0,-2.0,4.275
23.0,-5.0,4.276
45.0,-5.0,4.277
63.0,-5.0,4.278
50.0,-1.0,4.279
14.0,0.0,4.28
-18.0,-1.0,4.281
-30.0,-1.0,4.282
-30.0,0.0,4.283
-32.0,-1.0,4.284
-43.0,0.0,4.285
-42.0,0.0,4.286
-26.0,0.0,4.287
-7.0,0.0,4.288
5.0,0.0,4.289
17.0,1.0,4.29
31.0,2.0,4.291
37.0,0.0,4.292
20.0,-2.0,4.293
-5.0,1.0,4.294
-17.0,7.0,4.295
-2.0,10.0,4.296
29.0,8.0,4.297
58.0,-1.0,4.298
74.0,-8.0,4.299
68.0,-9.0,4.3
35.0,-9.0,4.301
-19.0,-9.0,4.302
-69.0,-8.0,4.303
-89.0,-7.0,4.304
-75.0,-4.0,4.305
-51.0,0.0,4.306
-42.0,0.0,4.307
-52.0,-3.0,4.308
-56.0,-5.0,4.309
-36.0,-3.0,4.31
-8.0,2.0,4.311
-4.0,4.0,4.312
-25.0,3.0,4.313
-41.0,3.0,4.314
-28.0,3.0,4.315
1.0,1.0,4.316
27.0,0.0,4.317
51.0,1.0,4.318
77.0,5.0,4.319
100.0,4.0,4.32
110.0,-4.0,4.321
101.0,-7.0,4.322
76.0,-2.0,4.323
39.0,2.0,4.324
4.0,5.0,4.325
-18.0,7.0,4.326
-26.0,8.0,4.327
-33.0,3.0,4.328
-37.0,-2.0,4.329
-27.0,-6.0,4.33
-10.0,-7.0,4.331
-4.0,-8.0,4.332
-10.0,-4.0,4.333
-12.0,3.0,4.334
0.0,6.0,4.335
12.0,0.0,4.336
16.0,-2.0,4.337
18.0,-2.0,4.338
24.0,2.0,4.339
22.0,0.0,4.34
6.0,-7.0,4.341
-13.0,-3.0,4.342
-21.0,2.0,4.343
-20.0,3.0,4.344
-17.0,-2.0,4.345
-10.0,-2.0,4.346
4.0,0.0,4.347
17.0,-2.0,4.348
20.0,-5.0,4.349
18.0,-3.0,4.35
22.0,2.0,4.351
34.0,4.0,4.352
42.0,0.0,4.353
39.0,-3.0,4.354
23.0,-2.0,4.355
9.0,-2.0,4.356
4.0,-1.0,4.357
6.0,-2.0,4.358
5.0,-1.0,4.359
-4.0,-1.0,4.36
-13.0,-7.0,4.361
-11.0,-7.0,4.362
-2.0,-3.0,4.363
0.0,2.0,4.364
-3.0,4.0,4.365
-9.0,4.0,4.366
-10.0,4.0,4.367
-7.0,3.0,4.368
1.0,1.0,4.369
17.0,1.0,4.37
37.0,2.0,4.371
46.0,3.0,4.372
29.0,5.0,4.373
-8.0,5.0,4.374
-42.0,4.0,4.375
-57.0,1.0,4.376
-52.0,0.0,4.377
-46.0,0.0,4.378
-42.0,-2.0,4.379
-31.0,-3.0,4.38
-7.0,-11.0,4.381
21.0,-19.0,4.382
40.0,-19.0,4.383
38.0,-12.0,4.384
11.0,-2.0,4.385
-28.0,2.0,4.386
-52.0,-1.0,4.387
-44.0,-2.0,4.388
-21.0,-2.0,4.389
-9.0,0.0,4.39
-11.0,-1.0,4.391
-10.0,-2.0,4.392
-1.0,-1.0,4.393
7.0,-1.0,4.394
10.0,0.0,4.395
15.0,0.0,4.396
23.0,2.0,4.397
25.0,3.0,4.398
21.0,3.0,4.399
17.0,4.0,4.4
14.0,2.0,4.401
15.0,1.0,4.402
21.0,0.0,4.403
32.0,2.0,4.404
36.0,1.0,4.405
33.0,0.0,4.406
35.0,0.0,4.407
45.0,1.0,4.408
40.0,2.0,4.409
6.0,1.0,4.41
-33.0,-1.0,4.411
-46.0,-3.0,4.412
-35.0,-1.0,4.413
-28.0,2.0,4.414
-29.0,4.0,4.415
-17.0,2.0,4.416
9.0,1.0,4.417
29.0,0.0,4.418
20.0,1.0,4.419
-9.0,-1.0,4.42
-31.0,-7.0,4.421
-33.0,-9.0,4.422
-27.0,-7.0,4.423
-21.0,-5.0,4.424
-16.0,-3.0,4.425
-7.0,0.0,4.426
4.0,2.0,4.427
21.0,0.0,4.428
40.0,0.0,4.429
55.0,0.0,4.43
58.0,1.0,4.431
48.0,2.0,4.432
37.0,1.0,4.433
32.0,0.0,4.434
22.0,-1.0,4.435
5.0,-3.0,4.436
-8.0,0.0,4.437
-10.0,0.0,4.438
-1.0,-2.0,4.439
1.0,-4.0,4.44
-5.0,-6.0,4.441
-9.0,-6.0,4.442
-4.0,-7.0,4.443
0.0,-6.0,4.444
-1.0,-3.0,4.445
0.0,2.0,4.446
15.0,2.0,4.447
46.0,2.0,4.448
77.0,5.0,4.449
85.0,5.0,4.45
56.0,1.0,4.451
10.0,-3.0,4.452
-24.0,0.0,4.453
-41.0,3.0,4.454
-60.0,2.0,4.455
-90.0,-1.0,4.456
-110.0,0.0,4.457
-106.0,2.0,4.458
-82.0,0.0,4.459
-54.0,-4.0,4.46
-29.0,-8.0,4.461
-8.0,-9.0,4.462
3.0,-8.0,4.463
1.0,-7.0,4.464
-1.0,-3.0,4.465
10.0,0.0,4.466
25.0,-2.0,4.467
28.0,-2.0,4.468
22.0,1.0,4.469
23.0,4.0,4.47
30.0,3.0,4.471
28.0,2.0,4.472
16.0,3.0,4.473
9.0,4.0,4.474
18.0,2.0,4.475
32.0,-2.0,4.476
42.0,0.0,4.477
40.0,2.0,4.478
28.0,4.0,4.479
6.0,1.0,4.48
-11.0,-4.0,4.481
-12.0,-5.0,4.482
2.0,-1.0,4.483
14.0,3.0,4.484
14.0,7.0,4.485
12.0,6.0,4.486
14.0,3.0,4.487
15.0,0.0,4.488
24.0,0.0,4.489
55.0,1.0,4.49
103.0,0.0,4.491
138.0,0.0,4.492
127.0,3.0,4.493
83.0,6.0,4.494
37.0,6.0,4.495
-2.0,3.0,4.496
-53.0,3.0,4.497
-132.0,0.0,4.498
-204.0,-1.0,4.499
-229.0,-3.0,4.5
-202.0,-5.0,4.501
-148.0,-3.0,4.502
-91.0,-5.0,4.503
-39.0,-10.0,4.504
3.0,-14.0,4.505
32.0,-13.0,4.506
50.0,-10.0,4.507
58.0,-8.0,4.508
61.0,-6.0,4.509
61.0,-4.0,4.51
65.0,-4.0,4.511
64.0,-5.0,4.512
50.0,-3.0,4.513
31.0,1.0,4.514
23.0,3.0,4.515
31.0,1.0,4.516
46.0,0.0,4.517
57.0,0.0,4.518
64.0,3.0,4.519
64.0,5.0,4.52
40.0,3.0,4.521
17.0,2.0,4.522
3.0,2.0,4.523
-13.0,3.0,4.524
-37.0,4.0,4.525
-55.0,5.0,4.526
-53.0,7.0,4.527
-47.0,9.0,4.528
-27.0,7.0,4.529
-12.0,6.0,4.53
-14.0,6.0,4.531
-17.0,6.0,4.532
-17.0,2.0,4.533
-11.0,-2.0,4.534
6.0,-3.0,4.535
20.0,-4.0,4.536
20.0,-4.0,4.537
20.0,-4.0,4.538
13.0,-4.0,4.539
2.0,-5.0,4.54
-8.0,-10.0,4.541
-9.0,-11.0,4.542
1.0,-7.0,4.543
9.0,-4.0,4.544
10.0,0.0,4.545
4.0,4.0,4.546
4.0,6.0,4.547
5.0,3.0,4.548
9.0,0.0,4.549
16.0,-2.0,4.55
24.0,-4.0,4.551
26.0,-3.0,4.552
20.0,0.0,4.553
12.0,3.0,4.554
7.0,3.0,4.555
7.0,0.0,4.556
7.0,0.0,4.557
3.0,-2.0,4.558
-2.0,-4.0,4.559
-7.0,-7.0,4.56
-9.0,-6.0,4.561
-7.0,-1.0,4.562
-2.0,2.0,4.563
1.0,4.0,4.564
3.0,4.0,4.565
0.0,5.0,4.566
3.0,4.0,4.567
17.0,1.0,4.568
38.0,-2.0,4.569
55.0,-1.0,4.57
59.0,1.0,4.571
48.0,1.0,4.572
33.0,-2.0,4.573
28.0,-6.0,4.574
34.0,-4.0,4.575
26.0,-1.0,4.576
-18.0,1.0,4.577
-94.0,-2.0,4.578
-143.0,-6.0,4.579
-126.0,-9.0,4.58
-65.0,-10.0,4.581
-17.0,-9.0,4.582
3.0,-6.0,4.583
18.0,-1.0,4.584
31.0,3.0,4.585
28.0,4.0,4.586
5.0,2.0,4.587
-20.0,1.0,4.588
-45.0,5.0,4.589
-83.0,9.0,4.59
-122.0,7.0,4.591
-124.0,1.0,4.592
-73.0,1.0,4.593
-6.0,6.0,4.594
33.0,10.0,4.595
37.0,4.0,4.596
36.0,0.0,4.597
46.0,-2.0,4.598
67.0,-1.0,4.599
83.0,-3.0,4.6
94.0,-10.0,4.601
104.0,-10.0,4.602
106.0,-6.0,4.603
91.0,-4.0,4.604
52.0,-4.0,4.605
8.0,-4.0,4.606
-14.0,-2.0,4.607
-10.0,0.0,4.608
-7.0,2.0,4.609
-22.0,2.0,4.61
-36.0,1.0,4.611
-25.0,0.0,4.612
3.0,0.0,4.613
22.0,1.0,4.614
23.0,1.0,4.615
15.0,0.0,4.616
8.0,1.0,4.617
2.0,0.0,4.618
5.0,-1.0,4.619
11.0,-3.0,4.62
8.0,-7.0,4.621
1.0,-9.0,4.622
2.0,-8.0,4.623
11.0,-4.0,4.624
17.0,2.0,4.625
14.0,5.0,4.626
9.0,1.0,4.627
4.0,-4.0,4.628
-5.0,-2.0,4.629
-16.0,3.0,4.63
-20.0,5.0,4.631
-17.0,3.0,4.632
-18.0,3.0,4.633
-19.0,5.0,4.634
-13.0,4.0,4.635
-5.0,1.0,4.636
-4.0,-1.0,4.637
-8.0,-2.0,4.638
-5.0,-1.0,4.639
-2.0,-1.0,4.64
-8.0,-3.0,4.641
-12.0,-6.0,4.642
-4.0,-8.0,4.643
10.0,-6.0,4.644
11.0,-2.0,4.645
1.0,0.0,4.646
0.0,0.0,4.647
9.0,0.0,4.648
10.0,3.0,4.649
1.0,4.0,4.65
-1.0,3.0,4.651
13.0,2.0,4.652
37.0,2.0,4.653
65.0,3.0,4.654
91.0,1.0,4.655
97.0,2.0,4.656
73.0,6.0,4.657
16.0,8.0,4.658
-43.0,6.0,4.659
-87.0,2.0,4.66
-112.0,-5.0,4.661
-119.0,-8.0,4.662
-108.0,-9.0,4.663
-85.0,-8.0,4.664
-59.0,-8.0,4.665
-39.0,-11.0,4.666
-25.0,-14.0,4.667
-12.0,-12.0,4.668
15.0,-3.0,4.669
48.0,4.0,4.67
66.0,3.0,4.671
48.0,0.0,4.672
19.0,-1.0,4.673
11.0,1.0,4.674
22.0,0.0,4.675
21.0,-5.0,4.676
2.0,-5.0,4.677
-14.0,-2.0,4.678
-10.0,0.0,4.679
4.0,1.0,4.68
13.0,0.0,4.681
16.0,0.0,4.682
26.0,2.0,4.683
36.0,3.0,4.684
36.0,5.0,4.685
24.0,5.0,4.686
9.0,3.0,4.687
1.0,0.0,4.688
13.0,1.0,4.689
53.0,4.0,4.69
106.0,4.0,4.691
123.0,2.0,4.692
73.0,-1.0,4.693
-13.0,-2.0,4.694
-67.0,-1.0,4.695
-60.0,5.0,4.696
-28.0,10.0,4.697
-12.0,7.0,4.698
-17.0,-3.0,4.699
-32.0,-10.0,4.7
-47.0,-14.0,4.701
-55.0,-12.0,4.702
-43.0,-12.0,4.703
-14.0,-11.0,4.704
4.0,-6.0,4.705
-2.0,1.0,4.706
-9.0,2.0,4.707
1.0,-1.0,4.708
16.0,-2.0,4.709
14.0,2.0,4.71
6.0,5.0,4.711
8.0,3.0,4.712
15.0,3.0,4.713
12.0,4.0,4.714
13.0,4.0,4.715
34.0,0.0,4.716
66.0,1.0,4.717
86.0,5.0,4.718
91.0,9.0,4.719
86.0,10.0,4.72
48.0,2.0,4.721
5.0,-5.0,4.722
-54.0,-6.0,4.723
-101.0,-7.0,4.724
-109.0,-5.0,4.725
-107.0,-4.0,4.726
-74.0,-8.0,4.727
-50.0,-10.0,4.728
-54.0,-8.0,4.729
-49.0,-6.0,4.73
-19.0,-3.0,4.731
0.0,0.0,4.732
-9.0,5.0,4.733
-5.0,8.0,4.734
43.0,0.0,4.735
76.0,-6.0,4.736
62.0,-8.0,4.737
39.0,-11.0,4.738
0.0,-8.0,4.739
-3.0,-4.0,4.74
-1.0,0.0,4.741
-11.0,6.0,4.742
-14.0,7.0,4.743
-6.0,4.0,4.744
-2.0,5.0,4.745
-5.0,10.0,4.746
-1.0,15.0,4.747
5.0,13.0,4.748
-1.0,6.0,4.749
-17.0,-1.0,4.75
-11.0,-6.0,4.751
28.0,-3.0,4.752
80.0,7.0,4.753
118.0,17.0,4.754
121.0,19.0,4.755
84.0,13.0,4.756
37.0,7.0,4.757
-2.0,-3.0,4.758
-28.0,-11.0,4.759
-48.0,-19.0,4.76
-45.0,-27.0,4.761
-40.0,-32.0,4.762
-33.0,-26.0,4.763
-30.0,-18.0,4.764
-42.0,-3.0,4.765
-46.0,7.0,4.766
-22.0,0.0,4.767
4.0,-4.0,4.768
35.0,0.0,4.769
57.0,3.0,4.77
51.0,6.0,4.771
37.0,9.0,4.772
2.0,9.0,4.773
-27.0,9.0,4.774
-42.0,3.0,4.775
-56.0,0.0,4.776
-66.0,2.0,4.777
-68.0,5.0,4.778
-34.0,-2.0,4.779
6.0,-16.0,4.78
35.0,-21.0,4.781
55.0,-11.0,4.782
66.0,0.0,4.783
59.0,3.0,4.784
39.0,6.0,4.785
24.0,11.0,4.786
20.0,11.0,4.787
11.0,1.0,4.788
-13.0,-9.0,4.789
-28.0,-14.0,4.79
1.0,-18.0,4.791
79.0,-24.0,4.792
167.0,-19.0,4.793
202.0,-1.0,4.794
143.0,14.0,4.795
-1.0,18.0,4.796
-141.0,15.0,4.797
-214.0,12.0,4.798
-203.0,11.0,4.799
-163.0,5.0,4.8
-132.0,-2.0,4.801
-87.0,-3.0,4.802
-15.0,-1.0,4.803
36.0,3.0,4.804
30.0,8.0,4.805
4.0,11.0,4.806
12.0,8.0,4.807
43.0,-2.0,4.808
66.0,-10.0,4.809
97.0,-7.0,4.81
146.0,3.0,4.811
160.0,3.0,4.812
85.0,-24.0,4.813
-38.0,-76.0,4.814
-115.0,-139.0,4.815
-118.0,-189.0,4.816
-104.0,-213.0,4.817
-106.0,-208.0,4.818
-97.0,-174.0,4.819
-49.0,-118.0,4.82
41.0,-61.0,4.821
164.0,-20.0,4.822
287.0,-2.0,4.823
333.0,6.0,4.824
252.0,30.0,4.825
89.0,82.0,4.826
-60.0,146.0,4.827
-173.0,202.0,4.828
-267.0,247.0,4.829
-319.0,281.0,4.83
-299.0,287.0,4.831
-232.0,253.0,4.832
-164.0,194.0,4.833
-84.0,144.0,4.834
14.0,105.0,4.835
82.0,62.0,4.836
90.0,18.0,4.837
80.0,-26.0,4.838
88.0,-66.0,4.839
85.0,-101.0,4.84
51.0,-124.0,4.841
23.0,-142.0,4.842
12.0,-140.0,4.843
-6.0,-130.0,4.844
-43.0,-93.0,4.845
-58.0,-59.0,4.846
-2.0,-35.0,4.847
36.0,-24.0,4.848
15.0,-56.0,4.849
1.0,-94.0,4.85
9.0,-150.0,4.851
11.0,-205.0,4.852
-6.0,-260.0,4.853
-7.0,-268.0,4.854
46.0,-131.0,4.855
94.0,21.0,4.856
121.0,218.0,4.857
140.0,402.0,4.858
134.0,491.0,4.859
131.0,470.0,4.86
112.0,373.0,4.861
78.0,246.0,4.862
56.0,79.0,4.863
36.0,-137.0,4.864
-5.0,-336.0,4.865
-46.0,-400.0,4.866
-47.0,-299.0,4.867
-16.0,-128.0,4.868
-4.0,-10.0,4.869
-23.0,1.0,4.87
-37.0,-80.0,4.871
-28.0,-214.0,4.872
-21.0,-308.0,4.873
-36.0,-253.0,4.874
-67.0,-28.0,4.875
-93.0,256.0,4.876
-92.0,454.0,4.877
-58.0,529.0,4.878
-14.0,474.0,4.879
-4.0,277.0,4.88
-38.0,-19.0,4.881
-48.0,-225.0,4.882
30.0,-183.0,4.883
155.0,23.0,4.884
204.0,145.0,4.885
109.0,72.0,4.886
-70.0,-91.0,4.887
-208.0,-230.0,4.888
-237.0,-350.0,4.889
-176.0,-457.0,4.89
-79.0,-467.0,4.891
5.0,-327.0,4.892
61.0,-97.0,4.893
87.0,146.0,4.894
104.0,393.0,4.895
120.0,628.0,4.896
134.0,772.0,4.897
142.0,766.0,4.898
172.0,621.0,4.899
248.0,416.0,4.9
350.0,237.0,4.901
393.0,163.0,4.902
308.0,202.0,4.903
105.0,286.0,4.904
-114.0,343.0,4.905
-250.0,361.0,4.906
-281.0,330.0,4.907
-263.0,208.0,4.908
-255.0,-11.0,4.909
-256.0,-225.0,4.91
-229.0,-348.0,4.911
-180.0,-436.0,4.912
-149.0,-587.0,4.913
-155.0,-767.0,4.914
-158.0,-829.0,4.915
-128.0,-694.0,4.916
-94.0,-424.0,4.917
-96.0,-92.0,4.918
-108.0,175.0,4.919
-100.0,271.0,4.92
-28.0,175.0,4.921
35.0,-15.0,4.922
73.0,-195.0,4.923
130.0,-333.0,4.924
238.0,-436.0,4.925
329.0,-487.0,4.926
367.0,-480.0,4.927
362.0,-452.0,4.928
223.0,-442.0,4.929
118.0,-441.0,4.93
118.0,-432.0,4.931
69.0,-403.0,4.932
-127.0,-310.0,4.933
-282.0,-91.0,4.934
-316.0,205.0,4.935
-317.0,423.0,4.936
-214.0,453.0,4.937
-159.0,317.0,4.938
-237.0,125.0,4.939
-177.0,-32.0,4.94
0.0,-77.0,4.941
114.0,33.0,4.942
106.0,212.0,4.943
49.0,286.0,4.944
-5.0,203.0,4.945
-40.0,98.0,4.946
-23.0,94.0,4.947
54.0,154.0,4.948
130.0,209.0,4.949
166.0,291.0,4.95
198.0,438.0,4.951
236.0,572.0,4.952
218.0,598.0,4.953
138.0,551.0,4.954
98.0,526.0,4.955
152.0,509.0,4.956
210.0,420.0,4.957
174.0,234.0,4.958
74.0,53.0,4.959
-1.0,-75.0,4.96
-29.0,-203.0,4.961
-57.0,-352.0,4.962
-96.0,-480.0,4.963
-126.0,-574.0,4.964
-148.0,-694.0,4.965
-162.0,-852.0,4.966
-144.0,-925.0,4.967
-89.0,-746.0,4.968
-34.0,-289.0,4.969
-5.0,293.0,4.97
20.0,776.0,4.971
45.0,1004.0,4.972
39.0,952.0,4.973
6.0,686.0,4.974
-10.0,327.0,4.975
-13.0,-5.0,4.976
-53.0,-224.0,4.977
-18.0,-337.0,4.978
-127.0,-370.0,4.979
-180.0,-377.0,4.98
-50.0,-305.0,4.981
70.0,-224.0,4.982
163.0,-114.0,4.983
204.0,-37.0,4.984
82.0,-61.0,4.985
2.0,-90.0,4.986
52.0,-134.0,4.987
70.0,-169.0,4.988
-8.0,-179.0,4.989
-76.0,-212.0,4.99
-111.0,-316.0,4.991
-133.0,-371.0,4.992
-119.0,-281.0,4.993
-66.0,-199.0,4.994
96.0,-141.0,4.995
208.0,-97.0,4.996
163.0,-93.0,4.997
-4.0,-107.0,4.998
-58.0,-207.0,4.999
-84.0,-289.0,5.0
-20.0,-209.0,5.001
40.0,115.0,5.002
86.0,640.0,5.003
106.0,1224.0,5.004
46.0,1652.0,5.005
6.0,1722.0,5.006
31.0,1378.0,5.007
40.0,771.0,5.008
1.0,148.0,5.009
-33.0,-316.0,5.01
-50.0,-577.0,5.011
-61.0,-669.0,5.012
-54.0,-649.0,5.013
-28.0,-577.0,5.014
53.0,-491.0,5.015
108.0,-412.0,5.016
86.0,-343.0,5.017
15.0,-250.0,5.018
-160.0,-79.0,5.019
-115.0,174.0,5.02
159.0,407.0,5.021
397.0,482.0,5.022
398.0,359.0,5.023
228.0,127.0,5.024
63.0,-93.0,5.025
-18.0,-238.0,5.026
-61.0,-303.0,5.027
-112.0,-322.0,5.028
-156.0,-351.0,5.029
-148.0,-433.0,5.03
-107.0,-544.0,5.031
-99.0,-625.0,5.032
-137.0,-640.0,5.033
-159.0,-559.0,5.034
-152.0,-320.0,5.035
-195.0,100.0,5.036
-298.0,553.0,5.037
-349.0,874.0,5.038
-222.0,941.0,5.039
-49.0,802.0,5.04
83.0,568.0,5.041
175.0,326.0,5.042
217.0,138.0,5.043
174.0,36.0,5.044
109.0,-19.0,5.045
130.0,-78.0,5.046
205.0,-119.0,5.047
202.0,-105.0,5.048
108.0,-82.0,5.049
44.0,-120.0,5.05
54.0,-185.0,5.051
51.0,-208.0,5.052
11.0,-213.0,5.053
-8.0,-258.0,5.054
-1.0,-314.0,5.055
-16.0,-301.0,5.056
-32.0,-230.0,5.057
-4.0,-185.0,5.058
20.0,-207.0,5.059
-41.0,-241.0,5.06
-122.0,-204.0,5.061
-92.0,-85.0,5.062
5.0,44.0,5.063
22.0,116.0,5.064
-27.0,138.0,5.065
18.0,156.0,5.066
189.0,168.0,5.067
327.0,141.0,5.068
319.0,88.0,5.069
209.0,51.0,5.07
69.0,13.0,5.071
-83.0,-80.0,5.072
-196.0,-205.0,5.073
-179.0,-275.0,5.074
-57.0,-260.0,5.075
8.0,-191.0,5.076
-71.0,-60.0,5.077
-197.0,191.0,5.078
-233.0,487.0,5.079
-242.0,657.0,5.08
-172.0,644.0,5.081
-97.0,536.0,5.082
-10.0,394.0,5.083
69.0,216.0,5.084
126.0,61.0,5.085
176.0,35.0,5.086
204.0,122.0,5.087
223.0,204.0,5.088
213.0,251.0,5.089
195.0,334.0,5.09
152.0,417.0,5.091
106.0,345.0,5.092
55.0,94.0,5.093
-10.0,-191.0,5.094
-120.0,-427.0,5.095
-198.0,-660.0,5.096
-174.0,-864.0,5.097
-118.0,-928.0,5.098
46.0,-778.0,5.099
171.0,-532.0,5.1
132.0,-328.0,5.101
-85.0,-182.0,5.102
-340.0,-85.0,5.103
-470.0,-34.0,5.104
-462.0,72.0,5.105
-406.0,373.0,5.106
-327.0,801.0,5.107
-171.0,1077.0,5.108
36.0,1029.0,5.109
170.0,748.0,5.11
188.0,424.0,5.111
186.0,166.0,5.112
225.0,7.0,5.113
243.0,-83.0,5.114
189.0,-181.0,5.115
141.0,-316.0,5.116
166.0,-410.0,5.117
198.0,-420.0,5.118
143.0,-407.0,5.119
66.0,-448.0,5.12
104.0,-504.0,5.121
230.0,-501.0,5.122
262.0,-451.0,5.123
115.0,-394.0,5.124
-57.0,-302.0,5.125
-78.0,-167.0,5.126
20.0,-61.0,5.127
50.0,-38.0,5.128
-58.0,-46.0,5.129
-172.0,-19.0,5.13
-166.0,26.0,5.131
-98.0,43.0,5.132
-93.0,31.0,5.133
-129.0,21.0,5.134
-104.0,19.0,5.135
-26.0,26.0,5.136
18.0,42.0,5.137
10.0,46.0,5.138
6.0,12.0,5.139
0.0,-68.0,5.14
-52.0,-171.0,5.141
-101.0,-252.0,5.142
-46.0,-252.0,5.143
69.0,-93.0,5.144
102.0,237.0,5.145
34.0,622.0,5.146
-5.0,902.0,5.147
29.0,1007.0,5.148
65.0,962.0,5.149
89.0,809.0,5.15
164.0,603.0,5.151
230.0,399.0,5.152
144.0,200.0,5.153
-50.0,-43.0,5.154
-132.0,-311.0,5.155
-48.0,-494.0,5.156
7.0,-544.0,5.157
-72.0,-547.0,5.158
-158.0,-558.0,5.159
-213.0,-535.0,5.16
-174.0,-409.0,5.161
-134.0,-284.0,5.162
-92.0,-160.0,5.163
-30.0,-30.0,5.164
94.0,113.0,5.165
196.0,209.0,5.166
228.0,162.0,5.167
236.0,118.0,5.168
172.0,87.0,5.169
72.0,49.0,5.17
-133.0,-5.0,5.171
-287.0,-67.0,5.172
-288.0,-147.0,5.173
-257.0,-227.0,5.174
-130.0,-306.0,5.175
-17.0,-370.0,5.176
52.0,-386.0,5.177
101.0,-398.0,5.178
61.0,-363.0,5.179
7.0,-234.0,5.18
19.0,-55.0,5.181
136.0,67.0,5.182
277.0,108.0,5.183
287.0,156.0,5.184
122.0,256.0,5.185
-85.0,363.0,5.186
-175.0,440.0,5.187
-126.0,494.0,5.188
-32.0,496.0,5.189
39.0,416.0,5.19
69.0,299.0,5.191
55.0,219.0,5.192
21.0,137.0,5.193
19.0,-51.0,5.194
60.0,-357.0,5.195
61.0,-647.0,5.196
-6.0,-766.0,5.197
-50.0,-607.0,5.198
35.0,-153.0,5.199
148.0,428.0,5.2
79.0,829.0,5.201
-150.0,877.0,5.202
-291.0,656.0,5.203
-218.0,362.0,5.204
-83.0,82.0,5.205
-18.0,-181.0,5.206
31.0,-407.0,5.207
103.0,-551.0,5.208
91.0,-570.0,5.209
-30.0,-418.0,5.21
-103.0,-86.0,5.211
-46.0,303.0,5.212
8.0,536.0,5.213
-21.0,511.0,5.214
-12.0,314.0,5.215
105.0,85.0,5.216
202.0,-93.0,5.217
149.0,-183.0,5.218
148.0,-165.0,5.219
128.0,-152.0,5.22
53.0,-154.0,5.221
-17.0,-163.0,5.222
-79.0,-191.0,5.223
-123.0,-191.0,5.224
-103.0,-105.0,5.225
-65.0,-29.0,5.226
29.0,16.0,5.227
91.0,52.0,5.228
63.0,52.0,5.229
32.0,41.0,5.23
-11.0,-6.0,5.231
-21.0,-50.0,5.232
71.0,-82.0,5.233
141.0,-114.0,5.234
138.0,-143.0,5.235
157.0,-173.0,5.236
245.0,-205.0,5.237
159.0,-220.0,5.238
158.0,-151.0,5.239
136.0,-56.0,5.24
54.0,-7.0,5.241
-24.0,-3.0,5.242
-93.0,-32.0,5.243
-141.0,-140.0,5.244
-119.0,-355.0,5.245
-77.0,-540.0,5.246
26.0,-468.0,5.247
96.0,-60.0,5.248
65.0,509.0,5.249
30.0,960.0,5.25
-18.0,1112.0,5.251
-29.0,950.0,5.252
74.0,588.0,5.253
151.0,205.0,5.254
147.0,-42.0,5.255
168.0,-130.0,5.256
265.0,-150.0,5.257
359.0,-196.0,5.258
351.0,-250.0,5.259
166.0,-245.0,5.26
-45.0,-176.0,5.261
-115.0,-125.0,5.262
-81.0,-167.0,5.263
-120.0,-264.0,5.264
-293.0,-300.0,5.265
-469.0,-203.0,5.266
-528.0,-33.0,5.267
-491.0,72.0,5.268
-425.0,34.0,5.269
-330.0,-109.0,5.27
-193.0,-254.0,5.271
-59.0,-303.0,5.272
21.0,-209.0,5.273
59.0,-9.0,5.274
106.0,168.0,5.275
177.0,208.0,5.276
225.0,134.0,5.277
198.0,75.0,5.278
106.0,107.0,5.279
29.0,260.0,5.28
40.0,431.0,5.281
105.0,511.0,5.282
127.0,469.0,5.283
82.0,355.0,5.284
41.0,235.0,5.285
50.0,122.0,5.286
67.0,3.0,5.287
54.0,-103.0,5.288
54.0,-152.0,5.289
93.0,-143.0,5.29
113.0,-125.0,5.291
51.0,-121.0,5.292
-42.0,-109.0,5.293
-60.0,-90.0,5.294
4.0,-101.0,5.295
64.0,-146.0,5.296
79.0,-189.0,5.297
90.0,-229.0,5.298
121.0,-284.0,5.299
115.0,-366.0,5.3
44.0,-466.0,5.301
-44.0,-591.0,5.302
-87.0,-739.0,5.303
-94.0,-793.0,5.304
-94.0,-554.0,5.305
-84.0,28.0,5.306
-47.0,737.0,5.307
15.0,1260.0,5.308
107.0,1442.0,5.309
207.0,1333.0,5.31
248.0,1033.0,5.311
170.0,627.0,5.312
40.0,233.0,5.313
-12.0,-39.0,5.314
24.0,-190.0,5.315
29.0,-321.0,5.316
-35.0,-482.0,5.317
-79.0,-639.0,5.318
-48.0,-736.0,5.319
-39.0,-788.0,5.32
-95.0,-705.0,5.321
-140.0,-559.0,5.322
-154.0,-227.0,5.323
-158.0,56.0,5.324
-130.0,189.0,5.325
-78.0,324.0,5.326
43.0,467.0,5.327
154.0,572.0,5.328
230.0,558.0,5.329
235.0,491.0,5.33
28.0,264.0,5.331
-126.0,67.0,5.332
-124.0,-37.0,5.333
-122.0,-125.0,5.334
-118.0,-165.0,5.335
-115.0,-200.0,5.336
-115.0,-221.0,5.337
-96.0,-240.0,5.338
-35.0,-251.0,5.339
-21.0,-262.0,5.34
-25.0,-264.0,5.341
-22.0,-234.0,5.342
-16.0,-185.0,5.343
1.0,-164.0,5.344
57.0,-185.0,5.345
105.0,-210.0,5.346
55.0,-191.0,5.347
-86.0,-131.0,5.348
-190.0,-54.0,5.349
-167.0,37.0,5.35
-61.0,150.0,5.351
33.0,262.0,5.352
80.0,312.0,5.353
117.0,265.0,5.354
178.0,154.0,5.355
240.0,45.0,5.356
235.0,-35.0,5.357
116.0,-120.0,5.358
-26.0,-201.0,5.359
-54.0,-217.0,5.36
21.0,-143.0,5.361
46.0,-44.0,5.362
-34.0,1.0,5.363
-107.0,22.0,5.364
-92.0,103.0,5.365
-54.0,264.0,5.366
-43.0,411.0,5.367
-14.0,432.0,5.368
37.0,307.0,5.369
32.0,120.0,5.37
-24.0,-18.0,5.371
-12.0,-58.0,5.372
92.0,-41.0,5.373
159.0,-42.0,5.374
110.0,-77.0,5.375
14.0,-102.0,5.376
-51.0,-108.0,5.377
-109.0,-137.0,5.378
-150.0,-177.0,5.379
-163.0,-165.0,5.38
-87.0,8.0,5.381
-6.0,197.0,5.382
87.0,433.0,5.383
169.0,595.0,5.384
214.0,531.0,5.385
254.0,428.0,5.386
275.0,214.0,5.387
277.0,24.0,5.388
221.0,-93.0,5.389
130.0,-240.0,5.39
-62.0,-473.0,5.391
-199.0,-686.0,5.392
-166.0,-836.0,5.393
-156.0,-888.0,5.394
-216.0,-639.0,5.395
-246.0,-325.0,5.396
-188.0,180.0,5.397
-144.0,632.0,5.398
-157.0,776.0,5.399
-118.0,725.0,5.4
-18.0,627.0,5.401
78.0,535.0,5.402
189.0,427.0,5.403
312.0,321.0,5.404
314.0,222.0,5.405
148.0,79.0,5.406
8.0,-138.0,5.407
43.0,-384.0,5.408
90.0,-580.0,5.409
-45.0,-679.0,5.41
-239.0,-632.0,5.411
-276.0,-443.0,5.412
-207.0,-257.0,5.413
-211.0,-258.0,5.414
-251.0,-430.0,5.415
-163.0,-557.0,5.416
2.0,-494.0,5.417
79.0,-268.0,5.418
37.0,44.0,5.419
44.0,435.0,5.42
199.0,833.0,5.421
345.0,1037.0,5.422
261.0,933.0,5.423
-32.0,678.0,5.424
-263.0,495.0,5.425
-237.0,393.0,5.426
-99.0,264.0,5.427
-97.0,126.0,5.428
-186.0,64.0,5.429
-110.0,25.0,5.43
135.0,-116.0,5.431
250.0,-328.0,5.432
123.0,-440.0,5.433
-4.0,-367.0,5.434
52.0,-174.0,5.435
144.0,68.0,5.436
124.0,297.0,5.437
83.0,432.0,5.438
137.0,377.0,5.439
175.0,195.0,5.44
77.0,61.0,5.441
-45.0,57.0,5.442
-22.0,99.0,5.443
91.0,75.0,5.444
138.0,-54.0,5.445
104.0,-287.0,5.446
67.0,-555.0,5.447
38.0,-712.0,5.448
-13.0,-637.0,5.449
-66.0,-388.0,5.45
-87.0,-149.0,5.451
-89.0,-37.0,5.452
-83.0,-32.0,5.453
-45.0,-77.0,5.454
19.0,-140.0,5.455
61.0,-193.0,5.456
66.0,-236.0,5.457
74.0,-317.0,5.458
88.0,-444.0,5.459
72.0,-525.0,5.46
-37.0,-488.0,5.461
-132.0,-407.0,5.462
-184.0,-400.0,5.463
-267.0,-433.0,5.464
-444.0,-386.0,5.465
-543.0,-257.0,5.466
-403.0,-129.0,5.467
-222.0,32.0,5.468
83.0,327.0,5.469
305.0,698.0,5.47
277.0,969.0,5.471
225.0,1079.0,5.472
103.0,1108.0,5.473
12.0,1061.0,5.474
15.0,859.0,5.475
35.0,541.0,5.476
103.0,274.0,5.477
154.0,86.0,5.478
138.0,-91.0,5.479
121.0,-296.0,5.48
92.0,-473.0,5.481
37.0,-584.0,5.482
22.0,-650.0,5.483
102.0,-622.0,5.484
195.0,-383.0,5.485
191.0,52.0,5.486
103.0,475.0,5.487
34.0,676.0,5.488
5.0,622.0,5.489
-56.0,407.0,5.49
-182.0,138.0,5.491
-314.0,-92.0,5.492
-375.0,-221.0,5.493
-348.0,-247.0,5.494
-277.0,-225.0,5.495
-185.0,-184.0,5.496
-53.0,-114.0,5.497
180.0,-12.0,5.498
355.0,68.0,5.499
382.0,79.0,5.5
298.0,28.0,5.501
228.0,-51.0,5.502
202.0,-141.0,5.503
130.0,-215.0,5.504
7.0,-241.0,5.505
-43.0,-228.0,5.506
27.0,-212.0,5.507
76.0,-201.0,5.508
-40.0,-184.0,5.509
-257.0,-172.0,5.51
-390.0,-190.0,5.511
-364.0,-220.0,5.512
-252.0,-218.0,5.513
-142.0,-174.0,5.514
-55.0,-121.0,5.515
23.0,-90.0,5.516
102.0,-84.0,5.517
186.0,-106.0,5.518
253.0,-156.0,5.519
249.0,-204.0,5.52
147.0,-183.0,5.521
5.0,-33.0,5.522
-79.0,219.0,5.523
-79.0,462.0,5.524
-59.0,589.0,5.525
-65.0,578.0,5.526
-62.0,483.0,5.527
-4.0,355.0,5.528
81.0,235.0,5.529
121.0,173.0,5.53
101.0,187.0,5.531
72.0,239.0,5.532
65.0,278.0,5.533
53.0,300.0,5.534
12.0,317.0,5.535
-39.0,302.0,5.536
-59.0,234.0,5.537
-109.0,121.0,5.538
-38.0,16.0,5.539
0.0,-57.0,5.54
-62.0,-129.0,5.541
-109.0,-233.0,5.542
-109.0,-375.0,5.543
-92.0,-485.0,5.544
-24.0,-450.0,5.545
12.0,-243.0,5.546
-62.0,11.0,5.547
-59.0,161.0,5.548
182.0,169.0,5.549
344.0,92.0,5.55
250.0,-28.0,5.551
158.0,-176.0,5.552
82.0,-292.0,5.553
28.0,-321.0,5.554
52.0,-303.0,5.555
61.0,-333.0,5.556
24.0,-422.0,5.557
-20.0,-497.0,5.558
4.0,-487.0,5.559
17.0,-418.0,5.56
-4.0,-171.0,5.561
-20.0,77.0,5.562
-20.0,331.0,5.563
-14.0,536.0,5.564
9.0,596.0,5.565
21.0,605.0,5.566
-4.0,462.0,5.567
-3.0,330.0,5.568
79.0,236.0,5.569
134.0,142.0,5.57
102.0,49.0,5.571
71.0,-34.0,5.572
45.0,-89.0,5.573
27.0,-118.0,5.574
35.0,-65.0,5.575
38.0,-17.0,5.576
25.0,15.0,5.577
8.0,46.0,5.578
-38.0,26.0,5.579
-85.0,-83.0,5.58
-84.0,-187.0,5.581
-54.0,-179.0,5.582
-48.0,-106.0,5.583
-55.0,-74.0,5.584
-29.0,-110.0,5.585
10.0,-162.0,5.586
-16.0,-191.0,5.587
-107.0,-185.0,5.588
-154.0,-139.0,5.589
-75.0,-68.0,5.59
75.0,-14.0,5.591
172.0,10.0,5.592
155.0,33.0,5.593
81.0,64.0,5.594
48.0,70.0,5.595
70.0,36.0,5.596
74.0,-3.0,5.597
10.0,-10.0,5.598
-62.0,13.0,5.599
-71.0,51.0,5.6
-37.0,90.0,5.601
-43.0,118.0,5.602
-85.0,103.0,5.603
-80.0,30.0,5.604
-8.0,-76.0,5.605
66.0,-158.0,5.606
88.0,-147.0,5.607
75.0,-4.0,5.608
63.0,221.0,5.609
46.0,420.0,5.61
16.0,528.0,5.611
-14.0,579.0,5.612
-24.0,611.0,5.613
-13.0,576.0,5.614
4.0,409.0,5.615
16.0,141.0,5.616
15.0,-103.0,5.617
3.0,-270.0,5.618
-2.0,-339.0,5.619
-7.0,-346.0,5.62
-10.0,-334.0,5.621
-12.0,-323.0,5.622
-6.0,-309.0,5.623
0.0,-280.0,5.624
5.0,-253.0,5.625
15.0,-249.0,5.626
35.0,-268.0,5.627
54.0,-281.0,5.628
69.0,-256.0,5.629
68.0,-183.0,5.63
14.0,-67.0,5.631
-28.0,48.0,5.632
-38.0,105.0,5.633
-47.0,78.0,5.634
-53.0,11.0,5.635
-56.0,-37.0,5.636
-47.0,-51.0,5.637
-33.0,-52.0,5.638
0.0,-45.0,5.639
29.0,-15.0,5.64
33.0,23.0,5.641
10.0,45.0,5.642
-10.0,43.0,5.643
-5.0,43.0,5.644
3.0,62.0,5.645
-6.0,97.0,5.646
-22.0,128.0,5.647
-24.0,146.0,5.648
-17.0,151.0,5.649
-7.0,135.0,5.65
13.0,107.0,5.651
47.0,77.0,5.652
72.0,55.0,5.653
62.0,33.0,5.654
31.0,0.0,5.655
12.0,-30.0,5.656
9.0,-37.0,5.657
8.0,-25.0,5.658
3.0,-25.0,5.659
-2.0,-33.0,5.66
-10.0,-33.0,5.661
-19.0,-18.0,5.662
-16.0,-12.0,5.663
-2.0,-17.0,5.664
5.0,-13.0,5.665
4.0,-2.0,5.666
9.0,2.0,5.667
12.0,-7.0,5.668
1.0,-12.0,5.669
-16.0,-7.0,5.67
-19.0,-6.0,5.671
-11.0,-10.0,5.672
-8.0,-12.0,5.673
-16.0,-8.0,5.674
-14.0,-4.0,5.675
0.0,-2.0,5.676
12.0,2.0,5.677
6.0,5.0,5.678
-2.0,0.0,5.679
-4.0,-6.0,5.68
-6.0,-6.0,5.681
-10.0,4.0,5.682
-6.0,10.0,5.683
5.0,8.0,5.684
12.0,5.0,5.685
6.0,5.0,5.686
1.0,3.0,5.687
6.0,0.0,5.688
14.0,3.0,5.689
12.0,8.0,5.69
2.0,6.0,5.691
-7.0,-1.0,5.692
-8.0,-1.0,5.693
3.0,5.0,5.694
21.0,12.0,5.695
31.0,13.0,5.696
30.0,15.0,5.697
20.0,14.0,5.698
12.0,11.0,5.699
-2.0,2.0,5.7
-18.0,-10.0,5.701
-22.0,-14.0,5.702
-11.0,-15.0,5.703
1.0,-14.0,5.704
0.0,-10.0,5.705
-15.0,1.0,5.706
-22.0,10.0,5.707
-13.0,10.0,5.708
7.0,7.0,5.709
17.0,9.0,5.71
6.0,11.0,5.711
-10.0,11.0,5.712
-14.0,11.0,5.713
0.0,12.0,5.714
12.0,7.0,5.715
14.0,-3.0,5.716
14.0,-6.0,5.717
15.0,-6.0,5.718
13.0,-10.0,5.719
0.0,-21.0,5.72
-11.0,-30.0,5.721
-3.0,-21.0,5.722
10.0,-7.0,5.723
16.0,1.0,5.724
15.0,3.0,5.725
20.0,0.0,5.726
29.0,-4.0,5.727
32.0,-6.0,5.728
29.0,1.0,5.729
31.0,7.0,5.73
43.0,0.0,5.731
55.0,-7.0,5.732
51.0,0.0,5.733
28.0,19.0,5.734
5.0,25.0,5.735
19.0,14.0,5.736
65.0,2.0,5.737
95.0,-3.0,5.738
48.0,-7.0,5.739
-73.0,-16.0,5.74
-179.0,-25.0,5.741
-202.0,-21.0,5.742
-154.0,-15.0,5.743
-103.0,-19.0,5.744
-80.0,-24.0,5.745
-58.0,-22.0,5.746
-13.0,-17.0,5.747
37.0,-17.0,5.748
57.0,-6.0,5.749
48.0,24.0,5.75
33.0,52.0,5.751
21.0,50.0,5.752
2.0,24.0,5.753
-22.0,2.0,5.754
-29.0,-5.0,5.755
-12.0,-8.0,5.756
9.0,-7.0,5.757
15.0,-1.0,5.758
12.0,8.0,5.759
6.0,7.0,5.76
-2.0,-6.0,5.761
-7.0,-15.0,5.762
7.0,-8.0,5.763
42.0,8.0,5.764
76.0,23.0,5.765
81.0,24.0,5.766
58.0,11.0,5.767
32.0,-1.0,5.768
21.0,-6.0,5.769
25.0,-4.0,5.77
25.0,-7.0,5.771
5.0,-13.0,5.772
-23.0,-12.0,5.773
-36.0,-10.0,5.774
-25.0,-12.0,5.775
-3.0,-19.0,5.776
14.0,-15.0,5.777
19.0,-4.0,5.778
25.0,2.0,5.779
38.0,-4.0,5.78
60.0,-11.0,5.781
79.0,-6.0,5.782
76.0,7.0,5.783
48.0,12.0,5.784
12.0,9.0,5.785
-15.0,9.0,5.786
-32.0,14.0,5.787
-46.0,21.0,5.788
-46.0,23.0,5.789
-27.0,15.0,5.79
-5.0,2.0,5.791
-2.0,-9.0,5.792
-13.0,-11.0,5.793
-4.0,-11.0,5.794
49.0,-15.0,5.795
115.0,-24.0,5.796
139.0,-29.0,5.797
82.0,-25.0,5.798
-24.0,-14.0,5.799
-113.0,-3.0,5.8
-134.0,11.0,5.801
-90.0,29.0,5.802
-12.0,41.0,5.803
61.0,36.0,5.804
82.0,25.0,5.805
19.0,20.0,5.806
-90.0,15.0,5.807
-166.0,0.0,5.808
-167.0,-21.0,5.809
-134.0,-31.0,5.81
-116.0,-30.0,5.811
-110.0,-35.0,5.812
-82.0,-45.0,5.813
-21.0,-44.0,5.814
48.0,-25.0,5.815
91.0,0.0,5.816
101.0,19.0,5.817
88.0,28.0,5.818
80.0,29.0,5.819
84.0,16.0,5.82
79.0,-5.0,5.821
44.0,-14.0,5.822
0.0,-12.0,5.823
-17.0,-8.0,5.824
-7.0,-7.0,5.825
-3.0,-5.0,5.826
-17.0,-1.0,5.827
-24.0,1.0,5.828
-5.0,-2.0,5.829
28.0,-2.0,5.83
53.0,6.0,5.831
60.0,19.0,5.832
59.0,26.0,5.833
56.0,26.0,5.834
47.0,21.0,5.835
21.0,13.0,5.836
-9.0,1.0,5.837
-24.0,-10.0,5.838
-16.0,-13.0,5.839
-2.0,-10.0,5.84
-1.0,-10.0,5.841
-3.0,-8.0,5.842
9.0,0.0,5.843
28.0,11.0,5.844
27.0,15.0,5.845
15.0,13.0,5.846
16.0,11.0,5.847
26.0,10.0,5.848
19.0,6.0,5.849
-9.0,-1.0,5.85
-29.0,-4.0,5.851
-21.0,0.0,5.852
8.0,2.0,5.853
34.0,-4.0,5.854
39.0,-10.0,5.855
24.0,-8.0,5.856
8.0,-2.0,5.857
9.0,-7.0,5.858
15.0,-21.0,5.859
-2.0,-29.0,5.86
-39.0,-26.0,5.861
-65.0,-19.0,5.862
-53.0,-18.0,5.863
-22.0,-13.0,5.864
1.0,8.0,5.865
10.0,30.0,5.866
12.0,29.0,5.867
15.0,7.0,5.868
20.0,-4.0,5.869
29.0,3.0,5.87
25.0,12.0,5.871
2.0,10.0,5.872
-27.0,5.0,5.873
-38.0,8.0,5.874
-23.0,9.0,5.875
-2.0,1.0,5.876
8.0,-6.0,5.877
0.0,-12.0,5.878
-21.0,-13.0,5.879
-40.0,-17.0,5.88
-52.0,-21.0,5.881
-58.0,-19.0,5.882
-45.0,-16.0,5.883
-31.0,-14.0,5.884
-15.0,-9.0,5.885
9.0,-2.0,5.886
57.0,3.0,5.887
93.0,7.0,5.888
91.0,20.0,5.889
83.0,39.0,5.89
57.0,48.0,5.891
32.0,40.0,5.892
10.0,31.0,5.893
-13.0,27.0,5.894
-43.0,22.0,5.895
-63.0,9.0,5.896
-52.0,-4.0,5.897
-33.0,-12.0,5.898
5.0,-21.0,5.899
23.0,-32.0,5.9
23.0,-37.0,5.901
15.0,-26.0,5.902
-5.0,-12.0,5.903
-27.0,-11.0,5.904
-32.0,-15.0,5.905
-8.0,-11.0,5.906
30.0,-5.0,5.907
58.0,-3.0,5.908
69.0,-5.0,5.909
69.0,-1.0,5.91
84.0,8.0,5.911
132.0,12.0,5.912
178.0,13.0,5.913
136.0,18.0,5.914
-24.0,24.0,5.915
-210.0,21.0,5.916
-290.0,7.0,5.917
-256.0,-12.0,5.918
-192.0,-27.0,5.919
-153.0,-36.0,5.92
-116.0,-42.0,5.921
-56.0,-36.0,5.922
1.0,-21.0,5.923
40.0,-1.0,5.924
78.0,11.0,5.925
126.0,12.0,5.926
168.0,10.0,5.927
180.0,12.0,5.928
153.0,17.0,5.929
96.0,20.0,5.93
44.0,17.0,5.931
23.0,10.0,5.932
12.0,4.0,5.933
-26.0,-2.0,5.934
-74.0,-1.0,5.935
-81.0,7.0,5.936
-50.0,15.0,5.937
-42.0,8.0,5.938
-78.0,-10.0,5.939
-106.0,-27.0,5.94
-77.0,-33.0,5.941
-20.0,-30.0,5.942
17.0,-25.0,5.943
41.0,-17.0,5.944
74.0,-1.0,5.945
97.0,17.0,5.946
81.0,22.0,5.947
37.0,15.0,5.948
0.0,13.0,5.949
-14.0,22.0,5.95
-19.0,28.0,5.951
-24.0,18.0,5.952
-25.0,0.0,5.953
-14.0,-13.0,5.954
9.0,-20.0,5.955
32.0,-24.0,5.956
47.0,-19.0,5.957
58.0,-5.0,5.958
71.0,7.0,5.959
82.0,4.0,5.96
85.0,-8.0,5.961
75.0,-5.0,5.962
44.0,9.0,5.963
2.0,20.0,5.964
-30.0,19.0,5.965
-29.0,15.0,5.966
-9.0,12.0,5.967
1.0,2.0,5.968
15.0,-12.0,5.969
73.0,-18.0,5.97
154.0,-11.0,5.971
161.0,-2.0,5.972
59.0,0.0,5.973
-40.0,-2.0,5.974
-35.0,-3.0,5.975
8.0,-6.0,5.976
-41.0,-13.0,5.977
-197.0,-18.0,5.978
-305.0,-4.0,5.979
-275.0,23.0,5.98
-175.0,34.0,5.981
-116.0,14.0,5.982
-108.0,-19.0,5.983
-95.0,-30.0,5.984
-45.0,-12.0,5.985
28.0,7.0,5.986
83.0,13.0,5.987
104.0,20.0,5.988
111.0,31.0,5.989
115.0,24.0,5.99
82.0,-3.0,5.991
13.0,-19.0,5.992
-9.0,-8.0,5.993
87.0,-2.0,5.994
234.0,-22.0,5.995
281.0,-44.0,5.996
198.0,-38.0,5.997
46.0,-14.0,5.998
-99.0,9.0,5.999
-216.0,27.0,6.0
-247.0,27.0,6.001
-250.0,15.0,6.002
-165.0,-30.0,6.003
-83.0,-63.0,6.004
-10.0,-53.0,6.005
58.0,-44.0,6.006
111.0,-41.0,6.007
137.0,-35.0,6.008
79.0,-17.0,6.009
43.0,0.0,6.01
72.0,14.0,6.011
89.0,24.0,6.012
69.0,15.0,6.013
66.0,10.0,6.014
121.0,18.0,6.015
166.0,22.0,6.016
178.0,15.0,6.017
197.0,11.0,6.018
256.0,30.0,6.019
284.0,57.0,6.02
161.0,74.0,6.021
-118.0,77.0,6.022
-399.0,60.0,6.023
-509.0,31.0,6.024
-430.0,3.0,6.025
-298.0,-14.0,6.026
-234.0,-18.0,6.027
-214.0,-11.0,6.028
-142.0,-3.0,6.029
8.0,-6.0,6.03
165.0,-25.0,6.031
237.0,-45.0,6.032
193.0,-46.0,6.033
83.0,-28.0,6.034
-2.0,-11.0,6.035
-6.0,-8.0,6.036
56.0,-7.0,6.037
129.0,9.0,6.038
167.0,41.0,6.039
145.0,64.0,6.04
73.0,62.0,6.041
-11.0,45.0,6.042
-80.0,25.0,6.043
-136.0,3.0,6.044
-193.0,-21.0,6.045
-210.0,-50.0,6.046
-139.0,-87.0,6.047
-11.0,-124.0,6.048
65.0,-135.0,6.049
43.0,-96.0,6.05
-4.0,-28.0,6.051
9.0,23.0,6.052
65.0,32.0,6.053
89.0,19.0,6.054
64.0,16.0,6.055
40.0,24.0,6.056
46.0,27.0,6.057
59.0,20.0,6.058
52.0,17.0,6.059
35.0,19.0,6.06
32.0,19.0,6.061
40.0,15.0,6.062
39.0,10.0,6.063
27.0,4.0,6.064
12.0,-1.0,6.065
1.0,-5.0,6.066
-1.0,-5.0,6.067
4.0,-1.0,6.068
12.0,9.0,6.069
16.0,23.0,6.07
17.0,34.0,6.071
17.0,31.0,6.072
17.0,19.0,6.073
16.0,13.0,6.074
11.0,17.0,6.075
4.0,17.0,6.076
-3.0,7.0,6.077
-10.0,-7.0,6.078
-15.0,-11.0,6.079
-14.0,-9.0,6.08
-8.0,-11.0,6.081
-3.0,-15.0,6.082
-5.0,-12.0,6.083
-7.0,-7.0,6.084
1.0,-6.0,6.085
20.0,-9.0,6.086
20.0,-9.0,6.087
-17.0,-7.0,6.088
-66.0,-5.0,6.089
-61.0,-6.0,6.09
28.0,-6.0,6.091
153.0,-5.0,6.092
222.0,-4.0,6.093
180.0,0.0,6.094
47.0,4.0,6.095
-110.0,6.0,6.096
-223.0,3.0,6.097
-273.0,-5.0,6.098
-258.0,-7.0,6.099
-208.0,-1.0,6.1
-155.0,4.0,6.101
-103.0,-4.0,6.102
-39.0,-22.0,6.103
35.0,-29.0,6.104
82.0,-12.0,6.105
86.0,5.0,6.106
89.0,2.0,6.107
128.0,-13.0,6.108
156.0,-8.0,6.109
109.0,20.0,6.11
8.0,38.0,6.111
-58.0,29.0,6.112
-70.0,12.0,6.113
-78.0,13.0,6.114
-100.0,17.0,6.115
-80.0,2.0,6.116
14.0,-22.0,6.117
144.0,-42.0,6.118
223.0,-45.0,6.119
207.0,-37.0,6.12
120.0,-23.0,6.121
19.0,-5.0,6.122
-38.0,2.0,6.123
-37.0,2.0,6.124
-12.0,0.0,6.125
0.0,3.0,6.126
1.0,4.0,6.127
22.0,0.0,6.128
63.0,-3.0,6.129
100.0,3.0,6.13
98.0,15.0,6.131
46.0,29.0,6.132
-39.0,36.0,6.133
-106.0,31.0,6.134
-108.0,17.0,6.135
-60.0,10.0,6.136
-30.0,10.0,6.137
-48.0,0.0,6.138
-59.0,-28.0,6.139
-12.0,-58.0,6.14
40.0,-55.0,6.141
5.0,-13.0,6.142
-96.0,22.0,6.143
-139.0,13.0,6.144
-74.0,-26.0,6.145
-1.0,-45.0,6.146
-1.0,-27.0,6.147
-12.0,-5.0,6.148
68.0,-3.0,6.149
185.0,-9.0,6.15
196.0,-5.0,6.151
63.0,-2.0,6.152
-92.0,-6.0,6.153
-148.0,0.0,6.154
-104.0,31.0,6.155
-43.0,61.0,6.156
-23.0,63.0,6.157
-30.0,35.0,6.158
-24.0,9.0,6.159
-13.0,0.0,6.16
13.0,2.0,6.161
32.0,4.0,6.162
25.0,1.0,6.163
21.0,-2.0,6.164
32.0,-2.0,6.165
39.0,1.0,6.166
31.0,1.0,6.167
24.0,-4.0,6.168
23.0,-11.0,6.169
18.0,-18.0,6.17
4.0,-22.0,6.171
-2.0,-21.0,6.172
14.0,-12.0,6.173
34.0,3.0,6.174
64.0,27.0,6.175
85.0,48.0,6.176
72.0,58.0,6.177
50.0,44.0,6.178
-2.0,17.0,6.179
-32.0,0.0,6.18
-33.0,-4.0,6.181
-26.0,-10.0,6.182
-27.0,-28.0,6.183
-30.0,-39.0,6.184
-24.0,-34.0,6.185
-13.0,-27.0,6.186
-3.0,-32.0,6.187
0.0,-35.0,6.188
-12.0,-24.0,6.189
-28.0,-12.0,6.19
-18.0,-16.0,6.191
43.0,-21.0,6.192
131.0,-4.0,6.193
176.0,23.0,6.194
114.0,31.0,6.195
-28.0,17.0,6.196
-145.0,4.0,6.197
-178.0,-2.0,6.198
-149.0,-8.0,6.199
-133.0,-15.0,6.2
-129.0,-12.0,6.201
-72.0,11.0,6.202
47.0,37.0,6.203
141.0,47.0,6.204
138.0,41.0,6.205
79.0,30.0,6.206
34.0,14.0,6.207
19.0,-3.0,6.208
0.0,-19.0,6.209
-14.0,-28.0,6.21
-2.0,-25.0,6.211
25.0,-16.0,6.212
34.0,-7.0,6.213
22.0,-4.0,6.214
15.0,-3.0,6.215
19.0,2.0,6.216
20.0,8.0,6.217
6.0,7.0,6.218
-9.0,1.0,6.219
-17.0,-1.0,6.22
-23.0,-7.0,6.221
-29.0,-16.0,6.222
-26.0,-29.0,6.223
-14.0,-30.0,6.224
-3.0,-21.0,6.225
15.0,-10.0,6.226
51.0,-3.0,6.227
91.0,5.0,6.228
96.0,19.0,6.229
49.0,27.0,6.23
-6.0,23.0,6.231
-19.0,14.0,6.232
4.0,11.0,6.233
23.0,14.0,6.234
29.0,14.0,6.235
29.0,9.0,6.236
0.0,4.0,6.237
-97.0,2.0,6.238
-214.0,7.0,6.239
-241.0,10.0,6.24
-150.0,3.0,6.241
-38.0,-12.0,6.242
-4.0,-30.0,6.243
-28.0,-39.0,6.244
-39.0,-33.0,6.245
-14.0,-19.0,6.246
34.0,-10.0,6.247
96.0,-9.0,6.248
142.0,-11.0,6.249
123.0,-11.0,6.25
37.0,-10.0,6.251
-39.0,-8.0,6.252
-48.0,-2.0,6.253
-20.0,12.0,6.254
-2.0,24.0,6.255
15.0,25.0,6.256
50.0,17.0,6.257
80.0,9.0,6.258
68.0,8.0,6.259
33.0,10.0,6.26
28.0,7.0,6.261
60.0,0.0,6.262
89.0,-9.0,6.263
94.0,-8.0,6.264
93.0,2.0,6.265
102.0,12.0,6.266
102.0,6.0,6.267
54.0,-6.0,6.268
-42.0,-4.0,6.269
-128.0,8.0,6.27
-135.0,10.0,6.271
-77.0,-7.0,6.272
-29.0,-19.0,6.273
-20.0,-10.0,6.274
-7.0,1.0,6.275
23.0,1.0,6.276
22.0,-2.0,6.277
-27.0,-4.0,6.278
-59.0,-3.0,6.279
-30.0,-6.0,6.28
8.0,-11.0,6.281
1.0,-9.0,6.282
-17.0,-7.0,6.283
10.0,-4.0,6.284
55.0,7.0,6.285
55.0,23.0,6.286
13.0,25.0,6.287
-19.0,12.0,6.288
-19.0,3.0,6.289
7.0,7.0,6.29
72.0,12.0,6.291
165.0,11.0,6.292
208.0,9.0,6.293
120.0,11.0,6.294
-52.0,12.0,6.295
-174.0,8.0,6.296
-183.0,4.0,6.297
-160.0,1.0,6.298
-188.0,-3.0,6.299
-223.0,-13.0,6.3
-164.0,-23.0,6.301
-39.0,-23.0,6.302
21.0,-22.0,6.303
-22.0,-30.0,6.304
-78.0,-45.0,6.305
-72.0,-54.0,6.306
-32.0,-44.0,6.307
-1.0,-20.0,6.308
26.0,3.0,6.309
46.0,9.0,6.31
41.0,-1.0,6.311
34.0,-3.0,6.312
96.0,15.0,6.313
229.0,36.0,6.314
342.0,49.0,6.315
352.0,55.0,6.316
282.0,66.0,6.317
173.0,67.0,6.318
42.0,48.0,6.319
-135.0,15.0,6.32
-333.0,-23.0,6.321
-452.0,-59.0,6.322
-405.0,-89.0,6.323
-232.0,-94.0,6.324
-46.0,-62.0,6.325
92.0,-11.0,6.326
208.0,21.0,6.327
291.0,22.0,6.328
265.0,8.0,6.329
123.0,2.0,6.33
-6.0,15.0,6.331
-7.0,39.0,6.332
64.0,55.0,6.333
87.0,48.0,6.334
41.0,25.0,6.335
-14.0,0.0,6.336
-67.0,-18.0,6.337
-133.0,-44.0,6.338
-162.0,-57.0,6.339
-159.0,-59.0,6.34
-59.0,-28.0,6.341
19.0,-6.0,6.342
34.0,-11.0,6.343
46.0,-14.0,6.344
46.0,-6.0,6.345
28.0,2.0,6.346
-45.0,8.0,6.347
-95.0,15.0,6.348
-69.0,20.0,6.349
-29.0,25.0,6.35
55.0,27.0,6.351
135.0,30.0,6.352
202.0,35.0,6.353
230.0,37.0,6.354
139.0,23.0,6.355
53.0,11.0,6.356
-16.0,3.0,6.357
-82.0,-5.0,6.358
-129.0,-10.0,6.359
-155.0,-14.0,6.36
-135.0,-14.0,6.361
-72.0,-6.0,6.362
12.0,-5.0,6.363
81.0,-4.0,6.364
95.0,6.0,6.365
57.0,16.0,6.366
20.0,7.0,6.367
53.0,-16.0,6.368
145.0,-27.0,6.369
198.0,-11.0,6.37
129.0,9.0,6.371
-26.0,13.0,6.372
-143.0,7.0,6.373
-151.0,3.0,6.374
-109.0,4.0,6.375
-103.0,1.0,6.376
-124.0,-2.0,6.377
-108.0,-3.0,6.378
-35.0,-6.0,6.379
51.0,-13.0,6.38
110.0,-21.0,6.381
125.0,-13.0,6.382
63.0,2.0,6.383
-74.0,12.0,6.384
-193.0,7.0,6.385
-180.0,-8.0,6.386
-67.0,-23.0,6.387
8.0,-27.0,6.388
-12.0,-25.0,6.389
-37.0,-26.0,6.39
-2.0,-29.0,6.391
44.0,-21.0,6.392
45.0,-2.0,6.393
26.0,8.0,6.394
34.0,3.0,6.395
50.0,-2.0,6.396
49.0,7.0,6.397
36.0,25.0,6.398
30.0,38.0,6.399
29.0,42.0,6.4
58.0,38.0,6.401
152.0,35.0,6.402
276.0,36.0,6.403
324.0,36.0,6.404
239.0,35.0,6.405
60.0,26.0,6.406
-138.0,11.0,6.407
-306.0,0.0,6.408
-404.0,-6.0,6.409
-401.0,-18.0,6.41
-318.0,-38.0,6.411
-203.0,-54.0,6.412
-65.0,-68.0,6.413
98.0,-89.0,6.414
234.0,-117.0,6.415
244.0,-118.0,6.416
137.0,-77.0,6.417
14.0,-22.0,6.418
-11.0,2.0,6.419
41.0,-4.0,6.42
71.0,-4.0,6.421
54.0,23.0,6.422
58.0,48.0,6.423
122.0,45.0,6.424
200.0,37.0,6.425
224.0,47.0,6.426
163.0,69.0,6.427
39.0,83.0,6.428
-84.0,84.0,6.429
-131.0,73.0,6.43
-106.0,46.0,6.431
-95.0,14.0,6.432
-137.0,-12.0,6.433
-161.0,-33.0,6.434
-113.0,-51.0,6.435
-60.0,-57.0,6.436
-59.0,-45.0,6.437
-65.0,-32.0,6.438
-19.0,-34.0,6.439
28.0,-41.0,6.44
6.0,-30.0,6.441
-28.0,-4.0,6.442
4.0,8.0,6.443
61.0,-2.0,6.444
51.0,-8.0,6.445
0.0,2.0,6.446
2.0,13.0,6.447
43.0,17.0,6.448
49.0,21.0,6.449
22.0,26.0,6.45
19.0,20.0,6.451
37.0,9.0,6.452
28.0,2.0,6.453
1.0,1.0,6.454
9.0,-5.0,6.455
44.0,-8.0,6.456
64.0,8.0,6.457
64.0,42.0,6.458
71.0,62.0,6.459
80.0,54.0,6.46
64.0,33.0,6.461
49.0,33.0,6.462
70.0,49.0,6.463
97.0,55.0,6.464
50.0,29.0,6.465
-67.0,-19.0,6.466
-167.0,-60.0,6.467
-193.0,-74.0,6.468
-173.0,-72.0,6.469
-141.0,-76.0,6.47
-95.0,-75.0,6.471
-55.0,-53.0,6.472
-63.0,-18.0,6.473
-101.0,-2.0,6.474
-89.0,-11.0,6.475
-18.0,-17.0,6.476
32.0,-6.0,6.477
27.0,5.0,6.478
14.0,2.0,6.479
35.0,-7.0,6.48
56.0,-5.0,6.481
47.0,4.0,6.482
47.0,6.0,6.483
83.0,6.0,6.484
120.0,19.0,6.485
110.0,38.0,6.486
65.0,45.0,6.487
21.0,34.0,6.488
0.0,17.0,6.489
14.0,8.0,6.49
51.0,13.0,6.491
74.0,22.0,6.492
49.0,26.0,6.493
-3.0,17.0,6.494
-48.0,0.0,6.495
-79.0,-17.0,6.496
-87.0,-23.0,6.497
-30.0,-22.0,6.498
77.0,-21.0,6.499
130.0,-31.0,6.5
16.0,-47.0,6.501
-68.0,-50.0,6.502
-62.0,-39.0,6.503
-51.0,-26.0,6.504
-22.0,-7.0,6.505
-5.0,21.0,6.506
-26.0,39.0,6.507
-9.0,22.0,6.508
127.0,-13.0,6.509
197.0,-22.0,6.51
70.0,-2.0,6.511
-63.0,15.0,6.512
-215.0,19.0,6.513
-319.0,38.0,6.514
-280.0,71.0,6.515
-219.0,77.0,6.516
-90.0,42.0,6.517
43.0,-8.0,6.518
186.0,-32.0,6.519
263.0,-43.0,6.52
223.0,-65.0,6.521
131.0,-84.0,6.522
120.0,-80.0,6.523
175.0,-56.0,6.524
141.0,-28.0,6.525
-3.0,-7.0,6.526
-90.0,5.0,6.527
-31.0,7.0,6.528
43.0,8.0,6.529
21.0,16.0,6.53
-18.0,26.0,6.531
12.0,26.0,6.532
53.0,29.0,6.533
22.0,46.0,6.534
-37.0,56.0,6.535
-64.0,35.0,6.536
-73.0,1.0,6.537
-73.0,-16.0,6.538
0.0,-10.0,6.539
125.0,0.0,6.54
170.0,8.0,6.541
82.0,29.0,6.542
-25.0,51.0,6.543
-52.0,50.0,6.544
-61.0,24.0,6.545
-139.0,2.0,6.546
-228.0,-5.0,6.547
-222.0,-17.0,6.548
-141.0,-36.0,6.549
-87.0,-47.0,6.55
-73.0,-42.0,6.551
-37.0,-29.0,6.552
31.0,-19.0,6.553
72.0,-9.0,6.554
62.0,4.0,6.555
40.0,13.0,6.556
37.0,12.0,6.557
45.0,1.0,6.558
57.0,-1.0,6.559
89.0,9.0,6.56
160.0,21.0,6.561
246.0,28.0,6.562
289.0,21.0,6.563
224.0,17.0,6.564
75.0,22.0,6.565
-47.0,29.0,6.566
-73.0,29.0,6.567
-78.0,27.0,6.568
-171.0,29.0,6.569
-306.0,24.0,6.57
-353.0,-4.0,6.571
-297.0,-40.0,6.572
-220.0,-63.0,6.573
-119.0,-83.0,6.574
59.0,-123.0,6.575
235.0,-156.0,6.576
273.0,-127.0,6.577
199.0,-27.0,6.578
181.0,63.0,6.579
212.0,71.0,6.58
97.0,21.0,6.581
-186.0,-7.0,6.582
-356.0,0.0,6.583
-229.0,3.0,6.584
0.0,-16.0,6.585
70.0,-30.0,6.586
10.0,-19.0,6.587
9.0,2.0,6.588
88.0,16.0,6.589
133.0,18.0,6.59
112.0,15.0,6.591
90.0,14.0,6.592
82.0,21.0,6.593
68.0,30.0,6.594
56.0,33.0,6.595
63.0,36.0,6.596
57.0,46.0,6.597
13.0,48.0,6.598
-21.0,25.0,6.599
-17.0,-6.0,6.6
-6.0,-20.0,6.601
-13.0,-11.0,6.602
-4.0,-9.0,6.603
29.0,-19.0,6.604
42.0,-15.0,6.605
36.0,7.0,6.606
58.0,28.0,6.607
88.0,38.0,6.608
44.0,56.0,6.609
-51.0,91.0,6.61
-53.0,112.0,6.611
53.0,91.0,6.612
71.0,44.0,6.613
-113.0,10.0,6.614
-308.0,-11.0,6.615
-265.0,-48.0,6.616
-48.0,-98.0,6.617
102.0,-125.0,6.618
49.0,-101.0,6.619
-94.0,-55.0,6.62
-168.0,-35.0,6.621
-152.0,-34.0,6.622
-99.0,-29.0,6.623
-36.0,-15.0,6.624
34.0,-16.0,6.625
88.0,-34.0,6.626
102.0,-49.0,6.627
80.0,-39.0,6.628
47.0,-10.0,6.629
22.0,9.0,6.63
16.0,9.0,6.631
26.0,4.0,6.632
42.0,11.0,6.633
60.0,23.0,6.634
80.0,19.0,6.635
95.0,6.0,6.636
99.0,5.0,6.637
79.0,14.0,6.638
40.0,21.0,6.639
-1.0,17.0,6.64
-22.0,6.0,6.641
-14.0,-2.0,6.642
4.0,-17.0,6.643
8.0,-36.0,6.644
11.0,-41.0,6.645
50.0,-22.0,6.646
133.0,6.0,6.647
228.0,36.0,6.648
275.0,67.0,6.649
217.0,102.0,6.65
48.0,127.0,6.651
-133.0,119.0,6.652
-218.0,69.0,6.653
-214.0,-6.0,6.654
-220.0,-66.0,6.655
-258.0,-73.0,6.656
-251.0,-38.0,6.657
-166.0,-10.0,6.658
-92.0,-19.0,6.659
-98.0,-46.0,6.66
-115.0,-51.0,6.661
-70.0,-36.0,6.662
1.0,-27.0,6.663
36.0,-31.0,6.664
45.0,-20.0,6.665
66.0,7.0,6.666
82.0,24.0,6.667
64.0,18.0,6.668
36.0,10.0,6.669
43.0,9.0,6.67
104.0,4.0,6.671
194.0,-10.0,6.672
247.0,-15.0,6.673
172.0,-7.0,6.674
-33.0,4.0,6.675
-238.0,11.0,6.676
-300.0,21.0,6.677
-227.0,37.0,6.678
-117.0,48.0,6.679
-37.0,38.0,6.68
11.0,8.0,6.681
19.0,-21.0,6.682
-6.0,-39.0,6.683
11.0,-43.0,6.684
128.0,-43.0,6.685
258.0,-51.0,6.686
265.0,-66.0,6.687
148.0,-61.0,6.688
33.0,-31.0,6.689
11.0,0.0,6.69
41.0,10.0,6.691
52.0,4.0,6.692
30.0,8.0,6.693
6.0,21.0,6.694
-5.0,27.0,6.695
-6.0,19.0,6.696
-9.0,14.0,6.697
-10.0,13.0,6.698
-6.0,12.0,6.699
-2.0,8.0,6.7
-2.0,5.0,6.701
-6.0,7.0,6.702
-1.0,8.0,6.703
12.0,11.0,6.704
18.0,19.0,6.705
12.0,28.0,6.706
6.0,29.0,6.707
14.0,27.0,6.708
24.0,31.0,6.709
25.0,34.0,6.71
14.0,22.0,6.711
-2.0,5.0,6.712
-33.0,-3.0,6.713
-82.0,-4.0,6.714
-130.0,-16.0,6.715
-150.0,-42.0,6.716
-137.0,-61.0,6.717
-108.0,-62.0,6.718
-74.0,-42.0,6.719
-44.0,-21.0,6.72
-27.0,-16.0,6.721
-26.0,-19.0,6.722
-21.0,-19.0,6.723
5.0,-10.0,6.724
34.0,-2.0,6.725
37.0,1.0,6.726
20.0,1.0,6.727
16.0,3.0,6.728
31.0,4.0,6.729
44.0,4.0,6.73
51.0,10.0,6.731
76.0,22.0,6.732
133.0,35.0,6.733
188.0,42.0,6.734
174.0,45.0,6.735
64.0,49.0,6.736
-73.0,54.0,6.737
-147.0,46.0,6.738
-105.0,23.0,6.739
-20.0,-5.0,6.74
10.0,-35.0,6.741
-20.0,-53.0,6.742
-48.0,-53.0,6.743
-57.0,-34.0,6.744
-62.0,-15.0,6.745
-51.0,-9.0,6.746
4.0,-11.0,6.747
79.0,-6.0,6.748
115.0,8.0,6.749
102.0,16.0,6.75
79.0,10.0,6.751
74.0,8.0,6.752
87.0,22.0,6.753
118.0,38.0,6.754
145.0,38.0,6.755
111.0,23.0,6.756
0.0,7.0,6.757
-151.0,-8.0,6.758
-225.0,-29.0,6.759
-168.0,-53.0,6.76
-66.0,-65.0,6.761
-42.0,-51.0,6.762
-113.0,-32.0,6.763
-173.0,-27.0,6.764
-141.0,-30.0,6.765
-53.0,-24.0,6.766
6.0,-17.0,6.767
20.0,-20.0,6.768
26.0,-30.0,6.769
12.0,-23.0,6.77
-61.0,0.0,6.771
-173.0,18.0,6.772
-231.0,19.0,6.773
-187.0,15.0,6.774
-68.0,18.0,6.775
90.0,23.0,6.776
251.0,18.0,6.777
350.0,1.0,6.778
318.0,-13.0,6.779
218.0,-12.0,6.78
208.0,-5.0,6.781
302.0,7.0,6.782
304.0,22.0,6.783
105.0,39.0,6.784
-133.0,53.0,6.785
-203.0,58.0,6.786
-135.0,47.0,6.787
-92.0,29.0,6.788
-89.0,7.0,6.789
-43.0,-15.0,6.79
7.0,-29.0,6.791
-41.0,-29.0,6.792
-144.0,-21.0,6.793
-156.0,-12.0,6.794
-77.0,-10.0,6.795
-28.0,-13.0,6.796
-36.0,-12.0,6.797
-16.0,-8.0,6.798
65.0,3.0,6.799
140.0,11.0,6.8
159.0,9.0,6.801
130.0,4.0,6.802
56.0,6.0,6.803
-42.0,12.0,6.804
-95.0,10.0,6.805
-61.0,-4.0,6.806
-17.0,-13.0,6.807
-34.0,-7.0,6.808
-68.0,8.0,6.809
-56.0,13.0,6.81
-33.0,3.0,6.811
-55.0,-6.0,6.812
-75.0,-4.0,6.813
-26.0,6.0,6.814
67.0,13.0,6.815
152.0,22.0,6.816
235.0,38.0,6.817
334.0,53.0,6.818
362.0,62.0,6.819
235.0,57.0,6.82
21.0,40.0,6.821
-157.0,12.0,6.822
-267.0,-31.0,6.823
-308.0,-77.0,6.824
-238.0,-97.0,6.825
-84.0,-87.0,6.826
-28.0,-59.0,6.827
-162.0,-23.0,6.828
-287.0,2.0,6.829
-195.0,-7.0,6.83
-15.0,-55.0,6.831
-9.0,-95.0,6.832
-122.0,-73.0,6.833
-88.0,-13.0,6.834
102.0,10.0,6.835
206.0,-16.0,6.836
155.0,-38.0,6.837
90.0,-21.0,6.838
102.0,7.0,6.839
103.0,16.0,6.84
63.0,15.0,6.841
88.0,33.0,6.842
208.0,54.0,6.843
293.0,59.0,6.844
245.0,55.0,6.845
102.0,62.0,6.846
-64.0,74.0,6.847
-210.0,70.0,6.848
-282.0,54.0,6.849
-235.0,26.0,6.85
-111.0,-13.0,6.851
1.0,-52.0,6.852
74.0,-67.0,6.853
124.0,-57.0,6.854
127.0,-39.0,6.855
49.0,-24.0,6.856
-51.0,-7.0,6.857
-82.0,12.0,6.858
-6.0,25.0,6.859
95.0,28.0,6.86
135.0,29.0,6.861
108.0,34.0,6.862
51.0,30.0,6.863
-20.0,13.0,6.864
-102.0,-11.0,6.865
-166.0,-35.0,6.866
-174.0,-52.0,6.867
-136.0,-53.0,6.868
-96.0,-32.0,6.869
-68.0,-3.0,6.87
-22.0,14.0,6.871
59.0,15.0,6.872
126.0,12.0,6.873
126.0,7.0,6.874
91.0,-4.0,6.875
91.0,-14.0,6.876
120.0,-13.0,6.877
111.0,2.0,6.878
52.0,21.0,6.879
25.0,31.0,6.88
78.0,29.0,6.881
113.0,27.0,6.882
13.0,28.0,6.883
-173.0,17.0,6.884
-287.0,-6.0,6.885
-264.0,-25.0,6.886
-179.0,-22.0,6.887
-77.0,-12.0,6.888
95.0,-10.0,6.889
315.0,-10.0,6.89
402.0,5.0,6.891
226.0,26.0,6.892
-97.0,31.0,6.893
-331.0,11.0,6.894
-378.0,-19.0,6.895
-299.0,-54.0,6.896
-190.0,-81.0,6.897
-89.0,-86.0,6.898
-42.0,-56.0,6.899
-56.0,-10.0,6.9
-55.0,11.0,6.901
19.0,8.0,6.902
108.0,3.0,6.903
129.0,12.0,6.904
118.0,21.0,6.905
154.0,20.0,6.906
212.0,16.0,6.907
205.0,21.0,6.908
144.0,29.0,6.909
111.0,35.0,6.91
119.0,40.0,6.911
114.0,46.0,6.912
82.0,44.0,6.913
45.0,28.0,6.914
-28.0,-3.0,6.915
-153.0,-36.0,6.916
-252.0,-53.0,6.917
-262.0,-48.0,6.918
-198.0,-27.0,6.919
-108.0,-16.0,6.92
30.0,-28.0,6.921
216.0,-37.0,6.922
315.0,-19.0,6.923
210.0,16.0,6.924
-8.0,32.0,6.925
-145.0,18.0,6.926
-148.0,-4.0,6.927
-104.0,-14.0,6.928
-67.0,-14.0,6.929
-5.0,-9.0,6.93
63.0,4.0,6.931
52.0,23.0,6.932
-54.0,24.0,6.933
-145.0,1.0,6.934
-127.0,-24.0,6.935
-37.0,-30.0,6.936
21.0,-15.0,6.937
27.0,-1.0,6.938
39.0,3.0,6.939
90.0,-3.0,6.94
132.0,-9.0,6.941
102.0,-2.0,6.942
28.0,14.0,6.943
-12.0,27.0,6.944
0.0,31.0,6.945
24.0,32.0,6.946
32.0,33.0,6.947
41.0,31.0,6.948
59.0,24.0,6.949
78.0,15.0,6.95
87.0,7.0,6.951
74.0,-2.0,6.952
36.0,-9.0,6.953
-17.0,-16.0,6.954
-61.0,-24.0,6.955
-101.0,-27.0,6.956
-139.0,-18.0,6.957
-144.0,-6.0,6.958
-76.0,-6.0,6.959
6.0,-25.0,6.96
0.0,-50.0,6.961
-68.0,-59.0,6.962
-62.0,-49.0,6.963
31.0,-33.0,6.964
74.0,-15.0,6.965
9.0,3.0,6.966
-37.0,16.0,6.967
23.0,19.0,6.968
103.0,17.0,6.969
141.0,21.0,6.97
205.0,31.0,6.971
311.0,42.0,6.972
305.0,51.0,6.973
98.0,58.0,6.974
-160.0,61.0,6.975
-304.0,54.0,6.976
-348.0,33.0,6.977
-367.0,-7.0,6.978
-304.0,-53.0,6.979
-118.0,-87.0,6.98
58.0,-103.0,6.981
76.0,-93.0,6.982
10.0,-59.0,6.983
15.0,-15.0,6.984
86.0,17.0,6.985
118.0,24.0,6.986
101.0,14.0,6.987
112.0,17.0,6.988
151.0,32.0,6.989
171.0,43.0,6.99
174.0,39.0,6.991
167.0,32.0,6.992
115.0,33.0,6.993
1.0,39.0,6.994
-98.0,34.0,6.995
-119.0,9.0,6.996
-99.0,-23.0,6.997
-109.0,-46.0,6.998
-155.0,-40.0,6.999
-193.0,-14.0,7.0
-175.0,-1.0,7.001
-96.0,-6.0,7.002
-3.0,-12.0,7.003
25.0,-1.0,7.004
-27.0,15.0,7.005
-91.0,13.0,7.006
-103.0,-7.0,7.007
-94.0,-20.0,7.008
-96.0,-15.0,7.009
-35.0,-1.0,7.01
185.0,-4.0,7.011
476.0,-28.0,7.012
580.0,-54.0,7.013
382.0,-57.0,7.014
94.0,-38.0,7.015
-12.0,-14.0,7.016
36.0,4.0,7.017
-6.0,18.0,7.018
-233.0,34.0,7.019
-448.0,40.0,7.02
-466.0,33.0,7.021
-352.0,21.0,7.022
-224.0,7.0,7.023
-64.0,-10.0,7.024
125.0,-30.0,7.025
203.0,-32.0,7.026
103.0,-11.0,7.027
-6.0,12.0,7.028
29.0,17.0,7.029
121.0,11.0,7.03
118.0,10.0,7.031
50.0,13.0,7.032
37.0,13.0,7.033
76.0,15.0,7.034
88.0,26.0,7.035
66.0,37.0,7.036
60.0,42.0,7.037
68.0,39.0,7.038
81.0,40.0,7.039
111.0,38.0,7.04
193.0,25.0,7.041
235.0,11.0,7.042
155.0,-5.0,7.043
48.0,-16.0,7.044
-135.0,-14.0,7.045
-268.0,-15.0,7.046
-250.0,-25.0,7.047
-231.0,-38.0,7.048
-212.0,-59.0,7.049
-191.0,-76.0,7.05
-165.0,-82.0,7.051
-128.0,-81.0,7.052
-57.0,-53.0,7.053
4.0,-23.0,7.054
36.0,11.0,7.055
66.0,38.0,7.056
91.0,36.0,7.057
101.0,32.0,7.058
47.0,28.0,7.059
8.0,23.0,7.06
22.0,7.0,7.061
76.0,-11.0,7.062
147.0,-13.0,7.063
228.0,3.0,7.064
307.0,27.0,7.065
323.0,40.0,7.066
187.0,36.0,7.067
-76.0,24.0,7.068
-287.0,11.0,7.069
-285.0,0.0,7.07
-135.0,-12.0,7.071
-29.0,-20.0,7.072
-42.0,-9.0,7.073
-92.0,16.0,7.074
-117.0,38.0,7.075
-131.0,42.0,7.076
-127.0,33.0,7.077
-78.0,16.0,7.078
-10.0,-2.0,7.079
14.0,-21.0,7.08
13.0,-44.0,7.081
68.0,-61.0,7.082
193.0,-68.0,7.083
274.0,-60.0,7.084
215.0,-38.0,7.085
52.0,-12.0,7.086
-84.0,0.0,7.087
-111.0,-3.0,7.088
-57.0,-4.0,7.089
14.0,6.0,7.09
92.0,16.0,7.091
181.0,16.0,7.092
210.0,14.0,7.093
102.0,22.0,7.094
-78.0,31.0,7.095
-173.0,31.0,7.096
-144.0,25.0,7.097
-103.0,13.0,7.098
-111.0,1.0,7.099
-116.0,-6.0,7.1
-108.0,-7.0,7.101
-96.0,-1.0,7.102
-72.0,0.0,7.103
-40.0,-8.0,7.104
12.0,-14.0,7.105
43.0,-12.0,7.106
9.0,-10.0,7.107
-5.0,-10.0,7.108
40.0,-6.0,7.109
71.0,4.0,7.11
57.0,11.0,7.111
52.0,12.0,7.112
74.0,18.0,7.113
94.0,29.0,7.114
108.0,35.0,7.115
131.0,33.0,7.116
175.0,32.0,7.117
192.0,29.0,7.118
87.0,18.0,7.119
-4.0,-8.0,7.12
-30.0,-43.0,7.121
-79.0,-67.0,7.122
-199.0,-77.0,7.123
-284.0,-76.0,7.124
-237.0,-62.0,7.125
-134.0,-34.0,7.126
-104.0,-5.0,7.127
-136.0,8.0,7.128
-129.0,8.0,7.129
-68.0,6.0,7.13
-15.0,12.0,7.131
10.0,17.0,7.132
51.0,21.0,7.133
113.0,27.0,7.134
151.0,37.0,7.135
150.0,40.0,7.136
142.0,35.0,7.137
142.0,22.0,7.138
124.0,11.0,7.139
54.0,4.0,7.14
-41.0,-4.0,7.141
-91.0,-4.0,7.142
-65.0,5.0,7.143
-16.0,8.0,7.144
1.0,-9.0,7.145
13.0,-35.0,7.146
62.0,-43.0,7.147
128.0,-23.0,7.148
167.0,3.0,7.149
180.0,11.0,7.15
162.0,-1.0,7.151
76.0,-12.0,7.152
-69.0,-11.0,7.153
-175.0,0.0,7.154
-176.0,7.0,7.155
-121.0,-1.0,7.156
-84.0,-18.0,7.157
-65.0,-43.0,7.158
-52.0,-55.0,7.159
-60.0,-48.0,7.16
-80.0,-31.0,7.161
-60.0,-13.0,7.162
6.0,0.0,7.163
54.0,14.0,7.164
44.0,27.0,7.165
14.0,34.0,7.166
9.0,32.0,7.167
23.0,30.0,7.168
30.0,30.0,7.169
39.0,28.0,7.17
60.0,22.0,7.171
87.0,17.0,7.172
140.0,20.0,7.173
240.0,21.0,7.174
328.0,13.0,7.175
274.0,-1.0,7.176
50.0,-10.0,7.177
-249.0,-8.0,7.178
-431.0,1.0,7.179
-439.0,6.0,7.18
-365.0,0.0,7.181
-269.0,-9.0,7.182
-125.0,-12.0,7.183
46.0,-15.0,7.184
135.0,-16.0,7.185
100.0,-12.0,7.186
51.0,-4.0,7.187
74.0,4.0,7.188
123.0,6.0,7.189
130.0,5.0,7.19
143.0,8.0,7.191
217.0,14.0,7.192
279.0,21.0,7.193
197.0,29.0,7.194
-16.0,36.0,7.195
-214.0,38.0,7.196
-279.0,30.0,7.197
-242.0,7.0,7.198
-174.0,-28.0,7.199
-116.0,-68.0,7.2
-71.0,-98.0,7.201
-64.0,-95.0,7.202
-97.0,-63.0,7.203
-104.0,-28.0,7.204
-21.0,-4.0,7.205
105.0,12.0,7.206
175.0,30.0,7.207
174.0,34.0,7.208
180.0,15.0,7.209
209.0,-15.0,7.21
189.0,-30.0,7.211
89.0,-16.0,7.212
-2.0,5.0,7.213
-5.0,18.0,7.214
47.0,26.0,7.215
76.0,41.0,7.216
86.0,55.0,7.217
132.0,50.0,7.218
194.0,27.0,7.219
200.0,5.0,7.22
34.0,-16.0,7.221
-96.0,-35.0,7.222
-117.0,-50.0,7.223
-139.0,-56.0,7.224
-163.0,-33.0,7.225
-205.0,-17.0,7.226
-302.0,-23.0,7.227
-352.0,-24.0,7.228
-260.0,-5.0,7.229
-192.0,11.0,7.23
-196.0,15.0,7.231
-170.0,20.0,7.232
-50.0,27.0,7.233
42.0,32.0,7.234
46.0,26.0,7.235
81.0,20.0,7.236
205.0,14.0,7.237
306.0,12.0,7.238
299.0,17.0,7.239
287.0,19.0,7.24
276.0,21.0,7.241
184.0,29.0,7.242
35.0,33.0,7.243
-49.0,28.0,7.244
-46.0,18.0,7.245
-20.0,8.0,7.246
1.0,2.0,7.247
-4.0,-2.0,7.248
-100.0,-15.0,7.249
-264.0,-43.0,7.25
-325.0,-74.0,7.251
-193.0,-81.0,7.252
-28.0,-59.0,7.253
3.0,-26.0,7.254
-36.0,-5.0,7.255
-4.0,8.0,7.256
70.0,19.0,7.257
89.0,21.0,7.258
74.0,14.0,7.259
97.0,4.0,7.26
118.0,-1.0,7.261
59.0,7.0,7.262
-28.0,17.0,7.263
-31.0,16.0,7.264
39.0,5.0,7.265
80.0,-3.0,7.266
67.0,0.0,7.267
53.0,7.0,7.268
46.0,12.0,7.269
9.0,13.0,7.27
-28.0,11.0,7.271
-15.0,8.0,7.272
25.0,2.0,7.273
37.0,-1.0,7.274
48.0,-2.0,7.275
111.0,-4.0,7.276
200.0,-1.0,7.277
271.0,7.0,7.278
311.0,29.0,7.279
304.0,55.0,7.28
174.0,63.0,7.281
-100.0,45.0,7.282
-385.0,0.0,7.283
-531.0,-61.0,7.284
-542.0,-111.0,7.285
-473.0,-128.0,7.286
-314.0,-110.0,7.287
-77.0,-71.0,7.288
92.0,-33.0,7.289
101.0,-4.0,7.29
73.0,16.0,7.291
152.0,32.0,7.292
253.0,43.0,7.293
203.0,50.0,7.294
35.0,55.0,7.295
-66.0,55.0,7.296
-41.0,45.0,7.297
46.0,15.0,7.298
146.0,-25.0,7.299
254.0,-58.0,7.3
297.0,-60.0,7.301
180.0,-24.0,7.302
-54.0,17.0,7.303
-277.0,27.0,7.304
-407.0,6.0,7.305
-421.0,-14.0,7.306
-310.0,-17.0,7.307
-132.0,-13.0,7.308
-17.0,-13.0,7.309
-15.0,-12.0,7.31
-40.0,-5.0,7.311
-7.0,9.0,7.312
45.0,21.0,7.313
68.0,23.0,7.314
89.0,21.0,7.315
134.0,27.0,7.316
165.0,38.0,7.317
159.0,36.0,7.318
157.0,18.0,7.319
166.0,-2.0,7.32
136.0,-9.0,7.321
60.0,-1.0,7.322
16.0,2.0,7.323
56.0,-1.0,7.324
125.0,3.0,7.325
137.0,18.0,7.326
56.0,28.0,7.327
-85.0,21.0,7.328
-202.0,13.0,7.329
-212.0,9.0,7.33
-132.0,-5.0,7.331
-59.0,-27.0,7.332
-34.0,-38.0,7.333
6.0,-24.0,7.334
92.0,-5.0,7.335
140.0,-5.0,7.336
109.0,-9.0,7.337
49.0,3.0,7.338
37.0,26.0,7.339
41.0,33.0,7.34
6.0,10.0,7.341
-47.0,-12.0,7.342
-68.0,-24.0,7.343
-40.0,-30.0,7.344
26.0,-36.0,7.345
90.0,-35.0,7.346
80.0,-28.0,7.347
-30.0,-22.0,7.348
-137.0,-18.0,7.349
-132.0,-12.0,7.35
-60.0,-8.0,7.351
-49.0,-5.0,7.352
-100.0,2.0,7.353
-109.0,14.0,7.354
-58.0,20.0,7.355
-19.0,8.0,7.356
8.0,-8.0,7.357
100.0,-23.0,7.358
223.0,-28.0,7.359
300.0,-23.0,7.36
234.0,-18.0,7.361
174.0,-14.0,7.362
131.0,-23.0,7.363
69.0,-38.0,7.364
-51.0,-43.0,7.365
-125.0,-34.0,7.366
-55.0,-24.0,7.367
-24.0,-21.0,7.368
-110.0,-15.0,7.369
-176.0,11.0,7.37
-177.0,58.0,7.371
-212.0,104.0,7.372
-344.0,133.0,7.373
-401.0,144.0,7.374
-234.0,141.0,7.375
-98.0,113.0,7.376
-54.0,60.0,7.377
-21.0,-9.0,7.378
36.0,-54.0,7.379
142.0,-55.0,7.38
135.0,-35.0,7.381
62.0,-19.0,7.382
77.0,-18.0,7.383
152.0,-19.0,7.384
149.0,-10.0,7.385
95.0,-1.0,7.386
104.0,3.0,7.387
142.0,0.0,7.388
102.0,-7.0,7.389
17.0,-18.0,7.39
-8.0,-31.0,7.391
15.0,-39.0,7.392
22.0,-37.0,7.393
29.0,-28.0,7.394
84.0,-19.0,7.395
148.0,-13.0,7.396
163.0,-6.0,7.397
149.0,-2.0,7.398
135.0,1.0,7.399
84.0,2.0,7.4
-26.0,0.0,7.401
-136.0,-6.0,7.402
-170.0,-18.0,7.403
-138.0,-38.0,7.404
-93.0,-54.0,7.405
-53.0,-53.0,7.406
-17.0,-29.0,7.407
1.0,5.0,7.408
1.0,35.0,7.409
-1.0,54.0,7.41
3.0,59.0,7.411
11.0,55.0,7.412
20.0,37.0,7.413
32.0,13.0,7.414
41.0,-2.0,7.415
65.0,-1.0,7.416
131.0,9.0,7.417
219.0,16.0,7.418
233.0,19.0,7.419
119.0,20.0,7.42
-37.0,18.0,7.421
-97.0,11.0,7.422
-31.0,-3.0,7.423
40.0,-23.0,7.424
-26.0,-39.0,7.425
-247.0,-47.0,7.426
-482.0,-50.0,7.427
-540.0,-51.0,7.428
-379.0,-54.0,7.429
-164.0,-51.0,7.43
-66.0,-38.0,7.431
-67.0,-14.0,7.432
-27.0,19.0,7.433
89.0,52.0,7.434
175.0,70.0,7.435
164.0,57.0,7.436
116.0,23.0,7.437
109.0,-19.0,7.438
142.0,-44.0,7.439
144.0,-49.0,7.44
103.0,-45.0,7.441
89.0,-30.0,7.442
169.0,-7.0,7.443
281.0,17.0,7.444
266.0,31.0,7.445
65.0,26.0,7.446
-175.0,3.0,7.447
-269.0,-18.0,7.448
-211.0,-25.0,7.449
-143.0,-18.0,7.45
-121.0,-7.0,7.451
-70.0,-2.0,7.452
45.0,1.0,7.453
137.0,2.0,7.454
133.0,0.0,7.455
77.0,-1.0,7.456
40.0,8.0,7.457
24.0,20.0,7.458
8.0,25.0,7.459
1.0,14.0,7.46
19.0,-10.0,7.461
42.0,-42.0,7.462
56.0,-68.0,7.463
82.0,-50.0,7.464
155.0,21.0,7.465
259.0,106.0,7.466
293.0,148.0,7.467
152.0,143.0,7.468
-131.0,120.0,7.469
-357.0,95.0,7.47
-363.0,59.0,7.471
-234.0,25.0,7.472
-181.0,15.0,7.473
-221.0,12.0,7.474
-175.0,-24.0,7.475
-3.0,-88.0,7.476
103.0,-124.0,7.477
50.0,-110.0,7.478
-3.0,-67.0,7.479
95.0,-33.0,7.48
209.0,-15.0,7.481
142.0,-1.0,7.482
-16.0,8.0,7.483
-42.0,12.0,7.484
59.0,17.0,7.485
80.0,15.0,7.486
-42.0,-3.0,7.487
-163.0,-32.0,7.488
-177.0,-56.0,7.489
-117.0,-64.0,7.49
-27.0,-59.0,7.491
71.0,-48.0,7.492
122.0,-37.0,7.493
90.0,-28.0,7.494
48.0,-20.0,7.495
66.0,-7.0,7.496
97.0,3.0,7.497
67.0,2.0,7.498
11.0,-6.0,7.499
8.0,-4.0,7.5
34.0,7.0,7.501
22.0,15.0,7.502
-11.0,12.0,7.503
-13.0,11.0,7.504
-9.0,19.0,7.505
-38.0,24.0,7.506
-51.0,23.0,7.507
9.0,29.0,7.508
99.0,51.0,7.509
166.0,78.0,7.51
260.0,88.0,7.511
397.0,82.0,7.512
425.0,77.0,7.513
211.0,67.0,7.514
-125.0,33.0,7.515
-335.0,-18.0,7.516
-364.0,-48.0,7.517
