Deltoid,Bicep,Time
-8.0,-3.0,0.0
1.0,-8.0,0.001
12.0,-6.0,0.002
18.0,-2.0,0.003
17.0,-1.0,0.004
10.0,0.0,0.005
0.0,2.0,0.006
-8.0,2.0,0.007
-13.0,1.0,0.008
-15.0,-1.0,0.009
-15.0,0.0,0.01
-14.0,0.0,0.011
-13.0,-4.0,0.012
-14.0,-6.0,0.013
-14.0,-5.0,0.014
-6.0,-4.0,0.015
3.0,-2.0,0.016
9.0,1.0,0.017
6.0,3.0,0.018
5.0,1.0,0.019
3.0,0.0,0.02
-1.0,-3.0,0.021
-2.0,0.0,0.022
3.0,2.0,0.023
13.0,3.0,0.024
16.0,3.0,0.025
14.0,3.0,0.026
19.0,-1.0,0.027
33.0,-7.0,0.028
45.0,-6.0,0.029
47.0,-1.0,0.03
37.0,3.0,0.031
27.0,4.0,0.032
26.0,4.0,0.033
39.0,4.0,0.034
55.0,3.0,0.035
54.0,2.0,0.036
32.0,4.0,0.037
-6.0,7.0,0.038
-38.0,4.0,0.039
-62.0,-4.0,0.04
-80.0,-13.0,0.041
-88.0,-15.0,0.042
-81.0,-13.0,0.043
-65.0,-12.0,0.044
-57.0,-10.0,0.045
-57.0,-4.0,0.046
-56.0,2.0,0.047
-49.0,5.0,0.048
-33.0,4.0,0.049
-6.0,4.0,0.05
24.0,4.0,0.051
43.0,3.0,0.052
41.0,0.0,0.053
36.0,-1.0,0.054
39.0,0.0,0.055
46.0,0.0,0.056
45.0,4.0,0.057
42.0,6.0,0.058
48.0,10.0,0.059
51.0,8.0,0.06
34.0,-2.0,0.061
8.0,-10.0,0.062
-4.0,-11.0,0.063
-1.0,-6.0,0.064
-2.0,0.0,0.065
-10.0,1.0,0.066
-8.0,0.0,0.067
1.0,-2.0,0.068
8.0,0.0,0.069
11.0,1.0,0.07
23.0,-4.0,0.071
33.0,-10.0,0.072
24.0,-8.0,0.073
0.0,1.0,0.074
-13.0,11.0,0.075
-9.0,12.0,0.076
-3.0,11.0,0.077
-3.0,9.0,0.078
-1.0,7.0,0.079
2.0,2.0,0.08
4.0,-8.0,0.081
8.0,-14.0,0.082
23.0,-14.0,0.083
41.0,-12.0,0.084
44.0,-11.0,0.085
30.0,-9.0,0.086
15.0,-1.0,0.087
-2.0,9.0,0.088
-26.0,17.0,0.089
-53.0,20.0,0.09
-59.0,17.0,0.091
-49.0,11.0,0.092
-51.0,5.0,0.093
-65.0,-3.0,0.094
-66.0,-10.0,0.095
-42.0,-15.0,0.096
-15.0,-16.0,0.097
0.0,-19.0,0.098
17.0,-13.0,0.099
32.0,-5.0,0.1
42.0,6.0,0.101
52.0,13.0,0.102
57.0,7.0,0.103
64.0,2.0,0.104
80.0,0.0,0.105
88.0,-2.0,0.106
70.0,-1.0,0.107
51.0,0.0,0.108
28.0,4.0,0.109
2.0,7.0,0.11
-31.0,7.0,0.111
-58.0,8.0,0.112
-63.0,19.0,0.113
-70.0,23.0,0.114
-81.0,3.0,0.115
-89.0,-14.0,0.116
-87.0,-24.0,0.117
-83.0,-33.0,0.118
-68.0,-34.0,0.119
-39.0,-28.0,0.12
-9.0,-18.0,0.121
15.0,-7.0,0.122
39.0,0.0,0.123
61.0,4.0,0.124
65.0,14.0,0.125
53.0,22.0,0.126
46.0,17.0,0.127
56.0,9.0,0.128
62.0,9.0,0.129
47.0,15.0,0.13
26.0,13.0,0.131
18.0,-1.0,0.132
23.0,-15.0,0.133
31.0,-19.0,0.134
35.0,-10.0,0.135
30.0,-2.0,0.136
17.0,1.0,0.137
-4.0,-3.0,0.138
-18.0,-4.0,0.139
-24.0,-4.0,0.14
-32.0,-1.0,0.141
-37.0,2.0,0.142
-28.0,5.0,0.143
-9.0,9.0,0.144
5.0,14.0,0.145
10.0,16.0,0.146
14.0,10.0,0.147
20.0,5.0,0.148
22.0,7.0,0.149
17.0,9.0,0.15
13.0,7.0,0.151
14.0,5.0,0.152
16.0,1.0,0.153
20.0,-3.0,0.154
27.0,-7.0,0.155
30.0,-8.0,0.156
22.0,-1.0,0.157
4.0,3.0,0.158
-14.0,-1.0,0.159
-25.0,-4.0,0.16
-25.0,-5.0,0.161
-16.0,-8.0,0.162
-4.0,-13.0,0.163
0.0,-12.0,0.164
-4.0,-1.0,0.165
-7.0,7.0,0.166
0.0,4.0,0.167
9.0,1.0,0.168
14.0,4.0,0.169
10.0,9.0,0.17
5.0,7.0,0.171
-3.0,4.0,0.172
-9.0,6.0,0.173
-10.0,12.0,0.174
-4.0,13.0,0.175
0.0,9.0,0.176
-2.0,5.0,0.177
-15.0,-2.0,0.178
-31.0,-13.0,0.179
-46.0,-27.0,0.18
-51.0,-37.0,0.181
-42.0,-34.0,0.182
-21.0,-26.0,0.183
-2.0,-17.0,0.184
0.0,-10.0,0.185
-8.0,0.0,0.186
-12.0,6.0,0.187
-2.0,6.0,0.188
11.0,3.0,0.189
13.0,4.0,0.19
12.0,9.0,0.191
17.0,10.0,0.192
29.0,6.0,0.193
32.0,4.0,0.194
27.0,7.0,0.195
22.0,12.0,0.196
25.0,16.0,0.197
29.0,14.0,0.198
33.0,10.0,0.199
32.0,6.0,0.2
27.0,0.0,0.201
16.0,-4.0,0.202
6.0,-8.0,0.203
1.0,-7.0,0.204
-1.0,-3.0,0.205
-9.0,-1.0,0.206
-15.0,-3.0,0.207
-10.0,-4.0,0.208
-2.0,0.0,0.209
-3.0,6.0,0.21
-10.0,7.0,0.211
-10.0,4.0,0.212
4.0,5.0,0.213
32.0,7.0,0.214
61.0,3.0,0.215
71.0,-5.0,0.216
55.0,-8.0,0.217
22.0,-8.0,0.218
1.0,-4.0,0.219
-7.0,-3.0,0.22
-17.0,-7.0,0.221
-35.0,-8.0,0.222
-51.0,-8.0,0.223
-55.0,-7.0,0.224
-57.0,-6.0,0.225
-58.0,-8.0,0.226
-45.0,-12.0,0.227
-19.0,-15.0,0.228
6.0,-10.0,0.229
20.0,0.0,0.23
30.0,6.0,0.231
33.0,3.0,0.232
23.0,1.0,0.233
5.0,1.0,0.234
-4.0,5.0,0.235
-3.0,4.0,0.236
-2.0,3.0,0.237
-8.0,1.0,0.238
-11.0,0.0,0.239
-3.0,-3.0,0.24
10.0,-9.0,0.241
18.0,-10.0,0.242
26.0,-3.0,0.243
36.0,3.0,0.244
41.0,7.0,0.245
32.0,6.0,0.246
18.0,3.0,0.247
9.0,4.0,0.248
7.0,6.0,0.249
0.0,7.0,0.25
-18.0,3.0,0.251
-33.0,0.0,0.252
-30.0,0.0,0.253
-11.0,3.0,0.254
6.0,4.0,0.255
15.0,6.0,0.256
16.0,9.0,0.257
16.0,7.0,0.258
13.0,2.0,0.259
9.0,0.0,0.26
5.0,-2.0,0.261
12.0,-4.0,0.262
19.0,-9.0,0.263
12.0,-12.0,0.264
-11.0,-14.0,0.265
-34.0,-13.0,0.266
-39.0,-10.0,0.267
-29.0,-2.0,0.268
-20.0,6.0,0.269
-20.0,8.0,0.27
-22.0,1.0,0.271
-19.0,-4.0,0.272
-16.0,0.0,0.273
-16.0,9.0,0.274
-17.0,10.0,0.275
-10.0,4.0,0.276
2.0,-1.0,0.277
12.0,-7.0,0.278
15.0,-13.0,0.279
15.0,-17.0,0.28
14.0,-15.0,0.281
16.0,-6.0,0.282
20.0,-4.0,0.283
29.0,-7.0,0.284
37.0,-5.0,0.285
39.0,3.0,0.286
38.0,4.0,0.287
36.0,-2.0,0.288
36.0,-4.0,0.289
37.0,4.0,0.29
38.0,8.0,0.291
31.0,3.0,0.292
10.0,-4.0,0.293
-15.0,-3.0,0.294
-25.0,2.0,0.295
-20.0,3.0,0.296
-13.0,3.0,0.297
-19.0,1.0,0.298
-24.0,3.0,0.299
-18.0,6.0,0.3
-6.0,4.0,0.301
1.0,3.0,0.302
9.0,4.0,0.303
18.0,6.0,0.304
23.0,8.0,0.305
19.0,4.0,0.306
10.0,-1.0,0.307
6.0,-2.0,0.308
9.0,4.0,0.309
16.0,11.0,0.31
25.0,9.0,0.311
34.0,1.0,0.312
42.0,-2.0,0.313
47.0,1.0,0.314
46.0,5.0,0.315
32.0,4.0,0.316
3.0,5.0,0.317
-28.0,7.0,0.318
-50.0,10.0,0.319
-60.0,7.0,0.32
-65.0,-2.0,0.321
-61.0,-5.0,0.322
-40.0,-5.0,0.323
-10.0,-10.0,0.324
8.0,-19.0,0.325
9.0,-24.0,0.326
7.0,-23.0,0.327
9.0,-16.0,0.328
10.0,-8.0,0.329
0.0,0.0,0.33
-14.0,9.0,0.331
-24.0,13.0,0.332
-32.0,11.0,0.333
-43.0,9.0,0.334
-47.0,8.0,0.335
-41.0,5.0,0.336
-28.0,4.0,0.337
-19.0,3.0,0.338
-9.0,3.0,0.339
-3.0,-5.0,0.34
-2.0,-21.0,0.341
0.0,-29.0,0.342
14.0,-28.0,0.343
43.0,-21.0,0.344
73.0,-7.0,0.345
87.0,7.0,0.346
85.0,13.0,0.347
80.0,10.0,0.348
77.0,8.0,0.349
65.0,16.0,0.35
37.0,25.0,0.351
1.0,20.0,0.352
-30.0,10.0,0.353
-43.0,4.0,0.354
-38.0,-4.0,0.355
-28.0,-18.0,0.356
-25.0,-30.0,0.357
-27.0,-33.0,0.358
-26.0,-25.0,0.359
-24.0,-13.0,0.36
-24.0,-9.0,0.361
-25.0,-5.0,0.362
-18.0,-2.0,0.363
-4.0,2.0,0.364
8.0,11.0,0.365
15.0,20.0,0.366
23.0,21.0,0.367
32.0,11.0,0.368
32.0,4.0,0.369
20.0,4.0,0.37
11.0,6.0,0.371
15.0,7.0,0.372
19.0,6.0,0.373
10.0,5.0,0.374
-6.0,1.0,0.375
-12.0,-5.0,0.376
-7.0,-6.0,0.377
-6.0,-6.0,0.378
-8.0,-6.0,0.379
-8.0,-10.0,0.38
0.0,-16.0,0.381
13.0,-13.0,0.382
26.0,-6.0,0.383
32.0,3.0,0.384
24.0,12.0,0.385
16.0,16.0,0.386
21.0,14.0,0.387
33.0,9.0,0.388
34.0,7.0,0.389
17.0,9.0,0.39
-1.0,10.0,0.391
-11.0,6.0,0.392
-22.0,2.0,0.393
-32.0,0.0,0.394
-29.0,-2.0,0.395
-15.0,-2.0,0.396
-3.0,2.0,0.397
-3.0,4.0,0.398
0.0,3.0,0.399
15.0,-2.0,0.4
22.0,-7.0,0.401
8.0,-7.0,0.402
-13.0,-9.0,0.403
-23.0,-14.0,0.404
-24.0,-15.0,0.405
-25.0,-7.0,0.406
-20.0,1.0,0.407
-6.0,3.0,0.408
2.0,-2.0,0.409
0.0,-3.0,0.41
2.0,1.0,0.411
15.0,4.0,0.412
31.0,4.0,0.413
41.0,5.0,0.414
47.0,8.0,0.415
44.0,9.0,0.416
29.0,8.0,0.417
2.0,1.0,0.418
-18.0,-5.0,0.419
-35.0,-11.0,0.42
-39.0,-13.0,0.421
-41.0,-14.0,0.422
-39.0,-10.0,0.423
-34.0,-7.0,0.424
-18.0,-7.0,0.425
-1.0,-5.0,0.426
16.0,1.0,0.427
32.0,6.0,0.428
40.0,3.0,0.429
42.0,2.0,0.43
26.0,6.0,0.431
14.0,9.0,0.432
12.0,5.0,0.433
11.0,2.0,0.434
11.0,10.0,0.435
9.0,14.0,0.436
3.0,8.0,0.437
-1.0,2.0,0.438
-4.0,0.0,0.439
-15.0,-3.0,0.44
-28.0,-13.0,0.441
-33.0,-21.0,0.442
-30.0,-19.0,0.443
-26.0,-9.0,0.444
-30.0,1.0,0.445
-32.0,7.0,0.446
-26.0,7.0,0.447
-14.0,0.0,0.448
-4.0,-8.0,0.449
0.0,-6.0,0.45
6.0,1.0,0.451
14.0,7.0,0.452
23.0,7.0,0.453
29.0,6.0,0.454
32.0,4.0,0.455
34.0,0.0,0.456
34.0,-2.0,0.457
32.0,-6.0,0.458
30.0,-8.0,0.459
22.0,-8.0,0.46
10.0,-12.0,0.461
2.0,-11.0,0.462
5.0,-9.0,0.463
11.0,-1.0,0.464
11.0,10.0,0.465
5.0,18.0,0.466
3.0,11.0,0.467
9.0,0.0,0.468
18.0,-4.0,0.469
23.0,6.0,0.47
25.0,16.0,0.471
25.0,13.0,0.472
23.0,4.0,0.473
13.0,4.0,0.474
-1.0,9.0,0.475
-10.0,11.0,0.476
-8.0,9.0,0.477
-7.0,3.0,0.478
-15.0,-3.0,0.479
-22.0,-11.0,0.48
-25.0,-21.0,0.481
-21.0,-21.0,0.482
7.0,-12.0,0.483
27.0,0.0,0.484
20.0,6.0,0.485
14.0,7.0,0.486
11.0,5.0,0.487
13.0,3.0,0.488
37.0,0.0,0.489
48.0,-3.0,0.49
22.0,-5.0,0.491
-5.0,-5.0,0.492
-34.0,-5.0,0.493
-55.0,-9.0,0.494
-53.0,-17.0,0.495
-52.0,-20.0,0.496
-50.0,-15.0,0.497
-46.0,-10.0,0.498
-34.0,-12.0,0.499
-25.0,-13.0,0.5
-23.0,-11.0,0.501
-20.0,-3.0,0.502
-4.0,-4.0,0.503
17.0,-8.0,0.504
24.0,-4.0,0.505
20.0,10.0,0.506
21.0,17.0,0.507
30.0,12.0,0.508
32.0,8.0,0.509
29.0,9.0,0.51
27.0,10.0,0.511
29.0,5.0,0.512
28.0,3.0,0.513
23.0,8.0,0.514
21.0,11.0,0.515
22.0,9.0,0.516
22.0,8.0,0.517
16.0,6.0,0.518
9.0,5.0,0.519
8.0,3.0,0.52
6.0,-1.0,0.521
3.0,-1.0,0.522
6.0,-1.0,0.523
11.0,-4.0,0.524
10.0,-5.0,0.525
1.0,-5.0,0.526
-3.0,-3.0,0.527
0.0,-3.0,0.528
0.0,-5.0,0.529
-7.0,-5.0,0.53
-13.0,-3.0,0.531
-7.0,0.0,0.532
0.0,3.0,0.533
-4.0,2.0,0.534
-17.0,-2.0,0.535
-25.0,-5.0,0.536
-18.0,-3.0,0.537
-8.0,0.0,0.538
3.0,-1.0,0.539
9.0,-4.0,0.54
11.0,-7.0,0.541
6.0,-6.0,0.542
0.0,-3.0,0.543
-4.0,-1.0,0.544
-9.0,3.0,0.545
-10.0,7.0,0.546
-8.0,7.0,0.547
-5.0,3.0,0.548
-9.0,-2.0,0.549
-14.0,-5.0,0.55
-13.0,-10.0,0.551
-6.0,-12.0,0.552
0.0,-10.0,0.553
-2.0,-3.0,0.554
-5.0,0.0,0.555
-5.0,-6.0,0.556
-4.0,-10.0,0.557
-3.0,-7.0,0.558
-1.0,-2.0,0.559
-1.0,-2.0,0.56
-6.0,-8.0,0.561
-7.0,-11.0,0.562
3.0,-11.0,0.563
12.0,-8.0,0.564
16.0,-3.0,0.565
21.0,5.0,0.566
29.0,14.0,0.567
35.0,17.0,0.568
30.0,15.0,0.569
23.0,10.0,0.57
12.0,4.0,0.571
4.0,0.0,0.572
6.0,2.0,0.573
8.0,13.0,0.574
6.0,17.0,0.575
3.0,9.0,0.576
-3.0,-3.0,0.577
-9.0,-12.0,0.578
-5.0,-13.0,0.579
5.0,-8.0,0.58
11.0,-3.0,0.581
7.0,0.0,0.582
7.0,-4.0,0.583
16.0,-9.0,0.584
23.0,-7.0,0.585
18.0,2.0,0.586
10.0,6.0,0.587
10.0,2.0,0.588
14.0,1.0,0.589
14.0,5.0,0.59
8.0,8.0,0.591
0.0,5.0,0.592
-6.0,3.0,0.593
-6.0,6.0,0.594
-1.0,6.0,0.595
3.0,1.0,0.596
0.0,0.0,0.597
-8.0,-3.0,0.598
-11.0,-3.0,0.599
-12.0,-4.0,0.6
-18.0,-8.0,0.601
-22.0,-6.0,0.602
-15.0,-2.0,0.603
0.0,2.0,0.604
2.0,5.0,0.605
-8.0,4.0,0.606
-10.0,-5.0,0.607
1.0,-13.0,0.608
13.0,-10.0,0.609
13.0,0.0,0.61
10.0,8.0,0.611
16.0,5.0,0.612
21.0,1.0,0.613
17.0,3.0,0.614
5.0,7.0,0.615
4.0,8.0,0.616
17.0,8.0,0.617
35.0,6.0,0.618
44.0,5.0,0.619
26.0,2.0,0.62
-11.0,-4.0,0.621
-38.0,-9.0,0.622
-35.0,-15.0,0.623
-18.0,-14.0,0.624
-11.0,-6.0,0.625
-19.0,4.0,0.626
-25.0,5.0,0.627
-22.0,-4.0,0.628
-19.0,-12.0,0.629
-18.0,-13.0,0.63
-9.0,-10.0,0.631
9.0,-9.0,0.632
26.0,-5.0,0.633
39.0,2.0,0.634
41.0,2.0,0.635
25.0,-3.0,0.636
3.0,-1.0,0.637
-10.0,10.0,0.638
-3.0,16.0,0.639
5.0,7.0,0.64
-1.0,-5.0,0.641
-15.0,0.0,0.642
-14.0,12.0,0.643
-2.0,13.0,0.644
9.0,9.0,0.645
14.0,10.0,0.646
18.0,15.0,0.647
11.0,13.0,0.648
-9.0,5.0,0.649
-26.0,1.0,0.65
-29.0,-3.0,0.651
-26.0,-9.0,0.652
-25.0,-10.0,0.653
-27.0,-7.0,0.654
-26.0,-11.0,0.655
-21.0,-28.0,0.656
-17.0,-37.0,0.657
-11.0,-30.0,0.658
1.0,-14.0,0.659
15.0,-8.0,0.66
24.0,-10.0,0.661
34.0,-3.0,0.662
45.0,7.0,0.663
52.0,9.0,0.664
49.0,6.0,0.665
36.0,7.0,0.666
23.0,12.0,0.667
18.0,11.0,0.668
17.0,9.0,0.669
15.0,12.0,0.67
7.0,18.0,0.671
0.0,13.0,0.672
-2.0,-1.0,0.673
0.0,-11.0,0.674
-1.0,-12.0,0.675
-1.0,-7.0,0.676
2.0,-1.0,0.677
5.0,-1.0,0.678
5.0,-6.0,0.679
1.0,-8.0,0.68
0.0,-7.0,0.681
3.0,0.0,0.682
7.0,0.0,0.683
7.0,-5.0,0.684
8.0,-5.0,0.685
11.0,2.0,0.686
14.0,10.0,0.687
16.0,7.0,0.688
14.0,1.0,0.689
7.0,1.0,0.69
0.0,6.0,0.691
0.0,10.0,0.692
7.0,10.0,0.693
14.0,9.0,0.694
14.0,8.0,0.695
6.0,2.0,0.696
0.0,-3.0,0.697
-4.0,-3.0,0.698
-9.0,-4.0,0.699
-19.0,-7.0,0.7
-32.0,-10.0,0.701
-40.0,-7.0,0.702
-36.0,0.0,0.703
-26.0,4.0,0.704
-16.0,3.0,0.705
-4.0,-1.0,0.706
7.0,-6.0,0.707
12.0,-4.0,0.708
12.0,2.0,0.709
15.0,7.0,0.71
26.0,3.0,0.711
38.0,-5.0,0.712
38.0,-6.0,0.713
28.0,-2.0,0.714
16.0,0.0,0.715
-1.0,-2.0,0.716
-16.0,-3.0,0.717
-28.0,0.0,0.718
-35.0,1.0,0.719
-44.0,0.0,0.72
-57.0,-5.0,0.721
-61.0,-7.0,0.722
-43.0,-6.0,0.723
-13.0,-3.0,0.724
6.0,1.0,0.725
10.0,4.0,0.726
15.0,2.0,0.727
27.0,-5.0,0.728
33.0,-10.0,0.729
26.0,-12.0,0.73
23.0,-8.0,0.731
30.0,-1.0,0.732
38.0,5.0,0.733
34.0,7.0,0.734
22.0,6.0,0.735
16.0,9.0,0.736
16.0,15.0,0.737
18.0,14.0,0.738
21.0,9.0,0.739
20.0,3.0,0.74
7.0,-6.0,0.741
-16.0,-17.0,0.742
-29.0,-29.0,0.743
-28.0,-31.0,0.744
-23.0,-19.0,0.745
-26.0,-5.0,0.746
-28.0,-1.0,0.747
-18.0,-4.0,0.748
-2.0,-3.0,0.749
6.0,7.0,0.75
11.0,15.0,0.751
22.0,13.0,0.752
36.0,9.0,0.753
43.0,9.0,0.754
40.0,9.0,0.755
28.0,6.0,0.756
15.0,2.0,0.757
4.0,0.0,0.758
12.0,-1.0,0.759
20.0,-4.0,0.76
10.0,-8.0,0.761
-16.0,-5.0,0.762
-32.0,-1.0,0.763
-27.0,0.0,0.764
-22.0,-2.0,0.765
-27.0,-4.0,0.766
-25.0,-1.0,0.767
-7.0,3.0,0.768
10.0,3.0,0.769
7.0,0.0,0.77
1.0,-5.0,0.771
8.0,-4.0,0.772
21.0,2.0,0.773
21.0,6.0,0.774
10.0,6.0,0.775
2.0,6.0,0.776
3.0,9.0,0.777
7.0,7.0,0.778
7.0,0.0,0.779
2.0,-5.0,0.78
-4.0,-8.0,0.781
-9.0,-7.0,0.782
-8.0,-7.0,0.783
2.0,-7.0,0.784
16.0,0.0,0.785
20.0,9.0,0.786
14.0,8.0,0.787
5.0,2.0,0.788
4.0,1.0,0.789
12.0,4.0,0.79
21.0,7.0,0.791
22.0,7.0,0.792
8.0,3.0,0.793
-10.0,-3.0,0.794
-20.0,-11.0,0.795
-16.0,-12.0,0.796
-3.0,-6.0,0.797
10.0,-1.0,0.798
12.0,-2.0,0.799
0.0,-6.0,0.8
-12.0,-6.0,0.801
-12.0,-3.0,0.802
-1.0,0.0,0.803
6.0,0.0,0.804
7.0,-2.0,0.805
12.0,-1.0,0.806
24.0,1.0,0.807
34.0,4.0,0.808
30.0,-1.0,0.809
14.0,-10.0,0.81
-4.0,-11.0,0.811
-18.0,0.0,0.812
-27.0,7.0,0.813
-32.0,0.0,0.814
-37.0,-8.0,0.815
-39.0,-6.0,0.816
-38.0,2.0,0.817
-37.0,4.0,0.818
-32.0,3.0,0.819
-22.0,4.0,0.82
-7.0,4.0,0.821
7.0,2.0,0.822
15.0,0.0,0.823
18.0,2.0,0.824
19.0,4.0,0.825
17.0,2.0,0.826
15.0,-3.0,0.827
16.0,-5.0,0.828
23.0,-5.0,0.829
28.0,-5.0,0.83
25.0,-4.0,0.831
20.0,0.0,0.832
18.0,4.0,0.833
18.0,1.0,0.834
19.0,-3.0,0.835
17.0,-3.0,0.836
14.0,0.0,0.837
9.0,-1.0,0.838
4.0,-2.0,0.839
3.0,-1.0,0.84
7.0,-3.0,0.841
11.0,-6.0,0.842
9.0,-6.0,0.843
6.0,0.0,0.844
4.0,9.0,0.845
5.0,11.0,0.846
9.0,6.0,0.847
14.0,3.0,0.848
15.0,5.0,0.849
12.0,7.0,0.85
4.0,7.0,0.851
-3.0,4.0,0.852
-8.0,4.0,0.853
-7.0,3.0,0.854
-7.0,-2.0,0.855
-12.0,-9.0,0.856
-17.0,-9.0,0.857
-15.0,-4.0,0.858
-10.0,3.0,0.859
-12.0,3.0,0.86
-16.0,-6.0,0.861
-14.0,-10.0,0.862
-2.0,-9.0,0.863
7.0,-9.0,0.864
8.0,-9.0,0.865
10.0,-6.0,0.866
20.0,0.0,0.867
36.0,1.0,0.868
52.0,2.0,0.869
65.0,6.0,0.87
69.0,12.0,0.871
63.0,9.0,0.872
49.0,1.0,0.873
28.0,-5.0,0.874
-2.0,-4.0,0.875
-41.0,-2.0,0.876
-73.0,-1.0,0.877
-93.0,-3.0,0.878
-98.0,-4.0,0.879
-97.0,-8.0,0.88
-83.0,-13.0,0.881
-49.0,-14.0,0.882
-2.0,-9.0,0.883
30.0,-1.0,0.884
31.0,7.0,0.885
15.0,14.0,0.886
7.0,18.0,0.887
11.0,16.0,0.888
12.0,10.0,0.889
2.0,8.0,0.89
-9.0,5.0,0.891
-19.0,-5.0,0.892
-32.0,-24.0,0.893
-38.0,-36.0,0.894
-18.0,-31.0,0.895
19.0,-16.0,0.896
45.0,-4.0,0.897
45.0,0.0,0.898
34.0,6.0,0.899
30.0,8.0,0.9
29.0,-1.0,0.901
21.0,-8.0,0.902
16.0,-6.0,0.903
20.0,5.0,0.904
22.0,13.0,0.905
14.0,14.0,0.906
5.0,11.0,0.907
11.0,8.0,0.908
20.0,5.0,0.909
19.0,6.0,0.91
16.0,8.0,0.911
20.0,8.0,0.912
25.0,7.0,0.913
22.0,5.0,0.914
17.0,4.0,0.915
17.0,2.0,0.916
21.0,1.0,0.917
19.0,-2.0,0.918
18.0,-4.0,0.919
16.0,-6.0,0.92
12.0,-10.0,0.921
-1.0,-7.0,0.922
-14.0,-2.0,0.923
-22.0,0.0,0.924
-25.0,2.0,0.925
-29.0,4.0,0.926
-36.0,5.0,0.927
-40.0,3.0,0.928
-40.0,-3.0,0.929
-31.0,-10.0,0.93
-20.0,-15.0,0.931
-9.0,-14.0,0.932
-1.0,-7.0,0.933
3.0,-1.0,0.934
5.0,1.0,0.935
8.0,0.0,0.936
9.0,0.0,0.937
10.0,-1.0,0.938
8.0,-7.0,0.939
4.0,-11.0,0.94
7.0,-10.0,0.941
15.0,-5.0,0.942
20.0,-3.0,0.943
22.0,-2.0,0.944
21.0,1.0,0.945
23.0,9.0,0.946
28.0,10.0,0.947
31.0,6.0,0.948
30.0,7.0,0.949
32.0,15.0,0.95
38.0,16.0,0.951
42.0,8.0,0.952
31.0,0.0,0.953
6.0,0.0,0.954
-21.0,0.0,0.955
-39.0,0.0,0.956
-49.0,3.0,0.957
-60.0,8.0,0.958
-62.0,11.0,0.959
-61.0,6.0,0.96
-47.0,-3.0,0.961
-31.0,-8.0,0.962
-12.0,-8.0,0.963
5.0,-5.0,0.964
20.0,-3.0,0.965
30.0,-1.0,0.966
24.0,0.0,0.967
18.0,-2.0,0.968
16.0,0.0,0.969
14.0,3.0,0.97
12.0,9.0,0.971
11.0,13.0,0.972
11.0,13.0,0.973
9.0,9.0,0.974
6.0,0.0,0.975
5.0,-11.0,0.976
10.0,-21.0,0.977
14.0,-29.0,0.978
3.0,-33.0,0.979
-5.0,-29.0,0.98
-7.0,-21.0,0.981
-12.0,-9.0,0.982
-20.0,-4.0,0.983
-23.0,-6.0,0.984
-18.0,-10.0,0.985
-10.0,-11.0,0.986
-3.0,-7.0,0.987
-1.0,-5.0,0.988
1.0,-5.0,0.989
8.0,-3.0,0.99
16.0,5.0,0.991
22.0,13.0,0.992
23.0,14.0,0.993
26.0,10.0,0.994
28.0,6.0,0.995
28.0,4.0,0.996
29.0,3.0,0.997
29.0,0.0,0.998
34.0,1.0,0.999
32.0,6.0,1.0
20.0,6.0,1.001
6.0,4.0,1.002
0.0,2.0,1.003
0.0,7.0,1.004
-5.0,10.0,1.005
-14.0,7.0,1.006
-17.0,1.0,1.007
-14.0,0.0,1.008
-15.0,6.0,1.009
-16.0,10.0,1.01
-6.0,8.0,1.011
10.0,1.0,1.012
18.0,-5.0,1.013
13.0,-8.0,1.014
8.0,-10.0,1.015
9.0,-9.0,1.016
8.0,-5.0,1.017
0.0,-1.0,1.018
-7.0,0.0,1.019
-11.0,0.0,1.02
-19.0,-5.0,1.021
-25.0,-7.0,1.022
-20.0,-6.0,1.023
2.0,-3.0,1.024
23.0,5.0,1.025
29.0,8.0,1.026
23.0,5.0,1.027
13.0,1.0,1.028
1.0,3.0,1.029
-6.0,6.0,1.03
-11.0,4.0,1.031
-13.0,-1.0,1.032
-14.0,-5.0,1.033
-16.0,-4.0,1.034
-16.0,-1.0,1.035
-11.0,2.0,1.036
-2.0,4.0,1.037
6.0,2.0,1.038
5.0,-1.0,1.039
-7.0,-3.0,1.04
-15.0,-6.0,1.041
-9.0,-6.0,1.042
9.0,-5.0,1.043
23.0,1.0,1.044
29.0,7.0,1.045
27.0,8.0,1.046
20.0,3.0,1.047
12.0,-1.0,1.048
7.0,-1.0,1.049
9.0,1.0,1.05
6.0,4.0,1.051
-6.0,1.0,1.052
-15.0,-5.0,1.053
-11.0,-11.0,1.054
0.0,-14.0,1.055
4.0,-15.0,1.056
2.0,-14.0,1.057
3.0,-14.0,1.058
6.0,-11.0,1.059
0.0,-3.0,1.06
-7.0,0.0,1.061
-5.0,-1.0,1.062
9.0,-4.0,1.063
18.0,0.0,1.064
11.0,9.0,1.065
-2.0,12.0,1.066
-8.0,9.0,1.067
-6.0,6.0,1.068
-4.0,7.0,1.069
-4.0,10.0,1.07
-4.0,9.0,1.071
-3.0,7.0,1.072
-4.0,5.0,1.073
-3.0,4.0,1.074
4.0,2.0,1.075
11.0,1.0,1.076
12.0,1.0,1.077
7.0,0.0,1.078
1.0,-2.0,1.079
1.0,-5.0,1.08
1.0,-11.0,1.081
2.0,-15.0,1.082
7.0,-12.0,1.083
13.0,-4.0,1.084
13.0,-1.0,1.085
8.0,-3.0,1.086
6.0,-4.0,1.087
10.0,-2.0,1.088
12.0,-2.0,1.089
7.0,-2.0,1.09
3.0,-1.0,1.091
5.0,0.0,1.092
7.0,0.0,1.093
4.0,-1.0,1.094
2.0,0.0,1.095
7.0,2.0,1.096
13.0,6.0,1.097
10.0,5.0,1.098
2.0,3.0,1.099
-2.0,-1.0,1.1
-4.0,-4.0,1.101
-1.0,-4.0,1.102
10.0,0.0,1.103
28.0,3.0,1.104
38.0,6.0,1.105
30.0,8.0,1.106
13.0,10.0,1.107
2.0,10.0,1.108
-2.0,8.0,1.109
-6.0,6.0,1.11
-14.0,4.0,1.111
-26.0,-2.0,1.112
-39.0,-10.0,1.113
-50.0,-18.0,1.114
-48.0,-24.0,1.115
-31.0,-23.0,1.116
-11.0,-16.0,1.117
-4.0,-10.0,1.118
-3.0,-5.0,1.119
-4.0,-5.0,1.12
0.0,-6.0,1.121
4.0,-2.0,1.122
9.0,1.0,1.123
17.0,4.0,1.124
24.0,7.0,1.125
31.0,12.0,1.126
39.0,12.0,1.127
47.0,9.0,1.128
43.0,6.0,1.129
26.0,8.0,1.13
7.0,9.0,1.131
4.0,8.0,1.132
11.0,7.0,1.133
11.0,9.0,1.134
4.0,10.0,1.135
-7.0,8.0,1.136
-16.0,1.0,1.137
-24.0,-8.0,1.138
-25.0,-15.0,1.139
-24.0,-16.0,1.14
-23.0,-17.0,1.141
-27.0,-18.0,1.142
-27.0,-20.0,1.143
-17.0,-17.0,1.144
-9.0,-7.0,1.145
-12.0,4.0,1.146
-18.0,5.0,1.147
-17.0,-1.0,1.148
-13.0,-2.0,1.149
-13.0,5.0,1.15
-11.0,9.0,1.151
-2.0,7.0,1.152
11.0,3.0,1.153
17.0,5.0,1.154
19.0,8.0,1.155
22.0,7.0,1.156
28.0,6.0,1.157
30.0,4.0,1.158
27.0,2.0,1.159
20.0,-3.0,1.16
11.0,-13.0,1.161
4.0,-15.0,1.162
5.0,-9.0,1.163
13.0,-1.0,1.164
14.0,1.0,1.165
9.0,-1.0,1.166
6.0,0.0,1.167
10.0,5.0,1.168
10.0,7.0,1.169
4.0,3.0,1.17
6.0,1.0,1.171
16.0,6.0,1.172
22.0,11.0,1.173
14.0,8.0,1.174
3.0,-1.0,1.175
3.0,-6.0,1.176
12.0,-3.0,1.177
17.0,2.0,1.178
16.0,5.0,1.179
8.0,2.0,1.18
-3.0,-8.0,1.181
-12.0,-14.0,1.182
-10.0,-13.0,1.183
-3.0,-9.0,1.184
-3.0,-8.0,1.185
-11.0,-9.0,1.186
-15.0,-8.0,1.187
-9.0,-2.0,1.188
-3.0,3.0,1.189
0.0,4.0,1.19
8.0,3.0,1.191
23.0,3.0,1.192
30.0,4.0,1.193
19.0,3.0,1.194
3.0,1.0,1.195
-2.0,1.0,1.196
4.0,4.0,1.197
-3.0,6.0,1.198
-3.0,7.0,1.199
-2.0,9.0,1.2
0.0,3.0,1.201
6.0,1.0,1.202
18.0,0.0,1.203
27.0,-1.0,1.204
25.0,-4.0,1.205
22.0,-4.0,1.206
18.0,-4.0,1.207
14.0,-6.0,1.208
14.0,-7.0,1.209
11.0,-4.0,1.21
3.0,0.0,1.211
-4.0,0.0,1.212
-4.0,-4.0,1.213
-5.0,-4.0,1.214
-8.0,-1.0,1.215
-9.0,1.0,1.216
-1.0,1.0,1.217
-3.0,-2.0,1.218
-3.0,-3.0,1.219
-2.0,-3.0,1.22
0.0,-7.0,1.221
6.0,-7.0,1.222
18.0,-5.0,1.223
26.0,2.0,1.224
24.0,11.0,1.225
22.0,12.0,1.226
18.0,9.0,1.227
14.0,3.0,1.228
14.0,3.0,1.229
11.0,1.0,1.23
3.0,-2.0,1.231
-4.0,-5.0,1.232
-4.0,-4.0,1.233
-5.0,-5.0,1.234
-8.0,-7.0,1.235
-9.0,-7.0,1.236
-1.0,0.0,1.237
7.0,4.0,1.238
4.0,0.0,1.239
-2.0,-7.0,1.24
0.0,-11.0,1.241
9.0,-7.0,1.242
21.0,0.0,1.243
27.0,3.0,1.244
25.0,4.0,1.245
15.0,2.0,1.246
5.0,-3.0,1.247
2.0,-6.0,1.248
2.0,-2.0,1.249
4.0,6.0,1.25
10.0,8.0,1.251
14.0,4.0,1.252
9.0,-1.0,1.253
-5.0,-2.0,1.254
-16.0,-4.0,1.255
-18.0,-5.0,1.256
-16.0,-4.0,1.257
-19.0,0.0,1.258
-23.0,1.0,1.259
-24.0,-1.0,1.26
-22.0,-8.0,1.261
-20.0,-10.0,1.262
-12.0,-6.0,1.263
0.0,1.0,1.264
11.0,7.0,1.265
16.0,9.0,1.266
22.0,7.0,1.267
32.0,3.0,1.268
37.0,2.0,1.269
32.0,3.0,1.27
22.0,4.0,1.271
17.0,1.0,1.272
15.0,0.0,1.273
10.0,4.0,1.274
5.0,8.0,1.275
0.0,6.0,1.276
-4.0,1.0,1.277
-17.0,-4.0,1.278
-34.0,-4.0,1.279
-47.0,-6.0,1.28
-47.0,-10.0,1.281
-34.0,-8.0,1.282
-17.0,-3.0,1.283
-2.0,2.0,1.284
1.0,3.0,1.285
1.0,1.0,1.286
9.0,-4.0,1.287
27.0,-8.0,1.288
39.0,-4.0,1.289
34.0,6.0,1.29
20.0,8.0,1.291
14.0,0.0,1.292
15.0,-6.0,1.293
10.0,-6.0,1.294
2.0,-6.0,1.295
-1.0,-8.0,1.296
2.0,-6.0,1.297
0.0,0.0,1.298
-5.0,1.0,1.299
-7.0,-5.0,1.3
-3.0,-12.0,1.301
2.0,-6.0,1.302
7.0,0.0,1.303
16.0,5.0,1.304
25.0,7.0,1.305
25.0,9.0,1.306
19.0,11.0,1.307
12.0,10.0,1.308
9.0,9.0,1.309
5.0,8.0,1.31
1.0,3.0,1.311
0.0,-2.0,1.312
-2.0,-3.0,1.313
-8.0,-2.0,1.314
-14.0,-5.0,1.315
-14.0,-7.0,1.316
-9.0,-1.0,1.317
-8.0,4.0,1.318
-9.0,1.0,1.319
-11.0,-7.0,1.32
-13.0,-13.0,1.321
-11.0,-10.0,1.322
-2.0,-5.0,1.323
12.0,-2.0,1.324
20.0,0.0,1.325
16.0,1.0,1.326
8.0,0.0,1.327
7.0,-1.0,1.328
12.0,-2.0,1.329
18.0,0.0,1.33
27.0,1.0,1.331
36.0,1.0,1.332
37.0,2.0,1.333
28.0,6.0,1.334
16.0,6.0,1.335
4.0,4.0,1.336
-4.0,5.0,1.337
-18.0,8.0,1.338
-34.0,9.0,1.339
-48.0,0.0,1.34
-55.0,-17.0,1.341
-54.0,-30.0,1.342
-45.0,-36.0,1.343
-32.0,-29.0,1.344
-22.0,-12.0,1.345
-14.0,2.0,1.346
-6.0,4.0,1.347
7.0,-3.0,1.348
19.0,-3.0,1.349
23.0,4.0,1.35
26.0,12.0,1.351
26.0,11.0,1.352
24.0,7.0,1.353
21.0,7.0,1.354
20.0,10.0,1.355
22.0,11.0,1.356
19.0,9.0,1.357
15.0,4.0,1.358
12.0,0.0,1.359
13.0,-4.0,1.36
17.0,-5.0,1.361
21.0,0.0,1.362
27.0,0.0,1.363
30.0,-3.0,1.364
21.0,-4.0,1.365
5.0,1.0,1.366
-2.0,8.0,1.367
4.0,7.0,1.368
6.0,2.0,1.369
-8.0,0.0,1.37
-27.0,0.0,1.371
-30.0,2.0,1.372
-19.0,5.0,1.373
-10.0,8.0,1.374
-7.0,9.0,1.375
-5.0,6.0,1.376
0.0,6.0,1.377
8.0,4.0,1.378
19.0,0.0,1.379
25.0,-4.0,1.38
20.0,-5.0,1.381
2.0,-1.0,1.382
-13.0,-3.0,1.383
-13.0,-8.0,1.384
-11.0,-11.0,1.385
-18.0,-10.0,1.386
-26.0,-9.0,1.387
-26.0,-10.0,1.388
-21.0,-7.0,1.389
-22.0,0.0,1.39
-21.0,1.0,1.391
-10.0,-5.0,1.392
5.0,-9.0,1.393
9.0,-6.0,1.394
4.0,0.0,1.395
6.0,0.0,1.396
15.0,2.0,1.397
20.0,4.0,1.398
19.0,6.0,1.399
19.0,3.0,1.4
21.0,-5.0,1.401
25.0,-8.0,1.402
30.0,-3.0,1.403
35.0,0.0,1.404
30.0,0.0,1.405
15.0,-2.0,1.406
3.0,-3.0,1.407
4.0,-2.0,1.408
8.0,0.0,1.409
6.0,5.0,1.41
6.0,10.0,1.411
9.0,8.0,1.412
7.0,2.0,1.413
6.0,-2.0,1.414
13.0,1.0,1.415
21.0,8.0,1.416
19.0,12.0,1.417
5.0,8.0,1.418
1.0,4.0,1.419
4.0,2.0,1.42
-1.0,-2.0,1.421
-18.0,-8.0,1.422
-24.0,-13.0,1.423
-13.0,-13.0,1.424
-6.0,-9.0,1.425
-15.0,-3.0,1.426
-20.0,-3.0,1.427
-11.0,-3.0,1.428
0.0,-3.0,1.429
-2.0,-1.0,1.43
-7.0,0.0,1.431
-4.0,-2.0,1.432
-1.0,-3.0,1.433
-4.0,-1.0,1.434
-6.0,1.0,1.435
0.0,0.0,1.436
11.0,-2.0,1.437
12.0,-3.0,1.438
13.0,3.0,1.439
16.0,9.0,1.44
18.0,6.0,1.441
14.0,2.0,1.442
16.0,1.0,1.443
21.0,3.0,1.444
18.0,6.0,1.445
0.0,2.0,1.446
-18.0,-6.0,1.447
-22.0,-11.0,1.448
-18.0,-9.0,1.449
-19.0,-3.0,1.45
-22.0,-2.0,1.451
-18.0,-7.0,1.452
-10.0,-11.0,1.453
-2.0,-7.0,1.454
4.0,1.0,1.455
8.0,6.0,1.456
10.0,9.0,1.457
9.0,6.0,1.458
10.0,2.0,1.459
10.0,-3.0,1.46
8.0,-6.0,1.461
6.0,-4.0,1.462
11.0,-3.0,1.463
14.0,-4.0,1.464
13.0,0.0,1.465
9.0,6.0,1.466
10.0,8.0,1.467
15.0,2.0,1.468
15.0,-1.0,1.469
8.0,5.0,1.47
4.0,8.0,1.471
6.0,1.0,1.472
7.0,-3.0,1.473
6.0,1.0,1.474
4.0,9.0,1.475
7.0,6.0,1.476
7.0,-3.0,1.477
3.0,-9.0,1.478
0.0,-6.0,1.479
-4.0,0.0,1.48
-7.0,-3.0,1.481
-7.0,-7.0,1.482
-2.0,-6.0,1.483
7.0,-3.0,1.484
10.0,0.0,1.485
3.0,-1.0,1.486
-2.0,-4.0,1.487
-2.0,-7.0,1.488
0.0,-7.0,1.489
3.0,-1.0,1.49
6.0,6.0,1.491
8.0,5.0,1.492
5.0,0.0,1.493
-1.0,-1.0,1.494
-3.0,0.0,1.495
0.0,0.0,1.496
4.0,-2.0,1.497
3.0,-3.0,1.498
1.0,-1.0,1.499
-1.0,0.0,1.5
-2.0,-1.0,1.501
-2.0,-1.0,1.502
2.0,0.0,1.503
7.0,3.0,1.504
8.0,6.0,1.505
3.0,8.0,1.506
-2.0,5.0,1.507
-5.0,1.0,1.508
-9.0,-2.0,1.509
-12.0,-4.0,1.51
-8.0,-4.0,1.511
-1.0,-4.0,1.512
5.0,-2.0,1.513
7.0,2.0,1.514
12.0,1.0,1.515
18.0,-3.0,1.516
24.0,-6.0,1.517
24.0,-4.0,1.518
23.0,-2.0,1.519
17.0,-6.0,1.52
5.0,-11.0,1.521
-2.0,-7.0,1.522
5.0,0.0,1.523
15.0,7.0,1.524
10.0,10.0,1.525
-7.0,11.0,1.526
-21.0,6.0,1.527
-25.0,-3.0,1.528
-31.0,-7.0,1.529
-36.0,0.0,1.53
-32.0,10.0,1.531
-18.0,9.0,1.532
-8.0,2.0,1.533
-8.0,0.0,1.534
-9.0,4.0,1.535
-6.0,4.0,1.536
-2.0,-6.0,1.537
-5.0,-20.0,1.538
-8.0,-26.0,1.539
-4.0,-21.0,1.54
5.0,-15.0,1.541
15.0,-7.0,1.542
22.0,-2.0,1.543
26.0,0.0,1.544
24.0,2.0,1.545
13.0,2.0,1.546
1.0,4.0,1.547
0.0,3.0,1.548
7.0,1.0,1.549
12.0,0.0,1.55
14.0,6.0,1.551
13.0,12.0,1.552
10.0,12.0,1.553
9.0,10.0,1.554
15.0,11.0,1.555
23.0,12.0,1.556
26.0,10.0,1.557
21.0,-2.0,1.558
14.0,-13.0,1.559
11.0,-17.0,1.56
15.0,-14.0,1.561
23.0,-8.0,1.562
32.0,-6.0,1.563
32.0,-6.0,1.564
15.0,-3.0,1.565
-6.0,4.0,1.566
-12.0,9.0,1.567
-8.0,10.0,1.568
-12.0,10.0,1.569
-25.0,10.0,1.57
-38.0,8.0,1.571
-41.0,5.0,1.572
-41.0,5.0,1.573
-36.0,5.0,1.574
-20.0,1.0,1.575
7.0,-6.0,1.576
28.0,-6.0,1.577
38.0,-4.0,1.578
43.0,-1.0,1.579
44.0,-3.0,1.58
33.0,-6.0,1.581
15.0,0.0,1.582
3.0,8.0,1.583
0.0,9.0,1.584
-9.0,6.0,1.585
-23.0,4.0,1.586
-32.0,1.0,1.587
-29.0,-5.0,1.588
-23.0,-10.0,1.589
-19.0,-12.0,1.59
-13.0,-9.0,1.591
-3.0,-3.0,1.592
6.0,2.0,1.593
13.0,5.0,1.594
17.0,5.0,1.595
18.0,1.0,1.596
17.0,0.0,1.597
17.0,-3.0,1.598
25.0,-3.0,1.599
30.0,-1.0,1.6
23.0,-2.0,1.601
12.0,-3.0,1.602
10.0,-5.0,1.603
12.0,-6.0,1.604
4.0,-5.0,1.605
-15.0,-6.0,1.606
-21.0,-10.0,1.607
-13.0,-17.0,1.608
-6.0,-17.0,1.609
-13.0,-12.0,1.61
-22.0,-7.0,1.611
-20.0,-7.0,1.612
-11.0,-9.0,1.613
-3.0,-9.0,1.614
2.0,-9.0,1.615
5.0,-9.0,1.616
8.0,-1.0,1.617
10.0,5.0,1.618
11.0,4.0,1.619
7.0,0.0,1.62
3.0,-1.0,1.621
2.0,3.0,1.622
10.0,3.0,1.623
17.0,1.0,1.624
18.0,7.0,1.625
18.0,15.0,1.626
22.0,16.0,1.627
26.0,8.0,1.628
21.0,2.0,1.629
6.0,5.0,1.63
-2.0,7.0,1.631
-2.0,5.0,1.632
-1.0,4.0,1.633
-4.0,7.0,1.634
-7.0,9.0,1.635
-7.0,9.0,1.636
-4.0,10.0,1.637
-3.0,8.0,1.638
-2.0,5.0,1.639
1.0,2.0,1.64
10.0,-1.0,1.641
17.0,-2.0,1.642
16.0,-2.0,1.643
9.0,-5.0,1.644
1.0,-7.0,1.645
1.0,-6.0,1.646
1.0,-2.0,1.647
-2.0,0.0,1.648
-9.0,-1.0,1.649
-13.0,-1.0,1.65
-12.0,0.0,1.651
-7.0,-1.0,1.652
-4.0,-6.0,1.653
-2.0,-9.0,1.654
0.0,-8.0,1.655
1.0,-1.0,1.656
2.0,8.0,1.657
3.0,10.0,1.658
3.0,6.0,1.659
1.0,-2.0,1.66
-4.0,-9.0,1.661
-6.0,-9.0,1.662
-4.0,-6.0,1.663
-2.0,-6.0,1.664
-1.0,-6.0,1.665
0.0,-2.0,1.666
4.0,4.0,1.667
10.0,6.0,1.668
13.0,2.0,1.669
12.0,-1.0,1.67
8.0,-2.0,1.671
3.0,-3.0,1.672
0.0,-4.0,1.673
-1.0,0.0,1.674
1.0,5.0,1.675
5.0,6.0,1.676
8.0,1.0,1.677
3.0,-6.0,1.678
-2.0,-7.0,1.679
1.0,-4.0,1.68
11.0,-5.0,1.681
19.0,-6.0,1.682
19.0,-7.0,1.683
19.0,-5.0,1.684
19.0,0.0,1.685
21.0,5.0,1.686
23.0,9.0,1.687
18.0,9.0,1.688
4.0,9.0,1.689
-14.0,9.0,1.69
-25.0,10.0,1.691
-28.0,9.0,1.692
-31.0,6.0,1.693
-38.0,4.0,1.694
-37.0,-1.0,1.695
-26.0,-7.0,1.696
-18.0,-12.0,1.697
-19.0,-18.0,1.698
-19.0,-19.0,1.699
-8.0,-14.0,1.7
7.0,-8.0,1.701
14.0,-3.0,1.702
13.0,-3.0,1.703
16.0,-3.0,1.704
23.0,1.0,1.705
24.0,8.0,1.706
21.0,9.0,1.707
21.0,6.0,1.708
22.0,6.0,1.709
20.0,9.0,1.71
16.0,7.0,1.711
15.0,2.0,1.712
15.0,3.0,1.713
10.0,6.0,1.714
5.0,0.0,1.715
9.0,-9.0,1.716
16.0,-12.0,1.717
20.0,-9.0,1.718
12.0,-5.0,1.719
-2.0,-5.0,1.72
-10.0,-7.0,1.721
-10.0,-6.0,1.722
-2.0,-1.0,1.723
5.0,3.0,1.724
3.0,4.0,1.725
-8.0,5.0,1.726
-16.0,3.0,1.727
-14.0,2.0,1.728
-6.0,0.0,1.729
-5.0,0.0,1.73
-6.0,-1.0,1.731
-4.0,-2.0,1.732
-3.0,-3.0,1.733
-5.0,-4.0,1.734
-6.0,-2.0,1.735
-2.0,1.0,1.736
7.0,4.0,1.737
13.0,3.0,1.738
14.0,0.0,1.739
13.0,-4.0,1.74
11.0,-7.0,1.741
7.0,-5.0,1.742
5.0,-3.0,1.743
6.0,0.0,1.744
7.0,0.0,1.745
3.0,2.0,1.746
-1.0,3.0,1.747
1.0,2.0,1.748
10.0,3.0,1.749
15.0,4.0,1.75
12.0,2.0,1.751
5.0,0.0,1.752
2.0,0.0,1.753
1.0,3.0,1.754
2.0,3.0,1.755
4.0,1.0,1.756
3.0,2.0,1.757
-3.0,3.0,1.758
-7.0,4.0,1.759
-8.0,2.0,1.76
-4.0,-5.0,1.761
0.0,-8.0,1.762
5.0,-8.0,1.763
11.0,-6.0,1.764
18.0,-2.0,1.765
18.0,-1.0,1.766
12.0,-3.0,1.767
2.0,-4.0,1.768
-5.0,0.0,1.769
-6.0,7.0,1.77
-7.0,10.0,1.771
-9.0,6.0,1.772
-5.0,0.0,1.773
3.0,-6.0,1.774
5.0,-11.0,1.775
-2.0,-13.0,1.776
-12.0,-9.0,1.777
-16.0,-2.0,1.778
-10.0,0.0,1.779
-8.0,-3.0,1.78
-9.0,-5.0,1.781
-9.0,-1.0,1.782
-4.0,2.0,1.783
1.0,2.0,1.784
2.0,2.0,1.785
6.0,3.0,1.786
16.0,-1.0,1.787
25.0,-4.0,1.788
25.0,-2.0,1.789
18.0,2.0,1.79
13.0,3.0,1.791
16.0,1.0,1.792
21.0,3.0,1.793
25.0,7.0,1.794
23.0,8.0,1.795
12.0,4.0,1.796
0.0,0.0,1.797
-7.0,-3.0,1.798
-11.0,-7.0,1.799
-16.0,-8.0,1.8
-22.0,-5.0,1.801
-24.0,0.0,1.802
-18.0,-1.0,1.803
-8.0,-4.0,1.804
-4.0,-2.0,1.805
-4.0,4.0,1.806
-1.0,2.0,1.807
6.0,-3.0,1.808
12.0,-1.0,1.809
9.0,5.0,1.81
0.0,8.0,1.811
-5.0,4.0,1.812
-3.0,0.0,1.813
-3.0,-2.0,1.814
-8.0,-3.0,1.815
-11.0,-3.0,1.816
-3.0,-1.0,1.817
9.0,-5.0,1.818
13.0,-11.0,1.819
6.0,-13.0,1.82
1.0,-7.0,1.821
6.0,0.0,1.822
16.0,0.0,1.823
22.0,-5.0,1.824
20.0,-5.0,1.825
15.0,1.0,1.826
15.0,7.0,1.827
18.0,6.0,1.828
18.0,5.0,1.829
14.0,5.0,1.83
6.0,3.0,1.831
4.0,-2.0,1.832
9.0,-5.0,1.833
12.0,0.0,1.834
15.0,6.0,1.835
19.0,10.0,1.836
28.0,9.0,1.837
33.0,5.0,1.838
28.0,1.0,1.839
15.0,2.0,1.84
3.0,0.0,1.841
0.0,1.0,1.842
4.0,4.0,1.843
3.0,5.0,1.844
-10.0,-1.0,1.845
-30.0,-9.0,1.846
-46.0,-13.0,1.847
-47.0,-10.0,1.848
-40.0,-7.0,1.849
-31.0,-6.0,1.85
-23.0,-8.0,1.851
-12.0,-8.0,1.852
-5.0,-3.0,1.853
-5.0,1.0,1.854
-6.0,4.0,1.855
-4.0,3.0,1.856
0.0,5.0,1.857
-2.0,6.0,1.858
-3.0,4.0,1.859
-3.0,1.0,1.86
-3.0,-5.0,1.861
-1.0,-9.0,1.862
9.0,-9.0,1.863
21.0,-4.0,1.864
22.0,3.0,1.865
17.0,8.0,1.866
16.0,6.0,1.867
24.0,2.0,1.868
30.0,-1.0,1.869
32.0,-1.0,1.87
36.0,-3.0,1.871
39.0,-5.0,1.872
30.0,-1.0,1.873
15.0,5.0,1.874
9.0,9.0,1.875
23.0,10.0,1.876
39.0,11.0,1.877
38.0,11.0,1.878
24.0,5.0,1.879
-3.0,-5.0,1.88
-33.0,-13.0,1.881
-53.0,-14.0,1.882
-54.0,-10.0,1.883
-46.0,-9.0,1.884
-47.0,-11.0,1.885
-57.0,-11.0,1.886
-58.0,-10.0,1.887
-44.0,-11.0,1.888
-27.0,-9.0,1.889
-18.0,-3.0,1.89
-7.0,5.0,1.891
11.0,7.0,1.892
25.0,5.0,1.893
28.0,5.0,1.894
25.0,8.0,1.895
23.0,5.0,1.896
27.0,1.0,1.897
28.0,-3.0,1.898
23.0,1.0,1.899
19.0,6.0,1.9
19.0,3.0,1.901
21.0,-1.0,1.902
23.0,-3.0,1.903
22.0,-2.0,1.904
17.0,0.0,1.905
10.0,1.0,1.906
6.0,3.0,1.907
10.0,4.0,1.908
10.0,1.0,1.909
8.0,-1.0,1.91
3.0,-4.0,1.911
2.0,-7.0,1.912
2.0,-8.0,1.913
3.0,-4.0,1.914
4.0,2.0,1.915
4.0,6.0,1.916
5.0,8.0,1.917
1.0,7.0,1.918
-5.0,8.0,1.919
-13.0,6.0,1.92
-13.0,-1.0,1.921
-4.0,-4.0,1.922
12.0,-3.0,1.923
22.0,-2.0,1.924
25.0,0.0,1.925
23.0,4.0,1.926
20.0,5.0,1.927
13.0,-1.0,1.928
-7.0,-10.0,1.929
-28.0,-12.0,1.93
-37.0,-11.0,1.931
-35.0,-9.0,1.932
-29.0,-8.0,1.933
-26.0,-9.0,1.934
-17.0,-7.0,1.935
-1.0,-4.0,1.936
14.0,-1.0,1.937
19.0,2.0,1.938
11.0,4.0,1.939
-5.0,1.0,1.94
-19.0,-6.0,1.941
-21.0,-9.0,1.942
-9.0,-6.0,1.943
4.0,-1.0,1.944
8.0,2.0,1.945
4.0,6.0,1.946
8.0,7.0,1.947
18.0,3.0,1.948
23.0,-3.0,1.949
19.0,-3.0,1.95
16.0,1.0,1.951
18.0,4.0,1.952
20.0,4.0,1.953
17.0,6.0,1.954
11.0,8.0,1.955
8.0,8.0,1.956
12.0,6.0,1.957
11.0,3.0,1.958
3.0,1.0,1.959
-10.0,-2.0,1.96
-22.0,-8.0,1.961
-24.0,-9.0,1.962
-19.0,-5.0,1.963
-10.0,-1.0,1.964
-3.0,0.0,1.965
-2.0,2.0,1.966
-4.0,2.0,1.967
-5.0,0.0,1.968
0.0,-1.0,1.969
11.0,0.0,1.97
21.0,4.0,1.971
27.0,4.0,1.972
27.0,3.0,1.973
22.0,1.0,1.974
13.0,-1.0,1.975
4.0,-5.0,1.976
2.0,-7.0,1.977
-1.0,-8.0,1.978
-6.0,-5.0,1.979
-16.0,-5.0,1.98
-20.0,-10.0,1.981
-18.0,-10.0,1.982
-11.0,-6.0,1.983
-1.0,-1.0,1.984
10.0,0.0,1.985
18.0,3.0,1.986
21.0,6.0,1.987
20.0,6.0,1.988
17.0,6.0,1.989
16.0,6.0,1.99
18.0,6.0,1.991
16.0,3.0,1.992
8.0,0.0,1.993
-2.0,-1.0,1.994
-8.0,-2.0,1.995
-12.0,-4.0,1.996
-14.0,-3.0,1.997
-16.0,0.0,1.998
-15.0,1.0,1.999
-14.0,-1.0,2.0
-14.0,-7.0,2.001
-10.0,-5.0,2.002
5.0,1.0,2.003
21.0,2.0,2.004
25.0,-2.0,2.005
15.0,-10.0,2.006
7.0,-12.0,2.007
16.0,-8.0,2.008
25.0,-1.0,2.009
21.0,8.0,2.01
6.0,10.0,2.011
-3.0,6.0,2.012
-9.0,1.0,2.013
-15.0,0.0,2.014
-17.0,2.0,2.015
-11.0,2.0,2.016
-3.0,0.0,2.017
-1.0,-6.0,2.018
-2.0,-12.0,2.019
0.0,-17.0,2.02
-2.0,-16.0,2.021
-9.0,-9.0,2.022
-13.0,-4.0,2.023
-5.0,-4.0,2.024
1.0,-6.0,2.025
-3.0,-1.0,2.026
-12.0,4.0,2.027
-11.0,6.0,2.028
-3.0,3.0,2.029
2.0,3.0,2.03
6.0,4.0,2.031
14.0,4.0,2.032
19.0,5.0,2.033
17.0,6.0,2.034
13.0,6.0,2.035
13.0,3.0,2.036
15.0,0.0,2.037
11.0,0.0,2.038
7.0,0.0,2.039
7.0,-2.0,2.04
5.0,-8.0,2.041
2.0,-9.0,2.042
6.0,-6.0,2.043
18.0,0.0,2.044
24.0,6.0,2.045
19.0,10.0,2.046
12.0,8.0,2.047
12.0,2.0,2.048
8.0,0.0,2.049
-1.0,2.0,2.05
-8.0,7.0,2.051
-5.0,5.0,2.052
-2.0,1.0,2.053
-5.0,-1.0,2.054
-12.0,-3.0,2.055
-13.0,-2.0,2.056
-9.0,-2.0,2.057
-8.0,-6.0,2.058
-6.0,-8.0,2.059
-5.0,-9.0,2.06
-7.0,-9.0,2.061
-7.0,-6.0,2.062
0.0,-3.0,2.063
6.0,0.0,2.064
6.0,1.0,2.065
6.0,5.0,2.066
7.0,8.0,2.067
8.0,5.0,2.068
10.0,-2.0,2.069
14.0,-4.0,2.07
21.0,-1.0,2.071
26.0,3.0,2.072
20.0,4.0,2.073
13.0,3.0,2.074
0.0,2.0,2.075
-10.0,2.0,2.076
-9.0,1.0,2.077
-10.0,1.0,2.078
-13.0,0.0,2.079
-16.0,0.0,2.08
-19.0,-4.0,2.081
-21.0,-7.0,2.082
-16.0,-8.0,2.083
-5.0,-5.0,2.084
-2.0,-3.0,2.085
-8.0,-2.0,2.086
-10.0,-2.0,2.087
0.0,-2.0,2.088
6.0,-6.0,2.089
4.0,-8.0,2.09
2.0,-8.0,2.091
8.0,-2.0,2.092
13.0,2.0,2.093
10.0,5.0,2.094
7.0,4.0,2.095
10.0,3.0,2.096
12.0,1.0,2.097
7.0,2.0,2.098
3.0,4.0,2.099
2.0,3.0,2.1
-1.0,-4.0,2.101
-4.0,-8.0,2.102
2.0,-7.0,2.103
16.0,-2.0,2.104
20.0,0.0,2.105
14.0,1.0,2.106
11.0,4.0,2.107
13.0,6.0,2.108
12.0,5.0,2.109
6.0,5.0,2.11
10.0,7.0,2.111
23.0,10.0,2.112
25.0,9.0,2.113
11.0,8.0,2.114
-5.0,7.0,2.115
-10.0,5.0,2.116
-9.0,2.0,2.117
-12.0,-5.0,2.118
-13.0,-8.0,2.119
-15.0,-8.0,2.12
-23.0,-13.0,2.121
-35.0,-18.0,2.122
-36.0,-21.0,2.123
-19.0,-17.0,2.124
-3.0,-8.0,2.125
3.0,0.0,2.126
5.0,3.0,2.127
11.0,0.0,2.128
12.0,-1.0,2.129
8.0,1.0,2.13
7.0,6.0,2.131
15.0,6.0,2.132
24.0,5.0,2.133
25.0,6.0,2.134
17.0,7.0,2.135
10.0,4.0,2.136
7.0,-1.0,2.137
0.0,-4.0,2.138
-4.0,-2.0,2.139
-9.0,-1.0,2.14
-11.0,-7.0,2.141
-11.0,-11.0,2.142
-6.0,-8.0,2.143
1.0,0.0,2.144
5.0,5.0,2.145
2.0,5.0,2.146
-2.0,0.0,2.147
-1.0,-4.0,2.148
4.0,-4.0,2.149
7.0,0.0,2.15
9.0,5.0,2.151
13.0,5.0,2.152
15.0,3.0,2.153
9.0,3.0,2.154
1.0,4.0,2.155
-1.0,5.0,2.156
2.0,5.0,2.157
2.0,1.0,2.158
-2.0,-6.0,2.159
-3.0,-12.0,2.16
0.0,-16.0,2.161
7.0,-11.0,2.162
10.0,-5.0,2.163
9.0,-4.0,2.164
5.0,-2.0,2.165
5.0,3.0,2.166
9.0,7.0,2.167
14.0,8.0,2.168
12.0,3.0,2.169
4.0,1.0,2.17
1.0,4.0,2.171
4.0,7.0,2.172
10.0,5.0,2.173
13.0,0.0,2.174
14.0,-4.0,2.175
10.0,-4.0,2.176
3.0,0.0,2.177
-7.0,0.0,2.178
-16.0,-2.0,2.179
-16.0,-7.0,2.18
-11.0,-9.0,2.181
-7.0,-6.0,2.182
-2.0,-1.0,2.183
4.0,2.0,2.184
9.0,4.0,2.185
10.0,6.0,2.186
12.0,5.0,2.187
14.0,4.0,2.188
11.0,5.0,2.189
4.0,9.0,2.19
-2.0,10.0,2.191
-6.0,6.0,2.192
-13.0,2.0,2.193
-18.0,1.0,2.194
-13.0,1.0,2.195
0.0,0.0,2.196
11.0,2.0,2.197
9.0,1.0,2.198
4.0,0.0,2.199
5.0,-4.0,2.2
9.0,-10.0,2.201
6.0,-11.0,2.202
2.0,-8.0,2.203
6.0,-2.0,2.204
15.0,3.0,2.205
17.0,2.0,2.206
6.0,-1.0,2.207
-3.0,-6.0,2.208
-6.0,-6.0,2.209
-4.0,-2.0,2.21
-2.0,0.0,2.211
0.0,0.0,2.212
1.0,0.0,2.213
0.0,0.0,2.214
-1.0,1.0,2.215
3.0,1.0,2.216
18.0,2.0,2.217
28.0,3.0,2.218
23.0,0.0,2.219
7.0,-5.0,2.22
-5.0,-11.0,2.221
-3.0,-12.0,2.222
9.0,-10.0,2.223
20.0,-8.0,2.224
20.0,-5.0,2.225
10.0,-5.0,2.226
-3.0,-5.0,2.227
-14.0,-5.0,2.228
-20.0,-5.0,2.229
-24.0,-2.0,2.23
-28.0,2.0,2.231
-26.0,0.0,2.232
-19.0,-5.0,2.233
-13.0,-9.0,2.234
-10.0,-6.0,2.235
-5.0,1.0,2.236
7.0,6.0,2.237
16.0,3.0,2.238
15.0,-2.0,2.239
7.0,-3.0,2.24
9.0,-2.0,2.241
17.0,0.0,2.242
27.0,2.0,2.243
32.0,5.0,2.244
26.0,10.0,2.245
14.0,14.0,2.246
-1.0,14.0,2.247
-5.0,10.0,2.248
4.0,5.0,2.249
18.0,4.0,2.25
20.0,5.0,2.251
9.0,6.0,2.252
-7.0,4.0,2.253
-18.0,0.0,2.254
-20.0,-6.0,2.255
-13.0,-9.0,2.256
-3.0,-9.0,2.257
5.0,-7.0,2.258
10.0,-2.0,2.259
2.0,0.0,2.26
-13.0,-4.0,2.261
-21.0,-6.0,2.262
-9.0,-1.0,2.263
10.0,4.0,2.264
17.0,7.0,2.265
9.0,5.0,2.266
5.0,2.0,2.267
7.0,-1.0,2.268
4.0,-4.0,2.269
-4.0,-5.0,2.27
-8.0,-2.0,2.271
-8.0,-1.0,2.272
-11.0,-1.0,2.273
-15.0,2.0,2.274
-10.0,7.0,2.275
0.0,7.0,2.276
6.0,4.0,2.277
-2.0,-1.0,2.278
-5.0,0.0,2.279
1.0,1.0,2.28
9.0,-4.0,2.281
15.0,-8.0,2.282
27.0,-7.0,2.283
43.0,-1.0,2.284
46.0,6.0,2.285
31.0,10.0,2.286
18.0,11.0,2.287
15.0,12.0,2.288
12.0,10.0,2.289
0.0,7.0,2.29
-14.0,2.0,2.291
-27.0,-5.0,2.292
-41.0,-15.0,2.293
-47.0,-25.0,2.294
-37.0,-26.0,2.295
-16.0,-17.0,2.296
0.0,-5.0,2.297
6.0,0.0,2.298
6.0,-1.0,2.299
5.0,-3.0,2.3
0.0,-7.0,2.301
-2.0,-8.0,2.302
9.0,-2.0,2.303
26.0,2.0,2.304
34.0,3.0,2.305
29.0,5.0,2.306
25.0,5.0,2.307
26.0,6.0,2.308
23.0,6.0,2.309
14.0,6.0,2.31
6.0,5.0,2.311
1.0,4.0,2.312
-9.0,2.0,2.313
-20.0,1.0,2.314
-18.0,2.0,2.315
-10.0,3.0,2.316
-6.0,3.0,2.317
-10.0,1.0,2.318
-9.0,-2.0,2.319
-10.0,-6.0,2.32
-16.0,-9.0,2.321
-21.0,-9.0,2.322
-10.0,-8.0,2.323
10.0,-8.0,2.324
16.0,-2.0,2.325
5.0,6.0,2.326
2.0,9.0,2.327
17.0,4.0,2.328
30.0,0.0,2.329
27.0,0.0,2.33
14.0,2.0,2.331
3.0,1.0,2.332
1.0,0.0,2.333
3.0,-2.0,2.334
9.0,-5.0,2.335
16.0,-4.0,2.336
18.0,-1.0,2.337
7.0,1.0,2.338
-10.0,-1.0,2.339
-21.0,-5.0,2.34
-19.0,-7.0,2.341
-6.0,-5.0,2.342
8.0,-3.0,2.343
18.0,-2.0,2.344
18.0,5.0,2.345
15.0,12.0,2.346
10.0,12.0,2.347
9.0,6.0,2.348
6.0,4.0,2.349
0.0,7.0,2.35
-12.0,9.0,2.351
-18.0,8.0,2.352
-16.0,7.0,2.353
-12.0,5.0,2.354
-14.0,-1.0,2.355
-19.0,-12.0,2.356
-17.0,-16.0,2.357
-13.0,-12.0,2.358
-8.0,-7.0,2.359
-6.0,-6.0,2.36
-5.0,-10.0,2.361
-1.0,-8.0,2.362
5.0,-1.0,2.363
11.0,4.0,2.364
13.0,1.0,2.365
11.0,-6.0,2.366
11.0,-12.0,2.367
17.0,-14.0,2.368
21.0,-8.0,2.369
20.0,3.0,2.37
15.0,7.0,2.371
15.0,2.0,2.372
19.0,-4.0,2.373
23.0,-2.0,2.374
20.0,3.0,2.375
13.0,1.0,2.376
5.0,-2.0,2.377
0.0,-4.0,2.378
-1.0,-2.0,2.379
-6.0,0.0,2.38
-15.0,-1.0,2.381
-16.0,0.0,2.382
1.0,0.0,2.383
28.0,-2.0,2.384
37.0,0.0,2.385
22.0,7.0,2.386
1.0,7.0,2.387
-11.0,0.0,2.388
-22.0,-5.0,2.389
-35.0,-5.0,2.39
-44.0,-7.0,2.391
-40.0,-12.0,2.392
-26.0,-14.0,2.393
-12.0,-9.0,2.394
-3.0,0.0,2.395
-1.0,5.0,2.396
0.0,3.0,2.397
3.0,0.0,2.398
10.0,0.0,2.399
14.0,5.0,2.4
12.0,9.0,2.401
12.0,10.0,2.402
21.0,5.0,2.403
34.0,0.0,2.404
35.0,0.0,2.405
22.0,3.0,2.406
8.0,1.0,2.407
3.0,-3.0,2.408
7.0,-2.0,2.409
9.0,2.0,2.41
5.0,6.0,2.411
0.0,3.0,2.412
-6.0,2.0,2.413
-9.0,1.0,2.414
-9.0,0.0,2.415
-8.0,-4.0,2.416
-4.0,-3.0,2.417
9.0,1.0,2.418
25.0,4.0,2.419
28.0,6.0,2.42
17.0,3.0,2.421
7.0,3.0,2.422
11.0,3.0,2.423
19.0,0.0,2.424
12.0,-6.0,2.425
-5.0,-9.0,2.426
-17.0,-9.0,2.427
-20.0,-5.0,2.428
-19.0,0.0,2.429
-20.0,4.0,2.43
-19.0,1.0,2.431
-15.0,-4.0,2.432
-12.0,-9.0,2.433
-8.0,-9.0,2.434
0.0,-8.0,2.435
10.0,-7.0,2.436
17.0,-5.0,2.437
17.0,-6.0,2.438
12.0,-6.0,2.439
0.0,-5.0,2.44
-8.0,-8.0,2.441
-9.0,-7.0,2.442
1.0,-3.0,2.443
14.0,5.0,2.444
20.0,11.0,2.445
18.0,12.0,2.446
18.0,9.0,2.447
19.0,5.0,2.448
20.0,4.0,2.449
19.0,9.0,2.45
20.0,12.0,2.451
24.0,12.0,2.452
24.0,9.0,2.453
18.0,3.0,2.454
5.0,-3.0,2.455
-4.0,-6.0,2.456
-9.0,-2.0,2.457
-13.0,1.0,2.458
-18.0,0.0,2.459
-24.0,-8.0,2.46
-26.0,-17.0,2.461
-20.0,-15.0,2.462
-10.0,-8.0,2.463
-9.0,0.0,2.464
-18.0,1.0,2.465
-27.0,-6.0,2.466
-23.0,-15.0,2.467
-9.0,-17.0,2.468
5.0,-6.0,2.469
15.0,5.0,2.47
20.0,6.0,2.471
22.0,-1.0,2.472
15.0,-2.0,2.473
3.0,3.0,2.474
-2.0,5.0,2.475
2.0,0.0,2.476
6.0,0.0,2.477
2.0,5.0,2.478
-3.0,10.0,2.479
-5.0,7.0,2.48
-8.0,-1.0,2.481
-10.0,-1.0,2.482
-6.0,2.0,2.483
8.0,5.0,2.484
20.0,8.0,2.485
22.0,8.0,2.486
19.0,2.0,2.487
17.0,-6.0,2.488
15.0,-10.0,2.489
13.0,-7.0,2.49
10.0,-3.0,2.491
13.0,-4.0,2.492
18.0,-4.0,2.493
15.0,0.0,2.494
0.0,3.0,2.495
-12.0,3.0,2.496
-11.0,3.0,2.497
0.0,2.0,2.498
13.0,4.0,2.499
12.0,6.0,2.5
4.0,2.0,2.501
-1.0,-5.0,2.502
4.0,-13.0,2.503
12.0,-15.0,2.504
15.0,-7.0,2.505
12.0,0.0,2.506
4.0,1.0,2.507
-3.0,-3.0,2.508
-10.0,-2.0,2.509
-15.0,0.0,2.51
-13.0,-1.0,2.511
2.0,-1.0,2.512
25.0,3.0,2.513
34.0,9.0,2.514
18.0,8.0,2.515
-13.0,-3.0,2.516
-34.0,-9.0,2.517
-36.0,-8.0,2.518
-30.0,-1.0,2.519
-31.0,2.0,2.52
-37.0,-6.0,2.521
-38.0,-15.0,2.522
-29.0,-18.0,2.523
-14.0,-12.0,2.524
1.0,-1.0,2.525
14.0,5.0,2.526
20.0,4.0,2.527
25.0,2.0,2.528
31.0,6.0,2.529
32.0,8.0,2.53
21.0,5.0,2.531
4.0,0.0,2.532
-3.0,2.0,2.533
3.0,7.0,2.534
7.0,8.0,2.535
7.0,5.0,2.536
7.0,7.0,2.537
12.0,7.0,2.538
12.0,2.0,2.539
0.0,-4.0,2.54
-6.0,-9.0,2.541
0.0,-7.0,2.542
11.0,-2.0,2.543
15.0,0.0,2.544
9.0,3.0,2.545
5.0,7.0,2.546
5.0,6.0,2.547
7.0,2.0,2.548
11.0,2.0,2.549
14.0,5.0,2.55
18.0,6.0,2.551
21.0,1.0,2.552
24.0,0.0,2.553
29.0,5.0,2.554
34.0,9.0,2.555
34.0,6.0,2.556
31.0,3.0,2.557
21.0,2.0,2.558
8.0,1.0,2.559
-8.0,-2.0,2.56
-18.0,-9.0,2.561
-18.0,-10.0,2.562
-15.0,-5.0,2.563
-20.0,-1.0,2.564
-33.0,0.0,2.565
-44.0,0.0,2.566
-36.0,-2.0,2.567
-16.0,-4.0,2.568
-4.0,-7.0,2.569
-5.0,-9.0,2.57
-8.0,-9.0,2.571
-1.0,-8.0,2.572
11.0,-3.0,2.573
16.0,0.0,2.574
15.0,0.0,2.575
15.0,0.0,2.576
19.0,0.0,2.577
15.0,-4.0,2.578
5.0,-7.0,2.579
-6.0,-8.0,2.58
-13.0,-9.0,2.581
-14.0,-8.0,2.582
-11.0,-10.0,2.583
-4.0,-8.0,2.584
2.0,-3.0,2.585
6.0,4.0,2.586
10.0,7.0,2.587
13.0,4.0,2.588
16.0,1.0,2.589
16.0,1.0,2.59
17.0,2.0,2.591
18.0,3.0,2.592
16.0,4.0,2.593
10.0,4.0,2.594
5.0,1.0,2.595
5.0,-1.0,2.596
9.0,-3.0,2.597
7.0,-7.0,2.598
-1.0,-6.0,2.599
-13.0,0.0,2.6
-17.0,-2.0,2.601
-11.0,-6.0,2.602
-1.0,-7.0,2.603
5.0,-3.0,2.604
5.0,2.0,2.605
3.0,4.0,2.606
4.0,1.0,2.607
11.0,0.0,2.608
16.0,0.0,2.609
14.0,2.0,2.61
11.0,5.0,2.611
8.0,8.0,2.612
9.0,11.0,2.613
10.0,12.0,2.614
14.0,12.0,2.615
23.0,10.0,2.616
33.0,5.0,2.617
32.0,-2.0,2.618
18.0,-6.0,2.619
-7.0,-5.0,2.62
-30.0,-8.0,2.621
-44.0,-8.0,2.622
-40.0,-5.0,2.623
-24.0,0.0,2.624
-14.0,2.0,2.625
-20.0,0.0,2.626
-34.0,-7.0,2.627
-41.0,-10.0,2.628
-35.0,-8.0,2.629
-26.0,-4.0,2.63
-21.0,-2.0,2.631
-15.0,-5.0,2.632
-5.0,-4.0,2.633
0.0,-2.0,2.634
4.0,-1.0,2.635
12.0,-2.0,2.636
21.0,-2.0,2.637
23.0,0.0,2.638
21.0,3.0,2.639
20.0,0.0,2.64
22.0,-4.0,2.641
27.0,-3.0,2.642
42.0,1.0,2.643
58.0,9.0,2.644
64.0,17.0,2.645
52.0,20.0,2.646
35.0,14.0,2.647
22.0,3.0,2.648
11.0,1.0,2.649
-7.0,6.0,2.65
-23.0,8.0,2.651
-31.0,2.0,2.652
-37.0,-6.0,2.653
-47.0,-12.0,2.654
-49.0,-18.0,2.655
-38.0,-24.0,2.656
-22.0,-24.0,2.657
-13.0,-21.0,2.658
-3.0,-14.0,2.659
12.0,-8.0,2.66
29.0,0.0,2.661
38.0,10.0,2.662
38.0,14.0,2.663
35.0,12.0,2.664
28.0,9.0,2.665
19.0,11.0,2.666
12.0,14.0,2.667
9.0,16.0,2.668
10.0,14.0,2.669
15.0,12.0,2.67
16.0,9.0,2.671
7.0,3.0,2.672
-7.0,-2.0,2.673
-17.0,-7.0,2.674
-17.0,-9.0,2.675
-19.0,-10.0,2.676
-23.0,-7.0,2.677
-25.0,-9.0,2.678
-19.0,-16.0,2.679
-9.0,-22.0,2.68
-4.0,-25.0,2.681
6.0,-19.0,2.682
19.0,-10.0,2.683
20.0,-2.0,2.684
0.0,5.0,2.685
-21.0,6.0,2.686
-21.0,3.0,2.687
-12.0,3.0,2.688
-9.0,7.0,2.689
-14.0,7.0,2.69
-9.0,1.0,2.691
6.0,0.0,2.692
19.0,6.0,2.693
18.0,10.0,2.694
10.0,9.0,2.695
2.0,2.0,2.696
2.0,0.0,2.697
8.0,1.0,2.698
15.0,0.0,2.699
17.0,-2.0,2.7
24.0,-5.0,2.701
46.0,0.0,2.702
71.0,7.0,2.703
77.0,15.0,2.704
57.0,15.0,2.705
29.0,8.0,2.706
4.0,-2.0,2.707
-22.0,-5.0,2.708
-50.0,-3.0,2.709
-70.0,1.0,2.71
-75.0,6.0,2.711
-71.0,6.0,2.712
-67.0,0.0,2.713
-56.0,-13.0,2.714
-34.0,-27.0,2.715
-1.0,-32.0,2.716
38.0,-28.0,2.717
87.0,-20.0,2.718
130.0,-8.0,2.719
135.0,3.0,2.72
94.0,6.0,2.721
33.0,6.0,2.722
1.0,6.0,2.723
4.0,7.0,2.724
-1.0,7.0,2.725
-36.0,8.0,2.726
-69.0,9.0,2.727
-58.0,6.0,2.728
-15.0,2.0,2.729
12.0,1.0,2.73
1.0,5.0,2.731
-29.0,12.0,2.732
-68.0,14.0,2.733
-114.0,3.0,2.734
-147.0,-17.0,2.735
-139.0,-34.0,2.736
-93.0,-39.0,2.737
-31.0,-38.0,2.738
34.0,-34.0,2.739
105.0,-28.0,2.74
166.0,-18.0,2.741
177.0,3.0,2.742
124.0,28.0,2.743
36.0,46.0,2.744
-44.0,57.0,2.745
-97.0,59.0,2.746
-120.0,49.0,2.747
-121.0,38.0,2.748
-108.0,23.0,2.749
-88.0,1.0,2.75
-56.0,-28.0,2.751
-10.0,-52.0,2.752
33.0,-56.0,2.753
56.0,-45.0,2.754
68.0,-33.0,2.755
85.0,-24.0,2.756
100.0,-15.0,2.757
90.0,-8.0,2.758
48.0,1.0,2.759
-1.0,12.0,2.76
-17.0,19.0,2.761
9.0,26.0,2.762
49.0,32.0,2.763
74.0,42.0,2.764
82.0,50.0,2.765
72.0,47.0,2.766
37.0,29.0,2.767
-25.0,6.0,2.768
-86.0,-10.0,2.769
-113.0,-15.0,2.77
-104.0,-11.0,2.771
-81.0,-8.0,2.772
-61.0,-11.0,2.773
-40.0,-23.0,2.774
-11.0,-33.0,2.775
29.0,-33.0,2.776
71.0,-24.0,2.777
101.0,-15.0,2.778
109.0,-6.0,2.779
95.0,1.0,2.78
75.0,2.0,2.781
55.0,4.0,2.782
35.0,3.0,2.783
10.0,2.0,2.784
-15.0,4.0,2.785
-30.0,5.0,2.786
-29.0,2.0,2.787
-7.0,0.0,2.788
28.0,5.0,2.789
66.0,12.0,2.79
92.0,22.0,2.791
93.0,28.0,2.792
64.0,16.0,2.793
22.0,6.0,2.794
-6.0,6.0,2.795
-6.0,6.0,2.796
10.0,7.0,2.797
17.0,8.0,2.798
7.0,6.0,2.799
-18.0,1.0,2.8
-52.0,-3.0,2.801
-82.0,-4.0,2.802
-94.0,-6.0,2.803
-76.0,-11.0,2.804
-37.0,-9.0,2.805
-9.0,1.0,2.806
-13.0,0.0,2.807
-44.0,-21.0,2.808
-64.0,-37.0,2.809
-34.0,-27.0,2.81
40.0,-2.0,2.811
112.0,17.0,2.812
143.0,25.0,2.813
137.0,26.0,2.814
134.0,22.0,2.815
151.0,15.0,2.816
169.0,20.0,2.817
137.0,31.0,2.818
27.0,26.0,2.819
-129.0,-11.0,2.82
-236.0,-55.0,2.821
-229.0,-66.0,2.822
-152.0,-38.0,2.823
-119.0,1.0,2.824
-163.0,26.0,2.825
-209.0,34.0,2.826
-183.0,27.0,2.827
-113.0,5.0,2.828
-64.0,-20.0,2.829
-30.0,-39.0,2.83
23.0,-47.0,2.831
80.0,-47.0,2.832
96.0,-42.0,2.833
77.0,-33.0,2.834
60.0,-26.0,2.835
47.0,-20.0,2.836
19.0,-13.0,2.837
-24.0,-7.0,2.838
-49.0,0.0,2.839
-57.0,2.0,2.84
-58.0,-10.0,2.841
-49.0,-27.0,2.842
-12.0,-38.0,2.843
36.0,-40.0,2.844
67.0,-31.0,2.845
82.0,-6.0,2.846
104.0,33.0,2.847
121.0,75.0,2.848
108.0,96.0,2.849
77.0,89.0,2.85
65.0,76.0,2.851
82.0,78.0,2.852
92.0,80.0,2.853
66.0,57.0,2.854
18.0,18.0,2.855
-17.0,-4.0,2.856
-25.0,-5.0,2.857
-20.0,-9.0,2.858
-7.0,-29.0,2.859
13.0,-45.0,2.86
32.0,-45.0,2.861
29.0,-34.0,2.862
-1.0,-34.0,2.863
-44.0,-42.0,2.864
-80.0,-47.0,2.865
-92.0,-39.0,2.866
-70.0,-18.0,2.867
-13.0,7.0,2.868
61.0,26.0,2.869
126.0,26.0,2.87
149.0,13.0,2.871
114.0,5.0,2.872
27.0,6.0,2.873
-72.0,5.0,2.874
-116.0,-5.0,2.875
-66.0,-11.0,2.876
34.0,-3.0,2.877
108.0,13.0,2.878
90.0,17.0,2.879
-4.0,0.0,2.88
-98.0,-29.0,2.881
-138.0,-48.0,2.882
-124.0,-63.0,2.883
-89.0,-75.0,2.884
-55.0,-75.0,2.885
-41.0,-64.0,2.886
-50.0,-64.0,2.887
-77.0,-75.0,2.888
-97.0,-65.0,2.889
-81.0,-19.0,2.89
-35.0,37.0,2.891
23.0,70.0,2.892
78.0,90.0,2.893
130.0,119.0,2.894
194.0,145.0,2.895
260.0,138.0,2.896
280.0,106.0,2.897
202.0,68.0,2.898
52.0,45.0,2.899
-69.0,38.0,2.9
-104.0,42.0,2.901
-92.0,54.0,2.902
-94.0,69.0,2.903
-111.0,71.0,2.904
-105.0,52.0,2.905
-82.0,11.0,2.906
-73.0,-42.0,2.907
-66.0,-84.0,2.908
-27.0,-101.0,2.909
41.0,-102.0,2.91
106.0,-103.0,2.911
145.0,-100.0,2.912
149.0,-84.0,2.913
114.0,-59.0,2.914
60.0,-44.0,2.915
13.0,-32.0,2.916
-33.0,-4.0,2.917
-113.0,39.0,2.918
-198.0,66.0,2.919
-210.0,49.0,2.92
-130.0,5.0,2.921
-39.0,-21.0,2.922
-10.0,-19.0,2.923
-17.0,-9.0,2.924
-13.0,-7.0,2.925
-12.0,-6.0,2.926
-38.0,7.0,2.927
-59.0,32.0,2.928
-19.0,58.0,2.929
62.0,66.0,2.93
113.0,46.0,2.931
97.0,3.0,2.932
49.0,-33.0,2.933
10.0,-46.0,2.934
-12.0,-50.0,2.935
-20.0,-56.0,2.936
-6.0,-57.0,2.937
36.0,-49.0,2.938
71.0,-35.0,2.939
74.0,-22.0,2.94
57.0,-6.0,2.941
51.0,17.0,2.942
47.0,31.0,2.943
28.0,21.0,2.944
0.0,7.0,2.945
-8.0,24.0,2.946
19.0,63.0,2.947
91.0,89.0,2.948
207.0,79.0,2.949
317.0,52.0,2.95
324.0,24.0,2.951
200.0,-5.0,2.952
33.0,-39.0,2.953
-70.0,-67.0,2.954
-109.0,-81.0,2.955
-143.0,-89.0,2.956
-178.0,-98.0,2.957
-180.0,-106.0,2.958
-137.0,-95.0,2.959
-106.0,-67.0,2.96
-110.0,-39.0,2.961
-97.0,-15.0,2.962
-5.0,14.0,2.963
105.0,59.0,2.964
111.0,111.0,2.965
-11.0,147.0,2.966
-106.0,152.0,2.967
-19.0,133.0,2.968
169.0,112.0,2.969
221.0,106.0,2.97
34.0,109.0,2.971
-227.0,104.0,2.972
-347.0,77.0,2.973
-301.0,26.0,2.974
-201.0,-29.0,2.975
-109.0,-73.0,2.976
-31.0,-107.0,2.977
11.0,-147.0,2.978
-26.0,-179.0,2.979
-102.0,-171.0,2.98
-117.0,-126.0,2.981
-54.0,-88.0,2.982
1.0,-100.0,2.983
-6.0,-136.0,2.984
-49.0,-149.0,2.985
-72.0,-126.0,2.986
-55.0,-91.0,2.987
-10.0,-60.0,2.988
35.0,-25.0,2.989
64.0,13.0,2.99
86.0,49.0,2.991
120.0,85.0,2.992
163.0,138.0,2.993
190.0,204.0,2.994
207.0,252.0,2.995
246.0,265.0,2.996
314.0,256.0,2.997
392.0,227.0,2.998
425.0,173.0,2.999
354.0,83.0,3.0
165.0,-25.0,3.001
-56.0,-103.0,3.002
-176.0,-136.0,3.003
-149.0,-146.0,3.004
-78.0,-152.0,3.005
-103.0,-151.0,3.006
-231.0,-138.0,3.007
-326.0,-118.0,3.008
-277.0,-97.0,3.009
-142.0,-63.0,3.01
-65.0,-6.0,3.011
-75.0,55.0,3.012
-64.0,85.0,3.013
30.0,80.0,3.014
118.0,78.0,3.015
96.0,101.0,3.016
22.0,131.0,3.017
2.0,130.0,3.018
76.0,98.0,3.019
176.0,71.0,3.02
239.0,67.0,3.021
233.0,72.0,3.022
141.0,58.0,3.023
-10.0,23.0,3.024
-135.0,-22.0,3.025
-181.0,-60.0,3.026
-189.0,-84.0,3.027
-216.0,-98.0,3.028
-234.0,-106.0,3.029
-196.0,-112.0,3.03
-126.0,-116.0,3.031
-79.0,-121.0,3.032
-59.0,-131.0,3.033
-35.0,-137.0,3.034
-8.0,-128.0,3.035
-4.0,-112.0,3.036
-25.0,-102.0,3.037
-53.0,-89.0,3.038
-77.0,-50.0,3.039
-74.0,14.0,3.04
-29.0,65.0,3.041
33.0,86.0,3.042
77.0,93.0,3.043
91.0,103.0,3.044
113.0,115.0,3.045
171.0,129.0,3.046
251.0,142.0,3.047
303.0,129.0,3.048
289.0,74.0,3.049
212.0,4.0,3.05
106.0,-36.0,3.051
11.0,-46.0,3.052
-55.0,-67.0,3.053
-98.0,-112.0,3.054
-118.0,-144.0,3.055
-113.0,-138.0,3.056
-93.0,-113.0,3.057
-87.0,-101.0,3.058
-106.0,-99.0,3.059
-114.0,-65.0,3.06
-81.0,12.0,3.061
-23.0,91.0,3.062
19.0,115.0,3.063
40.0,94.0,3.064
68.0,105.0,3.065
112.0,176.0,3.066
140.0,227.0,3.067
126.0,190.0,3.068
98.0,114.0,3.069
95.0,76.0,3.07
99.0,53.0,3.071
54.0,-22.0,3.072
-46.0,-116.0,3.073
-141.0,-138.0,3.074
-181.0,-93.0,3.075
-182.0,-78.0,3.076
-183.0,-115.0,3.077
-190.0,-145.0,3.078
-177.0,-115.0,3.079
-137.0,-62.0,3.08
-62.0,-30.0,3.081
56.0,0.0,3.082
204.0,48.0,3.083
341.0,91.0,3.084
464.0,102.0,3.085
588.0,97.0,3.086
619.0,98.0,3.087
391.0,106.0,3.088
-73.0,103.0,3.089
-472.0,85.0,3.09
-570.0,76.0,3.091
-476.0,97.0,3.092
-423.0,135.0,3.093
-411.0,135.0,3.094
-305.0,69.0,3.095
-137.0,-23.0,3.096
-58.0,-74.0,3.097
-68.0,-79.0,3.098
-36.0,-74.0,3.099
52.0,-85.0,3.1
77.0,-106.0,3.101
21.0,-116.0,3.102
-2.0,-109.0,3.103
37.0,-95.0,3.104
42.0,-93.0,3.105
-13.0,-122.0,3.106
-21.0,-153.0,3.107
76.0,-137.0,3.108
187.0,-81.0,3.109
212.0,-48.0,3.11
166.0,-56.0,3.111
129.0,-49.0,3.112
131.0,-3.0,3.113
145.0,18.0,3.114
131.0,-18.0,3.115
79.0,-50.0,3.116
8.0,-25.0,3.117
-56.0,17.0,3.118
-79.0,27.0,3.119
-51.0,25.0,3.12
1.0,57.0,3.121
30.0,108.0,3.122
8.0,125.0,3.123
-27.0,118.0,3.124
-6.0,120.0,3.125
101.0,116.0,3.126
265.0,67.0,3.127
446.0,0.0,3.128
569.0,-27.0,3.129
530.0,-13.0,3.13
272.0,-12.0,3.131
-79.0,-52.0,3.132
-328.0,-100.0,3.133
-414.0,-118.0,3.134
-440.0,-102.0,3.135
-474.0,-75.0,3.136
-463.0,-52.0,3.137
-356.0,-26.0,3.138
-201.0,15.0,3.139
-66.0,75.0,3.14
3.0,129.0,3.141
45.0,156.0,3.142
0.0,146.0,3.143
-35.0,117.0,3.144
-37.0,94.0,3.145
-46.0,80.0,3.146
-74.0,54.0,3.147
-95.0,12.0,3.148
-93.0,-25.0,3.149
-77.0,-43.0,3.15
-19.0,-56.0,3.151
34.0,-81.0,3.152
75.0,-103.0,3.153
109.0,-82.0,3.154
119.0,-24.0,3.155
120.0,25.0,3.156
90.0,34.0,3.157
72.0,40.0,3.158
119.0,87.0,3.159
189.0,137.0,3.16
212.0,110.0,3.161
164.0,4.0,3.162
96.0,-83.0,3.163
50.0,-88.0,3.164
-7.0,-69.0,3.165
-101.0,-91.0,3.166
-163.0,-123.0,3.167
-115.0,-93.0,3.168
-16.0,-30.0,3.169
16.0,-18.0,3.17
-26.0,-63.0,3.171
-57.0,-83.0,3.172
-48.0,-40.0,3.173
-49.0,21.0,3.174
-63.0,56.0,3.175
-35.0,79.0,3.176
37.0,98.0,3.177
102.0,100.0,3.178
138.0,86.0,3.179
179.0,72.0,3.18
222.0,54.0,3.181
197.0,13.0,3.182
70.0,-47.0,3.183
-88.0,-73.0,3.184
-190.0,-49.0,3.185
-215.0,-26.0,3.186
-184.0,-48.0,3.187
-106.0,-88.0,3.188
11.0,-91.0,3.189
116.0,-45.0,3.19
124.0,9.0,3.191
22.0,34.0,3.192
-80.0,29.0,3.193
-45.0,12.0,3.194
149.0,-7.0,3.195
356.0,-33.0,3.196
410.0,-51.0,3.197
263.0,-50.0,3.198
47.0,-29.0,3.199
-126.0,-6.0,3.2
-172.0,9.0,3.201
-221.0,27.0,3.202
-277.0,33.0,3.203
-323.0,1.0,3.204
-341.0,-53.0,3.205
-320.0,-65.0,3.206
-177.0,-24.0,3.207
-55.0,-5.0,3.208
3.0,-40.0,3.209
52.0,-58.0,3.21
71.0,10.0,3.211
78.0,97.0,3.212
48.0,100.0,3.213
25.0,49.0,3.214
23.0,42.0,3.215
23.0,92.0,3.216
29.0,117.0,3.217
21.0,83.0,3.218
-33.0,41.0,3.219
-47.0,32.0,3.22
-19.0,35.0,3.221
20.0,32.0,3.222
71.0,35.0,3.223
140.0,49.0,3.224
188.0,52.0,3.225
171.0,43.0,3.226
110.0,46.0,3.227
63.0,65.0,3.228
36.0,72.0,3.229
-16.0,47.0,3.23
-90.0,9.0,3.231
-120.0,-27.0,3.232
-74.0,-74.0,3.233
-2.0,-138.0,3.234
40.0,-178.0,3.235
62.0,-153.0,3.236
98.0,-84.0,3.237
149.0,-25.0,3.238
172.0,-4.0,3.239
117.0,1.0,3.24
4.0,6.0,3.241
-86.0,0.0,3.242
-78.0,-25.0,3.243
12.0,-53.0,3.244
100.0,-61.0,3.245
123.0,-54.0,3.246
83.0,-37.0,3.247
19.0,-10.0,3.248
-12.0,17.0,3.249
42.0,18.0,3.25
170.0,-18.0,3.251
279.0,-67.0,3.252
266.0,-93.0,3.253
128.0,-85.0,3.254
-80.0,-46.0,3.255
-306.0,2.0,3.256
-474.0,35.0,3.257
-513.0,47.0,3.258
-403.0,66.0,3.259
-255.0,113.0,3.26
-176.0,159.0,3.261
-140.0,168.0,3.262
-75.0,132.0,3.263
1.0,67.0,3.264
32.0,-11.0,3.265
41.0,-91.0,3.266
91.0,-130.0,3.267
160.0,-101.0,3.268
175.0,-36.0,3.269
122.0,0.0,3.27
53.0,-9.0,3.271
9.0,-29.0,3.272
-24.0,-26.0,3.273
-63.0,0.0,3.274
-88.0,41.0,3.275
-66.0,88.0,3.276
2.0,112.0,3.277
50.0,81.0,3.278
39.0,19.0,3.279
30.0,-26.0,3.28
31.0,-24.0,3.281
48.0,-19.0,3.282
112.0,-1.0,3.283
162.0,4.0,3.284
172.0,-25.0,3.285
162.0,-42.0,3.286
88.0,-19.0,3.287
17.0,-5.0,3.288
-48.0,-18.0,3.289
-88.0,-31.0,3.29
-48.0,-39.0,3.291
-15.0,-45.0,3.292
-3.0,-48.0,3.293
12.0,-50.0,3.294
38.0,-48.0,3.295
52.0,-45.0,3.296
30.0,-39.0,3.297
-3.0,-37.0,3.298
-70.0,-38.0,3.299
-105.0,-22.0,3.3
-91.0,-22.0,3.301
-46.0,-31.0,3.302
22.0,-8.0,3.303
130.0,51.0,3.304
230.0,87.0,3.305
214.0,66.0,3.306
55.0,23.0,3.307
-104.0,6.0,3.308
-132.0,12.0,3.309
-74.0,6.0,3.31
-70.0,-15.0,3.311
-126.0,-10.0,3.312
-141.0,47.0,3.313
-109.0,113.0,3.314
-118.0,120.0,3.315
-159.0,80.0,3.316
-117.0,75.0,3.317
58.0,138.0,3.318
233.0,200.0,3.319
261.0,177.0,3.32
174.0,86.0,3.321
88.0,7.0,3.322
37.0,-44.0,3.323
-32.0,-102.0,3.324
-120.0,-152.0,3.325
-155.0,-143.0,3.326
-99.0,-86.0,3.327
-6.0,-48.0,3.328
68.0,-50.0,3.329
107.0,-53.0,3.33
108.0,-41.0,3.331
64.0,-35.0,3.332
26.0,-45.0,3.333
60.0,-40.0,3.334
119.0,-17.0,3.335
91.0,-6.0,3.336
-25.0,-4.0,3.337
-112.0,19.0,3.338
-81.0,62.0,3.339
-17.0,79.0,3.34
-14.0,58.0,3.341
-24.0,44.0,3.342
10.0,53.0,3.343
16.0,52.0,3.344
-79.0,15.0,3.345
-195.0,-55.0,3.346
-215.0,-132.0,3.347
-165.0,-181.0,3.348
-136.0,-172.0,3.349
-126.0,-112.0,3.35
-64.0,-51.0,3.351
55.0,-17.0,3.352
176.0,2.0,3.353
244.0,14.0,3.354
219.0,-11.0,3.355
107.0,-65.0,3.356
5.0,-88.0,3.357
-7.0,-46.0,3.358
45.0,23.0,3.359
47.0,70.0,3.36
-21.0,99.0,3.361
-39.0,138.0,3.362
59.0,168.0,3.363
175.0,173.0,3.364
179.0,169.0,3.365
72.0,160.0,3.366
-36.0,124.0,3.367
-57.0,68.0,3.368
-10.0,36.0,3.369
17.0,46.0,3.37
-30.0,58.0,3.371
-92.0,45.0,3.372
-80.0,17.0,3.373
-9.0,-11.0,3.374
12.0,-58.0,3.375
-55.0,-113.0,3.376
-116.0,-142.0,3.377
-108.0,-140.0,3.378
-74.0,-131.0,3.379
-77.0,-143.0,3.38
-92.0,-162.0,3.381
-82.0,-174.0,3.382
-70.0,-187.0,3.383
-86.0,-189.0,3.384
-95.0,-152.0,3.385
-60.0,-84.0,3.386
-6.0,-16.0,3.387
35.0,42.0,3.388
78.0,100.0,3.389
146.0,155.0,3.39
215.0,191.0,3.391
263.0,206.0,3.392
291.0,193.0,3.393
298.0,141.0,3.394
255.0,72.0,3.395
150.0,36.0,3.396
39.0,41.0,3.397
-24.0,41.0,3.398
-37.0,8.0,3.399
-50.0,-30.0,3.4
-97.0,-37.0,3.401
-148.0,-25.0,3.402
-164.0,-29.0,3.403
-156.0,-46.0,3.404
-162.0,-59.0,3.405
-178.0,-72.0,3.406
-162.0,-90.0,3.407
-110.0,-98.0,3.408
-61.0,-86.0,3.409
-42.0,-70.0,3.41
-24.0,-64.0,3.411
17.0,-56.0,3.412
54.0,-39.0,3.413
41.0,-32.0,3.414
-14.0,-46.0,3.415
-58.0,-48.0,3.416
-39.0,-6.0,3.417
70.0,74.0,3.418
247.0,138.0,3.419
405.0,135.0,3.42
423.0,69.0,3.421
261.0,14.0,3.422
21.0,16.0,3.423
-133.0,50.0,3.424
-146.0,57.0,3.425
-106.0,30.0,3.426
-105.0,16.0,3.427
-141.0,25.0,3.428
-171.0,19.0,3.429
-194.0,-23.0,3.43
-210.0,-64.0,3.431
-179.0,-70.0,3.432
-78.0,-54.0,3.433
38.0,-43.0,3.434
83.0,-33.0,3.435
40.0,-3.0,3.436
-32.0,39.0,3.437
-89.0,77.0,3.438
-99.0,111.0,3.439
-59.0,140.0,3.44
7.0,146.0,3.441
47.0,122.0,3.442
43.0,75.0,3.443
25.0,27.0,3.444
23.0,2.0,3.445
29.0,1.0,3.446
41.0,-4.0,3.447
78.0,-34.0,3.448
141.0,-70.0,3.449
204.0,-67.0,3.45
242.0,-26.0,3.451
260.0,-4.0,3.452
250.0,-25.0,3.453
183.0,-50.0,3.454
63.0,-45.0,3.455
-62.0,-36.0,3.456
-138.0,-50.0,3.457
-162.0,-65.0,3.458
-146.0,-49.0,3.459
-104.0,-31.0,3.46
-56.0,-48.0,3.461
-22.0,-71.0,3.462
-14.0,-64.0,3.463
-27.0,-46.0,3.464
-35.0,-43.0,3.465
-14.0,-34.0,3.466
27.0,9.0,3.467
42.0,57.0,3.468
10.0,60.0,3.469
-35.0,30.0,3.47
-54.0,12.0,3.471
-56.0,13.0,3.472
-51.0,14.0,3.473
-16.0,18.0,3.474
46.0,42.0,3.475
75.0,67.0,3.476
30.0,62.0,3.477
-50.0,21.0,3.478
-95.0,-23.0,3.479
-103.0,-42.0,3.48
-102.0,-38.0,3.481
-90.0,-25.0,3.482
-55.0,-31.0,3.483
-22.0,-54.0,3.484
-2.0,-62.0,3.485
30.0,-37.0,3.486
81.0,-16.0,3.487
99.0,-37.0,3.488
59.0,-74.0,3.489
14.0,-68.0,3.49
19.0,-20.0,3.491
52.0,12.0,3.492
62.0,9.0,3.493
42.0,6.0,3.494
19.0,31.0,3.495
10.0,59.0,3.496
26.0,71.0,3.497
53.0,86.0,3.498
65.0,121.0,3.499
45.0,160.0,3.5
35.0,177.0,3.501
77.0,163.0,3.502
155.0,118.0,3.503
201.0,48.0,3.504
193.0,-21.0,3.505
148.0,-58.0,3.506
88.0,-58.0,3.507
17.0,-47.0,3.508
-64.0,-31.0,3.509
-136.0,-10.0,3.51
-165.0,7.0,3.511
-137.0,-2.0,3.512
-79.0,-40.0,3.513
-57.0,-84.0,3.514
-89.0,-104.0,3.515
-123.0,-94.0,3.516
-122.0,-67.0,3.517
-122.0,-48.0,3.518
-144.0,-41.0,3.519
-156.0,-32.0,3.52
-132.0,-18.0,3.521
-112.0,-14.0,3.522
-102.0,-30.0,3.523
-75.0,-23.0,3.524
5.0,33.0,3.525
56.0,86.0,3.526
19.0,59.0,3.527
-15.0,-28.0,3.528
-43.0,-87.0,3.529
-66.0,-74.0,3.53
-76.0,-34.0,3.531
-65.0,-12.0,3.532
14.0,4.0,3.533
79.0,30.0,3.534
99.0,37.0,3.535
111.0,3.0,3.536
99.0,-35.0,3.537
86.0,-33.0,3.538
63.0,20.0,3.539
50.0,68.0,3.54
59.0,66.0,3.541
85.0,45.0,3.542
144.0,59.0,3.543
225.0,101.0,3.544
242.0,106.0,3.545
140.0,46.0,3.546
13.0,-16.0,3.547
-14.0,-18.0,3.548
18.0,10.0,3.549
-4.0,9.0,3.55
-64.0,-22.0,3.551
-48.0,-37.0,3.552
37.0,-27.0,3.553
86.0,-25.0,3.554
67.0,-39.0,3.555
50.0,-42.0,3.556
51.0,-27.0,3.557
18.0,-23.0,3.558
-45.0,-41.0,3.559
-85.0,-62.0,3.56
-87.0,-66.0,3.561
-89.0,-54.0,3.562
-95.0,-38.0,3.563
-71.0,-13.0,3.564
-36.0,16.0,3.565
-36.0,23.0,3.566
-63.0,-10.0,3.567
-67.0,-45.0,3.568
-35.0,-34.0,3.569
7.0,16.0,3.57
58.0,51.0,3.571
128.0,51.0,3.572
178.0,57.0,3.573
146.0,81.0,3.574
31.0,85.0,3.575
-84.0,48.0,3.576
-129.0,17.0,3.577
-118.0,26.0,3.578
-108.0,47.0,3.579
-120.0,34.0,3.58
-120.0,5.0,3.581
-82.0,6.0,3.582
-37.0,19.0,3.583
-12.0,7.0,3.584
4.0,-17.0,3.585
36.0,-25.0,3.586
67.0,-21.0,3.587
70.0,-30.0,3.588
52.0,-41.0,3.589
38.0,-33.0,3.59
34.0,-24.0,3.591
33.0,-33.0,3.592
36.0,-48.0,3.593
43.0,-45.0,3.594
39.0,-31.0,3.595
20.0,-24.0,3.596
14.0,-11.0,3.597
39.0,18.0,3.598
71.0,50.0,3.599
88.0,52.0,3.6
61.0,22.0,3.601
33.0,1.0,3.602
7.0,0.0,3.603
-17.0,3.0,3.604
-40.0,-1.0,3.605
-57.0,-6.0,3.606
-53.0,-1.0,3.607
-59.0,1.0,3.608
-97.0,-9.0,3.609
-126.0,-24.0,3.61
-127.0,-32.0,3.611
-116.0,-31.0,3.612
-65.0,-30.0,3.613
-13.0,-32.0,3.614
44.0,-35.0,3.615
80.0,-31.0,3.616
54.0,-25.0,3.617
21.0,-13.0,3.618
-18.0,6.0,3.619
-27.0,26.0,3.62
-23.0,33.0,3.621
-7.0,39.0,3.622
44.0,53.0,3.623
102.0,60.0,3.624
96.0,40.0,3.625
17.0,7.0,3.626
-47.0,-4.0,3.627
-28.0,9.0,3.628
23.0,13.0,3.629
30.0,-6.0,3.63
-4.0,-21.0,3.631
-24.0,-20.0,3.632
-22.0,-16.0,3.633
-23.0,-24.0,3.634
-22.0,-33.0,3.635
-4.0,-29.0,3.636
19.0,-21.0,3.637
23.0,-25.0,3.638
18.0,-25.0,3.639
21.0,-14.0,3.64
28.0,0.0,3.641
21.0,22.0,3.642
18.0,50.0,3.643
35.0,71.0,3.644
61.0,70.0,3.645
74.0,48.0,3.646
81.0,27.0,3.647
85.0,13.0,3.648
72.0,5.0,3.649
37.0,1.0,3.65
4.0,1.0,3.651
-13.0,1.0,3.652
-32.0,0.0,3.653
-63.0,0.0,3.654
-76.0,-2.0,3.655
-57.0,-8.0,3.656
-31.0,-14.0,3.657
-18.0,-22.0,3.658
0.0,-27.0,3.659
34.0,-32.0,3.66
65.0,-30.0,3.661
69.0,-12.0,3.662
59.0,2.0,3.663
43.0,0.0,3.664
14.0,-4.0,3.665
-24.0,6.0,3.666
-45.0,22.0,3.667
-45.0,23.0,3.668
-57.0,12.0,3.669
-85.0,11.0,3.67
-88.0,20.0,3.671
-57.0,22.0,3.672
-27.0,12.0,3.673
-21.0,5.0,3.674
-20.0,0.0,3.675
-7.0,-12.0,3.676
0.0,-31.0,3.677
-13.0,-46.0,3.678
-19.0,-45.0,3.679
-22.0,-37.0,3.68
-16.0,-34.0,3.681
-10.0,-27.0,3.682
-4.0,-13.0,3.683
2.0,-3.0,3.684
11.0,1.0,3.685
22.0,5.0,3.686
35.0,10.0,3.687
46.0,13.0,3.688
53.0,14.0,3.689
56.0,17.0,3.69
43.0,21.0,3.691
36.0,20.0,3.692
52.0,14.0,3.693
67.0,13.0,3.694
80.0,16.0,3.695
83.0,15.0,3.696
53.0,9.0,3.697
16.0,-1.0,3.698
-21.0,-5.0,3.699
-37.0,-5.0,3.7
-47.0,-9.0,3.701
-67.0,-11.0,3.702
-83.0,-10.0,3.703
-86.0,-9.0,3.704
-86.0,-12.0,3.705
-81.0,-16.0,3.706
-48.0,-14.0,3.707
13.0,-9.0,3.708
54.0,-7.0,3.709
44.0,-4.0,3.71
15.0,5.0,3.711
14.0,17.0,3.712
36.0,19.0,3.713
51.0,7.0,3.714
57.0,-6.0,3.715
66.0,-6.0,3.716
67.0,-3.0,3.717
27.0,-5.0,3.718
-26.0,-6.0,3.719
-51.0,-3.0,3.72
-45.0,1.0,3.721
-31.0,0.0,3.722
-19.0,-4.0,3.723
-2.0,-6.0,3.724
10.0,-3.0,3.725
5.0,-1.0,3.726
-5.0,-4.0,3.727
0.0,-3.0,3.728
24.0,4.0,3.729
36.0,15.0,3.73
21.0,19.0,3.731
-2.0,18.0,3.732
-6.0,22.0,3.733
6.0,29.0,3.734
18.0,30.0,3.735
13.0,22.0,3.736
-3.0,13.0,3.737
-28.0,-2.0,3.738
-47.0,-19.0,3.739
-58.0,-37.0,3.74
-61.0,-47.0,3.741
-54.0,-37.0,3.742
-36.0,-22.0,3.743
-16.0,-11.0,3.744
-5.0,-8.0,3.745
-4.0,-4.0,3.746
1.0,-2.0,3.747
18.0,-5.0,3.748
36.0,-7.0,3.749
48.0,-2.0,3.75
53.0,1.0,3.751
56.0,2.0,3.752
59.0,4.0,3.753
58.0,10.0,3.754
57.0,15.0,3.755
57.0,14.0,3.756
59.0,12.0,3.757
53.0,13.0,3.758
36.0,12.0,3.759
13.0,8.0,3.76
-5.0,6.0,3.761
-5.0,11.0,3.762
8.0,10.0,3.763
15.0,0.0,3.764
2.0,-5.0,3.765
-28.0,-1.0,3.766
-62.0,1.0,3.767
-86.0,-5.0,3.768
-83.0,-13.0,3.769
-42.0,-10.0,3.77
28.0,-2.0,3.771
91.0,-1.0,3.772
107.0,-3.0,3.773
66.0,0.0,3.774
6.0,8.0,3.775
-39.0,7.0,3.776
-60.0,-8.0,3.777
-68.0,-26.0,3.778
-66.0,-27.0,3.779
-63.0,-28.0,3.78
-57.0,-28.0,3.781
-51.0,-27.0,3.782
-43.0,-31.0,3.783
-28.0,-29.0,3.784
4.0,-8.0,3.785
22.0,7.0,3.786
-2.0,3.0,3.787
-19.0,-1.0,3.788
-14.0,-6.0,3.789
-3.0,-8.0,3.79
25.0,-2.0,3.791
58.0,5.0,3.792
107.0,21.0,3.793
134.0,33.0,3.794
90.0,31.0,3.795
42.0,28.0,3.796
-18.0,20.0,3.797
-67.0,12.0,3.798
-79.0,9.0,3.799
-82.0,12.0,3.8
-87.0,14.0,3.801
-85.0,9.0,3.802
-67.0,-6.0,3.803
-39.0,-22.0,3.804
-16.0,-23.0,3.805
-1.0,-11.0,3.806
14.0,-7.0,3.807
36.0,-16.0,3.808
51.0,-27.0,3.809
47.0,-24.0,3.81
39.0,-7.0,3.811
48.0,6.0,3.812
60.0,7.0,3.813
47.0,2.0,3.814
11.0,1.0,3.815
-5.0,8.0,3.816
19.0,15.0,3.817
61.0,17.0,3.818
80.0,17.0,3.819
71.0,17.0,3.82
67.0,13.0,3.821
80.0,12.0,3.822
85.0,15.0,3.823
59.0,18.0,3.824
13.0,14.0,3.825
-33.0,8.0,3.826
-67.0,5.0,3.827
-89.0,8.0,3.828
-98.0,11.0,3.829
-94.0,11.0,3.83
-84.0,0.0,3.831
-75.0,-23.0,3.832
-65.0,-53.0,3.833
-51.0,-72.0,3.834
-36.0,-64.0,3.835
-25.0,-36.0,3.836
-15.0,-13.0,3.837
-1.0,-6.0,3.838
20.0,-3.0,3.839
41.0,7.0,3.84
57.0,17.0,3.841
64.0,23.0,3.842
61.0,24.0,3.843
51.0,25.0,3.844
47.0,28.0,3.845
61.0,33.0,3.846
85.0,40.0,3.847
94.0,43.0,3.848
65.0,39.0,3.849
4.0,26.0,3.85
-59.0,5.0,3.851
-92.0,-22.0,3.852
-89.0,-47.0,3.853
-65.0,-54.0,3.854
-46.0,-41.0,3.855
-37.0,-27.0,3.856
-32.0,-27.0,3.857
-22.0,-37.0,3.858
-12.0,-30.0,3.859
-3.0,-8.0,3.86
6.0,5.0,3.861
17.0,6.0,3.862
36.0,6.0,3.863
49.0,9.0,3.864
43.0,11.0,3.865
43.0,7.0,3.866
60.0,8.0,3.867
72.0,15.0,3.868
64.0,25.0,3.869
45.0,24.0,3.87
-2.0,19.0,3.871
-38.0,15.0,3.872
-38.0,12.0,3.873
-35.0,10.0,3.874
-19.0,7.0,3.875
-5.0,1.0,3.876
0.0,-6.0,3.877
3.0,-17.0,3.878
-4.0,-23.0,3.879
-5.0,-18.0,3.88
4.0,-9.0,3.881
15.0,-2.0,3.882
21.0,0.0,3.883
26.0,6.0,3.884
31.0,17.0,3.885
28.0,27.0,3.886
17.0,26.0,3.887
5.0,16.0,3.888
-5.0,9.0,3.889
-20.0,8.0,3.89
-41.0,0.0,3.891
-63.0,-10.0,3.892
-89.0,-21.0,3.893
-116.0,-37.0,3.894
-129.0,-59.0,3.895
-107.0,-71.0,3.896
-64.0,-54.0,3.897
-25.0,-20.0,3.898
-6.0,2.0,3.899
3.0,3.0,3.9
22.0,-3.0,3.901
60.0,-5.0,3.902
118.0,-9.0,3.903
183.0,-10.0,3.904
211.0,7.0,3.905
166.0,36.0,3.906
67.0,52.0,3.907
-23.0,48.0,3.908
-67.0,47.0,3.909
-82.0,55.0,3.91
-89.0,54.0,3.911
-80.0,33.0,3.912
-49.0,2.0,3.913
-21.0,-33.0,3.914
-32.0,-75.0,3.915
-67.0,-108.0,3.916
-80.0,-105.0,3.917
-56.0,-69.0,3.918
-17.0,-29.0,3.919
6.0,-8.0,3.92
20.0,0.0,3.921
32.0,13.0,3.922
42.0,26.0,3.923
41.0,33.0,3.924
34.0,37.0,3.925
30.0,41.0,3.926
27.0,30.0,3.927
22.0,0.0,3.928
15.0,-25.0,3.929
14.0,-27.0,3.93
18.0,-13.0,3.931
21.0,0.0,3.932
25.0,9.0,3.933
38.0,15.0,3.934
58.0,14.0,3.935
67.0,5.0,3.936
57.0,3.0,3.937
35.0,13.0,3.938
25.0,30.0,3.939
30.0,31.0,3.94
37.0,13.0,3.941
37.0,0.0,3.942
33.0,3.0,3.943
23.0,13.0,3.944
6.0,23.0,3.945
-15.0,29.0,3.946
-25.0,32.0,3.947
-20.0,23.0,3.948
-14.0,6.0,3.949
-11.0,-6.0,3.95
-4.0,-10.0,3.951
11.0,-17.0,3.952
27.0,-28.0,3.953
44.0,-28.0,3.954
66.0,-7.0,3.955
83.0,22.0,3.956
72.0,39.0,3.957
9.0,35.0,3.958
-76.0,23.0,3.959
-149.0,2.0,3.96
-186.0,-24.0,3.961
-194.0,-45.0,3.962
-185.0,-51.0,3.963
-170.0,-52.0,3.964
-152.0,-63.0,3.965
-118.0,-69.0,3.966
-59.0,-53.0,3.967
6.0,-26.0,3.968
49.0,-9.0,3.969
61.0,-4.0,3.97
68.0,3.0,3.971
84.0,17.0,3.972
94.0,23.0,3.973
98.0,21.0,3.974
116.0,24.0,3.975
153.0,35.0,3.976
179.0,43.0,3.977
165.0,43.0,3.978
121.0,45.0,3.979
80.0,45.0,3.98
52.0,35.0,3.981
30.0,25.0,3.982
13.0,17.0,3.983
-2.0,9.0,3.984
-34.0,6.0,3.985
-101.0,-4.0,3.986
-176.0,-39.0,3.987
-206.0,-68.0,3.988
-175.0,-78.0,3.989
-124.0,-81.0,3.99
-92.0,-55.0,3.991
-76.0,-33.0,3.992
-51.0,-22.0,3.993
-12.0,-12.0,3.994
30.0,-9.0,3.995
61.0,-4.0,3.996
83.0,3.0,3.997
99.0,11.0,3.998
122.0,16.0,3.999
151.0,22.0,4.0
170.0,32.0,4.001
163.0,47.0,4.002
133.0,59.0,4.003
99.0,59.0,4.004
66.0,53.0,4.005
20.0,45.0,4.006
-42.0,23.0,4.007
-113.0,-21.0,4.008
-177.0,-68.0,4.009
-215.0,-85.0,4.01
-208.0,-63.0,4.011
-164.0,-22.0,4.012
-113.0,3.0,4.013
-77.0,7.0,4.014
-55.0,-2.0,4.015
-38.0,-11.0,4.016
-19.0,-16.0,4.017
2.0,-20.0,4.018
30.0,-19.0,4.019
52.0,-9.0,4.02
65.0,2.0,4.021
68.0,10.0,4.022
68.0,10.0,4.023
72.0,12.0,4.024
71.0,20.0,4.025
63.0,27.0,4.026
59.0,23.0,4.027
74.0,14.0,4.028
113.0,12.0,4.029
160.0,15.0,4.03
170.0,16.0,4.031
118.0,19.0,4.032
42.0,31.0,4.033
9.0,50.0,4.034
20.0,61.0,4.035
6.0,53.0,4.036
-59.0,30.0,4.037
-126.0,-3.0,4.038
-131.0,-30.0,4.039
-86.0,-39.0,4.04
-48.0,-41.0,4.041
-30.0,-54.0,4.042
-10.0,-80.0,4.043
15.0,-83.0,4.044
24.0,-44.0,4.045
24.0,7.0,4.046
23.0,24.0,4.047
4.0,10.0,4.048
-42.0,4.0,4.049
-88.0,20.0,4.05
-97.0,31.0,4.051
-73.0,22.0,4.052
-36.0,5.0,4.053
12.0,-5.0,4.054
65.0,-12.0,4.055
93.0,-9.0,4.056
81.0,12.0,4.057
39.0,33.0,4.058
-2.0,28.0,4.059
-42.0,-1.0,4.06
-79.0,-27.0,4.061
-113.0,-45.0,4.062
-135.0,-71.0,4.063
-143.0,-95.0,4.064
-103.0,-85.0,4.065
-57.0,-39.0,4.066
4.0,0.0,4.067
51.0,12.0,4.068
53.0,16.0,4.069
57.0,27.0,4.07
62.0,34.0,4.071
66.0,28.0,4.072
64.0,20.0,4.073
66.0,23.0,4.074
83.0,34.0,4.075
97.0,44.0,4.076
101.0,53.0,4.077
96.0,51.0,4.078
55.0,39.0,4.079
9.0,27.0,4.08
-17.0,20.0,4.081
-8.0,17.0,4.082
21.0,7.0,4.083
35.0,-8.0,4.084
23.0,-19.0,4.085
17.0,-17.0,4.086
35.0,-11.0,4.087
56.0,-5.0,4.088
44.0,2.0,4.089
5.0,9.0,4.09
-25.0,14.0,4.091
-22.0,19.0,4.092
8.0,25.0,4.093
36.0,25.0,4.094
40.0,16.0,4.095
25.0,14.0,4.096
19.0,25.0,4.097
21.0,26.0,4.098
1.0,4.0,4.099
-59.0,-37.0,4.1
-134.0,-78.0,4.101
-181.0,-99.0,4.102
-187.0,-94.0,4.103
-159.0,-60.0,4.104
-109.0,-20.0,4.105
-43.0,-7.0,4.106
22.0,-26.0,4.107
70.0,-41.0,4.108
79.0,-22.0,4.109
45.0,2.0,4.11
-11.0,0.0,4.111
-45.0,-18.0,4.112
-36.0,-19.0,4.113
-12.0,-8.0,4.114
0.0,-5.0,4.115
15.0,-2.0,4.116
52.0,24.0,4.117
117.0,55.0,4.118
179.0,56.0,4.119
197.0,30.0,4.12
150.0,12.0,4.121
55.0,23.0,4.122
-38.0,35.0,4.123
-89.0,28.0,4.124
-111.0,20.0,4.125
-135.0,22.0,4.126
-159.0,23.0,4.127
-150.0,-2.0,4.128
-115.0,-48.0,4.129
-88.0,-82.0,4.13
-72.0,-78.0,4.131
-35.0,-46.0,4.132
13.0,-20.0,4.133
35.0,-12.0,4.134
29.0,-7.0,4.135
34.0,6.0,4.136
61.0,18.0,4.137
76.0,18.0,4.138
70.0,20.0,4.139
70.0,33.0,4.14
91.0,38.0,4.141
108.0,33.0,4.142
97.0,28.0,4.143
71.0,32.0,4.144
52.0,34.0,4.145
41.0,25.0,4.146
30.0,13.0,4.147
18.0,9.0,4.148
3.0,8.0,4.149
-15.0,5.0,4.15
-27.0,8.0,4.151
-23.0,12.0,4.152
-9.0,7.0,4.153
-3.0,-4.0,4.154
-2.0,-5.0,4.155
25.0,7.0,4.156
89.0,20.0,4.157
171.0,19.0,4.158
211.0,14.0,4.159
165.0,11.0,4.16
55.0,2.0,4.161
-50.0,-10.0,4.162
-116.0,-18.0,4.163
-168.0,-22.0,4.164
-220.0,-31.0,4.165
-243.0,-41.0,4.166
-210.0,-43.0,4.167
-147.0,-33.0,4.168
-89.0,-17.0,4.169
-40.0,-7.0,4.17
0.0,-8.0,4.171
12.0,-22.0,4.172
0.0,-37.0,4.173
18.0,-37.0,4.174
86.0,-18.0,4.175
143.0,2.0,4.176
136.0,9.0,4.177
87.0,1.0,4.178
54.0,-1.0,4.179
39.0,11.0,4.18
4.0,28.0,4.181
-39.0,36.0,4.182
-47.0,34.0,4.183
-16.0,24.0,4.184
12.0,3.0,4.185
30.0,-23.0,4.186
59.0,-44.0,4.187
87.0,-34.0,4.188
85.0,5.0,4.189
60.0,40.0,4.19
47.0,47.0,4.191
38.0,35.0,4.192
-9.0,24.0,4.193
-89.0,16.0,4.194
-151.0,10.0,4.195
-163.0,8.0,4.196
-137.0,6.0,4.197
-97.0,-14.0,4.198
-61.0,-50.0,4.199
-41.0,-75.0,4.2
-34.0,-69.0,4.201
-13.0,-38.0,4.202
28.0,-13.0,4.203
60.0,-3.0,4.204
57.0,0.0,4.205
38.0,0.0,4.206
35.0,-5.0,4.207
40.0,-10.0,4.208
36.0,-3.0,4.209
26.0,10.0,4.21
34.0,23.0,4.211
58.0,31.0,4.212
82.0,40.0,4.213
87.0,49.0,4.214
72.0,44.0,4.215
38.0,29.0,4.216
6.0,19.0,4.217
-10.0,19.0,4.218
-10.0,15.0,4.219
-14.0,-2.0,4.22
-27.0,-23.0,4.221
-31.0,-27.0,4.222
-22.0,-16.0,4.223
-14.0,-6.0,4.224
-13.0,-2.0,4.225
-10.0,0.0,4.226
7.0,2.0,4.227
34.0,4.0,4.228
65.0,10.0,4.229
92.0,20.0,4.23
100.0,31.0,4.231
79.0,32.0,4.232
63.0,25.0,4.233
87.0,19.0,4.234
133.0,14.0,4.235
141.0,5.0,4.236
84.0,-8.0,4.237
-22.0,-18.0,4.238
-123.0,-20.0,4.239
-189.0,-18.0,4.24
-219.0,-21.0,4.241
-233.0,-27.0,4.242
-248.0,-42.0,4.243
-259.0,-69.0,4.244
-233.0,-95.0,4.245
-154.0,-91.0,4.246
-50.0,-59.0,4.247
20.0,-30.0,4.248
42.0,-20.0,4.249
50.0,-10.0,4.25
63.0,9.0,4.251
78.0,30.0,4.252
85.0,40.0,4.253
96.0,48.0,4.254
121.0,58.0,4.255
142.0,60.0,4.256
138.0,50.0,4.257
105.0,39.0,4.258
59.0,38.0,4.259
21.0,33.0,4.26
0.0,6.0,4.261
-10.0,-25.0,4.262
-21.0,-46.0,4.263
-33.0,-55.0,4.264
-42.0,-49.0,4.265
-36.0,-25.0,4.266
-15.0,14.0,4.267
7.0,36.0,4.268
8.0,27.0,4.269
-5.0,7.0,4.27
-6.0,9.0,4.271
24.0,26.0,4.272
54.0,31.0,4.273
56.0,20.0,4.274
39.0,7.0,4.275
38.0,1.0,4.276
56.0,-2.0,4.277
60.0,-10.0,4.278
39.0,-11.0,4.279
19.0,-7.0,4.28
23.0,-6.0,4.281
39.0,-6.0,4.282
55.0,-3.0,4.283
67.0,5.0,4.284
56.0,11.0,4.285
1.0,9.0,4.286
-63.0,1.0,4.287
-62.0,-4.0,4.288
14.0,3.0,4.289
91.0,18.0,4.29
91.0,25.0,4.291
38.0,20.0,4.292
4.0,16.0,4.293
3.0,18.0,4.294
-27.0,13.0,4.295
-127.0,-17.0,4.296
-236.0,-57.0,4.297
-284.0,-82.0,4.298
-250.0,-77.0,4.299
-188.0,-56.0,4.3
-148.0,-49.0,4.301
-132.0,-55.0,4.302
-113.0,-56.0,4.303
-71.0,-42.0,4.304
-8.0,-19.0,4.305
48.0,0.0,4.306
74.0,11.0,4.307
75.0,19.0,4.308
83.0,26.0,4.309
103.0,31.0,4.31
102.0,29.0,4.311
73.0,17.0,4.312
52.0,9.0,4.313
61.0,13.0,4.314
79.0,30.0,4.315
80.0,41.0,4.316
71.0,37.0,4.317
66.0,28.0,4.318
59.0,23.0,4.319
44.0,23.0,4.32
41.0,21.0,4.321
76.0,21.0,4.322
133.0,23.0,4.323
166.0,29.0,4.324
137.0,38.0,4.325
63.0,47.0,4.326
-5.0,46.0,4.327
-42.0,26.0,4.328
-72.0,-12.0,4.329
-114.0,-54.0,4.33
-150.0,-82.0,4.331
-151.0,-86.0,4.332
-124.0,-66.0,4.333
-93.0,-39.0,4.334
-61.0,-27.0,4.335
-18.0,-28.0,4.336
17.0,-26.0,4.337
25.0,-16.0,4.338
10.0,-7.0,4.339
-5.0,-7.0,4.34
-3.0,-8.0,4.341
5.0,-3.0,4.342
10.0,5.0,4.343
8.0,12.0,4.344
7.0,28.0,4.345
16.0,45.0,4.346
37.0,48.0,4.347
54.0,34.0,4.348
44.0,26.0,4.349
9.0,36.0,4.35
-2.0,42.0,4.351
40.0,31.0,4.352
100.0,11.0,4.353
108.0,3.0,4.354
53.0,2.0,4.355
-9.0,0.0,4.356
-17.0,-3.0,4.357
16.0,-8.0,4.358
53.0,-14.0,4.359
70.0,-19.0,4.36
77.0,-21.0,4.361
72.0,-16.0,4.362
39.0,-16.0,4.363
-18.0,-22.0,4.364
-71.0,-26.0,4.365
-91.0,-22.0,4.366
-63.0,-12.0,4.367
-5.0,-1.0,4.368
32.0,7.0,4.369
7.0,1.0,4.37
-51.0,-23.0,4.371
-76.0,-44.0,4.372
-69.0,-43.0,4.373
-94.0,-27.0,4.374
-168.0,-14.0,4.375
-218.0,-9.0,4.376
-198.0,-4.0,4.377
-144.0,1.0,4.378
-104.0,1.0,4.379
-71.0,5.0,4.38
-17.0,9.0,4.381
36.0,8.0,4.382
60.0,0.0,4.383
79.0,3.0,4.384
131.0,27.0,4.385
196.0,45.0,4.386
221.0,38.0,4.387
193.0,32.0,4.388
128.0,46.0,4.389
59.0,59.0,4.39
12.0,36.0,4.391
-4.0,0.0,4.392
-16.0,0.0,4.393
-34.0,19.0,4.394
-23.0,9.0,4.395
40.0,-32.0,4.396
94.0,-57.0,4.397
80.0,-46.0,4.398
8.0,-29.0,4.399
-34.0,-32.0,4.4
-17.0,-46.0,4.401
-30.0,-44.0,4.402
-116.0,-38.0,4.403
-190.0,-39.0,4.404
-162.0,-38.0,4.405
-71.0,-22.0,4.406
-17.0,-4.0,4.407
-22.0,2.0,4.408
-39.0,2.0,4.409
-35.0,10.0,4.41
-14.0,22.0,4.411
16.0,26.0,4.412
46.0,26.0,4.413
61.0,31.0,4.414
54.0,40.0,4.415
41.0,42.0,4.416
36.0,35.0,4.417
39.0,29.0,4.418
44.0,30.0,4.419
55.0,32.0,4.42
67.0,22.0,4.421
66.0,7.0,4.422
54.0,-4.0,4.423
50.0,-7.0,4.424
67.0,-3.0,4.425
95.0,6.0,4.426
102.0,16.0,4.427
70.0,16.0,4.428
6.0,3.0,4.429
-52.0,-11.0,4.43
-74.0,-13.0,4.431
-65.0,-3.0,4.432
-46.0,7.0,4.433
-26.0,4.0,4.434
-5.0,-5.0,4.435
9.0,-9.0,4.436
2.0,-8.0,4.437
-23.0,-9.0,4.438
-44.0,-11.0,4.439
-46.0,-14.0,4.44
-40.0,-16.0,4.441
-40.0,-12.0,4.442
-38.0,1.0,4.443
-13.0,19.0,4.444
32.0,23.0,4.445
57.0,-1.0,4.446
29.0,-33.0,4.447
-20.0,-45.0,4.448
-27.0,-37.0,4.449
17.0,-23.0,4.45
50.0,-17.0,4.451
25.0,-17.0,4.452
-18.0,-15.0,4.453
-22.0,-13.0,4.454
4.0,-10.0,4.455
6.0,-8.0,4.456
-19.0,-4.0,4.457
-41.0,-6.0,4.458
-43.0,-7.0,4.459
-40.0,0.0,4.46
-32.0,5.0,4.461
-1.0,6.0,4.462
52.0,0.0,4.463
103.0,-2.0,4.464
126.0,10.0,4.465
113.0,25.0,4.466
61.0,31.0,4.467
-2.0,26.0,4.468
-24.0,17.0,4.469
3.0,10.0,4.47
17.0,1.0,4.471
-33.0,-9.0,4.472
-101.0,-17.0,4.473
-106.0,-12.0,4.474
-49.0,3.0,4.475
-8.0,15.0,4.476
-22.0,18.0,4.477
-60.0,15.0,4.478
-64.0,15.0,4.479
-31.0,15.0,4.48
0.0,4.0,4.481
-5.0,-9.0,4.482
-33.0,-19.0,4.483
-45.0,-24.0,4.484
-29.0,-28.0,4.485
-6.0,-29.0,4.486
3.0,-26.0,4.487
10.0,-20.0,4.488
22.0,-13.0,4.489
33.0,-2.0,4.49
37.0,10.0,4.491
51.0,13.0,4.492
72.0,8.0,4.493
73.0,5.0,4.494
41.0,12.0,4.495
7.0,20.0,4.496
-1.0,18.0,4.497
16.0,10.0,4.498
36.0,8.0,4.499
53.0,9.0,4.5
69.0,3.0,4.501
78.0,-6.0,4.502
76.0,-7.0,4.503
63.0,3.0,4.504
33.0,13.0,4.505
-9.0,20.0,4.506
-51.0,21.0,4.507
-72.0,14.0,4.508
-71.0,-2.0,4.509
-60.0,-18.0,4.51
-42.0,-25.0,4.511
-21.0,-29.0,4.512
-7.0,-32.0,4.513
-7.0,-27.0,4.514
-9.0,-6.0,4.515
-1.0,18.0,4.516
8.0,35.0,4.517
2.0,38.0,4.518
-1.0,43.0,4.519
20.0,42.0,4.52
67.0,25.0,4.521
106.0,2.0,4.522
104.0,-9.0,4.523
56.0,-9.0,4.524
-10.0,-15.0,4.525
-64.0,-32.0,4.526
-92.0,-46.0,4.527
-109.0,-41.0,4.528
-120.0,-18.0,4.529
-103.0,5.0,4.53
-44.0,13.0,4.531
24.0,3.0,4.532
42.0,-20.0,4.533
8.0,-36.0,4.534
-23.0,-30.0,4.535
-12.0,-7.0,4.536
24.0,13.0,4.537
40.0,17.0,4.538
29.0,10.0,4.539
7.0,-1.0,4.54
-2.0,-21.0,4.541
13.0,-36.0,4.542
43.0,-37.0,4.543
63.0,-21.0,4.544
52.0,1.0,4.545
18.0,13.0,4.546
-11.0,11.0,4.547
-17.0,4.0,4.548
-16.0,4.0,4.549
-18.0,8.0,4.55
-21.0,12.0,4.551
-18.0,14.0,4.552
-7.0,19.0,4.553
9.0,24.0,4.554
28.0,23.0,4.555
38.0,20.0,4.556
34.0,19.0,4.557
26.0,18.0,4.558
26.0,12.0,4.559
27.0,2.0,4.56
17.0,-5.0,4.561
0.0,-3.0,4.562
-1.0,2.0,4.563
12.0,4.0,4.564
18.0,5.0,4.565
1.0,6.0,4.566
-27.0,9.0,4.567
-51.0,12.0,4.568
-61.0,11.0,4.569
-56.0,9.0,4.57
-38.0,3.0,4.571
-12.0,-5.0,4.572
13.0,-11.0,4.573
31.0,-17.0,4.574
38.0,-25.0,4.575
32.0,-29.0,4.576
17.0,-24.0,4.577
-2.0,-15.0,4.578
-13.0,-7.0,4.579
-8.0,-1.0,4.58
7.0,0.0,4.581
27.0,2.0,4.582
49.0,8.0,4.583
59.0,14.0,4.584
47.0,15.0,4.585
25.0,14.0,4.586
33.0,16.0,4.587
68.0,22.0,4.588
75.0,25.0,4.589
24.0,22.0,4.59
-48.0,13.0,4.591
-89.0,8.0,4.592
-89.0,-1.0,4.593
-71.0,-20.0,4.594
-49.0,-50.0,4.595
-45.0,-73.0,4.596
-70.0,-74.0,4.597
-98.0,-63.0,4.598
-69.0,-46.0,4.599
0.0,-27.0,4.6
34.0,-11.0,4.601
10.0,-2.0,4.602
-5.0,2.0,4.603
30.0,12.0,4.604
75.0,31.0,4.605
81.0,45.0,4.606
63.0,48.0,4.607
46.0,40.0,4.608
22.0,27.0,4.609
-8.0,13.0,4.61
-21.0,3.0,4.611
-12.0,2.0,4.612
-11.0,6.0,4.613
-20.0,6.0,4.614
-16.0,0.0,4.615
3.0,-1.0,4.616
16.0,6.0,4.617
16.0,11.0,4.618
20.0,7.0,4.619
33.0,2.0,4.62
44.0,3.0,4.621
59.0,8.0,4.622
81.0,7.0,4.623
78.0,-3.0,4.624
22.0,-7.0,4.625
-55.0,-1.0,4.626
-81.0,5.0,4.627
-50.0,-3.0,4.628
-21.0,-20.0,4.629
-19.0,-27.0,4.63
-12.0,-15.0,4.631
28.0,0.0,4.632
66.0,9.0,4.633
57.0,8.0,4.634
9.0,6.0,4.635
-23.0,6.0,4.636
-18.0,7.0,4.637
6.0,8.0,4.638
3.0,10.0,4.639
-43.0,8.0,4.64
-83.0,-5.0,4.641
-65.0,-17.0,4.642
7.0,-16.0,4.643
60.0,-8.0,4.644
46.0,-5.0,4.645
-1.0,-4.0,4.646
-20.0,-2.0,4.647
-1.0,-5.0,4.648
11.0,-17.0,4.649
-12.0,-31.0,4.65
-50.0,-33.0,4.651
-57.0,-26.0,4.652
-30.0,-23.0,4.653
-1.0,-18.0,4.654
6.0,-2.0,4.655
5.0,18.0,4.656
15.0,29.0,4.657
21.0,22.0,4.658
6.0,13.0,4.659
-17.0,19.0,4.66
-13.0,29.0,4.661
24.0,31.0,4.662
64.0,22.0,4.663
82.0,13.0,4.664
78.0,10.0,4.665
68.0,5.0,4.666
53.0,1.0,4.667
26.0,-5.0,4.668
-11.0,-13.0,4.669
-45.0,-22.0,4.67
-55.0,-27.0,4.671
-32.0,-22.0,4.672
0.0,-13.0,4.673
10.0,-8.0,4.674
-5.0,-8.0,4.675
-18.0,-5.0,4.676
-2.0,6.0,4.677
33.0,14.0,4.678
49.0,15.0,4.679
29.0,9.0,4.68
-5.0,2.0,4.681
-19.0,1.0,4.682
2.0,-4.0,4.683
27.0,-13.0,4.684
28.0,-20.0,4.685
6.0,-13.0,4.686
-10.0,-2.0,4.687
0.0,6.0,4.688
21.0,7.0,4.689
28.0,14.0,4.69
16.0,28.0,4.691
2.0,40.0,4.692
4.0,46.0,4.693
17.0,45.0,4.694
19.0,36.0,4.695
-9.0,18.0,4.696
-47.0,-1.0,4.697
-73.0,-25.0,4.698
-68.0,-48.0,4.699
-56.0,-63.0,4.7
-57.0,-69.0,4.701
-66.0,-61.0,4.702
-64.0,-43.0,4.703
-50.0,-23.0,4.704
-40.0,-7.0,4.705
-32.0,2.0,4.706
-15.0,6.0,4.707
5.0,5.0,4.708
14.0,5.0,4.709
9.0,8.0,4.71
11.0,12.0,4.711
26.0,14.0,4.712
45.0,14.0,4.713
55.0,16.0,4.714
51.0,14.0,4.715
34.0,10.0,4.716
18.0,7.0,4.717
7.0,11.0,4.718
3.0,21.0,4.719
-5.0,27.0,4.72
-10.0,19.0,4.721
3.0,8.0,4.722
42.0,-2.0,4.723
78.0,-8.0,4.724
87.0,-12.0,4.725
72.0,-7.0,4.726
63.0,6.0,4.727
76.0,22.0,4.728
90.0,27.0,4.729
74.0,20.0,4.73
37.0,8.0,4.731
2.0,-4.0,4.732
-17.0,-15.0,4.733
-32.0,-21.0,4.734
-56.0,-25.0,4.735
-77.0,-38.0,4.736
-76.0,-57.0,4.737
-56.0,-67.0,4.738
-33.0,-44.0,4.739
-14.0,-4.0,4.74
15.0,15.0,4.741
59.0,8.0,4.742
102.0,3.0,4.743
116.0,18.0,4.744
101.0,37.0,4.745
82.0,38.0,4.746
75.0,28.0,4.747
55.0,18.0,4.748
-9.0,9.0,4.749
-113.0,0.0,4.75
-198.0,-6.0,4.751
-218.0,-10.0,4.752
-194.0,-28.0,4.753
-181.0,-54.0,4.754
-194.0,-59.0,4.755
-185.0,-34.0,4.756
-119.0,-8.0,4.757
-13.0,-5.0,4.758
69.0,-6.0,4.759
96.0,7.0,4.76
95.0,21.0,4.761
95.0,21.0,4.762
87.0,20.0,4.763
65.0,30.0,4.764
53.0,42.0,4.765
65.0,43.0,4.766
78.0,42.0,4.767
65.0,48.0,4.768
48.0,49.0,4.769
55.0,34.0,4.77
70.0,9.0,4.771
52.0,-12.0,4.772
3.0,-30.0,4.773
-45.0,-43.0,4.774
-72.0,-43.0,4.775
-83.0,-30.0,4.776
-73.0,-17.0,4.777
-35.0,-14.0,4.778
12.0,-12.0,4.779
32.0,-6.0,4.78
15.0,0.0,4.781
1.0,8.0,4.782
40.0,18.0,4.783
127.0,30.0,4.784
194.0,39.0,4.785
168.0,44.0,4.786
59.0,48.0,4.787
-34.0,44.0,4.788
-48.0,20.0,4.789
-21.0,-24.0,4.79
-37.0,-63.0,4.791
-107.0,-78.0,4.792
-166.0,-70.0,4.793
-168.0,-62.0,4.794
-127.0,-59.0,4.795
-83.0,-52.0,4.796
-49.0,-36.0,4.797
-6.0,-24.0,4.798
58.0,-19.0,4.799
123.0,-8.0,4.8
157.0,14.0,4.801
162.0,37.0,4.802
172.0,42.0,4.803
191.0,43.0,4.804
165.0,58.0,4.805
59.0,78.0,4.806
-71.0,79.0,4.807
-140.0,61.0,4.808
-135.0,43.0,4.809
-118.0,24.0,4.81
-124.0,-9.0,4.811
-137.0,-49.0,4.812
-127.0,-70.0,4.813
-76.0,-65.0,4.814
23.0,-60.0,4.815
129.0,-54.0,4.816
156.0,-32.0,4.817
76.0,5.0,4.818
-15.0,31.0,4.819
7.0,31.0,4.82
138.0,21.0,4.821
248.0,27.0,4.822
239.0,36.0,4.823
132.0,34.0,4.824
11.0,30.0,4.825
-63.0,35.0,4.826
-90.0,36.0,4.827
-119.0,14.0,4.828
-186.0,-21.0,4.829
-266.0,-52.0,4.83
-316.0,-67.0,4.831
-322.0,-68.0,4.832
-294.0,-65.0,4.833
-218.0,-61.0,4.834
-87.0,-53.0,4.835
40.0,-36.0,4.836
96.0,-7.0,4.837
95.0,13.0,4.838
95.0,10.0,4.839
88.0,-14.0,4.84
59.0,-38.0,4.841
35.0,-47.0,4.842
27.0,-49.0,4.843
28.0,-48.0,4.844
57.0,-33.0,4.845
92.0,-10.0,4.846
144.0,11.0,4.847
182.0,27.0,4.848
177.0,44.0,4.849
154.0,60.0,4.85
79.0,70.0,4.851
18.0,81.0,4.852
2.0,96.0,4.853
-5.0,95.0,4.854
14.0,72.0,4.855
33.0,45.0,4.856
53.0,32.0,4.857
64.0,16.0,4.858
30.0,-3.0,4.859
-51.0,-15.0,4.86
-128.0,-3.0,4.861
-144.0,1.0,4.862
-92.0,-19.0,4.863
-25.0,-32.0,4.864
32.0,-23.0,4.865
101.0,-10.0,4.866
170.0,14.0,4.867
180.0,36.0,4.868
108.0,54.0,4.869
11.0,66.0,4.87
-56.0,57.0,4.871
-104.0,43.0,4.872
-156.0,17.0,4.873
-189.0,-13.0,4.874
-157.0,-61.0,4.875
-53.0,-95.0,4.876
84.0,-86.0,4.877
237.0,-70.0,4.878
303.0,-35.0,4.879
275.0,1.0,4.88
184.0,43.0,4.881
83.0,73.0,4.882
14.0,72.0,4.883
-26.0,54.0,4.884
-62.0,41.0,4.885
-117.0,27.0,4.886
-175.0,-6.0,4.887
-199.0,-45.0,4.888
-173.0,-73.0,4.889
-136.0,-89.0,4.89
-140.0,-107.0,4.891
-202.0,-117.0,4.892
-277.0,-102.0,4.893
-295.0,-70.0,4.894
-218.0,-37.0,4.895
-68.0,-12.0,4.896
93.0,-8.0,4.897
246.0,-48.0,4.898
352.0,-107.0,4.899
359.0,-120.0,4.9
249.0,-61.0,4.901
110.0,25.0,4.902
48.0,80.0,4.903
55.0,104.0,4.904
31.0,125.0,4.905
-40.0,135.0,4.906
-86.0,105.0,4.907
-95.0,45.0,4.908
-155.0,-5.0,4.909
-294.0,-35.0,4.91
-404.0,-54.0,4.911
-381.0,-68.0,4.912
-242.0,-58.0,4.913
-68.0,-21.0,4.914
83.0,26.0,4.915
168.0,67.0,4.916
166.0,87.0,4.917
-220.0,79.0,4.918
-298.0,54.0,4.919
-338.0,32.0,4.92
-265.0,16.0,4.921
-180.0,5.0,4.922
-61.0,-11.0,4.923
45.0,-26.0,4.924
124.0,-29.0,4.925
144.0,-21.0,4.926
-18.0,-8.0,4.927
-132.0,12.0,4.928
-96.0,35.0,4.929
-30.0,51.0,4.93
123.0,50.0,4.931
237.0,40.0,4.932
229.0,26.0,4.933
201.0,7.0,4.934
118.0,-9.0,4.935
44.0,-5.0,4.936
0.0,22.0,4.937
-249.0,37.0,4.938
-338.0,15.0,4.939
-384.0,-8.0,4.94
-300.0,-32.0,4.941
-203.0,-43.0,4.942
-68.0,-13.0,4.943
55.0,-1.0,4.944
145.0,-41.0,4.945
167.0,-75.0,4.946
-19.0,-91.0,4.947
-149.0,-93.0,4.948
-107.0,-54.0,4.949
-32.0,-25.0,4.95
143.0,-29.0,4.951
273.0,-32.0,4.952
264.0,-31.0,4.953
233.0,-14.0,4.954
138.0,51.0,4.955
53.0,107.0,4.956
3.0,137.0,4.957
-34.0,156.0,4.958
-23.0,122.0,4.959
29.0,52.0,4.96
119.0,-48.0,4.961
190.0,-128.0,4.962
217.0,-129.0,4.963
204.0,-54.0,4.964
107.0,27.0,4.965
-114.0,60.0,4.966
-358.0,61.0,4.967
-448.0,63.0,4.968
-365.0,49.0,4.969
-271.0,-16.0,4.97
-245.0,-113.0,4.971
-185.0,-180.0,4.972
-35.0,-186.0,4.973
88.0,-145.0,4.974
95.0,-77.0,4.975
62.0,2.0,4.976
60.0,71.0,4.977
23.0,14.0,4.978
-63.0,-81.0,4.979
-103.0,-159.0,4.98
2.0,-183.0,4.981
92.0,-195.0,4.982
135.0,-167.0,4.983
176.0,-139.0,4.984
211.0,-113.0,4.985
230.0,-84.0,4.986
196.0,-49.0,4.987
179.0,-16.0,4.988
213.0,14.0,4.989
249.0,42.0,4.99
290.0,59.0,4.991
315.0,76.0,4.992
287.0,90.0,4.993
228.0,100.0,4.994
81.0,94.0,4.995
-48.0,84.0,4.996
-125.0,60.0,4.997
-203.0,29.0,4.998
-327.0,-100.0,4.999
-480.0,-205.0,5.0
-535.0,-238.0,5.001
-474.0,-254.0,5.002
-400.0,-216.0,5.003
-359.0,-178.0,5.004
-257.0,-143.0,5.005
-45.0,-104.0,5.006
186.0,-57.0,5.007
301.0,-12.0,5.008
270.0,29.0,5.009
169.0,66.0,5.01
83.0,90.0,5.011
40.0,112.0,5.012
21.0,132.0,5.013
-7.0,145.0,5.014
-61.0,137.0,5.015
-130.0,123.0,5.016
-171.0,91.0,5.017
-125.0,53.0,5.018
31.0,-2.0,5.019
223.0,-61.0,5.02
298.0,-126.0,5.021
177.0,-158.0,5.022
-15.0,-126.0,5.023
-89.0,-43.0,5.024
-9.0,29.0,5.025
74.0,56.0,5.026
44.0,66.0,5.027
-26.0,70.0,5.028
-24.0,35.0,5.029
34.0,-46.0,5.03
63.0,-112.0,5.031
50.0,-99.0,5.032
28.0,-35.0,5.033
-6.0,7.0,5.034
-49.0,16.0,5.035
-51.0,34.0,5.036
-9.0,59.0,5.037
-6.0,44.0,5.038
-60.0,-13.0,5.039
-53.0,-63.0,5.04
82.0,-78.0,5.041
201.0,-74.0,5.042
171.0,-70.0,5.043
89.0,-49.0,5.044
102.0,-7.0,5.045
136.0,30.0,5.046
46.0,48.0,5.047
-88.0,66.0,5.048
-88.0,91.0,5.049
4.0,94.0,5.05
13.0,54.0,5.051
-35.0,-5.0,5.052
46.0,-40.0,5.053
228.0,-34.0,5.054
238.0,-1.0,5.055
-19.0,39.0,5.056
-271.0,64.0,5.057
-277.0,66.0,5.058
-113.0,39.0,5.059
-66.0,-17.0,5.06
-209.0,-93.0,5.061
-319.0,-151.0,5.062
-220.0,-157.0,5.063
-24.0,-125.0,5.064
59.0,-113.0,5.065
4.0,-141.0,5.066
-50.0,-148.0,5.067
-29.0,-79.0,5.068
4.0,21.0,5.069
-3.0,73.0,5.07
-11.0,79.0,5.071
28.0,100.0,5.072
66.0,143.0,5.073
38.0,150.0,5.074
-27.0,109.0,5.075
-34.0,78.0,5.076
27.0,89.0,5.077
72.0,113.0,5.078
49.0,118.0,5.079
18.0,116.0,5.08
40.0,118.0,5.081
51.0,113.0,5.082
-14.0,76.0,5.083
-94.0,14.0,5.084
-95.0,-46.0,5.085
-27.0,-74.0,5.086
55.0,-57.0,5.087
148.0,-16.0,5.088
250.0,12.0,5.089
289.0,15.0,5.09
239.0,6.0,5.091
171.0,-11.0,5.092
137.0,-42.0,5.093
87.0,-84.0,5.094
-1.0,-125.0,5.095
-52.0,-149.0,5.096
-33.0,-140.0,5.097
-29.0,-89.0,5.098
-91.0,-26.0,5.099
-140.0,-11.0,5.1
-88.0,-39.0,5.101
8.0,-36.0,5.102
46.0,27.0,5.103
12.0,91.0,5.104
-46.0,105.0,5.105
-95.0,99.0,5.106
-106.0,108.0,5.107
-74.0,91.0,5.108
-56.0,19.0,5.109
-118.0,-63.0,5.11
-203.0,-110.0,5.111
-192.0,-128.0,5.112
-70.0,-125.0,5.113
67.0,-76.0,5.114
175.0,1.0,5.115
262.0,39.0,5.116
287.0,12.0,5.117
165.0,-33.0,5.118
-52.0,-26.0,5.119
-178.0,31.0,5.12
-123.0,88.0,5.121
-5.0,109.0,5.122
34.0,76.0,5.123
-5.0,-14.0,5.124
-52.0,-139.0,5.125
-85.0,-247.0,5.126
-95.0,-281.0,5.127
-52.0,-215.0,5.128
33.0,-85.0,5.129
100.0,24.0,5.13
113.0,54.0,5.131
99.0,42.0,5.132
79.0,72.0,5.133
45.0,152.0,5.134
5.0,198.0,5.135
-3.0,165.0,5.136
16.0,103.0,5.137
31.0,65.0,5.138
32.0,61.0,5.139
18.0,64.0,5.14
-29.0,75.0,5.141
-103.0,96.0,5.142
-131.0,104.0,5.143
-72.0,89.0,5.144
0.0,67.0,5.145
-6.0,43.0,5.146
-57.0,0.0,5.147
-58.0,-60.0,5.148
-14.0,-97.0,5.149
0.0,-94.0,5.15
-8.0,-76.0,5.151
41.0,-76.0,5.152
135.0,-73.0,5.153
167.0,-37.0,5.154
92.0,27.0,5.155
-3.0,75.0,5.156
-29.0,81.0,5.157
-5.0,54.0,5.158
2.0,29.0,5.159
-30.0,6.0,5.16
-57.0,-23.0,5.161
-48.0,-51.0,5.162
-14.0,-63.0,5.163
17.0,-61.0,5.164
42.0,-67.0,5.165
63.0,-89.0,5.166
65.0,-121.0,5.167
25.0,-142.0,5.168
-31.0,-141.0,5.169
-41.0,-102.0,5.17
9.0,-30.0,5.171
44.0,39.0,5.172
5.0,75.0,5.173
-56.0,91.0,5.174
-54.0,110.0,5.175
0.0,104.0,5.176
20.0,31.0,5.177
-30.0,-99.0,5.178
-89.0,-180.0,5.179
-88.0,-140.0,5.18
-31.0,-39.0,5.181
31.0,22.0,5.182
69.0,21.0,5.183
76.0,20.0,5.184
58.0,54.0,5.185
25.0,94.0,5.186
-1.0,120.0,5.187
-5.0,136.0,5.188
10.0,142.0,5.189
36.0,120.0,5.19
53.0,80.0,5.191
47.0,55.0,5.192
7.0,53.0,5.193
-54.0,41.0,5.194
-102.0,3.0,5.195
-101.0,-30.0,5.196
-51.0,-30.0,5.197
11.0,-22.0,5.198
42.0,-36.0,5.199
37.0,-47.0,5.2
34.0,-50.0,5.201
52.0,-36.0,5.202
59.0,32.0,5.203
32.0,81.0,5.204
-4.0,73.0,5.205
-8.0,54.0,5.206
-2.0,3.0,5.207
-31.0,-41.0,5.208
-75.0,-66.0,5.209
-58.0,-79.0,5.21
30.0,-49.0,5.211
87.0,-43.0,5.212
45.0,-110.0,5.213
-35.0,-159.0,5.214
-53.0,-149.0,5.215
-18.0,-132.0,5.216
-3.0,-91.0,5.217
-18.0,-55.0,5.218
-15.0,-31.0,5.219
6.0,2.0,5.22
-2.0,38.0,5.221
-33.0,74.0,5.222
-10.0,105.0,5.223
75.0,133.0,5.224
132.0,164.0,5.225
88.0,189.0,5.226
-1.0,178.0,5.227
-44.0,122.0,5.228
-22.0,58.0,5.229
15.0,27.0,5.23
38.0,13.0,5.231
57.0,-31.0,5.232
79.0,-107.0,5.233
69.0,-156.0,5.234
2.0,-146.0,5.235
-88.0,-112.0,5.236
-129.0,-89.0,5.237
-94.0,-74.0,5.238
-29.0,-50.0,5.239
4.0,-28.0,5.24
1.0,-25.0,5.241
-5.0,-29.0,5.242
-1.0,-29.0,5.243
-2.0,-26.0,5.244
-8.0,-24.0,5.245
-3.0,-16.0,5.246
12.0,-3.0,5.247
21.0,3.0,5.248
15.0,-2.0,5.249
-3.0,0.0,5.25
-34.0,10.0,5.251
-62.0,11.0,5.252
-54.0,9.0,5.253
7.0,17.0,5.254
71.0,38.0,5.255
80.0,45.0,5.256
47.0,31.0,5.257
14.0,18.0,5.258
17.0,35.0,5.259
36.0,58.0,5.26
44.0,49.0,5.261
38.0,10.0,5.262
26.0,-19.0,5.263
19.0,-9.0,5.264
16.0,28.0,5.265
-5.0,52.0,5.266
-64.0,40.0,5.267
-125.0,14.0,5.268
-116.0,17.0,5.269
-37.0,49.0,5.27
27.0,70.0,5.271
28.0,54.0,5.272
19.0,21.0,5.273
44.0,-1.0,5.274
55.0,-18.0,5.275
5.0,-44.0,5.276
-34.0,-58.0,5.277
8.0,-43.0,5.278
94.0,-12.0,5.279
107.0,3.0,5.28
42.0,-1.0,5.281
-4.0,-2.0,5.282
10.0,3.0,5.283
17.0,7.0,5.284
-29.0,10.0,5.285
-94.0,17.0,5.286
-130.0,16.0,5.287
-141.0,3.0,5.288
-132.0,-9.0,5.289
-89.0,-13.0,5.29
-12.0,-23.0,5.291
84.0,-45.0,5.292
177.0,-72.0,5.293
223.0,-100.0,5.294
184.0,-133.0,5.295
80.0,-152.0,5.296
5.0,-115.0,5.297
-1.0,72.0,5.298
17.0,34.0,5.299
2.0,-18.0,5.3
-20.0,-117.0,5.301
-17.0,-189.0,5.302
-27.0,-183.0,5.303
-86.0,-160.0,5.304
-138.0,-86.0,5.305
-114.0,-31.0,5.306
-39.0,-31.0,5.307
15.0,-25.0,5.308
37.0,2.0,5.309
47.0,28.0,5.31
26.0,50.0,5.311
-35.0,72.0,5.312
-85.0,94.0,5.313
-68.0,105.0,5.314
-17.0,86.0,5.315
9.0,73.0,5.316
20.0,74.0,5.317
64.0,71.0,5.318
124.0,34.0,5.319
118.0,-18.0,5.32
23.0,-115.0,5.321
-68.0,-186.0,5.322
-59.0,-180.0,5.323
15.0,-157.0,5.324
50.0,-85.0,5.325
14.0,-31.0,5.326
-16.0,-31.0,5.327
4.0,-25.0,5.328
31.0,2.0,5.329
14.0,28.0,5.33
-21.0,49.0,5.331
-30.0,71.0,5.332
-15.0,92.0,5.333
1.0,103.0,5.334
19.0,85.0,5.335
33.0,72.0,5.336
24.0,73.0,5.337
1.0,73.0,5.338
1.0,59.0,5.339
1.0,29.0,5.34
0.0,5.0,5.341
2.0,0.0,5.342
18.0,7.0,5.343
32.0,10.0,5.344
42.0,-1.0,5.345
34.0,-16.0,5.346
-35.0,-20.0,5.347
-82.0,-6.0,5.348
-57.0,12.0,5.349
-37.0,9.0,5.35
-33.0,-18.0,5.351
-32.0,-51.0,5.352
-40.0,-65.0,5.353
-40.0,-59.0,5.354
-15.0,-42.0,5.355
10.0,-25.0,5.356
38.0,-9.0,5.357
60.0,6.0,5.358
63.0,19.0,5.359
82.0,17.0,5.36
87.0,-2.0,5.361
40.0,-11.0,5.362
-43.0,5.0,5.363
-94.0,43.0,5.364
-93.0,70.0,5.365
-88.0,74.0,5.366
-108.0,57.0,5.367
-107.0,26.0,5.368
-31.0,-13.0,5.369
90.0,-47.0,5.37
168.0,-57.0,5.371
161.0,-48.0,5.372
118.0,-37.0,5.373
101.0,-35.0,5.374
109.0,-39.0,5.375
87.0,-36.0,5.376
27.0,-22.0,5.377
-37.0,-1.0,5.378
-56.0,20.0,5.379
-33.0,27.0,5.38
-3.0,18.0,5.381
12.0,17.0,5.382
12.0,31.0,5.383
-1.0,42.0,5.384
-21.0,36.0,5.385
-33.0,16.0,5.386
-43.0,0.0,5.387
-69.0,-11.0,5.388
-87.0,-24.0,5.389
-46.0,-36.0,5.39
41.0,-50.0,5.391
87.0,-73.0,5.392
61.0,-88.0,5.393
48.0,-59.0,5.394
107.0,13.0,5.395
164.0,72.0,5.396
137.0,73.0,5.397
40.0,43.0,5.398
-44.0,41.0,5.399
-114.0,59.0,5.4
-202.0,48.0,5.401
-267.0,12.0,5.402
-251.0,-19.0,5.403
-186.0,-40.0,5.404
-141.0,-64.0,5.405
-105.0,-77.0,5.406
-25.0,-57.0,5.407
71.0,-24.0,5.408
106.0,-15.0,5.409
71.0,-22.0,5.41
30.0,-18.0,5.411
22.0,-7.0,5.412
28.0,-5.0,5.413
32.0,-3.0,5.414
34.0,17.0,5.415
39.0,44.0,5.416
52.0,49.0,5.417
75.0,36.0,5.418
90.0,32.0,5.419
75.0,31.0,5.42
45.0,9.0,5.421
34.0,-23.0,5.422
32.0,-35.0,5.423
7.0,-11.0,5.424
-29.0,28.0,5.425
-28.0,52.0,5.426
7.0,58.0,5.427
13.0,58.0,5.428
-25.0,59.0,5.429
-46.0,60.0,5.43
3.0,41.0,5.431
87.0,6.0,5.432
142.0,-22.0,5.433
142.0,-27.0,5.434
107.0,-24.0,5.435
65.0,-33.0,5.436
46.0,-46.0,5.437
61.0,-53.0,5.438
74.0,-51.0,5.439
32.0,-46.0,5.44
-49.0,-50.0,5.441
-89.0,-53.0,5.442
-55.0,-53.0,5.443
-8.0,-46.0,5.444
-20.0,-25.0,5.445
-64.0,3.0,5.446
-67.0,22.0,5.447
-29.0,32.0,5.448
-16.0,46.0,5.449
-50.0,69.0,5.45
-80.0,77.0,5.451
-61.0,55.0,5.452
-22.0,17.0,5.453
-14.0,-22.0,5.454
-40.0,-70.0,5.455
-50.0,-123.0,5.456
-10.0,-140.0,5.457
52.0,-92.0,5.458
71.0,-6.0,5.459
14.0,54.0,5.46
-63.0,63.0,5.461
-95.0,57.0,5.462
-83.0,67.0,5.463
-73.0,82.0,5.464
-70.0,81.0,5.465
-42.0,64.0,5.466
10.0,47.0,5.467
41.0,35.0,5.468
37.0,27.0,5.469
28.0,16.0,5.47
36.0,-4.0,5.471
45.0,-31.0,5.472
39.0,-45.0,5.473
33.0,-33.0,5.474
41.0,-11.0,5.475
58.0,-7.0,5.476
69.0,-12.0,5.477
60.0,-16.0,5.478
26.0,-11.0,5.479
-26.0,-11.0,5.48
-67.0,-20.0,5.481
-72.0,-27.0,5.482
-54.0,-24.0,5.483
-37.0,-20.0,5.484
-27.0,-12.0,5.485
-3.0,-3.0,5.486
41.0,3.0,5.487
83.0,1.0,5.488
95.0,-2.0,5.489
80.0,3.0,5.49
52.0,10.0,5.491
29.0,5.0,5.492
19.0,-5.0,5.493
20.0,-4.0,5.494
20.0,4.0,5.495
13.0,15.0,5.496
13.0,29.0,5.497
35.0,43.0,5.498
70.0,44.0,5.499
74.0,15.0,5.5
26.0,-26.0,5.501
-48.0,-44.0,5.502
-91.0,-30.0,5.503
-82.0,-8.0,5.504
-46.0,-5.0,5.505
-15.0,-24.0,5.506
1.0,-51.0,5.507
8.0,-69.0,5.508
11.0,-67.0,5.509
7.0,-54.0,5.51
-8.0,-39.0,5.511
-26.0,-22.0,5.512
-20.0,1.0,5.513
18.0,30.0,5.514
61.0,52.0,5.515
73.0,61.0,5.516
55.0,62.0,5.517
22.0,58.0,5.518
-2.0,53.0,5.519
7.0,50.0,5.52
68.0,44.0,5.521
149.0,33.0,5.522
159.0,13.0,5.523
45.0,-7.0,5.524
-130.0,-17.0,5.525
-239.0,-11.0,5.526
-238.0,3.0,5.527
-196.0,5.0,5.528
-172.0,-13.0,5.529
-155.0,-43.0,5.53
-125.0,-63.0,5.531
-94.0,-63.0,5.532
-59.0,-42.0,5.533
-6.0,-8.0,5.534
52.0,17.0,5.535
73.0,20.0,5.536
61.0,6.0,5.537
60.0,-11.0,5.538
79.0,-25.0,5.539
85.0,-37.0,5.54
63.0,-49.0,5.541
48.0,-39.0,5.542
52.0,-10.0,5.543
52.0,21.0,5.544
40.0,41.0,5.545
39.0,53.0,5.546
51.0,59.0,5.547
60.0,56.0,5.548
67.0,43.0,5.549
66.0,25.0,5.55
38.0,3.0,5.551
-10.0,-12.0,5.552
-36.0,-12.0,5.553
-14.0,8.0,5.554
20.0,28.0,5.555
22.0,26.0,5.556
-1.0,8.0,5.557
-24.0,-14.0,5.558
-34.0,-26.0,5.559
-26.0,-31.0,5.56
3.0,-30.0,5.561
34.0,-23.0,5.562
36.0,-20.0,5.563
8.0,-22.0,5.564
-18.0,-19.0,5.565
-19.0,-7.0,5.566
-13.0,2.0,5.567
-14.0,1.0,5.568
-13.0,3.0,5.569
0.0,15.0,5.57
17.0,31.0,5.571
31.0,30.0,5.572
51.0,20.0,5.573
67.0,14.0,5.574
57.0,11.0,5.575
30.0,3.0,5.576
15.0,-6.0,5.577
17.0,-19.0,5.578
15.0,-29.0,5.579
-13.0,-34.0,5.58
-50.0,-35.0,5.581
-70.0,-26.0,5.582
-63.0,-12.0,5.583
-40.0,5.0,5.584
-6.0,23.0,5.585
33.0,36.0,5.586
58.0,36.0,5.587
50.0,28.0,5.588
17.0,23.0,5.589
-12.0,23.0,5.59
-22.0,12.0,5.591
-18.0,-12.0,5.592
-9.0,-32.0,5.593
8.0,-24.0,5.594
31.0,2.0,5.595
51.0,22.0,5.596
45.0,24.0,5.597
-4.0,17.0,5.598
-26.0,10.0,5.599
-42.0,3.0,5.6
-42.0,-23.0,5.601
-26.0,-66.0,5.602
48.0,-105.0,5.603
109.0,-113.0,5.604
105.0,-81.0,5.605
86.0,-33.0,5.606
18.0,4.0,5.607
-26.0,25.0,5.608
-7.0,37.0,5.609
14.0,53.0,5.61
52.0,59.0,5.611
71.0,48.0,5.612
29.0,28.0,5.613
0.0,11.0,5.614
-7.0,0.0,5.615
-30.0,-17.0,5.616
-106.0,-29.0,5.617
7.0,-30.0,5.618
1.0,-24.0,5.619
-3.0,-18.0,5.62
-3.0,-10.0,5.621
1.0,5.0,5.622
21.0,40.0,5.623
37.0,65.0,5.624
36.0,58.0,5.625
31.0,46.0,5.626
13.0,24.0,5.627
1.0,6.0,5.628
6.0,2.0,5.629
12.0,-2.0,5.63
22.0,-1.0,5.631
27.0,-1.0,5.632
16.0,-6.0,5.633
8.0,-12.0,5.634
6.0,-22.0,5.635
0.0,-26.0,5.636
-20.0,-7.0,5.637
-35.0,10.0,5.638
-19.0,13.0,5.639
5.0,7.0,5.64
16.0,5.0,5.641
18.0,2.0,5.642
24.0,-12.0,5.643
29.0,-26.0,5.644
28.0,-13.0,5.645
28.0,19.0,5.646
46.0,39.0,5.647
72.0,42.0,5.648
82.0,48.0,5.649
61.0,56.0,5.65
17.0,48.0,5.651
-30.0,28.0,5.652
-51.0,16.0,5.653
-42.0,12.0,5.654
-35.0,-3.0,5.655
-59.0,-32.0,5.656
-91.0,-50.0,5.657
-79.0,-55.0,5.658
-16.0,-59.0,5.659
33.0,-61.0,5.66
41.0,-59.0,5.661
33.0,-54.0,5.662
-24.0,-38.0,5.663
-80.0,-23.0,5.664
-125.0,-17.0,5.665
-144.0,-9.0,5.666
-78.0,8.0,5.667
-18.0,21.0,5.668
23.0,18.0,5.669
55.0,14.0,5.67
55.0,9.0,5.671
55.0,6.0,5.672
55.0,10.0,5.673
47.0,10.0,5.674
11.0,0.0,5.675
-21.0,-10.0,5.676
-38.0,-21.0,5.677
-52.0,-34.0,5.678
-66.0,-58.0,5.679
-83.0,-90.0,5.68
-74.0,-106.0,5.681
-27.0,-81.0,5.682
29.0,-36.0,5.683
53.0,0.0,5.684
42.0,24.0,5.685
28.0,48.0,5.686
39.0,69.0,5.687
66.0,74.0,5.688
84.0,58.0,5.689
78.0,38.0,5.69
51.0,19.0,5.691
21.0,4.0,5.692
8.0,-1.0,5.693
17.0,7.0,5.694
26.0,19.0,5.695
27.0,27.0,5.696
31.0,33.0,5.697
44.0,43.0,5.698
52.0,52.0,5.699
42.0,50.0,5.7
40.0,47.0,5.701
64.0,52.0,5.702
79.0,54.0,5.703
30.0,41.0,5.704
-70.0,19.0,5.705
-140.0,2.0,5.706
-127.0,-4.0,5.707
-68.0,-9.0,5.708
-33.0,-23.0,5.709
-38.0,-39.0,5.71
-30.0,-45.0,5.711
20.0,-32.0,5.712
86.0,-13.0,5.713
120.0,-9.0,5.714
96.0,-25.0,5.715
34.0,-46.0,5.716
-31.0,-52.0,5.717
-82.0,-46.0,5.718
-98.0,-35.0,5.719
-94.0,-25.0,5.72
-97.0,-22.0,5.721
-113.0,-24.0,5.722
-102.0,-27.0,5.723
-42.0,-18.0,5.724
20.0,1.0,5.725
33.0,17.0,5.726
20.0,20.0,5.727
41.0,15.0,5.728
101.0,14.0,5.729
126.0,17.0,5.73
75.0,17.0,5.731
-7.0,16.0,5.732
-53.0,16.0,5.733
-47.0,13.0,5.734
-4.0,4.0,5.735
56.0,-7.0,5.736
105.0,-18.0,5.737
105.0,-32.0,5.738
54.0,-46.0,5.739
3.0,-47.0,5.74
-5.0,-31.0,5.741
3.0,-12.0,5.742
-5.0,-5.0,5.743
-14.0,5.0,5.744
12.0,36.0,5.745
39.0,76.0,5.746
18.0,92.0,5.747
-38.0,80.0,5.748
-71.0,61.0,5.749
-61.0,44.0,5.75
-45.0,17.0,5.751
-44.0,-24.0,5.752
-43.0,-56.0,5.753
-22.0,-59.0,5.754
20.0,-38.0,5.755
60.0,-11.0,5.756
72.0,10.0,5.757
38.0,19.0,5.758
-1.0,12.0,5.759
12.0,-3.0,5.76
85.0,-17.0,5.761
132.0,-25.0,5.762
93.0,-27.0,5.763
16.0,-25.0,5.764
-15.0,-14.0,5.765
2.0,0.0,5.766
9.0,2.0,5.767
-21.0,-9.0,5.768
-54.0,-26.0,5.769
-67.0,-36.0,5.77
-82.0,-44.0,5.771
-117.0,-49.0,5.772
-152.0,-42.0,5.773
-158.0,-25.0,5.774
-137.0,-13.0,5.775
-108.0,-20.0,5.776
-74.0,-33.0,5.777
-26.0,-27.0,5.778
28.0,9.0,5.779
77.0,41.0,5.78
105.0,58.0,5.781
125.0,70.0,5.782
119.0,66.0,5.783
99.0,59.0,5.784
40.0,49.0,5.785
-10.0,35.0,5.786
-35.0,7.0,5.787
-50.0,-20.0,5.788
-32.0,-42.0,5.789
-16.0,-59.0,5.79
-10.0,-57.0,5.791
-5.0,-51.0,5.792
-1.0,-31.0,5.793
8.0,-9.0,5.794
32.0,15.0,5.795
56.0,40.0,5.796
81.0,64.0,5.797
121.0,89.0,5.798
206.0,109.0,5.799
263.0,117.0,5.8
246.0,106.0,5.801
154.0,81.0,5.802
32.0,44.0,5.803
-75.0,10.0,5.804
-129.0,-8.0,5.805
-131.0,-13.0,5.806
-112.0,-19.0,5.807
-107.0,-39.0,5.808
-124.0,-66.0,5.809
-138.0,-79.0,5.81
-115.0,-66.0,5.811
-54.0,-39.0,5.812
-4.0,-26.0,5.813
-3.0,-28.0,5.814
-30.0,-26.0,5.815
-31.0,-9.0,5.816
6.0,9.0,5.817
41.0,8.0,5.818
49.0,-8.0,5.819
63.0,-28.0,5.82
111.0,-48.0,5.821
151.0,-53.0,5.822
141.0,-31.0,5.823
95.0,8.0,5.824
58.0,32.0,5.825
29.0,21.0,5.826
-20.0,-4.0,5.827
-95.0,-16.0,5.828
-164.0,-13.0,5.829
-201.0,-9.0,5.83
-207.0,-11.0,5.831
-203.0,-21.0,5.832
-190.0,-31.0,5.833
-144.0,-33.0,5.834
-55.0,-21.0,5.835
42.0,-8.0,5.836
89.0,-11.0,5.837
78.0,-26.0,5.838
60.0,-29.0,5.839
79.0,-13.0,5.84
108.0,3.0,5.841
99.0,15.0,5.842
53.0,27.0,5.843
17.0,38.0,5.844
34.0,49.0,5.845
92.0,56.0,5.846
147.0,59.0,5.847
161.0,45.0,5.848
129.0,22.0,5.849
75.0,12.0,5.85
17.0,16.0,5.851
-44.0,9.0,5.852
-108.0,-26.0,5.853
-147.0,-56.0,5.854
-143.0,-48.0,5.855
-108.0,-21.0,5.856
-74.0,-7.0,5.857
-44.0,-9.0,5.858
-2.0,-4.0,5.859
47.0,11.0,5.86
84.0,14.0,5.861
90.0,0.0,5.862
70.0,-6.0,5.863
39.0,4.0,5.864
19.0,22.0,5.865
20.0,36.0,5.866
27.0,42.0,5.867
20.0,43.0,5.868
4.0,40.0,5.869
21.0,36.0,5.87
84.0,27.0,5.871
133.0,1.0,5.872
93.0,-41.0,5.873
-18.0,-72.0,5.874
-98.0,-62.0,5.875
-86.0,-17.0,5.876
-38.0,22.0,5.877
-27.0,22.0,5.878
-61.0,-1.0,5.879
-86.0,-9.0,5.88
-81.0,3.0,5.881
-73.0,2.0,5.882
-81.0,-33.0,5.883
-90.0,-69.0,5.884
-80.0,-58.0,5.885
-43.0,-14.0,5.886
17.0,13.0,5.887
87.0,6.0,5.888
136.0,-5.0,5.889
140.0,4.0,5.89
103.0,19.0,5.891
43.0,20.0,5.892
-15.0,15.0,5.893
-54.0,17.0,5.894
-65.0,23.0,5.895
-53.0,20.0,5.896
-26.0,16.0,5.897
10.0,18.0,5.898
38.0,22.0,5.899
43.0,12.0,5.9
26.0,-8.0,5.901
3.0,-16.0,5.902
-15.0,-10.0,5.903
-21.0,-2.0,5.904
-16.0,2.0,5.905
7.0,7.0,5.906
49.0,11.0,5.907
90.0,4.0,5.908
99.0,-12.0,5.909
59.0,-25.0,5.91
-8.0,-22.0,5.911
-65.0,-1.0,5.912
-91.0,22.0,5.913
-84.0,33.0,5.914
-52.0,29.0,5.915
-11.0,23.0,5.916
26.0,28.0,5.917
58.0,30.0,5.918
86.0,19.0,5.919
94.0,-5.0,5.92
57.0,-27.0,5.921
-13.0,-36.0,5.922
-60.0,-43.0,5.923
-41.0,-50.0,5.924
7.0,-49.0,5.925
19.0,-40.0,5.926
-17.0,-31.0,5.927
-49.0,-26.0,5.928
-41.0,-16.0,5.929
-20.0,-1.0,5.93
-10.0,9.0,5.931
16.0,12.0,5.932
81.0,11.0,5.933
144.0,6.0,5.934
140.0,-6.0,5.935
70.0,-19.0,5.936
2.0,-20.0,5.937
-42.0,-9.0,5.938
-89.0,-1.0,5.939
-154.0,0.0,5.94
-194.0,-1.0,5.941
-172.0,3.0,5.942
-122.0,5.0,5.943
-78.0,3.0,5.944
-27.0,5.0,5.945
30.0,16.0,5.946
52.0,22.0,5.947
23.0,13.0,5.948
-10.0,4.0,5.949
-1.0,12.0,5.95
32.0,28.0,5.951
57.0,34.0,5.952
76.0,26.0,5.953
97.0,19.0,5.954
105.0,19.0,5.955
78.0,16.0,5.956
36.0,4.0,5.957
-4.0,-16.0,5.958
-25.0,-22.0,5.959
-32.0,-13.0,5.96
-29.0,-8.0,5.961
-13.0,-13.0,5.962
19.0,-18.0,5.963
53.0,-11.0,5.964
62.0,-1.0,5.965
45.0,0.0,5.966
27.0,-9.0,5.967
25.0,-8.0,5.968
29.0,0.0,5.969
24.0,4.0,5.97
21.0,0.0,5.971
37.0,7.0,5.972
53.0,28.0,5.973
41.0,41.0,5.974
2.0,37.0,5.975
-29.0,28.0,5.976
-42.0,25.0,5.977
-43.0,21.0,5.978
-29.0,8.0,5.979
1.0,-6.0,5.98
29.0,-19.0,5.981
28.0,-28.0,5.982
9.0,-36.0,5.983
0.0,-35.0,5.984
10.0,-24.0,5.985
16.0,-20.0,5.986
25.0,-22.0,5.987
53.0,-18.0,5.988
76.0,-1.0,5.989
47.0,9.0,5.99
-27.0,3.0,5.991
-83.0,-6.0,5.992
-94.0,-3.0,5.993
-97.0,2.0,5.994
-119.0,-4.0,5.995
-136.0,-13.0,5.996
-112.0,-9.0,5.997
-51.0,0.0,5.998
13.0,-4.0,5.999
51.0,-16.0,6.0
52.0,-20.0,6.001
25.0,-7.0,6.002
-4.0,11.0,6.003
-23.0,19.0,6.004
-31.0,19.0,6.005
-28.0,15.0,6.006
-10.0,1.0,6.007
9.0,-20.0,6.008
7.0,-39.0,6.009
1.0,-45.0,6.01
36.0,-31.0,6.011
99.0,-6.0,6.012
115.0,16.0,6.013
54.0,29.0,6.014
-11.0,34.0,6.015
-18.0,35.0,6.016
0.0,32.0,6.017
-15.0,18.0,6.018
-56.0,6.0,6.019
-66.0,6.0,6.02
-40.0,14.0,6.021
-23.0,22.0,6.022
-16.0,22.0,6.023
27.0,20.0,6.024
108.0,18.0,6.025
167.0,10.0,6.026
151.0,-5.0,6.027
83.0,-21.0,6.028
13.0,-32.0,6.029
-32.0,-34.0,6.03
-58.0,-28.0,6.031
-74.0,-17.0,6.032
-85.0,-7.0,6.033
-84.0,1.0,6.034
-60.0,9.0,6.035
-18.0,15.0,6.036
14.0,10.0,6.037
24.0,-8.0,6.038
33.0,-21.0,6.039
58.0,-14.0,6.04
72.0,-6.0,6.041
38.0,-7.0,6.042
-15.0,-9.0,6.043
-28.0,5.0,6.044
-3.0,26.0,6.045
7.0,29.0,6.046
-14.0,17.0,6.047
-25.0,10.0,6.048
-3.0,6.0,6.049
25.0,-5.0,6.05
26.0,-17.0,6.051
10.0,-21.0,6.052
-10.0,-21.0,6.053
-30.0,-26.0,6.054
-40.0,-26.0,6.055
-23.0,-12.0,6.056
10.0,3.0,6.057
24.0,-1.0,6.058
11.0,-14.0,6.059
-6.0,-17.0,6.06
-6.0,-4.0,6.061
-3.0,12.0,6.062
-6.0,15.0,6.063
-4.0,9.0,6.064
4.0,3.0,6.065
11.0,6.0,6.066
14.0,13.0,6.067
19.0,16.0,6.068
24.0,9.0,6.069
18.0,-3.0,6.07
9.0,-3.0,6.071
13.0,8.0,6.072
27.0,16.0,6.073
31.0,16.0,6.074
25.0,10.0,6.075
23.0,3.0,6.076
22.0,1.0,6.077
10.0,0.0,6.078
-1.0,2.0,6.079
4.0,4.0,6.08
16.0,-2.0,6.081
6.0,-9.0,6.082
-12.0,-13.0,6.083
-11.0,-9.0,6.084
1.0,-1.0,6.085
-7.0,3.0,6.086
-30.0,0.0,6.087
-32.0,-13.0,6.088
-10.0,-23.0,6.089
1.0,-17.0,6.09
-14.0,-1.0,6.091
-33.0,5.0,6.092
-29.0,0.0,6.093
-1.0,-2.0,6.094
32.0,7.0,6.095
55.0,13.0,6.096
57.0,12.0,6.097
32.0,8.0,6.098
-5.0,5.0,6.099
-37.0,0.0,6.1
-55.0,-15.0,6.101
-57.0,-28.0,6.102
-41.0,-27.0,6.103
-11.0,-15.0,6.104
16.0,-9.0,6.105
23.0,-9.0,6.106
14.0,-3.0,6.107
2.0,8.0,6.108
-3.0,17.0,6.109
-10.0,12.0,6.11
-17.0,1.0,6.111
-16.0,-5.0,6.112
-3.0,-3.0,6.113
12.0,5.0,6.114
23.0,9.0,6.115
39.0,6.0,6.116
62.0,-1.0,6.117
73.0,-6.0,6.118
51.0,-2.0,6.119
4.0,8.0,6.12
-32.0,13.0,6.121
-38.0,10.0,6.122
-29.0,4.0,6.123
-29.0,5.0,6.124
-27.0,8.0,6.125
-3.0,4.0,6.126
23.0,-5.0,6.127
14.0,-6.0,6.128
-22.0,6.0,6.129
-42.0,17.0,6.13
-32.0,11.0,6.131
-11.0,0.0,6.132
3.0,-3.0,6.133
20.0,-4.0,6.134
39.0,-12.0,6.135
46.0,-23.0,6.136
32.0,-24.0,6.137
12.0,-18.0,6.138
8.0,-9.0,6.139
14.0,-4.0,6.14
15.0,0.0,6.141
13.0,5.0,6.142
24.0,3.0,6.143
38.0,-6.0,6.144
37.0,-12.0,6.145
19.0,-13.0,6.146
1.0,-12.0,6.147
-4.0,-10.0,6.148
-10.0,-5.0,6.149
-22.0,0.0,6.15
-29.0,4.0,6.151
-15.0,7.0,6.152
18.0,13.0,6.153
52.0,23.0,6.154
66.0,28.0,6.155
55.0,28.0,6.156
22.0,26.0,6.157
-22.0,20.0,6.158
-55.0,9.0,6.159
-77.0,-8.0,6.16
-99.0,-35.0,6.161
-106.0,-60.0,6.162
-66.0,-62.0,6.163
7.0,-34.0,6.164
48.0,1.0,6.165
22.0,15.0,6.166
-19.0,9.0,6.167
-15.0,7.0,6.168
15.0,20.0,6.169
19.0,24.0,6.17
-2.0,11.0,6.171
4.0,-1.0,6.172
43.0,-1.0,6.173
64.0,-1.0,6.174
49.0,-3.0,6.175
31.0,5.0,6.176
31.0,26.0,6.177
27.0,37.0,6.178
7.0,22.0,6.179
-6.0,1.0,6.18
6.0,-8.0,6.181
23.0,-8.0,6.182
8.0,-19.0,6.183
-32.0,-35.0,6.184
-61.0,-35.0,6.185
-58.0,-19.0,6.186
-31.0,-5.0,6.187
-8.0,-1.0,6.188
-3.0,-2.0,6.189
-8.0,0.0,6.19
-7.0,6.0,6.191
3.0,10.0,6.192
18.0,10.0,6.193
34.0,10.0,6.194
47.0,11.0,6.195
46.0,9.0,6.196
27.0,6.0,6.197
1.0,0.0,6.198
-11.0,-4.0,6.199
-11.0,-5.0,6.2
-18.0,-9.0,6.201
-30.0,-11.0,6.202
-30.0,-11.0,6.203
-10.0,-6.0,6.204
12.0,2.0,6.205
18.0,9.0,6.206
18.0,14.0,6.207
17.0,15.0,6.208
16.0,13.0,6.209
9.0,9.0,6.21
4.0,5.0,6.211
8.0,1.0,6.212
18.0,-4.0,6.213
25.0,-8.0,6.214
32.0,-6.0,6.215
31.0,1.0,6.216
24.0,9.0,6.217
8.0,4.0,6.218
-10.0,-9.0,6.219
-25.0,-18.0,6.22
-36.0,-16.0,6.221
-26.0,-6.0,6.222
1.0,2.0,6.223
25.0,4.0,6.224
24.0,4.0,6.225
11.0,3.0,6.226
15.0,-1.0,6.227
35.0,-6.0,6.228
46.0,-7.0,6.229
30.0,-4.0,6.23
6.0,-1.0,6.231
-2.0,-5.0,6.232
5.0,-8.0,6.233
2.0,-5.0,6.234
-15.0,3.0,6.235
-22.0,8.0,6.236
2.0,8.0,6.237
52.0,3.0,6.238
86.0,-4.0,6.239
54.0,-13.0,6.24
-33.0,-22.0,6.241
-103.0,-20.0,6.242
-99.0,-7.0,6.243
-45.0,8.0,6.244
-14.0,15.0,6.245
-36.0,17.0,6.246
-76.0,18.0,6.247
-79.0,18.0,6.248
-27.0,17.0,6.249
40.0,13.0,6.25
71.0,3.0,6.251
45.0,-8.0,6.252
1.0,-8.0,6.253
-9.0,5.0,6.254
9.0,13.0,6.255
13.0,-1.0,6.256
-5.0,-20.0,6.257
-18.0,-26.0,6.258
-13.0,-14.0,6.259
-20.0,-8.0,6.26
-45.0,-21.0,6.261
-52.0,-29.0,6.262
-22.0,-18.0,6.263
11.0,-9.0,6.264
17.0,-10.0,6.265
7.0,-10.0,6.266
7.0,-4.0,6.267
15.0,3.0,6.268
18.0,12.0,6.269
26.0,20.0,6.27
49.0,21.0,6.271
70.0,22.0,6.272
70.0,16.0,6.273
56.0,11.0,6.274
37.0,9.0,6.275
15.0,7.0,6.276
-4.0,5.0,6.277
-15.0,4.0,6.278
-12.0,4.0,6.279
-11.0,5.0,6.28
-13.0,-2.0,6.281
-7.0,-9.0,6.282
9.0,-10.0,6.283
17.0,-4.0,6.284
6.0,2.0,6.285
-4.0,2.0,6.286
3.0,1.0,6.287
24.0,3.0,6.288
31.0,6.0,6.289
15.0,4.0,6.29
-6.0,-1.0,6.291
-2.0,-2.0,6.292
24.0,4.0,6.293
45.0,7.0,6.294
37.0,2.0,6.295
4.0,-5.0,6.296
-19.0,-2.0,6.297
-22.0,5.0,6.298
-15.0,6.0,6.299
-19.0,-2.0,6.3
-32.0,-10.0,6.301
-30.0,-8.0,6.302
-7.0,-4.0,6.303
13.0,-6.0,6.304
9.0,-9.0,6.305
-6.0,-10.0,6.306
-10.0,-7.0,6.307
5.0,-8.0,6.308
27.0,-7.0,6.309
47.0,2.0,6.31
54.0,15.0,6.311
37.0,20.0,6.312
-9.0,19.0,6.313
-54.0,16.0,6.314
-59.0,10.0,6.315
-25.0,-2.0,6.316
4.0,-15.0,6.317
-4.0,-22.0,6.318
-31.0,-20.0,6.319
-46.0,-16.0,6.32
-41.0,-19.0,6.321
-35.0,-19.0,6.322
-31.0,-13.0,6.323
-22.0,-1.0,6.324
-5.0,11.0,6.325
12.0,19.0,6.326
31.0,17.0,6.327
63.0,8.0,6.328
99.0,1.0,6.329
114.0,0.0,6.33
89.0,2.0,6.331
34.0,-1.0,6.332
-21.0,-5.0,6.333
-56.0,-3.0,6.334
-74.0,5.0,6.335
-83.0,9.0,6.336
-87.0,7.0,6.337
-81.0,1.0,6.338
-59.0,1.0,6.339
-35.0,0.0,6.34
-3.0,-7.0,6.341
24.0,-12.0,6.342
34.0,-8.0,6.343
43.0,-4.0,6.344
41.0,-2.0,6.345
40.0,-1.0,6.346
42.0,-1.0,6.347
49.0,-1.0,6.348
67.0,1.0,6.349
83.0,6.0,6.35
91.0,14.0,6.351
92.0,21.0,6.352
69.0,27.0,6.353
42.0,31.0,6.354
0.0,21.0,6.355
-35.0,11.0,6.356
-54.0,-1.0,6.357
-71.0,-15.0,6.358
-88.0,-29.0,6.359
-102.0,-37.0,6.36
-88.0,-40.0,6.361
-45.0,-36.0,6.362
-5.0,-25.0,6.363
12.0,-13.0,6.364
22.0,-4.0,6.365
39.0,3.0,6.366
58.0,10.0,6.367
53.0,19.0,6.368
13.0,25.0,6.369
-46.0,28.0,6.37
-94.0,25.0,6.371
-99.0,18.0,6.372
-57.0,12.0,6.373
-9.0,12.0,6.374
4.0,15.0,6.375
-14.0,13.0,6.376
-21.0,2.0,6.377
0.0,-18.0,6.378
14.0,-37.0,6.379
-13.0,-48.0,6.38
-46.0,-54.0,6.381
-25.0,-49.0,6.382
42.0,-34.0,6.383
88.0,-14.0,6.384
83.0,0.0,6.385
65.0,6.0,6.386
72.0,5.0,6.387
97.0,5.0,6.388
102.0,11.0,6.389
76.0,21.0,6.39
40.0,29.0,6.391
28.0,29.0,6.392
40.0,22.0,6.393
47.0,15.0,6.394
20.0,9.0,6.395
-30.0,2.0,6.396
-72.0,-1.0,6.397
-98.0,0.0,6.398
-100.0,8.0,6.399
-68.0,13.0,6.4
-3.0,11.0,6.401
45.0,11.0,6.402
29.0,19.0,6.403
-34.0,20.0,6.404
-82.0,-1.0,6.405
-91.0,-20.0,6.406
-94.0,-29.0,6.407
-108.0,-35.0,6.408
-97.0,-25.0,6.409
-28.0,-18.0,6.41
85.0,-22.0,6.411
183.0,-21.0,6.412
228.0,-7.0,6.413
223.0,4.0,6.414
191.0,9.0,6.415
143.0,15.0,6.416
85.0,23.0,6.417
6.0,31.0,6.418
-81.0,28.0,6.419
-155.0,14.0,6.42
-197.0,0.0,6.421
-200.0,-4.0,6.422
-182.0,-8.0,6.423
-155.0,-20.0,6.424
-118.0,-29.0,6.425
-74.0,-33.0,6.426
-42.0,-33.0,6.427
-33.0,-34.0,6.428
-15.0,-27.0,6.429
51.0,-16.0,6.43
149.0,-13.0,6.431
209.0,-14.0,6.432
181.0,-7.0,6.433
96.0,10.0,6.434
28.0,24.0,6.435
-6.0,31.0,6.436
-28.0,40.0,6.437
-55.0,49.0,6.438
-49.0,51.0,6.439
7.0,51.0,6.44
68.0,44.0,6.441
81.0,37.0,6.442
42.0,31.0,6.443
-18.0,25.0,6.444
-68.0,21.0,6.445
-69.0,12.0,6.446
-13.0,-9.0,6.447
46.0,-26.0,6.448
43.0,-28.0,6.449
2.0,-26.0,6.45
13.0,-10.0,6.451
100.0,2.0,6.452
193.0,-3.0,6.453
223.0,-9.0,6.454
182.0,-15.0,6.455
82.0,-23.0,6.456
-49.0,-31.0,6.457
-151.0,-41.0,6.458
-159.0,-59.0,6.459
-164.0,-68.0,6.46
-158.0,-61.0,6.461
-153.0,-32.0,6.462
-150.0,-1.0,6.463
-123.0,15.0,6.464
-25.0,17.0,6.465
46.0,13.0,6.466
39.0,11.0,6.467
19.0,19.0,6.468
-37.0,35.0,6.469
-62.0,40.0,6.47
6.0,26.0,6.471
71.0,18.0,6.472
127.0,36.0,6.473
160.0,49.0,6.474
126.0,22.0,6.475
72.0,-19.0,6.476
-45.0,-25.0,6.477
-139.0,5.0,6.478
-111.0,1.0,6.479
-47.0,-49.0,6.48
-48.0,-95.0,6.481
-87.0,-80.0,6.482
-63.0,-30.0,6.483
47.0,7.0,6.484
180.0,16.0,6.485
264.0,13.0,6.486
255.0,9.0,6.487
134.0,4.0,6.488
-47.0,11.0,6.489
-166.0,32.0,6.49
-162.0,45.0,6.491
-96.0,34.0,6.492
-61.0,19.0,6.493
-63.0,25.0,6.494
-55.0,46.0,6.495
-21.0,42.0,6.496
29.0,6.0,6.497
93.0,-36.0,6.498
140.0,-57.0,6.499
133.0,-57.0,6.5
77.0,-53.0,6.501
30.0,-39.0,6.502
15.0,-17.0,6.503
-5.0,2.0,6.504
-25.0,9.0,6.505
13.0,6.0,6.506
105.0,-2.0,6.507
147.0,-5.0,6.508
81.0,11.0,6.509
-36.0,47.0,6.51
-138.0,74.0,6.511
-220.0,67.0,6.512
-269.0,44.0,6.513
-248.0,34.0,6.514
-180.0,33.0,6.515
-148.0,13.0,6.516
-160.0,-22.0,6.517
-138.0,-56.0,6.518
-24.0,-70.0,6.519
118.0,-63.0,6.52
191.0,-39.0,6.521
168.0,-9.0,6.522
95.0,-11.0,6.523
41.0,-54.0,6.524
52.0,-98.0,6.525
124.0,-96.0,6.526
184.0,-52.0,6.527
167.0,-1.0,6.528
92.0,32.0,6.529
37.0,34.0,6.53
53.0,5.0,6.531
119.0,-24.0,6.532
166.0,-21.0,6.533
127.0,9.0,6.534
6.0,34.0,6.535
-105.0,55.0,6.536
-126.0,90.0,6.537
-123.0,122.0,6.538
-184.0,113.0,6.539
-235.0,68.0,6.54
-255.0,34.0,6.541
-241.0,24.0,6.542
-127.0,-5.0,6.543
-38.0,-64.0,6.544
-26.0,-112.0,6.545
-17.0,-120.0,6.546
-22.0,-104.0,6.547
-5.0,-75.0,6.548
82.0,-22.0,6.549
167.0,38.0,6.55
245.0,65.0,6.551
301.0,50.0,6.552
289.0,25.0,6.553
231.0,11.0,6.554
39.0,-2.0,6.555
-115.0,-28.0,6.556
-158.0,-44.0,6.557
-160.0,-32.0,6.558
-39.0,1.0,6.559
32.0,32.0,6.56
78.0,42.0,6.561
163.0,45.0,6.562
248.0,42.0,6.563
236.0,36.0,6.564
108.0,33.0,6.565
-50.0,31.0,6.566
-162.0,26.0,6.567
-221.0,18.0,6.568
-237.0,27.0,6.569
-201.0,54.0,6.57
-136.0,76.0,6.571
-99.0,66.0,6.572
-91.0,19.0,6.573
-55.0,-37.0,6.574
9.0,-82.0,6.575
17.0,-103.0,6.576
-44.0,-104.0,6.577
-92.0,-100.0,6.578
-48.0,-94.0,6.579
25.0,-75.0,6.58
52.0,-42.0,6.581
80.0,-14.0,6.582
173.0,-2.0,6.583
251.0,13.0,6.584
187.0,49.0,6.585
11.0,80.0,6.586
-155.0,65.0,6.587
-271.0,23.0,6.588
-324.0,3.0,6.589
-222.0,7.0,6.59
86.0,-5.0,6.591
416.0,-35.0,6.592
498.0,-43.0,6.593
310.0,-26.0,6.594
69.0,-21.0,6.595
-63.0,-45.0,6.596
-123.0,-59.0,6.597
153.0,-40.0,6.598
215.0,-5.0,6.599
239.0,20.0,6.6
145.0,34.0,6.601
56.0,50.0,6.602
-20.0,58.0,6.603
-60.0,51.0,6.604
7.0,47.0,6.605
46.0,61.0,6.606
4.0,71.0,6.607
-26.0,47.0,6.608
-15.0,-8.0,6.609
-3.0,-62.0,6.61
11.0,-90.0,6.611
28.0,-86.0,6.612
52.0,-48.0,6.613
75.0,15.0,6.614
99.0,71.0,6.615
113.0,86.0,6.616
103.0,62.0,6.617
299.0,26.0,6.618
459.0,20.0,6.619
519.0,51.0,6.62
278.0,94.0,6.621
48.0,123.0,6.622
-148.0,99.0,6.623
-252.0,14.0,6.624
-80.0,-81.0,6.625
21.0,-118.0,6.626
-88.0,-97.0,6.627
-164.0,-77.0,6.628
-136.0,-75.0,6.629
-105.0,-47.0,6.63
-69.0,18.0,6.631
-26.0,53.0,6.632
37.0,11.0,6.633
99.0,-70.0,6.634
159.0,-112.0,6.635
197.0,-91.0,6.636
171.0,-40.0,6.637
129.0,2.0,6.638
55.0,22.0,6.639
23.0,23.0,6.64
-22.0,22.0,6.641
-197.0,32.0,6.642
-437.0,38.0,6.643
-527.0,42.0,6.644
-372.0,58.0,6.645
-95.0,68.0,6.646
152.0,39.0,6.647
324.0,-24.0,6.648
382.0,-71.0,6.649
266.0,-68.0,6.65
33.0,-33.0,6.651
-170.0,1.0,6.652
-297.0,20.0,6.653
-417.0,24.0,6.654
-506.0,25.0,6.655
-388.0,38.0,6.656
-2.0,57.0,6.657
622.0,25.0,6.658
970.0,-68.0,6.659
864.0,-155.0,6.66
364.0,-155.0,6.661
-213.0,-95.0,6.662
-475.0,-68.0,6.663
-333.0,-84.0,6.664
-79.0,-72.0,6.665
-3.0,-15.0,6.666
-38.0,22.0,6.667
27.0,23.0,6.668
158.0,39.0,6.669
134.0,88.0,6.67
-66.0,112.0,6.671
-209.0,83.0,6.672
-172.0,57.0,6.673
-112.0,76.0,6.674
-196.0,98.0,6.675
-336.0,86.0,6.676
-331.0,67.0,6.677
-117.0,62.0,6.678
157.0,60.0,6.679
295.0,49.0,6.68
267.0,14.0,6.681
207.0,-10.0,6.682
230.0,-3.0,6.683
293.0,7.0,6.684
253.0,27.0,6.685
66.0,34.0,6.686
-167.0,-2.0,6.687
-332.0,-33.0,6.688
-401.0,-50.0,6.689
-388.0,-76.0,6.69
-291.0,-128.0,6.691
-114.0,-156.0,6.692
79.0,-112.0,6.693
203.0,-74.0,6.694
209.0,-54.0,6.695
125.0,-33.0,6.696
36.0,-15.0,6.697
6.0,1.0,6.698
68.0,-2.0,6.699
177.0,-7.0,6.7
250.0,40.0,6.701
215.0,118.0,6.702
83.0,146.0,6.703
-31.0,89.0,6.704
-26.0,-8.0,6.705
57.0,-85.0,6.706
67.0,-105.0,6.707
-34.0,-57.0,6.708
-107.0,19.0,6.709
-59.0,52.0,6.71
-3.0,36.0,6.711
-64.0,39.0,6.712
-144.0,83.0,6.713
-65.0,95.0,6.714
129.0,30.0,6.715
216.0,-49.0,6.716
122.0,-71.0,6.717
-29.0,-60.0,6.718
-117.0,-44.0,6.719
-193.0,-18.0,6.72
-236.0,35.0,6.721
-235.0,68.0,6.722
-99.0,37.0,6.723
41.0,9.0,6.724
192.0,-11.0,6.725
301.0,-32.0,6.726
282.0,-52.0,6.727
226.0,-68.0,6.728
60.0,-68.0,6.729
-74.0,-54.0,6.73
-118.0,3.0,6.731
-137.0,51.0,6.732
-83.0,66.0,6.733
-48.0,52.0,6.734
-70.0,-53.0,6.735
-68.0,-134.0,6.736
9.0,-138.0,6.737
58.0,-118.0,6.738
5.0,-31.0,6.739
18.0,0.0,6.74
73.0,-23.0,6.741
48.0,-26.0,6.742
-19.0,16.0,6.743
-3.0,67.0,6.744
56.0,82.0,6.745
14.0,74.0,6.746
-110.0,66.0,6.747
-137.0,65.0,6.748
-18.0,76.0,6.749
115.0,108.0,6.75
129.0,133.0,6.751
16.0,102.0,6.752
-153.0,28.0,6.753
-273.0,-11.0,6.754
-277.0,3.0,6.755
-209.0,15.0,6.756
-160.0,-3.0,6.757
-102.0,-5.0,6.758
35.0,28.0,6.759
180.0,39.0,6.76
179.0,-19.0,6.761
80.0,-64.0,6.762
97.0,-66.0,6.763
218.0,-69.0,6.764
205.0,-73.0,6.765
59.0,-67.0,6.766
70.0,-33.0,6.767
285.0,-16.0,6.768
332.0,-49.0,6.769
15.0,-79.0,6.77
-295.0,-101.0,6.771
-197.0,-94.0,6.772
151.0,2.0,6.773
314.0,69.0,6.774
214.0,45.0,6.775
104.0,24.0,6.776
78.0,11.0,6.777
-34.0,-3.0,6.778
-250.0,-23.0,6.779
-369.0,-21.0,6.78
-199.0,24.0,6.781
-55.0,76.0,6.782
10.0,90.0,6.783
12.0,76.0,6.784
-173.0,59.0,6.785
-282.0,27.0,6.786
-160.0,-23.0,6.787
-69.0,-32.0,6.788
-72.0,34.0,6.789
-83.0,108.0,6.79
-116.0,108.0,6.791
-129.0,57.0,6.792
-78.0,38.0,6.793
18.0,60.0,6.794
248.0,58.0,6.795
426.0,11.0,6.796
446.0,-40.0,6.797
405.0,-77.0,6.798
170.0,-117.0,6.799
-6.0,-151.0,6.8
-82.0,-172.0,6.801
-105.0,-182.0,6.802
-97.0,-192.0,6.803
-65.0,-167.0,6.804
-37.0,-95.0,6.805
-23.0,-32.0,6.806
8.0,-37.0,6.807
69.0,-67.0,6.808
108.0,-25.0,6.809
66.0,79.0,6.81
-51.0,160.0,6.811
-170.0,183.0,6.812
-181.0,194.0,6.813
-32.0,214.0,6.814
169.0,210.0,6.815
203.0,170.0,6.816
8.0,132.0,6.817
-269.0,84.0,6.818
-270.0,6.0,6.819
-67.0,-73.0,6.82
74.0,-154.0,6.821
40.0,-198.0,6.822
-46.0,-125.0,6.823
-71.0,-65.0,6.824
-53.0,-44.0,6.825
-20.0,-25.0,6.826
64.0,-12.0,6.827
174.0,5.0,6.828
208.0,33.0,6.829
147.0,51.0,6.83
84.0,41.0,6.831
77.0,35.0,6.832
67.0,40.0,6.833
9.0,38.0,6.834
-44.0,15.0,6.835
-38.0,-27.0,6.836
2.0,-123.0,6.837
31.0,-211.0,6.838
18.0,-215.0,6.839
-34.0,-131.0,6.84
-90.0,-70.0,6.841
-110.0,-79.0,6.842
-88.0,-91.0,6.843
-62.0,-40.0,6.844
-49.0,30.0,6.845
-31.0,46.0,6.846
-10.0,16.0,6.847
-12.0,-7.0,6.848
-21.0,-3.0,6.849
16.0,23.0,6.85
97.0,60.0,6.851
132.0,92.0,6.852
76.0,98.0,6.853
-6.0,88.0,6.854
-31.0,91.0,6.855
-10.0,100.0,6.856
-4.0,86.0,6.857
-31.0,53.0,6.858
-53.0,47.0,6.859
-48.0,72.0,6.86
-37.0,80.0,6.861
-34.0,56.0,6.862
-25.0,38.0,6.863
-2.0,57.0,6.864
22.0,98.0,6.865
32.0,136.0,6.866
34.0,161.0,6.867
37.0,154.0,6.868
31.0,109.0,6.869
13.0,48.0,6.87
0.0,6.0,6.871
14.0,-17.0,6.872
52.0,-52.0,6.873
93.0,-108.0,6.874
124.0,-160.0,6.875
133.0,-181.0,6.876
109.0,-169.0,6.877
45.0,-146.0,6.878
-37.0,-138.0,6.879
-110.0,-161.0,6.88
-149.0,-200.0,6.881
-145.0,-213.0,6.882
-113.0,-180.0,6.883
-80.0,-121.0,6.884
-59.0,-78.0,6.885
-35.0,-66.0,6.886
7.0,-58.0,6.887
48.0,-15.0,6.888
53.0,75.0,6.889
28.0,180.0,6.89
8.0,255.0,6.891
15.0,286.0,6.892
41.0,296.0,6.893
70.0,300.0,6.894
79.0,273.0,6.895
51.0,177.0,6.896
12.0,37.0,6.897
-13.0,-101.0,6.898
-10.0,-175.0,6.899
-9.0,-188.0,6.9
-25.0,-186.0,6.901
-37.0,-188.0,6.902
-24.0,-177.0,6.903
-6.0,-137.0,6.904
2.0,-79.0,6.905
20.0,-18.0,6.906
61.0,39.0,6.907
90.0,94.0,6.908
59.0,133.0,6.909
-29.0,150.0,6.91
-114.0,160.0,6.911
-144.0,173.0,6.912
-107.0,154.0,6.913
-21.0,72.0,6.914
69.0,-38.0,6.915
126.0,-93.0,6.916
131.0,-69.0,6.917
97.0,-26.0,6.918
57.0,-14.0,6.919
43.0,-25.0,6.92
52.0,-34.0,6.921
43.0,-64.0,6.922
-5.0,-142.0,6.923
-47.0,-209.0,6.924
-24.0,-194.0,6.925
51.0,-130.0,6.926
88.0,-115.0,6.927
27.0,-155.0,6.928
-78.0,-153.0,6.929
-134.0,-65.0,6.93
-117.0,30.0,6.931
-83.0,57.0,6.932
-68.0,46.0,6.933
-59.0,60.0,6.934
-34.0,88.0,6.935
-12.0,79.0,6.936
-9.0,38.0,6.937
-17.0,15.0,6.938
-14.0,33.0,6.939
-7.0,73.0,6.94
-5.0,101.0,6.941
-1.0,111.0,6.942
17.0,108.0,6.943
35.0,98.0,6.944
40.0,94.0,6.945
40.0,93.0,6.946
48.0,76.0,6.947
54.0,25.0,6.948
44.0,-44.0,6.949
24.0,-99.0,6.95
17.0,-115.0,6.951
26.0,-99.0,6.952
32.0,-75.0,6.953
16.0,-69.0,6.954
-8.0,-79.0,6.955
-21.0,-85.0,6.956
-24.0,-71.0,6.957
-26.0,-41.0,6.958
-22.0,12.0,6.959
-2.0,76.0,6.96
25.0,125.0,6.961
29.0,141.0,6.962
14.0,105.0,6.963
2.0,27.0,6.964
1.0,-60.0,6.965
-8.0,-102.0,6.966
-28.0,-72.0,6.967
-29.0,6.0,6.968
-2.0,73.0,6.969
26.0,93.0,6.97
31.0,76.0,6.971
27.0,56.0,6.972
31.0,48.0,6.973
31.0,50.0,6.974
15.0,51.0,6.975
-12.0,36.0,6.976
-27.0,3.0,6.977
-35.0,-35.0,6.978
-39.0,-44.0,6.979
-36.0,-42.0,6.98
-20.0,-64.0,6.981
9.0,-84.0,6.982
39.0,-71.0,6.983
50.0,-33.0,6.984
35.0,-21.0,6.985
12.0,-47.0,6.986
0.0,-70.0,6.987
-4.0,-60.0,6.988
-21.0,-25.0,6.989
-39.0,17.0,6.99
-17.0,57.0,6.991
52.0,81.0,6.992
113.0,82.0,6.993
101.0,67.0,6.994
23.0,58.0,6.995
-43.0,54.0,6.996
-53.0,38.0,6.997
-47.0,-4.0,6.998
-75.0,-55.0,6.999
-118.0,-85.0,7.0
-97.0,-76.0,7.001
-11.0,-32.0,7.002
50.0,4.0,7.003
33.0,1.0,7.004
0.0,-27.0,7.005
4.0,-39.0,7.006
22.0,-23.0,7.007
15.0,-3.0,7.008
9.0,2.0,7.009
32.0,-6.0,7.01
57.0,-23.0,7.011
49.0,-57.0,7.012
27.0,-92.0,7.013
25.0,-87.0,7.014
32.0,-28.0,7.015
24.0,43.0,7.016
1.0,73.0,7.017
-33.0,59.0,7.018
-80.0,50.0,7.019
-134.0,77.0,7.02
-147.0,111.0,7.021
-84.0,121.0,7.022
28.0,105.0,7.023
114.0,85.0,7.024
136.0,55.0,7.025
123.0,5.0,7.026
112.0,-51.0,7.027
86.0,-80.0,7.028
28.0,-79.0,7.029
-34.0,-94.0,7.03
-49.0,-142.0,7.031
-23.0,-192.0,7.032
3.0,-190.0,7.033
9.0,-137.0,7.034
11.0,-80.0,7.035
16.0,-43.0,7.036
15.0,-6.0,7.037
-4.0,58.0,7.038
-25.0,126.0,7.039
-42.0,155.0,7.04
-53.0,147.0,7.041
-53.0,155.0,7.042
-37.0,188.0,7.043
-13.0,193.0,7.044
9.0,128.0,7.045
22.0,17.0,7.046
19.0,-69.0,7.047
5.0,-88.0,7.048
-9.0,-54.0,7.049
-8.0,-13.0,7.05
4.0,-3.0,7.051
17.0,-23.0,7.052
31.0,-44.0,7.053
46.0,-46.0,7.054
51.0,-40.0,7.055
41.0,-39.0,7.056
31.0,-34.0,7.057
34.0,-18.0,7.058
36.0,-4.0,7.059
10.0,-7.0,7.06
-41.0,-18.0,7.061
-82.0,-14.0,7.062
-81.0,-7.0,7.063
-42.0,-15.0,7.064
-8.0,-27.0,7.065
-9.0,-22.0,7.066
-35.0,-6.0,7.067
-49.0,8.0,7.068
-37.0,20.0,7.069
-28.0,36.0,7.07
-37.0,43.0,7.071
-37.0,24.0,7.072
5.0,-14.0,7.073
64.0,-43.0,7.074
86.0,-48.0,7.075
60.0,-32.0,7.076
34.0,-13.0,7.077
39.0,4.0,7.078
77.0,23.0,7.079
105.0,44.0,7.08
96.0,60.0,7.081
47.0,58.0,7.082
-12.0,30.0,7.083
-59.0,-10.0,7.084
-80.0,-37.0,7.085
-89.0,-45.0,7.086
-89.0,-52.0,7.087
-75.0,-67.0,7.088
-36.0,-70.0,7.089
25.0,-41.0,7.09
83.0,3.0,7.091
94.0,27.0,7.092
42.0,20.0,7.093
-31.0,14.0,7.094
-59.0,34.0,7.095
-31.0,57.0,7.096
3.0,58.0,7.097
-3.0,20.0,7.098
-26.0,-23.0,7.099
-22.0,-40.0,7.1
16.0,-21.0,7.101
55.0,12.0,7.102
65.0,23.0,7.103
54.0,6.0,7.104
38.0,-9.0,7.105
27.0,-4.0,7.106
18.0,6.0,7.107
9.0,2.0,7.108
10.0,-10.0,7.109
38.0,-11.0,7.11
77.0,2.0,7.111
90.0,20.0,7.112
55.0,33.0,7.113
-1.0,42.0,7.114
-45.0,42.0,7.115
-69.0,27.0,7.116
-84.0,8.0,7.117
-98.0,-9.0,7.118
-104.0,-16.0,7.119
-98.0,-22.0,7.12
-76.0,-23.0,7.121
-32.0,-22.0,7.122
26.0,-15.0,7.123
64.0,-6.0,7.124
50.0,6.0,7.125
9.0,15.0,7.126
0.0,17.0,7.127
51.0,20.0,7.128
109.0,21.0,7.129
103.0,18.0,7.13
22.0,2.0,7.131
-56.0,-10.0,7.132
-67.0,-9.0,7.133
-36.0,-10.0,7.134
-36.0,-18.0,7.135
-81.0,-32.0,7.136
-107.0,-60.0,7.137
-76.0,-82.0,7.138
-24.0,-65.0,7.139
-2.0,-33.0,7.14
-11.0,-21.0,7.141
-17.0,-20.0,7.142
-16.0,-5.0,7.143
-19.0,26.0,7.144
-5.0,50.0,7.145
35.0,47.0,7.146
73.0,32.0,7.147
80.0,22.0,7.148
80.0,17.0,7.149
107.0,12.0,7.15
137.0,3.0,7.151
127.0,-9.0,7.152
85.0,-21.0,7.153
71.0,-26.0,7.154
108.0,-16.0,7.155
146.0,2.0,7.156
124.0,15.0,7.157
29.0,14.0,7.158
-87.0,6.0,7.159
-168.0,0.0,7.16
-191.0,-4.0,7.161
-186.0,-8.0,7.162
-182.0,-20.0,7.163
-174.0,-36.0,7.164
-143.0,-36.0,7.165
-86.0,-11.0,7.166
-32.0,19.0,7.167
-2.0,30.0,7.168
8.0,23.0,7.169
16.0,19.0,7.17
26.0,25.0,7.171
35.0,34.0,7.172
44.0,36.0,7.173
67.0,32.0,7.174
116.0,30.0,7.175
155.0,25.0,7.176
146.0,17.0,7.177
79.0,1.0,7.178
10.0,-10.0,7.179
-17.0,-14.0,7.18
-8.0,-15.0,7.181
4.0,-13.0,7.182
12.0,-11.0,7.183
23.0,-6.0,7.184
31.0,2.0,7.185
25.0,11.0,7.186
22.0,14.0,7.187
31.0,9.0,7.188
34.0,-1.0,7.189
11.0,-16.0,7.19
-26.0,-34.0,7.191
-58.0,-48.0,7.192
-75.0,-43.0,7.193
-77.0,-22.0,7.194
-64.0,-4.0,7.195
-48.0,-4.0,7.196
-45.0,-12.0,7.197
-39.0,-15.0,7.198
1.0,-4.0,7.199
42.0,7.0,7.2
83.0,19.0,7.201
110.0,28.0,7.202
89.0,32.0,7.203
73.0,36.0,7.204
74.0,40.0,7.205
60.0,33.0,7.206
-5.0,-6.0,7.207
-67.0,-42.0,7.208
-115.0,-70.0,7.209
-142.0,-83.0,7.21
-102.0,-50.0,7.211
-63.0,-20.0,7.212
-27.0,-2.0,7.213
-8.0,13.0,7.214
-40.0,22.0,7.215
-62.0,29.0,7.216
-53.0,25.0,7.217
-37.0,20.0,7.218
-11.0,14.0,7.219
8.0,5.0,7.22
35.0,-7.0,7.221
64.0,-14.0,7.222
87.0,-11.0,7.223
112.0,0.0,7.224
148.0,14.0,7.225
176.0,23.0,7.226
148.0,19.0,7.227
60.0,3.0,7.228
-20.0,-13.0,7.229
-33.0,-24.0,7.23
-15.0,-33.0,7.231
-38.0,-51.0,7.232
-101.0,-66.0,7.233
-127.0,-55.0,7.234
-94.0,-25.0,7.235
-65.0,-1.0,7.236
-74.0,12.0,7.237
-85.0,35.0,7.238
-49.0,68.0,7.239
7.0,84.0,7.24
37.0,63.0,7.241
41.0,40.0,7.242
52.0,42.0,7.243
71.0,56.0,7.244
77.0,49.0,7.245
64.0,23.0,7.246
56.0,1.0,7.247
73.0,-6.0,7.248
100.0,-7.0,7.249
104.0,-4.0,7.25
72.0,9.0,7.251
35.0,21.0,7.252
22.0,15.0,7.253
17.0,0.0,7.254
-29.0,-8.0,7.255
-101.0,0.0,7.256
-139.0,14.0,7.257
-125.0,10.0,7.258
-101.0,-20.0,7.259
-108.0,-70.0,7.26
-116.0,-114.0,7.261
-91.0,-114.0,7.262
-38.0,-71.0,7.263
4.0,-20.0,7.264
23.0,3.0,7.265
26.0,3.0,7.266
29.0,3.0,7.267
41.0,13.0,7.268
62.0,22.0,7.269
80.0,21.0,7.27
84.0,8.0,7.271
81.0,-6.0,7.272
69.0,-23.0,7.273
43.0,-35.0,7.274
11.0,-36.0,7.275
-5.0,-25.0,7.276
-5.0,-10.0,7.277
-13.0,2.0,7.278
-32.0,11.0,7.279
-41.0,20.0,7.28
-28.0,30.0,7.281
-8.0,38.0,7.282
8.0,39.0,7.283
28.0,32.0,7.284
50.0,22.0,7.285
57.0,11.0,7.286
40.0,2.0,7.287
15.0,-1.0,7.288
0.0,3.0,7.289
-2.0,9.0,7.29
-3.0,9.0,7.291
-15.0,2.0,7.292
-34.0,-9.0,7.293
-40.0,-17.0,7.294
-13.0,-19.0,7.295
32.0,-14.0,7.296
63.0,-10.0,7.297
74.0,-18.0,7.298
78.0,-28.0,7.299
72.0,-28.0,7.3
29.0,-20.0,7.301
-39.0,-18.0,7.302
-78.0,-19.0,7.303
-70.0,-6.0,7.304
-56.0,21.0,7.305
-57.0,37.0,7.306
-37.0,29.0,7.307
42.0,16.0,7.308
146.0,24.0,7.309
189.0,42.0,7.31
130.0,45.0,7.311
13.0,29.0,7.312
-86.0,11.0,7.313
-133.0,-7.0,7.314
-143.0,-32.0,7.315
-151.0,-56.0,7.316
-170.0,-62.0,7.317
-194.0,-55.0,7.318
-191.0,-42.0,7.319
-134.0,-23.0,7.32
-28.0,14.0,7.321
75.0,62.0,7.322
122.0,86.0,7.323
115.0,79.0,7.324
94.0,63.0,7.325
81.0,54.0,7.326
82.0,40.0,7.327
95.0,16.0,7.328
105.0,0.0,7.329
80.0,0.0,7.33
7.0,-11.0,7.331
-67.0,-44.0,7.332
-81.0,-75.0,7.333
-41.0,-75.0,7.334
-9.0,-54.0,7.335
-19.0,-31.0,7.336
-45.0,-8.0,7.337
-47.0,18.0,7.338
-16.0,39.0,7.339
18.0,41.0,7.34
30.0,31.0,7.341
27.0,24.0,7.342
30.0,15.0,7.343
41.0,0.0,7.344
