Deltoid,Bicep,Time
23,6,0.0
37,10,0.001
43,10,0.002
47,7,0.003
54,3,0.004
59,2,0.005
49,2,0.006
27,3,0.007
7,3,0.008
-6,3,0.009
-19,1,0.01
-35,-2,0.011
-48,-4,0.012
-52,-5,0.013
-50,-8,0.014
-48,-9,0.015
-42,-10,0.016
-27,-8,0.017
-7,-4,0.018
14,-1,0.019
31,3,0.02
42,11,0.021
50,19,0.022
55,19,0.023
57,10,0.024
53,1,0.025
43,-1,0.026
30,-2,0.027
14,-4,0.028
-2,-7,0.029
-16,-5,0.03
-29,-7,0.031
-38,-11,0.032
-44,-10,0.033
-47,-9,0.034
-42,-6,0.035
-33,-10,0.036
-22,-16,0.037
-9,-9,0.038
8,4,0.039
24,9,0.04
34,7,0.041
39,5,0.042
48,4,0.043
58,0,0.044
60,-5,0.045
46,-6,0.046
28,-6,0.047
15,-6,0.048
3,-7,0.049
-15,-5,0.05
-36,-2,0.051
-48,-2,0.052
-48,-2,0.053
-46,-3,0.054
-45,-3,0.055
-40,-2,0.056
-26,-1,0.057
-6,0,0.058
11,1,0.059
26,2,0.06
36,6,0.061
44,9,0.062
49,9,0.063
52,9,0.064
50,4,0.065
39,0,0.066
21,-1,0.067
3,-3,0.068
-12,-3,0.069
-26,-3,0.07
-36,-3,0.071
-41,-4,0.072
-42,-6,0.073
-45,-9,0.074
-46,-9,0.075
-40,-8,0.076
-25,-10,0.077
-7,-7,0.078
10,-1,0.079
27,5,0.08
39,8,0.081
46,14,0.082
49,20,0.083
54,21,0.084
53,13,0.085
42,4,0.086
24,-2,0.087
9,-3,0.088
-5,-4,0.089
-19,-4,0.09
-35,-5,0.091
-49,-9,0.092
-54,-15,0.093
-52,-17,0.094
-45,-10,0.095
-38,-7,0.096
-27,-11,0.097
-10,-14,0.098
9,-5,0.099
27,6,0.1
39,11,0.101
47,10,0.102
56,12,0.103
59,15,0.104
53,13,0.105
38,6,0.106
22,-1,0.107
7,-2,0.108
-7,-2,0.109
-19,-3,0.11
-32,-6,0.111
-43,-11,0.112
-49,-12,0.113
-50,-12,0.114
-44,-11,0.115
-36,-11,0.116
-26,-12,0.117
-14,-7,0.118
6,1,0.119
26,6,0.12
40,8,0.121
47,10,0.122
50,10,0.123
54,7,0.124
53,4,0.125
42,3,0.126
24,0,0.127
5,-7,0.128
-9,-11,0.129
-22,-10,0.13
-35,-7,0.131
-46,-6,0.132
-49,-6,0.133
-46,-8,0.134
-38,-8,0.135
-27,-8,0.136
-13,-6,0.137
4,-4,0.138
20,1,0.139
33,6,0.14
43,6,0.141
50,5,0.142
56,8,0.143
54,11,0.144
47,9,0.145
36,7,0.146
24,2,0.147
7,-2,0.148
-10,-2,0.149
-26,-1,0.15
-42,-4,0.151
-53,-6,0.152
-56,-4,0.153
-51,-1,0.154
-41,1,0.155
-33,0,0.156
-23,-3,0.157
-6,-2,0.158
16,2,0.159
31,7,0.16
38,11,0.161
44,12,0.162
54,10,0.163
60,9,0.164
55,6,0.165
42,1,0.166
27,-5,0.167
11,-10,0.168
-8,-11,0.169
-27,-8,0.17
-40,-7,0.171
-46,-11,0.172
-48,-14,0.173
-51,-17,0.174
-48,-13,0.175
-42,-8,0.176
-31,-7,0.177
-12,-4,0.178
11,-3,0.179
32,-1,0.18
43,5,0.181
51,12,0.182
57,14,0.183
59,8,0.184
51,3,0.185
38,1,0.186
26,0,0.187
9,-1,0.188
-11,-4,0.189
-32,-3,0.19
-44,-4,0.191
-46,-11,0.192
-44,-14,0.193
-44,-12,0.194
-41,-7,0.195
-33,-6,0.196
-20,-10,0.197
-5,-7,0.198
14,0,0.199
31,6,0.2
43,11,0.201
51,16,0.202
59,15,0.203
66,8,0.204
60,2,0.205
41,5,0.206
20,9,0.207
4,4,0.208
-8,-4,0.209
-22,-8,0.21
-38,-7,0.211
-49,-10,0.212
-53,-12,0.213
-52,-12,0.214
-47,-7,0.215
-38,-3,0.216
-25,-3,0.217
-8,-1,0.218
13,1,0.219
32,5,0.22
44,9,0.221
49,13,0.222
54,13,0.223
59,11,0.224
58,8,0.225
47,3,0.226
27,-2,0.227
4,-7,0.228
-16,-11,0.229
-30,-13,0.23
-38,-10,0.231
-44,-8,0.232
-49,-8,0.233
-51,-7,0.234
-44,-9,0.235
-32,-6,0.236
-17,-2,0.237
0,4,0.238
18,8,0.239
38,8,0.24
50,9,0.241
51,10,0.242
52,8,0.243
56,3,0.244
53,0,0.245
36,2,0.246
13,4,0.247
-1,1,0.248
-13,-6,0.249
-28,-13,0.25
-45,-18,0.251
-54,-18,0.252
-52,-12,0.253
-47,-7,0.254
-40,-6,0.255
-31,-6,0.256
-20,-7,0.257
-3,-2,0.258
16,0,0.259
31,3,0.26
42,9,0.261
48,13,0.262
54,12,0.263
58,8,0.264
53,8,0.265
38,9,0.266
17,5,0.267
-1,-2,0.268
-18,-5,0.269
-32,-3,0.27
-43,-4,0.271
-49,-10,0.272
-51,-12,0.273
-49,-10,0.274
-43,-6,0.275
-34,-3,0.276
-23,-4,0.277
-7,-3,0.278
16,-2,0.279
36,-3,0.28
45,0,0.281
49,5,0.282
56,7,0.283
65,6,0.284
63,6,0.285
46,6,0.286
23,1,0.287
5,-5,0.288
-11,-9,0.289
-26,-10,0.29
-40,-14,0.291
-47,-16,0.292
-48,-9,0.293
-48,-4,0.294
-44,-2,0.295
-35,-1,0.296
-20,-2,0.297
-2,-3,0.298
14,1,0.299
26,5,0.3
37,7,0.301
48,9,0.302
58,7,0.303
61,6,0.304
55,7,0.305
42,8,0.306
27,2,0.307
9,-3,0.308
-12,-8,0.309
-31,-12,0.31
-44,-12,0.311
-49,-11,0.312
-48,-9,0.313
-46,-7,0.314
-42,-5,0.315
-34,-3,0.316
-20,-3,0.317
-3,0,0.318
13,1,0.319
28,5,0.32
40,11,0.321
49,16,0.322
56,14,0.323
57,7,0.324
50,4,0.325
36,3,0.326
20,0,0.327
5,-6,0.328
-11,-9,0.329
-31,-7,0.33
-46,-6,0.331
-50,-6,0.332
-46,-7,0.333
-43,-9,0.334
-40,-7,0.335
-35,-4,0.336
-20,-5,0.337
0,-2,0.338
20,5,0.339
37,12,0.34
48,12,0.341
52,8,0.342
55,4,0.343
55,1,0.344
48,1,0.345
34,1,0.346
14,-2,0.347
-5,-6,0.348
-20,-10,0.349
-30,-12,0.35
-37,-14,0.351
-41,-16,0.352
-45,-12,0.353
-50,-6,0.354
-47,-4,0.355
-33,-6,0.356
-17,-11,0.357
-1,-8,0.358
14,2,0.359
29,10,0.36
43,12,0.361
49,12,0.362
51,10,0.363
52,7,0.364
50,4,0.365
41,1,0.366
24,-5,0.367
4,-9,0.368
-14,-7,0.369
-28,-7,0.37
-38,-9,0.371
-44,-11,0.372
-45,-9,0.373
-44,-7,0.374
-38,-8,0.375
-29,-9,0.376
-18,-6,0.377
-5,-3,0.378
13,1,0.379
35,6,0.38
50,10,0.381
56,12,0.382
55,9,0.383
54,6,0.384
53,5,0.385
42,3,0.386
22,-1,0.387
3,-5,0.388
-17,-8,0.389
-32,-10,0.39
-42,-6,0.391
-47,-2,0.392
-47,-3,0.393
-48,-4,0.394
-44,-3,0.395
-31,-2,0.396
-15,-4,0.397
-1,0,0.398
15,6,0.399
32,13,0.4
46,18,0.401
53,19,0.402
54,15,0.403
56,9,0.404
52,6,0.405
41,3,0.406
22,0,0.407
3,-6,0.408
-13,-12,0.409
-28,-13,0.41
-37,-13,0.411
-42,-13,0.412
-45,-12,0.413
-49,-9,0.414
-45,-7,0.415
-35,-7,0.416
-20,-9,0.417
-4,-5,0.418
16,0,0.419
34,7,0.42
45,10,0.421
49,12,0.422
53,9,0.423
54,7,0.424
45,5,0.425
30,3,0.426
14,1,0.427
1,-2,0.428
-13,-7,0.429
-29,-10,0.43
-41,-9,0.431
-47,-9,0.432
-48,-9,0.433
-47,-9,0.434
-39,-6,0.435
-27,-1,0.436
-15,-1,0.437
-1,-2,0.438
17,0,0.439
35,7,0.44
46,10,0.441
51,10,0.442
55,10,0.443
58,12,0.444
49,13,0.445
34,11,0.446
17,9,0.447
0,7,0.448
-17,1,0.449
-31,-7,0.45
-35,-14,0.451
-37,-15,0.452
-42,-11,0.453
-49,-8,0.454
-44,-5,0.455
-28,-2,0.456
-16,-2,0.457
-7,-3,0.458
11,-3,0.459
34,-3,0.46
46,2,0.461
45,6,0.462
47,7,0.463
55,7,0.464
53,1,0.465
31,-3,0.466
8,-4,0.467
-4,-6,0.468
-13,-5,0.469
-29,-4,0.47
-46,-6,0.471
-53,-8,0.472
-52,-8,0.473
-49,-9,0.474
-41,-9,0.475
-28,-7,0.476
-12,-6,0.477
2,-4,0.478
20,-2,0.479
38,3,0.48
52,10,0.481
55,13,0.482
54,12,0.483
54,7,0.484
51,2,0.485
37,-1,0.486
15,-4,0.487
-2,-7,0.488
-13,-11,0.489
-26,-13,0.49
-41,-13,0.491
-51,-13,0.492
-50,-10,0.493
-45,-10,0.494
-37,-8,0.495
-30,-5,0.496
-19,-4,0.497
-5,-2,0.498
13,2,0.499
30,3,0.5
42,7,0.501
48,12,0.502
50,15,0.503
51,11,0.504
47,6,0.505
36,1,0.506
20,-3,0.507
2,-6,0.508
-13,-6,0.509
-27,-4,0.51
-39,-3,0.511
-49,-7,0.512
-53,-9,0.513
-51,-6,0.514
-40,-2,0.515
-25,-2,0.516
-11,-6,0.517
2,-3,0.518
21,4,0.519
40,10,0.52
50,12,0.521
54,14,0.522
57,14,0.523
60,10,0.524
50,6,0.525
29,6,0.526
11,5,0.527
0,-1,0.528
-12,-8,0.529
-28,-10,0.53
-41,-8,0.531
-44,-7,0.532
-43,-6,0.533
-44,-4,0.534
-40,0,0.535
-27,2,0.536
-14,-3,0.537
0,-6,0.538
18,-2,0.539
35,3,0.54
45,7,0.541
45,11,0.542
48,12,0.543
54,12,0.544
52,9,0.545
35,6,0.546
15,3,0.547
-2,-1,0.548
-17,-6,0.549
-32,-10,0.55
-44,-7,0.551
-48,-6,0.552
-49,-12,0.553
-48,-17,0.554
-40,-13,0.555
-27,-7,0.556
-14,-7,0.557
-1,-5,0.558
16,-1,0.559
38,1,0.56
53,1,0.561
55,3,0.562
56,7,0.563
56,9,0.564
49,8,0.565
33,6,0.566
14,1,0.567
-2,-6,0.568
-16,-10,0.569
-30,-9,0.57
-43,-4,0.571
-50,-6,0.572
-54,-6,0.573
-51,-5,0.574
-37,-4,0.575
-21,-4,0.576
-7,-7,0.577
0,-5,0.578
13,0,0.579
32,4,0.58
50,7,0.581
58,6,0.582
57,4,0.583
52,1,0.584
42,0,0.585
28,-2,0.586
15,-3,0.587
-1,-6,0.588
-17,-7,0.589
-30,-11,0.59
-37,-15,0.591
-42,-15,0.592
-45,-10,0.593
-47,-5,0.594
-41,0,0.595
-28,6,0.596
-13,4,0.597
3,3,0.598
22,3,0.599
38,8,0.6
50,14,0.601
54,17,0.602
58,15,0.603
58,9,0.604
48,1,0.605
30,-4,0.606
15,-5,0.607
1,-7,0.608
-17,-10,0.609
-37,-12,0.61
-51,-12,0.611
-55,-10,0.612
-55,-8,0.613
-53,-9,0.614
-45,-6,0.615
-32,-3,0.616
-18,-2,0.617
-3,0,0.618
15,3,0.619
35,6,0.62
49,8,0.621
56,10,0.622
58,8,0.623
53,7,0.624
38,6,0.625
22,3,0.626
10,-2,0.627
-2,-7,0.628
-19,-6,0.629
-35,-5,0.63
-42,-7,0.631
-41,-10,0.632
-42,-8,0.633
-44,-5,0.634
-38,-3,0.635
-24,-5,0.636
-10,-8,0.637
5,-4,0.638
22,3,0.639
40,4,0.64
50,6,0.641
52,11,0.642
51,11,0.643
52,10,0.644
45,8,0.645
28,6,0.646
12,-2,0.647
0,-12,0.648
-13,-13,0.649
-32,-7,0.65
-43,-5,0.651
-45,-11,0.652
-41,-11,0.653
-42,-5,0.654
-39,0,0.655
-28,-2,0.656
-14,-7,0.657
2,-2,0.658
18,3,0.659
32,2,0.66
43,0,0.661
48,7,0.662
51,11,0.663
51,10,0.664
44,4,0.665
30,0,0.666
13,-4,0.667
-3,-8,0.668
-20,-6,0.669
-36,-2,0.67
-43,-3,0.671
-45,-7,0.672
-45,-8,0.673
-44,-7,0.674
-34,-8,0.675
-20,-10,0.676
-8,-9,0.677
0,0,0.678
16,6,0.679
38,8,0.68
56,9,0.681
62,12,0.682
60,11,0.683
58,6,0.684
51,2,0.685
35,0,0.686
15,-4,0.687
-4,-9,0.688
-20,-9,0.689
-33,-5,0.69
-41,-4,0.691
-43,-8,0.692
-42,-11,0.693
-43,-9,0.694
-39,-3,0.695
-32,0,0.696
-17,-1,0.697
-1,-3,0.698
17,-3,0.699
33,-1,0.7
39,4,0.701
46,10,0.702
50,12,0.703
50,13,0.704
40,7,0.705
29,2,0.706
13,-3,0.707
-4,-7,0.708
-21,-7,0.709
-36,-7,0.71
-44,-4,0.711
-50,-1,0.712
-47,-2,0.713
-42,-4,0.714
-34,-3,0.715
-24,-3,0.716
-11,-7,0.717
2,-7,0.718
20,-4,0.719
37,5,0.72
50,11,0.721
54,10,0.722
56,6,0.723
55,2,0.724
46,1,0.725
28,1,0.726
9,-3,0.727
-6,-8,0.728
-20,-8,0.729
-33,-8,0.73
-42,-8,0.731
-45,-11,0.732
-45,-9,0.733
-46,-6,0.734
-38,-3,0.735
-24,-1,0.736
-11,-2,0.737
-4,-2,0.738
10,-1,0.739
34,3,0.74
52,10,0.741
54,12,0.742
50,7,0.743
50,0,0.744
45,-2,0.745
26,0,0.746
5,-2,0.747
-8,-7,0.748
-20,-7,0.749
-36,-5,0.75
-50,-4,0.751
-51,-5,0.752
-45,-6,0.753
-40,-5,0.754
-33,-1,0.755
-21,0,0.756
-7,-3,0.757
4,-5,0.758
20,-3,0.759
41,1,0.76
55,9,0.761
55,16,0.762
51,16,0.763
51,9,0.764
45,3,0.765
27,2,0.766
8,2,0.767
-4,-2,0.768
-15,-8,0.769
-30,-11,0.77
-47,-14,0.771
-51,-14,0.772
-47,-9,0.773
-43,-5,0.774
-38,-3,0.775
-27,-1,0.776
-8,-1,0.777
11,0,0.778
28,5,0.779
44,9,0.78
54,10,0.781
56,11,0.782
53,9,0.783
51,5,0.784
43,0,0.785
27,-6,0.786
7,-6,0.787
-10,-6,0.788
-25,-11,0.789
-39,-15,0.79
-48,-13,0.791
-49,-11,0.792
-45,-8,0.793
-43,-3,0.794
-35,1,0.795
-21,3,0.796
-6,0,0.797
7,1,0.798
23,3,0.799
44,3,0.8
58,3,0.801
59,2,0.802
53,2,0.803
49,1,0.804
46,-1,0.805
34,-3,0.806
14,-3,0.807
-8,-4,0.808
-25,-6,0.809
-38,-9,0.81
-45,-8,0.811
-48,-5,0.812
-47,-1,0.813
-45,0,0.814
-39,0,0.815
-29,0,0.816
-17,-2,0.817
-3,-1,0.818
14,1,0.819
33,8,0.82
47,11,0.821
50,11,0.822
49,6,0.823
49,0,0.824
44,-2,0.825
27,-4,0.826
4,-4,0.827
-12,-7,0.828
-22,-10,0.829
-29,-12,0.83
-36,-12,0.831
-41,-12,0.832
-41,-10,0.833
-40,-3,0.834
-30,4,0.835
-16,7,0.836
0,1,0.837
13,-2,0.838
25,2,0.839
40,10,0.84
52,14,0.841
56,16,0.842
54,13,0.843
52,7,0.844
45,1,0.845
29,-4,0.846
8,-7,0.847
-10,-9,0.848
-24,-10,0.849
-36,-8,0.85
-41,-6,0.851
-42,-4,0.852
-44,-3,0.853
-46,-6,0.854
-40,-8,0.855
-25,-9,0.856
-12,-7,0.857
-2,-5,0.858
12,-2,0.859
35,2,0.86
51,6,0.861
54,10,0.862
53,8,0.863
51,6,0.864
42,2,0.865
25,-1,0.866
7,0,0.867
-6,1,0.868
-20,-4,0.869
-34,-9,0.87
-42,-9,0.871
-44,-9,0.872
-44,-9,0.873
-45,-9,0.874
-35,-7,0.875
-18,-2,0.876
-2,-5,0.877
7,-7,0.878
17,-3,0.879
34,8,0.88
49,15,0.881
52,16,0.882
50,10,0.883
47,5,0.884
42,4,0.885
27,5,0.886
6,0,0.887
-11,-8,0.888
-24,-15,0.889
-36,-14,0.89
-46,-9,0.891
-45,-6,0.892
-38,-7,0.893
-35,-9,0.894
-33,-6,0.895
-25,1,0.896
-10,2,0.897
6,1,0.898
24,0,0.899
40,4,0.9
51,7,0.901
52,8,0.902
49,7,0.903
48,3,0.904
42,-1,0.905
27,-2,0.906
8,0,0.907
-8,-1,0.908
-20,-5,0.909
-32,-9,0.91
-42,-10,0.911
-48,-8,0.912
-49,-6,0.913
-47,-4,0.914
-37,0,0.915
-22,3,0.916
-7,1,0.917
4,3,0.918
21,3,0.919
43,2,0.92
57,4,0.921
58,9,0.922
54,10,0.923
52,5,0.924
46,0,0.925
29,1,0.926
9,0,0.927
-8,-6,0.928
-22,-11,0.929
-34,-7,0.93
-42,-4,0.931
-43,-10,0.932
-45,-14,0.933
-45,-12,0.934
-38,-5,0.935
-23,-3,0.936
-11,-7,0.937
1,-6,0.938
20,-1,0.939
41,4,0.94
50,10,0.941
48,16,0.942
49,17,0.943
52,10,0.944
43,5,0.945
19,5,0.946
-2,5,0.947
-14,-2,0.948
-24,-10,0.949
-38,-9,0.95
-46,-6,0.951
-45,-6,0.952
-41,-9,0.953
-39,-11,0.954
-32,-7,0.955
-21,0,0.956
-8,-2,0.957
2,-5,0.958
19,-5,0.959
40,1,0.96
56,9,0.961
61,10,0.962
60,5,0.963
54,0,0.964
39,-3,0.965
19,-6,0.966
3,-8,0.967
-8,-7,0.968
-21,-6,0.969
-35,-7,0.97
-44,-7,0.971
-44,-5,0.972
-43,-1,0.973
-42,-2,0.974
-32,-5,0.975
-18,-4,0.976
-6,-4,0.977
5,-2,0.978
20,2,0.979
37,8,0.98
48,14,0.981
49,14,0.982
50,11,0.983
48,10,0.984
38,7,0.985
18,3,0.986
0,-1,0.987
-15,-5,0.988
-24,-6,0.989
-33,-9,0.99
-39,-11,0.991
-46,-9,0.992
-48,-6,0.993
-43,-8,0.994
-27,-7,0.995
-14,-5,0.996
-6,-5,0.997
4,-2,0.998
26,5,0.999
49,11,1.0
58,14,1.001
55,14,1.002
53,12,1.003
54,8,1.004
46,2,1.005
26,-2,1.006
5,-1,1.007
-9,0,1.008
-23,-5,1.009
-37,-9,1.01
-47,-9,1.011
-48,-6,1.012
-44,-5,1.013
-39,-9,1.014
-31,-8,1.015
-17,-4,1.016
-3,-6,1.017
10,-9,1.018
25,-7,1.019
42,0,1.02
55,7,1.021
56,10,1.022
52,5,1.023
49,-1,1.024
41,-5,1.025
23,-5,1.026
1,-3,1.027
-15,-4,1.028
-24,-7,1.029
-33,-7,1.03
-44,-4,1.031
-50,-4,1.032
-47,-5,1.033
-40,-7,1.034
-30,-4,1.035
-21,-1,1.036
-10,-2,1.037
4,0,1.038
22,6,1.039
39,10,1.04
49,13,1.041
49,12,1.042
47,10,1.043
45,7,1.044
35,2,1.045
18,-2,1.046
0,-6,1.047
-14,-8,1.048
-28,-7,1.049
-40,-4,1.05
-47,-4,1.051
-47,-9,1.052
-44,-10,1.053
-39,-8,1.054
-29,-3,1.055
-15,-3,1.056
-4,-5,1.057
6,-1,1.058
21,7,1.059
40,13,1.06
54,13,1.061
54,12,1.062
51,12,1.063
49,11,1.064
40,6,1.065
23,1,1.066
3,-2,1.067
-10,-6,1.068
-21,-9,1.069
-36,-10,1.07
-46,-10,1.071
-50,-8,1.072
-47,-6,1.073
-40,-4,1.074
-29,-4,1.075
-16,-6,1.076
-4,-9,1.077
7,-3,1.078
24,4,1.079
43,4,1.08
54,4,1.081
54,6,1.082
51,6,1.083
49,1,1.084
41,-3,1.085
23,-4,1.086
2,-5,1.087
-16,-9,1.088
-31,-13,1.089
-41,-11,1.09
-45,-9,1.091
-43,-9,1.092
-41,-9,1.093
-36,-9,1.094
-25,-6,1.095
-11,-3,1.096
-2,-3,1.097
5,-1,1.098
22,1,1.099
41,6,1.1
54,13,1.101
55,17,1.102
54,13,1.103
54,6,1.104
42,1,1.105
19,2,1.106
-1,2,1.107
-14,-2,1.108
-23,-6,1.109
-34,-6,1.11
-41,-2,1.111
-41,-2,1.112
-39,-4,1.113
-35,-5,1.114
-26,-5,1.115
-15,-4,1.116
-5,-5,1.117
3,-3,1.118
21,1,1.119
45,4,1.12
58,6,1.121
53,7,1.122
45,6,1.123
45,3,1.124
40,-1,1.125
21,-4,1.126
-4,-7,1.127
-19,-7,1.128
-29,-6,1.129
-41,-8,1.13
-50,-10,1.131
-49,-10,1.132
-43,-8,1.133
-39,-7,1.134
-32,-7,1.135
-18,-6,1.136
-3,-3,1.137
6,0,1.138
18,5,1.139
39,8,1.14
57,11,1.141
58,14,1.142
49,14,1.143
42,10,1.144
38,3,1.145
21,-2,1.146
-1,-5,1.147
-18,-7,1.148
-26,-10,1.149
-32,-13,1.15
-39,-12,1.151
-44,-5,1.152
-42,0,1.153
-36,-1,1.154
-24,-4,1.155
-13,-4,1.156
-4,-3,1.157
7,-1,1.158
23,1,1.159
41,6,1.16
49,10,1.161
47,10,1.162
47,6,1.163
47,2,1.164
38,-1,1.165
17,-5,1.166
-4,-9,1.167
-18,-11,1.168
-28,-8,1.169
-38,-4,1.17
-45,-4,1.171
-48,-8,1.172
-48,-9,1.173
-40,-7,1.174
-24,-3,1.175
-9,1,1.176
1,1,1.177
14,1,1.178
31,3,1.179
48,7,1.18
55,11,1.181
55,13,1.182
55,10,1.183
50,6,1.184
37,2,1.185
22,-2,1.186
8,-4,1.187
-9,-7,1.188
-28,-9,1.189
-42,-11,1.19
-48,-11,1.191
-49,-11,1.192
-44,-10,1.193
-37,-8,1.194
-25,-3,1.195
-16,0,1.196
-7,-4,1.197
3,-4,1.198
22,3,1.199
44,13,1.2
57,16,1.201
59,12,1.202
58,7,1.203
52,4,1.204
39,1,1.205
17,-2,1.206
-5,-6,1.207
-20,-8,1.208
-30,-8,1.209
-39,-7,1.21
-43,-6,1.211
-44,-5,1.212
-41,-4,1.213
-36,-6,1.214
-24,-5,1.215
-13,-3,1.216
-2,-3,1.217
9,-4,1.218
28,-2,1.219
49,1,1.22
58,6,1.221
52,7,1.222
46,3,1.223
45,-2,1.224
39,-5,1.225
20,-5,1.226
-1,-5,1.227
-16,-5,1.228
-28,-5,1.229
-43,-5,1.23
-52,-5,1.231
-51,-6,1.232
-45,-5,1.233
-37,-4,1.234
-27,-4,1.235
-14,-2,1.236
-2,-2,1.237
10,2,1.238
25,4,1.239
42,6,1.24
52,9,1.241
53,11,1.242
52,10,1.243
48,6,1.244
38,1,1.245
20,-3,1.246
1,-8,1.247
-14,-10,1.248
-25,-7,1.249
-35,-2,1.25
-41,-4,1.251
-44,-7,1.252
-43,-6,1.253
-39,-5,1.254
-28,-3,1.255
-14,-1,1.256
0,0,1.257
13,2,1.258
30,6,1.259
46,10,1.26
54,16,1.261
54,20,1.262
51,14,1.263
47,9,1.264
36,6,1.265
18,2,1.266
0,-2,1.267
-15,-6,1.268
-26,-8,1.269
-36,-10,1.27
-46,-11,1.271
-51,-13,1.272
-50,-13,1.273
-44,-11,1.274
-30,-7,1.275
-16,-5,1.276
-3,-6,1.277
11,-4,1.278
28,1,1.279
45,6,1.28
55,9,1.281
56,9,1.282
51,7,1.283
41,2,1.284
26,-2,1.285
13,-3,1.286
0,-3,1.287
-14,-6,1.288
-30,-8,1.289
-42,-9,1.29
-44,-7,1.291
-42,-8,1.292
-38,-7,1.293
-34,-4,1.294
-25,2,1.295
-13,3,1.296
1,0,1.297
15,1,1.298
32,7,1.299
51,13,1.3
60,14,1.301
57,12,1.302
50,7,1.303
43,1,1.304
32,-2,1.305
16,-3,1.306
-1,-3,1.307
-16,-6,1.308
-29,-7,1.309
-40,-6,1.31
-48,-8,1.311
-49,-9,1.312
-47,-9,1.313
-40,-8,1.314
-26,-7,1.315
-10,-6,1.316
1,-6,1.317
8,0,1.318
23,3,1.319
43,6,1.32
54,8,1.321
52,8,1.322
47,3,1.323
42,-2,1.324
31,-3,1.325
10,-4,1.326
-10,-7,1.327
-20,-9,1.328
-27,-11,1.329
-38,-10,1.33
-46,-10,1.331
-45,-8,1.332
-41,-4,1.333
-36,-1,1.334
-24,0,1.335
-7,1,1.336
6,0,1.337
15,-1,1.338
27,4,1.339
49,9,1.34
64,10,1.341
63,10,1.342
57,6,1.343
49,3,1.344
37,5,1.345
19,5,1.346
-1,-1,1.347
-16,-7,1.348
-29,-5,1.349
-38,-4,1.35
-43,-6,1.351
-45,-9,1.352
-41,-10,1.353
-36,-11,1.354
-24,-9,1.355
-13,-5,1.356
-3,-2,1.357
10,0,1.358
28,3,1.359
44,7,1.36
50,10,1.361
50,8,1.362
49,3,1.363
42,2,1.364
26,6,1.365
9,7,1.366
-3,1,1.367
-16,-5,1.368
-31,-7,1.369
-47,-4,1.37
-50,-3,1.371
-47,-8,1.372
-41,-10,1.373
-35,-9,1.374
-21,-4,1.375
-8,-1,1.376
2,-2,1.377
14,-1,1.378
31,4,1.379
47,11,1.38
54,16,1.381
56,14,1.382
56,5,1.383
50,-1,1.384
34,0,1.385
11,0,1.386
-6,-4,1.387
-18,-12,1.388
-31,-11,1.389
-47,-8,1.39
-54,-8,1.391
-53,-10,1.392
-48,-8,1.393
-38,-3,1.394
-22,0,1.395
-5,-1,1.396
5,-5,1.397
13,-2,1.398
27,2,1.399
47,7,1.4
58,10,1.401
57,7,1.402
52,2,1.403
48,-1,1.404
37,2,1.405
19,3,1.406
-2,-1,1.407
-17,-6,1.408
-29,-8,1.409
-38,-6,1.41
-44,-6,1.411
-49,-9,1.412
-49,-9,1.413
-43,-6,1.414
-23,0,1.415
-4,4,1.416
4,0,1.417
9,-3,1.418
24,-1,1.419
46,1,1.42
58,5,1.421
56,8,1.422
48,2,1.423
42,-2,1.424
29,-2,1.425
8,-3,1.426
-10,-4,1.427
-20,-6,1.428
-27,-6,1.429
-37,-6,1.43
-45,-4,1.431
-48,-3,1.432
-45,-3,1.433
-38,-4,1.434
-24,-2,1.435
-10,0,1.436
0,1,1.437
13,3,1.438
32,6,1.439
50,8,1.44
59,9,1.441
57,10,1.442
52,5,1.443
46,-2,1.444
33,-7,1.445
13,-5,1.446
-7,-2,1.447
-21,-4,1.448
-31,-7,1.449
-41,-9,1.45
-49,-11,1.451
-50,-11,1.452
-40,-8,1.453
-28,-3,1.454
-18,-2,1.455
-9,-3,1.456
2,-6,1.457
18,-2,1.458
35,6,1.459
47,12,1.46
52,16,1.461
52,15,1.462
49,10,1.463
41,2,1.464
27,-2,1.465
9,-3,1.466
-7,-4,1.467
-20,-7,1.468
-31,-8,1.469
-42,-5,1.47
-48,-5,1.471
-49,-7,1.472
-43,-6,1.473
-31,-7,1.474
-16,-4,1.475
-3,-1,1.476
6,0,1.477
18,4,1.478
36,7,1.479
53,6,1.48
60,4,1.481
60,3,1.482
56,3,1.483
47,2,1.484
28,0,1.485
6,-2,1.486
-11,-4,1.487
-23,-6,1.488
-32,-7,1.489
-42,-7,1.49
-50,-6,1.491
-52,-9,1.492
-45,-10,1.493
-35,-9,1.494
-22,-2,1.495
-10,3,1.496
3,0,1.497
15,-1,1.498
28,4,1.499
41,9,1.5
50,14,1.501
54,17,1.502
52,13,1.503
43,7,1.504
30,1,1.505
14,-4,1.506
-1,-2,1.507
-16,-1,1.508
-29,-5,1.509
-41,-8,1.51
-51,-9,1.511
-52,-11,1.512
-46,-9,1.513
-36,-6,1.514
-22,-1,1.515
-11,2,1.516
0,1,1.517
15,2,1.518
32,6,1.519
48,9,1.52
57,10,1.521
56,10,1.522
53,7,1.523
47,2,1.524
32,-3,1.525
10,-5,1.526
-11,-7,1.527
-24,-6,1.528
-34,-4,1.529
-44,-2,1.53
-48,-6,1.531
-44,-10,1.532
-36,-8,1.533
-30,-3,1.534
-19,2,1.535
-7,2,1.536
5,-1,1.537
15,0,1.538
31,-1,1.539
50,-1,1.54
59,1,1.541
52,6,1.542
46,9,1.543
43,5,1.544
34,-1,1.545
14,-2,1.546
-6,-3,1.547
-18,-7,1.548
-26,-12,1.549
-39,-13,1.55
-49,-12,1.551
-52,-14,1.552
-47,-11,1.553
-36,-5,1.554
-22,1,1.555
-7,2,1.556
4,-1,1.557
17,2,1.558
34,7,1.559
52,9,1.56
59,9,1.561
54,8,1.562
47,5,1.563
42,-1,1.564
29,-6,1.565
10,-4,1.566
-8,1,1.567
-20,0,1.568
-31,-7,1.569
-43,-11,1.57
-49,-10,1.571
-50,-8,1.572
-46,-6,1.573
-39,-6,1.574
-23,-5,1.575
-8,-4,1.576
3,-4,1.577
13,-3,1.578
28,3,1.579
48,9,1.58
59,10,1.581
58,12,1.582
54,10,1.583
47,8,1.584
32,6,1.585
11,3,1.586
-8,-1,1.587
-21,-4,1.588
-33,-4,1.589
-46,-5,1.59
-50,-6,1.591
-47,-5,1.592
-38,0,1.593
-31,6,1.594
-19,7,1.595
-6,1,1.596
4,-4,1.597
17,-1,1.598
34,3,1.599
52,2,1.6
59,3,1.601
53,7,1.602
45,7,1.603
37,0,1.604
26,-9,1.605
7,-13,1.606
-10,-13,1.607
-21,-13,1.608
-32,-11,1.609
-43,-9,1.61
-50,-10,1.611
-48,-11,1.612
-38,-8,1.613
-26,-4,1.614
-12,2,1.615
-1,5,1.616
4,3,1.617
15,7,1.618
32,13,1.619
50,14,1.62
60,10,1.621
57,8,1.622
46,8,1.623
37,6,1.624
26,0,1.625
12,-3,1.626
-5,-4,1.627
-21,-5,1.628
-34,-10,1.629
-44,-11,1.63
-49,-9,1.631
-50,-6,1.632
-45,-2,1.633
-34,-2,1.634
-19,0,1.635
-6,2,1.636
0,-1,1.637
10,-2,1.638
28,0,1.639
47,4,1.64
55,7,1.641
52,9,1.642
45,8,1.643
39,1,1.644
28,-6,1.645
12,-10,1.646
-5,-7,1.647
-20,-3,1.648
-32,-2,1.649
-43,-4,1.65
-48,-7,1.651
-49,-10,1.652
-44,-9,1.653
-31,-7,1.654
-13,-2,1.655
0,2,1.656
9,1,1.657
19,0,1.658
35,4,1.659
51,7,1.66
55,5,1.661
50,4,1.662
48,2,1.663
45,1,1.664
29,1,1.665
4,0,1.666
-17,-1,1.667
-27,-4,1.668
-34,-8,1.669
-45,-12,1.67
-51,-13,1.671
-49,-14,1.672
-41,-8,1.673
-30,-2,1.674
-16,2,1.675
-3,3,1.676
10,0,1.677
22,-2,1.678
39,1,1.679
53,6,1.68
60,12,1.681
56,12,1.682
51,8,1.683
44,0,1.684
26,-2,1.685
2,0,1.686
-13,0,1.687
-21,-4,1.688
-30,-7,1.689
-43,-8,1.69
-50,-9,1.691
-47,-10,1.692
-38,-6,1.693
-30,0,1.694
-20,3,1.695
-8,1,1.696
3,-3,1.697
16,-3,1.698
35,-3,1.699
53,-2,1.7
60,3,1.701
54,11,1.702
47,14,1.703
40,7,1.704
26,-3,1.705
6,-7,1.706
-12,-6,1.707
-25,-3,1.708
-37,-3,1.709
-46,-4,1.71
-50,-6,1.711
-48,-7,1.712
-41,-4,1.713
-31,-2,1.714
-17,1,1.715
-3,2,1.716
6,-2,1.717
16,-3,1.718
36,0,1.719
58,7,1.72
64,12,1.721
55,11,1.722
48,8,1.723
42,1,1.724
30,-2,1.725
3,-2,1.726
-18,-4,1.727
-26,-7,1.728
-32,-9,1.729
-43,-10,1.73
-50,-9,1.731
-44,-12,1.732
-34,-12,1.733
-25,-8,1.734
-17,-4,1.735
-4,-1,1.736
8,-5,1.737
20,-7,1.738
36,1,1.739
53,8,1.74
59,12,1.741
48,14,1.742
37,5,1.743
32,-2,1.744
22,0,1.745
2,0,1.746
-16,-2,1.747
-26,-5,1.748
-37,-5,1.749
-48,-5,1.75
-50,-5,1.751
-43,-4,1.752
-33,-2,1.753
-28,0,1.754
-16,4,1.755
-1,1,1.756
10,-6,1.757
18,-8,1.758
33,-1,1.759
55,8,1.76
67,10,1.761
61,11,1.762
48,8,1.763
35,1,1.764
20,-1,1.765
1,-2,1.766
-14,-2,1.767
-21,-5,1.768
-32,-8,1.769
-46,-7,1.77
-52,-7,1.771
-45,-8,1.772
-34,-7,1.773
-27,-1,1.774
-16,3,1.775
-2,2,1.776
9,-2,1.777
17,0,1.778
33,5,1.779
56,8,1.78
66,8,1.781
57,7,1.782
44,3,1.783
35,-1,1.784
23,-3,1.785
3,-3,1.786
-17,-5,1.787
-25,-6,1.788
-33,-4,1.789
-41,0,1.79
-46,-3,1.791
-43,-7,1.792
-37,-7,1.793
-28,-7,1.794
-15,-4,1.795
-1,-2,1.796
7,-3,1.797
15,1,1.798
32,7,1.799
53,10,1.8
58,10,1.801
46,6,1.802
35,0,1.803
32,-2,1.804
24,-3,1.805
6,-1,1.806
-15,-2,1.807
-27,-6,1.808
-33,-11,1.809
-41,-12,1.81
-48,-10,1.811
-47,-7,1.812
-36,-6,1.813
-25,-7,1.814
-10,-2,1.815
1,2,1.816
12,2,1.817
24,1,1.818
42,3,1.819
62,6,1.82
69,10,1.821
62,12,1.822
50,9,1.823
39,4,1.824
23,-1,1.825
4,-6,1.826
-12,-2,1.827
-25,0,1.828
-38,-2,1.829
-51,-6,1.83
-57,-10,1.831
-54,-12,1.832
-46,-5,1.833
-33,1,1.834
-20,3,1.835
-6,1,1.836
6,-4,1.837
22,-2,1.838
39,2,1.839
54,7,1.84
59,9,1.841
55,10,1.842
48,10,1.843
39,5,1.844
25,-1,1.845
6,-3,1.846
-12,-3,1.847
-24,-5,1.848
-34,-8,1.849
-44,-9,1.85
-50,-10,1.851
-48,-11,1.852
-39,-10,1.853
-27,-6,1.854
-14,-2,1.855
-3,0,1.856
6,0,1.857
20,1,1.858
40,3,1.859
57,4,1.86
59,8,1.861
53,9,1.862
48,4,1.863
44,-5,1.864
28,-9,1.865
1,-6,1.866
-21,-3,1.867
-32,-5,1.868
-37,-6,1.869
-43,-7,1.87
-48,-8,1.871
-45,-12,1.872
-37,-9,1.873
-27,-1,1.874
-12,4,1.875
2,3,1.876
11,-1,1.877
20,1,1.878
35,5,1.879
52,8,1.88
60,10,1.881
54,14,1.882
41,13,1.883
30,5,1.884
17,-1,1.885
1,-3,1.886
-14,-3,1.887
-27,-6,1.888
-38,-10,1.889
-47,-10,1.89
-49,-7,1.891
-46,-4,1.892
-37,-1,1.893
-22,-2,1.894
-5,0,1.895
5,0,1.896
8,-3,1.897
16,-5,1.898
34,0,1.899
53,5,1.9
61,7,1.901
56,9,1.902
48,4,1.903
35,0,1.904
19,0,1.905
1,0,1.906
-14,-1,1.907
-29,-4,1.908
-44,-7,1.909
-52,-10,1.91
-52,-10,1.911
-48,-8,1.912
-45,-6,1.913
-34,-4,1.914
-11,-3,1.915
11,-4,1.916
21,-8,1.917
23,-4,1.918
37,5,1.919
56,13,1.92
67,17,1.921
60,15,1.922
49,10,1.923
38,0,1.924
23,-5,1.925
1,-5,1.926
-17,-4,1.927
-30,-6,1.928
-39,-8,1.929
-48,-9,1.93
-51,-9,1.931
-50,-8,1.932
-42,-4,1.933
-27,2,1.934
-10,3,1.935
3,2,1.936
12,0,1.937
22,4,1.938
38,9,1.939
54,6,1.94
60,2,1.941
56,5,1.942
47,7,1.943
35,5,1.944
19,0,1.945
0,-1,1.946
-16,-1,1.947
-27,-7,1.948
-37,-14,1.949
-45,-14,1.95
-48,-10,1.951
-46,-11,1.952
-39,-12,1.953
-26,-7,1.954
-11,4,1.955
2,6,1.956
10,-2,1.957
16,-4,1.958
30,3,1.959
52,9,1.96
64,8,1.961
63,10,1.962
49,13,1.963
33,12,1.964
15,0,1.965
-3,-8,1.966
-18,-4,1.967
-30,-2,1.968
-41,-9,1.969
-48,-17,1.97
-47,-13,1.971
-42,-6,1.972
-33,-1,1.973
-26,-2,1.974
-14,-3,1.975
3,-4,1.976
18,-4,1.977
24,-3,1.978
30,2,1.979
46,7,1.98
62,10,1.981
61,12,1.982
48,7,1.983
34,2,1.984
22,-1,1.985
5,-4,1.986
-12,-4,1.987
-24,-4,1.988
-34,-5,1.989
-45,-7,1.99
-50,-5,1.991
-47,-4,1.992
-37,-3,1.993
-27,-2,1.994
-14,-3,1.995
-3,-1,1.996
7,-4,1.997
18,-4,1.998
36,0,1.999
56,9,2.0
65,13,2.001
57,8,2.002
45,0,2.003
36,-4,2.004
21,-2,2.005
1,1,2.006
-17,0,2.007
-27,-5,2.008
-37,-10,2.009
-46,-12,2.01
-50,-10,2.011
-45,-6,2.012
-38,-3,2.013
-26,0,2.014
-9,-1,2.015
5,0,2.016
15,-3,2.017
23,-1,2.018
42,4,2.019
59,7,2.02
62,10,2.021
52,9,2.022
41,5,2.023
33,0,2.024
19,-4,2.025
-2,-5,2.026
-17,-5,2.027
-27,-6,2.028
-37,-8,2.029
-49,-10,2.03
-52,-9,2.031
-46,-7,2.032
-34,-4,2.033
-22,-1,2.034
-10,3,2.035
-1,2,2.036
8,-2,2.037
22,-4,2.038
44,0,2.039
62,7,2.04
65,11,2.041
54,14,2.042
41,13,2.043
29,5,2.044
13,-1,2.045
-8,-4,2.046
-23,-6,2.047
-31,-12,2.048
-40,-17,2.049
-49,-17,2.05
-52,-11,2.051
-47,-5,2.052
-37,1,2.053
-26,5,2.054
-12,7,2.055
1,9,2.056
11,8,2.057
22,7,2.058
38,8,2.059
50,10,2.06
54,10,2.061
54,7,2.062
44,0,2.063
32,-5,2.064
18,-4,2.065
3,-3,2.066
-15,-4,2.067
-31,-5,2.068
-37,-7,2.069
-43,-9,2.07
-46,-8,2.071
-45,-7,2.072
-31,-7,2.073
-17,-7,2.074
-4,-6,2.075
2,-3,2.076
12,-3,2.077
22,2,2.078
38,9,2.079
55,11,2.08
63,9,2.081
59,5,2.082
48,4,2.083
35,5,2.084
19,0,2.085
-1,-6,2.086
-21,-7,2.087
-33,-5,2.088
-41,-6,2.089
-49,-11,2.09
-55,-13,2.091
-50,-9,2.092
-35,-1,2.093
-14,6,2.094
-2,5,2.095
2,-1,2.096
9,-8,2.097
21,-6,2.098
40,3,2.099
55,11,2.1
58,12,2.101
52,11,2.102
44,10,2.103
32,8,2.104
14,2,2.105
-9,-2,2.106
-24,-2,2.107
-32,-6,2.108
-38,-13,2.109
-46,-16,2.11
-49,-11,2.111
-43,-5,2.112
-32,-3,2.113
-20,-6,2.114
-9,-7,2.115
2,-7,2.116
14,-6,2.117
27,-5,2.118
44,-3,2.119
59,0,2.12
62,8,2.121
55,13,2.122
47,7,2.123
38,-4,2.124
21,-8,2.125
-2,-6,2.126
-19,-5,2.127
-26,-5,2.128
-34,-3,2.129
-44,-2,2.13
-50,-4,2.131
-44,-8,2.132
-32,-4,2.133
-22,0,2.134
-11,1,2.135
0,3,2.136
6,1,2.137
18,1,2.138
40,5,2.139
57,8,2.14
59,9,2.141
59,9,2.142
49,6,2.143
37,3,2.144
19,0,2.145
2,-2,2.146
-12,-5,2.147
-27,-8,2.148
-39,-6,2.149
-48,-5,2.15
-49,-4,2.151
-47,-3,2.152
-36,-3,2.153
-23,-3,2.154
-12,1,2.155
-1,6,2.156
7,3,2.157
19,1,2.158
41,1,2.159
58,5,2.16
60,7,2.161
60,7,2.162
50,6,2.163
38,4,2.164
20,0,2.165
3,-4,2.166
-13,-7,2.167
-28,-6,2.168
-40,-6,2.169
-49,-9,2.17
-50,-11,2.171
-48,-8,2.172
-37,-3,2.173
-24,1,2.174
-11,1,2.175
2,-1,2.176
14,-4,2.177
26,-3,2.178
42,1,2.179
59,5,2.18
66,8,2.181
57,12,2.182
41,12,2.183
26,8,2.184
12,3,2.185
-3,-1,2.186
-16,-6,2.187
-26,-13,2.188
-39,-17,2.189
-50,-13,2.19
-52,-9,2.191
-45,-7,2.192
-31,-6,2.193
-18,-3,2.194
-5,1,2.195
6,2,2.196
15,0,2.197
25,5,2.198
43,13,2.199
60,14,2.2
65,8,2.201
57,4,2.202
46,2,2.203
35,0,2.204
18,-2,2.205
-5,-1,2.206
-27,0,2.207
-42,-3,2.208
-51,-6,2.209
-54,-6,2.21
-51,-3,2.211
-42,-3,2.212
-28,-1,2.213
-24,-1,2.214
-8,-1,2.215
5,0,2.216
12,-2,2.217
23,-4,2.218
42,0,2.219
56,3,2.22
59,6,2.221
57,8,2.222
46,4,2.223
31,1,2.224
12,0,2.225
-5,-2,2.226
-19,-8,2.227
-32,-13,2.228
-44,-12,2.229
-53,-11,2.23
-53,-11,2.231
-49,-11,2.232
-35,-9,2.233
-23,-7,2.234
-8,-4,2.235
5,-4,2.236
12,-5,2.237
22,-3,2.238
40,0,2.239
54,2,2.24
56,10,2.241
55,14,2.242
44,11,2.243
30,3,2.244
12,-1,2.245
-5,0,2.246
-18,0,2.247
-31,-5,2.248
-42,-9,2.249
-51,-7,2.25
-51,-3,2.251
-47,-2,2.252
-34,-2,2.253
-20,-2,2.254
-4,2,2.255
7,6,2.256
16,4,2.257
27,2,2.258
46,2,2.259
63,5,2.26
66,12,2.261
59,15,2.262
49,8,2.263
33,-3,2.264
10,-8,2.265
-9,-6,2.266
-21,-4,2.267
-31,-5,2.268
-47,-8,2.269
-57,-9,2.27
-52,-9,2.271
-39,-8,2.272
-27,-3,2.273
-17,-1,2.274
-2,-2,2.275
9,-2,2.276
16,-2,2.277
26,0,2.278
43,0,2.279
60,4,2.28
64,8,2.281
55,9,2.282
42,4,2.283
31,-2,2.284
13,-5,2.285
-8,-3,2.286
-26,-6,2.287
-37,-11,2.288
-43,-15,2.289
-49,-13,2.29
-51,-11,2.291
-43,-6,2.292
-31,-1,2.293
-21,-2,2.294
-10,-2,2.295
1,-1,2.296
13,0,2.297
25,3,2.298
40,3,2.299
56,4,2.3
62,9,2.301
54,13,2.302
41,9,2.303
31,5,2.304
17,5,2.305
-6,2,2.306
-27,-3,2.307
-36,-9,2.308
-38,-8,2.309
-42,-7,2.31
-49,-7,2.311
-45,-6,2.312
-31,-6,2.313
-19,-5,2.314
-3,0,2.315
5,3,2.316
12,0,2.317
21,0,2.318
40,6,2.319
59,11,2.32
68,12,2.321
59,9,2.322
43,3,2.323
31,-2,2.324
18,-5,2.325
0,-6,2.326
-16,-5,2.327
-25,-6,2.328
-34,-10,2.329
-45,-13,2.33
-52,-10,2.331
-47,-6,2.332
-31,-3,2.333
-17,-2,2.334
-6,0,2.335
4,3,2.336
15,0,2.337
25,-2,2.338
41,1,2.339
55,11,2.34
56,16,2.341
48,13,2.342
38,4,2.343
28,-3,2.344
13,-7,2.345
-9,-8,2.346
-28,-9,2.347
-39,-9,2.348
-45,-9,2.349
-49,-9,2.35
-49,-7,2.351
-43,-5,2.352
-34,-1,2.353
-20,0,2.354
-6,1,2.355
1,0,2.356
9,-2,2.357
22,0,2.358
45,6,2.359
65,12,2.36
68,14,2.361
57,10,2.362
43,2,2.363
27,-2,2.364
11,-6,2.365
-9,-8,2.366
-24,-11,2.367
-35,-13,2.368
-46,-11,2.369
-52,-10,2.37
-50,-10,2.371
-41,-10,2.372
-29,-7,2.373
-17,0,2.374
-3,1,2.375
10,2,2.376
19,0,2.377
27,-2,2.378
40,2,2.379
54,9,2.38
60,14,2.381
59,15,2.382
50,5,2.383
32,-3,2.384
10,-3,2.385
-10,-3,2.386
-24,-6,2.387
-34,-9,2.388
-44,-9,2.389
-50,-9,2.39
-48,-5,2.391
-42,-1,2.392
-30,-1,2.393
-18,0,2.394
-2,1,2.395
12,2,2.396
17,0,2.397
26,-2,2.398
44,2,2.399
59,7,2.4
57,11,2.401
52,12,2.402
37,4,2.403
22,-3,2.404
7,-3,2.405
-8,-3,2.406
-21,-5,2.407
-34,-7,2.408
-43,-7,2.409
-50,-7,2.41
-47,-4,2.411
-41,-1,2.412
-28,-1,2.413
-13,-3,2.414
2,-5,2.415
12,-2,2.416
18,-2,2.417
29,1,2.418
46,5,2.419
60,9,2.42
60,11,2.421
51,9,2.422
38,2,2.423
23,-5,2.424
2,-7,2.425
-16,-4,2.426
-28,-3,2.427
-34,-7,2.428
-39,-10,2.429
-44,-9,2.43
-45,-7,2.431
-38,-9,2.432
-26,-8,2.433
-11,-2,2.434
0,5,2.435
9,8,2.436
19,0,2.437
31,-4,2.438
46,-1,2.439
58,4,2.44
60,9,2.441
52,9,2.442
39,3,2.443
23,-3,2.444
6,-6,2.445
-13,-5,2.446
-29,-4,2.447
-43,-8,2.448
-50,-11,2.449
-53,-11,2.45
-52,-9,2.451
-44,-9,2.452
-31,-6,2.453
-18,-2,2.454
-5,3,2.455
3,6,2.456
13,1,2.457
30,-2,2.458
52,2,2.459
68,5,2.46
67,4,2.461
49,3,2.462
33,3,2.463
21,3,2.464
9,3,2.465
-11,2,2.466
-26,-3,2.467
-33,-9,2.468
-38,-8,2.469
-46,-7,2.47
-52,-7,2.471
-46,-5,2.472
-28,-1,2.473
-13,3,2.474
-3,8,2.475
4,5,2.476
14,-1,2.477
26,2,2.478
39,10,2.479
53,13,2.48
59,11,2.481
53,9,2.482
41,7,2.483
27,4,2.484
10,0,2.485
-12,-5,2.486
-26,-8,2.487
-31,-10,2.488
-36,-9,2.489
-43,-8,2.49
-46,-9,2.491
-37,-11,2.492
-21,-7,2.493
-10,1,2.494
0,1,2.495
13,-3,2.496
22,-7,2.497
30,-2,2.498
44,4,2.499
60,7,2.5
66,6,2.501
54,5,2.502
35,4,2.503
21,1,2.504
8,1,2.505
-12,1,2.506
-29,-3,2.507
-36,-9,2.508
-39,-12,2.509
-47,-8,2.51
-54,-4,2.511
-46,-3,2.512
-26,-3,2.513
-9,-1,2.514
2,0,2.515
8,3,2.516
19,3,2.517
32,4,2.518
48,4,2.519
60,3,2.52
64,3,2.521
57,6,2.522
42,6,2.523
23,0,2.524
5,-7,2.525
-12,-10,2.526
-27,-12,2.527
-36,-14,2.528
-42,-12,2.529
-44,-8,2.53
-46,-3,2.531
-41,2,2.532
-29,5,2.533
-16,4,2.534
-1,3,2.535
8,1,2.536
15,0,2.537
25,-3,2.538
38,-1,2.539
50,1,2.54
50,6,2.541
42,9,2.542
33,5,2.543
22,0,2.544
7,-1,2.545
-10,-3,2.546
-23,-5,2.547
-32,-8,2.548
-42,-9,2.549
-51,-9,2.55
-49,-6,2.551
-38,-2,2.552
-25,2,2.553
-13,7,2.554
0,10,2.555
8,9,2.556
15,2,2.557
27,1,2.558
47,5,2.559
63,8,2.56
64,5,2.561
52,0,2.562
38,-4,2.563
24,-8,2.564
5,-7,2.565
-16,-4,2.566
-30,-5,2.567
-35,-9,2.568
-40,-12,2.569
-46,-9,2.57
-45,-5,2.571
-36,-6,2.572
-23,-7,2.573
-12,-6,2.574
-1,-2,2.575
10,2,2.576
18,0,2.577
24,0,2.578
37,1,2.579
53,2,2.58
57,4,2.581
49,6,2.582
34,4,2.583
20,2,2.584
4,2,2.585
-12,1,2.586
-24,-4,2.587
-34,-7,2.588
-43,-3,2.589
-50,0,2.59
-48,-2,2.591
-35,-7,2.592
-21,-8,2.593
-9,-6,2.594
4,-4,2.595
19,-2,2.596
28,1,2.597
36,6,2.598
47,8,2.599
62,9,2.6
64,12,2.601
51,14,2.602
32,9,2.603
17,0,2.604
2,-1,2.605
-14,1,2.606
-28,-2,2.607
-40,-9,2.608
-47,-11,2.609
-49,-7,2.61
-44,-4,2.611
-35,-3,2.612
-23,-1,2.613
-13,1,2.614
-1,1,2.615
8,1,2.616
16,0,2.617
24,-2,2.618
41,1,2.619
56,4,2.62
58,6,2.621
47,7,2.622
33,3,2.623
20,0,2.624
5,0,2.625
-10,0,2.626
-23,-1,2.627
-32,-4,2.628
-42,-8,2.629
-50,-11,2.63
-50,-11,2.631
-40,-11,2.632
-23,-11,2.633
-10,-10,2.634
2,-3,2.635
16,3,2.636
27,0,2.637
38,-4,2.638
48,-1,2.639
59,5,2.64
59,7,2.641
50,4,2.642
35,0,2.643
23,-1,2.644
8,-4,2.645
-9,-3,2.646
-25,-3,2.647
-37,-5,2.648
-45,-9,2.649
-49,-10,2.65
-47,-6,2.651
-36,-2,2.652
-21,-1,2.653
-9,-2,2.654
1,-3,2.655
8,-1,2.656
15,-2,2.657
25,0,2.658
40,6,2.659
56,12,2.66
60,12,2.661
50,8,2.662
33,2,2.663
17,-3,2.664
1,-5,2.665
-16,-5,2.666
-31,-7,2.667
-39,-10,2.668
-43,-10,2.669
-45,-9,2.67
-45,-8,2.671
-39,-7,2.672
-25,-4,2.673
-8,-2,2.674
9,3,2.675
19,6,2.676
24,5,2.677
32,6,2.678
46,7,2.679
57,8,2.68
55,10,2.681
43,8,2.682
30,4,2.683
20,-2,2.684
5,-5,2.685
-13,-6,2.686
-28,-5,2.687
-37,-4,2.688
-42,-5,2.689
-45,-4,2.69
-44,-5,2.691
-37,-5,2.692
-25,0,2.693
-12,2,2.694
2,3,2.695
15,4,2.696
24,1,2.697
35,0,2.698
47,6,2.699
58,11,2.7
58,11,2.701
46,8,2.702
30,2,2.703
15,-3,2.704
0,-5,2.705
-12,-8,2.706
-23,-8,2.707
-36,-8,2.708
-45,-9,2.709
-49,-9,2.71
-45,-6,2.711
-36,-3,2.712
-23,-2,2.713
-6,-2,2.714
6,0,2.715
14,4,2.716
20,1,2.717
34,2,2.718
51,6,2.719
61,10,2.72
57,12,2.721
45,13,2.722
34,10,2.723
23,1,2.724
5,-6,2.725
-15,-7,2.726
-31,-4,2.727
-40,-6,2.728
-46,-10,2.729
-51,-10,2.73
-50,-5,2.731
-38,0,2.732
-20,-1,2.733
-4,-6,2.734
7,-8,2.735
9,-5,2.736
12,-2,2.737
24,1,2.738
46,5,2.739
64,4,2.74
63,2,2.741
49,0,2.742
33,-1,2.743
18,-3,2.744
-1,-5,2.745
-20,-7,2.746
-33,-7,2.747
-40,-6,2.748
-46,-3,2.749
-53,-1,2.75
-50,-2,2.751
-37,-3,2.752
-20,-2,2.753
-5,3,2.754
8,4,2.755
15,5,2.756
20,5,2.757
30,6,2.758
47,5,2.759
60,5,2.76
60,8,2.761
48,10,2.762
36,6,2.763
21,3,2.764
0,1,2.765
-18,-1,2.766
-27,-2,2.767
-34,-3,2.768
-44,-3,2.769
-51,-4,2.77
-48,-8,2.771
-35,-9,2.772
-22,-5,2.773
-11,5,2.774
1,6,2.775
13,7,2.776
22,8,2.777
32,9,2.778
49,7,2.779
62,7,2.78
59,12,2.781
42,15,2.782
27,9,2.783
16,4,2.784
-1,0,2.785
-19,-3,2.786
-31,-4,2.787
-39,-6,2.788
-44,-6,2.789
-49,-7,2.79
-45,-12,2.791
-32,-14,2.792
-18,-8,2.793
-5,-2,2.794
9,0,2.795
20,-3,2.796
29,-7,2.797
35,-6,2.798
44,0,2.799
53,7,2.8
53,11,2.801
44,8,2.802
31,0,2.803
16,-3,2.804
0,-1,2.805
-18,-3,2.806
-34,-8,2.807
-45,-11,2.808
-48,-6,2.809
-47,-3,2.81
-42,-6,2.811
-36,-7,2.812
-25,-1,2.813
-12,3,2.814
3,2,2.815
13,2,2.816
20,4,2.817
31,5,2.818
48,4,2.819
61,7,2.82
60,12,2.821
47,11,2.822
31,1,2.823
16,-7,2.824
-1,-9,2.825
-19,-11,2.826
-32,-16,2.827
-39,-16,2.828
-45,-11,2.829
-49,-4,2.83
-47,-2,2.831
-35,-3,2.832
-20,2,2.833
-5,6,2.834
5,7,2.835
10,3,2.836
17,0,2.837
33,2,2.838
54,6,2.839
63,9,2.84
57,8,2.841
43,7,2.842
33,6,2.843
22,3,2.844
4,-3,2.845
-18,-8,2.846
-33,-9,2.847
-41,-9,2.848
-44,-10,2.849
-44,-11,2.85
-41,-7,2.851
-32,-4,2.852
-19,-2,2.853
-3,-3,2.854
9,0,2.855
14,3,2.856
20,3,2.857
34,3,2.858
51,9,2.859
61,14,2.86
58,15,2.861
46,14,2.862
30,7,2.863
13,1,2.864
-3,-4,2.865
-19,-8,2.866
-32,-8,2.867
-43,-8,2.868
-49,-9,2.869
-49,-9,2.87
-45,-5,2.871
-39,0,2.872
-26,1,2.873
-12,3,2.874
4,2,2.875
16,3,2.876
26,1,2.877
37,0,2.878
49,1,2.879
57,5,2.88
59,8,2.881
51,8,2.882
33,7,2.883
13,0,2.884
-2,-6,2.885
-14,-10,2.886
-25,-8,2.887
-39,-8,2.888
-50,-12,2.889
-51,-13,2.89
-44,-8,2.891
-33,-1,2.892
-19,0,2.893
-6,-3,2.894
10,-2,2.895
20,0,2.896
25,0,2.897
33,4,2.898
46,9,2.899
56,10,2.9
55,9,2.901
44,7,2.902
28,2,2.903
13,-4,2.904
-3,-8,2.905
-19,-6,2.906
-31,-4,2.907
-41,-8,2.908
-46,-13,2.909
-45,-12,2.91
-39,-7,2.911
-28,-6,2.912
-17,-5,2.913
-5,-6,2.914
7,-4,2.915
16,-3,2.916
24,-5,2.917
36,0,2.918
51,6,2.919
62,11,2.92
60,13,2.921
46,13,2.922
29,8,2.923
14,0,2.924
-4,-3,2.925
-25,1,2.926
-40,2,2.927
-46,-4,2.928
-47,-9,2.929
-46,-8,2.93
-42,-6,2.931
-31,-5,2.932
-15,-2,2.933
0,1,2.934
9,1,2.935
13,1,2.936
22,0,2.937
37,-1,2.938
49,-1,2.939
57,-2,2.94
54,-1,2.941
42,0,2.942
25,-1,2.943
7,-2,2.944
-9,-3,2.945
-24,-5,2.946
-37,-7,2.947
-42,-9,2.948
-43,-9,2.949
-42,-9,2.95
-41,-10,2.951
-36,-10,2.952
-24,-4,2.953
-7,0,2.954
5,2,2.955
11,1,2.956
18,-2,2.957
34,-2,2.958
52,1,2.959
63,7,2.96
58,13,2.961
45,14,2.962
32,8,2.963
18,1,2.964
0,0,2.965
-21,-1,2.966
-38,-5,2.967
-47,-8,2.968
-52,-6,2.969
-53,-3,2.97
-45,-4,2.971
-31,-6,2.972
-15,-1,2.973
-1,6,2.974
13,5,2.975
21,2,2.976
27,0,2.977
34,3,2.978
48,3,2.979
62,3,2.98
61,5,2.981
47,7,2.982
29,6,2.983
12,2,2.984
-6,1,2.985
-22,0,2.986
-33,-5,2.987
-40,-8,2.988
-46,-8,2.989
-49,-6,2.99
-45,-7,2.991
-32,-6,2.992
-16,-2,2.993
-1,-2,2.994
11,-4,2.995
18,-2,2.996
25,3,2.997
36,8,2.998
50,5,2.999
61,1,3.0
58,7,3.001
45,11,3.002
28,3,3.003
12,-11,3.004
-6,-16,3.005
-23,-12,3.006
-36,-10,3.007
-44,-13,3.008
-45,-15,3.009
-43,-10,3.01
-39,-8,3.011
-31,-6,3.012
-20,-3,3.013
-7,0,3.014
6,0,3.015
17,0,3.016
27,-1,3.017
39,-2,3.018
50,6,3.019
57,13,3.02
53,13,3.021
42,12,3.022
26,6,3.023
11,2,3.024
-6,2,3.025
-22,0,3.026
-33,-3,3.027
-42,-6,3.028
-47,-6,3.029
-48,-6,3.03
-44,-4,3.031
-35,-3,3.032
-21,-1,3.033
-6,1,3.034
7,0,3.035
16,-4,3.036
24,-9,3.037
36,-5,3.038
52,1,3.039
63,4,3.04
58,5,3.041
44,5,3.042
26,0,3.043
9,-6,3.044
-9,-9,3.045
-25,-8,3.046
-34,-6,3.047
-39,-8,3.048
-43,-11,3.049
-45,-9,3.05
-41,-7,3.051
-29,-6,3.052
-17,-4,3.053
-4,-2,3.054
6,2,3.055
15,5,3.056
24,4,3.057
36,4,3.058
49,4,3.059
57,5,3.06
50,6,3.061
34,7,3.062
22,5,3.063
12,1,3.064
-4,0,3.065
-23,1,3.066
-37,0,3.067
-41,-4,3.068
-44,-8,3.069
-49,-9,3.07
-46,-6,3.071
-30,-4,3.072
-10,-2,3.073
0,-4,3.074
5,-6,3.075
14,-2,3.076
26,-1,3.077
38,0,3.078
50,2,3.079
58,3,3.08
52,7,3.081
43,6,3.082
25,2,3.083
8,-1,3.084
-5,0,3.085
-17,0,3.086
-29,-4,3.087
-38,-10,3.088
-40,-10,3.089
-41,-8,3.09
-39,-5,3.091
-34,-4,3.092
-19,-1,3.093
-3,-1,3.094
11,-1,3.095
17,0,3.096
24,-3,3.097
36,-5,3.098
49,-2,3.099
58,0,3.1
58,4,3.101
50,7,3.102
34,0,3.103
14,-4,3.104
-5,-5,3.105
-17,-6,3.106
-27,-4,3.107
-39,-2,3.108
-48,-6,3.109
-50,-8,3.11
-45,-4,3.111
-37,-1,3.112
-26,-1,3.113
-10,-1,3.114
3,-1,3.115
16,0,3.116
25,-3,3.117
36,-5,3.118
50,-2,3.119
60,0,3.12
53,4,3.121
44,6,3.122
26,0,3.123
9,-4,3.124
-7,-5,3.125
-22,-6,3.126
-33,-4,3.127
-43,-2,3.128
-48,-6,3.129
-51,-8,3.13
-42,-4,3.131
-31,-1,3.132
-15,-1,3.133
0,0,3.134
10,4,3.135
18,10,3.136
26,9,3.137
35,5,3.138
49,0,3.139
61,1,3.14
61,8,3.141
45,10,3.142
23,2,3.143
9,-7,3.144
-4,-10,3.145
-20,-5,3.146
-37,-5,3.147
-46,-7,3.148
-47,-10,3.149
-48,-7,3.15
-47,-4,3.151
-34,-5,3.152
-15,-7,3.153
-2,-4,3.154
5,0,3.155
14,2,3.156
28,1,3.157
41,3,3.158
50,9,3.159
56,10,3.16
48,9,3.161
39,6,3.162
27,1,3.163
14,-3,3.164
-3,-8,3.165
-20,-10,3.166
-34,-12,3.167
-45,-13,3.168
-45,-11,3.169
-42,-7,3.17
-36,-2,3.171
-27,0,3.172
-12,3,3.173
3,2,3.174
12,0,3.175
20,-1,3.176
29,0,3.177
39,2,3.178
50,4,3.179
59,7,3.18
59,9,3.181
45,10,3.182
27,4,3.183
11,-1,3.184
-5,-6,3.185
-23,-11,3.186
-35,-10,3.187
-39,-7,3.188
-41,-1,3.189
-48,2,3.19
-48,0,3.191
-31,-3,3.192
-9,-3,3.193
4,-2,3.194
9,2,3.195
14,4,3.196
26,2,3.197
40,5,3.198
52,7,3.199
58,8,3.2
53,7,3.201
38,5,3.202
20,0,3.203
6,-7,3.204
-6,-11,3.205
-19,-10,3.206
-34,-7,3.207
-46,-7,3.208
-52,-10,3.209
-53,-12,3.21
-46,-10,3.211
-32,-6,3.212
-17,-1,3.213
-3,0,3.214
8,1,3.215
16,3,3.216
24,0,3.217
35,-1,3.218
50,1,3.219
61,7,3.22
58,10,3.221
40,7,3.222
19,1,3.223
4,-1,3.224
-8,0,3.225
-22,0,3.226
-34,-4,3.227
-40,-5,3.228
-40,-3,3.229
-37,-3,3.23
-33,-3,3.231
-25,0,3.232
-13,4,3.233
1,4,3.234
13,2,3.235
18,-1,3.236
23,-4,3.237
35,-3,3.238
52,1,3.239
64,8,3.24
59,10,3.241
41,6,3.242
20,-3,3.243
4,-6,3.244
-8,-5,3.245
-23,-5,3.246
-34,-8,3.247
-40,-10,3.248
-43,-8,3.249
-46,-7,3.25
-44,-8,3.251
-32,-7,3.252
-13,-2,3.253
1,2,3.254
9,3,3.255
16,4,3.256
29,2,3.257
42,0,3.258
52,2,3.259
54,5,3.26
49,5,3.261
35,5,3.262
17,0,3.263
0,-4,3.264
-15,-5,3.265
-28,-7,3.266
-39,-6,3.267
-46,-5,3.268
-48,-6,3.269
-47,-7,3.27
-40,-5,3.271
-25,-4,3.272
-8,-5,3.273
4,-5,3.274
12,0,3.275
18,0,3.276
27,-3,3.277
39,0,3.278
53,5,3.279
64,8,3.28
62,8,3.281
45,9,3.282
23,9,3.283
4,3,3.284
-9,-3,3.285
-23,-7,3.286
-35,-9,3.287
-42,-11,3.288
-45,-10,3.289
-47,-3,3.29
-45,0,3.291
-32,-2,3.292
-14,-3,3.293
1,-3,3.294
12,-3,3.295
21,-1,3.296
30,0,3.297
42,4,3.298
52,3,3.299
59,0,3.3
56,2,3.301
40,5,3.302
17,1,3.303
-1,-3,3.304
-15,0,3.305
-25,4,3.306
-36,-3,3.307
-43,-13,3.308
-44,-14,3.309
-43,-5,3.31
-39,0,3.311
-27,-3,3.312
-10,-3,3.313
0,0,3.314
9,3,3.315
19,2,3.316
29,0,3.317
39,2,3.318
49,3,3.319
55,3,3.32
48,6,3.321
38,9,3.322
18,5,3.323
0,-3,3.324
-12,-8,3.325
-25,-7,3.326
-38,-6,3.327
-47,-7,3.328
-45,-5,3.329
-41,-3,3.33
-33,-2,3.331
-23,-1,3.332
-8,1,3.333
7,1,3.334
15,1,3.335
22,0,3.336
31,-1,3.337
43,-3,3.338
57,0,3.339
66,2,3.34
61,4,3.341
45,5,3.342
24,-3,3.343
4,-9,3.344
-12,-10,3.345
-29,-10,3.346
-42,-8,3.347
-48,-7,3.348
-47,-6,3.349
-44,-4,3.35
-41,1,3.351
-33,6,3.352
-16,6,3.353
6,4,3.354
20,2,3.355
23,4,3.356
27,4,3.357
40,5,3.358
54,7,3.359
58,9,3.36
47,8,3.361
32,3,3.362
18,-2,3.363
2,-5,3.364
-18,-7,3.365
-34,-8,3.366
-40,-6,3.367
-41,-2,3.368
-45,-2,3.369
-49,-6,3.37
-45,-8,3.371
-30,-7,3.372
-12,-2,3.373
4,0,3.374
14,2,3.375
20,4,3.376
28,2,3.377
42,0,3.378
61,-2,3.379
69,0,3.38
59,7,3.381
38,10,3.382
19,6,3.383
1,-1,3.384
-16,-6,3.385
-30,-8,3.386
-38,-11,3.387
-42,-12,3.388
-47,-10,3.389
-50,-7,3.39
-43,-6,3.391
-29,-5,3.392
-13,-3,3.393
-1,0,3.394
11,3,3.395
21,4,3.396
31,1,3.397
40,0,3.398
50,2,3.399
57,5,3.4
53,8,3.401
41,8,3.402
25,4,3.403
10,0,3.404
-6,-2,3.405
-21,-4,3.406
-30,-7,3.407
-38,-9,3.408
-47,-6,3.409
-50,-5,3.41
-42,-7,3.411
-23,-6,3.412
-6,1,3.413
5,7,3.414
15,3,3.415
23,0,3.416
33,1,3.417
40,2,3.418
51,4,3.419
58,6,3.42
53,6,3.421
36,4,3.422
16,2,3.423
3,0,3.424
-7,-3,3.425
-23,-7,3.426
-39,-11,3.427
-47,-13,3.428
-47,-9,3.429
-46,-4,3.43
-38,-2,3.431
-24,0,3.432
-10,0,3.433
4,0,3.434
16,1,3.435
25,1,3.436
32,-2,3.437
40,0,3.438
50,3,3.439
56,4,3.44
50,3,3.441
34,1,3.442
17,-2,3.443
1,-7,3.444
-16,-9,3.445
-32,-9,3.446
-41,-9,3.447
-44,-9,3.448
-47,-9,3.449
-46,-7,3.45
-39,-7,3.451
-25,-8,3.452
-9,-7,3.453
5,-3,3.454
17,-2,3.455
23,-2,3.456
28,0,3.457
41,2,3.458
59,5,3.459
67,5,3.46
56,7,3.461
33,7,3.462
15,4,3.463
-1,0,3.464
-17,0,3.465
-29,1,3.466
-34,-4,3.467
-35,-9,3.468
-43,-7,3.469
-47,-2,3.47
-41,0,3.471
-25,-2,3.472
-9,1,3.473
5,7,3.474
19,10,3.475
25,6,3.476
28,2,3.477
35,3,3.478
50,4,3.479
58,1,3.48
48,0,3.481
29,2,3.482
14,0,3.483
2,-6,3.484
-10,-8,3.485
-24,-6,3.486
-35,-5,3.487
-42,-6,3.488
-46,-6,3.489
-45,-5,3.49
-36,-5,3.491
-23,-4,3.492
-7,0,3.493
5,0,3.494
17,-4,3.495
25,-6,3.496
32,-3,3.497
39,0,3.498
51,4,3.499
60,7,3.5
55,7,3.501
36,7,3.502
14,3,3.503
-4,-1,3.504
-16,-3,3.505
-28,-6,3.506
-38,-5,3.507
-44,-4,3.508
-45,-4,3.509
-47,-2,3.51
-42,0,3.511
-26,2,3.512
-9,6,3.513
4,7,3.514
13,0,3.515
20,-5,3.516
30,-8,3.517
42,-2,3.518
53,2,3.519
60,3,3.52
56,5,3.521
41,9,3.522
20,7,3.523
1,0,3.524
-15,-7,3.525
-27,-7,3.526
-38,-5,3.527
-44,-6,3.528
-46,-6,3.529
-44,-6,3.53
-36,-5,3.531
-22,-3,3.532
-7,-1,3.533
5,0,3.534
16,-1,3.535
26,-1,3.536
36,-1,3.537
44,2,3.538
50,5,3.539
53,3,3.54
46,2,3.541
30,0,3.542
13,-2,3.543
-2,-4,3.544
-15,-6,3.545
-27,-7,3.546
-41,-7,3.547
-50,-9,3.548
-52,-9,3.549
-46,-6,3.55
-35,-2,3.551
-20,0,3.552
-6,3,3.553
10,5,3.554
22,5,3.555
28,5,3.556
31,1,3.557
40,-1,3.558
52,-2,3.559
59,-1,3.56
52,2,3.561
36,5,3.562
21,3,3.563
5,-5,3.564
-12,-14,3.565
-29,-17,3.566
-37,-13,3.567
-40,-8,3.568
-42,-7,3.569
-46,-7,3.57
-42,-4,3.571
-27,2,3.572
-8,6,3.573
8,3,3.574
19,1,3.575
25,-1,3.576
30,-1,3.577
38,-1,3.578
47,2,3.579
52,5,3.58
48,6,3.581
33,6,3.582
15,0,3.583
-1,-4,3.584
-16,-4,3.585
-31,-5,3.586
-44,-7,3.587
-52,-9,3.588
-52,-9,3.589
-45,-8,3.59
-33,-4,3.591
-20,0,3.592
-8,1,3.593
3,4,3.594
16,9,3.595
26,8,3.596
36,5,3.597
46,4,3.598
55,10,3.599
58,15,3.6
51,16,3.601
35,12,3.602
18,1,3.603
3,-8,3.604
-14,-10,3.605
-31,-7,3.606
-42,-8,3.607
-48,-12,3.608
-49,-12,3.609
-50,-7,3.61
-42,-1,3.611
-25,-1,3.612
-7,-1,3.613
7,0,3.614
20,4,3.615
29,7,3.616
37,5,3.617
44,6,3.618
53,4,3.619
60,2,3.62
55,2,3.621
38,5,3.622
17,2,3.623
-2,-3,3.624
-19,-7,3.625
-31,-6,3.626
-36,-4,3.627
-38,-7,3.628
-40,-7,3.629
-41,-3,3.63
-32,1,3.631
-17,0,3.632
-3,0,3.633
4,0,3.634
13,1,3.635
22,6,3.636
34,3,3.637
44,1,3.638
52,6,3.639
55,11,3.64
44,11,3.641
31,9,3.642
15,4,3.643
-1,1,3.644
-16,1,3.645
-30,0,3.646
-39,-3,3.647
-47,-7,3.648
-47,-11,3.649
-44,-14,3.65
-37,-11,3.651
-27,-7,3.652
-9,-4,3.653
7,0,3.654
14,1,3.655
20,4,3.656
29,2,3.657
42,1,3.658
53,4,3.659
58,7,3.66
49,7,3.661
28,6,3.662
10,3,3.663
-2,1,3.664
-13,1,3.665
-28,0,3.666
-40,-2,3.667
-44,-5,3.668
-44,-7,3.669
-44,-9,3.67
-40,-7,3.671
-30,-5,3.672
-15,-3,3.673
1,0,3.674
18,3,3.675
29,5,3.676
36,1,3.677
42,0,3.678
54,0,3.679
62,3,3.68
55,7,3.681
36,8,3.682
16,2,3.683
0,-2,3.684
-16,-3,3.685
-30,-2,3.686
-41,-4,3.687
-44,-9,3.688
-42,-10,3.689
-38,-8,3.69
-30,-5,3.691
-19,-3,3.692
-7,3,3.693
4,5,3.694
17,2,3.695
28,-1,3.696
38,-2,3.697
46,2,3.698
56,4,3.699
60,4,3.7
50,8,3.701
29,11,3.702
9,7,3.703
-5,-1,3.704
-17,-5,3.705
-31,-4,3.706
-44,-4,3.707
-47,-8,3.708
-45,-10,3.709
-40,-8,3.71
-33,-6,3.711
-20,-5,3.712
-7,-2,3.713
4,2,3.714
14,6,3.715
24,3,3.716
33,-2,3.717
40,1,3.718
46,5,3.719
53,4,3.72
50,0,3.721
35,-3,3.722
13,-6,3.723
-6,-9,3.724
-19,-12,3.725
-29,-9,3.726
-38,-7,3.727
-43,-8,3.728
-44,-8,3.729
-43,-5,3.73
-35,-2,3.731
-21,3,3.732
-4,5,3.733
10,4,3.734
20,2,3.735
28,0,3.736
36,0,3.737
47,0,3.738
58,1,3.739
61,4,3.74
48,3,3.741
25,1,3.742
5,-3,3.743
-5,-6,3.744
-16,-6,3.745
-31,-4,3.746
-43,-2,3.747
-45,0,3.748
-41,-2,3.749
-38,-5,3.75
-32,-4,3.751
-21,-2,3.752
-5,2,3.753
12,7,3.754
22,8,3.755
30,0,3.756
36,-8,3.757
45,-6,3.758
55,0,3.759
56,4,3.76
46,1,3.761
28,-1,3.762
11,0,3.763
-2,0,3.764
-16,-4,3.765
-31,-7,3.766
-41,-7,3.767
-43,-7,3.768
-42,-7,3.769
-41,-6,3.77
-37,-4,3.771
-23,-3,3.772
-4,-1,3.773
10,1,3.774
18,3,3.775
20,6,3.776
26,7,3.777
39,9,3.778
55,7,3.779
61,0,3.78
50,-2,3.781
26,1,3.782
7,6,3.783
-7,6,3.784
-19,0,3.785
-31,-5,3.786
-40,-8,3.787
-44,-9,3.788
-46,-9,3.789
-44,-4,3.79
-33,1,3.791
-16,2,3.792
2,2,3.793
15,1,3.794
27,1,3.795
35,0,3.796
40,-3,3.797
42,-1,3.798
48,1,3.799
55,3,3.8
50,2,3.801
29,2,3.802
5,2,3.803
-10,-2,3.804
-20,-6,3.805
-30,-6,3.806
-41,-2,3.807
-44,-1,3.808
-43,-7,3.809
-41,-10,3.81
-35,-8,3.811
-21,-5,3.812
-4,-2,3.813
10,-2,3.814
19,3,3.815
24,7,3.816
31,5,3.817
40,3,3.818
50,3,3.819
51,2,3.82
42,0,3.821
24,-1,3.822
6,-2,3.823
-6,-3,3.824
-17,-3,3.825
-28,-3,3.826
-39,-5,3.827
-46,-8,3.828
-46,-10,3.829
-40,-11,3.83
-28,-7,3.831
-13,-2,3.832
3,0,3.833
16,4,3.834
25,8,3.835
31,9,3.836
36,6,3.837
43,3,3.838
52,6,3.839
56,10,3.84
46,7,3.841
29,-3,3.842
9,-10,3.843
-7,-10,3.844
-21,-7,3.845
-34,-7,3.846
-42,-12,3.847
-47,-14,3.848
-48,-11,3.849
-44,-8,3.85
-35,-6,3.851
-17,-2,3.852
1,5,3.853
14,8,3.854
23,7,3.855
33,2,3.856
43,0,3.857
49,1,3.858
51,2,3.859
52,0,3.86
42,0,3.861
23,1,3.862
0,0,3.863
-14,-4,3.864
-23,-6,3.865
-36,-5,3.866
-46,-2,3.867
-47,-2,3.868
-41,-4,3.869
-36,-5,3.87
-32,-6,3.871
-18,-4,3.872
4,0,3.873
18,1,3.874
24,-1,3.875
29,-2,3.876
40,-3,3.877
49,-1,3.878
54,3,3.879
55,6,3.88
46,8,3.881
27,8,3.882
4,0,3.883
-11,-10,3.884
-21,-14,3.885
-34,-12,3.886
-45,-8,3.887
-48,-7,3.888
-42,-9,3.889
-38,-6,3.89
-33,0,3.891
-20,5,3.892
-2,8,3.893
14,9,3.894
24,8,3.895
32,6,3.896
38,4,3.897
47,2,3.898
53,4,3.899
54,7,3.9
44,5,3.901
27,4,3.902
10,2,3.903
-4,0,3.904
-18,-4,3.905
-34,-7,3.906
-45,-7,3.907
-47,-6,3.908
-42,-7,3.909
-36,-7,3.91
-28,-3,3.911
-17,0,3.912
-2,-1,3.913
13,-1,3.914
26,1,3.915
32,3,3.916
35,0,3.917
39,2,3.918
49,8,3.919
56,8,3.92
47,3,3.921
23,0,3.922
0,-1,3.923
-14,-6,3.924
-22,-12,3.925
-31,-14,3.926
-41,-11,3.927
-46,-11,3.928
-47,-11,3.929
-44,-7,3.93
-33,-1,3.931
-16,2,3.932
2,4,3.933
14,8,3.934
22,10,3.935
27,7,3.936
33,0,3.937
41,0,3.938
49,4,3.939
52,2,3.94
41,-2,3.941
23,-1,3.942
6,-2,3.943
-4,-6,3.944
-20,-11,3.945
-37,-10,3.946
-47,-7,3.947
-45,-8,3.948
-41,-9,3.949
-41,-7,3.95
-36,-6,3.951
-20,-4,3.952
0,1,3.953
16,3,3.954
25,5,3.955
29,3,3.956
35,0,3.957
43,1,3.958
51,1,3.959
54,1,3.96
45,3,3.961
23,6,3.962
4,4,3.963
-7,-3,3.964
-17,-7,3.965
-30,-6,3.966
-41,-2,3.967
-44,-1,3.968
-41,-3,3.969
-38,-5,3.97
-30,-4,3.971
-15,-1,3.972
3,4,3.973
15,4,3.974
23,5,3.975
28,6,3.976
35,3,3.977
44,3,3.978
52,4,3.979
57,6,3.98
48,3,3.981
27,0,3.982
5,-2,3.983
-7,-3,3.984
-16,-5,3.985
-29,-8,3.986
-41,-11,3.987
-47,-9,3.988
-45,-4,3.989
-40,0,3.99
-29,3,3.991
-15,2,3.992
-1,2,3.993
11,2,3.994
20,3,3.995
29,2,3.996
35,-3,3.997
42,-3,3.998
50,0,3.999
54,3,4.0
46,5,4.001
25,3,4.002
1,0,4.003
-15,-3,4.004
-24,-4,4.005
-34,-1,4.006
-41,0,4.007
-43,-5,4.008
-42,-10,4.009
-35,-10,4.01
-28,-6,4.011
-14,-2,4.012
0,1,4.013
12,2,4.014
20,1,4.015
27,-3,4.016
34,-7,4.017
42,-3,4.018
48,4,4.019
50,5,4.02
42,4,4.021
22,4,4.022
2,4,4.023
-11,-1,4.024
-20,-7,4.025
-32,-9,4.026
-43,-5,4.027
-48,-3,4.028
-48,-5,4.029
-42,-7,4.03
-29,-3,4.031
-11,4,4.032
5,7,4.033
13,1,4.034
19,-2,4.035
24,0,4.036
32,-1,4.037
40,-1,4.038
52,-3,4.039
58,0,4.04
48,5,4.041
24,6,4.042
1,0,4.043
-13,-9,4.044
-23,-12,4.045
-36,-9,4.046
-44,-6,4.047
-41,-7,4.048
-34,-8,4.049
-28,-6,4.05
-21,-2,4.051
-9,-1,4.052
6,2,4.053
17,9,4.054
25,13,4.055
33,9,4.056
41,2,4.057
47,2,4.058
52,6,4.059
54,5,4.06
43,0,4.061
21,-3,4.062
1,-7,4.063
-12,-11,4.064
-23,-12,4.065
-39,-9,4.066
-48,-6,4.067
-46,-7,4.068
-41,-6,4.069
-38,0,4.07
-31,3,4.071
-16,1,4.072
2,0,4.073
11,0,4.074
17,4,4.075
25,2,4.076
33,-4,4.077
40,-4,4.078
47,-1,4.079
52,-2,4.08
44,-3,4.081
23,-1,4.082
3,0,4.083
-6,-2,4.084
-16,-6,4.085
-30,-5,4.086
-42,1,4.087
-44,0,4.088
-42,-7,4.089
-39,-10,4.09
-29,-5,4.091
-12,3,4.092
6,7,4.093
13,5,4.094
18,5,4.095
27,2,4.096
38,-2,4.097
47,-2,4.098
52,2,4.099
52,8,4.1
41,9,4.101
20,6,4.102
-1,1,4.103
-17,-2,4.104
-25,-3,4.105
-34,-4,4.106
-41,-7,4.107
-45,-7,4.108
-47,-5,4.109
-43,-2,4.11
-29,-2,4.111
-12,-3,4.112
2,2,4.113
13,6,4.114
24,4,4.115
32,-2,4.116
40,-6,4.117
44,0,4.118
52,8,4.119
55,9,4.12
43,4,4.121
25,-1,4.122
6,-6,4.123
-9,-9,4.124
-23,-12,4.125
-37,-12,4.126
-46,-10,4.127
-50,-6,4.128
-48,-3,4.129
-39,-1,4.13
-23,-3,4.131
-6,-4,4.132
6,-1,4.133
16,-2,4.134
25,-5,4.135
32,-5,4.136
37,-5,4.137
44,-1,4.138
52,1,4.139
55,2,4.14
44,2,4.141
24,1,4.142
7,0,4.143
-8,0,4.144
-23,-2,4.145
-35,-4,4.146
-41,-5,4.147
-41,-4,4.148
-36,1,4.149
-31,5,4.15
-22,5,4.151
-9,3,4.152
4,2,4.153
15,0,4.154
22,-1,4.155
27,2,4.156
33,3,4.157
41,4,4.158
48,3,4.159
48,2,4.16
34,4,4.161
16,4,4.162
-1,0,4.163
-14,-4,4.164
-26,-6,4.165
-38,-7,4.166
-45,-9,4.167
-46,-12,4.168
-46,-10,4.169
-41,-6,4.17
-28,-2,4.171
-10,0,4.172
4,0,4.173
15,0,4.174
24,1,4.175
32,1,4.176
36,-1,4.177
38,-1,4.178
45,0,4.179
50,3,4.18
43,7,4.181
22,6,4.182
3,3,4.183
-9,-1,4.184
-20,-4,4.185
-31,-8,4.186
-40,-9,4.187
-42,-8,4.188
-44,-5,4.189
-42,-4,4.19
-27,-5,4.191
-4,-2,4.192
13,1,4.193
20,-1,4.194
23,-3,4.195
32,0,4.196
40,6,4.197
45,10,4.198
50,8,4.199
51,4,4.2
43,3,4.201
22,2,4.202
1,-1,4.203
-11,-6,4.204
-20,-8,4.205
-31,-7,4.206
-40,-7,4.207
-41,-8,4.208
-37,-9,4.209
-35,-6,4.21
-29,-3,4.211
-14,-2,4.212
3,-3,4.213
14,-1,4.214
21,1,4.215
28,3,4.216
38,-1,4.217
49,-3,4.218
54,-1,4.219
53,2,4.22
42,4,4.221
21,4,4.222
0,0,4.223
-12,-7,4.224
-21,-8,4.225
-33,-2,4.226
-46,0,4.227
-52,-3,4.228
-45,-6,4.229
-32,-6,4.23
-20,-5,4.231
-9,-6,4.232
4,-5,4.233
17,0,4.234
30,7,4.235
36,9,4.236
39,4,4.237
42,4,4.238
47,7,4.239
49,9,4.24
38,9,4.241
18,7,4.242
-1,2,4.243
-17,-4,4.244
-28,-7,4.245
-37,-7,4.246
-42,-8,4.247
-43,-11,4.248
-42,-10,4.249
-36,-5,4.25
-22,0,4.251
-5,2,4.252
9,1,4.253
19,0,4.254
29,1,4.255
36,1,4.256
39,-1,4.257
40,-4,4.258
46,-5,4.259
48,0,4.26
36,7,4.261
15,9,4.262
-4,0,4.263
-14,-8,4.264
-24,-5,4.265
-38,0,4.266
-49,1,4.267
-53,-3,4.268
-50,-6,4.269
-41,-4,4.27
-26,-2,4.271
-11,-1,4.272
2,2,4.273
9,2,4.274
18,2,4.275
28,1,4.276
37,1,4.277
46,2,4.278
50,4,4.279
50,6,4.28
37,4,4.281
23,2,4.282
5,0,4.283
-11,-2,4.284
-23,-6,4.285
-33,-9,4.286
-41,-8,4.287
-46,-7,4.288
-41,-8,4.289
-33,-7,4.29
-19,-1,4.291
-6,4,4.292
3,5,4.293
13,5,4.294
23,-1,4.295
32,1,4.296
39,5,4.297
43,6,4.298
46,7,4.299
46,8,4.3
40,10,4.301
24,6,4.302
5,0,4.303
-13,-7,4.304
-23,-12,4.305
-29,-14,4.306
-34,-13,4.307
-38,-11,4.308
-41,-9,4.309
-36,-4,4.31
-23,-1,4.311
-5,-1,4.312
10,0,4.313
20,1,4.314
26,2,4.315
30,2,4.316
36,-3,4.317
45,-5,4.318
54,-5,4.319
54,-5,4.32
39,-4,4.321
15,-3,4.322
-3,-3,4.323
-14,-6,4.324
-24,-10,4.325
-35,-10,4.326
-41,-6,4.327
-38,-5,4.328
-34,-7,4.329
-33,-7,4.33
-26,-6,4.331
-12,-1,4.332
4,2,4.333
16,1,4.334
25,1,4.335
31,2,4.336
35,0,4.337
39,0,4.338
45,1,4.339
49,3,4.34
38,4,4.341
13,4,4.342
-9,2,4.343
-19,-2,4.344
-27,-6,4.345
-38,-9,4.346
-47,-9,4.347
-48,-9,4.348
-43,-9,4.349
-37,-8,4.35
-25,-3,4.351
-7,3,4.352
11,7,4.353
17,6,4.354
20,5,4.355
28,8,4.356
40,9,4.357
51,7,4.358
57,5,4.359
54,4,4.36
40,4,4.361
18,0,4.362
-4,-5,4.363
-15,-10,4.364
-22,-10,4.365
-31,-10,4.366
-40,-10,4.367
-45,-9,4.368
-41,-5,4.369
-34,-3,4.37
-23,-2,4.371
-7,0,4.372
11,3,4.373
22,5,4.374
29,6,4.375
33,5,4.376
40,0,4.377
44,-3,4.378
49,-2,4.379
48,1,4.38
35,7,4.381
14,9,4.382
-4,5,4.383
-16,-2,4.384
-26,-6,4.385
-38,-7,4.386
-43,-4,4.387
-39,-2,4.388
-34,-1,4.389
-31,-3,4.39
-22,-2,4.391
-4,2,4.392
12,7,4.393
20,6,4.394
26,2,4.395
35,-2,4.396
43,-4,4.397
46,-3,4.398
45,2,4.399
41,4,4.4
31,5,4.401
14,3,4.402
-4,2,4.403
-18,0,4.404
-33,-4,4.405
-45,-7,4.406
-51,-8,4.407
-48,-5,4.408
-44,-3,4.409
-37,-2,4.41
-24,-2,4.411
-6,0,4.412
12,1,4.413
23,-2,4.414
30,-3,4.415
34,0,4.416
36,3,4.417
40,3,4.418
50,-1,4.419
52,0,4.42
38,2,4.421
14,3,4.422
-4,-4,4.423
-11,-11,4.424
-19,-16,4.425
-32,-17,4.426
-43,-17,4.427
-48,-14,4.428
-44,-9,4.429
-36,-5,4.43
-21,-4,4.431
-6,-5,4.432
6,-3,4.433
13,0,4.434
25,2,4.435
35,5,4.436
42,3,4.437
48,2,4.438
50,1,4.439
49,0,4.44
35,1,4.441
19,2,4.442
1,-1,4.443
-14,-4,4.444
-25,-3,4.445
-35,-2,4.446
-40,-4,4.447
-43,-7,4.448
-39,-5,4.449
-32,-4,4.45
-18,-4,4.451
-5,-2,4.452
8,3,4.453
19,10,4.454
24,14,4.455
30,11,4.456
36,3,4.457
42,0,4.458
44,3,4.459
43,4,4.46
32,2,4.461
15,-1,4.462
-3,-5,4.463
-14,-7,4.464
-24,-9,4.465
-33,-9,4.466
-39,-11,4.467
-41,-13,4.468
-41,-10,4.469
-37,-4,4.47
-23,2,4.471
-4,5,4.472
11,7,4.473
18,7,4.474
26,7,4.475
34,7,4.476
40,1,4.477
41,-2,4.478
43,-3,4.479
43,-2,4.48
35,-3,4.481
18,-1,4.482
0,0,4.483
-11,0,4.484
-22,-3,4.485
-36,-5,4.486
-43,-6,4.487
-42,-7,4.488
-35,-7,4.489
-29,-5,4.49
-19,-3,4.491
-6,0,4.492
5,5,4.493
12,5,4.494
21,3,4.495
31,0,4.496
39,-2,4.497
44,2,4.498
50,7,4.499
50,7,4.5
36,5,4.501
10,6,4.502
-10,8,4.503
-17,5,4.504
-23,-2,4.505
-37,-8,4.506
-47,-10,4.507
-45,-12,4.508
-37,-11,4.509
-29,-8,4.51
-20,-2,4.511
-5,1,4.512
11,5,4.513
22,7,4.514
30,8,4.515
37,5,4.516
44,0,4.517
49,1,4.518
51,1,4.519
44,0,4.52
28,0,4.521
8,2,4.522
-5,0,4.523
-14,-6,4.524
-23,-9,4.525
-34,-6,4.526
-43,-4,4.527
-43,-6,4.528
-37,-9,4.529
-29,-8,4.53
-19,-4,4.531
-6,-4,4.532
7,-4,4.533
18,-1,4.534
27,2,4.535
33,1,4.536
38,-3,4.537
42,0,4.538
46,4,4.539
45,2,4.54
30,-1,4.541
7,2,4.542
-8,4,4.543
-15,0,4.544
-23,-6,4.545
-35,-5,4.546
-44,-2,4.547
-45,-5,4.548
-41,-9,4.549
-30,-3,4.55
-14,6,4.551
2,8,4.552
14,6,4.553
19,6,4.554
25,8,4.555
32,4,4.556
38,-4,4.557
43,-4,4.558
47,1,4.559
42,3,4.56
24,1,4.561
4,0,4.562
-9,-1,4.563
-18,-4,4.564
-26,-5,4.565
-34,-3,4.566
-37,-3,4.567
-37,-5,4.568
-38,-5,4.569
-31,-2,4.57
-15,-1,4.571
0,-3,4.572
11,0,4.573
17,3,4.574
28,5,4.575
39,2,4.576
39,-1,4.577
36,0,4.578
39,-2,4.579
40,-2,4.58
31,3,4.581
11,6,4.582
-6,1,4.583
-18,-8,4.584
-27,-9,4.585
-38,-4,4.586
-44,-3,4.587
-44,-7,4.588
-40,-9,4.589
-33,-4,4.59
-19,0,4.591
-2,4,4.592
13,8,4.593
20,7,4.594
27,1,4.595
32,-2,4.596
39,0,4.597
48,5,4.598
58,5,4.599
57,2,4.6
38,3,4.601
13,4,4.602
-6,-3,4.603
-17,-12,4.604
-27,-12,4.605
-37,-8,4.606
-40,-8,4.607
-38,-9,4.608
-34,-4,4.609
-32,-1,4.61
-22,-2,4.611
-6,-7,4.612
9,-3,4.613
16,1,4.614
24,3,4.615
35,2,4.616
46,2,4.617
47,6,4.618
45,7,4.619
40,5,4.62
30,2,4.621
10,0,4.622
-9,-3,4.623
-18,-4,4.624
-25,-3,4.625
-40,-2,4.626
-50,-5,4.627
-46,-6,4.628
-34,-4,4.629
-24,-2,4.63
-18,-2,4.631
-6,0,4.632
7,4,4.633
17,2,4.634
24,-4,4.635
29,-7,4.636
35,-6,4.637
41,-3,4.638
45,-1,4.639
45,-1,4.64
32,2,4.641
11,3,4.642
-6,-2,4.643
-17,-8,4.644
-26,-10,4.645
-38,-8,4.646
-43,-6,4.647
-42,-7,4.648
-41,-8,4.649
-36,-7,4.65
-21,-5,4.651
0,-2,4.652
15,0,4.653
21,2,4.654
25,5,4.655
32,8,4.656
39,5,4.657
43,0,4.658
46,1,4.659
47,7,4.66
35,10,4.661
14,4,4.662
-6,-6,4.663
-20,-13,4.664
-30,-11,4.665
-40,-7,4.666
-43,-6,4.667
-37,-7,4.668
-28,-9,4.669
-20,-6,4.67
-9,0,4.671
0,0,4.672
11,0,4.673
22,3,4.674
35,8,4.675
40,11,4.676
42,9,4.677
43,10,4.678
46,9,4.679
42,3,4.68
27,-2,4.681
7,-1,4.682
-9,2,4.683
-20,-2,4.684
-27,-10,4.685
-34,-10,4.686
-40,-5,4.687
-42,-2,4.688
-37,-2,4.689
-27,-2,4.69
-16,2,4.691
-5,3,4.692
9,4,4.693
20,3,4.694
28,5,4.695
29,6,4.696
31,4,4.697
39,5,4.698
44,6,4.699
40,4,4.7
26,0,4.701
8,-1,4.702
-7,-2,4.703
-19,-5,4.704
-26,-10,4.705
-34,-13,4.706
-42,-14,4.707
-45,-11,4.708
-40,-3,4.709
-28,3,4.71
-18,5,4.711
-8,2,4.712
9,3,4.713
24,3,4.714
35,2,4.715
36,3,4.716
37,5,4.717
41,8,4.718
44,4,4.719
41,-4,4.72
27,-7,4.721
7,-3,4.722
-11,-2,4.723
-21,-6,4.724
-29,-6,4.725
-38,-6,4.726
-46,-7,4.727
-45,-9,4.728
-35,-6,4.729
-22,0,4.73
-11,1,4.731
0,-1,4.732
11,1,4.733
20,3,4.734
29,3,4.735
38,-1,4.736
42,-4,4.737
42,1,4.738
43,8,4.739
43,8,4.74
34,1,4.741
13,-4,4.742
-10,-9,4.743
-23,-11,4.744
-26,-8,4.745
-33,-6,4.746
-42,-7,4.747
-42,-10,4.748
-32,-10,4.749
-22,-6,4.75
-12,-2,4.751
0,2,4.752
15,6,4.753
24,9,4.754
29,9,4.755
34,9,4.756
35,8,4.757
37,6,4.758
40,3,4.759
40,1,4.76
28,3,4.761
14,4,4.762
-4,-1,4.763
-20,-5,4.764
-27,-5,4.765
-34,-5,4.766
-39,-5,4.767
-41,-6,4.768
-33,-6,4.769
-24,-5,4.77
-14,-4,4.771
-3,-2,4.772
10,1,4.773
21,4,4.774
24,2,4.775
32,-1,4.776
39,-3,4.777
41,0,4.778
39,1,4.779
38,0,4.78
30,0,4.781
12,0,4.782
-7,-3,4.783
-18,-10,4.784
-26,-10,4.785
-37,-5,4.786
-45,-1,4.787
-44,-1,4.788
-37,-2,4.789
-29,1,4.79
-19,2,4.791
-4,3,4.792
11,5,4.793
20,5,4.794
26,3,4.795
32,-3,4.796
36,-8,4.797
39,-6,4.798
43,3,4.799
44,7,4.8
36,4,4.801
15,-4,4.802
-5,-8,4.803
-18,-8,4.804
-25,-6,4.805
-34,-5,4.806
-42,-5,4.807
-43,-5,4.808
-37,-6,4.809
-24,-7,4.81
-11,-6,4.811
1,-3,4.812
12,1,4.813
21,3,4.814
30,1,4.815
37,0,4.816
40,-1,4.817
40,2,4.818
39,6,4.819
34,9,4.82
21,10,4.821
5,8,4.822
-5,2,4.823
-15,-5,4.824
-28,-8,4.825
-43,-6,4.826
-48,-6,4.827
-41,-9,4.828
-32,-10,4.829
-25,-6,4.83
-13,1,4.831
5,3,4.832
19,1,4.833
24,0,4.834
31,0,4.835
38,0,4.836
43,-4,4.837
46,-4,4.838
44,0,4.839
39,3,4.84
25,0,4.841
11,-2,4.842
-6,0,4.843
-21,4,4.844
-32,2,4.845
-41,-3,4.846
-44,-6,4.847
-45,-5,4.848
-37,-2,4.849
-27,-1,4.85
-13,-1,4.851
0,2,4.852
11,7,4.853
23,9,4.854
31,9,4.855
40,9,4.856
45,10,4.857
45,7,4.858
45,2,4.859
42,-2,4.86
28,-2,4.861
6,0,4.862
-12,-4,4.863
-22,-11,4.864
-32,-12,4.865
-43,-8,4.866
-49,-7,4.867
-45,-11,4.868
-34,-10,4.869
-21,-5,4.87
-8,0,4.871
4,4,4.872
15,8,4.873
24,8,4.874
35,5,4.875
41,1,4.876
42,-2,4.877
41,-1,4.878
44,1,4.879
41,3,4.88
26,3,4.881
3,2,4.882
-13,-1,4.883
-23,-5,4.884
-35,-6,4.885
-45,-5,4.886
-48,-5,4.887
-42,-5,4.888
-37,-8,4.889
-30,-6,4.89
-17,-4,4.891
0,0,4.892
14,5,4.893
21,7,4.894
27,6,4.895
33,1,4.896
39,-4,4.897
46,-2,4.898
48,3,4.899
43,6,4.9
28,4,4.901
9,2,4.902
-7,0,4.903
-21,-1,4.904
-35,-6,4.905
-44,-9,4.906
-42,-9,4.907
-38,-7,4.908
-35,-5,4.909
-27,-2,4.91
-9,0,4.911
11,-3,4.912
21,-5,4.913
24,-4,4.914
32,2,4.915
38,7,4.916
42,2,4.917
44,-2,4.918
42,0,4.919
36,1,4.92
18,0,4.921
2,-1,4.922
-11,-1,4.923
-22,-2,4.924
-27,-4,4.925
-32,-6,4.926
-38,-4,4.927
-42,-4,4.928
-34,-9,4.929
-24,-11,4.93
-11,-4,4.931
1,2,4.932
11,2,4.933
22,0,4.934
31,1,4.935
39,6,4.936
44,5,4.937
42,0,4.938
42,-2,4.939
40,1,4.94
29,3,4.941
8,2,4.942
-12,-3,4.943
-24,-6,4.944
-33,-6,4.945
-43,-3,4.946
-49,-3,4.947
-43,-8,4.948
-33,-10,4.949
-23,-5,4.95
-12,2,4.951
3,2,4.952
17,-2,4.953
25,-5,4.954
32,-1,4.955
38,1,4.956
41,-2,4.957
41,0,4.958
39,4,4.959
36,6,4.96
22,4,4.961
0,0,4.962
-19,1,4.963
-25,-1,4.964
-30,-5,4.965
-40,-9,4.966
-47,-10,4.967
-43,-9,4.968
-32,-8,4.969
-18,-2,4.97
-6,1,4.971
9,2,4.972
19,2,4.973
26,3,4.974
33,7,4.975
38,6,4.976
39,-1,4.977
38,-1,4.978
40,0,4.979
40,1,4.98
28,-2,4.981
6,-4,4.982
-12,-2,4.983
-21,-1,4.984
-28,-3,4.985
-38,-4,4.986
-42,-4,4.987
-41,-6,4.988
-36,-7,4.989
-27,-5,4.99
-14,0,4.991
1,3,4.992
15,6,4.993
23,6,4.994
34,6,4.995
43,6,4.996
45,6,4.997
48,5,4.998
46,8,4.999
41,10,5.0
23,8,5.001
6,6,5.002
-7,3,5.003
-20,-1,5.004
-30,-6,5.005
-38,-10,5.006
-41,-10,5.007
-42,-8,5.008
-33,-5,5.009
-24,-2,5.01
-15,-2,5.011
-5,-1,5.012
8,0,5.013
23,5,5.014
35,8,5.015
42,6,5.016
45,0,5.017
45,-2,5.018
44,-2,5.019
38,-3,5.02
21,-3,5.021
-2,-2,5.022
-18,-5,5.023
-22,-12,5.024
-29,-17,5.025
-39,-17,5.026
-45,-13,5.027
-40,-9,5.028
-31,-4,5.029
-21,2,5.03
-12,3,5.031
0,2,5.032
11,4,5.033
21,6,5.034
31,6,5.035
36,3,5.036
36,-1,5.037
35,0,5.038
40,4,5.039
42,4,5.04
31,0,5.041
8,-2,5.042
-13,-4,5.043
-27,-8,5.044
-34,-8,5.045
-38,-5,5.046
-41,-3,5.047
-39,-4,5.048
-36,-5,5.049
-27,-2,5.05
-15,2,5.051
-1,4,5.052
9,4,5.053
18,2,5.054
32,0,5.055
44,-1,5.056
49,-1,5.057
45,6,5.058
41,8,5.059
34,3,5.06
22,-1,5.061
2,0,5.062
-14,0,5.063
-26,-6,5.064
-35,-12,5.065
-40,-13,5.066
-40,-11,5.067
-37,-10,5.068
-33,-7,5.069
-26,-3,5.07
-8,-1,5.071
11,-1,5.072
24,3,5.073
29,5,5.074
36,4,5.075
43,-2,5.076
46,-8,5.077
45,-4,5.078
44,1,5.079
41,6,5.08
23,4,5.081
-2,0,5.082
-19,-3,5.083
-26,-2,5.084
-32,0,5.085
-42,-2,5.086
-47,-5,5.087
-45,-5,5.088
-38,-2,5.089
-28,1,5.09
-13,3,5.091
6,4,5.092
21,7,5.093
31,7,5.094
37,8,5.095
39,9,5.096
41,3,5.097
42,-1,5.098
43,-1,5.099
39,2,5.1
26,3,5.101
6,-2,5.102
-12,-8,5.103
-22,-8,5.104
-30,-5,5.105
-39,-7,5.106
-44,-10,5.107
-43,-9,5.108
-35,-4,5.109
-22,1,5.11
-7,2,5.111
7,3,5.112
18,3,5.113
26,2,5.114
38,4,5.115
43,8,5.116
41,7,5.117
36,4,5.118
36,2,5.119
35,4,5.12
20,5,5.121
-5,3,5.122
-24,-2,5.123
-28,-7,5.124
-31,-10,5.125
-39,-10,5.126
-46,-7,5.127
-46,-4,5.128
-36,-4,5.129
-21,-6,5.13
-7,-7,5.131
8,-4,5.132
22,0,5.133
32,0,5.134
38,2,5.135
40,3,5.136
40,-1,5.137
41,-2,5.138
41,-1,5.139
36,0,5.14
19,2,5.141
-3,1,5.142
-18,-1,5.143
-24,-5,5.144
-30,-7,5.145
-38,-9,5.146
-42,-13,5.147
-40,-14,5.148
-30,-11,5.149
-16,-4,5.15
0,3,5.151
12,4,5.152
20,3,5.153
28,2,5.154
38,2,5.155
43,2,5.156
42,-1,5.157
41,-3,5.158
42,-2,5.159
36,-3,5.16
17,-6,5.161
-8,-6,5.162
-23,-6,5.163
-28,-5,5.164
-33,-7,5.165
-39,-6,5.166
-42,-5,5.167
-41,-5,5.168
-35,-2,5.169
-25,3,5.17
-10,9,5.171
3,9,5.172
14,7,5.173
24,3,5.174
33,4,5.175
38,4,5.176
37,2,5.177
35,0,5.178
33,-3,5.179
27,-5,5.18
14,-2,5.181
-5,0,5.182
-21,-2,5.183
-31,-4,5.184
-38,-5,5.185
-45,-6,5.186
-49,-3,5.187
-43,-1,5.188
-30,-1,5.189
-13,-2,5.19
0,-2,5.191
9,-1,5.192
21,-1,5.193
33,0,5.194
43,4,5.195
45,5,5.196
45,-1,5.197
44,-3,5.198
42,-1,5.199
32,-2,5.2
16,-4,5.201
-3,-5,5.202
-15,-4,5.203
-22,-7,5.204
-29,-11,5.205
-36,-9,5.206
-42,-3,5.207
-40,2,5.208
-31,2,5.209
-18,2,5.21
-1,7,5.211
12,13,5.212
22,15,5.213
31,10,5.214
40,4,5.215
45,2,5.216
44,-1,5.217
44,-2,5.218
46,-1,5.219
40,0,5.22
21,-1,5.221
-5,-5,5.222
-23,-8,5.223
-30,-10,5.224
-35,-10,5.225
-40,-8,5.226
-43,-6,5.227
-40,-4,5.228
-32,-2,5.229
-23,0,5.23
-11,2,5.231
5,2,5.232
19,5,5.233
31,6,5.234
42,8,5.235
47,8,5.236
45,4,5.237
39,2,5.238
34,1,5.239
32,1,5.24
22,4,5.241
7,7,5.242
-9,5,5.243
-21,-3,5.244
-34,-9,5.245
-46,-8,5.246
-47,-6,5.247
-39,-7,5.248
-28,-8,5.249
-20,-6,5.25
-8,1,5.251
9,6,5.252
22,5,5.253
28,0,5.254
35,-1,5.255
42,-1,5.256
41,3,5.257
36,5,5.258
32,3,5.259
29,2,5.26
15,2,5.261
-8,2,5.262
-24,0,5.263
-27,-3,5.264
-32,-4,5.265
-41,-5,5.266
-47,-5,5.267
-41,-6,5.268
-29,-6,5.269
-20,-6,5.27
-8,-3,5.271
8,0,5.272
22,1,5.273
30,2,5.274
35,-2,5.275
38,-5,5.276
41,-6,5.277
45,-3,5.278
47,1,5.279
42,4,5.28
24,7,5.281
-1,4,5.282
-20,-3,5.283
-29,-8,5.284
-37,-5,5.285
-47,-3,5.286
-50,-8,5.287
-44,-12,5.288
-33,-8,5.289
-23,0,5.29
-8,3,5.291
7,1,5.292
22,3,5.293
32,3,5.294
39,3,5.295
44,4,5.296
47,3,5.297
48,1,5.298
43,-2,5.299
34,-1,5.3
17,6,5.301
-4,8,5.302
-20,1,5.303
-29,-7,5.304
-36,-10,5.305
-41,-9,5.306
-44,-10,5.307
-41,-12,5.308
-31,-11,5.309
-16,-8,5.31
-3,-5,5.311
9,-1,5.312
17,2,5.313
26,8,5.314
34,6,5.315
40,3,5.316
42,-2,5.317
42,-5,5.318
39,-2,5.319
31,-1,5.32
15,0,5.321
-3,0,5.322
-17,-1,5.323
-25,-2,5.324
-33,3,5.325
-41,5,5.326
-42,-2,5.327
-36,-11,5.328
-25,-10,5.329
-16,-8,5.33
-5,-5,5.331
9,-2,5.332
24,0,5.333
33,6,5.334
41,5,5.335
46,2,5.336
44,-2,5.337
38,-4,5.338
33,-2,5.339
31,-1,5.34
20,0,5.341
-2,0,5.342
-22,-1,5.343
-29,-2,5.344
-34,2,5.345
-46,4,5.346
-53,-2,5.347
-46,-10,5.348
-30,-8,5.349
-18,-7,5.35
-8,-4,5.351
7,-2,5.352
22,0,5.353
32,5,5.354
38,4,5.355
42,2,5.356
44,-2,5.357
42,-4,5.358
38,-2,5.359
30,-1,5.36
12,0,5.361
-9,0,5.362
-21,-1,5.363
-26,-2,5.364
-35,2,5.365
-48,3,5.366
-49,-2,5.367
-40,-8,5.368
-29,-7,5.369
-19,-6,5.37
-2,-4,5.371
16,-2,5.372
28,0,5.373
35,4,5.374
43,9,5.375
48,11,5.376
47,7,5.377
41,3,5.378
36,0,5.379
29,-1,5.38
16,2,5.381
-1,6,5.382
-18,2,5.383
-29,-6,5.384
-41,-9,5.385
-46,-7,5.386
-43,-6,5.387
-34,-10,5.388
-26,-9,5.389
-15,-4,5.39
1,0,5.391
16,-1,5.392
25,-2,5.393
31,0,5.394
39,4,5.395
45,7,5.396
42,6,5.397
37,5,5.398
36,1,5.399
31,-3,5.4
15,-4,5.401
-6,-2,5.402
-21,-2,5.403
-29,-4,5.404
-38,-4,5.405
-45,-5,5.406
-45,-8,5.407
-40,-10,5.408
-31,-6,5.409
-17,5,5.41
0,11,5.411
12,11,5.412
19,10,5.413
25,0,5.414
38,9,5.415
44,12,5.416
44,3,5.417
38,-2,5.418
36,-3,5.419
30,-3,5.42
12,0,5.421
-9,2,5.422
-21,-1,5.423
-26,-5,5.424
-34,-3,5.425
-43,-2,5.426
-45,-3,5.427
-39,-4,5.428
-30,0,5.429
-18,1,5.43
0,1,5.431
18,1,5.432
28,5,5.433
33,1,5.434
40,10,5.435
47,14,5.436
48,4,5.437
42,-3,5.438
38,-4,5.439
33,-4,5.44
18,0,5.441
-6,3,5.442
-21,-2,5.443
-27,-6,5.444
-32,-4,5.445
-42,-3,5.446
-47,-4,5.447
-41,-5,5.448
-28,-1,5.449
-16,2,5.45
-4,2,5.451
10,2,5.452
20,6,5.453
28,10,5.454
35,9,5.455
41,4,5.456
42,-2,5.457
42,-2,5.458
38,0,5.459
30,-1,5.46
15,-1,5.461
-5,0,5.462
-20,-4,5.463
-28,-9,5.464
-37,-12,5.465
-45,-8,5.466
-45,-4,5.467
-37,-5,5.468
-27,-5,5.469
-17,-2,5.47
-4,2,5.471
10,2,5.472
24,1,5.473
32,2,5.474
40,7,5.475
44,10,5.476
47,4,5.477
46,-1,5.478
40,-5,5.479
29,-4,5.48
12,-2,5.481
-7,-1,5.482
-22,-5,5.483
-32,-8,5.484
-40,-9,5.485
-45,-8,5.486
-43,-6,5.487
-36,-4,5.488
-27,-4,5.489
-17,-3,5.49
-3,-3,5.491
11,-2,5.492
20,0,5.493
28,7,5.494
34,7,5.495
40,7,5.496
42,3,5.497
44,0,5.498
42,-4,5.499
29,-6,5.5
9,-1,5.501
-12,2,5.502
-25,-3,5.503
-32,-7,5.504
-37,-7,5.505
-42,-7,5.506
-45,-5,5.507
-41,-2,5.508
-31,4,5.509
-17,9,5.51
-1,6,5.511
13,4,5.512
26,4,5.513
36,7,5.514
41,7,5.515
45,7,5.516
47,3,5.517
45,0,5.518
41,-4,5.519
30,-6,5.52
12,-1,5.521
-9,2,5.522
-25,-3,5.523
-31,-7,5.524
-33,-7,5.525
-39,-7,5.526
-44,-5,5.527
-41,-2,5.528
-29,4,5.529
-15,9,5.53
-1,6,5.531
13,4,5.532
22,4,5.533
29,6,5.534
38,10,5.535
46,6,5.536
49,-2,5.537
45,-5,5.538
37,-4,5.539
28,-3,5.54
11,-4,5.541
-9,-2,5.542
-24,0,5.543
-31,2,5.544
-33,1,5.545
-38,-1,5.546
-43,-5,5.547
-40,-10,5.548
-28,-8,5.549
-12,-2,5.55
4,3,5.551
17,3,5.552
27,4,5.553
35,5,5.554
44,6,5.555
47,1,5.556
44,-6,5.557
38,-4,5.558
34,1,5.559
29,3,5.56
17,2,5.561
-2,0,5.562
-23,-4,5.563
-36,-11,5.564
-41,-14,5.565
-42,-9,5.566
-40,-3,5.567
-35,-3,5.568
-27,-4,5.569
-14,-1,5.57
0,3,5.571
13,3,5.572
21,1,5.573
29,-2,5.574
37,0,5.575
42,2,5.576
42,1,5.577
42,0,5.578
38,0,5.579
26,1,5.58
9,0,5.581
-9,-2,5.582
-22,-4,5.583
-31,-7,5.584
-37,-7,5.585
-43,-7,5.586
-45,-6,5.587
-42,-4,5.588
-30,0,5.589
-15,3,5.59
-2,2,5.591
7,1,5.592
18,2,5.593
31,-2,5.594
43,0,5.595
47,2,5.596
45,1,5.597
41,0,5.598
36,0,5.599
26,1,5.6
10,0,5.601
-7,-2,5.602
-21,-4,5.603
-32,-7,5.604
-40,-7,5.605
-44,-7,5.606
-44,-6,5.607
-38,-4,5.608
-26,0,5.609
-10,3,5.61
3,2,5.611
12,1,5.612
21,2,5.613
32,5,5.614
43,4,5.615
44,1,5.616
41,-3,5.617
41,-1,5.618
40,0,5.619
31,-1,5.62
11,0,5.621
-7,1,5.622
-20,0,5.623
-31,-4,5.624
-42,-8,5.625
-46,-8,5.626
-43,-6,5.627
-38,-5,5.628
-28,-4,5.629
-12,-3,5.63
7,-1,5.631
17,-1,5.632
22,1,5.633
31,2,5.634
45,3,5.635
49,3,5.636
44,3,5.637
37,5,5.638
31,4,5.639
23,1,5.64
7,-1,5.641
-11,-1,5.642
-23,-4,5.643
-30,-9,5.644
-37,-9,5.645
-45,-6,5.646
-47,-5,5.647
-37,-9,5.648
-23,-8,5.649
-11,0,5.65
2,5,5.651
17,4,5.652
31,3,5.653
38,4,5.654
43,9,5.655
47,9,5.656
46,3,5.657
38,0,5.658
30,0,5.659
23,0,5.66
11,3,5.661
-4,5,5.662
-19,1,5.663
-32,-4,5.664
-41,-7,5.665
-46,-6,5.666
-44,-6,5.667
-35,-9,5.668
-23,-8,5.669
-11,1,5.67
-2,9,5.671
7,6,5.672
21,3,5.673
33,6,5.674
44,11,5.675
44,8,5.676
39,-4,5.677
36,-7,5.678
37,-2,5.679
34,0,5.68
18,-4,5.681
-6,-9,5.682
-22,-7,5.683
-28,-9,5.684
-33,-13,5.685
-43,-13,5.686
-48,-8,5.687
-42,-4,5.688
-28,-2,5.689
-12,-3,5.69
3,-1,5.691
20,2,5.692
32,8,5.693
39,9,5.694
43,6,5.695
45,1,5.696
41,-3,5.697
37,-2,5.698
34,0,5.699
25,-1,5.7
6,0,5.701
-16,0,5.702
-27,0,5.703
-30,-4,5.704
-37,-8,5.705
-44,-10,5.706
-44,-10,5.707
-34,-11,5.708
-21,-9,5.709
-10,-4,5.71
1,0,5.711
16,0,5.712
27,2,5.713
34,6,5.714
42,9,5.715
47,8,5.716
45,3,5.717
38,2,5.718
29,1,5.719
19,-2,5.72
3,-5,5.721
-15,-5,5.722
-26,-2,5.723
-33,-2,5.724
-36,-4,5.725
-40,-7,5.726
-41,-7,5.727
-36,-3,5.728
-27,2,5.729
-14,3,5.73
1,1,5.731
16,1,5.732
28,5,5.733
36,5,5.734
42,4,5.735
42,3,5.736
40,4,5.737
37,4,5.738
33,1,5.739
24,0,5.74
8,1,5.741
-11,2,5.742
-23,-3,5.743
-31,-7,5.744
-39,-5,5.745
-45,-4,5.746
-43,-3,5.747
-36,-1,5.748
-27,2,5.749
-16,5,5.75
0,5,5.751
18,6,5.752
32,8,5.753
40,11,5.754
44,6,5.755
46,2,5.756
42,0,5.757
35,0,5.758
32,0,5.759
27,0,5.76
13,0,5.761
-12,-2,5.762
-30,-7,5.763
-37,-13,5.764
-39,-14,5.765
-43,-12,5.766
-43,-10,5.767
-37,-9,5.768
-24,-8,5.769
-9,-5,5.77
4,0,5.771
18,3,5.772
31,4,5.773
41,1,5.774
46,0,5.775
45,1,5.776
41,-2,5.777
37,-3,5.778
32,-1,5.779
22,-2,5.78
3,-6,5.781
-18,-7,5.782
-32,-4,5.783
-35,-2,5.784
-37,-5,5.785
-43,-9,5.786
-44,-6,5.787
-35,-3,5.788
-19,-2,5.789
-5,-3,5.79
5,-1,5.791
15,6,5.792
24,9,5.793
33,5,5.794
42,3,5.795
46,5,5.796
42,3,5.797
33,1,5.798
27,-3,5.799
22,-5,5.8
9,-7,5.801
-9,-8,5.802
-23,-7,5.803
-31,-6,5.804
-38,-7,5.805
-46,-7,5.806
-47,-4,5.807
-35,0,5.808
-18,2,5.809
-1,3,5.81
12,4,5.811
20,4,5.812
28,3,5.813
35,2,5.814
43,5,5.815
46,7,5.816
44,1,5.817
40,-1,5.818
33,0,5.819
24,1,5.82
9,-2,5.821
-8,-5,5.822
-22,-6,5.823
-35,-6,5.824
-47,-9,5.825
-53,-10,5.826
-48,-6,5.827
-34,-1,5.828
-20,0,5.829
-9,0,5.83
1,1,5.831
13,4,5.832
27,6,5.833
37,4,5.834
44,3,5.835
47,2,5.836
44,-1,5.837
39,-2,5.838
35,-3,5.839
29,-3,5.84
12,-2,5.841
-10,1,5.842
-25,0,5.843
-33,-5,5.844
-39,-10,5.845
-46,-9,5.846
-44,-8,5.847
-31,-9,5.848
-14,-7,5.849
-2,1,5.85
11,10,5.851
21,10,5.852
28,8,5.853
34,10,5.854
40,13,5.855
40,8,5.856
34,-1,5.857
25,-2,5.858
21,2,5.859
19,2,5.86
9,-2,5.861
-11,-1,5.862
-26,1,5.863
-33,-2,5.864
-37,-8,5.865
-44,-13,5.866
-47,-13,5.867
-38,-10,5.868
-21,-5,5.869
-6,-1,5.87
7,-3,5.871
18,-5,5.872
25,-1,5.873
33,4,5.874
41,2,5.875
44,-4,5.876
40,-7,5.877
33,-2,5.878
28,2,5.879
20,1,5.88
4,-1,5.881
-14,0,5.882
-27,0,5.883
-33,-5,5.884
-41,-11,5.885
-49,-14,5.886
-48,-11,5.887
-37,-6,5.888
-24,-1,5.889
-11,3,5.89
2,5,5.891
17,4,5.892
28,5,5.893
37,4,5.894
45,4,5.895
48,5,5.896
41,2,5.897
32,0,5.898
28,-2,5.899
22,-2,5.9
8,-1,5.901
-12,0,5.902
-27,-2,5.903
-34,-7,5.904
-37,-8,5.905
-42,-7,5.906
-43,-6,5.907
-36,-7,5.908
-21,-6,5.909
-4,-1,5.91
11,5,5.911
20,8,5.912
29,10,5.913
38,7,5.914
47,4,5.915
48,1,5.916
41,-2,5.917
33,0,5.918
25,0,5.919
15,-2,5.92
0,0,5.921
-16,3,5.922
-26,3,5.923
-33,0,5.924
-40,-4,5.925
-43,-4,5.926
-40,-5,5.927
-31,-5,5.928
-18,-3,5.929
-6,0,5.93
3,0,5.931
13,-1,5.932
23,2,5.933
35,5,5.934
43,3,5.935
44,-3,5.936
38,-5,5.937
36,-1,5.938
36,-1,5.939
27,-5,5.94
6,-7,5.941
-17,-4,5.942
-29,-6,5.943
-33,-9,5.944
-36,-9,5.945
-42,-6,5.946
-40,-5,5.947
-30,-5,5.948
-16,0,5.949
-1,8,5.95
11,9,5.951
20,5,5.952
28,2,5.953
36,2,5.954
43,8,5.955
44,11,5.956
37,8,5.957
31,1,5.958
28,-5,5.959
23,-7,5.96
6,-4,5.961
-16,-1,5.962
-32,-3,5.963
-41,-8,5.964
-45,-8,5.965
-49,-7,5.966
-48,-8,5.967
-37,-9,5.968
-23,-5,5.969
-10,0,5.97
4,1,5.971
20,1,5.972
34,4,5.973
45,5,5.974
51,7,5.975
54,6,5.976
50,2,5.977
39,1,5.978
28,-1,5.979
19,-4,5.98
8,-6,5.981
-12,-6,5.982
-30,-4,5.983
-39,-5,5.984
-40,-7,5.985
-39,-8,5.986
-42,-6,5.987
-36,-3,5.988
-18,0,5.989
2,0,5.99
14,-1,5.991
20,0,5.992
29,2,5.993
40,4,5.994
45,4,5.995
41,3,5.996
36,0,5.997
32,-2,5.998
29,-5,5.999
20,-8,6.0
0,-6,6.001
-21,-2,6.002
-33,-2,6.003
-37,-6,6.004
-39,-10,6.005
-43,-7,6.006
-43,-6,6.007
-34,-5,6.008
-19,0,6.009
-6,5,6.01
6,6,6.011
18,3,6.012
29,4,6.013
37,7,6.014
43,9,6.015
47,6,6.016
45,0,6.017
38,-2,6.018
31,-1,6.019
21,1,6.02
4,2,6.021
-20,0,6.022
-36,-4,6.023
-39,-7,6.024
-40,-8,6.025
-44,-7,6.026
-44,-6,6.027
-31,-6,6.028
-17,-2,6.029
-6,3,6.03
4,4,6.031
19,3,6.032
33,7,6.033
40,9,6.034
44,11,6.035
46,9,6.036
42,4,6.037
37,1,6.038
29,-2,6.039
18,-3,6.04
4,-1,6.041
-10,-1,6.042
-24,-5,6.043
-36,-11,6.044
-38,-12,6.045
-40,-11,6.046
-37,-10,6.047
-30,-11,6.048
-11,-9,6.049
4,-1,6.05
10,3,6.051
18,3,6.052
26,4,6.053
36,3,6.054
41,3,6.055
43,2,6.056
44,1,6.057
41,3,6.058
35,2,6.059
23,-2,6.06
4,-5,6.061
-17,-4,6.062
-32,-4,6.063
-39,-8,6.064
-43,-12,6.065
-48,-8,6.066
-48,-2,6.067
-38,-2,6.068
-22,-2,6.069
-11,3,6.07
-2,10,6.071
9,9,6.072
24,4,6.073
37,2,6.074
44,7,6.075
44,9,6.076
40,2,6.077
34,-4,6.078
27,-3,6.079
16,-1,6.08
0,0,6.081
-18,0,6.082
-31,-1,6.083
-37,-6,6.084
-35,-12,6.085
-34,-11,6.086
-32,-8,6.087
-25,-8,6.088
-13,-6,6.089
0,-3,6.09
12,0,6.091
21,1,6.092
29,1,6.093
37,6,6.094
44,10,6.095
45,10,6.096
41,3,6.097
35,0,6.098
27,-2,6.099
17,-3,6.1
0,-1,6.101
-16,0,6.102
-27,-5,6.103
-34,-10,6.104
-42,-9,6.105
-47,-5,6.106
-44,-3,6.107
-29,-4,6.108
-12,-1,6.109
2,4,6.11
12,3,6.111
22,0,6.112
31,2,6.113
38,5,6.114
42,5,6.115
42,2,6.116
41,0,6.117
38,0,6.118
29,-1,6.119
16,-2,6.12
-3,-1,6.121
-21,1,6.122
-33,-3,6.123
-39,-11,6.124
-41,-15,6.125
-44,-11,6.126
-43,-8,6.127
-31,-6,6.128
-14,-3,6.129
-1,2,6.13
7,2,6.131
17,0,6.132
30,2,6.133
41,5,6.134
42,6,6.135
38,3,6.136
35,-1,6.137
33,-2,6.138
25,-1,6.139
15,-1,6.14
3,-1,6.141
-10,-3,6.142
-26,-6,6.143
-40,-7,6.144
-46,-7,6.145
-44,-8,6.146
-38,-10,6.147
-28,-11,6.148
-14,-7,6.149
0,-1,6.15
10,3,6.151
18,1,6.152
29,1,6.153
39,4,6.154
45,6,6.155
45,2,6.156
42,-3,6.157
36,-2,6.158
28,0,6.159
15,-2,6.16
0,-5,6.161
-16,-3,6.162
-31,-1,6.163
-41,-2,6.164
-44,-7,6.165
-44,-7,6.166
-40,-3,6.167
-30,-2,6.168
-15,-1,6.169
2,2,6.17
17,4,6.171
27,4,6.172
35,3,6.173
40,6,6.174
46,9,6.175
45,5,6.176
37,-4,6.177
26,-10,6.178
18,-9,6.179
10,-7,6.18
-4,-8,6.181
-22,-7,6.182
-37,-5,6.183
-44,-6,6.184
-46,-6,6.185
-47,-3,6.186
-41,0,6.187
-27,-1,6.188
-11,-3,6.189
0,-1,6.19
10,4,6.191
20,7,6.192
32,6,6.193
43,1,6.194
51,1,6.195
53,5,6.196
49,2,6.197
40,-3,6.198
31,-5,6.199
20,-1,6.2
4,2,6.201
-15,3,6.202
-30,-1,6.203
-39,-5,6.204
-43,-5,6.205
-43,-3,6.206
-41,-3,6.207
-33,-3,6.208
-20,-2,6.209
-3,1,6.21
14,5,6.211
26,10,6.212
36,14,6.213
46,11,6.214
47,7,6.215
38,3,6.216
26,0,6.217
21,-1,6.218
20,-1,6.219
11,-2,6.22
-8,-4,6.221
-27,-7,6.222
-35,-10,6.223
-34,-15,6.224
-34,-15,6.225
-37,-8,6.226
-31,-2,6.227
-17,0,6.228
-2,-2,6.229
2,-4,6.23
2,-1,6.231
11,4,6.232
28,8,6.233
42,10,6.234
47,12,6.235
44,10,6.236
42,1,6.237
39,-6,6.238
29,-10,6.239
13,-9,6.24
-6,-4,6.241
-21,-2,6.242
-29,-5,6.243
-34,-7,6.244
-41,-8,6.245
-46,-6,6.246
-46,-5,6.247
-35,-6,6.248
-18,-4,6.249
-3,1,6.25
6,5,6.251
13,4,6.252
23,1,6.253
37,-2,6.254
50,0,6.255
53,0,6.256
46,-1,6.257
35,-2,6.258
27,-2,6.259
21,0,6.26
6,2,6.261
-16,3,6.262
-34,0,6.263
-39,-6,6.264
-39,-7,6.265
-40,-5,6.266
-38,-2,6.267
-25,-4,6.268
-9,-5,6.269
0,-1,6.27
10,5,6.271
23,7,6.272
38,8,6.273
47,6,6.274
46,5,6.275
41,3,6.276
32,-2,6.277
26,-4,6.278
24,-5,6.279
19,-6,6.28
1,-5,6.281
-20,-5,6.282
-32,-5,6.283
-37,-7,6.284
-41,-7,6.285
-46,-6,6.286
-41,-4,6.287
-26,-1,6.288
-14,4,6.289
-5,8,6.29
3,10,6.291
13,9,6.292
23,8,6.293
33,6,6.294
45,2,6.295
49,0,6.296
43,-2,6.297
32,0,6.298
22,0,6.299
14,-2,6.3
-2,-4,6.301
-18,-4,6.302
-27,-3,6.303
-31,-3,6.304
-38,-3,6.305
-43,-3,6.306
-38,-6,6.307
-25,-7,6.308
-11,-3,6.309
0,1,6.31
10,0,6.311
23,-4,6.312
37,-4,6.313
46,0,6.314
53,2,6.315
52,0,6.316
46,-3,6.317
36,-1,6.318
27,2,6.319
13,1,6.32
-6,0,6.321
-25,1,6.322
-36,0,6.323
-40,-5,6.324
-41,-11,6.325
-43,-9,6.326
-37,-5,6.327
-24,-3,6.328
-10,-3,6.329
1,-1,6.33
13,3,6.331
25,6,6.332
36,7,6.333
43,4,6.334
43,3,6.335
39,2,6.336
32,0,6.337
25,1,6.338
21,2,6.339
17,0,6.34
3,-3,6.341
-18,-2,6.342
-34,-4,6.343
-36,-7,6.344
-32,-9,6.345
-34,-7,6.346
-38,-4,6.347
-33,-6,6.348
-18,-6,6.349
0,-4,6.35
16,-2,6.351
25,-1,6.352
32,1,6.353
37,4,6.354
41,6,6.355
39,4,6.356
32,0,6.357
24,-2,6.358
22,-6,6.359
15,-10,6.36
-4,-9,6.361
-26,-6,6.362
-40,-3,6.363
-43,-3,6.364
-44,0,6.365
-44,2,6.366
-39,-1,6.367
-26,-6,6.368
-12,-4,6.369
-2,6,6.37
9,9,6.371
23,5,6.372
37,3,6.373
47,7,6.374
52,11,6.375
47,6,6.376
37,-4,6.377
25,-6,6.378
16,-3,6.379
6,-2,6.38
-8,-3,6.381
-20,-5,6.382
-26,-6,6.383
-30,-7,6.384
-35,-4,6.385
-39,0,6.386
-36,2,6.387
-23,-4,6.388
-8,-6,6.389
5,0,6.39
18,9,6.391
27,9,6.392
36,5,6.393
39,3,6.394
40,7,6.395
39,10,6.396
34,2,6.397
25,-3,6.398
16,-2,6.399
6,-1,6.4
-6,-4,6.401
-22,-9,6.402
-35,-9,6.403
-43,-5,6.404
-47,-3,6.405
-48,-5,6.406
-39,-7,6.407
-21,-10,6.408
-4,-8,6.409
6,1,6.41
11,10,6.411
21,11,6.412
34,7,6.413
41,5,6.414
40,6,6.415
35,4,6.416
32,-3,6.417
29,-7,6.418
21,-5,6.419
6,-3,6.42
-7,-4,6.421
-18,-3,6.422
-25,-2,6.423
-36,-4,6.424
-47,-8,6.425
-55,-9,6.426
-55,-5,6.427
-40,-2,6.428
-14,-2,6.429
14,-2,6.43
32,0,6.431
41,2,6.432
50,4,6.433
62,4,6.434
71,4,6.435
65,5,6.436
48,1,6.437
31,-1,6.438
20,-2,6.439
14,-2,6.44
3,-3,6.441
-12,-4,6.442
-25,-2,6.443
-35,-1,6.444
-42,-2,6.445
-47,-4,6.446
-42,-5,6.447
-28,-3,6.448
-12,-1,6.449
0,0,6.45
12,2,6.451
22,3,6.452
30,3,6.453
35,2,6.454
40,3,6.455
42,5,6.456
38,-1,6.457
31,-5,6.458
21,-7,6.459
8,-6,6.46
-10,-7,6.461
-29,-10,6.462
-40,-12,6.463
-43,-11,6.464
-46,-8,6.465
-48,-4,6.466
-39,-2,6.467
-25,-2,6.468
-10,-1,6.469
0,3,6.47
13,6,6.471
21,9,6.472
27,13,6.473
34,15,6.474
43,12,6.475
43,6,6.476
31,-3,6.477
16,-3,6.478
12,0,6.479
10,0,6.48
-3,-2,6.481
-22,-3,6.482
-29,-7,6.483
-24,-12,6.484
-21,-12,6.485
-23,-7,6.486
-23,-3,6.487
-15,-4,6.488
-6,-4,6.489
4,1,6.49
13,5,6.491
19,3,6.492
26,0,6.493
33,3,6.494
40,6,6.495
39,6,6.496
31,1,6.497
21,-2,6.498
17,-4,6.499
8,-4,6.5
-8,-3,6.501
-26,-1,6.502
-34,-4,6.503
-35,-10,6.504
-39,-13,6.505
-48,-12,6.506
-53,-9,6.507
-48,-6,6.508
-31,-2,6.509
-5,1,6.51
23,4,6.511
42,5,6.512
51,10,6.513
57,11,6.514
65,8,6.515
63,4,6.516
49,0,6.517
31,-1,6.518
21,0,6.519
13,2,6.52
-4,5,6.521
-26,6,6.522
-37,0,6.523
-38,-8,6.524
-38,-14,6.525
-41,-14,6.526
-40,-12,6.527
-30,-7,6.528
-14,-3,6.529
-2,1,6.53
5,4,6.531
14,5,6.532
26,4,6.533
39,2,6.534
47,2,6.535
42,2,6.536
31,-3,6.537
20,-9,6.538
17,-10,6.539
9,-7,6.54
-6,-2,6.541
-24,0,6.542
-34,0,6.543
-38,1,6.544
-39,0,6.545
-39,-2,6.546
-33,-2,6.547
-22,1,6.548
-10,3,6.549
0,1,6.55
13,-4,6.551
27,-3,6.552
40,2,6.553
45,5,6.554
48,3,6.555
47,0,6.556
39,0,6.557
26,4,6.558
17,4,6.559
12,-4,6.56
1,-9,6.561
-19,-6,6.562
-37,-2,6.563
-40,-3,6.564
-35,-8,6.565
-36,-6,6.566
-37,-2,6.567
-27,-4,6.568
-8,-7,6.569
5,-4,6.57
10,0,6.571
17,1,6.572
32,2,6.573
45,5,6.574
50,7,6.575
49,1,6.576
43,-9,6.577
30,-10,6.578
11,-4,6.579
-2,0,6.58
-7,-2,6.581
-13,-5,6.582
-25,-8,6.583
-35,-10,6.584
-39,-9,6.585
-38,-4,6.586
-34,-1,6.587
-25,-2,6.588
-10,0,6.589
2,7,6.59
15,12,6.591
27,11,6.592
41,10,6.593
47,8,6.594
46,4,6.595
40,0,6.596
31,-2,6.597
18,3,6.598
4,3,6.599
-3,-5,6.6
-13,-9,6.601
-28,-7,6.602
-43,-3,6.603
-44,-6,6.604
-38,-10,6.605
-33,-7,6.606
-26,1,6.607
-9,7,6.608
15,6,6.609
30,3,6.61
33,4,6.611
35,4,6.612
42,6,6.613
47,7,6.614
48,6,6.615
41,3,6.616
32,-6,6.617
22,-9,6.618
14,-7,6.619
3,-4,6.62
-11,-3,6.621
-26,-6,6.622
-38,-9,6.623
-40,-9,6.624
-40,-8,6.625
-41,-5,6.626
-41,-2,6.627
-32,-1,6.628
-16,0,6.629
1,2,6.63
14,5,6.631
23,9,6.632
34,10,6.633
41,7,6.634
45,0,6.635
43,-5,6.636
34,-7,6.637
21,-4,6.638
10,-2,6.639
1,-3,6.64
-8,-5,6.641
-21,-3,6.642
-33,0,6.643
-37,-1,6.644
-37,-2,6.645
-39,-1,6.646
-36,0,6.647
-24,-1,6.648
-10,0,6.649
1,1,6.65
9,1,6.651
20,-1,6.652
34,-2,6.653
44,0,6.654
47,2,6.655
43,-1,6.656
36,-9,6.657
25,-8,6.658
19,-4,6.659
12,0,6.66
-1,-2,6.661
-20,-3,6.662
-36,-1,6.663
-41,-4,6.664
-40,-6,6.665
-39,-6,6.666
-34,-4,6.667
-17,-2,6.668
0,-2,6.669
10,0,6.67
17,3,6.671
26,4,6.672
32,5,6.673
37,2,6.674
43,3,6.675
45,3,6.676
39,-1,6.677
24,-4,6.678
13,-5,6.679
6,-4,6.68
-5,0,6.681
-23,1,6.682
-37,0,6.683
-39,-4,6.684
-39,-5,6.685
-42,-3,6.686
-39,-3,6.687
-24,-6,6.688
-6,-6,6.689
7,-1,6.69
14,3,6.691
22,2,6.692
31,0,6.693
39,-1,6.694
42,0,6.695
38,0,6.696
30,-4,6.697
22,-4,6.698
16,-1,6.699
5,-1,6.7
-8,-1,6.701
-20,-1,6.702
-25,-3,6.703
-28,-7,6.704
-32,-10,6.705
-33,-6,6.706
-24,-1,6.707
-10,1,6.708
0,1,6.709
4,2,6.71
6,7,6.711
9,10,6.712
13,9,6.713
22,3,6.714
37,-1,6.715
46,0,6.716
41,-4,6.717
32,-9,6.718
29,-12,6.719
25,-8,6.72
9,-2,6.721
-12,0,6.722
-24,-4,6.723
-29,-6,6.724
-34,-4,6.725
-39,-3,6.726
-33,-1,6.727
-18,-1,6.728
-2,-1,6.729
9,-1,6.73
17,2,6.731
27,5,6.732
37,7,6.733
42,3,6.734
42,1,6.735
36,1,6.736
27,-2,6.737
19,-6,6.738
11,-10,6.739
2,-7,6.74
-11,-4,6.741
-27,-5,6.742
-35,-5,6.743
-37,-3,6.744
-37,-3,6.745
-36,-5,6.746
-29,-4,6.747
-16,0,6.748
-5,0,6.749
2,0,6.75
10,4,6.751
17,8,6.752
25,10,6.753
30,7,6.754
34,9,6.755
35,11,6.756
28,6,6.757
20,1,6.758
13,-1,6.759
4,-4,6.76
-11,-4,6.761
-24,-5,6.762
-29,-5,6.763
-33,-5,6.764
-34,-6,6.765
-33,-6,6.766
-25,-2,6.767
-16,1,6.768
-4,0,6.769
7,-2,6.77
17,-1,6.771
27,0,6.772
32,0,6.773
37,0,6.774
38,-1,6.775
35,-2,6.776
30,-5,6.777
25,-4,6.778
18,0,6.779
7,1,6.78
-10,0,6.781
-27,-1,6.782
-36,-3,6.783
-37,-5,6.784
-37,-8,6.785
-38,-8,6.786
-31,-3,6.787
-16,0,6.788
-1,-1,6.789
8,1,6.79
13,5,6.791
21,9,6.792
33,8,6.793
41,2,6.794
42,0,6.795
35,1,6.796
26,-3,6.797
20,-6,6.798
16,-5,6.799
7,1,6.8
-8,6,6.801
-22,6,6.802
-30,1,6.803
-29,-2,6.804
-28,-4,6.805
-26,-4,6.806
-22,-3,6.807
-13,-4,6.808
0,-3,6.809
12,0,6.81
18,1,6.811
23,0,6.812
28,0,6.813
32,-2,6.814
35,-3,6.815
36,-5,6.816
26,-9,6.817
17,-8,6.818
11,-2,6.819
3,5,6.82
-10,8,6.821
-22,6,6.822
-28,6,6.823
-34,8,6.824
-34,8,6.825
-33,2,6.826
-27,-5,6.827
-20,-8,6.828
-6,1,6.829
6,18,6.83
14,26,6.831
22,14,6.832
32,-8,6.833
42,-38,6.834
42,-67,6.835
38,-84,6.836
35,-79,6.837
26,-39,6.838
15,25,6.839
6,83,6.84
-6,102,6.841
-22,79,6.842
-31,24,6.843
-29,-41,6.844
-26,-84,6.845
-27,-68,6.846
-26,-7,6.847
-15,28,6.848
-3,-3,6.849
4,-48,6.85
12,-24,6.851
21,62,6.852
31,114,6.853
34,65,6.854
35,-36,6.855
35,-83,6.856
30,-53,6.857
21,0,6.858
14,21,6.859
7,12,6.86
-7,-4,6.861
-24,-16,6.862
-34,-27,6.863
-34,-25,6.864
-31,-9,6.865
-29,12,6.866
-25,22,6.867
-15,25,6.868
-4,27,6.869
5,29,6.87
14,30,6.871
24,31,6.872
34,31,6.873
39,20,6.874
40,5,6.875
38,-3,6.876
27,-2,6.877
17,-1,6.878
14,-5,6.879
7,-7,6.88
-8,-3,6.881
-21,1,6.882
-29,-5,6.883
-35,-12,6.884
-34,-11,6.885
-31,-7,6.886
-25,-5,6.887
-18,-3,6.888
-9,1,6.889
0,6,6.89
9,3,6.891
18,-6,6.892
29,-11,6.893
39,-10,6.894
38,-8,6.895
30,-9,6.896
20,-11,6.897
11,-10,6.898
6,-9,6.899
2,-7,6.9
-7,-8,6.901
-23,-10,6.902
-32,-17,6.903
-32,-23,6.904
-32,-22,6.905
-32,-13,6.906
-28,-5,6.907
-15,-2,6.908
1,-3,6.909
12,1,6.91
18,5,6.911
26,5,6.912
37,4,6.913
42,3,6.914
43,5,6.915
37,3,6.916
27,-3,6.917
19,-4,6.918
12,-2,6.919
6,-3,6.92
-5,-3,6.921
-19,0,6.922
-29,1,6.923
-33,-4,6.924
-33,-7,6.925
-33,-4,6.926
-27,-2,6.927
-15,-4,6.928
0,-6,6.929
10,0,6.93
17,7,6.931
24,8,6.932
33,6,6.933
40,4,6.934
39,2,6.935
33,-1,6.936
22,-7,6.937
14,-5,6.938
10,-1,6.939
7,2,6.94
-6,3,6.941
-24,2,6.942
-35,-2,6.943
-33,-7,6.944
-30,-9,6.945
-27,-7,6.946
-23,-2,6.947
-10,0,6.948
4,3,6.949
13,7,6.95
15,7,6.951
21,3,6.952
32,1,6.953
37,1,6.954
35,5,6.955
32,7,6.956
24,-1,6.957
16,-8,6.958
10,-6,6.959
4,-5,6.96
-4,-3,6.961
-14,-2,6.962
-26,-4,6.963
-34,-7,6.964
-31,-7,6.965
-28,-5,6.966
-23,-3,6.967
-17,-1,6.968
-7,0,6.969
2,3,6.97
13,3,6.971
23,4,6.972
30,5,6.973
37,7,6.974
35,8,6.975
29,4,6.976
19,-3,6.977
7,-4,6.978
0,-3,6.979
-5,-2,6.98
-13,-2,6.981
-24,-2,6.982
-32,-2,6.983
-31,-2,6.984
-30,-3,6.985
-31,-5,6.986
-25,-5,6.987
-11,-4,6.988
2,-1,6.989
6,2,6.99
10,5,6.991
23,5,6.992
38,6,6.993
44,5,6.994
40,3,6.995
35,0,6.996
30,-4,6.997
22,-5,6.998
14,-5,6.999
4,-8,7.0
-7,-10,7.001
-22,-9,7.002
-31,-5,7.003
-30,-2,7.004
-27,-1,7.005
-27,0,7.006
-25,-2,7.007
-13,-4,7.008
3,0,7.009
14,6,7.01
22,7,7.011
28,2,7.012
32,3,7.013
32,7,7.014
33,8,7.015
33,0,7.016
27,-7,7.017
18,-3,7.018
11,2,7.019
6,1,7.02
-6,-2,7.021
-25,0,7.022
-37,-1,7.023
-34,-5,7.024
-30,-9,7.025
-32,-7,7.026
-30,-2,7.027
-14,-3,7.028
3,-3,7.029
13,0,7.03
19,1,7.031
30,0,7.032
42,1,7.033
41,6,7.034
35,7,7.035
29,3,7.036
22,-3,7.037
15,-5,7.038
8,-5,7.039
0,-4,7.04
-10,-2,7.041
-21,0,7.042
-29,-2,7.043
-35,-7,7.044
-35,-9,7.045
-32,-7,7.046
-22,-4,7.047
-13,-2,7.048
-4,1,7.049
5,5,7.05
15,8,7.051
25,10,7.052
33,12,7.053
38,9,7.054
39,2,7.055
34,-2,7.056
24,-6,7.057
12,-5,7.058
6,-6,7.059
2,-6,7.06
-8,-5,7.061
-24,-4,7.062
-32,-7,7.063
-30,-7,7.064
-28,-4,7.065
-30,1,7.066
-25,-1,7.067
-12,-6,7.068
-2,-5,7.069
4,0,7.07
13,3,7.071
26,0,7.072
33,1,7.073
36,4,7.074
37,7,7.075
37,4,7.076
28,-1,7.077
16,-5,7.078
8,-8,7.079
2,-10,7.08
-11,-8,7.081
-27,-3,7.082
-33,-1,7.083
-30,-4,7.084
-32,-8,7.085
-39,-5,7.086
-35,0,7.087
-18,5,7.088
-3,7,7.089
2,10,7.09
9,13,7.091
22,11,7.092
33,6,7.093
40,0,7.094
43,-1,7.095
38,0,7.096
27,-2,7.097
13,-2,7.098
4,-3,7.099
0,-5,7.1
-8,-6,7.101
-22,-3,7.102
-33,0,7.103
-32,-1,7.104
-27,-5,7.105
-23,-6,7.106
-17,-3,7.107
-2,1,7.108
15,1,7.109
23,-1,7.11
23,-2,7.111
22,3,7.112
28,6,7.113
33,0,7.114
33,-4,7.115
31,-2,7.116
22,1,7.117
12,1,7.118
2,-2,7.119
-8,-5,7.12
-20,-3,7.121
-29,0,7.122
-32,-3,7.123
-34,-8,7.124
-31,-11,7.125
-26,-9,7.126
-16,-7,7.127
-7,-3,7.128
-1,0,7.129
6,7,7.13
16,8,7.131
25,3,7.132
30,1,7.133
37,0,7.134
40,0,7.135
38,-3,7.136
27,-9,7.137
16,-9,7.138
12,-7,7.139
6,-7,7.14
-7,-5,7.141
-24,0,7.142
-31,4,7.143
-29,2,7.144
-27,-1,7.145
-28,0,7.146
-21,2,7.147
-5,4,7.148
8,5,7.149
14,6,7.15
20,4,7.151
30,1,7.152
39,3,7.153
39,1,7.154
39,-1,7.155
36,-5,7.156
30,-10,7.157
18,-11,7.158
6,-9,7.159
-2,-9,7.16
-14,-7,7.161
-29,-3,7.162
-37,-3,7.163
-34,-7,7.164
-29,-10,7.165
-27,-6,7.166
-22,4,7.167
-9,8,7.168
5,4,7.169
13,0,7.17
19,2,7.171
29,7,7.172
40,9,7.173
42,6,7.174
39,4,7.175
34,1,7.176
26,-4,7.177
17,-9,7.178
7,-7,7.179
-3,-5,7.18
-15,-2,7.181
-25,0,7.182
-31,-3,7.183
-36,-6,7.184
-36,-5,7.185
-33,-3,7.186
-20,-1,7.187
-7,0,7.188
2,2,7.189
12,5,7.19
18,9,7.191
25,10,7.192
33,4,7.193
40,-2,7.194
39,-5,7.195
32,-4,7.196
21,-3,7.197
10,-2,7.198
2,-1,7.199
-3,2,7.2
-15,5,7.201
-29,3,7.202
-35,-6,7.203
-35,-12,7.204
-31,-9,7.205
-31,-5,7.206
-26,-5,7.207
-16,-6,7.208
-4,-6,7.209
4,-4,7.21
14,-3,7.211
22,0,7.212
31,8,7.213
34,11,7.214
38,9,7.215
37,1,7.216
32,-6,7.217
20,-6,7.218
6,-4,7.219
-4,2,7.22
-14,7,7.221
-25,7,7.222
-30,0,7.223
-25,-9,7.224
-21,-11,7.225
-23,-5,7.226
-24,-1,7.227
-14,-2,7.228
2,-5,7.229
12,-4,7.23
17,0,7.231
24,4,7.232
35,7,7.233
38,6,7.234
32,5,7.235
24,2,7.236
16,-4,7.237
6,-8,7.238
-1,-11,7.239
-8,-9,7.24
-18,-2,7.241
-32,3,7.242
-41,2,7.243
-38,-5,7.244
-30,-9,7.245
-26,-6,7.246
-22,0,7.247
-10,3,7.248
5,5,7.249
16,9,7.25
23,12,7.251
34,10,7.252
45,8,7.253
48,9,7.254
45,8,7.255
35,4,7.256
25,-3,7.257
13,-5,7.258
3,-2,7.259
-4,-2,7.26
-15,-5,7.261
-31,-8,7.262
-40,-10,7.263
-38,-11,7.264
-28,-13,7.265
-23,-10,7.266
-18,-5,7.267
-8,-1,7.268
0,1,7.269
8,5,7.27
20,10,7.271
33,11,7.272
45,9,7.273
45,5,7.274
40,5,7.275
31,2,7.276
18,-3,7.277
5,-8,7.278
-2,-8,7.279
-5,-8,7.28
-17,-6,7.281
-36,-5,7.282
-49,-6,7.283
-44,-8,7.284
-32,-6,7.285
-26,-4,7.286
-18,-1,7.287
0,1,7.288
18,0,7.289
24,-1,7.29
24,2,7.291
28,4,7.292
39,1,7.293
46,-1,7.294
46,0,7.295
38,0,7.296
27,-8,7.297
18,-12,7.298
7,-7,7.299
-6,0,7.3
-20,2,7.301
-30,-1,7.302
-35,-2,7.303
-36,0,7.304
-37,-1,7.305
-31,-3,7.306
-18,-3,7.307
-3,-2,7.308
7,-4,7.309
13,-4,7.31
20,-1,7.311
28,1,7.312
37,0,7.313
40,-2,7.314
40,1,7.315
35,4,7.316
21,2,7.317
8,1,7.318
1,3,7.319
-6,3,7.32
-16,-2,7.321
-25,-7,7.322
-30,-7,7.323
-35,-7,7.324
-35,-4,7.325
-34,-1,7.326
-26,0,7.327
-17,0,7.328
-3,-1,7.329
9,-2,7.33
19,3,7.331
30,6,7.332
38,4,7.333
48,2,7.334
50,0,7.335
42,4,7.336
24,3,7.337
5,0,7.338
-4,1,7.339
-7,2,7.34
-10,-1,7.341
-18,-6,7.342
-31,-7,7.343
-37,0,7.344
-32,4,7.345
-23,2,7.346
-16,-4,7.347
-8,-8,7.348
3,-4,7.349
16,0,7.35
24,0,7.351
31,-3,7.352
40,-2,7.353
43,0,7.354
38,2,7.355
23,-2,7.356
9,-11,7.357
-1,-14,7.358
-7,-12,7.359
-13,-8,7.36
-19,-5,7.361
-25,-5,7.362
-30,-7,7.363
-31,-9,7.364
-30,-5,7.365
-26,-2,7.366
-17,-1,7.367
-4,-3,7.368
2,0,7.369
5,8,7.37
14,11,7.371
33,11,7.372
51,14,7.373
56,16,7.374
54,12,7.375
46,2,7.376
31,-7,7.377
8,-7,7.378
-9,-4,7.379
-15,-3,7.38
-19,-3,7.381
-28,-3,7.382
-38,-4,7.383
-39,-5,7.384
-36,-4,7.385
-30,0,7.386
-21,0,7.387
-3,-3,7.388
14,-1,7.389
22,1,7.39
29,2,7.391
38,-3,7.392
44,-4,7.393
45,0,7.394
40,4,7.395
34,5,7.396
22,1,7.397
8,-4,7.398
0,-6,7.399
-5,-7,7.4
-16,-6,7.401
-36,-6,7.402
-47,-7,7.403
-40,-8,7.404
-32,-7,7.405
-30,-3,7.406
-23,-1,7.407
-6,-1,7.408
12,4,7.409
20,9,7.41
26,9,7.411
38,4,7.412
47,2,7.413
39,5,7.414
22,8,7.415
10,5,7.416
4,-1,7.417
1,-1,7.418
-8,1,7.419
-20,0,7.42
-29,-5,7.421
-30,-8,7.422
-22,-8,7.423
-14,-8,7.424
-10,-11,7.425
-8,-11,7.426
-1,-5,7.427
13,2,7.428
24,5,7.429
29,4,7.43
27,1,7.431
30,1,7.432
42,5,7.433
56,9,7.434
62,11,7.435
54,7,7.436
41,-3,7.437
33,-7,7.438
21,-8,7.439
-1,-5,7.44
-25,0,7.441
-40,7,7.442
-43,5,7.443
-44,-4,7.444
-50,-10,7.445
-50,-6,7.446
-42,0,7.447
-30,1,7.448
-18,-2,7.449
-5,-3,7.45
12,1,7.451
30,6,7.452
50,9,7.453
67,8,7.454
76,6,7.455
67,2,7.456
41,-4,7.457
10,-6,7.458
-16,-7,7.459
-33,-6,7.46
-47,-4,7.461
-59,-5,7.462
-59,-8,7.463
-41,-11,7.464
-24,-6,7.465
-24,1,7.466
-34,4,7.467
-33,2,7.468
-15,0,7.469
0,-2,7.47
12,0,7.471
27,5,7.472
45,10,7.473
54,9,7.474
51,5,7.475
40,0,7.476
31,-4,7.477
20,-8,7.478
5,-12,7.479
-8,-11,7.48
-18,-6,7.481
-28,-5,7.482
-38,-11,7.483
-39,-14,7.484
-35,-9,7.485
-30,-4,7.486
-23,-4,7.487
-6,-3,7.488
8,5,7.489
6,13,7.49
-7,11,7.491
-10,5,7.492
1,5,7.493
23,9,7.494
49,9,7.495
73,4,7.496
82,-4,7.497
66,-8,7.498
38,-8,7.499
18,-8,7.5
5,-6,7.501
-9,-4,7.502
-26,-3,7.503
-41,-3,7.504
-55,0,7.505
-67,2,7.506
-59,0,7.507
-29,-2,7.508
-4,0,7.509
1,4,7.51
3,6,7.511
23,4,7.512
44,3,7.513
47,1,7.514
33,-2,7.515
20,-8,7.516
10,-17,7.517
-6,-16,7.518
-20,-12,7.519
-22,-9,7.52
-24,-10,7.521
-36,-10,7.522
-52,-8,7.523
-56,-5,7.524
-49,0,7.525
-33,5,7.526
-11,2,7.527
10,-7,7.528
23,-12,7.529
27,-6,7.53
36,7,7.531
53,15,7.532
63,17,7.533
62,15,7.534
54,12,7.535
44,9,7.536
29,3,7.537
8,0,7.538
-6,0,7.539
-13,-1,7.54
-23,-3,7.541
-37,-4,7.542
-46,-6,7.543
-45,-7,7.544
-42,-9,7.545
-38,-7,7.546
-26,-5,7.547
-11,-3,7.548
0,-1,7.549
6,0,7.55
16,-1,7.551
29,-4,7.552
35,-1,7.553
29,2,7.554
20,2,7.555
12,-1,7.556
11,-6,7.557
17,-5,7.558
27,-3,7.559
28,-1,7.56
10,5,7.561
-15,10,7.562
-24,6,7.563
-10,-5,7.564
6,-12,7.565
12,-6,7.566
13,4,7.567
18,10,7.568
21,8,7.569
23,4,7.57
25,3,7.571
31,5,7.572
39,10,7.573
38,11,7.574
31,6,7.575
19,-3,7.576
5,-10,7.577
-7,-12,7.578
-15,-12,7.579
-18,-11,7.58
-29,-5,7.581
-44,1,7.582
-51,0,7.583
-48,-6,7.584
-44,-5,7.585
-41,-3,7.586
-24,-4,7.587
3,-7,7.588
27,-3,7.589
34,2,7.59
32,4,7.591
33,4,7.592
36,7,7.593
36,8,7.594
32,5,7.595
22,0,7.596
10,-4,7.597
0,-6,7.598
-5,-10,7.599
-12,-12,7.6
-27,-8,7.601
-46,-2,7.602
-55,-1,7.603
-52,-7,7.604
-41,-6,7.605
-29,1,7.606
-17,4,7.607
-4,4,7.608
8,3,7.609
21,4,7.61
33,4,7.611
46,3,7.612
56,5,7.613
64,6,7.614
65,3,7.615
54,-3,7.616
35,-12,7.617
18,-16,7.618
7,-15,7.619
-6,-12,7.62
-22,-8,7.621
-38,-9,7.622
-48,-13,7.623
-50,-15,7.624
-46,-13,7.625
-35,-8,7.626
-19,-2,7.627
-1,3,7.628
15,9,7.629
27,13,7.63
37,13,7.631
47,11,7.632
57,11,7.633
62,12,7.634
56,9,7.635
38,4,7.636
16,-1,7.637
-2,-1,7.638
-11,-3,7.639
-20,-5,7.64
-35,-1,7.641
-50,8,7.642
-60,13,7.643
-60,9,7.644
-54,4,7.645
-40,11,7.646
-17,27,7.647
9,34,7.648
23,17,7.649
24,-18,7.65
26,-55,7.651
38,-77,7.652
52,-76,7.653
57,-61,7.654
53,-30,7.655
45,6,7.656
40,28,7.657
28,25,7.658
5,9,7.659
-24,4,7.66
-51,13,7.661
-65,19,7.662
-67,11,7.663
-64,3,7.664
-56,8,7.665
-40,14,7.666
-17,13,7.667
0,7,7.668
9,8,7.669
19,10,7.67
38,11,7.671
57,11,7.672
68,17,7.673
65,13,7.674
57,3,7.675
43,-7,7.676
28,-12,7.677
15,-12,7.678
6,-14,7.679
-2,-16,7.68
-13,-15,7.681
-24,-15,7.682
-31,-16,7.683
-38,-16,7.684
-45,-11,7.685
-45,-6,7.686
-30,-8,7.687
-10,-8,7.688
0,-2,7.689
4,5,7.69
11,8,7.691
26,8,7.692
37,9,7.693
37,7,7.694
31,3,7.695
19,1,7.696
6,0,7.697
-7,-3,7.698
-14,-7,7.699
-19,-6,7.7
-31,0,7.701
-53,7,7.702
-67,7,7.703
-65,0,7.704
-54,-5,7.705
-40,-6,7.706
-26,-6,7.707
-11,-3,7.708
4,0,7.709
16,0,7.71
31,0,7.711
52,1,7.712
69,6,7.713
71,9,7.714
59,10,7.715
45,5,7.716
34,-4,7.717
22,-9,7.718
14,-9,7.719
5,-6,7.72
-6,-4,7.721
-22,-5,7.722
-36,-8,7.723
-33,-8,7.724
-18,-5,7.725
-1,-4,7.726
15,-4,7.727
25,-4,7.728
31,-3,7.729
37,-1,7.73
47,-3,7.731
57,-4,7.732
61,0,7.733
53,3,7.734
43,1,7.735
31,-5,7.736
18,-10,7.737
5,-7,7.738
0,-2,7.739
2,1,7.74
0,4,7.741
-18,5,7.742
-46,0,7.743
-66,-9,7.744
-69,-11,7.745
-57,-5,7.746
-44,7,7.747
-35,9,7.748
-25,6,7.749
-7,4,7.75
16,5,7.751
36,7,7.752
55,11,7.753
71,16,7.754
77,17,7.755
63,10,7.756
35,-4,7.757
15,-12,7.758
8,-14,7.759
1,-12,7.76
-15,-7,7.761
-33,-3,7.762
-39,-4,7.763
-31,-8,7.764
-23,-10,7.765
-17,-7,7.766
-6,-5,7.767
9,-6,7.768
15,-5,7.769
8,0,7.77
1,7,7.771
4,9,7.772
12,7,7.773
11,4,7.774
7,5,7.775
2,10,7.776
-1,13,7.777
-6,17,7.778
-7,15,7.779
-4,9,7.78
-4,6,7.781
-19,11,7.782
-42,18,7.783
-53,7,7.784
-46,-16,7.785
-28,-43,7.786
-9,-62,7.787
8,-71,7.788
22,-69,7.789
37,-46,7.79
53,-10,7.791
70,20,7.792
76,27,7.793
69,18,7.794
52,14,7.795
28,15,7.796
0,10,7.797
-22,0,7.798
-32,-5,7.799
-33,-1,7.8
-39,3,7.801
-50,5,7.802
-56,7,7.803
-46,10,7.804
-26,11,7.805
-11,9,7.806
-2,6,7.807
1,1,7.808
1,-5,7.809
5,-8,7.81
21,-5,7.811
36,0,7.812
38,4,7.813
29,5,7.814
19,7,7.815
10,8,7.816
-1,-1,7.817
-17,-8,7.818
-29,-6,7.819
-32,-3,7.82
-35,0,7.821
-37,2,7.822
-36,-3,7.823
-28,-7,7.824
-15,-5,7.825
1,-4,7.826
20,-6,7.827
30,-9,7.828
33,-8,7.829
33,-7,7.83
40,-7,7.831
50,0,7.832
54,25,7.833
53,58,7.834
52,95,7.835
44,69,7.836
28,-25,7.837
11,-106,7.838
0,-105,7.839
-13,-38,7.84
-32,18,7.841
-46,21,7.842
-48,-6,7.843
-47,-27,7.844
-50,-39,7.845
-44,-49,7.846
-23,-47,7.847
1,-21,7.848
21,29,7.849
36,89,7.85
48,127,7.851
48,99,7.852
46,23,7.853
51,17,7.854
58,161,7.855
43,242,7.856
14,133,7.857
-3,-28,7.858
-5,-344,7.859
-14,-522,7.86
-42,-282,7.861
-72,-78,7.862
-89,14,7.863
-104,83,7.864
-116,83,7.865
-109,77,7.866
-76,55,7.867
-37,49,7.868
-4,90,7.869
30,114,7.87
64,84,7.871
93,56,7.872
120,37,7.873
157,22,7.874
189,22,7.875
175,27,7.876
106,32,7.877
30,22,7.878
17,-11,7.879
63,-44,7.88
71,-63,7.881
-42,-68,7.882
-217,-62,7.883
-295,-39,7.884
-215,-10,7.885
-80,2,7.886
-11,-1,7.887
-2,1,7.888
28,8,7.889
84,8,7.89
126,-1,7.891
157,-8,7.892
196,-8,7.893
213,-10,7.894
161,-18,7.895
65,-18,7.896
5,6,7.897
-5,30,7.898
-24,57,7.899
-72,71,7.9
-121,44,7.901
-148,16,7.902
-148,-12,7.903
-116,-40,7.904
-59,-68,7.905
-19,-89,7.906
-16,-91,7.907
-11,-82,7.908
32,-39,7.909
95,10,7.91
133,78,7.911
137,142,7.912
121,195,7.913
74,232,7.914
12,195,7.915
-28,125,7.916
-34,31,7.917
-36,-103,7.918
-46,-262,7.919
-42,-345,7.92
-15,-281,7.921
1,-147,7.922
-11,-82,7.923
-25,-100,7.924
-31,-100,7.925
-52,-26,7.926
-96,78,7.927
-124,157,7.928
-104,180,7.929
-53,121,7.93
-3,9,7.931
35,-48,7.932
57,25,7.933
56,128,7.934
41,102,7.935
24,43,7.936
5,-116,7.937
-20,-201,7.938
-48,-59,7.939
-61,52,7.94
-68,75,7.941
-83,70,7.942
-94,-23,7.943
-79,-85,7.944
-51,-47,7.945
-26,-10,7.946
-1,27,7.947
39,60,7.948
80,80,7.949
93,86,7.95
77,51,7.951
66,9,7.952
76,-52,7.953
98,-96,7.954
107,-62,7.955
96,-25,7.956
75,-24,7.957
59,-33,7.958
42,-26,7.959
12,-6,7.96
-29,6,7.961
-60,10,7.962
-72,15,7.963
-77,18,7.964
-83,10,7.965
-65,-4,7.966
-3,-15,7.967
72,-23,7.968
108,-30,7.969
96,-30,7.97
71,-14,7.971
53,15,7.972
26,39,7.973
-22,54,7.974
-59,85,7.975
-64,117,7.976
-60,150,7.977
-70,142,7.978
-80,12,7.979
-74,-88,7.98
-90,-97,7.981
-163,-94,7.982
-250,-52,7.983
-263,-34,7.984
-168,-89,7.985
-19,-131,7.986
115,-131,7.987
204,-111,7.988
244,-36,7.989
253,25,7.99
266,49,7.991
295,58,7.992
296,23,7.993
200,-4,7.994
51,-4,7.995
-67,-7,7.996
-93,-6,7.997
-107,45,7.998
-81,146,7.999
-61,214,8.0
-57,158,8.001
-55,-6,8.002
-62,-146,8.003
-64,-150,8.004
-50,-58,8.005
-39,11,8.006
-41,13,8.007
-38,5,8.008
-15,21,8.009
6,23,8.01
24,-10,8.011
38,-27,8.012
35,3,8.013
26,54,8.014
2,116,8.015
-15,151,8.016
-26,99,8.017
-53,33,8.018
-88,-72,8.019
-104,-140,8.02
-82,-96,8.021
-26,-89,8.022
43,-198,8.023
98,-255,8.024
114,-150,8.025
100,-61,8.026
77,-20,8.027
58,20,8.028
53,59,8.029
82,88,8.03
132,83,8.031
147,79,8.032
102,81,8.033
20,86,8.034
-19,78,8.035
-32,73,8.036
-52,112,8.037
-68,141,8.038
-64,80,8.039
-60,-24,8.04
-77,-54,8.041
-86,5,8.042
-53,47,8.043
-10,8,8.044
-1,-41,8.045
-17,-21,8.046
-19,39,8.047
-7,41,8.048
1,-42,8.049
9,-135,8.05
29,-151,8.051
48,-100,8.052
53,-53,8.053
45,-42,8.054
28,-48,8.055
-8,-43,8.056
-57,-29,8.057
-78,-13,8.058
-49,7,8.059
-11,35,8.06
-9,55,8.061
-32,60,8.062
-27,64,8.063
18,80,8.064
59,107,8.065
51,147,8.066
-4,197,8.067
-68,194,8.068
-98,63,8.069
-72,-142,8.07
-17,-248,8.071
15,-164,8.072
6,-20,8.073
-12,26,8.074
10,-39,8.075
67,-100,8.076
111,-96,8.077
114,-65,8.078
88,-52,8.079
52,-60,8.08
10,-92,8.081
-32,-119,8.082
-57,-77,8.083
-54,35,8.084
-39,128,8.085
-25,135,8.086
-12,106,8.087
9,109,8.088
24,120,8.089
31,89,8.09
32,20,8.091
40,-63,8.092
55,-135,8.093
64,-123,8.094
64,-1,8.095
50,69,8.096
20,-16,8.097
-23,-95,8.098
-60,-147,8.099
-77,-153,8.1
-81,-23,8.101
-79,68,8.102
-75,45,8.103
-67,36,8.104
-50,69,8.105
-20,81,8.106
20,30,8.107
55,-9,8.108
73,-11,8.109
76,-12,8.11
76,-4,8.111
84,4,8.112
90,15,8.113
80,17,8.114
52,0,8.115
13,8,8.116
-22,20,8.117
-42,16,8.118
-52,7,8.119
-68,17,8.12
-95,36,8.121
-115,40,8.122
-105,27,8.123
-64,2,8.124
-15,-29,8.125
22,-47,8.126
42,-33,8.127
40,-5,8.128
15,9,8.129
-19,3,8.13
-32,-3,8.131
-8,-8,8.132
40,-15,8.133
92,-5,8.134
126,42,8.135
128,80,8.136
94,42,8.137
33,-58,8.138
-24,-126,8.139
-50,-90,8.14
-55,14,8.141
-62,88,8.142
-69,74,8.143
-53,9,8.144
-6,-38,8.145
45,-30,8.146
64,19,8.147
50,83,8.148
21,134,8.149
3,121,8.15
-3,16,8.151
-7,-123,8.152
-8,-184,8.153
5,-144,8.154
43,-81,8.155
82,-71,8.156
93,-68,8.157
73,3,8.158
42,102,8.159
1,136,8.16
-64,94,8.161
-135,32,8.162
-164,-31,8.163
-119,-102,8.164
-36,-147,8.165
32,-124,8.166
60,-50,8.167
52,20,8.168
24,58,8.169
-2,69,8.17
-10,62,8.171
7,51,8.172
29,51,8.173
29,50,8.174
1,36,8.175
-36,22,8.176
-48,9,8.177
-23,-2,8.178
4,-6,8.179
-10,-10,8.18
-64,-12,8.181
-98,-15,8.182
-55,-19,8.183
34,-21,8.184
86,-18,8.185
63,-15,8.186
27,-12,8.187
36,-8,8.188
65,-6,8.189
52,-4,8.19
7,-2,8.191
-12,-1,8.192
5,-1,8.193
24,-2,8.194
25,-7,8.195
21,-10,8.196
16,-13,8.197
1,-8,8.198
-16,-2,8.199
-19,-2,8.2
-16,-2,8.201
-25,0,8.202
-39,2,8.203
-35,0,8.204
-17,0,8.205
-7,2,8.206
-5,5,8.207
4,3,8.208
19,4,8.209
26,8,8.21
32,14,8.211
49,15,8.212
62,12,8.213
47,6,8.214
8,0,8.215
-22,-4,8.216
-24,-9,8.217
-12,-9,8.218
-2,-5,8.219
4,-1,8.22
4,1,8.221
-12,1,8.222
-49,2,8.223
-88,4,8.224
-100,4,8.225
-67,1,8.226
-3,-1,8.227
43,0,8.228
41,5,8.229
9,6,8.23
0,3,8.231
42,-1,8.232
112,-1,8.233
161,0,8.234
153,0,8.235
100,0,8.236
48,-5,8.237
29,-10,8.238
26,-11,8.239
4,-11,8.24
-40,-8,8.241
-76,-4,8.242
-81,-7,8.243
-73,-10,8.244
-70,-9,8.245
-61,-4,8.246
-38,-1,8.247
-15,-2,8.248
-7,-4,8.249
-5,-1,8.25
6,3,8.251
22,5,8.252
29,4,8.253
30,0,8.254
34,0,8.255
36,-1,8.256
36,-3,8.257
35,-6,8.258
27,-5,8.259
-13,-4,8.26
-89,-3,8.261
-154,-2,8.262
-155,-4,8.263
-102,-5,8.264
-37,-2,8.265
2,0,8.266
24,-1,8.267
42,-2,8.268
57,-2,8.269
66,0,8.27
64,1,8.271
53,4,8.272
43,4,8.273
34,4,8.274
32,3,8.275
24,-1,8.276
11,-11,8.277
6,-15,8.278
15,-11,8.279
24,-4,8.28
18,1,8.281
1,0,8.282
-6,-4,8.283
-3,-6,8.284
-7,-5,8.285
-31,-2,8.286
-53,1,8.287
-47,2,8.288
-14,2,8.289
16,4,8.29
32,7,8.291
45,9,8.292
61,11,8.293
58,11,8.294
31,9,8.295
-3,7,8.296
-17,1,8.297
-18,-2,8.298
-27,-4,8.299
-42,-5,8.3
-45,-1,8.301
-40,1,8.302
-45,-3,8.303
-58,-8,8.304
-65,-8,8.305
-53,-4,8.306
-21,-3,8.307
30,-5,8.308
86,-4,8.309
113,3,8.31
101,7,8.311
80,3,8.312
75,-2,8.313
72,-5,8.314
52,-3,8.315
26,-2,8.316
16,-2,8.317
11,-3,8.318
-6,-3,8.319
-19,-4,8.32
-5,-2,8.321
18,-2,8.322
10,-6,8.323
-22,-8,8.324
-41,-3,8.325
-32,1,8.326
-21,1,8.327
-28,1,8.328
-37,2,8.329
-28,4,8.33
-16,4,8.331
-24,5,8.332
-51,7,8.333
-71,11,8.334
-71,9,8.335
-63,1,8.336
-69,-5,8.337
-76,-5,8.338
-59,-5,8.339
-29,-4,8.34
-19,-1,8.341
-28,0,8.342
-28,-1,8.343
-10,-5,8.344
9,-4,8.345
18,-1,8.346
29,1,8.347
48,0,8.348
60,2,8.349
64,5,8.35
72,7,8.351
87,7,8.352
92,8,8.353
83,5,8.354
71,-3,8.355
58,-8,8.356
37,-10,8.357
8,-6,8.358
-11,-6,8.359
-18,-6,8.36
-25,-6,8.361
-36,-7,8.362
-41,-9,8.363
-37,-12,8.364
-32,-11,8.365
-25,-8,8.366
-10,-5,8.367
7,-3,8.368
5,0,8.369
-15,3,8.37
-35,4,8.371
-30,4,8.372
1,2,8.373
47,-1,8.374
76,-2,8.375
75,-3,8.376
58,-7,8.377
47,-12,8.378
45,-16,8.379
30,-13,8.38
-3,-7,8.381
-34,-3,8.382
-47,-5,8.383
-41,-7,8.384
-27,-8,8.385
-21,-6,8.386
-20,-4,8.387
-13,-4,8.388
11,-4,8.389
46,-2,8.39
72,1,8.391
75,2,8.392
68,1,8.393
55,0,8.394
33,1,8.395
-6,0,8.396
-51,-4,8.397
-74,-6,8.398
-70,-5,8.399
-58,-5,8.4
-55,-9,8.401
-54,-9,8.402
-41,-8,8.403
-16,-6,8.404
-3,-4,8.405
-6,-2,8.406
-11,1,8.407
2,3,8.408
27,6,8.409
47,10,8.41
58,18,8.411
69,22,8.412
84,20,8.413
102,13,8.414
120,8,8.415
119,3,8.416
72,-2,8.417
-19,-5,8.418
-111,-5,8.419
-164,0,8.42
-182,0,8.421
-170,-1,8.422
-120,-2,8.423
-47,1,8.424
0,6,8.425
-3,8,8.426
-5,7,8.427
34,8,8.428
81,11,8.429
87,12,8.43
63,10,8.431
50,8,8.432
49,10,8.433
18,7,8.434
-45,-1,8.435
-105,-6,8.436
-124,-5,8.437
-83,0,8.438
-2,-2,8.439
64,-9,8.44
67,-11,8.441
26,-7,8.442
1,-5,8.443
19,-5,8.444
48,-2,8.445
65,7,8.446
72,13,8.447
64,10,8.448
37,4,8.449
8,1,8.45
10,0,8.451
35,-1,8.452
47,2,8.453
24,4,8.454
-20,5,8.455
-56,-1,8.456
-67,-9,8.457
-46,-12,8.458
-9,-10,8.459
16,-11,8.46
13,-11,8.461
-5,-11,8.462
-19,-10,8.463
-25,-8,8.464
-26,-4,8.465
-17,0,8.466
-2,1,8.467
11,-1,8.468
19,0,8.469
26,4,8.47
37,8,8.471
49,6,8.472
54,3,8.473
52,1,8.474
40,0,8.475
22,-3,8.476
5,-8,8.477
-4,-9,8.478
-12,-11,8.479
-26,-12,8.48
-47,-10,8.481
-65,-6,8.482
-73,-6,8.483
-72,-8,8.484
-63,-5,8.485
-49,-1,8.486
-33,0,8.487
-22,-4,8.488
-18,-3,8.489
-12,3,8.49
12,7,8.491
52,3,8.492
82,-2,8.493
74,-5,8.494
36,-6,8.495
6,-10,8.496
9,-18,8.497
25,-22,8.498
25,-21,8.499
8,-15,8.5
-13,-11,8.501
-23,-11,8.502
-15,-12,8.503
6,-10,8.504
21,-5,8.505
6,-1,8.506
-15,-1,8.507
-10,-2,8.508
26,0,8.509
63,3,8.51
80,3,8.511
80,1,8.512
77,3,8.513
65,7,8.514
47,7,8.515
21,0,8.516
-8,-10,8.517
-31,-13,8.518
-36,-10,8.519
-18,-6,8.52
8,-2,8.521
21,-1,8.522
12,-3,8.523
-7,-6,8.524
-20,-5,8.525
-23,2,8.526
-31,9,8.527
-53,12,8.528
-65,12,8.529
-41,12,8.53
10,11,8.531
51,10,8.532
63,10,8.533
69,10,8.534
86,10,8.535
97,7,8.536
80,-2,8.537
41,-7,8.538
5,-6,8.539
-17,-1,8.54
-32,6,8.541
-46,10,8.542
-49,10,8.543
-41,8,8.544
-32,8,8.545
-28,12,8.546
-22,14,8.547
-11,12,8.548
2,11,8.549
15,14,8.55
22,16,8.551
28,12,8.552
31,7,8.553
28,6,8.554
18,5,8.555
-2,5,8.556
-23,-1,8.557
-35,-4,8.558
-36,-6,8.559
-35,-9,8.56
-45,-10,8.561
-57,-6,8.562
-61,-1,8.563
-53,-1,8.564
-36,-2,8.565
-20,3,8.566
-6,11,8.567
5,13,8.568
11,11,8.569
17,9,8.57
27,7,8.571
42,3,8.572
47,2,8.573
40,3,8.574
24,3,8.575
5,-4,8.576
-13,-16,8.577
-26,-20,8.578
-30,-16,8.579
-29,-12,8.58
-36,-9,8.581
-48,-6,8.582
-53,-5,8.583
-43,-8,8.584
-26,-9,8.585
-12,-4,8.586
0,-1,8.587
14,-2,8.588
26,-4,8.589
32,0,8.59
37,5,8.591
46,4,8.592
54,-1,8.593
45,-5,8.594
24,-7,8.595
4,-12,8.596
-9,-19,8.597
-21,-18,8.598
-20,-11,8.599
-21,-6,8.6
-33,-6,8.601
-44,-7,8.602
-53,-7,8.603
-55,-6,8.604
-32,-4,8.605
-8,0,8.606
19,5,8.607
50,7,8.608
94,5,8.609
132,3,8.61
152,0,8.611
160,0,8.612
133,2,8.613
95,1,8.614
21,-2,8.615
-47,-6,8.616
-88,-10,8.617
-103,-13,8.618
-97,-15,8.619
-80,-15,8.62
-66,-11,8.621
-61,-6,8.622
-54,-4,8.623
-34,-3,8.624
-10,0,8.625
3,3,8.626
8,3,8.627
13,1,8.628
25,2,8.629
39,5,8.63
47,4,8.631
46,1,8.632
41,4,8.633
32,5,8.634
22,4,8.635
1,0,8.636
-24,-5,8.637
-33,-6,8.638
-5,-10,8.639
42,-14,8.64
55,-9,8.641
10,-2,8.642
-47,-2,8.643
-66,-7,8.644
-41,-5,8.645
-4,3,8.646
25,12,8.647
38,14,8.648
30,14,8.649
11,12,8.65
12,8,8.651
45,5,8.652
74,7,8.653
66,9,8.654
38,6,8.655
17,-3,8.656
2,-12,8.657
-14,-14,8.658
-25,-12,8.659
-21,-7,8.66
-20,-4,8.661
-36,-4,8.662
-52,-5,8.663
-42,-4,8.664
-22,0,8.665
-10,4,8.666
-3,5,8.667
8,3,8.668
19,2,8.669
23,3,8.67
32,4,8.671
45,3,8.672
53,4,8.673
43,1,8.674
22,-2,8.675
3,-5,8.676
-11,-10,8.677
-19,-12,8.678
-18,-12,8.679
-18,-10,8.68
-30,-7,8.681
-51,-7,8.682
-56,-8,8.683
-42,-6,8.684
-24,1,8.685
-15,9,8.686
-10,9,8.687
-1,6,8.688
12,4,8.689
24,7,8.69
35,10,8.691
43,11,8.692
45,9,8.693
41,3,8.694
30,-1,8.695
12,-1,8.696
-7,-3,8.697
-18,-6,8.698
-23,-9,8.699
-25,-11,8.7
-31,-9,8.701
-39,-6,8.702
-42,-5,8.703
-35,-5,8.704
-22,-4,8.705
-7,-4,8.706
6,-4,8.707
17,-2,8.708
28,1,8.709
40,4,8.71
49,4,8.711
53,5,8.712
52,7,8.713
46,7,8.714
35,3,8.715
19,-1,8.716
0,-6,8.717
-14,-9,8.718
-20,-12,8.719
-24,-11,8.72
-32,-6,8.721
-40,-1,8.722
-42,-1,8.723
-35,-3,8.724
-23,-2,8.725
-9,0,8.726
5,1,8.727
20,3,8.728
30,10,8.729
36,16,8.73
43,16,8.731
50,8,8.732
53,5,8.733
44,5,8.734
30,5,8.735
13,0,8.736
-6,-6,8.737
-22,-6,8.738
-28,-6,8.739
-26,-6,8.74
-26,-6,8.741
-37,-8,8.742
-46,-10,8.743
-47,-11,8.744
-39,-6,8.745
-26,3,8.746
-10,8,8.747
12,5,8.748
33,4,8.749
48,7,8.75
60,12,8.751
69,13,8.752
72,9,8.753
59,1,8.754
37,-5,8.755
12,-7,8.756
-9,-12,8.757
-24,-16,8.758
-33,-18,8.759
-39,-16,8.76
-46,-11,8.761
-52,-9,8.762
-48,-8,8.763
-31,-6,8.764
-14,-4,8.765
-7,0,8.766
-6,3,8.767
-2,7,8.768
8,9,8.769
22,10,8.77
48,10,8.771
86,12,8.772
114,10,8.773
99,5,8.774
45,0,8.775
-12,-2,8.776
-42,-4,8.777
-54,-9,8.778
-62,-14,8.779
-66,-12,8.78
-65,-6,8.781
-61,-3,8.782
-57,-5,8.783
-47,-6,8.784
-27,-3,8.785
-8,0,8.786
-1,2,8.787
-1,2,8.788
2,3,8.789
14,3,8.79
32,1,8.791
51,1,8.792
66,3,8.793
73,0,8.794
76,-4,8.795
74,-8,8.796
57,-10,8.797
23,-11,8.798
-13,-10,8.799
-33,-7,8.8
-37,-4,8.801
-37,-1,8.802
-38,0,8.803
-33,1,8.804
-23,3,8.805
-11,2,8.806
0,1,8.807
8,5,8.808
8,10,8.809
-6,9,8.81
-30,7,8.811
-41,8,8.812
-21,10,8.813
23,7,8.814
63,0,8.815
74,-4,8.816
71,-8,8.817
77,-9,8.818
83,-8,8.819
55,-5,8.82
-3,0,8.821
-51,0,8.822
-60,0,8.823
-49,0,8.824
-43,2,8.825
-35,0,8.826
-17,-3,8.827
-2,-4,8.828
0,-2,8.829
-2,0,8.83
11,3,8.831
33,5,8.832
58,6,8.833
83,3,8.834
93,1,8.835
65,0,8.836
4,-6,8.837
-48,-10,8.838
-67,-11,8.839
-67,-7,8.84
-76,-3,8.841
-85,-6,8.842
-73,-11,8.843
-41,-13,8.844
-17,-8,8.845
-10,-1,8.846
-5,-1,8.847
8,-5,8.848
25,-3,8.849
40,3,8.85
49,7,8.851
54,5,8.852
54,4,8.853
46,3,8.854
32,0,8.855
12,-3,8.856
-5,-6,8.857
-15,-5,8.858
-19,-4,8.859
-25,-7,8.86
-34,-7,8.861
-38,-2,8.862
-35,0,8.863
-27,-1,8.864
-19,-3,8.865
-7,-1,8.866
8,-1,8.867
22,0,8.868
32,0,8.869
40,6,8.87
47,10,8.871
52,10,8.872
52,9,8.873
42,4,8.874
26,-1,8.875
6,-8,8.876
-11,-13,8.877
-22,-11,8.878
-26,-7,8.879
-27,-4,8.88
-32,-5,8.881
-39,-6,8.882
-41,-4,8.883
-30,0,8.884
-14,1,8.885
-2,2,8.886
4,0,8.887
14,-2,8.888
27,-3,8.889
40,0,8.89
46,4,8.891
47,5,8.892
44,7,8.893
29,4,8.894
7,0,8.895
-11,-4,8.896
-20,-12,8.897
-21,-14,8.898
-17,-12,8.899
-5,-8,8.9
3,-5,8.901
-1,-4,8.902
-14,-1,8.903
-19,1,8.904
-7,3,8.905
7,5,8.906
11,5,8.907
11,6,8.908
19,9,8.909
23,11,8.91
14,10,8.911
-1,9,8.912
5,8,8.913
22,5,8.914
29,1,8.915
29,-3,8.916
6,-7,8.917
-12,-11,8.918
-12,-10,8.919
-12,-8,8.92
-14,-4,8.921
-23,-1,8.922
-50,-2,8.923
-67,-2,8.924
-52,3,8.925
-32,8,8.926
0,6,8.927
28,5,8.928
41,8,8.929
52,11,8.93
51,12,8.931
46,11,8.932
32,5,8.933
24,0,8.934
29,-2,8.935
10,-5,8.936
-17,-10,8.937
-26,-12,8.938
-24,-10,8.939
-31,-9,8.94
-43,-7,8.941
-43,-6,8.942
-29,-7,8.943
-17,-8,8.944
-8,-2,8.945
2,5,8.946
13,4,8.947
25,-2,8.948
37,-5,8.949
50,0,8.95
56,4,8.951
52,3,8.952
48,2,8.953
45,1,8.954
36,0,8.955
12,-4,8.956
-13,-10,8.957
-27,-11,8.958
-31,-9,8.959
-33,-7,8.96
-39,-7,8.961
-44,-7,8.962
-43,-6,8.963
-34,-7,8.964
-16,-5,8.965
0,-2,8.966
9,1,8.967
10,6,8.968
8,10,8.969
13,9,8.97
28,7,8.971
54,7,8.972
75,10,8.973
73,6,8.974
46,-1,8.975
4,-8,8.976
-36,-11,8.977
-73,-12,8.978
-100,-14,8.979
-96,-13,8.98
-58,-8,8.981
-11,-6,8.982
12,-7,8.983
16,-5,8.984
21,4,8.985
38,12,8.986
55,12,8.987
57,9,8.988
46,11,8.989
29,14,8.99
17,12,8.991
12,8,8.992
14,9,8.993
19,11,8.994
20,6,8.995
9,-4,8.996
-15,-12,8.997
-35,-10,8.998
-31,-8,8.999
-7,-9,9.0
8,-7,9.001
0,-2,9.002
-17,1,9.003
-8,-2,9.004
29,-7,9.005
65,-6,9.006
58,-1,9.007
6,-1,9.008
-50,-1,9.009
-64,0,9.01
-42,2,9.011
-26,4,9.012
-29,6,9.013
-27,6,9.014
2,0,9.015
35,-9,9.016
44,-16,9.017
31,-10,9.018
16,-4,9.019
-1,-3,9.02
-27,-6,9.021
-47,-4,9.022
-41,-3,9.023
-22,-5,9.024
-15,-4,9.025
-17,3,9.026
-9,9,9.027
12,6,9.028
33,1,9.029
44,4,9.03
48,8,9.031
51,6,9.032
52,0,9.033
47,-5,9.034
35,-6,9.035
16,-7,9.036
0,-9,9.037
-5,-9,9.038
-5,-8,9.039
-10,-9,9.04
-27,-9,9.041
-41,-6,9.042
-40,-2,9.043
-33,0,9.044
-27,3,9.045
-24,9,9.046
-18,12,9.047
-9,12,9.048
-2,8,9.049
3,8,9.05
14,7,9.051
27,4,9.052
36,3,9.053
31,-2,9.054
20,-11,9.055
18,-16,9.056
36,-14,9.057
58,-9,9.058
58,-9,9.059
32,-9,9.06
-1,-4,9.061
-25,1,9.062
-35,-2,9.063
-29,-7,9.064
-15,-3,9.065
0,7,9.066
12,10,9.067
18,6,9.068
18,5,9.069
15,10,9.07
13,11,9.071
17,7,9.072
19,7,9.073
12,7,9.074
-1,3,9.075
-10,-7,9.076
-14,-15,9.077
-19,-12,9.078
-25,-7,9.079
-34,-6,9.08
-50,-7,9.081
-69,-5,9.082
-69,-5,9.083
-41,-4,9.084
0,-2,9.085
25,1,9.086
38,4,9.087
52,2,9.088
71,2,9.089
91,7,9.09
102,10,9.091
96,8,9.092
74,5,9.093
40,3,9.094
12,4,9.095
-4,0,9.096
-17,-9,9.097
-39,-11,9.098
-72,-9,9.099
-105,-5,9.1
-123,-4,9.101
-123,-6,9.102
-107,-8,9.103
-79,-7,9.104
-40,-1,9.105
5,3,9.106
43,3,9.107
60,-1,9.108
61,0,9.109
59,6,9.11
56,11,9.111
53,10,9.112
51,8,9.113
45,2,9.114
31,-3,9.115
10,-8,9.116
-13,-11,9.117
-25,-10,9.118
-33,-11,9.119
-42,-14,9.12
-50,-14,9.121
-49,-11,9.122
-31,-8,9.123
0,-7,9.124
30,-5,9.125
44,-1,9.126
40,2,9.127
27,4,9.128
18,4,9.129
16,4,9.13
16,3,9.131
20,2,9.132
30,3,9.133
41,5,9.134
36,4,9.135
2,0,9.136
-35,-8,9.137
-39,-12,9.138
2,-13,9.139
48,-13,9.14
57,-8,9.141
30,-4,9.142
2,0,9.143
-7,-1,9.144
-9,-2,9.145
-13,0,9.146
-12,3,9.147
-1,3,9.148
16,5,9.149
25,8,9.15
25,8,9.151
26,2,9.152
31,1,9.153
31,2,9.154
19,4,9.155
-4,1,9.156
-25,-8,9.157
-32,-12,9.158
-27,-9,9.159
-23,-8,9.16
-34,-6,9.161
-53,-2,9.162
-62,0,9.163
-53,0,9.164
-36,1,9.165
-22,5,9.166
-10,10,9.167
7,8,9.168
25,6,9.169
29,8,9.17
23,9,9.171
18,6,9.172
18,2,9.173
17,1,9.174
13,0,9.175
2,-6,9.176
-4,-16,9.177
5,-19,9.178
35,-15,9.179
65,-10,9.18
68,-3,9.181
44,3,9.182
18,3,9.183
-1,-1,9.184
-23,-3,9.185
-46,4,9.186
-53,11,9.187
-41,11,9.188
-28,7,9.189
-22,9,9.19
-7,13,9.191
19,13,9.192
36,10,9.193
29,4,9.194
12,-1,9.195
-3,-7,9.196
-10,-13,9.197
-16,-14,9.198
-17,-11,9.199
-6,-11,9.2
13,-10,9.201
25,-6,9.202
16,0,9.203
-16,4,9.204
-48,3,9.205
-54,3,9.206
-33,3,9.207
-6,1,9.208
11,-1,9.209
28,-3,9.21
49,-2,9.211
65,1,9.212
67,4,9.213
55,1,9.214
35,-4,9.215
9,-7,9.216
-14,-10,9.217
-24,-10,9.218
-26,-11,9.219
-28,-12,9.22
-35,-7,9.221
-39,-2,9.222
-34,-1,9.223
-22,-1,9.224
-9,1,9.225
4,3,9.226
14,3,9.227
19,0,9.228
19,4,9.229
13,9,9.23
6,10,9.231
4,6,9.232
6,5,9.233
8,5,9.234
10,1,9.235
17,-7,9.236
30,-16,9.237
39,-15,9.238
32,-9,9.239
13,-5,9.24
-11,-5,9.241
-18,-4,9.242
-6,-3,9.243
8,-1,9.244
6,0,9.245
2,4,9.246
16,10,9.247
35,13,9.248
34,13,9.249
18,11,9.25
13,8,9.251
24,5,9.252
32,3,9.253
22,0,9.254
6,-3,9.255
-8,-8,9.256
-22,-14,9.257
-37,-12,9.258
-44,-9,9.259
-45,-7,9.26
-48,-11,9.261
-56,-10,9.262
-56,-6,9.263
-41,0,9.264
-20,-1,9.265
0,-3,9.266
19,1,9.267
37,7,9.268
49,6,9.269
54,0,9.27
54,-1,9.271
55,2,9.272
56,6,9.273
45,4,9.274
26,2,9.275
2,0,9.276
-19,-5,9.277
-30,-8,9.278
-31,-8,9.279
-34,-3,9.28
-42,0,9.281
-45,-2,9.282
-33,-5,9.283
-10,-8,9.284
10,-7,9.285
18,-3,9.286
18,2,9.287
18,10,9.288
19,13,9.289
19,11,9.29
17,7,9.291
16,4,9.292
19,2,9.293
21,0,9.294
14,-2,9.295
-4,-3,9.296
-25,-7,9.297
-39,-7,9.298
-40,-4,9.299
-34,-5,9.3
-29,-7,9.301
-31,-6,9.302
-38,-5,9.303
-33,-5,9.304
-10,-7,9.305
17,-3,9.306
28,0,9.307
30,0,9.308
42,0,9.309
60,4,9.31
67,11,9.311
59,11,9.312
49,7,9.313
42,2,9.314
27,0,9.315
1,-5,9.316
-22,-14,9.317
-33,-19,9.318
-37,-17,9.319
-41,-13,9.32
-42,-11,9.321
-40,-7,9.322
-33,-4,9.323
-20,-2,9.324
-2,-2,9.325
18,1,9.326
28,4,9.327
10,9,9.328
-23,11,9.329
-36,11,9.33
-2,10,9.331
58,8,9.332
94,6,9.333
93,2,9.334
77,-1,9.335
66,-5,9.336
48,-10,9.337
8,-10,9.338
-36,-8,9.339
-61,-7,9.34
-66,-7,9.341
-60,-7,9.342
-53,-4,9.343
-43,3,9.344
-27,8,9.345
-8,7,9.346
11,2,9.347
25,1,9.348
32,6,9.349
37,11,9.35
43,7,9.351
46,1,9.352
43,1,9.353
30,0,9.354
14,-5,9.355
-3,-13,9.356
-18,-20,9.357
-28,-16,9.358
-33,-9,9.359
-34,-7,9.36
-37,-6,9.361
-39,-5,9.362
-35,-4,9.363
-25,-5,9.364
-11,-2,9.365
0,6,9.366
11,12,9.367
20,7,9.368
31,2,9.369
40,7,9.37
43,13,9.371
44,10,9.372
42,0,9.373
34,-5,9.374
18,-4,9.375
-2,-2,9.376
-19,-8,9.377
-27,-10,9.378
-28,-8,9.379
-26,-6,9.38
-29,-5,9.381
-38,-5,9.382
-42,-2,9.383
-30,0,9.384
-11,1,9.385
4,5,9.386
14,7,9.387
25,5,9.388
40,4,9.389
52,8,9.39
53,13,9.391
46,10,9.392
42,3,9.393
32,-2,9.394
19,0,9.395
0,-2,9.396
-16,-9,9.397
-26,-14,9.398
-30,-14,9.399
-32,-10,9.4
-36,-7,9.401
-38,-6,9.402
-36,-4,9.403
-25,0,9.404
-13,6,9.405
-5,8,9.406
-1,6,9.407
6,3,9.408
17,4,9.409
30,6,9.41
48,5,9.411
66,0,9.412
75,-2,9.413
66,-4,9.414
50,-3,9.415
30,-5,9.416
3,-11,9.417
-31,-15,9.418
-58,-13,9.419
-62,-9,9.42
-48,-7,9.421
-38,-5,9.422
-39,-5,9.423
-36,-6,9.424
-20,-2,9.425
3,4,9.426
19,5,9.427
22,5,9.428
18,7,9.429
19,9,9.43
26,8,9.431
32,4,9.432
22,4,9.433
-4,2,9.434
-24,0,9.435
-15,-4,9.436
13,-11,9.437
33,-16,9.438
41,-19,9.439
59,-15,9.44
99,-6,9.441
126,3,9.442
91,5,9.443
-1,0,9.444
-83,-2,9.445
-104,1,9.446
-81,4,9.447
-63,4,9.448
-61,7,9.449
-49,10,9.45
-20,10,9.451
5,6,9.452
15,4,9.453
11,2,9.454
9,0,9.455
3,-2,9.456
-7,-7,9.457
-13,-6,9.458
-8,-5,9.459
-3,-5,9.46
-4,-3,9.461
-10,-2,9.462
-10,-1,9.463
-5,0,9.464
-4,3,9.465
-6,5,9.466
-3,4,9.467
3,1,9.468
8,1,9.469
14,6,9.47
32,11,9.471
59,8,9.472
72,3,9.473
54,-4,9.474
22,-9,9.475
3,-11,9.476
4,-14,9.477
8,-13,9.478
1,-11,9.479
-14,-12,9.48
-27,-11,9.481
-36,-7,9.482
-35,-4,9.483
-27,0,9.484
-17,1,9.485
-5,3,9.486
12,4,9.487
30,4,9.488
42,7,9.489
47,9,9.49
51,8,9.491
52,4,9.492
47,2,9.493
30,0,9.494
11,-1,9.495
-5,-5,9.496
-18,-13,9.497
-31,-13,9.498
-38,-7,9.499
-40,-1,9.5
-44,-3,9.501
-48,-7,9.502
-44,-7,9.503
-27,0,9.504
-8,5,9.505
5,6,9.506
15,4,9.507
25,2,9.508
33,1,9.509
42,2,9.51
47,6,9.511
49,7,9.512
44,5,9.513
34,-1,9.514
20,-5,9.515
0,-4,9.516
-20,-9,9.517
-32,-13,9.518
-27,-15,9.519
-15,-11,9.52
-16,-7,9.521
-30,-5,9.522
-44,-4,9.523
-46,-1,9.524
-40,1,9.525
-33,6,9.526
-23,9,9.527
0,8,9.528
33,6,9.529
59,6,9.53
71,8,9.531
66,5,9.532
46,3,9.533
5,2,9.534
-36,1,9.535
-51,-2,9.536
-27,-11,9.537
18,-11,9.538
51,-9,9.539
57,-10,9.54
48,-10,9.541
32,-5,9.542
10,4,9.543
-14,5,9.544
-26,1,9.545
-11,0,9.546
25,3,9.547
44,6,9.548
15,8,9.549
-34,10,9.55
-46,7,9.551
-14,0,9.552
13,-3,9.553
2,-3,9.554
-21,-1,9.555
-29,-5,9.556
-32,-13,9.557
-48,-15,9.558
-61,-13,9.559
-56,-11,9.56
-43,-8,9.561
-33,-2,9.562
-15,0,9.563
12,-3,9.564
28,0,9.565
25,6,9.566
30,11,9.567
55,10,9.568
75,6,9.569
72,5,9.57
60,5,9.571
53,6,9.572
48,8,9.573
38,3,9.574
27,-4,9.575
13,-9,9.576
-9,-12,9.577
-31,-11,9.578
-40,-12,9.579
-38,-12,9.58
-40,-10,9.581
-43,-5,9.582
-33,-2,9.583
-15,-1,9.584
-2,2,9.585
3,2,9.586
11,1,9.587
21,1,9.588
27,5,9.589
32,8,9.59
41,8,9.591
43,6,9.592
37,5,9.593
21,1,9.594
7,-5,9.595
-5,-10,9.596
-15,-13,9.597
-19,-10,9.598
-16,-8,9.599
-19,-6,9.6
-36,-4,9.601
-52,0,9.602
-47,1,9.603
-28,1,9.604
-14,4,9.605
-9,10,9.606
1,11,9.607
19,3,9.608
34,-2,9.609
41,4,9.61
44,12,9.611
47,10,9.612
47,3,9.613
33,-3,9.614
9,-6,9.615
-15,-8,9.616
-28,-11,9.617
-33,-7,9.618
-29,-3,9.619
-24,-2,9.62
-21,-5,9.621
-19,-7,9.622
-8,-5,9.623
7,-2,9.624
18,2,9.625
16,6,9.626
10,8,9.627
15,6,9.628
30,5,9.629
46,7,9.63
44,6,9.631
32,0,9.632
20,-6,9.633
16,-8,9.634
17,-7,9.635
13,-7,9.636
-9,-11,9.637
-28,-14,9.638
-36,-12,9.639
-42,-10,9.64
-40,-8,9.641
-38,-7,9.642
-35,-7,9.643
-26,-5,9.644
0,-2,9.645
19,1,9.646
17,6,9.647
17,10,9.648
28,8,9.649
37,6,9.65
39,4,9.651
40,2,9.652
32,1,9.653
24,0,9.654
13,-4,9.655
-12,-9,9.656
-36,-14,9.657
-42,-13,9.658
-26,-10,9.659
-12,-8,9.66
-14,-4,9.661
-21,0,9.662
-17,4,9.663
-1,1,9.664
12,-1,9.665
15,4,9.666
13,11,9.667
18,10,9.668
25,6,9.669
32,4,9.67
35,7,9.671
37,9,9.672
38,9,9.673
33,3,9.674
17,-2,9.675
-10,-5,9.676
-31,-9,9.677
-43,-10,9.678
-46,-10,9.679
-47,-8,9.68
-43,-5,9.681
-25,-6,9.682
13,-8,9.683
55,-5,9.684
80,4,9.685
74,9,9.686
40,5,9.687
2,0,9.688
-13,0,9.689
-5,2,9.69
6,2,9.691
7,2,9.692
4,4,9.693
2,4,9.694
-7,2,9.695
-29,0,9.696
-51,0,9.697
-57,6,9.698
-48,16,9.699
-43,26,9.7
-42,23,9.701
-45,2,9.702
-45,-29,9.703
-31,-54,9.704
-6,-66,9.705
19,-64,9.706
26,-44,9.707
18,-13,9.708
12,15,9.709
24,23,9.71
49,15,9.711
70,10,9.712
77,19,9.713
71,27,9.714
62,25,9.715
52,15,9.716
36,4,9.717
8,1,9.718
-22,1,9.719
-37,0,9.72
-35,1,9.721
-33,2,9.722
-36,1,9.723
-30,0,9.724
-12,2,9.725
8,6,9.726
16,7,9.727
19,5,9.728
27,1,9.729
37,1,9.73
44,-1,9.731
46,-6,9.732
49,-3,9.733
40,9,9.734
14,22,9.735
-26,5,9.736
-61,-50,9.737
-79,-95,9.738
-72,-82,9.739
-42,-22,9.74
-5,30,9.741
18,42,9.742
16,30,9.743
1,25,9.744
-4,27,9.745
-4,23,9.746
-5,11,9.747
-3,7,9.748
15,12,9.749
38,17,9.75
43,19,9.751
32,19,9.752
25,19,9.753
28,19,9.754
25,14,9.755
3,9,9.756
-26,1,9.757
-39,-8,9.758
-35,-27,9.759
-26,-55,9.76
-25,-79,9.761
-28,-87,9.762
-22,-72,9.763
-6,-38,9.764
14,2,9.765
29,39,9.766
40,68,9.767
51,74,9.768
54,41,9.769
45,-28,9.77
37,-84,9.771
49,-76,9.772
74,-18,9.773
66,27,9.774
1,27,9.775
-86,8,9.776
-123,5,9.777
-96,16,9.778
-59,12,9.779
-58,1,9.78
-70,2,9.781
-55,8,9.782
-20,3,9.783
1,-6,9.784
5,-1,9.785
20,11,9.786
44,13,9.787
54,9,9.788
49,15,9.789
49,23,9.79
58,18,9.791
55,4,9.792
36,-1,9.793
15,-1,9.794
1,-4,9.795
-12,-10,9.796
-30,-14,9.797
-38,-12,9.798
-29,-12,9.799
-15,-12,9.8
-9,-8,9.801
-12,-3,9.802
-13,-2,9.803
-8,-4,9.804
2,-4,9.805
16,0,9.806
25,2,9.807
29,5,9.808
34,4,9.809
43,0,9.81
57,-3,9.811
67,-2,9.812
73,1,9.813
67,0,9.814
46,-3,9.815
2,-4,9.816
-41,-9,9.817
-59,-13,9.818
-50,-13,9.819
-44,-5,9.82
-55,1,9.821
-63,0,9.822
-43,-3,9.823
-8,-2,9.824
9,2,9.825
-2,2,9.826
-19,0,9.827
-20,0,9.828
-2,2,9.829
26,4,9.83
57,6,9.831
76,8,9.832
73,5,9.833
45,0,9.834
12,-2,9.835
-19,0,9.836
-45,-4,9.837
-59,-7,9.838
-57,-6,9.839
-53,-3,9.84
-53,-1,9.841
-50,-1,9.842
-28,0,9.843
-1,0,9.844
17,-2,9.845
22,-1,9.846
31,3,9.847
46,4,9.848
55,2,9.849
60,0,9.85
63,-3,9.851
58,-7,9.852
35,-9,9.853
-4,-11,9.854
-31,-7,9.855
-35,-1,9.856
-30,-2,9.857
-22,-4,9.858
-10,-7,9.859
3,-11,9.86
-6,-13,9.861
-38,-8,9.862
-61,0,9.863
-46,10,9.864
-10,13,9.865
13,7,9.866
17,-6,9.867
20,-19,9.868
30,-22,9.869
35,-16,9.87
32,-8,9.871
33,-3,9.872
39,1,9.873
35,6,9.874
18,11,9.875
0,14,9.876
-8,9,9.877
-15,5,9.878
-21,1,9.879
-26,1,9.88
-27,1,9.881
-25,2,9.882
-17,1,9.883
-6,0,9.884
4,0,9.885
12,3,9.886
17,5,9.887
25,5,9.888
37,7,9.889
44,10,9.89
43,10,9.891
37,7,9.892
32,9,9.893
25,10,9.894
15,9,9.895
-4,5,9.896
-23,4,9.897
-35,17,9.898
-36,31,9.899
-33,19,9.9
-38,-20,9.901
-44,-65,9.902
-39,-92,9.903
-21,-90,9.904
-3,-69,9.905
7,-32,9.906
17,14,9.907
30,60,9.908
44,86,9.909
52,72,9.91
54,15,9.911
50,-52,9.912
40,-77,9.913
24,-46,9.914
7,6,9.915
-8,28,9.916
-20,13,9.917
-28,3,9.918
-34,11,9.919
-35,17,9.92
-36,11,9.921
-34,4,9.922
-23,-4,9.923
-8,-29,9.924
11,-60,9.925
21,-63,9.926
26,-24,9.927
30,32,9.928
33,70,9.929
33,77,9.93
31,55,9.931
28,21,9.932
20,-6,9.933
-1,-20,9.934
-30,-23,9.935
-51,-17,9.936
-58,-7,9.937
-56,11,9.938
-40,26,9.939
-9,30,9.94
27,29,9.941
50,31,9.942
46,28,9.943
23,9,9.944
6,-14,9.945
8,-22,9.946
25,0,9.947
38,40,9.948
37,60,9.949
31,17,9.95
31,-77,9.951
31,-137,9.952
24,-108,9.953
3,-17,9.954
-24,47,9.955
-52,47,9.956
-70,18,9.957
-73,2,9.958
-66,-24,9.959
-58,-87,9.96
-42,-160,9.961
-2,-170,9.962
57,-88,9.963
105,31,9.964
112,103,9.965
81,100,9.966
39,78,9.967
12,83,9.968
-4,99,9.969
-16,88,9.97
-24,60,9.971
-29,44,9.972
-27,38,9.973
-23,15,9.974
-21,-9,9.975
-24,1,9.976
-31,28,9.977
-34,23,9.978
-28,-21,9.979
-20,-48,9.98
-23,-27,9.981
-26,-3,9.982
-14,-24,9.983
21,-64,9.984
58,-54,9.985
85,8,9.986
97,39,9.987
86,-24,9.988
42,-146,9.989
-28,-215,9.99
-89,-164,9.991
-107,-43,9.992
-85,48,9.993
-45,74,9.994
-11,64,9.995
8,51,9.996
26,28,9.997
53,4,9.998
84,26,9.999
94,129,10.0
63,248,10.001
13,249,10.002
-20,48,10.003
-30,-255,10.004
-30,-424,10.005
-26,-315,10.006
-12,-57,10.007
7,96,10.008
23,70,10.009
32,13,10.01
37,37,10.011
34,75,10.012
26,49,10.013
14,-7,10.014
1,-36,10.015
-19,-66,10.016
-41,-117,10.017
-56,-113,10.018
-54,-6,10.019
-49,122,10.02
-57,168,10.021
-68,135,10.022
-71,69,10.023
-59,6,10.024
-32,-7,10.025
16,63,10.026
79,149,10.027
129,127,10.028
