Deltoid,Bicep,Time
-6.0,-7.0,0.0
-8.0,-10.0,0.001
-4.0,-7.0,0.002
1.0,-4.0,0.003
6.0,0.0,0.004
4.0,1.0,0.005
0.0,3.0,0.006
-1.0,4.0,0.007
0.0,1.0,0.008
-1.0,-1.0,0.009
-3.0,0.0,0.01
-4.0,2.0,0.011
-2.0,2.0,0.012
-2.0,0.0,0.013
-3.0,0.0,0.014
-1.0,2.0,0.015
2.0,2.0,0.016
6.0,2.0,0.017
7.0,1.0,0.018
7.0,0.0,0.019
4.0,-3.0,0.02
0.0,-9.0,0.021
-2.0,-8.0,0.022
4.0,-3.0,0.023
13.0,-1.0,0.024
15.0,-1.0,0.025
10.0,-2.0,0.026
4.0,-1.0,0.027
4.0,0.0,0.028
6.0,0.0,0.029
6.0,2.0,0.03
4.0,3.0,0.031
5.0,1.0,0.032
8.0,0.0,0.033
6.0,1.0,0.034
3.0,5.0,0.035
3.0,4.0,0.036
3.0,2.0,0.037
1.0,-1.0,0.038
-4.0,-2.0,0.039
-8.0,-2.0,0.04
-9.0,-5.0,0.041
-6.0,-5.0,0.042
0.0,-3.0,0.043
4.0,-1.0,0.044
3.0,1.0,0.045
0.0,2.0,0.046
-1.0,1.0,0.047
2.0,-2.0,0.048
5.0,-1.0,0.049
3.0,5.0,0.05
3.0,6.0,0.051
6.0,1.0,0.052
8.0,-3.0,0.053
9.0,-3.0,0.054
6.0,-3.0,0.055
4.0,-3.0,0.056
0.0,-2.0,0.057
-3.0,-2.0,0.058
-1.0,-3.0,0.059
0.0,-5.0,0.06
-1.0,-6.0,0.061
-2.0,-4.0,0.062
4.0,-3.0,0.063
9.0,-2.0,0.064
6.0,0.0,0.065
4.0,4.0,0.066
4.0,3.0,0.067
3.0,0.0,0.068
5.0,1.0,0.069
7.0,4.0,0.07
8.0,3.0,0.071
9.0,0.0,0.072
6.0,0.0,0.073
3.0,2.0,0.074
0.0,-2.0,0.075
-2.0,-7.0,0.076
-1.0,-7.0,0.077
0.0,-4.0,0.078
0.0,-2.0,0.079
0.0,-3.0,0.08
-3.0,-4.0,0.081
-4.0,-2.0,0.082
2.0,-1.0,0.083
13.0,-2.0,0.084
16.0,0.0,0.085
6.0,3.0,0.086
1.0,2.0,0.087
3.0,-1.0,0.088
6.0,0.0,0.089
1.0,4.0,0.09
-3.0,6.0,0.091
0.0,0.0,0.092
5.0,-5.0,0.093
6.0,-3.0,0.094
6.0,1.0,0.095
5.0,-2.0,0.096
1.0,-5.0,0.097
-7.0,-5.0,0.098
-12.0,-5.0,0.099
-12.0,-5.0,0.1
-12.0,-9.0,0.101
-13.0,-6.0,0.102
-7.0,-2.0,0.103
3.0,0.0,0.104
7.0,1.0,0.105
1.0,3.0,0.106
-3.0,2.0,0.107
3.0,2.0,0.108
13.0,1.0,0.109
15.0,2.0,0.11
9.0,1.0,0.111
4.0,0.0,0.112
3.0,1.0,0.113
3.0,4.0,0.114
4.0,6.0,0.115
9.0,3.0,0.116
13.0,1.0,0.117
13.0,-1.0,0.118
10.0,-3.0,0.119
2.0,-5.0,0.12
-4.0,-8.0,0.121
-7.0,-9.0,0.122
-6.0,-7.0,0.123
-3.0,-5.0,0.124
-2.0,0.0,0.125
-5.0,4.0,0.126
-5.0,4.0,0.127
0.0,1.0,0.128
4.0,-1.0,0.129
9.0,-1.0,0.13
15.0,1.0,0.131
21.0,3.0,0.132
20.0,3.0,0.133
13.0,1.0,0.134
4.0,-1.0,0.135
-2.0,-1.0,0.136
-4.0,-2.0,0.137
-10.0,-3.0,0.138
-11.0,-6.0,0.139
-10.0,-6.0,0.14
-5.0,-7.0,0.141
5.0,-6.0,0.142
24.0,-2.0,0.143
40.0,2.0,0.144
34.0,3.0,0.145
9.0,1.0,0.146
-10.0,0.0,0.147
-10.0,-1.0,0.148
-6.0,0.0,0.149
-11.0,1.0,0.15
-19.0,2.0,0.151
-19.0,1.0,0.152
-16.0,-1.0,0.153
-17.0,0.0,0.154
-18.0,-1.0,0.155
-11.0,-2.0,0.156
-4.0,-3.0,0.157
-6.0,-3.0,0.158
-5.0,-1.0,0.159
-2.0,-2.0,0.16
3.0,-7.0,0.161
11.0,-7.0,0.162
27.0,-3.0,0.163
41.0,1.0,0.164
49.0,4.0,0.165
50.0,5.0,0.166
30.0,4.0,0.167
13.0,3.0,0.168
5.0,4.0,0.169
-2.0,7.0,0.17
-3.0,8.0,0.171
-3.0,5.0,0.172
2.0,2.0,0.173
4.0,0.0,0.174
-13.0,0.0,0.175
-26.0,-3.0,0.176
-28.0,-4.0,0.177
-28.0,-4.0,0.178
-18.0,-4.0,0.179
-9.0,-4.0,0.18
2.0,-8.0,0.181
16.0,-7.0,0.182
32.0,-6.0,0.183
49.0,-7.0,0.184
54.0,-6.0,0.185
45.0,0.0,0.186
28.0,5.0,0.187
17.0,6.0,0.188
11.0,4.0,0.189
2.0,4.0,0.19
-7.0,6.0,0.191
-11.0,7.0,0.192
-12.0,3.0,0.193
-19.0,-1.0,0.194
-30.0,-3.0,0.195
-42.0,-2.0,0.196
-43.0,-1.0,0.197
-36.0,-1.0,0.198
-26.0,-1.0,0.199
-22.0,-4.0,0.2
-22.0,-6.0,0.201
-24.0,-5.0,0.202
-27.0,-4.0,0.203
-34.0,-5.0,0.204
-41.0,-5.0,0.205
-44.0,-2.0,0.206
-38.0,0.0,0.207
-25.0,2.0,0.208
-12.0,3.0,0.209
2.0,6.0,0.21
22.0,10.0,0.211
40.0,10.0,0.212
50.0,7.0,0.213
47.0,5.0,0.214
38.0,3.0,0.215
28.0,-1.0,0.216
21.0,-9.0,0.217
21.0,-13.0,0.218
26.0,-11.0,0.219
36.0,-4.0,0.22
47.0,-3.0,0.221
53.0,-4.0,0.222
47.0,-6.0,0.223
27.0,-8.0,0.224
3.0,-12.0,0.225
-10.0,-17.0,0.226
-10.0,-19.0,0.227
0.0,-17.0,0.228
19.0,-13.0,0.229
41.0,-7.0,0.23
59.0,0.0,0.231
60.0,9.0,0.232
48.0,9.0,0.233
39.0,4.0,0.234
34.0,-1.0,0.235
24.0,0.0,0.236
3.0,5.0,0.237
-16.0,5.0,0.238
-14.0,6.0,0.239
5.0,7.0,0.24
13.0,4.0,0.241
-7.0,1.0,0.242
-39.0,-4.0,0.243
-55.0,-5.0,0.244
-51.0,-1.0,0.245
-49.0,1.0,0.246
-63.0,-1.0,0.247
-87.0,-4.0,0.248
-97.0,1.0,0.249
-88.0,13.0,0.25
-69.0,19.0,0.251
-50.0,11.0,0.252
-32.0,4.0,0.253
-17.0,5.0,0.254
-7.0,10.0,0.255
-4.0,11.0,0.256
-2.0,10.0,0.257
1.0,7.0,0.258
11.0,3.0,0.259
19.0,-4.0,0.26
22.0,-15.0,0.261
21.0,-15.0,0.262
22.0,-3.0,0.263
27.0,9.0,0.264
28.0,14.0,0.265
26.0,8.0,0.266
29.0,-4.0,0.267
39.0,-14.0,0.268
49.0,-19.0,0.269
50.0,-13.0,0.27
43.0,-7.0,0.271
44.0,-4.0,0.272
56.0,-5.0,0.273
71.0,-8.0,0.274
80.0,-11.0,0.275
81.0,-16.0,0.276
79.0,-21.0,0.277
72.0,-22.0,0.278
55.0,-16.0,0.279
22.0,-8.0,0.28
-17.0,-7.0,0.281
-49.0,-3.0,0.282
-59.0,4.0,0.283
-56.0,8.0,0.284
-52.0,1.0,0.285
-45.0,-9.0,0.286
-30.0,-8.0,0.287
-9.0,2.0,0.288
2.0,11.0,0.289
-4.0,11.0,0.29
-17.0,12.0,0.291
-23.0,13.0,0.292
-20.0,14.0,0.293
-16.0,13.0,0.294
-18.0,13.0,0.295
-24.0,12.0,0.296
-27.0,11.0,0.297
-24.0,5.0,0.298
-19.0,4.0,0.299
-17.0,6.0,0.3
-21.0,3.0,0.301
-19.0,3.0,0.302
-1.0,3.0,0.303
22.0,3.0,0.304
40.0,-2.0,0.305
53.0,-4.0,0.306
65.0,-3.0,0.307
69.0,1.0,0.308
61.0,7.0,0.309
39.0,9.0,0.31
19.0,10.0,0.311
4.0,9.0,0.312
-11.0,5.0,0.313
-31.0,-3.0,0.314
-47.0,-9.0,0.315
-48.0,-10.0,0.316
-39.0,-7.0,0.317
-37.0,-8.0,0.318
-38.0,-7.0,0.319
-36.0,-5.0,0.32
-26.0,-5.0,0.321
-16.0,-5.0,0.322
-9.0,-8.0,0.323
-8.0,-11.0,0.324
-8.0,-14.0,0.325
-6.0,-16.0,0.326
-3.0,-13.0,0.327
-2.0,-2.0,0.328
-9.0,11.0,0.329
-20.0,12.0,0.33
-19.0,5.0,0.331
-4.0,0.0,0.332
10.0,3.0,0.333
13.0,0.0,0.334
16.0,-6.0,0.335
25.0,-9.0,0.336
35.0,-4.0,0.337
38.0,2.0,0.338
39.0,5.0,0.339
40.0,2.0,0.34
40.0,-4.0,0.341
40.0,-10.0,0.342
50.0,-13.0,0.343
66.0,-9.0,0.344
68.0,-1.0,0.345
51.0,3.0,0.346
29.0,1.0,0.347
19.0,2.0,0.348
14.0,6.0,0.349
0.0,7.0,0.35
-14.0,7.0,0.351
-19.0,8.0,0.352
-20.0,9.0,0.353
-24.0,5.0,0.354
-28.0,2.0,0.355
-23.0,3.0,0.356
-13.0,7.0,0.357
-4.0,3.0,0.358
-2.0,-6.0,0.359
-4.0,-13.0,0.36
-11.0,-15.0,0.361
-23.0,-10.0,0.362
-31.0,-6.0,0.363
-32.0,-1.0,0.364
-29.0,3.0,0.365
-25.0,5.0,0.366
-16.0,4.0,0.367
2.0,5.0,0.368
18.0,7.0,0.369
16.0,8.0,0.37
4.0,5.0,0.371
2.0,2.0,0.372
12.0,2.0,0.373
15.0,0.0,0.374
-3.0,-6.0,0.375
-24.0,-9.0,0.376
-29.0,-6.0,0.377
-22.0,-3.0,0.378
-12.0,-5.0,0.379
-8.0,-9.0,0.38
-2.0,-10.0,0.381
2.0,-5.0,0.382
5.0,-2.0,0.383
8.0,1.0,0.384
12.0,5.0,0.385
15.0,11.0,0.386
20.0,15.0,0.387
35.0,14.0,0.388
65.0,9.0,0.389
96.0,3.0,0.39
105.0,-2.0,0.391
81.0,-3.0,0.392
34.0,-4.0,0.393
-13.0,-4.0,0.394
-38.0,-10.0,0.395
-44.0,-20.0,0.396
-42.0,-22.0,0.397
-52.0,-14.0,0.398
-67.0,-2.0,0.399
-79.0,2.0,0.4
-73.0,-6.0,0.401
-51.0,-11.0,0.402
-20.0,-8.0,0.403
10.0,0.0,0.404
32.0,3.0,0.405
47.0,4.0,0.406
57.0,7.0,0.407
61.0,8.0,0.408
50.0,3.0,0.409
19.0,-3.0,0.41
-20.0,-4.0,0.411
-51.0,-1.0,0.412
-61.0,0.0,0.413
-54.0,0.0,0.414
-36.0,6.0,0.415
-21.0,12.0,0.416
-13.0,13.0,0.417
-13.0,6.0,0.418
-9.0,-2.0,0.419
3.0,-8.0,0.42
20.0,-20.0,0.421
34.0,-24.0,0.422
45.0,-14.0,0.423
52.0,1.0,0.424
53.0,12.0,0.425
46.0,12.0,0.426
44.0,9.0,0.427
52.0,8.0,0.428
63.0,5.0,0.429
56.0,3.0,0.43
24.0,3.0,0.431
-13.0,4.0,0.432
-31.0,-1.0,0.433
-27.0,-9.0,0.434
-20.0,-10.0,0.435
-25.0,-4.0,0.436
-35.0,-3.0,0.437
-37.0,-10.0,0.438
-31.0,-14.0,0.439
-28.0,-6.0,0.44
-32.0,2.0,0.441
-35.0,2.0,0.442
-24.0,-6.0,0.443
-9.0,-7.0,0.444
-3.0,2.0,0.445
-5.0,11.0,0.446
-4.0,10.0,0.447
5.0,4.0,0.448
14.0,-2.0,0.449
18.0,0.0,0.45
24.0,8.0,0.451
32.0,13.0,0.452
35.0,7.0,0.453
30.0,-3.0,0.454
25.0,-10.0,0.455
26.0,-8.0,0.456
29.0,-5.0,0.457
27.0,-2.0,0.458
21.0,1.0,0.459
12.0,4.0,0.46
1.0,-2.0,0.461
0.0,-7.0,0.462
15.0,-10.0,0.463
31.0,-9.0,0.464
29.0,-11.0,0.465
12.0,-15.0,0.466
1.0,-17.0,0.467
6.0,-9.0,0.468
18.0,0.0,0.469
17.0,5.0,0.47
2.0,6.0,0.471
-15.0,6.0,0.472
-22.0,10.0,0.473
-13.0,14.0,0.474
1.0,16.0,0.475
2.0,15.0,0.476
-5.0,15.0,0.477
-9.0,12.0,0.478
-6.0,8.0,0.479
-3.0,1.0,0.48
2.0,-7.0,0.481
10.0,-12.0,0.482
20.0,-12.0,0.483
31.0,-8.0,0.484
37.0,-4.0,0.485
42.0,-3.0,0.486
41.0,-1.0,0.487
39.0,5.0,0.488
37.0,12.0,0.489
33.0,12.0,0.49
24.0,6.0,0.491
18.0,-1.0,0.492
18.0,-3.0,0.493
16.0,-2.0,0.494
13.0,0.0,0.495
12.0,5.0,0.496
9.0,10.0,0.497
-2.0,10.0,0.498
0.0,6.0,0.499
2.0,3.0,0.5
6.0,-1.0,0.501
12.0,-3.0,0.502
20.0,-6.0,0.503
28.0,-8.0,0.504
32.0,-9.0,0.505
36.0,-11.0,0.506
35.0,-12.0,0.507
34.0,-4.0,0.508
32.0,6.0,0.509
29.0,9.0,0.51
23.0,2.0,0.511
18.0,-7.0,0.512
18.0,-9.0,0.513
16.0,-6.0,0.514
14.0,0.0,0.515
13.0,0.0,0.516
11.0,-2.0,0.517
10.0,-4.0,0.518
11.0,-1.0,0.519
16.0,1.0,0.52
26.0,-3.0,0.521
35.0,-7.0,0.522
39.0,-11.0,0.523
33.0,-12.0,0.524
22.0,-2.0,0.525
9.0,5.0,0.526
-1.0,2.0,0.527
-9.0,0.0,0.528
-18.0,-1.0,0.529
-26.0,-1.0,0.53
-32.0,0.0,0.531
-32.0,3.0,0.532
-26.0,2.0,0.533
-19.0,1.0,0.534
-11.0,0.0,0.535
0.0,-1.0,0.536
11.0,3.0,0.537
23.0,5.0,0.538
34.0,-2.0,0.539
32.0,-7.0,0.54
20.0,-9.0,0.541
5.0,-6.0,0.542
0.0,-4.0,0.543
3.0,-3.0,0.544
0.0,2.0,0.545
-14.0,7.0,0.546
-27.0,7.0,0.547
-32.0,3.0,0.548
-30.0,-2.0,0.549
-26.0,-5.0,0.55
-19.0,-9.0,0.551
-10.0,-11.0,0.552
1.0,-10.0,0.553
5.0,-7.0,0.554
6.0,-3.0,0.555
9.0,-3.0,0.556
22.0,-3.0,0.557
36.0,-5.0,0.558
40.0,-4.0,0.559
40.0,-1.0,0.56
26.0,-2.0,0.561
15.0,-1.0,0.562
13.0,0.0,0.563
8.0,2.0,0.564
-9.0,5.0,0.565
-23.0,4.0,0.566
-30.0,0.0,0.567
-36.0,-6.0,0.568
-36.0,-8.0,0.569
-36.0,-5.0,0.57
-30.0,-2.0,0.571
-22.0,-3.0,0.572
-7.0,-4.0,0.573
4.0,-2.0,0.574
7.0,2.0,0.575
10.0,2.0,0.576
12.0,2.0,0.577
14.0,0.0,0.578
15.0,3.0,0.579
16.0,6.0,0.58
20.0,6.0,0.581
23.0,5.0,0.582
27.0,8.0,0.583
29.0,10.0,0.584
29.0,8.0,0.585
23.0,6.0,0.586
20.0,4.0,0.587
20.0,1.0,0.588
19.0,-8.0,0.589
10.0,-15.0,0.59
3.0,-11.0,0.591
0.0,-8.0,0.592
-3.0,-6.0,0.593
-13.0,-5.0,0.594
-26.0,-5.0,0.595
-32.0,-4.0,0.596
-29.0,-4.0,0.597
-28.0,-2.0,0.598
-27.0,0.0,0.599
-24.0,0.0,0.6
-18.0,-5.0,0.601
-11.0,-6.0,0.602
2.0,-1.0,0.603
22.0,5.0,0.604
35.0,9.0,0.605
35.0,9.0,0.606
28.0,6.0,0.607
27.0,6.0,0.608
31.0,8.0,0.609
25.0,9.0,0.61
10.0,9.0,0.611
-4.0,6.0,0.612
-12.0,3.0,0.613
-17.0,1.0,0.614
-20.0,0.0,0.615
-19.0,-2.0,0.616
-16.0,-2.0,0.617
-14.0,-8.0,0.618
-14.0,-13.0,0.619
-14.0,-15.0,0.62
-8.0,-13.0,0.621
-1.0,-8.0,0.622
7.0,-5.0,0.623
14.0,-3.0,0.624
18.0,0.0,0.625
25.0,4.0,0.626
46.0,5.0,0.627
75.0,2.0,0.628
91.0,-1.0,0.629
84.0,-2.0,0.63
64.0,-2.0,0.631
41.0,-3.0,0.632
12.0,-4.0,0.633
-23.0,-1.0,0.634
-53.0,1.0,0.635
-71.0,-3.0,0.636
-78.0,-6.0,0.637
-84.0,-6.0,0.638
-82.0,-1.0,0.639
-69.0,0.0,0.64
-46.0,-5.0,0.641
-24.0,-5.0,0.642
-11.0,3.0,0.643
-7.0,7.0,0.644
-9.0,7.0,0.645
-7.0,6.0,0.646
0.0,10.0,0.647
4.0,14.0,0.648
-2.0,14.0,0.649
-14.0,12.0,0.65
-18.0,14.0,0.651
-8.0,20.0,0.652
5.0,22.0,0.653
15.0,18.0,0.654
19.0,7.0,0.655
21.0,-5.0,0.656
23.0,-18.0,0.657
22.0,-33.0,0.658
25.0,-45.0,0.659
28.0,-51.0,0.66
25.0,-46.0,0.661
21.0,-29.0,0.662
24.0,-12.0,0.663
37.0,-4.0,0.664
46.0,0.0,0.665
42.0,4.0,0.666
36.0,8.0,0.667
36.0,9.0,0.668
37.0,7.0,0.669
32.0,8.0,0.67
21.0,10.0,0.671
11.0,9.0,0.672
1.0,9.0,0.673
-10.0,11.0,0.674
-22.0,12.0,0.675
-26.0,8.0,0.676
-22.0,2.0,0.677
-18.0,0.0,0.678
-18.0,0.0,0.679
-17.0,1.0,0.68
-10.0,-1.0,0.681
2.0,0.0,0.682
18.0,6.0,0.683
25.0,12.0,0.684
21.0,14.0,0.685
11.0,13.0,0.686
3.0,10.0,0.687
3.0,5.0,0.688
0.0,4.0,0.689
-10.0,6.0,0.69
-16.0,8.0,0.691
-14.0,5.0,0.692
-9.0,-1.0,0.693
-6.0,-5.0,0.694
-3.0,-8.0,0.695
4.0,-16.0,0.696
10.0,-26.0,0.697
4.0,-32.0,0.698
0.0,-29.0,0.699
-1.0,-19.0,0.7
0.0,-16.0,0.701
-1.0,-15.0,0.702
-4.0,-11.0,0.703
-6.0,0.0,0.704
-9.0,12.0,0.705
-9.0,16.0,0.706
-1.0,7.0,0.707
15.0,-1.0,0.708
25.0,1.0,0.709
23.0,8.0,0.71
13.0,8.0,0.711
5.0,5.0,0.712
2.0,2.0,0.713
-4.0,0.0,0.714
-16.0,0.0,0.715
-25.0,1.0,0.716
-33.0,4.0,0.717
-40.0,6.0,0.718
-40.0,4.0,0.719
-38.0,2.0,0.72
-28.0,0.0,0.721
-18.0,0.0,0.722
-7.0,-1.0,0.723
4.0,-3.0,0.724
15.0,-3.0,0.725
23.0,-2.0,0.726
18.0,-1.0,0.727
14.0,-2.0,0.728
18.0,0.0,0.729
20.0,4.0,0.73
14.0,5.0,0.731
8.0,5.0,0.732
-1.0,4.0,0.733
-7.0,6.0,0.734
-4.0,6.0,0.735
1.0,1.0,0.736
10.0,-4.0,0.737
16.0,-6.0,0.738
8.0,-4.0,0.739
4.0,-2.0,0.74
7.0,-4.0,0.741
12.0,-6.0,0.742
15.0,-2.0,0.743
18.0,3.0,0.744
19.0,8.0,0.745
17.0,11.0,0.746
14.0,5.0,0.747
17.0,0.0,0.748
22.0,1.0,0.749
24.0,3.0,0.75
22.0,3.0,0.751
23.0,0.0,0.752
24.0,-7.0,0.753
22.0,-13.0,0.754
20.0,-16.0,0.755
13.0,-17.0,0.756
4.0,-11.0,0.757
-9.0,-5.0,0.758
-19.0,-6.0,0.759
-27.0,-7.0,0.76
-29.0,-6.0,0.761
-27.0,-2.0,0.762
-16.0,1.0,0.763
-3.0,3.0,0.764
0.0,4.0,0.765
-1.0,7.0,0.766
0.0,6.0,0.767
8.0,3.0,0.768
14.0,3.0,0.769
11.0,7.0,0.77
4.0,10.0,0.771
1.0,9.0,0.772
1.0,7.0,0.773
4.0,8.0,0.774
10.0,7.0,0.775
13.0,5.0,0.776
12.0,2.0,0.777
6.0,-3.0,0.778
3.0,-9.0,0.779
-1.0,-14.0,0.78
-5.0,-19.0,0.781
-7.0,-17.0,0.782
-1.0,-16.0,0.783
7.0,-16.0,0.784
8.0,-14.0,0.785
2.0,-8.0,0.786
1.0,-3.0,0.787
2.0,-1.0,0.788
0.0,0.0,0.789
-6.0,4.0,0.79
-4.0,6.0,0.791
5.0,2.0,0.792
16.0,-1.0,0.793
21.0,1.0,0.794
24.0,3.0,0.795
22.0,0.0,0.796
17.0,-1.0,0.797
3.0,0.0,0.798
-6.0,4.0,0.799
-13.0,1.0,0.8
-20.0,-6.0,0.801
-28.0,-7.0,0.802
-30.0,-3.0,0.803
-19.0,-1.0,0.804
-5.0,3.0,0.805
1.0,7.0,0.806
2.0,6.0,0.807
5.0,1.0,0.808
9.0,0.0,0.809
5.0,5.0,0.81
-2.0,9.0,0.811
-7.0,7.0,0.812
-6.0,6.0,0.813
0.0,6.0,0.814
3.0,4.0,0.815
2.0,0.0,0.816
1.0,-1.0,0.817
1.0,1.0,0.818
3.0,4.0,0.819
2.0,2.0,0.82
1.0,-5.0,0.821
2.0,-11.0,0.822
10.0,-18.0,0.823
17.0,-22.0,0.824
17.0,-16.0,0.825
13.0,-6.0,0.826
8.0,1.0,0.827
6.0,2.0,0.828
2.0,3.0,0.829
-5.0,5.0,0.83
-7.0,3.0,0.831
-2.0,-4.0,0.832
4.0,-9.0,0.833
4.0,-4.0,0.834
1.0,0.0,0.835
0.0,-2.0,0.836
2.0,-6.0,0.837
3.0,-4.0,0.838
3.0,1.0,0.839
-1.0,0.0,0.84
-5.0,-8.0,0.841
-12.0,-9.0,0.842
-11.0,-1.0,0.843
-4.0,10.0,0.844
1.0,14.0,0.845
1.0,15.0,0.846
-2.0,14.0,0.847
0.0,11.0,0.848
6.0,9.0,0.849
9.0,7.0,0.85
8.0,2.0,0.851
11.0,-3.0,0.852
13.0,-5.0,0.853
14.0,-3.0,0.854
12.0,-2.0,0.855
12.0,-5.0,0.856
15.0,-2.0,0.857
15.0,5.0,0.858
14.0,11.0,0.859
8.0,7.0,0.86
-2.0,-5.0,0.861
-7.0,-12.0,0.862
-2.0,-14.0,0.863
3.0,-11.0,0.864
0.0,-4.0,0.865
-9.0,0.0,0.866
-13.0,0.0,0.867
-6.0,-3.0,0.868
0.0,-1.0,0.869
1.0,12.0,0.87
7.0,19.0,0.871
21.0,10.0,0.872
29.0,-5.0,0.873
25.0,-10.0,0.874
18.0,-4.0,0.875
13.0,1.0,0.876
6.0,5.0,0.877
-6.0,11.0,0.878
-14.0,18.0,0.879
-23.0,17.0,0.88
-31.0,5.0,0.881
-35.0,-5.0,0.882
-25.0,-7.0,0.883
-17.0,-4.0,0.884
-12.0,-4.0,0.885
-7.0,-8.0,0.886
-5.0,-9.0,0.887
-1.0,-8.0,0.888
4.0,-7.0,0.889
9.0,-8.0,0.89
11.0,-9.0,0.891
15.0,-9.0,0.892
27.0,-5.0,0.893
37.0,0.0,0.894
45.0,4.0,0.895
50.0,4.0,0.896
46.0,3.0,0.897
36.0,0.0,0.898
9.0,-3.0,0.899
-9.0,-6.0,0.9
-22.0,-8.0,0.901
-34.0,-5.0,0.902
-37.0,-2.0,0.903
-22.0,-5.0,0.904
-3.0,-9.0,0.905
1.0,-8.0,0.906
-7.0,-5.0,0.907
-14.0,-5.0,0.908
-7.0,-4.0,0.909
1.0,-1.0,0.91
1.0,4.0,0.911
-2.0,7.0,0.912
-1.0,9.0,0.913
3.0,11.0,0.914
3.0,10.0,0.915
0.0,7.0,0.916
-3.0,8.0,0.917
-3.0,8.0,0.918
0.0,6.0,0.919
-1.0,1.0,0.92
-5.0,-4.0,0.921
-9.0,-5.0,0.922
-5.0,-6.0,0.923
4.0,-7.0,0.924
13.0,-6.0,0.925
16.0,-7.0,0.926
17.0,-8.0,0.927
20.0,-11.0,0.928
16.0,-8.0,0.929
6.0,-1.0,0.93
0.0,4.0,0.931
4.0,4.0,0.932
8.0,2.0,0.933
6.0,1.0,0.934
2.0,-2.0,0.935
7.0,-9.0,0.936
16.0,-12.0,0.937
16.0,-15.0,0.938
6.0,-15.0,0.939
-5.0,-14.0,0.94
-10.0,-10.0,0.941
-7.0,0.0,0.942
-2.0,10.0,0.943
0.0,14.0,0.944
0.0,16.0,0.945
-2.0,14.0,0.946
1.0,8.0,0.947
5.0,-1.0,0.948
6.0,-7.0,0.949
5.0,-6.0,0.95
9.0,-5.0,0.951
22.0,-5.0,0.952
34.0,-2.0,0.953
37.0,4.0,0.954
30.0,12.0,0.955
16.0,9.0,0.956
2.0,2.0,0.957
-10.0,-5.0,0.958
-14.0,-9.0,0.959
-13.0,-8.0,0.96
-9.0,-7.0,0.961
-7.0,-4.0,0.962
-7.0,-4.0,0.963
-9.0,-9.0,0.964
-11.0,-10.0,0.965
-9.0,-6.0,0.966
-7.0,-3.0,0.967
-8.0,-4.0,0.968
-13.0,0.0,0.969
-15.0,12.0,0.97
-7.0,22.0,0.971
8.0,19.0,0.972
16.0,10.0,0.973
9.0,5.0,0.974
-2.0,6.0,0.975
-3.0,6.0,0.976
4.0,5.0,0.977
12.0,1.0,0.978
12.0,-2.0,0.979
11.0,-5.0,0.98
9.0,-9.0,0.981
6.0,-11.0,0.982
8.0,-11.0,0.983
14.0,-13.0,0.984
14.0,-9.0,0.985
4.0,-2.0,0.986
-10.0,5.0,0.987
-17.0,5.0,0.988
-21.0,2.0,0.989
-26.0,4.0,0.99
-28.0,10.0,0.991
-19.0,11.0,0.992
-10.0,5.0,0.993
-7.0,0.0,0.994
-4.0,-2.0,0.995
7.0,-3.0,0.996
19.0,-2.0,0.997
21.0,-2.0,0.998
17.0,0.0,0.999
15.0,-1.0,1.0
16.0,-9.0,1.001
15.0,-12.0,1.002
12.0,-6.0,1.003
13.0,6.0,1.004
15.0,14.0,1.005
11.0,13.0,1.006
5.0,5.0,1.007
1.0,-2.0,1.008
3.0,-6.0,1.009
5.0,-10.0,1.01
7.0,-14.0,1.011
9.0,-19.0,1.012
11.0,-18.0,1.013
10.0,-11.0,1.014
9.0,-5.0,1.015
9.0,-3.0,1.016
9.0,0.0,1.017
3.0,-1.0,1.018
-1.0,2.0,1.019
0.0,5.0,1.02
1.0,3.0,1.021
0.0,3.0,1.022
3.0,6.0,1.023
9.0,12.0,1.024
11.0,16.0,1.025
4.0,11.0,1.026
-3.0,-1.0,1.027
0.0,-8.0,1.028
6.0,-7.0,1.029
6.0,0.0,1.03
0.0,1.0,1.031
-3.0,0.0,1.032
-2.0,0.0,1.033
2.0,3.0,1.034
1.0,3.0,1.035
-3.0,0.0,1.036
-7.0,2.0,1.037
-7.0,4.0,1.038
-4.0,0.0,1.039
-2.0,-7.0,1.04
-2.0,-10.0,1.041
-1.0,-2.0,1.042
2.0,7.0,1.043
8.0,6.0,1.044
8.0,1.0,1.045
1.0,0.0,1.046
-1.0,-1.0,1.047
2.0,-3.0,1.048
7.0,-4.0,1.049
7.0,-3.0,1.05
8.0,-6.0,1.051
9.0,-11.0,1.052
7.0,-8.0,1.053
-1.0,2.0,1.054
-7.0,8.0,1.055
-4.0,4.0,1.056
5.0,-2.0,1.057
6.0,-3.0,1.058
2.0,-3.0,1.059
-3.0,-3.0,1.06
-6.0,-6.0,1.061
-6.0,-7.0,1.062
0.0,-6.0,1.063
12.0,-5.0,1.064
19.0,2.0,1.065
14.0,8.0,1.066
5.0,3.0,1.067
3.0,-8.0,1.068
7.0,-11.0,1.069
3.0,-2.0,1.07
-2.0,9.0,1.071
-2.0,12.0,1.072
2.0,7.0,1.073
0.0,0.0,1.074
-3.0,-3.0,1.075
-4.0,-1.0,1.076
-1.0,3.0,1.077
-5.0,3.0,1.078
-9.0,2.0,1.079
-11.0,-1.0,1.08
-9.0,-6.0,1.081
-6.0,-5.0,1.082
-1.0,-3.0,1.083
10.0,0.0,1.084
18.0,3.0,1.085
15.0,4.0,1.086
6.0,5.0,1.087
3.0,2.0,1.088
5.0,0.0,1.089
2.0,-2.0,1.09
-1.0,-2.0,1.091
-2.0,-1.0,1.092
1.0,-2.0,1.093
1.0,-4.0,1.094
0.0,-6.0,1.095
4.0,-5.0,1.096
13.0,-3.0,1.097
13.0,-3.0,1.098
9.0,-6.0,1.099
5.0,-9.0,1.1
6.0,-12.0,1.101
8.0,-9.0,1.102
6.0,-3.0,1.103
5.0,4.0,1.104
4.0,8.0,1.105
1.0,6.0,1.106
-5.0,3.0,1.107
-11.0,2.0,1.108
-9.0,2.0,1.109
-8.0,1.0,1.11
-9.0,-1.0,1.111
-8.0,-1.0,1.112
-2.0,0.0,1.113
2.0,0.0,1.114
0.0,-2.0,1.115
0.0,-2.0,1.116
1.0,1.0,1.117
5.0,5.0,1.118
4.0,5.0,1.119
0.0,3.0,1.12
-1.0,-1.0,1.121
1.0,-4.0,1.122
7.0,1.0,1.123
15.0,5.0,1.124
18.0,7.0,1.125
13.0,7.0,1.126
6.0,1.0,1.127
6.0,-4.0,1.128
13.0,-6.0,1.129
16.0,-8.0,1.13
14.0,-8.0,1.131
9.0,-9.0,1.132
6.0,-7.0,1.133
2.0,-5.0,1.134
0.0,-1.0,1.135
-2.0,1.0,1.136
-3.0,0.0,1.137
-6.0,-2.0,1.138
-3.0,-4.0,1.139
6.0,-5.0,1.14
17.0,-5.0,1.141
24.0,-2.0,1.142
29.0,0.0,1.143
29.0,0.0,1.144
24.0,3.0,1.145
12.0,5.0,1.146
-4.0,0.0,1.147
-17.0,-7.0,1.148
-31.0,-5.0,1.149
-50.0,5.0,1.15
-60.0,11.0,1.151
-52.0,4.0,1.152
-33.0,-3.0,1.153
-19.0,2.0,1.154
-16.0,9.0,1.155
-8.0,5.0,1.156
10.0,-5.0,1.157
26.0,-10.0,1.158
29.0,-6.0,1.159
20.0,-2.0,1.16
13.0,-5.0,1.161
13.0,-3.0,1.162
15.0,4.0,1.163
16.0,10.0,1.164
12.0,14.0,1.165
7.0,15.0,1.166
7.0,14.0,1.167
17.0,10.0,1.168
32.0,4.0,1.169
44.0,-2.0,1.17
41.0,-9.0,1.171
27.0,-17.0,1.172
10.0,-23.0,1.173
-3.0,-21.0,1.174
-11.0,-16.0,1.175
-19.0,-10.0,1.176
-22.0,-2.0,1.177
-20.0,2.0,1.178
-14.0,-1.0,1.179
-11.0,-6.0,1.18
-17.0,-7.0,1.181
-20.0,-1.0,1.182
-13.0,5.0,1.183
-6.0,6.0,1.184
0.0,4.0,1.185
4.0,4.0,1.186
7.0,2.0,1.187
10.0,0.0,1.188
12.0,2.0,1.189
14.0,6.0,1.19
10.0,8.0,1.191
6.0,5.0,1.192
2.0,1.0,1.193
0.0,1.0,1.194
8.0,6.0,1.195
17.0,9.0,1.196
31.0,8.0,1.197
43.0,3.0,1.198
38.0,-2.0,1.199
22.0,-7.0,1.2
13.0,-11.0,1.201
12.0,-14.0,1.202
11.0,-9.0,1.203
0.0,-4.0,1.204
-14.0,0.0,1.205
-23.0,3.0,1.206
-23.0,5.0,1.207
-20.0,7.0,1.208
-19.0,5.0,1.209
-21.0,4.0,1.21
-27.0,4.0,1.211
-28.0,4.0,1.212
-20.0,0.0,1.213
-6.0,-3.0,1.214
3.0,-3.0,1.215
5.0,-4.0,1.216
6.0,-5.0,1.217
10.0,-4.0,1.218
16.0,2.0,1.219
11.0,3.0,1.22
0.0,-3.0,1.221
-5.0,-9.0,1.222
1.0,-10.0,1.223
14.0,-8.0,1.224
20.0,-4.0,1.225
15.0,1.0,1.226
8.0,0.0,1.227
3.0,-7.0,1.228
0.0,-10.0,1.229
1.0,-9.0,1.23
9.0,-4.0,1.231
16.0,-3.0,1.232
12.0,-2.0,1.233
1.0,1.0,1.234
-2.0,1.0,1.235
2.0,-2.0,1.236
10.0,-2.0,1.237
7.0,3.0,1.238
1.0,5.0,1.239
-4.0,0.0,1.24
-3.0,-8.0,1.241
1.0,0.0,1.242
9.0,11.0,1.243
16.0,10.0,1.244
24.0,0.0,1.245
36.0,-3.0,1.246
45.0,3.0,1.247
41.0,8.0,1.248
23.0,7.0,1.249
3.0,2.0,1.25
-2.0,1.0,1.251
2.0,1.0,1.252
5.0,-2.0,1.253
1.0,-5.0,1.254
-2.0,-1.0,1.255
-10.0,4.0,1.256
-24.0,6.0,1.257
-42.0,0.0,1.258
-51.0,-3.0,1.259
-46.0,-2.0,1.26
-42.0,-6.0,1.261
-39.0,-8.0,1.262
-30.0,-7.0,1.263
-17.0,-1.0,1.264
-12.0,1.0,1.265
-14.0,-2.0,1.266
-8.0,-4.0,1.267
6.0,-3.0,1.268
20.0,-2.0,1.269
32.0,1.0,1.27
45.0,5.0,1.271
52.0,7.0,1.272
45.0,4.0,1.273
27.0,-2.0,1.274
19.0,-3.0,1.275
25.0,-1.0,1.276
30.0,0.0,1.277
21.0,-6.0,1.278
6.0,-9.0,1.279
-8.0,-7.0,1.28
-16.0,-7.0,1.281
-18.0,-5.0,1.282
-10.0,-3.0,1.283
-2.0,-3.0,1.284
-1.0,-4.0,1.285
-11.0,-2.0,1.286
-19.0,0.0,1.287
-20.0,1.0,1.288
-16.0,0.0,1.289
-6.0,0.0,1.29
9.0,-1.0,1.291
22.0,-4.0,1.292
24.0,-5.0,1.293
21.0,-3.0,1.294
22.0,-2.0,1.295
24.0,0.0,1.296
20.0,3.0,1.297
6.0,7.0,1.298
-4.0,9.0,1.299
-13.0,4.0,1.3
-14.0,-2.0,1.301
-12.0,-3.0,1.302
1.0,-2.0,1.303
9.0,-1.0,1.304
0.0,0.0,1.305
-7.0,4.0,1.306
-3.0,5.0,1.307
-1.0,0.0,1.308
-5.0,-1.0,1.309
-7.0,3.0,1.31
0.0,11.0,1.311
5.0,12.0,1.312
7.0,10.0,1.313
10.0,8.0,1.314
14.0,4.0,1.315
16.0,-2.0,1.316
10.0,-5.0,1.317
4.0,-5.0,1.318
0.0,-6.0,1.319
2.0,-8.0,1.32
4.0,-9.0,1.321
12.0,-8.0,1.322
24.0,1.0,1.323
25.0,9.0,1.324
7.0,7.0,1.325
-15.0,5.0,1.326
-20.0,1.0,1.327
-16.0,-3.0,1.328
-19.0,-8.0,1.329
-27.0,-12.0,1.33
-25.0,-10.0,1.331
-13.0,-8.0,1.332
-7.0,-6.0,1.333
-6.0,-5.0,1.334
-1.0,-5.0,1.335
9.0,-4.0,1.336
15.0,-4.0,1.337
12.0,-3.0,1.338
8.0,-2.0,1.339
4.0,-3.0,1.34
1.0,-5.0,1.341
3.0,-3.0,1.342
11.0,-1.0,1.343
20.0,-3.0,1.344
22.0,-3.0,1.345
17.0,-2.0,1.346
11.0,-3.0,1.347
9.0,-8.0,1.348
7.0,-9.0,1.349
8.0,-2.0,1.35
8.0,4.0,1.351
9.0,5.0,1.352
9.0,4.0,1.353
9.0,8.0,1.354
12.0,10.0,1.355
15.0,3.0,1.356
16.0,-6.0,1.357
15.0,-8.0,1.358
12.0,-2.0,1.359
5.0,0.0,1.36
-7.0,-5.0,1.361
-18.0,-5.0,1.362
-19.0,2.0,1.363
-14.0,7.0,1.364
-11.0,6.0,1.365
-15.0,4.0,1.366
-16.0,5.0,1.367
-10.0,5.0,1.368
-3.0,4.0,1.369
2.0,4.0,1.37
8.0,3.0,1.371
10.0,1.0,1.372
11.0,1.0,1.373
13.0,4.0,1.374
17.0,6.0,1.375
19.0,2.0,1.376
18.0,0.0,1.377
12.0,-1.0,1.378
1.0,0.0,1.379
-12.0,0.0,1.38
-22.0,-3.0,1.381
-27.0,-3.0,1.382
-25.0,-2.0,1.383
-17.0,1.0,1.384
-7.0,3.0,1.385
3.0,2.0,1.386
22.0,-4.0,1.387
45.0,-8.0,1.388
60.0,-5.0,1.389
54.0,0.0,1.39
32.0,1.0,1.391
10.0,-3.0,1.392
-7.0,-6.0,1.393
-22.0,-1.0,1.394
-33.0,2.0,1.395
-38.0,-1.0,1.396
-32.0,-3.0,1.397
-20.0,-3.0,1.398
-11.0,0.0,1.399
-9.0,0.0,1.4
-8.0,-7.0,1.401
1.0,-8.0,1.402
22.0,-5.0,1.403
40.0,0.0,1.404
40.0,6.0,1.405
20.0,9.0,1.406
0.0,10.0,1.407
-10.0,7.0,1.408
-17.0,0.0,1.409
-25.0,-4.0,1.41
-28.0,-2.0,1.411
-24.0,2.0,1.412
-15.0,3.0,1.413
-4.0,0.0,1.414
6.0,-2.0,1.415
18.0,-3.0,1.416
26.0,-2.0,1.417
29.0,-6.0,1.418
29.0,-9.0,1.419
26.0,-9.0,1.42
16.0,-10.0,1.421
1.0,-9.0,1.422
-3.0,-6.0,1.423
6.0,-3.0,1.424
10.0,3.0,1.425
4.0,9.0,1.426
2.0,11.0,1.427
10.0,8.0,1.428
16.0,5.0,1.429
9.0,5.0,1.43
-2.0,5.0,1.431
-6.0,1.0,1.432
-6.0,-5.0,1.433
-2.0,-5.0,1.434
7.0,0.0,1.435
19.0,3.0,1.436
25.0,2.0,1.437
19.0,0.0,1.438
7.0,0.0,1.439
-7.0,-2.0,1.44
-16.0,-9.0,1.441
-17.0,-10.0,1.442
-6.0,-5.0,1.443
4.0,1.0,1.444
4.0,3.0,1.445
-4.0,3.0,1.446
-6.0,0.0,1.447
0.0,-4.0,1.448
4.0,-9.0,1.449
4.0,-8.0,1.45
6.0,-2.0,1.451
10.0,1.0,1.452
10.0,0.0,1.453
7.0,-3.0,1.454
5.0,-3.0,1.455
7.0,2.0,1.456
10.0,8.0,1.457
-3.0,5.0,1.458
-5.0,-2.0,1.459
-7.0,-8.0,1.46
-7.0,-13.0,1.461
-5.0,-10.0,1.462
0.0,-6.0,1.463
8.0,-2.0,1.464
16.0,0.0,1.465
21.0,-2.0,1.466
17.0,-3.0,1.467
10.0,-2.0,1.468
1.0,3.0,1.469
-5.0,5.0,1.47
-7.0,3.0,1.471
-9.0,1.0,1.472
-10.0,3.0,1.473
-12.0,6.0,1.474
-15.0,5.0,1.475
-16.0,2.0,1.476
-10.0,4.0,1.477
-7.0,1.0,1.478
-12.0,-3.0,1.479
-17.0,-6.0,1.48
-17.0,-5.0,1.481
-12.0,1.0,1.482
5.0,3.0,1.483
24.0,2.0,1.484
45.0,4.0,1.485
58.0,9.0,1.486
46.0,10.0,1.487
30.0,4.0,1.488
7.0,0.0,1.489
-12.0,0.0,1.49
-17.0,2.0,1.491
-22.0,1.0,1.492
-24.0,0.0,1.493
-28.0,-2.0,1.494
-36.0,-5.0,1.495
-38.0,-9.0,1.496
-24.0,-8.0,1.497
-7.0,-6.0,1.498
5.0,-6.0,1.499
10.0,-7.0,1.5
16.0,-11.0,1.501
24.0,-12.0,1.502
26.0,-6.0,1.503
23.0,-1.0,1.504
19.0,4.0,1.505
16.0,8.0,1.506
13.0,9.0,1.507
8.0,10.0,1.508
4.0,9.0,1.509
3.0,8.0,1.51
4.0,8.0,1.511
5.0,6.0,1.512
12.0,0.0,1.513
18.0,-5.0,1.514
18.0,-11.0,1.515
10.0,-16.0,1.516
5.0,-14.0,1.517
5.0,-10.0,1.518
5.0,-5.0,1.519
0.0,-4.0,1.52
-7.0,-6.0,1.521
-8.0,-5.0,1.522
-5.0,1.0,1.523
-4.0,5.0,1.524
-2.0,5.0,1.525
3.0,3.0,1.526
14.0,1.0,1.527
24.0,-1.0,1.528
27.0,0.0,1.529
19.0,3.0,1.53
2.0,7.0,1.531
-14.0,4.0,1.532
-19.0,1.0,1.533
-17.0,2.0,1.534
-16.0,6.0,1.535
-18.0,6.0,1.536
-16.0,3.0,1.537
-10.0,0.0,1.538
-8.0,0.0,1.539
-7.0,-1.0,1.54
-8.0,-6.0,1.541
-6.0,-5.0,1.542
7.0,-3.0,1.543
18.0,-2.0,1.544
16.0,-3.0,1.545
14.0,-2.0,1.546
11.0,0.0,1.547
10.0,0.0,1.548
16.0,-1.0,1.549
20.0,0.0,1.55
16.0,2.0,1.551
12.0,3.0,1.552
12.0,2.0,1.553
12.0,3.0,1.554
12.0,1.0,1.555
11.0,-4.0,1.556
5.0,-7.0,1.557
0.0,-10.0,1.558
0.0,-9.0,1.559
-4.0,-7.0,1.56
-10.0,-7.0,1.561
-13.0,-3.0,1.562
-7.0,0.0,1.563
-1.0,1.0,1.564
-2.0,2.0,1.565
-7.0,4.0,1.566
-9.0,3.0,1.567
-4.0,-1.0,1.568
-1.0,-3.0,1.569
-3.0,0.0,1.57
-5.0,4.0,1.571
-5.0,5.0,1.572
-3.0,4.0,1.573
-1.0,1.0,1.574
1.0,-1.0,1.575
6.0,-3.0,1.576
10.0,-2.0,1.577
9.0,-2.0,1.578
6.0,-7.0,1.579
2.0,-9.0,1.58
-1.0,-8.0,1.581
0.0,-4.0,1.582
9.0,-2.0,1.583
17.0,-3.0,1.584
15.0,-1.0,1.585
3.0,3.0,1.586
0.0,5.0,1.587
6.0,3.0,1.588
10.0,4.0,1.589
7.0,5.0,1.59
8.0,5.0,1.591
11.0,0.0,1.592
8.0,-4.0,1.593
0.0,-5.0,1.594
-2.0,-4.0,1.595
2.0,-3.0,1.596
6.0,-1.0,1.597
5.0,-1.0,1.598
7.0,-4.0,1.599
13.0,-5.0,1.6
17.0,-6.0,1.601
13.0,-5.0,1.602
8.0,-5.0,1.603
2.0,-2.0,1.604
-5.0,4.0,1.605
-12.0,7.0,1.606
-14.0,4.0,1.607
-11.0,-2.0,1.608
-9.0,-1.0,1.609
-11.0,4.0,1.61
-11.0,5.0,1.611
-8.0,1.0,1.612
-2.0,0.0,1.613
5.0,2.0,1.614
15.0,0.0,1.615
23.0,-3.0,1.616
33.0,-2.0,1.617
33.0,-3.0,1.618
26.0,-4.0,1.619
15.0,-7.0,1.62
-7.0,-8.0,1.621
-24.0,-4.0,1.622
-18.0,-2.0,1.623
-12.0,0.0,1.624
-6.0,2.0,1.625
-1.0,3.0,1.626
-2.0,2.0,1.627
-5.0,-2.0,1.628
-14.0,-3.0,1.629
-20.0,-1.0,1.63
-12.0,2.0,1.631
-5.0,1.0,1.632
-4.0,0.0,1.633
-3.0,0.0,1.634
-3.0,1.0,1.635
-2.0,0.0,1.636
0.0,0.0,1.637
0.0,0.0,1.638
-1.0,3.0,1.639
0.0,5.0,1.64
0.0,1.0,1.641
-2.0,-1.0,1.642
0.0,0.0,1.643
10.0,2.0,1.644
17.0,2.0,1.645
16.0,0.0,1.646
17.0,-2.0,1.647
27.0,-5.0,1.648
40.0,-5.0,1.649
45.0,-3.0,1.65
43.0,-1.0,1.651
34.0,0.0,1.652
16.0,-1.0,1.653
-6.0,-2.0,1.654
-21.0,-2.0,1.655
-23.0,-2.0,1.656
-21.0,-3.0,1.657
-24.0,-3.0,1.658
-22.0,-4.0,1.659
-20.0,-4.0,1.66
-17.0,-8.0,1.661
-15.0,-9.0,1.662
-10.0,-7.0,1.663
-3.0,-3.0,1.664
2.0,0.0,1.665
0.0,1.0,1.666
1.0,3.0,1.667
5.0,4.0,1.668
5.0,5.0,1.669
2.0,6.0,1.67
6.0,4.0,1.671
14.0,0.0,1.672
19.0,-4.0,1.673
23.0,-4.0,1.674
29.0,-1.0,1.675
28.0,2.0,1.676
19.0,4.0,1.677
3.0,0.0,1.678
-3.0,-4.0,1.679
-5.0,-7.0,1.68
-10.0,-11.0,1.681
-16.0,-11.0,1.682
-11.0,-7.0,1.683
-2.0,-2.0,1.684
-2.0,2.0,1.685
-6.0,4.0,1.686
-1.0,5.0,1.687
18.0,6.0,1.688
33.0,6.0,1.689
37.0,4.0,1.69
31.0,1.0,1.691
21.0,0.0,1.692
7.0,1.0,1.693
-8.0,3.0,1.694
-21.0,1.0,1.695
-27.0,-3.0,1.696
-28.0,-2.0,1.697
-27.0,-2.0,1.698
-23.0,-3.0,1.699
-15.0,-6.0,1.7
-10.0,-7.0,1.701
-9.0,-3.0,1.702
-5.0,-3.0,1.703
2.0,-4.0,1.704
14.0,-2.0,1.705
29.0,2.0,1.706
42.0,3.0,1.707
43.0,-1.0,1.708
30.0,-5.0,1.709
15.0,-3.0,1.71
10.0,0.0,1.711
14.0,3.0,1.712
15.0,3.0,1.713
10.0,0.0,1.714
7.0,1.0,1.715
1.0,6.0,1.716
-10.0,11.0,1.717
-26.0,8.0,1.718
-35.0,-2.0,1.719
-40.0,-10.0,1.72
-49.0,-12.0,1.721
-55.0,-6.0,1.722
-46.0,-2.0,1.723
-23.0,-3.0,1.724
-7.0,-2.0,1.725
-4.0,-2.0,1.726
0.0,-1.0,1.727
14.0,1.0,1.728
24.0,4.0,1.729
22.0,7.0,1.73
18.0,7.0,1.731
21.0,4.0,1.732
24.0,0.0,1.733
20.0,-4.0,1.734
15.0,-7.0,1.735
17.0,-7.0,1.736
22.0,-3.0,1.737
18.0,-1.0,1.738
10.0,-1.0,1.739
5.0,-2.0,1.74
4.0,-7.0,1.741
4.0,-9.0,1.742
8.0,-7.0,1.743
18.0,-2.0,1.744
23.0,2.0,1.745
18.0,3.0,1.746
13.0,1.0,1.747
14.0,-1.0,1.748
14.0,-2.0,1.749
12.0,1.0,1.75
12.0,9.0,1.751
19.0,14.0,1.752
24.0,9.0,1.753
16.0,0.0,1.754
0.0,-6.0,1.755
-10.0,-3.0,1.756
-13.0,0.0,1.757
-14.0,-1.0,1.758
-14.0,-2.0,1.759
-13.0,0.0,1.76
-12.0,-3.0,1.761
-13.0,-5.0,1.762
-16.0,-5.0,1.763
-17.0,-1.0,1.764
-15.0,1.0,1.765
-15.0,1.0,1.766
-13.0,1.0,1.767
-7.0,1.0,1.768
2.0,3.0,1.769
12.0,2.0,1.77
16.0,0.0,1.771
12.0,0.0,1.772
3.0,0.0,1.773
-4.0,2.0,1.774
-1.0,3.0,1.775
12.0,1.0,1.776
24.0,-1.0,1.777
20.0,-3.0,1.778
10.0,0.0,1.779
1.0,0.0,1.78
-1.0,-5.0,1.781
-3.0,-10.0,1.782
2.0,-13.0,1.783
7.0,-8.0,1.784
8.0,0.0,1.785
8.0,8.0,1.786
1.0,5.0,1.787
-2.0,-3.0,1.788
3.0,-8.0,1.789
7.0,-7.0,1.79
0.0,-2.0,1.791
-6.0,-2.0,1.792
-10.0,-5.0,1.793
-12.0,-3.0,1.794
-8.0,5.0,1.795
-3.0,10.0,1.796
0.0,12.0,1.797
4.0,4.0,1.798
10.0,-3.0,1.799
17.0,-3.0,1.8
19.0,-4.0,1.801
15.0,-4.0,1.802
11.0,-4.0,1.803
15.0,-4.0,1.804
19.0,0.0,1.805
13.0,3.0,1.806
5.0,-1.0,1.807
7.0,-5.0,1.808
16.0,-4.0,1.809
19.0,4.0,1.81
12.0,10.0,1.811
1.0,6.0,1.812
-8.0,0.0,1.813
-13.0,-3.0,1.814
-11.0,-3.0,1.815
-3.0,-4.0,1.816
0.0,-5.0,1.817
-4.0,-6.0,1.818
-11.0,-6.0,1.819
-16.0,-6.0,1.82
-16.0,-7.0,1.821
-14.0,-2.0,1.822
-3.0,3.0,1.823
13.0,5.0,1.824
17.0,5.0,1.825
3.0,5.0,1.826
-16.0,6.0,1.827
-19.0,9.0,1.828
-7.0,8.0,1.829
1.0,6.0,1.83
4.0,3.0,1.831
7.0,0.0,1.832
14.0,-1.0,1.833
16.0,-1.0,1.834
9.0,-2.0,1.835
0.0,-4.0,1.836
-1.0,-6.0,1.837
-1.0,-7.0,1.838
-4.0,-5.0,1.839
-10.0,-4.0,1.84
-14.0,-6.0,1.841
-11.0,-9.0,1.842
0.0,-10.0,1.843
14.0,-4.0,1.844
21.0,2.0,1.845
22.0,4.0,1.846
23.0,1.0,1.847
31.0,0.0,1.848
35.0,3.0,1.849
29.0,5.0,1.85
21.0,3.0,1.851
21.0,0.0,1.852
24.0,-2.0,1.853
20.0,-4.0,1.854
5.0,-8.0,1.855
-9.0,-7.0,1.856
-15.0,0.0,1.857
-16.0,4.0,1.858
-16.0,3.0,1.859
-16.0,-1.0,1.86
-16.0,-6.0,1.861
-16.0,-4.0,1.862
-14.0,-3.0,1.863
-7.0,0.0,1.864
0.0,3.0,1.865
3.0,4.0,1.866
6.0,3.0,1.867
11.0,3.0,1.868
15.0,4.0,1.869
17.0,4.0,1.87
10.0,2.0,1.871
1.0,0.0,1.872
-5.0,-2.0,1.873
-8.0,-6.0,1.874
-11.0,-9.0,1.875
-14.0,-7.0,1.876
-15.0,0.0,1.877
-14.0,4.0,1.878
-12.0,1.0,1.879
-11.0,-2.0,1.88
-13.0,-6.0,1.881
-14.0,-3.0,1.882
-9.0,1.0,1.883
-1.0,3.0,1.884
4.0,2.0,1.885
4.0,0.0,1.886
2.0,-2.0,1.887
8.0,0.0,1.888
16.0,2.0,1.889
21.0,3.0,1.89
23.0,0.0,1.891
22.0,0.0,1.892
21.0,2.0,1.893
25.0,4.0,1.894
28.0,0.0,1.895
26.0,-5.0,1.896
20.0,-8.0,1.897
12.0,-7.0,1.898
4.0,-7.0,1.899
-4.0,-7.0,1.9
-14.0,-11.0,1.901
-20.0,-11.0,1.902
-14.0,-6.0,1.903
-2.0,0.0,1.904
6.0,3.0,1.905
11.0,4.0,1.906
14.0,3.0,1.907
15.0,2.0,1.908
6.0,0.0,1.909
-9.0,0.0,1.91
-22.0,3.0,1.911
-25.0,4.0,1.912
-21.0,0.0,1.913
-12.0,-3.0,1.914
-3.0,-2.0,1.915
-3.0,2.0,1.916
-13.0,9.0,1.917
-28.0,9.0,1.918
-36.0,7.0,1.919
-33.0,1.0,1.92
-24.0,-5.0,1.921
-13.0,-5.0,1.922
0.0,-2.0,1.923
7.0,0.0,1.924
7.0,0.0,1.925
5.0,0.0,1.926
11.0,-2.0,1.927
21.0,-4.0,1.928
27.0,-4.0,1.929
25.0,-2.0,1.93
22.0,-1.0,1.931
22.0,-1.0,1.932
23.0,0.0,1.933
22.0,4.0,1.934
21.0,5.0,1.935
20.0,1.0,1.936
18.0,0.0,1.937
13.0,-1.0,1.938
8.0,-3.0,1.939
2.0,-6.0,1.94
-2.0,-9.0,1.941
-3.0,-5.0,1.942
4.0,-3.0,1.943
13.0,-2.0,1.944
16.0,1.0,1.945
14.0,4.0,1.946
18.0,5.0,1.947
28.0,3.0,1.948
35.0,6.0,1.949
26.0,9.0,1.95
7.0,7.0,1.951
-7.0,2.0,1.952
-17.0,-1.0,1.953
-24.0,-5.0,1.954
-29.0,-8.0,1.955
-27.0,-8.0,1.956
-20.0,-2.0,1.957
-16.0,1.0,1.958
-11.0,-1.0,1.959
-12.0,-3.0,1.96
-13.0,-4.0,1.961
-13.0,-3.0,1.962
-5.0,-3.0,1.963
7.0,-4.0,1.964
15.0,-2.0,1.965
17.0,2.0,1.966
21.0,3.0,1.967
29.0,5.0,1.968
32.0,7.0,1.969
25.0,6.0,1.97
12.0,2.0,1.971
-3.0,0.0,1.972
-16.0,3.0,1.973
-25.0,2.0,1.974
-26.0,-6.0,1.975
-17.0,-10.0,1.976
-9.0,-8.0,1.977
-8.0,-4.0,1.978
-12.0,-7.0,1.979
-17.0,-10.0,1.98
-17.0,-13.0,1.981
-8.0,-11.0,1.982
5.0,-10.0,1.983
16.0,-7.0,1.984
16.0,1.0,1.985
14.0,7.0,1.986
14.0,7.0,1.987
18.0,3.0,1.988
18.0,3.0,1.989
16.0,8.0,1.99
17.0,9.0,1.991
19.0,4.0,1.992
14.0,0.0,1.993
2.0,-1.0,1.994
-5.0,-2.0,1.995
-4.0,-4.0,1.996
-3.0,-6.0,1.997
-7.0,-7.0,1.998
-10.0,-5.0,1.999
-6.0,-3.0,2.0
2.0,-4.0,2.001
4.0,-3.0,2.002
6.0,0.0,2.003
11.0,5.0,2.004
10.0,7.0,2.005
3.0,6.0,2.006
0.0,2.0,2.007
3.0,1.0,2.008
4.0,2.0,2.009
0.0,1.0,2.01
-3.0,0.0,2.011
-1.0,-2.0,2.012
0.0,-3.0,2.013
0.0,0.0,2.014
4.0,4.0,2.015
13.0,5.0,2.016
17.0,3.0,2.017
12.0,-3.0,2.018
8.0,-5.0,2.019
9.0,-2.0,2.02
7.0,-3.0,2.021
6.0,-4.0,2.022
14.0,-6.0,2.023
25.0,-4.0,2.024
26.0,0.0,2.025
12.0,1.0,2.026
-2.0,-4.0,2.027
-4.0,-6.0,2.028
-3.0,-4.0,2.029
-6.0,0.0,2.03
-9.0,0.0,2.031
-7.0,-2.0,2.032
-6.0,-3.0,2.033
-7.0,0.0,2.034
-6.0,3.0,2.035
-3.0,2.0,2.036
0.0,1.0,2.037
-1.0,-3.0,2.038
-1.0,-5.0,2.039
3.0,-3.0,2.04
5.0,-2.0,2.041
5.0,0.0,2.042
11.0,2.0,2.043
16.0,2.0,2.044
15.0,4.0,2.045
4.0,4.0,2.046
-5.0,0.0,2.047
-7.0,-7.0,2.048
-5.0,-12.0,2.049
-6.0,-10.0,2.05
-4.0,-3.0,2.051
0.0,0.0,2.052
4.0,0.0,2.053
2.0,0.0,2.054
2.0,0.0,2.055
10.0,3.0,2.056
18.0,5.0,2.057
16.0,2.0,2.058
9.0,-1.0,2.059
6.0,-3.0,2.06
13.0,-7.0,2.061
20.0,-6.0,2.062
22.0,-3.0,2.063
17.0,2.0,2.064
4.0,6.0,2.065
-13.0,8.0,2.066
-24.0,8.0,2.067
-23.0,5.0,2.068
-20.0,2.0,2.069
-20.0,3.0,2.07
-26.0,6.0,2.071
-24.0,4.0,2.072
-15.0,-1.0,2.073
-7.0,-2.0,2.074
-3.0,-1.0,2.075
-1.0,-1.0,2.076
4.0,-1.0,2.077
5.0,-4.0,2.078
4.0,-3.0,2.079
3.0,-1.0,2.08
6.0,-5.0,2.081
12.0,-3.0,2.082
22.0,2.0,2.083
30.0,7.0,2.084
29.0,8.0,2.085
20.0,5.0,2.086
17.0,0.0,2.087
27.0,-1.0,2.088
37.0,-1.0,2.089
34.0,0.0,2.09
20.0,0.0,2.091
8.0,-1.0,2.092
-2.0,-3.0,2.093
-15.0,-3.0,2.094
-27.0,-2.0,2.095
-27.0,-3.0,2.096
-17.0,-1.0,2.097
-12.0,-3.0,2.098
-19.0,-6.0,2.099
-28.0,-10.0,2.1
-28.0,-17.0,2.101
-20.0,-18.0,2.102
-8.0,-15.0,2.103
-3.0,-9.0,2.104
-5.0,-5.0,2.105
-8.0,-1.0,2.106
-3.0,0.0,2.107
7.0,0.0,2.108
12.0,1.0,2.109
11.0,4.0,2.11
17.0,5.0,2.111
24.0,2.0,2.112
24.0,-2.0,2.113
14.0,-5.0,2.114
7.0,-4.0,2.115
10.0,-3.0,2.116
15.0,-2.0,2.117
14.0,-2.0,2.118
9.0,-2.0,2.119
3.0,-4.0,2.12
-1.0,-9.0,2.121
-2.0,-9.0,2.122
5.0,-4.0,2.123
24.0,2.0,2.124
39.0,5.0,2.125
38.0,3.0,2.126
25.0,0.0,2.127
11.0,-3.0,2.128
4.0,-3.0,2.129
-1.0,2.0,2.13
-10.0,7.0,2.131
-18.0,5.0,2.132
-20.0,-1.0,2.133
-17.0,-6.0,2.134
-14.0,-6.0,2.135
-16.0,-3.0,2.136
-17.0,-1.0,2.137
-12.0,-1.0,2.138
-7.0,0.0,2.139
-8.0,2.0,2.14
-15.0,1.0,2.141
-16.0,1.0,2.142
-5.0,7.0,2.143
7.0,12.0,2.144
17.0,10.0,2.145
21.0,8.0,2.146
23.0,6.0,2.147
21.0,4.0,2.148
12.0,3.0,2.149
2.0,3.0,2.15
1.0,7.0,2.151
5.0,8.0,2.152
10.0,2.0,2.153
17.0,-2.0,2.154
24.0,-3.0,2.155
23.0,-4.0,2.156
10.0,-6.0,2.157
-9.0,-7.0,2.158
-19.0,-3.0,2.159
-21.0,-3.0,2.16
-21.0,-8.0,2.161
-19.0,-9.0,2.162
-9.0,-5.0,2.163
5.0,0.0,2.164
15.0,3.0,2.165
15.0,10.0,2.166
13.0,12.0,2.167
14.0,7.0,2.168
18.0,0.0,2.169
19.0,-1.0,2.17
15.0,-1.0,2.171
8.0,-3.0,2.172
2.0,-2.0,2.173
-1.0,3.0,2.174
-2.0,6.0,2.175
-1.0,0.0,2.176
2.0,-5.0,2.177
8.0,-6.0,2.178
10.0,-6.0,2.179
4.0,-7.0,2.18
-4.0,-11.0,2.181
-6.0,-8.0,2.182
-1.0,-4.0,2.183
4.0,-2.0,2.184
2.0,-1.0,2.185
-1.0,2.0,2.186
2.0,3.0,2.187
10.0,2.0,2.188
13.0,4.0,2.189
10.0,5.0,2.19
10.0,4.0,2.191
10.0,1.0,2.192
1.0,0.0,2.193
-15.0,2.0,2.194
-26.0,1.0,2.195
-23.0,-2.0,2.196
-13.0,-1.0,2.197
-11.0,0.0,2.198
-16.0,-1.0,2.199
-21.0,-5.0,2.2
-22.0,-11.0,2.201
-20.0,-11.0,2.202
-11.0,-9.0,2.203
8.0,-8.0,2.204
25.0,-3.0,2.205
35.0,2.0,2.206
45.0,3.0,2.207
52.0,3.0,2.208
47.0,3.0,2.209
23.0,5.0,2.21
-3.0,4.0,2.211
-15.0,0.0,2.212
-16.0,-3.0,2.213
-20.0,-6.0,2.214
-28.0,-7.0,2.215
-32.0,-4.0,2.216
-26.0,3.0,2.217
-21.0,2.0,2.218
-18.0,-2.0,2.219
-13.0,-6.0,2.22
-5.0,-6.0,2.221
4.0,-6.0,2.222
16.0,-5.0,2.223
24.0,-3.0,2.224
24.0,3.0,2.225
21.0,7.0,2.226
19.0,7.0,2.227
25.0,5.0,2.228
29.0,3.0,2.229
25.0,1.0,2.23
20.0,0.0,2.231
17.0,0.0,2.232
15.0,4.0,2.233
12.0,6.0,2.234
8.0,3.0,2.235
3.0,-3.0,2.236
0.0,-4.0,2.237
-5.0,-7.0,2.238
-7.0,-7.0,2.239
-5.0,-6.0,2.24
-6.0,-4.0,2.241
-9.0,-1.0,2.242
-3.0,1.0,2.243
11.0,3.0,2.244
23.0,4.0,2.245
21.0,3.0,2.246
11.0,0.0,2.247
1.0,-2.0,2.248
-4.0,1.0,2.249
-6.0,4.0,2.25
-6.0,3.0,2.251
-4.0,0.0,2.252
-4.0,-3.0,2.253
-7.0,-1.0,2.254
-9.0,0.0,2.255
-9.0,-3.0,2.256
-6.0,-7.0,2.257
-5.0,-11.0,2.258
-1.0,-10.0,2.259
8.0,-7.0,2.26
21.0,-9.0,2.261
33.0,-10.0,2.262
37.0,-6.0,2.263
28.0,4.0,2.264
11.0,11.0,2.265
-4.0,13.0,2.266
-5.0,11.0,2.267
-3.0,8.0,2.268
-2.0,7.0,2.269
-6.0,7.0,2.27
-5.0,3.0,2.271
0.0,-2.0,2.272
7.0,-4.0,2.273
11.0,-1.0,2.274
13.0,3.0,2.275
9.0,1.0,2.276
-3.0,0.0,2.277
-26.0,-2.0,2.278
-46.0,0.0,2.279
-58.0,1.0,2.28
-59.0,-3.0,2.281
-50.0,-6.0,2.282
-31.0,-3.0,2.283
-14.0,1.0,2.284
-5.0,0.0,2.285
-5.0,-3.0,2.286
-2.0,-3.0,2.287
11.0,1.0,2.288
24.0,2.0,2.289
30.0,-2.0,2.29
29.0,-6.0,2.291
29.0,-8.0,2.292
30.0,-8.0,2.293
29.0,-9.0,2.294
27.0,-10.0,2.295
28.0,-6.0,2.296
32.0,1.0,2.297
30.0,4.0,2.298
22.0,2.0,2.299
13.0,-1.0,2.3
7.0,-2.0,2.301
4.0,1.0,2.302
2.0,2.0,2.303
2.0,2.0,2.304
5.0,2.0,2.305
6.0,0.0,2.306
3.0,-3.0,2.307
0.0,-5.0,2.308
-1.0,-1.0,2.309
-4.0,6.0,2.31
-4.0,11.0,2.311
0.0,12.0,2.312
8.0,9.0,2.313
10.0,5.0,2.314
7.0,0.0,2.315
4.0,-4.0,2.316
5.0,-4.0,2.317
2.0,-5.0,2.318
-5.0,-5.0,2.319
-12.0,-3.0,2.32
-13.0,-2.0,2.321
-12.0,0.0,2.322
-3.0,0.0,2.323
10.0,-1.0,2.324
23.0,1.0,2.325
24.0,2.0,2.326
15.0,3.0,2.327
8.0,1.0,2.328
4.0,2.0,2.329
-1.0,3.0,2.33
-9.0,1.0,2.331
-15.0,-3.0,2.332
-14.0,-5.0,2.333
-8.0,-3.0,2.334
-2.0,0.0,2.335
2.0,3.0,2.336
4.0,5.0,2.337
-2.0,4.0,2.338
-8.0,1.0,2.339
-10.0,-1.0,2.34
-6.0,-5.0,2.341
2.0,-8.0,2.342
11.0,-10.0,2.343
17.0,-9.0,2.344
7.0,-1.0,2.345
-12.0,3.0,2.346
-23.0,0.0,2.347
-20.0,-4.0,2.348
-13.0,-4.0,2.349
-12.0,-2.0,2.35
-12.0,-2.0,2.351
-7.0,-4.0,2.352
-5.0,0.0,2.353
-4.0,4.0,2.354
3.0,5.0,2.355
19.0,1.0,2.356
32.0,2.0,2.357
32.0,2.0,2.358
26.0,0.0,2.359
16.0,-3.0,2.36
2.0,-6.0,2.361
-7.0,-5.0,2.362
-6.0,-3.0,2.363
1.0,-1.0,2.364
5.0,0.0,2.365
3.0,2.0,2.366
4.0,0.0,2.367
10.0,-3.0,2.368
14.0,-1.0,2.369
12.0,1.0,2.37
9.0,1.0,2.371
6.0,-2.0,2.372
5.0,-3.0,2.373
2.0,-3.0,2.374
-1.0,-4.0,2.375
-3.0,-4.0,2.376
0.0,1.0,2.377
1.0,6.0,2.378
2.0,4.0,2.379
1.0,-2.0,2.38
2.0,-8.0,2.381
11.0,-7.0,2.382
25.0,-4.0,2.383
36.0,0.0,2.384
31.0,2.0,2.385
13.0,3.0,2.386
-6.0,0.0,2.387
-15.0,1.0,2.388
-18.0,7.0,2.389
-22.0,12.0,2.39
-27.0,6.0,2.391
-25.0,-2.0,2.392
-16.0,-4.0,2.393
-6.0,-4.0,2.394
1.0,-7.0,2.395
5.0,-8.0,2.396
9.0,-3.0,2.397
7.0,1.0,2.398
3.0,1.0,2.399
3.0,-2.0,2.4
11.0,-7.0,2.401
21.0,-7.0,2.402
28.0,-7.0,2.403
22.0,-3.0,2.404
7.0,2.0,2.405
-6.0,4.0,2.406
-12.0,1.0,2.407
-12.0,-1.0,2.408
-13.0,0.0,2.409
-15.0,1.0,2.41
-14.0,0.0,2.411
-9.0,1.0,2.412
-2.0,5.0,2.413
5.0,6.0,2.414
10.0,1.0,2.415
8.0,-4.0,2.416
4.0,-4.0,2.417
2.0,-3.0,2.418
7.0,-1.0,2.419
11.0,1.0,2.42
9.0,0.0,2.421
9.0,-3.0,2.422
14.0,-5.0,2.423
13.0,-4.0,2.424
4.0,-1.0,2.425
-7.0,1.0,2.426
-8.0,1.0,2.427
-7.0,2.0,2.428
-13.0,2.0,2.429
-19.0,2.0,2.43
-17.0,1.0,2.431
-11.0,0.0,2.432
-9.0,1.0,2.433
-6.0,2.0,2.434
6.0,1.0,2.435
21.0,1.0,2.436
32.0,2.0,2.437
37.0,1.0,2.438
36.0,-2.0,2.439
24.0,-5.0,2.44
3.0,-10.0,2.441
-7.0,-10.0,2.442
2.0,-5.0,2.443
17.0,-1.0,2.444
20.0,2.0,2.445
12.0,4.0,2.446
1.0,4.0,2.447
-2.0,5.0,2.448
-5.0,7.0,2.449
-9.0,5.0,2.45
-11.0,1.0,2.451
-9.0,-3.0,2.452
-4.0,-6.0,2.453
1.0,-7.0,2.454
11.0,-9.0,2.455
17.0,-6.0,2.456
17.0,-2.0,2.457
10.0,-1.0,2.458
4.0,-5.0,2.459
-4.0,-9.0,2.46
-15.0,-11.0,2.461
-19.0,-5.0,2.462
-13.0,2.0,2.463
-6.0,3.0,2.464
-6.0,1.0,2.465
-8.0,1.0,2.466
-2.0,0.0,2.467
8.0,-1.0,2.468
13.0,-1.0,2.469
8.0,1.0,2.47
3.0,3.0,2.471
6.0,1.0,2.472
11.0,-1.0,2.473
15.0,0.0,2.474
14.0,1.0,2.475
13.0,3.0,2.476
10.0,4.0,2.477
4.0,3.0,2.478
0.0,1.0,2.479
-2.0,-1.0,2.48
-1.0,-3.0,2.481
5.0,-1.0,2.482
13.0,1.0,2.483
12.0,2.0,2.484
-1.0,2.0,2.485
-14.0,2.0,2.486
-18.0,1.0,2.487
-15.0,-2.0,2.488
-14.0,-4.0,2.489
-16.0,-2.0,2.49
-10.0,-1.0,2.491
3.0,-2.0,2.492
16.0,-2.0,2.493
19.0,0.0,2.494
16.0,0.0,2.495
13.0,-6.0,2.496
11.0,-8.0,2.497
10.0,-7.0,2.498
6.0,-3.0,2.499
-2.0,-2.0,2.5
-8.0,-7.0,2.501
-11.0,-7.0,2.502
-4.0,0.0,2.503
4.0,6.0,2.504
7.0,6.0,2.505
3.0,3.0,2.506
0.0,1.0,2.507
1.0,-2.0,2.508
1.0,-4.0,2.509
0.0,0.0,2.51
0.0,5.0,2.511
1.0,5.0,2.512
3.0,3.0,2.513
10.0,3.0,2.514
21.0,5.0,2.515
36.0,1.0,2.516
45.0,-3.0,2.517
39.0,-6.0,2.518
24.0,-4.0,2.519
6.0,-3.0,2.52
-12.0,-7.0,2.521
-27.0,-9.0,2.522
-33.0,-4.0,2.523
-31.0,1.0,2.524
-22.0,4.0,2.525
-14.0,4.0,2.526
-10.0,1.0,2.527
-12.0,-2.0,2.528
-12.0,-1.0,2.529
-8.0,3.0,2.53
0.0,4.0,2.531
11.0,0.0,2.532
20.0,0.0,2.533
30.0,2.0,2.534
40.0,2.0,2.535
37.0,-3.0,2.536
22.0,-6.0,2.537
0.0,-4.0,2.538
-9.0,1.0,2.539
-12.0,0.0,2.54
-18.0,-8.0,2.541
-23.0,-11.0,2.542
-17.0,-8.0,2.543
-3.0,-2.0,2.544
2.0,2.0,2.545
-2.0,6.0,2.546
-6.0,7.0,2.547
-2.0,5.0,2.548
3.0,1.0,2.549
5.0,-1.0,2.55
5.0,-4.0,2.551
3.0,-3.0,2.552
0.0,-3.0,2.553
-2.0,-1.0,2.554
1.0,-1.0,2.555
7.0,-1.0,2.556
13.0,1.0,2.557
17.0,0.0,2.558
19.0,-1.0,2.559
12.0,-3.0,2.56
0.0,-4.0,2.561
-2.0,-2.0,2.562
8.0,0.0,2.563
19.0,-2.0,2.564
16.0,-2.0,2.565
8.0,-2.0,2.566
6.0,-1.0,2.567
6.0,-3.0,2.568
1.0,-2.0,2.569
-2.0,0.0,2.57
9.0,2.0,2.571
27.0,4.0,2.572
32.0,4.0,2.573
20.0,3.0,2.574
4.0,0.0,2.575
-1.0,-5.0,2.576
0.0,-7.0,2.577
2.0,-5.0,2.578
2.0,0.0,2.579
-3.0,3.0,2.58
-12.0,-1.0,2.581
-19.0,-2.0,2.582
-20.0,0.0,2.583
-15.0,3.0,2.584
-12.0,2.0,2.585
-14.0,0.0,2.586
-9.0,0.0,2.587
1.0,1.0,2.588
5.0,0.0,2.589
1.0,-1.0,2.59
-2.0,-1.0,2.591
2.0,1.0,2.592
8.0,1.0,2.593
11.0,0.0,2.594
9.0,0.0,2.595
8.0,2.0,2.596
5.0,4.0,2.597
1.0,0.0,2.598
-1.0,-3.0,2.599
-4.0,-3.0,2.6
-6.0,-3.0,2.601
-2.0,-4.0,2.602
10.0,-6.0,2.603
23.0,-5.0,2.604
21.0,0.0,2.605
1.0,4.0,2.606
-19.0,4.0,2.607
-23.0,0.0,2.608
-19.0,0.0,2.609
-12.0,3.0,2.61
-7.0,3.0,2.611
-4.0,-1.0,2.612
-1.0,-3.0,2.613
0.0,0.0,2.614
2.0,0.0,2.615
7.0,-5.0,2.616
14.0,-9.0,2.617
21.0,-8.0,2.618
22.0,-2.0,2.619
18.0,0.0,2.62
12.0,-5.0,2.621
15.0,-5.0,2.622
26.0,-2.0,2.623
33.0,1.0,2.624
23.0,2.0,2.625
2.0,2.0,2.626
-7.0,1.0,2.627
0.0,-3.0,2.628
12.0,-5.0,2.629
13.0,-5.0,2.63
12.0,-1.0,2.631
14.0,0.0,2.632
10.0,1.0,2.633
-5.0,4.0,2.634
-25.0,6.0,2.635
-37.0,4.0,2.636
-36.0,4.0,2.637
-33.0,3.0,2.638
-29.0,0.0,2.639
-26.0,-4.0,2.64
-22.0,-9.0,2.641
-16.0,-6.0,2.642
-4.0,0.0,2.643
11.0,1.0,2.644
21.0,4.0,2.645
23.0,9.0,2.646
23.0,8.0,2.647
23.0,0.0,2.648
20.0,-5.0,2.649
14.0,-1.0,2.65
9.0,3.0,2.651
11.0,0.0,2.652
12.0,-5.0,2.653
8.0,-4.0,2.654
2.0,2.0,2.655
4.0,3.0,2.656
8.0,2.0,2.657
5.0,1.0,2.658
0.0,0.0,2.659
1.0,-3.0,2.66
8.0,-11.0,2.661
13.0,-11.0,2.662
13.0,-6.0,2.663
9.0,-2.0,2.664
4.0,2.0,2.665
-1.0,5.0,2.666
-2.0,2.0,2.667
-1.0,-4.0,2.668
0.0,-9.0,2.669
-1.0,-8.0,2.67
-3.0,-3.0,2.671
-3.0,0.0,2.672
-1.0,1.0,2.673
3.0,0.0,2.674
8.0,-1.0,2.675
13.0,-1.0,2.676
16.0,2.0,2.677
14.0,3.0,2.678
6.0,-1.0,2.679
-5.0,-5.0,2.68
-14.0,-7.0,2.681
-15.0,-5.0,2.682
-6.0,-2.0,2.683
5.0,1.0,2.684
10.0,6.0,2.685
9.0,10.0,2.686
7.0,10.0,2.687
3.0,8.0,2.688
-3.0,6.0,2.689
-7.0,5.0,2.69
-7.0,4.0,2.691
-2.0,1.0,2.692
0.0,1.0,2.693
-1.0,1.0,2.694
-4.0,0.0,2.695
-8.0,0.0,2.696
-8.0,0.0,2.697
-5.0,-4.0,2.698
-2.0,-5.0,2.699
-5.0,-4.0,2.7
-8.0,-5.0,2.701
-7.0,-5.0,2.702
1.0,-5.0,2.703
13.0,-1.0,2.704
20.0,6.0,2.705
25.0,10.0,2.706
29.0,7.0,2.707
31.0,2.0,2.708
26.0,-2.0,2.709
16.0,-6.0,2.71
5.0,-8.0,2.711
-1.0,-10.0,2.712
-7.0,-5.0,2.713
-13.0,1.0,2.714
-15.0,2.0,2.715
-12.0,-1.0,2.716
-4.0,-2.0,2.717
3.0,-4.0,2.718
7.0,-4.0,2.719
0.0,-4.0,2.72
-14.0,-8.0,2.721
-23.0,-7.0,2.722
-19.0,-5.0,2.723
-12.0,-3.0,2.724
-14.0,0.0,2.725
-16.0,3.0,2.726
-9.0,5.0,2.727
3.0,3.0,2.728
4.0,2.0,2.729
1.0,4.0,2.73
4.0,5.0,2.731
14.0,4.0,2.732
18.0,0.0,2.733
16.0,-3.0,2.734
14.0,-3.0,2.735
16.0,-2.0,2.736
17.0,0.0,2.737
12.0,0.0,2.738
6.0,0.0,2.739
0.0,0.0,2.74
-4.0,-3.0,2.741
-5.0,-4.0,2.742
1.0,-3.0,2.743
9.0,-2.0,2.744
11.0,0.0,2.745
7.0,-2.0,2.746
8.0,-5.0,2.747
15.0,-8.0,2.748
17.0,-9.0,2.749
11.0,-5.0,2.75
10.0,0.0,2.751
17.0,0.0,2.752
24.0,0.0,2.753
23.0,-1.0,2.754
19.0,-2.0,2.755
18.0,-3.0,2.756
15.0,0.0,2.757
3.0,2.0,2.758
-12.0,2.0,2.759
-20.0,0.0,2.76
-25.0,-3.0,2.761
-28.0,-2.0,2.762
-25.0,-1.0,2.763
-15.0,-2.0,2.764
-4.0,0.0,2.765
4.0,5.0,2.766
13.0,5.0,2.767
26.0,-1.0,2.768
36.0,-3.0,2.769
34.0,0.0,2.77
26.0,4.0,2.771
16.0,0.0,2.772
-2.0,-6.0,2.773
-26.0,-7.0,2.774
-39.0,-4.0,2.775
-37.0,-2.0,2.776
-32.0,-1.0,2.777
-35.0,-1.0,2.778
-31.0,-2.0,2.779
-22.0,-4.0,2.78
-14.0,-8.0,2.781
-12.0,-6.0,2.782
-4.0,-1.0,2.783
16.0,0.0,2.784
27.0,0.0,2.785
25.0,4.0,2.786
20.0,5.0,2.787
23.0,2.0,2.788
23.0,1.0,2.789
15.0,4.0,2.79
8.0,9.0,2.791
10.0,7.0,2.792
9.0,2.0,2.793
2.0,2.0,2.794
0.0,4.0,2.795
4.0,4.0,2.796
5.0,2.0,2.797
-2.0,-3.0,2.798
-7.0,-6.0,2.799
-6.0,-8.0,2.8
-5.0,-9.0,2.801
-6.0,-5.0,2.802
0.0,0.0,2.803
12.0,0.0,2.804
14.0,-4.0,2.805
6.0,-7.0,2.806
2.0,-8.0,2.807
9.0,-8.0,2.808
15.0,-6.0,2.809
16.0,0.0,2.81
13.0,3.0,2.811
10.0,0.0,2.812
8.0,0.0,2.813
5.0,5.0,2.814
7.0,11.0,2.815
6.0,10.0,2.816
3.0,8.0,2.817
0.0,4.0,2.818
2.0,3.0,2.819
6.0,0.0,2.82
11.0,-3.0,2.821
18.0,-4.0,2.822
28.0,-3.0,2.823
31.0,-3.0,2.824
19.0,-3.0,2.825
1.0,-4.0,2.826
-7.0,-4.0,2.827
-13.0,-2.0,2.828
-20.0,3.0,2.829
-23.0,8.0,2.83
-17.0,10.0,2.831
-6.0,5.0,2.832
-5.0,2.0,2.833
-11.0,3.0,2.834
-10.0,6.0,2.835
-3.0,6.0,2.836
1.0,5.0,2.837
0.0,1.0,2.838
-2.0,0.0,2.839
0.0,-1.0,2.84
0.0,-5.0,2.841
-2.0,-7.0,2.842
-3.0,-7.0,2.843
-3.0,-3.0,2.844
-9.0,0.0,2.845
-17.0,1.0,2.846
-14.0,-1.0,2.847
0.0,-2.0,2.848
6.0,-1.0,2.849
3.0,-3.0,2.85
3.0,-7.0,2.851
13.0,-8.0,2.852
21.0,-7.0,2.853
21.0,-8.0,2.854
17.0,-11.0,2.855
15.0,-11.0,2.856
10.0,-4.0,2.857
-2.0,-1.0,2.858
-10.0,-2.0,2.859
-12.0,-4.0,2.86
-9.0,-8.0,2.861
-1.0,-11.0,2.862
11.0,-11.0,2.863
21.0,-6.0,2.864
22.0,2.0,2.865
15.0,6.0,2.866
11.0,2.0,2.867
7.0,-2.0,2.868
1.0,-2.0,2.869
-5.0,-3.0,2.87
-5.0,-3.0,2.871
1.0,0.0,2.872
5.0,3.0,2.873
2.0,3.0,2.874
-3.0,1.0,2.875
-4.0,0.0,2.876
0.0,5.0,2.877
1.0,7.0,2.878
-1.0,4.0,2.879
-5.0,0.0,2.88
-6.0,-6.0,2.881
-3.0,-7.0,2.882
2.0,-4.0,2.883
7.0,0.0,2.884
10.0,5.0,2.885
7.0,8.0,2.886
5.0,10.0,2.887
8.0,10.0,2.888
12.0,8.0,2.889
11.0,6.0,2.89
2.0,5.0,2.891
-5.0,7.0,2.892
-7.0,9.0,2.893
-4.0,6.0,2.894
0.0,1.0,2.895
5.0,-3.0,2.896
12.0,-4.0,2.897
11.0,-6.0,2.898
9.0,-8.0,2.899
7.0,-8.0,2.9
8.0,-9.0,2.901
10.0,-8.0,2.902
10.0,-7.0,2.903
10.0,-7.0,2.904
11.0,-7.0,2.905
13.0,-3.0,2.906
13.0,0.0,2.907
10.0,-1.0,2.908
3.0,-3.0,2.909
-4.0,0.0,2.91
-12.0,5.0,2.911
-17.0,2.0,2.912
-14.0,-2.0,2.913
-12.0,0.0,2.914
-17.0,9.0,2.915
-19.0,14.0,2.916
-11.0,10.0,2.917
0.0,4.0,2.918
20.0,4.0,2.919
32.0,2.0,2.92
29.0,-3.0,2.921
13.0,-6.0,2.922
6.0,0.0,2.923
10.0,4.0,2.924
3.0,4.0,2.925
-22.0,5.0,2.926
-40.0,4.0,2.927
-33.0,2.0,2.928
-19.0,-2.0,2.929
-15.0,-6.0,2.93
-18.0,-7.0,2.931
-13.0,-8.0,2.932
-6.0,-8.0,2.933
-7.0,-8.0,2.934
-11.0,-10.0,2.935
-7.0,-12.0,2.936
-2.0,-11.0,2.937
-1.0,-8.0,2.938
-2.0,1.0,2.939
-3.0,10.0,2.94
-2.0,8.0,2.941
0.0,3.0,2.942
11.0,1.0,2.943
30.0,5.0,2.944
40.0,7.0,2.945
38.0,4.0,2.946
36.0,0.0,2.947
41.0,-1.0,2.948
46.0,0.0,2.949
41.0,-1.0,2.95
29.0,-3.0,2.951
16.0,-1.0,2.952
6.0,2.0,2.953
0.0,1.0,2.954
2.0,-6.0,2.955
5.0,-14.0,2.956
4.0,-16.0,2.957
-1.0,-16.0,2.958
-6.0,-16.0,2.959
-12.0,-15.0,2.96
-18.0,-9.0,2.961
-19.0,2.0,2.962
-12.0,10.0,2.963
-4.0,11.0,2.964
-4.0,13.0,2.965
-5.0,19.0,2.966
0.0,22.0,2.967
9.0,16.0,2.968
13.0,11.0,2.969
18.0,10.0,2.97
27.0,9.0,2.971
30.0,4.0,2.972
16.0,1.0,2.973
-1.0,1.0,2.974
-5.0,0.0,2.975
-5.0,-5.0,2.976
-10.0,-9.0,2.977
-17.0,-10.0,2.978
-16.0,-7.0,2.979
-11.0,-7.0,2.98
-15.0,-11.0,2.981
-15.0,-13.0,2.982
-4.0,-8.0,2.983
7.0,1.0,2.984
0.0,7.0,2.985
-17.0,3.0,2.986
-23.0,-8.0,2.987
-14.0,-15.0,2.988
-4.0,-8.0,2.989
1.0,8.0,2.99
1.0,25.0,2.991
7.0,27.0,2.992
22.0,17.0,2.993
42.0,7.0,2.994
55.0,5.0,2.995
50.0,2.0,2.996
30.0,-5.0,2.997
5.0,-11.0,2.998
-17.0,-10.0,2.999
-37.0,-3.0,3.0
-45.0,-5.0,3.001
-47.0,-12.0,3.002
-31.0,-17.0,3.003
-18.0,-13.0,3.004
-18.0,-6.0,3.005
-16.0,-6.0,3.006
-8.0,-9.0,3.007
0.0,-5.0,3.008
6.0,5.0,3.009
13.0,9.0,3.01
18.0,0.0,3.011
23.0,-12.0,3.012
29.0,-16.0,3.013
34.0,-8.0,3.014
34.0,2.0,3.015
35.0,7.0,3.016
35.0,8.0,3.017
35.0,2.0,3.018
27.0,0.0,3.019
9.0,-2.0,3.02
-14.0,-7.0,3.021
-32.0,-10.0,3.022
-39.0,-8.0,3.023
-35.0,-7.0,3.024
-27.0,-8.0,3.025
-15.0,-6.0,3.026
3.0,6.0,3.027
15.0,15.0,3.028
12.0,17.0,3.029
6.0,18.0,3.03
15.0,9.0,3.031
37.0,4.0,3.032
50.0,15.0,3.033
42.0,23.0,3.034
24.0,21.0,3.035
1.0,17.0,3.036
-20.0,6.0,3.037
-40.0,-7.0,3.038
-44.0,-20.0,3.039
-32.0,-21.0,3.04
-27.0,-19.0,3.041
-37.0,-18.0,3.042
-49.0,-16.0,3.043
-49.0,-5.0,3.044
-38.0,9.0,3.045
-24.0,19.0,3.046
-6.0,22.0,3.047
12.0,21.0,3.048
30.0,16.0,3.049
48.0,5.0,3.05
69.0,1.0,3.051
84.0,9.0,3.052
85.0,15.0,3.053
75.0,10.0,3.054
63.0,-4.0,3.055
45.0,-17.0,3.056
18.0,-30.0,3.057
-17.0,-42.0,3.058
-40.0,-38.0,3.059
-39.0,-15.0,3.06
-21.0,2.0,3.061
-3.0,-5.0,3.062
4.0,-28.0,3.063
2.0,-39.0,3.064
-4.0,-29.0,3.065
-5.0,-15.0,3.066
6.0,-15.0,3.067
17.0,-19.0,3.068
18.0,-8.0,3.069
8.0,18.0,3.07
0.0,43.0,3.071
3.0,54.0,3.072
16.0,54.0,3.073
30.0,51.0,3.074
37.0,43.0,3.075
27.0,24.0,3.076
8.0,-1.0,3.077
-16.0,-19.0,3.078
-32.0,-18.0,3.079
-49.0,-3.0,3.08
-69.0,10.0,3.081
-77.0,13.0,3.082
-57.0,4.0,3.083
-24.0,-11.0,3.084
-8.0,-20.0,3.085
-7.0,-15.0,3.086
0.0,-6.0,3.087
16.0,-5.0,3.088
27.0,-13.0,3.089
40.0,-20.0,3.09
66.0,-16.0,3.091
92.0,-10.0,3.092
81.0,-10.0,3.093
36.0,-11.0,3.094
-4.0,-11.0,3.095
-21.0,-12.0,3.096
-30.0,-15.0,3.097
-51.0,-9.0,3.098
-62.0,8.0,3.099
-52.0,15.0,3.1
-41.0,-6.0,3.101
-54.0,-34.0,3.102
-79.0,-36.0,3.103
-87.0,-8.0,3.104
-69.0,21.0,3.105
-36.0,30.0,3.106
3.0,27.0,3.107
43.0,25.0,3.108
71.0,25.0,3.109
85.0,23.0,3.11
89.0,19.0,3.111
91.0,8.0,3.112
84.0,-19.0,3.113
59.0,-46.0,3.114
29.0,-51.0,3.115
17.0,-34.0,3.116
21.0,-20.0,3.117
20.0,-16.0,3.118
8.0,-5.0,3.119
-1.0,14.0,3.12
11.0,23.0,3.121
28.0,12.0,3.122
20.0,-7.0,3.123
-21.0,-19.0,3.124
-75.0,-15.0,3.125
-118.0,2.0,3.126
-139.0,28.0,3.127
-136.0,42.0,3.128
-106.0,48.0,3.129
-51.0,61.0,3.13
14.0,82.0,3.131
53.0,84.0,3.132
50.0,55.0,3.133
29.0,18.0,3.134
40.0,4.0,3.135
89.0,11.0,3.136
134.0,17.0,3.137
137.0,9.0,3.138
106.0,-2.0,3.139
81.0,-10.0,3.14
78.0,-20.0,3.141
78.0,-31.0,3.142
63.0,-44.0,3.143
37.0,-55.0,3.144
18.0,-58.0,3.145
8.0,-48.0,3.146
-1.0,-34.0,3.147
-16.0,-34.0,3.148
-50.0,-39.0,3.149
-107.0,-29.0,3.15
-166.0,-5.0,3.151
-189.0,2.0,3.152
-158.0,-23.0,3.153
-93.0,-51.0,3.154
-27.0,-39.0,3.155
30.0,6.0,3.156
76.0,41.0,3.157
103.0,35.0,3.158
94.0,8.0,3.159
57.0,-8.0,3.16
36.0,1.0,3.161
52.0,25.0,3.162
79.0,36.0,3.163
82.0,23.0,3.164
65.0,-5.0,3.165
50.0,-30.0,3.166
41.0,-40.0,3.167
25.0,-41.0,3.168
2.0,-38.0,3.169
-17.0,-37.0,3.17
-32.0,-46.0,3.171
-53.0,-56.0,3.172
-79.0,-47.0,3.173
-103.0,-7.0,3.174
-127.0,39.0,3.175
-149.0,60.0,3.176
-153.0,59.0,3.177
-124.0,58.0,3.178
-70.0,70.0,3.179
-22.0,75.0,3.18
10.0,54.0,3.181
41.0,31.0,3.182
73.0,28.0,3.183
98.0,41.0,3.184
103.0,46.0,3.185
105.0,39.0,3.186
95.0,33.0,3.187
82.0,29.0,3.188
58.0,13.0,3.189
36.0,-20.0,3.19
22.0,-58.0,3.191
8.0,-82.0,3.192
-9.0,-96.0,3.193
-27.0,-105.0,3.194
-51.0,-105.0,3.195
-69.0,-88.0,3.196
-73.0,-53.0,3.197
-79.0,-1.0,3.198
-88.0,56.0,3.199
-70.0,107.0,3.2
-6.0,130.0,3.201
62.0,121.0,3.202
77.0,81.0,3.203
46.0,42.0,3.204
35.0,37.0,3.205
76.0,62.0,3.206
122.0,70.0,3.207
119.0,35.0,3.208
81.0,-8.0,3.209
54.0,-14.0,3.21
43.0,-1.0,3.211
20.0,-6.0,3.212
-13.0,-28.0,3.213
-32.0,-50.0,3.214
-36.0,-73.0,3.215
-51.0,-104.0,3.216
-72.0,-125.0,3.217
-70.0,-126.0,3.218
-45.0,-114.0,3.219
-45.0,-85.0,3.22
-81.0,-19.0,3.221
-112.0,63.0,3.222
-112.0,99.0,3.223
-108.0,71.0,3.224
-113.0,45.0,3.225
-88.0,62.0,3.226
-3.0,69.0,3.227
96.0,24.0,3.228
147.0,-21.0,3.229
151.0,-20.0,3.23
161.0,-3.0,3.231
186.0,-25.0,3.232
190.0,-71.0,3.233
160.0,-102.0,3.234
118.0,-121.0,3.235
82.0,-147.0,3.236
46.0,-153.0,3.237
-1.0,-112.0,3.238
-53.0,-56.0,3.239
-102.0,-37.0,3.24
-138.0,-54.0,3.241
-150.0,-52.0,3.242
-143.0,-17.0,3.243
-142.0,16.0,3.244
-157.0,39.0,3.245
-159.0,83.0,3.246
-124.0,165.0,3.247
-81.0,240.0,3.248
-59.0,256.0,3.249
-37.0,215.0,3.25
27.0,166.0,3.251
113.0,143.0,3.252
162.0,128.0,3.253
150.0,101.0,3.254
113.0,60.0,3.255
93.0,19.0,3.256
99.0,-11.0,3.257
114.0,-45.0,3.258
120.0,-85.0,3.259
108.0,-124.0,3.26
40.0,-151.0,3.261
-22.0,-152.0,3.262
-62.0,-128.0,3.263
-97.0,-98.0,3.264
-116.0,-75.0,3.265
-127.0,-53.0,3.266
-111.0,-36.0,3.267
-80.0,-33.0,3.268
-8.0,-40.0,3.269
45.0,-21.0,3.27
41.0,36.0,3.271
37.0,95.0,3.272
34.0,106.0,3.273
45.0,72.0,3.274
97.0,39.0,3.275
128.0,34.0,3.276
97.0,49.0,3.277
68.0,69.0,3.278
70.0,73.0,3.279
94.0,29.0,3.28
75.0,-59.0,3.281
0.0,-135.0,3.282
-74.0,-155.0,3.283
-105.0,-142.0,3.284
-114.0,-140.0,3.285
-125.0,-140.0,3.286
-119.0,-99.0,3.287
-76.0,-15.0,3.288
-28.0,60.0,3.289
-12.0,87.0,3.29
-20.0,60.0,3.291
-17.0,4.0,3.292
-7.0,-29.0,3.293
-14.0,8.0,3.294
-44.0,90.0,3.295
-75.0,141.0,3.296
-85.0,129.0,3.297
-76.0,97.0,3.298
-51.0,98.0,3.299
-19.0,102.0,3.3
16.0,54.0,3.301
60.0,-21.0,3.302
119.0,-68.0,3.303
169.0,-76.0,3.304
170.0,-82.0,3.305
117.0,-105.0,3.306
59.0,-126.0,3.307
34.0,-126.0,3.308
33.0,-113.0,3.309
41.0,-105.0,3.31
53.0,-107.0,3.311
48.0,-104.0,3.312
4.0,-83.0,3.313
-48.0,-61.0,3.314
-50.0,-64.0,3.315
-22.0,-83.0,3.316
-40.0,-78.0,3.317
-111.0,-30.0,3.318
-148.0,41.0,3.319
-124.0,111.0,3.32
-112.0,172.0,3.321
-135.0,224.0,3.322
-94.0,251.0,3.323
49.0,247.0,3.324
167.0,227.0,3.325
146.0,196.0,3.326
62.0,149.0,3.327
34.0,94.0,3.328
40.0,52.0,3.329
2.0,26.0,3.33
-40.0,2.0,3.331
-15.0,-28.0,3.332
37.0,-56.0,3.333
48.0,-67.0,3.334
51.0,-71.0,3.335
112.0,-101.0,3.336
186.0,-162.0,3.337
174.0,-220.0,3.338
98.0,-200.0,3.339
29.0,-106.0,3.34
-18.0,-34.0,3.341
-71.0,-23.0,3.342
-143.0,6.0,3.343
-194.0,108.0,3.344
-183.0,201.0,3.345
-158.0,192.0,3.346
-90.0,126.0,3.347
-18.0,93.0,3.348
63.0,73.0,3.349
135.0,5.0,3.35
179.0,-70.0,3.351
199.0,-80.0,3.352
147.0,-67.0,3.353
92.0,-95.0,3.354
28.0,-121.0,3.355
-11.0,-68.0,3.356
26.0,14.0,3.357
53.0,23.0,3.358
16.0,-30.0,3.359
-23.0,-76.0,3.36
-45.0,-101.0,3.361
-80.0,-116.0,3.362
-143.0,-98.0,3.363
-193.0,-74.0,3.364
-204.0,-31.0,3.365
-198.0,7.0,3.366
-199.0,31.0,3.367
-189.0,55.0,3.368
-128.0,82.0,3.369
-20.0,103.0,3.37
81.0,104.0,3.371
130.0,104.0,3.372
122.0,98.0,3.373
86.0,75.0,3.374
49.0,1.0,3.375
14.0,-48.0,3.376
-3.0,-19.0,3.377
20.0,-3.0,3.378
101.0,-51.0,3.379
190.0,-106.0,3.38
209.0,-126.0,3.381
136.0,-137.0,3.382
47.0,-171.0,3.383
18.0,-196.0,3.384
30.0,-168.0,3.385
10.0,-97.0,3.386
-34.0,-28.0,3.387
-16.0,21.0,3.388
88.0,74.0,3.389
180.0,131.0,3.39
159.0,162.0,3.391
58.0,147.0,3.392
-9.0,115.0,3.393
-16.0,91.0,3.394
-30.0,59.0,3.395
-99.0,14.0,3.396
-164.0,-7.0,3.397
-171.0,33.0,3.398
-133.0,100.0,3.399
-113.0,122.0,3.4
-130.0,68.0,3.401
-125.0,-4.0,3.402
-42.0,-38.0,3.403
86.0,-25.0,3.404
165.0,4.0,3.405
149.0,20.0,3.406
89.0,16.0,3.407
57.0,33.0,3.408
51.0,95.0,3.409
29.0,156.0,3.41
-4.0,142.0,3.411
-14.0,80.0,3.412
-12.0,64.0,3.413
-53.0,104.0,3.414
-136.0,107.0,3.415
-195.0,32.0,3.416
-192.0,-29.0,3.417
-151.0,-22.0,3.418
-92.0,11.0,3.419
-26.0,-1.0,3.42
55.0,-45.0,3.421
110.0,-59.0,3.422
84.0,-45.0,3.423
58.0,-48.0,3.424
32.0,-83.0,3.425
6.0,-133.0,3.426
-17.0,-176.0,3.427
-22.0,-184.0,3.428
31.0,-156.0,3.429
82.0,-129.0,3.43
124.0,-141.0,3.431
157.0,-170.0,3.432
158.0,-162.0,3.433
132.0,-118.0,3.434
26.0,-81.0,3.435
-57.0,-64.0,3.436
-74.0,-37.0,3.437
-83.0,20.0,3.438
-75.0,87.0,3.439
-65.0,130.0,3.44
-27.0,127.0,3.441
33.0,87.0,3.442
91.0,35.0,3.443
122.0,0.0,3.444
107.0,-11.0,3.445
44.0,-14.0,3.446
-38.0,3.0,3.447
-102.0,58.0,3.448
-141.0,119.0,3.449
-156.0,122.0,3.45
-129.0,67.0,3.451
-59.0,23.0,3.452
-3.0,24.0,3.453
-10.0,26.0,3.454
-47.0,-9.0,3.455
-41.0,-53.0,3.456
19.0,-73.0,3.457
97.0,-76.0,3.458
157.0,-68.0,3.459
189.0,-36.0,3.46
182.0,20.0,3.461
117.0,78.0,3.462
22.0,108.0,3.463
-53.0,100.0,3.464
-96.0,63.0,3.465
-132.0,9.0,3.466
-165.0,-32.0,3.467
-164.0,-42.0,3.468
-126.0,-34.0,3.469
-79.0,-22.0,3.47
-31.0,4.0,3.471
32.0,46.0,3.472
104.0,70.0,3.473
132.0,61.0,3.474
99.0,45.0,3.475
56.0,43.0,3.476
56.0,31.0,3.477
72.0,-26.0,3.478
45.0,-92.0,3.479
-31.0,-105.0,3.48
-98.0,-71.0,3.481
-108.0,-41.0,3.482
-64.0,-50.0,3.483
8.0,-76.0,3.484
85.0,-87.0,3.485
141.0,-83.0,3.486
150.0,-65.0,3.487
124.0,-44.0,3.488
109.0,-25.0,3.489
122.0,-7.0,3.49
120.0,32.0,3.491
62.0,97.0,3.492
-31.0,151.0,3.493
-99.0,160.0,3.494
-124.0,149.0,3.495
-135.0,165.0,3.496
-147.0,196.0,3.497
-134.0,194.0,3.498
-82.0,148.0,3.499
-38.0,98.0,3.5
-18.0,58.0,3.501
-14.0,17.0,3.502
-64.0,-25.0,3.503
-98.0,-57.0,3.504
-82.0,-84.0,3.505
-60.0,-120.0,3.506
-21.0,-148.0,3.507
25.0,-141.0,3.508
89.0,-119.0,3.509
148.0,-123.0,3.51
188.0,-151.0,3.511
196.0,-170.0,3.512
104.0,-174.0,3.513
27.0,-174.0,3.514
-6.0,-154.0,3.515
-31.0,-101.0,3.516
-30.0,-43.0,3.517
-36.0,5.0,3.518
-74.0,63.0,3.519
-92.0,129.0,3.52
-71.0,142.0,3.521
-41.0,74.0,3.522
-51.0,-16.0,3.523
-111.0,-56.0,3.524
-170.0,-41.0,3.525
-178.0,-4.0,3.526
-139.0,43.0,3.527
-66.0,95.0,3.528
51.0,131.0,3.529
202.0,145.0,3.53
300.0,152.0,3.531
270.0,127.0,3.532
148.0,30.0,3.533
34.0,-99.0,3.534
-23.0,-149.0,3.535
-37.0,-95.0,3.536
-26.0,-35.0,3.537
3.0,-36.0,3.538
19.0,-44.0,3.539
18.0,7.0,3.54
62.0,82.0,3.541
173.0,105.0,3.542
255.0,72.0,3.543
205.0,40.0,3.544
66.0,36.0,3.545
-31.0,35.0,3.546
-55.0,22.0,3.547
-76.0,14.0,3.548
-127.0,44.0,3.549
-167.0,92.0,3.55
-165.0,92.0,3.551
-150.0,17.0,3.552
-132.0,-75.0,3.553
-81.0,-104.0,3.554
10.0,-75.0,3.555
90.0,-48.0,3.556
111.0,-42.0,3.557
65.0,-38.0,3.558
-5.0,-32.0,3.559
-56.0,-40.0,3.56
-72.0,-36.0,3.561
-55.0,17.0,3.562
-14.0,74.0,3.563
32.0,59.0,3.564
52.0,-14.0,3.565
20.0,-61.0,3.566
-38.0,-52.0,3.567
-71.0,-49.0,3.568
-59.0,-82.0,3.569
-27.0,-99.0,3.57
-15.0,-59.0,3.571
-30.0,11.0,3.572
-61.0,59.0,3.573
-80.0,73.0,3.574
-60.0,78.0,3.575
0.0,90.0,3.576
68.0,100.0,3.577
109.0,91.0,3.578
125.0,68.0,3.579
131.0,47.0,3.58
105.0,43.0,3.581
73.0,48.0,3.582
23.0,33.0,3.583
-19.0,-5.0,3.584
-41.0,-44.0,3.585
-60.0,-62.0,3.586
-68.0,-55.0,3.587
-65.0,-43.0,3.588
-28.0,-42.0,3.589
6.0,-50.0,3.59
32.0,-52.0,3.591
52.0,-51.0,3.592
53.0,-64.0,3.593
46.0,-83.0,3.594
15.0,-77.0,3.595
-6.0,-33.0,3.596
5.0,13.0,3.597
16.0,31.0,3.598
14.0,32.0,3.599
10.0,36.0,3.6
-1.0,28.0,3.601
-13.0,-2.0,3.602
-10.0,-30.0,3.603
2.0,-32.0,3.604
0.0,-27.0,3.605
-18.0,-29.0,3.606
-24.0,-20.0,3.607
-14.0,13.0,3.608
-16.0,42.0,3.609
-36.0,37.0,3.61
-50.0,26.0,3.611
-43.0,37.0,3.612
-30.0,49.0,3.613
-12.0,32.0,3.614
27.0,5.0,3.615
72.0,5.0,3.616
91.0,25.0,3.617
79.0,32.0,3.618
69.0,23.0,3.619
71.0,9.0,3.62
62.0,-10.0,3.621
35.0,-30.0,3.622
14.0,-38.0,3.623
1.0,-23.0,3.624
-21.0,0.0,3.625
-50.0,8.0,3.626
-52.0,-4.0,3.627
-17.0,-23.0,3.628
18.0,-41.0,3.629
22.0,-52.0,3.63
9.0,-48.0,3.631
3.0,-29.0,3.632
6.0,-3.0,3.633
4.0,25.0,3.634
-4.0,48.0,3.635
-14.0,52.0,3.636
-22.0,38.0,3.637
-26.0,22.0,3.638
-22.0,20.0,3.639
-20.0,17.0,3.64
-24.0,-5.0,3.641
-32.0,-28.0,3.642
-31.0,-28.0,3.643
-23.0,-12.0,3.644
-21.0,-5.0,3.645
-24.0,-9.0,3.646
-26.0,-8.0,3.647
-28.0,2.0,3.648
-38.0,9.0,3.649
-47.0,4.0,3.65
-24.0,-3.0,3.651
39.0,-4.0,3.652
112.0,-1.0,3.653
138.0,4.0,3.654
104.0,8.0,3.655
48.0,4.0,3.656
13.0,-2.0,3.657
-6.0,-8.0,3.658
-30.0,-9.0,3.659
-48.0,-8.0,3.66
-46.0,-15.0,3.661
-34.0,-24.0,3.662
10.0,-28.0,3.663
47.0,-19.0,3.664
63.0,-5.0,3.665
70.0,-2.0,3.666
51.0,-17.0,3.667
33.0,-31.0,3.668
17.0,-19.0,3.669
6.0,10.0,3.67
12.0,29.0,3.671
15.0,30.0,3.672
3.0,34.0,3.673
-8.0,48.0,3.674
-20.0,51.0,3.675
-32.0,35.0,3.676
-44.0,24.0,3.677
-53.0,30.0,3.678
-49.0,30.0,3.679
-52.0,6.0,3.68
-53.0,-15.0,3.681
-39.0,-7.0,3.682
-15.0,14.0,3.683
-1.0,13.0,3.684
0.0,0.0,3.685
6.0,3.0,3.686
27.0,8.0,3.687
55.0,-6.0,3.688
65.0,-22.0,3.689
44.0,-15.0,3.69
15.0,0.0,3.691
7.0,-5.0,3.692
25.0,-21.0,3.693
35.0,-23.0,3.694
17.0,-10.0,3.695
-13.0,-3.0,3.696
-30.0,-6.0,3.697
-39.0,-8.0,3.698
-41.0,-5.0,3.699
-32.0,-5.0,3.7
-7.0,-11.0,3.701
16.0,-15.0,3.702
25.0,-15.0,3.703
24.0,-14.0,3.704
15.0,-8.0,3.705
-11.0,1.0,3.706
-43.0,3.0,3.707
-53.0,-7.0,3.708
-32.0,-16.0,3.709
-5.0,-12.0,3.71
8.0,-2.0,3.711
18.0,9.0,3.712
36.0,17.0,3.713
52.0,23.0,3.714
61.0,17.0,3.715
65.0,-1.0,3.716
66.0,-12.0,3.717
46.0,-13.0,3.718
1.0,-7.0,3.719
-43.0,-7.0,3.72
-61.0,-14.0,3.721
-55.0,-9.0,3.722
-40.0,8.0,3.723
-26.0,26.0,3.724
-14.0,34.0,3.725
-8.0,31.0,3.726
-6.0,24.0,3.727
1.0,18.0,3.728
12.0,16.0,3.729
11.0,18.0,3.73
-9.0,12.0,3.731
-24.0,-8.0,3.732
-11.0,-30.0,3.733
21.0,-37.0,3.734
43.0,-26.0,3.735
43.0,-13.0,3.736
37.0,-7.0,3.737
28.0,-9.0,3.738
17.0,-10.0,3.739
6.0,-4.0,3.74
-3.0,0.0,3.741
-10.0,4.0,3.742
-2.0,3.0,3.743
7.0,-3.0,3.744
19.0,-9.0,3.745
25.0,-11.0,3.746
14.0,-8.0,3.747
6.0,-4.0,3.748
8.0,-9.0,3.749
11.0,-16.0,3.75
10.0,-16.0,3.751
9.0,-6.0,3.752
7.0,4.0,3.753
8.0,5.0,3.754
16.0,3.0,3.755
19.0,2.0,3.756
5.0,3.0,3.757
-13.0,2.0,3.758
-30.0,4.0,3.759
-39.0,11.0,3.76
-40.0,14.0,3.761
-33.0,11.0,3.762
-5.0,5.0,3.763
46.0,3.0,3.764
97.0,6.0,3.765
123.0,7.0,3.766
108.0,5.0,3.767
56.0,4.0,3.768
-5.0,3.0,3.769
-47.0,0.0,3.77
-60.0,0.0,3.771
-61.0,3.0,3.772
-64.0,7.0,3.773
-62.0,6.0,3.774
-51.0,3.0,3.775
-45.0,0.0,3.776
-56.0,0.0,3.777
-77.0,-5.0,3.778
-80.0,-11.0,3.779
-67.0,-13.0,3.78
-46.0,-13.0,3.781
-21.0,-13.0,3.782
8.0,-12.0,3.783
32.0,-5.0,3.784
37.0,5.0,3.785
29.0,14.0,3.786
22.0,13.0,3.787
22.0,9.0,3.788
22.0,6.0,3.789
19.0,6.0,3.79
20.0,6.0,3.791
28.0,8.0,3.792
36.0,10.0,3.793
39.0,9.0,3.794
33.0,1.0,3.795
29.0,-6.0,3.796
28.0,-6.0,3.797
31.0,-3.0,3.798
33.0,-2.0,3.799
29.0,-8.0,3.8
21.0,-16.0,3.801
15.0,-16.0,3.802
17.0,-15.0,3.803
22.0,-17.0,3.804
21.0,-17.0,3.805
15.0,-13.0,3.806
5.0,-7.0,3.807
2.0,-7.0,3.808
2.0,-8.0,3.809
-2.0,-8.0,3.81
-7.0,-8.0,3.811
-5.0,-10.0,3.812
8.0,-8.0,3.813
21.0,0.0,3.814
20.0,7.0,3.815
8.0,7.0,3.816
1.0,6.0,3.817
3.0,9.0,3.818
3.0,16.0,3.819
4.0,16.0,3.82
12.0,8.0,3.821
26.0,3.0,3.822
59.0,8.0,3.823
79.0,13.0,3.824
53.0,16.0,3.825
26.0,17.0,3.826
-6.0,16.0,3.827
-34.0,12.0,3.828
-54.0,6.0,3.829
-66.0,4.0,3.83
-56.0,10.0,3.831
-48.0,11.0,3.832
-45.0,2.0,3.833
-47.0,-11.0,3.834
-71.0,-21.0,3.835
-88.0,-24.0,3.836
-84.0,-23.0,3.837
-74.0,-19.0,3.838
-53.0,-15.0,3.839
-27.0,-11.0,3.84
17.0,-9.0,3.841
77.0,-7.0,3.842
130.0,-5.0,3.843
142.0,-2.0,3.844
96.0,7.0,3.845
20.0,16.0,3.846
-42.0,21.0,3.847
-65.0,24.0,3.848
-62.0,16.0,3.849
-58.0,10.0,3.85
-53.0,9.0,3.851
-34.0,6.0,3.852
-6.0,-2.0,3.853
8.0,-10.0,3.854
2.0,-15.0,3.855
0.0,-23.0,3.856
14.0,-35.0,3.857
28.0,-45.0,3.858
26.0,-46.0,3.859
15.0,-30.0,3.86
14.0,-7.0,3.861
22.0,11.0,3.862
32.0,18.0,3.863
39.0,14.0,3.864
44.0,12.0,3.865
39.0,14.0,3.866
20.0,17.0,3.867
3.0,17.0,3.868
5.0,17.0,3.869
30.0,17.0,3.87
69.0,10.0,3.871
114.0,-3.0,3.872
145.0,-13.0,3.873
128.0,-15.0,3.874
58.0,-14.0,3.875
-23.0,-8.0,3.876
-70.0,2.0,3.877
-88.0,9.0,3.878
-98.0,5.0,3.879
-102.0,-4.0,3.88
-89.0,-11.0,3.881
-64.0,-6.0,3.882
-45.0,0.0,3.883
-34.0,3.0,3.884
-22.0,8.0,3.885
-19.0,12.0,3.886
-28.0,9.0,3.887
-36.0,-2.0,3.888
-26.0,-14.0,3.889
-17.0,-19.0,3.89
-26.0,-15.0,3.891
-41.0,-6.0,3.892
-33.0,4.0,3.893
-11.0,10.0,3.894
5.0,10.0,3.895
12.0,9.0,3.896
22.0,14.0,3.897
36.0,21.0,3.898
45.0,20.0,3.899
46.0,8.0,3.9
43.0,-7.0,3.901
39.0,-13.0,3.902
36.0,-15.0,3.903
35.0,-17.0,3.904
35.0,-20.0,3.905
27.0,-19.0,3.906
18.0,-15.0,3.907
19.0,-10.0,3.908
29.0,-11.0,3.909
35.0,-13.0,3.91
32.0,-16.0,3.911
32.0,-14.0,3.912
36.0,-8.0,3.913
31.0,-4.0,3.914
20.0,-3.0,3.915
18.0,-2.0,3.916
28.0,-2.0,3.917
30.0,-1.0,3.918
12.0,6.0,3.919
-4.0,16.0,3.92
-20.0,24.0,3.921
-30.0,23.0,3.922
-24.0,15.0,3.923
-19.0,14.0,3.924
-14.0,19.0,3.925
-11.0,24.0,3.926
-17.0,19.0,3.927
-22.0,11.0,3.928
-22.0,3.0,3.929
-23.0,0.0,3.93
-22.0,0.0,3.931
-19.0,2.0,3.932
-13.0,3.0,3.933
-8.0,0.0,3.934
-5.0,-2.0,3.935
0.0,1.0,3.936
10.0,9.0,3.937
23.0,11.0,3.938
56.0,5.0,3.939
97.0,-1.0,3.94
129.0,-9.0,3.941
127.0,-14.0,3.942
86.0,-9.0,3.943
26.0,-3.0,3.944
-29.0,2.0,3.945
-73.0,6.0,3.946
-99.0,-3.0,3.947
-106.0,-11.0,3.948
-104.0,-18.0,3.949
-104.0,-23.0,3.95
-96.0,-21.0,3.951
-75.0,-18.0,3.952
-51.0,-12.0,3.953
-37.0,-7.0,3.954
-26.0,-3.0,3.955
0.0,0.0,3.956
34.0,1.0,3.957
55.0,2.0,3.958
54.0,3.0,3.959
53.0,6.0,3.96
55.0,5.0,3.961
46.0,9.0,3.962
23.0,16.0,3.963
10.0,22.0,3.964
15.0,17.0,3.965
18.0,6.0,3.966
2.0,-6.0,3.967
-20.0,-13.0,3.968
-33.0,-19.0,3.969
-37.0,-20.0,3.97
-36.0,-11.0,3.971
-28.0,-2.0,3.972
-7.0,0.0,3.973
12.0,-10.0,3.974
10.0,-16.0,3.975
-5.0,-12.0,3.976
-14.0,-4.0,3.977
-9.0,-4.0,3.978
-1.0,-10.0,3.979
7.0,-7.0,3.98
25.0,4.0,3.981
53.0,13.0,3.982
71.0,12.0,3.983
61.0,4.0,3.984
30.0,0.0,3.985
10.0,3.0,3.986
18.0,2.0,3.987
37.0,-5.0,3.988
41.0,-7.0,3.989
21.0,-1.0,3.99
-6.0,5.0,3.991
-31.0,9.0,3.992
-54.0,14.0,3.993
-77.0,22.0,3.994
-83.0,22.0,3.995
-59.0,10.0,3.996
-25.0,1.0,3.997
-8.0,0.0,3.998
-14.0,3.0,3.999
-19.0,1.0,4.0
-19.0,-6.0,4.001
-15.0,-11.0,4.002
2.0,-19.0,4.003
22.0,-27.0,4.004
43.0,-24.0,4.005
60.0,-12.0,4.006
66.0,-4.0,4.007
67.0,-4.0,4.008
51.0,-2.0,4.009
36.0,7.0,4.01
29.0,14.0,4.011
22.0,9.0,4.012
12.0,-6.0,4.013
3.0,-20.0,4.014
-2.0,-33.0,4.015
-6.0,-35.0,4.016
-3.0,-20.0,4.017
1.0,1.0,4.018
-1.0,10.0,4.019
-6.0,-1.0,4.02
-10.0,-16.0,4.021
-8.0,-14.0,4.022
-3.0,-3.0,4.023
0.0,4.0,4.024
2.0,1.0,4.025
3.0,-4.0,4.026
3.0,-3.0,4.027
2.0,5.0,4.028
0.0,19.0,4.029
2.0,37.0,4.03
8.0,43.0,4.031
12.0,33.0,4.032
10.0,18.0,4.033
2.0,11.0,4.034
-9.0,9.0,4.035
-22.0,-3.0,4.036
-26.0,-20.0,4.037
-78.0,-32.0,4.038
-73.0,-23.0,4.039
-63.0,-3.0,4.04
-41.0,7.0,4.041
-18.0,6.0,4.042
8.0,1.0,4.043
32.0,1.0,4.044
56.0,7.0,4.045
79.0,6.0,4.046
94.0,-5.0,4.047
107.0,-12.0,4.048
105.0,-7.0,4.049
94.0,8.0,4.05
55.0,14.0,4.051
20.0,11.0,4.052
-2.0,5.0,4.053
-23.0,1.0,4.054
-40.0,-3.0,4.055
-47.0,-5.0,4.056
-20.0,-3.0,4.057
-88.0,-3.0,4.058
-82.0,-5.0,4.059
-71.0,-8.0,4.06
-47.0,-9.0,4.061
-22.0,-12.0,4.062
7.0,-14.0,4.063
35.0,-14.0,4.064
61.0,-6.0,4.065
86.0,1.0,4.066
103.0,11.0,4.067
117.0,20.0,4.068
115.0,26.0,4.069
103.0,29.0,4.07
60.0,21.0,4.071
21.0,13.0,4.072
-4.0,5.0,4.073
-27.0,-1.0,4.074
-46.0,-10.0,4.075
-54.0,-18.0,4.076
-24.0,-24.0,4.077
5.0,-4.0,4.078
20.0,-7.0,4.079
22.0,-10.0,4.08
34.0,-12.0,4.081
57.0,-15.0,4.082
77.0,-18.0,4.083
75.0,-18.0,4.084
47.0,-8.0,4.085
0.0,2.0,4.086
-45.0,14.0,4.087
-69.0,25.0,4.088
-74.0,33.0,4.089
-77.0,36.0,4.09
-84.0,26.0,4.091
-87.0,16.0,4.092
-81.0,7.0,4.093
-62.0,-2.0,4.094
-33.0,-13.0,4.095
3.0,-23.0,4.096
34.0,-30.0,4.097
50.0,-33.0,4.098
59.0,-19.0,4.099
63.0,-7.0,4.1
64.0,-12.0,4.101
66.0,-19.0,4.102
70.0,-6.0,4.103
68.0,24.0,4.104
45.0,41.0,4.105
3.0,31.0,4.106
-27.0,15.0,4.107
-36.0,17.0,4.108
-37.0,27.0,4.109
-46.0,24.0,4.11
-50.0,4.0,4.111
-39.0,-23.0,4.112
-18.0,-50.0,4.113
1.0,-62.0,4.114
32.0,-47.0,4.115
76.0,-17.0,4.116
108.0,5.0,4.117
101.0,9.0,4.118
62.0,7.0,4.119
20.0,8.0,4.12
0.0,9.0,4.121
-3.0,9.0,4.122
-7.0,8.0,4.123
-16.0,12.0,4.124
-33.0,14.0,4.125
-55.0,13.0,4.126
-66.0,9.0,4.127
-55.0,0.0,4.128
-30.0,-7.0,4.129
-3.0,-5.0,4.13
21.0,1.0,4.131
40.0,1.0,4.132
38.0,-5.0,4.133
9.0,-7.0,4.134
-25.0,4.0,4.135
-30.0,14.0,4.136
-3.0,14.0,4.137
27.0,12.0,4.138
38.0,16.0,4.139
21.0,28.0,4.14
-8.0,32.0,4.141
-29.0,34.0,4.142
-30.0,29.0,4.143
-18.0,14.0,4.144
-17.0,-5.0,4.145
-33.0,-12.0,4.146
-40.0,-7.0,4.147
-17.0,-4.0,4.148
12.0,-13.0,4.149
20.0,-28.0,4.15
17.0,-40.0,4.151
25.0,-48.0,4.152
36.0,-55.0,4.153
23.0,-51.0,4.154
-9.0,-35.0,4.155
-13.0,-19.0,4.156
28.0,-12.0,4.157
86.0,-14.0,4.158
99.0,-13.0,4.159
37.0,-12.0,4.16
-52.0,-16.0,4.161
-97.0,-12.0,4.162
-76.0,6.0,4.163
-32.0,28.0,4.164
-11.0,40.0,4.165
-6.0,36.0,4.166
1.0,27.0,4.167
-2.0,15.0,4.168
-32.0,10.0,4.169
-55.0,16.0,4.17
-36.0,25.0,4.171
9.0,24.0,4.172
26.0,8.0,4.173
8.0,-10.0,4.174
-6.0,-17.0,4.175
1.0,-15.0,4.176
14.0,-13.0,4.177
14.0,-17.0,4.178
9.0,-18.0,4.179
15.0,-15.0,4.18
26.0,-14.0,4.181
34.0,-7.0,4.182
32.0,4.0,4.183
20.0,13.0,4.184
6.0,12.0,4.185
0.0,8.0,4.186
2.0,10.0,4.187
2.0,15.0,4.188
5.0,16.0,4.189
28.0,18.0,4.19
75.0,24.0,4.191
131.0,24.0,4.192
169.0,7.0,4.193
172.0,-12.0,4.194
143.0,-20.0,4.195
85.0,-14.0,4.196
13.0,-9.0,4.197
-68.0,-9.0,4.198
-131.0,-8.0,4.199
-153.0,-10.0,4.2
-141.0,-27.0,4.201
-130.0,-40.0,4.202
-137.0,-31.0,4.203
-146.0,-7.0,4.204
-132.0,10.0,4.205
-98.0,16.0,4.206
-68.0,15.0,4.207
-50.0,10.0,4.208
-33.0,-4.0,4.209
-11.0,-15.0,4.21
15.0,-9.0,4.211
37.0,10.0,4.212
57.0,25.0,4.213
67.0,26.0,4.214
72.0,25.0,4.215
78.0,34.0,4.216
87.0,47.0,4.217
93.0,51.0,4.218
83.0,42.0,4.219
48.0,25.0,4.22
1.0,5.0,4.221
-23.0,-9.0,4.222
-1.0,-35.0,4.223
45.0,-68.0,4.224
71.0,-84.0,4.225
71.0,-70.0,4.226
69.0,-42.0,4.227
79.0,-31.0,4.228
70.0,-33.0,4.229
20.0,-25.0,4.23
-45.0,-6.0,4.231
-81.0,6.0,4.232
-86.0,5.0,4.233
-83.0,4.0,4.234
-76.0,7.0,4.235
-49.0,7.0,4.236
-17.0,5.0,4.237
-4.0,5.0,4.238
-11.0,12.0,4.239
-9.0,18.0,4.24
14.0,18.0,4.241
32.0,23.0,4.242
21.0,30.0,4.243
1.0,35.0,4.244
-3.0,34.0,4.245
15.0,32.0,4.246
42.0,28.0,4.247
62.0,20.0,4.248
65.0,12.0,4.249
44.0,12.0,4.25
19.0,17.0,4.251
17.0,18.0,4.252
37.0,9.0,4.253
47.0,-8.0,4.254
33.0,-28.0,4.255
6.0,-40.0,4.256
-14.0,-38.0,4.257
-38.0,-34.0,4.258
-74.0,-36.0,4.259
-104.0,-42.0,4.26
-105.0,-41.0,4.261
-83.0,-23.0,4.262
-60.0,-8.0,4.263
-45.0,-8.0,4.264
-30.0,-10.0,4.265
-18.0,-5.0,4.266
-16.0,7.0,4.267
-19.0,12.0,4.268
-10.0,15.0,4.269
10.0,20.0,4.27
22.0,25.0,4.271
22.0,22.0,4.272
20.0,19.0,4.273
31.0,27.0,4.274
42.0,34.0,4.275
34.0,31.0,4.276
16.0,16.0,4.277
4.0,-2.0,4.278
15.0,-20.0,4.279
31.0,-32.0,4.28
40.0,-33.0,4.281
47.0,-17.0,4.282
67.0,0.0,4.283
96.0,-1.0,4.284
111.0,-9.0,4.285
96.0,-13.0,4.286
58.0,-12.0,4.287
20.0,-14.0,4.288
-6.0,-15.0,4.289
-29.0,-13.0,4.29
-58.0,-14.0,4.291
-80.0,-24.0,4.292
-75.0,-26.0,4.293
-29.0,-12.0,4.294
41.0,3.0,4.295
97.0,7.0,4.296
114.0,6.0,4.297
105.0,8.0,4.298
102.0,15.0,4.299
105.0,21.0,4.3
72.0,20.0,4.301
-3.0,22.0,4.302
-81.0,23.0,4.303
-132.0,25.0,4.304
-182.0,30.0,4.305
-251.0,37.0,4.306
-292.0,35.0,4.307
-262.0,22.0,4.308
-193.0,12.0,4.309
-140.0,12.0,4.31
-105.0,14.0,4.311
-64.0,7.0,4.312
-28.0,-2.0,4.313
-9.0,-8.0,4.314
11.0,-15.0,4.315
57.0,-23.0,4.316
100.0,-22.0,4.317
109.0,-12.0,4.318
100.0,2.0,4.319
103.0,13.0,4.32
108.0,17.0,4.321
90.0,14.0,4.322
71.0,-3.0,4.323
85.0,-32.0,4.324
116.0,-50.0,4.325
122.0,-44.0,4.326
105.0,-26.0,4.327
103.0,-17.0,4.328
116.0,-20.0,4.329
104.0,-27.0,4.33
56.0,-37.0,4.331
3.0,-51.0,4.332
-28.0,-62.0,4.333
-40.0,-58.0,4.334
-34.0,-38.0,4.335
-10.0,-11.0,4.336
17.0,11.0,4.337
16.0,20.0,4.338
-9.0,16.0,4.339
-26.0,9.0,4.34
-19.0,7.0,4.341
-7.0,15.0,4.342
-9.0,28.0,4.343
-17.0,38.0,4.344
-3.0,50.0,4.345
41.0,59.0,4.346
103.0,59.0,4.347
138.0,49.0,4.348
113.0,38.0,4.349
30.0,27.0,4.35
-64.0,15.0,4.351
-122.0,6.0,4.352
-141.0,5.0,4.353
-140.0,5.0,4.354
-127.0,-4.0,4.355
-100.0,-20.0,4.356
-71.0,-31.0,4.357
-51.0,-38.0,4.358
-41.0,-42.0,4.359
-37.0,-40.0,4.36
-28.0,-35.0,4.361
-7.0,-25.0,4.362
32.0,-19.0,4.363
78.0,-17.0,4.364
97.0,-4.0,4.365
69.0,18.0,4.366
13.0,34.0,4.367
-36.0,34.0,4.368
-61.0,29.0,4.369
-70.0,25.0,4.37
-69.0,22.0,4.371
-55.0,18.0,4.372
-28.0,17.0,4.373
7.0,16.0,4.374
42.0,7.0,4.375
82.0,-13.0,4.376
135.0,-30.0,4.377
188.0,-40.0,4.378
187.0,-39.0,4.379
91.0,-31.0,4.38
-43.0,-18.0,4.381
-115.0,-2.0,4.382
-96.0,12.0,4.383
-63.0,16.0,4.384
-84.0,18.0,4.385
-136.0,17.0,4.386
-155.0,19.0,4.387
-117.0,25.0,4.388
-43.0,28.0,4.389
28.0,16.0,4.39
67.0,-19.0,4.391
71.0,-58.0,4.392
69.0,-67.0,4.393
79.0,-48.0,4.394
82.0,-31.0,4.395
59.0,-28.0,4.396
34.0,-18.0,4.397
25.0,14.0,4.398
23.0,49.0,4.399
11.0,57.0,4.4
4.0,37.0,4.401
28.0,18.0,4.402
57.0,2.0,4.403
48.0,-24.0,4.404
16.0,-61.0,4.405
-1.0,-81.0,4.406
4.0,-75.0,4.407
3.0,-47.0,4.408
-9.0,-10.0,4.409
-9.0,22.0,4.41
18.0,35.0,4.411
54.0,31.0,4.412
79.0,22.0,4.413
79.0,17.0,4.414
46.0,12.0,4.415
-12.0,4.0,4.416
-53.0,1.0,4.417
-48.0,6.0,4.418
2.0,10.0,4.419
62.0,6.0,4.42
98.0,0.0,4.421
100.0,6.0,4.422
59.0,15.0,4.423
-19.0,20.0,4.424
-104.0,24.0,4.425
-161.0,30.0,4.426
-183.0,33.0,4.427
-180.0,25.0,4.428
-159.0,15.0,4.429
-121.0,13.0,4.43
-73.0,15.0,4.431
-22.0,10.0,4.432
33.0,-1.0,4.433
83.0,-13.0,4.434
105.0,-15.0,4.435
84.0,-8.0,4.436
42.0,4.0,4.437
2.0,14.0,4.438
-13.0,12.0,4.439
-14.0,0.0,4.44
-18.0,-13.0,4.441
-21.0,-8.0,4.442
1.0,6.0,4.443
42.0,9.0,4.444
62.0,-7.0,4.445
34.0,-25.0,4.446
-5.0,-36.0,4.447
-11.0,-43.0,4.448
10.0,-53.0,4.449
7.0,-59.0,4.45
-20.0,-45.0,4.451
-30.0,-16.0,4.452
-2.0,10.0,4.453
26.0,28.0,4.454
26.0,41.0,4.455
10.0,45.0,4.456
1.0,31.0,4.457
0.0,-3.0,4.458
3.0,-28.0,4.459
11.0,-26.0,4.46
21.0,-13.0,4.461
22.0,-11.0,4.462
22.0,-19.0,4.463
33.0,-16.0,4.464
65.0,-4.0,4.465
98.0,2.0,4.466
111.0,-4.0,4.467
96.0,-10.0,4.468
67.0,-9.0,4.469
40.0,-11.0,4.47
22.0,-16.0,4.471
-2.0,-15.0,4.472
-39.0,-8.0,4.473
-74.0,-4.0,4.474
-90.0,-8.0,4.475
-76.0,-2.0,4.476
-43.0,11.0,4.477
-8.0,17.0,4.478
3.0,10.0,4.479
-18.0,2.0,4.48
-44.0,3.0,4.481
-32.0,13.0,4.482
6.0,25.0,4.483
26.0,36.0,4.484
28.0,46.0,4.485
77.0,46.0,4.486
186.0,43.0,4.487
246.0,45.0,4.488
154.0,52.0,4.489
-38.0,45.0,4.49
-173.0,22.0,4.491
-192.0,-6.0,4.492
-176.0,-32.0,4.493
-200.0,-52.0,4.494
-230.0,-63.0,4.495
-206.0,-57.0,4.496
-145.0,-43.0,4.497
-88.0,-36.0,4.498
-50.0,-37.0,4.499
-21.0,-36.0,4.5
-23.0,-25.0,4.501
-18.0,-6.0,4.502
11.0,13.0,4.503
40.0,30.0,4.504
64.0,41.0,4.505
82.0,41.0,4.506
83.0,34.0,4.507
85.0,29.0,4.508
86.0,29.0,4.509
84.0,26.0,4.51
72.0,17.0,4.511
62.0,10.0,4.512
64.0,7.0,4.513
62.0,-1.0,4.514
47.0,-26.0,4.515
35.0,-59.0,4.516
35.0,-72.0,4.517
35.0,-60.0,4.518
33.0,-33.0,4.519
31.0,-14.0,4.52
25.0,-15.0,4.521
15.0,-14.0,4.522
14.0,-6.0,4.523
18.0,4.0,4.524
13.0,11.0,4.525
-6.0,16.0,4.526
-17.0,17.0,4.527
-5.0,9.0,4.528
18.0,1.0,4.529
39.0,4.0,4.53
57.0,9.0,4.531
68.0,5.0,4.532
64.0,-6.0,4.533
43.0,-9.0,4.534
7.0,-3.0,4.535
-27.0,0.0,4.536
-39.0,-2.0,4.537
-23.0,-5.0,4.538
-5.0,3.0,4.539
-13.0,13.0,4.54
-39.0,20.0,4.541
-51.0,26.0,4.542
-44.0,33.0,4.543
-41.0,38.0,4.544
-44.0,44.0,4.545
-29.0,46.0,4.546
3.0,39.0,4.547
18.0,27.0,4.548
-6.0,12.0,4.549
-42.0,4.0,4.55
-57.0,-2.0,4.551
-51.0,-16.0,4.552
-37.0,-33.0,4.553
-16.0,-45.0,4.554
17.0,-45.0,4.555
52.0,-39.0,4.556
65.0,-32.0,4.557
43.0,-21.0,4.558
12.0,-9.0,4.559
3.0,-4.0,4.56
26.0,-7.0,4.561
60.0,-9.0,4.562
76.0,-13.0,4.563
59.0,-22.0,4.564
16.0,-24.0,4.565
-32.0,-8.0,4.566
-60.0,17.0,4.567
-63.0,27.0,4.568
-65.0,6.0,4.569
-87.0,-17.0,4.57
-114.0,-22.0,4.571
-121.0,-11.0,4.572
-114.0,-3.0,4.573
-104.0,-2.0,4.574
-85.0,-1.0,4.575
-49.0,0.0,4.576
-15.0,2.0,4.577
2.0,4.0,4.578
24.0,10.0,4.579
73.0,11.0,4.58
135.0,5.0,4.581
163.0,11.0,4.582
140.0,34.0,4.583
94.0,56.0,4.584
50.0,65.0,4.585
20.0,66.0,4.586
-2.0,60.0,4.587
-14.0,32.0,4.588
-17.0,-14.0,4.589
-11.0,-60.0,4.59
2.0,-80.0,4.591
16.0,-82.0,4.592
28.0,-80.0,4.593
36.0,-71.0,4.594
38.0,-45.0,4.595
33.0,-14.0,4.596
33.0,0.0,4.597
40.0,-5.0,4.598
50.0,-12.0,4.599
51.0,-6.0,4.6
57.0,-1.0,4.601
88.0,-1.0,4.602
130.0,5.0,4.603
142.0,21.0,4.604
101.0,32.0,4.605
21.0,20.0,4.606
-70.0,6.0,4.607
-155.0,9.0,4.608
-210.0,21.0,4.609
-208.0,19.0,4.61
-157.0,7.0,4.611
-101.0,5.0,4.612
-76.0,12.0,4.613
-66.0,13.0,4.614
-44.0,6.0,4.615
-13.0,7.0,4.616
7.0,18.0,4.617
17.0,24.0,4.618
27.0,19.0,4.619
31.0,11.0,4.62
23.0,12.0,4.621
15.0,33.0,4.622
21.0,54.0,4.623
32.0,59.0,4.624
24.0,43.0,4.625
4.0,12.0,4.626
13.0,-15.0,4.627
55.0,-37.0,4.628
97.0,-58.0,4.629
101.0,-76.0,4.63
67.0,-86.0,4.631
24.0,-84.0,4.632
-1.0,-70.0,4.633
0.0,-44.0,4.634
10.0,-16.0,4.635
9.0,-3.0,4.636
-2.0,0.0,4.637
-10.0,5.0,4.638
-1.0,24.0,4.639
12.0,42.0,4.64
14.0,41.0,4.641
6.0,31.0,4.642
5.0,23.0,4.643
6.0,12.0,4.644
0.0,0.0,4.645
-16.0,-1.0,4.646
-21.0,12.0,4.647
-15.0,23.0,4.648
-10.0,13.0,4.649
-11.0,-9.0,4.65
-7.0,-20.0,4.651
7.0,-21.0,4.652
26.0,-19.0,4.653
44.0,-15.0,4.654
61.0,-4.0,4.655
68.0,7.0,4.656
54.0,12.0,4.657
12.0,8.0,4.658
-46.0,8.0,4.659
-95.0,16.0,4.66
-116.0,14.0,4.661
-110.0,0.0,4.662
-94.0,-14.0,4.663
-79.0,-24.0,4.664
-60.0,-23.0,4.665
-33.0,-17.0,4.666
-8.0,-8.0,4.667
17.0,1.0,4.668
54.0,7.0,4.669
104.0,10.0,4.67
136.0,13.0,4.671
108.0,14.0,4.672
33.0,12.0,4.673
-39.0,6.0,4.674
-78.0,3.0,4.675
-97.0,6.0,4.676
-107.0,12.0,4.677
-104.0,7.0,4.678
-76.0,-8.0,4.679
-35.0,-21.0,4.68
4.0,-26.0,4.681
36.0,-22.0,4.682
56.0,-23.0,4.683
63.0,-24.0,4.684
59.0,-16.0,4.685
61.0,-1.0,4.686
71.0,8.0,4.687
79.0,18.0,4.688
83.0,35.0,4.689
76.0,50.0,4.69
45.0,41.0,4.691
-7.0,16.0,4.692
-48.0,1.0,4.693
-49.0,5.0,4.694
-25.0,9.0,4.695
-8.0,-1.0,4.696
1.0,-15.0,4.697
17.0,-21.0,4.698
28.0,-23.0,4.699
15.0,-30.0,4.7
-9.0,-43.0,4.701
-9.0,-47.0,4.702
18.0,-38.0,4.703
36.0,-23.0,4.704
24.0,-10.0,4.705
-1.0,1.0,4.706
-16.0,11.0,4.707
-17.0,13.0,4.708
-3.0,8.0,4.709
24.0,5.0,4.71
51.0,17.0,4.711
59.0,37.0,4.712
44.0,47.0,4.713
26.0,42.0,4.714
16.0,30.0,4.715
4.0,17.0,4.716
-13.0,5.0,4.717
-36.0,-16.0,4.718
-49.0,-37.0,4.719
-44.0,-47.0,4.72
-22.0,-44.0,4.721
-4.0,-21.0,4.722
-4.0,7.0,4.723
-14.0,27.0,4.724
-16.0,21.0,4.725
-12.0,0.0,4.726
-9.0,-8.0,4.727
1.0,-1.0,4.728
25.0,11.0,4.729
39.0,15.0,4.73
16.0,16.0,4.731
-22.0,16.0,4.732
-29.0,11.0,4.733
-7.0,1.0,4.734
-3.0,-8.0,4.735
-31.0,-12.0,4.736
-51.0,-10.0,4.737
-39.0,-9.0,4.738
-12.0,-6.0,4.739
10.0,-1.0,4.74
38.0,-7.0,4.741
74.0,-16.0,4.742
81.0,-20.0,4.743
38.0,-12.0,4.744
-22.0,0.0,4.745
-51.0,6.0,4.746
-48.0,6.0,4.747
-45.0,5.0,4.748
-52.0,5.0,4.749
-52.0,4.0,4.75
-33.0,3.0,4.751
0.0,1.0,4.752
36.0,2.0,4.753
71.0,3.0,4.754
107.0,-2.0,4.755
137.0,-4.0,4.756
142.0,-2.0,4.757
101.0,6.0,4.758
19.0,11.0,4.759
-76.0,4.0,4.76
-140.0,-8.0,4.761
-155.0,-10.0,4.762
-132.0,-6.0,4.763
-103.0,-5.0,4.764
-89.0,-10.0,4.765
-77.0,-11.0,4.766
-41.0,-6.0,4.767
25.0,-2.0,4.768
83.0,-2.0,4.769
105.0,3.0,4.77
97.0,10.0,4.771
79.0,7.0,4.772
57.0,-3.0,4.773
28.0,-6.0,4.774
5.0,3.0,4.775
-5.0,6.0,4.776
-3.0,0.0,4.777
4.0,-7.0,4.778
13.0,-6.0,4.779
11.0,-1.0,4.78
-2.0,-1.0,4.781
-10.0,2.0,4.782
1.0,5.0,4.783
25.0,1.0,4.784
42.0,-2.0,4.785
42.0,2.0,4.786
36.0,10.0,4.787
25.0,6.0,4.788
10.0,-8.0,4.789
0.0,-18.0,4.79
-4.0,-16.0,4.791
-14.0,-10.0,4.792
-36.0,-4.0,4.793
-51.0,1.0,4.794
-42.0,0.0,4.795
-14.0,-8.0,4.796
19.0,-11.0,4.797
54.0,-6.0,4.798
86.0,3.0,4.799
86.0,7.0,4.8
48.0,3.0,4.801
6.0,5.0,4.802
6.0,10.0,4.803
41.0,16.0,4.804
53.0,20.0,4.805
5.0,12.0,4.806
-64.0,-3.0,4.807
-90.0,-9.0,4.808
-61.0,1.0,4.809
-27.0,18.0,4.81
-32.0,14.0,4.811
-59.0,-4.0,4.812
-73.0,-10.0,4.813
-63.0,1.0,4.814
-38.0,12.0,4.815
-7.0,6.0,4.816
25.0,0.0,4.817
39.0,1.0,4.818
31.0,4.0,4.819
19.0,0.0,4.82
20.0,-7.0,4.821
26.0,-3.0,4.822
25.0,2.0,4.823
20.0,0.0,4.824
19.0,2.0,4.825
22.0,11.0,4.826
29.0,19.0,4.827
38.0,13.0,4.828
42.0,-4.0,4.829
29.0,-20.0,4.83
10.0,-31.0,4.831
7.0,-40.0,4.832
8.0,-52.0,4.833
-7.0,-60.0,4.834
-31.0,-53.0,4.835
-37.0,-29.0,4.836
-23.0,0.0,4.837
-23.0,16.0,4.838
-47.0,14.0,4.839
-72.0,3.0,4.84
-72.0,-3.0,4.841
-50.0,-5.0,4.842
-23.0,-6.0,4.843
9.0,-1.0,4.844
39.0,14.0,4.845
56.0,32.0,4.846
60.0,35.0,4.847
66.0,28.0,4.848
80.0,25.0,4.849
88.0,29.0,4.85
68.0,26.0,4.851
17.0,14.0,4.852
-47.0,2.0,4.853
-84.0,-3.0,4.854
-69.0,-6.0,4.855
-25.0,-8.0,4.856
5.0,-7.0,4.857
-10.0,-6.0,4.858
-49.0,-8.0,4.859
-78.0,-12.0,4.86
-70.0,-17.0,4.861
-42.0,-10.0,4.862
-19.0,1.0,4.863
-3.0,9.0,4.864
11.0,14.0,4.865
31.0,14.0,4.866
54.0,10.0,4.867
72.0,3.0,4.868
84.0,3.0,4.869
89.0,11.0,4.87
79.0,16.0,4.871
44.0,14.0,4.872
0.0,12.0,4.873
-27.0,12.0,4.874
-30.0,6.0,4.875
-24.0,-12.0,4.876
-20.0,-28.0,4.877
-6.0,-36.0,4.878
23.0,-33.0,4.879
39.0,-26.0,4.88
24.0,-27.0,4.881
2.0,-29.0,4.882
12.0,-23.0,4.883
51.0,-9.0,4.884
73.0,4.0,4.885
48.0,8.0,4.886
-4.0,3.0,4.887
-44.0,-1.0,4.888
-54.0,5.0,4.889
-42.0,13.0,4.89
-23.0,16.0,4.891
-7.0,15.0,4.892
-3.0,14.0,4.893
-24.0,13.0,4.894
-61.0,8.0,4.895
-88.0,0.0,4.896
-81.0,-5.0,4.897
-56.0,-10.0,4.898
-29.0,-13.0,4.899
-6.0,-8.0,4.9
34.0,1.0,4.901
104.0,11.0,4.902
188.0,11.0,4.903
237.0,7.0,4.904
210.0,6.0,4.905
115.0,9.0,4.906
6.0,13.0,4.907
-65.0,11.0,4.908
-111.0,0.0,4.909
-165.0,-20.0,4.91
-214.0,-36.0,4.911
-214.0,-32.0,4.912
-157.0,-16.0,4.913
-81.0,-11.0,4.914
-26.0,-18.0,4.915
0.0,-14.0,4.916
12.0,8.0,4.917
32.0,28.0,4.918
64.0,24.0,4.919
93.0,12.0,4.92
106.0,14.0,4.921
111.0,22.0,4.922
107.0,10.0,4.923
76.0,-7.0,4.924
14.0,-3.0,4.925
-41.0,16.0,4.926
-47.0,20.0,4.927
-17.0,5.0,4.928
18.0,-2.0,4.929
55.0,1.0,4.93
79.0,-3.0,4.931
64.0,-23.0,4.932
11.0,-37.0,4.933
-10.0,-36.0,4.934
29.0,-32.0,4.935
65.0,-27.0,4.936
34.0,-12.0,4.937
-45.0,13.0,4.938
-99.0,29.0,4.939
-105.0,21.0,4.94
-82.0,4.0,4.941
-43.0,0.0,4.942
-1.0,0.0,4.943
-7.0,-2.0,4.944
-79.0,-5.0,4.945
-143.0,-6.0,4.946
-113.0,-13.0,4.947
-21.0,-21.0,4.948
35.0,-7.0,4.949
23.0,28.0,4.95
-2.0,49.0,4.951
20.0,39.0,4.952
96.0,22.0,4.953
180.0,14.0,4.954
202.0,8.0,4.955
122.0,-10.0,4.956
-10.0,-17.0,4.957
-119.0,3.0,4.958
-150.0,32.0,4.959
-125.0,30.0,4.96
-88.0,-2.0,4.961
-28.0,-30.0,4.962
67.0,-42.0,4.963
161.0,-49.0,4.964
195.0,-52.0,4.965
172.0,-45.0,4.966
127.0,-27.0,4.967
70.0,-15.0,4.968
-16.0,-10.0,4.969
-104.0,1.0,4.97
-117.0,20.0,4.971
-32.0,32.0,4.972
76.0,31.0,4.973
123.0,24.0,4.974
111.0,23.0,4.975
97.0,26.0,4.976
115.0,20.0,4.977
146.0,4.0,4.978
156.0,-5.0,4.979
93.0,-4.0,4.98
-72.0,-6.0,4.981
-286.0,-12.0,4.982
-418.0,-17.0,4.983
-398.0,-15.0,4.984
-290.0,-8.0,4.985
-196.0,-8.0,4.986
-139.0,-13.0,4.987
-83.0,-14.0,4.988
-14.0,-3.0,4.989
39.0,9.0,4.99
66.0,9.0,4.991
62.0,-2.0,4.992
28.0,-7.0,4.993
-14.0,2.0,4.994
-15.0,23.0,4.995
31.0,41.0,4.996
83.0,58.0,4.997
118.0,73.0,4.998
140.0,77.0,4.999
137.0,53.0,5.0
85.0,15.0,5.001
16.0,-11.0,5.002
-1.0,-24.0,5.003
37.0,-34.0,5.004
72.0,-44.0,5.005
82.0,-38.0,5.006
86.0,-21.0,5.007
76.0,-16.0,5.008
24.0,-31.0,5.009
-35.0,-48.0,5.01
-41.0,-45.0,5.011
-7.0,-32.0,5.012
-1.0,-29.0,5.013
-26.0,-37.0,5.014
-29.0,-40.0,5.015
23.0,-29.0,5.016
102.0,-5.0,5.017
167.0,14.0,5.018
165.0,16.0,5.019
72.0,4.0,5.02
-46.0,-9.0,5.021
-86.0,-8.0,5.022
-37.0,0.0,5.023
-4.0,14.0,5.024
-73.0,35.0,5.025
-199.0,54.0,5.026
-262.0,62.0,5.027
-210.0,61.0,5.028
-92.0,56.0,5.029
14.0,47.0,5.03
77.0,25.0,5.031
111.0,-8.0,5.032
134.0,-35.0,5.033
138.0,-46.0,5.034
104.0,-44.0,5.035
37.0,-32.0,5.036
-19.0,-11.0,5.037
-32.0,14.0,5.038
9.0,28.0,5.039
57.0,17.0,5.04
49.0,-6.0,5.041
-13.0,-19.0,5.042
-71.0,-20.0,5.043
-89.0,-26.0,5.044
-110.0,-42.0,5.045
-163.0,-54.0,5.046
-202.0,-47.0,5.047
-173.0,-25.0,5.048
-97.0,-6.0,5.049
-35.0,5.0,5.05
4.0,8.0,5.051
73.0,8.0,5.052
195.0,5.0,5.053
322.0,8.0,5.054
366.0,22.0,5.055
304.0,35.0,5.056
220.0,33.0,5.057
172.0,10.0,5.058
123.0,-13.0,5.059
-31.0,-21.0,5.06
-260.0,-21.0,5.061
-399.0,-24.0,5.062
-355.0,-29.0,5.063
-230.0,-19.0,5.064
-151.0,4.0,5.065
-102.0,27.0,5.066
-2.0,32.0,5.067
123.0,25.0,5.068
174.0,14.0,5.069
118.0,-3.0,5.07
20.0,-20.0,5.071
-45.0,-18.0,5.072
-36.0,18.0,5.073
60.0,69.0,5.074
188.0,100.0,5.075
238.0,100.0,5.076
159.0,90.0,5.077
17.0,78.0,5.078
-53.0,64.0,5.079
-14.0,35.0,5.08
30.0,-14.0,5.081
-21.0,-72.0,5.082
-140.0,-136.0,5.083
-219.0,-178.0,5.084
-200.0,-162.0,5.085
-117.0,-94.0,5.086
-27.0,-32.0,5.087
48.0,-18.0,5.088
118.0,-31.0,5.089
174.0,-21.0,5.09
206.0,7.0,5.091
204.0,23.0,5.092
175.0,15.0,5.093
130.0,5.0,5.094
77.0,8.0,5.095
17.0,23.0,5.096
-44.0,41.0,5.097
-91.0,57.0,5.098
-111.0,69.0,5.099
-146.0,73.0,5.1
-228.0,72.0,5.101
-281.0,64.0,5.102
-245.0,41.0,5.103
-182.0,12.0,5.104
-43.0,-6.0,5.105
75.0,-14.0,5.106
130.0,-29.0,5.107
188.0,-46.0,5.108
255.0,-49.0,5.109
257.0,-39.0,5.11
62.0,-37.0,5.111
-91.0,-43.0,5.112
-120.0,-36.0,5.113
-148.0,-23.0,5.114
-173.0,-22.0,5.115
-191.0,-22.0,5.116
-185.0,3.0,5.117
-136.0,45.0,5.118
26.0,70.0,5.119
81.0,67.0,5.12
52.0,59.0,5.121
79.0,58.0,5.122
196.0,35.0,5.123
300.0,-24.0,5.124
297.0,-86.0,5.125
181.0,-113.0,5.126
29.0,-105.0,5.127
-39.0,-87.0,5.128
41.0,-64.0,5.129
154.0,-21.0,5.13
96.0,35.0,5.131
-143.0,74.0,5.132
-322.0,75.0,5.133
-266.0,52.0,5.134
-84.0,32.0,5.135
32.0,23.0,5.136
63.0,25.0,5.137
88.0,35.0,5.138
105.0,55.0,5.139
67.0,69.0,5.14
11.0,59.0,5.141
-5.0,31.0,5.142
-11.0,-9.0,5.143
-58.0,-54.0,5.144
-120.0,-88.0,5.145
-145.0,-99.0,5.146
-140.0,-90.0,5.147
-132.0,-66.0,5.148
-111.0,-24.0,5.149
-79.0,21.0,5.15
-49.0,32.0,5.151
18.0,3.0,5.152
171.0,-12.0,5.153
329.0,22.0,5.154
337.0,69.0,5.155
196.0,62.0,5.156
79.0,5.0,5.157
60.0,-61.0,5.158
39.0,-85.0,5.159
-74.0,-68.0,5.16
-178.0,-37.0,5.161
-138.0,-6.0,5.162
-3.0,12.0,5.163
80.0,16.0,5.164
86.0,17.0,5.165
82.0,33.0,5.166
75.0,57.0,5.167
39.0,64.0,5.168
8.0,43.0,5.169
20.0,26.0,5.17
14.0,36.0,5.171
-55.0,57.0,5.172
-102.0,53.0,5.173
-40.0,19.0,5.174
24.0,-7.0,5.175
-38.0,-5.0,5.176
-143.0,2.0,5.177
-132.0,-17.0,5.178
-18.0,-43.0,5.179
19.0,-53.0,5.18
-69.0,-11.0,5.181
-140.0,23.0,5.182
-108.0,36.0,5.183
-51.0,28.0,5.184
-52.0,-45.0,5.185
-88.0,-101.0,5.186
-106.0,-101.0,5.187
-79.0,-92.0,5.188
8.0,-55.0,5.189
133.0,-18.0,5.19
208.0,16.0,5.191
175.0,47.0,5.192
103.0,63.0,5.193
102.0,65.0,5.194
165.0,21.0,5.195
181.0,-19.0,5.196
121.0,-45.0,5.197
64.0,-67.0,5.198
91.0,-55.0,5.199
127.0,-12.0,5.2
43.0,32.0,5.201
-166.0,55.0,5.202
-366.0,51.0,5.203
-415.0,44.0,5.204
-281.0,42.0,5.205
-38.0,31.0,5.206
169.0,4.0,5.207
214.0,-13.0,5.208
108.0,1.0,5.209
-7.0,44.0,5.21
-52.0,78.0,5.211
-86.0,78.0,5.212
-154.0,45.0,5.213
-164.0,0.0,5.214
-46.0,-41.0,5.215
95.0,-70.0,5.216
127.0,-80.0,5.217
15.0,-63.0,5.218
187.0,-36.0,5.219
305.0,-15.0,5.22
258.0,-16.0,5.221
179.0,-39.0,5.222
9.0,-92.0,5.223
-123.0,-148.0,5.224
-138.0,-156.0,5.225
-122.0,-99.0,5.226
-7.0,-37.0,5.227
60.0,-24.0,5.228
-12.0,-27.0,5.229
-85.0,7.0,5.23
-157.0,66.0,5.231
-195.0,94.0,5.232
-123.0,104.0,5.233
-47.0,146.0,5.234
42.0,208.0,5.235
105.0,218.0,5.236
86.0,173.0,5.237
16.0,-36.0,5.238
216.0,-42.0,5.239
353.0,-41.0,5.24
298.0,-14.0,5.241
206.0,16.0,5.242
8.0,51.0,5.243
-145.0,84.0,5.244
-163.0,108.0,5.245
-144.0,127.0,5.246
-10.0,136.0,5.247
69.0,133.0,5.248
-16.0,93.0,5.249
-101.0,62.0,5.25
-185.0,57.0,5.251
-228.0,47.0,5.252
-145.0,22.0,5.253
-57.0,-12.0,5.254
47.0,-73.0,5.255
121.0,-114.0,5.256
99.0,-92.0,5.257
64.0,-58.0,5.258
-1.0,-66.0,5.259
-21.0,-64.0,5.26
-4.0,-28.0,5.261
16.0,12.0,5.262
38.0,61.0,5.263
86.0,105.0,5.264
135.0,137.0,5.265
122.0,163.0,5.266
45.0,175.0,5.267
-19.0,171.0,5.268
-17.0,117.0,5.269
8.0,75.0,5.27
15.0,69.0,5.271
48.0,55.0,5.272
162.0,20.0,5.273
269.0,-26.0,5.274
183.0,-108.0,5.275
-133.0,-163.0,5.276
-449.0,-133.0,5.277
-525.0,-98.0,5.278
-304.0,-48.0,5.279
32.0,2.0,5.28
298.0,15.0,5.281
441.0,-22.0,5.282
442.0,-57.0,5.283
286.0,-41.0,5.284
48.0,6.0,5.285
-133.0,29.0,5.286
-216.0,29.0,5.287
-255.0,40.0,5.288
-268.0,53.0,5.289
-233.0,33.0,5.29
-200.0,-8.0,5.291
-219.0,-31.0,5.292
-202.0,-27.0,5.293
-46.0,-21.0,5.294
161.0,-17.0,5.295
239.0,4.0,5.296
190.0,34.0,5.297
129.0,35.0,5.298
99.0,10.0,5.299
30.0,-5.0,5.3
-60.0,2.0,5.301
-71.0,22.0,5.302
3.0,43.0,5.303
54.0,62.0,5.304
51.0,59.0,5.305
89.0,25.0,5.306
213.0,-8.0,5.307
303.0,-1.0,5.308
224.0,22.0,5.309
11.0,-5.0,5.31
-152.0,-84.0,5.311
-140.0,-135.0,5.312
-20.0,-107.0,5.313
59.0,-43.0,5.314
50.0,-20.0,5.315
21.0,-51.0,5.316
20.0,-90.0,5.317
7.0,-98.0,5.318
-46.0,-70.0,5.319
-98.0,-23.0,5.32
-92.0,11.0,5.321
-41.0,28.0,5.322
20.0,30.0,5.323
70.0,34.0,5.324
69.0,56.0,5.325
-27.0,91.0,5.326
-182.0,119.0,5.327
-268.0,119.0,5.328
-217.0,98.0,5.329
-103.0,74.0,5.33
-22.0,55.0,5.331
36.0,36.0,5.332
110.0,23.0,5.333
137.0,22.0,5.334
40.0,32.0,5.335
-98.0,37.0,5.336
-117.0,25.0,5.337
-10.0,-18.0,5.338
51.0,-99.0,5.339
-27.0,-186.0,5.34
-105.0,-224.0,5.341
-36.0,-176.0,5.342
90.0,-86.0,5.343
103.0,-14.0,5.344
14.0,28.0,5.345
-27.0,54.0,5.346
12.0,63.0,5.347
42.0,44.0,5.348
19.0,18.0,5.349
7.0,1.0,5.35
45.0,-23.0,5.351
87.0,-70.0,5.352
82.0,-101.0,5.353
49.0,-78.0,5.354
36.0,-18.0,5.355
42.0,40.0,5.356
32.0,76.0,5.357
-15.0,96.0,5.358
-54.0,92.0,5.359
-34.0,69.0,5.36
42.0,48.0,5.361
103.0,45.0,5.362
113.0,44.0,5.363
101.0,31.0,5.364
85.0,12.0,5.365
23.0,-7.0,5.366
-84.0,-37.0,5.367
-144.0,-71.0,5.368
-98.0,-88.0,5.369
-20.0,-77.0,5.37
-6.0,-55.0,5.371
-27.0,-37.0,5.372
-8.0,-25.0,5.373
39.0,-10.0,5.374
49.0,19.0,5.375
33.0,71.0,5.376
39.0,128.0,5.377
48.0,162.0,5.378
6.0,159.0,5.379
-67.0,142.0,5.38
-93.0,127.0,5.381
-42.0,110.0,5.382
50.0,81.0,5.383
140.0,52.0,5.384
183.0,16.0,5.385
120.0,-51.0,5.386
-34.0,-147.0,5.387
-166.0,-204.0,5.388
-196.0,-170.0,5.389
-175.0,-74.0,5.39
-186.0,10.0,5.391
-196.0,46.0,5.392
-136.0,40.0,5.393
-40.0,6.0,5.394
3.0,-44.0,5.395
-6.0,-91.0,5.396
5.0,-107.0,5.397
58.0,-84.0,5.398
105.0,-34.0,5.399
110.0,2.0,5.4
96.0,-10.0,5.401
87.0,-63.0,5.402
81.0,-116.0,5.403
68.0,-141.0,5.404
47.0,-129.0,5.405
21.0,-81.0,5.406
5.0,0.0,5.407
19.0,74.0,5.408
55.0,88.0,5.409
81.0,34.0,5.41
82.0,-16.0,5.411
72.0,7.0,5.412
48.0,95.0,5.413
-2.0,170.0,5.414
-55.0,170.0,5.415
-57.0,116.0,5.416
0.0,69.0,5.417
52.0,60.0,5.418
58.0,65.0,5.419
-7.0,53.0,5.42
-73.0,33.0,5.421
-83.0,36.0,5.422
-63.0,49.0,5.423
-70.0,31.0,5.424
-104.0,-3.0,5.425
-111.0,-10.0,5.426
-69.0,15.0,5.427
-11.0,18.0,5.428
37.0,-25.0,5.429
84.0,-75.0,5.43
118.0,-99.0,5.431
103.0,-107.0,5.432
41.0,-122.0,5.433
-10.0,-129.0,5.434
-20.0,-113.0,5.435
-27.0,-68.0,5.436
-56.0,-6.0,5.437
-83.0,55.0,5.438
-56.0,117.0,5.439
2.0,128.0,5.44
59.0,75.0,5.441
101.0,4.0,5.442
130.0,-38.0,5.443
126.0,-50.0,5.444
77.0,-47.0,5.445
10.0,-35.0,5.446
-25.0,-23.0,5.447
-16.0,-31.0,5.448
10.0,-51.0,5.449
10.0,-48.0,5.45
-22.0,-16.0,5.451
-54.0,2.0,5.452
-61.0,-20.0,5.453
-46.0,-59.0,5.454
-30.0,-74.0,5.455
-23.0,-71.0,5.456
-14.0,-61.0,5.457
-6.0,-31.0,5.458
-4.0,21.0,5.459
-5.0,72.0,5.46
-14.0,92.0,5.461
-22.0,82.0,5.462
-23.0,53.0,5.463
-25.0,26.0,5.464
-26.0,22.0,5.465
-23.0,47.0,5.466
-9.0,80.0,5.467
8.0,90.0,5.468
40.0,71.0,5.469
68.0,46.0,5.47
87.0,25.0,5.471
96.0,10.0,5.472
73.0,8.0,5.473
43.0,19.0,5.474
-2.0,16.0,5.475
-43.0,-28.0,5.476
-63.0,-85.0,5.477
-76.0,-114.0,5.478
-68.0,-111.0,5.479
-49.0,-110.0,5.48
-28.0,-118.0,5.481
-11.0,-113.0,5.482
4.0,-69.0,5.483
10.0,-18.0,5.484
-6.0,49.0,5.485
-40.0,103.0,5.486
-71.0,117.0,5.487
-74.0,120.0,5.488
-48.0,86.0,5.489
5.0,50.0,5.49
79.0,11.0,5.491
140.0,-13.0,5.492
148.0,11.0,5.493
96.0,36.0,5.494
26.0,61.0,5.495
-31.0,75.0,5.496
-68.0,52.0,5.497
-85.0,36.0,5.498
-50.0,52.0,5.499
37.0,70.0,5.5
115.0,77.0,5.501
110.0,83.0,5.502
26.0,81.0,5.503
-51.0,48.0,5.504
-43.0,-10.0,5.505
25.0,-63.0,5.506
68.0,-94.0,5.507
46.0,-106.0,5.508
10.0,-100.0,5.509
8.0,-74.0,5.51
21.0,-48.0,5.511
1.0,-58.0,5.512
-36.0,-114.0,5.513
-52.0,-170.0,5.514
-47.0,-165.0,5.515
-46.0,-90.0,5.516
-47.0,-10.0,5.517
-29.0,16.0,5.518
2.0,-1.0,5.519
20.0,-8.0,5.52
26.0,9.0,5.521
37.0,-1.0,5.522
48.0,-61.0,5.523
36.0,-101.0,5.524
6.0,-62.0,5.525
-17.0,9.0,5.526
-20.0,25.0,5.527
-19.0,-10.0,5.528
-33.0,-11.0,5.529
-59.0,44.0,5.53
-69.0,83.0,5.531
-43.0,68.0,5.532
-8.0,47.0,5.533
-5.0,66.0,5.534
-35.0,93.0,5.535
-44.0,86.0,5.536
-10.0,70.0,5.537
42.0,81.0,5.538
89.0,100.0,5.539
132.0,83.0,5.54
164.0,34.0,5.541
142.0,6.0,5.542
64.0,6.0,5.543
-2.0,-4.0,5.544
-18.0,-44.0,5.545
-16.0,-83.0,5.546
-25.0,-85.0,5.547
-22.0,-48.0,5.548
-4.0,-4.0,5.549
-14.0,9.0,5.55
-60.0,-15.0,5.551
-81.0,-48.0,5.552
-53.0,-54.0,5.553
-32.0,-39.0,5.554
-48.0,-33.0,5.555
-52.0,-35.0,5.556
-20.0,-14.0,5.557
11.0,30.0,5.558
9.0,67.0,5.559
6.0,85.0,5.56
23.0,42.0,5.561
25.0,2.0,5.562
-10.0,-29.0,5.563
-34.0,-48.0,5.564
-8.0,-30.0,5.565
42.0,-18.0,5.566
81.0,-25.0,5.567
98.0,-28.0,5.568
102.0,-18.0,5.569
79.0,-8.0,5.57
27.0,4.0,5.571
-33.0,15.0,5.572
-80.0,25.0,5.573
-108.0,37.0,5.574
-113.0,52.0,5.575
-95.0,62.0,5.576
-68.0,54.0,5.577
-47.0,42.0,5.578
-30.0,14.0,5.579
-10.0,-13.0,5.58
15.0,-21.0,5.581
40.0,-12.0,5.582
67.0,-17.0,5.583
95.0,-31.0,5.584
106.0,-24.0,5.585
86.0,5.0,5.586
40.0,23.0,5.587
-11.0,11.0,5.588
-42.0,-12.0,5.589
-34.0,-30.0,5.59
11.0,-38.0,5.591
69.0,-29.0,5.592
107.0,-5.0,5.593
112.0,14.0,5.594
91.0,12.0,5.595
57.0,-7.0,5.596
29.0,-20.0,5.597
2.0,-29.0,5.598
-36.0,-33.0,5.599
-91.0,-33.0,5.6
-133.0,-23.0,5.601
-131.0,-12.0,5.602
-99.0,-1.0,5.603
-86.0,7.0,5.604
-104.0,9.0,5.605
-104.0,9.0,5.606
-43.0,2.0,5.607
50.0,0.0,5.608
97.0,13.0,5.609
69.0,26.0,5.61
31.0,30.0,5.611
33.0,30.0,5.612
47.0,14.0,5.613
31.0,0.0,5.614
18.0,-7.0,5.615
55.0,-5.0,5.616
99.0,24.0,5.617
80.0,54.0,5.618
14.0,67.0,5.619
-24.0,57.0,5.62
-21.0,41.0,5.621
-33.0,35.0,5.622
-62.0,21.0,5.623
-72.0,-16.0,5.624
-65.0,-56.0,5.625
-68.0,-65.0,5.626
-53.0,-33.0,5.627
8.0,11.0,5.628
70.0,27.0,5.629
70.0,7.0,5.63
30.0,-18.0,5.631
11.0,-25.0,5.632
10.0,-23.0,5.633
-9.0,-28.0,5.634
-25.0,-33.0,5.635
-6.0,-22.0,5.636
23.0,-3.0,5.637
16.0,-2.0,5.638
-17.0,-10.0,5.639
-36.0,-15.0,5.64
-36.0,-12.0,5.641
-41.0,-11.0,5.642
-44.0,-15.0,5.643
-26.0,-17.0,5.644
0.0,-9.0,5.645
16.0,-1.0,5.646
33.0,4.0,5.647
55.0,10.0,5.648
63.0,16.0,5.649
49.0,21.0,5.65
35.0,20.0,5.651
39.0,22.0,5.652
58.0,37.0,5.653
92.0,44.0,5.654
137.0,26.0,5.655
140.0,6.0,5.656
60.0,-15.0,5.657
-70.0,-39.0,5.658
-134.0,-61.0,5.659
-99.0,-63.0,5.66
-57.0,-47.0,5.661
-61.0,-27.0,5.662
-45.0,-12.0,5.663
35.0,-1.0,5.664
97.0,8.0,5.665
64.0,4.0,5.666
-1.0,-8.0,5.667
-7.0,-13.0,5.668
26.0,-11.0,5.669
27.0,-5.0,5.67
6.0,11.0,5.671
12.0,44.0,5.672
33.0,78.0,5.673
27.0,88.0,5.674
1.0,77.0,5.675
-15.0,70.0,5.676
-23.0,69.0,5.677
-47.0,57.0,5.678
-77.0,28.0,5.679
-105.0,-3.0,5.68
-132.0,-36.0,5.681
-125.0,-69.0,5.682
-37.0,-87.0,5.683
101.0,-76.0,5.684
182.0,-46.0,5.685
146.0,-23.0,5.686
43.0,-11.0,5.687
-43.0,1.0,5.688
-85.0,15.0,5.689
-89.0,19.0,5.69
-71.0,16.0,5.691
-54.0,12.0,5.692
-50.0,-3.0,5.693
-34.0,-36.0,5.694
-1.0,-57.0,5.695
23.0,-38.0,5.696
23.0,3.0,5.697
34.0,30.0,5.698
82.0,27.0,5.699
118.0,7.0,5.7
81.0,-18.0,5.701
0.0,-40.0,5.702
-49.0,-44.0,5.703
-44.0,-22.0,5.704
-28.0,5.0,5.705
-16.0,15.0,5.706
9.0,9.0,5.707
33.0,1.0,5.708
24.0,-2.0,5.709
-7.0,-2.0,5.71
-13.0,3.0,5.711
4.0,3.0,5.712
6.0,-18.0,5.713
-7.0,-47.0,5.714
1.0,-45.0,5.715
40.0,-6.0,5.716
72.0,31.0,5.717
79.0,42.0,5.718
76.0,40.0,5.719
80.0,44.0,5.72
80.0,46.0,5.721
66.0,34.0,5.722
46.0,14.0,5.723
25.0,-1.0,5.724
0.0,-8.0,5.725
-32.0,-14.0,5.726
-68.0,-14.0,5.727
-94.0,-7.0,5.728
-106.0,0.0,5.729
-95.0,4.0,5.73
-65.0,10.0,5.731
-39.0,14.0,5.732
-42.0,14.0,5.733
-76.0,13.0,5.734
-101.0,18.0,5.735
-91.0,22.0,5.736
-54.0,19.0,5.737
-18.0,12.0,5.738
7.0,8.0,5.739
36.0,6.0,5.74
75.0,-3.0,5.741
101.0,-12.0,5.742
94.0,-23.0,5.743
72.0,-38.0,5.744
78.0,-59.0,5.745
119.0,-76.0,5.746
135.0,-76.0,5.747
67.0,-55.0,5.748
-46.0,-28.0,5.749
-80.0,-1.0,5.75
17.0,19.0,5.751
130.0,35.0,5.752
106.0,51.0,5.753
-40.0,67.0,5.754
-153.0,71.0,5.755
-139.0,54.0,5.756
-74.0,26.0,5.757
-56.0,17.0,5.758
-92.0,10.0,5.759
-110.0,2.0,5.76
-78.0,-5.0,5.761
-29.0,-8.0,5.762
-4.0,-1.0,5.763
1.0,8.0,5.764
5.0,15.0,5.765
18.0,19.0,5.766
32.0,15.0,5.767
36.0,7.0,5.768
31.0,-8.0,5.769
27.0,-22.0,5.77
32.0,-28.0,5.771
41.0,-35.0,5.772
47.0,-44.0,5.773
52.0,-44.0,5.774
56.0,-22.0,5.775
50.0,-5.0,5.776
37.0,5.0,5.777
26.0,19.0,5.778
30.0,11.0,5.779
37.0,3.0,5.78
53.0,-5.0,5.781
71.0,-8.0,5.782
94.0,0.0,5.783
97.0,9.0,5.784
37.0,17.0,5.785
-14.0,21.0,5.786
-41.0,16.0,5.787
-64.0,8.0,5.788
-72.0,-8.0,5.789
-78.0,-23.0,5.79
-75.0,-30.0,5.791
-68.0,-38.0,5.792
-54.0,-46.0,5.793
-42.0,-47.0,5.794
-36.0,-24.0,5.795
-29.0,-5.0,5.796
-21.0,6.0,5.797
-6.0,23.0,5.798
24.0,14.0,5.799
45.0,5.0,5.8
42.0,-4.0,5.801
19.0,-9.0,5.802
6.0,1.0,5.803
27.0,12.0,5.804
67.0,21.0,5.805
92.0,26.0,5.806
79.0,20.0,5.807
41.0,11.0,5.808
9.0,-9.0,5.809
-4.0,-26.0,5.81
-18.0,-34.0,5.811
-55.0,-43.0,5.812
-99.0,-53.0,5.813
-103.0,-54.0,5.814
-63.0,-27.0,5.815
-34.0,-4.0,5.816
-46.0,8.0,5.817
-71.0,12.0,5.818
-49.0,-7.0,5.819
11.0,-3.0,5.82
55.0,9.0,5.821
50.0,4.0,5.822
29.0,-13.0,5.823
17.0,-15.0,5.824
3.0,1.0,5.825
-16.0,9.0,5.826
-22.0,0.0,5.827
-17.0,0.0,5.828
-21.0,23.0,5.829
-34.0,44.0,5.83
-23.0,40.0,5.831
14.0,8.0,5.832
40.0,-29.0,5.833
43.0,-47.0,5.834
47.0,-33.0,5.835
58.0,-2.0,5.836
60.0,12.0,5.837
48.0,-6.0,5.838
48.0,-24.0,5.839
59.0,-14.0,5.84
56.0,7.0,5.841
33.0,14.0,5.842
24.0,12.0,5.843
31.0,18.0,5.844
19.0,25.0,5.845
-19.0,13.0,5.846
-44.0,-10.0,5.847
-35.0,-27.0,5.848
-16.0,-34.0,5.849
-1.0,-36.0,5.85
26.0,-28.0,5.851
55.0,-7.0,5.852
50.0,16.0,5.853
13.0,31.0,5.854
-6.0,41.0,5.855
6.0,49.0,5.856
12.0,49.0,5.857
-17.0,34.0,5.858
-47.0,24.0,5.859
-56.0,32.0,5.86
-52.0,35.0,5.861
-53.0,23.0,5.862
-45.0,1.0,5.863
-26.0,-13.0,5.864
-19.0,-26.0,5.865
-26.0,-46.0,5.866
-28.0,-72.0,5.867
-16.0,-84.0,5.868
-7.0,-80.0,5.869
-11.0,-65.0,5.87
-12.0,-41.0,5.871
-2.0,-15.0,5.872
1.0,7.0,5.873
-2.0,34.0,5.874
12.0,68.0,5.875
57.0,101.0,5.876
103.0,114.0,5.877
108.0,97.0,5.878
66.0,61.0,5.879
11.0,29.0,5.88
-20.0,6.0,5.881
-27.0,-4.0,5.882
-31.0,-9.0,5.883
-37.0,-17.0,5.884
-36.0,-31.0,5.885
-29.0,-48.0,5.886
-20.0,-56.0,5.887
-9.0,-46.0,5.888
13.0,-25.0,5.889
39.0,-9.0,5.89
56.0,-9.0,5.891
73.0,-20.0,5.892
103.0,-25.0,5.893
123.0,-14.0,5.894
76.0,2.0,5.895
-24.0,8.0,5.896
-93.0,-3.0,5.897
-90.0,-23.0,5.898
-64.0,-36.0,5.899
-87.0,-31.0,5.9
-129.0,-15.0,5.901
-116.0,5.0,5.902
-51.0,13.0,5.903
-13.0,-1.0,5.904
-23.0,-27.0,5.905
-25.0,-41.0,5.906
14.0,-34.0,5.907
50.0,-21.0,5.908
44.0,-18.0,5.909
25.0,-22.0,5.91
38.0,-17.0,5.911
75.0,-1.0,5.912
99.0,20.0,5.913
91.0,42.0,5.914
73.0,65.0,5.915
64.0,84.0,5.916
71.0,85.0,5.917
72.0,69.0,5.918
48.0,47.0,5.919
0.0,27.0,5.92
-43.0,3.0,5.921
-58.0,-14.0,5.922
-47.0,-23.0,5.923
-30.0,-32.0,5.924
-21.0,-45.0,5.925
-20.0,-50.0,5.926
-27.0,-41.0,5.927
-41.0,-26.0,5.928
-46.0,-19.0,5.929
-31.0,-21.0,5.93
-8.0,-18.0,5.931
0.0,-5.0,5.932
-7.0,14.0,5.933
2.0,34.0,5.934
40.0,53.0,5.935
72.0,65.0,5.936
60.0,70.0,5.937
15.0,69.0,5.938
-11.0,65.0,5.939
-5.0,53.0,5.94
-10.0,28.0,5.941
-39.0,-6.0,5.942
-42.0,-35.0,5.943
7.0,-57.0,5.944
48.0,-71.0,5.945
11.0,-77.0,5.946
-62.0,-69.0,5.947
-84.0,-45.0,5.948
-48.0,-19.0,5.949
-21.0,-3.0,5.95
-23.0,4.0,5.951
-9.0,15.0,5.952
21.0,28.0,5.953
19.0,34.0,5.954
-15.0,34.0,5.955
-21.0,27.0,5.956
10.0,13.0,5.957
29.0,-16.0,5.958
9.0,-48.0,5.959
-6.0,-58.0,5.96
10.0,-41.0,5.961
31.0,-11.0,5.962
36.0,8.0,5.963
40.0,11.0,5.964
48.0,12.0,5.965
49.0,11.0,5.966
51.0,1.0,5.967
74.0,-18.0,5.968
93.0,-34.0,5.969
73.0,-37.0,5.97
36.0,-31.0,5.971
36.0,-26.0,5.972
60.0,-29.0,5.973
49.0,-29.0,5.974
-11.0,-17.0,5.975
-68.0,7.0,5.976
-89.0,31.0,5.977
-86.0,39.0,5.978
-60.0,36.0,5.979
5.0,31.0,5.98
100.0,23.0,5.981
182.0,18.0,5.982
219.0,15.0,5.983
186.0,14.0,5.984
61.0,13.0,5.985
-121.0,8.0,5.986
-268.0,0.0,5.987
-312.0,-7.0,5.988
-295.0,-6.0,5.989
-280.0,1.0,5.99
-254.0,14.0,5.991
-168.0,30.0,5.992
-43.0,42.0,5.993
49.0,40.0,5.994
77.0,27.0,5.995
78.0,9.0,5.996
81.0,0.0,5.997
85.0,-5.0,5.998
78.0,2.0,5.999
64.0,30.0,6.0
51.0,60.0,6.001
41.0,72.0,6.002
35.0,67.0,6.003
33.0,63.0,6.004
34.0,57.0,6.005
45.0,20.0,6.006
73.0,-45.0,6.007
105.0,-98.0,6.008
121.0,-115.0,6.009
115.0,-118.0,6.01
99.0,-127.0,6.011
78.0,-125.0,6.012
42.0,-94.0,6.013
-6.0,-53.0,6.014
-48.0,-26.0,6.015
-73.0,-10.0,6.016
-87.0,10.0,6.017
-98.0,24.0,6.018
-95.0,22.0,6.019
-76.0,15.0,6.02
-43.0,12.0,6.021
-9.0,7.0,6.022
27.0,-11.0,6.023
60.0,-29.0,6.024
75.0,-25.0,6.025
63.0,-7.0,6.026
30.0,5.0,6.027
0.0,8.0,6.028
-11.0,10.0,6.029
-6.0,20.0,6.03
-5.0,36.0,6.031
-19.0,51.0,6.032
-33.0,60.0,6.033
-26.0,58.0,6.034
5.0,48.0,6.035
41.0,43.0,6.036
66.0,43.0,6.037
78.0,39.0,6.038
82.0,31.0,6.039
72.0,23.0,6.04
41.0,14.0,6.041
-1.0,5.0,6.042
-29.0,-5.0,6.043
-29.0,-12.0,6.044
-24.0,-13.0,6.045
-38.0,-15.0,6.046
-69.0,-23.0,6.047
-83.0,-31.0,6.048
-61.0,-30.0,6.049
-24.0,-20.0,6.05
-3.0,-9.0,6.051
-2.0,-3.0,6.052
-2.0,2.0,6.053
16.0,8.0,6.054
40.0,7.0,6.055
44.0,0.0,6.056
22.0,-1.0,6.057
-24.0,6.0,6.058
-74.0,12.0,6.059
-110.0,11.0,6.06
-116.0,-3.0,6.061
-84.0,-17.0,6.062
-29.0,-29.0,6.063
13.0,-34.0,6.064
14.0,-28.0,6.065
-13.0,-12.0,6.066
-46.0,3.0,6.067
-70.0,11.0,6.068
-77.0,12.0,6.069
-57.0,5.0,6.07
-9.0,-14.0,6.071
51.0,-40.0,6.072
94.0,-50.0,6.073
116.0,-35.0,6.074
136.0,-5.0,6.075
172.0,14.0,6.076
209.0,13.0,6.077
214.0,-2.0,6.078
166.0,-11.0,6.079
89.0,-5.0,6.08
29.0,1.0,6.081
0.0,-8.0,6.082
-28.0,-30.0,6.083
-80.0,-37.0,6.084
-131.0,-17.0,6.085
-135.0,7.0,6.086
-91.0,15.0,6.087
-38.0,16.0,6.088
-7.0,31.0,6.089
0.0,49.0,6.09
-4.0,42.0,6.091
-4.0,12.0,6.092
12.0,-8.0,6.093
44.0,-3.0,6.094
74.0,8.0,6.095
73.0,6.0,6.096
38.0,-5.0,6.097
-17.0,-18.0,6.098
-59.0,-30.0,6.099
-79.0,-35.0,6.1
-98.0,-24.0,6.101
-116.0,3.0,6.102
-104.0,26.0,6.103
-48.0,30.0,6.104
24.0,23.0,6.105
65.0,12.0,6.106
64.0,2.0,6.107
42.0,-12.0,6.108
21.0,-20.0,6.109
8.0,-16.0,6.11
7.0,-4.0,6.111
18.0,5.0,6.112
38.0,11.0,6.113
60.0,15.0,6.114
77.0,18.0,6.115
79.0,16.0,6.116
54.0,16.0,6.117
5.0,14.0,6.118
-30.0,12.0,6.119
-41.0,6.0,6.12
-51.0,-5.0,6.121
-80.0,-9.0,6.122
-94.0,-10.0,6.123
-62.0,-5.0,6.124
-7.0,0.0,6.125
33.0,-3.0,6.126
57.0,-15.0,6.127
75.0,-23.0,6.128
74.0,-11.0,6.129
46.0,8.0,6.13
27.0,12.0,6.131
26.0,2.0,6.132
8.0,1.0,6.133
-46.0,15.0,6.134
-85.0,26.0,6.135
-74.0,21.0,6.136
-55.0,13.0,6.137
-70.0,12.0,6.138
-83.0,9.0,6.139
-46.0,-7.0,6.14
17.0,-35.0,6.141
47.0,-47.0,6.142
41.0,-38.0,6.143
34.0,-19.0,6.144
29.0,-3.0,6.145
20.0,7.0,6.146
21.0,11.0,6.147
44.0,13.0,6.148
60.0,21.0,6.149
55.0,35.0,6.15
54.0,42.0,6.151
77.0,32.0,6.152
85.0,6.0,6.153
41.0,-22.0,6.154
-35.0,-44.0,6.155
-81.0,-56.0,6.156
-71.0,-56.0,6.157
-27.0,-44.0,6.158
7.0,-29.0,6.159
3.0,-20.0,6.16
-27.0,-21.0,6.161
-50.0,-18.0,6.162
-45.0,-6.0,6.163
-19.0,9.0,6.164
7.0,19.0,6.165
15.0,19.0,6.166
-4.0,11.0,6.167
-35.0,0.0,6.168
-47.0,-8.0,6.169
-32.0,-7.0,6.17
-9.0,9.0,6.171
2.0,34.0,6.172
17.0,50.0,6.173
48.0,49.0,6.174
74.0,36.0,6.175
82.0,17.0,6.176
94.0,3.0,6.177
124.0,-7.0,6.178
132.0,-12.0,6.179
75.0,-18.0,6.18
-6.0,-25.0,6.181
-43.0,-25.0,6.182
-33.0,-23.0,6.183
-34.0,-24.0,6.184
-65.0,-22.0,6.185
-91.0,-11.0,6.186
-91.0,3.0,6.187
-81.0,9.0,6.188
-61.0,9.0,6.189
-17.0,13.0,6.19
34.0,16.0,6.191
62.0,9.0,6.192
64.0,1.0,6.193
74.0,13.0,6.194
84.0,45.0,6.195
59.0,63.0,6.196
10.0,53.0,6.197
-29.0,22.0,6.198
-32.0,-1.0,6.199
-23.0,-9.0,6.2
-23.0,-15.0,6.201
-24.0,-22.0,6.202
-19.0,-30.0,6.203
-16.0,-33.0,6.204
-14.0,-30.0,6.205
1.0,-18.0,6.206
32.0,-3.0,6.207
45.0,6.0,6.208
20.0,5.0,6.209
-21.0,-3.0,6.21
-38.0,-6.0,6.211
-35.0,1.0,6.212
-43.0,15.0,6.213
-68.0,14.0,6.214
-78.0,-3.0,6.215
-48.0,-26.0,6.216
8.0,-36.0,6.217
68.0,-36.0,6.218
113.0,-26.0,6.219
125.0,-12.0,6.22
96.0,-7.0,6.221
34.0,-11.0,6.222
-24.0,-19.0,6.223
-59.0,-14.0,6.224
-73.0,5.0,6.225
-73.0,24.0,6.226
-56.0,30.0,6.227
-36.0,25.0,6.228
-24.0,16.0,6.229
-16.0,6.0,6.23
1.0,-2.0,6.231
16.0,-5.0,6.232
13.0,0.0,6.233
7.0,7.0,6.234
17.0,16.0,6.235
23.0,29.0,6.236
3.0,37.0,6.237
-32.0,28.0,6.238
-39.0,6.0,6.239
-19.0,-9.0,6.24
-6.0,-9.0,6.241
-11.0,-1.0,6.242
-8.0,2.0,6.243
3.0,-3.0,6.244
2.0,-11.0,6.245
-6.0,-24.0,6.246
8.0,-38.0,6.247
46.0,-45.0,6.248
67.0,-28.0,6.249
54.0,4.0,6.25
32.0,25.0,6.251
27.0,17.0,6.252
32.0,2.0,6.253
32.0,8.0,6.254
27.0,25.0,6.255
22.0,25.0,6.256
17.0,5.0,6.257
7.0,-12.0,6.258
0.0,-12.0,6.259
-6.0,-10.0,6.26
-11.0,-28.0,6.261
-9.0,-45.0,6.262
5.0,-45.0,6.263
25.0,-30.0,6.264
33.0,-11.0,6.265
24.0,12.0,6.266
10.0,34.0,6.267
0.0,38.0,6.268
0.0,20.0,6.269
11.0,-3.0,6.27
24.0,-11.0,6.271
19.0,-6.0,6.272
-11.0,-3.0,6.273
-34.0,-3.0,6.274
-25.0,-2.0,6.275
-7.0,1.0,6.276
-6.0,1.0,6.277
-25.0,-1.0,6.278
-33.0,0.0,6.279
-23.0,9.0,6.28
-16.0,12.0,6.281
-20.0,11.0,6.282
-19.0,7.0,6.283
-5.0,8.0,6.284
2.0,12.0,6.285
-1.0,10.0,6.286
4.0,-1.0,6.287
22.0,-12.0,6.288
32.0,-13.0,6.289
29.0,-5.0,6.29
26.0,0.0,6.291
29.0,0.0,6.292
17.0,1.0,6.293
-14.0,4.0,6.294
-33.0,1.0,6.295
-27.0,-7.0,6.296
-14.0,-12.0,6.297
-9.0,-9.0,6.298
-7.0,1.0,6.299
0.0,11.0,6.3
7.0,13.0,6.301
7.0,15.0,6.302
7.0,18.0,6.303
20.0,18.0,6.304
45.0,13.0,6.305
76.0,2.0,6.306
96.0,-6.0,6.307
76.0,-8.0,6.308
13.0,-8.0,6.309
-58.0,-10.0,6.31
-98.0,-11.0,6.311
-108.0,-9.0,6.312
-107.0,-8.0,6.313
-92.0,-7.0,6.314
-51.0,-5.0,6.315
5.0,-1.0,6.316
45.0,0.0,6.317
65.0,-8.0,6.318
71.0,-13.0,6.319
65.0,-7.0,6.32
34.0,4.0,6.321
-10.0,18.0,6.322
-36.0,26.0,6.323
-30.0,25.0,6.324
-13.0,16.0,6.325
-5.0,8.0,6.326
1.0,5.0,6.327
13.0,2.0,6.328
23.0,-5.0,6.329
21.0,-16.0,6.33
12.0,-20.0,6.331
11.0,-19.0,6.332
22.0,-20.0,6.333
32.0,-22.0,6.334
31.0,-16.0,6.335
19.0,-5.0,6.336
5.0,7.0,6.337
-10.0,3.0,6.338
-23.0,-3.0,6.339
-35.0,-1.0,6.34
-39.0,8.0,6.341
-28.0,13.0,6.342
-8.0,7.0,6.343
14.0,2.0,6.344
34.0,9.0,6.345
54.0,14.0,6.346
67.0,3.0,6.347
57.0,-17.0,6.348
31.0,-32.0,6.349
8.0,-32.0,6.35
0.0,-21.0,6.351
-2.0,-5.0,6.352
-5.0,12.0,6.353
-3.0,19.0,6.354
2.0,12.0,6.355
-4.0,2.0,6.356
-25.0,0.0,6.357
-39.0,1.0,6.358
-31.0,-2.0,6.359
-16.0,-4.0,6.36
-13.0,-4.0,6.361
-15.0,5.0,6.362
0.0,14.0,6.363
20.0,15.0,6.364
23.0,7.0,6.365
11.0,0.0,6.366
5.0,-5.0,6.367
7.0,-4.0,6.368
1.0,-1.0,6.369
-9.0,1.0,6.37
-10.0,0.0,6.371
0.0,-4.0,6.372
8.0,-4.0,6.373
14.0,0.0,6.374
26.0,6.0,6.375
44.0,5.0,6.376
57.0,4.0,6.377
59.0,3.0,6.378
50.0,3.0,6.379
24.0,-2.0,6.38
-18.0,-13.0,6.381
-54.0,-19.0,6.382
-63.0,-14.0,6.383
-45.0,-4.0,6.384
-31.0,0.0,6.385
-40.0,3.0,6.386
-60.0,2.0,6.387
-67.0,3.0,6.388
-47.0,7.0,6.389
-15.0,9.0,6.39
6.0,4.0,6.391
10.0,-5.0,6.392
16.0,-9.0,6.393
40.0,-6.0,6.394
64.0,-3.0,6.395
61.0,-4.0,6.396
28.0,-3.0,6.397
-12.0,0.0,6.398
-28.0,3.0,6.399
-26.0,-1.0,6.4
-16.0,-8.0,6.401
-1.0,-8.0,6.402
21.0,-8.0,6.403
32.0,-17.0,6.404
15.0,-25.0,6.405
-18.0,-17.0,6.406
-31.0,0.0,6.407
-22.0,11.0,6.408
-19.0,10.0,6.409
-35.0,12.0,6.41
-40.0,20.0,6.411
-14.0,22.0,6.412
23.0,14.0,6.413
41.0,8.0,6.414
48.0,8.0,6.415
59.0,9.0,6.416
65.0,6.0,6.417
47.0,-5.0,6.418
19.0,-16.0,6.419
4.0,-21.0,6.42
9.0,-18.0,6.421
15.0,-6.0,6.422
12.0,4.0,6.423
6.0,3.0,6.424
7.0,-2.0,6.425
11.0,0.0,6.426
20.0,4.0,6.427
36.0,2.0,6.428
45.0,-2.0,6.429
35.0,1.0,6.43
9.0,6.0,6.431
-12.0,5.0,6.432
-18.0,3.0,6.433
-15.0,8.0,6.434
-6.0,9.0,6.435
9.0,-6.0,6.436
26.0,-21.0,6.437
27.0,-23.0,6.438
4.0,-10.0,6.439
-28.0,-3.0,6.44
-45.0,-8.0,6.441
-44.0,-5.0,6.442
-39.0,5.0,6.443
-41.0,8.0,6.444
-42.0,3.0,6.445
-32.0,1.0,6.446
-12.0,4.0,6.447
9.0,4.0,6.448
19.0,3.0,6.449
12.0,6.0,6.45
-8.0,12.0,6.451
-23.0,11.0,6.452
-26.0,6.0,6.453
-21.0,0.0,6.454
-8.0,-6.0,6.455
13.0,-16.0,6.456
36.0,-23.0,6.457
49.0,-20.0,6.458
58.0,-8.0,6.459
65.0,4.0,6.46
61.0,9.0,6.461
31.0,11.0,6.462
-8.0,10.0,6.463
-28.0,4.0,6.464
-22.0,-1.0,6.465
-11.0,-2.0,6.466
-7.0,-6.0,6.467
-4.0,-12.0,6.468
6.0,-10.0,6.469
14.0,-2.0,6.47
15.0,4.0,6.471
9.0,5.0,6.472
5.0,6.0,6.473
6.0,8.0,6.474
14.0,7.0,6.475
20.0,1.0,6.476
19.0,-2.0,6.477
1.0,-3.0,6.478
-24.0,-1.0,6.479
-45.0,0.0,6.48
-51.0,0.0,6.481
-41.0,3.0,6.482
-24.0,4.0,6.483
-4.0,6.0,6.484
20.0,10.0,6.485
47.0,11.0,6.486
70.0,8.0,6.487
71.0,0.0,6.488
39.0,-4.0,6.489
-16.0,-4.0,6.49
-64.0,-5.0,6.491
-77.0,-6.0,6.492
-58.0,3.0,6.493
-33.0,18.0,6.494
-11.0,26.0,6.495
17.0,16.0,6.496
49.0,-2.0,6.497
56.0,-19.0,6.498
29.0,-29.0,6.499
0.0,-31.0,6.5
-32.0,-25.0,6.501
-48.0,-12.0,6.502
-10.0,-6.0,6.503
19.0,-5.0,6.504
23.0,0.0,6.505
23.0,11.0,6.506
8.0,18.0,6.507
3.0,16.0,6.508
31.0,14.0,6.509
50.0,15.0,6.51
38.0,12.0,6.511
23.0,1.0,6.512
-1.0,-5.0,6.513
-17.0,-7.0,6.514
-4.0,-13.0,6.515
8.0,-21.0,6.516
17.0,-19.0,6.517
21.0,-9.0,6.518
-3.0,4.0,6.519
-33.0,13.0,6.52
-50.0,11.0,6.521
-41.0,7.0,6.522
-15.0,0.0,6.523
14.0,-10.0,6.524
41.0,-31.0,6.525
70.0,-42.0,6.526
91.0,-23.0,6.527
89.0,-6.0,6.528
56.0,0.0,6.529
10.0,4.0,6.53
-25.0,0.0,6.531
-41.0,-2.0,6.532
-48.0,5.0,6.533
-48.0,10.0,6.534
-27.0,8.0,6.535
21.0,6.0,6.536
64.0,5.0,6.537
58.0,4.0,6.538
-8.0,7.0,6.539
-92.0,10.0,6.54
-142.0,7.0,6.541
-139.0,8.0,6.542
-98.0,11.0,6.543
-55.0,12.0,6.544
-34.0,10.0,6.545
-23.0,11.0,6.546
0.0,18.0,6.547
37.0,22.0,6.548
64.0,19.0,6.549
64.0,14.0,6.55
50.0,7.0,6.551
45.0,-5.0,6.552
48.0,-20.0,6.553
36.0,-24.0,6.554
4.0,-9.0,6.555
-33.0,9.0,6.556
-44.0,18.0,6.557
-7.0,16.0,6.558
66.0,17.0,6.559
125.0,22.0,6.56
139.0,10.0,6.561
130.0,-13.0,6.562
52.0,-37.0,6.563
-16.0,-47.0,6.564
-53.0,-52.0,6.565
-82.0,-57.0,6.566
-85.0,-53.0,6.567
-89.0,-37.0,6.568
-95.0,-17.0,6.569
-99.0,-4.0,6.57
-93.0,-1.0,6.571
-80.0,0.0,6.572
-49.0,2.0,6.573
-18.0,5.0,6.574
11.0,10.0,6.575
36.0,16.0,6.576
49.0,21.0,6.577
68.0,20.0,6.578
98.0,24.0,6.579
107.0,33.0,6.58
82.0,39.0,6.581
42.0,37.0,6.582
14.0,31.0,6.583
-5.0,24.0,6.584
-22.0,15.0,6.585
-26.0,-5.0,6.586
-1.0,-35.0,6.587
39.0,-59.0,6.588
58.0,-63.0,6.589
43.0,-57.0,6.59
10.0,-46.0,6.591
-4.0,-28.0,6.592
23.0,-4.0,6.593
98.0,17.0,6.594
192.0,24.0,6.595
222.0,23.0,6.596
131.0,28.0,6.597
-52.0,35.0,6.598
-194.0,41.0,6.599
-206.0,44.0,6.6
-143.0,46.0,6.601
-103.0,45.0,6.602
-106.0,25.0,6.603
-110.0,-6.0,6.604
-100.0,-29.0,6.605
-91.0,-38.0,6.606
-68.0,-38.0,6.607
-14.0,-34.0,6.608
44.0,-24.0,6.609
70.0,-14.0,6.61
80.0,-13.0,6.611
103.0,-16.0,6.612
121.0,-10.0,6.613
102.0,-1.0,6.614
47.0,8.0,6.615
-9.0,17.0,6.616
-48.0,28.0,6.617
-68.0,28.0,6.618
-61.0,16.0,6.619
-37.0,-6.0,6.62
-22.0,-20.0,6.621
-18.0,-23.0,6.622
14.0,-20.0,6.623
92.0,-8.0,6.624
171.0,14.0,6.625
201.0,29.0,6.626
165.0,14.0,6.627
77.0,-18.0,6.628
-42.0,-37.0,6.629
-147.0,-29.0,6.63
-181.0,-16.0,6.631
-133.0,-11.0,6.632
-64.0,-2.0,6.633
-33.0,19.0,6.634
-44.0,38.0,6.635
-50.0,34.0,6.636
-22.0,18.0,6.637
39.0,-1.0,6.638
96.0,-14.0,6.639
104.0,-32.0,6.64
58.0,-47.0,6.641
1.0,-40.0,6.642
-11.0,-7.0,6.643
34.0,33.0,6.644
99.0,58.0,6.645
141.0,67.0,6.646
137.0,68.0,6.647
97.0,63.0,6.648
58.0,44.0,6.649
16.0,11.0,6.65
-75.0,-21.0,6.651
-227.0,-37.0,6.652
-344.0,-39.0,6.653
-331.0,-38.0,6.654
-223.0,-35.0,6.655
-135.0,-21.0,6.656
-114.0,2.0,6.657
-110.0,15.0,6.658
-71.0,4.0,6.659
13.0,-25.0,6.66
130.0,-45.0,6.661
229.0,-44.0,6.662
224.0,-38.0,6.663
103.0,-33.0,6.664
-18.0,-24.0,6.665
-25.0,-14.0,6.666
50.0,-13.0,6.667
92.0,-15.0,6.668
91.0,-6.0,6.669
139.0,12.0,6.67
257.0,19.0,6.671
337.0,19.0,6.672
273.0,32.0,6.673
90.0,47.0,6.674
-87.0,35.0,6.675
-159.0,-4.0,6.676
-127.0,-26.0,6.677
-60.0,-14.0,6.678
-36.0,7.0,6.679
-72.0,9.0,6.68
-101.0,1.0,6.681
-75.0,7.0,6.682
-31.0,18.0,6.683
-35.0,23.0,6.684
-85.0,26.0,6.685
-126.0,33.0,6.686
-132.0,37.0,6.687
-112.0,36.0,6.688
-56.0,31.0,6.689
30.0,9.0,6.69
86.0,-27.0,6.691
75.0,-42.0,6.692
55.0,-13.0,6.693
88.0,24.0,6.694
130.0,16.0,6.695
97.0,-24.0,6.696
29.0,-49.0,6.697
42.0,-64.0,6.698
164.0,-84.0,6.699
245.0,-93.0,6.7
128.0,-56.0,6.701
-152.0,12.0,6.702
-388.0,48.0,6.703
-412.0,48.0,6.704
-256.0,46.0,6.705
-76.0,47.0,6.706
43.0,30.0,6.707
129.0,5.0,6.708
190.0,-4.0,6.709
147.0,-12.0,6.71
-22.0,-28.0,6.711
-179.0,-25.0,6.712
-192.0,9.0,6.713
-114.0,31.0,6.714
-86.0,3.0,6.715
-103.0,-39.0,6.716
-64.0,-43.0,6.717
43.0,-4.0,6.718
115.0,46.0,6.719
128.0,75.0,6.72
177.0,78.0,6.721
280.0,70.0,6.722
312.0,51.0,6.723
203.0,15.0,6.724
51.0,-35.0,6.725
-34.0,-76.0,6.726
-82.0,-82.0,6.727
-163.0,-59.0,6.728
-239.0,-45.0,6.729
-228.0,-36.0,6.73
-142.0,-3.0,6.731
-66.0,39.0,6.732
-33.0,39.0,6.733
4.0,-6.0,6.734
85.0,-40.0,6.735
185.0,-42.0,6.736
261.0,-39.0,6.737
295.0,-45.0,6.738
263.0,-27.0,6.739
147.0,13.0,6.74
23.0,26.0,6.741
52.0,10.0,6.742
276.0,18.0,6.743
426.0,61.0,6.744
173.0,76.0,6.745
-389.0,36.0,6.746
-736.0,-4.0,6.747
-547.0,-1.0,6.748
-100.0,12.0,6.749
135.0,0.0,6.75
73.0,-20.0,6.751
-62.0,-26.0,6.752
-161.0,-29.0,6.753
-241.0,-47.0,6.754
-233.0,-60.0,6.755
-55.0,-48.0,6.756
157.0,-17.0,6.757
224.0,24.0,6.758
154.0,72.0,6.759
125.0,109.0,6.76
178.0,110.0,6.761
148.0,81.0,6.762
-28.0,56.0,6.763
-178.0,50.0,6.764
-110.0,44.0,6.765
118.0,20.0,6.766
246.0,-17.0,6.767
123.0,-61.0,6.768
-104.0,-106.0,6.769
-180.0,-135.0,6.77
-69.0,-123.0,6.771
72.0,-72.0,6.772
147.0,-22.0,6.773
167.0,-11.0,6.774
75.0,-31.0,6.775
-187.0,-42.0,6.776
-431.0,-33.0,6.777
-404.0,-25.0,6.778
-146.0,-24.0,6.779
10.0,1.0,6.78
-28.0,65.0,6.781
27.0,130.0,6.782
298.0,137.0,6.783
483.0,95.0,6.784
369.0,64.0,6.785
162.0,64.0,6.786
86.0,47.0,6.787
-3.0,-7.0,6.788
-266.0,-70.0,6.789
-512.0,-103.0,6.79
-489.0,-105.0,6.791
-301.0,-94.0,6.792
-194.0,-80.0,6.793
-132.0,-77.0,6.794
94.0,-71.0,6.795
436.0,-30.0,6.796
604.0,50.0,6.797
464.0,122.0,6.798
212.0,130.0,6.799
17.0,84.0,6.8
-7.0,35.0,6.801
-26.0,16.0,6.802
-31.0,14.0,6.803
-39.0,13.0,6.804
-56.0,-3.0,6.805
-90.0,-43.0,6.806
-177.0,-74.0,6.807
-222.0,-52.0,6.808
-137.0,2.0,6.809
-84.0,16.0,6.81
-129.0,-22.0,6.811
-125.0,-43.0,6.812
32.0,-1.0,6.813
182.0,53.0,6.814
311.0,58.0,6.815
379.0,11.0,6.816
263.0,-37.0,6.817
149.0,-58.0,6.818
76.0,-44.0,6.819
30.0,-33.0,6.82
0.0,-33.0,6.821
-17.0,-33.0,6.822
-42.0,-29.0,6.823
-49.0,-10.0,6.824
6.0,54.0,6.825
56.0,103.0,6.826
-50.0,105.0,6.827
-290.0,98.0,6.828
-406.0,64.0,6.829
-253.0,28.0,6.83
-11.0,-17.0,6.831
78.0,-47.0,6.832
46.0,-31.0,6.833
53.0,-21.0,6.834
118.0,-37.0,6.835
134.0,-47.0,6.836
96.0,-40.0,6.837
75.0,-47.0,6.838
74.0,-105.0,6.839
35.0,-124.0,6.84
-39.0,-64.0,6.841
-92.0,10.0,6.842
-99.0,25.0,6.843
-74.0,14.0,6.844
-33.0,54.0,6.845
13.0,127.0,6.846
59.0,168.0,6.847
86.0,161.0,6.848
51.0,122.0,6.849
-72.0,53.0,6.85
-191.0,-40.0,6.851
-159.0,-101.0,6.852
14.0,-93.0,6.853
124.0,-64.0,6.854
33.0,-71.0,6.855
-125.0,-85.0,6.856
-131.0,-55.0,6.857
25.0,8.0,6.858
144.0,16.0,6.859
101.0,-13.0,6.86
15.0,-14.0,6.861
42.0,25.0,6.862
138.0,49.0,6.863
142.0,30.0,6.864
19.0,8.0,6.865
-94.0,11.0,6.866
-98.0,32.0,6.867
-40.0,60.0,6.868
-42.0,88.0,6.869
-122.0,97.0,6.87
-143.0,63.0,6.871
42.0,7.0,6.872
362.0,-26.0,6.873
514.0,-30.0,6.874
332.0,-35.0,6.875
75.0,-58.0,6.876
88.0,-85.0,6.877
296.0,-99.0,6.878
276.0,-88.0,6.879
-114.0,-63.0,6.88
-482.0,-51.0,6.881
-499.0,-63.0,6.882
-345.0,-79.0,6.883
-331.0,-69.0,6.884
-407.0,-39.0,6.885
-347.0,-18.0,6.886
-155.0,-8.0,6.887
-5.0,11.0,6.888
50.0,40.0,6.889
55.0,58.0,6.89
-7.0,72.0,6.891
-116.0,107.0,6.892
-132.0,149.0,6.893
7.0,164.0,6.894
166.0,136.0,6.895
238.0,70.0,6.896
292.0,-7.0,6.897
398.0,-55.0,6.898
447.0,-24.0,6.899
335.0,43.0,6.9
149.0,35.0,6.901
12.0,-52.0,6.902
-75.0,-106.0,6.903
-132.0,-63.0,6.904
-129.0,-15.0,6.905
-112.0,-55.0,6.906
-191.0,-124.0,6.907
-311.0,-124.0,6.908
-278.0,-73.0,6.909
-76.0,-40.0,6.91
115.0,-11.0,6.911
226.0,51.0,6.912
323.0,100.0,6.913
330.0,66.0,6.914
99.0,-12.0,6.915
-219.0,-36.0,6.916
-274.0,4.0,6.917
-20.0,46.0,6.918
173.0,70.0,6.919
54.0,97.0,6.92
-143.0,98.0,6.921
-121.0,31.0,6.922
42.0,-68.0,6.923
108.0,-112.0,6.924
46.0,-89.0,6.925
-6.0,-62.0,6.926
-17.0,-50.0,6.927
-16.0,-4.0,6.928
6.0,72.0,6.929
39.0,117.0,6.93
23.0,95.0,6.931
-17.0,50.0,6.932
19.0,25.0,6.933
113.0,20.0,6.934
118.0,21.0,6.935
3.0,18.0,6.936
-80.0,-4.0,6.937
-58.0,-67.0,6.938
-22.0,-132.0,6.939
-74.0,-145.0,6.94
-153.0,-106.0,6.941
-157.0,-69.0,6.942
-67.0,-83.0,6.943
69.0,-119.0,6.944
202.0,-120.0,6.945
264.0,-59.0,6.946
200.0,45.0,6.947
29.0,155.0,6.948
-167.0,239.0,6.949
-313.0,279.0,6.95
-354.0,259.0,6.951
-259.0,174.0,6.952
-66.0,43.0,6.953
106.0,-78.0,6.954
144.0,-130.0,6.955
51.0,-117.0,6.956
-46.0,-107.0,6.957
-51.0,-154.0,6.958
13.0,-212.0,6.959
29.0,-195.0,6.96
-36.0,-95.0,6.961
-68.0,9.0,6.962
-4.0,52.0,6.963
32.0,48.0,6.964
-63.0,44.0,6.965
-152.0,42.0,6.966
-45.0,31.0,6.967
176.0,29.0,6.968
261.0,57.0,6.969
169.0,99.0,6.97
102.0,118.0,6.971
163.0,102.0,6.972
214.0,74.0,6.973
127.0,51.0,6.974
-24.0,32.0,6.975
-84.0,12.0,6.976
-30.0,-5.0,6.977
48.0,-31.0,6.978
63.0,-68.0,6.979
14.0,-118.0,6.98
-21.0,-156.0,6.981
-2.0,-152.0,6.982
28.0,-98.0,6.983
12.0,-17.0,6.984
-39.0,52.0,6.985
-68.0,86.0,6.986
-58.0,91.0,6.987
-45.0,90.0,6.988
-44.0,87.0,6.989
-46.0,82.0,6.99
-43.0,73.0,6.991
-41.0,44.0,6.992
-24.0,-28.0,6.993
22.0,-120.0,6.994
92.0,-162.0,6.995
162.0,-118.0,6.996
206.0,-47.0,6.997
178.0,-19.0,6.998
42.0,-20.0,6.999
-146.0,8.0,7.0
-243.0,64.0,7.001
-179.0,87.0,7.002
-60.0,60.0,7.003
-23.0,35.0,7.004
-58.0,35.0,7.005
-70.0,26.0,7.006
-58.0,-5.0,7.007
-96.0,-17.0,7.008
-174.0,-1.0,7.009
-183.0,1.0,7.01
-82.0,-36.0,7.011
46.0,-78.0,7.012
123.0,-92.0,7.013
142.0,-87.0,7.014
139.0,-69.0,7.015
124.0,-22.0,7.016
101.0,44.0,7.017
78.0,98.0,7.018
56.0,126.0,7.019
16.0,154.0,7.02
-40.0,190.0,7.021
-70.0,193.0,7.022
-54.0,125.0,7.023
-20.0,25.0,7.024
-4.0,-33.0,7.025
1.0,-39.0,7.026
18.0,-30.0,7.027
35.0,-27.0,7.028
40.0,-18.0,7.029
42.0,-7.0,7.03
56.0,-19.0,7.031
72.0,-56.0,7.032
65.0,-73.0,7.033
38.0,-45.0,7.034
11.0,-4.0,7.035
-12.0,0.0,7.036
-26.0,-31.0,7.037
-27.0,-71.0,7.038
-4.0,-84.0,7.039
21.0,-83.0,7.04
14.0,-95.0,7.041
-27.0,-128.0,7.042
-63.0,-154.0,7.043
-49.0,-131.0,7.044
0.0,-49.0,7.045
37.0,55.0,7.046
31.0,124.0,7.047
6.0,149.0,7.048
-3.0,150.0,7.049
-7.0,125.0,7.05
-37.0,54.0,7.051
-77.0,-57.0,7.052
-75.0,-151.0,7.053
-14.0,-169.0,7.054
60.0,-122.0,7.055
99.0,-72.0,7.056
107.0,-55.0,7.057
103.0,-43.0,7.058
78.0,1.0,7.059
17.0,40.0,7.06
-48.0,64.0,7.061
-66.0,80.0,7.062
-42.0,70.0,7.063
-20.0,68.0,7.064
-15.0,88.0,7.065
-1.0,99.0,7.066
15.0,81.0,7.067
14.0,65.0,7.068
20.0,53.0,7.069
70.0,33.0,7.07
131.0,-8.0,7.071
120.0,-46.0,7.072
28.0,-75.0,7.073
-60.0,-103.0,7.074
-90.0,-126.0,7.075
-92.0,-125.0,7.076
-92.0,-50.0,7.077
-66.0,33.0,7.078
1.0,114.0,7.079
55.0,148.0,7.08
29.0,150.0,7.081
-53.0,151.0,7.082
-109.0,142.0,7.083
-94.0,105.0,7.084
-56.0,42.0,7.085
-49.0,-21.0,7.086
-45.0,-73.0,7.087
11.0,-107.0,7.088
90.0,-103.0,7.089
92.0,-52.0,7.09
6.0,15.0,7.091
-55.0,53.0,7.092
-28.0,60.0,7.093
5.0,70.0,7.094
-29.0,81.0,7.095
-66.0,59.0,7.096
-26.0,6.0,7.097
47.0,-47.0,7.098
49.0,-74.0,7.099
-3.0,-92.0,7.1
-11.0,-108.0,7.101
36.0,-112.0,7.102
55.0,-112.0,7.103
34.0,-120.0,7.104
43.0,-111.0,7.105
96.0,-47.0,7.106
114.0,40.0,7.107
64.0,78.0,7.108
11.0,49.0,7.109
8.0,10.0,7.11
24.0,2.0,7.111
11.0,8.0,7.112
-18.0,1.0,7.113
-15.0,-19.0,7.114
22.0,-39.0,7.115
42.0,-47.0,7.116
4.0,-35.0,7.117
-72.0,-14.0,7.118
-110.0,2.0,7.119
-71.0,15.0,7.12
2.0,19.0,7.121
47.0,23.0,7.122
59.0,29.0,7.123
57.0,26.0,7.124
24.0,-10.0,7.125
-40.0,-47.0,7.126
-67.0,-87.0,7.127
-8.0,-106.0,7.128
75.0,-59.0,7.129
96.0,-10.0,7.13
68.0,43.0,7.131
51.0,89.0,7.132
31.0,109.0,7.133
-30.0,120.0,7.134
-89.0,105.0,7.135
-82.0,92.0,7.136
-43.0,85.0,7.137
-23.0,77.0,7.138
-6.0,62.0,7.139
40.0,41.0,7.14
61.0,25.0,7.141
-3.0,5.0,7.142
-76.0,-46.0,7.143
-51.0,-120.0,7.144
32.0,-159.0,7.145
38.0,-130.0,7.146
-49.0,-73.0,7.147
-120.0,-44.0,7.148
-107.0,-39.0,7.149
-50.0,-16.0,7.15
9.0,34.0,7.151
61.0,78.0,7.152
87.0,97.0,7.153
60.0,107.0,7.154
18.0,102.0,7.155
15.0,54.0,7.156
37.0,-19.0,7.157
25.0,-72.0,7.158
-26.0,-77.0,7.159
-52.0,-78.0,7.16
-14.0,-103.0,7.161
41.0,-99.0,7.162
56.0,-29.0,7.163
44.0,61.0,7.164
53.0,97.0,7.165
65.0,83.0,7.166
25.0,65.0,7.167
-65.0,51.0,7.168
-134.0,19.0,7.169
-128.0,-12.0,7.17
-78.0,-16.0,7.171
-38.0,-8.0,7.172
-12.0,-23.0,7.173
30.0,-44.0,7.174
76.0,-33.0,7.175
91.0,-9.0,7.176
74.0,-13.0,7.177
41.0,-46.0,7.178
7.0,-56.0,7.179
-26.0,-34.0,7.18
-33.0,-20.0,7.181
-12.0,-28.0,7.182
2.0,-35.0,7.183
-23.0,-20.0,7.184
-65.0,3.0,7.185
-53.0,23.0,7.186
38.0,35.0,7.187
149.0,36.0,7.188
197.0,31.0,7.189
170.0,31.0,7.19
121.0,42.0,7.191
69.0,42.0,7.192
-15.0,14.0,7.193
-117.0,-5.0,7.194
-157.0,14.0,7.195
-108.0,51.0,7.196
-48.0,47.0,7.197
-38.0,-10.0,7.198
-44.0,-58.0,7.199
-19.0,-47.0,7.2
7.0,-20.0,7.201
-17.0,-33.0,7.202
-58.0,-59.0,7.203
-59.0,-38.0,7.204
-26.0,15.0,7.205
5.0,22.0,7.206
37.0,-28.0,7.207
81.0,-56.0,7.208
102.0,-23.0,7.209
80.0,12.0,7.21
43.0,2.0,7.211
26.0,-13.0,7.212
21.0,11.0,7.213
25.0,48.0,7.214
59.0,42.0,7.215
110.0,6.0,7.216
114.0,-8.0,7.217
33.0,0.0,7.218
-66.0,13.0,7.219
-104.0,22.0,7.22
-90.0,41.0,7.221
-99.0,67.0,7.222
-138.0,79.0,7.223
-140.0,70.0,7.224
-87.0,53.0,7.225
-50.0,34.0,7.226
-80.0,10.0,7.227
-121.0,-21.0,7.228
-90.0,-56.0,7.229
-10.0,-79.0,7.23
31.0,-72.0,7.231
14.0,-41.0,7.232
5.0,-14.0,7.233
45.0,-2.0,7.234
102.0,8.0,7.235
135.0,25.0,7.236
142.0,34.0,7.237
115.0,24.0,7.238
54.0,6.0,7.239
2.0,-13.0,7.24
21.0,-43.0,7.241
89.0,-82.0,7.242
116.0,-95.0,7.243
71.0,-65.0,7.244
20.0,-22.0,7.245
20.0,-3.0,7.246
43.0,-4.0,7.247
41.0,0.0,7.248
21.0,9.0,7.249
6.0,9.0,7.25
-11.0,0.0,7.251
-40.0,0.0,7.252
-68.0,9.0,7.253
-78.0,12.0,7.254
-80.0,15.0,7.255
-79.0,31.0,7.256
-59.0,55.0,7.257
-20.0,69.0,7.258
26.0,73.0,7.259
67.0,70.0,7.26
110.0,48.0,7.261
130.0,18.0,7.262
90.0,-32.0,7.263
-4.0,-75.0,7.264
-95.0,-91.0,7.265
-140.0,-101.0,7.266
-141.0,-87.0,7.267
-101.0,-66.0,7.268
-14.0,-21.0,7.269
79.0,17.0,7.27
118.0,35.0,7.271
81.0,51.0,7.272
13.0,61.0,7.273
-31.0,62.0,7.274
-43.0,35.0,7.275
-39.0,10.0,7.276
-37.0,-10.0,7.277
-39.0,-17.0,7.278
-37.0,13.0,7.279
-31.0,13.0,7.28
-37.0,-8.0,7.281
-70.0,-3.0,7.282
-100.0,33.0,7.283
-92.0,51.0,7.284
-58.0,32.0,7.285
-32.0,5.0,7.286
-13.0,-9.0,7.287
29.0,-27.0,7.288
85.0,-56.0,7.289
114.0,-60.0,7.29
104.0,-16.0,7.291
91.0,45.0,7.292
96.0,75.0,7.293
95.0,62.0,7.294
66.0,38.0,7.295
23.0,21.0,7.296
-13.0,1.0,7.297
-46.0,-34.0,7.298
-75.0,-61.0,7.299
-84.0,-56.0,7.3
-51.0,-36.0,7.301
14.0,-32.0,7.302
77.0,-48.0,7.303
98.0,-50.0,7.304
74.0,-24.0,7.305
39.0,1.0,7.306
24.0,4.0,7.307
25.0,-1.0,7.308
19.0,5.0,7.309
-3.0,10.0,7.31
-27.0,6.0,7.311
-32.0,9.0,7.312
-10.0,29.0,7.313
26.0,41.0,7.314
47.0,28.0,7.315
38.0,11.0,7.316
18.0,11.0,7.317
5.0,12.0,7.318
0.0,-8.0,7.319
-9.0,-31.0,7.32
-23.0,-32.0,7.321
-35.0,-23.0,7.322
-33.0,-32.0,7.323
-30.0,-52.0,7.324
-23.0,-46.0,7.325
-15.0,-8.0,7.326
-8.0,25.0,7.327
5.0,31.0,7.328
33.0,23.0,7.329
54.0,21.0,7.33
48.0,27.0,7.331
37.0,30.0,7.332
9.0,36.0,7.333
-19.0,41.0,7.334
-43.0,36.0,7.335
-57.0,18.0,7.336
-43.0,7.0,7.337
-12.0,6.0,7.338
86.0,5.0,7.339
194.0,-3.0,7.34
251.0,-31.0,7.341
202.0,-51.0,7.342
48.0,-49.0,7.343
-140.0,-43.0,7.344
-274.0,-29.0,7.345
-318.0,-13.0,7.346
-288.0,12.0,7.347
-229.0,32.0,7.348
-173.0,33.0,7.349
-118.0,34.0,7.35
-48.0,35.0,7.351
30.0,32.0,7.352
67.0,14.0,7.353
37.0,0.0,7.354
-4.0,-5.0,7.355
4.0,-9.0,7.356
51.0,-9.0,7.357
100.0,-9.0,7.358
144.0,-3.0,7.359
175.0,10.0,7.36
169.0,20.0,7.361
147.0,26.0,7.362
77.0,27.0,7.363
21.0,19.0,7.364
6.0,-1.0,7.365
-8.0,-22.0,7.366
-16.0,-39.0,7.367
-18.0,-65.0,7.368
-3.0,-104.0,7.369
9.0,-131.0,7.37
15.0,-110.0,7.371
19.0,-50.0,7.372
17.0,-2.0,7.373
14.0,14.0,7.374
4.0,23.0,7.375
-6.0,49.0,7.376
-21.0,76.0,7.377
-39.0,75.0,7.378
-46.0,60.0,7.379
-12.0,48.0,7.38
21.0,46.0,7.381
1.0,42.0,7.382
-38.0,32.0,7.383
-39.0,23.0,7.384
-7.0,19.0,7.385
4.0,10.0,7.386
-7.0,-7.0,7.387
-6.0,-20.0,7.388
17.0,-18.0,7.389
35.0,-16.0,7.39
49.0,-14.0,7.391
75.0,-14.0,7.392
94.0,-24.0,7.393
73.0,-33.0,7.394
36.0,-32.0,7.395
45.0,-31.0,7.396
98.0,-31.0,7.397
111.0,-30.0,7.398
47.0,-22.0,7.399
-20.0,-15.0,7.4
-97.0,-15.0,7.401
-162.0,-9.0,7.402
-192.0,9.0,7.403
-210.0,35.0,7.404
