Deltoid,Bicep,Time
-2.0,3.0,0.0
-2.0,-2.0,0.001
0.0,0.0,0.002
8.0,1.0,0.003
17.0,0.0,0.004
20.0,-2.0,0.005
14.0,-1.0,0.006
8.0,0.0,0.007
9.0,-1.0,0.008
11.0,-2.0,0.009
8.0,-1.0,0.01
4.0,0.0,0.011
2.0,-1.0,0.012
0.0,-1.0,0.013
-3.0,1.0,0.014
-7.0,3.0,0.015
-8.0,4.0,0.016
-4.0,5.0,0.017
-3.0,3.0,0.018
-2.0,0.0,0.019
-4.0,-4.0,0.02
-5.0,-7.0,0.021
-4.0,-4.0,0.022
4.0,-4.0,0.023
14.0,-2.0,0.024
16.0,0.0,0.025
10.0,1.0,0.026
6.0,-2.0,0.027
9.0,-6.0,0.028
10.0,-4.0,0.029
4.0,-1.0,0.03
0.0,-2.0,0.031
-2.0,-3.0,0.032
-2.0,0.0,0.033
-4.0,4.0,0.034
-2.0,3.0,0.035
2.0,0.0,0.036
4.0,1.0,0.037
1.0,4.0,0.038
0.0,5.0,0.039
-1.0,2.0,0.04
-1.0,-5.0,0.041
-1.0,-6.0,0.042
6.0,-4.0,0.043
16.0,0.0,0.044
17.0,3.0,0.045
9.0,3.0,0.046
2.0,-2.0,0.047
2.0,-6.0,0.048
4.0,-5.0,0.049
2.0,-3.0,0.05
-1.0,-3.0,0.051
-2.0,-4.0,0.052
0.0,-5.0,0.053
1.0,-6.0,0.054
-1.0,-5.0,0.055
-4.0,-1.0,0.056
-6.0,4.0,0.057
-6.0,4.0,0.058
-3.0,0.0,0.059
-4.0,-2.0,0.06
-4.0,-1.0,0.061
-3.0,0.0,0.062
5.0,-3.0,0.063
15.0,-5.0,0.064
20.0,-2.0,0.065
15.0,4.0,0.066
5.0,5.0,0.067
3.0,1.0,0.068
6.0,-3.0,0.069
7.0,-2.0,0.07
3.0,-2.0,0.071
0.0,-4.0,0.072
-3.0,-4.0,0.073
-4.0,-1.0,0.074
-5.0,2.0,0.075
-5.0,5.0,0.076
-4.0,7.0,0.077
-3.0,6.0,0.078
-2.0,3.0,0.079
-2.0,1.0,0.08
-4.0,-2.0,0.081
-3.0,-3.0,0.082
1.0,-3.0,0.083
11.0,0.0,0.084
14.0,2.0,0.085
11.0,1.0,0.086
11.0,-4.0,0.087
16.0,-9.0,0.088
15.0,-7.0,0.089
6.0,-3.0,0.09
-3.0,-2.0,0.091
-4.0,-5.0,0.092
-1.0,-7.0,0.093
0.0,-5.0,0.094
-1.0,-2.0,0.095
-1.0,-1.0,0.096
0.0,1.0,0.097
-2.0,4.0,0.098
-2.0,5.0,0.099
-3.0,3.0,0.1
-6.0,-1.0,0.101
-6.0,0.0,0.102
3.0,2.0,0.103
16.0,3.0,0.104
20.0,1.0,0.105
14.0,-1.0,0.106
8.0,-5.0,0.107
9.0,-8.0,0.108
11.0,-7.0,0.109
4.0,-2.0,0.11
-2.0,1.0,0.111
-3.0,1.0,0.112
-2.0,0.0,0.113
-4.0,0.0,0.114
-8.0,0.0,0.115
-8.0,-2.0,0.116
-3.0,1.0,0.117
0.0,3.0,0.118
0.0,3.0,0.119
-5.0,3.0,0.12
-6.0,-1.0,0.121
-4.0,-1.0,0.122
4.0,-1.0,0.123
12.0,0.0,0.124
16.0,2.0,0.125
14.0,3.0,0.126
10.0,1.0,0.127
4.0,-1.0,0.128
0.0,-1.0,0.129
1.0,0.0,0.13
4.0,-3.0,0.131
5.0,-5.0,0.132
0.0,-2.0,0.133
-4.0,2.0,0.134
-4.0,1.0,0.135
0.0,-3.0,0.136
4.0,-1.0,0.137
2.0,3.0,0.138
-2.0,2.0,0.139
-6.0,-1.0,0.14
-6.0,-5.0,0.141
-3.0,-2.0,0.142
3.0,0.0,0.143
12.0,-1.0,0.144
15.0,1.0,0.145
10.0,5.0,0.146
6.0,1.0,0.147
8.0,-6.0,0.148
11.0,-7.0,0.149
10.0,-2.0,0.15
3.0,0.0,0.151
0.0,-5.0,0.152
1.0,-5.0,0.153
1.0,1.0,0.154
-1.0,5.0,0.155
-3.0,3.0,0.156
-3.0,-1.0,0.157
-3.0,-1.0,0.158
-3.0,1.0,0.159
-4.0,3.0,0.16
-4.0,0.0,0.161
-3.0,-3.0,0.162
5.0,-4.0,0.163
11.0,-5.0,0.164
14.0,-1.0,0.165
17.0,2.0,0.166
17.0,0.0,0.167
14.0,-2.0,0.168
8.0,-3.0,0.169
4.0,-4.0,0.17
5.0,-3.0,0.171
6.0,-2.0,0.172
0.0,-2.0,0.173
-4.0,-2.0,0.174
-7.0,-2.0,0.175
-9.0,-2.0,0.176
-5.0,0.0,0.177
-1.0,2.0,0.178
-4.0,0.0,0.179
-7.0,-2.0,0.18
-8.0,-6.0,0.181
-5.0,-3.0,0.182
1.0,0.0,0.183
11.0,2.0,0.184
13.0,1.0,0.185
11.0,1.0,0.186
8.0,0.0,0.187
5.0,-3.0,0.188
3.0,-7.0,0.189
0.0,-6.0,0.19
0.0,-2.0,0.191
0.0,2.0,0.192
-1.0,1.0,0.193
-5.0,-2.0,0.194
-6.0,-1.0,0.195
-1.0,3.0,0.196
0.0,7.0,0.197
-1.0,4.0,0.198
-1.0,1.0,0.199
3.0,0.0,0.2
7.0,-5.0,0.201
9.0,-6.0,0.202
13.0,-7.0,0.203
21.0,-4.0,0.204
23.0,-3.0,0.205
16.0,-2.0,0.206
8.0,-3.0,0.207
5.0,-1.0,0.208
5.0,1.0,0.209
1.0,4.0,0.21
-4.0,1.0,0.211
-5.0,-3.0,0.212
-2.0,-3.0,0.213
-3.0,2.0,0.214
-8.0,6.0,0.215
-11.0,5.0,0.216
-9.0,4.0,0.217
-9.0,7.0,0.218
-10.0,8.0,0.219
-9.0,6.0,0.22
-4.0,0.0,0.221
6.0,0.0,0.222
19.0,2.0,0.223
28.0,-1.0,0.224
28.0,-5.0,0.225
16.0,-6.0,0.226
0.0,-4.0,0.227
-1.0,-6.0,0.228
10.0,-7.0,0.229
15.0,-6.0,0.23
7.0,-2.0,0.231
-5.0,-3.0,0.232
-10.0,-4.0,0.233
-12.0,-4.0,0.234
-13.0,-1.0,0.235
-9.0,1.0,0.236
-1.0,6.0,0.237
3.0,7.0,0.238
3.0,4.0,0.239
-1.0,-1.0,0.24
-3.0,-5.0,0.241
0.0,-2.0,0.242
5.0,1.0,0.243
11.0,1.0,0.244
13.0,1.0,0.245
10.0,2.0,0.246
5.0,0.0,0.247
6.0,-5.0,0.248
4.0,-5.0,0.249
0.0,0.0,0.25
-4.0,3.0,0.251
-4.0,1.0,0.252
-3.0,0.0,0.253
-3.0,4.0,0.254
-6.0,5.0,0.255
-7.0,4.0,0.256
-3.0,4.0,0.257
4.0,3.0,0.258
8.0,4.0,0.259
7.0,0.0,0.26
4.0,-8.0,0.261
6.0,-7.0,0.262
12.0,-4.0,0.263
20.0,-2.0,0.264
20.0,-4.0,0.265
16.0,-5.0,0.266
13.0,-6.0,0.267
12.0,-6.0,0.268
10.0,-6.0,0.269
3.0,-5.0,0.27
0.0,-8.0,0.271
0.0,-10.0,0.272
0.0,-9.0,0.273
-1.0,-2.0,0.274
-3.0,0.0,0.275
-3.0,-2.0,0.276
-4.0,-2.0,0.277
-7.0,-2.0,0.278
-7.0,-2.0,0.279
-5.0,-2.0,0.28
-4.0,-5.0,0.281
-3.0,-5.0,0.282
2.0,-4.0,0.283
12.0,-1.0,0.284
15.0,3.0,0.285
9.0,5.0,0.286
6.0,1.0,0.287
9.0,-3.0,0.288
10.0,-2.0,0.289
4.0,1.0,0.29
-4.0,1.0,0.291
-7.0,-1.0,0.292
-7.0,-1.0,0.293
-7.0,2.0,0.294
-4.0,1.0,0.295
0.0,0.0,0.296
6.0,2.0,0.297
6.0,5.0,0.298
3.0,4.0,0.299
0.0,0.0,0.3
-2.0,-2.0,0.301
0.0,0.0,0.302
10.0,2.0,0.303
18.0,3.0,0.304
18.0,1.0,0.305
10.0,0.0,0.306
5.0,-2.0,0.307
7.0,-3.0,0.308
7.0,-3.0,0.309
1.0,-3.0,0.31
-3.0,-4.0,0.311
-2.0,-4.0,0.312
0.0,0.0,0.313
-5.0,4.0,0.314
-11.0,5.0,0.315
-11.0,4.0,0.316
-7.0,3.0,0.317
-9.0,3.0,0.318
-10.0,3.0,0.319
-10.0,2.0,0.32
-6.0,-1.0,0.321
0.0,-4.0,0.322
6.0,-3.0,0.323
12.0,-1.0,0.324
14.0,3.0,0.325
16.0,4.0,0.326
14.0,-1.0,0.327
11.0,-6.0,0.328
4.0,-4.0,0.329
-1.0,-3.0,0.33
-3.0,-2.0,0.331
-5.0,-1.0,0.332
-4.0,-1.0,0.333
-3.0,-1.0,0.334
-4.0,-1.0,0.335
-5.0,0.0,0.336
-1.0,1.0,0.337
3.0,4.0,0.338
1.0,4.0,0.339
-1.0,2.0,0.34
-2.0,-5.0,0.341
0.0,-8.0,0.342
8.0,-8.0,0.343
17.0,-3.0,0.344
16.0,3.0,0.345
11.0,5.0,0.346
8.0,-2.0,0.347
10.0,-8.0,0.348
10.0,-9.0,0.349
5.0,-3.0,0.35
3.0,-1.0,0.351
3.0,-4.0,0.352
1.0,-4.0,0.353
-3.0,0.0,0.354
-6.0,2.0,0.355
-6.0,0.0,0.356
-3.0,0.0,0.357
-1.0,2.0,0.358
1.0,1.0,0.359
-2.0,-2.0,0.36
-5.0,-6.0,0.361
-5.0,-2.0,0.362
2.0,2.0,0.363
10.0,1.0,0.364
13.0,0.0,0.365
11.0,1.0,0.366
11.0,0.0,0.367
9.0,-5.0,0.368
5.0,-7.0,0.369
3.0,-4.0,0.37
3.0,-1.0,0.371
3.0,-5.0,0.372
0.0,-6.0,0.373
-3.0,-2.0,0.374
-3.0,3.0,0.375
-3.0,6.0,0.376
-1.0,8.0,0.377
0.0,8.0,0.378
1.0,8.0,0.379
0.0,3.0,0.38
-1.0,-5.0,0.381
3.0,-4.0,0.382
11.0,2.0,0.383
17.0,6.0,0.384
15.0,6.0,0.385
10.0,3.0,0.386
8.0,0.0,0.387
8.0,-5.0,0.388
4.0,-8.0,0.389
0.0,-8.0,0.39
-2.0,-4.0,0.391
-2.0,-3.0,0.392
-4.0,-2.0,0.393
-7.0,0.0,0.394
-9.0,1.0,0.395
-7.0,3.0,0.396
-2.0,6.0,0.397
0.0,6.0,0.398
0.0,5.0,0.399
-2.0,3.0,0.4
-4.0,0.0,0.401
0.0,-2.0,0.402
7.0,-4.0,0.403
15.0,-4.0,0.404
16.0,0.0,0.405
12.0,3.0,0.406
11.0,2.0,0.407
14.0,-3.0,0.408
13.0,-8.0,0.409
7.0,-7.0,0.41
1.0,-5.0,0.411
-2.0,-5.0,0.412
-3.0,-2.0,0.413
-5.0,1.0,0.414
-4.0,1.0,0.415
-3.0,0.0,0.416
-1.0,1.0,0.417
0.0,1.0,0.418
-1.0,1.0,0.419
-3.0,1.0,0.42
-5.0,-2.0,0.421
-3.0,-3.0,0.422
6.0,1.0,0.423
16.0,3.0,0.424
18.0,2.0,0.425
12.0,0.0,0.426
9.0,-2.0,0.427
11.0,-3.0,0.428
11.0,-3.0,0.429
6.0,-2.0,0.43
-1.0,-2.0,0.431
-3.0,-3.0,0.432
-3.0,-3.0,0.433
-6.0,-3.0,0.434
-6.0,1.0,0.435
-4.0,4.0,0.436
-1.0,3.0,0.437
-2.0,2.0,0.438
-2.0,1.0,0.439
-3.0,2.0,0.44
-5.0,0.0,0.441
-4.0,-1.0,0.442
6.0,0.0,0.443
19.0,2.0,0.444
22.0,3.0,0.445
15.0,1.0,0.446
8.0,-1.0,0.447
10.0,-3.0,0.448
8.0,-4.0,0.449
2.0,-5.0,0.45
-3.0,-6.0,0.451
-3.0,-5.0,0.452
-3.0,-5.0,0.453
-4.0,-4.0,0.454
-6.0,-2.0,0.455
-5.0,0.0,0.456
-3.0,2.0,0.457
-3.0,0.0,0.458
-2.0,0.0,0.459
-2.0,0.0,0.46
-3.0,-2.0,0.461
-2.0,-3.0,0.462
5.0,-3.0,0.463
13.0,0.0,0.464
15.0,0.0,0.465
12.0,-1.0,0.466
8.0,-2.0,0.467
8.0,-4.0,0.468
6.0,-5.0,0.469
2.0,-3.0,0.47
3.0,-1.0,0.471
2.0,-1.0,0.472
-1.0,-3.0,0.473
-6.0,-2.0,0.474
-6.0,1.0,0.475
-2.0,3.0,0.476
2.0,5.0,0.477
1.0,4.0,0.478
0.0,5.0,0.479
-2.0,5.0,0.48
0.0,0.0,0.481
3.0,-4.0,0.482
12.0,-4.0,0.483
19.0,0.0,0.484
16.0,5.0,0.485
12.0,5.0,0.486
7.0,-1.0,0.487
3.0,-6.0,0.488
2.0,-4.0,0.489
1.0,0.0,0.49
0.0,2.0,0.491
-1.0,1.0,0.492
-3.0,-1.0,0.493
-5.0,-2.0,0.494
-8.0,-3.0,0.495
-9.0,-1.0,0.496
-3.0,3.0,0.497
1.0,4.0,0.498
0.0,2.0,0.499
-4.0,0.0,0.5
-4.0,-5.0,0.501
-3.0,-4.0,0.502
3.0,-1.0,0.503
11.0,0.0,0.504
15.0,0.0,0.505
14.0,-1.0,0.506
11.0,-4.0,0.507
6.0,-7.0,0.508
0.0,-7.0,0.509
-2.0,-3.0,0.51
-2.0,-1.0,0.511
0.0,-2.0,0.512
-1.0,-4.0,0.513
-5.0,-1.0,0.514
-7.0,2.0,0.515
-4.0,2.0,0.516
-1.0,4.0,0.517
-1.0,4.0,0.518
-4.0,5.0,0.519
-5.0,3.0,0.52
-2.0,-2.0,0.521
4.0,-3.0,0.522
13.0,-3.0,0.523
19.0,-4.0,0.524
17.0,-3.0,0.525
12.0,0.0,0.526
7.0,2.0,0.527
5.0,0.0,0.528
5.0,-2.0,0.529
3.0,0.0,0.53
0.0,2.0,0.531
-1.0,1.0,0.532
-1.0,-1.0,0.533
0.0,0.0,0.534
-2.0,5.0,0.535
-5.0,5.0,0.536
-5.0,4.0,0.537
-4.0,1.0,0.538
-2.0,1.0,0.539
-2.0,1.0,0.54
-3.0,-4.0,0.541
0.0,-6.0,0.542
12.0,-6.0,0.543
24.0,-5.0,0.544
25.0,-4.0,0.545
16.0,-4.0,0.546
6.0,-4.0,0.547
5.0,-4.0,0.548
6.0,-2.0,0.549
1.0,1.0,0.55
-2.0,3.0,0.551
-2.0,1.0,0.552
0.0,-3.0,0.553
-2.0,-3.0,0.554
-4.0,0.0,0.555
-4.0,2.0,0.556
-2.0,1.0,0.557
-3.0,-1.0,0.558
-3.0,0.0,0.559
-2.0,2.0,0.56
0.0,0.0,0.561
2.0,0.0,0.562
9.0,1.0,0.563
15.0,2.0,0.564
15.0,0.0,0.565
15.0,-3.0,0.566
11.0,-3.0,0.567
7.0,-3.0,0.568
7.0,-3.0,0.569
5.0,-3.0,0.57
0.0,-3.0,0.571
-4.0,-4.0,0.572
-2.0,-4.0,0.573
-1.0,-3.0,0.574
-4.0,0.0,0.575
-7.0,3.0,0.576
-8.0,4.0,0.577
-8.0,6.0,0.578
-7.0,6.0,0.579
-4.0,4.0,0.58
-1.0,-2.0,0.581
-1.0,-2.0,0.582
2.0,0.0,0.583
12.0,0.0,0.584
17.0,-1.0,0.585
10.0,-2.0,0.586
3.0,-5.0,0.587
2.0,-9.0,0.588
5.0,-9.0,0.589
1.0,-3.0,0.59
-3.0,2.0,0.591
-3.0,0.0,0.592
-2.0,-3.0,0.593
-4.0,0.0,0.594
-5.0,5.0,0.595
-5.0,4.0,0.596
-3.0,4.0,0.597
-4.0,4.0,0.598
-3.0,9.0,0.599
-2.0,9.0,0.6
-2.0,2.0,0.601
0.0,-1.0,0.602
11.0,2.0,0.603
22.0,3.0,0.604
19.0,2.0,0.605
9.0,1.0,0.606
5.0,0.0,0.607
14.0,-2.0,0.608
19.0,-5.0,0.609
15.0,-4.0,0.61
6.0,0.0,0.611
4.0,2.0,0.612
3.0,0.0,0.613
0.0,-1.0,0.614
-2.0,2.0,0.615
-1.0,5.0,0.616
1.0,7.0,0.617
0.0,5.0,0.618
-1.0,3.0,0.619
-4.0,2.0,0.62
-3.0,-3.0,0.621
0.0,-6.0,0.622
8.0,-6.0,0.623
14.0,-2.0,0.624
15.0,0.0,0.625
8.0,1.0,0.626
4.0,-2.0,0.627
8.0,-6.0,0.628
8.0,-8.0,0.629
2.0,-7.0,0.63
-5.0,-4.0,0.631
-8.0,-4.0,0.632
-7.0,-6.0,0.633
-6.0,-6.0,0.634
-7.0,-4.0,0.635
-7.0,-2.0,0.636
-3.0,1.0,0.637
0.0,1.0,0.638
0.0,1.0,0.639
0.0,-1.0,0.64
1.0,-6.0,0.641
2.0,-7.0,0.642
8.0,-6.0,0.643
16.0,-3.0,0.644
20.0,-1.0,0.645
16.0,0.0,0.646
7.0,-3.0,0.647
2.0,-7.0,0.648
3.0,-6.0,0.649
4.0,-1.0,0.65
0.0,2.0,0.651
-5.0,1.0,0.652
-6.0,0.0,0.653
-5.0,0.0,0.654
-4.0,1.0,0.655
-4.0,4.0,0.656
-2.0,8.0,0.657
-2.0,7.0,0.658
-3.0,3.0,0.659
-6.0,0.0,0.66
-4.0,-1.0,0.661
1.0,-1.0,0.662
10.0,-3.0,0.663
17.0,-4.0,0.664
17.0,-3.0,0.665
11.0,-1.0,0.666
5.0,-1.0,0.667
3.0,-4.0,0.668
3.0,-3.0,0.669
4.0,0.0,0.67
1.0,-1.0,0.671
-3.0,-3.0,0.672
-4.0,-1.0,0.673
-3.0,3.0,0.674
-1.0,3.0,0.675
0.0,-1.0,0.676
0.0,-1.0,0.677
1.0,2.0,0.678
3.0,6.0,0.679
0.0,7.0,0.68
-5.0,2.0,0.681
-4.0,0.0,0.682
5.0,-1.0,0.683
16.0,-2.0,0.684
19.0,-1.0,0.685
14.0,-1.0,0.686
10.0,-2.0,0.687
9.0,-4.0,0.688
6.0,-5.0,0.689
1.0,-4.0,0.69
0.0,-4.0,0.691
0.0,-3.0,0.692
0.0,0.0,0.693
-2.0,2.0,0.694
-3.0,3.0,0.695
-3.0,1.0,0.696
-4.0,4.0,0.697
-7.0,4.0,0.698
-6.0,4.0,0.699
-5.0,2.0,0.7
-3.0,-2.0,0.701
-1.0,-3.0,0.702
5.0,-4.0,0.703
13.0,-3.0,0.704
16.0,-1.0,0.705
12.0,-2.0,0.706
6.0,-5.0,0.707
6.0,-7.0,0.708
5.0,-5.0,0.709
0.0,-3.0,0.71
-5.0,-2.0,0.711
-5.0,-1.0,0.712
-3.0,-1.0,0.713
-2.0,0.0,0.714
0.0,0.0,0.715
3.0,0.0,0.716
9.0,3.0,0.717
11.0,3.0,0.718
9.0,1.0,0.719
1.0,0.0,0.72
-3.0,0.0,0.721
-3.0,3.0,0.722
6.0,4.0,0.723
17.0,2.0,0.724
19.0,2.0,0.725
12.0,4.0,0.726
4.0,1.0,0.727
5.0,-4.0,0.728
10.0,-6.0,0.729
3.0,-2.0,0.73
-5.0,0.0,0.731
-8.0,1.0,0.732
-5.0,1.0,0.733
-5.0,3.0,0.734
-10.0,2.0,0.735
-10.0,-1.0,0.736
-2.0,2.0,0.737
2.0,5.0,0.738
1.0,5.0,0.739
-3.0,0.0,0.74
-3.0,-6.0,0.741
0.0,-6.0,0.742
7.0,-4.0,0.743
14.0,-5.0,0.744
17.0,-4.0,0.745
12.0,-3.0,0.746
5.0,-4.0,0.747
3.0,-5.0,0.748
7.0,-4.0,0.749
5.0,-2.0,0.75
-1.0,-2.0,0.751
-6.0,-5.0,0.752
-7.0,-3.0,0.753
-6.0,1.0,0.754
-8.0,2.0,0.755
-7.0,1.0,0.756
-2.0,2.0,0.757
1.0,3.0,0.758
2.0,0.0,0.759
-2.0,-4.0,0.76
-4.0,-7.0,0.761
-3.0,-3.0,0.762
4.0,0.0,0.763
13.0,-1.0,0.764
15.0,-2.0,0.765
11.0,1.0,0.766
7.0,1.0,0.767
7.0,-2.0,0.768
5.0,-3.0,0.769
3.0,-2.0,0.77
2.0,0.0,0.771
3.0,-1.0,0.772
1.0,-2.0,0.773
-2.0,0.0,0.774
-4.0,2.0,0.775
-2.0,0.0,0.776
2.0,0.0,0.777
3.0,3.0,0.778
2.0,8.0,0.779
-1.0,7.0,0.78
-4.0,0.0,0.781
-4.0,-3.0,0.782
6.0,-3.0,0.783
17.0,-2.0,0.784
20.0,-1.0,0.785
14.0,0.0,0.786
11.0,-3.0,0.787
13.0,-8.0,0.788
10.0,-10.0,0.789
1.0,-6.0,0.79
-7.0,-3.0,0.791
-8.0,-3.0,0.792
-7.0,-3.0,0.793
-10.0,1.0,0.794
-11.0,6.0,0.795
-10.0,9.0,0.796
-6.0,9.0,0.797
-6.0,5.0,0.798
-4.0,2.0,0.799
-1.0,0.0,0.8
6.0,-5.0,0.801
15.0,-4.0,0.802
21.0,-2.0,0.803
22.0,0.0,0.804
17.0,3.0,0.805
9.0,3.0,0.806
5.0,-2.0,0.807
6.0,-7.0,0.808
6.0,-5.0,0.809
2.0,0.0,0.81
-2.0,0.0,0.811
-3.0,-1.0,0.812
-4.0,-2.0,0.813
-4.0,0.0,0.814
-4.0,-1.0,0.815
-4.0,-4.0,0.816
-1.0,-2.0,0.817
1.0,2.0,0.818
2.0,3.0,0.819
-1.0,0.0,0.82
-2.0,-4.0,0.821
0.0,-6.0,0.822
8.0,-5.0,0.823
14.0,-5.0,0.824
15.0,-3.0,0.825
12.0,-1.0,0.826
8.0,-1.0,0.827
5.0,-3.0,0.828
2.0,-2.0,0.829
0.0,3.0,0.83
-1.0,4.0,0.831
-2.0,-1.0,0.832
-4.0,-4.0,0.833
-6.0,-1.0,0.834
-7.0,3.0,0.835
-6.0,4.0,0.836
-2.0,4.0,0.837
2.0,3.0,0.838
2.0,3.0,0.839
-2.0,2.0,0.84
-6.0,0.0,0.841
-4.0,-1.0,0.842
8.0,-1.0,0.843
18.0,-2.0,0.844
16.0,-1.0,0.845
10.0,-1.0,0.846
7.0,-3.0,0.847
10.0,-7.0,0.848
9.0,-6.0,0.849
3.0,-3.0,0.85
1.0,-1.0,0.851
2.0,-4.0,0.852
0.0,-4.0,0.853
-5.0,1.0,0.854
-7.0,5.0,0.855
-3.0,7.0,0.856
0.0,8.0,0.857
-2.0,7.0,0.858
-4.0,5.0,0.859
-4.0,0.0,0.86
-2.0,-8.0,0.861
0.0,-8.0,0.862
8.0,-4.0,0.863
17.0,-1.0,0.864
20.0,-1.0,0.865
14.0,-2.0,0.866
4.0,-3.0,0.867
0.0,-2.0,0.868
0.0,-1.0,0.869
0.0,-2.0,0.87
-3.0,-2.0,0.871
-5.0,0.0,0.872
-6.0,2.0,0.873
-9.0,2.0,0.874
-10.0,0.0,0.875
-5.0,0.0,0.876
2.0,4.0,0.877
5.0,4.0,0.878
3.0,2.0,0.879
-1.0,1.0,0.88
-2.0,0.0,0.881
2.0,0.0,0.882
9.0,-2.0,0.883
17.0,-4.0,0.884
18.0,-3.0,0.885
12.0,-1.0,0.886
5.0,0.0,0.887
3.0,-2.0,0.888
3.0,-1.0,0.889
2.0,0.0,0.89
-2.0,-2.0,0.891
-5.0,-3.0,0.892
-2.0,-4.0,0.893
3.0,-5.0,0.894
5.0,-3.0,0.895
3.0,-1.0,0.896
3.0,4.0,0.897
2.0,3.0,0.898
1.0,0.0,0.899
1.0,-1.0,0.9
1.0,-2.0,0.901
3.0,-1.0,0.902
8.0,-1.0,0.903
14.0,-3.0,0.904
17.0,-3.0,0.905
14.0,-2.0,0.906
8.0,-3.0,0.907
4.0,-6.0,0.908
5.0,-8.0,0.909
5.0,-3.0,0.91
0.0,1.0,0.911
-4.0,-1.0,0.912
-6.0,-4.0,0.913
-8.0,-4.0,0.914
-10.0,1.0,0.915
-8.0,6.0,0.916
-1.0,8.0,0.917
2.0,6.0,0.918
2.0,4.0,0.919
-2.0,0.0,0.92
-3.0,-7.0,0.921
0.0,-6.0,0.922
6.0,0.0,0.923
11.0,3.0,0.924
13.0,1.0,0.925
11.0,-1.0,0.926
8.0,0.0,0.927
6.0,2.0,0.928
1.0,0.0,0.929
-4.0,-3.0,0.93
-8.0,-5.0,0.931
-5.0,-7.0,0.932
-4.0,-6.0,0.933
-6.0,-2.0,0.934
-6.0,1.0,0.935
-1.0,3.0,0.936
4.0,3.0,0.937
0.0,2.0,0.938
-6.0,5.0,0.939
-6.0,1.0,0.94
-3.0,-4.0,0.941
0.0,-5.0,0.942
7.0,-1.0,0.943
16.0,2.0,0.944
17.0,1.0,0.945
10.0,2.0,0.946
5.0,2.0,0.947
8.0,-2.0,0.948
9.0,-5.0,0.949
1.0,-2.0,0.95
-4.0,3.0,0.951
-3.0,3.0,0.952
-1.0,0.0,0.953
-3.0,0.0,0.954
-6.0,2.0,0.955
-5.0,2.0,0.956
0.0,3.0,0.957
1.0,3.0,0.958
2.0,5.0,0.959
1.0,5.0,0.96
0.0,0.0,0.961
-1.0,0.0,0.962
5.0,2.0,0.963
17.0,5.0,0.964
19.0,7.0,0.965
14.0,4.0,0.966
9.0,-1.0,0.967
10.0,-4.0,0.968
13.0,-4.0,0.969
11.0,-1.0,0.97
5.0,-3.0,0.971
1.0,-7.0,0.972
0.0,-8.0,0.973
3.0,-5.0,0.974
6.0,-3.0,0.975
6.0,-4.0,0.976
4.0,-2.0,0.977
0.0,-1.0,0.978
2.0,-1.0,0.979
4.0,-4.0,0.98
2.0,-9.0,0.981
1.0,-8.0,0.982
5.0,-4.0,0.983
11.0,-1.0,0.984
12.0,0.0,0.985
7.0,0.0,0.986
4.0,-3.0,0.987
2.0,-5.0,0.988
-1.0,-5.0,0.989
-6.0,-2.0,0.99
-10.0,0.0,0.991
-9.0,-3.0,0.992
-9.0,-4.0,0.993
-9.0,-1.0,0.994
-9.0,2.0,0.995
-7.0,4.0,0.996
-2.0,7.0,0.997
2.0,4.0,0.998
7.0,0.0,0.999
6.0,-2.0,1.0
2.0,-3.0,1.001
3.0,-1.0,1.002
14.0,-2.0,1.003
24.0,-5.0,1.004
21.0,-4.0,1.005
10.0,0.0,1.006
4.0,0.0,1.007
7.0,0.0,1.008
5.0,0.0,1.009
-4.0,2.0,1.01
-11.0,1.0,1.011
-9.0,1.0,1.012
-6.0,3.0,1.013
-8.0,4.0,1.014
-11.0,3.0,1.015
-11.0,2.0,1.016
-4.0,5.0,1.017
2.0,6.0,1.018
3.0,3.0,1.019
0.0,0.0,1.02
-5.0,-1.0,1.021
-2.0,1.0,1.022
6.0,0.0,1.023
14.0,0.0,1.024
15.0,1.0,1.025
11.0,3.0,1.026
9.0,1.0,1.027
8.0,-4.0,1.028
7.0,-4.0,1.029
4.0,-1.0,1.03
1.0,-1.0,1.031
-2.0,-4.0,1.032
-6.0,-4.0,1.033
-8.0,-1.0,1.034
-8.0,2.0,1.035
-5.0,1.0,1.036
-2.0,2.0,1.037
0.0,2.0,1.038
1.0,3.0,1.039
-1.0,1.0,1.04
-2.0,-4.0,1.041
0.0,-5.0,1.042
10.0,-4.0,1.043
18.0,-2.0,1.044
15.0,-1.0,1.045
7.0,-4.0,1.046
6.0,-6.0,1.047
8.0,-5.0,1.048
10.0,-2.0,1.049
5.0,0.0,1.05
0.0,-2.0,1.051
-2.0,-1.0,1.052
-5.0,2.0,1.053
-10.0,5.0,1.054
-10.0,2.0,1.055
-4.0,-2.0,1.056
1.0,0.0,1.057
2.0,2.0,1.058
1.0,1.0,1.059
0.0,-4.0,1.06
-2.0,-8.0,1.061
-2.0,-7.0,1.062
6.0,-4.0,1.063
18.0,-2.0,1.064
21.0,0.0,1.065
15.0,2.0,1.066
7.0,-1.0,1.067
5.0,-5.0,1.068
3.0,-6.0,1.069
-2.0,-3.0,1.07
-6.0,-2.0,1.071
-5.0,-2.0,1.072
-5.0,-3.0,1.073
-10.0,-3.0,1.074
-12.0,-1.0,1.075
-6.0,1.0,1.076
0.0,4.0,1.077
0.0,3.0,1.078
-1.0,1.0,1.079
-2.0,0.0,1.08
-2.0,-1.0,1.081
0.0,-1.0,1.082
7.0,-2.0,1.083
16.0,-2.0,1.084
18.0,-1.0,1.085
13.0,1.0,1.086
9.0,-1.0,1.087
12.0,-4.0,1.088
14.0,-2.0,1.089
8.0,0.0,1.09
0.0,0.0,1.091
-1.0,-1.0,1.092
1.0,-1.0,1.093
0.0,1.0,1.094
-2.0,3.0,1.095
-3.0,1.0,1.096
-2.0,3.0,1.097
-1.0,5.0,1.098
-2.0,7.0,1.099
-2.0,5.0,1.1
-1.0,-2.0,1.101
2.0,-5.0,1.102
13.0,-4.0,1.103
21.0,-1.0,1.104
21.0,2.0,1.105
15.0,0.0,1.106
8.0,-3.0,1.107
7.0,-6.0,1.108
7.0,-4.0,1.109
3.0,0.0,1.11
0.0,1.0,1.111
-1.0,0.0,1.112
-3.0,-2.0,1.113
-7.0,-1.0,1.114
-8.0,1.0,1.115
-5.0,1.0,1.116
-1.0,2.0,1.117
-2.0,0.0,1.118
0.0,-1.0,1.119
1.0,0.0,1.12
1.0,-3.0,1.121
1.0,-6.0,1.122
9.0,-5.0,1.123
15.0,-2.0,1.124
15.0,2.0,1.125
13.0,0.0,1.126
10.0,-3.0,1.127
7.0,-5.0,1.128
5.0,-4.0,1.129
2.0,-3.0,1.13
-1.0,-4.0,1.131
-4.0,-3.0,1.132
-3.0,0.0,1.133
-2.0,2.0,1.134
-6.0,2.0,1.135
-8.0,0.0,1.136
-5.0,-1.0,1.137
-2.0,0.0,1.138
0.0,0.0,1.139
-1.0,2.0,1.14
-1.0,0.0,1.141
0.0,-2.0,1.142
6.0,-3.0,1.143
17.0,-1.0,1.144
20.0,2.0,1.145
13.0,2.0,1.146
5.0,-2.0,1.147
3.0,-5.0,1.148
0.0,-1.0,1.149
-3.0,2.0,1.15
-4.0,1.0,1.151
-1.0,-1.0,1.152
-1.0,1.0,1.153
-7.0,5.0,1.154
-12.0,6.0,1.155
-5.0,2.0,1.156
4.0,2.0,1.157
4.0,1.0,1.158
-2.0,0.0,1.159
-4.0,-1.0,1.16
-3.0,-4.0,1.161
0.0,-4.0,1.162
6.0,-3.0,1.163
16.0,-2.0,1.164
20.0,0.0,1.165
14.0,0.0,1.166
7.0,-2.0,1.167
6.0,-4.0,1.168
7.0,-5.0,1.169
4.0,-3.0,1.17
0.0,0.0,1.171
-1.0,2.0,1.172
0.0,1.0,1.173
-4.0,0.0,1.174
-7.0,0.0,1.175
-7.0,1.0,1.176
-3.0,5.0,1.177
-1.0,5.0,1.178
0.0,2.0,1.179
-1.0,0.0,1.18
-1.0,-1.0,1.181
1.0,0.0,1.182
6.0,-3.0,1.183
13.0,-7.0,1.184
13.0,-8.0,1.185
8.0,-5.0,1.186
6.0,-3.0,1.187
5.0,-4.0,1.188
4.0,-5.0,1.189
-2.0,-2.0,1.19
-2.0,0.0,1.191
0.0,-1.0,1.192
0.0,-3.0,1.193
-4.0,0.0,1.194
-6.0,5.0,1.195
-4.0,5.0,1.196
0.0,4.0,1.197
-1.0,0.0,1.198
0.0,-1.0,1.199
-1.0,-1.0,1.2
-3.0,-4.0,1.201
0.0,-5.0,1.202
12.0,-2.0,1.203
23.0,0.0,1.204
21.0,3.0,1.205
10.0,2.0,1.206
6.0,-3.0,1.207
12.0,-4.0,1.208
12.0,0.0,1.209
3.0,4.0,1.21
-4.0,1.0,1.211
-3.0,-4.0,1.212
0.0,-4.0,1.213
-2.0,3.0,1.214
-7.0,5.0,1.215
-10.0,1.0,1.216
-7.0,1.0,1.217
-4.0,1.0,1.218
2.0,2.0,1.219
5.0,0.0,1.22
3.0,-2.0,1.221
0.0,1.0,1.222
5.0,2.0,1.223
14.0,-3.0,1.224
16.0,-5.0,1.225
9.0,-2.0,1.226
2.0,0.0,1.227
4.0,-1.0,1.228
8.0,-1.0,1.229
2.0,0.0,1.23
-6.0,0.0,1.231
-7.0,-3.0,1.232
-4.0,-6.0,1.233
-2.0,-1.0,1.234
-2.0,3.0,1.235
-2.0,4.0,1.236
0.0,4.0,1.237
0.0,2.0,1.238
1.0,1.0,1.239
1.0,-1.0,1.24
2.0,-5.0,1.241
2.0,-6.0,1.242
5.0,-7.0,1.243
12.0,-6.0,1.244
16.0,-2.0,1.245
11.0,3.0,1.246
3.0,0.0,1.247
3.0,-7.0,1.248
9.0,-9.0,1.249
7.0,-5.0,1.25
-1.0,0.0,1.251
-6.0,-1.0,1.252
-3.0,-2.0,1.253
-1.0,1.0,1.254
-4.0,5.0,1.255
-7.0,5.0,1.256
-4.0,3.0,1.257
0.0,2.0,1.258
1.0,0.0,1.259
0.0,-2.0,1.26
1.0,-5.0,1.261
2.0,-1.0,1.262
6.0,2.0,1.263
13.0,4.0,1.264
16.0,2.0,1.265
11.0,-1.0,1.266
5.0,-5.0,1.267
5.0,-7.0,1.268
8.0,-4.0,1.269
5.0,0.0,1.27
-2.0,-1.0,1.271
-6.0,-4.0,1.272
-3.0,-2.0,1.273
-1.0,3.0,1.274
-5.0,5.0,1.275
-8.0,1.0,1.276
-4.0,2.0,1.277
1.0,6.0,1.278
4.0,6.0,1.279
-1.0,1.0,1.28
-6.0,-4.0,1.281
-3.0,-4.0,1.282
5.0,-1.0,1.283
14.0,0.0,1.284
12.0,1.0,1.285
3.0,-1.0,1.286
0.0,-6.0,1.287
8.0,-9.0,1.288
16.0,-8.0,1.289
13.0,-2.0,1.29
1.0,0.0,1.291
-8.0,-1.0,1.292
-9.0,-2.0,1.293
-6.0,0.0,1.294
-3.0,2.0,1.295
0.0,2.0,1.296
6.0,5.0,1.297
8.0,6.0,1.298
3.0,5.0,1.299
-3.0,0.0,1.3
-4.0,-4.0,1.301
-1.0,-3.0,1.302
5.0,0.0,1.303
11.0,0.0,1.304
16.0,-3.0,1.305
15.0,-2.0,1.306
9.0,-2.0,1.307
4.0,-2.0,1.308
2.0,-3.0,1.309
1.0,-1.0,1.31
0.0,0.0,1.311
-2.0,-2.0,1.312
-2.0,-3.0,1.313
-3.0,1.0,1.314
-3.0,6.0,1.315
-3.0,6.0,1.316
-1.0,5.0,1.317
1.0,1.0,1.318
2.0,2.0,1.319
2.0,3.0,1.32
2.0,-1.0,1.321
5.0,-4.0,1.322
11.0,-3.0,1.323
16.0,-1.0,1.324
13.0,1.0,1.325
7.0,0.0,1.326
2.0,-5.0,1.327
2.0,-8.0,1.328
1.0,-7.0,1.329
-3.0,-4.0,1.33
-3.0,-1.0,1.331
-2.0,-1.0,1.332
-3.0,-4.0,1.333
-6.0,-2.0,1.334
-4.0,2.0,1.335
0.0,5.0,1.336
4.0,8.0,1.337
0.0,7.0,1.338
-2.0,3.0,1.339
-3.0,-1.0,1.34
-4.0,-6.0,1.341
-3.0,-4.0,1.342
5.0,1.0,1.343
19.0,2.0,1.344
21.0,0.0,1.345
12.0,-3.0,1.346
3.0,-1.0,1.347
3.0,0.0,1.348
4.0,-2.0,1.349
-1.0,-5.0,1.35
-5.0,-6.0,1.351
-4.0,-6.0,1.352
-5.0,-5.0,1.353
-12.0,-1.0,1.354
-15.0,3.0,1.355
-10.0,5.0,1.356
-3.0,3.0,1.357
-3.0,0.0,1.358
-2.0,-2.0,1.359
1.0,0.0,1.36
4.0,-2.0,1.361
4.0,-4.0,1.362
10.0,-3.0,1.363
17.0,-2.0,1.364
17.0,1.0,1.365
11.0,3.0,1.366
8.0,1.0,1.367
12.0,-3.0,1.368
10.0,-3.0,1.369
3.0,1.0,1.37
-3.0,4.0,1.371
-2.0,1.0,1.372
-1.0,-3.0,1.373
-6.0,-3.0,1.374
-10.0,0.0,1.375
-7.0,2.0,1.376
-2.0,5.0,1.377
1.0,5.0,1.378
3.0,3.0,1.379
4.0,0.0,1.38
2.0,-6.0,1.381
3.0,-6.0,1.382
11.0,-4.0,1.383
19.0,-3.0,1.384
18.0,-1.0,1.385
8.0,-1.0,1.386
3.0,-4.0,1.387
5.0,-9.0,1.388
6.0,-8.0,1.389
0.0,-4.0,1.39
-5.0,0.0,1.391
-6.0,-1.0,1.392
-6.0,-1.0,1.393
-10.0,3.0,1.394
-11.0,4.0,1.395
-5.0,2.0,1.396
1.0,4.0,1.397
4.0,6.0,1.398
6.0,6.0,1.399
6.0,0.0,1.4
5.0,-5.0,1.401
4.0,-5.0,1.402
10.0,-4.0,1.403
17.0,-3.0,1.404
17.0,0.0,1.405
9.0,4.0,1.406
4.0,4.0,1.407
6.0,-3.0,1.408
6.0,-6.0,1.409
-1.0,-2.0,1.41
-8.0,2.0,1.411
-8.0,1.0,1.412
-6.0,-2.0,1.413
-6.0,0.0,1.414
-5.0,2.0,1.415
-3.0,3.0,1.416
-1.0,2.0,1.417
-1.0,-2.0,1.418
-1.0,-2.0,1.419
1.0,-1.0,1.42
3.0,-2.0,1.421
5.0,-1.0,1.422
11.0,-2.0,1.423
17.0,-2.0,1.424
18.0,1.0,1.425
10.0,2.0,1.426
5.0,1.0,1.427
6.0,-2.0,1.428
8.0,-3.0,1.429
2.0,-2.0,1.43
-1.0,-3.0,1.431
-1.0,-3.0,1.432
1.0,-2.0,1.433
-2.0,-1.0,1.434
-8.0,0.0,1.435
-6.0,0.0,1.436
-2.0,3.0,1.437
-1.0,2.0,1.438
-1.0,0.0,1.439
-2.0,-1.0,1.44
0.0,-4.0,1.441
3.0,-7.0,1.442
9.0,-7.0,1.443
15.0,-3.0,1.444
15.0,0.0,1.445
6.0,0.0,1.446
1.0,-5.0,1.447
5.0,-6.0,1.448
9.0,-2.0,1.449
4.0,2.0,1.45
-4.0,1.0,1.451
-5.0,0.0,1.452
-3.0,1.0,1.453
-4.0,2.0,1.454
-9.0,0.0,1.455
-6.0,0.0,1.456
1.0,4.0,1.457
7.0,6.0,1.458
7.0,3.0,1.459
3.0,-1.0,1.46
1.0,-1.0,1.461
2.0,3.0,1.462
7.0,5.0,1.463
15.0,2.0,1.464
20.0,0.0,1.465
16.0,-1.0,1.466
7.0,-2.0,1.467
4.0,-1.0,1.468
5.0,-2.0,1.469
0.0,-4.0,1.47
-6.0,-4.0,1.471
-8.0,-2.0,1.472
-5.0,2.0,1.473
-5.0,4.0,1.474
-7.0,3.0,1.475
-5.0,3.0,1.476
0.0,2.0,1.477
0.0,-1.0,1.478
-2.0,-2.0,1.479
-4.0,0.0,1.48
-2.0,-3.0,1.481
1.0,-4.0,1.482
8.0,-5.0,1.483
14.0,-3.0,1.484
14.0,-1.0,1.485
12.0,0.0,1.486
9.0,0.0,1.487
6.0,-1.0,1.488
6.0,0.0,1.489
6.0,3.0,1.49
2.0,2.0,1.491
-1.0,0.0,1.492
-3.0,-2.0,1.493
-6.0,0.0,1.494
-6.0,4.0,1.495
-4.0,7.0,1.496
0.0,6.0,1.497
1.0,0.0,1.498
0.0,-5.0,1.499
-3.0,-6.0,1.5
-1.0,-7.0,1.501
1.0,-5.0,1.502
5.0,-3.0,1.503
11.0,-2.0,1.504
14.0,-2.0,1.505
10.0,-3.0,1.506
7.0,-3.0,1.507
5.0,-5.0,1.508
3.0,-6.0,1.509
-2.0,-4.0,1.51
-5.0,-4.0,1.511
-6.0,-4.0,1.512
-6.0,-1.0,1.513
-7.0,1.0,1.514
-9.0,3.0,1.515
-9.0,3.0,1.516
-5.0,3.0,1.517
0.0,3.0,1.518
5.0,2.0,1.519
9.0,0.0,1.52
8.0,-5.0,1.521
9.0,-6.0,1.522
13.0,-2.0,1.523
20.0,0.0,1.524
18.0,1.0,1.525
12.0,0.0,1.526
7.0,-2.0,1.527
7.0,-4.0,1.528
4.0,-4.0,1.529
1.0,-1.0,1.53
-2.0,1.0,1.531
-2.0,0.0,1.532
-4.0,-2.0,1.533
-9.0,0.0,1.534
-11.0,3.0,1.535
-6.0,4.0,1.536
0.0,4.0,1.537
-1.0,4.0,1.538
-3.0,4.0,1.539
-2.0,1.0,1.54
-2.0,-3.0,1.541
0.0,-4.0,1.542
6.0,-1.0,1.543
15.0,-1.0,1.544
17.0,-4.0,1.545
10.0,-3.0,1.546
8.0,-2.0,1.547
8.0,-3.0,1.548
5.0,-1.0,1.549
-2.0,1.0,1.55
-4.0,2.0,1.551
1.0,0.0,1.552
1.0,-1.0,1.553
-4.0,2.0,1.554
-6.0,4.0,1.555
-3.0,0.0,1.556
0.0,-2.0,1.557
-3.0,0.0,1.558
-5.0,2.0,1.559
-2.0,-1.0,1.56
1.0,-7.0,1.561
6.0,-6.0,1.562
14.0,-1.0,1.563
21.0,1.0,1.564
19.0,0.0,1.565
12.0,0.0,1.566
11.0,-1.0,1.567
17.0,-4.0,1.568
15.0,-5.0,1.569
3.0,-3.0,1.57
-3.0,0.0,1.571
-3.0,-2.0,1.572
-2.0,-4.0,1.573
-5.0,-2.0,1.574
-4.0,3.0,1.575
2.0,4.0,1.576
5.0,4.0,1.577
1.0,3.0,1.578
-1.0,1.0,1.579
-2.0,-1.0,1.58
-3.0,-4.0,1.581
-2.0,-3.0,1.582
5.0,-2.0,1.583
14.0,-3.0,1.584
14.0,-3.0,1.585
4.0,-1.0,1.586
-1.0,-1.0,1.587
1.0,-3.0,1.588
5.0,-6.0,1.589
2.0,-5.0,1.59
-2.0,-2.0,1.591
-4.0,0.0,1.592
-5.0,0.0,1.593
-7.0,1.0,1.594
-7.0,3.0,1.595
-4.0,5.0,1.596
-1.0,7.0,1.597
-3.0,6.0,1.598
-4.0,3.0,1.599
-4.0,1.0,1.6
-1.0,-1.0,1.601
4.0,0.0,1.602
12.0,-1.0,1.603
19.0,-2.0,1.604
17.0,0.0,1.605
11.0,3.0,1.606
5.0,2.0,1.607
8.0,-1.0,1.608
10.0,-4.0,1.609
6.0,-3.0,1.61
0.0,-3.0,1.611
-5.0,-2.0,1.612
-6.0,0.0,1.613
-4.0,3.0,1.614
-2.0,2.0,1.615
-2.0,2.0,1.616
-1.0,5.0,1.617
-3.0,6.0,1.618
-2.0,3.0,1.619
-3.0,-1.0,1.62
-2.0,-7.0,1.621
2.0,-8.0,1.622
11.0,-6.0,1.623
16.0,-5.0,1.624
16.0,-3.0,1.625
12.0,-3.0,1.626
9.0,-5.0,1.627
7.0,-4.0,1.628
5.0,0.0,1.629
2.0,-1.0,1.63
0.0,-5.0,1.631
-4.0,-6.0,1.632
-6.0,-2.0,1.633
-6.0,4.0,1.634
-5.0,5.0,1.635
-6.0,2.0,1.636
-5.0,2.0,1.637
-1.0,2.0,1.638
3.0,4.0,1.639
0.0,3.0,1.64
-5.0,-2.0,1.641
-5.0,-5.0,1.642
5.0,-5.0,1.643
17.0,-2.0,1.644
17.0,0.0,1.645
7.0,-1.0,1.646
0.0,-3.0,1.647
-1.0,-3.0,1.648
-2.0,1.0,1.649
-4.0,3.0,1.65
-6.0,3.0,1.651
-6.0,3.0,1.652
-4.0,6.0,1.653
-3.0,8.0,1.654
0.0,7.0,1.655
3.0,6.0,1.656
6.0,7.0,1.657
8.0,4.0,1.658
11.0,0.0,1.659
13.0,-3.0,1.66
12.0,-6.0,1.661
13.0,-5.0,1.662
19.0,-4.0,1.663
26.0,-6.0,1.664
25.0,-7.0,1.665
16.0,-8.0,1.666
8.0,-8.0,1.667
7.0,-9.0,1.668
7.0,-9.0,1.669
3.0,-5.0,1.67
-1.0,-4.0,1.671
-3.0,-5.0,1.672
-7.0,-1.0,1.673
-11.0,1.0,1.674
-12.0,0.0,1.675
-10.0,-4.0,1.676
-7.0,-4.0,1.677
-6.0,0.0,1.678
-4.0,2.0,1.679
-3.0,-1.0,1.68
-4.0,-6.0,1.681
-4.0,-5.0,1.682
5.0,-3.0,1.683
12.0,-2.0,1.684
12.0,-4.0,1.685
12.0,-3.0,1.686
10.0,-4.0,1.687
8.0,-5.0,1.688
4.0,-4.0,1.689
0.0,-1.0,1.69
-1.0,1.0,1.691
-3.0,0.0,1.692
-4.0,0.0,1.693
-5.0,1.0,1.694
-5.0,4.0,1.695
-3.0,7.0,1.696
1.0,10.0,1.697
4.0,8.0,1.698
2.0,3.0,1.699
-1.0,-2.0,1.7
-2.0,-3.0,1.701
2.0,0.0,1.702
13.0,3.0,1.703
21.0,3.0,1.704
19.0,2.0,1.705
11.0,-1.0,1.706
6.0,-3.0,1.707
6.0,-3.0,1.708
5.0,1.0,1.709
-1.0,3.0,1.71
-5.0,1.0,1.711
-6.0,-1.0,1.712
-8.0,-1.0,1.713
-9.0,0.0,1.714
-6.0,0.0,1.715
0.0,1.0,1.716
3.0,4.0,1.717
2.0,3.0,1.718
-1.0,-1.0,1.719
-3.0,-3.0,1.72
-4.0,-5.0,1.721
-1.0,-3.0,1.722
10.0,-4.0,1.723
20.0,-3.0,1.724
18.0,0.0,1.725
9.0,1.0,1.726
4.0,-1.0,1.727
8.0,-3.0,1.728
9.0,-2.0,1.729
1.0,-3.0,1.73
-4.0,-4.0,1.731
-2.0,-3.0,1.732
-1.0,1.0,1.733
-6.0,5.0,1.734
-11.0,4.0,1.735
-5.0,2.0,1.736
4.0,4.0,1.737
6.0,5.0,1.738
2.0,5.0,1.739
0.0,4.0,1.74
0.0,0.0,1.741
1.0,-2.0,1.742
6.0,-4.0,1.743
13.0,-4.0,1.744
17.0,-2.0,1.745
14.0,1.0,1.746
9.0,0.0,1.747
8.0,-2.0,1.748
7.0,-2.0,1.749
0.0,1.0,1.75
-7.0,2.0,1.751
-8.0,0.0,1.752
-5.0,-2.0,1.753
-5.0,0.0,1.754
-7.0,4.0,1.755
-6.0,6.0,1.756
-3.0,6.0,1.757
-2.0,2.0,1.758
0.0,-3.0,1.759
1.0,-5.0,1.76
1.0,-6.0,1.761
4.0,-2.0,1.762
11.0,-1.0,1.763
19.0,-5.0,1.764
18.0,-8.0,1.765
12.0,-6.0,1.766
6.0,-4.0,1.767
8.0,-4.0,1.768
8.0,-7.0,1.769
2.0,-5.0,1.77
-1.0,0.0,1.771
-2.0,5.0,1.772
-3.0,3.0,1.773
-4.0,-1.0,1.774
-4.0,-1.0,1.775
0.0,1.0,1.776
6.0,2.0,1.777
6.0,0.0,1.778
4.0,-1.0,1.779
1.0,3.0,1.78
-1.0,3.0,1.781
0.0,0.0,1.782
9.0,-2.0,1.783
17.0,-1.0,1.784
16.0,0.0,1.785
6.0,-1.0,1.786
2.0,-1.0,1.787
3.0,-1.0,1.788
3.0,-2.0,1.789
-3.0,-6.0,1.79
-7.0,-6.0,1.791
-7.0,-2.0,1.792
-9.0,-1.0,1.793
-12.0,0.0,1.794
-7.0,2.0,1.795
2.0,4.0,1.796
7.0,7.0,1.797
2.0,6.0,1.798
-1.0,5.0,1.799
0.0,5.0,1.8
2.0,0.0,1.801
3.0,-3.0,1.802
6.0,-3.0,1.803
14.0,-3.0,1.804
16.0,-2.0,1.805
11.0,-3.0,1.806
4.0,-4.0,1.807
5.0,-4.0,1.808
3.0,-3.0,1.809
-2.0,-2.0,1.81
-6.0,-2.0,1.811
-4.0,-3.0,1.812
-2.0,-3.0,1.813
-5.0,-2.0,1.814
-6.0,1.0,1.815
-2.0,4.0,1.816
4.0,6.0,1.817
4.0,3.0,1.818
3.0,0.0,1.819
3.0,-1.0,1.82
4.0,-4.0,1.821
4.0,-6.0,1.822
10.0,-5.0,1.823
18.0,-1.0,1.824
20.0,3.0,1.825
14.0,3.0,1.826
8.0,-2.0,1.827
7.0,-8.0,1.828
7.0,-8.0,1.829
4.0,-4.0,1.83
0.0,0.0,1.831
-3.0,0.0,1.832
-7.0,1.0,1.833
-11.0,2.0,1.834
-7.0,3.0,1.835
0.0,2.0,1.836
6.0,4.0,1.837
2.0,4.0,1.838
0.0,4.0,1.839
0.0,-1.0,1.84
1.0,-7.0,1.841
0.0,-7.0,1.842
4.0,-2.0,1.843
14.0,1.0,1.844
18.0,0.0,1.845
13.0,-2.0,1.846
5.0,-3.0,1.847
7.0,-2.0,1.848
9.0,-2.0,1.849
4.0,0.0,1.85
-2.0,3.0,1.851
-5.0,2.0,1.852
-5.0,-2.0,1.853
-9.0,-2.0,1.854
-11.0,3.0,1.855
-7.0,9.0,1.856
0.0,8.0,1.857
0.0,1.0,1.858
-3.0,0.0,1.859
-4.0,3.0,1.86
1.0,1.0,1.861
8.0,-4.0,1.862
11.0,-5.0,1.863
16.0,-1.0,1.864
17.0,0.0,1.865
12.0,-3.0,1.866
3.0,-7.0,1.867
0.0,-7.0,1.868
1.0,-6.0,1.869
-1.0,-4.0,1.87
-4.0,-2.0,1.871
-5.0,-1.0,1.872
-3.0,3.0,1.873
-2.0,5.0,1.874
-3.0,4.0,1.875
-5.0,1.0,1.876
-2.0,1.0,1.877
2.0,3.0,1.878
4.0,4.0,1.879
0.0,0.0,1.88
-4.0,-6.0,1.881
-2.0,-6.0,1.882
8.0,-3.0,1.883
18.0,-1.0,1.884
18.0,1.0,1.885
10.0,0.0,1.886
5.0,-2.0,1.887
6.0,-3.0,1.888
4.0,0.0,1.889
-1.0,3.0,1.89
-3.0,1.0,1.891
0.0,-2.0,1.892
1.0,-3.0,1.893
-2.0,2.0,1.894
-5.0,6.0,1.895
-2.0,6.0,1.896
5.0,5.0,1.897
4.0,4.0,1.898
2.0,3.0,1.899
-1.0,0.0,1.9
-2.0,-5.0,1.901
1.0,-5.0,1.902
9.0,-5.0,1.903
16.0,-4.0,1.904
15.0,-2.0,1.905
8.0,-1.0,1.906
0.0,1.0,1.907
0.0,-1.0,1.908
1.0,-5.0,1.909
0.0,-4.0,1.91
-3.0,-2.0,1.911
-3.0,-2.0,1.912
-2.0,-4.0,1.913
-3.0,-2.0,1.914
-6.0,3.0,1.915
-6.0,5.0,1.916
1.0,4.0,1.917
7.0,1.0,1.918
5.0,0.0,1.919
-2.0,0.0,1.92
-4.0,-4.0,1.921
2.0,-7.0,1.922
13.0,-6.0,1.923
17.0,-2.0,1.924
16.0,2.0,1.925
12.0,1.0,1.926
8.0,-3.0,1.927
7.0,-3.0,1.928
7.0,0.0,1.929
3.0,2.0,1.93
-2.0,-2.0,1.931
-4.0,-5.0,1.932
-4.0,-2.0,1.933
-2.0,4.0,1.934
-2.0,4.0,1.935
-4.0,1.0,1.936
-4.0,2.0,1.937
-4.0,6.0,1.938
-2.0,6.0,1.939
-1.0,1.0,1.94
2.0,-3.0,1.941
4.0,-3.0,1.942
8.0,0.0,1.943
14.0,0.0,1.944
15.0,0.0,1.945
11.0,0.0,1.946
5.0,-3.0,1.947
2.0,-7.0,1.948
4.0,-6.0,1.949
0.0,0.0,1.95
-6.0,3.0,1.951
-9.0,-1.0,1.952
-6.0,-4.0,1.953
-1.0,1.0,1.954
-1.0,6.0,1.955
-2.0,4.0,1.956
1.0,2.0,1.957
3.0,1.0,1.958
4.0,3.0,1.959
2.0,2.0,1.96
0.0,-3.0,1.961
3.0,-3.0,1.962
9.0,-2.0,1.963
15.0,-2.0,1.964
16.0,-3.0,1.965
10.0,-3.0,1.966
5.0,-2.0,1.967
5.0,-4.0,1.968
3.0,-4.0,1.969
0.0,0.0,1.97
-4.0,3.0,1.971
-2.0,1.0,1.972
0.0,-2.0,1.973
-3.0,1.0,1.974
-9.0,4.0,1.975
-9.0,1.0,1.976
-1.0,-1.0,1.977
5.0,0.0,1.978
5.0,6.0,1.979
0.0,7.0,1.98
-3.0,0.0,1.981
2.0,-4.0,1.982
11.0,-3.0,1.983
18.0,-3.0,1.984
17.0,-4.0,1.985
12.0,-6.0,1.986
9.0,-5.0,1.987
10.0,-3.0,1.988
8.0,-5.0,1.989
2.0,-6.0,1.99
-4.0,-4.0,1.991
-7.0,-4.0,1.992
-7.0,-3.0,1.993
-6.0,-2.0,1.994
-2.0,0.0,1.995
0.0,0.0,1.996
0.0,3.0,1.997
-2.0,5.0,1.998
-1.0,3.0,1.999
0.0,1.0,2.0
1.0,-1.0,2.001
3.0,0.0,2.002
9.0,0.0,2.003
16.0,0.0,2.004
16.0,2.0,2.005
10.0,5.0,2.006
6.0,4.0,2.007
9.0,-2.0,2.008
9.0,-4.0,2.009
3.0,0.0,2.01
-1.0,4.0,2.011
-2.0,1.0,2.012
-3.0,-2.0,2.013
-7.0,-1.0,2.014
-7.0,1.0,2.015
-1.0,1.0,2.016
5.0,1.0,2.017
4.0,0.0,2.018
1.0,1.0,2.019
0.0,1.0,2.02
0.0,-3.0,2.021
-2.0,-6.0,2.022
3.0,-6.0,2.023
14.0,-5.0,2.024
19.0,-3.0,2.025
14.0,-3.0,2.026
10.0,-3.0,2.027
12.0,-2.0,2.028
11.0,3.0,2.029
0.0,4.0,2.03
-9.0,1.0,2.031
-7.0,-3.0,2.032
-2.0,-2.0,2.033
-3.0,3.0,2.034
-10.0,5.0,2.035
-10.0,3.0,2.036
-4.0,4.0,2.037
-1.0,3.0,2.038
-1.0,1.0,2.039
-2.0,0.0,2.04
-1.0,-2.0,2.041
2.0,-3.0,2.042
8.0,-1.0,2.043
14.0,1.0,2.044
14.0,1.0,2.045
7.0,0.0,2.046
2.0,-1.0,2.047
4.0,-2.0,2.048
6.0,-2.0,2.049
6.0,-3.0,2.05
3.0,-2.0,2.051
0.0,-1.0,2.052
-2.0,-1.0,2.053
-6.0,-1.0,2.054
-6.0,0.0,2.055
-1.0,3.0,2.056
5.0,5.0,2.057
7.0,6.0,2.058
8.0,2.0,2.059
7.0,-2.0,2.06
6.0,-6.0,2.061
4.0,-6.0,2.062
12.0,-2.0,2.063
22.0,0.0,2.064
22.0,0.0,2.065
9.0,-2.0,2.066
-2.0,-3.0,2.067
-1.0,-2.0,2.068
3.0,-3.0,2.069
-2.0,-2.0,2.07
-8.0,-2.0,2.071
-9.0,-2.0,2.072
-6.0,-2.0,2.073
-5.0,-1.0,2.074
-7.0,3.0,2.075
-4.0,5.0,2.076
-1.0,7.0,2.077
0.0,2.0,2.078
0.0,0.0,2.079
1.0,0.0,2.08
0.0,-1.0,2.081
0.0,-4.0,2.082
6.0,-5.0,2.083
14.0,-5.0,2.084
11.0,-1.0,2.085
3.0,-1.0,2.086
0.0,-1.0,2.087
4.0,-1.0,2.088
8.0,-1.0,2.089
5.0,-2.0,2.09
3.0,-3.0,2.091
3.0,-4.0,2.092
-1.0,-2.0,2.093
-8.0,2.0,2.094
-7.0,4.0,2.095
1.0,4.0,2.096
8.0,5.0,2.097
5.0,6.0,2.098
0.0,6.0,2.099
-3.0,0.0,2.1
-4.0,-8.0,2.101
-3.0,-7.0,2.102
5.0,-2.0,2.103
17.0,0.0,2.104
19.0,-1.0,2.105
11.0,0.0,2.106
3.0,1.0,2.107
3.0,-3.0,2.108
4.0,-6.0,2.109
0.0,-5.0,2.11
-3.0,0.0,2.111
-5.0,1.0,2.112
-5.0,1.0,2.113
-7.0,2.0,2.114
-6.0,5.0,2.115
-2.0,5.0,2.116
1.0,2.0,2.117
0.0,-1.0,2.118
2.0,0.0,2.119
4.0,0.0,2.12
2.0,-5.0,2.121
2.0,-6.0,2.122
7.0,-4.0,2.123
16.0,-2.0,2.124
17.0,-2.0,2.125
11.0,-3.0,2.126
5.0,-3.0,2.127
5.0,-5.0,2.128
3.0,-4.0,2.129
-2.0,0.0,2.13
-5.0,2.0,2.131
-6.0,0.0,2.132
-7.0,-4.0,2.133
-9.0,-3.0,2.134
-9.0,3.0,2.135
-3.0,7.0,2.136
2.0,9.0,2.137
1.0,6.0,2.138
0.0,2.0,2.139
0.0,0.0,2.14
2.0,-3.0,2.141
5.0,-3.0,2.142
12.0,-1.0,2.143
18.0,-2.0,2.144
18.0,-2.0,2.145
10.0,-1.0,2.146
3.0,-4.0,2.147
5.0,-7.0,2.148
5.0,-8.0,2.149
3.0,-3.0,2.15
1.0,1.0,2.151
0.0,1.0,2.152
-2.0,0.0,2.153
-4.0,0.0,2.154
-5.0,2.0,2.155
-2.0,2.0,2.156
1.0,3.0,2.157
0.0,4.0,2.158
-2.0,4.0,2.159
-4.0,2.0,2.16
-2.0,-3.0,2.161
1.0,-7.0,2.162
9.0,-5.0,2.163
14.0,-3.0,2.164
10.0,-3.0,2.165
5.0,-4.0,2.166
3.0,-4.0,2.167
0.0,-3.0,2.168
-1.0,-3.0,2.169
-4.0,-3.0,2.17
-4.0,0.0,2.171
-2.0,2.0,2.172
0.0,2.0,2.173
2.0,1.0,2.174
8.0,3.0,2.175
13.0,5.0,2.176
8.0,2.0,2.177
3.0,-1.0,2.178
1.0,0.0,2.179
2.0,2.0,2.18
2.0,-1.0,2.181
0.0,-2.0,2.182
7.0,-2.0,2.183
15.0,-1.0,2.184
14.0,-2.0,2.185
6.0,-5.0,2.186
2.0,-7.0,2.187
4.0,-6.0,2.188
6.0,-3.0,2.189
-1.0,0.0,2.19
-4.0,0.0,2.191
-4.0,-2.0,2.192
-3.0,-4.0,2.193
-4.0,-2.0,2.194
-5.0,2.0,2.195
-2.0,5.0,2.196
2.0,9.0,2.197
2.0,9.0,2.198
1.0,4.0,2.199
4.0,-3.0,2.2
5.0,-8.0,2.201
6.0,-4.0,2.202
10.0,0.0,2.203
17.0,-2.0,2.204
20.0,-4.0,2.205
13.0,-2.0,2.206
4.0,0.0,2.207
3.0,-2.0,2.208
6.0,-2.0,2.209
6.0,0.0,2.21
0.0,3.0,2.211
-4.0,0.0,2.212
-4.0,-1.0,2.213
-4.0,3.0,2.214
-3.0,7.0,2.215
-2.0,5.0,2.216
4.0,3.0,2.217
7.0,4.0,2.218
4.0,5.0,2.219
-2.0,2.0,2.22
-4.0,-2.0,2.221
0.0,-1.0,2.222
7.0,0.0,2.223
11.0,-3.0,2.224
8.0,-5.0,2.225
2.0,-4.0,2.226
1.0,-4.0,2.227
1.0,-6.0,2.228
-1.0,-6.0,2.229
-5.0,-1.0,2.23
-6.0,0.0,2.231
-3.0,-3.0,2.232
-1.0,-3.0,2.233
0.0,0.0,2.234
2.0,3.0,2.235
8.0,1.0,2.236
12.0,1.0,2.237
4.0,2.0,2.238
-1.0,1.0,2.239
-2.0,-2.0,2.24
-1.0,-8.0,2.241
0.0,-7.0,2.242
6.0,-3.0,2.243
14.0,0.0,2.244
17.0,1.0,2.245
10.0,0.0,2.246
3.0,-3.0,2.247
3.0,-3.0,2.248
3.0,-1.0,2.249
0.0,0.0,2.25
-2.0,-3.0,2.251
-3.0,-6.0,2.252
-4.0,-4.0,2.253
-9.0,2.0,2.254
-12.0,5.0,2.255
-8.0,3.0,2.256
0.0,1.0,2.257
4.0,1.0,2.258
5.0,3.0,2.259
0.0,4.0,2.26
-2.0,-1.0,2.261
-2.0,-4.0,2.262
6.0,-6.0,2.263
15.0,-6.0,2.264
17.0,-4.0,2.265
8.0,-1.0,2.266
1.0,-1.0,2.267
0.0,-2.0,2.268
1.0,-3.0,2.269
-2.0,-3.0,2.27
-6.0,-5.0,2.271
-8.0,-5.0,2.272
-4.0,-1.0,2.273
-2.0,5.0,2.274
0.0,8.0,2.275
1.0,7.0,2.276
3.0,8.0,2.277
2.0,7.0,2.278
3.0,4.0,2.279
5.0,-1.0,2.28
7.0,-6.0,2.281
8.0,-7.0,2.282
13.0,-5.0,2.283
16.0,-4.0,2.284
14.0,-4.0,2.285
6.0,-2.0,2.286
2.0,0.0,2.287
4.0,-1.0,2.288
4.0,-4.0,2.289
-1.0,-2.0,2.29
-6.0,2.0,2.291
-7.0,5.0,2.292
-6.0,2.0,2.293
-6.0,-1.0,2.294
-7.0,1.0,2.295
-5.0,3.0,2.296
-3.0,4.0,2.297
-2.0,1.0,2.298
-2.0,-1.0,2.299
-2.0,-1.0,2.3
-3.0,-3.0,2.301
-2.0,-4.0,2.302
7.0,-3.0,2.303
17.0,-3.0,2.304
17.0,-3.0,2.305
9.0,0.0,2.306
3.0,2.0,2.307
3.0,2.0,2.308
1.0,-2.0,2.309
-2.0,-2.0,2.31
-4.0,0.0,2.311
-3.0,0.0,2.312
-4.0,0.0,2.313
-6.0,3.0,2.314
-4.0,7.0,2.315
1.0,7.0,2.316
3.0,4.0,2.317
1.0,3.0,2.318
3.0,5.0,2.319
5.0,4.0,2.32
4.0,-2.0,2.321
5.0,-5.0,2.322
13.0,-5.0,2.323
22.0,-3.0,2.324
21.0,-2.0,2.325
9.0,1.0,2.326
2.0,1.0,2.327
4.0,-2.0,2.328
5.0,-5.0,2.329
2.0,-3.0,2.33
1.0,0.0,2.331
0.0,0.0,2.332
-1.0,0.0,2.333
-1.0,2.0,2.334
2.0,2.0,2.335
6.0,0.0,2.336
9.0,-1.0,2.337
7.0,1.0,2.338
7.0,1.0,2.339
7.0,-4.0,2.34
5.0,-12.0,2.341
6.0,-12.0,2.342
11.0,-8.0,2.343
15.0,-6.0,2.344
12.0,-8.0,2.345
3.0,-7.0,2.346
-2.0,-5.0,2.347
-1.0,-5.0,2.348
1.0,-3.0,2.349
1.0,0.0,2.35
0.0,1.0,2.351
-2.0,1.0,2.352
-7.0,2.0,2.353
-13.0,7.0,2.354
-13.0,8.0,2.355
-8.0,3.0,2.356
-6.0,1.0,2.357
-7.0,0.0,2.358
-9.0,0.0,2.359
-7.0,-3.0,2.36
-4.0,-9.0,2.361
-1.0,-7.0,2.362
4.0,0.0,2.363
12.0,2.0,2.364
14.0,0.0,2.365
8.0,0.0,2.366
0.0,2.0,2.367
1.0,2.0,2.368
3.0,-3.0,2.369
2.0,-3.0,2.37
0.0,-1.0,2.371
1.0,1.0,2.372
1.0,2.0,2.373
-2.0,3.0,2.374
-4.0,5.0,2.375
-1.0,5.0,2.376
5.0,4.0,2.377
8.0,3.0,2.378
4.0,4.0,2.379
2.0,5.0,2.38
3.0,0.0,2.381
6.0,-2.0,2.382
11.0,0.0,2.383
14.0,0.0,2.384
10.0,-3.0,2.385
1.0,-3.0,2.386
-3.0,-1.0,2.387
-1.0,-1.0,2.388
3.0,-5.0,2.389
4.0,-7.0,2.39
7.0,-5.0,2.391
10.0,0.0,2.392
10.0,4.0,2.393
7.0,6.0,2.394
12.0,5.0,2.395
20.0,4.0,2.396
21.0,4.0,2.397
7.0,4.0,2.398
-7.0,4.0,2.399
-13.0,2.0,2.4
-12.0,-3.0,2.401
-14.0,-3.0,2.402
-11.0,-2.0,2.403
-4.0,-6.0,2.404
1.0,-9.0,2.405
0.0,-5.0,2.406
-2.0,-1.0,2.407
1.0,-4.0,2.408
2.0,-9.0,2.409
-3.0,-7.0,2.41
-7.0,-1.0,2.411
-2.0,1.0,2.412
0.0,-3.0,2.413
0.0,-3.0,2.414
0.0,0.0,2.415
6.0,3.0,2.416
13.0,4.0,2.417
11.0,7.0,2.418
9.0,10.0,2.419
9.0,5.0,2.42
7.0,-7.0,2.421
7.0,-10.0,2.422
13.0,-5.0,2.423
19.0,0.0,2.424
16.0,3.0,2.425
7.0,3.0,2.426
1.0,1.0,2.427
2.0,-3.0,2.428
1.0,-6.0,2.429
-3.0,-4.0,2.43
-5.0,0.0,2.431
-5.0,1.0,2.432
-6.0,-1.0,2.433
-10.0,0.0,2.434
-8.0,3.0,2.435
0.0,-1.0,2.436
8.0,-7.0,2.437
9.0,-11.0,2.438
10.0,-8.0,2.439
11.0,0.0,2.44
8.0,1.0,2.441
6.0,-1.0,2.442
12.0,-6.0,2.443
18.0,-7.0,2.444
13.0,0.0,2.445
-2.0,12.0,2.446
-11.0,22.0,2.447
-10.0,20.0,2.448
-8.0,13.0,2.449
-11.0,6.0,2.45
-14.0,2.0,2.451
-14.0,-1.0,2.452
-13.0,0.0,2.453
-12.0,6.0,2.454
-10.0,9.0,2.455
-5.0,6.0,2.456
0.0,1.0,2.457
2.0,-4.0,2.458
4.0,-5.0,2.459
5.0,-4.0,2.46
5.0,-7.0,2.461
5.0,-9.0,2.462
10.0,-9.0,2.463
16.0,-9.0,2.464
15.0,-7.0,2.465
9.0,-2.0,2.466
4.0,-2.0,2.467
7.0,-4.0,2.468
9.0,-3.0,2.469
7.0,3.0,2.47
4.0,4.0,2.471
4.0,0.0,2.472
2.0,-6.0,2.473
-2.0,-4.0,2.474
-5.0,0.0,2.475
0.0,1.0,2.476
4.0,3.0,2.477
5.0,2.0,2.478
3.0,-1.0,2.479
2.0,-5.0,2.48
5.0,-7.0,2.481
9.0,-4.0,2.482
14.0,-2.0,2.483
17.0,-2.0,2.484
14.0,-2.0,2.485
10.0,2.0,2.486
6.0,3.0,2.487
3.0,-1.0,2.488
4.0,-6.0,2.489
4.0,-6.0,2.49
1.0,-3.0,2.491
-2.0,-3.0,2.492
-2.0,-2.0,2.493
-2.0,1.0,2.494
-1.0,4.0,2.495
0.0,3.0,2.496
1.0,3.0,2.497
2.0,4.0,2.498
2.0,5.0,2.499
1.0,3.0,2.5
1.0,-1.0,2.501
7.0,-1.0,2.502
14.0,-1.0,2.503
19.0,-1.0,2.504
18.0,0.0,2.505
13.0,0.0,2.506
11.0,-2.0,2.507
9.0,-9.0,2.508
2.0,-11.0,2.509
-7.0,-8.0,2.51
-13.0,-6.0,2.511
-18.0,-8.0,2.512
-21.0,-12.0,2.513
-19.0,-12.0,2.514
-10.0,-9.0,2.515
-2.0,-5.0,2.516
-1.0,3.0,2.517
-5.0,13.0,2.518
-3.0,18.0,2.519
1.0,19.0,2.52
-1.0,14.0,2.521
-5.0,11.0,2.522
0.0,6.0,2.523
10.0,2.0,2.524
14.0,0.0,2.525
10.0,5.0,2.526
8.0,5.0,2.527
11.0,1.0,2.528
11.0,0.0,2.529
5.0,2.0,2.53
-1.0,-4.0,2.531
-2.0,-22.0,2.532
-4.0,-41.0,2.533
-7.0,-46.0,2.534
-10.0,-37.0,2.535
-6.0,-18.0,2.536
1.0,3.0,2.537
7.0,23.0,2.538
9.0,38.0,2.539
10.0,41.0,2.54
15.0,37.0,2.541
17.0,31.0,2.542
15.0,23.0,2.543
15.0,11.0,2.544
16.0,3.0,2.545
13.0,1.0,2.546
4.0,-2.0,2.547
-3.0,-10.0,2.548
-4.0,-20.0,2.549
-4.0,-26.0,2.55
-8.0,-35.0,2.551
-10.0,-47.0,2.552
-10.0,-48.0,2.553
-9.0,-29.0,2.554
-7.0,-3.0,2.555
-1.0,15.0,2.556
7.0,26.0,2.557
9.0,37.0,2.558
2.0,48.0,2.559
-6.0,44.0,2.56
-7.0,28.0,2.561
0.0,17.0,2.562
6.0,13.0,2.563
4.0,2.0,2.564
-4.0,-13.0,2.565
-11.0,-19.0,2.566
-9.0,-11.0,2.567
0.0,-3.0,2.568
6.0,-2.0,2.569
4.0,-2.0,2.57
0.0,4.0,2.571
0.0,11.0,2.572
5.0,11.0,2.573
7.0,6.0,2.574
7.0,1.0,2.575
5.0,-3.0,2.576
7.0,-5.0,2.577
10.0,-8.0,2.578
12.0,-12.0,2.579
9.0,-14.0,2.58
3.0,-18.0,2.581
3.0,-18.0,2.582
8.0,-17.0,2.583
11.0,-12.0,2.584
6.0,-3.0,2.585
0.0,9.0,2.586
-2.0,10.0,2.587
-2.0,-1.0,2.588
-3.0,-10.0,2.589
-5.0,-9.0,2.59
-4.0,-4.0,2.591
0.0,-4.0,2.592
0.0,-6.0,2.593
-5.0,-3.0,2.594
-7.0,2.0,2.595
-3.0,2.0,2.596
1.0,2.0,2.597
2.0,2.0,2.598
5.0,3.0,2.599
10.0,-4.0,2.6
15.0,-27.0,2.601
19.0,-54.0,2.602
25.0,-80.0,2.603
34.0,-91.0,2.604
34.0,-86.0,2.605
25.0,-69.0,2.606
18.0,-57.0,2.607
17.0,-49.0,2.608
15.0,-35.0,2.609
10.0,-7.0,2.61
5.0,20.0,2.611
5.0,41.0,2.612
5.0,68.0,2.613
3.0,109.0,2.614
2.0,155.0,2.615
2.0,181.0,2.616
1.0,179.0,2.617
-1.0,150.0,2.618
-5.0,103.0,2.619
-10.0,56.0,2.62
-15.0,22.0,2.621
-16.0,9.0,2.622
-9.0,7.0,2.623
-3.0,2.0,2.624
-6.0,-6.0,2.625
-16.0,-13.0,2.626
-21.0,-23.0,2.627
-19.0,-34.0,2.628
-16.0,-47.0,2.629
-11.0,-56.0,2.63
-3.0,-61.0,2.631
1.0,-61.0,2.632
-7.0,-51.0,2.633
-18.0,-33.0,2.634
-16.0,-23.0,2.635
-2.0,-30.0,2.636
12.0,-49.0,2.637
12.0,-69.0,2.638
10.0,-83.0,2.639
10.0,-97.0,2.64
15.0,-110.0,2.641
20.0,-112.0,2.642
25.0,-82.0,2.643
28.0,-51.0,2.644
26.0,-17.0,2.645
24.0,15.0,2.646
23.0,42.0,2.647
24.0,67.0,2.648
36.0,84.0,2.649
42.0,95.0,2.65
29.0,89.0,2.651
16.0,81.0,2.652
5.0,63.0,2.653
-9.0,56.0,2.654
-33.0,84.0,2.655
-51.0,102.0,2.656
-47.0,91.0,2.657
-37.0,64.0,2.658
-20.0,1.0,2.659
-26.0,-15.0,2.66
-49.0,5.0,2.661
-63.0,14.0,2.662
-53.0,-9.0,2.663
-28.0,-48.0,2.664
-10.0,-90.0,2.665
-2.0,-118.0,2.666
4.0,-112.0,2.667
13.0,-67.0,2.668
17.0,-19.0,2.669
17.0,3.0,2.67
22.0,18.0,2.671
33.0,46.0,2.672
34.0,70.0,2.673
25.0,58.0,2.674
23.0,28.0,2.675
31.0,9.0,2.676
34.0,-7.0,2.677
21.0,-61.0,2.678
12.0,-147.0,2.679
16.0,-227.0,2.68
24.0,-284.0,2.681
26.0,-320.0,2.682
24.0,-324.0,2.683
22.0,-257.0,2.684
12.0,-111.0,2.685
-5.0,57.0,2.686
-8.0,180.0,2.687
8.0,248.0,2.688
23.0,300.0,2.689
31.0,353.0,2.69
44.0,374.0,2.691
64.0,339.0,2.692
68.0,275.0,2.693
46.0,222.0,2.694
21.0,176.0,2.695
11.0,109.0,2.696
0.0,40.0,2.697
-35.0,-11.0,2.698
-90.0,-23.0,2.699
-134.0,-24.0,2.7
-135.0,-44.0,2.701
-97.0,-77.0,2.702
-50.0,-104.0,2.703
-28.0,-125.0,2.704
-35.0,-139.0,2.705
-48.0,-130.0,2.706
-42.0,-97.0,2.707
-16.0,-63.0,2.708
14.0,-50.0,2.709
31.0,-61.0,2.71
29.0,-85.0,2.711
13.0,-110.0,2.712
-8.0,-107.0,2.713
-15.0,-49.0,2.714
10.0,37.0,2.715
60.0,99.0,2.716
97.0,119.0,2.717
95.0,118.0,2.718
69.0,102.0,2.719
52.0,65.0,2.72
50.0,22.0,2.721
42.0,19.0,2.722
29.0,37.0,2.723
23.0,17.0,2.724
23.0,-73.0,2.725
12.0,-214.0,2.726
-9.0,-359.0,2.727
-18.0,-474.0,2.728
-4.0,-563.0,2.729
22.0,-667.0,2.73
37.0,-751.0,2.731
21.0,-642.0,2.732
-23.0,-246.0,2.733
-58.0,211.0,2.734
-53.0,396.0,2.735
-23.0,297.0,2.736
-8.0,231.0,2.737
-16.0,375.0,2.738
-11.0,588.0,2.739
13.0,677.0,2.74
38.0,663.0,2.741
56.0,645.0,2.742
79.0,601.0,2.743
103.0,510.0,2.744
95.0,433.0,2.745
57.0,398.0,2.746
17.0,328.0,2.747
-14.0,191.0,2.748
-49.0,52.0,2.749
-94.0,-78.0,2.75
-130.0,-244.0,2.751
-155.0,-389.0,2.752
-174.0,-376.0,2.753
-185.0,-218.0,2.754
-177.0,-96.0,2.755
-153.0,-115.0,2.756
-124.0,-180.0,2.757
-83.0,-183.0,2.758
-29.0,-111.0,2.759
22.0,-13.0,2.76
67.0,64.0,2.761
120.0,90.0,2.762
180.0,37.0,2.763
211.0,-58.0,2.764
193.0,-144.0,2.765
163.0,-217.0,2.766
147.0,-308.0,2.767
119.0,-385.0,2.768
49.0,-381.0,2.769
-19.0,-282.0,2.77
-32.0,-145.0,2.771
-12.0,-21.0,2.772
-16.0,80.0,2.773
-43.0,151.0,2.774
-45.0,177.0,2.775
-17.0,163.0,2.776
-5.0,138.0,2.777
-34.0,121.0,2.778
-67.0,113.0,2.779
-60.0,100.0,2.78
-23.0,72.0,2.781
-4.0,25.0,2.782
-24.0,-55.0,2.783
-60.0,-151.0,2.784
-75.0,-205.0,2.785
-50.0,-164.0,2.786
6.0,-61.0,2.787
73.0,8.0,2.788
127.0,1.0,2.789
152.0,-24.0,2.79
136.0,-12.0,2.791
87.0,-3.0,2.792
43.0,-67.0,2.793
25.0,-172.0,2.794
2.0,-188.0,2.795
-82.0,-54.0,2.796
-199.0,117.0,2.797
-239.0,163.0,2.798
-155.0,74.0,2.799
-80.0,-27.0,2.8
-37.0,-165.0,2.801
-2.0,-325.0,2.802
7.0,-548.0,2.803
21.0,-701.0,2.804
43.0,-642.0,2.805
61.0,-512.0,2.806
65.0,-168.0,2.807
72.0,156.0,2.808
84.0,423.0,2.809
96.0,626.0,2.81
111.0,637.0,2.811
120.0,643.0,2.812
106.0,631.0,2.813
90.0,618.0,2.814
68.0,604.0,2.815
47.0,567.0,2.816
28.0,459.0,2.817
1.0,317.0,2.818
-55.0,58.0,2.819
-100.0,-151.0,2.82
-123.0,-214.0,2.821
-134.0,-160.0,2.822
-147.0,-114.0,2.823
-165.0,-174.0,2.824
-169.0,-340.0,2.825
-122.0,-514.0,2.826
-19.0,-564.0,2.827
85.0,-444.0,2.828
141.0,-238.0,2.829
154.0,-62.0,2.83
165.0,66.0,2.831
167.0,189.0,2.832
115.0,292.0,2.833
11.0,322.0,2.834
-73.0,285.0,2.835
-63.0,240.0,2.836
15.0,211.0,2.837
72.0,160.0,2.838
40.0,69.0,2.839
-33.0,-83.0,2.84
-61.0,-346.0,2.841
-43.0,-712.0,2.842
-42.0,-1019.0,2.843
-77.0,-1023.0,2.844
-100.0,-654.0,2.845
-91.0,-136.0,2.846
-86.0,228.0,2.847
-99.0,351.0,2.848
-96.0,385.0,2.849
-58.0,466.0,2.85
-13.0,563.0,2.851
25.0,589.0,2.852
69.0,565.0,2.853
108.0,561.0,2.854
108.0,563.0,2.855
67.0,499.0,2.856
26.0,376.0,2.857
-10.0,224.0,2.858
-54.0,73.0,2.859
-86.0,-92.0,2.86
-61.0,-253.0,2.861
2.0,-347.0,2.862
39.0,-343.0,2.863
28.0,-264.0,2.864
18.0,-168.0,2.865
32.0,-117.0,2.866
47.0,-145.0,2.867
62.0,-238.0,2.868
107.0,-337.0,2.869
166.0,-370.0,2.87
176.0,-305.0,2.871
139.0,-186.0,2.872
117.0,-107.0,2.873
121.0,-120.0,2.874
76.0,-164.0,2.875
-43.0,-136.0,2.876
-145.0,-39.0,2.877
-140.0,11.0,2.878
-56.0,-42.0,2.879
8.0,-83.0,2.88
9.0,-81.0,2.881
9.0,-78.0,2.882
3.0,-71.0,2.883
9.0,-112.0,2.884
53.0,-304.0,2.885
85.0,-395.0,2.886
82.0,-184.0,2.887
59.0,48.0,2.888
-18.0,344.0,2.889
-86.0,572.0,2.89
-119.0,600.0,2.891
-142.0,620.0,2.892
-132.0,614.0,2.893
-117.0,578.0,2.894
-86.0,451.0,2.895
-53.0,337.0,2.896
-13.0,260.0,2.897
15.0,195.0,2.898
-2.0,176.0,2.899
4.0,153.0,2.9
32.0,96.0,2.901
49.0,11.0,2.902
44.0,-69.0,2.903
41.0,-116.0,2.904
61.0,-134.0,2.905
82.0,-146.0,2.906
57.0,-175.0,2.907
-32.0,-248.0,2.908
-150.0,-358.0,2.909
-216.0,-458.0,2.91
-190.0,-486.0,2.911
-113.0,-422.0,2.912
-71.0,-316.0,2.913
-94.0,-234.0,2.914
-129.0,-202.0,2.915
-118.0,-191.0,2.916
-70.0,-153.0,2.917
-22.0,-77.0,2.918
30.0,-4.0,2.919
115.0,21.0,2.92
202.0,-1.0,2.921
210.0,-39.0,2.922
131.0,-77.0,2.923
73.0,-98.0,2.924
112.0,-69.0,2.925
182.0,0.0,2.926
166.0,42.0,2.927
68.0,0.0,2.928
-6.0,-129.0,2.929
0.0,-286.0,2.93
37.0,-396.0,2.931
54.0,-380.0,2.932
74.0,-218.0,2.933
112.0,14.0,2.934
123.0,206.0,2.935
76.0,330.0,2.936
25.0,413.0,2.937
31.0,457.0,2.938
78.0,454.0,2.939
98.0,433.0,2.94
59.0,433.0,2.941
-10.0,439.0,2.942
-77.0,407.0,2.943
-139.0,354.0,2.944
-187.0,310.0,2.945
-197.0,256.0,2.946
-159.0,168.0,2.947
-85.0,76.0,2.948
-12.0,9.0,2.949
35.0,-44.0,2.95
49.0,-81.0,2.951
33.0,-51.0,2.952
-4.0,40.0,2.953
-48.0,90.0,2.954
-60.0,33.0,2.955
-18.0,-80.0,2.956
40.0,-162.0,2.957
46.0,-217.0,2.958
-22.0,-248.0,2.959
-108.0,-228.0,2.96
-140.0,-172.0,2.961
-119.0,-169.0,2.962
-92.0,-280.0,2.963
-77.0,-427.0,2.964
-55.0,-485.0,2.965
-11.0,-427.0,2.966
31.0,-325.0,2.967
45.0,-236.0,2.968
20.0,-150.0,2.969
-6.0,-53.0,2.97
4.0,43.0,2.971
54.0,135.0,2.972
96.0,237.0,2.973
107.0,336.0,2.974
114.0,400.0,2.975
141.0,412.0,2.976
163.0,394.0,2.977
143.0,340.0,2.978
83.0,201.0,2.979
9.0,-68.0,2.98
-54.0,-384.0,2.981
-93.0,-546.0,2.982
-99.0,-446.0,2.983
-83.0,-181.0,2.984
-74.0,55.0,2.985
-86.0,176.0,2.986
-100.0,221.0,2.987
-98.0,231.0,2.988
-71.0,224.0,2.989
-26.0,234.0,2.99
27.0,296.0,2.991
93.0,369.0,2.992
171.0,349.0,2.993
242.0,209.0,2.994
266.0,42.0,2.995
223.0,-54.0,2.996
150.0,-75.0,2.997
82.0,-83.0,2.998
31.0,-110.0,2.999
-31.0,-182.0,3.0
-115.0,-359.0,3.001
-191.0,-645.0,3.002
-227.0,-886.0,3.003
-228.0,-850.0,3.004
-207.0,-501.0,3.005
-159.0,-87.0,3.006
-80.0,149.0,3.007
4.0,248.0,3.008
57.0,387.0,3.009
62.0,558.0,3.01
16.0,582.0,3.011
-56.0,410.0,3.012
-99.0,196.0,3.013
-63.0,84.0,3.014
25.0,63.0,3.015
81.0,65.0,3.016
76.0,57.0,3.017
56.0,-1.0,3.018
65.0,-106.0,3.019
68.0,-166.0,3.02
35.0,-88.0,3.021
17.0,88.0,3.022
69.0,224.0,3.023
130.0,255.0,3.024
88.0,218.0,3.025
-39.0,145.0,3.026
-106.0,37.0,3.027
-42.0,-83.0,3.028
42.0,-160.0,3.029
18.0,-183.0,3.03
-85.0,-203.0,3.031
-149.0,-265.0,3.032
-125.0,-338.0,3.033
-73.0,-317.0,3.034
-41.0,-156.0,3.035
-26.0,46.0,3.036
-8.0,143.0,3.037
12.0,127.0,3.038
35.0,110.0,3.039
64.0,146.0,3.04
104.0,179.0,3.041
153.0,196.0,3.042
199.0,259.0,3.043
219.0,339.0,3.044
209.0,314.0,3.045
176.0,165.0,3.046
118.0,33.0,3.047
11.0,-8.0,3.048
-127.0,-61.0,3.049
-225.0,-226.0,3.05
-232.0,-451.0,3.051
-191.0,-603.0,3.052
-163.0,-600.0,3.053
-139.0,-476.0,3.054
-73.0,-370.0,3.055
17.0,-424.0,3.056
70.0,-584.0,3.057
65.0,-658.0,3.058
28.0,-515.0,3.059
-7.0,-272.0,3.06
-10.0,-90.0,3.061
36.0,61.0,3.062
113.0,269.0,3.063
170.0,462.0,3.064
177.0,529.0,3.065
164.0,540.0,3.066
153.0,643.0,3.067
126.0,818.0,3.068
61.0,914.0,3.069
-21.0,890.0,3.07
-77.0,818.0,3.071
-91.0,693.0,3.072
-80.0,431.0,3.073
-78.0,48.0,3.074
-106.0,-281.0,3.075
-157.0,-409.0,3.076
-198.0,-363.0,3.077
-215.0,-277.0,3.078
-221.0,-240.0,3.079
-226.0,-224.0,3.08
-229.0,-272.0,3.081
-203.0,-313.0,3.082
-86.0,-331.0,3.083
25.0,-336.0,3.084
118.0,-298.0,3.085
193.0,-237.0,3.086
215.0,-110.0,3.087
237.0,12.0,3.088
259.0,124.0,3.089
268.0,219.0,3.09
238.0,265.0,3.091
211.0,292.0,3.092
195.0,256.0,3.093
184.0,211.0,3.094
188.0,137.0,3.095
165.0,63.0,3.096
60.0,-13.0,3.097
-65.0,-97.0,3.098
-239.0,-216.0,3.099
-340.0,-356.0,3.1
-337.0,-495.0,3.101
-281.0,-575.0,3.102
-243.0,-527.0,3.103
-245.0,-353.0,3.104
-235.0,-167.0,3.105
-164.0,-84.0,3.106
-48.0,-84.0,3.107
56.0,-43.0,3.108
132.0,77.0,3.109
197.0,200.0,3.11
240.0,265.0,3.111
212.0,287.0,3.112
116.0,265.0,3.113
32.0,172.0,3.114
13.0,31.0,3.115
25.0,-80.0,3.116
32.0,-115.0,3.117
45.0,-82.0,3.118
90.0,23.0,3.119
135.0,169.0,3.12
130.0,248.0,3.121
75.0,184.0,3.122
-3.0,29.0,3.123
-84.0,-89.0,3.124
-136.0,-115.0,3.125
-117.0,-83.0,3.126
-40.0,-56.0,3.127
11.0,-83.0,3.128
-16.0,-144.0,3.129
-77.0,-122.0,3.13
-112.0,78.0,3.131
-121.0,351.0,3.132
-127.0,470.0,3.133
-111.0,375.0,3.134
-57.0,238.0,3.135
1.0,199.0,3.136
35.0,208.0,3.137
60.0,159.0,3.138
97.0,80.0,3.139
124.0,38.0,3.14
125.0,12.0,3.141
118.0,-35.0,3.142
118.0,-78.0,3.143
91.0,-72.0,3.144
15.0,-51.0,3.145
-59.0,-86.0,3.146
-88.0,-168.0,3.147
-93.0,-234.0,3.148
-110.0,-256.0,3.149
-115.0,-251.0,3.15
-67.0,-239.0,3.151
11.0,-243.0,3.152
62.0,-295.0,3.153
62.0,-383.0,3.154
29.0,-426.0,3.155
-11.0,-354.0,3.156
-31.0,-221.0,3.157
-19.0,-109.0,3.158
14.0,-50.0,3.159
35.0,7.0,3.16
34.0,88.0,3.161
29.0,150.0,3.162
30.0,163.0,3.163
29.0,181.0,3.164
27.0,260.0,3.165
37.0,381.0,3.166
44.0,461.0,3.167
27.0,459.0,3.168
1.0,396.0,3.169
6.0,309.0,3.17
38.0,202.0,3.171
57.0,77.0,3.172
54.0,-35.0,3.173
59.0,-117.0,3.174
73.0,-226.0,3.175
43.0,-442.0,3.176
-42.0,-702.0,3.177
-135.0,-853.0,3.178
-159.0,-720.0,3.179
-114.0,-348.0,3.18
-68.0,54.0,3.181
-46.0,335.0,3.182
-14.0,488.0,3.183
53.0,559.0,3.184
119.0,554.0,3.185
144.0,475.0,3.186
134.0,385.0,3.187
115.0,367.0,3.188
89.0,432.0,3.189
39.0,508.0,3.19
-40.0,513.0,3.191
-131.0,422.0,3.192
-200.0,255.0,3.193
-214.0,52.0,3.194
-172.0,-133.0,3.195
-99.0,-232.0,3.196
-20.0,-238.0,3.197
53.0,-267.0,3.198
89.0,-468.0,3.199
46.0,-836.0,3.2
-59.0,-1111.0,3.201
-136.0,-1015.0,3.202
-115.0,-589.0,3.203
-19.0,-168.0,3.204
73.0,20.0,3.205
117.0,66.0,3.206
116.0,144.0,3.207
88.0,234.0,3.208
44.0,233.0,3.209
12.0,173.0,3.21
28.0,159.0,3.211
100.0,176.0,3.212
188.0,153.0,3.213
235.0,128.0,3.214
220.0,180.0,3.215
167.0,266.0,3.216
94.0,297.0,3.217
-22.0,276.0,3.218
-178.0,282.0,3.219
-315.0,320.0,3.22
-361.0,317.0,3.221
-301.0,246.0,3.222
-195.0,129.0,3.223
-127.0,-7.0,3.224
-135.0,-122.0,3.225
-163.0,-170.0,3.226
-126.0,-172.0,3.227
-18.0,-227.0,3.228
69.0,-385.0,3.229
85.0,-591.0,3.23
99.0,-761.0,3.231
168.0,-875.0,3.232
223.0,-910.0,3.233
179.0,-784.0,3.234
92.0,-447.0,3.235
69.0,2.0,3.236
96.0,355.0,3.237
90.0,535.0,3.238
61.0,581.0,3.239
84.0,599.0,3.24
162.0,641.0,3.241
203.0,666.0,3.242
170.0,612.0,3.243
123.0,489.0,3.244
90.0,360.0,3.245
38.0,243.0,3.246
-34.0,75.0,3.247
-82.0,-173.0,3.248
-109.0,-394.0,3.249
-172.0,-421.0,3.25
-277.0,-237.0,3.251
-335.0,-15.0,3.252
-275.0,82.0,3.253
-141.0,59.0,3.254
-40.0,34.0,3.255
-12.0,42.0,3.256
-5.0,31.0,3.257
22.0,-50.0,3.258
57.0,-159.0,3.259
68.0,-220.0,3.26
59.0,-201.0,3.261
50.0,-116.0,3.262
38.0,-22.0,3.263
24.0,8.0,3.264
49.0,-69.0,3.265
132.0,-202.0,3.266
219.0,-244.0,3.267
235.0,-89.0,3.268
185.0,178.0,3.269
116.0,357.0,3.27
33.0,347.0,3.271
-84.0,226.0,3.272
-208.0,104.0,3.273
-257.0,-21.0,3.274
-210.0,-172.0,3.275
-131.0,-283.0,3.276
-85.0,-291.0,3.277
-76.0,-217.0,3.278
-62.0,-112.0,3.279
-23.0,30.0,3.28
27.0,197.0,3.281
61.0,290.0,3.282
74.0,230.0,3.283
87.0,94.0,3.284
102.0,21.0,3.285
101.0,44.0,3.286
74.0,116.0,3.287
41.0,199.0,3.288
16.0,269.0,3.289
-11.0,278.0,3.29
-54.0,227.0,3.291
-102.0,175.0,3.292
-122.0,133.0,3.293
-98.0,44.0,3.294
-66.0,-105.0,3.295
-78.0,-227.0,3.296
-117.0,-264.0,3.297
-100.0,-275.0,3.298
22.0,-329.0,3.299
166.0,-412.0,3.3
194.0,-460.0,3.301
100.0,-438.0,3.302
9.0,-366.0,3.303
-5.0,-270.0,3.304
13.0,-176.0,3.305
17.0,-105.0,3.306
24.0,-59.0,3.307
38.0,-10.0,3.308
24.0,57.0,3.309
-16.0,136.0,3.31
-25.0,211.0,3.311
16.0,269.0,3.312
68.0,306.0,3.313
98.0,317.0,3.314
109.0,306.0,3.315
91.0,278.0,3.316
45.0,242.0,3.317
-10.0,195.0,3.318
-38.0,135.0,3.319
-50.0,61.0,3.32
-64.0,-12.0,3.321
-53.0,-54.0,3.322
0.0,-79.0,3.323
60.0,-126.0,3.324
90.0,-201.0,3.325
111.0,-258.0,3.326
138.0,-269.0,3.327
125.0,-249.0,3.328
40.0,-197.0,3.329
-58.0,-97.0,3.33
-102.0,-14.0,3.331
-106.0,-51.0,3.332
-126.0,-184.0,3.333
-158.0,-244.0,3.334
-156.0,-136.0,3.335
-116.0,59.0,3.336
-63.0,226.0,3.337
-4.0,380.0,3.338
54.0,520.0,3.339
91.0,582.0,3.34
86.0,524.0,3.341
57.0,413.0,3.342
13.0,318.0,3.343
-51.0,228.0,3.344
-125.0,128.0,3.345
-153.0,43.0,3.346
-111.0,-25.0,3.347
-42.0,-136.0,3.348
6.0,-323.0,3.349
42.0,-561.0,3.35
91.0,-781.0,3.351
138.0,-886.0,3.352
146.0,-790.0,3.353
116.0,-515.0,3.354
67.0,-215.0,3.355
10.0,-8.0,3.356
-27.0,131.0,3.357
-19.0,287.0,3.358
35.0,428.0,3.359
80.0,492.0,3.36
75.0,515.0,3.361
37.0,573.0,3.362
1.0,631.0,3.363
-31.0,587.0,3.364
-70.0,427.0,3.365
-100.0,228.0,3.366
-107.0,57.0,3.367
-109.0,-78.0,3.368
-114.0,-207.0,3.369
-99.0,-343.0,3.37
-54.0,-445.0,3.371
-13.0,-438.0,3.372
2.0,-317.0,3.373
8.0,-182.0,3.374
18.0,-119.0,3.375
16.0,-96.0,3.376
7.0,-51.0,3.377
17.0,8.0,3.378
43.0,42.0,3.379
40.0,48.0,3.38
5.0,12.0,3.381
-4.0,-122.0,3.382
41.0,-340.0,3.383
84.0,-473.0,3.384
76.0,-389.0,3.385
50.0,-176.0,3.386
59.0,-4.0,3.387
85.0,114.0,3.388
83.0,252.0,3.389
65.0,385.0,3.39
75.0,433.0,3.391
93.0,416.0,3.392
54.0,407.0,3.393
-39.0,375.0,3.394
-96.0,267.0,3.395
-67.0,131.0,3.396
-18.0,50.0,3.397
-19.0,-12.0,3.398
-55.0,-105.0,3.399
-55.0,-184.0,3.4
0.0,-218.0,3.401
39.0,-245.0,3.402
18.0,-248.0,3.403
-23.0,-248.0,3.404
-28.0,-236.0,3.405
-12.0,-211.0,3.406
-18.0,-149.0,3.407
-49.0,-87.0,3.408
-68.0,-24.0,3.409
-69.0,23.0,3.41
-74.0,20.0,3.411
-72.0,37.0,3.412
-31.0,114.0,3.413
41.0,178.0,3.414
95.0,200.0,3.415
107.0,210.0,3.416
103.0,182.0,3.417
86.0,123.0,3.418
30.0,-68.0,3.419
-50.0,-282.0,3.42
-75.0,-427.0,3.421
-13.0,-440.0,3.422
49.0,-293.0,3.423
34.0,-31.0,3.424
-9.0,180.0,3.425
14.0,195.0,3.426
85.0,64.0,3.427
104.0,-21.0,3.428
52.0,49.0,3.429
3.0,214.0,3.43
-13.0,352.0,3.431
-36.0,381.0,3.432
-55.0,259.0,3.433
-5.0,-16.0,3.434
94.0,-352.0,3.435
125.0,-560.0,3.436
54.0,-500.0,3.437
-41.0,-176.0,3.438
-59.0,193.0,3.439
-32.0,379.0,3.44
-41.0,363.0,3.441
-83.0,320.0,3.442
-104.0,337.0,3.443
-109.0,315.0,3.444
-134.0,165.0,3.445
-159.0,-25.0,3.446
-133.0,-111.0,3.447
-60.0,-70.0,3.448
6.0,18.0,3.449
45.0,111.0,3.45
63.0,215.0,3.451
63.0,301.0,3.452
50.0,313.0,3.453
55.0,232.0,3.454
97.0,92.0,3.455
124.0,-61.0,3.456
82.0,-185.0,3.457
-17.0,-277.0,3.458
-87.0,-336.0,3.459
-89.0,-393.0,3.46
-64.0,-471.0,3.461
-49.0,-534.0,3.462
-23.0,-505.0,3.463
29.0,-360.0,3.464
82.0,-174.0,3.465
109.0,-51.0,3.466
129.0,11.0,3.467
150.0,97.0,3.468
132.0,229.0,3.469
54.0,327.0,3.47
-26.0,323.0,3.471
-44.0,239.0,3.472
-22.0,114.0,3.473
-24.0,-36.0,3.474
-45.0,-162.0,3.475
-34.0,-182.0,3.476
13.0,-100.0,3.477
38.0,-16.0,3.478
9.0,7.0,3.479
-48.0,31.0,3.48
-93.0,57.0,3.481
-105.0,69.0,3.482
-69.0,39.0,3.483
10.0,-20.0,3.484
90.0,-165.0,3.485
127.0,-270.0,3.486
121.0,-250.0,3.487
109.0,-200.0,3.488
96.0,-65.0,3.489
61.0,50.0,3.49
20.0,102.0,3.491
6.0,162.0,3.492
3.0,244.0,3.493
-26.0,294.0,3.494
-73.0,244.0,3.495
-80.0,216.0,3.496
-39.0,254.0,3.497
6.0,281.0,3.498
22.0,237.0,3.499
15.0,176.0,3.5
0.0,137.0,3.501
-36.0,99.0,3.502
-97.0,34.0,3.503
-152.0,-38.0,3.504
-178.0,-100.0,3.505
-178.0,-159.0,3.506
-156.0,-203.0,3.507
-112.0,-209.0,3.508
-51.0,-203.0,3.509
3.0,-230.0,3.51
45.0,-282.0,3.511
85.0,-313.0,3.512
127.0,-319.0,3.513
154.0,-327.0,3.514
143.0,-316.0,3.515
90.0,-227.0,3.516
34.0,-95.0,3.517
21.0,-47.0,3.518
54.0,-167.0,3.519
73.0,-351.0,3.52
37.0,-376.0,3.521
-17.0,-171.0,3.522
-27.0,75.0,3.523
0.0,133.0,3.524
20.0,1.0,3.525
35.0,-132.0,3.526
78.0,-123.0,3.527
133.0,31.0,3.528
149.0,268.0,3.529
123.0,508.0,3.53
97.0,666.0,3.531
85.0,708.0,3.532
72.0,711.0,3.533
51.0,757.0,3.534
19.0,802.0,3.535
-35.0,750.0,3.536
-101.0,620.0,3.537
-157.0,464.0,3.538
-168.0,285.0,3.539
-160.0,27.0,3.54
-170.0,-269.0,3.541
-192.0,-460.0,3.542
-181.0,-506.0,3.543
-122.0,-508.0,3.544
-48.0,-510.0,3.545
9.0,-418.0,3.546
43.0,-200.0,3.547
68.0,-19.0,3.548
96.0,-27.0,3.549
120.0,-137.0,3.55
117.0,-156.0,3.551
71.0,-59.0,3.552
8.0,34.0,3.553
-37.0,72.0,3.554
-67.0,113.0,3.555
-105.0,173.0,3.556
-140.0,191.0,3.557
-133.0,120.0,3.558
-72.0,-10.0,3.559
-7.0,-142.0,3.56
15.0,-222.0,3.561
-3.0,-217.0,3.562
-23.0,-143.0,3.563
-23.0,-58.0,3.564
-8.0,-8.0,3.565
11.0,0.0,3.566
31.0,-20.0,3.567
41.0,-58.0,3.568
39.0,-98.0,3.569
44.0,-129.0,3.57
78.0,-165.0,3.571
129.0,-206.0,3.572
150.0,-226.0,3.573
105.0,-207.0,3.574
19.0,-169.0,3.575
-37.0,-133.0,3.576
-30.0,-103.0,3.577
12.0,-78.0,3.578
31.0,-66.0,3.579
-3.0,-61.0,3.58
-53.0,-54.0,3.581
-69.0,-47.0,3.582
-37.0,-60.0,3.583
8.0,-71.0,3.584
32.0,-33.0,3.585
40.0,37.0,3.586
64.0,63.0,3.587
105.0,18.0,3.588
134.0,-14.0,3.589
138.0,40.0,3.59
130.0,140.0,3.591
109.0,191.0,3.592
52.0,194.0,3.593
-35.0,212.0,3.594
-105.0,250.0,3.595
-133.0,241.0,3.596
-152.0,163.0,3.597
-181.0,27.0,3.598
-172.0,-155.0,3.599
-97.0,-386.0,3.6
-5.0,-557.0,3.601
51.0,-466.0,3.602
98.0,-116.0,3.603
167.0,239.0,3.604
216.0,395.0,3.605
193.0,430.0,3.606
137.0,484.0,3.607
118.0,506.0,3.608
124.0,366.0,3.609
104.0,119.0,3.61
57.0,-66.0,3.611
19.0,-164.0,3.612
-22.0,-276.0,3.613
-96.0,-392.0,3.614
-173.0,-369.0,3.615
-190.0,-140.0,3.616
-145.0,144.0,3.617
-81.0,330.0,3.618
-41.0,373.0,3.619
-39.0,358.0,3.62
-57.0,360.0,3.621
-69.0,377.0,3.622
-59.0,369.0,3.623
-39.0,334.0,3.624
-40.0,282.0,3.625
-58.0,211.0,3.626
-66.0,123.0,3.627
-61.0,31.0,3.628
-73.0,-69.0,3.629
-104.0,-197.0,3.63
-114.0,-347.0,3.631
-77.0,-478.0,3.632
-16.0,-537.0,3.633
26.0,-492.0,3.634
42.0,-353.0,3.635
43.0,-182.0,3.636
43.0,-71.0,3.637
38.0,-49.0,3.638
24.0,-65.0,3.639
1.0,-60.0,3.64
-15.0,-47.0,3.641
-2.0,-66.0,3.642
38.0,-118.0,3.643
73.0,-179.0,3.644
76.0,-247.0,3.645
57.0,-312.0,3.646
49.0,-318.0,3.647
56.0,-209.0,3.648
56.0,-15.0,3.649
45.0,168.0,3.65
37.0,267.0,3.651
44.0,278.0,3.652
51.0,236.0,3.653
48.0,186.0,3.654
43.0,153.0,3.655
46.0,132.0,3.656
60.0,107.0,3.657
63.0,75.0,3.658
48.0,54.0,3.659
16.0,28.0,3.66
-7.0,-30.0,3.661
-8.0,-88.0,3.662
3.0,-98.0,3.663
1.0,-56.0,3.664
-20.0,-22.0,3.665
-47.0,-26.0,3.666
-61.0,-47.0,3.667
-65.0,-47.0,3.668
-67.0,-19.0,3.669
-58.0,27.0,3.67
-32.0,78.0,3.671
-1.0,106.0,3.672
17.0,94.0,3.673
23.0,69.0,3.674
29.0,64.0,3.675
39.0,74.0,3.676
40.0,69.0,3.677
20.0,21.0,3.678
-3.0,-62.0,3.679
-19.0,-163.0,3.68
-25.0,-259.0,3.681
-33.0,-346.0,3.682
-24.0,-447.0,3.683
20.0,-536.0,3.684
76.0,-491.0,3.685
95.0,-232.0,3.686
66.0,133.0,3.687
31.0,394.0,3.688
28.0,487.0,3.689
43.0,518.0,3.69
35.0,557.0,3.691
-1.0,552.0,3.692
-45.0,484.0,3.693
-70.0,423.0,3.694
-69.0,398.0,3.695
-52.0,340.0,3.696
-33.0,225.0,3.697
-26.0,103.0,3.698
-36.0,40.0,3.699
-54.0,-6.0,3.7
-68.0,-83.0,3.701
-72.0,-150.0,3.702
-75.0,-165.0,3.703
-85.0,-164.0,3.704
-91.0,-201.0,3.705
-77.0,-257.0,3.706
-39.0,-297.0,3.707
4.0,-353.0,3.708
39.0,-480.0,3.709
67.0,-638.0,3.71
94.0,-676.0,3.711
111.0,-481.0,3.712
106.0,-128.0,3.713
85.0,175.0,3.714
71.0,296.0,3.715
85.0,294.0,3.716
113.0,286.0,3.717
117.0,292.0,3.718
85.0,264.0,3.719
46.0,198.0,3.72
28.0,144.0,3.721
12.0,91.0,3.722
-40.0,-28.0,3.723
-114.0,-198.0,3.724
-157.0,-292.0,3.725
-150.0,-211.0,3.726
-126.0,-19.0,3.727
-113.0,142.0,3.728
-93.0,207.0,3.729
-48.0,204.0,3.73
0.0,178.0,3.731
28.0,146.0,3.732
48.0,125.0,3.733
76.0,120.0,3.734
96.0,102.0,3.735
81.0,38.0,3.736
47.0,-44.0,3.737
19.0,-92.0,3.738
8.0,-88.0,3.739
1.0,-67.0,3.74
0.0,-56.0,3.741
14.0,-25.0,3.742
25.0,27.0,3.743
18.0,58.0,3.744
5.0,44.0,3.745
12.0,23.0,3.746
26.0,19.0,3.747
19.0,6.0,3.748
-9.0,-46.0,3.749
-24.0,-110.0,3.75
-18.0,-149.0,3.751
-11.0,-177.0,3.752
-14.0,-211.0,3.753
-17.0,-223.0,3.754
-10.0,-179.0,3.755
6.0,-99.0,3.756
24.0,-35.0,3.757
41.0,8.0,3.758
54.0,39.0,3.759
57.0,46.0,3.76
46.0,25.0,3.761
26.0,13.0,3.762
4.0,37.0,3.763
-6.0,65.0,3.764
-3.0,52.0,3.765
6.0,14.0,3.766
18.0,-11.0,3.767
31.0,-25.0,3.768
38.0,-58.0,3.769
25.0,-108.0,3.77
-11.0,-140.0,3.771
-45.0,-132.0,3.772
-57.0,-95.0,3.773
-58.0,-51.0,3.774
-59.0,-15.0,3.775
-47.0,12.0,3.776
-19.0,47.0,3.777
2.0,103.0,3.778
1.0,156.0,3.779
-7.0,162.0,3.78
12.0,135.0,3.781
63.0,144.0,3.782
115.0,190.0,3.783
130.0,182.0,3.784
95.0,77.0,3.785
28.0,-44.0,3.786
-32.0,-79.0,3.787
-62.0,-29.0,3.788
-66.0,48.0,3.789
-63.0,134.0,3.79
-59.0,234.0,3.791
-64.0,299.0,3.792
-79.0,275.0,3.793
-92.0,176.0,3.794
-74.0,58.0,3.795
-25.0,-50.0,3.796
20.0,-133.0,3.797
34.0,-166.0,3.798
27.0,-118.0,3.799
25.0,-27.0,3.8
43.0,30.0,3.801
75.0,34.0,3.802
109.0,11.0,3.803
115.0,-14.0,3.804
75.0,-32.0,3.805
4.0,-42.0,3.806
-54.0,-63.0,3.807
-87.0,-130.0,3.808
-110.0,-239.0,3.809
-132.0,-327.0,3.81
-135.0,-328.0,3.811
-98.0,-250.0,3.812
-39.0,-148.0,3.813
15.0,-59.0,3.814
51.0,7.0,3.815
70.0,48.0,3.816
78.0,64.0,3.817
79.0,74.0,3.818
63.0,96.0,3.819
12.0,120.0,3.82
-55.0,127.0,3.821
-79.0,122.0,3.822
-31.0,107.0,3.823
34.0,75.0,3.824
53.0,27.0,3.825
38.0,-19.0,3.826
45.0,-52.0,3.827
84.0,-79.0,3.828
109.0,-98.0,3.829
89.0,-113.0,3.83
49.0,-176.0,3.831
27.0,-335.0,3.832
27.0,-526.0,3.833
24.0,-574.0,3.834
-2.0,-371.0,3.835
-40.0,-22.0,3.836
-57.0,261.0,3.837
-43.0,412.0,3.838
-16.0,474.0,3.839
1.0,511.0,3.84
19.0,512.0,3.841
45.0,448.0,3.842
69.0,347.0,3.843
72.0,251.0,3.844
55.0,161.0,3.845
32.0,58.0,3.846
5.0,-28.0,3.847
-30.0,-45.0,3.848
-74.0,3.0,3.849
-110.0,43.0,3.85
-118.0,18.0,3.851
-83.0,-49.0,3.852
-22.0,-104.0,3.853
29.0,-127.0,3.854
56.0,-141.0,3.855
69.0,-158.0,3.856
67.0,-172.0,3.857
15.0,-180.0,3.858
-76.0,-186.0,3.859
-135.0,-218.0,3.86
-101.0,-301.0,3.861
-13.0,-406.0,3.862
40.0,-439.0,3.863
29.0,-315.0,3.864
2.0,-75.0,3.865
8.0,159.0,3.866
35.0,320.0,3.867
49.0,426.0,3.868
39.0,480.0,3.869
24.0,440.0,3.87
17.0,325.0,3.871
12.0,224.0,3.872
9.0,176.0,3.873
30.0,126.0,3.874
76.0,32.0,3.875
86.0,-76.0,3.876
10.0,-158.0,3.877
-121.0,-226.0,3.878
-196.0,-289.0,3.879
-160.0,-356.0,3.88
-80.0,-432.0,3.881
-41.0,-460.0,3.882
-24.0,-338.0,3.883
23.0,-46.0,3.884
90.0,253.0,3.885
114.0,370.0,3.886
85.0,297.0,3.887
54.0,173.0,3.888
49.0,100.0,3.889
45.0,83.0,3.89
23.0,121.0,3.891
8.0,205.0,3.892
20.0,266.0,3.893
33.0,237.0,3.894
31.0,143.0,3.895
30.0,47.0,3.896
45.0,-30.0,3.897
50.0,-109.0,3.898
20.0,-147.0,3.899
-31.0,-103.0,3.9
-65.0,-22.0,3.901
-75.0,21.0,3.902
-75.0,15.0,3.903
-67.0,1.0,3.904
-48.0,-4.0,3.905
-30.0,-17.0,3.906
-27.0,-34.0,3.907
-29.0,-40.0,3.908
-21.0,-41.0,3.909
-7.0,-42.0,3.91
8.0,-42.0,3.911
20.0,-40.0,3.912
28.0,-53.0,3.913
33.0,-82.0,3.914
43.0,-103.0,3.915
58.0,-112.0,3.916
62.0,-121.0,3.917
45.0,-133.0,3.918
29.0,-119.0,3.919
43.0,-82.0,3.92
76.0,-73.0,3.921
92.0,-108.0,3.922
83.0,-132.0,3.923
60.0,-85.0,3.924
22.0,-1.0,3.925
-40.0,32.0,3.926
-104.0,-5.0,3.927
-140.0,-42.0,3.928
-143.0,-37.0,3.929
-115.0,-70.0,3.93
-43.0,-200.0,3.931
52.0,-315.0,3.932
109.0,-229.0,3.933
98.0,41.0,3.934
74.0,282.0,3.935
90.0,356.0,3.936
107.0,355.0,3.937
72.0,390.0,3.938
6.0,433.0,3.939
-32.0,402.0,3.94
-43.0,313.0,3.941
-79.0,242.0,3.942
-138.0,186.0,3.943
-166.0,101.0,3.944
-124.0,-22.0,3.945
-38.0,-196.0,3.946
28.0,-416.0,3.947
31.0,-581.0,3.948
-8.0,-546.0,3.949
-29.0,-333.0,3.95
-10.0,-130.0,3.951
15.0,-48.0,3.952
19.0,17.0,3.953
23.0,164.0,3.954
47.0,322.0,3.955
69.0,379.0,3.956
61.0,354.0,3.957
36.0,310.0,3.958
28.0,254.0,3.959
31.0,163.0,3.96
26.0,76.0,3.961
17.0,51.0,3.962
9.0,58.0,3.963
-6.0,36.0,3.964
-29.0,-10.0,3.965
-32.0,-35.0,3.966
-6.0,-41.0,3.967
12.0,-59.0,3.968
-21.0,-89.0,3.969
-96.0,-112.0,3.97
-157.0,-126.0,3.971
-148.0,-135.0,3.972
-54.0,-126.0,3.973
58.0,-99.0,3.974
84.0,-95.0,3.975
12.0,-139.0,3.976
-39.0,-203.0,3.977
16.0,-246.0,3.978
124.0,-239.0,3.979
156.0,-191.0,3.98
104.0,-121.0,3.981
58.0,-40.0,3.982
56.0,34.0,3.983
57.0,78.0,3.984
60.0,83.0,3.985
96.0,56.0,3.986
141.0,21.0,3.987
133.0,2.0,3.988
67.0,1.0,3.989
-13.0,20.0,3.99
-87.0,53.0,3.991
-140.0,82.0,3.992
-130.0,76.0,3.993
-54.0,40.0,3.994
1.0,22.0,3.995
-28.0,52.0,3.996
-84.0,98.0,3.997
-80.0,118.0,3.998
-8.0,108.0,3.999
48.0,86.0,4.0
28.0,52.0,4.001
-36.0,10.0,4.002
-77.0,-32.0,4.003
-63.0,-82.0,4.004
-23.0,-161.0,4.005
-12.0,-266.0,4.006
-38.0,-343.0,4.007
-49.0,-322.0,4.008
-3.0,-206.0,4.009
54.0,-61.0,4.01
66.0,49.0,4.011
45.0,130.0,4.012
40.0,209.0,4.013
47.0,264.0,4.014
23.0,249.0,4.015
-15.0,164.0,4.016
-13.0,79.0,4.017
32.0,24.0,4.018
69.0,-5.0,4.019
57.0,-28.0,4.02
12.0,-33.0,4.021
-38.0,-6.0,4.022
-86.0,18.0,4.023
-127.0,5.0,4.024
-149.0,-36.0,4.025
-139.0,-67.0,4.026
-93.0,-60.0,4.027
-7.0,-14.0,4.028
97.0,58.0,4.029
191.0,123.0,4.03
246.0,151.0,4.031
240.0,143.0,4.032
166.0,142.0,4.033
46.0,169.0,4.034
-70.0,208.0,4.035
-145.0,232.0,4.036
-174.0,237.0,4.037
-159.0,211.0,4.038
-94.0,142.0,4.039
-23.0,39.0,4.04
-3.0,-62.0,4.041
-17.0,-137.0,4.042
11.0,-197.0,4.043
79.0,-241.0,4.044
105.0,-237.0,4.045
74.0,-169.0,4.046
65.0,-87.0,4.047
95.0,-46.0,4.048
66.0,-41.0,4.049
-52.0,-38.0,4.05
-146.0,-31.0,4.051
-131.0,-45.0,4.052
-54.0,-82.0,4.053
15.0,-103.0,4.054
88.0,-90.0,4.055
158.0,-64.0,4.056
157.0,-57.0,4.057
48.0,-79.0,4.058
-76.0,-105.0,4.059
-127.0,-120.0,4.06
-114.0,-116.0,4.061
-95.0,-92.0,4.062
-81.0,-49.0,4.063
-57.0,-20.0,4.064
-22.0,-48.0,4.065
17.0,-128.0,4.066
51.0,-182.0,4.067
62.0,-145.0,4.068
49.0,-37.0,4.069
51.0,71.0,4.07
73.0,148.0,4.071
72.0,220.0,4.072
34.0,293.0,4.073
16.0,344.0,4.074
44.0,359.0,4.075
58.0,342.0,4.076
16.0,298.0,4.077
-58.0,216.0,4.078
-124.0,117.0,4.079
-181.0,31.0,4.08
-211.0,-46.0,4.081
-160.0,-116.0,4.082
-39.0,-156.0,4.083
67.0,-145.0,4.084
98.0,-116.0,4.085
94.0,-116.0,4.086
99.0,-138.0,4.087
110.0,-145.0,4.088
105.0,-142.0,4.089
87.0,-174.0,4.09
60.0,-240.0,4.091
25.0,-287.0,4.092
0.0,-266.0,4.093
0.0,-180.0,4.094
8.0,-56.0,4.095
14.0,68.0,4.096
24.0,160.0,4.097
45.0,201.0,4.098
61.0,203.0,4.099
51.0,187.0,4.1
17.0,168.0,4.101
-23.0,155.0,4.102
-52.0,142.0,4.103
-61.0,129.0,4.104
-57.0,117.0,4.105
-52.0,107.0,4.106
-41.0,86.0,4.107
-18.0,48.0,4.108
9.0,9.0,4.109
14.0,-6.0,4.11
-16.0,-9.0,4.111
-64.0,-29.0,4.112
-97.0,-56.0,4.113
-85.0,-59.0,4.114
-38.0,-57.0,4.115
-6.0,-92.0,4.116
-10.0,-153.0,4.117
0.0,-191.0,4.118
56.0,-170.0,4.119
86.0,-130.0,4.12
40.0,-114.0,4.121
11.0,-95.0,4.122
39.0,-40.0,4.123
57.0,33.0,4.124
43.0,86.0,4.125
26.0,113.0,4.126
0.0,132.0,4.127
-14.0,132.0,4.128
10.0,94.0,4.129
27.0,25.0,4.13
19.0,-37.0,4.131
14.0,-64.0,4.132
18.0,-40.0,4.133
17.0,19.0,4.134
-3.0,76.0,4.135
-29.0,98.0,4.136
-74.0,90.0,4.137
-118.0,72.0,4.138
-117.0,51.0,4.139
-33.0,22.0,4.14
43.0,-16.0,4.141
36.0,-42.0,4.142
2.0,-59.0,4.143
14.0,-71.0,4.144
49.0,-77.0,4.145
46.0,-69.0,4.146
19.0,-53.0,4.147
18.0,-38.0,4.148
44.0,-27.0,4.149
55.0,-12.0,4.15
50.0,-1.0,4.151
52.0,7.0,4.152
47.0,19.0,4.153
6.0,38.0,4.154
-49.0,48.0,4.155
-75.0,38.0,4.156
-79.0,17.0,4.157
-96.0,-10.0,4.158
-83.0,-32.0,4.159
-2.0,-40.0,4.16
89.0,-30.0,4.161
81.0,-11.0,4.162
-14.0,-6.0,4.163
-73.0,-8.0,4.164
-45.0,-5.0,4.165
0.0,-4.0,4.166
7.0,-15.0,4.167
6.0,-23.0,4.168
18.0,-5.0,4.169
24.0,16.0,4.17
21.0,10.0,4.171
30.0,-11.0,4.172
45.0,-14.0,4.173
35.0,-5.0,4.174
7.0,-19.0,4.175
0.0,-71.0,4.176
24.0,-131.0,4.177
59.0,-177.0,4.178
83.0,-184.0,4.179
80.0,-142.0,4.18
39.0,-59.0,4.181
-42.0,32.0,4.182
-131.0,97.0,4.183
-173.0,140.0,4.184
-132.0,179.0,4.185
-29.0,201.0,4.186
62.0,177.0,4.187
90.0,106.0,4.188
74.0,20.0,4.189
68.0,-47.0,4.19
67.0,-84.0,4.191
35.0,-90.0,4.192
-15.0,-62.0,4.193
-19.0,4.0,4.194
21.0,108.0,4.195
45.0,210.0,4.196
35.0,260.0,4.197
31.0,239.0,4.198
57.0,193.0,4.199
67.0,175.0,4.2
35.0,177.0,4.201
-5.0,161.0,4.202
-15.0,121.0,4.203
-16.0,76.0,4.204
-23.0,27.0,4.205
-22.0,-41.0,4.206
-24.0,-104.0,4.207
-70.0,-114.0,4.208
-151.0,-83.0,4.209
-194.0,-83.0,4.21
-167.0,-135.0,4.211
-115.0,-184.0,4.212
-67.0,-182.0,4.213
1.0,-153.0,4.214
83.0,-139.0,4.215
106.0,-138.0,4.216
62.0,-127.0,4.217
22.0,-105.0,4.218
28.0,-87.0,4.219
55.0,-82.0,4.22
49.0,-80.0,4.221
34.0,-72.0,4.222
57.0,-61.0,4.223
88.0,-47.0,4.224
70.0,-29.0,4.225
26.0,-6.0,4.226
15.0,15.0,4.227
28.0,26.0,4.228
19.0,29.0,4.229
-13.0,34.0,4.23
-23.0,44.0,4.231
-1.0,46.0,4.232
35.0,30.0,4.233
67.0,7.0,4.234
69.0,8.0,4.235
14.0,43.0,4.236
-68.0,76.0,4.237
-132.0,67.0,4.238
-134.0,26.0,4.239
-111.0,-3.0,4.24
-77.0,-4.0,4.241
-21.0,7.0,4.242
45.0,4.0,4.243
73.0,-13.0,4.244
60.0,-30.0,4.245
49.0,-33.0,4.246
40.0,-22.0,4.247
-3.0,-7.0,4.248
-62.0,2.0,4.249
-59.0,1.0,4.25
15.0,0.0,4.251
71.0,3.0,4.252
53.0,11.0,4.253
17.0,18.0,4.254
13.0,25.0,4.255
18.0,32.0,4.256
2.0,34.0,4.257
-9.0,23.0,4.258
15.0,8.0,4.259
44.0,-1.0,4.26
46.0,0.0,4.261
42.0,8.0,4.262
48.0,10.0,4.263
38.0,2.0,4.264
-3.0,-4.0,4.265
-35.0,0.0,4.266
-33.0,10.0,4.267
-23.0,14.0,4.268
-27.0,8.0,4.269
-26.0,0.0,4.27
-3.0,-3.0,4.271
20.0,-3.0,4.272
20.0,-3.0,4.273
15.0,-5.0,4.274
27.0,-6.0,4.275
47.0,-5.0,4.276
63.0,0.0,4.277
66.0,10.0,4.278
54.0,34.0,4.279
12.0,65.0,4.28
-35.0,74.0,4.281
-39.0,49.0,4.282
-10.0,5.0,4.283
-19.0,-24.0,4.284
-96.0,-27.0,4.285
-170.0,-22.0,4.286
-163.0,-25.0,4.287
-97.0,-34.0,4.288
-40.0,-39.0,4.289
-9.0,-40.0,4.29
17.0,-33.0,4.291
35.0,-15.0,4.292
27.0,4.0,4.293
18.0,11.0,4.294
37.0,8.0,4.295
60.0,5.0,4.296
47.0,7.0,4.297
0.0,0.0,4.298
-31.0,-8.0,4.299
-14.0,-3.0,4.3
34.0,20.0,4.301
63.0,48.0,4.302
57.0,62.0,4.303
57.0,65.0,4.304
89.0,64.0,4.305
102.0,49.0,4.306
32.0,10.0,4.307
-68.0,-50.0,4.308
-78.0,-102.0,4.309
6.0,-118.0,4.31
57.0,-102.0,4.311
5.0,-76.0,4.312
-57.0,-56.0,4.313
-40.0,-36.0,4.314
17.0,-12.0,4.315
38.0,8.0,4.316
30.0,15.0,4.317
27.0,8.0,4.318
21.0,10.0,4.319
1.0,28.0,4.32
-2.0,40.0,4.321
25.0,31.0,4.322
44.0,6.0,4.323
28.0,-6.0,4.324
8.0,1.0,4.325
19.0,8.0,4.326
38.0,0.0,4.327
28.0,-3.0,4.328
-5.0,21.0,4.329
-26.0,49.0,4.33
-14.0,47.0,4.331
19.0,25.0,4.332
45.0,20.0,4.333
40.0,33.0,4.334
14.0,29.0,4.335
-21.0,0.0,4.336
-62.0,-24.0,4.337
-118.0,-33.0,4.338
-161.0,-33.0,4.339
-173.0,-32.0,4.34
-156.0,-18.0,4.341
-122.0,13.0,4.342
-62.0,33.0,4.343
17.0,25.0,4.344
72.0,9.0,4.345
82.0,1.0,4.346
73.0,-7.0,4.347
64.0,-28.0,4.348
31.0,-44.0,4.349
-24.0,-31.0,4.35
-54.0,4.0,4.351
-30.0,29.0,4.352
15.0,28.0,4.353
36.0,15.0,4.354
41.0,8.0,4.355
53.0,-1.0,4.356
66.0,-14.0,4.357
55.0,-28.0,4.358
0.0,-24.0,4.359
-115.0,1.0,4.36
-243.0,27.0,4.361
-284.0,31.0,4.362
-166.0,16.0,4.363
36.0,12.0,4.364
181.0,29.0,4.365
220.0,48.0,4.366
202.0,45.0,4.367
152.0,36.0,4.368
69.0,42.0,4.369
5.0,36.0,4.37
24.0,-13.0,4.371
87.0,-76.0,4.372
115.0,-85.0,4.373
135.0,-31.0,4.374
221.0,12.0,4.375
309.0,-3.0,4.376
274.0,-34.0,4.377
104.0,-36.0,4.378
-49.0,-32.0,4.379
-89.0,-74.0,4.38
-52.0,-139.0,4.381
7.0,-142.0,4.382
71.0,-70.0,4.383
89.0,9.0,4.384
11.0,37.0,4.385
-111.0,28.0,4.386
-204.0,18.0,4.387
-283.0,18.0,4.388
-392.0,21.0,4.389
-449.0,28.0,4.39
-349.0,39.0,4.391
-150.0,45.0,4.392
3.0,37.0,4.393
74.0,2.0,4.394
125.0,-68.0,4.395
161.0,-159.0,4.396
147.0,-225.0,4.397
100.0,-238.0,4.398
78.0,-209.0,4.399
64.0,-165.0,4.4
24.0,-107.0,4.401
-3.0,-15.0,4.402
29.0,109.0,4.403
80.0,223.0,4.404
80.0,298.0,4.405
59.0,333.0,4.406
69.0,341.0,4.407
79.0,332.0,4.408
38.0,311.0,4.409
-22.0,280.0,4.41
-49.0,231.0,4.411
-56.0,156.0,4.412
-76.0,75.0,4.413
-89.0,12.0,4.414
-67.0,-25.0,4.415
-49.0,-62.0,4.416
-76.0,-103.0,4.417
-133.0,-125.0,4.418
-184.0,-100.0,4.419
-240.0,-58.0,4.42
-316.0,-61.0,4.421
-353.0,-112.0,4.422
-269.0,-153.0,4.423
-65.0,-133.0,4.424
186.0,-79.0,4.425
407.0,-57.0,4.426
542.0,-88.0,4.427
555.0,-120.0,4.428
454.0,-119.0,4.429
296.0,-99.0,4.43
144.0,-88.0,4.431
36.0,-80.0,4.432
-7.0,-63.0,4.433
9.0,-52.0,4.434
40.0,-57.0,4.435
41.0,-58.0,4.436
20.0,-41.0,4.437
-19.0,-17.0,4.438
-85.0,7.0,4.439
-138.0,30.0,4.44
-152.0,47.0,4.441
-148.0,62.0,4.442
-86.0,66.0,4.443
-51.0,65.0,4.444
-96.0,51.0,4.445
-142.0,31.0,4.446
-188.0,-2.0,4.447
-205.0,-23.0,4.448
-131.0,1.0,4.449
-39.0,21.0,4.45
102.0,31.0,4.451
201.0,39.0,4.452
169.0,41.0,4.453
133.0,39.0,4.454
90.0,25.0,4.455
51.0,9.0,4.456
28.0,-15.0,4.457
15.0,-48.0,4.458
26.0,-87.0,4.459
13.0,-58.0,4.46
0.0,14.0,4.461
32.0,49.0,4.462
88.0,33.0,4.463
102.0,35.0,4.464
56.0,83.0,4.465
-9.0,109.0,4.466
-42.0,65.0,4.467
-61.0,-7.0,4.468
-153.0,-46.0,4.469
-372.0,-74.0,4.47
-640.0,-152.0,4.471
-777.0,-282.0,4.472
-650.0,-393.0,4.473
-275.0,-413.0,4.474
195.0,-326.0,4.475
572.0,-182.0,4.476
745.0,-48.0,4.477
733.0,52.0,4.478
614.0,135.0,4.479
446.0,217.0,4.48
260.0,287.0,4.481
123.0,335.0,4.482
88.0,363.0,4.483
90.0,382.0,4.484
-3.0,374.0,4.485
-188.0,317.0,4.486
-318.0,225.0,4.487
-303.0,138.0,4.488
-188.0,73.0,4.489
-35.0,18.0,4.49
123.0,-26.0,4.491
225.0,-49.0,4.492
190.0,-64.0,4.493
42.0,-89.0,4.494
-87.0,-117.0,4.495
-109.0,-113.0,4.496
-51.0,-78.0,4.497
16.0,-52.0,4.498
32.0,-57.0,4.499
-25.0,-65.0,4.5
-122.0,-46.0,4.501
-202.0,-10.0,4.502
-228.0,-6.0,4.503
-194.0,-46.0,4.504
-105.0,-82.0,4.505
-1.0,-73.0,4.506
36.0,-44.0,4.507
-27.0,-52.0,4.508
-101.0,-105.0,4.509
-75.0,-165.0,4.51
29.0,-221.0,4.511
94.0,-291.0,4.512
82.0,-355.0,4.513
33.0,-354.0,4.514
-34.0,-272.0,4.515
-119.0,-137.0,4.516
-154.0,27.0,4.517
-89.0,240.0,4.518
8.0,427.0,4.519
82.0,487.0,4.52
86.0,418.0,4.521
115.0,331.0,4.522
216.0,290.0,4.523
274.0,261.0,4.524
204.0,196.0,4.525
114.0,109.0,4.526
-34.0,23.0,4.527
-179.0,-54.0,4.528
-317.0,-112.0,4.529
-391.0,-127.0,4.53
-269.0,-108.0,4.531
-142.0,-93.0,4.532
-4.0,-90.0,4.533
114.0,-83.0,4.534
173.0,-72.0,4.535
214.0,-80.0,4.536
199.0,-95.0,4.537
170.0,-104.0,4.538
107.0,-100.0,4.539
77.0,-91.0,4.54
98.0,-77.0,4.541
157.0,-42.0,4.542
240.0,-2.0,4.543
307.0,17.0,4.544
294.0,15.0,4.545
200.0,4.0,4.546
104.0,-12.0,4.547
22.0,-23.0,4.548
-158.0,-11.0,4.549
-483.0,20.0,4.55
-754.0,41.0,4.551
-730.0,30.0,4.552
-441.0,-1.0,4.553
-132.0,-38.0,4.554
70.0,-71.0,4.555
206.0,-91.0,4.556
266.0,-96.0,4.557
166.0,-93.0,4.558
28.0,-87.0,4.559
-38.0,-80.0,4.56
114.0,-67.0,4.561
231.0,-52.0,4.562
243.0,-34.0,4.563
227.0,-6.0,4.564
128.0,48.0,4.565
55.0,99.0,4.566
63.0,136.0,4.567
51.0,162.0,4.568
-20.0,156.0,4.569
-88.0,145.0,4.57
-146.0,119.0,4.571
-181.0,102.0,4.572
-141.0,116.0,4.573
-110.0,120.0,4.574
-110.0,89.0,4.575
-82.0,64.0,4.576
31.0,55.0,4.577
131.0,46.0,4.578
138.0,25.0,4.579
104.0,-11.0,4.58
98.0,-42.0,4.581
102.0,-50.0,4.582
71.0,-45.0,4.583
18.0,-42.0,4.584
1.0,-42.0,4.585
22.0,-38.0,4.586
17.0,-33.0,4.587
-33.0,-33.0,4.588
-71.0,-41.0,4.589
-56.0,-50.0,4.59
-32.0,-54.0,4.591
-60.0,-55.0,4.592
-115.0,-55.0,4.593
-107.0,-57.0,4.594
-1.0,-55.0,4.595
154.0,-40.0,4.596
286.0,-8.0,4.597
343.0,28.0,4.598
300.0,45.0,4.599
206.0,33.0,4.6
-39.0,16.0,4.601
-248.0,19.0,4.602
-346.0,28.0,4.603
-395.0,26.0,4.604
-293.0,12.0,4.605
-195.0,-19.0,4.606
-111.0,-85.0,4.607
-42.0,-169.0,4.608
-20.0,-222.0,4.609
-15.0,-228.0,4.61
-63.0,-216.0,4.611
-91.0,-192.0,4.612
-60.0,-119.0,4.613
-7.0,0.0,4.614
107.0,102.0,4.615
209.0,166.0,4.616
271.0,227.0,4.617
319.0,297.0,4.618
282.0,316.0,4.619
199.0,246.0,4.62
132.0,143.0,4.621
87.0,83.0,4.622
-9.0,52.0,4.623
-170.0,15.0,4.624
-277.0,-15.0,4.625
-230.0,-10.0,4.626
-97.0,13.0,4.627
-16.0,27.0,4.628
-11.0,26.0,4.629
-17.0,20.0,4.63
-19.0,11.0,4.631
-33.0,-1.0,4.632
-19.0,-8.0,4.633
71.0,-19.0,4.634
174.0,-46.0,4.635
176.0,-80.0,4.636
92.0,-97.0,4.637
12.0,-96.0,4.638
1.0,-96.0,4.639
0.0,-106.0,4.64
-44.0,-106.0,4.641
-97.0,-76.0,4.642
-93.0,-31.0,4.643
-38.0,10.0,4.644
19.0,37.0,4.645
54.0,44.0,4.646
70.0,24.0,4.647
63.0,-25.0,4.648
24.0,-93.0,4.649
-23.0,-163.0,4.65
-36.0,-203.0,4.651
-2.0,-194.0,4.652
46.0,-139.0,4.653
61.0,-66.0,4.654
41.0,4.0,4.655
35.0,71.0,4.656
65.0,132.0,4.657
99.0,186.0,4.658
86.0,235.0,4.659
24.0,268.0,4.66
-27.0,265.0,4.661
-38.0,236.0,4.662
-40.0,217.0,4.663
-73.0,228.0,4.664
-152.0,220.0,4.665
-263.0,126.0,4.666
-357.0,-28.0,4.667
-366.0,-119.0,4.668
-269.0,-87.0,4.669
-114.0,-12.0,4.67
47.0,-12.0,4.671
190.0,-83.0,4.672
292.0,-130.0,4.673
325.0,-122.0,4.674
313.0,-134.0,4.675
289.0,-188.0,4.676
206.0,-207.0,4.677
-6.0,-145.0,4.678
-220.0,-75.0,4.679
-331.0,-30.0,4.68
-131.0,-62.0,4.681
37.0,-80.0,4.682
111.0,-54.0,4.683
163.0,-34.0,4.684
149.0,-35.0,4.685
127.0,-30.0,4.686
81.0,0.0,4.687
39.0,22.0,4.688
11.0,22.0,4.689
-33.0,26.0,4.69
-129.0,44.0,4.691
-176.0,41.0,4.692
-78.0,-31.0,4.693
0.0,-74.0,4.694
17.0,-30.0,4.695
15.0,12.0,4.696
-53.0,44.0,4.697
-133.0,62.0,4.698
-204.0,40.0,4.699
-93.0,46.0,4.7
195.0,69.0,4.701
424.0,65.0,4.702
401.0,20.0,4.703
188.0,-29.0,4.704
-18.0,-54.0,4.705
-135.0,-68.0,4.706
-194.0,-79.0,4.707
-198.0,-64.0,4.708
-131.0,-21.0,4.709
-34.0,7.0,4.71
44.0,1.0,4.711
112.0,-2.0,4.712
174.0,15.0,4.713
165.0,18.0,4.714
41.0,-21.0,4.715
-111.0,-62.0,4.716
-171.0,-70.0,4.717
-132.0,-66.0,4.718
-65.0,-72.0,4.719
0.0,-69.0,4.72
91.0,-34.0,4.721
187.0,12.0,4.722
205.0,44.0,4.723
114.0,77.0,4.724
-25.0,133.0,4.725
-139.0,178.0,4.726
-214.0,173.0,4.727
-258.0,142.0,4.728
-245.0,133.0,4.729
-138.0,149.0,4.73
50.0,143.0,4.731
238.0,96.0,4.732
309.0,37.0,4.733
176.0,-8.0,4.734
-124.0,-45.0,4.735
-419.0,-70.0,4.736
-502.0,-61.0,4.737
-324.0,-23.0,4.738
-36.0,-1.0,4.739
153.0,-29.0,4.74
202.0,-78.0,4.741
213.0,-99.0,4.742
235.0,-104.0,4.743
218.0,-122.0,4.744
150.0,-141.0,4.745
104.0,-116.0,4.746
103.0,-39.0,4.747
78.0,50.0,4.748
-9.0,118.0,4.749
-93.0,164.0,4.75
-101.0,178.0,4.751
-56.0,154.0,4.752
-7.0,105.0,4.753
33.0,64.0,4.754
55.0,41.0,4.755
38.0,22.0,4.756
-13.0,2.0,4.757
-75.0,-19.0,4.758
-104.0,-39.0,4.759
-79.0,-65.0,4.76
-9.0,-88.0,4.761
43.0,-80.0,4.762
17.0,-56.0,4.763
-54.0,-61.0,4.764
-72.0,-98.0,4.765
-15.0,-113.0,4.766
21.0,-80.0,4.767
-9.0,-39.0,4.768
-25.0,-31.0,4.769
32.0,-41.0,4.77
101.0,-36.0,4.771
97.0,-19.0,4.772
50.0,-14.0,4.773
33.0,-18.0,4.774
51.0,-22.0,4.775
69.0,-29.0,4.776
85.0,-44.0,4.777
96.0,-64.0,4.778
71.0,-84.0,4.779
-22.0,-111.0,4.78
-128.0,-141.0,4.781
-152.0,-140.0,4.782
-82.0,-88.0,4.783
-12.0,3.0,4.784
-22.0,100.0,4.785
-75.0,174.0,4.786
-79.0,219.0,4.787
-16.0,239.0,4.788
43.0,239.0,4.789
57.0,212.0,4.79
66.0,155.0,4.791
98.0,97.0,4.792
94.0,70.0,4.793
-9.0,73.0,4.794
-157.0,74.0,4.795
-221.0,49.0,4.796
-148.0,0.0,4.797
34.0,-51.0,4.798
230.0,-57.0,4.799
334.0,-5.0,4.8
272.0,38.0,4.801
64.0,0.0,4.802
-152.0,-103.0,4.803
-230.0,-165.0,4.804
-174.0,-147.0,4.805
-87.0,-121.0,4.806
-43.0,-141.0,4.807
-37.0,-154.0,4.808
-61.0,-103.0,4.809
-108.0,-33.0,4.81
-119.0,-11.0,4.811
-46.0,-28.0,4.812
68.0,-30.0,4.813
121.0,-11.0,4.814
98.0,-3.0,4.815
71.0,-3.0,4.816
72.0,9.0,4.817
73.0,28.0,4.818
58.0,27.0,4.819
38.0,2.0,4.82
21.0,-20.0,4.821
2.0,-21.0,4.822
-9.0,-7.0,4.823
11.0,14.0,4.824
82.0,34.0,4.825
199.0,38.0,4.826
299.0,28.0,4.827
259.0,16.0,4.828
29.0,14.0,4.829
-266.0,9.0,4.83
-430.0,-9.0,4.831
-386.0,-22.0,4.832
-213.0,12.0,4.833
-31.0,101.0,4.834
75.0,188.0,4.835
77.0,213.0,4.836
29.0,184.0,4.837
16.0,145.0,4.838
55.0,111.0,4.839
63.0,54.0,4.84
16.0,-51.0,4.841
1.0,-165.0,4.842
62.0,-255.0,4.843
112.0,-316.0,4.844
74.0,-337.0,4.845
-12.0,-292.0,4.846
-86.0,-173.0,4.847
-153.0,-23.0,4.848
-191.0,117.0,4.849
-134.0,234.0,4.85
-6.0,310.0,4.851
66.0,320.0,4.852
38.0,268.0,4.853
10.0,208.0,4.854
60.0,172.0,4.855
147.0,140.0,4.856
212.0,97.0,4.857
252.0,36.0,4.858
235.0,-28.0,4.859
98.0,-86.0,4.86
-98.0,-126.0,4.861
-199.0,-130.0,4.862
-158.0,-111.0,4.863
-81.0,-99.0,4.864
-48.0,-112.0,4.865
-21.0,-131.0,4.866
24.0,-134.0,4.867
44.0,-104.0,4.868
22.0,-34.0,4.869
1.0,48.0,4.87
1.0,104.0,4.871
-11.0,111.0,4.872
-31.0,82.0,4.873
-30.0,19.0,4.874
-18.0,-81.0,4.875
-32.0,-217.0,4.876
-52.0,-339.0,4.877
-28.0,-418.0,4.878
13.0,-418.0,4.879
32.0,-342.0,4.88
-25.0,-216.0,4.881
-50.0,-55.0,4.882
22.0,121.0,4.883
77.0,278.0,4.884
81.0,371.0,4.885
76.0,384.0,4.886
40.0,346.0,4.887
0.0,306.0,4.888
-52.0,281.0,4.889
-81.0,263.0,4.89
-42.0,235.0,4.891
-6.0,198.0,4.892
18.0,159.0,4.893
32.0,115.0,4.894
18.0,51.0,4.895
1.0,-34.0,4.896
-21.0,-106.0,4.897
-35.0,-147.0,4.898
-5.0,-151.0,4.899
29.0,-136.0,4.9
26.0,-115.0,4.901
-10.0,-82.0,4.902
-44.0,-55.0,4.903
-53.0,-53.0,4.904
-27.0,-69.0,4.905
22.0,-91.0,4.906
55.0,-128.0,4.907
40.0,-187.0,4.908
6.0,-245.0,4.909
-2.0,-273.0,4.91
28.0,-271.0,4.911
66.0,-244.0,4.912
85.0,-172.0,4.913
67.0,-43.0,4.914
-1.0,104.0,4.915
-100.0,209.0,4.916
-156.0,262.0,4.917
-113.0,288.0,4.918
-2.0,286.0,4.919
82.0,245.0,4.92
74.0,175.0,4.921
6.0,121.0,4.922
-30.0,87.0,4.923
26.0,54.0,4.924
160.0,15.0,4.925
296.0,-19.0,4.926
347.0,-42.0,4.927
246.0,-56.0,4.928
5.0,-69.0,4.929
-266.0,-85.0,4.93
-431.0,-116.0,4.931
-448.0,-162.0,4.932
-361.0,-203.0,4.933
-192.0,-211.0,4.934
52.0,-173.0,4.935
264.0,-98.0,4.936
304.0,-27.0,4.937
174.0,-3.0,4.938
29.0,-27.0,4.939
-22.0,-56.0,4.94
-17.0,-39.0,4.941
-3.0,19.0,4.942
26.0,69.0,4.943
51.0,77.0,4.944
22.0,69.0,4.945
-25.0,73.0,4.946
-17.0,78.0,4.947
35.0,63.0,4.948
56.0,28.0,4.949
46.0,-9.0,4.95
50.0,-29.0,4.951
51.0,-30.0,4.952
2.0,-3.0,4.953
-62.0,58.0,4.954
-69.0,133.0,4.955
-31.0,180.0,4.956
-13.0,179.0,4.957
-33.0,142.0,4.958
-57.0,93.0,4.959
-63.0,38.0,4.96
-44.0,-24.0,4.961
3.0,-77.0,4.962
60.0,-103.0,4.963
76.0,-102.0,4.964
41.0,-80.0,4.965
-1.0,-27.0,4.966
-20.0,57.0,4.967
-23.0,137.0,4.968
-22.0,165.0,4.969
-11.0,137.0,4.97
0.0,89.0,4.971
3.0,52.0,4.972
8.0,19.0,4.973
20.0,-32.0,4.974
14.0,-100.0,4.975
-15.0,-164.0,4.976
-33.0,-201.0,4.977
-26.0,-202.0,4.978
-12.0,-156.0,4.979
-21.0,-69.0,4.98
-29.0,26.0,4.981
-12.0,98.0,4.982
15.0,129.0,4.983
29.0,130.0,4.984
43.0,111.0,4.985
77.0,76.0,4.986
105.0,31.0,4.987
85.0,-15.0,4.988
25.0,-65.0,4.989
-38.0,-133.0,4.99
-80.0,-204.0,4.991
-86.0,-239.0,4.992
-62.0,-223.0,4.993
-27.0,-180.0,4.994
-12.0,-136.0,4.995
-14.0,-85.0,4.996
-4.0,-22.0,4.997
26.0,54.0,4.998
50.0,132.0,4.999
47.0,201.0,5.0
33.0,240.0,5.001
24.0,227.0,5.002
3.0,173.0,5.003
-22.0,127.0,5.004
-4.0,116.0,5.005
82.0,106.0,5.006
169.0,67.0,5.007
160.0,17.0,5.008
37.0,-12.0,5.009
-117.0,-26.0,5.01
-212.0,-49.0,5.011
-214.0,-64.0,5.012
-143.0,-33.0,5.013
-51.0,36.0,5.014
8.0,90.0,5.015
17.0,92.0,5.016
18.0,59.0,5.017
-253.0,5.0,5.018
-172.0,-61.0,5.019
-78.0,-141.0,5.02
52.0,-217.0,5.021
144.0,-259.0,5.022
118.0,-259.0,5.023
80.0,-223.0,5.024
6.0,-137.0,5.025
-54.0,-15.0,5.026
-78.0,84.0,5.027
-82.0,101.0,5.028
-22.0,53.0,5.029
24.0,14.0,5.03
36.0,15.0,5.031
43.0,22.0,5.032
35.0,15.0,5.033
34.0,38.0,5.034
49.0,116.0,5.035
41.0,200.0,5.036
-37.0,223.0,5.037
-324.0,176.0,5.038
-220.0,117.0,5.039
-99.0,66.0,5.04
69.0,38.0,5.041
187.0,0.0,5.042
153.0,-65.0,5.043
104.0,-144.0,5.044
10.0,-260.0,5.045
-68.0,-360.0,5.046
-99.0,-413.0,5.047
-104.0,-418.0,5.048
-28.0,-280.0,5.049
33.0,-141.0,5.05
48.0,0.0,5.051
57.0,126.0,5.052
47.0,200.0,5.053
45.0,262.0,5.054
65.0,288.0,5.055
54.0,311.0,5.056
-47.0,321.0,5.057
-133.0,325.0,5.058
-154.0,289.0,5.059
-147.0,230.0,5.06
-102.0,155.0,5.061
-38.0,78.0,5.062
0.0,6.0,5.063
23.0,-46.0,5.064
70.0,-87.0,5.065
124.0,-145.0,5.066
129.0,-226.0,5.067
99.0,-301.0,5.068
91.0,-352.0,5.069
101.0,-389.0,5.07
83.0,-406.0,5.071
41.0,-372.0,5.072
22.0,-257.0,5.073
35.0,-81.0,5.074
43.0,114.0,5.075
31.0,297.0,5.076
8.0,423.0,5.077
-27.0,458.0,5.078
-62.0,396.0,5.079
-75.0,291.0,5.08
-54.0,203.0,5.081
-28.0,140.0,5.082
-20.0,77.0,5.083
-31.0,23.0,5.084
-56.0,5.0,5.085
-80.0,24.0,5.086
-67.0,50.0,5.087
-1.0,66.0,5.088
80.0,64.0,5.089
124.0,26.0,5.09
134.0,-54.0,5.091
133.0,-145.0,5.092
97.0,-195.0,5.093
-2.0,-200.0,5.094
-107.0,-196.0,5.095
-131.0,-197.0,5.096
-78.0,-183.0,5.097
-23.0,-135.0,5.098
-8.0,-75.0,5.099
-5.0,-29.0,5.1
4.0,11.0,5.101
4.0,70.0,5.102
-11.0,129.0,5.103
-17.0,147.0,5.104
-7.0,121.0,5.105
-3.0,81.0,5.106
-3.0,46.0,5.107
1.0,7.0,5.108
-5.0,-47.0,5.109
-33.0,-111.0,5.11
-51.0,-182.0,5.111
-37.0,-254.0,5.112
-22.0,-295.0,5.113
-23.0,-273.0,5.114
-5.0,-199.0,5.115
51.0,-119.0,5.116
82.0,-55.0,5.117
43.0,17.0,5.118
-9.0,106.0,5.119
3.0,192.0,5.12
53.0,248.0,5.121
62.0,287.0,5.122
35.0,302.0,5.123
31.0,269.0,5.124
43.0,182.0,5.125
11.0,88.0,5.126
-57.0,40.0,5.127
-90.0,31.0,5.128
-59.0,27.0,5.129
-16.0,19.0,5.13
0.0,26.0,5.131
3.0,35.0,5.132
17.0,17.0,5.133
36.0,-23.0,5.134
53.0,-69.0,5.135
59.0,-125.0,5.136
52.0,-212.0,5.137
27.0,-333.0,5.138
-6.0,-415.0,5.139
-26.0,-396.0,5.14
-24.0,-282.0,5.141
-6.0,-114.0,5.142
22.0,72.0,5.143
56.0,235.0,5.144
91.0,331.0,5.145
119.0,346.0,5.146
115.0,314.0,5.147
54.0,281.0,5.148
-53.0,247.0,5.149
-153.0,195.0,5.15
-199.0,129.0,5.151
-188.0,73.0,5.152
-138.0,27.0,5.153
-66.0,-18.0,5.154
-2.0,-55.0,5.155
10.0,-56.0,5.156
-24.0,-27.0,5.157
-56.0,-7.0,5.158
-45.0,-27.0,5.159
-16.0,-79.0,5.16
0.0,-120.0,5.161
12.0,-124.0,5.162
34.0,-104.0,5.163
47.0,-93.0,5.164
33.0,-93.0,5.165
12.0,-89.0,5.166
21.0,-74.0,5.167
61.0,-69.0,5.168
108.0,-83.0,5.169
138.0,-108.0,5.17
135.0,-120.0,5.171
95.0,-110.0,5.172
31.0,-90.0,5.173
-24.0,-66.0,5.174
-44.0,-48.0,5.175
-25.0,-54.0,5.176
5.0,-97.0,5.177
17.0,-182.0,5.178
5.0,-252.0,5.179
0.0,-238.0,5.18
20.0,-126.0,5.181
37.0,29.0,5.182
19.0,161.0,5.183
-6.0,251.0,5.184
-3.0,310.0,5.185
14.0,340.0,5.186
11.0,331.0,5.187
-8.0,285.0,5.188
-16.0,222.0,5.189
-21.0,154.0,5.19
-41.0,92.0,5.191
-61.0,57.0,5.192
-54.0,49.0,5.193
-34.0,51.0,5.194
-25.0,40.0,5.195
-22.0,22.0,5.196
-10.0,9.0,5.197
2.0,34.0,5.198
-2.0,38.0,5.199
-19.0,40.0,5.2
-26.0,34.0,5.201
-24.0,24.0,5.202
-21.0,4.0,5.203
-17.0,-10.0,5.204
-9.0,-5.0,5.205
2.0,2.0,5.206
12.0,15.0,5.207
21.0,35.0,5.208
27.0,72.0,5.209
25.0,106.0,5.21
21.0,124.0,5.211
28.0,134.0,5.212
42.0,118.0,5.213
47.0,99.0,5.214
41.0,74.0,5.215
34.0,51.0,5.216
32.0,35.0,5.217
27.0,-54.0,5.218
29.0,-30.0,5.219
32.0,-21.0,5.22
38.0,-58.0,5.221
40.0,-116.0,5.222
28.0,-237.0,5.223
13.0,-322.0,5.224
-8.0,-294.0,5.225
-28.0,-253.0,5.226
-39.0,-171.0,5.227
-45.0,-51.0,5.228
-33.0,182.0,5.229
-26.0,387.0,5.23
-36.0,501.0,5.231
-42.0,562.0,5.232
-36.0,463.0,5.233
-35.0,350.0,5.234
-47.0,195.0,5.235
-51.0,52.0,5.236
-31.0,-49.0,5.237
-3.0,-122.0,5.238
46.0,-90.0,5.239
79.0,-71.0,5.24
78.0,-62.0,5.241
38.0,-46.0,5.242
-18.0,-59.0,5.243
-68.0,-111.0,5.244
-95.0,-139.0,5.245
-91.0,-115.0,5.246
-61.0,-94.0,5.247
-27.0,-114.0,5.248
-11.0,-135.0,5.249
-3.0,-120.0,5.25
26.0,-98.0,5.251
78.0,-88.0,5.252
136.0,-56.0,5.253
178.0,18.0,5.254
194.0,91.0,5.255
154.0,116.0,5.256
68.0,108.0,5.257
-34.0,98.0,5.258
-97.0,87.0,5.259
-120.0,55.0,5.26
-124.0,7.0,5.261
-104.0,-33.0,5.262
-54.0,-61.0,5.263
-13.0,-67.0,5.264
0.0,-32.0,5.265
27.0,25.0,5.266
84.0,52.0,5.267
100.0,29.0,5.268
19.0,4.0,5.269
-88.0,8.0,5.27
-118.0,9.0,5.271
-74.0,-21.0,5.272
-27.0,-51.0,5.273
-4.0,-42.0,5.274
13.0,-8.0,5.275
16.0,15.0,5.276
-1.0,25.0,5.277
0.0,28.0,5.278
53.0,21.0,5.279
97.0,14.0,5.28
113.0,4.0,5.281
114.0,-8.0,5.282
71.0,-32.0,5.283
15.0,-58.0,5.284
-74.0,-94.0,5.285
-133.0,-121.0,5.286
-92.0,-122.0,5.287
-47.0,-116.0,5.288
9.0,-86.0,5.289
56.0,-35.0,5.29
72.0,79.0,5.291
79.0,164.0,5.292
57.0,156.0,5.293
41.0,144.0,5.294
44.0,122.0,5.295
45.0,90.0,5.296
38.0,26.0,5.297
27.0,-31.0,5.298
-5.0,-40.0,5.299
-49.0,-29.0,5.3
-84.0,-55.0,5.301
-82.0,-98.0,5.302
-44.0,-107.0,5.303
-16.0,-70.0,5.304
-13.0,-16.0,5.305
-18.0,34.0,5.306
-18.0,75.0,5.307
-24.0,97.0,5.308
-32.0,89.0,5.309
-19.0,62.0,5.31
19.0,29.0,5.311
63.0,-22.0,5.312
102.0,-88.0,5.313
134.0,-134.0,5.314
142.0,-122.0,5.315
118.0,-63.0,5.316
93.0,0.0,5.317
82.0,53.0,5.318
54.0,99.0,5.319
-24.0,132.0,5.32
-122.0,144.0,5.321
-191.0,137.0,5.322
-234.0,104.0,5.323
-272.0,41.0,5.324
-270.0,-38.0,5.325
-186.0,-104.0,5.326
-58.0,-154.0,5.327
25.0,-200.0,5.328
34.0,-218.0,5.329
22.0,-147.0,5.33
33.0,7.0,5.331
54.0,145.0,5.332
59.0,195.0,5.333
54.0,181.0,5.334
59.0,155.0,5.335
71.0,111.0,5.336
81.0,49.0,5.337
89.0,9.0,5.338
97.0,31.0,5.339
92.0,79.0,5.34
43.0,82.0,5.341
2.0,37.0,5.342
-15.0,-29.0,5.343
-36.0,-100.0,5.344
-70.0,-143.0,5.345
-96.0,-116.0,5.346
-96.0,-40.0,5.347
-71.0,-5.0,5.348
26.0,-41.0,5.349
90.0,-71.0,5.35
51.0,-38.0,5.351
11.0,7.0,5.352
-30.0,4.0,5.353
-55.0,-34.0,5.354
-27.0,-90.0,5.355
4.0,-179.0,5.356
44.0,-257.0,5.357
83.0,-217.0,5.358
92.0,-24.0,5.359
50.0,172.0,5.36
6.0,208.0,5.361
9.0,129.0,5.362
43.0,83.0,5.363
75.0,101.0,5.364
105.0,100.0,5.365
140.0,41.0,5.366
157.0,-13.0,5.367
136.0,-13.0,5.368
104.0,26.0,5.369
92.0,56.0,5.37
95.0,50.0,5.371
97.0,18.0,5.372
93.0,-3.0,5.373
55.0,7.0,5.374
-56.0,15.0,5.375
-208.0,-22.0,5.376
-297.0,-81.0,5.377
-266.0,-119.0,5.378
-199.0,-117.0,5.379
-174.0,-103.0,5.38
-149.0,-91.0,5.381
-79.0,-58.0,5.382
-13.0,-17.0,5.383
-17.0,1.0,5.384
-57.0,13.0,5.385
-53.0,51.0,5.386
-11.0,102.0,5.387
-1.0,122.0,5.388
-21.0,100.0,5.389
-8.0,72.0,5.39
53.0,60.0,5.391
102.0,50.0,5.392
91.0,27.0,5.393
29.0,-12.0,5.394
-47.0,-63.0,5.395
-93.0,-113.0,5.396
-75.0,-137.0,5.397
14.0,-112.0,5.398
130.0,-56.0,5.399
196.0,-17.0,5.4
175.0,-33.0,5.401
96.0,-50.0,5.402
15.0,-74.0,5.403
-24.0,-76.0,5.404
-26.0,-12.0,5.405
-22.0,36.0,5.406
-32.0,40.0,5.407
-38.0,49.0,5.408
-18.0,77.0,5.409
15.0,86.0,5.41
36.0,40.0,5.411
39.0,20.0,5.412
38.0,80.0,5.413
38.0,118.0,5.414
35.0,91.0,5.415
49.0,59.0,5.416
97.0,13.0,5.417
152.0,-16.0,5.418
164.0,-3.0,5.419
169.0,-30.0,5.42
151.0,-79.0,5.421
124.0,-98.0,5.422
70.0,-59.0,5.423
-13.0,37.0,5.424
-187.0,145.0,5.425
-342.0,177.0,5.426
-441.0,87.0,5.427
-486.0,-52.0,5.428
-367.0,-146.0,5.429
-231.0,-182.0,5.43
-45.0,-184.0,5.431
94.0,-139.0,5.432
92.0,-38.0,5.433
91.0,60.0,5.434
92.0,95.0,5.435
89.0,86.0,5.436
70.0,86.0,5.437
62.0,-37.0,5.438
89.0,-53.0,5.439
76.0,-73.0,5.44
30.0,-98.0,5.441
5.0,-110.0,5.442
30.0,-85.0,5.443
96.0,-59.0,5.444
188.0,-35.0,5.445
245.0,-15.0,5.446
182.0,-5.0,5.447
19.0,3.0,5.448
-102.0,5.0,5.449
-87.0,12.0,5.45
13.0,35.0,5.451
101.0,48.0,5.452
122.0,26.0,5.453
45.0,1.0,5.454
-118.0,-37.0,5.455
-255.0,-59.0,5.456
-260.0,-30.0,5.457
-170.0,-43.0,5.458
-88.0,-71.0,5.459
-11.0,-102.0,5.46
54.0,-144.0,5.461
93.0,-164.0,5.462
55.0,-122.0,5.463
34.0,-80.0,5.464
66.0,-40.0,5.465
116.0,-6.0,5.466
218.0,10.0,5.467
284.0,23.0,5.468
237.0,27.0,5.469
162.0,39.0,5.47
4.0,77.0,5.471
-159.0,98.0,5.472
-339.0,62.0,5.473
-455.0,20.0,5.474
-377.0,-43.0,5.475
-274.0,-80.0,5.476
-96.0,-31.0,5.477
52.0,-45.0,5.478
33.0,-74.0,5.479
-80.0,-108.0,5.48
-152.0,-152.0,5.481
-102.0,-174.0,5.482
17.0,-129.0,5.483
109.0,-84.0,5.484
135.0,-41.0,5.485
114.0,-4.0,5.486
98.0,13.0,5.487
148.0,27.0,5.488
276.0,31.0,5.489
376.0,44.0,5.49
346.0,85.0,5.491
205.0,107.0,5.492
47.0,69.0,5.493
-87.0,24.0,5.494
-188.0,-45.0,5.495
-192.0,-84.0,5.496
-85.0,-32.0,5.497
45.0,16.0,5.498
82.0,27.0,5.499
66.0,27.0,5.5
96.0,34.0,5.501
113.0,43.0,5.502
-1.0,31.0,5.503
-185.0,0.0,5.504
-255.0,-28.0,5.505
-176.0,-33.0,5.506
-77.0,-16.0,5.507
-39.0,-2.0,5.508
-35.0,-7.0,5.509
-45.0,-26.0,5.51
-76.0,-34.0,5.511
-91.0,-23.0,5.512
-47.0,-10.0,5.513
25.0,-3.0,5.514
61.0,6.0,5.515
57.0,20.0,5.516
43.0,26.0,5.517
19.0,17.0,5.518
-4.0,13.0,5.519
-15.0,18.0,5.52
12.0,19.0,5.521
32.0,15.0,5.522
26.0,23.0,5.523
30.0,49.0,5.524
64.0,73.0,5.525
86.0,79.0,5.526
71.0,74.0,5.527
42.0,69.0,5.528
-23.0,49.0,5.529
-70.0,-1.0,5.53
-58.0,-65.0,5.531
-10.0,-100.0,5.532
144.0,-90.0,5.533
240.0,-59.0,5.534
157.0,-31.0,5.535
84.0,-9.0,5.536
45.0,8.0,5.537
10.0,7.0,5.538
-23.0,-11.0,5.539
-25.0,-25.0,5.54
45.0,-14.0,5.541
86.0,8.0,5.542
-18.0,4.0,5.543
-196.0,-27.0,5.544
-267.0,-57.0,5.545
-184.0,-62.0,5.546
-62.0,-35.0,5.547
11.0,9.0,5.548
51.0,38.0,5.549
83.0,25.0,5.55
84.0,-9.0,5.551
27.0,-15.0,5.552
-70.0,13.0,5.553
-160.0,28.0,5.554
-201.0,-1.0,5.555
-179.0,-41.0,5.556
-124.0,-55.0,5.557
-64.0,-46.0,5.558
-11.0,-13.0,5.559
37.0,30.0,5.56
67.0,51.0,5.561
51.0,33.0,5.562
1.0,4.0,5.563
-33.0,5.0,5.564
-16.0,21.0,5.565
36.0,14.0,5.566
80.0,-11.0,5.567
102.0,-16.0,5.568
117.0,-3.0,5.569
131.0,2.0,5.57
127.0,-2.0,5.571
94.0,3.0,5.572
52.0,11.0,5.573
31.0,4.0,5.574
32.0,-2.0,5.575
30.0,6.0,5.576
20.0,21.0,5.577
7.0,18.0,5.578
-3.0,14.0,5.579
-27.0,22.0,5.58
-59.0,25.0,5.581
-72.0,16.0,5.582
-47.0,7.0,5.583
-4.0,16.0,5.584
26.0,28.0,5.585
36.0,20.0,5.586
37.0,1.0,5.587
21.0,-14.0,5.588
-20.0,-34.0,5.589
-67.0,-57.0,5.59
-100.0,-62.0,5.591
-120.0,-28.0,5.592
-121.0,17.0,5.593
-52.0,37.0,5.594
126.0,37.0,5.595
347.0,46.0,5.596
480.0,64.0,5.597
459.0,61.0,5.598
317.0,28.0,5.599
108.0,-20.0,5.6
-129.0,-64.0,5.601
-324.0,-98.0,5.602
-377.0,-112.0,5.603
-284.0,-95.0,5.604
-164.0,-53.0,5.605
-116.0,-13.0,5.606
-97.0,6.0,5.607
-24.0,17.0,5.608
74.0,25.0,5.609
97.0,23.0,5.61
23.0,13.0,5.611
-80.0,9.0,5.612
-167.0,7.0,5.613
-246.0,-1.0,5.614
-307.0,-11.0,5.615
-306.0,-19.0,5.616
-240.0,-29.0,5.617
-133.0,-44.0,5.618
-2.0,-47.0,5.619
132.0,-26.0,5.62
233.0,-3.0,5.621
271.0,3.0,5.622
282.0,-5.0,5.623
308.0,6.0,5.624
330.0,58.0,5.625
322.0,123.0,5.626
322.0,164.0,5.627
365.0,162.0,5.628
359.0,122.0,5.629
175.0,76.0,5.63
-153.0,52.0,5.631
-441.0,50.0,5.632
-606.0,35.0,5.633
-718.0,-26.0,5.634
-756.0,-109.0,5.635
-553.0,-159.0,5.636
-138.0,-149.0,5.637
254.0,-111.0,5.638
369.0,-81.0,5.639
290.0,-59.0,5.64
238.0,-60.0,5.641
220.0,-56.0,5.642
140.0,-37.0,5.643
49.0,-16.0,5.644
41.0,5.0,5.645
50.0,20.0,5.646
0.0,13.0,5.647
-41.0,9.0,5.648
6.0,16.0,5.649
66.0,20.0,5.65
82.0,13.0,5.651
120.0,6.0,5.652
196.0,1.0,5.653
184.0,-4.0,5.654
44.0,-11.0,5.655
-82.0,-15.0,5.656
-89.0,-7.0,5.657
-30.0,3.0,5.658
13.0,19.0,5.659
36.0,47.0,5.66
47.0,65.0,5.661
6.0,63.0,5.662
-49.0,50.0,5.663
-45.0,48.0,5.664
-1.0,53.0,5.665
-1.0,44.0,5.666
-36.0,26.0,5.667
-34.0,11.0,5.668
-8.0,-1.0,5.669
-23.0,-14.0,5.67
-56.0,-20.0,5.671
-42.0,-8.0,5.672
-10.0,1.0,5.673
-23.0,-7.0,5.674
-52.0,-20.0,5.675
-36.0,-21.0,5.676
-1.0,-12.0,5.677
-6.0,-14.0,5.678
-31.0,-20.0,5.679
-24.0,-18.0,5.68
3.0,-15.0,5.681
2.0,-14.0,5.682
-13.0,-14.0,5.683
-9.0,-6.0,5.684
8.0,7.0,5.685
20.0,15.0,5.686
42.0,14.0,5.687
84.0,9.0,5.688
111.0,-3.0,5.689
102.0,-14.0,5.69
93.0,-16.0,5.691
100.0,-3.0,5.692
98.0,12.0,5.693
65.0,12.0,5.694
15.0,5.0,5.695
-50.0,7.0,5.696
-157.0,13.0,5.697
-306.0,-8.0,5.698
-391.0,-58.0,5.699
-333.0,-92.0,5.7
-204.0,-74.0,5.701
-133.0,-29.0,5.702
-94.0,-8.0,5.703
52.0,-3.0,5.704
298.0,26.0,5.705
418.0,64.0,5.706
251.0,47.0,5.707
-62.0,-31.0,5.708
-247.0,-105.0,5.709
-188.0,-115.0,5.71
22.0,-62.0,5.711
229.0,8.0,5.712
327.0,54.0,5.713
278.0,55.0,5.714
117.0,32.0,5.715
-69.0,16.0,5.716
-189.0,15.0,5.717
-218.0,4.0,5.718
-155.0,-14.0,5.719
-57.0,-17.0,5.72
-3.0,-3.0,5.721
0.0,13.0,5.722
7.0,21.0,5.723
41.0,27.0,5.724
58.0,32.0,5.725
35.0,26.0,5.726
20.0,16.0,5.727
36.0,20.0,5.728
45.0,32.0,5.729
23.0,31.0,5.73
3.0,20.0,5.731
8.0,18.0,5.732
17.0,23.0,5.733
18.0,18.0,5.734
32.0,7.0,5.735
62.0,6.0,5.736
77.0,16.0,5.737
59.0,18.0,5.738
36.0,5.0,5.739
20.0,-14.0,5.74
1.0,-30.0,5.741
-15.0,-31.0,5.742
-9.0,-21.0,5.743
9.0,-8.0,5.744
7.0,-1.0,5.745
-15.0,-3.0,5.746
-22.0,-6.0,5.747
-10.0,-6.0,5.748
-4.0,-3.0,5.749
-15.0,-1.0,5.75
-19.0,-2.0,5.751
-8.0,0.0,5.752
2.0,3.0,5.753
2.0,1.0,5.754
10.0,-1.0,5.755
26.0,-2.0,5.756
33.0,1.0,5.757
16.0,-1.0,5.758
-14.0,-3.0,5.759
-34.0,-4.0,5.76
-32.0,-6.0,5.761
-1.0,-7.0,5.762
48.0,-6.0,5.763
81.0,-2.0,5.764
58.0,0.0,5.765
-27.0,-7.0,5.766
-133.0,-16.0,5.767
-187.0,-17.0,5.768
-157.0,-7.0,5.769
-79.0,1.0,5.77
-22.0,1.0,5.771
-7.0,-2.0,5.772
0.0,0.0,5.773
29.0,3.0,5.774
74.0,7.0,5.775
122.0,14.0,5.776
175.0,27.0,5.777
217.0,35.0,5.778
189.0,33.0,5.779
75.0,27.0,5.78
-41.0,37.0,5.781
-50.0,61.0,5.782
51.0,75.0,5.783
147.0,51.0,5.784
116.0,-8.0,5.785
-35.0,-80.0,5.786
-204.0,-140.0,5.787
-304.0,-168.0,5.788
-330.0,-158.0,5.789
-297.0,-106.0,5.79
-200.0,-30.0,5.791
-76.0,29.0,5.792
4.0,41.0,5.793
19.0,20.0,5.794
23.0,13.0,5.795
48.0,37.0,5.796
44.0,53.0,5.797
-22.0,33.0,5.798
-79.0,4.0,5.799
-49.0,-14.0,5.8
31.0,2.0,5.801
88.0,11.0,5.802
118.0,0.0,5.803
153.0,-7.0,5.804
170.0,-1.0,5.805
129.0,0.0,5.806
62.0,-16.0,5.807
33.0,-27.0,5.808
47.0,-23.0,5.809
67.0,-18.0,5.81
81.0,-16.0,5.811
96.0,-8.0,5.812
102.0,16.0,5.813
83.0,41.0,5.814
56.0,66.0,5.815
43.0,87.0,5.816
34.0,95.0,5.817
7.0,100.0,5.818
-30.0,84.0,5.819
-41.0,59.0,5.82
-19.0,34.0,5.821
10.0,19.0,5.822
27.0,11.0,5.823
30.0,7.0,5.824
18.0,4.0,5.825
-21.0,-3.0,5.826
-76.0,-15.0,5.827
-114.0,-26.0,5.828
-117.0,-32.0,5.829
-106.0,-39.0,5.83
-95.0,-46.0,5.831
-77.0,-47.0,5.832
-42.0,-37.0,5.833
-10.0,-26.0,5.834
0.0,-21.0,5.835
0.0,-22.0,5.836
10.0,-19.0,5.837
25.0,-13.0,5.838
36.0,-8.0,5.839
41.0,-8.0,5.84
42.0,-14.0,5.841
29.0,-20.0,5.842
13.0,-28.0,5.843
21.0,-30.0,5.844
54.0,-18.0,5.845
63.0,0.0,5.846
17.0,9.0,5.847
-45.0,5.0,5.848
-75.0,-2.0,5.849
-68.0,-4.0,5.85
-50.0,-6.0,5.851
-28.0,-7.0,5.852
-11.0,0.0,5.853
-10.0,11.0,5.854
-16.0,15.0,5.855
3.0,9.0,5.856
51.0,6.0,5.857
98.0,13.0,5.858
118.0,21.0,5.859
116.0,22.0,5.86
104.0,27.0,5.861
77.0,47.0,5.862
45.0,61.0,5.863
14.0,50.0,5.864
-34.0,20.0,5.865
-136.0,-17.0,5.866
-263.0,-71.0,5.867
-308.0,-135.0,5.868
-212.0,-153.0,5.869
-56.0,-98.0,5.87
33.0,-20.0,5.871
46.0,8.0,5.872
68.0,-6.0,5.873
121.0,-1.0,5.874
133.0,29.0,5.875
84.0,38.0,5.876
39.0,22.0,5.877
22.0,11.0,5.878
1.0,24.0,5.879
-24.0,30.0,5.88
-2.0,15.0,5.881
56.0,13.0,5.882
61.0,26.0,5.883
-27.0,31.0,5.884
-122.0,21.0,5.885
-123.0,19.0,5.886
-11.0,37.0,5.887
156.0,50.0,5.888
270.0,44.0,5.889
224.0,22.0,5.89
24.0,-13.0,5.891
-185.0,-51.0,5.892
-267.0,-72.0,5.893
-225.0,-64.0,5.894
-128.0,-43.0,5.895
-7.0,-28.0,5.896
103.0,-18.0,5.897
144.0,-9.0,5.898
96.0,1.0,5.899
39.0,9.0,5.9
39.0,15.0,5.901
50.0,20.0,5.902
21.0,19.0,5.903
-9.0,20.0,5.904
6.0,32.0,5.905
29.0,38.0,5.906
20.0,23.0,5.907
6.0,-7.0,5.908
16.0,-31.0,5.909
17.0,-49.0,5.91
-6.0,-67.0,5.911
-16.0,-76.0,5.912
4.0,-63.0,5.913
19.0,-36.0,5.914
16.0,-15.0,5.915
24.0,2.0,5.916
46.0,29.0,5.917
45.0,67.0,5.918
10.0,102.0,5.919
-27.0,122.0,5.92
-41.0,124.0,5.921
-38.0,116.0,5.922
-24.0,98.0,5.923
-6.0,74.0,5.924
-14.0,49.0,5.925
-51.0,22.0,5.926
-65.0,-3.0,5.927
-19.0,-19.0,5.928
51.0,-24.0,5.929
90.0,-21.0,5.93
108.0,-20.0,5.931
136.0,-24.0,5.932
147.0,-28.0,5.933
102.0,-30.0,5.934
30.0,-33.0,5.935
-5.0,-35.0,5.936
-3.0,-34.0,5.937
-30.0,-35.0,5.938
-122.0,-43.0,5.939
-230.0,-59.0,5.94
-257.0,-74.0,5.941
-175.0,-66.0,5.942
-54.0,-37.0,5.943
11.0,-15.0,5.944
1.0,-14.0,5.945
-22.0,-22.0,5.946
-10.0,-20.0,5.947
15.0,-14.0,5.948
15.0,-15.0,5.949
12.0,-17.0,5.95
56.0,-4.0,5.951
148.0,16.0,5.952
225.0,32.0,5.953
239.0,40.0,5.954
192.0,44.0,5.955
96.0,44.0,5.956
-32.0,34.0,5.957
-177.0,10.0,5.958
-266.0,-19.0,5.959
-254.0,-43.0,5.96
-171.0,-60.0,5.961
-90.0,-57.0,5.962
-34.0,-36.0,5.963
33.0,-9.0,5.964
133.0,16.0,5.965
232.0,35.0,5.966
259.0,54.0,5.967
176.0,67.0,5.968
14.0,57.0,5.969
-128.0,17.0,5.97
-164.0,-31.0,5.971
-112.0,-53.0,5.972
-73.0,-44.0,5.973
-93.0,-41.0,5.974
-105.0,-62.0,5.975
-44.0,-74.0,5.976
35.0,-43.0,5.977
42.0,9.0,5.978
-13.0,28.0,5.979
-36.0,7.0,5.98
15.0,-10.0,5.981
69.0,2.0,5.982
71.0,23.0,5.983
53.0,24.0,5.984
54.0,19.0,5.985
61.0,25.0,5.986
57.0,32.0,5.987
57.0,27.0,5.988
71.0,17.0,5.989
81.0,17.0,5.99
82.0,21.0,5.991
83.0,15.0,5.992
79.0,7.0,5.993
46.0,4.0,5.994
-12.0,8.0,5.995
-68.0,14.0,5.996
-99.0,19.0,5.997
-111.0,21.0,5.998
-108.0,22.0,5.999
-91.0,20.0,6.0
-72.0,13.0,6.001
-60.0,7.0,6.002
-43.0,0.0,6.003
-18.0,-4.0,6.004
-2.0,-2.0,6.005
0.0,0.0,6.006
7.0,-1.0,6.007
27.0,-4.0,6.008
40.0,-4.0,6.009
33.0,-2.0,6.01
24.0,-3.0,6.011
30.0,-5.0,6.012
38.0,-12.0,6.013
33.0,-33.0,6.014
25.0,-57.0,6.015
26.0,-60.0,6.016
34.0,-34.0,6.017
31.0,-1.0,6.018
15.0,8.0,6.019
-15.0,-3.0,6.02
-44.0,-9.0,6.021
-54.0,1.0,6.022
-43.0,15.0,6.023
-35.0,22.0,6.024
-46.0,26.0,6.025
-57.0,35.0,6.026
-33.0,42.0,6.027
21.0,42.0,6.028
69.0,41.0,6.029
92.0,43.0,6.03
104.0,41.0,6.031
117.0,28.0,6.032
126.0,13.0,6.033
125.0,10.0,6.034
118.0,13.0,6.035
96.0,8.0,6.036
40.0,-14.0,6.037
-51.0,-53.0,6.038
-124.0,-90.0,6.039
-145.0,-104.0,6.04
-141.0,-86.0,6.041
-141.0,-43.0,6.042
-120.0,-10.0,6.043
-66.0,-4.0,6.044
-46.0,-17.0,6.045
-107.0,-37.0,6.046
-159.0,-61.0,6.047
-84.0,-74.0,6.048
67.0,-48.0,6.049
137.0,18.0,6.05
97.0,78.0,6.051
53.0,96.0,6.052
52.0,84.0,6.053
32.0,69.0,6.054
-22.0,51.0,6.055
-33.0,25.0,6.056
24.0,9.0,6.057
108.0,19.0,6.058
188.0,41.0,6.059
280.0,46.0,6.06
363.0,29.0,6.061
342.0,13.0,6.062
177.0,5.0,6.063
-44.0,-4.0,6.064
-208.0,-24.0,6.065
-299.0,-55.0,6.066
-370.0,-88.0,6.067
-424.0,-103.0,6.068
-398.0,-82.0,6.069
-266.0,-35.0,6.07
-109.0,-5.0,6.071
-23.0,-12.0,6.072
-10.0,-26.0,6.073
10.0,-14.0,6.074
61.0,12.0,6.075
93.0,15.0,6.076
83.0,7.0,6.077
69.0,5.0,6.078
84.0,19.0,6.079
101.0,20.0,6.08
91.0,0.0,6.081
75.0,-12.0,6.082
82.0,-3.0,6.083
89.0,9.0,6.084
71.0,17.0,6.085
50.0,10.0,6.086
49.0,-27.0,6.087
51.0,-102.0,6.088
32.0,-178.0,6.089
12.0,-192.0,6.09
18.0,-119.0,6.091
39.0,-6.0,6.092
48.0,85.0,6.093
42.0,137.0,6.094
37.0,170.0,6.095
33.0,189.0,6.096
25.0,186.0,6.097
10.0,160.0,6.098
2.0,131.0,6.099
3.0,111.0,6.1
3.0,91.0,6.101
-7.0,68.0,6.102
-22.0,44.0,6.103
-38.0,21.0,6.104
-51.0,-1.0,6.105
-58.0,-23.0,6.106
-56.0,-41.0,6.107
-44.0,-49.0,6.108
-36.0,-51.0,6.109
-35.0,-48.0,6.11
-32.0,-48.0,6.111
-20.0,-49.0,6.112
-6.0,-50.0,6.113
-2.0,-50.0,6.114
-12.0,-50.0,6.115
-35.0,-48.0,6.116
-67.0,-41.0,6.117
-90.0,-34.0,6.118
-60.0,-33.0,6.119
33.0,-36.0,6.12
132.0,-37.0,6.121
162.0,-28.0,6.122
126.0,-22.0,6.123
78.0,-30.0,6.124
47.0,-50.0,6.125
17.0,-65.0,6.126
-11.0,-61.0,6.127
-10.0,-39.0,6.128
11.0,-4.0,6.129
13.0,23.0,6.13
-8.0,34.0,6.131
-9.0,38.0,6.132
19.0,44.0,6.133
39.0,50.0,6.134
26.0,44.0,6.135
9.0,35.0,6.136
20.0,37.0,6.137
45.0,43.0,6.138
53.0,40.0,6.139
30.0,30.0,6.14
-22.0,24.0,6.141
-98.0,18.0,6.142
-172.0,-10.0,6.143
-202.0,-56.0,6.144
-157.0,-87.0,6.145
-63.0,-75.0,6.146
18.0,-38.0,6.147
48.0,-12.0,6.148
26.0,-6.0,6.149
-15.0,-11.0,6.15
-61.0,-20.0,6.151
-98.0,-24.0,6.152
-97.0,-14.0,6.153
-51.0,7.0,6.154
7.0,22.0,6.155
35.0,16.0,6.156
43.0,5.0,6.157
60.0,6.0,6.158
80.0,17.0,6.159
70.0,20.0,6.16
39.0,9.0,6.161
39.0,8.0,6.162
80.0,14.0,6.163
116.0,19.0,6.164
107.0,17.0,6.165
63.0,14.0,6.166
11.0,15.0,6.167
-37.0,12.0,6.168
-70.0,3.0,6.169
-68.0,-3.0,6.17
-31.0,-5.0,6.171
16.0,0.0,6.172
42.0,6.0,6.173
35.0,8.0,6.174
18.0,0.0,6.175
17.0,-6.0,6.176
32.0,-3.0,6.177
37.0,5.0,6.178
19.0,4.0,6.179
-1.0,-6.0,6.18
6.0,-10.0,6.181
24.0,-6.0,6.182
23.0,-4.0,6.183
9.0,-10.0,6.184
3.0,-10.0,6.185
3.0,1.0,6.186
-5.0,7.0,6.187
-18.0,2.0,6.188
-19.0,0.0,6.189
-11.0,6.0,6.19
-10.0,14.0,6.191
-18.0,13.0,6.192
-21.0,11.0,6.193
-21.0,12.0,6.194
-23.0,11.0,6.195
-23.0,7.0,6.196
-16.0,5.0,6.197
-5.0,1.0,6.198
-2.0,-3.0,6.199
-6.0,-10.0,6.2
-3.0,-17.0,6.201
8.0,-20.0,6.202
18.0,-18.0,6.203
14.0,-9.0,6.204
-6.0,3.0,6.205
-30.0,11.0,6.206
-46.0,7.0,6.207
-44.0,-1.0,6.208
-30.0,0.0,6.209
-11.0,6.0,6.21
9.0,10.0,6.211
29.0,7.0,6.212
42.0,6.0,6.213
46.0,9.0,6.214
47.0,9.0,6.215
49.0,3.0,6.216
42.0,0.0,6.217
18.0,-4.0,6.218
-1.0,-7.0,6.219
4.0,-13.0,6.22
24.0,-26.0,6.221
36.0,-29.0,6.222
33.0,-20.0,6.223
37.0,-5.0,6.224
40.0,7.0,6.225
9.0,10.0,6.226
-62.0,13.0,6.227
-122.0,21.0,6.228
-121.0,29.0,6.229
-73.0,28.0,6.23
-21.0,24.0,6.231
35.0,25.0,6.232
108.0,22.0,6.233
149.0,2.0,6.234
90.0,-26.0,6.235
-35.0,-45.0,6.236
-103.0,-42.0,6.237
-71.0,-37.0,6.238
-17.0,-39.0,6.239
18.0,-42.0,6.24
-1.0,-34.0,6.241
-15.0,-19.0,6.242
-12.0,-12.0,6.243
-15.0,-11.0,6.244
-37.0,-3.0,6.245
-48.0,11.0,6.246
-20.0,18.0,6.247
1.0,14.0,6.248
2.0,11.0,6.249
11.0,14.0,6.25
42.0,20.0,6.251
64.0,21.0,6.252
57.0,15.0,6.253
49.0,11.0,6.254
40.0,10.0,6.255
30.0,12.0,6.256
19.0,15.0,6.257
9.0,13.0,6.258
11.0,7.0,6.259
18.0,1.0,6.26
22.0,-6.0,6.261
16.0,-9.0,6.262
-1.0,-7.0,6.263
-17.0,-2.0,6.264
-25.0,2.0,6.265
-40.0,1.0,6.266
-63.0,-3.0,6.267
-72.0,-9.0,6.268
-52.0,-10.0,6.269
-23.0,-8.0,6.27
-10.0,-2.0,6.271
-9.0,3.0,6.272
2.0,7.0,6.273
16.0,8.0,6.274
18.0,5.0,6.275
13.0,0.0,6.276
17.0,0.0,6.277
18.0,-1.0,6.278
7.0,-3.0,6.279
-14.0,-4.0,6.28
-24.0,-6.0,6.281
-15.0,-5.0,6.282
3.0,-5.0,6.283
20.0,-6.0,6.284
33.0,-6.0,6.285
44.0,-7.0,6.286
49.0,-8.0,6.287
46.0,-4.0,6.288
32.0,4.0,6.289
18.0,10.0,6.29
21.0,8.0,6.291
45.0,2.0,6.292
69.0,-1.0,6.293
75.0,-5.0,6.294
70.0,-5.0,6.295
53.0,-1.0,6.296
12.0,7.0,6.297
-55.0,6.0,6.298
-111.0,2.0,6.299
-154.0,-2.0,6.3
-157.0,-2.0,6.301
-144.0,-4.0,6.302
-78.0,-14.0,6.303
-17.0,-20.0,6.304
30.0,-13.0,6.305
59.0,-7.0,6.306
29.0,-7.0,6.307
6.0,-4.0,6.308
1.0,1.0,6.309
1.0,5.0,6.31
18.0,3.0,6.311
39.0,2.0,6.312
69.0,6.0,6.313
84.0,8.0,6.314
54.0,5.0,6.315
33.0,4.0,6.316
37.0,8.0,6.317
44.0,14.0,6.318
51.0,15.0,6.319
35.0,-3.0,6.32
-12.0,-22.0,6.321
-63.0,-13.0,6.322
-82.0,13.0,6.323
-72.0,28.0,6.324
-62.0,21.0,6.325
-52.0,5.0,6.326
-20.0,-2.0,6.327
19.0,1.0,6.328
19.0,8.0,6.329
-15.0,11.0,6.33
-38.0,7.0,6.331
-38.0,2.0,6.332
-38.0,1.0,6.333
-43.0,5.0,6.334
-32.0,10.0,6.335
-16.0,21.0,6.336
-14.0,37.0,6.337
-13.0,45.0,6.338
20.0,36.0,6.339
68.0,16.0,6.34
93.0,-13.0,6.341
113.0,-50.0,6.342
160.0,-94.0,6.343
193.0,-127.0,6.344
145.0,-123.0,6.345
40.0,-83.0,6.346
-29.0,-35.0,6.347
-44.0,-4.0,6.348
-59.0,3.0,6.349
-76.0,7.0,6.35
-43.0,19.0,6.351
17.0,33.0,6.352
23.0,29.0,6.353
-33.0,16.0,6.354
-71.0,16.0,6.355
-47.0,32.0,6.356
-7.0,42.0,6.357
15.0,28.0,6.358
28.0,12.0,6.359
35.0,13.0,6.36
22.0,19.0,6.361
0.0,15.0,6.362
0.0,2.0,6.363
5.0,-5.0,6.364
-9.0,-6.0,6.365
-24.0,-10.0,6.366
1.0,-19.0,6.367
34.0,-17.0,6.368
18.0,0.0,6.369
-28.0,12.0,6.37
-29.0,7.0,6.371
13.0,-7.0,6.372
35.0,-9.0,6.373
15.0,2.0,6.374
-1.0,7.0,6.375
6.0,0.0,6.376
4.0,0.0,6.377
-27.0,18.0,6.378
-47.0,39.0,6.379
-28.0,38.0,6.38
3.0,12.0,6.381
7.0,-7.0,6.382
-16.0,-6.0,6.383
-30.0,2.0,6.384
-27.0,5.0,6.385
-14.0,3.0,6.386
8.0,3.0,6.387
41.0,7.0,6.388
71.0,13.0,6.389
76.0,16.0,6.39
47.0,18.0,6.391
-6.0,11.0,6.392
-76.0,-4.0,6.393
-151.0,-28.0,6.394
-198.0,-47.0,6.395
-177.0,-53.0,6.396
-87.0,-44.0,6.397
28.0,-28.0,6.398
99.0,-13.0,6.399
99.0,-6.0,6.4
69.0,-10.0,6.401
43.0,-18.0,6.402
25.0,-22.0,6.403
10.0,-18.0,6.404
9.0,-4.0,6.405
24.0,9.0,6.406
31.0,15.0,6.407
28.0,12.0,6.408
36.0,8.0,6.409
68.0,8.0,6.41
89.0,16.0,6.411
76.0,25.0,6.412
40.0,27.0,6.413
4.0,23.0,6.414
-34.0,16.0,6.415
-68.0,6.0,6.416
-66.0,1.0,6.417
3.0,3.0,6.418
106.0,16.0,6.419
158.0,27.0,6.42
112.0,20.0,6.421
3.0,3.0,6.422
-77.0,-14.0,6.423
-86.0,-32.0,6.424
-59.0,-49.0,6.425
-51.0,-56.0,6.426
-62.0,-41.0,6.427
-53.0,-14.0,6.428
-22.0,4.0,6.429
-5.0,5.0,6.43
-13.0,4.0,6.431
-15.0,17.0,6.432
1.0,37.0,6.433
24.0,44.0,6.434
43.0,36.0,6.435
53.0,28.0,6.436
33.0,20.0,6.437
-23.0,0.0,6.438
-57.0,-34.0,6.439
-24.0,-61.0,6.44
40.0,-63.0,6.441
55.0,-36.0,6.442
20.0,-5.0,6.443
6.0,9.0,6.444
31.0,8.0,6.445
31.0,8.0,6.446
-21.0,14.0,6.447
-64.0,23.0,6.448
-36.0,23.0,6.449
37.0,15.0,6.45
79.0,2.0,6.451
46.0,-5.0,6.452
-25.0,-1.0,6.453
-82.0,8.0,6.454
-97.0,2.0,6.455
-83.0,-11.0,6.456
-66.0,-10.0,6.457
-54.0,17.0,6.458
-41.0,49.0,6.459
2.0,52.0,6.46
81.0,16.0,6.461
155.0,-29.0,6.462
167.0,-58.0,6.463
120.0,-49.0,6.464
81.0,-2.0,6.465
84.0,37.0,6.466
95.0,25.0,6.467
65.0,-18.0,6.468
-17.0,-35.0,6.469
-148.0,-19.0,6.47
-310.0,-27.0,6.471
-407.0,-74.0,6.472
-336.0,-90.0,6.473
-133.0,-31.0,6.474
34.0,35.0,6.475
81.0,33.0,6.476
100.0,-4.0,6.477
173.0,-14.0,6.478
236.0,0.0,6.479
196.0,-7.0,6.48
101.0,-33.0,6.481
60.0,-20.0,6.482
82.0,26.0,6.483
106.0,48.0,6.484
111.0,36.0,6.485
91.0,32.0,6.486
26.0,47.0,6.487
-84.0,47.0,6.488
-180.0,23.0,6.489
-220.0,8.0,6.49
-220.0,18.0,6.491
-192.0,35.0,6.492
-110.0,39.0,6.493
20.0,37.0,6.494
130.0,36.0,6.495
158.0,34.0,6.496
125.0,28.0,6.497
59.0,-3.0,6.498
-4.0,-56.0,6.499
-34.0,-111.0,6.5
7.0,-124.0,6.501
101.0,-71.0,6.502
187.0,1.0,6.503
226.0,33.0,6.504
207.0,29.0,6.505
110.0,40.0,6.506
-80.0,82.0,6.507
-299.0,108.0,6.508
-398.0,82.0,6.509
-282.0,36.0,6.51
-23.0,15.0,6.511
224.0,34.0,6.512
368.0,40.0,6.513
413.0,-24.0,6.514
360.0,-152.0,6.515
179.0,-243.0,6.516
-71.0,-197.0,6.517
-306.0,-41.0,6.518
-413.0,52.0,6.519
-378.0,-19.0,6.52
-269.0,-143.0,6.521
-145.0,-145.0,6.522
-32.0,-41.0,6.523
57.0,33.0,6.524
118.0,34.0,6.525
151.0,29.0,6.526
156.0,45.0,6.527
133.0,44.0,6.528
73.0,25.0,6.529
-19.0,23.0,6.53
-113.0,39.0,6.531
-151.0,35.0,6.532
-105.0,15.0,6.533
-11.0,22.0,6.534
69.0,50.0,6.535
96.0,65.0,6.536
79.0,61.0,6.537
56.0,61.0,6.538
62.0,83.0,6.539
62.0,105.0,6.54
-15.0,103.0,6.541
-169.0,76.0,6.542
-278.0,23.0,6.543
-238.0,-49.0,6.544
-82.0,-124.0,6.545
68.0,-167.0,6.546
139.0,-155.0,6.547
127.0,-96.0,6.548
43.0,-31.0,6.549
-65.0,4.0,6.55
-118.0,16.0,6.551
-67.0,32.0,6.552
44.0,54.0,6.553
126.0,64.0,6.554
137.0,54.0,6.555
96.0,40.0,6.556
44.0,36.0,6.557
1.0,31.0,6.558
-11.0,18.0,6.559
7.0,-6.0,6.56
28.0,-44.0,6.561
10.0,-77.0,6.562
-42.0,-88.0,6.563
-66.0,-76.0,6.564
-3.0,-57.0,6.565
122.0,-39.0,6.566
226.0,-7.0,6.567
265.0,31.0,6.568
252.0,38.0,6.569
184.0,10.0,6.57
24.0,-9.0,6.571
-179.0,0.0,6.572
-280.0,4.0,6.573
-204.0,-11.0,6.574
-70.0,-6.0,6.575
-29.0,39.0,6.576
-56.0,73.0,6.577
-7.0,59.0,6.578
161.0,31.0,6.579
287.0,35.0,6.58
214.0,46.0,6.581
-4.0,21.0,6.582
-186.0,-28.0,6.583
-250.0,-60.0,6.584
-253.0,-78.0,6.585
-248.0,-98.0,6.586
-209.0,-103.0,6.587
-126.0,-73.0,6.588
-47.0,-32.0,6.589
13.0,-17.0,6.59
103.0,-17.0,6.591
221.0,-7.0,6.592
270.0,13.0,6.593
183.0,35.0,6.594
62.0,67.0,6.595
59.0,101.0,6.596
154.0,106.0,6.597
200.0,78.0,6.598
85.0,59.0,6.599
-114.0,72.0,6.6
-225.0,67.0,6.601
-185.0,14.0,6.602
-55.0,-40.0,6.603
64.0,-42.0,6.604
105.0,-19.0,6.605
62.0,-24.0,6.606
-13.0,-41.0,6.607
-55.0,-22.0,6.608
-55.0,15.0,6.609
-47.0,24.0,6.61
-27.0,18.0,6.611
41.0,40.0,6.612
133.0,69.0,6.613
168.0,52.0,6.614
116.0,5.0,6.615
20.0,3.0,6.616
-62.0,40.0,6.617
-105.0,51.0,6.618
-62.0,16.0,6.619
43.0,-13.0,6.62
72.0,-24.0,6.621
-68.0,-61.0,6.622
-245.0,-131.0,6.623
-264.0,-170.0,6.624
-153.0,-143.0,6.625
-109.0,-95.0,6.626
-171.0,-60.0,6.627
-200.0,-25.0,6.628
-144.0,12.0,6.629
-107.0,22.0,6.63
-113.0,16.0,6.631
-56.0,45.0,6.632
111.0,112.0,6.633
284.0,169.0,6.634
355.0,181.0,6.635
296.0,149.0,6.636
142.0,65.0,6.637
-83.0,-93.0,6.638
-246.0,-249.0,6.639
-228.0,-290.0,6.64
-44.0,-218.0,6.641
173.0,-160.0,6.642
311.0,-210.0,6.643
327.0,-310.0,6.644
243.0,-327.0,6.645
140.0,-220.0,6.646
90.0,-66.0,6.647
70.0,59.0,6.648
18.0,162.0,6.649
-42.0,275.0,6.65
-46.0,368.0,6.651
-15.0,386.0,6.652
-25.0,330.0,6.653
-65.0,267.0,6.654
-63.0,231.0,6.655
-24.0,194.0,6.656
-14.0,141.0,6.657
-38.0,87.0,6.658
-46.0,52.0,6.659
-29.0,18.0,6.66
-30.0,-29.0,6.661
-43.0,-67.0,6.662
-32.0,-73.0,6.663
-7.0,-62.0,6.664
-14.0,-52.0,6.665
-37.0,-41.0,6.666
-36.0,-21.0,6.667
-21.0,-5.0,6.668
-28.0,-9.0,6.669
-58.0,-43.0,6.67
-85.0,-91.0,6.671
-107.0,-130.0,6.672
-133.0,-143.0,6.673
-126.0,-135.0,6.674
-43.0,-122.0,6.675
103.0,-112.0,6.676
235.0,-99.0,6.677
272.0,-136.0,6.678
205.0,-129.0,6.679
137.0,-127.0,6.68
67.0,-138.0,6.681
9.0,-143.0,6.682
-13.0,-134.0,6.683
-61.0,-131.0,6.684
-182.0,-145.0,6.685
-250.0,-165.0,6.686
-154.0,-196.0,6.687
-51.0,-225.0,6.688
66.0,-247.0,6.689
137.0,-260.0,6.69
60.0,-246.0,6.691
49.0,-217.0,6.692
237.0,-145.0,6.693
350.0,-82.0,6.694
239.0,-38.0,6.695
106.0,3.0,6.696
-87.0,36.0,6.697
-253.0,-124.0,6.698
-304.0,-109.0,6.699
-269.0,-103.0,6.7
-111.0,-129.0,6.701
93.0,-143.0,6.702
134.0,-121.0,6.703
-82.0,-113.0,6.704
-382.0,-150.0,6.705
-471.0,-197.0,6.706
-258.0,-273.0,6.707
67.0,-344.0,6.708
269.0,-397.0,6.709
289.0,-428.0,6.71
198.0,-393.0,6.711
93.0,-323.0,6.712
41.0,-149.0,6.713
56.0,7.0,6.714
83.0,113.0,6.715
70.0,213.0,6.716
45.0,293.0,6.717
54.0,378.0,6.718
78.0,459.0,6.719
58.0,489.0,6.72
15.0,493.0,6.721
11.0,496.0,6.722
29.0,464.0,6.723
14.0,356.0,6.724
-25.0,191.0,6.725
-35.0,23.0,6.726
-20.0,-117.0,6.727
-30.0,-223.0,6.728
-59.0,-281.0,6.729
-62.0,-283.0,6.73
-41.0,-234.0,6.731
-31.0,-148.0,6.732
-32.0,-45.0,6.733
-15.0,43.0,6.734
8.0,99.0,6.735
11.0,133.0,6.736
3.0,159.0,6.737
5.0,172.0,6.738
19.0,157.0,6.739
25.0,117.0,6.74
26.0,76.0,6.741
24.0,48.0,6.742
-6.0,26.0,6.743
-92.0,3.0,6.744
-207.0,-21.0,6.745
-274.0,-45.0,6.746
-224.0,-55.0,6.747
-56.0,-38.0,6.748
140.0,-11.0,6.749
242.0,-4.0,6.75
208.0,-13.0,6.751
124.0,-5.0,6.752
95.0,26.0,6.753
114.0,43.0,6.754
95.0,9.0,6.755
2.0,-61.0,6.756
-105.0,-132.0,6.757
-156.0,-205.0,6.758
-126.0,-263.0,6.759
-75.0,-282.0,6.76
38.0,-256.0,6.761
131.0,-208.0,6.762
159.0,-169.0,6.763
195.0,-121.0,6.764
253.0,-40.0,6.765
267.0,52.0,6.766
141.0,114.0,6.767
2.0,120.0,6.768
-176.0,77.0,6.769
-269.0,17.0,6.77
-103.0,-3.0,6.771
48.0,47.0,6.772
160.0,102.0,6.773
208.0,64.0,6.774
64.0,-59.0,6.775
-69.0,-155.0,6.776
-167.0,-174.0,6.777
-256.0,-195.0,6.778
-290.0,-274.0,6.779
-253.0,-342.0,6.78
-157.0,-305.0,6.781
-61.0,-189.0,6.782
-2.0,-93.0,6.783
32.0,-25.0,6.784
53.0,71.0,6.785
52.0,192.0,6.786
37.0,270.0,6.787
33.0,280.0,6.788
40.0,268.0,6.789
34.0,272.0,6.79
16.0,278.0,6.791
13.0,273.0,6.792
29.0,254.0,6.793
43.0,210.0,6.794
37.0,117.0,6.795
28.0,-16.0,6.796
27.0,-139.0,6.797
28.0,-221.0,6.798
28.0,-227.0,6.799
29.0,-150.0,6.8
27.0,-18.0,6.801
15.0,132.0,6.802
0.0,260.0,6.803
-6.0,335.0,6.804
-11.0,353.0,6.805
-13.0,329.0,6.806
-3.0,294.0,6.807
19.0,264.0,6.808
16.0,222.0,6.809
-34.0,154.0,6.81
-93.0,80.0,6.811
-90.0,28.0,6.812
-14.0,-9.0,6.813
67.0,-66.0,6.814
90.0,-156.0,6.815
50.0,-252.0,6.816
-20.0,-323.0,6.817
-100.0,-375.0,6.818
-154.0,-402.0,6.819
-141.0,-393.0,6.82
-63.0,-336.0,6.821
15.0,-231.0,6.822
44.0,-111.0,6.823
48.0,-20.0,6.824
59.0,10.0,6.825
65.0,-13.0,6.826
48.0,-48.0,6.827
39.0,-61.0,6.828
62.0,-62.0,6.829
74.0,-75.0,6.83
40.0,-98.0,6.831
-1.0,-98.0,6.832
-5.0,-69.0,6.833
13.0,-41.0,6.834
6.0,-46.0,6.835
-13.0,-75.0,6.836
-6.0,-95.0,6.837
19.0,-93.0,6.838
32.0,-76.0,6.839
34.0,-60.0,6.84
-3.0,-46.0,6.841
-23.0,-19.0,6.842
6.0,48.0,6.843
38.0,128.0,6.844
70.0,246.0,6.845
89.0,341.0,6.846
66.0,362.0,6.847
37.0,362.0,6.848
-8.0,296.0,6.849
-43.0,236.0,6.85
-48.0,191.0,6.851
-49.0,140.0,6.852
-35.0,71.0,6.853
-24.0,14.0,6.854
-21.0,-3.0,6.855
-16.0,-17.0,6.856
-5.0,-14.0,6.857
0.0,-7.0,6.858
-9.0,20.0,6.859
-9.0,73.0,6.86
-9.0,99.0,6.861
-26.0,74.0,6.862
-36.0,3.0,6.863
-21.0,-81.0,6.864
-3.0,-164.0,6.865
-8.0,-242.0,6.866
-23.0,-300.0,6.867
-24.0,-304.0,6.868
-14.0,-230.0,6.869
-10.0,-88.0,6.87
-7.0,65.0,6.871
-1.0,159.0,6.872
1.0,180.0,6.873
-4.0,156.0,6.874
-1.0,110.0,6.875
13.0,31.0,6.876
25.0,-69.0,6.877
27.0,-179.0,6.878
25.0,-262.0,6.879
15.0,-302.0,6.88
-9.0,-289.0,6.881
-23.0,-216.0,6.882
0.0,-107.0,6.883
45.0,1.0,6.884
66.0,97.0,6.885
53.0,187.0,6.886
29.0,257.0,6.887
10.0,271.0,6.888
-12.0,226.0,6.889
-24.0,160.0,6.89
-11.0,101.0,6.891
12.0,47.0,6.892
10.0,-5.0,6.893
-21.0,-51.0,6.894
-46.0,-103.0,6.895
-49.0,-162.0,6.896
-38.0,-189.0,6.897
-22.0,-153.0,6.898
9.0,-68.0,6.899
48.0,19.0,6.9
65.0,88.0,6.901
45.0,150.0,6.902
12.0,178.0,6.903
-8.0,148.0,6.904
-14.0,80.0,6.905
-23.0,26.0,6.906
-28.0,2.0,6.907
-21.0,-5.0,6.908
-2.0,-1.0,6.909
7.0,5.0,6.91
5.0,-24.0,6.911
7.0,-112.0,6.912
24.0,-219.0,6.913
43.0,-276.0,6.914
53.0,-266.0,6.915
49.0,-207.0,6.916
41.0,-114.0,6.917
31.0,23.0,6.918
20.0,177.0,6.919
9.0,286.0,6.92
-2.0,308.0,6.921
-5.0,258.0,6.922
-1.0,168.0,6.923
4.0,71.0,6.924
-1.0,-9.0,6.925
-11.0,-60.0,6.926
-7.0,-80.0,6.927
12.0,-82.0,6.928
22.0,-83.0,6.929
7.0,-87.0,6.93
-22.0,-85.0,6.931
-46.0,-54.0,6.932
-60.0,1.0,6.933
-66.0,53.0,6.934
-54.0,73.0,6.935
-17.0,61.0,6.936
17.0,29.0,6.937
17.0,-23.0,6.938
-6.0,-72.0,6.939
-17.0,-80.0,6.94
-5.0,-39.0,6.941
-1.0,19.0,6.942
-10.0,59.0,6.943
-9.0,76.0,6.944
10.0,65.0,6.945
35.0,23.0,6.946
67.0,-40.0,6.947
108.0,-100.0,6.948
125.0,-145.0,6.949
82.0,-175.0,6.95
14.0,-176.0,6.951
-16.0,-119.0,6.952
-17.0,-25.0,6.953
-40.0,56.0,6.954
-74.0,95.0,6.955
-64.0,97.0,6.956
-35.0,59.0,6.957
-50.0,-24.0,6.958
-85.0,-101.0,6.959
-61.0,-109.0,6.96
-2.0,-55.0,6.961
-11.0,4.0,6.962
-77.0,40.0,6.963
-70.0,72.0,6.964
30.0,94.0,6.965
92.0,72.0,6.966
49.0,24.0,6.967
2.0,26.0,6.968
39.0,97.0,6.969
95.0,168.0,6.97
88.0,177.0,6.971
47.0,146.0,6.972
27.0,118.0,6.973
12.0,78.0,6.974
-32.0,0.0,6.975
-74.0,-98.0,6.976
-76.0,-172.0,6.977
-55.0,-215.0,6.978
-32.0,-236.0,6.979
7.0,-243.0,6.98
71.0,-220.0,6.981
112.0,-139.0,6.982
93.0,-8.0,6.983
47.0,129.0,6.984
18.0,215.0,6.985
-1.0,235.0,6.986
-29.0,205.0,6.987
-42.0,144.0,6.988
-13.0,65.0,6.989
25.0,4.0,6.99
24.0,2.0,6.991
-13.0,49.0,6.992
-42.0,75.0,6.993
-39.0,34.0,6.994
-16.0,-31.0,6.995
7.0,-54.0,6.996
25.0,-34.0,6.997
32.0,-24.0,6.998
26.0,-47.0,6.999
12.0,-72.0,7.0
4.0,-74.0,7.001
3.0,-52.0,7.002
2.0,-10.0,7.003
0.0,61.0,7.004
0.0,136.0,7.005
-2.0,172.0,7.006
-11.0,162.0,7.007
-23.0,139.0,7.008
-24.0,118.0,7.009
-5.0,64.0,7.01
27.0,-54.0,7.011
50.0,-225.0,7.012
54.0,-378.0,7.013
50.0,-436.0,7.014
50.0,-356.0,7.015
45.0,-159.0,7.016
23.0,66.0,7.017
-14.0,262.0,7.018
-35.0,364.0,7.019
-43.0,360.0,7.02
-58.0,286.0,7.021
-81.0,195.0,7.022
-80.0,108.0,7.023
-50.0,15.0,7.024
-38.0,-89.0,7.025
-62.0,-189.0,7.026
-70.0,-261.0,7.027
-25.0,-275.0,7.028
38.0,-207.0,7.029
61.0,-76.0,7.03
49.0,35.0,7.031
45.0,57.0,7.032
53.0,5.0,7.033
54.0,-46.0,7.034
58.0,-65.0,7.035
90.0,-80.0,7.036
125.0,-124.0,7.037
116.0,-209.0,7.038
45.0,-290.0,7.039
-58.0,-289.0,7.04
-127.0,-152.0,7.041
-125.0,88.0,7.042
-75.0,296.0,7.043
-22.0,378.0,7.044
18.0,354.0,7.045
60.0,312.0,7.046
87.0,288.0,7.047
46.0,257.0,7.048
-63.0,189.0,7.049
-147.0,79.0,7.05
-133.0,-37.0,7.051
-70.0,-98.0,7.052
-59.0,-92.0,7.053
-113.0,-77.0,7.054
-135.0,-105.0,7.055
-66.0,-131.0,7.056
36.0,-100.0,7.057
100.0,-33.0,7.058
107.0,-12.0,7.059
106.0,-60.0,7.06
118.0,-131.0,7.061
110.0,-205.0,7.062
75.0,-307.0,7.063
57.0,-403.0,7.064
84.0,-401.0,7.065
121.0,-280.0,7.066
121.0,-102.0,7.067
82.0,72.0,7.068
24.0,233.0,7.069
-38.0,360.0,7.07
-94.0,424.0,7.071
-124.0,429.0,7.072
-118.0,406.0,7.073
-84.0,352.0,7.074
-44.0,235.0,7.075
-23.0,46.0,7.076
-31.0,-141.0,7.077
-52.0,-214.0,7.078
-46.0,-112.0,7.079
-30.0,-11.0,7.08
19.0,90.0,7.081
67.0,136.0,7.082
109.0,14.0,7.083
133.0,-86.0,7.084
95.0,-126.0,7.085
56.0,-151.0,7.086
14.0,-131.0,7.087
-17.0,-78.0,7.088
-12.0,74.0,7.089
-22.0,176.0,7.09
-79.0,125.0,7.091
-117.0,72.0,7.092
-99.0,16.0,7.093
-65.0,-32.0,7.094
20.0,-58.0,7.095
84.0,-74.0,7.096
78.0,-60.0,7.097
65.0,-55.0,7.098
54.0,-79.0,7.099
79.0,-72.0,7.1
78.0,-32.0,7.101
37.0,-20.0,7.102
10.0,-62.0,7.103
21.0,-109.0,7.104
23.0,-118.0,7.105
-4.0,-98.0,7.106
-35.0,-75.0,7.107
-64.0,-56.0,7.108
-111.0,-50.0,7.109
-153.0,-78.0,7.11
-147.0,-150.0,7.111
-110.0,-245.0,7.112
-84.0,-287.0,7.113
-48.0,-168.0,7.114
25.0,120.0,7.115
85.0,398.0,7.116
68.0,473.0,7.117
2.0,356.0,7.118
-17.0,231.0,7.119
21.0,194.0,7.12
47.0,163.0,7.121
39.0,77.0,7.122
45.0,-8.0,7.123
69.0,-56.0,7.124
54.0,-105.0,7.125
-12.0,-151.0,7.126
-65.0,-131.0,7.127
-54.0,-54.0,7.128
-14.0,-22.0,7.129
6.0,-64.0,7.13
10.0,-98.0,7.131
25.0,-73.0,7.132
46.0,-8.0,7.133
49.0,80.0,7.134
43.0,192.0,7.135
68.0,259.0,7.136
122.0,226.0,7.137
145.0,123.0,7.138
101.0,37.0,7.139
52.0,-45.0,7.14
-11.0,-192.0,7.141
-51.0,-340.0,7.142
-17.0,-343.0,7.143
27.0,-162.0,7.144
106.0,82.0,7.145
143.0,255.0,7.146
53.0,306.0,7.147
-33.0,239.0,7.148
-107.0,101.0,7.149
-168.0,-27.0,7.15
-189.0,-98.0,7.151
-200.0,-134.0,7.152
-176.0,-153.0,7.153
-142.0,-125.0,7.154
-81.0,-47.0,7.155
-28.0,-10.0,7.156
-2.0,-95.0,7.157
20.0,-310.0,7.158
19.0,-510.0,7.159
7.0,-501.0,7.16
21.0,-194.0,7.161
54.0,262.0,7.162
67.0,551.0,7.163
49.0,512.0,7.164
46.0,309.0,7.165
80.0,187.0,7.166
114.0,162.0,7.167
104.0,91.0,7.168
69.0,-35.0,7.169
40.0,-74.0,7.17
16.0,13.0,7.171
-10.0,104.0,7.172
-33.0,96.0,7.173
-57.0,25.0,7.174
-74.0,-34.0,7.175
-42.0,-63.0,7.176
48.0,-67.0,7.177
113.0,-50.0,7.178
87.0,-15.0,7.179
50.0,12.0,7.18
-17.0,0.0,7.181
-83.0,-47.0,7.182
-145.0,-94.0,7.183
-162.0,-94.0,7.184
-40.0,-43.0,7.185
46.0,0.0,7.186
26.0,-1.0,7.187
7.0,-14.0,7.188
-6.0,1.0,7.189
-17.0,20.0,7.19
-21.0,-3.0,7.191
-13.0,-50.0,7.192
35.0,-72.0,7.193
72.0,-63.0,7.194
77.0,-44.0,7.195
79.0,-20.0,7.196
69.0,13.0,7.197
70.0,36.0,7.198
80.0,31.0,7.199
40.0,16.0,7.2
-18.0,11.0,7.201
-44.0,11.0,7.202
-8.0,6.0,7.203
60.0,18.0,7.204
64.0,48.0,7.205
-67.0,47.0,7.206
-263.0,-18.0,7.207
-378.0,-111.0,7.208
-330.0,-157.0,7.209
-148.0,-129.0,7.21
67.0,-56.0,7.211
185.0,20.0,7.212
116.0,63.0,7.213
-45.0,70.0,7.214
-87.0,61.0,7.215
60.0,53.0,7.216
221.0,38.0,7.217
-170.0,-80.0,7.218
-130.0,-16.0,7.219
-90.0,26.0,7.22
-42.0,-18.0,7.221
24.0,-63.0,7.222
148.0,-116.0,7.223
196.0,-154.0,7.224
13.0,-148.0,7.225
-128.0,-80.0,7.226
-143.0,160.0,7.227
-128.0,326.0,7.228
-11.0,268.0,7.229
99.0,216.0,7.23
181.0,187.0,7.231
221.0,138.0,7.232
130.0,35.0,7.233
55.0,-54.0,7.234
33.0,-107.0,7.235
11.0,-143.0,7.236
-6.0,-116.0,7.237
-71.0,-29.0,7.238
-53.0,0.0,7.239
-35.0,19.0,7.24
-13.0,-1.0,7.241
17.0,-21.0,7.242
73.0,-45.0,7.243
95.0,-62.0,7.244
12.0,-59.0,7.245
-52.0,-29.0,7.246
-59.0,79.0,7.247
-52.0,153.0,7.248
1.0,127.0,7.249
51.0,104.0,7.25
88.0,91.0,7.251
106.0,69.0,7.252
65.0,23.0,7.253
31.0,-17.0,7.254
21.0,-41.0,7.255
11.0,-57.0,7.256
3.0,-45.0,7.257
-20.0,-34.0,7.258
-108.0,-40.0,7.259
-199.0,-70.0,7.26
-193.0,-94.0,7.261
-62.0,-79.0,7.262
69.0,-51.0,7.263
62.0,-60.0,7.264
-52.0,-96.0,7.265
-113.0,-92.0,7.266
-49.0,-33.0,7.267
82.0,33.0,7.268
223.0,61.0,7.269
351.0,61.0,7.27
399.0,69.0,7.271
297.0,102.0,7.272
65.0,133.0,7.273
-180.0,121.0,7.274
-334.0,58.0,7.275
-345.0,-4.0,7.276
-226.0,-16.0,7.277
-87.0,-22.0,7.278
-60.0,-84.0,7.279
-51.0,-138.0,7.28
