Deltoid,Bicep,Time
26.0,-37.0,0.0
9.0,-27.0,0.001
-13.0,-22.0,0.002
-21.0,-24.0,0.003
-13.0,-22.0,0.004
-7.0,-9.0,0.005
-9.0,5.0,0.006
-8.0,9.0,0.007
2.0,6.0,0.008
11.0,8.0,0.009
14.0,14.0,0.01
24.0,15.0,0.011
47.0,11.0,0.012
59.0,13.0,0.013
34.0,21.0,0.014
-9.0,23.0,0.015
-31.0,14.0,0.016
-27.0,6.0,0.017
-21.0,5.0,0.018
-26.0,8.0,0.019
-29.0,6.0,0.02
-23.0,-1.0,0.021
-17.0,-1.0,0.022
-9.0,1.0,0.023
-1.0,1.0,0.024
3.0,0.0,0.025
6.0,2.0,0.026
6.0,3.0,0.027
10.0,-1.0,0.028
29.0,-4.0,0.029
45.0,-4.0,0.03
50.0,-1.0,0.031
49.0,0.0,0.032
30.0,0.0,0.033
11.0,1.0,0.034
-3.0,2.0,0.035
-11.0,0.0,0.036
6.0,0.0,0.037
29.0,-2.0,0.038
58.0,-1.0,0.039
64.0,-1.0,0.04
33.0,-1.0,0.041
-19.0,-1.0,0.042
-60.0,-3.0,0.043
-82.0,-6.0,0.044
-94.0,-5.0,0.045
-104.0,0.0,0.046
-106.0,1.0,0.047
-94.0,-5.0,0.048
-73.0,-10.0,0.049
-52.0,-4.0,0.05
-32.0,6.0,0.051
-13.0,11.0,0.052
7.0,4.0,0.053
30.0,1.0,0.054
47.0,3.0,0.055
50.0,6.0,0.056
45.0,10.0,0.057
38.0,14.0,0.058
38.0,18.0,0.059
35.0,10.0,0.06
29.0,-14.0,0.061
26.0,-28.0,0.062
34.0,-22.0,0.063
40.0,-5.0,0.064
40.0,7.0,0.065
39.0,3.0,0.066
38.0,-11.0,0.067
35.0,-29.0,0.068
28.0,-43.0,0.069
21.0,-41.0,0.07
13.0,-24.0,0.071
2.0,-3.0,0.072
-14.0,10.0,0.073
-26.0,12.0,0.074
-23.0,8.0,0.075
-20.0,2.0,0.076
-24.0,2.0,0.077
-28.0,3.0,0.078
-31.0,7.0,0.079
-27.0,10.0,0.08
-21.0,10.0,0.081
-13.0,11.0,0.082
-3.0,9.0,0.083
9.0,7.0,0.084
25.0,5.0,0.085
43.0,3.0,0.086
56.0,3.0,0.087
48.0,2.0,0.088
18.0,4.0,0.089
-10.0,6.0,0.09
-16.0,4.0,0.091
-7.0,2.0,0.092
-7.0,0.0,0.093
-14.0,-1.0,0.094
-13.0,-3.0,0.095
-2.0,-4.0,0.096
8.0,1.0,0.097
10.0,7.0,0.098
9.0,6.0,0.099
7.0,1.0,0.1
4.0,-3.0,0.101
4.0,-3.0,0.102
14.0,-2.0,0.103
22.0,-1.0,0.104
26.0,2.0,0.105
28.0,6.0,0.106
26.0,1.0,0.107
20.0,-7.0,0.108
2.0,-10.0,0.109
-13.0,-8.0,0.11
-20.0,-4.0,0.111
-26.0,0.0,0.112
-26.0,3.0,0.113
-25.0,2.0,0.114
-20.0,0.0,0.115
-13.0,-4.0,0.116
-3.0,-1.0,0.117
4.0,0.0,0.118
-6.0,2.0,0.119
-19.0,3.0,0.12
-22.0,-2.0,0.121
-11.0,-7.0,0.122
5.0,-9.0,0.123
13.0,-9.0,0.124
12.0,-2.0,0.125
13.0,4.0,0.126
20.0,9.0,0.127
31.0,13.0,0.128
33.0,12.0,0.129
25.0,9.0,0.13
13.0,1.0,0.131
1.0,-5.0,0.132
-5.0,-5.0,0.133
-10.0,-6.0,0.134
-14.0,-6.0,0.135
-17.0,-5.0,0.136
-20.0,0.0,0.137
-26.0,4.0,0.138
-24.0,3.0,0.139
-19.0,-2.0,0.14
-4.0,-7.0,0.141
7.0,-5.0,0.142
6.0,0.0,0.143
4.0,1.0,0.144
0.0,3.0,0.145
-4.0,4.0,0.146
-4.0,4.0,0.147
0.0,1.0,0.148
16.0,-3.0,0.149
28.0,-7.0,0.15
24.0,-12.0,0.151
18.0,-16.0,0.152
7.0,-9.0,0.153
0.0,2.0,0.154
5.0,4.0,0.155
9.0,-3.0,0.156
11.0,-6.0,0.157
13.0,-4.0,0.158
4.0,0.0,0.159
-8.0,-2.0,0.16
-11.0,-5.0,0.161
-2.0,-1.0,0.162
13.0,3.0,0.163
19.0,3.0,0.164
16.0,3.0,0.165
12.0,7.0,0.166
12.0,5.0,0.167
13.0,-3.0,0.168
8.0,-6.0,0.169
3.0,-2.0,0.17
1.0,0.0,0.171
1.0,-7.0,0.172
-1.0,-10.0,0.173
-2.0,-6.0,0.174
5.0,1.0,0.175
17.0,6.0,0.176
22.0,9.0,0.177
15.0,11.0,0.178
3.0,9.0,0.179
-4.0,2.0,0.18
-8.0,-5.0,0.181
-7.0,-2.0,0.182
-3.0,3.0,0.183
3.0,2.0,0.184
1.0,2.0,0.185
-9.0,2.0,0.186
-15.0,0.0,0.187
-13.0,-4.0,0.188
-5.0,-1.0,0.189
-5.0,4.0,0.19
-10.0,3.0,0.191
-13.0,-3.0,0.192
-9.0,-5.0,0.193
-5.0,-2.0,0.194
-5.0,-2.0,0.195
-5.0,-5.0,0.196
1.0,-2.0,0.197
14.0,2.0,0.198
31.0,3.0,0.199
41.0,-2.0,0.2
39.0,-6.0,0.201
29.0,-5.0,0.202
19.0,-3.0,0.203
11.0,-1.0,0.204
-1.0,4.0,0.205
-20.0,7.0,0.206
-40.0,3.0,0.207
-46.0,-3.0,0.208
-36.0,-3.0,0.209
-16.0,0.0,0.21
-1.0,-2.0,0.211
0.0,-4.0,0.212
-3.0,-1.0,0.213
-1.0,2.0,0.214
13.0,0.0,0.215
35.0,-3.0,0.216
52.0,0.0,0.217
8.0,0.0,0.218
-5.0,-2.0,0.219
-6.0,-7.0,0.22
-3.0,-10.0,0.221
-11.0,-9.0,0.222
-20.0,-10.0,0.223
-23.0,-8.0,0.224
-24.0,-1.0,0.225
-26.0,3.0,0.226
-25.0,1.0,0.227
-16.0,-2.0,0.228
-9.0,0.0,0.229
-11.0,1.0,0.23
-18.0,0.0,0.231
-18.0,-3.0,0.232
-7.0,0.0,0.233
5.0,3.0,0.234
14.0,3.0,0.235
20.0,3.0,0.236
25.0,7.0,0.237
26.0,6.0,0.238
21.0,0.0,0.239
19.0,-2.0,0.24
31.0,2.0,0.241
53.0,9.0,0.242
66.0,8.0,0.243
55.0,3.0,0.244
30.0,5.0,0.245
11.0,8.0,0.246
13.0,6.0,0.247
27.0,0.0,0.248
39.0,-4.0,0.249
35.0,-4.0,0.25
4.0,-3.0,0.251
-42.0,-5.0,0.252
-83.0,-9.0,0.253
-96.0,-13.0,0.254
-78.0,-17.0,0.255
-53.0,-16.0,0.256
-33.0,-8.0,0.257
-22.0,-1.0,0.258
-15.0,3.0,0.259
-15.0,4.0,0.26
-18.0,2.0,0.261
-13.0,2.0,0.262
5.0,1.0,0.263
23.0,3.0,0.264
23.0,9.0,0.265
17.0,12.0,0.266
18.0,7.0,0.267
29.0,-1.0,0.268
36.0,-1.0,0.269
40.0,2.0,0.27
53.0,1.0,0.271
65.0,-5.0,0.272
54.0,-10.0,0.273
19.0,-8.0,0.274
-7.0,0.0,0.275
-8.0,6.0,0.276
-1.0,7.0,0.277
-7.0,1.0,0.278
-17.0,-5.0,0.279
-27.0,-6.0,0.28
-33.0,-8.0,0.281
-35.0,-6.0,0.282
-21.0,-4.0,0.283
-7.0,1.0,0.284
5.0,5.0,0.285
12.0,7.0,0.286
4.0,8.0,0.287
0.0,11.0,0.288
9.0,11.0,0.289
18.0,6.0,0.29
22.0,-2.0,0.291
24.0,-7.0,0.292
16.0,-7.0,0.293
8.0,-6.0,0.294
0.0,-6.0,0.295
-3.0,-5.0,0.296
6.0,-1.0,0.297
16.0,0.0,0.298
16.0,-1.0,0.299
17.0,-2.0,0.3
22.0,-3.0,0.301
25.0,-2.0,0.302
28.0,0.0,0.303
26.0,1.0,0.304
19.0,4.0,0.305
12.0,0.0,0.306
4.0,-12.0,0.307
-2.0,-22.0,0.308
-12.0,-20.0,0.309
-20.0,-11.0,0.31
-19.0,-4.0,0.311
-12.0,0.0,0.312
-9.0,5.0,0.313
-14.0,7.0,0.314
-21.0,2.0,0.315
-29.0,0.0,0.316
-32.0,3.0,0.317
-31.0,6.0,0.318
-23.0,1.0,0.319
-16.0,-4.0,0.32
-16.0,-3.0,0.321
-15.0,2.0,0.322
-9.0,5.0,0.323
-2.0,3.0,0.324
9.0,4.0,0.325
18.0,5.0,0.326
18.0,-1.0,0.327
23.0,-8.0,0.328
47.0,-7.0,0.329
68.0,-1.0,0.33
80.0,6.0,0.331
81.0,6.0,0.332
51.0,4.0,0.333
18.0,2.0,0.334
-27.0,2.0,0.335
-62.0,4.0,0.336
-62.0,5.0,0.337
-59.0,3.0,0.338
-52.0,-1.0,0.339
-57.0,-1.0,0.34
-56.0,-4.0,0.341
-43.0,-9.0,0.342
-28.0,-14.0,0.343
-16.0,-10.0,0.344
0.0,0.0,0.345
22.0,6.0,0.346
38.0,3.0,0.347
38.0,1.0,0.348
30.0,6.0,0.349
21.0,9.0,0.35
22.0,4.0,0.351
25.0,0.0,0.352
25.0,5.0,0.353
23.0,11.0,0.354
22.0,8.0,0.355
20.0,-2.0,0.356
14.0,-4.0,0.357
-1.0,-3.0,0.358
-14.0,-2.0,0.359
-20.0,-3.0,0.36
-16.0,-11.0,0.361
-8.0,-17.0,0.362
5.0,-14.0,0.363
18.0,-12.0,0.364
22.0,-12.0,0.365
19.0,-11.0,0.366
17.0,-4.0,0.367
23.0,2.0,0.368
28.0,6.0,0.369
23.0,9.0,0.37
14.0,10.0,0.371
6.0,12.0,0.372
1.0,12.0,0.373
-1.0,12.0,0.374
-1.0,12.0,0.375
0.0,13.0,0.376
0.0,11.0,0.377
-7.0,7.0,0.378
-11.0,-7.0,0.379
-5.0,-28.0,0.38
7.0,-46.0,0.381
16.0,-45.0,0.382
18.0,-25.0,0.383
15.0,-3.0,0.384
8.0,5.0,0.385
-1.0,0.0,0.386
-5.0,0.0,0.387
2.0,7.0,0.388
18.0,10.0,0.389
23.0,3.0,0.39
6.0,-3.0,0.391
-23.0,0.0,0.392
-39.0,6.0,0.393
-36.0,4.0,0.394
-21.0,0.0,0.395
-12.0,1.0,0.396
-6.0,6.0,0.397
7.0,4.0,0.398
2.0,0.0,0.399
-2.0,2.0,0.4
-4.0,5.0,0.401
-3.0,3.0,0.402
11.0,0.0,0.403
22.0,1.0,0.404
14.0,3.0,0.405
5.0,-1.0,0.406
0.0,-2.0,0.407
-4.0,3.0,0.408
-2.0,9.0,0.409
3.0,6.0,0.41
19.0,2.0,0.411
26.0,5.0,0.412
9.0,9.0,0.413
-5.0,5.0,0.414
-23.0,-2.0,0.415
-38.0,0.0,0.416
-36.0,5.0,0.417
6.0,-1.0,0.418
2.0,-8.0,0.419
-2.0,-7.0,0.42
-4.0,-4.0,0.421
-3.0,-7.0,0.422
11.0,-11.0,0.423
20.0,-8.0,0.424
13.0,1.0,0.425
5.0,5.0,0.426
0.0,1.0,0.427
-4.0,-3.0,0.428
-2.0,-3.0,0.429
3.0,0.0,0.43
17.0,-1.0,0.431
24.0,-5.0,0.432
8.0,-7.0,0.433
-5.0,-6.0,0.434
-22.0,-3.0,0.435
-35.0,-3.0,0.436
-34.0,-3.0,0.437
6.0,-11.0,0.438
2.0,-9.0,0.439
-2.0,-5.0,0.44
-4.0,1.0,0.441
-3.0,3.0,0.442
10.0,-3.0,0.443
19.0,-11.0,0.444
12.0,-20.0,0.445
5.0,-22.0,0.446
0.0,-5.0,0.447
-4.0,7.0,0.448
-2.0,7.0,0.449
3.0,7.0,0.45
16.0,3.0,0.451
22.0,-1.0,0.452
8.0,1.0,0.453
-5.0,3.0,0.454
-20.0,3.0,0.455
-32.0,1.0,0.456
-31.0,-3.0,0.457
-27.0,-5.0,0.458
-16.0,-4.0,0.459
-8.0,-2.0,0.46
3.0,-1.0,0.461
21.0,0.0,0.462
37.0,-1.0,0.463
36.0,-5.0,0.464
15.0,-8.0,0.465
-6.0,-9.0,0.466
-6.0,-2.0,0.467
10.0,2.0,0.468
18.0,2.0,0.469
3.0,2.0,0.47
-22.0,0.0,0.471
-40.0,-1.0,0.472
-38.0,-1.0,0.473
-22.0,0.0,0.474
-9.0,0.0,0.475
-3.0,-1.0,0.476
-2.0,-1.0,0.477
27.0,-6.0,0.478
27.0,-5.0,0.479
23.0,-3.0,0.48
15.0,0.0,0.481
8.0,1.0,0.482
8.0,-2.0,0.483
10.0,-6.0,0.484
17.0,-10.0,0.485
20.0,-11.0,0.486
22.0,-3.0,0.487
25.0,3.0,0.488
34.0,3.0,0.489
41.0,3.0,0.49
41.0,1.0,0.491
39.0,-1.0,0.492
32.0,0.0,0.493
23.0,1.0,0.494
11.0,1.0,0.495
-1.0,0.0,0.496
-9.0,-2.0,0.497
29.0,-5.0,0.498
29.0,-7.0,0.499
25.0,-4.0,0.5
13.0,-1.0,0.501
4.0,2.0,0.502
4.0,3.0,0.503
7.0,5.0,0.504
15.0,7.0,0.505
21.0,6.0,0.506
23.0,1.0,0.507
27.0,-3.0,0.508
38.0,-2.0,0.509
47.0,1.0,0.51
47.0,1.0,0.511
45.0,-2.0,0.512
36.0,-3.0,0.513
25.0,1.0,0.514
8.0,4.0,0.515
-7.0,0.0,0.516
-18.0,-6.0,0.517
-28.0,-11.0,0.518
-28.0,-9.0,0.519
-43.0,-6.0,0.52
-66.0,-4.0,0.521
-82.0,-2.0,0.522
-76.0,-3.0,0.523
-57.0,-2.0,0.524
-37.0,6.0,0.525
-23.0,12.0,0.526
-14.0,12.0,0.527
-9.0,10.0,0.528
-6.0,0.0,0.529
1.0,-7.0,0.53
15.0,-9.0,0.531
25.0,-9.0,0.532
27.0,-3.0,0.533
24.0,1.0,0.534
33.0,4.0,0.535
52.0,6.0,0.536
69.0,3.0,0.537
62.0,1.0,0.538
36.0,1.0,0.539
14.0,4.0,0.54
5.0,2.0,0.541
2.0,-1.0,0.542
0.0,-3.0,0.543
-3.0,-1.0,0.544
-4.0,3.0,0.545
-9.0,3.0,0.546
-17.0,0.0,0.547
-20.0,-4.0,0.548
-14.0,-7.0,0.549
-5.0,-8.0,0.55
-2.0,-9.0,0.551
-2.0,-7.0,0.552
-6.0,-3.0,0.553
-10.0,-2.0,0.554
-15.0,-2.0,0.555
-20.0,-3.0,0.556
-20.0,-3.0,0.557
-26.0,-6.0,0.558
-21.0,-5.0,0.559
-15.0,2.0,0.56
-8.0,7.0,0.561
-1.0,9.0,0.562
4.0,6.0,0.563
7.0,-1.0,0.564
7.0,-7.0,0.565
9.0,-6.0,0.566
13.0,0.0,0.567
16.0,6.0,0.568
16.0,3.0,0.569
16.0,-5.0,0.57
16.0,-9.0,0.571
15.0,-8.0,0.572
13.0,-7.0,0.573
12.0,-2.0,0.574
17.0,7.0,0.575
23.0,15.0,0.576
34.0,16.0,0.577
-29.0,7.0,0.578
-23.0,1.0,0.579
-17.0,4.0,0.58
-9.0,6.0,0.581
-2.0,5.0,0.582
3.0,-1.0,0.583
7.0,-7.0,0.584
8.0,-7.0,0.585
10.0,-4.0,0.586
14.0,-1.0,0.587
17.0,-1.0,0.588
17.0,-2.0,0.589
17.0,-3.0,0.59
17.0,-4.0,0.591
16.0,-4.0,0.592
14.0,-1.0,0.593
13.0,2.0,0.594
18.0,-1.0,0.595
24.0,-6.0,0.596
36.0,-6.0,0.597
42.0,-6.0,0.598
29.0,-4.0,0.599
12.0,-3.0,0.6
7.0,-5.0,0.601
16.0,-7.0,0.602
27.0,-5.0,0.603
14.0,-3.0,0.604
-30.0,-1.0,0.605
-81.0,0.0,0.606
-97.0,1.0,0.607
-74.0,1.0,0.608
-43.0,-4.0,0.609
-24.0,-8.0,0.61
-18.0,-2.0,0.611
-16.0,2.0,0.612
-24.0,2.0,0.613
-37.0,1.0,0.614
-33.0,3.0,0.615
-19.0,3.0,0.616
-12.0,-2.0,0.617
-13.0,-7.0,0.618
1.0,-7.0,0.619
24.0,-1.0,0.62
37.0,1.0,0.621
37.0,1.0,0.622
38.0,0.0,0.623
47.0,1.0,0.624
47.0,5.0,0.625
29.0,7.0,0.626
8.0,2.0,0.627
-2.0,-6.0,0.628
-4.0,-6.0,0.629
-11.0,4.0,0.63
-20.0,12.0,0.631
-20.0,7.0,0.632
-13.0,0.0,0.633
-7.0,1.0,0.634
-1.0,5.0,0.635
13.0,6.0,0.636
32.0,4.0,0.637
-5.0,0.0,0.638
-5.0,0.0,0.639
-3.0,-2.0,0.64
0.0,-7.0,0.641
4.0,-7.0,0.642
15.0,-6.0,0.643
23.0,-4.0,0.644
19.0,-3.0,0.645
10.0,0.0,0.646
-11.0,1.0,0.647
-27.0,-1.0,0.648
-33.0,-2.0,0.649
-38.0,-4.0,0.65
-37.0,-6.0,0.651
-35.0,-5.0,0.652
-31.0,0.0,0.653
-26.0,2.0,0.654
-21.0,-3.0,0.655
-15.0,-7.0,0.656
-8.0,-2.0,0.657
10.0,1.0,0.658
12.0,-4.0,0.659
17.0,-12.0,0.66
26.0,-10.0,0.661
42.0,0.0,0.662
78.0,2.0,0.663
103.0,-3.0,0.664
89.0,-4.0,0.665
61.0,0.0,0.666
-8.0,1.0,0.667
-66.0,-2.0,0.668
-87.0,1.0,0.669
-103.0,8.0,0.67
-99.0,6.0,0.671
-92.0,0.0,0.672
-78.0,0.0,0.673
-64.0,6.0,0.674
-46.0,9.0,0.675
-26.0,2.0,0.676
0.0,0.0,0.677
24.0,-1.0,0.678
32.0,-2.0,0.679
29.0,-4.0,0.68
22.0,-7.0,0.681
21.0,-10.0,0.682
35.0,-11.0,0.683
57.0,-10.0,0.684
65.0,0.0,0.685
49.0,8.0,0.686
23.0,12.0,0.687
3.0,15.0,0.688
-11.0,13.0,0.689
-25.0,11.0,0.69
-40.0,12.0,0.691
-39.0,10.0,0.692
-25.0,-2.0,0.693
-14.0,-12.0,0.694
-13.0,-20.0,0.695
-16.0,-24.0,0.696
-7.0,-18.0,0.697
7.0,-11.0,0.698
19.0,-2.0,0.699
27.0,4.0,0.7
35.0,1.0,0.701
46.0,-2.0,0.702
49.0,-1.0,0.703
40.0,5.0,0.704
27.0,10.0,0.705
16.0,10.0,0.706
5.0,8.0,0.707
-2.0,6.0,0.708
2.0,4.0,0.709
17.0,-1.0,0.71
27.0,-6.0,0.711
21.0,-10.0,0.712
6.0,-11.0,0.713
1.0,-10.0,0.714
5.0,-7.0,0.715
0.0,-1.0,0.716
-17.0,1.0,0.717
28.0,-2.0,0.718
32.0,-2.0,0.719
31.0,2.0,0.72
16.0,4.0,0.721
3.0,2.0,0.722
-2.0,-1.0,0.723
-4.0,-1.0,0.724
0.0,2.0,0.725
2.0,5.0,0.726
-3.0,4.0,0.727
-6.0,4.0,0.728
-4.0,5.0,0.729
-4.0,4.0,0.73
-16.0,0.0,0.731
-27.0,-5.0,0.732
-23.0,-5.0,0.733
-21.0,-2.0,0.734
-30.0,0.0,0.735
-36.0,-6.0,0.736
-29.0,-13.0,0.737
31.0,-14.0,0.738
35.0,-4.0,0.739
34.0,10.0,0.74
18.0,10.0,0.741
4.0,5.0,0.742
-1.0,2.0,0.743
-4.0,6.0,0.744
1.0,11.0,0.745
3.0,10.0,0.746
-2.0,8.0,0.747
-7.0,7.0,0.748
-4.0,5.0,0.749
-4.0,0.0,0.75
-18.0,-3.0,0.751
-29.0,-5.0,0.752
-25.0,-7.0,0.753
-23.0,-8.0,0.754
-33.0,-4.0,0.755
-39.0,2.0,0.756
-32.0,6.0,0.757
-26.0,3.0,0.758
-28.0,0.0,0.759
-31.0,-2.0,0.76
-26.0,-8.0,0.761
-13.0,-15.0,0.762
8.0,-18.0,0.763
37.0,-15.0,0.764
61.0,-9.0,0.765
74.0,-2.0,0.766
81.0,1.0,0.767
80.0,0.0,0.768
62.0,-2.0,0.769
29.0,-1.0,0.77
1.0,1.0,0.771
-9.0,2.0,0.772
-8.0,5.0,0.773
-11.0,12.0,0.774
-14.0,17.0,0.775
-16.0,16.0,0.776
-13.0,9.0,0.777
-12.0,3.0,0.778
-8.0,3.0,0.779
-5.0,3.0,0.78
0.0,1.0,0.781
5.0,0.0,0.782
12.0,6.0,0.783
12.0,10.0,0.784
-3.0,8.0,0.785
-18.0,5.0,0.786
-8.0,1.0,0.787
17.0,-3.0,0.788
29.0,-8.0,0.789
14.0,-13.0,0.79
-7.0,-18.0,0.791
-14.0,-20.0,0.792
-9.0,-9.0,0.793
-2.0,0.0,0.794
9.0,2.0,0.795
19.0,3.0,0.796
16.0,-6.0,0.797
-1.0,-14.0,0.798
7.0,-14.0,0.799
19.0,-13.0,0.8
47.0,-12.0,0.801
67.0,-9.0,0.802
63.0,-7.0,0.803
49.0,-4.0,0.804
13.0,0.0,0.805
-21.0,5.0,0.806
-45.0,8.0,0.807
-59.0,7.0,0.808
-43.0,3.0,0.809
-31.0,0.0,0.81
-43.0,-3.0,0.811
-53.0,-6.0,0.812
-45.0,-4.0,0.813
-33.0,-1.0,0.814
-13.0,-2.0,0.815
3.0,-7.0,0.816
5.0,-10.0,0.817
-3.0,-7.0,0.818
1.0,0.0,0.819
7.0,1.0,0.82
21.0,-7.0,0.821
31.0,-12.0,0.822
29.0,-6.0,0.823
22.0,6.0,0.824
4.0,14.0,0.825
-13.0,14.0,0.826
-25.0,12.0,0.827
-32.0,9.0,0.828
-24.0,7.0,0.829
-18.0,7.0,0.83
-24.0,7.0,0.831
-29.0,7.0,0.832
-25.0,9.0,0.833
-19.0,10.0,0.834
-9.0,10.0,0.835
-1.0,4.0,0.836
0.0,-2.0,0.837
3.0,-6.0,0.838
0.0,-6.0,0.839
-5.0,-7.0,0.84
-7.0,-17.0,0.841
-2.0,-20.0,0.842
7.0,-10.0,0.843
14.0,2.0,0.844
20.0,10.0,0.845
39.0,15.0,0.846
72.0,21.0,0.847
98.0,21.0,0.848
89.0,12.0,0.849
50.0,-2.0,0.85
14.0,-12.0,0.851
-1.0,-10.0,0.852
-9.0,-1.0,0.853
-33.0,5.0,0.854
-65.0,1.0,0.855
-78.0,-6.0,0.856
-61.0,-11.0,0.857
-37.0,-13.0,0.858
-23.0,-10.0,0.859
-17.0,-5.0,0.86
-4.0,-2.0,0.861
13.0,1.0,0.862
18.0,3.0,0.863
8.0,7.0,0.864
-1.0,11.0,0.865
0.0,11.0,0.866
1.0,4.0,0.867
-2.0,-1.0,0.868
-5.0,-2.0,0.869
0.0,-5.0,0.87
12.0,-15.0,0.871
18.0,-27.0,0.872
20.0,-27.0,0.873
21.0,-16.0,0.874
27.0,-8.0,0.875
40.0,-2.0,0.876
65.0,2.0,0.877
77.0,3.0,0.878
52.0,4.0,0.879
23.0,5.0,0.88
-17.0,2.0,0.881
-47.0,1.0,0.882
-41.0,-1.0,0.883
-37.0,-3.0,0.884
-38.0,-1.0,0.885
-33.0,3.0,0.886
-5.0,6.0,0.887
17.0,7.0,0.888
20.0,9.0,0.889
21.0,9.0,0.89
12.0,7.0,0.891
0.0,8.0,0.892
-22.0,12.0,0.893
-36.0,12.0,0.894
-25.0,1.0,0.895
-15.0,-13.0,0.896
-8.0,-14.0,0.897
3.0,-8.0,0.898
21.0,-4.0,0.899
29.0,-8.0,0.9
19.0,-16.0,0.901
9.0,-9.0,0.902
15.0,-1.0,0.903
21.0,0.0,0.904
10.0,2.0,0.905
-13.0,9.0,0.906
-24.0,11.0,0.907
-13.0,3.0,0.908
10.0,-6.0,0.909
22.0,-2.0,0.91
17.0,8.0,0.911
10.0,12.0,0.912
11.0,6.0,0.913
15.0,-1.0,0.914
10.0,-4.0,0.915
-2.0,-3.0,0.916
-14.0,1.0,0.917
-25.0,5.0,0.918
-34.0,5.0,0.919
-35.0,1.0,0.92
-23.0,-7.0,0.921
-7.0,-9.0,0.922
4.0,-7.0,0.923
11.0,-3.0,0.924
16.0,2.0,0.925
16.0,2.0,0.926
8.0,-2.0,0.927
0.0,-4.0,0.928
2.0,-1.0,0.929
11.0,-1.0,0.93
20.0,-8.0,0.931
26.0,-15.0,0.932
35.0,-10.0,0.933
43.0,0.0,0.934
39.0,4.0,0.935
21.0,2.0,0.936
5.0,2.0,0.937
-3.0,4.0,0.938
-6.0,8.0,0.939
-18.0,7.0,0.94
-33.0,1.0,0.941
-34.0,-2.0,0.942
-14.0,-2.0,0.943
18.0,1.0,0.944
42.0,6.0,0.945
43.0,8.0,0.946
21.0,0.0,0.947
-10.0,-7.0,0.948
-25.0,-5.0,0.949
-17.0,-2.0,0.95
3.0,-5.0,0.951
16.0,-11.0,0.952
16.0,-6.0,0.953
9.0,6.0,0.954
-1.0,10.0,0.955
-10.0,5.0,0.956
-18.0,3.0,0.957
-26.0,4.0,0.958
-35.0,3.0,0.959
-41.0,-2.0,0.96
-39.0,-7.0,0.961
-33.0,-5.0,0.962
-11.0,-2.0,0.963
5.0,-3.0,0.964
8.0,-6.0,0.965
14.0,-7.0,0.966
27.0,-7.0,0.967
36.0,-6.0,0.968
30.0,-5.0,0.969
24.0,-3.0,0.97
18.0,-2.0,0.971
16.0,5.0,0.972
28.0,12.0,0.973
36.0,12.0,0.974
28.0,5.0,0.975
19.0,1.0,0.976
6.0,4.0,0.977
-5.0,5.0,0.978
-7.0,0.0,0.979
-4.0,-5.0,0.98
-5.0,-8.0,0.981
-11.0,-4.0,0.982
-11.0,0.0,0.983
-6.0,0.0,0.984
-12.0,-1.0,0.985
-25.0,-5.0,0.986
-23.0,-8.0,0.987
0.0,-3.0,0.988
19.0,6.0,0.989
21.0,9.0,0.99
18.0,2.0,0.991
22.0,-5.0,0.992
23.0,-1.0,0.993
9.0,5.0,0.994
-5.0,6.0,0.995
-6.0,-1.0,0.996
-6.0,-5.0,0.997
-18.0,-5.0,0.998
-26.0,-1.0,0.999
-19.0,3.0,1.0
-8.0,1.0,1.001
-7.0,1.0,1.002
-3.0,5.0,1.003
24.0,6.0,1.004
58.0,-2.0,1.005
72.0,-7.0,1.006
62.0,-5.0,1.007
39.0,-3.0,1.008
10.0,-3.0,1.009
-23.0,-4.0,1.01
-46.0,-5.0,1.011
-51.0,-6.0,1.012
-46.0,-1.0,1.013
-45.0,3.0,1.014
-45.0,5.0,1.015
-31.0,8.0,1.016
-7.0,8.0,1.017
15.0,10.0,1.018
28.0,16.0,1.019
32.0,15.0,1.02
26.0,1.0,1.021
12.0,-9.0,1.022
0.0,-12.0,1.023
-3.0,-12.0,1.024
-4.0,-15.0,1.025
-5.0,-18.0,1.026
-6.0,-19.0,1.027
-5.0,-17.0,1.028
-2.0,-12.0,1.029
2.0,-4.0,1.03
11.0,2.0,1.031
20.0,6.0,1.032
23.0,9.0,1.033
18.0,11.0,1.034
8.0,9.0,1.035
-1.0,4.0,1.036
-7.0,0.0,1.037
-11.0,-3.0,1.038
-9.0,-3.0,1.039
-8.0,-2.0,1.04
-8.0,-3.0,1.041
-3.0,1.0,1.042
14.0,4.0,1.043
26.0,1.0,1.044
24.0,0.0,1.045
23.0,0.0,1.046
24.0,1.0,1.047
24.0,1.0,1.048
17.0,2.0,1.049
11.0,4.0,1.05
9.0,4.0,1.051
8.0,4.0,1.052
13.0,5.0,1.053
15.0,2.0,1.054
8.0,-6.0,1.055
1.0,-18.0,1.056
-3.0,-19.0,1.057
-9.0,-10.0,1.058
-24.0,2.0,1.059
-35.0,8.0,1.06
-41.0,5.0,1.061
-45.0,0.0,1.062
-39.0,-5.0,1.063
-22.0,-5.0,1.064
-5.0,0.0,1.065
7.0,6.0,1.066
24.0,5.0,1.067
55.0,3.0,1.068
84.0,6.0,1.069
83.0,13.0,1.07
47.0,13.0,1.071
0.0,7.0,1.072
-27.0,5.0,1.073
-25.0,5.0,1.074
-12.0,3.0,1.075
-14.0,-3.0,1.076
-34.0,-8.0,1.077
-55.0,-10.0,1.078
-53.0,-6.0,1.079
-34.0,-3.0,1.08
-18.0,-1.0,1.081
-8.0,0.0,1.082
7.0,1.0,1.083
24.0,0.0,1.084
29.0,-5.0,1.085
25.0,-10.0,1.086
22.0,-6.0,1.087
17.0,-3.0,1.088
-2.0,-5.0,1.089
-26.0,-8.0,1.09
-29.0,-12.0,1.091
-7.0,-12.0,1.092
18.0,0.0,1.093
31.0,10.0,1.094
32.0,10.0,1.095
28.0,11.0,1.096
19.0,9.0,1.097
8.0,5.0,1.098
4.0,-7.0,1.099
3.0,-9.0,1.1
-2.0,-5.0,1.101
-7.0,-3.0,1.102
1.0,-3.0,1.103
24.0,-1.0,1.104
45.0,2.0,1.105
54.0,2.0,1.106
48.0,-3.0,1.107
29.0,-9.0,1.108
5.0,-10.0,1.109
-12.0,-8.0,1.11
-17.0,-4.0,1.111
-19.0,-3.0,1.112
-30.0,-4.0,1.113
-42.0,-4.0,1.114
-39.0,-4.0,1.115
-24.0,-3.0,1.116
-9.0,2.0,1.117
-6.0,6.0,1.118
-5.0,8.0,1.119
-4.0,5.0,1.12
-3.0,-1.0,1.121
-9.0,1.0,1.122
-9.0,7.0,1.123
4.0,11.0,1.124
27.0,5.0,1.125
44.0,-2.0,1.126
50.0,-3.0,1.127
44.0,2.0,1.128
37.0,9.0,1.129
33.0,15.0,1.13
30.0,18.0,1.131
26.0,14.0,1.132
23.0,5.0,1.133
23.0,-4.0,1.134
10.0,-9.0,1.135
-28.0,-15.0,1.136
-68.0,-18.0,1.137
-78.0,-16.0,1.138
-48.0,-10.0,1.139
-13.0,-4.0,1.14
-7.0,-5.0,1.141
-18.0,-5.0,1.142
-17.0,-4.0,1.143
-13.0,-2.0,1.144
-25.0,5.0,1.145
-46.0,16.0,1.146
-47.0,19.0,1.147
-26.0,14.0,1.148
-12.0,9.0,1.149
-14.0,9.0,1.15
-12.0,7.0,1.151
6.0,-3.0,1.152
23.0,-14.0,1.153
26.0,-16.0,1.154
24.0,-10.0,1.155
30.0,-8.0,1.156
37.0,-7.0,1.157
32.0,-7.0,1.158
23.0,-9.0,1.159
22.0,-10.0,1.16
28.0,-7.0,1.161
36.0,-2.0,1.162
37.0,7.0,1.163
29.0,14.0,1.164
13.0,4.0,1.165
2.0,-3.0,1.166
4.0,-3.0,1.167
9.0,-2.0,1.168
6.0,2.0,1.169
-1.0,6.0,1.17
-1.0,7.0,1.171
4.0,7.0,1.172
6.0,1.0,1.173
2.0,-4.0,1.174
0.0,-4.0,1.175
-1.0,-3.0,1.176
2.0,0.0,1.177
3.0,3.0,1.178
1.0,3.0,1.179
-1.0,-2.0,1.18
-5.0,-9.0,1.181
-5.0,-6.0,1.182
11.0,0.0,1.183
22.0,3.0,1.184
15.0,7.0,1.185
9.0,15.0,1.186
9.0,19.0,1.187
9.0,12.0,1.188
9.0,-2.0,1.189
7.0,-13.0,1.19
4.0,-20.0,1.191
2.0,-19.0,1.192
6.0,-12.0,1.193
10.0,-1.0,1.194
18.0,1.0,1.195
18.0,-2.0,1.196
-6.0,1.0,1.197
-31.0,8.0,1.198
-49.0,11.0,1.199
-59.0,0.0,1.2
-59.0,-15.0,1.201
-47.0,-22.0,1.202
-24.0,-17.0,1.203
-9.0,-7.0,1.204
-11.0,7.0,1.205
-13.0,16.0,1.206
2.0,12.0,1.207
25.0,2.0,1.208
35.0,1.0,1.209
33.0,8.0,1.21
31.0,10.0,1.211
36.0,1.0,1.212
45.0,-7.0,1.213
56.0,-8.0,1.214
58.0,-7.0,1.215
34.0,-7.0,1.216
-10.0,-3.0,1.217
-44.0,4.0,1.218
-44.0,4.0,1.219
-40.0,3.0,1.22
-26.0,1.0,1.221
-13.0,0.0,1.222
0.0,0.0,1.223
8.0,-1.0,1.224
-5.0,-1.0,1.225
-14.0,-1.0,1.226
-10.0,-1.0,1.227
-6.0,0.0,1.228
-3.0,0.0,1.229
-2.0,-2.0,1.23
-6.0,-8.0,1.231
-8.0,-15.0,1.232
-2.0,-13.0,1.233
4.0,-11.0,1.234
16.0,-7.0,1.235
25.0,-2.0,1.236
28.0,2.0,1.237
32.0,8.0,1.238
33.0,8.0,1.239
27.0,6.0,1.24
14.0,3.0,1.241
2.0,2.0,1.242
5.0,2.0,1.243
16.0,0.0,1.244
12.0,0.0,1.245
-5.0,0.0,1.246
-18.0,0.0,1.247
-15.0,2.0,1.248
-4.0,2.0,1.249
4.0,-1.0,1.25
7.0,-13.0,1.251
4.0,-23.0,1.252
-1.0,-20.0,1.253
-8.0,-17.0,1.254
-11.0,-10.0,1.255
-11.0,-2.0,1.256
-8.0,5.0,1.257
-4.0,5.0,1.258
-2.0,5.0,1.259
-4.0,4.0,1.26
-8.0,2.0,1.261
-7.0,1.0,1.262
3.0,1.0,1.263
16.0,0.0,1.264
21.0,0.0,1.265
19.0,0.0,1.266
17.0,0.0,1.267
21.0,1.0,1.268
33.0,1.0,1.269
46.0,-1.0,1.27
57.0,-10.0,1.271
57.0,-17.0,1.272
42.0,-15.0,1.273
14.0,-13.0,1.274
-17.0,-8.0,1.275
-39.0,-2.0,1.276
-47.0,3.0,1.277
-51.0,10.0,1.278
-51.0,12.0,1.279
-47.0,8.0,1.28
-36.0,0.0,1.281
-22.0,-2.0,1.282
-2.0,-3.0,1.283
24.0,-4.0,1.284
42.0,0.0,1.285
39.0,5.0,1.286
19.0,4.0,1.287
-5.0,-2.0,1.288
-24.0,-4.0,1.289
-43.0,1.0,1.29
-55.0,5.0,1.291
-50.0,4.0,1.292
-33.0,2.0,1.293
-18.0,2.0,1.294
-11.0,2.0,1.295
-6.0,0.0,1.296
6.0,1.0,1.297
18.0,0.0,1.298
26.0,-4.0,1.299
33.0,-9.0,1.3
38.0,-14.0,1.301
44.0,-13.0,1.302
49.0,-13.0,1.303
49.0,-11.0,1.304
29.0,-2.0,1.305
10.0,10.0,1.306
-3.0,13.0,1.307
-12.0,9.0,1.308
-2.0,7.0,1.309
6.0,13.0,1.31
10.0,15.0,1.311
15.0,6.0,1.312
24.0,-2.0,1.313
30.0,-2.0,1.314
22.0,1.0,1.315
15.0,0.0,1.316
19.0,-4.0,1.317
20.0,-5.0,1.318
3.0,-1.0,1.319
-25.0,1.0,1.32
-41.0,0.0,1.321
-34.0,-2.0,1.322
-12.0,1.0,1.323
3.0,6.0,1.324
-2.0,11.0,1.325
-19.0,14.0,1.326
-27.0,7.0,1.327
-19.0,2.0,1.328
-6.0,2.0,1.329
2.0,3.0,1.33
7.0,3.0,1.331
13.0,1.0,1.332
16.0,0.0,1.333
14.0,-3.0,1.334
3.0,-4.0,1.335
-5.0,-5.0,1.336
-7.0,-4.0,1.337
2.0,-6.0,1.338
25.0,-2.0,1.339
48.0,0.0,1.34
53.0,-1.0,1.341
27.0,-3.0,1.342
-9.0,2.0,1.343
-29.0,7.0,1.344
-30.0,12.0,1.345
-21.0,15.0,1.346
-12.0,8.0,1.347
-2.0,3.0,1.348
8.0,3.0,1.349
11.0,4.0,1.35
2.0,4.0,1.351
-6.0,2.0,1.352
-9.0,-1.0,1.353
-8.0,-4.0,1.354
-5.0,-5.0,1.355
-3.0,-6.0,1.356
-2.0,-5.0,1.357
-7.0,-4.0,1.358
-10.0,-6.0,1.359
-4.0,-8.0,1.36
4.0,-11.0,1.361
1.0,-8.0,1.362
-5.0,-4.0,1.363
1.0,2.0,1.364
16.0,7.0,1.365
17.0,8.0,1.366
3.0,3.0,1.367
-8.0,-1.0,1.368
-10.0,0.0,1.369
-12.0,5.0,1.37
-17.0,6.0,1.371
-13.0,2.0,1.372
-2.0,0.0,1.373
9.0,2.0,1.374
16.0,1.0,1.375
22.0,-4.0,1.376
30.0,-7.0,1.377
31.0,-7.0,1.378
29.0,-1.0,1.379
28.0,-1.0,1.38
26.0,-12.0,1.381
20.0,-18.0,1.382
12.0,-13.0,1.383
2.0,-5.0,1.384
-5.0,-1.0,1.385
-9.0,2.0,1.386
-4.0,9.0,1.387
7.0,13.0,1.388
13.0,11.0,1.389
12.0,5.0,1.39
11.0,2.0,1.391
8.0,0.0,1.392
2.0,-6.0,1.393
-4.0,-12.0,1.394
-4.0,-11.0,1.395
6.0,-5.0,1.396
18.0,-1.0,1.397
26.0,-3.0,1.398
26.0,-8.0,1.399
13.0,-7.0,1.4
-8.0,-5.0,1.401
-22.0,-1.0,1.402
-18.0,0.0,1.403
-6.0,2.0,1.404
0.0,10.0,1.405
5.0,15.0,1.406
16.0,10.0,1.407
31.0,-4.0,1.408
34.0,-13.0,1.409
18.0,-7.0,1.41
-7.0,2.0,1.411
-30.0,1.0,1.412
-46.0,-5.0,1.413
-58.0,-6.0,1.414
-61.0,-3.0,1.415
-52.0,-2.0,1.416
-31.0,-2.0,1.417
-12.0,4.0,1.418
-6.0,12.0,1.419
-22.0,10.0,1.42
-42.0,-1.0,1.421
-45.0,-5.0,1.422
-29.0,-1.0,1.423
-9.0,0.0,1.424
-1.0,-3.0,1.425
0.0,-4.0,1.426
3.0,-2.0,1.427
13.0,-3.0,1.428
22.0,-2.0,1.429
28.0,-1.0,1.43
33.0,-1.0,1.431
37.0,-2.0,1.432
43.0,-2.0,1.433
49.0,2.0,1.434
50.0,5.0,1.435
46.0,3.0,1.436
41.0,1.0,1.437
36.0,1.0,1.438
28.0,2.0,1.439
11.0,0.0,1.44
-4.0,-3.0,1.441
-5.0,-3.0,1.442
9.0,-2.0,1.443
23.0,0.0,1.444
23.0,4.0,1.445
17.0,8.0,1.446
10.0,8.0,1.447
9.0,2.0,1.448
15.0,-3.0,1.449
22.0,-2.0,1.45
27.0,2.0,1.451
22.0,7.0,1.452
10.0,6.0,1.453
-4.0,4.0,1.454
-12.0,2.0,1.455
-16.0,0.0,1.456
-10.0,-1.0,1.457
-5.0,-8.0,1.458
-6.0,-12.0,1.459
-21.0,-11.0,1.46
-36.0,-8.0,1.461
-38.0,-7.0,1.462
-24.0,-11.0,1.463
-6.0,-12.0,1.464
0.0,-5.0,1.465
-8.0,0.0,1.466
-17.0,-2.0,1.467
-13.0,-8.0,1.468
3.0,-13.0,1.469
16.0,-12.0,1.47
14.0,-10.0,1.471
9.0,-5.0,1.472
15.0,2.0,1.473
32.0,4.0,1.474
43.0,-1.0,1.475
39.0,-5.0,1.476
24.0,-1.0,1.477
-2.0,4.0,1.478
-36.0,4.0,1.479
-66.0,1.0,1.48
-79.0,0.0,1.481
-76.0,4.0,1.482
-70.0,6.0,1.483
-66.0,6.0,1.484
-56.0,9.0,1.485
-36.0,16.0,1.486
-7.0,21.0,1.487
20.0,15.0,1.488
37.0,7.0,1.489
44.0,0.0,1.49
48.0,-3.0,1.491
56.0,-7.0,1.492
62.0,-9.0,1.493
59.0,-4.0,1.494
42.0,3.0,1.495
23.0,7.0,1.496
16.0,5.0,1.497
17.0,2.0,1.498
24.0,1.0,1.499
23.0,0.0,1.5
14.0,-8.0,1.501
-1.0,-15.0,1.502
-9.0,-19.0,1.503
-6.0,-14.0,1.504
-3.0,-4.0,1.505
-5.0,2.0,1.506
-11.0,2.0,1.507
-10.0,-1.0,1.508
-5.0,0.0,1.509
-2.0,6.0,1.51
-2.0,6.0,1.511
3.0,1.0,1.512
13.0,-3.0,1.513
21.0,-3.0,1.514
24.0,-3.0,1.515
31.0,-3.0,1.516
45.0,6.0,1.517
60.0,12.0,1.518
62.0,7.0,1.519
45.0,-7.0,1.52
17.0,-15.0,1.521
-9.0,-6.0,1.522
-28.0,2.0,1.523
-40.0,1.0,1.524
-47.0,1.0,1.525
-44.0,9.0,1.526
-33.0,13.0,1.527
-25.0,9.0,1.528
-33.0,2.0,1.529
-50.0,-1.0,1.53
-54.0,-7.0,1.531
-37.0,-21.0,1.532
-18.0,-28.0,1.533
-7.0,-19.0,1.534
1.0,-2.0,1.535
16.0,2.0,1.536
33.0,-9.0,1.537
44.0,-24.0,1.538
54.0,-28.0,1.539
68.0,-18.0,1.54
76.0,-7.0,1.541
62.0,3.0,1.542
32.0,13.0,1.543
0.0,21.0,1.544
-25.0,20.0,1.545
-46.0,5.0,1.546
-54.0,-8.0,1.547
-52.0,-9.0,1.548
-46.0,1.0,1.549
-46.0,11.0,1.55
-47.0,12.0,1.551
-42.0,10.0,1.552
-30.0,9.0,1.553
-17.0,6.0,1.554
-7.0,2.0,1.555
-3.0,4.0,1.556
1.0,11.0,1.557
12.0,12.0,1.558
27.0,7.0,1.559
38.0,5.0,1.56
43.0,4.0,1.561
46.0,6.0,1.562
51.0,4.0,1.563
53.0,2.0,1.564
49.0,3.0,1.565
42.0,1.0,1.566
45.0,-6.0,1.567
52.0,-13.0,1.568
51.0,-16.0,1.569
27.0,-8.0,1.57
-7.0,-1.0,1.571
-30.0,-5.0,1.572
-35.0,-16.0,1.573
-35.0,-23.0,1.574
-39.0,-18.0,1.575
-41.0,-6.0,1.576
-28.0,4.0,1.577
-11.0,6.0,1.578
2.0,5.0,1.579
9.0,8.0,1.58
17.0,8.0,1.581
25.0,6.0,1.582
31.0,4.0,1.583
36.0,2.0,1.584
52.0,3.0,1.585
66.0,8.0,1.586
58.0,11.0,1.587
25.0,8.0,1.588
-11.0,-2.0,1.589
-32.0,-12.0,1.59
-38.0,-15.0,1.591
-41.0,-7.0,1.592
-46.0,2.0,1.593
-49.0,10.0,1.594
-52.0,7.0,1.595
-57.0,0.0,1.596
-56.0,-3.0,1.597
-39.0,-2.0,1.598
-11.0,3.0,1.599
14.0,6.0,1.6
30.0,2.0,1.601
38.0,0.0,1.602
40.0,-5.0,1.603
35.0,-9.0,1.604
23.0,-6.0,1.605
4.0,4.0,1.606
-13.0,11.0,1.607
-27.0,8.0,1.608
-37.0,-3.0,1.609
-43.0,-10.0,1.61
-42.0,-16.0,1.611
-36.0,-18.0,1.612
-22.0,-13.0,1.613
-7.0,-5.0,1.614
6.0,2.0,1.615
16.0,3.0,1.616
25.0,1.0,1.617
31.0,1.0,1.618
34.0,1.0,1.619
36.0,-1.0,1.62
44.0,-8.0,1.621
51.0,-11.0,1.622
47.0,-7.0,1.623
31.0,4.0,1.624
15.0,14.0,1.625
7.0,17.0,1.626
11.0,9.0,1.627
17.0,0.0,1.628
18.0,-2.0,1.629
18.0,1.0,1.63
19.0,-1.0,1.631
18.0,-9.0,1.632
12.0,-12.0,1.633
0.0,-11.0,1.634
-9.0,-9.0,1.635
-15.0,-10.0,1.636
-17.0,-8.0,1.637
-15.0,-3.0,1.638
-4.0,-3.0,1.639
7.0,-8.0,1.64
9.0,-14.0,1.641
5.0,-7.0,1.642
4.0,2.0,1.643
4.0,7.0,1.644
-6.0,6.0,1.645
-24.0,6.0,1.646
-34.0,8.0,1.647
-31.0,10.0,1.648
-27.0,8.0,1.649
-26.0,4.0,1.65
-20.0,-2.0,1.651
-3.0,-6.0,1.652
9.0,-5.0,1.653
10.0,0.0,1.654
11.0,0.0,1.655
23.0,-3.0,1.656
36.0,-6.0,1.657
32.0,-5.0,1.658
14.0,0.0,1.659
-2.0,4.0,1.66
-4.0,3.0,1.661
2.0,3.0,1.662
15.0,5.0,1.663
41.0,8.0,1.664
73.0,8.0,1.665
88.0,8.0,1.666
65.0,9.0,1.667
18.0,10.0,1.668
-17.0,7.0,1.669
-31.0,1.0,1.67
-40.0,-6.0,1.671
-57.0,-10.0,1.672
-76.0,-7.0,1.673
-84.0,2.0,1.674
-79.0,7.0,1.675
-63.0,0.0,1.676
-39.0,-5.0,1.677
-18.0,-5.0,1.678
-4.0,-3.0,1.679
-1.0,-10.0,1.68
-1.0,-23.0,1.681
4.0,-24.0,1.682
19.0,-12.0,1.683
41.0,-3.0,1.684
60.0,2.0,1.685
59.0,6.0,1.686
43.0,8.0,1.687
31.0,2.0,1.688
30.0,-2.0,1.689
31.0,0.0,1.69
22.0,7.0,1.691
4.0,5.0,1.692
-13.0,0.0,1.693
-21.0,-1.0,1.694
-19.0,-1.0,1.695
-14.0,-2.0,1.696
-8.0,-2.0,1.697
-7.0,-1.0,1.698
-4.0,-1.0,1.699
0.0,-3.0,1.7
7.0,-5.0,1.701
18.0,-2.0,1.702
33.0,1.0,1.703
44.0,3.0,1.704
41.0,6.0,1.705
32.0,9.0,1.706
26.0,8.0,1.707
23.0,6.0,1.708
17.0,6.0,1.709
9.0,6.0,1.71
1.0,-1.0,1.711
-10.0,-9.0,1.712
-27.0,-10.0,1.713
-42.0,-8.0,1.714
-44.0,-10.0,1.715
-37.0,-13.0,1.716
-29.0,-9.0,1.717
-19.0,-4.0,1.718
-5.0,-2.0,1.719
-2.0,-4.0,1.72
-9.0,-3.0,1.721
-9.0,3.0,1.722
9.0,5.0,1.723
44.0,2.0,1.724
69.0,3.0,1.725
71.0,7.0,1.726
47.0,7.0,1.727
9.0,5.0,1.728
-17.0,10.0,1.729
-15.0,16.0,1.73
10.0,11.0,1.731
39.0,-4.0,1.732
56.0,-11.0,1.733
52.0,-8.0,1.734
23.0,-5.0,1.735
-31.0,-5.0,1.736
-76.0,-3.0,1.737
-92.0,-2.0,1.738
-83.0,-4.0,1.739
-77.0,-11.0,1.74
-79.0,-17.0,1.741
-73.0,-11.0,1.742
-48.0,-2.0,1.743
-18.0,4.0,1.744
0.0,10.0,1.745
7.0,14.0,1.746
14.0,14.0,1.747
29.0,8.0,1.748
49.0,3.0,1.749
65.0,2.0,1.75
61.0,5.0,1.751
41.0,3.0,1.752
26.0,-2.0,1.753
24.0,-9.0,1.754
23.0,-15.0,1.755
16.0,-14.0,1.756
7.0,-10.0,1.757
2.0,-6.0,1.758
3.0,-6.0,1.759
3.0,-8.0,1.76
5.0,-8.0,1.761
14.0,-3.0,1.762
26.0,4.0,1.763
30.0,9.0,1.764
23.0,8.0,1.765
9.0,6.0,1.766
-3.0,4.0,1.767
-6.0,2.0,1.768
-2.0,0.0,1.769
3.0,-2.0,1.77
6.0,-3.0,1.771
6.0,2.0,1.772
7.0,8.0,1.773
5.0,5.0,1.774
-4.0,-1.0,1.775
-17.0,-7.0,1.776
-21.0,-2.0,1.777
-18.0,5.0,1.778
-12.0,7.0,1.779
-12.0,2.0,1.78
-9.0,-8.0,1.781
0.0,-12.0,1.782
13.0,-12.0,1.783
19.0,-10.0,1.784
20.0,-6.0,1.785
20.0,-3.0,1.786
22.0,-3.0,1.787
25.0,0.0,1.788
29.0,5.0,1.789
30.0,7.0,1.79
31.0,3.0,1.791
27.0,0.0,1.792
17.0,4.0,1.793
-1.0,11.0,1.794
-26.0,8.0,1.795
-49.0,1.0,1.796
-59.0,2.0,1.797
-55.0,6.0,1.798
-44.0,3.0,1.799
-40.0,-10.0,1.8
-49.0,-23.0,1.801
-54.0,-22.0,1.802
-40.0,-15.0,1.803
-9.0,-11.0,1.804
11.0,-5.0,1.805
6.0,6.0,1.806
-6.0,11.0,1.807
-8.0,2.0,1.808
0.0,-7.0,1.809
4.0,-6.0,1.81
2.0,2.0,1.811
6.0,2.0,1.812
13.0,-2.0,1.813
18.0,0.0,1.814
20.0,9.0,1.815
23.0,11.0,1.816
30.0,5.0,1.817
38.0,-2.0,1.818
43.0,-7.0,1.819
43.0,-8.0,1.82
37.0,-12.0,1.821
29.0,-11.0,1.822
23.0,-2.0,1.823
21.0,11.0,1.824
17.0,21.0,1.825
12.0,21.0,1.826
11.0,12.0,1.827
15.0,-2.0,1.828
10.0,-11.0,1.829
-1.0,-13.0,1.83
-8.0,-9.0,1.831
-4.0,-7.0,1.832
2.0,-6.0,1.833
0.0,0.0,1.834
-1.0,5.0,1.835
3.0,3.0,1.836
9.0,-3.0,1.837
0.0,-5.0,1.838
-12.0,-2.0,1.839
-20.0,1.0,1.84
-17.0,0.0,1.841
-11.0,0.0,1.842
0.0,0.0,1.843
9.0,-2.0,1.844
15.0,-1.0,1.845
19.0,1.0,1.846
17.0,4.0,1.847
15.0,4.0,1.848
12.0,2.0,1.849
6.0,0.0,1.85
-7.0,0.0,1.851
-19.0,-1.0,1.852
-21.0,-2.0,1.853
-23.0,-6.0,1.854
-21.0,-10.0,1.855
-17.0,-9.0,1.856
-5.0,-2.0,1.857
8.0,6.0,1.858
12.0,7.0,1.859
12.0,0.0,1.86
14.0,-9.0,1.861
15.0,-9.0,1.862
17.0,-2.0,1.863
19.0,1.0,1.864
19.0,-3.0,1.865
10.0,-6.0,1.866
0.0,0.0,1.867
-3.0,8.0,1.868
-3.0,9.0,1.869
-6.0,5.0,1.87
-11.0,0.0,1.871
-10.0,-3.0,1.872
-11.0,-1.0,1.873
-15.0,4.0,1.874
-13.0,9.0,1.875
0.0,7.0,1.876
13.0,2.0,1.877
13.0,-2.0,1.878
2.0,-3.0,1.879
-5.0,-5.0,1.88
-3.0,-9.0,1.881
0.0,-11.0,1.882
-2.0,-5.0,1.883
-6.0,-1.0,1.884
-12.0,-1.0,1.885
-18.0,0.0,1.886
-22.0,5.0,1.887
-19.0,8.0,1.888
-5.0,5.0,1.889
15.0,1.0,1.89
32.0,-7.0,1.891
40.0,-12.0,1.892
40.0,-10.0,1.893
38.0,-6.0,1.894
28.0,0.0,1.895
10.0,4.0,1.896
-4.0,0.0,1.897
-9.0,-3.0,1.898
-11.0,5.0,1.899
-24.0,9.0,1.9
-40.0,0.0,1.901
-39.0,-5.0,1.902
-20.0,-3.0,1.903
-2.0,-1.0,1.904
7.0,-1.0,1.905
14.0,-1.0,1.906
24.0,2.0,1.907
31.0,1.0,1.908
30.0,-2.0,1.909
23.0,-4.0,1.91
13.0,-5.0,1.911
1.0,-6.0,1.912
-7.0,-3.0,1.913
-8.0,4.0,1.914
-3.0,10.0,1.915
-3.0,6.0,1.916
-4.0,0.0,1.917
-3.0,-2.0,1.918
7.0,-1.0,1.919
16.0,-2.0,1.92
17.0,-5.0,1.921
16.0,2.0,1.922
17.0,10.0,1.923
17.0,6.0,1.924
11.0,-3.0,1.925
1.0,-5.0,1.926
2.0,-4.0,1.927
19.0,-6.0,1.928
38.0,-7.0,1.929
37.0,-1.0,1.93
16.0,6.0,1.931
-9.0,2.0,1.932
-23.0,-5.0,1.933
-34.0,-7.0,1.934
-45.0,-2.0,1.935
-49.0,2.0,1.936
-41.0,5.0,1.937
-30.0,8.0,1.938
-25.0,12.0,1.939
-24.0,7.0,1.94
-15.0,-7.0,1.941
3.0,-15.0,1.942
24.0,-16.0,1.943
34.0,-12.0,1.944
34.0,-8.0,1.945
27.0,-5.0,1.946
20.0,-3.0,1.947
14.0,-2.0,1.948
6.0,-1.0,1.949
-3.0,-2.0,1.95
-5.0,-3.0,1.951
-1.0,-7.0,1.952
6.0,-4.0,1.953
15.0,5.0,1.954
22.0,13.0,1.955
27.0,10.0,1.956
27.0,0.0,1.957
22.0,-5.0,1.958
12.0,0.0,1.959
-4.0,2.0,1.96
-16.0,-3.0,1.961
-17.0,-6.0,1.962
-3.0,2.0,1.963
16.0,12.0,1.964
25.0,14.0,1.965
24.0,9.0,1.966
15.0,5.0,1.967
0.0,5.0,1.968
-12.0,4.0,1.969
-17.0,0.0,1.97
-12.0,-6.0,1.971
-8.0,-10.0,1.972
-9.0,-11.0,1.973
-10.0,-6.0,1.974
-8.0,1.0,1.975
-4.0,2.0,1.976
2.0,-1.0,1.977
10.0,-6.0,1.978
17.0,-5.0,1.979
12.0,-2.0,1.98
-1.0,-8.0,1.981
-6.0,-11.0,1.982
2.0,-9.0,1.983
10.0,-3.0,1.984
5.0,1.0,1.985
-2.0,2.0,1.986
-1.0,4.0,1.987
2.0,5.0,1.988
0.0,7.0,1.989
-6.0,7.0,1.99
-12.0,3.0,1.991
-13.0,0.0,1.992
-9.0,1.0,1.993
-3.0,3.0,1.994
2.0,1.0,1.995
4.0,-4.0,1.996
6.0,-3.0,1.997
12.0,1.0,1.998
28.0,6.0,1.999
36.0,3.0,2.0
30.0,-5.0,2.001
13.0,-7.0,2.002
1.0,-3.0,2.003
0.0,2.0,2.004
0.0,4.0,2.005
1.0,2.0,2.006
9.0,-3.0,2.007
21.0,-3.0,2.008
26.0,1.0,2.009
14.0,5.0,2.01
-6.0,-1.0,2.011
-20.0,-13.0,2.012
-23.0,-16.0,2.013
-19.0,-11.0,2.014
-13.0,-5.0,2.015
-5.0,0.0,2.016
3.0,6.0,2.017
15.0,10.0,2.018
8.0,6.0,2.019
-18.0,-1.0,2.02
-42.0,-6.0,2.021
-38.0,-2.0,2.022
-17.0,0.0,2.023
-8.0,-4.0,2.024
-23.0,-5.0,2.025
-37.0,2.0,2.026
-23.0,8.0,2.027
6.0,4.0,2.028
32.0,-4.0,2.029
50.0,-6.0,2.03
63.0,-3.0,2.031
69.0,-1.0,2.032
59.0,3.0,2.033
39.0,4.0,2.034
17.0,-1.0,2.035
-3.0,-9.0,2.036
-20.0,-10.0,2.037
-35.0,-3.0,2.038
-38.0,5.0,2.039
-31.0,6.0,2.04
-20.0,-1.0,2.041
-11.0,-3.0,2.042
-1.0,-4.0,2.043
8.0,-6.0,2.044
14.0,-8.0,2.045
17.0,-7.0,2.046
23.0,0.0,2.047
28.0,7.0,2.048
16.0,10.0,2.049
-10.0,4.0,2.05
-26.0,-5.0,2.051
-19.0,-5.0,2.052
-4.0,6.0,2.053
-4.0,16.0,2.054
-8.0,13.0,2.055
-1.0,1.0,2.056
18.0,-4.0,2.057
31.0,-6.0,2.058
31.0,-8.0,2.059
25.0,-11.0,2.06
26.0,-12.0,2.061
29.0,-6.0,2.062
31.0,-3.0,2.063
27.0,-1.0,2.064
15.0,1.0,2.065
7.0,3.0,2.066
10.0,-3.0,2.067
24.0,-9.0,2.068
32.0,-8.0,2.069
20.0,-1.0,2.07
-5.0,5.0,2.071
-29.0,5.0,2.072
-43.0,2.0,2.073
-43.0,1.0,2.074
-34.0,1.0,2.075
-22.0,5.0,2.076
-15.0,9.0,2.077
-13.0,5.0,2.078
-14.0,-3.0,2.079
-10.0,-6.0,2.08
-1.0,-4.0,2.081
6.0,-3.0,2.082
9.0,-4.0,2.083
6.0,-2.0,2.084
-1.0,4.0,2.085
-9.0,10.0,2.086
-11.0,8.0,2.087
6.0,3.0,2.088
37.0,0.0,2.089
55.0,-1.0,2.09
35.0,0.0,2.091
-7.0,4.0,2.092
-29.0,5.0,2.093
-19.0,-3.0,2.094
-2.0,-16.0,2.095
-4.0,-22.0,2.096
-17.0,-13.0,2.097
-21.0,-1.0,2.098
-12.0,5.0,2.099
-3.0,5.0,2.1
-1.0,1.0,2.101
2.0,0.0,2.102
9.0,3.0,2.103
9.0,5.0,2.104
1.0,4.0,2.105
-3.0,2.0,2.106
3.0,3.0,2.107
13.0,6.0,2.108
17.0,9.0,2.109
6.0,4.0,2.11
-11.0,-1.0,2.111
-19.0,-2.0,2.112
-12.0,-2.0,2.113
-3.0,-4.0,2.114
-4.0,-5.0,2.115
-6.0,-4.0,2.116
4.0,0.0,2.117
26.0,0.0,2.118
42.0,-4.0,2.119
43.0,-8.0,2.12
30.0,-12.0,2.121
12.0,-9.0,2.122
-1.0,-3.0,2.123
-3.0,0.0,2.124
5.0,-1.0,2.125
9.0,-4.0,2.126
4.0,-4.0,2.127
2.0,-2.0,2.128
4.0,0.0,2.129
7.0,-1.0,2.13
10.0,-3.0,2.131
12.0,-3.0,2.132
7.0,0.0,2.133
-7.0,3.0,2.134
-19.0,6.0,2.135
-18.0,7.0,2.136
-11.0,5.0,2.137
-10.0,-1.0,2.138
-16.0,-4.0,2.139
-23.0,-2.0,2.14
-24.0,-3.0,2.141
-14.0,-5.0,2.142
6.0,-8.0,2.143
25.0,-9.0,2.144
26.0,-6.0,2.145
13.0,0.0,2.146
2.0,3.0,2.147
3.0,0.0,2.148
9.0,-4.0,2.149
12.0,-4.0,2.15
17.0,-2.0,2.151
21.0,-2.0,2.152
16.0,-5.0,2.153
6.0,-4.0,2.154
7.0,2.0,2.155
17.0,11.0,2.156
25.0,15.0,2.157
28.0,12.0,2.158
32.0,9.0,2.159
28.0,8.0,2.16
18.0,3.0,2.161
13.0,0.0,2.162
26.0,0.0,2.163
43.0,4.0,2.164
34.0,5.0,2.165
-1.0,0.0,2.166
-38.0,-7.0,2.167
-58.0,-12.0,2.168
-64.0,-14.0,2.169
-61.0,-14.0,2.17
-49.0,-10.0,2.171
-34.0,-3.0,2.172
-31.0,5.0,2.173
-37.0,9.0,2.174
-32.0,5.0,2.175
-9.0,0.0,2.176
16.0,-6.0,2.177
27.0,-12.0,2.178
19.0,-13.0,2.179
-2.0,-11.0,2.18
-23.0,-9.0,2.181
-30.0,-4.0,2.182
-20.0,5.0,2.183
-3.0,12.0,2.184
5.0,10.0,2.185
6.0,3.0,2.186
14.0,0.0,2.187
29.0,3.0,2.188
47.0,8.0,2.189
57.0,8.0,2.19
57.0,7.0,2.191
47.0,7.0,2.192
32.0,6.0,2.193
21.0,3.0,2.194
8.0,0.0,2.195
-5.0,-2.0,2.196
-12.0,-2.0,2.197
-10.0,-4.0,2.198
-3.0,-5.0,2.199
-4.0,-2.0,2.2
-13.0,-1.0,2.201
-14.0,0.0,2.202
-4.0,0.0,2.203
9.0,0.0,2.204
14.0,1.0,2.205
9.0,0.0,2.206
4.0,-3.0,2.207
-1.0,-6.0,2.208
-11.0,-5.0,2.209
-19.0,-2.0,2.21
-15.0,-1.0,2.211
-3.0,-3.0,2.212
0.0,-3.0,2.213
-7.0,0.0,2.214
-6.0,0.0,2.215
9.0,-7.0,2.216
23.0,-7.0,2.217
19.0,1.0,2.218
7.0,14.0,2.219
5.0,14.0,2.22
18.0,3.0,2.221
32.0,-1.0,2.222
42.0,1.0,2.223
49.0,-2.0,2.224
42.0,-13.0,2.225
23.0,-21.0,2.226
2.0,-23.0,2.227
-6.0,-21.0,2.228
-9.0,-19.0,2.229
-14.0,-8.0,2.23
-20.0,3.0,2.231
-21.0,6.0,2.232
-22.0,1.0,2.233
-22.0,2.0,2.234
-7.0,9.0,2.235
18.0,11.0,2.236
26.0,9.0,2.237
-1.0,4.0,2.238
-36.0,2.0,2.239
-52.0,0.0,2.24
-46.0,-8.0,2.241
-36.0,-9.0,2.242
-22.0,-1.0,2.243
0.0,5.0,2.244
18.0,5.0,2.245
22.0,3.0,2.246
20.0,3.0,2.247
29.0,3.0,2.248
46.0,0.0,2.249
58.0,-2.0,2.25
59.0,-2.0,2.251
46.0,-1.0,2.252
10.0,0.0,2.253
-38.0,0.0,2.254
-68.0,2.0,2.255
-65.0,5.0,2.256
-53.0,10.0,2.257
-55.0,9.0,2.258
-60.0,2.0,2.259
-47.0,-5.0,2.26
-21.0,-8.0,2.261
-1.0,-4.0,2.262
15.0,1.0,2.263
35.0,3.0,2.264
61.0,1.0,2.265
74.0,-1.0,2.266
66.0,-2.0,2.267
48.0,-2.0,2.268
28.0,2.0,2.269
13.0,7.0,2.27
6.0,6.0,2.271
10.0,3.0,2.272
14.0,0.0,2.273
7.0,1.0,2.274
-6.0,4.0,2.275
-19.0,5.0,2.276
-25.0,0.0,2.277
-28.0,-9.0,2.278
-30.0,-10.0,2.279
-29.0,-4.0,2.28
-22.0,-1.0,2.281
-13.0,-5.0,2.282
-4.0,-11.0,2.283
6.0,-12.0,2.284
18.0,-6.0,2.285
31.0,-4.0,2.286
38.0,-8.0,2.287
39.0,-13.0,2.288
35.0,-11.0,2.289
28.0,-4.0,2.29
20.0,0.0,2.291
16.0,0.0,2.292
16.0,0.0,2.293
14.0,3.0,2.294
8.0,8.0,2.295
9.0,8.0,2.296
19.0,4.0,2.297
28.0,-4.0,2.298
28.0,-8.0,2.299
13.0,-9.0,2.3
-8.0,-11.0,2.301
-22.0,-6.0,2.302
-22.0,0.0,2.303
-13.0,4.0,2.304
-1.0,4.0,2.305
9.0,4.0,2.306
8.0,4.0,2.307
-2.0,0.0,2.308
-14.0,-9.0,2.309
-14.0,-12.0,2.31
-2.0,-5.0,2.311
5.0,7.0,2.312
-4.0,8.0,2.313
-20.0,-2.0,2.314
-25.0,-8.0,2.315
-20.0,-1.0,2.316
-15.0,11.0,2.317
-15.0,10.0,2.318
-9.0,1.0,2.319
3.0,-7.0,2.32
18.0,-9.0,2.321
25.0,-11.0,2.322
25.0,-9.0,2.323
21.0,-2.0,2.324
13.0,11.0,2.325
0.0,16.0,2.326
-15.0,9.0,2.327
-25.0,1.0,2.328
-28.0,1.0,2.329
-24.0,3.0,2.33
-14.0,2.0,2.331
3.0,0.0,2.332
19.0,0.0,2.333
18.0,2.0,2.334
-1.0,3.0,2.335
-22.0,4.0,2.336
-26.0,6.0,2.337
-21.0,3.0,2.338
-17.0,0.0,2.339
-16.0,-1.0,2.34
-4.0,-1.0,2.341
16.0,0.0,2.342
34.0,1.0,2.343
42.0,3.0,2.344
41.0,5.0,2.345
35.0,5.0,2.346
25.0,4.0,2.347
17.0,3.0,2.348
14.0,3.0,2.349
10.0,3.0,2.35
5.0,0.0,2.351
5.0,-6.0,2.352
7.0,-14.0,2.353
2.0,-18.0,2.354
-4.0,-14.0,2.355
-3.0,-5.0,2.356
4.0,0.0,2.357
3.0,-5.0,2.358
-1.0,-10.0,2.359
-2.0,-9.0,2.36
5.0,-7.0,2.361
12.0,-4.0,2.362
16.0,-4.0,2.363
19.0,-2.0,2.364
20.0,1.0,2.365
15.0,1.0,2.366
5.0,-3.0,2.367
0.0,-8.0,2.368
-5.0,-9.0,2.369
-13.0,-6.0,2.37
-19.0,-1.0,2.371
-19.0,2.0,2.372
-16.0,4.0,2.373
-11.0,4.0,2.374
0.0,4.0,2.375
17.0,8.0,2.376
33.0,12.0,2.377
36.0,9.0,2.378
24.0,2.0,2.379
4.0,-3.0,2.38
-11.0,-7.0,2.381
-10.0,-6.0,2.382
10.0,-6.0,2.383
35.0,-9.0,2.384
36.0,-9.0,2.385
7.0,-5.0,2.386
-30.0,1.0,2.387
-51.0,4.0,2.388
-50.0,5.0,2.389
-40.0,5.0,2.39
-30.0,5.0,2.391
-21.0,3.0,2.392
-15.0,-3.0,2.393
-15.0,-8.0,2.394
-17.0,-6.0,2.395
-12.0,-1.0,2.396
0.0,0.0,2.397
16.0,-4.0,2.398
27.0,-6.0,2.399
29.0,-4.0,2.4
31.0,-2.0,2.401
28.0,0.0,2.402
14.0,1.0,2.403
-5.0,4.0,2.404
-15.0,7.0,2.405
-8.0,6.0,2.406
3.0,3.0,2.407
7.0,2.0,2.408
7.0,4.0,2.409
10.0,7.0,2.41
11.0,6.0,2.411
6.0,-1.0,2.412
5.0,-6.0,2.413
15.0,-2.0,2.414
29.0,4.0,2.415
34.0,7.0,2.416
33.0,3.0,2.417
32.0,0.0,2.418
34.0,3.0,2.419
30.0,8.0,2.42
14.0,6.0,2.421
-9.0,3.0,2.422
-25.0,1.0,2.423
-33.0,4.0,2.424
-36.0,7.0,2.425
-36.0,8.0,2.426
-28.0,5.0,2.427
-21.0,0.0,2.428
-17.0,-2.0,2.429
-11.0,-4.0,2.43
4.0,-9.0,2.431
24.0,-11.0,2.432
32.0,-7.0,2.433
25.0,0.0,2.434
15.0,-2.0,2.435
6.0,-11.0,2.436
-1.0,-15.0,2.437
-12.0,-12.0,2.438
-12.0,-8.0,2.439
-6.0,-9.0,2.44
-6.0,-12.0,2.441
-10.0,-9.0,2.442
-8.0,-5.0,2.443
3.0,-5.0,2.444
11.0,-3.0,2.445
10.0,2.0,2.446
10.0,3.0,2.447
18.0,-5.0,2.448
22.0,-15.0,2.449
20.0,-14.0,2.45
16.0,-5.0,2.451
12.0,3.0,2.452
12.0,4.0,2.453
12.0,6.0,2.454
15.0,5.0,2.455
19.0,2.0,2.456
23.0,1.0,2.457
24.0,1.0,2.458
22.0,3.0,2.459
12.0,0.0,2.46
0.0,-6.0,2.461
-6.0,-1.0,2.462
-2.0,9.0,2.463
0.0,12.0,2.464
-9.0,5.0,2.465
-20.0,-3.0,2.466
-24.0,-7.0,2.467
-17.0,-7.0,2.468
-2.0,-8.0,2.469
18.0,-6.0,2.47
30.0,0.0,2.471
26.0,4.0,2.472
9.0,2.0,2.473
-7.0,-6.0,2.474
-13.0,-12.0,2.475
-16.0,-10.0,2.476
-22.0,-2.0,2.477
-35.0,6.0,2.478
-43.0,5.0,2.479
-42.0,-1.0,2.48
-31.0,-6.0,2.481
-20.0,-5.0,2.482
-14.0,-2.0,2.483
-12.0,3.0,2.484
-12.0,7.0,2.485
-9.0,10.0,2.486
-1.0,8.0,2.487
13.0,3.0,2.488
26.0,5.0,2.489
30.0,12.0,2.49
23.0,15.0,2.491
13.0,11.0,2.492
9.0,5.0,2.493
15.0,5.0,2.494
24.0,5.0,2.495
31.0,3.0,2.496
32.0,2.0,2.497
25.0,2.0,2.498
21.0,2.0,2.499
24.0,-1.0,2.5
33.0,-7.0,2.501
37.0,-7.0,2.502
37.0,-5.0,2.503
36.0,-3.0,2.504
28.0,0.0,2.505
6.0,2.0,2.506
-19.0,0.0,2.507
-32.0,-7.0,2.508
-32.0,-11.0,2.509
-28.0,-8.0,2.51
-27.0,2.0,2.511
-25.0,9.0,2.512
-25.0,9.0,2.513
-27.0,5.0,2.514
-33.0,-2.0,2.515
-27.0,-7.0,2.516
-7.0,-8.0,2.517
8.0,-11.0,2.518
4.0,-15.0,2.519
-11.0,-19.0,2.52
-16.0,-22.0,2.521
-4.0,-16.0,2.522
13.0,-8.0,2.523
21.0,-2.0,2.524
23.0,1.0,2.525
25.0,3.0,2.526
29.0,3.0,2.527
31.0,2.0,2.528
25.0,1.0,2.529
15.0,3.0,2.53
8.0,4.0,2.531
7.0,4.0,2.532
7.0,5.0,2.533
3.0,13.0,2.534
-1.0,19.0,2.535
2.0,15.0,2.536
16.0,5.0,2.537
25.0,-4.0,2.538
24.0,-6.0,2.539
15.0,-4.0,2.54
12.0,-9.0,2.541
19.0,-9.0,2.542
32.0,-2.0,2.543
39.0,5.0,2.544
34.0,6.0,2.545
10.0,3.0,2.546
-23.0,3.0,2.547
-45.0,4.0,2.548
-47.0,1.0,2.549
-46.0,-4.0,2.55
-52.0,-5.0,2.551
-54.0,-2.0,2.552
-46.0,-1.0,2.553
-32.0,-5.0,2.554
-25.0,-7.0,2.555
-18.0,-3.0,2.556
-2.0,4.0,2.557
9.0,5.0,2.558
10.0,2.0,2.559
11.0,0.0,2.56
10.0,-2.0,2.561
11.0,-3.0,2.562
20.0,-5.0,2.563
25.0,-6.0,2.564
19.0,-5.0,2.565
13.0,-3.0,2.566
7.0,-3.0,2.567
3.0,-1.0,2.568
10.0,2.0,2.569
17.0,1.0,2.57
21.0,-3.0,2.571
25.0,-2.0,2.572
33.0,5.0,2.573
41.0,12.0,2.574
50.0,9.0,2.575
59.0,0.0,2.576
63.0,-6.0,2.577
61.0,-12.0,2.578
27.0,-12.0,2.579
-14.0,-6.0,2.58
-40.0,1.0,2.581
-48.0,1.0,2.582
-48.0,-9.0,2.583
-47.0,-16.0,2.584
-43.0,-7.0,2.585
-36.0,10.0,2.586
-34.0,15.0,2.587
-37.0,8.0,2.588
-36.0,1.0,2.589
-24.0,1.0,2.59
-8.0,-1.0,2.591
3.0,-6.0,2.592
7.0,-7.0,2.593
9.0,0.0,2.594
23.0,7.0,2.595
41.0,5.0,2.596
47.0,-1.0,2.597
30.0,-6.0,2.598
6.0,-2.0,2.599
-6.0,1.0,2.6
-3.0,0.0,2.601
4.0,-2.0,2.602
15.0,-1.0,2.603
24.0,0.0,2.604
27.0,4.0,2.605
14.0,6.0,2.606
-8.0,3.0,2.607
-15.0,1.0,2.608
0.0,1.0,2.609
17.0,0.0,2.61
14.0,-1.0,2.611
-3.0,-2.0,2.612
-12.0,1.0,2.613
-8.0,4.0,2.614
0.0,4.0,2.615
2.0,2.0,2.616
-1.0,0.0,2.617
-7.0,0.0,2.618
-16.0,2.0,2.619
-26.0,1.0,2.62
-26.0,-5.0,2.621
-12.0,-8.0,2.622
1.0,-8.0,2.623
6.0,-10.0,2.624
5.0,-12.0,2.625
11.0,-13.0,2.626
13.0,-11.0,2.627
7.0,-11.0,2.628
-1.0,-9.0,2.629
0.0,-1.0,2.63
5.0,5.0,2.631
0.0,5.0,2.632
-8.0,1.0,2.633
-5.0,3.0,2.634
5.0,10.0,2.635
10.0,14.0,2.636
10.0,11.0,2.637
13.0,3.0,2.638
21.0,-2.0,2.639
27.0,-5.0,2.64
25.0,-2.0,2.641
25.0,1.0,2.642
31.0,7.0,2.643
37.0,11.0,2.644
43.0,7.0,2.645
48.0,3.0,2.646
48.0,-1.0,2.647
42.0,-4.0,2.648
21.0,0.0,2.649
-1.0,3.0,2.65
-27.0,1.0,2.651
-48.0,0.0,2.652
-54.0,2.0,2.653
-58.0,3.0,2.654
-48.0,-2.0,2.655
-40.0,-7.0,2.656
-37.0,-8.0,2.657
-30.0,-9.0,2.658
-17.0,-12.0,2.659
-14.0,-13.0,2.66
-21.0,-12.0,2.661
-24.0,-8.0,2.662
-15.0,-10.0,2.663
-2.0,-9.0,2.664
7.0,-1.0,2.665
14.0,10.0,2.666
25.0,7.0,2.667
41.0,-4.0,2.668
62.0,-8.0,2.669
89.0,0.0,2.67
107.0,7.0,2.671
93.0,1.0,2.672
38.0,-9.0,2.673
-26.0,-8.0,2.674
-63.0,-1.0,2.675
-67.0,3.0,2.676
-63.0,3.0,2.677
-61.0,4.0,2.678
-55.0,10.0,2.679
-41.0,13.0,2.68
-27.0,6.0,2.681
-19.0,1.0,2.682
-10.0,5.0,2.683
6.0,9.0,2.684
26.0,9.0,2.685
41.0,8.0,2.686
49.0,5.0,2.687
45.0,2.0,2.688
31.0,-2.0,2.689
11.0,-5.0,2.69
-3.0,-3.0,2.691
-11.0,-1.0,2.692
-13.0,-3.0,2.693
-5.0,-5.0,2.694
12.0,-3.0,2.695
22.0,-2.0,2.696
17.0,-6.0,2.697
0.0,-9.0,2.698
-10.0,-7.0,2.699
-9.0,-1.0,2.7
0.0,0.0,2.701
8.0,-1.0,2.702
17.0,1.0,2.703
23.0,3.0,2.704
22.0,2.0,2.705
15.0,-6.0,2.706
12.0,-13.0,2.707
16.0,-13.0,2.708
17.0,-7.0,2.709
8.0,0.0,2.71
1.0,7.0,2.711
10.0,10.0,2.712
25.0,7.0,2.713
21.0,-1.0,2.714
-3.0,-8.0,2.715
-24.0,-6.0,2.716
-26.0,3.0,2.717
-23.0,12.0,2.718
-28.0,12.0,2.719
-36.0,3.0,2.72
-26.0,-6.0,2.721
0.0,-7.0,2.722
18.0,-4.0,2.723
16.0,-2.0,2.724
-2.0,-4.0,2.725
-15.0,-6.0,2.726
-13.0,-4.0,2.727
0.0,-4.0,2.728
15.0,-5.0,2.729
22.0,-7.0,2.73
28.0,-6.0,2.731
31.0,1.0,2.732
26.0,7.0,2.733
19.0,8.0,2.734
16.0,5.0,2.735
17.0,-1.0,2.736
15.0,-5.0,2.737
2.0,-9.0,2.738
-8.0,-8.0,2.739
-10.0,-5.0,2.74
-6.0,-4.0,2.741
0.0,0.0,2.742
14.0,5.0,2.743
21.0,8.0,2.744
2.0,10.0,2.745
-35.0,10.0,2.746
-61.0,8.0,2.747
-54.0,2.0,2.748
-39.0,0.0,2.749
-35.0,2.0,2.75
-32.0,6.0,2.751
-16.0,5.0,2.752
-1.0,2.0,2.753
3.0,5.0,2.754
5.0,10.0,2.755
15.0,6.0,2.756
22.0,-5.0,2.757
20.0,-13.0,2.758
17.0,-10.0,2.759
20.0,-8.0,2.76
25.0,-12.0,2.761
23.0,-15.0,2.762
22.0,-11.0,2.763
27.0,-7.0,2.764
30.0,-3.0,2.765
23.0,1.0,2.766
16.0,6.0,2.767
15.0,7.0,2.768
27.0,7.0,2.769
44.0,9.0,2.77
55.0,9.0,2.771
49.0,4.0,2.772
27.0,-4.0,2.773
2.0,-5.0,2.774
-13.0,-2.0,2.775
-21.0,0.0,2.776
-24.0,1.0,2.777
-22.0,2.0,2.778
-12.0,5.0,2.779
-9.0,0.0,2.78
-16.0,-11.0,2.781
-25.0,-14.0,2.782
-21.0,-9.0,2.783
-9.0,-5.0,2.784
-8.0,-4.0,2.785
-22.0,-2.0,2.786
-31.0,4.0,2.787
-24.0,7.0,2.788
-9.0,1.0,2.789
-2.0,-5.0,2.79
-6.0,-2.0,2.791
-5.0,3.0,2.792
10.0,5.0,2.793
33.0,1.0,2.794
50.0,-2.0,2.795
53.0,-6.0,2.796
49.0,-10.0,2.797
40.0,-12.0,2.798
24.0,-7.0,2.799
0.0,-1.0,2.8
-20.0,-4.0,2.801
-28.0,-7.0,2.802
-25.0,-1.0,2.803
-20.0,8.0,2.804
-23.0,11.0,2.805
-28.0,7.0,2.806
-27.0,1.0,2.807
-19.0,0.0,2.808
-7.0,3.0,2.809
-2.0,7.0,2.81
-3.0,9.0,2.811
-5.0,5.0,2.812
-5.0,-1.0,2.813
-1.0,-5.0,2.814
5.0,-6.0,2.815
15.0,-7.0,2.816
26.0,-8.0,2.817
40.0,-14.0,2.818
52.0,-14.0,2.819
52.0,-9.0,2.82
36.0,-7.0,2.821
14.0,-8.0,2.822
4.0,-8.0,2.823
10.0,-2.0,2.824
19.0,6.0,2.825
25.0,10.0,2.826
35.0,5.0,2.827
40.0,-2.0,2.828
21.0,-5.0,2.829
-25.0,-3.0,2.83
-64.0,0.0,2.831
-70.0,5.0,2.832
-55.0,8.0,2.833
-43.0,9.0,2.834
-39.0,5.0,2.835
-30.0,1.0,2.836
-19.0,1.0,2.837
-15.0,3.0,2.838
-14.0,5.0,2.839
-8.0,5.0,2.84
5.0,1.0,2.841
19.0,-3.0,2.842
31.0,-8.0,2.843
40.0,-9.0,2.844
39.0,0.0,2.845
29.0,8.0,2.846
19.0,7.0,2.847
16.0,-4.0,2.848
14.0,-10.0,2.849
5.0,-6.0,2.85
-3.0,1.0,2.851
-4.0,5.0,2.852
0.0,5.0,2.853
6.0,2.0,2.854
6.0,-4.0,2.855
8.0,-10.0,2.856
17.0,-8.0,2.857
27.0,1.0,2.858
31.0,9.0,2.859
19.0,5.0,2.86
-2.0,-4.0,2.861
-15.0,-2.0,2.862
-15.0,7.0,2.863
-10.0,9.0,2.864
-7.0,7.0,2.865
-2.0,5.0,2.866
12.0,1.0,2.867
29.0,-7.0,2.868
32.0,-14.0,2.869
15.0,-11.0,2.87
-6.0,-4.0,2.871
-17.0,-2.0,2.872
-17.0,-1.0,2.873
-18.0,4.0,2.874
-21.0,10.0,2.875
-21.0,7.0,2.876
-17.0,0.0,2.877
-16.0,-6.0,2.878
-19.0,-5.0,2.879
-24.0,-5.0,2.88
-23.0,-11.0,2.881
-15.0,-16.0,2.882
3.0,-13.0,2.883
19.0,-3.0,2.884
20.0,6.0,2.885
8.0,6.0,2.886
-2.0,-2.0,2.887
3.0,-10.0,2.888
19.0,-11.0,2.889
25.0,-4.0,2.89
20.0,2.0,2.891
13.0,0.0,2.892
13.0,-4.0,2.893
18.0,-3.0,2.894
31.0,4.0,2.895
52.0,10.0,2.896
78.0,11.0,2.897
87.0,8.0,2.898
68.0,4.0,2.899
26.0,0.0,2.9
-10.0,-3.0,2.901
-26.0,-2.0,2.902
-25.0,1.0,2.903
-23.0,3.0,2.904
-35.0,2.0,2.905
-51.0,4.0,2.906
-44.0,9.0,2.907
-12.0,8.0,2.908
6.0,-1.0,2.909
-13.0,-7.0,2.91
-46.0,-7.0,2.911
-50.0,-3.0,2.912
-27.0,-2.0,2.913
-15.0,1.0,2.914
-24.0,6.0,2.915
-29.0,4.0,2.916
-15.0,-6.0,2.917
-3.0,-12.0,2.918
1.0,-7.0,2.919
4.0,4.0,2.92
8.0,1.0,2.921
11.0,-7.0,2.922
11.0,-6.0,2.923
15.0,3.0,2.924
31.0,9.0,2.925
46.0,6.0,2.926
58.0,0.0,2.927
64.0,-2.0,2.928
47.0,-4.0,2.929
29.0,-8.0,2.93
10.0,-12.0,2.931
-4.0,-12.0,2.932
-5.0,-8.0,2.933
-9.0,-4.0,2.934
-18.0,-4.0,2.935
-26.0,-4.0,2.936
-26.0,1.0,2.937
-21.0,8.0,2.938
-5.0,12.0,2.939
13.0,10.0,2.94
19.0,5.0,2.941
13.0,7.0,2.942
6.0,12.0,2.943
7.0,16.0,2.944
1.0,16.0,2.945
-14.0,12.0,2.946
-24.0,6.0,2.947
-21.0,-3.0,2.948
-15.0,-14.0,2.949
-16.0,-23.0,2.95
-16.0,-28.0,2.951
-7.0,-25.0,2.952
7.0,-16.0,2.953
18.0,-9.0,2.954
26.0,-11.0,2.955
39.0,-11.0,2.956
57.0,-3.0,2.957
66.0,3.0,2.958
56.0,5.0,2.959
38.0,2.0,2.96
-3.0,0.0,2.961
-36.0,4.0,2.962
-40.0,7.0,2.963
-41.0,8.0,2.964
-34.0,10.0,2.965
-23.0,11.0,2.966
2.0,8.0,2.967
18.0,7.0,2.968
7.0,11.0,2.969
-3.0,10.0,2.97
-8.0,-1.0,2.971
-9.0,-4.0,2.972
4.0,2.0,2.973
13.0,3.0,2.974
7.0,-7.0,2.975
2.0,-14.0,2.976
-1.0,-10.0,2.977
-2.0,-5.0,2.978
6.0,-5.0,2.979
12.0,-4.0,2.98
10.0,0.0,2.981
11.0,4.0,2.982
26.0,-2.0,2.983
48.0,-5.0,2.984
61.0,5.0,2.985
65.0,15.0,2.986
63.0,13.0,2.987
49.0,4.0,2.988
16.0,-1.0,2.989
-26.0,-5.0,2.99
-55.0,-8.0,2.991
-63.0,-4.0,2.992
-60.0,5.0,2.993
-56.0,11.0,2.994
-48.0,6.0,2.995
-41.0,1.0,2.996
-40.0,5.0,2.997
-35.0,7.0,2.998
-19.0,3.0,2.999
-3.0,-1.0,3.0
-7.0,-8.0,3.001
-26.0,-13.0,3.002
-29.0,-8.0,3.003
-10.0,-3.0,3.004
8.0,-1.0,3.005
6.0,0.0,3.006
-3.0,-4.0,3.007
1.0,-7.0,3.008
15.0,-8.0,3.009
22.0,-10.0,3.01
23.0,-15.0,3.011
21.0,-16.0,3.012
19.0,-4.0,3.013
18.0,5.0,3.014
25.0,8.0,3.015
35.0,10.0,3.016
38.0,8.0,3.017
36.0,8.0,3.018
38.0,9.0,3.019
44.0,6.0,3.02
44.0,-1.0,3.021
34.0,-6.0,3.022
23.0,-9.0,3.023
18.0,-13.0,3.024
12.0,-8.0,3.025
4.0,0.0,3.026
1.0,3.0,3.027
0.0,-4.0,3.028
-3.0,-5.0,3.029
-5.0,2.0,3.03
-5.0,9.0,3.031
-9.0,4.0,3.032
-22.0,-2.0,3.033
-33.0,-1.0,3.034
-36.0,1.0,3.035
-31.0,1.0,3.036
-29.0,1.0,3.037
-29.0,4.0,3.038
-23.0,7.0,3.039
-18.0,-1.0,3.04
-14.0,-20.0,3.041
-8.0,-31.0,3.042
1.0,-25.0,3.043
10.0,-7.0,3.044
18.0,9.0,3.045
27.0,16.0,3.046
36.0,12.0,3.047
41.0,1.0,3.048
33.0,-8.0,3.049
24.0,-12.0,3.05
16.0,-6.0,3.051
6.0,6.0,3.052
-6.0,11.0,3.053
-12.0,8.0,3.054
0.0,5.0,3.055
9.0,9.0,3.056
11.0,12.0,3.057
11.0,7.0,3.058
8.0,1.0,3.059
25.0,1.0,3.06
50.0,3.0,3.061
58.0,4.0,3.062
42.0,2.0,3.063
9.0,1.0,3.064
-21.0,4.0,3.065
-48.0,7.0,3.066
-69.0,5.0,3.067
-78.0,0.0,3.068
-73.0,0.0,3.069
-57.0,2.0,3.07
-38.0,-2.0,3.071
-28.0,-11.0,3.072
-25.0,-16.0,3.073
-20.0,-13.0,3.074
-4.0,-8.0,3.075
13.0,-7.0,3.076
18.0,-6.0,3.077
3.0,-3.0,3.078
-9.0,2.0,3.079
-16.0,0.0,3.08
-2.0,-12.0,3.081
9.0,-18.0,3.082
14.0,-12.0,3.083
23.0,-3.0,3.084
40.0,2.0,3.085
53.0,3.0,3.086
51.0,2.0,3.087
46.0,-2.0,3.088
35.0,-6.0,3.089
27.0,-2.0,3.09
31.0,5.0,3.091
31.0,5.0,3.092
21.0,-1.0,3.093
12.0,-4.0,3.094
2.0,-2.0,3.095
-5.0,-1.0,3.096
-8.0,1.0,3.097
-11.0,3.0,3.098
-15.0,2.0,3.099
-18.0,-1.0,3.1
-17.0,-2.0,3.101
-14.0,4.0,3.102
-6.0,9.0,3.103
2.0,6.0,3.104
9.0,3.0,3.105
18.0,6.0,3.106
32.0,7.0,3.107
43.0,0.0,3.108
43.0,-11.0,3.109
35.0,-16.0,3.11
27.0,-11.0,3.111
20.0,-4.0,3.112
9.0,1.0,3.113
-2.0,4.0,3.114
-6.0,4.0,3.115
-9.0,2.0,3.116
-18.0,1.0,3.117
-31.0,0.0,3.118
-35.0,0.0,3.119
-33.0,0.0,3.12
-13.0,3.0,3.121
3.0,4.0,3.122
8.0,-3.0,3.123
9.0,-8.0,3.124
-6.0,-6.0,3.125
-17.0,-2.0,3.126
-14.0,4.0,3.127
-5.0,9.0,3.128
19.0,7.0,3.129
37.0,5.0,3.13
38.0,9.0,3.131
32.0,11.0,3.132
4.0,8.0,3.133
-17.0,4.0,3.134
-18.0,0.0,3.135
-23.0,-2.0,3.136
-41.0,0.0,3.137
-53.0,0.0,3.138
-39.0,-3.0,3.139
-27.0,-8.0,3.14
-31.0,-14.0,3.141
-34.0,-16.0,3.142
-23.0,-18.0,3.143
-8.0,-17.0,3.144
1.0,-9.0,3.145
11.0,1.0,3.146
29.0,8.0,3.147
52.0,9.0,3.148
68.0,9.0,3.149
63.0,8.0,3.15
36.0,7.0,3.151
2.0,5.0,3.152
-15.0,5.0,3.153
-10.0,6.0,3.154
-1.0,5.0,3.155
-2.0,1.0,3.156
-6.0,-1.0,3.157
-7.0,-5.0,3.158
-5.0,-6.0,3.159
-3.0,-8.0,3.16
7.0,-8.0,3.161
28.0,-9.0,3.162
45.0,-8.0,3.163
46.0,-6.0,3.164
37.0,0.0,3.165
29.0,3.0,3.166
24.0,1.0,3.167
21.0,-1.0,3.168
22.0,-3.0,3.169
18.0,-4.0,3.17
-3.0,-1.0,3.171
-29.0,1.0,3.172
-35.0,2.0,3.173
-18.0,3.0,3.174
0.0,6.0,3.175
5.0,8.0,3.176
1.0,6.0,3.177
-10.0,4.0,3.178
-31.0,7.0,3.179
-52.0,8.0,3.18
-54.0,-1.0,3.181
-36.0,-10.0,3.182
-14.0,-12.0,3.183
4.0,-5.0,3.184
21.0,4.0,3.185
37.0,9.0,3.186
40.0,6.0,3.187
28.0,-2.0,3.188
17.0,-6.0,3.189
14.0,-5.0,3.19
8.0,0.0,3.191
-8.0,0.0,3.192
-28.0,-2.0,3.193
-39.0,1.0,3.194
-36.0,10.0,3.195
-28.0,14.0,3.196
-23.0,9.0,3.197
-16.0,-3.0,3.198
-5.0,-7.0,3.199
6.0,-3.0,3.2
14.0,-2.0,3.201
22.0,-3.0,3.202
29.0,-3.0,3.203
36.0,0.0,3.204
42.0,5.0,3.205
53.0,1.0,3.206
75.0,-5.0,3.207
90.0,-9.0,3.208
79.0,-9.0,3.209
60.0,-8.0,3.21
18.0,-9.0,3.211
-15.0,-14.0,3.212
-20.0,-18.0,3.213
-22.0,-16.0,3.214
-15.0,-7.0,3.215
-14.0,6.0,3.216
-31.0,9.0,3.217
-53.0,3.0,3.218
-81.0,2.0,3.219
-86.0,8.0,3.22
-73.0,6.0,3.221
-64.0,-3.0,3.222
-64.0,-12.0,3.223
-52.0,-15.0,3.224
-31.0,-10.0,3.225
-18.0,-4.0,3.226
-19.0,2.0,3.227
-17.0,2.0,3.228
0.0,-1.0,3.229
21.0,0.0,3.23
37.0,6.0,3.231
53.0,13.0,3.232
67.0,6.0,3.233
74.0,-11.0,3.234
71.0,-27.0,3.235
64.0,-24.0,3.236
59.0,-9.0,3.237
50.0,5.0,3.238
40.0,9.0,3.239
29.0,6.0,3.24
15.0,4.0,3.241
-3.0,9.0,3.242
-17.0,10.0,3.243
-21.0,6.0,3.244
-20.0,3.0,3.245
-18.0,5.0,3.246
-18.0,4.0,3.247
-12.0,0.0,3.248
-8.0,2.0,3.249
-8.0,12.0,3.25
-11.0,16.0,3.251
-12.0,10.0,3.252
-5.0,4.0,3.253
5.0,6.0,3.254
15.0,10.0,3.255
19.0,9.0,3.256
17.0,5.0,3.257
6.0,-1.0,3.258
-8.0,-4.0,3.259
-19.0,-4.0,3.26
-17.0,-3.0,3.261
0.0,-1.0,3.262
19.0,-8.0,3.263
28.0,-17.0,3.264
24.0,-19.0,3.265
17.0,-17.0,3.266
12.0,-22.0,3.267
3.0,-28.0,3.268
-10.0,-22.0,3.269
-19.0,-7.0,3.27
-21.0,7.0,3.271
-17.0,15.0,3.272
-11.0,17.0,3.273
-2.0,18.0,3.274
10.0,17.0,3.275
15.0,16.0,3.276
12.0,16.0,3.277
-33.0,14.0,3.278
27.0,8.0,3.279
77.0,7.0,3.28
93.0,7.0,3.281
103.0,5.0,3.282
97.0,-5.0,3.283
85.0,-14.0,3.284
49.0,-15.0,3.285
17.0,-10.0,3.286
-11.0,-9.0,3.287
-35.0,-12.0,3.288
-47.0,-8.0,3.289
-53.0,0.0,3.29
-41.0,4.0,3.291
-27.0,0.0,3.292
-13.0,-2.0,3.293
3.0,-1.0,3.294
23.0,0.0,3.295
39.0,-2.0,3.296
33.0,-1.0,3.297
-8.0,3.0,3.298
23.0,9.0,3.299
48.0,9.0,3.3
56.0,2.0,3.301
61.0,-2.0,3.302
58.0,-2.0,3.303
52.0,0.0,3.304
34.0,1.0,3.305
17.0,-1.0,3.306
3.0,-5.0,3.307
-9.0,-8.0,3.308
-15.0,-6.0,3.309
-18.0,-3.0,3.31
-12.0,-5.0,3.311
-5.0,-12.0,3.312
2.0,-16.0,3.313
10.0,-13.0,3.314
21.0,-9.0,3.315
29.0,-5.0,3.316
26.0,0.0,3.317
21.0,8.0,3.318
7.0,12.0,3.319
-12.0,8.0,3.32
-30.0,1.0,3.321
-30.0,5.0,3.322
-3.0,10.0,3.323
35.0,13.0,3.324
57.0,13.0,3.325
63.0,17.0,3.326
66.0,21.0,3.327
66.0,14.0,3.328
47.0,2.0,3.329
7.0,-2.0,3.33
-32.0,-1.0,3.331
-51.0,-8.0,3.332
-50.0,-24.0,3.333
-33.0,-37.0,3.334
-7.0,-39.0,3.335
6.0,-36.0,3.336
-9.0,-28.0,3.337
-42.0,-11.0,3.338
-66.0,7.0,3.339
-49.0,13.0,3.34
-12.0,1.0,3.341
5.0,-8.0,3.342
5.0,-5.0,3.343
7.0,5.0,3.344
13.0,11.0,3.345
8.0,11.0,3.346
3.0,6.0,3.347
18.0,1.0,3.348
40.0,2.0,3.349
49.0,6.0,3.35
47.0,8.0,3.351
45.0,2.0,3.352
38.0,-6.0,3.353
13.0,-12.0,3.354
-20.0,-14.0,3.355
-35.0,-13.0,3.356
-30.0,-8.0,3.357
-25.0,-1.0,3.358
-22.0,4.0,3.359
-14.0,3.0,3.36
3.0,-4.0,3.361
19.0,3.0,3.362
23.0,20.0,3.363
22.0,31.0,3.364
7.0,26.0,3.365
-3.0,11.0,3.366
0.0,-1.0,3.367
8.0,-1.0,3.368
33.0,8.0,3.369
44.0,12.0,3.37
14.0,3.0,3.371
-15.0,-14.0,3.372
-41.0,-25.0,3.373
-58.0,-21.0,3.374
-46.0,-10.0,3.375
-35.0,-6.0,3.376
-27.0,-8.0,3.377
-22.0,-14.0,3.378
-31.0,-12.0,3.379
-27.0,-3.0,3.38
-5.0,3.0,3.381
20.0,7.0,3.382
39.0,4.0,3.383
57.0,2.0,3.384
81.0,3.0,3.385
113.0,5.0,3.386
144.0,4.0,3.387
142.0,5.0,3.388
89.0,8.0,3.389
2.0,10.0,3.39
-66.0,7.0,3.391
-90.0,-3.0,3.392
-91.0,-9.0,3.393
-99.0,-3.0,3.394
-115.0,10.0,3.395
-122.0,16.0,3.396
-118.0,12.0,3.397
-101.0,3.0,3.398
-69.0,-1.0,3.399
-26.0,-3.0,3.4
8.0,-8.0,3.401
16.0,-5.0,3.402
11.0,4.0,3.403
15.0,13.0,3.404
35.0,11.0,3.405
68.0,0.0,3.406
102.0,-9.0,3.407
124.0,-8.0,3.408
119.0,-3.0,3.409
97.0,-3.0,3.41
88.0,-7.0,3.411
108.0,-9.0,3.412
129.0,-6.0,3.413
115.0,-1.0,3.414
61.0,0.0,3.415
-8.0,-1.0,3.416
-61.0,-2.0,3.417
-100.0,-13.0,3.418
-117.0,-27.0,3.419
-112.0,-31.0,3.42
-96.0,-24.0,3.421
-85.0,-11.0,3.422
-82.0,-4.0,3.423
-67.0,4.0,3.424
-20.0,19.0,3.425
56.0,29.0,3.426
129.0,22.0,3.427
158.0,3.0,3.428
123.0,-5.0,3.429
58.0,2.0,3.43
13.0,16.0,3.431
11.0,22.0,3.432
16.0,11.0,3.433
-23.0,-9.0,3.434
-100.0,-33.0,3.435
-162.0,-52.0,3.436
-172.0,-54.0,3.437
-142.0,-41.0,3.438
-102.0,-19.0,3.439
-67.0,-9.0,3.44
-51.0,-13.0,3.441
-37.0,-12.0,3.442
-27.0,-1.0,3.443
-13.0,10.0,3.444
16.0,13.0,3.445
38.0,19.0,3.446
42.0,34.0,3.447
48.0,48.0,3.448
62.0,52.0,3.449
74.0,48.0,3.45
79.0,43.0,3.451
82.0,42.0,3.452
78.0,41.0,3.453
76.0,38.0,3.454
80.0,23.0,3.455
83.0,1.0,3.456
84.0,-10.0,3.457
80.0,-6.0,3.458
48.0,0.0,3.459
-14.0,-16.0,3.46
-69.0,-52.0,3.461
-94.0,-70.0,3.462
-94.0,-54.0,3.463
-87.0,-26.0,3.464
-74.0,-9.0,3.465
-58.0,-5.0,3.466
-46.0,2.0,3.467
-33.0,15.0,3.468
-9.0,27.0,3.469
25.0,31.0,3.47
47.0,32.0,3.471
60.0,30.0,3.472
76.0,19.0,3.473
96.0,3.0,3.474
93.0,-8.0,3.475
67.0,-7.0,3.476
46.0,1.0,3.477
39.0,5.0,3.478
24.0,-4.0,3.479
-19.0,-25.0,3.48
-72.0,-52.0,3.481
-113.0,-69.0,3.482
-135.0,-73.0,3.483
-136.0,-69.0,3.484
-114.0,-56.0,3.485
-74.0,-39.0,3.486
-36.0,-23.0,3.487
-13.0,-12.0,3.488
6.0,-5.0,3.489
38.0,6.0,3.49
81.0,15.0,3.491
116.0,20.0,3.492
141.0,27.0,3.493
173.0,36.0,3.494
215.0,38.0,3.495
232.0,30.0,3.496
197.0,24.0,3.497
127.0,26.0,3.498
99.0,28.0,3.499
132.0,16.0,3.5
154.0,-1.0,3.501
87.0,-6.0,3.502
-49.0,0.0,3.503
-170.0,2.0,3.504
-234.0,-9.0,3.505
-275.0,-22.0,3.506
-318.0,-30.0,3.507
-354.0,-25.0,3.508
-372.0,-9.0,3.509
-374.0,6.0,3.51
-337.0,9.0,3.511
-230.0,2.0,3.512
-75.0,0.0,3.513
60.0,13.0,3.514
133.0,34.0,3.515
149.0,55.0,3.516
135.0,64.0,3.517
113.0,53.0,3.518
114.0,35.0,3.519
122.0,26.0,3.52
148.0,16.0,3.521
161.0,-17.0,3.522
129.0,-71.0,3.523
103.0,-94.0,3.524
93.0,-61.0,3.525
87.0,-17.0,3.526
92.0,-16.0,3.527
93.0,-44.0,3.528
78.0,-49.0,3.529
52.0,-23.0,3.53
-9.0,-6.0,3.531
-49.0,-5.0,3.532
-26.0,2.0,3.533
-10.0,26.0,3.534
-14.0,42.0,3.535
-20.0,45.0,3.536
-29.0,51.0,3.537
-39.0,64.0,3.538
-40.0,73.0,3.539
-33.0,63.0,3.54
-8.0,35.0,3.541
20.0,10.0,3.542
45.0,7.0,3.543
92.0,28.0,3.544
182.0,47.0,3.545
277.0,34.0,3.546
290.0,-8.0,3.547
181.0,-49.0,3.548
16.0,-76.0,3.549
-99.0,-104.0,3.55
-140.0,-135.0,3.551
-162.0,-144.0,3.552
-213.0,-107.0,3.553
-280.0,-47.0,3.554
-318.0,-4.0,3.555
-294.0,7.0,3.556
-211.0,9.0,3.557
-74.0,23.0,3.558
16.0,48.0,3.559
40.0,64.0,3.56
43.0,54.0,3.561
95.0,47.0,3.562
192.0,47.0,3.563
241.0,49.0,3.564
165.0,63.0,3.565
0.0,71.0,3.566
-148.0,55.0,3.567
-217.0,37.0,3.568
-218.0,19.0,3.569
-164.0,3.0,3.57
-54.0,-6.0,3.571
66.0,-18.0,3.572
132.0,-34.0,3.573
148.0,-54.0,3.574
179.0,-84.0,3.575
235.0,-105.0,3.576
255.0,-99.0,3.577
198.0,-85.0,3.578
115.0,-53.0,3.579
49.0,-43.0,3.58
0.0,-63.0,3.581
-43.0,-72.0,3.582
-50.0,-46.0,3.583
-30.0,-5.0,3.584
-38.0,29.0,3.585
-93.0,61.0,3.586
-147.0,101.0,3.587
-165.0,133.0,3.588
-152.0,138.0,3.589
-113.0,140.0,3.59
-36.0,157.0,3.591
53.0,170.0,3.592
108.0,139.0,3.593
132.0,62.0,3.594
171.0,-24.0,3.595
210.0,-83.0,3.596
185.0,-107.0,3.597
16.0,-95.0,3.598
1.0,-68.0,3.599
-10.0,-56.0,3.6
-11.0,-68.0,3.601
-10.0,-80.0,3.602
1.0,-80.0,3.603
18.0,-74.0,3.604
51.0,-70.0,3.605
75.0,-60.0,3.606
67.0,-42.0,3.607
73.0,-30.0,3.608
123.0,-27.0,3.609
157.0,-11.0,3.61
141.0,16.0,3.611
144.0,26.0,3.612
208.0,6.0,3.613
251.0,-4.0,3.614
227.0,26.0,3.615
166.0,73.0,3.616
-2.0,102.0,3.617
-50.0,111.0,3.618
-79.0,107.0,3.619
-101.0,78.0,3.62
-103.0,21.0,3.621
-101.0,-22.0,3.622
-80.0,-22.0,3.623
-47.0,-8.0,3.624
19.0,-20.0,3.625
66.0,-60.0,3.626
50.0,-89.0,3.627
62.0,-91.0,3.628
162.0,-81.0,3.629
229.0,-68.0,3.63
197.0,-47.0,3.631
203.0,-18.0,3.632
329.0,16.0,3.633
412.0,60.0,3.634
365.0,115.0,3.635
246.0,153.0,3.636
-86.0,140.0,3.637
-361.0,79.0,3.638
-380.0,21.0,3.639
-344.0,-4.0,3.64
-308.0,-19.0,3.641
-229.0,-39.0,3.642
-130.0,-51.0,3.643
-94.0,-51.0,3.644
-118.0,-66.0,3.645
-129.0,-113.0,3.646
-103.0,-155.0,3.647
-75.0,-142.0,3.648
-58.0,-89.0,3.649
-49.0,-49.0,3.65
-55.0,-44.0,3.651
-58.0,-43.0,3.652
-11.0,-7.0,3.653
74.0,61.0,3.654
126.0,128.0,3.655
135.0,163.0,3.656
179.0,159.0,3.657
313.0,136.0,3.658
473.0,108.0,3.659
541.0,74.0,3.66
456.0,28.0,3.661
240.0,-11.0,3.662
0.0,-35.0,3.663
-133.0,-47.0,3.664
-111.0,-24.0,3.665
-45.0,-17.0,3.666
-91.0,-61.0,3.667
-267.0,-90.0,3.668
-428.0,-75.0,3.669
-444.0,-53.0,3.67
-333.0,-11.0,3.671
-206.0,34.0,3.672
-139.0,88.0,3.673
-116.0,130.0,3.674
-85.0,133.0,3.675
-20.0,130.0,3.676
56.0,106.0,3.677
111.0,83.0,3.678
133.0,66.0,3.679
146.0,50.0,3.68
130.0,29.0,3.681
108.0,-9.0,3.682
74.0,-64.0,3.683
38.0,-91.0,3.684
-5.0,-76.0,3.685
-41.0,-56.0,3.686
-55.0,-55.0,3.687
-48.0,-49.0,3.688
27.0,-13.0,3.689
96.0,7.0,3.69
146.0,-17.0,3.691
158.0,-61.0,3.692
54.0,-81.0,3.693
-37.0,-83.0,3.694
-89.0,-92.0,3.695
-118.0,-98.0,3.696
-76.0,-80.0,3.697
-23.0,-56.0,3.698
46.0,-44.0,3.699
41.0,-38.0,3.7
9.0,-14.0,3.701
41.0,28.0,3.702
152.0,71.0,3.703
273.0,98.0,3.704
369.0,106.0,3.705
413.0,84.0,3.706
315.0,35.0,3.707
40.0,-14.0,3.708
-244.0,-45.0,3.709
-330.0,-51.0,3.71
-234.0,-33.0,3.711
-141.0,1.0,3.712
-127.0,24.0,3.713
-137.0,14.0,3.714
-170.0,-10.0,3.715
-265.0,-20.0,3.716
-336.0,-20.0,3.717
-237.0,-37.0,3.718
-58.0,-61.0,3.719
29.0,-63.0,3.72
45.0,-38.0,3.721
126.0,-4.0,3.722
242.0,24.0,3.723
238.0,47.0,3.724
126.0,59.0,3.725
94.0,51.0,3.726
211.0,31.0,3.727
328.0,13.0,3.728
335.0,0.0,3.729
314.0,-11.0,3.73
354.0,-12.0,3.731
379.0,-1.0,3.732
257.0,7.0,3.733
-11.0,3.0,3.734
-307.0,14.0,3.735
-539.0,53.0,3.736
-688.0,92.0,3.737
-773.0,78.0,3.738
-760.0,11.0,3.739
-616.0,-60.0,3.74
-382.0,-90.0,3.741
-167.0,-78.0,3.742
-32.0,-59.0,3.743
74.0,-57.0,3.744
238.0,-59.0,3.745
424.0,-45.0,3.746
492.0,-16.0,3.747
388.0,7.0,3.748
225.0,16.0,3.749
143.0,30.0,3.75
194.0,56.0,3.751
354.0,67.0,3.752
520.0,46.0,3.753
501.0,24.0,3.754
187.0,52.0,3.755
-232.0,113.0,3.756
-418.0,143.0,3.757
307.0,115.0,3.758
34.0,81.0,3.759
-197.0,85.0,3.76
-313.0,95.0,3.761
-358.0,72.0,3.762
-189.0,31.0,3.763
-7.0,9.0,3.764
220.0,1.0,3.765
387.0,-28.0,3.766
372.0,-76.0,3.767
335.0,-114.0,3.768
229.0,-135.0,3.769
107.0,-153.0,3.77
-59.0,-157.0,3.771
-190.0,-116.0,3.772
-208.0,-49.0,3.773
-217.0,-12.0,3.774
-201.0,-14.0,3.775
-222.0,-2.0,3.776
-351.0,46.0,3.777
304.0,80.0,3.778
34.0,54.0,3.779
-196.0,-12.0,3.78
-310.0,-67.0,3.781
-355.0,-103.0,3.782
-188.0,-137.0,3.783
-7.0,-129.0,3.784
218.0,-37.0,3.785
383.0,75.0,3.786
368.0,86.0,3.787
331.0,7.0,3.788
227.0,-22.0,3.789
106.0,50.0,3.79
-59.0,120.0,3.791
-189.0,88.0,3.792
-206.0,11.0,3.793
-215.0,-21.0,3.794
-200.0,-26.0,3.795
-220.0,-61.0,3.796
-348.0,-101.0,3.797
-458.0,-102.0,3.798
-454.0,-77.0,3.799
-338.0,-70.0,3.8
-186.0,-68.0,3.801
-82.0,-17.0,3.802
-36.0,55.0,3.803
-1.0,79.0,3.804
26.0,50.0,3.805
44.0,41.0,3.806
105.0,93.0,3.807
233.0,161.0,3.808
347.0,179.0,3.809
360.0,141.0,3.81
306.0,106.0,3.811
260.0,108.0,3.812
214.0,119.0,3.813
123.0,90.0,3.814
14.0,28.0,3.815
-58.0,-10.0,3.816
-91.0,-14.0,3.817
-106.0,-36.0,3.818
-79.0,-94.0,3.819
-13.0,-144.0,3.82
33.0,-168.0,3.821
38.0,-179.0,3.822
59.0,-151.0,3.823
125.0,-118.0,3.824
163.0,-74.0,3.825
136.0,-21.0,3.826
108.0,53.0,3.827
106.0,128.0,3.828
65.0,203.0,3.829
-39.0,245.0,3.83
-126.0,187.0,3.831
-149.0,120.0,3.832
-148.0,26.0,3.833
-116.0,-68.0,3.834
-4.0,-163.0,3.835
83.0,-224.0,3.836
-22.0,-179.0,3.837
354.0,-129.0,3.838
124.0,-83.0,3.839
-51.0,-69.0,3.84
-65.0,-64.0,3.841
-48.0,-68.0,3.842
61.0,-85.0,3.843
132.0,-91.0,3.844
70.0,-67.0,3.845
5.0,-45.0,3.846
-68.0,-37.0,3.847
-110.0,-6.0,3.848
-48.0,68.0,3.849
-39.0,128.0,3.85
-193.0,119.0,3.851
-275.0,73.0,3.852
-130.0,47.0,3.853
-2.0,30.0,3.854
72.0,-19.0,3.855
84.0,-74.0,3.856
-98.0,-76.0,3.857
231.0,-21.0,3.858
79.0,37.0,3.859
-38.0,67.0,3.86
-47.0,88.0,3.861
-36.0,112.0,3.862
37.0,118.0,3.863
84.0,101.0,3.864
43.0,86.0,3.865
0.0,81.0,3.866
-49.0,66.0,3.867
-77.0,41.0,3.868
-36.0,25.0,3.869
-30.0,27.0,3.87
-132.0,31.0,3.871
-186.0,26.0,3.872
-90.0,9.0,3.873
-5.0,-26.0,3.874
44.0,-79.0,3.875
52.0,-114.0,3.876
-69.0,-97.0,3.877
-198.0,-52.0,3.878
-261.0,-20.0,3.879
-145.0,-15.0,3.88
9.0,-23.0,3.881
84.0,-37.0,3.882
102.0,-72.0,3.883
87.0,-100.0,3.884
21.0,-83.0,3.885
-17.0,-31.0,3.886
85.0,-7.0,3.887
239.0,-34.0,3.888
255.0,-68.0,3.889
138.0,-76.0,3.89
58.0,-60.0,3.891
40.0,-34.0,3.892
-29.0,1.0,3.893
-120.0,31.0,3.894
-86.0,40.0,3.895
45.0,50.0,3.896
90.0,89.0,3.897
9.0,141.0,3.898
-50.0,151.0,3.899
-17.0,107.0,3.9
16.0,59.0,3.901
-14.0,44.0,3.902
-48.0,39.0,3.903
-61.0,23.0,3.904
-88.0,-2.0,3.905
-114.0,-27.0,3.906
-73.0,-41.0,3.907
11.0,-26.0,3.908
70.0,11.0,3.909
101.0,34.0,3.91
162.0,23.0,3.911
248.0,0.0,3.912
273.0,-22.0,3.913
199.0,-60.0,3.914
67.0,-104.0,3.915
-54.0,-107.0,3.916
-124.0,-73.0,3.917
-149.0,-56.0,3.918
-155.0,-78.0,3.919
-146.0,-90.0,3.92
-92.0,-67.0,3.921
-33.0,-48.0,3.922
40.0,-45.0,3.923
86.0,-1.0,3.924
46.0,93.0,3.925
-3.0,159.0,3.926
-81.0,144.0,3.927
-146.0,101.0,3.928
-172.0,93.0,3.929
-197.0,86.0,3.93
-215.0,43.0,3.931
-218.0,-5.0,3.932
-170.0,-17.0,3.933
-109.0,-20.0,3.934
-15.0,-54.0,3.935
58.0,-95.0,3.936
71.0,-94.0,3.937
90.0,-50.0,3.938
115.0,0.0,3.939
110.0,28.0,3.94
80.0,34.0,3.941
37.0,31.0,3.942
0.0,23.0,3.943
7.0,26.0,3.944
56.0,46.0,3.945
86.0,59.0,3.946
68.0,53.0,3.947
58.0,47.0,3.948
104.0,58.0,3.949
170.0,58.0,3.95
212.0,12.0,3.951
222.0,-49.0,3.952
174.0,-62.0,3.953
34.0,-20.0,3.954
-112.0,27.0,3.955
-118.0,44.0,3.956
20.0,36.0,3.957
165.0,2.0,3.958
188.0,-43.0,3.959
106.0,-75.0,3.96
2.0,-65.0,3.961
-87.0,-51.0,3.962
-146.0,-28.0,3.963
-172.0,-3.0,3.964
-201.0,22.0,3.965
-267.0,34.0,3.966
-315.0,0.0,3.967
-255.0,-39.0,3.968
-92.0,-91.0,3.969
71.0,-130.0,3.97
161.0,-131.0,3.971
184.0,-123.0,3.972
162.0,-89.0,3.973
100.0,-53.0,3.974
35.0,-11.0,3.975
26.0,24.0,3.976
91.0,44.0,3.977
176.0,54.0,3.978
189.0,26.0,3.979
87.0,22.0,3.98
-61.0,55.0,3.981
-150.0,72.0,3.982
-151.0,29.0,3.983
-130.0,-22.0,3.984
-145.0,-17.0,3.985
-181.0,24.0,3.986
-205.0,35.0,3.987
-212.0,6.0,3.988
-178.0,-9.0,3.989
-68.0,16.0,3.99
83.0,51.0,3.991
181.0,66.0,3.992
186.0,67.0,3.993
160.0,68.0,3.994
150.0,54.0,3.995
134.0,26.0,3.996
98.0,9.0,3.997
72.0,18.0,3.998
72.0,32.0,3.999
55.0,18.0,4.0
-6.0,-17.0,4.001
-49.0,-21.0,4.002
-27.0,7.0,4.003
-5.0,14.0,4.004
20.0,-40.0,4.005
42.0,-120.0,4.006
51.0,-163.0,4.007
47.0,-142.0,4.008
3.0,-76.0,4.009
-41.0,-3.0,4.01
-85.0,36.0,4.011
-103.0,42.0,4.012
-42.0,58.0,4.013
2.0,108.0,4.014
-7.0,149.0,4.015
-11.0,128.0,4.016
3.0,75.0,4.017
27.0,42.0,4.018
54.0,39.0,4.019
43.0,19.0,4.02
60.0,-28.0,4.021
158.0,-39.0,4.022
274.0,-2.0,4.023
265.0,15.0,4.024
85.0,-33.0,4.025
-146.0,-105.0,4.026
-268.0,-136.0,4.027
-250.0,-127.0,4.028
-185.0,-110.0,4.029
-159.0,-89.0,4.03
-156.0,-46.0,4.031
-105.0,7.0,4.032
-2.0,41.0,4.033
79.0,45.0,4.034
78.0,33.0,4.035
27.0,26.0,4.036
12.0,30.0,4.037
51.0,31.0,4.038
94.0,9.0,4.039
84.0,-31.0,4.04
33.0,-63.0,4.041
-5.0,-55.0,4.042
-17.0,-22.0,4.043
-28.0,-1.0,4.044
-58.0,7.0,4.045
-84.0,9.0,4.046
-77.0,5.0,4.047
-50.0,-13.0,4.048
-34.0,-27.0,4.049
-23.0,-19.0,4.05
14.0,-2.0,4.051
78.0,7.0,4.052
113.0,24.0,4.053
87.0,63.0,4.054
32.0,99.0,4.055
6.0,99.0,4.056
24.0,81.0,4.057
52.0,73.0,4.058
49.0,78.0,4.059
-8.0,71.0,4.06
-80.0,44.0,4.061
-106.0,18.0,4.062
-62.0,-10.0,4.063
10.0,-47.0,4.064
60.0,-73.0,4.065
86.0,-64.0,4.066
102.0,-37.0,4.067
98.0,-26.0,4.068
57.0,-34.0,4.069
5.0,-36.0,4.07
-24.0,-22.0,4.071
-45.0,2.0,4.072
-86.0,29.0,4.073
-126.0,46.0,4.074
-113.0,46.0,4.075
-54.0,35.0,4.076
0.0,24.0,4.077
35.0,-4.0,4.078
75.0,-56.0,4.079
108.0,-104.0,4.08
117.0,-107.0,4.081
109.0,-68.0,4.082
51.0,-42.0,4.083
4.0,-45.0,4.084
-13.0,-38.0,4.085
-30.0,0.0,4.086
-43.0,35.0,4.087
-50.0,36.0,4.088
-36.0,21.0,4.089
-23.0,14.0,4.09
-15.0,8.0,4.091
-8.0,-2.0,4.092
-5.0,-6.0,4.093
-3.0,5.0,4.094
-5.0,16.0,4.095
-2.0,14.0,4.096
22.0,12.0,4.097
52.0,24.0,4.098
85.0,35.0,4.099
101.0,33.0,4.1
105.0,24.0,4.101
95.0,28.0,4.102
66.0,38.0,4.103
11.0,36.0,4.104
-42.0,17.0,4.105
-67.0,-6.0,4.106
-70.0,-24.0,4.107
-67.0,-35.0,4.108
-67.0,-35.0,4.109
-62.0,-31.0,4.11
-55.0,-30.0,4.111
-54.0,-34.0,4.112
-48.0,-42.0,4.113
-16.0,-52.0,4.114
26.0,-57.0,4.115
32.0,-48.0,4.116
-8.0,-20.0,4.117
-64.0,9.0,4.118
-83.0,22.0,4.119
-54.0,15.0,4.12
-4.0,12.0,4.121
41.0,24.0,4.122
66.0,37.0,4.123
57.0,42.0,4.124
23.0,46.0,4.125
-4.0,46.0,4.126
-14.0,31.0,4.127
-25.0,2.0,4.128
-46.0,-10.0,4.129
-45.0,-2.0,4.13
-8.0,5.0,4.131
27.0,-3.0,4.132
27.0,-9.0,4.133
10.0,2.0,4.134
9.0,16.0,4.135
23.0,13.0,4.136
35.0,6.0,4.137
53.0,11.0,4.138
88.0,24.0,4.139
115.0,22.0,4.14
98.0,9.0,4.141
35.0,6.0,4.142
-25.0,12.0,4.143
-45.0,11.0,4.144
-30.0,0.0,4.145
-13.0,-9.0,4.146
-13.0,-7.0,4.147
-28.0,-2.0,4.148
-48.0,-1.0,4.149
-54.0,-13.0,4.15
-36.0,-31.0,4.151
-9.0,-35.0,4.152
1.0,-22.0,4.153
-8.0,-13.0,4.154
-7.0,-25.0,4.155
14.0,-44.0,4.156
34.0,-45.0,4.157
31.0,-30.0,4.158
25.0,-13.0,4.159
21.0,-1.0,4.16
22.0,8.0,4.161
20.0,8.0,4.162
9.0,-10.0,4.163
3.0,-21.0,4.164
12.0,-2.0,4.165
20.0,25.0,4.166
20.0,19.0,4.167
23.0,-11.0,4.168
33.0,-24.0,4.169
41.0,-12.0,4.17
37.0,1.0,4.171
33.0,4.0,4.172
30.0,8.0,4.173
18.0,13.0,4.174
-22.0,11.0,4.175
-47.0,7.0,4.176
-25.0,14.0,4.177
-3.0,22.0,4.178
-9.0,18.0,4.179
-58.0,10.0,4.18
-101.0,11.0,4.181
-99.0,21.0,4.182
-58.0,23.0,4.183
-11.0,15.0,4.184
19.0,9.0,4.185
23.0,4.0,4.186
14.0,-9.0,4.187
16.0,-27.0,4.188
43.0,-29.0,4.189
78.0,-16.0,4.19
88.0,-6.0,4.191
57.0,-7.0,4.192
2.0,-9.0,4.193
-39.0,-5.0,4.194
-52.0,-6.0,4.195
-54.0,-14.0,4.196
-66.0,-20.0,4.197
-80.0,-14.0,4.198
-65.0,3.0,4.199
-15.0,19.0,4.2
26.0,18.0,4.201
20.0,9.0,4.202
-15.0,0.0,4.203
-28.0,4.0,4.204
4.0,11.0,4.205
64.0,11.0,4.206
113.0,5.0,4.207
125.0,4.0,4.208
103.0,16.0,4.209
72.0,30.0,4.21
56.0,31.0,4.211
54.0,22.0,4.212
34.0,9.0,4.213
-21.0,-3.0,4.214
-77.0,-16.0,4.215
-102.0,-24.0,4.216
-97.0,-23.0,4.217
-95.0,-26.0,4.218
-101.0,-34.0,4.219
-98.0,-35.0,4.22
-73.0,-26.0,4.221
-37.0,-12.0,4.222
-5.0,-6.0,4.223
18.0,-4.0,4.224
29.0,4.0,4.225
30.0,13.0,4.226
38.0,16.0,4.227
58.0,14.0,4.228
83.0,15.0,4.229
92.0,18.0,4.23
75.0,20.0,4.231
45.0,20.0,4.232
17.0,17.0,4.233
-2.0,6.0,4.234
-11.0,-15.0,4.235
-8.0,-30.0,4.236
0.0,-24.0,4.237
11.0,-6.0,4.238
23.0,8.0,4.239
31.0,6.0,4.24
25.0,-4.0,4.241
23.0,-3.0,4.242
34.0,6.0,4.243
40.0,9.0,4.244
30.0,0.0,4.245
21.0,-16.0,4.246
18.0,-26.0,4.247
19.0,-25.0,4.248
37.0,-16.0,4.249
43.0,-6.0,4.25
12.0,5.0,4.251
-16.0,18.0,4.252
-38.0,29.0,4.253
-54.0,30.0,4.254
-52.0,19.0,4.255
-50.0,0.0,4.256
-53.0,-13.0,4.257
-58.0,-18.0,4.258
-73.0,-15.0,4.259
-85.0,-10.0,4.26
-87.0,-9.0,4.261
-78.0,-5.0,4.262
-59.0,-2.0,4.263
-32.0,-2.0,4.264
0.0,-2.0,4.265
20.0,5.0,4.266
19.0,13.0,4.267
15.0,11.0,4.268
34.0,0.0,4.269
63.0,-8.0,4.27
66.0,-4.0,4.271
40.0,3.0,4.272
22.0,4.0,4.273
23.0,-2.0,4.274
19.0,-6.0,4.275
4.0,-7.0,4.276
8.0,-7.0,4.277
37.0,-4.0,4.278
54.0,5.0,4.279
29.0,13.0,4.28
-2.0,11.0,4.281
-4.0,9.0,4.282
12.0,3.0,4.283
12.0,0.0,4.284
-10.0,5.0,4.285
-25.0,9.0,4.286
-23.0,9.0,4.287
-4.0,10.0,4.288
22.0,17.0,4.289
40.0,23.0,4.29
34.0,27.0,4.291
17.0,28.0,4.292
18.0,22.0,4.293
38.0,15.0,4.294
45.0,6.0,4.295
26.0,-6.0,4.296
7.0,-27.0,4.297
-4.0,-46.0,4.298
-20.0,-50.0,4.299
-51.0,-39.0,4.3
-67.0,-30.0,4.301
-35.0,-29.0,4.302
28.0,-31.0,4.303
65.0,-27.0,4.304
47.0,-20.0,4.305
2.0,-21.0,4.306
-25.0,-23.0,4.307
-28.0,-13.0,4.308
-27.0,7.0,4.309
-37.0,20.0,4.31
-49.0,19.0,4.311
-59.0,13.0,4.312
-60.0,14.0,4.313
-43.0,18.0,4.314
-6.0,16.0,4.315
28.0,13.0,4.316
35.0,17.0,4.317
26.0,17.0,4.318
26.0,14.0,4.319
27.0,11.0,4.32
27.0,14.0,4.321
32.0,19.0,4.322
49.0,14.0,4.323
58.0,1.0,4.324
40.0,-13.0,4.325
21.0,-26.0,4.326
-4.0,-31.0,4.327
-20.0,-26.0,4.328
-2.0,-11.0,4.329
12.0,0.0,4.33
18.0,1.0,4.331
22.0,2.0,4.332
14.0,9.0,4.333
9.0,19.0,4.334
17.0,21.0,4.335
29.0,14.0,4.336
51.0,12.0,4.337
66.0,10.0,4.338
35.0,5.0,4.339
-26.0,0.0,4.34
-74.0,-1.0,4.341
-78.0,0.0,4.342
-56.0,-6.0,4.343
-49.0,-14.0,4.344
-73.0,-13.0,4.345
-102.0,-3.0,4.346
-111.0,5.0,4.347
-93.0,5.0,4.348
-54.0,-1.0,4.349
-10.0,-11.0,4.35
18.0,-25.0,4.351
20.0,-34.0,4.352
15.0,-28.0,4.353
22.0,-11.0,4.354
38.0,0.0,4.355
42.0,0.0,4.356
43.0,0.0,4.357
62.0,0.0,4.358
100.0,6.0,4.359
124.0,10.0,4.36
103.0,10.0,4.361
51.0,11.0,4.362
11.0,12.0,4.363
12.0,13.0,4.364
39.0,14.0,4.365
52.0,18.0,4.366
22.0,18.0,4.367
-34.0,15.0,4.368
-67.0,13.0,4.369
-49.0,13.0,4.37
-11.0,8.0,4.371
0.0,-6.0,4.372
-27.0,-21.0,4.373
-59.0,-22.0,4.374
-67.0,-12.0,4.375
-54.0,-5.0,4.376
-37.0,-8.0,4.377
-26.0,-18.0,4.378
-27.0,-21.0,4.379
-39.0,-11.0,4.38
-44.0,1.0,4.381
-21.0,13.0,4.382
18.0,20.0,4.383
40.0,21.0,4.384
30.0,12.0,4.385
20.0,-3.0,4.386
28.0,-25.0,4.387
40.0,-41.0,4.388
35.0,-44.0,4.389
26.0,-32.0,4.39
29.0,-20.0,4.391
38.0,-17.0,4.392
38.0,-15.0,4.393
38.0,-10.0,4.394
45.0,-3.0,4.395
50.0,0.0,4.396
42.0,7.0,4.397
25.0,22.0,4.398
11.0,32.0,4.399
1.0,22.0,4.4
1.0,2.0,4.401
14.0,1.0,4.402
68.0,16.0,4.403
118.0,27.0,4.404
156.0,26.0,4.405
168.0,22.0,4.406
95.0,15.0,4.407
26.0,8.0,4.408
-30.0,2.0,4.409
-78.0,5.0,4.41
-99.0,9.0,4.411
-130.0,1.0,4.412
-187.0,-10.0,4.413
-225.0,-16.0,4.414
-206.0,-19.0,4.415
-176.0,-24.0,4.416
-116.0,-29.0,4.417
-61.0,-34.0,4.418
-32.0,-33.0,4.419
-9.0,-24.0,4.42
9.0,-12.0,4.421
13.0,-3.0,4.422
7.0,-1.0,4.423
3.0,-3.0,4.424
0.0,0.0,4.425
-4.0,6.0,4.426
6.0,13.0,4.427
39.0,16.0,4.428
78.0,18.0,4.429
95.0,19.0,4.43
92.0,20.0,4.431
98.0,20.0,4.432
121.0,23.0,4.433
131.0,21.0,4.434
102.0,18.0,4.435
53.0,14.0,4.436
22.0,14.0,4.437
3.0,6.0,4.438
-22.0,-6.0,4.439
-47.0,-15.0,4.44
-64.0,-18.0,4.441
-74.0,-16.0,4.442
-58.0,4.0,4.443
-45.0,22.0,4.444
-48.0,32.0,4.445
-47.0,40.0,4.446
-32.0,38.0,4.447
-13.0,36.0,4.448
19.0,33.0,4.449
64.0,23.0,4.45
152.0,-5.0,4.451
213.0,-31.0,4.452
193.0,-52.0,4.453
141.0,-68.0,4.454
-3.0,-63.0,4.455
-110.0,-57.0,4.456
-104.0,-50.0,4.457
-91.0,-40.0,4.458
-83.0,-22.0,4.459
-109.0,-6.0,4.46
-131.0,-6.0,4.461
-133.0,-19.0,4.462
-103.0,-35.0,4.463
-46.0,-41.0,4.464
8.0,-29.0,4.465
26.0,-8.0,4.466
21.0,7.0,4.467
34.0,13.0,4.468
64.0,16.0,4.469
72.0,19.0,4.47
62.0,20.0,4.471
78.0,25.0,4.472
140.0,41.0,4.473
202.0,61.0,4.474
210.0,74.0,4.475
149.0,69.0,4.476
59.0,51.0,4.477
-22.0,23.0,4.478
-61.0,-2.0,4.479
-84.0,-25.0,4.48
-134.0,-38.0,4.481
-189.0,-47.0,4.482
-175.0,-39.0,4.483
-91.0,-28.0,4.484
-26.0,-13.0,4.485
-37.0,-4.0,4.486
-52.0,-13.0,4.487
2.0,-17.0,4.488
73.0,-2.0,4.489
57.0,11.0,4.49
-29.0,16.0,4.491
-79.0,23.0,4.492
-51.0,31.0,4.493
-11.0,35.0,4.494
-6.0,24.0,4.495
-13.0,17.0,4.496
-1.0,29.0,4.497
13.0,36.0,4.498
16.0,11.0,4.499
18.0,-33.0,4.5
33.0,-61.0,4.501
50.0,-53.0,4.502
61.0,-24.0,4.503
73.0,5.0,4.504
81.0,19.0,4.505
73.0,12.0,4.506
39.0,1.0,4.507
-1.0,1.0,4.508
-16.0,11.0,4.509
5.0,8.0,4.51
43.0,-5.0,4.511
54.0,-6.0,4.512
18.0,12.0,4.513
-31.0,37.0,4.514
-44.0,50.0,4.515
-22.0,51.0,4.516
4.0,47.0,4.517
30.0,34.0,4.518
72.0,12.0,4.519
105.0,-15.0,4.52
86.0,-40.0,4.521
25.0,-51.0,4.522
-14.0,-49.0,4.523
2.0,-42.0,4.524
33.0,-42.0,4.525
27.0,-49.0,4.526
-30.0,-52.0,4.527
-133.0,-41.0,4.528
-239.0,-27.0,4.529
-267.0,-28.0,4.53
-175.0,-46.0,4.531
-42.0,-55.0,4.532
12.0,-36.0,4.533
-18.0,0.0,4.534
-32.0,22.0,4.535
28.0,23.0,4.536
98.0,14.0,4.537
114.0,4.0,4.538
81.0,-4.0,4.539
44.0,-5.0,4.54
23.0,0.0,4.541
7.0,16.0,4.542
-11.0,31.0,4.543
-32.0,36.0,4.544
-55.0,34.0,4.545
-67.0,28.0,4.546
-55.0,18.0,4.547
-25.0,13.0,4.548
-1.0,21.0,4.549
10.0,35.0,4.55
16.0,42.0,4.551
22.0,38.0,4.552
35.0,29.0,4.553
53.0,20.0,4.554
69.0,10.0,4.555
83.0,-4.0,4.556
99.0,-11.0,4.557
110.0,-10.0,4.558
97.0,-1.0,4.559
51.0,8.0,4.56
9.0,12.0,4.561
7.0,17.0,4.562
36.0,24.0,4.563
56.0,36.0,4.564
39.0,52.0,4.565
-4.0,55.0,4.566
-47.0,19.0,4.567
-68.0,-48.0,4.568
-58.0,-103.0,4.569
-32.0,-102.0,4.57
-21.0,-59.0,4.571
-39.0,-22.0,4.572
-66.0,-17.0,4.573
-57.0,-25.0,4.574
12.0,-23.0,4.575
134.0,-10.0,4.576
252.0,0.0,4.577
302.0,10.0,4.578
226.0,23.0,4.579
50.0,27.0,4.58
-114.0,4.0,4.581
-174.0,-34.0,4.582
-153.0,-64.0,4.583
-137.0,-70.0,4.584
-158.0,-61.0,4.585
-176.0,-48.0,4.586
-153.0,-32.0,4.587
-106.0,-9.0,4.588
-70.0,15.0,4.589
-61.0,24.0,4.59
-68.0,16.0,4.591
-78.0,8.0,4.592
-79.0,9.0,4.593
-67.0,16.0,4.594
-53.0,24.0,4.595
-47.0,32.0,4.596
-38.0,40.0,4.597
-10.0,46.0,4.598
42.0,49.0,4.599
108.0,49.0,4.6
173.0,41.0,4.601
220.0,29.0,4.602
229.0,17.0,4.603
199.0,9.0,4.604
148.0,3.0,4.605
86.0,-1.0,4.606
16.0,-5.0,4.607
-37.0,-7.0,4.608
-39.0,-10.0,4.609
-2.0,-14.0,4.61
18.0,-19.0,4.611
-3.0,-24.0,4.612
-22.0,-25.0,4.613
0.0,-16.0,4.614
57.0,-1.0,4.615
120.0,13.0,4.616
171.0,24.0,4.617
189.0,36.0,4.618
133.0,45.0,4.619
13.0,46.0,4.62
-98.0,38.0,4.621
-150.0,36.0,4.622
-166.0,32.0,4.623
-186.0,8.0,4.624
-200.0,-33.0,4.625
-185.0,-66.0,4.626
-142.0,-69.0,4.627
-92.0,-45.0,4.628
-44.0,-26.0,4.629
-4.0,-32.0,4.63
24.0,-59.0,4.631
42.0,-82.0,4.632
55.0,-79.0,4.633
58.0,-51.0,4.634
50.0,-17.0,4.635
46.0,11.0,4.636
53.0,29.0,4.637
56.0,36.0,4.638
49.0,40.0,4.639
56.0,48.0,4.64
104.0,62.0,4.641
170.0,71.0,4.642
194.0,60.0,4.643
138.0,38.0,4.644
35.0,18.0,4.645
-41.0,0.0,4.646
-63.0,-21.0,4.647
-78.0,-39.0,4.648
-148.0,-41.0,4.649
-252.0,-42.0,4.65
-292.0,-66.0,4.651
-210.0,-97.0,4.652
-68.0,-90.0,4.653
31.0,-41.0,4.654
53.0,1.0,4.655
40.0,10.0,4.656
34.0,12.0,4.657
45.0,31.0,4.658
67.0,53.0,4.659
90.0,52.0,4.66
97.0,38.0,4.661
70.0,40.0,4.662
18.0,40.0,4.663
-29.0,8.0,4.664
-57.0,-24.0,4.665
-57.0,-15.0,4.666
-25.0,15.0,4.667
19.0,13.0,4.668
21.0,-23.0,4.669
-29.0,-37.0,4.67
-67.0,-6.0,4.671
-29.0,31.0,4.672
39.0,40.0,4.673
52.0,27.0,4.674
-2.0,16.0,4.675
-51.0,10.0,4.676
-43.0,10.0,4.677
2.0,11.0,4.678
40.0,15.0,4.679
43.0,19.0,4.68
26.0,24.0,4.681
15.0,34.0,4.682
20.0,50.0,4.683
25.0,64.0,4.684
18.0,72.0,4.685
17.0,70.0,4.686
50.0,39.0,4.687
103.0,-23.0,4.688
132.0,-87.0,4.689
128.0,-116.0,4.69
136.0,-113.0,4.691
190.0,-110.0,4.692
247.0,-115.0,4.693
227.0,-108.0,4.694
104.0,-79.0,4.695
-67.0,-47.0,4.696
-196.0,-27.0,4.697
-261.0,-12.0,4.698
-279.0,6.0,4.699
-277.0,16.0,4.7
-244.0,12.0,4.701
-153.0,18.0,4.702
-21.0,41.0,4.703
86.0,52.0,4.704
111.0,42.0,4.705
61.0,31.0,4.706
-18.0,39.0,4.707
-82.0,48.0,4.708
-105.0,37.0,4.709
-86.0,26.0,4.71
-48.0,37.0,4.711
-7.0,49.0,4.712
50.0,23.0,4.713
128.0,-29.0,4.714
190.0,-69.0,4.715
181.0,-73.0,4.716
99.0,-50.0,4.717
-15.0,-21.0,4.718
-87.0,4.0,4.719
-94.0,10.0,4.72
-73.0,-3.0,4.721
-79.0,-13.0,4.722
-119.0,-5.0,4.723
-130.0,12.0,4.724
-57.0,17.0,4.725
61.0,13.0,4.726
127.0,12.0,4.727
90.0,21.0,4.728
-2.0,37.0,4.729
-68.0,53.0,4.73
-73.0,59.0,4.731
-26.0,45.0,4.732
47.0,13.0,4.733
117.0,-11.0,4.734
153.0,-8.0,4.735
145.0,10.0,4.736
114.0,21.0,4.737
81.0,8.0,4.738
57.0,-19.0,4.739
33.0,-45.0,4.74
6.0,-65.0,4.741
-15.0,-76.0,4.742
-24.0,-79.0,4.743
-26.0,-67.0,4.744
-34.0,-30.0,4.745
-41.0,17.0,4.746
-15.0,38.0,4.747
78.0,19.0,4.748
217.0,-10.0,4.749
310.0,-15.0,4.75
263.0,-4.0,4.751
93.0,-1.0,4.752
-80.0,-7.0,4.753
-173.0,-10.0,4.754
-214.0,-6.0,4.755
-260.0,0.0,4.756
-290.0,19.0,4.757
-260.0,45.0,4.758
-182.0,57.0,4.759
-120.0,36.0,4.76
-95.0,-7.0,4.761
-78.0,-40.0,4.762
-51.0,-45.0,4.763
-19.0,-20.0,4.764
32.0,17.0,4.765
110.0,43.0,4.766
182.0,43.0,4.767
202.0,37.0,4.768
184.0,48.0,4.769
184.0,61.0,4.77
192.0,52.0,4.771
120.0,22.0,4.772
-51.0,-5.0,4.773
-198.0,-22.0,4.774
-189.0,-41.0,4.775
-62.0,-55.0,4.776
6.0,-48.0,4.777
-61.0,-37.0,4.778
-156.0,-33.0,4.779
-135.0,-32.0,4.78
-22.0,-24.0,4.781
44.0,-10.0,4.782
20.0,-8.0,4.783
-19.0,-9.0,4.784
-7.0,1.0,4.785
25.0,15.0,4.786
32.0,16.0,4.787
21.0,14.0,4.788
19.0,26.0,4.789
35.0,42.0,4.79
59.0,53.0,4.791
72.0,63.0,4.792
59.0,72.0,4.793
33.0,61.0,4.794
20.0,24.0,4.795
29.0,-16.0,4.796
44.0,-41.0,4.797
56.0,-72.0,4.798
76.0,-108.0,4.799
96.0,-118.0,4.8
85.0,-88.0,4.801
35.0,-42.0,4.802
-19.0,-17.0,4.803
-31.0,-5.0,4.804
5.0,13.0,4.805
82.0,31.0,4.806
183.0,31.0,4.807
256.0,29.0,4.808
220.0,39.0,4.809
46.0,51.0,4.81
-178.0,49.0,4.811
-309.0,35.0,4.812
-292.0,27.0,4.813
-199.0,21.0,4.814
-127.0,7.0,4.815
-96.0,-18.0,4.816
-63.0,-47.0,4.817
-19.0,-75.0,4.818
4.0,-86.0,4.819
-11.0,-77.0,4.82
-23.0,-52.0,4.821
1.0,-19.0,4.822
57.0,-1.0,4.823
102.0,-8.0,4.824
108.0,-21.0,4.825
80.0,-12.0,4.826
38.0,10.0,4.827
5.0,17.0,4.828
-3.0,11.0,4.829
10.0,23.0,4.83
11.0,49.0,4.831
-45.0,56.0,4.832
-152.0,41.0,4.833
-221.0,36.0,4.834
-166.0,51.0,4.835
-21.0,47.0,4.836
67.0,18.0,4.837
27.0,-3.0,4.838
-51.0,6.0,4.839
-44.0,12.0,4.84
41.0,9.0,4.841
87.0,6.0,4.842
60.0,9.0,4.843
37.0,10.0,4.844
55.0,2.0,4.845
64.0,2.0,4.846
36.0,28.0,4.847
18.0,50.0,4.848
34.0,55.0,4.849
49.0,56.0,4.85
41.0,40.0,4.851
38.0,22.0,4.852
50.0,-3.0,4.853
45.0,-34.0,4.854
17.0,-78.0,4.855
3.0,-111.0,4.856
21.0,-107.0,4.857
37.0,-87.0,4.858
35.0,-32.0,4.859
39.0,-11.0,4.86
81.0,-33.0,4.861
133.0,-63.0,4.862
146.0,-74.0,4.863
115.0,-58.0,4.864
76.0,-19.0,4.865
53.0,29.0,4.866
9.0,58.0,4.867
-96.0,59.0,4.868
-232.0,52.0,4.869
-314.0,57.0,4.87
-305.0,66.0,4.871
-262.0,55.0,4.872
-221.0,20.0,4.873
-144.0,-18.0,4.874
-11.0,-42.0,4.875
112.0,-48.0,4.876
155.0,-50.0,4.877
125.0,-64.0,4.878
78.0,-81.0,4.879
35.0,-75.0,4.88
7.0,-38.0,4.881
23.0,5.0,4.882
85.0,25.0,4.883
122.0,21.0,4.884
83.0,20.0,4.885
13.0,25.0,4.886
-7.0,23.0,4.887
14.0,16.0,4.888
10.0,22.0,4.889
-32.0,37.0,4.89
-54.0,45.0,4.891
-26.0,39.0,4.892
17.0,32.0,4.893
38.0,31.0,4.894
44.0,33.0,4.895
52.0,32.0,4.896
57.0,28.0,4.897
38.0,23.0,4.898
2.0,20.0,4.899
-19.0,23.0,4.9
3.0,24.0,4.901
54.0,27.0,4.902
97.0,35.0,4.903
102.0,42.0,4.904
69.0,37.0,4.905
11.0,17.0,4.906
-44.0,-5.0,4.907
-71.0,-14.0,4.908
-70.0,-14.0,4.909
-58.0,-20.0,4.91
-60.0,-35.0,4.911
-70.0,-50.0,4.912
-71.0,-60.0,4.913
-58.0,-70.0,4.914
-41.0,-76.0,4.915
-26.0,-74.0,4.916
-14.0,-62.0,4.917
3.0,-52.0,4.918
36.0,-44.0,4.919
91.0,-26.0,4.92
137.0,0.0,4.921
132.0,21.0,4.922
88.0,20.0,4.923
67.0,7.0,4.924
79.0,-1.0,4.925
41.0,-1.0,4.926
-103.0,5.0,4.927
-259.0,11.0,4.928
-269.0,15.0,4.929
-135.0,2.0,4.93
-20.0,-21.0,4.931
-30.0,-30.0,4.932
-74.0,-12.0,4.933
-24.0,11.0,4.934
113.0,25.0,4.935
238.0,37.0,4.936
294.0,58.0,4.937
264.0,66.0,4.938
133.0,43.0,4.939
-63.0,11.0,4.94
-188.0,0.0,4.941
-160.0,7.0,4.942
-74.0,2.0,4.943
-76.0,-11.0,4.944
-158.0,-8.0,4.945
-182.0,7.0,4.946
-95.0,11.0,4.947
6.0,9.0,4.948
36.0,22.0,4.949
14.0,38.0,4.95
0.0,27.0,4.951
13.0,-2.0,4.952
37.0,-18.0,4.953
57.0,-7.0,4.954
61.0,6.0,4.955
51.0,9.0,4.956
46.0,15.0,4.957
64.0,32.0,4.958
82.0,49.0,4.959
58.0,56.0,4.96
-4.0,54.0,4.961
-49.0,49.0,4.962
-43.0,33.0,4.963
-8.0,-2.0,4.964
13.0,-52.0,4.965
18.0,-114.0,4.966
22.0,-171.0,4.967
32.0,-190.0,4.968
44.0,-145.0,4.969
57.0,-62.0,4.97
61.0,-1.0,4.971
42.0,11.0,4.972
-3.0,-3.0,4.973
-58.0,-4.0,4.974
-93.0,19.0,4.975
-92.0,50.0,4.976
-52.0,76.0,4.977
14.0,94.0,4.978
88.0,106.0,4.979
154.0,106.0,4.98
208.0,78.0,4.981
233.0,14.0,4.982
202.0,-71.0,4.983
112.0,-134.0,4.984
-4.0,-146.0,4.985
-107.0,-113.0,4.986
-174.0,-64.0,4.987
-189.0,-23.0,4.988
-161.0,0.0,4.989
-133.0,-2.0,4.99
-139.0,-16.0,4.991
-158.0,-9.0,4.992
-137.0,21.0,4.993
-69.0,45.0,4.994
15.0,39.0,4.995
89.0,29.0,4.996
143.0,34.0,4.997
163.0,44.0,4.998
141.0,42.0,4.999
85.0,35.0,5.0
21.0,34.0,5.001
-46.0,35.0,5.002
-115.0,21.0,5.003
-153.0,4.0,5.004
-140.0,1.0,5.005
-100.0,2.0,5.006
-81.0,-11.0,5.007
-80.0,-28.0,5.008
-35.0,-22.0,5.009
81.0,10.0,5.01
199.0,40.0,5.011
228.0,40.0,5.012
170.0,20.0,5.013
113.0,7.0,5.014
89.0,10.0,5.015
57.0,20.0,5.016
-3.0,30.0,5.017
-51.0,34.0,5.018
-40.0,29.0,5.019
4.0,7.0,5.02
22.0,-17.0,5.021
7.0,-22.0,5.022
-3.0,-11.0,5.023
0.0,-6.0,5.024
1.0,-7.0,5.025
-10.0,-4.0,5.026
-36.0,-2.0,5.027
-73.0,-16.0,5.028
-109.0,-46.0,5.029
-118.0,-64.0,5.03
-88.0,-54.0,5.031
-36.0,-27.0,5.032
9.0,1.0,5.033
31.0,23.0,5.034
26.0,29.0,5.035
5.0,10.0,5.036
-15.0,-16.0,5.037
-27.0,-37.0,5.038
-33.0,-37.0,5.039
-25.0,-25.0,5.04
8.0,-17.0,5.041
51.0,-11.0,5.042
70.0,-14.0,5.043
66.0,-21.0,5.044
82.0,-20.0,5.045
132.0,-7.0,5.046
168.0,0.0,5.047
139.0,-5.0,5.048
60.0,1.0,5.049
-13.0,34.0,5.05
-51.0,66.0,5.051
-60.0,60.0,5.052
-51.0,18.0,5.053
-36.0,-13.0,5.054
-26.0,-15.0,5.055
-22.0,1.0,5.056
-19.0,16.0,5.057
-26.0,19.0,5.058
-52.0,13.0,5.059
-83.0,14.0,5.06
-88.0,31.0,5.061
-67.0,58.0,5.062
-45.0,65.0,5.063
-14.0,43.0,5.064
48.0,14.0,5.065
109.0,-8.0,5.066
96.0,-34.0,5.067
13.0,-67.0,5.068
-38.0,-87.0,5.069
3.0,-85.0,5.07
71.0,-72.0,5.071
58.0,-58.0,5.072
-29.0,-40.0,5.073
-93.0,-15.0,5.074
-65.0,4.0,5.075
8.0,12.0,5.076
41.0,18.0,5.077
-3.0,25.0,5.078
-65.0,27.0,5.079
-68.0,20.0,5.08
-7.0,9.0,5.081
45.0,0.0,5.082
48.0,-5.0,5.083
36.0,10.0,5.084
45.0,58.0,5.085
56.0,108.0,5.086
36.0,99.0,5.087
2.0,31.0,5.088
-13.0,-22.0,5.089
-10.0,-15.0,5.09
-4.0,10.0,5.091
2.0,-11.0,5.092
19.0,-61.0,5.093
37.0,-78.0,5.094
41.0,-48.0,5.095
28.0,-13.0,5.096
6.0,0.0,5.097
-35.0,-7.0,5.098
-86.0,-18.0,5.099
-106.0,-27.0,5.1
-64.0,-24.0,5.101
12.0,-8.0,5.102
59.0,8.0,5.103
46.0,23.0,5.104
10.0,38.0,5.105
6.0,46.0,5.106
41.0,34.0,5.107
74.0,18.0,5.108
71.0,21.0,5.109
45.0,29.0,5.11
24.0,9.0,5.111
12.0,-26.0,5.112
0.0,-36.0,5.113
-2.0,-12.0,5.114
17.0,11.0,5.115
34.0,6.0,5.116
13.0,-8.0,5.117
-48.0,-16.0,5.118
-93.0,-27.0,5.119
-92.0,-50.0,5.12
-66.0,-71.0,5.121
-40.0,-58.0,5.122
-4.0,-17.0,5.123
38.0,15.0,5.124
53.0,17.0,5.125
36.0,4.0,5.126
31.0,-2.0,5.127
60.0,0.0,5.128
73.0,-2.0,5.129
25.0,-5.0,5.13
-35.0,8.0,5.131
-40.0,36.0,5.132
-5.0,56.0,5.133
12.0,51.0,5.134
-2.0,35.0,5.135
2.0,16.0,5.136
34.0,12.0,5.137
48.0,16.0,5.138
18.0,20.0,5.139
-31.0,9.0,5.14
-55.0,-19.0,5.141
-43.0,-45.0,5.142
-15.0,-49.0,5.143
11.0,-28.0,5.144
31.0,-3.0,5.145
32.0,12.0,5.146
-4.0,13.0,5.147
-75.0,9.0,5.148
-127.0,2.0,5.149
-103.0,-1.0,5.15
-15.0,0.0,5.151
49.0,3.0,5.152
46.0,5.0,5.153
26.0,7.0,5.154
30.0,11.0,5.155
17.0,13.0,5.156
-44.0,12.0,5.157
-107.0,8.0,5.158
-100.0,3.0,5.159
-60.0,-2.0,5.16
-74.0,-6.0,5.161
-112.0,-1.0,5.162
-75.0,2.0,5.163
30.0,-3.0,5.164
96.0,-7.0,5.165
91.0,3.0,5.166
94.0,20.0,5.167
143.0,24.0,5.168
173.0,9.0,5.169
144.0,-9.0,5.17
97.0,-20.0,5.171
76.0,-32.0,5.172
66.0,-50.0,5.173
45.0,-68.0,5.174
16.0,-72.0,5.175
-6.0,-53.0,5.176
-14.0,-24.0,5.177
-11.0,-1.0,5.178
-9.0,11.0,5.179
-22.0,17.0,5.18
-20.0,24.0,5.181
52.0,30.0,5.182
182.0,26.0,5.183
263.0,17.0,5.184
211.0,11.0,5.185
68.0,3.0,5.186
-59.0,-6.0,5.187
-123.0,-4.0,5.188
-159.0,16.0,5.189
-196.0,37.0,5.19
-218.0,41.0,5.191
-198.0,32.0,5.192
-135.0,22.0,5.193
-53.0,7.0,5.194
13.0,-14.0,5.195
35.0,-35.0,5.196
10.0,-41.0,5.197
-50.0,-40.0,5.198
-109.0,-42.0,5.199
-136.0,-46.0,5.2
-122.0,-50.0,5.201
-88.0,-50.0,5.202
-54.0,-34.0,5.203
-26.0,-14.0,5.204
8.0,16.0,5.205
41.0,38.0,5.206
62.0,32.0,5.207
83.0,28.0,5.208
120.0,35.0,5.209
152.0,38.0,5.21
129.0,24.0,5.211
54.0,16.0,5.212
3.0,27.0,5.213
23.0,34.0,5.214
59.0,25.0,5.215
46.0,21.0,5.216
13.0,34.0,5.217
9.0,45.0,5.218
38.0,38.0,5.219
42.0,21.0,5.22
19.0,11.0,5.221
11.0,5.0,5.222
36.0,-11.0,5.223
57.0,-30.0,5.224
53.0,-43.0,5.225
40.0,-44.0,5.226
21.0,-39.0,5.227
-23.0,-30.0,5.228
-72.0,-25.0,5.229
-85.0,-33.0,5.23
-58.0,-39.0,5.231
-37.0,-25.0,5.232
-38.0,1.0,5.233
-36.0,15.0,5.234
-24.0,8.0,5.235
-25.0,-5.0,5.236
-31.0,0.0,5.237
1.0,16.0,5.238
85.0,28.0,5.239
160.0,20.0,5.24
174.0,-2.0,5.241
140.0,-17.0,5.242
102.0,-13.0,5.243
71.0,5.0,5.244
15.0,28.0,5.245
-71.0,42.0,5.246
-159.0,40.0,5.247
-207.0,24.0,5.248
-199.0,2.0,5.249
-149.0,-18.0,5.25
-110.0,-45.0,5.251
-113.0,-76.0,5.252
-130.0,-90.0,5.253
-106.0,-69.0,5.254
-36.0,-26.0,5.255
23.0,2.0,5.256
36.0,9.0,5.257
34.0,10.0,5.258
57.0,26.0,5.259
86.0,47.0,5.26
93.0,53.0,5.261
81.0,53.0,5.262
88.0,51.0,5.263
117.0,43.0,5.264
143.0,20.0,5.265
137.0,-12.0,5.266
91.0,-37.0,5.267
18.0,-42.0,5.268
-49.0,-29.0,5.269
-86.0,-14.0,5.27
-99.0,-14.0,5.271
-87.0,-24.0,5.272
-8.0,-21.0,5.273
160.0,3.0,5.274
316.0,27.0,5.275
301.0,22.0,5.276
129.0,4.0,5.277
-44.0,-9.0,5.278
-73.0,-8.0,5.279
-53.0,-12.0,5.28
-154.0,-19.0,5.281
-319.0,-6.0,5.282
-325.0,29.0,5.283
-129.0,55.0,5.284
61.0,50.0,5.285
98.0,31.0,5.286
65.0,20.0,5.287
84.0,13.0,5.288
125.0,-6.0,5.289
106.0,-30.0,5.29
42.0,-44.0,5.291
-13.0,-49.0,5.292
-48.0,-54.0,5.293
-67.0,-55.0,5.294
-70.0,-41.0,5.295
-96.0,-14.0,5.296
-176.0,8.0,5.297
-258.0,14.0,5.298
-214.0,13.0,5.299
-51.0,13.0,5.3
56.0,16.0,5.301
15.0,21.0,5.302
-56.0,26.0,5.303
-19.0,23.0,5.304
85.0,14.0,5.305
138.0,7.0,5.306
123.0,3.0,5.307
100.0,6.0,5.308
84.0,15.0,5.309
61.0,24.0,5.31
55.0,29.0,5.311
87.0,29.0,5.312
125.0,28.0,5.313
125.0,30.0,5.314
103.0,35.0,5.315
95.0,33.0,5.316
96.0,12.0,5.317
80.0,-40.0,5.318
79.0,-92.0,5.319
136.0,-126.0,5.32
220.0,-136.0,5.321
235.0,-116.0,5.322
120.0,-65.0,5.323
-95.0,9.0,5.324
-315.0,76.0,5.325
-433.0,94.0,5.326
-403.0,56.0,5.327
-292.0,19.0,5.328
-208.0,30.0,5.329
-171.0,63.0,5.33
-120.0,60.0,5.331
-40.0,21.0,5.332
-10.0,0.0,5.333
-50.0,21.0,5.334
-63.0,34.0,5.335
27.0,13.0,5.336
143.0,-14.0,5.337
201.0,-29.0,5.338
200.0,-34.0,5.339
183.0,-42.0,5.34
144.0,-45.0,5.341
61.0,-31.0,5.342
-11.0,-22.0,5.343
-18.0,-27.0,5.344
1.0,-29.0,5.345
-16.0,-11.0,5.346
-40.0,8.0,5.347
5.0,7.0,5.348
111.0,-1.0,5.349
188.0,0.0,5.35
172.0,8.0,5.351
73.0,6.0,5.352
-51.0,4.0,5.353
-132.0,11.0,5.354
-137.0,21.0,5.355
-95.0,23.0,5.356
-44.0,23.0,5.357
28.0,23.0,5.358
117.0,18.0,5.359
137.0,6.0,5.36
16.0,0.0,5.361
-144.0,11.0,5.362
-150.0,24.0,5.363
21.0,27.0,5.364
176.0,24.0,5.365
150.0,17.0,5.366
13.0,-4.0,5.367
-65.0,-34.0,5.368
-52.0,-53.0,5.369
-61.0,-54.0,5.37
-165.0,-57.0,5.371
-284.0,-60.0,5.372
-275.0,-33.0,5.373
-119.0,20.0,5.374
32.0,57.0,5.375
36.0,53.0,5.376
-34.0,32.0,5.377
14.0,17.0,5.378
218.0,-5.0,5.379
361.0,-49.0,5.38
254.0,-85.0,5.381
19.0,-70.0,5.382
-104.0,-19.0,5.383
-86.0,15.0,5.384
-52.0,15.0,5.385
-19.0,6.0,5.386
90.0,8.0,5.387
189.0,22.0,5.388
107.0,42.0,5.389
-100.0,62.0,5.39
-176.0,72.0,5.391
-44.0,67.0,5.392
97.0,61.0,5.393
106.0,55.0,5.394
74.0,27.0,5.395
115.0,-28.0,5.396
169.0,-73.0,5.397
144.0,-75.0,5.398
71.0,-36.0,5.399
25.0,11.0,5.4
-35.0,42.0,5.401
-183.0,60.0,5.402
-311.0,59.0,5.403
-215.0,40.0,5.404
83.0,25.0,5.405
276.0,18.0,5.406
160.0,-8.0,5.407
-112.0,-78.0,5.408
-289.0,-152.0,5.409
-359.0,-168.0,5.41
-431.0,-113.0,5.411
-425.0,-44.0,5.412
-217.0,-14.0,5.413
53.0,-19.0,5.414
127.0,-25.0,5.415
24.0,-10.0,5.416
-11.0,10.0,5.417
114.0,25.0,5.418
267.0,38.0,5.419
339.0,58.0,5.42
342.0,72.0,5.421
276.0,64.0,5.422
133.0,38.0,5.423
1.0,16.0,5.424
-27.0,4.0,5.425
-7.0,-13.0,5.426
-31.0,-42.0,5.427
-55.0,-63.0,5.428
0.0,-59.0,5.429
82.0,-45.0,5.43
81.0,-37.0,5.431
1.0,-33.0,5.432
-76.0,-20.0,5.433
-106.0,8.0,5.434
-77.0,44.0,5.435
7.0,66.0,5.436
93.0,67.0,5.437
135.0,59.0,5.438
136.0,60.0,5.439
101.0,66.0,5.44
-9.0,59.0,5.441
-177.0,56.0,5.442
-231.0,75.0,5.443
-78.0,101.0,5.444
89.0,90.0,5.445
39.0,37.0,5.446
-122.0,-29.0,5.447
-127.0,-89.0,5.448
28.0,-145.0,5.449
108.0,-167.0,5.45
49.0,-124.0,5.451
6.0,-53.0,5.452
38.0,-31.0,5.453
21.0,-56.0,5.454
-69.0,-52.0,5.455
-101.0,0.0,5.456
-29.0,31.0,5.457
50.0,10.0,5.458
48.0,-3.0,5.459
7.0,23.0,5.46
-3.0,35.0,5.461
15.0,9.0,5.462
32.0,-2.0,5.463
25.0,32.0,5.464
-10.0,66.0,5.465
-44.0,49.0,5.466
-31.0,6.0,5.467
6.0,-14.0,5.468
-3.0,-16.0,5.469
-62.0,-27.0,5.47
-90.0,-40.0,5.471
-61.0,-34.0,5.472
-38.0,-6.0,5.473
-51.0,23.0,5.474
-24.0,42.0,5.475
80.0,41.0,5.476
172.0,27.0,5.477
165.0,8.0,5.478
104.0,8.0,5.479
87.0,34.0,5.48
104.0,70.0,5.481
59.0,92.0,5.482
-42.0,73.0,5.483
-84.0,15.0,5.484
-39.0,-54.0,5.485
-22.0,-104.0,5.486
-88.0,-117.0,5.487
-124.0,-86.0,5.488
-26.0,-29.0,5.489
131.0,18.0,5.49
225.0,25.0,5.491
271.0,3.0,5.492
322.0,-12.0,5.493
309.0,-14.0,5.494
142.0,-19.0,5.495
-78.0,-26.0,5.496
-167.0,-22.0,5.497
-135.0,-10.0,5.498
-189.0,5.0,5.499
-418.0,25.0,5.5
-615.0,43.0,5.501
-561.0,43.0,5.502
-310.0,16.0,5.503
-75.0,-23.0,5.504
66.0,-41.0,5.505
144.0,-33.0,5.506
132.0,-3.0,5.507
23.0,39.0,5.508
-32.0,76.0,5.509
77.0,78.0,5.51
197.0,49.0,5.511
116.0,26.0,5.512
-45.0,28.0,5.513
5.0,30.0,5.514
262.0,14.0,5.515
417.0,-11.0,5.516
338.0,-32.0,5.517
182.0,-61.0,5.518
126.0,-88.0,5.519
120.0,-92.0,5.52
42.0,-74.0,5.521
-76.0,-49.0,5.522
-123.0,-36.0,5.523
-66.0,-21.0,5.524
11.0,-9.0,5.525
-21.0,-20.0,5.526
-197.0,-49.0,5.527
-362.0,-60.0,5.528
-309.0,-34.0,5.529
-62.0,7.0,5.53
107.0,41.0,5.531
27.0,66.0,5.532
-155.0,90.0,5.533
-197.0,107.0,5.534
-59.0,113.0,5.535
109.0,123.0,5.536
174.0,142.0,5.537
111.0,134.0,5.538
1.0,66.0,5.539
-29.0,-44.0,5.54
62.0,-142.0,5.541
141.0,-175.0,5.542
85.0,-163.0,5.543
2.0,-143.0,5.544
84.0,-127.0,5.545
262.0,-103.0,5.546
257.0,-70.0,5.547
7.0,-36.0,5.548
-217.0,5.0,5.549
-185.0,62.0,5.55
-7.0,115.0,5.551
42.0,133.0,5.552
-109.0,120.0,5.553
-268.0,103.0,5.554
-231.0,89.0,5.555
-32.0,76.0,5.556
117.0,83.0,5.557
114.0,124.0,5.558
59.0,169.0,5.559
86.0,159.0,5.56
149.0,82.0,5.561
123.0,-13.0,5.562
28.0,-94.0,5.563
-23.0,-164.0,5.564
-15.0,-228.0,5.565
3.0,-269.0,5.566
59.0,-271.0,5.567
171.0,-242.0,5.568
213.0,-192.0,5.569
73.0,-120.0,5.57
-113.0,-35.0,5.571
-128.0,39.0,5.572
-15.0,85.0,5.573
-9.0,123.0,5.574
-143.0,175.0,5.575
-199.0,214.0,5.576
-87.0,202.0,5.577
44.0,128.0,5.578
58.0,52.0,5.579
27.0,30.0,5.58
26.0,53.0,5.581
-51.0,63.0,5.582
-225.0,18.0,5.583
-270.0,-61.0,5.584
-49.0,-121.0,5.585
174.0,-117.0,5.586
90.0,-57.0,5.587
-156.0,10.0,5.588
-145.0,36.0,5.589
205.0,20.0,5.59
522.0,-5.0,5.591
486.0,-8.0,5.592
177.0,4.0,5.593
-116.0,12.0,5.594
-238.0,14.0,5.595
-237.0,16.0,5.596
-192.0,9.0,5.597
-104.0,-8.0,5.598
50.0,-8.0,5.599
199.0,21.0,5.6
229.0,31.0,5.601
161.0,-15.0,5.602
120.0,-82.0,5.603
108.0,-83.0,5.604
2.0,1.0,5.605
-173.0,87.0,5.606
-207.0,107.0,5.607
-74.0,80.0,5.608
-26.0,51.0,5.609
-157.0,20.0,5.61
-207.0,-49.0,5.611
-13.0,-169.0,5.612
149.0,-289.0,5.613
2.0,-325.0,5.614
-275.0,-227.0,5.615
-341.0,-57.0,5.616
-219.0,56.0,5.617
-146.0,56.0,5.618
-161.0,18.0,5.619
-73.0,41.0,5.62
139.0,108.0,5.621
232.0,128.0,5.622
99.0,97.0,5.623
-49.0,101.0,5.624
-6.0,164.0,5.625
134.0,189.0,5.626
158.0,97.0,5.627
75.0,-55.0,5.628
73.0,-143.0,5.629
216.0,-116.0,5.63
344.0,-23.0,5.631
294.0,61.0,5.632
105.0,102.0,5.633
-46.0,85.0,5.634
-69.0,6.0,5.635
-30.0,-99.0,5.636
-37.0,-161.0,5.637
-93.0,-142.0,5.638
-92.0,-69.0,5.639
8.0,-7.0,5.64
108.0,17.0,5.641
72.0,41.0,5.642
-85.0,73.0,5.643
-203.0,77.0,5.644
-159.0,34.0,5.645
11.0,-21.0,5.646
169.0,-46.0,5.647
201.0,-26.0,5.648
111.0,27.0,5.649
-13.0,88.0,5.65
-98.0,121.0,5.651
-131.0,116.0,5.652
-118.0,95.0,5.653
-56.0,82.0,5.654
24.0,61.0,5.655
55.0,30.0,5.656
51.0,28.0,5.657
99.0,79.0,5.658
197.0,129.0,5.659
177.0,96.0,5.66
-40.0,-33.0,5.661
-228.0,-173.0,5.662
-127.0,-244.0,5.663
133.0,-224.0,5.664
182.0,-135.0,5.665
-51.0,-37.0,5.666
-238.0,6.0,5.667
-166.0,-14.0,5.668
-30.0,-56.0,5.669
-88.0,-91.0,5.67
-284.0,-128.0,5.671
-368.0,-158.0,5.672
-229.0,-153.0,5.673
18.0,-117.0,5.674
200.0,-84.0,5.675
232.0,-64.0,5.676
159.0,-31.0,5.677
72.0,13.0,5.678
38.0,36.0,5.679
28.0,36.0,5.68
96.0,48.0,5.681
148.0,90.0,5.682
153.0,132.0,5.683
129.0,165.0,5.684
13.0,197.0,5.685
-73.0,215.0,5.686
-67.0,182.0,5.687
-62.0,98.0,5.688
-62.0,15.0,5.689
-47.0,-29.0,5.69
10.0,-37.0,5.691
24.0,-21.0,5.692
-97.0,13.0,5.693
-150.0,47.0,5.694
7.0,57.0,5.695
146.0,43.0,5.696
228.0,29.0,5.697
255.0,-3.0,5.698
87.0,-67.0,5.699
-39.0,-136.0,5.7
-50.0,-143.0,5.701
19.0,-63.0,5.702
75.0,44.0,5.703
41.0,111.0,5.704
-49.0,126.0,5.705
-91.0,100.0,5.706
-57.0,38.0,5.707
-26.0,-34.0,5.708
-65.0,-70.0,5.709
-123.0,-63.0,5.71
-131.0,-67.0,5.711
-87.0,-104.0,5.712
-24.0,-129.0,5.713
18.0,-108.0,5.714
-6.0,-70.0,5.715
-72.0,-68.0,5.716
-66.0,-99.0,5.717
72.0,-121.0,5.718
196.0,-102.0,5.719
150.0,-51.0,5.72
27.0,-5.0,5.721
21.0,28.0,5.722
86.0,58.0,5.723
48.0,106.0,5.724
-54.0,160.0,5.725
-40.0,181.0,5.726
63.0,147.0,5.727
69.0,83.0,5.728
-33.0,34.0,5.729
-94.0,12.0,5.73
-118.0,3.0,5.731
-221.0,-8.0,5.732
-339.0,-23.0,5.733
-253.0,-21.0,5.734
60.0,10.0,5.735
372.0,45.0,5.736
477.0,27.0,5.737
343.0,-34.0,5.738
75.0,-100.0,5.739
-144.0,-124.0,5.74
-145.0,-19.0,5.741
58.0,47.0,5.742
236.0,-4.0,5.743
199.0,-61.0,5.744
0.0,-135.0,5.745
-171.0,-184.0,5.746
-196.0,-152.0,5.747
-83.0,-110.0,5.748
61.0,-40.0,5.749
112.0,22.0,5.75
40.0,62.0,5.751
-44.0,108.0,5.752
-38.0,169.0,5.753
7.0,221.0,5.754
-19.0,248.0,5.755
-111.0,259.0,5.756
-164.0,220.0,5.757
-143.0,178.0,5.758
-100.0,122.0,5.759
-89.0,56.0,5.76
-99.0,-4.0,5.761
-87.0,-46.0,5.762
-36.0,-86.0,5.763
30.0,-125.0,5.764
72.0,-152.0,5.765
74.0,-183.0,5.766
66.0,-222.0,5.767
67.0,-225.0,5.768
61.0,-149.0,5.769
44.0,-29.0,5.77
53.0,50.0,5.771
99.0,58.0,5.772
120.0,44.0,5.773
64.0,45.0,5.774
-38.0,38.0,5.775
-144.0,-11.0,5.776
-247.0,-68.0,5.777
-282.0,-61.0,5.778
-150.0,50.0,5.779
7.0,188.0,5.78
242.0,225.0,5.781
387.0,143.0,5.782
259.0,25.0,5.783
139.0,-48.0,5.784
47.0,-84.0,5.785
-7.0,-97.0,5.786
57.0,-59.0,5.787
91.0,4.0,5.788
33.0,-9.0,5.789
-15.0,-141.0,5.79
-37.0,-271.0,5.791
-49.0,-268.0,5.792
-29.0,-157.0,5.793
-17.0,-78.0,5.794
-33.0,-81.0,5.795
-47.0,-88.0,5.796
-53.0,-39.0,5.797
-64.0,37.0,5.798
-79.0,71.0,5.799
-59.0,54.0,5.8
-26.0,38.0,5.801
13.0,70.0,5.802
73.0,137.0,5.803
111.0,202.0,5.804
68.0,245.0,5.805
-30.0,268.0,5.806
-104.0,265.0,5.807
-125.0,223.0,5.808
-117.0,136.0,5.809
-70.0,33.0,5.81
36.0,-41.0,5.811
138.0,-65.0,5.812
149.0,-56.0,5.813
73.0,-48.0,5.814
-3.0,-62.0,5.815
-30.0,-83.0,5.816
-36.0,-94.0,5.817
-47.0,-77.0,5.818
-51.0,-29.0,5.819
-39.0,16.0,5.82
-27.0,54.0,5.821
-34.0,74.0,5.822
-57.0,36.0,5.823
-67.0,-18.0,5.824
-36.0,-124.0,5.825
19.0,-221.0,5.826
51.0,-287.0,5.827
35.0,-306.0,5.828
16.0,-180.0,5.829
25.0,-69.0,5.83
35.0,-7.0,5.831
9.0,41.0,5.832
-12.0,53.0,5.833
19.0,64.0,5.834
67.0,73.0,5.835
60.0,80.0,5.836
4.0,84.0,5.837
-54.0,92.0,5.838
-85.0,99.0,5.839
-96.0,82.0,5.84
-53.0,55.0,5.841
56.0,25.0,5.842
159.0,-16.0,5.843
156.0,-47.0,5.844
63.0,-28.0,5.845
-7.0,11.0,5.846
-15.0,5.0,5.847
-4.0,-32.0,5.848
12.0,-23.0,5.849
63.0,31.0,5.85
120.0,42.0,5.851
100.0,-16.0,5.852
0.0,-67.0,5.853
-85.0,-61.0,5.854
-91.0,-42.0,5.855
-57.0,-48.0,5.856
-41.0,-51.0,5.857
-37.0,-29.0,5.858
-28.0,-4.0,5.859
-25.0,10.0,5.86
-39.0,29.0,5.861
-54.0,60.0,5.862
-58.0,70.0,5.863
-75.0,50.0,5.864
-93.0,31.0,5.865
-58.0,25.0,5.866
40.0,16.0,5.867
128.0,1.0,5.868
141.0,-6.0,5.869
113.0,-14.0,5.87
98.0,-41.0,5.871
87.0,-72.0,5.872
45.0,-71.0,5.873
1.0,-42.0,5.874
8.0,-16.0,5.875
49.0,1.0,5.876
65.0,31.0,5.877
42.0,76.0,5.878
7.0,119.0,5.879
-34.0,147.0,5.88
-80.0,162.0,5.881
-120.0,167.0,5.882
-156.0,150.0,5.883
-206.0,117.0,5.884
-231.0,85.0,5.885
-148.0,62.0,5.886
36.0,32.0,5.887
191.0,-14.0,5.888
221.0,-61.0,5.889
173.0,-94.0,5.89
121.0,-113.0,5.891
71.0,-124.0,5.892
23.0,-130.0,5.893
21.0,-138.0,5.894
54.0,-158.0,5.895
49.0,-187.0,5.896
-9.0,-192.0,5.897
-53.0,-152.0,5.898
-32.0,-79.0,5.899
2.0,-17.0,5.9
6.0,10.0,5.901
2.0,26.0,5.902
-6.0,44.0,5.903
-50.0,57.0,5.904
-99.0,54.0,5.905
-68.0,38.0,5.906
14.0,15.0,5.907
41.0,-17.0,5.908
-6.0,-56.0,5.909
-41.0,-72.0,5.91
-38.0,-36.0,5.911
-53.0,34.0,5.912
-78.0,83.0,5.913
-43.0,84.0,5.914
32.0,75.0,5.915
58.0,93.0,5.916
28.0,112.0,5.917
8.0,93.0,5.918
14.0,52.0,5.919
-5.0,21.0,5.92
-41.0,23.0,5.921
-28.0,29.0,5.922
29.0,47.0,5.923
57.0,68.0,5.924
21.0,92.0,5.925
-37.0,90.0,5.926
-83.0,12.0,5.927
-104.0,-65.0,5.928
-77.0,-144.0,5.929
6.0,-196.0,5.93
108.0,-164.0,5.931
175.0,-125.0,5.932
183.0,-69.0,5.933
137.0,-21.0,5.934
59.0,-1.0,5.935
10.0,17.0,5.936
25.0,31.0,5.937
61.0,44.0,5.938
41.0,50.0,5.939
-28.0,59.0,5.94
-70.0,60.0,5.941
-70.0,59.0,5.942
-71.0,63.0,5.943
-74.0,74.0,5.944
-32.0,70.0,5.945
38.0,42.0,5.946
45.0,5.0,5.947
-22.0,-20.0,5.948
-54.0,-28.0,5.949
5.0,-30.0,5.95
68.0,-31.0,5.951
16.0,-33.0,5.952
-118.0,-42.0,5.953
-206.0,-59.0,5.954
-181.0,-80.0,5.955
-86.0,-85.0,5.956
23.0,-67.0,5.957
134.0,-45.0,5.958
205.0,-33.0,5.959
175.0,-26.0,5.96
62.0,-4.0,5.961
-53.0,36.0,5.962
-120.0,56.0,5.963
-152.0,39.0,5.964
-140.0,11.0,5.965
-47.0,6.0,5.966
94.0,21.0,5.967
188.0,48.0,5.968
196.0,72.0,5.969
153.0,75.0,5.97
87.0,41.0,5.971
-1.0,-10.0,5.972
-64.0,-45.0,5.973
-45.0,-58.0,5.974
16.0,-61.0,5.975
26.0,-60.0,5.976
-17.0,-51.0,5.977
-46.0,-42.0,5.978
-13.0,-32.0,5.979
45.0,-15.0,5.98
88.0,25.0,5.981
102.0,58.0,5.982
85.0,68.0,5.983
36.0,78.0,5.984
-24.0,85.0,5.985
-70.0,86.0,5.986
-98.0,67.0,5.987
-95.0,46.0,5.988
-49.0,24.0,5.989
24.0,2.0,5.99
68.0,-16.0,5.991
45.0,-31.0,5.992
-13.0,-31.0,5.993
-63.0,-29.0,5.994
-87.0,-27.0,5.995
-85.0,-21.0,5.996
-50.0,-3.0,5.997
13.0,10.0,5.998
51.0,-3.0,5.999
1.0,-34.0,6.0
-109.0,-42.0,6.001
-176.0,-17.0,6.002
-138.0,-9.0,6.003
-37.0,-54.0,6.004
43.0,-113.0,6.005
76.0,-118.0,6.006
80.0,-67.0,6.007
77.0,-35.0,6.008
84.0,-69.0,6.009
89.0,-113.0,6.01
61.0,-85.0,6.011
-18.0,13.0,6.012
-93.0,98.0,6.013
-83.0,111.0,6.014
0.0,76.0,6.015
69.0,45.0,6.016
84.0,33.0,6.017
79.0,35.0,6.018
78.0,53.0,6.019
46.0,74.0,6.02
-25.0,63.0,6.021
-89.0,18.0,6.022
-111.0,-25.0,6.023
-114.0,-30.0,6.024
-119.0,-7.0,6.025
-97.0,22.0,6.026
-35.0,48.0,6.027
25.0,66.0,6.028
50.0,63.0,6.029
70.0,43.0,6.03
111.0,25.0,6.031
154.0,13.0,6.032
183.0,-1.0,6.033
217.0,-21.0,6.034
245.0,-36.0,6.035
194.0,-44.0,6.036
64.0,-53.0,6.037
-52.0,-56.0,6.038
-65.0,-32.0,6.039
-32.0,4.0,6.04
-52.0,20.0,6.041
-106.0,19.0,6.042
-113.0,27.0,6.043
-81.0,39.0,6.044
-68.0,27.0,6.045
-69.0,-14.0,6.046
-43.0,-46.0,6.047
-25.0,-43.0,6.048
-64.0,-22.0,6.049
-114.0,-10.0,6.05
-100.0,-3.0,6.051
-32.0,11.0,6.052
29.0,31.0,6.053
64.0,38.0,6.054
83.0,30.0,6.055
51.0,11.0,6.056
-30.0,-5.0,6.057
-98.0,-16.0,6.058
-80.0,-10.0,6.059
-15.0,-10.0,6.06
15.0,-27.0,6.061
17.0,-36.0,6.062
43.0,-22.0,6.063
68.0,-6.0,6.064
37.0,14.0,6.065
-16.0,23.0,6.066
-21.0,-2.0,6.067
12.0,-21.0,6.068
21.0,-21.0,6.069
10.0,-20.0,6.07
37.0,-21.0,6.071
105.0,-18.0,6.072
151.0,-4.0,6.073
130.0,-1.0,6.074
52.0,-37.0,6.075
-53.0,-63.0,6.076
-136.0,-60.0,6.077
-165.0,-48.0,6.078
-131.0,-16.0,6.079
-77.0,0.0,6.08
-51.0,8.0,6.081
-55.0,28.0,6.082
-52.0,49.0,6.083
-9.0,54.0,6.084
62.0,54.0,6.085
110.0,58.0,6.086
99.0,57.0,6.087
60.0,33.0,6.088
43.0,-1.0,6.089
38.0,-21.0,6.09
-3.0,-28.0,6.091
-58.0,-43.0,6.092
-56.0,-52.0,6.093
0.0,-30.0,6.094
39.0,16.0,6.095
42.0,57.0,6.096
73.0,76.0,6.097
152.0,84.0,6.098
198.0,91.0,6.099
149.0,77.0,6.1
77.0,14.0,6.101
64.0,-81.0,6.102
79.0,-157.0,6.103
32.0,-159.0,6.104
-68.0,-83.0,6.105
-142.0,3.0,6.106
-166.0,31.0,6.107
-187.0,10.0,6.108
-205.0,0.0,6.109
-175.0,23.0,6.11
-96.0,41.0,6.111
-38.0,37.0,6.112
-30.0,34.0,6.113
-27.0,44.0,6.114
-9.0,41.0,6.115
-9.0,16.0,6.116
-36.0,-4.0,6.117
-45.0,-4.0,6.118
4.0,2.0,6.119
59.0,-11.0,6.12
132.0,-49.0,6.121
194.0,-79.0,6.122
222.0,-72.0,6.123
226.0,-24.0,6.124
156.0,26.0,6.125
71.0,30.0,6.126
-57.0,-5.0,6.127
-155.0,-23.0,6.128
-159.0,-3.0,6.129
-164.0,20.0,6.13
-172.0,20.0,6.131
-163.0,19.0,6.132
-103.0,28.0,6.133
-37.0,19.0,6.134
47.0,-15.0,6.135
122.0,-37.0,6.136
170.0,-16.0,6.137
203.0,21.0,6.138
163.0,39.0,6.139
94.0,36.0,6.14
30.0,27.0,6.141
-23.0,18.0,6.142
-53.0,15.0,6.143
-49.0,30.0,6.144
-33.0,51.0,6.145
-38.0,41.0,6.146
-43.0,-9.0,6.147
-1.0,-62.0,6.148
81.0,-84.0,6.149
130.0,-77.0,6.15
101.0,-58.0,6.151
21.0,-28.0,6.152
-60.0,-1.0,6.153
-103.0,7.0,6.154
-92.0,2.0,6.155
-56.0,15.0,6.156
-42.0,46.0,6.157
-61.0,54.0,6.158
-62.0,27.0,6.159
-21.0,4.0,6.16
10.0,-2.0,6.161
-9.0,-9.0,6.162
-39.0,-15.0,6.163
-25.0,-18.0,6.164
19.0,-10.0,6.165
41.0,-1.0,6.166
32.0,9.0,6.167
21.0,17.0,6.168
23.0,15.0,6.169
33.0,4.0,6.17
48.0,-31.0,6.171
62.0,-58.0,6.172
56.0,-62.0,6.173
23.0,-57.0,6.174
-27.0,-25.0,6.175
-75.0,-2.0,6.176
-103.0,-7.0,6.177
-110.0,-11.0,6.178
-82.0,-4.0,6.179
-6.0,8.0,6.18
112.0,13.0,6.181
210.0,22.0,6.182
206.0,35.0,6.183
96.0,46.0,6.184
-12.0,45.0,6.185
-29.0,36.0,6.186
-3.0,28.0,6.187
-38.0,23.0,6.188
-124.0,25.0,6.189
-157.0,30.0,6.19
-98.0,30.0,6.191
-20.0,25.0,6.192
15.0,20.0,6.193
34.0,20.0,6.194
63.0,20.0,6.195
61.0,6.0,6.196
2.0,-22.0,6.197
-65.0,-64.0,6.198
-73.0,-94.0,6.199
-68.0,-88.0,6.2
-22.0,-53.0,6.201
19.0,-10.0,6.202
47.0,7.0,6.203
65.0,1.0,6.204
54.0,2.0,6.205
37.0,19.0,6.206
0.0,35.0,6.207
-29.0,32.0,6.208
-31.0,21.0,6.209
-27.0,17.0,6.21
-5.0,10.0,6.211
18.0,-3.0,6.212
46.0,-10.0,6.213
66.0,-2.0,6.214
59.0,6.0,6.215
51.0,3.0,6.216
42.0,0.0,6.217
32.0,7.0,6.218
26.0,22.0,6.219
31.0,27.0,6.22
30.0,17.0,6.221
13.0,8.0,6.222
5.0,-2.0,6.223
28.0,-10.0,6.224
50.0,-8.0,6.225
40.0,-1.0,6.226
9.0,-9.0,6.227
-8.0,-36.0,6.228
-1.0,-61.0,6.229
14.0,-67.0,6.23
9.0,-64.0,6.231
-24.0,-66.0,6.232
-68.0,-63.0,6.233
-92.0,-42.0,6.234
-81.0,-11.0,6.235
-55.0,13.0,6.236
-39.0,26.0,6.237
-30.0,30.0,6.238
-10.0,36.0,6.239
12.0,42.0,6.24
18.0,37.0,6.241
4.0,24.0,6.242
-2.0,4.0,6.243
24.0,-12.0,6.244
73.0,-21.0,6.245
94.0,-26.0,6.246
51.0,-30.0,6.247
-30.0,-32.0,6.248
-77.0,-28.0,6.249
-58.0,-11.0,6.25
-11.0,20.0,6.251
23.0,47.0,6.252
42.0,55.0,6.253
43.0,44.0,6.254
6.0,37.0,6.255
-44.0,43.0,6.256
-52.0,42.0,6.257
-8.0,28.0,6.258
25.0,17.0,6.259
1.0,22.0,6.26
-45.0,19.0,6.261
-65.0,4.0,6.262
-62.0,-7.0,6.263
-50.0,-1.0,6.264
-15.0,9.0,6.265
46.0,6.0,6.266
91.0,-7.0,6.267
84.0,-13.0,6.268
56.0,-12.0,6.269
48.0,-16.0,6.27
39.0,-25.0,6.271
-9.0,-29.0,6.272
-81.0,-18.0,6.273
-108.0,2.0,6.274
-67.0,17.0,6.275
-9.0,20.0,6.276
17.0,18.0,6.277
12.0,19.0,6.278
10.0,23.0,6.279
14.0,20.0,6.28
7.0,8.0,6.281
-10.0,2.0,6.282
-1.0,2.0,6.283
44.0,4.0,6.284
76.0,4.0,6.285
48.0,1.0,6.286
-11.0,-8.0,6.287
-37.0,-24.0,6.288
-19.0,-29.0,6.289
0.0,-15.0,6.29
3.0,-2.0,6.291
18.0,-11.0,6.292
50.0,-39.0,6.293
66.0,-59.0,6.294
49.0,-62.0,6.295
21.0,-54.0,6.296
11.0,-42.0,6.297
8.0,-21.0,6.298
11.0,8.0,6.299
24.0,32.0,6.3
44.0,33.0,6.301
47.0,24.0,6.302
20.0,12.0,6.303
-16.0,10.0,6.304
-52.0,24.0,6.305
-84.0,43.0,6.306
-92.0,47.0,6.307
-59.0,30.0,6.308
-4.0,1.0,6.309
32.0,-17.0,6.31
36.0,-23.0,6.311
26.0,-23.0,6.312
23.0,-26.0,6.313
40.0,-28.0,6.314
69.0,-22.0,6.315
80.0,-7.0,6.316
54.0,14.0,6.317
3.0,35.0,6.318
-20.0,49.0,6.319
-15.0,48.0,6.32
-25.0,1.0,6.321
-62.0,-39.0,6.322
-63.0,-61.0,6.323
-3.0,-65.0,6.324
50.0,-13.0,6.325
14.0,24.0,6.326
-79.0,10.0,6.327
-136.0,0.0,6.328
-121.0,-2.0,6.329
-68.0,-4.0,6.33
-1.0,-5.0,6.331
69.0,-6.0,6.332
95.0,-4.0,6.333
45.0,0.0,6.334
-29.0,9.0,6.335
-57.0,19.0,6.336
-37.0,30.0,6.337
-19.0,40.0,6.338
-8.0,38.0,6.339
20.0,32.0,6.34
56.0,24.0,6.341
56.0,12.0,6.342
23.0,-8.0,6.343
2.0,-28.0,6.344
5.0,-41.0,6.345
9.0,-46.0,6.346
12.0,-36.0,6.347
28.0,-14.0,6.348
39.0,6.0,6.349
24.0,7.0,6.35
3.0,-8.0,6.351
20.0,-10.0,6.352
57.0,4.0,6.353
62.0,25.0,6.354
34.0,34.0,6.355
11.0,38.0,6.356
5.0,44.0,6.357
-10.0,41.0,6.358
-32.0,30.0,6.359
-37.0,15.0,6.36
-14.0,1.0,6.361
16.0,-13.0,6.362
42.0,-29.0,6.363
69.0,-43.0,6.364
82.0,-56.0,6.365
64.0,-73.0,6.366
15.0,-85.0,6.367
-30.0,-76.0,6.368
-62.0,-47.0,6.369
-89.0,-19.0,6.37
-110.0,-8.0,6.371
-106.0,-4.0,6.372
-77.0,8.0,6.373
-47.0,29.0,6.374
-28.0,43.0,6.375
-16.0,45.0,6.376
0.0,45.0,6.377
13.0,36.0,6.378
22.0,21.0,6.379
34.0,6.0,6.38
54.0,1.0,6.381
65.0,16.0,6.382
52.0,37.0,6.383
29.0,46.0,6.384
15.0,38.0,6.385
20.0,26.0,6.386
35.0,19.0,6.387
52.0,8.0,6.388
68.0,-13.0,6.389
77.0,-37.0,6.39
72.0,-43.0,6.391
50.0,-25.0,6.392
5.0,-5.0,6.393
-55.0,-4.0,6.394
-119.0,-16.0,6.395
-157.0,-26.0,6.396
-149.0,-24.0,6.397
-103.0,-17.0,6.398
-54.0,-8.0,6.399
-39.0,-3.0,6.4
-34.0,-3.0,6.401
8.0,4.0,6.402
89.0,21.0,6.403
135.0,34.0,6.404
93.0,32.0,6.405
12.0,22.0,6.406
-8.0,12.0,6.407
69.0,6.0,6.408
168.0,0.0,6.409
198.0,-1.0,6.41
151.0,8.0,6.411
86.0,7.0,6.412
34.0,-8.0,6.413
-31.0,-23.0,6.414
-128.0,-19.0,6.415
-209.0,-12.0,6.416
-222.0,-18.0,6.417
-180.0,-31.0,6.418
-135.0,-22.0,6.419
-100.0,2.0,6.42
-48.0,10.0,6.421
12.0,-4.0,6.422
45.0,-13.0,6.423
49.0,-2.0,6.424
59.0,18.0,6.425
70.0,29.0,6.426
55.0,30.0,6.427
27.0,33.0,6.428
28.0,36.0,6.429
58.0,34.0,6.43
75.0,33.0,6.431
62.0,30.0,6.432
43.0,15.0,6.433
26.0,-21.0,6.434
3.0,-67.0,6.435
-22.0,-95.0,6.436
-33.0,-84.0,6.437
-36.0,-47.0,6.438
-40.0,-21.0,6.439
-45.0,-23.0,6.44
-37.0,-36.0,6.441
-18.0,-27.0,6.442
7.0,-4.0,6.443
34.0,9.0,6.444
57.0,14.0,6.445
63.0,24.0,6.446
56.0,37.0,6.447
49.0,41.0,6.448
44.0,41.0,6.449
25.0,49.0,6.45
-13.0,52.0,6.451
-52.0,41.0,6.452
-73.0,24.0,6.453
-70.0,8.0,6.454
-57.0,-11.0,6.455
-51.0,-47.0,6.456
-56.0,-79.0,6.457
-62.0,-92.0,6.458
-50.0,-80.0,6.459
-18.0,-56.0,6.46
23.0,-33.0,6.461
58.0,-9.0,6.462
78.0,6.0,6.463
75.0,13.0,6.464
49.0,22.0,6.465
16.0,34.0,6.466
-1.0,36.0,6.467
13.0,25.0,6.468
54.0,20.0,6.469
104.0,26.0,6.47
141.0,29.0,6.471
148.0,25.0,6.472
124.0,21.0,6.473
70.0,26.0,6.474
-8.0,28.0,6.475
-91.0,23.0,6.476
-143.0,19.0,6.477
-155.0,18.0,6.478
-149.0,11.0,6.479
-137.0,-2.0,6.48
-110.0,-16.0,6.481
-75.0,-14.0,6.482
-20.0,-4.0,6.483
22.0,4.0,6.484
23.0,8.0,6.485
25.0,10.0,6.486
23.0,14.0,6.487
20.0,14.0,6.488
13.0,8.0,6.489
11.0,-5.0,6.49
23.0,-24.0,6.491
31.0,-36.0,6.492
25.0,-27.0,6.493
19.0,-8.0,6.494
15.0,-2.0,6.495
12.0,-15.0,6.496
16.0,-28.0,6.497
19.0,-31.0,6.498
11.0,-23.0,6.499
2.0,-13.0,6.5
4.0,-9.0,6.501
25.0,0.0,6.502
65.0,0.0,6.503
105.0,-5.0,6.504
102.0,-4.0,6.505
50.0,8.0,6.506
-19.0,13.0,6.507
-60.0,0.0,6.508
-65.0,-11.0,6.509
-59.0,-3.0,6.51
-63.0,15.0,6.511
-68.0,18.0,6.512
-61.0,9.0,6.513
-41.0,7.0,6.514
-18.0,12.0,6.515
0.0,10.0,6.516
12.0,2.0,6.517
13.0,-5.0,6.518
7.0,-5.0,6.519
0.0,-8.0,6.52
1.0,-17.0,6.521
7.0,-21.0,6.522
3.0,-6.0,6.523
-8.0,6.0,6.524
-14.0,4.0,6.525
-1.0,4.0,6.526
28.0,8.0,6.527
59.0,12.0,6.528
88.0,12.0,6.529
107.0,8.0,6.53
99.0,-5.0,6.531
54.0,-15.0,6.532
-6.0,-12.0,6.533
-38.0,-8.0,6.534
-33.0,0.0,6.535
-16.0,8.0,6.536
-15.0,14.0,6.537
-34.0,20.0,6.538
-52.0,22.0,6.539
-55.0,19.0,6.54
-39.0,8.0,6.541
-13.0,-2.0,6.542
1.0,-5.0,6.543
-3.0,-8.0,6.544
-6.0,-15.0,6.545
8.0,-25.0,6.546
27.0,-24.0,6.547
23.0,-12.0,6.548
0.0,-6.0,6.549
-11.0,-11.0,6.55
3.0,-17.0,6.551
30.0,-11.0,6.552
57.0,0.0,6.553
78.0,5.0,6.554
71.0,1.0,6.555
25.0,-3.0,6.556
-26.0,-4.0,6.557
-52.0,-7.0,6.558
-49.0,-9.0,6.559
-51.0,-2.0,6.56
-61.0,9.0,6.561
-61.0,12.0,6.562
-36.0,6.0,6.563
-5.0,2.0,6.564
18.0,12.0,6.565
22.0,26.0,6.566
13.0,28.0,6.567
12.0,17.0,6.568
35.0,4.0,6.569
72.0,0.0,6.57
87.0,4.0,6.571
76.0,10.0,6.572
66.0,12.0,6.573
70.0,3.0,6.574
52.0,-13.0,6.575
-7.0,-25.0,6.576
-68.0,-19.0,6.577
-96.0,-3.0,6.578
-76.0,7.0,6.579
-34.0,0.0,6.58
3.0,-19.0,6.581
17.0,-34.0,6.582
-3.0,-36.0,6.583
-44.0,-31.0,6.584
-75.0,-22.0,6.585
-76.0,-11.0,6.586
-51.0,4.0,6.587
-6.0,13.0,6.588
50.0,12.0,6.589
94.0,5.0,6.59
92.0,5.0,6.591
47.0,15.0,6.592
8.0,22.0,6.593
4.0,16.0,6.594
8.0,4.0,6.595
-22.0,-2.0,6.596
-71.0,3.0,6.597
-109.0,8.0,6.598
-109.0,9.0,6.599
-86.0,2.0,6.6
-54.0,-6.0,6.601
-16.0,-9.0,6.602
20.0,-12.0,6.603
43.0,-13.0,6.604
59.0,-10.0,6.605
75.0,-3.0,6.606
77.0,5.0,6.607
54.0,9.0,6.608
23.0,18.0,6.609
20.0,36.0,6.61
44.0,49.0,6.611
66.0,41.0,6.612
62.0,15.0,6.613
36.0,-14.0,6.614
3.0,-35.0,6.615
-22.0,-46.0,6.616
-24.0,-46.0,6.617
-4.0,-37.0,6.618
23.0,-22.0,6.619
28.0,-14.0,6.62
13.0,-14.0,6.621
-2.0,-10.0,6.622
-5.0,-3.0,6.623
-8.0,5.0,6.624
-19.0,12.0,6.625
-20.0,17.0,6.626
4.0,14.0,6.627
33.0,2.0,6.628
32.0,-7.0,6.629
4.0,-7.0,6.63
-13.0,-3.0,6.631
2.0,3.0,6.632
24.0,14.0,6.633
28.0,22.0,6.634
15.0,13.0,6.635
-2.0,-3.0,6.636
-17.0,-3.0,6.637
-38.0,19.0,6.638
-48.0,44.0,6.639
-35.0,51.0,6.64
-1.0,37.0,6.641
33.0,16.0,6.642
53.0,-5.0,6.643
55.0,-24.0,6.644
41.0,-41.0,6.645
15.0,-59.0,6.646
-26.0,-74.0,6.647
-75.0,-73.0,6.648
-99.0,-48.0,6.649
-75.0,-11.0,6.65
-18.0,14.0,6.651
29.0,24.0,6.652
42.0,25.0,6.653
27.0,21.0,6.654
-5.0,10.0,6.655
-42.0,0.0,6.656
-66.0,-1.0,6.657
-67.0,-2.0,6.658
-49.0,-5.0,6.659
-28.0,-11.0,6.66
-3.0,-6.0,6.661
21.0,16.0,6.662
31.0,32.0,6.663
33.0,24.0,6.664
39.0,7.0,6.665
47.0,7.0,6.666
37.0,19.0,6.667
6.0,21.0,6.668
-18.0,2.0,6.669
-24.0,-13.0,6.67
-23.0,-7.0,6.671
-17.0,0.0,6.672
2.0,-7.0,6.673
33.0,-15.0,6.674
59.0,1.0,6.675
80.0,27.0,6.676
97.0,33.0,6.677
97.0,12.0,6.678
67.0,-4.0,6.679
17.0,-1.0,6.68
-29.0,1.0,6.681
-60.0,-3.0,6.682
-72.0,-4.0,6.683
-60.0,6.0,6.684
-25.0,13.0,6.685
10.0,2.0,6.686
30.0,-17.0,6.687
35.0,-30.0,6.688
37.0,-33.0,6.689
36.0,-30.0,6.69
27.0,-22.0,6.691
5.0,-15.0,6.692
-20.0,-6.0,6.693
-31.0,4.0,6.694
-24.0,15.0,6.695
-13.0,15.0,6.696
-13.0,-1.0,6.697
-18.0,-27.0,6.698
-15.0,-42.0,6.699
-15.0,-35.0,6.7
-20.0,-17.0,6.701
-21.0,4.0,6.702
-8.0,20.0,6.703
7.0,32.0,6.704
10.0,34.0,6.705
11.0,23.0,6.706
18.0,2.0,6.707
22.0,-8.0,6.708
14.0,0.0,6.709
4.0,23.0,6.71
9.0,39.0,6.711
19.0,33.0,6.712
15.0,12.0,6.713
0.0,-8.0,6.714
-8.0,-17.0,6.715
-10.0,-17.0,6.716
0.0,-10.0,6.717
26.0,-3.0,6.718
62.0,0.0,6.719
66.0,-2.0,6.72
21.0,-5.0,6.721
-32.0,-4.0,6.722
-42.0,-2.0,6.723
-12.0,-4.0,6.724
18.0,-8.0,6.725
32.0,-9.0,6.726
36.0,-10.0,6.727
30.0,-13.0,6.728
4.0,-18.0,6.729
-24.0,-18.0,6.73
-37.0,-13.0,6.731
-47.0,-10.0,6.732
-74.0,-12.0,6.733
-96.0,-8.0,6.734
-84.0,6.0,6.735
-49.0,18.0,6.736
-24.0,20.0,6.737
-13.0,13.0,6.738
3.0,10.0,6.739
18.0,9.0,6.74
16.0,1.0,6.741
17.0,-6.0,6.742
41.0,-5.0,6.743
62.0,2.0,6.744
43.0,1.0,6.745
12.0,-7.0,6.746
18.0,-8.0,6.747
56.0,10.0,6.748
66.0,35.0,6.749
27.0,39.0,6.75
-13.0,17.0,6.751
-8.0,-10.0,6.752
45.0,-13.0,6.753
115.0,-1.0,6.754
156.0,9.0,6.755
136.0,9.0,6.756
70.0,12.0,6.757
-11.0,17.0,6.758
-80.0,6.0,6.759
-140.0,-17.0,6.76
-181.0,-32.0,6.761
-167.0,-20.0,6.762
-87.0,-3.0,6.763
-11.0,-2.0,6.764
-3.0,-5.0,6.765
-35.0,3.0,6.766
-40.0,18.0,6.767
-13.0,26.0,6.768
-4.0,25.0,6.769
-22.0,18.0,6.77
-26.0,0.0,6.771
7.0,-28.0,6.772
54.0,-49.0,6.773
91.0,-41.0,6.774
110.0,-15.0,6.775
93.0,-1.0,6.776
49.0,-3.0,6.777
16.0,-7.0,6.778
35.0,-4.0,6.779
66.0,0.0,6.78
44.0,-4.0,6.781
-28.0,-2.0,6.782
-88.0,12.0,6.783
-101.0,23.0,6.784
-80.0,18.0,6.785
-43.0,8.0,6.786
3.0,6.0,6.787
43.0,7.0,6.788
59.0,2.0,6.789
49.0,-3.0,6.79
27.0,3.0,6.791
0.0,19.0,6.792
-21.0,24.0,6.793
-17.0,8.0,6.794
16.0,-13.0,6.795
52.0,-19.0,6.796
58.0,-13.0,6.797
33.0,-9.0,6.798
7.0,-15.0,6.799
-17.0,-23.0,6.8
-34.0,-20.0,6.801
-46.0,-11.0,6.802
-40.0,-14.0,6.803
-29.0,-23.0,6.804
-1.0,-19.0,6.805
13.0,-3.0,6.806
-13.0,2.0,6.807
-25.0,-4.0,6.808
12.0,-6.0,6.809
41.0,4.0,6.81
40.0,12.0,6.811
40.0,11.0,6.812
46.0,13.0,6.813
41.0,30.0,6.814
1.0,41.0,6.815
-22.0,30.0,6.816
11.0,10.0,6.817
53.0,-1.0,6.818
109.0,-3.0,6.819
110.0,-3.0,6.82
55.0,-5.0,6.821
-34.0,2.0,6.822
-112.0,9.0,6.823
-136.0,7.0,6.824
-106.0,5.0,6.825
-68.0,10.0,6.826
-56.0,8.0,6.827
-67.0,-13.0,6.828
-81.0,-36.0,6.829
-72.0,-36.0,6.83
-28.0,-17.0,6.831
33.0,-8.0,6.832
65.0,-15.0,6.833
51.0,-19.0,6.834
25.0,-4.0,6.835
22.0,16.0,6.836
35.0,26.0,6.837
38.0,21.0,6.838
29.0,10.0,6.839
21.0,0.0,6.84
22.0,-10.0,6.841
25.0,-14.0,6.842
30.0,-11.0,6.843
36.0,-6.0,6.844
43.0,-5.0,6.845
55.0,-5.0,6.846
63.0,8.0,6.847
42.0,34.0,6.848
-11.0,44.0,6.849
-56.0,25.0,6.85
-63.0,-8.0,6.851
-53.0,-22.0,6.852
-55.0,-17.0,6.853
-44.0,-15.0,6.854
9.0,-21.0,6.855
68.0,-19.0,6.856
73.0,-6.0,6.857
25.0,0.0,6.858
-19.0,-2.0,6.859
-26.0,7.0,6.86
-11.0,25.0,6.861
2.0,33.0,6.862
8.0,16.0,6.863
2.0,-8.0,6.864
-10.0,-16.0,6.865
-14.0,-14.0,6.866
4.0,-19.0,6.867
34.0,-34.0,6.868
52.0,-49.0,6.869
55.0,-46.0,6.87
64.0,-19.0,6.871
86.0,19.0,6.872
101.0,42.0,6.873
59.0,34.0,6.874
-42.0,15.0,6.875
-145.0,7.0,6.876
-180.0,11.0,6.877
-145.0,4.0,6.878
-86.0,-7.0,6.879
-45.0,-7.0,6.88
-28.0,5.0,6.881
-20.0,15.0,6.882
-1.0,14.0,6.883
33.0,13.0,6.884
54.0,23.0,6.885
41.0,35.0,6.886
23.0,38.0,6.887
42.0,29.0,6.888
74.0,17.0,6.889
61.0,12.0,6.89
5.0,9.0,6.891
-35.0,6.0,6.892
-36.0,9.0,6.893
-39.0,12.0,6.894
-48.0,-6.0,6.895
-29.0,-49.0,6.896
13.0,-78.0,6.897
32.0,-63.0,6.898
26.0,-23.0,6.899
37.0,-9.0,6.9
58.0,-27.0,6.901
31.0,-24.0,6.902
-33.0,2.0,6.903
-50.0,10.0,6.904
5.0,-12.0,6.905
49.0,-20.0,6.906
36.0,2.0,6.907
20.0,17.0,6.908
46.0,5.0,6.909
62.0,-4.0,6.91
21.0,12.0,6.911
-34.0,30.0,6.912
-28.0,31.0,6.913
37.0,29.0,6.914
87.0,25.0,6.915
67.0,5.0,6.916
2.0,-24.0,6.917
-59.0,-35.0,6.918
-64.0,-17.0,6.919
-21.0,0.0,6.92
19.0,-9.0,6.921
26.0,-33.0,6.922
19.0,-48.0,6.923
26.0,-43.0,6.924
44.0,-20.0,6.925
49.0,5.0,6.926
28.0,15.0,6.927
-11.0,10.0,6.928
-57.0,10.0,6.929
-80.0,22.0,6.93
-63.0,34.0,6.931
-19.0,35.0,6.932
5.0,24.0,6.933
-22.0,9.0,6.934
-92.0,-7.0,6.935
-150.0,-18.0,6.936
-152.0,-13.0,6.937
-86.0,0.0,6.938
7.0,8.0,6.939
66.0,12.0,6.94
60.0,2.0,6.941
15.0,-5.0,6.942
-19.0,-1.0,6.943
-11.0,2.0,6.944
34.0,-2.0,6.945
77.0,-5.0,6.946
85.0,0.0,6.947
58.0,4.0,6.948
34.0,4.0,6.949
46.0,5.0,6.95
62.0,5.0,6.951
34.0,7.0,6.952
-37.0,21.0,6.953
-92.0,28.0,6.954
-81.0,12.0,6.955
-24.0,-1.0,6.956
30.0,-5.0,6.957
55.0,-7.0,6.958
49.0,-11.0,6.959
24.0,-22.0,6.96
4.0,-29.0,6.961
2.0,-15.0,6.962
12.0,3.0,6.963
16.0,11.0,6.964
16.0,3.0,6.965
18.0,-8.0,6.966
16.0,-15.0,6.967
8.0,-15.0,6.968
12.0,-11.0,6.969
34.0,-9.0,6.97
50.0,-8.0,6.971
47.0,-1.0,6.972
38.0,15.0,6.973
40.0,36.0,6.974
43.0,49.0,6.975
25.0,48.0,6.976
-5.0,39.0,6.977
-30.0,18.0,6.978
-42.0,-12.0,6.979
-55.0,-39.0,6.98
-74.0,-50.0,6.981
-82.0,-41.0,6.982
-48.0,-28.0,6.983
23.0,-20.0,6.984
80.0,-12.0,6.985
56.0,-8.0,6.986
-45.0,-14.0,6.987
-136.0,-22.0,6.988
-140.0,-15.0,6.989
-83.0,4.0,6.99
-34.0,15.0,6.991
8.0,11.0,6.992
106.0,6.0,6.993
234.0,9.0,6.994
267.0,6.0,6.995
153.0,-7.0,6.996
16.0,-14.0,6.997
-36.0,4.0,6.998
-30.0,-21.0,6.999
-78.0,-41.0,7.0
-167.0,-38.0,7.001
-188.0,-34.0,7.002
-115.0,-28.0,7.003
-39.0,-17.0,7.004
-9.0,3.0,7.005
9.0,23.0,7.006
19.0,31.0,7.007
-12.0,39.0,7.008
-54.0,41.0,7.009
-45.0,36.0,7.01
-2.0,0.0,7.011
5.0,-27.0,7.012
-8.0,-30.0,7.013
31.0,-30.0,7.014
115.0,-13.0,7.015
158.0,-1.0,7.016
133.0,0.0,7.017
82.0,3.0,7.018
51.0,-18.0,7.019
49.0,-34.0,7.02
63.0,-32.0,7.021
69.0,-29.0,7.022
27.0,-24.0,7.023
-55.0,-15.0,7.024
-111.0,2.0,7.025
-115.0,18.0,7.026
-111.0,25.0,7.027
-111.0,31.0,7.028
-53.0,33.0,7.029
69.0,29.0,7.03
134.0,0.0,7.031
53.0,-23.0,7.032
-77.0,-25.0,7.033
-115.0,-25.0,7.034
-78.0,-12.0,7.035
-94.0,-1.0,7.036
-161.0,0.0,7.037
-169.0,2.0,7.038
-80.0,-1.0,7.039
-13.0,-5.0,7.04
-35.0,-13.0,7.041
-35.0,-24.0,7.042
82.0,-40.0,7.043
218.0,-53.0,7.044
233.0,-57.0,7.045
166.0,-45.0,7.046
147.0,-15.0,7.047
186.0,20.0,7.048
214.0,38.0,7.049
246.0,39.0,7.05
322.0,40.0,7.051
339.0,45.0,7.052
157.0,38.0,7.053
-159.0,14.0,7.054
-372.0,-5.0,7.055
-372.0,-5.0,7.056
-290.0,2.0,7.057
-256.0,5.0,7.058
-253.0,9.0,7.059
-204.0,15.0,7.06
-120.0,11.0,7.061
-70.0,-2.0,7.062
-51.0,-11.0,7.063
13.0,-18.0,7.064
145.0,-36.0,7.065
242.0,-55.0,7.066
197.0,-52.0,7.067
45.0,-26.0,7.068
-49.0,-10.0,7.069
4.0,-20.0,7.07
106.0,-29.0,7.071
112.0,-13.0,7.072
20.0,17.0,7.073
-53.0,34.0,7.074
-50.0,31.0,7.075
-20.0,30.0,7.076
-26.0,41.0,7.077
-70.0,48.0,7.078
-105.0,36.0,7.079
-90.0,22.0,7.08
-10.0,4.0,7.081
115.0,-9.0,7.082
229.0,-7.0,7.083
273.0,-9.0,7.084
217.0,-23.0,7.085
68.0,-35.0,7.086
-132.0,-35.0,7.087
-300.0,-33.0,7.088
-340.0,-31.0,7.089
-220.0,-21.0,7.09
-13.0,12.0,7.091
162.0,37.0,7.092
221.0,36.0,7.093
167.0,34.0,7.094
83.0,32.0,7.095
53.0,29.0,7.096
65.0,23.0,7.097
37.0,14.0,7.098
-52.0,-8.0,7.099
-99.0,-41.0,7.1
-28.0,-58.0,7.101
78.0,-28.0,7.102
103.0,25.0,7.103
69.0,56.0,7.104
81.0,55.0,7.105
155.0,47.0,7.106
195.0,41.0,7.107
139.0,14.0,7.108
16.0,-37.0,7.109
-125.0,-74.0,7.11
-262.0,-72.0,7.111
-358.0,-50.0,7.112
-348.0,-30.0,7.113
-215.0,-3.0,7.114
-46.0,29.0,7.115
36.0,36.0,7.116
10.0,1.0,7.117
-60.0,-55.0,7.118
-93.0,-78.0,7.119
-88.0,-58.0,7.12
-93.0,-20.0,7.121
-111.0,16.0,7.122
-91.0,50.0,7.123
-10.0,71.0,7.124
100.0,77.0,7.125
194.0,75.0,7.126
232.0,64.0,7.127
183.0,26.0,7.128
75.0,-32.0,7.129
-7.0,-65.0,7.13
-15.0,-53.0,7.131
-10.0,-26.0,7.132
-53.0,-20.0,7.133
-75.0,-20.0,7.134
30.0,-1.0,7.135
202.0,19.0,7.136
263.0,16.0,7.137
163.0,-8.0,7.138
58.0,-14.0,7.139
75.0,1.0,7.14
134.0,11.0,7.141
92.0,7.0,7.142
-27.0,1.0,7.143
-92.0,2.0,7.144
-75.0,1.0,7.145
-50.0,-3.0,7.146
-59.0,-8.0,7.147
-76.0,-25.0,7.148
-84.0,-54.0,7.149
-77.0,-72.0,7.15
-23.0,-63.0,7.151
94.0,-42.0,7.152
184.0,-25.0,7.153
137.0,7.0,7.154
-14.0,61.0,7.155
-128.0,109.0,7.156
-148.0,131.0,7.157
-160.0,138.0,7.158
-223.0,138.0,7.159
-272.0,112.0,7.16
-234.0,48.0,7.161
-130.0,-22.0,7.162
-1.0,-81.0,7.163
161.0,-134.0,7.164
326.0,-172.0,7.165
391.0,-159.0,7.166
337.0,-98.0,7.167
239.0,-43.0,7.168
110.0,-26.0,7.169
-77.0,-11.0,7.17
-200.0,31.0,7.171
-104.0,69.0,7.172
83.0,64.0,7.173
57.0,29.0,7.174
-179.0,-2.0,7.175
-282.0,-16.0,7.176
-121.0,-9.0,7.177
98.0,24.0,7.178
171.0,61.0,7.179
155.0,80.0,7.18
118.0,42.0,7.181
-40.0,10.0,7.182
-278.0,-3.0,7.183
-310.0,-11.0,7.184
-37.0,5.0,7.185
232.0,20.0,7.186
207.0,30.0,7.187
9.0,31.0,7.188
-90.0,5.0,7.189
-74.0,-15.0,7.19
-93.0,-19.0,7.191
-167.0,-25.0,7.192
-221.0,-37.0,7.193
-240.0,-46.0,7.194
-225.0,-48.0,7.195
-97.0,-50.0,7.196
154.0,-52.0,7.197
410.0,-49.0,7.198
475.0,-24.0,7.199
336.0,0.0,7.2
165.0,28.0,7.201
81.0,73.0,7.202
54.0,104.0,7.203
1.0,77.0,7.204
-87.0,14.0,7.205
-112.0,-22.0,7.206
-5.0,-16.0,7.207
133.0,5.0,7.208
90.0,21.0,7.209
-162.0,28.0,7.21
-370.0,9.0,7.211
-317.0,-40.0,7.212
-121.0,-87.0,7.213
-22.0,-92.0,7.214
-20.0,-65.0,7.215
47.0,-38.0,7.216
175.0,-23.0,7.217
217.0,-12.0,7.218
133.0,-4.0,7.219
50.0,8.0,7.22
26.0,32.0,7.221
-14.0,74.0,7.222
-88.0,104.0,7.223
-102.0,105.0,7.224
-45.0,94.0,7.225
0.0,82.0,7.226
7.0,53.0,7.227
28.0,3.0,7.228
75.0,-39.0,7.229
106.0,-50.0,7.23
122.0,-45.0,7.231
129.0,-44.0,7.232
78.0,-42.0,7.233
-69.0,-25.0,7.234
-233.0,-15.0,7.235
-287.0,-42.0,7.236
-213.0,-92.0,7.237
-85.0,-117.0,7.238
15.0,-73.0,7.239
61.0,4.0,7.24
88.0,51.0,7.241
139.0,62.0,7.242
211.0,87.0,7.243
223.0,147.0,7.244
108.0,191.0,7.245
-65.0,159.0,7.246
-146.0,74.0,7.247
-84.0,-7.0,7.248
9.0,-72.0,7.249
13.0,-152.0,7.25
-62.0,-216.0,7.251
-120.0,-199.0,7.252
-82.0,-104.0,7.253
46.0,-14.0,7.254
174.0,25.0,7.255
146.0,61.0,7.256
-86.0,129.0,7.257
-408.0,171.0,7.258
-505.0,140.0,7.259
-240.0,92.0,7.26
175.0,-1.0,7.261
431.0,-96.0,7.262
438.0,-196.0,7.263
330.0,-256.0,7.264
217.0,-195.0,7.265
98.0,-128.0,7.266
-36.0,-46.0,7.267
-136.0,23.0,7.268
-142.0,52.0,7.269
-57.0,85.0,7.27
49.0,129.0,7.271
93.0,163.0,7.272
79.0,163.0,7.273
99.0,155.0,7.274
206.0,123.0,7.275
301.0,95.0,7.276
238.0,84.0,7.277
-25.0,73.0,7.278
-344.0,55.0,7.279
-541.0,5.0,7.28
-537.0,-54.0,7.281
-379.0,-95.0,7.282
-165.0,-140.0,7.283
25.0,-220.0,7.284
153.0,-306.0,7.285
180.0,-329.0,7.286
103.0,-272.0,7.287
12.0,-195.0,7.288
15.0,-135.0,7.289
20.0,-51.0,7.29
-190.0,83.0,7.291
-553.0,208.0,7.292
-653.0,260.0,7.293
-275.0,258.0,7.294
247.0,251.0,7.295
476.0,241.0,7.296
456.0,210.0,7.297
495.0,162.0,7.298
616.0,124.0,7.299
639.0,73.0,7.3
363.0,-36.0,7.301
89.0,-199.0,7.302
-176.0,-348.0,7.303
-341.0,-403.0,7.304
-204.0,-330.0,7.305
-76.0,-180.0,7.306
24.0,-64.0,7.307
74.0,-46.0,7.308
-27.0,-74.0,7.309
-89.0,-56.0,7.31
-34.0,14.0,7.311
-13.0,71.0,7.312
-97.0,86.0,7.313
-175.0,97.0,7.314
-233.0,128.0,7.315
-239.0,157.0,7.316
-87.0,167.0,7.317
87.0,174.0,7.318
303.0,199.0,7.319
421.0,236.0,7.32
379.0,248.0,7.321
152.0,214.0,7.322
-156.0,135.0,7.323
-355.0,45.0,7.324
-377.0,-31.0,7.325
-335.0,-92.0,7.326
-305.0,-146.0,7.327
-227.0,-178.0,7.328
-104.0,-158.0,7.329
-70.0,-93.0,7.33
-145.0,-25.0,7.331
-141.0,16.0,7.332
48.0,40.0,7.333
256.0,51.0,7.334
292.0,34.0,7.335
205.0,-11.0,7.336
149.0,-56.0,7.337
146.0,-88.0,7.338
121.0,-99.0,7.339
39.0,-97.0,7.34
