Deltoid,Bicep,Time
-7.0,-3.0,0.0
-10.0,-7.0,0.001
-11.0,-5.0,0.002
-3.0,-2.0,0.003
6.0,1.0,0.004
9.0,1.0,0.005
3.0,-1.0,0.006
0.0,-1.0,0.007
3.0,1.0,0.008
6.0,4.0,0.009
5.0,4.0,0.01
4.0,4.0,0.011
8.0,3.0,0.012
13.0,1.0,0.013
10.0,-1.0,0.014
5.0,-3.0,0.015
4.0,-4.0,0.016
7.0,-3.0,0.017
4.0,-3.0,0.018
-1.0,-3.0,0.019
-4.0,-2.0,0.02
-8.0,-4.0,0.021
-9.0,-4.0,0.022
-4.0,-4.0,0.023
6.0,-1.0,0.024
8.0,3.0,0.025
0.0,4.0,0.026
-4.0,1.0,0.027
4.0,-1.0,0.028
13.0,0.0,0.029
11.0,2.0,0.03
2.0,4.0,0.031
0.0,2.0,0.032
3.0,-1.0,0.033
4.0,-2.0,0.034
4.0,-1.0,0.035
6.0,-1.0,0.036
9.0,-1.0,0.037
2.0,-3.0,0.038
-6.0,-4.0,0.039
-13.0,-3.0,0.04
-13.0,-5.0,0.041
-10.0,-5.0,0.042
0.0,-3.0,0.043
8.0,1.0,0.044
6.0,6.0,0.045
4.0,9.0,0.046
2.0,7.0,0.047
1.0,1.0,0.048
2.0,-4.0,0.049
6.0,-4.0,0.05
4.0,0.0,0.051
2.0,0.0,0.052
6.0,-2.0,0.053
8.0,-4.0,0.054
4.0,-3.0,0.055
2.0,-1.0,0.056
2.0,0.0,0.057
2.0,-3.0,0.058
-3.0,-3.0,0.059
-7.0,-3.0,0.06
-7.0,-5.0,0.061
-5.0,-7.0,0.062
0.0,-5.0,0.063
5.0,-3.0,0.064
4.0,-1.0,0.065
3.0,0.0,0.066
2.0,-1.0,0.067
1.0,-2.0,0.068
2.0,-1.0,0.069
4.0,0.0,0.07
3.0,0.0,0.071
2.0,0.0,0.072
4.0,1.0,0.073
5.0,2.0,0.074
3.0,2.0,0.075
2.0,1.0,0.076
2.0,0.0,0.077
1.0,-1.0,0.078
2.0,-1.0,0.079
-2.0,-1.0,0.08
-6.0,-3.0,0.081
-7.0,-3.0,0.082
-1.0,-3.0,0.083
7.0,-1.0,0.084
8.0,4.0,0.085
0.0,8.0,0.086
-2.0,7.0,0.087
1.0,3.0,0.088
3.0,2.0,0.089
1.0,2.0,0.09
2.0,0.0,0.091
7.0,-2.0,0.092
9.0,-2.0,0.093
7.0,0.0,0.094
6.0,-2.0,0.095
11.0,-5.0,0.096
11.0,-4.0,0.097
3.0,-2.0,0.098
-1.0,-3.0,0.099
-2.0,-4.0,0.1
-4.0,-4.0,0.101
-7.0,-3.0,0.102
-5.0,0.0,0.103
4.0,2.0,0.104
9.0,1.0,0.105
5.0,0.0,0.106
3.0,1.0,0.107
7.0,2.0,0.108
11.0,0.0,0.109
8.0,-1.0,0.11
5.0,-1.0,0.111
4.0,-1.0,0.112
4.0,-1.0,0.113
2.0,-1.0,0.114
2.0,-1.0,0.115
2.0,-2.0,0.116
2.0,-1.0,0.117
-1.0,0.0,0.118
-2.0,0.0,0.119
-3.0,-4.0,0.12
-6.0,-8.0,0.121
-8.0,-5.0,0.122
-2.0,0.0,0.123
6.0,1.0,0.124
8.0,0.0,0.125
2.0,0.0,0.126
0.0,1.0,0.127
3.0,1.0,0.128
7.0,0.0,0.129
6.0,0.0,0.13
5.0,1.0,0.131
6.0,3.0,0.132
5.0,4.0,0.133
2.0,4.0,0.134
2.0,2.0,0.135
4.0,0.0,0.136
7.0,2.0,0.137
3.0,2.0,0.138
0.0,2.0,0.139
-3.0,-2.0,0.14
-3.0,-8.0,0.141
-2.0,-7.0,0.142
2.0,-4.0,0.143
6.0,-2.0,0.144
6.0,0.0,0.145
5.0,4.0,0.146
3.0,6.0,0.147
2.0,1.0,0.148
1.0,-4.0,0.149
0.0,-4.0,0.15
0.0,-1.0,0.151
1.0,-1.0,0.152
4.0,-2.0,0.153
6.0,0.0,0.154
4.0,2.0,0.155
3.0,-1.0,0.156
3.0,-3.0,0.157
3.0,-4.0,0.158
1.0,-2.0,0.159
-4.0,-4.0,0.16
-8.0,-9.0,0.161
-6.0,-7.0,0.162
-2.0,0.0,0.163
3.0,5.0,0.164
4.0,4.0,0.165
1.0,4.0,0.166
0.0,3.0,0.167
3.0,1.0,0.168
3.0,0.0,0.169
1.0,1.0,0.17
0.0,1.0,0.171
3.0,-1.0,0.172
5.0,-2.0,0.173
5.0,2.0,0.174
3.0,5.0,0.175
4.0,4.0,0.176
6.0,2.0,0.177
3.0,0.0,0.178
-1.0,0.0,0.179
-4.0,-3.0,0.18
-6.0,-9.0,0.181
-5.0,-7.0,0.182
0.0,-2.0,0.183
5.0,0.0,0.184
8.0,0.0,0.185
3.0,2.0,0.186
0.0,4.0,0.187
2.0,3.0,0.188
7.0,2.0,0.189
9.0,3.0,0.19
8.0,3.0,0.191
6.0,2.0,0.192
4.0,2.0,0.193
2.0,2.0,0.194
0.0,0.0,0.195
0.0,-2.0,0.196
3.0,0.0,0.197
5.0,1.0,0.198
5.0,0.0,0.199
-1.0,-2.0,0.2
-7.0,-5.0,0.201
-7.0,-4.0,0.202
-3.0,-4.0,0.203
2.0,-3.0,0.204
4.0,-1.0,0.205
2.0,1.0,0.206
0.0,-1.0,0.207
0.0,-5.0,0.208
2.0,-4.0,0.209
5.0,0.0,0.21
5.0,3.0,0.211
5.0,0.0,0.212
5.0,-1.0,0.213
6.0,2.0,0.214
6.0,2.0,0.215
3.0,-1.0,0.216
2.0,-4.0,0.217
0.0,-4.0,0.218
-1.0,-3.0,0.219
-3.0,-6.0,0.22
-7.0,-11.0,0.221
-8.0,-8.0,0.222
1.0,-1.0,0.223
9.0,2.0,0.224
7.0,3.0,0.225
6.0,4.0,0.226
8.0,2.0,0.227
10.0,-3.0,0.228
9.0,-3.0,0.229
8.0,2.0,0.23
7.0,7.0,0.231
6.0,4.0,0.232
6.0,0.0,0.233
5.0,-1.0,0.234
6.0,2.0,0.235
8.0,1.0,0.236
7.0,0.0,0.237
4.0,-1.0,0.238
1.0,0.0,0.239
-1.0,0.0,0.24
-6.0,-3.0,0.241
-8.0,-3.0,0.242
-3.0,-1.0,0.243
7.0,-2.0,0.244
8.0,-2.0,0.245
0.0,-1.0,0.246
-3.0,1.0,0.247
3.0,1.0,0.248
9.0,0.0,0.249
3.0,1.0,0.25
1.0,0.0,0.251
4.0,-2.0,0.252
7.0,-1.0,0.253
5.0,1.0,0.254
2.0,0.0,0.255
4.0,-1.0,0.256
5.0,1.0,0.257
2.0,1.0,0.258
-1.0,-2.0,0.259
-3.0,-6.0,0.26
-7.0,-9.0,0.261
-10.0,-5.0,0.262
-5.0,-1.0,0.263
2.0,0.0,0.264
4.0,1.0,0.265
0.0,3.0,0.266
0.0,2.0,0.267
4.0,2.0,0.268
7.0,3.0,0.269
3.0,2.0,0.27
2.0,-1.0,0.271
5.0,-3.0,0.272
7.0,0.0,0.273
6.0,1.0,0.274
6.0,-1.0,0.275
7.0,-4.0,0.276
9.0,-1.0,0.277
6.0,0.0,0.278
1.0,-2.0,0.279
-5.0,-6.0,0.28
-10.0,-7.0,0.281
-9.0,-7.0,0.282
-1.0,-4.0,0.283
8.0,-3.0,0.284
6.0,0.0,0.285
-1.0,3.0,0.286
-4.0,2.0,0.287
0.0,0.0,0.288
5.0,1.0,0.289
6.0,4.0,0.29
3.0,4.0,0.291
3.0,2.0,0.292
5.0,1.0,0.293
6.0,0.0,0.294
7.0,-4.0,0.295
7.0,-5.0,0.296
4.0,-1.0,0.297
-1.0,2.0,0.298
-3.0,1.0,0.299
-6.0,-3.0,0.3
-4.0,-6.0,0.301
-2.0,-5.0,0.302
0.0,-2.0,0.303
3.0,0.0,0.304
3.0,3.0,0.305
3.0,4.0,0.306
1.0,2.0,0.307
0.0,1.0,0.308
3.0,4.0,0.309
6.0,5.0,0.31
6.0,2.0,0.311
7.0,-2.0,0.312
9.0,-1.0,0.313
11.0,1.0,0.314
7.0,0.0,0.315
5.0,-5.0,0.316
9.0,-3.0,0.317
11.0,0.0,0.318
6.0,0.0,0.319
-5.0,-5.0,0.32
-11.0,-11.0,0.321
-9.0,-9.0,0.322
1.0,-5.0,0.323
12.0,-3.0,0.324
13.0,-1.0,0.325
5.0,1.0,0.326
-1.0,2.0,0.327
0.0,1.0,0.328
6.0,2.0,0.329
7.0,6.0,0.33
6.0,6.0,0.331
5.0,2.0,0.332
4.0,-2.0,0.333
2.0,-2.0,0.334
1.0,-1.0,0.335
2.0,-1.0,0.336
4.0,0.0,0.337
3.0,2.0,0.338
1.0,2.0,0.339
-4.0,0.0,0.34
-7.0,-5.0,0.341
-6.0,-4.0,0.342
0.0,-2.0,0.343
6.0,-2.0,0.344
5.0,-1.0,0.345
-2.0,2.0,0.346
-3.0,4.0,0.347
1.0,2.0,0.348
3.0,0.0,0.349
0.0,0.0,0.35
-1.0,1.0,0.351
5.0,-1.0,0.352
11.0,-2.0,0.353
9.0,0.0,0.354
5.0,1.0,0.355
2.0,0.0,0.356
4.0,-1.0,0.357
3.0,-1.0,0.358
0.0,0.0,0.359
-5.0,-3.0,0.36
-8.0,-10.0,0.361
-5.0,-10.0,0.362
1.0,-5.0,0.363
7.0,0.0,0.364
2.0,5.0,0.365
-3.0,6.0,0.366
-1.0,7.0,0.367
6.0,6.0,0.368
8.0,4.0,0.369
5.0,2.0,0.37
1.0,0.0,0.371
3.0,-2.0,0.372
6.0,0.0,0.373
5.0,1.0,0.374
4.0,-1.0,0.375
7.0,-4.0,0.376
11.0,-3.0,0.377
4.0,-2.0,0.378
1.0,-2.0,0.379
-1.0,-3.0,0.38
-6.0,-7.0,0.381
-8.0,-7.0,0.382
0.0,-6.0,0.383
6.0,-5.0,0.384
2.0,-3.0,0.385
-1.0,0.0,0.386
-2.0,4.0,0.387
-4.0,5.0,0.388
2.0,3.0,0.389
6.0,2.0,0.39
2.0,2.0,0.391
0.0,2.0,0.392
1.0,1.0,0.393
4.0,0.0,0.394
4.0,0.0,0.395
2.0,3.0,0.396
4.0,4.0,0.397
3.0,-1.0,0.398
1.0,-5.0,0.399
-1.0,-4.0,0.4
-5.0,-3.0,0.401
-6.0,-2.0,0.402
0.0,-2.0,0.403
5.0,0.0,0.404
2.0,4.0,0.405
-1.0,6.0,0.406
-2.0,3.0,0.407
-3.0,0.0,0.408
2.0,-1.0,0.409
5.0,0.0,0.41
2.0,-1.0,0.411
0.0,-1.0,0.412
1.0,-3.0,0.413
3.0,-3.0,0.414
3.0,-4.0,0.415
2.0,-6.0,0.416
3.0,-3.0,0.417
5.0,-1.0,0.418
1.0,-2.0,0.419
-3.0,-3.0,0.42
-5.0,-6.0,0.421
-5.0,-8.0,0.422
0.0,-5.0,0.423
9.0,-2.0,0.424
13.0,0.0,0.425
6.0,1.0,0.426
-3.0,0.0,0.427
-3.0,-1.0,0.428
2.0,0.0,0.429
6.0,3.0,0.43
3.0,2.0,0.431
3.0,1.0,0.432
6.0,1.0,0.433
6.0,0.0,0.434
3.0,1.0,0.435
0.0,1.0,0.436
2.0,-1.0,0.437
4.0,-3.0,0.438
3.0,0.0,0.439
0.0,0.0,0.44
-5.0,-3.0,0.441
-6.0,-5.0,0.442
-2.0,-6.0,0.443
5.0,-4.0,0.444
7.0,1.0,0.445
1.0,5.0,0.446
-2.0,3.0,0.447
0.0,-4.0,0.448
3.0,-5.0,0.449
3.0,1.0,0.45
2.0,5.0,0.451
4.0,2.0,0.452
5.0,-2.0,0.453
2.0,-1.0,0.454
2.0,0.0,0.455
6.0,1.0,0.456
12.0,2.0,0.457
10.0,1.0,0.458
3.0,-2.0,0.459
-3.0,-5.0,0.46
-3.0,-7.0,0.461
-2.0,-3.0,0.462
4.0,-3.0,0.463
9.0,-2.0,0.464
5.0,2.0,0.465
1.0,7.0,0.466
2.0,5.0,0.467
3.0,-1.0,0.468
4.0,-1.0,0.469
5.0,3.0,0.47
5.0,4.0,0.471
5.0,0.0,0.472
3.0,-3.0,0.473
2.0,-1.0,0.474
0.0,0.0,0.475
-1.0,-2.0,0.476
-1.0,-2.0,0.477
0.0,-2.0,0.478
-1.0,-3.0,0.479
-5.0,-5.0,0.48
-10.0,-10.0,0.481
-13.0,-7.0,0.482
-8.0,-4.0,0.483
3.0,-2.0,0.484
8.0,1.0,0.485
4.0,4.0,0.486
1.0,3.0,0.487
7.0,0.0,0.488
9.0,0.0,0.489
3.0,3.0,0.49
1.0,3.0,0.491
4.0,0.0,0.492
9.0,2.0,0.493
8.0,6.0,0.494
4.0,6.0,0.495
3.0,1.0,0.496
3.0,-1.0,0.497
1.0,-1.0,0.498
0.0,-1.0,0.499
-2.0,-3.0,0.5
-5.0,-8.0,0.501
-5.0,-7.0,0.502
0.0,-5.0,0.503
6.0,0.0,0.504
5.0,6.0,0.505
-1.0,8.0,0.506
-2.0,3.0,0.507
4.0,-3.0,0.508
7.0,-2.0,0.509
4.0,4.0,0.51
1.0,6.0,0.511
2.0,5.0,0.512
4.0,3.0,0.513
5.0,1.0,0.514
4.0,-4.0,0.515
3.0,-6.0,0.516
2.0,-1.0,0.517
2.0,2.0,0.518
2.0,0.0,0.519
0.0,-5.0,0.52
-3.0,-7.0,0.521
-5.0,-5.0,0.522
-1.0,-5.0,0.523
4.0,-6.0,0.524
4.0,-3.0,0.525
0.0,2.0,0.526
0.0,2.0,0.527
4.0,0.0,0.528
7.0,0.0,0.529
8.0,1.0,0.53
8.0,1.0,0.531
7.0,-1.0,0.532
6.0,-1.0,0.533
4.0,1.0,0.534
3.0,1.0,0.535
4.0,-1.0,0.536
4.0,0.0,0.537
1.0,1.0,0.538
-3.0,0.0,0.539
-7.0,-3.0,0.54
-7.0,-7.0,0.541
-6.0,-4.0,0.542
2.0,0.0,0.543
8.0,3.0,0.544
5.0,2.0,0.545
3.0,2.0,0.546
3.0,1.0,0.547
3.0,0.0,0.548
1.0,-1.0,0.549
0.0,-3.0,0.55
2.0,-2.0,0.551
5.0,-1.0,0.552
3.0,0.0,0.553
2.0,0.0,0.554
4.0,-2.0,0.555
7.0,-4.0,0.556
7.0,-2.0,0.557
7.0,-3.0,0.558
2.0,-3.0,0.559
-3.0,-2.0,0.56
-8.0,-5.0,0.561
-8.0,-7.0,0.562
-1.0,-5.0,0.563
8.0,-3.0,0.564
10.0,1.0,0.565
1.0,4.0,0.566
-3.0,3.0,0.567
0.0,2.0,0.568
7.0,2.0,0.569
7.0,3.0,0.57
5.0,3.0,0.571
5.0,2.0,0.572
5.0,2.0,0.573
5.0,2.0,0.574
3.0,0.0,0.575
2.0,-1.0,0.576
6.0,-1.0,0.577
8.0,1.0,0.578
8.0,2.0,0.579
3.0,0.0,0.58
-4.0,-5.0,0.581
-5.0,-6.0,0.582
-2.0,-3.0,0.583
6.0,-1.0,0.584
8.0,0.0,0.585
4.0,0.0,0.586
2.0,0.0,0.587
1.0,3.0,0.588
1.0,4.0,0.589
0.0,5.0,0.59
0.0,2.0,0.591
2.0,0.0,0.592
4.0,0.0,0.593
4.0,1.0,0.594
4.0,0.0,0.595
6.0,-1.0,0.596
9.0,-2.0,0.597
5.0,-2.0,0.598
0.0,-1.0,0.599
-4.0,-1.0,0.6
-6.0,-6.0,0.601
-5.0,-9.0,0.602
-1.0,-6.0,0.603
4.0,-1.0,0.604
5.0,4.0,0.605
1.0,5.0,0.606
0.0,3.0,0.607
3.0,1.0,0.608
8.0,2.0,0.609
6.0,4.0,0.61
2.0,6.0,0.611
4.0,4.0,0.612
6.0,3.0,0.613
5.0,1.0,0.614
1.0,-1.0,0.615
3.0,-2.0,0.616
6.0,0.0,0.617
4.0,0.0,0.618
-1.0,-2.0,0.619
-5.0,-6.0,0.62
-5.0,-9.0,0.621
-4.0,-7.0,0.622
-1.0,-5.0,0.623
1.0,-3.0,0.624
2.0,1.0,0.625
4.0,2.0,0.626
2.0,0.0,0.627
1.0,-6.0,0.628
1.0,-6.0,0.629
2.0,-2.0,0.63
2.0,-1.0,0.631
3.0,-2.0,0.632
6.0,-1.0,0.633
8.0,1.0,0.634
5.0,2.0,0.635
3.0,-1.0,0.636
4.0,0.0,0.637
6.0,0.0,0.638
3.0,-1.0,0.639
-2.0,-3.0,0.64
-7.0,-4.0,0.641
-6.0,-5.0,0.642
1.0,-5.0,0.643
9.0,-4.0,0.644
8.0,0.0,0.645
2.0,3.0,0.646
-1.0,3.0,0.647
2.0,3.0,0.648
5.0,3.0,0.649
5.0,3.0,0.65
5.0,1.0,0.651
9.0,0.0,0.652
10.0,-1.0,0.653
6.0,-2.0,0.654
1.0,-1.0,0.655
1.0,0.0,0.656
5.0,0.0,0.657
4.0,0.0,0.658
0.0,-1.0,0.659
-5.0,-3.0,0.66
-7.0,-4.0,0.661
-7.0,-5.0,0.662
-2.0,-5.0,0.663
5.0,-4.0,0.664
5.0,0.0,0.665
-2.0,3.0,0.666
-5.0,3.0,0.667
-1.0,3.0,0.668
4.0,3.0,0.669
1.0,3.0,0.67
-2.0,1.0,0.671
0.0,0.0,0.672
3.0,-1.0,0.673
4.0,-2.0,0.674
2.0,-1.0,0.675
2.0,0.0,0.676
6.0,0.0,0.677
6.0,-1.0,0.678
3.0,-1.0,0.679
-1.0,-2.0,0.68
-5.0,-4.0,0.681
-7.0,-4.0,0.682
-4.0,-3.0,0.683
2.0,-1.0,0.684
5.0,0.0,0.685
4.0,2.0,0.686
5.0,0.0,0.687
10.0,-2.0,0.688
11.0,-2.0,0.689
5.0,0.0,0.69
0.0,4.0,0.691
2.0,3.0,0.692
6.0,2.0,0.693
5.0,1.0,0.694
2.0,0.0,0.695
2.0,1.0,0.696
5.0,5.0,0.697
5.0,6.0,0.698
3.0,2.0,0.699
-1.0,-2.0,0.7
-5.0,-6.0,0.701
-5.0,-4.0,0.702
0.0,-1.0,0.703
7.0,0.0,0.704
11.0,1.0,0.705
5.0,6.0,0.706
-1.0,7.0,0.707
-3.0,2.0,0.708
0.0,0.0,0.709
4.0,2.0,0.71
5.0,4.0,0.711
4.0,1.0,0.712
4.0,-4.0,0.713
6.0,-5.0,0.714
5.0,-1.0,0.715
4.0,0.0,0.716
4.0,-1.0,0.717
2.0,-5.0,0.718
0.0,-4.0,0.719
-5.0,-2.0,0.72
-7.0,-6.0,0.721
-5.0,-8.0,0.722
1.0,-6.0,0.723
10.0,-3.0,0.724
11.0,-2.0,0.725
4.0,0.0,0.726
1.0,1.0,0.727
3.0,2.0,0.728
6.0,0.0,0.729
5.0,-1.0,0.73
2.0,0.0,0.731
4.0,3.0,0.732
8.0,4.0,0.733
9.0,1.0,0.734
7.0,0.0,0.735
5.0,1.0,0.736
8.0,5.0,0.737
5.0,2.0,0.738
2.0,-1.0,0.739
-2.0,-3.0,0.74
-4.0,-6.0,0.741
-5.0,-4.0,0.742
-2.0,0.0,0.743
5.0,2.0,0.744
8.0,4.0,0.745
2.0,3.0,0.746
-1.0,1.0,0.747
3.0,0.0,0.748
7.0,1.0,0.749
5.0,2.0,0.75
0.0,2.0,0.751
2.0,0.0,0.752
6.0,-2.0,0.753
6.0,-3.0,0.754
6.0,-2.0,0.755
5.0,-2.0,0.756
6.0,0.0,0.757
1.0,0.0,0.758
-2.0,2.0,0.759
-6.0,0.0,0.76
-9.0,-5.0,0.761
-9.0,-6.0,0.762
-3.0,-4.0,0.763
4.0,-2.0,0.764
4.0,-1.0,0.765
-2.0,0.0,0.766
-4.0,2.0,0.767
0.0,3.0,0.768
3.0,2.0,0.769
1.0,0.0,0.77
1.0,-2.0,0.771
4.0,-5.0,0.772
9.0,-6.0,0.773
8.0,-4.0,0.774
5.0,-2.0,0.775
4.0,-2.0,0.776
6.0,-1.0,0.777
7.0,-3.0,0.778
5.0,-3.0,0.779
3.0,-3.0,0.78
-1.0,-5.0,0.781
-4.0,-3.0,0.782
2.0,-2.0,0.783
7.0,-1.0,0.784
7.0,0.0,0.785
5.0,2.0,0.786
3.0,4.0,0.787
2.0,3.0,0.788
4.0,3.0,0.789
5.0,3.0,0.79
2.0,3.0,0.791
0.0,2.0,0.792
1.0,3.0,0.793
2.0,5.0,0.794
2.0,2.0,0.795
2.0,-4.0,0.796
2.0,-4.0,0.797
9.0,-3.0,0.798
6.0,-1.0,0.799
3.0,0.0,0.8
-3.0,-2.0,0.801
-7.0,-5.0,0.802
2.0,-3.0,0.803
9.0,-2.0,0.804
9.0,0.0,0.805
6.0,1.0,0.806
3.0,1.0,0.807
2.0,1.0,0.808
4.0,0.0,0.809
6.0,-2.0,0.81
2.0,-1.0,0.811
-2.0,0.0,0.812
0.0,0.0,0.813
2.0,-1.0,0.814
2.0,-1.0,0.815
2.0,-1.0,0.816
2.0,-1.0,0.817
7.0,-3.0,0.818
5.0,-1.0,0.819
3.0,0.0,0.82
-1.0,-2.0,0.821
-3.0,-5.0,0.822
2.0,-3.0,0.823
7.0,-2.0,0.824
7.0,0.0,0.825
5.0,1.0,0.826
3.0,1.0,0.827
2.0,1.0,0.828
4.0,0.0,0.829
5.0,-2.0,0.83
2.0,-1.0,0.831
0.0,0.0,0.832
1.0,0.0,0.833
2.0,-1.0,0.834
2.0,-1.0,0.835
2.0,-1.0,0.836
2.0,-1.0,0.837
1.0,-1.0,0.838
0.0,0.0,0.839
-4.0,-1.0,0.84
-8.0,-5.0,0.841
-7.0,-6.0,0.842
1.0,-4.0,0.843
8.0,0.0,0.844
6.0,2.0,0.845
0.0,3.0,0.846
-1.0,1.0,0.847
0.0,0.0,0.848
1.0,-1.0,0.849
1.0,-1.0,0.85
5.0,-2.0,0.851
6.0,-1.0,0.852
3.0,0.0,0.853
0.0,-2.0,0.854
1.0,-4.0,0.855
4.0,-3.0,0.856
7.0,0.0,0.857
5.0,0.0,0.858
3.0,-3.0,0.859
0.0,-4.0,0.86
-4.0,-7.0,0.861
-6.0,-5.0,0.862
0.0,-3.0,0.863
8.0,1.0,0.864
7.0,3.0,0.865
3.0,3.0,0.866
4.0,1.0,0.867
7.0,0.0,0.868
4.0,0.0,0.869
-2.0,0.0,0.87
0.0,-1.0,0.871
9.0,-1.0,0.872
12.0,0.0,0.873
7.0,1.0,0.874
3.0,0.0,0.875
6.0,-1.0,0.876
12.0,-1.0,0.877
6.0,-3.0,0.878
0.0,-3.0,0.879
-4.0,-1.0,0.88
-5.0,-1.0,0.881
-5.0,-1.0,0.882
-1.0,-1.0,0.883
3.0,0.0,0.884
1.0,4.0,0.885
0.0,8.0,0.886
0.0,7.0,0.887
0.0,1.0,0.888
1.0,-3.0,0.889
3.0,-1.0,0.89
3.0,0.0,0.891
2.0,-2.0,0.892
2.0,-4.0,0.893
2.0,-4.0,0.894
4.0,-1.0,0.895
6.0,0.0,0.896
4.0,0.0,0.897
3.0,-4.0,0.898
0.0,-4.0,0.899
-1.0,-4.0,0.9
-4.0,-6.0,0.901
-8.0,-7.0,0.902
-5.0,-4.0,0.903
2.0,-1.0,0.904
4.0,1.0,0.905
1.0,4.0,0.906
2.0,2.0,0.907
7.0,1.0,0.908
6.0,4.0,0.909
0.0,7.0,0.91
-2.0,7.0,0.911
5.0,6.0,0.912
10.0,4.0,0.913
6.0,2.0,0.914
1.0,1.0,0.915
2.0,0.0,0.916
6.0,-1.0,0.917
3.0,-2.0,0.918
-2.0,-1.0,0.919
-3.0,-2.0,0.92
0.0,-5.0,0.921
1.0,-6.0,0.922
0.0,-3.0,0.923
1.0,0.0,0.924
0.0,0.0,0.925
-3.0,0.0,0.926
-5.0,-1.0,0.927
0.0,-1.0,0.928
6.0,0.0,0.929
4.0,0.0,0.93
0.0,0.0,0.931
3.0,0.0,0.932
10.0,-1.0,0.933
9.0,0.0,0.934
3.0,0.0,0.935
5.0,-2.0,0.936
10.0,-1.0,0.937
10.0,-1.0,0.938
2.0,0.0,0.939
-4.0,-1.0,0.94
-4.0,-7.0,0.941
-3.0,-7.0,0.942
0.0,-4.0,0.943
4.0,0.0,0.944
5.0,2.0,0.945
1.0,1.0,0.946
-3.0,0.0,0.947
-2.0,-1.0,0.948
1.0,0.0,0.949
1.0,1.0,0.95
2.0,0.0,0.951
6.0,-3.0,0.952
9.0,-3.0,0.953
5.0,0.0,0.954
2.0,0.0,0.955
5.0,-4.0,0.956
11.0,-5.0,0.957
8.0,-1.0,0.958
2.0,3.0,0.959
-2.0,2.0,0.96
-3.0,-6.0,0.961
-3.0,-8.0,0.962
-1.0,-5.0,0.963
1.0,-3.0,0.964
4.0,0.0,0.965
6.0,3.0,0.966
4.0,5.0,0.967
2.0,5.0,0.968
3.0,3.0,0.969
4.0,3.0,0.97
4.0,2.0,0.971
5.0,0.0,0.972
6.0,0.0,0.973
7.0,2.0,0.974
7.0,1.0,0.975
5.0,-1.0,0.976
3.0,0.0,0.977
1.0,2.0,0.978
0.0,0.0,0.979
0.0,-2.0,0.98
0.0,-6.0,0.981
-1.0,-9.0,0.982
3.0,-3.0,0.983
10.0,1.0,0.984
12.0,0.0,0.985
5.0,-2.0,0.986
-1.0,-2.0,0.987
-1.0,-1.0,0.988
0.0,-2.0,0.989
2.0,-3.0,0.99
2.0,0.0,0.991
2.0,2.0,0.992
1.0,2.0,0.993
0.0,1.0,0.994
1.0,0.0,0.995
4.0,-1.0,0.996
4.0,-2.0,0.997
1.0,-4.0,0.998
-3.0,-3.0,0.999
-4.0,-4.0,1.0
-6.0,-5.0,1.001
-6.0,-3.0,1.002
-3.0,-4.0,1.003
5.0,-4.0,1.004
8.0,0.0,1.005
1.0,6.0,1.006
-2.0,6.0,1.007
0.0,0.0,1.008
4.0,-3.0,1.009
3.0,0.0,1.01
0.0,2.0,1.011
3.0,0.0,1.012
9.0,-3.0,1.013
10.0,-1.0,1.014
5.0,1.0,1.015
3.0,1.0,1.016
6.0,0.0,1.017
4.0,-4.0,1.018
-1.0,-6.0,1.019
-6.0,-4.0,1.02
-5.0,-3.0,1.021
-3.0,0.0,1.022
0.0,-1.0,1.023
7.0,-2.0,1.024
9.0,0.0,1.025
4.0,4.0,1.026
0.0,1.0,1.027
2.0,-3.0,1.028
6.0,0.0,1.029
5.0,7.0,1.03
2.0,6.0,1.031
2.0,-3.0,1.032
2.0,-7.0,1.033
0.0,-3.0,1.034
-3.0,2.0,1.035
0.0,3.0,1.036
6.0,2.0,1.037
6.0,1.0,1.038
0.0,0.0,1.039
-4.0,0.0,1.04
-6.0,-3.0,1.041
-7.0,-4.0,1.042
1.0,-4.0,1.043
7.0,-2.0,1.044
6.0,2.0,1.045
4.0,6.0,1.046
1.0,7.0,1.047
-1.0,6.0,1.048
0.0,5.0,1.049
2.0,2.0,1.05
3.0,0.0,1.051
4.0,-2.0,1.052
6.0,0.0,1.053
7.0,1.0,1.054
4.0,0.0,1.055
1.0,-1.0,1.056
3.0,-1.0,1.057
6.0,-2.0,1.058
3.0,-4.0,1.059
-2.0,-5.0,1.06
-6.0,-6.0,1.061
-6.0,-7.0,1.062
-2.0,-6.0,1.063
4.0,-3.0,1.064
7.0,2.0,1.065
4.0,3.0,1.066
2.0,1.0,1.067
4.0,-1.0,1.068
4.0,-1.0,1.069
4.0,3.0,1.07
4.0,5.0,1.071
5.0,3.0,1.072
6.0,1.0,1.073
2.0,0.0,1.074
2.0,-1.0,1.075
6.0,-1.0,1.076
8.0,0.0,1.077
5.0,2.0,1.078
0.0,2.0,1.079
-4.0,-2.0,1.08
-8.0,-8.0,1.081
-7.0,-8.0,1.082
0.0,-3.0,1.083
9.0,1.0,1.084
9.0,4.0,1.085
0.0,5.0,1.086
-4.0,5.0,1.087
0.0,3.0,1.088
6.0,0.0,1.089
6.0,-1.0,1.09
4.0,0.0,1.091
0.0,0.0,1.092
0.0,0.0,1.093
1.0,0.0,1.094
4.0,-1.0,1.095
6.0,-3.0,1.096
4.0,-2.0,1.097
0.0,-1.0,1.098
1.0,0.0,1.099
1.0,-1.0,1.1
-1.0,-4.0,1.101
-4.0,-5.0,1.102
-2.0,-5.0,1.103
6.0,-4.0,1.104
10.0,0.0,1.105
4.0,4.0,1.106
0.0,4.0,1.107
4.0,-1.0,1.108
8.0,-4.0,1.109
3.0,-2.0,1.11
-2.0,0.0,1.111
-1.0,-1.0,1.112
3.0,-3.0,1.113
6.0,-2.0,1.114
5.0,0.0,1.115
5.0,0.0,1.116
6.0,-2.0,1.117
2.0,-2.0,1.118
0.0,-2.0,1.119
-1.0,-2.0,1.12
-2.0,-5.0,1.121
-3.0,-5.0,1.122
-3.0,-3.0,1.123
-3.0,0.0,1.124
-3.0,2.0,1.125
-2.0,4.0,1.126
-2.0,2.0,1.127
0.0,-2.0,1.128
1.0,-3.0,1.129
3.0,2.0,1.13
4.0,5.0,1.131
6.0,4.0,1.132
6.0,0.0,1.133
6.0,0.0,1.134
7.0,0.0,1.135
8.0,0.0,1.136
8.0,0.0,1.137
8.0,0.0,1.138
3.0,1.0,1.139
-2.0,1.0,1.14
-5.0,-3.0,1.141
-4.0,-6.0,1.142
0.0,-4.0,1.143
6.0,-2.0,1.144
7.0,0.0,1.145
3.0,1.0,1.146
1.0,1.0,1.147
2.0,0.0,1.148
3.0,0.0,1.149
2.0,0.0,1.15
1.0,0.0,1.151
2.0,1.0,1.152
6.0,1.0,1.153
6.0,0.0,1.154
6.0,0.0,1.155
4.0,1.0,1.156
3.0,0.0,1.157
2.0,-1.0,1.158
1.0,-3.0,1.159
-1.0,-4.0,1.16
-4.0,-7.0,1.161
-5.0,-6.0,1.162
-2.0,-2.0,1.163
3.0,0.0,1.164
6.0,0.0,1.165
4.0,0.0,1.166
3.0,4.0,1.167
5.0,6.0,1.168
7.0,4.0,1.169
4.0,1.0,1.17
0.0,3.0,1.171
1.0,4.0,1.172
5.0,2.0,1.173
7.0,0.0,1.174
5.0,0.0,1.175
3.0,0.0,1.176
3.0,0.0,1.177
0.0,-3.0,1.178
-3.0,-2.0,1.179
-5.0,0.0,1.18
-5.0,-5.0,1.181
-2.0,-7.0,1.182
0.0,-4.0,1.183
5.0,-1.0,1.184
7.0,0.0,1.185
3.0,-1.0,1.186
-2.0,-1.0,1.187
-2.0,0.0,1.188
0.0,0.0,1.189
0.0,0.0,1.19
0.0,1.0,1.191
0.0,3.0,1.192
2.0,5.0,1.193
1.0,4.0,1.194
0.0,4.0,1.195
1.0,2.0,1.196
3.0,0.0,1.197
8.0,-3.0,1.198
1.0,-5.0,1.199
-4.0,-4.0,1.2
-5.0,-5.0,1.201
-6.0,-5.0,1.202
0.0,-4.0,1.203
6.0,-5.0,1.204
6.0,-3.0,1.205
4.0,0.0,1.206
2.0,2.0,1.207
1.0,3.0,1.208
1.0,2.0,1.209
2.0,1.0,1.21
1.0,-1.0,1.211
0.0,-4.0,1.212
0.0,-2.0,1.213
0.0,1.0,1.214
1.0,1.0,1.215
3.0,0.0,1.216
6.0,1.0,1.217
7.0,-4.0,1.218
1.0,-4.0,1.219
-3.0,-4.0,1.22
-4.0,-5.0,1.221
-5.0,-7.0,1.222
0.0,-5.0,1.223
5.0,-3.0,1.224
5.0,-1.0,1.225
4.0,1.0,1.226
2.0,1.0,1.227
1.0,2.0,1.228
1.0,2.0,1.229
2.0,1.0,1.23
1.0,0.0,1.231
0.0,-1.0,1.232
0.0,0.0,1.233
0.0,1.0,1.234
1.0,-2.0,1.235
3.0,-4.0,1.236
5.0,-1.0,1.237
8.0,-4.0,1.238
4.0,-4.0,1.239
1.0,-4.0,1.24
-4.0,-5.0,1.241
-6.0,-7.0,1.242
-4.0,-5.0,1.243
4.0,-3.0,1.244
6.0,-1.0,1.245
2.0,1.0,1.246
-2.0,1.0,1.247
0.0,2.0,1.248
1.0,2.0,1.249
-1.0,1.0,1.25
-2.0,0.0,1.251
1.0,-1.0,1.252
5.0,0.0,1.253
8.0,1.0,1.254
7.0,-2.0,1.255
6.0,-4.0,1.256
5.0,-1.0,1.257
4.0,1.0,1.258
3.0,-2.0,1.259
2.0,-4.0,1.26
0.0,-6.0,1.261
-1.0,-5.0,1.262
2.0,-4.0,1.263
8.0,-4.0,1.264
9.0,-2.0,1.265
5.0,1.0,1.266
2.0,2.0,1.267
5.0,1.0,1.268
8.0,2.0,1.269
5.0,5.0,1.27
3.0,5.0,1.271
4.0,1.0,1.272
7.0,-2.0,1.273
7.0,-2.0,1.274
5.0,-1.0,1.275
6.0,0.0,1.276
9.0,0.0,1.277
7.0,0.0,1.278
5.0,-2.0,1.279
2.0,-4.0,1.28
-3.0,-9.0,1.281
-7.0,-8.0,1.282
-1.0,-4.0,1.283
3.0,-1.0,1.284
2.0,0.0,1.285
0.0,0.0,1.286
-3.0,0.0,1.287
-5.0,-2.0,1.288
-2.0,-2.0,1.289
0.0,0.0,1.29
0.0,0.0,1.291
1.0,-2.0,1.292
1.0,-5.0,1.293
1.0,-4.0,1.294
0.0,-2.0,1.295
-1.0,-3.0,1.296
0.0,-3.0,1.297
1.0,-4.0,1.298
-2.0,-3.0,1.299
-5.0,-1.0,1.3
-6.0,-1.0,1.301
-4.0,0.0,1.302
-2.0,0.0,1.303
2.0,2.0,1.304
1.0,1.0,1.305
-2.0,2.0,1.306
-2.0,2.0,1.307
2.0,-1.0,1.308
2.0,0.0,1.309
-1.0,4.0,1.31
-2.0,9.0,1.311
3.0,6.0,1.312
7.0,0.0,1.313
5.0,0.0,1.314
2.0,1.0,1.315
5.0,2.0,1.316
9.0,3.0,1.317
8.0,2.0,1.318
6.0,2.0,1.319
2.0,1.0,1.32
-1.0,-5.0,1.321
-3.0,-7.0,1.322
3.0,-6.0,1.323
11.0,-1.0,1.324
13.0,4.0,1.325
6.0,6.0,1.326
2.0,5.0,1.327
2.0,4.0,1.328
2.0,5.0,1.329
0.0,3.0,1.33
0.0,0.0,1.331
3.0,-4.0,1.332
5.0,-3.0,1.333
3.0,1.0,1.334
1.0,3.0,1.335
4.0,0.0,1.336
9.0,-2.0,1.337
7.0,-4.0,1.338
4.0,-4.0,1.339
-2.0,-4.0,1.34
-4.0,-6.0,1.341
-5.0,-6.0,1.342
1.0,-3.0,1.343
9.0,-1.0,1.344
11.0,0.0,1.345
6.0,-1.0,1.346
1.0,-1.0,1.347
0.0,-1.0,1.348
1.0,0.0,1.349
0.0,2.0,1.35
1.0,1.0,1.351
1.0,0.0,1.352
0.0,0.0,1.353
0.0,-2.0,1.354
1.0,-1.0,1.355
1.0,0.0,1.356
1.0,2.0,1.357
-2.0,-2.0,1.358
-1.0,-7.0,1.359
0.0,-8.0,1.36
-1.0,-8.0,1.361
-2.0,-5.0,1.362
0.0,-4.0,1.363
2.0,-3.0,1.364
2.0,1.0,1.365
1.0,5.0,1.366
1.0,5.0,1.367
0.0,1.0,1.368
0.0,-3.0,1.369
1.0,-5.0,1.37
1.0,-2.0,1.371
1.0,0.0,1.372
2.0,1.0,1.373
3.0,0.0,1.374
4.0,0.0,1.375
5.0,3.0,1.376
7.0,4.0,1.377
8.0,0.0,1.378
4.0,-1.0,1.379
-2.0,2.0,1.38
-4.0,0.0,1.381
-3.0,-4.0,1.382
0.0,-6.0,1.383
4.0,-2.0,1.384
5.0,3.0,1.385
3.0,3.0,1.386
0.0,1.0,1.387
1.0,2.0,1.388
3.0,3.0,1.389
2.0,0.0,1.39
0.0,-2.0,1.391
1.0,-2.0,1.392
5.0,1.0,1.393
7.0,1.0,1.394
5.0,-2.0,1.395
4.0,-2.0,1.396
6.0,2.0,1.397
8.0,3.0,1.398
3.0,-1.0,1.399
-3.0,-7.0,1.4
-6.0,-11.0,1.401
-4.0,-10.0,1.402
0.0,-6.0,1.403
4.0,-1.0,1.404
5.0,2.0,1.405
0.0,0.0,1.406
-3.0,-2.0,1.407
-3.0,-2.0,1.408
1.0,1.0,1.409
3.0,4.0,1.41
2.0,2.0,1.411
2.0,-2.0,1.412
3.0,-3.0,1.413
3.0,-1.0,1.414
2.0,-1.0,1.415
2.0,-2.0,1.416
6.0,-1.0,1.417
7.0,0.0,1.418
3.0,-1.0,1.419
-3.0,-2.0,1.42
-5.0,-6.0,1.421
-5.0,-7.0,1.422
0.0,-6.0,1.423
7.0,-2.0,1.424
13.0,2.0,1.425
11.0,6.0,1.426
2.0,6.0,1.427
-1.0,3.0,1.428
1.0,0.0,1.429
4.0,-1.0,1.43
3.0,-1.0,1.431
5.0,1.0,1.432
6.0,3.0,1.433
5.0,3.0,1.434
0.0,-1.0,1.435
-1.0,-2.0,1.436
3.0,-1.0,1.437
4.0,0.0,1.438
2.0,0.0,1.439
0.0,-3.0,1.44
-4.0,-6.0,1.441
-7.0,-5.0,1.442
-4.0,-2.0,1.443
-1.0,3.0,1.444
0.0,6.0,1.445
1.0,6.0,1.446
4.0,3.0,1.447
7.0,2.0,1.448
6.0,2.0,1.449
4.0,1.0,1.45
2.0,-1.0,1.451
1.0,-3.0,1.452
3.0,-3.0,1.453
5.0,-1.0,1.454
5.0,1.0,1.455
5.0,1.0,1.456
2.0,1.0,1.457
0.0,-1.0,1.458
2.0,-3.0,1.459
1.0,-2.0,1.46
-2.0,-4.0,1.461
-4.0,-4.0,1.462
-2.0,-5.0,1.463
1.0,-3.0,1.464
-1.0,2.0,1.465
-4.0,6.0,1.466
-2.0,5.0,1.467
1.0,0.0,1.468
2.0,-2.0,1.469
1.0,-1.0,1.47
4.0,0.0,1.471
7.0,-2.0,1.472
5.0,-3.0,1.473
4.0,0.0,1.474
5.0,2.0,1.475
7.0,0.0,1.476
5.0,1.0,1.477
1.0,-1.0,1.478
3.0,-2.0,1.479
4.0,-2.0,1.48
-1.0,-6.0,1.481
-4.0,-5.0,1.482
3.0,-5.0,1.483
9.0,-3.0,1.484
9.0,1.0,1.485
9.0,3.0,1.486
5.0,2.0,1.487
2.0,-1.0,1.488
4.0,-1.0,1.489
6.0,2.0,1.49
4.0,2.0,1.491
3.0,0.0,1.492
3.0,-2.0,1.493
2.0,0.0,1.494
3.0,1.0,1.495
4.0,-2.0,1.496
3.0,-3.0,1.497
2.0,-4.0,1.498
3.0,-3.0,1.499
0.0,-2.0,1.5
-6.0,-4.0,1.501
-9.0,-6.0,1.502
-5.0,-4.0,1.503
2.0,-2.0,1.504
6.0,1.0,1.505
3.0,3.0,1.506
1.0,1.0,1.507
3.0,0.0,1.508
5.0,1.0,1.509
5.0,3.0,1.51
2.0,4.0,1.511
1.0,5.0,1.512
0.0,1.0,1.513
-1.0,-1.0,1.514
1.0,0.0,1.515
5.0,2.0,1.516
10.0,0.0,1.517
8.0,-2.0,1.518
3.0,-4.0,1.519
-1.0,-3.0,1.52
-4.0,-3.0,1.521
-6.0,-3.0,1.522
-1.0,-3.0,1.523
3.0,-2.0,1.524
3.0,2.0,1.525
3.0,4.0,1.526
2.0,2.0,1.527
1.0,1.0,1.528
1.0,1.0,1.529
1.0,2.0,1.53
2.0,0.0,1.531
4.0,-2.0,1.532
4.0,-3.0,1.533
4.0,-2.0,1.534
4.0,-3.0,1.535
3.0,-2.0,1.536
4.0,3.0,1.537
5.0,2.0,1.538
3.0,-2.0,1.539
0.0,-5.0,1.54
-3.0,-5.0,1.541
-5.0,-4.0,1.542
-1.0,-4.0,1.543
6.0,-2.0,1.544
8.0,0.0,1.545
3.0,1.0,1.546
1.0,4.0,1.547
5.0,6.0,1.548
6.0,2.0,1.549
1.0,0.0,1.55
-1.0,3.0,1.551
2.0,5.0,1.552
5.0,3.0,1.553
4.0,1.0,1.554
1.0,0.0,1.555
3.0,-2.0,1.556
5.0,-2.0,1.557
1.0,0.0,1.558
-2.0,0.0,1.559
-4.0,-2.0,1.56
-6.0,-7.0,1.561
-6.0,-7.0,1.562
0.0,-4.0,1.563
7.0,0.0,1.564
8.0,2.0,1.565
1.0,1.0,1.566
-1.0,-2.0,1.567
4.0,-4.0,1.568
10.0,-3.0,1.569
10.0,1.0,1.57
6.0,3.0,1.571
5.0,1.0,1.572
3.0,0.0,1.573
1.0,1.0,1.574
3.0,4.0,1.575
7.0,2.0,1.576
10.0,1.0,1.577
5.0,-1.0,1.578
2.0,-3.0,1.579
0.0,-4.0,1.58
-1.0,-8.0,1.581
-3.0,-7.0,1.582
-1.0,-3.0,1.583
5.0,-2.0,1.584
6.0,0.0,1.585
3.0,1.0,1.586
2.0,0.0,1.587
4.0,-2.0,1.588
4.0,-2.0,1.589
-1.0,0.0,1.59
-4.0,0.0,1.591
-2.0,-1.0,1.592
0.0,1.0,1.593
0.0,4.0,1.594
-1.0,4.0,1.595
0.0,2.0,1.596
4.0,2.0,1.597
4.0,2.0,1.598
2.0,0.0,1.599
0.0,-5.0,1.6
-1.0,-10.0,1.601
-1.0,-8.0,1.602
5.0,-3.0,1.603
10.0,-1.0,1.604
7.0,-1.0,1.605
4.0,2.0,1.606
4.0,4.0,1.607
4.0,3.0,1.608
3.0,1.0,1.609
2.0,2.0,1.61
2.0,2.0,1.611
1.0,1.0,1.612
2.0,0.0,1.613
4.0,3.0,1.614
4.0,4.0,1.615
3.0,2.0,1.616
3.0,1.0,1.617
5.0,0.0,1.618
2.0,0.0,1.619
-2.0,-1.0,1.62
-5.0,-5.0,1.621
-3.0,-8.0,1.622
4.0,-6.0,1.623
10.0,-3.0,1.624
9.0,1.0,1.625
3.0,3.0,1.626
0.0,1.0,1.627
3.0,-1.0,1.628
4.0,0.0,1.629
1.0,2.0,1.63
-2.0,0.0,1.631
1.0,-1.0,1.632
6.0,-1.0,1.633
6.0,-2.0,1.634
3.0,-1.0,1.635
2.0,0.0,1.636
4.0,0.0,1.637
5.0,0.0,1.638
3.0,-2.0,1.639
-2.0,-3.0,1.64
-7.0,-7.0,1.641
-7.0,-7.0,1.642
0.0,-8.0,1.643
8.0,-4.0,1.644
8.0,2.0,1.645
1.0,6.0,1.646
-3.0,2.0,1.647
-1.0,-2.0,1.648
0.0,-1.0,1.649
-2.0,3.0,1.65
-3.0,3.0,1.651
-2.0,0.0,1.652
0.0,0.0,1.653
1.0,0.0,1.654
2.0,-3.0,1.655
2.0,-6.0,1.656
4.0,-4.0,1.657
5.0,0.0,1.658
6.0,0.0,1.659
6.0,-1.0,1.66
-1.0,-3.0,1.661
-4.0,-2.0,1.662
1.0,-2.0,1.663
4.0,-1.0,1.664
4.0,2.0,1.665
4.0,6.0,1.666
2.0,5.0,1.667
1.0,2.0,1.668
1.0,2.0,1.669
1.0,6.0,1.67
5.0,6.0,1.671
9.0,2.0,1.672
11.0,1.0,1.673
12.0,4.0,1.674
9.0,4.0,1.675
6.0,-1.0,1.676
5.0,-3.0,1.677
5.0,-1.0,1.678
6.0,0.0,1.679
6.0,2.0,1.68
0.0,-5.0,1.681
-3.0,-10.0,1.682
1.0,-5.0,1.683
4.0,-1.0,1.684
4.0,0.0,1.685
4.0,5.0,1.686
2.0,3.0,1.687
1.0,2.0,1.688
1.0,0.0,1.689
1.0,-2.0,1.69
5.0,0.0,1.691
8.0,0.0,1.692
10.0,-2.0,1.693
11.0,-7.0,1.694
8.0,-7.0,1.695
6.0,-7.0,1.696
5.0,-4.0,1.697
4.0,-1.0,1.698
1.0,0.0,1.699
-3.0,1.0,1.7
-7.0,-4.0,1.701
-9.0,-7.0,1.702
-1.0,-4.0,1.703
7.0,-1.0,1.704
7.0,0.0,1.705
-1.0,3.0,1.706
-4.0,2.0,1.707
1.0,1.0,1.708
4.0,0.0,1.709
2.0,-2.0,1.71
1.0,0.0,1.711
6.0,0.0,1.712
6.0,-2.0,1.713
1.0,-5.0,1.714
-1.0,-5.0,1.715
2.0,-5.0,1.716
8.0,-3.0,1.717
8.0,-2.0,1.718
5.0,-3.0,1.719
-3.0,-4.0,1.72
-10.0,-9.0,1.721
-8.0,-8.0,1.722
0.0,-7.0,1.723
8.0,-6.0,1.724
5.0,-4.0,1.725
0.0,1.0,1.726
1.0,3.0,1.727
6.0,0.0,1.728
5.0,-3.0,1.729
0.0,-1.0,1.73
1.0,1.0,1.731
6.0,0.0,1.732
9.0,-1.0,1.733
4.0,1.0,1.734
0.0,3.0,1.735
3.0,1.0,1.736
9.0,-1.0,1.737
10.0,-3.0,1.738
6.0,-3.0,1.739
2.0,-2.0,1.74
0.0,-4.0,1.741
0.0,-4.0,1.742
6.0,-3.0,1.743
9.0,-1.0,1.744
3.0,1.0,1.745
-1.0,3.0,1.746
-1.0,2.0,1.747
0.0,-1.0,1.748
0.0,-2.0,1.749
1.0,0.0,1.75
1.0,4.0,1.751
1.0,3.0,1.752
2.0,1.0,1.753
3.0,2.0,1.754
1.0,4.0,1.755
0.0,3.0,1.756
2.0,2.0,1.757
5.0,1.0,1.758
2.0,2.0,1.759
-4.0,2.0,1.76
-6.0,-2.0,1.761
-7.0,-5.0,1.762
-3.0,-4.0,1.763
2.0,-3.0,1.764
4.0,-3.0,1.765
0.0,0.0,1.766
-2.0,-1.0,1.767
0.0,-2.0,1.768
2.0,-2.0,1.769
1.0,0.0,1.77
1.0,-1.0,1.771
3.0,-4.0,1.772
6.0,-6.0,1.773
3.0,-3.0,1.774
3.0,0.0,1.775
3.0,3.0,1.776
7.0,4.0,1.777
5.0,2.0,1.778
3.0,1.0,1.779
1.0,-1.0,1.78
-1.0,-4.0,1.781
-4.0,0.0,1.782
0.0,1.0,1.783
8.0,1.0,1.784
12.0,0.0,1.785
7.0,1.0,1.786
1.0,1.0,1.787
1.0,-2.0,1.788
2.0,-4.0,1.789
1.0,-3.0,1.79
-1.0,-1.0,1.791
1.0,-2.0,1.792
5.0,-3.0,1.793
8.0,1.0,1.794
7.0,5.0,1.795
6.0,1.0,1.796
6.0,-3.0,1.797
3.0,-6.0,1.798
1.0,-4.0,1.799
-3.0,-2.0,1.8
-8.0,-6.0,1.801
-9.0,-6.0,1.802
-2.0,-2.0,1.803
7.0,0.0,1.804
7.0,3.0,1.805
2.0,5.0,1.806
0.0,4.0,1.807
5.0,0.0,1.808
7.0,-4.0,1.809
5.0,-3.0,1.81
2.0,-2.0,1.811
4.0,0.0,1.812
4.0,1.0,1.813
1.0,2.0,1.814
0.0,4.0,1.815
3.0,3.0,1.816
6.0,3.0,1.817
3.0,0.0,1.818
0.0,-5.0,1.819
-2.0,-9.0,1.82
-3.0,-9.0,1.821
-3.0,-3.0,1.822
2.0,1.0,1.823
6.0,-1.0,1.824
5.0,0.0,1.825
4.0,5.0,1.826
3.0,6.0,1.827
1.0,2.0,1.828
0.0,-3.0,1.829
-2.0,-2.0,1.83
-2.0,2.0,1.831
0.0,0.0,1.832
4.0,0.0,1.833
8.0,3.0,1.834
10.0,5.0,1.835
13.0,2.0,1.836
12.0,-4.0,1.837
10.0,-6.0,1.838
2.0,-4.0,1.839
-3.0,-3.0,1.84
-6.0,-7.0,1.841
-4.0,-9.0,1.842
3.0,-3.0,1.843
11.0,1.0,1.844
9.0,3.0,1.845
0.0,5.0,1.846
-1.0,5.0,1.847
3.0,5.0,1.848
6.0,3.0,1.849
1.0,2.0,1.85
-1.0,2.0,1.851
0.0,2.0,1.852
0.0,0.0,1.853
-2.0,-3.0,1.854
1.0,-1.0,1.855
8.0,0.0,1.856
12.0,-1.0,1.857
7.0,-3.0,1.858
4.0,-4.0,1.859
3.0,-4.0,1.86
1.0,-6.0,1.861
-5.0,-5.0,1.862
-5.0,-3.0,1.863
3.0,1.0,1.864
8.0,3.0,1.865
3.0,3.0,1.866
-4.0,1.0,1.867
-2.0,-1.0,1.868
3.0,-2.0,1.869
2.0,-3.0,1.87
-4.0,-3.0,1.871
-3.0,-3.0,1.872
1.0,-2.0,1.873
4.0,0.0,1.874
2.0,0.0,1.875
1.0,0.0,1.876
4.0,0.0,1.877
5.0,2.0,1.878
5.0,2.0,1.879
2.0,0.0,1.88
-1.0,-6.0,1.881
-3.0,-6.0,1.882
0.0,-5.0,1.883
7.0,-2.0,1.884
9.0,3.0,1.885
4.0,5.0,1.886
2.0,3.0,1.887
7.0,-1.0,1.888
9.0,-2.0,1.889
5.0,1.0,1.89
1.0,4.0,1.891
3.0,2.0,1.892
6.0,-1.0,1.893
1.0,-1.0,1.894
-2.0,0.0,1.895
-1.0,-1.0,1.896
4.0,0.0,1.897
2.0,0.0,1.898
-1.0,0.0,1.899
-4.0,-3.0,1.9
-4.0,-7.0,1.901
-4.0,-7.0,1.902
1.0,-3.0,1.903
5.0,-1.0,1.904
7.0,-1.0,1.905
9.0,3.0,1.906
5.0,5.0,1.907
2.0,3.0,1.908
2.0,-2.0,1.909
3.0,-2.0,1.91
3.0,0.0,1.911
3.0,0.0,1.912
5.0,0.0,1.913
6.0,2.0,1.914
4.0,5.0,1.915
3.0,4.0,1.916
4.0,0.0,1.917
6.0,-2.0,1.918
5.0,-4.0,1.919
0.0,-4.0,1.92
-3.0,-5.0,1.921
-3.0,-3.0,1.922
1.0,-1.0,1.923
7.0,0.0,1.924
6.0,1.0,1.925
1.0,3.0,1.926
-2.0,1.0,1.927
0.0,-1.0,1.928
0.0,1.0,1.929
-3.0,5.0,1.93
-6.0,4.0,1.931
-3.0,-2.0,1.932
1.0,-6.0,1.933
2.0,-2.0,1.934
1.0,0.0,1.935
3.0,-3.0,1.936
4.0,-2.0,1.937
3.0,-1.0,1.938
2.0,0.0,1.939
1.0,-2.0,1.94
0.0,-7.0,1.941
-2.0,-6.0,1.942
0.0,-5.0,1.943
5.0,-4.0,1.944
9.0,-3.0,1.945
1.0,0.0,1.946
-5.0,0.0,1.947
-5.0,-3.0,1.948
1.0,-3.0,1.949
4.0,0.0,1.95
3.0,1.0,1.951
2.0,1.0,1.952
5.0,1.0,1.953
6.0,2.0,1.954
4.0,0.0,1.955
3.0,-4.0,1.956
5.0,-3.0,1.957
5.0,0.0,1.958
6.0,0.0,1.959
3.0,-3.0,1.96
-1.0,-4.0,1.961
-4.0,-1.0,1.962
0.0,0.0,1.963
8.0,-3.0,1.964
9.0,0.0,1.965
2.0,8.0,1.966
-1.0,12.0,1.967
2.0,7.0,1.968
4.0,1.0,1.969
-2.0,0.0,1.97
-3.0,2.0,1.971
3.0,1.0,1.972
10.0,0.0,1.973
8.0,0.0,1.974
4.0,0.0,1.975
6.0,-2.0,1.976
8.0,-1.0,1.977
3.0,1.0,1.978
-1.0,1.0,1.979
-4.0,-3.0,1.98
-4.0,-7.0,1.981
-2.0,-5.0,1.982
0.0,-2.0,1.983
3.0,-1.0,1.984
5.0,0.0,1.985
7.0,3.0,1.986
4.0,2.0,1.987
1.0,-3.0,1.988
2.0,-4.0,1.989
4.0,0.0,1.99
4.0,3.0,1.991
5.0,3.0,1.992
5.0,0.0,1.993
4.0,-1.0,1.994
4.0,0.0,1.995
4.0,-1.0,1.996
4.0,-1.0,1.997
2.0,-3.0,1.998
-1.0,-4.0,1.999
-2.0,-5.0,2.0
-3.0,-8.0,2.001
-4.0,-6.0,2.002
-2.0,-6.0,2.003
5.0,-3.0,2.004
6.0,1.0,2.005
1.0,4.0,2.006
-4.0,5.0,2.007
-3.0,3.0,2.008
0.0,2.0,2.009
1.0,5.0,2.01
-1.0,6.0,2.011
0.0,0.0,2.012
0.0,-3.0,2.013
0.0,-3.0,2.014
1.0,0.0,2.015
2.0,3.0,2.016
2.0,3.0,2.017
0.0,0.0,2.018
0.0,-1.0,2.019
1.0,0.0,2.02
0.0,-3.0,2.021
0.0,-3.0,2.022
6.0,-3.0,2.023
13.0,-1.0,2.024
9.0,3.0,2.025
-1.0,5.0,2.026
-2.0,3.0,2.027
5.0,0.0,2.028
12.0,-1.0,2.029
10.0,2.0,2.03
3.0,2.0,2.031
0.0,0.0,2.032
0.0,-3.0,2.033
0.0,-2.0,2.034
0.0,0.0,2.035
3.0,1.0,2.036
7.0,1.0,2.037
5.0,-1.0,2.038
2.0,-3.0,2.039
-1.0,-2.0,2.04
-2.0,-4.0,2.041
-1.0,-6.0,2.042
3.0,-7.0,2.043
8.0,-7.0,2.044
9.0,-3.0,2.045
3.0,3.0,2.046
0.0,6.0,2.047
1.0,2.0,2.048
3.0,0.0,2.049
3.0,-1.0,2.05
2.0,-2.0,2.051
2.0,-4.0,2.052
5.0,-2.0,2.053
5.0,2.0,2.054
2.0,2.0,2.055
3.0,-3.0,2.056
9.0,-4.0,2.057
10.0,1.0,2.058
8.0,4.0,2.059
6.0,0.0,2.06
1.0,-6.0,2.061
-2.0,-5.0,2.062
0.0,-2.0,2.063
2.0,-2.0,2.064
0.0,-4.0,2.065
-2.0,-2.0,2.066
-2.0,0.0,2.067
-2.0,0.0,2.068
0.0,-2.0,2.069
0.0,-1.0,2.07
-5.0,3.0,2.071
-8.0,5.0,2.072
-2.0,1.0,2.073
2.0,-3.0,2.074
2.0,-4.0,2.075
3.0,-3.0,2.076
1.0,0.0,2.077
0.0,-1.0,2.078
-3.0,-4.0,2.079
-7.0,-7.0,2.08
-9.0,-7.0,2.081
-8.0,-5.0,2.082
-2.0,-2.0,2.083
6.0,0.0,2.084
6.0,2.0,2.085
-1.0,4.0,2.086
-4.0,2.0,2.087
-1.0,0.0,2.088
3.0,1.0,2.089
2.0,3.0,2.09
0.0,3.0,2.091
2.0,3.0,2.092
6.0,6.0,2.093
5.0,8.0,2.094
5.0,4.0,2.095
9.0,0.0,2.096
13.0,0.0,2.097
9.0,1.0,2.098
2.0,1.0,2.099
-1.0,-1.0,2.1
-2.0,-6.0,2.101
-1.0,-4.0,2.102
1.0,-2.0,2.103
5.0,-1.0,2.104
7.0,1.0,2.105
5.0,3.0,2.106
2.0,2.0,2.107
1.0,0.0,2.108
2.0,1.0,2.109
2.0,2.0,2.11
2.0,-1.0,2.111
2.0,-5.0,2.112
5.0,-3.0,2.113
8.0,1.0,2.114
9.0,3.0,2.115
7.0,0.0,2.116
7.0,-2.0,2.117
2.0,-3.0,2.118
0.0,-3.0,2.119
0.0,-4.0,2.12
1.0,-7.0,2.121
2.0,-6.0,2.122
4.0,-5.0,2.123
7.0,-6.0,2.124
6.0,-6.0,2.125
1.0,-2.0,2.126
-1.0,0.0,2.127
1.0,-1.0,2.128
6.0,-2.0,2.129
5.0,1.0,2.13
3.0,4.0,2.131
3.0,1.0,2.132
4.0,-2.0,2.133
2.0,-2.0,2.134
-1.0,0.0,2.135
-1.0,1.0,2.136
3.0,1.0,2.137
6.0,1.0,2.138
5.0,0.0,2.139
0.0,-4.0,2.14
-3.0,-10.0,2.141
-3.0,-10.0,2.142
0.0,-3.0,2.143
7.0,2.0,2.144
10.0,4.0,2.145
4.0,6.0,2.146
0.0,5.0,2.147
1.0,0.0,2.148
4.0,-1.0,2.149
2.0,3.0,2.15
-2.0,5.0,2.151
1.0,0.0,2.152
9.0,-5.0,2.153
12.0,-2.0,2.154
7.0,1.0,2.155
2.0,-1.0,2.156
0.0,-3.0,2.157
0.0,-4.0,2.158
0.0,-1.0,2.159
0.0,0.0,2.16
-1.0,-5.0,2.161
-3.0,-5.0,2.162
-1.0,-1.0,2.163
4.0,2.0,2.164
4.0,2.0,2.165
1.0,3.0,2.166
-2.0,5.0,2.167
1.0,5.0,2.168
3.0,2.0,2.169
0.0,-1.0,2.17
-3.0,-2.0,2.171
-1.0,-1.0,2.172
3.0,-1.0,2.173
3.0,0.0,2.174
1.0,-2.0,2.175
0.0,-3.0,2.176
2.0,-1.0,2.177
1.0,-1.0,2.178
-1.0,-1.0,2.179
-5.0,-3.0,2.18
-7.0,-7.0,2.181
-5.0,-6.0,2.182
2.0,-3.0,2.183
10.0,-1.0,2.184
8.0,1.0,2.185
1.0,1.0,2.186
-2.0,0.0,2.187
1.0,-2.0,2.188
5.0,-4.0,2.189
3.0,-2.0,2.19
0.0,-3.0,2.191
0.0,-3.0,2.192
1.0,-2.0,2.193
2.0,-1.0,2.194
4.0,0.0,2.195
6.0,0.0,2.196
8.0,0.0,2.197
4.0,0.0,2.198
2.0,0.0,2.199
0.0,-1.0,2.2
-2.0,-6.0,2.201
-4.0,-5.0,2.202
0.0,-1.0,2.203
2.0,-1.0,2.204
0.0,-2.0,2.205
-2.0,-1.0,2.206
-2.0,2.0,2.207
-1.0,1.0,2.208
-1.0,0.0,2.209
0.0,0.0,2.21
0.0,2.0,2.211
-1.0,1.0,2.212
0.0,1.0,2.213
2.0,3.0,2.214
3.0,6.0,2.215
5.0,5.0,2.216
5.0,2.0,2.217
5.0,0.0,2.218
3.0,2.0,2.219
-1.0,0.0,2.22
-2.0,-8.0,2.221
0.0,-8.0,2.222
6.0,-2.0,2.223
9.0,3.0,2.224
6.0,0.0,2.225
2.0,-1.0,2.226
0.0,0.0,2.227
0.0,2.0,2.228
0.0,0.0,2.229
-1.0,0.0,2.23
-2.0,3.0,2.231
1.0,5.0,2.232
6.0,2.0,2.233
6.0,-1.0,2.234
2.0,-1.0,2.235
0.0,1.0,2.236
3.0,2.0,2.237
9.0,-1.0,2.238
11.0,-1.0,2.239
6.0,0.0,2.24
-2.0,-2.0,2.241
-5.0,-4.0,2.242
0.0,-7.0,2.243
8.0,-5.0,2.244
9.0,0.0,2.245
4.0,1.0,2.246
0.0,3.0,2.247
0.0,3.0,2.248
2.0,4.0,2.249
2.0,5.0,2.25
3.0,6.0,2.251
4.0,3.0,2.252
2.0,0.0,2.253
-1.0,0.0,2.254
-1.0,0.0,2.255
3.0,-2.0,2.256
7.0,-2.0,2.257
3.0,-5.0,2.258
-1.0,-5.0,2.259
-3.0,-4.0,2.26
-1.0,-6.0,2.261
2.0,-6.0,2.262
8.0,-4.0,2.263
11.0,0.0,2.264
7.0,3.0,2.265
0.0,4.0,2.266
-2.0,3.0,2.267
0.0,0.0,2.268
-1.0,-3.0,2.269
-3.0,-4.0,2.27
-2.0,-2.0,2.271
2.0,0.0,2.272
4.0,-1.0,2.273
1.0,-1.0,2.274
2.0,0.0,2.275
5.0,0.0,2.276
9.0,-1.0,2.277
7.0,-1.0,2.278
5.0,0.0,2.279
2.0,2.0,2.28
-3.0,-4.0,2.281
-5.0,-8.0,2.282
-1.0,-6.0,2.283
6.0,0.0,2.284
9.0,4.0,2.285
4.0,2.0,2.286
1.0,0.0,2.287
2.0,0.0,2.288
2.0,4.0,2.289
0.0,4.0,2.29
-1.0,1.0,2.291
2.0,-2.0,2.292
6.0,0.0,2.293
5.0,4.0,2.294
1.0,3.0,2.295
0.0,0.0,2.296
1.0,0.0,2.297
2.0,-1.0,2.298
2.0,-4.0,2.299
0.0,-7.0,2.3
-3.0,-8.0,2.301
-3.0,-7.0,2.302
1.0,-4.0,2.303
6.0,-3.0,2.304
6.0,-1.0,2.305
3.0,4.0,2.306
3.0,4.0,2.307
8.0,0.0,2.308
8.0,-2.0,2.309
2.0,0.0,2.31
-4.0,3.0,2.311
-2.0,2.0,2.312
0.0,-1.0,2.313
3.0,-1.0,2.314
2.0,0.0,2.315
3.0,0.0,2.316
6.0,1.0,2.317
7.0,1.0,2.318
6.0,-1.0,2.319
0.0,-4.0,2.32
-7.0,-9.0,2.321
-8.0,-8.0,2.322
-1.0,-3.0,2.323
7.0,1.0,2.324
9.0,4.0,2.325
3.0,6.0,2.326
-1.0,5.0,2.327
-2.0,1.0,2.328
-1.0,0.0,2.329
0.0,2.0,2.33
3.0,5.0,2.331
5.0,4.0,2.332
5.0,3.0,2.333
3.0,4.0,2.334
0.0,5.0,2.335
0.0,3.0,2.336
2.0,1.0,2.337
4.0,-1.0,2.338
6.0,-2.0,2.339
2.0,-1.0,2.34
-2.0,-4.0,2.341
-3.0,-5.0,2.342
3.0,-4.0,2.343
10.0,-3.0,2.344
10.0,-1.0,2.345
2.0,1.0,2.346
-2.0,0.0,2.347
1.0,-3.0,2.348
4.0,-3.0,2.349
1.0,0.0,2.35
-3.0,3.0,2.351
-1.0,2.0,2.352
3.0,0.0,2.353
4.0,0.0,2.354
3.0,0.0,2.355
4.0,2.0,2.356
5.0,4.0,2.357
4.0,2.0,2.358
2.0,-1.0,2.359
-1.0,-3.0,2.36
-3.0,-7.0,2.361
-2.0,-7.0,2.362
3.0,-4.0,2.363
8.0,-2.0,2.364
8.0,-2.0,2.365
1.0,-1.0,2.366
-2.0,-2.0,2.367
0.0,-3.0,2.368
2.0,-3.0,2.369
1.0,0.0,2.37
1.0,2.0,2.371
2.0,0.0,2.372
1.0,-2.0,2.373
0.0,0.0,2.374
2.0,3.0,2.375
6.0,1.0,2.376
8.0,-2.0,2.377
7.0,-4.0,2.378
4.0,-2.0,2.379
1.0,0.0,2.38
0.0,-5.0,2.381
0.0,-5.0,2.382
5.0,0.0,2.383
10.0,4.0,2.384
6.0,4.0,2.385
2.0,2.0,2.386
3.0,0.0,2.387
4.0,-3.0,2.388
2.0,-2.0,2.389
1.0,0.0,2.39
1.0,2.0,2.391
1.0,0.0,2.392
1.0,-2.0,2.393
2.0,0.0,2.394
0.0,0.0,2.395
0.0,-2.0,2.396
1.0,-1.0,2.397
3.0,0.0,2.398
0.0,0.0,2.399
0.0,-1.0,2.4
1.0,-2.0,2.401
1.0,-3.0,2.402
2.0,-2.0,2.403
3.0,-1.0,2.404
3.0,-1.0,2.405
1.0,-2.0,2.406
1.0,-2.0,2.407
1.0,-1.0,2.408
3.0,-1.0,2.409
4.0,-1.0,2.41
6.0,-2.0,2.411
3.0,-3.0,2.412
-1.0,-3.0,2.413
-3.0,-4.0,2.414
1.0,-3.0,2.415
8.0,-2.0,2.416
10.0,-3.0,2.417
7.0,-4.0,2.418
2.0,-4.0,2.419
-2.0,-4.0,2.42
-6.0,-6.0,2.421
-7.0,-4.0,2.422
-2.0,-2.0,2.423
5.0,0.0,2.424
6.0,3.0,2.425
-1.0,6.0,2.426
-4.0,2.0,2.427
-1.0,-4.0,2.428
1.0,-4.0,2.429
1.0,2.0,2.43
0.0,5.0,2.431
3.0,1.0,2.432
4.0,0.0,2.433
2.0,2.0,2.434
3.0,4.0,2.435
7.0,0.0,2.436
10.0,-1.0,2.437
5.0,-1.0,2.438
2.0,2.0,2.439
1.0,1.0,2.44
2.0,-6.0,2.441
1.0,-8.0,2.442
3.0,-3.0,2.443
7.0,0.0,2.444
10.0,1.0,2.445
5.0,0.0,2.446
0.0,0.0,2.447
3.0,2.0,2.448
8.0,4.0,2.449
6.0,4.0,2.45
-1.0,2.0,2.451
-1.0,-1.0,2.452
3.0,-1.0,2.453
4.0,0.0,2.454
1.0,0.0,2.455
0.0,1.0,2.456
4.0,0.0,2.457
4.0,-1.0,2.458
2.0,-3.0,2.459
-4.0,-5.0,2.46
-7.0,-6.0,2.461
-6.0,-5.0,2.462
3.0,-4.0,2.463
11.0,0.0,2.464
11.0,3.0,2.465
3.0,5.0,2.466
0.0,2.0,2.467
4.0,-1.0,2.468
6.0,-1.0,2.469
2.0,0.0,2.47
-2.0,-2.0,2.471
-1.0,-4.0,2.472
2.0,-3.0,2.473
2.0,-1.0,2.474
1.0,-2.0,2.475
4.0,-1.0,2.476
6.0,0.0,2.477
2.0,-1.0,2.478
0.0,-3.0,2.479
0.0,-3.0,2.48
1.0,-3.0,2.481
0.0,-4.0,2.482
2.0,-9.0,2.483
7.0,-7.0,2.484
7.0,1.0,2.485
2.0,7.0,2.486
-1.0,4.0,2.487
-1.0,0.0,2.488
0.0,0.0,2.489
-2.0,4.0,2.49
-4.0,4.0,2.491
-1.0,0.0,2.492
1.0,-3.0,2.493
3.0,-1.0,2.494
4.0,0.0,2.495
6.0,-2.0,2.496
9.0,-4.0,2.497
8.0,-2.0,2.498
6.0,0.0,2.499
3.0,1.0,2.5
-1.0,-3.0,2.501
-3.0,-4.0,2.502
3.0,-1.0,2.503
10.0,0.0,2.504
8.0,2.0,2.505
0.0,4.0,2.506
-1.0,5.0,2.507
2.0,2.0,2.508
2.0,-1.0,2.509
-2.0,2.0,2.51
-3.0,5.0,2.511
3.0,1.0,2.512
6.0,-3.0,2.513
3.0,-2.0,2.514
2.0,1.0,2.515
3.0,0.0,2.516
6.0,-4.0,2.517
4.0,-5.0,2.518
3.0,-3.0,2.519
2.0,0.0,2.52
0.0,-5.0,2.521
0.0,-7.0,2.522
5.0,-5.0,2.523
8.0,-2.0,2.524
4.0,0.0,2.525
0.0,2.0,2.526
-1.0,3.0,2.527
-3.0,1.0,2.528
-1.0,-2.0,2.529
0.0,-3.0,2.53
0.0,-1.0,2.531
0.0,1.0,2.532
1.0,2.0,2.533
2.0,2.0,2.534
3.0,1.0,2.535
5.0,-1.0,2.536
5.0,0.0,2.537
5.0,-1.0,2.538
3.0,0.0,2.539
2.0,0.0,2.54
1.0,-2.0,2.541
-1.0,-4.0,2.542
2.0,-5.0,2.543
8.0,-1.0,2.544
7.0,6.0,2.545
2.0,10.0,2.546
0.0,8.0,2.547
3.0,4.0,2.548
3.0,2.0,2.549
-2.0,3.0,2.55
-3.0,2.0,2.551
1.0,0.0,2.552
5.0,0.0,2.553
5.0,-1.0,2.554
1.0,-6.0,2.555
0.0,-7.0,2.556
1.0,-3.0,2.557
0.0,1.0,2.558
0.0,-1.0,2.559
-1.0,-6.0,2.56
-2.0,-10.0,2.561
-1.0,-6.0,2.562
4.0,-3.0,2.563
10.0,-3.0,2.564
8.0,-2.0,2.565
-1.0,0.0,2.566
-4.0,1.0,2.567
0.0,-1.0,2.568
5.0,0.0,2.569
4.0,3.0,2.57
1.0,4.0,2.571
3.0,0.0,2.572
6.0,-3.0,2.573
5.0,-2.0,2.574
1.0,0.0,2.575
1.0,0.0,2.576
4.0,2.0,2.577
5.0,2.0,2.578
2.0,1.0,2.579
-2.0,-3.0,2.58
-4.0,-5.0,2.581
-2.0,-4.0,2.582
3.0,-2.0,2.583
10.0,-2.0,2.584
9.0,0.0,2.585
1.0,5.0,2.586
-2.0,5.0,2.587
-2.0,-1.0,2.588
1.0,-4.0,2.589
-2.0,-3.0,2.59
-4.0,0.0,2.591
-1.0,0.0,2.592
4.0,1.0,2.593
5.0,2.0,2.594
2.0,1.0,2.595
0.0,-1.0,2.596
2.0,0.0,2.597
3.0,3.0,2.598
2.0,1.0,2.599
0.0,-4.0,2.6
-2.0,-8.0,2.601
-1.0,-4.0,2.602
3.0,0.0,2.603
7.0,-1.0,2.604
5.0,-1.0,2.605
-1.0,2.0,2.606
-2.0,3.0,2.607
0.0,2.0,2.608
3.0,1.0,2.609
2.0,2.0,2.61
0.0,2.0,2.611
1.0,0.0,2.612
3.0,1.0,2.613
3.0,3.0,2.614
3.0,1.0,2.615
5.0,0.0,2.616
6.0,1.0,2.617
4.0,1.0,2.618
0.0,-1.0,2.619
-2.0,-5.0,2.62
-3.0,-6.0,2.621
-3.0,-4.0,2.622
1.0,-4.0,2.623
8.0,-6.0,2.624
8.0,-1.0,2.625
2.0,5.0,2.626
-1.0,5.0,2.627
0.0,-1.0,2.628
2.0,-2.0,2.629
1.0,0.0,2.63
2.0,2.0,2.631
3.0,-1.0,2.632
1.0,-3.0,2.633
1.0,-3.0,2.634
3.0,-1.0,2.635
5.0,-1.0,2.636
4.0,1.0,2.637
1.0,2.0,2.638
2.0,2.0,2.639
4.0,0.0,2.64
3.0,-4.0,2.641
1.0,-3.0,2.642
4.0,-2.0,2.643
11.0,-2.0,2.644
9.0,0.0,2.645
3.0,1.0,2.646
1.0,1.0,2.647
4.0,0.0,2.648
6.0,-1.0,2.649
4.0,2.0,2.65
4.0,3.0,2.651
5.0,1.0,2.652
3.0,-1.0,2.653
0.0,-1.0,2.654
1.0,-1.0,2.655
8.0,-1.0,2.656
12.0,-1.0,2.657
8.0,-2.0,2.658
2.0,-3.0,2.659
-3.0,-1.0,2.66
-6.0,-4.0,2.661
-5.0,-6.0,2.662
0.0,-7.0,2.663
7.0,-5.0,2.664
9.0,0.0,2.665
2.0,4.0,2.666
-2.0,1.0,2.667
0.0,-2.0,2.668
2.0,0.0,2.669
-1.0,3.0,2.67
-3.0,3.0,2.671
0.0,-2.0,2.672
4.0,-2.0,2.673
4.0,2.0,2.674
1.0,3.0,2.675
2.0,-1.0,2.676
5.0,-2.0,2.677
5.0,-1.0,2.678
3.0,0.0,2.679
-1.0,-3.0,2.68
-7.0,-7.0,2.681
-8.0,-6.0,2.682
-2.0,-2.0,2.683
8.0,0.0,2.684
10.0,0.0,2.685
3.0,4.0,2.686
-1.0,4.0,2.687
1.0,0.0,2.688
7.0,-4.0,2.689
5.0,-2.0,2.69
-1.0,1.0,2.691
0.0,0.0,2.692
6.0,-1.0,2.693
10.0,0.0,2.694
9.0,0.0,2.695
6.0,-1.0,2.696
4.0,-2.0,2.697
0.0,-1.0,2.698
0.0,0.0,2.699
0.0,0.0,2.7
0.0,-5.0,2.701
2.0,-8.0,2.702
6.0,-8.0,2.703
8.0,-5.0,2.704
6.0,-2.0,2.705
4.0,0.0,2.706
2.0,0.0,2.707
1.0,-2.0,2.708
1.0,-2.0,2.709
0.0,0.0,2.71
-2.0,0.0,2.711
-3.0,1.0,2.712
0.0,3.0,2.713
2.0,6.0,2.714
1.0,4.0,2.715
0.0,-2.0,2.716
1.0,-5.0,2.717
4.0,-5.0,2.718
3.0,-1.0,2.719
0.0,1.0,2.72
-1.0,-3.0,2.721
-2.0,-7.0,2.722
2.0,-5.0,2.723
9.0,-3.0,2.724
9.0,1.0,2.725
2.0,4.0,2.726
-1.0,4.0,2.727
0.0,3.0,2.728
1.0,2.0,2.729
-2.0,1.0,2.73
-4.0,1.0,2.731
-2.0,0.0,2.732
2.0,-1.0,2.733
5.0,-3.0,2.734
6.0,-2.0,2.735
6.0,0.0,2.736
6.0,1.0,2.737
2.0,2.0,2.738
0.0,0.0,2.739
-2.0,-1.0,2.74
-4.0,-8.0,2.741
-3.0,-7.0,2.742
4.0,-3.0,2.743
11.0,3.0,2.744
10.0,6.0,2.745
2.0,5.0,2.746
-2.0,0.0,2.747
-1.0,-2.0,2.748
0.0,1.0,2.749
0.0,4.0,2.75
0.0,4.0,2.751
1.0,0.0,2.752
0.0,0.0,2.753
0.0,-1.0,2.754
2.0,-1.0,2.755
6.0,-3.0,2.756
8.0,-3.0,2.757
5.0,-2.0,2.758
3.0,0.0,2.759
1.0,1.0,2.76
-2.0,0.0,2.761
-3.0,-4.0,2.762
0.0,-8.0,2.763
7.0,-7.0,2.764
9.0,0.0,2.765
6.0,6.0,2.766
3.0,6.0,2.767
3.0,0.0,2.768
2.0,-2.0,2.769
0.0,-2.0,2.77
0.0,0.0,2.771
2.0,1.0,2.772
7.0,1.0,2.773
7.0,2.0,2.774
4.0,2.0,2.775
2.0,2.0,2.776
3.0,1.0,2.777
2.0,-1.0,2.778
0.0,-3.0,2.779
-2.0,-3.0,2.78
-5.0,-5.0,2.781
-4.0,-4.0,2.782
0.0,-4.0,2.783
6.0,-3.0,2.784
8.0,-2.0,2.785
5.0,0.0,2.786
1.0,4.0,2.787
0.0,4.0,2.788
2.0,1.0,2.789
4.0,-1.0,2.79
3.0,0.0,2.791
1.0,0.0,2.792
1.0,-1.0,2.793
2.0,-1.0,2.794
3.0,0.0,2.795
4.0,0.0,2.796
7.0,1.0,2.797
6.0,0.0,2.798
2.0,1.0,2.799
-1.0,0.0,2.8
-4.0,-7.0,2.801
-3.0,-9.0,2.802
2.0,-7.0,2.803
9.0,-2.0,2.804
10.0,1.0,2.805
4.0,1.0,2.806
-1.0,1.0,2.807
-1.0,0.0,2.808
2.0,0.0,2.809
3.0,1.0,2.81
4.0,3.0,2.811
6.0,4.0,2.812
9.0,2.0,2.813
6.0,2.0,2.814
6.0,3.0,2.815
6.0,3.0,2.816
10.0,4.0,2.817
8.0,4.0,2.818
6.0,4.0,2.819
4.0,2.0,2.82
0.0,-4.0,2.821
-4.0,-7.0,2.822
-3.0,-5.0,2.823
4.0,-1.0,2.824
7.0,0.0,2.825
1.0,0.0,2.826
-3.0,0.0,2.827
-2.0,1.0,2.828
0.0,1.0,2.829
-1.0,0.0,2.83
-3.0,-1.0,2.831
-1.0,-2.0,2.832
-1.0,-3.0,2.833
-3.0,-3.0,2.834
-4.0,-4.0,2.835
-2.0,-2.0,2.836
0.0,-1.0,2.837
-2.0,-2.0,2.838
-3.0,-3.0,2.839
-4.0,-2.0,2.84
-6.0,-5.0,2.841
-8.0,-6.0,2.842
-4.0,-5.0,2.843
2.0,-3.0,2.844
3.0,1.0,2.845
0.0,5.0,2.846
-1.0,2.0,2.847
3.0,-2.0,2.848
6.0,-2.0,2.849
2.0,4.0,2.85
0.0,6.0,2.851
1.0,1.0,2.852
1.0,-3.0,2.853
0.0,-2.0,2.854
0.0,0.0,2.855
1.0,0.0,2.856
1.0,0.0,2.857
-1.0,-2.0,2.858
0.0,0.0,2.859
0.0,0.0,2.86
-2.0,-3.0,2.861
-3.0,-2.0,2.862
5.0,0.0,2.863
11.0,2.0,2.864
11.0,3.0,2.865
10.0,2.0,2.866
10.0,2.0,2.867
10.0,0.0,2.868
10.0,0.0,2.869
8.0,0.0,2.87
6.0,0.0,2.871
4.0,-1.0,2.872
7.0,-1.0,2.873
9.0,0.0,2.874
6.0,0.0,2.875
3.0,-2.0,2.876
3.0,-1.0,2.877
4.0,0.0,2.878
2.0,0.0,2.879
-3.0,-3.0,2.88
-4.0,-7.0,2.881
-2.0,-6.0,2.882
4.0,-2.0,2.883
9.0,2.0,2.884
7.0,7.0,2.885
3.0,8.0,2.886
1.0,4.0,2.887
1.0,-2.0,2.888
0.0,-5.0,2.889
-2.0,-2.0,2.89
-1.0,-2.0,2.891
1.0,-6.0,2.892
0.0,-7.0,2.893
0.0,-6.0,2.894
0.0,-3.0,2.895
4.0,-1.0,2.896
9.0,-1.0,2.897
6.0,0.0,2.898
1.0,5.0,2.899
-3.0,14.0,2.9
-1.0,21.0,2.901
3.0,26.0,2.902
9.0,23.0,2.903
11.0,15.0,2.904
9.0,8.0,2.905
3.0,3.0,2.906
3.0,-4.0,2.907
8.0,-14.0,2.908
11.0,-18.0,2.909
7.0,-9.0,2.91
1.0,13.0,2.911
0.0,40.0,2.912
2.0,54.0,2.913
3.0,46.0,2.914
1.0,22.0,2.915
0.0,-5.0,2.916
1.0,-24.0,2.917
0.0,-41.0,2.918
1.0,-54.0,2.919
0.0,-59.0,2.92
-2.0,-58.0,2.921
-3.0,-55.0,2.922
0.0,-53.0,2.923
7.0,-46.0,2.924
6.0,-34.0,2.925
-2.0,-26.0,2.926
-9.0,-30.0,2.927
-6.0,-39.0,2.928
-3.0,-37.0,2.929
-4.0,-23.0,2.93
-5.0,-7.0,2.931
-3.0,5.0,2.932
-4.0,14.0,2.933
-7.0,18.0,2.934
-4.0,19.0,2.935
4.0,20.0,2.936
9.0,26.0,2.937
5.0,32.0,2.938
4.0,36.0,2.939
3.0,38.0,2.94
2.0,44.0,2.941
2.0,59.0,2.942
8.0,78.0,2.943
14.0,91.0,2.944
13.0,84.0,2.945
11.0,57.0,2.946
9.0,20.0,2.947
7.0,-11.0,2.948
11.0,-29.0,2.949
13.0,-38.0,2.95
7.0,-36.0,2.951
3.0,-23.0,2.952
1.0,-7.0,2.953
0.0,-6.0,2.954
-2.0,-24.0,2.955
-3.0,-45.0,2.956
-1.0,-53.0,2.957
0.0,-60.0,2.958
-5.0,-70.0,2.959
-8.0,-75.0,2.96
-7.0,-61.0,2.961
-6.0,-44.0,2.962
-7.0,-15.0,2.963
-3.0,10.0,2.964
-1.0,23.0,2.965
-3.0,33.0,2.966
-5.0,34.0,2.967
0.0,39.0,2.968
3.0,53.0,2.969
3.0,63.0,2.97
3.0,57.0,2.971
7.0,50.0,2.972
14.0,43.0,2.973
14.0,38.0,2.974
11.0,36.0,2.975
12.0,28.0,2.976
15.0,1.0,2.977
13.0,-23.0,2.978
7.0,-29.0,2.979
0.0,-20.0,2.98
-5.0,-18.0,2.981
-7.0,-27.0,2.982
-2.0,-42.0,2.983
9.0,-53.0,2.984
15.0,-57.0,2.985
12.0,-56.0,2.986
6.0,-52.0,2.987
4.0,-47.0,2.988
3.0,-36.0,2.989
1.0,-21.0,2.99
-1.0,-1.0,2.991
-2.0,16.0,2.992
-3.0,26.0,2.993
-5.0,27.0,2.994
-7.0,24.0,2.995
-3.0,17.0,2.996
4.0,10.0,2.997
4.0,1.0,2.998
-1.0,-1.0,2.999
-8.0,2.0,3.0
-8.0,3.0,3.001
-2.0,6.0,3.002
7.0,13.0,3.003
12.0,25.0,3.004
8.0,34.0,3.005
3.0,37.0,3.006
2.0,35.0,3.007
6.0,32.0,3.008
6.0,28.0,3.009
4.0,23.0,3.01
4.0,14.0,3.011
3.0,5.0,3.012
-1.0,-4.0,3.013
-7.0,-8.0,3.014
-8.0,-9.0,3.015
-5.0,-10.0,3.016
-4.0,-10.0,3.017
-8.0,-13.0,3.018
-9.0,-14.0,3.019
-11.0,-14.0,3.02
-11.0,-17.0,3.021
-9.0,-17.0,3.022
-3.0,-14.0,3.023
2.0,-6.0,3.024
2.0,7.0,3.025
1.0,27.0,3.026
0.0,45.0,3.027
-2.0,53.0,3.028
-2.0,47.0,3.029
-1.0,27.0,3.03
6.0,6.0,3.031
13.0,4.0,3.032
18.0,24.0,3.033
22.0,62.0,3.034
22.0,107.0,3.035
23.0,139.0,3.036
21.0,139.0,3.037
22.0,94.0,3.038
25.0,28.0,3.039
21.0,-39.0,3.04
11.0,-108.0,3.041
3.0,-164.0,3.042
8.0,-178.0,3.043
15.0,-176.0,3.044
10.0,-122.0,3.045
-2.0,-78.0,3.046
-8.0,-65.0,3.047
-7.0,-55.0,3.048
-8.0,-56.0,3.049
-9.0,-59.0,3.05
-9.0,-71.0,3.051
-6.0,-81.0,3.052
-4.0,-89.0,3.053
-3.0,-89.0,3.054
-3.0,-66.0,3.055
0.0,-42.0,3.056
6.0,-14.0,3.057
9.0,15.0,3.058
6.0,44.0,3.059
-2.0,64.0,3.06
-10.0,69.0,3.061
-10.0,72.0,3.062
-2.0,74.0,3.063
7.0,74.0,3.064
10.0,76.0,3.065
4.0,76.0,3.066
1.0,64.0,3.067
4.0,43.0,3.068
5.0,29.0,3.069
1.0,29.0,3.07
-2.0,34.0,3.071
-2.0,31.0,3.072
0.0,24.0,3.073
5.0,21.0,3.074
9.0,20.0,3.075
10.0,13.0,3.076
9.0,8.0,3.077
4.0,9.0,3.078
1.0,16.0,3.079
-4.0,20.0,3.08
-8.0,11.0,3.081
-7.0,1.0,3.082
3.0,-8.0,3.083
13.0,-11.0,3.084
15.0,-15.0,3.085
10.0,-21.0,3.086
2.0,-24.0,3.087
-2.0,-20.0,3.088
-4.0,-5.0,3.089
-4.0,6.0,3.09
-2.0,7.0,3.091
0.0,0.0,3.092
0.0,-5.0,3.093
3.0,-7.0,3.094
7.0,-9.0,3.095
7.0,-11.0,3.096
2.0,-8.0,3.097
-2.0,-5.0,3.098
-2.0,-7.0,3.099
-3.0,-13.0,3.1
-4.0,-15.0,3.101
-1.0,-8.0,3.102
7.0,1.0,3.103
11.0,7.0,3.104
2.0,13.0,3.105
-8.0,23.0,3.106
-10.0,30.0,3.107
-5.0,30.0,3.108
-5.0,28.0,3.109
-8.0,24.0,3.11
-8.0,22.0,3.111
-5.0,18.0,3.112
-4.0,15.0,3.113
-4.0,8.0,3.114
-1.0,-11.0,3.115
6.0,-43.0,3.116
13.0,-67.0,3.117
10.0,-71.0,3.118
7.0,-52.0,3.119
7.0,-16.0,3.12
10.0,21.0,3.121
14.0,64.0,3.122
18.0,97.0,3.123
23.0,108.0,3.124
31.0,101.0,3.125
43.0,84.0,3.126
62.0,59.0,3.127
84.0,23.0,3.128
93.0,-14.0,3.129
72.0,-40.0,3.13
28.0,-60.0,3.131
-19.0,-92.0,3.132
-48.0,-129.0,3.133
-57.0,-147.0,3.134
-61.0,-136.0,3.135
-71.0,-117.0,3.136
-77.0,-105.0,3.137
-70.0,-101.0,3.138
-52.0,-87.0,3.139
-38.0,-70.0,3.14
-35.0,-62.0,3.141
-33.0,-50.0,3.142
-26.0,-29.0,3.143
-20.0,-4.0,3.144
-21.0,19.0,3.145
-16.0,45.0,3.146
12.0,70.0,3.147
57.0,79.0,3.148
93.0,70.0,3.149
103.0,62.0,3.15
87.0,59.0,3.151
57.0,51.0,3.152
31.0,41.0,3.153
24.0,39.0,3.154
35.0,43.0,3.155
32.0,36.0,3.156
-6.0,21.0,3.157
-68.0,10.0,3.158
-107.0,10.0,3.159
-96.0,9.0,3.16
-57.0,0.0,3.161
-31.0,0.0,3.162
-22.0,9.0,3.163
-20.0,19.0,3.164
-19.0,26.0,3.165
-17.0,32.0,3.166
-9.0,36.0,3.167
1.0,30.0,3.168
0.0,13.0,3.169
-4.0,-2.0,3.17
0.0,-9.0,3.171
10.0,-9.0,3.172
9.0,-12.0,3.173
5.0,-8.0,3.174
17.0,4.0,3.175
34.0,25.0,3.176
35.0,40.0,3.177
23.0,34.0,3.178
20.0,14.0,3.179
31.0,-7.0,3.18
34.0,-24.0,3.181
26.0,-34.0,3.182
26.0,-34.0,3.183
38.0,-17.0,3.184
43.0,8.0,3.185
35.0,18.0,3.186
26.0,1.0,3.187
24.0,-20.0,3.188
19.0,-23.0,3.189
11.0,-8.0,3.19
11.0,5.0,3.191
15.0,9.0,3.192
12.0,3.0,3.193
0.0,-10.0,3.194
-4.0,-26.0,3.195
-6.0,-32.0,3.196
-11.0,-25.0,3.197
-19.0,-20.0,3.198
-21.0,-21.0,3.199
-16.0,-23.0,3.2
-15.0,-19.0,3.201
-21.0,-10.0,3.202
-17.0,-1.0,3.203
5.0,8.0,3.204
26.0,18.0,3.205
36.0,34.0,3.206
38.0,51.0,3.207
33.0,63.0,3.208
20.0,57.0,3.209
0.0,29.0,3.21
-13.0,-8.0,3.211
-16.0,-37.0,3.212
-18.0,-58.0,3.213
-20.0,-82.0,3.214
-16.0,-95.0,3.215
-1.0,-77.0,3.216
14.0,-41.0,3.217
27.0,-9.0,3.218
49.0,16.0,3.219
74.0,40.0,3.22
82.0,55.0,3.221
57.0,67.0,3.222
5.0,70.0,3.223
-62.0,80.0,3.224
-121.0,109.0,3.225
-140.0,124.0,3.226
-97.0,97.0,3.227
-10.0,77.0,3.228
61.0,79.0,3.229
78.0,78.0,3.23
50.0,65.0,3.231
22.0,35.0,3.232
14.0,-43.0,3.233
15.0,-113.0,3.234
17.0,-155.0,3.235
19.0,-188.0,3.236
23.0,-190.0,3.237
20.0,-187.0,3.238
-3.0,-162.0,3.239
-49.0,-122.0,3.24
-108.0,-83.0,3.241
-157.0,-55.0,3.242
-168.0,-39.0,3.243
-128.0,-30.0,3.244
-70.0,-13.0,3.245
-35.0,38.0,3.246
-25.0,129.0,3.247
-1.0,228.0,3.248
62.0,279.0,3.249
155.0,266.0,3.25
240.0,225.0,3.251
258.0,191.0,3.252
170.0,148.0,3.253
10.0,76.0,3.254
-110.0,-10.0,3.255
-131.0,-66.0,3.256
-117.0,-85.0,3.257
-169.0,-101.0,3.258
-259.0,-112.0,3.259
-302.0,-80.0,3.26
-203.0,10.0,3.261
-100.0,113.0,3.262
13.0,153.0,3.263
103.0,94.0,3.264
119.0,-29.0,3.265
128.0,-146.0,3.266
118.0,-209.0,3.267
141.0,-231.0,3.268
265.0,-241.0,3.269
341.0,-218.0,3.27
274.0,-100.0,3.271
204.0,106.0,3.272
124.0,280.0,3.273
56.0,285.0,3.274
27.0,131.0,3.275
-17.0,-42.0,3.276
-107.0,-116.0,3.277
-178.0,-75.0,3.278
-169.0,49.0,3.279
-135.0,200.0,3.28
-92.0,430.0,3.281
-21.0,574.0,3.282
76.0,459.0,3.283
166.0,318.0,3.284
211.0,104.0,3.285
194.0,-108.0,3.286
115.0,-315.0,3.287
10.0,-517.0,3.288
-48.0,-702.0,3.289
-24.0,-823.0,3.29
34.0,-745.0,3.291
49.0,-647.0,3.292
6.0,-488.0,3.293
-66.0,-372.0,3.294
-140.0,-385.0,3.295
-171.0,-379.0,3.296
-96.0,-313.0,3.297
100.0,-226.0,3.298
264.0,-122.0,3.299
215.0,-100.0,3.3
-28.0,-24.0,3.301
-241.0,184.0,3.302
-267.0,401.0,3.303
-194.0,504.0,3.304
-187.0,514.0,3.305
-251.0,471.0,3.306
-260.0,368.0,3.307
-169.0,237.0,3.308
-59.0,173.0,3.309
5.0,182.0,3.31
62.0,160.0,3.311
134.0,69.0,3.312
145.0,10.0,3.313
54.0,41.0,3.314
-52.0,77.0,3.315
-57.0,34.0,3.316
5.0,-49.0,3.317
17.0,-102.0,3.318
-58.0,-106.0,3.319
-130.0,-110.0,3.32
-117.0,-136.0,3.321
-64.0,-156.0,3.322
-28.0,-156.0,3.323
10.0,-151.0,3.324
80.0,-151.0,3.325
139.0,-136.0,3.326
137.0,-79.0,3.327
93.0,16.0,3.328
58.0,132.0,3.329
49.0,243.0,3.33
56.0,325.0,3.331
72.0,372.0,3.332
90.0,402.0,3.333
94.0,454.0,3.334
105.0,530.0,3.335
172.0,572.0,3.336
291.0,529.0,3.337
368.0,391.0,3.338
330.0,224.0,3.339
261.0,81.0,3.34
95.0,-41.0,3.341
-67.0,-151.0,3.342
-222.0,-228.0,3.343
-350.0,-240.0,3.344
-394.0,-192.0,3.345
-399.0,-141.0,3.346
-285.0,-147.0,3.347
-199.0,-214.0,3.348
-195.0,-266.0,3.349
-173.0,-224.0,3.35
-95.0,-108.0,3.351
-18.0,-29.0,3.352
59.0,-54.0,3.353
130.0,-103.0,3.354
178.0,-54.0,3.355
224.0,88.0,3.356
264.0,192.0,3.357
281.0,182.0,3.358
220.0,103.0,3.359
154.0,51.0,3.36
89.0,50.0,3.361
2.0,51.0,3.362
-63.0,6.0,3.363
-20.0,-72.0,3.364
152.0,-125.0,3.365
353.0,-108.0,3.366
412.0,-47.0,3.367
232.0,-25.0,3.368
-96.0,-80.0,3.369
-363.0,-149.0,3.37
-456.0,-145.0,3.371
-454.0,-68.0,3.372
-478.0,-6.0,3.373
-510.0,-27.0,3.374
-448.0,-112.0,3.375
-276.0,-187.0,3.376
-103.0,-213.0,3.377
18.0,-211.0,3.378
45.0,-202.0,3.379
19.0,-177.0,3.38
-17.0,-116.0,3.381
-3.0,-32.0,3.382
77.0,30.0,3.383
160.0,60.0,3.384
184.0,56.0,3.385
173.0,-3.0,3.386
183.0,-117.0,3.387
199.0,-202.0,3.388
178.0,-180.0,3.389
141.0,-92.0,3.39
144.0,-40.0,3.391
173.0,-28.0,3.392
176.0,25.0,3.393
138.0,129.0,3.394
80.0,198.0,3.395
11.0,186.0,3.396
-58.0,145.0,3.397
-124.0,113.0,3.398
-179.0,73.0,3.399
-232.0,2.0,3.4
-239.0,-55.0,3.401
-152.0,-29.0,3.402
-16.0,82.0,3.403
55.0,201.0,3.404
39.0,242.0,3.405
15.0,187.0,3.406
38.0,108.0,3.407
69.0,99.0,3.408
95.0,161.0,3.409
153.0,212.0,3.41
227.0,215.0,3.411
232.0,208.0,3.412
150.0,210.0,3.413
68.0,161.0,3.414
46.0,31.0,3.415
36.0,-101.0,3.416
-11.0,-159.0,3.417
-265.0,-169.0,3.418
-255.0,-181.0,3.419
-237.0,-182.0,3.42
-197.0,-123.0,3.421
-137.0,-10.0,3.422
-19.0,100.0,3.423
74.0,170.0,3.424
87.0,196.0,3.425
82.0,172.0,3.426
14.0,108.0,3.427
-40.0,28.0,3.428
-48.0,-54.0,3.429
-58.0,-148.0,3.43
-68.0,-243.0,3.431
-72.0,-313.0,3.432
-58.0,-344.0,3.433
-28.0,-342.0,3.434
56.0,-314.0,3.435
108.0,-258.0,3.436
57.0,-194.0,3.437
-217.0,-133.0,3.438
-209.0,-64.0,3.439
-195.0,33.0,3.44
-164.0,135.0,3.441
-118.0,205.0,3.442
-25.0,227.0,3.443
47.0,215.0,3.444
57.0,178.0,3.445
53.0,116.0,3.446
0.0,64.0,3.447
-42.0,56.0,3.448
-48.0,71.0,3.449
-56.0,48.0,3.45
-64.0,-30.0,3.451
-67.0,-116.0,3.452
-56.0,-161.0,3.453
-32.0,-165.0,3.454
33.0,-155.0,3.455
73.0,-132.0,3.456
34.0,-98.0,3.457
3.0,-58.0,3.458
3.0,-13.0,3.459
-10.0,29.0,3.46
-24.0,63.0,3.461
28.0,95.0,3.462
137.0,118.0,3.463
195.0,151.0,3.464
143.0,212.0,3.465
54.0,249.0,3.466
6.0,210.0,3.467
-12.0,174.0,3.468
-36.0,148.0,3.469
-39.0,127.0,3.47
10.0,119.0,3.471
72.0,96.0,3.472
89.0,29.0,3.473
79.0,-36.0,3.474
72.0,-92.0,3.475
44.0,-141.0,3.476
-15.0,-167.0,3.477
-62.0,-187.0,3.478
-48.0,-189.0,3.479
-20.0,-182.0,3.48
-31.0,-144.0,3.481
-45.0,-69.0,3.482
-20.0,2.0,3.483
-10.0,44.0,3.484
-74.0,65.0,3.485
-147.0,78.0,3.486
-123.0,74.0,3.487
-19.0,51.0,3.488
50.0,17.0,3.489
29.0,-25.0,3.49
-23.0,-84.0,3.491
-39.0,-132.0,3.492
-5.0,-131.0,3.493
32.0,-99.0,3.494
21.0,-87.0,3.495
-37.0,-94.0,3.496
-74.0,-78.0,3.497
-49.0,-41.0,3.498
-10.0,-37.0,3.499
6.0,-80.0,3.5
-45.0,-103.0,3.501
-67.0,-44.0,3.502
0.0,60.0,3.503
57.0,150.0,3.504
89.0,210.0,3.505
109.0,238.0,3.506
94.0,220.0,3.507
79.0,166.0,3.508
68.0,119.0,3.509
59.0,96.0,3.51
53.0,62.0,3.511
47.0,16.0,3.512
41.0,31.0,3.513
38.0,139.0,3.514
42.0,252.0,3.515
29.0,247.0,3.516
-35.0,136.0,3.517
-76.0,17.0,3.518
-21.0,-44.0,3.519
18.0,-111.0,3.52
-33.0,-193.0,3.521
-112.0,-262.0,3.522
-118.0,-288.0,3.523
-40.0,-299.0,3.524
40.0,-257.0,3.525
68.0,-212.0,3.526
53.0,-154.0,3.527
30.0,-112.0,3.528
2.0,-116.0,3.529
-43.0,-121.0,3.53
-80.0,-132.0,3.531
-51.0,-133.0,3.532
37.0,-102.0,3.533
98.0,-69.0,3.534
67.0,-31.0,3.535
0.0,8.0,3.536
-11.0,50.0,3.537
28.0,118.0,3.538
38.0,274.0,3.539
-21.0,363.0,3.54
-82.0,305.0,3.541
-57.0,175.0,3.542
47.0,87.0,3.543
135.0,61.0,3.544
128.0,41.0,3.545
51.0,10.0,3.546
-16.0,-11.0,3.547
-55.0,-28.0,3.548
-114.0,-54.0,3.549
-188.0,-69.0,3.55
-188.0,-50.0,3.551
-79.0,-16.0,3.552
53.0,-1.0,3.553
102.0,0.0,3.554
66.0,10.0,3.555
2.0,25.0,3.556
-45.0,30.0,3.557
-75.0,27.0,3.558
-90.0,29.0,3.559
-104.0,18.0,3.56
-118.0,-14.0,3.561
-89.0,-30.0,3.562
13.0,1.0,3.563
119.0,47.0,3.564
132.0,32.0,3.565
78.0,-63.0,3.566
76.0,-179.0,3.567
151.0,-238.0,3.568
197.0,-213.0,3.569
150.0,-140.0,3.57
68.0,-61.0,3.571
32.0,-6.0,3.572
37.0,25.0,3.573
44.0,48.0,3.574
29.0,83.0,3.575
-22.0,127.0,3.576
-93.0,163.0,3.577
-111.0,186.0,3.578
-188.0,212.0,3.579
-227.0,253.0,3.58
-151.0,266.0,3.581
-75.0,222.0,3.582
6.0,164.0,3.583
63.0,167.0,3.584
43.0,205.0,3.585
23.0,153.0,3.586
4.0,-41.0,3.587
0.0,-267.0,3.588
44.0,-378.0,3.589
63.0,-338.0,3.59
4.0,-213.0,3.591
-38.0,-88.0,3.592
-27.0,-14.0,3.593
-7.0,0.0,3.594
40.0,6.0,3.595
77.0,46.0,3.596
78.0,84.0,3.597
-124.0,73.0,3.598
-211.0,50.0,3.599
-256.0,40.0,3.6
-170.0,72.0,3.601
-83.0,68.0,3.602
10.0,-42.0,3.603
75.0,-145.0,3.604
52.0,-222.0,3.605
29.0,-283.0,3.606
7.0,-293.0,3.607
3.0,-274.0,3.608
53.0,-162.0,3.609
74.0,-62.0,3.61
7.0,0.0,3.611
-41.0,31.0,3.612
-29.0,-31.0,3.613
-5.0,-89.0,3.614
48.0,-131.0,3.615
90.0,-141.0,3.616
92.0,-54.0,3.617
91.0,57.0,3.618
62.0,249.0,3.619
25.0,401.0,3.62
12.0,439.0,3.621
-15.0,375.0,3.622
-121.0,272.0,3.623
-257.0,179.0,3.624
-272.0,100.0,3.625
-112.0,43.0,3.626
73.0,19.0,3.627
104.0,13.0,3.628
11.0,-22.0,3.629
-37.0,-103.0,3.63
21.0,-178.0,3.631
86.0,-181.0,3.632
71.0,-98.0,3.633
37.0,-3.0,3.634
68.0,11.0,3.635
129.0,-72.0,3.636
138.0,-166.0,3.637
111.0,-191.0,3.638
132.0,-154.0,3.639
210.0,-145.0,3.64
258.0,-187.0,3.641
216.0,-185.0,3.642
122.0,-66.0,3.643
39.0,114.0,3.644
-15.0,245.0,3.645
-41.0,288.0,3.646
-39.0,280.0,3.647
-33.0,253.0,3.648
-76.0,223.0,3.649
-194.0,192.0,3.65
-338.0,139.0,3.651
-406.0,34.0,3.652
-332.0,-87.0,3.653
-166.0,-145.0,3.654
-43.0,-120.0,3.655
-28.0,-80.0,3.656
-42.0,-65.0,3.657
-203.0,-44.0,3.658
-322.0,17.0,3.659
-384.0,75.0,3.66
-275.0,83.0,3.661
-164.0,71.0,3.662
-56.0,80.0,3.663
45.0,84.0,3.664
122.0,26.0,3.665
148.0,-94.0,3.666
20.0,-221.0,3.667
-83.0,-318.0,3.668
-110.0,-377.0,3.669
-132.0,-407.0,3.67
-134.0,-415.0,3.671
-142.0,-404.0,3.672
-174.0,-355.0,3.673
-169.0,-242.0,3.674
-58.0,-87.0,3.675
29.0,47.0,3.676
42.0,120.0,3.677
-242.0,151.0,3.678
-406.0,183.0,3.679
-492.0,217.0,3.68
-341.0,261.0,3.681
-189.0,291.0,3.682
-39.0,279.0,3.683
100.0,261.0,3.684
206.0,227.0,3.685
242.0,185.0,3.686
66.0,119.0,3.687
-76.0,44.0,3.688
-115.0,-59.0,3.689
-145.0,-148.0,3.69
-147.0,-192.0,3.691
-159.0,-219.0,3.692
-202.0,-191.0,3.693
-196.0,-152.0,3.694
-42.0,-81.0,3.695
78.0,-20.0,3.696
96.0,11.0,3.697
117.0,73.0,3.698
177.0,261.0,3.699
263.0,426.0,3.7
273.0,455.0,3.701
164.0,382.0,3.702
41.0,282.0,3.703
36.0,174.0,3.704
118.0,57.0,3.705
134.0,-9.0,3.706
28.0,7.0,3.707
-95.0,35.0,3.708
-130.0,-11.0,3.709
-106.0,-107.0,3.71
-101.0,-173.0,3.711
-125.0,-213.0,3.712
-122.0,-266.0,3.713
-56.0,-297.0,3.714
52.0,-254.0,3.715
138.0,-167.0,3.716
151.0,-108.0,3.717
93.0,-69.0,3.718
24.0,9.0,3.719
-8.0,126.0,3.72
-15.0,219.0,3.721
-30.0,261.0,3.722
-41.0,248.0,3.723
-22.0,169.0,3.724
13.0,43.0,3.725
27.0,-59.0,3.726
16.0,-103.0,3.727
16.0,-140.0,3.728
42.0,-215.0,3.729
55.0,-285.0,3.73
-4.0,-285.0,3.731
-121.0,-225.0,3.732
-193.0,-156.0,3.733
-133.0,-102.0,3.734
5.0,-45.0,3.735
84.0,44.0,3.736
51.0,202.0,3.737
-16.0,453.0,3.738
-8.0,681.0,3.739
73.0,724.0,3.74
133.0,543.0,3.741
122.0,270.0,3.742
79.0,22.0,3.743
42.0,-189.0,3.744
-5.0,-369.0,3.745
-85.0,-472.0,3.746
-156.0,-480.0,3.747
-150.0,-452.0,3.748
-69.0,-434.0,3.749
20.0,-407.0,3.75
71.0,-342.0,3.751
96.0,-261.0,3.752
114.0,-188.0,3.753
121.0,-113.0,3.754
132.0,-24.0,3.755
151.0,67.0,3.756
141.0,165.0,3.757
46.0,254.0,3.758
-79.0,277.0,3.759
-169.0,255.0,3.76
-155.0,96.0,3.761
-154.0,-17.0,3.762
-193.0,11.0,3.763
-222.0,38.0,3.764
-218.0,61.0,3.765
-208.0,97.0,3.766
-178.0,173.0,3.767
-130.0,228.0,3.768
-27.0,221.0,3.769
54.0,196.0,3.77
67.0,120.0,3.771
90.0,40.0,3.772
138.0,-45.0,3.773
179.0,-110.0,3.774
195.0,-111.0,3.775
207.0,-99.0,3.776
203.0,-49.0,3.777
194.0,-1.0,3.778
156.0,39.0,3.779
93.0,69.0,3.78
43.0,86.0,3.781
8.0,105.0,3.782
-35.0,119.0,3.783
-68.0,120.0,3.784
-48.0,123.0,3.785
25.0,143.0,3.786
95.0,148.0,3.787
110.0,83.0,3.788
66.0,-53.0,3.789
-11.0,-191.0,3.79
-71.0,-270.0,3.791
-66.0,-280.0,3.792
-5.0,-249.0,3.793
16.0,-202.0,3.794
-78.0,-151.0,3.795
-212.0,-82.0,3.796
-238.0,12.0,3.797
-117.0,111.0,3.798
-35.0,157.0,3.799
-69.0,126.0,3.8
-116.0,69.0,3.801
-76.0,54.0,3.802
12.0,68.0,3.803
61.0,52.0,3.804
63.0,-16.0,3.805
55.0,-107.0,3.806
27.0,-177.0,3.807
-24.0,-203.0,3.808
-41.0,-197.0,3.809
11.0,-182.0,3.81
81.0,-169.0,3.811
102.0,-148.0,3.812
118.0,-111.0,3.813
182.0,-64.0,3.814
237.0,-8.0,3.815
163.0,60.0,3.816
-6.0,125.0,3.817
-143.0,147.0,3.818
-132.0,121.0,3.819
-38.0,98.0,3.82
-4.0,118.0,3.821
-67.0,163.0,3.822
-120.0,175.0,3.823
-71.0,134.0,3.824
29.0,68.0,3.825
65.0,6.0,3.826
22.0,-38.0,3.827
-13.0,-57.0,3.828
1.0,-62.0,3.829
8.0,-66.0,3.83
-23.0,-65.0,3.831
-35.0,-41.0,3.832
13.0,5.0,3.833
51.0,48.0,3.834
11.0,69.0,3.835
-56.0,66.0,3.836
-61.0,41.0,3.837
-8.0,-8.0,3.838
34.0,-50.0,3.839
69.0,-70.0,3.84
77.0,-21.0,3.841
87.0,29.0,3.842
104.0,83.0,3.843
117.0,113.0,3.844
117.0,66.0,3.845
94.0,22.0,3.846
4.0,-11.0,3.847
-72.0,-35.0,3.848
-111.0,-26.0,3.849
-151.0,-20.0,3.85
-194.0,-25.0,3.851
-204.0,-25.0,3.852
-113.0,-3.0,3.853
-31.0,22.0,3.854
23.0,61.0,3.855
61.0,81.0,3.856
43.0,39.0,3.857
46.0,2.0,3.858
112.0,-5.0,3.859
114.0,-19.0,3.86
60.0,-88.0,3.861
52.0,-176.0,3.862
103.0,-230.0,3.863
108.0,-242.0,3.864
9.0,-229.0,3.865
-113.0,-179.0,3.866
-141.0,-76.0,3.867
-80.0,54.0,3.868
-13.0,175.0,3.869
16.0,268.0,3.87
32.0,311.0,3.871
47.0,266.0,3.872
24.0,146.0,3.873
-43.0,34.0,3.874
-106.0,-17.0,3.875
-120.0,-50.0,3.876
-94.0,-118.0,3.877
-44.0,-212.0,3.878
-3.0,-250.0,3.879
16.0,-212.0,3.88
-10.0,-149.0,3.881
-68.0,-101.0,3.882
-109.0,-65.0,3.883
-94.0,-28.0,3.884
-26.0,18.0,3.885
67.0,81.0,3.886
151.0,166.0,3.887
204.0,252.0,3.888
234.0,298.0,3.889
251.0,307.0,3.89
222.0,297.0,3.891
108.0,273.0,3.892
-42.0,216.0,3.893
-131.0,123.0,3.894
-155.0,15.0,3.895
-199.0,-88.0,3.896
-258.0,-170.0,3.897
-226.0,-230.0,3.898
-69.0,-239.0,3.899
73.0,-190.0,3.9
96.0,-115.0,3.901
70.0,-55.0,3.902
97.0,-34.0,3.903
136.0,-43.0,3.904
117.0,-61.0,3.905
85.0,-84.0,3.906
93.0,-112.0,3.907
88.0,-127.0,3.908
6.0,-111.0,3.909
-79.0,-80.0,3.91
-64.0,-74.0,3.911
34.0,-96.0,3.912
102.0,-105.0,3.913
85.0,-59.0,3.914
17.0,31.0,3.915
-56.0,122.0,3.916
-116.0,177.0,3.917
-152.0,192.0,3.918
-146.0,176.0,3.919
-135.0,133.0,3.92
-107.0,66.0,3.921
-77.0,5.0,3.922
-43.0,-9.0,3.923
3.0,46.0,3.924
87.0,145.0,3.925
135.0,209.0,3.926
75.0,192.0,3.927
24.0,118.0,3.928
0.0,38.0,3.929
-24.0,-46.0,3.93
-46.0,-143.0,3.931
-51.0,-208.0,3.932
-5.0,-187.0,3.933
55.0,-102.0,3.934
160.0,-37.0,3.935
240.0,-26.0,3.936
244.0,-29.0,3.937
235.0,-20.0,3.938
182.0,-4.0,3.939
111.0,13.0,3.94
31.0,32.0,3.941
-73.0,43.0,3.942
-223.0,32.0,3.943
-369.0,19.0,3.944
-398.0,30.0,3.945
-265.0,39.0,3.946
-85.0,21.0,3.947
12.0,15.0,3.948
43.0,63.0,3.949
106.0,126.0,3.95
184.0,138.0,3.951
178.0,95.0,3.952
93.0,34.0,3.953
35.0,-56.0,3.954
25.0,-189.0,3.955
-2.0,-322.0,3.956
-42.0,-391.0,3.957
-30.0,-412.0,3.958
-9.0,-414.0,3.959
-62.0,-388.0,3.96
-134.0,-311.0,3.961
-101.0,-195.0,3.962
-2.0,-81.0,3.963
13.0,20.0,3.964
-62.0,117.0,3.965
-91.0,205.0,3.966
-23.0,276.0,3.967
40.0,337.0,3.968
32.0,359.0,3.969
-3.0,304.0,3.97
-26.0,189.0,3.971
-43.0,93.0,3.972
-31.0,64.0,3.973
44.0,76.0,3.974
144.0,94.0,3.975
206.0,124.0,3.976
256.0,165.0,3.977
362.0,176.0,3.978
451.0,140.0,3.979
358.0,89.0,3.98
87.0,56.0,3.981
-164.0,18.0,3.982
-253.0,-49.0,3.983
-266.0,-105.0,3.984
-336.0,-99.0,3.985
-439.0,-50.0,3.986
-451.0,-20.0,3.987
-340.0,-20.0,3.988
-183.0,-24.0,3.989
-61.0,-16.0,3.99
0.0,5.0,3.991
32.0,57.0,3.992
75.0,128.0,3.993
140.0,161.0,3.994
196.0,105.0,3.995
228.0,0.0,3.996
257.0,-70.0,3.997
275.0,-101.0,3.998
249.0,-139.0,3.999
206.0,-213.0,4.0
112.0,-292.0,4.001
20.0,-336.0,4.002
-69.0,-347.0,4.003
-144.0,-320.0,4.004
-173.0,-235.0,4.005
-179.0,-108.0,4.006
-117.0,-12.0,4.007
-65.0,21.0,4.008
-43.0,47.0,4.009
-6.0,129.0,4.01
71.0,230.0,4.011
131.0,264.0,4.012
132.0,213.0,4.013
122.0,151.0,4.014
72.0,139.0,4.015
30.0,164.0,4.016
8.0,172.0,4.017
-4.0,133.0,4.018
0.0,68.0,4.019
-25.0,20.0,4.02
-60.0,6.0,4.021
-55.0,-1.0,4.022
2.0,-35.0,4.023
68.0,-86.0,4.024
105.0,-115.0,4.025
117.0,-113.0,4.026
113.0,-104.0,4.027
82.0,-92.0,4.028
15.0,-56.0,4.029
-62.0,-1.0,4.03
-127.0,40.0,4.031
-177.0,53.0,4.032
-219.0,57.0,4.033
-232.0,51.0,4.034
-203.0,6.0,4.035
-169.0,-70.0,4.036
-154.0,-121.0,4.037
-131.0,-109.0,4.038
-58.0,-39.0,4.039
39.0,51.0,4.04
94.0,125.0,4.041
92.0,162.0,4.042
87.0,137.0,4.043
107.0,47.0,4.044
109.0,-65.0,4.045
69.0,-148.0,4.046
24.0,-188.0,4.047
24.0,-212.0,4.048
62.0,-230.0,4.049
103.0,-215.0,4.05
132.0,-144.0,4.051
139.0,-41.0,4.052
109.0,46.0,4.053
44.0,102.0,4.054
-20.0,146.0,4.055
-49.0,180.0,4.056
-42.0,189.0,4.057
-28.0,166.0,4.058
-33.0,138.0,4.059
-53.0,123.0,4.06
-72.0,98.0,4.061
-70.0,45.0,4.062
-44.0,-25.0,4.063
-2.0,-87.0,4.064
42.0,-129.0,4.065
80.0,-141.0,4.066
105.0,-120.0,4.067
112.0,-80.0,4.068
104.0,-43.0,4.069
95.0,-10.0,4.07
78.0,28.0,4.071
23.0,57.0,4.072
-75.0,58.0,4.073
-162.0,51.0,4.074
-182.0,70.0,4.075
-159.0,99.0,4.076
-150.0,93.0,4.077
-148.0,51.0,4.078
-104.0,26.0,4.079
-57.0,42.0,4.08
0.0,75.0,4.081
60.0,111.0,4.082
130.0,154.0,4.083
197.0,175.0,4.084
255.0,123.0,4.085
272.0,15.0,4.086
162.0,-72.0,4.087
52.0,-106.0,4.088
-60.0,-132.0,4.089
-158.0,-183.0,4.09
-211.0,-231.0,4.091
-244.0,-242.0,4.092
-218.0,-226.0,4.093
-187.0,-186.0,4.094
-139.0,-105.0,4.095
-83.0,12.0,4.096
-9.0,108.0,4.097
66.0,145.0,4.098
117.0,144.0,4.099
127.0,134.0,4.1
116.0,100.0,4.101
109.0,63.0,4.102
100.0,13.0,4.103
71.0,-32.0,4.104
31.0,-65.0,4.105
3.0,-96.0,4.106
-7.0,-118.0,4.107
-13.0,-123.0,4.108
-4.0,-73.0,4.109
32.0,-20.0,4.11
81.0,41.0,4.111
112.0,97.0,4.112
123.0,134.0,4.113
124.0,152.0,4.114
119.0,108.0,4.115
86.0,59.0,4.116
32.0,-6.0,4.117
-28.0,-73.0,4.118
-64.0,-146.0,4.119
-72.0,-189.0,4.12
-70.0,-189.0,4.121
-71.0,-156.0,4.122
-67.0,-112.0,4.123
-49.0,-64.0,4.124
-30.0,-16.0,4.125
-28.0,8.0,4.126
-42.0,7.0,4.127
-47.0,2.0,4.128
-36.0,19.0,4.129
-22.0,44.0,4.13
-22.0,53.0,4.131
-27.0,50.0,4.132
-27.0,56.0,4.133
-25.0,73.0,4.134
-21.0,79.0,4.135
-12.0,73.0,4.136
6.0,74.0,4.137
20.0,92.0,4.138
23.0,113.0,4.139
18.0,121.0,4.14
15.0,120.0,4.141
16.0,123.0,4.142
22.0,123.0,4.143
26.0,103.0,4.144
28.0,57.0,4.145
30.0,1.0,4.146
34.0,-48.0,4.147
37.0,-86.0,4.148
33.0,-107.0,4.149
25.0,-110.0,4.15
26.0,-101.0,4.151
35.0,-86.0,4.152
43.0,-62.0,4.153
46.0,-34.0,4.154
39.0,-11.0,4.155
9.0,-4.0,4.156
-37.0,-4.0,4.157
27.0,0.0,4.158
11.0,24.0,4.159
-12.0,58.0,4.16
-56.0,78.0,4.161
-88.0,75.0,4.162
-76.0,56.0,4.163
-57.0,39.0,4.164
-20.0,26.0,4.165
9.0,0.0,4.166
17.0,-43.0,4.167
23.0,-77.0,4.168
21.0,-74.0,4.169
22.0,-50.0,4.17
33.0,-38.0,4.171
42.0,-41.0,4.172
42.0,-41.0,4.173
41.0,-34.0,4.174
37.0,-40.0,4.175
26.0,-52.0,4.176
0.0,-48.0,4.177
21.0,-13.0,4.178
9.0,-32.0,4.179
-9.0,-45.0,4.18
-42.0,-36.0,4.181
-66.0,-28.0,4.182
-57.0,-23.0,4.183
-43.0,-16.0,4.184
-15.0,-12.0,4.185
7.0,-5.0,4.186
13.0,2.0,4.187
18.0,8.0,4.188
16.0,8.0,4.189
17.0,8.0,4.19
25.0,13.0,4.191
32.0,16.0,4.192
32.0,12.0,4.193
31.0,7.0,4.194
28.0,7.0,4.195
20.0,8.0,4.196
0.0,12.0,4.197
-18.0,-10.0,4.198
-25.0,-22.0,4.199
-27.0,-30.0,4.2
-26.0,-24.0,4.201
-17.0,-19.0,4.202
-2.0,-16.0,4.203
7.0,-12.0,4.204
7.0,-9.0,4.205
8.0,-5.0,4.206
16.0,0.0,4.207
26.0,4.0,4.208
26.0,4.0,4.209
17.0,4.0,4.21
6.0,7.0,4.211
-1.0,9.0,4.212
-6.0,6.0,4.213
-11.0,3.0,4.214
-12.0,3.0,4.215
-3.0,4.0,4.216
15.0,6.0,4.217
26.0,9.0,4.218
20.0,8.0,4.219
3.0,4.0,4.22
-3.0,-3.0,4.221
3.0,-1.0,4.222
10.0,5.0,4.223
10.0,8.0,4.224
5.0,10.0,4.225
0.0,11.0,4.226
-2.0,8.0,4.227
0.0,-3.0,4.228
0.0,-12.0,4.229
0.0,-12.0,4.23
-3.0,-7.0,4.231
-6.0,-6.0,4.232
-5.0,-6.0,4.233
-4.0,-1.0,4.234
-3.0,6.0,4.235
-2.0,7.0,4.236
3.0,2.0,4.237
5.0,-5.0,4.238
2.0,-7.0,4.239
0.0,-5.0,4.24
-1.0,-4.0,4.241
0.0,0.0,4.242
10.0,4.0,4.243
20.0,6.0,4.244
25.0,7.0,4.245
26.0,8.0,4.246
16.0,4.0,4.247
4.0,-4.0,4.248
-12.0,-9.0,4.249
-24.0,-11.0,4.25
-20.0,-10.0,4.251
-11.0,-14.0,4.252
9.0,-15.0,4.253
24.0,-11.0,4.254
21.0,-9.0,4.255
21.0,-10.0,4.256
35.0,-5.0,4.257
44.0,-2.0,4.258
12.0,1.0,4.259
-38.0,0.0,4.26
-70.0,-2.0,4.261
-76.0,3.0,4.262
-70.0,5.0,4.263
-61.0,3.0,4.264
-44.0,4.0,4.265
-15.0,10.0,4.266
12.0,10.0,4.267
27.0,1.0,4.268
30.0,-7.0,4.269
29.0,-7.0,4.27
29.0,-1.0,4.271
28.0,3.0,4.272
19.0,4.0,4.273
6.0,8.0,4.274
4.0,7.0,4.275
17.0,-2.0,4.276
29.0,-8.0,4.277
28.0,-10.0,4.278
17.0,-4.0,4.279
5.0,3.0,4.28
-3.0,0.0,4.281
-5.0,0.0,4.282
2.0,4.0,4.283
23.0,7.0,4.284
36.0,10.0,4.285
34.0,12.0,4.286
24.0,12.0,4.287
18.0,6.0,4.288
9.0,-5.0,4.289
-13.0,-11.0,4.29
-37.0,-14.0,4.291
-43.0,-14.0,4.292
-33.0,-14.0,4.293
-30.0,-10.0,4.294
-28.0,-2.0,4.295
-4.0,3.0,4.296
41.0,3.0,4.297
82.0,-1.0,4.298
103.0,-3.0,4.299
110.0,-3.0,4.3
109.0,-5.0,4.301
73.0,-5.0,4.302
-7.0,-1.0,4.303
-94.0,4.0,4.304
-135.0,6.0,4.305
-119.0,8.0,4.306
-76.0,10.0,4.307
-41.0,8.0,4.308
-22.0,5.0,4.309
-9.0,2.0,4.31
9.0,0.0,4.311
21.0,-2.0,4.312
17.0,-2.0,4.313
5.0,-3.0,4.314
10.0,-5.0,4.315
31.0,-5.0,4.316
47.0,-3.0,4.317
37.0,-1.0,4.318
15.0,-5.0,4.319
-10.0,-12.0,4.32
-43.0,-18.0,4.321
-63.0,-13.0,4.322
-44.0,-4.0,4.323
-24.0,6.0,4.324
0.0,14.0,4.325
17.0,17.0,4.326
7.0,12.0,4.327
6.0,6.0,4.328
31.0,4.0,4.329
46.0,5.0,4.33
30.0,2.0,4.331
18.0,-4.0,4.332
18.0,-6.0,4.333
15.0,-2.0,4.334
9.0,0.0,4.335
10.0,-3.0,4.336
30.0,-2.0,4.337
46.0,0.0,4.338
37.0,3.0,4.339
9.0,1.0,4.34
-12.0,-4.0,4.341
-24.0,-6.0,4.342
-37.0,-4.0,4.343
-41.0,0.0,4.344
-28.0,5.0,4.345
-9.0,7.0,4.346
0.0,3.0,4.347
-11.0,-3.0,4.348
-22.0,-6.0,4.349
-16.0,-5.0,4.35
12.0,-5.0,4.351
36.0,-4.0,4.352
28.0,-3.0,4.353
0.0,-3.0,4.354
-12.0,-5.0,4.355
2.0,-4.0,4.356
14.0,3.0,4.357
0.0,6.0,4.358
-8.0,0.0,4.359
3.0,-4.0,4.36
17.0,-4.0,4.361
11.0,-4.0,4.362
-8.0,-8.0,4.363
-17.0,-10.0,4.364
-9.0,-7.0,4.365
9.0,-4.0,4.366
33.0,-1.0,4.367
42.0,1.0,4.368
25.0,4.0,4.369
4.0,7.0,4.37
5.0,7.0,4.371
16.0,6.0,4.372
6.0,5.0,4.373
-20.0,3.0,4.374
-28.0,1.0,4.375
-12.0,-1.0,4.376
3.0,-2.0,4.377
2.0,-3.0,4.378
-3.0,-2.0,4.379
-8.0,-3.0,4.38
-15.0,-6.0,4.381
-16.0,-6.0,4.382
-1.0,-2.0,4.383
12.0,3.0,4.384
6.0,4.0,4.385
-3.0,0.0,4.386
5.0,-7.0,4.387
21.0,-14.0,4.388
22.0,-20.0,4.389
11.0,-22.0,4.39
6.0,-15.0,4.391
11.0,-2.0,4.392
9.0,11.0,4.393
6.0,16.0,4.394
11.0,11.0,4.395
14.0,5.0,4.396
7.0,2.0,4.397
-3.0,0.0,4.398
-1.0,1.0,4.399
-1.0,2.0,4.4
-5.0,0.0,4.401
-7.0,-1.0,4.402
0.0,-3.0,4.403
4.0,-2.0,4.404
-1.0,-1.0,4.405
-5.0,0.0,4.406
-3.0,1.0,4.407
-1.0,1.0,4.408
-1.0,3.0,4.409
-1.0,5.0,4.41
3.0,6.0,4.411
7.0,4.0,4.412
6.0,1.0,4.413
5.0,1.0,4.414
7.0,1.0,4.415
8.0,-1.0,4.416
6.0,-2.0,4.417
2.0,-2.0,4.418
-2.0,0.0,4.419
-11.0,0.0,4.42
-22.0,-7.0,4.421
-28.0,-10.0,4.422
-22.0,-9.0,4.423
-5.0,-3.0,4.424
10.0,3.0,4.425
14.0,8.0,4.426
13.0,17.0,4.427
17.0,33.0,4.428
25.0,50.0,4.429
24.0,55.0,4.43
7.0,38.0,4.431
-13.0,11.0,4.432
-21.0,-6.0,4.433
-15.0,-16.0,4.434
-5.0,-30.0,4.435
-4.0,-42.0,4.436
-2.0,-36.0,4.437
3.0,-17.0,4.438
4.0,-7.0,4.439
-3.0,-14.0,4.44
-8.0,-28.0,4.441
-3.0,-35.0,4.442
10.0,-36.0,4.443
18.0,-32.0,4.444
21.0,-12.0,4.445
23.0,27.0,4.446
27.0,64.0,4.447
30.0,77.0,4.448
29.0,75.0,4.449
23.0,78.0,4.45
17.0,83.0,4.451
11.0,65.0,4.452
6.0,12.0,4.453
1.0,-49.0,4.454
-5.0,-90.0,4.455
-10.0,-102.0,4.456
-11.0,-106.0,4.457
-11.0,-117.0,4.458
-8.0,-127.0,4.459
-8.0,-119.0,4.46
-13.0,-100.0,4.461
-20.0,-84.0,4.462
-22.0,-71.0,4.463
-16.0,-47.0,4.464
-5.0,-9.0,4.465
-2.0,26.0,4.466
-6.0,47.0,4.467
-7.0,61.0,4.468
0.0,81.0,4.469
11.0,96.0,4.47
16.0,99.0,4.471
13.0,102.0,4.472
9.0,107.0,4.473
10.0,103.0,4.474
15.0,75.0,4.475
18.0,33.0,4.476
19.0,0.0,4.477
17.0,-23.0,4.478
18.0,-44.0,4.479
16.0,-60.0,4.48
5.0,-67.0,4.481
-10.0,-56.0,4.482
-18.0,-38.0,4.483
-11.0,-22.0,4.484
-2.0,-12.0,4.485
-2.0,-4.0,4.486
-5.0,0.0,4.487
-4.0,8.0,4.488
-1.0,24.0,4.489
1.0,40.0,4.49
0.0,43.0,4.491
3.0,36.0,4.492
6.0,29.0,4.493
8.0,25.0,4.494
11.0,21.0,4.495
16.0,16.0,4.496
18.0,14.0,4.497
11.0,10.0,4.498
-1.0,-1.0,4.499
-9.0,-16.0,4.5
-10.0,-30.0,4.501
-6.0,-33.0,4.502
1.0,-31.0,4.503
9.0,-30.0,4.504
12.0,-24.0,4.505
7.0,-11.0,4.506
3.0,10.0,4.507
3.0,39.0,4.508
6.0,72.0,4.509
5.0,93.0,4.51
7.0,75.0,4.511
14.0,24.0,4.512
16.0,-29.0,4.513
3.0,-67.0,4.514
-19.0,-89.0,4.515
-28.0,-105.0,4.516
-20.0,-104.0,4.517
-10.0,-81.0,4.518
-14.0,-41.0,4.519
-16.0,2.0,4.52
-13.0,37.0,4.521
-7.0,65.0,4.522
6.0,81.0,4.523
16.0,73.0,4.524
13.0,46.0,4.525
8.0,15.0,4.526
-1.0,-13.0,4.527
-7.0,-34.0,4.528
0.0,-42.0,4.529
8.0,-39.0,4.53
18.0,-31.0,4.531
26.0,-24.0,4.532
26.0,-6.0,4.533
24.0,32.0,4.534
18.0,79.0,4.535
13.0,99.0,4.536
10.0,74.0,4.537
7.0,22.0,4.538
3.0,-19.0,4.539
-1.0,-55.0,4.54
-5.0,-71.0,4.541
-5.0,-84.0,4.542
0.0,-89.0,4.543
11.0,-92.0,4.544
17.0,-86.0,4.545
16.0,-79.0,4.546
11.0,-67.0,4.547
4.0,-51.0,4.548
-5.0,-28.0,4.549
-10.0,-4.0,4.55
-5.0,20.0,4.551
2.0,42.0,4.552
1.0,56.0,4.553
-11.0,67.0,4.554
-25.0,67.0,4.555
-26.0,67.0,4.556
-24.0,63.0,4.557
-26.0,58.0,4.558
-31.0,52.0,4.559
-31.0,45.0,4.56
-22.0,33.0,4.561
-8.0,22.0,4.562
0.0,17.0,4.563
3.0,14.0,4.564
7.0,12.0,4.565
11.0,11.0,4.566
18.0,8.0,4.567
26.0,2.0,4.568
38.0,-2.0,4.569
46.0,-2.0,4.57
43.0,-1.0,4.571
29.0,-2.0,4.572
15.0,-4.0,4.573
13.0,-6.0,4.574
20.0,-6.0,4.575
24.0,-8.0,4.576
17.0,-6.0,4.577
0.0,-7.0,4.578
-14.0,-6.0,4.579
-26.0,-6.0,4.58
-29.0,-10.0,4.581
-31.0,-11.0,4.582
-27.0,-8.0,4.583
-22.0,-3.0,4.584
-16.0,1.0,4.585
-9.0,2.0,4.586
-2.0,1.0,4.587
2.0,-1.0,4.588
-5.0,-2.0,4.589
-7.0,-3.0,4.59
9.0,-5.0,4.591
25.0,-7.0,4.592
40.0,-10.0,4.593
46.0,-16.0,4.594
22.0,-18.0,4.595
5.0,-16.0,4.596
12.0,-10.0,4.597
17.0,-7.0,4.598
6.0,-8.0,4.599
-25.0,-7.0,4.6
-50.0,-7.0,4.601
-49.0,-7.0,4.602
-26.0,-7.0,4.603
-7.0,-4.0,4.604
0.0,4.0,4.605
17.0,10.0,4.606
49.0,10.0,4.607
70.0,5.0,4.608
55.0,1.0,4.609
22.0,1.0,4.61
3.0,1.0,4.611
0.0,0.0,4.612
-13.0,-1.0,4.613
-39.0,0.0,4.614
-60.0,3.0,4.615
-61.0,3.0,4.616
-46.0,3.0,4.617
-18.0,1.0,4.618
7.0,-1.0,4.619
16.0,-2.0,4.62
11.0,-1.0,4.621
8.0,3.0,4.622
16.0,6.0,4.623
25.0,4.0,4.624
30.0,2.0,4.625
34.0,3.0,4.626
40.0,4.0,4.627
39.0,0.0,4.628
34.0,-4.0,4.629
30.0,-6.0,4.63
24.0,-6.0,4.631
9.0,-5.0,4.632
-7.0,-4.0,4.633
-5.0,-2.0,4.634
13.0,1.0,4.635
25.0,5.0,4.636
20.0,10.0,4.637
-2.0,9.0,4.638
-20.0,5.0,4.639
-24.0,-2.0,4.64
-19.0,-8.0,4.641
-15.0,-7.0,4.642
-12.0,-5.0,4.643
-4.0,-4.0,4.644
0.0,-2.0,4.645
-6.0,2.0,4.646
-19.0,3.0,4.647
-25.0,-3.0,4.648
-20.0,-7.0,4.649
-14.0,-7.0,4.65
-9.0,-2.0,4.651
-1.0,1.0,4.652
12.0,3.0,4.653
23.0,3.0,4.654
28.0,1.0,4.655
25.0,0.0,4.656
11.0,1.0,4.657
-16.0,0.0,4.658
-40.0,0.0,4.659
-49.0,-2.0,4.66
-35.0,-7.0,4.661
-6.0,-7.0,4.662
26.0,-4.0,4.663
47.0,4.0,4.664
45.0,9.0,4.665
29.0,8.0,4.666
24.0,2.0,4.667
31.0,-1.0,4.668
30.0,0.0,4.669
16.0,4.0,4.67
7.0,3.0,4.671
17.0,-1.0,4.672
28.0,-1.0,4.673
22.0,2.0,4.674
2.0,0.0,4.675
-15.0,-7.0,4.676
-20.0,-10.0,4.677
-17.0,-7.0,4.678
-11.0,-2.0,4.679
-21.0,-2.0,4.68
-46.0,-8.0,4.681
-60.0,-7.0,4.682
-43.0,1.0,4.683
-14.0,7.0,4.684
-4.0,7.0,4.685
-11.0,2.0,4.686
-2.0,0.0,4.687
15.0,0.0,4.688
12.0,-2.0,4.689
-9.0,-5.0,4.69
-10.0,-7.0,4.691
24.0,-7.0,4.692
60.0,-4.0,4.693
64.0,-3.0,4.694
35.0,-2.0,4.695
6.0,3.0,4.696
-1.0,10.0,4.697
-2.0,12.0,4.698
-10.0,8.0,4.699
-16.0,1.0,4.7
-17.0,-4.0,4.701
-12.0,-3.0,4.702
9.0,-3.0,4.703
26.0,-3.0,4.704
26.0,-4.0,4.705
25.0,-3.0,4.706
24.0,-2.0,4.707
23.0,3.0,4.708
22.0,14.0,4.709
25.0,28.0,4.71
41.0,31.0,4.711
54.0,13.0,4.712
54.0,-13.0,4.713
50.0,-29.0,4.714
32.0,-20.0,4.715
7.0,-1.0,4.716
-38.0,8.0,4.717
-82.0,1.0,4.718
-103.0,-7.0,4.719
-91.0,-9.0,4.72
-61.0,-10.0,4.721
-36.0,-14.0,4.722
-25.0,-15.0,4.723
-21.0,-9.0,4.724
-3.0,0.0,4.725
25.0,0.0,4.726
39.0,-2.0,4.727
27.0,-1.0,4.728
8.0,0.0,4.729
4.0,-1.0,4.73
14.0,-6.0,4.731
13.0,-5.0,4.732
4.0,-1.0,4.733
6.0,-1.0,4.734
23.0,-3.0,4.735
25.0,-1.0,4.736
0.0,6.0,4.737
-39.0,8.0,4.738
-57.0,7.0,4.739
-49.0,7.0,4.74
-40.0,7.0,4.741
-41.0,7.0,4.742
-33.0,8.0,4.743
-8.0,9.0,4.744
15.0,9.0,4.745
22.0,4.0,4.746
30.0,-1.0,4.747
44.0,-3.0,4.748
48.0,-4.0,4.749
34.0,-5.0,4.75
22.0,-4.0,4.751
26.0,0.0,4.752
29.0,3.0,4.753
17.0,2.0,4.754
5.0,-1.0,4.755
13.0,2.0,4.756
23.0,8.0,4.757
19.0,8.0,4.758
7.0,6.0,4.759
4.0,2.0,4.76
9.0,0.0,4.761
11.0,0.0,4.762
7.0,-2.0,4.763
9.0,-5.0,4.764
12.0,-1.0,4.765
6.0,6.0,4.766
0.0,8.0,4.767
0.0,-1.0,4.768
3.0,-9.0,4.769
3.0,-9.0,4.77
4.0,-3.0,4.771
9.0,-3.0,4.772
11.0,-7.0,4.773
5.0,-8.0,4.774
-4.0,-5.0,4.775
-14.0,-3.0,4.776
-21.0,-5.0,4.777
-27.0,-6.0,4.778
-27.0,-3.0,4.779
-20.0,-3.0,4.78
-7.0,-6.0,4.781
3.0,-7.0,4.782
11.0,-3.0,4.783
21.0,-1.0,4.784
22.0,-3.0,4.785
7.0,-2.0,4.786
-13.0,2.0,4.787
-14.0,4.0,4.788
0.0,3.0,4.789
2.0,1.0,4.79
-20.0,3.0,4.791
-39.0,3.0,4.792
-28.0,1.0,4.793
1.0,-1.0,4.794
17.0,-2.0,4.795
14.0,-4.0,4.796
7.0,-4.0,4.797
7.0,-1.0,4.798
6.0,4.0,4.799
4.0,4.0,4.8
10.0,-4.0,4.801
18.0,-5.0,4.802
17.0,-3.0,4.803
6.0,-1.0,4.804
0.0,-3.0,4.805
0.0,-2.0,4.806
-1.0,1.0,4.807
-5.0,0.0,4.808
-4.0,-3.0,4.809
2.0,-2.0,4.81
4.0,1.0,4.811
-1.0,4.0,4.812
0.0,5.0,4.813
5.0,7.0,4.814
5.0,7.0,4.815
0.0,3.0,4.816
0.0,2.0,4.817
6.0,1.0,4.818
9.0,0.0,4.819
4.0,-3.0,4.82
0.0,-5.0,4.821
1.0,-3.0,4.822
8.0,-2.0,4.823
16.0,-4.0,4.824
18.0,-3.0,4.825
17.0,3.0,4.826
14.0,6.0,4.827
11.0,5.0,4.828
6.0,7.0,4.829
-2.0,10.0,4.83
-10.0,10.0,4.831
-12.0,11.0,4.832
-9.0,22.0,4.833
-2.0,44.0,4.834
6.0,60.0,4.835
12.0,49.0,4.836
13.0,18.0,4.837
9.0,-19.0,4.838
7.0,-45.0,4.839
12.0,-63.0,4.84
23.0,-80.0,4.841
35.0,-83.0,4.842
39.0,-68.0,4.843
27.0,-41.0,4.844
7.0,-19.0,4.845
-2.0,-8.0,4.846
2.0,2.0,4.847
-1.0,12.0,4.848
-20.0,16.0,4.849
-37.0,13.0,4.85
-36.0,9.0,4.851
-32.0,8.0,4.852
-42.0,6.0,4.853
-50.0,1.0,4.854
-34.0,-1.0,4.855
-7.0,0.0,4.856
2.0,2.0,4.857
-10.0,0.0,4.858
-14.0,3.0,4.859
-1.0,8.0,4.86
19.0,6.0,4.861
31.0,3.0,4.862
39.0,6.0,4.863
54.0,12.0,4.864
60.0,16.0,4.865
50.0,13.0,4.866
32.0,12.0,4.867
20.0,10.0,4.868
9.0,8.0,4.869
-10.0,3.0,4.87
-25.0,1.0,4.871
-29.0,1.0,4.872
-31.0,0.0,4.873
-41.0,3.0,4.874
-48.0,8.0,4.875
-42.0,12.0,4.876
-26.0,9.0,4.877
-14.0,0.0,4.878
-6.0,-6.0,4.879
-3.0,-5.0,4.88
0.0,-4.0,4.881
3.0,-4.0,4.882
15.0,-7.0,4.883
29.0,-8.0,4.884
36.0,-6.0,4.885
33.0,-4.0,4.886
27.0,-4.0,4.887
24.0,-7.0,4.888
20.0,-5.0,4.889
16.0,-1.0,4.89
13.0,3.0,4.891
14.0,3.0,4.892
12.0,0.0,4.893
10.0,0.0,4.894
9.0,4.0,4.895
13.0,7.0,4.896
19.0,6.0,4.897
26.0,1.0,4.898
28.0,0.0,4.899
25.0,1.0,4.9
19.0,-3.0,4.901
11.0,-6.0,4.902
8.0,-7.0,4.903
6.0,-5.0,4.904
-4.0,0.0,4.905
-19.0,4.0,4.906
-31.0,2.0,4.907
-35.0,-3.0,4.908
-37.0,-7.0,4.909
-39.0,-7.0,4.91
-39.0,-5.0,4.911
-31.0,-5.0,4.912
-19.0,-5.0,4.913
-7.0,-4.0,4.914
7.0,-1.0,4.915
20.0,2.0,4.916
30.0,3.0,4.917
28.0,-1.0,4.918
19.0,-4.0,4.919
5.0,-4.0,4.92
-10.0,-5.0,4.921
-25.0,-6.0,4.922
-35.0,-5.0,4.923
-30.0,-2.0,4.924
-17.0,3.0,4.925
-3.0,3.0,4.926
8.0,0.0,4.927
21.0,-2.0,4.928
31.0,-2.0,4.929
32.0,0.0,4.93
22.0,2.0,4.931
15.0,3.0,4.932
14.0,2.0,4.933
16.0,1.0,4.934
17.0,1.0,4.935
19.0,7.0,4.936
20.0,15.0,4.937
13.0,18.0,4.938
1.0,12.0,4.939
-7.0,2.0,4.94
-8.0,-3.0,4.941
-12.0,1.0,4.942
-12.0,1.0,4.943
0.0,-2.0,4.944
16.0,-4.0,4.945
17.0,0.0,4.946
7.0,1.0,4.947
2.0,-3.0,4.948
4.0,-7.0,4.949
1.0,-4.0,4.95
-7.0,-1.0,4.951
-4.0,-3.0,4.952
16.0,-4.0,4.953
37.0,-3.0,4.954
44.0,-2.0,4.955
42.0,-4.0,4.956
37.0,-5.0,4.957
24.0,-6.0,4.958
-1.0,-5.0,4.959
-39.0,-6.0,4.96
-66.0,-8.0,4.961
-59.0,-2.0,4.962
-18.0,0.0,4.963
14.0,-2.0,4.964
5.0,0.0,4.965
-22.0,6.0,4.966
-29.0,10.0,4.967
-14.0,5.0,4.968
-7.0,-1.0,4.969
-12.0,0.0,4.97
-8.0,0.0,4.971
10.0,-3.0,4.972
17.0,-7.0,4.973
8.0,-4.0,4.974
4.0,-2.0,4.975
13.0,-6.0,4.976
16.0,-8.0,4.977
9.0,-7.0,4.978
8.0,-5.0,4.979
13.0,-10.0,4.98
12.0,-18.0,4.981
2.0,-17.0,4.982
1.0,-9.0,4.983
12.0,1.0,4.984
18.0,12.0,4.985
14.0,19.0,4.986
13.0,18.0,4.987
15.0,12.0,4.988
12.0,7.0,4.989
0.0,4.0,4.99
-4.0,-1.0,4.991
0.0,-3.0,4.992
1.0,0.0,4.993
-1.0,4.0,4.994
1.0,0.0,4.995
10.0,-6.0,4.996
19.0,-4.0,4.997
24.0,0.0,4.998
32.0,4.0,4.999
43.0,0.0,5.0
47.0,-5.0,5.001
33.0,-6.0,5.002
6.0,-4.0,5.003
-21.0,-4.0,5.004
-40.0,-2.0,5.005
-44.0,0.0,5.006
-37.0,0.0,5.007
-35.0,-2.0,5.008
-44.0,-3.0,5.009
-51.0,-1.0,5.01
-35.0,1.0,5.011
-3.0,1.0,5.012
22.0,1.0,5.013
39.0,0.0,5.014
58.0,1.0,5.015
69.0,0.0,5.016
51.0,-1.0,5.017
13.0,-3.0,5.018
-6.0,-2.0,5.019
-9.0,-2.0,5.02
-29.0,-5.0,5.021
-68.0,-8.0,5.022
-81.0,-8.0,5.023
-47.0,-4.0,5.024
-10.0,2.0,5.025
-7.0,6.0,5.026
-17.0,6.0,5.027
-7.0,7.0,5.028
15.0,12.0,5.029
19.0,16.0,5.03
9.0,13.0,5.031
9.0,3.0,5.032
21.0,-7.0,5.033
25.0,-9.0,5.034
19.0,-9.0,5.035
14.0,-10.0,5.036
18.0,-11.0,5.037
20.0,-10.0,5.038
17.0,-6.0,5.039
11.0,-1.0,5.04
10.0,0.0,5.041
11.0,5.0,5.042
14.0,15.0,5.043
18.0,30.0,5.044
20.0,41.0,5.045
20.0,43.0,5.046
19.0,32.0,5.047
17.0,10.0,5.048
10.0,-10.0,5.049
-1.0,-25.0,5.05
-8.0,-36.0,5.051
-9.0,-41.0,5.052
-4.0,-41.0,5.053
-4.0,-39.0,5.054
-6.0,-34.0,5.055
-7.0,-24.0,5.056
-5.0,-13.0,5.057
-5.0,-9.0,5.058
-4.0,-8.0,5.059
-4.0,-4.0,5.06
0.0,0.0,5.061
5.0,3.0,5.062
7.0,3.0,5.063
5.0,6.0,5.064
-1.0,11.0,5.065
-6.0,15.0,5.066
-4.0,13.0,5.067
3.0,11.0,5.068
12.0,11.0,5.069
16.0,12.0,5.07
16.0,10.0,5.071
10.0,9.0,5.072
0.0,8.0,5.073
-4.0,7.0,5.074
-6.0,4.0,5.075
-8.0,2.0,5.076
-10.0,1.0,5.077
-8.0,0.0,5.078
-1.0,0.0,5.079
1.0,0.0,5.08
-3.0,-5.0,5.081
-3.0,-7.0,5.082
5.0,-4.0,5.083
14.0,1.0,5.084
13.0,6.0,5.085
6.0,7.0,5.086
5.0,4.0,5.087
8.0,0.0,5.088
5.0,-4.0,5.089
-1.0,-4.0,5.09
-1.0,0.0,5.091
2.0,1.0,5.092
2.0,0.0,5.093
-3.0,0.0,5.094
-9.0,4.0,5.095
-12.0,7.0,5.096
-11.0,7.0,5.097
-7.0,2.0,5.098
-1.0,-1.0,5.099
6.0,-3.0,5.1
15.0,-8.0,5.101
31.0,-7.0,5.102
52.0,7.0,5.103
63.0,37.0,5.104
55.0,62.0,5.105
34.0,66.0,5.106
16.0,43.0,5.107
4.0,10.0,5.108
-4.0,-16.0,5.109
-17.0,-33.0,5.11
-36.0,-50.0,5.111
-49.0,-67.0,5.112
-47.0,-71.0,5.113
-32.0,-62.0,5.114
-22.0,-52.0,5.115
-25.0,-49.0,5.116
-25.0,-41.0,5.117
-8.0,-28.0,5.118
14.0,-14.0,5.119
19.0,-8.0,5.12
12.0,-5.0,5.121
10.0,10.0,5.122
21.0,33.0,5.123
32.0,47.0,5.124
34.0,46.0,5.125
33.0,33.0,5.126
26.0,13.0,5.127
7.0,0.0,5.128
-15.0,-5.0,5.129
-23.0,-3.0,5.13
-18.0,0.0,5.131
-12.0,3.0,5.132
-17.0,4.0,5.133
-26.0,6.0,5.134
-30.0,5.0,5.135
-27.0,6.0,5.136
-15.0,10.0,5.137
-3.0,9.0,5.138
7.0,3.0,5.139
7.0,0.0,5.14
6.0,-4.0,5.141
11.0,-6.0,5.142
18.0,-6.0,5.143
21.0,-2.0,5.144
22.0,2.0,5.145
24.0,0.0,5.146
23.0,-4.0,5.147
19.0,-4.0,5.148
13.0,2.0,5.149
6.0,7.0,5.15
2.0,7.0,5.151
2.0,5.0,5.152
2.0,2.0,5.153
2.0,2.0,5.154
2.0,2.0,5.155
2.0,0.0,5.156
2.0,-1.0,5.157
0.0,-4.0,5.158
-2.0,-3.0,5.159
-3.0,-1.0,5.16
-1.0,-2.0,5.161
2.0,-4.0,5.162
9.0,-4.0,5.163
14.0,-1.0,5.164
9.0,2.0,5.165
5.0,0.0,5.166
5.0,-2.0,5.167
5.0,-2.0,5.168
10.0,0.0,5.169
13.0,-2.0,5.17
7.0,-5.0,5.171
2.0,-8.0,5.172
-2.0,-9.0,5.173
-6.0,-6.0,5.174
-9.0,-1.0,5.175
-10.0,1.0,5.176
-4.0,3.0,5.177
3.0,1.0,5.178
7.0,1.0,5.179
9.0,-2.0,5.18
12.0,-7.0,5.181
16.0,-7.0,5.182
20.0,-4.0,5.183
21.0,0.0,5.184
12.0,1.0,5.185
-4.0,4.0,5.186
-14.0,5.0,5.187
-12.0,1.0,5.188
-6.0,-4.0,5.189
-6.0,-5.0,5.19
-8.0,-3.0,5.191
-5.0,-2.0,5.192
2.0,-2.0,5.193
6.0,1.0,5.194
5.0,3.0,5.195
10.0,0.0,5.196
22.0,-3.0,5.197
30.0,-8.0,5.198
31.0,-7.0,5.199
23.0,-6.0,5.2
10.0,-9.0,5.201
-8.0,-6.0,5.202
-23.0,-4.0,5.203
-38.0,-3.0,5.204
-47.0,-3.0,5.205
-52.0,-1.0,5.206
-46.0,1.0,5.207
-31.0,2.0,5.208
-22.0,5.0,5.209
-19.0,8.0,5.21
-13.0,7.0,5.211
3.0,3.0,5.212
18.0,0.0,5.213
18.0,0.0,5.214
12.0,0.0,5.215
15.0,-3.0,5.216
24.0,-3.0,5.217
25.0,-4.0,5.218
17.0,-5.0,5.219
12.0,-6.0,5.22
15.0,-6.0,5.221
16.0,0.0,5.222
15.0,4.0,5.223
18.0,3.0,5.224
22.0,3.0,5.225
18.0,7.0,5.226
12.0,11.0,5.227
10.0,8.0,5.228
12.0,2.0,5.229
8.0,0.0,5.23
1.0,2.0,5.231
3.0,2.0,5.232
9.0,-2.0,5.233
8.0,-4.0,5.234
2.0,-2.0,5.235
3.0,0.0,5.236
7.0,0.0,5.237
7.0,-1.0,5.238
3.0,-4.0,5.239
1.0,-5.0,5.24
-1.0,-4.0,5.241
-5.0,-2.0,5.242
-4.0,-3.0,5.243
3.0,-7.0,5.244
7.0,-4.0,5.245
-2.0,3.0,5.246
-7.0,7.0,5.247
1.0,2.0,5.248
17.0,-4.0,5.249
22.0,-6.0,5.25
12.0,-4.0,5.251
3.0,-3.0,5.252
2.0,-3.0,5.253
4.0,0.0,5.254
1.0,1.0,5.255
-7.0,0.0,5.256
-13.0,1.0,5.257
-16.0,-1.0,5.258
-15.0,-2.0,5.259
-19.0,-4.0,5.26
-25.0,-7.0,5.261
-30.0,-5.0,5.262
-24.0,-3.0,5.263
-9.0,0.0,5.264
0.0,3.0,5.265
0.0,5.0,5.266
1.0,5.0,5.267
9.0,1.0,5.268
14.0,-2.0,5.269
10.0,-2.0,5.27
7.0,0.0,5.271
10.0,1.0,5.272
12.0,2.0,5.273
6.0,1.0,5.274
-1.0,0.0,5.275
-6.0,-2.0,5.276
-3.0,1.0,5.277
3.0,1.0,5.278
15.0,2.0,5.279
23.0,2.0,5.28
21.0,2.0,5.281
18.0,4.0,5.282
15.0,3.0,5.283
13.0,0.0,5.284
12.0,2.0,5.285
10.0,7.0,5.286
7.0,6.0,5.287
4.0,1.0,5.288
6.0,0.0,5.289
7.0,4.0,5.29
2.0,4.0,5.291
-1.0,0.0,5.292
0.0,-3.0,5.293
1.0,-2.0,5.294
-8.0,-1.0,5.295
-14.0,-2.0,5.296
-6.0,0.0,5.297
5.0,1.0,5.298
12.0,2.0,5.299
7.0,4.0,5.3
3.0,3.0,5.301
5.0,1.0,5.302
10.0,-1.0,5.303
9.0,-4.0,5.304
2.0,-4.0,5.305
-4.0,-4.0,5.306
-4.0,-10.0,5.307
0.0,-15.0,5.308
2.0,-16.0,5.309
-2.0,-18.0,5.31
-7.0,-18.0,5.311
-6.0,-15.0,5.312
-3.0,-5.0,5.313
-4.0,2.0,5.314
-9.0,0.0,5.315
-12.0,-1.0,5.316
-10.0,-1.0,5.317
-4.0,1.0,5.318
0.0,4.0,5.319
2.0,0.0,5.32
6.0,-7.0,5.321
11.0,-6.0,5.322
15.0,0.0,5.323
17.0,4.0,5.324
19.0,6.0,5.325
22.0,8.0,5.326
30.0,7.0,5.327
35.0,3.0,5.328
30.0,0.0,5.329
15.0,2.0,5.33
-2.0,3.0,5.331
-12.0,1.0,5.332
-22.0,0.0,5.333
-36.0,2.0,5.334
-42.0,4.0,5.335
-24.0,4.0,5.336
5.0,4.0,5.337
23.0,3.0,5.338
17.0,3.0,5.339
-2.0,2.0,5.34
-13.0,-2.0,5.341
-12.0,-2.0,5.342
-8.0,0.0,5.343
-10.0,2.0,5.344
-12.0,0.0,5.345
-7.0,0.0,5.346
5.0,0.0,5.347
15.0,2.0,5.348
15.0,1.0,5.349
14.0,-2.0,5.35
21.0,-5.0,5.351
36.0,-3.0,5.352
42.0,3.0,5.353
35.0,15.0,5.354
22.0,26.0,5.355
10.0,25.0,5.356
2.0,14.0,5.357
-5.0,-3.0,5.358
-13.0,-16.0,5.359
-23.0,-24.0,5.36
-39.0,-32.0,5.361
-47.0,-30.0,5.362
-31.0,-13.0,5.363
-16.0,17.0,5.364
-8.0,45.0,5.365
0.0,51.0,5.366
6.0,24.0,5.367
11.0,-13.0,5.368
12.0,-34.0,5.369
12.0,-35.0,5.37
6.0,-35.0,5.371
1.0,-39.0,5.372
0.0,-39.0,5.373
-3.0,-27.0,5.374
-4.0,-17.0,5.375
-3.0,-15.0,5.376
4.0,-11.0,5.377
9.0,-3.0,5.378
6.0,2.0,5.379
4.0,7.0,5.38
9.0,10.0,5.381
16.0,14.0,5.382
22.0,18.0,5.383
27.0,21.0,5.384
25.0,20.0,5.385
21.0,18.0,5.386
17.0,14.0,5.387
17.0,10.0,5.388
13.0,7.0,5.389
4.0,4.0,5.39
2.0,5.0,5.391
7.0,7.0,5.392
11.0,9.0,5.393
10.0,10.0,5.394
9.0,4.0,5.395
8.0,0.0,5.396
4.0,-1.0,5.397
-6.0,-2.0,5.398
-13.0,0.0,5.399
-19.0,0.0,5.4
-19.0,-4.0,5.401
-18.0,-6.0,5.402
-16.0,-8.0,5.403
-15.0,-5.0,5.404
-15.0,-5.0,5.405
-15.0,-5.0,5.406
-11.0,-8.0,5.407
-7.0,-8.0,5.408
-3.0,-3.0,5.409
1.0,-2.0,5.41
5.0,-7.0,5.411
8.0,-11.0,5.412
11.0,-7.0,5.413
15.0,-1.0,5.414
19.0,-1.0,5.415
22.0,-7.0,5.416
21.0,-7.0,5.417
21.0,-4.0,5.418
21.0,-2.0,5.419
16.0,-5.0,5.42
8.0,-7.0,5.421
-1.0,-2.0,5.422
-3.0,6.0,5.423
-6.0,11.0,5.424
-14.0,16.0,5.425
-21.0,18.0,5.426
-15.0,13.0,5.427
-2.0,8.0,5.428
-1.0,6.0,5.429
-9.0,5.0,5.43
-17.0,1.0,5.431
-23.0,-4.0,5.432
-36.0,-6.0,5.433
-48.0,-6.0,5.434
-47.0,-7.0,5.435
-34.0,-10.0,5.436
-19.0,-9.0,5.437
1.0,-7.0,5.438
30.0,-7.0,5.439
55.0,-5.0,5.44
64.0,-5.0,5.441
60.0,-2.0,5.442
59.0,-2.0,5.443
58.0,-3.0,5.444
47.0,-1.0,5.445
30.0,0.0,5.446
25.0,-6.0,5.447
29.0,-12.0,5.448
25.0,-14.0,5.449
11.0,-9.0,5.45
-1.0,-7.0,5.451
-7.0,-5.0,5.452
-16.0,1.0,5.453
-25.0,13.0,5.454
-25.0,26.0,5.455
-19.0,35.0,5.456
-15.0,38.0,5.457
-17.0,32.0,5.458
-20.0,16.0,5.459
-23.0,1.0,5.46
-23.0,-9.0,5.461
-9.0,-9.0,5.462
17.0,-6.0,5.463
28.0,-6.0,5.464
14.0,-5.0,5.465
-6.0,-3.0,5.466
-7.0,-6.0,5.467
1.0,-9.0,5.468
-8.0,-11.0,5.469
-36.0,-8.0,5.47
-51.0,-5.0,5.471
-39.0,-4.0,5.472
-19.0,-5.0,5.473
-6.0,-3.0,5.474
13.0,-1.0,5.475
51.0,0.0,5.476
90.0,0.0,5.477
93.0,-3.0,5.478
66.0,-3.0,5.479
39.0,-5.0,5.48
16.0,-9.0,5.481
-4.0,-12.0,5.482
-18.0,-13.0,5.483
-31.0,-13.0,5.484
-39.0,-9.0,5.485
-44.0,-5.0,5.486
-34.0,-1.0,5.487
-28.0,3.0,5.488
-32.0,11.0,5.489
-33.0,17.0,5.49
-23.0,18.0,5.491
-11.0,20.0,5.492
6.0,22.0,5.493
18.0,22.0,5.494
12.0,10.0,5.495
11.0,-2.0,5.496
27.0,-16.0,5.497
40.0,-28.0,5.498
36.0,-28.0,5.499
23.0,-22.0,5.5
19.0,-21.0,5.501
17.0,-20.0,5.502
10.0,-17.0,5.503
5.0,-11.0,5.504
9.0,-6.0,5.505
16.0,-1.0,5.506
19.0,9.0,5.507
22.0,22.0,5.508
25.0,29.0,5.509
22.0,26.0,5.51
12.0,18.0,5.511
6.0,12.0,5.512
14.0,9.0,5.513
23.0,8.0,5.514
25.0,6.0,5.515
20.0,3.0,5.516
16.0,-3.0,5.517
7.0,-13.0,5.518
-8.0,-21.0,5.519
-25.0,-20.0,5.52
-32.0,-19.0,5.521
-30.0,-13.0,5.522
-29.0,-7.0,5.523
-40.0,3.0,5.524
-53.0,14.0,5.525
-58.0,18.0,5.526
-49.0,13.0,5.527
-26.0,4.0,5.528
9.0,-1.0,5.529
40.0,-1.0,5.53
51.0,0.0,5.531
37.0,0.0,5.532
20.0,-4.0,5.533
12.0,-7.0,5.534
7.0,-7.0,5.535
3.0,-6.0,5.536
6.0,-7.0,5.537
12.0,-12.0,5.538
9.0,-17.0,5.539
-7.0,-16.0,5.54
-19.0,-14.0,5.541
-14.0,-12.0,5.542
0.0,-6.0,5.543
10.0,8.0,5.544
12.0,31.0,5.545
13.0,45.0,5.546
14.0,46.0,5.547
7.0,35.0,5.548
-3.0,19.0,5.549
-2.0,0.0,5.55
15.0,-16.0,5.551
33.0,-21.0,5.552
33.0,-12.0,5.553
14.0,-1.0,5.554
-9.0,3.0,5.555
-18.0,1.0,5.556
-12.0,-2.0,5.557
4.0,-8.0,5.558
3.0,-10.0,5.559
3.0,-11.0,5.56
1.0,-10.0,5.561
1.0,-8.0,5.562
8.0,-5.0,5.563
14.0,0.0,5.564
11.0,10.0,5.565
9.0,19.0,5.566
7.0,20.0,5.567
6.0,17.0,5.568
3.0,17.0,5.569
2.0,15.0,5.57
-1.0,4.0,5.571
-4.0,-9.0,5.572
-2.0,-18.0,5.573
-1.0,-13.0,5.574
0.0,-7.0,5.575
1.0,-6.0,5.576
1.0,-6.0,5.577
5.0,-7.0,5.578
4.0,-3.0,5.579
2.0,-1.0,5.58
0.0,-9.0,5.581
0.0,-14.0,5.582
10.0,-9.0,5.583
17.0,-5.0,5.584
14.0,1.0,5.585
11.0,5.0,5.586
9.0,5.0,5.587
7.0,3.0,5.588
4.0,3.0,5.589
1.0,1.0,5.59
-3.0,-3.0,5.591
-6.0,-5.0,5.592
-4.0,3.0,5.593
-3.0,10.0,5.594
-1.0,1.0,5.595
0.0,-3.0,5.596
0.0,1.0,5.597
-1.0,-4.0,5.598
-5.0,-2.0,5.599
-5.0,-1.0,5.6
-2.0,-5.0,5.601
-1.0,-7.0,5.602
0.0,-5.0,5.603
7.0,-3.0,5.604
14.0,0.0,5.605
16.0,2.0,5.606
16.0,2.0,5.607
14.0,1.0,5.608
11.0,1.0,5.609
5.0,0.0,5.61
1.0,-2.0,5.611
3.0,-3.0,5.612
3.0,1.0,5.613
-2.0,4.0,5.614
-4.0,0.0,5.615
-2.0,-2.0,5.616
1.0,0.0,5.617
2.0,3.0,5.618
-3.0,3.0,5.619
-9.0,0.0,5.62
-9.0,-2.0,5.621
-4.0,-2.0,5.622
3.0,0.0,5.623
9.0,3.0,5.624
9.0,5.0,5.625
5.0,5.0,5.626
6.0,0.0,5.627
10.0,-6.0,5.628
11.0,-6.0,5.629
7.0,-4.0,5.63
5.0,-3.0,5.631
5.0,-5.0,5.632
0.0,-4.0,5.633
-9.0,2.0,5.634
-16.0,4.0,5.635
-16.0,0.0,5.636
-12.0,-2.0,5.637
-10.0,-1.0,5.638
-7.0,2.0,5.639
-4.0,1.0,5.64
-3.0,-3.0,5.641
-2.0,2.0,5.642
6.0,19.0,5.643
19.0,36.0,5.644
27.0,44.0,5.645
26.0,40.0,5.646
21.0,30.0,5.647
20.0,16.0,5.648
18.0,0.0,5.649
8.0,-16.0,5.65
-1.0,-28.0,5.651
-6.0,-32.0,5.652
-5.0,-30.0,5.653
-4.0,-26.0,5.654
-5.0,-26.0,5.655
-2.0,-31.0,5.656
4.0,-34.0,5.657
9.0,-35.0,5.658
10.0,-27.0,5.659
4.0,-7.0,5.66
-1.0,11.0,5.661
0.0,25.0,5.662
6.0,30.0,5.663
9.0,42.0,5.664
5.0,59.0,5.665
-2.0,61.0,5.666
-9.0,30.0,5.667
-13.0,-17.0,5.668
-15.0,-51.0,5.669
-11.0,-57.0,5.67
-7.0,-53.0,5.671
-8.0,-51.0,5.672
-11.0,-48.0,5.673
-11.0,-38.0,5.674
-4.0,-29.0,5.675
1.0,-20.0,5.676
2.0,-6.0,5.677
-2.0,9.0,5.678
-4.0,15.0,5.679
-2.0,1.0,5.68
2.0,-18.0,5.681
8.0,-22.0,5.682
19.0,-11.0,5.683
30.0,2.0,5.684
34.0,25.0,5.685
29.0,64.0,5.686
25.0,109.0,5.687
26.0,131.0,5.688
21.0,119.0,5.689
6.0,84.0,5.69
-11.0,39.0,5.691
-20.0,-5.0,5.692
-23.0,-39.0,5.693
-25.0,-61.0,5.694
-23.0,-70.0,5.695
-16.0,-68.0,5.696
-10.0,-54.0,5.697
-11.0,-37.0,5.698
-11.0,-24.0,5.699
-6.0,-14.0,5.7
6.0,-6.0,5.701
17.0,12.0,5.702
28.0,51.0,5.703
43.0,146.0,5.704
54.0,307.0,5.705
53.0,456.0,5.706
40.0,459.0,5.707
26.0,274.0,5.708
14.0,9.0,5.709
1.0,-195.0,5.71
-7.0,-314.0,5.711
-10.0,-401.0,5.712
-13.0,-458.0,5.713
-18.0,-443.0,5.714
-20.0,-368.0,5.715
-16.0,-288.0,5.716
-10.0,-223.0,5.717
-10.0,-133.0,5.718
-10.0,-14.0,5.719
-4.0,84.0,5.72
2.0,126.0,5.721
3.0,133.0,5.722
7.0,122.0,5.723
21.0,98.0,5.724
30.0,81.0,5.725
26.0,87.0,5.726
15.0,95.0,5.727
10.0,67.0,5.728
4.0,20.0,5.729
-12.0,-12.0,5.73
-32.0,-27.0,5.731
-32.0,-41.0,5.732
-19.0,-53.0,5.733
-13.0,-53.0,5.734
-19.0,-50.0,5.735
-21.0,-51.0,5.736
-12.0,-41.0,5.737
-4.0,-16.0,5.738
-2.0,6.0,5.739
-2.0,13.0,5.74
-1.0,19.0,5.741
0.0,45.0,5.742
6.0,74.0,5.743
17.0,89.0,5.744
21.0,92.0,5.745
14.0,88.0,5.746
1.0,78.0,5.747
-2.0,69.0,5.748
-1.0,71.0,5.749
-5.0,69.0,5.75
-10.0,41.0,5.751
-9.0,2.0,5.752
-4.0,-12.0,5.753
-2.0,2.0,5.754
1.0,18.0,5.755
4.0,22.0,5.756
0.0,26.0,5.757
-11.0,32.0,5.758
-11.0,45.0,5.759
2.0,56.0,5.76
13.0,64.0,5.761
10.0,65.0,5.762
10.0,45.0,5.763
26.0,28.0,5.764
40.0,24.0,5.765
35.0,10.0,5.766
23.0,-33.0,5.767
22.0,-71.0,5.768
23.0,-92.0,5.769
14.0,-109.0,5.77
3.0,-109.0,5.771
7.0,-108.0,5.772
24.0,-110.0,5.773
36.0,-105.0,5.774
35.0,-73.0,5.775
27.0,-48.0,5.776
22.0,-42.0,5.777
10.0,-36.0,5.778
-17.0,-12.0,5.779
-59.0,29.0,5.78
-90.0,51.0,5.781
-87.0,54.0,5.782
-52.0,66.0,5.783
-17.0,100.0,5.784
0.0,123.0,5.785
15.0,99.0,5.786
33.0,50.0,5.787
41.0,7.0,5.788
31.0,-29.0,5.789
21.0,-69.0,5.79
26.0,-98.0,5.791
27.0,-100.0,5.792
6.0,-93.0,5.793
-17.0,-97.0,5.794
-12.0,-99.0,5.795
26.0,-85.0,5.796
76.0,-64.0,5.797
109.0,-49.0,5.798
114.0,-29.0,5.799
84.0,8.0,5.8
39.0,52.0,5.801
-5.0,100.0,5.802
-59.0,155.0,5.803
-128.0,199.0,5.804
-172.0,180.0,5.805
-144.0,89.0,5.806
-72.0,-19.0,5.807
-35.0,-85.0,5.808
-51.0,-113.0,5.809
-63.0,-128.0,5.81
-34.0,-128.0,5.811
-4.0,-89.0,5.812
1.0,-21.0,5.813
11.0,53.0,5.814
56.0,119.0,5.815
105.0,169.0,5.816
122.0,182.0,5.817
115.0,153.0,5.818
108.0,107.0,5.819
83.0,79.0,5.82
30.0,80.0,5.821
-19.0,106.0,5.822
-26.0,122.0,5.823
-8.0,95.0,5.824
-6.0,6.0,5.825
-26.0,-122.0,5.826
-38.0,-249.0,5.827
-24.0,-338.0,5.828
1.0,-366.0,5.829
21.0,-331.0,5.83
24.0,-253.0,5.831
-4.0,-173.0,5.832
-46.0,-112.0,5.833
-60.0,-52.0,5.834
-36.0,37.0,5.835
-14.0,146.0,5.836
-30.0,215.0,5.837
-71.0,201.0,5.838
-90.0,121.0,5.839
-76.0,39.0,5.84
-44.0,-1.0,5.841
-2.0,-10.0,5.842
56.0,-7.0,5.843
112.0,34.0,5.844
127.0,137.0,5.845
107.0,244.0,5.846
81.0,265.0,5.847
69.0,195.0,5.848
52.0,103.0,5.849
8.0,24.0,5.85
-52.0,-67.0,5.851
-97.0,-170.0,5.852
-111.0,-220.0,5.853
-104.0,-192.0,5.854
-88.0,-143.0,5.855
-65.0,-120.0,5.856
-28.0,-105.0,5.857
20.0,-69.0,5.858
71.0,-37.0,5.859
99.0,-35.0,5.86
85.0,-45.0,5.861
40.0,-40.0,5.862
10.0,-34.0,5.863
19.0,-36.0,5.864
39.0,-18.0,5.865
30.0,31.0,5.866
0.0,86.0,5.867
-20.0,111.0,5.868
-23.0,107.0,5.869
-32.0,80.0,5.87
-43.0,30.0,5.871
-35.0,-20.0,5.872
2.0,-31.0,5.873
58.0,12.0,5.874
110.0,83.0,5.875
136.0,139.0,5.876
139.0,157.0,5.877
145.0,126.0,5.878
161.0,66.0,5.879
128.0,19.0,5.88
6.0,31.0,5.881
-126.0,114.0,5.882
-150.0,226.0,5.883
-95.0,300.0,5.884
-102.0,277.0,5.885
-183.0,152.0,5.886
-200.0,-29.0,5.887
-101.0,-214.0,5.888
-7.0,-369.0,5.889
-1.0,-466.0,5.89
-3.0,-480.0,5.891
47.0,-415.0,5.892
89.0,-311.0,5.893
64.0,-207.0,5.894
30.0,-107.0,5.895
33.0,-4.0,5.896
42.0,93.0,5.897
27.0,169.0,5.898
29.0,196.0,5.899
50.0,170.0,5.9
31.0,139.0,5.901
-34.0,155.0,5.902
-53.0,186.0,5.903
-10.0,146.0,5.904
-11.0,19.0,5.905
-103.0,-103.0,5.906
-175.0,-154.0,5.907
-133.0,-162.0,5.908
-39.0,-182.0,5.909
33.0,-189.0,5.91
111.0,-128.0,5.911
206.0,33.0,5.912
216.0,295.0,5.913
92.0,613.0,5.914
-57.0,836.0,5.915
-124.0,763.0,5.916
-137.0,401.0,5.917
-148.0,-72.0,5.918
-102.0,-385.0,5.919
27.0,-491.0,5.92
140.0,-516.0,5.921
157.0,-501.0,5.922
129.0,-394.0,5.923
117.0,-227.0,5.924
80.0,-116.0,5.925
11.0,-98.0,5.926
-16.0,-96.0,5.927
12.0,-73.0,5.928
0.0,-56.0,5.929
-74.0,-26.0,5.93
-109.0,68.0,5.931
-53.0,184.0,5.932
6.0,207.0,5.933
10.0,117.0,5.934
20.0,13.0,5.935
66.0,-32.0,5.936
76.0,-42.0,5.937
7.0,-63.0,5.938
-65.0,-82.0,5.939
-83.0,-64.0,5.94
-96.0,-8.0,5.941
-149.0,58.0,5.942
-176.0,109.0,5.943
-118.0,157.0,5.944
-39.0,239.0,5.945
-3.0,341.0,5.946
28.0,415.0,5.947
94.0,453.0,5.948
143.0,498.0,5.949
120.0,500.0,5.95
67.0,323.0,5.951
51.0,-28.0,5.952
55.0,-347.0,5.953
35.0,-490.0,5.954
11.0,-527.0,5.955
18.0,-546.0,5.956
42.0,-500.0,5.957
52.0,-344.0,5.958
49.0,-198.0,5.959
47.0,-175.0,5.96
49.0,-204.0,5.961
51.0,-156.0,5.962
50.0,-50.0,5.963
35.0,57.0,5.964
-10.0,193.0,5.965
-51.0,356.0,5.966
-35.0,419.0,5.967
8.0,288.0,5.968
13.0,57.0,5.969
-20.0,-115.0,5.97
-32.0,-197.0,5.971
-6.0,-242.0,5.972
11.0,-261.0,5.973
4.0,-244.0,5.974
4.0,-206.0,5.975
15.0,-167.0,5.976
6.0,-114.0,5.977
-25.0,-47.0,5.978
-36.0,-3.0,5.979
-23.0,13.0,5.98
-26.0,49.0,5.981
-47.0,134.0,5.982
-50.0,220.0,5.983
-26.0,249.0,5.984
-11.0,221.0,5.985
-22.0,166.0,5.986
-39.0,119.0,5.987
-42.0,103.0,5.988
-37.0,108.0,5.989
-26.0,98.0,5.99
1.0,59.0,5.991
34.0,37.0,5.992
45.0,68.0,5.993
31.0,126.0,5.994
13.0,162.0,5.995
5.0,164.0,5.996
8.0,143.0,5.997
-44.0,100.0,5.998
-8.0,49.0,5.999
23.0,15.0,6.0
30.0,2.0,6.001
40.0,18.0,6.002
54.0,81.0,6.003
62.0,177.0,6.004
59.0,216.0,6.005
54.0,109.0,6.006
38.0,-104.0,6.007
26.0,-287.0,6.008
26.0,-378.0,6.009
26.0,-411.0,6.01
20.0,-403.0,6.011
14.0,-330.0,6.012
10.0,-218.0,6.013
7.0,-145.0,6.014
2.0,-134.0,6.015
-7.0,-135.0,6.016
-29.0,-119.0,6.017
-18.0,-92.0,6.018
3.0,-49.0,6.019
22.0,1.0,6.02
26.0,74.0,6.021
32.0,142.0,6.022
40.0,190.0,6.023
45.0,207.0,6.024
43.0,128.0,6.025
40.0,51.0,6.026
31.0,-21.0,6.027
24.0,-66.0,6.028
24.0,-31.0,6.029
24.0,-11.0,6.03
20.0,-38.0,6.031
16.0,-58.0,6.032
14.0,-55.0,6.033
12.0,-47.0,6.034
9.0,-23.0,6.035
4.0,1.0,6.036
-9.0,26.0,6.037
-22.0,33.0,6.038
-36.0,-24.0,6.039
-49.0,-48.0,6.04
-53.0,-37.0,6.041
-42.0,-36.0,6.042
-14.0,-52.0,6.043
17.0,-49.0,6.044
30.0,-17.0,6.045
25.0,18.0,6.046
27.0,46.0,6.047
42.0,75.0,6.048
51.0,103.0,6.049
43.0,118.0,6.05
29.0,129.0,6.051
23.0,152.0,6.052
23.0,176.0,6.053
14.0,168.0,6.054
-3.0,122.0,6.055
-20.0,68.0,6.056
-29.0,38.0,6.057
-34.0,28.0,6.058
-30.0,21.0,6.059
-17.0,13.0,6.06
-5.0,21.0,6.061
0.0,57.0,6.062
6.0,96.0,6.063
14.0,101.0,6.064
18.0,66.0,6.065
14.0,21.0,6.066
11.0,-1.0,6.067
15.0,1.0,6.068
18.0,7.0,6.069
16.0,-12.0,6.07
15.0,-60.0,6.071
15.0,-115.0,6.072
17.0,-145.0,6.073
19.0,-144.0,6.074
25.0,-127.0,6.075
29.0,-105.0,6.076
21.0,-76.0,6.077
5.0,-43.0,6.078
-3.0,-31.0,6.079
0.0,-60.0,6.08
8.0,-108.0,6.081
9.0,-121.0,6.082
10.0,-82.0,6.083
9.0,-8.0,6.084
0.0,88.0,6.085
-17.0,195.0,6.086
-27.0,269.0,6.087
-20.0,264.0,6.088
-6.0,204.0,6.089
3.0,161.0,6.09
6.0,154.0,6.091
6.0,122.0,6.092
4.0,39.0,6.093
3.0,-49.0,6.094
6.0,-116.0,6.095
11.0,-194.0,6.096
7.0,-281.0,6.097
-2.0,-326.0,6.098
-7.0,-293.0,6.099
-12.0,-237.0,6.1
-22.0,-212.0,6.101
-36.0,-182.0,6.102
-35.0,-103.0,6.103
-19.0,-3.0,6.104
-4.0,74.0,6.105
0.0,129.0,6.106
1.0,161.0,6.107
6.0,149.0,6.108
4.0,105.0,6.109
-8.0,83.0,6.11
-24.0,100.0,6.111
-36.0,122.0,6.112
-44.0,138.0,6.113
-52.0,160.0,6.114
-57.0,167.0,6.115
-61.0,116.0,6.116
-62.0,27.0,6.117
-55.0,-58.0,6.118
-32.0,-107.0,6.119
-3.0,-132.0,6.12
23.0,-135.0,6.121
44.0,-106.0,6.122
64.0,-83.0,6.123
79.0,-105.0,6.124
80.0,-131.0,6.125
70.0,-73.0,6.126
61.0,72.0,6.127
52.0,191.0,6.128
33.0,168.0,6.129
9.0,17.0,6.13
-6.0,-145.0,6.131
-8.0,-221.0,6.132
-7.0,-225.0,6.133
-7.0,-228.0,6.134
-5.0,-240.0,6.135
-1.0,-200.0,6.136
-2.0,-93.0,6.137
-8.0,23.0,6.138
-7.0,73.0,6.139
3.0,56.0,6.14
13.0,38.0,6.141
14.0,69.0,6.142
21.0,134.0,6.143
38.0,186.0,6.144
49.0,187.0,6.145
41.0,137.0,6.146
33.0,79.0,6.147
43.0,39.0,6.148
63.0,11.0,6.149
63.0,-18.0,6.15
41.0,-42.0,6.151
15.0,-46.0,6.152
0.0,-45.0,6.153
-11.0,-56.0,6.154
-22.0,-57.0,6.155
-34.0,-27.0,6.156
-45.0,6.0,6.157
-58.0,10.0,6.158
-65.0,3.0,6.159
-59.0,22.0,6.16
-38.0,59.0,6.161
-3.0,76.0,6.162
39.0,59.0,6.163
77.0,50.0,6.164
96.0,66.0,6.165
96.0,91.0,6.166
89.0,110.0,6.167
86.0,133.0,6.168
82.0,166.0,6.169
66.0,189.0,6.17
28.0,186.0,6.171
-32.0,168.0,6.172
-94.0,155.0,6.173
-132.0,151.0,6.174
-136.0,147.0,6.175
-123.0,133.0,6.176
-118.0,107.0,6.177
-119.0,52.0,6.178
-110.0,-27.0,6.179
-87.0,-116.0,6.18
-52.0,-197.0,6.181
-4.0,-246.0,6.182
60.0,-258.0,6.183
116.0,-241.0,6.184
131.0,-212.0,6.185
99.0,-196.0,6.186
53.0,-199.0,6.187
11.0,-200.0,6.188
-26.0,-170.0,6.189
-59.0,-98.0,6.19
-79.0,-13.0,6.191
-83.0,34.0,6.192
-81.0,23.0,6.193
-76.0,-7.0,6.194
-55.0,-7.0,6.195
-12.0,31.0,6.196
29.0,68.0,6.197
46.0,76.0,6.198
40.0,52.0,6.199
30.0,9.0,6.2
29.0,-39.0,6.201
29.0,-71.0,6.202
32.0,-78.0,6.203
46.0,-68.0,6.204
69.0,-58.0,6.205
79.0,-56.0,6.206
61.0,-66.0,6.207
36.0,-96.0,6.208
24.0,-144.0,6.209
18.0,-169.0,6.21
-11.0,-120.0,6.211
-62.0,4.0,6.212
-91.0,141.0,6.213
-63.0,220.0,6.214
0.0,221.0,6.215
39.0,169.0,6.216
32.0,97.0,6.217
3.0,3.0,6.218
-9.0,-72.0,6.219
-8.0,-79.0,6.22
-16.0,-11.0,6.221
-32.0,72.0,6.222
-31.0,115.0,6.223
-4.0,132.0,6.224
29.0,140.0,6.225
48.0,113.0,6.226
55.0,40.0,6.227
62.0,-4.0,6.228
76.0,57.0,6.229
101.0,176.0,6.23
129.0,237.0,6.231
138.0,203.0,6.232
114.0,136.0,6.233
64.0,72.0,6.234
11.0,-16.0,6.235
-31.0,-119.0,6.236
-60.0,-173.0,6.237
-85.0,-176.0,6.238
-99.0,-187.0,6.239
-97.0,-235.0,6.24
-80.0,-273.0,6.241
-63.0,-256.0,6.242
-54.0,-216.0,6.243
-55.0,-182.0,6.244
-57.0,-121.0,6.245
-49.0,-9.0,6.246
-24.0,98.0,6.247
17.0,131.0,6.248
58.0,109.0,6.249
75.0,110.0,6.25
60.0,168.0,6.251
32.0,241.0,6.252
11.0,264.0,6.253
-2.0,194.0,6.254
-15.0,46.0,6.255
-25.0,-101.0,6.256
-24.0,-163.0,6.257
-13.0,-142.0,6.258
-2.0,-106.0,6.259
3.0,-106.0,6.26
13.0,-126.0,6.261
35.0,-132.0,6.262
70.0,-138.0,6.263
100.0,-146.0,6.264
100.0,-101.0,6.265
63.0,17.0,6.266
15.0,121.0,6.267
-17.0,128.0,6.268
-31.0,82.0,6.269
-47.0,75.0,6.27
-69.0,95.0,6.271
-83.0,86.0,6.272
-78.0,72.0,6.273
-67.0,122.0,6.274
-60.0,201.0,6.275
-56.0,203.0,6.276
-49.0,133.0,6.277
-29.0,74.0,6.278
1.0,63.0,6.279
28.0,25.0,6.28
42.0,-80.0,6.281
59.0,-176.0,6.282
80.0,-186.0,6.283
101.0,-116.0,6.284
117.0,-9.0,6.285
127.0,94.0,6.286
121.0,147.0,6.287
103.0,114.0,6.288
48.0,23.0,6.289
-4.0,-55.0,6.29
-45.0,-102.0,6.291
-82.0,-147.0,6.292
-109.0,-192.0,6.293
-132.0,-212.0,6.294
-140.0,-211.0,6.295
-133.0,-211.0,6.296
-78.0,-190.0,6.297
-19.0,-126.0,6.298
37.0,-54.0,6.299
65.0,0.0,6.3
58.0,-1.0,6.301
36.0,5.0,6.302
25.0,39.0,6.303
23.0,65.0,6.304
0.0,67.0,6.305
-51.0,74.0,6.306
-95.0,94.0,6.307
-108.0,113.0,6.308
-96.0,132.0,6.309
-64.0,152.0,6.31
-18.0,173.0,6.311
20.0,182.0,6.312
31.0,150.0,6.313
26.0,122.0,6.314
28.0,105.0,6.315
35.0,78.0,6.316
34.0,21.0,6.317
14.0,-35.0,6.318
9.0,-81.0,6.319
1.0,-113.0,6.32
-11.0,-115.0,6.321
-19.0,-70.0,6.322
-1.0,-8.0,6.323
9.0,34.0,6.324
-1.0,66.0,6.325
-8.0,98.0,6.326
-3.0,100.0,6.327
-1.0,59.0,6.328
-8.0,15.0,6.329
-16.0,14.0,6.33
-21.0,17.0,6.331
-24.0,-36.0,6.332
-8.0,-127.0,6.333
6.0,-186.0,6.334
24.0,-190.0,6.335
35.0,-167.0,6.336
9.0,-140.0,6.337
5.0,-104.0,6.338
3.0,-79.0,6.339
0.0,-87.0,6.34
-5.0,-110.0,6.341
-8.0,-96.0,6.342
-1.0,-49.0,6.343
3.0,-15.0,6.344
-1.0,-13.0,6.345
-4.0,-23.0,6.346
-2.0,-30.0,6.347
-1.0,-40.0,6.348
-4.0,-49.0,6.349
-7.0,-38.0,6.35
-9.0,0.0,6.351
-10.0,56.0,6.352
-4.0,123.0,6.353
2.0,191.0,6.354
9.0,224.0,6.355
13.0,210.0,6.356
3.0,177.0,6.357
-6.0,148.0,6.358
-14.0,106.0,6.359
-15.0,63.0,6.36
-14.0,16.0,6.361
-11.0,-19.0,6.362
-3.0,-13.0,6.363
3.0,-15.0,6.364
2.0,-39.0,6.365
-3.0,-55.0,6.366
-6.0,-41.0,6.367
-5.0,-22.0,6.368
-3.0,11.0,6.369
-3.0,23.0,6.37
-1.0,-34.0,6.371
-1.0,-80.0,6.372
-3.0,-92.0,6.373
-5.0,-99.0,6.374
-6.0,-92.0,6.375
-5.0,-81.0,6.376
-4.0,-58.0,6.377
-6.0,-23.0,6.378
-2.0,25.0,6.379
3.0,33.0,6.38
15.0,31.0,6.381
32.0,49.0,6.382
51.0,57.0,6.383
64.0,34.0,6.384
59.0,14.0,6.385
44.0,26.0,6.386
29.0,40.0,6.387
12.0,28.0,6.388
-17.0,10.0,6.389
-56.0,16.0,6.39
-85.0,30.0,6.391
-73.0,24.0,6.392
-18.0,13.0,6.393
54.0,10.0,6.394
111.0,-5.0,6.395
141.0,-37.0,6.396
150.0,-46.0,6.397
122.0,-2.0,6.398
43.0,70.0,6.399
-61.0,116.0,6.4
-138.0,122.0,6.401
-170.0,116.0,6.402
-187.0,105.0,6.403
-198.0,66.0,6.404
-173.0,6.0,6.405
-105.0,-36.0,6.406
-41.0,-28.0,6.407
-22.0,15.0,6.408
-27.0,57.0,6.409
-24.0,71.0,6.41
4.0,50.0,6.411
53.0,-17.0,6.412
115.0,-133.0,6.413
152.0,-261.0,6.414
130.0,-335.0,6.415
81.0,-320.0,6.416
72.0,-262.0,6.417
112.0,-224.0,6.418
145.0,-210.0,6.419
108.0,-164.0,6.42
17.0,-65.0,6.421
-70.0,41.0,6.422
-100.0,94.0,6.423
-57.0,103.0,6.424
9.0,108.0,6.425
12.0,118.0,6.426
-72.0,122.0,6.427
-158.0,133.0,6.428
-143.0,165.0,6.429
-38.0,208.0,6.43
38.0,225.0,6.431
8.0,199.0,6.432
-55.0,148.0,6.433
-17.0,103.0,6.434
131.0,80.0,6.435
248.0,72.0,6.436
223.0,44.0,6.437
96.0,-37.0,6.438
7.0,-136.0,6.439
-24.0,-177.0,6.44
-89.0,-134.0,6.441
-201.0,-80.0,6.442
-243.0,-94.0,6.443
-169.0,-162.0,6.444
-84.0,-192.0,6.445
-65.0,-148.0,6.446
-38.0,-81.0,6.447
64.0,-47.0,6.448
167.0,-38.0,6.449
192.0,-22.0,6.45
187.0,8.0,6.451
195.0,44.0,6.452
119.0,79.0,6.453
-93.0,99.0,6.454
-280.0,84.0,6.455
-245.0,47.0,6.456
-56.0,23.0,6.457
93.0,18.0,6.458
108.0,17.0,6.459
72.0,10.0,6.46
70.0,10.0,6.461
69.0,32.0,6.462
37.0,58.0,6.463
-9.0,69.0,6.464
-30.0,68.0,6.465
-2.0,71.0,6.466
89.0,91.0,6.467
177.0,124.0,6.468
156.0,141.0,6.469
36.0,107.0,6.47
-43.0,28.0,6.471
-30.0,-37.0,6.472
-42.0,-68.0,6.473
-144.0,-98.0,6.474
-211.0,-162.0,6.475
-145.0,-215.0,6.476
-50.0,-197.0,6.477
6.0,-117.0,6.478
-16.0,-38.0,6.479
-29.0,2.0,6.48
-10.0,23.0,6.481
14.0,39.0,6.482
53.0,36.0,6.483
86.0,15.0,6.484
99.0,-2.0,6.485
110.0,-3.0,6.486
112.0,-1.0,6.487
100.0,1.0,6.488
42.0,9.0,6.489
-15.0,23.0,6.49
-76.0,35.0,6.491
-118.0,43.0,6.492
-95.0,52.0,6.493
-74.0,47.0,6.494
-54.0,23.0,6.495
-44.0,-3.0,6.496
-66.0,-9.0,6.497
11.0,-6.0,6.498
-34.0,-9.0,6.499
-59.0,-11.0,6.5
-21.0,-13.0,6.501
27.0,-15.0,6.502
105.0,-14.0,6.503
171.0,-10.0,6.504
197.0,0.0,6.505
218.0,8.0,6.506
222.0,13.0,6.507
198.0,20.0,6.508
84.0,29.0,6.509
-31.0,37.0,6.51
-153.0,36.0,6.511
-235.0,33.0,6.512
-191.0,22.0,6.513
-148.0,14.0,6.514
-109.0,10.0,6.515
-90.0,8.0,6.516
-132.0,13.0,6.517
-148.0,-18.0,6.518
-71.0,-22.0,6.519
-41.0,-26.0,6.52
-63.0,-30.0,6.521
-39.0,-33.0,6.522
55.0,-31.0,6.523
115.0,-25.0,6.524
94.0,-7.0,6.525
62.0,9.0,6.526
72.0,18.0,6.527
86.0,30.0,6.528
72.0,46.0,6.529
53.0,59.0,6.53
35.0,58.0,6.531
-2.0,52.0,6.532
-42.0,34.0,6.533
-37.0,19.0,6.534
8.0,12.0,6.535
38.0,9.0,6.536
38.0,17.0,6.537
34.0,19.0,6.538
35.0,-4.0,6.539
20.0,-23.0,6.54
-9.0,-31.0,6.541
-18.0,-35.0,6.542
0.0,-38.0,6.543
9.0,-21.0,6.544
-23.0,6.0,6.545
-81.0,15.0,6.546
-123.0,-1.0,6.547
-105.0,-14.0,6.548
-9.0,-3.0,6.549
131.0,12.0,6.55
228.0,6.0,6.551
216.0,-9.0,6.552
113.0,-11.0,6.553
2.0,-2.0,6.554
-60.0,3.0,6.555
-86.0,1.0,6.556
-113.0,0.0,6.557
-144.0,2.0,6.558
-124.0,3.0,6.559
-35.0,5.0,6.56
62.0,5.0,6.561
97.0,7.0,6.562
89.0,13.0,6.563
84.0,16.0,6.564
61.0,4.0,6.565
-8.0,-8.0,6.566
-60.0,-23.0,6.567
-28.0,-37.0,6.568
37.0,-47.0,6.569
39.0,-55.0,6.57
-17.0,-57.0,6.571
-70.0,-49.0,6.572
-108.0,-9.0,6.573
-142.0,21.0,6.574
-129.0,24.0,6.575
-40.0,30.0,6.576
52.0,43.0,6.577
68.0,54.0,6.578
33.0,47.0,6.579
24.0,18.0,6.58
44.0,1.0,6.581
39.0,13.0,6.582
7.0,25.0,6.583
-2.0,20.0,6.584
12.0,15.0,6.585
16.0,21.0,6.586
5.0,19.0,6.587
12.0,1.0,6.588
33.0,-10.0,6.589
41.0,-4.0,6.59
39.0,0.0,6.591
41.0,-10.0,6.592
36.0,-20.0,6.593
-6.0,-14.0,6.594
-68.0,-1.0,6.595
-88.0,3.0,6.596
-45.0,7.0,6.597
6.0,14.0,6.598
4.0,15.0,6.599
-41.0,0.0,6.6
-56.0,-17.0,6.601
-12.0,-14.0,6.602
36.0,-2.0,6.603
49.0,0.0,6.604
42.0,-6.0,6.605
34.0,-9.0,6.606
6.0,-6.0,6.607
-55.0,-6.0,6.608
-112.0,-9.0,6.609
-102.0,-8.0,6.61
-5.0,-4.0,6.611
125.0,0.0,6.612
202.0,1.0,6.613
184.0,6.0,6.614
115.0,11.0,6.615
46.0,5.0,6.616
-22.0,-12.0,6.617
-113.0,-26.0,6.618
-166.0,-23.0,6.619
-111.0,-10.0,6.62
-5.0,-5.0,6.621
36.0,6.0,6.622
0.0,35.0,6.623
-9.0,80.0,6.624
58.0,109.0,6.625
130.0,104.0,6.626
136.0,72.0,6.627
88.0,32.0,6.628
29.0,-9.0,6.629
-19.0,-57.0,6.63
-42.0,-110.0,6.631
-34.0,-149.0,6.632
-23.0,-160.0,6.633
-38.0,-145.0,6.634
-65.0,-119.0,6.635
-68.0,-87.0,6.636
-53.0,-50.0,6.637
-40.0,-12.0,6.638
-17.0,13.0,6.639
28.0,20.0,6.64
64.0,16.0,6.641
48.0,24.0,6.642
2.0,33.0,6.643
-21.0,33.0,6.644
-15.0,25.0,6.645
-12.0,24.0,6.646
-9.0,35.0,6.647
15.0,40.0,6.648
41.0,32.0,6.649
36.0,18.0,6.65
14.0,11.0,6.651
14.0,13.0,6.652
31.0,21.0,6.653
27.0,34.0,6.654
-10.0,47.0,6.655
-54.0,48.0,6.656
-76.0,36.0,6.657
-64.0,14.0,6.658
-28.0,3.0,6.659
0.0,3.0,6.66
-1.0,-1.0,6.661
-17.0,-8.0,6.662
-18.0,-12.0,6.663
-21.0,-3.0,6.664
-64.0,11.0,6.665
-116.0,18.0,6.666
-108.0,15.0,6.667
-27.0,9.0,6.668
68.0,5.0,6.669
148.0,2.0,6.67
219.0,-1.0,6.671
250.0,-7.0,6.672
182.0,-15.0,6.673
41.0,-24.0,6.674
-62.0,-30.0,6.675
-71.0,-27.0,6.676
-43.0,-20.0,6.677
-40.0,-14.0,6.678
-49.0,-11.0,6.679
-50.0,-6.0,6.68
-27.0,-2.0,6.681
-8.0,4.0,6.682
-5.0,4.0,6.683
-2.0,1.0,6.684
-4.0,3.0,6.685
-4.0,9.0,6.686
6.0,7.0,6.687
13.0,-1.0,6.688
5.0,-10.0,6.689
0.0,-14.0,6.69
1.0,-14.0,6.691
3.0,-6.0,6.692
-2.0,7.0,6.693
-6.0,20.0,6.694
-7.0,27.0,6.695
-9.0,29.0,6.696
-14.0,30.0,6.697
-17.0,27.0,6.698
-11.0,21.0,6.699
-5.0,13.0,6.7
2.0,3.0,6.701
18.0,-4.0,6.702
36.0,-1.0,6.703
39.0,3.0,6.704
32.0,9.0,6.705
26.0,16.0,6.706
19.0,25.0,6.707
4.0,32.0,6.708
-3.0,32.0,6.709
10.0,30.0,6.71
31.0,22.0,6.711
37.0,10.0,6.712
21.0,-7.0,6.713
-2.0,-29.0,6.714
-23.0,-62.0,6.715
-42.0,-87.0,6.716
-49.0,-81.0,6.717
-40.0,-67.0,6.718
-29.0,-22.0,6.719
-28.0,25.0,6.72
-26.0,66.0,6.721
-12.0,104.0,6.722
9.0,128.0,6.723
18.0,122.0,6.724
14.0,90.0,6.725
12.0,44.0,6.726
10.0,-5.0,6.727
5.0,-57.0,6.728
-2.0,-115.0,6.729
1.0,-177.0,6.73
13.0,-232.0,6.731
22.0,-263.0,6.732
25.0,-250.0,6.733
21.0,-199.0,6.734
17.0,-124.0,6.735
9.0,-50.0,6.736
-1.0,6.0,6.737
-7.0,41.0,6.738
-9.0,60.0,6.739
-10.0,79.0,6.74
-7.0,99.0,6.741
-1.0,118.0,6.742
8.0,121.0,6.743
16.0,111.0,6.744
16.0,98.0,6.745
15.0,89.0,6.746
10.0,77.0,6.747
6.0,59.0,6.748
5.0,35.0,6.749
6.0,5.0,6.75
16.0,-30.0,6.751
26.0,-65.0,6.752
30.0,-87.0,6.753
32.0,-82.0,6.754
30.0,-51.0,6.755
28.0,-11.0,6.756
23.0,17.0,6.757
19.0,27.0,6.758
20.0,27.0,6.759
12.0,26.0,6.76
-17.0,19.0,6.761
-56.0,13.0,6.762
-67.0,11.0,6.763
-46.0,11.0,6.764
-26.0,18.0,6.765
-37.0,24.0,6.766
-59.0,23.0,6.767
-56.0,21.0,6.768
-37.0,19.0,6.769
-34.0,17.0,6.77
-50.0,11.0,6.771
-47.0,7.0,6.772
-15.0,7.0,6.773
16.0,13.0,6.774
23.0,35.0,6.775
19.0,64.0,6.776
27.0,108.0,6.777
38.0,153.0,6.778
39.0,184.0,6.779
27.0,189.0,6.78
23.0,166.0,6.781
32.0,134.0,6.782
44.0,102.0,6.783
47.0,64.0,6.784
41.0,11.0,6.785
30.0,-70.0,6.786
17.0,-187.0,6.787
12.0,-327.0,6.788
13.0,-440.0,6.789
13.0,-474.0,6.79
8.0,-415.0,6.791
0.0,-303.0,6.792
-4.0,-181.0,6.793
-6.0,-67.0,6.794
-7.0,25.0,6.795
-4.0,88.0,6.796
1.0,120.0,6.797
4.0,140.0,6.798
0.0,163.0,6.799
-5.0,180.0,6.8
-8.0,175.0,6.801
-8.0,165.0,6.802
-3.0,141.0,6.803
5.0,112.0,6.804
5.0,72.0,6.805
0.0,27.0,6.806
-3.0,-34.0,6.807
-2.0,-87.0,6.808
-3.0,-117.0,6.809
-6.0,-141.0,6.81
-13.0,-141.0,6.811
-14.0,-133.0,6.812
-7.0,-103.0,6.813
10.0,-64.0,6.814
30.0,3.0,6.815
44.0,55.0,6.816
43.0,59.0,6.817
30.0,63.0,6.818
17.0,72.0,6.819
10.0,90.0,6.82
7.0,96.0,6.821
6.0,90.0,6.822
9.0,80.0,6.823
13.0,68.0,6.824
11.0,57.0,6.825
4.0,49.0,6.826
2.0,47.0,6.827
5.0,45.0,6.828
2.0,41.0,6.829
-10.0,38.0,6.83
-23.0,34.0,6.831
-28.0,23.0,6.832
-28.0,-3.0,6.833
-28.0,-35.0,6.834
-23.0,-61.0,6.835
-14.0,-70.0,6.836
-5.0,-59.0,6.837
-5.0,-40.0,6.838
-9.0,-23.0,6.839
-12.0,-16.0,6.84
-13.0,-19.0,6.841
-11.0,-21.0,6.842
-4.0,-18.0,6.843
5.0,-11.0,6.844
10.0,-4.0,6.845
9.0,2.0,6.846
9.0,6.0,6.847
11.0,5.0,6.848
11.0,10.0,6.849
10.0,18.0,6.85
10.0,22.0,6.851
12.0,20.0,6.852
12.0,15.0,6.853
9.0,14.0,6.854
6.0,12.0,6.855
5.0,7.0,6.856
2.0,3.0,6.857
-2.0,1.0,6.858
-8.0,0.0,6.859
-15.0,-2.0,6.86
-17.0,-1.0,6.861
-8.0,0.0,6.862
10.0,0.0,6.863
22.0,0.0,6.864
21.0,-2.0,6.865
18.0,-5.0,6.866
15.0,-9.0,6.867
15.0,-12.0,6.868
7.0,-14.0,6.869
-1.0,-16.0,6.87
0.0,-14.0,6.871
7.0,-12.0,6.872
11.0,-8.0,6.873
10.0,-3.0,6.874
9.0,2.0,6.875
10.0,7.0,6.876
8.0,11.0,6.877
0.0,13.0,6.878
-3.0,3.0,6.879
-6.0,-12.0,6.88
-8.0,-17.0,6.881
-5.0,-10.0,6.882
8.0,-6.0,6.883
22.0,-7.0,6.884
22.0,-9.0,6.885
9.0,-8.0,6.886
0.0,-8.0,6.887
3.0,-10.0,6.888
2.0,-12.0,6.889
-8.0,-12.0,6.89
-20.0,-14.0,6.891
-24.0,-16.0,6.892
-23.0,-12.0,6.893
-23.0,-5.0,6.894
-20.0,0.0,6.895
-14.0,0.0,6.896
-8.0,-2.0,6.897
-6.0,-1.0,6.898
-7.0,-2.0,6.899
-9.0,-6.0,6.9
-10.0,-16.0,6.901
-5.0,-23.0,6.902
7.0,-25.0,6.903
21.0,-22.0,6.904
22.0,-10.0,6.905
10.0,7.0,6.906
0.0,18.0,6.907
4.0,15.0,6.908
14.0,6.0,6.909
19.0,-7.0,6.91
27.0,-24.0,6.911
36.0,-40.0,6.912
41.0,-39.0,6.913
37.0,-16.0,6.914
31.0,13.0,6.915
24.0,31.0,6.916
16.0,30.0,6.917
-2.0,16.0,6.918
-16.0,0.0,6.919
-19.0,-15.0,6.92
-17.0,-28.0,6.921
-12.0,-27.0,6.922
-3.0,-11.0,6.923
9.0,10.0,6.924
12.0,34.0,6.925
4.0,53.0,6.926
-2.0,60.0,6.927
-3.0,49.0,6.928
-6.0,30.0,6.929
-12.0,21.0,6.93
-17.0,26.0,6.931
-14.0,32.0,6.932
-14.0,34.0,6.933
-18.0,41.0,6.934
-21.0,51.0,6.935
-19.0,48.0,6.936
-12.0,24.0,6.937
-4.0,-18.0,6.938
6.0,-52.0,6.939
12.0,-64.0,6.94
14.0,-49.0,6.941
14.0,-12.0,6.942
21.0,28.0,6.943
33.0,39.0,6.944
34.0,11.0,6.945
21.0,-16.0,6.946
6.0,8.0,6.947
0.0,84.0,6.948
0.0,139.0,6.949
-4.0,114.0,6.95
-8.0,27.0,6.951
-5.0,-54.0,6.952
-2.0,-101.0,6.953
-1.0,-138.0,6.954
0.0,-176.0,6.955
7.0,-185.0,6.956
16.0,-143.0,6.957
18.0,-91.0,6.958
14.0,-78.0,6.959
5.0,-64.0,6.96
-1.0,-47.0,6.961
-1.0,-15.0,6.962
5.0,62.0,6.963
11.0,115.0,6.964
8.0,96.0,6.965
3.0,80.0,6.966
2.0,76.0,6.967
2.0,58.0,6.968
-2.0,0.0,6.969
-9.0,-53.0,6.97
-6.0,-88.0,6.971
2.0,-115.0,6.972
7.0,-116.0,6.973
2.0,-109.0,6.974
3.0,-72.0,6.975
16.0,-33.0,6.976
23.0,12.0,6.977
1.0,62.0,6.978
-32.0,118.0,6.979
-42.0,146.0,6.98
-17.0,121.0,6.981
22.0,84.0,6.982
51.0,84.0,6.983
59.0,125.0,6.984
45.0,168.0,6.985
17.0,180.0,6.986
1.0,145.0,6.987
11.0,70.0,6.988
25.0,-13.0,6.989
19.0,-64.0,6.99
-8.0,-81.0,6.991
-34.0,-95.0,6.992
-48.0,-115.0,6.993
-45.0,-122.0,6.994
-35.0,-113.0,6.995
-38.0,-101.0,6.996
-62.0,-92.0,6.997
-87.0,-83.0,6.998
-75.0,-79.0,6.999
-34.0,-78.0,7.0
-10.0,-54.0,7.001
-15.0,12.0,7.002
-14.0,79.0,7.003
7.0,105.0,7.004
19.0,103.0,7.005
7.0,113.0,7.006
0.0,110.0,7.007
15.0,61.0,7.008
36.0,-9.0,7.009
49.0,-44.0,7.01
64.0,-34.0,7.011
73.0,-13.0,7.012
54.0,8.0,7.013
14.0,33.0,7.014
5.0,49.0,7.015
42.0,57.0,7.016
84.0,84.0,7.017
95.0,132.0,7.018
74.0,147.0,7.019
39.0,100.0,7.02
9.0,37.0,7.021
-1.0,17.0,7.022
21.0,27.0,7.023
48.0,40.0,7.024
32.0,67.0,7.025
-38.0,82.0,7.026
-112.0,12.0,7.027
-123.0,-146.0,7.028
-77.0,-274.0,7.029
-47.0,-292.0,7.03
-78.0,-266.0,7.031
-130.0,-280.0,7.032
-134.0,-297.0,7.033
-79.0,-238.0,7.034
-22.0,-138.0,7.035
0.0,-65.0,7.036
5.0,0.0,7.037
20.0,117.0,7.038
38.0,243.0,7.039
38.0,263.0,7.04
33.0,168.0,7.041
45.0,80.0,7.042
76.0,89.0,7.043
94.0,167.0,7.044
86.0,265.0,7.045
71.0,353.0,7.046
67.0,373.0,7.047
61.0,242.0,7.048
48.0,-35.0,7.049
32.0,-318.0,7.05
23.0,-460.0,7.051
19.0,-454.0,7.052
20.0,-395.0,7.053
33.0,-345.0,7.054
51.0,-288.0,7.055
56.0,-201.0,7.056
47.0,-97.0,7.057
31.0,13.0,7.058
17.0,121.0,7.059
-5.0,192.0,7.06
-42.0,184.0,7.061
-91.0,117.0,7.062
-131.0,53.0,7.063
-150.0,42.0,7.064
-137.0,73.0,7.065
-94.0,115.0,7.066
-43.0,170.0,7.067
-11.0,230.0,7.068
0.0,252.0,7.069
10.0,187.0,7.07
34.0,43.0,7.071
60.0,-123.0,7.072
76.0,-241.0,7.073
84.0,-245.0,7.074
98.0,-85.0,7.075
118.0,235.0,7.076
138.0,579.0,7.077
134.0,771.0,7.078
89.0,644.0,7.079
6.0,235.0,7.08
-68.0,-229.0,7.081
-92.0,-549.0,7.082
-56.0,-705.0,7.083
-2.0,-768.0,7.084
23.0,-738.0,7.085
9.0,-586.0,7.086
-14.0,-362.0,7.087
-38.0,-154.0,7.088
-112.0,15.0,7.089
-261.0,178.0,7.09
-378.0,321.0,7.091
-311.0,416.0,7.092
-71.0,478.0,7.093
128.0,493.0,7.094
145.0,390.0,7.095
71.0,184.0,7.096
43.0,48.0,7.097
25.0,103.0,7.098
-79.0,256.0,7.099
-211.0,285.0,7.1
-197.0,110.0,7.101
-29.0,-133.0,7.102
130.0,-331.0,7.103
193.0,-473.0,7.104
227.0,-556.0,7.105
265.0,-530.0,7.106
236.0,-376.0,7.107
137.0,-123.0,7.108
81.0,201.0,7.109
125.0,517.0,7.11
162.0,651.0,7.111
96.0,488.0,7.112
-10.0,168.0,7.113
-56.0,-80.0,7.114
-54.0,-242.0,7.115
-79.0,-439.0,7.116
-122.0,-619.0,7.117
-126.0,-615.0,7.118
-77.0,-428.0,7.119
-33.0,-287.0,7.12
-29.0,-299.0,7.121
-27.0,-308.0,7.122
-2.0,-204.0,7.123
22.0,-43.0,7.124
17.0,199.0,7.125
-2.0,630.0,7.126
-1.0,1096.0,7.127
14.0,1198.0,7.128
16.0,797.0,7.129
-1.0,242.0,7.13
-17.0,-109.0,7.131
-24.0,-300.0,7.132
-30.0,-516.0,7.133
-36.0,-689.0,7.134
-35.0,-660.0,7.135
-15.0,-477.0,7.136
13.0,-306.0,7.137
44.0,-137.0,7.138
66.0,84.0,7.139
74.0,289.0,7.14
68.0,379.0,7.141
51.0,416.0,7.142
35.0,499.0,7.143
30.0,567.0,7.144
33.0,511.0,7.145
24.0,388.0,7.146
0.0,316.0,7.147
-19.0,242.0,7.148
-11.0,45.0,7.149
11.0,-220.0,7.15
24.0,-377.0,7.151
18.0,-392.0,7.152
6.0,-383.0,7.153
1.0,-392.0,7.154
0.0,-345.0,7.155
-6.0,-247.0,7.156
-19.0,-207.0,7.157
-41.0,-278.0,7.158
-63.0,-374.0,7.159
-76.0,-399.0,7.16
-69.0,-359.0,7.161
-44.0,-278.0,7.162
-12.0,-159.0,7.163
16.0,-8.0,7.164
26.0,136.0,7.165
14.0,249.0,7.166
-11.0,313.0,7.167
-21.0,302.0,7.168
-2.0,227.0,7.169
31.0,161.0,7.17
45.0,159.0,7.171
35.0,186.0,7.172
16.0,184.0,7.173
-7.0,170.0,7.174
-43.0,182.0,7.175
-91.0,207.0,7.176
-124.0,210.0,7.177
-129.0,207.0,7.178
-110.0,231.0,7.179
-81.0,259.0,7.18
-56.0,245.0,7.181
-30.0,205.0,7.182
1.0,173.0,7.183
35.0,149.0,7.184
54.0,114.0,7.185
54.0,68.0,7.186
52.0,1.0,7.187
63.0,-110.0,7.188
69.0,-240.0,7.189
52.0,-302.0,7.19
30.0,-265.0,7.191
34.0,-198.0,7.192
54.0,-160.0,7.193
58.0,-104.0,7.194
40.0,21.0,7.195
24.0,138.0,7.196
19.0,115.0,7.197
16.0,-81.0,7.198
17.0,-304.0,7.199
30.0,-403.0,7.2
50.0,-396.0,7.201
62.0,-404.0,7.202
59.0,-465.0,7.203
47.0,-491.0,7.204
28.0,-405.0,7.205
9.0,-246.0,7.206
9.0,-107.0,7.207
23.0,-6.0,7.208
28.0,102.0,7.209
8.0,210.0,7.21
-18.0,247.0,7.211
-38.0,198.0,7.212
-52.0,161.0,7.213
-68.0,233.0,7.214
-74.0,358.0,7.215
-59.0,385.0,7.216
-34.0,276.0,7.217
-17.0,110.0,7.218
-27.0,17.0,7.219
-66.0,3.0,7.22
-101.0,-8.0,7.221
-94.0,-40.0,7.222
-43.0,-54.0,7.223
15.0,-46.0,7.224
54.0,-53.0,7.225
95.0,-84.0,7.226
144.0,-91.0,7.227
165.0,-59.0,7.228
133.0,-29.0,7.229
76.0,-31.0,7.23
39.0,-41.0,7.231
19.0,-30.0,7.232
-10.0,-20.0,7.233
-41.0,-38.0,7.234
-53.0,-68.0,7.235
-51.0,-77.0,7.236
-54.0,-71.0,7.237
-73.0,-86.0,7.238
-86.0,-115.0,7.239
-87.0,-119.0,7.24
-69.0,-87.0,7.241
-37.0,-39.0,7.242
-7.0,4.0,7.243
2.0,57.0,7.244
-3.0,119.0,7.245
6.0,167.0,7.246
35.0,184.0,7.247
60.0,194.0,7.248
63.0,219.0,7.249
60.0,259.0,7.25
58.0,302.0,7.251
46.0,338.0,7.252
17.0,356.0,7.253
-14.0,353.0,7.254
-34.0,325.0,7.255
-46.0,267.0,7.256
-55.0,193.0,7.257
-54.0,123.0,7.258
-25.0,90.0,7.259
21.0,59.0,7.26
59.0,-25.0,7.261
66.0,-132.0,7.262
52.0,-166.0,7.263
39.0,-107.0,7.264
28.0,-68.0,7.265
7.0,-143.0,7.266
-21.0,-269.0,7.267
-33.0,-306.0,7.268
-22.0,-211.0,7.269
-5.0,-67.0,7.27
3.0,7.0,7.271
11.0,-19.0,7.272
24.0,-74.0,7.273
38.0,-44.0,7.274
42.0,60.0,7.275
37.0,54.0,7.276
30.0,-189.0,7.277
19.0,-586.0,7.278
8.0,-816.0,7.279
10.0,-722.0,7.28
30.0,-476.0,7.281
48.0,-295.0,7.282
46.0,-182.0,7.283
26.0,-36.0,7.284
1.0,128.0,7.285
-28.0,223.0,7.286
-71.0,246.0,7.287
-116.0,267.0,7.288
-145.0,296.0,7.289
-145.0,296.0,7.29
-121.0,263.0,7.291
-86.0,217.0,7.292
-51.0,155.0,7.293
-26.0,75.0,7.294
-11.0,8.0,7.295
3.0,-20.0,7.296
25.0,-24.0,7.297
51.0,-30.0,7.298
73.0,-19.0,7.299
83.0,29.0,7.3
80.0,92.0,7.301
66.0,135.0,7.302
55.0,152.0,7.303
53.0,176.0,7.304
53.0,220.0,7.305
43.0,252.0,7.306
26.0,223.0,7.307
18.0,128.0,7.308
17.0,21.0,7.309
8.0,-29.0,7.31
-15.0,-22.0,7.311
-36.0,-23.0,7.312
-43.0,-74.0,7.313
-39.0,-145.0,7.314
-30.0,-186.0,7.315
-10.0,-191.0,7.316
23.0,-179.0,7.317
53.0,-159.0,7.318
74.0,-127.0,7.319
92.0,-90.0,7.32
100.0,-62.0,7.321
101.0,-29.0,7.322
82.0,21.0,7.323
57.0,72.0,7.324
19.0,92.0,7.325
-16.0,76.0,7.326
-42.0,52.0,7.327
-64.0,45.0,7.328
-73.0,47.0,7.329
-78.0,40.0,7.33
-72.0,28.0,7.331
-61.0,21.0,7.332
-35.0,8.0,7.333
-12.0,-27.0,7.334
1.0,-77.0,7.335
8.0,-101.0,7.336
-5.0,-77.0,7.337
-13.0,-19.0,7.338
4.0,42.0,7.339
8.0,93.0,7.34
-15.0,109.0,7.341
-41.0,118.0,7.342
-39.0,107.0,7.343
-17.0,87.0,7.344
-4.0,39.0,7.345
-9.0,-18.0,7.346
-15.0,-103.0,7.347
-15.0,-156.0,7.348
-23.0,-113.0,7.349
-47.0,-70.0,7.35
-66.0,-26.0,7.351
-56.0,1.0,7.352
-27.0,-27.0,7.353
-11.0,-52.0,7.354
-15.0,-70.0,7.355
-12.0,-84.0,7.356
14.0,-86.0,7.357
49.0,-82.0,7.358
62.0,-60.0,7.359
54.0,-60.0,7.36
50.0,-106.0,7.361
60.0,-184.0,7.362
70.0,-261.0,7.363
65.0,-288.0,7.364
50.0,-233.0,7.365
32.0,-112.0,7.366
20.0,5.0,7.367
21.0,56.0,7.368
35.0,37.0,7.369
50.0,1.0,7.37
57.0,22.0,7.371
49.0,134.0,7.372
33.0,307.0,7.373
17.0,457.0,7.374
2.0,506.0,7.375
-13.0,449.0,7.376
-34.0,340.0,7.377
-58.0,215.0,7.378
-64.0,117.0,7.379
-52.0,66.0,7.38
-40.0,56.0,7.381
-45.0,58.0,7.382
-61.0,41.0,7.383
-65.0,16.0,7.384
-52.0,-4.0,7.385
-35.0,-33.0,7.386
-20.0,-89.0,7.387
-7.0,-161.0,7.388
5.0,-207.0,7.389
17.0,-208.0,7.39
33.0,-177.0,7.391
55.0,-145.0,7.392
69.0,-120.0,7.393
67.0,-96.0,7.394
58.0,-70.0,7.395
59.0,-52.0,7.396
66.0,-47.0,7.397
60.0,-45.0,7.398
38.0,-34.0,7.399
13.0,-41.0,7.4
1.0,-93.0,7.401
1.0,-158.0,7.402
-2.0,-193.0,7.403
-20.0,-198.0,7.404
-52.0,-198.0,7.405
-83.0,-180.0,7.406
-93.0,-110.0,7.407
-74.0,2.0,7.408
-38.0,88.0,7.409
-9.0,117.0,7.41
5.0,135.0,7.411
11.0,195.0,7.412
18.0,285.0,7.413
23.0,335.0,7.414
19.0,311.0,7.415
13.0,240.0,7.416
15.0,175.0,7.417
15.0,117.0,7.418
4.0,52.0,7.419
-9.0,-20.0,7.42
-7.0,-77.0,7.421
16.0,-108.0,7.422
44.0,-125.0,7.423
57.0,-128.0,7.424
56.0,-97.0,7.425
46.0,-48.0,7.426
22.0,-31.0,7.427
-19.0,-50.0,7.428
-77.0,-48.0,7.429
-115.0,10.0,7.43
-94.0,90.0,7.431
-17.0,142.0,7.432
56.0,157.0,7.433
67.0,152.0,7.434
27.0,130.0,7.435
-5.0,87.0,7.436
-3.0,25.0,7.437
4.0,-67.0,7.438
-6.0,-181.0,7.439
-17.0,-275.0,7.44
-11.0,-296.0,7.441
2.0,-232.0,7.442
6.0,-131.0,7.443
13.0,-40.0,7.444
26.0,26.0,7.445
23.0,63.0,7.446
-4.0,64.0,7.447
-28.0,46.0,7.448
-29.0,32.0,7.449
-23.0,19.0,7.45
-21.0,-25.0,7.451
-1.0,-100.0,7.452
57.0,-158.0,7.453
128.0,-151.0,7.454
166.0,-71.0,7.455
158.0,46.0,7.456
121.0,149.0,7.457
65.0,199.0,7.458
7.0,179.0,7.459
-38.0,114.0,7.46
-70.0,49.0,7.461
-105.0,5.0,7.462
-139.0,-28.0,7.463
-131.0,-71.0,7.464
-62.0,-127.0,7.465
19.0,-185.0,7.466
36.0,-207.0,7.467
-21.0,-160.0,7.468
-102.0,-70.0,7.469
-151.0,-3.0,7.47
-142.0,16.0,7.471
-72.0,22.0,7.472
31.0,38.0,7.473
114.0,55.0,7.474
141.0,82.0,7.475
134.0,156.0,7.476
130.0,259.0,7.477
118.0,322.0,7.478
73.0,316.0,7.479
9.0,282.0,7.48
-32.0,242.0,7.481
-48.0,155.0,7.482
-59.0,6.0,7.483
-57.0,-129.0,7.484
-19.0,-185.0,7.485
25.0,-196.0,7.486
23.0,-225.0,7.487
-30.0,-253.0,7.488
-80.0,-221.0,7.489
-82.0,-137.0,7.49
-45.0,-62.0,7.491
4.0,-35.0,7.492
49.0,-43.0,7.493
64.0,-47.0,7.494
32.0,-12.0,7.495
-18.0,55.0,7.496
-31.0,103.0,7.497
-2.0,85.0,7.498
19.0,40.0,7.499
0.0,30.0,7.5
-30.0,53.0,7.501
-34.0,53.0,7.502
-31.0,13.0,7.503
-31.0,-17.0,7.504
-3.0,-11.0,7.505
57.0,8.0,7.506
97.0,29.0,7.507
79.0,58.0,7.508
39.0,74.0,7.509
29.0,47.0,7.51
41.0,-8.0,7.511
31.0,-41.0,7.512
-4.0,-41.0,7.513
-40.0,-40.0,7.514
-66.0,-52.0,7.515
-76.0,-60.0,7.516
-59.0,-58.0,7.517
34.0,136.0,7.518
26.0,82.0,7.519
15.0,21.0,7.52
10.0,-61.0,7.521
6.0,-114.0,7.522
13.0,-64.0,7.523
15.0,-25.0,7.524
-2.0,-3.0,7.525
-18.0,3.0,7.526
-28.0,-17.0,7.527
-36.0,-50.0,7.528
-36.0,-100.0,7.529
-31.0,-118.0,7.53
-25.0,-39.0,7.531
-15.0,28.0,7.532
18.0,57.0,7.533
47.0,79.0,7.534
68.0,89.0,7.535
78.0,75.0,7.536
57.0,-17.0,7.537
18.0,46.0,7.538
15.0,28.0,7.539
11.0,7.0,7.54
9.0,-20.0,7.541
7.0,-39.0,7.542
10.0,-22.0,7.543
11.0,-8.0,7.544
4.0,-1.0,7.545
-2.0,1.0,7.546
-6.0,-6.0,7.547
-9.0,-17.0,7.548
-9.0,-34.0,7.549
-7.0,-40.0,7.55
-5.0,-13.0,7.551
-1.0,9.0,7.552
12.0,19.0,7.553
23.0,27.0,7.554
31.0,30.0,7.555
35.0,25.0,7.556
27.0,-6.0,7.557
16.0,38.0,7.558
