Deltoid,Bicep,Time
0,-6,0.0
0,-2,0.001
-5,0,0.002
-10,-3,0.003
-7,-6,0.004
-3,-6,0.005
-2,-1,0.006
0,0,0.007
6,-1,0.008
11,0,0.009
11,0,0.01
13,-1,0.011
17,-2,0.012
19,0,0.013
14,1,0.014
10,-2,0.015
6,-2,0.016
0,-2,0.017
-10,-3,0.018
-11,-5,0.019
-3,-6,0.02
0,-2,0.021
-9,1,0.022
-16,0,0.023
-10,-1,0.024
-1,-1,0.025
2,1,0.026
4,-1,0.027
7,-3,0.028
12,-1,0.029
15,4,0.03
18,5,0.031
18,2,0.032
16,0,0.033
10,1,0.034
7,1,0.035
3,0,0.036
-4,-5,0.037
-9,-7,0.038
-5,-5,0.039
-1,-1,0.04
-2,0,0.041
-9,2,0.042
-12,1,0.043
-7,-1,0.044
-3,0,0.045
-2,3,0.046
2,2,0.047
7,-1,0.048
8,-3,0.049
7,-1,0.05
9,2,0.051
14,3,0.052
18,3,0.053
15,1,0.054
8,0,0.055
0,-3,0.056
-5,-6,0.057
-7,-5,0.058
-5,-5,0.059
-2,-3,0.06
-2,-1,0.061
-4,3,0.062
-5,2,0.063
-5,-2,0.064
-7,-2,0.065
-4,1,0.066
2,2,0.067
8,-1,0.068
6,-3,0.069
2,0,0.07
1,5,0.071
4,5,0.072
8,4,0.073
9,0,0.074
8,-1,0.075
3,-4,0.076
-2,-6,0.077
-4,-8,0.078
2,-7,0.079
12,-5,0.08
13,-3,0.081
1,-2,0.082
-13,-2,0.083
-17,-1,0.084
-9,3,0.085
3,5,0.086
16,2,0.087
22,-1,0.088
20,-1,0.089
14,0,0.09
13,2,0.091
16,5,0.092
19,3,0.093
16,2,0.094
6,3,0.095
-5,1,0.096
-11,-3,0.097
-7,-6,0.098
2,-7,0.099
7,-4,0.1
2,2,0.101
-4,4,0.102
-3,-1,0.103
1,-6,0.104
3,-4,0.105
0,0,0.106
-4,0,0.107
-1,-4,0.108
3,-5,0.109
3,0,0.11
1,3,0.111
-3,4,0.112
-5,5,0.113
-2,3,0.114
5,-1,0.115
5,-6,0.116
-4,-11,0.117
-13,-8,0.118
-10,-4,0.119
1,-1,0.12
7,0,0.121
4,0,0.122
-3,-3,0.123
-6,-7,0.124
-6,-4,0.125
-1,1,0.126
6,5,0.127
12,3,0.128
12,0,0.129
14,0,0.13
19,3,0.131
23,5,0.132
23,8,0.133
20,7,0.134
16,3,0.135
6,-1,0.136
-5,-7,0.137
-9,-9,0.138
-5,-9,0.139
-3,-6,0.14
-8,-1,0.141
-14,0,0.142
-15,-3,0.143
-10,-6,0.144
-6,-3,0.145
-4,1,0.146
-2,0,0.147
1,-2,0.148
3,-1,0.149
5,2,0.15
14,2,0.151
22,1,0.152
24,3,0.153
13,2,0.154
7,1,0.155
0,-1,0.156
-4,-8,0.157
-5,-9,0.158
-5,-7,0.159
-3,-6,0.16
-1,-5,0.161
-1,-2,0.162
-2,-2,0.163
-1,-5,0.164
0,-6,0.165
0,-4,0.166
-2,0,0.167
-2,2,0.168
0,4,0.169
1,7,0.17
4,7,0.171
11,5,0.172
17,3,0.173
18,2,0.174
15,2,0.175
7,-1,0.176
1,-5,0.177
-1,-5,0.178
3,-2,0.179
8,-2,0.18
4,-1,0.181
-3,1,0.182
-8,1,0.183
-6,-2,0.184
-3,-4,0.185
-4,-1,0.186
-1,4,0.187
3,4,0.188
5,3,0.189
5,3,0.19
9,4,0.191
15,2,0.192
17,0,0.193
12,-1,0.194
6,0,0.195
1,0,0.196
-2,-7,0.197
-7,-9,0.198
-7,-8,0.199
-3,-4,0.2
-1,-1,0.201
-7,-2,0.202
-9,-3,0.203
-5,-4,0.204
0,-1,0.205
-1,2,0.206
-1,1,0.207
3,-2,0.208
8,-3,0.209
9,-1,0.21
12,0,0.211
17,-1,0.212
20,-1,0.213
14,-1,0.214
6,0,0.215
0,0,0.216
-1,-5,0.217
1,-8,0.218
2,-8,0.219
2,-7,0.22
-3,-4,0.221
-9,-1,0.222
-11,1,0.223
-8,1,0.224
-3,0,0.225
-3,1,0.226
-3,2,0.227
-1,1,0.228
5,0,0.229
13,1,0.23
20,4,0.231
24,5,0.232
23,4,0.233
20,1,0.234
16,1,0.235
8,0,0.236
-3,-1,0.237
-10,-4,0.238
-8,-4,0.239
-1,-2,0.24
-1,1,0.241
-7,4,0.242
-10,4,0.243
-10,5,0.244
-7,5,0.245
-3,4,0.246
5,2,0.247
8,1,0.248
2,1,0.249
-6,2,0.25
-4,4,0.251
6,5,0.252
15,3,0.253
17,1,0.254
17,1,0.255
16,-4,0.256
9,-9,0.257
0,-7,0.258
-2,-5,0.259
1,-4,0.26
-1,-5,0.261
-6,-3,0.262
-5,-2,0.263
0,-5,0.264
0,-4,0.265
-2,2,0.266
-3,6,0.267
0,3,0.268
4,0,0.269
4,0,0.27
5,0,0.271
8,0,0.272
11,0,0.273
8,1,0.274
4,1,0.275
0,-3,0.276
-6,-8,0.277
-7,-8,0.278
-4,-7,0.279
0,-6,0.28
-2,-4,0.281
-7,-2,0.282
-6,-2,0.283
-1,-3,0.284
4,-2,0.285
5,0,0.286
2,-1,0.287
2,-2,0.288
6,1,0.289
11,7,0.29
14,8,0.291
12,3,0.292
11,1,0.293
9,1,0.294
5,1,0.295
-2,-1,0.296
-6,-7,0.297
-5,-7,0.298
-1,-5,0.299
2,-4,0.3
0,-2,0.301
-2,1,0.302
-1,0,0.303
1,-4,0.304
3,-4,0.305
1,0,0.306
2,4,0.307
5,4,0.308
9,3,0.309
10,1,0.31
9,0,0.311
10,0,0.312
14,1,0.313
14,1,0.314
9,0,0.315
0,-2,0.316
-6,-4,0.317
-5,-6,0.318
0,-6,0.319
1,-5,0.32
-3,-1,0.321
-11,3,0.322
-14,3,0.323
-8,3,0.324
0,1,0.325
2,0,0.326
1,2,0.327
3,4,0.328
7,5,0.329
10,6,0.33
7,5,0.331
8,4,0.332
12,3,0.333
12,1,0.334
8,-2,0.335
1,-5,0.336
-5,-8,0.337
-8,-8,0.338
-6,-8,0.339
0,-5,0.34
1,-3,0.341
-2,-3,0.342
-5,-3,0.343
-4,-3,0.344
-1,1,0.345
0,5,0.346
2,5,0.347
8,2,0.348
12,1,0.349
10,1,0.35
7,1,0.351
7,0,0.352
9,2,0.353
5,4,0.354
0,6,0.355
-3,1,0.356
-3,-6,0.357
-3,-7,0.358
-3,-4,0.359
-1,-2,0.36
-1,-2,0.361
-2,-1,0.362
0,0,0.363
8,-2,0.364
13,-3,0.365
11,1,0.366
13,7,0.367
19,6,0.368
22,1,0.369
15,1,0.37
10,6,0.371
14,7,0.372
20,4,0.373
14,0,0.374
0,-1,0.375
-8,-1,0.376
-10,-8,0.377
-12,-9,0.378
-13,-8,0.379
-10,-6,0.38
-6,-5,0.381
-7,-2,0.382
-7,-2,0.383
-3,-3,0.384
0,-2,0.385
0,0,0.386
0,0,0.387
6,-5,0.388
11,-5,0.389
11,-1,0.39
10,3,0.391
11,6,0.392
10,9,0.393
7,6,0.394
3,-1,0.395
-1,-9,0.396
-7,-11,0.397
-10,-5,0.398
-7,-3,0.399
-6,-6,0.4
-14,-5,0.401
-25,0,0.402
-26,2,0.403
-14,-3,0.404
4,-6,0.405
18,-2,0.406
26,1,0.407
26,3,0.408
23,5,0.409
23,5,0.41
27,1,0.411
27,-1,0.412
18,2,0.413
5,6,0.414
0,6,0.415
-2,0,0.416
-5,-7,0.417
-11,-10,0.418
-9,-12,0.419
-4,-10,0.42
-4,-3,0.421
-8,1,0.422
-8,0,0.423
-5,-1,0.424
-2,2,0.425
2,4,0.426
8,0,0.427
11,-5,0.428
5,-6,0.429
-1,0,0.43
3,3,0.431
12,2,0.432
17,2,0.433
12,0,0.434
7,-3,0.435
1,-5,0.436
-5,-5,0.437
-10,-3,0.438
-5,-2,0.439
-1,-3,0.44
-4,0,0.441
-9,5,0.442
-6,4,0.443
3,-3,0.444
5,-6,0.445
0,0,0.446
-1,6,0.447
4,6,0.448
9,3,0.449
9,4,0.45
11,6,0.451
15,5,0.452
16,1,0.453
13,1,0.454
8,2,0.455
4,1,0.456
-5,-6,0.457
-11,-8,0.458
-8,-6,0.459
-2,-2,0.46
-3,-2,0.461
-10,-5,0.462
-10,-6,0.463
0,-4,0.464
4,0,0.465
2,3,0.466
0,6,0.467
6,5,0.468
11,3,0.469
9,2,0.47
4,3,0.471
6,2,0.472
8,1,0.473
8,-3,0.474
4,-3,0.475
-3,-1,0.476
-11,-2,0.477
-17,-3,0.478
-12,-4,0.479
-4,-3,0.48
-2,-2,0.481
-5,-1,0.482
-6,-2,0.483
-3,-6,0.484
-3,-6,0.485
-1,-3,0.486
6,1,0.487
15,1,0.488
15,-1,0.489
13,0,0.49
14,1,0.491
17,2,0.492
18,3,0.493
12,3,0.494
10,2,0.495
6,-2,0.496
1,-7,0.497
-3,-9,0.498
-3,-6,0.499
-1,-5,0.5
-2,-2,0.501
-6,3,0.502
-8,3,0.503
-5,-2,0.504
-2,-4,0.505
-1,2,0.506
1,6,0.507
5,4,0.508
9,2,0.509
14,4,0.51
17,8,0.511
17,4,0.512
15,-1,0.513
12,-4,0.514
8,-3,0.515
1,-1,0.516
-5,-4,0.517
-6,-7,0.518
-2,-7,0.519
1,-6,0.52
0,-3,0.521
-6,0,0.522
-7,0,0.523
-4,-4,0.524
2,-5,0.525
4,-2,0.526
4,2,0.527
5,2,0.528
9,0,0.529
12,0,0.53
10,0,0.531
5,-1,0.532
4,2,0.533
3,4,0.534
3,2,0.535
3,-5,0.536
1,-13,0.537
0,-12,0.538
0,-8,0.539
2,-4,0.54
1,0,0.541
-4,4,0.542
-10,4,0.543
-8,0,0.544
0,-5,0.545
8,-1,0.546
10,6,0.547
8,9,0.548
11,7,0.549
12,3,0.55
13,2,0.551
14,1,0.552
14,0,0.553
10,-1,0.554
1,-1,0.555
-7,-4,0.556
-13,-8,0.557
-14,-10,0.558
-8,-9,0.559
-1,-7,0.56
-1,-4,0.561
-7,-1,0.562
-11,-1,0.563
-6,0,0.564
2,0,0.565
5,2,0.566
5,2,0.567
9,1,0.568
14,1,0.569
15,4,0.57
12,4,0.571
9,1,0.572
10,2,0.573
7,0,0.574
4,-1,0.575
0,-3,0.576
-6,-4,0.577
-11,-5,0.578
-7,-1,0.579
-3,2,0.58
-5,3,0.581
-7,4,0.582
-4,2,0.583
-1,0,0.584
4,1,0.585
8,2,0.586
8,2,0.587
7,1,0.588
8,0,0.589
11,-1,0.59
15,-1,0.591
17,-1,0.592
15,0,0.593
11,1,0.594
4,-2,0.595
0,-4,0.596
-6,-8,0.597
-10,-9,0.598
-6,-9,0.599
1,-6,0.6
1,-2,0.601
-4,0,0.602
-6,0,0.603
-1,1,0.604
3,2,0.605
3,2,0.606
2,3,0.607
6,4,0.608
9,5,0.609
8,3,0.61
10,1,0.611
13,2,0.612
14,5,0.613
8,1,0.614
1,-4,0.615
-3,-5,0.616
-8,-6,0.617
-13,-5,0.618
-9,-3,0.619
0,0,0.62
4,3,0.621
0,3,0.622
-4,0,0.623
-1,-3,0.624
2,-2,0.625
1,3,0.626
2,5,0.627
7,5,0.628
11,6,0.629
10,6,0.63
9,5,0.631
13,4,0.632
16,3,0.633
9,-1,0.634
0,-3,0.635
-9,-3,0.636
-11,-6,0.637
-8,-9,0.638
-4,-8,0.639
-4,-4,0.64
-5,-1,0.641
-8,1,0.642
-6,0,0.643
0,-2,0.644
5,-3,0.645
7,-2,0.646
9,-1,0.647
13,0,0.648
17,0,0.649
16,1,0.65
15,1,0.651
14,0,0.652
13,0,0.653
6,0,0.654
0,-1,0.655
-7,-3,0.656
-11,-7,0.657
-14,-7,0.658
-10,-7,0.659
-5,-6,0.66
0,-2,0.661
3,0,0.662
0,-1,0.663
-1,-3,0.664
1,-2,0.665
4,0,0.666
5,0,0.667
7,-2,0.668
7,0,0.669
6,2,0.67
10,4,0.671
13,3,0.672
16,2,0.673
19,-5,0.674
15,-10,0.675
3,-10,0.676
-8,-7,0.677
-15,-5,0.678
-9,-8,0.679
-1,-8,0.68
-1,-2,0.681
-4,2,0.682
-5,-3,0.683
-1,-7,0.684
1,-3,0.685
0,3,0.686
2,5,0.687
7,3,0.688
12,4,0.689
11,3,0.69
11,1,0.691
12,0,0.692
14,6,0.693
11,6,0.694
5,0,0.695
-3,-7,0.696
-13,-8,0.697
-16,-7,0.698
-12,-6,0.699
-5,-9,0.7
-4,-5,0.701
-10,2,0.702
-12,4,0.703
-5,2,0.704
3,1,0.705
6,2,0.706
6,2,0.707
6,0,0.708
8,-1,0.709
12,3,0.71
16,4,0.711
17,2,0.712
17,1,0.713
12,1,0.714
6,0,0.715
-1,-3,0.716
-5,-7,0.717
-5,-6,0.718
0,-4,0.719
4,-2,0.72
2,-1,0.721
-4,1,0.722
-3,3,0.723
2,3,0.724
6,2,0.725
3,2,0.726
2,0,0.727
6,-2,0.728
10,-1,0.729
9,3,0.73
10,5,0.731
14,3,0.732
14,3,0.733
5,0,0.734
-2,-3,0.735
-8,-4,0.736
-9,-6,0.737
-9,-5,0.738
-6,-4,0.739
-2,-5,0.74
0,-2,0.741
1,0,0.742
0,-2,0.743
0,-5,0.744
3,-4,0.745
6,1,0.746
5,1,0.747
4,-1,0.748
5,0,0.749
6,7,0.75
7,9,0.751
9,2,0.752
10,-2,0.753
11,-1,0.754
4,2,0.755
-7,-2,0.756
-15,-10,0.757
-18,-12,0.758
-13,-9,0.759
-3,-8,0.76
3,-6,0.761
10,-4,0.762
16,-1,0.763
18,0,0.764
14,-1,0.765
10,0,0.766
14,2,0.767
19,3,0.768
16,3,0.769
9,3,0.77
7,2,0.771
13,2,0.772
12,3,0.773
3,2,0.774
-2,1,0.775
-6,-1,0.776
-11,-7,0.777
-15,-9,0.778
-11,-8,0.779
-3,-5,0.78
-3,-2,0.781
-9,1,0.782
-8,-1,0.783
0,-2,0.784
5,1,0.785
2,6,0.786
2,9,0.787
8,5,0.788
12,2,0.789
11,1,0.79
8,0,0.791
11,-1,0.792
14,0,0.793
11,2,0.794
6,3,0.795
0,0,0.796
-4,-5,0.797
-6,-4,0.798
-4,-1,0.799
-2,-2,0.8
-4,-1,0.801
-8,1,0.802
-8,3,0.803
-4,3,0.804
0,4,0.805
3,5,0.806
8,2,0.807
12,-2,0.808
12,-3,0.809
11,-1,0.81
12,0,0.811
12,1,0.812
13,3,0.813
8,3,0.814
4,0,0.815
-1,-5,0.816
-6,-11,0.817
-10,-9,0.818
-5,-6,0.819
-1,-2,0.82
-2,-1,0.821
-3,-1,0.822
-4,-1,0.823
-4,0,0.824
-1,0,0.825
2,0,0.826
3,0,0.827
5,0,0.828
7,2,0.829
8,3,0.83
6,2,0.831
4,0,0.832
0,0,0.833
-5,-1,0.834
-7,-3,0.835
-9,-4,0.836
-4,-8,0.837
5,-9,0.838
12,-9,0.839
14,-6,0.84
6,-1,0.841
-3,2,0.842
-6,0,0.843
2,-2,0.844
12,-1,0.845
14,0,0.846
10,1,0.847
4,0,0.848
-3,4,0.849
-14,6,0.85
-22,5,0.851
-16,1,0.852
-1,0,0.853
15,-2,0.854
14,-4,0.855
10,-5,0.856
12,-6,0.857
16,-7,0.858
19,-8,0.859
21,-6,0.86
17,0,0.861
10,4,0.862
5,2,0.863
9,0,0.864
13,-1,0.865
9,0,0.866
1,0,0.867
-2,0,0.868
-3,-1,0.869
-5,0,0.87
-3,0,0.871
3,0,0.872
7,3,0.873
2,3,0.874
-3,1,0.875
-3,-4,0.876
-2,-8,0.877
-7,-7,0.878
-13,-4,0.879
-16,-1,0.88
-20,1,0.881
-25,4,0.882
-23,1,0.883
-9,-1,0.884
4,1,0.885
8,4,0.886
6,5,0.887
10,4,0.888
19,4,0.889
28,6,0.89
35,7,0.891
32,4,0.892
16,3,0.893
-5,1,0.894
-17,0,0.895
-26,-3,0.896
-28,-7,0.897
-28,-10,0.898
-16,-11,0.899
-4,-11,0.9
8,-7,0.901
18,-3,0.902
25,-1,0.903
34,0,0.904
46,-1,0.905
52,-1,0.906
37,2,0.907
24,5,0.908
17,6,0.909
12,7,0.91
16,7,0.911
19,7,0.912
19,1,0.913
18,-3,0.914
7,-4,0.915
-10,-5,0.916
-24,-10,0.917
-29,-9,0.918
-20,-6,0.919
-8,-4,0.92
-6,-2,0.921
-14,1,0.922
-19,2,0.923
-17,1,0.924
-15,1,0.925
-14,5,0.926
-11,8,0.927
-5,4,0.928
-3,-1,0.929
-3,0,0.93
-1,3,0.931
4,2,0.932
6,0,0.933
1,0,0.934
-4,0,0.935
-7,-5,0.936
-9,-12,0.937
-8,-13,0.938
-1,-11,0.939
3,-12,0.94
-1,-8,0.941
-9,0,0.942
-13,8,0.943
-5,7,0.944
2,2,0.945
6,3,0.946
13,8,0.947
23,4,0.948
30,-2,0.949
25,0,0.95
14,9,0.951
8,14,0.952
8,12,0.953
7,3,0.954
5,-6,0.955
-2,-12,0.956
-10,-16,0.957
-16,-10,0.958
-12,-2,0.959
-4,-2,0.96
-1,-7,0.961
-5,-11,0.962
-7,-10,0.963
-2,-9,0.964
3,-6,0.965
2,-2,0.966
0,3,0.967
3,4,0.968
9,0,0.969
11,2,0.97
12,8,0.971
12,9,0.972
12,6,0.973
4,1,0.974
-3,1,0.975
-9,1,0.976
-11,-4,0.977
-12,-8,0.978
-6,-7,0.979
-2,-4,0.98
-3,1,0.981
-4,6,0.982
-5,4,0.983
-5,2,0.984
0,0,0.985
5,0,0.986
7,4,0.987
11,6,0.988
15,4,0.989
19,3,0.99
17,3,0.991
15,2,0.992
13,0,0.993
11,-3,0.994
7,-3,0.995
0,-4,0.996
-6,-8,0.997
-8,-7,0.998
-5,-3,0.999
-2,-3,1.0
-5,-2,1.001
-15,0,1.002
-18,3,1.003
-14,2,1.004
-8,0,1.005
-5,0,1.006
0,1,1.007
9,1,1.008
16,0,1.009
22,-1,1.01
37,-2,1.011
49,0,1.012
46,5,1.013
20,7,1.014
-5,2,1.015
-15,-7,1.016
-17,-13,1.017
-19,-11,1.018
-19,-6,1.019
-8,-1,1.02
10,4,1.021
24,7,1.022
36,7,1.023
41,4,1.024
32,2,1.025
12,4,1.026
2,4,1.027
7,1,1.028
12,0,1.029
7,1,1.03
-1,0,1.031
0,-4,1.032
2,-3,1.033
-3,-6,1.034
-11,-8,1.035
-18,-11,1.036
-20,-10,1.037
-20,-7,1.038
-16,-7,1.039
-11,-7,1.04
-12,-4,1.041
-18,0,1.042
-20,1,1.043
-11,-2,1.044
-1,-2,1.045
4,1,1.046
8,2,1.047
11,-1,1.048
12,0,1.049
6,3,1.05
3,4,1.051
3,-1,1.052
4,-3,1.053
0,-6,1.054
-6,-9,1.055
-12,-10,1.056
-18,-8,1.057
-19,-3,1.058
-8,-2,1.059
7,-3,1.06
19,-1,1.061
23,3,1.062
26,5,1.063
34,5,1.064
41,9,1.065
37,16,1.066
24,16,1.067
13,8,1.068
13,0,1.069
16,0,1.07
15,1,1.071
7,1,1.072
2,0,1.073
-2,0,1.074
-5,-2,1.075
-13,-6,1.076
-19,-12,1.077
-20,-11,1.078
-16,-8,1.079
-11,-5,1.08
-10,-2,1.081
-10,-1,1.082
-9,-3,1.083
-5,-6,1.084
0,-6,1.085
3,-2,1.086
5,1,1.087
4,3,1.088
2,6,1.089
3,8,1.09
8,6,1.091
13,0,1.092
16,-3,1.093
11,-4,1.094
4,-4,1.095
-4,-3,1.096
-11,-5,1.097
-12,-6,1.098
-5,-7,1.099
5,-5,1.1
7,-2,1.101
1,1,1.102
0,0,1.103
5,-3,1.104
9,0,1.105
4,3,1.106
2,3,1.107
8,0,1.108
14,1,1.109
12,6,1.11
8,5,1.111
9,2,1.112
10,1,1.113
2,3,1.114
-7,3,1.115
-10,-1,1.116
-5,-10,1.117
-5,-11,1.118
-6,-7,1.119
-4,-4,1.12
-3,-1,1.121
-4,0,1.122
-3,-1,1.123
3,-4,1.124
7,-3,1.125
6,4,1.126
4,11,1.127
10,11,1.128
17,7,1.129
19,5,1.13
19,7,1.131
17,6,1.132
15,4,1.133
8,0,1.134
1,-4,1.135
-5,-6,1.136
-13,-9,1.137
-17,-9,1.138
-12,-8,1.139
-4,-7,1.14
-4,-5,1.141
-9,-1,1.142
-10,1,1.143
-5,2,1.144
-3,0,1.145
-2,0,1.146
4,-1,1.147
8,-2,1.148
6,0,1.149
-6,2,1.15
-16,1,1.151
-14,-2,1.152
-1,-2,1.153
12,-1,1.154
11,-2,1.155
-8,-5,1.156
-24,-12,1.157
-18,-12,1.158
5,-8,1.159
18,-4,1.16
15,-1,1.161
11,1,1.162
20,3,1.163
30,6,1.164
25,7,1.165
19,3,1.166
29,0,1.167
42,-1,1.168
39,4,1.169
23,8,1.17
13,8,1.171
18,4,1.172
21,2,1.173
10,0,1.174
-3,-3,1.175
-11,-7,1.176
-18,-11,1.177
-23,-12,1.178
-22,-10,1.179
-13,-7,1.18
-9,-3,1.181
-15,0,1.182
-18,0,1.183
-11,-3,1.184
-1,-2,1.185
0,0,1.186
0,2,1.187
4,2,1.188
10,2,1.189
10,3,1.19
7,5,1.191
7,4,1.192
6,2,1.193
-5,-2,1.194
-23,-3,1.195
-39,-2,1.196
-46,-4,1.197
-39,-4,1.198
-18,-3,1.199
0,1,1.2
8,3,1.201
12,2,1.202
25,2,1.203
40,3,1.204
39,5,1.205
22,4,1.206
10,1,1.207
16,1,1.208
25,0,1.209
27,1,1.21
21,5,1.211
13,7,1.212
6,8,1.213
-2,0,1.214
-4,-7,1.215
-8,-8,1.216
-17,-6,1.217
-22,-2,1.218
-15,-2,1.219
0,-2,1.22
3,1,1.221
-3,5,1.222
-3,5,1.223
7,3,1.224
15,0,1.225
13,-1,1.226
10,-1,1.227
8,-3,1.228
7,-5,1.229
2,-6,1.23
0,-2,1.231
-2,4,1.232
-2,8,1.233
1,5,1.234
11,0,1.235
14,-4,1.236
7,-7,1.237
1,-7,1.238
6,-6,1.239
7,-6,1.24
-12,-5,1.241
-39,0,1.242
-48,3,1.243
-37,1,1.244
-23,0,1.245
-16,3,1.246
-2,5,1.247
21,2,1.248
40,1,1.249
47,2,1.25
46,1,1.251
45,-3,1.252
39,-6,1.253
23,-8,1.254
6,-8,1.255
-6,-12,1.256
-7,-14,1.257
1,-8,1.258
7,-1,1.259
8,2,1.26
10,1,1.261
26,4,1.262
44,5,1.263
39,2,1.264
-3,0,1.265
-58,1,1.266
-88,-1,1.267
-80,-6,1.268
-50,-8,1.269
-13,-4,1.27
21,2,1.271
50,3,1.272
64,5,1.273
54,7,1.274
25,6,1.275
-2,0,1.276
-13,-6,1.277
-14,-7,1.278
-19,-6,1.279
-31,-3,1.28
-30,0,1.281
-9,0,1.282
15,0,1.283
20,-1,1.284
5,1,1.285
-7,2,1.286
-5,-2,1.287
2,-6,1.288
3,-6,1.289
1,-2,1.29
9,1,1.291
21,2,1.292
32,2,1.293
33,-1,1.294
24,-2,1.295
6,-2,1.296
-5,-4,1.297
-7,-8,1.298
-4,-13,1.299
-4,-13,1.3
-8,-4,1.301
-6,3,1.302
3,3,1.303
13,-1,1.304
17,-2,1.305
17,3,1.306
13,6,1.307
8,4,1.308
2,5,1.309
-3,6,1.31
-5,4,1.311
-9,-3,1.312
-12,-4,1.313
-15,-2,1.314
-18,0,1.315
-25,-3,1.316
-30,-11,1.317
-25,-12,1.318
-11,-9,1.319
5,-5,1.32
11,-1,1.321
13,2,1.322
21,4,1.323
31,5,1.324
32,6,1.325
21,7,1.326
11,5,1.327
12,3,1.328
20,3,1.329
21,5,1.33
15,3,1.331
9,-1,1.332
9,-2,1.333
8,0,1.334
3,-1,1.335
-8,-4,1.336
-15,-10,1.337
-13,-10,1.338
-6,-8,1.339
-1,-4,1.34
0,-1,1.341
-2,3,1.342
-3,5,1.343
0,2,1.344
6,0,1.345
10,0,1.346
12,2,1.347
13,1,1.348
7,0,1.349
-6,-1,1.35
-26,-1,1.351
-36,-1,1.352
-31,-2,1.353
-16,-5,1.354
2,-7,1.355
14,-7,1.356
18,-8,1.357
20,-7,1.358
28,-7,1.359
41,-5,1.36
43,0,1.361
33,5,1.362
20,7,1.363
14,4,1.364
5,1,1.365
-15,1,1.366
-40,1,1.367
-49,2,1.368
-34,4,1.369
-14,6,1.37
-2,3,1.371
2,-3,1.372
11,-4,1.373
26,-5,1.374
42,-4,1.375
44,-3,1.376
26,-7,1.377
2,-7,1.378
4,-3,1.379
40,-1,1.38
74,1,1.381
66,3,1.382
24,1,1.383
-12,-2,1.384
-20,-2,1.385
-26,6,1.386
-52,9,1.387
-76,5,1.388
-72,0,1.389
-56,0,1.39
-48,3,1.391
-42,0,1.392
-25,-1,1.393
-2,-2,1.394
12,-1,1.395
12,-4,1.396
10,-10,1.397
7,-10,1.398
5,-7,1.399
7,-5,1.4
2,-1,1.401
-23,5,1.402
-51,6,1.403
-45,1,1.404
2,-1,1.405
53,3,1.406
69,7,1.407
60,4,1.408
50,0,1.409
45,0,1.41
39,2,1.411
32,0,1.412
25,-2,1.413
15,-5,1.414
1,-4,1.415
-5,-7,1.416
-8,-11,1.417
-10,-10,1.418
-10,-7,1.419
-4,-5,1.42
-1,-4,1.421
-7,-1,1.422
-13,1,1.423
-6,4,1.424
4,5,1.425
1,4,1.426
-2,1,1.427
4,-1,1.428
11,0,1.429
1,4,1.43
-13,3,1.431
-15,0,1.432
-3,-2,1.433
4,-4,1.434
6,-8,1.435
9,-11,1.436
14,-14,1.437
18,-8,1.438
30,0,1.439
48,6,1.44
49,8,1.441
22,6,1.442
-10,3,1.443
-17,0,1.444
-5,-2,1.445
-4,0,1.446
-18,2,1.447
-28,6,1.448
-27,5,1.449
-21,3,1.45
-17,0,1.451
-16,-5,1.452
-11,-6,1.453
-5,-6,1.454
3,-4,1.455
7,-3,1.456
-3,-6,1.457
-20,-8,1.458
-21,-9,1.459
3,-6,1.46
36,-4,1.461
61,-2,1.462
69,0,1.463
51,0,1.464
5,1,1.465
-40,3,1.466
-50,5,1.467
-24,4,1.468
-2,3,1.469
0,3,1.47
-15,7,1.471
-29,6,1.472
-33,1,1.473
-21,-4,1.474
-6,-7,1.475
-5,-6,1.476
-13,-5,1.477
-1,-4,1.478
30,-1,1.479
44,-2,1.48
27,-4,1.481
6,-4,1.482
3,-3,1.483
4,-4,1.484
-4,-5,1.485
-10,-1,1.486
0,4,1.487
16,4,1.488
21,0,1.489
20,-1,1.49
19,-2,1.491
19,-2,1.492
17,-1,1.493
16,1,1.494
17,3,1.495
9,-2,1.496
-2,-11,1.497
-6,-11,1.498
-4,-3,1.499
-5,1,1.5
-13,0,1.501
-15,0,1.502
-7,1,1.503
-2,-2,1.504
-6,-3,1.505
-12,1,1.506
-13,7,1.507
-10,10,1.508
0,12,1.509
25,16,1.51
65,14,1.511
98,9,1.512
111,16,1.513
100,37,1.514
64,45,1.515
4,13,1.516
-56,-43,1.517
-90,-84,1.518
-93,-96,1.519
-84,-88,1.52
-83,-61,1.521
-79,-15,1.522
-43,30,1.523
24,42,1.524
69,25,1.525
44,15,1.526
-25,22,1.527
-59,25,1.528
-27,15,1.529
4,6,1.53
-24,9,1.531
-69,13,1.532
-59,12,1.533
7,7,1.534
51,1,1.535
33,-3,1.536
0,-9,1.537
0,-7,1.538
18,-2,1.539
24,-1,1.54
19,1,1.541
17,5,1.542
19,8,1.543
31,7,1.544
58,6,1.545
83,8,1.546
83,6,1.547
69,0,1.548
57,0,1.549
40,5,1.55
-1,5,1.551
-48,-3,1.552
-65,-4,1.553
-46,0,1.554
-18,0,1.555
-9,-8,1.556
-13,-16,1.557
-14,-12,1.558
-9,-6,1.559
2,-5,1.56
14,-2,1.561
22,5,1.562
18,8,1.563
2,5,1.564
-10,1,1.565
-9,1,1.566
0,0,1.567
1,-5,1.568
-5,-5,1.569
-5,0,1.57
7,0,1.571
14,-4,1.572
-3,-5,1.573
-49,-4,1.574
-80,-2,1.575
-47,-6,1.576
45,-12,1.577
114,-13,1.578
91,-11,1.579
7,-6,1.58
-51,-1,1.581
-52,4,1.582
-29,6,1.583
-9,6,1.584
14,11,1.585
25,16,1.586
11,14,1.587
-6,8,1.588
11,6,1.589
42,8,1.59
36,9,1.591
3,4,1.592
-9,1,1.593
6,-3,1.594
12,-7,1.595
-9,-9,1.596
-19,-11,1.597
-9,-5,1.598
-3,-1,1.599
-14,-3,1.6
-18,-3,1.601
-8,1,1.602
-3,2,1.603
-4,-4,1.604
0,-8,1.605
13,-3,1.606
18,2,1.607
16,1,1.608
25,0,1.609
52,5,1.61
72,8,1.611
60,4,1.612
16,0,1.613
-43,0,1.614
-79,0,1.615
-78,-5,1.616
-58,-16,1.617
-42,-16,1.618
-26,-11,1.619
0,-8,1.62
21,-6,1.621
18,-6,1.622
10,-6,1.623
20,-8,1.624
36,-7,1.625
34,3,1.626
16,12,1.627
1,12,1.628
1,14,1.629
6,20,1.63
4,20,1.631
-6,12,1.632
-12,7,1.633
-12,7,1.634
-4,8,1.635
0,7,1.636
-4,11,1.637
-5,26,1.638
0,24,1.639
10,-9,1.64
7,-54,1.641
0,-82,1.642
1,-90,1.643
7,-84,1.644
13,-58,1.645
15,-8,1.646
18,38,1.647
21,49,1.648
19,33,1.649
16,21,1.65
20,23,1.651
28,20,1.652
32,11,1.653
22,1,1.654
6,2,1.655
-8,1,1.656
-18,-8,1.657
-22,-5,1.658
-23,5,1.659
-17,11,1.66
12,6,1.661
58,0,1.662
89,0,1.663
63,2,1.664
-8,7,1.665
-66,22,1.666
-71,41,1.667
-46,31,1.668
-33,-20,1.669
-34,-78,1.67
-25,-92,1.671
-9,-54,1.672
-4,-6,1.673
-16,16,1.674
-29,17,1.675
-33,18,1.676
-25,18,1.677
-11,10,1.678
2,-6,1.679
6,-14,1.68
8,-11,1.681
18,-9,1.682
36,-5,1.683
48,2,1.684
48,8,1.685
48,6,1.686
42,6,1.687
31,19,1.688
18,31,1.689
10,29,1.69
4,22,1.691
-1,24,1.692
-2,31,1.693
1,24,1.694
2,10,1.695
-10,4,1.696
-24,6,1.697
-24,10,1.698
-15,7,1.699
-13,-4,1.7
-17,-19,1.701
-12,-33,1.702
4,-32,1.703
20,-21,1.704
24,-11,1.705
20,-8,1.706
10,-8,1.707
2,-6,1.708
3,-2,1.709
8,-1,1.71
9,-3,1.711
5,-6,1.712
8,-9,1.713
18,-10,1.714
26,-7,1.715
19,-6,1.716
3,-10,1.717
-7,-11,1.718
-9,-6,1.719
-10,-3,1.72
-15,-3,1.721
-21,-2,1.722
-17,2,1.723
-6,2,1.724
0,0,1.725
2,-3,1.726
8,-5,1.727
18,-6,1.728
27,-7,1.729
29,-6,1.73
23,-3,1.731
18,-1,1.732
20,-1,1.733
31,-5,1.734
45,-7,1.735
32,-8,1.736
-10,-10,1.737
-56,-8,1.738
-70,-7,1.739
-54,-6,1.74
-39,-4,1.741
-35,4,1.742
-23,8,1.743
-7,3,1.744
-12,-2,1.745
-34,0,1.746
-31,4,1.747
6,4,1.748
40,0,1.749
35,0,1.75
2,3,1.751
-15,6,1.752
6,8,1.753
49,9,1.754
73,8,1.755
47,0,1.756
4,-8,1.757
-3,-9,1.758
24,-4,1.759
38,-2,1.76
21,0,1.761
2,4,1.762
-4,8,1.763
-18,8,1.764
-39,6,1.765
-34,7,1.766
-5,8,1.767
11,7,1.768
0,5,1.769
-7,4,1.77
6,3,1.771
17,0,1.772
11,-1,1.773
2,-1,1.774
3,-4,1.775
0,-7,1.776
-11,-10,1.777
-12,-8,1.778
2,-5,1.779
10,-5,1.78
1,-4,1.781
-5,2,1.782
1,8,1.783
12,6,1.784
15,0,1.785
18,0,1.786
21,3,1.787
20,4,1.788
11,0,1.789
1,5,1.79
-3,19,1.791
-7,30,1.792
-12,25,1.793
-15,3,1.794
-13,-4,1.795
-9,10,1.796
-5,19,1.797
1,2,1.798
10,-38,1.799
20,-73,1.8
27,-83,1.801
27,-74,1.802
13,-51,1.803
-4,-12,1.804
-11,28,1.805
-5,41,1.806
2,26,1.807
3,12,1.808
1,19,1.809
-3,28,1.81
-11,23,1.811
-12,12,1.812
11,13,1.813
65,13,1.814
111,8,1.815
95,0,1.816
9,-6,1.817
-101,-6,1.818
-181,-10,1.819
-226,-9,1.82
-249,-3,1.821
-220,2,1.822
-95,-1,1.823
91,-6,1.824
230,0,1.825
260,7,1.826
219,6,1.827
169,0,1.828
124,-1,1.829
77,2,1.83
33,3,1.831
-2,2,1.832
-36,3,1.833
-68,1,1.834
-74,-5,1.835
-56,-11,1.836
-39,-20,1.837
-34,-21,1.838
-32,-16,1.839
-22,-6,1.84
-13,4,1.841
-6,7,1.842
0,3,1.843
8,1,1.844
9,2,1.845
10,0,1.846
15,-8,1.847
19,-14,1.848
15,-9,1.849
10,1,1.85
10,6,1.851
10,2,1.852
5,-1,1.853
-2,-3,1.854
-5,-3,1.855
-7,-2,1.856
-11,-5,1.857
-12,-7,1.858
-9,-4,1.859
-3,-1,1.86
-1,0,1.861
0,1,1.862
3,2,1.863
7,4,1.864
6,4,1.865
5,5,1.866
9,6,1.867
14,8,1.868
15,6,1.869
13,4,1.87
9,2,1.871
4,0,1.872
0,0,1.873
-3,0,1.874
-4,-2,1.875
-6,-7,1.876
-9,-12,1.877
-12,-11,1.878
-10,-4,1.879
-3,0,1.88
2,-1,1.881
2,-3,1.882
2,0,1.883
5,0,1.884
11,0,1.885
14,0,1.886
12,0,1.887
8,2,1.888
3,2,1.889
0,0,1.89
2,-2,1.891
6,-4,1.892
11,-6,1.893
6,-7,1.894
0,-4,1.895
-6,-2,1.896
-9,-6,1.897
-10,-9,1.898
-3,-11,1.899
3,-13,1.9
7,-9,1.901
10,-6,1.902
10,-8,1.903
10,-9,1.904
9,-5,1.905
7,2,1.906
1,16,1.907
-3,28,1.908
-3,29,1.909
-2,31,1.91
-2,32,1.911
-3,32,1.912
-7,24,1.913
-11,13,1.914
-13,4,1.915
-13,8,1.916
-12,12,1.917
-9,0,1.918
-3,-33,1.919
3,-74,1.92
11,-100,1.921
13,-102,1.922
13,-76,1.923
17,-30,1.924
21,7,1.925
22,18,1.926
22,15,1.927
22,24,1.928
20,45,1.929
16,61,1.93
7,59,1.931
0,58,1.932
-2,75,1.933
-4,93,1.934
-5,74,1.935
-4,3,1.936
-1,-77,1.937
1,-99,1.938
5,-55,1.939
5,-8,1.94
0,-2,1.941
-7,-12,1.942
-10,-4,1.943
-7,17,1.944
-3,19,1.945
-2,10,1.946
-1,14,1.947
3,29,1.948
6,30,1.949
4,15,1.95
3,6,1.951
6,5,1.952
7,2,1.953
-1,-7,1.954
-9,-10,1.955
-15,-14,1.956
-16,-19,1.957
-16,-23,1.958
-12,-24,1.959
-7,-24,1.96
-4,-19,1.961
-1,-14,1.962
0,-10,1.963
2,-6,1.964
5,-7,1.965
8,-8,1.966
8,-6,1.967
9,-4,1.968
8,-4,1.969
8,-3,1.97
13,-3,1.971
15,-3,1.972
7,-3,1.973
-4,-3,1.974
-30,0,1.975
-43,-5,1.976
-20,-14,1.977
28,-15,1.978
62,-10,1.979
41,-6,1.98
-24,-6,1.981
-83,-5,1.982
-106,0,1.983
-108,1,1.984
-92,-2,1.985
-37,-5,1.986
41,-6,1.987
75,-4,1.988
50,0,1.989
48,9,1.99
126,20,1.991
214,29,1.992
208,31,1.993
104,24,1.994
5,12,1.995
-27,1,1.996
-24,-4,1.997
-26,0,1.998
-27,2,1.999
-12,-2,2.0
4,-3,2.001
0,0,2.002
-12,1,2.003
-12,-2,2.004
-6,-6,2.005
-9,-6,2.006
-16,-5,2.007
-18,-7,2.008
-16,-8,2.009
-18,-4,2.01
-22,0,2.011
-24,1,2.012
-22,1,2.013
-19,0,2.014
-19,-1,2.015
-22,-5,2.016
-25,-10,2.017
-23,-10,2.018
-13,-7,2.019
-1,-3,2.02
1,2,2.021
-4,5,2.022
-4,2,2.023
5,-1,2.024
12,2,2.025
8,8,2.026
2,7,2.027
5,-1,2.028
8,-5,2.029
7,-3,2.03
1,-3,2.031
-4,-4,2.032
-10,-5,2.033
-21,-5,2.034
-27,-4,2.035
-25,-4,2.036
-22,-3,2.037
-28,5,2.038
-39,10,2.039
-38,9,2.04
-11,4,2.041
38,0,2.042
81,-2,2.043
102,-3,2.044
100,-2,2.045
93,-2,2.046
83,-2,2.047
57,0,2.048
21,4,2.049
-6,6,2.05
-15,4,2.051
-15,3,2.052
-18,3,2.053
-19,0,2.054
-17,-5,2.055
-15,-7,2.056
-17,-7,2.057
-20,-7,2.058
-20,-12,2.059
-14,-12,2.06
2,-7,2.061
26,-2,2.062
44,-3,2.063
45,-8,2.064
27,-8,2.065
3,-3,2.066
-21,1,2.067
-49,5,2.068
-74,9,2.069
-76,11,2.07
-42,11,2.071
7,4,2.072
41,0,2.073
42,1,2.074
23,7,2.075
-1,9,2.076
-11,2,2.077
-1,-4,2.078
20,-9,2.079
34,-8,2.08
34,-4,2.081
29,2,2.082
31,7,2.083
36,8,2.084
29,7,2.085
14,7,2.086
9,5,2.087
14,3,2.088
11,4,2.089
-10,5,2.09
-37,4,2.091
-53,2,2.092
-50,0,2.093
-41,-1,2.094
-30,-4,2.095
-21,-10,2.096
-15,-16,2.097
-8,-16,2.098
1,-10,2.099
10,-6,2.1
12,-2,2.101
12,0,2.102
3,0,2.103
-4,0,2.104
-2,0,2.105
1,2,2.106
9,2,2.107
15,-2,2.108
12,-10,2.109
10,-17,2.11
10,-20,2.111
8,-15,2.112
-1,-7,2.113
-9,0,2.114
-10,8,2.115
-7,11,2.116
-3,0,2.117
0,-31,2.118
6,-74,2.119
11,-95,2.12
9,-76,2.121
6,-36,2.122
8,-11,2.123
8,-9,2.124
3,-2,2.125
-2,42,2.126
2,99,2.127
10,106,2.128
12,29,2.129
13,-56,2.13
19,-42,2.131
22,81,2.132
17,193,2.133
4,194,2.134
-3,90,2.135
-8,-35,2.136
-11,-116,2.137
-11,-118,2.138
0,-58,2.139
11,16,2.14
11,56,2.141
3,52,2.142
-2,34,2.143
1,26,2.144
7,19,2.145
15,-22,2.146
22,-123,2.147
24,-227,2.148
20,-193,2.149
18,18,2.15
17,219,2.151
12,210,2.152
2,64,2.153
-6,-21,2.154
-8,21,2.155
-10,57,2.156
-20,26,2.157
-28,37,2.158
-22,121,2.159
-10,153,2.16
0,65,2.161
4,-35,2.162
14,-63,2.163
29,-60,2.164
36,-72,2.165
32,-59,2.166
22,-10,2.167
16,19,2.168
13,0,2.169
9,-17,2.17
2,-8,2.171
-2,-4,2.172
-4,-18,2.173
-5,-33,2.174
-8,-38,2.175
-17,-46,2.176
-23,-63,2.177
-23,-63,2.178
-17,-48,2.179
-10,-37,2.18
-9,-37,2.181
-13,-32,2.182
-13,-23,2.183
-7,-25,2.184
-4,-30,2.185
-7,-26,2.186
-9,-15,2.187
-5,-15,2.188
0,-19,2.189
0,-16,2.19
-4,-14,2.191
-7,-19,2.192
-8,-25,2.193
-12,23,2.194
-13,17,2.195
-14,12,2.196
-14,3,2.197
-13,-3,2.198
-7,0,2.199
-1,3,2.2
0,1,2.201
3,-1,2.202
3,-4,2.203
4,-6,2.204
9,-11,2.205
13,-17,2.206
16,-25,2.207
19,-33,2.208
20,-32,2.209
20,-28,2.21
16,-17,2.211
10,-6,2.212
2,-1,2.213
-6,25,2.214
-14,19,2.215
-18,13,2.216
-17,4,2.217
-11,-2,2.218
1,1,2.219
18,4,2.22
24,2,2.221
16,0,2.222
2,-3,2.223
0,-7,2.224
12,-12,2.225
38,-18,2.226
58,-27,2.227
43,-35,2.228
-18,-34,2.229
-93,-30,2.23
-121,-18,2.231
-77,-6,2.232
1,0,2.233
58,6,2.234
61,10,2.235
23,8,2.236
-4,2,2.237
13,3,2.238
49,3,2.239
47,2,2.24
-3,4,2.241
-53,14,2.242
-61,25,2.243
-45,25,2.244
-45,18,2.245
-46,13,2.246
1,12,2.247
98,10,2.248
168,4,2.249
150,-3,2.25
85,-9,2.251
57,-14,2.252
77,-16,2.253
75,-21,2.254
7,-29,2.255
-91,-37,2.256
-150,-38,2.257
-154,-28,2.258
-132,-21,2.259
-111,-14,2.26
-106,-5,2.261
-117,9,2.262
-110,14,2.263
-40,10,2.264
86,4,2.265
190,5,2.266
218,7,2.267
188,3,2.268
147,3,2.269
104,13,2.27
39,26,2.271
-43,30,2.272
-110,27,2.273
-126,21,2.274
-80,18,2.275
-29,17,2.276
35,15,2.277
70,15,2.278
16,14,2.279
-21,12,2.28
-4,11,2.281
8,10,2.282
5,10,2.283
3,8,2.284
8,6,2.285
12,8,2.286
12,9,2.287
13,8,2.288
20,7,2.289
24,9,2.29
16,10,2.291
9,5,2.292
11,1,2.293
12,-4,2.294
-11,-6,2.295
-40,-9,2.296
-46,-12,2.297
-23,-9,2.298
-1,-8,2.299
-4,-10,2.3
-27,-7,2.301
-40,-1,2.302
-10,2,2.303
53,-3,2.304
97,-7,2.305
76,-7,2.306
11,-6,2.307
-28,-8,2.308
-15,-12,2.309
25,-21,2.31
47,-38,2.311
34,-53,2.312
2,-54,2.313
-24,-37,2.314
-17,-10,2.315
14,16,2.316
31,35,2.317
12,45,2.318
-15,46,2.319
-19,40,2.32
-14,37,2.321
-24,38,2.322
-37,33,2.323
-27,21,2.324
-6,12,2.325
1,11,2.326
-2,10,2.327
2,7,2.328
11,8,2.329
10,12,2.33
4,7,2.331
3,0,2.332
5,3,2.333
-2,14,2.334
-11,10,2.335
-14,-23,2.336
-16,-69,2.337
-21,-95,2.338
-16,-94,2.339
-1,-76,2.34
5,-44,2.341
-4,-6,2.342
-10,19,2.343
-1,19,2.344
8,13,2.345
5,21,2.346
5,37,2.347
16,42,2.348
24,24,2.349
19,-14,2.35
11,-55,2.351
7,-62,2.352
7,-6,2.353
2,83,2.354
-5,118,2.355
-8,62,2.356
-9,-14,2.357
-9,-39,2.358
-2,-38,2.359
9,-58,2.36
13,-68,2.361
6,-17,2.362
0,61,2.363
-1,79,2.364
-1,26,2.365
-5,-20,2.366
-4,-24,2.367
10,-14,2.368
22,-18,2.369
17,-23,2.37
2,-15,2.371
-5,-12,2.372
0,-20,2.373
3,-25,2.374
-3,-21,2.375
-10,-18,2.376
-9,-23,2.377
-3,-21,2.378
4,-14,2.379
10,-11,2.38
15,-9,2.381
12,0,2.382
6,8,2.383
4,4,2.384
6,-1,2.385
6,4,2.386
1,10,2.387
2,8,2.388
9,2,2.389
3,4,2.39
-20,8,2.391
-42,4,2.392
-43,2,2.393
-18,4,2.394
20,6,2.395
43,2,2.396
43,-3,2.397
33,2,2.398
30,8,2.399
31,9,2.4
19,9,2.401
0,11,2.402
-7,10,2.403
-7,3,2.404
-27,-1,2.405
-58,0,2.406
-64,1,2.407
-32,-2,2.408
7,-5,2.409
32,-7,2.41
50,-11,2.411
64,-15,2.412
56,-11,2.413
18,-3,2.414
-5,2,2.415
21,4,2.416
75,5,2.417
97,10,2.418
64,13,2.419
-3,13,2.42
-69,15,2.421
-108,18,2.422
-105,15,2.423
-73,9,2.424
-46,3,2.425
-41,-14,2.426
-34,-56,2.427
-3,-101,2.428
44,-97,2.429
79,-24,2.43
87,62,2.431
82,89,2.432
90,61,2.433
117,24,2.434
147,11,2.435
142,0,2.436
86,-27,2.437
4,-29,2.438
-57,13,2.439
-79,57,2.44
-92,52,2.441
-119,17,2.442
-143,-2,2.443
-136,-12,2.444
-115,-63,2.445
-104,-187,2.446
-91,-324,2.447
-46,-343,2.448
12,-140,2.449
38,218,2.45
34,491,2.451
43,480,2.452
74,271,2.453
87,71,2.454
63,-27,2.455
38,-117,2.456
12,-178,2.457
-16,-183,2.458
-49,-21,2.459
-88,98,2.46
-140,87,2.461
-169,70,2.462
-128,35,2.463
-98,21,2.464
-104,71,2.465
-77,95,2.466
50,36,2.467
173,-21,2.468
281,-73,2.469
342,-130,2.47
258,-202,2.471
182,-275,2.472
134,-351,2.473
95,-374,2.474
63,-136,2.475
-6,165,2.476
-77,313,2.477
-82,275,2.478
-25,188,2.479
12,158,2.48
-6,146,2.481
-22,67,2.482
-2,-92,2.483
8,-266,2.484
-21,-353,2.485
-52,-256,2.486
-51,8,2.487
-39,247,2.488
-40,237,2.489
-41,-7,2.49
-38,-210,2.491
-48,-156,2.492
-66,51,2.493
-61,182,2.494
-44,113,2.495
-72,-72,2.496
-135,-228,2.497
-150,-264,2.498
-71,-141,2.499
27,133,2.5
75,431,2.501
93,559,2.502
116,462,2.503
119,289,2.504
72,197,2.505
23,126,2.506
17,-115,2.507
20,-531,2.508
-9,-797,2.509
-33,-575,2.51
-12,46,2.511
18,570,2.512
12,640,2.513
-14,368,2.514
-11,132,2.515
11,84,2.516
15,61,2.517
10,-41,2.518
14,-142,2.519
4,-186,2.52
-44,-230,2.521
-93,-248,2.522
-88,-119,2.523
-35,112,2.524
26,185,2.525
73,-41,2.526
91,-373,2.527
68,-504,2.528
19,-340,2.529
-3,-27,2.53
16,222,2.531
26,288,2.532
-6,241,2.533
-54,223,2.534
-68,245,2.535
-62,84,2.536
-66,-383,2.537
-72,-825,2.538
-43,-741,2.539
15,-83,2.54
59,629,2.541
71,888,2.542
82,688,2.543
102,353,2.544
105,95,2.545
67,-88,2.546
13,-217,2.547
-10,-246,2.548
2,-170,2.549
10,-77,2.55
-7,-68,2.551
-24,-168,2.552
-11,-295,2.553
14,-311,2.554
2,-88,2.555
-69,307,2.556
-158,583,2.557
-219,522,2.558
-267,239,2.559
-337,54,2.56
-373,90,2.561
-248,168,2.562
68,122,2.563
424,34,2.564
638,13,2.565
689,-31,2.566
644,-266,2.567
494,-610,2.568
218,-708,2.569
-62,-302,2.57
-161,404,2.571
-93,848,2.572
-54,697,2.573
-142,134,2.574
-250,-287,2.575
-266,-317,2.576
-221,-211,2.577
-187,-229,2.578
-162,-294,2.579
-154,-254,2.58
-225,-176,2.581
-372,-185,2.582
-497,-252,2.583
-537,-314,2.584
-514,-375,2.585
-391,-372,2.586
-70,-209,2.587
411,-13,2.588
837,-61,2.589
1024,-309,2.59
966,-327,2.591
736,109,2.592
435,639,2.593
148,829,2.594
21,589,2.595
20,230,2.596
-41,41,2.597
-203,37,2.598
-279,91,2.599
-175,127,2.6
-65,147,2.601
-97,158,2.602
-165,135,2.603
-125,54,2.604
-46,-41,2.605
-58,-72,2.606
-102,-32,2.607
-61,-8,2.608
32,-38,2.609
70,-45,2.61
40,31,2.611
-11,103,2.612
-59,69,2.613
-96,-84,2.614
-90,-331,2.615
-62,-693,2.616
-75,-1039,2.617
-117,-990,2.618
-108,-358,2.619
-54,458,2.62
-34,868,2.621
-57,775,2.622
-47,416,2.623
3,-228,2.624
26,-1174,2.625
15,-1694,2.626
24,-866,2.627
50,965,2.628
42,2212,2.629
-8,1982,2.63
-53,1079,2.631
-77,607,2.632
-82,543,2.633
-43,299,2.634
36,-115,2.635
88,-308,2.636
84,-321,2.637
101,-435,2.638
179,-524,2.639
210,-314,2.64
120,2,2.641
31,60,2.642
64,-93,2.643
116,-192,2.644
30,-215,2.645
-108,-226,2.646
-94,-128,2.647
55,70,2.648
118,80,2.649
15,-237,2.65
-103,-619,2.651
-115,-846,2.652
-65,-991,2.653
-41,-1049,2.654
-49,-704,2.655
-65,92,2.656
-71,767,2.657
-52,832,2.658
-21,539,2.659
-23,370,2.66
-62,236,2.661
-80,-219,2.662
-34,-744,2.663
15,-658,2.664
6,118,2.665
-34,876,2.666
-39,1040,2.667
-2,685,2.668
37,-53,2.669
31,-1248,2.67
-50,-2376,2.671
-142,-2112,2.672
-98,-110,2.673
153,2458,2.674
429,3416,2.675
472,2356,2.676
294,803,2.677
122,-129,2.678
59,-649,2.679
3,-845,2.68
-93,-182,2.681
-130,1026,2.682
-57,1432,2.683
28,651,2.684
47,-75,2.685
37,71,2.686
35,317,2.687
26,-84,2.688
-13,-596,2.689
-83,-593,2.69
-164,-462,2.691
-205,-652,2.692
-165,-840,2.693
-74,-717,2.694
-21,-571,2.695
-21,-645,2.696
-3,-645,2.697
17,-397,2.698
-69,-202,2.699
-249,-177,2.7
-355,-45,2.701
-295,149,2.702
-167,-63,2.703
-67,-667,2.704
53,-917,2.705
228,-336,2.706
345,548,2.707
286,822,2.708
106,317,2.709
-48,-196,2.71
-111,31,2.711
-103,791,2.712
-45,1200,2.713
56,834,2.714
144,155,2.715
149,-202,2.716
76,-241,2.717
-11,-304,2.718
-54,-390,2.719
-34,-247,2.72
39,123,2.721
128,442,2.722
177,488,2.723
151,216,2.724
52,-266,2.725
-86,-649,2.726
-212,-574,2.727
-255,-9,2.728
-201,655,2.729
-113,948,2.73
-69,713,2.731
-38,178,2.732
57,-240,2.733
225,-370,2.734
328,-395,2.735
253,-631,2.736
77,-946,2.737
-31,-789,2.738
-23,-12,2.739
-7,748,2.74
-70,833,2.741
-154,359,2.742
-152,-108,2.743
-55,-358,2.744
49,-519,2.745
109,-522,2.746
150,-188,2.747
202,277,2.748
232,433,2.749
183,260,2.75
60,151,2.751
-63,243,2.752
-109,290,2.753
-87,127,2.754
-56,-76,2.755
-47,-155,2.756
-31,-144,2.757
9,-85,2.758
30,42,2.759
5,138,2.76
-20,44,2.761
-2,-196,2.762
33,-399,2.763
37,-519,2.764
-6,-600,2.765
-93,-561,2.766
-199,-342,2.767
-257,-82,2.768
-206,71,2.769
-96,191,2.77
-43,372,2.771
-65,517,2.772
-67,539,2.773
-1,508,2.774
59,473,2.775
66,338,2.776
101,108,2.777
221,-5,2.778
318,68,2.779
248,132,2.78
54,50,2.781
-81,-70,2.782
-68,-145,2.783
0,-219,2.784
12,-239,2.785
-28,-47,2.786
-42,268,2.787
-15,373,2.788
0,138,2.789
-31,-187,2.79
-69,-336,2.791
-63,-320,2.792
-19,-264,2.793
13,-200,2.794
0,-124,2.795
-34,-63,2.796
-39,-19,2.797
-12,41,2.798
10,80,2.799
7,35,2.8
-2,-50,2.801
0,-57,2.802
2,28,2.803
-1,97,2.804
-3,74,2.805
3,-31,2.806
5,-196,2.807
-2,-359,2.808
-7,-369,2.809
-1,-143,2.81
4,121,2.811
1,115,2.812
-1,-124,2.813
2,-261,2.814
3,-24,2.815
-1,408,2.816
-2,654,2.817
4,619,2.818
17,471,2.819
28,339,2.82
35,221,2.821
39,124,2.822
41,66,2.823
36,18,2.824
25,-55,2.825
6,-117,2.826
-19,-126,2.827
-42,-111,2.828
-45,-113,2.829
-20,-120,2.83
20,-121,2.831
45,-148,2.832
38,-191,2.833
5,-205,2.834
-29,-163,2.835
-49,-112,2.836
-42,-94,2.837
-12,-76,2.838
34,-38,2.839
88,-8,2.84
141,-7,2.841
170,-9,2.842
135,1,2.843
30,-17,2.844
-89,-93,2.845
-148,-169,2.846
-124,-144,2.847
-63,7,2.848
-20,179,2.849
-18,238,2.85
-43,169,2.851
-57,71,2.852
-39,15,2.853
-9,-66,2.854
-2,-213,2.855
-17,-328,2.856
-18,-253,2.857
5,13,2.858
25,267,2.859
23,328,2.86
14,218,2.861
8,88,2.862
-1,31,2.863
-11,24,2.864
-4,23,2.865
22,20,2.866
45,10,2.867
54,-111,2.868
48,-484,2.869
38,-998,2.87
25,-1125,2.871
15,-393,2.872
7,800,2.873
-14,1601,2.874
-46,1371,2.875
-63,584,2.876
-33,131,2.877
28,145,2.878
72,129,2.879
63,-71,2.88
21,-166,2.881
-7,-99,2.882
12,-118,2.883
55,-233,2.884
80,-216,2.885
62,-85,2.886
20,-79,2.887
-19,-185,2.888
-54,-177,2.889
-90,-54,2.89
-103,-20,2.891
-79,-87,2.892
-45,-99,2.893
-39,-39,2.894
-58,-28,2.895
-67,-73,2.896
-53,-70,2.897
-36,-15,2.898
-23,-5,2.899
-4,-30,2.9
24,-16,2.901
45,15,2.902
63,4,2.903
92,-13,2.904
114,13,2.905
87,43,2.906
21,18,2.907
-17,-16,2.908
4,-8,2.909
43,9,2.91
42,-7,2.911
9,-24,2.912
-11,-7,2.913
-12,7,2.914
-14,-9,2.915
-22,-26,2.916
-23,-15,2.917
-11,2,2.918
0,-3,2.919
2,-8,2.92
4,5,2.921
5,11,2.922
5,0,2.923
4,-5,2.924
9,7,2.925
12,15,2.926
7,8,2.927
1,4,2.928
2,10,2.929
3,10,2.93
1,1,2.931
-4,0,2.932
-6,10,2.933
-8,10,2.934
-10,0,2.935
-15,-2,2.936
-15,5,2.937
-11,10,2.938
-3,18,2.939
9,41,2.94
15,56,2.941
11,32,2.942
7,-24,2.943
12,-61,2.944
18,-55,2.945
15,-31,2.946
9,-14,2.947
6,-4,2.948
6,8,2.949
3,16,2.95
-1,12,2.951
-3,8,2.952
-1,10,2.953
-3,12,2.954
-9,8,2.955
-15,2,2.956
-17,-1,2.957
-17,-1,2.958
-11,0,2.959
-5,3,2.96
-1,7,2.961
2,10,2.962
11,9,2.963
24,7,2.964
33,7,2.965
30,8,2.966
18,7,2.967
7,3,2.968
3,0,2.969
2,-7,2.97
1,-17,2.971
-2,-29,2.972
-4,-31,2.973
-3,-22,2.974
-4,-1,2.975
-10,19,2.976
-15,24,2.977
-14,22,2.978
-1,21,2.979
9,23,2.98
7,15,2.981
2,-20,2.982
4,-80,2.983
13,-120,2.984
17,-87,2.985
15,3,2.986
10,77,2.987
4,81,2.988
-2,42,2.989
-11,10,2.99
-16,-11,2.991
-14,-38,2.992
-5,-47,2.993
1,-16,2.994
4,33,2.995
6,56,2.996
9,52,2.997
10,52,2.998
10,58,2.999
15,54,3.0
25,49,3.001
28,52,3.002
22,49,3.003
13,25,3.004
9,1,3.005
9,0,3.006
4,3,3.007
-1,-9,3.008
-4,-28,3.009
-6,-40,3.01
-9,-64,3.011
-20,-124,3.012
-32,-183,3.013
-39,-175,3.014
-23,-50,3.015
19,125,3.016
58,209,3.017
63,138,3.018
32,1,3.019
-6,-69,3.02
-28,-52,3.021
-43,-27,3.022
-65,-33,3.023
-93,-33,3.024
-102,-8,3.025
-80,5,3.026
-43,-5,3.027
-11,-14,3.028
16,0,3.029
53,15,3.03
83,13,3.031
77,8,3.032
48,11,3.033
40,6,3.034
64,-4,3.035
66,-11,3.036
30,-11,3.037
20,-12,3.038
82,-15,3.039
136,-7,3.04
87,4,3.041
-17,6,3.042
-53,-3,3.043
-10,-7,3.044
9,-1,3.045
-30,2,3.046
-54,-1,3.047
-27,-4,3.048
-5,-2,3.049
-25,0,3.05
-40,-2,3.051
-20,-4,3.052
-4,-2,3.053
-17,-3,3.054
-31,-4,3.055
-23,-4,3.056
-16,-6,3.057
-26,-7,3.058
-32,-8,3.059
-16,-2,3.06
1,7,3.061
3,10,3.062
9,7,3.063
28,4,3.064
38,7,3.065
27,12,3.066
14,12,3.067
15,5,3.068
22,1,3.069
28,-1,3.07
38,-1,3.071
49,-3,3.072
43,-3,3.073
5,-5,3.074
-41,-5,3.075
-67,-5,3.076
-68,-7,3.077
-61,-8,3.078
-51,-5,3.079
-33,-1,3.08
-12,1,3.081
-3,4,3.082
-4,4,3.083
1,3,3.084
16,0,3.085
23,-1,3.086
19,0,3.087
15,1,3.088
15,0,3.089
13,-2,3.09
11,-1,3.091
13,0,3.092
17,-2,3.093
16,-4,3.094
10,-6,3.095
-1,-5,3.096
-13,-7,3.097
-29,-7,3.098
-46,-3,3.099
-48,-1,3.1
-31,0,3.101
-10,1,3.102
11,2,3.103
31,3,3.104
54,5,3.105
63,8,3.106
48,10,3.107
17,14,3.108
-7,22,3.109
-7,30,3.11
14,29,3.111
41,12,3.112
58,-7,3.113
66,-27,3.114
69,-42,3.115
70,-51,3.116
51,-53,3.117
0,-38,3.118
-60,-20,3.119
-86,-14,3.12
-59,-28,3.121
-23,-63,3.122
-20,-118,3.123
-40,-165,3.124
-34,-140,3.125
14,-16,3.126
64,134,3.127
73,199,3.128
48,155,3.129
20,90,3.13
13,79,3.131
16,92,3.132
17,78,3.133
-2,42,3.134
-27,24,3.135
-33,28,3.136
-10,21,3.137
15,4,3.138
16,-6,3.139
5,-7,3.14
8,-2,3.141
15,13,3.142
9,29,3.143
-3,16,3.144
-6,-33,3.145
-5,-78,3.146
-8,-83,3.147
-14,-68,3.148
-12,-64,3.149
-10,-53,3.15
-15,-6,3.151
-21,56,3.152
-21,77,3.153
-18,46,3.154
-19,6,3.155
-22,-14,3.156
-17,-31,3.157
-8,-49,3.158
-2,-50,3.159
4,-26,3.16
10,0,3.161
10,10,3.162
7,0,3.163
9,-31,3.164
13,-85,3.165
12,-131,3.166
9,-111,3.167
6,-11,3.168
2,101,3.169
-6,146,3.17
-12,126,3.171
-8,98,3.172
-2,88,3.173
-4,66,3.174
-12,25,3.175
-18,-6,3.176
-16,-13,3.177
-6,-12,3.178
11,-26,3.179
25,-40,3.18
28,-35,3.181
24,-17,3.182
26,-3,3.183
32,5,3.184
35,2,3.185
26,-8,3.186
17,-17,3.187
13,-18,3.188
8,-11,3.189
-2,-11,3.19
-9,-17,3.191
-10,-20,3.192
-8,-16,3.193
-10,-16,3.194
-13,-18,3.195
-15,-19,3.196
-15,-16,3.197
-9,-12,3.198
0,-11,3.199
12,-9,3.2
13,-7,3.201
5,-6,3.202
2,-6,3.203
8,-6,3.204
12,-6,3.205
10,-5,3.206
6,-2,3.207
5,1,3.208
3,1,3.209
0,-1,3.21
-4,1,3.211
-5,3,3.212
-5,7,3.213
-10,7,3.214
-12,5,3.215
-16,3,3.216
-17,-3,3.217
-12,-7,3.218
0,-6,3.219
10,-2,3.22
10,3,3.221
8,5,3.222
13,4,3.223
18,1,3.224
17,-1,3.225
9,-1,3.226
4,1,3.227
4,5,3.228
5,6,3.229
5,5,3.23
4,4,3.231
2,5,3.232
0,9,3.233
-4,7,3.234
-4,4,3.235
-7,2,3.236
-10,0,3.237
-8,4,3.238
0,8,3.239
9,9,3.24
14,9,3.241
16,10,3.242
17,12,3.243
17,11,3.244
13,9,3.245
6,5,3.246
0,6,3.247
-6,4,3.248
-8,1,3.249
-7,-2,3.25
-4,-2,3.251
-3,-2,3.252
0,-4,3.253
2,-9,3.254
1,-12,3.255
-4,-11,3.256
-9,-11,3.257
-6,-10,3.258
3,-7,3.259
10,-3,3.26
9,3,3.261
4,7,3.262
5,8,3.263
11,10,3.264
13,15,3.265
8,21,3.266
2,23,3.267
-1,15,3.268
-3,-6,3.269
-5,-29,3.27
-6,-48,3.271
-6,-53,3.272
-6,-45,3.273
-4,-33,3.274
1,-16,3.275
5,-1,3.276
1,5,3.277
-4,1,3.278
3,-1,3.279
18,6,3.28
22,17,3.281
14,22,3.282
10,21,3.283
15,19,3.284
18,19,3.285
13,15,3.286
9,10,3.287
12,5,3.288
13,4,3.289
7,3,3.29
0,2,3.291
-1,0,3.292
-1,0,3.293
-4,-5,3.294
-5,-10,3.295
-6,-11,3.296
-8,-9,3.297
-7,-4,3.298
-3,-3,3.299
4,-5,3.3
11,-3,3.301
16,3,3.302
27,6,3.303
36,2,3.304
31,-5,3.305
17,-5,3.306
7,-2,3.307
1,0,3.308
-6,-3,3.309
-18,-5,3.31
-27,-5,3.311
-30,-4,3.312
-27,-2,3.313
-23,-3,3.314
-15,-7,3.315
-9,-9,3.316
-10,-12,3.317
-12,-9,3.318
-6,-3,3.319
4,1,3.32
9,2,3.321
9,3,3.322
13,1,3.323
16,-1,3.324
15,-2,3.325
11,0,3.326
15,2,3.327
20,3,3.328
17,3,3.329
7,4,3.33
0,4,3.331
2,5,3.332
6,7,3.333
12,1,3.334
17,-9,3.335
11,-12,3.336
-5,-6,3.337
-17,6,3.338
-14,11,3.339
-7,6,3.34
-12,3,3.341
-24,4,3.342
-21,3,3.343
-2,0,3.344
16,-2,3.345
23,1,3.346
32,1,3.347
45,-3,3.348
48,-3,3.349
33,1,3.35
7,4,3.351
-15,3,3.352
-28,4,3.353
-33,7,3.354
-32,5,3.355
-32,0,3.356
-32,-11,3.357
-22,-18,3.358
3,-11,3.359
20,-5,3.36
11,0,3.361
-4,4,3.362
-1,4,3.363
12,4,3.364
12,1,3.365
1,-1,3.366
3,-2,3.367
19,-3,3.368
30,-1,3.369
34,0,3.37
44,-2,3.371
56,-5,3.372
51,-5,3.373
20,-2,3.374
-13,-1,3.375
-27,-5,3.376
-30,-8,3.377
-34,-5,3.378
-33,-3,3.379
-21,-3,3.38
-4,0,3.381
14,5,3.382
36,8,3.383
52,6,3.384
49,3,3.385
32,2,3.386
17,-2,3.387
4,-6,3.388
-14,-5,3.389
-32,-3,3.39
-38,-4,3.391
-29,-8,3.392
-21,-7,3.393
-20,-5,3.394
-16,-6,3.395
-10,-10,3.396
-8,-12,3.397
-11,-5,3.398
-11,1,3.399
-11,3,3.4
-23,4,3.401
-36,5,3.402
-34,6,3.403
-18,2,3.404
-9,2,3.405
-9,4,3.406
5,4,3.407
38,0,3.408
64,-1,3.409
63,3,3.41
50,7,3.411
38,6,3.412
22,2,3.413
-4,-1,3.414
-27,-1,3.415
-33,0,3.416
-32,-4,3.417
-32,-9,3.418
-37,-8,3.419
-45,-1,3.42
-54,6,3.421
-47,7,3.422
-12,3,3.423
36,3,3.424
68,8,3.425
84,8,3.426
107,3,3.427
133,0,3.428
121,0,3.429
52,1,3.43
-36,-2,3.431
-81,-5,3.432
-61,-4,3.433
-14,-5,3.434
13,-6,3.435
4,-6,3.436
-16,-4,3.437
-30,-2,3.438
-38,-1,3.439
-40,0,3.44
-32,1,3.441
-12,3,3.442
8,1,3.443
20,0,3.444
39,-2,3.445
69,-4,3.446
88,1,3.447
71,3,3.448
24,-2,3.449
-15,-7,3.45
-26,-7,3.451
-21,-6,3.452
-20,-6,3.453
-30,-6,3.454
-34,-7,3.455
-30,-3,3.456
-21,3,3.457
-16,15,3.458
-8,27,3.459
1,33,3.46
6,30,3.461
3,14,3.462
3,-15,3.463
8,-47,3.464
8,-66,3.465
4,-63,3.466
0,-46,3.467
-1,-22,3.468
-2,2,3.469
-3,16,3.47
-6,15,3.471
-8,6,3.472
-9,2,3.473
-12,3,3.474
-12,-2,3.475
-14,-12,3.476
-18,-23,3.477
-16,-27,3.478
-2,-31,3.479
11,-34,3.48
10,-20,3.481
1,5,3.482
-1,21,3.483
8,18,3.484
13,15,3.485
8,23,3.486
4,29,3.487
4,31,3.488
6,36,3.489
7,44,3.49
6,47,3.491
5,45,3.492
3,47,3.493
-1,47,3.494
-1,36,3.495
0,18,3.496
-1,10,3.497
-5,20,3.498
0,24,3.499
13,14,3.5
18,2,3.501
11,-11,3.502
2,-43,3.503
1,-92,3.504
7,-127,3.505
10,-119,3.506
15,-71,3.507
21,-2,3.508
23,65,3.509
12,99,3.51
-3,74,3.511
-11,5,3.512
-10,-51,3.513
-11,-73,3.514
-15,-60,3.515
-19,-33,3.516
-17,-11,3.517
-16,11,3.518
-20,27,3.519
-26,38,3.52
-26,60,3.521
-11,91,3.522
12,113,3.523
29,105,3.524
34,62,3.525
35,-1,3.526
42,-72,3.527
53,-120,3.528
60,-128,3.529
57,-100,3.53
48,-57,3.531
34,-18,3.532
19,6,3.533
6,13,3.534
0,16,3.535
-6,25,3.536
-15,34,3.537
-20,35,3.538
-12,24,3.539
0,18,3.54
1,21,3.541
-5,23,3.542
-9,14,3.543
-1,4,3.544
6,-4,3.545
4,-14,3.546
-1,-30,3.547
1,-41,3.548
6,-40,3.549
4,-33,3.55
-4,-32,3.551
-10,-31,3.552
-12,-23,3.553
-18,-9,3.554
-24,6,3.555
-27,13,3.556
-22,-3,3.557
-13,-40,3.558
-6,-81,3.559
-4,-98,3.56
-3,-80,3.561
-2,-45,3.562
3,-5,3.563
13,42,3.564
18,88,3.565
18,104,3.566
13,85,3.567
7,62,3.568
5,59,3.569
4,56,3.57
2,35,3.571
-2,11,3.572
-6,6,3.573
-11,7,3.574
-13,0,3.575
-14,-14,3.576
-15,-28,3.577
-10,-33,3.578
4,-27,3.579
19,1,3.58
24,42,3.581
16,68,3.582
10,65,3.583
12,57,3.584
15,56,3.585
7,37,3.586
-1,-33,3.587
-1,-138,3.588
2,-222,3.589
0,-231,3.59
-5,-155,3.591
-8,-23,3.592
-7,95,3.593
-10,151,3.594
-13,142,3.595
-15,117,3.596
-11,107,3.597
-5,94,3.598
6,52,3.599
16,-2,3.6
17,-37,3.601
13,-50,3.602
11,-54,3.603
15,-39,3.604
21,-3,3.605
21,27,3.606
17,21,3.607
12,-8,3.608
10,-26,3.609
6,-21,3.61
0,-6,3.611
-4,1,3.612
-5,4,3.613
-5,-1,3.614
-8,-10,3.615
-12,-14,3.616
-12,-10,3.617
-5,-3,3.618
5,-3,3.619
12,-7,3.62
11,-9,3.621
8,-7,3.622
12,-4,3.623
17,-6,3.624
14,-11,3.625
7,-16,3.626
3,-18,3.627
4,-16,3.628
6,-13,3.629
0,-18,3.63
-5,-21,3.631
-7,-17,3.632
-4,-8,3.633
-4,-5,3.634
-7,-8,3.635
-11,-12,3.636
-13,-15,3.637
-11,-12,3.638
-3,-9,3.639
5,-6,3.64
12,0,3.641
14,6,3.642
14,6,3.643
15,3,3.644
16,1,3.645
13,4,3.646
6,9,3.647
1,10,3.648
2,6,3.649
2,3,3.65
-2,3,3.651
-7,-1,3.652
-8,-3,3.653
-7,-5,3.654
-9,-3,3.655
-11,-5,3.656
-10,-11,3.657
-4,-9,3.658
5,3,3.659
13,14,3.66
15,17,3.661
13,16,3.662
12,23,3.663
13,26,3.664
14,21,3.665
10,17,3.666
8,22,3.667
7,30,3.668
6,34,3.669
0,36,3.67
-4,38,3.671
-6,30,3.672
-2,2,3.673
0,-45,3.674
0,-84,3.675
-3,-96,3.676
-3,-80,3.677
-2,-43,3.678
3,-5,3.679
6,19,3.68
5,18,3.681
5,7,3.682
9,2,3.683
13,4,3.684
13,3,3.685
10,-10,3.686
5,-31,3.687
2,-50,3.688
0,-51,3.689
-2,-29,3.69
-1,7,3.691
-1,32,3.692
-3,34,3.693
-6,26,3.694
-7,28,3.695
-8,34,3.696
-10,32,3.697
-10,28,3.698
-1,31,3.699
12,37,3.7
17,40,3.701
11,39,3.702
6,38,3.703
10,40,3.704
15,38,3.705
14,32,3.706
8,21,3.707
4,1,3.708
5,-18,3.709
3,-31,3.71
0,-33,3.711
-2,-29,3.712
-3,-24,3.713
-6,-20,3.714
-8,-18,3.715
-11,-22,3.716
-12,-31,3.717
-7,-37,3.718
4,-46,3.719
13,-53,3.72
13,-48,3.721
11,-28,3.722
10,-13,3.723
11,-20,3.724
7,-30,3.725
1,-20,3.726
0,12,3.727
2,41,3.728
1,52,3.729
-2,55,3.73
-3,52,3.731
-3,33,3.732
-4,-7,3.733
-7,-54,3.734
-6,-77,3.735
-2,-68,3.736
0,-39,3.737
-3,-4,3.738
-2,23,3.739
3,32,3.74
7,26,3.741
6,24,3.742
11,32,3.743
18,38,3.744
18,31,3.745
5,20,3.746
-5,16,3.747
-6,17,3.748
-2,15,3.749
-1,5,3.75
-2,-4,3.751
0,-14,3.752
3,-19,3.753
0,-23,3.754
-3,-24,3.755
-5,-26,3.756
-7,-33,3.757
-7,-34,3.758
-4,-26,3.759
2,-14,3.76
4,5,3.761
4,27,3.762
6,35,3.763
13,14,3.764
16,-22,3.765
12,-43,3.766
5,-40,3.767
4,-24,3.768
5,-4,3.769
0,18,3.77
-6,31,3.771
-12,22,3.772
-10,2,3.773
-5,-12,3.774
1,-10,3.775
3,-1,3.776
2,3,3.777
1,10,3.778
2,22,3.779
7,38,3.78
10,51,3.781
10,52,3.782
11,40,3.783
16,24,3.784
18,17,3.785
16,6,3.786
9,-31,3.787
3,-115,3.788
2,-215,3.789
5,-256,3.79
9,-171,3.791
11,16,3.792
7,181,3.793
-2,220,3.794
-6,131,3.795
-10,8,3.796
-13,-61,3.797
-15,-60,3.798
-12,-14,3.799
-10,56,3.8
-13,113,3.801
-15,114,3.802
-13,54,3.803
-7,-24,3.804
9,-87,3.805
22,-129,3.806
27,-141,3.807
31,-97,3.808
31,2,3.809
31,112,3.81
26,188,3.811
21,223,3.812
18,224,3.813
14,173,3.814
10,67,3.815
5,-54,3.816
3,-132,3.817
3,-144,3.818
3,-114,3.819
4,-58,3.82
0,28,3.821
-8,104,3.822
-14,87,3.823
-12,-32,3.824
-9,-153,3.825
-7,-178,3.826
-6,-118,3.827
-4,-43,3.828
-6,23,3.829
-11,85,3.83
-13,112,3.831
-10,74,3.832
-7,8,3.833
-4,-26,3.834
3,-15,3.835
10,9,3.836
14,70,3.837
19,115,3.838
27,109,3.839
34,77,3.84
34,-32,3.841
31,-93,3.842
23,-6,3.843
15,60,3.844
10,60,3.845
3,28,3.846
-8,-101,3.847
-17,-219,3.848
-15,-304,3.849
-15,-324,3.85
-20,-148,3.851
-24,6,3.852
-23,97,3.853
-21,135,3.854
-23,-4,3.855
-27,-67,3.856
-26,16,3.857
-18,174,3.858
-6,304,3.859
0,374,3.86
-2,364,3.861
-8,224,3.862
-11,-43,3.863
-9,-316,3.864
-7,-459,3.865
-5,-454,3.866
1,-363,3.867
5,-221,3.868
0,-49,3.869
-7,88,3.87
1,141,3.871
29,137,3.872
53,119,3.873
56,58,3.874
50,-57,3.875
44,-139,3.876
42,-85,3.877
37,78,3.878
27,207,3.879
18,219,3.88
14,168,3.881
10,151,3.882
10,188,3.883
8,242,3.884
2,287,3.885
-4,302,3.886
-14,210,3.887
-21,-68,3.888
-15,-447,3.889
-11,-683,3.89
-11,-616,3.891
-13,-343,3.892
-17,-59,3.893
-18,236,3.894
-15,565,3.895
-12,793,3.896
-11,698,3.897
-6,278,3.898
9,-261,3.899
28,-746,3.9
32,-1051,3.901
23,-995,3.902
18,-547,3.903
25,-66,3.904
29,55,3.905
20,-64,3.906
7,-8,3.907
5,264,3.908
12,429,3.909
13,418,3.91
3,472,3.911
-7,610,3.912
-11,589,3.913
-11,380,3.914
-5,229,3.915
0,100,3.916
1,34,3.917
6,-19,3.918
17,-35,3.919
25,-46,3.92
23,-36,3.921
21,-44,3.922
18,-107,3.923
14,-143,3.924
12,-95,3.925
7,-55,3.926
-6,-45,3.927
-19,-50,3.928
-28,-98,3.929
-37,-100,3.93
-45,41,3.931
-50,109,3.932
-43,-43,3.933
-35,-174,3.934
-28,-194,3.935
-24,-283,3.936
-19,-526,3.937
-15,-695,3.938
-7,-602,3.939
3,-354,3.94
9,-114,3.941
6,99,3.942
2,278,3.943
2,342,3.944
2,263,3.945
0,139,3.946
-1,92,3.947
5,181,3.948
11,380,3.949
10,509,3.95
4,364,3.951
3,-21,3.952
4,-336,3.953
0,-373,3.954
-6,-237,3.955
-13,-130,3.956
-17,-116,3.957
-19,-92,3.958
-10,-41,3.959
-1,52,3.96
4,273,3.961
11,424,3.962
19,360,3.963
26,240,3.964
30,-46,3.965
29,-267,3.966
9,-291,3.967
-8,-314,3.968
-15,-334,3.969
-18,-336,3.97
-8,-285,3.971
0,-188,3.972
0,41,3.973
3,277,3.974
24,431,3.975
60,386,3.976
92,285,3.977
89,287,3.978
53,360,3.979
12,409,3.98
-9,416,3.981
-17,337,3.982
-27,104,3.983
-34,-164,3.984
-24,-203,3.985
0,-6,3.986
17,100,3.987
15,-23,3.988
1,-82,3.989
-9,157,3.99
-13,416,3.991
-14,250,3.992
-17,-315,3.993
-24,-1009,3.994
-31,-1456,3.995
-33,-1462,3.996
-30,-1002,3.997
-28,-271,3.998
-25,323,3.999
-17,498,4.0
0,397,4.001
14,342,4.002
15,426,4.003
6,495,4.004
-3,467,4.005
-2,408,4.006
9,352,4.007
27,278,4.008
41,220,4.009
42,238,4.01
36,246,4.011
30,78,4.012
22,-245,4.013
3,-453,4.014
-23,-320,4.015
-55,-151,4.016
-78,124,4.017
-69,240,4.018
-13,-125,4.019
57,-385,4.02
91,-330,4.021
80,-220,4.022
62,51,4.023
63,268,4.024
66,324,4.025
55,322,4.026
40,147,4.027
38,-40,4.028
39,-265,4.029
25,-383,4.03
-10,-180,4.031
-52,-25,4.032
-83,-15,4.033
-93,-7,4.034
-83,47,4.035
-71,106,4.036
-51,20,4.037
-24,-136,4.038
18,-177,4.039
48,-101,4.04
35,-50,4.041
30,-43,4.042
52,17,4.043
78,128,4.044
114,194,4.045
116,214,4.046
11,244,4.047
-72,217,4.048
-91,19,4.049
-87,-250,4.05
-12,-341,4.051
42,-197,4.052
30,-44,4.053
16,-48,4.054
0,-132,4.055
-10,-138,4.056
-18,-71,4.057
-21,-25,4.058
-22,4,4.059
-24,76,4.06
-17,155,4.061
19,168,4.062
85,153,4.063
142,185,4.064
145,251,4.065
85,287,4.066
2,279,4.067
-60,222,4.068
-91,82,4.069
-107,-128,4.07
-107,-295,4.071
-79,-347,4.072
-40,-340,4.073
-22,-346,4.074
-46,-309,4.075
-95,-151,4.076
-137,77,4.077
-155,225,4.078
-144,213,4.079
-113,116,4.08
-85,44,4.081
-70,21,4.082
-55,10,4.083
-21,-1,4.084
28,11,4.085
85,43,4.086
153,51,4.087
217,27,4.088
241,12,4.089
211,36,4.09
173,59,4.091
156,42,4.092
127,13,4.093
42,6,4.094
-46,19,4.095
-62,27,4.096
-23,31,4.097
-8,48,4.098
-28,56,4.099
-26,41,4.1
14,27,4.101
44,51,4.102
19,77,4.103
-33,14,4.104
-72,-176,4.105
-81,-390,4.106
-58,-466,4.107
-23,-334,4.108
-6,-91,4.109
-16,94,4.11
-20,138,4.111
10,101,4.112
57,82,4.113
81,103,4.114
67,118,4.115
49,96,4.116
56,59,4.117
62,47,4.118
28,46,4.119
-28,37,4.12
-49,27,4.121
-25,26,4.122
9,23,4.123
29,7,4.124
47,-9,4.125
58,-9,4.126
33,-6,4.127
-18,-17,4.128
-51,-45,4.129
-58,-75,4.13
-79,-95,4.131
-120,-89,4.132
-131,-51,4.133
-78,3,4.134
0,36,4.135
49,20,4.136
68,-19,4.137
86,-30,4.138
109,3,4.139
111,60,4.14
78,103,4.141
18,116,4.142
-42,100,4.143
-86,79,4.144
-103,67,4.145
-105,61,4.146
-97,47,4.147
-72,13,4.148
-30,-36,4.149
9,-83,4.15
28,-99,4.151
32,-74,4.152
37,-27,4.153
35,6,4.154
15,1,4.155
-11,-36,4.156
-16,-83,4.157
-2,-121,4.158
12,-148,4.159
17,-144,4.16
22,-67,4.161
25,71,4.162
22,166,4.163
14,113,4.164
9,-39,4.165
5,-111,4.166
2,-19,4.167
0,114,4.168
-5,119,4.169
-10,11,4.17
-14,-55,4.171
-9,-1,4.172
-1,80,4.173
0,84,4.174
-8,33,4.175
-14,-5,4.176
-14,0,4.177
-10,-5,4.178
2,-41,4.179
12,-75,4.18
13,-99,4.181
14,-104,4.182
14,-50,4.183
14,6,4.184
14,71,4.185
13,104,4.186
9,38,4.187
5,-14,4.188
3,-28,4.189
2,-25,4.19
0,32,4.191
-1,90,4.192
0,147,4.193
3,181,4.194
5,99,4.195
0,3,4.196
-5,-27,4.197
-4,-21,4.198
8,-51,4.199
23,-90,4.2
24,-67,4.201
16,-3,4.202
12,23,4.203
14,1,4.204
14,-19,4.205
10,-23,4.206
5,-31,4.207
1,-31,4.208
-6,-2,4.209
-15,35,4.21
-20,37,4.211
-22,16,4.212
-19,9,4.213
-2,10,4.214
34,-3,4.215
60,-28,4.216
52,-46,4.217
23,-60,4.218
8,-84,4.219
12,-104,4.22
6,-99,4.221
-15,-77,4.222
-30,-58,4.223
-26,-41,4.224
-17,-20,4.225
-12,-4,4.226
-4,-2,4.227
4,-2,4.228
1,0,4.229
-9,-5,4.23
-11,-16,4.231
-1,-17,4.232
7,1,4.233
10,21,4.234
20,31,4.235
28,34,4.236
30,38,4.237
31,43,4.238
29,36,4.239
26,9,4.24
18,-43,4.241
11,-117,4.242
7,-178,4.243
3,-165,4.244
4,-61,4.245
5,81,4.246
2,181,4.247
1,216,4.248
-1,214,4.249
-4,192,4.25
-10,144,4.251
-16,74,4.252
-22,13,4.253
11,-18,4.254
23,6,4.255
32,90,4.256
34,177,4.257
35,190,4.258
33,112,4.259
30,18,4.26
20,-27,4.261
12,-47,4.262
6,-88,4.263
2,-136,4.264
3,-136,4.265
4,-81,4.266
1,-13,4.267
-1,31,4.268
-3,34,4.269
-6,4,4.27
-14,-29,4.271
-21,-36,4.272
-27,-21,4.273
-31,-19,4.274
-22,-37,4.275
-12,-57,4.276
-10,-69,4.277
-13,-74,4.278
-11,-77,4.279
-1,-83,4.28
11,-98,4.281
22,-117,4.282
36,-126,4.283
45,-154,4.284
40,-314,4.285
28,-647,4.286
17,-922,4.287
7,-749,4.288
-6,-64,4.289
-18,675,4.29
-24,979,4.291
-22,860,4.292
-20,669,4.293
-21,541,4.294
-21,374,4.295
-21,152,4.296
-18,-6,4.297
-12,-136,4.298
2,-414,4.299
24,-753,4.3
38,-815,4.301
39,-501,4.302
37,-120,4.303
38,32,4.304
36,-21,4.305
21,-68,4.306
0,74,4.307
-9,462,4.308
-6,952,4.309
-3,1241,4.31
-6,1162,4.311
-5,854,4.312
2,562,4.313
5,307,4.314
3,80,4.315
-1,-79,4.316
-4,-168,4.317
-10,-258,4.318
-13,-353,4.319
-10,-329,4.32
-5,-180,4.321
-6,-95,4.322
-16,-168,4.323
-29,-280,4.324
-41,-338,4.325
-52,-428,4.326
-57,-630,4.327
-60,-903,4.328
-63,-1212,4.329
-67,-1523,4.33
-70,-1586,4.331
-73,-1039,4.332
-73,15,4.333
-75,1166,4.334
-74,1810,4.335
-70,1823,4.336
-67,1484,4.337
-65,1031,4.338
-55,544,4.339
-37,157,4.34
-22,-5,4.341
-20,-25,4.342
-18,-84,4.343
-14,-195,4.344
-18,-237,4.345
-28,-207,4.346
-34,-217,4.347
-30,-275,4.348
-27,-299,4.349
-36,-288,4.35
-47,-303,4.351
-49,-327,4.352
-43,-300,4.353
-38,-243,4.354
-36,-223,4.355
-37,-228,4.356
-34,-200,4.357
-27,-150,4.358
-12,-131,4.359
3,-129,4.36
11,-99,4.361
10,-60,4.362
10,-52,4.363
18,-56,4.364
25,-34,4.365
28,-2,4.366
30,5,4.367
34,3,4.368
37,20,4.369
37,38,4.37
37,39,4.371
40,37,4.372
45,51,4.373
48,61,4.374
50,55,4.375
52,50,4.376
52,57,4.377
53,69,4.378
61,70,4.379
67,70,4.38
69,78,4.381
70,81,4.382
64,75,4.383
60,72,4.384
62,75,4.385
63,75,4.386
60,69,4.387
57,65,4.388
52,67,4.389
47,65,4.39
42,60,4.391
38,59,4.392
41,61,4.393
45,57,4.394
48,50,4.395
52,47,4.396
56,37,4.397
53,-3,4.398
43,-103,4.399
32,-223,4.4
23,-241,4.401
17,-65,4.402
13,212,4.403
16,359,4.404
30,269,4.405
57,99,4.406
84,44,4.407
83,94,4.408
41,117,4.409
-14,92,4.41
-39,91,4.411
-23,117,4.412
0,113,4.413
6,72,4.414
4,46,4.415
4,39,4.416
8,8,4.417
9,-39,4.418
12,-83,4.419
16,-169,4.42
16,-349,4.421
13,-561,4.422
14,-722,4.423
19,-843,4.424
22,-900,4.425
23,-658,4.426
27,12,4.427
25,691,4.428
7,775,4.429
-20,374,4.43
-36,254,4.431
-40,682,4.432
-40,1018,4.433
-40,765,4.434
-23,247,4.435
8,-58,4.436
27,-285,4.437
19,-577,4.438
4,-469,4.439
7,319,4.44
18,1099,4.441
21,1097,4.442
20,582,4.443
23,281,4.444
17,236,4.445
-11,62,4.446
-42,-181,4.447
-54,-176,4.448
-50,6,4.449
-49,95,4.45
-51,97,4.451
-43,66,4.452
-23,-152,4.453
-7,-642,4.454
5,-1026,4.455
18,-1050,4.456
30,-1018,4.457
31,-1212,4.458
27,-1243,4.459
27,-559,4.46
19,569,4.461
-8,1128,4.462
-32,555,4.463
-33,-495,4.464
-14,-795,4.465
-1,108,4.466
-1,1341,4.467
0,1689,4.468
1,978,4.469
-5,140,4.47
-14,-82,4.471
-5,61,4.472
17,51,4.473
25,-93,4.474
10,-51,4.475
-16,106,4.476
-26,67,4.477
-20,-106,4.478
-4,-124,4.479
15,-19,4.48
31,-49,4.481
39,-197,4.482
32,-239,4.483
17,-173,4.484
5,-172,4.485
3,-231,4.486
3,-223,4.487
-2,-182,4.488
-10,-214,4.489
-18,-271,4.49
-19,-244,4.491
-16,-177,4.492
-12,-158,4.493
-11,-134,4.494
-11,-21,4.495
-12,103,4.496
-15,97,4.497
-15,7,4.498
-6,-28,4.499
1,2,4.5
3,6,4.501
0,-30,4.502
0,-30,4.503
3,16,4.504
5,44,4.505
-1,39,4.506
-6,44,4.507
-10,62,4.508
-12,60,4.509
-13,37,4.51
-11,23,4.511
-7,12,4.512
-4,-22,4.513
-1,-87,4.514
0,-135,4.515
-5,-135,4.516
-16,-94,4.517
-22,-9,4.518
-15,127,4.519
-1,272,4.52
6,323,4.521
4,232,4.522
0,87,4.523
-1,23,4.524
7,49,4.525
28,60,4.526
58,-6,4.527
76,-73,4.528
61,-49,4.529
33,51,4.53
22,120,4.531
24,88,4.532
15,0,4.533
-15,-55,4.534
-28,-18,4.535
-6,44,4.536
35,31,4.537
70,-25,4.538
89,-18,4.539
79,48,4.54
19,71,4.541
-74,17,4.542
-143,-23,4.543
-149,-5,4.544
-118,10,4.545
-98,-16,4.546
-87,-43,4.547
-52,-55,4.548
-4,-97,4.549
21,-164,4.55
16,-194,4.551
8,-178,4.552
16,-179,4.553
24,-211,4.554
24,-185,4.555
13,-68,4.556
0,54,4.557
-9,122,4.558
1,184,4.559
37,275,4.56
73,308,4.561
84,199,4.562
81,18,4.563
92,-85,4.564
109,-65,4.565
89,-7,4.566
25,15,4.567
-43,11,4.568
-75,-2,4.569
-73,-47,4.57
-67,-118,4.571
-64,-132,4.572
-53,-32,4.573
-29,135,4.574
1,222,4.575
26,167,4.576
49,62,4.577
69,24,4.578
70,52,4.579
36,90,4.58
-17,110,4.581
-47,108,4.582
-41,52,4.583
-30,-52,4.584
-34,-124,4.585
-38,-83,4.586
-16,35,4.587
16,111,4.588
37,94,4.589
41,39,4.59
36,15,4.591
20,14,4.592
0,-5,4.593
-12,-59,4.594
-9,-104,4.595
-11,-112,4.596
-21,-102,4.597
-28,-97,4.598
-22,-120,4.599
-21,-183,4.6
-37,-270,4.601
-47,-308,4.602
-33,-223,4.603
-7,-40,4.604
7,108,4.605
0,122,4.606
-13,45,4.607
-18,-6,4.608
-12,7,4.609
-4,18,4.61
2,-18,4.611
5,-61,4.612
12,-37,4.613
24,56,4.614
35,149,4.615
38,161,4.616
33,84,4.617
32,-2,4.618
41,-19,4.619
50,40,4.62
48,116,4.621
42,150,4.622
39,146,4.623
42,146,4.624
37,170,4.625
23,184,4.626
7,140,4.627
-14,32,4.628
-42,-94,4.629
-69,-194,4.63
-63,-265,4.631
-14,-316,4.632
39,-324,4.633
67,-256,4.634
59,-129,4.635
36,-23,4.636
13,1,4.637
-8,-12,4.638
-23,21,4.639
-23,148,4.64
-16,315,4.641
-6,391,4.642
7,275,4.643
22,6,4.644
26,-242,4.645
13,-324,4.646
-7,-251,4.647
-19,-196,4.648
-25,-325,4.649
-31,-574,4.65
-32,-583,4.651
-27,-31,4.652
-20,796,4.653
-13,1129,4.654
-1,657,4.655
9,200,4.656
4,-206,4.657
-15,-493,4.658
-24,-418,4.659
-12,-305,4.66
0,-79,4.661
-7,142,4.662
-20,352,4.663
-16,492,4.664
0,420,4.665
12,341,4.666
11,247,4.667
10,145,4.668
8,19,4.669
1,-100,4.67
-11,-202,4.671
-24,-263,4.672
-26,-195,4.673
-20,-124,4.674
-6,-46,4.675
7,54,4.676
17,146,4.677
31,132,4.678
49,-2,4.679
61,-145,4.68
53,-214,4.681
33,-235,4.682
18,-225,4.683
16,-158,4.684
14,-49,4.685
4,12,4.686
-1,-9,4.687
1,-45,4.688
7,-36,4.689
8,-10,4.69
7,-13,4.691
1,-29,4.692
-4,-29,4.693
-13,-21,4.694
-14,-24,4.695
-11,-29,4.696
-7,-28,4.697
-4,-25,4.698
0,-24,4.699
0,-18,4.7
-2,-4,4.701
-1,5,4.702
7,3,4.703
13,1,4.704
6,8,4.705
-6,14,4.706
-10,17,4.707
-6,17,4.708
-5,15,4.709
-9,9,4.71
-12,3,4.711
-9,3,4.712
-4,8,4.713
1,9,4.714
5,10,4.715
5,15,4.716
2,18,4.717
0,18,4.718
2,17,4.719
7,22,4.72
9,33,4.721
12,38,4.722
18,33,4.723
21,21,4.724
15,11,4.725
6,6,4.726
7,9,4.727
10,15,4.728
6,16,4.729
0,9,4.73
2,1,4.731
8,-3,4.732
9,0,4.733
2,2,4.734
-1,3,4.735
-3,3,4.736
-6,1,4.737
-6,1,4.738
4,3,4.739
17,6,4.74
15,7,4.741
0,8,4.742
-7,6,4.743
-2,6,4.744
2,9,4.745
-3,11,4.746
-6,6,4.747
-3,-2,4.748
-1,-4,4.749
-3,-1,4.75
-6,-2,4.751
-2,-9,4.752
3,-12,4.753
4,-12,4.754
7,-10,4.755
12,-15,4.756
11,-22,4.757
9,-18,4.758
14,-11,4.759
24,-7,4.76
26,-6,4.761
18,1,4.762
13,8,4.763
16,9,4.764
20,9,4.765
16,9,4.766
10,8,4.767
8,3,4.768
9,0,4.769
8,2,4.77
5,11,4.771
5,15,4.772
9,8,4.773
10,-18,4.774
8,-60,4.775
3,-112,4.776
0,-173,4.777
0,-226,4.778
9,-230,4.779
20,-150,4.78
25,-14,4.781
26,91,4.782
27,121,4.783
25,111,4.784
21,116,4.785
15,146,4.786
15,178,4.787
20,203,4.788
23,216,4.789
25,215,4.79
35,208,4.791
45,210,4.792
44,207,4.793
33,162,4.794
25,79,4.795
26,8,4.796
30,-27,4.797
30,-42,4.798
32,-70,4.799
35,-102,4.8
35,-117,4.801
29,-118,4.802
22,-122,4.803
18,-128,4.804
12,-129,4.805
3,-127,4.806
1,-124,4.807
0,-116,4.808
-5,-103,4.809
-14,-92,4.81
-16,-87,4.811
-16,-76,4.812
-14,-56,4.813
-15,-36,4.814
-14,-27,4.815
-15,-25,4.816
-19,-18,4.817
-23,3,4.818
-23,24,4.819
-28,31,4.82
-45,34,4.821
-63,50,4.822
-70,74,4.823
-71,78,4.824
-80,50,4.825
-95,16,4.826
-108,4,4.827
-116,6,4.828
-122,-5,4.829
-130,-29,4.83
-134,-45,4.831
-134,-49,4.832
-129,-52,4.833
-126,-63,4.834
-123,-67,4.835
-120,-54,4.836
-118,-34,4.837
-119,-20,4.838
-114,-18,4.839
-91,-19,4.84
-62,-12,4.841
-53,-6,4.842
-77,-18,4.843
-121,-63,4.844
-163,-132,4.845
-191,-217,4.846
-201,-290,4.847
-190,-302,4.848
-169,-207,4.849
-153,-28,4.85
-139,153,4.851
-116,271,4.852
-84,320,4.853
-54,317,4.854
-40,270,4.855
-31,200,4.856
-17,145,4.857
3,134,4.858
31,143,4.859
61,137,4.86
85,114,4.861
97,71,4.862
100,2,4.863
102,-68,4.864
104,-99,4.865
101,-91,4.866
97,-84,4.867
102,-97,4.868
113,-110,4.869
117,-132,4.87
117,-213,4.871
118,-365,4.872
123,-519,4.873
123,-630,4.874
118,-718,4.875
108,-835,4.876
103,-903,4.877
117,-671,4.878
150,-12,4.879
181,773,4.88
177,1172,4.881
140,999,4.882
93,582,4.883
60,318,4.884
40,278,4.885
31,366,4.886
31,573,4.887
42,852,4.888
60,957,4.889
77,684,4.89
94,124,4.891
113,-427,4.892
128,-729,4.893
124,-654,4.894
108,-248,4.895
90,140,4.896
88,477,4.897
97,684,4.898
106,501,4.899
109,295,4.9
115,24,4.901
129,-234,4.902
147,-457,4.903
148,-593,4.904
112,-467,4.905
44,-294,4.906
-19,22,4.907
-44,231,4.908
-41,117,4.909
-40,43,4.91
-53,88,4.911
-65,112,4.912
-69,70,4.913
-70,-7,4.914
-69,-310,4.915
-60,-940,4.916
-37,-1741,4.917
-13,-2068,4.918
5,-1393,4.919
18,-42,4.92
21,967,4.921
15,1029,4.922
6,562,4.923
0,273,4.924
-5,187,4.925
-10,-85,4.926
-12,-334,4.927
-13,99,4.928
-15,1122,4.929
-10,1736,4.93
8,1408,4.931
28,757,4.932
36,492,4.933
30,424,4.934
22,201,4.935
15,25,4.936
19,-12,4.937
23,-100,4.938
28,-338,4.939
30,-515,4.94
24,-505,4.941
20,-451,4.942
22,-265,4.943
23,-101,4.944
17,-6,4.945
10,11,4.946
0,-209,4.947
-9,-359,4.948
-18,-295,4.949
-25,-246,4.95
-28,-250,4.951
-31,-253,4.952
-30,-253,4.953
-28,-267,4.954
-29,-328,4.955
-31,-318,4.956
-35,-215,4.957
-37,-128,4.958
-32,-86,4.959
-25,-3,4.96
-23,105,4.961
-26,119,4.962
-26,47,4.963
-23,37,4.964
-23,127,4.965
-26,207,4.966
-28,205,4.967
-27,163,4.968
-22,113,4.969
-16,47,4.97
-10,-7,4.971
-11,-7,4.972
-22,25,4.973
-42,36,4.974
-62,18,4.975
-71,4,4.976
-47,-5,4.977
-17,-18,4.978
30,-29,4.979
62,-23,4.98
48,-13,4.981
43,-9,4.982
68,1,4.983
85,23,4.984
75,30,4.985
54,15,4.986
-3,5,4.987
-51,15,4.988
-71,24,4.989
-80,12,4.99
-56,-5,4.991
-36,-14,4.992
-30,-18,4.993
-24,-25,4.994
-8,-27,4.995
20,-20,4.996
46,-4,4.997
58,28,4.998
51,67,4.999
8,95,5.0
-71,102,5.001
-146,97,5.002
-163,89,5.003
-123,72,5.004
-64,46,5.005
-7,22,5.006
40,0,5.007
57,-26,5.008
36,-55,5.009
22,-72,5.01
58,-63,5.011
112,-43,5.012
109,-25,5.013
16,-12,5.014
-69,-4,5.015
-97,-1,5.016
-74,-5,5.017
-21,-5,5.018
60,-3,5.019
141,-3,5.02
162,-11,5.021
101,-36,5.022
3,-86,5.023
-59,-143,5.024
-69,-164,5.025
-61,-101,5.026
-63,28,5.027
-73,130,5.028
-94,114,5.029
-123,1,5.03
-129,-69,5.031
-82,-3,5.032
-8,130,5.033
40,189,5.034
42,120,5.035
37,16,5.036
55,-5,5.037
71,56,5.038
56,91,5.039
32,19,5.04
39,-111,5.041
70,-169,5.042
86,-80,5.043
75,84,5.044
46,173,5.045
11,97,5.046
-30,-90,5.047
-72,-245,5.048
-95,-241,5.049
-85,-46,5.05
-51,246,5.051
-20,455,5.052
-7,453,5.053
16,258,5.054
72,43,5.055
110,-99,5.056
89,-23,5.057
67,46,5.058
44,94,5.059
26,99,5.06
27,-25,5.061
29,-86,5.062
28,46,5.063
33,171,5.064
60,277,5.065
76,265,5.066
55,-104,5.067
39,-444,5.068
38,-690,5.069
37,-832,5.07
40,-661,5.071
33,-511,5.072
-8,-422,5.073
-55,-351,5.074
-102,-219,5.075
-105,225,5.076
-97,761,5.077
-107,923,5.078
-122,626,5.079
-120,305,5.08
-102,264,5.081
-70,273,5.082
-21,47,5.083
30,-237,5.084
56,-251,5.085
50,-49,5.086
30,53,5.087
9,-34,5.088
-5,-123,5.089
-8,-51,5.09
-7,167,5.091
-21,376,5.092
-55,398,5.093
-88,165,5.094
-84,-132,5.095
-49,-248,5.096
-14,-209,5.097
7,-229,5.098
28,-316,5.099
57,-252,5.1
80,15,5.101
85,255,5.102
80,308,5.103
75,255,5.104
67,181,5.105
48,54,5.106
27,-118,5.107
14,-225,5.108
-2,-221,5.109
-29,-187,5.11
-58,-168,5.111
-65,-132,5.112
-49,-82,5.113
-31,-67,5.114
-21,-74,5.115
-21,-49,5.116
-21,-13,5.117
-12,-16,5.118
13,-46,5.119
40,-42,5.12
49,-12,5.121
38,-10,5.122
27,-29,5.123
25,-26,5.124
20,-6,5.125
6,-6,5.126
0,-16,5.127
12,-5,5.128
15,11,5.129
1,2,5.13
-7,-18,5.131
1,-20,5.132
18,-8,5.133
21,-3,5.134
17,-1,5.135
12,1,5.136
6,2,5.137
2,3,5.138
3,4,5.139
5,7,5.14
10,18,5.141
14,25,5.142
15,19,5.143
17,15,5.144
17,15,5.145
15,16,5.146
12,17,5.147
8,19,5.148
6,24,5.149
2,28,5.15
-3,26,5.151
-9,23,5.152
-10,16,5.153
-10,9,5.154
-7,6,5.155
0,8,5.156
9,9,5.157
17,13,5.158
26,24,5.159
34,25,5.16
30,7,5.161
16,-5,5.162
0,11,5.163
-13,48,5.164
-23,71,5.165
-31,69,5.166
-29,61,5.167
-23,57,5.168
-17,48,5.169
-12,28,5.17
0,10,5.171
16,1,5.172
22,-4,5.173
18,-16,5.174
13,-24,5.175
14,-30,5.176
21,-33,5.177
30,-35,5.178
36,-31,5.179
36,-27,5.18
25,-27,5.181
6,-26,5.182
-4,-20,5.183
-4,-13,5.184
-4,-1,5.185
-11,9,5.186
-16,11,5.187
-5,14,5.188
13,16,5.189
13,17,5.19
-10,15,5.191
-30,12,5.192
-24,8,5.193
2,5,5.194
22,8,5.195
26,13,5.196
30,12,5.197
39,9,5.198
45,3,5.199
41,-11,5.2
40,-47,5.201
49,-105,5.202
55,-161,5.203
47,-178,5.204
35,-134,5.205
29,-47,5.206
31,38,5.207
33,80,5.208
34,66,5.209
36,4,5.21
37,-91,5.211
39,-175,5.212
51,-183,5.213
67,-49,5.214
75,176,5.215
69,361,5.216
64,419,5.217
65,433,5.218
68,311,5.219
63,198,5.22
54,108,5.221
49,38,5.222
48,27,5.223
51,3,5.224
50,-59,5.225
32,-129,5.226
-1,-221,5.227
-33,-295,5.228
-50,-319,5.229
-53,-356,5.23
-60,-435,5.231
-76,-471,5.232
-88,-377,5.233
-96,-236,5.234
-104,83,5.235
-116,408,5.236
-128,615,5.237
-134,642,5.238
-137,510,5.239
-139,324,5.24
-141,187,5.241
-143,123,5.242
-150,87,5.243
-170,30,5.244
-197,-52,5.245
-223,-118,5.246
-242,-144,5.247
-254,-140,5.248
-256,-131,5.249
-252,-120,5.25
-241,-99,5.251
-228,-71,5.252
-217,-47,5.253
-213,-52,5.254
-208,-95,5.255
-196,-155,5.256
-178,-196,5.257
-161,-195,5.258
-144,-179,5.259
-128,-179,5.26
-114,-190,5.261
-106,-203,5.262
-100,-255,5.263
-93,-384,5.264
-86,-537,5.265
-80,-574,5.266
-73,-406,5.267
-55,-85,5.268
-27,254,5.269
3,515,5.27
29,655,5.271
53,650,5.272
75,527,5.273
95,345,5.274
112,207,5.275
127,133,5.276
147,69,5.277
174,3,5.278
203,-37,5.279
221,-51,5.28
223,-70,5.281
215,-98,5.282
212,-101,5.283
217,-83,5.284
217,-81,5.285
207,-96,5.286
197,-94,5.287
194,-69,5.288
195,-54,5.289
189,-56,5.29
176,-48,5.291
169,-28,5.292
169,-17,5.293
162,-19,5.294
152,-12,5.295
142,-4,5.296
134,1,5.297
128,9,5.298
130,19,5.299
131,27,5.3
129,28,5.301
125,27,5.302
113,17,5.303
101,-11,5.304
94,-96,5.305
85,-173,5.306
74,-225,5.307
63,-236,5.308
57,-121,5.309
50,-27,5.31
43,0,5.311
35,18,5.312
25,10,5.313
14,17,5.314
-3,111,5.315
-11,270,5.316
-13,379,5.317
-9,240,5.318
-2,-297,5.319
12,-1087,5.32
21,-1563,5.321
17,-1094,5.322
5,280,5.323
-2,1609,5.324
-5,1939,5.325
-7,1380,5.326
-6,837,5.327
-6,760,5.328
-11,748,5.329
-18,424,5.33
-17,40,5.331
-7,-55,5.332
0,24,5.333
-8,-18,5.334
-18,-239,5.335
-17,-475,5.336
-5,-539,5.337
10,-298,5.338
28,137,5.339
45,352,5.34
45,71,5.341
20,-411,5.342
-14,-587,5.343
-36,-413,5.344
-51,-264,5.345
-72,-365,5.346
-88,-620,5.347
-72,-792,5.348
-27,-573,5.349
19,183,5.35
38,1043,5.351
31,1246,5.352
14,711,5.353
-7,132,5.354
-24,4,5.355
-33,-102,5.356
-12,-142,5.357
14,-136,5.358
55,9,5.359
72,85,5.36
14,-49,5.361
-35,-172,5.362
-60,-256,5.363
-78,-349,5.364
-75,-473,5.365
-66,-450,5.366
-39,13,5.367
-18,369,5.368
-16,401,5.369
-19,365,5.37
-40,121,5.371
-50,-90,5.372
-27,-203,5.373
-8,-318,5.374
-20,-379,5.375
-46,-286,5.376
-62,-65,5.377
-57,154,5.378
-41,230,5.379
-38,148,5.38
-58,48,5.381
-72,38,5.382
-46,54,5.383
13,-4,5.384
76,-95,5.385
118,-115,5.386
124,-80,5.387
77,-69,5.388
2,-77,5.389
-39,-43,5.39
-3,17,5.391
61,48,5.392
75,47,5.393
9,44,5.394
-92,32,5.395
-181,-6,5.396
-227,-50,5.397
-211,-57,5.398
-136,-46,5.399
-43,-49,5.4
29,-54,5.401
70,-36,5.402
69,-8,5.403
-2,5,5.404
-119,9,5.405
-186,20,5.406
-140,32,5.407
-36,39,5.408
44,46,5.409
98,50,5.41
158,40,5.411
206,15,5.412
211,-14,5.413
197,-51,5.414
196,-85,5.415
182,-85,5.416
115,-28,5.417
19,71,5.418
-52,144,5.419
-92,153,5.42
-117,115,5.421
-111,73,5.422
-64,38,5.423
-29,4,5.424
-63,-14,5.425
-158,-6,5.426
-252,16,5.427
-271,22,5.428
-163,2,5.429
41,-23,5.43
207,-52,5.431
225,-87,5.432
169,-116,5.433
175,-113,5.434
255,-63,5.435
273,3,5.436
168,48,5.437
34,49,5.438
-40,-5,5.439
-80,-92,5.44
-120,-131,5.441
-134,-55,5.442
-109,87,5.443
-93,183,5.444
-106,200,5.445
-100,194,5.446
-56,183,5.447
-10,120,5.448
16,41,5.449
45,47,5.45
79,132,5.451
87,153,5.452
74,62,5.453
30,-49,5.454
50,-72,5.455
67,-52,5.456
75,-71,5.457
91,-132,5.458
112,-232,5.459
124,-375,5.46
112,-469,5.461
91,-387,5.462
46,-174,5.463
1,-3,5.464
-48,85,5.465
-89,193,5.466
-110,307,5.467
-130,301,5.468
-130,199,5.469
-130,169,5.47
-122,228,5.471
-102,218,5.472
-60,111,5.473
5,48,5.474
10,80,5.475
14,112,5.476
16,142,5.477
20,179,5.478
25,236,5.479
28,201,5.48
25,-112,5.481
20,-381,5.482
9,-518,5.483
-2,-567,5.484
-14,-349,5.485
-24,-157,5.486
-29,-42,5.487
-34,21,5.488
-34,-68,5.489
-34,-123,5.49
-32,-73,5.491
-27,-44,5.492
-17,-80,5.493
-7,-110,5.494
-3,-114,5.495
-2,-102,5.496
-5,3,5.497
-9,262,5.498
-7,501,5.499
5,498,5.5
18,314,5.501
21,188,5.502
18,145,5.503
14,-4,5.504
8,-283,5.505
1,-467,5.506
-2,-427,5.507
0,-258,5.508
4,-74,5.509
4,102,5.51
3,211,5.511
5,175,5.512
11,72,5.513
16,45,5.514
24,124,5.515
31,187,5.516
32,163,5.517
30,101,5.518
37,20,5.519
54,-66,5.52
60,-56,5.521
44,109,5.522
15,276,5.523
-8,240,5.524
-19,32,5.525
-22,-138,5.526
-15,-180,5.527
0,-171,5.528
14,-161,5.529
21,-115,5.53
24,-58,5.531
21,-49,5.532
8,-67,5.533
-5,-56,5.534
-9,-30,5.535
-12,-17,5.536
-16,-46,5.537
-18,-63,5.538
-13,-44,5.539
-10,-32,5.54
-14,-46,5.541
-18,-51,5.542
-20,-28,5.543
-20,-14,5.544
-10,-26,5.545
-3,-33,5.546
-7,-23,5.547
-9,-17,5.548
-5,-22,5.549
-2,-24,5.55
-4,-14,5.551
-6,-7,5.552
-6,-6,5.553
-5,0,5.554
-4,20,5.555
-7,26,5.556
-10,19,5.557
-3,24,5.558
16,37,5.559
33,40,5.56
29,32,5.561
11,26,5.562
-2,23,5.563
2,16,5.564
12,11,5.565
9,15,5.566
0,23,5.567
-9,25,5.568
-10,24,5.569
-4,26,5.57
11,25,5.571
27,21,5.572
34,25,5.573
38,30,5.574
44,32,5.575
49,27,5.576
50,17,5.577
49,18,5.578
53,23,5.579
56,28,5.58
46,30,5.581
23,30,5.582
3,23,5.583
-2,8,5.584
-1,-2,5.585
0,-6,5.586
4,-4,5.587
15,-3,5.588
25,-3,5.589
30,-2,5.59
32,0,5.591
36,3,5.592
40,9,5.593
45,7,5.594
55,2,5.595
67,0,5.596
77,-2,5.597
85,-3,5.598
94,-9,5.599
104,-19,5.6
103,-25,5.601
91,-29,5.602
79,-31,5.603
77,-26,5.604
80,-5,5.605
81,27,5.606
78,54,5.607
78,61,5.608
76,52,5.609
67,39,5.61
52,26,5.611
39,9,5.612
33,-5,5.613
-319,101,5.614
-335,96,5.615
-348,88,5.616
-346,79,5.617
-344,73,5.618
-342,74,5.619
-340,76,5.62
-335,80,5.621
-328,84,5.622
-316,86,5.623
-305,89,5.624
-297,96,5.625
-289,105,5.626
-273,115,5.627
-253,122,5.628
-215,120,5.629
-175,117,5.63
-131,111,5.631
-85,106,5.632
-36,102,5.633
-312,149,5.634
-326,88,5.635
-337,20,5.636
-335,-66,5.637
-334,-127,5.638
-332,-115,5.639
-330,-96,5.64
-326,-58,5.641
-320,-24,5.642
-310,-4,5.643
-300,29,5.644
-294,104,5.645
-287,184,5.646
-273,279,5.647
-255,345,5.648
-223,326,5.649
-189,298,5.65
-151,244,5.651
-112,193,5.652
-70,153,5.653
-27,221,5.654
5,75,5.655
25,-84,5.656
41,-284,5.657
61,-428,5.658
92,-398,5.659
124,-354,5.66
141,-266,5.661
148,-187,5.662
158,-140,5.663
178,-61,5.664
204,115,5.665
227,303,5.666
249,525,5.667
267,681,5.668
276,635,5.669
273,569,5.67
268,443,5.671
263,325,5.672
262,231,5.673
266,161,5.674
277,170,5.675
294,121,5.676
307,17,5.677
315,-46,5.678
315,-81,5.679
305,-153,5.68
282,-225,5.681
257,-219,5.682
236,-177,5.683
219,-205,5.684
199,-294,5.685
179,-341,5.686
167,-299,5.687
159,-199,5.688
148,-84,5.689
132,6,5.69
115,35,5.691
100,18,5.692
90,8,5.693
80,13,5.694
74,-6,5.695
66,-20,5.696
54,-15,5.697
45,-14,5.698
44,-29,5.699
42,-36,5.7
40,-15,5.701
35,-1,5.702
24,-10,5.703
13,-12,5.704
7,7,5.705
0,19,5.706
-9,8,5.707
-18,-28,5.708
-21,-136,5.709
-25,-363,5.71
-31,-948,5.711
-36,-1388,5.712
-32,-1396,5.713
-26,-1183,5.714
-23,-222,5.715
-30,475,5.716
-46,716,5.717
-57,892,5.718
-61,1179,5.719
-67,1257,5.72
-79,1011,5.721
-85,875,5.722
-74,1104,5.723
-51,1317,5.724
-29,1152,5.725
-16,801,5.726
-7,536,5.727
2,236,5.728
18,-201,5.729
32,-500,5.73
36,-459,5.731
22,-309,5.732
0,-283,5.733
-5,-299,5.734
7,-254,5.735
10,-278,5.736
-12,-425,5.737
-32,-465,5.738
-25,-279,5.739
-5,-78,5.74
-4,-62,5.741
-21,-135,5.742
-28,-156,5.743
-18,-163,5.744
-13,-215,5.745
-23,-240,5.746
-35,-212,5.747
-37,-229,5.748
-36,-323,5.749
-39,-362,5.75
-42,-252,5.751
-38,-66,5.752
-32,51,5.753
-34,62,5.754
-36,13,5.755
-36,-27,5.756
-31,-15,5.757
-26,46,5.758
-22,97,5.759
-32,92,5.76
-67,47,5.761
-102,7,5.762
-90,-11,5.763
-29,-6,5.764
20,32,5.765
9,85,5.766
-31,107,5.767
-24,90,5.768
42,75,5.769
119,80,5.77
168,71,5.771
184,37,5.772
154,13,5.773
57,20,5.774
-62,26,5.775
-123,-2,5.776
-106,-48,5.777
-71,-70,5.778
-57,-79,5.779
-36,-96,5.78
12,-99,5.781
52,-63,5.782
43,-16,5.783
-8,2,5.784
-68,-5,5.785
-115,-5,5.786
-128,12,5.787
-104,27,5.788
-71,27,5.789
-66,22,5.79
-77,14,5.791
-59,-2,5.792
-12,-14,5.793
19,-15,5.794
17,-2,5.795
15,8,5.796
33,8,5.797
25,9,5.798
-29,19,5.799
-69,29,5.8
-30,28,5.801
52,18,5.802
102,16,5.803
99,20,5.804
72,15,5.805
32,-29,5.806
-20,-136,5.807
-45,-262,5.808
-26,-280,5.809
-1,-104,5.81
-2,169,5.811
1,322,5.812
43,277,5.813
82,139,5.814
57,49,5.815
-16,-10,5.816
-58,-110,5.817
-46,-182,5.818
-23,-133,5.819
-19,-20,5.82
-20,45,5.821
1,75,5.822
44,133,5.823
84,161,5.824
89,77,5.825
59,-17,5.826
37,41,5.827
60,205,5.828
108,260,5.829
118,123,5.83
56,-76,5.831
-49,-192,5.832
-130,-207,5.833
-156,-162,5.834
-134,-94,5.835
-99,-53,5.836
-66,-48,5.837
-21,16,5.838
40,213,5.839
78,410,5.84
63,383,5.841
23,122,5.842
0,-122,5.843
2,-150,5.844
18,-42,5.845
42,3,5.846
52,-63,5.847
0,-154,5.848
-102,-218,5.849
-163,-288,5.85
-123,-339,5.851
-35,-269,5.852
14,-62,5.853
37,174,5.854
71,261,5.855
86,172,5.856
43,54,5.857
7,37,5.858
-2,77,5.859
-6,75,5.86
12,21,5.861
28,-36,5.862
34,-106,5.863
40,-215,5.864
40,-299,5.865
39,-252,5.866
35,-90,5.867
27,30,5.868
12,4,5.869
0,-95,5.87
1,-144,5.871
0,-110,5.872
-5,-14,5.873
-10,180,5.874
-4,440,5.875
2,594,5.876
-8,493,5.877
-22,247,5.878
-20,85,5.879
-14,55,5.88
-24,42,5.881
-41,12,5.882
-38,37,5.883
-19,103,5.884
-10,83,5.885
-18,-31,5.886
-24,-122,5.887
-23,-141,5.888
-19,-162,5.889
-15,-199,5.89
-2,-184,5.891
12,-104,5.892
17,-34,5.893
12,-4,5.894
16,1,5.895
24,-53,5.896
25,-201,5.897
14,-329,5.898
5,-292,5.899
2,-143,5.9
-5,-73,5.901
-17,-110,5.902
-18,-86,5.903
-5,52,5.904
4,161,5.905
2,161,5.906
-1,163,5.907
2,228,5.908
8,234,5.909
8,98,5.91
13,-64,5.911
24,-118,5.912
37,-89,5.913
40,-50,5.914
37,-3,5.915
31,52,5.916
22,55,5.917
13,-21,5.918
9,-98,5.919
12,-95,5.92
14,-34,5.921
7,12,5.922
2,28,5.923
7,34,5.924
9,44,5.925
1,52,5.926
-9,60,5.927
-16,61,5.928
-19,50,5.929
-19,35,5.93
-15,30,5.931
-6,25,5.932
5,7,5.933
10,-10,5.934
10,-10,5.935
9,-12,5.936
5,-20,5.937
3,-26,5.938
11,-26,5.939
16,-25,5.94
6,-19,5.941
-4,-14,5.942
-16,-10,5.943
-26,-6,5.944
-28,-3,5.945
-29,-1,5.946
-20,0,5.947
-11,0,5.948
-1,-8,5.949
6,-13,5.95
4,-10,5.951
4,-7,5.952
12,-10,5.953
19,-11,5.954
17,-2,5.955
10,9,5.956
4,9,5.957
11,7,5.958
24,11,5.959
33,23,5.96
33,34,5.961
28,36,5.962
27,27,5.963
25,12,5.964
13,2,5.965
-5,6,5.966
-14,14,5.967
-13,17,5.968
-10,12,5.969
-10,5,5.97
-6,-1,5.971
1,-6,5.972
8,-11,5.973
11,-20,5.974
14,-28,5.975
17,-33,5.976
14,-36,5.977
11,-32,5.978
16,-23,5.979
27,-11,5.98
34,-1,5.981
30,3,5.982
25,2,5.983
24,2,5.984
21,6,5.985
12,11,5.986
4,14,5.987
4,16,5.988
7,23,5.989
10,30,5.99
13,29,5.991
20,19,5.992
32,16,5.993
40,16,5.994
45,17,5.995
51,12,5.996
59,2,5.997
72,1,5.998
85,7,5.999
86,11,6.0
70,9,6.001
50,4,6.002
41,0,6.003
44,-7,6.004
39,-15,6.005
19,-17,6.006
3,-14,6.007
2,-10,6.008
12,-10,6.009
14,-7,6.01
9,-3,6.011
16,-7,6.012
34,-30,6.013
48,-76,6.014
49,-130,6.015
40,-167,6.016
34,-153,6.017
34,-132,6.018
37,-86,6.019
36,-58,6.02
24,-82,6.021
5,-82,6.022
-14,-6,6.023
-31,78,6.024
-49,182,6.025
-67,267,6.026
-78,298,6.027
-81,303,6.028
-86,229,6.029
-98,160,6.03
-105,102,6.031
-105,40,6.032
-104,-34,6.033
-112,-116,6.034
-130,-179,6.035
-155,-130,6.036
-179,-12,6.037
-201,61,6.038
-214,42,6.039
-221,5,6.04
-232,15,6.041
-248,50,6.042
-260,63,6.043
-263,52,6.044
-264,32,6.045
-265,-3,6.046
-262,-41,6.047
-250,-53,6.048
-237,-43,6.049
-233,-62,6.05
-230,-125,6.051
-219,-176,6.052
-199,-173,6.053
-181,-143,6.054
-164,-131,6.055
-151,-136,6.056
-134,-137,6.057
-112,-126,6.058
-88,-114,6.059
-62,-103,6.06
-36,-90,6.061
-12,-87,6.062
9,-110,6.063
28,-167,6.064
43,-239,6.065
62,-269,6.066
85,-191,6.067
105,-4,6.068
120,205,6.069
132,330,6.07
150,327,6.071
170,231,6.072
185,114,6.073
193,10,6.074
197,-36,6.075
201,-28,6.076
205,-15,6.077
207,-47,6.078
210,-157,6.079
213,-333,6.08
213,-507,6.081
206,-571,6.082
198,-482,6.083
194,-293,6.084
190,-68,6.085
185,211,6.086
179,532,6.087
169,762,6.088
155,781,6.089
139,655,6.09
133,548,6.091
137,507,6.092
146,459,6.093
150,357,6.094
154,248,6.095
157,158,6.096
154,56,6.097
151,-48,6.098
153,-111,6.099
150,-123,6.1
132,-129,6.101
110,-149,6.102
80,-160,6.103
55,-144,6.104
45,-126,6.105
37,-140,6.106
31,-207,6.107
23,-304,6.108
9,-372,6.109
-6,-419,6.11
-24,-591,6.111
-39,-945,6.112
-47,-1169,6.113
-53,-807,6.114
-56,131,6.115
-47,963,6.116
-29,1093,6.117
-14,737,6.118
-5,492,6.119
0,510,6.12
9,518,6.121
19,424,6.122
22,353,6.123
21,237,6.124
21,-82,6.125
28,-375,6.126
37,-229,6.127
39,280,6.128
36,587,6.129
27,388,6.13
15,-53,6.131
-2,-397,6.132
-15,-579,6.133
-22,-621,6.134
-23,-432,6.135
-23,-87,6.136
-20,112,6.137
-9,58,6.138
0,-12,6.139
2,61,6.14
1,123,6.141
12,51,6.142
28,1,6.143
29,96,6.144
-1,176,6.145
-45,104,6.146
-69,23,6.147
-69,99,6.148
-72,232,6.149
-89,239,6.15
-93,132,6.151
-65,40,6.152
-31,-2,6.153
-17,-41,6.154
-21,-66,6.155
-21,-66,6.156
-8,-79,6.157
0,-124,6.158
2,-166,6.159
3,-180,6.16
0,-192,6.161
-12,-201,6.162
-20,-158,6.163
-13,-65,6.164
0,-9,6.165
0,-45,6.166
-9,-124,6.167
-17,-172,6.168
-21,-185,6.169
-30,-188,6.17
-48,-161,6.171
-75,-85,6.172
-102,-19,6.173
-112,-36,6.174
-89,-120,6.175
-65,-161,6.176
-42,-91,6.177
-9,40,6.178
49,129,6.179
99,146,6.18
120,129,6.181
119,121,6.182
52,143,6.183
0,199,6.184
-10,250,6.185
-9,235,6.186
25,139,6.187
55,27,6.188
67,-11,6.189
61,45,6.19
3,133,6.191
-45,164,6.192
-65,94,6.193
-89,-54,6.194
-122,-178,6.195
-123,-207,6.196
-108,-171,6.197
-119,-127,6.198
-145,-84,6.199
-129,-26,6.2
-69,12,6.201
-14,-3,6.202
14,-37,6.203
47,-37,6.204
114,-18,6.205
192,-34,6.206
218,-69,6.207
145,-61,6.208
1,-15,6.209
-113,5,6.21
-135,-19,6.211
-98,-36,6.212
-66,-29,6.213
-34,-35,6.214
18,-59,6.215
55,-40,6.216
40,45,6.217
18,127,6.218
36,127,6.219
57,74,6.22
25,44,6.221
-22,54,6.222
-24,51,6.223
-5,5,6.224
-32,-84,6.225
-86,-204,6.226
-89,-311,6.227
-16,-293,6.228
77,-97,6.229
143,141,6.23
174,220,6.231
178,128,6.232
165,51,6.233
128,95,6.234
67,169,6.235
-14,157,6.236
-80,99,6.237
-99,107,6.238
-82,157,6.239
-67,147,6.24
-57,57,6.241
-31,-57,6.242
4,-161,6.243
25,-203,6.244
32,-82,6.245
44,206,6.246
47,458,6.247
17,443,6.248
-39,195,6.249
-95,-29,6.25
-129,-69,6.251
-123,-16,6.252
-67,-9,6.253
2,-70,6.254
32,-129,6.255
50,-173,6.256
30,-248,6.257
10,-361,6.258
-10,-459,6.259
-24,-482,6.26
-22,-417,6.261
-21,-270,6.262
-20,-40,6.263
-15,230,6.264
2,415,6.265
24,394,6.266
60,223,6.267
83,97,6.268
64,120,6.269
45,189,6.27
26,173,6.271
11,85,6.272
5,-6,6.273
8,-140,6.274
31,-310,6.275
21,-364,6.276
1,-166,6.277
5,138,6.278
17,246,6.279
9,94,6.28
-8,-79,6.281
-9,-92,6.282
-5,-8,6.283
-13,57,6.284
-27,110,6.285
-35,170,6.286
-45,181,6.287
-56,120,6.288
-51,60,6.289
-27,51,6.29
-8,43,6.291
-10,-1,6.292
-15,-34,6.293
-4,-30,6.294
7,-29,6.295
13,-57,6.296
14,-82,6.297
10,-81,6.298
-2,-110,6.299
-9,-190,6.3
-1,-237,6.301
14,-164,6.302
15,-10,6.303
6,95,6.304
3,76,6.305
6,-23,6.306
0,-99,6.307
-7,-92,6.308
-8,-24,6.309
-1,41,6.31
6,52,6.311
15,6,6.312
29,-54,6.313
33,-102,6.314
20,-111,6.315
0,-78,6.316
-8,-15,6.317
0,72,6.318
15,144,6.319
27,157,6.32
34,111,6.321
30,69,6.322
14,92,6.323
-2,147,6.324
-7,154,6.325
-4,89,6.326
3,16,6.327
15,-12,6.328
29,-15,6.329
38,-27,6.33
32,-39,6.331
15,-34,6.332
4,-24,6.333
2,-36,6.334
1,-56,6.335
-7,-57,6.336
-12,-49,6.337
-8,-45,6.338
0,-46,6.339
4,-39,6.34
-2,-28,6.341
-10,-28,6.342
-11,-49,6.343
-7,-84,6.344
-4,-107,6.345
-5,-73,6.346
-9,21,6.347
-13,112,6.348
-15,127,6.349
-15,79,6.35
-9,39,6.351
1,37,6.352
11,38,6.353
12,26,6.354
14,23,6.355
17,33,6.356
20,21,6.357
19,-8,6.358
11,-17,6.359
-6,5,6.36
-24,23,6.361
-34,16,6.362
-31,10,6.363
-20,12,6.364
-9,7,6.365
-5,-14,6.366
-9,-26,6.367
-17,-19,6.368
-23,-15,6.369
-19,-21,6.37
-9,-20,6.371
-1,-10,6.372
1,-4,6.373
2,-11,6.374
11,-16,6.375
14,-14,6.376
10,-14,6.377
8,-16,6.378
22,-12,6.379
35,-5,6.38
33,0,6.381
19,4,6.382
15,12,6.383
22,20,6.384
28,23,6.385
25,20,6.386
22,19,6.387
27,16,6.388
33,12,6.389
33,12,6.39
31,17,6.391
28,22,6.392
28,21,6.393
30,15,6.394
28,13,6.395
26,13,6.396
41,10,6.397
81,8,6.398
134,12,6.399
153,16,6.4
113,15,6.401
39,11,6.402
-23,7,6.403
-48,2,6.404
-49,0,6.405
-48,0,6.406
-38,-1,6.407
-16,-7,6.408
7,-15,6.409
18,-18,6.41
28,-13,6.411
53,-9,6.412
85,-8,6.413
104,-24,6.414
106,-54,6.415
102,-89,6.416
99,-104,6.417
93,-81,6.418
87,-42,6.419
87,-25,6.42
84,-40,6.421
70,-82,6.422
48,-124,6.423
31,-116,6.424
21,7,6.425
14,232,6.426
13,432,6.427
17,485,6.428
15,390,6.429
-1,230,6.43
-25,58,6.431
-45,-106,6.432
-62,-238,6.433
-86,-390,6.434
-109,-488,6.435
-128,-546,6.436
-147,-468,6.437
-167,-419,6.438
-180,-488,6.439
-185,-512,6.44
-197,-380,6.441
-219,-277,6.442
-240,-262,6.443
-250,-208,6.444
-254,-43,6.445
-260,99,6.446
-262,187,6.447
-260,275,6.448
-257,363,6.449
-260,408,6.45
-264,329,6.451
-264,285,6.452
-259,334,6.453
-255,-168,6.454
-249,-188,6.455
-243,-200,6.456
-234,-184,6.457
-222,-174,6.458
-202,-188,6.459
-184,-193,6.46
-177,-166,6.461
-167,-145,6.462
-147,-142,6.463
-124,-131,6.464
-96,-97,6.465
-68,-68,6.466
-39,-50,6.467
-12,-32,6.468
9,-14,6.469
32,-5,6.47
58,-21,6.471
84,-30,6.472
106,-20,6.473
129,-12,6.474
146,-12,6.475
162,-14,6.476
173,-11,6.477
182,-5,6.478
196,0,6.479
211,7,6.48
216,21,6.481
213,32,6.482
211,32,6.483
215,32,6.484
214,35,6.485
207,38,6.486
205,36,6.487
208,35,6.488
210,37,6.489
205,33,6.49
197,22,6.491
193,15,6.492
191,20,6.493
185,31,6.494
181,34,6.495
175,35,6.496
169,39,6.497
162,46,6.498
160,38,6.499
156,0,6.5
146,-82,6.501
130,-184,6.502
122,-248,6.503
121,-237,6.504
117,-172,6.505
103,-88,6.506
90,39,6.507
86,239,6.508
83,442,6.509
74,526,6.51
64,451,6.511
62,276,6.512
69,93,6.513
76,-64,6.514
75,-109,6.515
65,-13,6.516
52,89,6.517
46,35,6.518
47,-142,6.519
41,-221,6.52
16,-81,6.521
-13,149,6.522
-24,292,6.523
-21,321,6.524
-29,320,6.525
-62,339,6.526
-98,361,6.527
-106,354,6.528
-80,287,6.529
-50,128,6.53
-41,-176,6.531
-49,-748,6.532
-42,-1530,6.533
-10,-2144,6.534
22,-1753,6.535
16,-169,6.536
-20,1500,6.537
-46,1961,6.538
-33,1267,6.539
-1,565,6.54
19,438,6.541
12,444,6.542
-11,241,6.543
-23,129,6.544
-15,253,6.545
2,234,6.546
10,-85,6.547
7,-331,6.548
4,-294,6.549
-3,-238,6.55
-19,-299,6.551
-34,-243,6.552
-29,-23,6.553
-6,97,6.554
12,-20,6.555
5,-143,6.556
-15,-105,6.557
-29,-63,6.558
-23,-119,6.559
0,-136,6.56
16,-59,6.561
4,-41,6.562
-12,-128,6.563
7,-171,6.564
60,-127,6.565
99,-123,6.566
89,-184,6.567
50,-189,6.568
15,-116,6.569
-17,-68,6.57
-55,-66,6.571
-84,-33,6.572
-89,13,6.573
-80,-17,6.574
-77,-123,6.575
-80,-208,6.576
-74,-231,6.577
-58,-210,6.578
-46,-154,6.579
-41,-86,6.58
-35,-77,6.581
-25,-121,6.582
-19,-102,6.583
-21,26,6.584
-29,140,6.585
-46,157,6.586
-61,179,6.587
-61,286,6.588
-37,366,6.589
1,299,6.59
24,181,6.591
13,154,6.592
-13,181,6.593
-27,141,6.594
-16,37,6.595
-1,-47,6.596
-2,-86,6.597
-5,-87,6.598
14,-46,6.599
43,10,6.6
58,14,6.601
50,-36,6.602
34,-52,6.603
20,-22,6.604
14,-57,6.605
24,-212,6.606
35,-398,6.607
12,-496,6.608
-58,-424,6.609
-129,-150,6.61
-156,226,6.611
-151,461,6.612
-141,421,6.613
-111,230,6.614
-47,131,6.615
3,157,6.616
-13,161,6.617
-67,117,6.618
-70,126,6.619
7,190,6.62
112,199,6.621
179,138,6.622
198,81,6.623
191,32,6.624
153,-63,6.625
67,-153,6.626
-64,-151,6.627
-191,-94,6.628
-244,-91,6.629
-201,-151,6.63
-109,-205,6.631
-27,-220,6.632
25,-194,6.633
62,-91,6.634
97,62,6.635
124,134,6.636
133,49,6.637
121,-59,6.638
102,-52,6.639
92,16,6.64
90,14,6.641
73,-45,6.642
29,-70,6.643
-12,-67,6.644
-27,-89,6.645
-24,-92,6.646
-27,-7,6.647
-30,107,6.648
-16,133,6.649
14,79,6.65
34,48,6.651
30,58,6.652
8,15,6.653
-19,-136,6.654
-23,-273,6.655
-17,-219,6.656
20,21,6.657
48,234,6.658
45,239,6.659
43,101,6.66
46,27,6.661
39,64,6.662
-1,66,6.663
-38,-43,6.664
-68,-128,6.665
-79,-46,6.666
-25,133,6.667
12,231,6.668
0,176,6.669
-9,17,6.67
-11,-183,6.671
-10,-314,6.672
7,-239,6.673
21,49,6.674
14,292,6.675
0,239,6.676
-11,-9,6.677
-14,-144,6.678
-13,-102,6.679
-18,-78,6.68
-32,-154,6.681
-50,-183,6.682
-55,-48,6.683
-56,176,6.684
-61,369,6.685
-63,455,6.686
-35,368,6.687
24,105,6.688
85,-170,6.689
115,-264,6.69
110,-170,6.691
75,-42,6.692
25,19,6.693
-25,30,6.694
-36,21,6.695
-4,0,6.696
29,-17,6.697
31,-18,6.698
18,-39,6.699
3,-105,6.7
-19,-183,6.701
-51,-221,6.702
-63,-209,6.703
-45,-154,6.704
-33,-60,6.705
-41,40,6.706
-51,95,6.707
-43,102,6.708
-33,107,6.709
-31,126,6.71
-21,121,6.711
6,74,6.712
30,28,6.713
28,3,6.714
15,-19,6.715
13,-66,6.716
22,-120,6.717
30,-129,6.718
37,-114,6.719
43,-151,6.72
37,-244,6.721
21,-267,6.722
10,-106,6.723
13,161,6.724
16,304,6.725
11,218,6.726
9,52,6.727
17,9,6.728
19,97,6.729
9,169,6.73
-2,142,6.731
0,57,6.732
11,-21,6.733
16,-69,6.734
22,-41,6.735
30,77,6.736
31,192,6.737
19,180,6.738
9,27,6.739
5,-147,6.74
2,-233,6.741
-6,-228,6.742
-11,-176,6.743
-8,-99,6.744
-8,-30,6.745
-13,-9,6.746
-8,-14,6.747
9,27,6.748
23,122,6.749
22,177,6.75
13,138,6.751
7,76,6.752
6,65,6.753
-1,75,6.754
-7,47,6.755
-10,-8,6.756
-6,-35,6.757
6,-30,6.758
20,-32,6.759
26,-41,6.76
17,-36,6.761
2,-24,6.762
-4,-27,6.763
-3,-39,6.764
-2,-33,6.765
-8,-18,6.766
-13,-15,6.767
-13,-27,6.768
-12,-32,6.769
-14,-25,6.77
-13,-16,6.771
-8,-10,6.772
0,-7,6.773
3,-9,6.774
4,-15,6.775
3,-17,6.776
2,-19,6.777
2,-18,6.778
5,-13,6.779
7,-5,6.78
7,5,6.781
7,7,6.782
9,7,6.783
12,12,6.784
8,23,6.785
4,28,6.786
9,22,6.787
13,14,6.788
8,11,6.789
-2,11,6.79
-5,14,6.791
1,23,6.792
6,33,6.793
6,33,6.794
11,25,6.795
18,16,6.796
23,6,6.797
23,-1,6.798
24,3,6.799
25,8,6.8
13,12,6.801
-7,13,6.802
-18,5,6.803
-11,-1,6.804
-2,-5,6.805
-2,-8,6.806
-6,-10,6.807
1,-12,6.808
12,-13,6.809
17,-14,6.81
16,-12,6.811
21,-10,6.812
36,-7,6.813
50,-3,6.814
49,2,6.815
36,7,6.816
23,11,6.817
20,14,6.818
32,14,6.819
49,11,6.82
59,8,6.821
60,6,6.822
62,1,6.823
67,-4,6.824
63,-4,6.825
46,2,6.826
23,7,6.827
13,5,6.828
26,0,6.829
58,-6,6.83
93,-12,6.831
104,-13,6.832
94,-9,6.833
72,-2,6.834
59,-1,6.835
51,-9,6.836
38,-24,6.837
20,-42,6.838
10,-70,6.839
10,-101,6.84
11,-127,6.841
10,-159,6.842
21,-226,6.843
46,-336,6.844
66,-432,6.845
55,-410,6.846
23,-199,6.847
-4,152,6.848
-16,506,6.849
-25,729,6.85
-51,787,6.851
-90,704,6.852
-123,539,6.853
-136,331,6.854
-123,171,6.855
-106,97,6.856
-107,43,6.857
-125,-48,6.858
-142,-144,6.859
-154,-181,6.86
-174,-169,6.861
-205,-170,6.862
-231,-190,6.863
-244,-190,6.864
-253,-168,6.865
-267,-161,6.866
-277,-170,6.867
-275,-166,6.868
-269,-140,6.869
-271,-114,6.87
-274,-96,6.871
-270,-82,6.872
-264,-76,6.873
-262,-83,6.874
-259,-90,6.875
-253,-87,6.876
-244,-85,6.877
-232,-85,6.878
-214,-79,6.879
-190,-61,6.88
-172,-46,6.881
-161,-44,6.882
-146,-41,6.883
-122,-31,6.884
-96,-21,6.885
-77,-16,6.886
-56,-10,6.887
-27,-4,6.888
3,-1,6.889
30,-7,6.89
57,-17,6.891
88,-27,6.892
113,-31,6.893
131,-30,6.894
149,-16,6.895
167,7,6.896
182,30,6.897
190,48,6.898
201,58,6.899
214,60,6.9
222,57,6.901
222,55,6.902
225,52,6.903
242,43,6.904
255,18,6.905
252,-53,6.906
244,-171,6.907
241,-267,6.908
244,-226,6.909
243,-26,6.91
242,206,6.911
240,322,6.912
235,306,6.913
222,234,6.914
213,170,6.915
205,119,6.916
191,79,6.917
178,76,6.918
179,82,6.919
187,21,6.92
172,-178,6.921
130,-541,6.922
85,-961,6.923
62,-1160,6.924
55,-860,6.925
50,-139,6.926
50,531,6.927
52,741,6.928
50,536,6.929
45,233,6.93
41,44,6.931
38,24,6.932
33,204,6.933
33,585,6.934
51,957,6.935
76,1066,6.936
90,884,6.937
86,553,6.938
80,124,6.939
78,-366,6.94
76,-708,6.941
64,-682,6.942
36,-376,6.943
-8,-56,6.944
-51,227,6.945
-72,568,6.946
-62,830,6.947
-29,743,6.948
19,354,6.949
66,4,6.95
73,-164,6.951
18,-267,6.952
-52,-318,6.953
-88,-226,6.954
-84,-88,6.955
-81,-141,6.956
-88,-342,6.957
-74,-406,6.958
-33,-294,6.959
-10,-229,6.96
-33,-288,6.961
-68,-328,6.962
-71,-359,6.963
-51,-565,6.964
-41,-881,6.965
-45,-893,6.966
-42,-350,6.967
-25,442,6.968
-10,914,6.969
0,843,6.97
5,514,6.971
9,292,6.972
8,240,6.973
1,211,6.974
-8,163,6.975
-22,159,6.976
-41,193,6.977
-53,172,6.978
-55,81,6.979
-53,6,6.98
-47,-21,6.981
-26,-49,6.982
2,-91,6.983
16,-114,6.984
10,-116,6.985
6,-141,6.986
14,-188,6.987
18,-217,6.988
8,-224,6.989
-1,-246,6.99
-5,-310,6.991
-21,-393,6.992
-48,-416,6.993
-73,-281,6.994
-65,13,6.995
-27,291,6.996
18,353,6.997
48,227,6.998
49,100,6.999
16,72,7.0
-38,76,7.001
-70,45,7.002
-51,18,7.003
-3,21,7.004
28,20,7.005
25,2,7.006
0,4,7.007
-40,34,7.008
-84,44,7.009
-106,23,7.01
-85,11,7.011
-49,20,7.012
-36,16,7.013
-57,-13,7.014
-91,-35,7.015
-126,-38,7.016
-146,-47,7.017
-116,-56,7.018
-5,-45,7.019
150,-18,7.02
258,-9,7.021
250,-21,7.022
142,-37,7.023
13,-54,7.024
-53,-86,7.025
-36,-115,7.026
34,-100,7.027
107,-41,7.028
151,26,7.029
156,83,7.03
125,147,7.031
62,218,7.032
-6,242,7.033
-69,156,7.034
-109,-30,7.035
-123,-215,7.036
-117,-294,7.037
-99,-234,7.038
-84,-102,7.039
-81,15,7.04
-81,74,7.041
-66,88,7.042
-35,94,7.043
-16,108,7.044
-30,120,7.045
-72,116,7.046
-106,105,7.047
-106,98,7.048
-70,91,7.049
-23,71,7.05
14,14,7.051
29,-112,7.052
30,-304,7.053
26,-445,7.054
30,-363,7.055
35,-207,7.056
43,167,7.057
62,415,7.058
110,279,7.059
144,181,7.06
130,197,7.061
104,198,7.062
42,156,7.063
-24,119,7.064
-102,93,7.065
-151,69,7.066
-112,47,7.067
-67,31,7.068
-5,31,7.069
43,24,7.07
47,-8,7.071
51,-26,7.072
55,-4,7.073
53,23,7.074
36,23,7.075
35,-41,7.076
33,-102,7.077
7,-124,7.078
-15,-156,7.079
-11,-220,7.08
-1,-245,7.081
-4,-166,7.082
-7,-18,7.083
8,63,7.084
21,-12,7.085
18,-169,7.086
12,-214,7.087
18,-57,7.088
24,161,7.089
19,238,7.09
16,147,7.091
22,28,7.092
26,-26,7.093
16,-47,7.094
5,-60,7.095
0,-30,7.096
-4,37,7.097
-16,76,7.098
-24,54,7.099
-19,24,7.1
-5,30,7.101
3,41,7.102
3,22,7.103
-5,-7,7.104
-21,-13,7.105
-38,-5,7.106
-44,-5,7.107
-41,-10,7.108
-36,3,7.109
-40,37,7.11
-47,67,7.111
-44,70,7.112
-30,41,7.113
-16,-9,7.114
-13,-66,7.115
-19,-157,7.116
-15,-315,7.117
12,-472,7.118
45,-468,7.119
60,-209,7.12
52,176,7.121
38,423,7.122
26,393,7.123
11,200,7.124
-10,46,7.125
-28,4,7.126
-29,12,7.127
-15,17,7.128
1,43,7.129
12,107,7.13
19,168,7.131
28,174,7.132
34,133,7.133
32,83,7.134
26,59,7.135
22,37,7.136
20,23,7.137
17,-1,7.138
15,-59,7.139
16,-109,7.14
15,-136,7.141
12,-146,7.142
8,-102,7.143
8,-59,7.144
8,-20,7.145
4,6,7.146
2,-7,7.147
10,-16,7.148
19,-6,7.149
23,-1,7.15
26,-10,7.151
25,-17,7.152
19,-13,7.153
5,-9,7.154
-3,-11,7.155
3,-20,7.156
16,-26,7.157
19,-21,7.158
13,-16,7.159
4,-11,7.16
-3,-3,7.161
-10,2,7.162
-11,-4,7.163
-9,-14,7.164
-11,-13,7.165
-15,-3,7.166
-9,-2,7.167
3,-7,7.168
11,-6,7.169
6,1,7.17
1,5,7.171
5,1,7.172
13,-2,7.173
12,-4,7.174
9,-5,7.175
5,-7,7.176
-3,-10,7.177
-12,-6,7.178
-14,1,7.179
-10,8,7.18
-15,18,7.181
-24,27,7.182
-25,30,7.183
-17,26,7.184
-11,18,7.185
-8,13,7.186
3,8,7.187
18,5,7.188
23,2,7.189
19,0,7.19
17,0,7.191
19,1,7.192
17,6,7.193
5,6,7.194
-5,10,7.195
-9,17,7.196
-10,21,7.197
-8,21,7.198
-3,12,7.199
7,8,7.2
5,10,7.201
-4,17,7.202
-4,17,7.203
6,10,7.204
16,4,7.205
18,3,7.206
26,3,7.207
40,-1,7.208
45,-8,7.209
36,-14,7.21
30,-16,7.211
38,-14,7.212
45,-13,7.213
38,-9,7.214
32,-3,7.215
26,2,7.216
18,10,7.217
9,18,7.218
1,30,7.219
-4,36,7.22
1,26,7.221
6,15,7.222
10,1,7.223
11,-11,7.224
-1,-16,7.225
-12,-19,7.226
-16,-11,7.227
-18,-5,7.228
-16,-5,7.229
-11,-7,7.23
5,-13,7.231
21,-17,7.232
36,-14,7.233
48,-11,7.234
43,-9,7.235
40,-10,7.236
41,-15,7.237
43,-19,7.238
48,-23,7.239
58,-25,7.24
70,-25,7.241
71,-31,7.242
61,-54,7.243
44,-91,7.244
31,-122,7.245
27,-123,7.246
29,-90,7.247
25,-32,7.248
12,34,7.249
-2,93,7.25
-10,129,7.251
-13,136,7.252
-7,130,7.253
15,130,7.254
47,154,7.255
66,185,7.256
60,189,7.257
44,148,7.258
31,56,7.259
19,-67,7.26
10,-175,7.261
19,-230,7.262
43,-240,7.263
48,-242,7.264
15,-226,7.265
-40,-131,7.266
-83,60,7.267
-118,257,7.268
-166,349,7.269
-214,314,7.27
-233,204,7.271
-222,69,7.272
-205,-42,7.273
-199,-103,7.274
-201,-108,7.275
-221,-144,7.276
-255,-312,7.277
-282,-579,7.278
-286,-798,7.279
-285,-808,7.28
-299,-534,7.281
-320,-46,7.282
-323,469,7.283
-321,811,7.284
-325,895,7.285
-324,759,7.286
-299,491,7.287
-257,192,7.288
-223,-9,7.289
-196,-22,7.29
-158,113,7.291
-113,247,7.292
-77,272,7.293
-56,181,7.294
-50,37,7.295
-45,-99,7.296
-36,-198,7.297
-15,-247,7.298
10,-257,7.299
33,-248,7.3
53,-238,7.301
69,-229,7.302
85,-216,7.303
103,-198,7.304
122,-177,7.305
143,-155,7.306
160,-137,7.307
173,-119,7.308
189,-100,7.309
209,-86,7.31
224,-84,7.311
228,-101,7.312
231,-125,7.313
237,-145,7.314
242,-141,7.315
237,-117,7.316
228,-103,7.317
224,-113,7.318
223,-128,7.319
220,-93,7.32
212,15,7.321
201,144,7.322
193,216,7.323
188,210,7.324
181,171,7.325
174,139,7.326
167,116,7.327
163,101,7.328
156,102,7.329
143,109,7.33
130,102,7.331
122,87,7.332
123,85,7.333
121,86,7.334
117,68,7.335
112,33,7.336
107,9,7.337
96,-1,7.338
78,-57,7.339
66,-220,7.34
59,-442,7.341
53,-540,7.342
48,-381,7.343
43,-100,7.344
38,32,7.345
26,10,7.346
17,112,7.347
16,411,7.348
14,566,7.349
2,355,7.35
-13,84,7.351
-17,128,7.352
-12,349,7.353
-11,370,7.354
-14,19,7.355
-13,-564,7.356
-7,-1048,7.357
-6,-950,7.358
-4,-23,7.359
0,1129,7.36
1,1426,7.361
-17,679,7.362
-46,-66,7.363
-56,32,7.364
-40,561,7.365
-21,725,7.366
-19,506,7.367
-25,321,7.368
-21,179,7.369
2,-78,7.37
18,-229,7.371
4,-31,7.372
-24,239,7.373
-42,181,7.374
-30,-177,7.375
-12,-481,7.376
-6,-599,7.377
-8,-666,7.378
-1,-720,7.379
0,-661,7.38
-29,-448,7.381
-72,-126,7.382
-88,240,7.383
-69,471,7.384
-47,359,7.385
-37,-11,7.386
-25,-248,7.387
-13,-127,7.388
-24,145,7.389
-44,268,7.39
-36,217,7.391
-16,131,7.392
-36,51,7.393
-103,-53,7.394
-131,-132,7.395
-67,-143,7.396
33,-138,7.397
72,-148,7.398
36,-114,7.399
1,-29,7.4
31,13,7.401
113,-38,7.402
191,-106,7.403
217,-118,7.404
178,-103,7.405
88,-91,7.406
-22,-53,7.407
-112,3,7.408
-138,21,7.409
-93,-8,7.41
-22,-19,7.411
11,6,7.412
-5,20,7.413
-31,0,7.414
-27,-9,7.415
-7,8,7.416
-11,19,7.417
-32,14,7.418
-27,16,7.419
6,26,7.42
17,16,7.421
-30,-7,7.422
-87,-14,7.423
-95,-9,7.424
-78,-17,7.425
-87,-30,7.426
-102,-23,7.427
-52,-1,7.428
61,5,7.429
141,-3,7.43
125,-7,7.431
61,-11,7.432
21,-27,7.433
-6,-46,7.434
-60,-41,7.435
-139,-14,7.436
-197,8,7.437
-202,24,7.438
-150,41,7.439
-65,62,7.44
-3,80,7.441
-13,84,7.442
-77,73,7.443
-113,42,7.444
-76,3,7.445
-12,-26,7.446
20,-57,7.447
22,-101,7.448
24,-135,7.449
33,-110,7.45
44,-32,7.451
71,25,7.452
111,3,7.453
122,-68,7.454
96,-108,7.455
74,-111,7.456
66,-4,7.457
74,91,7.458
136,149,7.459
163,182,7.46
79,134,7.461
-22,93,7.462
-174,79,7.463
-261,66,7.464
-155,57,7.465
-71,36,7.466
-56,-20,7.467
-31,-111,7.468
25,-307,7.469
58,-381,7.47
23,-89,7.471
1,192,7.472
18,442,7.473
37,587,7.474
32,340,7.475
-1,134,7.476
-36,91,7.477
-85,101,7.478
-126,68,7.479
-72,35,7.48
93,19,7.481
247,-58,7.482
274,-212,7.483
212,-316,7.484
160,-281,7.485
122,-165,7.486
39,-63,7.487
-60,-3,7.488
-93,-5,7.489
-44,-77,7.49
19,-104,7.491
53,65,7.492
80,335,7.493
105,431,7.494
88,186,7.495
10,-167,7.496
-65,-275,7.497
-75,-110,7.498
-32,63,7.499
-3,85,7.5
-12,46,7.501
-29,27,7.502
-35,-29,7.503
-36,-156,7.504
-39,-273,7.505
-33,-313,7.506
-14,-286,7.507
-11,-176,7.508
-39,52,7.509
-75,290,7.51
-81,302,7.511
-56,79,7.512
-29,-86,7.513
-11,1,7.514
11,159,7.515
36,79,7.516
44,-212,7.517
25,-391,7.518
6,-304,7.519
0,-83,7.52
-8,122,7.521
-28,274,7.522
-49,330,7.523
-52,240,7.524
-40,80,7.525
-33,-4,7.526
-31,8,7.527
-23,30,7.528
-11,29,7.529
-6,40,7.53
-14,39,7.531
-18,-29,7.532
-9,-118,7.533
2,-137,7.534
3,-78,7.535
-8,-22,7.536
-20,24,7.537
-17,51,7.538
-1,16,7.539
16,-23,7.54
26,-76,7.541
23,-121,7.542
19,-137,7.543
19,-138,7.544
18,-95,7.545
17,-50,7.546
13,1,7.547
13,37,7.548
19,26,7.549
29,18,7.55
36,20,7.551
39,23,7.552
41,27,7.553
41,32,7.554
37,35,7.555
24,34,7.556
10,28,7.557
9,-9,7.558
21,-85,7.559
26,-132,7.56
16,-75,7.561
0,32,7.562
-4,55,7.563
-2,-32,7.564
-2,-120,7.565
-7,-143,7.566
-7,-151,7.567
0,-168,7.568
10,-95,7.569
18,121,7.57
23,354,7.571
25,432,7.572
22,353,7.573
17,214,7.574
11,101,7.575
7,21,7.576
3,-35,7.577
0,-56,7.578
-2,-56,7.579
-4,-54,7.58
-9,-40,7.581
-12,-5,7.582
-14,26,7.583
-13,23,7.584
-12,8,7.585
-6,6,7.586
3,7,7.587
13,-1,7.588
15,-3,7.589
17,17,7.59
18,27,7.591
19,-1,7.592
15,-44,7.593
3,-70,7.594
-2,-69,7.595
-2,-58,7.596
1,-53,7.597
6,-47,7.598
7,-39,7.599
3,-23,7.6
-3,6,7.601
-7,42,7.602
-5,56,7.603
-2,30,7.604
0,-14,7.605
1,-42,7.606
0,-44,7.607
-2,-38,7.608
-3,-38,7.609
-1,-38,7.61
-1,-33,7.611
0,-26,7.612
6,-20,7.613
13,-17,7.614
14,-10,7.615
2,-6,7.616
-9,-3,7.617
-11,9,7.618
-4,25,7.619
2,31,7.62
6,20,7.621
9,6,7.622
11,5,7.623
11,13,7.624
11,15,7.625
21,11,7.626
36,9,7.627
50,16,7.628
61,24,7.629
71,26,7.63
77,24,7.631
72,25,7.632
61,27,7.633
54,22,7.634
58,12,7.635
60,0,7.636
45,-8,7.637
22,1,7.638
7,17,7.639
1,22,7.64
-7,15,7.641
-12,7,7.642
16,5,7.643
74,2,7.644
114,-1,7.645
104,0,7.646
70,6,7.647
57,11,7.648
64,9,7.649
60,8,7.65
42,4,7.651
32,-6,7.652
36,-15,7.653
37,-20,7.654
26,-26,7.655
7,-47,7.656
-6,-80,7.657
-14,-103,7.658
-16,-110,7.659
-20,-104,7.66
-32,-85,7.661
-46,-58,7.662
-49,-52,7.663
-50,-82,7.664
-71,-110,7.665
-112,-66,7.666
-141,63,7.667
-149,201,7.668
-170,249,7.669
-218,171,7.67
-257,25,7.671
-258,-88,7.672
-240,-94,7.673
-247,24,7.674
-277,197,7.675
-300,309,7.676
-307,294,7.677
-307,195,7.678
-303,88,7.679
-291,23,7.68
-280,24,7.681
-276,81,7.682
-261,137,7.683
-222,118,7.684
-193,26,7.685
-200,-69,7.686
-226,-129,7.687
-231,-181,7.688
-203,-234,7.689
-169,-252,7.69
-138,-261,7.691
-106,-381,7.692
-73,-662,7.693
-51,-1051,7.694
-40,-1318,7.695
-31,-1277,7.696
-18,-899,7.697
-3,-296,7.698
12,324,7.699
24,770,7.7
39,978,7.701
70,1042,7.702
133,1083,7.703
206,1118,7.704
251,1077,7.705
269,916,7.706
293,666,7.707
325,391,7.708
317,162,7.709
253,25,7.71
193,-42,7.711
185,-120,7.712
201,-228,7.713
187,-311,7.714
156,-313,7.715
146,-284,7.716
166,-305,7.717
189,-351,7.718
206,-349,7.719
220,-304,7.72
220,-278,7.721
200,-277,7.722
185,-257,7.723
184,-220,7.724
179,-211,7.725
154,-226,7.726
131,-215,7.727
137,-165,7.728
157,-100,7.729
164,-40,7.73
159,15,7.731
144,55,7.732
121,61,7.733
92,46,7.734
77,42,7.735
71,39,7.736
57,41,7.737
31,45,7.738
14,49,7.739
14,51,7.74
18,49,7.741
19,49,7.742
21,53,7.743
29,55,7.744
28,53,7.745
19,2,7.746
16,-195,7.747
17,-410,7.748
16,-678,7.749
11,-777,7.75
11,-369,7.751
11,48,7.752
5,492,7.753
-6,879,7.754
-9,1009,7.755
-7,941,7.756
-10,589,7.757
-14,25,7.758
-14,-495,7.759
-12,-691,7.76
-17,-445,7.761
-18,119,7.762
0,642,7.763
28,778,7.764
34,537,7.765
11,213,7.766
-12,-29,7.767
-14,-240,7.768
-3,-328,7.769
0,-36,7.77
-10,543,7.771
-35,888,7.772
-68,728,7.773
-99,327,7.774
-100,115,7.775
-66,90,7.776
-26,2,7.777
-20,-151,7.778
-53,-209,7.779
-94,-204,7.78
-110,-269,7.781
-87,-332,7.782
-35,-240,7.783
17,-101,7.784
52,-214,7.785
71,-656,7.786
99,-1092,7.787
130,-1042,7.788
131,-349,7.789
83,536,7.79
16,864,7.791
-23,363,7.792
-18,-379,7.793
-3,-696,7.794
-16,-379,7.795
-53,167,7.796
-71,519,7.797
-53,615,7.798
-29,554,7.799
-31,414,7.8
-48,269,7.801
-49,168,7.802
-34,64,7.803
-15,-78,7.804
11,-158,7.805
51,-69,7.806
82,102,7.807
64,160,7.808
-11,61,7.809
-106,-63,7.81
-179,-112,7.811
-204,-122,7.812
-180,-143,7.813
-123,-166,7.814
-64,-157,7.815
-34,-141,7.816
-26,-145,7.817
-12,-150,7.818
41,-136,7.819
119,-113,7.82
168,-96,7.821
144,-82,7.822
69,-71,7.823
13,-74,7.824
23,-84,7.825
78,-78,7.826
118,-69,7.827
109,-87,7.828
54,-114,7.829
-19,-87,7.83
-80,8,7.831
-109,95,7.832
-98,108,7.833
-57,50,7.834
-18,-11,7.835
-28,-39,7.836
-99,-39,7.837
-196,-19,7.838
-238,4,7.839
-184,-13,7.84
-77,-105,7.841
-1,-225,7.842
15,-254,7.843
6,-116,7.844
-6,115,7.845
-40,278,7.846
-104,274,7.847
-157,164,7.848
-181,86,7.849
-185,113,7.85
-143,206,7.851
10,243,7.852
239,125,7.853
388,-161,7.854
373,-415,7.855
343,-382,7.856
269,-52,7.857
186,302,7.858
74,410,7.859
-35,279,7.86
-133,78,7.861
-193,-103,7.862
-134,-263,7.863
-94,-355,7.864
-111,-315,7.865
-157,-164,7.866
-287,35,7.867
-355,271,7.868
-229,504,7.869
-97,583,7.87
56,436,7.871
196,227,7.872
299,161,7.873
412,210,7.874
511,201,7.875
462,87,7.876
261,-39,7.877
45,-169,7.878
-47,-362,7.879
-13,-518,7.88
27,-420,7.881
2,-79,7.882
-47,204,7.883
-62,217,7.884
-63,62,7.885
-85,-47,7.886
-104,-76,7.887
-86,-111,7.888
-56,-146,7.889
-48,-100,7.89
-54,14,7.891
-49,61,7.892
-37,-29,7.893
-22,-186,7.894
12,-244,7.895
57,-157,7.896
56,-51,7.897
-11,-34,7.898
-79,-56,7.899
-79,-17,7.9
-28,41,7.901
11,12,7.902
12,-43,7.903
-6,32,7.904
-23,208,7.905
-28,271,7.906
-16,151,7.907
3,4,7.908
8,-66,7.909
0,-133,7.91
8,-189,7.911
27,-100,7.912
30,88,7.913
10,134,7.914
-10,-57,7.915
-16,-229,7.916
-20,-151,7.917
-29,42,7.918
-29,134,7.919
-20,160,7.92
-16,226,7.921
-20,257,7.922
-16,175,7.923
-4,97,7.924
-1,101,7.925
-2,51,7.926
5,-139,7.927
17,-275,7.928
21,-170,7.929
28,43,7.93
43,122,7.931
52,52,7.932
43,-10,7.933
29,-1,7.934
28,31,7.935
25,43,7.936
6,-7,7.937
-16,-50,7.938
-13,-66,7.939
2,-74,7.94
1,-54,7.941
-15,-69,7.942
-21,-191,7.943
-15,-255,7.944
-9,-140,7.945
-8,-26,7.946
-2,86,7.947
13,174,7.948
29,194,7.949
41,180,7.95
44,65,7.951
35,-25,7.952
23,-43,7.953
19,-42,7.954
22,-2,7.955
20,-37,7.956
10,-132,7.957
4,-153,7.958
11,-24,7.959
14,151,7.96
2,200,7.961
-12,108,7.962
-15,12,7.963
-12,-7,7.964
-12,-8,7.965
-12,-44,7.966
-7,-89,7.967
1,-98,7.968
6,-71,7.969
13,-22,7.97
22,29,7.971
26,45,7.972
23,21,7.973
16,-11,7.974
8,-14,7.975
-5,-15,7.976
-16,-38,7.977
-19,-51,7.978
-11,-33,7.979
-6,-15,7.98
-8,-21,7.981
0,-29,7.982
22,-18,7.983
37,-16,7.984
31,-32,7.985
16,-38,7.986
7,-21,7.987
2,-6,7.988
-5,-6,7.989
-14,5,7.99
-15,32,7.991
-3,50,7.992
15,45,7.993
21,30,7.994
8,21,7.995
-15,9,7.996
-24,-10,7.997
-12,-17,7.998
-1,-4,7.999
-9,11,8.0
-31,17,8.001
-43,21,8.002
-37,25,8.003
-22,26,8.004
-6,21,8.005
12,20,8.006
30,24,8.007
44,21,8.008
54,17,8.009
65,19,8.01
72,26,8.011
75,28,8.012
73,26,8.013
62,24,8.014
56,24,8.015
59,21,8.016
91,14,8.017
115,10,8.018
114,14,8.019
109,18,8.02
94,19,8.021
83,19,8.022
82,17,8.023
75,10,8.024
51,-12,8.025
25,-30,8.026
-8,-33,8.027
-31,-32,8.028
-21,-17,8.029
-13,2,8.03
-11,34,8.031
-8,63,8.032
-4,84,8.033
1,100,8.034
-1,88,8.035
-14,58,8.036
-21,6,8.037
-18,-54,8.038
-23,-105,8.039
-43,-127,8.04
-70,-130,8.041
-98,-135,8.042
-131,-149,8.043
-163,-160,8.044
-178,-175,8.045
-182,-197,8.046
-190,-181,8.047
-200,-61,8.048
-194,150,8.049
-173,334,8.05
-165,395,8.051
-193,362,8.052
-239,322,8.053
-266,295,8.054
-245,249,8.055
-203,159,8.056
-198,54,8.057
-251,-15,8.058
-317,-36,8.059
-339,-30,8.06
-318,-32,8.061
-299,-64,8.062
-293,-114,8.063
-273,-146,8.064
-231,-154,8.065
-190,-167,8.066
-167,-205,8.067
-144,-265,8.068
-111,-368,8.069
-73,-544,8.07
-38,-737,8.071
-4,-779,8.072
32,-579,8.073
60,-213,8.074
75,58,8.075
78,70,8.076
73,-73,8.077
66,-126,8.078
66,31,8.079
76,295,8.08
87,479,8.081
95,443,8.082
102,158,8.083
121,-247,8.084
151,-462,8.085
184,-192,8.086
208,485,8.087
212,1117,8.088
199,1329,8.089
193,1146,8.09
214,799,8.091
261,427,8.092
305,114,8.093
323,-77,8.094
310,-110,8.095
272,-109,8.096
230,-184,8.097
216,-258,8.098
245,-253,8.099
284,-239,8.1
282,-291,8.101
223,-348,8.102
156,-335,8.103
125,-293,8.104
125,-284,8.105
119,-275,8.106
88,-236,8.107
44,-215,8.108
10,-249,8.109
0,-287,8.11
21,-275,8.111
59,-241,8.112
93,-225,8.113
108,-220,8.114
106,-189,8.115
90,-120,8.116
72,-26,8.117
62,72,8.118
60,140,8.119
54,163,8.12
37,167,8.121
22,172,8.122
22,160,8.123
27,122,8.124
25,72,8.125
18,38,8.126
16,73,8.127
13,247,8.128
1,509,8.129
-4,627,8.13
10,439,8.131
24,120,8.132
17,-28,8.133
-15,21,8.134
-42,60,8.135
-54,-42,8.136
-61,-306,8.137
-71,-859,8.138
-80,-1658,8.139
-77,-1975,8.14
-68,-946,8.141
-61,1032,8.142
-56,2307,8.143
-51,1895,8.144
-42,668,8.145
-23,18,8.146
16,97,8.147
63,206,8.148
82,154,8.149
49,248,8.15
-13,400,8.151
-51,284,8.152
-42,61,8.153
-9,56,8.154
8,146,8.155
1,-41,8.156
-9,-363,8.157
-14,-332,8.158
-22,49,8.159
-35,290,8.16
-45,129,8.161
-60,-246,8.162
-98,-601,8.163
-157,-820,8.164
-202,-788,8.165
-186,-458,8.166
-92,-42,8.167
39,181,8.168
134,192,8.169
164,176,8.17
166,198,8.171
176,104,8.172
181,-175,8.173
147,-484,8.174
86,-434,8.175
33,111,8.176
4,745,8.177
-14,900,8.178
-21,510,8.179
-13,74,8.18
-12,-37,8.181
-37,19,8.182
-67,-26,8.183
-76,-101,8.184
-69,-36,8.185
-65,56,8.186
-62,-6,8.187
-46,-132,8.188
-30,-142,8.189
-31,-95,8.19
-44,-131,8.191
-64,-195,8.192
-100,-176,8.193
-164,-116,8.194
-229,-120,8.195
-251,-154,8.196
-203,-125,8.197
-83,-53,8.198
72,-10,8.199
180,26,8.2
177,98,8.201
110,149,8.202
88,88,8.203
126,-87,8.204
154,-305,8.205
129,-468,8.206
84,-487,8.207
53,-351,8.208
34,-171,8.209
27,-44,8.21
13,49,8.211
-52,160,8.212
-147,240,8.213
-186,242,8.214
-113,214,8.215
-30,216,8.216
-37,197,8.217
-83,90,8.218
-70,-37,8.219
-23,-51,8.22
-39,48,8.221
-127,135,8.222
-216,136,8.223
-249,96,8.224
-192,87,8.225
-44,111,8.226
121,108,8.227
206,26,8.228
221,-124,8.229
234,-254,8.23
226,-263,8.231
118,-144,8.232
-33,5,8.233
-113,102,8.234
-84,127,8.235
-60,101,8.236
-87,29,8.237
-64,-82,8.238
64,-179,8.239
201,-174,8.24
236,-79,8.241
184,-5,8.242
105,-8,8.243
23,8,8.244
-47,126,8.245
-65,254,8.246
-43,263,8.247
-51,186,8.248
-104,145,8.249
-125,138,8.25
-71,66,8.251
-11,-86,8.252
-10,-210,8.253
-40,-240,8.254
-36,-173,8.255
2,-33,8.256
32,130,8.257
57,230,8.258
88,219,8.259
78,155,8.26
-5,115,8.261
-87,87,8.262
-79,38,8.263
-17,13,8.264
12,57,8.265
25,91,8.266
100,-6,8.267
207,-217,8.268
234,-381,8.269
163,-386,8.27
72,-287,8.271
9,-228,8.272
-53,-250,8.273
-126,-264,8.274
-155,-166,8.275
-127,24,8.276
-92,191,8.277
-82,272,8.278
-74,286,8.279
-45,253,8.28
-15,169,8.281
-4,78,8.282
-3,51,8.283
0,80,8.284
6,83,8.285
12,27,8.286
23,-33,8.287
36,-41,8.288
40,12,8.289
39,118,8.29
33,240,8.291
24,303,8.292
16,269,8.293
5,147,8.294
0,-51,8.295
-3,-369,8.296
-6,-751,8.297
-4,-934,8.298
0,-691,8.299
1,-148,8.3
-3,280,8.301
-9,343,8.302
-13,190,8.303
-13,99,8.304
-5,111,8.305
5,92,8.306
11,3,8.307
9,-39,8.308
7,24,8.309
11,114,8.31
21,143,8.311
28,112,8.312
31,60,8.313
25,10,8.314
13,12,8.315
0,71,8.316
-10,107,8.317
-16,52,8.318
-17,-35,8.319
-12,-52,8.32
-5,13,8.321
-5,83,8.322
-12,139,8.323
-20,200,8.324
-22,224,8.325
-19,141,8.326
-10,-31,8.327
3,-199,8.328
16,-302,8.329
19,-342,8.33
13,-331,8.331
10,-283,8.332
13,-224,8.333
16,-134,8.334
13,24,8.335
8,205,8.336
5,277,8.337
1,216,8.338
3,148,8.339
11,161,8.34
17,174,8.341
17,80,8.342
17,-83,8.343
20,-205,8.344
16,-243,8.345
0,-196,8.346
-14,-65,8.347
-11,89,8.348
0,147,8.349
1,78,8.35
-3,-2,8.351
-4,-6,8.352
-2,22,8.353
-5,13,8.354
-7,-13,8.355
-9,-14,8.356
-14,-11,8.357
-22,-30,8.358
-23,-48,8.359
-11,-36,8.36
-3,-21,8.361
-7,-30,8.362
-11,-41,8.363
-2,-31,8.364
14,-20,8.365
18,-26,8.366
16,-31,8.367
13,-21,8.368
17,-8,8.369
19,-6,8.37
19,-6,8.371
20,3,8.372
21,11,8.373
21,12,8.374
17,14,8.375
9,16,8.376
3,11,8.377
1,6,8.378
4,10,8.379
4,21,8.38
0,25,8.381
-7,23,8.382
-9,23,8.383
-2,27,8.384
11,23,8.385
23,18,8.386
32,22,8.387
41,30,8.388
52,27,8.389
61,18,8.39
68,17,8.391
70,21,8.392
71,21,8.393
71,10,8.394
70,4,8.395
53,7,8.396
22,8,8.397
-10,10,8.398
-26,16,8.399
-30,28,8.4
-33,34,8.401
-28,28,8.402
-7,12,8.403
19,0,8.404
26,-2,8.405
17,1,8.406
14,5,8.407
23,3,8.408
37,-4,8.409
53,-11,8.41
69,-12,8.411
76,-7,8.412
65,0,8.413
44,2,8.414
36,1,8.415
38,0,8.416
36,-1,8.417
29,-3,8.418
31,-6,8.419
38,-11,8.42
38,-22,8.421
31,-35,8.422
44,-53,8.423
89,-63,8.424
123,-49,8.425
92,-36,8.426
2,-25,8.427
-79,-15,8.428
-101,-13,8.429
-79,-12,8.43
-58,-12,8.431
-60,-9,8.432
-67,2,8.433
-74,18,8.434
-89,45,8.435
-121,62,8.436
-160,75,8.437
-190,99,8.438
-207,122,8.439
-215,125,8.44
-221,107,8.441
-227,87,8.442
-231,63,8.443
-228,-26,8.444
-222,-253,8.445
-221,-618,8.446
-235,-992,8.447
-257,-1144,8.448
-271,-888,8.449
-274,-243,8.45
-276,515,8.451
-283,1037,8.452
-287,1159,8.453
-277,958,8.454
-258,651,8.455
-239,424,8.456
-220,352,8.457
-192,381,8.458
-154,351,8.459
-124,163,8.46
-110,-104,8.461
-105,-305,8.462
-94,-429,8.463
-76,-566,8.464
-54,-686,8.465
-30,-654,8.466
0,-450,8.467
29,-220,8.468
55,-52,8.469
80,102,8.47
107,262,8.471
132,343,8.472
153,305,8.473
167,202,8.474
177,106,8.475
177,21,8.476
178,-52,8.477
190,-72,8.478
216,-50,8.479
239,-53,8.48
243,-99,8.481
236,-142,8.482
232,-162,8.483
234,-179,8.484
231,-180,8.485
219,-136,8.486
209,-70,8.487
212,-31,8.488
221,-18,8.489
225,-8,8.49
214,-12,8.491
197,-44,8.492
184,-67,8.493
174,-50,8.494
170,-12,8.495
166,8,8.496
159,16,8.497
143,39,8.498
122,58,8.499
100,43,8.5
87,10,8.501
92,-13,8.502
112,-37,8.503
139,-82,8.504
162,-122,8.505
172,-107,8.506
153,-18,8.507
101,111,8.508
33,210,8.509
-12,235,8.51
-19,196,8.511
-13,149,8.512
-17,132,8.513
-30,118,8.514
-27,73,8.515
-12,-96,8.516
-1,-551,8.517
3,-1298,8.518
14,-1856,8.519
31,-1476,8.52
32,-63,8.521
10,1390,8.522
-17,1811,8.523
-33,1295,8.524
-37,774,8.525
-32,643,8.526
-16,499,8.527
-2,174,8.528
-1,52,8.529
0,245,8.53
26,325,8.531
71,124,8.532
102,33,8.533
90,265,8.534
48,459,8.535
-1,285,8.536
-41,-29,8.537
-73,-154,8.538
-84,-167,8.539
-68,-240,8.54
-40,-273,8.541
-28,-150,8.542
-43,-17,8.543
-68,-33,8.544
-75,-110,8.545
-55,-127,8.546
-23,-130,8.547
-6,-214,8.548
-17,-324,8.549
-38,-340,8.55
-55,-212,8.551
-67,2,8.552
-78,162,8.553
-86,158,8.554
-79,18,8.555
-56,-89,8.556
-15,-79,8.557
41,-48,8.558
95,-85,8.559
125,-127,8.56
130,-108,8.561
118,-96,8.562
81,-148,8.563
14,-190,8.564
-50,-156,8.565
-74,-96,8.566
-62,-69,8.567
-64,-37,8.568
-91,25,8.569
-103,63,8.57
-69,47,8.571
1,29,8.572
85,43,8.573
184,52,8.574
266,43,8.575
260,64,8.576
128,122,8.577
-74,138,8.578
-215,75,8.579
-225,3,8.58
-173,-12,8.581
-166,-16,8.582
-206,-59,8.583
-194,-108,8.584
-92,-104,8.585
26,-58,8.586
80,-15,8.587
79,12,8.588
75,30,8.589
69,32,8.59
51,18,8.591
25,13,8.592
-1,32,8.593
-58,63,8.594
-152,83,8.595
-233,70,8.596
-243,13,8.597
-181,-46,8.598
-79,-52,8.599
25,-8,8.6
90,10,8.601
88,-36,8.602
57,-73,8.603
69,-31,8.604
133,42,8.605
171,55,8.606
128,21,8.607
43,22,8.608
-19,61,8.609
-52,68,8.61
-87,26,8.611
-121,-15,8.612
-120,-31,8.613
-81,-44,8.614
-44,-52,8.615
-37,-39,8.616
-37,-25,8.617
-11,-25,8.618
21,-11,8.619
5,32,8.62
-51,41,8.621
-74,-53,8.622
-27,-201,8.623
34,-304,8.624
55,-321,8.625
54,-250,8.626
75,-53,8.627
113,228,8.628
137,396,8.629
136,302,8.63
116,89,8.631
68,12,8.632
17,83,8.633
-9,124,8.634
1,58,8.635
16,-15,8.636
13,-56,8.637
15,-114,8.638
45,-125,8.639
84,58,8.64
93,353,8.641
52,433,8.642
-26,187,8.643
-96,-104,8.644
-120,-158,8.645
-109,-40,8.646
-106,25,8.647
-118,2,8.648
-103,5,8.649
-46,42,8.65
10,26,8.651
24,-41,8.652
15,-69,8.653
10,-27,8.654
13,32,8.655
9,55,8.656
9,51,8.657
15,39,8.658
9,-9,8.659
-2,-131,8.66
3,-291,8.661
28,-383,8.662
45,-330,8.663
49,-186,8.664
57,-82,8.665
74,-55,8.666
80,-13,8.667
65,112,8.668
49,233,8.669
28,238,8.67
-15,148,8.671
-72,68,8.672
-105,36,8.673
-110,4,8.674
-100,-34,8.675
-84,-32,8.676
-63,29,8.677
-44,117,8.678
-30,178,8.679
-4,187,8.68
27,128,8.681
33,6,8.682
7,-118,8.683
-11,-167,8.684
-4,-119,8.685
-3,-37,8.686
-19,5,8.687
-26,-4,8.688
-4,-33,8.689
22,-61,8.69
29,-110,8.691
28,-194,8.692
25,-263,8.693
8,-241,8.694
-12,-82,8.695
-13,141,8.696
0,278,8.697
2,260,8.698
-5,158,8.699
6,82,8.7
32,43,8.701
44,-7,8.702
35,-58,8.703
26,-56,8.704
25,-19,8.705
24,-41,8.706
25,-141,8.707
34,-212,8.708
42,-148,8.709
35,11,8.71
28,120,8.711
36,110,8.712
44,63,8.713
30,76,8.714
4,124,8.715
-9,139,8.716
-7,52,8.717
-4,-12,8.718
0,-9,8.719
16,-10,8.72
29,-26,8.721
23,-36,8.722
9,-24,8.723
7,-19,8.724
15,-39,8.725
16,-51,8.726
11,-40,8.727
12,-32,8.728
13,-35,8.729
4,-34,8.73
-9,-18,8.731
-11,-6,8.732
-9,-8,8.733
-11,-10,8.734
-14,-4,8.735
-6,-4,8.736
5,-19,8.737
8,-27,8.738
4,-19,8.739
0,-14,8.74
-3,-18,8.741
-6,-17,8.742
-2,-6,8.743
4,4,8.744
1,10,8.745
-12,22,8.746
-15,33,8.747
-1,33,8.748
11,22,8.749
11,12,8.75
8,6,8.751
13,-2,8.752
20,-5,8.753
15,-4,8.754
6,0,8.755
-1,-3,8.756
-11,-2,8.757
-22,8,8.758
-20,23,8.759
-5,28,8.76
6,26,8.761
1,20,8.762
-10,12,8.763
-13,5,8.764
-6,7,8.765
1,18,8.766
4,27,8.767
9,30,8.768
13,28,8.769
14,20,8.77
14,2,8.771
13,-18,8.772
14,-22,8.773
14,-13,8.774
16,-4,8.775
16,-3,8.776
14,-6,8.777
13,-2,8.778
17,4,8.779
20,4,8.78
18,4,8.781
16,3,8.782
22,0,8.783
26,-9,8.784
16,-14,8.785
-3,-23,8.786
-10,-38,8.787
4,-53,8.788
22,-51,8.789
28,-36,8.79
24,-20,8.791
22,-10,8.792
21,0,8.793
15,9,8.794
10,20,8.795
15,40,8.796
35,72,8.797
62,103,8.798
87,106,8.799
97,77,8.8
89,39,8.801
75,9,8.802
69,-11,8.803
63,-36,8.804
46,-79,8.805
33,-148,8.806
58,-224,8.807
126,-283,8.808
182,-322,8.809
172,-332,8.81
102,-279,8.811
35,-121,8.812
16,101,8.813
24,288,8.814
19,378,8.815
-18,442,8.816
-66,428,8.817
-90,411,8.818
-76,381,8.819
-38,343,8.82
-12,279,8.821
-13,203,8.822
-25,90,8.823
-34,-3,8.824
-37,-38,8.825
-46,-72,8.826
-62,-104,8.827
-84,-137,8.828
-114,-173,8.829
-146,-207,8.83
-169,-233,8.831
-182,-268,8.832
-193,-328,8.833
-209,-378,8.834
-224,-370,8.835
-238,-320,8.836
-256,-236,8.837
-276,-91,8.838
-291,104,8.839
-301,272,8.84
-317,329,8.841
-333,277,8.842
-339,200,8.843
-327,152,8.844
-315,118,8.845
-309,76,8.846
-296,29,8.847
-266,-17,8.848
-230,-68,8.849
-205,-127,8.85
-189,-203,8.851
-169,-327,8.852
-145,-480,8.853
-124,-594,8.854
-108,-562,8.855
-96,-390,8.856
-78,-173,8.857
-53,46,8.858
-20,272,8.859
14,461,8.86
38,521,8.861
52,450,8.862
66,341,8.863
89,244,8.864
110,136,8.865
127,18,8.866
146,-57,8.867
169,-70,8.868
190,-60,8.869
206,-46,8.87
216,-11,8.871
223,25,8.872
225,23,8.873
222,-15,8.874
221,-33,8.875
224,-24,8.876
228,-39,8.877
230,-98,8.878
235,-160,8.879
242,-188,8.88
246,-178,8.881
249,-146,8.882
246,-94,8.883
231,-42,8.884
205,-12,8.885
184,-4,8.886
181,-9,8.887
181,-63,8.888
172,-255,8.889
157,-613,8.89
153,-916,8.891
157,-770,8.892
152,-121,8.893
131,676,8.894
103,967,8.895
91,619,8.896
99,161,8.897
115,61,8.898
123,189,8.899
115,184,8.9
96,-21,8.901
79,-257,8.902
67,-392,8.903
58,-297,8.904
50,162,8.905
43,824,8.906
43,1176,8.907
64,919,8.908
101,355,8.909
119,-72,8.91
78,-350,8.911
-5,-628,8.912
-64,-704,8.913
-80,-257,8.914
-76,458,8.915
-80,740,8.916
-73,367,8.917
-48,-97,8.918
-33,-147,8.919
-39,69,8.92
-40,193,8.921
-23,201,8.922
-15,223,8.923
-25,212,8.924
-30,102,8.925
-12,16,8.926
10,46,8.927
17,65,8.928
18,-45,8.929
19,-193,8.93
6,-253,8.931
-16,-242,8.932
-25,-227,8.933
-25,-221,8.934
-26,-216,8.935
-39,-219,8.936
-42,-196,8.937
-30,-119,8.938
-23,-69,8.939
-34,-130,8.94
-49,-226,8.941
-53,-226,8.942
-48,-134,8.943
-45,-57,8.944
-46,-53,8.945
-36,-117,8.946
-13,-230,8.947
9,-305,8.948
4,-191,8.949
-26,136,8.95
-46,485,8.951
-30,651,8.952
3,618,8.953
28,477,8.954
33,325,8.955
26,206,8.956
22,134,8.957
22,83,8.958
17,12,8.959
-7,-69,8.96
-59,-119,8.961
-110,-135,8.962
-118,-148,8.963
-65,-160,8.964
6,-148,8.965
33,-127,8.966
6,-130,8.967
-23,-150,8.968
-8,-153,8.969
33,-132,8.97
42,-106,8.971
0,-71,8.972
-51,-22,8.973
-73,8,8.974
-63,-13,8.975
-52,-75,8.976
-37,-134,8.977
-21,-164,8.978
-6,-171,8.979
5,-135,8.98
5,-42,8.981
5,43,8.982
12,42,8.983
10,-22,8.984
-21,-21,8.985
-40,98,8.986
-21,225,8.987
-7,232,8.988
-7,141,8.989
-4,71,8.99
12,72,8.991
24,84,8.992
21,60,8.993
-2,7,8.994
-84,-40,8.995
-123,-87,8.996
-96,-124,8.997
-38,-103,8.998
23,-18,8.999
91,62,9.0
150,77,9.001
146,70,9.002
53,113,9.003
-70,178,9.004
-140,157,9.005
-140,33,9.006
-112,-89,9.007
-67,-133,9.008
19,-138,9.009
130,-167,9.01
194,-201,9.011
178,-183,9.012
125,-113,9.013
68,-10,9.014
-5,97,9.015
-92,164,9.016
-146,133,9.017
-126,12,9.018
-56,-111,9.019
0,-155,9.02
5,-117,9.021
-39,-47,9.022
-95,7,9.023
-118,31,9.024
-98,23,9.025
-57,-20,9.026
-10,-99,9.027
58,-176,9.028
139,-163,9.029
178,-4,9.03
129,228,9.031
32,382,9.032
-34,395,9.033
-47,297,9.034
-37,153,9.035
-32,0,9.036
-16,-125,9.037
32,-157,9.038
82,-68,9.039
77,96,9.04
12,250,9.041
-56,313,9.042
-76,255,9.043
-54,118,9.044
-24,-17,9.045
2,-60,9.046
29,81,9.047
42,400,9.048
29,684,9.049
4,617,9.05
-13,126,9.051
-20,-493,9.052
-19,-885,9.053
-5,-956,9.054
32,-790,9.055
63,-572,9.056
72,-195,9.057
77,77,9.058
70,34,9.059
71,21,9.06
100,97,9.061
111,153,9.062
67,149,9.063
22,133,9.064
-25,81,9.065
-63,26,9.066
-74,-37,9.067
-83,-111,9.068
-84,-216,9.069
-81,-276,9.07
-66,-195,9.071
-56,-98,9.072
-65,46,9.073
-67,166,9.074
-40,173,9.075
-26,153,9.076
-30,141,9.077
-29,92,9.078
-14,20,9.079
-3,25,9.08
-3,124,9.081
5,201,9.082
24,209,9.083
39,218,9.084
39,224,9.085
33,113,9.086
29,-102,9.087
27,-231,9.088
26,-168,9.089
17,-45,9.09
-6,6,9.091
-32,16,9.092
-41,33,9.093
-28,-4,9.094
-11,-116,9.095
-4,-190,9.096
-6,-138,9.097
-7,-35,9.098
-1,3,9.099
10,-14,9.1
22,-19,9.101
28,-6,9.102
29,-4,9.103
29,-6,9.104
31,1,9.105
32,-5,9.106
28,-31,9.107
22,-43,9.108
22,-30,9.109
31,-26,9.11
36,-49,9.111
32,-73,9.112
28,-72,9.113
25,-59,9.114
22,-36,9.115
12,16,9.116
-1,83,9.117
-8,121,9.118
-3,102,9.119
4,59,9.12
6,39,9.121
6,46,9.122
9,49,9.123
17,38,9.124
24,21,9.125
24,12,9.126
19,13,9.127
8,14,9.128
-2,7,9.129
-2,-3,9.13
2,-7,9.131
4,-7,9.132
0,-8,9.133
-5,-10,9.134
-10,-9,9.135
-13,-2,9.136
-14,-1,9.137
-9,-7,9.138
-4,-12,9.139
-5,-10,9.14
-12,-2,9.141
-17,6,9.142
-17,12,9.143
-13,13,9.144
-10,7,9.145
0,-5,9.146
14,-19,9.147
24,-28,9.148
21,-33,9.149
14,-32,9.15
10,-25,9.151
8,-17,9.152
7,-8,9.153
2,-5,9.154
-5,3,9.155
-14,16,9.156
-20,25,9.157
-21,20,9.158
-17,7,9.159
-6,-4,9.16
5,-6,9.161
15,-8,9.162
18,-12,9.163
13,-17,9.164
8,-15,9.165
4,-6,9.166
2,4,9.167
0,13,9.168
0,24,9.169
4,36,9.17
13,44,9.171
19,43,9.172
23,37,9.173
24,27,9.174
27,17,9.175
28,8,9.176
26,0,9.177
15,-1,9.178
0,-2,9.179
-13,-6,9.18
-22,-9,9.181
-26,-10,9.182
-22,-8,9.183
-16,-8,9.184
-17,-14,9.185
-23,-16,9.186
-13,-13,9.187
17,-11,9.188
43,-15,9.189
50,-17,9.19
50,-14,9.191
60,-8,9.192
70,-3,9.193
65,0,9.194
54,0,9.195
52,0,9.196
58,-2,9.197
58,0,9.198
59,4,9.199
66,7,9.2
76,10,9.201
77,12,9.202
70,15,9.203
68,14,9.204
69,14,9.205
67,15,9.206
69,13,9.207
76,9,9.208
82,9,9.209
74,9,9.21
56,10,9.211
46,11,9.212
46,13,9.213
42,11,9.214
31,11,9.215
19,9,9.216
10,6,9.217
3,3,9.218
-2,-1,9.219
-7,-4,9.22
-18,0,9.221
-37,2,9.222
-55,-1,9.223
-58,-9,9.224
-43,-31,9.225
-18,-68,9.226
-1,-146,9.227
-21,-236,9.228
-94,-358,9.229
-188,-449,9.23
-252,-443,9.231
-274,-364,9.232
-277,-65,9.233
-275,256,9.234
-260,579,9.235
-252,696,9.236
-279,607,9.237
-328,445,9.238
-345,314,9.239
-314,233,9.24
-280,181,9.241
-276,124,9.242
-288,36,9.243
-287,-69,9.244
-273,-139,9.245
-262,-148,9.246
-247,-144,9.247
-223,-169,9.248
-200,-195,9.249
-186,-182,9.25
-173,-145,9.251
-155,-124,9.252
-139,-111,9.253
-128,-91,9.254
-112,-69,9.255
-85,-70,9.256
-57,-89,9.257
-42,-93,9.258
-31,-90,9.259
-11,-105,9.26
16,-133,9.261
40,-147,9.262
57,-128,9.263
76,-98,9.264
98,-82,9.265
120,-86,9.266
141,-105,9.267
166,-127,9.268
197,-143,9.269
226,-177,9.27
247,-287,9.271
254,-509,9.272
250,-750,9.273
233,-846,9.274
210,-608,9.275
193,-43,9.276
200,613,9.277
237,1094,9.278
287,1261,9.279
307,1100,9.28
273,668,9.281
214,166,9.282
166,-63,9.283
145,178,9.284
147,643,9.285
177,869,9.286
243,704,9.287
314,411,9.288
324,212,9.289
247,58,9.29
124,-123,9.291
27,-250,9.292
7,-269,9.293
54,-283,9.294
110,-341,9.295
116,-399,9.296
73,-515,9.297
33,-840,9.298
15,-1265,9.299
0,-1321,9.3
-3,-724,9.301
40,196,9.302
108,801,9.303
135,807,9.304
104,463,9.305
72,153,9.306
75,19,9.307
78,-18,9.308
46,-53,9.309
5,-71,9.31
-9,1,9.311
-1,188,9.312
8,378,9.313
14,448,9.314
17,370,9.315
7,261,9.316
-11,212,9.317
-17,184,9.318
-11,110,9.319
-11,25,9.32
-22,-4,9.321
-23,-2,9.322
-10,-59,9.323
-2,-264,9.324
-11,-651,9.325
-21,-1074,9.326
-20,-1156,9.327
-17,-665,9.328
-23,19,9.329
-32,223,9.33
-34,-112,9.331
-30,-329,9.332
-27,-47,9.333
-31,425,9.334
-40,590,9.335
-51,478,9.336
-60,351,9.337
-63,192,9.338
-53,-20,9.339
-38,25,9.34
-29,460,9.341
-30,822,9.342
-34,698,9.343
-33,372,9.344
-26,324,9.345
-18,480,9.346
-10,477,9.347
-2,301,9.348
3,194,9.349
-6,172,9.35
-26,105,9.351
-40,26,9.352
-42,8,9.353
-55,-37,9.354
-90,-182,9.355
-113,-322,9.356
-80,-382,9.357
-9,-469,9.358
39,-639,9.359
58,-708,9.36
103,-577,9.361
194,-456,9.362
269,-537,9.363
247,-671,9.364
119,-603,9.365
-50,-346,9.366
-176,-81,9.367
-202,128,9.368
-134,289,9.369
-39,315,9.37
9,170,9.371
-9,12,9.372
-49,-28,9.373
-90,-32,9.374
-143,-75,9.375
-210,6,9.376
-315,354,9.377
-366,735,9.378
-252,798,9.379
-119,610,9.38
71,504,9.381
217,529,9.382
226,436,9.383
213,178,9.384
129,-14,9.385
57,-60,9.386
26,-118,9.387
0,-237,9.388
-9,-269,9.389
-4,-191,9.39
49,-155,9.391
106,-211,9.392
169,-245,9.393
239,-246,9.394
310,-315,9.395
269,-430,9.396
95,-396,9.397
-88,-170,9.398
-155,5,9.399
-131,-61,9.4
-120,-236,9.401
-141,-283,9.402
-132,-161,9.403
-81,-4,9.404
-31,102,9.405
-1,187,9.406
12,260,9.407
-14,263,9.408
-90,181,9.409
-166,89,9.41
-182,55,9.411
-147,48,9.412
-102,-7,9.413
-12,-135,9.414
105,-255,9.415
175,-334,9.416
100,-287,9.417
39,-237,9.418
17,-179,9.419
-7,-135,9.42
-41,-132,9.421
-92,-74,9.422
-191,147,9.423
-226,327,9.424
-68,387,9.425
65,425,9.426
121,398,9.427
138,369,9.428
40,336,9.429
-45,280,9.43
-91,156,9.431
-107,51,9.432
-28,2,9.433
42,-47,9.434
54,-75,9.435
41,-56,9.436
54,-40,9.437
103,-53,9.438
162,-56,9.439
184,-41,9.44
145,-76,9.441
94,-178,9.442
110,-227,9.443
173,-117,9.444
177,96,9.445
85,278,9.446
-8,342,9.447
