Deltoid,Bicep,Time
-13.0,-6.0,0.0
-5.0,-7.0,0.001
-3.0,-5.0,0.002
4.0,-5.0,0.003
16.0,-5.0,0.004
20.0,0.0,0.005
9.0,8.0,0.006
-2.0,8.0,0.007
-2.0,1.0,0.008
0.0,-3.0,0.009
-7.0,-1.0,0.01
-14.0,-1.0,0.011
-10.0,-3.0,0.012
-4.0,-2.0,0.013
-2.0,3.0,0.014
-4.0,6.0,0.015
0.0,1.0,0.016
5.0,-4.0,0.017
4.0,-6.0,0.018
1.0,-4.0,0.019
1.0,-2.0,0.02
1.0,-2.0,0.021
1.0,0.0,0.022
4.0,0.0,0.023
10.0,0.0,0.024
10.0,1.0,0.025
2.0,4.0,0.026
-2.0,4.0,0.027
2.0,0.0,0.028
6.0,-1.0,0.029
3.0,2.0,0.03
0.0,2.0,0.031
3.0,-1.0,0.032
8.0,-5.0,0.033
10.0,-3.0,0.034
9.0,-1.0,0.035
9.0,-1.0,0.036
9.0,-3.0,0.037
7.0,-2.0,0.038
7.0,0.0,0.039
5.0,1.0,0.04
2.0,-2.0,0.041
-3.0,-3.0,0.042
0.0,-2.0,0.043
8.0,2.0,0.044
7.0,7.0,0.045
-2.0,9.0,0.046
-8.0,8.0,0.047
-3.0,2.0,0.048
0.0,-1.0,0.049
-2.0,-1.0,0.05
-6.0,1.0,0.051
-4.0,1.0,0.052
2.0,0.0,0.053
7.0,-1.0,0.054
10.0,-2.0,0.055
15.0,-4.0,0.056
20.0,-2.0,0.057
16.0,-3.0,0.058
9.0,-2.0,0.059
2.0,-3.0,0.06
-3.0,-6.0,0.061
-6.0,-5.0,0.062
0.0,-3.0,0.063
4.0,0.0,0.064
2.0,6.0,0.065
1.0,10.0,0.066
2.0,5.0,0.067
3.0,-2.0,0.068
1.0,-4.0,0.069
0.0,2.0,0.07
-2.0,5.0,0.071
-4.0,-1.0,0.072
-4.0,-5.0,0.073
-4.0,-3.0,0.074
0.0,0.0,0.075
4.0,-1.0,0.076
3.0,-3.0,0.077
1.0,-4.0,0.078
-1.0,-5.0,0.079
0.0,-3.0,0.08
0.0,-4.0,0.081
-1.0,-3.0,0.082
3.0,-1.0,0.083
8.0,1.0,0.084
2.0,6.0,0.085
-10.0,8.0,0.086
-12.0,4.0,0.087
-6.0,-1.0,0.088
-6.0,-3.0,0.089
-14.0,-3.0,0.09
-16.0,-4.0,0.091
-5.0,-7.0,0.092
12.0,-8.0,0.093
23.0,-6.0,0.094
28.0,-1.0,0.095
29.0,4.0,0.096
24.0,6.0,0.097
10.0,3.0,0.098
-2.0,-1.0,0.099
0.0,-2.0,0.1
10.0,-5.0,0.101
18.0,-3.0,0.102
23.0,-1.0,0.103
25.0,2.0,0.104
17.0,5.0,0.105
0.0,5.0,0.106
-10.0,2.0,0.107
-7.0,-2.0,0.108
-1.0,-4.0,0.109
-2.0,-4.0,0.11
-5.0,-3.0,0.111
-2.0,-4.0,0.112
6.0,-5.0,0.113
5.0,-2.0,0.114
-3.0,0.0,0.115
-8.0,-2.0,0.116
-4.0,-5.0,0.117
0.0,-7.0,0.118
-2.0,-5.0,0.119
-8.0,-4.0,0.12
-8.0,-6.0,0.121
-4.0,-3.0,0.122
5.0,2.0,0.123
13.0,4.0,0.124
12.0,4.0,0.125
2.0,7.0,0.126
-4.0,10.0,0.127
-6.0,6.0,0.128
-10.0,1.0,0.129
-18.0,4.0,0.13
-21.0,8.0,0.131
-15.0,3.0,0.132
-4.0,-6.0,0.133
2.0,-7.0,0.134
6.0,-3.0,0.135
14.0,0.0,0.136
21.0,-1.0,0.137
20.0,-4.0,0.138
18.0,-2.0,0.139
17.0,0.0,0.14
16.0,-4.0,0.141
14.0,-5.0,0.142
8.0,-4.0,0.143
4.0,-3.0,0.144
4.0,-1.0,0.145
4.0,4.0,0.146
1.0,9.0,0.147
0.0,7.0,0.148
1.0,0.0,0.149
3.0,-5.0,0.15
-1.0,-3.0,0.151
-3.0,-1.0,0.152
0.0,-2.0,0.153
2.0,-5.0,0.154
0.0,-5.0,0.155
-1.0,-6.0,0.156
0.0,-5.0,0.157
3.0,-4.0,0.158
1.0,-2.0,0.159
-4.0,0.0,0.16
-3.0,-3.0,0.161
0.0,-3.0,0.162
1.0,-2.0,0.163
0.0,-2.0,0.164
-2.0,-1.0,0.165
-2.0,3.0,0.166
4.0,9.0,0.167
10.0,9.0,0.168
10.0,6.0,0.169
7.0,3.0,0.17
6.0,3.0,0.171
10.0,0.0,0.172
10.0,-4.0,0.173
4.0,-4.0,0.174
-3.0,-3.0,0.175
-4.0,-3.0,0.176
-4.0,-4.0,0.177
-8.0,-4.0,0.178
-11.0,-2.0,0.179
-14.0,-1.0,0.18
-14.0,-4.0,0.181
-8.0,-5.0,0.182
7.0,-4.0,0.183
24.0,-4.0,0.184
31.0,-5.0,0.185
25.0,-1.0,0.186
14.0,4.0,0.187
5.0,5.0,0.188
0.0,3.0,0.189
-2.0,0.0,0.19
-1.0,-1.0,0.191
2.0,-4.0,0.192
5.0,-5.0,0.193
10.0,-4.0,0.194
9.0,-3.0,0.195
2.0,0.0,0.196
-4.0,1.0,0.197
-4.0,0.0,0.198
-18.0,-3.0,0.199
-26.0,-4.0,0.2
-20.0,-5.0,0.201
-12.0,-4.0,0.202
-2.0,-5.0,0.203
8.0,-2.0,0.204
8.0,2.0,0.205
8.0,7.0,0.206
8.0,6.0,0.207
8.0,4.0,0.208
3.0,4.0,0.209
-4.0,4.0,0.21
-10.0,1.0,0.211
-12.0,0.0,0.212
-2.0,0.0,0.213
6.0,-2.0,0.214
6.0,-8.0,0.215
3.0,-14.0,0.216
6.0,-10.0,0.217
-3.0,-8.0,0.218
-8.0,-3.0,0.219
-11.0,0.0,0.22
-9.0,-1.0,0.221
-6.0,-3.0,0.222
-2.0,-3.0,0.223
2.0,0.0,0.224
2.0,5.0,0.225
2.0,9.0,0.226
2.0,5.0,0.227
2.0,2.0,0.228
0.0,6.0,0.229
-3.0,8.0,0.23
-5.0,2.0,0.231
-6.0,-3.0,0.232
-2.0,-6.0,0.233
1.0,-8.0,0.234
1.0,-3.0,0.235
0.0,1.0,0.236
1.0,1.0,0.237
3.0,2.0,0.238
3.0,-1.0,0.239
3.0,-4.0,0.24
1.0,-8.0,0.241
0.0,-4.0,0.242
3.0,3.0,0.243
10.0,4.0,0.244
9.0,2.0,0.245
4.0,-1.0,0.246
3.0,0.0,0.247
10.0,2.0,0.248
11.0,5.0,0.249
7.0,7.0,0.25
1.0,7.0,0.251
1.0,4.0,0.252
0.0,-1.0,0.253
-2.0,-4.0,0.254
-2.0,-5.0,0.255
-2.0,-5.0,0.256
-4.0,-3.0,0.257
-11.0,-3.0,0.258
-14.0,-2.0,0.259
-6.0,-1.0,0.26
5.0,-3.0,0.261
12.0,-4.0,0.262
16.0,-2.0,0.263
22.0,1.0,0.264
27.0,3.0,0.265
21.0,5.0,0.266
12.0,5.0,0.267
9.0,3.0,0.268
14.0,1.0,0.269
14.0,0.0,0.27
5.0,-1.0,0.271
-2.0,-5.0,0.272
0.0,-6.0,0.273
2.0,-4.0,0.274
-3.0,-4.0,0.275
-6.0,-5.0,0.276
0.0,-3.0,0.277
8.0,-4.0,0.278
2.0,-3.0,0.279
-17.0,-3.0,0.28
-29.0,-5.0,0.281
-28.0,-4.0,0.282
-21.0,-2.0,0.283
-12.0,0.0,0.284
0.0,3.0,0.285
21.0,5.0,0.286
43.0,3.0,0.287
59.0,1.0,0.288
58.0,2.0,0.289
35.0,6.0,0.29
5.0,4.0,0.291
-15.0,-4.0,0.292
-21.0,-8.0,0.293
-23.0,-5.0,0.294
-26.0,0.0,0.295
-22.0,-1.0,0.296
-9.0,-4.0,0.297
1.0,-7.0,0.298
2.0,0.0,0.299
2.0,4.0,0.3
-2.0,0.0,0.301
-4.0,-2.0,0.302
0.0,-2.0,0.303
3.0,0.0,0.304
4.0,1.0,0.305
4.0,2.0,0.306
1.0,4.0,0.307
0.0,4.0,0.308
5.0,7.0,0.309
7.0,8.0,0.31
0.0,3.0,0.311
-2.0,-1.0,0.312
10.0,-4.0,0.313
18.0,-2.0,0.314
12.0,0.0,0.315
7.0,3.0,0.316
5.0,7.0,0.317
4.0,5.0,0.318
-2.0,-2.0,0.319
-13.0,-7.0,0.32
-18.0,-8.0,0.321
-15.0,-4.0,0.322
-8.0,-5.0,0.323
0.0,-7.0,0.324
13.0,-2.0,0.325
22.0,6.0,0.326
21.0,6.0,0.327
14.0,0.0,0.328
8.0,-1.0,0.329
5.0,5.0,0.33
2.0,5.0,0.331
1.0,-2.0,0.332
0.0,-5.0,0.333
-3.0,-2.0,0.334
-10.0,0.0,0.335
-17.0,-3.0,0.336
-15.0,-4.0,0.337
-8.0,-6.0,0.338
1.0,-6.0,0.339
8.0,-5.0,0.34
14.0,-2.0,0.341
19.0,5.0,0.342
19.0,7.0,0.343
15.0,5.0,0.344
3.0,7.0,0.345
-6.0,10.0,0.346
-5.0,5.0,0.347
4.0,-2.0,0.348
11.0,-2.0,0.349
10.0,-1.0,0.35
7.0,-4.0,0.351
2.0,-10.0,0.352
-1.0,-8.0,0.353
-3.0,-2.0,0.354
3.0,-4.0,0.355
12.0,-8.0,0.356
14.0,-5.0,0.357
7.0,-3.0,0.358
2.0,-1.0,0.359
0.0,-4.0,0.36
-5.0,-5.0,0.361
-14.0,-4.0,0.362
-11.0,-6.0,0.363
2.0,-6.0,0.364
10.0,0.0,0.365
5.0,6.0,0.366
-1.0,4.0,0.367
0.0,0.0,0.368
1.0,1.0,0.369
0.0,6.0,0.37
1.0,9.0,0.371
6.0,6.0,0.372
8.0,3.0,0.373
8.0,0.0,0.374
8.0,-3.0,0.375
10.0,-6.0,0.376
13.0,-5.0,0.377
-10.0,-5.0,0.378
-14.0,-5.0,0.379
-18.0,-4.0,0.38
-20.0,-2.0,0.381
-20.0,2.0,0.382
-12.0,5.0,0.383
-6.0,5.0,0.384
-1.0,3.0,0.385
4.0,0.0,0.386
11.0,1.0,0.387
19.0,5.0,0.388
23.0,5.0,0.389
25.0,1.0,0.39
24.0,-1.0,0.391
21.0,-1.0,0.392
15.0,-2.0,0.393
10.0,-6.0,0.394
11.0,-8.0,0.395
11.0,-7.0,0.396
8.0,-5.0,0.397
-23.0,-6.0,0.398
-32.0,-8.0,0.399
-39.0,-6.0,0.4
-42.0,-8.0,0.401
-42.0,-6.0,0.402
-28.0,0.0,0.403
-16.0,9.0,0.404
-6.0,15.0,0.405
4.0,12.0,0.406
19.0,3.0,0.407
33.0,1.0,0.408
41.0,3.0,0.409
46.0,3.0,0.41
43.0,-3.0,0.411
38.0,-7.0,0.412
26.0,-6.0,0.413
17.0,-3.0,0.414
18.0,-3.0,0.415
18.0,-4.0,0.416
12.0,-5.0,0.417
7.0,-5.0,0.418
3.0,-2.0,0.419
2.0,0.0,0.42
0.0,0.0,0.421
-7.0,0.0,0.422
-8.0,3.0,0.423
-1.0,6.0,0.424
2.0,9.0,0.425
-1.0,10.0,0.426
-5.0,4.0,0.427
-3.0,-1.0,0.428
-2.0,0.0,0.429
-7.0,2.0,0.43
-10.0,5.0,0.431
-5.0,7.0,0.432
0.0,4.0,0.433
2.0,0.0,0.434
1.0,-1.0,0.435
1.0,-3.0,0.436
3.0,-5.0,0.437
5.0,-7.0,0.438
-1.0,-10.0,0.439
-5.0,-8.0,0.44
-7.0,-5.0,0.441
-7.0,0.0,0.442
6.0,-1.0,0.443
19.0,-4.0,0.444
19.0,0.0,0.445
17.0,10.0,0.446
14.0,12.0,0.447
11.0,5.0,0.448
5.0,-3.0,0.449
-1.0,-4.0,0.45
-7.0,-3.0,0.451
-10.0,-4.0,0.452
-7.0,-3.0,0.453
-2.0,1.0,0.454
-1.0,0.0,0.455
1.0,-5.0,0.456
-2.0,-6.0,0.457
4.0,-4.0,0.458
0.0,-3.0,0.459
-3.0,-6.0,0.46
-4.0,-10.0,0.461
-4.0,-8.0,0.462
5.0,-4.0,0.463
13.0,-3.0,0.464
13.0,0.0,0.465
12.0,6.0,0.466
10.0,8.0,0.467
8.0,5.0,0.468
4.0,2.0,0.469
0.0,3.0,0.47
-4.0,1.0,0.471
-6.0,-1.0,0.472
-4.0,0.0,0.473
-1.0,2.0,0.474
0.0,3.0,0.475
1.0,1.0,0.476
-1.0,2.0,0.477
-3.0,3.0,0.478
-2.0,2.0,0.479
1.0,-1.0,0.48
4.0,-5.0,0.481
9.0,-6.0,0.482
17.0,-3.0,0.483
22.0,-1.0,0.484
19.0,5.0,0.485
10.0,9.0,0.486
4.0,7.0,0.487
6.0,0.0,0.488
6.0,-1.0,0.489
6.0,1.0,0.49
6.0,1.0,0.491
5.0,-5.0,0.492
0.0,-9.0,0.493
-8.0,-6.0,0.494
-10.0,-1.0,0.495
-6.0,0.0,0.496
-2.0,0.0,0.497
-2.0,0.0,0.498
-3.0,0.0,0.499
-3.0,-8.0,0.5
-2.0,-18.0,0.501
0.0,-14.0,0.502
8.0,1.0,0.503
15.0,12.0,0.504
12.0,13.0,0.505
3.0,5.0,0.506
-2.0,-2.0,0.507
-3.0,-5.0,0.508
-6.0,-5.0,0.509
-13.0,-5.0,0.51
-11.0,-4.0,0.511
1.0,-5.0,0.512
12.0,-5.0,0.513
13.0,-2.0,0.514
12.0,0.0,0.515
13.0,-2.0,0.516
16.0,-3.0,0.517
0.0,-5.0,0.518
-2.0,-7.0,0.519
-6.0,-8.0,0.52
-6.0,-5.0,0.521
-7.0,1.0,0.522
-4.0,5.0,0.523
-2.0,5.0,0.524
0.0,7.0,0.525
2.0,12.0,0.526
0.0,14.0,0.527
-2.0,6.0,0.528
-8.0,-2.0,0.529
-15.0,-2.0,0.53
-15.0,-2.0,0.531
-12.0,-8.0,0.532
-4.0,-14.0,0.533
2.0,-10.0,0.534
4.0,-3.0,0.535
7.0,0.0,0.536
13.0,2.0,0.537
0.0,3.0,0.538
-2.0,3.0,0.539
-5.0,3.0,0.54
-5.0,-1.0,0.541
-6.0,-3.0,0.542
-4.0,2.0,0.543
-2.0,6.0,0.544
0.0,2.0,0.545
1.0,-1.0,0.546
0.0,0.0,0.547
-2.0,2.0,0.548
-7.0,1.0,0.549
-12.0,0.0,0.55
-12.0,-3.0,0.551
-10.0,-6.0,0.552
-4.0,-4.0,0.553
1.0,-2.0,0.554
3.0,3.0,0.555
5.0,7.0,0.556
9.0,4.0,0.557
14.0,0.0,0.558
17.0,-6.0,0.559
17.0,-7.0,0.56
12.0,-7.0,0.561
6.0,-2.0,0.562
8.0,2.0,0.563
12.0,4.0,0.564
8.0,8.0,0.565
-2.0,9.0,0.566
-3.0,4.0,0.567
6.0,-5.0,0.568
12.0,-8.0,0.569
8.0,-2.0,0.57
2.0,7.0,0.571
2.0,6.0,0.572
2.0,-2.0,0.573
3.0,-8.0,0.574
8.0,-7.0,0.575
14.0,-1.0,0.576
15.0,2.0,0.577
6.0,-3.0,0.578
0.0,-5.0,0.579
-3.0,-5.0,0.58
-7.0,-4.0,0.581
-7.0,-4.0,0.582
0.0,-6.0,0.583
9.0,-2.0,0.584
13.0,3.0,0.585
12.0,6.0,0.586
10.0,4.0,0.587
8.0,-1.0,0.588
0.0,-3.0,0.589
-10.0,-3.0,0.59
-18.0,-1.0,0.591
-19.0,1.0,0.592
-12.0,-1.0,0.593
-6.0,-5.0,0.594
-1.0,-7.0,0.595
2.0,-5.0,0.596
2.0,2.0,0.597
-5.0,1.0,0.598
-11.0,0.0,0.599
-12.0,-1.0,0.6
-6.0,-1.0,0.601
4.0,1.0,0.602
16.0,3.0,0.603
25.0,7.0,0.604
26.0,11.0,0.605
18.0,13.0,0.606
4.0,9.0,0.607
-3.0,3.0,0.608
-4.0,3.0,0.609
-2.0,3.0,0.61
-2.0,0.0,0.611
-1.0,-4.0,0.612
3.0,-7.0,0.613
10.0,-7.0,0.614
12.0,-5.0,0.615
10.0,-3.0,0.616
9.0,2.0,0.617
4.0,3.0,0.618
-4.0,-2.0,0.619
-12.0,-8.0,0.62
-16.0,-8.0,0.621
-16.0,0.0,0.622
-5.0,5.0,0.623
4.0,3.0,0.624
8.0,0.0,0.625
11.0,0.0,0.626
9.0,2.0,0.627
7.0,3.0,0.628
5.0,4.0,0.629
3.0,3.0,0.63
1.0,0.0,0.631
0.0,-5.0,0.632
1.0,-4.0,0.633
3.0,-2.0,0.634
4.0,-3.0,0.635
5.0,-7.0,0.636
3.0,-9.0,0.637
1.0,-7.0,0.638
-1.0,-3.0,0.639
-1.0,0.0,0.64
-2.0,-4.0,0.641
0.0,-7.0,0.642
7.0,-7.0,0.643
19.0,-2.0,0.644
23.0,3.0,0.645
20.0,8.0,0.646
16.0,10.0,0.647
12.0,8.0,0.648
3.0,4.0,0.649
-8.0,1.0,0.65
-15.0,0.0,0.651
-18.0,-1.0,0.652
-19.0,-3.0,0.653
-16.0,-2.0,0.654
-6.0,0.0,0.655
5.0,2.0,0.656
10.0,2.0,0.657
8.0,-4.0,0.658
5.0,-8.0,0.659
3.0,-7.0,0.66
0.0,-6.0,0.661
-1.0,-6.0,0.662
5.0,-7.0,0.663
13.0,-4.0,0.664
9.0,-1.0,0.665
0.0,1.0,0.666
-2.0,0.0,0.667
3.0,-1.0,0.668
9.0,-3.0,0.669
9.0,-2.0,0.67
7.0,1.0,0.671
3.0,6.0,0.672
-2.0,8.0,0.673
-9.0,8.0,0.674
-13.0,4.0,0.675
-11.0,-3.0,0.676
-7.0,-6.0,0.677
-3.0,-3.0,0.678
-2.0,4.0,0.679
-5.0,3.0,0.68
-8.0,-6.0,0.681
-3.0,-6.0,0.682
8.0,1.0,0.683
17.0,7.0,0.684
19.0,3.0,0.685
22.0,1.0,0.686
28.0,6.0,0.687
26.0,8.0,0.688
15.0,1.0,0.689
5.0,-5.0,0.69
4.0,-5.0,0.691
5.0,-3.0,0.692
0.0,-4.0,0.693
-3.0,-2.0,0.694
-1.0,2.0,0.695
0.0,2.0,0.696
-4.0,0.0,0.697
-9.0,-3.0,0.698
-6.0,-3.0,0.699
-3.0,-1.0,0.7
-6.0,-2.0,0.701
-7.0,-1.0,0.702
1.0,0.0,0.703
7.0,2.0,0.704
2.0,3.0,0.705
-1.0,4.0,0.706
0.0,3.0,0.707
3.0,-1.0,0.708
4.0,-4.0,0.709
4.0,-4.0,0.71
0.0,-4.0,0.711
-3.0,-4.0,0.712
-4.0,-2.0,0.713
-5.0,0.0,0.714
-3.0,-3.0,0.715
-2.0,-8.0,0.716
0.0,-8.0,0.717
1.0,-2.0,0.718
0.0,2.0,0.719
3.0,-1.0,0.72
11.0,-8.0,0.721
16.0,-5.0,0.722
19.0,0.0,0.723
19.0,3.0,0.724
16.0,6.0,0.725
5.0,9.0,0.726
-7.0,8.0,0.727
-13.0,6.0,0.728
-11.0,4.0,0.729
-7.0,5.0,0.73
-7.0,0.0,0.731
-7.0,-6.0,0.732
-4.0,-8.0,0.733
0.0,-5.0,0.734
3.0,-6.0,0.735
8.0,-8.0,0.736
13.0,-5.0,0.737
15.0,0.0,0.738
13.0,1.0,0.739
9.0,-4.0,0.74
0.0,-7.0,0.741
-5.0,-5.0,0.742
2.0,-1.0,0.743
7.0,0.0,0.744
4.0,1.0,0.745
0.0,4.0,0.746
-1.0,4.0,0.747
-4.0,2.0,0.748
-3.0,1.0,0.749
-2.0,2.0,0.75
0.0,0.0,0.751
1.0,0.0,0.752
1.0,3.0,0.753
2.0,5.0,0.754
8.0,1.0,0.755
11.0,-6.0,0.756
5.0,-8.0,0.757
-2.0,-9.0,0.758
-17.0,-9.0,0.759
-27.0,-7.0,0.76
-30.0,-4.0,0.761
-20.0,-1.0,0.762
3.0,2.0,0.763
26.0,5.0,0.764
34.0,7.0,0.765
31.0,9.0,0.766
29.0,9.0,0.767
28.0,7.0,0.768
19.0,4.0,0.769
10.0,2.0,0.77
8.0,0.0,0.771
10.0,-1.0,0.772
3.0,-4.0,0.773
-8.0,-6.0,0.774
-10.0,-4.0,0.775
-4.0,-3.0,0.776
0.0,-2.0,0.777
-4.0,-1.0,0.778
-4.0,2.0,0.779
-3.0,3.0,0.78
-1.0,-2.0,0.781
1.0,-8.0,0.782
4.0,-10.0,0.783
6.0,-4.0,0.784
0.0,6.0,0.785
-4.0,12.0,0.786
-3.0,9.0,0.787
-2.0,1.0,0.788
-2.0,-3.0,0.789
-4.0,-4.0,0.79
-8.0,-5.0,0.791
-10.0,-3.0,0.792
-2.0,4.0,0.793
6.0,9.0,0.794
14.0,4.0,0.795
19.0,-2.0,0.796
17.0,-1.0,0.797
13.0,1.0,0.798
2.0,-1.0,0.799
-1.0,-7.0,0.8
0.0,-8.0,0.801
-2.0,0.0,0.802
-1.0,7.0,0.803
5.0,5.0,0.804
9.0,2.0,0.805
6.0,4.0,0.806
1.0,2.0,0.807
4.0,-2.0,0.808
7.0,-2.0,0.809
3.0,0.0,0.81
-4.0,-1.0,0.811
-5.0,-8.0,0.812
-4.0,-11.0,0.813
-2.0,-8.0,0.814
0.0,-5.0,0.815
3.0,-9.0,0.816
6.0,-9.0,0.817
5.0,-6.0,0.818
3.0,-2.0,0.819
1.0,-4.0,0.82
-4.0,-7.0,0.821
-7.0,2.0,0.822
1.0,10.0,0.823
8.0,8.0,0.824
8.0,4.0,0.825
7.0,8.0,0.826
7.0,13.0,0.827
8.0,9.0,0.828
7.0,0.0,0.829
5.0,0.0,0.83
3.0,3.0,0.831
0.0,2.0,0.832
-1.0,-4.0,0.833
-3.0,-6.0,0.834
0.0,-2.0,0.835
2.0,0.0,0.836
0.0,-2.0,0.837
0.0,-7.0,0.838
3.0,-4.0,0.839
6.0,-2.0,0.84
4.0,-2.0,0.841
0.0,0.0,0.842
3.0,3.0,0.843
9.0,5.0,0.844
11.0,3.0,0.845
6.0,2.0,0.846
2.0,1.0,0.847
-1.0,0.0,0.848
-3.0,2.0,0.849
-9.0,3.0,0.85
-11.0,0.0,0.851
-6.0,-3.0,0.852
2.0,-3.0,0.853
13.0,-3.0,0.854
21.0,-4.0,0.855
24.0,-4.0,0.856
24.0,-2.0,0.857
17.0,-1.0,0.858
10.0,-6.0,0.859
3.0,-8.0,0.86
-6.0,-7.0,0.861
-13.0,-1.0,0.862
-9.0,3.0,0.863
-5.0,3.0,0.864
-3.0,4.0,0.865
-2.0,5.0,0.866
-6.0,7.0,0.867
-8.0,4.0,0.868
-6.0,3.0,0.869
-3.0,4.0,0.87
1.0,3.0,0.871
5.0,-1.0,0.872
6.0,-4.0,0.873
8.0,-5.0,0.874
10.0,-4.0,0.875
12.0,-3.0,0.876
11.0,-1.0,0.877
8.0,-3.0,0.878
-1.0,-9.0,0.879
-5.0,-10.0,0.88
-6.0,-8.0,0.881
-6.0,1.0,0.882
-5.0,5.0,0.883
1.0,3.0,0.884
6.0,3.0,0.885
6.0,7.0,0.886
4.0,7.0,0.887
7.0,1.0,0.888
10.0,0.0,0.889
6.0,0.0,0.89
-2.0,2.0,0.891
-4.0,0.0,0.892
0.0,-1.0,0.893
2.0,-1.0,0.894
2.0,-3.0,0.895
1.0,-6.0,0.896
4.0,-4.0,0.897
6.0,-2.0,0.898
5.0,-4.0,0.899
0.0,-10.0,0.9
-4.0,-12.0,0.901
-2.0,-3.0,0.902
4.0,5.0,0.903
11.0,4.0,0.904
11.0,0.0,0.905
6.0,7.0,0.906
4.0,15.0,0.907
3.0,12.0,0.908
1.0,0.0,0.909
-1.0,-8.0,0.91
-2.0,-6.0,0.911
0.0,-1.0,0.912
2.0,-1.0,0.913
8.0,-4.0,0.914
13.0,-5.0,0.915
9.0,-3.0,0.916
0.0,0.0,0.917
-11.0,1.0,0.918
-12.0,0.0,0.919
-6.0,-4.0,0.92
-1.0,-10.0,0.921
3.0,-9.0,0.922
15.0,-5.0,0.923
27.0,-2.0,0.924
22.0,2.0,0.925
3.0,6.0,0.926
-7.0,6.0,0.927
-3.0,3.0,0.928
0.0,0.0,0.929
-12.0,0.0,0.93
-22.0,-2.0,0.931
-13.0,-4.0,0.932
4.0,-5.0,0.933
15.0,-3.0,0.934
17.0,1.0,0.935
24.0,3.0,0.936
30.0,4.0,0.937
22.0,1.0,0.938
11.0,-3.0,0.939
1.0,-3.0,0.94
-4.0,-2.0,0.941
-8.0,2.0,0.942
-6.0,2.0,0.943
-3.0,0.0,0.944
2.0,3.0,0.945
6.0,6.0,0.946
1.0,3.0,0.947
-2.0,-1.0,0.948
0.0,-3.0,0.949
0.0,0.0,0.95
-1.0,0.0,0.951
-3.0,-4.0,0.952
-3.0,-6.0,0.953
-2.0,-5.0,0.954
-1.0,-2.0,0.955
0.0,-1.0,0.956
1.0,1.0,0.957
1.0,2.0,0.958
-3.0,2.0,0.959
-7.0,1.0,0.96
-9.0,-4.0,0.961
-6.0,-7.0,0.962
-1.0,-1.0,0.963
6.0,4.0,0.964
6.0,4.0,0.965
-1.0,4.0,0.966
-3.0,0.0,0.967
8.0,-3.0,0.968
20.0,-2.0,0.969
21.0,-1.0,0.97
14.0,0.0,0.971
10.0,1.0,0.972
11.0,0.0,0.973
9.0,-1.0,0.974
3.0,-1.0,0.975
3.0,0.0,0.976
7.0,-4.0,0.977
6.0,-7.0,0.978
2.0,-6.0,0.979
-1.0,-7.0,0.98
-2.0,-10.0,0.981
-3.0,-8.0,0.982
0.0,-5.0,0.983
2.0,-3.0,0.984
5.0,1.0,0.985
7.0,6.0,0.986
3.0,6.0,0.987
0.0,1.0,0.988
0.0,2.0,0.989
1.0,8.0,0.99
0.0,9.0,0.991
-2.0,1.0,0.992
-4.0,-5.0,0.993
-6.0,-4.0,0.994
-3.0,-3.0,0.995
1.0,-6.0,0.996
9.0,-7.0,0.997
15.0,-7.0,0.998
12.0,-7.0,0.999
4.0,-5.0,1.0
-5.0,-3.0,1.001
-9.0,-1.0,1.002
-3.0,3.0,1.003
7.0,6.0,1.004
12.0,7.0,1.005
5.0,7.0,1.006
-2.0,3.0,1.007
0.0,-1.0,1.008
5.0,-1.0,1.009
7.0,-1.0,1.01
4.0,-3.0,1.011
3.0,-5.0,1.012
5.0,-5.0,1.013
4.0,-5.0,1.014
1.0,-3.0,1.015
-1.0,-1.0,1.016
-1.0,3.0,1.017
-2.0,6.0,1.018
-2.0,4.0,1.019
-3.0,-1.0,1.02
-5.0,-8.0,1.021
-6.0,-9.0,1.022
0.0,-5.0,1.023
6.0,1.0,1.024
12.0,6.0,1.025
19.0,9.0,1.026
27.0,8.0,1.027
28.0,4.0,1.028
7.0,0.0,1.029
-13.0,-1.0,1.03
-32.0,0.0,1.031
-42.0,0.0,1.032
-23.0,0.0,1.033
-5.0,-1.0,1.034
5.0,-1.0,1.035
16.0,-2.0,1.036
24.0,-3.0,1.037
29.0,-6.0,1.038
21.0,-4.0,1.039
13.0,-3.0,1.04
11.0,-4.0,1.041
5.0,-5.0,1.042
-6.0,-1.0,1.043
-14.0,4.0,1.044
-14.0,8.0,1.045
-12.0,10.0,1.046
-7.0,6.0,1.047
6.0,1.0,1.048
20.0,0.0,1.049
23.0,-2.0,1.05
14.0,-3.0,1.051
3.0,-5.0,1.052
-1.0,-9.0,1.053
0.0,-11.0,1.054
2.0,-5.0,1.055
7.0,0.0,1.056
7.0,1.0,1.057
0.0,4.0,1.058
-1.0,7.0,1.059
-3.0,6.0,1.06
-3.0,-3.0,1.061
-2.0,-5.0,1.062
0.0,0.0,1.063
2.0,5.0,1.064
4.0,7.0,1.065
7.0,8.0,1.066
7.0,9.0,1.067
6.0,5.0,1.068
6.0,0.0,1.069
4.0,-1.0,1.07
1.0,1.0,1.071
0.0,1.0,1.072
1.0,-2.0,1.073
2.0,-5.0,1.074
-3.0,-4.0,1.075
-6.0,-4.0,1.076
-4.0,-4.0,1.077
-1.0,-2.0,1.078
5.0,0.0,1.079
10.0,1.0,1.08
7.0,-4.0,1.081
1.0,-8.0,1.082
3.0,-5.0,1.083
10.0,-2.0,1.084
12.0,0.0,1.085
3.0,1.0,1.086
-1.0,3.0,1.087
0.0,4.0,1.088
1.0,1.0,1.089
-1.0,-1.0,1.09
-2.0,-1.0,1.091
4.0,-1.0,1.092
12.0,-3.0,1.093
11.0,-4.0,1.094
7.0,-2.0,1.095
5.0,-1.0,1.096
4.0,-3.0,1.097
-1.0,-5.0,1.098
-7.0,-7.0,1.099
-11.0,-7.0,1.1
-9.0,-8.0,1.101
-4.0,-7.0,1.102
5.0,-2.0,1.103
13.0,4.0,1.104
11.0,10.0,1.105
8.0,16.0,1.106
6.0,18.0,1.107
5.0,13.0,1.108
3.0,3.0,1.109
2.0,-3.0,1.11
1.0,-2.0,1.111
0.0,0.0,1.112
0.0,-2.0,1.113
1.0,-5.0,1.114
1.0,-6.0,1.115
1.0,-4.0,1.116
1.0,-3.0,1.117
2.0,-5.0,1.118
3.0,-5.0,1.119
-1.0,-5.0,1.12
-7.0,-5.0,1.121
-7.0,-5.0,1.122
4.0,-3.0,1.123
17.0,-1.0,1.124
22.0,1.0,1.125
19.0,4.0,1.126
15.0,4.0,1.127
11.0,2.0,1.128
2.0,0.0,1.129
-9.0,-3.0,1.13
-12.0,-3.0,1.131
-9.0,-4.0,1.132
-3.0,-2.0,1.133
0.0,-1.0,1.134
1.0,-1.0,1.135
0.0,-1.0,1.136
0.0,-2.0,1.137
0.0,-4.0,1.138
4.0,-5.0,1.139
6.0,-7.0,1.14
2.0,-8.0,1.141
0.0,-3.0,1.142
2.0,2.0,1.143
5.0,5.0,1.144
3.0,5.0,1.145
2.0,4.0,1.146
3.0,2.0,1.147
4.0,-3.0,1.148
1.0,-6.0,1.149
-1.0,-4.0,1.15
3.0,5.0,1.151
5.0,14.0,1.152
3.0,17.0,1.153
2.0,12.0,1.154
4.0,0.0,1.155
5.0,-9.0,1.156
3.0,-9.0,1.157
0.0,-6.0,1.158
-8.0,-2.0,1.159
-17.0,0.0,1.16
-20.0,-2.0,1.161
-12.0,-5.0,1.162
4.0,-4.0,1.163
17.0,-1.0,1.164
17.0,4.0,1.165
13.0,8.0,1.166
11.0,6.0,1.167
12.0,4.0,1.168
14.0,4.0,1.169
19.0,3.0,1.17
25.0,0.0,1.171
24.0,-2.0,1.172
8.0,-2.0,1.173
-8.0,-3.0,1.174
-15.0,-3.0,1.175
-10.0,-3.0,1.176
-4.0,-4.0,1.177
-3.0,-3.0,1.178
-1.0,-1.0,1.179
0.0,-3.0,1.18
-1.0,-10.0,1.181
0.0,-10.0,1.182
10.0,-6.0,1.183
18.0,-1.0,1.184
16.0,3.0,1.185
15.0,4.0,1.186
21.0,2.0,1.187
24.0,0.0,1.188
13.0,0.0,1.189
1.0,2.0,1.19
-14.0,2.0,1.191
-26.0,-2.0,1.192
-27.0,-4.0,1.193
-29.0,-1.0,1.194
-33.0,0.0,1.195
-33.0,0.0,1.196
-17.0,-1.0,1.197
-2.0,-4.0,1.198
-2.0,-5.0,1.199
-3.0,-2.0,1.2
0.0,0.0,1.201
4.0,3.0,1.202
10.0,0.0,1.203
15.0,-2.0,1.204
13.0,1.0,1.205
6.0,8.0,1.206
2.0,7.0,1.207
5.0,0.0,1.208
11.0,-2.0,1.209
11.0,2.0,1.21
9.0,1.0,1.211
7.0,-5.0,1.212
6.0,-8.0,1.213
7.0,-5.0,1.214
9.0,-1.0,1.215
11.0,-2.0,1.216
12.0,-1.0,1.217
9.0,-1.0,1.218
11.0,-2.0,1.219
12.0,-6.0,1.22
12.0,-10.0,1.221
10.0,-4.0,1.222
8.0,1.0,1.223
6.0,5.0,1.224
0.0,6.0,1.225
-7.0,7.0,1.226
-10.0,4.0,1.227
-7.0,0.0,1.228
-3.0,-2.0,1.229
-2.0,0.0,1.23
-1.0,2.0,1.231
-2.0,1.0,1.232
-1.0,1.0,1.233
3.0,0.0,1.234
7.0,-1.0,1.235
7.0,-4.0,1.236
5.0,-4.0,1.237
5.0,-3.0,1.238
6.0,-5.0,1.239
2.0,-9.0,1.24
-5.0,-12.0,1.241
-4.0,-8.0,1.242
5.0,-6.0,1.243
12.0,-4.0,1.244
4.0,0.0,1.245
-6.0,8.0,1.246
-8.0,12.0,1.247
1.0,8.0,1.248
11.0,2.0,1.249
13.0,0.0,1.25
9.0,1.0,1.251
5.0,4.0,1.252
4.0,5.0,1.253
4.0,3.0,1.254
11.0,-2.0,1.255
20.0,-7.0,1.256
27.0,-5.0,1.257
21.0,-4.0,1.258
8.0,-5.0,1.259
-2.0,-4.0,1.26
-5.0,-4.0,1.261
-6.0,-1.0,1.262
0.0,0.0,1.263
5.0,1.0,1.264
1.0,2.0,1.265
-3.0,5.0,1.266
-9.0,4.0,1.267
-14.0,1.0,1.268
-12.0,1.0,1.269
-10.0,2.0,1.27
-8.0,0.0,1.271
-5.0,-4.0,1.272
-2.0,-8.0,1.273
2.0,-8.0,1.274
6.0,-6.0,1.275
8.0,-3.0,1.276
6.0,-1.0,1.277
5.0,-1.0,1.278
6.0,0.0,1.279
4.0,1.0,1.28
0.0,-5.0,1.281
-1.0,-10.0,1.282
7.0,-9.0,1.283
16.0,-3.0,1.284
13.0,2.0,1.285
6.0,2.0,1.286
3.0,2.0,1.287
4.0,2.0,1.288
1.0,3.0,1.289
-5.0,4.0,1.29
-9.0,2.0,1.291
-10.0,-3.0,1.292
-10.0,-5.0,1.293
-9.0,0.0,1.294
0.0,6.0,1.295
11.0,7.0,1.296
17.0,4.0,1.297
12.0,-1.0,1.298
8.0,-1.0,1.299
4.0,0.0,1.3
4.0,-4.0,1.301
4.0,-3.0,1.302
6.0,2.0,1.303
10.0,9.0,1.304
18.0,11.0,1.305
25.0,7.0,1.306
30.0,4.0,1.307
29.0,5.0,1.308
5.0,9.0,1.309
-18.0,11.0,1.31
-36.0,6.0,1.311
-49.0,-3.0,1.312
-42.0,-7.0,1.313
-33.0,-2.0,1.314
-22.0,0.0,1.315
-9.0,-4.0,1.316
7.0,-7.0,1.317
20.0,-4.0,1.318
17.0,0.0,1.319
9.0,-2.0,1.32
5.0,-8.0,1.321
11.0,-6.0,1.322
18.0,0.0,1.323
20.0,0.0,1.324
16.0,-2.0,1.325
10.0,-3.0,1.326
8.0,-2.0,1.327
9.0,-2.0,1.328
9.0,-4.0,1.329
5.0,-3.0,1.33
3.0,-1.0,1.331
2.0,-3.0,1.332
4.0,-7.0,1.333
4.0,-6.0,1.334
8.0,0.0,1.335
10.0,5.0,1.336
10.0,4.0,1.337
5.0,-4.0,1.338
-1.0,-10.0,1.339
-7.0,-8.0,1.34
-10.0,-4.0,1.341
-11.0,-2.0,1.342
-3.0,-4.0,1.343
3.0,-5.0,1.344
3.0,3.0,1.345
4.0,11.0,1.346
3.0,9.0,1.347
2.0,3.0,1.348
4.0,1.0,1.349
6.0,3.0,1.35
2.0,2.0,1.351
-1.0,-3.0,1.352
0.0,-4.0,1.353
2.0,-3.0,1.354
2.0,-5.0,1.355
1.0,-5.0,1.356
2.0,-2.0,1.357
2.0,0.0,1.358
-3.0,-2.0,1.359
-5.0,-7.0,1.36
-3.0,-8.0,1.361
0.0,-3.0,1.362
7.0,1.0,1.363
14.0,2.0,1.364
16.0,4.0,1.365
10.0,6.0,1.366
2.0,7.0,1.367
0.0,4.0,1.368
2.0,2.0,1.369
3.0,1.0,1.37
2.0,0.0,1.371
1.0,-2.0,1.372
0.0,0.0,1.373
-1.0,3.0,1.374
-1.0,3.0,1.375
1.0,-1.0,1.376
4.0,-1.0,1.377
3.0,-2.0,1.378
0.0,-1.0,1.379
-3.0,-3.0,1.38
-7.0,-6.0,1.381
-8.0,-5.0,1.382
-2.0,-2.0,1.383
6.0,4.0,1.384
3.0,8.0,1.385
-11.0,8.0,1.386
-22.0,4.0,1.387
-19.0,0.0,1.388
-6.0,0.0,1.389
11.0,4.0,1.39
30.0,2.0,1.391
45.0,-3.0,1.392
46.0,-4.0,1.393
33.0,-2.0,1.394
19.0,-4.0,1.395
15.0,-8.0,1.396
16.0,-6.0,1.397
9.0,-3.0,1.398
-3.0,-4.0,1.399
-14.0,-7.0,1.4
-18.0,-8.0,1.401
-17.0,-3.0,1.402
-13.0,1.0,1.403
-8.0,1.0,1.404
-6.0,0.0,1.405
-7.0,1.0,1.406
-7.0,5.0,1.407
-5.0,9.0,1.408
1.0,10.0,1.409
14.0,8.0,1.41
30.0,0.0,1.411
41.0,-7.0,1.412
35.0,-8.0,1.413
17.0,-7.0,1.414
2.0,-7.0,1.415
-4.0,-6.0,1.416
-11.0,-2.0,1.417
-23.0,2.0,1.418
-31.0,2.0,1.419
-35.0,-1.0,1.42
-25.0,-7.0,1.421
-15.0,-9.0,1.422
-3.0,-5.0,1.423
7.0,1.0,1.424
7.0,6.0,1.425
8.0,5.0,1.426
6.0,2.0,1.427
5.0,2.0,1.428
6.0,7.0,1.429
6.0,7.0,1.43
3.0,2.0,1.431
0.0,-2.0,1.432
1.0,-3.0,1.433
2.0,-3.0,1.434
3.0,-6.0,1.435
4.0,-8.0,1.436
5.0,-5.0,1.437
6.0,0.0,1.438
3.0,3.0,1.439
2.0,3.0,1.44
1.0,-1.0,1.441
2.0,-4.0,1.442
6.0,-3.0,1.443
13.0,-1.0,1.444
15.0,0.0,1.445
12.0,0.0,1.446
4.0,1.0,1.447
2.0,1.0,1.448
1.0,4.0,1.449
0.0,3.0,1.45
0.0,1.0,1.451
-1.0,0.0,1.452
-3.0,0.0,1.453
-2.0,0.0,1.454
2.0,-4.0,1.455
3.0,-7.0,1.456
2.0,-6.0,1.457
0.0,-5.0,1.458
1.0,-3.0,1.459
3.0,-2.0,1.46
1.0,-2.0,1.461
1.0,0.0,1.462
9.0,-1.0,1.463
14.0,-2.0,1.464
11.0,1.0,1.465
6.0,7.0,1.466
0.0,8.0,1.467
-4.0,5.0,1.468
-3.0,5.0,1.469
-1.0,6.0,1.47
3.0,1.0,1.471
5.0,-7.0,1.472
3.0,-9.0,1.473
1.0,-4.0,1.474
1.0,0.0,1.475
1.0,-1.0,1.476
0.0,-2.0,1.477
1.0,-1.0,1.478
9.0,-1.0,1.479
10.0,-2.0,1.48
0.0,-5.0,1.481
-5.0,-7.0,1.482
1.0,-2.0,1.483
10.0,3.0,1.484
10.0,7.0,1.485
0.0,9.0,1.486
-9.0,6.0,1.487
-13.0,3.0,1.488
-14.0,1.0,1.489
-10.0,0.0,1.49
0.0,-2.0,1.491
11.0,-5.0,1.492
17.0,-3.0,1.493
19.0,-2.0,1.494
17.0,-3.0,1.495
15.0,-4.0,1.496
8.0,-5.0,1.497
1.0,-6.0,1.498
-1.0,-4.0,1.499
-4.0,-1.0,1.5
-8.0,-5.0,1.501
-9.0,-8.0,1.502
-1.0,-5.0,1.503
6.0,3.0,1.504
9.0,10.0,1.505
16.0,10.0,1.506
32.0,3.0,1.507
43.0,0.0,1.508
41.0,1.0,1.509
33.0,6.0,1.51
7.0,6.0,1.511
-14.0,0.0,1.512
-23.0,-4.0,1.513
-32.0,-4.0,1.514
-36.0,-4.0,1.515
-37.0,-5.0,1.516
-28.0,-4.0,1.517
-19.0,-4.0,1.518
-14.0,-2.0,1.519
-11.0,-3.0,1.52
-5.0,-6.0,1.521
6.0,-5.0,1.522
18.0,-2.0,1.523
24.0,2.0,1.524
17.0,4.0,1.525
7.0,4.0,1.526
7.0,3.0,1.527
12.0,3.0,1.528
9.0,2.0,1.529
-1.0,1.0,1.53
-3.0,1.0,1.531
1.0,2.0,1.532
7.0,-1.0,1.533
10.0,-6.0,1.534
13.0,-10.0,1.535
16.0,-9.0,1.536
16.0,-2.0,1.537
11.0,0.0,1.538
4.0,0.0,1.539
0.0,2.0,1.54
-1.0,0.0,1.541
-1.0,0.0,1.542
2.0,0.0,1.543
4.0,1.0,1.544
3.0,4.0,1.545
0.0,6.0,1.546
-2.0,8.0,1.547
0.0,4.0,1.548
2.0,0.0,1.549
1.0,-1.0,1.55
0.0,0.0,1.551
0.0,2.0,1.552
0.0,0.0,1.553
-2.0,-3.0,1.554
-5.0,-3.0,1.555
-5.0,-2.0,1.556
-2.0,-2.0,1.557
0.0,-6.0,1.558
4.0,-6.0,1.559
4.0,-4.0,1.56
1.0,-6.0,1.561
-1.0,-5.0,1.562
0.0,0.0,1.563
1.0,6.0,1.564
-4.0,10.0,1.565
-12.0,10.0,1.566
-12.0,9.0,1.567
0.0,4.0,1.568
12.0,-1.0,1.569
16.0,-4.0,1.57
15.0,0.0,1.571
14.0,3.0,1.572
10.0,3.0,1.573
2.0,-1.0,1.574
1.0,-4.0,1.575
6.0,-4.0,1.576
9.0,-5.0,1.577
6.0,-6.0,1.578
10.0,-3.0,1.579
13.0,-1.0,1.58
17.0,-6.0,1.581
20.0,-10.0,1.582
21.0,-8.0,1.583
18.0,-4.0,1.584
3.0,-1.0,1.585
-8.0,2.0,1.586
-8.0,6.0,1.587
-10.0,9.0,1.588
-15.0,6.0,1.589
-20.0,2.0,1.59
-23.0,1.0,1.591
-24.0,0.0,1.592
-14.0,-5.0,1.593
-7.0,-9.0,1.594
-6.0,-7.0,1.595
-1.0,-2.0,1.596
15.0,2.0,1.597
29.0,0.0,1.598
24.0,-1.0,1.599
6.0,-3.0,1.6
-2.0,-9.0,1.601
0.0,-12.0,1.602
7.0,-8.0,1.603
10.0,3.0,1.604
13.0,9.0,1.605
21.0,7.0,1.606
29.0,1.0,1.607
26.0,1.0,1.608
15.0,8.0,1.609
3.0,14.0,1.61
0.0,14.0,1.611
0.0,8.0,1.612
-2.0,0.0,1.613
-2.0,-4.0,1.614
-1.0,-5.0,1.615
0.0,-6.0,1.616
0.0,-3.0,1.617
-5.0,-2.0,1.618
-7.0,-3.0,1.619
-5.0,-7.0,1.62
-2.0,-13.0,1.621
0.0,-11.0,1.622
0.0,-5.0,1.623
-2.0,0.0,1.624
-9.0,3.0,1.625
-13.0,4.0,1.626
-6.0,3.0,1.627
7.0,0.0,1.628
13.0,-3.0,1.629
9.0,-2.0,1.63
2.0,-1.0,1.631
1.0,0.0,1.632
4.0,-2.0,1.633
4.0,-5.0,1.634
2.0,-5.0,1.635
0.0,-3.0,1.636
1.0,0.0,1.637
2.0,-3.0,1.638
3.0,-8.0,1.639
0.0,-10.0,1.64
-4.0,-8.0,1.641
-4.0,0.0,1.642
1.0,7.0,1.643
9.0,12.0,1.644
9.0,16.0,1.645
3.0,16.0,1.646
-2.0,8.0,1.647
-3.0,-1.0,1.648
-9.0,-5.0,1.649
-15.0,-2.0,1.65
-13.0,1.0,1.651
0.0,0.0,1.652
12.0,-1.0,1.653
16.0,-2.0,1.654
19.0,-6.0,1.655
21.0,-10.0,1.656
20.0,-10.0,1.657
11.0,-9.0,1.658
8.0,-8.0,1.659
5.0,-7.0,1.66
1.0,-6.0,1.661
-2.0,-4.0,1.662
0.0,0.0,1.663
1.0,3.0,1.664
3.0,7.0,1.665
4.0,8.0,1.666
2.0,4.0,1.667
0.0,2.0,1.668
0.0,7.0,1.669
-2.0,9.0,1.67
-7.0,7.0,1.671
-9.0,1.0,1.672
-3.0,0.0,1.673
2.0,0.0,1.674
3.0,-4.0,1.675
5.0,-6.0,1.676
7.0,-4.0,1.677
7.0,-1.0,1.678
2.0,0.0,1.679
-2.0,-4.0,1.68
-2.0,-9.0,1.681
-2.0,-8.0,1.682
-2.0,-5.0,1.683
4.0,-3.0,1.684
11.0,0.0,1.685
10.0,6.0,1.686
5.0,11.0,1.687
9.0,11.0,1.688
23.0,7.0,1.689
33.0,2.0,1.69
30.0,-1.0,1.691
19.0,-3.0,1.692
5.0,-5.0,1.693
-10.0,-8.0,1.694
-30.0,-7.0,1.695
-50.0,-6.0,1.696
-58.0,-2.0,1.697
-45.0,-2.0,1.698
-18.0,-5.0,1.699
5.0,-5.0,1.7
16.0,-8.0,1.701
13.0,-6.0,1.702
13.0,-1.0,1.703
22.0,3.0,1.704
34.0,5.0,1.705
33.0,4.0,1.706
21.0,2.0,1.707
12.0,0.0,1.708
11.0,-2.0,1.709
9.0,-2.0,1.71
2.0,-3.0,1.711
-4.0,-1.0,1.712
-7.0,-1.0,1.713
-13.0,-3.0,1.714
-19.0,-2.0,1.715
-19.0,-1.0,1.716
-10.0,0.0,1.717
-5.0,0.0,1.718
-10.0,-1.0,1.719
-18.0,-2.0,1.72
-15.0,-6.0,1.721
0.0,-7.0,1.722
24.0,-5.0,1.723
39.0,0.0,1.724
40.0,6.0,1.725
29.0,12.0,1.726
14.0,12.0,1.727
4.0,7.0,1.728
2.0,0.0,1.729
3.0,-1.0,1.73
0.0,0.0,1.731
-5.0,-2.0,1.732
-5.0,-5.0,1.733
-3.0,-5.0,1.734
-4.0,-3.0,1.735
-9.0,-2.0,1.736
-13.0,-2.0,1.737
-11.0,-4.0,1.738
-7.0,-2.0,1.739
-3.0,0.0,1.74
-2.0,-5.0,1.741
1.0,-7.0,1.742
9.0,-5.0,1.743
16.0,1.0,1.744
19.0,4.0,1.745
21.0,5.0,1.746
17.0,5.0,1.747
12.0,5.0,1.748
6.0,5.0,1.749
0.0,3.0,1.75
-5.0,0.0,1.751
-9.0,-4.0,1.752
-7.0,-6.0,1.753
-6.0,-2.0,1.754
-7.0,3.0,1.755
-7.0,2.0,1.756
-3.0,-2.0,1.757
2.0,-8.0,1.758
3.0,-5.0,1.759
3.0,-1.0,1.76
3.0,-4.0,1.761
1.0,-7.0,1.762
0.0,-7.0,1.763
4.0,-2.0,1.764
6.0,0.0,1.765
4.0,-1.0,1.766
6.0,1.0,1.767
11.0,9.0,1.768
11.0,13.0,1.769
6.0,12.0,1.77
1.0,6.0,1.771
3.0,0.0,1.772
8.0,0.0,1.773
8.0,1.0,1.774
6.0,2.0,1.775
3.0,-1.0,1.776
0.0,-2.0,1.777
-2.0,-3.0,1.778
0.0,-4.0,1.779
2.0,-5.0,1.78
-2.0,-7.0,1.781
-13.0,-8.0,1.782
-12.0,-2.0,1.783
9.0,2.0,1.784
26.0,3.0,1.785
25.0,4.0,1.786
15.0,1.0,1.787
7.0,-1.0,1.788
-2.0,2.0,1.789
-22.0,3.0,1.79
-42.0,-3.0,1.791
-41.0,-8.0,1.792
-16.0,-4.0,1.793
11.0,-1.0,1.794
23.0,-1.0,1.795
22.0,-2.0,1.796
21.0,-2.0,1.797
20.0,-2.0,1.798
17.0,-6.0,1.799
7.0,-8.0,1.8
0.0,-9.0,1.801
-1.0,-5.0,1.802
5.0,-2.0,1.803
10.0,0.0,1.804
9.0,1.0,1.805
4.0,2.0,1.806
3.0,2.0,1.807
7.0,2.0,1.808
10.0,4.0,1.809
6.0,4.0,1.81
-1.0,1.0,1.811
-7.0,0.0,1.812
-10.0,4.0,1.813
-10.0,6.0,1.814
-5.0,0.0,1.815
1.0,-7.0,1.816
2.0,-8.0,1.817
-1.0,-6.0,1.818
-3.0,-5.0,1.819
-5.0,-9.0,1.82
-5.0,-8.0,1.821
-3.0,-1.0,1.822
3.0,3.0,1.823
8.0,2.0,1.824
3.0,2.0,1.825
-1.0,8.0,1.826
-1.0,10.0,1.827
1.0,6.0,1.828
7.0,0.0,1.829
11.0,0.0,1.83
7.0,1.0,1.831
3.0,-1.0,1.832
2.0,-3.0,1.833
1.0,-1.0,1.834
1.0,0.0,1.835
1.0,-3.0,1.836
5.0,-3.0,1.837
7.0,-2.0,1.838
1.0,0.0,1.839
-9.0,-1.0,1.84
-16.0,-4.0,1.841
-15.0,-4.0,1.842
-5.0,-3.0,1.843
2.0,-1.0,1.844
5.0,0.0,1.845
7.0,1.0,1.846
16.0,1.0,1.847
26.0,1.0,1.848
31.0,4.0,1.849
29.0,6.0,1.85
24.0,2.0,1.851
18.0,-4.0,1.852
10.0,-5.0,1.853
-3.0,0.0,1.854
-15.0,5.0,1.855
-19.0,5.0,1.856
-13.0,2.0,1.857
-6.0,-3.0,1.858
-2.0,-3.0,1.859
-4.0,-4.0,1.86
-3.0,-5.0,1.861
4.0,-7.0,1.862
12.0,-9.0,1.863
14.0,-8.0,1.864
7.0,1.0,1.865
0.0,9.0,1.866
0.0,7.0,1.867
0.0,6.0,1.868
1.0,8.0,1.869
4.0,9.0,1.87
3.0,6.0,1.871
-4.0,4.0,1.872
-15.0,4.0,1.873
-21.0,4.0,1.874
-16.0,-1.0,1.875
-3.0,-5.0,1.876
11.0,-2.0,1.877
18.0,-1.0,1.878
15.0,-7.0,1.879
1.0,-13.0,1.88
-11.0,-14.0,1.881
-13.0,-9.0,1.882
2.0,-4.0,1.883
21.0,-2.0,1.884
32.0,-2.0,1.885
31.0,0.0,1.886
26.0,2.0,1.887
25.0,3.0,1.888
21.0,0.0,1.889
10.0,-1.0,1.89
-4.0,-1.0,1.891
-15.0,-1.0,1.892
-21.0,0.0,1.893
-30.0,-2.0,1.894
-35.0,-2.0,1.895
-29.0,-3.0,1.896
-14.0,-3.0,1.897
-8.0,-6.0,1.898
-13.0,-7.0,1.899
-16.0,-4.0,1.9
-11.0,-4.0,1.901
-4.0,-2.0,1.902
9.0,2.0,1.903
21.0,7.0,1.904
26.0,6.0,1.905
30.0,1.0,1.906
27.0,0.0,1.907
23.0,1.0,1.908
21.0,5.0,1.909
18.0,6.0,1.91
10.0,5.0,1.911
4.0,3.0,1.912
2.0,0.0,1.913
1.0,-2.0,1.914
2.0,-3.0,1.915
3.0,-3.0,1.916
-1.0,0.0,1.917
-5.0,0.0,1.918
-7.0,0.0,1.919
-4.0,-4.0,1.92
-1.0,-11.0,1.921
-1.0,-11.0,1.922
5.0,-4.0,1.923
16.0,4.0,1.924
18.0,11.0,1.925
7.0,11.0,1.926
-4.0,7.0,1.927
-9.0,1.0,1.928
-13.0,-2.0,1.929
-20.0,1.0,1.93
-19.0,8.0,1.931
-8.0,10.0,1.932
-2.0,2.0,1.933
-3.0,-5.0,1.934
-4.0,-7.0,1.935
1.0,-5.0,1.936
7.0,-3.0,1.937
12.0,-5.0,1.938
16.0,-8.0,1.939
18.0,-8.0,1.94
16.0,-9.0,1.941
16.0,-9.0,1.942
21.0,-7.0,1.943
25.0,-5.0,1.944
17.0,2.0,1.945
4.0,10.0,1.946
2.0,10.0,1.947
8.0,4.0,1.948
4.0,2.0,1.949
-6.0,3.0,1.95
-12.0,3.0,1.951
-11.0,0.0,1.952
-11.0,-5.0,1.953
-13.0,-5.0,1.954
-12.0,-2.0,1.955
-12.0,0.0,1.956
-15.0,0.0,1.957
-17.0,-3.0,1.958
-8.0,-4.0,1.959
3.0,-2.0,1.96
8.0,-3.0,1.961
6.0,-4.0,1.962
13.0,-4.0,1.963
21.0,0.0,1.964
21.0,5.0,1.965
14.0,5.0,1.966
14.0,0.0,1.967
25.0,-2.0,1.968
33.0,-2.0,1.969
23.0,1.0,1.97
1.0,4.0,1.971
-20.0,7.0,1.972
-30.0,5.0,1.973
-27.0,0.0,1.974
-21.0,-3.0,1.975
-15.0,-2.0,1.976
-8.0,-1.0,1.977
-3.0,-4.0,1.978
-1.0,-7.0,1.979
-1.0,-7.0,1.98
-5.0,-6.0,1.981
-4.0,-7.0,1.982
10.0,-9.0,1.983
21.0,-5.0,1.984
17.0,2.0,1.985
13.0,6.0,1.986
13.0,4.0,1.987
13.0,2.0,1.988
7.0,3.0,1.989
3.0,0.0,1.99
4.0,-5.0,1.991
6.0,-8.0,1.992
4.0,-4.0,1.993
3.0,0.0,1.994
3.0,0.0,1.995
5.0,-2.0,1.996
9.0,0.0,1.997
9.0,0.0,1.998
-3.0,-1.0,1.999
-15.0,-4.0,2.0
-18.0,-6.0,2.001
-16.0,-6.0,2.002
-6.0,1.0,2.003
4.0,6.0,2.004
7.0,4.0,2.005
-3.0,3.0,2.006
-14.0,1.0,2.007
-13.0,0.0,2.008
-1.0,1.0,2.009
13.0,3.0,2.01
22.0,6.0,2.011
29.0,7.0,2.012
29.0,1.0,2.013
21.0,-2.0,2.014
11.0,1.0,2.015
6.0,3.0,2.016
9.0,-1.0,2.017
7.0,-5.0,2.018
-1.0,-4.0,2.019
-8.0,0.0,2.02
-8.0,-3.0,2.021
-5.0,-3.0,2.022
4.0,-2.0,2.023
11.0,0.0,2.024
10.0,0.0,2.025
7.0,1.0,2.026
1.0,2.0,2.027
-4.0,4.0,2.028
-3.0,9.0,2.029
-2.0,12.0,2.03
-2.0,9.0,2.031
-1.0,0.0,2.032
1.0,-2.0,2.033
4.0,1.0,2.034
5.0,3.0,2.035
5.0,-2.0,2.036
1.0,-6.0,2.037
-4.0,-7.0,2.038
-10.0,-6.0,2.039
-12.0,-5.0,2.04
-14.0,-6.0,2.041
-15.0,-6.0,2.042
-8.0,-4.0,2.043
2.0,-2.0,2.044
8.0,0.0,2.045
4.0,1.0,2.046
1.0,1.0,2.047
5.0,0.0,2.048
8.0,-1.0,2.049
2.0,-2.0,2.05
-3.0,0.0,2.051
1.0,2.0,2.052
10.0,0.0,2.053
13.0,0.0,2.054
9.0,1.0,2.055
6.0,2.0,2.056
4.0,0.0,2.057
-1.0,-2.0,2.058
-3.0,-3.0,2.059
-6.0,-3.0,2.06
-4.0,-7.0,2.061
-2.0,-8.0,2.062
1.0,-5.0,2.063
5.0,0.0,2.064
13.0,6.0,2.065
20.0,7.0,2.066
25.0,2.0,2.067
29.0,-2.0,2.068
32.0,0.0,2.069
32.0,2.0,2.07
22.0,2.0,2.071
13.0,0.0,2.072
9.0,-3.0,2.073
3.0,-6.0,2.074
-10.0,-7.0,2.075
-22.0,-5.0,2.076
-26.0,-2.0,2.077
-33.0,-3.0,2.078
-51.0,-5.0,2.079
-58.0,-3.0,2.08
-42.0,-1.0,2.081
-18.0,0.0,2.082
-2.0,-2.0,2.083
10.0,-2.0,2.084
24.0,5.0,2.085
35.0,13.0,2.086
36.0,12.0,2.087
28.0,3.0,2.088
24.0,-3.0,2.089
22.0,-2.0,2.09
18.0,0.0,2.091
13.0,0.0,2.092
12.0,-2.0,2.093
13.0,-2.0,2.094
9.0,-2.0,2.095
0.0,-4.0,2.096
2.0,-5.0,2.097
9.0,-5.0,2.098
11.0,-3.0,2.099
0.0,0.0,2.1
-11.0,0.0,2.101
-11.0,-3.0,2.102
-3.0,-4.0,2.103
1.0,-2.0,2.104
-3.0,2.0,2.105
-6.0,4.0,2.106
-5.0,5.0,2.107
-5.0,3.0,2.108
-6.0,1.0,2.109
-8.0,-1.0,2.11
-8.0,-4.0,2.111
-8.0,-4.0,2.112
-6.0,0.0,2.113
-7.0,6.0,2.114
-8.0,7.0,2.115
-6.0,2.0,2.116
0.0,-6.0,2.117
7.0,-10.0,2.118
10.0,-9.0,2.119
2.0,-5.0,2.12
-5.0,-4.0,2.121
-5.0,-4.0,2.122
2.0,-6.0,2.123
13.0,-3.0,2.124
16.0,2.0,2.125
11.0,8.0,2.126
6.0,10.0,2.127
6.0,7.0,2.128
8.0,4.0,2.129
7.0,2.0,2.13
5.0,0.0,2.131
2.0,-3.0,2.132
-6.0,-4.0,2.133
-15.0,-5.0,2.134
-13.0,-6.0,2.135
3.0,-5.0,2.136
20.0,0.0,2.137
25.0,0.0,2.138
23.0,-2.0,2.139
19.0,-6.0,2.14
11.0,-10.0,2.141
3.0,-7.0,2.142
0.0,-2.0,2.143
-1.0,3.0,2.144
0.0,6.0,2.145
1.0,8.0,2.146
-4.0,8.0,2.147
-5.0,5.0,2.148
12.0,3.0,2.149
25.0,2.0,2.15
27.0,3.0,2.151
26.0,1.0,2.152
12.0,-1.0,2.153
-1.0,-2.0,2.154
-14.0,-2.0,2.155
-24.0,-2.0,2.156
-25.0,-2.0,2.157
-28.0,-8.0,2.158
-34.0,-11.0,2.159
-24.0,-9.0,2.16
-3.0,-8.0,2.161
6.0,-5.0,2.162
9.0,-2.0,2.163
15.0,4.0,2.164
24.0,12.0,2.165
21.0,16.0,2.166
11.0,14.0,2.167
6.0,12.0,2.168
2.0,11.0,2.169
-5.0,8.0,2.17
-10.0,0.0,2.171
-6.0,-5.0,2.172
-1.0,-5.0,2.173
-1.0,-5.0,2.174
-6.0,-9.0,2.175
-6.0,-12.0,2.176
-3.0,-9.0,2.177
0.0,-6.0,2.178
2.0,-2.0,2.179
4.0,0.0,2.18
4.0,1.0,2.181
7.0,-1.0,2.182
16.0,-7.0,2.183
23.0,-7.0,2.184
21.0,-2.0,2.185
20.0,3.0,2.186
24.0,2.0,2.187
24.0,5.0,2.188
12.0,13.0,2.189
1.0,16.0,2.19
0.0,8.0,2.191
-3.0,-1.0,2.192
-7.0,0.0,2.193
-10.0,2.0,2.194
-6.0,-1.0,2.195
-2.0,-5.0,2.196
-3.0,-5.0,2.197
-3.0,-5.0,2.198
-2.0,-6.0,2.199
-3.0,-8.0,2.2
-11.0,-7.0,2.201
-15.0,-5.0,2.202
-10.0,-2.0,2.203
-5.0,0.0,2.204
-8.0,3.0,2.205
-10.0,5.0,2.206
0.0,3.0,2.207
17.0,1.0,2.208
26.0,1.0,2.209
29.0,1.0,2.21
25.0,-1.0,2.211
16.0,-4.0,2.212
3.0,-3.0,2.213
0.0,-2.0,2.214
7.0,-2.0,2.215
12.0,-2.0,2.216
11.0,0.0,2.217
7.0,0.0,2.218
7.0,-1.0,2.219
4.0,-5.0,2.22
-5.0,-7.0,2.221
-10.0,-5.0,2.222
-2.0,-6.0,2.223
4.0,-5.0,2.224
1.0,-2.0,2.225
-2.0,1.0,2.226
-2.0,3.0,2.227
-4.0,2.0,2.228
-8.0,2.0,2.229
-11.0,3.0,2.23
-10.0,3.0,2.231
-7.0,0.0,2.232
2.0,-5.0,2.233
10.0,-4.0,2.234
8.0,0.0,2.235
6.0,1.0,2.236
1.0,-1.0,2.237
-1.0,-6.0,2.238
9.0,-6.0,2.239
20.0,-2.0,2.24
19.0,-1.0,2.241
4.0,-2.0,2.242
-5.0,-2.0,2.243
-5.0,-1.0,2.244
-9.0,3.0,2.245
-22.0,6.0,2.246
-29.0,5.0,2.247
-20.0,3.0,2.248
-3.0,5.0,2.249
4.0,12.0,2.25
0.0,15.0,2.251
-3.0,8.0,2.252
-2.0,-5.0,2.253
-2.0,-10.0,2.254
-2.0,-7.0,2.255
5.0,-6.0,2.256
19.0,-5.0,2.257
24.0,-2.0,2.258
18.0,5.0,2.259
11.0,7.0,2.26
5.0,-3.0,2.261
2.0,-8.0,2.262
10.0,-5.0,2.263
16.0,-4.0,2.264
15.0,-9.0,2.265
13.0,-9.0,2.266
9.0,-1.0,2.267
6.0,7.0,2.268
6.0,10.0,2.269
6.0,10.0,2.27
5.0,11.0,2.271
3.0,6.0,2.272
0.0,-2.0,2.273
-3.0,-6.0,2.274
-3.0,-3.0,2.275
-3.0,-3.0,2.276
-5.0,-6.0,2.277
-9.0,-7.0,2.278
-17.0,-6.0,2.279
-20.0,-5.0,2.28
-15.0,-8.0,2.281
-7.0,-9.0,2.282
2.0,0.0,2.283
15.0,8.0,2.284
22.0,6.0,2.285
20.0,5.0,2.286
15.0,5.0,2.287
12.0,5.0,2.288
14.0,0.0,2.289
14.0,-4.0,2.29
13.0,-1.0,2.291
14.0,1.0,2.292
15.0,0.0,2.293
11.0,-3.0,2.294
7.0,-3.0,2.295
14.0,-2.0,2.296
23.0,-4.0,2.297
19.0,-6.0,2.298
8.0,-7.0,2.299
-1.0,-8.0,2.3
-5.0,-13.0,2.301
-8.0,-13.0,2.302
-11.0,-8.0,2.303
-15.0,0.0,2.304
-19.0,5.0,2.305
-21.0,5.0,2.306
-18.0,4.0,2.307
-10.0,3.0,2.308
7.0,3.0,2.309
21.0,1.0,2.31
17.0,0.0,2.311
13.0,-1.0,2.312
11.0,-1.0,2.313
6.0,2.0,2.314
-7.0,3.0,2.315
-17.0,0.0,2.316
-19.0,-4.0,2.317
-22.0,-3.0,2.318
-24.0,-4.0,2.319
-21.0,-5.0,2.32
-11.0,-7.0,2.321
-4.0,-8.0,2.322
3.0,-4.0,2.323
15.0,0.0,2.324
20.0,3.0,2.325
16.0,6.0,2.326
10.0,3.0,2.327
18.0,2.0,2.328
25.0,7.0,2.329
20.0,10.0,2.33
7.0,7.0,2.331
3.0,3.0,2.332
8.0,1.0,2.333
9.0,0.0,2.334
5.0,-2.0,2.335
6.0,-5.0,2.336
13.0,-5.0,2.337
10.0,-3.0,2.338
0.0,-3.0,2.339
-6.0,-4.0,2.34
-4.0,-6.0,2.341
0.0,-6.0,2.342
10.0,-3.0,2.343
17.0,0.0,2.344
9.0,3.0,2.345
1.0,5.0,2.346
-4.0,3.0,2.347
-8.0,2.0,2.348
-6.0,6.0,2.349
-4.0,8.0,2.35
-4.0,6.0,2.351
-4.0,3.0,2.352
0.0,1.0,2.353
5.0,0.0,2.354
10.0,-2.0,2.355
13.0,-4.0,2.356
7.0,-4.0,2.357
-1.0,-4.0,2.358
-18.0,-5.0,2.359
-25.0,-6.0,2.36
-23.0,-8.0,2.361
-13.0,-9.0,2.362
2.0,-5.0,2.363
17.0,-1.0,2.364
23.0,4.0,2.365
17.0,7.0,2.366
10.0,4.0,2.367
8.0,3.0,2.368
12.0,8.0,2.369
16.0,11.0,2.37
18.0,8.0,2.371
14.0,4.0,2.372
2.0,2.0,2.373
-6.0,0.0,2.374
-4.0,-3.0,2.375
2.0,-6.0,2.376
6.0,-6.0,2.377
0.0,-6.0,2.378
-1.0,-5.0,2.379
-5.0,-7.0,2.38
-10.0,-9.0,2.381
-11.0,-5.0,2.382
5.0,-1.0,2.383
16.0,2.0,2.384
14.0,3.0,2.385
9.0,4.0,2.386
0.0,3.0,2.387
-9.0,0.0,2.388
-8.0,-1.0,2.389
-6.0,-2.0,2.39
-1.0,0.0,2.391
6.0,3.0,2.392
20.0,6.0,2.393
28.0,5.0,2.394
12.0,-2.0,2.395
-2.0,-9.0,2.396
-10.0,-7.0,2.397
-19.0,-5.0,2.398
-30.0,-5.0,2.399
-35.0,-5.0,2.4
-20.0,-8.0,2.401
0.0,-10.0,2.402
15.0,-4.0,2.403
18.0,1.0,2.404
13.0,5.0,2.405
4.0,8.0,2.406
-2.0,8.0,2.407
-1.0,8.0,2.408
5.0,9.0,2.409
11.0,9.0,2.41
14.0,7.0,2.411
13.0,5.0,2.412
8.0,4.0,2.413
2.0,2.0,2.414
-1.0,-3.0,2.415
-1.0,-8.0,2.416
-2.0,-7.0,2.417
-10.0,-4.0,2.418
-14.0,-6.0,2.419
-14.0,-8.0,2.42
0.0,-10.0,2.421
10.0,-9.0,2.422
12.0,-7.0,2.423
13.0,-2.0,2.424
7.0,6.0,2.425
2.0,10.0,2.426
6.0,5.0,2.427
11.0,-4.0,2.428
21.0,-6.0,2.429
29.0,-2.0,2.43
29.0,1.0,2.431
26.0,1.0,2.432
13.0,2.0,2.433
2.0,3.0,2.434
0.0,2.0,2.435
-1.0,-1.0,2.436
4.0,-2.0,2.437
8.0,-2.0,2.438
2.0,-3.0,2.439
-2.0,-5.0,2.44
-4.0,-7.0,2.441
-8.0,-9.0,2.442
-3.0,-6.0,2.443
7.0,-1.0,2.444
8.0,7.0,2.445
-2.0,14.0,2.446
-5.0,12.0,2.447
0.0,10.0,2.448
4.0,5.0,2.449
-2.0,1.0,2.45
-8.0,2.0,2.451
-7.0,2.0,2.452
-8.0,-1.0,2.453
-16.0,-3.0,2.454
-20.0,-1.0,2.455
-14.0,0.0,2.456
-5.0,-2.0,2.457
3.0,-5.0,2.458
8.0,-4.0,2.459
10.0,-4.0,2.46
0.0,-8.0,2.461
-5.0,-8.0,2.462
3.0,-3.0,2.463
9.0,2.0,2.464
9.0,3.0,2.465
10.0,1.0,2.466
10.0,2.0,2.467
10.0,2.0,2.468
8.0,0.0,2.469
7.0,0.0,2.47
5.0,1.0,2.471
4.0,1.0,2.472
5.0,-3.0,2.473
6.0,-7.0,2.474
6.0,-4.0,2.475
5.0,3.0,2.476
7.0,7.0,2.477
11.0,2.0,2.478
18.0,-2.0,2.479
22.0,-6.0,2.48
17.0,-5.0,2.481
2.0,-4.0,2.482
-13.0,-4.0,2.483
-20.0,-1.0,2.484
-24.0,4.0,2.485
-28.0,8.0,2.486
-22.0,5.0,2.487
-6.0,2.0,2.488
12.0,2.0,2.489
16.0,3.0,2.49
6.0,1.0,2.491
-1.0,0.0,2.492
2.0,1.0,2.493
7.0,2.0,2.494
6.0,0.0,2.495
2.0,-3.0,2.496
0.0,-3.0,2.497
1.0,-2.0,2.498
-4.0,-3.0,2.499
-8.0,-7.0,2.5
-8.0,-13.0,2.501
-4.0,-12.0,2.502
7.0,-6.0,2.503
17.0,6.0,2.504
21.0,15.0,2.505
24.0,17.0,2.506
22.0,12.0,2.507
20.0,5.0,2.508
16.0,3.0,2.509
12.0,3.0,2.51
11.0,2.0,2.511
8.0,0.0,2.512
1.0,-2.0,2.513
-4.0,-3.0,2.514
-5.0,-5.0,2.515
-6.0,-5.0,2.516
-7.0,-4.0,2.517
-7.0,-8.0,2.518
-3.0,-9.0,2.519
1.0,-10.0,2.52
3.0,-11.0,2.521
4.0,-11.0,2.522
7.0,-8.0,2.523
10.0,0.0,2.524
9.0,7.0,2.525
4.0,6.0,2.526
2.0,0.0,2.527
2.0,-3.0,2.528
3.0,1.0,2.529
1.0,4.0,2.53
1.0,5.0,2.531
0.0,4.0,2.532
0.0,6.0,2.533
-1.0,3.0,2.534
0.0,-3.0,2.535
2.0,-7.0,2.536
5.0,-4.0,2.537
0.0,-4.0,2.538
-8.0,-7.0,2.539
-14.0,-11.0,2.54
-16.0,-12.0,2.541
-16.0,-6.0,2.542
-5.0,0.0,2.543
5.0,2.0,2.544
9.0,7.0,2.545
12.0,14.0,2.546
14.0,14.0,2.547
18.0,9.0,2.548
22.0,2.0,2.549
24.0,-1.0,2.55
16.0,-2.0,2.551
8.0,-4.0,2.552
0.0,-4.0,2.553
-8.0,-2.0,2.554
-12.0,-1.0,2.555
-15.0,-1.0,2.556
-13.0,1.0,2.557
-12.0,4.0,2.558
-13.0,4.0,2.559
-8.0,0.0,2.56
0.0,-7.0,2.561
4.0,-7.0,2.562
4.0,-5.0,2.563
5.0,-6.0,2.564
5.0,-6.0,2.565
7.0,-2.0,2.566
15.0,1.0,2.567
27.0,-2.0,2.568
32.0,-9.0,2.569
23.0,-8.0,2.57
14.0,1.0,2.571
11.0,12.0,2.572
14.0,15.0,2.573
13.0,13.0,2.574
9.0,12.0,2.575
8.0,7.0,2.576
0.0,0.0,2.577
-14.0,-5.0,2.578
-21.0,-7.0,2.579
-25.0,-6.0,2.58
-15.0,-10.0,2.581
-5.0,-14.0,2.582
5.0,-13.0,2.583
14.0,-7.0,2.584
18.0,-2.0,2.585
19.0,2.0,2.586
11.0,1.0,2.587
4.0,1.0,2.588
1.0,4.0,2.589
-3.0,7.0,2.59
-9.0,5.0,2.591
-13.0,0.0,2.592
-9.0,0.0,2.593
-5.0,3.0,2.594
-4.0,1.0,2.595
0.0,-9.0,2.596
12.0,-16.0,2.597
22.0,-13.0,2.598
13.0,-3.0,2.599
-1.0,3.0,2.6
-10.0,-2.0,2.601
-14.0,-4.0,2.602
-14.0,1.0,2.603
-16.0,5.0,2.604
-21.0,1.0,2.605
-18.0,-1.0,2.606
-2.0,0.0,2.607
16.0,3.0,2.608
19.0,3.0,2.609
10.0,2.0,2.61
3.0,0.0,2.611
6.0,-1.0,2.612
8.0,-2.0,2.613
9.0,-3.0,2.614
16.0,0.0,2.615
21.0,2.0,2.616
16.0,-1.0,2.617
-2.0,-5.0,2.618
-11.0,-7.0,2.619
-8.0,-8.0,2.62
-2.0,-11.0,2.621
-1.0,-11.0,2.622
6.0,-8.0,2.623
23.0,0.0,2.624
32.0,9.0,2.625
24.0,11.0,2.626
11.0,6.0,2.627
8.0,-1.0,2.628
11.0,-3.0,2.629
8.0,2.0,2.63
-1.0,6.0,2.631
-7.0,3.0,2.632
-9.0,-4.0,2.633
-8.0,-8.0,2.634
-5.0,-7.0,2.635
0.0,-3.0,2.636
4.0,4.0,2.637
0.0,11.0,2.638
2.0,11.0,2.639
4.0,5.0,2.64
1.0,-3.0,2.641
0.0,-4.0,2.642
5.0,2.0,2.643
8.0,5.0,2.644
5.0,2.0,2.645
3.0,-2.0,2.646
4.0,-2.0,2.647
4.0,2.0,2.648
2.0,1.0,2.649
1.0,-1.0,2.65
1.0,-2.0,2.651
1.0,0.0,2.652
2.0,2.0,2.653
3.0,1.0,2.654
3.0,-1.0,2.655
2.0,-2.0,2.656
2.0,-1.0,2.657
0.0,-3.0,2.658
2.0,0.0,2.659
4.0,1.0,2.66
1.0,-1.0,2.661
0.0,-3.0,2.662
5.0,-2.0,2.663
8.0,0.0,2.664
5.0,1.0,2.665
3.0,2.0,2.666
4.0,2.0,2.667
4.0,1.0,2.668
2.0,-1.0,2.669
1.0,-3.0,2.67
1.0,1.0,2.671
1.0,5.0,2.672
2.0,6.0,2.673
3.0,6.0,2.674
3.0,0.0,2.675
2.0,-3.0,2.676
2.0,-3.0,2.677
1.0,-6.0,2.678
-3.0,0.0,2.679
-5.0,2.0,2.68
-4.0,-3.0,2.681
-1.0,-7.0,2.682
5.0,-4.0,2.683
12.0,-1.0,2.684
11.0,2.0,2.685
4.0,5.0,2.686
0.0,5.0,2.687
3.0,2.0,2.688
5.0,-3.0,2.689
1.0,-6.0,2.69
-2.0,3.0,2.691
0.0,10.0,2.692
4.0,12.0,2.693
4.0,11.0,2.694
4.0,1.0,2.695
6.0,-6.0,2.696
10.0,-6.0,2.697
5.0,-4.0,2.698
0.0,0.0,2.699
-5.0,-3.0,2.7
-5.0,-12.0,2.701
-3.0,-13.0,2.702
2.0,-4.0,2.703
4.0,6.0,2.704
-4.0,12.0,2.705
-10.0,10.0,2.706
-8.0,5.0,2.707
-4.0,-1.0,2.708
5.0,-1.0,2.709
12.0,3.0,2.71
14.0,4.0,2.711
15.0,0.0,2.712
7.0,-4.0,2.713
1.0,-6.0,2.714
7.0,-7.0,2.715
13.0,-9.0,2.716
12.0,-6.0,2.717
11.0,-2.0,2.718
9.0,1.0,2.719
7.0,3.0,2.72
1.0,-2.0,2.721
-2.0,-7.0,2.722
2.0,-6.0,2.723
9.0,-4.0,2.724
7.0,1.0,2.725
0.0,5.0,2.726
-1.0,3.0,2.727
1.0,0.0,2.728
3.0,-2.0,2.729
3.0,-5.0,2.73
7.0,-5.0,2.731
11.0,-3.0,2.732
5.0,3.0,2.733
-6.0,8.0,2.734
-14.0,6.0,2.735
-14.0,2.0,2.736
-10.0,-3.0,2.737
-5.0,-7.0,2.738
-1.0,-6.0,2.739
-1.0,-6.0,2.74
3.0,-9.0,2.741
13.0,-8.0,2.742
24.0,2.0,2.743
31.0,13.0,2.744
28.0,16.0,2.745
13.0,8.0,2.746
-13.0,3.0,2.747
-35.0,2.0,2.748
-41.0,2.0,2.749
-28.0,-1.0,2.75
-11.0,-3.0,2.751
0.0,-1.0,2.752
8.0,1.0,2.753
16.0,1.0,2.754
17.0,-3.0,2.755
14.0,-5.0,2.756
14.0,-3.0,2.757
19.0,0.0,2.758
23.0,2.0,2.759
15.0,0.0,2.76
0.0,-5.0,2.761
-9.0,-8.0,2.762
-1.0,-8.0,2.763
9.0,-4.0,2.764
9.0,0.0,2.765
1.0,2.0,2.766
-1.0,1.0,2.767
4.0,0.0,2.768
7.0,0.0,2.769
4.0,0.0,2.77
0.0,4.0,2.771
-1.0,9.0,2.772
-3.0,8.0,2.773
-4.0,3.0,2.774
-4.0,0.0,2.775
-1.0,2.0,2.776
2.0,5.0,2.777
1.0,0.0,2.778
1.0,-4.0,2.779
1.0,-4.0,2.78
0.0,-5.0,2.781
-1.0,-7.0,2.782
4.0,-9.0,2.783
8.0,-4.0,2.784
8.0,2.0,2.785
7.0,2.0,2.786
1.0,0.0,2.787
-5.0,-1.0,2.788
-10.0,3.0,2.789
-13.0,4.0,2.79
-8.0,0.0,2.791
-1.0,-3.0,2.792
9.0,-1.0,2.793
18.0,1.0,2.794
18.0,0.0,2.795
17.0,-5.0,2.796
10.0,-6.0,2.797
4.0,-5.0,2.798
2.0,-6.0,2.799
2.0,-9.0,2.8
1.0,-13.0,2.801
-3.0,-10.0,2.802
0.0,-8.0,2.803
9.0,-9.0,2.804
11.0,-7.0,2.805
3.0,1.0,2.806
0.0,8.0,2.807
5.0,6.0,2.808
8.0,1.0,2.809
2.0,4.0,2.81
-3.0,5.0,2.811
-2.0,1.0,2.812
-3.0,-1.0,2.813
-8.0,2.0,2.814
-12.0,5.0,2.815
-10.0,4.0,2.816
-3.0,4.0,2.817
0.0,5.0,2.818
2.0,0.0,2.819
1.0,-10.0,2.82
-1.0,-18.0,2.821
-3.0,-14.0,2.822
3.0,-7.0,2.823
13.0,-3.0,2.824
17.0,0.0,2.825
11.0,6.0,2.826
3.0,9.0,2.827
0.0,7.0,2.828
-4.0,7.0,2.829
-13.0,11.0,2.83
-15.0,13.0,2.831
-12.0,12.0,2.832
-8.0,13.0,2.833
-2.0,10.0,2.834
9.0,1.0,2.835
25.0,-8.0,2.836
32.0,-10.0,2.837
19.0,-9.0,2.838
4.0,-9.0,2.839
-1.0,-10.0,2.84
6.0,-10.0,2.841
18.0,-4.0,2.842
26.0,-3.0,2.843
23.0,-5.0,2.844
10.0,-5.0,2.845
-2.0,-1.0,2.846
-2.0,2.0,2.847
5.0,4.0,2.848
6.0,6.0,2.849
-1.0,10.0,2.85
-7.0,8.0,2.851
-7.0,2.0,2.852
-5.0,-1.0,2.853
-4.0,0.0,2.854
-1.0,2.0,2.855
0.0,2.0,2.856
1.0,-1.0,2.857
-1.0,-4.0,2.858
0.0,-3.0,2.859
2.0,1.0,2.86
1.0,-2.0,2.861
0.0,-6.0,2.862
0.0,-8.0,2.863
-2.0,-1.0,2.864
-8.0,11.0,2.865
-14.0,14.0,2.866
-13.0,9.0,2.867
-10.0,-1.0,2.868
0.0,-9.0,2.869
8.0,-12.0,2.87
12.0,-10.0,2.871
16.0,-5.0,2.872
18.0,-2.0,2.873
21.0,-2.0,2.874
20.0,2.0,2.875
18.0,9.0,2.876
16.0,13.0,2.877
12.0,7.0,2.878
-2.0,0.0,2.879
-15.0,-5.0,2.88
-19.0,-11.0,2.881
-14.0,-12.0,2.882
-3.0,-4.0,2.883
8.0,5.0,2.884
15.0,5.0,2.885
16.0,-3.0,2.886
13.0,-6.0,2.887
6.0,-1.0,2.888
-3.0,1.0,2.889
-11.0,-2.0,2.89
-16.0,-3.0,2.891
-14.0,0.0,2.892
-7.0,3.0,2.893
-3.0,-1.0,2.894
-8.0,-6.0,2.895
-19.0,-4.0,2.896
-22.0,-1.0,2.897
-10.0,-4.0,2.898
9.0,-8.0,2.899
19.0,-9.0,2.9
19.0,-7.0,2.901
16.0,-5.0,2.902
23.0,-2.0,2.903
33.0,3.0,2.904
39.0,6.0,2.905
34.0,4.0,2.906
20.0,0.0,2.907
3.0,0.0,2.908
-12.0,8.0,2.909
-20.0,16.0,2.91
-18.0,16.0,2.911
-13.0,6.0,2.912
-13.0,-4.0,2.913
-17.0,-8.0,2.914
-17.0,-5.0,2.915
-8.0,5.0,2.916
4.0,16.0,2.917
10.0,15.0,2.918
3.0,4.0,2.919
-7.0,-8.0,2.92
-12.0,-15.0,2.921
-5.0,-14.0,2.922
7.0,-15.0,2.923
13.0,-15.0,2.924
12.0,-9.0,2.925
6.0,0.0,2.926
2.0,2.0,2.927
3.0,1.0,2.928
11.0,8.0,2.929
16.0,15.0,2.93
16.0,8.0,2.931
8.0,-7.0,2.932
3.0,-11.0,2.933
1.0,3.0,2.934
-1.0,16.0,2.935
-3.0,11.0,2.936
-1.0,-2.0,2.937
1.0,-9.0,2.938
-2.0,-9.0,2.939
-9.0,-8.0,2.94
-25.0,-13.0,2.941
-32.0,-11.0,2.942
-14.0,-3.0,2.943
1.0,5.0,2.944
12.0,7.0,2.945
21.0,7.0,2.946
22.0,7.0,2.947
22.0,7.0,2.948
20.0,0.0,2.949
18.0,-4.0,2.95
18.0,-4.0,2.951
18.0,0.0,2.952
16.0,6.0,2.953
13.0,6.0,2.954
5.0,1.0,2.955
-1.0,-4.0,2.956
0.0,-6.0,2.957
0.0,-7.0,2.958
-7.0,-11.0,2.959
-11.0,-13.0,2.96
-9.0,-14.0,2.961
-6.0,-8.0,2.962
-1.0,0.0,2.963
5.0,6.0,2.964
6.0,8.0,2.965
1.0,8.0,2.966
0.0,7.0,2.967
5.0,6.0,2.968
7.0,9.0,2.969
0.0,12.0,2.97
-5.0,11.0,2.971
-2.0,2.0,2.972
1.0,-6.0,2.973
-1.0,-11.0,2.974
-5.0,-7.0,2.975
-5.0,2.0,2.976
0.0,11.0,2.977
14.0,11.0,2.978
14.0,2.0,2.979
12.0,-8.0,2.98
3.0,-16.0,2.981
-2.0,-14.0,2.982
4.0,-7.0,2.983
12.0,1.0,2.984
22.0,8.0,2.985
31.0,11.0,2.986
31.0,9.0,2.987
30.0,4.0,2.988
22.0,-1.0,2.989
13.0,-4.0,2.99
1.0,-2.0,2.991
-10.0,0.0,2.992
-19.0,0.0,2.993
-26.0,-3.0,2.994
-26.0,-7.0,2.995
-25.0,-7.0,2.996
-28.0,-4.0,2.997
14.0,-7.0,2.998
14.0,-10.0,2.999
12.0,-9.0,3.0
3.0,-4.0,3.001
-2.0,0.0,3.002
4.0,-1.0,3.003
12.0,0.0,3.004
22.0,9.0,3.005
30.0,15.0,3.006
30.0,7.0,3.007
29.0,-7.0,3.008
22.0,-10.0,3.009
13.0,-1.0,3.01
1.0,9.0,3.011
-10.0,12.0,3.012
-18.0,10.0,3.013
-25.0,7.0,3.014
-25.0,1.0,3.015
-24.0,-3.0,3.016
-27.0,-1.0,3.017
-29.0,-2.0,3.018
-22.0,-4.0,3.019
-6.0,-7.0,3.02
9.0,-9.0,3.021
20.0,-4.0,3.022
33.0,-3.0,3.023
49.0,-7.0,3.024
49.0,-7.0,3.025
34.0,-3.0,3.026
20.0,3.0,3.027
23.0,6.0,3.028
32.0,7.0,3.029
27.0,6.0,3.03
9.0,0.0,3.031
-6.0,-8.0,3.032
-10.0,-12.0,3.033
-9.0,-9.0,3.034
-11.0,-4.0,3.035
-13.0,0.0,3.036
-10.0,2.0,3.037
-9.0,5.0,3.038
-12.0,5.0,3.039
-17.0,0.0,3.04
-18.0,-8.0,3.041
-10.0,-9.0,3.042
-2.0,-3.0,3.043
0.0,-4.0,3.044
-5.0,-11.0,3.045
-15.0,-10.0,3.046
-21.0,2.0,3.047
-22.0,14.0,3.048
-14.0,22.0,3.049
3.0,25.0,3.05
25.0,26.0,3.051
34.0,16.0,3.052
25.0,-4.0,3.053
5.0,-17.0,3.054
-11.0,-14.0,3.055
-22.0,-2.0,3.056
-33.0,0.0,3.057
-38.0,-9.0,3.058
-23.0,-14.0,3.059
2.0,-5.0,3.06
18.0,2.0,3.061
19.0,0.0,3.062
26.0,-5.0,3.063
43.0,-1.0,3.064
52.0,6.0,3.065
38.0,6.0,3.066
15.0,-2.0,3.067
1.0,-7.0,3.068
3.0,-8.0,3.069
6.0,-6.0,3.07
8.0,-3.0,3.071
10.0,2.0,3.072
7.0,9.0,3.073
-1.0,10.0,3.074
-7.0,7.0,3.075
-5.0,2.0,3.076
2.0,2.0,3.077
7.0,3.0,3.078
2.0,1.0,3.079
-8.0,-3.0,3.08
-19.0,-9.0,3.081
-28.0,-11.0,3.082
-30.0,-11.0,3.083
-23.0,-9.0,3.084
-11.0,-5.0,3.085
2.0,2.0,3.086
17.0,6.0,3.087
29.0,5.0,3.088
34.0,0.0,3.089
30.0,-2.0,3.09
25.0,-3.0,3.091
26.0,-2.0,3.092
28.0,-3.0,3.093
23.0,-1.0,3.094
10.0,0.0,3.095
-2.0,-4.0,3.096
-8.0,-9.0,3.097
-13.0,-11.0,3.098
-17.0,-9.0,3.099
-19.0,-10.0,3.1
-18.0,-15.0,3.101
-12.0,-12.0,3.102
-6.0,0.0,3.103
-1.0,15.0,3.104
0.0,24.0,3.105
-2.0,21.0,3.106
-2.0,11.0,3.107
1.0,1.0,3.108
6.0,-4.0,3.109
5.0,-3.0,3.11
0.0,0.0,3.111
-5.0,0.0,3.112
-7.0,0.0,3.113
-8.0,2.0,3.114
-9.0,5.0,3.115
-10.0,6.0,3.116
-7.0,8.0,3.117
-6.0,7.0,3.118
-7.0,1.0,3.119
-8.0,-5.0,3.12
-4.0,-7.0,3.121
9.0,-3.0,3.122
25.0,2.0,3.123
35.0,0.0,3.124
32.0,-3.0,3.125
20.0,0.0,3.126
11.0,3.0,3.127
8.0,2.0,3.128
7.0,-5.0,3.129
-1.0,-10.0,3.13
-10.0,-8.0,3.131
-14.0,-2.0,3.132
-8.0,4.0,3.133
3.0,4.0,3.134
10.0,-2.0,3.135
9.0,-10.0,3.136
4.0,-14.0,3.137
2.0,-14.0,3.138
2.0,-10.0,3.139
1.0,-2.0,3.14
-1.0,1.0,3.141
-2.0,-1.0,3.142
5.0,-6.0,3.143
10.0,-6.0,3.144
8.0,4.0,3.145
8.0,18.0,3.146
12.0,24.0,3.147
14.0,16.0,3.148
12.0,3.0,3.149
9.0,-7.0,3.15
5.0,-12.0,3.151
1.0,-9.0,3.152
2.0,-3.0,3.153
2.0,0.0,3.154
-4.0,-7.0,3.155
-11.0,-12.0,3.156
-15.0,-8.0,3.157
-16.0,-5.0,3.158
-9.0,-7.0,3.159
-3.0,-9.0,3.16
2.0,-7.0,3.161
6.0,-3.0,3.162
9.0,6.0,3.163
9.0,12.0,3.164
8.0,10.0,3.165
8.0,8.0,3.166
7.0,4.0,3.167
1.0,1.0,3.168
-12.0,1.0,3.169
-23.0,1.0,3.17
-18.0,0.0,3.171
-5.0,-1.0,3.172
9.0,4.0,3.173
20.0,8.0,3.174
29.0,6.0,3.175
29.0,3.0,3.176
22.0,-1.0,3.177
15.0,-3.0,3.178
16.0,-1.0,3.179
14.0,-6.0,3.18
-2.0,-15.0,3.181
-12.0,-12.0,3.182
-4.0,-6.0,3.183
2.0,-5.0,3.184
2.0,-3.0,3.185
1.0,1.0,3.186
3.0,5.0,3.187
6.0,5.0,3.188
6.0,4.0,3.189
2.0,9.0,3.19
-11.0,12.0,3.191
-19.0,14.0,3.192
-8.0,15.0,3.193
0.0,12.0,3.194
1.0,4.0,3.195
6.0,-3.0,3.196
22.0,-5.0,3.197
34.0,-7.0,3.198
26.0,-9.0,3.199
7.0,-11.0,3.2
-7.0,-9.0,3.201
-15.0,-6.0,3.202
-22.0,3.0,3.203
-30.0,10.0,3.204
-33.0,14.0,3.205
-21.0,15.0,3.206
1.0,5.0,3.207
20.0,-3.0,3.208
18.0,-7.0,3.209
4.0,-10.0,3.21
-2.0,-10.0,3.211
0.0,-8.0,3.212
1.0,-4.0,3.213
-2.0,-2.0,3.214
-3.0,-9.0,3.215
-3.0,-13.0,3.216
-3.0,-6.0,3.217
-4.0,1.0,3.218
-2.0,3.0,3.219
-1.0,-4.0,3.22
-3.0,-8.0,3.221
-5.0,-5.0,3.222
7.0,-2.0,3.223
25.0,-2.0,3.224
37.0,1.0,3.225
42.0,8.0,3.226
44.0,9.0,3.227
36.0,0.0,3.228
15.0,-4.0,3.229
-4.0,0.0,3.23
-6.0,7.0,3.231
0.0,2.0,3.232
-1.0,-6.0,3.233
-11.0,-4.0,3.234
-12.0,4.0,3.235
-3.0,8.0,3.236
-1.0,4.0,3.237
-7.0,-1.0,3.238
-12.0,0.0,3.239
-14.0,3.0,3.24
-16.0,-3.0,3.241
-14.0,-7.0,3.242
-3.0,-7.0,3.243
9.0,-2.0,3.244
11.0,0.0,3.245
3.0,-3.0,3.246
-2.0,-5.0,3.247
-3.0,-3.0,3.248
-5.0,0.0,3.249
-6.0,4.0,3.25
2.0,8.0,3.251
16.0,7.0,3.252
21.0,3.0,3.253
17.0,0.0,3.254
13.0,1.0,3.255
12.0,-2.0,3.256
9.0,-7.0,3.257
5.0,-15.0,3.258
3.0,-10.0,3.259
1.0,5.0,3.26
-4.0,18.0,3.261
-7.0,19.0,3.262
2.0,8.0,3.263
7.0,0.0,3.264
1.0,1.0,3.265
-3.0,5.0,3.266
-3.0,0.0,3.267
-1.0,-10.0,3.268
4.0,-15.0,3.269
8.0,-10.0,3.27
3.0,-6.0,3.271
-2.0,-6.0,3.272
-10.0,-1.0,3.273
-13.0,4.0,3.274
-2.0,5.0,3.275
8.0,-1.0,3.276
16.0,-4.0,3.277
22.0,-3.0,3.278
18.0,1.0,3.279
5.0,3.0,3.28
-4.0,-1.0,3.281
-2.0,-4.0,3.282
7.0,-2.0,3.283
13.0,1.0,3.284
9.0,7.0,3.285
5.0,10.0,3.286
3.0,1.0,3.287
2.0,-5.0,3.288
6.0,-2.0,3.289
17.0,0.0,3.29
26.0,-1.0,3.291
24.0,-4.0,3.292
5.0,-8.0,3.293
-13.0,-10.0,3.294
-20.0,-4.0,3.295
-21.0,0.0,3.296
-25.0,1.0,3.297
-33.0,1.0,3.298
-31.0,-3.0,3.299
-18.0,-5.0,3.3
-1.0,-7.0,3.301
9.0,-5.0,3.302
13.0,-6.0,3.303
16.0,-4.0,3.304
20.0,1.0,3.305
22.0,10.0,3.306
22.0,12.0,3.307
25.0,8.0,3.308
25.0,3.0,3.309
18.0,-1.0,3.31
5.0,0.0,3.311
-4.0,4.0,3.312
-4.0,8.0,3.313
-3.0,7.0,3.314
-8.0,-1.0,3.315
-17.0,-8.0,3.316
-18.0,-6.0,3.317
-15.0,-1.0,3.318
-8.0,2.0,3.319
-5.0,-2.0,3.32
-1.0,-9.0,3.321
11.0,-7.0,3.322
27.0,0.0,3.323
32.0,4.0,3.324
20.0,3.0,3.325
4.0,3.0,3.326
3.0,6.0,3.327
10.0,2.0,3.328
9.0,-7.0,3.329
0.0,-14.0,3.33
-2.0,-12.0,3.331
2.0,-3.0,3.332
2.0,1.0,3.333
-2.0,3.0,3.334
-5.0,4.0,3.335
-3.0,3.0,3.336
-2.0,6.0,3.337
-4.0,7.0,3.338
-2.0,6.0,3.339
-1.0,0.0,3.34
-1.0,-8.0,3.341
-1.0,-7.0,3.342
1.0,0.0,3.343
3.0,0.0,3.344
0.0,-2.0,3.345
-3.0,0.0,3.346
-7.0,6.0,3.347
-8.0,6.0,3.348
-2.0,-2.0,3.349
3.0,-7.0,3.35
11.0,-7.0,3.351
16.0,-1.0,3.352
12.0,6.0,3.353
6.0,9.0,3.354
-6.0,8.0,3.355
-14.0,2.0,3.356
-5.0,-5.0,3.357
7.0,-13.0,3.358
18.0,-19.0,3.359
15.0,-24.0,3.36
7.0,-22.0,3.361
9.0,-18.0,3.362
16.0,-12.0,3.363
18.0,-4.0,3.364
13.0,9.0,3.365
9.0,20.0,3.366
10.0,19.0,3.367
1.0,17.0,3.368
-15.0,13.0,3.369
-19.0,9.0,3.37
3.0,9.0,3.371
37.0,8.0,3.372
53.0,6.0,3.373
40.0,3.0,3.374
16.0,-1.0,3.375
-4.0,-5.0,3.376
-18.0,-8.0,3.377
-30.0,-11.0,3.378
-39.0,-11.0,3.379
-39.0,-5.0,3.38
-28.0,-2.0,3.381
-9.0,0.0,3.382
10.0,-3.0,3.383
18.0,-6.0,3.384
13.0,-7.0,3.385
4.0,-4.0,3.386
1.0,3.0,3.387
2.0,9.0,3.388
4.0,11.0,3.389
4.0,8.0,3.39
3.0,0.0,3.391
-1.0,-7.0,3.392
-3.0,-9.0,3.393
-7.0,-3.0,3.394
-10.0,4.0,3.395
-12.0,3.0,3.396
-12.0,0.0,3.397
-7.0,0.0,3.398
3.0,8.0,3.399
11.0,11.0,3.4
12.0,1.0,3.401
10.0,-11.0,3.402
10.0,-15.0,3.403
11.0,-7.0,3.404
16.0,8.0,3.405
21.0,16.0,3.406
20.0,8.0,3.407
13.0,-3.0,3.408
5.0,-3.0,3.409
3.0,5.0,3.41
2.0,8.0,3.411
0.0,2.0,3.412
-2.0,-4.0,3.413
1.0,-3.0,3.414
3.0,-2.0,3.415
2.0,-5.0,3.416
1.0,-6.0,3.417
-1.0,-5.0,3.418
-5.0,-3.0,3.419
-8.0,-7.0,3.42
-8.0,-16.0,3.421
-7.0,-18.0,3.422
-2.0,-10.0,3.423
2.0,-2.0,3.424
0.0,1.0,3.425
-1.0,2.0,3.426
-1.0,1.0,3.427
-2.0,0.0,3.428
-2.0,3.0,3.429
-1.0,10.0,3.43
5.0,15.0,3.431
10.0,15.0,3.432
7.0,11.0,3.433
5.0,6.0,3.434
4.0,-2.0,3.435
4.0,-12.0,3.436
10.0,-18.0,3.437
15.0,-13.0,3.438
8.0,-5.0,3.439
-9.0,0.0,3.44
-21.0,-6.0,3.441
-15.0,-13.0,3.442
0.0,-15.0,3.443
11.0,-10.0,3.444
7.0,0.0,3.445
-2.0,15.0,3.446
-3.0,21.0,3.447
4.0,14.0,3.448
15.0,1.0,3.449
25.0,-5.0,3.45
33.0,-5.0,3.451
31.0,-5.0,3.452
22.0,-2.0,3.453
17.0,1.0,3.454
19.0,0.0,3.455
21.0,-6.0,3.456
16.0,-8.0,3.457
0.0,-7.0,3.458
-12.0,-3.0,3.459
-25.0,0.0,3.46
-42.0,4.0,3.461
-53.0,7.0,3.462
-45.0,8.0,3.463
-25.0,8.0,3.464
-5.0,2.0,3.465
11.0,-3.0,3.466
28.0,-3.0,3.467
37.0,-1.0,3.468
35.0,0.0,3.469
28.0,3.0,3.47
27.0,4.0,3.471
27.0,5.0,3.472
18.0,3.0,3.473
4.0,1.0,3.474
-4.0,5.0,3.475
-7.0,6.0,3.476
-12.0,-3.0,3.477
-18.0,-12.0,3.478
-16.0,-12.0,3.479
-9.0,-7.0,3.48
-6.0,-5.0,3.481
-3.0,-2.0,3.482
1.0,3.0,3.483
4.0,11.0,3.484
2.0,11.0,3.485
4.0,3.0,3.486
14.0,-5.0,3.487
23.0,-8.0,3.488
20.0,-5.0,3.489
10.0,2.0,3.49
1.0,9.0,3.491
-1.0,15.0,3.492
-7.0,17.0,3.493
-15.0,14.0,3.494
-18.0,4.0,3.495
-12.0,-10.0,3.496
-4.0,-15.0,3.497
-3.0,-12.0,3.498
-10.0,-9.0,3.499
-16.0,-14.0,3.5
-14.0,-22.0,3.501
-11.0,-19.0,3.502
-3.0,-11.0,3.503
6.0,-8.0,3.504
19.0,-6.0,3.505
29.0,-4.0,3.506
26.0,-4.0,3.507
22.0,-2.0,3.508
19.0,6.0,3.509
15.0,23.0,3.51
9.0,31.0,3.511
5.0,18.0,3.512
5.0,0.0,3.513
4.0,-7.0,3.514
-3.0,-7.0,3.515
-9.0,-7.0,3.516
-9.0,-6.0,3.517
-8.0,-8.0,3.518
-4.0,-2.0,3.519
-8.0,0.0,3.52
-14.0,-2.0,3.521
-12.0,-5.0,3.522
0.0,-5.0,3.523
14.0,-5.0,3.524
18.0,-5.0,3.525
14.0,-5.0,3.526
11.0,-2.0,3.527
10.0,0.0,3.528
10.0,-2.0,3.529
11.0,-5.0,3.53
11.0,-2.0,3.531
4.0,0.0,3.532
-9.0,11.0,3.533
-28.0,17.0,3.534
-43.0,2.0,3.535
-43.0,-8.0,3.536
-25.0,-11.0,3.537
-1.0,-3.0,3.538
15.0,-1.0,3.539
16.0,0.0,3.54
19.0,-1.0,3.541
30.0,-2.0,3.542
41.0,-2.0,3.543
40.0,-2.0,3.544
28.0,-2.0,3.545
18.0,-2.0,3.546
14.0,-1.0,3.547
10.0,0.0,3.548
1.0,-1.0,3.549
-3.0,-2.0,3.55
-2.0,-1.0,3.551
-3.0,0.0,3.552
-15.0,4.0,3.553
-28.0,6.0,3.554
-30.0,1.0,3.555
-23.0,-3.0,3.556
-13.0,-4.0,3.557
-5.0,-5.0,3.558
7.0,-1.0,3.559
20.0,0.0,3.56
21.0,-3.0,3.561
14.0,-5.0,3.562
8.0,-5.0,3.563
11.0,-4.0,3.564
15.0,3.0,3.565
11.0,10.0,3.566
3.0,12.0,3.567
1.0,11.0,3.568
2.0,11.0,3.569
0.0,15.0,3.57
-3.0,19.0,3.571
-1.0,16.0,3.572
0.0,11.0,3.573
-2.0,5.0,3.574
-4.0,-4.0,3.575
-3.0,-13.0,3.576
-2.0,-15.0,3.577
-5.0,-5.0,3.578
-6.0,-1.0,3.579
-7.0,-7.0,3.58
-2.0,-20.0,3.581
3.0,-22.0,3.582
7.0,-8.0,3.583
10.0,7.0,3.584
11.0,13.0,3.585
12.0,8.0,3.586
6.0,-1.0,3.587
2.0,-6.0,3.588
2.0,-3.0,3.589
3.0,2.0,3.59
3.0,4.0,3.591
4.0,0.0,3.592
5.0,-4.0,3.593
5.0,-4.0,3.594
0.0,-5.0,3.595
-5.0,-6.0,3.596
-5.0,-4.0,3.597
-3.0,-3.0,3.598
-5.0,-3.0,3.599
-11.0,-3.0,3.6
-12.0,-6.0,3.601
-8.0,-8.0,3.602
0.0,-2.0,3.603
4.0,4.0,3.604
1.0,14.0,3.605
-1.0,20.0,3.606
4.0,13.0,3.607
11.0,7.0,3.608
13.0,2.0,3.609
15.0,-2.0,3.61
28.0,1.0,3.611
39.0,2.0,3.612
25.0,1.0,3.613
-14.0,0.0,3.614
-46.0,1.0,3.615
-48.0,2.0,3.616
-27.0,4.0,3.617
-5.0,-4.0,3.618
12.0,-4.0,3.619
27.0,-5.0,3.62
31.0,-8.0,3.621
29.0,-10.0,3.622
9.0,-3.0,3.623
-4.0,4.0,3.624
1.0,17.0,3.625
6.0,25.0,3.626
7.0,16.0,3.627
8.0,8.0,3.628
9.0,2.0,3.629
10.0,-3.0,3.63
7.0,1.0,3.631
2.0,2.0,3.632
-3.0,1.0,3.633
-8.0,0.0,3.634
-5.0,1.0,3.635
0.0,2.0,3.636
5.0,5.0,3.637
8.0,-5.0,3.638
-14.0,-5.0,3.639
-47.0,-6.0,3.64
-62.0,-10.0,3.641
-47.0,-12.0,3.642
-9.0,-4.0,3.643
28.0,5.0,3.644
42.0,19.0,3.645
33.0,28.0,3.646
26.0,18.0,3.647
37.0,9.0,3.648
51.0,1.0,3.649
47.0,-4.0,3.65
30.0,0.0,3.651
24.0,2.0,3.652
23.0,0.0,3.653
7.0,-1.0,3.654
-19.0,0.0,3.655
-24.0,3.0,3.656
-6.0,6.0,3.657
2.0,6.0,3.658
-8.0,-5.0,3.659
-17.0,-13.0,3.66
-17.0,-17.0,3.661
-13.0,-15.0,3.662
4.0,-16.0,3.663
20.0,-15.0,3.664
28.0,-7.0,3.665
28.0,7.0,3.666
4.0,23.0,3.667
-10.0,32.0,3.668
9.0,34.0,3.669
22.0,31.0,3.67
13.0,25.0,3.671
9.0,20.0,3.672
23.0,17.0,3.673
29.0,11.0,3.674
5.0,3.0,3.675
-13.0,-1.0,3.676
-13.0,-2.0,3.677
-10.0,-8.0,3.678
-16.0,-13.0,3.679
-30.0,-18.0,3.68
-36.0,-17.0,3.681
-34.0,-16.0,3.682
-26.0,-16.0,3.683
-16.0,-16.0,3.684
-10.0,-17.0,3.685
-11.0,-20.0,3.686
-17.0,-24.0,3.687
-18.0,-23.0,3.688
-17.0,-9.0,3.689
-19.0,4.0,3.69
-19.0,16.0,3.691
-7.0,23.0,3.692
13.0,17.0,3.693
30.0,12.0,3.694
37.0,6.0,3.695
31.0,2.0,3.696
17.0,1.0,3.697
0.0,-1.0,3.698
-7.0,-5.0,3.699
-7.0,-8.0,3.7
-11.0,-15.0,3.701
-18.0,-20.0,3.702
-15.0,-20.0,3.703
0.0,-17.0,3.704
16.0,-17.0,3.705
23.0,-19.0,3.706
25.0,-12.0,3.707
27.0,-3.0,3.708
23.0,3.0,3.709
18.0,2.0,3.71
15.0,2.0,3.711
13.0,8.0,3.712
4.0,11.0,3.713
-7.0,12.0,3.714
-12.0,12.0,3.715
-6.0,13.0,3.716
-4.0,10.0,3.717
-7.0,3.0,3.718
-7.0,-3.0,3.719
2.0,-5.0,3.72
13.0,-10.0,3.721
9.0,-10.0,3.722
0.0,-9.0,3.723
0.0,-9.0,3.724
14.0,-12.0,3.725
27.0,-11.0,3.726
31.0,-4.0,3.727
26.0,1.0,3.728
15.0,1.0,3.729
-1.0,0.0,3.73
-11.0,0.0,3.731
-6.0,1.0,3.732
6.0,3.0,3.733
10.0,6.0,3.734
-2.0,10.0,3.735
-7.0,6.0,3.736
6.0,0.0,3.737
20.0,-3.0,3.738
21.0,1.0,3.739
4.0,7.0,3.74
-15.0,9.0,3.741
-29.0,10.0,3.742
-33.0,14.0,3.743
-30.0,13.0,3.744
-25.0,11.0,3.745
-25.0,11.0,3.746
-20.0,13.0,3.747
-3.0,11.0,3.748
19.0,6.0,3.749
35.0,1.0,3.75
44.0,-3.0,3.751
52.0,-7.0,3.752
54.0,-8.0,3.753
40.0,-4.0,3.754
22.0,-2.0,3.755
16.0,-3.0,3.756
16.0,-3.0,3.757
4.0,0.0,3.758
-16.0,4.0,3.759
-31.0,5.0,3.76
-34.0,0.0,3.761
-34.0,0.0,3.762
-27.0,-3.0,3.763
-8.0,-4.0,3.764
15.0,0.0,3.765
19.0,11.0,3.766
4.0,12.0,3.767
-3.0,1.0,3.768
7.0,-10.0,3.769
12.0,-8.0,3.77
4.0,4.0,3.771
2.0,12.0,3.772
17.0,13.0,3.773
30.0,10.0,3.774
21.0,2.0,3.775
-3.0,-6.0,3.776
-21.0,-7.0,3.777
-30.0,-7.0,3.778
-34.0,-9.0,3.779
-35.0,-16.0,3.78
-25.0,-22.0,3.781
-3.0,-18.0,3.782
32.0,-12.0,3.783
67.0,-11.0,3.784
80.0,-11.0,3.785
59.0,-7.0,3.786
26.0,-4.0,3.787
3.0,-3.0,3.788
2.0,-1.0,3.789
7.0,1.0,3.79
0.0,4.0,3.791
-13.0,4.0,3.792
-21.0,2.0,3.793
-14.0,-1.0,3.794
0.0,-3.0,3.795
1.0,-1.0,3.796
-8.0,7.0,3.797
-22.0,8.0,3.798
-22.0,2.0,3.799
-17.0,-8.0,3.8
-17.0,-12.0,3.801
-18.0,-10.0,3.802
-10.0,-6.0,3.803
0.0,-3.0,3.804
3.0,4.0,3.805
-2.0,17.0,3.806
-4.0,23.0,3.807
0.0,17.0,3.808
3.0,5.0,3.809
2.0,-3.0,3.81
2.0,-5.0,3.811
10.0,-7.0,3.812
17.0,-6.0,3.813
14.0,-1.0,3.814
-4.0,4.0,3.815
-26.0,6.0,3.816
-39.0,5.0,3.817
-43.0,-1.0,3.818
-42.0,-3.0,3.819
-40.0,-3.0,3.82
-25.0,-6.0,3.821
7.0,-8.0,3.822
42.0,-12.0,3.823
57.0,-9.0,3.824
51.0,0.0,3.825
44.0,8.0,3.826
45.0,4.0,3.827
37.0,-2.0,3.828
15.0,-4.0,3.829
-3.0,1.0,3.83
-5.0,4.0,3.831
-1.0,1.0,3.832
-3.0,-1.0,3.833
-4.0,-2.0,3.834
8.0,-4.0,3.835
21.0,-7.0,3.836
19.0,-8.0,3.837
9.0,-8.0,3.838
6.0,-3.0,3.839
1.0,2.0,3.84
-8.0,5.0,3.841
-17.0,4.0,3.842
-9.0,-3.0,3.843
4.0,-10.0,3.844
6.0,-9.0,3.845
2.0,0.0,3.846
6.0,7.0,3.847
15.0,10.0,3.848
10.0,13.0,3.849
-5.0,19.0,3.85
-16.0,20.0,3.851
-20.0,16.0,3.852
-22.0,9.0,3.853
-27.0,4.0,3.854
-35.0,-1.0,3.855
-41.0,-7.0,3.856
-39.0,-8.0,3.857
-14.0,-10.0,3.858
-14.0,-14.0,3.859
-16.0,-18.0,3.86
-20.0,-15.0,3.861
-25.0,-1.0,3.862
-28.0,10.0,3.863
-28.0,9.0,3.864
-17.0,3.0,3.865
-5.0,-2.0,3.866
7.0,-3.0,3.867
19.0,-2.0,3.868
31.0,-3.0,3.869
43.0,-2.0,3.87
59.0,1.0,3.871
68.0,4.0,3.872
56.0,2.0,3.873
40.0,0.0,3.874
13.0,-1.0,3.875
-8.0,3.0,3.876
-14.0,5.0,3.877
-28.0,-6.0,3.878
-28.0,-4.0,3.879
-31.0,-4.0,3.88
-39.0,-10.0,3.881
-46.0,-12.0,3.882
-52.0,-3.0,3.883
-52.0,4.0,3.884
-33.0,4.0,3.885
-14.0,2.0,3.886
7.0,-4.0,3.887
28.0,-8.0,3.888
47.0,2.0,3.889
68.0,11.0,3.89
93.0,20.0,3.891
108.0,28.0,3.892
88.0,29.0,3.893
62.0,27.0,3.894
17.0,12.0,3.895
-19.0,0.0,3.896
-28.0,-4.0,3.897
-33.0,-5.0,3.898
-25.0,-3.0,3.899
-16.0,-3.0,3.9
-9.0,-8.0,3.901
-8.0,-10.0,3.902
-6.0,-2.0,3.903
5.0,4.0,3.904
22.0,4.0,3.905
31.0,2.0,3.906
22.0,-3.0,3.907
9.0,-6.0,3.908
-1.0,2.0,3.909
-9.0,10.0,3.91
-16.0,18.0,3.911
-22.0,24.0,3.912
-31.0,25.0,3.913
-42.0,23.0,3.914
-44.0,11.0,3.915
-32.0,0.0,3.916
-21.0,-3.0,3.917
-19.0,-6.0,3.918
-23.0,-8.0,3.919
-29.0,-8.0,3.92
-30.0,-9.0,3.921
-25.0,-12.0,3.922
-8.0,-18.0,3.923
9.0,-19.0,3.924
15.0,-11.0,3.925
14.0,-2.0,3.926
17.0,4.0,3.927
17.0,3.0,3.928
-4.0,3.0,3.929
-35.0,5.0,3.93
-42.0,12.0,3.931
-17.0,19.0,3.932
13.0,20.0,3.933
23.0,10.0,3.934
25.0,-1.0,3.935
40.0,-7.0,3.936
69.0,-7.0,3.937
93.0,-11.0,3.938
96.0,-13.0,3.939
72.0,-12.0,3.94
31.0,-14.0,3.941
-8.0,-16.0,3.942
-36.0,-22.0,3.943
-56.0,-21.0,3.944
-69.0,-10.0,3.945
-66.0,0.0,3.946
-39.0,5.0,3.947
5.0,5.0,3.948
43.0,5.0,3.949
66.0,9.0,3.95
75.0,10.0,3.951
67.0,9.0,3.952
32.0,6.0,3.953
-19.0,3.0,3.954
-53.0,2.0,3.955
-58.0,1.0,3.956
-56.0,0.0,3.957
-73.0,-4.0,3.958
-82.0,-8.0,3.959
-49.0,-10.0,3.96
19.0,-14.0,3.961
80.0,-15.0,3.962
106.0,-10.0,3.963
104.0,-2.0,3.964
84.0,10.0,3.965
61.0,17.0,3.966
50.0,15.0,3.967
53.0,7.0,3.968
39.0,1.0,3.969
-1.0,1.0,3.97
-38.0,3.0,3.971
-47.0,4.0,3.972
-39.0,8.0,3.973
-43.0,14.0,3.974
-53.0,15.0,3.975
-50.0,3.0,3.976
-39.0,-11.0,3.977
-31.0,-19.0,3.978
-26.0,-17.0,3.979
-16.0,-12.0,3.98
-3.0,-13.0,3.981
3.0,-13.0,3.982
13.0,-11.0,3.983
32.0,-7.0,3.984
46.0,2.0,3.985
40.0,14.0,3.986
24.0,26.0,3.987
12.0,31.0,3.988
4.0,24.0,3.989
-1.0,11.0,3.99
0.0,0.0,3.991
3.0,-6.0,3.992
2.0,-6.0,3.993
-9.0,-6.0,3.994
-21.0,-6.0,3.995
-30.0,-8.0,3.996
-40.0,-6.0,3.997
-46.0,-10.0,3.998
-37.0,-12.0,3.999
-20.0,-13.0,4.0
-8.0,-10.0,4.001
1.0,-6.0,4.002
25.0,-2.0,4.003
56.0,1.0,4.004
63.0,7.0,4.005
35.0,9.0,4.006
2.0,2.0,4.007
-10.0,-4.0,4.008
-10.0,0.0,4.009
-12.0,11.0,4.01
-17.0,13.0,4.011
-14.0,3.0,4.012
-3.0,-5.0,4.013
13.0,-4.0,4.014
18.0,0.0,4.015
-1.0,-3.0,4.016
-27.0,-9.0,4.017
-30.0,-17.0,4.018
-1.0,-20.0,4.019
19.0,-20.0,4.02
11.0,-16.0,4.021
11.0,-1.0,4.022
57.0,15.0,4.023
100.0,23.0,4.024
79.0,18.0,4.025
19.0,10.0,4.026
-10.0,4.0,4.027
-6.0,2.0,4.028
-12.0,2.0,4.029
-30.0,2.0,4.03
-24.0,0.0,4.031
-2.0,-4.0,4.032
1.0,-5.0,4.033
-2.0,-5.0,4.034
26.0,-5.0,4.035
71.0,-8.0,4.036
80.0,-7.0,4.037
47.0,-2.0,4.038
21.0,3.0,4.039
1.0,5.0,4.04
0.0,3.0,4.041
-5.0,5.0,4.042
-18.0,5.0,4.043
-31.0,2.0,4.044
-45.0,5.0,4.045
-50.0,14.0,4.046
-24.0,19.0,4.047
-5.0,10.0,4.048
-11.0,-2.0,4.049
-18.0,-9.0,4.05
-27.0,-8.0,4.051
-40.0,-10.0,4.052
-60.0,-11.0,4.053
-70.0,-4.0,4.054
-51.0,10.0,4.055
-31.0,20.0,4.056
-5.0,19.0,4.057
19.0,5.0,4.058
47.0,-8.0,4.059
82.0,-18.0,4.06
104.0,-17.0,4.061
105.0,-13.0,4.062
95.0,-2.0,4.063
81.0,7.0,4.064
61.0,7.0,4.065
34.0,6.0,4.066
11.0,1.0,4.067
-7.0,-3.0,4.068
-26.0,-5.0,4.069
-48.0,-8.0,4.07
-62.0,-7.0,4.071
-61.0,-6.0,4.072
-53.0,-6.0,4.073
-52.0,-4.0,4.074
-57.0,-2.0,4.075
-56.0,0.0,4.076
-39.0,2.0,4.077
-4.0,3.0,4.078
35.0,-4.0,4.079
57.0,-15.0,4.08
49.0,-21.0,4.081
23.0,-13.0,4.082
7.0,1.0,4.083
9.0,13.0,4.084
18.0,15.0,4.085
9.0,13.0,4.086
-17.0,11.0,4.087
-33.0,10.0,4.088
-36.0,7.0,4.089
-45.0,2.0,4.09
-62.0,-1.0,4.091
-53.0,0.0,4.092
-1.0,0.0,4.093
66.0,-4.0,4.094
102.0,-12.0,4.095
94.0,-17.0,4.096
68.0,-14.0,4.097
38.0,-10.0,4.098
12.0,-7.0,4.099
-6.0,-9.0,4.1
-16.0,-11.0,4.101
-22.0,-10.0,4.102
-34.0,-6.0,4.103
-51.0,0.0,4.104
-63.0,7.0,4.105
-64.0,9.0,4.106
-52.0,3.0,4.107
-26.0,0.0,4.108
14.0,4.0,4.109
58.0,12.0,4.11
87.0,16.0,4.111
95.0,14.0,4.112
91.0,10.0,4.113
88.0,9.0,4.114
79.0,10.0,4.115
58.0,9.0,4.116
27.0,7.0,4.117
-6.0,4.0,4.118
-30.0,4.0,4.119
-45.0,7.0,4.12
-34.0,4.0,4.121
-24.0,-4.0,4.122
-17.0,-14.0,4.123
-14.0,-21.0,4.124
-29.0,-22.0,4.125
-41.0,-21.0,4.126
-41.0,-21.0,4.127
-37.0,-22.0,4.128
-19.0,-20.0,4.129
-1.0,-13.0,4.13
12.0,-2.0,4.131
28.0,18.0,4.132
45.0,37.0,4.133
53.0,41.0,4.134
31.0,28.0,4.135
9.0,8.0,4.136
-12.0,-1.0,4.137
-30.0,1.0,4.138
-34.0,10.0,4.139
-35.0,15.0,4.14
-29.0,5.0,4.141
-13.0,-9.0,4.142
13.0,-19.0,4.143
39.0,-16.0,4.144
50.0,-5.0,4.145
40.0,2.0,4.146
22.0,-2.0,4.147
14.0,-7.0,4.148
12.0,-8.0,4.149
-6.0,-9.0,4.15
-31.0,-14.0,4.151
-40.0,-16.0,4.152
-24.0,-7.0,4.153
-11.0,7.0,4.154
-15.0,14.0,4.155
-18.0,10.0,4.156
-11.0,-2.0,4.157
-4.0,-12.0,4.158
-2.0,-11.0,4.159
1.0,0.0,4.16
7.0,7.0,4.161
14.0,6.0,4.162
18.0,-1.0,4.163
21.0,-3.0,4.164
22.0,4.0,4.165
21.0,13.0,4.166
10.0,17.0,4.167
0.0,17.0,4.168
-7.0,13.0,4.169
-12.0,7.0,4.17
-8.0,2.0,4.171
-3.0,0.0,4.172
6.0,-4.0,4.173
10.0,-13.0,4.174
-1.0,-23.0,4.175
-4.0,-25.0,4.176
17.0,-18.0,4.177
40.0,-12.0,4.178
56.0,-12.0,4.179
57.0,-16.0,4.18
53.0,-15.0,4.181
35.0,-5.0,4.182
4.0,8.0,4.183
-37.0,17.0,4.184
-76.0,15.0,4.185
-93.0,4.0,4.186
-71.0,-3.0,4.187
-17.0,2.0,4.188
32.0,10.0,4.189
46.0,7.0,4.19
35.0,-2.0,4.191
25.0,-7.0,4.192
22.0,-3.0,4.193
17.0,2.0,4.194
7.0,-3.0,4.195
-1.0,-14.0,4.196
-6.0,-23.0,4.197
-15.0,-29.0,4.198
-18.0,-31.0,4.199
-14.0,-34.0,4.2
-12.0,-33.0,4.201
-18.0,-13.0,4.202
-15.0,22.0,4.203
-1.0,56.0,4.204
4.0,69.0,4.205
-4.0,53.0,4.206
-10.0,25.0,4.207
-2.0,6.0,4.208
8.0,10.0,4.209
5.0,25.0,4.21
5.0,30.0,4.211
16.0,21.0,4.212
24.0,11.0,4.213
17.0,6.0,4.214
4.0,3.0,4.215
1.0,-2.0,4.216
5.0,-7.0,4.217
7.0,-12.0,4.218
7.0,-17.0,4.219
3.0,-20.0,4.22
0.0,-24.0,4.221
-2.0,-25.0,4.222
4.0,-25.0,4.223
11.0,-20.0,4.224
12.0,-7.0,4.225
8.0,5.0,4.226
12.0,3.0,4.227
20.0,-7.0,4.228
13.0,-12.0,4.229
-23.0,-8.0,4.23
-70.0,-3.0,4.231
-90.0,-3.0,4.232
-67.0,-5.0,4.233
-24.0,-1.0,4.234
10.0,3.0,4.235
34.0,1.0,4.236
64.0,0.0,4.237
93.0,0.0,4.238
96.0,0.0,4.239
66.0,-5.0,4.24
41.0,-11.0,4.241
39.0,-7.0,4.242
39.0,0.0,4.243
25.0,6.0,4.244
8.0,8.0,4.245
7.0,6.0,4.246
9.0,1.0,4.247
-2.0,-6.0,4.248
-15.0,-10.0,4.249
-19.0,-8.0,4.25
-20.0,-9.0,4.251
-29.0,-14.0,4.252
-47.0,-15.0,4.253
-70.0,-5.0,4.254
-94.0,11.0,4.255
-108.0,21.0,4.256
-96.0,24.0,4.257
-64.0,24.0,4.258
-34.0,25.0,4.259
-16.0,24.0,4.26
3.0,11.0,4.261
40.0,0.0,4.262
86.0,-2.0,4.263
124.0,1.0,4.264
146.0,3.0,4.265
155.0,1.0,4.266
159.0,3.0,4.267
148.0,6.0,4.268
98.0,3.0,4.269
11.0,-6.0,4.27
-61.0,-8.0,4.271
-70.0,-1.0,4.272
-33.0,5.0,4.273
-12.0,-4.0,4.274
-18.0,-15.0,4.275
-26.0,-18.0,4.276
-26.0,-13.0,4.277
-33.0,-16.0,4.278
-43.0,-27.0,4.279
-43.0,-40.0,4.28
-38.0,-46.0,4.281
-49.0,-41.0,4.282
-62.0,-22.0,4.283
-54.0,10.0,4.284
-39.0,44.0,4.285
-39.0,60.0,4.286
-42.0,55.0,4.287
-28.0,39.0,4.288
-7.0,24.0,4.289
1.0,13.0,4.29
9.0,9.0,4.291
33.0,9.0,4.292
55.0,8.0,4.293
45.0,1.0,4.294
16.0,-6.0,4.295
0.0,-15.0,4.296
6.0,-23.0,4.297
11.0,-27.0,4.298
6.0,-17.0,4.299
5.0,3.0,4.3
15.0,13.0,4.301
18.0,7.0,4.302
6.0,-4.0,4.303
-14.0,-3.0,4.304
-24.0,2.0,4.305
-26.0,0.0,4.306
-24.0,-10.0,4.307
-18.0,-17.0,4.308
1.0,-15.0,4.309
30.0,-13.0,4.31
56.0,-10.0,4.311
63.0,0.0,4.312
35.0,18.0,4.313
-12.0,26.0,4.314
-49.0,15.0,4.315
-39.0,3.0,4.316
12.0,2.0,4.317
68.0,4.0,4.318
82.0,0.0,4.319
47.0,-5.0,4.32
10.0,-11.0,4.321
0.0,-17.0,4.322
13.0,-23.0,4.323
17.0,-21.0,4.324
5.0,-11.0,4.325
-7.0,-6.0,4.326
-11.0,-8.0,4.327
-10.0,-7.0,4.328
-6.0,0.0,4.329
-3.0,2.0,4.33
-3.0,-5.0,4.331
-6.0,-4.0,4.332
-9.0,14.0,4.333
-8.0,34.0,4.334
-9.0,36.0,4.335
-12.0,19.0,4.336
-10.0,-1.0,4.337
-7.0,-10.0,4.338
-4.0,-9.0,4.339
-3.0,-5.0,4.34
-1.0,-7.0,4.341
2.0,-7.0,4.342
6.0,0.0,4.343
4.0,7.0,4.344
-3.0,6.0,4.345
-14.0,-5.0,4.346
-21.0,-12.0,4.347
-18.0,-10.0,4.348
-2.0,-4.0,4.349
10.0,-2.0,4.35
15.0,-2.0,4.351
16.0,1.0,4.352
23.0,4.0,4.353
31.0,3.0,4.354
27.0,-2.0,4.355
17.0,-7.0,4.356
12.0,-5.0,4.357
12.0,-1.0,4.358
12.0,-2.0,4.359
6.0,-6.0,4.36
0.0,-10.0,4.361
-7.0,-6.0,4.362
-21.0,3.0,4.363
-30.0,7.0,4.364
-28.0,4.0,4.365
-20.0,3.0,4.366
-12.0,8.0,4.367
-5.0,12.0,4.368
-1.0,9.0,4.369
-1.0,0.0,4.37
0.0,-2.0,4.371
10.0,2.0,4.372
25.0,8.0,4.373
30.0,7.0,4.374
24.0,2.0,4.375
17.0,-5.0,4.376
14.0,-8.0,4.377
5.0,-13.0,4.378
-8.0,-15.0,4.379
-19.0,-15.0,4.38
-15.0,-15.0,4.381
-4.0,-10.0,4.382
4.0,1.0,4.383
7.0,18.0,4.384
11.0,28.0,4.385
15.0,21.0,4.386
15.0,5.0,4.387
13.0,-2.0,4.388
19.0,7.0,4.389
37.0,22.0,4.39
54.0,24.0,4.391
47.0,10.0,4.392
22.0,-6.0,4.393
-1.0,-13.0,4.394
-7.0,-16.0,4.395
-9.0,-22.0,4.396
-18.0,-22.0,4.397
-28.0,-11.0,4.398
-25.0,9.0,4.399
-14.0,22.0,4.4
-11.0,9.0,4.401
-15.0,-11.0,4.402
-13.0,-20.0,4.403
-6.0,-14.0,4.404
-10.0,-5.0,4.405
-30.0,-5.0,4.406
-58.0,-6.0,4.407
-73.0,0.0,4.408
-59.0,10.0,4.409
-22.0,17.0,4.41
10.0,22.0,4.411
15.0,18.0,4.412
13.0,9.0,4.413
36.0,-3.0,4.414
80.0,-9.0,4.415
106.0,-11.0,4.416
98.0,-9.0,4.417
79.0,-10.0,4.418
67.0,-10.0,4.419
46.0,-10.0,4.42
13.0,-15.0,4.421
-3.0,-16.0,4.422
10.0,-11.0,4.423
13.0,0.0,4.424
-17.0,10.0,4.425
-44.0,11.0,4.426
-31.0,3.0,4.427
-5.0,-3.0,4.428
-7.0,-4.0,4.429
-24.0,-2.0,4.43
-21.0,1.0,4.431
-8.0,3.0,4.432
-13.0,2.0,4.433
-27.0,-1.0,4.434
-25.0,-7.0,4.435
-11.0,-10.0,4.436
-4.0,-7.0,4.437
-6.0,-1.0,4.438
-4.0,8.0,4.439
0.0,21.0,4.44
-5.0,34.0,4.441
-12.0,40.0,4.442
-7.0,33.0,4.443
-1.0,12.0,4.444
-4.0,-5.0,4.445
-11.0,-10.0,4.446
-11.0,-8.0,4.447
-8.0,-8.0,4.448
-10.0,-6.0,4.449
-9.0,-2.0,4.45
0.0,-1.0,4.451
11.0,-8.0,4.452
21.0,-13.0,4.453
33.0,-10.0,4.454
35.0,-5.0,4.455
21.0,-8.0,4.456
9.0,-14.0,4.457
14.0,-21.0,4.458
34.0,-21.0,4.459
37.0,-18.0,4.46
15.0,-17.0,4.461
-10.0,-8.0,4.462
-22.0,3.0,4.463
-27.0,11.0,4.464
-32.0,8.0,4.465
-32.0,0.0,4.466
-24.0,-1.0,4.467
-18.0,2.0,4.468
-20.0,4.0,4.469
-22.0,1.0,4.47
-7.0,0.0,4.471
20.0,5.0,4.472
43.0,13.0,4.473
48.0,15.0,4.474
36.0,6.0,4.475
19.0,-1.0,4.476
13.0,3.0,4.477
16.0,8.0,4.478
18.0,4.0,4.479
12.0,-2.0,4.48
0.0,-10.0,4.481
-13.0,-15.0,4.482
-24.0,-8.0,4.483
-27.0,0.0,4.484
-19.0,5.0,4.485
-2.0,10.0,4.486
21.0,10.0,4.487
44.0,8.0,4.488
53.0,5.0,4.489
38.0,3.0,4.49
4.0,5.0,4.491
-19.0,7.0,4.492
-14.0,1.0,4.493
7.0,-2.0,4.494
24.0,0.0,4.495
30.0,1.0,4.496
30.0,0.0,4.497
20.0,-3.0,4.498
1.0,-9.0,4.499
-13.0,-15.0,4.5
-12.0,-20.0,4.501
-4.0,-15.0,4.502
1.0,-7.0,4.503
8.0,-4.0,4.504
12.0,-6.0,4.505
9.0,-7.0,4.506
-2.0,-4.0,4.507
-10.0,-3.0,4.508
-16.0,-4.0,4.509
-25.0,-3.0,4.51
-30.0,1.0,4.511
-20.0,1.0,4.512
1.0,0.0,4.513
14.0,4.0,4.514
12.0,12.0,4.515
5.0,14.0,4.516
2.0,9.0,4.517
-3.0,0.0,4.518
-12.0,-5.0,4.519
-23.0,-5.0,4.52
-33.0,-6.0,4.521
-46.0,-6.0,4.522
-53.0,-4.0,4.523
-48.0,-4.0,4.524
-27.0,-5.0,4.525
7.0,0.0,4.526
50.0,8.0,4.527
88.0,10.0,4.528
106.0,6.0,4.529
101.0,2.0,4.53
80.0,3.0,4.531
52.0,5.0,4.532
23.0,7.0,4.533
1.0,6.0,4.534
-11.0,3.0,4.535
-16.0,1.0,4.536
-23.0,4.0,4.537
-35.0,4.0,4.538
-36.0,2.0,4.539
-25.0,-8.0,4.54
-7.0,-20.0,4.541
2.0,-23.0,4.542
-1.0,-19.0,4.543
-12.0,-14.0,4.544
-16.0,-7.0,4.545
-6.0,2.0,4.546
15.0,9.0,4.547
32.0,8.0,4.548
29.0,7.0,4.549
5.0,5.0,4.55
-19.0,5.0,4.551
-24.0,2.0,4.552
-17.0,2.0,4.553
-10.0,4.0,4.554
-7.0,10.0,4.555
-3.0,17.0,4.556
3.0,24.0,4.557
4.0,19.0,4.558
0.0,0.0,4.559
4.0,-18.0,4.56
13.0,-28.0,4.561
8.0,-23.0,4.562
-7.0,-12.0,4.563
-16.0,-1.0,4.564
-19.0,9.0,4.565
-24.0,13.0,4.566
-28.0,7.0,4.567
-15.0,-1.0,4.568
9.0,-1.0,4.569
20.0,4.0,4.57
13.0,5.0,4.571
6.0,-1.0,4.572
11.0,-4.0,4.573
10.0,-2.0,4.574
2.0,-2.0,4.575
5.0,-7.0,4.576
14.0,-8.0,4.577
15.0,-7.0,4.578
0.0,-7.0,4.579
-16.0,-8.0,4.58
-24.0,-11.0,4.581
-27.0,-7.0,4.582
-23.0,-4.0,4.583
-7.0,-2.0,4.584
15.0,1.0,4.585
28.0,5.0,4.586
33.0,7.0,4.587
35.0,6.0,4.588
37.0,6.0,4.589
38.0,8.0,4.59
45.0,4.0,4.591
53.0,-2.0,4.592
44.0,-3.0,4.593
15.0,4.0,4.594
-17.0,6.0,4.595
-33.0,-1.0,4.596
-32.0,-8.0,4.597
-23.0,-10.0,4.598
-6.0,-8.0,4.599
6.0,-8.0,4.6
11.0,-12.0,4.601
14.0,-13.0,4.602
23.0,-6.0,4.603
30.0,0.0,4.604
20.0,4.0,4.605
-5.0,6.0,4.606
-30.0,2.0,4.607
-51.0,0.0,4.608
-66.0,1.0,4.609
-63.0,3.0,4.61
-38.0,1.0,4.611
-19.0,-1.0,4.612
-31.0,-1.0,4.613
-64.0,0.0,4.614
-70.0,0.0,4.615
-31.0,-1.0,4.616
29.0,-2.0,4.617
92.0,-2.0,4.618
137.0,0.0,4.619
146.0,3.0,4.62
116.0,3.0,4.621
67.0,3.0,4.622
31.0,-2.0,4.623
8.0,-8.0,4.624
-15.0,-7.0,4.625
-24.0,0.0,4.626
-11.0,11.0,4.627
2.0,17.0,4.628
-18.0,14.0,4.629
-50.0,8.0,4.63
-44.0,1.0,4.631
0.0,-1.0,4.632
26.0,-1.0,4.633
9.0,-2.0,4.634
-7.0,-9.0,4.635
13.0,-16.0,4.636
41.0,-16.0,4.637
36.0,-11.0,4.638
1.0,-3.0,4.639
-27.0,3.0,4.64
-34.0,-1.0,4.641
-31.0,-5.0,4.642
-31.0,-6.0,4.643
-26.0,-5.0,4.644
-15.0,4.0,4.645
-2.0,12.0,4.646
4.0,10.0,4.647
0.0,9.0,4.648
-7.0,10.0,4.649
-12.0,11.0,4.65
-7.0,11.0,4.651
5.0,11.0,4.652
14.0,9.0,4.653
12.0,6.0,4.654
6.0,2.0,4.655
6.0,-1.0,4.656
12.0,-1.0,4.657
10.0,0.0,4.658
-6.0,-4.0,4.659
-31.0,-14.0,4.66
-46.0,-23.0,4.661
-38.0,-21.0,4.662
-6.0,-11.0,4.663
25.0,-4.0,4.664
39.0,0.0,4.665
34.0,0.0,4.666
19.0,-4.0,4.667
3.0,-6.0,4.668
-5.0,-2.0,4.669
-1.0,4.0,4.67
10.0,8.0,4.671
11.0,4.0,4.672
0.0,3.0,4.673
-9.0,4.0,4.674
-4.0,3.0,4.675
9.0,-2.0,4.676
24.0,-4.0,4.677
37.0,-7.0,4.678
35.0,-9.0,4.679
2.0,-12.0,4.68
-44.0,-13.0,4.681
-64.0,-11.0,4.682
-35.0,1.0,4.683
18.0,10.0,4.684
53.0,12.0,4.685
60.0,11.0,4.686
47.0,1.0,4.687
22.0,-6.0,4.688
1.0,-2.0,4.689
-5.0,2.0,4.69
0.0,2.0,4.691
-3.0,3.0,4.692
-20.0,3.0,4.693
-31.0,2.0,4.694
-30.0,3.0,4.695
-31.0,4.0,4.696
-35.0,1.0,4.697
-26.0,-2.0,4.698
4.0,-6.0,4.699
27.0,-10.0,4.7
17.0,-15.0,4.701
-14.0,-16.0,4.702
-23.0,-14.0,4.703
12.0,-9.0,4.704
70.0,0.0,4.705
90.0,9.0,4.706
47.0,13.0,4.707
-11.0,10.0,4.708
-12.0,1.0,4.709
50.0,-3.0,4.71
109.0,0.0,4.711
104.0,7.0,4.712
54.0,10.0,4.713
9.0,10.0,4.714
-13.0,9.0,4.715
-23.0,5.0,4.716
-26.0,-1.0,4.717
-27.0,-7.0,4.718
-26.0,-9.0,4.719
-36.0,-11.0,4.72
-42.0,-11.0,4.721
-38.0,-12.0,4.722
-27.0,-12.0,4.723
-22.0,-13.0,4.724
-22.0,-11.0,4.725
-22.0,-7.0,4.726
-17.0,2.0,4.727
-11.0,14.0,4.728
-7.0,27.0,4.729
-1.0,38.0,4.73
2.0,40.0,4.731
1.0,40.0,4.732
-4.0,30.0,4.733
-12.0,19.0,4.734
-14.0,8.0,4.735
-12.0,-1.0,4.736
-9.0,-3.0,4.737
-10.0,-8.0,4.738
-13.0,-17.0,4.739
-19.0,-19.0,4.74
-23.0,-17.0,4.741
-16.0,-18.0,4.742
6.0,-21.0,4.743
35.0,-19.0,4.744
47.0,-15.0,4.745
35.0,-14.0,4.746
19.0,-14.0,4.747
18.0,-11.0,4.748
26.0,-8.0,4.749
27.0,-7.0,4.75
18.0,-6.0,4.751
17.0,-1.0,4.752
22.0,0.0,4.753
18.0,-3.0,4.754
2.0,-6.0,4.755
-12.0,-5.0,4.756
-16.0,-1.0,4.757
-10.0,-3.0,4.758
-9.0,-7.0,4.759
-12.0,-3.0,4.76
-16.0,3.0,4.761
-19.0,13.0,4.762
-19.0,15.0,4.763
-16.0,6.0,4.764
-8.0,-2.0,4.765
3.0,-4.0,4.766
27.0,1.0,4.767
53.0,8.0,4.768
62.0,12.0,4.769
47.0,12.0,4.77
25.0,13.0,4.771
3.0,11.0,4.772
-27.0,8.0,4.773
-74.0,8.0,4.774
-103.0,9.0,4.775
-76.0,8.0,4.776
-11.0,8.0,4.777
38.0,4.0,4.778
39.0,1.0,4.779
23.0,-4.0,4.78
33.0,-14.0,4.781
56.0,-23.0,4.782
62.0,-25.0,4.783
47.0,-24.0,4.784
30.0,-18.0,4.785
15.0,-10.0,4.786
-1.0,-3.0,4.787
-7.0,0.0,4.788
0.0,5.0,4.789
7.0,8.0,4.79
0.0,8.0,4.791
-9.0,0.0,4.792
-12.0,-5.0,4.793
-17.0,0.0,4.794
-26.0,10.0,4.795
-25.0,11.0,4.796
-10.0,5.0,4.797
2.0,-7.0,4.798
-5.0,-8.0,4.799
-24.0,1.0,4.8
-30.0,11.0,4.801
-16.0,18.0,4.802
11.0,21.0,4.803
39.0,21.0,4.804
52.0,19.0,4.805
43.0,13.0,4.806
23.0,5.0,4.807
11.0,-1.0,4.808
10.0,-4.0,4.809
6.0,-9.0,4.81
-1.0,-16.0,4.811
-5.0,-22.0,4.812
-10.0,-21.0,4.813
-21.0,-18.0,4.814
-30.0,-19.0,4.815
-26.0,-23.0,4.816
-13.0,-21.0,4.817
-5.0,-15.0,4.818
-12.0,-9.0,4.819
-31.0,-10.0,4.82
-49.0,-14.0,4.821
-46.0,-9.0,4.822
-12.0,3.0,4.823
43.0,15.0,4.824
86.0,19.0,4.825
92.0,17.0,4.826
75.0,14.0,4.827
58.0,16.0,4.828
42.0,14.0,4.829
15.0,6.0,4.83
-12.0,1.0,4.831
-21.0,5.0,4.832
-12.0,12.0,4.833
-5.0,14.0,4.834
-11.0,11.0,4.835
-18.0,10.0,4.836
-16.0,8.0,4.837
-7.0,-1.0,4.838
7.0,-13.0,4.839
21.0,-21.0,4.84
24.0,-24.0,4.841
6.0,-21.0,4.842
-15.0,-15.0,4.843
-19.0,-8.0,4.844
-10.0,4.0,4.845
-10.0,15.0,4.846
-15.0,17.0,4.847
-9.0,13.0,4.848
8.0,12.0,4.849
15.0,16.0,4.85
5.0,12.0,4.851
-4.0,-3.0,4.852
-8.0,-17.0,4.853
-16.0,-16.0,4.854
-24.0,-8.0,4.855
-14.0,-4.0,4.856
13.0,-6.0,4.857
26.0,-7.0,4.858
14.0,-5.0,4.859
1.0,-2.0,4.86
-9.0,-1.0,4.861
-18.0,9.0,4.862
-18.0,18.0,4.863
-17.0,17.0,4.864
-15.0,11.0,4.865
-10.0,10.0,4.866
3.0,11.0,4.867
13.0,8.0,4.868
9.0,4.0,4.869
2.0,9.0,4.87
-7.0,13.0,4.871
-14.0,5.0,4.872
-8.0,-10.0,4.873
-1.0,-23.0,4.874
11.0,-30.0,4.875
20.0,-32.0,4.876
20.0,-33.0,4.877
24.0,-36.0,4.878
40.0,-40.0,4.879
43.0,-42.0,4.88
26.0,-41.0,4.881
12.0,-34.0,4.882
18.0,-25.0,4.883
22.0,-12.0,4.884
-3.0,4.0,4.885
-33.0,16.0,4.886
-37.0,17.0,4.887
-14.0,14.0,4.888
8.0,19.0,4.889
20.0,24.0,4.89
30.0,19.0,4.891
33.0,10.0,4.892
21.0,10.0,4.893
4.0,19.0,4.894
0.0,22.0,4.895
4.0,15.0,4.896
2.0,13.0,4.897
-4.0,19.0,4.898
0.0,27.0,4.899
6.0,31.0,4.9
5.0,23.0,4.901
-2.0,16.0,4.902
1.0,12.0,4.903
14.0,6.0,4.904
14.0,0.0,4.905
-12.0,-3.0,4.906
-44.0,0.0,4.907
-61.0,3.0,4.908
-54.0,7.0,4.909
-31.0,8.0,4.91
-1.0,0.0,4.911
16.0,-6.0,4.912
14.0,-9.0,4.913
5.0,-12.0,4.914
17.0,-13.0,4.915
47.0,-14.0,4.916
64.0,-13.0,4.917
54.0,-11.0,4.918
41.0,-9.0,4.919
37.0,-8.0,4.92
19.0,-9.0,4.921
-23.0,-8.0,4.922
-39.0,-5.0,4.923
3.0,-2.0,4.924
54.0,2.0,4.925
43.0,5.0,4.926
-13.0,5.0,4.927
-41.0,5.0,4.928
-23.0,5.0,4.929
-8.0,3.0,4.93
-19.0,1.0,4.931
-23.0,-3.0,4.932
-10.0,-7.0,4.933
2.0,-13.0,4.934
-3.0,-17.0,4.935
-9.0,-9.0,4.936
-10.0,8.0,4.937
-17.0,21.0,4.938
-21.0,23.0,4.939
-13.0,18.0,4.94
8.0,14.0,4.941
20.0,18.0,4.942
26.0,23.0,4.943
37.0,21.0,4.944
43.0,8.0,4.945
27.0,-12.0,4.946
1.0,-27.0,4.947
-11.0,-29.0,4.948
-17.0,-23.0,4.949
-36.0,-20.0,4.95
-59.0,-22.0,4.951
-55.0,-20.0,4.952
-23.0,-16.0,4.953
9.0,-8.0,4.954
20.0,5.0,4.955
20.0,22.0,4.956
21.0,31.0,4.957
19.0,25.0,4.958
15.0,12.0,4.959
12.0,7.0,4.96
20.0,0.0,4.961
29.0,-13.0,4.962
33.0,-29.0,4.963
26.0,-38.0,4.964
15.0,-38.0,4.965
5.0,-42.0,4.966
-4.0,-45.0,4.967
-16.0,-31.0,4.968
-24.0,-4.0,4.969
-19.0,12.0,4.97
-1.0,0.0,4.971
16.0,-25.0,4.972
14.0,-37.0,4.973
-3.0,-30.0,4.974
-13.0,-16.0,4.975
-8.0,-13.0,4.976
7.0,-17.0,4.977
23.0,-21.0,4.978
31.0,-16.0,4.979
29.0,-2.0,4.98
17.0,10.0,4.981
1.0,18.0,4.982
-10.0,24.0,4.983
-18.0,31.0,4.984
-23.0,35.0,4.985
-20.0,35.0,4.986
-4.0,33.0,4.987
18.0,35.0,4.988
28.0,34.0,4.989
29.0,28.0,4.99
24.0,22.0,4.991
15.0,23.0,4.992
-2.0,28.0,4.993
-17.0,28.0,4.994
-19.0,26.0,4.995
-11.0,24.0,4.996
-6.0,24.0,4.997
-9.0,19.0,4.998
-3.0,13.0,4.999
14.0,9.0,5.0
33.0,4.0,5.001
37.0,0.0,5.002
22.0,-7.0,5.003
-8.0,-13.0,5.004
-43.0,-15.0,5.005
-69.0,-13.0,5.006
-75.0,-8.0,5.007
-58.0,-4.0,5.008
-23.0,-2.0,5.009
21.0,-5.0,5.01
61.0,-12.0,5.011
82.0,-24.0,5.012
69.0,-34.0,5.013
33.0,-39.0,5.014
5.0,-38.0,5.015
7.0,-32.0,5.016
24.0,-24.0,5.017
29.0,-18.0,5.018
15.0,-9.0,5.019
-7.0,5.0,5.02
-22.0,24.0,5.021
-30.0,42.0,5.022
-25.0,48.0,5.023
-15.0,40.0,5.024
-14.0,32.0,5.025
-22.0,31.0,5.026
-16.0,32.0,5.027
12.0,23.0,5.028
29.0,4.0,5.029
4.0,-13.0,5.03
-44.0,-24.0,5.031
-79.0,-34.0,5.032
-84.0,-47.0,5.033
-63.0,-56.0,5.034
-10.0,-57.0,5.035
62.0,-52.0,5.036
115.0,-50.0,5.037
124.0,-54.0,5.038
103.0,-52.0,5.039
78.0,-39.0,5.04
56.0,-21.0,5.041
27.0,-2.0,5.042
-1.0,13.0,5.043
-18.0,30.0,5.044
-25.0,44.0,5.045
-33.0,43.0,5.046
-34.0,30.0,5.047
-25.0,25.0,5.048
-18.0,36.0,5.049
-16.0,44.0,5.05
-15.0,39.0,5.051
-6.0,27.0,5.052
3.0,28.0,5.053
10.0,37.0,5.054
13.0,41.0,5.055
12.0,39.0,5.056
-1.0,34.0,5.057
-30.0,27.0,5.058
-52.0,15.0,5.059
-45.0,2.0,5.06
-9.0,-11.0,5.061
25.0,-22.0,5.062
30.0,-31.0,5.063
13.0,-34.0,5.064
5.0,-31.0,5.065
31.0,-31.0,5.066
64.0,-38.0,5.067
68.0,-46.0,5.068
42.0,-48.0,5.069
20.0,-49.0,5.07
4.0,-51.0,5.071
-21.0,-50.0,5.072
-53.0,-36.0,5.073
-62.0,-17.0,5.074
-39.0,-5.0,5.075
-19.0,2.0,5.076
-20.0,15.0,5.077
-31.0,32.0,5.078
-23.0,45.0,5.079
2.0,51.0,5.08
27.0,51.0,5.081
43.0,58.0,5.082
55.0,61.0,5.083
53.0,52.0,5.084
32.0,39.0,5.085
6.0,31.0,5.086
-14.0,22.0,5.087
-32.0,12.0,5.088
-52.0,1.0,5.089
-51.0,-9.0,5.09
-28.0,-27.0,5.091
-8.0,-42.0,5.092
-5.0,-44.0,5.093
11.0,-35.0,5.094
56.0,-32.0,5.095
90.0,-43.0,5.096
89.0,-54.0,5.097
71.0,-59.0,5.098
69.0,-59.0,5.099
61.0,-58.0,5.1
20.0,-54.0,5.101
-34.0,-44.0,5.102
-62.0,-15.0,5.103
-74.0,11.0,5.104
-95.0,29.0,5.105
-105.0,44.0,5.106
-79.0,47.0,5.107
-37.0,52.0,5.108
-12.0,60.0,5.109
5.0,66.0,5.11
35.0,68.0,5.111
72.0,67.0,5.112
94.0,53.0,5.113
95.0,34.0,5.114
79.0,4.0,5.115
48.0,-21.0,5.116
13.0,-36.0,5.117
-10.0,-47.0,5.118
-13.0,-43.0,5.119
-15.0,-41.0,5.12
-26.0,-53.0,5.121
-32.0,-67.0,5.122
-23.0,-71.0,5.123
-8.0,-56.0,5.124
-5.0,-26.0,5.125
-5.0,-1.0,5.126
1.0,6.0,5.127
5.0,4.0,5.128
0.0,9.0,5.129
-12.0,25.0,5.13
-17.0,42.0,5.131
-16.0,49.0,5.132
-13.0,54.0,5.133
-8.0,63.0,5.134
0.0,74.0,5.135
9.0,75.0,5.136
11.0,66.0,5.137
0.0,56.0,5.138
-11.0,51.0,5.139
-21.0,46.0,5.14
-26.0,26.0,5.141
-32.0,3.0,5.142
-34.0,-16.0,5.143
-28.0,-35.0,5.144
-12.0,-54.0,5.145
12.0,-73.0,5.146
40.0,-85.0,5.147
60.0,-90.0,5.148
64.0,-93.0,5.149
51.0,-90.0,5.15
27.0,-72.0,5.151
1.0,-44.0,5.152
-21.0,-17.0,5.153
-34.0,-1.0,5.154
-29.0,11.0,5.155
1.0,27.0,5.156
47.0,43.0,5.157
81.0,53.0,5.158
83.0,53.0,5.159
50.0,46.0,5.16
17.0,35.0,5.161
4.0,28.0,5.162
3.0,24.0,5.163
-4.0,22.0,5.164
-17.0,21.0,5.165
-23.0,13.0,5.166
-24.0,-4.0,5.167
-23.0,-29.0,5.168
-15.0,-52.0,5.169
-1.0,-62.0,5.17
4.0,-61.0,5.171
-7.0,-54.0,5.172
-28.0,-46.0,5.173
-48.0,-34.0,5.174
-59.0,-11.0,5.175
-55.0,19.0,5.176
-33.0,46.0,5.177
2.0,56.0,5.178
30.0,52.0,5.179
41.0,47.0,5.18
41.0,43.0,5.181
36.0,39.0,5.182
26.0,33.0,5.183
17.0,30.0,5.184
18.0,34.0,5.185
24.0,34.0,5.186
22.0,19.0,5.187
14.0,5.0,5.188
4.0,-4.0,5.189
-9.0,-14.0,5.19
-36.0,-22.0,5.191
-64.0,-28.0,5.192
-68.0,-29.0,5.193
-43.0,-30.0,5.194
-8.0,-24.0,5.195
25.0,-18.0,5.196
60.0,-11.0,5.197
87.0,-3.0,5.198
85.0,-1.0,5.199
53.0,-4.0,5.2
25.0,-10.0,5.201
30.0,-4.0,5.202
42.0,14.0,5.203
21.0,45.0,5.204
-33.0,73.0,5.205
-75.0,78.0,5.206
-69.0,49.0,5.207
-33.0,3.0,5.208
-6.0,-35.0,5.209
2.0,-59.0,5.21
5.0,-77.0,5.211
5.0,-97.0,5.212
-11.0,-109.0,5.213
-32.0,-102.0,5.214
-25.0,-87.0,5.215
13.0,-76.0,5.216
45.0,-70.0,5.217
47.0,-56.0,5.218
32.0,-36.0,5.219
23.0,-17.0,5.22
15.0,-7.0,5.221
5.0,-2.0,5.222
6.0,-1.0,5.223
24.0,0.0,5.224
32.0,10.0,5.225
16.0,30.0,5.226
0.0,47.0,5.227
1.0,53.0,5.228
1.0,51.0,5.229
-20.0,50.0,5.23
-45.0,50.0,5.231
-48.0,44.0,5.232
-40.0,40.0,5.233
-41.0,47.0,5.234
-42.0,59.0,5.235
-26.0,65.0,5.236
-1.0,60.0,5.237
12.0,54.0,5.238
17.0,54.0,5.239
23.0,58.0,5.24
27.0,57.0,5.241
12.0,55.0,5.242
-7.0,50.0,5.243
-10.0,43.0,5.244
-6.0,32.0,5.245
-18.0,15.0,5.246
-31.0,-7.0,5.247
-19.0,-30.0,5.248
14.0,-46.0,5.249
36.0,-52.0,5.25
33.0,-58.0,5.251
28.0,-64.0,5.252
31.0,-61.0,5.253
32.0,-47.0,5.254
35.0,-32.0,5.255
48.0,-20.0,5.256
62.0,-3.0,5.257
51.0,16.0,5.258
13.0,26.0,5.259
-32.0,31.0,5.26
-61.0,19.0,5.261
-64.0,10.0,5.262
-42.0,12.0,5.263
-7.0,11.0,5.264
18.0,-6.0,5.265
13.0,-23.0,5.266
-10.0,-39.0,5.267
-17.0,-55.0,5.268
6.0,-69.0,5.269
47.0,-78.0,5.27
86.0,-66.0,5.271
94.0,-53.0,5.272
56.0,-39.0,5.273
-16.0,-29.0,5.274
-75.0,-29.0,5.275
-85.0,-29.0,5.276
-56.0,-37.0,5.277
-28.0,-41.0,5.278
-24.0,-33.0,5.279
-49.0,-27.0,5.28
-85.0,-26.0,5.281
-100.0,-12.0,5.282
-61.0,24.0,5.283
27.0,62.0,5.284
105.0,77.0,5.285
117.0,69.0,5.286
80.0,56.0,5.287
56.0,50.0,5.288
59.0,43.0,5.289
53.0,28.0,5.29
26.0,6.0,5.291
17.0,-8.0,5.292
41.0,-5.0,5.293
52.0,14.0,5.294
14.0,41.0,5.295
-44.0,66.0,5.296
-71.0,75.0,5.297
-66.0,62.0,5.298
-53.0,32.0,5.299
-44.0,11.0,5.3
-18.0,10.0,5.301
27.0,23.0,5.302
56.0,27.0,5.303
51.0,10.0,5.304
32.0,-13.0,5.305
25.0,-34.0,5.306
24.0,-51.0,5.307
10.0,-58.0,5.308
-10.0,-52.0,5.309
-15.0,-32.0,5.31
0.0,-12.0,5.311
8.0,1.0,5.312
0.0,6.0,5.313
-6.0,8.0,5.314
-4.0,6.0,5.315
0.0,-1.0,5.316
-2.0,-11.0,5.317
-10.0,-28.0,5.318
-17.0,-43.0,5.319
-25.0,-47.0,5.32
-28.0,-42.0,5.321
-19.0,-31.0,5.322
6.0,-18.0,5.323
23.0,-4.0,5.324
13.0,8.0,5.325
-6.0,8.0,5.326
-11.0,-2.0,5.327
0.0,-4.0,5.328
10.0,6.0,5.329
9.0,18.0,5.33
6.0,22.0,5.331
6.0,25.0,5.332
2.0,29.0,5.333
-5.0,29.0,5.334
-8.0,18.0,5.335
-7.0,11.0,5.336
-10.0,16.0,5.337
-16.0,18.0,5.338
-18.0,10.0,5.339
-17.0,5.0,5.34
-18.0,14.0,5.341
-19.0,23.0,5.342
-14.0,27.0,5.343
0.0,25.0,5.344
9.0,4.0,5.345
3.0,-12.0,5.346
1.0,-16.0,5.347
21.0,-19.0,5.348
54.0,-21.0,5.349
70.0,-27.0,5.35
52.0,-44.0,5.351
18.0,-60.0,5.352
0.0,-70.0,5.353
10.0,-74.0,5.354
21.0,-59.0,5.355
10.0,-42.0,5.356
-14.0,-20.0,5.357
-27.0,5.0,5.358
-21.0,32.0,5.359
-14.0,47.0,5.36
-21.0,47.0,5.361
-31.0,48.0,5.362
-23.0,56.0,5.363
-4.0,65.0,5.364
9.0,60.0,5.365
14.0,31.0,5.366
20.0,-7.0,5.367
30.0,-35.0,5.368
39.0,-36.0,5.369
47.0,-6.0,5.37
53.0,40.0,5.371
37.0,74.0,5.372
0.0,66.0,5.373
-28.0,30.0,5.374
-22.0,1.0,5.375
-7.0,-5.0,5.376
-16.0,-16.0,5.377
-34.0,-62.0,5.378
-23.0,-123.0,5.379
9.0,-162.0,5.38
18.0,-164.0,5.381
-3.0,-131.0,5.382
-11.0,-77.0,5.383
13.0,-20.0,5.384
43.0,29.0,5.385
51.0,63.0,5.386
47.0,89.0,5.387
40.0,109.0,5.388
19.0,115.0,5.389
-18.0,110.0,5.39
-52.0,104.0,5.391
-62.0,95.0,5.392
-54.0,75.0,5.393
-36.0,46.0,5.394
-9.0,21.0,5.395
26.0,6.0,5.396
58.0,-3.0,5.397
76.0,-16.0,5.398
80.0,-27.0,5.399
65.0,-39.0,5.4
38.0,-63.0,5.401
9.0,-93.0,5.402
-11.0,-107.0,5.403
-23.0,-91.0,5.404
-37.0,-46.0,5.405
-43.0,2.0,5.406
-29.0,40.0,5.407
-8.0,61.0,5.408
-4.0,66.0,5.409
-23.0,52.0,5.41
-43.0,24.0,5.411
-52.0,-3.0,5.412
-56.0,-9.0,5.413
-60.0,5.0,5.414
-54.0,30.0,5.415
-35.0,41.0,5.416
-14.0,31.0,5.417
-1.0,3.0,5.418
13.0,-20.0,5.419
38.0,-39.0,5.42
69.0,-43.0,5.421
82.0,-47.0,5.422
59.0,-52.0,5.423
11.0,-54.0,5.424
-35.0,-47.0,5.425
-56.0,-40.0,5.426
-44.0,-37.0,5.427
-6.0,-31.0,5.428
37.0,-21.0,5.429
53.0,-14.0,5.43
30.0,-14.0,5.431
-9.0,-14.0,5.432
-20.0,-12.0,5.433
6.0,-9.0,5.434
37.0,0.0,5.435
40.0,9.0,5.436
21.0,21.0,5.437
5.0,33.0,5.438
9.0,46.0,5.439
29.0,50.0,5.44
47.0,50.0,5.441
42.0,63.0,5.442
23.0,85.0,5.443
11.0,96.0,5.444
14.0,86.0,5.445
12.0,63.0,5.446
-6.0,35.0,5.447
-17.0,4.0,5.448
-8.0,-28.0,5.449
5.0,-53.0,5.45
1.0,-61.0,5.451
-7.0,-55.0,5.452
-8.0,-44.0,5.453
-10.0,-40.0,5.454
-30.0,-43.0,5.455
-52.0,-43.0,5.456
-53.0,-28.0,5.457
-35.0,1.0,5.458
-12.0,43.0,5.459
8.0,86.0,5.46
25.0,109.0,5.461
31.0,93.0,5.462
23.0,35.0,5.463
15.0,-32.0,5.464
17.0,-69.0,5.465
20.0,-75.0,5.466
10.0,-75.0,5.467
-9.0,-81.0,5.468
-19.0,-78.0,5.469
-14.0,-65.0,5.47
-3.0,-56.0,5.471
-2.0,-53.0,5.472
-5.0,-42.0,5.473
0.0,-19.0,5.474
15.0,4.0,5.475
27.0,21.0,5.476
24.0,42.0,5.477
1.0,74.0,5.478
-20.0,101.0,5.479
-26.0,100.0,5.48
-17.0,72.0,5.481
-5.0,48.0,5.482
2.0,40.0,5.483
8.0,32.0,5.484
15.0,8.0,5.485
18.0,-32.0,5.486
17.0,-69.0,5.487
15.0,-89.0,5.488
14.0,-97.0,5.489
14.0,-96.0,5.49
15.0,-82.0,5.491
24.0,-54.0,5.492
31.0,-21.0,5.493
25.0,-1.0,5.494
7.0,10.0,5.495
-6.0,27.0,5.496
-10.0,51.0,5.497
-12.0,71.0,5.498
-19.0,79.0,5.499
-26.0,84.0,5.5
-30.0,82.0,5.501
-28.0,77.0,5.502
-17.0,61.0,5.503
2.0,51.0,5.504
15.0,61.0,5.505
16.0,70.0,5.506
14.0,70.0,5.507
21.0,65.0,5.508
26.0,47.0,5.509
13.0,25.0,5.51
-12.0,-10.0,5.511
-26.0,-51.0,5.512
-24.0,-108.0,5.513
-23.0,-157.0,5.514
-25.0,-182.0,5.515
-12.0,-197.0,5.516
26.0,-177.0,5.517
63.0,-146.0,5.518
64.0,-77.0,5.519
24.0,-14.0,5.52
-17.0,12.0,5.521
-33.0,11.0,5.522
-37.0,15.0,5.523
-44.0,44.0,5.524
-46.0,85.0,5.525
-21.0,118.0,5.526
27.0,144.0,5.527
68.0,169.0,5.528
74.0,191.0,5.529
50.0,179.0,5.53
29.0,113.0,5.531
26.0,0.0,5.532
39.0,-121.0,5.533
40.0,-203.0,5.534
18.0,-223.0,5.535
-17.0,-195.0,5.536
-34.0,-154.0,5.537
-31.0,-125.0,5.538
-23.0,-110.0,5.539
-27.0,-78.0,5.54
-25.0,-27.0,5.541
-2.0,15.0,5.542
28.0,36.0,5.543
35.0,43.0,5.544
19.0,50.0,5.545
4.0,53.0,5.546
10.0,40.0,5.547
22.0,22.0,5.548
15.0,15.0,5.549
-13.0,22.0,5.55
-44.0,32.0,5.551
-59.0,50.0,5.552
-57.0,88.0,5.553
-45.0,128.0,5.554
-30.0,150.0,5.555
-18.0,153.0,5.556
-5.0,146.0,5.557
13.0,120.0,5.558
39.0,68.0,5.559
55.0,11.0,5.56
55.0,-24.0,5.561
42.0,-46.0,5.562
28.0,-70.0,5.563
18.0,-82.0,5.564
11.0,-58.0,5.565
8.0,-28.0,5.566
9.0,-43.0,5.567
8.0,-88.0,5.568
0.0,-104.0,5.569
-8.0,-77.0,5.57
-5.0,-51.0,5.571
7.0,-53.0,5.572
16.0,-55.0,5.573
11.0,-36.0,5.574
-3.0,-23.0,5.575
-16.0,-30.0,5.576
-18.0,-28.0,5.577
-21.0,-4.0,5.578
-27.0,24.0,5.579
-35.0,49.0,5.58
-34.0,65.0,5.581
-21.0,84.0,5.582
-7.0,110.0,5.583
6.0,122.0,5.584
19.0,87.0,5.585
34.0,52.0,5.586
45.0,20.0,5.587
43.0,-9.0,5.588
30.0,-25.0,5.589
18.0,-39.0,5.59
10.0,-45.0,5.591
3.0,-50.0,5.592
4.0,-47.0,5.593
11.0,-45.0,5.594
7.0,-52.0,5.595
-5.0,-54.0,5.596
-15.0,-37.0,5.597
-16.0,-16.0,5.598
-16.0,11.0,5.599
-20.0,29.0,5.6
-22.0,40.0,5.601
-4.0,67.0,5.602
29.0,110.0,5.603
47.0,157.0,5.604
38.0,185.0,5.605
11.0,171.0,5.606
-17.0,99.0,5.607
-43.0,-7.0,5.608
-61.0,-101.0,5.609
-58.0,-149.0,5.61
-33.0,-158.0,5.611
-12.0,-158.0,5.612
-15.0,-162.0,5.613
-29.0,-165.0,5.614
-33.0,-166.0,5.615
-21.0,-161.0,5.616
-12.0,-145.0,5.617
1.0,-113.0,5.618
28.0,-67.0,5.619
49.0,-20.0,5.62
47.0,16.0,5.621
44.0,43.0,5.622
37.0,55.0,5.623
33.0,56.0,5.624
41.0,55.0,5.625
45.0,61.0,5.626
38.0,73.0,5.627
26.0,81.0,5.628
-2.0,77.0,5.629
-23.0,70.0,5.63
-21.0,65.0,5.631
-14.0,62.0,5.632
7.0,56.0,5.633
25.0,51.0,5.634
35.0,46.0,5.635
42.0,39.0,5.636
32.0,34.0,5.637
18.0,38.0,5.638
-11.0,53.0,5.639
-19.0,53.0,5.64
-6.0,4.0,5.641
8.0,-43.0,5.642
14.0,-84.0,5.643
12.0,-113.0,5.644
-1.0,-101.0,5.645
-16.0,-88.0,5.646
-11.0,-78.0,5.647
14.0,-65.0,5.648
26.0,-46.0,5.649
-2.0,-24.0,5.65
-41.0,5.0,5.651
-46.0,32.0,5.652
-18.0,52.0,5.653
6.0,67.0,5.654
10.0,63.0,5.655
3.0,56.0,5.656
-4.0,39.0,5.657
-11.0,24.0,5.658
-14.0,27.0,5.659
-11.0,41.0,5.66
-6.0,51.0,5.661
-3.0,42.0,5.662
5.0,14.0,5.663
19.0,-12.0,5.664
31.0,-17.0,5.665
35.0,-5.0,5.666
31.0,6.0,5.667
17.0,10.0,5.668
-9.0,21.0,5.669
-32.0,36.0,5.67
-38.0,31.0,5.671
-28.0,1.0,5.672
-21.0,-28.0,5.673
-19.0,-43.0,5.674
-10.0,-56.0,5.675
1.0,-69.0,5.676
1.0,-66.0,5.677
-8.0,-38.0,5.678
-6.0,-8.0,5.679
8.0,-3.0,5.68
20.0,-13.0,5.681
22.0,-13.0,5.682
23.0,-8.0,5.683
23.0,-9.0,5.684
16.0,-11.0,5.685
3.0,-4.0,5.686
-2.0,7.0,5.687
-2.0,13.0,5.688
-9.0,24.0,5.689
-23.0,39.0,5.69
-32.0,42.0,5.691
-32.0,26.0,5.692
-21.0,14.0,5.693
4.0,29.0,5.694
43.0,60.0,5.695
77.0,84.0,5.696
85.0,90.0,5.697
55.0,87.0,5.698
7.0,82.0,5.699
-33.0,67.0,5.7
-42.0,28.0,5.701
-25.0,-32.0,5.702
-9.0,-98.0,5.703
-15.0,-146.0,5.704
-24.0,-166.0,5.705
-9.0,-165.0,5.706
30.0,-149.0,5.707
54.0,-106.0,5.708
41.0,-32.0,5.709
10.0,45.0,5.71
-8.0,73.0,5.711
-8.0,38.0,5.712
-4.0,-19.0,5.713
-1.0,-59.0,5.714
-2.0,-76.0,5.715
-5.0,-84.0,5.716
-5.0,-73.0,5.717
-7.0,-44.0,5.718
-16.0,-16.0,5.719
-42.0,-17.0,5.72
-73.0,-33.0,5.721
-75.0,-18.0,5.722
-33.0,21.0,5.723
24.0,51.0,5.724
61.0,64.0,5.725
75.0,87.0,5.726
81.0,128.0,5.727
79.0,157.0,5.728
60.0,154.0,5.729
34.0,142.0,5.73
19.0,132.0,5.731
13.0,96.0,5.732
2.0,18.0,5.733
-9.0,-70.0,5.734
-12.0,-129.0,5.735
-10.0,-151.0,5.736
-8.0,-150.0,5.737
-8.0,-129.0,5.738
-5.0,-78.0,5.739
-9.0,-18.0,5.74
-22.0,12.0,5.741
-28.0,7.0,5.742
-14.0,-9.0,5.743
11.0,-12.0,5.744
26.0,-5.0,5.745
21.0,-5.0,5.746
6.0,-13.0,5.747
-6.0,-17.0,5.748
-10.0,-9.0,5.749
-8.0,3.0,5.75
-3.0,21.0,5.751
2.0,47.0,5.752
3.0,75.0,5.753
-4.0,88.0,5.754
-19.0,76.0,5.755
-22.0,47.0,5.756
-5.0,21.0,5.757
18.0,3.0,5.758
20.0,1.0,5.759
2.0,3.0,5.76
-7.0,-4.0,5.761
1.0,-14.0,5.762
24.0,-20.0,5.763
50.0,-17.0,5.764
62.0,-16.0,5.765
45.0,-23.0,5.766
7.0,-33.0,5.767
-12.0,-39.0,5.768
-6.0,-45.0,5.769
-3.0,-51.0,5.77
-22.0,-49.0,5.771
-37.0,-32.0,5.772
-30.0,-2.0,5.773
-25.0,29.0,5.774
-34.0,60.0,5.775
-34.0,96.0,5.776
-12.0,122.0,5.777
7.0,116.0,5.778
3.0,76.0,5.779
-11.0,26.0,5.78
-13.0,-9.0,5.781
-8.0,-22.0,5.782
-4.0,-33.0,5.783
10.0,-50.0,5.784
33.0,-65.0,5.785
46.0,-65.0,5.786
36.0,-53.0,5.787
17.0,-28.0,5.788
6.0,7.0,5.789
6.0,35.0,5.79
9.0,33.0,5.791
9.0,7.0,5.792
7.0,-10.0,5.793
6.0,-15.0,5.794
12.0,-23.0,5.795
22.0,-45.0,5.796
25.0,-61.0,5.797
6.0,-61.0,5.798
-22.0,-54.0,5.799
-40.0,-51.0,5.8
-41.0,-46.0,5.801
-27.0,-23.0,5.802
-7.0,12.0,5.803
4.0,47.0,5.804
0.0,77.0,5.805
-12.0,95.0,5.806
-14.0,91.0,5.807
-7.0,60.0,5.808
-4.0,15.0,5.809
2.0,-23.0,5.81
29.0,-47.0,5.811
69.0,-58.0,5.812
93.0,-57.0,5.813
83.0,-45.0,5.814
51.0,-20.0,5.815
11.0,14.0,5.816
-18.0,55.0,5.817
-26.0,104.0,5.818
-9.0,152.0,5.819
11.0,169.0,5.82
7.0,126.0,5.821
-13.0,36.0,5.822
-19.0,-54.0,5.823
-9.0,-105.0,5.824
-6.0,-119.0,5.825
-17.0,-119.0,5.826
-22.0,-113.0,5.827
-11.0,-96.0,5.828
3.0,-73.0,5.829
11.0,-50.0,5.83
28.0,-20.0,5.831
51.0,15.0,5.832
59.0,34.0,5.833
41.0,25.0,5.834
9.0,8.0,5.835
-16.0,7.0,5.836
-32.0,10.0,5.837
-49.0,-10.0,5.838
-53.0,-41.0,5.839
-37.0,-53.0,5.84
-14.0,-43.0,5.841
-8.0,-25.0,5.842
-13.0,-11.0,5.843
-5.0,13.0,5.844
19.0,49.0,5.845
35.0,79.0,5.846
34.0,79.0,5.847
27.0,57.0,5.848
16.0,33.0,5.849
-4.0,30.0,5.85
-23.0,44.0,5.851
-20.0,61.0,5.852
0.0,64.0,5.853
13.0,55.0,5.854
6.0,41.0,5.855
-2.0,28.0,5.856
-1.0,17.0,5.857
0.0,3.0,5.858
-7.0,-14.0,5.859
-19.0,-39.0,5.86
-24.0,-69.0,5.861
-23.0,-80.0,5.862
-16.0,-60.0,5.863
-1.0,-18.0,5.864
10.0,19.0,5.865
7.0,36.0,5.866
-2.0,30.0,5.867
-6.0,7.0,5.868
-6.0,-14.0,5.869
-4.0,-23.0,5.87
2.0,-19.0,5.871
17.0,-16.0,5.872
26.0,-23.0,5.873
19.0,-35.0,5.874
0.0,-45.0,5.875
-10.0,-42.0,5.876
0.0,-29.0,5.877
22.0,-14.0,5.878
36.0,-2.0,5.879
29.0,10.0,5.88
6.0,20.0,5.881
-4.0,31.0,5.882
14.0,31.0,5.883
38.0,25.0,5.884
36.0,25.0,5.885
15.0,32.0,5.886
12.0,35.0,5.887
28.0,28.0,5.888
30.0,18.0,5.889
10.0,10.0,5.89
-6.0,-4.0,5.891
3.0,-22.0,5.892
25.0,-30.0,5.893
36.0,-24.0,5.894
30.0,-19.0,5.895
9.0,-23.0,5.896
-20.0,-23.0,5.897
-51.0,-16.0,5.898
-72.0,-13.0,5.899
-90.0,-20.0,5.9
-109.0,-25.0,5.901
-108.0,-11.0,5.902
-66.0,9.0,5.903
-4.0,20.0,5.904
44.0,20.0,5.905
73.0,18.0,5.906
91.0,22.0,5.907
93.0,31.0,5.908
73.0,47.0,5.909
54.0,66.0,5.91
53.0,71.0,5.911
53.0,48.0,5.912
34.0,17.0,5.913
10.0,-6.0,5.914
3.0,-20.0,5.915
1.0,-39.0,5.916
-12.0,-56.0,5.917
-23.0,-62.0,5.918
-15.0,-53.0,5.919
-3.0,-42.0,5.92
-9.0,-34.0,5.921
-20.0,-15.0,5.922
-17.0,14.0,5.923
-9.0,36.0,5.924
-12.0,40.0,5.925
-19.0,36.0,5.926
-18.0,27.0,5.927
-16.0,11.0,5.928
-22.0,-7.0,5.929
-24.0,-12.0,5.93
-12.0,-1.0,5.931
-2.0,11.0,5.932
-7.0,11.0,5.933
-14.0,5.0,5.934
-6.0,4.0,5.935
2.0,1.0,5.936
-1.0,-10.0,5.937
-15.0,-24.0,5.938
-27.0,-21.0,5.939
-38.0,0.0,5.94
-40.0,16.0,5.941
-19.0,27.0,5.942
25.0,44.0,5.943
68.0,73.0,5.944
82.0,100.0,5.945
65.0,121.0,5.946
39.0,151.0,5.947
21.0,175.0,5.948
20.0,134.0,5.949
27.0,9.0,5.95
30.0,-131.0,5.951
18.0,-211.0,5.952
-3.0,-244.0,5.953
-20.0,-288.0,5.954
-29.0,-328.0,5.955
-34.0,-297.0,5.956
-35.0,-203.0,5.957
-27.0,-104.0,5.958
-14.0,-37.0,5.959
-3.0,22.0,5.96
1.0,84.0,5.961
0.0,121.0,5.962
0.0,119.0,5.963
4.0,106.0,5.964
15.0,104.0,5.965
29.0,107.0,5.966
37.0,106.0,5.967
39.0,107.0,5.968
38.0,105.0,5.969
35.0,88.0,5.97
22.0,56.0,5.971
-5.0,21.0,5.972
-34.0,-14.0,5.973
-54.0,-44.0,5.974
-64.0,-53.0,5.975
-60.0,-42.0,5.976
-41.0,-26.0,5.977
-6.0,-26.0,5.978
24.0,-22.0,5.979
29.0,-8.0,5.98
14.0,-3.0,5.981
-2.0,-15.0,5.982
-11.0,-28.0,5.983
-17.0,-19.0,5.984
-15.0,-2.0,5.985
-3.0,6.0,5.986
15.0,5.0,5.987
23.0,6.0,5.988
21.0,10.0,5.989
14.0,10.0,5.99
10.0,11.0,5.991
10.0,10.0,5.992
13.0,8.0,5.993
17.0,8.0,5.994
21.0,13.0,5.995
27.0,21.0,5.996
34.0,28.0,5.997
33.0,81.0,5.998
25.0,85.0,5.999
15.0,73.0,6.0
4.0,16.0,6.001
-3.0,-21.0,6.002
2.0,-2.0,6.003
3.0,6.0,6.004
-10.0,-24.0,6.005
-23.0,-51.0,6.006
-32.0,-62.0,6.007
-35.0,-66.0,6.008
-20.0,-36.0,6.009
-2.0,-13.0,6.01
26.0,-13.0,6.011
46.0,-2.0,6.012
41.0,47.0,6.013
27.0,88.0,6.014
-10.0,88.0,6.015
-39.0,77.0,6.016
-36.0,24.0,6.017
-29.0,31.0,6.018
-20.0,32.0,6.019
-19.0,29.0,6.02
-22.0,14.0,6.021
-25.0,4.0,6.022
-13.0,9.0,6.023
8.0,11.0,6.024
22.0,3.0,6.025
20.0,-4.0,6.026
18.0,-7.0,6.027
22.0,-8.0,6.028
25.0,0.0,6.029
21.0,6.0,6.03
13.0,6.0,6.031
11.0,9.0,6.032
12.0,22.0,6.033
11.0,33.0,6.034
10.0,33.0,6.035
11.0,30.0,6.036
11.0,16.0,6.037
5.0,0.0,6.038
1.0,-20.0,6.039
-3.0,-45.0,6.04
-9.0,-67.0,6.041
-18.0,-76.0,6.042
-17.0,-78.0,6.043
-3.0,-74.0,6.044
11.0,-59.0,6.045
14.0,-36.0,6.046
2.0,-18.0,6.047
-22.0,-12.0,6.048
-54.0,-9.0,6.049
-78.0,3.0,6.05
-63.0,19.0,6.051
-5.0,26.0,6.052
53.0,25.0,6.053
67.0,27.0,6.054
45.0,33.0,6.055
31.0,35.0,6.056
50.0,32.0,6.057
71.0,23.0,6.058
60.0,15.0,6.059
23.0,13.0,6.06
10.0,12.0,6.061
27.0,18.0,6.062
33.0,22.0,6.063
-7.0,22.0,6.064
-55.0,21.0,6.065
-56.0,21.0,6.066
-15.0,20.0,6.067
16.0,14.0,6.068
16.0,8.0,6.069
9.0,1.0,6.07
11.0,-4.0,6.071
3.0,-7.0,6.072
-16.0,-7.0,6.073
-25.0,0.0,6.074
-21.0,8.0,6.075
-22.0,9.0,6.076
-29.0,6.0,6.077
-21.0,2.0,6.078
2.0,0.0,6.079
17.0,-4.0,6.08
19.0,-18.0,6.081
26.0,-31.0,6.082
47.0,-36.0,6.083
59.0,-38.0,6.084
47.0,-26.0,6.085
17.0,-16.0,6.086
-13.0,-16.0,6.087
-36.0,-15.0,6.088
-47.0,-15.0,6.089
-39.0,-12.0,6.09
-24.0,-2.0,6.091
-17.0,7.0,6.092
-20.0,12.0,6.093
-19.0,21.0,6.094
-9.0,43.0,6.095
4.0,61.0,6.096
12.0,61.0,6.097
12.0,56.0,6.098
8.0,36.0,6.099
-1.0,4.0,6.1
-12.0,-38.0,6.101
-14.0,-70.0,6.102
-7.0,-77.0,6.103
2.0,-67.0,6.104
6.0,-60.0,6.105
1.0,-56.0,6.106
-11.0,-38.0,6.107
-27.0,-6.0,6.108
-34.0,18.0,6.109
-17.0,19.0,6.11
21.0,5.0,6.111
60.0,-6.0,6.112
83.0,-9.0,6.113
84.0,-12.0,6.114
69.0,-13.0,6.115
42.0,-10.0,6.116
14.0,-5.0,6.117
-12.0,-7.0,6.118
-28.0,-11.0,6.119
-33.0,-8.0,6.12
-28.0,5.0,6.121
-19.0,19.0,6.122
-7.0,22.0,6.123
3.0,16.0,6.124
5.0,16.0,6.125
-9.0,22.0,6.126
-32.0,27.0,6.127
-41.0,26.0,6.128
-21.0,24.0,6.129
9.0,26.0,6.13
23.0,28.0,6.131
23.0,22.0,6.132
29.0,8.0,6.133
42.0,0.0,6.134
39.0,0.0,6.135
8.0,4.0,6.136
-29.0,8.0,6.137
-51.0,13.0,6.138
-48.0,27.0,6.139
-31.0,37.0,6.14
-21.0,30.0,6.141
-20.0,13.0,6.142
-4.0,1.0,6.143
41.0,-3.0,6.144
89.0,-9.0,6.145
97.0,-21.0,6.146
65.0,-31.0,6.147
28.0,-32.0,6.148
2.0,-28.0,6.149
-18.0,-21.0,6.15
-32.0,-13.0,6.151
-21.0,-5.0,6.152
7.0,2.0,6.153
18.0,9.0,6.154
8.0,18.0,6.155
7.0,31.0,6.156
24.0,47.0,6.157
26.0,55.0,6.158
-1.0,47.0,6.159
-23.0,31.0,6.16
-5.0,-6.0,6.161
19.0,-43.0,6.162
15.0,-75.0,6.163
-9.0,-104.0,6.164
-14.0,-124.0,6.165
-4.0,-131.0,6.166
-8.0,-99.0,6.167
-24.0,-64.0,6.168
-26.0,-26.0,6.169
-11.0,11.0,6.17
6.0,45.0,6.171
17.0,70.0,6.172
18.0,67.0,6.173
12.0,58.0,6.174
0.0,32.0,6.175
-9.0,7.0,6.176
-7.0,-14.0,6.177
-1.0,-32.0,6.178
0.0,-30.0,6.179
-10.0,-16.0,6.18
-22.0,4.0,6.181
-25.0,31.0,6.182
-15.0,48.0,6.183
1.0,48.0,6.184
12.0,47.0,6.185
10.0,55.0,6.186
1.0,61.0,6.187
-4.0,53.0,6.188
-12.0,37.0,6.189
-19.0,25.0,6.19
-18.0,11.0,6.191
-2.0,-8.0,6.192
16.0,-27.0,6.193
22.0,-39.0,6.194
18.0,-49.0,6.195
13.0,-60.0,6.196
15.0,-62.0,6.197
19.0,-47.0,6.198
25.0,-25.0,6.199
24.0,-8.0,6.2
11.0,-6.0,6.201
-13.0,-5.0,6.202
-36.0,-5.0,6.203
-42.0,-8.0,6.204
-34.0,-19.0,6.205
-16.0,-26.0,6.206
10.0,-19.0,6.207
41.0,-11.0,6.208
53.0,1.0,6.209
41.0,12.0,6.21
24.0,17.0,6.211
17.0,22.0,6.212
11.0,25.0,6.213
-5.0,27.0,6.214
-15.0,23.0,6.215
-10.0,20.0,6.216
-6.0,19.0,6.217
-19.0,18.0,6.218
-28.0,16.0,6.219
-16.0,7.0,6.22
7.0,2.0,6.221
11.0,10.0,6.222
-3.0,17.0,6.223
-12.0,13.0,6.224
-2.0,1.0,6.225
21.0,-4.0,6.226
42.0,-3.0,6.227
50.0,-4.0,6.228
42.0,-6.0,6.229
29.0,-6.0,6.23
19.0,-5.0,6.231
14.0,-4.0,6.232
6.0,-3.0,6.233
-6.0,0.0,6.234
-22.0,-6.0,6.235
-38.0,-12.0,6.236
-47.0,-8.0,6.237
-46.0,1.0,6.238
-34.0,7.0,6.239
-19.0,2.0,6.24
-1.0,-6.0,6.241
16.0,-6.0,6.242
26.0,-3.0,6.243
24.0,0.0,6.244
25.0,3.0,6.245
39.0,6.0,6.246
44.0,6.0,6.247
24.0,-1.0,6.248
-7.0,-9.0,6.249
-19.0,-6.0,6.25
-17.0,12.0,6.251
-23.0,39.0,6.252
-28.0,57.0,6.253
-9.0,48.0,6.254
30.0,18.0,6.255
54.0,-13.0,6.256
53.0,-27.0,6.257
38.0,-38.0,6.258
22.0,-55.0,6.259
1.0,-74.0,6.26
-17.0,-81.0,6.261
-25.0,-72.0,6.262
-19.0,-57.0,6.263
-8.0,-43.0,6.264
6.0,-24.0,6.265
20.0,1.0,6.266
27.0,32.0,6.267
23.0,56.0,6.268
8.0,60.0,6.269
-16.0,38.0,6.27
-42.0,5.0,6.271
-59.0,-8.0,6.272
-61.0,0.0,6.273
-54.0,9.0,6.274
-37.0,12.0,6.275
3.0,29.0,6.276
51.0,67.0,6.277
68.0,92.0,6.278
36.0,85.0,6.279
-9.0,74.0,6.28
-20.0,55.0,6.281
-5.0,30.0,6.282
1.0,-11.0,6.283
-3.0,-47.0,6.284
-2.0,-65.0,6.285
1.0,-80.0,6.286
-7.0,-78.0,6.287
-17.0,-72.0,6.288
-12.0,-53.0,6.289
4.0,-40.0,6.29
11.0,-45.0,6.291
4.0,-45.0,6.292
-4.0,-28.0,6.293
-8.0,-13.0,6.294
-11.0,-5.0,6.295
-9.0,4.0,6.296
0.0,20.0,6.297
17.0,35.0,6.298
34.0,33.0,6.299
51.0,16.0,6.3
58.0,9.0,6.301
50.0,20.0,6.302
37.0,26.0,6.303
32.0,18.0,6.304
28.0,13.0,6.305
18.0,18.0,6.306
6.0,25.0,6.307
5.0,24.0,6.308
10.0,18.0,6.309
4.0,7.0,6.31
-6.0,-5.0,6.311
-8.0,-10.0,6.312
-4.0,-7.0,6.313
-7.0,-2.0,6.314
-18.0,0.0,6.315
-23.0,5.0,6.316
-19.0,13.0,6.317
-17.0,9.0,6.318
-16.0,-8.0,6.319
-15.0,-20.0,6.32
-10.0,-17.0,6.321
-11.0,-9.0,6.322
-12.0,-5.0,6.323
-6.0,3.0,6.324
5.0,15.0,6.325
8.0,13.0,6.326
5.0,-7.0,6.327
1.0,-23.0,6.328
-2.0,-22.0,6.329
-5.0,-12.0,6.33
-7.0,-9.0,6.331
-5.0,-8.0,6.332
-7.0,0.0,6.333
-14.0,8.0,6.334
-17.0,8.0,6.335
-10.0,10.0,6.336
1.0,21.0,6.337
13.0,25.0,6.338
23.0,20.0,6.339
33.0,12.0,6.34
36.0,8.0,6.341
35.0,5.0,6.342
31.0,-5.0,6.343
22.0,-21.0,6.344
5.0,-29.0,6.345
-14.0,-24.0,6.346
-25.0,-9.0,6.347
-32.0,10.0,6.348
-44.0,30.0,6.349
-47.0,33.0,6.35
-25.0,15.0,6.351
7.0,-7.0,6.352
19.0,-15.0,6.353
16.0,-13.0,6.354
25.0,-16.0,6.355
49.0,-27.0,6.356
55.0,-35.0,6.357
35.0,-34.0,6.358
24.0,-23.0,6.359
29.0,-11.0,6.36
25.0,2.0,6.361
-3.0,14.0,6.362
-20.0,19.0,6.363
-6.0,23.0,6.364
13.0,25.0,6.365
12.0,26.0,6.366
2.0,18.0,6.367
9.0,9.0,6.368
22.0,0.0,6.369
26.0,-8.0,6.37
16.0,-12.0,6.371
-5.0,-15.0,6.372
-32.0,-17.0,6.373
-49.0,-20.0,6.374
-39.0,-20.0,6.375
-17.0,-19.0,6.376
-11.0,-17.0,6.377
-19.0,-11.0,6.378
-12.0,4.0,6.379
13.0,10.0,6.38
30.0,4.0,6.381
23.0,6.0,6.382
6.0,20.0,6.383
-4.0,33.0,6.384
-13.0,35.0,6.385
-19.0,33.0,6.386
-13.0,37.0,6.387
-2.0,51.0,6.388
10.0,78.0,6.389
20.0,108.0,6.39
27.0,129.0,6.391
21.0,128.0,6.392
0.0,95.0,6.393
-20.0,25.0,6.394
-26.0,-75.0,6.395
-27.0,-173.0,6.396
-31.0,-223.0,6.397
-28.0,-223.0,6.398
-12.0,-188.0,6.399
-2.0,-142.0,6.4
-3.0,-97.0,6.401
-4.0,-55.0,6.402
4.0,-20.0,6.403
5.0,4.0,6.404
-9.0,30.0,6.405
-16.0,52.0,6.406
5.0,58.0,6.407
32.0,51.0,6.408
41.0,43.0,6.409
37.0,40.0,6.41
43.0,34.0,6.411
55.0,30.0,6.412
57.0,39.0,6.413
39.0,54.0,6.414
21.0,51.0,6.415
13.0,35.0,6.416
16.0,23.0,6.417
22.0,19.0,6.418
28.0,17.0,6.419
20.0,9.0,6.42
-2.0,1.0,6.421
-29.0,5.0,6.422
-43.0,9.0,6.423
-45.0,7.0,6.424
-44.0,3.0,6.425
-42.0,-2.0,6.426
-28.0,-14.0,6.427
-6.0,-28.0,6.428
14.0,-32.0,6.429
25.0,-23.0,6.43
25.0,-7.0,6.431
12.0,7.0,6.432
-11.0,11.0,6.433
-23.0,-2.0,6.434
-11.0,-22.0,6.435
12.0,-29.0,6.436
25.0,-14.0,6.437
21.0,0.0,6.438
10.0,5.0,6.439
-2.0,10.0,6.44
-9.0,10.0,6.441
-11.0,10.0,6.442
-7.0,10.0,6.443
-5.0,14.0,6.444
-5.0,26.0,6.445
-3.0,33.0,6.446
4.0,24.0,6.447
12.0,13.0,6.448
15.0,0.0,6.449
8.0,-9.0,6.45
-5.0,-2.0,6.451
-21.0,2.0,6.452
-29.0,-1.0,6.453
-19.0,-5.0,6.454
5.0,-10.0,6.455
29.0,-16.0,6.456
41.0,-25.0,6.457
32.0,-33.0,6.458
14.0,-31.0,6.459
-6.0,-23.0,6.46
-20.0,-23.0,6.461
-23.0,-23.0,6.462
-9.0,-13.0,6.463
14.0,3.0,6.464
32.0,16.0,6.465
39.0,14.0,6.466
40.0,10.0,6.467
40.0,12.0,6.468
39.0,15.0,6.469
31.0,12.0,6.47
14.0,3.0,6.471
-12.0,-6.0,6.472
-42.0,-12.0,6.473
-60.0,-17.0,6.474
-56.0,-19.0,6.475
-37.0,-15.0,6.476
-13.0,-3.0,6.477
7.0,10.0,6.478
25.0,22.0,6.479
31.0,25.0,6.48
27.0,10.0,6.481
19.0,-11.0,6.482
13.0,-32.0,6.483
0.0,-38.0,6.484
-22.0,-25.0,6.485
-39.0,2.0,6.486
-35.0,28.0,6.487
-15.0,45.0,6.488
1.0,50.0,6.489
8.0,47.0,6.49
9.0,38.0,6.491
12.0,26.0,6.492
14.0,8.0,6.493
0.0,-13.0,6.494
-16.0,-35.0,6.495
-13.0,-55.0,6.496
17.0,-66.0,6.497
49.0,-71.0,6.498
59.0,-66.0,6.499
57.0,-50.0,6.5
65.0,-28.0,6.501
68.0,0.0,6.502
41.0,26.0,6.503
3.0,50.0,6.504
-11.0,69.0,6.505
-5.0,74.0,6.506
-13.0,62.0,6.507
-33.0,41.0,6.508
-39.0,26.0,6.509
-25.0,13.0,6.51
-14.0,-1.0,6.511
-11.0,-18.0,6.512
-7.0,-33.0,6.513
-5.0,-51.0,6.514
-20.0,-72.0,6.515
-42.0,-74.0,6.516
-43.0,-47.0,6.517
-27.0,-12.0,6.518
-13.0,5.0,6.519
-13.0,18.0,6.52
-10.0,18.0,6.521
4.0,19.0,6.522
17.0,27.0,6.523
19.0,33.0,6.524
14.0,35.0,6.525
5.0,42.0,6.526
0.0,65.0,6.527
3.0,80.0,6.528
15.0,68.0,6.529
24.0,45.0,6.53
27.0,-4.0,6.531
28.0,-44.0,6.532
28.0,-48.0,6.533
20.0,-54.0,6.534
8.0,-70.0,6.535
0.0,-79.0,6.536
2.0,-66.0,6.537
1.0,-52.0,6.538
-6.0,-50.0,6.539
-14.0,-58.0,6.54
-14.0,-51.0,6.541
-8.0,-24.0,6.542
-3.0,0.0,6.543
-3.0,14.0,6.544
-8.0,27.0,6.545
-15.0,36.0,6.546
-19.0,33.0,6.547
-19.0,26.0,6.548
-19.0,27.0,6.549
-23.0,34.0,6.55
-15.0,35.0,6.551
10.0,29.0,6.552
35.0,26.0,6.553
42.0,26.0,6.554
31.0,22.0,6.555
16.0,14.0,6.556
0.0,12.0,6.557
-15.0,9.0,6.558
-11.0,4.0,6.559
18.0,-5.0,6.56
54.0,-16.0,6.561
72.0,-16.0,6.562
67.0,-8.0,6.563
43.0,-3.0,6.564
-6.0,-3.0,6.565
-74.0,-11.0,6.566
-112.0,-16.0,6.567
-82.0,-18.0,6.568
-18.0,-14.0,6.569
13.0,-5.0,6.57
-3.0,8.0,6.571
-17.0,13.0,6.572
5.0,8.0,6.573
40.0,0.0,6.574
54.0,7.0,6.575
53.0,23.0,6.576
54.0,35.0,6.577
51.0,34.0,6.578
30.0,31.0,6.579
-1.0,23.0,6.58
-19.0,8.0,6.581
-16.0,-10.0,6.582
-2.0,-28.0,6.583
11.0,-38.0,6.584
13.0,-41.0,6.585
10.0,-38.0,6.586
7.0,-29.0,6.587
7.0,-18.0,6.588
6.0,-7.0,6.589
4.0,0.0,6.59
1.0,5.0,6.591
-8.0,14.0,6.592
-25.0,33.0,6.593
-41.0,53.0,6.594
-38.0,61.0,6.595
-17.0,56.0,6.596
2.0,47.0,6.597
11.0,34.0,6.598
14.0,18.0,6.599
16.0,1.0,6.6
11.0,-20.0,6.601
-3.0,-43.0,6.602
-11.0,-67.0,6.603
-4.0,-85.0,6.604
11.0,-83.0,6.605
18.0,-77.0,6.606
16.0,-57.0,6.607
7.0,-33.0,6.608
-1.0,-1.0,6.609
-7.0,28.0,6.61
-8.0,49.0,6.611
0.0,61.0,6.612
11.0,40.0,6.613
11.0,23.0,6.614
2.0,20.0,6.615
-1.0,15.0,6.616
2.0,4.0,6.617
-5.0,-9.0,6.618
-36.0,-32.0,6.619
-69.0,-62.0,6.62
-74.0,-87.0,6.621
-49.0,-84.0,6.622
-21.0,-61.0,6.623
-1.0,-39.0,6.624
26.0,-26.0,6.625
65.0,-9.0,6.626
105.0,13.0,6.627
125.0,32.0,6.628
119.0,41.0,6.629
75.0,44.0,6.63
4.0,42.0,6.631
-50.0,34.0,6.632
-55.0,28.0,6.633
-32.0,28.0,6.634
-25.0,33.0,6.635
-33.0,33.0,6.636
-21.0,30.0,6.637
16.0,21.0,6.638
37.0,10.0,6.639
16.0,0.0,6.64
-17.0,-7.0,6.641
-28.0,-2.0,6.642
-23.0,3.0,6.643
-24.0,3.0,6.644
-27.0,7.0,6.645
-19.0,21.0,6.646
-5.0,29.0,6.647
4.0,23.0,6.648
15.0,12.0,6.649
28.0,11.0,6.65
39.0,9.0,6.651
38.0,-4.0,6.652
33.0,-18.0,6.653
28.0,-20.0,6.654
25.0,-15.0,6.655
20.0,-19.0,6.656
10.0,-27.0,6.657
-10.0,-29.0,6.658
-28.0,-18.0,6.659
-33.0,-7.0,6.66
-28.0,-3.0,6.661
-26.0,0.0,6.662
-31.0,8.0,6.663
-26.0,12.0,6.664
-2.0,11.0,6.665
25.0,12.0,6.666
38.0,13.0,6.667
36.0,13.0,6.668
37.0,12.0,6.669
44.0,17.0,6.67
46.0,28.0,6.671
31.0,36.0,6.672
2.0,33.0,6.673
-20.0,20.0,6.674
-25.0,7.0,6.675
-15.0,-2.0,6.676
0.0,-9.0,6.677
13.0,-18.0,6.678
19.0,-22.0,6.679
18.0,-26.0,6.68
8.0,-32.0,6.681
-7.0,-43.0,6.682
-18.0,-65.0,6.683
-20.0,-82.0,6.684
-19.0,-77.0,6.685
-20.0,-66.0,6.686
-25.0,-39.0,6.687
-31.0,-7.0,6.688
-38.0,38.0,6.689
-36.0,75.0,6.69
-24.0,91.0,6.691
-5.0,95.0,6.692
11.0,63.0,6.693
23.0,35.0,6.694
40.0,19.0,6.695
58.0,2.0,6.696
63.0,-15.0,6.697
51.0,-32.0,6.698
36.0,-31.0,6.699
30.0,-17.0,6.7
20.0,4.0,6.701
-6.0,35.0,6.702
-27.0,48.0,6.703
-27.0,19.0,6.704
-19.0,-42.0,6.705
-19.0,-90.0,6.706
-32.0,-90.0,6.707
-44.0,-60.0,6.708
-41.0,-41.0,6.709
-23.0,-48.0,6.71
1.0,-58.0,6.711
16.0,-48.0,6.712
13.0,-23.0,6.713
6.0,-3.0,6.714
12.0,7.0,6.715
19.0,21.0,6.716
11.0,40.0,6.717
0.0,-3.0,6.718
9.0,3.0,6.719
17.0,5.0,6.72
18.0,-5.0,6.721
21.0,-20.0,6.722
25.0,-51.0,6.723
26.0,-77.0,6.724
19.0,-87.0,6.725
14.0,-89.0,6.726
16.0,-68.0,6.727
17.0,-45.0,6.728
10.0,-18.0,6.729
1.0,3.0,6.73
-8.0,10.0,6.731
-17.0,18.0,6.732
-23.0,23.0,6.733
-25.0,30.0,6.734
-13.0,41.0,6.735
-3.0,51.0,6.736
-4.0,58.0,6.737
-5.0,-3.0,6.738
-8.0,2.0,6.739
-8.0,4.0,6.74
-8.0,-5.0,6.741
-2.0,-19.0,6.742
11.0,-47.0,6.743
9.0,-71.0,6.744
-24.0,-80.0,6.745
-67.0,-82.0,6.746
-85.0,-63.0,6.747
-70.0,-42.0,6.748
-37.0,-18.0,6.749
-6.0,2.0,6.75
12.0,8.0,6.751
15.0,15.0,6.752
21.0,20.0,6.753
55.0,26.0,6.754
102.0,36.0,6.755
121.0,46.0,6.756
107.0,52.0,6.757
84.0,-3.0,6.758
81.0,2.0,6.759
76.0,4.0,6.76
45.0,-5.0,6.761
0.0,-19.0,6.762
-31.0,-47.0,6.763
-37.0,-70.0,6.764
-34.0,-79.0,6.765
-28.0,-81.0,6.766
-16.0,-62.0,6.767
6.0,-42.0,6.768
27.0,-18.0,6.769
28.0,2.0,6.77
13.0,8.0,6.771
-2.0,15.0,6.772
-9.0,20.0,6.773
-13.0,26.0,6.774
-19.0,36.0,6.775
-21.0,45.0,6.776
-13.0,51.0,6.777
3.0,56.0,6.778
2.0,63.0,6.779
-27.0,102.0,6.78
-59.0,154.0,6.781
-68.0,154.0,6.782
-57.0,69.0,6.783
-47.0,-47.0,6.784
-38.0,-113.0,6.785
-21.0,-127.0,6.786
-3.0,-151.0,6.787
2.0,-211.0,6.788
-3.0,-264.0,6.789
-6.0,-264.0,6.79
-8.0,-216.0,6.791
-18.0,-156.0,6.792
-24.0,-103.0,6.793
-9.0,-50.0,6.794
19.0,12.0,6.795
35.0,73.0,6.796
33.0,119.0,6.797
21.0,144.0,6.798
6.0,158.0,6.799
-15.0,158.0,6.8
-21.0,111.0,6.801
0.0,62.0,6.802
37.0,12.0,6.803
70.0,-22.0,6.804
90.0,-5.0,6.805
97.0,11.0,6.806
78.0,23.0,6.807
29.0,37.0,6.808
-12.0,58.0,6.809
-8.0,72.0,6.81
25.0,59.0,6.811
46.0,46.0,6.812
45.0,36.0,6.813
34.0,27.0,6.814
14.0,18.0,6.815
-14.0,9.0,6.816
-26.0,3.0,6.817
-19.0,-1.0,6.818
-12.0,2.0,6.819
-23.0,12.0,6.82
-27.0,27.0,6.821
-5.0,47.0,6.822
20.0,71.0,6.823
14.0,84.0,6.824
-7.0,60.0,6.825
-11.0,0.0,6.826
1.0,-62.0,6.827
6.0,-88.0,6.828
0.0,-80.0,6.829
-7.0,-67.0,6.83
-11.0,-62.0,6.831
-17.0,-61.0,6.832
-22.0,-59.0,6.833
-33.0,-58.0,6.834
-50.0,-55.0,6.835
-60.0,-40.0,6.836
-48.0,-14.0,6.837
-10.0,17.0,6.838
29.0,37.0,6.839
45.0,51.0,6.84
43.0,61.0,6.841
34.0,71.0,6.842
19.0,72.0,6.843
2.0,54.0,6.844
-12.0,14.0,6.845
-16.0,-40.0,6.846
-13.0,-87.0,6.847
-6.0,-109.0,6.848
4.0,-97.0,6.849
13.0,-64.0,6.85
11.0,-27.0,6.851
0.0,7.0,6.852
-11.0,40.0,6.853
-18.0,56.0,6.854
-17.0,45.0,6.855
-8.0,14.0,6.856
3.0,-9.0,6.857
10.0,-25.0,6.858
12.0,-42.0,6.859
16.0,-59.0,6.86
26.0,-61.0,6.861
35.0,-43.0,6.862
33.0,-26.0,6.863
26.0,-18.0,6.864
16.0,-4.0,6.865
2.0,20.0,6.866
-16.0,36.0,6.867
-31.0,40.0,6.868
-34.0,43.0,6.869
-19.0,55.0,6.87
5.0,70.0,6.871
22.0,84.0,6.872
20.0,95.0,6.873
8.0,91.0,6.874
9.0,62.0,6.875
19.0,23.0,6.876
19.0,2.0,6.877
-1.0,0.0,6.878
-20.0,4.0,6.879
-25.0,5.0,6.88
-26.0,-1.0,6.881
-39.0,-15.0,6.882
-59.0,-49.0,6.883
-67.0,-80.0,6.884
-55.0,-103.0,6.885
-24.0,-115.0,6.886
22.0,-91.0,6.887
76.0,-59.0,6.888
113.0,-5.0,6.889
121.0,29.0,6.89
111.0,5.0,6.891
95.0,-15.0,6.892
73.0,-23.0,6.893
39.0,-29.0,6.894
3.0,-29.0,6.895
-20.0,-24.0,6.896
-27.0,-2.0,6.897
-30.0,19.0,6.898
-28.0,23.0,6.899
-22.0,7.0,6.9
-19.0,6.0,6.901
-21.0,27.0,6.902
-22.0,43.0,6.903
-16.0,41.0,6.904
-9.0,37.0,6.905
-10.0,36.0,6.906
-18.0,27.0,6.907
-25.0,12.0,6.908
-34.0,5.0,6.909
-40.0,4.0,6.91
-34.0,-5.0,6.911
-15.0,-16.0,6.912
8.0,-16.0,6.913
28.0,-5.0,6.914
47.0,0.0,6.915
65.0,-4.0,6.916
69.0,-8.0,6.917
47.0,-11.0,6.918
10.0,-8.0,6.919
-21.0,5.0,6.92
-34.0,20.0,6.921
-26.0,35.0,6.922
-6.0,50.0,6.923
5.0,79.0,6.924
-8.0,124.0,6.925
-33.0,159.0,6.926
-49.0,157.0,6.927
-52.0,114.0,6.928
-53.0,43.0,6.929
-55.0,-41.0,6.93
-38.0,-121.0,6.931
2.0,-180.0,6.932
44.0,-204.0,6.933
73.0,-191.0,6.934
92.0,-151.0,6.935
110.0,-95.0,6.936
117.0,-39.0,6.937
97.0,0.0,6.938
58.0,29.0,6.939
11.0,61.0,6.94
-24.0,95.0,6.941
-34.0,108.0,6.942
-22.0,68.0,6.943
-12.0,-17.0,6.944
-18.0,-102.0,6.945
-31.0,-144.0,6.946
-27.0,-138.0,6.947
-12.0,-110.0,6.948
-2.0,-76.0,6.949
-1.0,-40.0,6.95
4.0,-2.0,6.951
3.0,26.0,6.952
-22.0,41.0,6.953
-53.0,50.0,6.954
-61.0,62.0,6.955
-49.0,71.0,6.956
-39.0,76.0,6.957
-30.0,86.0,6.958
1.0,114.0,6.959
41.0,135.0,6.96
50.0,135.0,6.961
21.0,117.0,6.962
-1.0,49.0,6.963
9.0,-8.0,6.964
25.0,-30.0,6.965
16.0,-46.0,6.966
-7.0,-37.0,6.967
-21.0,-27.0,6.968
-23.0,-14.0,6.969
-13.0,-3.0,6.97
15.0,0.0,6.971
55.0,5.0,6.972
74.0,15.0,6.973
64.0,23.0,6.974
46.0,17.0,6.975
37.0,3.0,6.976
30.0,-34.0,6.977
15.0,-79.0,6.978
-1.0,-144.0,6.979
-12.0,-184.0,6.98
-22.0,-180.0,6.981
-30.0,-138.0,6.982
-30.0,-85.0,6.983
-26.0,-37.0,6.984
-25.0,4.0,6.985
-23.0,41.0,6.986
-4.0,69.0,6.987
20.0,94.0,6.988
20.0,118.0,6.989
-2.0,129.0,6.99
-15.0,108.0,6.991
-8.0,65.0,6.992
2.0,37.0,6.993
-4.0,36.0,6.994
-19.0,46.0,6.995
-25.0,59.0,6.996
-21.0,77.0,6.997
-12.0,95.0,6.998
-1.0,71.0,6.999
5.0,13.0,7.0
6.0,-38.0,7.001
12.0,-51.0,7.002
36.0,-59.0,7.003
63.0,-92.0,7.004
64.0,-141.0,7.005
37.0,-170.0,7.006
15.0,-174.0,7.007
11.0,-161.0,7.008
8.0,-137.0,7.009
-5.0,-93.0,7.01
-15.0,-39.0,7.011
-12.0,6.0,7.012
-17.0,39.0,7.013
-42.0,61.0,7.014
-77.0,69.0,7.015
-97.0,66.0,7.016
-99.0,66.0,7.017
-96.0,73.0,7.018
-76.0,74.0,7.019
-21.0,60.0,7.02
74.0,41.0,7.021
171.0,35.0,7.022
217.0,34.0,7.023
193.0,30.0,7.024
121.0,25.0,7.025
51.0,18.0,7.026
18.0,4.0,7.027
10.0,-8.0,7.028
2.0,-4.0,7.029
-16.0,17.0,7.03
-32.0,41.0,7.031
-33.0,50.0,7.032
-33.0,46.0,7.033
-39.0,28.0,7.034
-44.0,0.0,7.035
-39.0,-26.0,7.036
-26.0,-33.0,7.037
-21.0,-29.0,7.038
-23.0,-27.0,7.039
-25.0,-26.0,7.04
-25.0,-30.0,7.041
-25.0,-33.0,7.042
-24.0,-31.0,7.043
-13.0,-30.0,7.044
5.0,-32.0,7.045
19.0,-30.0,7.046
21.0,-16.0,7.047
16.0,1.0,7.048
4.0,29.0,7.049
-7.0,50.0,7.05
-15.0,52.0,7.051
-10.0,50.0,7.052
0.0,31.0,7.053
8.0,19.0,7.054
6.0,29.0,7.055
0.0,30.0,7.056
-1.0,0.0,7.057
4.0,-34.0,7.058
11.0,-66.0,7.059
6.0,-85.0,7.06
-12.0,-97.0,7.061
-27.0,-92.0,7.062
-20.0,-65.0,7.063
0.0,-31.0,7.064
4.0,-10.0,7.065
-6.0,-1.0,7.066
-6.0,8.0,7.067
15.0,17.0,7.068
37.0,23.0,7.069
42.0,31.0,7.07
40.0,50.0,7.071
44.0,69.0,7.072
42.0,73.0,7.073
29.0,66.0,7.074
16.0,67.0,7.075
14.0,88.0,7.076
18.0,112.0,7.077
8.0,107.0,7.078
-14.0,64.0,7.079
-33.0,4.0,7.08
-41.0,-48.0,7.081
-36.0,-71.0,7.082
-18.0,-69.0,7.083
3.0,-52.0,7.084
11.0,-32.0,7.085
2.0,-18.0,7.086
1.0,-4.0,7.087
15.0,5.0,7.088
24.0,-3.0,7.089
13.0,-44.0,7.09
-4.0,-104.0,7.091
-5.0,-151.0,7.092
2.0,-176.0,7.093
2.0,-182.0,7.094
-3.0,-169.0,7.095
-4.0,-133.0,7.096
-4.0,-87.0,7.097
-7.0,-51.0,7.098
-13.0,-28.0,7.099
-22.0,-3.0,7.1
-38.0,26.0,7.101
-58.0,55.0,7.102
-55.0,80.0,7.103
-21.0,112.0,7.104
20.0,137.0,7.105
42.0,138.0,7.106
49.0,112.0,7.107
58.0,88.0,7.108
65.0,86.0,7.109
60.0,92.0,7.11
44.0,80.0,7.111
35.0,51.0,7.112
38.0,28.0,7.113
44.0,21.0,7.114
33.0,22.0,7.115
9.0,24.0,7.116
-9.0,29.0,7.117
-9.0,28.0,7.118
5.0,22.0,7.119
10.0,9.0,7.12
-11.0,-20.0,7.121
-45.0,-46.0,7.122
-62.0,-59.0,7.123
-47.0,-68.0,7.124
-19.0,-58.0,7.125
-4.0,-51.0,7.126
-3.0,-51.0,7.127
13.0,-46.0,7.128
49.0,-29.0,7.129
71.0,-14.0,7.13
51.0,-7.0,7.131
4.0,1.0,7.132
-32.0,14.0,7.133
-50.0,23.0,7.134
-58.0,20.0,7.135
-52.0,16.0,7.136
-28.0,7.0,7.137
-1.0,0.0,7.138
4.0,-2.0,7.139
-10.0,-1.0,7.14
-13.0,2.0,7.141
-3.0,17.0,7.142
3.0,46.0,7.143
0.0,77.0,7.144
-2.0,85.0,7.145
4.0,49.0,7.146
17.0,-15.0,7.147
29.0,-59.0,7.148
40.0,-54.0,7.149
40.0,-32.0,7.15
31.0,-25.0,7.151
21.0,-34.0,7.152
17.0,-41.0,7.153
8.0,-39.0,7.154
-4.0,-31.0,7.155
-10.0,-14.0,7.156
-8.0,11.0,7.157
-11.0,29.0,7.158
-19.0,27.0,7.159
-23.0,16.0,7.16
-19.0,9.0,7.161
-15.0,11.0,7.162
-14.0,12.0,7.163
-11.0,18.0,7.164
-8.0,34.0,7.165
-10.0,46.0,7.166
-7.0,40.0,7.167
6.0,20.0,7.168
21.0,5.0,7.169
22.0,-5.0,7.17
15.0,-25.0,7.171
13.0,-62.0,7.172
9.0,-109.0,7.173
-1.0,-149.0,7.174
-4.0,-166.0,7.175
6.0,-151.0,7.176
21.0,-105.0,7.177
23.0,-45.0,7.178
13.0,10.0,7.179
-12.0,52.0,7.18
-38.0,73.0,7.181
-44.0,81.0,7.182
-21.0,79.0,7.183
5.0,80.0,7.184
7.0,90.0,7.185
-3.0,101.0,7.186
17.0,102.0,7.187
65.0,98.0,7.188
94.0,99.0,7.189
75.0,97.0,7.19
39.0,77.0,7.191
21.0,39.0,7.192
15.0,-9.0,7.193
0.0,-69.0,7.194
-14.0,-140.0,7.195
-4.0,-197.0,7.196
16.0,-202.0,7.197
16.0,-157.0,7.198
-9.0,-96.0,7.199
-33.0,-57.0,7.2
-39.0,-37.0,7.201
-34.0,-10.0,7.202
-25.0,21.0,7.203
-12.0,34.0,7.204
2.0,30.0,7.205
5.0,30.0,7.206
2.0,43.0,7.207
11.0,56.0,7.208
31.0,58.0,7.209
45.0,51.0,7.21
43.0,45.0,7.211
31.0,41.0,7.212
19.0,39.0,7.213
-1.0,39.0,7.214
-28.0,35.0,7.215
-51.0,29.0,7.216
-52.0,26.0,7.217
-32.0,26.0,7.218
-8.0,28.0,7.219
-4.0,28.0,7.22
-17.0,22.0,7.221
-27.0,14.0,7.222
-20.0,6.0,7.223
-9.0,3.0,7.224
-10.0,12.0,7.225
-12.0,25.0,7.226
-1.0,27.0,7.227
13.0,16.0,7.228
5.0,-2.0,7.229
-18.0,-22.0,7.23
-29.0,-46.0,7.231
-21.0,-59.0,7.232
-9.0,-46.0,7.233
-5.0,-15.0,7.234
5.0,12.0,7.235
25.0,27.0,7.236
39.0,33.0,7.237
36.0,26.0,7.238
19.0,-12.0,7.239
8.0,-72.0,7.24
11.0,-110.0,7.241
24.0,-103.0,7.242
35.0,-77.0,7.243
38.0,-72.0,7.244
29.0,-81.0,7.245
10.0,-81.0,7.246
-15.0,-66.0,7.247
-35.0,-50.0,7.248
-44.0,-27.0,7.249
-36.0,8.0,7.25
-16.0,46.0,7.251
5.0,70.0,7.252
19.0,81.0,7.253
26.0,86.0,7.254
42.0,83.0,7.255
75.0,72.0,7.256
101.0,60.0,7.257
89.0,51.0,7.258
37.0,43.0,7.259
-14.0,31.0,7.26
-28.0,18.0,7.261
-19.0,9.0,7.262
-9.0,-4.0,7.263
0.0,-29.0,7.264
13.0,-53.0,7.265
13.0,-64.0,7.266
-9.0,-67.0,7.267
-30.0,-73.0,7.268
-29.0,-73.0,7.269
-22.0,-56.0,7.27
-30.0,-32.0,7.271
-43.0,-13.0,7.272
-37.0,2.0,7.273
-21.0,24.0,7.274
-20.0,44.0,7.275
-28.0,53.0,7.276
-21.0,54.0,7.277
6.0,49.0,7.278
36.0,42.0,7.279
47.0,30.0,7.28
39.0,18.0,7.281
22.0,20.0,7.282
9.0,31.0,7.283
12.0,39.0,7.284
25.0,38.0,7.285
26.0,30.0,7.286
9.0,15.0,7.287
-9.0,0.0,7.288
-13.0,-6.0,7.289
-8.0,-8.0,7.29
-6.0,-12.0,7.291
-5.0,-21.0,7.292
-6.0,-25.0,7.293
-16.0,-19.0,7.294
-26.0,-10.0,7.295
-23.0,-7.0,7.296
-3.0,-5.0,7.297
22.0,-6.0,7.298
38.0,-6.0,7.299
46.0,-9.0,7.3
42.0,-12.0,7.301
26.0,-9.0,7.302
2.0,-6.0,7.303
-20.0,-5.0,7.304
-37.0,-5.0,7.305
-43.0,-2.0,7.306
-35.0,1.0,7.307
-20.0,-1.0,7.308
-18.0,-2.0,7.309
-23.0,1.0,7.31
-12.0,3.0,7.311
19.0,1.0,7.312
43.0,-2.0,7.313
41.0,-3.0,7.314
25.0,0.0,7.315
3.0,3.0,7.316
-26.0,7.0,7.317
-56.0,8.0,7.318
-58.0,6.0,7.319
-24.0,4.0,7.32
13.0,5.0,7.321
29.0,7.0,7.322
36.0,5.0,7.323
56.0,1.0,7.324
75.0,-11.0,7.325
71.0,-21.0,7.326
58.0,-21.0,7.327
56.0,-21.0,7.328
54.0,-18.0,7.329
30.0,-12.0,7.33
-7.0,-1.0,7.331
-22.0,11.0,7.332
-12.0,23.0,7.333
-6.0,29.0,7.334
-22.0,13.0,7.335
-40.0,-4.0,7.336
-41.0,-26.0,7.337
-38.0,-45.0,7.338
-43.0,-48.0,7.339
-55.0,-37.0,7.34
-51.0,-13.0,7.341
-29.0,23.0,7.342
-4.0,51.0,7.343
1.0,56.0,7.344
-7.0,37.0,7.345
-12.0,11.0,7.346
3.0,-14.0,7.347
27.0,-42.0,7.348
38.0,-68.0,7.349
41.0,-78.0,7.35
56.0,-64.0,7.351
74.0,-36.0,7.352
71.0,-7.0,7.353
44.0,11.0,7.354
23.0,19.0,7.355
23.0,19.0,7.356
25.0,15.0,7.357
10.0,9.0,7.358
-11.0,6.0,7.359
-22.0,5.0,7.36
-32.0,-2.0,7.361
-50.0,-7.0,7.362
-61.0,-7.0,7.363
-51.0,-1.0,7.364
-27.0,7.0,7.365
-7.0,13.0,7.366
5.0,18.0,7.367
9.0,22.0,7.368
3.0,25.0,7.369
-10.0,27.0,7.37
-12.0,30.0,7.371
-3.0,31.0,7.372
2.0,27.0,7.373
-4.0,19.0,7.374
-8.0,16.0,7.375
0.0,20.0,7.376
9.0,28.0,7.377
4.0,27.0,7.378
0.0,22.0,7.379
11.0,16.0,7.38
28.0,14.0,7.381
26.0,18.0,7.382
9.0,21.0,7.383
-3.0,13.0,7.384
1.0,-7.0,7.385
3.0,-33.0,7.386
0.0,-43.0,7.387
1.0,-33.0,7.388
9.0,-18.0,7.389
10.0,-17.0,7.39
4.0,-26.0,7.391
2.0,-31.0,7.392
4.0,-31.0,7.393
0.0,-33.0,7.394
-9.0,-35.0,7.395
-12.0,-24.0,7.396
-6.0,-1.0,7.397
-4.0,17.0,7.398
-8.0,20.0,7.399
-12.0,14.0,7.4
-13.0,10.0,7.401
-8.0,14.0,7.402
2.0,20.0,7.403
12.0,20.0,7.404
17.0,15.0,7.405
23.0,8.0,7.406
41.0,-1.0,7.407
61.0,-7.0,7.408
58.0,-13.0,7.409
29.0,-18.0,7.41
1.0,-24.0,7.411
1.0,-31.0,7.412
16.0,-30.0,7.413
11.0,-22.0,7.414
-16.0,-11.0,7.415
-38.0,-3.0,7.416
-34.0,4.0,7.417
-23.0,10.0,7.418
-19.0,12.0,7.419
-24.0,11.0,7.42
-15.0,5.0,7.421
13.0,6.0,7.422
46.0,14.0,7.423
64.0,17.0,7.424
54.0,7.0,7.425
28.0,-3.0,7.426
10.0,-4.0,7.427
8.0,5.0,7.428
12.0,15.0,7.429
3.0,13.0,7.43
-10.0,2.0,7.431
-17.0,-9.0,7.432
-15.0,-10.0,7.433
-24.0,-4.0,7.434
-46.0,0.0,7.435
-57.0,-1.0,7.436
-39.0,-1.0,7.437
-6.0,0.0,7.438
14.0,4.0,7.439
9.0,3.0,7.44
4.0,-8.0,7.441
7.0,-16.0,7.442
11.0,-19.0,7.443
12.0,-13.0,7.444
16.0,-9.0,7.445
24.0,-9.0,7.446
29.0,-8.0,7.447
30.0,-7.0,7.448
26.0,-7.0,7.449
11.0,-10.0,7.45
-15.0,-8.0,7.451
-32.0,-3.0,7.452
-22.0,0.0,7.453
7.0,0.0,7.454
26.0,0.0,7.455
21.0,6.0,7.456
3.0,13.0,7.457
-18.0,12.0,7.458
-39.0,12.0,7.459
-52.0,11.0,7.46
-47.0,11.0,7.461
-24.0,11.0,7.462
-3.0,11.0,7.463
3.0,10.0,7.464
1.0,11.0,7.465
4.0,10.0,7.466
11.0,2.0,7.467
12.0,-4.0,7.468
7.0,-1.0,7.469
5.0,1.0,7.47
6.0,4.0,7.471
3.0,6.0,7.472
-9.0,3.0,7.473
-26.0,2.0,7.474
-41.0,6.0,7.475
-52.0,9.0,7.476
-51.0,6.0,7.477
-33.0,3.0,7.478
0.0,8.0,7.479
33.0,12.0,7.48
68.0,7.0,7.481
111.0,0.0,7.482
153.0,-3.0,7.483
155.0,-4.0,7.484
107.0,-7.0,7.485
45.0,-12.0,7.486
14.0,-20.0,7.487
13.0,-29.0,7.488
16.0,-35.0,7.489
10.0,-35.0,7.49
0.0,-26.0,7.491
-13.0,-18.0,7.492
-36.0,-12.0,7.493
-59.0,-8.0,7.494
-67.0,-2.0,7.495
-70.0,5.0,7.496
-78.0,10.0,7.497
-80.0,9.0,7.498
-58.0,3.0,7.499
-17.0,-2.0,7.5
21.0,-6.0,7.501
40.0,-3.0,7.502
48.0,7.0,7.503
46.0,20.0,7.504
29.0,31.0,7.505
11.0,32.0,7.506
7.0,25.0,7.507
13.0,16.0,7.508
10.0,22.0,7.509
4.0,37.0,7.51
6.0,43.0,7.511
16.0,30.0,7.512
21.0,5.0,7.513
19.0,-13.0,7.514
18.0,-26.0,7.515
10.0,-37.0,7.516
-8.0,-46.0,7.517
-29.0,-52.0,7.518
-33.0,-53.0,7.519
-30.0,-47.0,7.52
-33.0,-42.0,7.521
-34.0,-29.0,7.522
-17.0,-15.0,7.523
0.0,-1.0,7.524
-1.0,15.0,7.525
-18.0,30.0,7.526
-19.0,30.0,7.527
4.0,19.0,7.528
26.0,14.0,7.529
34.0,20.0,7.53
40.0,18.0,7.531
54.0,5.0,7.532
63.0,-5.0,7.533
53.0,0.0,7.534
29.0,8.0,7.535
-9.0,5.0,7.536
-52.0,1.0,7.537
-94.0,-2.0,7.538
-106.0,-3.0,7.539
-79.0,-4.0,7.54
-30.0,-6.0,7.541
14.0,-7.0,7.542
33.0,-2.0,7.543
18.0,2.0,7.544
-11.0,1.0,7.545
-20.0,0.0,7.546
-7.0,2.0,7.547
9.0,4.0,7.548
13.0,4.0,7.549
15.0,3.0,7.55
21.0,2.0,7.551
18.0,0.0,7.552
5.0,-3.0,7.553
-1.0,-6.0,7.554
-2.0,-6.0,7.555
-6.0,-7.0,7.556
-4.0,-7.0,7.557
20.0,-5.0,7.558
59.0,-2.0,7.559
79.0,2.0,7.56
79.0,4.0,7.561
78.0,4.0,7.562
82.0,0.0,7.563
62.0,-1.0,7.564
15.0,4.0,7.565
-27.0,8.0,7.566
-40.0,2.0,7.567
-35.0,-3.0,7.568
-31.0,0.0,7.569
-25.0,7.0,7.57
-12.0,2.0,7.571
6.0,-9.0,7.572
15.0,-10.0,7.573
16.0,-3.0,7.574
12.0,0.0,7.575
-10.0,-4.0,7.576
-43.0,-7.0,7.577
-70.0,-6.0,7.578
-68.0,-4.0,7.579
-46.0,-4.0,7.58
-25.0,-4.0,7.581
-6.0,1.0,7.582
23.0,6.0,7.583
54.0,9.0,7.584
67.0,16.0,7.585
60.0,27.0,7.586
48.0,29.0,7.587
36.0,16.0,7.588
