Deltoid,Bicep,Time
-1.0,-13.0,0.0
-14.0,-10.0,0.001
-10.0,-8.0,0.002
0.0,-9.0,0.003
0.0,-7.0,0.004
-13.0,0.0,0.005
-20.0,7.0,0.006
-13.0,7.0,0.007
-6.0,1.0,0.008
-5.0,3.0,0.009
-7.0,9.0,0.01
-5.0,13.0,0.011
0.0,12.0,0.012
3.0,9.0,0.013
4.0,8.0,0.014
2.0,5.0,0.015
0.0,3.0,0.016
2.0,3.0,0.017
5.0,0.0,0.018
6.0,-1.0,0.019
2.0,-1.0,0.02
1.0,0.0,0.021
5.0,3.0,0.022
9.0,0.0,0.023
4.0,-6.0,0.024
-7.0,-8.0,0.025
-17.0,-8.0,0.026
-21.0,-7.0,0.027
-22.0,-7.0,0.028
-20.0,-4.0,0.029
-14.0,1.0,0.03
-4.0,2.0,0.031
4.0,1.0,0.032
8.0,2.0,0.033
10.0,3.0,0.034
16.0,3.0,0.035
22.0,-1.0,0.036
21.0,-2.0,0.037
11.0,-6.0,0.038
3.0,-6.0,0.039
4.0,-3.0,0.04
5.0,-4.0,0.041
2.0,-6.0,0.042
1.0,-9.0,0.043
4.0,-7.0,0.044
4.0,1.0,0.045
1.0,6.0,0.046
1.0,6.0,0.047
6.0,4.0,0.048
7.0,7.0,0.049
2.0,12.0,0.05
2.0,12.0,0.051
6.0,6.0,0.052
9.0,0.0,0.053
5.0,-3.0,0.054
3.0,-2.0,0.055
2.0,0.0,0.056
-3.0,0.0,0.057
-15.0,-3.0,0.058
-21.0,-5.0,0.059
-18.0,-3.0,0.06
-12.0,-4.0,0.061
-4.0,-7.0,0.062
12.0,-9.0,0.063
29.0,-7.0,0.064
32.0,-3.0,0.065
14.0,-1.0,0.066
0.0,-3.0,0.067
7.0,-3.0,0.068
20.0,0.0,0.069
18.0,3.0,0.07
4.0,6.0,0.071
-2.0,8.0,0.072
6.0,10.0,0.073
11.0,11.0,0.074
1.0,10.0,0.075
-14.0,8.0,0.076
-15.0,5.0,0.077
-2.0,-1.0,0.078
13.0,-8.0,0.079
7.0,-11.0,0.08
-12.0,-14.0,0.081
-22.0,-13.0,0.082
-5.0,-13.0,0.083
20.0,-11.0,0.084
20.0,-6.0,0.085
-3.0,0.0,0.086
-19.0,5.0,0.087
-11.0,7.0,0.088
4.0,6.0,0.089
9.0,0.0,0.09
4.0,-4.0,0.091
3.0,-3.0,0.092
12.0,-1.0,0.093
18.0,-1.0,0.094
16.0,-4.0,0.095
7.0,-6.0,0.096
1.0,-4.0,0.097
0.0,-2.0,0.098
1.0,2.0,0.099
-7.0,0.0,0.1
-17.0,-8.0,0.101
-15.0,-11.0,0.102
0.0,-7.0,0.103
10.0,1.0,0.104
4.0,6.0,0.105
-2.0,7.0,0.106
0.0,8.0,0.107
8.0,9.0,0.108
8.0,7.0,0.109
2.0,4.0,0.11
0.0,7.0,0.111
-2.0,10.0,0.112
-6.0,10.0,0.113
-4.0,7.0,0.114
7.0,4.0,0.115
21.0,1.0,0.116
31.0,-2.0,0.117
33.0,-7.0,0.118
31.0,-8.0,0.119
21.0,-6.0,0.12
7.0,-11.0,0.121
-2.0,-12.0,0.122
0.0,-8.0,0.123
-1.0,-2.0,0.124
-8.0,1.0,0.125
-15.0,1.0,0.126
-12.0,3.0,0.127
-4.0,7.0,0.128
-1.0,6.0,0.129
-2.0,4.0,0.13
-2.0,4.0,0.131
0.0,4.0,0.132
0.0,2.0,0.133
1.0,0.0,0.134
4.0,0.0,0.135
6.0,-1.0,0.136
5.0,-5.0,0.137
1.0,-9.0,0.138
0.0,-8.0,0.139
-4.0,-6.0,0.14
-5.0,-9.0,0.141
-1.0,-10.0,0.142
5.0,-7.0,0.143
6.0,-5.0,0.144
-2.0,-3.0,0.145
-7.0,0.0,0.146
-8.0,6.0,0.147
-6.0,9.0,0.148
-5.0,7.0,0.149
-2.0,6.0,0.15
3.0,9.0,0.151
4.0,9.0,0.152
1.0,2.0,0.153
2.0,-4.0,0.154
8.0,-5.0,0.155
12.0,-4.0,0.156
13.0,-4.0,0.157
8.0,-4.0,0.158
2.0,-4.0,0.159
-3.0,-3.0,0.16
-7.0,-8.0,0.161
-8.0,-10.0,0.162
1.0,-7.0,0.163
12.0,1.0,0.164
24.0,8.0,0.165
30.0,10.0,0.166
17.0,9.0,0.167
2.0,8.0,0.168
-15.0,9.0,0.169
-27.0,13.0,0.17
-14.0,13.0,0.171
-3.0,6.0,0.172
1.0,-2.0,0.173
6.0,-5.0,0.174
10.0,-7.0,0.175
13.0,-11.0,0.176
11.0,-13.0,0.177
11.0,-14.0,0.178
12.0,-10.0,0.179
7.0,-9.0,0.18
-3.0,-13.0,0.181
-6.0,-13.0,0.182
0.0,-8.0,0.183
6.0,0.0,0.184
1.0,5.0,0.185
-7.0,8.0,0.186
-10.0,8.0,0.187
-10.0,5.0,0.188
-17.0,5.0,0.189
-21.0,9.0,0.19
-14.0,8.0,0.191
5.0,4.0,0.192
27.0,2.0,0.193
44.0,4.0,0.194
50.0,5.0,0.195
44.0,2.0,0.196
34.0,1.0,0.197
22.0,0.0,0.198
11.0,-3.0,0.199
-7.0,-7.0,0.2
-25.0,-10.0,0.201
-31.0,-9.0,0.202
-18.0,-7.0,0.203
-2.0,-5.0,0.204
-1.0,-3.0,0.205
-12.0,0.0,0.206
-18.0,3.0,0.207
-13.0,6.0,0.208
-4.0,10.0,0.209
-2.0,10.0,0.21
-2.0,5.0,0.211
-1.0,-2.0,0.212
0.0,-2.0,0.213
3.0,0.0,0.214
5.0,-2.0,0.215
7.0,-5.0,0.216
10.0,-5.0,0.217
8.0,-4.0,0.218
2.0,-4.0,0.219
-4.0,-7.0,0.22
-5.0,-11.0,0.221
-1.0,-9.0,0.222
4.0,-4.0,0.223
6.0,0.0,0.224
5.0,3.0,0.225
4.0,5.0,0.226
4.0,4.0,0.227
2.0,4.0,0.228
-1.0,4.0,0.229
-2.0,7.0,0.23
4.0,8.0,0.231
10.0,7.0,0.232
16.0,8.0,0.233
19.0,10.0,0.234
23.0,9.0,0.235
24.0,3.0,0.236
22.0,-2.0,0.237
15.0,-7.0,0.238
9.0,-9.0,0.239
3.0,-9.0,0.24
-6.0,-10.0,0.241
-14.0,-7.0,0.242
-18.0,-4.0,0.243
-20.0,-4.0,0.244
-18.0,-1.0,0.245
-15.0,4.0,0.246
-13.0,9.0,0.247
-11.0,9.0,0.248
-9.0,7.0,0.249
-6.0,6.0,0.25
-4.0,5.0,0.251
-1.0,1.0,0.252
2.0,1.0,0.253
6.0,5.0,0.254
11.0,5.0,0.255
14.0,-3.0,0.256
7.0,-11.0,0.257
-1.0,-16.0,0.258
-8.0,-15.0,0.259
-10.0,-15.0,0.26
-10.0,-17.0,0.261
-14.0,-14.0,0.262
-12.0,-9.0,0.263
6.0,-5.0,0.264
25.0,0.0,0.265
22.0,7.0,0.266
9.0,10.0,0.267
15.0,8.0,0.268
37.0,4.0,0.269
38.0,7.0,0.27
14.0,11.0,0.271
5.0,8.0,0.272
30.0,3.0,0.273
51.0,0.0,0.274
27.0,1.0,0.275
-22.0,0.0,0.276
-47.0,-3.0,0.277
-31.0,-6.0,0.278
-12.0,-5.0,0.279
-11.0,-4.0,0.28
-18.0,-5.0,0.281
-16.0,-4.0,0.282
0.0,1.0,0.283
19.0,6.0,0.284
22.0,7.0,0.285
10.0,4.0,0.286
-1.0,-1.0,0.287
0.0,-5.0,0.288
5.0,-6.0,0.289
0.0,-4.0,0.29
-3.0,0.0,0.291
1.0,4.0,0.292
10.0,8.0,0.293
7.0,9.0,0.294
2.0,6.0,0.295
5.0,1.0,0.296
12.0,0.0,0.297
11.0,-2.0,0.298
1.0,-6.0,0.299
-6.0,-8.0,0.3
-8.0,-9.0,0.301
-8.0,-9.0,0.302
-7.0,-10.0,0.303
-1.0,-7.0,0.304
-1.0,2.0,0.305
-6.0,11.0,0.306
-9.0,13.0,0.307
-4.0,9.0,0.308
1.0,6.0,0.309
3.0,7.0,0.31
6.0,7.0,0.311
15.0,2.0,0.312
22.0,-1.0,0.313
19.0,-4.0,0.314
10.0,-8.0,0.315
7.0,-10.0,0.316
10.0,-8.0,0.317
13.0,-6.0,0.318
7.0,-2.0,0.319
1.0,0.0,0.32
-4.0,-2.0,0.321
-8.0,-1.0,0.322
-2.0,0.0,0.323
2.0,1.0,0.324
0.0,2.0,0.325
-1.0,2.0,0.326
-3.0,-1.0,0.327
-5.0,-6.0,0.328
-2.0,-7.0,0.329
0.0,-2.0,0.33
-1.0,3.0,0.331
-2.0,2.0,0.332
2.0,-2.0,0.333
5.0,-3.0,0.334
7.0,0.0,0.335
9.0,1.0,0.336
7.0,0.0,0.337
4.0,-3.0,0.338
-1.0,-5.0,0.339
-8.0,-3.0,0.34
-10.0,-4.0,0.341
-6.0,-3.0,0.342
5.0,-1.0,0.343
13.0,1.0,0.344
12.0,5.0,0.345
5.0,7.0,0.346
2.0,6.0,0.347
4.0,5.0,0.348
8.0,5.0,0.349
6.0,5.0,0.35
-2.0,2.0,0.351
-6.0,-5.0,0.352
-5.0,-6.0,0.353
1.0,-2.0,0.354
5.0,0.0,0.355
6.0,-1.0,0.356
10.0,-4.0,0.357
11.0,-7.0,0.358
7.0,-7.0,0.359
-1.0,-7.0,0.36
-6.0,-8.0,0.361
-4.0,-5.0,0.362
4.0,-1.0,0.363
10.0,0.0,0.364
5.0,3.0,0.365
-4.0,5.0,0.366
-10.0,7.0,0.367
-5.0,8.0,0.368
0.0,8.0,0.369
3.0,10.0,0.37
4.0,7.0,0.371
8.0,1.0,0.372
10.0,-3.0,0.373
6.0,-3.0,0.374
2.0,-2.0,0.375
3.0,-5.0,0.376
7.0,-5.0,0.377
12.0,-1.0,0.378
12.0,3.0,0.379
10.0,3.0,0.38
4.0,-3.0,0.381
-3.0,-4.0,0.382
-6.0,-4.0,0.383
-1.0,-4.0,0.384
2.0,-6.0,0.385
-2.0,-4.0,0.386
-6.0,0.0,0.387
-2.0,4.0,0.388
3.0,4.0,0.389
0.0,1.0,0.39
-4.0,0.0,0.391
-1.0,4.0,0.392
5.0,9.0,0.393
6.0,10.0,0.394
3.0,7.0,0.395
7.0,2.0,0.396
16.0,-2.0,0.397
18.0,-13.0,0.398
15.0,-22.0,0.399
11.0,-22.0,0.4
4.0,-16.0,0.401
-2.0,-6.0,0.402
-2.0,-3.0,0.403
-3.0,0.0,0.404
-4.0,8.0,0.405
-5.0,12.0,0.406
-3.0,10.0,0.407
-2.0,7.0,0.408
-2.0,6.0,0.409
-5.0,7.0,0.41
-13.0,6.0,0.411
-19.0,2.0,0.412
-18.0,0.0,0.413
-12.0,-1.0,0.414
7.0,-2.0,0.415
24.0,-7.0,0.416
32.0,-10.0,0.417
38.0,-12.0,0.418
34.0,-9.0,0.419
27.0,-6.0,0.42
11.0,-4.0,0.421
-5.0,-5.0,0.422
-4.0,-6.0,0.423
7.0,-2.0,0.424
1.0,2.0,0.425
-20.0,5.0,0.426
-26.0,5.0,0.427
-6.0,6.0,0.428
16.0,9.0,0.429
15.0,10.0,0.43
12.0,5.0,0.431
21.0,2.0,0.432
26.0,1.0,0.433
6.0,2.0,0.434
-18.0,2.0,0.435
-19.0,1.0,0.436
-4.0,0.0,0.437
4.0,-3.0,0.438
4.0,-7.0,0.439
1.0,-5.0,0.44
-3.0,-3.0,0.441
-7.0,-2.0,0.442
-3.0,-5.0,0.443
7.0,-4.0,0.444
6.0,0.0,0.445
-9.0,3.0,0.446
-16.0,3.0,0.447
-4.0,2.0,0.448
8.0,4.0,0.449
6.0,6.0,0.45
0.0,3.0,0.451
5.0,-3.0,0.452
12.0,-6.0,0.453
11.0,-4.0,0.454
8.0,0.0,0.455
10.0,-2.0,0.456
10.0,-6.0,0.457
5.0,-10.0,0.458
-1.0,-10.0,0.459
-5.0,-9.0,0.46
-9.0,-9.0,0.461
-13.0,-3.0,0.462
-12.0,4.0,0.463
-5.0,6.0,0.464
0.0,6.0,0.465
-2.0,8.0,0.466
-5.0,8.0,0.467
-3.0,3.0,0.468
0.0,1.0,0.469
3.0,7.0,0.47
6.0,12.0,0.471
12.0,5.0,0.472
15.0,-4.0,0.473
16.0,-6.0,0.474
13.0,1.0,0.475
10.0,0.0,0.476
8.0,-7.0,0.477
6.0,-9.0,0.478
4.0,-3.0,0.479
1.0,0.0,0.48
-4.0,-7.0,0.481
-8.0,-9.0,0.482
-3.0,-4.0,0.483
1.0,3.0,0.484
2.0,8.0,0.485
3.0,11.0,0.486
2.0,12.0,0.487
1.0,10.0,0.488
3.0,6.0,0.489
5.0,5.0,0.49
5.0,3.0,0.491
5.0,-3.0,0.492
6.0,-9.0,0.493
8.0,-10.0,0.494
7.0,-8.0,0.495
6.0,-10.0,0.496
6.0,-13.0,0.497
3.0,-14.0,0.498
0.0,-9.0,0.499
-4.0,-5.0,0.5
-9.0,-4.0,0.501
-10.0,-5.0,0.502
-4.0,-3.0,0.503
4.0,-2.0,0.504
4.0,3.0,0.505
-2.0,9.0,0.506
-2.0,8.0,0.507
9.0,4.0,0.508
22.0,3.0,0.509
24.0,5.0,0.51
19.0,7.0,0.511
12.0,7.0,0.512
4.0,7.0,0.513
-5.0,6.0,0.514
-13.0,2.0,0.515
-12.0,-5.0,0.516
-9.0,-8.0,0.517
-9.0,-8.0,0.518
-11.0,-7.0,0.519
-10.0,-6.0,0.52
-4.0,-7.0,0.521
-1.0,-7.0,0.522
5.0,-6.0,0.523
13.0,-4.0,0.524
15.0,2.0,0.525
7.0,8.0,0.526
0.0,8.0,0.527
4.0,4.0,0.528
12.0,3.0,0.529
10.0,6.0,0.53
6.0,8.0,0.531
7.0,6.0,0.532
11.0,3.0,0.533
6.0,3.0,0.534
-1.0,0.0,0.535
-1.0,-1.0,0.536
6.0,-1.0,0.537
8.0,-3.0,0.538
8.0,-5.0,0.539
5.0,-10.0,0.54
4.0,-11.0,0.541
2.0,-7.0,0.542
0.0,-4.0,0.543
0.0,-4.0,0.544
-1.0,-2.0,0.545
-3.0,4.0,0.546
-5.0,8.0,0.547
-2.0,9.0,0.548
4.0,7.0,0.549
6.0,5.0,0.55
3.0,4.0,0.551
1.0,3.0,0.552
3.0,3.0,0.553
10.0,4.0,0.554
12.0,1.0,0.555
12.0,-2.0,0.556
9.0,-2.0,0.557
5.0,-3.0,0.558
2.0,-6.0,0.559
-2.0,-8.0,0.56
-10.0,-11.0,0.561
-16.0,-8.0,0.562
-12.0,-6.0,0.563
-9.0,-3.0,0.564
-10.0,3.0,0.565
-11.0,8.0,0.566
-9.0,8.0,0.567
-6.0,4.0,0.568
3.0,2.0,0.569
10.0,1.0,0.57
9.0,0.0,0.571
8.0,-2.0,0.572
8.0,-3.0,0.573
9.0,-3.0,0.574
9.0,-2.0,0.575
8.0,0.0,0.576
11.0,-1.0,0.577
14.0,-4.0,0.578
13.0,-7.0,0.579
7.0,-5.0,0.58
-2.0,-5.0,0.581
-6.0,-4.0,0.582
-3.0,-1.0,0.583
4.0,0.0,0.584
6.0,4.0,0.585
2.0,7.0,0.586
-2.0,7.0,0.587
-1.0,5.0,0.588
0.0,4.0,0.589
0.0,3.0,0.59
-1.0,2.0,0.591
2.0,-1.0,0.592
7.0,-2.0,0.593
7.0,-1.0,0.594
7.0,1.0,0.595
7.0,0.0,0.596
8.0,-1.0,0.597
7.0,-2.0,0.598
6.0,-3.0,0.599
4.0,-5.0,0.6
0.0,-9.0,0.601
-4.0,-11.0,0.602
-4.0,-6.0,0.603
2.0,-1.0,0.604
5.0,3.0,0.605
0.0,6.0,0.606
-8.0,4.0,0.607
-11.0,1.0,0.608
-10.0,0.0,0.609
-7.0,-1.0,0.61
1.0,1.0,0.611
12.0,3.0,0.612
17.0,1.0,0.613
14.0,-1.0,0.614
15.0,0.0,0.615
19.0,1.0,0.616
21.0,0.0,0.617
13.0,-2.0,0.618
3.0,0.0,0.619
-5.0,-2.0,0.62
-9.0,-8.0,0.621
-12.0,-7.0,0.622
-11.0,-3.0,0.623
-10.0,0.0,0.624
-10.0,2.0,0.625
-8.0,4.0,0.626
-2.0,6.0,0.627
4.0,6.0,0.628
8.0,8.0,0.629
13.0,10.0,0.63
22.0,7.0,0.631
29.0,-2.0,0.632
25.0,-9.0,0.633
20.0,-8.0,0.634
18.0,-5.0,0.635
15.0,-4.0,0.636
6.0,-4.0,0.637
-2.0,-3.0,0.638
-3.0,-1.0,0.639
0.0,-1.0,0.64
-3.0,-6.0,0.641
-12.0,-5.0,0.642
-11.0,-5.0,0.643
-3.0,-2.0,0.644
-7.0,3.0,0.645
-24.0,9.0,0.646
-39.0,8.0,0.647
-38.0,3.0,0.648
-26.0,0.0,0.649
-9.0,1.0,0.65
12.0,1.0,0.651
29.0,-1.0,0.652
35.0,0.0,0.653
36.0,2.0,0.654
33.0,-1.0,0.655
27.0,-6.0,0.656
14.0,-6.0,0.657
0.0,-5.0,0.658
1.0,-6.0,0.659
12.0,-9.0,0.66
17.0,-11.0,0.661
12.0,-8.0,0.662
1.0,-3.0,0.663
-3.0,0.0,0.664
-8.0,4.0,0.665
-16.0,11.0,0.666
-22.0,11.0,0.667
-22.0,5.0,0.668
-18.0,2.0,0.669
-11.0,4.0,0.67
-3.0,7.0,0.671
6.0,4.0,0.672
15.0,0.0,0.673
19.0,1.0,0.674
19.0,3.0,0.675
14.0,1.0,0.676
8.0,-2.0,0.677
0.0,-4.0,0.678
-3.0,-3.0,0.679
-5.0,-3.0,0.68
-9.0,-9.0,0.681
-11.0,-10.0,0.682
-4.0,-7.0,0.683
4.0,0.0,0.684
4.0,5.0,0.685
-2.0,7.0,0.686
-2.0,4.0,0.687
3.0,1.0,0.688
7.0,0.0,0.689
4.0,2.0,0.69
6.0,4.0,0.691
13.0,2.0,0.692
16.0,0.0,0.693
13.0,0.0,0.694
10.0,-2.0,0.695
13.0,-6.0,0.696
16.0,-5.0,0.697
11.0,-4.0,0.698
3.0,-2.0,0.699
-3.0,-5.0,0.7
-6.0,-9.0,0.701
-7.0,-6.0,0.702
-1.0,0.0,0.703
3.0,3.0,0.704
3.0,4.0,0.705
3.0,5.0,0.706
4.0,6.0,0.707
6.0,4.0,0.708
6.0,0.0,0.709
5.0,-1.0,0.71
3.0,-1.0,0.711
2.0,-2.0,0.712
6.0,-2.0,0.713
8.0,0.0,0.714
6.0,2.0,0.715
4.0,-1.0,0.716
2.0,-6.0,0.717
0.0,-6.0,0.718
-4.0,-3.0,0.719
-9.0,-1.0,0.72
-12.0,-5.0,0.721
-13.0,-7.0,0.722
-7.0,-4.0,0.723
-3.0,0.0,0.724
-3.0,5.0,0.725
-5.0,6.0,0.726
-2.0,5.0,0.727
4.0,5.0,0.728
5.0,8.0,0.729
0.0,10.0,0.73
1.0,6.0,0.731
7.0,0.0,0.732
10.0,-5.0,0.733
8.0,-6.0,0.734
9.0,-7.0,0.735
13.0,-7.0,0.736
16.0,-6.0,0.737
11.0,-5.0,0.738
1.0,-5.0,0.739
-6.0,-6.0,0.74
-7.0,-7.0,0.741
-4.0,-4.0,0.742
3.0,0.0,0.743
9.0,3.0,0.744
7.0,6.0,0.745
-1.0,9.0,0.746
-3.0,8.0,0.747
-1.0,7.0,0.748
0.0,6.0,0.749
-3.0,7.0,0.75
0.0,6.0,0.751
9.0,4.0,0.752
16.0,2.0,0.753
12.0,5.0,0.754
4.0,5.0,0.755
-1.0,0.0,0.756
-2.0,-4.0,0.757
-1.0,-6.0,0.758
2.0,-5.0,0.759
3.0,-8.0,0.76
1.0,-13.0,0.761
-4.0,-14.0,0.762
-1.0,-10.0,0.763
6.0,-5.0,0.764
6.0,1.0,0.765
-1.0,4.0,0.766
-4.0,2.0,0.767
1.0,-1.0,0.768
5.0,0.0,0.769
0.0,3.0,0.77
-3.0,0.0,0.771
-1.0,-3.0,0.772
3.0,-2.0,0.773
3.0,3.0,0.774
2.0,4.0,0.775
4.0,-3.0,0.776
11.0,-6.0,0.777
18.0,-6.0,0.778
22.0,-5.0,0.779
17.0,-7.0,0.78
5.0,-12.0,0.781
-2.0,-9.0,0.782
0.0,-2.0,0.783
4.0,3.0,0.784
-1.0,8.0,0.785
-9.0,11.0,0.786
-9.0,12.0,0.787
-6.0,8.0,0.788
-6.0,4.0,0.789
-7.0,5.0,0.79
-3.0,5.0,0.791
0.0,2.0,0.792
-1.0,-2.0,0.793
-2.0,0.0,0.794
5.0,1.0,0.795
12.0,-4.0,0.796
14.0,-6.0,0.797
7.0,-5.0,0.798
2.0,-2.0,0.799
-3.0,-5.0,0.8
-7.0,-12.0,0.801
-6.0,-11.0,0.802
-2.0,-3.0,0.803
4.0,2.0,0.804
3.0,1.0,0.805
2.0,4.0,0.806
5.0,8.0,0.807
6.0,8.0,0.808
1.0,4.0,0.809
-1.0,3.0,0.81
4.0,3.0,0.811
10.0,2.0,0.812
11.0,0.0,0.813
12.0,-1.0,0.814
16.0,-1.0,0.815
18.0,-4.0,0.816
17.0,-7.0,0.817
8.0,-6.0,0.818
-1.0,-6.0,0.819
-9.0,-8.0,0.82
-12.0,-10.0,0.821
-15.0,-5.0,0.822
-15.0,0.0,0.823
-14.0,0.0,0.824
-10.0,1.0,0.825
-4.0,10.0,0.826
1.0,15.0,0.827
6.0,12.0,0.828
7.0,7.0,0.829
9.0,7.0,0.83
10.0,7.0,0.831
12.0,2.0,0.832
13.0,-2.0,0.833
14.0,-3.0,0.834
12.0,-4.0,0.835
11.0,-9.0,0.836
10.0,-11.0,0.837
8.0,-11.0,0.838
2.0,-8.0,0.839
-6.0,-7.0,0.84
-10.0,-8.0,0.841
-8.0,-5.0,0.842
-5.0,-2.0,0.843
-3.0,0.0,0.844
-8.0,2.0,0.845
-10.0,4.0,0.846
-4.0,4.0,0.847
7.0,2.0,0.848
15.0,1.0,0.849
12.0,2.0,0.85
8.0,0.0,0.851
8.0,0.0,0.852
11.0,1.0,0.853
11.0,4.0,0.854
7.0,0.0,0.855
5.0,-7.0,0.856
7.0,-8.0,0.857
5.0,-8.0,0.858
3.0,-5.0,0.859
2.0,-4.0,0.86
1.0,-6.0,0.861
-6.0,-3.0,0.862
-12.0,1.0,0.863
-9.0,5.0,0.864
-2.0,9.0,0.865
0.0,11.0,0.866
-6.0,9.0,0.867
-5.0,8.0,0.868
4.0,8.0,0.869
12.0,7.0,0.87
11.0,5.0,0.871
8.0,0.0,0.872
6.0,-1.0,0.873
7.0,-1.0,0.874
5.0,-1.0,0.875
4.0,-3.0,0.876
5.0,-1.0,0.877
2.0,-1.0,0.878
-2.0,0.0,0.879
-6.0,2.0,0.88
-8.0,2.0,0.881
-9.0,2.0,0.882
-6.0,4.0,0.883
0.0,7.0,0.884
4.0,5.0,0.885
1.0,3.0,0.886
-2.0,-2.0,0.887
1.0,-7.0,0.888
9.0,-6.0,0.889
11.0,-5.0,0.89
6.0,-4.0,0.891
7.0,-3.0,0.892
13.0,-3.0,0.893
12.0,-3.0,0.894
6.0,-4.0,0.895
1.0,-6.0,0.896
3.0,-8.0,0.897
2.0,-10.0,0.898
-5.0,-9.0,0.899
-11.0,-8.0,0.9
-10.0,-9.0,0.901
-7.0,-10.0,0.902
0.0,-10.0,0.903
5.0,-7.0,0.904
8.0,1.0,0.905
8.0,12.0,0.906
-1.0,17.0,0.907
-9.0,14.0,0.908
-10.0,10.0,0.909
-7.0,8.0,0.91
14.0,7.0,0.911
30.0,3.0,0.912
28.0,-1.0,0.913
26.0,-1.0,0.914
22.0,0.0,0.915
19.0,-1.0,0.916
18.0,-5.0,0.917
14.0,-10.0,0.918
0.0,-10.0,0.919
-9.0,-7.0,0.92
-13.0,-6.0,0.921
-14.0,-5.0,0.922
-7.0,-4.0,0.923
3.0,0.0,0.924
3.0,5.0,0.925
-7.0,9.0,0.926
-15.0,8.0,0.927
-8.0,5.0,0.928
1.0,2.0,0.929
-1.0,3.0,0.93
-7.0,6.0,0.931
-4.0,4.0,0.932
5.0,0.0,0.933
9.0,0.0,0.934
8.0,0.0,0.935
9.0,0.0,0.936
12.0,0.0,0.937
8.0,-4.0,0.938
4.0,-6.0,0.939
-3.0,-7.0,0.94
-9.0,-11.0,0.941
-14.0,-8.0,0.942
-12.0,-3.0,0.943
-3.0,2.0,0.944
1.0,5.0,0.945
-2.0,7.0,0.946
-4.0,5.0,0.947
-1.0,3.0,0.948
1.0,1.0,0.949
-3.0,2.0,0.95
-6.0,3.0,0.951
-2.0,0.0,0.952
9.0,0.0,0.953
20.0,4.0,0.954
28.0,7.0,0.955
35.0,3.0,0.956
35.0,-2.0,0.957
29.0,-7.0,0.958
19.0,-6.0,0.959
6.0,-3.0,0.96
-7.0,-5.0,0.961
-11.0,-3.0,0.962
-5.0,-1.0,0.963
0.0,-2.0,0.964
-5.0,-2.0,0.965
-12.0,0.0,0.966
-10.0,4.0,0.967
-4.0,4.0,0.968
-2.0,0.0,0.969
-4.0,-3.0,0.97
-2.0,-4.0,0.971
4.0,-5.0,0.972
6.0,-2.0,0.973
3.0,-2.0,0.974
3.0,-4.0,0.975
6.0,-7.0,0.976
8.0,-7.0,0.977
2.0,-4.0,0.978
-3.0,-1.0,0.979
-6.0,-2.0,0.98
-8.0,-5.0,0.981
-8.0,-3.0,0.982
-5.0,1.0,0.983
0.0,4.0,0.984
0.0,5.0,0.985
-1.0,4.0,0.986
1.0,2.0,0.987
9.0,1.0,0.988
11.0,3.0,0.989
6.0,5.0,0.99
2.0,4.0,0.991
4.0,4.0,0.992
10.0,5.0,0.993
13.0,7.0,0.994
11.0,2.0,0.995
6.0,-5.0,0.996
1.0,-9.0,0.997
-3.0,-12.0,0.998
-6.0,-13.0,0.999
-9.0,-13.0,1.0
-12.0,-11.0,1.001
-12.0,-2.0,1.002
-6.0,3.0,1.003
-2.0,4.0,1.004
-4.0,6.0,1.005
-10.0,9.0,1.006
-12.0,11.0,1.007
-4.0,10.0,1.008
5.0,9.0,1.009
12.0,7.0,1.01
14.0,2.0,1.011
14.0,-4.0,1.012
14.0,-8.0,1.013
17.0,-6.0,1.014
23.0,-6.0,1.015
24.0,-5.0,1.016
17.0,0.0,1.017
1.0,0.0,1.018
-9.0,-3.0,1.019
-11.0,-10.0,1.02
-9.0,-13.0,1.021
-7.0,-6.0,1.022
-4.0,-1.0,1.023
-5.0,0.0,1.024
-12.0,3.0,1.025
-18.0,8.0,1.026
-11.0,8.0,1.027
5.0,1.0,1.028
20.0,-2.0,1.029
28.0,2.0,1.03
33.0,6.0,1.031
32.0,3.0,1.032
21.0,-1.0,1.033
3.0,-1.0,1.034
-1.0,-1.0,1.035
13.0,-2.0,1.036
21.0,-4.0,1.037
12.0,-3.0,1.038
-6.0,-4.0,1.039
-17.0,-6.0,1.04
-20.0,-7.0,1.041
-23.0,-2.0,1.042
-27.0,1.0,1.043
-26.0,0.0,1.044
-21.0,0.0,1.045
-12.0,4.0,1.046
3.0,6.0,1.047
22.0,3.0,1.048
35.0,0.0,1.049
37.0,1.0,1.05
34.0,4.0,1.051
27.0,5.0,1.052
14.0,6.0,1.053
-1.0,5.0,1.054
-3.0,-1.0,1.055
5.0,-7.0,1.056
9.0,-6.0,1.057
-1.0,-2.0,1.058
-10.0,-1.0,1.059
-14.0,-6.0,1.06
-15.0,-9.0,1.061
-13.0,-5.0,1.062
-8.0,-2.0,1.063
0.0,-2.0,1.064
0.0,0.0,1.065
-5.0,7.0,1.066
-7.0,10.0,1.067
-2.0,6.0,1.068
1.0,3.0,1.069
0.0,3.0,1.07
0.0,0.0,1.071
5.0,-6.0,1.072
7.0,-8.0,1.073
6.0,-2.0,1.074
8.0,1.0,1.075
10.0,-2.0,1.076
6.0,-2.0,1.077
0.0,1.0,1.078
0.0,5.0,1.079
2.0,1.0,1.08
0.0,-7.0,1.081
3.0,-7.0,1.082
16.0,-2.0,1.083
31.0,0.0,1.084
24.0,0.0,1.085
0.0,2.0,1.086
-16.0,1.0,1.087
-10.0,-4.0,1.088
-2.0,-7.0,1.089
-5.0,-1.0,1.09
-12.0,2.0,1.091
-7.0,1.0,1.092
4.0,-2.0,1.093
11.0,0.0,1.094
9.0,2.0,1.095
2.0,-1.0,1.096
-2.0,-2.0,1.097
-4.0,-3.0,1.098
-4.0,-2.0,1.099
-3.0,-2.0,1.1
-2.0,-5.0,1.101
0.0,-4.0,1.102
9.0,-1.0,1.103
19.0,1.0,1.104
16.0,5.0,1.105
2.0,10.0,1.106
-10.0,7.0,1.107
-9.0,-2.0,1.108
-1.0,-5.0,1.109
3.0,0.0,1.11
4.0,4.0,1.111
4.0,0.0,1.112
5.0,-4.0,1.113
5.0,-5.0,1.114
5.0,-4.0,1.115
7.0,-9.0,1.116
11.0,-9.0,1.117
11.0,-5.0,1.118
8.0,-1.0,1.119
0.0,-2.0,1.12
-6.0,-7.0,1.121
-11.0,-5.0,1.122
-11.0,3.0,1.123
-7.0,8.0,1.124
-6.0,9.0,1.125
-1.0,9.0,1.126
11.0,8.0,1.127
17.0,2.0,1.128
14.0,-2.0,1.129
4.0,-1.0,1.13
0.0,4.0,1.131
3.0,4.0,1.132
4.0,-1.0,1.133
3.0,-6.0,1.134
0.0,-6.0,1.135
-1.0,-4.0,1.136
2.0,-2.0,1.137
1.0,-3.0,1.138
0.0,-3.0,1.139
-5.0,-3.0,1.14
-12.0,-6.0,1.141
-15.0,-7.0,1.142
-13.0,-4.0,1.143
-12.0,2.0,1.144
-16.0,7.0,1.145
-19.0,7.0,1.146
-12.0,5.0,1.147
1.0,6.0,1.148
17.0,11.0,1.149
35.0,12.0,1.15
50.0,6.0,1.151
47.0,-2.0,1.152
28.0,-3.0,1.153
12.0,0.0,1.154
9.0,-1.0,1.155
12.0,-4.0,1.156
8.0,-4.0,1.157
1.0,-4.0,1.158
3.0,-5.0,1.159
5.0,-12.0,1.16
0.0,-17.0,1.161
-9.0,-11.0,1.162
-6.0,-2.0,1.163
4.0,2.0,1.164
6.0,4.0,1.165
-3.0,9.0,1.166
-11.0,11.0,1.167
-8.0,8.0,1.168
0.0,2.0,1.169
5.0,1.0,1.17
10.0,2.0,1.171
16.0,0.0,1.172
21.0,-5.0,1.173
17.0,-6.0,1.174
8.0,-4.0,1.175
-1.0,-2.0,1.176
-7.0,-2.0,1.177
-13.0,-2.0,1.178
-13.0,-2.0,1.179
-13.0,-2.0,1.18
-13.0,-6.0,1.181
-14.0,-5.0,1.182
-12.0,0.0,1.183
-8.0,3.0,1.184
-4.0,3.0,1.185
-3.0,2.0,1.186
-3.0,3.0,1.187
1.0,4.0,1.188
12.0,3.0,1.189
22.0,6.0,1.19
24.0,8.0,1.191
18.0,4.0,1.192
10.0,-2.0,1.193
7.0,-5.0,1.194
10.0,-3.0,1.195
11.0,-3.0,1.196
9.0,-6.0,1.197
3.0,-9.0,1.198
1.0,-7.0,1.199
-4.0,-2.0,1.2
-14.0,-2.0,1.201
-25.0,-4.0,1.202
-31.0,-3.0,1.203
-28.0,0.0,1.204
-22.0,7.0,1.205
-18.0,11.0,1.206
-9.0,8.0,1.207
2.0,-1.0,1.208
15.0,-4.0,1.209
24.0,2.0,1.21
33.0,4.0,1.211
42.0,-3.0,1.212
46.0,-9.0,1.213
40.0,-7.0,1.214
29.0,-1.0,1.215
17.0,1.0,1.216
8.0,3.0,1.217
1.0,5.0,1.218
-3.0,4.0,1.219
-12.0,0.0,1.22
-26.0,-5.0,1.221
-31.0,-5.0,1.222
-17.0,-6.0,1.223
0.0,-9.0,1.224
1.0,-7.0,1.225
-9.0,1.0,1.226
-7.0,4.0,1.227
10.0,0.0,1.228
21.0,-4.0,1.229
13.0,-2.0,1.23
4.0,1.0,1.231
6.0,0.0,1.232
13.0,-2.0,1.233
11.0,-1.0,1.234
3.0,-3.0,1.235
0.0,-6.0,1.236
0.0,-5.0,1.237
-2.0,-3.0,1.238
-9.0,-2.0,1.239
-13.0,-4.0,1.24
-11.0,-8.0,1.241
-3.0,-8.0,1.242
9.0,-6.0,1.243
15.0,0.0,1.244
4.0,9.0,1.245
-14.0,15.0,1.246
-19.0,12.0,1.247
-5.0,4.0,1.248
9.0,2.0,1.249
12.0,6.0,1.25
5.0,6.0,1.251
5.0,1.0,1.252
11.0,0.0,1.253
16.0,2.0,1.254
15.0,0.0,1.255
8.0,-8.0,1.256
5.0,-12.0,1.257
4.0,-12.0,1.258
5.0,-11.0,1.259
-2.0,-10.0,1.26
-13.0,-9.0,1.261
-20.0,-5.0,1.262
-16.0,0.0,1.263
-8.0,3.0,1.264
-3.0,10.0,1.265
-1.0,14.0,1.266
1.0,12.0,1.267
2.0,5.0,1.268
1.0,3.0,1.269
4.0,6.0,1.27
14.0,9.0,1.271
20.0,9.0,1.272
17.0,8.0,1.273
6.0,3.0,1.274
2.0,-3.0,1.275
5.0,-7.0,1.276
6.0,-7.0,1.277
-1.0,-8.0,1.278
-7.0,-7.0,1.279
-9.0,-4.0,1.28
-9.0,-3.0,1.281
-11.0,-3.0,1.282
-8.0,-3.0,1.283
0.0,-1.0,1.284
8.0,0.0,1.285
7.0,-2.0,1.286
4.0,-4.0,1.287
6.0,-3.0,1.288
8.0,0.0,1.289
6.0,0.0,1.29
0.0,3.0,1.291
-8.0,9.0,1.292
-19.0,11.0,1.293
-22.0,7.0,1.294
-12.0,0.0,1.295
10.0,0.0,1.296
32.0,1.0,1.297
45.0,-3.0,1.298
52.0,-8.0,1.299
50.0,-12.0,1.3
36.0,-12.0,1.301
11.0,-10.0,1.302
-5.0,-6.0,1.303
-7.0,-1.0,1.304
-9.0,1.0,1.305
-18.0,4.0,1.306
-21.0,3.0,1.307
-9.0,2.0,1.308
5.0,4.0,1.309
3.0,7.0,1.31
-2.0,5.0,1.311
1.0,4.0,1.312
9.0,3.0,1.313
7.0,1.0,1.314
1.0,0.0,1.315
6.0,-2.0,1.316
12.0,-3.0,1.317
7.0,-4.0,1.318
4.0,-5.0,1.319
0.0,-8.0,1.32
-1.0,-15.0,1.321
-8.0,-14.0,1.322
-28.0,-6.0,1.323
-37.0,3.0,1.324
-14.0,10.0,1.325
3.0,12.0,1.326
0.0,11.0,1.327
-2.0,8.0,1.328
1.0,4.0,1.329
4.0,4.0,1.33
8.0,6.0,1.331
12.0,6.0,1.332
16.0,4.0,1.333
20.0,5.0,1.334
18.0,6.0,1.335
17.0,2.0,1.336
17.0,-4.0,1.337
18.0,-10.0,1.338
9.0,-11.0,1.339
-5.0,-7.0,1.34
-17.0,-7.0,1.341
-22.0,-4.0,1.342
-19.0,0.0,1.343
-10.0,0.0,1.344
-6.0,2.0,1.345
-9.0,6.0,1.346
-10.0,10.0,1.347
-3.0,5.0,1.348
8.0,-3.0,1.349
13.0,-5.0,1.35
14.0,-4.0,1.351
16.0,-7.0,1.352
16.0,-10.0,1.353
10.0,-8.0,1.354
6.0,-2.0,1.355
5.0,0.0,1.356
2.0,-2.0,1.357
-6.0,-5.0,1.358
-12.0,-6.0,1.359
-10.0,-7.0,1.36
-8.0,-9.0,1.361
-9.0,-7.0,1.362
-1.0,0.0,1.363
17.0,5.0,1.364
22.0,10.0,1.365
5.0,13.0,1.366
-16.0,12.0,1.367
-18.0,7.0,1.368
-4.0,2.0,1.369
5.0,3.0,1.37
10.0,4.0,1.371
20.0,1.0,1.372
31.0,0.0,1.373
28.0,0.0,1.374
13.0,-4.0,1.375
1.0,-8.0,1.376
3.0,-9.0,1.377
7.0,-6.0,1.378
5.0,-4.0,1.379
-2.0,-6.0,1.38
-11.0,-10.0,1.381
-13.0,-8.0,1.382
-7.0,-5.0,1.383
4.0,-3.0,1.384
8.0,0.0,1.385
1.0,5.0,1.386
-5.0,8.0,1.387
-4.0,6.0,1.388
-2.0,4.0,1.389
-2.0,4.0,1.39
-3.0,4.0,1.391
-2.0,1.0,1.392
-3.0,0.0,1.393
-11.0,1.0,1.394
-17.0,0.0,1.395
-8.0,-3.0,1.396
9.0,-2.0,1.397
21.0,-4.0,1.398
22.0,-3.0,1.399
15.0,-3.0,1.4
11.0,-4.0,1.401
13.0,-3.0,1.402
18.0,-2.0,1.403
17.0,2.0,1.404
8.0,9.0,1.405
-1.0,11.0,1.406
-1.0,12.0,1.407
4.0,12.0,1.408
7.0,10.0,1.409
5.0,6.0,1.41
4.0,-2.0,1.411
6.0,-7.0,1.412
7.0,-8.0,1.413
8.0,-9.0,1.414
10.0,-13.0,1.415
7.0,-17.0,1.416
2.0,-13.0,1.417
-3.0,-10.0,1.418
-8.0,-7.0,1.419
-16.0,-5.0,1.42
-21.0,-4.0,1.421
-18.0,-1.0,1.422
-5.0,1.0,1.423
4.0,2.0,1.424
4.0,3.0,1.425
-1.0,5.0,1.426
-3.0,6.0,1.427
-3.0,8.0,1.428
-4.0,10.0,1.429
-4.0,10.0,1.43
1.0,4.0,1.431
9.0,-2.0,1.432
9.0,-3.0,1.433
5.0,-2.0,1.434
7.0,-4.0,1.435
8.0,-6.0,1.436
6.0,-5.0,1.437
3.0,0.0,1.438
6.0,2.0,1.439
7.0,0.0,1.44
-4.0,-4.0,1.441
-14.0,-3.0,1.442
-8.0,-2.0,1.443
7.0,-3.0,1.444
9.0,-1.0,1.445
0.0,5.0,1.446
0.0,10.0,1.447
13.0,7.0,1.448
18.0,0.0,1.449
9.0,-6.0,1.45
2.0,-8.0,1.451
6.0,-6.0,1.452
11.0,-3.0,1.453
10.0,-2.0,1.454
8.0,-7.0,1.455
10.0,-11.0,1.456
9.0,-8.0,1.457
0.0,0.0,1.458
-7.0,2.0,1.459
-12.0,-4.0,1.46
-15.0,-10.0,1.461
-13.0,-6.0,1.462
-3.0,2.0,1.463
11.0,6.0,1.464
17.0,6.0,1.465
11.0,8.0,1.466
5.0,11.0,1.467
6.0,8.0,1.468
9.0,5.0,1.469
5.0,5.0,1.47
-2.0,7.0,1.471
0.0,5.0,1.472
11.0,0.0,1.473
20.0,-4.0,1.474
16.0,-4.0,1.475
2.0,-6.0,1.476
-6.0,-3.0,1.477
-9.0,-3.0,1.478
-6.0,-1.0,1.479
-9.0,-5.0,1.48
-15.0,-12.0,1.481
-17.0,-11.0,1.482
-9.0,-4.0,1.483
0.0,2.0,1.484
3.0,5.0,1.485
2.0,4.0,1.486
1.0,3.0,1.487
3.0,2.0,1.488
4.0,7.0,1.489
4.0,13.0,1.49
6.0,12.0,1.491
10.0,5.0,1.492
11.0,-1.0,1.493
8.0,2.0,1.494
5.0,3.0,1.495
5.0,-7.0,1.496
7.0,-18.0,1.497
6.0,-22.0,1.498
0.0,-16.0,1.499
-8.0,-13.0,1.5
-14.0,-17.0,1.501
-11.0,-11.0,1.502
-5.0,-1.0,1.503
0.0,7.0,1.504
3.0,11.0,1.505
5.0,10.0,1.506
7.0,8.0,1.507
5.0,4.0,1.508
0.0,5.0,1.509
-7.0,9.0,1.51
-8.0,11.0,1.511
-1.0,5.0,1.512
12.0,3.0,1.513
24.0,4.0,1.514
30.0,2.0,1.515
25.0,-4.0,1.516
15.0,-5.0,1.517
-2.0,-1.0,1.518
-21.0,-2.0,1.519
-38.0,-7.0,1.52
-42.0,-14.0,1.521
-26.0,-10.0,1.522
1.0,-4.0,1.523
24.0,-3.0,1.524
30.0,-3.0,1.525
28.0,1.0,1.526
28.0,5.0,1.527
22.0,4.0,1.528
8.0,0.0,1.529
-3.0,-1.0,1.53
-2.0,-4.0,1.531
3.0,-8.0,1.532
3.0,-5.0,1.533
-1.0,0.0,1.534
0.0,-2.0,1.535
2.0,-7.0,1.536
5.0,-8.0,1.537
7.0,-4.0,1.538
10.0,-2.0,1.539
9.0,-6.0,1.54
1.0,-8.0,1.541
-1.0,-4.0,1.542
11.0,1.0,1.543
22.0,2.0,1.544
14.0,4.0,1.545
-6.0,10.0,1.546
-13.0,9.0,1.547
0.0,2.0,1.548
14.0,-1.0,1.549
9.0,5.0,1.55
2.0,11.0,1.551
8.0,8.0,1.552
18.0,0.0,1.553
13.0,-3.0,1.554
2.0,-1.0,1.555
0.0,0.0,1.556
3.0,1.0,1.557
1.0,0.0,1.558
-6.0,-1.0,1.559
-12.0,-4.0,1.56
-11.0,-11.0,1.561
-11.0,-12.0,1.562
-9.0,-10.0,1.563
-4.0,-7.0,1.564
-3.0,-3.0,1.565
-7.0,3.0,1.566
-7.0,7.0,1.567
0.0,4.0,1.568
9.0,2.0,1.569
9.0,6.0,1.57
6.0,9.0,1.571
11.0,4.0,1.572
16.0,-5.0,1.573
13.0,-9.0,1.574
7.0,-5.0,1.575
3.0,-1.0,1.576
1.0,0.0,1.577
-5.0,-1.0,1.578
-12.0,0.0,1.579
-11.0,2.0,1.58
-4.0,-1.0,1.581
1.0,-2.0,1.582
7.0,0.0,1.583
12.0,4.0,1.584
11.0,9.0,1.585
0.0,10.0,1.586
-10.0,5.0,1.587
-8.0,-3.0,1.588
0.0,-8.0,1.589
5.0,-7.0,1.59
0.0,-2.0,1.591
-1.0,0.0,1.592
2.0,-1.0,1.593
6.0,-4.0,1.594
6.0,-6.0,1.595
5.0,-6.0,1.596
8.0,-4.0,1.597
8.0,-2.0,1.598
2.0,-3.0,1.599
-6.0,-7.0,1.6
-12.0,-9.0,1.601
-11.0,-1.0,1.602
-5.0,6.0,1.603
1.0,6.0,1.604
3.0,5.0,1.605
2.0,7.0,1.606
5.0,11.0,1.607
13.0,10.0,1.608
17.0,6.0,1.609
15.0,6.0,1.61
11.0,8.0,1.611
5.0,5.0,1.612
1.0,-2.0,1.613
2.0,-6.0,1.614
15.0,-5.0,1.615
27.0,-3.0,1.616
28.0,-2.0,1.617
14.0,-5.0,1.618
0.0,-6.0,1.619
-9.0,-8.0,1.62
-18.0,-9.0,1.621
-24.0,-5.0,1.622
-15.0,-1.0,1.623
1.0,0.0,1.624
6.0,3.0,1.625
-3.0,6.0,1.626
-8.0,6.0,1.627
1.0,3.0,1.628
9.0,3.0,1.629
7.0,5.0,1.63
5.0,5.0,1.631
11.0,-2.0,1.632
14.0,-6.0,1.633
9.0,-2.0,1.634
2.0,0.0,1.635
3.0,-4.0,1.636
8.0,-8.0,1.637
5.0,-8.0,1.638
-2.0,-6.0,1.639
-11.0,-6.0,1.64
-15.0,-8.0,1.641
-14.0,-3.0,1.642
-8.0,1.0,1.643
0.0,3.0,1.644
2.0,7.0,1.645
1.0,10.0,1.646
0.0,8.0,1.647
0.0,1.0,1.648
1.0,0.0,1.649
4.0,7.0,1.65
8.0,9.0,1.651
11.0,1.0,1.652
13.0,-4.0,1.653
12.0,-4.0,1.654
10.0,-4.0,1.655
6.0,-9.0,1.656
4.0,-10.0,1.657
1.0,-9.0,1.658
0.0,-8.0,1.659
-4.0,-10.0,1.66
-9.0,-11.0,1.661
-13.0,-5.0,1.662
-11.0,2.0,1.663
-4.0,4.0,1.664
0.0,7.0,1.665
-1.0,13.0,1.666
0.0,16.0,1.667
5.0,12.0,1.668
12.0,9.0,1.669
14.0,7.0,1.67
12.0,3.0,1.671
12.0,-4.0,1.672
11.0,-7.0,1.673
5.0,-5.0,1.674
-1.0,-4.0,1.675
-3.0,-6.0,1.676
1.0,-7.0,1.677
9.0,-5.0,1.678
13.0,-1.0,1.679
8.0,-2.0,1.68
-4.0,-7.0,1.681
-12.0,-7.0,1.682
-4.0,-2.0,1.683
9.0,4.0,1.684
13.0,8.0,1.685
5.0,9.0,1.686
0.0,7.0,1.687
3.0,4.0,1.688
7.0,5.0,1.689
7.0,8.0,1.69
9.0,6.0,1.691
13.0,-2.0,1.692
15.0,-7.0,1.693
10.0,-4.0,1.694
5.0,0.0,1.695
3.0,2.0,1.696
4.0,2.0,1.697
3.0,-2.0,1.698
-1.0,-6.0,1.699
-6.0,-10.0,1.7
-12.0,-17.0,1.701
-14.0,-16.0,1.702
-8.0,-9.0,1.703
-1.0,-1.0,1.704
2.0,2.0,1.705
2.0,4.0,1.706
5.0,3.0,1.707
9.0,1.0,1.708
8.0,0.0,1.709
3.0,0.0,1.71
5.0,1.0,1.711
10.0,2.0,1.712
9.0,1.0,1.713
1.0,-1.0,1.714
-2.0,-3.0,1.715
0.0,-4.0,1.716
9.0,-6.0,1.717
10.0,-7.0,1.718
7.0,-6.0,1.719
-1.0,-2.0,1.72
-13.0,-1.0,1.721
-21.0,-1.0,1.722
-18.0,-1.0,1.723
-3.0,2.0,1.724
12.0,7.0,1.725
14.0,6.0,1.726
8.0,0.0,1.727
3.0,-2.0,1.728
5.0,0.0,1.729
6.0,3.0,1.73
5.0,0.0,1.731
5.0,-6.0,1.732
6.0,-6.0,1.733
4.0,-3.0,1.734
1.0,-1.0,1.735
0.0,-5.0,1.736
3.0,-5.0,1.737
2.0,-3.0,1.738
-2.0,-1.0,1.739
-10.0,-3.0,1.74
-15.0,-6.0,1.741
-14.0,-4.0,1.742
-7.0,0.0,1.743
1.0,4.0,1.744
5.0,9.0,1.745
2.0,13.0,1.746
0.0,12.0,1.747
2.0,8.0,1.748
7.0,5.0,1.749
11.0,8.0,1.75
12.0,11.0,1.751
11.0,7.0,1.752
8.0,-1.0,1.753
4.0,-7.0,1.754
3.0,-10.0,1.755
5.0,-14.0,1.756
7.0,-16.0,1.757
2.0,-16.0,1.758
-1.0,-13.0,1.759
-3.0,-7.0,1.76
-8.0,-4.0,1.761
-11.0,-4.0,1.762
-6.0,-6.0,1.763
2.0,-4.0,1.764
5.0,3.0,1.765
2.0,13.0,1.766
1.0,15.0,1.767
6.0,9.0,1.768
8.0,4.0,1.769
7.0,1.0,1.77
9.0,0.0,1.771
13.0,-5.0,1.772
19.0,-6.0,1.773
24.0,-4.0,1.774
24.0,-1.0,1.775
14.0,0.0,1.776
1.0,0.0,1.777
-8.0,-3.0,1.778
-9.0,-5.0,1.779
-13.0,-5.0,1.78
-17.0,-7.0,1.781
-15.0,-4.0,1.782
-3.0,-2.0,1.783
3.0,3.0,1.784
-3.0,6.0,1.785
-10.0,8.0,1.786
-6.0,7.0,1.787
1.0,4.0,1.788
3.0,2.0,1.789
4.0,1.0,1.79
10.0,1.0,1.791
14.0,0.0,1.792
10.0,-2.0,1.793
4.0,-5.0,1.794
6.0,-6.0,1.795
8.0,-2.0,1.796
5.0,1.0,1.797
0.0,0.0,1.798
-2.0,-2.0,1.799
-5.0,-2.0,1.8
-9.0,-3.0,1.801
-10.0,-6.0,1.802
-1.0,-7.0,1.803
7.0,-6.0,1.804
6.0,-1.0,1.805
1.0,1.0,1.806
2.0,3.0,1.807
11.0,4.0,1.808
14.0,6.0,1.809
11.0,5.0,1.81
10.0,2.0,1.811
14.0,-2.0,1.812
15.0,-3.0,1.813
10.0,-6.0,1.814
8.0,-9.0,1.815
7.0,-8.0,1.816
5.0,-3.0,1.817
-1.0,0.0,1.818
-5.0,0.0,1.819
-5.0,-2.0,1.82
-1.0,-7.0,1.821
0.0,-6.0,1.822
-1.0,1.0,1.823
-6.0,9.0,1.824
-14.0,12.0,1.825
-15.0,11.0,1.826
-7.0,8.0,1.827
3.0,5.0,1.828
6.0,5.0,1.829
4.0,5.0,1.83
6.0,1.0,1.831
14.0,-8.0,1.832
16.0,-15.0,1.833
13.0,-15.0,1.834
11.0,-10.0,1.835
15.0,-5.0,1.836
15.0,-4.0,1.837
8.0,-3.0,1.838
0.0,0.0,1.839
-5.0,2.0,1.84
-9.0,-1.0,1.841
-14.0,-2.0,1.842
-22.0,-4.0,1.843
-30.0,0.0,1.844
-39.0,5.0,1.845
-37.0,10.0,1.846
-20.0,9.0,1.847
7.0,5.0,1.848
30.0,1.0,1.849
48.0,2.0,1.85
66.0,3.0,1.851
71.0,-1.0,1.852
54.0,-4.0,1.853
25.0,-2.0,1.854
10.0,-2.0,1.855
11.0,-5.0,1.856
9.0,-7.0,1.857
-5.0,-6.0,1.858
-16.0,-4.0,1.859
-18.0,-2.0,1.86
-21.0,-2.0,1.861
-30.0,-2.0,1.862
-29.0,-2.0,1.863
-14.0,-1.0,1.864
-3.0,2.0,1.865
-6.0,5.0,1.866
-11.0,5.0,1.867
-1.0,0.0,1.868
8.0,-2.0,1.869
6.0,-2.0,1.87
1.0,0.0,1.871
5.0,1.0,1.872
13.0,1.0,1.873
15.0,-3.0,1.874
12.0,-7.0,1.875
8.0,-7.0,1.876
6.0,-3.0,1.877
1.0,-4.0,1.878
-2.0,-13.0,1.879
-6.0,-28.0,1.88
-12.0,-51.0,1.881
-13.0,-74.0,1.882
-2.0,-78.0,1.883
11.0,-45.0,1.884
13.0,10.0,1.885
3.0,51.0,1.886
-2.0,65.0,1.887
1.0,68.0,1.888
5.0,75.0,1.889
8.0,74.0,1.89
12.0,54.0,1.891
18.0,31.0,1.892
19.0,19.0,1.893
17.0,13.0,1.894
9.0,2.0,1.895
-1.0,-8.0,1.896
-5.0,-7.0,1.897
-4.0,-5.0,1.898
1.0,-8.0,1.899
-4.0,-14.0,1.9
-16.0,-20.0,1.901
-19.0,-21.0,1.902
-9.0,-19.0,1.903
3.0,-13.0,1.904
10.0,-3.0,1.905
4.0,2.0,1.906
1.0,-2.0,1.907
4.0,-7.0,1.908
11.0,-7.0,1.909
14.0,-5.0,1.91
13.0,-7.0,1.911
16.0,-10.0,1.912
20.0,-12.0,1.913
21.0,-14.0,1.914
12.0,-15.0,1.915
0.0,-14.0,1.916
-3.0,-9.0,1.917
-2.0,-5.0,1.918
-2.0,-1.0,1.919
-10.0,0.0,1.92
-21.0,-2.0,1.921
-26.0,-4.0,1.922
-23.0,-3.0,1.923
-14.0,2.0,1.924
-9.0,9.0,1.925
-14.0,15.0,1.926
-15.0,15.0,1.927
-1.0,11.0,1.928
19.0,7.0,1.929
27.0,4.0,1.93
24.0,1.0,1.931
23.0,0.0,1.932
25.0,-1.0,1.933
17.0,0.0,1.934
0.0,-2.0,1.935
-6.0,-3.0,1.936
1.0,-1.0,1.937
10.0,-1.0,1.938
5.0,-1.0,1.939
-6.0,-3.0,1.94
-13.0,-8.0,1.941
-11.0,-8.0,1.942
-5.0,-7.0,1.943
3.0,-2.0,1.944
8.0,5.0,1.945
4.0,10.0,1.946
-2.0,8.0,1.947
1.0,1.0,1.948
8.0,-1.0,1.949
8.0,2.0,1.95
5.0,4.0,1.951
6.0,1.0,1.952
10.0,-3.0,1.953
8.0,-5.0,1.954
1.0,-4.0,1.955
-3.0,-5.0,1.956
-4.0,-5.0,1.957
-8.0,-5.0,1.958
-14.0,-5.0,1.959
-15.0,-4.0,1.96
-8.0,-6.0,1.961
1.0,-5.0,1.962
11.0,-1.0,1.963
18.0,5.0,1.964
19.0,11.0,1.965
11.0,12.0,1.966
5.0,8.0,1.967
6.0,3.0,1.968
10.0,4.0,1.969
9.0,6.0,1.97
6.0,1.0,1.971
6.0,-4.0,1.972
10.0,-6.0,1.973
8.0,-3.0,1.974
4.0,-3.0,1.975
2.0,-6.0,1.976
4.0,-6.0,1.977
2.0,-7.0,1.978
-3.0,-7.0,1.979
-10.0,-6.0,1.98
-12.0,-10.0,1.981
-9.0,-11.0,1.982
-4.0,-5.0,1.983
0.0,0.0,1.984
2.0,5.0,1.985
3.0,9.0,1.986
2.0,6.0,1.987
2.0,3.0,1.988
5.0,5.0,1.989
9.0,6.0,1.99
10.0,4.0,1.991
9.0,1.0,1.992
10.0,-1.0,1.993
16.0,-4.0,1.994
22.0,-5.0,1.995
21.0,-7.0,1.996
16.0,-7.0,1.997
6.0,-6.0,1.998
-2.0,-9.0,1.999
-10.0,-8.0,2.0
-20.0,-5.0,2.001
-26.0,-2.0,2.002
-19.0,0.0,2.003
-11.0,3.0,2.004
-2.0,9.0,2.005
5.0,12.0,2.006
5.0,12.0,2.007
6.0,12.0,2.008
10.0,10.0,2.009
12.0,7.0,2.01
10.0,0.0,2.011
8.0,-4.0,2.012
7.0,-4.0,2.013
6.0,-3.0,2.014
4.0,-5.0,2.015
3.0,-5.0,2.016
3.0,-1.0,2.017
3.0,-1.0,2.018
-1.0,-3.0,2.019
-7.0,-6.0,2.02
-13.0,-11.0,2.021
-10.0,-12.0,2.022
-3.0,-9.0,2.023
3.0,-3.0,2.024
2.0,4.0,2.025
1.0,8.0,2.026
3.0,8.0,2.027
8.0,4.0,2.028
8.0,-1.0,2.029
5.0,-2.0,2.03
1.0,-3.0,2.031
5.0,-2.0,2.032
10.0,-2.0,2.033
11.0,-3.0,2.034
7.0,-3.0,2.035
4.0,-4.0,2.036
8.0,-5.0,2.037
8.0,-7.0,2.038
4.0,-4.0,2.039
-6.0,1.0,2.04
-14.0,0.0,2.041
-12.0,-2.0,2.042
-5.0,-2.0,2.043
1.0,1.0,2.044
3.0,8.0,2.045
1.0,12.0,2.046
3.0,9.0,2.047
6.0,4.0,2.048
7.0,3.0,2.049
7.0,5.0,2.05
8.0,4.0,2.051
11.0,-2.0,2.052
12.0,-7.0,2.053
8.0,-11.0,2.054
5.0,-13.0,2.055
5.0,-12.0,2.056
7.0,-7.0,2.057
5.0,-1.0,2.058
-1.0,2.0,2.059
-8.0,-1.0,2.06
-11.0,-5.0,2.061
-8.0,-1.0,2.062
-4.0,6.0,2.063
-2.0,8.0,2.064
-4.0,4.0,2.065
-7.0,1.0,2.066
-6.0,1.0,2.067
0.0,3.0,2.068
8.0,6.0,2.069
15.0,4.0,2.07
21.0,0.0,2.071
26.0,-4.0,2.072
22.0,-4.0,2.073
11.0,-1.0,2.074
1.0,-3.0,2.075
-3.0,-6.0,2.076
-1.0,-8.0,2.077
0.0,-8.0,2.078
-2.0,-8.0,2.079
-10.0,-11.0,2.08
-18.0,-16.0,2.081
-19.0,-12.0,2.082
-11.0,-5.0,2.083
0.0,1.0,2.084
3.0,3.0,2.085
1.0,5.0,2.086
0.0,6.0,2.087
3.0,5.0,2.088
4.0,4.0,2.089
3.0,6.0,2.09
9.0,7.0,2.091
16.0,7.0,2.092
21.0,5.0,2.093
21.0,3.0,2.094
17.0,2.0,2.095
15.0,3.0,2.096
10.0,8.0,2.097
2.0,8.0,2.098
-7.0,4.0,2.099
-16.0,-1.0,2.1
-22.0,-7.0,2.101
-22.0,-6.0,2.102
-14.0,-3.0,2.103
-2.0,2.0,2.104
3.0,8.0,2.105
3.0,8.0,2.106
2.0,4.0,2.107
5.0,-4.0,2.108
11.0,-8.0,2.109
14.0,-7.0,2.11
14.0,-1.0,2.111
11.0,6.0,2.112
10.0,7.0,2.113
9.0,-4.0,2.114
6.0,-26.0,2.115
2.0,-38.0,2.116
0.0,-30.0,2.117
-2.0,-13.0,2.118
-4.0,-8.0,2.119
-9.0,-17.0,2.12
-11.0,-28.0,2.121
-10.0,-29.0,2.122
-4.0,-35.0,2.123
4.0,-52.0,2.124
7.0,-59.0,2.125
3.0,-39.0,2.126
2.0,-4.0,2.127
8.0,21.0,2.128
15.0,43.0,2.129
15.0,75.0,2.13
10.0,108.0,2.131
9.0,114.0,2.132
13.0,81.0,2.133
13.0,26.0,2.134
7.0,-20.0,2.135
2.0,-35.0,2.136
1.0,-15.0,2.137
-3.0,22.0,2.138
-8.0,51.0,2.139
-13.0,61.0,2.14
-13.0,54.0,2.141
-7.0,42.0,2.142
1.0,16.0,2.143
11.0,-12.0,2.144
14.0,-21.0,2.145
12.0,-6.0,2.146
9.0,7.0,2.147
10.0,7.0,2.148
6.0,5.0,2.149
0.0,7.0,2.15
-1.0,3.0,2.151
3.0,-13.0,2.152
9.0,-26.0,2.153
7.0,-29.0,2.154
2.0,-33.0,2.155
-1.0,-48.0,2.156
-5.0,-67.0,2.157
-10.0,-91.0,2.158
-11.0,-106.0,2.159
-14.0,-98.0,2.16
-20.0,-61.0,2.161
-24.0,-9.0,2.162
-14.0,33.0,2.163
-7.0,56.0,2.164
-5.0,69.0,2.165
-4.0,69.0,2.166
-5.0,51.0,2.167
-3.0,28.0,2.168
10.0,15.0,2.169
19.0,12.0,2.17
17.0,4.0,2.171
16.0,-9.0,2.172
16.0,-15.0,2.173
16.0,-12.0,2.174
13.0,-9.0,2.175
10.0,-14.0,2.176
12.0,-19.0,2.177
13.0,-19.0,2.178
8.0,-3.0,2.179
0.0,23.0,2.18
-6.0,31.0,2.181
-10.0,12.0,2.182
-4.0,-16.0,2.183
10.0,-28.0,2.184
18.0,-19.0,2.185
17.0,-11.0,2.186
15.0,-8.0,2.187
20.0,-5.0,2.188
22.0,5.0,2.189
19.0,7.0,2.19
19.0,0.0,2.191
26.0,-1.0,2.192
28.0,7.0,2.193
18.0,8.0,2.194
5.0,-5.0,2.195
1.0,-16.0,2.196
6.0,-9.0,2.197
0.0,1.0,2.198
-21.0,3.0,2.199
-46.0,-5.0,2.2
-55.0,-13.0,2.201
-41.0,-6.0,2.202
-19.0,7.0,2.203
-6.0,10.0,2.204
-5.0,8.0,2.205
-7.0,4.0,2.206
-4.0,7.0,2.207
-2.0,11.0,2.208
-3.0,13.0,2.209
-1.0,9.0,2.21
5.0,2.0,2.211
11.0,-4.0,2.212
13.0,-5.0,2.213
15.0,-5.0,2.214
18.0,-7.0,2.215
18.0,-9.0,2.216
10.0,-7.0,2.217
2.0,-4.0,2.218
0.0,-2.0,2.219
0.0,-1.0,2.22
-5.0,-2.0,2.221
-12.0,1.0,2.222
-11.0,4.0,2.223
-1.0,5.0,2.224
9.0,5.0,2.225
10.0,4.0,2.226
4.0,1.0,2.227
-3.0,-3.0,2.228
-6.0,-5.0,2.229
-5.0,-5.0,2.23
4.0,-4.0,2.231
12.0,-2.0,2.232
12.0,0.0,2.233
5.0,1.0,2.234
3.0,-3.0,2.235
6.0,-6.0,2.236
8.0,-3.0,2.237
4.0,-2.0,2.238
3.0,-1.0,2.239
3.0,-3.0,2.24
2.0,-8.0,2.241
1.0,-7.0,2.242
8.0,-3.0,2.243
16.0,3.0,2.244
9.0,9.0,2.245
-7.0,12.0,2.246
-15.0,12.0,2.247
-9.0,11.0,2.248
-5.0,9.0,2.249
-9.0,8.0,2.25
-9.0,5.0,2.251
1.0,2.0,2.252
13.0,0.0,2.253
17.0,-3.0,2.254
17.0,-6.0,2.255
22.0,-5.0,2.256
28.0,-2.0,2.257
25.0,-4.0,2.258
12.0,-8.0,2.259
-4.0,-10.0,2.26
-12.0,-8.0,2.261
-7.0,-1.0,2.262
5.0,2.0,2.263
12.0,2.0,2.264
3.0,3.0,2.265
-12.0,2.0,2.266
-11.0,3.0,2.267
1.0,3.0,2.268
10.0,2.0,2.269
5.0,-1.0,2.27
3.0,-6.0,2.271
11.0,-6.0,2.272
15.0,0.0,2.273
7.0,6.0,2.274
1.0,5.0,2.275
3.0,-1.0,2.276
5.0,-5.0,2.277
-4.0,-4.0,2.278
-13.0,-3.0,2.279
-14.0,-1.0,2.28
-11.0,-4.0,2.281
-12.0,-3.0,2.282
-10.0,0.0,2.283
-1.0,4.0,2.284
4.0,6.0,2.285
3.0,4.0,2.286
5.0,-1.0,2.287
13.0,-7.0,2.288
16.0,-9.0,2.289
8.0,-8.0,2.29
3.0,-2.0,2.291
6.0,0.0,2.292
4.0,-1.0,2.293
-2.0,-4.0,2.294
-6.0,-4.0,2.295
-1.0,-2.0,2.296
2.0,-1.0,2.297
-1.0,-5.0,2.298
-2.0,-7.0,2.299
-2.0,-6.0,2.3
-4.0,-5.0,2.301
-6.0,-4.0,2.302
0.0,0.0,2.303
9.0,4.0,2.304
12.0,8.0,2.305
6.0,9.0,2.306
3.0,6.0,2.307
10.0,3.0,2.308
16.0,1.0,2.309
14.0,3.0,2.31
10.0,9.0,2.311
5.0,10.0,2.312
2.0,3.0,2.313
2.0,-9.0,2.314
4.0,-12.0,2.315
2.0,-2.0,2.316
-1.0,11.0,2.317
-6.0,14.0,2.318
-5.0,3.0,2.319
-3.0,-9.0,2.32
-6.0,-13.0,2.321
-9.0,-4.0,2.322
-4.0,2.0,2.323
8.0,4.0,2.324
13.0,4.0,2.325
11.0,6.0,2.326
10.0,5.0,2.327
15.0,0.0,2.328
15.0,-1.0,2.329
7.0,3.0,2.33
2.0,1.0,2.331
4.0,-6.0,2.332
10.0,-12.0,2.333
13.0,-9.0,2.334
12.0,-4.0,2.335
7.0,-6.0,2.336
0.0,-9.0,2.337
-10.0,-9.0,2.338
-17.0,-4.0,2.339
-19.0,-4.0,2.34
-20.0,-10.0,2.341
-20.0,-10.0,2.342
-12.0,-3.0,2.343
1.0,5.0,2.344
10.0,8.0,2.345
9.0,9.0,2.346
8.0,6.0,2.347
12.0,4.0,2.348
16.0,3.0,2.349
12.0,4.0,2.35
8.0,1.0,2.351
12.0,-5.0,2.352
18.0,-7.0,2.353
15.0,-5.0,2.354
5.0,-4.0,2.355
0.0,-7.0,2.356
0.0,-5.0,2.357
-3.0,-2.0,2.358
-6.0,-3.0,2.359
-11.0,-8.0,2.36
-15.0,-10.0,2.361
-19.0,-2.0,2.362
-13.0,5.0,2.363
-3.0,5.0,2.364
2.0,3.0,2.365
0.0,7.0,2.366
0.0,9.0,2.367
11.0,7.0,2.368
17.0,2.0,2.369
15.0,3.0,2.37
12.0,4.0,2.371
11.0,1.0,2.372
12.0,-5.0,2.373
7.0,-6.0,2.374
3.0,-6.0,2.375
0.0,-6.0,2.376
-1.0,-4.0,2.377
-4.0,-1.0,2.378
-4.0,3.0,2.379
-4.0,6.0,2.38
-7.0,3.0,2.381
-9.0,1.0,2.382
-6.0,0.0,2.383
1.0,-1.0,2.384
2.0,-3.0,2.385
-2.0,-5.0,2.386
-1.0,-5.0,2.387
6.0,-5.0,2.388
14.0,0.0,2.389
18.0,3.0,2.39
24.0,0.0,2.391
34.0,-2.0,2.392
36.0,0.0,2.393
26.0,1.0,2.394
6.0,0.0,2.395
-8.0,-2.0,2.396
-8.0,-2.0,2.397
-6.0,0.0,2.398
-4.0,1.0,2.399
-4.0,-1.0,2.4
-8.0,-4.0,2.401
-11.0,0.0,2.402
-5.0,2.0,2.403
-1.0,2.0,2.404
-3.0,4.0,2.405
-6.0,7.0,2.406
-6.0,8.0,2.407
-5.0,4.0,2.408
0.0,2.0,2.409
5.0,3.0,2.41
9.0,2.0,2.411
11.0,-1.0,2.412
7.0,-4.0,2.413
3.0,-4.0,2.414
3.0,-6.0,2.415
3.0,-7.0,2.416
1.0,-5.0,2.417
0.0,-4.0,2.418
0.0,-5.0,2.419
-4.0,-5.0,2.42
-11.0,-4.0,2.421
-15.0,0.0,2.422
-7.0,0.0,2.423
4.0,-1.0,2.424
7.0,3.0,2.425
0.0,9.0,2.426
-2.0,10.0,2.427
3.0,4.0,2.428
11.0,0.0,2.429
14.0,0.0,2.43
17.0,-2.0,2.431
19.0,-6.0,2.432
17.0,-7.0,2.433
12.0,-5.0,2.434
8.0,-2.0,2.435
6.0,-3.0,2.436
2.0,-3.0,2.437
-4.0,-5.0,2.438
-8.0,-3.0,2.439
-11.0,-2.0,2.44
-12.0,-4.0,2.441
-12.0,-4.0,2.442
-5.0,-5.0,2.443
5.0,-5.0,2.444
11.0,-1.0,2.445
8.0,1.0,2.446
4.0,-1.0,2.447
6.0,-4.0,2.448
10.0,-4.0,2.449
13.0,1.0,2.45
13.0,2.0,2.451
12.0,-3.0,2.452
12.0,-5.0,2.453
8.0,0.0,2.454
4.0,2.0,2.455
1.0,0.0,2.456
1.0,-2.0,2.457
4.0,-3.0,2.458
4.0,-2.0,2.459
-1.0,-2.0,2.46
-10.0,-4.0,2.461
-20.0,-3.0,2.462
-23.0,0.0,2.463
-17.0,4.0,2.464
-10.0,7.0,2.465
-8.0,10.0,2.466
-7.0,9.0,2.467
0.0,5.0,2.468
12.0,3.0,2.469
17.0,5.0,2.47
16.0,4.0,2.471
15.0,0.0,2.472
19.0,-5.0,2.473
22.0,-6.0,2.474
19.0,-6.0,2.475
13.0,-8.0,2.476
6.0,-6.0,2.477
2.0,-2.0,2.478
-2.0,0.0,2.479
-10.0,-4.0,2.48
-19.0,-10.0,2.481
-22.0,-7.0,2.482
-15.0,-3.0,2.483
-3.0,-1.0,2.484
4.0,3.0,2.485
5.0,11.0,2.486
6.0,17.0,2.487
8.0,13.0,2.488
8.0,6.0,2.489
7.0,-1.0,2.49
8.0,-6.0,2.491
11.0,-6.0,2.492
10.0,-2.0,2.493
9.0,-1.0,2.494
11.0,-7.0,2.495
14.0,-8.0,2.496
16.0,2.0,2.497
13.0,10.0,2.498
11.0,5.0,2.499
4.0,-3.0,2.5
-4.0,-4.0,2.501
-11.0,3.0,2.502
-10.0,0.0,2.503
-1.0,-8.0,2.504
5.0,-5.0,2.505
5.0,3.0,2.506
2.0,4.0,2.507
6.0,-1.0,2.508
13.0,-3.0,2.509
16.0,0.0,2.51
9.0,0.0,2.511
-2.0,1.0,2.512
-6.0,4.0,2.513
-1.0,1.0,2.514
3.0,-8.0,2.515
0.0,-15.0,2.516
-6.0,-6.0,2.517
-9.0,4.0,2.518
-5.0,4.0,2.519
-5.0,-6.0,2.52
-15.0,-12.0,2.521
-17.0,-8.0,2.522
-7.0,-3.0,2.523
5.0,1.0,2.524
6.0,6.0,2.525
1.0,10.0,2.526
4.0,6.0,2.527
13.0,0.0,2.528
13.0,3.0,2.529
5.0,6.0,2.53
0.0,0.0,2.531
1.0,-10.0,2.532
3.0,-11.0,2.533
4.0,-6.0,2.534
6.0,-4.0,2.535
8.0,-7.0,2.536
5.0,-6.0,2.537
-2.0,-4.0,2.538
-4.0,-2.0,2.539
-6.0,-3.0,2.54
-11.0,-6.0,2.541
-12.0,-4.0,2.542
-2.0,-1.0,2.543
13.0,0.0,2.544
18.0,-1.0,2.545
13.0,0.0,2.546
7.0,0.0,2.547
9.0,-1.0,2.548
14.0,0.0,2.549
15.0,6.0,2.55
16.0,9.0,2.551
17.0,4.0,2.552
10.0,0.0,2.553
-1.0,8.0,2.554
-2.0,18.0,2.555
5.0,12.0,2.556
9.0,-7.0,2.557
2.0,-21.0,2.558
-2.0,-13.0,2.559
-2.0,-4.0,2.56
-4.0,-18.0,2.561
-12.0,-41.0,2.562
-11.0,-49.0,2.563
4.0,-47.0,2.564
18.0,-49.0,2.565
16.0,-46.0,2.566
9.0,-20.0,2.567
10.0,18.0,2.568
14.0,43.0,2.569
7.0,51.0,2.57
-5.0,54.0,2.571
-8.0,51.0,2.572
-2.0,29.0,2.573
-1.0,2.0,2.574
-11.0,-3.0,2.575
-21.0,7.0,2.576
-19.0,13.0,2.577
-14.0,1.0,2.578
-15.0,-12.0,2.579
-20.0,-21.0,2.58
-17.0,-30.0,2.581
-5.0,-29.0,2.582
9.0,0.0,2.583
14.0,40.0,2.584
15.0,63.0,2.585
18.0,61.0,2.586
24.0,58.0,2.587
29.0,74.0,2.588
33.0,96.0,2.589
34.0,103.0,2.59
30.0,96.0,2.591
21.0,80.0,2.592
11.0,55.0,2.593
5.0,22.0,2.594
5.0,-11.0,2.595
6.0,-37.0,2.596
6.0,-55.0,2.597
3.0,-66.0,2.598
-1.0,-68.0,2.599
-10.0,-62.0,2.6
-21.0,-64.0,2.601
-25.0,-68.0,2.602
-16.0,-67.0,2.603
-1.0,-56.0,2.604
7.0,-40.0,2.605
7.0,-26.0,2.606
6.0,-17.0,2.607
5.0,-23.0,2.608
-3.0,-37.0,2.609
-15.0,-40.0,2.61
-20.0,-30.0,2.611
-11.0,-22.0,2.612
-2.0,-29.0,2.613
-3.0,-33.0,2.614
-15.0,-18.0,2.615
-22.0,3.0,2.616
-26.0,7.0,2.617
-35.0,-6.0,2.618
-42.0,-10.0,2.619
-40.0,4.0,2.62
-30.0,12.0,2.621
-17.0,0.0,2.622
-2.0,-17.0,2.623
12.0,-17.0,2.624
19.0,-2.0,2.625
22.0,7.0,2.626
28.0,8.0,2.627
38.0,15.0,2.628
47.0,28.0,2.629
47.0,31.0,2.63
44.0,22.0,2.631
45.0,16.0,2.632
45.0,22.0,2.633
35.0,25.0,2.634
12.0,17.0,2.635
-6.0,9.0,2.636
-6.0,10.0,2.637
2.0,14.0,2.638
4.0,14.0,2.639
-12.0,13.0,2.64
-24.0,12.0,2.641
-12.0,12.0,2.642
15.0,4.0,2.643
24.0,-4.0,2.644
8.0,-6.0,2.645
-13.0,-13.0,2.646
-22.0,-33.0,2.647
-23.0,-51.0,2.648
-22.0,-49.0,2.649
-14.0,-30.0,2.65
3.0,-16.0,2.651
17.0,-12.0,2.652
18.0,-7.0,2.653
17.0,7.0,2.654
16.0,20.0,2.655
13.0,23.0,2.656
8.0,20.0,2.657
3.0,15.0,2.658
1.0,16.0,2.659
-6.0,20.0,2.66
-18.0,18.0,2.661
-21.0,14.0,2.662
-8.0,11.0,2.663
7.0,13.0,2.664
11.0,21.0,2.665
5.0,26.0,2.666
6.0,20.0,2.667
12.0,10.0,2.668
16.0,7.0,2.669
16.0,7.0,2.67
16.0,2.0,2.671
16.0,-5.0,2.672
12.0,-9.0,2.673
8.0,-9.0,2.674
6.0,-4.0,2.675
4.0,-2.0,2.676
3.0,-5.0,2.677
1.0,-12.0,2.678
0.0,-18.0,2.679
-4.0,-21.0,2.68
-10.0,-27.0,2.681
-10.0,-30.0,2.682
-1.0,-26.0,2.683
7.0,-11.0,2.684
4.0,-1.0,2.685
-3.0,-4.0,2.686
-5.0,-10.0,2.687
1.0,-6.0,2.688
6.0,5.0,2.689
6.0,9.0,2.69
6.0,2.0,2.691
9.0,-1.0,2.692
9.0,5.0,2.693
4.0,10.0,2.694
-3.0,7.0,2.695
-8.0,1.0,2.696
-10.0,1.0,2.697
-16.0,2.0,2.698
-21.0,5.0,2.699
-23.0,8.0,2.7
-24.0,12.0,2.701
-22.0,12.0,2.702
-12.0,1.0,2.703
4.0,-4.0,2.704
13.0,8.0,2.705
14.0,14.0,2.706
17.0,0.0,2.707
28.0,-10.0,2.708
34.0,-5.0,2.709
28.0,-1.0,2.71
20.0,-1.0,2.711
17.0,-1.0,2.712
11.0,1.0,2.713
-1.0,3.0,2.714
-5.0,-2.0,2.715
1.0,-4.0,2.716
11.0,5.0,2.717
6.0,13.0,2.718
0.0,10.0,2.719
-4.0,0.0,2.72
-3.0,-3.0,2.721
-1.0,-3.0,2.722
4.0,-7.0,2.723
8.0,-12.0,2.724
6.0,-8.0,2.725
3.0,-1.0,2.726
1.0,-4.0,2.727
0.0,-10.0,2.728
3.0,-10.0,2.729
5.0,-6.0,2.73
0.0,-5.0,2.731
-5.0,-7.0,2.732
-4.0,-2.0,2.733
-4.0,1.0,2.734
-9.0,0.0,2.735
-13.0,-3.0,2.736
-9.0,0.0,2.737
-6.0,5.0,2.738
-7.0,3.0,2.739
-6.0,-4.0,2.74
0.0,-9.0,2.741
4.0,-4.0,2.742
12.0,0.0,2.743
18.0,-1.0,2.744
18.0,1.0,2.745
14.0,6.0,2.746
15.0,7.0,2.747
24.0,-1.0,2.748
28.0,-8.0,2.749
21.0,-9.0,2.75
17.0,-9.0,2.751
18.0,-16.0,2.752
16.0,-26.0,2.753
4.0,-35.0,2.754
-9.0,-44.0,2.755
-14.0,-49.0,2.756
-17.0,-39.0,2.757
-22.0,-11.0,2.758
-20.0,24.0,2.759
-13.0,51.0,2.76
-11.0,64.0,2.761
-14.0,76.0,2.762
-11.0,83.0,2.763
1.0,80.0,2.764
11.0,61.0,2.765
9.0,34.0,2.766
5.0,12.0,2.767
10.0,-3.0,2.768
14.0,-10.0,2.769
10.0,-15.0,2.77
7.0,-18.0,2.771
10.0,-24.0,2.772
12.0,-32.0,2.773
9.0,-33.0,2.774
8.0,-26.0,2.775
16.0,-18.0,2.776
22.0,-15.0,2.777
19.0,-17.0,2.778
12.0,-12.0,2.779
-2.0,-7.0,2.78
-21.0,-5.0,2.781
-42.0,-6.0,2.782
-44.0,-4.0,2.783
-30.0,1.0,2.784
-19.0,4.0,2.785
-15.0,1.0,2.786
-11.0,-5.0,2.787
-1.0,-12.0,2.788
8.0,-20.0,2.789
8.0,-25.0,2.79
12.0,-26.0,2.791
20.0,-23.0,2.792
21.0,-19.0,2.793
12.0,-11.0,2.794
-2.0,1.0,2.795
-6.0,12.0,2.796
-4.0,19.0,2.797
-2.0,19.0,2.798
-4.0,23.0,2.799
-10.0,28.0,2.8
-12.0,26.0,2.801
-5.0,21.0,2.802
13.0,20.0,2.803
26.0,24.0,2.804
22.0,24.0,2.805
13.0,18.0,2.806
16.0,10.0,2.807
29.0,4.0,2.808
35.0,-2.0,2.809
27.0,-7.0,2.81
18.0,-12.0,2.811
19.0,-18.0,2.812
21.0,-22.0,2.813
16.0,-27.0,2.814
8.0,-30.0,2.815
5.0,-27.0,2.816
5.0,-17.0,2.817
-1.0,-6.0,2.818
-7.0,-4.0,2.819
-12.0,-11.0,2.82
-13.0,-15.0,2.821
-10.0,-7.0,2.822
-4.0,3.0,2.823
4.0,5.0,2.824
8.0,1.0,2.825
2.0,3.0,2.826
-7.0,7.0,2.827
-12.0,7.0,2.828
-12.0,5.0,2.829
-15.0,5.0,2.83
-18.0,3.0,2.831
-20.0,-1.0,2.832
-20.0,-3.0,2.833
-15.0,0.0,2.834
-2.0,0.0,2.835
15.0,-5.0,2.836
25.0,-11.0,2.837
21.0,-11.0,2.838
12.0,-5.0,2.839
7.0,2.0,2.84
8.0,2.0,2.841
6.0,1.0,2.842
2.0,1.0,2.843
0.0,4.0,2.844
3.0,12.0,2.845
3.0,16.0,2.846
2.0,11.0,2.847
5.0,6.0,2.848
12.0,5.0,2.849
15.0,6.0,2.85
15.0,3.0,2.851
15.0,-3.0,2.852
17.0,-7.0,2.853
13.0,-6.0,2.854
6.0,-7.0,2.855
0.0,-6.0,2.856
0.0,0.0,2.857
0.0,1.0,2.858
-2.0,0.0,2.859
-8.0,-3.0,2.86
-11.0,-7.0,2.861
-8.0,-6.0,2.862
-3.0,-7.0,2.863
-3.0,-4.0,2.864
-7.0,-1.0,2.865
-10.0,0.0,2.866
-3.0,1.0,2.867
4.0,6.0,2.868
6.0,14.0,2.869
3.0,18.0,2.87
9.0,14.0,2.871
15.0,7.0,2.872
10.0,2.0,2.873
2.0,1.0,2.874
2.0,2.0,2.875
8.0,2.0,2.876
7.0,3.0,2.877
-3.0,-1.0,2.878
-12.0,-5.0,2.879
-18.0,-2.0,2.88
-23.0,1.0,2.881
-22.0,3.0,2.882
-8.0,2.0,2.883
14.0,3.0,2.884
24.0,5.0,2.885
26.0,5.0,2.886
29.0,0.0,2.887
32.0,-2.0,2.888
24.0,-2.0,2.889
13.0,-5.0,2.89
10.0,-10.0,2.891
13.0,-11.0,2.892
6.0,-10.0,2.893
-9.0,-11.0,2.894
-15.0,-13.0,2.895
-7.0,-11.0,2.896
4.0,-3.0,2.897
3.0,0.0,2.898
-3.0,-3.0,2.899
-8.0,-5.0,2.9
-11.0,-5.0,2.901
-15.0,0.0,2.902
-17.0,1.0,2.903
-13.0,0.0,2.904
-11.0,6.0,2.905
-10.0,13.0,2.906
-6.0,17.0,2.907
3.0,15.0,2.908
12.0,10.0,2.909
15.0,2.0,2.91
16.0,-8.0,2.911
18.0,-14.0,2.912
19.0,-9.0,2.913
16.0,-5.0,2.914
8.0,-5.0,2.915
3.0,-9.0,2.916
1.0,-8.0,2.917
-2.0,-5.0,2.918
-2.0,-3.0,2.919
-3.0,-5.0,2.92
-1.0,-5.0,2.921
0.0,-1.0,2.922
7.0,4.0,2.923
15.0,5.0,2.924
12.0,7.0,2.925
0.0,8.0,2.926
-9.0,7.0,2.927
-8.0,4.0,2.928
-2.0,4.0,2.929
2.0,2.0,2.93
7.0,-5.0,2.931
13.0,-15.0,2.932
12.0,-18.0,2.933
5.0,-15.0,2.934
1.0,-11.0,2.935
5.0,-6.0,2.936
8.0,1.0,2.937
1.0,8.0,2.938
-6.0,10.0,2.939
-8.0,11.0,2.94
-6.0,7.0,2.941
-5.0,4.0,2.942
0.0,4.0,2.943
11.0,5.0,2.944
16.0,5.0,2.945
16.0,5.0,2.946
17.0,5.0,2.947
20.0,3.0,2.948
17.0,-6.0,2.949
8.0,-16.0,2.95
1.0,-28.0,2.951
4.0,-35.0,2.952
6.0,-27.0,2.953
1.0,-15.0,2.954
-7.0,5.0,2.955
-12.0,20.0,2.956
-12.0,22.0,2.957
-10.0,24.0,2.958
-11.0,17.0,2.959
-12.0,12.0,2.96
-14.0,11.0,2.961
-13.0,16.0,2.962
-1.0,25.0,2.963
7.0,27.0,2.964
4.0,16.0,2.965
3.0,1.0,2.966
7.0,-6.0,2.967
10.0,0.0,2.968
11.0,8.0,2.969
12.0,3.0,2.97
12.0,-10.0,2.971
12.0,-14.0,2.972
12.0,-6.0,2.973
11.0,-3.0,2.974
8.0,-17.0,2.975
5.0,-33.0,2.976
5.0,-37.0,2.977
4.0,-44.0,2.978
2.0,-72.0,2.979
-6.0,-118.0,2.98
-15.0,-157.0,2.981
-14.0,-150.0,2.982
-6.0,-92.0,2.983
-1.0,-13.0,2.984
-3.0,49.0,2.985
-4.0,82.0,2.986
7.0,93.0,2.987
17.0,84.0,2.988
15.0,44.0,2.989
7.0,-19.0,2.99
5.0,-64.0,2.991
6.0,-51.0,2.992
0.0,15.0,2.993
-10.0,86.0,2.994
-9.0,131.0,2.995
-1.0,154.0,2.996
0.0,167.0,2.997
-10.0,163.0,2.998
-19.0,143.0,2.999
-15.0,121.0,3.0
-2.0,92.0,3.001
9.0,63.0,3.002
18.0,34.0,3.003
25.0,8.0,3.004
28.0,-8.0,3.005
25.0,-24.0,3.006
24.0,-37.0,3.007
29.0,-46.0,3.008
34.0,-38.0,3.009
38.0,-31.0,3.01
36.0,-33.0,3.011
28.0,-36.0,3.012
18.0,-44.0,3.013
8.0,-52.0,3.014
2.0,-62.0,3.015
-2.0,-73.0,3.016
-9.0,-89.0,3.017
-20.0,-96.0,3.018
-30.0,-71.0,3.019
-38.0,-51.0,3.02
-38.0,-47.0,3.021
-34.0,-44.0,3.022
-24.0,-34.0,3.023
-16.0,-18.0,3.024
-15.0,-1.0,3.025
-15.0,8.0,3.026
-19.0,2.0,3.027
-26.0,-12.0,3.028
-38.0,-13.0,3.029
-46.0,0.0,3.03
-40.0,9.0,3.031
-30.0,-1.0,3.032
-7.0,-18.0,3.033
11.0,-21.0,3.034
14.0,-14.0,3.035
19.0,-12.0,3.036
27.0,-20.0,3.037
33.0,-36.0,3.038
27.0,-53.0,3.039
20.0,-55.0,3.04
16.0,-37.0,3.041
13.0,1.0,3.042
14.0,33.0,3.043
20.0,48.0,3.044
21.0,55.0,3.045
14.0,64.0,3.046
13.0,66.0,3.047
20.0,44.0,3.048
22.0,-2.0,3.049
15.0,-52.0,3.05
11.0,-91.0,3.051
21.0,-113.0,3.052
29.0,-115.0,3.053
19.0,-92.0,3.054
3.0,-37.0,3.055
2.0,36.0,3.056
11.0,91.0,3.057
13.0,105.0,3.058
5.0,92.0,3.059
0.0,88.0,3.06
0.0,105.0,3.061
3.0,135.0,3.062
9.0,163.0,3.063
17.0,185.0,3.064
20.0,191.0,3.065
12.0,174.0,3.066
0.0,135.0,3.067
-3.0,92.0,3.068
4.0,55.0,3.069
11.0,18.0,3.07
13.0,-27.0,3.071
13.0,-80.0,3.072
15.0,-138.0,3.073
15.0,-204.0,3.074
11.0,-282.0,3.075
1.0,-363.0,3.076
-3.0,-408.0,3.077
-4.0,-376.0,3.078
-5.0,-265.0,3.079
-17.0,-131.0,3.08
-30.0,-23.0,3.081
-33.0,73.0,3.082
-22.0,183.0,3.083
-9.0,289.0,3.084
-7.0,350.0,3.085
-11.0,357.0,3.086
-15.0,337.0,3.087
-18.0,297.0,3.088
-24.0,231.0,3.089
-27.0,150.0,3.09
-27.0,79.0,3.091
-24.0,26.0,3.092
-21.0,-15.0,3.093
-18.0,-51.0,3.094
-8.0,-82.0,3.095
5.0,-101.0,3.096
17.0,-102.0,3.097
20.0,-94.0,3.098
16.0,-88.0,3.099
6.0,-97.0,3.1
2.0,-114.0,3.101
10.0,-119.0,3.102
25.0,-122.0,3.103
39.0,-136.0,3.104
45.0,-154.0,3.105
46.0,-149.0,3.106
50.0,-121.0,3.107
53.0,-96.0,3.108
46.0,-79.0,3.109
22.0,-57.0,3.11
-7.0,-22.0,3.111
-28.0,18.0,3.112
-42.0,51.0,3.113
-52.0,73.0,3.114
-57.0,79.0,3.115
-55.0,71.0,3.116
-48.0,60.0,3.117
-38.0,49.0,3.118
-30.0,40.0,3.119
-22.0,35.0,3.12
-14.0,36.0,3.121
-7.0,53.0,3.122
4.0,66.0,3.123
21.0,66.0,3.124
32.0,55.0,3.125
36.0,42.0,3.126
40.0,24.0,3.127
46.0,1.0,3.128
47.0,-25.0,3.129
44.0,-54.0,3.13
40.0,-82.0,3.131
40.0,-96.0,3.132
40.0,-106.0,3.133
36.0,-143.0,3.134
30.0,-219.0,3.135
22.0,-279.0,3.136
14.0,-252.0,3.137
2.0,-141.0,3.138
-7.0,-26.0,3.139
-17.0,46.0,3.14
-25.0,112.0,3.141
-27.0,208.0,3.142
-21.0,287.0,3.143
-10.0,294.0,3.144
-6.0,241.0,3.145
-11.0,174.0,3.146
-19.0,111.0,3.147
-25.0,75.0,3.148
-29.0,89.0,3.149
-34.0,128.0,3.15
-41.0,124.0,3.151
-52.0,63.0,3.152
-63.0,4.0,3.153
-64.0,-19.0,3.154
-55.0,-29.0,3.155
-39.0,-39.0,3.156
-16.0,-29.0,3.157
26.0,-5.0,3.158
80.0,0.0,3.159
122.0,-21.0,3.16
135.0,-33.0,3.161
128.0,-20.0,3.162
125.0,-12.0,3.163
126.0,-19.0,3.164
111.0,-21.0,3.165
74.0,-17.0,3.166
36.0,-32.0,3.167
17.0,-70.0,3.168
11.0,-104.0,3.169
-1.0,-123.0,3.17
-21.0,-143.0,3.171
-42.0,-167.0,3.172
-55.0,-177.0,3.173
-65.0,-161.0,3.174
-74.0,-115.0,3.175
-80.0,-44.0,3.176
-77.0,26.0,3.177
-67.0,74.0,3.178
-57.0,98.0,3.179
-51.0,116.0,3.18
-50.0,133.0,3.181
-43.0,132.0,3.182
-30.0,103.0,3.183
-20.0,74.0,3.184
-17.0,66.0,3.185
-19.0,60.0,3.186
-18.0,36.0,3.187
-11.0,9.0,3.188
-7.0,1.0,3.189
-4.0,1.0,3.19
-2.0,-11.0,3.191
3.0,-31.0,3.192
7.0,-44.0,3.193
13.0,-48.0,3.194
23.0,-52.0,3.195
33.0,-53.0,3.196
40.0,-51.0,3.197
42.0,-59.0,3.198
46.0,-81.0,3.199
42.0,-101.0,3.2
33.0,-93.0,3.201
23.0,-57.0,3.202
22.0,-13.0,3.203
27.0,16.0,3.204
24.0,37.0,3.205
12.0,48.0,3.206
3.0,46.0,3.207
4.0,35.0,3.208
9.0,30.0,3.209
9.0,33.0,3.21
4.0,36.0,3.211
-2.0,33.0,3.212
-11.0,29.0,3.213
-22.0,26.0,3.214
-27.0,20.0,3.215
-22.0,14.0,3.216
-13.0,12.0,3.217
-5.0,11.0,3.218
0.0,5.0,3.219
1.0,-15.0,3.22
0.0,-49.0,3.221
2.0,-91.0,3.222
10.0,-147.0,3.223
18.0,-214.0,3.224
19.0,-255.0,3.225
18.0,-225.0,3.226
23.0,-116.0,3.227
30.0,6.0,3.228
30.0,73.0,3.229
26.0,88.0,3.23
23.0,110.0,3.231
20.0,169.0,3.232
7.0,240.0,3.233
-9.0,297.0,3.234
-20.0,332.0,3.235
-20.0,338.0,3.236
-18.0,301.0,3.237
-16.0,224.0,3.238
-14.0,141.0,3.239
-8.0,72.0,3.24
0.0,8.0,3.241
8.0,-49.0,3.242
16.0,-89.0,3.243
22.0,-113.0,3.244
24.0,-130.0,3.245
19.0,-141.0,3.246
16.0,-134.0,3.247
14.0,-118.0,3.248
13.0,-112.0,3.249
9.0,-115.0,3.25
0.0,-105.0,3.251
-15.0,-88.0,3.252
-33.0,-81.0,3.253
-46.0,-83.0,3.254
-42.0,-77.0,3.255
-25.0,-61.0,3.256
-4.0,-46.0,3.257
14.0,-39.0,3.258
28.0,-30.0,3.259
28.0,-18.0,3.26
10.0,-11.0,3.261
-12.0,-8.0,3.262
-19.0,-6.0,3.263
-9.0,-2.0,3.264
-8.0,2.0,3.265
-30.0,9.0,3.266
-60.0,14.0,3.267
-66.0,9.0,3.268
-33.0,-8.0,3.269
18.0,-17.0,3.27
52.0,-6.0,3.271
57.0,9.0,3.272
46.0,5.0,3.273
36.0,-9.0,3.274
25.0,-8.0,3.275
2.0,12.0,3.276
-12.0,27.0,3.277
-8.0,18.0,3.278
9.0,4.0,3.279
15.0,2.0,3.28
12.0,8.0,3.281
26.0,21.0,3.282
54.0,42.0,3.283
63.0,70.0,3.284
52.0,93.0,3.285
44.0,103.0,3.286
48.0,102.0,3.287
34.0,90.0,3.288
-6.0,55.0,3.289
-45.0,-10.0,3.29
-53.0,-94.0,3.291
-40.0,-166.0,3.292
-28.0,-204.0,3.293
-21.0,-202.0,3.294
-16.0,-173.0,3.295
-12.0,-131.0,3.296
-7.0,-80.0,3.297
1.0,-16.0,3.298
16.0,49.0,3.299
26.0,102.0,3.3
30.0,138.0,3.301
32.0,167.0,3.302
30.0,186.0,3.303
15.0,187.0,3.304
-10.0,178.0,3.305
-33.0,165.0,3.306
-42.0,146.0,3.307
-39.0,111.0,3.308
-25.0,75.0,3.309
-8.0,51.0,3.31
-3.0,33.0,3.311
-15.0,5.0,3.312
-21.0,-21.0,3.313
0.0,-32.0,3.314
29.0,-45.0,3.315
34.0,-88.0,3.316
17.0,-151.0,3.317
8.0,-199.0,3.318
17.0,-195.0,3.319
19.0,-157.0,3.32
6.0,-136.0,3.321
0.0,-131.0,3.322
13.0,-116.0,3.323
19.0,-76.0,3.324
1.0,-31.0,3.325
-23.0,2.0,3.326
-36.0,34.0,3.327
-42.0,73.0,3.328
-46.0,105.0,3.329
-39.0,107.0,3.33
-12.0,84.0,3.331
18.0,65.0,3.332
33.0,69.0,3.333
31.0,89.0,3.334
23.0,101.0,3.335
16.0,99.0,3.336
10.0,85.0,3.337
1.0,51.0,3.338
-5.0,-6.0,3.339
-11.0,-103.0,3.34
-8.0,-236.0,3.341
4.0,-348.0,3.342
20.0,-379.0,3.343
28.0,-316.0,3.344
23.0,-209.0,3.345
19.0,-108.0,3.346
26.0,-5.0,3.347
48.0,115.0,3.348
74.0,221.0,3.349
90.0,262.0,3.35
91.0,254.0,3.351
75.0,252.0,3.352
39.0,262.0,3.353
-17.0,245.0,3.354
-74.0,194.0,3.355
-105.0,149.0,3.356
-107.0,118.0,3.357
-105.0,40.0,3.358
-106.0,-111.0,3.359
-95.0,-301.0,3.36
-60.0,-458.0,3.361
-29.0,-499.0,3.362
-20.0,-387.0,3.363
-15.0,-189.0,3.364
13.0,-52.0,3.365
49.0,-50.0,3.366
59.0,-107.0,3.367
49.0,-101.0,3.368
52.0,6.0,3.369
69.0,171.0,3.37
76.0,340.0,3.371
72.0,464.0,3.372
74.0,493.0,3.373
83.0,439.0,3.374
66.0,375.0,3.375
15.0,348.0,3.376
-31.0,344.0,3.377
-47.0,322.0,3.378
-38.0,252.0,3.379
-41.0,116.0,3.38
-60.0,-89.0,3.381
-82.0,-337.0,3.382
-90.0,-610.0,3.383
-82.0,-853.0,3.384
-54.0,-941.0,3.385
-13.0,-776.0,3.386
23.0,-473.0,3.387
39.0,-269.0,3.388
45.0,-210.0,3.389
53.0,-117.0,3.39
60.0,62.0,3.391
51.0,166.0,3.392
33.0,156.0,3.393
20.0,271.0,3.394
8.0,618.0,3.395
-12.0,933.0,3.396
-30.0,976.0,3.397
-36.0,850.0,3.398
-37.0,787.0,3.399
-46.0,758.0,3.4
-58.0,603.0,3.401
-52.0,365.0,3.402
-25.0,191.0,3.403
2.0,64.0,3.404
14.0,-103.0,3.405
22.0,-264.0,3.406
43.0,-334.0,3.407
74.0,-357.0,3.408
96.0,-417.0,3.409
101.0,-480.0,3.41
97.0,-490.0,3.411
91.0,-485.0,3.412
74.0,-498.0,3.413
41.0,-473.0,3.414
7.0,-370.0,3.415
-8.0,-263.0,3.416
-5.0,-224.0,3.417
-4.0,-222.0,3.418
-14.0,-200.0,3.419
-35.0,-193.0,3.42
-55.0,-272.0,3.421
-62.0,-399.0,3.422
-51.0,-444.0,3.423
-34.0,-326.0,3.424
-29.0,-113.0,3.425
-38.0,40.0,3.426
-45.0,14.0,3.427
-47.0,-192.0,3.428
-58.0,-491.0,3.429
-77.0,-753.0,3.43
-75.0,-835.0,3.431
-27.0,-647.0,3.432
48.0,-229.0,3.433
100.0,253.0,3.434
110.0,651.0,3.435
105.0,934.0,3.436
96.0,1126.0,3.437
45.0,1223.0,3.438
-73.0,1196.0,3.439
-198.0,1080.0,3.44
-222.0,960.0,3.441
-127.0,862.0,3.442
-6.0,696.0,3.443
48.0,392.0,3.444
45.0,6.0,3.445
40.0,-314.0,3.446
45.0,-438.0,3.447
43.0,-377.0,3.448
37.0,-256.0,3.449
49.0,-194.0,3.45
70.0,-201.0,3.451
81.0,-202.0,3.452
92.0,-149.0,3.453
124.0,-57.0,3.454
167.0,36.0,3.455
186.0,111.0,3.456
173.0,156.0,3.457
140.0,151.0,3.458
99.0,93.0,3.459
43.0,4.0,3.46
-27.0,-76.0,3.461
-95.0,-121.0,3.462
-141.0,-141.0,3.463
-157.0,-155.0,3.464
-153.0,-164.0,3.465
-153.0,-165.0,3.466
-163.0,-206.0,3.467
-163.0,-385.0,3.468
-142.0,-722.0,3.469
-119.0,-1044.0,3.47
-111.0,-1085.0,3.471
-101.0,-783.0,3.472
-65.0,-404.0,3.473
-22.0,-251.0,3.474
-11.0,-299.0,3.475
-28.0,-266.0,3.476
-26.0,-36.0,3.477
8.0,300.0,3.478
48.0,596.0,3.479
82.0,832.0,3.48
97.0,1005.0,3.481
99.0,1061.0,3.482
58.0,990.0,3.483
25.0,868.0,3.484
18.0,720.0,3.485
12.0,523.0,3.486
14.0,329.0,3.487
28.0,233.0,3.488
74.0,186.0,3.489
115.0,35.0,3.49
139.0,-252.0,3.491
151.0,-559.0,3.492
126.0,-780.0,3.493
103.0,-856.0,3.494
88.0,-733.0,3.495
74.0,-464.0,3.496
63.0,-285.0,3.497
58.0,-369.0,3.498
62.0,-617.0,3.499
44.0,-786.0,3.5
36.0,-788.0,3.501
61.0,-647.0,3.502
84.0,-309.0,3.503
75.0,243.0,3.504
47.0,766.0,3.505
23.0,967.0,3.506
-9.0,897.0,3.507
-71.0,836.0,3.508
-148.0,871.0,3.509
-194.0,863.0,3.51
-196.0,762.0,3.511
-198.0,646.0,3.512
-242.0,489.0,3.513
-300.0,200.0,3.514
-290.0,-121.0,3.515
-192.0,-263.0,3.516
-80.0,-243.0,3.517
-12.0,-297.0,3.518
20.0,-554.0,3.519
56.0,-895.0,3.52
95.0,-1169.0,3.521
110.0,-1311.0,3.522
113.0,-1223.0,3.523
123.0,-784.0,3.524
130.0,-91.0,3.525
111.0,513.0,3.526
85.0,789.0,3.527
82.0,827.0,3.528
94.0,817.0,3.529
105.0,790.0,3.53
108.0,686.0,3.531
95.0,539.0,3.532
39.0,430.0,3.533
-65.0,347.0,3.534
-177.0,233.0,3.535
-242.0,109.0,3.536
-237.0,34.0,3.537
-178.0,-15.0,3.538
-98.0,-76.0,3.539
-38.0,-138.0,3.54
-7.0,-191.0,3.541
16.0,-275.0,3.542
47.0,-423.0,3.543
76.0,-569.0,3.544
86.0,-653.0,3.545
82.0,-759.0,3.546
84.0,-1016.0,3.547
85.0,-1324.0,3.548
72.0,-1351.0,3.549
52.0,-885.0,3.55
40.0,-135.0,3.551
45.0,453.0,3.552
62.0,660.0,3.553
91.0,629.0,3.554
124.0,589.0,3.555
130.0,610.0,3.556
96.0,657.0,3.557
34.0,721.0,3.558
-15.0,794.0,3.559
-58.0,814.0,3.56
-126.0,751.0,3.561
-196.0,663.0,3.562
-201.0,570.0,3.563
-137.0,426.0,3.564
-71.0,239.0,3.565
-48.0,97.0,3.566
-23.0,27.0,3.567
34.0,-62.0,3.568
79.0,-242.0,3.569
75.0,-483.0,3.57
58.0,-770.0,3.571
74.0,-1117.0,3.572
97.0,-1398.0,3.573
100.0,-1361.0,3.574
105.0,-945.0,3.575
123.0,-393.0,3.576
123.0,14.0,3.577
84.0,312.0,3.578
50.0,596.0,3.579
39.0,836.0,3.58
17.0,909.0,3.581
-41.0,818.0,3.582
-85.0,667.0,3.583
-87.0,503.0,3.584
-93.0,310.0,3.585
-122.0,114.0,3.586
-124.0,-11.0,3.587
-80.0,-75.0,3.588
-60.0,-143.0,3.589
-102.0,-232.0,3.59
-141.0,-302.0,3.591
-114.0,-369.0,3.592
-61.0,-506.0,3.593
-39.0,-708.0,3.594
-26.0,-822.0,3.595
19.0,-708.0,3.596
70.0,-437.0,3.597
91.0,-164.0,3.598
91.0,17.0,3.599
100.0,191.0,3.6
120.0,426.0,3.601
140.0,631.0,3.602
170.0,662.0,3.603
210.0,533.0,3.604
221.0,362.0,3.605
175.0,214.0,3.606
80.0,87.0,3.607
-44.0,5.0,3.608
-183.0,4.0,3.609
-314.0,52.0,3.61
-385.0,99.0,3.611
-353.0,140.0,3.612
-227.0,190.0,3.613
-78.0,219.0,3.614
15.0,201.0,3.615
29.0,157.0,3.616
13.0,103.0,3.617
9.0,-16.0,3.618
16.0,-218.0,3.619
2.0,-444.0,3.62
-13.0,-670.0,3.621
14.0,-964.0,3.622
79.0,-1330.0,3.623
129.0,-1543.0,3.624
140.0,-1326.0,3.625
135.0,-679.0,3.626
124.0,90.0,3.627
87.0,672.0,3.628
30.0,997.0,3.629
-8.0,1130.0,3.63
-4.0,1118.0,3.631
17.0,998.0,3.632
22.0,867.0,3.633
16.0,822.0,3.634
10.0,841.0,3.635
-3.0,801.0,3.636
-19.0,634.0,3.637
-15.0,343.0,3.638
15.0,61.0,3.639
40.0,-96.0,3.64
31.0,-134.0,3.641
16.0,-152.0,3.642
33.0,-211.0,3.643
70.0,-261.0,3.644
85.0,-243.0,3.645
86.0,-213.0,3.646
107.0,-254.0,3.647
130.0,-336.0,3.648
98.0,-392.0,3.649
3.0,-469.0,3.65
-66.0,-676.0,3.651
-42.0,-955.0,3.652
44.0,-1077.0,3.653
96.0,-909.0,3.654
72.0,-553.0,3.655
0.0,-191.0,3.656
-82.0,98.0,3.657
-181.0,375.0,3.658
-275.0,624.0,3.659
-318.0,773.0,3.66
-281.0,790.0,3.661
-190.0,727.0,3.662
-103.0,631.0,3.663
-53.0,522.0,3.664
-41.0,406.0,3.665
-40.0,303.0,3.666
-19.0,214.0,3.667
22.0,99.0,3.668
64.0,-100.0,3.669
88.0,-394.0,3.67
99.0,-714.0,3.671
106.0,-911.0,3.672
100.0,-847.0,3.673
80.0,-525.0,3.674
69.0,-143.0,3.675
73.0,83.0,3.676
73.0,130.0,3.677
54.0,135.0,3.678
46.0,193.0,3.679
72.0,251.0,3.68
112.0,224.0,3.681
130.0,143.0,3.682
119.0,91.0,3.683
94.0,89.0,3.684
49.0,84.0,3.685
-27.0,32.0,3.686
-126.0,-54.0,3.687
-217.0,-122.0,3.688
-269.0,-127.0,3.689
-263.0,-80.0,3.69
-205.0,-17.0,3.691
-141.0,47.0,3.692
-108.0,134.0,3.693
-99.0,223.0,3.694
-59.0,235.0,3.695
20.0,114.0,3.696
90.0,-70.0,3.697
119.0,-221.0,3.698
123.0,-258.0,3.699
134.0,-198.0,3.7
138.0,-119.0,3.701
116.0,-51.0,3.702
92.0,12.0,3.703
103.0,79.0,3.704
133.0,112.0,3.705
126.0,68.0,3.706
77.0,-41.0,3.707
32.0,-141.0,3.708
21.0,-159.0,3.709
26.0,-88.0,3.71
5.0,17.0,3.711
-54.0,92.0,3.712
-119.0,123.0,3.713
-145.0,149.0,3.714
-114.0,183.0,3.715
-52.0,151.0,3.716
-9.0,-20.0,3.717
-3.0,-347.0,3.718
-10.0,-673.0,3.719
-8.0,-796.0,3.72
4.0,-615.0,3.721
13.0,-198.0,3.722
25.0,263.0,3.723
46.0,600.0,3.724
64.0,783.0,3.725
68.0,867.0,3.726
71.0,852.0,3.727
98.0,688.0,3.728
144.0,387.0,3.729
181.0,67.0,3.73
178.0,-140.0,3.731
119.0,-182.0,3.732
8.0,-95.0,3.733
-126.0,33.0,3.734
-219.0,115.0,3.735
-224.0,120.0,3.736
-166.0,76.0,3.737
-100.0,5.0,3.738
-63.0,-69.0,3.739
-53.0,-107.0,3.74
-52.0,-75.0,3.741
-48.0,-5.0,3.742
-27.0,20.0,3.743
8.0,-13.0,3.744
36.0,-38.0,3.745
41.0,-40.0,3.746
57.0,-74.0,3.747
91.0,-166.0,3.748
94.0,-280.0,3.749
37.0,-404.0,3.75
-25.0,-552.0,3.751
-13.0,-659.0,3.752
44.0,-614.0,3.753
56.0,-409.0,3.754
5.0,-182.0,3.755
-37.0,-50.0,3.756
-29.0,-2.0,3.757
-20.0,30.0,3.758
-46.0,43.0,3.759
-69.0,-13.0,3.76
-81.0,-114.0,3.761
-74.0,-131.0,3.762
-12.0,18.0,3.763
28.0,272.0,3.764
-1.0,464.0,3.765
-35.0,491.0,3.766
-85.0,387.0,3.767
-126.0,268.0,3.768
-139.0,198.0,3.769
-133.0,149.0,3.77
-67.0,55.0,3.771
-8.0,-89.0,3.772
29.0,-206.0,3.773
60.0,-222.0,3.774
69.0,-153.0,3.775
80.0,-82.0,3.776
98.0,-52.0,3.777
109.0,-64.0,3.778
99.0,-142.0,3.779
117.0,-313.0,3.78
131.0,-454.0,3.781
108.0,-312.0,3.782
75.0,152.0,3.783
64.0,630.0,3.784
53.0,796.0,3.785
20.0,683.0,3.786
-11.0,552.0,3.787
-10.0,510.0,3.788
4.0,466.0,3.789
6.0,384.0,3.79
2.0,324.0,3.791
7.0,280.0,3.792
8.0,177.0,3.793
-10.0,17.0,3.794
-45.0,-116.0,3.795
-77.0,-209.0,3.796
-92.0,-295.0,3.797
-83.0,-388.0,3.798
-48.0,-450.0,3.799
-1.0,-504.0,3.8
37.0,-611.0,3.801
70.0,-748.0,3.802
108.0,-806.0,3.803
133.0,-702.0,3.804
124.0,-448.0,3.805
107.0,-154.0,3.806
118.0,60.0,3.807
132.0,158.0,3.808
86.0,199.0,3.809
-9.0,211.0,3.81
-68.0,133.0,3.811
-56.0,-62.0,3.812
-43.0,-283.0,3.813
-76.0,-434.0,3.814
-101.0,-539.0,3.815
-68.0,-582.0,3.816
-35.0,-414.0,3.817
-71.0,90.0,3.818
-151.0,709.0,3.819
-201.0,1099.0,3.82
-206.0,1224.0,3.821
-183.0,1298.0,3.822
-121.0,1337.0,3.823
-23.0,1144.0,3.824
46.0,711.0,3.825
49.0,293.0,3.826
48.0,7.0,3.827
90.0,-297.0,3.828
130.0,-708.0,3.829
121.0,-1063.0,3.83
93.0,-1179.0,3.831
82.0,-1065.0,3.832
61.0,-837.0,3.833
24.0,-573.0,3.834
19.0,-304.0,3.835
54.0,-35.0,3.836
66.0,217.0,3.837
23.0,438.0,3.838
-14.0,566.0,3.839
3.0,613.0,3.84
31.0,665.0,3.841
26.0,739.0,3.842
10.0,731.0,3.843
8.0,573.0,3.844
-25.0,327.0,3.845
-131.0,78.0,3.846
-259.0,-130.0,3.847
-307.0,-263.0,3.848
-244.0,-300.0,3.849
-125.0,-277.0,3.85
-21.0,-256.0,3.851
51.0,-243.0,3.852
119.0,-211.0,3.853
178.0,-182.0,3.854
181.0,-195.0,3.855
115.0,-222.0,3.856
47.0,-218.0,3.857
37.0,-208.0,3.858
74.0,-230.0,3.859
94.0,-268.0,3.86
69.0,-282.0,3.861
31.0,-277.0,3.862
9.0,-269.0,3.863
2.0,-224.0,3.864
16.0,-119.0,3.865
55.0,0.0,3.866
104.0,68.0,3.867
128.0,75.0,3.868
116.0,51.0,3.869
71.0,11.0,3.87
-4.0,-52.0,3.871
-106.0,-134.0,3.872
-197.0,-238.0,3.873
-227.0,-363.0,3.874
-183.0,-466.0,3.875
-91.0,-464.0,3.876
9.0,-337.0,3.877
93.0,-139.0,3.878
117.0,34.0,3.879
75.0,153.0,3.88
21.0,255.0,3.881
3.0,346.0,3.882
9.0,381.0,3.883
-6.0,358.0,3.884
-35.0,344.0,3.885
-38.0,396.0,3.886
-7.0,503.0,3.887
29.0,610.0,3.888
49.0,663.0,3.889
54.0,625.0,3.89
46.0,499.0,3.891
28.0,334.0,3.892
4.0,170.0,3.893
-17.0,7.0,3.894
-22.0,-144.0,3.895
1.0,-221.0,3.896
40.0,-211.0,3.897
61.0,-193.0,3.898
41.0,-238.0,3.899
5.0,-304.0,3.9
-5.0,-288.0,3.901
-1.0,-180.0,3.902
-8.0,-67.0,3.903
-19.0,3.0,3.904
1.0,62.0,3.905
59.0,125.0,3.906
119.0,145.0,3.907
135.0,71.0,3.908
73.0,-91.0,3.909
-59.0,-295.0,3.91
-193.0,-489.0,3.911
-233.0,-662.0,3.912
-151.0,-806.0,3.913
-39.0,-831.0,3.914
-3.0,-604.0,3.915
-54.0,-126.0,3.916
-108.0,350.0,3.917
-109.0,648.0,3.918
-69.0,753.0,3.919
-34.0,796.0,3.92
-14.0,808.0,3.921
19.0,724.0,3.922
69.0,569.0,3.923
110.0,454.0,3.924
122.0,384.0,3.925
110.0,269.0,3.926
84.0,108.0,3.927
47.0,-26.0,3.928
10.0,-133.0,3.929
-6.0,-271.0,3.93
-1.0,-422.0,3.931
-1.0,-514.0,3.932
-13.0,-551.0,3.933
-14.0,-572.0,3.934
10.0,-544.0,3.935
27.0,-406.0,3.936
11.0,-221.0,3.937
-21.0,-81.0,3.938
-26.0,-51.0,3.939
-4.0,-163.0,3.94
14.0,-455.0,3.941
13.0,-831.0,3.942
12.0,-977.0,3.943
19.0,-638.0,3.944
24.0,-1.0,3.945
26.0,467.0,3.946
26.0,582.0,3.947
8.0,576.0,3.948
-32.0,647.0,3.949
-55.0,687.0,3.95
-23.0,575.0,3.951
33.0,438.0,3.952
52.0,408.0,3.953
24.0,406.0,3.954
-21.0,345.0,3.955
-73.0,318.0,3.956
-120.0,385.0,3.957
-118.0,406.0,3.958
-40.0,255.0,3.959
36.0,33.0,3.96
18.0,-85.0,3.961
-51.0,-116.0,3.962
-60.0,-189.0,3.963
0.0,-335.0,3.964
50.0,-532.0,3.965
81.0,-783.0,3.966
146.0,-999.0,3.967
216.0,-979.0,3.968
203.0,-676.0,3.969
114.0,-310.0,3.97
50.0,-86.0,3.971
50.0,44.0,3.972
51.0,201.0,3.973
16.0,349.0,3.974
-18.0,419.0,3.975
-31.0,472.0,3.976
-48.0,576.0,3.977
-69.0,678.0,3.978
-62.0,668.0,3.979
-36.0,550.0,3.98
-46.0,408.0,3.981
-100.0,281.0,3.982
-144.0,155.0,3.983
-139.0,29.0,3.984
-102.0,-97.0,3.985
-69.0,-255.0,3.986
-37.0,-447.0,3.987
-1.0,-627.0,3.988
29.0,-738.0,3.989
43.0,-730.0,3.99
50.0,-564.0,3.991
66.0,-267.0,3.992
82.0,7.0,3.993
84.0,106.0,3.994
79.0,55.0,3.995
82.0,9.0,3.996
93.0,46.0,3.997
76.0,124.0,3.998
13.0,197.0,3.999
-74.0,283.0,4.0
-128.0,369.0,4.001
-110.0,383.0,4.002
-42.0,266.0,4.003
23.0,57.0,4.004
57.0,-148.0,4.005
70.0,-264.0,4.006
64.0,-260.0,4.007
26.0,-189.0,4.008
-44.0,-135.0,4.009
-106.0,-92.0,4.01
-119.0,-4.0,4.011
-91.0,89.0,4.012
-56.0,92.0,4.013
-22.0,46.0,4.014
14.0,72.0,4.015
38.0,131.0,4.016
32.0,87.0,4.017
2.0,-15.0,4.018
-11.0,56.0,4.019
1.0,324.0,4.02
18.0,513.0,4.021
35.0,470.0,4.022
66.0,351.0,4.023
106.0,287.0,4.024
119.0,179.0,4.025
95.0,-44.0,4.026
80.0,-250.0,4.027
106.0,-355.0,4.028
127.0,-463.0,4.029
78.0,-660.0,4.03
-31.0,-841.0,4.031
-103.0,-857.0,4.032
-74.0,-682.0,4.033
6.0,-376.0,4.034
45.0,-32.0,4.035
22.0,227.0,4.036
-8.0,348.0,4.037
-39.0,435.0,4.038
-94.0,591.0,4.039
-166.0,755.0,4.04
-185.0,787.0,4.041
-136.0,698.0,4.042
-94.0,589.0,4.043
-105.0,458.0,4.044
-112.0,234.0,4.045
-59.0,-47.0,4.046
15.0,-262.0,4.047
48.0,-380.0,4.048
51.0,-455.0,4.049
75.0,-486.0,4.05
105.0,-451.0,4.051
102.0,-411.0,4.052
73.0,-450.0,4.053
52.0,-545.0,4.054
45.0,-596.0,4.055
35.0,-565.0,4.056
28.0,-464.0,4.057
40.0,-249.0,4.058
64.0,96.0,4.059
82.0,462.0,4.06
92.0,686.0,4.061
91.0,728.0,4.062
66.0,676.0,4.063
10.0,603.0,4.064
-60.0,500.0,4.065
-125.0,353.0,4.066
-178.0,181.0,4.067
-202.0,-12.0,4.068
-167.0,-235.0,4.069
-85.0,-451.0,4.07
-2.0,-561.0,4.071
44.0,-500.0,4.072
62.0,-313.0,4.073
64.0,-118.0,4.074
49.0,-32.0,4.075
23.0,-102.0,4.076
17.0,-255.0,4.077
42.0,-358.0,4.078
78.0,-253.0,4.079
97.0,67.0,4.08
100.0,418.0,4.081
95.0,616.0,4.082
71.0,632.0,4.083
17.0,553.0,4.084
-46.0,445.0,4.085
-72.0,309.0,4.086
-42.0,131.0,4.087
12.0,-82.0,4.088
42.0,-296.0,4.089
31.0,-426.0,4.09
4.0,-401.0,4.091
-13.0,-269.0,4.092
-22.0,-145.0,4.093
-33.0,-48.0,4.094
-28.0,72.0,4.095
6.0,163.0,4.096
53.0,103.0,4.097
81.0,-96.0,4.098
83.0,-219.0,4.099
80.0,-151.0,4.1
78.0,-18.0,4.101
44.0,57.0,4.102
-27.0,110.0,4.103
-101.0,184.0,4.104
-140.0,192.0,4.105
-148.0,69.0,4.106
-145.0,-87.0,4.107
-133.0,-171.0,4.108
-101.0,-201.0,4.109
-61.0,-243.0,4.11
-34.0,-314.0,4.111
-14.0,-426.0,4.112
10.0,-572.0,4.113
35.0,-613.0,4.114
49.0,-388.0,4.115
70.0,48.0,4.116
105.0,422.0,4.117
126.0,610.0,4.118
93.0,650.0,4.119
13.0,606.0,4.12
-73.0,443.0,4.121
-144.0,188.0,4.122
-187.0,5.0,4.123
-159.0,3.0,4.124
-45.0,120.0,4.125
86.0,257.0,4.126
152.0,375.0,4.127
154.0,444.0,4.128
152.0,408.0,4.129
160.0,252.0,4.13
142.0,19.0,4.131
92.0,-268.0,4.132
50.0,-599.0,4.133
37.0,-924.0,4.134
30.0,-1138.0,4.135
8.0,-1109.0,4.136
-23.0,-790.0,4.137
-70.0,-212.0,4.138
-118.0,357.0,4.139
-132.0,673.0,4.14
-87.0,741.0,4.141
-17.0,735.0,4.142
22.0,710.0,4.143
23.0,611.0,4.144
18.0,462.0,4.145
16.0,359.0,4.146
6.0,304.0,4.147
-6.0,223.0,4.148
-9.0,114.0,4.149
-17.0,32.0,4.15
-45.0,-19.0,4.151
-73.0,-78.0,4.152
-57.0,-138.0,4.153
1.0,-183.0,4.154
52.0,-237.0,4.155
66.0,-307.0,4.156
56.0,-345.0,4.157
48.0,-341.0,4.158
52.0,-336.0,4.159
50.0,-349.0,4.16
36.0,-332.0,4.161
18.0,-266.0,4.162
7.0,-232.0,4.163
1.0,-292.0,4.164
1.0,-395.0,4.165
15.0,-435.0,4.166
44.0,-372.0,4.167
67.0,-249.0,4.168
60.0,-130.0,4.169
20.0,-58.0,4.17
-45.0,-13.0,4.171
-124.0,55.0,4.172
-190.0,181.0,4.173
-198.0,340.0,4.174
-145.0,487.0,4.175
-87.0,580.0,4.176
-61.0,574.0,4.177
-57.0,401.0,4.178
-39.0,57.0,4.179
-21.0,-345.0,4.18
-28.0,-607.0,4.181
-54.0,-574.0,4.182
-57.0,-294.0,4.183
-18.0,24.0,4.184
47.0,204.0,4.185
123.0,224.0,4.186
195.0,141.0,4.187
229.0,9.0,4.188
209.0,-88.0,4.189
159.0,-26.0,4.19
125.0,216.0,4.191
118.0,491.0,4.192
101.0,623.0,4.193
61.0,586.0,4.194
30.0,476.0,4.195
35.0,390.0,4.196
44.0,372.0,4.197
11.0,411.0,4.198
-51.0,424.0,4.199
-94.0,316.0,4.2
-94.0,82.0,4.201
-79.0,-175.0,4.202
-74.0,-380.0,4.203
-66.0,-506.0,4.204
-36.0,-520.0,4.205
8.0,-414.0,4.206
48.0,-281.0,4.207
53.0,-222.0,4.208
8.0,-227.0,4.209
-67.0,-230.0,4.21
-120.0,-255.0,4.211
-124.0,-357.0,4.212
-122.0,-472.0,4.213
-144.0,-451.0,4.214
-152.0,-251.0,4.215
-98.0,20.0,4.216
-7.0,243.0,4.217
68.0,427.0,4.218
109.0,592.0,4.219
129.0,706.0,4.22
129.0,662.0,4.221
98.0,572.0,4.222
60.0,348.0,4.223
37.0,137.0,4.224
5.0,-35.0,4.225
-62.0,-184.0,4.226
-126.0,-266.0,4.227
-123.0,-326.0,4.228
-50.0,-312.0,4.229
36.0,-309.0,4.23
96.0,-339.0,4.231
132.0,-384.0,4.232
154.0,-474.0,4.233
159.0,-542.0,4.234
144.0,-540.0,4.235
107.0,-485.0,4.236
51.0,-275.0,4.237
-14.0,-56.0,4.238
-51.0,163.0,4.239
-83.0,313.0,4.24
-97.0,378.0,4.241
-115.0,327.0,4.242
-140.0,148.0,4.243
-155.0,-59.0,4.244
-137.0,-134.0,4.245
-116.0,-25.0,4.246
-86.0,135.0,4.247
-53.0,175.0,4.248
-14.0,87.0,4.249
29.0,7.0,4.25
81.0,21.0,4.251
121.0,77.0,4.252
126.0,115.0,4.253
121.0,155.0,4.254
85.0,220.0,4.255
55.0,264.0,4.256
47.0,227.0,4.257
31.0,97.0,4.258
-4.0,-60.0,4.259
13.0,-166.0,4.26
74.0,-148.0,4.261
110.0,9.0,4.262
97.0,222.0,4.263
72.0,366.0,4.264
53.0,402.0,4.265
16.0,375.0,4.266
-31.0,313.0,4.267
-45.0,204.0,4.268
-25.0,70.0,4.269
-25.0,-20.0,4.27
-58.0,-66.0,4.271
-69.0,-146.0,4.272
-40.0,-290.0,4.273
-32.0,-401.0,4.274
-69.0,-377.0,4.275
-95.0,-249.0,4.276
-65.0,-132.0,4.277
-17.0,-82.0,4.278
-3.0,-74.0,4.279
-21.0,-67.0,4.28
-27.0,-34.0,4.281
-20.0,38.0,4.282
-19.0,142.0,4.283
-16.0,225.0,4.284
-1.0,233.0,4.285
15.0,153.0,4.286
16.0,10.0,4.287
11.0,-155.0,4.288
11.0,-290.0,4.289
3.0,-331.0,4.29
-10.0,-257.0,4.291
0.0,-112.0,4.292
44.0,31.0,4.293
85.0,119.0,4.294
71.0,135.0,4.295
16.0,80.0,4.296
-23.0,-25.0,4.297
-28.0,-158.0,4.298
-20.0,-264.0,4.299
-20.0,-317.0,4.3
-10.0,-349.0,4.301
25.0,-378.0,4.302
55.0,-357.0,4.303
47.0,-217.0,4.304
25.0,17.0,4.305
21.0,227.0,4.306
23.0,330.0,4.307
-4.0,376.0,4.308
-45.0,432.0,4.309
-42.0,472.0,4.31
7.0,442.0,4.311
52.0,370.0,4.312
49.0,328.0,4.313
24.0,316.0,4.314
6.0,269.0,4.315
-1.0,172.0,4.316
-9.0,76.0,4.317
-15.0,-13.0,4.318
-21.0,-111.0,4.319
-31.0,-207.0,4.32
-32.0,-257.0,4.321
-4.0,-249.0,4.322
47.0,-220.0,4.323
75.0,-188.0,4.324
51.0,-138.0,4.325
0.0,-80.0,4.326
-40.0,-61.0,4.327
-53.0,-95.0,4.328
-36.0,-129.0,4.329
3.0,-125.0,4.33
41.0,-105.0,4.331
57.0,-93.0,4.332
52.0,-71.0,4.333
42.0,-24.0,4.334
31.0,17.0,4.335
16.0,16.0,4.336
-8.0,-11.0,4.337
-41.0,-44.0,4.338
-70.0,-68.0,4.339
-92.0,-93.0,4.34
-89.0,-129.0,4.341
-57.0,-181.0,4.342
-11.0,-239.0,4.343
20.0,-249.0,4.344
19.0,-151.0,4.345
7.0,40.0,4.346
13.0,231.0,4.347
38.0,365.0,4.348
57.0,444.0,4.349
56.0,455.0,4.35
37.0,366.0,4.351
17.0,202.0,4.352
2.0,48.0,4.353
-10.0,-55.0,4.354
-21.0,-126.0,4.355
-27.0,-162.0,4.356
-20.0,-146.0,4.357
-2.0,-101.0,4.358
16.0,-68.0,4.359
15.0,-27.0,4.36
2.0,56.0,4.361
-1.0,151.0,4.362
16.0,196.0,4.363
41.0,210.0,4.364
49.0,248.0,4.365
36.0,278.0,4.366
21.0,221.0,4.367
15.0,91.0,4.368
9.0,-26.0,4.369
-1.0,-94.0,4.37
-9.0,-131.0,4.371
-13.0,-140.0,4.372
-22.0,-116.0,4.373
-45.0,-89.0,4.374
-72.0,-94.0,4.375
-87.0,-117.0,4.376
-82.0,-135.0,4.377
-67.0,-160.0,4.378
-39.0,-186.0,4.379
-7.0,-183.0,4.38
29.0,-144.0,4.381
69.0,-104.0,4.382
107.0,-92.0,4.383
122.0,-88.0,4.384
100.0,-77.0,4.385
57.0,-71.0,4.386
23.0,-63.0,4.387
8.0,-23.0,4.388
-2.0,40.0,4.389
-29.0,78.0,4.39
-75.0,75.0,4.391
-114.0,64.0,4.392
-119.0,56.0,4.393
-90.0,34.0,4.394
-56.0,2.0,4.395
-40.0,-7.0,4.396
-29.0,1.0,4.397
-10.0,1.0,4.398
7.0,3.0,4.399
20.0,50.0,4.4
14.0,130.0,4.401
19.0,188.0,4.402
57.0,182.0,4.403
83.0,133.0,4.404
70.0,79.0,4.405
59.0,25.0,4.406
54.0,-27.0,4.407
47.0,-64.0,4.408
37.0,-68.0,4.409
27.0,-49.0,4.41
21.0,-25.0,4.411
18.0,-12.0,4.412
27.0,-21.0,4.413
34.0,-44.0,4.414
33.0,-57.0,4.415
32.0,-50.0,4.416
33.0,-34.0,4.417
34.0,-30.0,4.418
21.0,-34.0,4.419
-1.0,-27.0,4.42
-26.0,-22.0,4.421
-45.0,-37.0,4.422
-52.0,-71.0,4.423
-49.0,-82.0,4.424
-42.0,-43.0,4.425
-34.0,17.0,4.426
-27.0,55.0,4.427
-16.0,69.0,4.428
-4.0,74.0,4.429
0.0,75.0,4.43
-3.0,65.0,4.431
-7.0,49.0,4.432
-3.0,45.0,4.433
10.0,49.0,4.434
23.0,45.0,4.435
24.0,27.0,4.436
20.0,-2.0,4.437
15.0,-56.0,4.438
10.0,-139.0,4.439
-7.0,-238.0,4.44
-23.0,-334.0,4.441
-22.0,-404.0,4.442
0.0,-426.0,4.443
22.0,-362.0,4.444
26.0,-208.0,4.445
25.0,-11.0,4.446
27.0,167.0,4.447
18.0,318.0,4.448
-4.0,456.0,4.449
-17.0,566.0,4.45
-9.0,600.0,4.451
1.0,523.0,4.452
-5.0,350.0,4.453
-20.0,150.0,4.454
-30.0,22.0,4.455
-38.0,25.0,4.456
-47.0,100.0,4.457
-50.0,150.0,4.458
-37.0,133.0,4.459
-12.0,78.0,4.46
20.0,0.0,4.461
54.0,-115.0,4.462
79.0,-239.0,4.463
83.0,-292.0,4.464
64.0,-246.0,4.465
42.0,-161.0,4.466
30.0,-89.0,4.467
22.0,-30.0,4.468
10.0,1.0,4.469
3.0,-23.0,4.47
6.0,-83.0,4.471
4.0,-110.0,4.472
-8.0,-85.0,4.473
-19.0,-48.0,4.474
-12.0,-18.0,4.475
-3.0,12.0,4.476
-7.0,29.0,4.477
-30.0,-6.0,4.478
-52.0,-66.0,4.479
-70.0,-86.0,4.48
-76.0,-60.0,4.481
-78.0,-38.0,4.482
-64.0,-37.0,4.483
-50.0,-13.0,4.484
-39.0,47.0,4.485
-26.0,82.0,4.486
-5.0,53.0,4.487
16.0,2.0,4.488
36.0,-8.0,4.489
50.0,13.0,4.49
48.0,18.0,4.491
41.0,-7.0,4.492
23.0,-34.0,4.493
9.0,-45.0,4.494
6.0,-60.0,4.495
12.0,-93.0,4.496
46.0,-123.0,4.497
77.0,-120.0,4.498
81.0,-69.0,4.499
73.0,-11.0,4.5
71.0,13.0,4.501
73.0,10.0,4.502
63.0,5.0,4.503
34.0,12.0,4.504
-2.0,27.0,4.505
-21.0,37.0,4.506
-12.0,38.0,4.507
3.0,25.0,4.508
-1.0,-5.0,4.509
-20.0,-57.0,4.51
-29.0,-145.0,4.511
-18.0,-264.0,4.512
-10.0,-404.0,4.513
-27.0,-541.0,4.514
-56.0,-629.0,4.515
-70.0,-591.0,4.516
-63.0,-400.0,4.517
-45.0,-96.0,4.518
-20.0,186.0,4.519
4.0,380.0,4.52
26.0,512.0,4.521
53.0,602.0,4.522
88.0,609.0,4.523
110.0,546.0,4.524
93.0,510.0,4.525
47.0,538.0,4.526
9.0,539.0,4.527
-13.0,448.0,4.528
-42.0,335.0,4.529
-79.0,277.0,4.53
-95.0,257.0,4.531
-70.0,236.0,4.532
-28.0,246.0,4.533
-3.0,303.0,4.534
2.0,330.0,4.535
10.0,256.0,4.536
25.0,119.0,4.537
33.0,-40.0,4.538
37.0,-198.0,4.539
51.0,-335.0,4.54
76.0,-406.0,4.541
78.0,-460.0,4.542
41.0,-462.0,4.543
-12.0,-501.0,4.544
-40.0,-652.0,4.545
-35.0,-797.0,4.546
-23.0,-923.0,4.547
-26.0,-998.0,4.548
-38.0,-915.0,4.549
-47.0,-776.0,4.55
-46.0,-469.0,4.551
-44.0,-135.0,4.552
-47.0,278.0,4.553
-50.0,634.0,4.554
-46.0,816.0,4.555
-44.0,953.0,4.556
-54.0,951.0,4.557
-71.0,923.0,4.558
-67.0,780.0,4.559
-55.0,618.0,4.56
-25.0,473.0,4.561
4.0,321.0,4.562
29.0,149.0,4.563
57.0,17.0,4.564
91.0,-47.0,4.565
116.0,-92.0,4.566
110.0,-155.0,4.567
105.0,-196.0,4.568
104.0,-204.0,4.569
102.0,-228.0,4.57
100.0,-290.0,4.571
91.0,-331.0,4.572
59.0,-317.0,4.573
37.0,-290.0,4.574
46.0,-284.0,4.575
44.0,-270.0,4.576
8.0,-232.0,4.577
-40.0,-201.0,4.578
-121.0,-193.0,4.579
-172.0,-175.0,4.58
-189.0,-139.0,4.581
-186.0,-117.0,4.582
-166.0,-122.0,4.583
-125.0,-113.0,4.584
-70.0,-63.0,4.585
-27.0,-8.0,4.586
-21.0,30.0,4.587
-33.0,66.0,4.588
-17.0,110.0,4.589
43.0,122.0,4.59
92.0,75.0,4.591
80.0,13.0,4.592
40.0,1.0,4.593
38.0,39.0,4.594
83.0,82.0,4.595
117.0,122.0,4.596
115.0,173.0,4.597
89.0,211.0,4.598
63.0,182.0,4.599
40.0,82.0,4.6
42.0,-13.0,4.601
85.0,-38.0,4.602
140.0,-19.0,4.603
155.0,2.0,4.604
120.0,42.0,4.605
79.0,104.0,4.606
48.0,144.0,4.607
5.0,118.0,4.608
-59.0,66.0,4.609
-115.0,44.0,4.61
-136.0,40.0,4.611
-126.0,13.0,4.612
-102.0,-19.0,4.613
-69.0,-12.0,4.614
-29.0,19.0,4.615
9.0,28.0,4.616
39.0,9.0,4.617
47.0,-8.0,4.618
20.0,-19.0,4.619
-36.0,-41.0,4.62
-81.0,-58.0,4.621
-76.0,-37.0,4.622
-30.0,-3.0,4.623
11.0,1.0,4.624
23.0,-24.0,4.625
20.0,-46.0,4.626
16.0,-62.0,4.627
-8.0,-99.0,4.628
-51.0,-156.0,4.629
-74.0,-199.0,4.63
-42.0,-191.0,4.631
21.0,-143.0,4.632
56.0,-96.0,4.633
51.0,-91.0,4.634
42.0,-112.0,4.635
37.0,-92.0,4.636
10.0,0.0,4.637
-42.0,117.0,4.638
-67.0,193.0,4.639
-46.0,233.0,4.64
-17.0,290.0,4.641
-15.0,363.0,4.642
-15.0,390.0,4.643
10.0,345.0,4.644
43.0,257.0,4.645
53.0,152.0,4.646
46.0,27.0,4.647
46.0,-104.0,4.648
43.0,-217.0,4.649
19.0,-294.0,4.65
-22.0,-313.0,4.651
-62.0,-261.0,4.652
-80.0,-185.0,4.653
-53.0,-173.0,4.654
14.0,-234.0,4.655
70.0,-275.0,4.656
69.0,-222.0,4.657
34.0,-98.0,4.658
30.0,27.0,4.659
61.0,133.0,4.66
71.0,235.0,4.661
45.0,327.0,4.662
33.0,367.0,4.663
41.0,343.0,4.664
24.0,290.0,4.665
-25.0,231.0,4.666
-53.0,164.0,4.667
-44.0,84.0,4.668
-48.0,-8.0,4.669
-73.0,-109.0,4.67
-66.0,-198.0,4.671
0.0,-242.0,4.672
76.0,-232.0,4.673
116.0,-192.0,4.674
115.0,-151.0,4.675
78.0,-105.0,4.676
25.0,-55.0,4.677
-20.0,-11.0,4.678
-31.0,18.0,4.679
-37.0,40.0,4.68
-72.0,59.0,4.681
-100.0,68.0,4.682
-75.0,41.0,4.683
-23.0,-13.0,4.684
-9.0,-55.0,4.685
-29.0,-36.0,4.686
-29.0,43.0,4.687
-2.0,116.0,4.688
11.0,118.0,4.689
-6.0,65.0,4.69
-19.0,22.0,4.691
-10.0,9.0,4.692
8.0,-12.0,4.693
16.0,-68.0,4.694
4.0,-116.0,4.695
-23.0,-118.0,4.696
-34.0,-88.0,4.697
0.0,-52.0,4.698
60.0,-13.0,4.699
75.0,26.0,4.7
19.0,45.0,4.701
-48.0,37.0,4.702
-61.0,17.0,4.703
-29.0,3.0,4.704
4.0,-13.0,4.705
23.0,-40.0,4.706
38.0,-63.0,4.707
44.0,-63.0,4.708
28.0,-51.0,4.709
8.0,-42.0,4.71
9.0,-35.0,4.711
24.0,-18.0,4.712
28.0,8.0,4.713
8.0,30.0,4.714
-25.0,29.0,4.715
-54.0,12.0,4.716
-56.0,6.0,4.717
-18.0,17.0,4.718
47.0,28.0,4.719
96.0,18.0,4.72
88.0,-8.0,4.721
31.0,-18.0,4.722
-26.0,-13.0,4.723
-48.0,-19.0,4.724
-29.0,-33.0,4.725
20.0,-35.0,4.726
82.0,-15.0,4.727
118.0,6.0,4.728
91.0,18.0,4.729
20.0,32.0,4.73
-42.0,47.0,4.731
-79.0,47.0,4.732
-117.0,16.0,4.733
-152.0,-32.0,4.734
-136.0,-78.0,4.735
-71.0,-108.0,4.736
-21.0,-110.0,4.737
-15.0,-85.0,4.738
-4.0,-46.0,4.739
41.0,-25.0,4.74
80.0,-35.0,4.741
69.0,-41.0,4.742
47.0,-7.0,4.743
57.0,86.0,4.744
66.0,214.0,4.745
24.0,320.0,4.746
-40.0,353.0,4.747
-60.0,308.0,4.748
-32.0,230.0,4.749
0.0,158.0,4.75
21.0,77.0,4.751
41.0,-22.0,4.752
54.0,-121.0,4.753
41.0,-193.0,4.754
28.0,-233.0,4.755
59.0,-243.0,4.756
119.0,-217.0,4.757
144.0,-158.0,4.758
93.0,-85.0,4.759
17.0,-21.0,4.76
-8.0,25.0,4.761
23.0,51.0,4.762
60.0,43.0,4.763
55.0,13.0,4.764
-8.0,-12.0,4.765
-113.0,-22.0,4.766
-198.0,-35.0,4.767
-190.0,-64.0,4.768
-94.0,-97.0,4.769
-5.0,-106.0,4.77
12.0,-70.0,4.771
3.0,4.0,4.772
36.0,87.0,4.773
83.0,147.0,4.774
74.0,176.0,4.775
9.0,188.0,4.776
-31.0,180.0,4.777
-21.0,127.0,4.778
3.0,35.0,4.779
-1.0,-56.0,4.78
-13.0,-104.0,4.781
4.0,-103.0,4.782
36.0,-74.0,4.783
38.0,-32.0,4.784
13.0,15.0,4.785
-5.0,58.0,4.786
-22.0,82.0,4.787
-65.0,77.0,4.788
-97.0,44.0,4.789
-57.0,-8.0,4.79
34.0,-50.0,4.791
84.0,-72.0,4.792
68.0,-86.0,4.793
41.0,-96.0,4.794
19.0,-88.0,4.795
-31.0,-58.0,4.796
-86.0,-27.0,4.797
-93.0,-14.0,4.798
-61.0,-3.0,4.799
-81.0,15.0,4.8
-135.0,21.0,4.801
-112.0,6.0,4.802
-13.0,-7.0,4.803
16.0,-2.0,4.804
-65.0,1.0,4.805
-111.0,-20.0,4.806
-17.0,-44.0,4.807
125.0,-44.0,4.808
189.0,-47.0,4.809
197.0,-111.0,4.81
218.0,-241.0,4.811
212.0,-364.0,4.812
121.0,-399.0,4.813
-9.0,-322.0,4.814
-90.0,-168.0,4.815
-121.0,13.0,4.816
-145.0,186.0,4.817
-154.0,345.0,4.818
-104.0,457.0,4.819
-14.0,486.0,4.82
41.0,433.0,4.821
48.0,333.0,4.822
44.0,232.0,4.823
37.0,160.0,4.824
1.0,121.0,4.825
-64.0,92.0,4.826
-101.0,57.0,4.827
-63.0,21.0,4.828
35.0,-4.0,4.829
136.0,-25.0,4.83
192.0,-61.0,4.831
182.0,-102.0,4.832
135.0,-122.0,4.833
102.0,-118.0,4.834
97.0,-109.0,4.835
75.0,-102.0,4.836
15.0,-87.0,4.837
-50.0,-73.0,4.838
-70.0,-82.0,4.839
-61.0,-118.0,4.84
-65.0,-161.0,4.841
-67.0,-179.0,4.842
-39.0,-163.0,4.843
-17.0,-120.0,4.844
-51.0,-55.0,4.845
-104.0,19.0,4.846
-92.0,96.0,4.847
-20.0,163.0,4.848
27.0,200.0,4.849
17.0,182.0,4.85
-6.0,118.0,4.851
-19.0,32.0,4.852
-38.0,-61.0,4.853
-56.0,-154.0,4.854
-32.0,-205.0,4.855
21.0,-176.0,4.856
52.0,-89.0,4.857
54.0,11.0,4.858
63.0,90.0,4.859
82.0,144.0,4.86
69.0,173.0,4.861
17.0,165.0,4.862
-23.0,122.0,4.863
-28.0,73.0,4.864
-10.0,36.0,4.865
27.0,1.0,4.866
85.0,-37.0,4.867
121.0,-64.0,4.868
74.0,-64.0,4.869
-44.0,-44.0,4.87
-147.0,-32.0,4.871
-169.0,-46.0,4.872
-141.0,-76.0,4.873
-116.0,-97.0,4.874
-99.0,-97.0,4.875
-53.0,-89.0,4.876
13.0,-85.0,4.877
50.0,-87.0,4.878
40.0,-86.0,4.879
36.0,-78.0,4.88
49.0,-62.0,4.881
57.0,-24.0,4.882
51.0,33.0,4.883
43.0,87.0,4.884
26.0,106.0,4.885
17.0,88.0,4.886
35.0,66.0,4.887
50.0,80.0,4.888
55.0,120.0,4.889
49.0,141.0,4.89
7.0,123.0,4.891
-19.0,83.0,4.892
5.0,47.0,4.893
23.0,14.0,4.894
26.0,-16.0,4.895
42.0,-29.0,4.896
94.0,-18.0,4.897
151.0,-2.0,4.898
177.0,-3.0,4.899
84.0,-30.0,4.9
-93.0,-90.0,4.901
-264.0,-168.0,4.902
-349.0,-223.0,4.903
-322.0,-210.0,4.904
-208.0,-133.0,4.905
-60.0,-38.0,4.906
69.0,48.0,4.907
141.0,128.0,4.908
133.0,181.0,4.909
56.0,179.0,4.91
-18.0,131.0,4.911
-11.0,88.0,4.912
73.0,76.0,4.913
154.0,62.0,4.914
174.0,19.0,4.915
148.0,-27.0,4.916
108.0,-55.0,4.917
33.0,-83.0,4.918
-56.0,-113.0,4.919
-103.0,-114.0,4.92
-80.0,-65.0,4.921
-32.0,2.0,4.922
-5.0,30.0,4.923
10.0,23.0,4.924
36.0,41.0,4.925
47.0,107.0,4.926
29.0,173.0,4.927
11.0,183.0,4.928
25.0,132.0,4.929
42.0,52.0,4.93
39.0,-23.0,4.931
36.0,-68.0,4.932
57.0,-74.0,4.933
66.0,-65.0,4.934
16.0,-66.0,4.935
-70.0,-61.0,4.936
-114.0,-35.0,4.937
-90.0,-8.0,4.938
-47.0,-19.0,4.939
-43.0,-66.0,4.94
-50.0,-101.0,4.941
-4.0,-98.0,4.942
70.0,-87.0,4.943
72.0,-84.0,4.944
-23.0,-71.0,4.945
-122.0,-46.0,4.946
-163.0,-30.0,4.947
-188.0,-26.0,4.948
-210.0,-6.0,4.949
-149.0,35.0,4.95
5.0,65.0,4.951
124.0,64.0,4.952
115.0,53.0,4.953
60.0,50.0,4.954
54.0,39.0,4.955
66.0,12.0,4.956
46.0,-11.0,4.957
36.0,-10.0,4.958
74.0,11.0,4.959
95.0,39.0,4.96
61.0,52.0,4.961
39.0,46.0,4.962
54.0,24.0,4.963
64.0,9.0,4.964
55.0,13.0,4.965
46.0,24.0,4.966
40.0,21.0,4.967
34.0,6.0,4.968
32.0,-2.0,4.969
21.0,-1.0,4.97
-14.0,-4.0,4.971
-36.0,-9.0,4.972
-15.0,-8.0,4.973
1.0,-2.0,4.974
1.0,-3.0,4.975
4.0,-18.0,4.976
13.0,-36.0,4.977
17.0,-52.0,4.978
-4.0,-53.0,4.979
-39.0,-39.0,4.98
-65.0,-17.0,4.981
-76.0,17.0,4.982
-68.0,55.0,4.983
-46.0,81.0,4.984
-20.0,77.0,4.985
1.0,43.0,4.986
26.0,2.0,4.987
55.0,-26.0,4.988
65.0,-50.0,4.989
41.0,-80.0,4.99
-8.0,-103.0,4.991
-51.0,-102.0,4.992
-67.0,-82.0,4.993
-56.0,-58.0,4.994
-29.0,-30.0,4.995
4.0,9.0,4.996
32.0,50.0,4.997
54.0,72.0,4.998
62.0,71.0,4.999
63.0,46.0,5.0
55.0,-8.0,5.001
26.0,-84.0,5.002
-25.0,-144.0,5.003
-84.0,-151.0,5.004
-111.0,-101.0,5.005
-80.0,-32.0,5.006
-16.0,27.0,5.007
23.0,92.0,5.008
5.0,175.0,5.009
-36.0,259.0,5.01
-49.0,295.0,5.011
-25.0,264.0,5.012
3.0,193.0,5.013
11.0,126.0,5.014
15.0,72.0,5.015
31.0,12.0,5.016
43.0,-60.0,5.017
3.0,-142.0,5.018
-102.0,-196.0,5.019
-231.0,-199.0,5.02
-310.0,-167.0,5.021
-279.0,-126.0,5.022
-113.0,-82.0,5.023
132.0,-16.0,5.024
329.0,72.0,5.025
385.0,136.0,5.026
338.0,132.0,5.027
291.0,78.0,5.028
257.0,26.0,5.029
178.0,-8.0,5.03
79.0,-41.0,5.031
50.0,-69.0,5.032
84.0,-67.0,5.033
70.0,-27.0,5.034
-21.0,18.0,5.035
-92.0,32.0,5.036
-94.0,15.0,5.037
-95.0,-16.0,5.038
-128.0,-29.0,5.039
-142.0,-25.0,5.04
-94.0,-34.0,5.041
-50.0,-53.0,5.042
-18.0,-53.0,5.043
12.0,-28.0,5.044
35.0,-15.0,5.045
43.0,-31.0,5.046
5.0,-41.0,5.047
-15.0,-21.0,5.048
14.0,-3.0,5.049
26.0,-12.0,5.05
-22.0,-25.0,5.051
-64.0,-14.0,5.052
-86.0,1.0,5.053
-107.0,0.0,5.054
-126.0,-3.0,5.055
-131.0,7.0,5.056
-90.0,16.0,5.057
-48.0,-1.0,5.058
-33.0,-26.0,5.059
-42.0,-25.0,5.06
-20.0,-2.0,5.061
28.0,15.0,5.062
46.0,7.0,5.063
31.0,-9.0,5.064
29.0,-6.0,5.065
49.0,18.0,5.066
57.0,39.0,5.067
48.0,34.0,5.068
45.0,14.0,5.069
50.0,2.0,5.07
44.0,2.0,5.071
29.0,-2.0,5.072
32.0,-12.0,5.073
50.0,-10.0,5.074
58.0,7.0,5.075
49.0,25.0,5.076
37.0,34.0,5.077
11.0,37.0,5.078
-42.0,38.0,5.079
-102.0,30.0,5.08
-115.0,-3.0,5.081
-65.0,-31.0,5.082
7.0,-43.0,5.083
53.0,-46.0,5.084
58.0,-20.0,5.085
37.0,3.0,5.086
9.0,20.0,5.087
-9.0,30.0,5.088
-7.0,16.0,5.089
2.0,3.0,5.09
6.0,-10.0,5.091
2.0,-16.0,5.092
-2.0,1.0,5.093
-9.0,17.0,5.094
-22.0,26.0,5.095
-17.0,33.0,5.096
16.0,29.0,5.097
60.0,24.0,5.098
90.0,23.0,5.099
111.0,20.0,5.1
101.0,5.0,5.101
72.0,-8.0,5.102
-10.0,-19.0,5.103
-73.0,-24.0,5.104
-73.0,-27.0,5.105
-66.0,-34.0,5.106
-43.0,-37.0,5.107
-17.0,-30.0,5.108
17.0,-17.0,5.109
39.0,-13.0,5.11
20.0,-16.0,5.111
0.0,-3.0,5.112
-26.0,29.0,5.113
-45.0,51.0,5.114
-41.0,46.0,5.115
-35.0,29.0,5.116
-29.0,19.0,5.117
-10.0,7.0,5.118
24.0,-9.0,5.119
7.0,-21.0,5.12
-20.0,-19.0,5.121
-4.0,-18.0,5.122
37.0,-24.0,5.123
61.0,-26.0,5.124
68.0,-14.0,5.125
65.0,-4.0,5.126
39.0,-2.0,5.127
-9.0,-4.0,5.128
-54.0,-23.0,5.129
-77.0,-39.0,5.13
-70.0,-44.0,5.131
-22.0,-44.0,5.132
50.0,-29.0,5.133
84.0,-14.0,5.134
52.0,-3.0,5.135
3.0,14.0,5.136
-12.0,53.0,5.137
-8.0,95.0,5.138
-15.0,131.0,5.139
-23.0,138.0,5.14
-37.0,128.0,5.141
-49.0,117.0,5.142
-49.0,84.0,5.143
-41.0,26.0,5.144
-15.0,-24.0,5.145
1.0,-40.0,5.146
-15.0,-32.0,5.147
-26.0,-26.0,5.148
-18.0,-25.0,5.149
-9.0,-15.0,5.15
5.0,-9.0,5.151
11.0,-37.0,5.152
-8.0,-111.0,5.153
-29.0,-195.0,5.154
-58.0,-254.0,5.155
-77.0,-287.0,5.156
-62.0,-299.0,5.157
18.0,-262.0,5.158
3.0,-132.0,5.159
-17.0,62.0,5.16
-55.0,214.0,5.161
-84.0,262.0,5.162
-83.0,243.0,5.163
-65.0,231.0,5.164
1.0,235.0,5.165
42.0,219.0,5.166
1.0,172.0,5.167
-25.0,120.0,5.168
-6.0,75.0,5.169
16.0,22.0,5.17
50.0,-35.0,5.171
65.0,-67.0,5.172
18.0,-54.0,5.173
-35.0,-20.0,5.174
-106.0,-1.0,5.175
-151.0,-7.0,5.176
-114.0,-22.0,5.177
-58.0,-41.0,5.178
54.0,-66.0,5.179
130.0,-99.0,5.18
143.0,-127.0,5.181
111.0,-125.0,5.182
84.0,-100.0,5.183
97.0,-68.0,5.184
126.0,-30.0,5.185
121.0,20.0,5.186
72.0,64.0,5.187
17.0,72.0,5.188
-15.0,49.0,5.189
-37.0,26.0,5.19
-55.0,12.0,5.191
-54.0,-11.0,5.192
-39.0,-43.0,5.193
-49.0,-58.0,5.194
-97.0,-46.0,5.195
-134.0,-29.0,5.196
-123.0,-25.0,5.197
-88.0,-25.0,5.198
-75.0,-7.0,5.199
-70.0,29.0,5.2
-42.0,53.0,5.201
-5.0,47.0,5.202
21.0,1.0,5.203
39.0,-60.0,5.204
61.0,-106.0,5.205
71.0,-133.0,5.206
68.0,-162.0,5.207
63.0,-193.0,5.208
65.0,-183.0,5.209
59.0,-104.0,5.21
50.0,12.0,5.211
53.0,108.0,5.212
66.0,165.0,5.213
66.0,195.0,5.214
55.0,209.0,5.215
47.0,204.0,5.216
44.0,199.0,5.217
8.0,199.0,5.218
-57.0,202.0,5.219
-116.0,189.0,5.22
-153.0,151.0,5.221
-183.0,107.0,5.222
-195.0,67.0,5.223
-183.0,17.0,5.224
-101.0,-57.0,5.225
-11.0,-147.0,5.226
99.0,-215.0,5.227
189.0,-236.0,5.228
215.0,-238.0,5.229
225.0,-253.0,5.23
180.0,-264.0,5.231
131.0,-223.0,5.232
72.0,-130.0,5.233
20.0,-37.0,5.234
-7.0,14.0,5.235
-29.0,38.0,5.236
-37.0,49.0,5.237
-38.0,46.0,5.238
-35.0,54.0,5.239
-61.0,112.0,5.24
-84.0,210.0,5.241
-62.0,282.0,5.242
4.0,265.0,5.243
83.0,167.0,5.244
117.0,39.0,5.245
47.0,-85.0,5.246
-94.0,-181.0,5.247
-180.0,-214.0,5.248
-135.0,-154.0,5.249
-34.0,-20.0,5.25
31.0,131.0,5.251
77.0,241.0,5.252
127.0,277.0,5.253
114.0,242.0,5.254
14.0,171.0,5.255
-62.0,105.0,5.256
-46.0,65.0,5.257
-22.0,15.0,5.258
-42.0,-51.0,5.259
-44.0,-100.0,5.26
9.0,-101.0,5.261
45.0,-84.0,5.262
20.0,-97.0,5.263
10.0,-123.0,5.264
48.0,-121.0,5.265
72.0,-101.0,5.266
50.0,-114.0,5.267
35.0,-161.0,5.268
39.0,-194.0,5.269
33.0,-199.0,5.27
-4.0,-211.0,5.271
-34.0,-236.0,5.272
-42.0,-228.0,5.273
-63.0,-165.0,5.274
-119.0,-89.0,5.275
-154.0,-33.0,5.276
-124.0,21.0,5.277
-85.0,104.0,5.278
-28.0,191.0,5.279
17.0,239.0,5.28
61.0,244.0,5.281
75.0,247.0,5.282
46.0,256.0,5.283
-5.0,251.0,5.284
-53.0,214.0,5.285
-86.0,149.0,5.286
-80.0,66.0,5.287
-13.0,-12.0,5.288
79.0,-61.0,5.289
126.0,-81.0,5.29
104.0,-102.0,5.291
59.0,-124.0,5.292
37.0,-126.0,5.293
34.0,-110.0,5.294
30.0,-104.0,5.295
24.0,-106.0,5.296
30.0,-91.0,5.297
43.0,-57.0,5.298
62.0,-40.0,5.299
84.0,-45.0,5.3
104.0,-61.0,5.301
96.0,-94.0,5.302
41.0,-169.0,5.303
-41.0,-243.0,5.304
-101.0,-238.0,5.305
-109.0,-149.0,5.306
-80.0,-44.0,5.307
-17.0,38.0,5.308
78.0,96.0,5.309
176.0,134.0,5.31
200.0,147.0,5.311
124.0,128.0,5.312
26.0,56.0,5.313
-50.0,-96.0,5.314
-161.0,-266.0,5.315
-334.0,-325.0,5.316
-434.0,-237.0,5.317
-323.0,-70.0,5.318
-72.0,124.0,5.319
82.0,386.0,5.32
49.0,703.0,5.321
-18.0,923.0,5.322
16.0,916.0,5.323
88.0,755.0,5.324
82.0,582.0,5.325
31.0,431.0,5.326
18.0,274.0,5.327
36.0,136.0,5.328
34.0,52.0,5.329
26.0,-15.0,5.33
38.0,-100.0,5.331
29.0,-172.0,5.332
-21.0,-203.0,5.333
-43.0,-225.0,5.334
17.0,-275.0,5.335
104.0,-326.0,5.336
130.0,-343.0,5.337
95.0,-353.0,5.338
51.0,-386.0,5.339
19.0,-430.0,5.34
-8.0,-450.0,5.341
-2.0,-431.0,5.342
50.0,-390.0,5.343
97.0,-330.0,5.344
84.0,-247.0,5.345
29.0,-152.0,5.346
-14.0,-66.0,5.347
-29.0,-4.0,5.348
-42.0,41.0,5.349
-53.0,77.0,5.35
-41.0,101.0,5.351
-16.0,105.0,5.352
-18.0,98.0,5.353
-54.0,91.0,5.354
-82.0,83.0,5.355
-53.0,63.0,5.356
11.0,51.0,5.357
46.0,60.0,5.358
-15.0,83.0,5.359
-158.0,90.0,5.36
-282.0,77.0,5.361
-292.0,63.0,5.362
-172.0,34.0,5.363
9.0,-34.0,5.364
167.0,-117.0,5.365
252.0,-157.0,5.366
249.0,-138.0,5.367
181.0,-104.0,5.368
108.0,-80.0,5.369
73.0,-50.0,5.37
55.0,-9.0,5.371
15.0,15.0,5.372
-28.0,16.0,5.373
-23.0,30.0,5.374
24.0,73.0,5.375
57.0,111.0,5.376
41.0,109.0,5.377
-28.0,83.0,5.378
-119.0,86.0,5.379
-178.0,118.0,5.38
-149.0,122.0,5.381
-41.0,77.0,5.382
64.0,14.0,5.383
106.0,-21.0,5.384
99.0,-41.0,5.385
72.0,-82.0,5.386
18.0,-162.0,5.387
-43.0,-264.0,5.388
-43.0,-357.0,5.389
35.0,-397.0,5.39
112.0,-341.0,5.391
121.0,-207.0,5.392
101.0,-78.0,5.393
101.0,-6.0,5.394
93.0,50.0,5.395
25.0,178.0,5.396
-62.0,367.0,5.397
-115.0,552.0,5.398
-104.0,664.0,5.399
-47.0,710.0,5.4
29.0,711.0,5.401
77.0,648.0,5.402
45.0,492.0,5.403
-52.0,284.0,5.404
-122.0,110.0,5.405
-94.0,14.0,5.406
-14.0,-31.0,5.407
17.0,-68.0,5.408
-16.0,-113.0,5.409
-47.0,-184.0,5.41
-35.0,-298.0,5.411
-9.0,-432.0,5.412
5.0,-522.0,5.413
21.0,-519.0,5.414
49.0,-438.0,5.415
63.0,-325.0,5.416
46.0,-215.0,5.417
16.0,-106.0,5.418
16.0,-3.0,5.419
40.0,68.0,5.42
52.0,85.0,5.421
37.0,53.0,5.422
12.0,-3.0,5.423
-16.0,-48.0,5.424
-54.0,-64.0,5.425
-86.0,-58.0,5.426
-79.0,-38.0,5.427
-51.0,-2.0,5.428
-61.0,58.0,5.429
-115.0,134.0,5.43
-147.0,196.0,5.431
-112.0,210.0,5.432
-49.0,167.0,5.433
-10.0,99.0,5.434
14.0,49.0,5.435
48.0,19.0,5.436
85.0,-22.0,5.437
117.0,-92.0,5.438
143.0,-142.0,5.439
127.0,-140.0,5.44
27.0,-127.0,5.441
-95.0,-152.0,5.442
-99.0,-203.0,5.443
36.0,-237.0,5.444
161.0,-238.0,5.445
155.0,-210.0,5.446
67.0,-140.0,5.447
5.0,-30.0,5.448
-29.0,73.0,5.449
-70.0,132.0,5.45
-70.0,168.0,5.451
24.0,202.0,5.452
154.0,216.0,5.453
171.0,198.0,5.454
22.0,176.0,5.455
-188.0,178.0,5.456
-308.0,187.0,5.457
-297.0,169.0,5.458
-190.0,131.0,5.459
-65.0,79.0,5.46
28.0,4.0,5.461
73.0,-64.0,5.462
79.0,-62.0,5.463
75.0,17.0,5.464
80.0,92.0,5.465
84.0,98.0,5.466
68.0,62.0,5.467
43.0,15.0,5.468
36.0,-102.0,5.469
47.0,-345.0,5.47
53.0,-600.0,5.471
48.0,-657.0,5.472
38.0,-456.0,5.473
21.0,-169.0,5.474
-1.0,4.0,5.475
-7.0,51.0,5.476
6.0,86.0,5.477
7.0,155.0,5.478
-49.0,201.0,5.479
-159.0,183.0,5.48
-258.0,156.0,5.481
-271.0,179.0,5.482
-159.0,217.0,5.483
61.0,221.0,5.484
328.0,210.0,5.485
541.0,206.0,5.486
600.0,189.0,5.487
447.0,126.0,5.488
130.0,44.0,5.489
-199.0,-7.0,5.49
-366.0,-24.0,5.491
-300.0,-41.0,5.492
-105.0,-74.0,5.493
23.0,-112.0,5.494
-4.0,-140.0,5.495
-88.0,-148.0,5.496
-92.0,-147.0,5.497
-22.0,-155.0,5.498
18.0,-150.0,5.499
-3.0,-99.0,5.5
-5.0,-1.0,5.501
43.0,89.0,5.502
70.0,129.0,5.503
49.0,132.0,5.504
32.0,128.0,5.505
41.0,94.0,5.506
27.0,-5.0,5.507
-30.0,-141.0,5.508
-81.0,-230.0,5.509
-91.0,-231.0,5.51
-84.0,-179.0,5.511
-74.0,-128.0,5.512
-49.0,-86.0,5.513
-23.0,-13.0,5.514
-27.0,113.0,5.515
-44.0,262.0,5.516
-38.0,372.0,5.517
-16.0,402.0,5.518
-6.0,341.0,5.519
-15.0,219.0,5.52
-7.0,106.0,5.521
15.0,57.0,5.522
29.0,45.0,5.523
32.0,6.0,5.524
41.0,-65.0,5.525
52.0,-102.0,5.526
52.0,-86.0,5.527
47.0,-80.0,5.528
47.0,-119.0,5.529
43.0,-142.0,5.53
24.0,-111.0,5.531
2.0,-76.0,5.532
-8.0,-82.0,5.533
-2.0,-89.0,5.534
19.0,-59.0,5.535
64.0,-23.0,5.536
105.0,-16.0,5.537
81.0,-25.0,5.538
-26.0,-18.0,5.539
-133.0,-18.0,5.54
-141.0,-50.0,5.541
-64.0,-81.0,5.542
-15.0,-91.0,5.543
-43.0,-88.0,5.544
-81.0,-71.0,5.545
-63.0,-27.0,5.546
-23.0,9.0,5.547
-15.0,-11.0,5.548
-26.0,-46.0,5.549
-20.0,-25.0,5.55
-14.0,28.0,5.551
-24.0,25.0,5.552
-11.0,-16.0,5.553
64.0,-13.0,5.554
155.0,34.0,5.555
182.0,39.0,5.556
140.0,3.0,5.557
69.0,-3.0,5.558
8.0,32.0,5.559
-27.0,38.0,5.56
-2.0,2.0,5.561
81.0,-4.0,5.562
119.0,24.0,5.563
12.0,13.0,5.564
-177.0,-58.0,5.565
-294.0,-131.0,5.566
-271.0,-163.0,5.567
-154.0,-172.0,5.568
10.0,-161.0,5.569
171.0,-102.0,5.57
213.0,-2.0,5.571
101.0,96.0,5.572
-14.0,184.0,5.573
10.0,279.0,5.574
100.0,351.0,5.575
106.0,355.0,5.576
46.0,304.0,5.577
23.0,239.0,5.578
46.0,182.0,5.579
31.0,128.0,5.58
-12.0,86.0,5.581
-13.0,84.0,5.582
20.0,84.0,5.583
22.0,35.0,5.584
-11.0,-61.0,5.585
-35.0,-146.0,5.586
-51.0,-204.0,5.587
-61.0,-266.0,5.588
-31.0,-329.0,5.589
31.0,-354.0,5.59
46.0,-332.0,5.591
-18.0,-289.0,5.592
-78.0,-222.0,5.593
-60.0,-101.0,5.594
-15.0,46.0,5.595
-9.0,140.0,5.596
-31.0,158.0,5.597
-80.0,152.0,5.598
-177.0,153.0,5.599
-272.0,131.0,5.6
-227.0,60.0,5.601
-25.0,-17.0,5.602
121.0,-64.0,5.603
45.0,-90.0,5.604
-104.0,-106.0,5.605
-64.0,-92.0,5.606
162.0,-43.0,5.607
334.0,8.0,5.608
351.0,47.0,5.609
345.0,94.0,5.61
382.0,156.0,5.611
336.0,200.0,5.612
156.0,203.0,5.613
6.0,189.0,5.614
-1.0,179.0,5.615
15.0,160.0,5.616
-63.0,124.0,5.617
-181.0,79.0,5.618
-218.0,43.0,5.619
-199.0,10.0,5.62
-193.0,-15.0,5.621
-155.0,-42.0,5.622
-44.0,-74.0,5.623
35.0,-105.0,5.624
3.0,-134.0,5.625
-56.0,-150.0,5.626
-42.0,-126.0,5.627
-11.0,-107.0,5.628
-38.0,-109.0,5.629
-64.0,-109.0,5.63
-17.0,-98.0,5.631
38.0,-85.0,5.632
18.0,-67.0,5.633
-32.0,-55.0,5.634
-27.0,-63.0,5.635
10.0,-60.0,5.636
21.0,-25.0,5.637
21.0,29.0,5.638
47.0,153.0,5.639
57.0,231.0,5.64
17.0,179.0,5.641
-26.0,65.0,5.642
-78.0,36.0,5.643
-99.0,120.0,5.644
-28.0,161.0,5.645
28.0,44.0,5.646
42.0,-150.0,5.647
31.0,-241.0,5.648
-55.0,-177.0,5.649
-116.0,-64.0,5.65
-98.0,-17.0,5.651
-76.0,-44.0,5.652
-39.0,-83.0,5.653
8.0,-91.0,5.654
86.0,-77.0,5.655
151.0,-72.0,5.656
179.0,-83.0,5.657
176.0,-98.0,5.658
33.0,-112.0,5.659
-93.0,-137.0,5.66
-43.0,-158.0,5.661
205.0,-138.0,5.662
473.0,-72.0,5.663
530.0,2.0,5.664
293.0,61.0,5.665
-126.0,104.0,5.666
-494.0,123.0,5.667
-601.0,130.0,5.668
-395.0,176.0,5.669
-37.0,289.0,5.67
223.0,411.0,5.671
247.0,442.0,5.672
91.0,366.0,5.673
-83.0,248.0,5.674
-150.0,141.0,5.675
-108.0,41.0,5.676
-43.0,-44.0,5.677
-22.0,-91.0,5.678
-36.0,-83.0,5.679
-49.0,-68.0,5.68
-48.0,-111.0,5.681
-46.0,-205.0,5.682
-24.0,-295.0,5.683
30.0,-336.0,5.684
78.0,-327.0,5.685
61.0,-284.0,5.686
-11.0,-209.0,5.687
-78.0,-107.0,5.688
-102.0,3.0,5.689
-69.0,91.0,5.69
33.0,141.0,5.691
165.0,162.0,5.692
224.0,169.0,5.693
170.0,169.0,5.694
93.0,162.0,5.695
72.0,156.0,5.696
59.0,163.0,5.697
-15.0,185.0,5.698
-83.0,202.0,5.699
-57.0,189.0,5.7
11.0,135.0,5.701
13.0,67.0,5.702
-19.0,6.0,5.703
3.0,-44.0,5.704
52.0,-78.0,5.705
31.0,-88.0,5.706
-37.0,-80.0,5.707
-56.0,-83.0,5.708
-19.0,-112.0,5.709
8.0,-152.0,5.71
18.0,-182.0,5.711
33.0,-213.0,5.712
26.0,-254.0,5.713
-25.0,-276.0,5.714
-59.0,-248.0,5.715
-29.0,-175.0,5.716
24.0,-83.0,5.717
39.0,12.0,5.718
14.0,92.0,5.719
-16.0,160.0,5.72
-50.0,192.0,5.721
-78.0,232.0,5.722
-59.0,295.0,5.723
12.0,329.0,5.724
61.0,274.0,5.725
22.0,208.0,5.726
-65.0,110.0,5.727
-120.0,3.0,5.728
-121.0,-127.0,5.729
-91.0,-229.0,5.73
-43.0,-243.0,5.731
15.0,-232.0,5.732
57.0,-139.0,5.733
73.0,-74.0,5.734
92.0,-98.0,5.735
128.0,-110.0,5.736
143.0,-88.0,5.737
76.0,-66.0,5.738
-60.0,-76.0,5.739
-184.0,-122.0,5.74
-273.0,-151.0,5.741
-300.0,-139.0,5.742
-136.0,-103.0,5.743
37.0,-48.0,5.744
234.0,31.0,5.745
388.0,112.0,5.746
411.0,163.0,5.747
365.0,182.0,5.748
111.0,180.0,5.749
-96.0,165.0,5.75
-164.0,151.0,5.751
-184.0,157.0,5.752
-56.0,173.0,5.753
29.0,160.0,5.754
-17.0,113.0,5.755
-44.0,69.0,5.756
-7.0,44.0,5.757
19.0,9.0,5.758
-9.0,-38.0,5.759
-28.0,-69.0,5.76
-2.0,-64.0,5.761
23.0,-49.0,5.762
21.0,-55.0,5.763
24.0,-67.0,5.764
51.0,-65.0,5.765
72.0,-49.0,5.766
59.0,-30.0,5.767
8.0,-2.0,5.768
-67.0,29.0,5.769
-133.0,38.0,5.77
-126.0,3.0,5.771
-40.0,-64.0,5.772
33.0,-122.0,5.773
10.0,-132.0,5.774
-58.0,-83.0,5.775
-72.0,-14.0,5.776
-25.0,13.0,5.777
5.0,-26.0,5.778
-9.0,-104.0,5.779
-23.0,-166.0,5.78
-9.0,-189.0,5.781
3.0,-180.0,5.782
0.0,-172.0,5.783
-3.0,-180.0,5.784
-16.0,-178.0,5.785
-55.0,-120.0,5.786
-68.0,-23.0,5.787
27.0,38.0,5.788
217.0,33.0,5.789
371.0,28.0,5.79
364.0,64.0,5.791
183.0,93.0,5.792
-63.0,82.0,5.793
-216.0,107.0,5.794
-209.0,247.0,5.795
-147.0,433.0,5.796
-161.0,527.0,5.797
-217.0,493.0,5.798
-154.0,402.0,5.799
45.0,310.0,5.8
183.0,212.0,5.801
142.0,118.0,5.802
38.0,61.0,5.803
13.0,38.0,5.804
39.0,7.0,5.805
39.0,-46.0,5.806
33.0,-90.0,5.807
58.0,-104.0,5.808
75.0,-104.0,5.809
46.0,-114.0,5.81
10.0,-120.0,5.811
1.0,-108.0,5.812
-10.0,-93.0,5.813
-44.0,-99.0,5.814
-61.0,-125.0,5.815
-31.0,-149.0,5.816
16.0,-154.0,5.817
32.0,-148.0,5.818
2.0,-135.0,5.819
-62.0,-121.0,5.82
-118.0,-107.0,5.821
-120.0,-84.0,5.822
-59.0,-54.0,5.823
4.0,-24.0,5.824
18.0,-3.0,5.825
-3.0,5.0,5.826
-10.0,-3.0,5.827
-3.0,-21.0,5.828
-13.0,-33.0,5.829
-33.0,-23.0,5.83
-34.0,5.0,5.831
-15.0,33.0,5.832
-3.0,49.0,5.833
-3.0,59.0,5.834
3.0,56.0,5.835
17.0,22.0,5.836
29.0,-27.0,5.837
36.0,-73.0,5.838
45.0,-92.0,5.839
52.0,-109.0,5.84
58.0,-149.0,5.841
63.0,-188.0,5.842
61.0,-182.0,5.843
33.0,-112.0,5.844
-12.0,-20.0,5.845
-39.0,32.0,5.846
-21.0,33.0,5.847
29.0,30.0,5.848
85.0,69.0,5.849
101.0,140.0,5.85
20.0,197.0,5.851
-143.0,215.0,5.852
-257.0,201.0,5.853
-181.0,170.0,5.854
44.0,119.0,5.855
232.0,58.0,5.856
270.0,5.0,5.857
194.0,-52.0,5.858
90.0,-122.0,5.859
-7.0,-185.0,5.86
-78.0,-203.0,5.861
-92.0,-161.0,5.862
-34.0,-94.0,5.863
53.0,-36.0,5.864
111.0,19.0,5.865
109.0,89.0,5.866
45.0,160.0,5.867
-51.0,195.0,5.868
-129.0,183.0,5.869
-148.0,146.0,5.87
-101.0,106.0,5.871
-24.0,74.0,5.872
32.0,50.0,5.873
31.0,30.0,5.874
-23.0,10.0,5.875
-81.0,-5.0,5.876
-105.0,-20.0,5.877
-93.0,-43.0,5.878
-50.0,-69.0,5.879
17.0,-77.0,5.88
96.0,-51.0,5.881
134.0,5.0,5.882
104.0,70.0,5.883
48.0,128.0,5.884
29.0,175.0,5.885
45.0,193.0,5.886
46.0,153.0,5.887
27.0,45.0,5.888
23.0,-93.0,5.889
40.0,-204.0,5.89
56.0,-255.0,5.891
77.0,-260.0,5.892
114.0,-251.0,5.893
110.0,-240.0,5.894
-8.0,-209.0,5.895
-204.0,-141.0,5.896
-337.0,-43.0,5.897
-340.0,67.0,5.898
-230.0,149.0,5.899
-81.0,190.0,5.9
32.0,198.0,5.901
61.0,190.0,5.902
31.0,159.0,5.903
52.0,105.0,5.904
151.0,52.0,5.905
187.0,22.0,5.906
40.0,1.0,5.907
-187.0,-26.0,5.908
-290.0,-55.0,5.909
-224.0,-76.0,5.91
-81.0,-103.0,5.911
89.0,-153.0,5.912
262.0,-209.0,5.913
330.0,-240.0,5.914
213.0,-246.0,5.915
9.0,-248.0,5.916
-109.0,-235.0,5.917
-105.0,-177.0,5.918
-45.0,-73.0,5.919
15.0,54.0,5.92
56.0,172.0,5.921
53.0,274.0,5.922
33.0,351.0,5.923
69.0,391.0,5.924
158.0,382.0,5.925
198.0,321.0,5.926
159.0,218.0,5.927
120.0,98.0,5.928
117.0,-6.0,5.929
66.0,-81.0,5.93
-74.0,-133.0,5.931
-208.0,-164.0,5.932
-234.0,-167.0,5.933
-161.0,-145.0,5.934
-56.0,-119.0,5.935
17.0,-96.0,5.936
24.0,-72.0,5.937
-23.0,-41.0,5.938
-46.0,-10.0,5.939
0.0,10.0,5.94
50.0,14.0,5.941
35.0,1.0,5.942
-3.0,-31.0,5.943
0.0,-72.0,5.944
14.0,-92.0,5.945
-17.0,-68.0,5.946
-55.0,3.0,5.947
-48.0,98.0,5.948
-29.0,178.0,5.949
-53.0,204.0,5.95
-80.0,167.0,5.951
-55.0,99.0,5.952
-8.0,37.0,5.953
7.0,-18.0,5.954
2.0,-72.0,5.955
13.0,-107.0,5.956
30.0,-104.0,5.957
25.0,-74.0,5.958
14.0,-49.0,5.959
22.0,-42.0,5.96
39.0,-34.0,5.961
39.0,-11.0,5.962
25.0,11.0,5.963
9.0,23.0,5.964
-5.0,31.0,5.965
-6.0,46.0,5.966
14.0,63.0,5.967
37.0,68.0,5.968
34.0,53.0,5.969
17.0,21.0,5.97
17.0,-18.0,5.971
27.0,-46.0,5.972
9.0,-49.0,5.973
-28.0,-39.0,5.974
-42.0,-38.0,5.975
-21.0,-58.0,5.976
0.0,-92.0,5.977
4.0,-138.0,5.978
1.0,-177.0,5.979
1.0,-202.0,5.98
-2.0,-212.0,5.981
-8.0,-191.0,5.982
-14.0,-116.0,5.983
-37.0,5.0,5.984
-99.0,120.0,5.985
-163.0,177.0,5.986
-160.0,184.0,5.987
-65.0,185.0,5.988
90.0,187.0,5.989
244.0,171.0,5.99
321.0,140.0,5.991
267.0,116.0,5.992
110.0,94.0,5.993
-43.0,51.0,5.994
-115.0,-2.0,5.995
-125.0,-29.0,5.996
-106.0,-32.0,5.997
-46.0,-36.0,5.998
37.0,-42.0,5.999
62.0,-32.0,6.0
10.0,-16.0,6.001
-5.0,-17.0,6.002
108.0,-44.0,6.003
262.0,-71.0,6.004
292.0,-86.0,6.005
161.0,-91.0,6.006
-41.0,-87.0,6.007
-223.0,-68.0,6.008
-322.0,-31.0,6.009
-297.0,18.0,6.01
-167.0,72.0,6.011
-23.0,119.0,6.012
50.0,151.0,6.013
54.0,154.0,6.014
32.0,119.0,6.015
15.0,58.0,6.016
9.0,7.0,6.017
4.0,-7.0,6.018
-7.0,16.0,6.019
-20.0,45.0,6.02
-10.0,55.0,6.021
30.0,58.0,6.022
57.0,61.0,6.023
39.0,45.0,6.024
5.0,-5.0,6.025
-1.0,-68.0,6.026
13.0,-124.0,6.027
11.0,-178.0,6.028
2.0,-229.0,6.029
14.0,-245.0,6.03
31.0,-196.0,6.031
21.0,-106.0,6.032
-11.0,-22.0,6.033
-31.0,37.0,6.034
-35.0,85.0,6.035
-42.0,127.0,6.036
-44.0,155.0,6.037
-32.0,167.0,6.038
-10.0,175.0,6.039
-3.0,167.0,6.04
-9.0,119.0,6.041
-4.0,37.0,6.042
12.0,-41.0,6.043
21.0,-82.0,6.044
18.0,-78.0,6.045
12.0,-57.0,6.046
4.0,-44.0,6.047
-7.0,-49.0,6.048
-16.0,-75.0,6.049
-16.0,-116.0,6.05
-11.0,-164.0,6.051
-9.0,-212.0,6.052
-8.0,-253.0,6.053
0.0,-273.0,6.054
14.0,-239.0,6.055
27.0,-127.0,6.056
40.0,31.0,6.057
52.0,187.0,6.058
57.0,282.0,6.059
50.0,304.0,6.06
37.0,283.0,6.061
26.0,254.0,6.062
20.0,232.0,6.063
20.0,204.0,6.064
27.0,154.0,6.065
28.0,82.0,6.066
15.0,20.0,6.067
-7.0,-8.0,6.068
-17.0,-15.0,6.069
-11.0,-36.0,6.07
-1.0,-70.0,6.071
5.0,-93.0,6.072
5.0,-89.0,6.073
1.0,-84.0,6.074
-4.0,-99.0,6.075
-12.0,-116.0,6.076
-21.0,-119.0,6.077
-36.0,-113.0,6.078
-48.0,-108.0,6.079
-44.0,-95.0,6.08
-20.0,-72.0,6.081
11.0,-45.0,6.082
34.0,-37.0,6.083
43.0,-58.0,6.084
30.0,-104.0,6.085
-4.0,-141.0,6.086
-36.0,-121.0,6.087
-37.0,-28.0,6.088
-17.0,84.0,6.089
-7.0,141.0,6.09
-14.0,142.0,6.091
-12.0,146.0,6.092
1.0,180.0,6.093
9.0,216.0,6.094
4.0,230.0,6.095
11.0,234.0,6.096
26.0,222.0,6.097
17.0,161.0,6.098
-13.0,63.0,6.099
-30.0,-21.0,6.1
-17.0,-72.0,6.101
1.0,-106.0,6.102
1.0,-142.0,6.103
-9.0,-166.0,6.104
-19.0,-164.0,6.105
-21.0,-145.0,6.106
-1.0,-119.0,6.107
54.0,-85.0,6.108
120.0,-52.0,6.109
153.0,-33.0,6.11
138.0,-21.0,6.111
95.0,-7.0,6.112
52.0,6.0,6.113
15.0,12.0,6.114
-11.0,19.0,6.115
-25.0,34.0,6.116
-33.0,45.0,6.117
-44.0,43.0,6.118
-51.0,36.0,6.119
-54.0,34.0,6.12
-57.0,29.0,6.121
-56.0,21.0,6.122
-45.0,14.0,6.123
-24.0,9.0,6.124
-10.0,-1.0,6.125
-10.0,-13.0,6.126
-16.0,-14.0,6.127
-17.0,-12.0,6.128
-16.0,-20.0,6.129
-17.0,-44.0,6.13
-16.0,-69.0,6.131
-8.0,-77.0,6.132
-3.0,-65.0,6.133
-2.0,-42.0,6.134
5.0,-23.0,6.135
18.0,-20.0,6.136
21.0,-36.0,6.137
9.0,-81.0,6.138
-3.0,-139.0,6.139
0.0,-166.0,6.14
9.0,-126.0,6.141
11.0,-29.0,6.142
5.0,73.0,6.143
-1.0,156.0,6.144
-5.0,243.0,6.145
-11.0,316.0,6.146
-6.0,318.0,6.147
5.0,242.0,6.148
12.0,153.0,6.149
7.0,89.0,6.15
8.0,12.0,6.151
20.0,-87.0,6.152
27.0,-144.0,6.153
2.0,-116.0,6.154
-42.0,-63.0,6.155
-77.0,-50.0,6.156
-76.0,-51.0,6.157
-43.0,-29.0,6.158
8.0,-5.0,6.159
64.0,-17.0,6.16
118.0,-50.0,6.161
154.0,-54.0,6.162
146.0,-42.0,6.163
99.0,-50.0,6.164
51.0,-66.0,6.165
30.0,-56.0,6.166
27.0,-17.0,6.167
17.0,24.0,6.168
-3.0,54.0,6.169
-18.0,74.0,6.17
-26.0,82.0,6.171
-42.0,79.0,6.172
-65.0,74.0,6.173
-76.0,68.0,6.174
-68.0,54.0,6.175
-57.0,37.0,6.176
-46.0,26.0,6.177
-32.0,14.0,6.178
-20.0,-9.0,6.179
-18.0,-50.0,6.18
-17.0,-89.0,6.181
-9.0,-101.0,6.182
4.0,-93.0,6.183
13.0,-79.0,6.184
18.0,-66.0,6.185
24.0,-48.0,6.186
22.0,-25.0,6.187
5.0,0.0,6.188
-8.0,24.0,6.189
-3.0,45.0,6.19
9.0,58.0,6.191
3.0,57.0,6.192
-8.0,45.0,6.193
0.0,27.0,6.194
16.0,5.0,6.195
12.0,-17.0,6.196
-4.0,-32.0,6.197
-2.0,-39.0,6.198
17.0,-40.0,6.199
18.0,-38.0,6.2
-5.0,-35.0,6.201
-21.0,-26.0,6.202
-8.0,-16.0,6.203
8.0,-10.0,6.204
11.0,-4.0,6.205
12.0,1.0,6.206
29.0,7.0,6.207
44.0,8.0,6.208
41.0,5.0,6.209
25.0,-2.0,6.21
13.0,-20.0,6.211
5.0,-44.0,6.212
3.0,-61.0,6.213
6.0,-63.0,6.214
9.0,-55.0,6.215
6.0,-45.0,6.216
2.0,-37.0,6.217
-5.0,-30.0,6.218
-19.0,-21.0,6.219
-38.0,-5.0,6.22
-42.0,26.0,6.221
-18.0,70.0,6.222
18.0,106.0,6.223
36.0,115.0,6.224
33.0,105.0,6.225
27.0,94.0,6.226
25.0,88.0,6.227
19.0,79.0,6.228
4.0,62.0,6.229
-8.0,38.0,6.23
-12.0,9.0,6.231
-16.0,-14.0,6.232
-24.0,-24.0,6.233
-30.0,-28.0,6.234
-25.0,-44.0,6.235
-12.0,-73.0,6.236
1.0,-84.0,6.237
5.0,-62.0,6.238
-1.0,-27.0,6.239
-13.0,-6.0,6.24
-16.0,-32.0,6.241
-7.0,-51.0,6.242
9.0,-44.0,6.243
18.0,-37.0,6.244
18.0,-27.0,6.245
16.0,-12.0,6.246
18.0,20.0,6.247
20.0,52.0,6.248
17.0,86.0,6.249
13.0,103.0,6.25
8.0,69.0,6.251
5.0,42.0,6.252
2.0,34.0,6.253
-2.0,28.0,6.254
-3.0,30.0,6.255
1.0,29.0,6.256
8.0,18.0,6.257
9.0,11.0,6.258
8.0,19.0,6.259
4.0,21.0,6.26
-1.0,2.0,6.261
-2.0,-20.0,6.262
1.0,-37.0,6.263
6.0,-49.0,6.264
3.0,-62.0,6.265
-5.0,-72.0,6.266
-8.0,-71.0,6.267
-5.0,-62.0,6.268
-4.0,-55.0,6.269
-3.0,-55.0,6.27
3.0,-54.0,6.271
18.0,-43.0,6.272
21.0,-20.0,6.273
8.0,8.0,6.274
-8.0,30.0,6.275
-12.0,39.0,6.276
-6.0,42.0,6.277
0.0,42.0,6.278
-1.0,47.0,6.279
-12.0,46.0,6.28
-29.0,26.0,6.281
-41.0,0.0,6.282
-37.0,-26.0,6.283
-17.0,-49.0,6.284
3.0,-66.0,6.285
12.0,-65.0,6.286
18.0,-41.0,6.287
33.0,-8.0,6.288
55.0,12.0,6.289
67.0,23.0,6.29
49.0,43.0,6.291
14.0,74.0,6.292
-8.0,92.0,6.293
5.0,84.0,6.294
34.0,66.0,6.295
41.0,50.0,6.296
19.0,34.0,6.297
-16.0,13.0,6.298
-32.0,-2.0,6.299
-29.0,-3.0,6.3
-24.0,-5.0,6.301
-33.0,-14.0,6.302
-47.0,-28.0,6.303
-51.0,-32.0,6.304
-38.0,-34.0,6.305
-17.0,-46.0,6.306
2.0,-62.0,6.307
21.0,-68.0,6.308
43.0,-59.0,6.309
54.0,-47.0,6.31
40.0,-40.0,6.311
10.0,-28.0,6.312
-10.0,-6.0,6.313
-3.0,19.0,6.314
17.0,40.0,6.315
23.0,51.0,6.316
16.0,50.0,6.317
5.0,37.0,6.318
7.0,25.0,6.319
12.0,21.0,6.32
8.0,19.0,6.321
0.0,5.0,6.322
-2.0,-21.0,6.323
2.0,-44.0,6.324
2.0,-43.0,6.325
-1.0,-24.0,6.326
0.0,-9.0,6.327
5.0,-5.0,6.328
2.0,0.0,6.329
-13.0,18.0,6.33
-27.0,37.0,6.331
-30.0,42.0,6.332
-21.0,34.0,6.333
-11.0,27.0,6.334
-1.0,25.0,6.335
6.0,27.0,6.336
13.0,30.0,6.337
15.0,30.0,6.338
15.0,22.0,6.339
10.0,7.0,6.34
4.0,-8.0,6.341
3.0,-15.0,6.342
8.0,-19.0,6.343
11.0,-23.0,6.344
2.0,-29.0,6.345
-6.0,-39.0,6.346
-4.0,-66.0,6.347
2.0,-102.0,6.348
0.0,-109.0,6.349
-8.0,-64.0,6.35
-4.0,0.0,6.351
14.0,32.0,6.352
29.0,25.0,6.353
24.0,22.0,6.354
9.0,47.0,6.355
2.0,70.0,6.356
5.0,66.0,6.357
3.0,41.0,6.358
-2.0,13.0,6.359
-2.0,-21.0,6.36
4.0,-66.0,6.361
11.0,-89.0,6.362
12.0,-74.0,6.363
13.0,-43.0,6.364
16.0,-24.0,6.365
13.0,-8.0,6.366
0.0,22.0,6.367
-7.0,55.0,6.368
-7.0,66.0,6.369
-4.0,57.0,6.37
-6.0,55.0,6.371
-12.0,54.0,6.372
-20.0,40.0,6.373
-33.0,20.0,6.374
-47.0,11.0,6.375
-48.0,11.0,6.376
-28.0,-3.0,6.377
0.0,-39.0,6.378
18.0,-74.0,6.379
18.0,-90.0,6.38
13.0,-94.0,6.381
15.0,-92.0,6.382
20.0,-76.0,6.383
21.0,-39.0,6.384
13.0,9.0,6.385
6.0,42.0,6.386
8.0,51.0,6.387
20.0,53.0,6.388
30.0,59.0,6.389
28.0,59.0,6.39
20.0,39.0,6.391
14.0,2.0,6.392
7.0,-25.0,6.393
-1.0,-18.0,6.394
-1.0,16.0,6.395
9.0,50.0,6.396
15.0,68.0,6.397
1.0,78.0,6.398
-14.0,93.0,6.399
-18.0,98.0,6.4
-14.0,74.0,6.401
-20.0,34.0,6.402
-29.0,8.0,6.403
-29.0,3.0,6.404
-22.0,-1.0,6.405
-10.0,-18.0,6.406
15.0,-44.0,6.407
50.0,-67.0,6.408
70.0,-90.0,6.409
64.0,-121.0,6.41
50.0,-144.0,6.411
39.0,-135.0,6.412
19.0,-85.0,6.413
-9.0,-18.0,6.414
-19.0,42.0,6.415
-4.0,87.0,6.416
11.0,125.0,6.417
8.0,155.0,6.418
1.0,155.0,6.419
8.0,108.0,6.42
10.0,32.0,6.421
-1.0,-38.0,6.422
-6.0,-94.0,6.423
0.0,-141.0,6.424
-5.0,-166.0,6.425
-33.0,-148.0,6.426
-52.0,-94.0,6.427
-42.0,-50.0,6.428
-23.0,-35.0,6.429
-16.0,-23.0,6.43
-1.0,13.0,6.431
30.0,53.0,6.432
47.0,66.0,6.433
22.0,57.0,6.434
-16.0,58.0,6.435
-21.0,76.0,6.436
8.0,85.0,6.437
36.0,65.0,6.438
52.0,25.0,6.439
71.0,-24.0,6.44
93.0,-85.0,6.441
93.0,-136.0,6.442
45.0,-156.0,6.443
-27.0,-138.0,6.444
-77.0,-91.0,6.445
-87.0,-31.0,6.446
-83.0,35.0,6.447
-95.0,92.0,6.448
-121.0,125.0,6.449
-130.0,122.0,6.45
-103.0,95.0,6.451
-55.0,63.0,6.452
-10.0,41.0,6.453
16.0,35.0,6.454
30.0,32.0,6.455
40.0,22.0,6.456
48.0,8.0,6.457
51.0,-3.0,6.458
53.0,-6.0,6.459
46.0,-10.0,6.46
32.0,-23.0,6.461
18.0,-31.0,6.462
9.0,-31.0,6.463
-8.0,-31.0,6.464
-20.0,-38.0,6.465
8.0,-45.0,6.466
78.0,-43.0,6.467
124.0,-27.0,6.468
99.0,-5.0,6.469
38.0,8.0,6.47
0.0,5.0,6.471
-8.0,-6.0,6.472
-15.0,-11.0,6.473
-21.0,-9.0,6.474
-11.0,-9.0,6.475
2.0,-3.0,6.476
5.0,19.0,6.477
1.0,53.0,6.478
1.0,86.0,6.479
-1.0,106.0,6.48
-9.0,105.0,6.481
-10.0,89.0,6.482
5.0,63.0,6.483
15.0,36.0,6.484
3.0,17.0,6.485
-12.0,0.0,6.486
-10.0,-18.0,6.487
-2.0,-30.0,6.488
-2.0,-39.0,6.489
-3.0,-66.0,6.49
2.0,-111.0,6.491
0.0,-137.0,6.492
-22.0,-117.0,6.493
-43.0,-72.0,6.494
-36.0,-42.0,6.495
-8.0,-20.0,6.496
14.0,18.0,6.497
24.0,69.0,6.498
28.0,92.0,6.499
22.0,63.0,6.5
10.0,17.0,6.501
6.0,4.0,6.502
16.0,27.0,6.503
16.0,44.0,6.504
-9.0,34.0,6.505
-32.0,17.0,6.506
-28.0,13.0,6.507
3.0,7.0,6.508
30.0,-24.0,6.509
38.0,-74.0,6.51
38.0,-105.0,6.511
36.0,-94.0,6.512
25.0,-55.0,6.513
8.0,-16.0,6.514
-9.0,13.0,6.515
-24.0,46.0,6.516
-41.0,83.0,6.517
-52.0,-72.0,6.518
-37.0,-39.0,6.519
-15.0,0.0,6.52
25.0,47.0,6.521
56.0,92.0,6.522
61.0,121.0,6.523
51.0,144.0,6.524
-6.0,144.0,6.525
-58.0,133.0,6.526
-92.0,86.0,6.527
-102.0,45.0,6.528
-40.0,22.0,6.529
13.0,1.0,6.53
43.0,-20.0,6.531
70.0,-37.0,6.532
84.0,-43.0,6.533
76.0,-50.0,6.534
2.0,-60.0,6.535
-48.0,-71.0,6.536
-26.0,-86.0,6.537
9.0,-69.0,6.538
44.0,-37.0,6.539
-12.0,0.0,6.54
-105.0,46.0,6.541
-135.0,89.0,6.542
-67.0,117.0,6.543
40.0,139.0,6.544
116.0,139.0,6.545
151.0,129.0,6.546
141.0,84.0,6.547
65.0,44.0,6.548
-69.0,22.0,6.549
-186.0,1.0,6.55
-206.0,-19.0,6.551
-130.0,-35.0,6.552
-27.0,-41.0,6.553
46.0,-48.0,6.554
86.0,-57.0,6.555
110.0,-68.0,6.556
130.0,-82.0,6.557
140.0,-83.0,6.558
141.0,-35.0,6.559
122.0,-4.0,6.56
90.0,4.0,6.561
54.0,36.0,6.562
25.0,90.0,6.563
6.0,115.0,6.564
-20.0,81.0,6.565
-62.0,22.0,6.566
-110.0,-12.0,6.567
-143.0,-22.0,6.568
-151.0,-24.0,6.569
-133.0,-20.0,6.57
-89.0,-2.0,6.571
-24.0,12.0,6.572
40.0,5.0,6.573
84.0,-15.0,6.574
95.0,-34.0,6.575
67.0,-53.0,6.576
8.0,-71.0,6.577
-59.0,-76.0,6.578
-95.0,-47.0,6.579
-95.0,-1.0,6.58
-77.0,24.0,6.581
-51.0,30.0,6.582
-7.0,38.0,6.583
59.0,57.0,6.584
124.0,64.0,6.585
171.0,40.0,6.586
189.0,-2.0,6.587
161.0,-39.0,6.588
87.0,-54.0,6.589
21.0,-57.0,6.59
27.0,-65.0,6.591
82.0,-82.0,6.592
78.0,-90.0,6.593
-42.0,-65.0,6.594
-187.0,-18.0,6.595
-231.0,26.0,6.596
-195.0,52.0,6.597
-179.0,66.0,6.598
-196.0,81.0,6.599
-142.0,92.0,6.6
17.0,89.0,6.601
155.0,93.0,6.602
166.0,119.0,6.603
109.0,138.0,6.604
93.0,136.0,6.605
107.0,123.0,6.606
83.0,77.0,6.607
29.0,20.0,6.608
6.0,-68.0,6.609
14.0,-146.0,6.61
28.0,-196.0,6.611
54.0,-225.0,6.612
93.0,-183.0,6.613
87.0,-140.0,6.614
0.0,-91.0,6.615
-100.0,-41.0,6.616
-131.0,9.0,6.617
-114.0,51.0,6.618
-115.0,49.0,6.619
-138.0,45.0,6.62
-107.0,53.0,6.621
14.0,65.0,6.622
178.0,72.0,6.623
316.0,73.0,6.624
393.0,65.0,6.625
387.0,57.0,6.626
260.0,63.0,6.627
1.0,77.0,6.628
-291.0,67.0,6.629
-468.0,27.0,6.63
-491.0,-3.0,6.631
-458.0,2.0,6.632
-436.0,13.0,6.633
-353.0,-11.0,6.634
-140.0,-60.0,6.635
113.0,-101.0,6.636
254.0,-115.0,6.637
260.0,-105.0,6.638
221.0,-70.0,6.639
195.0,-46.0,6.64
168.0,-60.0,6.641
120.0,-78.0,6.642
79.0,-105.0,6.643
66.0,-102.0,6.644
73.0,-4.0,6.645
86.0,73.0,6.646
106.0,91.0,6.647
127.0,108.0,6.648
133.0,118.0,6.649
113.0,122.0,6.65
81.0,107.0,6.651
56.0,91.0,6.652
39.0,75.0,6.653
15.0,48.0,6.654
-42.0,-7.0,6.655
-157.0,-60.0,6.656
-290.0,-106.0,6.657
-369.0,-148.0,6.658
-317.0,-168.0,6.659
-194.0,-194.0,6.66
-141.0,-219.0,6.661
-170.0,-226.0,6.662
-141.0,-218.0,6.663
14.0,-184.0,6.664
178.0,-98.0,6.665
228.0,32.0,6.666
238.0,143.0,6.667
330.0,175.0,6.668
460.0,152.0,6.669
470.0,133.0,6.67
316.0,135.0,6.671
94.0,123.0,6.672
-101.0,94.0,6.673
-238.0,80.0,6.674
-282.0,84.0,6.675
-219.0,78.0,6.676
-138.0,56.0,6.677
-162.0,37.0,6.678
-283.0,29.0,6.679
-345.0,13.0,6.68
-247.0,-11.0,6.681
-111.0,-19.0,6.682
-89.0,-14.0,6.683
-121.0,-27.0,6.684
-36.0,-76.0,6.685
146.0,-141.0,6.686
227.0,-182.0,6.687
146.0,-168.0,6.688
68.0,-94.0,6.689
110.0,22.0,6.69
161.0,154.0,6.691
112.0,272.0,6.692
42.0,341.0,6.693
62.0,319.0,6.694
118.0,209.0,6.695
105.0,85.0,6.696
50.0,29.0,6.697
35.0,31.0,6.698
63.0,36.0,6.699
81.0,11.0,6.7
98.0,-26.0,6.701
128.0,-57.0,6.702
106.0,-95.0,6.703
-21.0,-133.0,6.704
-157.0,-129.0,6.705
-159.0,-92.0,6.706
-58.0,-91.0,6.707
-20.0,-146.0,6.708
-81.0,-190.0,6.709
-94.0,-163.0,6.71
32.0,-111.0,6.711
158.0,-102.0,6.712
131.0,-110.0,6.713
-2.0,-68.0,6.714
-89.0,16.0,6.715
-83.0,76.0,6.716
-33.0,103.0,6.717
33.0,140.0,6.718
89.0,197.0,6.719
93.0,222.0,6.72
86.0,185.0,6.721
149.0,127.0,6.722
199.0,76.0,6.723
36.0,8.0,6.724
-292.0,-98.0,6.725
-471.0,-210.0,6.726
-369.0,-282.0,6.727
-228.0,-297.0,6.728
-215.0,-264.0,6.729
-179.0,-191.0,6.73
-27.0,-93.0,6.731
53.0,-13.0,6.732
-41.0,18.0,6.733
-75.0,25.0,6.734
131.0,62.0,6.735
376.0,129.0,6.736
437.0,168.0,6.737
405.0,143.0,6.738
458.0,87.0,6.739
519.0,48.0,6.74
400.0,17.0,6.741
117.0,-23.0,6.742
-164.0,-42.0,6.743
-399.0,-3.0,6.744
-640.0,51.0,6.745
-830.0,52.0,6.746
-831.0,8.0,6.747
-604.0,-23.0,6.748
-269.0,-34.0,6.749
35.0,-51.0,6.75
233.0,-49.0,6.751
302.0,14.0,6.752
274.0,100.0,6.753
239.0,112.0,6.754
264.0,41.0,6.755
307.0,-18.0,6.756
279.0,-12.0,6.757
152.0,10.0,6.758
-1.0,10.0,6.759
-127.0,10.0,6.76
-228.0,10.0,6.761
-269.0,8.0,6.762
-129.0,2.0,6.763
195.0,0.0,6.764
484.0,14.0,6.765
500.0,27.0,6.766
275.0,39.0,6.767
39.0,46.0,6.768
-90.0,37.0,6.769
-148.0,27.0,6.77
-128.0,13.0,6.771
14.0,-1.0,6.772
181.0,-20.0,6.773
177.0,-36.0,6.774
4.0,-40.0,6.775
-141.0,-49.0,6.776
-151.0,-71.0,6.777
-81.0,-87.0,6.778
6.0,-51.0,6.779
88.0,33.0,6.78
100.0,103.0,6.781
-5.0,127.0,6.782
-128.0,129.0,6.783
-131.0,152.0,6.784
-48.0,180.0,6.785
7.0,172.0,6.786
46.0,102.0,6.787
123.0,-11.0,6.788
157.0,-134.0,6.789
52.0,-233.0,6.79
-98.0,-298.0,6.791
-122.0,-332.0,6.792
-39.0,-321.0,6.793
-7.0,-238.0,6.794
-65.0,-110.0,6.795
-120.0,-17.0,6.796
-139.0,3.0,6.797
-178.0,5.0,6.798
-195.0,53.0,6.799
-37.0,122.0,6.8
326.0,159.0,6.801
666.0,184.0,6.802
739.0,223.0,6.803
564.0,237.0,6.804
353.0,173.0,6.805
179.0,56.0,6.806
-85.0,-41.0,6.807
-505.0,-102.0,6.808
-917.0,-147.0,6.809
-1119.0,-177.0,6.81
-1074.0,-170.0,6.811
-857.0,-124.0,6.812
-515.0,-66.0,6.813
-131.0,-37.0,6.814
96.0,-56.0,6.815
62.0,-90.0,6.816
-42.0,-76.0,6.817
57.0,0.0,6.818
359.0,63.0,6.819
581.0,60.0,6.82
594.0,31.0,6.821
585.0,52.0,6.822
660.0,98.0,6.823
617.0,119.0,6.824
312.0,136.0,6.825
-12.0,188.0,6.826
-64.0,227.0,6.827
19.0,172.0,6.828
-112.0,36.0,6.829
-467.0,-82.0,6.83
-671.0,-132.0,6.831
-534.0,-132.0,6.832
-293.0,-97.0,6.833
-201.0,-26.0,6.834
-150.0,47.0,6.835
93.0,69.0,6.836
442.0,38.0,6.837
649.0,-17.0,6.838
598.0,-60.0,6.839
443.0,-84.0,6.84
304.0,-84.0,6.841
99.0,-51.0,6.842
-171.0,-8.0,6.843
-272.0,10.0,6.844
-59.0,1.0,6.845
246.0,-12.0,6.846
317.0,-19.0,6.847
113.0,-25.0,6.848
-189.0,-26.0,6.849
-464.0,-17.0,6.85
-638.0,-12.0,6.851
-586.0,-26.0,6.852
-299.0,-40.0,6.853
-1.0,-26.0,6.854
98.0,8.0,6.855
67.0,34.0,6.856
53.0,41.0,6.857
33.0,36.0,6.858
-39.0,36.0,6.859
-43.0,39.0,6.86
141.0,40.0,6.861
355.0,48.0,6.862
379.0,72.0,6.863
252.0,103.0,6.864
152.0,115.0,6.865
99.0,86.0,6.866
33.0,26.0,6.867
17.0,-25.0,6.868
113.0,-49.0,6.869
188.0,-73.0,6.87
83.0,-124.0,6.871
-146.0,-167.0,6.872
-326.0,-148.0,6.873
-365.0,-77.0,6.874
-263.0,-25.0,6.875
-66.0,-22.0,6.876
96.0,-24.0,6.877
123.0,12.0,6.878
56.0,70.0,6.879
40.0,95.0,6.88
102.0,70.0,6.881
144.0,31.0,6.882
196.0,-7.0,6.883
389.0,-38.0,6.884
664.0,-55.0,6.885
716.0,-33.0,6.886
366.0,29.0,6.887
-216.0,111.0,6.888
-716.0,181.0,6.889
-975.0,212.0,6.89
-998.0,176.0,6.891
-818.0,56.0,6.892
-472.0,-102.0,6.893
-105.0,-197.0,6.894
93.0,-150.0,6.895
94.0,-20.0,6.896
68.0,43.0,6.897
151.0,-30.0,6.898
273.0,-161.0,6.899
289.0,-216.0,6.9
208.0,-163.0,6.901
129.0,-55.0,6.902
54.0,48.0,6.903
-61.0,122.0,6.904
-146.0,136.0,6.905
-98.0,85.0,6.906
33.0,14.0,6.907
153.0,-31.0,6.908
321.0,-50.0,6.909
587.0,-59.0,6.91
734.0,-57.0,6.911
453.0,-41.0,6.912
-171.0,-32.0,6.913
-592.0,-36.0,6.914
-394.0,-23.0,6.915
200.0,15.0,6.916
549.0,50.0,6.917
314.0,55.0,6.918
-276.0,50.0,6.919
-710.0,53.0,6.92
-705.0,48.0,6.921
-389.0,21.0,6.922
-72.0,-14.0,6.923
5.0,-19.0,6.924
-192.0,15.0,6.925
-471.0,50.0,6.926
-563.0,51.0,6.927
-384.0,20.0,6.928
-74.0,-6.0,6.929
192.0,-6.0,6.93
352.0,-2.0,6.931
393.0,-22.0,6.932
330.0,-52.0,6.933
255.0,-50.0,6.934
262.0,-2.0,6.935
310.0,47.0,6.936
290.0,56.0,6.937
190.0,33.0,6.938
115.0,21.0,6.939
115.0,28.0,6.94
136.0,18.0,6.941
136.0,-4.0,6.942
162.0,-14.0,6.943
233.0,0.0,6.944
276.0,12.0,6.945
203.0,3.0,6.946
26.0,-8.0,6.947
-151.0,-3.0,6.948
-244.0,3.0,6.949
-260.0,-1.0,6.95
-256.0,-6.0,6.951
-243.0,-4.0,6.952
-184.0,1.0,6.953
-69.0,0.0,6.954
28.0,-3.0,6.955
41.0,-1.0,6.956
-2.0,-2.0,6.957
-34.0,-7.0,6.958
-25.0,-7.0,6.959
-10.0,-7.0,6.96
-15.0,-11.0,6.961
-20.0,-15.0,6.962
-7.0,-15.0,6.963
6.0,-12.0,6.964
-1.0,-4.0,6.965
-15.0,1.0,6.966
-14.0,-1.0,6.967
0.0,-4.0,6.968
12.0,-6.0,6.969
15.0,-8.0,6.97
8.0,-8.0,6.971
-9.0,-7.0,6.972
-29.0,1.0,6.973
-37.0,8.0,6.974
-23.0,10.0,6.975
-4.0,11.0,6.976
1.0,3.0,6.977
-4.0,-6.0,6.978
-3.0,-19.0,6.979
6.0,-25.0,6.98
13.0,-24.0,6.981
12.0,-10.0,6.982
14.0,0.0,6.983
19.0,3.0,6.984
15.0,3.0,6.985
0.0,9.0,6.986
-13.0,22.0,6.987
-10.0,40.0,6.988
12.0,63.0,6.989
48.0,93.0,6.99
85.0,114.0,6.991
97.0,110.0,6.992
71.0,74.0,6.993
28.0,4.0,6.994
0.0,-95.0,6.995
-10.0,-208.0,6.996
-31.0,-282.0,6.997
-76.0,-280.0,6.998
-109.0,-198.0,6.999
-103.0,-99.0,7.0
-78.0,-45.0,7.001
-59.0,-20.0,7.002
-37.0,18.0,7.003
5.0,80.0,7.004
38.0,130.0,7.005
33.0,146.0,7.006
24.0,139.0,7.007
67.0,128.0,7.008
158.0,112.0,7.009
252.0,84.0,7.01
316.0,45.0,7.011
312.0,-14.0,7.012
188.0,-117.0,7.013
-45.0,-259.0,7.014
-281.0,-369.0,7.015
-396.0,-347.0,7.016
-362.0,-189.0,7.017
-237.0,21.0,7.018
-150.0,164.0,7.019
-196.0,207.0,7.02
-295.0,223.0,7.021
-227.0,273.0,7.022
60.0,333.0,7.023
291.0,348.0,7.024
231.0,302.0,7.025
42.0,224.0,7.026
33.0,142.0,7.027
166.0,71.0,7.028
181.0,13.0,7.029
54.0,-35.0,7.03
-3.0,-75.0,7.031
52.0,-95.0,7.032
56.0,-95.0,7.033
-15.0,-93.0,7.034
-34.0,-104.0,7.035
18.0,-112.0,7.036
37.0,-98.0,7.037
3.0,-80.0,7.038
-4.0,-75.0,7.039
20.0,-68.0,7.04
5.0,-56.0,7.041
-26.0,-45.0,7.042
0.0,-42.0,7.043
61.0,-43.0,7.044
76.0,-57.0,7.045
44.0,-73.0,7.046
22.0,-89.0,7.047
8.0,-90.0,7.048
-20.0,-46.0,7.049
-43.0,-3.0,7.05
-28.0,34.0,7.051
-6.0,71.0,7.052
-7.0,103.0,7.053
-11.0,119.0,7.054
0.0,89.0,7.055
7.0,31.0,7.056
-1.0,-106.0,7.057
-4.0,-236.0,7.058
3.0,-271.0,7.059
-1.0,-188.0,7.06
-14.0,-74.0,7.061
6.0,-14.0,7.062
67.0,-15.0,7.063
121.0,-19.0,7.064
118.0,6.0,7.065
66.0,39.0,7.066
2.0,49.0,7.067
-59.0,45.0,7.068
-112.0,45.0,7.069
-108.0,44.0,7.07
24.0,33.0,7.071
264.0,27.0,7.072
445.0,37.0,7.073
363.0,49.0,7.074
-16.0,42.0,7.075
-493.0,27.0,7.076
-768.0,23.0,7.077
-716.0,30.0,7.078
-412.0,32.0,7.079
-87.0,27.0,7.08
99.0,20.0,7.081
156.0,19.0,7.082
159.0,16.0,7.083
133.0,11.0,7.084
94.0,10.0,7.085
86.0,9.0,7.086
126.0,6.0,7.087
162.0,5.0,7.088
144.0,12.0,7.089
93.0,20.0,7.09
39.0,20.0,7.091
-14.0,16.0,7.092
-50.0,15.0,7.093
-30.0,15.0,7.094
22.0,-6.0,7.095
41.0,-98.0,7.096
26.0,-291.0,7.097
25.0,-505.0,7.098
47.0,-536.0,7.099
39.0,-442.0,7.1
-4.0,28.0,7.101
-21.0,392.0,7.102
5.0,436.0,7.103
28.0,457.0,7.104
18.0,411.0,7.105
13.0,356.0,7.106
27.0,273.0,7.107
30.0,206.0,7.108
13.0,187.0,7.109
4.0,165.0,7.11
12.0,137.0,7.111
11.0,103.0,7.112
-1.0,57.0,7.113
1.0,7.0,7.114
25.0,-54.0,7.115
47.0,-108.0,7.116
55.0,-134.0,7.117
52.0,-158.0,7.118
38.0,-202.0,7.119
5.0,-259.0,7.12
-34.0,-262.0,7.121
-46.0,-209.0,7.122
-22.0,-164.0,7.123
7.0,-139.0,7.124
14.0,-95.0,7.125
2.0,-27.0,7.126
1.0,31.0,7.127
20.0,81.0,7.128
35.0,135.0,7.129
25.0,165.0,7.13
-11.0,137.0,7.131
-62.0,74.0,7.132
-121.0,31.0,7.133
-173.0,17.0,7.134
-195.0,2.0,7.135
-173.0,-19.0,7.136
-124.0,-24.0,7.137
-74.0,-11.0,7.138
-28.0,7.0,7.139
14.0,28.0,7.14
54.0,54.0,7.141
80.0,66.0,7.142
80.0,32.0,7.143
49.0,-15.0,7.144
0.0,-106.0,7.145
-39.0,-180.0,7.146
-42.0,-202.0,7.147
-11.0,-213.0,7.148
30.0,-185.0,7.149
53.0,-147.0,7.15
50.0,-81.0,7.151
29.0,-24.0,7.152
18.0,5.0,7.153
28.0,29.0,7.154
44.0,37.0,7.155
47.0,49.0,7.156
53.0,74.0,7.157
109.0,91.0,7.158
249.0,79.0,7.159
428.0,76.0,7.16
538.0,66.0,7.161
482.0,34.0,7.162
234.0,10.0,7.163
-150.0,20.0,7.164
-549.0,35.0,7.165
-783.0,25.0,7.166
-739.0,8.0,7.167
-473.0,12.0,7.168
-175.0,23.0,7.169
16.0,19.0,7.17
83.0,10.0,7.171
63.0,13.0,7.172
11.0,20.0,7.173
3.0,19.0,7.174
72.0,14.0,7.175
131.0,9.0,7.176
106.0,-1.0,7.177
-41.0,29.0,7.178
-25.0,45.0,7.179
-13.0,62.0,7.18
-12.0,83.0,7.181
-11.0,103.0,7.182
-8.0,118.0,7.183
-6.0,126.0,7.184
-10.0,109.0,7.185
-13.0,91.0,7.186
-11.0,69.0,7.187
-9.0,49.0,7.188
-4.0,34.0,7.189
0.0,20.0,7.19
-1.0,11.0,7.191
-5.0,5.0,7.192
-17.0,7.0,7.193
-19.0,9.0,7.194
11.0,14.0,7.195
59.0,15.0,7.196
157.0,5.0,7.197
-22.0,-11.0,7.198
-14.0,34.0,7.199
-7.0,85.0,7.2
-6.0,146.0,7.201
-6.0,204.0,7.202
-4.0,248.0,7.203
-3.0,269.0,7.204
-5.0,221.0,7.205
-7.0,168.0,7.206
-6.0,105.0,7.207
-5.0,46.0,7.208
-2.0,2.0,7.209
0.0,-38.0,7.21
0.0,-63.0,7.211
-2.0,-81.0,7.212
-9.0,-75.0,7.213
-10.0,-68.0,7.214
6.0,-54.0,7.215
32.0,-51.0,7.216
86.0,-82.0,7.217
-62.0,-121.0,7.218
-39.0,-148.0,7.219
-21.0,-84.0,7.22
-19.0,10.0,7.221
-17.0,38.0,7.222
-13.0,-11.0,7.223
-10.0,-60.0,7.224
-16.0,-61.0,7.225
-20.0,-49.0,7.226
-18.0,-57.0,7.227
-14.0,-66.0,7.228
-7.0,-46.0,7.229
-1.0,-17.0,7.23
-2.0,-7.0,7.231
-8.0,-4.0,7.232
-26.0,4.0,7.233
-29.0,2.0,7.234
18.0,-19.0,7.235
90.0,-42.0,7.236
238.0,-73.0,7.237
363.0,-191.0,7.238
323.0,-379.0,7.239
120.0,-499.0,7.24
-132.0,-413.0,7.241
-327.0,-292.0,7.242
-418.0,-69.0,7.243
-380.0,136.0,7.244
-219.0,284.0,7.245
-37.0,409.0,7.246
23.0,465.0,7.247
-31.0,495.0,7.248
-57.0,446.0,7.249
12.0,401.0,7.25
79.0,370.0,7.251
48.0,326.0,7.252
-39.0,242.0,7.253
-91.0,164.0,7.254
-79.0,110.0,7.255
-35.0,52.0,7.256
15.0,-14.0,7.257
76.0,-71.0,7.258
149.0,-86.0,7.259
242.0,-101.0,7.26
338.0,-129.0,7.261
374.0,-143.0,7.262
302.0,-133.0,7.263
