Deltoid,Bicep,Time
-8.0,-1.0,0.0
-7.0,-8.0,0.001
-5.0,-9.0,0.002
-2.0,-6.0,0.003
3.0,0.0,0.004
7.0,4.0,0.005
5.0,8.0,0.006
1.0,7.0,0.007
0.0,2.0,0.008
3.0,-1.0,0.009
5.0,2.0,0.01
5.0,5.0,0.011
5.0,5.0,0.012
6.0,1.0,0.013
2.0,0.0,0.014
-2.0,1.0,0.015
-3.0,2.0,0.016
2.0,2.0,0.017
5.0,-1.0,0.018
0.0,-5.0,0.019
-7.0,-8.0,0.02
-14.0,-11.0,0.021
-14.0,-9.0,0.022
-7.0,-4.0,0.023
2.0,-1.0,0.024
7.0,-3.0,0.025
7.0,-3.0,0.026
5.0,-1.0,0.027
3.0,0.0,0.028
2.0,0.0,0.029
1.0,-2.0,0.03
3.0,-1.0,0.031
6.0,1.0,0.032
7.0,3.0,0.033
6.0,2.0,0.034
4.0,1.0,0.035
4.0,-1.0,0.036
6.0,0.0,0.037
5.0,0.0,0.038
4.0,0.0,0.039
2.0,0.0,0.04
-2.0,1.0,0.041
-5.0,1.0,0.042
0.0,0.0,0.043
4.0,0.0,0.044
2.0,4.0,0.045
0.0,8.0,0.046
1.0,9.0,0.047
3.0,9.0,0.048
5.0,6.0,0.049
8.0,3.0,0.05
7.0,0.0,0.051
6.0,-5.0,0.052
5.0,-7.0,0.053
4.0,-10.0,0.054
4.0,-8.0,0.055
2.0,-7.0,0.056
0.0,-9.0,0.057
0.0,1.0,0.058
1.0,1.0,0.059
2.0,1.0,0.06
0.0,2.0,0.061
-2.0,2.0,0.062
3.0,0.0,0.063
12.0,0.0,0.064
9.0,5.0,0.065
-2.0,10.0,0.066
-7.0,11.0,0.067
-3.0,11.0,0.068
2.0,8.0,0.069
0.0,4.0,0.07
0.0,-1.0,0.071
5.0,-6.0,0.072
10.0,-9.0,0.073
6.0,-12.0,0.074
1.0,-10.0,0.075
4.0,-9.0,0.076
9.0,-11.0,0.077
6.0,-13.0,0.078
1.0,-11.0,0.079
-1.0,-13.0,0.08
-3.0,-17.0,0.081
-6.0,-13.0,0.082
-4.0,-4.0,0.083
3.0,5.0,0.084
9.0,8.0,0.085
6.0,8.0,0.086
3.0,8.0,0.087
4.0,9.0,0.088
4.0,9.0,0.089
1.0,9.0,0.09
-1.0,4.0,0.091
0.0,0.0,0.092
2.0,0.0,0.093
1.0,5.0,0.094
1.0,8.0,0.095
3.0,7.0,0.096
5.0,5.0,0.097
3.0,3.0,0.098
1.0,3.0,0.099
-1.0,0.0,0.1
-6.0,-6.0,0.101
-8.0,-4.0,0.102
-1.0,0.0,0.103
10.0,-2.0,0.104
12.0,-6.0,0.105
5.0,-8.0,0.106
0.0,-7.0,0.107
3.0,-7.0,0.108
5.0,-8.0,0.109
2.0,-5.0,0.11
1.0,-1.0,0.111
2.0,0.0,0.112
3.0,0.0,0.113
1.0,3.0,0.114
1.0,5.0,0.115
3.0,5.0,0.116
3.0,4.0,0.117
0.0,3.0,0.118
-1.0,4.0,0.119
-1.0,5.0,0.12
-2.0,4.0,0.121
-2.0,6.0,0.122
2.0,9.0,0.123
10.0,7.0,0.124
10.0,3.0,0.125
5.0,1.0,0.126
2.0,-1.0,0.127
4.0,-5.0,0.128
4.0,-10.0,0.129
0.0,-10.0,0.13
0.0,-8.0,0.131
1.0,-8.0,0.132
-1.0,-6.0,0.133
-5.0,-2.0,0.134
-3.0,-1.0,0.135
3.0,-5.0,0.136
9.0,-8.0,0.137
3.0,-6.0,0.138
-2.0,0.0,0.139
-5.0,1.0,0.14
-4.0,-5.0,0.141
-2.0,-6.0,0.142
5.0,-1.0,0.143
13.0,2.0,0.144
13.0,1.0,0.145
6.0,3.0,0.146
1.0,4.0,0.147
2.0,1.0,0.148
3.0,-2.0,0.149
2.0,0.0,0.15
2.0,4.0,0.151
4.0,6.0,0.152
5.0,3.0,0.153
2.0,4.0,0.154
0.0,7.0,0.155
0.0,9.0,0.156
4.0,6.0,0.157
5.0,1.0,0.158
2.0,-5.0,0.159
-4.0,-11.0,0.16
-5.0,-20.0,0.161
0.0,-22.0,0.162
5.0,-15.0,0.163
5.0,-8.0,0.164
5.0,-2.0,0.165
6.0,1.0,0.166
9.0,4.0,0.167
10.0,4.0,0.168
7.0,4.0,0.169
9.0,7.0,0.17
11.0,8.0,0.171
11.0,7.0,0.172
6.0,3.0,0.173
0.0,1.0,0.174
0.0,2.0,0.175
2.0,3.0,0.176
3.0,3.0,0.177
2.0,0.0,0.178
0.0,-4.0,0.179
-3.0,-7.0,0.18
-9.0,-9.0,0.181
-11.0,-7.0,0.182
-4.0,-4.0,0.183
6.0,-3.0,0.184
9.0,-1.0,0.185
4.0,1.0,0.186
0.0,3.0,0.187
3.0,2.0,0.188
6.0,0.0,0.189
6.0,1.0,0.19
4.0,4.0,0.191
5.0,4.0,0.192
7.0,3.0,0.193
7.0,2.0,0.194
4.0,0.0,0.195
2.0,-5.0,0.196
0.0,-7.0,0.197
-3.0,-7.0,0.198
-5.0,-4.0,0.199
-6.0,-3.0,0.2
-5.0,-2.0,0.201
-4.0,1.0,0.202
1.0,4.0,0.203
5.0,4.0,0.204
4.0,1.0,0.205
-2.0,0.0,0.206
-2.0,-3.0,0.207
4.0,-5.0,0.208
9.0,-5.0,0.209
7.0,-3.0,0.21
4.0,-1.0,0.211
5.0,-2.0,0.212
7.0,1.0,0.213
5.0,5.0,0.214
1.0,4.0,0.215
0.0,-1.0,0.216
0.0,-3.0,0.217
-1.0,-1.0,0.218
0.0,2.0,0.219
0.0,-1.0,0.22
-2.0,-7.0,0.221
-6.0,-5.0,0.222
-7.0,1.0,0.223
-1.0,3.0,0.224
4.0,3.0,0.225
4.0,6.0,0.226
7.0,9.0,0.227
11.0,8.0,0.228
13.0,6.0,0.229
8.0,8.0,0.23
1.0,11.0,0.231
-1.0,11.0,0.232
0.0,9.0,0.233
0.0,9.0,0.234
0.0,8.0,0.235
4.0,3.0,0.236
9.0,0.0,0.237
7.0,-8.0,0.238
3.0,-17.0,0.239
0.0,-32.0,0.24
1.0,-43.0,0.241
0.0,-38.0,0.242
0.0,-21.0,0.243
5.0,-9.0,0.244
9.0,-6.0,0.245
5.0,-7.0,0.246
-3.0,-5.0,0.247
-5.0,0.0,0.248
0.0,4.0,0.249
7.0,8.0,0.25
10.0,10.0,0.251
9.0,9.0,0.252
7.0,8.0,0.253
5.0,8.0,0.254
2.0,9.0,0.255
2.0,8.0,0.256
2.0,4.0,0.257
1.0,0.0,0.258
-1.0,-2.0,0.259
-2.0,-3.0,0.26
-2.0,-7.0,0.261
-3.0,-7.0,0.262
-1.0,-1.0,0.263
5.0,3.0,0.264
8.0,5.0,0.265
3.0,1.0,0.266
-3.0,-2.0,0.267
-2.0,-2.0,0.268
0.0,-1.0,0.269
1.0,2.0,0.27
1.0,3.0,0.271
2.0,4.0,0.272
3.0,3.0,0.273
5.0,2.0,0.274
6.0,0.0,0.275
6.0,-2.0,0.276
4.0,-1.0,0.277
-2.0,-2.0,0.278
-6.0,-6.0,0.279
-7.0,-7.0,0.28
-5.0,-6.0,0.281
-3.0,-3.0,0.282
4.0,-1.0,0.283
13.0,0.0,0.284
14.0,3.0,0.285
7.0,4.0,0.286
0.0,2.0,0.287
-2.0,1.0,0.288
-1.0,5.0,0.289
-1.0,11.0,0.29
-2.0,12.0,0.291
-2.0,11.0,0.292
-3.0,11.0,0.293
-4.0,13.0,0.294
-2.0,10.0,0.295
1.0,6.0,0.296
3.0,1.0,0.297
0.0,0.0,0.298
0.0,-3.0,0.299
1.0,-6.0,0.3
2.0,-12.0,0.301
4.0,-14.0,0.302
10.0,-18.0,0.303
15.0,-24.0,0.304
14.0,-25.0,0.305
5.0,-20.0,0.306
0.0,-11.0,0.307
2.0,-6.0,0.308
5.0,-3.0,0.309
4.0,-3.0,0.31
2.0,-2.0,0.311
3.0,0.0,0.312
4.0,0.0,0.313
1.0,2.0,0.314
-1.0,5.0,0.315
-1.0,8.0,0.316
3.0,9.0,0.317
2.0,6.0,0.318
-1.0,5.0,0.319
-6.0,8.0,0.32
-6.0,8.0,0.321
-1.0,4.0,0.322
6.0,0.0,0.323
10.0,1.0,0.324
9.0,7.0,0.325
3.0,8.0,0.326
0.0,5.0,0.327
0.0,2.0,0.328
4.0,-1.0,0.329
6.0,-1.0,0.33
6.0,-4.0,0.331
5.0,-6.0,0.332
6.0,-6.0,0.333
4.0,-7.0,0.334
2.0,-7.0,0.335
2.0,-9.0,0.336
4.0,-7.0,0.337
2.0,-5.0,0.338
-2.0,-3.0,0.339
-7.0,-1.0,0.34
-8.0,-3.0,0.341
-3.0,-3.0,0.342
5.0,-3.0,0.343
9.0,-4.0,0.344
7.0,-1.0,0.345
3.0,7.0,0.346
4.0,11.0,0.347
8.0,7.0,0.348
8.0,1.0,0.349
3.0,2.0,0.35
0.0,5.0,0.351
-1.0,4.0,0.352
0.0,1.0,0.353
1.0,2.0,0.354
1.0,5.0,0.355
0.0,4.0,0.356
0.0,0.0,0.357
1.0,-2.0,0.358
4.0,-2.0,0.359
0.0,-3.0,0.36
-5.0,-9.0,0.361
-6.0,-11.0,0.362
2.0,-7.0,0.363
12.0,-2.0,0.364
11.0,0.0,0.365
4.0,-1.0,0.366
4.0,-2.0,0.367
10.0,-4.0,0.368
12.0,-2.0,0.369
8.0,2.0,0.37
4.0,3.0,0.371
3.0,0.0,0.372
3.0,-4.0,0.373
2.0,-4.0,0.374
2.0,-2.0,0.375
3.0,-1.0,0.376
4.0,-1.0,0.377
0.0,-3.0,0.378
-4.0,-2.0,0.379
-8.0,0.0,0.38
-10.0,-2.0,0.381
-8.0,-2.0,0.382
0.0,0.0,0.383
6.0,6.0,0.384
7.0,10.0,0.385
3.0,11.0,0.386
3.0,9.0,0.387
5.0,6.0,0.388
5.0,5.0,0.389
2.0,5.0,0.39
0.0,5.0,0.391
1.0,3.0,0.392
4.0,2.0,0.393
6.0,0.0,0.394
9.0,-2.0,0.395
8.0,-7.0,0.396
5.0,-11.0,0.397
1.0,-19.0,0.398
1.0,-23.0,0.399
2.0,-22.0,0.4
-1.0,-21.0,0.401
-2.0,-15.0,0.402
3.0,-10.0,0.403
7.0,-6.0,0.404
3.0,-1.0,0.405
-4.0,1.0,0.406
-4.0,2.0,0.407
1.0,4.0,0.408
4.0,7.0,0.409
2.0,8.0,0.41
2.0,5.0,0.411
3.0,3.0,0.412
2.0,7.0,0.413
0.0,9.0,0.414
1.0,5.0,0.415
2.0,2.0,0.416
1.0,6.0,0.417
-1.0,11.0,0.418
0.0,15.0,0.419
2.0,14.0,0.42
-2.0,8.0,0.421
-4.0,5.0,0.422
2.0,5.0,0.423
11.0,6.0,0.424
8.0,8.0,0.425
0.0,5.0,0.426
0.0,-2.0,0.427
4.0,-6.0,0.428
5.0,-8.0,0.429
3.0,-12.0,0.43
6.0,-19.0,0.431
12.0,-21.0,0.432
11.0,-18.0,0.433
5.0,-15.0,0.434
0.0,-14.0,0.435
0.0,-11.0,0.436
0.0,-4.0,0.437
-1.0,3.0,0.438
-2.0,3.0,0.439
-4.0,1.0,0.44
-9.0,-2.0,0.441
-7.0,-3.0,0.442
0.0,-1.0,0.443
7.0,-1.0,0.444
2.0,0.0,0.445
-3.0,2.0,0.446
-2.0,1.0,0.447
3.0,0.0,0.448
4.0,1.0,0.449
0.0,5.0,0.45
-1.0,6.0,0.451
3.0,2.0,0.452
5.0,-3.0,0.453
4.0,-5.0,0.454
6.0,-4.0,0.455
10.0,-2.0,0.456
11.0,0.0,0.457
6.0,-2.0,0.458
0.0,-1.0,0.459
-3.0,1.0,0.46
-4.0,-2.0,0.461
-4.0,-2.0,0.462
0.0,5.0,0.463
7.0,13.0,0.464
9.0,14.0,0.465
3.0,9.0,0.466
0.0,4.0,0.467
4.0,1.0,0.468
12.0,0.0,0.469
14.0,-1.0,0.47
9.0,-1.0,0.471
3.0,-2.0,0.472
2.0,-6.0,0.473
4.0,-11.0,0.474
7.0,-12.0,0.475
6.0,-8.0,0.476
7.0,-2.0,0.477
7.0,-1.0,0.478
4.0,2.0,0.479
-3.0,4.0,0.48
-7.0,2.0,0.481
-2.0,0.0,0.482
9.0,1.0,0.483
13.0,6.0,0.484
6.0,13.0,0.485
-1.0,15.0,0.486
-3.0,9.0,0.487
-3.0,2.0,0.488
-4.0,0.0,0.489
-4.0,1.0,0.49
-1.0,0.0,0.491
2.0,-2.0,0.492
2.0,-4.0,0.493
0.0,-2.0,0.494
0.0,0.0,0.495
0.0,-2.0,0.496
2.0,-3.0,0.497
0.0,-3.0,0.498
-1.0,-3.0,0.499
-4.0,-5.0,0.5
-6.0,-9.0,0.501
-6.0,-13.0,0.502
0.0,-13.0,0.503
6.0,-13.0,0.504
7.0,-9.0,0.505
8.0,-6.0,0.506
5.0,-6.0,0.507
3.0,-5.0,0.508
4.0,-5.0,0.509
5.0,-5.0,0.51
3.0,-3.0,0.511
2.0,-2.0,0.512
3.0,0.0,0.513
5.0,1.0,0.514
5.0,0.0,0.515
5.0,0.0,0.516
3.0,4.0,0.517
1.0,6.0,0.518
1.0,2.0,0.519
1.0,-4.0,0.52
0.0,-7.0,0.521
-2.0,-4.0,0.522
-1.0,0.0,0.523
3.0,-1.0,0.524
3.0,-1.0,0.525
1.0,0.0,0.526
0.0,0.0,0.527
2.0,0.0,0.528
4.0,1.0,0.529
4.0,5.0,0.53
5.0,8.0,0.531
4.0,7.0,0.532
2.0,6.0,0.533
0.0,7.0,0.534
0.0,8.0,0.535
3.0,5.0,0.536
6.0,3.0,0.537
3.0,1.0,0.538
-1.0,0.0,0.539
-5.0,-6.0,0.54
-6.0,-12.0,0.541
-3.0,-12.0,0.542
2.0,-8.0,0.543
8.0,-5.0,0.544
8.0,-2.0,0.545
5.0,2.0,0.546
4.0,4.0,0.547
5.0,1.0,0.548
5.0,0.0,0.549
5.0,3.0,0.55
6.0,2.0,0.551
7.0,-3.0,0.552
5.0,-8.0,0.553
0.0,-4.0,0.554
0.0,1.0,0.555
3.0,2.0,0.556
7.0,1.0,0.557
4.0,-2.0,0.558
-1.0,-3.0,0.559
-2.0,-4.0,0.56
-4.0,-7.0,0.561
-6.0,-6.0,0.562
-3.0,-2.0,0.563
4.0,1.0,0.564
7.0,3.0,0.565
2.0,2.0,0.566
-3.0,2.0,0.567
2.0,0.0,0.568
9.0,0.0,0.569
7.0,3.0,0.57
0.0,4.0,0.571
-3.0,1.0,0.572
-2.0,-4.0,0.573
0.0,-5.0,0.574
0.0,-3.0,0.575
1.0,0.0,0.576
5.0,0.0,0.577
4.0,-2.0,0.578
0.0,-5.0,0.579
-3.0,-6.0,0.58
-3.0,-8.0,0.581
1.0,-2.0,0.582
7.0,5.0,0.583
13.0,5.0,0.584
16.0,0.0,0.585
14.0,-3.0,0.586
9.0,-4.0,0.587
6.0,-5.0,0.588
1.0,-6.0,0.589
-3.0,-6.0,0.59
-4.0,-5.0,0.591
-1.0,-4.0,0.592
2.0,-3.0,0.593
2.0,-3.0,0.594
2.0,-4.0,0.595
2.0,-5.0,0.596
2.0,-4.0,0.597
-2.0,-2.0,0.598
-6.0,0.0,0.599
-7.0,1.0,0.6
-5.0,0.0,0.601
-3.0,0.0,0.602
2.0,4.0,0.603
11.0,5.0,0.604
12.0,6.0,0.605
6.0,4.0,0.606
0.0,3.0,0.607
1.0,5.0,0.608
2.0,10.0,0.609
-1.0,13.0,0.61
-3.0,11.0,0.611
1.0,8.0,0.612
8.0,4.0,0.613
9.0,2.0,0.614
6.0,-1.0,0.615
5.0,-4.0,0.616
7.0,-5.0,0.617
8.0,-5.0,0.618
5.0,-4.0,0.619
2.0,-6.0,0.62
-1.0,-10.0,0.621
-1.0,-9.0,0.622
2.0,-5.0,0.623
7.0,-1.0,0.624
6.0,0.0,0.625
0.0,1.0,0.626
-2.0,-1.0,0.627
1.0,-4.0,0.628
2.0,-5.0,0.629
1.0,-4.0,0.63
0.0,-5.0,0.631
2.0,-7.0,0.632
4.0,-8.0,0.633
2.0,-4.0,0.634
1.0,0.0,0.635
3.0,-1.0,0.636
5.0,0.0,0.637
2.0,0.0,0.638
-1.0,1.0,0.639
-4.0,2.0,0.64
-6.0,2.0,0.641
-7.0,3.0,0.642
-1.0,2.0,0.643
8.0,0.0,0.644
11.0,2.0,0.645
5.0,3.0,0.646
2.0,0.0,0.647
7.0,-5.0,0.648
9.0,-7.0,0.649
5.0,-6.0,0.65
2.0,-5.0,0.651
5.0,-5.0,0.652
11.0,-2.0,0.653
10.0,4.0,0.654
5.0,6.0,0.655
0.0,7.0,0.656
0.0,9.0,0.657
1.0,8.0,0.658
2.0,5.0,0.659
-1.0,2.0,0.66
-4.0,-1.0,0.661
-4.0,-1.0,0.662
3.0,-1.0,0.663
9.0,-4.0,0.664
7.0,-5.0,0.665
2.0,-4.0,0.666
1.0,-7.0,0.667
3.0,-10.0,0.668
7.0,-13.0,0.669
8.0,-9.0,0.67
8.0,-4.0,0.671
4.0,-3.0,0.672
-3.0,-2.0,0.673
-4.0,-2.0,0.674
-2.0,-4.0,0.675
-1.0,-6.0,0.676
-5.0,-3.0,0.677
-9.0,-3.0,0.678
-6.0,-4.0,0.679
-3.0,-7.0,0.68
-4.0,-9.0,0.681
-5.0,-6.0,0.682
4.0,-2.0,0.683
14.0,1.0,0.684
11.0,4.0,0.685
0.0,9.0,0.686
-5.0,11.0,0.687
0.0,9.0,0.688
6.0,10.0,0.689
6.0,11.0,0.69
7.0,12.0,0.691
12.0,12.0,0.692
14.0,9.0,0.693
9.0,9.0,0.694
5.0,7.0,0.695
5.0,3.0,0.696
5.0,-2.0,0.697
0.0,-7.0,0.698
-6.0,-9.0,0.699
-6.0,-9.0,0.7
-3.0,-9.0,0.701
0.0,-6.0,0.702
1.0,-2.0,0.703
7.0,2.0,0.704
11.0,3.0,0.705
10.0,2.0,0.706
4.0,2.0,0.707
1.0,2.0,0.708
0.0,1.0,0.709
0.0,-3.0,0.71
-1.0,-7.0,0.711
-1.0,-10.0,0.712
-2.0,-10.0,0.713
-7.0,-10.0,0.714
-14.0,-8.0,0.715
-15.0,-7.0,0.716
-7.0,-4.0,0.717
2.0,-4.0,0.718
6.0,-4.0,0.719
0.0,-2.0,0.72
-3.0,-2.0,0.721
4.0,-2.0,0.722
23.0,-1.0,0.723
36.0,1.0,0.724
36.0,7.0,0.725
26.0,11.0,0.726
22.0,9.0,0.727
28.0,3.0,0.728
29.0,-3.0,0.729
14.0,-3.0,0.73
-3.0,-1.0,0.731
-9.0,-1.0,0.732
-12.0,1.0,0.733
-23.0,3.0,0.734
-36.0,9.0,0.735
-35.0,11.0,0.736
-23.0,13.0,0.737
-10.0,9.0,0.738
-1.0,4.0,0.739
8.0,0.0,0.74
12.0,-3.0,0.741
4.0,-2.0,0.742
0.0,0.0,0.743
13.0,0.0,0.744
32.0,-1.0,0.745
31.0,-3.0,0.746
10.0,-6.0,0.747
-5.0,-11.0,0.748
-2.0,-17.0,0.749
3.0,-19.0,0.75
-3.0,-18.0,0.751
-13.0,-16.0,0.752
-17.0,-13.0,0.753
-16.0,-13.0,0.754
-12.0,-13.0,0.755
0.0,-12.0,0.756
17.0,-9.0,0.757
23.0,-7.0,0.758
16.0,-5.0,0.759
3.0,-3.0,0.76
-1.0,-1.0,0.761
1.0,3.0,0.762
3.0,10.0,0.763
6.0,12.0,0.764
10.0,12.0,0.765
9.0,12.0,0.766
3.0,12.0,0.767
-3.0,12.0,0.768
-2.0,10.0,0.769
0.0,8.0,0.77
0.0,7.0,0.771
-3.0,7.0,0.772
-4.0,7.0,0.773
-5.0,6.0,0.774
-8.0,7.0,0.775
-6.0,8.0,0.776
-1.0,8.0,0.777
2.0,2.0,0.778
1.0,-3.0,0.779
-2.0,-7.0,0.78
-2.0,-9.0,0.781
1.0,-9.0,0.782
4.0,-10.0,0.783
6.0,-8.0,0.784
9.0,-5.0,0.785
10.0,-3.0,0.786
13.0,-5.0,0.787
14.0,-9.0,0.788
12.0,-8.0,0.789
5.0,-4.0,0.79
-2.0,-4.0,0.791
0.0,-6.0,0.792
4.0,-5.0,0.793
9.0,1.0,0.794
10.0,6.0,0.795
9.0,0.0,0.796
7.0,-4.0,0.797
6.0,-2.0,0.798
3.0,2.0,0.799
0.0,3.0,0.8
-2.0,-2.0,0.801
-3.0,-3.0,0.802
0.0,0.0,0.803
4.0,3.0,0.804
4.0,2.0,0.805
-1.0,2.0,0.806
-4.0,0.0,0.807
-3.0,-1.0,0.808
-1.0,-1.0,0.809
1.0,1.0,0.81
4.0,2.0,0.811
5.0,0.0,0.812
2.0,-1.0,0.813
-3.0,2.0,0.814
-2.0,4.0,0.815
2.0,1.0,0.816
7.0,1.0,0.817
3.0,1.0,0.818
1.0,2.0,0.819
0.0,-1.0,0.82
2.0,-6.0,0.821
4.0,-7.0,0.822
8.0,-2.0,0.823
13.0,2.0,0.824
11.0,4.0,0.825
2.0,4.0,0.826
-4.0,1.0,0.827
-4.0,-3.0,0.828
0.0,-5.0,0.829
3.0,-5.0,0.83
1.0,-8.0,0.831
0.0,-14.0,0.832
-1.0,-16.0,0.833
-1.0,-12.0,0.834
-2.0,-6.0,0.835
-3.0,-6.0,0.836
-2.0,-9.0,0.837
-1.0,-11.0,0.838
-1.0,-5.0,0.839
-4.0,2.0,0.84
-8.0,2.0,0.841
-10.0,1.0,0.842
-5.0,4.0,0.843
3.0,8.0,0.844
6.0,8.0,0.845
3.0,5.0,0.846
0.0,2.0,0.847
4.0,6.0,0.848
9.0,11.0,0.849
11.0,11.0,0.85
11.0,5.0,0.851
12.0,1.0,0.852
14.0,-1.0,0.853
12.0,0.0,0.854
10.0,0.0,0.855
7.0,-6.0,0.856
4.0,-9.0,0.857
0.0,-9.0,0.858
-3.0,-7.0,0.859
-6.0,-5.0,0.86
-6.0,-8.0,0.861
0.0,-9.0,0.862
8.0,-6.0,0.863
12.0,0.0,0.864
7.0,3.0,0.865
-1.0,5.0,0.866
0.0,7.0,0.867
9.0,7.0,0.868
13.0,5.0,0.869
9.0,1.0,0.87
4.0,0.0,0.871
5.0,0.0,0.872
7.0,-2.0,0.873
6.0,-6.0,0.874
2.0,-7.0,0.875
0.0,-4.0,0.876
-1.0,1.0,0.877
-4.0,2.0,0.878
-8.0,4.0,0.879
-10.0,6.0,0.88
-12.0,3.0,0.881
-10.0,1.0,0.882
-4.0,-1.0,0.883
5.0,-1.0,0.884
10.0,2.0,0.885
9.0,4.0,0.886
5.0,2.0,0.887
4.0,0.0,0.888
3.0,-1.0,0.889
-2.0,1.0,0.89
-3.0,3.0,0.891
0.0,1.0,0.892
4.0,-2.0,0.893
4.0,-4.0,0.894
2.0,-4.0,0.895
6.0,-7.0,0.896
11.0,-8.0,0.897
10.0,-9.0,0.898
9.0,-8.0,0.899
6.0,-8.0,0.9
4.0,-10.0,0.901
-2.0,-7.0,0.902
-5.0,0.0,0.903
-4.0,4.0,0.904
-2.0,6.0,0.905
-1.0,8.0,0.906
2.0,7.0,0.907
9.0,4.0,0.908
12.0,0.0,0.909
7.0,0.0,0.91
0.0,3.0,0.911
-3.0,4.0,0.912
-1.0,1.0,0.913
2.0,0.0,0.914
7.0,3.0,0.915
11.0,6.0,0.916
11.0,4.0,0.917
6.0,0.0,0.918
3.0,-3.0,0.919
0.0,-4.0,0.92
-7.0,-5.0,0.921
-13.0,-3.0,0.922
-7.0,-1.0,0.923
7.0,-2.0,0.924
12.0,-6.0,0.925
3.0,-8.0,0.926
-2.0,-10.0,0.927
3.0,-11.0,0.928
10.0,-9.0,0.929
7.0,-5.0,0.93
2.0,-4.0,0.931
3.0,-3.0,0.932
9.0,-3.0,0.933
11.0,0.0,0.934
8.0,0.0,0.935
5.0,0.0,0.936
2.0,1.0,0.937
0.0,1.0,0.938
-3.0,1.0,0.939
-9.0,0.0,0.94
-14.0,-1.0,0.941
-12.0,1.0,0.942
-2.0,4.0,0.943
7.0,5.0,0.944
7.0,5.0,0.945
0.0,5.0,0.946
1.0,4.0,0.947
9.0,5.0,0.948
14.0,6.0,0.949
9.0,5.0,0.95
5.0,2.0,0.951
8.0,-1.0,0.952
10.0,1.0,0.953
2.0,2.0,0.954
-7.0,0.0,0.955
-8.0,-4.0,0.956
-1.0,-1.0,0.957
2.0,0.0,0.958
0.0,-1.0,0.959
-7.0,-5.0,0.96
-10.0,-7.0,0.961
-5.0,-7.0,0.962
7.0,-6.0,0.963
16.0,-3.0,0.964
17.0,0.0,0.965
11.0,1.0,0.966
5.0,-2.0,0.967
3.0,-4.0,0.968
2.0,-2.0,0.969
1.0,3.0,0.97
3.0,5.0,0.971
6.0,2.0,0.972
6.0,0.0,0.973
4.0,1.0,0.974
4.0,3.0,0.975
7.0,3.0,0.976
8.0,1.0,0.977
3.0,-2.0,0.978
2.0,-4.0,0.979
2.0,-5.0,0.98
-1.0,-6.0,0.981
-6.0,-6.0,0.982
-5.0,-3.0,0.983
0.0,2.0,0.984
1.0,4.0,0.985
-2.0,2.0,0.986
-3.0,0.0,0.987
-1.0,-2.0,0.988
3.0,-2.0,0.989
4.0,-4.0,0.99
4.0,-7.0,0.991
5.0,-8.0,0.992
4.0,-8.0,0.993
3.0,-7.0,0.994
5.0,-6.0,0.995
8.0,-5.0,0.996
9.0,-2.0,0.997
5.0,0.0,0.998
2.0,0.0,0.999
-2.0,-2.0,1.0
-5.0,-6.0,1.001
0.0,-4.0,1.002
12.0,-1.0,1.003
22.0,0.0,1.004
25.0,3.0,1.005
17.0,10.0,1.006
6.0,14.0,1.007
-4.0,11.0,1.008
-15.0,4.0,1.009
-22.0,0.0,1.01
-25.0,1.0,1.011
-26.0,3.0,1.012
-24.0,6.0,1.013
-12.0,9.0,1.014
5.0,6.0,1.015
15.0,0.0,1.016
12.0,-2.0,1.017
8.0,-3.0,1.018
12.0,-4.0,1.019
13.0,-8.0,1.02
5.0,-10.0,1.021
0.0,-6.0,1.022
7.0,0.0,1.023
13.0,-1.0,1.024
6.0,-1.0,1.025
-4.0,0.0,1.026
-3.0,2.0,1.027
5.0,1.0,1.028
7.0,1.0,1.029
5.0,4.0,1.03
13.0,3.0,1.031
22.0,0.0,1.032
20.0,0.0,1.033
9.0,1.0,1.034
3.0,2.0,1.035
3.0,-2.0,1.036
3.0,-3.0,1.037
-1.0,-2.0,1.038
-2.0,-5.0,1.039
-4.0,-10.0,1.04
-10.0,-17.0,1.041
-11.0,-13.0,1.042
1.0,-5.0,1.043
17.0,0.0,1.044
21.0,2.0,1.045
15.0,4.0,1.046
12.0,3.0,1.047
10.0,-1.0,1.048
3.0,-1.0,1.049
-9.0,4.0,1.05
-17.0,8.0,1.051
-17.0,5.0,1.052
-14.0,2.0,1.053
-12.0,1.0,1.054
-7.0,0.0,1.055
1.0,-3.0,1.056
5.0,-4.0,1.057
4.0,-1.0,1.058
3.0,2.0,1.059
1.0,0.0,1.06
-1.0,-6.0,1.061
-4.0,-9.0,1.062
0.0,-6.0,1.063
9.0,-2.0,1.064
10.0,2.0,1.065
3.0,7.0,1.066
-1.0,5.0,1.067
4.0,0.0,1.068
12.0,-2.0,1.069
13.0,1.0,1.07
6.0,3.0,1.071
3.0,-1.0,1.072
4.0,-3.0,1.073
4.0,2.0,1.074
2.0,6.0,1.075
1.0,2.0,1.076
3.0,-3.0,1.077
7.0,-7.0,1.078
5.0,-9.0,1.079
-3.0,-12.0,1.08
-9.0,-14.0,1.081
-6.0,-10.0,1.082
7.0,-5.0,1.083
19.0,0.0,1.084
20.0,6.0,1.085
13.0,12.0,1.086
6.0,9.0,1.087
4.0,0.0,1.088
0.0,-3.0,1.089
-7.0,2.0,1.09
-19.0,7.0,1.091
-22.0,3.0,1.092
-14.0,0.0,1.093
-2.0,0.0,1.094
6.0,0.0,1.095
7.0,-3.0,1.096
7.0,-1.0,1.097
8.0,0.0,1.098
8.0,0.0,1.099
0.0,-4.0,1.1
-16.0,-7.0,1.101
-24.0,-1.0,1.102
-17.0,5.0,1.103
4.0,7.0,1.104
19.0,13.0,1.105
17.0,20.0,1.106
12.0,17.0,1.107
20.0,8.0,1.108
33.0,0.0,1.109
32.0,1.0,1.11
13.0,-1.0,1.111
-6.0,-7.0,1.112
-8.0,-11.0,1.113
0.0,-8.0,1.114
5.0,-8.0,1.115
2.0,-15.0,1.116
2.0,-19.0,1.117
9.0,-21.0,1.118
14.0,-21.0,1.119
6.0,-19.0,1.12
-7.0,-14.0,1.121
-15.0,-5.0,1.122
-9.0,3.0,1.123
3.0,6.0,1.124
9.0,7.0,1.125
7.0,9.0,1.126
2.0,7.0,1.127
5.0,6.0,1.128
10.0,7.0,1.129
2.0,10.0,1.13
-14.0,9.0,1.131
-19.0,6.0,1.132
-1.0,4.0,1.133
21.0,2.0,1.134
20.0,0.0,1.135
-1.0,0.0,1.136
-17.0,3.0,1.137
-18.0,5.0,1.138
-11.0,2.0,1.139
-16.0,-2.0,1.14
-21.0,-4.0,1.141
-19.0,-3.0,1.142
-3.0,-3.0,1.143
13.0,0.0,1.144
18.0,3.0,1.145
12.0,3.0,1.146
7.0,1.0,1.147
9.0,0.0,1.148
13.0,0.0,1.149
11.0,0.0,1.15
2.0,-2.0,1.151
-3.0,-1.0,1.152
-3.0,3.0,1.153
3.0,2.0,1.154
8.0,-2.0,1.155
7.0,-2.0,1.156
5.0,1.0,1.157
0.0,0.0,1.158
0.0,-2.0,1.159
3.0,-4.0,1.16
7.0,-8.0,1.161
8.0,-10.0,1.162
10.0,-14.0,1.163
11.0,-14.0,1.164
9.0,-8.0,1.165
3.0,-2.0,1.166
2.0,0.0,1.167
5.0,0.0,1.168
3.0,0.0,1.169
-5.0,1.0,1.17
-9.0,0.0,1.171
-4.0,-1.0,1.172
0.0,0.0,1.173
-1.0,3.0,1.174
3.0,6.0,1.175
17.0,8.0,1.176
29.0,10.0,1.177
22.0,8.0,1.178
3.0,8.0,1.179
-11.0,8.0,1.18
-9.0,6.0,1.181
-3.0,4.0,1.182
1.0,1.0,1.183
2.0,0.0,1.184
5.0,0.0,1.185
8.0,-1.0,1.186
13.0,-4.0,1.187
20.0,-7.0,1.188
23.0,-7.0,1.189
17.0,-5.0,1.19
6.0,-7.0,1.191
0.0,-9.0,1.192
-4.0,-11.0,1.193
-13.0,-12.0,1.194
-23.0,-12.0,1.195
-26.0,-11.0,1.196
-16.0,-7.0,1.197
-2.0,-5.0,1.198
0.0,-6.0,1.199
-9.0,-7.0,1.2
-18.0,-10.0,1.201
-16.0,-10.0,1.202
-4.0,-9.0,1.203
6.0,-7.0,1.204
7.0,-3.0,1.205
3.0,3.0,1.206
1.0,8.0,1.207
0.0,8.0,1.208
-3.0,7.0,1.209
-4.0,7.0,1.21
2.0,7.0,1.211
12.0,7.0,1.212
15.0,8.0,1.213
13.0,8.0,1.214
12.0,6.0,1.215
13.0,4.0,1.216
18.0,4.0,1.217
22.0,3.0,1.218
24.0,2.0,1.219
15.0,0.0,1.22
0.0,-4.0,1.221
-5.0,-3.0,1.222
0.0,-1.0,1.223
4.0,1.0,1.224
0.0,2.0,1.225
1.0,4.0,1.226
15.0,4.0,1.227
21.0,4.0,1.228
12.0,4.0,1.229
0.0,4.0,1.23
2.0,3.0,1.231
9.0,0.0,1.232
7.0,-3.0,1.233
0.0,-6.0,1.234
-2.0,-5.0,1.235
0.0,-4.0,1.236
4.0,-1.0,1.237
-1.0,-1.0,1.238
-4.0,0.0,1.239
-8.0,-1.0,1.24
-9.0,-4.0,1.241
-7.0,-4.0,1.242
-3.0,-1.0,1.243
-2.0,3.0,1.244
-4.0,7.0,1.245
-6.0,7.0,1.246
-2.0,3.0,1.247
7.0,0.0,1.248
8.0,1.0,1.249
7.0,1.0,1.25
10.0,-3.0,1.251
17.0,-7.0,1.252
15.0,-9.0,1.253
-1.0,-9.0,1.254
-16.0,-7.0,1.255
-14.0,-9.0,1.256
0.0,-8.0,1.257
9.0,-9.0,1.258
4.0,-8.0,1.259
-4.0,-6.0,1.26
-7.0,-5.0,1.261
-6.0,-2.0,1.262
-4.0,0.0,1.263
3.0,0.0,1.264
11.0,1.0,1.265
10.0,1.0,1.266
-2.0,2.0,1.267
-7.0,1.0,1.268
1.0,3.0,1.269
15.0,7.0,1.27
19.0,8.0,1.271
14.0,5.0,1.272
7.0,1.0,1.273
5.0,-1.0,1.274
6.0,-2.0,1.275
5.0,-3.0,1.276
4.0,0.0,1.277
1.0,4.0,1.278
0.0,6.0,1.279
-2.0,3.0,1.28
-6.0,-5.0,1.281
-6.0,-5.0,1.282
0.0,-2.0,1.283
9.0,0.0,1.284
8.0,0.0,1.285
-1.0,-1.0,1.286
-3.0,-4.0,1.287
2.0,-6.0,1.288
11.0,-5.0,1.289
11.0,-2.0,1.29
8.0,-2.0,1.291
8.0,-6.0,1.292
5.0,-6.0,1.293
0.0,-3.0,1.294
-3.0,-1.0,1.295
0.0,-4.0,1.296
4.0,-5.0,1.297
2.0,-4.0,1.298
-4.0,-2.0,1.299
-10.0,-5.0,1.3
-10.0,-11.0,1.301
-8.0,-10.0,1.302
-2.0,-2.0,1.303
8.0,4.0,1.304
18.0,6.0,1.305
23.0,8.0,1.306
20.0,12.0,1.307
12.0,14.0,1.308
0.0,12.0,1.309
-8.0,9.0,1.31
-4.0,7.0,1.311
4.0,3.0,1.312
5.0,1.0,1.313
0.0,0.0,1.314
-1.0,-1.0,1.315
3.0,-2.0,1.316
7.0,-2.0,1.317
6.0,-4.0,1.318
3.0,-6.0,1.319
-2.0,-9.0,1.32
-8.0,-10.0,1.321
-10.0,-7.0,1.322
-4.0,-4.0,1.323
2.0,-1.0,1.324
4.0,2.0,1.325
1.0,3.0,1.326
3.0,4.0,1.327
8.0,2.0,1.328
9.0,1.0,1.329
2.0,3.0,1.33
1.0,3.0,1.331
8.0,2.0,1.332
14.0,1.0,1.333
13.0,3.0,1.334
8.0,3.0,1.335
4.0,0.0,1.336
2.0,-1.0,1.337
-4.0,-1.0,1.338
-12.0,0.0,1.339
-18.0,1.0,1.34
-19.0,-2.0,1.341
-17.0,-4.0,1.342
-2.0,-1.0,1.343
10.0,1.0,1.344
16.0,1.0,1.345
20.0,0.0,1.346
16.0,-2.0,1.347
13.0,-4.0,1.348
13.0,-3.0,1.349
12.0,-2.0,1.35
6.0,0.0,1.351
1.0,1.0,1.352
0.0,0.0,1.353
-3.0,-1.0,1.354
-4.0,-1.0,1.355
-5.0,0.0,1.356
-1.0,0.0,1.357
2.0,0.0,1.358
1.0,0.0,1.359
-3.0,-2.0,1.36
-3.0,-6.0,1.361
0.0,-5.0,1.362
3.0,-2.0,1.363
6.0,0.0,1.364
2.0,2.0,1.365
-4.0,1.0,1.366
-4.0,-1.0,1.367
4.0,0.0,1.368
15.0,3.0,1.369
14.0,6.0,1.37
10.0,4.0,1.371
11.0,0.0,1.372
13.0,-1.0,1.373
10.0,-1.0,1.374
6.0,-2.0,1.375
5.0,-5.0,1.376
3.0,-7.0,1.377
-10.0,-9.0,1.378
-19.0,-8.0,1.379
-14.0,-8.0,1.38
-5.0,-14.0,1.381
-6.0,-18.0,1.382
-11.0,-14.0,1.383
-6.0,-8.0,1.384
9.0,1.0,1.385
22.0,10.0,1.386
30.0,10.0,1.387
30.0,10.0,1.388
21.0,8.0,1.389
4.0,6.0,1.39
0.0,4.0,1.391
15.0,3.0,1.392
22.0,3.0,1.393
12.0,4.0,1.394
-4.0,2.0,1.395
-7.0,1.0,1.396
-6.0,1.0,1.397
-18.0,0.0,1.398
-30.0,1.0,1.399
-30.0,-2.0,1.4
-19.0,-7.0,1.401
-8.0,-5.0,1.402
-2.0,-1.0,1.403
6.0,0.0,1.404
9.0,-3.0,1.405
2.0,-3.0,1.406
-3.0,-1.0,1.407
-1.0,0.0,1.408
4.0,0.0,1.409
4.0,1.0,1.41
-1.0,4.0,1.411
0.0,5.0,1.412
7.0,2.0,1.413
13.0,-1.0,1.414
14.0,0.0,1.415
15.0,1.0,1.416
16.0,4.0,1.417
19.0,1.0,1.418
21.0,-1.0,1.419
14.0,-3.0,1.42
-1.0,-5.0,1.421
-16.0,-3.0,1.422
-13.0,0.0,1.423
1.0,3.0,1.424
12.0,5.0,1.425
8.0,5.0,1.426
-3.0,1.0,1.427
-8.0,-3.0,1.428
-6.0,-4.0,1.429
-4.0,-2.0,1.43
-5.0,-1.0,1.431
-4.0,-2.0,1.432
5.0,-2.0,1.433
16.0,0.0,1.434
21.0,-1.0,1.435
22.0,-3.0,1.436
21.0,-3.0,1.437
20.0,-1.0,1.438
18.0,-1.0,1.439
7.0,-3.0,1.44
-6.0,-6.0,1.441
-12.0,-6.0,1.442
-7.0,-5.0,1.443
3.0,-4.0,1.444
2.0,0.0,1.445
-5.0,4.0,1.446
-7.0,4.0,1.447
0.0,0.0,1.448
6.0,0.0,1.449
6.0,4.0,1.45
4.0,3.0,1.451
10.0,-2.0,1.452
11.0,-4.0,1.453
4.0,0.0,1.454
-2.0,3.0,1.455
-1.0,1.0,1.456
1.0,0.0,1.457
0.0,0.0,1.458
-3.0,1.0,1.459
-5.0,-1.0,1.46
-6.0,-5.0,1.461
-8.0,-4.0,1.462
-4.0,-3.0,1.463
1.0,-2.0,1.464
3.0,-1.0,1.465
-3.0,0.0,1.466
-9.0,-3.0,1.467
-8.0,-6.0,1.468
-7.0,-5.0,1.469
-8.0,0.0,1.47
-9.0,1.0,1.471
-8.0,-2.0,1.472
-5.0,-4.0,1.473
2.0,0.0,1.474
14.0,3.0,1.475
24.0,3.0,1.476
29.0,4.0,1.477
28.0,5.0,1.478
32.0,5.0,1.479
33.0,0.0,1.48
25.0,-8.0,1.481
12.0,-11.0,1.482
5.0,-10.0,1.483
8.0,-7.0,1.484
8.0,-2.0,1.485
-1.0,0.0,1.486
-6.0,-2.0,1.487
-5.0,-7.0,1.488
-8.0,-11.0,1.489
-20.0,-12.0,1.49
-30.0,-9.0,1.491
-27.0,-4.0,1.492
-16.0,0.0,1.493
-13.0,5.0,1.494
-13.0,9.0,1.495
-9.0,9.0,1.496
-4.0,9.0,1.497
2.0,5.0,1.498
10.0,2.0,1.499
16.0,3.0,1.5
18.0,2.0,1.501
14.0,3.0,1.502
13.0,2.0,1.503
20.0,2.0,1.504
26.0,5.0,1.505
22.0,8.0,1.506
16.0,8.0,1.507
15.0,3.0,1.508
12.0,1.0,1.509
4.0,3.0,1.51
-2.0,3.0,1.511
-1.0,-2.0,1.512
2.0,-7.0,1.513
0.0,-3.0,1.514
-4.0,2.0,1.515
-4.0,1.0,1.516
-3.0,-2.0,1.517
-4.0,-3.0,1.518
-5.0,0.0,1.519
-6.0,2.0,1.52
-11.0,-2.0,1.521
-13.0,-5.0,1.522
-7.0,-3.0,1.523
3.0,-1.0,1.524
6.0,1.0,1.525
0.0,4.0,1.526
-3.0,4.0,1.527
1.0,1.0,1.528
5.0,-4.0,1.529
4.0,-9.0,1.53
4.0,-9.0,1.531
10.0,-9.0,1.532
12.0,-11.0,1.533
9.0,-12.0,1.534
9.0,-9.0,1.535
15.0,-5.0,1.536
19.0,-1.0,1.537
13.0,2.0,1.538
-2.0,0.0,1.539
-16.0,-3.0,1.54
-22.0,-8.0,1.541
-19.0,-6.0,1.542
-8.0,-3.0,1.543
0.0,0.0,1.544
0.0,0.0,1.545
-1.0,3.0,1.546
9.0,6.0,1.547
21.0,3.0,1.548
17.0,0.0,1.549
0.0,0.0,1.55
-5.0,4.0,1.551
4.0,4.0,1.552
9.0,1.0,1.553
-1.0,-1.0,1.554
-12.0,-2.0,1.555
-10.0,-3.0,1.556
-3.0,-4.0,1.557
-2.0,-4.0,1.558
-4.0,-3.0,1.559
-1.0,-2.0,1.56
5.0,-4.0,1.561
11.0,-4.0,1.562
19.0,-1.0,1.563
27.0,0.0,1.564
21.0,2.0,1.565
5.0,3.0,1.566
-1.0,5.0,1.567
12.0,4.0,1.568
23.0,4.0,1.569
15.0,3.0,1.57
0.0,1.0,1.571
-3.0,0.0,1.572
0.0,0.0,1.573
0.0,1.0,1.574
-3.0,1.0,1.575
1.0,1.0,1.576
8.0,5.0,1.577
4.0,7.0,1.578
-3.0,5.0,1.579
-10.0,-1.0,1.58
-12.0,-8.0,1.581
-11.0,-10.0,1.582
-7.0,-9.0,1.583
0.0,-9.0,1.584
3.0,-6.0,1.585
0.0,-7.0,1.586
-4.0,-12.0,1.587
-1.0,-16.0,1.588
5.0,-15.0,1.589
7.0,-9.0,1.59
6.0,-8.0,1.591
7.0,-5.0,1.592
9.0,1.0,1.593
4.0,4.0,1.594
-1.0,1.0,1.595
1.0,-1.0,1.596
7.0,2.0,1.597
4.0,7.0,1.598
-2.0,8.0,1.599
-7.0,5.0,1.6
-5.0,0.0,1.601
-1.0,-1.0,1.602
4.0,0.0,1.603
11.0,2.0,1.604
13.0,5.0,1.605
7.0,6.0,1.606
1.0,5.0,1.607
2.0,3.0,1.608
5.0,3.0,1.609
2.0,5.0,1.61
0.0,4.0,1.611
1.0,4.0,1.612
2.0,5.0,1.613
0.0,6.0,1.614
0.0,5.0,1.615
3.0,3.0,1.616
7.0,4.0,1.617
2.0,2.0,1.618
-2.0,0.0,1.619
-3.0,-3.0,1.62
0.0,-7.0,1.621
0.0,-7.0,1.622
3.0,-6.0,1.623
9.0,-1.0,1.624
12.0,0.0,1.625
6.0,3.0,1.626
0.0,0.0,1.627
2.0,-6.0,1.628
8.0,-9.0,1.629
8.0,-6.0,1.63
4.0,-1.0,1.631
2.0,0.0,1.632
5.0,-3.0,1.633
4.0,-4.0,1.634
2.0,-2.0,1.635
2.0,-1.0,1.636
3.0,-1.0,1.637
2.0,-3.0,1.638
0.0,-4.0,1.639
-2.0,-4.0,1.64
-3.0,-7.0,1.641
-4.0,-8.0,1.642
-3.0,-7.0,1.643
2.0,-3.0,1.644
6.0,0.0,1.645
6.0,4.0,1.646
3.0,3.0,1.647
2.0,1.0,1.648
2.0,3.0,1.649
1.0,6.0,1.65
0.0,5.0,1.651
3.0,3.0,1.652
5.0,2.0,1.653
4.0,3.0,1.654
5.0,0.0,1.655
4.0,-6.0,1.656
4.0,-7.0,1.657
0.0,-3.0,1.658
-3.0,-1.0,1.659
-5.0,-2.0,1.66
-5.0,-7.0,1.661
-4.0,-6.0,1.662
2.0,-4.0,1.663
10.0,-2.0,1.664
8.0,2.0,1.665
0.0,6.0,1.666
-2.0,4.0,1.667
3.0,-4.0,1.668
8.0,-10.0,1.669
8.0,-6.0,1.67
6.0,1.0,1.671
7.0,4.0,1.672
6.0,2.0,1.673
3.0,-1.0,1.674
1.0,-2.0,1.675
4.0,-3.0,1.676
8.0,0.0,1.677
5.0,0.0,1.678
0.0,-1.0,1.679
-4.0,-4.0,1.68
-4.0,-6.0,1.681
-3.0,-4.0,1.682
1.0,1.0,1.683
5.0,8.0,1.684
6.0,13.0,1.685
2.0,18.0,1.686
0.0,17.0,1.687
0.0,12.0,1.688
1.0,7.0,1.689
2.0,3.0,1.69
5.0,0.0,1.691
6.0,-2.0,1.692
4.0,-2.0,1.693
0.0,-4.0,1.694
-1.0,-12.0,1.695
2.0,-22.0,1.696
6.0,-25.0,1.697
6.0,-25.0,1.698
3.0,-22.0,1.699
-1.0,-21.0,1.7
-5.0,-19.0,1.701
-7.0,-12.0,1.702
-3.0,-4.0,1.703
2.0,1.0,1.704
3.0,5.0,1.705
-1.0,8.0,1.706
-2.0,9.0,1.707
4.0,8.0,1.708
8.0,8.0,1.709
6.0,9.0,1.71
3.0,8.0,1.711
6.0,7.0,1.712
10.0,8.0,1.713
8.0,9.0,1.714
5.0,8.0,1.715
6.0,6.0,1.716
8.0,5.0,1.717
4.0,3.0,1.718
0.0,1.0,1.719
-3.0,1.0,1.72
-7.0,-2.0,1.721
-9.0,-2.0,1.722
-4.0,-2.0,1.723
3.0,0.0,1.724
6.0,5.0,1.725
3.0,7.0,1.726
1.0,5.0,1.727
5.0,2.0,1.728
7.0,0.0,1.729
2.0,0.0,1.73
1.0,-3.0,1.731
4.0,-6.0,1.732
8.0,-2.0,1.733
5.0,1.0,1.734
0.0,3.0,1.735
-1.0,1.0,1.736
4.0,2.0,1.737
6.0,1.0,1.738
7.0,-4.0,1.739
0.0,-8.0,1.74
-7.0,-11.0,1.741
-12.0,-7.0,1.742
-6.0,0.0,1.743
1.0,2.0,1.744
2.0,2.0,1.745
-2.0,1.0,1.746
-1.0,1.0,1.747
6.0,2.0,1.748
11.0,4.0,1.749
10.0,5.0,1.75
8.0,4.0,1.751
11.0,0.0,1.752
11.0,-3.0,1.753
8.0,-4.0,1.754
7.0,-5.0,1.755
8.0,-2.0,1.756
7.0,1.0,1.757
-1.0,6.0,1.758
-5.0,8.0,1.759
-5.0,6.0,1.76
-3.0,-2.0,1.761
-3.0,-10.0,1.762
1.0,-16.0,1.763
7.0,-17.0,1.764
8.0,-12.0,1.765
0.0,-6.0,1.766
-1.0,-4.0,1.767
4.0,-5.0,1.768
9.0,-5.0,1.769
5.0,-2.0,1.77
0.0,0.0,1.771
0.0,0.0,1.772
3.0,0.0,1.773
4.0,1.0,1.774
2.0,2.0,1.775
2.0,1.0,1.776
3.0,1.0,1.777
3.0,2.0,1.778
2.0,4.0,1.779
-2.0,4.0,1.78
-4.0,-3.0,1.781
-6.0,-5.0,1.782
-1.0,-6.0,1.783
5.0,-3.0,1.784
6.0,0.0,1.785
4.0,2.0,1.786
5.0,3.0,1.787
9.0,6.0,1.788
10.0,7.0,1.789
6.0,7.0,1.79
6.0,3.0,1.791
6.0,-1.0,1.792
5.0,-1.0,1.793
1.0,-1.0,1.794
0.0,-2.0,1.795
2.0,-5.0,1.796
3.0,-8.0,1.797
-1.0,-9.0,1.798
-2.0,-7.0,1.799
-4.0,-3.0,1.8
-7.0,-3.0,1.801
-9.0,-4.0,1.802
-4.0,-2.0,1.803
2.0,2.0,1.804
4.0,5.0,1.805
0.0,3.0,1.806
0.0,-1.0,1.807
4.0,-2.0,1.808
6.0,1.0,1.809
1.0,4.0,1.81
-2.0,4.0,1.811
0.0,0.0,1.812
3.0,1.0,1.813
6.0,4.0,1.814
7.0,8.0,1.815
9.0,7.0,1.816
9.0,10.0,1.817
4.0,11.0,1.818
0.0,9.0,1.819
-4.0,4.0,1.82
-6.0,-6.0,1.821
-6.0,-10.0,1.822
0.0,-10.0,1.823
9.0,-10.0,1.824
8.0,-11.0,1.825
1.0,-15.0,1.826
-2.0,-20.0,1.827
3.0,-23.0,1.828
7.0,-22.0,1.829
5.0,-16.0,1.83
2.0,-8.0,1.831
5.0,1.0,1.832
8.0,9.0,1.833
5.0,17.0,1.834
1.0,21.0,1.835
3.0,19.0,1.836
8.0,15.0,1.837
5.0,10.0,1.838
-2.0,5.0,1.839
-7.0,0.0,1.84
-5.0,-10.0,1.841
-3.0,-18.0,1.842
1.0,-25.0,1.843
9.0,-33.0,1.844
16.0,-39.0,1.845
14.0,-32.0,1.846
3.0,-16.0,1.847
-1.0,-5.0,1.848
3.0,-3.0,1.849
5.0,-2.0,1.85
4.0,5.0,1.851
2.0,11.0,1.852
5.0,12.0,1.853
6.0,13.0,1.854
4.0,13.0,1.855
1.0,9.0,1.856
4.0,5.0,1.857
5.0,1.0,1.858
2.0,5.0,1.859
-1.0,9.0,1.86
-3.0,10.0,1.861
-4.0,12.0,1.862
1.0,14.0,1.863
6.0,11.0,1.864
6.0,7.0,1.865
6.0,3.0,1.866
2.0,1.0,1.867
0.0,-3.0,1.868
2.0,-6.0,1.869
4.0,-1.0,1.87
0.0,8.0,1.871
-3.0,10.0,1.872
-1.0,6.0,1.873
0.0,7.0,1.874
0.0,10.0,1.875
1.0,6.0,1.876
1.0,0.0,1.877
1.0,-4.0,1.878
5.0,-1.0,1.879
5.0,2.0,1.88
1.0,-3.0,1.881
-4.0,-7.0,1.882
-5.0,-5.0,1.883
1.0,-2.0,1.884
5.0,0.0,1.885
5.0,-1.0,1.886
4.0,-4.0,1.887
3.0,-6.0,1.888
3.0,-5.0,1.889
4.0,-2.0,1.89
7.0,-1.0,1.891
9.0,-3.0,1.892
8.0,-3.0,1.893
6.0,-1.0,1.894
5.0,2.0,1.895
4.0,2.0,1.896
4.0,1.0,1.897
3.0,-2.0,1.898
0.0,-4.0,1.899
-7.0,-5.0,1.9
-12.0,-4.0,1.901
-10.0,1.0,1.902
-3.0,8.0,1.903
3.0,12.0,1.904
1.0,12.0,1.905
-2.0,9.0,1.906
0.0,6.0,1.907
6.0,4.0,1.908
10.0,1.0,1.909
8.0,-5.0,1.91
4.0,-17.0,1.911
5.0,-29.0,1.912
8.0,-38.0,1.913
7.0,-35.0,1.914
4.0,-27.0,1.915
0.0,-22.0,1.916
2.0,-20.0,1.917
4.0,-24.0,1.918
2.0,-25.0,1.919
-4.0,-21.0,1.92
-6.0,-16.0,1.921
-4.0,-8.0,1.922
4.0,-4.0,1.923
9.0,0.0,1.924
9.0,5.0,1.925
6.0,11.0,1.926
3.0,15.0,1.927
3.0,14.0,1.928
5.0,12.0,1.929
7.0,12.0,1.93
6.0,11.0,1.931
5.0,11.0,1.932
5.0,13.0,1.933
5.0,16.0,1.934
3.0,20.0,1.935
3.0,18.0,1.936
7.0,17.0,1.937
10.0,16.0,1.938
7.0,15.0,1.939
0.0,12.0,1.94
-8.0,6.0,1.941
-8.0,6.0,1.942
-2.0,10.0,1.943
4.0,13.0,1.944
3.0,17.0,1.945
0.0,19.0,1.946
-2.0,13.0,1.947
0.0,3.0,1.948
-1.0,-5.0,1.949
-2.0,-6.0,1.95
-2.0,-6.0,1.951
1.0,-9.0,1.952
7.0,-19.0,1.953
13.0,-27.0,1.954
15.0,-29.0,1.955
14.0,-25.0,1.956
11.0,-18.0,1.957
2.0,-15.0,1.958
-3.0,-17.0,1.959
-10.0,-19.0,1.96
-11.0,-17.0,1.961
-6.0,-9.0,1.962
3.0,-3.0,1.963
11.0,2.0,1.964
11.0,12.0,1.965
7.0,24.0,1.966
6.0,27.0,1.967
8.0,21.0,1.968
9.0,14.0,1.969
4.0,10.0,1.97
0.0,6.0,1.971
-1.0,2.0,1.972
-2.0,1.0,1.973
-5.0,3.0,1.974
-5.0,4.0,1.975
-2.0,3.0,1.976
0.0,1.0,1.977
-2.0,-3.0,1.978
-4.0,-3.0,1.979
-7.0,-1.0,1.98
-9.0,3.0,1.981
-10.0,6.0,1.982
-2.0,7.0,1.983
6.0,9.0,1.984
11.0,8.0,1.985
15.0,5.0,1.986
12.0,-2.0,1.987
9.0,-9.0,1.988
10.0,-13.0,1.989
12.0,-17.0,1.99
11.0,-19.0,1.991
9.0,-20.0,1.992
6.0,-18.0,1.993
3.0,-17.0,1.994
1.0,-17.0,1.995
0.0,-15.0,1.996
-1.0,-12.0,1.997
-1.0,-7.0,1.998
-1.0,-2.0,1.999
-4.0,1.0,2.0
-7.0,0.0,2.001
-4.0,2.0,2.002
3.0,0.0,2.003
9.0,-2.0,2.004
7.0,1.0,2.005
4.0,7.0,2.006
6.0,11.0,2.007
8.0,6.0,2.008
3.0,3.0,2.009
-2.0,0.0,2.01
-2.0,-2.0,2.011
0.0,-7.0,2.012
-1.0,-8.0,2.013
-6.0,-5.0,2.014
-9.0,-3.0,2.015
-6.0,-6.0,2.016
0.0,-4.0,2.017
1.0,0.0,2.018
3.0,4.0,2.019
3.0,5.0,2.02
2.0,2.0,2.021
0.0,5.0,2.022
6.0,6.0,2.023
12.0,4.0,2.024
13.0,3.0,2.025
5.0,6.0,2.026
0.0,8.0,2.027
2.0,6.0,2.028
5.0,6.0,2.029
3.0,9.0,2.03
0.0,8.0,2.031
2.0,4.0,2.032
8.0,0.0,2.033
8.0,1.0,2.034
3.0,-1.0,2.035
0.0,-9.0,2.036
1.0,-12.0,2.037
2.0,-8.0,2.038
4.0,-4.0,2.039
1.0,-4.0,2.04
-4.0,-10.0,2.041
-3.0,-9.0,2.042
3.0,-3.0,2.043
11.0,3.0,2.044
9.0,8.0,2.045
2.0,8.0,2.046
0.0,7.0,2.047
3.0,6.0,2.048
3.0,8.0,2.049
-2.0,15.0,2.05
-4.0,23.0,2.051
-3.0,23.0,2.052
-2.0,14.0,2.053
-3.0,3.0,2.054
-1.0,-6.0,2.055
4.0,-10.0,2.056
9.0,-11.0,2.057
7.0,-19.0,2.058
6.0,-32.0,2.059
7.0,-44.0,2.06
11.0,-47.0,2.061
14.0,-35.0,2.062
15.0,-19.0,2.063
12.0,-11.0,2.064
8.0,-7.0,2.065
3.0,-5.0,2.066
-3.0,-4.0,2.067
-7.0,-2.0,2.068
-7.0,0.0,2.069
-3.0,3.0,2.07
-2.0,5.0,2.071
-2.0,8.0,2.072
-2.0,12.0,2.073
0.0,20.0,2.074
8.0,28.0,2.075
14.0,31.0,2.076
17.0,27.0,2.077
16.0,16.0,2.078
12.0,10.0,2.079
6.0,10.0,2.08
-1.0,11.0,2.081
-5.0,11.0,2.082
-6.0,5.0,2.083
-1.0,0.0,2.084
2.0,0.0,2.085
3.0,2.0,2.086
2.0,0.0,2.087
4.0,-3.0,2.088
1.0,-1.0,2.089
-3.0,3.0,2.09
-5.0,6.0,2.091
-3.0,1.0,2.092
0.0,-4.0,2.093
1.0,-3.0,2.094
2.0,-1.0,2.095
4.0,-3.0,2.096
6.0,-6.0,2.097
5.0,-9.0,2.098
2.0,-12.0,2.099
-1.0,-17.0,2.1
-1.0,-23.0,2.101
0.0,-19.0,2.102
3.0,-12.0,2.103
5.0,-6.0,2.104
4.0,-6.0,2.105
2.0,-6.0,2.106
1.0,-6.0,2.107
3.0,-8.0,2.108
5.0,-11.0,2.109
3.0,-11.0,2.11
2.0,-7.0,2.111
5.0,-2.0,2.112
10.0,1.0,2.113
14.0,7.0,2.114
13.0,13.0,2.115
12.0,15.0,2.116
11.0,12.0,2.117
6.0,5.0,2.118
0.0,3.0,2.119
-8.0,4.0,2.12
-14.0,3.0,2.121
-16.0,8.0,2.122
-6.0,15.0,2.123
7.0,25.0,2.124
15.0,33.0,2.125
7.0,37.0,2.126
-3.0,35.0,2.127
-5.0,29.0,2.128
-3.0,21.0,2.129
-1.0,10.0,2.13
-1.0,-2.0,2.131
2.0,-16.0,2.132
9.0,-32.0,2.133
14.0,-43.0,2.134
16.0,-53.0,2.135
18.0,-66.0,2.136
15.0,-70.0,2.137
5.0,-61.0,2.138
-2.0,-42.0,2.139
-8.0,-26.0,2.14
-8.0,-19.0,2.141
-8.0,-9.0,2.142
-3.0,8.0,2.143
1.0,21.0,2.144
4.0,25.0,2.145
6.0,28.0,2.146
4.0,28.0,2.147
2.0,27.0,2.148
2.0,21.0,2.149
2.0,15.0,2.15
3.0,12.0,2.151
3.0,9.0,2.152
1.0,6.0,2.153
-1.0,3.0,2.154
-2.0,3.0,2.155
-3.0,3.0,2.156
-1.0,-2.0,2.157
1.0,-5.0,2.158
3.0,0.0,2.159
2.0,4.0,2.16
-3.0,3.0,2.161
-4.0,5.0,2.162
4.0,11.0,2.163
14.0,19.0,2.164
13.0,25.0,2.165
6.0,28.0,2.166
3.0,22.0,2.167
8.0,11.0,2.168
11.0,1.0,2.169
9.0,-6.0,2.17
7.0,-13.0,2.171
6.0,-19.0,2.172
7.0,-20.0,2.173
1.0,-12.0,2.174
-3.0,-8.0,2.175
-3.0,-13.0,2.176
0.0,-15.0,2.177
3.0,-15.0,2.178
4.0,-11.0,2.179
1.0,-10.0,2.18
-2.0,-10.0,2.181
-3.0,-4.0,2.182
-1.0,2.0,2.183
3.0,5.0,2.184
3.0,8.0,2.185
0.0,12.0,2.186
0.0,11.0,2.187
3.0,2.0,2.188
7.0,-8.0,2.189
3.0,-8.0,2.19
-2.0,-5.0,2.191
-6.0,-5.0,2.192
-6.0,-6.0,2.193
-2.0,-3.0,2.194
2.0,2.0,2.195
2.0,3.0,2.196
2.0,1.0,2.197
3.0,2.0,2.198
7.0,7.0,2.199
8.0,9.0,2.2
6.0,1.0,2.201
7.0,-7.0,2.202
10.0,-10.0,2.203
13.0,-8.0,2.204
8.0,-5.0,2.205
2.0,-2.0,2.206
0.0,-1.0,2.207
-1.0,-1.0,2.208
-3.0,-3.0,2.209
-3.0,-2.0,2.21
0.0,2.0,2.211
0.0,4.0,2.212
-2.0,5.0,2.213
-4.0,6.0,2.214
-4.0,4.0,2.215
-2.0,-1.0,2.216
0.0,-5.0,2.217
0.0,-6.0,2.218
0.0,-3.0,2.219
-5.0,-3.0,2.22
-8.0,-6.0,2.221
-3.0,-5.0,2.222
9.0,-2.0,2.223
18.0,0.0,2.224
15.0,0.0,2.225
6.0,3.0,2.226
2.0,3.0,2.227
6.0,0.0,2.228
8.0,-2.0,2.229
5.0,1.0,2.23
1.0,5.0,2.231
1.0,3.0,2.232
5.0,-1.0,2.233
9.0,-1.0,2.234
9.0,1.0,2.235
4.0,0.0,2.236
0.0,-2.0,2.237
0.0,-3.0,2.238
3.0,-1.0,2.239
3.0,0.0,2.24
-2.0,-2.0,2.241
-5.0,-1.0,2.242
0.0,-2.0,2.243
8.0,-3.0,2.244
5.0,-1.0,2.245
-1.0,4.0,2.246
1.0,5.0,2.247
13.0,6.0,2.248
18.0,12.0,2.249
18.0,21.0,2.25
16.0,25.0,2.251
17.0,16.0,2.252
17.0,7.0,2.253
9.0,5.0,2.254
-4.0,7.0,2.255
-15.0,2.0,2.256
-22.0,-11.0,2.257
-23.0,-30.0,2.258
-19.0,-41.0,2.259
-12.0,-34.0,2.26
-9.0,-22.0,2.261
-5.0,-12.0,2.262
1.0,-10.0,2.263
9.0,-9.0,2.264
3.0,-5.0,2.265
-4.0,-2.0,2.266
-3.0,-2.0,2.267
4.0,-2.0,2.268
8.0,4.0,2.269
6.0,11.0,2.27
10.0,12.0,2.271
18.0,11.0,2.272
23.0,12.0,2.273
22.0,17.0,2.274
23.0,21.0,2.275
27.0,24.0,2.276
31.0,26.0,2.277
29.0,23.0,2.278
22.0,17.0,2.279
7.0,4.0,2.28
-13.0,-16.0,2.281
-29.0,-32.0,2.282
-33.0,-33.0,2.283
-27.0,-21.0,2.284
-24.0,-17.0,2.285
-32.0,-32.0,2.286
-42.0,-46.0,2.287
-38.0,-39.0,2.288
-19.0,-14.0,2.289
0.0,4.0,2.29
8.0,5.0,2.291
8.0,5.0,2.292
10.0,13.0,2.293
11.0,16.0,2.294
10.0,2.0,2.295
9.0,-16.0,2.296
14.0,-18.0,2.297
20.0,-5.0,2.298
22.0,10.0,2.299
15.0,17.0,2.3
2.0,13.0,2.301
-6.0,9.0,2.302
-8.0,3.0,2.303
-7.0,-3.0,2.304
-6.0,-1.0,2.305
-10.0,7.0,2.306
-10.0,9.0,2.307
-4.0,0.0,2.308
4.0,-4.0,2.309
9.0,1.0,2.31
13.0,10.0,2.311
19.0,12.0,2.312
25.0,10.0,2.313
22.0,11.0,2.314
17.0,10.0,2.315
13.0,4.0,2.316
16.0,0.0,2.317
15.0,0.0,2.318
8.0,3.0,2.319
-1.0,1.0,2.32
-8.0,-4.0,2.321
-13.0,-5.0,2.322
-8.0,-8.0,2.323
1.0,-10.0,2.324
7.0,-4.0,2.325
6.0,5.0,2.326
5.0,7.0,2.327
10.0,0.0,2.328
11.0,-1.0,2.329
8.0,3.0,2.33
9.0,6.0,2.331
11.0,-1.0,2.332
10.0,-4.0,2.333
3.0,0.0,2.334
-2.0,4.0,2.335
0.0,1.0,2.336
5.0,-4.0,2.337
6.0,-6.0,2.338
2.0,-5.0,2.339
0.0,-3.0,2.34
0.0,-5.0,2.341
1.0,-2.0,2.342
5.0,0.0,2.343
10.0,0.0,2.344
9.0,2.0,2.345
5.0,4.0,2.346
4.0,3.0,2.347
2.0,-3.0,2.348
-1.0,-10.0,2.349
-3.0,-9.0,2.35
-2.0,-4.0,2.351
-1.0,-2.0,2.352
-4.0,-5.0,2.353
-8.0,-7.0,2.354
-9.0,-6.0,2.355
-7.0,-5.0,2.356
-6.0,-5.0,2.357
-6.0,-7.0,2.358
-3.0,-5.0,2.359
-3.0,-3.0,2.36
-4.0,-2.0,2.361
-2.0,3.0,2.362
5.0,11.0,2.363
13.0,12.0,2.364
11.0,5.0,2.365
3.0,-5.0,2.366
3.0,-8.0,2.367
6.0,-4.0,2.368
7.0,1.0,2.369
6.0,7.0,2.37
8.0,9.0,2.371
11.0,8.0,2.372
7.0,6.0,2.373
-3.0,3.0,2.374
-8.0,-2.0,2.375
-4.0,-4.0,2.376
1.0,-5.0,2.377
-1.0,-7.0,2.378
-2.0,-6.0,2.379
-2.0,-5.0,2.38
-2.0,-2.0,2.381
-6.0,0.0,2.382
-8.0,-4.0,2.383
-4.0,-13.0,2.384
-2.0,-19.0,2.385
-3.0,-15.0,2.386
-5.0,-8.0,2.387
0.0,-5.0,2.388
7.0,-3.0,2.389
10.0,-1.0,2.39
10.0,3.0,2.391
13.0,7.0,2.392
18.0,9.0,2.393
23.0,11.0,2.394
31.0,17.0,2.395
39.0,24.0,2.396
37.0,27.0,2.397
24.0,23.0,2.398
12.0,18.0,2.399
0.0,21.0,2.4
-21.0,12.0,2.401
-53.0,-15.0,2.402
-66.0,-52.0,2.403
-45.0,-61.0,2.404
-13.0,-30.0,2.405
1.0,6.0,2.406
0.0,11.0,2.407
0.0,-6.0,2.408
5.0,-13.0,2.409
10.0,-2.0,2.41
12.0,5.0,2.411
14.0,1.0,2.412
12.0,0.0,2.413
7.0,4.0,2.414
5.0,8.0,2.415
9.0,5.0,2.416
13.0,3.0,2.417
10.0,4.0,2.418
6.0,3.0,2.419
2.0,0.0,2.42
0.0,-4.0,2.421
-1.0,1.0,2.422
5.0,1.0,2.423
13.0,-6.0,2.424
10.0,-10.0,2.425
3.0,-3.0,2.426
4.0,9.0,2.427
12.0,11.0,2.428
13.0,4.0,2.429
4.0,-3.0,2.43
0.0,-1.0,2.431
10.0,7.0,2.432
19.0,12.0,2.433
17.0,10.0,2.434
13.0,4.0,2.435
9.0,-3.0,2.436
7.0,-4.0,2.437
-3.0,-3.0,2.438
-13.0,-1.0,2.439
-20.0,-4.0,2.44
-20.0,-10.0,2.441
-12.0,-11.0,2.442
0.0,-6.0,2.443
10.0,0.0,2.444
11.0,0.0,2.445
9.0,0.0,2.446
11.0,1.0,2.447
10.0,0.0,2.448
0.0,-7.0,2.449
-11.0,-11.0,2.45
-8.0,-6.0,2.451
8.0,4.0,2.452
16.0,6.0,2.453
10.0,0.0,2.454
4.0,1.0,2.455
4.0,9.0,2.456
6.0,10.0,2.457
0.0,0.0,2.458
-3.0,-5.0,2.459
-3.0,3.0,2.46
-3.0,8.0,2.461
-9.0,-1.0,2.462
-11.0,-19.0,2.463
-4.0,-25.0,2.464
0.0,-10.0,2.465
0.0,4.0,2.466
3.0,7.0,2.467
9.0,3.0,2.468
11.0,1.0,2.469
8.0,4.0,2.47
5.0,4.0,2.471
7.0,2.0,2.472
9.0,-1.0,2.473
4.0,-1.0,2.474
2.0,-1.0,2.475
5.0,-3.0,2.476
8.0,1.0,2.477
4.0,1.0,2.478
-2.0,0.0,2.479
-9.0,-4.0,2.48
-8.0,-7.0,2.481
0.0,-2.0,2.482
17.0,2.0,2.483
25.0,1.0,2.484
18.0,1.0,2.485
5.0,7.0,2.486
1.0,11.0,2.487
11.0,10.0,2.488
14.0,3.0,2.489
3.0,-5.0,2.49
-8.0,-15.0,2.491
-3.0,-16.0,2.492
4.0,-2.0,2.493
-1.0,19.0,2.494
-20.0,19.0,2.495
-32.0,-4.0,2.496
-32.0,-25.0,2.497
-23.0,-29.0,2.498
-13.0,-14.0,2.499
-4.0,1.0,2.5
-3.0,0.0,2.501
-5.0,-5.0,2.502
-4.0,-8.0,2.503
7.0,-6.0,2.504
18.0,1.0,2.505
17.0,7.0,2.506
13.0,7.0,2.507
13.0,5.0,2.508
16.0,6.0,2.509
17.0,9.0,2.51
17.0,9.0,2.511
20.0,8.0,2.512
22.0,9.0,2.513
18.0,12.0,2.514
13.0,11.0,2.515
8.0,2.0,2.516
1.0,-7.0,2.517
-8.0,-15.0,2.518
-15.0,-14.0,2.519
-14.0,-8.0,2.52
-11.0,-9.0,2.521
-9.0,-10.0,2.522
-3.0,-10.0,2.523
8.0,-4.0,2.524
15.0,10.0,2.525
12.0,18.0,2.526
7.0,13.0,2.527
7.0,0.0,2.528
8.0,-7.0,2.529
7.0,-5.0,2.53
6.0,3.0,2.531
8.0,5.0,2.532
9.0,2.0,2.533
7.0,-1.0,2.534
6.0,-4.0,2.535
3.0,-5.0,2.536
1.0,-5.0,2.537
0.0,-3.0,2.538
3.0,1.0,2.539
5.0,3.0,2.54
1.0,2.0,2.541
-1.0,-1.0,2.542
1.0,-7.0,2.543
2.0,-12.0,2.544
-4.0,-9.0,2.545
-10.0,2.0,2.546
-10.0,12.0,2.547
-9.0,7.0,2.548
-3.0,-1.0,2.549
0.0,0.0,2.55
-1.0,6.0,2.551
-1.0,6.0,2.552
5.0,-1.0,2.553
10.0,-3.0,2.554
8.0,0.0,2.555
7.0,4.0,2.556
8.0,4.0,2.557
8.0,0.0,2.558
7.0,0.0,2.559
2.0,0.0,2.56
-4.0,-3.0,2.561
-10.0,-2.0,2.562
-5.0,-2.0,2.563
4.0,-5.0,2.564
7.0,-8.0,2.565
0.0,-7.0,2.566
-3.0,-1.0,2.567
5.0,0.0,2.568
14.0,-5.0,2.569
11.0,-6.0,2.57
3.0,-1.0,2.571
3.0,4.0,2.572
4.0,1.0,2.573
1.0,-5.0,2.574
-2.0,-5.0,2.575
2.0,2.0,2.576
7.0,10.0,2.577
4.0,7.0,2.578
-4.0,-1.0,2.579
-11.0,-6.0,2.58
-14.0,-4.0,2.581
-10.0,0.0,2.582
2.0,-4.0,2.583
15.0,-15.0,2.584
17.0,-16.0,2.585
16.0,-2.0,2.586
15.0,9.0,2.587
17.0,3.0,2.588
16.0,-10.0,2.589
17.0,-10.0,2.59
20.0,5.0,2.591
17.0,16.0,2.592
2.0,12.0,2.593
-14.0,2.0,2.594
-15.0,-3.0,2.595
-10.0,-6.0,2.596
-17.0,-8.0,2.597
-40.0,-6.0,2.598
-64.0,5.0,2.599
-81.0,11.0,2.6
-77.0,2.0,2.601
-48.0,-9.0,2.602
-3.0,-9.0,2.603
30.0,1.0,2.604
30.0,7.0,2.605
2.0,5.0,2.606
-25.0,2.0,2.607
-39.0,3.0,2.608
-39.0,6.0,2.609
-26.0,6.0,2.61
-3.0,3.0,2.611
23.0,-3.0,2.612
46.0,-10.0,2.613
69.0,-16.0,2.614
95.0,-17.0,2.615
130.0,-11.0,2.616
155.0,1.0,2.617
142.0,18.0,2.618
93.0,30.0,2.619
33.0,25.0,2.62
-11.0,10.0,2.621
-40.0,0.0,2.622
-59.0,-5.0,2.623
-59.0,-6.0,2.624
-20.0,-8.0,2.625
56.0,-7.0,2.626
134.0,-2.0,2.627
169.0,3.0,2.628
134.0,6.0,2.629
48.0,5.0,2.63
-36.0,-1.0,2.631
-90.0,-5.0,2.632
-133.0,-5.0,2.633
-171.0,1.0,2.634
-172.0,4.0,2.635
-116.0,2.0,2.636
-44.0,0.0,2.637
-3.0,-4.0,2.638
8.0,-12.0,2.639
25.0,-24.0,2.64
69.0,-34.0,2.641
131.0,-30.0,2.642
188.0,-13.0,2.643
210.0,5.0,2.644
171.0,22.0,2.645
84.0,36.0,2.646
8.0,40.0,2.647
-20.0,30.0,2.648
-28.0,16.0,2.649
-60.0,9.0,2.65
-104.0,9.0,2.651
-123.0,9.0,2.652
-112.0,4.0,2.653
-91.0,0.0,2.654
-73.0,-2.0,2.655
-63.0,-4.0,2.656
-58.0,-4.0,2.657
-64.0,-4.0,2.658
-70.0,-6.0,2.659
-70.0,-14.0,2.66
-57.0,-25.0,2.661
-29.0,-29.0,2.662
12.0,-27.0,2.663
43.0,-24.0,2.664
42.0,-21.0,2.665
22.0,-15.0,2.666
11.0,-8.0,2.667
11.0,-4.0,2.668
5.0,-2.0,2.669
-8.0,0.0,2.67
-18.0,1.0,2.671
-25.0,2.0,2.672
-30.0,4.0,2.673
-28.0,6.0,2.674
-15.0,7.0,2.675
-13.0,2.0,2.676
-34.0,1.0,2.677
-57.0,3.0,2.678
-35.0,5.0,2.679
28.0,0.0,2.68
77.0,-9.0,2.681
75.0,-9.0,2.682
51.0,4.0,2.683
41.0,19.0,2.684
50.0,25.0,2.685
59.0,16.0,2.686
59.0,0.0,2.687
33.0,-11.0,2.688
-27.0,-13.0,2.689
-91.0,-11.0,2.69
-110.0,-7.0,2.691
-84.0,-7.0,2.692
-62.0,-11.0,2.693
-75.0,-19.0,2.694
-88.0,-25.0,2.695
-49.0,-19.0,2.696
36.0,-1.0,2.697
134.0,-13.0,2.698
202.0,-13.0,2.699
225.0,-15.0,2.7
224.0,-23.0,2.701
209.0,-27.0,2.702
176.0,-23.0,2.703
118.0,-17.0,2.704
57.0,-3.0,2.705
20.0,5.0,2.706
5.0,3.0,2.707
-9.0,-1.0,2.708
-26.0,-1.0,2.709
-42.0,1.0,2.71
-59.0,3.0,2.711
-78.0,5.0,2.712
-83.0,3.0,2.713
-70.0,1.0,2.714
-56.0,1.0,2.715
-56.0,3.0,2.716
-60.0,3.0,2.717
-59.0,-9.0,2.718
-55.0,-9.0,2.719
-52.0,-10.0,2.72
-53.0,-14.0,2.721
-50.0,-16.0,2.722
-33.0,-14.0,2.723
-17.0,-11.0,2.724
-6.0,-4.0,2.725
1.0,0.0,2.726
0.0,-1.0,2.727
-4.0,-3.0,2.728
-12.0,-3.0,2.729
-16.0,-2.0,2.73
-10.0,-1.0,2.731
-7.0,0.0,2.732
-12.0,-1.0,2.733
-14.0,-2.0,2.734
-4.0,-2.0,2.735
3.0,-1.0,2.736
5.0,-1.0,2.737
7.0,0.0,2.738
9.0,1.0,2.739
9.0,0.0,2.74
4.0,-3.0,2.741
0.0,-5.0,2.742
7.0,-4.0,2.743
18.0,-2.0,2.744
21.0,3.0,2.745
16.0,5.0,2.746
13.0,3.0,2.747
15.0,0.0,2.748
15.0,-1.0,2.749
12.0,1.0,2.75
13.0,2.0,2.751
19.0,1.0,2.752
21.0,2.0,2.753
17.0,3.0,2.754
11.0,-1.0,2.755
10.0,-4.0,2.756
12.0,-6.0,2.757
10.0,-5.0,2.758
6.0,-1.0,2.759
1.0,0.0,2.76
-1.0,-5.0,2.761
3.0,-9.0,2.762
10.0,-8.0,2.763
15.0,-2.0,2.764
14.0,5.0,2.765
9.0,5.0,2.766
6.0,1.0,2.767
6.0,-2.0,2.768
6.0,0.0,2.769
7.0,4.0,2.77
10.0,5.0,2.771
13.0,3.0,2.772
14.0,3.0,2.773
12.0,5.0,2.774
9.0,8.0,2.775
5.0,7.0,2.776
4.0,4.0,2.777
5.0,0.0,2.778
4.0,0.0,2.779
-1.0,0.0,2.78
-7.0,-8.0,2.781
-10.0,-17.0,2.782
-5.0,-19.0,2.783
3.0,-10.0,2.784
8.0,4.0,2.785
5.0,9.0,2.786
1.0,4.0,2.787
0.0,-2.0,2.788
2.0,-2.0,2.789
0.0,0.0,2.79
-1.0,1.0,2.791
1.0,2.0,2.792
4.0,2.0,2.793
2.0,2.0,2.794
0.0,3.0,2.795
-1.0,6.0,2.796
0.0,7.0,2.797
-2.0,0.0,2.798
-6.0,-2.0,2.799
-8.0,3.0,2.8
-6.0,8.0,2.801
-3.0,4.0,2.802
3.0,-4.0,2.803
11.0,-6.0,2.804
13.0,-3.0,2.805
6.0,-5.0,2.806
-2.0,-11.0,2.807
-3.0,-13.0,2.808
0.0,-10.0,2.809
-2.0,-10.0,2.81
-3.0,-15.0,2.811
-1.0,-11.0,2.812
7.0,2.0,2.813
10.0,10.0,2.814
6.0,3.0,2.815
5.0,-4.0,2.816
8.0,0.0,2.817
6.0,8.0,2.818
3.0,8.0,2.819
0.0,2.0,2.82
-1.0,-2.0,2.821
0.0,2.0,2.822
1.0,5.0,2.823
7.0,4.0,2.824
8.0,5.0,2.825
3.0,6.0,2.826
1.0,2.0,2.827
6.0,-3.0,2.828
10.0,-4.0,2.829
8.0,2.0,2.83
1.0,7.0,2.831
-2.0,3.0,2.832
-3.0,-7.0,2.833
-6.0,-15.0,2.834
-6.0,-11.0,2.835
0.0,1.0,2.836
8.0,8.0,2.837
6.0,-1.0,2.838
0.0,-10.0,2.839
-4.0,-8.0,2.84
-4.0,-3.0,2.841
-4.0,-2.0,2.842
-3.0,-4.0,2.843
3.0,1.0,2.844
8.0,6.0,2.845
6.0,5.0,2.846
3.0,0.0,2.847
5.0,0.0,2.848
8.0,3.0,2.849
7.0,2.0,2.85
5.0,0.0,2.851
5.0,3.0,2.852
9.0,9.0,2.853
9.0,8.0,2.854
7.0,3.0,2.855
6.0,2.0,2.856
7.0,7.0,2.857
4.0,5.0,2.858
0.0,-2.0,2.859
-4.0,-8.0,2.86
-7.0,-8.0,2.861
-3.0,-2.0,2.862
3.0,0.0,2.863
10.0,-2.0,2.864
9.0,-3.0,2.865
2.0,-1.0,2.866
-3.0,1.0,2.867
-1.0,-1.0,2.868
1.0,-4.0,2.869
1.0,-2.0,2.87
0.0,0.0,2.871
-2.0,0.0,2.872
-3.0,-4.0,2.873
-4.0,-5.0,2.874
-2.0,-1.0,2.875
0.0,1.0,2.876
3.0,0.0,2.877
4.0,-3.0,2.878
6.0,-1.0,2.879
5.0,3.0,2.88
2.0,4.0,2.881
-2.0,3.0,2.882
-2.0,0.0,2.883
1.0,0.0,2.884
1.0,0.0,2.885
-1.0,-1.0,2.886
-2.0,-5.0,2.887
0.0,-6.0,2.888
3.0,-3.0,2.889
3.0,2.0,2.89
4.0,3.0,2.891
8.0,-2.0,2.892
10.0,-4.0,2.893
11.0,0.0,2.894
12.0,6.0,2.895
13.0,7.0,2.896
13.0,9.0,2.897
6.0,9.0,2.898
-1.0,4.0,2.899
-7.0,-6.0,2.9
-14.0,-16.0,2.901
-17.0,-20.0,2.902
-10.0,-17.0,2.903
0.0,-12.0,2.904
9.0,-4.0,2.905
7.0,5.0,2.906
3.0,6.0,2.907
1.0,0.0,2.908
3.0,-1.0,2.909
4.0,6.0,2.91
1.0,11.0,2.911
-2.0,4.0,2.912
-2.0,-4.0,2.913
0.0,-6.0,2.914
5.0,-4.0,2.915
8.0,-1.0,2.916
10.0,1.0,2.917
9.0,1.0,2.918
6.0,0.0,2.919
0.0,-1.0,2.92
-4.0,-2.0,2.921
-5.0,-2.0,2.922
0.0,-4.0,2.923
5.0,-5.0,2.924
8.0,0.0,2.925
4.0,9.0,2.926
-1.0,11.0,2.927
-2.0,5.0,2.928
3.0,0.0,2.929
7.0,0.0,2.93
8.0,0.0,2.931
10.0,-3.0,2.932
13.0,-3.0,2.933
15.0,1.0,2.934
13.0,3.0,2.935
9.0,0.0,2.936
8.0,-1.0,2.937
2.0,-3.0,2.938
-5.0,-3.0,2.939
-13.0,-5.0,2.94
-13.0,-9.0,2.941
-8.0,-8.0,2.942
-3.0,-6.0,2.943
2.0,-4.0,2.944
3.0,1.0,2.945
1.0,5.0,2.946
0.0,6.0,2.947
5.0,3.0,2.948
9.0,0.0,2.949
7.0,2.0,2.95
1.0,5.0,2.951
-1.0,7.0,2.952
-1.0,7.0,2.953
0.0,6.0,2.954
0.0,4.0,2.955
1.0,-1.0,2.956
4.0,-3.0,2.957
5.0,-2.0,2.958
6.0,0.0,2.959
4.0,-1.0,2.96
2.0,-7.0,2.961
1.0,-11.0,2.962
3.0,-10.0,2.963
7.0,-9.0,2.964
6.0,-4.0,2.965
0.0,2.0,2.966
-3.0,9.0,2.967
2.0,9.0,2.968
8.0,2.0,2.969
5.0,-4.0,2.97
-1.0,-5.0,2.971
0.0,0.0,2.972
3.0,7.0,2.973
0.0,15.0,2.974
-5.0,23.0,2.975
-7.0,22.0,2.976
0.0,12.0,2.977
3.0,-4.0,2.978
1.0,-12.0,2.979
-2.0,-10.0,2.98
-3.0,-10.0,2.981
-3.0,-8.0,2.982
-3.0,-4.0,2.983
-3.0,0.0,2.984
-2.0,0.0,2.985
-3.0,-6.0,2.986
-7.0,-11.0,2.987
-12.0,-12.0,2.988
-10.0,-12.0,2.989
-3.0,-12.0,2.99
6.0,-11.0,2.991
14.0,-10.0,2.992
20.0,-12.0,2.993
25.0,-17.0,2.994
31.0,-16.0,2.995
40.0,-3.0,2.996
52.0,12.0,2.997
46.0,18.0,2.998
10.0,15.0,2.999
-37.0,13.0,3.0
-54.0,11.0,3.001
-29.0,3.0,3.002
5.0,-7.0,3.003
18.0,-10.0,3.004
19.0,-4.0,3.005
31.0,2.0,3.006
39.0,-1.0,3.007
6.0,-6.0,3.008
-61.0,-5.0,3.009
-115.0,2.0,3.01
-111.0,7.0,3.011
-63.0,10.0,3.012
-14.0,12.0,3.013
14.0,13.0,3.014
38.0,11.0,3.015
72.0,9.0,3.016
109.0,8.0,3.017
117.0,8.0,3.018
85.0,2.0,3.019
37.0,-6.0,3.02
14.0,-11.0,3.021
20.0,-10.0,3.022
31.0,-8.0,3.023
27.0,-4.0,3.024
13.0,3.0,3.025
0.0,6.0,3.026
-4.0,6.0,3.027
-5.0,4.0,3.028
-11.0,0.0,3.029
-23.0,-5.0,3.03
-34.0,-11.0,3.031
-36.0,-11.0,3.032
-32.0,-5.0,3.033
-28.0,-4.0,3.034
-26.0,-7.0,3.035
-19.0,-9.0,3.036
-7.0,-5.0,3.037
-2.0,-3.0,3.038
-4.0,-5.0,3.039
-5.0,-6.0,3.04
-4.0,-1.0,3.041
-8.0,3.0,3.042
-13.0,1.0,3.043
-10.0,0.0,3.044
-2.0,6.0,3.045
3.0,11.0,3.046
1.0,6.0,3.047
1.0,-5.0,3.048
6.0,-12.0,3.049
3.0,-8.0,3.05
-4.0,5.0,3.051
-5.0,37.0,3.052
0.0,89.0,3.053
5.0,131.0,3.054
2.0,116.0,3.055
1.0,29.0,3.056
6.0,-75.0,3.057
10.0,-145.0,3.058
13.0,-150.0,3.059
13.0,-121.0,3.06
9.0,-100.0,3.061
5.0,-77.0,3.062
4.0,-41.0,3.063
10.0,-6.0,3.064
15.0,5.0,3.065
12.0,0.0,3.066
4.0,6.0,3.067
1.0,25.0,3.068
-10.0,42.0,3.069
-42.0,48.0,3.07
-76.0,42.0,3.071
-75.0,32.0,3.072
-30.0,26.0,3.073
21.0,24.0,3.074
43.0,21.0,3.075
41.0,13.0,3.076
46.0,7.0,3.077
62.0,6.0,3.078
69.0,11.0,3.079
55.0,18.0,3.08
36.0,17.0,3.081
25.0,16.0,3.082
23.0,11.0,3.083
13.0,1.0,3.084
-8.0,-4.0,3.085
-28.0,-2.0,3.086
-37.0,2.0,3.087
-33.0,5.0,3.088
-24.0,7.0,3.089
-19.0,5.0,3.09
-25.0,1.0,3.091
-28.0,-1.0,3.092
-22.0,4.0,3.093
-9.0,10.0,3.094
-1.0,6.0,3.095
-8.0,-4.0,3.096
-20.0,-7.0,3.097
-30.0,-8.0,3.098
-33.0,-9.0,3.099
-25.0,-13.0,3.1
-9.0,-20.0,3.101
8.0,-30.0,3.102
21.0,-46.0,3.103
43.0,-55.0,3.104
83.0,-37.0,3.105
124.0,-3.0,3.106
135.0,14.0,3.107
100.0,7.0,3.108
42.0,3.0,3.109
2.0,13.0,3.11
-6.0,18.0,3.111
5.0,3.0,3.112
12.0,-9.0,3.113
11.0,2.0,3.114
10.0,22.0,3.115
3.0,19.0,3.116
-11.0,4.0,3.117
-31.0,-3.0,3.118
-42.0,9.0,3.119
-45.0,21.0,3.12
-54.0,15.0,3.121
-64.0,2.0,3.122
-65.0,-9.0,3.123
-52.0,-15.0,3.124
-52.0,-20.0,3.125
-69.0,-18.0,3.126
-79.0,-10.0,3.127
-51.0,5.0,3.128
7.0,28.0,3.129
54.0,45.0,3.13
59.0,40.0,3.131
32.0,9.0,3.132
11.0,-21.0,3.133
21.0,-25.0,3.134
48.0,-10.0,3.135
50.0,-2.0,3.136
9.0,-6.0,3.137
-41.0,-16.0,3.138
-41.0,-21.0,3.139
-23.0,-22.0,3.14
42.0,-24.0,3.141
97.0,-20.0,3.142
113.0,-9.0,3.143
127.0,11.0,3.144
135.0,43.0,3.145
121.0,69.0,3.146
41.0,68.0,3.147
-22.0,41.0,3.148
-34.0,15.0,3.149
-42.0,5.0,3.15
-33.0,0.0,3.151
-26.0,-13.0,3.152
-26.0,-21.0,3.153
-27.0,-14.0,3.154
-31.0,-5.0,3.155
-34.0,-8.0,3.156
-38.0,-17.0,3.157
-42.0,-27.0,3.158
-48.0,-31.0,3.159
-56.0,-28.0,3.16
-49.0,-16.0,3.161
-25.0,5.0,3.162
-7.0,26.0,3.163
-10.0,34.0,3.164
-19.0,27.0,3.165
-23.0,3.0,3.166
-24.0,-28.0,3.167
-35.0,-49.0,3.168
-49.0,-44.0,3.169
-54.0,-25.0,3.17
-43.0,-14.0,3.171
-25.0,-14.0,3.172
-2.0,-12.0,3.173
28.0,-1.0,3.174
59.0,9.0,3.175
73.0,9.0,3.176
64.0,1.0,3.177
53.0,-7.0,3.178
77.0,-4.0,3.179
101.0,12.0,3.18
127.0,30.0,3.181
130.0,40.0,3.182
60.0,28.0,3.183
-3.0,4.0,3.184
-44.0,-3.0,3.185
-83.0,8.0,3.186
-112.0,20.0,3.187
-128.0,21.0,3.188
-105.0,19.0,3.189
-82.0,20.0,3.19
-60.0,14.0,3.191
-40.0,-6.0,3.192
-26.0,-28.0,3.193
-20.0,-32.0,3.194
-39.0,-20.0,3.195
-64.0,-9.0,3.196
-106.0,-4.0,3.197
-134.0,-12.0,3.198
-79.0,-27.0,3.199
24.0,-40.0,3.2
135.0,-46.0,3.201
197.0,-44.0,3.202
180.0,-38.0,3.203
112.0,-23.0,3.204
64.0,5.0,3.205
65.0,37.0,3.206
85.0,47.0,3.207
78.0,30.0,3.208
46.0,7.0,3.209
27.0,-6.0,3.21
54.0,-8.0,3.211
123.0,-6.0,3.212
184.0,-9.0,3.213
181.0,-25.0,3.214
108.0,-40.0,3.215
23.0,-37.0,3.216
-25.0,-16.0,3.217
-47.0,5.0,3.218
-59.0,14.0,3.219
-53.0,17.0,3.22
-26.0,20.0,3.221
-5.0,22.0,3.222
-16.0,18.0,3.223
-42.0,24.0,3.224
-67.0,45.0,3.225
-101.0,68.0,3.226
-144.0,66.0,3.227
-172.0,37.0,3.228
-168.0,6.0,3.229
-151.0,-3.0,3.23
-132.0,2.0,3.231
-95.0,-2.0,3.232
-43.0,-30.0,3.233
-9.0,-63.0,3.234
5.0,-75.0,3.235
30.0,-57.0,3.236
76.0,-26.0,3.237
119.0,0.0,3.238
141.0,19.0,3.239
157.0,28.0,3.24
170.0,15.0,3.241
143.0,-13.0,3.242
49.0,-39.0,3.243
-80.0,-40.0,3.244
-179.0,-15.0,3.245
-203.0,13.0,3.246
-152.0,26.0,3.247
-74.0,22.0,3.248
-19.0,22.0,3.249
16.0,39.0,3.25
69.0,65.0,3.251
135.0,78.0,3.252
180.0,66.0,3.253
194.0,44.0,3.254
199.0,38.0,3.255
201.0,53.0,3.256
180.0,65.0,3.257
116.0,45.0,3.258
18.0,-4.0,3.259
-102.0,-52.0,3.26
-197.0,-75.0,3.261
-194.0,-79.0,3.262
-99.0,-97.0,3.263
-34.0,-126.0,3.264
-73.0,-125.0,3.265
-129.0,-69.0,3.266
-81.0,3.0,3.267
30.0,35.0,3.268
84.0,17.0,3.269
60.0,-6.0,3.27
20.0,-8.0,3.271
-58.0,4.0,3.272
-213.0,10.0,3.273
-346.0,14.0,3.274
-293.0,13.0,3.275
-82.0,-1.0,3.276
82.0,-21.0,3.277
109.0,-25.0,3.278
87.0,8.0,3.279
143.0,59.0,3.28
259.0,90.0,3.281
314.0,99.0,3.282
241.0,95.0,3.283
84.0,80.0,3.284
-44.0,49.0,3.285
-62.0,5.0,3.286
3.0,-47.0,3.287
44.0,-98.0,3.288
30.0,-122.0,3.289
45.0,-100.0,3.29
126.0,-48.0,3.291
181.0,-10.0,3.292
126.0,-7.0,3.293
0.0,-19.0,3.294
-125.0,-30.0,3.295
-231.0,-41.0,3.296
-294.0,-53.0,3.297
-275.0,-49.0,3.298
-190.0,-29.0,3.299
-139.0,-19.0,3.3
-149.0,-31.0,3.301
-121.0,-32.0,3.302
-14.0,-13.0,3.303
62.0,0.0,3.304
21.0,5.0,3.305
-59.0,37.0,3.306
-71.0,92.0,3.307
-35.0,110.0,3.308
-27.0,75.0,3.309
-54.0,42.0,3.31
-75.0,54.0,3.311
-55.0,68.0,3.312
30.0,41.0,3.313
172.0,-3.0,3.314
292.0,-19.0,3.315
315.0,0.0,3.316
262.0,35.0,3.317
199.0,68.0,3.318
154.0,67.0,3.319
96.0,5.0,3.32
25.0,-73.0,3.321
-20.0,-86.0,3.322
-35.0,-41.0,3.323
-55.0,-10.0,3.324
-78.0,-18.0,3.325
-72.0,-14.0,3.326
-27.0,21.0,3.327
37.0,38.0,3.328
100.0,0.0,3.329
144.0,-59.0,3.33
154.0,-102.0,3.331
126.0,-120.0,3.332
67.0,-103.0,3.333
-23.0,-28.0,3.334
-115.0,90.0,3.335
-157.0,185.0,3.336
-141.0,192.0,3.337
-119.0,86.0,3.338
-124.0,-71.0,3.339
-100.0,-187.0,3.34
6.0,-207.0,3.341
127.0,-148.0,3.342
150.0,-65.0,3.343
66.0,0.0,3.344
-25.0,38.0,3.345
-47.0,51.0,3.346
-11.0,73.0,3.347
25.0,123.0,3.348
3.0,160.0,3.349
-96.0,125.0,3.35
-222.0,45.0,3.351
-290.0,4.0,3.352
-269.0,20.0,3.353
-197.0,13.0,3.354
-127.0,-41.0,3.355
-91.0,-72.0,3.356
-93.0,-39.0,3.357
-94.0,12.0,3.358
-7.0,24.0,3.359
180.0,10.0,3.36
312.0,3.0,3.361
239.0,-10.0,3.362
64.0,-42.0,3.363
23.0,-65.0,3.364
136.0,-59.0,3.365
209.0,-46.0,3.366
140.0,-27.0,3.367
52.0,26.0,3.368
54.0,106.0,3.369
95.0,157.0,3.37
113.0,155.0,3.371
115.0,122.0,3.372
94.0,71.0,3.373
21.0,-12.0,3.374
-44.0,-111.0,3.375
-9.0,-176.0,3.376
72.0,-189.0,3.377
81.0,-181.0,3.378
18.0,-155.0,3.379
4.0,-97.0,3.38
78.0,-18.0,3.381
133.0,39.0,3.382
95.0,46.0,3.383
2.0,18.0,3.384
-84.0,-11.0,3.385
-129.0,-23.0,3.386
-128.0,-11.0,3.387
-138.0,22.0,3.388
-225.0,58.0,3.389
-318.0,78.0,3.39
-264.0,85.0,3.391
-74.0,81.0,3.392
44.0,56.0,3.393
11.0,18.0,3.394
-28.0,-2.0,3.395
22.0,0.0,3.396
52.0,-16.0,3.397
-49.0,-88.0,3.398
-189.0,-152.0,3.399
-240.0,-133.0,3.4
-208.0,-58.0,3.401
-138.0,-13.0,3.402
5.0,-22.0,3.403
225.0,-18.0,3.404
384.0,29.0,3.405
364.0,77.0,3.406
264.0,100.0,3.407
252.0,120.0,3.408
324.0,140.0,3.409
310.0,112.0,3.41
137.0,39.0,3.411
-67.0,-10.0,3.412
-158.0,-4.0,3.413
-144.0,0.0,3.414
-122.0,-33.0,3.415
-131.0,-53.0,3.416
-135.0,-5.0,3.417
-133.0,98.0,3.418
-160.0,186.0,3.419
-213.0,192.0,3.42
-215.0,103.0,3.421
-113.0,-21.0,3.422
38.0,-92.0,3.423
140.0,-90.0,3.424
148.0,-86.0,3.425
107.0,-125.0,3.426
62.0,-139.0,3.427
6.0,-81.0,3.428
-67.0,-32.0,3.429
-88.0,-69.0,3.43
19.0,-114.0,3.431
205.0,-67.0,3.432
326.0,14.0,3.433
309.0,11.0,3.434
204.0,-49.0,3.435
57.0,-46.0,3.436
-109.0,36.0,3.437
-270.0,128.0,3.438
-326.0,183.0,3.439
-265.0,189.0,3.44
-193.0,120.0,3.441
-160.0,0.0,3.442
-106.0,-64.0,3.443
-10.0,-8.0,3.444
45.0,78.0,3.445
18.0,78.0,3.446
-27.0,2.0,3.447
-54.0,-60.0,3.448
-101.0,-81.0,3.449
-149.0,-80.0,3.45
-120.0,-67.0,3.451
-27.0,-54.0,3.452
19.0,-72.0,3.453
30.0,-115.0,3.454
141.0,-120.0,3.455
344.0,-67.0,3.456
408.0,-10.0,3.457
168.0,7.0,3.458
-212.0,5.0,3.459
-427.0,21.0,3.46
-380.0,46.0,3.461
-220.0,59.0,3.462
-87.0,52.0,3.463
3.0,23.0,3.464
53.0,-30.0,3.465
44.0,-86.0,3.466
41.0,-98.0,3.467
169.0,-60.0,3.468
440.0,-16.0,3.469
677.0,-4.0,3.47
694.0,-20.0,3.471
496.0,-44.0,3.472
269.0,-50.0,3.473
180.0,-16.0,3.474
211.0,64.0,3.475
198.0,154.0,3.476
78.0,198.0,3.477
-59.0,171.0,3.478
-83.0,105.0,3.479
-69.0,54.0,3.48
-180.0,42.0,3.481
-363.0,49.0,3.482
-407.0,23.0,3.483
-288.0,-49.0,3.484
-229.0,-119.0,3.485
-334.0,-133.0,3.486
-422.0,-101.0,3.487
-337.0,-68.0,3.488
-183.0,-45.0,3.489
-111.0,-27.0,3.49
-56.0,-22.0,3.491
104.0,-33.0,3.492
278.0,-29.0,3.493
274.0,12.0,3.494
130.0,59.0,3.495
68.0,68.0,3.496
156.0,46.0,3.497
226.0,9.0,3.498
126.0,-23.0,3.499
-54.0,-38.0,3.5
-140.0,-25.0,3.501
-132.0,17.0,3.502
-139.0,73.0,3.503
-140.0,144.0,3.504
-15.0,208.0,3.505
200.0,186.0,3.506
305.0,38.0,3.507
203.0,-121.0,3.508
38.0,-124.0,3.509
-20.0,5.0,3.51
10.0,73.0,3.511
3.0,-9.0,3.512
-69.0,-102.0,3.513
-125.0,-57.0,3.514
-103.0,71.0,3.515
-24.0,119.0,3.516
45.0,44.0,3.517
56.0,-67.0,3.518
-22.0,-82.0,3.519
-163.0,36.0,3.52
-294.0,177.0,3.521
-356.0,177.0,3.522
-360.0,-17.0,3.523
-340.0,-251.0,3.524
-263.0,-323.0,3.525
-64.0,-234.0,3.526
213.0,-149.0,3.527
392.0,-141.0,3.528
353.0,-129.0,3.529
200.0,-70.0,3.53
131.0,-19.0,3.531
167.0,6.0,3.532
152.0,63.0,3.533
27.0,145.0,3.534
-88.0,170.0,3.535
-110.0,130.0,3.536
-107.0,108.0,3.537
-130.0,124.0,3.538
-94.0,128.0,3.539
55.0,95.0,3.54
192.0,56.0,3.541
164.0,18.0,3.542
5.0,-51.0,3.543
-133.0,-108.0,3.544
-167.0,-74.0,3.545
-109.0,14.0,3.546
-31.0,36.0,3.547
-58.0,-31.0,3.548
-245.0,-91.0,3.549
-445.0,-83.0,3.55
-437.0,-45.0,3.551
-220.0,-15.0,3.552
15.0,10.0,3.553
202.0,38.0,3.554
440.0,60.0,3.555
689.0,85.0,3.556
748.0,116.0,3.557
563.0,112.0,3.558
373.0,47.0,3.559
367.0,-35.0,3.56
416.0,-72.0,3.561
309.0,-66.0,3.562
79.0,-77.0,3.563
-105.0,-121.0,3.564
-195.0,-159.0,3.565
-244.0,-162.0,3.566
-238.0,-136.0,3.567
-156.0,-101.0,3.568
-89.0,-69.0,3.569
-140.0,-37.0,3.57
-261.0,12.0,3.571
-337.0,79.0,3.572
-357.0,116.0,3.573
-349.0,94.0,3.574
-238.0,49.0,3.575
27.0,30.0,3.576
275.0,34.0,3.577
288.0,43.0,3.578
89.0,93.0,3.579
-43.0,193.0,3.58
50.0,239.0,3.581
197.0,134.0,3.582
193.0,-52.0,3.583
70.0,-149.0,3.584
-15.0,-111.0,3.585
-15.0,-44.0,3.586
15.0,-25.0,3.587
23.0,-17.0,3.588
-2.0,7.0,3.589
-40.0,11.0,3.59
-36.0,-26.0,3.591
28.0,-64.0,3.592
83.0,-65.0,3.593
60.0,-32.0,3.594
6.0,28.0,3.595
-20.0,113.0,3.596
-101.0,182.0,3.597
-396.0,188.0,3.598
-793.0,130.0,3.599
-943.0,42.0,3.6
-654.0,-49.0,3.601
-152.0,-132.0,3.602
221.0,-191.0,3.603
406.0,-217.0,3.604
571.0,-219.0,3.605
755.0,-178.0,3.606
811.0,-56.0,3.607
657.0,103.0,3.608
399.0,183.0,3.609
179.0,136.0,3.61
51.0,46.0,3.611
9.0,-3.0,3.612
-5.0,-38.0,3.613
-70.0,-95.0,3.614
-181.0,-126.0,3.615
-216.0,-71.0,3.616
-132.0,28.0,3.617
-51.0,95.0,3.618
-96.0,102.0,3.619
-193.0,83.0,3.62
-188.0,63.0,3.621
-113.0,62.0,3.622
-108.0,81.0,3.623
-170.0,98.0,3.624
-176.0,65.0,3.625
-117.0,-20.0,3.626
-110.0,-82.0,3.627
-182.0,-69.0,3.628
-223.0,-27.0,3.629
-168.0,-28.0,3.63
-79.0,-47.0,3.631
-5.0,-22.0,3.632
102.0,42.0,3.633
265.0,80.0,3.634
386.0,69.0,3.635
327.0,40.0,3.636
106.0,9.0,3.637
-167.0,-38.0,3.638
-316.0,-75.0,3.639
-317.0,-65.0,3.64
-288.0,-32.0,3.641
-295.0,-21.0,3.642
-213.0,-37.0,3.643
67.0,-47.0,3.644
374.0,-44.0,3.645
387.0,-60.0,3.646
108.0,-80.0,3.647
-62.0,-53.0,3.648
140.0,26.0,3.649
456.0,100.0,3.65
481.0,119.0,3.651
257.0,105.0,3.652
125.0,104.0,3.653
156.0,114.0,3.654
114.0,92.0,3.655
-62.0,8.0,3.656
-151.0,-92.0,3.657
-54.0,-146.0,3.658
36.0,-105.0,3.659
-55.0,-15.0,3.66
-214.0,27.0,3.661
-233.0,-1.0,3.662
-86.0,-37.0,3.663
91.0,-31.0,3.664
163.0,-22.0,3.665
108.0,-50.0,3.666
40.0,-87.0,3.667
79.0,-73.0,3.668
141.0,-22.0,3.669
20.0,-5.0,3.67
-302.0,-41.0,3.671
-564.0,-75.0,3.672
-566.0,-55.0,3.673
-381.0,3.0,3.674
-158.0,42.0,3.675
60.0,37.0,3.676
246.0,23.0,3.677
337.0,24.0,3.678
315.0,31.0,3.679
274.0,7.0,3.68
302.0,-31.0,3.681
350.0,-9.0,3.682
333.0,100.0,3.683
229.0,262.0,3.684
74.0,407.0,3.685
-71.0,437.0,3.686
-143.0,242.0,3.687
-149.0,-149.0,3.688
-157.0,-477.0,3.689
-179.0,-501.0,3.69
-146.0,-304.0,3.691
-58.0,-166.0,3.692
-41.0,-166.0,3.693
-169.0,-123.0,3.694
-333.0,30.0,3.695
-389.0,128.0,3.696
-346.0,74.0,3.697
-298.0,-6.0,3.698
-308.0,36.0,3.699
-349.0,140.0,3.7
-336.0,160.0,3.701
-166.0,96.0,3.702
171.0,37.0,3.703
506.0,26.0,3.704
629.0,42.0,3.705
545.0,66.0,3.706
456.0,74.0,3.707
456.0,42.0,3.708
426.0,-3.0,3.709
286.0,-17.0,3.71
169.0,-12.0,3.711
182.0,-43.0,3.712
193.0,-91.0,3.713
21.0,-83.0,3.714
-283.0,-1.0,3.715
-522.0,77.0,3.716
-616.0,97.0,3.717
-620.0,76.0,3.718
-532.0,57.0,3.719
-312.0,43.0,3.72
8.0,14.0,3.721
333.0,-13.0,3.722
574.0,-23.0,3.723
632.0,-13.0,3.724
453.0,5.0,3.725
158.0,25.0,3.726
-40.0,33.0,3.727
-107.0,21.0,3.728
-189.0,-6.0,3.729
-289.0,-44.0,3.73
-209.0,-107.0,3.731
83.0,-187.0,3.732
315.0,-227.0,3.733
258.0,-182.0,3.734
12.0,-84.0,3.735
-210.0,-2.0,3.736
-336.0,48.0,3.737
-394.0,94.0,3.738
-349.0,132.0,3.739
-200.0,116.0,3.74
-58.0,40.0,3.741
-45.0,-41.0,3.742
-134.0,-81.0,3.743
-192.0,-64.0,3.744
-116.0,2.0,3.745
69.0,93.0,3.746
266.0,148.0,3.747
387.0,129.0,3.748
423.0,63.0,3.749
391.0,7.0,3.75
277.0,-16.0,3.751
79.0,-28.0,3.752
-120.0,-35.0,3.753
-207.0,-26.0,3.754
-186.0,0.0,3.755
-176.0,10.0,3.756
-242.0,-13.0,3.757
-322.0,-58.0,3.758
-273.0,-88.0,3.759
-46.0,-91.0,3.76
225.0,-81.0,3.761
347.0,-72.0,3.762
272.0,-66.0,3.763
129.0,-44.0,3.764
59.0,-2.0,3.765
68.0,45.0,3.766
96.0,82.0,3.767
119.0,93.0,3.768
146.0,56.0,3.769
149.0,-9.0,3.77
96.0,-14.0,3.771
6.0,108.0,3.772
-62.0,268.0,3.773
-75.0,271.0,3.774
-43.0,74.0,3.775
6.0,-140.0,3.776
71.0,-187.0,3.777
190.0,-78.0,3.778
350.0,56.0,3.779
432.0,111.0,3.78
323.0,47.0,3.781
80.0,-103.0,3.782
-119.0,-241.0,3.783
-195.0,-250.0,3.784
-227.0,-142.0,3.785
-308.0,-43.0,3.786
-431.0,-16.0,3.787
-533.0,-12.0,3.788
-545.0,0.0,3.789
-416.0,-14.0,3.79
-185.0,-50.0,3.791
1.0,-50.0,3.792
39.0,-4.0,3.793
10.0,36.0,3.794
53.0,53.0,3.795
147.0,76.0,3.796
151.0,108.0,3.797
6.0,113.0,3.798
-155.0,85.0,3.799
-185.0,52.0,3.8
-102.0,32.0,3.801
-28.0,28.0,3.802
9.0,34.0,3.803
66.0,35.0,3.804
130.0,8.0,3.805
118.0,-30.0,3.806
52.0,-42.0,3.807
48.0,-16.0,3.808
118.0,2.0,3.809
159.0,-12.0,3.81
157.0,-21.0,3.811
209.0,15.0,3.812
290.0,68.0,3.813
233.0,74.0,3.814
17.0,29.0,3.815
-165.0,-11.0,3.816
-195.0,-4.0,3.817
-157.0,25.0,3.818
-123.0,31.0,3.819
-87.0,30.0,3.82
-49.0,6.0,3.821
-43.0,3.0,3.822
-137.0,70.0,3.823
-184.0,101.0,3.824
-88.0,23.0,3.825
20.0,-55.0,3.826
168.0,-132.0,3.827
297.0,-185.0,3.828
370.0,-162.0,3.829
413.0,-132.0,3.83
364.0,-83.0,3.831
318.0,-30.0,3.832
284.0,34.0,3.833
214.0,66.0,3.834
36.0,-2.0,3.835
-92.0,-46.0,3.836
-74.0,-12.0,3.837
-63.0,27.0,3.838
-123.0,54.0,3.839
-204.0,25.0,3.84
-214.0,-39.0,3.841
-199.0,-91.0,3.842
-238.0,-92.0,3.843
-280.0,-36.0,3.844
-201.0,33.0,3.845
0.0,58.0,3.846
173.0,39.0,3.847
194.0,25.0,3.848
105.0,48.0,3.849
20.0,85.0,3.85
-19.0,99.0,3.851
-46.0,78.0,3.852
-76.0,30.0,3.853
-89.0,-32.0,3.854
-79.0,-85.0,3.855
-47.0,-95.0,3.856
-2.0,-63.0,3.857
8.0,-31.0,3.858
-85.0,-24.0,3.859
-238.0,-34.0,3.86
-295.0,-40.0,3.861
-202.0,-39.0,3.862
-97.0,-34.0,3.863
-81.0,-3.0,3.864
-51.0,64.0,3.865
89.0,135.0,3.866
228.0,168.0,3.867
199.0,166.0,3.868
57.0,167.0,3.869
-40.0,178.0,3.87
-51.0,153.0,3.871
-20.0,54.0,3.872
63.0,-90.0,3.873
198.0,-203.0,3.874
275.0,-221.0,3.875
212.0,-154.0,3.876
83.0,-54.0,3.877
-27.0,58.0,3.878
-106.0,158.0,3.879
-161.0,172.0,3.88
-148.0,38.0,3.881
-60.0,-157.0,3.882
11.0,-229.0,3.883
12.0,-108.0,3.884
0.0,40.0,3.885
2.0,26.0,3.886
-34.0,-117.0,3.887
-108.0,-205.0,3.888
-146.0,-162.0,3.889
-165.0,-72.0,3.89
-250.0,-8.0,3.891
-342.0,48.0,3.892
-257.0,104.0,3.893
22.0,120.0,3.894
295.0,92.0,3.895
409.0,78.0,3.896
415.0,101.0,3.897
397.0,131.0,3.898
377.0,140.0,3.899
338.0,144.0,3.9
247.0,137.0,3.901
140.0,103.0,3.902
-9.0,41.0,3.903
-100.0,-30.0,3.904
-13.0,-110.0,3.905
59.0,-191.0,3.906
88.0,-228.0,3.907
88.0,-207.0,3.908
2.0,-174.0,3.909
-61.0,-152.0,3.91
-54.0,-95.0,3.911
-44.0,17.0,3.912
-26.0,119.0,3.913
-29.0,142.0,3.914
-97.0,117.0,3.915
-148.0,105.0,3.916
-149.0,99.0,3.917
-150.0,44.0,3.918
-101.0,-51.0,3.919
68.0,-126.0,3.92
233.0,-147.0,3.921
216.0,-122.0,3.922
58.0,-83.0,3.923
-50.0,-51.0,3.924
-66.0,-24.0,3.925
-98.0,11.0,3.926
-166.0,59.0,3.927
-177.0,105.0,3.928
-124.0,126.0,3.929
-96.0,126.0,3.93
-113.0,115.0,3.931
-99.0,92.0,3.932
-30.0,59.0,3.933
41.0,27.0,3.934
83.0,-6.0,3.935
121.0,-55.0,3.936
167.0,-96.0,3.937
201.0,-53.0,3.938
179.0,87.0,3.939
42.0,170.0,3.94
-189.0,79.0,3.941
-377.0,-30.0,3.942
-403.0,-194.0,3.943
-344.0,-277.0,3.944
-340.0,-114.0,3.945
-332.0,4.0,3.946
-166.0,-16.0,3.947
78.0,-33.0,3.948
172.0,-38.0,3.949
124.0,-42.0,3.95
174.0,-40.0,3.951
347.0,-20.0,3.952
384.0,53.0,3.953
186.0,101.0,3.954
-24.0,66.0,3.955
-76.0,45.0,3.956
-64.0,70.0,3.957
-116.0,113.0,3.958
-180.0,191.0,3.959
-192.0,182.0,3.96
-193.0,54.0,3.961
-207.0,-116.0,3.962
-157.0,-202.0,3.963
-14.0,-156.0,3.964
124.0,-69.0,3.965
183.0,-46.0,3.966
208.0,-67.0,3.967
264.0,-57.0,3.968
337.0,-4.0,3.969
391.0,49.0,3.97
410.0,95.0,3.971
384.0,129.0,3.972
306.0,116.0,3.973
199.0,47.0,3.974
98.0,-15.0,3.975
3.0,-32.0,3.976
-95.0,-41.0,3.977
-194.0,-70.0,3.978
-222.0,-83.0,3.979
-136.0,-55.0,3.98
1.0,-27.0,3.981
54.0,-20.0,3.982
-40.0,-1.0,3.983
-187.0,49.0,3.984
-258.0,97.0,3.985
-231.0,117.0,3.986
-171.0,127.0,3.987
-110.0,125.0,3.988
-35.0,79.0,3.989
35.0,8.0,3.99
73.0,-17.0,3.991
97.0,14.0,3.992
137.0,29.0,3.993
165.0,-25.0,3.994
142.0,-111.0,3.995
110.0,-168.0,3.996
128.0,-178.0,3.997
185.0,-147.0,3.998
206.0,-85.0,3.999
159.0,-32.0,4.0
76.0,-6.0,4.001
-27.0,20.0,4.002
-154.0,47.0,4.003
-273.0,67.0,4.004
-325.0,63.0,4.005
-304.0,66.0,4.006
-248.0,92.0,4.007
-168.0,94.0,4.008
-68.0,19.0,4.009
-16.0,-50.0,4.01
-60.0,-103.0,4.011
-126.0,-137.0,4.012
-90.0,-113.0,4.013
32.0,-82.0,4.014
111.0,-30.0,4.015
106.0,12.0,4.016
104.0,20.0,4.017
137.0,19.0,4.018
122.0,-3.0,4.019
-1.0,-15.0,4.02
-144.0,-9.0,4.021
-195.0,17.0,4.022
-161.0,34.0,4.023
-135.0,1.0,4.024
-149.0,-59.0,4.025
-141.0,-87.0,4.026
-55.0,-60.0,4.027
64.0,-14.0,4.028
113.0,18.0,4.029
68.0,51.0,4.03
21.0,90.0,4.031
45.0,110.0,4.032
93.0,93.0,4.033
113.0,71.0,4.034
176.0,108.0,4.035
348.0,227.0,4.036
512.0,331.0,4.037
467.0,259.0,4.038
239.0,16.0,4.039
46.0,-166.0,4.04
-39.0,-164.0,4.041
-103.0,-155.0,4.042
-97.0,-124.0,4.043
-91.0,-113.0,4.044
-82.0,-167.0,4.045
-74.0,-197.0,4.046
-71.0,-147.0,4.047
-80.0,-95.0,4.048
-130.0,-34.0,4.049
-186.0,22.0,4.05
-258.0,63.0,4.051
-278.0,91.0,4.052
-142.0,80.0,4.053
-52.0,79.0,4.054
-101.0,113.0,4.055
-117.0,135.0,4.056
-31.0,120.0,4.057
71.0,92.0,4.058
172.0,-21.0,4.059
166.0,-161.0,4.06
125.0,-168.0,4.061
103.0,-21.0,4.062
74.0,97.0,4.063
27.0,70.0,4.064
8.0,-3.0,4.065
36.0,-10.0,4.066
68.0,23.0,4.067
68.0,26.0,4.068
60.0,5.0,4.069
64.0,-17.0,4.07
58.0,-47.0,4.071
34.0,-56.0,4.072
26.0,-16.0,4.073
54.0,27.0,4.074
82.0,5.0,4.075
83.0,-43.0,4.076
74.0,-43.0,4.077
55.0,-17.0,4.078
1.0,-44.0,4.079
-107.0,-116.0,4.08
-229.0,-138.0,4.081
-317.0,-79.0,4.082
-369.0,-8.0,4.083
-417.0,22.0,4.084
-479.0,28.0,4.085
-505.0,27.0,4.086
-406.0,24.0,4.087
-133.0,32.0,4.088
243.0,44.0,4.089
559.0,24.0,4.09
700.0,-36.0,4.091
672.0,-66.0,4.092
570.0,-19.0,4.093
473.0,52.0,4.094
385.0,83.0,4.095
276.0,83.0,4.096
162.0,89.0,4.097
85.0,87.0,4.098
76.0,51.0,4.099
72.0,1.0,4.1
-11.0,-22.0,4.101
-159.0,-16.0,4.102
-287.0,0.0,4.103
-361.0,27.0,4.104
-411.0,57.0,4.105
-425.0,56.0,4.106
-353.0,7.0,4.107
-211.0,-51.0,4.108
-72.0,-75.0,4.109
39.0,-61.0,4.11
130.0,-32.0,4.111
163.0,-3.0,4.112
115.0,6.0,4.113
58.0,-10.0,4.114
74.0,-25.0,4.115
128.0,-4.0,4.116
135.0,33.0,4.117
80.0,33.0,4.118
13.0,1.0,4.119
-43.0,10.0,4.12
-76.0,94.0,4.121
-57.0,180.0,4.122
-3.0,160.0,4.123
10.0,40.0,4.124
-40.0,-74.0,4.125
-71.0,-111.0,4.126
-41.0,-106.0,4.127
-11.0,-117.0,4.128
-39.0,-124.0,4.129
-91.0,-83.0,4.13
-131.0,-18.0,4.131
-165.0,0.0,4.132
-174.0,-31.0,4.133
-104.0,-47.0,4.134
19.0,-16.0,4.135
98.0,17.0,4.136
103.0,27.0,4.137
87.0,36.0,4.138
79.0,64.0,4.139
49.0,73.0,4.14
4.0,27.0,4.141
-6.0,-46.0,4.142
19.0,-95.0,4.143
25.0,-105.0,4.144
8.0,-88.0,4.145
19.0,-52.0,4.146
62.0,-11.0,4.147
76.0,15.0,4.148
38.0,28.0,4.149
-19.0,49.0,4.15
-56.0,88.0,4.151
-64.0,111.0,4.152
-44.0,93.0,4.153
-14.0,58.0,4.154
-5.0,45.0,4.155
-12.0,41.0,4.156
0.0,16.0,4.157
40.0,-37.0,4.158
65.0,-74.0,4.159
42.0,-75.0,4.16
6.0,-65.0,4.161
0.0,-60.0,4.162
26.0,-45.0,4.163
52.0,-8.0,4.164
61.0,31.0,4.165
52.0,42.0,4.166
36.0,38.0,4.167
23.0,43.0,4.168
15.0,45.0,4.169
-11.0,14.0,4.17
-52.0,-34.0,4.171
-64.0,-53.0,4.172
-22.0,-29.0,4.173
29.0,-1.0,4.174
40.0,-2.0,4.175
35.0,-12.0,4.176
56.0,-3.0,4.177
92.0,17.0,4.178
85.0,33.0,4.179
25.0,34.0,4.18
-32.0,28.0,4.181
-54.0,23.0,4.182
-44.0,19.0,4.183
-11.0,13.0,4.184
30.0,8.0,4.185
46.0,3.0,4.186
19.0,2.0,4.187
-22.0,4.0,4.188
-45.0,2.0,4.189
-57.0,-6.0,4.19
-72.0,-11.0,4.191
-73.0,-6.0,4.192
-47.0,4.0,4.193
-23.0,2.0,4.194
-27.0,-19.0,4.195
-35.0,-52.0,4.196
-15.0,-74.0,4.197
8.0,-71.0,4.198
8.0,-45.0,4.199
15.0,-19.0,4.2
39.0,4.0,4.201
61.0,24.0,4.202
80.0,34.0,4.203
83.0,43.0,4.204
35.0,44.0,4.205
-3.0,38.0,4.206
-11.0,11.0,4.207
-11.0,-9.0,4.208
14.0,-10.0,4.209
30.0,-8.0,4.21
14.0,1.0,4.211
-2.0,7.0,4.212
-16.0,0.0,4.213
-31.0,-2.0,4.214
-47.0,11.0,4.215
-58.0,19.0,4.216
-54.0,6.0,4.217
-42.0,-7.0,4.218
-18.0,-13.0,4.219
-18.0,-6.0,4.22
-46.0,0.0,4.221
-72.0,10.0,4.222
-54.0,24.0,4.223
1.0,32.0,4.224
47.0,32.0,4.225
58.0,24.0,4.226
54.0,2.0,4.227
70.0,-42.0,4.228
101.0,-89.0,4.229
116.0,-96.0,4.23
95.0,-52.0,4.231
59.0,0.0,4.232
38.0,27.0,4.233
49.0,40.0,4.234
67.0,59.0,4.235
55.0,68.0,4.236
10.0,42.0,4.237
-45.0,-18.0,4.238
-81.0,-61.0,4.239
-95.0,-61.0,4.24
-97.0,-36.0,4.241
-77.0,-12.0,4.242
-29.0,-6.0,4.243
20.0,-10.0,4.244
34.0,-15.0,4.245
21.0,-17.0,4.246
8.0,-21.0,4.247
3.0,-25.0,4.248
-10.0,-21.0,4.249
-24.0,-7.0,4.25
-22.0,9.0,4.251
-2.0,23.0,4.252
14.0,47.0,4.253
14.0,85.0,4.254
2.0,108.0,4.255
-12.0,75.0,4.256
-21.0,-4.0,4.257
-25.0,-82.0,4.258
-26.0,-94.0,4.259
-26.0,-49.0,4.26
-18.0,-15.0,4.261
1.0,-19.0,4.262
21.0,-23.0,4.263
28.0,6.0,4.264
25.0,37.0,4.265
20.0,30.0,4.266
17.0,-5.0,4.267
11.0,-26.0,4.268
0.0,-18.0,4.269
-7.0,0.0,4.27
-11.0,8.0,4.271
-7.0,8.0,4.272
7.0,8.0,4.273
33.0,10.0,4.274
50.0,7.0,4.275
47.0,-5.0,4.276
28.0,-12.0,4.277
1.0,-7.0,4.278
-24.0,9.0,4.279
-47.0,21.0,4.28
-58.0,18.0,4.281
-66.0,14.0,4.282
-62.0,10.0,4.283
-54.0,4.0,4.284
-34.0,-5.0,4.285
-11.0,-12.0,4.286
14.0,-8.0,4.287
30.0,-4.0,4.288
12.0,-2.0,4.289
5.0,0.0,4.29
29.0,1.0,4.291
50.0,3.0,4.292
62.0,2.0,4.293
85.0,4.0,4.294
137.0,18.0,4.295
162.0,26.0,4.296
104.0,15.0,4.297
36.0,5.0,4.298
-40.0,8.0,4.299
-55.0,8.0,4.3
-31.0,-11.0,4.301
-11.0,-27.0,4.302
-7.0,-25.0,4.303
-6.0,-13.0,4.304
-5.0,-7.0,4.305
-16.0,-5.0,4.306
-42.0,-3.0,4.307
-61.0,-1.0,4.308
-52.0,-2.0,4.309
-21.0,-2.0,4.31
7.0,4.0,4.311
19.0,14.0,4.312
18.0,22.0,4.313
14.0,21.0,4.314
3.0,5.0,4.315
-11.0,-17.0,4.316
-22.0,-34.0,4.317
-30.0,-35.0,4.318
-36.0,-25.0,4.319
-39.0,-17.0,4.32
-37.0,-14.0,4.321
-40.0,-7.0,4.322
-53.0,0.0,4.323
-52.0,-2.0,4.324
-8.0,-7.0,4.325
59.0,-6.0,4.326
80.0,0.0,4.327
29.0,-1.0,4.328
-32.0,-6.0,4.329
-46.0,-6.0,4.33
-33.0,8.0,4.331
-19.0,25.0,4.332
24.0,29.0,4.333
105.0,20.0,4.334
144.0,12.0,4.335
89.0,16.0,4.336
14.0,28.0,4.337
0.0,28.0,4.338
32.0,11.0,4.339
29.0,-3.0,4.34
-11.0,5.0,4.341
-23.0,24.0,4.342
-1.0,16.0,4.343
8.0,-24.0,4.344
-12.0,-53.0,4.345
-24.0,-36.0,4.346
-21.0,1.0,4.347
-18.0,15.0,4.348
-20.0,4.0,4.349
-17.0,1.0,4.35
-15.0,15.0,4.351
-20.0,16.0,4.352
-21.0,-6.0,4.353
-11.0,-26.0,4.354
-4.0,-23.0,4.355
-7.0,-12.0,4.356
-7.0,-10.0,4.357
2.0,-16.0,4.358
10.0,-12.0,4.359
2.0,-2.0,4.36
-4.0,-4.0,4.361
-4.0,-10.0,4.362
-4.0,-13.0,4.363
-20.0,-8.0,4.364
-37.0,-2.0,4.365
-43.0,7.0,4.366
-35.0,11.0,4.367
-24.0,9.0,4.368
-14.0,3.0,4.369
-4.0,0.0,4.37
6.0,-1.0,4.371
27.0,-5.0,4.372
61.0,-7.0,4.373
97.0,-5.0,4.374
112.0,2.0,4.375
102.0,9.0,4.376
86.0,16.0,4.377
72.0,24.0,4.378
59.0,25.0,4.379
28.0,16.0,4.38
-14.0,0.0,4.381
-44.0,-5.0,4.382
-52.0,-2.0,4.383
-42.0,0.0,4.384
-28.0,2.0,4.385
-18.0,3.0,4.386
-12.0,3.0,4.387
-10.0,-2.0,4.388
-5.0,-7.0,4.389
7.0,-9.0,4.39
15.0,-10.0,4.391
3.0,-14.0,4.392
-18.0,-17.0,4.393
-29.0,-13.0,4.394
-29.0,-6.0,4.395
-29.0,-2.0,4.396
-31.0,-5.0,4.397
-27.0,-6.0,4.398
-17.0,1.0,4.399
-17.0,7.0,4.4
-28.0,0.0,4.401
-20.0,-10.0,4.402
39.0,-14.0,4.403
130.0,-9.0,4.404
182.0,-3.0,4.405
143.0,1.0,4.406
43.0,6.0,4.407
-45.0,10.0,4.408
-70.0,13.0,4.409
-47.0,17.0,4.41
-31.0,23.0,4.411
-46.0,26.0,4.412
-71.0,22.0,4.413
-69.0,14.0,4.414
-38.0,13.0,4.415
-13.0,16.0,4.416
-16.0,25.0,4.417
-31.0,36.0,4.418
-20.0,49.0,4.419
18.0,37.0,4.42
39.0,-15.0,4.421
23.0,-76.0,4.422
1.0,-99.0,4.423
3.0,-79.0,4.424
14.0,-51.0,4.425
5.0,-37.0,4.426
-10.0,-29.0,4.427
-4.0,-17.0,4.428
19.0,-9.0,4.429
30.0,-6.0,4.43
23.0,3.0,4.431
16.0,30.0,4.432
9.0,53.0,4.433
-18.0,57.0,4.434
-67.0,43.0,4.435
-99.0,25.0,4.436
-83.0,13.0,4.437
-31.0,4.0,4.438
19.0,-3.0,4.439
58.0,-12.0,4.44
102.0,-23.0,4.441
143.0,-23.0,4.442
149.0,-10.0,4.443
119.0,5.0,4.444
87.0,14.0,4.445
72.0,17.0,4.446
53.0,13.0,4.447
18.0,4.0,4.448
-16.0,-3.0,4.449
-36.0,-4.0,4.45
-47.0,1.0,4.451
-60.0,1.0,4.452
-74.0,-4.0,4.453
-87.0,-10.0,4.454
-97.0,-10.0,4.455
-92.0,-9.0,4.456
-58.0,-8.0,4.457
-14.0,-9.0,4.458
8.0,-10.0,4.459
22.0,-13.0,4.46
5.0,-20.0,4.461
-4.0,-22.0,4.462
12.0,-22.0,4.463
25.0,-18.0,4.464
28.0,-7.0,4.465
28.0,7.0,4.466
16.0,22.0,4.467
8.0,34.0,4.468
20.0,41.0,4.469
23.0,39.0,4.47
1.0,22.0,4.471
-7.0,-3.0,4.472
25.0,-15.0,4.473
54.0,-8.0,4.474
76.0,5.0,4.475
79.0,12.0,4.476
21.0,12.0,4.477
-39.0,1.0,4.478
-110.0,-16.0,4.479
-151.0,-29.0,4.48
-124.0,-31.0,4.481
-44.0,-19.0,4.482
24.0,-7.0,4.483
39.0,4.0,4.484
30.0,12.0,4.485
43.0,17.0,4.486
73.0,22.0,4.487
81.0,34.0,4.488
41.0,43.0,4.489
-30.0,36.0,4.49
-84.0,11.0,4.491
-82.0,-5.0,4.492
-27.0,-4.0,4.493
35.0,2.0,4.494
59.0,2.0,4.495
50.0,0.0,4.496
45.0,-13.0,4.497
62.0,-59.0,4.498
65.0,-101.0,4.499
18.0,-87.0,4.5
-52.0,-30.0,4.501
-87.0,6.0,4.502
-69.0,-4.0,4.503
-38.0,-10.0,4.504
-25.0,17.0,4.505
-6.0,40.0,4.506
40.0,26.0,4.507
77.0,2.0,4.508
61.0,0.0,4.509
14.0,4.0,4.51
-9.0,-5.0,4.511
-11.0,-14.0,4.512
-32.0,-9.0,4.513
-79.0,-1.0,4.514
-105.0,-2.0,4.515
-96.0,-6.0,4.516
-87.0,-4.0,4.517
-96.0,-6.0,4.518
-83.0,-11.0,4.519
-13.0,-8.0,4.52
78.0,5.0,4.521
116.0,22.0,4.522
81.0,33.0,4.523
24.0,44.0,4.524
-4.0,53.0,4.525
4.0,48.0,4.526
23.0,26.0,4.527
40.0,2.0,4.528
62.0,-13.0,4.529
82.0,-22.0,4.53
89.0,-27.0,4.531
86.0,-26.0,4.532
84.0,-22.0,4.533
78.0,-19.0,4.534
54.0,-18.0,4.535
26.0,-7.0,4.536
24.0,11.0,4.537
28.0,26.0,4.538
-5.0,26.0,4.539
-78.0,19.0,4.54
-126.0,15.0,4.541
-115.0,17.0,4.542
-89.0,6.0,4.543
-89.0,-17.0,4.544
-81.0,-40.0,4.545
-3.0,-45.0,4.546
132.0,-32.0,4.547
222.0,-13.0,4.548
194.0,3.0,4.549
90.0,9.0,4.55
21.0,8.0,4.551
26.0,8.0,4.552
26.0,17.0,4.553
-41.0,29.0,4.554
-122.0,27.0,4.555
-128.0,11.0,4.556
-80.0,-2.0,4.557
-62.0,-6.0,4.558
-81.0,-8.0,4.559
-77.0,-20.0,4.56
-28.0,-34.0,4.561
11.0,-35.0,4.562
6.0,-24.0,4.563
-4.0,-12.0,4.564
5.0,-2.0,4.565
18.0,7.0,4.566
27.0,9.0,4.567
49.0,4.0,4.568
69.0,-1.0,4.569
62.0,1.0,4.57
45.0,17.0,4.571
59.0,47.0,4.572
96.0,79.0,4.573
102.0,82.0,4.574
58.0,40.0,4.575
-9.0,-17.0,4.576
-68.0,-43.0,4.577
-119.0,-37.0,4.578
-160.0,-28.0,4.579
-188.0,-35.0,4.58
-190.0,-40.0,4.581
-148.0,-23.0,4.582
-55.0,-7.0,4.583
55.0,-12.0,4.584
131.0,-25.0,4.585
161.0,-15.0,4.586
176.0,17.0,4.587
181.0,37.0,4.588
141.0,21.0,4.589
60.0,-19.0,4.59
1.0,-41.0,4.591
-4.0,-23.0,4.592
8.0,12.0,4.593
-4.0,26.0,4.594
-21.0,6.0,4.595
-18.0,-12.0,4.596
-11.0,-5.0,4.597
-37.0,12.0,4.598
-83.0,12.0,4.599
-117.0,-2.0,4.6
-126.0,-11.0,4.601
-119.0,-6.0,4.602
-97.0,-5.0,4.603
-64.0,-13.0,4.604
-34.0,-14.0,4.605
-6.0,1.0,4.606
34.0,19.0,4.607
65.0,25.0,4.608
51.0,21.0,4.609
4.0,11.0,4.61
-21.0,1.0,4.611
4.0,-6.0,4.612
42.0,-7.0,4.613
47.0,-5.0,4.614
27.0,-5.0,4.615
17.0,-5.0,4.616
33.0,-4.0,4.617
67.0,-4.0,4.618
93.0,-4.0,4.619
85.0,0.0,4.62
45.0,7.0,4.621
14.0,11.0,4.622
23.0,10.0,4.623
39.0,7.0,4.624
13.0,9.0,4.625
-46.0,11.0,4.626
-76.0,6.0,4.627
-59.0,-3.0,4.628
-44.0,-8.0,4.629
-60.0,-9.0,4.63
-74.0,-8.0,4.631
-47.0,-9.0,4.632
5.0,-2.0,4.633
48.0,12.0,4.634
80.0,23.0,4.635
100.0,18.0,4.636
94.0,8.0,4.637
45.0,-4.0,4.638
-7.0,-14.0,4.639
-20.0,-22.0,4.64
-9.0,-21.0,4.641
-39.0,-3.0,4.642
-99.0,12.0,4.643
-102.0,8.0,4.644
-23.0,-8.0,4.645
48.0,-15.0,4.646
29.0,-11.0,4.647
-22.0,-10.0,4.648
-14.0,-12.0,4.649
50.0,-1.0,4.65
81.0,18.0,4.651
56.0,25.0,4.652
26.0,8.0,4.653
18.0,-8.0,4.654
9.0,-10.0,4.655
-15.0,-9.0,4.656
-48.0,-10.0,4.657
-91.0,-12.0,4.658
-132.0,-1.0,4.659
-128.0,18.0,4.66
-48.0,27.0,4.661
58.0,18.0,4.662
123.0,-4.0,4.663
147.0,-17.0,4.664
165.0,-6.0,4.665
163.0,19.0,4.666
98.0,31.0,4.667
-5.0,22.0,4.668
-62.0,11.0,4.669
-40.0,10.0,4.67
2.0,13.0,4.671
-2.0,8.0,4.672
-40.0,-2.0,4.673
-58.0,-13.0,4.674
-25.0,-16.0,4.675
24.0,-8.0,4.676
26.0,1.0,4.677
-44.0,-7.0,4.678
-123.0,-33.0,4.679
-121.0,-49.0,4.68
-35.0,-34.0,4.681
45.0,0.0,4.682
65.0,15.0,4.683
73.0,8.0,4.684
112.0,0.0,4.685
139.0,8.0,4.686
81.0,18.0,4.687
-40.0,9.0,4.688
-120.0,-9.0,4.689
-99.0,-21.0,4.69
-21.0,-17.0,4.691
39.0,-8.0,4.692
67.0,-3.0,4.693
87.0,0.0,4.694
92.0,6.0,4.695
47.0,9.0,4.696
-29.0,6.0,4.697
-78.0,0.0,4.698
-70.0,3.0,4.699
-61.0,4.0,4.7
-51.0,-5.0,4.701
-38.0,-12.0,4.702
-16.0,-11.0,4.703
-1.0,-9.0,4.704
-7.0,-6.0,4.705
-18.0,-2.0,4.706
-45.0,3.0,4.707
-78.0,7.0,4.708
-126.0,0.0,4.709
-150.0,-8.0,4.71
-103.0,-21.0,4.711
-54.0,-32.0,4.712
2.0,-38.0,4.713
65.0,-34.0,4.714
148.0,0.0,4.715
203.0,28.0,4.716
171.0,40.0,4.717
98.0,47.0,4.718
-101.0,32.0,4.719
-206.0,17.0,4.72
-145.0,9.0,4.721
-18.0,7.0,4.722
48.0,5.0,4.723
70.0,2.0,4.724
141.0,3.0,4.725
237.0,11.0,4.726
214.0,20.0,4.727
36.0,22.0,4.728
-134.0,11.0,4.729
-148.0,-5.0,4.73
-58.0,-18.0,4.731
-8.0,-26.0,4.732
-18.0,-31.0,4.733
6.0,-35.0,4.734
94.0,-19.0,4.735
158.0,12.0,4.736
130.0,39.0,4.737
46.0,35.0,4.738
-4.0,7.0,4.739
4.0,-15.0,4.74
24.0,-19.0,4.741
24.0,-12.0,4.742
14.0,-9.0,4.743
8.0,-2.0,4.744
-2.0,15.0,4.745
-29.0,29.0,4.746
-59.0,18.0,4.747
-72.0,-4.0,4.748
-81.0,-14.0,4.749
-111.0,-10.0,4.75
-154.0,-10.0,4.751
-166.0,-18.0,4.752
-127.0,-21.0,4.753
-56.0,-16.0,4.754
15.0,-11.0,4.755
82.0,-7.0,4.756
139.0,0.0,4.757
166.0,8.0,4.758
130.0,11.0,4.759
43.0,11.0,4.76
-25.0,7.0,4.761
-27.0,2.0,4.762
15.0,-1.0,4.763
39.0,-1.0,4.764
21.0,1.0,4.765
-11.0,0.0,4.766
-26.0,-8.0,4.767
-25.0,-14.0,4.768
-26.0,-12.0,4.769
-32.0,-4.0,4.77
-30.0,6.0,4.771
-19.0,13.0,4.772
-9.0,15.0,4.773
-15.0,12.0,4.774
-23.0,2.0,4.775
-18.0,-10.0,4.776
-8.0,-14.0,4.777
-30.0,-12.0,4.778
-98.0,-8.0,4.779
-160.0,-11.0,4.78
-133.0,-18.0,4.781
-2.0,-19.0,4.782
159.0,-12.0,4.783
252.0,0.0,4.784
243.0,16.0,4.785
173.0,30.0,4.786
85.0,27.0,4.787
-3.0,4.0,4.788
-78.0,-16.0,4.789
-93.0,-19.0,4.79
-18.0,-10.0,4.791
96.0,-6.0,4.792
143.0,-8.0,4.793
94.0,3.0,4.794
36.0,31.0,4.795
33.0,53.0,4.796
34.0,53.0,4.797
-27.0,26.0,4.798
-104.0,-2.0,4.799
-108.0,-15.0,4.8
-48.0,-18.0,4.801
-18.0,-21.0,4.802
-37.0,-28.0,4.803
-56.0,-29.0,4.804
-70.0,-22.0,4.805
-108.0,-20.0,4.806
-141.0,-21.0,4.807
-102.0,-11.0,4.808
-7.0,13.0,4.809
59.0,32.0,4.81
54.0,27.0,4.811
7.0,8.0,4.812
-76.0,-4.0,4.813
-211.0,-11.0,4.814
-330.0,-25.0,4.815
-306.0,-47.0,4.816
-130.0,-60.0,4.817
105.0,-56.0,4.818
284.0,-29.0,4.819
412.0,14.0,4.82
533.0,58.0,4.821
582.0,90.0,4.822
457.0,100.0,4.823
188.0,89.0,4.824
-59.0,60.0,4.825
-155.0,19.0,4.826
-127.0,-15.0,4.827
-83.0,-24.0,4.828
-85.0,-12.0,4.829
-101.0,-2.0,4.83
-96.0,-4.0,4.831
-82.0,-9.0,4.832
-99.0,-15.0,4.833
-131.0,-23.0,4.834
-127.0,-35.0,4.835
-84.0,-41.0,4.836
-52.0,-38.0,4.837
-56.0,-40.0,4.838
-52.0,-46.0,4.839
-20.0,-46.0,4.84
4.0,-27.0,4.841
-2.0,12.0,4.842
-1.0,52.0,4.843
32.0,63.0,4.844
52.0,38.0,4.845
32.0,7.0,4.846
9.0,6.0,4.847
1.0,25.0,4.848
-29.0,25.0,4.849
-92.0,-4.0,4.85
-137.0,-31.0,4.851
-147.0,-29.0,4.852
-154.0,-16.0,4.853
-132.0,-16.0,4.854
-13.0,-26.0,4.855
162.0,-29.0,4.856
259.0,-25.0,4.857
250.0,-13.0,4.858
217.0,18.0,4.859
186.0,42.0,4.86
86.0,44.0,4.861
-54.0,41.0,4.862
-84.0,19.0,4.863
9.0,0.0,4.864
60.0,-15.0,4.865
9.0,-24.0,4.866
-2.0,-13.0,4.867
89.0,-2.0,4.868
142.0,7.0,4.869
68.0,13.0,4.87
-21.0,6.0,4.871
-22.0,0.0,4.872
-17.0,-7.0,4.873
-76.0,-13.0,4.874
-121.0,-11.0,4.875
-87.0,-10.0,4.876
-45.0,-12.0,4.877
-56.0,-16.0,4.878
-73.0,-13.0,4.879
-52.0,0.0,4.88
-40.0,1.0,4.881
-89.0,-14.0,4.882
-157.0,-24.0,4.883
-188.0,-19.0,4.884
-185.0,-21.0,4.885
-154.0,-40.0,4.886
-74.0,-55.0,4.887
39.0,-43.0,4.888
145.0,-7.0,4.889
231.0,40.0,4.89
306.0,78.0,4.891
328.0,78.0,4.892
253.0,37.0,4.893
125.0,-4.0,4.894
33.0,2.0,4.895
6.0,45.0,4.896
-3.0,68.0,4.897
-31.0,40.0,4.898
-52.0,-6.0,4.899
-68.0,-27.0,4.9
-64.0,-26.0,4.901
-70.0,-17.0,4.902
-113.0,-10.0,4.903
-141.0,-7.0,4.904
-122.0,-21.0,4.905
-100.0,-48.0,4.906
-74.0,-59.0,4.907
-50.0,-41.0,4.908
-30.0,-7.0,4.909
12.0,20.0,4.91
117.0,38.0,4.911
210.0,44.0,4.912
267.0,38.0,4.913
302.0,30.0,4.914
268.0,30.0,4.915
197.0,28.0,4.916
19.0,13.0,4.917
-127.0,-10.0,4.918
-133.0,-23.0,4.919
-113.0,-24.0,4.92
-129.0,-30.0,4.921
-128.0,-34.0,4.922
-72.0,-21.0,4.923
-11.0,2.0,4.924
6.0,10.0,4.925
6.0,-2.0,4.926
15.0,-16.0,4.927
13.0,-17.0,4.928
-13.0,-12.0,4.929
-34.0,-12.0,4.93
-34.0,-14.0,4.931
-30.0,-12.0,4.932
-41.0,-4.0,4.933
-53.0,5.0,4.934
-61.0,9.0,4.935
-79.0,10.0,4.936
-104.0,8.0,4.937
-121.0,2.0,4.938
-109.0,-8.0,4.939
-81.0,-21.0,4.94
-64.0,-31.0,4.941
-89.0,-33.0,4.942
-143.0,-26.0,4.943
-159.0,-13.0,4.944
-79.0,1.0,4.945
68.0,11.0,4.946
203.0,11.0,4.947
291.0,12.0,4.948
337.0,28.0,4.949
307.0,45.0,4.95
178.0,45.0,4.951
46.0,35.0,4.952
28.0,39.0,4.953
78.0,53.0,4.954
62.0,40.0,4.955
-17.0,1.0,4.956
-31.0,-22.0,4.957
43.0,-15.0,4.958
87.0,-2.0,4.959
36.0,-7.0,4.96
-15.0,-21.0,4.961
3.0,-16.0,4.962
18.0,-8.0,4.963
-36.0,-13.0,4.964
-95.0,-29.0,4.965
-81.0,-35.0,4.966
-39.0,-29.0,4.967
-47.0,-17.0,4.968
-76.0,-3.0,4.969
-63.0,15.0,4.97
-27.0,22.0,4.971
-29.0,9.0,4.972
-51.0,-8.0,4.973
-29.0,-13.0,4.974
13.0,-11.0,4.975
-17.0,-15.0,4.976
-127.0,-22.0,4.977
-245.0,-25.0,4.978
-279.0,-21.0,4.979
-215.0,-20.0,4.98
-88.0,-36.0,4.981
73.0,-46.0,4.982
232.0,-22.0,4.983
354.0,42.0,4.984
397.0,104.0,4.985
325.0,110.0,4.986
158.0,58.0,4.987
9.0,4.0,4.988
-13.0,-14.0,4.989
50.0,-11.0,4.99
62.0,-16.0,4.991
-12.0,-29.0,4.992
-92.0,-38.0,4.993
-138.0,-47.0,4.994
-180.0,-61.0,4.995
-190.0,-60.0,4.996
-107.0,-24.0,4.997
50.0,37.0,4.998
149.0,76.0,4.999
128.0,71.0,5.0
53.0,43.0,5.001
0.0,34.0,5.002
-27.0,44.0,5.003
-33.0,39.0,5.004
-16.0,9.0,5.005
2.0,-17.0,5.006
4.0,-19.0,5.007
0.0,-8.0,5.008
4.0,-8.0,5.009
-3.0,-18.0,5.01
-28.0,-22.0,5.011
-43.0,-19.0,5.012
-40.0,-19.0,5.013
-55.0,-27.0,5.014
-83.0,-28.0,5.015
-75.0,-14.0,5.016
-25.0,5.0,5.017
18.0,10.0,5.018
23.0,0.0,5.019
9.0,-13.0,5.02
-3.0,-19.0,5.021
-19.0,-13.0,5.022
-29.0,-8.0,5.023
-12.0,-9.0,5.024
17.0,-8.0,5.025
23.0,2.0,5.026
8.0,11.0,5.027
0.0,5.0,5.028
-3.0,-10.0,5.029
-18.0,-19.0,5.03
-30.0,-14.0,5.031
-17.0,-4.0,5.032
3.0,5.0,5.033
5.0,9.0,5.034
4.0,7.0,5.035
29.0,7.0,5.036
66.0,11.0,5.037
87.0,15.0,5.038
96.0,20.0,5.039
93.0,26.0,5.04
63.0,26.0,5.041
6.0,16.0,5.042
-44.0,-3.0,5.043
-80.0,-18.0,5.044
-132.0,-25.0,5.045
-196.0,-31.0,5.046
-212.0,-43.0,5.047
-149.0,-54.0,5.048
-38.0,-45.0,5.049
94.0,-9.0,5.05
227.0,39.0,5.051
285.0,68.0,5.052
194.0,52.0,5.053
38.0,12.0,5.054
-2.0,-10.0,5.055
87.0,8.0,5.056
142.0,33.0,5.057
97.0,31.0,5.058
74.0,19.0,5.059
144.0,34.0,5.06
173.0,61.0,5.061
63.0,54.0,5.062
-60.0,8.0,5.063
-61.0,-30.0,5.064
-15.0,-30.0,5.065
-42.0,-12.0,5.066
-101.0,-12.0,5.067
-103.0,-22.0,5.068
-91.0,-26.0,5.069
-142.0,-29.0,5.07
-216.0,-38.0,5.071
-233.0,-44.0,5.072
-208.0,-41.0,5.073
-185.0,-43.0,5.074
-140.0,-55.0,5.075
-28.0,-57.0,5.076
115.0,-36.0,5.077
242.0,2.0,5.078
310.0,42.0,5.079
301.0,64.0,5.08
225.0,62.0,5.081
128.0,43.0,5.082
42.0,21.0,5.083
-37.0,12.0,5.084
-103.0,6.0,5.085
-117.0,-9.0,5.086
-94.0,-23.0,5.087
-102.0,-17.0,5.088
-151.0,3.0,5.089
-160.0,9.0,5.09
-89.0,-13.0,5.091
7.0,-39.0,5.092
90.0,-44.0,5.093
172.0,-28.0,5.094
234.0,-7.0,5.095
207.0,14.0,5.096
104.0,34.0,5.097
3.0,46.0,5.098
-35.0,49.0,5.099
-42.0,43.0,5.1
-48.0,27.0,5.101
-44.0,15.0,5.102
-35.0,10.0,5.103
-59.0,6.0,5.104
-126.0,-9.0,5.105
-199.0,-34.0,5.106
-217.0,-56.0,5.107
-143.0,-66.0,5.108
-5.0,-69.0,5.109
103.0,-56.0,5.11
123.0,-10.0,5.111
108.0,59.0,5.112
130.0,99.0,5.113
140.0,80.0,5.114
58.0,29.0,5.115
-52.0,-3.0,5.116
-68.0,-5.0,5.117
-1.0,-8.0,5.118
31.0,-14.0,5.119
1.0,-11.0,5.12
-11.0,4.0,5.121
11.0,13.0,5.122
-8.0,3.0,5.123
-76.0,-9.0,5.124
-120.0,-9.0,5.125
-129.0,-6.0,5.126
-137.0,-15.0,5.127
-118.0,-28.0,5.128
-22.0,-31.0,5.129
103.0,-24.0,5.13
155.0,-12.0,5.131
124.0,0.0,5.132
91.0,14.0,5.133
102.0,29.0,5.134
128.0,36.0,5.135
133.0,31.0,5.136
112.0,16.0,5.137
60.0,3.0,5.138
-4.0,2.0,5.139
-46.0,6.0,5.14
-52.0,-6.0,5.141
-52.0,-25.0,5.142
-61.0,-29.0,5.143
-65.0,-16.0,5.144
-58.0,-3.0,5.145
-54.0,1.0,5.146
-43.0,3.0,5.147
-7.0,3.0,5.148
40.0,-4.0,5.149
65.0,-14.0,5.15
74.0,-11.0,5.151
87.0,5.0,5.152
87.0,14.0,5.153
55.0,6.0,5.154
14.0,-7.0,5.155
-4.0,-8.0,5.156
-16.0,0.0,5.157
-60.0,8.0,5.158
-116.0,12.0,5.159
-138.0,7.0,5.16
-116.0,-7.0,5.161
-65.0,-21.0,5.162
18.0,-18.0,5.163
118.0,0.0,5.164
157.0,21.0,5.165
73.0,23.0,5.166
-79.0,3.0,5.167
-168.0,-19.0,5.168
-118.0,-29.0,5.169
16.0,-28.0,5.17
135.0,-22.0,5.171
180.0,-9.0,5.172
151.0,13.0,5.173
85.0,28.0,5.174
23.0,17.0,5.175
-17.0,-11.0,5.176
-33.0,-25.0,5.177
-35.0,-22.0,5.178
-25.0,-11.0,5.179
-16.0,-5.0,5.18
-23.0,1.0,5.181
-33.0,13.0,5.182
-25.0,15.0,5.183
-20.0,-5.0,5.184
-64.0,-24.0,5.185
-145.0,-22.0,5.186
-185.0,-1.0,5.187
-148.0,20.0,5.188
-92.0,33.0,5.189
-64.0,37.0,5.19
-10.0,37.0,5.191
116.0,37.0,5.192
232.0,42.0,5.193
226.0,42.0,5.194
143.0,29.0,5.195
110.0,11.0,5.196
133.0,2.0,5.197
106.0,-3.0,5.198
-1.0,-10.0,5.199
-99.0,-13.0,5.2
-119.0,-9.0,5.201
-105.0,-2.0,5.202
-90.0,-12.0,5.203
-47.0,-30.0,5.204
29.0,-32.0,5.205
87.0,-17.0,5.206
101.0,-6.0,5.207
83.0,-11.0,5.208
25.0,-23.0,5.209
-69.0,-26.0,5.21
-127.0,-28.0,5.211
-96.0,-31.0,5.212
-40.0,-23.0,5.213
-45.0,-3.0,5.214
-81.0,13.0,5.215
-59.0,11.0,5.216
20.0,1.0,5.217
116.0,1.0,5.218
187.0,18.0,5.219
199.0,31.0,5.22
126.0,24.0,5.221
16.0,12.0,5.222
-30.0,8.0,5.223
2.0,9.0,5.224
23.0,6.0,5.225
-13.0,-3.0,5.226
-42.0,-10.0,5.227
-26.0,-11.0,5.228
-25.0,-11.0,5.229
-69.0,-10.0,5.23
-93.0,-8.0,5.231
-59.0,-7.0,5.232
-15.0,-8.0,5.233
0.0,-17.0,5.234
10.0,-32.0,5.235
27.0,-45.0,5.236
24.0,-38.0,5.237
-13.0,-11.0,5.238
-56.0,25.0,5.239
-92.0,48.0,5.24
-117.0,34.0,5.241
-98.0,20.0,5.242
-15.0,6.0,5.243
65.0,-3.0,5.244
66.0,0.0,5.245
26.0,4.0,5.246
37.0,9.0,5.247
101.0,14.0,5.248
134.0,13.0,5.249
103.0,9.0,5.25
51.0,-2.0,5.251
16.0,-10.0,5.252
-4.0,-7.0,5.253
-12.0,-4.0,5.254
1.0,-6.0,5.255
13.0,-8.0,5.256
-5.0,-7.0,5.257
-40.0,-5.0,5.258
-50.0,-1.0,5.259
-27.0,-4.0,5.26
-11.0,-13.0,5.261
-23.0,-19.0,5.262
-35.0,-14.0,5.263
-25.0,-2.0,5.264
-6.0,4.0,5.265
7.0,3.0,5.266
16.0,-2.0,5.267
20.0,-5.0,5.268
2.0,-7.0,5.269
-43.0,-11.0,5.27
-83.0,-20.0,5.271
-84.0,-27.0,5.272
-48.0,-33.0,5.273
3.0,-39.0,5.274
58.0,-35.0,5.275
104.0,-16.0,5.276
127.0,12.0,5.277
131.0,52.0,5.278
122.0,84.0,5.279
82.0,97.0,5.28
-10.0,74.0,5.281
-106.0,34.0,5.282
-119.0,10.0,5.283
-45.0,10.0,5.284
12.0,11.0,5.285
-1.0,-2.0,5.286
-23.0,-10.0,5.287
0.0,-6.0,5.288
22.0,-3.0,5.289
0.0,-14.0,5.29
-26.0,-23.0,5.291
-11.0,-18.0,5.292
9.0,-8.0,5.293
-3.0,-11.0,5.294
-18.0,-18.0,5.295
-2.0,-15.0,5.296
19.0,-9.0,5.297
11.0,-9.0,5.298
-1.0,-14.0,5.299
4.0,-12.0,5.3
14.0,-9.0,5.301
9.0,-8.0,5.302
7.0,-4.0,5.303
15.0,6.0,5.304
15.0,10.0,5.305
4.0,0.0,5.306
10.0,-13.0,5.307
32.0,-11.0,5.308
35.0,2.0,5.309
6.0,7.0,5.31
-21.0,-4.0,5.311
-33.0,-14.0,5.312
-39.0,-10.0,5.313
-39.0,-2.0,5.314
-19.0,4.0,5.315
7.0,4.0,5.316
16.0,3.0,5.317
9.0,-2.0,5.318
16.0,-6.0,5.319
30.0,-9.0,5.32
24.0,-5.0,5.321
-1.0,-1.0,5.322
-17.0,0.0,5.323
-18.0,3.0,5.324
-21.0,4.0,5.325
-18.0,6.0,5.326
12.0,9.0,5.327
56.0,14.0,5.328
66.0,23.0,5.329
27.0,26.0,5.33
-12.0,12.0,5.331
0.0,-2.0,5.332
42.0,-15.0,5.333
51.0,-25.0,5.334
-2.0,-25.0,5.335
-70.0,-21.0,5.336
-93.0,-2.0,5.337
-71.0,18.0,5.338
-33.0,35.0,5.339
5.0,35.0,5.34
38.0,20.0,5.341
47.0,1.0,5.342
20.0,-10.0,5.343
-9.0,-9.0,5.344
-7.0,0.0,5.345
9.0,7.0,5.346
8.0,1.0,5.347
5.0,-5.0,5.348
20.0,-5.0,5.349
29.0,-2.0,5.35
14.0,-6.0,5.351
-3.0,-12.0,5.352
7.0,-9.0,5.353
22.0,-1.0,5.354
19.0,1.0,5.355
9.0,-4.0,5.356
11.0,-4.0,5.357
10.0,-3.0,5.358
-6.0,-4.0,5.359
-26.0,-6.0,5.36
-31.0,-7.0,5.361
-24.0,0.0,5.362
-15.0,4.0,5.363
-3.0,0.0,5.364
10.0,-3.0,5.365
15.0,0.0,5.366
11.0,2.0,5.367
10.0,0.0,5.368
10.0,-3.0,5.369
2.0,0.0,5.37
-7.0,1.0,5.371
-3.0,-1.0,5.372
10.0,-3.0,5.373
16.0,-5.0,5.374
15.0,-6.0,5.375
21.0,-5.0,5.376
33.0,-2.0,5.377
31.0,1.0,5.378
13.0,3.0,5.379
-1.0,4.0,5.38
0.0,0.0,5.381
12.0,-6.0,5.382
27.0,-13.0,5.383
48.0,-13.0,5.384
63.0,-8.0,5.385
48.0,-1.0,5.386
-1.0,2.0,5.387
-63.0,7.0,5.388
-107.0,18.0,5.389
-109.0,27.0,5.39
-75.0,27.0,5.391
-39.0,20.0,5.392
-28.0,13.0,5.393
-33.0,7.0,5.394
-17.0,-1.0,5.395
19.0,-6.0,5.396
38.0,-5.0,5.397
27.0,-5.0,5.398
18.0,-7.0,5.399
11.0,-8.0,5.4
11.0,-8.0,5.401
11.0,-7.0,5.402
8.0,-7.0,5.403
7.0,-6.0,5.404
15.0,0.0,5.405
20.0,3.0,5.406
18.0,1.0,5.407
17.0,-5.0,5.408
15.0,-9.0,5.409
14.0,-11.0,5.41
16.0,-11.0,5.411
17.0,-7.0,5.412
14.0,-1.0,5.413
7.0,-4.0,5.414
-14.0,-12.0,5.415
-26.0,-11.0,5.416
-7.0,4.0,5.417
22.0,17.0,5.418
83.0,13.0,5.419
118.0,-5.0,5.42
92.0,-20.0,5.421
28.0,-13.0,5.422
-8.0,4.0,5.423
7.0,10.0,5.424
27.0,3.0,5.425
-1.0,-5.0,5.426
-57.0,-6.0,5.427
-81.0,-7.0,5.428
-60.0,-7.0,5.429
-38.0,-1.0,5.43
-40.0,11.0,5.431
-43.0,22.0,5.432
-29.0,21.0,5.433
-9.0,13.0,5.434
5.0,5.0,5.435
18.0,0.0,5.436
31.0,0.0,5.437
25.0,0.0,5.438
3.0,0.0,5.439
-18.0,-1.0,5.44
-21.0,-6.0,5.441
-14.0,-3.0,5.442
-3.0,0.0,5.443
12.0,-1.0,5.444
18.0,-2.0,5.445
9.0,1.0,5.446
-6.0,2.0,5.447
-5.0,-3.0,5.448
4.0,-8.0,5.449
9.0,-5.0,5.45
9.0,-1.0,5.451
18.0,-5.0,5.452
27.0,-8.0,5.453
25.0,-7.0,5.454
20.0,-5.0,5.455
21.0,-7.0,5.456
23.0,-12.0,5.457
15.0,-10.0,5.458
3.0,-2.0,5.459
-1.0,4.0,5.46
-1.0,4.0,5.461
-4.0,3.0,5.462
-8.0,2.0,5.463
-11.0,2.0,5.464
-19.0,5.0,5.465
-30.0,8.0,5.466
-32.0,6.0,5.467
-14.0,2.0,5.468
8.0,2.0,5.469
15.0,3.0,5.47
9.0,0.0,5.471
4.0,-5.0,5.472
6.0,-6.0,5.473
2.0,0.0,5.474
-4.0,3.0,5.475
-6.0,2.0,5.476
-2.0,1.0,5.477
7.0,-1.0,5.478
17.0,-3.0,5.479
22.0,-6.0,5.48
20.0,-7.0,5.481
16.0,-4.0,5.482
13.0,0.0,5.483
10.0,3.0,5.484
1.0,4.0,5.485
-10.0,1.0,5.486
-12.0,-3.0,5.487
-4.0,-8.0,5.488
5.0,-7.0,5.489
10.0,-1.0,5.49
16.0,0.0,5.491
25.0,-3.0,5.492
31.0,-6.0,5.493
22.0,-6.0,5.494
4.0,-3.0,5.495
-11.0,-1.0,5.496
-18.0,1.0,5.497
-21.0,2.0,5.498
-26.0,5.0,5.499
-32.0,4.0,5.5
-34.0,-3.0,5.501
-28.0,-5.0,5.502
-13.0,-3.0,5.503
2.0,3.0,5.504
13.0,9.0,5.505
19.0,11.0,5.506
25.0,9.0,5.507
31.0,2.0,5.508
35.0,-3.0,5.509
35.0,-2.0,5.51
30.0,0.0,5.511
17.0,0.0,5.512
0.0,-2.0,5.513
-10.0,-5.0,5.514
-10.0,-4.0,5.515
-7.0,1.0,5.516
-3.0,6.0,5.517
-3.0,1.0,5.518
-17.0,-8.0,5.519
-50.0,-11.0,5.52
-78.0,-11.0,5.521
-65.0,-6.0,5.522
-4.0,-5.0,5.523
68.0,-6.0,5.524
94.0,-1.0,5.525
64.0,7.0,5.526
18.0,9.0,5.527
-1.0,4.0,5.528
11.0,-4.0,5.529
23.0,-6.0,5.53
15.0,-6.0,5.531
4.0,-4.0,5.532
11.0,-2.0,5.533
25.0,0.0,5.534
24.0,6.0,5.535
5.0,8.0,5.536
-9.0,8.0,5.537
-11.0,3.0,5.538
-8.0,0.0,5.539
-14.0,1.0,5.54
-19.0,-1.0,5.541
-14.0,-5.0,5.542
-3.0,-7.0,5.543
11.0,-5.0,5.544
21.0,0.0,5.545
24.0,0.0,5.546
19.0,-1.0,5.547
14.0,-2.0,5.548
14.0,-4.0,5.549
12.0,-10.0,5.55
-5.0,-10.0,5.551
-24.0,-1.0,5.552
-28.0,11.0,5.553
-15.0,10.0,5.554
-3.0,0.0,5.555
-9.0,-4.0,5.556
-34.0,2.0,5.557
-70.0,5.0,5.558
-89.0,6.0,5.559
-73.0,10.0,5.56
-36.0,10.0,5.561
-15.0,3.0,5.562
-18.0,-6.0,5.563
-16.0,-6.0,5.564
10.0,0.0,5.565
46.0,1.0,5.566
70.0,-5.0,5.567
92.0,-7.0,5.568
118.0,0.0,5.569
123.0,4.0,5.57
80.0,3.0,5.571
12.0,-1.0,5.572
-34.0,1.0,5.573
-50.0,4.0,5.574
-52.0,5.0,5.575
-35.0,3.0,5.576
4.0,1.0,5.577
30.0,-3.0,5.578
10.0,-3.0,5.579
-7.0,-3.0,5.58
-17.0,-7.0,5.581
-25.0,-9.0,5.582
-25.0,-7.0,5.583
-26.0,-4.0,5.584
-30.0,-2.0,5.585
-21.0,-1.0,5.586
28.0,-5.0,5.587
61.0,-6.0,5.588
40.0,0.0,5.589
16.0,5.0,5.59
-17.0,2.0,5.591
-40.0,-1.0,5.592
-30.0,-2.0,5.593
-14.0,-2.0,5.594
22.0,0.0,5.595
41.0,3.0,5.596
11.0,3.0,5.597
-22.0,0.0,5.598
-54.0,-8.0,5.599
-41.0,-18.0,5.6
30.0,-26.0,5.601
103.0,-25.0,5.602
97.0,-18.0,5.603
18.0,-13.0,5.604
-37.0,-2.0,5.605
-15.0,14.0,5.606
35.0,26.0,5.607
54.0,24.0,5.608
38.0,22.0,5.609
15.0,27.0,5.61
-13.0,32.0,5.611
-37.0,26.0,5.612
-37.0,11.0,5.613
-13.0,2.0,5.614
3.0,-2.0,5.615
6.0,-5.0,5.616
15.0,-7.0,5.617
26.0,-6.0,5.618
16.0,-4.0,5.619
-19.0,-6.0,5.62
-42.0,-9.0,5.621
-41.0,-6.0,5.622
-32.0,1.0,5.623
-30.0,4.0,5.624
-22.0,2.0,5.625
-4.0,-3.0,5.626
8.0,-7.0,5.627
12.0,-10.0,5.628
19.0,-14.0,5.629
34.0,-19.0,5.63
41.0,-22.0,5.631
31.0,-17.0,5.632
16.0,-7.0,5.633
11.0,2.0,5.634
18.0,3.0,5.635
33.0,-3.0,5.636
42.0,-5.0,5.637
29.0,-3.0,5.638
-2.0,2.0,5.639
-32.0,4.0,5.64
-45.0,-2.0,5.641
-43.0,-5.0,5.642
-29.0,-4.0,5.643
-6.0,-2.0,5.644
16.0,-3.0,5.645
19.0,-6.0,5.646
11.0,-6.0,5.647
20.0,-7.0,5.648
55.0,-12.0,5.649
91.0,-19.0,5.65
95.0,-22.0,5.651
51.0,-17.0,5.652
-34.0,-6.0,5.653
-131.0,11.0,5.654
-190.0,29.0,5.655
-182.0,37.0,5.656
-121.0,33.0,5.657
-45.0,17.0,5.658
24.0,6.0,5.659
66.0,4.0,5.66
70.0,3.0,5.661
38.0,7.0,5.662
11.0,13.0,5.663
17.0,14.0,5.664
42.0,9.0,5.665
46.0,3.0,5.666
25.0,0.0,5.667
9.0,-1.0,5.668
11.0,-7.0,5.669
11.0,-14.0,5.67
-14.0,-14.0,5.671
-57.0,-10.0,5.672
-87.0,-6.0,5.673
-84.0,0.0,5.674
-49.0,3.0,5.675
6.0,2.0,5.676
73.0,-4.0,5.677
143.0,-9.0,5.678
184.0,-13.0,5.679
170.0,-22.0,5.68
116.0,-44.0,5.681
52.0,-61.0,5.682
2.0,-59.0,5.683
-29.0,-36.0,5.684
-43.0,-7.0,5.685
-37.0,12.0,5.686
-18.0,18.0,5.687
-7.0,13.0,5.688
-12.0,6.0,5.689
-18.0,5.0,5.69
-20.0,11.0,5.691
-24.0,19.0,5.692
-29.0,21.0,5.693
-32.0,23.0,5.694
-49.0,25.0,5.695
-86.0,28.0,5.696
-116.0,28.0,5.697
-98.0,17.0,5.698
-34.0,3.0,5.699
20.0,-9.0,5.7
33.0,-16.0,5.701
42.0,-16.0,5.702
63.0,-14.0,5.703
34.0,-10.0,5.704
-98.0,-1.0,5.705
-264.0,13.0,5.706
-335.0,19.0,5.707
-261.0,9.0,5.708
-102.0,-6.0,5.709
73.0,-14.0,5.71
255.0,-13.0,5.711
425.0,-1.0,5.712
509.0,25.0,5.713
445.0,52.0,5.714
286.0,59.0,5.715
153.0,46.0,5.716
99.0,33.0,5.717
59.0,29.0,5.718
-15.0,27.0,5.719
-84.0,12.0,5.72
-86.0,-7.0,5.721
-50.0,-11.0,5.722
-40.0,-3.0,5.723
-56.0,4.0,5.724
-57.0,5.0,5.725
-46.0,-6.0,5.726
-63.0,-26.0,5.727
-106.0,-45.0,5.728
-143.0,-51.0,5.729
-168.0,-40.0,5.73
-201.0,-28.0,5.731
-234.0,-26.0,5.732
-234.0,-26.0,5.733
-186.0,-25.0,5.734
-101.0,-21.0,5.735
-1.0,-13.0,5.736
96.0,3.0,5.737
179.0,29.0,5.738
237.0,49.0,5.739
255.0,48.0,5.74
213.0,27.0,5.741
118.0,5.0,5.742
32.0,-16.0,5.743
8.0,-38.0,5.744
25.0,-53.0,5.745
22.0,-52.0,5.746
-18.0,-37.0,5.747
-51.0,-15.0,5.748
-53.0,7.0,5.749
-40.0,25.0,5.75
-22.0,30.0,5.751
3.0,25.0,5.752
21.0,19.0,5.753
9.0,22.0,5.754
-22.0,31.0,5.755
-31.0,33.0,5.756
-11.0,19.0,5.757
13.0,-16.0,5.758
20.0,-57.0,5.759
7.0,-80.0,5.76
-15.0,-71.0,5.761
-49.0,-35.0,5.762
-91.0,-2.0,5.763
-124.0,6.0,5.764
-124.0,-7.0,5.765
-82.0,-20.0,5.766
-11.0,-20.0,5.767
59.0,0.0,5.768
92.0,27.0,5.769
63.0,49.0,5.77
-24.0,56.0,5.771
-118.0,48.0,5.772
-135.0,33.0,5.773
-32.0,18.0,5.774
121.0,6.0,5.775
193.0,-4.0,5.776
143.0,-10.0,5.777
42.0,-7.0,5.778
-8.0,16.0,5.779
-13.0,55.0,5.78
-23.0,72.0,5.781
-20.0,46.0,5.782
39.0,-13.0,5.783
126.0,-57.0,5.784
155.0,-59.0,5.785
112.0,-40.0,5.786
64.0,-31.0,5.787
55.0,-33.0,5.788
60.0,-30.0,5.789
39.0,-15.0,5.79
-21.0,-6.0,5.791
-93.0,-4.0,5.792
-132.0,-3.0,5.793
-111.0,0.0,5.794
-65.0,-5.0,5.795
-47.0,-10.0,5.796
-49.0,0.0,5.797
-24.0,22.0,5.798
39.0,44.0,5.799
73.0,49.0,5.8
38.0,42.0,5.801
-15.0,37.0,5.802
-25.0,33.0,5.803
-5.0,24.0,5.804
-7.0,3.0,5.805
-33.0,-24.0,5.806
-39.0,-48.0,5.807
-3.0,-47.0,5.808
42.0,-21.0,5.809
59.0,7.0,5.81
37.0,12.0,5.811
-17.0,4.0,5.812
-93.0,0.0,5.813
-146.0,-4.0,5.814
-118.0,-26.0,5.815
-22.0,-56.0,5.816
55.0,-62.0,5.817
42.0,-34.0,5.818
-38.0,3.0,5.819
-105.0,23.0,5.82
-113.0,21.0,5.821
-81.0,9.0,5.822
-18.0,-10.0,5.823
73.0,-26.0,5.824
160.0,-19.0,5.825
203.0,11.0,5.826
211.0,40.0,5.827
211.0,34.0,5.828
188.0,-2.0,5.829
93.0,-34.0,5.83
-46.0,-42.0,5.831
-141.0,-30.0,5.832
-138.0,-16.0,5.833
-93.0,-13.0,5.834
-85.0,-19.0,5.835
-103.0,-11.0,5.836
-77.0,29.0,5.837
19.0,111.0,5.838
105.0,196.0,5.839
93.0,214.0,5.84
22.0,138.0,5.841
-3.0,40.0,5.842
24.0,-1.0,5.843
21.0,17.0,5.844
-23.0,22.0,5.845
-19.0,-18.0,5.846
55.0,-69.0,5.847
108.0,-88.0,5.848
103.0,-86.0,5.849
99.0,-89.0,5.85
109.0,-114.0,5.851
48.0,-150.0,5.852
-73.0,-175.0,5.853
-121.0,-154.0,5.854
-58.0,-85.0,5.855
-5.0,-13.0,5.856
-19.0,21.0,5.857
-21.0,36.0,5.858
27.0,73.0,5.859
17.0,118.0,5.86
-97.0,97.0,5.861
-179.0,19.0,5.862
-106.0,-44.0,5.863
43.0,-44.0,5.864
128.0,-21.0,5.865
135.0,-30.0,5.866
127.0,-65.0,5.867
111.0,-81.0,5.868
55.0,-64.0,5.869
-51.0,-36.0,5.87
-203.0,-19.0,5.871
-360.0,-7.0,5.872
-418.0,12.0,5.873
-286.0,41.0,5.874
-42.0,61.0,5.875
129.0,58.0,5.876
167.0,42.0,5.877
165.0,41.0,5.878
185.0,72.0,5.879
182.0,103.0,5.88
150.0,95.0,5.881
166.0,65.0,5.882
231.0,52.0,5.883
221.0,61.0,5.884
88.0,60.0,5.885
-60.0,43.0,5.886
-139.0,35.0,5.887
-197.0,33.0,5.888
-255.0,16.0,5.889
-221.0,-20.0,5.89
-65.0,-48.0,5.891
75.0,-56.0,5.892
77.0,-57.0,5.893
6.0,-62.0,5.894
-23.0,-56.0,5.895
-19.0,-33.0,5.896
-56.0,-9.0,5.897
-136.0,-1.0,5.898
-167.0,-10.0,5.899
-127.0,-25.0,5.9
-68.0,-28.0,5.901
-28.0,-3.0,5.902
30.0,37.0,5.903
136.0,66.0,5.904
253.0,69.0,5.905
299.0,51.0,5.906
238.0,23.0,5.907
121.0,-7.0,5.908
36.0,-34.0,5.909
9.0,-49.0,5.91
-18.0,-55.0,5.911
-86.0,-58.0,5.912
-141.0,-61.0,5.913
-119.0,-57.0,5.914
-66.0,-42.0,5.915
-83.0,-20.0,5.916
-148.0,4.0,5.917
-143.0,28.0,5.918
6.0,43.0,5.919
195.0,36.0,5.92
283.0,12.0,5.921
252.0,-1.0,5.922
181.0,-1.0,5.923
104.0,0.0,5.924
14.0,-1.0,5.925
-51.0,14.0,5.926
-55.0,35.0,5.927
-55.0,31.0,5.928
-136.0,-1.0,5.929
-258.0,-30.0,5.93
-279.0,-34.0,5.931
-160.0,-30.0,5.932
-10.0,-33.0,5.933
85.0,-20.0,5.934
167.0,26.0,5.935
273.0,73.0,5.936
324.0,78.0,5.937
244.0,44.0,5.938
95.0,28.0,5.939
7.0,49.0,5.94
-2.0,64.0,5.941
-36.0,25.0,5.942
-132.0,-63.0,5.943
-206.0,-144.0,5.944
-200.0,-175.0,5.945
-193.0,-171.0,5.946
-271.0,-163.0,5.947
-358.0,-147.0,5.948
-271.0,-92.0,5.949
3.0,-11.0,5.95
223.0,30.0,5.951
163.0,9.0,5.952
-91.0,-10.0,5.953
-239.0,36.0,5.954
-143.0,114.0,5.955
49.0,145.0,5.956
176.0,117.0,5.957
281.0,83.0,5.958
429.0,81.0,5.959
537.0,79.0,5.96
473.0,77.0,5.961
277.0,67.0,5.962
89.0,37.0,5.963
-51.0,12.0,5.964
-186.0,-1.0,5.965
-266.0,-10.0,5.966
-201.0,-4.0,5.967
-40.0,-3.0,5.968
50.0,-23.0,5.969
7.0,-35.0,5.97
-69.0,-21.0,5.971
-86.0,-7.0,5.972
-65.0,10.0,5.973
-44.0,16.0,5.974
-28.0,-13.0,5.975
-33.0,-39.0,5.976
-86.0,-51.0,5.977
-143.0,-62.0,5.978
-128.0,-74.0,5.979
-90.0,-92.0,5.98
15.0,-85.0,5.981
96.0,-31.0,5.982
104.0,47.0,5.983
86.0,111.0,5.984
-10.0,137.0,5.985
-93.0,111.0,5.986
-138.0,48.0,5.987
-168.0,-8.0,5.988
-152.0,-25.0,5.989
-126.0,-21.0,5.99
-71.0,-28.0,5.991
-1.0,-40.0,5.992
112.0,-20.0,5.993
194.0,32.0,5.994
180.0,87.0,5.995
181.0,125.0,5.996
233.0,141.0,5.997
271.0,126.0,5.998
218.0,74.0,5.999
107.0,2.0,6.0
50.0,-63.0,6.001
63.0,-108.0,6.002
82.0,-142.0,6.003
69.0,-161.0,6.004
25.0,-147.0,6.005
-55.0,-105.0,6.006
-157.0,-71.0,6.007
-212.0,-65.0,6.008
-173.0,-67.0,6.009
-91.0,-49.0,6.01
-52.0,-18.0,6.011
-68.0,3.0,6.012
-73.0,3.0,6.013
-31.0,-4.0,6.014
26.0,-9.0,6.015
44.0,-12.0,6.016
2.0,-16.0,6.017
-109.0,-8.0,6.018
-212.0,14.0,6.019
-235.0,45.0,6.02
-131.0,71.0,6.021
48.0,91.0,6.022
176.0,88.0,6.023
173.0,49.0,6.024
100.0,-1.0,6.025
60.0,-14.0,6.026
51.0,16.0,6.027
2.0,45.0,6.028
-89.0,38.0,6.029
-152.0,13.0,6.03
-177.0,-6.0,6.031
-220.0,-35.0,6.032
-255.0,-81.0,6.033
-185.0,-105.0,6.034
-5.0,-64.0,6.035
176.0,27.0,6.036
307.0,106.0,6.037
426.0,140.0,6.038
479.0,142.0,6.039
345.0,130.0,6.04
89.0,97.0,6.041
-30.0,35.0,6.042
84.0,-39.0,6.043
225.0,-75.0,6.044
206.0,-60.0,6.045
114.0,-34.0,6.046
82.0,-34.0,6.047
68.0,-49.0,6.048
-11.0,-54.0,6.049
-99.0,-52.0,6.05
-136.0,-64.0,6.051
-194.0,-78.0,6.052
-326.0,-69.0,6.053
-417.0,-24.0,6.054
-337.0,50.0,6.055
-122.0,126.0,6.056
66.0,160.0,6.057
144.0,123.0,6.058
114.0,47.0,6.059
42.0,-1.0,6.06
-3.0,-7.0,6.061
-11.0,-7.0,6.062
-33.0,-23.0,6.063
-88.0,-29.0,6.064
-129.0,-15.0,6.065
-123.0,-16.0,6.066
-90.0,-44.0,6.067
-48.0,-67.0,6.068
12.0,-70.0,6.069
71.0,-80.0,6.07
74.0,-101.0,6.071
51.0,-91.0,6.072
90.0,-32.0,6.073
186.0,35.0,6.074
217.0,62.0,6.075
130.0,49.0,6.076
27.0,33.0,6.077
-16.0,31.0,6.078
-34.0,44.0,6.079
-87.0,52.0,6.08
-134.0,33.0,6.081
-109.0,-7.0,6.082
-35.0,-37.0,6.083
5.0,-36.0,6.084
-7.0,-20.0,6.085
-25.0,-17.0,6.086
-15.0,-28.0,6.087
15.0,-38.0,6.088
43.0,-45.0,6.089
55.0,-50.0,6.09
44.0,-37.0,6.091
19.0,10.0,6.092
13.0,74.0,6.093
41.0,104.0,6.094
78.0,76.0,6.095
72.0,17.0,6.096
19.0,-18.0,6.097
-47.0,-11.0,6.098
-83.0,13.0,6.099
-89.0,10.0,6.1
-76.0,-17.0,6.101
-27.0,-25.0,6.102
67.0,-10.0,6.103
155.0,-1.0,6.104
160.0,-12.0,6.105
94.0,-21.0,6.106
31.0,-6.0,6.107
13.0,14.0,6.108
9.0,24.0,6.109
-20.0,18.0,6.11
-61.0,3.0,6.111
-78.0,-8.0,6.112
-68.0,-5.0,6.113
-48.0,21.0,6.114
-25.0,44.0,6.115
-6.0,36.0,6.116
0.0,10.0,6.117
-10.0,-10.0,6.118
-26.0,-12.0,6.119
-47.0,-11.0,6.12
-72.0,-18.0,6.121
-100.0,-22.0,6.122
-115.0,-26.0,6.123
-99.0,-34.0,6.124
-55.0,-41.0,6.125
8.0,-35.0,6.126
84.0,-21.0,6.127
146.0,-7.0,6.128
140.0,6.0,6.129
49.0,13.0,6.13
-56.0,10.0,6.131
-74.0,7.0,6.132
1.0,15.0,6.133
82.0,28.0,6.134
109.0,23.0,6.135
119.0,13.0,6.136
144.0,17.0,6.137
131.0,31.0,6.138
49.0,29.0,6.139
-36.0,7.0,6.14
-39.0,-10.0,6.141
6.0,-13.0,6.142
2.0,-19.0,6.143
-47.0,-28.0,6.144
-54.0,-16.0,6.145
2.0,13.0,6.146
53.0,25.0,6.147
49.0,6.0,6.148
3.0,-12.0,6.149
-64.0,-12.0,6.15
-153.0,-12.0,6.151
-225.0,-25.0,6.152
-204.0,-33.0,6.153
-74.0,-21.0,6.154
84.0,-3.0,6.155
172.0,-4.0,6.156
185.0,-21.0,6.157
166.0,-47.0,6.158
152.0,-65.0,6.159
128.0,-63.0,6.16
73.0,-26.0,6.161
-18.0,32.0,6.162
-111.0,76.0,6.163
-146.0,91.0,6.164
-96.0,98.0,6.165
-22.0,92.0,6.166
3.0,48.0,6.167
-3.0,-17.0,6.168
34.0,-31.0,6.169
99.0,30.0,6.17
88.0,91.0,6.171
-15.0,78.0,6.172
-91.0,19.0,6.173
-62.0,-12.0,6.174
16.0,-13.0,6.175
70.0,-21.0,6.176
96.0,-45.0,6.177
86.0,-67.0,6.178
2.0,-76.0,6.179
-146.0,-82.0,6.18
-245.0,-67.0,6.181
-210.0,0.0,6.182
-85.0,88.0,6.183
24.0,120.0,6.184
51.0,59.0,6.185
-2.0,-29.0,6.186
-93.0,-63.0,6.187
-141.0,-49.0,6.188
-94.0,-49.0,6.189
15.0,-79.0,6.19
113.0,-93.0,6.191
169.0,-56.0,6.192
194.0,4.0,6.193
185.0,40.0,6.194
121.0,36.0,6.195
26.0,8.0,6.196
-39.0,-13.0,6.197
-57.0,-11.0,6.198
-29.0,14.0,6.199
25.0,40.0,6.2
85.0,52.0,6.201
116.0,54.0,6.202
91.0,43.0,6.203
32.0,15.0,6.204
-5.0,-9.0,6.205
7.0,-7.0,6.206
27.0,4.0,6.207
-2.0,-9.0,6.208
-70.0,-39.0,6.209
-106.0,-45.0,6.21
-74.0,-31.0,6.211
-18.0,-27.0,6.212
-1.0,-36.0,6.213
-27.0,-29.0,6.214
-55.0,-5.0,6.215
-60.0,20.0,6.216
-47.0,42.0,6.217
-25.0,60.0,6.218
3.0,48.0,6.219
19.0,5.0,6.22
11.0,-25.0,6.221
-3.0,-7.0,6.222
-3.0,23.0,6.223
8.0,19.0,6.224
2.0,-3.0,6.225
-26.0,-18.0,6.226
-59.0,-39.0,6.227
-78.0,-80.0,6.228
-73.0,-95.0,6.229
-33.0,-50.0,6.23
31.0,28.0,6.231
81.0,75.0,6.232
83.0,76.0,6.233
63.0,58.0,6.234
60.0,41.0,6.235
59.0,22.0,6.236
30.0,8.0,6.237
-9.0,0.0,6.238
6.0,-6.0,6.239
61.0,-22.0,6.24
65.0,-38.0,6.241
-7.0,-30.0,6.242
-65.0,-3.0,6.243
-36.0,17.0,6.244
27.0,15.0,6.245
42.0,-3.0,6.246
10.0,-23.0,6.247
-10.0,-37.0,6.248
-3.0,-44.0,6.249
-2.0,-43.0,6.25
-25.0,-30.0,6.251
-45.0,-5.0,6.252
-36.0,24.0,6.253
-2.0,37.0,6.254
38.0,28.0,6.255
84.0,12.0,6.256
136.0,16.0,6.257
181.0,44.0,6.258
160.0,77.0,6.259
45.0,81.0,6.26
-92.0,45.0,6.261
-130.0,4.0,6.262
-47.0,-13.0,6.263
51.0,-10.0,6.264
67.0,-11.0,6.265
11.0,-24.0,6.266
-46.0,-32.0,6.267
-87.0,-15.0,6.268
-125.0,20.0,6.269
-137.0,38.0,6.27
-98.0,21.0,6.271
-36.0,-9.0,6.272
-3.0,-22.0,6.273
-8.0,-18.0,6.274
-10.0,-19.0,6.275
4.0,-30.0,6.276
11.0,-33.0,6.277
-5.0,-29.0,6.278
-32.0,-28.0,6.279
-68.0,-35.0,6.28
-110.0,-40.0,6.281
-136.0,-35.0,6.282
-103.0,-36.0,6.283
-16.0,-37.0,6.284
80.0,-16.0,6.285
147.0,25.0,6.286
176.0,55.0,6.287
156.0,48.0,6.288
86.0,23.0,6.289
18.0,0.0,6.29
21.0,-15.0,6.291
82.0,-26.0,6.292
130.0,-15.0,6.293
131.0,24.0,6.294
108.0,55.0,6.295
60.0,47.0,6.296
-20.0,15.0,6.297
-115.0,-7.0,6.298
-152.0,-12.0,6.299
-123.0,-23.0,6.3
-82.0,-42.0,6.301
-65.0,-34.0,6.302
-44.0,-3.0,6.303
-3.0,17.0,6.304
33.0,14.0,6.305
53.0,11.0,6.306
65.0,24.0,6.307
66.0,40.0,6.308
46.0,41.0,6.309
12.0,24.0,6.31
-26.0,-3.0,6.311
-59.0,-26.0,6.312
-68.0,-26.0,6.313
-37.0,-9.0,6.314
4.0,0.0,6.315
6.0,-9.0,6.316
-24.0,-22.0,6.317
-38.0,-31.0,6.318
-9.0,-38.0,6.319
25.0,-42.0,6.32
31.0,-31.0,6.321
29.0,-1.0,6.322
33.0,20.0,6.323
25.0,21.0,6.324
-13.0,23.0,6.325
-51.0,31.0,6.326
-52.0,28.0,6.327
-13.0,4.0,6.328
38.0,-9.0,6.329
72.0,12.0,6.33
68.0,46.0,6.331
34.0,48.0,6.332
0.0,12.0,6.333
-9.0,-23.0,6.334
0.0,-29.0,6.335
0.0,-19.0,6.336
-3.0,-13.0,6.337
9.0,-19.0,6.338
33.0,-23.0,6.339
40.0,-27.0,6.34
10.0,-37.0,6.341
-38.0,-38.0,6.342
-66.0,-11.0,6.343
-54.0,33.0,6.344
-24.0,52.0,6.345
-6.0,30.0,6.346
-20.0,-5.0,6.347
-39.0,-11.0,6.348
-28.0,2.0,6.349
13.0,9.0,6.35
50.0,7.0,6.351
60.0,16.0,6.352
62.0,28.0,6.353
66.0,12.0,6.354
49.0,-22.0,6.355
-8.0,-37.0,6.356
-76.0,-28.0,6.357
-125.0,-28.0,6.358
-132.0,-49.0,6.359
-99.0,-55.0,6.36
-29.0,-29.0,6.361
56.0,3.0,6.362
110.0,20.0,6.363
97.0,31.0,6.364
36.0,44.0,6.365
-8.0,45.0,6.366
20.0,30.0,6.367
105.0,30.0,6.368
174.0,54.0,6.369
157.0,62.0,6.37
66.0,32.0,6.371
-31.0,0.0,6.372
-76.0,0.0,6.373
-73.0,8.0,6.374
-69.0,-7.0,6.375
-87.0,-29.0,6.376
-107.0,-27.0,6.377
-102.0,-10.0,6.378
-46.0,-12.0,6.379
57.0,-35.0,6.38
168.0,-60.0,6.381
204.0,-71.0,6.382
118.0,-71.0,6.383
-34.0,-46.0,6.384
-114.0,5.0,6.385
-57.0,53.0,6.386
56.0,61.0,6.387
110.0,34.0,6.388
68.0,0.0,6.389
-31.0,-19.0,6.39
-147.0,-18.0,6.391
-223.0,3.0,6.392
-192.0,36.0,6.393
-68.0,61.0,6.394
35.0,70.0,6.395
49.0,58.0,6.396
29.0,31.0,6.397
50.0,-8.0,6.398
95.0,-31.0,6.399
94.0,-34.0,6.4
44.0,-42.0,6.401
-7.0,-45.0,6.402
-32.0,-21.0,6.403
-32.0,21.0,6.404
-17.0,29.0,6.405
-9.0,-10.0,6.406
-43.0,-40.0,6.407
-104.0,-31.0,6.408
-124.0,-19.0,6.409
-59.0,-33.0,6.41
58.0,-42.0,6.411
138.0,-23.0,6.412
121.0,2.0,6.413
35.0,18.0,6.414
-26.0,38.0,6.415
0.0,57.0,6.416
58.0,50.0,6.417
51.0,17.0,6.418
-16.0,0.0,6.419
-49.0,14.0,6.42
-10.0,14.0,6.421
16.0,-19.0,6.422
-10.0,-55.0,6.423
-10.0,-63.0,6.424
69.0,-46.0,6.425
147.0,-19.0,6.426
146.0,15.0,6.427
113.0,39.0,6.428
109.0,30.0,6.429
85.0,0.0,6.43
-23.0,-13.0,6.431
-164.0,-3.0,6.432
-237.0,5.0,6.433
-211.0,-2.0,6.434
-119.0,-5.0,6.435
7.0,-1.0,6.436
109.0,0.0,6.437
127.0,0.0,6.438
73.0,25.0,6.439
35.0,57.0,6.44
46.0,49.0,6.441
35.0,-5.0,6.442
-28.0,-49.0,6.443
-81.0,-43.0,6.444
-84.0,-18.0,6.445
-76.0,-8.0,6.446
-78.0,-12.0,6.447
-56.0,-8.0,6.448
-27.0,1.0,6.449
-51.0,6.0,6.45
-111.0,10.0,6.451
-111.0,24.0,6.452
-24.0,36.0,6.453
66.0,30.0,6.454
93.0,7.0,6.455
70.0,-15.0,6.456
44.0,-25.0,6.457
21.0,-24.0,6.458
4.0,-25.0,6.459
5.0,-37.0,6.46
40.0,-52.0,6.461
119.0,-48.0,6.462
212.0,-30.0,6.463
242.0,-9.0,6.464
154.0,8.0,6.465
19.0,22.0,6.466
-40.0,35.0,6.467
-9.0,49.0,6.468
9.0,69.0,6.469
-39.0,77.0,6.47
-96.0,49.0,6.471
-98.0,-3.0,6.472
-76.0,-32.0,6.473
-88.0,-21.0,6.474
-127.0,-14.0,6.475
-138.0,-39.0,6.476
-94.0,-62.0,6.477
-14.0,-53.0,6.478
40.0,-28.0,6.479
23.0,-15.0,6.48
-30.0,-2.0,6.481
-36.0,39.0,6.482
51.0,72.0,6.483
172.0,55.0,6.484
230.0,9.0,6.485
198.0,-8.0,6.486
114.0,13.0,6.487
19.0,38.0,6.488
-52.0,45.0,6.489
-66.0,37.0,6.49
-46.0,17.0,6.491
-75.0,-18.0,6.492
-170.0,-61.0,6.493
-223.0,-86.0,6.494
-142.0,-74.0,6.495
-2.0,-23.0,6.496
49.0,36.0,6.497
-17.0,51.0,6.498
-97.0,14.0,6.499
-102.0,-17.0,6.5
-47.0,-29.0,6.501
34.0,-38.0,6.502
152.0,-36.0,6.503
278.0,-26.0,6.504
325.0,3.0,6.505
255.0,24.0,6.506
125.0,17.0,6.507
25.0,13.0,6.508
-13.0,22.0,6.509
-4.0,26.0,6.51
23.0,11.0,6.511
27.0,-4.0,6.512
-31.0,-22.0,6.513
-141.0,-37.0,6.514
-240.0,-41.0,6.515
-281.0,-45.0,6.516
-257.0,-44.0,6.517
-154.0,-28.0,6.518
13.0,33.0,6.519
161.0,73.0,6.52
179.0,67.0,6.521
65.0,25.0,6.522
-54.0,-29.0,6.523
-64.0,-54.0,6.524
27.0,-27.0,6.525
135.0,16.0,6.526
179.0,16.0,6.527
98.0,-23.0,6.528
-116.0,-50.0,6.529
-329.0,-39.0,6.53
-347.0,-10.0,6.531
-162.0,21.0,6.532
18.0,50.0,6.533
53.0,58.0,6.534
58.0,29.0,6.535
188.0,-6.0,6.536
357.0,4.0,6.537
400.0,66.0,6.538
291.0,121.0,6.539
130.0,111.0,6.54
-39.0,40.0,6.541
-214.0,-31.0,6.542
-279.0,-66.0,6.543
-153.0,-74.0,6.544
25.0,-81.0,6.545
63.0,-73.0,6.546
17.0,-19.0,6.547
60.0,64.0,6.548
159.0,101.0,6.549
146.0,49.0,6.55
38.0,-35.0,6.551
4.0,-68.0,6.552
63.0,-53.0,6.553
82.0,-38.0,6.554
41.0,-10.0,6.555
20.0,62.0,6.556
4.0,130.0,6.557
-80.0,104.0,6.558
-172.0,9.0,6.559
-237.0,-69.0,6.56
-216.0,-93.0,6.561
-229.0,-126.0,6.562
-346.0,-183.0,6.563
-424.0,-201.0,6.564
-382.0,-99.0,6.565
-273.0,3.0,6.566
36.0,109.0,6.567
326.0,188.0,6.568
554.0,183.0,6.569
667.0,166.0,6.57
435.0,116.0,6.571
234.0,60.0,6.572
127.0,-9.0,6.573
-4.0,-63.0,6.574
-208.0,-65.0,6.575
-343.0,-64.0,6.576
-273.0,-54.0,6.577
-172.0,-45.0,6.578
54.0,-15.0,6.579
333.0,32.0,6.58
526.0,30.0,6.581
455.0,-20.0,6.582
187.0,-49.0,6.583
-28.0,-19.0,6.584
-95.0,18.0,6.585
-128.0,15.0,6.586
-159.0,-4.0,6.587
-102.0,-2.0,6.588
6.0,0.0,6.589
4.0,-16.0,6.59
-114.0,-22.0,6.591
-181.0,12.0,6.592
-151.0,49.0,6.593
-150.0,37.0,6.594
-212.0,-13.0,6.595
-213.0,-54.0,6.596
-114.0,-62.0,6.597
-17.0,-4.0,6.598
27.0,-1.0,6.599
64.0,-3.0,6.6
80.0,-28.0,6.601
74.0,-48.0,6.602
3.0,-54.0,6.603
-62.0,-47.0,6.604
-106.0,-2.0,6.605
-112.0,34.0,6.606
-4.0,42.0,6.607
97.0,47.0,6.608
173.0,41.0,6.609
214.0,31.0,6.61
151.0,10.0,6.611
100.0,-8.0,6.612
90.0,-22.0,6.613
64.0,-32.0,6.614
-12.0,-21.0,6.615
-64.0,-12.0,6.616
-40.0,-13.0,6.617
-37.0,-5.0,6.618
-124.0,0.0,6.619
-204.0,-2.0,6.62
-265.0,-32.0,6.621
-299.0,-56.0,6.622
-219.0,-63.0,6.623
18.0,-55.0,6.624
281.0,-1.0,6.625
408.0,41.0,6.626
404.0,50.0,6.627
356.0,56.0,6.628
262.0,49.0,6.629
86.0,37.0,6.63
-105.0,13.0,6.631
-199.0,-9.0,6.632
-180.0,-26.0,6.633
-121.0,-37.0,6.634
-54.0,-24.0,6.635
24.0,-14.0,6.636
66.0,-15.0,6.637
-5.0,-22.0,6.638
-176.0,-52.0,6.639
-321.0,-88.0,6.64
-310.0,-110.0,6.641
-121.0,-60.0,6.642
123.0,71.0,6.643
224.0,186.0,6.644
75.0,176.0,6.645
-150.0,59.0,6.646
-152.0,-33.0,6.647
110.0,-36.0,6.648
325.0,-2.0,6.649
263.0,23.0,6.65
93.0,59.0,6.651
50.0,102.0,6.652
40.0,95.0,6.653
-121.0,22.0,6.654
-288.0,-52.0,6.655
-178.0,-81.0,6.656
121.0,-81.0,6.657
316.0,-55.0,6.658
298.0,19.0,6.659
233.0,89.0,6.66
182.0,61.0,6.661
20.0,-42.0,6.662
-218.0,-88.0,6.663
-325.0,-40.0,6.664
-250.0,-20.0,6.665
-166.0,-96.0,6.666
-156.0,-168.0,6.667
-144.0,-143.0,6.668
-116.0,-83.0,6.669
-138.0,-73.0,6.67
-154.0,-76.0,6.671
-33.0,-20.0,6.672
181.0,79.0,6.673
311.0,151.0,6.674
298.0,175.0,6.675
263.0,178.0,6.676
264.0,177.0,6.677
201.0,158.0,6.678
27.0,96.0,6.679
-108.0,-2.0,6.68
-30.0,-78.0,6.681
181.0,-72.0,6.682
269.0,-15.0,6.683
141.0,20.0,6.684
-44.0,16.0,6.685
-144.0,4.0,6.686
-198.0,-21.0,6.687
-264.0,-79.0,6.688
-300.0,-127.0,6.689
-275.0,-106.0,6.69
-230.0,-46.0,6.691
-173.0,-26.0,6.692
-46.0,-52.0,6.693
133.0,-66.0,6.694
240.0,-47.0,6.695
192.0,-32.0,6.696
15.0,-40.0,6.697
-272.0,-66.0,6.698
-547.0,-104.0,6.699
-543.0,-147.0,6.7
-84.0,-134.0,6.701
596.0,26.0,6.702
1000.0,300.0,6.703
873.0,483.0,6.704
424.0,385.0,6.705
-3.0,94.0,6.706
-236.0,-103.0,6.707
-275.0,-74.0,6.708
-163.0,24.0,6.709
15.0,19.0,6.71
151.0,-28.0,6.711
171.0,-2.0,6.712
71.0,42.0,6.713
-108.0,-8.0,6.714
-304.0,-112.0,6.715
-451.0,-147.0,6.716
-512.0,-118.0,6.717
-476.0,-102.0,6.718
-320.0,-87.0,6.719
-64.0,-25.0,6.72
179.0,34.0,6.721
283.0,15.0,6.722
233.0,-43.0,6.723
105.0,-45.0,6.724
-53.0,-3.0,6.725
-180.0,0.0,6.726
-142.0,-16.0,6.727
96.0,12.0,6.728
313.0,53.0,6.729
269.0,8.0,6.73
70.0,-87.0,6.731
31.0,-80.0,6.732
184.0,67.0,6.733
278.0,220.0,6.734
222.0,244.0,6.735
181.0,147.0,6.736
190.0,31.0,6.737
78.0,-65.0,6.738
-142.0,-122.0,6.739
-199.0,-141.0,6.74
11.0,-115.0,6.741
213.0,-27.0,6.742
180.0,88.0,6.743
22.0,145.0,6.744
-100.0,89.0,6.745
-194.0,-18.0,6.746
-284.0,-70.0,6.747
-325.0,-62.0,6.748
-353.0,-76.0,6.749
-455.0,-127.0,6.75
-527.0,-132.0,6.751
-358.0,-52.0,6.752
26.0,52.0,6.753
336.0,110.0,6.754
387.0,107.0,6.755
259.0,75.0,6.756
99.0,49.0,6.757
-65.0,52.0,6.758
-165.0,60.0,6.759
-84.0,23.0,6.76
182.0,-41.0,6.761
418.0,-45.0,6.762
349.0,21.0,6.763
-92.0,44.0,6.764
-629.0,-44.0,6.765
-815.0,-155.0,6.766
-428.0,-172.0,6.767
277.0,-95.0,6.768
792.0,11.0,6.769
844.0,109.0,6.77
578.0,155.0,6.771
281.0,97.0,6.772
78.0,-20.0,6.773
-48.0,-73.0,6.774
-120.0,-26.0,6.775
-142.0,15.0,6.776
-126.0,-10.0,6.777
-77.0,-41.0,6.778
2.0,-19.0,6.779
41.0,0.0,6.78
-58.0,-42.0,6.781
-268.0,-81.0,6.782
-390.0,-45.0,6.783
-263.0,35.0,6.784
31.0,84.0,6.785
245.0,88.0,6.786
224.0,68.0,6.787
48.0,29.0,6.788
-94.0,-14.0,6.789
-103.0,-31.0,6.79
-44.0,-22.0,6.791
-41.0,-33.0,6.792
-119.0,-78.0,6.793
-167.0,-95.0,6.794
-85.0,-32.0,6.795
89.0,64.0,6.796
216.0,104.0,6.797
221.0,59.0,6.798
156.0,-1.0,6.799
105.0,-9.0,6.8
90.0,25.0,6.801
82.0,52.0,6.802
72.0,58.0,6.803
59.0,52.0,6.804
21.0,35.0,6.805
-45.0,2.0,6.806
-98.0,-25.0,6.807
-119.0,-24.0,6.808
-134.0,-13.0,6.809
-139.0,-23.0,6.81
-95.0,-43.0,6.811
-24.0,-46.0,6.812
-16.0,-32.0,6.813
-76.0,-27.0,6.814
-83.0,-35.0,6.815
17.0,-34.0,6.816
120.0,-12.0,6.817
118.0,10.0,6.818
37.0,17.0,6.819
-25.0,6.0,6.82
-35.0,-9.0,6.821
-27.0,-12.0,6.822
-24.0,-9.0,6.823
-34.0,-11.0,6.824
-74.0,-25.0,6.825
-139.0,-43.0,6.826
-182.0,-62.0,6.827
-163.0,-80.0,6.828
-98.0,-86.0,6.829
-48.0,-58.0,6.83
-43.0,0.0,6.831
-17.0,57.0,6.832
145.0,84.0,6.833
431.0,97.0,6.834
596.0,127.0,6.835
422.0,149.0,6.836
68.0,115.0,6.837
-96.0,28.0,6.838
20.0,-27.0,6.839
81.0,-9.0,6.84
-27.0,17.0,6.841
-105.0,0.0,6.842
-93.0,-25.0,6.843
-85.0,-7.0,6.844
-90.0,15.0,6.845
-147.0,-17.0,6.846
-361.0,-85.0,6.847
-505.0,-117.0,6.848
-435.0,-95.0,6.849
-257.0,-61.0,6.85
246.0,-38.0,6.851
611.0,-13.0,6.852
560.0,20.0,6.853
458.0,51.0,6.854
202.0,82.0,6.855
12.0,102.0,6.856
23.0,89.0,6.857
10.0,35.0,6.858
-58.0,-6.0,6.859
3.0,7.0,6.86
111.0,37.0,6.861
48.0,25.0,6.862
-170.0,-15.0,6.863
-295.0,-37.0,6.864
-209.0,-41.0,6.865
-51.0,-60.0,6.866
43.0,-72.0,6.867
103.0,-27.0,6.868
157.0,52.0,6.869
128.0,87.0,6.87
-10.0,45.0,6.871
-146.0,-17.0,6.872
-188.0,-42.0,6.873
-186.0,-38.0,6.874
-192.0,-36.0,6.875
-144.0,-37.0,6.876
-4.0,-24.0,6.877
133.0,-1.0,6.878
157.0,9.0,6.879
139.0,-14.0,6.88
-3.0,-54.0,6.881
-109.0,-62.0,6.882
-102.0,-16.0,6.883
-64.0,45.0,6.884
67.0,68.0,6.885
157.0,48.0,6.886
123.0,22.0,6.887
91.0,13.0,6.888
69.0,10.0,6.889
49.0,1.0,6.89
38.0,-5.0,6.891
20.0,-5.0,6.892
-17.0,-13.0,6.893
-74.0,-28.0,6.894
-190.0,-40.0,6.895
-276.0,-51.0,6.896
-274.0,-64.0,6.897
-229.0,-70.0,6.898
-15.0,-43.0,6.899
209.0,13.0,6.9
320.0,54.0,6.901
296.0,48.0,6.902
220.0,19.0,6.903
141.0,19.0,6.904
31.0,51.0,6.905
-99.0,63.0,6.906
-158.0,35.0,6.907
-85.0,15.0,6.908
38.0,39.0,6.909
95.0,60.0,6.91
66.0,32.0,6.911
20.0,-9.0,6.912
-7.0,-11.0,6.913
-43.0,-2.0,6.914
-107.0,-25.0,6.915
-165.0,-59.0,6.916
-171.0,-51.0,6.917
-113.0,-14.0,6.918
-19.0,2.0,6.919
58.0,-2.0,6.92
87.0,6.0,6.921
109.0,24.0,6.922
106.0,11.0,6.923
82.0,-31.0,6.924
-3.0,-56.0,6.925
-66.0,-40.0,6.926
-62.0,1.0,6.927
-41.0,43.0,6.928
24.0,58.0,6.929
61.0,29.0,6.93
11.0,-21.0,6.931
-16.0,-39.0,6.932
25.0,-10.0,6.933
60.0,21.0,6.934
74.0,21.0,6.935
69.0,8.0,6.936
1.0,7.0,6.937
-77.0,-3.0,6.938
-174.0,-34.0,6.939
-219.0,-61.0,6.94
-208.0,-56.0,6.941
-124.0,-29.0,6.942
52.0,-7.0,6.943
242.0,15.0,6.944
285.0,50.0,6.945
140.0,72.0,6.946
-44.0,51.0,6.947
-120.0,6.0,6.948
-78.0,-20.0,6.949
23.0,-15.0,6.95
132.0,-7.0,6.951
166.0,-7.0,6.952
50.0,-8.0,6.953
-138.0,-4.0,6.954
-224.0,-14.0,6.955
-163.0,-39.0,6.956
-69.0,-52.0,6.957
0.0,-40.0,6.958
81.0,-11.0,6.959
151.0,18.0,6.96
180.0,45.0,6.961
187.0,67.0,6.962
125.0,56.0,6.963
68.0,15.0,6.964
26.0,-15.0,6.965
-11.0,-8.0,6.966
-39.0,7.0,6.967
-60.0,-1.0,6.968
-61.0,-18.0,6.969
-58.0,-14.0,6.97
-43.0,-2.0,6.971
-33.0,-9.0,6.972
-41.0,-26.0,6.973
-49.0,-29.0,6.974
-57.0,-15.0,6.975
-56.0,-6.0,6.976
-26.0,-1.0,6.977
-1.0,4.0,6.978
-3.0,1.0,6.979
-43.0,-16.0,6.98
-85.0,-42.0,6.981
-70.0,-49.0,6.982
20.0,-26.0,6.983
117.0,23.0,6.984
120.0,74.0,6.985
17.0,82.0,6.986
-79.0,35.0,6.987
-56.0,-16.0,6.988
67.0,-19.0,6.989
164.0,8.0,6.99
148.0,13.0,6.991
62.0,-5.0,6.992
1.0,-10.0,6.993
-14.0,6.0,6.994
-23.0,11.0,6.995
-41.0,0.0,6.996
-47.0,-2.0,6.997
-43.0,3.0,6.998
-47.0,0.0,6.999
-48.0,-9.0,7.0
-38.0,-13.0,7.001
-33.0,-8.0,7.002
-42.0,-13.0,7.003
-47.0,-22.0,7.004
-41.0,-19.0,7.005
-28.0,-7.0,7.006
9.0,-2.0,7.007
35.0,-1.0,7.008
23.0,3.0,7.009
9.0,4.0,7.01
-12.0,-2.0,7.011
-19.0,-6.0,7.012
17.0,-5.0,7.013
30.0,-10.0,7.014
-27.0,-21.0,7.015
-69.0,-18.0,7.016
-63.0,-3.0,7.017
-46.0,0.0,7.018
11.0,-11.0,7.019
105.0,-14.0,7.02
197.0,5.0,7.021
199.0,31.0,7.022
87.0,30.0,7.023
-58.0,4.0,7.024
-137.0,-23.0,7.025
-117.0,-31.0,7.026
-28.0,-8.0,7.027
59.0,36.0,7.028
81.0,74.0,7.029
38.0,78.0,7.03
0.0,49.0,7.031
-5.0,7.0,7.032
-33.0,-25.0,7.033
-99.0,-39.0,7.034
-114.0,-32.0,7.035
-23.0,-17.0,7.036
92.0,-8.0,7.037
154.0,-17.0,7.038
189.0,-16.0,7.039
245.0,18.0,7.04
267.0,68.0,7.041
178.0,81.0,7.042
35.0,34.0,7.043
-43.0,-19.0,7.044
-46.0,-28.0,7.045
-47.0,-6.0,7.046
-68.0,-1.0,7.047
-78.0,-16.0,7.048
-72.0,-22.0,7.049
-88.0,-13.0,7.05
-128.0,-14.0,7.051
-157.0,-32.0,7.052
-151.0,-42.0,7.053
-103.0,-38.0,7.054
-19.0,-36.0,7.055
73.0,-29.0,7.056
124.0,1.0,7.057
108.0,43.0,7.058
52.0,53.0,7.059
-4.0,17.0,7.06
-38.0,-25.0,7.061
-47.0,-30.0,7.062
-30.0,-10.0,7.063
-7.0,1.0,7.064
-2.0,-1.0,7.065
-14.0,-3.0,7.066
-18.0,3.0,7.067
-8.0,5.0,7.068
-4.0,3.0,7.069
-8.0,2.0,7.07
-8.0,3.0,7.071
2.0,4.0,7.072
6.0,0.0,7.073
-1.0,-3.0,7.074
-5.0,-5.0,7.075
-1.0,-7.0,7.076
5.0,-8.0,7.077
2.0,-12.0,7.078
-5.0,-15.0,7.079
-8.0,-15.0,7.08
-10.0,-12.0,7.081
-9.0,-5.0,7.082
-3.0,3.0,7.083
8.0,4.0,7.084
14.0,6.0,7.085
13.0,12.0,7.086
5.0,17.0,7.087
-3.0,15.0,7.088
-7.0,9.0,7.089
3.0,3.0,7.09
27.0,-2.0,7.091
48.0,-12.0,7.092
47.0,-24.0,7.093
30.0,-27.0,7.094
15.0,-18.0,7.095
3.0,-1.0,7.096
-2.0,11.0,7.097
15.0,15.0,7.098
63.0,11.0,7.099
99.0,8.0,7.1
65.0,9.0,7.101
-22.0,16.0,7.102
-85.0,27.0,7.103
-92.0,37.0,7.104
-76.0,44.0,7.105
-67.0,44.0,7.106
-42.0,36.0,7.107
-3.0,30.0,7.108
16.0,31.0,7.109
10.0,34.0,7.11
18.0,31.0,7.111
46.0,19.0,7.112
50.0,4.0,7.113
20.0,-15.0,7.114
-2.0,-40.0,7.115
3.0,-68.0,7.116
1.0,-88.0,7.117
-24.0,-97.0,7.118
-36.0,-91.0,7.119
-16.0,-79.0,7.12
12.0,-73.0,7.121
23.0,-71.0,7.122
30.0,-66.0,7.123
31.0,-49.0,7.124
11.0,-27.0,7.125
-16.0,-7.0,7.126
-21.0,5.0,7.127
-1.0,9.0,7.128
23.0,9.0,7.129
48.0,14.0,7.13
86.0,26.0,7.131
113.0,38.0,7.132
86.0,39.0,7.133
10.0,34.0,7.134
-66.0,36.0,7.135
-105.0,40.0,7.136
-103.0,40.0,7.137
-76.0,33.0,7.138
-45.0,29.0,7.139
-25.0,28.0,7.14
-8.0,27.0,7.141
15.0,33.0,7.142
23.0,47.0,7.143
0.0,53.0,7.144
-30.0,42.0,7.145
-24.0,29.0,7.146
0.0,28.0,7.147
-9.0,33.0,7.148
-43.0,29.0,7.149
-40.0,15.0,7.15
6.0,4.0,7.151
34.0,-4.0,7.152
17.0,-14.0,7.153
4.0,-23.0,7.154
24.0,-23.0,7.155
34.0,-23.0,7.156
7.0,-28.0,7.157
-32.0,-37.0,7.158
-40.0,-38.0,7.159
-17.0,-33.0,7.16
11.0,-31.0,7.161
40.0,-26.0,7.162
77.0,-15.0,7.163
107.0,-2.0,7.164
104.0,9.0,7.165
61.0,19.0,7.166
10.0,27.0,7.167
-10.0,27.0,7.168
16.0,18.0,7.169
57.0,6.0,7.17
71.0,-3.0,7.171
55.0,-9.0,7.172
30.0,-8.0,7.173
0.0,4.0,7.174
-40.0,25.0,7.175
-70.0,34.0,7.176
-64.0,22.0,7.177
-38.0,-6.0,7.178
-35.0,-22.0,7.179
-67.0,-21.0,7.18
-84.0,-21.0,7.181
-54.0,-32.0,7.182
-7.0,-51.0,7.183
4.0,-63.0,7.184
-21.0,-58.0,7.185
-47.0,-41.0,7.186
-53.0,-21.0,7.187
-46.0,-3.0,7.188
-30.0,5.0,7.189
0.0,1.0,7.19
48.0,-7.0,7.191
102.0,-3.0,7.192
146.0,12.0,7.193
157.0,27.0,7.194
113.0,27.0,7.195
17.0,17.0,7.196
-77.0,19.0,7.197
-120.0,34.0,7.198
-101.0,44.0,7.199
-66.0,40.0,7.2
-50.0,22.0,7.201
-36.0,5.0,7.202
2.0,-16.0,7.203
41.0,-43.0,7.204
30.0,-70.0,7.205
-24.0,-80.0,7.206
-57.0,-75.0,7.207
-35.0,-63.0,7.208
13.0,-50.0,7.209
38.0,-44.0,7.21
29.0,-48.0,7.211
8.0,-51.0,7.212
3.0,-41.0,7.213
31.0,-13.0,7.214
70.0,12.0,7.215
79.0,27.0,7.216
59.0,40.0,7.217
55.0,61.0,7.218
107.0,89.0,7.219
174.0,102.0,7.22
185.0,85.0,7.221
129.0,52.0,7.222
60.0,34.0,7.223
16.0,38.0,7.224
-19.0,44.0,7.225
-71.0,28.0,7.226
-122.0,5.0,7.227
-122.0,6.0,7.228
-54.0,25.0,7.229
27.0,24.0,7.23
58.0,-1.0,7.231
39.0,-10.0,7.232
30.0,17.0,7.233
39.0,58.0,7.234
10.0,73.0,7.235
-78.0,56.0,7.236
-149.0,28.0,7.237
-144.0,4.0,7.238
-75.0,-13.0,7.239
-29.0,-13.0,7.24
-42.0,-10.0,7.241
-75.0,-14.0,7.242
-93.0,-17.0,7.243
-101.0,1.0,7.244
-91.0,30.0,7.245
-36.0,29.0,7.246
55.0,-14.0,7.247
132.0,-55.0,7.248
153.0,-56.0,7.249
115.0,-32.0,7.25
15.0,-22.0,7.251
-119.0,-28.0,7.252
-200.0,-28.0,7.253
-147.0,-19.0,7.254
2.0,-20.0,7.255
117.0,-38.0,7.256
143.0,-61.0,7.257
144.0,-67.0,7.258
157.0,-38.0,7.259
142.0,-11.0,7.26
42.0,9.0,7.261
-37.0,20.0,7.262
-50.0,0.0,7.263
-63.0,-7.0,7.264
-78.0,25.0,7.265
-106.0,38.0,7.266
-170.0,-3.0,7.267
-228.0,-45.0,7.268
-269.0,-89.0,7.269
-270.0,-119.0,7.27
-144.0,-108.0,7.271
-14.0,-90.0,7.272
130.0,-52.0,7.273
262.0,-9.0,7.274
360.0,47.0,7.275
390.0,94.0,7.276
213.0,111.0,7.277
23.0,114.0,7.278
-135.0,65.0,7.279
-139.0,25.0,7.28
-81.0,-3.0,7.281
-52.0,-34.0,7.282
-28.0,-62.0,7.283
57.0,-64.0,7.284
168.0,-31.0,7.285
198.0,5.0,7.286
116.0,20.0,7.287
27.0,3.0,7.288
18.0,-20.0,7.289
20.0,-10.0,7.29
-81.0,36.0,7.291
-254.0,80.0,7.292
-349.0,74.0,7.293
-299.0,30.0,7.294
-172.0,-15.0,7.295
-54.0,-46.0,7.296
25.0,-63.0,7.297
64.0,-57.0,7.298
92.0,-8.0,7.299
171.0,65.0,7.3
304.0,102.0,7.301
374.0,82.0,7.302
298.0,41.0,7.303
177.0,21.0,7.304
148.0,26.0,7.305
148.0,26.0,7.306
22.0,16.0,7.307
-235.0,14.0,7.308
-462.0,33.0,7.309
-534.0,49.0,7.31
-444.0,37.0,7.311
-222.0,2.0,7.312
82.0,-27.0,7.313
362.0,-34.0,7.314
508.0,-11.0,7.315
489.0,54.0,7.316
382.0,155.0,7.317
266.0,240.0,7.318
203.0,217.0,7.319
160.0,60.0,7.32
39.0,-125.0,7.321
-176.0,-210.0,7.322
-356.0,-191.0,7.323
-371.0,-158.0,7.324
-258.0,-147.0,7.325
-144.0,-120.0,7.326
-96.0,-70.0,7.327
-101.0,-49.0,7.328
-147.0,-66.0,7.329
-214.0,-73.0,7.33
-255.0,-44.0,7.331
-257.0,-14.0,7.332
-229.0,0.0,7.333
-130.0,20.0,7.334
82.0,34.0,7.335
306.0,0.0,7.336
371.0,-64.0,7.337
251.0,-89.0,7.338
100.0,-32.0,7.339
16.0,49.0,7.34
-53.0,67.0,7.341
-132.0,21.0,7.342
-112.0,-33.0,7.343
38.0,-46.0,7.344
184.0,-18.0,7.345
230.0,19.0,7.346
238.0,39.0,7.347
255.0,31.0,7.348
209.0,12.0,7.349
69.0,8.0,7.35
-55.0,32.0,7.351
-90.0,69.0,7.352
-108.0,101.0,7.353
-165.0,116.0,7.354
-185.0,113.0,7.355
-119.0,86.0,7.356
-42.0,40.0,7.357
-23.0,-24.0,7.358
-25.0,-74.0,7.359
-10.0,-86.0,7.36
7.0,-64.0,7.361
22.0,-19.0,7.362
62.0,27.0,7.363
91.0,61.0,7.364
28.0,74.0,7.365
-96.0,55.0,7.366
-147.0,6.0,7.367
-85.0,-57.0,7.368
-15.0,-107.0,7.369
-10.0,-130.0,7.37
-18.0,-126.0,7.371
23.0,-99.0,7.372
86.0,-56.0,7.373
99.0,-12.0,7.374
38.0,4.0,7.375
-53.0,-6.0,7.376
-105.0,-21.0,7.377
-103.0,-19.0,7.378
-102.0,0.0,7.379
-157.0,21.0,7.38
-217.0,32.0,7.381
-199.0,39.0,7.382
-112.0,38.0,7.383
-34.0,38.0,7.384
40.0,47.0,7.385
189.0,61.0,7.386
384.0,55.0,7.387
456.0,24.0,7.388
288.0,-9.0,7.389
-15.0,-10.0,7.39
-215.0,23.0,7.391
-175.0,66.0,7.392
24.0,78.0,7.393
179.0,39.0,7.394
176.0,-11.0,7.395
96.0,-13.0,7.396
