Deltoid,Bicep,Time
-20,-3,0.0
-13,2,0.001
-13,5,0.002
-17,6,0.003
-16,3,0.004
-8,0,0.005
-3,0,0.006
-3,-3,0.007
4,-5,0.008
18,-5,0.009
22,-3,0.01
15,0,0.011
5,1,0.012
8,5,0.013
15,3,0.014
14,2,0.015
1,0,0.016
-8,-4,0.017
-5,-7,0.018
3,-5,0.019
11,-3,0.02
12,2,0.021
10,6,0.022
3,4,0.023
-5,2,0.024
-13,2,0.025
-19,0,0.026
-29,-3,0.027
-38,-5,0.028
-31,-3,0.029
-4,-1,0.03
26,0,0.031
39,1,0.032
39,2,0.033
37,4,0.034
32,6,0.035
14,2,0.036
-12,-6,0.037
-21,-11,0.038
3,-11,0.039
38,-7,0.04
49,-2,0.041
37,1,0.042
22,1,0.043
14,0,0.044
3,-2,0.045
-13,-2,0.046
-26,-1,0.047
-27,0,0.048
-14,0,0.049
5,1,0.05
19,3,0.051
21,6,0.052
12,9,0.053
0,6,0.054
-1,3,0.055
-1,0,0.056
0,-2,0.057
-1,-5,0.058
1,-4,0.059
0,-2,0.06
-8,2,0.061
-17,5,0.062
-21,2,0.063
-18,0,0.064
-14,0,0.065
-15,1,0.066
-16,0,0.067
-14,-1,0.068
-12,-3,0.069
-10,-5,0.07
-4,-3,0.071
0,-2,0.072
8,-3,0.073
12,-4,0.074
11,-5,0.075
7,-6,0.076
5,-9,0.077
8,-9,0.078
16,-6,0.079
20,-3,0.08
18,0,0.081
13,3,0.082
10,4,0.083
9,1,0.084
9,-2,0.085
11,-2,0.086
9,1,0.087
3,3,0.088
-4,0,0.089
-6,-2,0.09
-4,-1,0.091
-2,-3,0.092
0,-6,0.093
2,-8,0.094
1,-5,0.095
-3,-3,0.096
-6,-6,0.097
-3,-7,0.098
1,-5,0.099
4,-3,0.1
0,-2,0.101
-5,-1,0.102
-8,3,0.103
-5,6,0.104
-4,7,0.105
-8,7,0.106
-14,7,0.107
-12,5,0.108
-4,2,0.109
0,0,0.11
-3,1,0.111
-5,0,0.112
0,1,0.113
19,0,0.114
44,-1,0.115
61,-4,0.116
57,-7,0.117
36,-7,0.118
19,-4,0.119
16,0,0.12
12,1,0.121
-4,3,0.122
-19,3,0.123
-21,3,0.124
-14,3,0.125
-7,4,0.126
-4,2,0.127
-4,-2,0.128
-5,-5,0.129
-11,-4,0.13
-17,-2,0.131
-21,-3,0.132
-31,-5,0.133
-41,-5,0.134
-28,-3,0.135
0,-1,0.136
25,-4,0.137
32,-6,0.138
31,-1,0.139
35,3,0.14
35,3,0.141
27,2,0.142
19,4,0.143
18,6,0.144
18,3,0.145
11,0,0.146
4,0,0.147
4,-1,0.148
-2,-2,0.149
-13,-4,0.15
-19,-4,0.151
-17,-2,0.152
-17,0,0.153
-21,1,0.154
-18,1,0.155
-10,0,0.156
-4,-4,0.157
-1,-5,0.158
5,-2,0.159
13,3,0.16
9,5,0.161
-1,4,0.162
-1,1,0.163
7,-1,0.164
9,-1,0.165
2,1,0.166
0,4,0.167
4,2,0.168
4,-1,0.169
-3,-1,0.17
-5,2,0.171
0,1,0.172
6,-3,0.173
1,-5,0.174
-7,-4,0.175
-12,-1,0.176
-13,-2,0.177
-13,-5,0.178
-9,-3,0.179
1,-1,0.18
9,0,0.181
9,0,0.182
7,1,0.183
12,3,0.184
20,5,0.185
22,4,0.186
15,1,0.187
5,-2,0.188
-8,-3,0.189
-22,-1,0.19
-24,0,0.191
-7,-2,0.192
19,-5,0.193
36,-6,0.194
32,-5,0.195
19,-4,0.196
13,-6,0.197
13,-8,0.198
15,-7,0.199
14,-3,0.2
6,0,0.201
0,3,0.202
-3,5,0.203
-3,4,0.204
-1,3,0.205
-2,3,0.206
-8,3,0.207
-15,0,0.208
-15,0,0.209
-11,0,0.21
-10,0,0.211
-14,-3,0.212
-17,-3,0.213
-11,-3,0.214
1,-3,0.215
8,-2,0.216
3,-3,0.217
0,-4,0.218
4,-4,0.219
12,-3,0.22
13,2,0.221
10,6,0.222
7,2,0.223
3,-2,0.224
-11,-1,0.225
-28,0,0.226
-33,3,0.227
-16,6,0.228
12,5,0.229
38,4,0.23
48,4,0.231
44,5,0.232
33,5,0.233
19,3,0.234
7,-1,0.235
-4,-5,0.236
-11,-8,0.237
-15,-4,0.238
-5,0,0.239
2,1,0.24
2,1,0.241
2,3,0.242
4,4,0.243
6,1,0.244
5,0,0.245
4,2,0.246
3,3,0.247
0,1,0.248
-8,-2,0.249
-13,-1,0.25
-10,1,0.251
-6,0,0.252
1,-1,0.253
9,-2,0.254
10,-2,0.255
5,-3,0.256
-1,-8,0.257
-3,-10,0.258
0,-9,0.259
6,-5,0.26
9,1,0.261
12,3,0.262
14,0,0.263
17,-5,0.264
16,-4,0.265
12,0,0.266
7,1,0.267
4,-1,0.268
0,-3,0.269
-4,-3,0.27
-4,-4,0.271
-2,-5,0.272
-1,-2,0.273
-4,-1,0.274
-6,-1,0.275
-8,-4,0.276
-9,-7,0.277
-8,-5,0.278
-1,-2,0.279
6,0,0.28
6,5,0.281
0,8,0.282
-4,6,0.283
-9,1,0.284
-15,1,0.285
-17,6,0.286
-8,7,0.287
5,7,0.288
9,6,0.289
6,5,0.29
8,1,0.291
15,-4,0.292
18,-4,0.293
4,-6,0.294
-13,-4,0.295
-16,-3,0.296
1,-3,0.297
24,-4,0.298
36,-4,0.299
31,-2,0.3
20,0,0.301
14,1,0.302
16,1,0.303
19,0,0.304
15,0,0.305
2,1,0.306
-5,0,0.307
-6,-1,0.308
-6,-2,0.309
-8,-4,0.31
-8,-3,0.311
-4,-2,0.312
-2,-2,0.313
-12,-2,0.314
-24,0,0.315
-35,1,0.316
-38,-2,0.317
-28,-3,0.318
-2,-2,0.319
28,1,0.32
42,4,0.321
38,6,0.322
35,4,0.323
35,2,0.324
29,1,0.325
12,3,0.326
-1,3,0.327
-3,1,0.328
-3,0,0.329
-5,0,0.33
-8,1,0.331
-5,0,0.332
-4,0,0.333
-8,-1,0.334
-11,-4,0.335
-12,-7,0.336
-12,-11,0.337
-11,-10,0.338
-4,-4,0.339
11,-1,0.34
19,0,0.341
15,3,0.342
7,4,0.343
1,3,0.344
-1,-1,0.345
-4,-5,0.346
-8,-6,0.347
-12,-4,0.348
-15,-1,0.349
-17,1,0.35
-11,0,0.351
-2,-3,0.352
3,-1,0.353
3,-1,0.354
7,0,0.355
15,-3,0.356
22,-8,0.357
23,-8,0.358
20,-7,0.359
15,-5,0.36
10,-2,0.361
5,2,0.362
3,5,0.363
2,4,0.364
2,4,0.365
1,5,0.366
-2,5,0.367
-4,4,0.368
-4,3,0.369
-2,6,0.37
1,5,0.371
3,2,0.372
7,0,0.373
8,-3,0.374
7,-3,0.375
7,-2,0.376
7,-4,0.377
8,-7,0.378
1,-6,0.379
-11,-4,0.38
-23,-1,0.381
-26,2,0.382
-15,0,0.383
3,-1,0.384
19,-1,0.385
24,-1,0.386
23,0,0.387
23,2,0.388
24,2,0.389
21,2,0.39
14,2,0.391
7,0,0.392
4,-1,0.393
0,-3,0.394
-6,-4,0.395
-16,-4,0.396
-19,-7,0.397
-15,-8,0.398
-7,-7,0.399
2,-6,0.4
6,-4,0.401
1,0,0.402
-7,1,0.403
-12,3,0.404
-10,4,0.405
-8,7,0.406
-9,9,0.407
-7,8,0.408
1,7,0.409
12,8,0.41
16,8,0.411
10,4,0.412
5,1,0.413
-1,0,0.414
-6,1,0.415
-13,-1,0.416
-17,-6,0.417
-14,-5,0.418
-7,0,0.419
0,1,0.42
6,-3,0.421
8,-3,0.422
8,1,0.423
0,5,0.424
-14,3,0.425
-27,0,0.426
-24,0,0.427
-1,1,0.428
25,0,0.429
42,0,0.43
49,1,0.431
51,0,0.432
48,-3,0.433
32,-5,0.434
15,-4,0.435
2,-5,0.436
-4,-10,0.437
-8,-10,0.438
-7,-7,0.439
-3,-3,0.44
-5,-1,0.441
-12,0,0.442
-14,1,0.443
-9,0,0.444
-7,0,0.445
-8,3,0.446
-5,3,0.447
2,1,0.448
4,-1,0.449
-3,-1,0.45
-11,0,0.451
-11,-1,0.452
-5,0,0.453
-4,0,0.454
-6,-2,0.455
-9,-5,0.456
-8,-6,0.457
3,-7,0.458
24,-4,0.459
42,-1,0.46
44,3,0.461
30,5,0.462
17,0,0.463
17,-3,0.464
20,-1,0.465
18,1,0.466
10,2,0.467
0,3,0.468
-7,0,0.469
-16,-3,0.47
-18,-1,0.471
-14,0,0.472
-4,2,0.473
-1,3,0.474
-2,1,0.475
-5,-1,0.476
-9,-5,0.477
-12,-4,0.478
-11,-3,0.479
-3,0,0.48
3,5,0.481
1,7,0.482
-4,2,0.483
-3,-2,0.484
3,0,0.485
3,5,0.486
-4,4,0.487
-6,0,0.488
-1,-1,0.489
3,0,0.49
2,0,0.491
-1,-1,0.492
-4,0,0.493
-13,1,0.494
-18,-1,0.495
-10,-5,0.496
10,-8,0.497
26,-7,0.498
26,-4,0.499
20,-3,0.5
17,1,0.501
14,8,0.502
8,9,0.503
2,7,0.504
1,5,0.505
0,7,0.506
-4,6,0.507
-2,1,0.508
5,-1,0.509
10,0,0.51
5,0,0.511
0,-3,0.512
0,-3,0.513
-1,-3,0.514
-8,-4,0.515
-19,-8,0.516
-21,-11,0.517
-16,-7,0.518
-8,-3,0.519
-1,-2,0.52
6,0,0.521
12,1,0.522
18,2,0.523
24,0,0.524
28,0,0.525
24,1,0.526
16,0,0.527
8,1,0.528
1,4,0.529
-5,6,0.53
-13,4,0.531
-13,-1,0.532
-9,-1,0.533
-14,0,0.534
-22,-1,0.535
-26,-2,0.536
-19,-5,0.537
-6,-7,0.538
5,-5,0.539
17,-3,0.54
25,-1,0.541
29,0,0.542
26,0,0.543
21,1,0.544
19,4,0.545
14,6,0.546
6,2,0.547
2,-1,0.548
6,-1,0.549
7,-2,0.55
8,-1,0.551
8,0,0.552
10,0,0.553
2,0,0.554
-11,-1,0.555
-20,-6,0.556
-17,-11,0.557
-13,-9,0.558
-7,-6,0.559
-3,-4,0.56
-1,-3,0.561
2,0,0.562
11,4,0.563
18,3,0.564
18,-2,0.565
15,-2,0.566
2,0,0.567
-8,-1,0.568
-8,-1,0.569
-7,1,0.57
-8,3,0.571
-8,2,0.572
-4,0,0.573
-1,-2,0.574
1,-5,0.575
-2,-7,0.576
-4,-7,0.577
-4,-2,0.578
-1,1,0.579
7,1,0.58
10,2,0.581
5,4,0.582
-2,5,0.583
-2,3,0.584
3,1,0.585
7,2,0.586
5,4,0.587
0,2,0.588
-5,0,0.589
-4,-1,0.59
3,0,0.591
9,1,0.592
8,4,0.593
1,2,0.594
1,-2,0.595
6,-7,0.596
5,-9,0.597
1,-4,0.598
2,0,0.599
8,0,0.6
8,-1,0.601
-1,2,0.602
-13,4,0.603
-27,2,0.604
-41,-1,0.605
-43,0,0.606
-23,1,0.607
13,1,0.608
47,-2,0.609
64,-4,0.61
67,-7,0.611
64,-9,0.612
54,-7,0.613
35,-6,0.614
13,-6,0.615
-6,-7,0.616
-19,-10,0.617
-23,-8,0.618
-18,-2,0.619
-9,3,0.62
-3,9,0.621
-2,11,0.622
-5,12,0.623
-11,10,0.624
-13,5,0.625
-11,4,0.626
-7,7,0.627
-6,9,0.628
-9,7,0.629
-14,4,0.63
-17,3,0.631
-17,4,0.632
-10,4,0.633
-1,2,0.634
5,0,0.635
2,-1,0.636
1,-5,0.637
9,-6,0.638
25,-6,0.639
38,-3,0.64
37,0,0.641
25,3,0.642
13,3,0.643
2,0,0.644
-1,-3,0.645
-2,-4,0.646
-2,-1,0.647
-5,1,0.648
-11,0,0.649
-13,-2,0.65
-9,-1,0.651
-1,0,0.652
3,0,0.653
0,-4,0.654
-3,-5,0.655
-4,-3,0.656
-6,-5,0.657
-8,-7,0.658
-5,-8,0.659
3,-5,0.66
8,-1,0.661
3,0,0.662
0,-2,0.663
5,-5,0.664
14,-5,0.665
14,-3,0.666
10,-2,0.667
8,-2,0.668
5,0,0.669
-1,2,0.67
-6,2,0.671
-9,0,0.672
-8,-1,0.673
-7,-3,0.674
-1,-4,0.675
3,-5,0.676
4,-7,0.677
4,-3,0.678
12,0,0.679
24,3,0.68
25,2,0.681
11,2,0.682
-3,1,0.683
-3,0,0.684
3,0,0.685
3,2,0.686
-2,4,0.687
-5,3,0.688
-3,0,0.689
-1,-1,0.69
0,-1,0.691
0,-1,0.692
2,-1,0.693
-1,-3,0.694
-7,-5,0.695
-11,-7,0.696
-7,-9,0.697
3,-7,0.698
13,-2,0.699
17,-2,0.7
17,-2,0.701
17,0,0.702
18,3,0.703
17,2,0.704
5,1,0.705
-16,1,0.706
-30,1,0.707
-24,0,0.708
-3,0,0.709
19,4,0.71
27,5,0.711
23,2,0.712
17,-1,0.713
12,0,0.714
8,2,0.715
2,1,0.716
-3,-3,0.717
-2,-4,0.718
3,-1,0.719
5,0,0.72
2,1,0.721
-1,5,0.722
2,6,0.723
3,3,0.724
-1,2,0.725
-5,4,0.726
-4,4,0.727
0,2,0.728
-1,2,0.729
-3,4,0.73
-4,4,0.731
-5,-1,0.732
-9,-5,0.733
-14,-8,0.734
-13,-5,0.735
-13,-5,0.736
-21,-10,0.737
-34,-12,0.738
-39,-9,0.739
-26,-2,0.74
1,1,0.741
29,0,0.742
47,-2,0.743
52,-2,0.744
48,1,0.745
43,2,0.746
34,0,0.747
27,-2,0.748
18,-1,0.749
9,3,0.75
-1,5,0.751
-6,1,0.752
-3,-1,0.753
4,-1,0.754
3,-2,0.755
-7,-3,0.756
-18,-8,0.757
-20,-8,0.758
-16,-3,0.759
-11,2,0.76
-9,4,0.761
-5,4,0.762
-1,3,0.763
1,1,0.764
3,0,0.765
6,-1,0.766
7,-1,0.767
5,0,0.768
-1,0,0.769
-5,-1,0.77
-6,-2,0.771
-3,-2,0.772
3,0,0.773
4,0,0.774
0,-3,0.775
-2,-7,0.776
1,-12,0.777
7,-9,0.778
11,-4,0.779
9,0,0.78
7,5,0.781
8,7,0.782
6,5,0.783
5,0,0.784
2,-1,0.785
-1,0,0.786
-2,4,0.787
3,2,0.788
10,-1,0.789
12,0,0.79
8,4,0.791
2,3,0.792
-3,0,0.793
-9,-5,0.794
-13,-3,0.795
-12,1,0.796
-9,-2,0.797
-8,-5,0.798
-4,-5,0.799
6,1,0.8
17,5,0.801
19,6,0.802
13,6,0.803
7,5,0.804
1,4,0.805
-2,6,0.806
-3,8,0.807
0,5,0.808
2,-1,0.809
-1,-3,0.81
-5,0,0.811
-5,3,0.812
-2,2,0.813
-1,-5,0.814
1,-7,0.815
3,-5,0.816
4,-6,0.817
8,-4,0.818
16,-3,0.819
25,1,0.82
23,1,0.821
12,-1,0.822
3,-3,0.823
4,-4,0.824
6,-3,0.825
1,-2,0.826
-8,0,0.827
-20,1,0.828
-30,-1,0.829
-27,-3,0.83
-7,-4,0.831
18,-4,0.832
28,-2,0.833
22,-3,0.834
14,-4,0.835
9,-3,0.836
4,-6,0.837
-2,-6,0.838
-2,-5,0.839
4,-3,0.84
4,1,0.841
0,6,0.842
1,9,0.843
6,9,0.844
7,7,0.845
1,6,0.846
-2,4,0.847
0,0,0.848
0,-2,0.849
-2,-3,0.85
-4,-1,0.851
-3,-1,0.852
-3,-1,0.853
-7,-1,0.854
-14,-2,0.855
-22,-2,0.856
-25,-5,0.857
-19,-5,0.858
-4,-3,0.859
8,-1,0.86
13,0,0.861
13,-1,0.862
18,-2,0.863
25,-1,0.864
26,1,0.865
22,4,0.866
19,4,0.867
19,5,0.868
14,6,0.869
7,3,0.87
5,-4,0.871
8,-8,0.872
9,-6,0.873
3,-3,0.874
0,-3,0.875
-3,-7,0.876
-6,-10,0.877
-10,-7,0.878
-8,-5,0.879
-6,-5,0.88
-9,-4,0.881
-18,0,0.882
-16,1,0.883
-6,-1,0.884
-2,-4,0.885
-7,-3,0.886
-5,0,0.887
1,2,0.888
7,3,0.889
2,4,0.89
-1,3,0.891
3,1,0.892
7,1,0.893
2,1,0.894
0,0,0.895
3,-1,0.896
7,-3,0.897
12,-2,0.898
18,-2,0.899
22,-1,0.9
17,0,0.901
7,3,0.902
0,4,0.903
4,3,0.904
4,0,0.905
-1,0,0.906
-4,-2,0.907
-1,-1,0.908
1,1,0.909
0,2,0.91
-3,1,0.911
-2,-1,0.912
1,2,0.913
5,3,0.914
8,3,0.915
8,2,0.916
4,-2,0.917
0,-5,0.918
2,-6,0.919
6,-5,0.92
5,0,0.921
1,0,0.922
0,-2,0.923
-1,-5,0.924
-6,-2,0.925
-17,3,0.926
-23,2,0.927
-21,0,0.928
-19,1,0.929
-16,4,0.93
-7,1,0.931
16,-3,0.932
39,-3,0.933
52,0,0.934
52,1,0.935
42,-3,0.936
29,-8,0.937
16,-8,0.938
8,-5,0.939
4,-4,0.94
-1,-3,0.941
-12,1,0.942
-18,4,0.943
-13,2,0.944
-7,0,0.945
-6,1,0.946
-9,1,0.947
-6,-1,0.948
-3,-4,0.949
-4,-2,0.95
-12,2,0.951
-17,3,0.952
-14,2,0.953
-8,0,0.954
0,-1,0.955
3,-4,0.956
0,-9,0.957
-1,-10,0.958
5,-8,0.959
14,-6,0.96
13,-4,0.961
5,0,0.962
-3,2,0.963
-9,1,0.964
-17,0,0.965
-21,-1,0.966
-15,0,0.967
-2,0,0.968
6,-2,0.969
10,-2,0.97
15,-2,0.971
21,-2,0.972
25,0,0.973
24,-2,0.974
21,-2,0.975
18,-2,0.976
10,-4,0.977
5,-4,0.978
7,-3,0.979
13,0,0.98
11,3,0.981
1,6,0.982
-4,4,0.983
0,1,0.984
3,2,0.985
0,8,0.986
-4,9,0.987
-4,6,0.988
-1,2,0.989
2,0,0.99
7,1,0.991
11,-1,0.992
11,-2,0.993
3,-3,0.994
-3,-5,0.995
-7,-5,0.996
-9,-6,0.997
-7,-4,0.998
-1,-3,0.999
8,-3,1.0
9,1,1.001
3,6,1.002
-1,6,1.003
1,0,1.004
3,-3,1.005
0,0,1.006
-3,0,1.007
-3,-1,1.008
-1,-1,1.009
-2,-1,1.01
-3,-3,1.011
1,-6,1.012
8,-5,1.013
9,0,1.014
4,3,1.015
-2,-1,1.016
-7,-9,1.017
-9,-10,1.018
-5,-6,1.019
3,-1,1.02
10,2,1.021
8,2,1.022
1,-3,1.023
-1,-6,1.024
0,-3,1.025
0,2,1.026
0,4,1.027
0,5,1.028
2,7,1.029
3,7,1.03
3,3,1.031
4,-1,1.032
3,-1,1.033
-1,0,1.034
-5,2,1.035
-11,0,1.036
-15,-5,1.037
-18,-6,1.038
-17,-7,1.039
-18,-5,1.04
-16,-3,1.041
-2,-1,1.042
25,-1,1.043
51,-1,1.044
60,0,1.045
53,3,1.046
39,4,1.047
28,3,1.048
17,0,1.049
7,-2,1.05
3,-2,1.051
4,2,1.052
1,6,1.053
-8,1,1.054
-15,-5,1.055
-17,-4,1.056
-16,-4,1.057
-15,-5,1.058
-8,-9,1.059
2,-6,1.06
9,0,1.061
9,4,1.062
8,2,1.063
6,4,1.064
0,9,1.065
-7,10,1.066
-8,3,1.067
0,0,1.068
8,1,1.069
9,2,1.07
3,-3,1.071
-4,-5,1.072
-10,0,1.073
-15,2,1.074
-15,0,1.075
-13,-5,1.076
-10,-7,1.077
-3,-5,1.078
6,-5,1.079
14,-6,1.08
12,-3,1.081
9,1,1.082
13,3,1.083
22,-1,1.084
21,-4,1.085
8,-3,1.086
-2,1,1.087
0,1,1.088
6,0,1.089
4,-1,1.09
-3,1,1.091
-5,1,1.092
1,2,1.093
7,1,1.094
6,2,1.095
-1,0,1.096
-7,-5,1.097
-6,-7,1.098
0,-2,1.099
6,5,1.1
5,7,1.101
0,5,1.102
-2,2,1.103
0,2,1.104
0,3,1.105
-5,4,1.106
-5,3,1.107
-2,0,1.108
1,-4,1.109
-2,-7,1.11
-6,-6,1.111
-5,-3,1.112
-1,0,1.113
2,-1,1.114
1,-6,1.115
0,-10,1.116
-2,-11,1.117
-2,-8,1.118
5,-8,1.119
16,-6,1.12
19,-3,1.121
12,6,1.122
5,8,1.123
5,3,1.124
7,-2,1.125
7,0,1.126
4,2,1.127
5,3,1.128
3,3,1.129
0,5,1.13
-3,4,1.131
-2,-1,1.132
1,-2,1.133
1,-3,1.134
1,-3,1.135
-2,-3,1.136
-6,-8,1.137
-10,-9,1.138
-6,-8,1.139
1,-5,1.14
2,0,1.141
-2,4,1.142
-5,5,1.143
-5,2,1.144
-6,0,1.145
-11,0,1.146
-13,1,1.147
-4,4,1.148
16,8,1.149
35,9,1.15
46,5,1.151
45,-1,1.152
37,-2,1.153
23,-1,1.154
10,-2,1.155
-1,-3,1.156
-11,-7,1.157
-18,-6,1.158
-18,-4,1.159
-15,-1,1.16
-10,1,1.161
-6,2,1.162
-1,0,1.163
2,-2,1.164
3,-1,1.165
4,1,1.166
8,0,1.167
11,-5,1.168
10,-5,1.169
8,-3,1.17
4,0,1.171
0,0,1.172
-4,0,1.173
-7,0,1.174
-9,0,1.175
-15,0,1.176
-18,-4,1.177
-13,-6,1.178
1,-5,1.179
13,-3,1.18
12,-2,1.181
5,0,1.182
3,-1,1.183
8,-1,1.184
14,0,1.185
13,1,1.186
8,1,1.187
0,1,1.188
-2,2,1.189
0,2,1.19
4,0,1.191
9,-4,1.192
12,-2,1.193
9,0,1.194
2,1,1.195
-7,-2,1.196
-11,-7,1.197
-7,-6,1.198
-1,-3,1.199
1,-2,1.2
-5,-1,1.201
-12,2,1.202
-11,4,1.203
-4,0,1.204
1,-4,1.205
3,-4,1.206
5,0,1.207
7,1,1.208
5,-2,1.209
2,-4,1.21
1,-4,1.211
4,-2,1.212
10,1,1.213
10,0,1.214
7,-3,1.215
-1,-6,1.216
-9,-12,1.217
-10,-10,1.218
-3,-4,1.219
-1,2,1.22
-12,4,1.221
-26,2,1.222
-24,1,1.223
0,1,1.224
27,1,1.225
39,2,1.226
35,1,1.227
27,0,1.228
21,0,1.229
18,5,1.23
12,9,1.231
2,7,1.232
-5,3,1.233
-9,-1,1.234
-8,-1,1.235
-10,0,1.236
-18,-2,1.237
-21,-4,1.238
-11,0,1.239
3,4,1.24
10,4,1.241
11,5,1.242
16,3,1.243
26,1,1.244
30,0,1.245
26,-3,1.246
20,-3,1.247
13,-2,1.248
2,0,1.249
-7,3,1.25
-9,7,1.251
-10,9,1.252
-18,4,1.253
-27,0,1.254
-20,-2,1.255
-8,-5,1.256
-5,-11,1.257
-12,-11,1.258
-16,-7,1.259
-13,-3,1.26
-14,-1,1.261
-21,2,1.262
-18,1,1.263
-3,-3,1.264
8,-5,1.265
11,-2,1.266
16,2,1.267
30,5,1.268
42,4,1.269
42,3,1.27
33,0,1.271
23,-4,1.272
16,-2,1.273
12,-1,1.274
11,-2,1.275
1,-4,1.276
-19,-8,1.277
-33,-6,1.278
-23,-4,1.279
2,-3,1.28
19,-2,1.281
23,-2,1.282
26,-2,1.283
28,-1,1.284
20,2,1.285
6,3,1.286
-1,1,1.287
1,-2,1.288
2,0,1.289
-1,2,1.29
0,3,1.291
2,-1,1.292
-1,-1,1.293
-10,1,1.294
-15,-1,1.295
-15,-5,1.296
-18,-9,1.297
-23,-6,1.298
-19,-2,1.299
-2,0,1.3
5,3,1.301
0,6,1.302
-3,3,1.303
5,-2,1.304
12,-2,1.305
2,1,1.306
-14,0,1.307
-25,-3,1.308
-23,-2,1.309
-6,2,1.31
22,4,1.311
41,2,1.312
42,2,1.313
31,2,1.314
26,0,1.315
21,-3,1.316
8,-5,1.317
-10,-7,1.318
-15,-7,1.319
-9,-7,1.32
-7,-4,1.321
-12,-1,1.322
-11,-1,1.323
-5,-1,1.324
-3,0,1.325
-7,2,1.326
-11,2,1.327
-8,2,1.328
-4,3,1.329
1,4,1.33
8,4,1.331
14,5,1.332
15,5,1.333
10,4,1.334
9,2,1.335
7,0,1.336
9,-5,1.337
12,-7,1.338
18,-8,1.339
19,-5,1.34
13,0,1.341
4,4,1.342
0,1,1.343
-1,-2,1.344
-9,-1,1.345
-21,3,1.346
-24,3,1.347
-14,1,1.348
0,1,1.349
11,0,1.35
17,-1,1.351
19,-3,1.352
17,-3,1.353
4,-2,1.354
-13,-7,1.355
-29,-10,1.356
-33,-12,1.357
-16,-9,1.358
17,-6,1.359
44,-5,1.36
47,-3,1.361
34,0,1.362
24,4,1.363
18,2,1.364
3,0,1.365
-12,3,1.366
-14,9,1.367
0,10,1.368
13,6,1.369
14,3,1.37
4,2,1.371
-3,1,1.372
-5,0,1.373
-6,-2,1.374
-5,-3,1.375
-6,-3,1.376
-7,-6,1.377
-12,-6,1.378
-18,-2,1.379
-26,2,1.38
-33,8,1.381
-26,10,1.382
0,5,1.383
24,0,1.384
33,-1,1.385
28,4,1.386
22,7,1.387
21,2,1.388
19,-2,1.389
12,-1,1.39
0,1,1.391
-10,0,1.392
-12,-1,1.393
-7,-3,1.394
1,-3,1.395
2,-5,1.396
0,-9,1.397
0,-11,1.398
8,-4,1.399
15,1,1.4
14,0,1.401
6,-2,1.402
-2,-4,1.403
-8,-6,1.404
-11,-3,1.405
-10,0,1.406
-7,-1,1.407
-4,-2,1.408
-2,-3,1.409
-1,-4,1.41
-3,-4,1.411
-4,-2,1.412
-2,0,1.413
-2,2,1.414
-6,1,1.415
-15,0,1.416
-17,-3,1.417
-11,-4,1.418
1,-6,1.419
11,-7,1.42
14,-3,1.421
12,0,1.422
13,2,1.423
19,0,1.424
25,-2,1.425
24,-1,1.426
21,0,1.427
21,2,1.428
20,3,1.429
12,3,1.43
1,4,1.431
0,4,1.432
9,4,1.433
10,0,1.434
0,-2,1.435
-19,-4,1.436
-29,-8,1.437
-24,-6,1.438
-12,-4,1.439
-3,-4,1.44
-3,-2,1.441
-9,0,1.442
-8,4,1.443
5,4,1.444
20,0,1.445
22,-3,1.446
17,-2,1.447
13,-2,1.448
16,-2,1.449
16,-2,1.45
1,-1,1.451
-25,-1,1.452
-42,-1,1.453
-38,-2,1.454
-15,0,1.455
9,1,1.456
25,-3,1.457
32,-6,1.458
38,-6,1.459
39,-4,1.46
31,-2,1.461
14,1,1.462
0,2,1.463
-7,1,1.464
-8,-2,1.465
-7,-4,1.466
-4,-1,1.467
-3,2,1.468
-6,3,1.469
-16,4,1.47
-27,1,1.471
-33,-2,1.472
-23,-3,1.473
-1,-3,1.474
23,-2,1.475
31,-2,1.476
22,-6,1.477
14,-7,1.478
16,-1,1.479
19,3,1.48
13,6,1.481
4,9,1.482
2,8,1.483
2,6,1.484
-5,4,1.485
-14,3,1.486
-17,5,1.487
-11,8,1.488
-6,6,1.489
-2,5,1.49
5,5,1.491
12,3,1.492
11,0,1.493
5,-2,1.494
3,-2,1.495
3,-3,1.496
1,-8,1.497
-2,-7,1.498
-1,-1,1.499
5,1,1.5
6,1,1.501
4,2,1.502
3,4,1.503
1,1,1.504
-3,-2,1.505
-8,0,1.506
-7,2,1.507
-3,1,1.508
-1,-2,1.509
-2,-3,1.51
-3,-1,1.511
-3,-4,1.512
-3,-7,1.513
-5,-8,1.514
-7,-5,1.515
-8,-4,1.516
-8,-7,1.517
-2,-8,1.518
12,-5,1.519
28,-4,1.52
35,-2,1.521
35,2,1.522
32,3,1.523
25,2,1.524
12,1,1.525
-2,5,1.526
-7,6,1.527
-5,1,1.528
-5,-3,1.529
-5,-2,1.53
-5,0,1.531
-4,0,1.532
-4,-2,1.533
-4,-3,1.534
1,-2,1.535
3,-4,1.536
-1,-9,1.537
-1,-9,1.538
10,-6,1.539
20,-2,1.54
17,0,1.541
6,2,1.542
1,3,1.543
3,4,1.544
3,6,1.545
-1,6,1.546
-1,3,1.547
2,1,1.548
0,2,1.549
-7,4,1.55
-11,1,1.551
-10,-2,1.552
-3,0,1.553
0,0,1.554
0,-1,1.555
-9,-3,1.556
-22,-4,1.557
-25,-5,1.558
-5,-3,1.559
28,-1,1.56
44,0,1.561
37,2,1.562
23,0,1.563
20,-1,1.564
16,0,1.565
-3,2,1.566
-29,2,1.567
-39,1,1.568
-22,0,1.569
5,-2,1.57
25,-2,1.571
34,-1,1.572
35,0,1.573
26,1,1.574
14,-1,1.575
0,-4,1.576
-6,-9,1.577
-12,-7,1.578
-13,-3,1.579
-11,0,1.58
-9,1,1.581
-7,3,1.582
-8,5,1.583
-14,5,1.584
-18,3,1.585
-14,0,1.586
-1,-2,1.587
12,-4,1.588
17,-2,1.589
13,0,1.59
5,-1,1.591
1,-4,1.592
0,-5,1.593
-3,-4,1.594
-7,-4,1.595
-7,-5,1.596
-1,-6,1.597
8,-6,1.598
15,-4,1.599
21,-2,1.6
28,2,1.601
29,5,1.602
24,2,1.603
16,-1,1.604
6,0,1.605
0,2,1.606
-4,2,1.607
-6,-2,1.608
-8,-3,1.609
-12,0,1.61
-15,2,1.611
-15,4,1.612
-9,4,1.613
-4,0,1.614
-3,-5,1.615
-5,-7,1.616
-10,-7,1.617
-9,-7,1.618
-2,-5,1.619
1,-2,1.62
-6,2,1.621
-21,3,1.622
-24,0,1.623
-6,-1,1.624
20,2,1.625
32,7,1.626
29,7,1.627
25,4,1.628
25,2,1.629
25,1,1.63
19,0,1.631
12,-1,1.632
5,1,1.633
-3,0,1.634
-8,0,1.635
-11,-1,1.636
-11,-1,1.637
-11,-1,1.638
-6,-1,1.639
1,-1,1.64
-1,-1,1.641
-18,0,1.642
-31,0,1.643
-28,-1,1.644
-9,-2,1.645
15,-3,1.646
30,-2,1.647
40,-1,1.648
41,-1,1.649
31,-1,1.65
16,-3,1.651
6,-5,1.652
3,-2,1.653
1,0,1.654
-1,-1,1.655
0,-5,1.656
5,-8,1.657
11,-4,1.658
13,0,1.659
11,0,1.66
5,-2,1.661
-1,1,1.662
-4,4,1.663
-3,1,1.664
1,-2,1.665
3,-2,1.666
-1,0,1.667
-8,0,1.668
-13,-1,1.669
-13,1,1.67
-12,5,1.671
-12,7,1.672
-15,7,1.673
-18,4,1.674
-16,-1,1.675
-9,-6,1.676
-4,-8,1.677
-4,-4,1.678
-4,-1,1.679
3,-1,1.68
14,-2,1.681
17,-2,1.682
18,-3,1.683
21,-5,1.684
21,-4,1.685
16,0,1.686
10,2,1.687
13,2,1.688
19,1,1.689
20,1,1.69
12,0,1.691
3,2,1.692
-3,4,1.693
-15,3,1.694
-24,1,1.695
-24,-3,1.696
-12,-9,1.697
3,-9,1.698
11,-8,1.699
6,-4,1.7
-8,0,1.701
-23,1,1.702
-25,3,1.703
-12,4,1.704
10,5,1.705
25,4,1.706
27,1,1.707
27,-1,1.708
25,0,1.709
24,3,1.71
21,2,1.711
14,-1,1.712
8,-2,1.713
0,-2,1.714
-9,-1,1.715
-16,0,1.716
-19,-4,1.717
-16,-7,1.718
-11,-6,1.719
-9,-5,1.72
-9,-4,1.721
-12,-3,1.722
-11,-2,1.723
-5,-1,1.724
0,0,1.725
5,2,1.726
8,2,1.727
6,2,1.728
-1,2,1.729
-12,1,1.73
-20,0,1.731
-18,-1,1.732
-1,0,1.733
24,1,1.734
44,0,1.735
45,-2,1.736
33,-6,1.737
21,-7,1.738
17,-4,1.739
12,0,1.74
1,2,1.741
-9,5,1.742
-11,6,1.743
-6,6,1.744
-2,6,1.745
-5,6,1.746
-11,3,1.747
-15,-1,1.748
-14,-4,1.749
-12,-2,1.75
-8,0,1.751
0,1,1.752
10,1,1.753
14,0,1.754
9,-2,1.755
2,-5,1.756
5,-9,1.757
17,-9,1.758
24,-9,1.759
20,-7,1.76
5,-5,1.761
-8,0,1.762
-13,1,1.763
-10,0,1.764
-10,0,1.765
-18,2,1.766
-30,3,1.767
-39,1,1.768
-33,0,1.769
-9,3,1.77
21,4,1.771
38,2,1.772
37,1,1.773
30,0,1.774
28,0,1.775
24,-1,1.776
13,-5,1.777
-1,-5,1.778
-4,-3,1.779
0,-3,1.78
0,0,1.781
-5,2,1.782
-7,2,1.783
-3,0,1.784
-2,0,1.785
-2,3,1.786
-2,2,1.787
0,-1,1.788
0,-4,1.789
0,-2,1.79
3,2,1.791
8,0,1.792
10,-1,1.793
12,-4,1.794
10,-4,1.795
1,-4,1.796
-12,-5,1.797
-16,-7,1.798
-5,-5,1.799
8,-3,1.8
10,-1,1.801
2,1,1.802
1,1,1.803
7,1,1.804
11,3,1.805
7,5,1.806
1,1,1.807
-7,-2,1.808
-19,0,1.809
-33,2,1.81
-38,2,1.811
-34,3,1.812
-23,2,1.813
-3,0,1.814
24,-2,1.815
47,-5,1.816
59,-8,1.817
60,-7,1.818
53,-4,1.819
35,0,1.82
10,2,1.821
-12,3,1.822
-18,2,1.823
-14,0,1.824
-12,-1,1.825
-13,0,1.826
-9,2,1.827
1,2,1.828
15,1,1.829
24,0,1.83
24,-1,1.831
15,-1,1.832
5,0,1.833
-1,-3,1.834
-3,-6,1.835
-14,-7,1.836
-28,-7,1.837
-31,-5,1.838
-18,-4,1.839
1,-1,1.84
6,2,1.841
-1,5,1.842
-6,6,1.843
-4,3,1.844
0,-2,1.845
1,-4,1.846
0,-3,1.847
2,-3,1.848
4,-4,1.849
3,-2,1.85
2,-1,1.851
1,-1,1.852
4,-2,1.853
5,-1,1.854
5,-3,1.855
0,-6,1.856
-5,-10,1.857
-8,-12,1.858
0,-7,1.859
12,-2,1.86
13,-2,1.861
4,-2,1.862
0,-1,1.863
0,0,1.864
-3,0,1.865
-17,-1,1.866
-25,-1,1.867
-16,0,1.868
6,0,1.869
25,2,1.87
29,0,1.871
23,-2,1.872
18,-1,1.873
14,-1,1.874
10,-3,1.875
3,-5,1.876
-1,-8,1.877
5,-10,1.878
20,-6,1.879
31,-2,1.88
27,-2,1.881
11,-2,1.882
-2,-1,1.883
-1,0,1.884
6,0,1.885
9,-1,1.886
5,-1,1.887
0,0,1.888
-1,0,1.889
-1,1,1.89
-2,0,1.891
-2,-2,1.892
-2,-1,1.893
-2,1,1.894
-1,0,1.895
-3,-2,1.896
-8,-4,1.897
-12,-2,1.898
-13,-2,1.899
-11,-4,1.9
-9,-3,1.901
-8,4,1.902
-3,7,1.903
1,2,1.904
1,-2,1.905
-2,-1,1.906
-7,1,1.907
-15,-2,1.908
-24,-3,1.909
-20,-1,1.91
4,0,1.911
40,-3,1.912
58,-4,1.913
52,-3,1.914
37,0,1.915
26,-1,1.916
15,-8,1.917
1,-11,1.918
-11,-9,1.919
-20,-5,1.92
-21,-1,1.921
-13,2,1.922
1,4,1.923
10,3,1.924
2,4,1.925
-8,4,1.926
-12,3,1.927
-9,2,1.928
-19,0,1.929
-38,1,1.93
-42,2,1.931
-22,-1,1.932
7,-3,1.933
24,-4,1.934
24,-3,1.935
16,0,1.936
12,-3,1.937
11,-5,1.938
14,-5,1.939
15,-3,1.94
10,0,1.941
-1,3,1.942
-4,3,1.943
5,2,1.944
20,0,1.945
22,0,1.946
10,1,1.947
1,2,1.948
1,1,1.949
3,0,1.95
0,1,1.951
-3,3,1.952
0,4,1.953
6,-9,1.954
7,-7,1.955
0,-6,1.956
-6,-7,1.957
-9,-9,1.958
-5,-5,1.959
0,-1,1.96
3,0,1.961
4,3,1.962
4,5,1.963
-1,6,1.964
-17,7,1.965
-33,9,1.966
-30,5,1.967
-7,1,1.968
17,-1,1.969
25,-3,1.97
21,2,1.971
16,7,1.972
10,5,1.973
1,-7,1.974
-1,-6,1.975
0,-5,1.976
-2,-6,1.977
-10,-7,1.978
-13,-4,1.979
-5,-1,1.98
1,0,1.981
0,3,1.982
-2,4,1.983
7,5,1.984
11,6,1.985
-1,7,1.986
-19,4,1.987
-20,1,1.988
-4,-1,1.989
13,-3,1.99
20,2,1.991
21,6,1.992
21,4,1.993
23,1,1.994
24,-5,1.995
24,-6,1.996
14,-9,1.997
8,-7,1.998
14,-8,1.999
19,-7,2.0
19,-2,2.001
18,0,2.002
18,1,2.003
17,0,2.004
11,-1,2.005
5,1,2.006
0,6,2.007
-5,10,2.008
-12,6,2.009
-17,0,2.01
-14,-2,2.011
-11,-1,2.012
-8,0,2.013
-7,-3,2.014
-9,-6,2.015
-10,-6,2.016
-13,-10,2.017
-26,-10,2.018
-41,-8,2.019
-43,-1,2.02
-25,3,2.021
1,3,2.022
20,2,2.023
26,0,2.024
28,0,2.025
32,1,2.026
30,0,2.027
18,-3,2.028
0,-3,2.029
-8,0,2.03
-7,3,2.031
-3,3,2.032
-2,2,2.033
3,0,2.034
9,0,2.035
9,-2,2.036
5,-4,2.037
1,-5,2.038
2,-3,2.039
2,-1,2.04
-6,0,2.041
-22,1,2.042
-33,0,2.043
-27,0,2.044
-5,0,2.045
18,0,2.046
32,1,2.047
39,1,2.048
43,0,2.049
44,0,2.05
35,0,2.051
22,1,2.052
12,1,2.053
1,1,2.054
-4,-1,2.055
-10,-4,2.056
-13,-7,2.057
-10,-9,2.058
-4,-6,2.059
1,-2,2.06
1,1,2.061
-4,3,2.062
-7,1,2.063
-5,-1,2.064
-2,0,2.065
1,1,2.066
4,2,2.067
5,3,2.068
8,1,2.069
11,0,2.07
12,1,2.071
-2,3,2.072
-25,3,2.073
-40,4,2.074
-30,2,2.075
-20,2,2.076
-10,1,2.077
-1,3,2.078
3,3,2.079
8,3,2.08
16,3,2.081
25,3,2.082
41,0,2.083
59,-5,2.084
85,-8,2.085
94,-8,2.086
44,-6,2.087
0,-4,2.088
-27,2,2.089
-49,8,2.09
-54,12,2.091
-58,9,2.092
-58,3,2.093
-55,-2,2.094
-57,-4,2.095
-79,-4,2.096
-101,-8,2.097
-97,-6,2.098
-72,-2,2.099
-42,1,2.1
-4,2,2.101
47,1,2.102
110,2,2.103
160,3,2.104
178,1,2.105
156,-2,2.106
109,-3,2.107
55,-2,2.108
13,-3,2.109
-12,-6,2.11
-21,-9,2.111
-24,-9,2.112
-27,-7,2.113
-34,-6,2.114
-39,-7,2.115
-38,-5,2.116
-31,-6,2.117
-21,-7,2.118
-7,-7,2.119
9,-5,2.12
19,-1,2.121
20,3,2.122
20,4,2.123
22,3,2.124
21,2,2.125
11,3,2.126
0,3,2.127
-4,2,2.128
-8,1,2.129
-20,1,2.13
-27,0,2.131
-20,-1,2.132
-7,-1,2.133
-3,-1,2.134
-9,1,2.135
-14,3,2.136
-9,1,2.137
-1,1,2.138
6,2,2.139
11,4,2.14
12,7,2.141
7,8,2.142
0,6,2.143
-3,1,2.144
-11,-2,2.145
-32,-2,2.146
-64,1,2.147
-87,1,2.148
-76,-3,2.149
-27,-5,2.15
29,-2,2.151
60,0,2.152
66,1,2.153
76,-2,2.154
98,-5,2.155
100,-8,2.156
67,-15,2.157
29,-15,2.158
21,-10,2.159
29,-5,2.16
24,-2,2.161
16,-3,2.162
16,-3,2.163
13,1,2.164
-8,4,2.165
-25,6,2.166
-24,9,2.167
-18,10,2.168
-26,5,2.169
-36,0,2.17
-25,-1,2.171
-9,2,2.172
-7,4,2.173
-23,0,2.174
-33,-5,2.175
-32,-6,2.176
-32,-9,2.177
-35,-10,2.178
-28,-7,2.179
-3,-3,2.18
28,-1,2.181
51,-2,2.182
56,-3,2.183
49,2,2.184
39,10,2.185
29,14,2.186
7,15,2.187
-17,16,2.188
-23,18,2.189
-13,16,2.19
-12,9,2.191
-33,1,2.192
-48,0,2.193
-30,-3,2.194
14,-7,2.195
49,-10,2.196
52,-9,2.197
29,-6,2.198
-8,-6,2.199
-59,-8,2.2
-112,-7,2.201
-128,-6,2.202
-82,-8,2.203
-9,-11,2.204
27,-9,2.205
0,-4,2.206
-42,-3,2.207
-23,-6,2.208
52,-5,2.209
114,0,2.21
118,1,2.211
94,0,2.212
88,1,2.213
99,0,2.214
104,-3,2.215
86,-7,2.216
50,-9,2.217
1,-7,2.218
-53,-5,2.219
-90,-1,2.22
-96,7,2.221
-79,11,2.222
-63,9,2.223
-55,3,2.224
-38,1,2.225
-2,4,2.226
41,6,2.227
60,1,2.228
39,-3,2.229
0,-4,2.23
-17,0,2.231
2,1,2.232
32,-1,2.233
42,-7,2.234
27,-9,2.235
10,-7,2.236
12,-5,2.237
24,-5,2.238
31,-5,2.239
21,-2,2.24
-4,1,2.241
-22,3,2.242
-13,3,2.243
19,1,2.244
40,-3,2.245
25,-5,2.246
-14,-1,2.247
-45,9,2.248
-49,18,2.249
-30,22,2.25
1,18,2.251
24,8,2.252
21,-1,2.253
-20,-6,2.254
-69,-6,2.255
-79,-5,2.256
-37,-9,2.257
9,-9,2.258
10,-2,2.259
-36,5,2.26
-79,6,2.261
-59,3,2.262
27,0,2.263
117,0,2.264
144,2,2.265
95,2,2.266
28,-2,2.267
-7,-5,2.268
-12,-3,2.269
-16,0,2.27
-25,0,2.271
-21,-4,2.272
-1,-6,2.273
20,-6,2.274
24,-2,2.275
9,0,2.276
-6,-2,2.277
-7,-1,2.278
5,0,2.279
12,-1,2.28
-8,0,2.281
-45,1,2.282
-57,0,2.283
-17,-1,2.284
50,0,2.285
80,2,2.286
50,0,2.287
4,-3,2.288
-9,-3,2.289
0,-2,2.29
-6,-4,2.291
-22,-6,2.292
-20,-5,2.293
4,-5,2.294
24,-7,2.295
24,-11,2.296
14,-16,2.297
-5,-14,2.298
-23,-9,2.299
-10,-4,2.3
34,-1,2.301
53,0,2.302
7,1,2.303
-57,1,2.304
-73,4,2.305
-42,9,2.306
-9,10,2.307
20,9,2.308
61,10,2.309
82,13,2.31
40,13,2.311
-32,11,2.312
-63,10,2.313
-59,8,2.314
-67,3,2.315
-73,0,2.316
-75,-4,2.317
-65,-3,2.318
-18,-2,2.319
20,-2,2.32
28,-3,2.321
33,-4,2.322
27,-3,2.323
29,0,2.324
58,0,2.325
76,-3,2.326
62,-10,2.327
50,-14,2.328
43,-12,2.329
32,-8,2.33
9,-7,2.331
-8,-8,2.332
-5,-5,2.333
-1,1,2.334
6,6,2.335
13,6,2.336
26,0,2.337
31,-4,2.338
19,-5,2.339
6,-3,2.34
5,4,2.341
12,10,2.342
19,9,2.343
30,3,2.344
25,-1,2.345
-21,0,2.346
-79,5,2.347
-86,5,2.348
-30,0,2.349
23,-3,2.35
23,-3,2.351
-4,-4,2.352
-8,-8,2.353
17,-13,2.354
23,-14,2.355
-8,-11,2.356
-49,-14,2.357
-67,-17,2.358
-49,-13,2.359
-24,-3,2.36
-25,4,2.361
-39,3,2.362
-13,7,2.363
65,31,2.364
129,70,2.365
113,95,2.366
42,82,2.367
-16,36,2.368
-46,-18,2.369
-77,-60,2.37
-97,-83,2.371
-65,-95,2.372
5,-90,2.373
54,-72,2.374
39,-44,2.375
-12,-21,2.376
-45,-10,2.377
-32,11,2.378
10,45,2.379
47,74,2.38
61,76,2.381
75,51,2.382
116,22,2.383
145,5,2.384
106,-5,2.385
11,-20,2.386
-57,-35,2.387
-60,-41,2.388
-46,-36,2.389
-56,-29,2.39
-54,-23,2.391
-6,-14,2.392
47,-2,2.393
50,6,2.394
8,13,2.395
-29,22,2.396
-47,23,2.397
-77,22,2.398
-122,22,2.399
-149,26,2.4
-119,24,2.401
-32,17,2.402
86,7,2.403
191,1,2.404
220,-1,2.405
145,-4,2.406
19,-3,2.407
-50,4,2.408
-19,13,2.409
48,16,2.41
72,23,2.411
48,51,2.412
20,98,2.413
-5,117,2.414
-32,61,2.415
-39,-63,2.416
1,-170,2.417
55,-186,2.418
54,-129,2.419
-9,-65,2.42
-81,-28,2.421
-113,-4,2.422
-110,15,2.423
-92,19,2.424
-60,14,2.425
5,22,2.426
114,36,2.427
236,37,2.428
300,25,2.429
252,16,2.43
126,11,2.431
0,3,2.432
-87,-6,2.433
-174,-10,2.434
-258,-9,2.435
-280,-16,2.436
-203,-25,2.437
-84,-17,2.438
-3,6,2.439
20,32,2.44
18,52,2.441
21,59,2.442
50,49,2.443
111,25,2.444
152,8,2.445
83,11,2.446
-122,42,2.447
-364,108,2.448
-468,203,2.449
-327,255,2.45
-9,171,2.451
243,-39,2.452
235,-229,2.453
7,-302,2.454
-175,-268,2.455
-140,-217,2.456
14,-184,2.457
139,-134,2.458
233,-72,2.459
323,-31,2.46
335,-10,2.461
228,14,2.462
109,41,2.463
70,56,2.464
38,64,2.465
-88,74,2.466
-265,79,2.467
-341,74,2.468
-237,74,2.469
-17,76,2.47
160,60,2.471
180,27,2.472
103,5,2.473
62,4,2.474
104,4,2.475
123,-7,2.476
76,-19,2.477
77,-18,2.478
173,-9,2.479
222,24,2.48
122,98,2.481
-6,164,2.482
-21,135,2.483
21,9,2.484
11,-94,2.485
-24,-77,2.486
-18,9,2.487
-28,56,2.488
-116,33,2.489
-209,-21,2.49
-211,-98,2.491
-151,-190,2.492
-111,-245,2.493
-101,-228,2.494
-90,-168,2.495
-100,-122,2.496
-154,-85,2.497
-189,-23,2.498
-120,46,2.499
28,95,2.5
149,138,2.501
175,179,2.502
133,164,2.503
82,76,2.504
52,-11,2.505
35,-31,2.506
11,-1,2.507
-20,54,2.508
-48,148,2.509
-55,243,2.51
-38,220,2.511
-18,47,2.512
-27,-138,2.513
-77,-231,2.514
-129,-231,2.515
-123,-210,2.516
-45,-172,2.517
51,-83,2.518
118,13,2.519
159,53,2.52
183,50,2.521
175,55,2.522
128,64,2.523
79,52,2.524
71,29,2.525
97,29,2.526
113,37,2.527
87,38,2.528
10,57,2.529
-113,108,2.53
-234,145,2.531
-250,107,2.532
-122,8,2.533
67,-101,2.534
139,-155,2.535
57,-140,2.536
-7,-89,2.537
77,-34,2.538
201,-8,2.539
186,-7,2.54
52,-10,2.541
-32,1,2.542
-25,18,2.543
-56,20,2.544
-168,12,2.545
-244,13,2.546
-187,35,2.547
-47,69,2.548
79,99,2.549
148,114,2.55
145,109,2.551
69,82,2.552
-7,48,2.553
4,7,2.554
112,-40,2.555
178,-95,2.556
96,-142,2.557
-54,-158,2.558
-109,-145,2.559
-51,-124,2.56
-8,-95,2.561
-57,-48,2.562
-124,31,2.563
-118,130,2.564
-85,209,2.565
-101,211,2.566
-136,116,2.567
-101,-17,2.568
-6,-92,2.569
48,-84,2.57
32,-59,2.571
13,-72,2.572
29,-101,2.573
47,-120,2.574
33,-125,2.575
6,-132,2.576
-7,-127,2.577
-22,-80,2.578
-54,0,2.579
-84,77,2.58
-93,129,2.581
-70,159,2.582
-13,195,2.583
67,251,2.584
142,274,2.585
179,188,2.586
184,-8,2.587
169,-198,2.588
130,-273,2.589
66,-246,2.59
1,-181,2.591
-33,-77,2.592
-44,64,2.593
-55,165,2.594
-71,122,2.595
-99,-28,2.596
-162,-136,2.597
-236,-137,2.598
-244,-102,2.599
-141,-78,2.6
8,-35,2.601
103,27,2.602
141,59,2.603
203,56,2.604
287,73,2.605
265,123,2.606
64,144,2.607
-168,113,2.608
-194,88,2.609
27,107,2.61
267,132,2.611
320,137,2.612
234,144,2.613
153,110,2.614
108,-22,2.615
6,-155,2.616
-151,-287,2.617
-219,-364,2.618
-121,-274,2.619
20,-189,2.62
39,-119,2.621
-80,-55,2.622
-210,-9,2.623
-235,23,2.624
-151,14,2.625
-38,40,2.626
22,174,2.627
6,317,2.628
-40,486,2.629
-64,546,2.63
-52,275,2.631
-35,9,2.632
-33,-239,2.633
-29,-413,2.634
12,-324,2.635
73,-207,2.636
101,-7,2.637
77,282,2.638
34,376,2.639
-13,69,2.64
-69,-384,2.641
-103,-572,2.642
-48,-462,2.643
89,-315,2.644
187,-223,2.645
151,-94,2.646
45,46,2.647
-20,66,2.648
-41,10,2.649
-84,36,2.65
-128,145,2.651
-94,230,2.652
-17,337,2.653
-9,609,2.654
-137,917,2.655
-335,880,2.656
-408,329,2.657
-251,-394,2.658
58,-832,2.659
330,-873,2.66
451,-716,2.661
474,-502,2.662
481,-235,2.663
422,19,2.664
217,129,2.665
-32,93,2.666
-110,69,2.667
7,136,2.668
108,204,2.669
59,190,2.67
-36,146,2.671
-64,150,2.672
-74,189,2.673
-143,214,2.674
-169,204,2.675
-92,147,2.676
4,28,2.677
14,-106,2.678
-58,-171,2.679
-152,-131,2.68
-240,-53,2.681
-294,-16,2.682
-267,-22,2.683
-169,-36,2.684
-72,-46,2.685
-5,-32,2.686
63,50,2.687
144,204,2.688
203,318,2.689
215,233,2.69
179,-44,2.691
98,-304,2.692
31,-373,2.693
68,-295,2.694
209,-228,2.695
298,-193,2.696
225,-74,2.697
89,171,2.698
28,427,2.699
6,592,2.7
-72,642,2.701
-156,507,2.702
-161,99,2.703
-153,-458,2.704
-235,-845,2.705
-337,-889,2.706
-301,-719,2.707
-134,-521,2.708
13,-319,2.709
84,-94,2.71
148,66,2.711
226,104,2.712
234,109,2.713
123,169,2.714
-7,242,2.715
-57,317,2.716
-70,395,2.717
-142,506,2.718
-218,717,2.719
-142,864,2.72
80,816,2.721
249,652,2.722
236,146,2.723
142,-347,2.724
103,-799,2.725
68,-1098,2.726
-75,-934,2.727
-282,-745,2.728
-399,-487,2.729
-373,-250,2.73
-259,-79,2.731
-95,57,2.732
99,89,2.733
248,127,2.734
266,194,2.735
274,235,2.736
244,215,2.737
221,178,2.738
216,149,2.739
175,116,2.74
27,78,2.741
-62,75,2.742
29,121,2.743
86,162,2.744
36,157,2.745
-4,126,2.746
-18,127,2.747
-38,209,2.748
-75,370,2.749
-114,513,2.75
-154,476,2.751
-181,191,2.752
-167,-198,2.753
-154,-564,2.754
-147,-793,2.755
-149,-853,2.756
-161,-739,2.757
-147,-482,2.758
-63,-219,2.759
59,-72,2.76
121,-21,2.761
75,25,2.762
-14,97,2.763
-28,196,2.764
64,353,2.765
179,566,2.766
228,739,2.767
220,783,2.768
208,673,2.769
170,391,2.77
51,-54,2.771
-103,-503,2.772
-167,-739,2.773
-111,-756,2.774
-56,-677,2.775
-123,-528,2.776
-242,-221,2.777
-253,153,2.778
-130,297,2.779
3,119,2.78
74,-83,2.781
158,-24,2.782
315,237,2.783
448,513,2.784
425,770,2.785
278,928,2.786
165,715,2.787
126,23,2.788
51,-745,2.789
-99,-1070,2.79
-173,-893,2.791
-61,-543,2.792
73,-272,2.793
-33,-104,2.794
-408,-99,2.795
-772,-264,2.796
-862,-408,2.797
-690,-328,2.798
-391,-70,2.799
-20,238,2.8
374,599,2.801
605,941,2.802
512,978,2.803
200,574,2.804
-35,45,2.805
-10,-192,2.806
210,-98,2.807
410,88,2.808
410,207,2.809
222,226,2.81
56,111,2.811
78,-119,2.812
164,-352,2.813
69,-563,2.814
-197,-755,2.815
-340,-851,2.816
-181,-715,2.817
83,-379,2.818
192,-40,2.819
128,197,2.82
6,332,2.821
-134,312,2.822
-238,123,2.823
-173,-19,2.824
58,129,2.825
226,466,2.826
168,641,2.827
17,483,2.828
-33,130,2.829
-36,-199,2.83
-167,-348,2.831
-404,-222,2.832
-542,108,2.833
-473,443,2.834
-239,532,2.835
36,385,2.836
241,259,2.837
316,354,2.838
299,602,2.839
269,741,2.84
226,516,2.841
111,-101,2.842
-32,-792,2.843
-68,-1119,2.844
27,-954,2.845
119,-557,2.846
93,-221,2.847
-27,-31,2.848
-163,0,2.849
-234,-124,2.85
-169,-231,2.851
-2,-71,2.852
94,262,2.853
-22,420,2.854
-268,193,2.855
-427,-208,2.856
-402,-512,2.857
-272,-710,2.858
-115,-847,2.859
56,-814,2.86
229,-573,2.861
388,-299,2.862
546,-132,2.863
651,6,2.864
591,202,2.865
337,368,2.866
48,417,2.867
-91,420,2.868
-82,461,2.869
-64,536,2.87
-114,634,2.871
-188,752,2.872
-210,795,2.873
-165,591,2.874
-96,225,2.875
-86,-69,2.876
-149,-147,2.877
-181,-206,2.878
-45,-203,2.879
206,-146,2.88
353,71,2.881
269,292,2.882
84,522,2.883
1,611,2.884
34,275,2.885
50,-72,2.886
9,-455,2.887
7,-693,2.888
68,-495,2.889
56,-238,2.89
-128,193,2.891
-356,623,2.892
-407,1047,2.893
-255,1331,2.894
-104,894,2.895
-33,73,2.896
-206,-730,2.897
-345,-1247,2.898
-382,-1398,2.899
-389,-1168,2.9
-299,-632,2.901
-196,-53,2.902
-54,208,2.903
113,-34,2.904
353,-582,2.905
569,-975,2.906
711,-893,2.907
805,-407,2.908
751,152,2.909
651,484,2.91
417,456,2.911
188,153,2.912
-26,-110,2.913
-226,-49,2.914
-349,322,2.915
-363,601,2.916
-205,465,2.917
34,102,2.918
135,-97,2.919
19,-40,2.92
-135,39,2.921
-173,-20,2.922
-190,-122,2.923
-332,-115,2.924
-509,-26,2.925
-527,-6,2.926
-394,-101,2.927
-280,-181,2.928
-255,-115,2.929
-245,54,2.93
-188,209,2.931
-62,345,2.932
128,504,2.933
349,630,2.934
444,581,2.935
353,407,2.936
260,319,2.937
338,353,2.938
476,274,2.939
439,-18,2.94
223,-258,2.941
37,-171,2.942
-16,122,2.943
-50,301,2.944
-168,307,2.945
-306,317,2.946
-354,334,2.947
-297,124,2.948
-195,-384,2.949
-108,-907,2.95
-49,-1132,2.951
47,-1023,2.952
241,-684,2.953
462,-8,2.954
432,945,2.955
24,1646,2.956
-405,1380,2.957
-401,85,2.958
-69,-1431,2.959
41,-2285,2.96
-215,-2288,2.961
-335,-1777,2.962
-2,-967,2.963
374,159,2.964
315,1413,2.965
34,2203,2.966
30,1988,2.967
279,891,2.968
355,-303,2.969
136,-899,2.97
-96,-938,2.971
-170,-913,2.972
-206,-979,2.973
-290,-847,2.974
-350,-373,2.975
-394,146,2.976
-388,406,2.977
-324,523,2.978
-82,717,2.979
133,957,2.98
271,1115,2.981
316,1166,2.982
78,1076,2.983
-79,775,2.984
2,411,2.985
104,308,2.986
267,494,2.987
439,559,2.988
639,183,2.989
757,-491,2.99
631,-1109,2.991
450,-1419,2.992
107,-1270,2.993
-184,-566,2.994
-227,325,2.995
-168,714,2.996
-107,356,2.997
-113,-214,2.998
-282,-497,2.999
-573,-664,3.0
-678,-1036,3.001
-382,-1357,3.002
13,-1133,3.003
64,-418,3.004
-93,262,3.005
63,587,3.006
525,655,3.007
667,641,3.008
241,609,3.009
-221,564,3.01
-269,474,3.011
-184,341,3.012
-334,298,3.013
-549,457,3.014
-418,623,3.015
-27,438,3.016
177,-60,3.017
88,-418,3.018
-27,-448,3.019
-77,-469,3.02
-234,-698,3.021
-498,-855,3.022
-587,-650,3.023
-309,-254,3.024
187,80,3.025
605,445,3.026
755,918,3.027
637,1152,3.028
412,809,3.029
276,148,3.03
253,-308,3.031
183,-483,3.032
-3,-648,3.033
-216,-869,3.034
-323,-894,3.035
-388,-671,3.036
-486,-445,3.037
-480,-297,3.038
-215,-8,3.039
148,548,3.04
285,1185,3.041
194,1580,3.042
182,1477,3.043
336,816,3.044
355,-99,3.045
20,-680,3.046
-440,-624,3.047
-647,-256,3.048
-507,-92,3.049
-180,-249,3.05
182,-520,3.051
466,-754,3.052
561,-891,3.053
487,-841,3.054
402,-565,3.055
303,-213,3.056
164,58,3.057
0,270,3.058
-240,485,3.059
-406,718,3.06
-348,1002,3.061
-250,1283,3.062
-32,1280,3.063
157,763,3.064
262,-8,3.065
313,-450,3.066
203,-294,3.067
66,183,3.068
-150,526,3.069
-296,455,3.07
-229,-42,3.071
-144,-671,3.072
-8,-959,3.073
86,-693,3.074
23,-188,3.075
-44,-35,3.076
-89,-444,3.077
-97,-1041,3.078
-13,-1342,3.079
131,-1195,3.08
217,-755,3.081
208,-240,3.082
192,180,3.083
207,405,3.084
181,444,3.085
43,458,3.086
-164,600,3.087
-315,834,3.088
-319,991,3.089
-232,976,3.09
-214,793,3.091
-334,429,3.092
-451,-58,3.093
-415,1284,3.094
-289,-143,3.095
-189,-1128,3.096
-42,-777,3.097
248,-500,3.098
555,-440,3.099
636,-430,3.1
463,-568,3.101
251,-525,3.102
195,55,3.103
290,605,3.104
413,1062,3.105
430,1087,3.106
270,-181,3.107
-36,-1072,3.108
-390,-817,3.109
-694,-346,3.11
-871,768,3.111
-816,1659,3.112
-503,1882,3.113
-316,929,3.114
201,-80,3.115
549,-776,3.116
372,-528,3.117
151,-332,3.118
-198,-290,3.119
-425,-283,3.12
-268,-380,3.121
-168,-350,3.122
-243,60,3.123
-318,449,3.124
-400,772,3.125
-450,790,3.126
-407,-107,3.127
-330,-736,3.128
-145,-556,3.129
113,-223,3.13
597,564,3.131
942,1194,3.132
865,1351,3.133
-137,1265,3.134
91,97,3.135
244,-1141,3.136
166,-1582,3.137
69,-1331,3.138
-85,-1121,3.139
-185,-1144,3.14
-116,-957,3.141
-72,-391,3.142
-105,179,3.143
-138,423,3.144
-174,387,3.145
-196,223,3.146
-177,34,3.147
-143,-30,3.148
-62,138,3.149
52,429,3.15
265,658,3.151
417,778,3.152
383,813,3.153
332,710,3.154
281,423,3.155
286,38,3.156
223,-282,3.157
60,-440,3.158
-74,-444,3.159
-70,-344,3.16
-8,-210,3.161
-40,-94,3.162
-180,0,3.163
-301,92,3.164
-318,191,3.165
-286,304,3.166
-290,423,3.167
-281,482,3.168
-97,406,3.169
291,196,3.17
612,-51,3.171
556,-214,3.172
220,-149,3.173
-45,281,3.174
-18,917,3.175
128,1227,3.176
208,761,3.177
304,-302,3.178
451,-1327,3.179
411,-1833,3.18
59,-1793,3.181
-302,-1416,3.182
-368,-903,3.183
-281,-372,3.184
-304,135,3.185
-346,564,3.186
-183,764,3.187
81,638,3.188
147,390,3.189
-42,348,3.19
-258,512,3.191
-311,542,3.192
-227,275,3.193
-113,-151,3.194
-83,-425,3.195
-164,-392,3.196
-231,-66,3.197
-154,352,3.198
20,478,3.199
148,83,3.2
223,-547,3.201
347,-894,3.202
459,-807,3.203
388,-509,3.204
163,-94,3.205
23,546,3.206
46,1239,3.207
52,1439,3.208
-64,866,3.209
-160,3,3.21
-136,-375,3.211
-113,-46,3.212
-153,452,3.213
-92,550,3.214
181,112,3.215
433,-520,3.216
360,-1000,3.217
22,-1253,3.218
-279,-1310,3.219
-398,-1129,3.22
-364,-743,3.221
-187,-320,3.222
83,53,3.223
262,453,3.224
241,842,3.225
153,932,3.226
130,587,3.227
114,132,3.228
39,-11,3.229
-28,150,3.23
-62,292,3.231
-121,245,3.232
-151,118,3.233
-52,-12,3.234
79,-127,3.235
38,-189,3.236
-121,-132,3.237
-153,32,3.238
-60,207,3.239
-76,305,3.24
-226,290,3.241
-297,208,3.242
-224,157,3.243
-133,153,3.244
-60,85,3.245
57,-47,3.246
187,-36,3.247
232,167,3.248
189,234,3.249
87,-60,3.25
-37,-325,3.251
-64,-47,3.252
109,528,3.253
394,735,3.254
501,297,3.255
354,-223,3.256
181,-237,3.257
127,114,3.258
108,279,3.259
61,54,3.26
26,-283,3.261
-29,-454,3.262
-183,-522,3.263
-352,-731,3.264
-375,-1092,3.265
-292,-1284,3.266
-281,-1048,3.267
-358,-531,3.268
-357,15,3.269
-191,663,3.27
55,1498,3.271
249,2040,3.272
331,1665,3.273
325,449,3.274
293,-647,3.275
249,-1402,3.276
124,-1132,3.277
-80,-813,3.278
-206,-347,3.279
-148,72,3.28
-53,348,3.281
-90,462,3.282
-168,85,3.283
-116,-215,3.284
-32,-287,3.285
-130,-302,3.286
-341,-144,3.287
-381,21,3.288
-196,213,3.289
-12,362,3.29
67,384,3.291
181,384,3.292
394,317,3.293
-83,240,3.294
-103,143,3.295
-78,115,3.296
80,175,3.297
136,233,3.298
-122,186,3.299
-312,63,3.3
-299,0,3.301
-234,73,3.302
-16,220,3.303
202,339,3.304
431,366,3.305
542,251,3.306
292,-32,3.307
44,-387,3.308
-199,-612,3.309
-334,-602,3.31
-137,-442,3.311
43,-246,3.312
175,-34,3.313
-61,207,3.314
-75,330,3.315
-57,202,3.316
59,-75,3.317
100,-229,3.318
-89,-153,3.319
-228,1,3.32
-218,64,3.321
-171,48,3.322
-12,50,3.323
148,54,3.324
315,-26,3.325
396,-167,3.326
214,-233,3.327
33,-162,3.328
-145,-46,3.329
-244,28,3.33
-100,96,3.331
32,211,3.332
128,317,3.333
184,318,3.334
80,203,3.335
-28,81,3.336
-63,55,3.337
-75,126,3.338
-137,200,3.339
-215,185,3.34
-205,58,3.341
-103,-97,3.342
-25,-143,3.343
-22,-38,3.344
4,80,3.345
130,26,3.346
256,-222,3.347
227,-487,3.348
56,-581,3.349
-99,-489,3.35
-140,-355,3.351
-81,-306,3.352
23,-285,3.353
167,-63,3.354
311,487,3.355
368,1122,3.356
267,1293,3.357
20,689,3.358
-220,-322,3.359
-251,-919,3.36
-33,-620,3.361
225,154,3.362
291,486,3.363
184,-56,3.364
74,-956,3.365
-5,-1378,3.366
-137,-1068,3.367
-286,-453,3.368
-320,9,3.369
-220,253,3.37
-95,376,3.371
-7,370,3.372
56,252,3.373
77,154,3.374
43,196,3.375
19,291,3.376
25,347,3.377
8,458,3.378
-77,664,3.379
-150,709,3.38
-185,341,3.381
-177,-243,3.382
-36,-564,3.383
80,-446,3.384
121,-158,3.385
135,14,3.386
61,69,3.387
5,101,3.388
1,102,3.389
-3,56,3.39
-3,29,3.391
-19,53,3.392
-88,66,3.393
-151,26,3.394
-153,-1,3.395
-68,32,3.396
54,62,3.397
139,38,3.398
131,2,3.399
35,2,3.4
-64,12,3.401
-61,-10,3.402
43,-35,3.403
123,-29,3.404
87,-16,3.405
12,-26,3.406
20,-27,3.407
81,13,3.408
71,64,3.409
-14,60,3.41
-61,-23,3.411
-22,-134,3.412
35,-197,3.413
69,-192,3.414
104,-140,3.415
127,-88,3.416
81,-53,3.417
-7,-23,3.418
-38,4,3.419
0,28,3.42
10,51,3.421
-41,68,3.422
-69,64,3.423
-34,36,3.424
-1,10,3.425
-31,2,3.426
-103,-3,3.427
-186,-17,3.428
-249,-19,3.429
-236,1,3.43
-104,15,3.431
69,2,3.432
148,-17,3.433
100,-18,3.434
42,-2,3.435
79,9,3.436
198,10,3.437
307,13,3.438
337,15,3.439
265,16,3.44
119,60,3.441
-36,177,3.442
-126,306,3.443
-135,290,3.444
-95,42,3.445
-55,-308,3.446
-43,-514,3.447
-60,-457,3.448
-77,-257,3.449
-74,-95,3.45
-56,-2,3.451
-51,118,3.452
-57,289,3.453
-55,418,3.454
-44,352,3.455
-35,78,3.456
-38,-222,3.457
-35,-343,3.458
-13,-268,3.459
3,-144,3.46
5,-75,3.461
5,-29,3.462
0,43,3.463
-5,125,3.464
-3,200,3.465
0,283,3.466
5,332,3.467
11,258,3.468
12,69,3.469
14,-88,3.47
20,-124,3.471
25,-109,3.472
23,-135,3.473
25,-191,3.474
31,-210,3.475
13,-189,3.476
-25,-164,3.477
-59,-117,3.478
-58,-32,3.479
-24,42,3.48
13,60,3.481
20,48,3.482
10,56,3.483
39,78,3.484
124,73,3.485
189,56,3.486
157,58,3.487
66,70,3.488
14,63,3.489
25,44,3.49
20,35,3.491
-28,34,3.492
-63,26,3.493
-51,8,3.494
-35,3,3.495
-65,5,3.496
-102,-6,3.497
-86,-21,3.498
-24,-23,3.499
20,-17,3.5
20,-14,3.501
13,-12,3.502
26,1,3.503
37,18,3.504
23,22,3.505
-4,10,3.506
-16,-3,3.507
-5,-11,3.508
3,-12,3.509
-5,-15,3.51
-18,-23,3.511
-18,-28,3.512
1,-21,3.513
26,-8,3.514
24,2,3.515
-25,11,3.516
-81,12,3.517
-93,10,3.518
-54,-3,3.519
-8,-14,3.52
20,-16,3.521
45,-16,3.522
75,-9,3.523
79,-3,3.524
52,-1,3.525
34,0,3.526
28,2,3.527
-39,0,3.528
-187,-13,3.529
-290,-21,3.53
-216,-3,3.531
-14,9,3.532
149,5,3.533
230,-2,3.534
278,-15,3.535
295,-15,3.536
207,-10,3.537
15,-7,3.538
-136,-10,3.539
-144,-8,3.54
-58,2,3.541
31,13,3.542
127,8,3.543
245,-6,3.544
312,-14,3.545
247,-12,3.546
95,-6,3.547
-22,-6,3.548
-76,-5,3.549
-124,-1,3.55
-199,1,3.551
-247,-3,3.552
-230,-5,3.553
-175,-1,3.554
-129,10,3.555
-99,23,3.556
-70,29,3.557
-41,24,3.558
-19,12,3.559
-4,5,3.56
2,8,3.561
1,9,3.562
10,0,3.563
35,-10,3.564
49,-10,3.565
29,-4,3.566
12,1,3.567
41,-1,3.568
78,-3,3.569
32,-5,3.57
-91,-4,3.571
-176,0,3.572
-147,6,3.573
-51,7,3.574
20,3,3.575
44,2,3.576
45,-2,3.577
26,-8,3.578
1,-15,3.579
37,-10,3.58
145,6,3.581
219,16,3.582
158,11,3.583
29,-2,3.584
-30,-10,3.585
6,-8,3.586
46,-3,3.587
26,-2,3.588
-35,-1,3.589
-95,5,3.59
-112,12,3.591
-73,10,3.592
-21,-1,3.593
-19,-10,3.594
-60,-5,3.595
-98,2,3.596
-126,-4,3.597
-149,-12,3.598
-160,-6,3.599
-136,6,3.6
-4,8,3.601
125,-1,3.602
246,-3,3.603
345,4,3.604
375,10,3.605
348,9,3.606
150,3,3.607
-21,-3,3.608
-115,-9,3.609
-157,-9,3.61
-38,-2,3.611
45,6,3.612
17,8,3.613
-5,1,3.614
30,-1,3.615
88,1,3.616
69,-4,3.617
-11,-12,3.618
-59,-15,3.619
-56,-6,3.62
-49,6,3.621
-53,8,3.622
-56,-3,3.623
-65,-13,3.624
-83,-9,3.625
-81,1,3.626
-47,4,3.627
-19,0,3.628
-14,-5,3.629
-11,-6,3.63
-5,-8,3.631
-24,-8,3.632
-60,1,3.633
-78,14,3.634
-63,16,3.635
-43,8,3.636
-32,-1,3.637
-13,2,3.638
30,8,3.639
82,8,3.64
116,0,3.641
107,-8,3.642
49,-11,3.643
-20,-5,3.644
-31,3,3.645
41,1,3.646
128,-11,3.647
110,-21,3.648
-69,-13,3.649
-300,0,3.65
-380,7,3.651
-222,5,3.652
30,4,3.653
218,4,3.654
299,-1,3.655
328,-9,3.656
293,-15,3.657
128,-10,3.658
-83,5,3.659
-150,23,3.66
-42,25,3.661
58,4,3.662
36,-26,3.663
-27,-35,3.664
-26,-11,3.665
5,22,3.666
4,34,3.667
-9,22,3.668
2,11,3.669
15,9,3.67
-19,10,3.671
-114,6,3.672
-240,-1,3.673
-348,-10,3.674
-333,-17,3.675
-156,-19,3.676
53,-20,3.677
104,-19,3.678
-6,-18,3.679
-80,-12,3.68
28,-5,3.681
227,1,3.682
351,5,3.683
376,7,3.684
356,8,3.685
268,5,3.686
93,-3,3.687
-29,-11,3.688
42,-11,3.689
192,-3,3.69
168,3,3.691
-40,-5,3.692
-186,-17,3.693
-164,-20,3.694
-115,-8,3.695
-175,1,3.696
-270,-1,3.697
-285,-2,3.698
-244,11,3.699
-193,26,3.7
-82,20,3.701
87,2,3.702
184,-4,3.703
125,3,3.704
19,6,3.705
-11,-4,3.706
16,-11,3.707
15,-6,3.708
-6,-1,3.709
6,-4,3.71
41,-6,3.711
58,1,3.712
66,14,3.713
91,20,3.714
103,15,3.715
49,8,3.716
-49,2,3.717
-104,-3,3.718
-94,-7,3.719
-76,-14,3.72
-78,-18,3.721
-49,-15,3.722
18,-10,3.723
40,-5,3.724
-21,4,3.725
-59,16,3.726
21,23,3.727
137,17,3.728
162,6,3.729
122,-2,3.73
123,-8,3.731
143,-11,3.732
79,-9,3.733
-70,-2,3.734
-171,4,3.735
-187,8,3.736
-208,2,3.737
-266,-2,3.738
-251,-1,3.739
-93,0,3.74
102,-3,3.741
209,-5,3.742
230,-2,3.743
232,0,3.744
216,-4,3.745
155,-7,3.746
87,-8,3.747
57,-10,3.748
24,-12,3.749
-65,-14,3.75
-149,-14,3.751
-109,-9,3.752
27,15,3.753
105,34,3.754
61,25,3.755
17,-6,3.756
-24,-33,3.757
-58,-32,3.758
-65,-12,3.759
-66,6,3.76
-44,10,3.761
-27,9,3.762
-22,9,3.763
-32,7,3.764
-88,1,3.765
-121,-3,3.766
-83,0,3.767
-26,8,3.768
91,8,3.769
166,4,3.77
110,5,3.771
62,5,3.772
39,1,3.773
22,-9,3.774
13,-11,3.775
-7,-3,3.776
-19,-1,3.777
-28,-4,3.778
-52,-7,3.779
-88,-1,3.78
-118,6,3.781
-115,7,3.782
-68,5,3.783
0,4,3.784
33,5,3.785
5,1,3.786
-36,-5,3.787
-29,-5,3.788
36,-2,3.789
101,-2,3.79
105,-1,3.791
50,-2,3.792
0,-4,3.793
1,-8,3.794
35,-12,3.795
46,-10,3.796
25,-9,3.797
19,-5,3.798
40,4,3.799
44,19,3.8
15,29,3.801
-7,30,3.802
3,22,3.803
4,9,3.804
-31,-1,3.805
-63,-6,3.806
-40,-4,3.807
22,-1,3.808
66,0,3.809
67,-1,3.81
41,4,3.811
-4,16,3.812
-76,21,3.813
-174,7,3.814
-231,-9,3.815
-173,-21,3.816
-6,-17,3.817
166,-13,3.818
250,-16,3.819
235,-16,3.82
156,-5,3.821
37,3,3.822
-74,4,3.823
-99,6,3.824
-17,8,3.825
79,10,3.826
95,10,3.827
50,8,3.828
5,4,3.829
-45,0,3.83
-124,-6,3.831
-175,-10,3.832
-141,-6,3.833
-60,-2,3.834
-6,-7,3.835
40,-14,3.836
68,-15,3.837
85,-6,3.838
71,0,3.839
68,-3,3.84
100,-19,3.841
122,-30,3.842
114,-25,3.843
88,-13,3.844
13,-9,3.845
-62,-7,3.846
-135,9,3.847
-194,31,3.848
-207,30,3.849
-203,10,3.85
-143,0,3.851
-75,10,3.852
18,18,3.853
87,8,3.854
44,-7,3.855
1,-9,3.856
32,-12,3.857
92,-17,3.858
115,-17,3.859
107,-2,3.86
94,14,3.861
51,12,3.862
-27,0,3.863
-59,-4,3.864
11,0,3.865
100,3,3.866
80,-3,3.867
-35,-6,3.868
-115,-8,3.869
-82,-10,3.87
13,-7,3.871
90,2,3.872
113,10,3.873
78,5,3.874
-3,-4,3.875
-97,-5,3.876
-156,-6,3.877
-148,-7,3.878
-80,-6,3.879
7,11,3.88
57,36,3.881
46,44,3.882
15,27,3.883
21,2,3.884
58,-6,3.885
79,0,3.886
70,4,3.887
63,0,3.888
50,-3,3.889
-16,-2,3.89
-132,-1,3.891
-210,-6,3.892
-192,-10,3.893
-93,-10,3.894
31,-9,3.895
141,-10,3.896
202,-15,3.897
183,-13,3.898
95,-7,3.899
-7,-5,3.9
-76,-7,3.901
-99,-4,3.902
-80,3,3.903
-41,8,3.904
-14,6,3.905
-8,4,3.906
-4,5,3.907
9,4,3.908
15,0,3.909
1,-5,3.91
-14,-4,3.911
-18,-1,3.912
-17,-3,3.913
-9,-11,3.914
22,-16,3.915
64,-12,3.916
83,-11,3.917
69,-10,3.918
56,-4,3.919
58,7,3.92
35,18,3.921
-32,22,3.922
-96,17,3.923
-96,7,3.924
-40,-1,3.925
11,-5,3.926
36,1,3.927
55,11,3.928
67,12,3.929
40,0,3.93
-18,-11,3.931
-50,-15,3.932
-32,-12,3.933
-1,-15,3.934
-5,-22,3.935
-36,-23,3.936
-51,-18,3.937
-40,-6,3.938
-16,6,3.939
25,14,3.94
80,19,3.941
112,19,3.942
97,18,3.943
51,17,3.944
2,12,3.945
-60,3,3.946
-139,-1,3.947
-170,7,3.948
-94,18,3.949
23,16,3.95
69,4,3.951
39,-3,3.952
19,-2,3.953
17,-4,3.954
-35,-9,3.955
-103,-12,3.956
-20,-10,3.957
234,-4,3.958
417,-1,3.959
343,-1,3.96
121,-2,3.961
-33,-7,3.962
-108,-11,3.963
-214,-10,3.964
-317,-5,3.965
-281,-4,3.966
-121,-3,3.967
5,-4,3.968
25,-5,3.969
15,-8,3.97
28,-8,3.971
30,-4,3.972
0,-3,3.973
-21,-5,3.974
4,-2,3.975
44,3,3.976
54,0,3.977
40,-3,3.978
25,1,3.979
16,11,3.98
4,15,3.981
-17,13,3.982
-64,10,3.983
-123,7,3.984
-122,4,3.985
-3,1,3.986
154,-1,3.987
201,-7,3.988
106,-16,3.989
10,-21,3.99
19,-19,3.991
61,-13,3.992
24,-9,3.993
-84,-8,3.994
-141,3,3.995
-85,22,3.996
34,35,3.997
131,35,3.998
154,19,3.999
96,2,4.0
1,0,4.001
-58,7,4.002
-63,7,4.003
-57,-3,4.004
-78,-7,4.005
-100,-1,4.006
-102,4,4.007
-110,-3,4.008
-112,-13,4.009
-29,-14,4.01
161,-9,4.011
343,-9,4.012
395,-11,4.013
313,-11,4.014
164,-7,4.015
-19,-3,4.016
-202,-6,4.017
-295,-10,4.018
-244,-14,4.019
-122,-14,4.02
-25,-10,4.021
42,-6,4.022
91,-4,4.023
74,0,4.024
-29,6,4.025
-138,11,4.026
-156,10,4.027
-107,5,4.028
-63,3,4.029
-27,-4,4.03
35,-12,4.031
93,-13,4.032
97,-4,4.033
51,3,4.034
3,4,4.035
-24,0,4.036
-37,-2,4.037
-32,3,4.038
-9,5,4.039
13,2,4.04
12,-4,4.041
12,-14,4.042
42,-24,4.043
81,-22,4.044
78,-5,4.045
36,22,4.046
2,40,4.047
-3,42,4.048
-24,31,4.049
-90,19,4.05
-155,15,4.051
-140,18,4.052
-51,21,4.053
55,11,4.054
127,-2,4.055
158,-13,4.056
133,-18,4.057
22,-17,4.058
-135,-15,4.059
-183,-13,4.06
-30,-11,4.061
203,-7,4.062
312,-6,4.063
261,-9,4.064
181,-11,4.065
139,-10,4.066
65,-6,4.067
-67,-1,4.068
-156,7,4.069
-131,16,4.07
-68,15,4.071
-65,0,4.072
-101,-14,4.073
-107,-15,4.074
-64,-3,4.075
-18,4,4.076
-2,0,4.077
-2,2,4.078
-3,11,4.079
-8,13,4.08
-22,4,4.081
-34,-2,4.082
-14,1,4.083
31,4,4.084
54,0,4.085
13,-2,4.086
-80,-1,4.087
-162,0,4.088
-168,-6,4.089
-74,-11,4.09
63,-11,4.091
137,-6,4.092
105,0,4.093
44,2,4.094
41,-2,4.095
32,-11,4.096
10,-21,4.097
-5,-17,4.098
3,-6,4.099
6,-1,4.1
-3,-3,4.101
-12,-8,4.102
-12,-11,4.103
-13,-10,4.104
-17,4,4.105
-21,24,4.106
-29,29,4.107
-28,16,4.108
0,1,4.109
20,0,4.11
18,4,4.111
8,5,4.112
-25,9,4.113
-51,20,4.114
-19,29,4.115
66,22,4.116
152,1,4.117
192,-13,4.118
172,-14,4.119
106,-9,4.12
30,-1,4.121
-25,3,4.122
-55,5,4.123
-43,4,4.124
29,3,4.125
109,-1,4.126
88,-9,4.127
-43,-18,4.128
-137,-21,4.129
-82,-21,4.13
28,-18,4.131
43,-14,4.132
-22,-8,4.133
-73,0,4.134
-78,5,4.135
-110,3,4.136
-178,-5,4.137
-196,-9,4.138
-110,-5,4.139
16,1,4.14
95,6,4.141
107,5,4.142
81,-1,4.143
43,-14,4.144
26,-23,4.145
56,-18,4.146
110,-2,4.147
122,14,4.148
71,17,4.149
12,8,4.15
-1,-5,4.151
0,-7,4.152
-25,5,4.153
-56,18,4.154
-44,19,4.155
-18,7,4.156
-33,-5,4.157
-86,-7,4.158
-95,-8,4.159
-35,-8,4.16
35,-2,4.161
61,13,4.162
54,14,4.163
44,-5,4.164
28,-24,4.165
-3,-18,4.166
-31,9,4.167
-38,34,4.168
-44,43,4.169
-81,41,4.17
-130,34,4.171
-135,20,4.172
-77,6,4.173
16,-6,4.174
111,-11,4.175
204,-15,4.176
279,-20,4.177
281,-18,4.178
164,-16,4.179
-25,-19,4.18
-171,-20,4.181
-192,-13,4.182
-91,0,4.183
59,7,4.184
176,10,4.185
215,10,4.186
181,3,4.187
93,-10,4.188
-32,-17,4.189
-159,-12,4.19
-243,-2,4.191
-255,-1,4.192
-200,-4,4.193
-89,-6,4.194
19,-7,4.195
39,-10,4.196
-19,-14,4.197
-36,-10,4.198
47,-3,4.199
116,1,4.2
63,9,4.201
-33,20,4.202
-43,18,4.203
0,1,4.204
7,-13,4.205
13,-12,4.206
79,-6,4.207
123,-8,4.208
54,-8,4.209
-44,0,4.21
-47,9,4.211
-7,9,4.212
-30,0,4.213
-95,-6,4.214
-100,-6,4.215
-54,-2,4.216
-29,1,4.217
1,5,4.218
86,1,4.219
160,-6,4.22
129,-6,4.221
39,8,4.222
-7,23,4.223
-10,22,4.224
-32,4,4.225
-53,-11,4.226
-30,-15,4.227
-14,-5,4.228
-54,5,4.229
-73,9,4.23
18,8,4.231
134,8,4.232
118,20,4.233
-41,48,4.234
-174,88,4.235
-157,112,4.236
-28,85,4.237
106,15,4.238
181,-53,4.239
174,-88,4.24
98,-101,4.241
20,-113,4.242
-1,-112,4.243
12,-80,4.244
0,-32,4.245
-31,-4,4.246
-40,1,4.247
-24,7,4.248
-4,18,4.249
22,19,4.25
50,9,4.251
45,8,4.252
8,24,4.253
-17,37,4.254
-12,33,4.255
-27,18,4.256
-83,6,4.257
-119,3,4.258
-116,0,4.259
-128,-6,4.26
-153,-10,4.261
-96,-9,4.262
56,-6,4.263
170,0,4.264
164,4,4.265
119,9,4.266
122,11,4.267
136,4,4.268
95,-3,4.269
30,-3,4.27
0,6,4.271
-12,12,4.272
-27,8,4.273
-43,-2,4.274
-45,-7,4.275
-64,-3,4.276
-98,-3,4.277
-100,-6,4.278
-67,-6,4.279
-54,-3,4.28
-70,0,4.281
-40,2,4.282
67,8,4.283
161,20,4.284
142,27,4.285
34,16,4.286
-50,-6,4.287
-59,-17,4.288
-39,-8,4.289
-30,7,4.29
-10,11,4.291
49,9,4.292
114,14,4.293
127,17,4.294
75,17,4.295
4,22,4.296
-33,43,4.297
-23,51,4.298
23,21,4.299
63,-10,4.3
58,-48,4.301
3,-78,4.302
-46,-79,4.303
-55,-78,4.304
-34,-68,4.305
-6,-53,4.306
31,-22,4.307
52,16,4.308
14,78,4.309
-87,133,4.31
-168,162,4.311
-151,159,4.312
-68,54,4.313
-10,-43,4.314
-20,-90,4.315
-49,-112,4.316
-36,-145,4.317
10,-156,4.318
41,-114,4.319
26,-48,4.32
-27,-10,4.321
-71,2,4.322
-51,17,4.323
38,32,4.324
111,26,4.325
70,15,4.326
-49,22,4.327
-101,34,4.328
-11,31,4.329
130,18,4.33
200,15,4.331
193,18,4.332
175,12,4.333
151,0,4.334
78,-5,4.335
-43,0,4.336
-133,-2,4.337
-124,-4,4.338
-54,0,4.339
-8,7,4.34
-23,7,4.341
-70,0,4.342
-101,-5,4.343
-90,-3,4.344
-37,2,4.345
36,5,4.346
94,7,4.347
110,8,4.348
97,8,4.349
80,6,4.35
69,8,4.351
58,11,4.352
34,13,4.353
-17,9,4.354
-93,0,4.355
-152,-8,4.356
-136,-17,4.357
-46,-19,4.358
37,-19,4.359
39,-23,4.36
-12,-29,4.361
-30,-29,4.362
16,-20,4.363
61,-10,4.364
58,-2,4.365
34,4,4.366
29,11,4.367
25,19,4.368
-6,33,4.369
-30,53,4.37
-14,63,4.371
16,45,4.372
17,12,4.373
-12,-7,4.374
-35,5,4.375
-64,27,4.376
-127,21,4.377
-185,-5,4.378
-148,-22,4.379
2,-18,4.38
170,-8,4.381
241,-10,4.382
195,-19,4.383
98,-27,4.384
18,-26,4.385
-17,-17,4.386
-18,-8,4.387
1,0,4.388
29,3,4.389
41,-2,4.39
18,-11,4.391
-30,-13,4.392
-59,1,4.393
-50,29,4.394
-30,68,4.395
-38,97,4.396
-55,85,4.397
-43,32,4.398
-6,-36,4.399
6,-86,4.4
-16,-109,4.401
-35,-116,4.402
-29,-107,4.403
-19,-77,4.404
-18,-37,4.405
2,-10,4.406
42,-1,4.407
69,13,4.408
57,29,4.409
26,26,4.41
9,7,4.411
5,0,4.412
1,12,4.413
-4,25,4.414
-11,21,4.415
-21,13,4.416
-27,9,4.417
-20,12,4.418
0,10,4.419
17,8,4.42
20,10,4.421
15,13,4.422
9,12,4.423
4,11,4.424
2,13,4.425
4,13,4.426
4,11,4.427
-1,11,4.428
-4,14,4.429
-1,13,4.43
5,6,4.431
9,1,4.432
12,1,4.433
11,1,4.434
-6,0,4.435
-46,-2,4.436
-85,-5,4.437
-97,-8,4.438
-71,-8,4.439
-23,-9,4.44
32,-9,4.441
84,-9,4.442
128,-9,4.443
147,-9,4.444
129,-7,4.445
82,-6,4.446
37,-6,4.447
20,-8,4.448
17,-13,4.449
7,-15,4.45
-11,-5,4.451
-29,3,4.452
-47,9,4.453
-79,16,4.454
-108,18,4.455
-121,15,4.456
-81,0,4.457
-34,-9,4.458
34,-8,4.459
87,-2,4.46
96,4,4.461
99,18,4.462
79,39,4.463
42,43,4.464
-41,18,4.465
-87,-11,4.466
-20,-14,4.467
40,1,4.468
78,2,4.469
101,-16,4.47
79,-30,4.471
41,-22,4.472
-44,-7,4.473
-133,-6,4.474
-192,-11,4.475
-163,-11,4.476
-99,-8,4.477
-34,-4,4.478
40,-5,4.479
97,-7,4.48
92,-7,4.481
62,-6,4.482
65,-7,4.483
81,-8,4.484
48,-5,4.485
-12,3,4.486
-31,9,4.487
-15,8,4.488
-14,2,4.489
-28,3,4.49
-22,12,4.491
-4,25,4.492
-6,32,4.493
-22,34,4.494
-17,47,4.495
-5,86,4.496
-13,133,4.497
-27,150,4.498
-19,113,4.499
-2,45,4.5
-3,-24,4.501
-15,-90,4.502
-14,-164,4.503
-9,-224,4.504
-15,-232,4.505
-20,-188,4.506
-6,-132,4.507
22,-84,4.508
39,-37,4.509
37,4,4.51
25,25,4.511
12,21,4.512
3,23,4.513
1,35,4.514
9,44,4.515
8,51,4.516
-6,51,4.517
-19,48,4.518
-19,41,4.519
-18,34,4.52
-24,27,4.521
-20,22,4.522
7,22,4.523
42,22,4.524
60,23,4.525
60,24,4.526
51,20,4.527
13,16,4.528
-74,16,4.529
-157,12,4.53
-124,2,4.531
49,-8,4.532
229,-16,4.533
265,-22,4.534
179,-13,4.535
98,0,4.536
32,18,4.537
-37,35,4.538
-116,33,4.539
-160,25,4.54
-97,35,4.541
-41,73,4.542
-6,115,4.543
25,140,4.544
47,145,4.545
54,126,4.546
13,57,4.547
-35,-68,4.548
-106,-203,4.549
-185,-286,4.55
-286,-298,4.551
-301,-255,4.552
-55,-183,4.553
206,-103,4.554
401,-43,4.555
366,8,4.556
246,28,4.557
189,50,4.558
159,79,4.559
60,108,4.56
-77,135,4.561
-149,170,4.562
-147,226,4.563
-138,266,4.564
-124,254,4.565
-58,195,4.566
31,-5,4.567
56,-182,4.568
4,-289,4.569
-39,-361,4.57
-35,-325,4.571
-22,-276,4.572
-22,-193,4.573
-19,-107,4.574
-9,-35,4.575
-3,-9,4.576
-14,12,4.577
-19,61,4.578
-1,108,4.579
9,116,4.58
-3,97,4.581
-13,82,4.582
-19,76,4.583
-22,70,4.584
-15,74,4.585
0,107,4.586
38,155,4.587
65,180,4.588
55,146,4.589
44,61,4.59
31,-36,4.591
19,-95,4.592
12,-92,4.593
5,-34,4.594
-3,41,4.595
-13,67,4.596
-18,14,4.597
-16,-64,4.598
-7,-100,4.599
4,-98,4.6
11,-102,4.601
10,-113,4.602
8,-88,4.603
10,-27,4.604
11,14,4.605
8,11,4.606
2,1,4.607
0,10,4.608
-2,18,4.609
-7,11,4.61
-19,13,4.611
-33,36,4.612
-42,62,4.613
-28,85,4.614
24,116,4.615
93,150,4.616
125,159,4.617
83,141,4.618
-9,119,4.619
-99,90,4.62
-145,16,4.621
-118,-103,4.622
-14,-208,4.623
103,-237,4.624
146,-198,4.625
98,-120,4.626
32,-11,4.627
1,112,4.628
-12,195,4.629
-23,204,4.63
-15,159,4.631
8,96,4.632
12,17,4.633
-12,-86,4.634
-37,-149,4.635
-61,-120,4.636
-114,-54,4.637
-174,-58,4.638
-147,-177,4.639
13,-306,4.64
211,-301,4.641
305,-131,4.642
248,83,4.643
112,191,4.644
-5,140,4.645
-70,-2,4.646
-92,-126,4.647
-83,-159,4.648
-53,-114,4.649
-29,-60,4.65
-33,-50,4.651
-48,-71,4.652
-41,-77,4.653
-13,-56,4.654
2,-16,4.655
-6,20,4.656
-9,29,4.657
8,10,4.658
25,-14,4.659
20,-4,4.66
5,55,4.661
-1,158,4.662
0,320,4.663
-1,535,4.664
0,715,4.665
7,718,4.666
9,502,4.667
8,167,4.668
12,-155,4.669
21,-415,4.67
25,-617,4.671
23,-747,4.672
22,-787,4.673
21,-732,4.674
17,-592,4.675
3,-389,4.676
-16,-154,4.677
-32,67,4.678
-41,226,4.679
-39,323,4.68
-31,407,4.681
-27,514,4.682
-21,597,4.683
-10,549,4.684
4,321,4.685
15,2,4.686
16,-258,4.687
11,-365,4.688
7,-328,4.689
3,-202,4.69
0,-57,4.691
-6,47,4.692
-12,88,4.693
-15,97,4.694
-15,107,4.695
-25,115,4.696
-35,103,4.697
-10,94,4.698
59,131,4.699
115,241,4.7
113,408,4.701
78,559,4.702
60,569,4.703
36,343,4.704
-36,-73,4.705
-99,-500,4.706
-47,-767,4.707
96,-818,4.708
177,-686,4.709
116,-457,4.71
6,-232,4.711
-40,-87,4.712
-38,-22,4.713
-53,23,4.714
-79,81,4.715
-69,130,4.716
-38,145,4.717
-32,142,4.718
-44,134,4.719
-34,123,4.72
-10,105,4.721
-5,82,4.722
-14,56,4.723
-1,34,4.724
26,37,4.725
37,71,4.726
26,113,4.727
9,128,4.728
-11,110,4.729
-35,65,4.73
-43,5,4.731
-28,-50,4.732
-14,-83,4.733
-18,-95,4.734
-22,-87,4.735
-14,-69,4.736
-11,-44,4.737
-37,-11,4.738
-66,30,4.739
-46,85,4.74
29,150,4.741
116,198,4.742
155,201,4.743
128,152,4.744
67,67,4.745
21,-20,4.746
5,-79,4.747
0,-105,4.748
-6,-123,4.749
-8,-158,4.75
0,-190,4.751
3,-194,4.752
-7,-175,4.753
-19,-162,4.754
-16,-153,4.755
-11,-123,4.756
-15,-69,4.757
-18,-9,4.758
-7,37,4.759
4,68,4.76
0,81,4.761
-13,69,4.762
-19,46,4.763
-17,34,4.764
-15,37,4.765
-10,44,4.766
4,63,4.767
21,128,4.768
30,235,4.769
29,332,4.77
20,357,4.771
3,301,4.772
-10,202,4.773
-13,60,4.774
-4,-124,4.775
0,-331,4.776
-3,-487,4.777
-4,-518,4.778
6,-429,4.779
19,-296,4.78
23,-185,4.781
19,-110,4.782
19,-51,4.783
20,0,4.784
19,46,4.785
19,89,4.786
20,125,4.787
14,156,4.788
2,178,4.789
-6,182,4.79
-8,148,4.791
-10,75,4.792
-14,4,4.793
-14,-25,4.794
-10,-9,4.795
-6,21,4.796
-10,61,4.797
-12,139,4.798
-6,218,4.799
-1,188,4.8
-2,15,4.801
-7,-186,4.802
-12,-276,4.803
-16,-236,4.804
-29,-140,4.805
-44,-41,4.806
-49,44,4.807
-27,94,4.808
13,93,4.809
48,68,4.81
66,51,4.811
80,32,4.812
101,7,4.813
116,-7,4.814
106,17,4.815
79,58,4.816
58,77,4.817
32,61,4.818
-23,21,4.819
-92,-2,4.82
-137,48,4.821
-142,163,4.822
-126,248,4.823
-101,206,4.824
-69,49,4.825
-40,-133,4.826
-28,-272,4.827
-30,-339,4.828
-21,-317,4.829
2,-210,4.83
25,-67,4.831
38,88,4.832
50,298,4.833
59,611,4.834
59,862,4.835
42,761,4.836
27,219,4.837
31,-477,4.838
47,-935,4.839
52,-1010,4.84
35,-830,4.841
13,-565,4.842
3,-290,4.843
8,-53,4.844
10,99,4.845
2,188,4.846
-5,269,4.847
-5,325,4.848
-4,293,4.849
-10,215,4.85
-14,205,4.851
-9,255,4.852
4,233,4.853
14,55,4.854
14,-142,4.855
7,-179,4.856
2,-63,4.857
0,41,4.858
2,16,4.859
6,-94,4.86
7,-184,4.861
3,-203,4.862
-4,-163,4.863
-7,-84,4.864
-6,-1,4.865
0,43,4.866
11,42,4.867
18,39,4.868
19,63,4.869
18,87,4.87
15,78,4.871
15,53,4.872
14,45,4.873
6,51,4.874
-1,51,4.875
-13,45,4.876
-26,39,4.877
-35,32,4.878
-27,17,4.879
-11,12,4.88
-5,40,4.881
-12,85,4.882
-13,106,4.883
-3,90,4.884
5,78,4.885
0,133,4.886
-9,268,4.887
-12,383,4.888
-10,331,4.889
-7,70,4.89
-2,-274,4.891
2,-519,4.892
3,-588,4.893
4,-522,4.894
14,-374,4.895
22,-201,4.896
18,-65,4.897
6,3,4.898
7,36,4.899
18,88,4.9
20,169,4.901
9,241,4.902
1,268,4.903
7,242,4.904
14,180,4.905
15,110,4.906
15,46,4.907
18,4,4.908
16,51,4.909
5,252,4.91
-2,492,4.911
0,472,4.912
2,86,4.913
-1,-485,4.914
-8,-844,4.915
-14,-853,4.916
-18,-683,4.917
-17,-482,4.918
-9,-260,4.919
4,-42,4.92
9,108,4.921
0,229,4.922
-10,393,4.923
-8,519,4.924
5,465,4.925
15,277,4.926
18,130,4.927
21,55,4.928
23,-59,4.929
23,-207,4.93
18,-265,4.931
5,-221,4.932
-4,-182,4.933
-8,-141,4.934
-15,-19,4.935
-30,98,4.936
-44,204,4.937
-44,290,4.938
-29,316,4.939
-15,284,4.94
-10,77,4.941
-4,-114,4.942
14,-260,4.943
31,-354,4.944
34,-290,4.945
25,-217,4.946
22,-122,4.947
23,-39,4.948
18,2,4.949
4,40,4.95
-5,64,4.951
-6,89,4.952
1,117,4.953
12,137,4.954
28,131,4.955
44,114,4.956
55,71,4.957
63,23,4.958
62,14,4.959
40,41,4.96
-4,60,4.961
-45,57,4.962
-53,48,4.963
-48,39,4.964
-65,32,4.965
-107,66,4.966
-141,204,4.967
-146,433,4.968
-108,597,4.969
-21,483,4.97
84,40,4.971
142,-488,4.972
132,-769,4.973
89,-728,4.974
67,-527,4.975
51,-346,4.976
12,-191,4.977
-19,-5,4.978
-1,154,4.979
32,197,4.98
26,141,4.981
-3,66,4.982
-6,13,4.983
10,8,4.984
4,77,4.985
-19,170,4.986
-19,160,4.987
-5,11,4.988
-6,-135,4.989
-16,-93,4.99
-10,173,4.991
0,526,4.992
-2,741,4.993
-14,661,4.994
-10,277,4.995
-3,-225,4.996
-9,-614,4.997
-16,-803,4.998
-5,-845,4.999
15,-775,5.0
20,-586,5.001
12,-329,5.002
8,-108,5.003
8,36,5.004
2,132,5.005
-4,191,5.006
-5,198,5.007
-6,177,5.008
-9,178,5.009
-7,202,5.01
2,212,5.011
14,199,5.012
20,179,5.013
26,143,5.014
37,89,5.015
47,44,5.016
54,26,5.017
56,11,5.018
41,7,5.019
1,12,5.02
-62,51,5.021
-126,100,5.022
-164,178,5.023
-152,270,5.024
-88,405,5.025
4,483,5.026
89,386,5.027
143,191,5.028
156,-298,5.029
125,-666,5.03
56,-666,5.031
-14,-604,5.032
-44,-361,5.033
-37,-137,5.034
-22,33,5.035
-29,232,5.036
-48,397,5.037
-45,442,5.038
-15,341,5.039
20,129,5.04
30,-114,5.041
18,-305,5.042
6,-418,5.043
9,-489,5.044
15,-506,5.045
14,-400,5.046
11,-180,5.047
18,27,5.048
21,137,5.049
9,212,5.05
-7,342,5.051
-12,527,5.052
-5,655,5.053
-2,537,5.054
-5,160,5.055
-4,-165,5.056
9,-334,5.057
22,-386,5.058
25,-88,5.059
17,174,5.06
3,331,5.061
-12,353,5.062
-23,-35,5.063
-24,-352,5.064
-17,-456,5.065
-7,-488,5.066
-1,-298,5.067
0,-133,5.068
-1,-40,5.069
0,44,5.07
1,100,5.071
0,147,5.072
-4,169,5.073
2,243,5.074
34,472,5.075
72,560,5.076
78,397,5.077
43,44,5.078
8,-315,5.079
0,-468,5.08
0,-365,5.081
-19,-186,5.082
-51,-90,5.083
-62,-16,5.084
-50,114,5.085
-34,189,5.086
-20,137,5.087
1,109,5.088
23,205,5.089
26,202,5.09
14,-89,5.091
1,-443,5.092
-15,-510,5.093
-49,-314,5.094
-68,-127,5.095
-21,52,5.096
83,209,5.097
156,308,5.098
129,231,5.099
42,121,5.1
-31,-84,5.101
-76,-243,5.102
-109,-255,5.103
-117,-235,5.104
-78,-121,5.105
-19,-17,5.106
4,52,5.107
-11,110,5.108
-26,129,5.109
-26,182,5.11
-6,336,5.111
44,523,5.112
108,811,5.113
128,986,5.114
89,470,5.115
55,-499,5.116
35,-1206,5.117
16,-1202,5.118
4,-778,5.119
-4,-436,5.12
5,-260,5.121
10,-64,5.122
1,128,5.123
-5,162,5.124
-1,108,5.125
0,159,5.126
-11,284,5.127
-18,311,5.128
-12,248,5.129
-7,239,5.13
-7,290,5.131
-4,265,5.132
5,136,5.133
11,-47,5.134
-1,-217,5.135
-10,-323,5.136
-9,-307,5.137
-8,-168,5.138
-12,-30,5.139
-9,20,5.14
2,54,5.141
7,160,5.142
3,288,5.143
9,328,5.144
23,264,5.145
29,166,5.146
18,112,5.147
0,110,5.148
-16,57,5.149
-31,-175,5.15
-42,-513,5.151
-41,-670,5.152
-27,-520,5.153
-16,-234,5.154
-13,-82,5.155
-16,-50,5.156
-8,44,5.157
16,213,5.158
46,326,5.159
58,410,5.16
46,584,5.161
36,747,5.162
54,642,5.163
84,229,5.164
85,-247,5.165
50,-581,5.166
3,-758,5.167
-37,-779,5.168
-74,-579,5.169
-111,-219,5.17
-138,41,5.171
-141,20,5.172
-108,-156,5.173
-30,-261,5.174
64,-179,5.175
105,-8,5.176
66,108,5.177
-3,180,5.178
-33,314,5.179
-19,523,5.18
2,613,5.181
28,385,5.182
76,-35,5.183
119,-266,5.184
114,-156,5.185
62,-8,5.186
11,-115,5.187
-23,-318,5.188
-56,-288,5.189
-78,-67,5.19
-61,59,5.191
-25,48,5.192
-12,94,5.193
-28,231,5.194
-35,271,5.195
-12,129,5.196
15,-55,5.197
18,-151,5.198
14,-158,5.199
20,-89,5.2
27,54,5.201
24,208,5.202
16,361,5.203
15,589,5.204
14,788,5.205
7,577,5.206
2,-193,5.207
13,-1016,5.208
27,-1221,5.209
31,-771,5.21
21,-208,5.211
10,96,5.212
3,173,5.213
-3,85,5.214
-12,-130,5.215
-23,-236,5.216
-26,9,5.217
-21,407,5.218
-10,482,5.219
-3,194,5.22
-7,-18,5.221
-17,69,5.222
-16,179,5.223
3,47,5.224
21,-180,5.225
20,-231,5.226
2,-98,5.227
-19,29,5.228
-46,44,5.229
-73,-8,5.23
-74,-37,5.231
-25,-5,5.232
48,60,5.233
103,92,5.234
113,64,5.235
87,31,5.236
55,-17,5.237
21,-34,5.238
-7,40,5.239
-5,99,5.24
39,108,5.241
94,118,5.242
106,131,5.243
61,121,5.244
-14,39,5.245
-80,-22,5.246
-116,-23,5.247
-128,-58,5.248
-127,-197,5.249
-105,-300,5.25
-38,-292,5.251
56,-245,5.252
112,-87,5.253
85,20,5.254
22,-9,5.255
-25,64,5.256
-25,161,5.257
-24,142,5.258
-26,79,5.259
-20,113,5.26
17,211,5.261
45,253,5.262
41,212,5.263
33,74,5.264
15,-174,5.265
-1,-399,5.266
-13,-382,5.267
-22,-112,5.268
-21,186,5.269
-21,364,5.27
-25,431,5.271
-24,318,5.272
-4,-40,5.273
18,-525,5.274
32,-713,5.275
33,-445,5.276
32,-44,5.277
34,138,5.278
36,116,5.279
34,94,5.28
28,126,5.281
17,133,5.282
-2,112,5.283
-20,118,5.284
-26,124,5.285
-20,38,5.286
-9,-156,5.287
-4,-321,5.288
-5,-296,5.289
-8,-97,5.29
-8,62,5.291
-6,31,5.292
-2,-74,5.293
1,-72,5.294
4,60,5.295
7,169,5.296
8,184,5.297
6,190,5.298
6,230,5.299
11,236,5.3
19,151,5.301
22,-14,5.302
17,-219,5.303
7,-365,5.304
2,-317,5.305
6,-78,5.306
15,136,5.307
20,154,5.308
20,69,5.309
22,57,5.31
28,116,5.311
35,136,5.312
28,112,5.313
0,98,5.314
-28,73,5.315
-45,-7,5.316
-60,-90,5.317
-86,-87,5.318
-100,-47,5.319
-70,-72,5.32
-17,-142,5.321
10,-143,5.322
-1,-51,5.323
-12,32,5.324
3,42,5.325
29,16,5.326
44,16,5.327
48,40,5.328
43,45,5.329
21,16,5.33
-4,-4,5.331
-9,21,5.332
2,62,5.333
2,34,5.334
-9,-53,5.335
-4,-107,5.336
24,-60,5.337
43,-19,5.338
39,2,5.339
28,23,5.34
26,47,5.341
18,56,5.342
-6,21,5.343
-29,-7,5.344
-39,-14,5.345
-34,-3,5.346
-19,63,5.347
-6,119,5.348
0,143,5.349
0,109,5.35
7,-99,5.351
21,-258,5.352
31,-266,5.353
24,-203,5.354
16,48,5.355
8,116,5.356
4,35,5.357
-1,-12,5.358
-9,10,5.359
-19,15,5.36
-39,-7,5.361
-46,-8,5.362
-14,7,5.363
16,5,5.364
41,0,5.365
60,0,5.366
61,-34,5.367
56,-84,5.368
31,-57,5.369
7,51,5.37
-10,110,5.371
-23,47,5.372
-16,-43,5.373
-10,-74,5.374
-13,-42,5.375
-14,16,5.376
-18,100,5.377
-19,180,5.378
2,185,5.379
46,112,5.38
79,45,5.381
63,12,5.382
-6,-38,5.383
-108,-114,5.384
-187,-157,5.385
-175,-150,5.386
-63,-132,5.387
59,-112,5.388
116,-83,5.389
145,-86,5.39
210,-139,5.391
246,-148,5.392
157,-42,5.393
1,130,5.394
-70,238,5.395
-120,260,5.396
-104,269,5.397
-93,278,5.398
-102,225,5.399
-100,132,5.4
-65,91,5.401
-34,112,5.402
-14,119,5.403
0,65,5.404
-8,-7,5.405
-9,-52,5.406
12,-83,5.407
28,-124,5.408
25,-172,5.409
24,-205,5.41
28,-216,5.411
30,-209,5.412
28,-195,5.413
24,-180,5.414
28,-146,5.415
38,-100,5.416
27,-18,5.417
15,33,5.418
29,-7,5.419
50,-75,5.42
42,-224,5.421
23,-288,5.422
27,-94,5.423
38,100,5.424
23,296,5.425
-3,419,5.426
-6,324,5.427
4,234,5.428
0,158,5.429
-14,66,5.43
-14,-75,5.431
-9,-147,5.432
-14,-7,5.433
-27,122,5.434
-26,112,5.435
-20,-33,5.436
-22,-119,5.437
-31,-66,5.438
-26,18,5.439
-12,24,5.44
-2,-50,5.441
0,-148,5.442
6,-191,5.443
19,-120,5.444
28,20,5.445
27,102,5.446
21,84,5.447
12,44,5.448
-1,10,5.449
-15,-67,5.45
-19,-131,5.451
-9,-48,5.452
0,130,5.453
-15,206,5.454
-56,120,5.455
-94,68,5.456
-84,160,5.457
-22,228,5.458
52,136,5.459
88,19,5.46
77,30,5.461
45,84,5.462
26,44,5.463
20,-52,5.464
20,-128,5.465
22,-248,5.466
39,-454,5.467
55,-576,5.468
36,-445,5.469
-23,-178,5.47
-75,-36,5.471
-77,-39,5.472
-51,24,5.473
-39,252,5.474
-37,450,5.475
-10,432,5.476
36,267,5.477
51,130,5.478
27,51,5.479
23,-4,5.48
64,11,5.481
101,114,5.482
85,162,5.483
39,2,5.484
8,-327,5.485
-4,-618,5.486
-11,-633,5.487
-12,-244,5.488
-4,385,5.489
-3,795,5.49
-15,670,5.491
-27,251,5.492
-29,30,5.493
-29,84,5.494
-33,111,5.495
-35,-53,5.496
-31,-225,5.497
-22,-269,5.498
-7,-305,5.499
11,-334,5.5
22,-167,5.501
17,145,5.502
7,236,5.503
8,-10,5.504
20,-225,5.505
25,-119,5.506
17,87,5.507
4,53,5.508
-11,-177,5.509
-27,-325,5.51
-39,-302,5.511
-42,-240,5.512
-33,-238,5.513
-22,-258,5.514
-7,-159,5.515
11,168,5.516
26,590,5.517
32,766,5.518
32,528,5.519
30,171,5.52
26,54,5.521
20,111,5.522
18,30,5.523
15,-211,5.524
8,-356,5.525
-2,-326,5.526
-7,-272,5.527
-7,-222,5.528
-15,-73,5.529
-26,118,5.53
-30,191,5.531
-24,173,5.532
-23,217,5.533
-40,278,5.534
-63,225,5.535
-65,167,5.536
-26,93,5.537
38,3,5.538
85,-138,5.539
89,-247,5.54
62,-257,5.541
40,-232,5.542
40,-97,5.543
36,24,5.544
10,100,5.545
-20,147,5.546
-29,101,5.547
-23,90,5.548
-19,186,5.549
-18,198,5.55
-18,-40,5.551
-26,-264,5.552
-39,-441,5.553
-41,-547,5.554
-14,-335,5.555
30,-1,5.556
68,232,5.557
90,229,5.558
91,180,5.559
46,350,5.56
-48,596,5.561
-144,540,5.562
-158,206,5.563
-64,-55,5.564
68,-224,5.565
141,-608,5.566
128,-1094,5.567
86,-1111,5.568
52,-522,5.569
0,96,5.57
-81,310,5.571
-139,336,5.572
-111,462,5.573
-18,596,5.574
66,590,5.575
127,586,5.576
115,661,5.577
101,595,5.578
79,282,5.579
52,-1,5.58
9,-91,5.581
-24,-239,5.582
-25,-629,5.583
-26,-1000,5.584
-27,-1023,5.585
-29,-723,5.586
-35,-288,5.587
-38,198,5.588
-31,623,5.589
-31,757,5.59
-52,544,5.591
-66,244,5.592
-55,114,5.593
-36,99,5.594
2,11,5.595
38,-215,5.596
55,-453,5.597
53,-535,5.598
45,-396,5.599
28,-111,5.6
-13,152,5.601
-77,259,5.602
-118,227,5.603
-97,189,5.604
-36,226,5.605
7,293,5.606
5,300,5.607
-15,223,5.608
-23,102,5.609
-12,-9,5.61
-2,-99,5.611
4,-227,5.612
19,-461,5.613
33,-831,5.614
22,-1105,5.615
-17,-939,5.616
-39,-241,5.617
2,620,5.618
99,1080,5.619
207,901,5.62
285,310,5.621
307,-293,5.622
255,-647,5.623
141,-654,5.624
6,-382,5.625
-106,-65,5.626
-188,113,5.627
-232,238,5.628
-223,491,5.629
-165,797,5.63
-97,918,5.631
-50,828,5.632
-16,703,5.633
9,562,5.634
2,301,5.635
-43,-33,5.636
-81,-215,5.637
-67,-164,5.638
-16,-63,5.639
38,-94,5.64
82,-305,5.641
112,-698,5.642
102,-1231,5.643
45,-1644,5.644
-18,-1512,5.645
-45,-661,5.646
-29,509,5.647
7,1288,5.648
43,1322,5.649
53,906,5.65
29,542,5.651
-7,372,5.652
-14,232,5.653
0,77,5.654
-10,26,5.655
-63,-27,5.656
-116,-87,5.657
-118,-242,5.658
-57,-686,5.659
47,-1142,5.66
150,-1636,5.661
192,-1693,5.662
149,-439,5.663
69,653,5.664
14,1261,5.665
-13,1542,5.666
-46,843,5.667
-80,377,5.668
-70,613,5.669
-13,719,5.67
30,437,5.671
19,205,5.672
-15,126,5.673
-14,36,5.674
35,-129,5.675
68,-242,5.676
50,-213,5.677
28,-197,5.678
-4,-290,5.679
-30,-370,5.68
-34,-383,5.681
-58,-455,5.682
-143,-616,5.683
-200,-692,5.684
-172,-556,5.685
-131,-279,5.686
-51,-10,5.687
36,139,5.688
148,147,5.689
230,140,5.69
222,312,5.691
195,604,5.692
117,701,5.693
46,364,5.694
11,-56,5.695
-31,-304,5.696
-60,-475,5.697
-31,-652,5.698
29,-602,5.699
47,-137,5.7
0,443,5.701
-82,659,5.702
-175,437,5.703
-247,87,5.704
-238,-144,5.705
-130,-207,5.706
-4,-96,5.707
46,140,5.708
44,336,5.709
68,390,5.71
106,368,5.711
91,330,5.712
35,228,5.713
35,50,5.714
115,-88,5.715
169,-195,5.716
124,-458,5.717
16,-855,5.718
-89,-1019,5.719
-174,-666,5.72
-225,4,5.721
-197,568,5.722
-71,821,5.723
80,822,5.724
157,684,5.725
137,495,5.726
82,335,5.727
59,231,5.728
90,138,5.729
134,27,5.73
121,-64,5.731
26,-124,5.732
-87,-174,5.733
-135,-229,5.734
-72,-252,5.735
54,-258,5.736
147,-285,5.737
141,-308,5.738
54,-265,5.739
-43,-168,5.74
-86,-105,5.741
-73,-123,5.742
-21,-174,5.743
52,-192,5.744
98,-136,5.745
57,-28,5.746
-53,61,5.747
-122,72,5.748
-80,23,5.749
18,-44,5.75
78,-137,5.751
79,-246,5.752
66,-270,5.753
60,-131,5.754
51,62,5.755
17,138,5.756
-42,142,5.757
-102,269,5.758
-136,465,5.759
-139,451,5.76
-135,172,5.761
-130,-95,5.762
-104,-172,5.763
-73,-163,5.764
-89,-135,5.765
-149,35,5.766
-169,323,5.767
-99,435,5.768
-10,244,5.769
14,-11,5.77
1,-107,5.771
47,-107,5.772
157,-113,5.773
268,-68,5.774
291,37,5.775
209,52,5.776
77,-88,5.777
-21,-196,5.778
-21,-143,5.779
69,-42,5.78
181,-14,5.781
236,-6,5.782
208,39,5.783
120,56,5.784
13,11,5.785
-91,-12,5.786
-205,20,5.787
-322,30,5.788
-383,-16,5.789
-340,-63,5.79
-236,-88,5.791
-156,-125,5.792
-104,-148,5.793
-1,-95,5.794
156,16,5.795
263,76,5.796
244,29,5.797
174,-61,5.798
183,-113,5.799
278,-92,5.8
340,-12,5.801
267,38,5.802
59,-63,5.803
-211,-300,5.804
-436,-470,5.805
-507,-380,5.806
-384,-44,5.807
-130,373,5.808
139,716,5.809
329,865,5.81
386,756,5.811
280,491,5.812
97,296,5.813
-37,234,5.814
-17,179,5.815
67,17,5.816
25,-158,5.817
-195,-215,5.818
-403,-208,5.819
-380,-245,5.82
-121,-287,5.821
136,-256,5.822
202,-218,5.823
153,-268,5.824
199,-317,5.825
335,-192,5.826
358,69,5.827
184,221,5.828
-31,140,5.829
-150,-26,5.83
-238,-82,5.831
-359,-32,5.832
-410,-8,5.833
-272,-46,5.834
-3,-67,5.835
215,-34,5.836
301,-10,5.837
304,-34,5.838
267,-67,5.839
180,-68,5.84
44,-70,5.841
-91,-111,5.842
-166,-167,5.843
-178,-184,5.844
-175,-148,5.845
-198,-101,5.846
-223,-77,5.847
-196,-65,5.848
-133,-22,5.849
-85,73,5.85
-57,189,5.851
2,280,5.852
82,320,5.853
107,310,5.854
31,260,5.855
-58,181,5.856
-49,104,5.857
45,63,5.858
123,55,5.859
138,49,5.86
127,29,5.861
114,0,5.862
63,-22,5.863
-37,-40,5.864
-146,-58,5.865
-229,-81,5.866
-310,-94,5.867
-428,-89,5.868
-526,-68,5.869
-458,-54,5.87
-155,-58,5.871
244,-70,5.872
517,-80,5.873
637,-101,5.874
726,-131,5.875
804,-128,5.876
691,-76,5.877
306,-57,5.878
-86,-177,5.879
-192,-360,5.88
-98,-361,5.881
-97,-65,5.882
-220,314,5.883
-223,480,5.884
-9,392,5.885
207,233,5.886
228,146,5.887
98,140,5.888
-43,193,5.889
-148,263,5.89
-237,242,5.891
-319,92,5.892
-361,-53,5.893
-292,-73,5.894
-97,-17,5.895
55,-22,5.896
83,-86,5.897
54,-94,5.898
-147,-57,5.899
-279,-64,5.9
-205,-109,5.901
-112,-117,5.902
40,-106,5.903
183,-136,5.904
299,-144,5.905
345,-45,5.906
179,89,5.907
77,107,5.908
166,-16,5.909
211,-186,5.91
124,-339,5.911
45,-437,5.912
-7,-396,5.913
-46,-255,5.914
-54,-63,5.915
-50,35,5.916
-29,-162,5.917
-76,-311,5.918
-179,-318,5.919
-156,-326,5.92
33,-283,5.921
166,-233,5.922
116,-134,5.923
63,-56,5.924
133,-42,5.925
148,-14,5.926
-39,78,5.927
-242,163,5.928
-248,213,5.929
-154,241,5.93
-145,227,5.931
-167,220,5.932
-108,227,5.933
-45,-66,5.934
-77,-39,5.935
-95,-25,5.936
-69,-53,5.937
-47,-74,5.938
-37,-75,5.939
-24,-76,5.94
1,-70,5.941
15,-63,5.942
-8,-49,5.943
-22,-38,5.944
-6,-36,5.945
4,-32,5.946
-1,-19,5.947
-3,-7,5.948
10,0,5.949
30,4,5.95
66,2,5.951
101,1,5.952
133,2,5.953
151,4,5.954
120,0,5.955
116,-10,5.956
126,-20,5.957
93,-22,5.958
24,-12,5.959
-18,13,5.96
-27,51,5.961
-55,74,5.962
-96,63,5.963
-94,35,5.964
-44,20,5.965
-4,21,5.966
20,19,5.967
79,5,5.968
166,-4,5.969
201,-2,5.97
152,2,5.971
78,-3,5.972
21,-9,5.973
-55,-16,5.974
-141,-19,5.975
-160,-11,5.976
-79,0,5.977
-1,14,5.978
-12,23,5.979
-45,32,5.98
3,41,5.981
78,31,5.982
63,-20,5.983
-19,-101,5.984
-46,-173,5.985
-13,-186,5.986
-29,-143,5.987
-85,-99,5.988
-61,-94,5.989
46,-80,5.99
91,30,5.991
15,222,5.992
-60,365,5.993
-65,373,5.994
-77,297,5.995
-146,228,5.996
-180,185,5.997
-110,139,5.998
-20,85,5.999
12,26,6.0
36,-51,6.001
84,-104,6.002
51,-82,6.003
-99,-57,6.004
-190,-26,6.005
-70,-13,6.006
145,-53,6.007
252,-80,6.008
256,-63,6.009
280,-60,6.01
303,-100,6.011
210,-124,6.012
57,-95,6.013
-23,-57,6.014
1,-2,6.015
7,33,6.016
-34,30,6.017
-37,0,6.018
15,-22,6.019
17,-26,6.02
-49,-21,6.021
-87,-24,6.022
-59,-32,6.023
-44,-41,6.024
-80,-47,6.025
-108,-47,6.026
-107,-35,6.027
-116,-19,6.028
-132,-11,6.029
-96,-12,6.03
-20,-11,6.031
33,-7,6.032
48,-6,6.033
67,-9,6.034
88,-11,6.035
55,-13,6.036
-15,-18,6.037
-38,-14,6.038
8,0,6.039
47,12,6.04
25,12,6.041
-12,8,6.042
-15,7,6.043
4,11,6.044
12,14,6.045
9,15,6.046
8,16,6.047
7,23,6.048
0,31,6.049
-7,29,6.05
-11,16,6.051
-16,6,6.052
-19,14,6.053
-12,27,6.054
-1,27,6.055
-6,11,6.056
-22,-2,6.057
-36,1,6.058
-43,8,6.059
-40,6,6.06
-28,3,6.061
-12,9,6.062
-2,15,6.063
-10,9,6.064
-31,0,6.065
-50,-1,6.066
-53,3,6.067
-26,0,6.068
31,-9,6.069
96,-14,6.07
143,-14,6.071
173,-19,6.072
202,-25,6.073
209,-24,6.074
153,-10,6.075
43,2,6.076
-36,12,6.077
-33,22,6.078
-1,27,6.079
-10,30,6.08
-50,22,6.081
-64,12,6.082
-51,2,6.083
-57,-5,6.084
-84,-3,6.085
-89,-2,6.086
-66,-2,6.087
-48,-2,6.088
-57,-5,6.089
-66,-8,6.09
-57,-9,6.091
-41,-9,6.092
-46,-3,6.093
-80,0,6.094
-102,-10,6.095
-61,-17,6.096
53,-14,6.097
168,-3,6.098
214,0,6.099
205,-2,6.1
203,-1,6.101
210,0,6.102
166,-7,6.103
63,-16,6.104
-18,-15,6.105
-29,-4,6.106
-18,2,6.107
-38,6,6.108
-72,11,6.109
-79,17,6.11
-67,14,6.111
-70,7,6.112
-76,4,6.113
-58,3,6.114
-23,0,6.115
-10,-4,6.116
-23,-6,6.117
-43,-3,6.118
-54,-3,6.119
-58,-3,6.12
-63,0,6.121
-70,4,6.122
-65,2,6.123
-26,0,6.124
36,1,6.125
74,5,6.126
59,5,6.127
26,2,6.128
23,-1,6.129
33,-7,6.13
9,-13,6.131
-32,-16,6.132
-32,-14,6.133
14,-19,6.134
44,-25,6.135
26,-23,6.136
5,-17,6.137
19,-10,6.138
36,-6,6.139
19,3,6.14
-13,18,6.141
-18,36,6.142
-1,49,6.143
5,51,6.144
-3,38,6.145
-5,11,6.146
-1,-12,6.147
-8,-16,6.148
-29,-5,6.149
-49,2,6.15
-62,1,6.151
-69,1,6.152
-70,2,6.153
-51,-8,6.154
-11,-26,6.155
40,-38,6.156
93,-25,6.157
141,-14,6.158
171,-9,6.159
157,-5,6.16
87,-6,6.161
7,-7,6.162
-24,-5,6.163
-14,-4,6.164
-20,-4,6.165
-62,-1,6.166
-81,7,6.167
-26,13,6.168
52,14,6.169
80,13,6.17
62,6,6.171
56,0,6.172
72,-1,6.173
56,-2,6.174
10,-2,6.175
-25,-5,6.176
-31,-11,6.177
-36,-10,6.178
-37,-3,6.179
-38,2,6.18
-37,9,6.181
-42,18,6.182
-69,26,6.183
-90,22,6.184
-89,10,6.185
-77,3,6.186
-31,2,6.187
9,0,6.188
37,-7,6.189
62,-15,6.19
80,-14,6.191
88,-9,6.192
64,-4,6.193
49,-3,6.194
77,-6,6.195
94,-9,6.196
50,-14,6.197
-19,-17,6.198
-46,-15,6.199
-29,-9,6.2
-26,-4,6.201
-50,2,6.202
-58,6,6.203
-38,6,6.204
-21,2,6.205
-24,2,6.206
-25,8,6.207
-12,15,6.208
2,13,6.209
3,5,6.21
-4,1,6.211
-22,4,6.212
-46,8,6.213
-70,10,6.214
-67,8,6.215
-30,3,6.216
11,-10,6.217
24,-19,6.218
20,-10,6.219
37,-3,6.22
96,-4,6.221
161,-7,6.222
178,-15,6.223
134,-19,6.224
59,-9,6.225
-10,2,6.226
-58,19,6.227
-88,32,6.228
-98,32,6.229
-88,25,6.23
-63,3,6.231
-38,-13,6.232
-28,-10,6.233
-46,-4,6.234
-82,9,6.235
-103,6,6.236
-85,-11,6.237
-37,-19,6.238
10,-17,6.239
38,-15,6.24
39,-19,6.241
12,-21,6.242
-25,-15,6.243
-32,-8,6.244
12,-5,6.245
86,-3,6.246
150,0,6.247
186,4,6.248
202,4,6.249
193,5,6.25
143,12,6.251
66,26,6.252
11,41,6.253
-5,42,6.254
-2,26,6.255
-15,2,6.256
-53,-11,6.257
-95,-7,6.258
-122,-6,6.259
-120,-13,6.26
-86,-16,6.261
-30,-4,6.262
17,6,6.263
33,2,6.264
22,0,6.265
8,8,6.266
3,16,6.267
5,7,6.268
10,-4,6.269
18,-5,6.27
20,0,6.271
7,-3,6.272
-12,-8,6.273
-25,-8,6.274
-26,-7,6.275
-29,-9,6.276
-36,-16,6.277
-31,-14,6.278
-6,-6,6.279
18,0,6.28
21,4,6.281
13,7,6.282
9,5,6.283
4,-2,6.284
-15,-5,6.285
-35,1,6.286
-34,9,6.287
-12,4,6.288
10,-8,6.289
16,-15,6.29
12,-11,6.291
6,-5,6.292
3,-3,6.293
0,-6,6.294
0,-4,6.295
1,-1,6.296
1,-2,6.297
-1,-2,6.298
0,-2,6.299
1,3,6.3
1,7,6.301
-2,7,6.302
-1,2,6.303
5,3,6.304
9,6,6.305
2,6,6.306
-8,1,6.307
-11,-3,6.308
-6,-2,6.309
-1,1,6.31
0,1,6.311
6,-2,6.312
25,-2,6.313
43,-4,6.314
47,-1,6.315
38,7,6.316
27,14,6.317
22,13,6.318
17,0,6.319
8,-10,6.32
-4,-9,6.321
-17,-2,6.322
-26,-3,6.323
-25,-8,6.324
-11,-5,6.325
1,5,6.326
1,7,6.327
-3,-2,6.328
-2,-7,6.329
-7,-6,6.33
-34,-5,6.331
-74,-9,6.332
-87,-9,6.333
-64,-3,6.334
-30,6,6.335
-3,8,6.336
38,0,6.337
102,-13,6.338
147,-30,6.339
119,-29,6.34
27,-11,6.341
-51,6,6.342
-62,9,6.343
-10,15,6.344
70,45,6.345
143,79,6.346
171,70,6.347
133,13,6.348
51,-46,6.349
-23,-64,6.35
-53,-43,6.351
-41,-16,6.352
-20,-4,6.353
-24,-4,6.354
-56,-5,6.355
-83,-8,6.356
-75,-12,6.357
-47,-16,6.358
-35,-16,6.359
-33,-14,6.36
-26,-10,6.361
-26,-3,6.362
-51,13,6.363
-66,27,6.364
-31,37,6.365
22,45,6.366
23,43,6.367
-12,38,6.368
-17,24,6.369
11,11,6.37
21,2,6.371
3,-5,6.372
0,-5,6.373
20,-5,6.374
28,-6,6.375
9,-9,6.376
-1,-15,6.377
9,-20,6.378
15,-21,6.379
9,-18,6.38
15,-15,6.381
27,-13,6.382
26,-8,6.383
11,1,6.384
0,12,6.385
1,18,6.386
0,12,6.387
-1,2,6.388
7,-5,6.389
18,-8,6.39
18,-9,6.391
12,-11,6.392
13,-13,6.393
21,-15,6.394
23,-9,6.395
6,-5,6.396
-23,-5,6.397
-46,-6,6.398
-41,-15,6.399
-10,-19,6.4
17,-6,6.401
22,4,6.402
29,7,6.403
49,10,6.404
51,8,6.405
10,9,6.406
-39,19,6.407
-47,22,6.408
-21,4,6.409
-8,-10,6.41
-16,-12,6.411
-25,-13,6.412
-32,-8,6.413
-76,-1,6.414
-136,5,6.415
-159,7,6.416
-71,0,6.417
25,-4,6.418
144,-2,6.419
230,1,6.42
215,-1,6.421
193,-6,6.422
148,-6,6.423
104,0,6.424
66,8,6.425
32,9,6.426
12,6,6.427
-6,3,6.428
-19,1,6.429
-31,-1,6.43
-37,-3,6.431
-40,-4,6.432
-34,-4,6.433
-25,-6,6.434
-20,-5,6.435
-30,-1,6.436
-48,0,6.437
-56,1,6.438
-48,4,6.439
-41,7,6.44
-44,9,6.441
-50,5,6.442
-41,-1,6.443
-21,-2,6.444
-7,1,6.445
-10,1,6.446
-17,-3,6.447
-13,-9,6.448
-3,-6,6.449
1,4,6.45
-1,8,6.451
-1,1,6.452
3,-4,6.453
2,-4,6.454
0,3,6.455
-2,4,6.456
-1,-3,6.457
-4,-7,6.458
-4,-8,6.459
3,-6,6.46
13,-1,6.461
9,6,6.462
1,11,6.463
2,11,6.464
10,7,6.465
13,3,6.466
14,0,6.467
17,-1,6.468
20,0,6.469
16,-3,6.47
11,-8,6.471
12,-13,6.472
13,-7,6.473
9,4,6.474
-1,11,6.475
-6,7,6.476
-7,-4,6.477
-6,-6,6.478
0,-3,6.479
12,-4,6.48
19,-7,6.481
21,-6,6.482
29,0,6.483
38,0,6.484
31,-6,6.485
1,-11,6.486
-26,-10,6.487
-30,-5,6.488
-22,2,6.489
-22,4,6.49
-28,2,6.491
-26,3,6.492
-15,6,6.493
-5,2,6.494
8,-3,6.495
22,-9,6.496
30,-9,6.497
31,-10,6.498
35,-9,6.499
42,-6,6.5
35,0,6.501
12,3,6.502
-6,1,6.503
1,0,6.504
16,4,6.505
14,7,6.506
4,3,6.507
1,0,6.508
0,1,6.509
-5,4,6.51
-10,2,6.511
-5,1,6.512
1,5,6.513
-1,7,6.514
-5,0,6.515
-6,-13,6.516
-5,-17,6.517
-8,-10,6.518
-5,-4,6.519
6,-1,6.52
8,4,6.521
-1,13,6.522
-7,17,6.523
-5,12,6.524
-1,8,6.525
-4,8,6.526
-7,7,6.527
-1,3,6.528
3,1,6.529
2,0,6.53
1,-4,6.531
5,-11,6.532
6,-14,6.533
2,-12,6.534
-1,-10,6.535
1,-13,6.536
3,-16,6.537
2,-8,6.538
4,2,6.539
12,7,6.54
14,10,6.541
5,13,6.542
-5,14,6.543
-7,6,6.544
-3,-1,6.545
-2,0,6.546
-2,3,6.547
-3,2,6.548
-4,-3,6.549
-2,-4,6.55
3,-3,6.551
8,-4,6.552
11,-4,6.553
10,-3,6.554
13,0,6.555
15,1,6.556
9,2,6.557
-3,10,6.558
-4,15,6.559
5,11,6.56
9,0,6.561
0,-8,6.562
-7,-10,6.563
-3,-10,6.564
2,-11,6.565
-1,-9,6.566
-4,-5,6.567
4,-2,6.568
13,2,6.569
9,2,6.57
-2,-2,6.571
-6,-10,6.572
0,-11,6.573
3,-5,6.574
-1,4,6.575
-9,6,6.576
-15,2,6.577
-18,2,6.578
-14,11,6.579
-3,28,6.58
8,43,6.581
16,47,6.582
19,64,6.583
20,147,6.584
19,290,6.585
14,364,6.586
6,243,6.587
3,-33,6.588
1,-279,6.589
5,-387,6.59
12,-405,6.591
16,-396,6.592
13,-337,6.593
6,-207,6.594
2,-79,6.595
-2,-16,6.596
-4,35,6.597
-6,154,6.598
-6,293,6.599
-5,332,6.6
-6,241,6.601
-9,94,6.602
-14,-34,6.603
-18,-127,6.604
-20,-182,6.605
-18,-189,6.606
-3,-151,6.607
9,-94,6.608
7,-34,6.609
7,57,6.61
12,211,6.611
15,375,6.612
11,421,6.613
4,261,6.614
-9,-22,6.615
-14,-248,6.616
-10,-337,6.617
-1,-334,6.618
13,-288,6.619
27,-181,6.62
34,-38,6.621
30,48,6.622
23,44,6.623
17,27,6.624
14,51,6.625
11,86,6.626
11,93,6.627
10,93,6.628
11,98,6.629
7,76,6.63
0,23,6.631
-9,-9,6.632
-9,-2,6.633
-4,11,6.634
1,11,6.635
-2,19,6.636
-7,53,6.637
-7,99,6.638
0,140,6.639
4,175,6.64
0,191,6.641
-10,158,6.642
-17,65,6.643
-16,-65,6.644
-11,-193,6.645
-5,-263,6.646
0,-245,6.647
6,-169,6.648
9,-100,6.649
11,-70,6.65
10,-51,6.651
9,-29,6.652
8,-16,6.653
5,-19,6.654
2,-16,6.655
-1,5,6.656
-2,26,6.657
2,32,6.658
12,32,6.659
18,35,6.66
16,38,6.661
8,35,6.662
0,27,6.663
-3,19,6.664
-8,19,6.665
-16,29,6.666
-21,55,6.667
-21,128,6.668
-20,272,6.669
-20,433,6.67
-18,461,6.671
-9,234,6.672
1,-135,6.673
10,-459,6.674
15,-569,6.675
15,-503,6.676
12,-385,6.677
10,-246,6.678
15,-86,6.679
21,36,6.68
21,76,6.681
16,77,6.682
11,95,6.683
12,110,6.684
12,87,6.685
10,46,6.686
8,33,6.687
9,46,6.688
10,86,6.689
9,162,6.69
7,226,6.691
6,185,6.692
3,42,6.693
-4,-95,6.694
-6,-85,6.695
-8,78,6.696
-10,248,6.697
-9,265,6.698
-2,74,6.699
3,-199,6.7
-2,-350,6.701
-17,-315,6.702
-22,-237,6.703
-12,-244,6.704
7,-272,6.705
13,-214,6.706
5,-113,6.707
-1,-53,6.708
2,39,6.709
9,264,6.71
10,496,6.711
8,471,6.712
5,185,6.713
3,-136,6.714
-2,-238,6.715
-6,-149,6.716
-5,-73,6.717
1,-89,6.718
6,-122,6.719
8,-108,6.72
4,-63,6.721
2,-10,6.722
3,54,6.723
7,112,6.724
10,147,6.725
8,170,6.726
4,200,6.727
4,203,6.728
3,128,6.729
0,-13,6.73
-3,-151,6.731
-3,-231,6.732
-1,-244,6.733
-2,-194,6.734
-2,-72,6.735
0,125,6.736
2,365,6.737
2,549,6.738
3,519,6.739
9,220,6.74
11,-190,6.741
6,-463,6.742
3,-509,6.743
8,-426,6.744
10,-305,6.745
6,-150,6.746
3,4,6.747
6,80,6.748
5,67,6.749
0,52,6.75
0,76,6.751
7,98,6.752
12,90,6.753
0,78,6.754
-9,81,6.755
-9,91,6.756
-5,130,6.757
-8,228,6.758
-6,312,6.759
4,281,6.76
13,137,6.761
11,-24,6.762
7,-162,6.763
11,-287,6.764
17,-359,6.765
14,-319,6.766
6,-206,6.767
0,-117,6.768
-2,-54,6.769
-5,61,6.77
-4,225,6.771
2,348,6.772
13,412,6.773
14,475,6.774
11,478,6.775
5,227,6.776
1,-307,6.777
0,-803,6.778
1,-922,6.779
0,-699,6.78
-7,-425,6.781
-12,-231,6.782
-11,-33,6.783
-8,169,6.784
-11,240,6.785
-16,165,6.786
-13,118,6.787
-6,201,6.788
-7,348,6.789
-11,494,6.79
-4,606,6.791
15,555,6.792
30,229,6.793
29,-310,6.794
16,-696,6.795
0,-700,6.796
-11,-475,6.797
-15,-274,6.798
-10,-150,6.799
-5,-25,6.8
-9,113,6.801
-17,229,6.802
-15,325,6.803
-5,375,6.804
0,289,6.805
-1,58,6.806
5,-152,6.807
17,-180,6.808
26,-67,6.809
23,21,6.81
19,26,6.811
18,19,6.812
20,47,6.813
16,74,6.814
5,54,6.815
-9,-4,6.816
-18,-58,6.817
-13,-74,6.818
5,-59,6.819
27,-28,6.82
38,1,6.821
35,29,6.822
26,48,6.823
16,54,6.824
0,47,6.825
-16,46,6.826
-25,81,6.827
-27,164,6.828
-27,263,6.829
-30,288,6.83
-31,166,6.831
-26,-30,6.832
-19,-107,6.833
-19,39,6.834
-24,247,6.835
-29,261,6.836
-15,113,6.837
20,91,6.838
55,205,6.839
69,47,6.84
61,-568,6.841
50,-1169,6.842
43,-1190,6.843
33,-744,6.844
20,-372,6.845
9,-225,6.846
2,-35,6.847
-5,247,6.848
-11,356,6.849
-10,227,6.85
-5,124,6.851
-3,197,6.852
-1,323,6.853
12,437,6.854
13,576,6.855
13,624,6.856
12,395,6.857
11,125,6.858
15,-268,6.859
17,-547,6.86
13,-477,6.861
9,-398,6.862
6,-290,6.863
5,-183,6.864
4,-85,6.865
3,8,6.866
-1,92,6.867
-5,155,6.868
-8,155,6.869
-10,140,6.87
-8,84,6.871
-3,36,6.872
7,18,6.873
18,3,6.874
19,15,6.875
19,75,6.876
17,159,6.877
16,224,6.878
22,215,6.879
26,103,6.88
19,-72,6.881
13,-173,6.882
8,-79,6.883
4,153,6.884
2,316,6.885
0,277,6.886
-6,126,6.887
-12,9,6.888
-18,-109,6.889
-22,-337,6.89
-18,-560,6.891
-10,-509,6.892
10,-193,6.893
29,110,6.894
33,126,6.895
26,-47,6.896
18,-97,6.897
11,113,6.898
3,436,6.899
0,595,6.9
-3,397,6.901
1,-2,6.902
18,-134,6.903
40,197,6.904
52,474,6.905
47,72,6.906
32,-750,6.907
13,-1115,6.908
-11,-727,6.909
-37,-152,6.91
-57,138,6.911
-70,238,6.912
-74,258,6.913
-68,45,6.914
-47,-309,6.915
-28,-373,6.916
-22,-67,6.917
-16,171,6.918
6,130,6.919
32,116,6.92
41,280,6.921
32,315,6.922
22,76,6.923
19,-112,6.924
16,-31,6.925
13,93,6.926
14,62,6.927
17,8,6.928
19,44,6.929
25,45,6.93
26,-34,6.931
13,-38,6.932
-7,63,6.933
-19,119,6.934
-14,72,6.935
-8,60,6.936
-5,142,6.937
6,189,6.938
26,145,6.939
32,130,6.94
16,170,6.941
1,104,6.942
1,-139,6.943
1,-378,6.944
-9,-398,6.945
-16,-221,6.946
-7,-47,6.947
3,0,6.948
4,3,6.949
1,144,6.95
3,446,6.951
2,619,6.952
-6,361,6.953
-11,-319,6.954
-6,-886,6.955
-4,-858,6.956
-14,-368,6.957
-26,38,6.958
-18,62,6.959
5,-92,6.96
20,-97,6.961
18,112,6.962
11,361,6.963
6,443,6.964
9,272,6.965
13,-68,6.966
15,-345,6.967
15,-391,6.968
9,-253,6.969
3,-84,6.97
3,77,6.971
8,271,6.972
11,406,6.973
6,139,6.974
1,115,6.975
0,89,6.976
1,63,6.977
9,-4,6.978
22,-197,6.979
30,-329,6.98
25,-277,6.981
11,-186,6.982
0,25,6.983
-2,168,6.984
-2,106,6.985
-1,79,6.986
-1,163,6.987
-7,215,6.988
-17,167,6.989
-13,111,6.99
0,25,6.991
-9,-42,6.992
-43,-61,6.993
-67,117,6.994
-45,97,6.995
-5,76,6.996
3,55,6.997
-11,0,6.998
2,-157,6.999
37,-264,7.0
40,-222,7.001
0,-148,7.002
-28,23,7.003
-23,140,7.004
-13,90,7.005
-18,67,7.006
-15,136,7.007
4,178,7.008
20,139,7.009
25,94,7.01
35,24,7.011
53,-31,7.012
60,-46,7.013
-3,157,7.014
2,129,7.015
9,100,7.016
13,70,7.017
17,-8,7.018
24,-228,7.019
29,-378,7.02
25,-319,7.021
17,-215,7.022
3,26,7.023
-11,190,7.024
-28,119,7.025
-41,88,7.026
-39,184,7.027
-32,243,7.028
-16,189,7.029
-3,125,7.03
2,27,7.031
8,-51,7.032
15,-73,7.033
-3,-79,7.034
2,-10,7.035
9,52,7.036
13,73,7.037
17,79,7.038
23,88,7.039
28,114,7.04
24,177,7.041
17,233,7.042
3,165,7.043
-11,-39,7.044
-27,-196,7.045
-39,-189,7.046
-37,-177,7.047
-31,-321,7.048
-16,-458,7.049
-3,-331,7.05
2,-32,7.051
8,121,7.052
15,79,7.053
20,70,7.054
7,202,7.055
-6,303,7.056
-13,293,7.057
-20,274,7.058
-30,282,7.059
-43,248,7.06
-47,161,7.061
-37,95,7.062
-6,53,7.063
48,-18,7.064
101,-99,7.065
118,-127,7.066
88,-118,7.067
39,-140,7.068
3,-182,7.069
-16,-190,7.07
-33,-169,7.071
-47,-161,7.072
-46,-162,7.073
-37,-158,7.074
-29,-173,7.075
-23,-231,7.076
-8,-271,7.077
16,-210,7.078
40,-84,7.079
56,-11,7.08
66,-27,7.081
65,-54,7.082
54,-10,7.083
43,89,7.084
38,165,7.085
30,172,7.086
11,140,7.087
-6,129,7.088
-10,158,7.089
-10,175,7.09
-11,126,7.091
-12,38,7.092
-9,-18,7.093
-8,-85,7.094
-15,-295,7.095
-27,-644,7.096
-36,-825,7.097
-38,-496,7.098
-31,237,7.099
-25,854,7.1
-24,984,7.101
-28,756,7.102
-27,495,7.103
-22,295,7.104
-21,69,7.105
-22,-165,7.106
-13,-261,7.107
5,-154,7.108
13,44,7.109
6,129,7.11
-3,-65,7.111
-6,-490,7.112
-3,-792,7.113
2,-608,7.114
12,66,7.115
8,660,7.116
-15,556,7.117
-45,-150,7.118
-48,-694,7.119
-16,-465,7.12
19,309,7.121
35,894,7.122
46,900,7.123
70,550,7.124
88,155,7.125
88,-254,7.126
79,-619,7.127
76,-626,7.128
76,-145,7.129
59,408,7.13
21,536,7.131
-24,282,7.132
-61,57,7.133
-80,-7,7.134
-67,-51,7.135
-36,-102,7.136
-19,-176,7.137
-21,-233,7.138
-24,-234,7.139
-16,-259,7.14
-12,-356,7.141
-22,-479,7.142
-29,-677,7.143
-15,-706,7.144
10,-220,7.145
27,192,7.146
36,387,7.147
51,434,7.148
69,32,7.149
74,-262,7.15
56,-232,7.151
21,-93,7.152
-14,375,7.153
-33,741,7.154
-27,477,7.155
-10,-203,7.156
-10,-727,7.157
-27,-651,7.158
-30,-56,7.159
-14,585,7.16
-4,840,7.161
-21,675,7.162
-41,400,7.163
-41,281,7.164
-41,280,7.165
-61,234,7.166
-90,131,7.167
-91,85,7.168
-45,112,7.169
23,68,7.17
76,-253,7.171
95,-965,7.172
90,-1807,7.173
83,-2254,7.174
88,-1654,7.175
91,-141,7.176
69,1201,7.177
20,1475,7.178
-28,977,7.179
-47,669,7.18
-42,874,7.181
-33,1088,7.182
-40,939,7.183
-46,661,7.184
-19,511,7.185
56,347,7.186
143,29,7.187
179,-257,7.188
130,-329,7.189
32,-302,7.19
-44,-358,7.191
-63,-491,7.192
-42,-609,7.193
-22,-667,7.194
-27,-568,7.195
-53,-297,7.196
-74,-107,7.197
-70,-231,7.198
-44,-454,7.199
-18,-327,7.2
-9,112,7.201
-3,307,7.202
17,-38,7.203
40,-535,7.204
49,-666,7.205
43,-407,7.206
35,-79,7.207
30,150,7.208
18,342,7.209
0,532,7.21
-12,657,7.211
-20,666,7.212
-26,582,7.213
-33,433,7.214
-30,275,7.215
-24,133,7.216
-20,39,7.217
-19,-52,7.218
-15,-134,7.219
-5,-179,7.22
10,-112,7.221
35,-58,7.222
61,-44,7.223
53,-49,7.224
-4,-115,7.225
-79,-219,7.226
-117,-436,7.227
-102,-676,7.228
-59,-984,7.229
-25,-1084,7.23
-4,-562,7.231
13,-30,7.232
31,530,7.233
48,924,7.234
57,678,7.235
53,464,7.236
40,500,7.237
31,599,7.238
31,541,7.239
34,364,7.24
27,209,7.241
10,112,7.242
-21,19,7.243
-76,-123,7.244
-139,-335,7.245
-148,-530,7.246
-66,-547,7.247
57,-352,7.248
126,-196,7.249
114,-365,7.25
70,-774,7.251
47,-939,7.252
45,-502,7.253
41,473,7.254
32,1335,7.255
11,1502,7.256
-26,1048,7.257
-67,540,7.258
-82,297,7.259
-67,154,7.26
-50,-50,7.261
-47,-154,7.262
-33,-48,7.263
11,-18,7.264
56,-360,7.265
54,-895,7.266
-20,-1130,7.267
-132,-814,7.268
-185,-141,7.269
-86,471,7.27
134,694,7.271
314,455,7.272
345,-3,7.273
272,-421,7.274
218,-586,7.275
201,-510,7.276
148,-342,7.277
45,-124,7.278
-37,210,7.279
-59,618,7.28
-55,836,7.281
-54,688,7.282
-45,387,7.283
-27,288,7.284
-19,392,7.285
-24,371,7.286
-30,55,7.287
-46,-362,7.288
-92,-577,7.289
-149,-460,7.29
-173,-120,7.291
-151,175,7.292
-117,254,7.293
-99,224,7.294
-95,296,7.295
-94,424,7.296
-104,346,7.297
-142,39,7.298
-174,-216,7.299
-134,-276,7.3
7,-280,7.301
190,-316,7.302
323,-300,7.303
371,-230,7.304
351,-243,7.305
284,-344,7.306
182,-379,7.307
63,-298,7.308
-51,-212,7.309
-160,-193,7.31
-250,-210,7.311
-267,-201,7.312
-187,-103,7.313
-55,132,7.314
22,363,7.315
0,348,7.316
-64,105,7.317
-93,-58,7.318
-66,-13,7.319
-20,34,7.32
0,-54,7.321
-28,-120,7.322
-84,-55,7.323
-116,3,7.324
-88,-38,7.325
7,-59,7.326
133,-9,7.327
232,-46,7.328
256,-253,7.329
218,-478,7.33
181,-559,7.331
161,-463,7.332
120,-213,7.333
29,185,7.334
-42,542,7.335
-37,684,7.336
-14,714,7.337
-88,813,7.338
-255,823,7.339
-364,420,7.34
-268,-313,7.341
3,-855,7.342
259,-851,7.343
352,-430,7.344
305,120,7.345
235,638,7.346
166,990,7.347
26,1026,7.348
-192,759,7.349
-361,385,7.35
-353,29,7.351
-190,-300,7.352
-13,-517,7.353
93,-479,7.354
116,-211,7.355
90,28,7.356
56,53,7.357
29,-41,7.358
18,-102,7.359
19,-120,7.36
6,-147,7.361
-40,-171,7.362
-87,-177,7.363
-81,-187,7.364
-11,-209,7.365
56,-229,7.366
56,-222,7.367
15,-144,7.368
17,40,7.369
87,208,7.37
147,136,7.371
129,-199,7.372
67,-499,7.373
17,-517,7.374
-28,-252,7.375
-87,94,7.376
-180,357,7.377
-220,452,7.378
-102,314,7.379
-3,11,7.38
34,-202,7.381
41,-118,7.382
-46,161,7.383
-131,324,7.384
-208,194,7.385
-258,-83,7.386
-227,-199,7.387
-159,-32,7.388
18,216,7.389
183,269,7.39
307,121,7.391
384,9,7.392
319,39,7.393
272,78,7.394
295,-3,7.395
250,-109,7.396
79,-90,7.397
-98,9,7.398
-157,37,7.399
-127,-18,7.4
-101,-56,7.401
-94,-59,7.402
-63,-90,7.403
8,-159,7.404
86,-210,7.405
129,-242,7.406
109,-324,7.407
47,-467,7.408
4,-545,7.409
8,-387,7.41
3,8,7.411
-55,413,7.412
-117,597,7.413
-121,565,7.414
-81,476,7.415
-70,399,7.416
-92,257,7.417
-105,63,7.418
-100,-30,7.419
-85,28,7.42
-26,87,7.421
84,32,7.422
154,-53,7.423
108,-73,7.424
-1,-69,7.425
-59,-107,7.426
-66,-155,7.427
-108,-174,7.428
-193,-186,7.429
-223,-185,7.43
-123,-103,7.431
59,42,7.432
203,132,7.433
232,101,7.434
144,8,7.435
16,-77,7.436
-71,-161,7.437
-130,-226,7.438
-208,-203,7.439
-273,-78,7.44
-217,64,7.441
-15,155,7.442
194,200,7.443
222,224,7.444
18,218,7.445
-227,192,7.446
-246,167,7.447
27,140,7.448
340,100,7.449
400,58,7.45
234,-21,7.451
117,-201,7.452
167,-402,7.453
249,-388,7.454
235,-104,7.455
195,118,7.456
228,157,7.457
248,171,7.458
123,105,7.459
-130,42,7.46
-365,-15,7.461
-417,-73,7.462
-196,-136,7.463
159,-169,7.464
288,-109,7.465
12,-37,7.466
-330,67,7.467
-247,149,7.468
228,161,7.469
552,161,7.47
411,127,7.471
57,86,7.472
-165,23,7.473
-277,-54,7.474
-374,-134,7.475
-405,-116,7.476
-239,-78,7.477
-116,-81,7.478
-122,-73,7.479
-123,-15,7.48
-107,45,7.481
-48,59,7.482
133,21,7.483
253,-112,7.484
183,-360,7.485
99,-556,7.486
-28,-424,7.487
-151,70,7.488
-259,600,7.489
-343,801,7.49
-356,618,7.491
-342,270,7.492
-245,1,7.493
-124,-124,7.494
102,-127,7.495
344,-92,7.496
511,-88,7.497
586,-101,7.498
586,-86,7.499
462,-42,7.5
183,-5,7.501
-105,7,7.502
-173,-3,7.503
-2,-36,7.504
168,-83,7.505
135,-106,7.506
-41,-94,7.507
-170,-79,7.508
-192,-82,7.509
-206,-81,7.51
-264,-80,7.511
-281,-114,7.512
-186,-153,7.513
-31,-115,7.514
61,35,7.515
60,199,7.516
2,255,7.517
-119,211,7.518
-273,130,7.519
-292,35,7.52
-68,-89,7.521
177,-217,7.522
101,-290,7.523
-217,-268,7.524
-279,-145,7.525
143,43,7.526
631,221,7.527
704,307,7.528
464,286,7.529
351,223,7.53
442,173,7.531
408,123,7.532
123,54,7.533
-236,-6,7.534
-410,-14,7.535
-403,-21,7.536
-345,-21,7.537
-288,-22,7.538
-257,-22,7.539
-280,-21,7.54
-289,-23,7.541
-159,-31,7.542
60,-52,7.543
168,-64,7.544
111,-49,7.545
76,-40,7.546
187,-51,7.547
308,-59,7.548
284,-57,7.549
166,-58,7.55
67,-70,7.551
-28,-74,7.552
-149,-52,7.553
-212,-31,7.554
-155,-20,7.555
-108,-28,7.556
-91,-64,7.557
-56,-105,7.558
29,-112,7.559
105,-72,7.56
150,-25,7.561
167,-5,7.562
97,0,7.563
34,20,7.564
-11,46,7.565
-52,68,7.566
-77,101,7.567
-108,159,7.568
-159,212,7.569
-192,213,7.57
-166,163,7.571
-113,103,7.572
20,59,7.573
156,9,7.574
256,-61,7.575
253,-140,7.576
125,-197,7.577
-94,-202,7.578
-275,-161,7.579
-271,-86,7.58
-100,11,7.581
35,108,7.582
18,170,7.583
-28,180,7.584
35,159,7.585
128,127,7.586
107,88,7.587
24,44,7.588
18,18,7.589
65,14,7.59
45,3,7.591
-15,-29,7.592
1,-52,7.593
97,-43,7.594
155,-22,7.595
116,-22,7.596
26,-42,7.597
-74,-56,7.598
-177,-67,7.599
-260,-80,7.6
-307,-81,7.601
-312,-63,7.602
-219,-36,7.603
14,-22,7.604
274,-14,7.605
362,-4,7.606
261,4,7.607
134,9,7.608
60,8,7.609
-28,-1,7.61
-103,-14,7.611
-39,-19,7.612
108,-11,7.613
159,-14,7.614
98,-27,7.615
130,-23,7.616
309,2,7.617
376,22,7.618
186,10,7.619
-64,-12,7.62
-161,-21,7.621
-174,-27,7.622
-210,-40,7.623
-176,-40,7.624
-8,-9,7.625
132,30,7.626
96,47,7.627
-17,48,7.628
-54,47,7.629
-49,37,7.63
-89,8,7.631
-137,-15,7.632
-133,0,7.633
-118,48,7.634
-139,81,7.635
-144,62,7.636
-94,4,7.637
-66,-35,7.638
-90,-36,7.639
-76,-28,7.64
11,-31,7.641
45,-31,7.642
-56,-9,7.643
-154,25,7.644
-73,36,7.645
140,26,7.646
303,15,7.647
337,14,7.648
286,9,7.649
181,-1,7.65
24,-9,7.651
-118,-17,7.652
-159,-22,7.653
-108,5,7.654
-46,1,7.655
-7,-2,7.656
64,-4,7.657
191,-4,7.658
285,4,7.659
234,12,7.66
47,21,7.661
-145,26,7.662
-214,15,7.663
-160,8,7.664
-89,10,7.665
-72,12,7.666
-63,11,7.667
-2,8,7.668
61,-2,7.669
17,-10,7.67
-122,-8,7.671
-200,-5,7.672
-120,-6,7.673
-82,6,7.674
-53,-2,7.675
6,-8,7.676
156,-11,7.677
261,-10,7.678
230,3,7.679
201,18,7.68
171,35,7.681
130,43,7.682
51,24,7.683
-5,11,7.684
0,16,7.685
2,19,7.686
-9,17,7.687
-20,11,7.688
-37,-7,7.689
-46,-21,7.69
-29,-17,7.691
-16,-13,7.692
-23,-15,7.693
-102,-15,7.694
-68,-7,7.695
0,-7,7.696
173,-19,7.697
294,-26,7.698
259,-19,7.699
225,-9,7.7
191,-8,7.701
143,-11,7.702
53,-9,7.703
-13,-5,7.704
-7,-1,7.705
-5,0,7.706
-17,-7,7.707
-30,-21,7.708
-50,-35,7.709
-60,-38,7.71
-40,-27,7.711
-26,-11,7.712
-34,6,7.713
-37,20,7.714
-29,24,7.715
-34,14,7.716
-49,5,7.717
-57,16,7.718
-60,39,7.719
-56,48,7.72
-31,35,7.721
18,10,7.722
64,-7,7.723
68,-9,7.724
22,2,7.725
-49,10,7.726
-120,5,7.727
-187,-7,7.728
-241,-10,7.729
-246,-4,7.73
-173,0,7.731
-51,-2,7.732
37,-2,7.733
84,-2,7.734
168,-7,7.735
319,-19,7.736
439,-28,7.737
427,-21,7.738
347,-10,7.739
294,-4,7.74
216,1,7.741
38,6,7.742
-127,6,7.743
-116,6,7.744
-9,10,7.745
-15,11,7.746
-138,7,7.747
-192,4,7.748
-119,11,7.749
-47,17,7.75
-43,11,7.751
-58,4,7.752
-79,5,7.753
-140,3,7.754
-190,-6,7.755
-158,-13,7.756
-112,-11,7.757
-155,-10,7.758
-215,-12,7.759
-142,-13,7.76
37,-5,7.761
161,0,7.762
203,-3,7.763
248,-6,7.764
266,-6,7.765
158,-7,7.766
-21,-9,7.767
-88,-10,7.768
0,-7,7.769
93,-4,7.77
81,1,7.771
22,6,7.772
-6,10,7.773
-16,12,7.774
-38,5,7.775
-59,1,7.776
-52,2,7.777
-35,4,7.778
-28,2,7.779
-26,3,7.78
-23,13,7.781
-22,18,7.782
-23,9,7.783
-19,-7,7.784
-11,-15,7.785
-10,-10,7.786
-14,-3,7.787
-9,-3,7.788
1,-14,7.789
3,-27,7.79
0,-35,7.791
2,-32,7.792
3,-23,7.793
-8,-13,7.794
-30,-1,7.795
-55,18,7.796
-71,37,7.797
-68,45,7.798
-41,31,7.799
6,5,7.8
43,-10,7.801
57,-15,7.802
58,-20,7.803
63,-28,7.804
69,-17,7.805
74,21,7.806
92,58,7.807
131,60,7.808
153,26,7.809
99,-7,7.81
-34,-10,7.811
-161,13,7.812
-212,38,7.813
-203,38,7.814
-170,24,7.815
-103,15,7.816
30,17,7.817
173,21,7.818
206,12,7.819
109,-3,7.82
5,-14,7.821
-1,-20,7.822
46,-22,7.823
46,-19,7.824
6,-12,7.825
23,-11,7.826
101,-17,7.827
130,-19,7.828
62,-14,7.829
19,-7,7.83
100,-7,7.831
205,-8,7.832
189,-5,7.833
73,-3,7.834
-10,-6,7.835
-40,-14,7.836
-99,-20,7.837
-171,-15,7.838
-146,-8,7.839
-51,-8,7.84
-26,-12,7.841
-81,-11,7.842
-99,-8,7.843
-45,-5,7.844
-20,-4,7.845
-68,-4,7.846
-101,-3,7.847
-68,-4,7.848
-30,-2,7.849
-34,5,7.85
-48,14,7.851
-37,12,7.852
-19,5,7.853
-15,-2,7.854
-15,-4,7.855
-15,-8,7.856
-19,-18,7.857
-20,-26,7.858
-3,-21,7.859
22,-15,7.86
31,-8,7.861
26,-2,7.862
23,1,7.863
23,4,7.864
19,2,7.865
17,1,7.866
23,3,7.867
28,4,7.868
20,-1,7.869
11,-6,7.87
12,-5,7.871
17,-2,7.872
17,6,7.873
11,14,7.874
12,12,7.875
13,4,7.876
14,0,7.877
19,7,7.878
22,15,7.879
-2,17,7.88
-57,15,7.881
-110,14,7.882
-128,5,7.883
-105,-13,7.884
-48,-24,7.885
54,-22,7.886
180,-11,7.887
253,-3,7.888
213,0,7.889
104,3,7.89
33,4,7.891
28,2,7.892
31,-1,7.893
-7,-1,7.894
-55,6,7.895
-53,14,7.896
10,17,7.897
94,16,7.898
144,16,7.899
109,24,7.9
-28,33,7.901
-209,36,7.902
-316,31,7.903
-276,26,7.904
-131,23,7.905
30,17,7.906
161,4,7.907
231,-10,7.908
184,-18,7.909
5,-11,7.91
-197,14,7.911
-249,40,7.912
-124,31,7.913
72,-38,7.914
181,-117,7.915
148,-137,7.916
58,-87,7.917
18,-26,7.918
64,-3,7.919
136,-5,7.92
156,-2,7.921
116,5,7.922
83,1,7.923
78,-6,7.924
51,2,7.925
-29,20,7.926
-108,29,7.927
-135,25,7.928
-134,28,7.929
-132,48,7.93
-112,77,7.931
-63,81,7.932
-32,37,7.933
-43,-50,7.934
-61,-115,7.935
-46,-112,7.936
-24,-63,7.937
-23,-19,7.938
-27,-2,7.939
-9,6,7.94
6,17,7.941
-2,25,7.942
-11,26,7.943
3,30,7.944
20,38,7.945
18,41,7.946
12,35,7.947
16,19,7.948
19,0,7.949
10,-10,7.95
4,-2,7.951
11,10,7.952
15,12,7.953
8,0,7.954
2,-10,7.955
6,-12,7.956
8,-16,7.957
4,-19,7.958
7,-16,7.959
15,-6,7.96
13,4,7.961
5,13,7.962
7,16,7.963
20,5,7.964
28,-26,7.965
24,-56,7.966
23,-52,7.967
30,-2,7.968
33,62,7.969
20,89,7.97
0,40,7.971
-17,-59,7.972
-24,-127,7.973
-22,-106,7.974
-8,-32,7.975
9,23,7.976
22,27,7.977
38,28,7.978
53,20,7.979
48,9,7.98
17,-4,7.981
-9,-13,7.982
-4,-1,7.983
7,7,7.984
-5,-2,7.985
-33,-6,7.986
-53,6,7.987
-60,14,7.988
-66,8,7.989
-59,5,7.99
-30,15,7.991
-7,24,7.992
-3,29,7.993
2,32,7.994
37,26,7.995
77,15,7.996
76,0,7.997
32,-8,7.998
-10,-11,7.999
-7,-6,8.0
38,13,8.001
90,47,8.002
111,71,8.003
90,70,8.004
48,50,8.005
6,28,8.006
-32,25,8.007
-65,74,8.008
-83,174,8.009
-83,215,8.01
-91,71,8.011
-114,-211,8.012
-134,-406,8.013
-264,-354,8.014
-143,-118,8.015
-78,81,8.016
-227,100,8.017
-292,-18,8.018
-106,-149,8.019
23,-200,8.02
-51,-153,8.021
-78,-73,8.022
32,-28,8.023
106,-15,8.024
50,12,8.025
4,57,8.026
32,71,8.027
50,53,8.028
50,49,8.029
69,71,8.03
115,81,8.031
171,66,8.032
208,55,8.033
-41,49,8.034
-28,33,8.035
-21,9,8.036
-37,1,8.037
-44,12,8.038
-24,11,8.039
-10,1,8.04
-18,6,8.041
-21,20,8.042
-9,17,8.043
-1,1,8.044
-7,-2,8.045
-12,5,8.046
-9,1,8.047
-7,-9,8.048
-7,-8,8.049
-5,-4,8.05
0,-10,8.051
6,-21,8.052
10,-17,8.053
15,-5,8.054
19,2,8.055
19,1,8.056
18,-1,8.057
18,-1,8.058
17,-3,8.059
17,-5,8.06
21,-5,8.061
23,-4,8.062
19,-9,8.063
14,-13,8.064
14,-11,8.065
13,-4,8.066
7,0,8.067
1,0,8.068
2,0,8.069
5,0,8.07
6,5,8.071
1,16,8.072
0,23,8.073
-3,8,8.074
-7,-10,8.075
-14,-23,8.076
-17,-14,8.077
-16,-6,8.078
-10,-4,8.079
0,0,8.08
13,10,8.081
20,16,8.082
13,9,8.083
-9,6,8.084
-33,15,8.085
-47,23,8.086
-36,23,8.087
-2,23,8.088
34,21,8.089
58,15,8.09
71,-2,8.091
76,-22,8.092
70,-48,8.093
41,-71,8.094
7,-72,8.095
-21,-59,8.096
-33,-36,8.097
-43,-5,8.098
-47,23,8.099
-43,34,8.1
-17,33,8.101
17,35,8.102
73,41,8.103
109,43,8.104
87,36,8.105
60,26,8.106
14,16,8.107
-25,7,8.108
-46,3,8.109
-65,5,8.11
-76,4,8.111
-79,-4,8.112
-55,-10,8.113
-38,-12,8.114
-47,-12,8.115
-38,-15,8.116
-17,-18,8.117
-9,-14,8.118
-7,-8,8.119
7,-6,8.12
21,-4,8.121
16,-1,8.122
8,-3,8.123
21,-11,8.124
40,-15,8.125
39,-11,8.126
28,-6,8.127
28,-5,8.128
30,-3,8.129
22,0,8.13
14,4,8.131
14,3,8.132
18,0,8.133
11,-2,8.134
0,-3,8.135
-4,-3,8.136
-4,-4,8.137
-11,-1,8.138
-10,-2,8.139
-2,-7,8.14
2,-9,8.141
-1,-5,8.142
-2,2,8.143
6,1,8.144
9,-2,8.145
1,-3,8.146
-4,-2,8.147
0,-3,8.148
5,-5,8.149
0,-5,8.15
-5,-2,8.151
-4,0,8.152
3,3,8.153
10,4,8.154
12,6,8.155
5,10,8.156
-9,13,8.157
-22,18,8.158
-21,17,8.159
-7,8,8.16
8,-2,8.161
15,-7,8.162
13,-8,8.163
14,-10,8.164
23,-11,8.165
38,-8,8.166
46,-3,8.167
36,2,8.168
16,15,8.169
2,42,8.17
4,81,8.171
7,105,8.172
1,83,8.173
-8,-3,8.174
-13,-110,8.175
-19,-167,8.176
-28,-148,8.177
-30,-84,8.178
-18,-31,8.179
-4,-1,8.18
-3,21,8.181
-9,36,8.182
-8,32,8.183
-2,18,8.184
-2,17,8.185
-8,26,8.186
-10,23,8.187
-5,12,8.188
-2,12,8.189
-5,23,8.19
-5,23,8.191
-6,5,8.192
-4,-9,8.193
-3,-13,8.194
0,-8,8.195
2,-2,8.196
0,-2,8.197
0,-1,8.198
9,1,8.199
19,2,8.2
18,3,8.201
11,3,8.202
11,1,8.203
16,0,8.204
19,4,8.205
15,11,8.206
8,14,8.207
6,17,8.208
7,44,8.209
7,124,8.21
7,245,8.211
7,323,8.212
5,267,8.213
0,62,8.214
-7,-159,8.215
-16,-325,8.216
-26,-323,8.217
-25,-303,8.218
-4,-229,8.219
31,-151,8.22
52,-60,8.221
47,16,8.222
30,44,8.223
21,62,8.224
12,52,8.225
-5,50,8.226
-27,74,8.227
-37,103,8.228
-32,143,8.229
-21,147,8.23
-14,39,8.231
-12,-53,8.232
-12,-93,8.233
-11,-120,8.234
-5,-105,8.235
-2,-77,8.236
0,-37,8.237
1,2,8.238
8,19,8.239
16,20,8.24
16,29,8.241
13,52,8.242
11,73,8.243
14,80,8.244
14,73,8.245
10,57,8.246
8,48,8.247
11,68,8.248
17,109,8.249
18,125,8.25
15,75,8.251
8,-27,8.252
2,-110,8.253
0,-143,8.254
0,-132,8.255
-1,-109,8.256
-8,-91,8.257
-12,-68,8.258
-2,-45,8.259
12,-22,8.26
15,12,8.261
10,77,8.262
8,152,8.263
12,178,8.264
9,109,8.265
1,-12,8.266
-4,-79,8.267
-3,-10,8.268
-4,153,8.269
-6,253,8.27
-4,165,8.271
0,-63,8.272
0,-251,8.273
-3,-306,8.274
-6,-273,8.275
-7,-249,8.276
-8,-233,8.277
-8,-157,8.278
-3,-48,8.279
2,5,8.28
3,4,8.281
-2,20,8.282
-7,70,8.283
-9,110,8.284
-10,117,8.285
-6,118,8.286
2,109,8.287
14,72,8.288
18,26,8.289
13,-3,8.29
5,-25,8.291
4,-58,8.292
6,-71,8.293
6,-47,8.294
3,-12,8.295
0,-4,8.296
-4,-4,8.297
-3,17,8.298
5,39,8.299
17,37,8.3
15,30,8.301
7,37,8.302
7,42,8.303
16,29,8.304
22,20,8.305
19,31,8.306
15,35,8.307
12,20,8.308
8,11,8.309
4,33,8.31
8,72,8.311
13,105,8.312
9,122,8.313
-6,133,8.314
-17,143,8.315
-18,160,8.316
-21,155,8.317
-30,87,8.318
-33,-64,8.319
-25,-234,8.32
-17,-325,8.321
-15,-296,8.322
-10,-179,8.323
0,-27,8.324
10,90,8.325
9,88,8.326
7,-49,8.327
10,-176,8.328
14,-119,8.329
12,96,8.33
10,244,8.331
13,169,8.332
14,-28,8.333
11,-194,8.334
9,-250,8.335
10,-230,8.336
9,-171,8.337
4,-74,8.338
1,17,8.339
2,51,8.34
0,39,8.341
-3,35,8.342
1,51,8.343
12,61,8.344
18,57,8.345
13,54,8.346
5,40,8.347
0,8,8.348
-5,-15,8.349
-9,-3,8.35
-7,22,8.351
1,27,8.352
10,23,8.353
9,35,8.354
2,58,8.355
-6,56,8.356
-9,34,8.357
-7,25,8.358
-4,34,8.359
-1,42,8.36
2,41,8.361
6,77,8.362
9,183,8.363
6,310,8.364
2,319,8.365
1,113,8.366
6,-205,8.367
7,-404,8.368
1,-378,8.369
-4,-252,8.37
-1,-165,8.371
8,-83,8.372
13,65,8.373
8,238,8.374
1,268,8.375
-2,100,8.376
0,-134,8.377
5,-244,8.378
14,-152,8.379
18,75,8.38
11,278,8.381
0,294,8.382
-7,75,8.383
-10,-252,8.384
-16,-476,8.385
-24,-463,8.386
-24,-241,8.387
-16,43,8.388
-7,238,8.389
-3,266,8.39
-3,156,8.391
1,21,8.392
12,-37,8.393
17,-12,8.394
17,25,8.395
10,5,8.396
4,-50,8.397
1,-72,8.398
2,-52,8.399
4,-25,8.4
1,3,8.401
-5,53,8.402
-6,113,8.403
3,132,8.404
13,101,8.405
15,59,8.406
13,45,8.407
14,48,8.408
16,43,8.409
13,22,8.41
8,4,8.411
7,16,8.412
7,70,8.413
0,137,8.414
-5,146,8.415
-5,41,8.416
-6,-129,8.417
-10,-248,8.418
-5,-253,8.419
11,-186,8.42
20,-114,8.421
12,-54,8.422
-2,3,8.423
-3,58,8.424
2,119,8.425
3,216,8.426
6,353,8.427
14,472,8.428
17,502,8.429
5,359,8.43
-6,-25,8.431
-7,-557,8.432
-1,-884,8.433
-1,-787,8.434
-6,-295,8.435
-11,150,8.436
-12,171,8.437
-13,-56,8.438
-4,-147,8.439
8,-49,8.44
12,-2,8.441
3,-94,8.442
-1,-149,8.443
5,-20,8.444
7,185,8.445
-4,247,8.446
-17,78,8.447
-17,-157,8.448
-7,-201,8.449
0,-6,8.45
4,182,8.451
12,134,8.452
19,-47,8.453
19,-111,8.454
16,-12,8.455
11,66,8.456
11,82,8.457
11,97,8.458
17,110,8.459
26,103,8.46
31,35,8.461
24,2,8.462
14,80,8.463
6,109,8.464
-4,-14,8.465
-19,-99,8.466
-25,-68,8.467
-17,-41,8.468
-4,-30,8.469
-2,-11,8.47
-8,28,8.471
-9,60,8.472
-3,72,8.473
1,71,8.474
1,48,8.475
0,67,8.476
-1,90,8.477
-3,81,8.478
-5,40,8.479
-3,-18,8.48
-1,-77,8.481
0,-109,8.482
2,-91,8.483
5,-45,8.484
5,-10,8.485
3,11,8.486
6,44,8.487
9,81,8.488
3,84,8.489
-4,48,8.49
-7,19,8.491
-3,9,8.492
1,-34,8.493
2,-84,8.494
0,-13,8.495
-3,62,8.496
-4,153,8.497
-1,135,8.498
11,-210,8.499
19,-426,8.5
18,-251,8.501
12,-110,8.502
13,-70,8.503
15,-22,8.504
9,47,8.505
-2,84,8.506
-3,18,8.507
5,-50,8.508
10,-123,8.509
5,-178,8.51
1,-181,8.511
7,-145,8.512
17,8,8.513
14,144,8.514
7,157,8.515
0,124,8.516
-4,157,8.517
-7,201,8.518
-8,171,8.519
-8,125,8.52
-6,137,8.521
-4,148,8.522
-4,99,8.523
-4,55,8.524
-7,62,8.525
-9,41,8.526
-3,-49,8.527
3,-107,8.528
12,-56,8.529
18,20,8.53
16,28,8.531
12,13,8.532
5,40,8.533
-4,68,8.534
-22,40,8.535
-40,-13,8.536
-52,-34,8.537
-51,-42,8.538
-30,-88,8.539
-1,-148,8.54
17,-176,8.541
24,-186,8.542
32,-212,8.543
43,-234,8.544
46,-216,8.545
34,-173,8.546
17,-117,8.547
2,-34,8.548
-9,31,8.549
-16,-24,8.55
-10,-180,8.551
7,-244,8.552
21,-115,8.553
21,78,8.554
14,129,8.555
3,89,8.556
-5,194,8.557
-6,468,8.558
4,639,8.559
15,533,8.56
19,310,8.561
15,207,8.562
11,222,8.563
4,183,8.564
-10,41,8.565
-31,-95,8.566
-45,-141,8.567
-44,-126,8.568
-22,-98,8.569
21,-71,8.57
61,-77,8.571
67,-169,8.572
31,-317,8.573
-27,-402,8.574
-66,-277,8.575
-66,10,8.576
-43,214,8.577
-14,173,8.578
14,12,8.579
39,-26,8.58
56,74,8.581
56,108,8.582
46,-25,8.583
37,-176,8.584
33,-188,8.585
25,-90,8.586
17,-10,8.587
11,6,8.588
9,5,8.589
8,40,8.59
2,100,8.591
-6,116,8.592
-15,43,8.593
-24,-82,8.594
-27,-132,8.595
-24,-90,8.596
-17,-76,8.597
-14,-133,8.598
-11,-142,8.599
-5,-20,8.6
-4,119,8.601
-6,136,8.602
-9,67,8.603
-2,21,8.604
9,6,8.605
16,-10,8.606
14,6,8.607
11,71,8.608
9,108,8.609
7,65,8.61
8,19,8.611
9,35,8.612
5,56,8.613
-3,12,8.614
-10,-56,8.615
-11,-84,8.616
-10,-92,8.617
-13,-103,8.618
-16,-85,8.619
-15,-33,8.62
-16,-6,8.621
-22,-3,8.622
-26,54,8.623
-14,144,8.624
12,117,8.625
33,-98,8.626
39,-384,8.627
39,-599,8.628
39,-658,8.629
37,-451,8.63
31,75,8.631
28,675,8.632
29,890,8.633
20,548,8.634
-3,44,8.635
-28,-285,8.636
-32,-91,8.637
-16,25,8.638
18,-89,8.639
57,-176,8.64
80,-176,8.641
57,-101,8.642
-6,204,8.643
-63,456,8.644
-74,545,8.645
-48,563,8.646
-28,366,8.647
-28,152,8.648
-29,-112,8.649
-13,-208,8.65
9,201,8.651
26,472,8.652
41,322,8.653
49,112,8.654
42,-212,8.655
14,-361,8.656
-9,-367,8.657
-16,-250,8.658
-9,-66,8.659
-1,61,8.66
0,63,8.661
-3,8,8.662
-10,-20,8.663
-18,-33,8.664
-24,-67,8.665
-30,-101,8.666
-31,-140,8.667
-17,-264,8.668
10,-473,8.669
31,-576,8.67
32,-372,8.671
28,58,8.672
31,380,8.673
34,374,8.674
27,173,8.675
10,20,8.676
-3,13,8.677
-11,-9,8.678
-13,-78,8.679
-9,-198,8.68
-2,-470,8.681
3,-657,8.682
3,-589,8.683
4,-433,8.684
9,-15,8.685
13,287,8.686
12,243,8.687
8,170,8.688
5,14,8.689
2,-79,8.69
1,18,8.691
-1,169,8.692
-2,477,8.693
-5,651,8.694
-13,232,8.695
-22,-93,8.696
-26,159,8.697
-20,669,8.698
-4,778,8.699
11,377,8.7
8,-67,8.701
-4,-157,8.702
-7,57,8.703
1,282,8.704
8,321,8.705
1,199,8.706
-8,53,8.707
-13,-48,8.708
-12,-170,8.709
-6,-420,8.71
0,-784,8.711
3,-1033,8.712
-2,-916,8.713
-13,-319,8.714
-15,164,8.715
-16,263,8.716
-10,218,8.717
5,383,8.718
51,630,8.719
85,573,8.72
78,247,8.721
63,54,8.722
21,89,8.723
-10,83,8.724
-10,-51,8.725
-16,-95,8.726
-36,1,8.727
-49,27,8.728
-42,-133,8.729
-34,-432,8.73
-26,-825,8.731
-8,-1143,8.732
38,-1050,8.733
77,-382,8.734
59,425,8.735
-1,799,8.736
-79,711,8.737
-149,548,8.738
-164,488,8.739
-89,453,8.74
38,431,8.741
128,442,8.742
142,348,8.743
129,44,8.744
133,-301,8.745
128,-456,8.746
99,-448,8.747
73,-456,8.748
68,-508,8.749
48,-575,8.75
1,-790,8.751
-18,-1256,8.752
8,-1625,8.753
32,-1320,8.754
11,-154,8.755
-26,1224,8.756
-32,1925,8.757
-25,1797,8.758
-38,1394,8.759
-61,1171,8.76
-69,1044,8.761
-64,786,8.762
-60,438,8.763
-48,171,8.764
-25,15,8.765
-10,-97,8.766
-12,-186,8.767
-18,-229,8.768
-22,-232,8.769
-32,-236,8.77
-42,-272,8.771
-41,-333,8.772
-28,-368,8.773
-24,-345,8.774
-26,-301,8.775
-29,-310,8.776
-41,-368,8.777
-73,-421,8.778
-107,-478,8.779
-110,-575,8.78
-73,-648,8.781
-11,-570,8.782
60,-360,8.783
126,-256,8.784
153,-475,8.785
138,-861,8.786
125,-922,8.787
158,-385,8.788
200,363,8.789
173,677,8.79
51,514,8.791
-102,490,8.792
-196,914,8.793
-193,1420,8.794
-104,1413,8.795
11,918,8.796
79,445,8.797
83,259,8.798
68,166,8.799
73,-62,8.8
75,-410,8.801
33,-671,8.802
-49,-603,8.803
-125,-177,8.804
-156,252,8.805
-143,245,8.806
-114,-181,8.807
-83,-535,8.808
-22,-472,8.809
97,-179,8.81
236,-53,8.811
303,-205,8.812
275,-390,8.813
207,-320,8.814
122,12,8.815
25,296,8.816
-83,437,8.817
-155,560,8.818
-154,625,8.819
-111,626,8.82
-67,431,8.821
-26,240,8.822
5,58,8.823
-1,-97,8.824
-38,-173,8.825
-51,-256,8.826
-32,-357,8.827
-37,-403,8.828
-84,-277,8.829
-101,-172,8.83
-41,-128,8.831
49,-111,8.832
96,-179,8.833
166,-279,8.834
13,-436,8.835
-100,-463,8.836
-80,-442,8.837
-31,-424,8.838
116,-305,8.839
201,-99,8.84
97,-59,8.841
13,-227,8.842
-20,-189,8.843
-34,358,8.844
8,1019,8.845
31,1120,8.846
5,597,8.847
-6,62,8.848
28,15,8.849
42,321,8.85
-9,497,8.851
-36,207,8.852
5,-429,8.853
72,-1016,8.854
16,-932,8.855
-25,-65,8.856
-18,874,8.857
0,1120,8.858
54,716,8.859
85,260,8.86
47,17,8.861
16,-165,8.862
4,-235,8.863
-1,22,8.864
14,397,8.865
23,378,8.866
13,-91,8.867
9,-574,8.868
22,-817,8.869
27,-902,8.87
8,-785,8.871
-2,-320,8.872
13,256,8.873
30,588,8.874
37,577,8.875
13,471,8.876
-7,391,8.877
-11,233,8.878
-26,41,8.879
-79,-17,8.88
-167,3,8.881
-269,-111,8.882
-325,-349,8.883
-254,-500,8.884
-51,-498,8.885
153,-426,8.886
223,-306,8.887
183,-130,8.888
161,13,8.889
193,75,8.89
190,127,8.891
113,184,8.892
45,150,8.893
56,29,8.894
97,-16,8.895
89,-32,8.896
34,44,8.897
-25,109,8.898
-53,142,8.899
-32,164,8.9
22,154,8.901
41,128,8.902
-40,53,8.903
-184,-48,8.904
-260,-229,8.905
-174,-412,8.906
20,-597,8.907
190,-702,8.908
249,-560,8.909
212,-319,8.91
139,218,8.911
65,671,8.912
5,864,8.913
-42,962,8.914
-70,700,8.915
-96,379,8.916
-117,77,8.917
-137,-108,8.918
-156,-84,8.919
-169,74,8.92
-162,129,8.921
-141,-81,8.922
-79,-446,8.923
-33,-649,8.924
-40,-438,8.925
-42,100,8.926
-24,544,8.927
-16,493,8.928
-40,-5,8.929
-32,-486,8.93
73,-584,8.931
172,-377,8.932
254,-163,8.933
314,-37,8.934
283,77,8.935
220,219,8.936
118,337,8.937
-1,402,8.938
-85,428,8.939
-129,414,8.94
-182,343,8.941
-245,240,8.942
-262,127,8.943
-199,-10,8.944
-82,-201,8.945
52,-440,8.946
173,-670,8.947
223,-735,8.948
163,-488,8.949
37,-31,8.95
-51,275,8.951
-51,228,8.952
4,66,8.953
79,84,8.954
134,266,8.955
134,364,8.956
80,283,8.957
31,123,8.958
29,-84,8.959
19,-322,8.96
-70,-400,8.961
-202,-170,8.962
-242,180,8.963
-115,328,8.964
114,239,8.965
310,103,8.966
364,-14,8.967
252,-157,8.968
45,-251,8.969
-138,-177,8.97
-212,-46,8.971
-182,-102,8.972
-131,-341,8.973
-130,-474,8.974
-175,-292,8.975
-186,-55,8.976
-106,346,8.977
-5,629,8.978
7,555,8.979
-66,442,8.98
-124,211,8.981
-113,10,8.982
-78,-99,8.983
-49,-173,8.984
2,-141,8.985
73,-114,8.986
102,-108,8.987
67,-93,8.988
0,-49,8.989
-78,-14,8.99
-137,-6,8.991
-98,-7,8.992
51,-36,8.993
219,-68,8.994
288,-110,8.995
289,-125,8.996
300,-97,8.997
281,-68,8.998
174,-93,8.999
76,-143,9.0
88,-160,9.001
112,-143,9.002
15,-136,9.003
-110,-152,9.004
-96,-174,9.005
25,-165,9.006
94,-61,9.007
72,180,9.008
29,470,9.009
-44,623,9.01
-168,562,9.011
-254,404,9.012
-222,276,9.013
-144,149,9.014
-133,0,9.015
-146,-103,9.016
-48,-104,9.017
128,-73,9.018
227,-102,9.019
177,-149,9.02
27,-118,9.021
-197,-19,9.022
-450,59,9.023
-548,73,9.024
-323,39,9.025
98,-14,9.026
373,-60,9.027
324,-76,9.028
117,-77,9.029
-12,-90,9.03
-10,-104,9.031
51,-91,9.032
121,-67,9.033
171,-67,9.034
156,-89,9.035
101,-90,9.036
94,-46,9.037
122,25,9.038
67,71,9.039
-67,69,9.04
-118,35,9.041
-34,6,9.042
21,-6,9.043
-47,-32,9.044
-103,-101,9.045
-24,-194,9.046
65,-251,9.047
22,-213,9.048
-67,-64,9.049
-54,138,9.05
34,295,9.051
64,352,9.052
-15,334,9.053
-173,272,9.054
-289,174,9.055
-203,42,9.056
103,-68,9.057
373,-97,9.058
321,-69,9.059
10,-47,9.06
-241,-44,9.061
-303,-21,9.062
-296,18,9.063
-253,24,9.064
-79,-25,9.065
167,-102,9.066
298,-190,9.067
304,-286,9.068
330,-337,9.069
355,-253,9.07
193,-20,9.071
-146,229,9.072
-396,344,9.073
-418,307,9.074
-307,212,9.075
-211,137,9.076
-122,55,9.077
17,-96,9.078
165,-309,9.079
247,-493,9.08
271,-535,9.081
290,-371,9.082
308,-44,9.083
287,299,9.084
215,508,9.085
86,565,9.086
-106,555,9.087
-326,515,9.088
-441,397,9.089
-342,196,9.09
-93,27,9.091
111,-26,9.092
159,-22,9.093
130,-58,9.094
149,-124,9.095
199,-152,9.096
173,-138,9.097
48,-131,9.098
-96,-141,9.099
-199,-142,9.1
-243,-132,9.101
-195,-129,9.102
-53,-118,9.103
74,-81,9.104
76,-45,9.105
-11,-43,9.106
-48,-66,9.107
23,-79,9.108
108,-77,9.109
94,-71,9.11
-23,-70,9.111
-127,-73,9.112
-117,-71,9.113
-33,-61,9.114
-23,-32,9.115
-122,-8,9.116
-162,-15,9.117
-18,-33,9.118
159,-31,9.119
152,-12,9.12
1,-3,9.121
-74,-4,9.122
-14,13,9.123
38,47,9.124
-2,66,9.125
-61,45,9.126
-81,14,9.127
-87,8,9.128
-93,30,9.129
-50,58,9.13
60,79,9.131
188,93,9.132
259,88,9.133
225,49,9.134
97,-8,9.135
-41,-45,9.136
-101,-38,9.137
-88,7,9.138
-62,52,9.139
-24,71,9.14
45,72,9.141
93,69,9.142
52,53,9.143
-22,15,9.144
-33,-21,9.145
-3,-30,9.146
-18,-20,9.147
-43,-18,9.148
40,-29,9.149
206,-37,9.15
279,-29,9.151
169,-13,9.152
-19,1,9.153
-198,10,9.154
-317,6,9.155
-327,-9,9.156
-181,-26,9.157
49,-30,9.158
216,-33,9.159
290,-43,9.16
359,-43,9.161
401,-24,9.162
263,-15,9.163
-55,-37,9.164
-312,-54,9.165
-326,-11,9.166
-205,80,9.167
-132,137,9.168
-99,113,9.169
-3,58,9.17
153,39,9.171
294,47,9.172
359,30,9.173
281,-36,9.174
6,-122,9.175
-359,-213,9.176
-549,-306,9.177
-466,-346,9.178
-298,-271,9.179
-222,-105,9.18
-160,34,9.181
16,73,9.182
231,71,9.183
322,124,9.184
297,242,9.185
277,346,9.186
278,381,9.187
212,359,9.188
66,305,9.189
-54,204,9.19
-71,38,9.191
-19,-134,9.192
10,-198,9.193
-36,-115,9.194
-123,14,9.195
-190,103,9.196
-211,66,9.197
-198,35,9.198
-149,24,9.199
-53,13,9.2
53,1,9.201
104,-11,9.202
83,-20,9.203
39,-43,9.204
36,-103,9.205
80,-141,9.206
140,-114,9.207
183,-93,9.208
172,-91,9.209
91,-88,9.21
-45,-80,9.211
-188,-75,9.212
-273,-82,9.213
-280,-83,9.214
-208,-49,9.215
-87,-22,9.216
47,-38,9.217
156,-66,9.218
217,-64,9.219
214,-37,9.22
136,-15,9.221
9,1,9.222
-126,24,9.223
-233,33,9.224
-279,16,9.225
-202,-8,9.226
18,-17,9.227
244,-15,9.228
286,-10,9.229
165,10,9.23
99,54,9.231
163,85,9.232
183,74,9.233
63,26,9.234
-21,-8,9.235
65,-10,9.236
118,-3,9.237
-67,-3,9.238
-303,-11,9.239
-271,-13,9.24
-46,-6,9.241
43,-1,9.242
-47,-4,9.243
-74,-12,9.244
36,-14,9.245
98,-4,9.246
20,7,9.247
-54,9,9.248
-13,0,9.249
70,-9,9.25
92,-14,9.251
69,-15,9.252
54,-9,9.253
53,-1,9.254
62,2,9.255
84,-19,9.256
106,-63,9.257
87,-85,9.258
11,-47,9.259
-86,40,9.26
-148,122,9.261
-156,151,9.262
-128,119,9.263
-94,40,9.264
-58,-64,9.265
-14,-136,9.266
20,-103,9.267
8,47,9.268
-55,204,9.269
-140,253,9.27
-199,194,9.271
-187,112,9.272
-105,54,9.273
5,-3,9.274
74,-49,9.275
95,-78,9.276
134,-51,9.277
196,-25,9.278
187,0,9.279
63,13,9.28
-57,-8,9.281
-34,-40,9.282
106,-98,9.283
219,-127,9.284
229,-69,9.285
165,-11,9.286
67,46,9.287
-50,92,9.288
-144,102,9.289
-157,98,9.29
-90,52,9.291
-13,18,9.292
29,18,9.293
75,14,9.294
152,-12,9.295
187,-52,9.296
96,-75,9.297
0,-71,9.298
-110,-55,9.299
-177,-37,9.3
-115,-20,9.301
-76,-20,9.302
-105,-37,9.303
-122,-49,9.304
-98,-40,9.305
-90,-18,9.306
-134,-10,9.307
-153,-18,9.308
-93,-23,9.309
-31,-19,9.31
30,-19,9.311
100,-31,9.312
192,-43,9.313
250,-44,9.314
159,-30,9.315
71,-9,9.316
79,2,9.317
102,3,9.318
65,-7,9.319
27,-18,9.32
36,-18,9.321
35,-6,9.322
-30,10,9.323
-106,24,9.324
-128,35,9.325
-114,41,9.326
-104,35,9.327
-103,15,9.328
-105,6,9.329
-114,11,9.33
-105,13,9.331
-52,1,9.332
19,-7,9.333
75,-4,9.334
97,1,9.335
97,5,9.336
71,1,9.337
37,-1,9.338
47,4,9.339
96,7,9.34
96,3,9.341
28,3,9.342
-9,18,9.343
42,32,9.344
97,40,9.345
71,43,9.346
15,33,9.347
13,22,9.348
41,7,9.349
29,-5,9.35
-7,-3,9.351
-10,-3,9.352
21,-8,9.353
33,-11,9.354
21,-6,9.355
9,-5,9.356
-4,-8,9.357
-26,0,9.358
-73,14,9.359
-113,24,9.36
-131,26,9.361
-143,23,9.362
-135,14,9.363
-110,0,9.364
-36,-10,9.365
38,-14,9.366
116,-23,9.367
165,-41,9.368
122,-52,9.369
62,-37,9.37
-44,-8,9.371
-99,11,9.372
4,13,9.373
99,9,9.374
65,9,9.375
-98,10,9.376
-174,1,9.377
-42,-9,9.378
154,-11,9.379
217,-6,9.38
142,-3,9.381
52,-8,9.382
3,-15,9.383
-30,-18,9.384
-48,-14,9.385
-35,-10,9.386
-12,-4,9.387
-21,7,9.388
-54,15,9.389
-74,8,9.39
-79,-9,9.391
-77,-10,9.392
-55,7,9.393
-8,18,9.394
33,8,9.395
36,-8,9.396
18,-14,9.397
3,-9,9.398
-11,-10,9.399
-31,-9,9.4
-38,4,9.401
-23,19,9.402
-9,23,9.403
-18,24,9.404
-24,32,9.405
-1,40,9.406
32,30,9.407
43,-3,9.408
37,-61,9.409
38,-132,9.41
43,-169,9.411
27,-125,9.412
9,-39,9.413
21,-314,9.414
59,-254,9.415
74,-166,9.416
46,2,9.417
18,116,9.418
18,73,9.419
12,35,9.42
-31,16,9.421
-75,2,9.422
-66,-5,9.423
-22,-5,9.424
-1,26,9.425
-11,42,9.426
-22,21,9.427
-64,2,9.428
