Deltoid,Bicep,Time
0.0,-4.0,0.0
-2.0,-10.0,0.001
-5.0,-10.0,0.002
-1.0,-6.0,0.003
5.0,-4.0,0.004
7.0,-2.0,0.005
3.0,1.0,0.006
2.0,3.0,0.007
8.0,0.0,0.008
8.0,-3.0,0.009
4.0,-3.0,0.01
3.0,-2.0,0.011
8.0,-2.0,0.012
12.0,0.0,0.013
6.0,2.0,0.014
0.0,3.0,0.015
-1.0,0.0,0.016
0.0,-1.0,0.017
-2.0,-2.0,0.018
-2.0,-5.0,0.019
-2.0,-6.0,0.02
-2.0,-6.0,0.021
-2.0,-3.0,0.022
4.0,0.0,0.023
8.0,0.0,0.024
3.0,1.0,0.025
1.0,3.0,0.026
2.0,4.0,0.027
2.0,2.0,0.028
2.0,3.0,0.029
2.0,7.0,0.03
2.0,4.0,0.031
2.0,-2.0,0.032
6.0,-5.0,0.033
9.0,-2.0,0.034
5.0,0.0,0.035
2.0,-2.0,0.036
2.0,-4.0,0.037
-3.0,-2.0,0.038
-3.0,0.0,0.039
-3.0,1.0,0.04
-4.0,-3.0,0.041
-3.0,-5.0,0.042
5.0,-3.0,0.043
10.0,0.0,0.044
4.0,1.0,0.045
0.0,3.0,0.046
1.0,3.0,0.047
2.0,1.0,0.048
2.0,0.0,0.049
2.0,-1.0,0.05
2.0,1.0,0.051
2.0,3.0,0.052
7.0,-1.0,0.053
11.0,-4.0,0.054
6.0,-4.0,0.055
2.0,-4.0,0.056
2.0,-1.0,0.057
2.0,1.0,0.058
2.0,-2.0,0.059
-1.0,-4.0,0.06
-7.0,-4.0,0.061
-10.0,0.0,0.062
-3.0,2.0,0.063
6.0,0.0,0.064
11.0,0.0,0.065
9.0,3.0,0.066
9.0,4.0,0.067
10.0,0.0,0.068
2.0,-2.0,0.069
-6.0,-1.0,0.07
-4.0,0.0,0.071
10.0,-4.0,0.072
21.0,-6.0,0.073
16.0,-4.0,0.074
4.0,-4.0,0.075
-4.0,-9.0,0.076
-1.0,-10.0,0.077
3.0,-7.0,0.078
3.0,-2.0,0.079
-6.0,-2.0,0.08
-18.0,-8.0,0.081
-21.0,-9.0,0.082
-20.0,-2.0,0.083
-16.0,3.0,0.084
-9.0,4.0,0.085
1.0,3.0,0.086
15.0,3.0,0.087
17.0,2.0,0.088
13.0,0.0,0.089
13.0,0.0,0.09
20.0,2.0,0.091
25.0,0.0,0.092
22.0,-2.0,0.093
18.0,-1.0,0.094
16.0,3.0,0.095
20.0,5.0,0.096
31.0,4.0,0.097
39.0,0.0,0.098
26.0,0.0,0.099
-16.0,-1.0,0.1
-57.0,-6.0,0.101
-66.0,-6.0,0.102
-38.0,-3.0,0.103
-9.0,-1.0,0.104
3.0,-1.0,0.105
8.0,1.0,0.106
14.0,5.0,0.107
16.0,5.0,0.108
2.0,-1.0,0.109
-10.0,-6.0,0.11
-7.0,-4.0,0.111
5.0,0.0,0.112
12.0,0.0,0.113
8.0,-1.0,0.114
2.0,0.0,0.115
2.0,2.0,0.116
4.0,2.0,0.117
1.0,0.0,0.118
0.0,0.0,0.119
-1.0,1.0,0.12
-2.0,-3.0,0.121
-2.0,-5.0,0.122
5.0,-4.0,0.123
10.0,-2.0,0.124
7.0,2.0,0.125
5.0,3.0,0.126
6.0,3.0,0.127
7.0,3.0,0.128
9.0,4.0,0.129
11.0,1.0,0.13
5.0,-3.0,0.131
1.0,-6.0,0.132
2.0,-4.0,0.133
3.0,0.0,0.134
3.0,1.0,0.135
4.0,-2.0,0.136
4.0,-3.0,0.137
3.0,-3.0,0.138
1.0,-3.0,0.139
-3.0,-2.0,0.14
-5.0,-5.0,0.141
-5.0,-5.0,0.142
-1.0,-2.0,0.143
5.0,0.0,0.144
6.0,2.0,0.145
1.0,2.0,0.146
-2.0,0.0,0.147
1.0,-3.0,0.148
4.0,-6.0,0.149
3.0,-3.0,0.15
1.0,0.0,0.151
6.0,-1.0,0.152
13.0,-5.0,0.153
13.0,-7.0,0.154
9.0,-3.0,0.155
3.0,0.0,0.156
3.0,1.0,0.157
2.0,-3.0,0.158
0.0,-4.0,0.159
-6.0,-1.0,0.16
-12.0,-2.0,0.161
-12.0,-6.0,0.162
-6.0,-6.0,0.163
2.0,-3.0,0.164
5.0,2.0,0.165
1.0,3.0,0.166
0.0,2.0,0.167
3.0,3.0,0.168
5.0,4.0,0.169
1.0,1.0,0.17
-3.0,-2.0,0.171
0.0,-3.0,0.172
6.0,0.0,0.173
7.0,1.0,0.174
6.0,1.0,0.175
8.0,1.0,0.176
12.0,4.0,0.177
9.0,4.0,0.178
3.0,1.0,0.179
-4.0,-1.0,0.18
-8.0,-3.0,0.181
-7.0,-2.0,0.182
-1.0,-1.0,0.183
5.0,0.0,0.184
8.0,0.0,0.185
5.0,0.0,0.186
3.0,-3.0,0.187
6.0,-4.0,0.188
9.0,-3.0,0.189
4.0,-1.0,0.19
1.0,0.0,0.191
3.0,1.0,0.192
6.0,2.0,0.193
6.0,3.0,0.194
6.0,3.0,0.195
11.0,0.0,0.196
12.0,1.0,0.197
2.0,0.0,0.198
-7.0,-1.0,0.199
-13.0,-5.0,0.2
-8.0,-8.0,0.201
0.0,-6.0,0.202
5.0,-4.0,0.203
2.0,-2.0,0.204
-5.0,1.0,0.205
-9.0,1.0,0.206
-10.0,-2.0,0.207
-4.0,-6.0,0.208
-1.0,-4.0,0.209
-5.0,1.0,0.21
-9.0,0.0,0.211
-7.0,-3.0,0.212
-2.0,-5.0,0.213
5.0,-3.0,0.214
10.0,-1.0,0.215
11.0,0.0,0.216
7.0,2.0,0.217
1.0,4.0,0.218
0.0,3.0,0.219
-1.0,-1.0,0.22
-3.0,-5.0,0.221
-4.0,-4.0,0.222
1.0,-2.0,0.223
9.0,-2.0,0.224
9.0,0.0,0.225
4.0,4.0,0.226
1.0,0.0,0.227
2.0,-4.0,0.228
3.0,-6.0,0.229
2.0,-3.0,0.23
6.0,-1.0,0.231
10.0,-3.0,0.232
8.0,-4.0,0.233
2.0,-2.0,0.234
-2.0,3.0,0.235
1.0,7.0,0.236
5.0,9.0,0.237
5.0,5.0,0.238
1.0,-1.0,0.239
-5.0,-5.0,0.24
-9.0,-5.0,0.241
-7.0,-2.0,0.242
3.0,0.0,0.243
12.0,2.0,0.244
8.0,4.0,0.245
0.0,3.0,0.246
0.0,0.0,0.247
8.0,-1.0,0.248
10.0,1.0,0.249
3.0,1.0,0.25
-2.0,-3.0,0.251
-2.0,-7.0,0.252
-2.0,-5.0,0.253
-2.0,-2.0,0.254
0.0,-1.0,0.255
2.0,-1.0,0.256
2.0,1.0,0.257
2.0,1.0,0.258
3.0,-1.0,0.259
2.0,-2.0,0.26
-6.0,-5.0,0.261
-10.0,-4.0,0.262
-4.0,-3.0,0.263
0.0,0.0,0.264
-3.0,2.0,0.265
-6.0,4.0,0.266
-6.0,3.0,0.267
-6.0,2.0,0.268
0.0,2.0,0.269
4.0,4.0,0.27
4.0,5.0,0.271
4.0,2.0,0.272
8.0,0.0,0.273
12.0,0.0,0.274
18.0,2.0,0.275
23.0,1.0,0.276
23.0,0.0,0.277
20.0,-4.0,0.278
9.0,-3.0,0.279
-1.0,-1.0,0.28
-5.0,-5.0,0.281
-4.0,-7.0,0.282
-1.0,-6.0,0.283
4.0,-4.0,0.284
6.0,-2.0,0.285
0.0,0.0,0.286
-3.0,2.0,0.287
3.0,2.0,0.288
16.0,0.0,0.289
21.0,-2.0,0.29
10.0,-3.0,0.291
-6.0,-5.0,0.292
-10.0,-8.0,0.293
1.0,-9.0,0.294
10.0,-7.0,0.295
3.0,-7.0,0.296
-9.0,-5.0,0.297
-9.0,-2.0,0.298
-3.0,-1.0,0.299
-2.0,0.0,0.3
-15.0,-3.0,0.301
-21.0,-3.0,0.302
-2.0,0.0,0.303
12.0,1.0,0.304
10.0,1.0,0.305
9.0,2.0,0.306
9.0,2.0,0.307
8.0,0.0,0.308
11.0,-1.0,0.309
13.0,-1.0,0.31
9.0,-1.0,0.311
5.0,-4.0,0.312
5.0,-6.0,0.313
3.0,-4.0,0.314
1.0,1.0,0.315
-1.0,0.0,0.316
-4.0,-1.0,0.317
-6.0,-2.0,0.318
-6.0,-2.0,0.319
-6.0,0.0,0.32
-7.0,-1.0,0.321
-7.0,-4.0,0.322
-1.0,-4.0,0.323
5.0,-2.0,0.324
4.0,3.0,0.325
1.0,6.0,0.326
3.0,3.0,0.327
9.0,1.0,0.328
10.0,3.0,0.329
6.0,7.0,0.33
6.0,6.0,0.331
14.0,0.0,0.332
16.0,-4.0,0.333
10.0,-3.0,0.334
2.0,-3.0,0.335
-2.0,-5.0,0.336
-3.0,-4.0,0.337
-5.0,-2.0,0.338
-4.0,0.0,0.339
-3.0,-1.0,0.34
-4.0,-5.0,0.341
-5.0,-6.0,0.342
0.0,-5.0,0.343
5.0,0.0,0.344
5.0,4.0,0.345
4.0,7.0,0.346
3.0,4.0,0.347
2.0,0.0,0.348
5.0,-2.0,0.349
8.0,0.0,0.35
8.0,0.0,0.351
7.0,3.0,0.352
7.0,4.0,0.353
7.0,4.0,0.354
3.0,2.0,0.355
-1.0,1.0,0.356
0.0,3.0,0.357
3.0,1.0,0.358
2.0,-2.0,0.359
-5.0,-3.0,0.36
-13.0,-4.0,0.361
-12.0,-4.0,0.362
-2.0,-5.0,0.363
6.0,-4.0,0.364
8.0,-1.0,0.365
4.0,0.0,0.366
1.0,-1.0,0.367
2.0,-1.0,0.368
8.0,-2.0,0.369
11.0,-2.0,0.37
12.0,-3.0,0.371
12.0,0.0,0.372
13.0,5.0,0.373
10.0,5.0,0.374
-1.0,0.0,0.375
-9.0,-4.0,0.376
-9.0,-2.0,0.377
-7.0,-2.0,0.378
-7.0,-1.0,0.379
-8.0,-1.0,0.38
-10.0,-4.0,0.381
-10.0,-4.0,0.382
1.0,-3.0,0.383
11.0,0.0,0.384
16.0,2.0,0.385
21.0,5.0,0.386
19.0,3.0,0.387
17.0,-2.0,0.388
13.0,-4.0,0.389
13.0,-2.0,0.39
30.0,1.0,0.391
38.0,0.0,0.392
19.0,-1.0,0.393
0.0,-1.0,0.394
-20.0,-1.0,0.395
-33.0,-3.0,0.396
-25.0,-4.0,0.397
-14.0,-4.0,0.398
-6.0,-2.0,0.399
-5.0,0.0,0.4
-6.0,-4.0,0.401
-8.0,-6.0,0.402
-7.0,-4.0,0.403
-2.0,-1.0,0.404
1.0,1.0,0.405
-1.0,3.0,0.406
-9.0,1.0,0.407
-18.0,-1.0,0.408
-17.0,-3.0,0.409
-8.0,-4.0,0.41
8.0,-1.0,0.411
23.0,1.0,0.412
30.0,0.0,0.413
28.0,-1.0,0.414
26.0,0.0,0.415
27.0,0.0,0.416
30.0,-1.0,0.417
23.0,-2.0,0.418
11.0,0.0,0.419
0.0,0.0,0.42
-8.0,-5.0,0.421
-12.0,-4.0,0.422
-6.0,0.0,0.423
-1.0,4.0,0.424
-1.0,6.0,0.425
-1.0,6.0,0.426
-1.0,4.0,0.427
0.0,0.0,0.428
2.0,-3.0,0.429
4.0,-1.0,0.43
2.0,1.0,0.431
1.0,2.0,0.432
1.0,0.0,0.433
1.0,1.0,0.434
1.0,1.0,0.435
1.0,0.0,0.436
1.0,-1.0,0.437
1.0,-2.0,0.438
0.0,0.0,0.439
-4.0,0.0,0.44
-10.0,-2.0,0.441
-10.0,0.0,0.442
-1.0,3.0,0.443
8.0,3.0,0.444
9.0,0.0,0.445
1.0,-1.0,0.446
-1.0,-1.0,0.447
1.0,-2.0,0.448
4.0,-2.0,0.449
5.0,0.0,0.45
3.0,-1.0,0.451
2.0,-6.0,0.452
0.0,-7.0,0.453
-2.0,-3.0,0.454
-3.0,0.0,0.455
0.0,-2.0,0.456
3.0,-4.0,0.457
2.0,-3.0,0.458
0.0,-1.0,0.459
-3.0,-3.0,0.46
-4.0,-7.0,0.461
-3.0,-4.0,0.462
2.0,1.0,0.463
8.0,0.0,0.464
9.0,-2.0,0.465
9.0,-1.0,0.466
5.0,0.0,0.467
2.0,0.0,0.468
5.0,-2.0,0.469
7.0,0.0,0.47
5.0,1.0,0.471
4.0,0.0,0.472
4.0,-3.0,0.473
5.0,-3.0,0.474
4.0,-3.0,0.475
3.0,-2.0,0.476
4.0,0.0,0.477
5.0,0.0,0.478
0.0,1.0,0.479
-8.0,1.0,0.48
-12.0,-4.0,0.481
-10.0,-8.0,0.482
-5.0,-5.0,0.483
0.0,-2.0,0.484
5.0,0.0,0.485
9.0,2.0,0.486
10.0,3.0,0.487
9.0,4.0,0.488
11.0,2.0,0.489
14.0,1.0,0.49
17.0,0.0,0.491
19.0,-2.0,0.492
19.0,0.0,0.493
12.0,1.0,0.494
0.0,0.0,0.495
-4.0,-1.0,0.496
0.0,-3.0,0.497
1.0,-5.0,0.498
-4.0,-2.0,0.499
-8.0,0.0,0.5
-9.0,-3.0,0.501
-10.0,-2.0,0.502
-5.0,-2.0,0.503
-1.0,0.0,0.504
0.0,2.0,0.505
0.0,6.0,0.506
-3.0,8.0,0.507
-5.0,3.0,0.508
-3.0,-1.0,0.509
0.0,-2.0,0.51
4.0,0.0,0.511
9.0,0.0,0.512
17.0,-2.0,0.513
21.0,-2.0,0.514
9.0,-2.0,0.515
-1.0,-3.0,0.516
-8.0,-2.0,0.517
-11.0,0.0,0.518
-5.0,3.0,0.519
-16.0,5.0,0.52
-35.0,0.0,0.521
-41.0,-4.0,0.522
-19.0,-6.0,0.523
12.0,-5.0,0.524
28.0,0.0,0.525
25.0,3.0,0.526
23.0,3.0,0.527
25.0,0.0,0.528
22.0,-4.0,0.529
11.0,-3.0,0.53
1.0,-1.0,0.531
3.0,0.0,0.532
9.0,0.0,0.533
6.0,1.0,0.534
0.0,1.0,0.535
0.0,-1.0,0.536
5.0,0.0,0.537
4.0,-2.0,0.538
0.0,-1.0,0.539
-4.0,0.0,0.54
-7.0,-1.0,0.541
-9.0,-3.0,0.542
-3.0,-3.0,0.543
1.0,-3.0,0.544
1.0,0.0,0.545
1.0,2.0,0.546
0.0,2.0,0.547
-1.0,1.0,0.548
2.0,1.0,0.549
5.0,1.0,0.55
6.0,0.0,0.551
6.0,-1.0,0.552
4.0,0.0,0.553
2.0,2.0,0.554
3.0,2.0,0.555
4.0,1.0,0.556
6.0,1.0,0.557
7.0,-2.0,0.558
2.0,-1.0,0.559
-4.0,0.0,0.56
-9.0,-1.0,0.561
-8.0,-3.0,0.562
-3.0,-3.0,0.563
4.0,-3.0,0.564
7.0,0.0,0.565
4.0,2.0,0.566
4.0,2.0,0.567
8.0,1.0,0.568
8.0,1.0,0.569
2.0,1.0,0.57
-2.0,0.0,0.571
-2.0,-1.0,0.572
1.0,0.0,0.573
3.0,2.0,0.574
1.0,2.0,0.575
-3.0,1.0,0.576
-11.0,1.0,0.577
-18.0,1.0,0.578
-11.0,3.0,0.579
-2.0,1.0,0.58
11.0,-5.0,0.581
21.0,-7.0,0.582
11.0,-8.0,0.583
3.0,-5.0,0.584
-1.0,1.0,0.585
-2.0,7.0,0.586
7.0,4.0,0.587
16.0,-2.0,0.588
22.0,-4.0,0.589
25.0,0.0,0.59
19.0,2.0,0.591
14.0,0.0,0.592
15.0,-5.0,0.593
15.0,-5.0,0.594
11.0,-2.0,0.595
6.0,-1.0,0.596
-3.0,2.0,0.597
-9.0,-1.0,0.598
-3.0,-5.0,0.599
-4.0,-6.0,0.6
-13.0,-6.0,0.601
-17.0,-4.0,0.602
-6.0,-3.0,0.603
2.0,0.0,0.604
0.0,5.0,0.605
-4.0,10.0,0.606
-2.0,7.0,0.607
4.0,2.0,0.608
4.0,0.0,0.609
0.0,0.0,0.61
-1.0,-2.0,0.611
0.0,-6.0,0.612
0.0,-4.0,0.613
-1.0,-1.0,0.614
-1.0,0.0,0.615
0.0,-1.0,0.616
2.0,-2.0,0.617
1.0,-2.0,0.618
0.0,-3.0,0.619
-1.0,-5.0,0.62
-3.0,-9.0,0.621
-5.0,-8.0,0.622
0.0,-6.0,0.623
5.0,-3.0,0.624
10.0,1.0,0.625
13.0,6.0,0.626
10.0,6.0,0.627
-1.0,2.0,0.628
-18.0,-1.0,0.629
-27.0,0.0,0.63
-15.0,1.0,0.631
6.0,-1.0,0.632
20.0,0.0,0.633
18.0,3.0,0.634
15.0,4.0,0.635
14.0,0.0,0.636
11.0,-2.0,0.637
3.0,-2.0,0.638
0.0,-1.0,0.639
2.0,-3.0,0.64
0.0,-6.0,0.641
-5.0,-5.0,0.642
-3.0,-1.0,0.643
6.0,1.0,0.644
10.0,2.0,0.645
4.0,4.0,0.646
-1.0,3.0,0.647
2.0,-1.0,0.648
5.0,-3.0,0.649
3.0,-3.0,0.65
1.0,0.0,0.651
5.0,1.0,0.652
8.0,1.0,0.653
4.0,2.0,0.654
0.0,2.0,0.655
0.0,0.0,0.656
5.0,1.0,0.657
4.0,0.0,0.658
1.0,-3.0,0.659
-2.0,-6.0,0.66
-6.0,-9.0,0.661
-7.0,-8.0,0.662
-1.0,-5.0,0.663
3.0,-2.0,0.664
5.0,1.0,0.665
5.0,5.0,0.666
-3.0,4.0,0.667
-12.0,0.0,0.668
-20.0,-3.0,0.669
-23.0,0.0,0.67
-6.0,3.0,0.671
7.0,3.0,0.672
8.0,-1.0,0.673
10.0,-1.0,0.674
14.0,0.0,0.675
20.0,0.0,0.676
34.0,0.0,0.677
46.0,0.0,0.678
36.0,2.0,0.679
13.0,4.0,0.68
-7.0,-1.0,0.681
-9.0,-5.0,0.682
5.0,-3.0,0.683
12.0,0.0,0.684
3.0,3.0,0.685
-5.0,6.0,0.686
-2.0,4.0,0.687
2.0,2.0,0.688
0.0,0.0,0.689
-4.0,-3.0,0.69
-2.0,-3.0,0.691
2.0,-4.0,0.692
2.0,-4.0,0.693
-1.0,-3.0,0.694
-1.0,-3.0,0.695
-1.0,-2.0,0.696
-3.0,-2.0,0.697
-5.0,-2.0,0.698
-4.0,-3.0,0.699
-6.0,-1.0,0.7
-11.0,-3.0,0.701
-11.0,-4.0,0.702
-2.0,-5.0,0.703
7.0,-4.0,0.704
7.0,0.0,0.705
2.0,2.0,0.706
1.0,0.0,0.707
4.0,-3.0,0.708
5.0,-6.0,0.709
2.0,-5.0,0.71
1.0,-2.0,0.711
4.0,-4.0,0.712
6.0,-6.0,0.713
4.0,-4.0,0.714
3.0,-1.0,0.715
3.0,-1.0,0.716
4.0,0.0,0.717
3.0,1.0,0.718
3.0,2.0,0.719
-2.0,2.0,0.72
-6.0,-2.0,0.721
-7.0,-2.0,0.722
0.0,0.0,0.723
8.0,3.0,0.724
8.0,3.0,0.725
3.0,4.0,0.726
0.0,1.0,0.727
4.0,-1.0,0.728
6.0,0.0,0.729
4.0,4.0,0.73
2.0,3.0,0.731
7.0,-2.0,0.732
16.0,-6.0,0.733
16.0,-2.0,0.734
6.0,0.0,0.735
-8.0,-2.0,0.736
-11.0,-3.0,0.737
-6.0,-4.0,0.738
-6.0,-1.0,0.739
-10.0,0.0,0.74
-26.0,-2.0,0.741
-32.0,-3.0,0.742
-8.0,-3.0,0.743
11.0,0.0,0.744
19.0,2.0,0.745
24.0,3.0,0.746
20.0,2.0,0.747
15.0,2.0,0.748
9.0,1.0,0.749
4.0,0.0,0.75
4.0,-2.0,0.751
4.0,-2.0,0.752
5.0,0.0,0.753
6.0,-1.0,0.754
2.0,-2.0,0.755
-1.0,-2.0,0.756
0.0,1.0,0.757
2.0,1.0,0.758
0.0,-1.0,0.759
-2.0,-4.0,0.76
-4.0,-9.0,0.761
-4.0,-10.0,0.762
-2.0,-9.0,0.763
0.0,-3.0,0.764
0.0,4.0,0.765
-1.0,9.0,0.766
1.0,8.0,0.767
5.0,4.0,0.768
6.0,3.0,0.769
5.0,3.0,0.77
7.0,1.0,0.771
10.0,-3.0,0.772
11.0,-4.0,0.773
13.0,-3.0,0.774
12.0,-1.0,0.775
9.0,-2.0,0.776
3.0,-1.0,0.777
-1.0,-2.0,0.778
-2.0,-2.0,0.779
-3.0,-1.0,0.78
-7.0,0.0,0.781
-10.0,1.0,0.782
-4.0,2.0,0.783
5.0,3.0,0.784
8.0,3.0,0.785
2.0,4.0,0.786
-1.0,3.0,0.787
1.0,2.0,0.788
2.0,0.0,0.789
0.0,-1.0,0.79
-1.0,0.0,0.791
2.0,0.0,0.792
5.0,-2.0,0.793
5.0,-5.0,0.794
5.0,-5.0,0.795
6.0,-5.0,0.796
8.0,-3.0,0.797
4.0,-1.0,0.798
1.0,-1.0,0.799
-3.0,-4.0,0.8
-5.0,-6.0,0.801
-6.0,-5.0,0.802
-4.0,0.0,0.803
0.0,5.0,0.804
4.0,9.0,0.805
5.0,7.0,0.806
5.0,3.0,0.807
5.0,0.0,0.808
4.0,0.0,0.809
2.0,0.0,0.81
2.0,-1.0,0.811
3.0,-3.0,0.812
3.0,-2.0,0.813
3.0,0.0,0.814
4.0,0.0,0.815
3.0,-2.0,0.816
2.0,-2.0,0.817
0.0,-2.0,0.818
-2.0,0.0,0.819
-3.0,-2.0,0.82
2.0,-8.0,0.821
9.0,-9.0,0.822
19.0,-8.0,0.823
20.0,-2.0,0.824
-5.0,5.0,0.825
-27.0,5.0,0.826
-35.0,2.0,0.827
-37.0,-4.0,0.828
-18.0,-5.0,0.829
-1.0,-2.0,0.83
12.0,0.0,0.831
25.0,-2.0,0.832
34.0,-4.0,0.833
38.0,-1.0,0.834
28.0,3.0,0.835
18.0,4.0,0.836
8.0,3.0,0.837
1.0,0.0,0.838
1.0,-1.0,0.839
-2.0,-2.0,0.84
-7.0,-7.0,0.841
-11.0,-6.0,0.842
-4.0,-1.0,0.843
6.0,5.0,0.844
9.0,8.0,0.845
1.0,5.0,0.846
-5.0,2.0,0.847
-3.0,-1.0,0.848
0.0,0.0,0.849
-1.0,0.0,0.85
-4.0,0.0,0.851
-2.0,-4.0,0.852
3.0,-7.0,0.853
5.0,-8.0,0.854
1.0,-7.0,0.855
0.0,-7.0,0.856
2.0,-6.0,0.857
0.0,-5.0,0.858
-1.0,-3.0,0.859
-4.0,-1.0,0.86
-6.0,-4.0,0.861
-6.0,-5.0,0.862
0.0,-4.0,0.863
6.0,0.0,0.864
8.0,3.0,0.865
10.0,4.0,0.866
9.0,0.0,0.867
9.0,-3.0,0.868
13.0,-2.0,0.869
15.0,2.0,0.87
7.0,4.0,0.871
1.0,0.0,0.872
1.0,-4.0,0.873
0.0,0.0,0.874
-2.0,6.0,0.875
-4.0,7.0,0.876
-1.0,4.0,0.877
3.0,0.0,0.878
4.0,0.0,0.879
-3.0,0.0,0.88
-10.0,-1.0,0.881
-10.0,-2.0,0.882
-1.0,1.0,0.883
9.0,4.0,0.884
13.0,5.0,0.885
8.0,5.0,0.886
2.0,3.0,0.887
4.0,2.0,0.888
7.0,3.0,0.889
7.0,5.0,0.89
3.0,4.0,0.891
3.0,2.0,0.892
5.0,0.0,0.893
3.0,-1.0,0.894
2.0,-1.0,0.895
3.0,0.0,0.896
5.0,1.0,0.897
1.0,1.0,0.898
-4.0,-1.0,0.899
-7.0,-6.0,0.9
-4.0,-9.0,0.901
1.0,-6.0,0.902
13.0,-3.0,0.903
21.0,-4.0,0.904
11.0,-4.0,0.905
1.0,0.0,0.906
-12.0,1.0,0.907
-22.0,-3.0,0.908
-23.0,-7.0,0.909
-24.0,-7.0,0.91
-22.0,-7.0,0.911
-15.0,-7.0,0.912
9.0,-3.0,0.913
27.0,3.0,0.914
21.0,6.0,0.915
18.0,3.0,0.916
23.0,0.0,0.917
28.0,0.0,0.918
25.0,2.0,0.919
15.0,4.0,0.92
2.0,1.0,0.921
-7.0,-2.0,0.922
-9.0,-1.0,0.923
-1.0,0.0,0.924
5.0,0.0,0.925
5.0,1.0,0.926
2.0,1.0,0.927
-2.0,0.0,0.928
-19.0,0.0,0.929
-40.0,0.0,0.93
-40.0,0.0,0.931
-15.0,-1.0,0.932
7.0,-1.0,0.933
10.0,-1.0,0.934
5.0,-1.0,0.935
14.0,-2.0,0.936
22.0,0.0,0.937
22.0,1.0,0.938
15.0,0.0,0.939
12.0,-4.0,0.94
10.0,-7.0,0.941
3.0,-4.0,0.942
1.0,0.0,0.943
13.0,-2.0,0.944
23.0,-3.0,0.945
17.0,0.0,0.946
7.0,3.0,0.947
4.0,0.0,0.948
5.0,-3.0,0.949
1.0,-4.0,0.95
-1.0,-4.0,0.951
4.0,-6.0,0.952
9.0,-6.0,0.953
4.0,-6.0,0.954
-2.0,-5.0,0.955
-1.0,-6.0,0.956
3.0,-5.0,0.957
0.0,-2.0,0.958
-6.0,0.0,0.959
-8.0,0.0,0.96
-6.0,-4.0,0.961
-5.0,-3.0,0.962
-4.0,-2.0,0.963
3.0,-1.0,0.964
14.0,0.0,0.965
27.0,1.0,0.966
43.0,4.0,0.967
44.0,3.0,0.968
16.0,2.0,0.969
-25.0,0.0,0.97
-45.0,-2.0,0.971
-37.0,-5.0,0.972
-28.0,-6.0,0.973
-33.0,0.0,0.974
-32.0,5.0,0.975
-15.0,4.0,0.976
1.0,2.0,0.977
-1.0,-2.0,0.978
-5.0,-2.0,0.979
-6.0,0.0,0.98
2.0,-2.0,0.981
11.0,0.0,0.982
20.0,3.0,0.983
27.0,4.0,0.984
23.0,4.0,0.985
18.0,5.0,0.986
12.0,6.0,0.987
8.0,3.0,0.988
11.0,-3.0,0.989
14.0,-4.0,0.99
15.0,-3.0,0.991
17.0,-2.0,0.992
21.0,-1.0,0.993
19.0,1.0,0.994
0.0,4.0,0.995
-17.0,2.0,0.996
-29.0,-1.0,0.997
-38.0,-4.0,0.998
-32.0,-3.0,0.999
-23.0,-2.0,1.0
-11.0,-4.0,1.001
1.0,-3.0,1.002
16.0,-2.0,1.003
27.0,-3.0,1.004
32.0,-2.0,1.005
38.0,3.0,1.006
45.0,7.0,1.007
39.0,4.0,1.008
14.0,0.0,1.009
-14.0,0.0,1.01
-22.0,3.0,1.011
-7.0,2.0,1.012
6.0,-2.0,1.013
6.0,-4.0,1.014
2.0,-3.0,1.015
5.0,0.0,1.016
5.0,2.0,1.017
-2.0,0.0,1.018
-4.0,-2.0,1.019
10.0,-3.0,1.02
29.0,-3.0,1.021
40.0,-2.0,1.022
29.0,-2.0,1.023
-1.0,-2.0,1.024
-37.0,0.0,1.025
-60.0,1.0,1.026
-64.0,0.0,1.027
-53.0,-1.0,1.028
-37.0,-1.0,1.029
-15.0,0.0,1.03
7.0,-1.0,1.031
15.0,-4.0,1.032
8.0,-4.0,1.033
7.0,-3.0,1.034
20.0,-4.0,1.035
33.0,-5.0,1.036
31.0,-3.0,1.037
18.0,0.0,1.038
11.0,2.0,1.039
16.0,0.0,1.04
19.0,-3.0,1.041
18.0,1.0,1.042
17.0,2.0,1.043
17.0,0.0,1.044
12.0,-1.0,1.045
4.0,4.0,1.046
2.0,8.0,1.047
6.0,4.0,1.048
6.0,-2.0,1.049
0.0,-3.0,1.05
-4.0,-4.0,1.051
-4.0,-5.0,1.052
-3.0,-7.0,1.053
-2.0,-2.0,1.054
-1.0,4.0,1.055
1.0,4.0,1.056
1.0,2.0,1.057
-1.0,0.0,1.058
-3.0,0.0,1.059
-6.0,0.0,1.06
-9.0,-6.0,1.061
-10.0,-9.0,1.062
-3.0,-7.0,1.063
2.0,-2.0,1.064
2.0,2.0,1.065
2.0,4.0,1.066
2.0,1.0,1.067
2.0,-2.0,1.068
3.0,-2.0,1.069
5.0,2.0,1.07
5.0,5.0,1.071
5.0,1.0,1.072
2.0,-1.0,1.073
0.0,0.0,1.074
1.0,1.0,1.075
1.0,-1.0,1.076
0.0,-3.0,1.077
-4.0,-2.0,1.078
-7.0,2.0,1.079
-6.0,5.0,1.08
-5.0,1.0,1.081
-7.0,-3.0,1.082
-6.0,-3.0,1.083
0.0,-2.0,1.084
1.0,-2.0,1.085
-5.0,-1.0,1.086
-10.0,-3.0,1.087
-3.0,-5.0,1.088
8.0,-1.0,1.089
15.0,2.0,1.09
19.0,0.0,1.091
22.0,-2.0,1.092
29.0,-2.0,1.093
35.0,-2.0,1.094
39.0,0.0,1.095
31.0,1.0,1.096
12.0,0.0,1.097
-9.0,0.0,1.098
-17.0,4.0,1.099
-17.0,3.0,1.1
-17.0,-4.0,1.101
-17.0,-4.0,1.102
-7.0,2.0,1.103
9.0,5.0,1.104
21.0,2.0,1.105
33.0,0.0,1.106
43.0,0.0,1.107
43.0,0.0,1.108
17.0,-3.0,1.109
-23.0,-6.0,1.11
-50.0,-4.0,1.111
-55.0,0.0,1.112
-49.0,-1.0,1.113
-35.0,-2.0,1.114
-12.0,-1.0,1.115
10.0,1.0,1.116
14.0,1.0,1.117
1.0,-4.0,1.118
-4.0,-6.0,1.119
-3.0,-4.0,1.12
0.0,-3.0,1.121
0.0,-3.0,1.122
4.0,-4.0,1.123
11.0,-2.0,1.124
13.0,0.0,1.125
11.0,1.0,1.126
12.0,3.0,1.127
15.0,3.0,1.128
15.0,3.0,1.129
12.0,2.0,1.13
8.0,2.0,1.131
7.0,2.0,1.132
4.0,0.0,1.133
4.0,-3.0,1.134
8.0,-5.0,1.135
9.0,-6.0,1.136
5.0,-3.0,1.137
0.0,-2.0,1.138
-2.0,-2.0,1.139
-4.0,-3.0,1.14
-4.0,-8.0,1.141
-3.0,-6.0,1.142
2.0,0.0,1.143
5.0,5.0,1.144
2.0,8.0,1.145
0.0,8.0,1.146
1.0,8.0,1.147
3.0,2.0,1.148
4.0,-1.0,1.149
6.0,-3.0,1.15
6.0,-3.0,1.151
5.0,-5.0,1.152
2.0,-5.0,1.153
1.0,-2.0,1.154
5.0,2.0,1.155
8.0,1.0,1.156
7.0,0.0,1.157
5.0,-1.0,1.158
0.0,-1.0,1.159
-4.0,-2.0,1.16
-5.0,-2.0,1.161
-3.0,-2.0,1.162
3.0,-2.0,1.163
8.0,-1.0,1.164
6.0,-1.0,1.165
0.0,-1.0,1.166
0.0,-1.0,1.167
2.0,-1.0,1.168
1.0,-1.0,1.169
-2.0,-1.0,1.17
-4.0,-2.0,1.171
-2.0,-3.0,1.172
4.0,-1.0,1.173
8.0,0.0,1.174
7.0,0.0,1.175
5.0,-1.0,1.176
8.0,-1.0,1.177
9.0,0.0,1.178
8.0,2.0,1.179
5.0,-3.0,1.18
-1.0,-8.0,1.181
-6.0,-6.0,1.182
-2.0,1.0,1.183
1.0,4.0,1.184
-4.0,4.0,1.185
-7.0,5.0,1.186
-5.0,4.0,1.187
-2.0,2.0,1.188
3.0,-1.0,1.189
7.0,0.0,1.19
4.0,4.0,1.191
2.0,4.0,1.192
8.0,1.0,1.193
14.0,-2.0,1.194
20.0,-3.0,1.195
22.0,-1.0,1.196
8.0,2.0,1.197
-1.0,0.0,1.198
11.0,-3.0,1.199
31.0,-6.0,1.2
36.0,-8.0,1.201
18.0,-9.0,1.202
-1.0,-5.0,1.203
-5.0,-1.0,1.204
-9.0,4.0,1.205
-22.0,9.0,1.206
-26.0,7.0,1.207
-9.0,5.0,1.208
12.0,2.0,1.209
5.0,0.0,1.21
-24.0,-2.0,1.211
-43.0,-5.0,1.212
-36.0,-3.0,1.213
-19.0,-2.0,1.214
-6.0,-2.0,1.215
9.0,-2.0,1.216
27.0,-4.0,1.217
30.0,-6.0,1.218
16.0,-8.0,1.219
3.0,-10.0,1.22
-8.0,-10.0,1.221
-15.0,-6.0,1.222
-8.0,-1.0,1.223
-3.0,4.0,1.224
-3.0,6.0,1.225
-2.0,4.0,1.226
0.0,4.0,1.227
1.0,3.0,1.228
1.0,1.0,1.229
0.0,2.0,1.23
1.0,5.0,1.231
3.0,7.0,1.232
8.0,5.0,1.233
13.0,2.0,1.234
13.0,1.0,1.235
11.0,1.0,1.236
9.0,1.0,1.237
8.0,0.0,1.238
9.0,0.0,1.239
7.0,0.0,1.24
5.0,-3.0,1.241
5.0,-6.0,1.242
14.0,-6.0,1.243
27.0,-4.0,1.244
33.0,-1.0,1.245
24.0,2.0,1.246
11.0,1.0,1.247
8.0,0.0,1.248
14.0,0.0,1.249
10.0,-1.0,1.25
-7.0,0.0,1.251
-27.0,0.0,1.252
-31.0,-3.0,1.253
-21.0,-6.0,1.254
-8.0,-4.0,1.255
-3.0,-2.0,1.256
-8.0,0.0,1.257
-14.0,2.0,1.258
-17.0,4.0,1.259
-18.0,2.0,1.26
-17.0,-3.0,1.261
-16.0,-4.0,1.262
-11.0,1.0,1.263
0.0,5.0,1.264
9.0,5.0,1.265
9.0,5.0,1.266
6.0,4.0,1.267
5.0,2.0,1.268
5.0,0.0,1.269
5.0,-1.0,1.27
11.0,-3.0,1.271
21.0,-7.0,1.272
27.0,-7.0,1.273
24.0,-4.0,1.274
26.0,-3.0,1.275
43.0,-4.0,1.276
61.0,-5.0,1.277
56.0,-2.0,1.278
25.0,1.0,1.279
-13.0,0.0,1.28
-39.0,-7.0,1.281
-53.0,-8.0,1.282
-58.0,-2.0,1.283
-52.0,3.0,1.284
-36.0,0.0,1.285
-18.0,-3.0,1.286
-8.0,0.0,1.287
-3.0,7.0,1.288
0.0,7.0,1.289
7.0,2.0,1.29
14.0,0.0,1.291
22.0,2.0,1.292
35.0,5.0,1.293
48.0,5.0,1.294
48.0,2.0,1.295
30.0,0.0,1.296
4.0,0.0,1.297
-14.0,0.0,1.298
-18.0,-2.0,1.299
-21.0,-3.0,1.3
-21.0,-7.0,1.301
-21.0,-7.0,1.302
-17.0,-4.0,1.303
-13.0,0.0,1.304
-11.0,6.0,1.305
-9.0,8.0,1.306
-4.0,6.0,1.307
2.0,1.0,1.308
10.0,-2.0,1.309
16.0,-3.0,1.31
17.0,-2.0,1.311
16.0,-4.0,1.312
6.0,-6.0,1.313
0.0,-5.0,1.314
3.0,-2.0,1.315
6.0,-2.0,1.316
7.0,-3.0,1.317
8.0,-3.0,1.318
9.0,-2.0,1.319
10.0,-1.0,1.32
2.0,-3.0,1.321
-7.0,-5.0,1.322
-5.0,-3.0,1.323
9.0,-2.0,1.324
12.0,-2.0,1.325
2.0,-1.0,1.326
-3.0,2.0,1.327
4.0,4.0,1.328
9.0,0.0,1.329
4.0,-3.0,1.33
2.0,-3.0,1.331
4.0,-2.0,1.332
3.0,-2.0,1.333
0.0,-1.0,1.334
-2.0,-1.0,1.335
0.0,-1.0,1.336
2.0,-1.0,1.337
1.0,0.0,1.338
3.0,-1.0,1.339
4.0,-6.0,1.34
1.0,-8.0,1.341
-1.0,-2.0,1.342
5.0,0.0,1.343
16.0,0.0,1.344
17.0,-1.0,1.345
11.0,1.0,1.346
8.0,2.0,1.347
7.0,-3.0,1.348
4.0,-3.0,1.349
1.0,0.0,1.35
2.0,2.0,1.351
5.0,-2.0,1.352
2.0,-3.0,1.353
-1.0,0.0,1.354
-3.0,0.0,1.355
-3.0,-2.0,1.356
-1.0,-1.0,1.357
-2.0,2.0,1.358
-2.0,4.0,1.359
-4.0,0.0,1.36
-5.0,-7.0,1.361
5.0,-6.0,1.362
24.0,1.0,1.363
35.0,5.0,1.364
22.0,6.0,1.365
-6.0,5.0,1.366
-22.0,4.0,1.367
-16.0,4.0,1.368
-5.0,3.0,1.369
-8.0,0.0,1.37
-18.0,-3.0,1.371
-19.0,-4.0,1.372
-14.0,-1.0,1.373
-10.0,-1.0,1.374
-12.0,-5.0,1.375
-8.0,-7.0,1.376
2.0,0.0,1.377
7.0,4.0,1.378
1.0,3.0,1.379
-4.0,0.0,1.38
-7.0,-7.0,1.381
-8.0,-7.0,1.382
0.0,-6.0,1.383
10.0,-2.0,1.384
22.0,2.0,1.385
32.0,5.0,1.386
30.0,4.0,1.387
24.0,2.0,1.388
5.0,1.0,1.389
-6.0,1.0,1.39
7.0,0.0,1.391
18.0,-1.0,1.392
18.0,-3.0,1.393
17.0,-6.0,1.394
9.0,-8.0,1.395
2.0,-4.0,1.396
1.0,1.0,1.397
0.0,1.0,1.398
-1.0,-2.0,1.399
0.0,-5.0,1.4
-1.0,-5.0,1.401
-6.0,-3.0,1.402
-4.0,-1.0,1.403
5.0,0.0,1.404
6.0,2.0,1.405
-3.0,5.0,1.406
-8.0,3.0,1.407
-3.0,2.0,1.408
0.0,1.0,1.409
-1.0,0.0,1.41
1.0,0.0,1.411
6.0,-2.0,1.412
7.0,-6.0,1.413
3.0,-9.0,1.414
1.0,-7.0,1.415
3.0,-5.0,1.416
1.0,-2.0,1.417
-8.0,0.0,1.418
-11.0,0.0,1.419
-7.0,-2.0,1.42
-4.0,-6.0,1.421
-4.0,-5.0,1.422
-2.0,-1.0,1.423
5.0,4.0,1.424
10.0,8.0,1.425
8.0,6.0,1.426
11.0,2.0,1.427
17.0,0.0,1.428
17.0,1.0,1.429
12.0,0.0,1.43
13.0,-3.0,1.431
32.0,-4.0,1.432
59.0,-3.0,1.433
71.0,-2.0,1.434
54.0,-4.0,1.435
16.0,-4.0,1.436
-19.0,0.0,1.437
-43.0,2.0,1.438
-57.0,1.0,1.439
-73.0,-2.0,1.44
-86.0,-6.0,1.441
-77.0,-4.0,1.442
-42.0,-2.0,1.443
-10.0,-1.0,1.444
-3.0,1.0,1.445
-6.0,3.0,1.446
0.0,4.0,1.447
17.0,4.0,1.448
24.0,2.0,1.449
23.0,-2.0,1.45
26.0,-4.0,1.451
37.0,-4.0,1.452
40.0,-2.0,1.453
30.0,-2.0,1.454
17.0,-2.0,1.455
8.0,-2.0,1.456
5.0,1.0,1.457
3.0,3.0,1.458
0.0,1.0,1.459
-2.0,0.0,1.46
-3.0,-3.0,1.461
-4.0,-2.0,1.462
0.0,-1.0,1.463
2.0,-2.0,1.464
0.0,0.0,1.465
-1.0,2.0,1.466
2.0,2.0,1.467
5.0,-1.0,1.468
5.0,-4.0,1.469
8.0,-4.0,1.47
21.0,-4.0,1.471
28.0,-4.0,1.472
16.0,-3.0,1.473
2.0,0.0,1.474
-11.0,3.0,1.475
-20.0,3.0,1.476
-11.0,3.0,1.477
0.0,1.0,1.478
7.0,-2.0,1.479
11.0,-4.0,1.48
12.0,-6.0,1.481
9.0,-5.0,1.482
5.0,-2.0,1.483
5.0,1.0,1.484
4.0,5.0,1.485
-1.0,10.0,1.486
-8.0,10.0,1.487
-11.0,4.0,1.488
-8.0,-3.0,1.489
-3.0,-5.0,1.49
-2.0,-5.0,1.491
-3.0,-4.0,1.492
-4.0,-1.0,1.493
-5.0,4.0,1.494
-1.0,5.0,1.495
4.0,0.0,1.496
8.0,-3.0,1.497
3.0,-4.0,1.498
-5.0,-3.0,1.499
-11.0,-4.0,1.5
-7.0,-7.0,1.501
2.0,-6.0,1.502
14.0,-4.0,1.503
19.0,-2.0,1.504
18.0,-2.0,1.505
13.0,1.0,1.506
10.0,2.0,1.507
9.0,0.0,1.508
12.0,-3.0,1.509
17.0,0.0,1.51
25.0,5.0,1.511
34.0,5.0,1.512
31.0,0.0,1.513
11.0,-4.0,1.514
-17.0,-1.0,1.515
-32.0,3.0,1.516
-32.0,6.0,1.517
-25.0,1.0,1.518
-17.0,-4.0,1.519
-7.0,-7.0,1.52
0.0,-9.0,1.521
1.0,-7.0,1.522
-4.0,-3.0,1.523
-4.0,-1.0,1.524
-2.0,3.0,1.525
-3.0,6.0,1.526
-8.0,6.0,1.527
-8.0,1.0,1.528
-3.0,-3.0,1.529
-1.0,-5.0,1.53
-2.0,-5.0,1.531
0.0,-5.0,1.532
5.0,-5.0,1.533
10.0,-2.0,1.534
13.0,3.0,1.535
18.0,2.0,1.536
25.0,0.0,1.537
25.0,-1.0,1.538
21.0,-1.0,1.539
15.0,-2.0,1.54
1.0,-5.0,1.541
-9.0,-5.0,1.542
-11.0,-3.0,1.543
-16.0,-2.0,1.544
-24.0,0.0,1.545
-28.0,5.0,1.546
-18.0,6.0,1.547
-9.0,3.0,1.548
-2.0,3.0,1.549
5.0,5.0,1.55
10.0,3.0,1.551
16.0,-3.0,1.552
26.0,-6.0,1.553
34.0,-4.0,1.554
31.0,0.0,1.555
29.0,0.0,1.556
30.0,-1.0,1.557
29.0,-4.0,1.558
7.0,-4.0,1.559
-16.0,-3.0,1.56
-26.0,-3.0,1.561
-25.0,-3.0,1.562
-17.0,-1.0,1.563
-11.0,0.0,1.564
-11.0,4.0,1.565
-10.0,6.0,1.566
-3.0,4.0,1.567
6.0,3.0,1.568
11.0,4.0,1.569
7.0,4.0,1.57
0.0,2.0,1.571
-2.0,1.0,1.572
6.0,0.0,1.573
20.0,-2.0,1.574
29.0,-3.0,1.575
23.0,-4.0,1.576
8.0,-4.0,1.577
-4.0,-5.0,1.578
-3.0,-7.0,1.579
-1.0,-8.0,1.58
-3.0,-6.0,1.581
-2.0,-1.0,1.582
3.0,1.0,1.583
4.0,1.0,1.584
-9.0,2.0,1.585
-22.0,6.0,1.586
-20.0,8.0,1.587
-9.0,7.0,1.588
0.0,1.0,1.589
2.0,-3.0,1.59
8.0,-5.0,1.591
15.0,-1.0,1.592
13.0,4.0,1.593
4.0,7.0,1.594
-1.0,4.0,1.595
0.0,-1.0,1.596
3.0,-3.0,1.597
-2.0,-5.0,1.598
-8.0,-7.0,1.599
-10.0,-9.0,1.6
-3.0,-11.0,1.601
10.0,-9.0,1.602
24.0,-6.0,1.603
31.0,-1.0,1.604
26.0,6.0,1.605
16.0,10.0,1.606
7.0,4.0,1.607
3.0,-5.0,1.608
0.0,-8.0,1.609
-7.0,-2.0,1.61
-10.0,4.0,1.611
-5.0,6.0,1.612
0.0,4.0,1.613
-1.0,4.0,1.614
-3.0,2.0,1.615
-3.0,0.0,1.616
2.0,1.0,1.617
3.0,4.0,1.618
3.0,6.0,1.619
1.0,3.0,1.62
-4.0,-2.0,1.621
-10.0,-3.0,1.622
-10.0,-1.0,1.623
-6.0,-2.0,1.624
7.0,-1.0,1.625
18.0,0.0,1.626
26.0,-1.0,1.627
32.0,-3.0,1.628
32.0,-3.0,1.629
30.0,-1.0,1.63
24.0,-1.0,1.631
17.0,-3.0,1.632
6.0,-3.0,1.633
-6.0,1.0,1.634
-19.0,1.0,1.635
-28.0,-4.0,1.636
-21.0,-7.0,1.637
-13.0,-6.0,1.638
-15.0,-3.0,1.639
-17.0,-1.0,1.64
-14.0,-6.0,1.641
-6.0,-9.0,1.642
6.0,-6.0,1.643
18.0,-3.0,1.644
19.0,2.0,1.645
5.0,6.0,1.646
-12.0,2.0,1.647
-18.0,-1.0,1.648
-10.0,-1.0,1.649
0.0,-1.0,1.65
9.0,-3.0,1.651
18.0,-5.0,1.652
23.0,-1.0,1.653
20.0,1.0,1.654
9.0,0.0,1.655
0.0,-2.0,1.656
-1.0,-1.0,1.657
3.0,2.0,1.658
11.0,5.0,1.659
21.0,0.0,1.66
22.0,-5.0,1.661
12.0,-5.0,1.662
-4.0,-2.0,1.663
-14.0,1.0,1.664
-15.0,6.0,1.665
-16.0,7.0,1.666
-18.0,3.0,1.667
-13.0,-2.0,1.668
2.0,-2.0,1.669
16.0,2.0,1.67
14.0,3.0,1.671
-3.0,-2.0,1.672
-18.0,-4.0,1.673
-20.0,-2.0,1.674
-11.0,0.0,1.675
1.0,-1.0,1.676
9.0,-1.0,1.677
11.0,1.0,1.678
12.0,1.0,1.679
7.0,-2.0,1.68
-1.0,-7.0,1.681
-4.0,-4.0,1.682
2.0,0.0,1.683
10.0,0.0,1.684
7.0,0.0,1.685
2.0,3.0,1.686
3.0,4.0,1.687
8.0,2.0,1.688
8.0,-1.0,1.689
10.0,0.0,1.69
20.0,0.0,1.691
26.0,-2.0,1.692
18.0,-2.0,1.693
0.0,0.0,1.694
-13.0,1.0,1.695
-14.0,1.0,1.696
-8.0,3.0,1.697
-7.0,3.0,1.698
-5.0,2.0,1.699
-4.0,-1.0,1.7
-4.0,-6.0,1.701
0.0,-6.0,1.702
9.0,-4.0,1.703
17.0,-2.0,1.704
14.0,0.0,1.705
12.0,1.0,1.706
12.0,-1.0,1.707
10.0,-4.0,1.708
3.0,-2.0,1.709
-2.0,0.0,1.71
-1.0,2.0,1.711
0.0,0.0,1.712
1.0,-2.0,1.713
3.0,-1.0,1.714
3.0,-1.0,1.715
2.0,-3.0,1.716
-3.0,-2.0,1.717
-10.0,-2.0,1.718
-18.0,0.0,1.719
-18.0,0.0,1.72
-11.0,-3.0,1.721
0.0,-5.0,1.722
11.0,-3.0,1.723
22.0,-2.0,1.724
29.0,0.0,1.725
30.0,1.0,1.726
28.0,0.0,1.727
24.0,-1.0,1.728
17.0,0.0,1.729
9.0,2.0,1.73
10.0,0.0,1.731
15.0,-1.0,1.732
9.0,-1.0,1.733
-12.0,-1.0,1.734
-34.0,-2.0,1.735
-37.0,-3.0,1.736
-27.0,-3.0,1.737
-25.0,-3.0,1.738
-29.0,-5.0,1.739
-28.0,-7.0,1.74
-13.0,-8.0,1.741
6.0,-3.0,1.742
17.0,-1.0,1.743
19.0,1.0,1.744
15.0,5.0,1.745
4.0,10.0,1.746
-5.0,11.0,1.747
-4.0,7.0,1.748
10.0,0.0,1.749
22.0,-1.0,1.75
17.0,-1.0,1.751
-2.0,-1.0,1.752
-22.0,-3.0,1.753
-27.0,-1.0,1.754
-15.0,1.0,1.755
2.0,1.0,1.756
16.0,-2.0,1.757
18.0,-6.0,1.758
15.0,-7.0,1.759
8.0,-4.0,1.76
-1.0,-6.0,1.761
-7.0,-7.0,1.762
-1.0,-4.0,1.763
14.0,1.0,1.764
23.0,7.0,1.765
21.0,9.0,1.766
19.0,5.0,1.767
22.0,0.0,1.768
21.0,-3.0,1.769
12.0,-2.0,1.77
7.0,-1.0,1.771
10.0,-1.0,1.772
11.0,-2.0,1.773
0.0,-3.0,1.774
-12.0,-2.0,1.775
-10.0,-1.0,1.776
-1.0,0.0,1.777
0.0,1.0,1.778
-4.0,0.0,1.779
-7.0,-2.0,1.78
-5.0,-7.0,1.781
-3.0,-9.0,1.782
2.0,-6.0,1.783
6.0,-2.0,1.784
6.0,4.0,1.785
5.0,8.0,1.786
5.0,7.0,1.787
6.0,1.0,1.788
7.0,-2.0,1.789
10.0,0.0,1.79
15.0,3.0,1.791
19.0,0.0,1.792
19.0,-2.0,1.793
19.0,-1.0,1.794
15.0,-2.0,1.795
9.0,-4.0,1.796
-1.0,-3.0,1.797
-15.0,-3.0,1.798
-38.0,-3.0,1.799
-52.0,-4.0,1.8
-48.0,-6.0,1.801
-33.0,-7.0,1.802
-15.0,-2.0,1.803
0.0,2.0,1.804
12.0,3.0,1.805
30.0,4.0,1.806
58.0,2.0,1.807
78.0,1.0,1.808
66.0,0.0,1.809
25.0,-1.0,1.81
-11.0,-1.0,1.811
-24.0,-2.0,1.812
-26.0,-2.0,1.813
-38.0,-2.0,1.814
-51.0,0.0,1.815
-45.0,3.0,1.816
-26.0,4.0,1.817
-15.0,5.0,1.818
-13.0,4.0,1.819
-13.0,-1.0,1.82
-8.0,-8.0,1.821
0.0,-7.0,1.822
9.0,-1.0,1.823
21.0,2.0,1.824
32.0,1.0,1.825
29.0,0.0,1.826
17.0,2.0,1.827
13.0,0.0,1.828
20.0,-4.0,1.829
30.0,-4.0,1.83
31.0,0.0,1.831
24.0,3.0,1.832
11.0,0.0,1.833
-6.0,-4.0,1.834
-17.0,-5.0,1.835
-14.0,-5.0,1.836
-1.0,-2.0,1.837
10.0,-1.0,1.838
15.0,0.0,1.839
7.0,2.0,1.84
-7.0,-1.0,1.841
-22.0,-2.0,1.842
-24.0,0.0,1.843
-7.0,1.0,1.844
6.0,4.0,1.845
4.0,5.0,1.846
-2.0,4.0,1.847
0.0,0.0,1.848
6.0,-1.0,1.849
0.0,-1.0,1.85
-4.0,-2.0,1.851
3.0,-5.0,1.852
16.0,-5.0,1.853
16.0,-2.0,1.854
8.0,0.0,1.855
6.0,0.0,1.856
10.0,-2.0,1.857
5.0,-3.0,1.858
-4.0,-2.0,1.859
-12.0,-4.0,1.86
-11.0,-5.0,1.861
-8.0,-1.0,1.862
0.0,5.0,1.863
7.0,5.0,1.864
8.0,2.0,1.865
8.0,1.0,1.866
6.0,5.0,1.867
5.0,5.0,1.868
13.0,1.0,1.869
17.0,-2.0,1.87
11.0,-3.0,1.871
5.0,-3.0,1.872
3.0,-5.0,1.873
2.0,-3.0,1.874
2.0,0.0,1.875
1.0,0.0,1.876
2.0,-1.0,1.877
4.0,-5.0,1.878
1.0,-3.0,1.879
-5.0,-2.0,1.88
-14.0,-4.0,1.881
-17.0,-5.0,1.882
-6.0,-2.0,1.883
9.0,0.0,1.884
15.0,1.0,1.885
12.0,1.0,1.886
15.0,0.0,1.887
26.0,-2.0,1.888
31.0,-1.0,1.889
18.0,0.0,1.89
-4.0,2.0,1.891
-18.0,4.0,1.892
-21.0,1.0,1.893
-24.0,-2.0,1.894
-27.0,-6.0,1.895
-15.0,-8.0,1.896
10.0,-4.0,1.897
27.0,0.0,1.898
26.0,-1.0,1.899
8.0,-4.0,1.9
-6.0,-9.0,1.901
-8.0,-9.0,1.902
-2.0,-4.0,1.903
1.0,0.0,1.904
0.0,4.0,1.905
-5.0,6.0,1.906
0.0,6.0,1.907
14.0,2.0,1.908
21.0,-1.0,1.909
15.0,-1.0,1.91
4.0,2.0,1.911
2.0,0.0,1.912
2.0,-4.0,1.913
-2.0,-5.0,1.914
-11.0,-3.0,1.915
-16.0,-4.0,1.916
-13.0,-6.0,1.917
15.0,-7.0,1.918
15.0,-4.0,1.919
10.0,-1.0,1.92
-7.0,-4.0,1.921
-18.0,-5.0,1.922
-10.0,-3.0,1.923
-1.0,-1.0,1.924
16.0,1.0,1.925
25.0,4.0,1.926
6.0,2.0,1.927
-9.0,-2.0,1.928
-19.0,-3.0,1.929
-27.0,0.0,1.93
-27.0,3.0,1.931
-23.0,4.0,1.932
-7.0,4.0,1.933
6.0,3.0,1.934
9.0,1.0,1.935
11.0,-2.0,1.936
9.0,-2.0,1.937
18.0,0.0,1.938
18.0,2.0,1.939
12.0,3.0,1.94
-8.0,-2.0,1.941
-21.0,-8.0,1.942
-12.0,-5.0,1.943
0.0,-2.0,1.944
19.0,3.0,1.945
29.0,6.0,1.946
7.0,3.0,1.947
-11.0,2.0,1.948
-22.0,2.0,1.949
-31.0,0.0,1.95
-31.0,-1.0,1.951
-26.0,-5.0,1.952
-8.0,-5.0,1.953
7.0,-7.0,1.954
11.0,-7.0,1.955
13.0,-8.0,1.956
11.0,-5.0,1.957
12.0,0.0,1.958
14.0,1.0,1.959
16.0,2.0,1.96
16.0,-2.0,1.961
14.0,-6.0,1.962
14.0,-4.0,1.963
14.0,-2.0,1.964
14.0,2.0,1.965
13.0,4.0,1.966
13.0,2.0,1.967
10.0,1.0,1.968
2.0,1.0,1.969
-5.0,0.0,1.97
-5.0,-1.0,1.971
2.0,-4.0,1.972
9.0,-4.0,1.973
9.0,-5.0,1.974
5.0,-5.0,1.975
-2.0,-6.0,1.976
-9.0,-4.0,1.977
-15.0,-3.0,1.978
-12.0,-2.0,1.979
-7.0,-5.0,1.98
-10.0,-8.0,1.981
-16.0,-4.0,1.982
-11.0,-1.0,1.983
5.0,0.0,1.984
16.0,1.0,1.985
15.0,3.0,1.986
12.0,4.0,1.987
15.0,1.0,1.988
23.0,0.0,1.989
32.0,2.0,1.99
40.0,0.0,1.991
38.0,-1.0,1.992
18.0,0.0,1.993
-11.0,2.0,1.994
-26.0,3.0,1.995
-28.0,1.0,1.996
-30.0,0.0,1.997
-36.0,0.0,1.998
-37.0,0.0,1.999
-28.0,-1.0,2.0
-20.0,-5.0,2.001
-14.0,-5.0,2.002
-2.0,-3.0,2.003
16.0,-1.0,2.004
25.0,-1.0,2.005
15.0,-1.0,2.006
-2.0,-2.0,2.007
-9.0,-2.0,2.008
-7.0,-2.0,2.009
-1.0,-2.0,2.01
4.0,-2.0,2.011
10.0,-4.0,2.012
15.0,-2.0,2.013
20.0,1.0,2.014
21.0,2.0,2.015
15.0,-1.0,2.016
8.0,-1.0,2.017
5.0,-1.0,2.018
7.0,0.0,2.019
7.0,0.0,2.02
1.0,-2.0,2.021
1.0,-1.0,2.022
17.0,2.0,2.023
26.0,4.0,2.024
16.0,7.0,2.025
5.0,9.0,2.026
-11.0,5.0,2.027
-24.0,0.0,2.028
-25.0,1.0,2.029
-23.0,4.0,2.03
-12.0,0.0,2.031
2.0,-8.0,2.032
25.0,-9.0,2.033
39.0,-2.0,2.034
22.0,1.0,2.035
7.0,-2.0,2.036
-1.0,-3.0,2.037
-3.0,-4.0,2.038
8.0,-2.0,2.039
9.0,-1.0,2.04
7.0,-3.0,2.041
12.0,-5.0,2.042
14.0,-4.0,2.043
9.0,-2.0,2.044
2.0,0.0,2.045
2.0,2.0,2.046
8.0,3.0,2.047
9.0,4.0,2.048
3.0,2.0,2.049
0.0,1.0,2.05
0.0,1.0,2.051
0.0,0.0,2.052
1.0,-3.0,2.053
0.0,-6.0,2.054
-1.0,-6.0,2.055
-3.0,-6.0,2.056
-1.0,-4.0,2.057
-2.0,-2.0,2.058
-4.0,-3.0,2.059
-10.0,-4.0,2.06
-14.0,-8.0,2.061
-8.0,-9.0,2.062
4.0,-7.0,2.063
15.0,-3.0,2.064
16.0,3.0,2.065
4.0,7.0,2.066
-8.0,5.0,2.067
-16.0,2.0,2.068
-17.0,1.0,2.069
-16.0,3.0,2.07
-13.0,1.0,2.071
-8.0,0.0,2.072
-1.0,0.0,2.073
8.0,1.0,2.074
19.0,1.0,2.075
27.0,1.0,2.076
38.0,4.0,2.077
44.0,6.0,2.078
43.0,5.0,2.079
30.0,1.0,2.08
18.0,-4.0,2.081
10.0,-7.0,2.082
3.0,-6.0,2.083
-11.0,-1.0,2.084
-33.0,5.0,2.085
-50.0,5.0,2.086
-47.0,2.0,2.087
-29.0,0.0,2.088
-13.0,0.0,2.089
-2.0,0.0,2.09
12.0,0.0,2.091
31.0,1.0,2.092
35.0,-1.0,2.093
11.0,-4.0,2.094
-25.0,-8.0,2.095
-40.0,-8.0,2.096
-29.0,-3.0,2.097
-20.0,-2.0,2.098
-18.0,-4.0,2.099
-13.0,-6.0,2.1
2.0,-7.0,2.101
14.0,-5.0,2.102
15.0,-4.0,2.103
18.0,-1.0,2.104
22.0,3.0,2.105
24.0,5.0,2.106
20.0,3.0,2.107
17.0,0.0,2.108
21.0,0.0,2.109
26.0,1.0,2.11
34.0,0.0,2.111
35.0,-3.0,2.112
13.0,-4.0,2.113
-6.0,-2.0,2.114
-15.0,0.0,2.115
-20.0,1.0,2.116
-10.0,0.0,2.117
-1.0,-2.0,2.118
0.0,-4.0,2.119
1.0,-5.0,2.12
2.0,-6.0,2.121
-3.0,-4.0,2.122
-9.0,-1.0,2.123
-4.0,0.0,2.124
7.0,3.0,2.125
13.0,5.0,2.126
7.0,6.0,2.127
3.0,2.0,2.128
4.0,-1.0,2.129
2.0,-1.0,2.13
-5.0,0.0,2.131
-7.0,-1.0,2.132
-4.0,-3.0,2.133
1.0,-3.0,2.134
6.0,0.0,2.135
11.0,2.0,2.136
18.0,3.0,2.137
21.0,2.0,2.138
17.0,-1.0,2.139
7.0,-2.0,2.14
-4.0,-5.0,2.141
-10.0,-6.0,2.142
-8.0,-5.0,2.143
-4.0,-2.0,2.144
-8.0,4.0,2.145
-16.0,6.0,2.146
-15.0,1.0,2.147
-5.0,-4.0,2.148
-1.0,-5.0,2.149
-8.0,-2.0,2.15
-16.0,-1.0,2.151
-11.0,-1.0,2.152
2.0,0.0,2.153
12.0,3.0,2.154
14.0,0.0,2.155
17.0,-3.0,2.156
23.0,-3.0,2.157
26.0,-1.0,2.158
22.0,0.0,2.159
14.0,0.0,2.16
8.0,-3.0,2.161
4.0,-3.0,2.162
9.0,-2.0,2.163
23.0,0.0,2.164
38.0,3.0,2.165
44.0,5.0,2.166
34.0,3.0,2.167
18.0,0.0,2.168
0.0,-1.0,2.169
-17.0,0.0,2.17
-37.0,1.0,2.171
-59.0,-1.0,2.172
-73.0,-3.0,2.173
-72.0,-3.0,2.174
-57.0,-4.0,2.175
-40.0,-4.0,2.176
-26.0,-2.0,2.177
7.0,-2.0,2.178
11.0,-2.0,2.179
11.0,-4.0,2.18
-2.0,-6.0,2.181
-14.0,-5.0,2.182
-16.0,-3.0,2.183
-17.0,-1.0,2.184
-14.0,1.0,2.185
-9.0,4.0,2.186
0.0,5.0,2.187
10.0,3.0,2.188
24.0,2.0,2.189
31.0,1.0,2.19
10.0,0.0,2.191
-5.0,-2.0,2.192
-12.0,-5.0,2.193
-16.0,-5.0,2.194
-5.0,-5.0,2.195
4.0,-4.0,2.196
9.0,-1.0,2.197
7.0,0.0,2.198
11.0,-1.0,2.199
11.0,-4.0,2.2
-2.0,-8.0,2.201
-13.0,-7.0,2.202
-15.0,-4.0,2.203
-16.0,0.0,2.204
-13.0,3.0,2.205
-9.0,5.0,2.206
0.0,4.0,2.207
10.0,2.0,2.208
23.0,1.0,2.209
29.0,3.0,2.21
10.0,2.0,2.211
-5.0,0.0,2.212
-12.0,-3.0,2.213
-15.0,-3.0,2.214
-5.0,-2.0,2.215
4.0,-2.0,2.216
9.0,-1.0,2.217
14.0,-2.0,2.218
17.0,-4.0,2.219
11.0,-4.0,2.22
0.0,-6.0,2.221
-7.0,-4.0,2.222
-5.0,-2.0,2.223
0.0,-3.0,2.224
3.0,-1.0,2.225
1.0,0.0,2.226
2.0,-1.0,2.227
6.0,-2.0,2.228
6.0,0.0,2.229
2.0,5.0,2.23
5.0,9.0,2.231
14.0,6.0,2.232
21.0,0.0,2.233
17.0,-4.0,2.234
3.0,-6.0,2.235
-10.0,-4.0,2.236
-20.0,-3.0,2.237
-26.0,-2.0,2.238
-25.0,-1.0,2.239
-18.0,-1.0,2.24
-10.0,-6.0,2.241
-2.0,-10.0,2.242
13.0,-8.0,2.243
30.0,-1.0,2.244
34.0,5.0,2.245
13.0,6.0,2.246
-14.0,5.0,2.247
-21.0,4.0,2.248
-13.0,5.0,2.249
-9.0,4.0,2.25
-8.0,2.0,2.251
3.0,-1.0,2.252
27.0,-1.0,2.253
39.0,0.0,2.254
32.0,0.0,2.255
20.0,1.0,2.256
15.0,2.0,2.257
9.0,-2.0,2.258
0.0,-5.0,2.259
-8.0,-4.0,2.26
-8.0,-4.0,2.261
-7.0,-1.0,2.262
-1.0,3.0,2.263
3.0,8.0,2.264
6.0,10.0,2.265
8.0,7.0,2.266
6.0,3.0,2.267
5.0,0.0,2.268
4.0,1.0,2.269
2.0,0.0,2.27
-1.0,-2.0,2.271
-4.0,-4.0,2.272
-4.0,-7.0,2.273
-5.0,-9.0,2.274
-7.0,-12.0,2.275
-8.0,-9.0,2.276
-3.0,-1.0,2.277
0.0,0.0,2.278
-2.0,-2.0,2.279
-4.0,-4.0,2.28
-2.0,-4.0,2.281
5.0,-3.0,2.282
17.0,-6.0,2.283
30.0,-7.0,2.284
36.0,-2.0,2.285
30.0,3.0,2.286
22.0,3.0,2.287
20.0,-1.0,2.288
19.0,-1.0,2.289
7.0,3.0,2.29
-18.0,3.0,2.291
-42.0,-2.0,2.292
-46.0,-4.0,2.293
-34.0,-1.0,2.294
-21.0,3.0,2.295
-17.0,-1.0,2.296
-15.0,-3.0,2.297
-11.0,-3.0,2.298
-7.0,-3.0,2.299
-8.0,-2.0,2.3
-7.0,-5.0,2.301
1.0,-4.0,2.302
14.0,0.0,2.303
21.0,2.0,2.304
20.0,4.0,2.305
19.0,6.0,2.306
26.0,6.0,2.307
39.0,2.0,2.308
45.0,2.0,2.309
33.0,3.0,2.31
6.0,0.0,2.311
-17.0,-5.0,2.312
-22.0,-6.0,2.313
-15.0,-2.0,2.314
-4.0,0.0,2.315
9.0,-2.0,2.316
23.0,-4.0,2.317
24.0,-4.0,2.318
6.0,-3.0,2.319
-19.0,-4.0,2.32
-29.0,-7.0,2.321
-25.0,-6.0,2.322
-19.0,-3.0,2.323
-18.0,-2.0,2.324
-12.0,0.0,2.325
-2.0,6.0,2.326
1.0,10.0,2.327
-4.0,7.0,2.328
-2.0,1.0,2.329
9.0,0.0,2.33
18.0,2.0,2.331
19.0,4.0,2.332
24.0,2.0,2.333
37.0,0.0,2.334
47.0,-2.0,2.335
40.0,-2.0,2.336
23.0,1.0,2.337
10.0,1.0,2.338
6.0,1.0,2.339
0.0,-1.0,2.34
-5.0,-4.0,2.341
-9.0,-1.0,2.342
-5.0,1.0,2.343
-1.0,3.0,2.344
-2.0,3.0,2.345
-2.0,3.0,2.346
0.0,3.0,2.347
2.0,2.0,2.348
4.0,3.0,2.349
7.0,3.0,2.35
6.0,0.0,2.351
4.0,-6.0,2.352
0.0,-10.0,2.353
-4.0,-10.0,2.354
-6.0,-8.0,2.355
-9.0,-5.0,2.356
-9.0,-3.0,2.357
-7.0,-6.0,2.358
-7.0,-6.0,2.359
-4.0,-7.0,2.36
0.0,-9.0,2.361
3.0,-10.0,2.362
14.0,-6.0,2.363
26.0,-2.0,2.364
25.0,1.0,2.365
11.0,4.0,2.366
-2.0,4.0,2.367
-4.0,2.0,2.368
-5.0,0.0,2.369
-16.0,-1.0,2.37
-25.0,0.0,2.371
-23.0,1.0,2.372
-17.0,0.0,2.373
-16.0,-2.0,2.374
-17.0,-3.0,2.375
-11.0,-3.0,2.376
0.0,-1.0,2.377
5.0,0.0,2.378
2.0,-1.0,2.379
-3.0,0.0,2.38
-4.0,-3.0,2.381
1.0,-5.0,2.382
11.0,-2.0,2.383
17.0,2.0,2.384
17.0,5.0,2.385
14.0,6.0,2.386
21.0,5.0,2.387
32.0,1.0,2.388
31.0,-5.0,2.389
16.0,-9.0,2.39
-3.0,-7.0,2.391
-8.0,-4.0,2.392
-2.0,-1.0,2.393
8.0,0.0,2.394
24.0,3.0,2.395
40.0,5.0,2.396
47.0,4.0,2.397
31.0,3.0,2.398
5.0,3.0,2.399
-17.0,1.0,2.4
-29.0,-5.0,2.401
-40.0,-8.0,2.402
-46.0,-6.0,2.403
-36.0,-3.0,2.404
-17.0,-3.0,2.405
-2.0,-2.0,2.406
1.0,0.0,2.407
-2.0,3.0,2.408
-6.0,5.0,2.409
-8.0,7.0,2.41
0.0,5.0,2.411
14.0,-1.0,2.412
18.0,-6.0,2.413
6.0,-5.0,2.414
-9.0,0.0,2.415
-12.0,1.0,2.416
-3.0,1.0,2.417
8.0,2.0,2.418
14.0,4.0,2.419
20.0,5.0,2.42
20.0,-1.0,2.421
22.0,-4.0,2.422
30.0,-2.0,2.423
34.0,1.0,2.424
26.0,1.0,2.425
16.0,0.0,2.426
4.0,0.0,2.427
-5.0,-2.0,2.428
-4.0,-3.0,2.429
-2.0,-3.0,2.43
0.0,-3.0,2.431
1.0,-3.0,2.432
2.0,-4.0,2.433
4.0,-5.0,2.434
10.0,-3.0,2.435
14.0,-3.0,2.436
10.0,-2.0,2.437
4.0,-5.0,2.438
-7.0,-7.0,2.439
-16.0,-9.0,2.44
-19.0,-12.0,2.441
-18.0,-8.0,2.442
-12.0,0.0,2.443
-3.0,6.0,2.444
0.0,7.0,2.445
-3.0,5.0,2.446
2.0,4.0,2.447
17.0,7.0,2.448
23.0,9.0,2.449
15.0,8.0,2.45
0.0,3.0,2.451
-3.0,0.0,2.452
-1.0,0.0,2.453
-2.0,1.0,2.454
-3.0,1.0,2.455
9.0,-1.0,2.456
26.0,-3.0,2.457
25.0,-5.0,2.458
-1.0,-4.0,2.459
-32.0,0.0,2.46
-42.0,-3.0,2.461
-33.0,-6.0,2.462
-24.0,-4.0,2.463
-23.0,1.0,2.464
-20.0,7.0,2.465
-7.0,6.0,2.466
13.0,1.0,2.467
26.0,-1.0,2.468
28.0,-2.0,2.469
22.0,-3.0,2.47
13.0,-2.0,2.471
3.0,-1.0,2.472
-3.0,1.0,2.473
-4.0,0.0,2.474
1.0,-5.0,2.475
11.0,-8.0,2.476
17.0,-6.0,2.477
14.0,-5.0,2.478
9.0,-3.0,2.479
4.0,-4.0,2.48
0.0,-7.0,2.481
0.0,-7.0,2.482
2.0,-5.0,2.483
7.0,0.0,2.484
9.0,4.0,2.485
5.0,4.0,2.486
9.0,2.0,2.487
22.0,-1.0,2.488
37.0,-1.0,2.489
39.0,2.0,2.49
23.0,5.0,2.491
-1.0,3.0,2.492
-19.0,-1.0,2.493
-21.0,-3.0,2.494
-10.0,-4.0,2.495
-2.0,-4.0,2.496
-1.0,-2.0,2.497
-8.0,-2.0,2.498
-13.0,0.0,2.499
-17.0,1.0,2.5
-21.0,-3.0,2.501
-19.0,-3.0,2.502
0.0,-2.0,2.503
16.0,2.0,2.504
20.0,5.0,2.505
22.0,7.0,2.506
20.0,6.0,2.507
16.0,3.0,2.508
10.0,1.0,2.509
5.0,-1.0,2.51
3.0,-4.0,2.511
1.0,-5.0,2.512
-3.0,-3.0,2.513
-6.0,-2.0,2.514
-4.0,-2.0,2.515
-3.0,-2.0,2.516
-3.0,0.0,2.517
-3.0,0.0,2.518
-2.0,-1.0,2.519
0.0,-4.0,2.52
-4.0,-5.0,2.521
-3.0,-5.0,2.522
10.0,-3.0,2.523
31.0,-2.0,2.524
38.0,-2.0,2.525
24.0,-1.0,2.526
5.0,0.0,2.527
-2.0,1.0,2.528
-5.0,1.0,2.529
-15.0,1.0,2.53
-22.0,-2.0,2.531
-17.0,-5.0,2.532
-4.0,-5.0,2.533
0.0,-4.0,2.534
-4.0,-1.0,2.535
-3.0,2.0,2.536
5.0,2.0,2.537
8.0,1.0,2.538
-2.0,-1.0,2.539
-17.0,-2.0,2.54
-18.0,-4.0,2.541
-2.0,-3.0,2.542
13.0,-1.0,2.543
12.0,0.0,2.544
-3.0,4.0,2.545
-14.0,6.0,2.546
-10.0,7.0,2.547
0.0,6.0,2.548
6.0,4.0,2.549
9.0,2.0,2.55
15.0,1.0,2.551
20.0,0.0,2.552
15.0,2.0,2.553
4.0,1.0,2.554
1.0,-1.0,2.555
4.0,-1.0,2.556
6.0,1.0,2.557
2.0,1.0,2.558
5.0,-4.0,2.559
8.0,-10.0,2.56
7.0,-10.0,2.561
7.0,-4.0,2.562
15.0,-3.0,2.563
24.0,-5.0,2.564
22.0,-7.0,2.565
9.0,-1.0,2.566
3.0,1.0,2.567
5.0,-2.0,2.568
7.0,-4.0,2.569
10.0,-2.0,2.57
26.0,3.0,2.571
48.0,5.0,2.572
47.0,5.0,2.573
14.0,3.0,2.574
-22.0,-1.0,2.575
-35.0,-4.0,2.576
-29.0,-1.0,2.577
-29.0,0.0,2.578
-32.0,-1.0,2.579
-33.0,-7.0,2.58
-26.0,-12.0,2.581
-22.0,-11.0,2.582
-30.0,-10.0,2.583
-35.0,-6.0,2.584
-27.0,1.0,2.585
-15.0,7.0,2.586
4.0,6.0,2.587
25.0,2.0,2.588
49.0,1.0,2.589
61.0,3.0,2.59
35.0,4.0,2.591
12.0,3.0,2.592
-4.0,2.0,2.593
-16.0,1.0,2.594
-11.0,0.0,2.595
-10.0,-1.0,2.596
-22.0,-1.0,2.597
-31.0,-2.0,2.598
-23.0,-2.0,2.599
-12.0,-3.0,2.6
-5.0,-3.0,2.601
2.0,-2.0,2.602
18.0,0.0,2.603
33.0,2.0,2.604
34.0,0.0,2.605
28.0,-1.0,2.606
32.0,0.0,2.607
44.0,1.0,2.608
42.0,4.0,2.609
24.0,6.0,2.61
8.0,2.0,2.611
5.0,-2.0,2.612
5.0,-1.0,2.613
-5.0,0.0,2.614
-11.0,-4.0,2.615
2.0,-7.0,2.616
20.0,-7.0,2.617
23.0,-4.0,2.618
7.0,-1.0,2.619
-12.0,-1.0,2.62
-17.0,-6.0,2.621
-5.0,-8.0,2.622
19.0,-6.0,2.623
41.0,-1.0,2.624
40.0,3.0,2.625
13.0,6.0,2.626
-10.0,5.0,2.627
2.0,1.0,2.628
32.0,-3.0,2.629
31.0,-2.0,2.63
-11.0,1.0,2.631
-55.0,-3.0,2.632
-71.0,-10.0,2.633
-72.0,-14.0,2.634
-69.0,-13.0,2.635
-57.0,-11.0,2.636
-33.0,-5.0,2.637
-20.0,0.0,2.638
-20.0,5.0,2.639
-15.0,5.0,2.64
10.0,0.0,2.641
33.0,0.0,2.642
29.0,6.0,2.643
12.0,11.0,2.644
3.0,10.0,2.645
5.0,9.0,2.646
3.0,5.0,2.647
-7.0,-3.0,2.648
-19.0,-11.0,2.649
-22.0,-20.0,2.65
-6.0,-30.0,2.651
27.0,-46.0,2.652
53.0,-68.0,2.653
57.0,-86.0,2.654
43.0,-93.0,2.655
25.0,-90.0,2.656
5.0,-83.0,2.657
-13.0,-78.0,2.658
-14.0,-65.0,2.659
-8.0,-35.0,2.66
21.0,7.0,2.661
52.0,48.0,2.662
80.0,69.0,2.663
93.0,69.0,2.664
55.0,60.0,2.665
18.0,48.0,2.666
-18.0,38.0,2.667
-43.0,46.0,2.668
-36.0,82.0,2.669
-31.0,133.0,2.67
-33.0,167.0,2.671
-38.0,158.0,2.672
-50.0,107.0,2.673
-55.0,41.0,2.674
-36.0,-5.0,2.675
-22.0,-21.0,2.676
-22.0,-20.0,2.677
-21.0,-28.0,2.678
-6.0,-33.0,2.679
26.0,-5.0,2.68
34.0,50.0,2.681
2.0,81.0,2.682
-25.0,36.0,2.683
-15.0,-72.0,2.684
5.0,-173.0,2.685
1.0,-209.0,2.686
-9.0,-188.0,2.687
12.0,-157.0,2.688
55.0,-131.0,2.689
77.0,-88.0,2.69
63.0,-29.0,2.691
43.0,-4.0,2.692
39.0,-34.0,2.693
41.0,-60.0,2.694
45.0,-9.0,2.695
59.0,105.0,2.696
87.0,205.0,2.697
98.0,277.0,2.698
58.0,340.0,2.699
-32.0,381.0,2.7
-115.0,328.0,2.701
-131.0,177.0,2.702
-71.0,11.0,2.703
-2.0,-94.0,2.704
4.0,-159.0,2.705
-44.0,-238.0,2.706
-79.0,-319.0,2.707
-62.0,-361.0,2.708
-26.0,-347.0,2.709
2.0,-302.0,2.71
46.0,-227.0,2.711
109.0,-100.0,2.712
135.0,71.0,2.713
68.0,237.0,2.714
-38.0,345.0,2.715
-89.0,366.0,2.716
-70.0,299.0,2.717
-57.0,147.0,2.718
-99.0,-39.0,2.719
-153.0,-193.0,2.72
-151.0,-268.0,2.721
-91.0,-227.0,2.722
-3.0,-75.0,2.723
99.0,120.0,2.724
188.0,254.0,2.725
207.0,289.0,2.726
151.0,277.0,2.727
98.0,257.0,2.728
105.0,198.0,2.729
119.0,85.0,2.73
72.0,-20.0,2.731
-12.0,-78.0,2.732
-66.0,-128.0,2.733
-95.0,-197.0,2.734
-129.0,-217.0,2.735
-145.0,-129.0,2.736
-105.0,4.0,2.737
-56.0,73.0,2.738
-57.0,35.0,2.739
-54.0,-84.0,2.74
-32.0,-231.0,2.741
-4.0,-324.0,2.742
41.0,-276.0,2.743
67.0,-96.0,2.744
29.0,76.0,2.745
7.0,92.0,2.746
31.0,-51.0,2.747
50.0,-237.0,2.748
51.0,-349.0,2.749
60.0,-340.0,2.75
90.0,-215.0,2.751
105.0,-26.0,2.752
70.0,161.0,2.753
40.0,289.0,2.754
30.0,339.0,2.755
19.0,330.0,2.756
3.0,319.0,2.757
-18.0,334.0,2.758
-31.0,346.0,2.759
-8.0,339.0,2.76
0.0,275.0,2.761
-29.0,230.0,2.762
-51.0,247.0,2.763
-34.0,240.0,2.764
-21.0,160.0,2.765
-45.0,91.0,2.766
-79.0,55.0,2.767
-86.0,2.0,2.768
-85.0,-103.0,2.769
-89.0,-194.0,2.77
-64.0,-242.0,2.771
11.0,-309.0,2.772
85.0,-437.0,2.773
101.0,-527.0,2.774
77.0,-504.0,2.775
83.0,-430.0,2.776
126.0,-200.0,2.777
149.0,24.0,2.778
111.0,188.0,2.779
42.0,245.0,2.78
-5.0,177.0,2.781
-18.0,2.0,2.782
-27.0,-244.0,2.783
-52.0,-507.0,2.784
-81.0,-685.0,2.785
-96.0,-665.0,2.786
-89.0,-428.0,2.787
-67.0,-77.0,2.788
-54.0,259.0,2.789
-62.0,493.0,2.79
-75.0,573.0,2.791
-59.0,494.0,2.792
-10.0,351.0,2.793
38.0,275.0,2.794
46.0,285.0,2.795
18.0,293.0,2.796
-13.0,263.0,2.797
-27.0,245.0,2.798
-24.0,247.0,2.799
-14.0,184.0,2.8
-13.0,20.0,2.801
-28.0,-142.0,2.802
-45.0,-216.0,2.803
-40.0,-221.0,2.804
-17.0,-203.0,2.805
-7.0,-148.0,2.806
-15.0,-48.0,2.807
5.0,53.0,2.808
75.0,115.0,2.809
156.0,135.0,2.81
190.0,121.0,2.811
184.0,87.0,2.812
166.0,72.0,2.813
119.0,118.0,2.814
30.0,198.0,2.815
-53.0,238.0,2.816
-74.0,212.0,2.817
-61.0,125.0,2.818
-60.0,7.0,2.819
-50.0,-134.0,2.82
-14.0,-287.0,2.821
14.0,-409.0,2.822
22.0,-468.0,2.823
22.0,-467.0,2.824
0.0,-446.0,2.825
1.0,-423.0,2.826
73.0,-351.0,2.827
121.0,-177.0,2.828
99.0,61.0,2.829
55.0,253.0,2.83
-50.0,327.0,2.831
-132.0,297.0,2.832
-141.0,196.0,2.833
-148.0,54.0,2.834
-150.0,-61.0,2.835
-159.0,-74.0,2.836
-185.0,-17.0,2.837
-204.0,-6.0,2.838
-163.0,-75.0,2.839
-47.0,-161.0,2.84
89.0,-296.0,2.841
159.0,-407.0,2.842
153.0,-445.0,2.843
132.0,-407.0,2.844
140.0,-140.0,2.845
160.0,140.0,2.846
150.0,458.0,2.847
108.0,715.0,2.848
61.0,784.0,2.849
28.0,778.0,2.85
16.0,547.0,2.851
22.0,327.0,2.852
44.0,139.0,2.853
69.0,-61.0,2.854
67.0,-297.0,2.855
16.0,-498.0,2.856
-49.0,-591.0,2.857
-88.0,-699.0,2.858
-77.0,-855.0,2.859
-58.0,-869.0,2.86
-65.0,-573.0,2.861
-80.0,16.0,2.862
-74.0,710.0,2.863
-64.0,1269.0,2.864
-75.0,1496.0,2.865
-102.0,1320.0,2.866
-127.0,858.0,2.867
-151.0,331.0,2.868
-169.0,-76.0,2.869
-144.0,-311.0,2.87
-68.0,-423.0,2.871
17.0,-490.0,2.872
80.0,-518.0,2.873
138.0,-465.0,2.874
204.0,-316.0,2.875
244.0,-143.0,2.876
236.0,-27.0,2.877
193.0,13.0,2.878
141.0,-23.0,2.879
68.0,-132.0,2.88
-22.0,-270.0,2.881
-88.0,-353.0,2.882
-89.0,-353.0,2.883
-45.0,-311.0,2.884
-14.0,-231.0,2.885
-32.0,-72.0,2.886
-92.0,130.0,2.887
-144.0,253.0,2.888
-120.0,256.0,2.889
-15.0,228.0,2.89
100.0,220.0,2.891
167.0,177.0,2.892
207.0,80.0,2.893
256.0,4.0,2.894
277.0,-14.0,2.895
199.0,-50.0,2.896
49.0,-127.0,2.897
-95.0,-166.0,2.898
-185.0,-94.0,2.899
-256.0,20.0,2.9
-271.0,60.0,2.901
-273.0,23.0,2.902
-234.0,-41.0,2.903
-184.0,-113.0,2.904
-104.0,-183.0,2.905
-8.0,-204.0,2.906
129.0,-142.0,2.907
213.0,-9.0,2.908
131.0,191.0,2.909
67.0,467.0,2.91
56.0,733.0,2.911
84.0,815.0,2.912
233.0,629.0,2.913
327.0,289.0,2.914
255.0,-31.0,2.915
180.0,-273.0,2.916
101.0,-456.0,2.917
36.0,-617.0,2.918
22.0,-738.0,2.919
9.0,-788.0,2.92
-26.0,-622.0,2.921
-84.0,-401.0,2.922
-133.0,-19.0,2.923
-151.0,271.0,2.924
-143.0,285.0,2.925
-129.0,296.0,2.926
-113.0,291.0,2.927
-110.0,303.0,2.928
-125.0,369.0,2.929
-136.0,442.0,2.93
-107.0,536.0,2.931
-50.0,587.0,2.932
-19.0,505.0,2.933
-36.0,385.0,2.934
-72.0,147.0,2.935
-91.0,-75.0,2.936
-89.0,-253.0,2.937
-64.0,-386.0,2.938
-8.0,-346.0,2.939
68.0,-336.0,2.94
128.0,-413.0,2.941
137.0,-490.0,2.942
98.0,-507.0,2.943
37.0,-451.0,2.944
-21.0,-271.0,2.945
-47.0,74.0,2.946
-31.0,472.0,2.947
5.0,680.0,2.948
22.0,571.0,2.949
4.0,255.0,2.95
-28.0,-73.0,2.951
-49.0,-314.0,2.952
-60.0,-463.0,2.953
-58.0,-529.0,2.954
-26.0,-514.0,2.955
36.0,-444.0,2.956
89.0,-368.0,2.957
98.0,-307.0,2.958
71.0,-247.0,2.959
49.0,-145.0,2.96
71.0,19.0,2.961
145.0,203.0,2.962
239.0,324.0,2.963
273.0,340.0,2.964
187.0,286.0,2.965
35.0,223.0,2.966
-53.0,188.0,2.967
-35.0,184.0,2.968
5.0,207.0,2.969
-14.0,244.0,2.97
-63.0,271.0,2.971
-88.0,267.0,2.972
-93.0,218.0,2.973
-104.0,127.0,2.974
-97.0,42.0,2.975
-54.0,-2.0,2.976
6.0,-27.0,2.977
68.0,-94.0,2.978
127.0,-173.0,2.979
140.0,-157.0,2.98
55.0,-9.0,2.981
-89.0,163.0,2.982
-169.0,225.0,2.983
-141.0,160.0,2.984
-113.0,43.0,2.985
-163.0,-70.0,2.986
-216.0,-171.0,2.987
-169.0,-252.0,2.988
-44.0,-319.0,2.989
48.0,-390.0,2.99
78.0,-470.0,2.991
100.0,-548.0,2.992
139.0,-582.0,2.993
148.0,-509.0,2.994
103.0,-281.0,2.995
40.0,51.0,2.996
2.0,346.0,2.997
-47.0,542.0,2.998
-138.0,619.0,2.999
-222.0,579.0,3.0
-198.0,411.0,3.001
-50.0,158.0,3.002
120.0,-85.0,3.003
216.0,-257.0,3.004
240.0,-348.0,3.005
232.0,-339.0,3.006
199.0,-192.0,3.007
138.0,61.0,3.008
88.0,303.0,3.009
59.0,426.0,3.01
-8.0,391.0,3.011
-136.0,237.0,3.012
-226.0,75.0,3.013
-178.0,28.0,3.014
-24.0,107.0,3.015
108.0,201.0,3.016
163.0,205.0,3.017
173.0,88.0,3.018
154.0,-95.0,3.019
83.0,-254.0,3.02
-10.0,-340.0,3.021
-55.0,-382.0,3.022
-42.0,-292.0,3.023
-38.0,-201.0,3.024
-79.0,-106.0,3.025
-110.0,22.0,3.026
-98.0,247.0,3.027
-76.0,409.0,3.028
-63.0,378.0,3.029
-18.0,340.0,3.03
48.0,281.0,3.031
54.0,190.0,3.032
-40.0,4.0,3.033
-140.0,-194.0,3.034
-147.0,-430.0,3.035
-79.0,-635.0,3.036
-18.0,-748.0,3.037
7.0,-809.0,3.038
9.0,-603.0,3.039
-5.0,-234.0,3.04
-26.0,153.0,3.041
-15.0,450.0,3.042
46.0,616.0,3.043
119.0,653.0,3.044
163.0,571.0,3.045
173.0,375.0,3.046
145.0,121.0,3.047
62.0,-54.0,3.048
-46.0,-16.0,3.049
-119.0,218.0,3.05
-131.0,458.0,3.051
-129.0,534.0,3.052
-147.0,433.0,3.053
-160.0,228.0,3.054
-144.0,-53.0,3.055
-110.0,-397.0,3.056
-72.0,-722.0,3.057
-18.0,-981.0,3.058
57.0,-1076.0,3.059
129.0,-898.0,3.06
168.0,-414.0,3.061
160.0,226.0,3.062
134.0,756.0,3.063
116.0,1021.0,3.064
86.0,1047.0,3.065
16.0,894.0,3.066
-59.0,594.0,3.067
-64.0,229.0,3.068
3.0,-70.0,3.069
49.0,-241.0,3.07
9.0,-316.0,3.071
-49.0,-336.0,3.072
-22.0,-337.0,3.073
88.0,-369.0,3.074
173.0,-431.0,3.075
157.0,-418.0,3.076
87.0,-270.0,3.077
44.0,-44.0,3.078
50.0,118.0,3.079
33.0,147.0,3.08
-41.0,65.0,3.081
-102.0,-61.0,3.082
-91.0,-157.0,3.083
-63.0,-177.0,3.084
-103.0,-178.0,3.085
-190.0,-239.0,3.086
-216.0,-299.0,3.087
-120.0,-228.0,3.088
70.0,-43.0,3.089
275.0,92.0,3.09
385.0,122.0,3.091
306.0,150.0,3.092
85.0,250.0,3.093
-105.0,341.0,3.094
-153.0,342.0,3.095
-122.0,276.0,3.096
-118.0,197.0,3.097
-118.0,62.0,3.098
-58.0,93.0,3.099
-13.0,104.0,3.1
-15.0,58.0,3.101
-38.0,2.0,3.102
-124.0,-82.0,3.103
-166.0,-127.0,3.104
-70.0,-58.0,3.105
16.0,31.0,3.106
73.0,175.0,3.107
115.0,294.0,3.108
109.0,337.0,3.109
90.0,360.0,3.11
33.0,325.0,3.111
-7.0,286.0,3.112
5.0,240.0,3.113
11.0,193.0,3.114
-2.0,140.0,3.115
-18.0,89.0,3.116
-39.0,38.0,3.117
-50.0,-100.0,3.118
-30.0,5.0,3.119
-26.0,44.0,3.12
-37.0,-114.0,3.121
-32.0,-306.0,3.122
2.0,-595.0,3.123
32.0,-752.0,3.124
39.0,-513.0,3.125
54.0,-208.0,3.126
104.0,290.0,3.127
147.0,702.0,3.128
139.0,850.0,3.129
127.0,930.0,3.13
179.0,807.0,3.131
249.0,675.0,3.132
227.0,517.0,3.133
95.0,353.0,3.134
-45.0,171.0,3.135
-120.0,-8.0,3.136
-140.0,-184.0,3.137
-148.0,-318.0,3.138
-159.0,-277.0,3.139
-193.0,-203.0,3.14
-241.0,-106.0,3.141
-251.0,112.0,3.142
-190.0,430.0,3.143
-125.0,655.0,3.144
-143.0,651.0,3.145
-230.0,461.0,3.146
-289.0,182.0,3.147
-264.0,-109.0,3.148
-171.0,-310.0,3.149
-13.0,-342.0,3.15
211.0,-297.0,3.151
425.0,-319.0,3.152
501.0,-368.0,3.153
411.0,-285.0,3.154
264.0,-94.0,3.155
173.0,13.0,3.156
145.0,-12.0,3.157
118.0,-58.0,3.158
68.0,-67.0,3.159
10.0,-132.0,3.16
-47.0,-274.0,3.161
-113.0,-340.0,3.162
-167.0,-260.0,3.163
-176.0,-167.0,3.164
-129.0,-181.0,3.165
-56.0,-245.0,3.166
18.0,-260.0,3.167
81.0,-224.0,3.168
111.0,-153.0,3.169
74.0,-6.0,3.17
-3.0,219.0,3.171
-50.0,403.0,3.172
-43.0,425.0,3.173
-47.0,300.0,3.174
-120.0,146.0,3.175
-218.0,32.0,3.176
-261.0,-46.0,3.177
-224.0,-124.0,3.178
-136.0,-196.0,3.179
-25.0,-266.0,3.18
154.0,-330.0,3.181
289.0,-349.0,3.182
290.0,-229.0,3.183
265.0,-77.0,3.184
159.0,171.0,3.185
88.0,380.0,3.186
120.0,473.0,3.187
137.0,497.0,3.188
105.0,311.0,3.189
79.0,130.0,3.19
75.0,-37.0,3.191
49.0,-184.0,3.192
-38.0,-270.0,3.193
-109.0,-387.0,3.194
-131.0,-593.0,3.195
-135.0,-724.0,3.196
-80.0,-629.0,3.197
-25.0,-472.0,3.198
8.0,-49.0,3.199
4.0,493.0,3.2
-38.0,1004.0,3.201
-68.0,1271.0,3.202
-40.0,1158.0,3.203
17.0,758.0,3.204
47.0,310.0,3.205
49.0,-14.0,3.206
41.0,-213.0,3.207
-2.0,-350.0,3.208
-97.0,-431.0,3.209
-160.0,-427.0,3.21
-107.0,-376.0,3.211
-4.0,-364.0,3.212
37.0,-427.0,3.213
28.0,-516.0,3.214
43.0,-559.0,3.215
47.0,-503.0,3.216
-32.0,-314.0,3.217
-153.0,69.0,3.218
-175.0,421.0,3.219
-100.0,679.0,3.22
-59.0,654.0,3.221
-83.0,590.0,3.222
-76.0,409.0,3.223
-9.0,226.0,3.224
47.0,38.0,3.225
76.0,-132.0,3.226
113.0,-244.0,3.227
111.0,-326.0,3.228
0.0,-320.0,3.229
-145.0,-284.0,3.23
-171.0,-162.0,3.231
-61.0,-42.0,3.232
62.0,68.0,3.233
104.0,184.0,3.234
78.0,314.0,3.235
32.0,395.0,3.236
15.0,329.0,3.237
50.0,228.0,3.238
92.0,10.0,3.239
59.0,-204.0,3.24
-29.0,-408.0,3.241
-68.0,-531.0,3.242
-34.0,-482.0,3.243
-15.0,-303.0,3.244
-37.0,-169.0,3.245
-20.0,-169.0,3.246
64.0,-189.0,3.247
137.0,-84.0,3.248
152.0,157.0,3.249
167.0,437.0,3.25
225.0,656.0,3.251
264.0,729.0,3.252
218.0,610.0,3.253
107.0,361.0,3.254
0.0,114.0,3.255
-59.0,-80.0,3.256
-75.0,-265.0,3.257
-87.0,-462.0,3.258
-113.0,-526.0,3.259
-138.0,-360.0,3.26
-126.0,-77.0,3.261
-81.0,137.0,3.262
-38.0,218.0,3.263
-11.0,219.0,3.264
15.0,197.0,3.265
40.0,192.0,3.266
51.0,239.0,3.267
39.0,304.0,3.268
17.0,287.0,3.269
3.0,168.0,3.27
11.0,38.0,3.271
36.0,-46.0,3.272
48.0,-143.0,3.273
15.0,-275.0,3.274
-57.0,-349.0,3.275
-140.0,-313.0,3.276
-195.0,-249.0,3.277
-209.0,-232.0,3.278
-165.0,-227.0,3.279
-69.0,-179.0,3.28
44.0,-123.0,3.281
129.0,-102.0,3.282
158.0,-82.0,3.283
133.0,-31.0,3.284
109.0,7.0,3.285
144.0,-9.0,3.286
208.0,-38.0,3.287
191.0,-44.0,3.288
48.0,-51.0,3.289
-124.0,-92.0,3.29
-213.0,-130.0,3.291
-215.0,-140.0,3.292
-180.0,-144.0,3.293
-116.0,-152.0,3.294
-41.0,-129.0,3.295
-31.0,-61.0,3.296
-94.0,10.0,3.297
-117.0,56.0,3.298
-5.0,83.0,3.299
122.0,103.0,3.3
82.0,112.0,3.301
-94.0,125.0,3.302
-196.0,149.0,3.303
-145.0,163.0,3.304
-57.0,156.0,3.305
-18.0,163.0,3.306
26.0,204.0,3.307
126.0,229.0,3.308
207.0,191.0,3.309
181.0,121.0,3.31
68.0,58.0,3.311
-25.0,-6.0,3.312
-34.0,-78.0,3.313
26.0,-124.0,3.314
106.0,-137.0,3.315
163.0,-157.0,3.316
173.0,-184.0,3.317
109.0,-168.0,3.318
-24.0,-92.0,3.319
-165.0,-32.0,3.32
-218.0,-40.0,3.321
-162.0,-59.0,3.322
-71.0,-47.0,3.323
-34.0,-55.0,3.324
-50.0,-146.0,3.325
-34.0,-284.0,3.326
63.0,-355.0,3.327
187.0,-305.0,3.328
268.0,-177.0,3.329
298.0,-33.0,3.33
302.0,117.0,3.331
233.0,305.0,3.332
40.0,502.0,3.333
-185.0,584.0,3.334
-272.0,466.0,3.335
-190.0,233.0,3.336
-86.0,80.0,3.337
-65.0,122.0,3.338
-95.0,313.0,3.339
-109.0,482.0,3.34
-108.0,582.0,3.341
-115.0,608.0,3.342
-109.0,410.0,3.343
-91.0,232.0,3.344
-100.0,116.0,3.345
-123.0,1.0,3.346
-88.0,-104.0,3.347
20.0,-205.0,3.348
127.0,-286.0,3.349
167.0,-367.0,3.35
137.0,-445.0,3.351
51.0,-505.0,3.352
-43.0,-503.0,3.353
-40.0,-510.0,3.354
126.0,-542.0,3.355
368.0,-560.0,3.356
527.0,-534.0,3.357
548.0,-492.0,3.358
429.0,-411.0,3.359
204.0,-342.0,3.36
-42.0,-254.0,3.361
-190.0,-143.0,3.362
-210.0,-22.0,3.363
-192.0,164.0,3.364
-203.0,454.0,3.365
-212.0,750.0,3.366
-201.0,901.0,3.367
-217.0,870.0,3.368
-265.0,732.0,3.369
-258.0,550.0,3.37
-152.0,354.0,3.371
-16.0,195.0,3.372
44.0,108.0,3.373
3.0,55.0,3.374
-65.0,-10.0,3.375
-65.0,-53.0,3.376
25.0,-53.0,3.377
143.0,-86.0,3.378
208.0,-206.0,3.379
209.0,-338.0,3.38
181.0,-367.0,3.381
106.0,-304.0,3.382
-24.0,-249.0,3.383
-118.0,-233.0,3.384
-68.0,-222.0,3.385
80.0,-224.0,3.386
155.0,-256.0,3.387
65.0,-273.0,3.388
-93.0,-233.0,3.389
-179.0,-185.0,3.39
-166.0,-209.0,3.391
-134.0,-288.0,3.392
-136.0,-318.0,3.393
-135.0,-233.0,3.394
-74.0,-70.0,3.395
28.0,78.0,3.396
91.0,140.0,3.397
75.0,137.0,3.398
22.0,158.0,3.399
2.0,250.0,3.4
26.0,339.0,3.401
30.0,346.0,3.402
-15.0,289.0,3.403
-65.0,231.0,3.404
-68.0,155.0,3.405
-43.0,8.0,3.406
-25.0,-144.0,3.407
31.0,-153.0,3.408
211.0,24.0,3.409
466.0,279.0,3.41
593.0,477.0,3.411
457.0,558.0,3.412
154.0,499.0,3.413
-99.0,313.0,3.414
-212.0,101.0,3.415
-237.0,-21.0,3.416
-230.0,-79.0,3.417
-194.0,-222.0,3.418
-152.0,-477.0,3.419
-160.0,-666.0,3.42
-206.0,-604.0,3.421
-194.0,-306.0,3.422
-86.0,42.0,3.423
27.0,287.0,3.424
45.0,359.0,3.425
-2.0,244.0,3.426
-15.0,20.0,3.427
43.0,-131.0,3.428
111.0,-100.0,3.429
128.0,38.0,3.43
84.0,153.0,3.431
6.0,229.0,3.432
-44.0,293.0,3.433
-28.0,287.0,3.434
19.0,147.0,3.435
21.0,-39.0,3.436
-16.0,-127.0,3.437
-36.0,-129.0,3.438
-21.0,-159.0,3.439
-27.0,-244.0,3.44
-36.0,-286.0,3.441
28.0,-238.0,3.442
142.0,-182.0,3.443
177.0,-193.0,3.444
117.0,-236.0,3.445
91.0,-234.0,3.446
122.0,-160.0,3.447
72.0,-33.0,3.448
-86.0,89.0,3.449
-169.0,132.0,3.45
-69.0,49.0,3.451
86.0,-101.0,3.452
132.0,-192.0,3.453
63.0,-142.0,3.454
-61.0,14.0,3.455
-202.0,183.0,3.456
-290.0,302.0,3.457
-264.0,362.0,3.458
-173.0,362.0,3.459
-127.0,312.0,3.46
-110.0,240.0,3.461
-30.0,167.0,3.462
80.0,67.0,3.463
107.0,-76.0,3.464
72.0,-218.0,3.465
89.0,-297.0,3.466
144.0,-302.0,3.467
135.0,-255.0,3.468
81.0,-163.0,3.469
83.0,-36.0,3.47
119.0,82.0,3.471
86.0,151.0,3.472
17.0,171.0,3.473
18.0,119.0,3.474
60.0,-41.0,3.475
26.0,-255.0,3.476
-60.0,-369.0,3.477
-94.0,-320.0,3.478
-43.0,-207.0,3.479
31.0,-161.0,3.48
64.0,-155.0,3.481
73.0,-87.0,3.482
68.0,20.0,3.483
28.0,73.0,3.484
-14.0,86.0,3.485
-6.0,157.0,3.486
22.0,286.0,3.487
-3.0,381.0,3.488
-63.0,403.0,3.489
-72.0,390.0,3.49
-23.0,347.0,3.491
24.0,242.0,3.492
58.0,103.0,3.493
106.0,2.0,3.494
136.0,-43.0,3.495
101.0,-77.0,3.496
27.0,-115.0,3.497
-54.0,-135.0,3.498
-130.0,-100.0,3.499
-209.0,-6.0,3.5
-218.0,106.0,3.501
-122.0,165.0,3.502
-18.0,119.0,3.503
-9.0,28.0,3.504
-61.0,-1.0,3.505
-71.0,43.0,3.506
-31.0,73.0,3.507
-6.0,42.0,3.508
-5.0,-7.0,3.509
15.0,-41.0,3.51
46.0,-86.0,3.511
45.0,-135.0,3.512
22.0,-150.0,3.513
27.0,-137.0,3.514
56.0,-149.0,3.515
66.0,-178.0,3.516
55.0,-169.0,3.517
64.0,-122.0,3.518
107.0,-99.0,3.519
134.0,-117.0,3.52
91.0,-121.0,3.521
-11.0,-83.0,3.522
-114.0,-52.0,3.523
-163.0,-59.0,3.524
-154.0,-76.0,3.525
-124.0,-77.0,3.526
-102.0,-75.0,3.527
-69.0,-75.0,3.528
-2.0,-56.0,3.529
70.0,-16.0,3.53
92.0,17.0,3.531
56.0,32.0,3.532
13.0,45.0,3.533
-2.0,72.0,3.534
-3.0,93.0,3.535
-6.0,97.0,3.536
6.0,96.0,3.537
46.0,102.0,3.538
97.0,110.0,3.539
121.0,102.0,3.54
104.0,74.0,3.541
61.0,37.0,3.542
17.0,-1.0,3.543
-9.0,-30.0,3.544
-11.0,-38.0,3.545
-3.0,-28.0,3.546
-3.0,-23.0,3.547
-15.0,-31.0,3.548
-22.0,-43.0,3.549
-18.0,-40.0,3.55
-1.0,-13.0,3.551
25.0,32.0,3.552
49.0,83.0,3.553
42.0,111.0,3.554
-5.0,96.0,3.555
-56.0,43.0,3.556
-64.0,-9.0,3.557
-34.0,-32.0,3.558
-3.0,-21.0,3.559
6.0,-8.0,3.56
9.0,13.0,3.561
21.0,30.0,3.562
28.0,33.0,3.563
16.0,30.0,3.564
-4.0,6.0,3.565
-16.0,-12.0,3.566
-19.0,-8.0,3.567
-20.0,-5.0,3.568
-19.0,-9.0,3.569
-15.0,-16.0,3.57
-8.0,-34.0,3.571
-1.0,-44.0,3.572
10.0,-30.0,3.573
25.0,-21.0,3.574
40.0,-28.0,3.575
46.0,-34.0,3.576
48.0,-36.0,3.577
39.0,-39.0,3.578
7.0,-34.0,3.579
-40.0,-7.0,3.58
-59.0,31.0,3.581
-26.0,62.0,3.582
-1.0,73.0,3.583
-60.0,70.0,3.584
-162.0,61.0,3.585
-183.0,45.0,3.586
-95.0,24.0,3.587
-4.0,7.0,3.588
19.0,-1.0,3.589
21.0,-8.0,3.59
71.0,-18.0,3.591
150.0,-26.0,3.592
215.0,-24.0,3.593
242.0,-15.0,3.594
196.0,-4.0,3.595
68.0,5.0,3.596
-64.0,9.0,3.597
-112.0,6.0,3.598
-78.0,-1.0,3.599
-69.0,-5.0,3.6
-114.0,-11.0,3.601
-119.0,-17.0,3.602
-39.0,-23.0,3.603
17.0,-24.0,3.604
-39.0,-19.0,3.605
-133.0,-14.0,3.606
-146.0,-16.0,3.607
-81.0,-20.0,3.608
-21.0,-20.0,3.609
8.0,-13.0,3.61
48.0,-3.0,3.611
106.0,9.0,3.612
144.0,14.0,3.613
144.0,13.0,3.614
117.0,12.0,3.615
93.0,16.0,3.616
84.0,23.0,3.617
87.0,26.0,3.618
94.0,26.0,3.619
103.0,20.0,3.62
117.0,5.0,3.621
115.0,-12.0,3.622
61.0,-27.0,3.623
-8.0,-33.0,3.624
-121.0,-31.0,3.625
-214.0,-26.0,3.626
-249.0,-21.0,3.627
-250.0,-15.0,3.628
-146.0,-11.0,3.629
-34.0,-7.0,3.63
101.0,0.0,3.631
180.0,8.0,3.632
86.0,9.0,3.633
-8.0,7.0,3.634
-107.0,6.0,3.635
-153.0,11.0,3.636
-38.0,14.0,3.637
47.0,16.0,3.638
-50.0,24.0,3.639
-211.0,32.0,3.64
-243.0,43.0,3.641
-99.0,50.0,3.642
118.0,42.0,3.643
293.0,32.0,3.644
354.0,22.0,3.645
268.0,9.0,3.646
88.0,-8.0,3.647
-55.0,-28.0,3.648
-72.0,-51.0,3.649
-8.0,-68.0,3.65
49.0,-62.0,3.651
74.0,-53.0,3.652
79.0,-31.0,3.653
59.0,-9.0,3.654
4.0,12.0,3.655
-57.0,29.0,3.656
-91.0,26.0,3.657
-102.0,19.0,3.658
-102.0,1.0,3.659
-91.0,-17.0,3.66
-59.0,-32.0,3.661
-8.0,-35.0,3.662
38.0,-33.0,3.663
46.0,-28.0,3.664
-9.0,-13.0,3.665
-91.0,14.0,3.666
-142.0,36.0,3.667
-148.0,38.0,3.668
-113.0,25.0,3.669
-25.0,14.0,3.67
101.0,14.0,3.671
169.0,16.0,3.672
109.0,17.0,3.673
13.0,16.0,3.674
14.0,10.0,3.675
70.0,0.0,3.676
61.0,-6.0,3.677
-19.0,-9.0,3.678
-37.0,-7.0,3.679
37.0,-3.0,3.68
96.0,-3.0,3.681
99.0,0.0,3.682
129.0,-2.0,3.683
204.0,-5.0,3.684
221.0,1.0,3.685
104.0,9.0,3.686
-76.0,4.0,3.687
-195.0,-11.0,3.688
-184.0,-18.0,3.689
-63.0,-9.0,3.69
78.0,-5.0,3.691
145.0,-20.0,3.692
116.0,-36.0,3.693
52.0,-34.0,3.694
-16.0,-26.0,3.695
-106.0,-22.0,3.696
-187.0,-18.0,3.697
-190.0,-5.0,3.698
-120.0,13.0,3.699
-69.0,21.0,3.7
-77.0,11.0,3.701
-71.0,0.0,3.702
-25.0,-3.0,3.703
12.0,-2.0,3.704
26.0,3.0,3.705
40.0,4.0,3.706
51.0,0.0,3.707
73.0,2.0,3.708
125.0,14.0,3.709
168.0,29.0,3.71
180.0,30.0,3.711
149.0,24.0,3.712
-8.0,22.0,3.713
-127.0,21.0,3.714
-125.0,17.0,3.715
-120.0,9.0,3.716
-109.0,5.0,3.717
-102.0,-1.0,3.718
-86.0,-13.0,3.719
-33.0,-26.0,3.72
1.0,-32.0,3.721
-1.0,-28.0,3.722
2.0,-28.0,3.723
24.0,-29.0,3.724
33.0,-16.0,3.725
22.0,5.0,3.726
18.0,19.0,3.727
29.0,12.0,3.728
37.0,7.0,3.729
37.0,13.0,3.73
42.0,19.0,3.731
43.0,15.0,3.732
16.0,6.0,3.733
-23.0,4.0,3.734
-36.0,6.0,3.735
-14.0,3.0,3.736
13.0,-2.0,3.737
22.0,-8.0,3.738
21.0,-8.0,3.739
20.0,-8.0,3.74
9.0,-9.0,3.741
-11.0,-6.0,3.742
-21.0,-2.0,3.743
-7.0,3.0,3.744
15.0,5.0,3.745
18.0,6.0,3.746
3.0,2.0,3.747
-9.0,-2.0,3.748
-7.0,-3.0,3.749
2.0,1.0,3.75
6.0,4.0,3.751
5.0,4.0,3.752
8.0,3.0,3.753
13.0,6.0,3.754
12.0,8.0,3.755
3.0,6.0,3.756
-4.0,0.0,3.757
-5.0,-8.0,3.758
-4.0,-16.0,3.759
-7.0,-24.0,3.76
-11.0,-31.0,3.761
-11.0,-29.0,3.762
-2.0,-17.0,3.763
3.0,-3.0,3.764
1.0,8.0,3.765
-2.0,11.0,3.766
2.0,5.0,3.767
13.0,-2.0,3.768
18.0,-3.0,3.769
11.0,1.0,3.77
-8.0,8.0,3.771
-26.0,13.0,3.772
-30.0,17.0,3.773
-21.0,16.0,3.774
-10.0,10.0,3.775
-14.0,2.0,3.776
-17.0,-1.0,3.777
1.0,0.0,3.778
31.0,1.0,3.779
49.0,-2.0,3.78
29.0,-7.0,3.781
13.0,-7.0,3.782
17.0,-6.0,3.783
16.0,-6.0,3.784
1.0,-5.0,3.785
-10.0,-4.0,3.786
-11.0,-4.0,3.787
-11.0,-2.0,3.788
-7.0,3.0,3.789
-1.0,11.0,3.79
5.0,16.0,3.791
10.0,15.0,3.792
6.0,10.0,3.793
1.0,0.0,3.794
-3.0,-13.0,3.795
-6.0,-24.0,3.796
-6.0,-28.0,3.797
-5.0,-29.0,3.798
-7.0,-25.0,3.799
-5.0,-17.0,3.8
-6.0,-5.0,3.801
-5.0,8.0,3.802
6.0,11.0,3.803
20.0,7.0,3.804
14.0,4.0,3.805
-8.0,4.0,3.806
-18.0,0.0,3.807
-6.0,-2.0,3.808
13.0,1.0,3.809
20.0,7.0,3.81
19.0,5.0,3.811
19.0,2.0,3.812
17.0,3.0,3.813
9.0,6.0,3.814
7.0,2.0,3.815
14.0,-5.0,3.816
20.0,-7.0,3.817
18.0,-6.0,3.818
13.0,-5.0,3.819
5.0,-4.0,3.82
-2.0,-2.0,3.821
-9.0,7.0,3.822
-8.0,9.0,3.823
-3.0,4.0,3.824
-3.0,-1.0,3.825
-13.0,0.0,3.826
-20.0,0.0,3.827
-16.0,-3.0,3.828
-10.0,-5.0,3.829
-8.0,-1.0,3.83
-6.0,3.0,3.831
15.0,3.0,3.832
56.0,0.0,3.833
106.0,-2.0,3.834
133.0,0.0,3.835
117.0,2.0,3.836
64.0,5.0,3.837
-7.0,3.0,3.838
-56.0,1.0,3.839
-72.0,-1.0,3.84
-64.0,-5.0,3.841
-45.0,-5.0,3.842
-13.0,-2.0,3.843
21.0,0.0,3.844
34.0,2.0,3.845
6.0,2.0,3.846
-54.0,0.0,3.847
-116.0,-4.0,3.848
-154.0,-7.0,3.849
-164.0,-5.0,3.85
-147.0,-1.0,3.851
-102.0,-1.0,3.852
-43.0,-4.0,3.853
-4.0,-6.0,3.854
0.0,-2.0,3.855
0.0,2.0,3.856
23.0,7.0,3.857
66.0,11.0,3.858
119.0,12.0,3.859
171.0,11.0,3.86
223.0,4.0,3.861
221.0,2.0,3.862
57.0,2.0,3.863
-78.0,2.0,3.864
-124.0,0.0,3.865
-151.0,-4.0,3.866
-119.0,-8.0,3.867
-90.0,-10.0,3.868
-72.0,-6.0,3.869
-45.0,-1.0,3.87
8.0,0.0,3.871
51.0,-6.0,3.872
63.0,-11.0,3.873
69.0,-13.0,3.874
51.0,-13.0,3.875
37.0,-15.0,3.876
35.0,-17.0,3.877
58.0,-15.0,3.878
142.0,-7.0,3.879
162.0,0.0,3.88
133.0,1.0,3.881
105.0,2.0,3.882
66.0,9.0,3.883
-14.0,24.0,3.884
-107.0,35.0,3.885
-161.0,33.0,3.886
-157.0,15.0,3.887
-108.0,-3.0,3.888
-42.0,-17.0,3.889
-4.0,-26.0,3.89
-9.0,-36.0,3.891
-11.0,-46.0,3.892
30.0,-46.0,3.893
82.0,-36.0,3.894
95.0,-19.0,3.895
85.0,-6.0,3.896
86.0,3.0,3.897
69.0,10.0,3.898
-10.0,22.0,3.899
-120.0,36.0,3.9
-162.0,41.0,3.901
-110.0,37.0,3.902
-37.0,29.0,3.903
-12.0,30.0,3.904
-14.0,35.0,3.905
4.0,30.0,3.906
45.0,10.0,3.907
68.0,-8.0,3.908
55.0,-10.0,3.909
32.0,-4.0,3.91
36.0,0.0,3.911
64.0,-5.0,3.912
77.0,-10.0,3.913
46.0,-9.0,3.914
-5.0,0.0,3.915
-30.0,13.0,3.916
-25.0,22.0,3.917
-22.0,24.0,3.918
-24.0,20.0,3.919
4.0,12.0,3.92
73.0,3.0,3.921
113.0,-3.0,3.922
72.0,-9.0,3.923
-11.0,-23.0,3.924
-61.0,-39.0,3.925
-70.0,-45.0,3.926
-75.0,-34.0,3.927
-83.0,-24.0,3.928
-64.0,-24.0,3.929
-33.0,-27.0,3.93
-13.0,-15.0,3.931
27.0,2.0,3.932
150.0,9.0,3.933
315.0,4.0,3.934
365.0,9.0,3.935
197.0,19.0,3.936
-62.0,23.0,3.937
-213.0,12.0,3.938
-203.0,1.0,3.939
-197.0,-6.0,3.94
-201.0,-15.0,3.941
-192.0,-19.0,3.942
-144.0,-14.0,3.943
-105.0,-7.0,3.944
-93.0,-9.0,3.945
-76.0,-13.0,3.946
-45.0,-10.0,3.947
-25.0,-1.0,3.948
-38.0,7.0,3.949
-39.0,16.0,3.95
-3.0,23.0,3.951
36.0,19.0,3.952
80.0,3.0,3.953
107.0,-5.0,3.954
85.0,2.0,3.955
71.0,10.0,3.956
83.0,12.0,3.957
94.0,16.0,3.958
88.0,34.0,3.959
58.0,46.0,3.96
25.0,37.0,3.961
25.0,24.0,3.962
58.0,2.0,3.963
78.0,-18.0,3.964
58.0,-38.0,3.965
27.0,-53.0,3.966
21.0,-54.0,3.967
30.0,-52.0,3.968
28.0,-36.0,3.969
15.0,-18.0,3.97
14.0,2.0,3.971
21.0,14.0,3.972
23.0,4.0,3.973
17.0,-4.0,3.974
1.0,-11.0,3.975
-26.0,-15.0,3.976
-59.0,-9.0,3.977
-77.0,-6.0,3.978
-67.0,-10.0,3.979
-41.0,-4.0,3.98
-20.0,9.0,3.981
-6.0,14.0,3.982
17.0,13.0,3.983
51.0,17.0,3.984
81.0,30.0,3.985
97.0,30.0,3.986
104.0,16.0,3.987
95.0,3.0,3.988
45.0,3.0,3.989
-37.0,7.0,3.99
-100.0,4.0,3.991
-109.0,1.0,3.992
-83.0,4.0,3.993
-68.0,7.0,3.994
-66.0,9.0,3.995
-52.0,17.0,3.996
-29.0,25.0,3.997
207.0,21.0,3.998
109.0,10.0,3.999
48.0,5.0,4.0
94.0,7.0,4.001
132.0,8.0,4.002
149.0,-1.0,4.003
167.0,-13.0,4.004
175.0,-19.0,4.005
181.0,-19.0,4.006
173.0,-20.0,4.007
187.0,-17.0,4.008
280.0,-12.0,4.009
327.0,-11.0,4.01
216.0,-15.0,4.011
103.0,-16.0,4.012
-19.0,-8.0,4.013
-135.0,-1.0,4.014
-219.0,4.0,4.015
-298.0,1.0,4.016
-350.0,-3.0,4.017
122.0,-6.0,4.018
88.0,-4.0,4.019
67.0,-4.0,4.02
83.0,-8.0,4.021
96.0,-10.0,4.022
102.0,-7.0,4.023
108.0,-2.0,4.024
111.0,6.0,4.025
113.0,16.0,4.026
110.0,30.0,4.027
115.0,45.0,4.028
147.0,62.0,4.029
163.0,69.0,4.03
125.0,45.0,4.031
86.0,22.0,4.032
44.0,1.0,4.033
4.0,-21.0,4.034
-25.0,-46.0,4.035
-52.0,-68.0,4.036
-70.0,-80.0,4.037
-77.0,-84.0,4.038
-49.0,-62.0,4.039
-44.0,-44.0,4.04
-57.0,-36.0,4.041
-50.0,-22.0,4.042
-14.0,-5.0,4.043
20.0,5.0,4.044
34.0,7.0,4.045
39.0,10.0,4.046
50.0,13.0,4.047
58.0,11.0,4.048
60.0,8.0,4.049
69.0,11.0,4.05
88.0,21.0,4.051
83.0,33.0,4.052
30.0,45.0,4.053
-45.0,53.0,4.054
-102.0,45.0,4.055
-127.0,18.0,4.056
-128.0,-4.0,4.057
-107.0,-7.0,4.058
-59.0,3.0,4.059
-8.0,8.0,4.06
17.0,1.0,4.061
20.0,-1.0,4.062
28.0,1.0,4.063
34.0,2.0,4.064
18.0,0.0,4.065
0.0,-1.0,4.066
13.0,-4.0,4.067
36.0,-6.0,4.068
27.0,-2.0,4.069
-6.0,3.0,4.07
-11.0,-2.0,4.071
12.0,-16.0,4.072
18.0,-24.0,4.073
-2.0,-16.0,4.074
-8.0,-4.0,4.075
4.0,0.0,4.076
11.0,0.0,4.077
5.0,2.0,4.078
10.0,5.0,4.079
25.0,2.0,4.08
28.0,-8.0,4.081
18.0,-14.0,4.082
13.0,-20.0,4.083
16.0,-24.0,4.084
7.0,-22.0,4.085
-9.0,-7.0,4.086
-19.0,8.0,4.087
-21.0,14.0,4.088
-25.0,12.0,4.089
-20.0,8.0,4.09
-1.0,2.0,4.091
8.0,-3.0,4.092
3.0,3.0,4.093
16.0,17.0,4.094
52.0,22.0,4.095
61.0,7.0,4.096
13.0,-6.0,4.097
-42.0,-7.0,4.098
-46.0,0.0,4.099
-35.0,1.0,4.1
21.0,-5.0,4.101
92.0,-2.0,4.102
207.0,5.0,4.103
266.0,5.0,4.104
154.0,1.0,4.105
24.0,5.0,4.106
-161.0,12.0,4.107
-305.0,7.0,4.108
-328.0,-2.0,4.109
-327.0,-6.0,4.11
-252.0,-8.0,4.111
-182.0,-15.0,4.112
-132.0,-21.0,4.113
-68.0,-19.0,4.114
37.0,-16.0,4.115
115.0,-18.0,4.116
113.0,-15.0,4.117
94.0,-3.0,4.118
65.0,10.0,4.119
98.0,8.0,4.12
110.0,-2.0,4.121
64.0,-2.0,4.122
39.0,4.0,4.123
70.0,5.0,4.124
87.0,0.0,4.125
55.0,-4.0,4.126
42.0,-7.0,4.127
85.0,-12.0,4.128
125.0,-8.0,4.129
125.0,2.0,4.13
143.0,11.0,4.131
216.0,8.0,4.132
258.0,-3.0,4.133
163.0,-5.0,4.134
-41.0,-1.0,4.135
-221.0,-3.0,4.136
-285.0,-9.0,4.137
-255.0,-15.0,4.138
-218.0,-12.0,4.139
-196.0,-2.0,4.14
-160.0,1.0,4.141
-97.0,-2.0,4.142
-31.0,-7.0,4.143
11.0,-10.0,4.144
34.0,-12.0,4.145
53.0,-8.0,4.146
61.0,-3.0,4.147
50.0,-4.0,4.148
34.0,-13.0,4.149
40.0,-19.0,4.15
59.0,-12.0,4.151
63.0,-1.0,4.152
67.0,14.0,4.153
106.0,49.0,4.154
156.0,100.0,4.155
134.0,123.0,4.156
30.0,86.0,4.157
-77.0,8.0,4.158
-104.0,-39.0,4.159
-82.0,-36.0,4.16
-78.0,-29.0,4.161
-73.0,-42.0,4.162
-26.0,-47.0,4.163
20.0,-20.0,4.164
19.0,6.0,4.165
8.0,-3.0,4.166
38.0,-22.0,4.167
67.0,-11.0,4.168
46.0,12.0,4.169
11.0,16.0,4.17
18.0,4.0,4.171
45.0,0.0,4.172
47.0,8.0,4.173
47.0,8.0,4.174
69.0,2.0,4.175
79.0,10.0,4.176
54.0,25.0,4.177
33.0,20.0,4.178
43.0,-1.0,4.179
44.0,-18.0,4.18
12.0,-23.0,4.181
-10.0,-27.0,4.182
-4.0,-39.0,4.183
-31.0,-39.0,4.184
-155.0,-20.0,4.185
-249.0,0.0,4.186
-250.0,6.0,4.187
-222.0,-3.0,4.188
-103.0,-8.0,4.189
-9.0,-5.0,4.19
10.0,2.0,4.191
26.0,3.0,4.192
30.0,0.0,4.193
36.0,4.0,4.194
52.0,17.0,4.195
62.0,32.0,4.196
56.0,37.0,4.197
44.0,28.0,4.198
21.0,19.0,4.199
18.0,20.0,4.2
28.0,17.0,4.201
37.0,6.0,4.202
51.0,-8.0,4.203
75.0,-13.0,4.204
97.0,-9.0,4.205
92.0,-9.0,4.206
50.0,-24.0,4.207
-11.0,-37.0,4.208
-58.0,-30.0,4.209
-75.0,-11.0,4.21
-70.0,-8.0,4.211
-53.0,-21.0,4.212
-27.0,-22.0,4.213
2.0,-2.0,4.214
18.0,20.0,4.215
13.0,22.0,4.216
3.0,10.0,4.217
5.0,-2.0,4.218
14.0,-7.0,4.219
13.0,-9.0,4.22
5.0,-8.0,4.221
5.0,-1.0,4.222
12.0,4.0,4.223
17.0,7.0,4.224
18.0,13.0,4.225
19.0,21.0,4.226
19.0,22.0,4.227
13.0,14.0,4.228
1.0,9.0,4.229
-1.0,8.0,4.23
4.0,1.0,4.231
6.0,-11.0,4.232
0.0,-19.0,4.233
7.0,-18.0,4.234
49.0,-14.0,4.235
130.0,-10.0,4.236
207.0,-2.0,4.237
201.0,6.0,4.238
77.0,9.0,4.239
-85.0,3.0,4.24
-154.0,-6.0,4.241
-101.0,-8.0,4.242
-34.0,-7.0,4.243
-40.0,-5.0,4.244
-84.0,-2.0,4.245
-91.0,0.0,4.246
-71.0,0.0,4.247
-85.0,-5.0,4.248
-137.0,-6.0,4.249
-177.0,-5.0,4.25
-169.0,-5.0,4.251
-120.0,-8.0,4.252
-52.0,-7.0,4.253
14.0,2.0,4.254
60.0,19.0,4.255
75.0,31.0,4.256
76.0,35.0,4.257
80.0,30.0,4.258
88.0,22.0,4.259
79.0,16.0,4.26
62.0,7.0,4.261
69.0,-3.0,4.262
105.0,-9.0,4.263
127.0,-8.0,4.264
92.0,-3.0,4.265
19.0,-5.0,4.266
-32.0,-19.0,4.267
-35.0,-42.0,4.268
-15.0,-55.0,4.269
2.0,-55.0,4.27
22.0,-50.0,4.271
49.0,-39.0,4.272
52.0,-11.0,4.273
14.0,29.0,4.274
-21.0,53.0,4.275
-13.0,47.0,4.276
11.0,29.0,4.277
-4.0,14.0,4.278
-52.0,9.0,4.279
-75.0,6.0,4.28
-46.0,0.0,4.281
-14.0,2.0,4.282
-7.0,4.0,4.283
-9.0,1.0,4.284
8.0,-3.0,4.285
26.0,1.0,4.286
30.0,4.0,4.287
36.0,-4.0,4.288
66.0,-17.0,4.289
112.0,-18.0,4.29
151.0,-11.0,4.291
189.0,-6.0,4.292
241.0,-3.0,4.293
270.0,9.0,4.294
173.0,20.0,4.295
-93.0,14.0,4.296
-375.0,2.0,4.297
-500.0,-4.0,4.298
-426.0,-4.0,4.299
-304.0,-10.0,4.3
-259.0,-22.0,4.301
-230.0,-20.0,4.302
-132.0,-9.0,4.303
-10.0,-6.0,4.304
66.0,-9.0,4.305
118.0,-3.0,4.306
197.0,10.0,4.307
258.0,15.0,4.308
233.0,14.0,4.309
143.0,18.0,4.31
58.0,29.0,4.311
-8.0,33.0,4.312
-67.0,29.0,4.313
-95.0,27.0,4.314
-58.0,29.0,4.315
20.0,25.0,4.316
85.0,16.0,4.317
110.0,4.0,4.318
105.0,-13.0,4.319
81.0,-43.0,4.32
49.0,-74.0,4.321
28.0,-78.0,4.322
21.0,-56.0,4.323
7.0,-28.0,4.324
-28.0,-14.0,4.325
-69.0,-10.0,4.326
-91.0,-10.0,4.327
-99.0,-8.0,4.328
-107.0,-1.0,4.329
-113.0,10.0,4.33
-96.0,16.0,4.331
-52.0,7.0,4.332
4.0,-4.0,4.333
50.0,1.0,4.334
69.0,12.0,4.335
67.0,15.0,4.336
67.0,9.0,4.337
82.0,7.0,4.338
100.0,18.0,4.339
92.0,26.0,4.34
58.0,23.0,4.341
27.0,18.0,4.342
17.0,10.0,4.343
25.0,5.0,4.344
59.0,9.0,4.345
135.0,12.0,4.346
228.0,12.0,4.347
243.0,11.0,4.348
107.0,15.0,4.349
-109.0,11.0,4.35
-246.0,-15.0,4.351
-232.0,-39.0,4.352
-150.0,-53.0,4.353
-103.0,-62.0,4.354
-87.0,-50.0,4.355
-50.0,-34.0,4.356
0.0,-10.0,4.357
29.0,9.0,4.358
43.0,4.0,4.359
57.0,0.0,4.36
51.0,4.0,4.361
6.0,9.0,4.362
-43.0,8.0,4.363
-63.0,13.0,4.364
-67.0,23.0,4.365
-60.0,26.0,4.366
-6.0,16.0,4.367
98.0,14.0,4.368
181.0,23.0,4.369
186.0,25.0,4.37
143.0,21.0,4.371
90.0,21.0,4.372
15.0,18.0,4.373
-70.0,2.0,4.374
-100.0,-17.0,4.375
-49.0,-16.0,4.376
-5.0,4.0,4.377
-56.0,16.0,4.378
-168.0,8.0,4.379
-234.0,-3.0,4.38
-204.0,-8.0,4.381
-127.0,-11.0,4.382
-57.0,-12.0,4.383
-17.0,-2.0,4.384
-12.0,16.0,4.385
-30.0,24.0,4.386
-42.0,12.0,4.387
-27.0,-1.0,4.388
3.0,-1.0,4.389
42.0,7.0,4.39
117.0,8.0,4.391
219.0,-1.0,4.392
271.0,-13.0,4.393
210.0,-18.0,4.394
91.0,-14.0,4.395
22.0,-8.0,4.396
11.0,-8.0,4.397
-21.0,-11.0,4.398
-93.0,-5.0,4.399
-129.0,5.0,4.4
-83.0,4.0,4.401
-15.0,-10.0,4.402
4.0,-27.0,4.403
3.0,-34.0,4.404
47.0,-29.0,4.405
135.0,-19.0,4.406
205.0,-13.0,4.407
199.0,-14.0,4.408
115.0,-24.0,4.409
18.0,-32.0,4.41
-17.0,-31.0,4.411
7.0,-19.0,4.412
3.0,-3.0,4.413
-81.0,12.0,4.414
-184.0,25.0,4.415
-220.0,28.0,4.416
-201.0,24.0,4.417
-179.0,13.0,4.418
-157.0,1.0,4.419
-105.0,-8.0,4.42
-37.0,-11.0,4.421
24.0,-4.0,4.422
100.0,5.0,4.423
190.0,5.0,4.424
200.0,-3.0,4.425
72.0,-5.0,4.426
-79.0,6.0,4.427
-84.0,27.0,4.428
57.0,42.0,4.429
175.0,47.0,4.43
156.0,42.0,4.431
33.0,27.0,4.432
-85.0,7.0,4.433
-138.0,-15.0,4.434
-122.0,-37.0,4.435
-81.0,-45.0,4.436
-58.0,-35.0,4.437
-37.0,-17.0,4.438
28.0,-4.0,4.439
113.0,0.0,4.44
116.0,1.0,4.441
12.0,8.0,4.442
-59.0,13.0,4.443
12.0,16.0,4.444
141.0,27.0,4.445
164.0,40.0,4.446
70.0,33.0,4.447
-7.0,-7.0,4.448
-18.0,-52.0,4.449
-26.0,-61.0,4.45
-71.0,-28.0,4.451
-89.0,2.0,4.452
-39.0,1.0,4.453
31.0,-20.0,4.454
56.0,-34.0,4.455
22.0,-30.0,4.456
-32.0,-19.0,4.457
-76.0,-6.0,4.458
-75.0,18.0,4.459
-37.0,43.0,4.46
-12.0,52.0,4.461
-13.0,49.0,4.462
-2.0,45.0,4.463
43.0,34.0,4.464
67.0,6.0,4.465
28.0,-39.0,4.466
-21.0,-66.0,4.467
-14.0,-54.0,4.468
27.0,-17.0,4.469
32.0,5.0,4.47
-1.0,0.0,4.471
-26.0,-11.0,4.472
-40.0,-3.0,4.473
-68.0,18.0,4.474
-85.0,26.0,4.475
-49.0,13.0,4.476
9.0,0.0,4.477
37.0,-2.0,4.478
32.0,1.0,4.479
25.0,0.0,4.48
17.0,-5.0,4.481
-10.0,-2.0,4.482
-12.0,13.0,4.483
72.0,31.0,4.484
199.0,39.0,4.485
243.0,26.0,4.486
145.0,-6.0,4.487
-13.0,-34.0,4.488
-104.0,-37.0,4.489
-84.0,-20.0,4.49
-15.0,-12.0,4.491
24.0,-21.0,4.492
13.0,-33.0,4.493
-28.0,-30.0,4.494
-83.0,-16.0,4.495
-133.0,-6.0,4.496
-142.0,-5.0,4.497
-83.0,-13.0,4.498
15.0,-20.0,4.499
80.0,-23.0,4.5
75.0,-12.0,4.501
32.0,18.0,4.502
10.0,49.0,4.503
19.0,62.0,4.504
38.0,55.0,4.505
54.0,43.0,4.506
75.0,31.0,4.507
94.0,19.0,4.508
87.0,5.0,4.509
54.0,-5.0,4.51
45.0,-9.0,4.511
91.0,-11.0,4.512
112.0,-9.0,4.513
-1.0,-8.0,4.514
-243.0,-11.0,4.515
-434.0,-23.0,4.516
-428.0,-36.0,4.517
-271.0,-48.0,4.518
-142.0,-53.0,4.519
-116.0,-51.0,4.52
-85.0,-60.0,4.521
39.0,-90.0,4.522
181.0,-142.0,4.523
244.0,-177.0,4.524
246.0,-147.0,4.525
232.0,-44.0,4.526
160.0,88.0,4.527
23.0,197.0,4.528
-53.0,254.0,4.529
29.0,259.0,4.53
176.0,226.0,4.531
249.0,175.0,4.532
251.0,131.0,4.533
239.0,100.0,4.534
158.0,66.0,4.535
-35.0,21.0,4.536
-226.0,-16.0,4.537
-305.0,-35.0,4.538
-296.0,-39.0,4.539
-286.0,-38.0,4.54
-251.0,-49.0,4.541
-136.0,-73.0,4.542
-30.0,-98.0,4.543
-33.0,-104.0,4.544
-83.0,-79.0,4.545
-53.0,-49.0,4.546
35.0,-40.0,4.547
81.0,-45.0,4.548
108.0,-40.0,4.549
187.0,-26.0,4.55
259.0,-21.0,4.551
192.0,-22.0,4.552
18.0,-13.0,4.553
-85.0,7.0,4.554
-50.0,22.0,4.555
26.0,22.0,4.556
53.0,21.0,4.557
42.0,12.0,4.558
27.0,-9.0,4.559
-14.0,-41.0,4.56
-75.0,-61.0,4.561
-95.0,-52.0,4.562
-44.0,-31.0,4.563
18.0,-22.0,4.564
30.0,-23.0,4.565
10.0,-20.0,4.566
1.0,-12.0,4.567
5.0,-6.0,4.568
-3.0,0.0,4.569
-18.0,8.0,4.57
-18.0,17.0,4.571
0.0,19.0,4.572
20.0,16.0,4.573
41.0,21.0,4.574
82.0,34.0,4.575
161.0,44.0,4.576
233.0,46.0,4.577
213.0,38.0,4.578
86.0,24.0,4.579
-34.0,6.0,4.58
-35.0,-13.0,4.581
21.0,-20.0,4.582
3.0,-13.0,4.583
-73.0,-4.0,4.584
-88.0,-3.0,4.585
-35.0,-11.0,4.586
-21.0,-16.0,4.587
-81.0,-13.0,4.588
-160.0,-3.0,4.589
-246.0,4.0,4.59
-342.0,2.0,4.591
-359.0,-2.0,4.592
-226.0,0.0,4.593
-53.0,4.0,4.594
3.0,7.0,4.595
-26.0,10.0,4.596
-11.0,16.0,4.597
59.0,20.0,4.598
95.0,17.0,4.599
77.0,11.0,4.6
75.0,7.0,4.601
103.0,10.0,4.602
109.0,10.0,4.603
97.0,4.0,4.604
119.0,0.0,4.605
174.0,-3.0,4.606
215.0,-11.0,4.607
223.0,-29.0,4.608
233.0,-40.0,4.609
251.0,-39.0,4.61
225.0,-35.0,4.611
101.0,-41.0,4.612
-78.0,-56.0,4.613
-176.0,-86.0,4.614
-108.0,-150.0,4.615
33.0,-243.0,4.616
74.0,-314.0,4.617
-33.0,-311.0,4.618
-157.0,-213.0,4.619
-181.0,-64.0,4.62
-161.0,61.0,4.621
-208.0,144.0,4.622
-293.0,200.0,4.623
-283.0,248.0,4.624
-150.0,272.0,4.625
-22.0,252.0,4.626
3.0,201.0,4.627
-26.0,164.0,4.628
-15.0,167.0,4.629
38.0,212.0,4.63
71.0,274.0,4.631
68.0,316.0,4.632
85.0,308.0,4.633
166.0,245.0,4.634
281.0,141.0,4.635
354.0,18.0,4.636
313.0,-93.0,4.637
110.0,-179.0,4.638
-165.0,-217.0,4.639
-347.0,-215.0,4.64
-338.0,-199.0,4.641
-211.0,-172.0,4.642
-89.0,-129.0,4.643
-11.0,-84.0,4.644
49.0,-59.0,4.645
82.0,-58.0,4.646
74.0,-55.0,4.647
56.0,-35.0,4.648
68.0,-15.0,4.649
85.0,-14.0,4.65
71.0,-23.0,4.651
39.0,-26.0,4.652
27.0,-26.0,4.653
38.0,-27.0,4.654
43.0,-30.0,4.655
36.0,-35.0,4.656
33.0,-36.0,4.657
32.0,-38.0,4.658
24.0,-33.0,4.659
7.0,-24.0,4.66
-5.0,-33.0,4.661
5.0,-65.0,4.662
50.0,-105.0,4.663
103.0,-130.0,4.664
120.0,-129.0,4.665
88.0,-117.0,4.666
42.0,-104.0,4.667
8.0,-81.0,4.668
-40.0,-40.0,4.669
-110.0,10.0,4.67
-160.0,47.0,4.671
-146.0,65.0,4.672
-95.0,78.0,4.673
-55.0,96.0,4.674
-17.0,116.0,4.675
64.0,128.0,4.676
170.0,138.0,4.677
232.0,142.0,4.678
171.0,130.0,4.679
2.0,101.0,4.68
-150.0,71.0,4.681
-164.0,59.0,4.682
-15.0,52.0,4.683
204.0,37.0,4.684
352.0,17.0,4.685
322.0,-6.0,4.686
102.0,-30.0,4.687
-203.0,-50.0,4.688
-447.0,-62.0,4.689
-552.0,-82.0,4.69
-528.0,-136.0,4.691
-418.0,-206.0,4.692
-250.0,-234.0,4.693
-66.0,-185.0,4.694
86.0,-79.0,4.695
174.0,34.0,4.696
176.0,125.0,4.697
73.0,186.0,4.698
-86.0,205.0,4.699
-175.0,179.0,4.7
-117.0,128.0,4.701
7.0,87.0,4.702
77.0,64.0,4.703
85.0,49.0,4.704
89.0,39.0,4.705
96.0,39.0,4.706
102.0,48.0,4.707
163.0,50.0,4.708
277.0,35.0,4.709
302.0,1.0,4.71
142.0,-41.0,4.711
-48.0,-75.0,4.712
-32.0,-91.0,4.713
163.0,-91.0,4.714
292.0,-82.0,4.715
229.0,-64.0,4.716
107.0,-40.0,4.717
40.0,-18.0,4.718
8.0,-6.0,4.719
-63.0,-5.0,4.72
-164.0,-9.0,4.721
-225.0,-13.0,4.722
-219.0,-21.0,4.723
-159.0,-32.0,4.724
-63.0,-43.0,4.725
31.0,-59.0,4.726
70.0,-75.0,4.727
35.0,-74.0,4.728
-28.0,-53.0,4.729
-67.0,-33.0,4.73
-70.0,-27.0,4.731
-53.0,-26.0,4.732
-29.0,-18.0,4.733
0.0,-6.0,4.734
31.0,-3.0,4.735
62.0,0.0,4.736
91.0,18.0,4.737
97.0,40.0,4.738
65.0,55.0,4.739
10.0,59.0,4.74
-19.0,57.0,4.741
-16.0,49.0,4.742
-15.0,29.0,4.743
-17.0,-1.0,4.744
27.0,-28.0,4.745
143.0,-53.0,4.746
251.0,-69.0,4.747
238.0,-65.0,4.748
95.0,-40.0,4.749
-59.0,-11.0,4.75
-115.0,13.0,4.751
-103.0,34.0,4.752
-127.0,58.0,4.753
-195.0,77.0,4.754
-210.0,82.0,4.755
-150.0,75.0,4.756
-115.0,68.0,4.757
-149.0,60.0,4.758
-164.0,56.0,4.759
-153.0,50.0,4.76
-62.0,37.0,4.761
11.0,23.0,4.762
30.0,13.0,4.763
44.0,4.0,4.764
39.0,-13.0,4.765
46.0,-38.0,4.766
91.0,-47.0,4.767
152.0,-34.0,4.768
260.0,-15.0,4.769
293.0,-11.0,4.77
96.0,-16.0,4.771
-65.0,-15.0,4.772
-118.0,-12.0,4.773
-131.0,-14.0,4.774
-21.0,-14.0,4.775
73.0,-5.0,4.776
122.0,5.0,4.777
152.0,-1.0,4.778
96.0,-13.0,4.779
2.0,-26.0,4.78
-65.0,-40.0,4.781
-62.0,-56.0,4.782
-17.0,-78.0,4.783
4.0,-88.0,4.784
-17.0,-54.0,4.785
-29.0,-24.0,4.786
-3.0,-4.0,4.787
17.0,13.0,4.788
-12.0,25.0,4.789
-56.0,37.0,4.79
-53.0,50.0,4.791
-8.0,61.0,4.792
18.0,62.0,4.793
-13.0,62.0,4.794
-85.0,57.0,4.795
-137.0,48.0,4.796
-121.0,26.0,4.797
-32.0,3.0,4.798
22.0,-10.0,4.799
7.0,-14.0,4.8
-19.0,-19.0,4.801
-5.0,-24.0,4.802
29.0,-26.0,4.803
48.0,-21.0,4.804
70.0,-19.0,4.805
112.0,-21.0,4.806
146.0,-22.0,4.807
152.0,-22.0,4.808
176.0,-30.0,4.809
266.0,-45.0,4.81
371.0,-55.0,4.811
368.0,-51.0,4.812
213.0,-42.0,4.813
-6.0,-38.0,4.814
-185.0,-30.0,4.815
-319.0,-7.0,4.816
-430.0,18.0,4.817
-468.0,28.0,4.818
-334.0,21.0,4.819
-105.0,25.0,4.82
-7.0,40.0,4.821
-89.0,56.0,4.822
-136.0,70.0,4.823
-12.0,83.0,4.824
108.0,94.0,4.825
43.0,90.0,4.826
-85.0,68.0,4.827
-64.0,42.0,4.828
66.0,26.0,4.829
117.0,16.0,4.83
74.0,11.0,4.831
69.0,10.0,4.832
106.0,11.0,4.833
86.0,11.0,4.834
3.0,10.0,4.835
-43.0,8.0,4.836
-32.0,3.0,4.837
-27.0,-15.0,4.838
-42.0,-41.0,4.839
-40.0,-62.0,4.84
-13.0,-71.0,4.841
13.0,-64.0,4.842
55.0,-49.0,4.843
135.0,-40.0,4.844
220.0,-43.0,4.845
245.0,-53.0,4.846
184.0,-57.0,4.847
74.0,-47.0,4.848
-17.0,-27.0,4.849
-43.0,-9.0,4.85
-23.0,2.0,4.851
-24.0,12.0,4.852
-74.0,18.0,4.853
-123.0,13.0,4.854
-123.0,-4.0,4.855
-102.0,-24.0,4.856
-95.0,-31.0,4.857
-88.0,-25.0,4.858
-46.0,-18.0,4.859
23.0,-18.0,4.86
98.0,-16.0,4.861
167.0,0.0,4.862
187.0,24.0,4.863
98.0,38.0,4.864
-45.0,41.0,4.865
-71.0,45.0,4.866
78.0,47.0,4.867
218.0,41.0,4.868
146.0,30.0,4.869
-93.0,28.0,4.87
-291.0,31.0,4.871
-353.0,24.0,4.872
-332.0,0.0,4.873
-275.0,-32.0,4.874
-162.0,-60.0,4.875
-30.0,-70.0,4.876
32.0,-61.0,4.877
2.0,-41.0,4.878
-37.0,-23.0,4.879
-18.0,-11.0,4.88
39.0,2.0,4.881
82.0,25.0,4.882
105.0,38.0,4.883
116.0,33.0,4.884
127.0,24.0,4.885
160.0,25.0,4.886
212.0,31.0,4.887
216.0,31.0,4.888
131.0,30.0,4.889
29.0,36.0,4.89
12.0,41.0,4.891
56.0,35.0,4.892
64.0,22.0,4.893
28.0,12.0,4.894
13.0,1.0,4.895
17.0,-21.0,4.896
-12.0,-45.0,4.897
-64.0,-61.0,4.898
-61.0,-61.0,4.899
-9.0,-55.0,4.9
3.0,-49.0,4.901
-38.0,-30.0,4.902
-39.0,0.0,4.903
32.0,27.0,4.904
81.0,35.0,4.905
38.0,29.0,4.906
-35.0,22.0,4.907
-28.0,16.0,4.908
78.0,5.0,4.909
196.0,-7.0,4.91
216.0,-10.0,4.911
128.0,-6.0,4.912
38.0,-2.0,4.913
32.0,-2.0,4.914
38.0,0.0,4.915
-90.0,4.0,4.916
-305.0,11.0,4.917
-450.0,17.0,4.918
-424.0,23.0,4.919
-336.0,18.0,4.92
-292.0,-1.0,4.921
-236.0,-20.0,4.922
-90.0,-27.0,4.923
64.0,-16.0,4.924
115.0,2.0,4.925
83.0,17.0,4.926
62.0,19.0,4.927
72.0,12.0,4.928
76.0,3.0,4.929
56.0,-5.0,4.93
19.0,-19.0,4.931
-22.0,-30.0,4.932
-19.0,-30.0,4.933
75.0,-17.0,4.934
198.0,-5.0,4.935
216.0,0.0,4.936
130.0,4.0,4.937
66.0,5.0,4.938
113.0,2.0,4.939
166.0,-9.0,4.94
112.0,-29.0,4.941
-6.0,-47.0,4.942
-74.0,-61.0,4.943
-68.0,-63.0,4.944
-41.0,-47.0,4.945
-11.0,-22.0,4.946
17.0,-2.0,4.947
23.0,9.0,4.948
2.0,19.0,4.949
-18.0,35.0,4.95
-17.0,50.0,4.951
-5.0,58.0,4.952
38.0,57.0,4.953
176.0,47.0,4.954
402.0,33.0,4.955
549.0,25.0,4.956
444.0,28.0,4.957
66.0,30.0,4.958
-327.0,20.0,4.959
-481.0,0.0,4.96
-416.0,-10.0,4.961
-341.0,1.0,4.962
-309.0,19.0,4.963
-204.0,21.0,4.964
-9.0,2.0,4.965
114.0,-24.0,4.966
103.0,-39.0,4.967
82.0,-34.0,4.968
115.0,-20.0,4.969
92.0,-12.0,4.97
-40.0,-13.0,4.971
-152.0,-15.0,4.972
-147.0,-16.0,4.973
-106.0,-18.0,4.974
-112.0,-24.0,4.975
-112.0,-28.0,4.976
-51.0,-25.0,4.977
26.0,-18.0,4.978
56.0,-11.0,4.979
51.0,-2.0,4.98
53.0,5.0,4.981
55.0,14.0,4.982
49.0,23.0,4.983
53.0,30.0,4.984
70.0,40.0,4.985
71.0,51.0,4.986
63.0,58.0,4.987
90.0,52.0,4.988
147.0,35.0,4.989
177.0,18.0,4.99
151.0,7.0,4.991
107.0,-2.0,4.992
91.0,-18.0,4.993
103.0,-42.0,4.994
86.0,-61.0,4.995
-16.0,-74.0,4.996
-178.0,-76.0,4.997
-326.0,-69.0,4.998
-350.0,-50.0,4.999
-257.0,-31.0,5.0
-143.0,-29.0,5.001
-59.0,-31.0,5.002
32.0,-25.0,5.003
154.0,-6.0,5.004
228.0,18.0,5.005
168.0,43.0,5.006
2.0,69.0,5.007
-129.0,92.0,5.008
-123.0,103.0,5.009
-4.0,102.0,5.01
115.0,92.0,5.011
135.0,75.0,5.012
44.0,50.0,5.013
-85.0,24.0,5.014
-149.0,-4.0,5.015
-78.0,-33.0,5.016
83.0,-55.0,5.017
224.0,-62.0,5.018
229.0,-48.0,5.019
104.0,-35.0,5.02
-25.0,-45.0,5.021
-68.0,-64.0,5.022
-38.0,-73.0,5.023
1.0,-73.0,5.024
17.0,-76.0,5.025
8.0,-70.0,5.026
-29.0,-48.0,5.027
-92.0,-22.0,5.028
-144.0,-9.0,5.029
-138.0,-9.0,5.03
-71.0,-5.0,5.031
4.0,6.0,5.032
27.0,14.0,5.033
2.0,19.0,5.034
-24.0,26.0,5.035
-19.0,34.0,5.036
0.0,38.0,5.037
9.0,39.0,5.038
14.0,44.0,5.039
29.0,50.0,5.04
50.0,53.0,5.041
69.0,59.0,5.042
83.0,61.0,5.043
80.0,55.0,5.044
49.0,40.0,5.045
8.0,18.0,5.046
-7.0,-5.0,5.047
-2.0,-25.0,5.048
-13.0,-34.0,5.049
-32.0,-32.0,5.05
-13.0,-26.0,5.051
38.0,-26.0,5.052
64.0,-21.0,5.053
71.0,-11.0,5.054
142.0,-1.0,5.055
294.0,-5.0,5.056
397.0,-13.0,5.057
327.0,-21.0,5.058
117.0,-22.0,5.059
-91.0,-25.0,5.06
-224.0,-38.0,5.061
-348.0,-54.0,5.062
-478.0,-62.0,5.063
-501.0,-56.0,5.064
-338.0,-39.0,5.065
-114.0,-22.0,5.066
-4.0,-17.0,5.067
-19.0,-14.0,5.068
-30.0,-4.0,5.069
24.0,13.0,5.07
84.0,29.0,5.071
92.0,45.0,5.072
67.0,64.0,5.073
54.0,78.0,5.074
86.0,78.0,5.075
136.0,72.0,5.076
123.0,74.0,5.077
10.0,80.0,5.078
-76.0,76.0,5.079
2.0,54.0,5.08
155.0,16.0,5.081
169.0,-21.0,5.082
23.0,-49.0,5.083
-96.0,-67.0,5.084
-96.0,-74.0,5.085
-65.0,-74.0,5.086
-58.0,-68.0,5.087
-17.0,-61.0,5.088
59.0,-51.0,5.089
74.0,-33.0,5.09
2.0,-9.0,5.091
-68.0,13.0,5.092
-71.0,24.0,5.093
-38.0,31.0,5.094
3.0,42.0,5.095
60.0,51.0,5.096
109.0,46.0,5.097
113.0,28.0,5.098
86.0,17.0,5.099
77.0,17.0,5.1
100.0,10.0,5.101
126.0,-5.0,5.102
124.0,-17.0,5.103
89.0,-17.0,5.104
20.0,-10.0,5.105
-69.0,-2.0,5.106
-150.0,8.0,5.107
-197.0,13.0,5.108
-184.0,2.0,5.109
-91.0,-25.0,5.11
56.0,-49.0,5.111
180.0,-56.0,5.112
206.0,-54.0,5.113
115.0,-48.0,5.114
-45.0,-32.0,5.115
-191.0,-14.0,5.116
-236.0,-6.0,5.117
-178.0,-17.0,5.118
-99.0,-22.0,5.119
-31.0,-6.0,5.12
6.0,10.0,5.121
47.0,13.0,5.122
101.0,10.0,5.123
129.0,17.0,5.124
77.0,30.0,5.125
53.0,34.0,5.126
115.0,32.0,5.127
153.0,30.0,5.128
114.0,27.0,5.129
77.0,15.0,5.13
43.0,-3.0,5.131
-2.0,-17.0,5.132
-84.0,-23.0,5.133
-167.0,-20.0,5.134
-248.0,-14.0,5.135
-285.0,-12.0,5.136
-189.0,-16.0,5.137
-97.0,-23.0,5.138
-43.0,-26.0,5.139
11.0,-26.0,5.14
53.0,-16.0,5.141
30.0,-2.0,5.142
-32.0,19.0,5.143
-53.0,37.0,5.144
-13.0,39.0,5.145
33.0,42.0,5.146
62.0,42.0,5.147
95.0,41.0,5.148
132.0,32.0,5.149
140.0,24.0,5.15
94.0,20.0,5.151
-9.0,13.0,5.152
-134.0,1.0,5.153
-169.0,-10.0,5.154
-16.0,-14.0,5.155
271.0,-18.0,5.156
481.0,-20.0,5.157
470.0,-24.0,5.158
250.0,-27.0,5.159
-41.0,-25.0,5.16
-267.0,-15.0,5.161
-344.0,3.0,5.162
-265.0,19.0,5.163
-124.0,28.0,5.164
-43.0,36.0,5.165
-37.0,43.0,5.166
-18.0,40.0,5.167
43.0,23.0,5.168
72.0,3.0,5.169
27.0,-10.0,5.17
-22.0,-23.0,5.171
-26.0,-32.0,5.172
-10.0,-26.0,5.173
25.0,-8.0,5.174
122.0,2.0,5.175
222.0,-7.0,5.176
193.0,-15.0,5.177
17.0,-14.0,5.178
-126.0,-18.0,5.179
-141.0,-40.0,5.18
-138.0,-59.0,5.181
-197.0,-49.0,5.182
-203.0,-31.0,5.183
-80.0,-36.0,5.184
54.0,-43.0,5.185
90.0,-21.0,5.186
114.0,13.0,5.187
205.0,21.0,5.188
256.0,9.0,5.189
135.0,18.0,5.19
-78.0,51.0,5.191
-218.0,67.0,5.192
-235.0,53.0,5.193
-184.0,34.0,5.194
-111.0,27.0,5.195
-33.0,21.0,5.196
34.0,7.0,5.197
92.0,-12.0,5.198
130.0,-28.0,5.199
126.0,-41.0,5.2
107.0,-46.0,5.201
133.0,-50.0,5.202
192.0,-47.0,5.203
167.0,-41.0,5.204
-25.0,-27.0,5.205
-294.0,-14.0,5.206
-459.0,-2.0,5.207
-413.0,8.0,5.208
-187.0,14.0,5.209
96.0,24.0,5.21
271.0,41.0,5.211
235.0,51.0,5.212
64.0,39.0,5.213
-42.0,29.0,5.214
8.0,26.0,5.215
110.0,23.0,5.216
148.0,20.0,5.217
150.0,18.0,5.218
169.0,25.0,5.219
138.0,37.0,5.22
-11.0,45.0,5.221
-160.0,43.0,5.222
-145.0,33.0,5.223
-13.0,29.0,5.224
48.0,35.0,5.225
7.0,33.0,5.226
-20.0,7.0,5.227
-20.0,-27.0,5.228
-80.0,-52.0,5.229
-159.0,-75.0,5.23
-122.0,-100.0,5.231
9.0,-113.0,5.232
69.0,-90.0,5.233
23.0,-40.0,5.234
3.0,-4.0,5.235
56.0,2.0,5.236
86.0,0.0,5.237
46.0,3.0,5.238
15.0,10.0,5.239
35.0,10.0,5.24
45.0,5.0,5.241
14.0,8.0,5.242
-3.0,13.0,5.243
21.0,17.0,5.244
35.0,23.0,5.245
14.0,30.0,5.246
4.0,32.0,5.247
40.0,25.0,5.248
93.0,13.0,5.249
119.0,6.0,5.25
92.0,-9.0,5.251
7.0,-35.0,5.252
-98.0,-54.0,5.253
-143.0,-45.0,5.254
-83.0,-14.0,5.255
22.0,5.0,5.256
72.0,1.0,5.257
44.0,-9.0,5.258
-6.0,-8.0,5.259
-36.0,-1.0,5.26
-67.0,-3.0,5.261
-140.0,-7.0,5.262
-234.0,-2.0,5.263
-259.0,5.0,5.264
-147.0,5.0,5.265
33.0,0.0,5.266
127.0,-3.0,5.267
81.0,-4.0,5.268
16.0,-8.0,5.269
33.0,-8.0,5.27
69.0,3.0,5.271
42.0,14.0,5.272
30.0,16.0,5.273
168.0,11.0,5.274
395.0,13.0,5.275
494.0,21.0,5.276
355.0,27.0,5.277
44.0,31.0,5.278
-249.0,35.0,5.279
-406.0,41.0,5.28
-432.0,39.0,5.281
-397.0,31.0,5.282
-342.0,17.0,5.283
-250.0,-1.0,5.284
-109.0,-22.0,5.285
49.0,-38.0,5.286
191.0,-41.0,5.287
311.0,-34.0,5.288
375.0,-23.0,5.289
303.0,-16.0,5.29
71.0,-17.0,5.291
-185.0,-19.0,5.292
-287.0,-15.0,5.293
-191.0,-8.0,5.294
-18.0,-3.0,5.295
98.0,1.0,5.296
117.0,8.0,5.297
58.0,11.0,5.298
-30.0,4.0,5.299
-87.0,-5.0,5.3
-74.0,-9.0,5.301
-2.0,2.0,5.302
85.0,16.0,5.303
142.0,21.0,5.304
135.0,17.0,5.305
65.0,8.0,5.306
-1.0,-2.0,5.307
9.0,-16.0,5.308
83.0,-27.0,5.309
135.0,-29.0,5.31
125.0,-12.0,5.311
84.0,13.0,5.312
34.0,36.0,5.313
-26.0,44.0,5.314
-38.0,41.0,5.315
62.0,32.0,5.316
209.0,15.0,5.317
256.0,-17.0,5.318
123.0,-49.0,5.319
-98.0,-65.0,5.32
-257.0,-72.0,5.321
-294.0,-74.0,5.322
-257.0,-70.0,5.323
-218.0,-52.0,5.324
-213.0,-32.0,5.325
-192.0,-22.0,5.326
-102.0,-15.0,5.327
10.0,0.0,5.328
42.0,13.0,5.329
-5.0,14.0,5.33
-19.0,16.0,5.331
37.0,29.0,5.332
82.0,40.0,5.333
71.0,42.0,5.334
64.0,42.0,5.335
89.0,51.0,5.336
98.0,60.0,5.337
69.0,56.0,5.338
63.0,48.0,5.339
96.0,42.0,5.34
95.0,26.0,5.341
22.0,0.0,5.342
-46.0,-20.0,5.343
-39.0,-18.0,5.344
17.0,-11.0,5.345
56.0,-14.0,5.346
55.0,-22.0,5.347
24.0,-19.0,5.348
-30.0,-8.0,5.349
-84.0,-4.0,5.35
-93.0,-9.0,5.351
-55.0,-15.0,5.352
-11.0,-15.0,5.353
15.0,-12.0,5.354
34.0,-9.0,5.355
54.0,-7.0,5.356
52.0,-6.0,5.357
19.0,-8.0,5.358
-10.0,-5.0,5.359
-5.0,-1.0,5.36
33.0,-2.0,5.361
83.0,0.0,5.362
107.0,7.0,5.363
58.0,14.0,5.364
-64.0,13.0,5.365
-156.0,4.0,5.366
-117.0,-5.0,5.367
-2.0,-15.0,5.368
36.0,-22.0,5.369
-43.0,-24.0,5.37
-122.0,-24.0,5.371
-108.0,-27.0,5.372
-35.0,-30.0,5.373
34.0,-21.0,5.374
102.0,1.0,5.375
164.0,28.0,5.376
168.0,47.0,5.377
84.0,57.0,5.378
-19.0,61.0,5.379
-54.0,58.0,5.38
-17.0,47.0,5.381
29.0,34.0,5.382
49.0,21.0,5.383
43.0,9.0,5.384
-2.0,2.0,5.385
-87.0,1.0,5.386
-164.0,-3.0,5.387
-168.0,-16.0,5.388
-93.0,-33.0,5.389
6.0,-41.0,5.39
74.0,-34.0,5.391
88.0,-24.0,5.392
60.0,-23.0,5.393
28.0,-28.0,5.394
29.0,-33.0,5.395
41.0,-35.0,5.396
26.0,-33.0,5.397
-3.0,-30.0,5.398
0.0,-16.0,5.399
2.0,-1.0,5.4
0.0,3.0,5.401
-2.0,3.0,5.402
-8.0,10.0,5.403
-14.0,22.0,5.404
-14.0,24.0,5.405
-14.0,16.0,5.406
-9.0,12.0,5.407
-1.0,10.0,5.408
12.0,0.0,5.409
23.0,-15.0,5.41
22.0,-21.0,5.411
20.0,-11.0,5.412
18.0,-3.0,5.413
16.0,-4.0,5.414
14.0,-7.0,5.415
12.0,-4.0,5.416
16.0,-1.0,5.417
14.0,-4.0,5.418
-2.0,-7.0,5.419
-21.0,-7.0,5.42
-45.0,-9.0,5.421
-65.0,-10.0,5.422
-60.0,-8.0,5.423
-28.0,-1.0,5.424
3.0,6.0,5.425
22.0,10.0,5.426
42.0,11.0,5.427
82.0,9.0,5.428
154.0,7.0,5.429
253.0,1.0,5.43
317.0,-4.0,5.431
259.0,-6.0,5.432
68.0,-8.0,5.433
-155.0,-9.0,5.434
-316.0,-12.0,5.435
-397.0,-14.0,5.436
-398.0,-11.0,5.437
-272.0,-5.0,5.438
-115.0,4.0,5.439
-52.0,15.0,5.44
-82.0,27.0,5.441
-83.0,40.0,5.442
-2.0,46.0,5.443
61.0,37.0,5.444
45.0,15.0,5.445
35.0,-1.0,5.446
90.0,-6.0,5.447
140.0,-5.0,5.448
132.0,-4.0,5.449
130.0,-1.0,5.45
205.0,7.0,5.451
320.0,17.0,5.452
367.0,27.0,5.453
261.0,38.0,5.454
3.0,47.0,5.455
-270.0,39.0,5.456
-351.0,16.0,5.457
-214.0,-15.0,5.458
-78.0,-31.0,5.459
-11.0,-25.0,5.46
-153.0,-17.0,5.461
-232.0,-18.0,5.462
-121.0,-25.0,5.463
-25.0,-25.0,5.464
24.0,-17.0,5.465
69.0,-11.0,5.466
97.0,-12.0,5.467
105.0,-12.0,5.468
55.0,-7.0,5.469
27.0,2.0,5.47
64.0,10.0,5.471
108.0,19.0,5.472
172.0,30.0,5.473
201.0,39.0,5.474
125.0,41.0,5.475
54.0,31.0,5.476
3.0,9.0,5.477
-26.0,-26.0,5.478
0.0,-58.0,5.479
-28.0,-65.0,5.48
-115.0,-46.0,5.481
-186.0,-16.0,5.482
-183.0,0.0,5.483
-151.0,-2.0,5.484
-165.0,-8.0,5.485
-206.0,-12.0,5.486
-173.0,-16.0,5.487
-46.0,-14.0,5.488
56.0,-7.0,5.489
62.0,-1.0,5.49
57.0,2.0,5.491
133.0,7.0,5.492
206.0,15.0,5.493
135.0,23.0,5.494
-43.0,28.0,5.495
-157.0,29.0,5.496
-138.0,30.0,5.497
-50.0,20.0,5.498
32.0,2.0,5.499
94.0,-16.0,5.5
133.0,-30.0,5.501
118.0,-40.0,5.502
61.0,-46.0,5.503
19.0,-42.0,5.504
15.0,-21.0,5.505
10.0,-1.0,5.506
-9.0,2.0,5.507
-2.0,-8.0,5.508
46.0,-15.0,5.509
89.0,-9.0,5.51
79.0,3.0,5.511
68.0,10.0,5.512
143.0,8.0,5.513
254.0,4.0,5.514
215.0,2.0,5.515
-56.0,2.0,5.516
-348.0,4.0,5.517
-418.0,7.0,5.518
-233.0,10.0,5.519
-34.0,11.0,5.52
10.0,4.0,5.521
-12.0,2.0,5.522
20.0,6.0,5.523
69.0,12.0,5.524
52.0,18.0,5.525
20.0,22.0,5.526
42.0,26.0,5.527
69.0,32.0,5.528
35.0,35.0,5.529
-23.0,34.0,5.53
-35.0,28.0,5.531
-14.0,12.0,5.532
-1.0,-16.0,5.533
15.0,-50.0,5.534
46.0,-68.0,5.535
54.0,-59.0,5.536
16.0,-38.0,5.537
-31.0,-34.0,5.538
-30.0,-48.0,5.539
-21.0,-48.0,5.54
9.0,-20.0,5.541
36.0,15.0,5.542
51.0,21.0,5.543
55.0,2.0,5.544
24.0,-4.0,5.545
-4.0,11.0,5.546
-23.0,23.0,5.547
-21.0,16.0,5.548
48.0,11.0,5.549
105.0,20.0,5.55
122.0,25.0,5.551
99.0,18.0,5.552
-42.0,13.0,5.553
-154.0,18.0,5.554
-171.0,23.0,5.555
-167.0,16.0,5.556
-95.0,7.0,5.557
-36.0,0.0,5.558
-21.0,-7.0,5.559
14.0,-21.0,5.56
52.0,-35.0,5.561
48.0,-39.0,5.562
34.0,-35.0,5.563
53.0,-31.0,5.564
76.0,-23.0,5.565
70.0,-9.0,5.566
72.0,5.0,5.567
92.0,11.0,5.568
44.0,20.0,5.569
-121.0,38.0,5.57
-287.0,54.0,5.571
-311.0,54.0,5.572
-199.0,40.0,5.573
-72.0,25.0,5.574
-9.0,13.0,5.575
-8.0,5.0,5.576
-22.0,-1.0,5.577
6.0,-9.0,5.578
89.0,-15.0,5.579
171.0,-19.0,5.58
198.0,-23.0,5.581
188.0,-21.0,5.582
212.0,-16.0,5.583
304.0,-10.0,5.584
402.0,-5.0,5.585
375.0,1.0,5.586
140.0,5.0,5.587
-198.0,8.0,5.588
-406.0,11.0,5.589
-364.0,13.0,5.59
-204.0,7.0,5.591
-107.0,-9.0,5.592
-87.0,-24.0,5.593
-68.0,-28.0,5.594
-23.0,-26.0,5.595
20.0,-33.0,5.596
44.0,-44.0,5.597
26.0,-46.0,5.598
-42.0,-31.0,5.599
-104.0,-17.0,5.6
-99.0,-19.0,5.601
-82.0,-21.0,5.602
-119.0,-7.0,5.603
-129.0,15.0,5.604
3.0,30.0,5.605
170.0,34.0,5.606
164.0,37.0,5.607
13.0,42.0,5.608
-54.0,43.0,5.609
37.0,32.0,5.61
117.0,1.0,5.611
78.0,-42.0,5.612
9.0,-78.0,5.613
3.0,-82.0,5.614
30.0,-56.0,5.615
49.0,-28.0,5.616
74.0,-20.0,5.617
98.0,-21.0,5.618
88.0,-10.0,5.619
70.0,11.0,5.62
26.0,18.0,5.621
-9.0,17.0,5.622
-19.0,21.0,5.623
0.0,29.0,5.624
106.0,27.0,5.625
163.0,13.0,5.626
67.0,5.0,5.627
-9.0,13.0,5.628
-27.0,27.0,5.629
-40.0,24.0,5.63
-33.0,9.0,5.631
-29.0,0.0,5.632
-33.0,7.0,5.633
-28.0,19.0,5.634
6.0,20.0,5.635
89.0,13.0,5.636
313.0,15.0,5.637
475.0,-8.0,5.638
196.0,-2.0,5.639
-381.0,2.0,5.64
-711.0,-4.0,5.641
-551.0,-11.0,5.642
-238.0,-22.0,5.643
-123.0,-33.0,5.644
-133.0,-42.0,5.645
-74.0,-46.0,5.646
9.0,-35.0,5.647
26.0,-26.0,5.648
43.0,-21.0,5.649
112.0,-15.0,5.65
126.0,-11.0,5.651
47.0,-5.0,5.652
-1.0,-3.0,5.653
45.0,-1.0,5.654
83.0,2.0,5.655
66.0,5.0,5.656
75.0,5.0,5.657
136.0,-2.0,5.658
161.0,11.0,5.659
111.0,18.0,5.66
72.0,7.0,5.661
71.0,-8.0,5.662
52.0,-32.0,5.663
7.0,-54.0,5.664
-7.0,-72.0,5.665
5.0,-81.0,5.666
-4.0,-59.0,5.667
-8.0,-40.0,5.668
49.0,-30.0,5.669
117.0,-19.0,5.67
98.0,-7.0,5.671
31.0,4.0,5.672
35.0,8.0,5.673
105.0,13.0,5.674
89.0,19.0,5.675
-77.0,24.0,5.676
-248.0,24.0,5.677
-297.0,24.0,5.678
-233.0,20.0,5.679
-164.0,24.0,5.68
-125.0,26.0,5.681
-75.0,25.0,5.682
-26.0,20.0,5.683
-22.0,15.0,5.684
-41.0,13.0,5.685
-21.0,13.0,5.686
31.0,16.0,5.687
53.0,20.0,5.688
35.0,23.0,5.689
33.0,26.0,5.69
64.0,28.0,5.691
89.0,31.0,5.692
89.0,31.0,5.693
86.0,26.0,5.694
89.0,15.0,5.695
99.0,2.0,5.696
115.0,-6.0,5.697
118.0,-13.0,5.698
89.0,-22.0,5.699
67.0,-32.0,5.7
104.0,-42.0,5.701
152.0,-44.0,5.702
101.0,-46.0,5.703
-57.0,-46.0,5.704
-191.0,-30.0,5.705
-207.0,-6.0,5.706
-158.0,6.0,5.707
-131.0,-3.0,5.708
-134.0,-10.0,5.709
-137.0,0.0,5.71
-125.0,16.0,5.711
-84.0,14.0,5.712
-15.0,4.0,5.713
40.0,2.0,5.714
44.0,10.0,5.715
23.0,17.0,5.716
21.0,27.0,5.717
20.0,38.0,5.718
3.0,46.0,5.719
0.0,44.0,5.72
40.0,35.0,5.721
79.0,32.0,5.722
75.0,25.0,5.723
57.0,8.0,5.724
53.0,-13.0,5.725
52.0,-29.0,5.726
53.0,-40.0,5.727
83.0,-51.0,5.728
110.0,-54.0,5.729
70.0,-47.0,5.73
-3.0,-35.0,5.731
-17.0,-24.0,5.732
19.0,-17.0,5.733
3.0,-10.0,5.734
-81.0,-9.0,5.735
-131.0,-7.0,5.736
-106.0,0.0,5.737
-66.0,6.0,5.738
-46.0,8.0,5.739
1.0,7.0,5.74
88.0,10.0,5.741
148.0,20.0,5.742
136.0,25.0,5.743
77.0,21.0,5.744
6.0,16.0,5.745
-51.0,13.0,5.746
-65.0,8.0,5.747
-34.0,2.0,5.748
-22.0,4.0,5.749
-62.0,10.0,5.75
-95.0,5.0,5.751
-69.0,-9.0,5.752
-23.0,-18.0,5.753
-9.0,-17.0,5.754
-12.0,-15.0,5.755
-3.0,-17.0,5.756
9.0,-14.0,5.757
18.0,-6.0,5.758
52.0,-1.0,5.759
113.0,-3.0,5.76
152.0,-8.0,5.761
149.0,-6.0,5.762
148.0,0.0,5.763
171.0,1.0,5.764
155.0,7.0,5.765
25.0,14.0,5.766
-181.0,17.0,5.767
-328.0,11.0,5.768
-315.0,7.0,5.769
-197.0,10.0,5.77
-125.0,15.0,5.771
-155.0,14.0,5.772
-172.0,5.0,5.773
-74.0,-5.0,5.774
48.0,-11.0,5.775
54.0,-9.0,5.776
-6.0,-1.0,5.777
9.0,4.0,5.778
101.0,1.0,5.779
161.0,-3.0,5.78
122.0,-4.0,5.781
82.0,2.0,5.782
42.0,8.0,5.783
11.0,10.0,5.784
9.0,11.0,5.785
30.0,-1.0,5.786
120.0,-28.0,5.787
164.0,-54.0,5.788
66.0,-62.0,5.789
3.0,-53.0,5.79
43.0,-39.0,5.791
65.0,-12.0,5.792
32.0,26.0,5.793
-1.0,54.0,5.794
-36.0,55.0,5.795
-63.0,43.0,5.796
-65.0,36.0,5.797
-73.0,31.0,5.798
-70.0,22.0,5.799
7.0,14.0,5.8
100.0,13.0,5.801
90.0,17.0,5.802
-25.0,19.0,5.803
-119.0,21.0,5.804
-110.0,23.0,5.805
-81.0,12.0,5.806
-129.0,-10.0,5.807
-207.0,-31.0,5.808
-200.0,-35.0,5.809
-94.0,-26.0,5.81
27.0,-18.0,5.811
115.0,-13.0,5.812
175.0,-10.0,5.813
191.0,-9.0,5.814
133.0,-12.0,5.815
32.0,-20.0,5.816
-25.0,-21.0,5.817
2.0,-20.0,5.818
51.0,-11.0,5.819
58.0,-2.0,5.82
30.0,4.0,5.821
11.0,10.0,5.822
16.0,17.0,5.823
40.0,23.0,5.824
97.0,23.0,5.825
190.0,15.0,5.826
245.0,5.0,5.827
150.0,-2.0,5.828
-61.0,-7.0,5.829
-219.0,-17.0,5.83
-224.0,-32.0,5.831
-170.0,-45.0,5.832
-156.0,-49.0,5.833
-129.0,-45.0,5.834
-22.0,-37.0,5.835
79.0,-25.0,5.836
76.0,-9.0,5.837
0.0,4.0,5.838
-37.0,12.0,5.839
-37.0,14.0,5.84
-65.0,15.0,5.841
-108.0,20.0,5.842
-97.0,24.0,5.843
-30.0,22.0,5.844
45.0,20.0,5.845
103.0,24.0,5.846
120.0,27.0,5.847
81.0,22.0,5.848
37.0,17.0,5.849
60.0,17.0,5.85
112.0,17.0,5.851
90.0,13.0,5.852
12.0,7.0,5.853
-10.0,2.0,5.854
32.0,0.0,5.855
38.0,-1.0,5.856
-6.0,-2.0,5.857
-24.0,0.0,5.858
7.0,7.0,5.859
28.0,16.0,5.86
27.0,11.0,5.861
60.0,-5.0,5.862
115.0,-25.0,5.863
112.0,-36.0,5.864
49.0,-36.0,5.865
3.0,-36.0,5.866
-4.0,-38.0,5.867
-28.0,-27.0,5.868
-84.0,-6.0,5.869
-132.0,9.0,5.87
-155.0,8.0,5.871
-163.0,3.0,5.872
-150.0,5.0,5.873
-113.0,8.0,5.874
-89.0,8.0,5.875
-86.0,8.0,5.876
-66.0,13.0,5.877
-17.0,16.0,5.878
16.0,14.0,5.879
7.0,9.0,5.88
5.0,7.0,5.881
40.0,12.0,5.882
66.0,12.0,5.883
50.0,9.0,5.884
27.0,6.0,5.885
36.0,5.0,5.886
68.0,11.0,5.887
94.0,20.0,5.888
101.0,22.0,5.889
87.0,13.0,5.89
79.0,-5.0,5.891
108.0,-21.0,5.892
140.0,-35.0,5.893
81.0,-50.0,5.894
-65.0,-60.0,5.895
-159.0,-48.0,5.896
-128.0,-19.0,5.897
-68.0,1.0,5.898
-65.0,3.0,5.899
-52.0,0.0,5.9
44.0,3.0,5.901
127.0,8.0,5.902
92.0,4.0,5.903
23.0,-2.0,5.904
28.0,4.0,5.905
37.0,15.0,5.906
-52.0,19.0,5.907
-153.0,18.0,5.908
-131.0,21.0,5.909
-37.0,22.0,5.91
-5.0,12.0,5.911
-27.0,-4.0,5.912
-11.0,-14.0,5.913
30.0,-13.0,5.914
28.0,-5.0,5.915
8.0,2.0,5.916
32.0,9.0,5.917
84.0,8.0,5.918
96.0,0.0,5.919
64.0,-12.0,5.92
32.0,-23.0,5.921
17.0,-22.0,5.922
12.0,-15.0,5.923
42.0,-11.0,5.924
92.0,-10.0,5.925
105.0,-6.0,5.926
74.0,1.0,5.927
64.0,-1.0,5.928
78.0,-15.0,5.929
19.0,-24.0,5.93
-149.0,-13.0,5.931
-309.0,7.0,5.932
-323.0,16.0,5.933
-207.0,12.0,5.934
-82.0,7.0,5.935
-23.0,8.0,5.936
-14.0,8.0,5.937
-18.0,3.0,5.938
-12.0,-3.0,5.939
12.0,-3.0,5.94
43.0,0.0,5.941
63.0,4.0,5.942
69.0,9.0,5.943
68.0,16.0,5.944
52.0,27.0,5.945
37.0,35.0,5.946
76.0,37.0,5.947
188.0,28.0,5.948
271.0,10.0,5.949
205.0,-13.0,5.95
34.0,-35.0,5.951
-86.0,-44.0,5.952
-101.0,-35.0,5.953
-111.0,-23.0,5.954
-160.0,-18.0,5.955
-146.0,-19.0,5.956
-29.0,-12.0,5.957
76.0,-1.0,5.958
79.0,6.0,5.959
80.0,3.0,5.96
74.0,-2.0,5.961
43.0,-3.0,5.962
-61.0,-4.0,5.963
-144.0,-1.0,5.964
-161.0,6.0,5.965
-148.0,16.0,5.966
-39.0,21.0,5.967
37.0,24.0,5.968
15.0,28.0,5.969
-19.0,28.0,5.97
-92.0,18.0,5.971
-128.0,3.0,5.972
-53.0,-11.0,5.973
10.0,-25.0,5.974
37.0,-32.0,5.975
71.0,-26.0,5.976
123.0,-12.0,5.977
170.0,-5.0,5.978
176.0,-5.0,5.979
167.0,-4.0,5.98
206.0,5.0,5.981
263.0,10.0,5.982
238.0,4.0,5.983
93.0,-1.0,5.984
-104.0,-4.0,5.985
-250.0,-8.0,5.986
-287.0,-13.0,5.987
-229.0,-18.0,5.988
-136.0,-25.0,5.989
-73.0,-26.0,5.99
-60.0,-6.0,5.991
-57.0,10.0,5.992
-15.0,10.0,5.993
55.0,9.0,5.994
74.0,8.0,5.995
0.0,5.0,5.996
-87.0,-1.0,5.997
-92.0,-8.0,5.998
-15.0,-12.0,5.999
60.0,-8.0,6.0
136.0,0.0,6.001
242.0,20.0,6.002
309.0,40.0,6.003
220.0,46.0,6.004
1.0,39.0,6.005
-168.0,30.0,6.006
-200.0,15.0,6.007
-173.0,-15.0,6.008
-160.0,-53.0,6.009
-117.0,-67.0,6.01
-22.0,-44.0,6.011
32.0,-14.0,6.012
-2.0,-1.0,6.013
-22.0,-4.0,6.014
39.0,0.0,6.015
112.0,10.0,6.016
127.0,14.0,6.017
136.0,6.0,6.018
174.0,-2.0,6.019
145.0,-1.0,6.02
-6.0,0.0,6.021
-152.0,3.0,6.022
-166.0,8.0,6.023
-105.0,12.0,6.024
-59.0,13.0,6.025
12.0,14.0,6.026
141.0,18.0,6.027
199.0,20.0,6.028
95.0,14.0,6.029
-52.0,4.0,6.03
-90.0,1.0,6.031
-61.0,5.0,6.032
-66.0,2.0,6.033
-72.0,-12.0,6.034
-3.0,-27.0,6.035
81.0,-27.0,6.036
79.0,-14.0,6.037
-5.0,-1.0,6.038
-104.0,8.0,6.039
-200.0,9.0,6.04
-278.0,2.0,6.041
-263.0,-7.0,6.042
-117.0,-12.0,6.043
67.0,-14.0,6.044
194.0,-12.0,6.045
263.0,-9.0,6.046
289.0,2.0,6.047
211.0,16.0,6.048
9.0,22.0,6.049
-186.0,13.0,6.05
-228.0,-2.0,6.051
-136.0,-13.0,6.052
-25.0,-13.0,6.053
74.0,-8.0,6.054
204.0,-2.0,6.055
299.0,-1.0,6.056
231.0,-5.0,6.057
-18.0,-11.0,6.058
-249.0,-10.0,6.059
-289.0,0.0,6.06
-183.0,13.0,6.061
-80.0,22.0,6.062
-16.0,19.0,6.063
45.0,8.0,6.064
90.0,-7.0,6.065
84.0,-20.0,6.066
52.0,-31.0,6.067
46.0,-36.0,6.068
62.0,-29.0,6.069
100.0,-15.0,6.07
171.0,-1.0,6.071
235.0,10.0,6.072
219.0,18.0,6.073
140.0,25.0,6.074
77.0,29.0,6.075
29.0,24.0,6.076
-60.0,14.0,6.077
-185.0,5.0,6.078
-253.0,5.0,6.079
-260.0,14.0,6.08
-265.0,18.0,6.081
-236.0,12.0,6.082
-90.0,-4.0,6.083
108.0,-20.0,6.084
200.0,-26.0,6.085
150.0,-25.0,6.086
44.0,-27.0,6.087
-48.0,-28.0,6.088
-103.0,-16.0,6.089
-86.0,7.0,6.09
-14.0,25.0,6.091
34.0,27.0,6.092
40.0,26.0,6.093
75.0,31.0,6.094
149.0,28.0,6.095
165.0,1.0,6.096
101.0,-30.0,6.097
34.0,-45.0,6.098
-4.0,-36.0,6.099
-58.0,-28.0,6.1
-155.0,-37.0,6.101
-209.0,-39.0,6.102
-131.0,-21.0,6.103
-59.0,0.0,6.104
-8.0,5.0,6.105
48.0,6.0,6.106
116.0,19.0,6.107
175.0,41.0,6.108
207.0,52.0,6.109
192.0,47.0,6.11
36.0,40.0,6.111
-92.0,33.0,6.112
-134.0,17.0,6.113
-144.0,-13.0,6.114
-58.0,-39.0,6.115
12.0,-42.0,6.116
36.0,-27.0,6.117
73.0,-10.0,6.118
120.0,-6.0,6.119
48.0,-10.0,6.12
-80.0,-21.0,6.121
-124.0,-31.0,6.122
-76.0,-32.0,6.123
-27.0,-22.0,6.124
-12.0,-5.0,6.125
-3.0,4.0,6.126
-12.0,5.0,6.127
-38.0,10.0,6.128
-30.0,22.0,6.129
23.0,32.0,6.13
50.0,35.0,6.131
19.0,37.0,6.132
-6.0,39.0,6.133
18.0,33.0,6.134
45.0,19.0,6.135
53.0,8.0,6.136
93.0,4.0,6.137
189.0,-8.0,6.138
236.0,-29.0,6.139
238.0,-43.0,6.14
104.0,-35.0,6.141
-34.0,-14.0,6.142
-182.0,-6.0,6.143
-280.0,-13.0,6.144
-225.0,-16.0,6.145
-174.0,-9.0,6.146
-134.0,-5.0,6.147
-94.0,-12.0,6.148
-55.0,-25.0,6.149
-21.0,-25.0,6.15
-6.0,-10.0,6.151
25.0,6.0,6.152
101.0,17.0,6.153
141.0,18.0,6.154
72.0,15.0,6.155
1.0,18.0,6.156
-74.0,29.0,6.157
-133.0,38.0,6.158
-105.0,34.0,6.159
-2.0,19.0,6.16
173.0,0.0,6.161
293.0,-10.0,6.162
199.0,-16.0,6.163
-56.0,-23.0,6.164
-233.0,-24.0,6.165
-195.0,-16.0,6.166
-52.0,-4.0,6.167
35.0,1.0,6.168
55.0,-3.0,6.169
83.0,-6.0,6.17
142.0,-6.0,6.171
194.0,-7.0,6.172
198.0,-4.0,6.173
117.0,1.0,6.174
-40.0,3.0,6.175
-175.0,0.0,6.176
-190.0,-2.0,6.177
-82.0,4.0,6.178
10.0,15.0,6.179
34.0,16.0,6.18
4.0,0.0,6.181
-69.0,-17.0,6.182
-157.0,-24.0,6.183
-184.0,-21.0,6.184
-126.0,-10.0,6.185
-63.0,4.0,6.186
-65.0,12.0,6.187
-75.0,5.0,6.188
-20.0,-7.0,6.189
53.0,-7.0,6.19
62.0,7.0,6.191
36.0,20.0,6.192
57.0,16.0,6.193
104.0,2.0,6.194
106.0,-12.0,6.195
63.0,-24.0,6.196
46.0,-27.0,6.197
57.0,-22.0,6.198
56.0,-8.0,6.199
31.0,7.0,6.2
24.0,12.0,6.201
39.0,11.0,6.202
39.0,3.0,6.203
16.0,-4.0,6.204
9.0,-7.0,6.205
30.0,0.0,6.206
54.0,13.0,6.207
53.0,24.0,6.208
27.0,28.0,6.209
-14.0,23.0,6.21
-52.0,14.0,6.211
-60.0,4.0,6.212
-29.0,-5.0,6.213
17.0,-10.0,6.214
60.0,-9.0,6.215
95.0,-3.0,6.216
106.0,0.0,6.217
56.0,-6.0,6.218
-44.0,-12.0,6.219
-116.0,-8.0,6.22
-107.0,-1.0,6.221
-63.0,1.0,6.222
-42.0,-3.0,6.223
-32.0,-4.0,6.224
9.0,5.0,6.225
67.0,15.0,6.226
98.0,19.0,6.227
93.0,15.0,6.228
54.0,7.0,6.229
-16.0,-2.0,6.23
-92.0,-10.0,6.231
-109.0,-14.0,6.232
-53.0,-9.0,6.233
1.0,-4.0,6.234
-6.0,-4.0,6.235
-47.0,-13.0,6.236
-63.0,-17.0,6.237
-46.0,-11.0,6.238
-20.0,0.0,6.239
1.0,3.0,6.24
17.0,-6.0,6.241
9.0,-9.0,6.242
-26.0,-5.0,6.243
-57.0,1.0,6.244
-41.0,1.0,6.245
20.0,0.0,6.246
109.0,3.0,6.247
220.0,8.0,6.248
310.0,13.0,6.249
283.0,19.0,6.25
100.0,21.0,6.251
-108.0,16.0,6.252
-176.0,5.0,6.253
-124.0,-4.0,6.254
-118.0,-12.0,6.255
-211.0,-19.0,6.256
-267.0,-18.0,6.257
-203.0,-10.0,6.258
-99.0,-4.0,6.259
-48.0,-10.0,6.26
-1.0,-22.0,6.261
90.0,-20.0,6.262
138.0,-9.0,6.263
65.0,-5.0,6.264
-35.0,-11.0,6.265
-42.0,-10.0,6.266
14.0,-2.0,6.267
33.0,-1.0,6.268
21.0,-6.0,6.269
54.0,-6.0,6.27
126.0,6.0,6.271
161.0,20.0,6.272
144.0,25.0,6.273
127.0,25.0,6.274
138.0,20.0,6.275
140.0,5.0,6.276
95.0,-7.0,6.277
-20.0,-15.0,6.278
-155.0,-15.0,6.279
-233.0,-17.0,6.28
-211.0,-22.0,6.281
-135.0,-14.0,6.282
-81.0,1.0,6.283
-56.0,7.0,6.284
-27.0,0.0,6.285
9.0,-8.0,6.286
36.0,-5.0,6.287
61.0,0.0,6.288
99.0,1.0,6.289
122.0,1.0,6.29
88.0,6.0,6.291
23.0,10.0,6.292
-5.0,11.0,6.293
28.0,12.0,6.294
82.0,15.0,6.295
93.0,23.0,6.296
56.0,26.0,6.297
-6.0,24.0,6.298
-56.0,16.0,6.299
-77.0,4.0,6.3
-63.0,-10.0,6.301
8.0,-18.0,6.302
122.0,-19.0,6.303
181.0,-14.0,6.304
77.0,-9.0,6.305
-132.0,-5.0,6.306
-251.0,-5.0,6.307
-188.0,-7.0,6.308
-51.0,-5.0,6.309
38.0,-3.0,6.31
102.0,-6.0,6.311
160.0,-16.0,6.312
117.0,-26.0,6.313
-61.0,-32.0,6.314
-207.0,-37.0,6.315
-170.0,-39.0,6.316
-46.0,-34.0,6.317
-15.0,-26.0,6.318
-88.0,-19.0,6.319
-125.0,-15.0,6.32
-67.0,-13.0,6.321
1.0,-17.0,6.322
28.0,-42.0,6.323
48.0,-68.0,6.324
70.0,-54.0,6.325
65.0,20.0,6.326
39.0,113.0,6.327
37.0,179.0,6.328
64.0,201.0,6.329
85.0,186.0,6.33
97.0,146.0,6.331
120.0,89.0,6.332
129.0,41.0,6.333
96.0,15.0,6.334
36.0,-4.0,6.335
-7.0,-29.0,6.336
-28.0,-51.0,6.337
-55.0,-63.0,6.338
-79.0,-66.0,6.339
-77.0,-66.0,6.34
-56.0,-62.0,6.341
-33.0,-50.0,6.342
-4.0,-39.0,6.343
41.0,-34.0,6.344
79.0,-28.0,6.345
77.0,-16.0,6.346
43.0,-8.0,6.347
6.0,-7.0,6.348
-20.0,-7.0,6.349
-38.0,-7.0,6.35
-40.0,-11.0,6.351
-17.0,-18.0,6.352
34.0,-17.0,6.353
102.0,-6.0,6.354
161.0,-1.0,6.355
175.0,-3.0,6.356
131.0,-2.0,6.357
36.0,1.0,6.358
-64.0,0.0,6.359
-146.0,-11.0,6.36
-213.0,-24.0,6.361
-262.0,-27.0,6.362
-258.0,-35.0,6.363
-186.0,-54.0,6.364
-87.0,-69.0,6.365
-8.0,-57.0,6.366
69.0,-25.0,6.367
177.0,8.0,6.368
251.0,33.0,6.369
172.0,49.0,6.37
-40.0,52.0,6.371
-200.0,37.0,6.372
-187.0,9.0,6.373
-102.0,-17.0,6.374
-91.0,-37.0,6.375
-123.0,-55.0,6.376
-92.0,-64.0,6.377
-10.0,-55.0,6.378
68.0,-20.0,6.379
72.0,31.0,6.38
60.0,73.0,6.381
77.0,93.0,6.382
107.0,89.0,6.383
135.0,66.0,6.384
167.0,23.0,6.385
179.0,-32.0,6.386
129.0,-82.0,6.387
42.0,-103.0,6.388
-16.0,-75.0,6.389
-21.0,3.0,6.39
-3.0,107.0,6.391
5.0,189.0,6.392
-9.0,211.0,6.393
-41.0,171.0,6.394
-79.0,98.0,6.395
-87.0,17.0,6.396
-55.0,-45.0,6.397
-2.0,-79.0,6.398
17.0,-95.0,6.399
14.0,-92.0,6.4
19.0,-81.0,6.401
35.0,-55.0,6.402
42.0,-20.0,6.403
32.0,1.0,6.404
15.0,8.0,6.405
2.0,8.0,6.406
3.0,6.0,6.407
13.0,0.0,6.408
19.0,-6.0,6.409
20.0,-6.0,6.41
22.0,-8.0,6.411
30.0,-26.0,6.412
32.0,-51.0,6.413
22.0,-67.0,6.414
10.0,-71.0,6.415
2.0,-68.0,6.416
-5.0,-48.0,6.417
-24.0,-4.0,6.418
-41.0,25.0,6.419
-46.0,43.0,6.42
-40.0,25.0,6.421
-36.0,17.0,6.422
-35.0,39.0,6.423
-30.0,63.0,6.424
-23.0,93.0,6.425
-16.0,114.0,6.426
-11.0,108.0,6.427
-7.0,91.0,6.428
-10.0,41.0,6.429
-15.0,-10.0,6.43
-11.0,-66.0,6.431
2.0,-111.0,6.432
17.0,-123.0,6.433
20.0,-130.0,6.434
19.0,-119.0,6.435
19.0,-99.0,6.436
19.0,-50.0,6.437
14.0,4.0,6.438
14.0,66.0,6.439
50.0,110.0,6.44
140.0,127.0,6.441
227.0,124.0,6.442
197.0,111.0,6.443
10.0,103.0,6.444
-204.0,98.0,6.445
-279.0,83.0,6.446
-206.0,56.0,6.447
-123.0,25.0,6.448
-103.0,-3.0,6.449
-71.0,-29.0,6.45
26.0,-56.0,6.451
115.0,-72.0,6.452
122.0,-80.0,6.453
86.0,-89.0,6.454
70.0,-97.0,6.455
59.0,-95.0,6.456
30.0,-82.0,6.457
11.0,-68.0,6.458
41.0,-57.0,6.459
111.0,-47.0,6.46
167.0,-30.0,6.461
153.0,-12.0,6.462
25.0,1.0,6.463
-190.0,12.0,6.464
-357.0,20.0,6.465
-356.0,18.0,6.466
-232.0,11.0,6.467
-131.0,2.0,6.468
-91.0,-4.0,6.469
-39.0,-13.0,6.47
48.0,-25.0,6.471
107.0,-33.0,6.472
113.0,-30.0,6.473
112.0,-17.0,6.474
119.0,-2.0,6.475
92.0,8.0,6.476
32.0,7.0,6.477
-9.0,-5.0,6.478
0.0,-14.0,6.479
16.0,-15.0,6.48
2.0,-13.0,6.481
-9.0,-8.0,6.482
16.0,0.0,6.483
50.0,2.0,6.484
57.0,-13.0,6.485
48.0,-39.0,6.486
55.0,-50.0,6.487
72.0,-39.0,6.488
73.0,-32.0,6.489
56.0,-46.0,6.49
46.0,-64.0,6.491
71.0,-62.0,6.492
133.0,-44.0,6.493
188.0,-20.0,6.494
156.0,1.0,6.495
10.0,25.0,6.496
-145.0,46.0,6.497
-206.0,55.0,6.498
-160.0,62.0,6.499
-114.0,76.0,6.5
-120.0,109.0,6.501
-115.0,151.0,6.502
-51.0,216.0,6.503
16.0,261.0,6.504
24.0,239.0,6.505
10.0,202.0,6.506
27.0,117.0,6.507
49.0,38.0,6.508
35.0,-22.0,6.509
13.0,-70.0,6.51
32.0,-79.0,6.511
83.0,-83.0,6.512
105.0,-72.0,6.513
82.0,-62.0,6.514
39.0,-56.0,6.515
5.0,-52.0,6.516
-17.0,-54.0,6.517
-36.0,-59.0,6.518
-58.0,-64.0,6.519
-83.0,-66.0,6.52
-84.0,-68.0,6.521
-41.0,-65.0,6.522
27.0,-58.0,6.523
74.0,-49.0,6.524
90.0,-47.0,6.525
102.0,-51.0,6.526
103.0,-52.0,6.527
42.0,-45.0,6.528
-100.0,-30.0,6.529
-236.0,-15.0,6.53
-243.0,-7.0,6.531
-99.0,-5.0,6.532
75.0,-3.0,6.533
147.0,2.0,6.534
91.0,8.0,6.535
-1.0,15.0,6.536
-52.0,31.0,6.537
-78.0,56.0,6.538
-123.0,82.0,6.539
-175.0,94.0,6.54
-175.0,80.0,6.541
-102.0,54.0,6.542
-15.0,22.0,6.543
28.0,-5.0,6.544
36.0,-16.0,6.545
45.0,-15.0,6.546
61.0,-8.0,6.547
65.0,-5.0,6.548
62.0,-8.0,6.549
65.0,-15.0,6.55
69.0,-30.0,6.551
67.0,-43.0,6.552
62.0,-47.0,6.553
72.0,-39.0,6.554
85.0,-24.0,6.555
81.0,-11.0,6.556
67.0,-2.0,6.557
54.0,-3.0,6.558
41.0,-12.0,6.559
19.0,-20.0,6.56
-3.0,-20.0,6.561
-9.0,-13.0,6.562
-1.0,-5.0,6.563
11.0,2.0,6.564
33.0,14.0,6.565
63.0,25.0,6.566
59.0,30.0,6.567
-3.0,30.0,6.568
-65.0,28.0,6.569
-47.0,23.0,6.57
27.0,13.0,6.571
46.0,6.0,6.572
-20.0,7.0,6.573
-66.0,13.0,6.574
-26.0,17.0,6.575
26.0,12.0,6.576
14.0,0.0,6.577
-33.0,-18.0,6.578
-36.0,-31.0,6.579
-11.0,-33.0,6.58
-12.0,-36.0,6.581
-29.0,-35.0,6.582
-10.0,-29.0,6.583
31.0,-22.0,6.584
42.0,-17.0,6.585
29.0,-14.0,6.586
32.0,-6.0,6.587
49.0,7.0,6.588
53.0,20.0,6.589
49.0,25.0,6.59
45.0,22.0,6.591
34.0,21.0,6.592
19.0,30.0,6.593
15.0,42.0,6.594
-9.0,49.0,6.595
-92.0,47.0,6.596
-172.0,45.0,6.597
-141.0,40.0,6.598
14.0,31.0,6.599
129.0,16.0,6.6
71.0,-1.0,6.601
-93.0,-11.0,6.602
-206.0,-22.0,6.603
-214.0,-38.0,6.604
-161.0,-46.0,6.605
-86.0,-38.0,6.606
-12.0,-26.0,6.607
24.0,-18.0,6.608
11.0,-8.0,6.609
-19.0,11.0,6.61
-21.0,25.0,6.611
3.0,24.0,6.612
20.0,15.0,6.613
3.0,12.0,6.614
-36.0,12.0,6.615
-54.0,4.0,6.616
-13.0,-6.0,6.617
59.0,-12.0,6.618
89.0,-16.0,6.619
62.0,-25.0,6.62
65.0,-36.0,6.621
146.0,-41.0,6.622
226.0,-39.0,6.623
223.0,-36.0,6.624
180.0,-24.0,6.625
189.0,-2.0,6.626
249.0,19.0,6.627
269.0,30.0,6.628
176.0,38.0,6.629
-25.0,48.0,6.63
-246.0,46.0,6.631
-368.0,25.0,6.632
-344.0,0.0,6.633
-255.0,-15.0,6.634
-201.0,-21.0,6.635
-177.0,-27.0,6.636
-122.0,-30.0,6.637
-40.0,-30.0,6.638
17.0,-25.0,6.639
75.0,-15.0,6.64
133.0,-8.0,6.641
180.0,-5.0,6.642
193.0,-7.0,6.643
183.0,-8.0,6.644
101.0,-2.0,6.645
-5.0,9.0,6.646
-187.0,11.0,6.647
-305.0,3.0,6.648
-225.0,-4.0,6.649
-138.0,-7.0,6.65
-36.0,-5.0,6.651
58.0,-3.0,6.652
126.0,1.0,6.653
170.0,4.0,6.654
142.0,2.0,6.655
119.0,1.0,6.656
115.0,7.0,6.657
112.0,47.0,6.658
73.0,30.0,6.659
-27.0,16.0,6.66
-107.0,7.0,6.661
-108.0,-2.0,6.662
-49.0,-17.0,6.663
6.0,-30.0,6.664
13.0,-31.0,6.665
-18.0,-33.0,6.666
-30.0,-42.0,6.667
-1.0,-45.0,6.668
21.0,-31.0,6.669
-8.0,-17.0,6.67
-51.0,-3.0,6.671
-53.0,8.0,6.672
-29.0,15.0,6.673
-15.0,21.0,6.674
17.0,22.0,6.675
88.0,23.0,6.676
142.0,21.0,6.677
111.0,45.0,6.678
28.0,29.0,6.679
-22.0,15.0,6.68
-23.0,7.0,6.681
-21.0,-2.0,6.682
-31.0,-17.0,6.683
-30.0,-29.0,6.684
-18.0,-30.0,6.685
-14.0,-32.0,6.686
-14.0,-40.0,6.687
4.0,-43.0,6.688
31.0,-30.0,6.689
50.0,-17.0,6.69
72.0,-3.0,6.691
99.0,8.0,6.692
93.0,14.0,6.693
42.0,20.0,6.694
10.0,21.0,6.695
65.0,22.0,6.696
162.0,20.0,6.697
214.0,18.0,6.698
163.0,9.0,6.699
19.0,-7.0,6.7
-179.0,-28.0,6.701
-365.0,-34.0,6.702
-414.0,-19.0,6.703
-262.0,5.0,6.704
-4.0,19.0,6.705
181.0,18.0,6.706
193.0,9.0,6.707
45.0,2.0,6.708
-183.0,-4.0,6.709
-352.0,-12.0,6.71
-305.0,-20.0,6.711
-40.0,-25.0,6.712
221.0,-26.0,6.713
272.0,-20.0,6.714
146.0,-11.0,6.715
22.0,-10.0,6.716
-28.0,-15.0,6.717
-76.0,-20.0,6.718
-141.0,-11.0,6.719
-177.0,7.0,6.72
-120.0,25.0,6.721
-63.0,38.0,6.722
-7.0,45.0,6.723
37.0,37.0,6.724
47.0,15.0,6.725
56.0,-3.0,6.726
56.0,-3.0,6.727
48.0,11.0,6.728
18.0,21.0,6.729
5.0,24.0,6.73
46.0,28.0,6.731
88.0,30.0,6.732
131.0,18.0,6.733
175.0,-4.0,6.734
220.0,-19.0,6.735
242.0,-23.0,6.736
194.0,-25.0,6.737
130.0,-29.0,6.738
19.0,-34.0,6.739
-76.0,-44.0,6.74
-119.0,-66.0,6.741
-113.0,-84.0,6.742
-92.0,-82.0,6.743
-85.0,-62.0,6.744
-86.0,-39.0,6.745
-80.0,-22.0,6.746
-47.0,-9.0,6.747
27.0,-1.0,6.748
121.0,2.0,6.749
182.0,10.0,6.75
186.0,29.0,6.751
170.0,49.0,6.752
144.0,69.0,6.753
47.0,90.0,6.754
-129.0,104.0,6.755
-263.0,98.0,6.756
-254.0,73.0,6.757
-152.0,45.0,6.758
-127.0,31.0,6.759
-144.0,16.0,6.76
-105.0,2.0,6.761
-29.0,-9.0,6.762
0.0,-11.0,6.763
-7.0,-11.0,6.764
9.0,-5.0,6.765
37.0,-2.0,6.766
31.0,-6.0,6.767
26.0,-11.0,6.768
65.0,-15.0,6.769
104.0,-17.0,6.77
85.0,-15.0,6.771
56.0,-15.0,6.772
100.0,-21.0,6.773
198.0,-28.0,6.774
237.0,-34.0,6.775
161.0,-37.0,6.776
26.0,-30.0,6.777
-118.0,-24.0,6.778
-214.0,-29.0,6.779
-208.0,-36.0,6.78
-66.0,-33.0,6.781
127.0,-19.0,6.782
170.0,-6.0,6.783
-27.0,1.0,6.784
-267.0,9.0,6.785
-282.0,12.0,6.786
-107.0,3.0,6.787
-19.0,-11.0,6.788
-104.0,-19.0,6.789
-157.0,-20.0,6.79
-61.0,-20.0,6.791
26.0,-18.0,6.792
-19.0,-5.0,6.793
-75.0,19.0,6.794
-10.0,44.0,6.795
92.0,67.0,6.796
105.0,85.0,6.797
62.0,97.0,6.798
55.0,97.0,6.799
51.0,77.0,6.8
58.0,34.0,6.801
68.0,-12.0,6.802
86.0,-33.0,6.803
100.0,-11.0,6.804
99.0,28.0,6.805
98.0,36.0,6.806
99.0,6.0,6.807
78.0,-29.0,6.808
-9.0,-48.0,6.809
-79.0,-69.0,6.81
-98.0,-108.0,6.811
-103.0,-142.0,6.812
-65.0,-144.0,6.813
-32.0,-122.0,6.814
-15.0,-94.0,6.815
22.0,-64.0,6.816
119.0,-28.0,6.817
216.0,9.0,6.818
256.0,43.0,6.819
200.0,77.0,6.82
129.0,111.0,6.821
56.0,132.0,6.822
-65.0,127.0,6.823
-190.0,102.0,6.824
-201.0,75.0,6.825
-102.0,48.0,6.826
-31.0,21.0,6.827
-44.0,2.0,6.828
-45.0,0.0,6.829
6.0,1.0,6.83
25.0,-6.0,6.831
-21.0,-16.0,6.832
-38.0,-18.0,6.833
11.0,-16.0,6.834
38.0,-21.0,6.835
10.0,-31.0,6.836
3.0,-35.0,6.837
54.0,-28.0,6.838
53.0,-12.0,6.839
-20.0,-3.0,6.84
-60.0,-11.0,6.841
-20.0,-22.0,6.842
30.0,-26.0,6.843
44.0,-18.0,6.844
43.0,-8.0,6.845
25.0,-3.0,6.846
-42.0,0.0,6.847
-108.0,7.0,6.848
-96.0,10.0,6.849
-33.0,9.0,6.85
-17.0,11.0,6.851
-57.0,19.0,6.852
-77.0,17.0,6.853
-54.0,5.0,6.854
-17.0,-7.0,6.855
33.0,-8.0,6.856
99.0,2.0,6.857
122.0,7.0,6.858
65.0,3.0,6.859
15.0,-10.0,6.86
-10.0,-32.0,6.861
-20.0,-49.0,6.862
21.0,-61.0,6.863
56.0,-65.0,6.864
75.0,-60.0,6.865
73.0,-42.0,6.866
7.0,-17.0,6.867
-48.0,3.0,6.868
-73.0,27.0,6.869
-89.0,57.0,6.87
-74.0,83.0,6.871
-57.0,90.0,6.872
-32.0,76.0,6.873
0.0,62.0,6.874
52.0,55.0,6.875
106.0,44.0,6.876
167.0,25.0,6.877
224.0,-4.0,6.878
221.0,-30.0,6.879
126.0,-46.0,6.88
-10.0,-50.0,6.881
-105.0,-45.0,6.882
-139.0,-40.0,6.883
-160.0,-37.0,6.884
-199.0,-30.0,6.885
-234.0,-12.0,6.886
-239.0,6.0,6.887
-185.0,17.0,6.888
-56.0,23.0,6.889
99.0,31.0,6.89
169.0,37.0,6.891
121.0,34.0,6.892
52.0,19.0,6.893
37.0,-1.0,6.894
9.0,-16.0,6.895
-69.0,-24.0,6.896
-100.0,-23.0,6.897
-7.0,-16.0,6.898
105.0,-8.0,6.899
100.0,-2.0,6.9
17.0,-3.0,6.901
-15.0,-4.0,6.902
15.0,0.0,6.903
32.0,10.0,6.904
24.0,25.0,6.905
33.0,30.0,6.906
51.0,19.0,6.907
49.0,2.0,6.908
38.0,-4.0,6.909
35.0,-2.0,6.91
31.0,-6.0,6.911
39.0,-21.0,6.912
78.0,-35.0,6.913
121.0,-39.0,6.914
108.0,-38.0,6.915
49.0,-36.0,6.916
0.0,-27.0,6.917
-32.0,-16.0,6.918
-66.0,-8.0,6.919
-85.0,-8.0,6.92
-51.0,-11.0,6.921
2.0,-11.0,6.922
25.0,-20.0,6.923
11.0,-35.0,6.924
-12.0,-35.0,6.925
-46.0,-12.0,6.926
-95.0,23.0,6.927
-116.0,49.0,6.928
-77.0,58.0,6.929
-23.0,53.0,6.93
-1.0,41.0,6.931
3.0,27.0,6.932
24.0,12.0,6.933
39.0,-10.0,6.934
43.0,-40.0,6.935
78.0,-62.0,6.936
133.0,-56.0,6.937
97.0,-27.0,6.938
-88.0,-2.0,6.939
-274.0,4.0,6.94
-245.0,5.0,6.941
-32.0,22.0,6.942
116.0,45.0,6.943
67.0,55.0,6.944
-35.0,52.0,6.945
-28.0,47.0,6.946
48.0,39.0,6.947
65.0,19.0,6.948
28.0,-9.0,6.949
24.0,-29.0,6.95
59.0,-35.0,6.951
66.0,-29.0,6.952
37.0,-19.0,6.953
26.0,-5.0,6.954
46.0,8.0,6.955
41.0,20.0,6.956
0.0,32.0,6.957
-40.0,44.0,6.958
-39.0,51.0,6.959
-18.0,42.0,6.96
-5.0,15.0,6.961
-6.0,-17.0,6.962
-10.0,-43.0,6.963
-34.0,-57.0,6.964
-92.0,-57.0,6.965
-139.0,-51.0,6.966
-104.0,-45.0,6.967
33.0,-42.0,6.968
198.0,-37.0,6.969
295.0,-27.0,6.97
304.0,-13.0,6.971
273.0,1.0,6.972
200.0,13.0,6.973
49.0,19.0,6.974
-140.0,19.0,6.975
-242.0,15.0,6.976
-216.0,12.0,6.977
-155.0,10.0,6.978
-147.0,13.0,6.979
-148.0,16.0,6.98
-81.0,12.0,6.981
10.0,4.0,6.982
52.0,0.0,6.983
59.0,8.0,6.984
63.0,22.0,6.985
26.0,35.0,6.986
-65.0,41.0,6.987
-124.0,38.0,6.988
-83.0,25.0,6.989
-9.0,3.0,6.99
14.0,-15.0,6.991
25.0,-23.0,6.992
76.0,-24.0,6.993
116.0,-29.0,6.994
78.0,-37.0,6.995
23.0,-40.0,6.996
31.0,-32.0,6.997
53.0,-18.0,6.998
-4.0,-7.0,6.999
-110.0,-1.0,7.0
-129.0,-2.0,7.001
-35.0,-2.0,7.002
47.0,0.0,7.003
41.0,3.0,7.004
1.0,6.0,7.005
-2.0,8.0,7.006
18.0,9.0,7.007
29.0,11.0,7.008
40.0,10.0,7.009
60.0,3.0,7.01
55.0,-14.0,7.011
20.0,-30.0,7.012
-5.0,-29.0,7.013
-5.0,-7.0,7.014
-14.0,15.0,7.015
-39.0,15.0,7.016
-46.0,-4.0,7.017
-24.0,-26.0,7.018
-3.0,-24.0,7.019
-4.0,-9.0,7.02
-5.0,-3.0,7.021
12.0,-5.0,7.022
29.0,-4.0,7.023
34.0,6.0,7.024
35.0,9.0,7.025
35.0,-1.0,7.026
23.0,-10.0,7.027
9.0,-9.0,7.028
12.0,-10.0,7.029
33.0,-19.0,7.03
59.0,-24.0,7.031
84.0,-13.0,7.032
86.0,0.0,7.033
17.0,3.0,7.034
-137.0,-1.0,7.035
-276.0,8.0,7.036
-278.0,30.0,7.037
-128.0,47.0,7.038
41.0,49.0,7.039
102.0,35.0,7.04
53.0,13.0,7.041
-26.0,2.0,7.042
-71.0,2.0,7.043
-50.0,10.0,7.044
47.0,16.0,7.045
171.0,16.0,7.046
223.0,16.0,7.047
188.0,22.0,7.048
160.0,27.0,7.049
177.0,27.0,7.05
142.0,21.0,7.051
15.0,14.0,7.052
-49.0,12.0,7.053
67.0,12.0,7.054
182.0,14.0,7.055
37.0,13.0,7.056
-252.0,9.0,7.057
-388.0,0.0,7.058
-273.0,-6.0,7.059
-152.0,-19.0,7.06
-189.0,-49.0,7.061
-236.0,-71.0,7.062
-161.0,-70.0,7.063
-78.0,-49.0,7.064
-87.0,-36.0,7.065
-90.0,-43.0,7.066
-5.0,-49.0,7.067
74.0,-38.0,7.068
72.0,-14.0,7.069
55.0,6.0,7.07
82.0,20.0,7.071
101.0,37.0,7.072
84.0,54.0,7.073
83.0,62.0,7.074
108.0,59.0,7.075
93.0,50.0,7.076
38.0,41.0,7.077
7.0,30.0,7.078
27.0,16.0,7.079
39.0,5.0,7.08
20.0,-8.0,7.081
13.0,-14.0,7.082
28.0,-13.0,7.083
29.0,-6.0,7.084
10.0,-2.0,7.085
0.0,-2.0,7.086
6.0,-1.0,7.087
0.0,4.0,7.088
-13.0,8.0,7.089
-13.0,3.0,7.09
-4.0,-3.0,7.091
-6.0,-2.0,7.092
-9.0,3.0,7.093
11.0,3.0,7.094
37.0,0.0,7.095
40.0,-3.0,7.096
31.0,-5.0,7.097
28.0,-6.0,7.098
28.0,-6.0,7.099
14.0,-1.0,7.1
-8.0,2.0,7.101
-20.0,7.0,7.102
-21.0,10.0,7.103
-27.0,16.0,7.104
-28.0,21.0,7.105
-17.0,24.0,7.106
-7.0,23.0,7.107
-15.0,17.0,7.108
-32.0,11.0,7.109
-39.0,4.0,7.11
-37.0,1.0,7.111
-43.0,0.0,7.112
-59.0,1.0,7.113
-60.0,0.0,7.114
-30.0,-4.0,7.115
24.0,-9.0,7.116
84.0,-12.0,7.117
128.0,-13.0,7.118
127.0,-13.0,7.119
95.0,-15.0,7.12
-27.0,-19.0,7.121
-114.0,-16.0,7.122
-91.0,-12.0,7.123
-55.0,-7.0,7.124
21.0,-2.0,7.125
67.0,5.0,7.126
17.0,6.0,7.127
-8.0,1.0,7.128
37.0,-2.0,7.129
85.0,-3.0,7.13
137.0,-10.0,7.131
180.0,-24.0,7.132
192.0,-31.0,7.133
186.0,-22.0,7.134
122.0,-9.0,7.135
34.0,-2.0,7.136
-119.0,4.0,7.137
-248.0,14.0,7.138
-262.0,26.0,7.139
-242.0,39.0,7.14
-228.0,52.0,7.141
-188.0,60.0,7.142
-109.0,50.0,7.143
-46.0,34.0,7.144
-31.0,1.0,7.145
-18.0,-23.0,7.146
31.0,-19.0,7.147
76.0,-19.0,7.148
65.0,-37.0,7.149
22.0,-49.0,7.15
1.0,-40.0,7.151
20.0,-33.0,7.152
61.0,-34.0,7.153
102.0,-33.0,7.154
123.0,-22.0,7.155
117.0,-16.0,7.156
111.0,-25.0,7.157
-35.0,-34.0,7.158
-46.0,-41.0,7.159
-58.0,-43.0,7.16
-72.0,-45.0,7.161
-80.0,-36.0,7.162
-66.0,-19.0,7.163
-55.0,-10.0,7.164
-54.0,-17.0,7.165
-53.0,-22.0,7.166
-55.0,-16.0,7.167
-48.0,-10.0,7.168
-15.0,-20.0,7.169
15.0,-30.0,7.17
34.0,-21.0,7.171
19.0,-2.0,7.172
-99.0,7.0,7.173
-192.0,1.0,7.174
-205.0,-1.0,7.175
-183.0,4.0,7.176
-57.0,10.0,7.177
9.0,2.0,7.178
-18.0,3.0,7.179
-48.0,3.0,7.18
-84.0,3.0,7.181
-103.0,2.0,7.182
-68.0,3.0,7.183
-41.0,4.0,7.184
-38.0,4.0,7.185
-36.0,5.0,7.186
-40.0,3.0,7.187
-24.0,1.0,7.188
56.0,1.0,7.189
127.0,3.0,7.19
173.0,6.0,7.191
138.0,10.0,7.192
-147.0,11.0,7.193
-369.0,12.0,7.194
-400.0,9.0,7.195
-348.0,4.0,7.196
-44.0,-10.0,7.197
227.0,-1.0,7.198
296.0,0.0,7.199
228.0,1.0,7.2
128.0,0.0,7.201
51.0,-1.0,7.202
15.0,1.0,7.203
9.0,4.0,7.204
17.0,6.0,7.205
35.0,7.0,7.206
73.0,1.0,7.207
112.0,-4.0,7.208
111.0,-4.0,7.209
77.0,0.0,7.21
48.0,10.0,7.211
25.0,19.0,7.212
-14.0,23.0,7.213
-26.0,24.0,7.214
48.0,18.0,7.215
143.0,5.0,7.216
115.0,-30.0,7.217
-60.0,-65.0,7.218
-199.0,-80.0,7.219
-160.0,-60.0,7.22
-34.0,-26.0,7.221
5.0,-5.0,7.222
-48.0,0.0,7.223
-81.0,6.0,7.224
-53.0,24.0,7.225
-19.0,35.0,7.226
-13.0,34.0,7.227
-31.0,33.0,7.228
-83.0,44.0,7.229
-146.0,51.0,7.23
-132.0,46.0,7.231
2.0,35.0,7.232
187.0,31.0,7.233
322.0,27.0,7.234
368.0,13.0,7.235
309.0,-1.0,7.236
148.0,-9.0,7.237
115.0,-18.0,7.238
78.0,-22.0,7.239
44.0,-14.0,7.24
21.0,-5.0,7.241
19.0,1.0,7.242
93.0,0.0,7.243
147.0,3.0,7.244
144.0,11.0,7.245
123.0,11.0,7.246
53.0,-3.0,7.247
-3.0,-13.0,7.248
-23.0,0.0,7.249
-62.0,25.0,7.25
-161.0,39.0,7.251
-218.0,29.0,7.252
-144.0,13.0,7.253
-85.0,10.0,7.254
-74.0,24.0,7.255
-65.0,42.0,7.256
-62.0,54.0,7.257
68.0,42.0,7.258
46.0,14.0,7.259
26.0,-13.0,7.26
12.0,-35.0,7.261
11.0,-53.0,7.262
55.0,-51.0,7.263
87.0,-49.0,7.264
85.0,-45.0,7.265
73.0,-39.0,7.266
31.0,-27.0,7.267
-3.0,-15.0,7.268
-15.0,-4.0,7.269
-38.0,4.0,7.27
-97.0,7.0,7.271
-131.0,9.0,7.272
-87.0,6.0,7.273
-52.0,5.0,7.274
-45.0,9.0,7.275
-40.0,13.0,7.276
-38.0,13.0,7.277
-26.0,14.0,7.278
6.0,17.0,7.279
15.0,13.0,7.28
4.0,4.0,7.281
0.0,4.0,7.282
10.0,11.0,7.283
21.0,18.0,7.284
26.0,18.0,7.285
34.0,17.0,7.286
50.0,20.0,7.287
57.0,20.0,7.288
27.0,12.0,7.289
-35.0,0.0,7.29
-77.0,-6.0,7.291
-68.0,-8.0,7.292
-36.0,-10.0,7.293
-21.0,-11.0,7.294
-4.0,-10.0,7.295
52.0,-11.0,7.296
113.0,-12.0,7.297
105.0,-12.0,7.298
18.0,-8.0,7.299
-67.0,-5.0,7.3
-81.0,-10.0,7.301
-48.0,-10.0,7.302
-22.0,-3.0,7.303
-11.0,6.0,7.304
13.0,10.0,7.305
45.0,11.0,7.306
57.0,10.0,7.307
41.0,12.0,7.308
16.0,12.0,7.309
-1.0,14.0,7.31
-5.0,14.0,7.311
-3.0,11.0,7.312
0.0,3.0,7.313
-1.0,-2.0,7.314
-4.0,-5.0,7.315
-4.0,-12.0,7.316
-2.0,-23.0,7.317
-8.0,-32.0,7.318
-31.0,-26.0,7.319
-58.0,-9.0,7.32
-55.0,-2.0,7.321
-14.0,-6.0,7.322
41.0,-8.0,7.323
78.0,-1.0,7.324
90.0,12.0,7.325
91.0,13.0,7.326
75.0,5.0,7.327
33.0,-1.0,7.328
-9.0,4.0,7.329
-16.0,14.0,7.33
0.0,16.0,7.331
-5.0,12.0,7.332
-44.0,7.0,7.333
-61.0,6.0,7.334
