Deltoid,Bicep,Time
-4.0,1.0,0.0
-6.0,-4.0,0.001
-7.0,-5.0,0.002
-2.0,-5.0,0.003
6.0,-4.0,0.004
7.0,-1.0,0.005
0.0,2.0,0.006
-2.0,5.0,0.007
6.0,5.0,0.008
14.0,3.0,0.009
10.0,1.0,0.01
3.0,1.0,0.011
2.0,1.0,0.012
4.0,3.0,0.013
2.0,5.0,0.014
2.0,4.0,0.015
6.0,0.0,0.016
9.0,0.0,0.017
2.0,-2.0,0.018
-3.0,-4.0,0.019
-7.0,-4.0,0.02
-5.0,-8.0,0.021
-3.0,-7.0,0.022
1.0,-8.0,0.023
7.0,-7.0,0.024
12.0,0.0,0.025
6.0,4.0,0.026
-1.0,3.0,0.027
-3.0,0.0,0.028
1.0,1.0,0.029
3.0,4.0,0.03
2.0,4.0,0.031
5.0,1.0,0.032
7.0,1.0,0.033
5.0,0.0,0.034
0.0,-2.0,0.035
0.0,-2.0,0.036
3.0,0.0,0.037
4.0,0.0,0.038
1.0,-4.0,0.039
-4.0,-7.0,0.04
-6.0,-10.0,0.041
-4.0,-8.0,0.042
0.0,-3.0,0.043
8.0,0.0,0.044
8.0,2.0,0.045
3.0,4.0,0.046
1.0,4.0,0.047
5.0,1.0,0.048
8.0,0.0,0.049
4.0,2.0,0.05
0.0,5.0,0.051
2.0,5.0,0.052
8.0,4.0,0.053
8.0,2.0,0.054
5.0,0.0,0.055
5.0,0.0,0.056
6.0,-1.0,0.057
5.0,-3.0,0.058
3.0,-4.0,0.059
0.0,-6.0,0.06
-1.0,-7.0,0.061
-1.0,-8.0,0.062
2.0,-8.0,0.063
7.0,-6.0,0.064
5.0,-2.0,0.065
-3.0,2.0,0.066
-6.0,2.0,0.067
-2.0,-3.0,0.068
6.0,-3.0,0.069
6.0,0.0,0.07
2.0,5.0,0.071
0.0,5.0,0.072
1.0,2.0,0.073
3.0,3.0,0.074
4.0,4.0,0.075
2.0,3.0,0.076
2.0,2.0,0.077
-1.0,1.0,0.078
-1.0,2.0,0.079
-3.0,-2.0,0.08
-6.0,-9.0,0.081
-9.0,-9.0,0.082
-5.0,-4.0,0.083
5.0,0.0,0.084
11.0,0.0,0.085
8.0,0.0,0.086
6.0,4.0,0.087
9.0,6.0,0.088
12.0,5.0,0.089
9.0,5.0,0.09
6.0,5.0,0.091
9.0,5.0,0.092
11.0,3.0,0.093
8.0,3.0,0.094
2.0,3.0,0.095
0.0,1.0,0.096
4.0,-1.0,0.097
4.0,-3.0,0.098
3.0,-3.0,0.099
0.0,-4.0,0.1
-1.0,-7.0,0.101
-1.0,-9.0,0.102
3.0,-5.0,0.103
9.0,-2.0,0.104
8.0,-2.0,0.105
1.0,-2.0,0.106
-2.0,0.0,0.107
1.0,2.0,0.108
2.0,1.0,0.109
-2.0,0.0,0.11
-4.0,-1.0,0.111
2.0,-3.0,0.112
5.0,-3.0,0.113
1.0,-2.0,0.114
-3.0,-3.0,0.115
-2.0,-4.0,0.116
1.0,-2.0,0.117
-2.0,1.0,0.118
-4.0,2.0,0.119
-4.0,-3.0,0.12
-3.0,-10.0,0.121
-2.0,-8.0,0.122
4.0,-2.0,0.123
14.0,0.0,0.124
16.0,1.0,0.125
9.0,4.0,0.126
3.0,5.0,0.127
4.0,0.0,0.128
5.0,-1.0,0.129
0.0,2.0,0.13
-3.0,6.0,0.131
-1.0,2.0,0.132
1.0,-2.0,0.133
1.0,-1.0,0.134
2.0,0.0,0.135
7.0,-2.0,0.136
10.0,-4.0,0.137
5.0,-2.0,0.138
-2.0,1.0,0.139
-6.0,-1.0,0.14
-5.0,-10.0,0.141
-2.0,-12.0,0.142
3.0,-7.0,0.143
10.0,-3.0,0.144
11.0,1.0,0.145
6.0,5.0,0.146
2.0,8.0,0.147
2.0,5.0,0.148
8.0,2.0,0.149
15.0,3.0,0.15
21.0,4.0,0.151
19.0,1.0,0.152
7.0,-1.0,0.153
-11.0,0.0,0.154
-20.0,5.0,0.155
-15.0,5.0,0.156
-6.0,3.0,0.157
-4.0,0.0,0.158
-4.0,-3.0,0.159
-2.0,-4.0,0.16
0.0,-7.0,0.161
-3.0,-7.0,0.162
-3.0,-5.0,0.163
3.0,-3.0,0.164
11.0,0.0,0.165
8.0,3.0,0.166
1.0,1.0,0.167
3.0,-3.0,0.168
10.0,-3.0,0.169
6.0,0.0,0.17
-6.0,0.0,0.171
-15.0,0.0,0.172
-11.0,1.0,0.173
-2.0,3.0,0.174
4.0,1.0,0.175
9.0,-1.0,0.176
10.0,0.0,0.177
10.0,1.0,0.178
9.0,-3.0,0.179
11.0,-8.0,0.18
18.0,-10.0,0.181
25.0,-7.0,0.182
26.0,-6.0,0.183
17.0,-6.0,0.184
6.0,-1.0,0.185
0.0,6.0,0.186
3.0,6.0,0.187
6.0,0.0,0.188
9.0,-4.0,0.189
12.0,0.0,0.19
12.0,3.0,0.191
0.0,0.0,0.192
-18.0,0.0,0.193
-30.0,3.0,0.194
-23.0,3.0,0.195
-9.0,0.0,0.196
0.0,-2.0,0.197
0.0,-4.0,0.198
1.0,-6.0,0.199
-1.0,-6.0,0.2
-8.0,-6.0,0.201
-12.0,-3.0,0.202
-3.0,-2.0,0.203
11.0,-3.0,0.204
17.0,-1.0,0.205
11.0,5.0,0.206
1.0,8.0,0.207
-7.0,6.0,0.208
-12.0,5.0,0.209
-15.0,6.0,0.21
-10.0,4.0,0.211
0.0,0.0,0.212
15.0,-2.0,0.213
26.0,-1.0,0.214
27.0,-1.0,0.215
16.0,-4.0,0.216
1.0,-6.0,0.217
-3.0,-5.0,0.218
0.0,-1.0,0.219
-6.0,-3.0,0.22
-20.0,-9.0,0.221
-24.0,-8.0,0.222
-6.0,-4.0,0.223
17.0,1.0,0.224
20.0,2.0,0.225
13.0,3.0,0.226
11.0,3.0,0.227
16.0,1.0,0.228
18.0,0.0,0.229
12.0,2.0,0.23
7.0,2.0,0.231
6.0,1.0,0.232
5.0,-1.0,0.233
9.0,0.0,0.234
12.0,0.0,0.235
8.0,-4.0,0.236
2.0,-5.0,0.237
-1.0,-4.0,0.238
0.0,1.0,0.239
-2.0,0.0,0.24
-7.0,-9.0,0.241
-9.0,-12.0,0.242
-3.0,-8.0,0.243
3.0,-1.0,0.244
3.0,3.0,0.245
0.0,5.0,0.246
-2.0,5.0,0.247
-1.0,0.0,0.248
-4.0,-1.0,0.249
-9.0,3.0,0.25
-7.0,7.0,0.251
0.0,6.0,0.252
5.0,1.0,0.253
5.0,0.0,0.254
4.0,3.0,0.255
5.0,3.0,0.256
8.0,1.0,0.257
6.0,-2.0,0.258
0.0,-3.0,0.259
-6.0,-4.0,0.26
-10.0,-9.0,0.261
-10.0,-9.0,0.262
-3.0,-6.0,0.263
6.0,-1.0,0.264
11.0,0.0,0.265
8.0,-1.0,0.266
2.0,-2.0,0.267
4.0,-2.0,0.268
9.0,0.0,0.269
8.0,2.0,0.27
2.0,3.0,0.271
1.0,1.0,0.272
5.0,2.0,0.273
6.0,2.0,0.274
5.0,0.0,0.275
7.0,-3.0,0.276
12.0,-3.0,0.277
12.0,-1.0,0.278
5.0,0.0,0.279
-3.0,-3.0,0.28
-5.0,-9.0,0.281
-2.0,-10.0,0.282
8.0,-5.0,0.283
19.0,-1.0,0.284
20.0,-1.0,0.285
4.0,0.0,0.286
-16.0,-1.0,0.287
-23.0,-1.0,0.288
-13.0,0.0,0.289
-2.0,1.0,0.29
-4.0,1.0,0.291
-11.0,-2.0,0.292
-11.0,-4.0,0.293
-2.0,-1.0,0.294
8.0,2.0,0.295
12.0,2.0,0.296
9.0,1.0,0.297
0.0,-1.0,0.298
-8.0,-2.0,0.299
-14.0,-3.0,0.3
-8.0,-6.0,0.301
6.0,-4.0,0.302
25.0,-2.0,0.303
35.0,0.0,0.304
33.0,0.0,0.305
28.0,1.0,0.306
25.0,3.0,0.307
21.0,2.0,0.308
10.0,0.0,0.309
-6.0,0.0,0.31
-11.0,0.0,0.311
-2.0,2.0,0.312
7.0,1.0,0.313
2.0,0.0,0.314
-4.0,2.0,0.315
-5.0,3.0,0.316
0.0,3.0,0.317
0.0,-1.0,0.318
-6.0,-4.0,0.319
-10.0,-3.0,0.32
-7.0,-6.0,0.321
-4.0,-8.0,0.322
-1.0,-11.0,0.323
3.0,-8.0,0.324
5.0,-1.0,0.325
2.0,5.0,0.326
0.0,6.0,0.327
6.0,1.0,0.328
12.0,-3.0,0.329
6.0,-4.0,0.33
-3.0,-1.0,0.331
-1.0,1.0,0.332
7.0,2.0,0.333
6.0,0.0,0.334
-2.0,-2.0,0.335
-4.0,0.0,0.336
2.0,2.0,0.337
7.0,3.0,0.338
3.0,0.0,0.339
-2.0,0.0,0.34
-2.0,-4.0,0.341
-1.0,-5.0,0.342
1.0,-4.0,0.343
6.0,-2.0,0.344
8.0,1.0,0.345
0.0,4.0,0.346
-5.0,3.0,0.347
-1.0,1.0,0.348
5.0,0.0,0.349
2.0,2.0,0.35
-4.0,1.0,0.351
-2.0,-1.0,0.352
4.0,-3.0,0.353
3.0,-2.0,0.354
-1.0,-2.0,0.355
-1.0,-1.0,0.356
3.0,0.0,0.357
3.0,0.0,0.358
0.0,-1.0,0.359
0.0,-3.0,0.36
1.0,-7.0,0.361
1.0,-7.0,0.362
2.0,-3.0,0.363
10.0,1.0,0.364
14.0,6.0,0.365
10.0,6.0,0.366
2.0,3.0,0.367
0.0,1.0,0.368
1.0,1.0,0.369
3.0,2.0,0.37
9.0,4.0,0.371
20.0,6.0,0.372
25.0,5.0,0.373
14.0,2.0,0.374
-6.0,-1.0,0.375
-15.0,-2.0,0.376
-9.0,-1.0,0.377
-6.0,-4.0,0.378
-9.0,-5.0,0.379
-14.0,-4.0,0.38
-9.0,-6.0,0.381
-1.0,-7.0,0.382
3.0,-7.0,0.383
5.0,-2.0,0.384
7.0,2.0,0.385
8.0,2.0,0.386
8.0,1.0,0.387
8.0,-1.0,0.388
9.0,0.0,0.389
8.0,2.0,0.39
6.0,1.0,0.391
4.0,-1.0,0.392
1.0,-4.0,0.393
-4.0,-5.0,0.394
-4.0,-4.0,0.395
0.0,-5.0,0.396
6.0,-4.0,0.397
5.0,-4.0,0.398
-3.0,-3.0,0.399
-15.0,0.0,0.4
-20.0,-3.0,0.401
-12.0,-3.0,0.402
7.0,-4.0,0.403
20.0,-2.0,0.404
19.0,2.0,0.405
13.0,7.0,0.406
17.0,8.0,0.407
28.0,1.0,0.408
28.0,-5.0,0.409
13.0,-4.0,0.41
-3.0,-1.0,0.411
-4.0,1.0,0.412
3.0,1.0,0.413
6.0,1.0,0.414
0.0,0.0,0.415
-4.0,-3.0,0.416
-2.0,-5.0,0.417
-1.0,-2.0,0.418
-1.0,1.0,0.419
-3.0,1.0,0.42
-5.0,-4.0,0.421
-5.0,-6.0,0.422
-4.0,-3.0,0.423
1.0,1.0,0.424
4.0,6.0,0.425
2.0,7.0,0.426
0.0,4.0,0.427
1.0,-1.0,0.428
2.0,-3.0,0.429
-1.0,0.0,0.43
-3.0,2.0,0.431
-1.0,-1.0,0.432
2.0,-3.0,0.433
3.0,-2.0,0.434
1.0,-2.0,0.435
-1.0,-2.0,0.436
-1.0,-2.0,0.437
-3.0,-1.0,0.438
-3.0,-2.0,0.439
-4.0,-4.0,0.44
-4.0,-6.0,0.441
-1.0,-4.0,0.442
11.0,-2.0,0.443
22.0,-1.0,0.444
23.0,4.0,0.445
9.0,8.0,0.446
-8.0,5.0,0.447
-16.0,-1.0,0.448
-9.0,-1.0,0.449
3.0,4.0,0.45
14.0,4.0,0.451
15.0,-1.0,0.452
12.0,-4.0,0.453
11.0,-1.0,0.454
13.0,0.0,0.455
12.0,-2.0,0.456
7.0,0.0,0.457
1.0,1.0,0.458
1.0,-1.0,0.459
-2.0,-7.0,0.46
-9.0,-11.0,0.461
-11.0,-8.0,0.462
-3.0,-5.0,0.463
8.0,-5.0,0.464
6.0,-1.0,0.465
-3.0,7.0,0.466
-5.0,9.0,0.467
0.0,4.0,0.468
3.0,0.0,0.469
-1.0,0.0,0.47
-6.0,1.0,0.471
-2.0,0.0,0.472
4.0,0.0,0.473
4.0,3.0,0.474
1.0,2.0,0.475
3.0,-2.0,0.476
10.0,-3.0,0.477
10.0,-2.0,0.478
5.0,-2.0,0.479
-2.0,-3.0,0.48
-6.0,-6.0,0.481
-3.0,-5.0,0.482
2.0,-3.0,0.483
7.0,-4.0,0.484
10.0,-3.0,0.485
7.0,1.0,0.486
6.0,2.0,0.487
5.0,1.0,0.488
4.0,1.0,0.489
3.0,4.0,0.49
4.0,5.0,0.491
7.0,3.0,0.492
7.0,2.0,0.493
6.0,3.0,0.494
12.0,2.0,0.495
21.0,-2.0,0.496
25.0,-2.0,0.497
18.0,-1.0,0.498
2.0,0.0,0.499
-12.0,-2.0,0.5
-16.0,-8.0,0.501
-12.0,-8.0,0.502
-4.0,-3.0,0.503
2.0,0.0,0.504
4.0,2.0,0.505
0.0,3.0,0.506
-4.0,2.0,0.507
-6.0,2.0,0.508
-6.0,-1.0,0.509
-4.0,-4.0,0.51
-3.0,-5.0,0.511
-2.0,-2.0,0.512
0.0,2.0,0.513
3.0,4.0,0.514
6.0,4.0,0.515
5.0,2.0,0.516
0.0,1.0,0.517
-9.0,-1.0,0.518
-15.0,-3.0,0.519
-16.0,-6.0,0.52
-9.0,-10.0,0.521
1.0,-10.0,0.522
14.0,-8.0,0.523
22.0,-3.0,0.524
22.0,0.0,0.525
18.0,2.0,0.526
17.0,2.0,0.527
20.0,0.0,0.528
20.0,1.0,0.529
14.0,3.0,0.53
6.0,5.0,0.531
4.0,3.0,0.532
4.0,2.0,0.533
3.0,3.0,0.534
1.0,4.0,0.535
1.0,4.0,0.536
3.0,2.0,0.537
2.0,-4.0,0.538
-3.0,-6.0,0.539
-9.0,-8.0,0.54
-13.0,-7.0,0.541
-10.0,-5.0,0.542
-2.0,-5.0,0.543
5.0,-6.0,0.544
3.0,-5.0,0.545
-4.0,-2.0,0.546
-6.0,0.0,0.547
-3.0,-3.0,0.548
0.0,-6.0,0.549
0.0,-5.0,0.55
1.0,0.0,0.551
2.0,3.0,0.552
2.0,1.0,0.553
0.0,0.0,0.554
-2.0,-2.0,0.555
-1.0,-3.0,0.556
-1.0,-2.0,0.557
-1.0,-3.0,0.558
0.0,-3.0,0.559
0.0,-3.0,0.56
-2.0,-7.0,0.561
-2.0,-7.0,0.562
6.0,-4.0,0.563
15.0,0.0,0.564
11.0,3.0,0.565
-2.0,5.0,0.566
-10.0,4.0,0.567
-4.0,2.0,0.568
11.0,1.0,0.569
20.0,2.0,0.57
16.0,2.0,0.571
3.0,0.0,0.572
-4.0,-1.0,0.573
4.0,-1.0,0.574
21.0,-1.0,0.575
25.0,-2.0,0.576
10.0,-4.0,0.577
-11.0,-6.0,0.578
-17.0,-6.0,0.579
-13.0,-5.0,0.58
-11.0,-8.0,0.581
-10.0,-8.0,0.582
2.0,-6.0,0.583
21.0,-3.0,0.584
27.0,1.0,0.585
14.0,5.0,0.586
0.0,7.0,0.587
-1.0,7.0,0.588
4.0,8.0,0.589
4.0,8.0,0.59
-1.0,5.0,0.591
-1.0,0.0,0.592
0.0,-1.0,0.593
2.0,2.0,0.594
1.0,4.0,0.595
4.0,7.0,0.596
6.0,8.0,0.597
0.0,-9.0,0.598
1.0,-7.0,0.599
2.0,-6.0,0.6
1.0,-9.0,0.601
2.0,-10.0,0.602
5.0,-7.0,0.603
9.0,-4.0,0.604
9.0,0.0,0.605
8.0,5.0,0.606
8.0,3.0,0.607
9.0,2.0,0.608
10.0,2.0,0.609
10.0,2.0,0.61
5.0,0.0,0.611
1.0,-2.0,0.612
1.0,-2.0,0.613
1.0,-3.0,0.614
1.0,-2.0,0.615
0.0,-1.0,0.616
1.0,-1.0,0.617
-3.0,-7.0,0.618
-1.0,-6.0,0.619
0.0,-5.0,0.62
-1.0,-7.0,0.621
0.0,-8.0,0.622
7.0,-6.0,0.623
13.0,-4.0,0.624
12.0,0.0,0.625
11.0,3.0,0.626
11.0,2.0,0.627
12.0,1.0,0.628
14.0,1.0,0.629
14.0,1.0,0.63
6.0,0.0,0.631
-1.0,-2.0,0.632
-1.0,-2.0,0.633
-1.0,-3.0,0.634
-2.0,-2.0,0.635
-3.0,-1.0,0.636
-1.0,-1.0,0.637
2.0,0.0,0.638
1.0,-1.0,0.639
-3.0,-3.0,0.64
-7.0,-9.0,0.641
-9.0,-8.0,0.642
1.0,-1.0,0.643
15.0,5.0,0.644
21.0,9.0,0.645
10.0,9.0,0.646
-11.0,9.0,0.647
-26.0,5.0,0.648
-24.0,1.0,0.649
-9.0,3.0,0.65
9.0,7.0,0.651
14.0,5.0,0.652
7.0,-1.0,0.653
4.0,-3.0,0.654
14.0,1.0,0.655
24.0,3.0,0.656
26.0,-1.0,0.657
19.0,-7.0,0.658
10.0,-7.0,0.659
2.0,-3.0,0.66
-5.0,-6.0,0.661
-7.0,-9.0,0.662
-1.0,-6.0,0.663
8.0,0.0,0.664
10.0,2.0,0.665
4.0,3.0,0.666
0.0,6.0,0.667
0.0,7.0,0.668
-2.0,2.0,0.669
-4.0,-1.0,0.67
-4.0,-2.0,0.671
0.0,-1.0,0.672
6.0,-1.0,0.673
6.0,0.0,0.674
1.0,3.0,0.675
-3.0,3.0,0.676
-4.0,-1.0,0.677
-4.0,-7.0,0.678
-5.0,-7.0,0.679
-6.0,-5.0,0.68
-7.0,-6.0,0.681
-7.0,-7.0,0.682
-1.0,-4.0,0.683
3.0,0.0,0.684
3.0,0.0,0.685
3.0,0.0,0.686
3.0,2.0,0.687
4.0,1.0,0.688
5.0,-1.0,0.689
6.0,-2.0,0.69
8.0,-1.0,0.691
10.0,0.0,0.692
6.0,-1.0,0.693
2.0,0.0,0.694
3.0,2.0,0.695
5.0,1.0,0.696
5.0,2.0,0.697
2.0,0.0,0.698
2.0,0.0,0.699
0.0,0.0,0.7
-3.0,-1.0,0.701
-5.0,-4.0,0.702
1.0,-3.0,0.703
13.0,-1.0,0.704
17.0,1.0,0.705
10.0,4.0,0.706
5.0,4.0,0.707
5.0,3.0,0.708
6.0,1.0,0.709
2.0,0.0,0.71
-1.0,0.0,0.711
1.0,-1.0,0.712
4.0,-2.0,0.713
2.0,-3.0,0.714
1.0,-3.0,0.715
4.0,-4.0,0.716
6.0,-4.0,0.717
0.0,-4.0,0.718
-4.0,-4.0,0.719
-7.0,-4.0,0.72
-5.0,-6.0,0.721
-4.0,-4.0,0.722
0.0,-1.0,0.723
7.0,1.0,0.724
11.0,2.0,0.725
6.0,5.0,0.726
0.0,5.0,0.727
2.0,3.0,0.728
5.0,-1.0,0.729
4.0,0.0,0.73
0.0,2.0,0.731
-2.0,2.0,0.732
0.0,0.0,0.733
2.0,-1.0,0.734
2.0,0.0,0.735
3.0,0.0,0.736
6.0,-2.0,0.737
6.0,-5.0,0.738
2.0,-4.0,0.739
-2.0,-3.0,0.74
-6.0,-5.0,0.741
-6.0,-5.0,0.742
-1.0,-1.0,0.743
7.0,1.0,0.744
8.0,1.0,0.745
6.0,0.0,0.746
8.0,0.0,0.747
13.0,-1.0,0.748
10.0,-4.0,0.749
0.0,-5.0,0.75
-3.0,-1.0,0.751
1.0,2.0,0.752
4.0,1.0,0.753
0.0,-1.0,0.754
-1.0,-1.0,0.755
0.0,2.0,0.756
-1.0,3.0,0.757
-6.0,1.0,0.758
-6.0,0.0,0.759
-6.0,-3.0,0.76
-4.0,-7.0,0.761
-2.0,-6.0,0.762
3.0,-4.0,0.763
7.0,-2.0,0.764
5.0,-1.0,0.765
3.0,2.0,0.766
0.0,6.0,0.767
-2.0,6.0,0.768
-5.0,4.0,0.769
-8.0,3.0,0.77
-9.0,1.0,0.771
-8.0,-2.0,0.772
5.0,-4.0,0.773
15.0,-2.0,0.774
16.0,0.0,0.775
18.0,0.0,0.776
17.0,-1.0,0.777
16.0,-4.0,0.778
19.0,-4.0,0.779
15.0,-2.0,0.78
4.0,-4.0,0.781
-3.0,-2.0,0.782
0.0,0.0,0.783
8.0,2.0,0.784
9.0,3.0,0.785
1.0,3.0,0.786
-4.0,1.0,0.787
-1.0,0.0,0.788
1.0,-1.0,0.789
-2.0,1.0,0.79
-2.0,0.0,0.791
3.0,-2.0,0.792
5.0,-4.0,0.793
2.0,-3.0,0.794
0.0,-1.0,0.795
2.0,-1.0,0.796
3.0,1.0,0.797
1.0,2.0,0.798
0.0,2.0,0.799
0.0,0.0,0.8
-2.0,-7.0,0.801
-2.0,-8.0,0.802
1.0,-5.0,0.803
7.0,1.0,0.804
7.0,5.0,0.805
3.0,5.0,0.806
1.0,1.0,0.807
2.0,-2.0,0.808
-2.0,-3.0,0.809
-8.0,-2.0,0.81
-7.0,-2.0,0.811
-2.0,-3.0,0.812
-1.0,-2.0,0.813
-3.0,-1.0,0.814
0.0,0.0,0.815
8.0,-1.0,0.816
12.0,-2.0,0.817
6.0,-2.0,0.818
1.0,-3.0,0.819
-1.0,-4.0,0.82
0.0,-5.0,0.821
2.0,-6.0,0.822
8.0,-4.0,0.823
13.0,0.0,0.824
12.0,3.0,0.825
6.0,4.0,0.826
4.0,3.0,0.827
7.0,3.0,0.828
6.0,4.0,0.829
2.0,4.0,0.83
0.0,2.0,0.831
1.0,1.0,0.832
-1.0,0.0,0.833
-6.0,-1.0,0.834
-5.0,-1.0,0.835
0.0,0.0,0.836
6.0,2.0,0.837
2.0,-1.0,0.838
-2.0,-4.0,0.839
-5.0,-6.0,0.84
-5.0,-7.0,0.841
-4.0,-8.0,0.842
0.0,-8.0,0.843
6.0,-3.0,0.844
7.0,3.0,0.845
4.0,6.0,0.846
3.0,3.0,0.847
7.0,2.0,0.848
11.0,5.0,0.849
9.0,8.0,0.85
6.0,7.0,0.851
6.0,4.0,0.852
6.0,4.0,0.853
4.0,5.0,0.854
2.0,4.0,0.855
1.0,2.0,0.856
2.0,2.0,0.857
3.0,-1.0,0.858
3.0,0.0,0.859
0.0,-1.0,0.86
-6.0,-5.0,0.861
-7.0,-9.0,0.862
0.0,-9.0,0.863
8.0,-5.0,0.864
8.0,0.0,0.865
2.0,1.0,0.866
1.0,-1.0,0.867
3.0,0.0,0.868
4.0,1.0,0.869
5.0,-1.0,0.87
8.0,-3.0,0.871
10.0,-2.0,0.872
8.0,-1.0,0.873
1.0,-2.0,0.874
-1.0,-4.0,0.875
2.0,-4.0,0.876
5.0,-3.0,0.877
4.0,-5.0,0.878
1.0,-8.0,0.879
-2.0,-5.0,0.88
-4.0,-6.0,0.881
-4.0,-7.0,0.882
2.0,-4.0,0.883
11.0,0.0,0.884
13.0,4.0,0.885
9.0,4.0,0.886
3.0,2.0,0.887
0.0,3.0,0.888
0.0,3.0,0.889
-1.0,2.0,0.89
0.0,0.0,0.891
4.0,-1.0,0.892
5.0,0.0,0.893
2.0,2.0,0.894
0.0,5.0,0.895
-1.0,4.0,0.896
0.0,1.0,0.897
-1.0,-1.0,0.898
-2.0,-2.0,0.899
-4.0,-2.0,0.9
-6.0,-7.0,0.901
-5.0,-9.0,0.902
0.0,-5.0,0.903
10.0,1.0,0.904
11.0,4.0,0.905
5.0,4.0,0.906
1.0,3.0,0.907
3.0,3.0,0.908
3.0,2.0,0.909
-1.0,1.0,0.91
-4.0,0.0,0.911
-3.0,-2.0,0.912
2.0,0.0,0.913
3.0,4.0,0.914
3.0,5.0,0.915
6.0,1.0,0.916
9.0,-2.0,0.917
5.0,-4.0,0.918
-2.0,-3.0,0.919
-5.0,-4.0,0.92
-6.0,-7.0,0.921
-4.0,-5.0,0.922
1.0,-3.0,0.923
7.0,-1.0,0.924
6.0,0.0,0.925
2.0,5.0,0.926
0.0,6.0,0.927
2.0,3.0,0.928
2.0,-1.0,0.929
2.0,0.0,0.93
4.0,3.0,0.931
9.0,0.0,0.932
7.0,-4.0,0.933
1.0,-3.0,0.934
0.0,1.0,0.935
5.0,1.0,0.936
8.0,0.0,0.937
4.0,-4.0,0.938
0.0,-4.0,0.939
0.0,-5.0,0.94
-1.0,-11.0,0.941
-5.0,-11.0,0.942
-4.0,-7.0,0.943
3.0,0.0,0.944
7.0,2.0,0.945
4.0,1.0,0.946
2.0,0.0,0.947
6.0,2.0,0.948
6.0,3.0,0.949
0.0,2.0,0.95
-5.0,0.0,0.951
-2.0,-3.0,0.952
3.0,-3.0,0.953
2.0,-2.0,0.954
1.0,0.0,0.955
5.0,2.0,0.956
7.0,2.0,0.957
4.0,1.0,0.958
0.0,-1.0,0.959
-2.0,-1.0,0.96
-3.0,-4.0,0.961
0.0,-2.0,0.962
6.0,0.0,0.963
13.0,0.0,0.964
11.0,2.0,0.965
4.0,3.0,0.966
1.0,2.0,0.967
3.0,-2.0,0.968
3.0,-3.0,0.969
0.0,1.0,0.97
0.0,5.0,0.971
3.0,4.0,0.972
4.0,0.0,0.973
1.0,-1.0,0.974
0.0,0.0,0.975
2.0,-1.0,0.976
5.0,-1.0,0.977
7.0,0.0,0.978
8.0,2.0,0.979
4.0,2.0,0.98
-3.0,-2.0,0.981
-5.0,-4.0,0.982
-1.0,-2.0,0.983
6.0,0.0,0.984
6.0,-1.0,0.985
2.0,0.0,0.986
0.0,0.0,0.987
2.0,0.0,0.988
1.0,-2.0,0.989
-1.0,-1.0,0.99
-2.0,1.0,0.991
0.0,2.0,0.992
3.0,3.0,0.993
5.0,4.0,0.994
6.0,3.0,0.995
6.0,-1.0,0.996
5.0,-5.0,0.997
1.0,-6.0,0.998
0.0,-2.0,0.999
-3.0,1.0,1.0
-3.0,-1.0,1.001
-1.0,-3.0,1.002
2.0,-6.0,1.003
3.0,-5.0,1.004
-1.0,-3.0,1.005
-6.0,-1.0,1.006
-4.0,-1.0,1.007
1.0,-4.0,1.008
4.0,-5.0,1.009
2.0,-3.0,1.01
-1.0,-2.0,1.011
0.0,-2.0,1.012
3.0,-1.0,1.013
1.0,1.0,1.014
-1.0,3.0,1.015
0.0,2.0,1.016
5.0,0.0,1.017
8.0,-1.0,1.018
6.0,-2.0,1.019
1.0,-2.0,1.02
0.0,-6.0,1.021
3.0,-6.0,1.022
7.0,-5.0,1.023
10.0,0.0,1.024
9.0,2.0,1.025
6.0,0.0,1.026
2.0,1.0,1.027
2.0,2.0,1.028
3.0,2.0,1.029
4.0,5.0,1.03
5.0,6.0,1.031
7.0,4.0,1.032
10.0,3.0,1.033
12.0,4.0,1.034
17.0,5.0,1.035
23.0,4.0,1.036
24.0,1.0,1.037
9.0,-1.0,1.038
-12.0,-3.0,1.039
-25.0,-2.0,1.04
-27.0,-6.0,1.041
-22.0,-7.0,1.042
-14.0,-7.0,1.043
-3.0,-4.0,1.044
7.0,0.0,1.045
12.0,0.0,1.046
11.0,-2.0,1.047
10.0,-3.0,1.048
8.0,0.0,1.049
5.0,4.0,1.05
2.0,5.0,1.051
4.0,2.0,1.052
6.0,0.0,1.053
4.0,0.0,1.054
1.0,0.0,1.055
0.0,-1.0,1.056
2.0,-1.0,1.057
0.0,-2.0,1.058
0.0,-3.0,1.059
0.0,-5.0,1.06
-2.0,-7.0,1.061
-4.0,-8.0,1.062
0.0,-8.0,1.063
7.0,-5.0,1.064
10.0,0.0,1.065
4.0,5.0,1.066
-1.0,3.0,1.067
1.0,0.0,1.068
3.0,3.0,1.069
1.0,5.0,1.07
0.0,2.0,1.071
1.0,-2.0,1.072
5.0,-2.0,1.073
3.0,0.0,1.074
1.0,1.0,1.075
4.0,-1.0,1.076
7.0,-1.0,1.077
5.0,-2.0,1.078
2.0,-3.0,1.079
-1.0,-4.0,1.08
-1.0,-4.0,1.081
-1.0,-3.0,1.082
1.0,-3.0,1.083
4.0,-2.0,1.084
6.0,2.0,1.085
3.0,5.0,1.086
0.0,2.0,1.087
-1.0,0.0,1.088
2.0,1.0,1.089
6.0,3.0,1.09
6.0,3.0,1.091
4.0,2.0,1.092
3.0,2.0,1.093
3.0,3.0,1.094
4.0,2.0,1.095
1.0,1.0,1.096
2.0,1.0,1.097
3.0,2.0,1.098
3.0,0.0,1.099
-2.0,-3.0,1.1
-7.0,-7.0,1.101
-5.0,-5.0,1.102
3.0,-4.0,1.103
9.0,-5.0,1.104
5.0,-4.0,1.105
-2.0,-1.0,1.106
-3.0,0.0,1.107
2.0,1.0,1.108
5.0,2.0,1.109
3.0,3.0,1.11
2.0,0.0,1.111
6.0,-2.0,1.112
9.0,-1.0,1.113
5.0,0.0,1.114
2.0,0.0,1.115
3.0,0.0,1.116
4.0,2.0,1.117
3.0,4.0,1.118
0.0,1.0,1.119
-2.0,-3.0,1.12
-4.0,-6.0,1.121
-5.0,-6.0,1.122
-2.0,-6.0,1.123
6.0,-8.0,1.124
8.0,-5.0,1.125
3.0,1.0,1.126
0.0,4.0,1.127
3.0,2.0,1.128
8.0,0.0,1.129
8.0,0.0,1.13
6.0,0.0,1.131
4.0,-1.0,1.132
7.0,-1.0,1.133
8.0,0.0,1.134
4.0,0.0,1.135
2.0,-1.0,1.136
2.0,0.0,1.137
2.0,0.0,1.138
0.0,0.0,1.139
-6.0,-2.0,1.14
-10.0,-6.0,1.141
-9.0,-6.0,1.142
-3.0,-5.0,1.143
2.0,-1.0,1.144
3.0,0.0,1.145
2.0,2.0,1.146
1.0,0.0,1.147
2.0,-1.0,1.148
5.0,0.0,1.149
5.0,1.0,1.15
3.0,3.0,1.151
2.0,1.0,1.152
2.0,0.0,1.153
2.0,2.0,1.154
1.0,1.0,1.155
0.0,-1.0,1.156
0.0,-1.0,1.157
0.0,0.0,1.158
-1.0,1.0,1.159
-4.0,2.0,1.16
-6.0,-3.0,1.161
-3.0,-7.0,1.162
4.0,-4.0,1.163
11.0,0.0,1.164
13.0,1.0,1.165
11.0,3.0,1.166
7.0,1.0,1.167
1.0,0.0,1.168
-6.0,4.0,1.169
-17.0,6.0,1.17
-17.0,4.0,1.171
-3.0,2.0,1.172
20.0,0.0,1.173
33.0,-2.0,1.174
29.0,0.0,1.175
15.0,1.0,1.176
4.0,0.0,1.177
0.0,-2.0,1.178
3.0,-2.0,1.179
6.0,-4.0,1.18
2.0,-8.0,1.181
-4.0,-6.0,1.182
-3.0,-2.0,1.183
5.0,0.0,1.184
8.0,3.0,1.185
-1.0,6.0,1.186
-8.0,6.0,1.187
-3.0,0.0,1.188
3.0,-4.0,1.189
1.0,0.0,1.19
-2.0,2.0,1.191
1.0,0.0,1.192
3.0,-1.0,1.193
-1.0,-2.0,1.194
-5.0,-4.0,1.195
-3.0,-5.0,1.196
0.0,-3.0,1.197
-3.0,-2.0,1.198
-7.0,-2.0,1.199
-9.0,-3.0,1.2
-8.0,-7.0,1.201
-6.0,-9.0,1.202
-1.0,-7.0,1.203
6.0,-4.0,1.204
8.0,-1.0,1.205
1.0,1.0,1.206
-1.0,1.0,1.207
4.0,2.0,1.208
9.0,1.0,1.209
5.0,0.0,1.21
2.0,1.0,1.211
5.0,3.0,1.212
8.0,2.0,1.213
4.0,1.0,1.214
0.0,1.0,1.215
2.0,2.0,1.216
5.0,2.0,1.217
5.0,1.0,1.218
3.0,-1.0,1.219
-1.0,-3.0,1.22
-2.0,-5.0,1.221
-5.0,-1.0,1.222
-1.0,1.0,1.223
9.0,-1.0,1.224
14.0,-1.0,1.225
7.0,2.0,1.226
1.0,2.0,1.227
4.0,0.0,1.228
8.0,-3.0,1.229
4.0,-1.0,1.23
0.0,1.0,1.231
-1.0,0.0,1.232
2.0,-1.0,1.233
3.0,-3.0,1.234
4.0,-4.0,1.235
8.0,-6.0,1.236
10.0,-5.0,1.237
2.0,-3.0,1.238
-1.0,-1.0,1.239
-2.0,0.0,1.24
-2.0,-3.0,1.241
-4.0,-5.0,1.242
-1.0,-1.0,1.243
6.0,2.0,1.244
11.0,2.0,1.245
6.0,1.0,1.246
2.0,0.0,1.247
4.0,0.0,1.248
3.0,1.0,1.249
-2.0,3.0,1.25
-6.0,1.0,1.251
-2.0,-1.0,1.252
3.0,0.0,1.253
4.0,2.0,1.254
3.0,1.0,1.255
3.0,0.0,1.256
3.0,0.0,1.257
2.0,0.0,1.258
2.0,-1.0,1.259
0.0,-4.0,1.26
-3.0,-6.0,1.261
-4.0,-5.0,1.262
0.0,-5.0,1.263
10.0,-3.0,1.264
11.0,0.0,1.265
3.0,3.0,1.266
-1.0,1.0,1.267
1.0,-2.0,1.268
2.0,-2.0,1.269
0.0,2.0,1.27
0.0,3.0,1.271
4.0,1.0,1.272
4.0,0.0,1.273
-2.0,0.0,1.274
-5.0,0.0,1.275
-4.0,2.0,1.276
0.0,3.0,1.277
0.0,2.0,1.278
0.0,-2.0,1.279
1.0,-6.0,1.28
-2.0,-9.0,1.281
-4.0,-8.0,1.282
0.0,-5.0,1.283
8.0,0.0,1.284
8.0,4.0,1.285
4.0,6.0,1.286
5.0,4.0,1.287
12.0,3.0,1.288
14.0,1.0,1.289
8.0,1.0,1.29
4.0,2.0,1.291
8.0,3.0,1.292
10.0,5.0,1.293
8.0,5.0,1.294
4.0,4.0,1.295
3.0,3.0,1.296
3.0,4.0,1.297
0.0,0.0,1.298
-2.0,-4.0,1.299
-5.0,-7.0,1.3
-7.0,-11.0,1.301
-4.0,-10.0,1.302
4.0,-6.0,1.303
11.0,-2.0,1.304
9.0,0.0,1.305
2.0,2.0,1.306
0.0,1.0,1.307
1.0,0.0,1.308
1.0,-2.0,1.309
0.0,0.0,1.31
0.0,5.0,1.311
0.0,5.0,1.312
-2.0,3.0,1.313
-2.0,3.0,1.314
2.0,3.0,1.315
7.0,3.0,1.316
7.0,3.0,1.317
3.0,3.0,1.318
1.0,3.0,1.319
0.0,1.0,1.32
-3.0,-3.0,1.321
-5.0,-3.0,1.322
-2.0,0.0,1.323
5.0,4.0,1.324
6.0,4.0,1.325
1.0,0.0,1.326
1.0,-3.0,1.327
2.0,-4.0,1.328
0.0,-2.0,1.329
-3.0,-1.0,1.33
-3.0,-5.0,1.331
-1.0,-7.0,1.332
-1.0,-10.0,1.333
-1.0,-10.0,1.334
2.0,-8.0,1.335
5.0,-6.0,1.336
5.0,-3.0,1.337
0.0,-4.0,1.338
-2.0,-7.0,1.339
-3.0,-6.0,1.34
-2.0,-8.0,1.341
1.0,-9.0,1.342
9.0,-9.0,1.343
16.0,-7.0,1.344
13.0,-1.0,1.345
4.0,3.0,1.346
0.0,2.0,1.347
5.0,0.0,1.348
10.0,1.0,1.349
10.0,3.0,1.35
7.0,3.0,1.351
6.0,0.0,1.352
5.0,-1.0,1.353
2.0,-2.0,1.354
1.0,0.0,1.355
4.0,5.0,1.356
7.0,7.0,1.357
8.0,3.0,1.358
6.0,-4.0,1.359
0.0,-6.0,1.36
-3.0,-5.0,1.361
-4.0,-2.0,1.362
-2.0,-1.0,1.363
-4.0,0.0,1.364
-14.0,3.0,1.365
-21.0,7.0,1.366
-13.0,7.0,1.367
2.0,2.0,1.368
11.0,-2.0,1.369
7.0,-2.0,1.37
4.0,0.0,1.371
10.0,-1.0,1.372
19.0,0.0,1.373
24.0,2.0,1.374
24.0,5.0,1.375
18.0,3.0,1.376
11.0,-1.0,1.377
4.0,-1.0,1.378
3.0,0.0,1.379
0.0,-2.0,1.38
-5.0,-7.0,1.381
-7.0,-6.0,1.382
-2.0,-2.0,1.383
3.0,1.0,1.384
4.0,0.0,1.385
4.0,0.0,1.386
5.0,1.0,1.387
2.0,0.0,1.388
-5.0,-1.0,1.389
-9.0,0.0,1.39
-4.0,2.0,1.391
0.0,2.0,1.392
-1.0,0.0,1.393
-5.0,1.0,1.394
-4.0,2.0,1.395
2.0,0.0,1.396
7.0,-1.0,1.397
5.0,-2.0,1.398
2.0,0.0,1.399
0.0,0.0,1.4
-2.0,-4.0,1.401
-4.0,-5.0,1.402
0.0,-3.0,1.403
5.0,-1.0,1.404
4.0,3.0,1.405
-2.0,6.0,1.406
-4.0,6.0,1.407
-1.0,1.0,1.408
1.0,-1.0,1.409
-1.0,4.0,1.41
-3.0,7.0,1.411
0.0,4.0,1.412
5.0,-1.0,1.413
7.0,-2.0,1.414
6.0,0.0,1.415
6.0,0.0,1.416
6.0,-1.0,1.417
2.0,-4.0,1.418
-1.0,-4.0,1.419
-2.0,-4.0,1.42
-4.0,-7.0,1.421
-3.0,-8.0,1.422
1.0,-9.0,1.423
8.0,-7.0,1.424
10.0,-2.0,1.425
6.0,2.0,1.426
2.0,1.0,1.427
6.0,-2.0,1.428
11.0,-1.0,1.429
11.0,3.0,1.43
11.0,7.0,1.431
10.0,4.0,1.432
6.0,2.0,1.433
0.0,3.0,1.434
-2.0,2.0,1.435
1.0,-1.0,1.436
5.0,-2.0,1.437
2.0,-2.0,1.438
-2.0,0.0,1.439
-4.0,-2.0,1.44
-5.0,-6.0,1.441
-5.0,-5.0,1.442
0.0,-3.0,1.443
8.0,-2.0,1.444
8.0,0.0,1.445
1.0,3.0,1.446
-2.0,4.0,1.447
1.0,2.0,1.448
1.0,3.0,1.449
-2.0,5.0,1.45
0.0,4.0,1.451
4.0,-2.0,1.452
7.0,-5.0,1.453
1.0,-3.0,1.454
-3.0,0.0,1.455
-1.0,-1.0,1.456
4.0,-4.0,1.457
3.0,-7.0,1.458
1.0,-6.0,1.459
-2.0,-4.0,1.46
-5.0,-7.0,1.461
-7.0,-6.0,1.462
-3.0,-4.0,1.463
3.0,-2.0,1.464
7.0,0.0,1.465
4.0,2.0,1.466
3.0,3.0,1.467
6.0,2.0,1.468
8.0,0.0,1.469
0.0,0.0,1.47
-10.0,0.0,1.471
-13.0,1.0,1.472
-9.0,0.0,1.473
-1.0,0.0,1.474
4.0,-1.0,1.475
10.0,-2.0,1.476
13.0,-2.0,1.477
14.0,-4.0,1.478
13.0,-5.0,1.479
13.0,-4.0,1.48
12.0,-2.0,1.481
12.0,-2.0,1.482
12.0,-4.0,1.483
11.0,-5.0,1.484
9.0,-1.0,1.485
6.0,4.0,1.486
3.0,4.0,1.487
3.0,-1.0,1.488
2.0,-1.0,1.489
1.0,4.0,1.49
0.0,8.0,1.491
-3.0,4.0,1.492
-2.0,0.0,1.493
0.0,0.0,1.494
0.0,0.0,1.495
-2.0,-2.0,1.496
-2.0,-2.0,1.497
-1.0,-1.0,1.498
-2.0,1.0,1.499
-4.0,0.0,1.5
-8.0,-7.0,1.501
-7.0,-8.0,1.502
-2.0,-5.0,1.503
3.0,-1.0,1.504
3.0,1.0,1.505
0.0,2.0,1.506
-2.0,1.0,1.507
-1.0,1.0,1.508
0.0,2.0,1.509
0.0,4.0,1.51
-1.0,4.0,1.511
0.0,1.0,1.512
2.0,-1.0,1.513
0.0,0.0,1.514
-2.0,3.0,1.515
-1.0,2.0,1.516
3.0,1.0,1.517
7.0,-1.0,1.518
5.0,-2.0,1.519
-2.0,-3.0,1.52
-5.0,-7.0,1.521
-2.0,-9.0,1.522
3.0,-9.0,1.523
8.0,-7.0,1.524
8.0,-3.0,1.525
5.0,0.0,1.526
5.0,0.0,1.527
8.0,-2.0,1.528
10.0,-3.0,1.529
7.0,0.0,1.53
4.0,5.0,1.531
5.0,5.0,1.532
5.0,2.0,1.533
0.0,2.0,1.534
-3.0,3.0,1.535
0.0,2.0,1.536
5.0,0.0,1.537
3.0,-4.0,1.538
-1.0,-5.0,1.539
-4.0,-3.0,1.54
-6.0,-4.0,1.541
-5.0,-6.0,1.542
1.0,-8.0,1.543
12.0,-6.0,1.544
17.0,0.0,1.545
7.0,7.0,1.546
-3.0,6.0,1.547
-1.0,0.0,1.548
6.0,-2.0,1.549
2.0,3.0,1.55
-6.0,7.0,1.551
-6.0,4.0,1.552
2.0,0.0,1.553
6.0,0.0,1.554
2.0,3.0,1.555
0.0,1.0,1.556
4.0,0.0,1.557
6.0,-2.0,1.558
5.0,-2.0,1.559
2.0,-3.0,1.56
-1.0,-7.0,1.561
-4.0,-9.0,1.562
-3.0,-9.0,1.563
2.0,-6.0,1.564
6.0,-2.0,1.565
2.0,2.0,1.566
2.0,3.0,1.567
7.0,0.0,1.568
10.0,-2.0,1.569
6.0,0.0,1.57
2.0,3.0,1.571
6.0,2.0,1.572
11.0,0.0,1.573
6.0,-2.0,1.574
1.0,-1.0,1.575
0.0,-3.0,1.576
4.0,-2.0,1.577
3.0,0.0,1.578
-1.0,0.0,1.579
-6.0,0.0,1.58
-7.0,-5.0,1.581
-7.0,-6.0,1.582
-3.0,-5.0,1.583
5.0,-3.0,1.584
6.0,1.0,1.585
0.0,4.0,1.586
-2.0,5.0,1.587
2.0,2.0,1.588
6.0,-1.0,1.589
2.0,1.0,1.59
0.0,2.0,1.591
2.0,1.0,1.592
4.0,-1.0,1.593
3.0,0.0,1.594
2.0,1.0,1.595
4.0,1.0,1.596
6.0,1.0,1.597
5.0,0.0,1.598
3.0,1.0,1.599
1.0,-1.0,1.6
0.0,-5.0,1.601
-2.0,-4.0,1.602
0.0,-1.0,1.603
8.0,2.0,1.604
10.0,3.0,1.605
7.0,1.0,1.606
5.0,-1.0,1.607
6.0,-2.0,1.608
6.0,0.0,1.609
1.0,1.0,1.61
-1.0,1.0,1.611
0.0,0.0,1.612
0.0,0.0,1.613
-1.0,2.0,1.614
0.0,1.0,1.615
2.0,-2.0,1.616
3.0,-2.0,1.617
0.0,-3.0,1.618
-2.0,-2.0,1.619
-3.0,-5.0,1.62
-5.0,-10.0,1.621
-6.0,-8.0,1.622
-1.0,-6.0,1.623
9.0,-5.0,1.624
13.0,-4.0,1.625
8.0,0.0,1.626
3.0,4.0,1.627
3.0,1.0,1.628
6.0,-3.0,1.629
6.0,-3.0,1.63
4.0,1.0,1.631
2.0,4.0,1.632
2.0,2.0,1.633
-1.0,1.0,1.634
-3.0,0.0,1.635
0.0,2.0,1.636
5.0,4.0,1.637
5.0,-1.0,1.638
0.0,-1.0,1.639
-5.0,-2.0,1.64
-8.0,-3.0,1.641
-6.0,-5.0,1.642
0.0,-3.0,1.643
8.0,-1.0,1.644
13.0,1.0,1.645
10.0,3.0,1.646
3.0,1.0,1.647
2.0,-1.0,1.648
3.0,-1.0,1.649
2.0,-1.0,1.65
0.0,-1.0,1.651
2.0,-2.0,1.652
6.0,-1.0,1.653
6.0,0.0,1.654
2.0,-1.0,1.655
-1.0,-1.0,1.656
1.0,-1.0,1.657
1.0,0.0,1.658
0.0,-2.0,1.659
-3.0,-4.0,1.66
-4.0,-6.0,1.661
-4.0,-8.0,1.662
-1.0,-5.0,1.663
3.0,-1.0,1.664
7.0,4.0,1.665
7.0,7.0,1.666
7.0,3.0,1.667
9.0,-1.0,1.668
8.0,-1.0,1.669
4.0,-1.0,1.67
4.0,-2.0,1.671
9.0,-3.0,1.672
9.0,0.0,1.673
3.0,2.0,1.674
0.0,0.0,1.675
3.0,-1.0,1.676
9.0,-1.0,1.677
4.0,-1.0,1.678
-2.0,1.0,1.679
-5.0,-1.0,1.68
-6.0,-4.0,1.681
-5.0,-4.0,1.682
0.0,-3.0,1.683
8.0,-1.0,1.684
9.0,1.0,1.685
3.0,5.0,1.686
-1.0,2.0,1.687
1.0,-1.0,1.688
4.0,0.0,1.689
2.0,2.0,1.69
0.0,1.0,1.691
3.0,-2.0,1.692
7.0,-4.0,1.693
6.0,-1.0,1.694
2.0,1.0,1.695
-1.0,0.0,1.696
2.0,0.0,1.697
4.0,-1.0,1.698
3.0,-1.0,1.699
0.0,-1.0,1.7
-2.0,-3.0,1.701
0.0,-3.0,1.702
4.0,-4.0,1.703
6.0,-1.0,1.704
0.0,2.0,1.705
-8.0,3.0,1.706
-12.0,-1.0,1.707
-9.0,-7.0,1.708
-3.0,-6.0,1.709
1.0,-1.0,1.71
6.0,2.0,1.711
9.0,2.0,1.712
7.0,0.0,1.713
9.0,0.0,1.714
18.0,0.0,1.715
21.0,-1.0,1.716
16.0,-1.0,1.717
4.0,-1.0,1.718
1.0,0.0,1.719
0.0,1.0,1.72
-3.0,-2.0,1.721
-8.0,-4.0,1.722
-1.0,-2.0,1.723
11.0,0.0,1.724
12.0,1.0,1.725
1.0,3.0,1.726
-5.0,1.0,1.727
-2.0,-1.0,1.728
0.0,-1.0,1.729
0.0,0.0,1.73
0.0,-1.0,1.731
1.0,-2.0,1.732
0.0,-3.0,1.733
-2.0,-3.0,1.734
-1.0,-1.0,1.735
0.0,0.0,1.736
-2.0,-1.0,1.737
-4.0,-2.0,1.738
1.0,2.0,1.739
6.0,1.0,1.74
4.0,-8.0,1.741
-4.0,-12.0,1.742
-3.0,-8.0,1.743
9.0,-1.0,1.744
18.0,4.0,1.745
15.0,4.0,1.746
7.0,3.0,1.747
3.0,2.0,1.748
3.0,3.0,1.749
2.0,3.0,1.75
3.0,4.0,1.751
3.0,1.0,1.752
2.0,0.0,1.753
3.0,1.0,1.754
3.0,4.0,1.755
1.0,4.0,1.756
1.0,1.0,1.757
-2.0,-3.0,1.758
0.0,-3.0,1.759
0.0,-4.0,1.76
-2.0,-8.0,1.761
-4.0,-9.0,1.762
1.0,-6.0,1.763
5.0,-1.0,1.764
3.0,3.0,1.765
1.0,4.0,1.766
0.0,3.0,1.767
-1.0,0.0,1.768
3.0,-2.0,1.769
5.0,-3.0,1.77
3.0,-2.0,1.771
1.0,-1.0,1.772
-1.0,0.0,1.773
-3.0,3.0,1.774
-1.0,5.0,1.775
0.0,3.0,1.776
-1.0,0.0,1.777
-1.0,-4.0,1.778
-2.0,-3.0,1.779
-2.0,-3.0,1.78
-2.0,-8.0,1.781
0.0,-10.0,1.782
5.0,-10.0,1.783
9.0,-6.0,1.784
7.0,-2.0,1.785
4.0,1.0,1.786
5.0,1.0,1.787
9.0,0.0,1.788
7.0,2.0,1.789
1.0,6.0,1.79
0.0,7.0,1.791
5.0,2.0,1.792
7.0,-2.0,1.793
4.0,-1.0,1.794
2.0,0.0,1.795
4.0,-1.0,1.796
5.0,-2.0,1.797
2.0,-2.0,1.798
-1.0,1.0,1.799
-2.0,3.0,1.8
-5.0,-2.0,1.801
-7.0,-6.0,1.802
-4.0,-5.0,1.803
5.0,-3.0,1.804
9.0,-1.0,1.805
4.0,1.0,1.806
0.0,1.0,1.807
3.0,1.0,1.808
6.0,0.0,1.809
4.0,-1.0,1.81
1.0,0.0,1.811
4.0,2.0,1.812
7.0,2.0,1.813
4.0,2.0,1.814
2.0,2.0,1.815
4.0,2.0,1.816
5.0,0.0,1.817
0.0,-1.0,1.818
-4.0,-3.0,1.819
-5.0,-4.0,1.82
-3.0,-9.0,1.821
-2.0,-10.0,1.822
0.0,-7.0,1.823
5.0,-2.0,1.824
7.0,0.0,1.825
4.0,1.0,1.826
4.0,0.0,1.827
8.0,0.0,1.828
12.0,-1.0,1.829
8.0,-1.0,1.83
4.0,0.0,1.831
3.0,0.0,1.832
4.0,0.0,1.833
3.0,0.0,1.834
1.0,1.0,1.835
0.0,1.0,1.836
1.0,2.0,1.837
2.0,2.0,1.838
3.0,0.0,1.839
1.0,-4.0,1.84
-1.0,-8.0,1.841
-3.0,-8.0,1.842
1.0,-4.0,1.843
8.0,0.0,1.844
8.0,1.0,1.845
3.0,5.0,1.846
2.0,7.0,1.847
3.0,6.0,1.848
4.0,4.0,1.849
3.0,3.0,1.85
2.0,1.0,1.851
0.0,0.0,1.852
-2.0,-1.0,1.853
1.0,0.0,1.854
6.0,0.0,1.855
6.0,-2.0,1.856
1.0,-2.0,1.857
-2.0,-3.0,1.858
-1.0,-3.0,1.859
-3.0,-4.0,1.86
-4.0,-6.0,1.861
0.0,-6.0,1.862
11.0,-8.0,1.863
15.0,-7.0,1.864
8.0,-3.0,1.865
1.0,0.0,1.866
4.0,1.0,1.867
7.0,1.0,1.868
4.0,3.0,1.869
-1.0,5.0,1.87
-5.0,3.0,1.871
-3.0,-1.0,1.872
-2.0,-2.0,1.873
1.0,0.0,1.874
3.0,1.0,1.875
5.0,-2.0,1.876
5.0,1.0,1.877
3.0,3.0,1.878
1.0,1.0,1.879
0.0,0.0,1.88
-2.0,-2.0,1.881
-3.0,-5.0,1.882
1.0,-3.0,1.883
5.0,-1.0,1.884
4.0,4.0,1.885
3.0,7.0,1.886
3.0,2.0,1.887
2.0,-2.0,1.888
0.0,-3.0,1.889
-2.0,-4.0,1.89
3.0,-1.0,1.891
7.0,1.0,1.892
9.0,0.0,1.893
9.0,-1.0,1.894
3.0,0.0,1.895
0.0,2.0,1.896
1.0,0.0,1.897
3.0,-1.0,1.898
0.0,-3.0,1.899
-4.0,-4.0,1.9
-6.0,-8.0,1.901
-5.0,-10.0,1.902
0.0,-7.0,1.903
10.0,-2.0,1.904
11.0,3.0,1.905
3.0,5.0,1.906
-2.0,5.0,1.907
1.0,3.0,1.908
5.0,1.0,1.909
3.0,0.0,1.91
-2.0,2.0,1.911
-3.0,3.0,1.912
1.0,2.0,1.913
2.0,0.0,1.914
2.0,-2.0,1.915
3.0,1.0,1.916
5.0,5.0,1.917
0.0,3.0,1.918
-1.0,-2.0,1.919
-3.0,-5.0,1.92
-3.0,-7.0,1.921
-1.0,-6.0,1.922
3.0,-5.0,1.923
7.0,-4.0,1.924
8.0,0.0,1.925
9.0,3.0,1.926
5.0,5.0,1.927
1.0,3.0,1.928
4.0,1.0,1.929
7.0,2.0,1.93
6.0,3.0,1.931
5.0,1.0,1.932
5.0,-1.0,1.933
4.0,-1.0,1.934
4.0,0.0,1.935
3.0,-2.0,1.936
5.0,-2.0,1.937
6.0,-4.0,1.938
7.0,-2.0,1.939
2.0,-3.0,1.94
-3.0,-9.0,1.941
-3.0,-9.0,1.942
4.0,-6.0,1.943
13.0,0.0,1.944
10.0,5.0,1.945
0.0,5.0,1.946
-6.0,1.0,1.947
-3.0,-3.0,1.948
0.0,-3.0,1.949
-3.0,0.0,1.95
-4.0,2.0,1.951
-2.0,3.0,1.952
0.0,3.0,1.953
0.0,3.0,1.954
2.0,3.0,1.955
4.0,2.0,1.956
4.0,2.0,1.957
3.0,0.0,1.958
3.0,-1.0,1.959
0.0,-3.0,1.96
-4.0,-4.0,1.961
-4.0,-5.0,1.962
5.0,-3.0,1.963
14.0,-1.0,1.964
11.0,3.0,1.965
5.0,5.0,1.966
4.0,3.0,1.967
6.0,1.0,1.968
5.0,1.0,1.969
3.0,1.0,1.97
4.0,1.0,1.971
6.0,0.0,1.972
3.0,0.0,1.973
-2.0,0.0,1.974
-2.0,3.0,1.975
1.0,5.0,1.976
4.0,3.0,1.977
2.0,0.0,1.978
1.0,-2.0,1.979
0.0,-4.0,1.98
-7.0,-6.0,1.981
-15.0,-5.0,1.982
-15.0,-3.0,1.983
-3.0,0.0,1.984
11.0,4.0,1.985
13.0,4.0,1.986
11.0,0.0,1.987
9.0,-6.0,1.988
12.0,-4.0,1.989
13.0,2.0,1.99
13.0,6.0,1.991
13.0,4.0,1.992
10.0,-1.0,1.993
5.0,-2.0,1.994
0.0,-3.0,1.995
-2.0,-3.0,1.996
1.0,-2.0,1.997
1.0,-1.0,1.998
-1.0,0.0,1.999
-3.0,-1.0,2.0
-4.0,-6.0,2.001
-3.0,-6.0,2.002
2.0,-5.0,2.003
6.0,-1.0,2.004
6.0,2.0,2.005
2.0,2.0,2.006
2.0,0.0,2.007
5.0,-2.0,2.008
6.0,-3.0,2.009
2.0,-1.0,2.01
0.0,-1.0,2.011
-2.0,-1.0,2.012
-2.0,-2.0,2.013
0.0,-3.0,2.014
0.0,-3.0,2.015
2.0,-3.0,2.016
4.0,-1.0,2.017
2.0,-2.0,2.018
0.0,-3.0,2.019
-2.0,-6.0,2.02
-5.0,-9.0,2.021
-5.0,-6.0,2.022
1.0,-1.0,2.023
9.0,3.0,2.024
11.0,4.0,2.025
7.0,3.0,2.026
4.0,3.0,2.027
6.0,0.0,2.028
5.0,-1.0,2.029
1.0,0.0,2.03
1.0,1.0,2.031
6.0,1.0,2.032
11.0,1.0,2.033
8.0,3.0,2.034
3.0,5.0,2.035
2.0,3.0,2.036
5.0,0.0,2.037
4.0,0.0,2.038
-1.0,0.0,2.039
-6.0,-1.0,2.04
-10.0,-3.0,2.041
-10.0,-2.0,2.042
-4.0,2.0,2.043
1.0,4.0,2.044
3.0,6.0,2.045
-2.0,7.0,2.046
-6.0,5.0,2.047
0.0,2.0,2.048
5.0,0.0,2.049
3.0,0.0,2.05
-2.0,0.0,2.051
-2.0,-3.0,2.052
0.0,-3.0,2.053
0.0,-1.0,2.054
-1.0,1.0,2.055
0.0,-2.0,2.056
4.0,-4.0,2.057
1.0,-4.0,2.058
-3.0,0.0,2.059
-2.0,0.0,2.06
0.0,-7.0,2.061
1.0,-11.0,2.062
4.0,-7.0,2.063
9.0,-1.0,2.064
11.0,0.0,2.065
6.0,-2.0,2.066
2.0,-3.0,2.067
5.0,-4.0,2.068
13.0,-3.0,2.069
17.0,-2.0,2.07
15.0,-1.0,2.071
11.0,-1.0,2.072
4.0,-1.0,2.073
-3.0,0.0,2.074
-4.0,0.0,2.075
-2.0,-2.0,2.076
0.0,-2.0,2.077
-3.0,-5.0,2.078
-6.0,-3.0,2.079
-4.0,-3.0,2.08
-1.0,-6.0,2.081
0.0,-4.0,2.082
4.0,-1.0,2.083
9.0,1.0,2.084
14.0,2.0,2.085
15.0,4.0,2.086
16.0,4.0,2.087
16.0,2.0,2.088
11.0,3.0,2.089
4.0,6.0,2.09
0.0,7.0,2.091
1.0,4.0,2.092
2.0,-1.0,2.093
-2.0,-1.0,2.094
-3.0,3.0,2.095
1.0,4.0,2.096
6.0,3.0,2.097
2.0,2.0,2.098
-1.0,1.0,2.099
-4.0,1.0,2.1
-3.0,-6.0,2.101
-3.0,-7.0,2.102
0.0,-3.0,2.103
5.0,0.0,2.104
5.0,2.0,2.105
0.0,0.0,2.106
-3.0,0.0,2.107
-1.0,0.0,2.108
3.0,0.0,2.109
2.0,1.0,2.11
-1.0,0.0,2.111
0.0,-2.0,2.112
3.0,-3.0,2.113
3.0,-3.0,2.114
0.0,0.0,2.115
-1.0,1.0,2.116
1.0,3.0,2.117
4.0,0.0,2.118
3.0,-4.0,2.119
-1.0,-4.0,2.12
-5.0,-4.0,2.121
-5.0,-3.0,2.122
0.0,0.0,2.123
4.0,0.0,2.124
5.0,1.0,2.125
4.0,1.0,2.126
4.0,0.0,2.127
6.0,-2.0,2.128
4.0,-2.0,2.129
0.0,-1.0,2.13
-4.0,0.0,2.131
-2.0,-1.0,2.132
-1.0,0.0,2.133
-2.0,4.0,2.134
-1.0,4.0,2.135
1.0,1.0,2.136
4.0,0.0,2.137
2.0,1.0,2.138
0.0,2.0,2.139
-2.0,-2.0,2.14
-4.0,-7.0,2.141
-2.0,-7.0,2.142
7.0,-5.0,2.143
14.0,-4.0,2.144
12.0,-2.0,2.145
7.0,2.0,2.146
15.0,4.0,2.147
30.0,3.0,2.148
34.0,1.0,2.149
19.0,0.0,2.15
-5.0,-3.0,2.151
-19.0,-3.0,2.152
-20.0,0.0,2.153
-16.0,4.0,2.154
-11.0,5.0,2.155
-2.0,2.0,2.156
8.0,0.0,2.157
10.0,-1.0,2.158
3.0,-2.0,2.159
-5.0,-5.0,2.16
-7.0,-7.0,2.161
-7.0,-3.0,2.162
1.0,-2.0,2.163
14.0,-2.0,2.164
22.0,-4.0,2.165
15.0,-4.0,2.166
2.0,-1.0,2.167
-3.0,0.0,2.168
0.0,1.0,2.169
1.0,3.0,2.17
-1.0,4.0,2.171
-1.0,3.0,2.172
1.0,1.0,2.173
0.0,0.0,2.174
-2.0,2.0,2.175
1.0,2.0,2.176
6.0,0.0,2.177
8.0,-4.0,2.178
4.0,-5.0,2.179
-2.0,-6.0,2.18
-4.0,-10.0,2.181
-2.0,-8.0,2.182
3.0,-4.0,2.183
10.0,0.0,2.184
11.0,0.0,2.185
5.0,0.0,2.186
1.0,3.0,2.187
3.0,4.0,2.188
9.0,1.0,2.189
6.0,0.0,2.19
0.0,2.0,2.191
0.0,3.0,2.192
2.0,3.0,2.193
2.0,3.0,2.194
-1.0,4.0,2.195
0.0,0.0,2.196
4.0,-4.0,2.197
1.0,-5.0,2.198
-3.0,-3.0,2.199
-6.0,-1.0,2.2
-3.0,-5.0,2.201
1.0,-7.0,2.202
8.0,-3.0,2.203
14.0,-2.0,2.204
12.0,0.0,2.205
2.0,1.0,2.206
-1.0,2.0,2.207
4.0,2.0,2.208
14.0,0.0,2.209
20.0,1.0,2.21
21.0,0.0,2.211
16.0,-2.0,2.212
-2.0,-3.0,2.213
-23.0,-1.0,2.214
-26.0,1.0,2.215
-13.0,-1.0,2.216
-2.0,-2.0,2.217
-2.0,-2.0,2.218
-4.0,-2.0,2.219
-4.0,-5.0,2.22
-4.0,-9.0,2.221
-6.0,-5.0,2.222
-1.0,0.0,2.223
10.0,0.0,2.224
14.0,0.0,2.225
6.0,3.0,2.226
2.0,5.0,2.227
6.0,3.0,2.228
8.0,-1.0,2.229
2.0,-1.0,2.23
0.0,0.0,2.231
6.0,-1.0,2.232
9.0,-2.0,2.233
2.0,-1.0,2.234
-4.0,-1.0,2.235
-2.0,-2.0,2.236
3.0,0.0,2.237
2.0,2.0,2.238
-2.0,1.0,2.239
-11.0,-3.0,2.24
-19.0,-8.0,2.241
-19.0,-7.0,2.242
-3.0,-5.0,2.243
19.0,-4.0,2.244
27.0,-1.0,2.245
25.0,1.0,2.246
37.0,1.0,2.247
64.0,-3.0,2.248
74.0,-3.0,2.249
43.0,3.0,2.25
-4.0,4.0,2.251
-31.0,0.0,2.252
-35.0,0.0,2.253
-32.0,4.0,2.254
-33.0,6.0,2.255
-29.0,-3.0,2.256
-17.0,-7.0,2.257
-6.0,-5.0,2.258
-4.0,-1.0,2.259
-11.0,0.0,2.26
-12.0,-6.0,2.261
-5.0,-4.0,2.262
4.0,1.0,2.263
11.0,3.0,2.264
10.0,1.0,2.265
9.0,1.0,2.266
9.0,1.0,2.267
9.0,-1.0,2.268
6.0,-3.0,2.269
3.0,0.0,2.27
4.0,3.0,2.271
7.0,1.0,2.272
9.0,-1.0,2.273
8.0,1.0,2.274
6.0,4.0,2.275
5.0,3.0,2.276
3.0,0.0,2.277
0.0,-1.0,2.278
-1.0,0.0,2.279
-1.0,0.0,2.28
-1.0,-4.0,2.281
0.0,-6.0,2.282
3.0,-3.0,2.283
6.0,-1.0,2.284
5.0,0.0,2.285
5.0,1.0,2.286
5.0,0.0,2.287
8.0,-2.0,2.288
7.0,0.0,2.289
5.0,3.0,2.29
4.0,4.0,2.291
5.0,4.0,2.292
4.0,2.0,2.293
2.0,0.0,2.294
1.0,0.0,2.295
4.0,0.0,2.296
9.0,0.0,2.297
10.0,-1.0,2.298
6.0,-3.0,2.299
-2.0,-5.0,2.3
-12.0,-6.0,2.301
-15.0,-4.0,2.302
-8.0,-3.0,2.303
1.0,-3.0,2.304
5.0,-3.0,2.305
7.0,-1.0,2.306
16.0,-1.0,2.307
26.0,-3.0,2.308
26.0,-3.0,2.309
13.0,-1.0,2.31
-3.0,-1.0,2.311
-12.0,-5.0,2.312
-9.0,-6.0,2.313
-4.0,0.0,2.314
-1.0,4.0,2.315
0.0,1.0,2.316
4.0,-2.0,2.317
5.0,-3.0,2.318
2.0,2.0,2.319
-5.0,0.0,2.32
-10.0,-7.0,2.321
-7.0,-8.0,2.322
1.0,-2.0,2.323
6.0,0.0,2.324
3.0,-3.0,2.325
-2.0,-3.0,2.326
-6.0,0.0,2.327
-4.0,3.0,2.328
-1.0,0.0,2.329
0.0,0.0,2.33
0.0,4.0,2.331
2.0,5.0,2.332
4.0,0.0,2.333
5.0,-3.0,2.334
5.0,-3.0,2.335
6.0,-1.0,2.336
9.0,0.0,2.337
11.0,-3.0,2.338
12.0,-5.0,2.339
8.0,-3.0,2.34
-1.0,-6.0,2.341
-7.0,-4.0,2.342
-1.0,-1.0,2.343
9.0,0.0,2.344
10.0,0.0,2.345
1.0,0.0,2.346
-2.0,1.0,2.347
1.0,1.0,2.348
2.0,1.0,2.349
-4.0,3.0,2.35
-5.0,5.0,2.351
0.0,3.0,2.352
5.0,-1.0,2.353
1.0,-3.0,2.354
-3.0,-1.0,2.355
-2.0,3.0,2.356
1.0,6.0,2.357
1.0,3.0,2.358
-1.0,0.0,2.359
-2.0,-3.0,2.36
-3.0,-5.0,2.361
-4.0,-5.0,2.362
0.0,-4.0,2.363
8.0,-3.0,2.364
9.0,2.0,2.365
5.0,6.0,2.366
2.0,4.0,2.367
7.0,0.0,2.368
12.0,0.0,2.369
9.0,3.0,2.37
6.0,2.0,2.371
8.0,0.0,2.372
9.0,2.0,2.373
7.0,5.0,2.374
1.0,3.0,2.375
-2.0,-3.0,2.376
-2.0,-6.0,2.377
0.0,-4.0,2.378
-1.0,-1.0,2.379
-6.0,-2.0,2.38
-9.0,-6.0,2.381
-8.0,-9.0,2.382
-4.0,-7.0,2.383
0.0,-4.0,2.384
2.0,-2.0,2.385
5.0,0.0,2.386
11.0,0.0,2.387
15.0,-1.0,2.388
19.0,-2.0,2.389
24.0,-3.0,2.39
30.0,-4.0,2.391
31.0,-2.0,2.392
28.0,2.0,2.393
21.0,3.0,2.394
6.0,4.0,2.395
-20.0,4.0,2.396
-41.0,5.0,2.397
-48.0,3.0,2.398
-36.0,1.0,2.399
-29.0,0.0,2.4
-36.0,-5.0,2.401
-38.0,-5.0,2.402
-15.0,-4.0,2.403
20.0,-4.0,2.404
37.0,-3.0,2.405
26.0,-1.0,2.406
14.0,1.0,2.407
17.0,4.0,2.408
26.0,4.0,2.409
25.0,0.0,2.41
17.0,-1.0,2.411
10.0,1.0,2.412
8.0,1.0,2.413
2.0,-1.0,2.414
-3.0,-2.0,2.415
-3.0,1.0,2.416
-3.0,3.0,2.417
-6.0,-1.0,2.418
-6.0,-7.0,2.419
-6.0,-7.0,2.42
-6.0,-7.0,2.421
-5.0,-8.0,2.422
2.0,-9.0,2.423
14.0,-6.0,2.424
19.0,0.0,2.425
15.0,3.0,2.426
12.0,2.0,2.427
15.0,1.0,2.428
12.0,1.0,2.429
4.0,2.0,2.43
-3.0,3.0,2.431
-1.0,2.0,2.432
-1.0,0.0,2.433
-4.0,0.0,2.434
-4.0,1.0,2.435
0.0,3.0,2.436
3.0,5.0,2.437
0.0,3.0,2.438
-3.0,1.0,2.439
-3.0,-1.0,2.44
-5.0,-6.0,2.441
-6.0,-8.0,2.442
-1.0,-6.0,2.443
8.0,-3.0,2.444
13.0,0.0,2.445
9.0,1.0,2.446
4.0,2.0,2.447
5.0,0.0,2.448
6.0,0.0,2.449
3.0,0.0,2.45
0.0,1.0,2.451
1.0,1.0,2.452
2.0,0.0,2.453
1.0,-1.0,2.454
0.0,0.0,2.455
2.0,1.0,2.456
2.0,1.0,2.457
0.0,0.0,2.458
-1.0,0.0,2.459
-3.0,-2.0,2.46
-7.0,-8.0,2.461
-8.0,-11.0,2.462
-2.0,-8.0,2.463
10.0,0.0,2.464
28.0,5.0,2.465
48.0,3.0,2.466
61.0,-3.0,2.467
47.0,-6.0,2.468
-1.0,-3.0,2.469
-55.0,0.0,2.47
-73.0,0.0,2.471
-56.0,0.0,2.472
-34.0,0.0,2.473
-23.0,0.0,2.474
-11.0,2.0,2.475
5.0,1.0,2.476
13.0,1.0,2.477
4.0,0.0,2.478
0.0,0.0,2.479
6.0,1.0,2.48
13.0,-1.0,2.481
16.0,-1.0,2.482
27.0,0.0,2.483
44.0,1.0,2.484
51.0,3.0,2.485
38.0,3.0,2.486
20.0,4.0,2.487
10.0,5.0,2.488
0.0,8.0,2.489
-13.0,8.0,2.49
-22.0,5.0,2.491
-26.0,-1.0,2.492
-28.0,-7.0,2.493
-30.0,-7.0,2.494
-27.0,-3.0,2.495
-17.0,-2.0,2.496
-5.0,-2.0,2.497
1.0,-4.0,2.498
4.0,-5.0,2.499
3.0,-5.0,2.5
-1.0,-7.0,2.501
-2.0,-5.0,2.502
6.0,-1.0,2.503
17.0,0.0,2.504
19.0,2.0,2.505
13.0,3.0,2.506
10.0,2.0,2.507
12.0,-1.0,2.508
12.0,-4.0,2.509
9.0,-2.0,2.51
9.0,0.0,2.511
11.0,0.0,2.512
11.0,0.0,2.513
9.0,1.0,2.514
5.0,1.0,2.515
5.0,-1.0,2.516
7.0,-3.0,2.517
8.0,-1.0,2.518
6.0,-1.0,2.519
1.0,0.0,2.52
-2.0,-2.0,2.521
-2.0,-2.0,2.522
2.0,-3.0,2.523
3.0,-3.0,2.524
0.0,-3.0,2.525
-1.0,0.0,2.526
2.0,-1.0,2.527
9.0,-4.0,2.528
12.0,-3.0,2.529
7.0,-2.0,2.53
4.0,0.0,2.531
3.0,-2.0,2.532
3.0,-5.0,2.533
2.0,-3.0,2.534
2.0,-1.0,2.535
4.0,1.0,2.536
14.0,3.0,2.537
31.0,3.0,2.538
50.0,1.0,2.539
44.0,0.0,2.54
3.0,-4.0,2.541
-47.0,-3.0,2.542
-66.0,-1.0,2.543
-50.0,2.0,2.544
-31.0,4.0,2.545
-26.0,5.0,2.546
-20.0,4.0,2.547
-2.0,-1.0,2.548
16.0,-3.0,2.549
14.0,-4.0,2.55
2.0,-4.0,2.551
0.0,-4.0,2.552
6.0,-3.0,2.553
7.0,1.0,2.554
2.0,2.0,2.555
-1.0,0.0,2.556
1.0,-1.0,2.557
0.0,-3.0,2.558
0.0,-3.0,2.559
4.0,-5.0,2.56
7.0,-10.0,2.561
8.0,-9.0,2.562
10.0,-4.0,2.563
17.0,0.0,2.564
19.0,4.0,2.565
16.0,6.0,2.566
12.0,5.0,2.567
12.0,3.0,2.568
13.0,3.0,2.569
7.0,5.0,2.57
1.0,1.0,2.571
0.0,-5.0,2.572
-1.0,-8.0,2.573
-4.0,-4.0,2.574
-2.0,0.0,2.575
4.0,-1.0,2.576
7.0,-1.0,2.577
2.0,0.0,2.578
-1.0,1.0,2.579
-3.0,-1.0,2.58
-6.0,-7.0,2.581
-6.0,-4.0,2.582
0.0,1.0,2.583
10.0,4.0,2.584
8.0,2.0,2.585
0.0,1.0,2.586
-2.0,3.0,2.587
3.0,3.0,2.588
7.0,1.0,2.589
2.0,0.0,2.59
-2.0,2.0,2.591
1.0,2.0,2.592
7.0,0.0,2.593
3.0,0.0,2.594
-2.0,2.0,2.595
-3.0,3.0,2.596
-1.0,5.0,2.597
-1.0,0.0,2.598
-2.0,-4.0,2.599
-4.0,-5.0,2.6
-4.0,-8.0,2.601
-3.0,-7.0,2.602
2.0,-4.0,2.603
11.0,-3.0,2.604
11.0,-5.0,2.605
4.0,-3.0,2.606
0.0,0.0,2.607
2.0,1.0,2.608
4.0,1.0,2.609
0.0,-1.0,2.61
-2.0,-1.0,2.611
-2.0,-1.0,2.612
1.0,1.0,2.613
1.0,2.0,2.614
-1.0,3.0,2.615
-1.0,2.0,2.616
2.0,2.0,2.617
1.0,-2.0,2.618
0.0,-5.0,2.619
4.0,-5.0,2.62
16.0,-4.0,2.621
34.0,-3.0,2.622
46.0,-4.0,2.623
35.0,-2.0,2.624
-6.0,2.0,2.625
-51.0,4.0,2.626
-65.0,3.0,2.627
-48.0,2.0,2.628
-28.0,2.0,2.629
-18.0,1.0,2.63
-4.0,-1.0,2.631
16.0,-5.0,2.632
26.0,-6.0,2.633
21.0,-4.0,2.634
15.0,-4.0,2.635
19.0,-5.0,2.636
27.0,-3.0,2.637
27.0,-1.0,2.638
22.0,1.0,2.639
15.0,-2.0,2.64
5.0,-8.0,2.641
-1.0,-7.0,2.642
4.0,-4.0,2.643
14.0,0.0,2.644
12.0,3.0,2.645
-2.0,5.0,2.646
-16.0,5.0,2.647
-21.0,1.0,2.648
-22.0,0.0,2.649
-21.0,3.0,2.65
-16.0,6.0,2.651
-12.0,0.0,2.652
-13.0,-6.0,2.653
-12.0,-7.0,2.654
-3.0,0.0,2.655
8.0,3.0,2.656
14.0,2.0,2.657
13.0,0.0,2.658
14.0,-2.0,2.659
9.0,-3.0,2.66
4.0,-6.0,2.661
-2.0,-3.0,2.662
0.0,1.0,2.663
11.0,1.0,2.664
16.0,0.0,2.665
10.0,1.0,2.666
1.0,3.0,2.667
-1.0,3.0,2.668
2.0,0.0,2.669
4.0,-2.0,2.67
4.0,-3.0,2.671
3.0,-4.0,2.672
3.0,-2.0,2.673
3.0,1.0,2.674
7.0,3.0,2.675
10.0,-1.0,2.676
11.0,-3.0,2.677
9.0,-1.0,2.678
7.0,2.0,2.679
3.0,2.0,2.68
0.0,-1.0,2.681
7.0,-4.0,2.682
27.0,-3.0,2.683
48.0,1.0,2.684
48.0,5.0,2.685
21.0,4.0,2.686
-14.0,0.0,2.687
-31.0,-4.0,2.688
-30.0,0.0,2.689
-26.0,2.0,2.69
-25.0,-1.0,2.691
-19.0,-4.0,2.692
-6.0,-2.0,2.693
2.0,3.0,2.694
0.0,3.0,2.695
-3.0,0.0,2.696
0.0,0.0,2.697
5.0,0.0,2.698
3.0,0.0,2.699
-1.0,-3.0,2.7
-1.0,-7.0,2.701
2.0,-8.0,2.702
8.0,-5.0,2.703
11.0,0.0,2.704
12.0,4.0,2.705
9.0,4.0,2.706
5.0,2.0,2.707
6.0,-2.0,2.708
11.0,-2.0,2.709
12.0,2.0,2.71
9.0,4.0,2.711
7.0,2.0,2.712
7.0,-1.0,2.713
5.0,-2.0,2.714
2.0,-2.0,2.715
-3.0,-2.0,2.716
-9.0,-3.0,2.717
-15.0,-6.0,2.718
-16.0,-4.0,2.719
-17.0,-3.0,2.72
-11.0,-7.0,2.721
-5.0,-8.0,2.722
4.0,-2.0,2.723
12.0,2.0,2.724
14.0,3.0,2.725
18.0,4.0,2.726
28.0,2.0,2.727
36.0,0.0,2.728
33.0,-2.0,2.729
25.0,-4.0,2.73
2.0,0.0,2.731
-15.0,3.0,2.732
-16.0,1.0,2.733
-16.0,0.0,2.734
-6.0,1.0,2.735
1.0,1.0,2.736
2.0,-2.0,2.737
2.0,-5.0,2.738
-1.0,-5.0,2.739
-5.0,-3.0,2.74
-6.0,-7.0,2.741
-5.0,-8.0,2.742
-1.0,-4.0,2.743
7.0,2.0,2.744
11.0,5.0,2.745
7.0,5.0,2.746
-1.0,5.0,2.747
-1.0,4.0,2.748
0.0,0.0,2.749
0.0,-2.0,2.75
0.0,1.0,2.751
5.0,4.0,2.752
12.0,2.0,2.753
12.0,-1.0,2.754
5.0,-2.0,2.755
-3.0,-1.0,2.756
-4.0,-1.0,2.757
-2.0,-2.0,2.758
-3.0,-3.0,2.759
-4.0,-3.0,2.76
-6.0,-5.0,2.761
-5.0,-5.0,2.762
-2.0,-4.0,2.763
0.0,-1.0,2.764
-1.0,2.0,2.765
-4.0,4.0,2.766
-4.0,5.0,2.767
1.0,5.0,2.768
12.0,9.0,2.769
26.0,10.0,2.77
40.0,8.0,2.771
50.0,5.0,2.772
46.0,4.0,2.773
19.0,6.0,2.774
-16.0,6.0,2.775
-43.0,3.0,2.776
-52.0,3.0,2.777
-52.0,0.0,2.778
-53.0,-1.0,2.779
-53.0,-4.0,2.78
-41.0,-8.0,2.781
-18.0,-11.0,2.782
7.0,-10.0,2.783
29.0,-8.0,2.784
46.0,-4.0,2.785
54.0,0.0,2.786
40.0,-1.0,2.787
11.0,-3.0,2.788
-10.0,-3.0,2.789
-11.0,-3.0,2.79
-3.0,-1.0,2.791
-2.0,0.0,2.792
-2.0,-4.0,2.793
4.0,-7.0,2.794
12.0,-8.0,2.795
7.0,-9.0,2.796
-2.0,-7.0,2.797
-2.0,-6.0,2.798
6.0,-5.0,2.799
5.0,-2.0,2.8
-1.0,-3.0,2.801
-1.0,-4.0,2.802
10.0,-3.0,2.803
16.0,0.0,2.804
13.0,1.0,2.805
11.0,1.0,2.806
13.0,2.0,2.807
15.0,3.0,2.808
11.0,1.0,2.809
7.0,-1.0,2.81
7.0,-2.0,2.811
9.0,-1.0,2.812
7.0,1.0,2.813
6.0,2.0,2.814
6.0,5.0,2.815
8.0,6.0,2.816
8.0,4.0,2.817
4.0,-1.0,2.818
1.0,-4.0,2.819
-3.0,-3.0,2.82
-9.0,-4.0,2.821
-11.0,-5.0,2.822
-5.0,-3.0,2.823
4.0,-1.0,2.824
8.0,2.0,2.825
4.0,4.0,2.826
0.0,3.0,2.827
2.0,1.0,2.828
5.0,0.0,2.829
5.0,2.0,2.83
4.0,5.0,2.831
9.0,5.0,2.832
13.0,3.0,2.833
11.0,3.0,2.834
4.0,4.0,2.835
-1.0,4.0,2.836
0.0,4.0,2.837
6.0,0.0,2.838
18.0,-2.0,2.839
20.0,-7.0,2.84
5.0,-13.0,2.841
-21.0,-14.0,2.842
-38.0,-11.0,2.843
-32.0,-4.0,2.844
-21.0,3.0,2.845
-19.0,9.0,2.846
-19.0,6.0,2.847
-6.0,0.0,2.848
12.0,-3.0,2.849
13.0,-4.0,2.85
1.0,-4.0,2.851
-4.0,-2.0,2.852
-1.0,0.0,2.853
0.0,2.0,2.854
-2.0,-1.0,2.855
0.0,-4.0,2.856
4.0,-1.0,2.857
0.0,0.0,2.858
-6.0,-1.0,2.859
-9.0,-5.0,2.86
-4.0,-8.0,2.861
1.0,-5.0,2.862
9.0,-3.0,2.863
17.0,-3.0,2.864
21.0,-3.0,2.865
17.0,0.0,2.866
13.0,1.0,2.867
14.0,0.0,2.868
18.0,-1.0,2.869
17.0,1.0,2.87
14.0,6.0,2.871
14.0,8.0,2.872
15.0,7.0,2.873
14.0,5.0,2.874
13.0,5.0,2.875
17.0,3.0,2.876
21.0,2.0,2.877
14.0,-4.0,2.878
0.0,-10.0,2.879
-13.0,-10.0,2.88
-18.0,-11.0,2.881
-14.0,-7.0,2.882
-6.0,-2.0,2.883
-3.0,0.0,2.884
-7.0,1.0,2.885
-17.0,0.0,2.886
-20.0,0.0,2.887
-15.0,-1.0,2.888
-11.0,0.0,2.889
-9.0,1.0,2.89
-4.0,0.0,2.891
6.0,-2.0,2.892
12.0,0.0,2.893
11.0,2.0,2.894
7.0,2.0,2.895
6.0,0.0,2.896
9.0,1.0,2.897
6.0,3.0,2.898
1.0,2.0,2.899
-2.0,-1.0,2.9
-3.0,-5.0,2.901
-1.0,-4.0,2.902
5.0,-2.0,2.903
13.0,-1.0,2.904
14.0,0.0,2.905
8.0,2.0,2.906
3.0,0.0,2.907
5.0,-5.0,2.908
10.0,-7.0,2.909
8.0,-9.0,2.91
0.0,-9.0,2.911
-2.0,-9.0,2.912
-1.0,-7.0,2.913
-2.0,-2.0,2.914
-3.0,-8.0,2.915
-2.0,-28.0,2.916
2.0,-46.0,2.917
1.0,-51.0,2.918
-1.0,-42.0,2.919
-3.0,-25.0,2.92
0.0,-10.0,2.921
6.0,6.0,2.922
13.0,22.0,2.923
17.0,15.0,2.924
13.0,-20.0,2.925
1.0,-56.0,2.926
-2.0,-47.0,2.927
2.0,18.0,2.928
5.0,100.0,2.929
1.0,139.0,2.93
-5.0,106.0,2.931
-3.0,1.0,2.932
-2.0,-147.0,2.933
-5.0,-298.0,2.934
-10.0,-382.0,2.935
-10.0,-354.0,2.936
-5.0,-235.0,2.937
-8.0,-85.0,2.938
-13.0,48.0,2.939
-16.0,163.0,2.94
-17.0,216.0,2.941
-15.0,248.0,2.942
-8.0,214.0,2.943
-1.0,200.0,2.944
2.0,251.0,2.945
2.0,297.0,2.946
7.0,327.0,2.947
20.0,329.0,2.948
29.0,240.0,2.949
32.0,135.0,2.95
34.0,-17.0,2.951
40.0,-112.0,2.952
40.0,-34.0,2.953
32.0,42.0,2.954
21.0,115.0,2.955
16.0,167.0,2.956
17.0,152.0,2.957
15.0,125.0,2.958
4.0,26.0,2.959
-6.0,-106.0,2.96
-11.0,-189.0,2.961
-12.0,-197.0,2.962
-8.0,-203.0,2.963
-4.0,-248.0,2.964
-2.0,-297.0,2.965
-2.0,-317.0,2.966
-3.0,-332.0,2.967
-6.0,-357.0,2.968
-11.0,-352.0,2.969
-14.0,-284.0,2.97
-13.0,-190.0,2.971
-10.0,-126.0,2.972
-14.0,-95.0,2.973
-21.0,-58.0,2.974
-22.0,11.0,2.975
-14.0,102.0,2.976
-6.0,190.0,2.977
-7.0,260.0,2.978
-7.0,293.0,2.979
-3.0,291.0,2.98
2.0,269.0,2.981
9.0,238.0,2.982
22.0,172.0,2.983
36.0,74.0,2.984
38.0,-10.0,2.985
25.0,-31.0,2.986
16.0,-5.0,2.987
21.0,16.0,2.988
32.0,0.0,2.989
34.0,-47.0,2.99
28.0,-110.0,2.991
14.0,-177.0,2.992
-12.0,-221.0,2.993
-39.0,-210.0,2.994
-53.0,-129.0,2.995
-53.0,-11.0,2.996
-52.0,79.0,2.997
-51.0,90.0,2.998
-36.0,16.0,2.999
-10.0,-105.0,3.0
10.0,-203.0,3.001
12.0,-218.0,3.002
14.0,-137.0,3.003
25.0,28.0,3.004
33.0,246.0,3.005
24.0,425.0,3.006
13.0,455.0,3.007
14.0,295.0,3.008
19.0,25.0,3.009
13.0,-225.0,3.01
3.0,-340.0,3.011
-1.0,-246.0,3.012
1.0,54.0,3.013
3.0,429.0,3.014
8.0,688.0,3.015
20.0,738.0,3.016
38.0,640.0,3.017
67.0,467.0,3.018
114.0,269.0,3.019
157.0,77.0,3.02
148.0,-73.0,3.021
71.0,-156.0,3.022
-19.0,-194.0,3.023
-55.0,-225.0,3.024
-47.0,-293.0,3.025
-51.0,-428.0,3.026
-81.0,-600.0,3.027
-93.0,-703.0,3.028
-80.0,-668.0,3.029
-80.0,-555.0,3.03
-101.0,-485.0,3.031
-108.0,-515.0,3.032
-88.0,-627.0,3.033
-77.0,-781.0,3.034
-92.0,-870.0,3.035
-96.0,-710.0,3.036
-65.0,-251.0,3.037
-25.0,439.0,3.038
-3.0,1098.0,3.039
22.0,1542.0,3.04
56.0,1703.0,3.041
93.0,1543.0,3.042
134.0,1100.0,3.043
164.0,593.0,3.044
162.0,267.0,3.045
138.0,144.0,3.046
46.0,73.0,3.047
-20.0,-14.0,3.048
-9.0,-70.0,3.049
5.0,-88.0,3.05
29.0,-132.0,3.051
53.0,-219.0,3.052
77.0,-288.0,3.053
85.0,-314.0,3.054
42.0,-325.0,3.055
-5.0,-322.0,3.056
-62.0,-287.0,3.057
-107.0,-236.0,3.058
-105.0,-218.0,3.059
-59.0,-245.0,3.06
44.0,-278.0,3.061
154.0,-291.0,3.062
171.0,-287.0,3.063
62.0,-265.0,3.064
-94.0,-215.0,3.065
-194.0,-152.0,3.066
-209.0,-102.0,3.067
-174.0,-73.0,3.068
-124.0,-56.0,3.069
-79.0,-52.0,3.07
-41.0,-63.0,3.071
3.0,-75.0,3.072
86.0,-71.0,3.073
194.0,-58.0,3.074
242.0,-60.0,3.075
150.0,-70.0,3.076
-23.0,-59.0,3.077
-163.0,-15.0,3.078
-186.0,37.0,3.079
-148.0,72.0,3.08
-120.0,87.0,3.081
-82.0,108.0,3.082
5.0,137.0,3.083
97.0,137.0,3.084
126.0,94.0,3.085
107.0,46.0,3.086
86.0,33.0,3.087
52.0,34.0,3.088
-12.0,3.0,3.089
-62.0,-42.0,3.09
-51.0,-40.0,3.091
-19.0,12.0,3.092
4.0,42.0,3.093
70.0,27.0,3.094
201.0,21.0,3.095
281.0,66.0,3.096
205.0,110.0,3.097
14.0,78.0,3.098
-135.0,-29.0,3.099
-245.0,-118.0,3.1
-239.0,-152.0,3.101
-223.0,-144.0,3.102
-181.0,-4.0,3.103
-130.0,118.0,3.104
-54.0,183.0,3.105
15.0,234.0,3.106
61.0,243.0,3.107
91.0,253.0,3.108
71.0,268.0,3.109
58.0,275.0,3.11
68.0,255.0,3.111
81.0,178.0,3.112
103.0,-63.0,3.113
124.0,-236.0,3.114
138.0,-198.0,3.115
142.0,-101.0,3.116
108.0,176.0,3.117
71.0,475.0,3.118
31.0,786.0,3.119
-12.0,922.0,3.12
-87.0,886.0,3.121
-165.0,762.0,3.122
-181.0,524.0,3.123
-114.0,135.0,3.124
-2.0,-276.0,3.125
100.0,-519.0,3.126
168.0,-587.0,3.127
201.0,-613.0,3.128
212.0,-636.0,3.129
217.0,-591.0,3.13
204.0,-473.0,3.131
128.0,-358.0,3.132
5.0,-278.0,3.133
-80.0,-217.0,3.134
-83.0,-199.0,3.135
-65.0,-262.0,3.136
-90.0,-338.0,3.137
-132.0,-325.0,3.138
-130.0,-229.0,3.139
-124.0,-149.0,3.14
-106.0,-118.0,3.141
-93.0,-100.0,3.142
-91.0,-126.0,3.143
-94.0,-168.0,3.144
-111.0,-256.0,3.145
-117.0,-311.0,3.146
-91.0,-261.0,3.147
-73.0,-200.0,3.148
-82.0,-106.0,3.149
-78.0,0.0,3.15
-32.0,143.0,3.151
16.0,285.0,3.152
73.0,424.0,3.153
118.0,483.0,3.154
123.0,299.0,3.155
117.0,107.0,3.156
71.0,-103.0,3.157
33.0,-224.0,3.158
58.0,46.0,3.159
150.0,401.0,3.16
241.0,654.0,3.161
235.0,730.0,3.162
90.0,573.0,3.163
-122.0,209.0,3.164
-251.0,-178.0,3.165
-224.0,-354.0,3.166
-121.0,-274.0,3.167
-50.0,-86.0,3.168
-12.0,82.0,3.169
56.0,225.0,3.17
160.0,335.0,3.171
237.0,332.0,3.172
236.0,157.0,3.173
158.0,-127.0,3.174
22.0,-378.0,3.175
-123.0,-484.0,3.176
-206.0,-430.0,3.177
-215.0,-272.0,3.178
-204.0,-141.0,3.179
-197.0,-128.0,3.18
-202.0,-205.0,3.181
-181.0,-260.0,3.182
-77.0,-262.0,3.183
8.0,-242.0,3.184
36.0,-183.0,3.185
54.0,-14.0,3.186
42.0,236.0,3.187
29.0,389.0,3.188
15.0,306.0,3.189
0.0,51.0,3.19
-22.0,-195.0,3.191
-43.0,-313.0,3.192
-61.0,-260.0,3.193
-75.0,-14.0,3.194
-72.0,411.0,3.195
-38.0,873.0,3.196
83.0,1163.0,3.197
215.0,1192.0,3.198
343.0,1000.0,3.199
379.0,690.0,3.2
316.0,326.0,3.201
185.0,-37.0,3.202
45.0,-333.0,3.203
-38.0,-502.0,3.204
-60.0,-583.0,3.205
-73.0,-677.0,3.206
-99.0,-825.0,3.207
-86.0,-970.0,3.208
-9.0,-1020.0,3.209
51.0,-906.0,3.21
10.0,-590.0,3.211
-72.0,-113.0,3.212
-68.0,343.0,3.213
24.0,554.0,3.214
70.0,477.0,3.215
8.0,292.0,3.216
-63.0,190.0,3.217
-39.0,151.0,3.218
53.0,46.0,3.219
118.0,-195.0,3.22
123.0,-480.0,3.221
112.0,-656.0,3.222
96.0,-644.0,3.223
35.0,-478.0,3.224
-66.0,-253.0,3.225
-151.0,-31.0,3.226
-188.0,162.0,3.227
-203.0,244.0,3.228
-211.0,54.0,3.229
-184.0,-486.0,3.23
-90.0,-1192.0,3.231
72.0,-1614.0,3.232
266.0,-1277.0,3.233
416.0,-49.0,3.234
426.0,1628.0,3.235
263.0,2963.0,3.236
25.0,3410.0,3.237
-200.0,3022.0,3.238
-351.0,2188.0,3.239
-429.0,1250.0,3.24
-440.0,424.0,3.241
-386.0,-58.0,3.242
-313.0,-109.0,3.243
-261.0,0.0,3.244
-198.0,-119.0,3.245
-42.0,-531.0,3.246
219.0,-1055.0,3.247
481.0,-1614.0,3.248
572.0,-2175.0,3.249
400.0,-2428.0,3.25
78.0,-1992.0,3.251
-131.0,-943.0,3.252
-93.0,210.0,3.253
38.0,1048.0,3.254
80.0,1434.0,3.255
103.0,1310.0,3.256
239.0,765.0,3.257
359.0,65.0,3.258
325.0,-302.0,3.259
359.0,-189.0,3.26
596.0,114.0,3.261
721.0,331.0,3.262
511.0,404.0,3.263
221.0,307.0,3.264
-312.0,-28.0,3.265
-742.0,-481.0,3.266
-865.0,-737.0,3.267
-927.0,-640.0,3.268
-805.0,-382.0,3.269
-694.0,-222.0,3.27
-618.0,-175.0,3.271
-505.0,-102.0,3.272
-279.0,27.0,3.273
-86.0,126.0,3.274
7.0,179.0,3.275
97.0,244.0,3.276
169.0,301.0,3.277
238.0,226.0,3.278
224.0,-30.0,3.279
137.0,-298.0,3.28
140.0,-351.0,3.281
204.0,-203.0,3.282
199.0,-81.0,3.283
152.0,-106.0,3.284
151.0,-178.0,3.285
144.0,-202.0,3.286
82.0,-254.0,3.287
78.0,-412.0,3.288
209.0,-569.0,3.289
344.0,-545.0,3.29
375.0,-275.0,3.291
381.0,212.0,3.292
436.0,862.0,3.293
466.0,1511.0,3.294
392.0,1871.0,3.295
232.0,1743.0,3.296
26.0,1276.0,3.297
-249.0,673.0,3.298
-376.0,125.0,3.299
-314.0,-330.0,3.3
-215.0,-664.0,3.301
-220.0,-801.0,3.302
-249.0,-748.0,3.303
-202.0,-624.0,3.304
-157.0,-520.0,3.305
-200.0,-436.0,3.306
-215.0,-354.0,3.307
-65.0,-305.0,3.308
159.0,-300.0,3.309
285.0,-275.0,3.31
273.0,-169.0,3.311
161.0,-15.0,3.312
-19.0,116.0,3.313
-174.0,219.0,3.314
-187.0,313.0,3.315
-112.0,352.0,3.316
-127.0,275.0,3.317
-262.0,85.0,3.318
-308.0,-90.0,3.319
-168.0,-162.0,3.32
3.0,-159.0,3.321
56.0,-144.0,3.322
62.0,-147.0,3.323
116.0,-184.0,3.324
151.0,-256.0,3.325
91.0,-317.0,3.326
1.0,-304.0,3.327
-35.0,-232.0,3.328
-50.0,-166.0,3.329
-103.0,-131.0,3.33
-162.0,-109.0,3.331
-177.0,-109.0,3.332
-129.0,-145.0,3.333
-5.0,-152.0,3.334
191.0,-25.0,3.335
363.0,232.0,3.336
368.0,487.0,3.337
188.0,646.0,3.338
9.0,661.0,3.339
-96.0,511.0,3.34
17.0,220.0,3.341
94.0,-85.0,3.342
60.0,-260.0,3.343
34.0,-299.0,3.344
36.0,-335.0,3.345
39.0,-430.0,3.346
42.0,-479.0,3.347
45.0,-392.0,3.348
45.0,-241.0,3.349
38.0,-150.0,3.35
6.0,-140.0,3.351
-20.0,-173.0,3.352
-32.0,-228.0,3.353
-47.0,-239.0,3.354
-75.0,-78.0,3.355
-101.0,271.0,3.356
-125.0,596.0,3.357
-146.0,718.0,3.358
-136.0,614.0,3.359
-72.0,428.0,3.36
25.0,285.0,3.361
75.0,262.0,3.362
50.0,408.0,3.363
27.0,658.0,3.364
73.0,805.0,3.365
124.0,712.0,3.366
95.0,477.0,3.367
25.0,259.0,3.368
5.0,65.0,3.369
33.0,-168.0,3.37
23.0,-402.0,3.371
-35.0,-557.0,3.372
-67.0,-630.0,3.373
-40.0,-619.0,3.374
-9.0,-456.0,3.375
-16.0,-158.0,3.376
-15.0,85.0,3.377
97.0,127.0,3.378
310.0,4.0,3.379
513.0,-121.0,3.38
523.0,-199.0,3.381
250.0,-290.0,3.382
-138.0,-407.0,3.383
-361.0,-462.0,3.384
-354.0,-394.0,3.385
-309.0,-272.0,3.386
-353.0,-209.0,3.387
-365.0,-218.0,3.388
-224.0,-183.0,3.389
-43.0,17.0,3.39
0.0,371.0,3.391
-68.0,714.0,3.392
-89.0,868.0,3.393
-35.0,777.0,3.394
-16.0,518.0,3.395
-75.0,212.0,3.396
-134.0,-36.0,3.397
-145.0,-198.0,3.398
-132.0,-223.0,3.399
-109.0,-100.0,3.4
-27.0,110.0,3.401
112.0,292.0,3.402
207.0,320.0,3.403
182.0,162.0,3.404
101.0,-82.0,3.405
81.0,-261.0,3.406
148.0,-286.0,3.407
233.0,-197.0,3.408
242.0,-106.0,3.409
112.0,-99.0,3.41
-112.0,-175.0,3.411
-257.0,-259.0,3.412
-198.0,-283.0,3.413
-34.0,-239.0,3.414
36.0,-179.0,3.415
-2.0,-151.0,3.416
-16.0,-147.0,3.417
1.0,-137.0,3.418
-44.0,-97.0,3.419
-76.0,-31.0,3.42
-60.0,63.0,3.421
-12.0,207.0,3.422
125.0,373.0,3.423
233.0,460.0,3.424
252.0,390.0,3.425
255.0,213.0,3.426
207.0,48.0,3.427
153.0,-49.0,3.428
82.0,-120.0,3.429
27.0,-194.0,3.43
21.0,-254.0,3.431
22.0,-279.0,3.432
50.0,-285.0,3.433
66.0,-302.0,3.434
44.0,-334.0,3.435
19.0,-349.0,3.436
-18.0,-315.0,3.437
-40.0,-215.0,3.438
35.0,-89.0,3.439
169.0,39.0,3.44
281.0,199.0,3.441
274.0,406.0,3.442
114.0,556.0,3.443
-129.0,532.0,3.444
-338.0,358.0,3.445
-430.0,159.0,3.446
-407.0,-31.0,3.447
-313.0,-233.0,3.448
-192.0,-364.0,3.449
-72.0,-299.0,3.45
19.0,-104.0,3.451
74.0,16.0,3.452
107.0,-20.0,3.453
125.0,-116.0,3.454
116.0,-225.0,3.455
58.0,-380.0,3.456
-35.0,-499.0,3.457
-164.0,-386.0,3.458
-255.0,54.0,3.459
-275.0,648.0,3.46
-176.0,1115.0,3.461
11.0,1311.0,3.462
124.0,1222.0,3.463
35.0,901.0,3.464
-159.0,465.0,3.465
-214.0,73.0,3.466
-77.0,-193.0,3.467
48.0,-378.0,3.468
45.0,-543.0,3.469
66.0,-700.0,3.47
225.0,-848.0,3.471
343.0,-1000.0,3.472
234.0,-1117.0,3.473
35.0,-1087.0,3.474
-7.0,-834.0,3.475
72.0,-396.0,3.476
64.0,96.0,3.477
-59.0,605.0,3.478
-100.0,1012.0,3.479
6.0,1193.0,3.48
106.0,1100.0,3.481
121.0,840.0,3.482
176.0,579.0,3.483
320.0,440.0,3.484
376.0,424.0,3.485
193.0,415.0,3.486
-105.0,283.0,3.487
-291.0,20.0,3.488
-304.0,-256.0,3.489
-240.0,-460.0,3.49
-156.0,-615.0,3.491
-67.0,-737.0,3.492
-26.0,-759.0,3.493
-88.0,-657.0,3.494
-191.0,-529.0,3.495
-214.0,-453.0,3.496
-151.0,-380.0,3.497
-83.0,-239.0,3.498
-31.0,-80.0,3.499
30.0,5.0,3.5
117.0,28.0,3.501
167.0,64.0,3.502
102.0,133.0,3.503
116.0,231.0,3.504
369.0,373.0,3.505
551.0,518.0,3.506
513.0,555.0,3.507
337.0,458.0,3.508
-252.0,358.0,3.509
-666.0,336.0,3.51
-548.0,293.0,3.511
-356.0,116.0,3.512
54.0,-125.0,3.513
319.0,-287.0,3.514
142.0,-341.0,3.515
2.0,-358.0,3.516
-25.0,-369.0,3.517
-32.0,-360.0,3.518
-48.0,-349.0,3.519
-204.0,-394.0,3.52
-323.0,-515.0,3.521
-274.0,-629.0,3.522
-144.0,-612.0,3.523
-50.0,-373.0,3.524
37.0,68.0,3.525
174.0,551.0,3.526
310.0,863.0,3.527
385.0,876.0,3.528
424.0,634.0,3.529
405.0,321.0,3.53
187.0,115.0,3.531
-249.0,65.0,3.532
-613.0,94.0,3.533
-594.0,103.0,3.534
-282.0,40.0,3.535
-27.0,-83.0,3.536
56.0,-213.0,3.537
230.0,-306.0,3.538
543.0,-317.0,3.539
745.0,-257.0,3.54
630.0,-177.0,3.541
250.0,-105.0,3.542
-254.0,-42.0,3.543
-734.0,-18.0,3.544
-955.0,-77.0,3.545
-761.0,-190.0,3.546
-370.0,-233.0,3.547
-150.0,-115.0,3.548
-104.0,128.0,3.549
58.0,352.0,3.55
342.0,430.0,3.551
412.0,361.0,3.552
188.0,261.0,3.553
5.0,241.0,3.554
72.0,281.0,3.555
198.0,263.0,3.556
191.0,129.0,3.557
114.0,-101.0,3.558
75.0,-315.0,3.559
29.0,-428.0,3.56
-46.0,-411.0,3.561
-53.0,-287.0,3.562
16.0,-140.0,3.563
27.0,-48.0,3.564
-34.0,-40.0,3.565
-29.0,-99.0,3.566
71.0,-197.0,3.567
131.0,-261.0,3.568
112.0,-181.0,3.569
136.0,81.0,3.57
236.0,405.0,3.571
283.0,607.0,3.572
197.0,625.0,3.573
64.0,522.0,3.574
-4.0,352.0,3.575
1.0,113.0,3.576
21.0,-134.0,3.577
-3.0,-279.0,3.578
-63.0,-195.0,3.579
-93.0,84.0,3.58
-30.0,371.0,3.581
27.0,521.0,3.582
65.0,503.0,3.583
51.0,376.0,3.584
-124.0,203.0,3.585
-241.0,19.0,3.586
-183.0,-166.0,3.587
-122.0,-357.0,3.588
-55.0,-552.0,3.589
-9.0,-745.0,3.59
-32.0,-898.0,3.591
-57.0,-925.0,3.592
-88.0,-746.0,3.593
-111.0,-397.0,3.594
-105.0,-51.0,3.595
-89.0,130.0,3.596
-43.0,145.0,3.597
1.0,105.0,3.598
16.0,130.0,3.599
-49.0,247.0,3.6
-189.0,372.0,3.601
-291.0,386.0,3.602
-217.0,244.0,3.603
26.0,58.0,3.604
296.0,-27.0,3.605
471.0,-38.0,3.606
538.0,-119.0,3.607
521.0,-285.0,3.608
420.0,-372.0,3.609
246.0,-291.0,3.61
44.0,-154.0,3.611
-147.0,-59.0,3.612
-293.0,72.0,3.613
-354.0,312.0,3.614
-332.0,545.0,3.615
-303.0,620.0,3.616
-314.0,565.0,3.617
-318.0,486.0,3.618
-261.0,419.0,3.619
-183.0,320.0,3.62
-120.0,169.0,3.621
-53.0,-12.0,3.622
6.0,-239.0,3.623
3.0,-494.0,3.624
-42.0,-679.0,3.625
-24.0,-699.0,3.626
89.0,-554.0,3.627
185.0,-287.0,3.628
174.0,33.0,3.629
112.0,272.0,3.63
95.0,274.0,3.631
133.0,40.0,3.632
176.0,-219.0,3.633
198.0,-279.0,3.634
190.0,-108.0,3.635
144.0,165.0,3.636
80.0,403.0,3.637
37.0,550.0,3.638
47.0,558.0,3.639
79.0,427.0,3.64
84.0,224.0,3.641
47.0,58.0,3.642
9.0,-28.0,3.643
8.0,-75.0,3.644
27.0,-137.0,3.645
26.0,-204.0,3.646
-5.0,-216.0,3.647
-36.0,-157.0,3.648
-41.0,-75.0,3.649
-24.0,-29.0,3.65
-6.0,-25.0,3.651
-9.0,-42.0,3.652
-43.0,-77.0,3.653
-99.0,-146.0,3.654
-136.0,-263.0,3.655
-117.0,-403.0,3.656
-58.0,-499.0,3.657
-16.0,-473.0,3.658
-8.0,-345.0,3.659
2.0,-242.0,3.66
20.0,-214.0,3.661
32.0,-149.0,3.662
25.0,24.0,3.663
16.0,203.0,3.664
2.0,396.0,3.665
-4.0,492.0,3.666
9.0,296.0,3.667
21.0,78.0,3.668
29.0,-206.0,3.669
30.0,-347.0,3.67
11.0,-58.0,3.671
-4.0,248.0,3.672
-4.0,608.0,3.673
-3.0,841.0,3.674
4.0,692.0,3.675
17.0,507.0,3.676
46.0,215.0,3.677
71.0,-67.0,3.678
65.0,-227.0,3.679
42.0,-189.0,3.68
40.0,-42.0,3.681
54.0,52.0,3.682
51.0,27.0,3.683
20.0,-51.0,3.684
-21.0,-136.0,3.685
-65.0,-287.0,3.686
-105.0,-552.0,3.687
-125.0,-834.0,3.688
-115.0,-905.0,3.689
-112.0,-567.0,3.69
-147.0,160.0,3.691
-194.0,997.0,3.692
-207.0,1552.0,3.693
-185.0,1586.0,3.694
-149.0,1156.0,3.695
-86.0,534.0,3.696
9.0,14.0,3.697
130.0,-309.0,3.698
194.0,-416.0,3.699
211.0,-421.0,3.7
196.0,-458.0,3.701
157.0,-519.0,3.702
117.0,-499.0,3.703
104.0,-362.0,3.704
86.0,-213.0,3.705
11.0,-147.0,3.706
-80.0,-155.0,3.707
-90.0,-199.0,3.708
-9.0,-283.0,3.709
57.0,-395.0,3.71
47.0,-469.0,3.711
18.0,-464.0,3.712
14.0,-415.0,3.713
4.0,-357.0,3.714
-26.0,-291.0,3.715
-13.0,-223.0,3.716
73.0,-173.0,3.717
162.0,-111.0,3.718
124.0,24.0,3.719
-52.0,241.0,3.72
-243.0,452.0,3.721
-307.0,580.0,3.722
-221.0,580.0,3.723
-65.0,423.0,3.724
63.0,128.0,3.725
138.0,-165.0,3.726
201.0,-271.0,3.727
262.0,-135.0,3.728
260.0,125.0,3.729
169.0,359.0,3.73
60.0,488.0,3.731
9.0,472.0,3.732
-1.0,295.0,3.733
-26.0,48.0,3.734
-67.0,-107.0,3.735
-106.0,-117.0,3.736
-147.0,-81.0,3.737
-169.0,-74.0,3.738
-117.0,-36.0,3.739
-59.0,40.0,3.74
18.0,233.0,3.741
73.0,379.0,3.742
57.0,381.0,3.743
50.0,342.0,3.744
70.0,175.0,3.745
74.0,6.0,3.746
27.0,-170.0,3.747
-8.0,-307.0,3.748
-5.0,-326.0,3.749
3.0,-341.0,3.75
29.0,-342.0,3.751
43.0,-344.0,3.752
13.0,-344.0,3.753
-6.0,-313.0,3.754
5.0,-194.0,3.755
23.0,-77.0,3.756
60.0,29.0,3.757
80.0,122.0,3.758
9.0,142.0,3.759
-121.0,109.0,3.76
-267.0,39.0,3.761
-347.0,-20.0,3.762
-299.0,-38.0,3.763
-169.0,-29.0,3.764
-72.0,-34.0,3.765
-40.0,-52.0,3.766
-5.0,-32.0,3.767
67.0,50.0,3.768
110.0,150.0,3.769
79.0,218.0,3.77
28.0,251.0,3.771
15.0,279.0,3.772
23.0,294.0,3.773
22.0,248.0,3.774
33.0,139.0,3.775
94.0,35.0,3.776
185.0,0.0,3.777
240.0,5.0,3.778
260.0,2.0,3.779
253.0,-6.0,3.78
166.0,-30.0,3.781
85.0,-56.0,3.782
21.0,-88.0,3.783
-45.0,-121.0,3.784
-120.0,-157.0,3.785
-176.0,-181.0,3.786
-172.0,-168.0,3.787
-159.0,-152.0,3.788
-124.0,-130.0,3.789
-86.0,-99.0,3.79
-36.0,-45.0,3.791
4.0,-9.0,3.792
16.0,-29.0,3.793
29.0,-43.0,3.794
42.0,-39.0,3.795
47.0,-33.0,3.796
28.0,-26.0,3.797
8.0,-22.0,3.798
6.0,-29.0,3.799
24.0,-46.0,3.8
21.0,-81.0,3.801
3.0,-125.0,3.802
8.0,-150.0,3.803
28.0,-113.0,3.804
26.0,-4.0,3.805
8.0,128.0,3.806
2.0,224.0,3.807
7.0,249.0,3.808
0.0,206.0,3.809
-17.0,122.0,3.81
-21.0,34.0,3.811
-12.0,-11.0,3.812
-4.0,2.0,3.813
6.0,41.0,3.814
28.0,66.0,3.815
42.0,76.0,3.816
38.0,91.0,3.817
19.0,101.0,3.818
3.0,80.0,3.819
-2.0,27.0,3.82
4.0,-27.0,3.821
12.0,-52.0,3.822
3.0,-56.0,3.823
-23.0,-54.0,3.824
-35.0,-49.0,3.825
-11.0,-51.0,3.826
16.0,-60.0,3.827
6.0,-66.0,3.828
-21.0,-57.0,3.829
-22.0,-41.0,3.83
-2.0,-31.0,3.831
-2.0,-23.0,3.832
-21.0,-5.0,3.833
-22.0,13.0,3.834
0.0,20.0,3.835
13.0,14.0,3.836
3.0,13.0,3.837
-7.0,11.0,3.838
-4.0,5.0,3.839
0.0,-7.0,3.84
-2.0,-18.0,3.841
-3.0,-21.0,3.842
3.0,-23.0,3.843
9.0,-24.0,3.844
6.0,-20.0,3.845
2.0,-13.0,3.846
1.0,-6.0,3.847
2.0,0.0,3.848
-1.0,10.0,3.849
-6.0,15.0,3.85
-13.0,15.0,3.851
-15.0,17.0,3.852
-7.0,29.0,3.853
12.0,40.0,3.854
28.0,43.0,3.855
34.0,40.0,3.856
30.0,36.0,3.857
22.0,30.0,3.858
12.0,23.0,3.859
1.0,15.0,3.86
-12.0,3.0,3.861
-21.0,-7.0,3.862
-11.0,-9.0,3.863
-5.0,-11.0,3.864
-10.0,-11.0,3.865
-14.0,-12.0,3.866
-10.0,-12.0,3.867
-5.0,-13.0,3.868
-2.0,-14.0,3.869
2.0,-14.0,3.87
6.0,-11.0,3.871
10.0,-9.0,3.872
8.0,-9.0,3.873
7.0,-7.0,3.874
11.0,-5.0,3.875
13.0,-4.0,3.876
10.0,-8.0,3.877
7.0,-13.0,3.878
2.0,-15.0,3.879
-1.0,-11.0,3.88
-1.0,-8.0,3.881
5.0,-2.0,3.882
20.0,7.0,3.883
30.0,14.0,3.884
24.0,13.0,3.885
9.0,4.0,3.886
2.0,-2.0,3.887
7.0,-4.0,3.888
10.0,-1.0,3.889
2.0,-2.0,3.89
-3.0,-4.0,3.891
0.0,-4.0,3.892
2.0,-1.0,3.893
2.0,0.0,3.894
0.0,-1.0,3.895
-1.0,-4.0,3.896
-1.0,-7.0,3.897
-5.0,-9.0,3.898
-12.0,-10.0,3.899
-18.0,-9.0,3.9
-19.0,-9.0,3.901
-14.0,-6.0,3.902
-1.0,0.0,3.903
14.0,7.0,3.904
18.0,14.0,3.905
14.0,14.0,3.906
11.0,10.0,3.907
15.0,6.0,3.908
21.0,13.0,3.909
21.0,23.0,3.91
14.0,14.0,3.911
5.0,-3.0,3.912
1.0,-9.0,3.913
1.0,-2.0,3.914
1.0,5.0,3.915
0.0,1.0,3.916
-2.0,0.0,3.917
-4.0,-1.0,3.918
-8.0,-6.0,3.919
-14.0,-13.0,3.92
-14.0,-14.0,3.921
-10.0,-4.0,3.922
-1.0,1.0,3.923
8.0,0.0,3.924
10.0,3.0,3.925
1.0,10.0,3.926
-9.0,6.0,3.927
-11.0,-9.0,3.928
-8.0,-15.0,3.929
-6.0,-3.0,3.93
-1.0,7.0,3.931
17.0,3.0,3.932
43.0,-3.0,3.933
59.0,0.0,3.934
52.0,1.0,3.935
23.0,-6.0,3.936
-4.0,-12.0,3.937
-18.0,-13.0,3.938
-21.0,-7.0,3.939
-28.0,-3.0,3.94
-47.0,-6.0,3.941
-62.0,-6.0,3.942
-53.0,-5.0,3.943
-23.0,-3.0,3.944
9.0,1.0,3.945
33.0,10.0,3.946
49.0,20.0,3.947
53.0,27.0,3.948
38.0,22.0,3.949
9.0,9.0,3.95
-14.0,-2.0,3.951
-25.0,-5.0,3.952
-31.0,-7.0,3.953
-37.0,-15.0,3.954
-32.0,-24.0,3.955
-11.0,-24.0,3.956
5.0,-19.0,3.957
1.0,-13.0,3.958
-10.0,-8.0,3.959
-8.0,-1.0,3.96
10.0,2.0,3.961
25.0,3.0,3.962
30.0,1.0,3.963
30.0,3.0,3.964
27.0,7.0,3.965
16.0,5.0,3.966
5.0,-1.0,3.967
7.0,-5.0,3.968
20.0,-2.0,3.969
28.0,3.0,3.97
25.0,3.0,3.971
16.0,-1.0,3.972
11.0,-1.0,3.973
8.0,4.0,3.974
17.0,7.0,3.975
30.0,6.0,3.976
39.0,1.0,3.977
27.0,-6.0,3.978
12.0,-11.0,3.979
-5.0,-14.0,3.98
-26.0,-14.0,3.981
-43.0,-7.0,3.982
-47.0,-2.0,3.983
-44.0,0.0,3.984
-20.0,2.0,3.985
4.0,4.0,3.986
26.0,4.0,3.987
40.0,2.0,3.988
24.0,1.0,3.989
6.0,2.0,3.99
-15.0,1.0,3.991
-29.0,1.0,3.992
-22.0,8.0,3.993
-18.0,17.0,3.994
-24.0,17.0,3.995
-28.0,3.0,3.996
-20.0,-14.0,3.997
-14.0,-24.0,3.998
-16.0,-15.0,3.999
-12.0,0.0,4.0
-3.0,10.0,4.001
3.0,14.0,4.002
10.0,13.0,4.003
27.0,10.0,4.004
41.0,3.0,4.005
34.0,0.0,4.006
8.0,4.0,4.007
-12.0,7.0,4.008
-13.0,4.0,4.009
-2.0,1.0,4.01
10.0,3.0,4.011
24.0,7.0,4.012
43.0,9.0,4.013
65.0,11.0,4.014
82.0,15.0,4.015
94.0,12.0,4.016
97.0,1.0,4.017
70.0,-14.0,4.018
6.0,-24.0,4.019
-69.0,-21.0,4.02
-119.0,-18.0,4.021
-121.0,-15.0,4.022
-86.0,-19.0,4.023
-37.0,-28.0,4.024
4.0,-35.0,4.025
9.0,-29.0,4.026
-33.0,-14.0,4.027
-90.0,0.0,4.028
-112.0,4.0,4.029
-72.0,6.0,4.03
19.0,17.0,4.031
142.0,31.0,4.032
249.0,31.0,4.033
265.0,12.0,4.034
159.0,-5.0,4.035
5.0,-6.0,4.036
-86.0,7.0,4.037
-97.0,11.0,4.038
-84.0,6.0,4.039
-99.0,1.0,4.04
-128.0,-2.0,4.041
-128.0,-6.0,4.042
-89.0,-10.0,4.043
-33.0,-6.0,4.044
26.0,4.0,4.045
82.0,7.0,4.046
129.0,0.0,4.047
141.0,0.0,4.048
100.0,14.0,4.049
26.0,23.0,4.05
-19.0,17.0,4.051
-16.0,14.0,4.052
-23.0,26.0,4.053
-80.0,35.0,4.054
-143.0,22.0,4.055
-150.0,-7.0,4.056
-115.0,-35.0,4.057
-85.0,-63.0,4.058
-79.0,-84.0,4.059
-80.0,-79.0,4.06
-63.0,-49.0,4.061
-16.0,-16.0,4.062
60.0,-7.0,4.063
123.0,-9.0,4.064
137.0,-2.0,4.065
126.0,12.0,4.066
142.0,11.0,4.067
177.0,-2.0,4.068
196.0,-1.0,4.069
209.0,18.0,4.07
249.0,38.0,4.071
248.0,45.0,4.072
111.0,44.0,4.073
-112.0,31.0,4.074
-237.0,5.0,4.075
-189.0,-16.0,4.076
-114.0,-18.0,4.077
-162.0,-10.0,4.078
-278.0,-13.0,4.079
-299.0,-26.0,4.08
-193.0,-33.0,4.081
-91.0,-26.0,4.082
-70.0,-14.0,4.083
-72.0,-2.0,4.084
-32.0,15.0,4.085
24.0,29.0,4.086
67.0,28.0,4.087
117.0,23.0,4.088
199.0,33.0,4.089
262.0,47.0,4.09
232.0,43.0,4.091
95.0,19.0,4.092
-61.0,4.0,4.093
-110.0,8.0,4.094
1.0,10.0,4.095
178.0,-5.0,4.096
268.0,-17.0,4.097
218.0,-11.0,4.098
121.0,6.0,4.099
98.0,9.0,4.1
151.0,-9.0,4.101
177.0,-27.0,4.102
106.0,-35.0,4.103
-24.0,-42.0,4.104
-136.0,-51.0,4.105
-204.0,-46.0,4.106
-247.0,-18.0,4.107
-265.0,19.0,4.108
-242.0,35.0,4.109
-190.0,18.0,4.11
-151.0,-13.0,4.111
-127.0,-26.0,4.112
-85.0,-13.0,4.113
-24.0,8.0,4.114
7.0,18.0,4.115
3.0,19.0,4.116
20.0,20.0,4.117
74.0,21.0,4.118
85.0,14.0,4.119
0.0,6.0,4.12
-99.0,3.0,4.121
-101.0,8.0,4.122
-26.0,8.0,4.123
25.0,-2.0,4.124
31.0,-14.0,4.125
54.0,-22.0,4.126
106.0,-29.0,4.127
122.0,-34.0,4.128
89.0,-27.0,4.129
94.0,-8.0,4.13
189.0,5.0,4.131
273.0,8.0,4.132
204.0,11.0,4.133
-10.0,20.0,4.134
-192.0,26.0,4.135
-195.0,25.0,4.136
-79.0,31.0,4.137
-1.0,41.0,4.138
-36.0,44.0,4.139
-101.0,24.0,4.14
-81.0,-6.0,4.141
6.0,-25.0,4.142
88.0,-33.0,4.143
129.0,-38.0,4.144
133.0,-37.0,4.145
94.0,-27.0,4.146
14.0,-15.0,4.147
-56.0,-11.0,4.148
-77.0,-12.0,4.149
-63.0,-9.0,4.15
-40.0,-6.0,4.151
-15.0,-8.0,4.152
3.0,-14.0,4.153
-19.0,-15.0,4.154
-80.0,-9.0,4.155
-121.0,-5.0,4.156
-101.0,-1.0,4.157
-45.0,-1.0,4.158
4.0,1.0,4.159
22.0,0.0,4.16
15.0,-6.0,4.161
-5.0,-11.0,4.162
6.0,-9.0,4.163
83.0,9.0,4.164
184.0,45.0,4.165
231.0,76.0,4.166
201.0,77.0,4.167
147.0,50.0,4.168
113.0,25.0,4.169
80.0,18.0,4.17
15.0,16.0,4.171
-83.0,3.0,4.172
-193.0,-16.0,4.173
-275.0,-31.0,4.174
-292.0,-42.0,4.175
-246.0,-58.0,4.176
-194.0,-67.0,4.177
-163.0,-66.0,4.178
-119.0,-59.0,4.179
-28.0,-50.0,4.18
76.0,-35.0,4.181
136.0,2.0,4.182
160.0,43.0,4.183
184.0,57.0,4.184
187.0,34.0,4.185
134.0,2.0,4.186
61.0,-9.0,4.187
27.0,-1.0,4.188
25.0,9.0,4.189
9.0,15.0,4.19
-11.0,26.0,4.191
3.0,36.0,4.192
29.0,39.0,4.193
15.0,28.0,4.194
-33.0,11.0,4.195
-56.0,0.0,4.196
-32.0,-8.0,4.197
11.0,-23.0,4.198
50.0,-37.0,4.199
67.0,-38.0,4.2
40.0,-30.0,4.201
-25.0,-14.0,4.202
-71.0,-2.0,4.203
-47.0,6.0,4.204
8.0,6.0,4.205
27.0,-1.0,4.206
21.0,-10.0,4.207
51.0,-11.0,4.208
112.0,-2.0,4.209
130.0,11.0,4.21
88.0,19.0,4.211
73.0,21.0,4.212
134.0,26.0,4.213
173.0,41.0,4.214
61.0,52.0,4.215
-161.0,43.0,4.216
-312.0,18.0,4.217
-312.0,-9.0,4.218
-249.0,-18.0,4.219
-221.0,-19.0,4.22
-183.0,-24.0,4.221
-72.0,-20.0,4.222
37.0,0.0,4.223
37.0,19.0,4.224
-25.0,21.0,4.225
-33.0,6.0,4.226
6.0,-4.0,4.227
19.0,-7.0,4.228
34.0,-14.0,4.229
124.0,-34.0,4.23
214.0,-59.0,4.231
180.0,-65.0,4.232
54.0,-45.0,4.233
-16.0,-19.0,4.234
2.0,-11.0,4.235
9.0,-18.0,4.236
-25.0,-16.0,4.237
-41.0,-2.0,4.238
-1.0,13.0,4.239
40.0,20.0,4.24
37.0,24.0,4.241
10.0,28.0,4.242
-19.0,18.0,4.243
-42.0,0.0,4.244
-41.0,-13.0,4.245
-14.0,-15.0,4.246
8.0,-14.0,4.247
4.0,-10.0,4.248
4.0,2.0,4.249
23.0,14.0,4.25
28.0,11.0,4.251
15.0,3.0,4.252
27.0,6.0,4.253
84.0,20.0,4.254
114.0,25.0,4.255
70.0,21.0,4.256
9.0,18.0,4.257
-12.0,18.0,4.258
-18.0,14.0,4.259
-65.0,-2.0,4.26
-130.0,-20.0,4.261
-134.0,-27.0,4.262
-58.0,-24.0,4.263
16.0,-16.0,4.264
20.0,-3.0,4.265
-17.0,11.0,4.266
-21.0,13.0,4.267
24.0,-1.0,4.268
58.0,-18.0,4.269
42.0,-18.0,4.27
15.0,-1.0,4.271
30.0,18.0,4.272
64.0,21.0,4.273
60.0,5.0,4.274
22.0,-6.0,4.275
1.0,0.0,4.276
11.0,8.0,4.277
13.0,8.0,4.278
-5.0,0.0,4.279
-25.0,-7.0,4.28
-32.0,-11.0,4.281
-29.0,-10.0,4.282
-6.0,-3.0,4.283
46.0,12.0,4.284
87.0,23.0,4.285
68.0,21.0,4.286
7.0,17.0,4.287
-23.0,26.0,4.288
-10.0,42.0,4.289
-4.0,41.0,4.29
-28.0,15.0,4.291
-41.0,-12.0,4.292
-19.0,-19.0,4.293
2.0,-20.0,4.294
-3.0,-30.0,4.295
-17.0,-38.0,4.296
-7.0,-26.0,4.297
13.0,-7.0,4.298
13.0,-1.0,4.299
6.0,-16.0,4.3
-26.0,-29.0,4.301
-38.0,-19.0,4.302
8.0,1.0,4.303
41.0,12.0,4.304
30.0,5.0,4.305
13.0,-9.0,4.306
-23.0,-19.0,4.307
-50.0,-14.0,4.308
-48.0,5.0,4.309
-45.0,24.0,4.31
-37.0,30.0,4.311
-26.0,21.0,4.312
-8.0,5.0,4.313
13.0,-4.0,4.314
41.0,3.0,4.315
73.0,21.0,4.316
118.0,34.0,4.317
154.0,28.0,4.318
136.0,13.0,4.319
94.0,4.0,4.32
52.0,0.0,4.321
14.0,0.0,4.322
-10.0,-3.0,4.323
3.0,-6.0,4.324
69.0,-11.0,4.325
131.0,-22.0,4.326
71.0,-32.0,4.327
-142.0,-35.0,4.328
-361.0,-31.0,4.329
-410.0,-27.0,4.33
-304.0,-25.0,4.331
-209.0,-21.0,4.332
-184.0,-13.0,4.333
-123.0,-9.0,4.334
25.0,-12.0,4.335
138.0,-16.0,4.336
131.0,-13.0,4.337
96.0,-11.0,4.338
160.0,-14.0,4.339
252.0,-9.0,4.34
203.0,19.0,4.341
23.0,62.0,4.342
-98.0,79.0,4.343
-73.0,55.0,4.344
-34.0,16.0,4.345
-97.0,0.0,4.346
-167.0,2.0,4.347
-95.0,-1.0,4.348
71.0,-20.0,4.349
158.0,-41.0,4.35
115.0,-49.0,4.351
66.0,-37.0,4.352
88.0,-17.0,4.353
111.0,-5.0,4.354
74.0,-5.0,4.355
25.0,-5.0,4.356
28.0,5.0,4.357
50.0,17.0,4.358
33.0,22.0,4.359
-12.0,17.0,4.36
-29.0,14.0,4.361
-11.0,22.0,4.362
12.0,33.0,4.363
30.0,42.0,4.364
54.0,39.0,4.365
78.0,17.0,4.366
78.0,-17.0,4.367
54.0,-38.0,4.368
20.0,-32.0,4.369
-10.0,-15.0,4.37
-25.0,-8.0,4.371
-18.0,-14.0,4.372
4.0,-14.0,4.373
28.0,-5.0,4.374
41.0,0.0,4.375
27.0,-4.0,4.376
-20.0,-8.0,4.377
-76.0,-6.0,4.378
-75.0,2.0,4.379
-15.0,11.0,4.38
13.0,15.0,4.381
-46.0,14.0,4.382
-105.0,4.0,4.383
-66.0,-4.0,4.384
27.0,-7.0,4.385
76.0,-2.0,4.386
95.0,5.0,4.387
140.0,18.0,4.388
139.0,27.0,4.389
-5.0,16.0,4.39
-195.0,-5.0,4.391
-235.0,-9.0,4.392
-128.0,6.0,4.393
-65.0,14.0,4.394
-114.0,-4.0,4.395
-141.0,-27.0,4.396
-81.0,-29.0,4.397
-11.0,-23.0,4.398
-9.0,-27.0,4.399
-32.0,-39.0,4.4
-22.0,-42.0,4.401
-6.0,-26.0,4.402
-4.0,-13.0,4.403
24.0,-9.0,4.404
91.0,-5.0,4.405
141.0,4.0,4.406
134.0,23.0,4.407
91.0,47.0,4.408
47.0,62.0,4.409
13.0,49.0,4.41
-8.0,15.0,4.411
-10.0,-6.0,4.412
5.0,-6.0,4.413
33.0,-8.0,4.414
61.0,-19.0,4.415
67.0,-20.0,4.416
36.0,7.0,4.417
-2.0,35.0,4.418
-16.0,37.0,4.419
-33.0,33.0,4.42
-57.0,9.0,4.421
-65.0,-9.0,4.422
-27.0,-5.0,4.423
5.0,-2.0,4.424
19.0,-10.0,4.425
27.0,-17.0,4.426
16.0,-21.0,4.427
17.0,-22.0,4.428
58.0,-12.0,4.429
91.0,-2.0,4.43
98.0,9.0,4.431
95.0,21.0,4.432
61.0,35.0,4.433
35.0,43.0,4.434
32.0,32.0,4.435
-9.0,14.0,4.436
-161.0,-20.0,4.437
-290.0,-55.0,4.438
-229.0,-74.0,4.439
-3.0,-63.0,4.44
163.0,-35.0,4.441
156.0,-14.0,4.442
82.0,-15.0,4.443
36.0,-32.0,4.444
-11.0,-42.0,4.445
-75.0,-32.0,4.446
-86.0,-11.0,4.447
-34.0,-2.0,4.448
-13.0,-9.0,4.449
-49.0,-16.0,4.45
-63.0,-10.0,4.451
-30.0,-1.0,4.452
-18.0,1.0,4.453
-37.0,4.0,4.454
-8.0,24.0,4.455
70.0,45.0,4.456
109.0,51.0,4.457
65.0,35.0,4.458
16.0,22.0,4.459
20.0,25.0,4.46
39.0,27.0,4.461
26.0,15.0,4.462
18.0,-1.0,4.463
65.0,-3.0,4.464
151.0,6.0,4.465
215.0,5.0,4.466
197.0,-11.0,4.467
75.0,-28.0,4.468
-110.0,-31.0,4.469
-254.0,-22.0,4.47
-283.0,-6.0,4.471
-225.0,20.0,4.472
-151.0,48.0,4.473
-93.0,56.0,4.474
-43.0,35.0,4.475
-7.0,6.0,4.476
10.0,-1.0,4.477
19.0,4.0,4.478
35.0,1.0,4.479
40.0,-12.0,4.48
25.0,-24.0,4.481
16.0,-19.0,4.482
29.0,-10.0,4.483
44.0,-15.0,4.484
40.0,-19.0,4.485
40.0,-13.0,4.486
72.0,0.0,4.487
130.0,8.0,4.488
182.0,12.0,4.489
195.0,16.0,4.49
130.0,23.0,4.491
-17.0,26.0,4.492
-186.0,28.0,4.493
-279.0,28.0,4.494
-264.0,19.0,4.495
-188.0,6.0,4.496
-102.0,-5.0,4.497
-21.0,-20.0,4.498
39.0,-42.0,4.499
81.0,-63.0,4.5
71.0,-76.0,4.501
69.0,-80.0,4.502
89.0,-57.0,4.503
99.0,-40.0,4.504
81.0,-40.0,4.505
66.0,-36.0,4.506
60.0,-15.0,4.507
58.0,2.0,4.508
68.0,8.0,4.509
79.0,15.0,4.51
91.0,23.0,4.511
81.0,31.0,4.512
0.0,37.0,4.513
-68.0,41.0,4.514
-96.0,38.0,4.515
-114.0,32.0,4.516
-100.0,14.0,4.517
-86.0,2.0,4.518
-71.0,11.0,4.519
-40.0,15.0,4.52
-17.0,1.0,4.521
-18.0,-8.0,4.522
-19.0,0.0,4.523
0.0,13.0,4.524
16.0,13.0,4.525
8.0,1.0,4.526
-4.0,-10.0,4.527
2.0,-14.0,4.528
2.0,-10.0,4.529
-24.0,2.0,4.53
-38.0,23.0,4.531
-4.0,37.0,4.532
42.0,33.0,4.533
40.0,19.0,4.534
10.0,4.0,4.535
27.0,-5.0,4.536
92.0,-8.0,4.537
130.0,-2.0,4.538
84.0,12.0,4.539
-5.0,23.0,4.54
-62.0,17.0,4.541
-63.0,3.0,4.542
-38.0,-8.0,4.543
-12.0,-17.0,4.544
9.0,-26.0,4.545
27.0,-31.0,4.546
30.0,-27.0,4.547
15.0,-17.0,4.548
-8.0,-10.0,4.549
-16.0,-10.0,4.55
-4.0,-8.0,4.551
12.0,-4.0,4.552
38.0,-4.0,4.553
111.0,-3.0,4.554
222.0,2.0,4.555
290.0,11.0,4.556
245.0,16.0,4.557
109.0,16.0,4.558
-13.0,19.0,4.559
-78.0,21.0,4.56
-148.0,11.0,4.561
-284.0,-9.0,4.562
-431.0,-29.0,4.563
-468.0,-38.0,4.564
-354.0,-34.0,4.565
-179.0,-29.0,4.566
-54.0,-28.0,4.567
1.0,-16.0,4.568
51.0,5.0,4.569
130.0,19.0,4.57
198.0,16.0,4.571
204.0,8.0,4.572
139.0,13.0,4.573
38.0,22.0,4.574
-46.0,7.0,4.575
-69.0,-24.0,4.576
-32.0,-42.0,4.577
8.0,-34.0,4.578
0.0,-16.0,4.579
-28.0,-7.0,4.58
-7.0,-10.0,4.581
61.0,-13.0,4.582
129.0,-18.0,4.583
187.0,-19.0,4.584
235.0,-7.0,4.585
231.0,20.0,4.586
164.0,58.0,4.587
109.0,88.0,4.588
135.0,93.0,4.589
168.0,74.0,4.59
113.0,48.0,4.591
4.0,32.0,4.592
-84.0,20.0,4.593
-177.0,2.0,4.594
-322.0,-14.0,4.595
-423.0,-27.0,4.596
-372.0,-47.0,4.597
-217.0,-87.0,4.598
-125.0,-112.0,4.599
-136.0,-92.0,4.6
-120.0,-50.0,4.601
-18.0,-22.0,4.602
79.0,-13.0,4.603
93.0,5.0,4.604
74.0,29.0,4.605
80.0,31.0,4.606
89.0,8.0,4.607
76.0,-3.0,4.608
64.0,7.0,4.609
69.0,10.0,4.61
64.0,-5.0,4.611
47.0,-17.0,4.612
46.0,-7.0,4.613
64.0,15.0,4.614
85.0,36.0,4.615
118.0,52.0,4.616
178.0,63.0,4.617
235.0,64.0,4.618
208.0,58.0,4.619
78.0,46.0,4.62
-67.0,30.0,4.621
-139.0,12.0,4.622
-138.0,-8.0,4.623
-110.0,-31.0,4.624
-75.0,-49.0,4.625
-37.0,-49.0,4.626
-32.0,-36.0,4.627
-68.0,-27.0,4.628
-96.0,-33.0,4.629
-64.0,-36.0,4.63
-7.0,-22.0,4.631
7.0,-8.0,4.632
-15.0,-8.0,4.633
-11.0,-10.0,4.634
24.0,-2.0,4.635
45.0,13.0,4.636
43.0,21.0,4.637
46.0,15.0,4.638
56.0,4.0,4.639
49.0,-7.0,4.64
33.0,-11.0,4.641
34.0,6.0,4.642
42.0,31.0,4.643
26.0,36.0,4.644
-14.0,24.0,4.645
-41.0,14.0,4.646
-45.0,21.0,4.647
-45.0,24.0,4.648
-46.0,12.0,4.649
-38.0,-4.0,4.65
-21.0,-14.0,4.651
4.0,-24.0,4.652
43.0,-30.0,4.653
67.0,-26.0,4.654
39.0,-12.0,4.655
-14.0,-2.0,4.656
-20.0,-2.0,4.657
59.0,-6.0,4.658
189.0,-7.0,4.659
286.0,-3.0,4.66
275.0,13.0,4.661
133.0,42.0,4.662
-70.0,64.0,4.663
-214.0,53.0,4.664
-262.0,14.0,4.665
-277.0,-23.0,4.666
-286.0,-44.0,4.667
-229.0,-61.0,4.668
-113.0,-85.0,4.669
-54.0,-101.0,4.67
-97.0,-93.0,4.671
-115.0,-62.0,4.672
-13.0,-24.0,4.673
113.0,11.0,4.674
134.0,36.0,4.675
78.0,41.0,4.676
54.0,37.0,4.677
72.0,34.0,4.678
73.0,40.0,4.679
43.0,42.0,4.68
14.0,21.0,4.681
-5.0,-2.0,4.682
-15.0,-10.0,4.683
16.0,-7.0,4.684
87.0,-4.0,4.685
137.0,4.0,4.686
118.0,22.0,4.687
63.0,44.0,4.688
27.0,57.0,4.689
24.0,50.0,4.69
26.0,24.0,4.691
21.0,-12.0,4.692
-8.0,-34.0,4.693
-64.0,-24.0,4.694
-101.0,-2.0,4.695
-43.0,-5.0,4.696
90.0,-30.0,4.697
175.0,-42.0,4.698
99.0,-13.0,4.699
-85.0,19.0,4.7
-205.0,10.0,4.701
-188.0,-18.0,4.702
-122.0,-21.0,4.703
-97.0,1.0,4.704
-96.0,15.0,4.705
-61.0,4.0,4.706
-7.0,-8.0,4.707
16.0,-10.0,4.708
14.0,-11.0,4.709
33.0,-14.0,4.71
87.0,-8.0,4.711
135.0,10.0,4.712
139.0,25.0,4.713
97.0,32.0,4.714
46.0,39.0,4.715
13.0,46.0,4.716
-1.0,48.0,4.717
-19.0,42.0,4.718
-42.0,36.0,4.719
-52.0,25.0,4.72
-32.0,-7.0,4.721
-1.0,-53.0,4.722
22.0,-87.0,4.723
40.0,-81.0,4.724
46.0,-50.0,4.725
21.0,-28.0,4.726
-19.0,-22.0,4.727
-29.0,-16.0,4.728
2.0,-5.0,4.729
36.0,3.0,4.73
52.0,6.0,4.731
74.0,11.0,4.732
127.0,21.0,4.733
177.0,22.0,4.734
181.0,13.0,4.735
150.0,3.0,4.736
113.0,0.0,4.737
58.0,-5.0,4.738
-43.0,-9.0,4.739
-174.0,-7.0,4.74
-250.0,-1.0,4.741
-230.0,3.0,4.742
-171.0,0.0,4.743
-147.0,-7.0,4.744
-145.0,-8.0,4.745
-103.0,0.0,4.746
-32.0,10.0,4.747
-8.0,7.0,4.748
-41.0,-6.0,4.749
-62.0,-16.0,4.75
-26.0,-13.0,4.751
22.0,-7.0,4.752
43.0,-3.0,4.753
54.0,3.0,4.754
79.0,12.0,4.755
99.0,18.0,4.756
114.0,21.0,4.757
148.0,23.0,4.758
182.0,28.0,4.759
144.0,26.0,4.76
22.0,13.0,4.761
-87.0,3.0,4.762
-109.0,-3.0,4.763
-84.0,-15.0,4.764
-72.0,-33.0,4.765
-58.0,-37.0,4.766
-14.0,-20.0,4.767
16.0,-1.0,4.768
-4.0,4.0,4.769
-22.0,4.0,4.77
7.0,8.0,4.771
27.0,15.0,4.772
-19.0,16.0,4.773
-76.0,7.0,4.774
-64.0,-9.0,4.775
-16.0,-27.0,4.776
-4.0,-32.0,4.777
-16.0,-18.0,4.778
13.0,6.0,4.779
86.0,16.0,4.78
154.0,2.0,4.781
207.0,-7.0,4.782
239.0,2.0,4.783
192.0,19.0,4.784
33.0,20.0,4.785
-149.0,10.0,4.786
-229.0,-1.0,4.787
-198.0,-18.0,4.788
-131.0,-49.0,4.789
-67.0,-78.0,4.79
-1.0,-73.0,4.791
37.0,-30.0,4.792
33.0,16.0,4.793
21.0,35.0,4.794
42.0,27.0,4.795
63.0,12.0,4.796
48.0,13.0,4.797
22.0,24.0,4.798
25.0,30.0,4.799
32.0,25.0,4.8
9.0,12.0,4.801
-27.0,11.0,4.802
-41.0,11.0,4.803
-49.0,4.0,4.804
-64.0,-7.0,4.805
-63.0,-10.0,4.806
-28.0,-6.0,4.807
7.0,-2.0,4.808
31.0,0.0,4.809
75.0,7.0,4.81
140.0,15.0,4.811
160.0,15.0,4.812
115.0,6.0,4.813
98.0,0.0,4.814
180.0,4.0,4.815
276.0,14.0,4.816
255.0,28.0,4.817
97.0,34.0,4.818
-77.0,24.0,4.819
-193.0,1.0,4.82
-290.0,-15.0,4.821
-384.0,-12.0,4.822
-402.0,-3.0,4.823
-305.0,-11.0,4.824
-174.0,-35.0,4.825
-94.0,-54.0,4.826
-36.0,-55.0,4.827
47.0,-39.0,4.828
113.0,-16.0,4.829
98.0,2.0,4.83
41.0,9.0,4.831
14.0,8.0,4.832
12.0,7.0,4.833
-20.0,7.0,4.834
-60.0,1.0,4.835
-51.0,-8.0,4.836
0.0,-7.0,4.837
33.0,-3.0,4.838
23.0,-7.0,4.839
4.0,-16.0,4.84
19.0,-16.0,4.841
61.0,-2.0,4.842
106.0,11.0,4.843
135.0,18.0,4.844
134.0,26.0,4.845
112.0,28.0,4.846
104.0,13.0,4.847
120.0,-3.0,4.848
117.0,-3.0,4.849
64.0,8.0,4.85
-7.0,7.0,4.851
-38.0,-1.0,4.852
-26.0,1.0,4.853
-12.0,12.0,4.854
-16.0,15.0,4.855
-25.0,10.0,4.856
-23.0,7.0,4.857
-11.0,2.0,4.858
0.0,-5.0,4.859
3.0,-10.0,4.86
13.0,-8.0,4.861
75.0,-3.0,4.862
209.0,-6.0,4.863
319.0,-11.0,4.864
249.0,-3.0,4.865
-24.0,9.0,4.866
-302.0,10.0,4.867
-379.0,0.0,4.868
-287.0,-4.0,4.869
-206.0,1.0,4.87
-188.0,4.0,4.871
-116.0,-2.0,4.872
50.0,-8.0,4.873
188.0,-12.0,4.874
190.0,-19.0,4.875
100.0,-27.0,4.876
13.0,-26.0,4.877
-62.0,-18.0,4.878
-128.0,-12.0,4.879
-137.0,-12.0,4.88
-73.0,-11.0,4.881
2.0,-4.0,4.882
35.0,0.0,4.883
36.0,-1.0,4.884
38.0,-1.0,4.885
38.0,2.0,4.886
32.0,2.0,4.887
36.0,-1.0,4.888
53.0,-1.0,4.889
69.0,10.0,4.89
92.0,28.0,4.891
133.0,39.0,4.892
165.0,40.0,4.893
145.0,31.0,4.894
72.0,22.0,4.895
-23.0,18.0,4.896
-125.0,17.0,4.897
-228.0,0.0,4.898
-278.0,-24.0,4.899
-235.0,-40.0,4.9
-133.0,-42.0,4.901
-45.0,-35.0,4.902
-1.0,-26.0,4.903
26.0,-14.0,4.904
52.0,-2.0,4.905
71.0,1.0,4.906
70.0,-2.0,4.907
56.0,0.0,4.908
38.0,6.0,4.909
20.0,6.0,4.91
12.0,0.0,4.911
13.0,2.0,4.912
16.0,13.0,4.913
15.0,22.0,4.914
35.0,22.0,4.915
83.0,16.0,4.916
132.0,11.0,4.917
132.0,6.0,4.918
84.0,5.0,4.919
38.0,7.0,4.92
40.0,6.0,4.921
54.0,6.0,4.922
20.0,10.0,4.923
-45.0,9.0,4.924
-66.0,-6.0,4.925
-23.0,-29.0,4.926
14.0,-44.0,4.927
-8.0,-41.0,4.928
-56.0,-29.0,4.929
-77.0,-16.0,4.93
-69.0,-9.0,4.931
-55.0,-8.0,4.932
-40.0,-16.0,4.933
-23.0,-19.0,4.934
-27.0,-14.0,4.935
-48.0,-8.0,4.936
-53.0,-3.0,4.937
-32.0,3.0,4.938
-11.0,10.0,4.939
-11.0,8.0,4.94
-6.0,-4.0,4.941
31.0,-4.0,4.942
102.0,10.0,4.943
188.0,26.0,4.944
245.0,30.0,4.945
226.0,27.0,4.946
133.0,27.0,4.947
41.0,25.0,4.948
0.0,16.0,4.949
-33.0,9.0,4.95
-100.0,9.0,4.951
-167.0,15.0,4.952
-194.0,21.0,4.953
-225.0,20.0,4.954
-297.0,13.0,4.955
-324.0,0.0,4.956
-237.0,-13.0,4.957
-89.0,-28.0,4.958
7.0,-34.0,4.959
53.0,-36.0,4.96
118.0,-39.0,4.961
183.0,-38.0,4.962
173.0,-26.0,4.963
107.0,-7.0,4.964
67.0,8.0,4.965
57.0,11.0,4.966
28.0,7.0,4.967
-9.0,6.0,4.968
0.0,5.0,4.969
45.0,0.0,4.97
71.0,-8.0,4.971
74.0,-10.0,4.972
79.0,-3.0,4.973
77.0,3.0,4.974
37.0,5.0,4.975
-22.0,7.0,4.976
-49.0,14.0,4.977
-48.0,17.0,4.978
-41.0,14.0,4.979
-27.0,8.0,4.98
26.0,-1.0,4.981
107.0,-1.0,4.982
161.0,7.0,4.983
147.0,21.0,4.984
84.0,28.0,4.985
22.0,23.0,4.986
-19.0,8.0,4.987
-57.0,-8.0,4.988
-109.0,-25.0,4.989
-153.0,-39.0,4.99
-142.0,-42.0,4.991
-73.0,-30.0,4.992
-8.0,-19.0,4.993
3.0,-13.0,4.994
0.0,-8.0,4.995
55.0,-1.0,4.996
159.0,3.0,4.997
232.0,-3.0,4.998
195.0,-5.0,4.999
59.0,5.0,5.0
-75.0,20.0,5.001
-138.0,24.0,5.002
-142.0,17.0,5.003
-150.0,12.0,5.004
-175.0,7.0,5.005
-161.0,-2.0,5.006
-91.0,-6.0,5.007
-21.0,1.0,5.008
-2.0,10.0,5.009
-1.0,7.0,5.01
28.0,-5.0,5.011
62.0,-10.0,5.012
57.0,-6.0,5.013
29.0,0.0,5.014
25.0,1.0,5.015
45.0,0.0,5.016
58.0,1.0,5.017
70.0,1.0,5.018
105.0,6.0,5.019
148.0,12.0,5.02
154.0,14.0,5.021
108.0,16.0,5.022
41.0,17.0,5.023
-11.0,20.0,5.024
-49.0,18.0,5.025
-94.0,4.0,5.026
-141.0,-16.0,5.027
-147.0,-32.0,5.028
-82.0,-35.0,5.029
2.0,-27.0,5.03
8.0,-16.0,5.031
-64.0,-6.0,5.032
-110.0,6.0,5.033
-59.0,13.0,5.034
16.0,15.0,5.035
26.0,8.0,5.036
-3.0,-5.0,5.037
-7.0,-23.0,5.038
19.0,-31.0,5.039
22.0,-26.0,5.04
6.0,-21.0,5.041
10.0,-25.0,5.042
26.0,-28.0,5.043
28.0,-19.0,5.044
22.0,0.0,5.045
31.0,12.0,5.046
39.0,12.0,5.047
27.0,10.0,5.048
14.0,9.0,5.049
19.0,8.0,5.05
24.0,4.0,5.051
13.0,3.0,5.052
4.0,4.0,5.053
15.0,5.0,5.054
35.0,5.0,5.055
54.0,6.0,5.056
74.0,11.0,5.057
78.0,14.0,5.058
48.0,13.0,5.059
-2.0,14.0,5.06
-25.0,16.0,5.061
-11.0,21.0,5.062
-3.0,20.0,5.063
-29.0,14.0,5.064
-68.0,11.0,5.065
-84.0,8.0,5.066
-64.0,2.0,5.067
-20.0,-4.0,5.068
24.0,-7.0,5.069
47.0,-7.0,5.07
43.0,-9.0,5.071
16.0,-14.0,5.072
-22.0,-22.0,5.073
-59.0,-29.0,5.074
-78.0,-34.0,5.075
-62.0,-32.0,5.076
-7.0,-20.0,5.077
93.0,-4.0,5.078
196.0,11.0,5.079
204.0,22.0,5.08
74.0,27.0,5.081
-100.0,33.0,5.082
-167.0,36.0,5.083
-119.0,29.0,5.084
-83.0,12.0,5.085
-101.0,-11.0,5.086
-87.0,-34.0,5.087
-13.0,-44.0,5.088
32.0,-35.0,5.089
8.0,-23.0,5.09
12.0,-26.0,5.091
106.0,-38.0,5.092
195.0,-35.0,5.093
167.0,-8.0,5.094
55.0,19.0,5.095
-24.0,29.0,5.096
-30.0,33.0,5.097
-27.0,35.0,5.098
-69.0,37.0,5.099
-138.0,23.0,5.1
-161.0,-5.0,5.101
-119.0,-23.0,5.102
-78.0,-28.0,5.103
-93.0,-24.0,5.104
-101.0,-19.0,5.105
-4.0,-12.0,5.106
172.0,-1.0,5.107
303.0,18.0,5.108
334.0,36.0,5.109
295.0,46.0,5.11
180.0,46.0,5.111
-36.0,43.0,5.112
-259.0,39.0,5.113
-333.0,23.0,5.114
-254.0,-17.0,5.115
-160.0,-68.0,5.116
-109.0,-99.0,5.117
-44.0,-94.0,5.118
34.0,-59.0,5.119
42.0,-23.0,5.12
3.0,-9.0,5.121
33.0,-3.0,5.122
128.0,8.0,5.123
137.0,21.0,5.124
35.0,27.0,5.125
-31.0,28.0,5.126
10.0,29.0,5.127
60.0,30.0,5.128
52.0,24.0,5.129
58.0,8.0,5.13
119.0,-4.0,5.131
141.0,-6.0,5.132
68.0,3.0,5.133
-30.0,14.0,5.134
-71.0,19.0,5.135
-66.0,18.0,5.136
-58.0,18.0,5.137
-51.0,16.0,5.138
-30.0,12.0,5.139
-15.0,6.0,5.14
-5.0,7.0,5.141
21.0,13.0,5.142
69.0,5.0,5.143
111.0,-22.0,5.144
109.0,-44.0,5.145
52.0,-40.0,5.146
-39.0,-23.0,5.147
-103.0,-18.0,5.148
-84.0,-20.0,5.149
-12.0,-12.0,5.15
20.0,3.0,5.151
-14.0,6.0,5.152
-27.0,-3.0,5.153
33.0,-7.0,5.154
93.0,0.0,5.155
60.0,9.0,5.156
-28.0,12.0,5.157
-95.0,12.0,5.158
-93.0,12.0,5.159
-67.0,6.0,5.16
-33.0,-11.0,5.161
2.0,-28.0,5.162
11.0,-30.0,5.163
-10.0,-20.0,5.164
-24.0,-8.0,5.165
-8.0,1.0,5.166
4.0,9.0,5.167
-5.0,17.0,5.168
-7.0,24.0,5.169
19.0,31.0,5.17
40.0,34.0,5.171
29.0,35.0,5.172
16.0,30.0,5.173
27.0,18.0,5.174
42.0,4.0,5.175
36.0,-7.0,5.176
29.0,-12.0,5.177
51.0,-23.0,5.178
92.0,-48.0,5.179
112.0,-90.0,5.18
100.0,-125.0,5.181
99.0,-105.0,5.182
134.0,-20.0,5.183
149.0,87.0,5.184
50.0,153.0,5.185
-148.0,157.0,5.186
-305.0,112.0,5.187
-315.0,48.0,5.188
-245.0,-11.0,5.189
-199.0,-41.0,5.19
-159.0,-32.0,5.191
-63.0,-8.0,5.192
35.0,-4.0,5.193
54.0,-18.0,5.194
32.0,-20.0,5.195
66.0,-4.0,5.196
131.0,5.0,5.197
131.0,-5.0,5.198
64.0,-12.0,5.199
6.0,-4.0,5.2
-10.0,-3.0,5.201
-22.0,-20.0,5.202
-20.0,-46.0,5.203
21.0,-57.0,5.204
68.0,-46.0,5.205
58.0,-26.0,5.206
8.0,-11.0,5.207
-20.0,-6.0,5.208
-16.0,-6.0,5.209
-12.0,-3.0,5.21
-14.0,2.0,5.211
3.0,-1.0,5.212
42.0,-7.0,5.213
82.0,-3.0,5.214
114.0,13.0,5.215
125.0,27.0,5.216
100.0,30.0,5.217
31.0,27.0,5.218
-44.0,25.0,5.219
-92.0,18.0,5.22
-116.0,0.0,5.221
-122.0,-17.0,5.222
-90.0,-25.0,5.223
-31.0,-25.0,5.224
0.0,-21.0,5.225
-19.0,-11.0,5.226
-34.0,-2.0,5.227
0.0,0.0,5.228
64.0,-7.0,5.229
144.0,-21.0,5.23
254.0,-35.0,5.231
332.0,-40.0,5.232
243.0,-26.0,5.233
-15.0,6.0,5.234
-246.0,41.0,5.235
-292.0,50.0,5.236
-223.0,38.0,5.237
-160.0,14.0,5.238
-98.0,0.0,5.239
11.0,3.0,5.24
105.0,20.0,5.241
83.0,43.0,5.242
3.0,54.0,5.243
-14.0,31.0,5.244
25.0,-19.0,5.245
32.0,-59.0,5.246
-5.0,-51.0,5.247
-38.0,11.0,5.248
-59.0,83.0,5.249
-75.0,117.0,5.25
-67.0,103.0,5.251
-33.0,64.0,5.252
-9.0,15.0,5.253
-1.0,-34.0,5.254
23.0,-67.0,5.255
53.0,-64.0,5.256
44.0,-40.0,5.257
7.0,-30.0,5.258
8.0,-38.0,5.259
46.0,-37.0,5.26
55.0,-20.0,5.261
30.0,-5.0,5.262
30.0,-5.0,5.263
63.0,-2.0,5.264
75.0,12.0,5.265
62.0,19.0,5.266
73.0,10.0,5.267
92.0,1.0,5.268
58.0,4.0,5.269
-25.0,3.0,5.27
-75.0,-14.0,5.271
-65.0,-30.0,5.272
-46.0,-30.0,5.273
-55.0,-21.0,5.274
-64.0,-16.0,5.275
-44.0,-14.0,5.276
-23.0,-6.0,5.277
-20.0,3.0,5.278
-10.0,9.0,5.279
15.0,8.0,5.28
33.0,-4.0,5.281
32.0,-23.0,5.282
42.0,-44.0,5.283
81.0,-47.0,5.284
111.0,-23.0,5.285
85.0,15.0,5.286
19.0,41.0,5.287
-39.0,39.0,5.288
-62.0,20.0,5.289
-62.0,-3.0,5.29
-58.0,-24.0,5.291
-52.0,-42.0,5.292
-45.0,-51.0,5.293
-43.0,-47.0,5.294
-47.0,-30.0,5.295
-46.0,-4.0,5.296
-20.0,25.0,5.297
45.0,55.0,5.298
150.0,83.0,5.299
259.0,100.0,5.3
301.0,101.0,5.301
215.0,91.0,5.302
39.0,71.0,5.303
-106.0,46.0,5.304
-158.0,19.0,5.305
-178.0,-4.0,5.306
-228.0,-27.0,5.307
-262.0,-56.0,5.308
-224.0,-83.0,5.309
-158.0,-92.0,5.31
-120.0,-71.0,5.311
-80.0,-35.0,5.312
-9.0,-9.0,5.313
26.0,-2.0,5.314
-21.0,-1.0,5.315
-61.0,2.0,5.316
-4.0,6.0,5.317
119.0,3.0,5.318
186.0,2.0,5.319
150.0,6.0,5.32
75.0,4.0,5.321
33.0,1.0,5.322
54.0,1.0,5.323
125.0,3.0,5.324
196.0,0.0,5.325
230.0,-9.0,5.326
238.0,-19.0,5.327
207.0,-27.0,5.328
73.0,-33.0,5.329
-156.0,-29.0,5.33
-316.0,-14.0,5.331
-285.0,-4.0,5.332
-163.0,-14.0,5.333
-115.0,-38.0,5.334
-117.0,-50.0,5.335
-53.0,-43.0,5.336
45.0,-23.0,5.337
73.0,3.0,5.338
30.0,40.0,5.339
22.0,74.0,5.34
59.0,84.0,5.341
69.0,79.0,5.342
52.0,68.0,5.343
70.0,57.0,5.344
90.0,41.0,5.345
45.0,25.0,5.346
-19.0,14.0,5.347
-15.0,12.0,5.348
28.0,9.0,5.349
19.0,4.0,5.35
-32.0,-1.0,5.351
-47.0,-8.0,5.352
-25.0,-21.0,5.353
-21.0,-32.0,5.354
-31.0,-31.0,5.355
-8.0,-21.0,5.356
32.0,-11.0,5.357
41.0,-8.0,5.358
20.0,-9.0,5.359
10.0,-8.0,5.36
14.0,-8.0,5.361
7.0,-7.0,5.362
8.0,-6.0,5.363
38.0,-9.0,5.364
59.0,-10.0,5.365
31.0,-10.0,5.366
-6.0,-12.0,5.367
5.0,-18.0,5.368
48.0,-32.0,5.369
46.0,-64.0,5.37
-14.0,-106.0,5.371
-79.0,-126.0,5.372
-105.0,-85.0,5.373
-95.0,9.0,5.374
-59.0,98.0,5.375
-10.0,135.0,5.376
24.0,129.0,5.377
27.0,101.0,5.378
14.0,66.0,5.379
8.0,30.0,5.38
9.0,7.0,5.381
2.0,10.0,5.382
-10.0,8.0,5.383
-20.0,-20.0,5.384
-27.0,-53.0,5.385
-22.0,-62.0,5.386
-3.0,-53.0,5.387
5.0,-47.0,5.388
-17.0,-41.0,5.389
-47.0,-21.0,5.39
-42.0,4.0,5.391
3.0,23.0,5.392
80.0,43.0,5.393
180.0,64.0,5.394
247.0,68.0,5.395
182.0,37.0,5.396
0.0,-1.0,5.397
-173.0,-27.0,5.398
-194.0,-32.0,5.399
-124.0,-29.0,5.4
-101.0,-22.0,5.401
-118.0,-10.0,5.402
-77.0,0.0,5.403
3.0,0.0,5.404
26.0,-1.0,5.405
0.0,-3.0,5.406
12.0,-11.0,5.407
63.0,-18.0,5.408
89.0,-10.0,5.409
102.0,11.0,5.41
138.0,29.0,5.411
140.0,34.0,5.412
35.0,36.0,5.413
-98.0,43.0,5.414
-120.0,45.0,5.415
-23.0,40.0,5.416
79.0,38.0,5.417
126.0,39.0,5.418
108.0,36.0,5.419
22.0,19.0,5.42
-97.0,-11.0,5.421
-152.0,-33.0,5.422
-115.0,-43.0,5.423
-79.0,-43.0,5.424
-98.0,-40.0,5.425
-90.0,-42.0,5.426
0.0,-47.0,5.427
89.0,-57.0,5.428
98.0,-64.0,5.429
77.0,-65.0,5.43
83.0,-62.0,5.431
82.0,-56.0,5.432
34.0,-47.0,5.433
-13.0,-36.0,5.434
-25.0,-25.0,5.435
-31.0,-11.0,5.436
-33.0,7.0,5.437
8.0,31.0,5.438
77.0,53.0,5.439
96.0,68.0,5.44
51.0,65.0,5.441
19.0,49.0,5.442
20.0,17.0,5.443
-8.0,-22.0,5.444
-65.0,-51.0,5.445
-41.0,-57.0,5.446
80.0,-35.0,5.447
143.0,12.0,5.448
34.0,84.0,5.449
-132.0,147.0,5.45
-168.0,164.0,5.451
-85.0,121.0,5.452
-47.0,54.0,5.453
-95.0,8.0,5.454
-107.0,-6.0,5.455
-23.0,-14.0,5.456
54.0,-30.0,5.457
31.0,-52.0,5.458
-43.0,-61.0,5.459
-66.0,-59.0,5.46
-30.0,-59.0,5.461
2.0,-60.0,5.462
20.0,-54.0,5.463
58.0,-37.0,5.464
101.0,-19.0,5.465
101.0,-11.0,5.466
45.0,-7.0,5.467
-19.0,5.0,5.468
-46.0,24.0,5.469
-40.0,35.0,5.47
-29.0,33.0,5.471
-26.0,23.0,5.472
-12.0,10.0,5.473
21.0,-10.0,5.474
57.0,-43.0,5.475
83.0,-82.0,5.476
109.0,-111.0,5.477
157.0,-130.0,5.478
223.0,-121.0,5.479
255.0,-65.0,5.48
221.0,31.0,5.481
123.0,134.0,5.482
-9.0,197.0,5.483
-154.0,195.0,5.484
-280.0,143.0,5.485
-329.0,75.0,5.486
-259.0,21.0,5.487
-126.0,-6.0,5.488
-44.0,-17.0,5.489
-55.0,-32.0,5.49
-89.0,-48.0,5.491
-72.0,-48.0,5.492
-21.0,-29.0,5.493
12.0,-14.0,5.494
20.0,-21.0,5.495
29.0,-34.0,5.496
50.0,-41.0,5.497
94.0,-45.0,5.498
178.0,-43.0,5.499
261.0,-24.0,5.5
235.0,10.0,5.501
60.0,43.0,5.502
-143.0,47.0,5.503
-220.0,33.0,5.504
-160.0,13.0,5.505
-66.0,-8.0,5.506
6.0,-33.0,5.507
59.0,-45.0,5.508
69.0,-39.0,5.509
1.0,-29.0,5.51
-85.0,-32.0,5.511
-89.0,-41.0,5.512
-13.0,-43.0,5.513
44.0,-30.0,5.514
36.0,-6.0,5.515
6.0,25.0,5.516
-9.0,56.0,5.517
-14.0,70.0,5.518
-1.0,67.0,5.519
38.0,56.0,5.52
88.0,43.0,5.521
114.0,32.0,5.522
107.0,17.0,5.523
77.0,10.0,5.524
37.0,14.0,5.525
9.0,18.0,5.526
10.0,12.0,5.527
34.0,-2.0,5.528
45.0,-10.0,5.529
30.0,-10.0,5.53
2.0,-16.0,5.531
-20.0,-39.0,5.532
-33.0,-67.0,5.533
-41.0,-82.0,5.534
-60.0,-73.0,5.535
-109.0,-45.0,5.536
-162.0,-15.0,5.537
-151.0,-14.0,5.538
-63.0,-42.0,5.539
23.0,-60.0,5.54
104.0,-46.0,5.541
183.0,-13.0,5.542
256.0,76.0,5.543
276.0,156.0,5.544
137.0,200.0,5.545
-15.0,219.0,5.546
-203.0,158.0,5.547
-324.0,87.0,5.548
-246.0,-13.0,5.549
-170.0,-87.0,5.55
-102.0,-79.0,5.551
-37.0,-72.0,5.552
17.0,-70.0,5.553
61.0,-61.0,5.554
70.0,-32.0,5.555
59.0,-6.0,5.556
-16.0,11.0,5.557
-90.0,27.0,5.558
-117.0,31.0,5.559
-62.0,24.0,5.56
10.0,-16.0,5.561
37.0,-78.0,5.562
37.0,-138.0,5.563
55.0,-169.0,5.564
75.0,-142.0,5.565
68.0,-52.0,5.566
64.0,60.0,5.567
115.0,130.0,5.568
200.0,139.0,5.569
238.0,110.0,5.57
169.0,72.0,5.571
22.0,36.0,5.572
-118.0,12.0,5.573
-176.0,4.0,5.574
-147.0,-3.0,5.575
-77.0,-29.0,5.576
-15.0,-52.0,5.577
25.0,-51.0,5.578
37.0,-24.0,5.579
36.0,-5.0,5.58
54.0,-7.0,5.581
96.0,0.0,5.582
111.0,14.0,5.583
57.0,13.0,5.584
-44.0,-4.0,5.585
-135.0,-13.0,5.586
-181.0,-6.0,5.587
-172.0,-3.0,5.588
-110.0,-12.0,5.589
-4.0,-24.0,5.59
126.0,-32.0,5.591
243.0,-37.0,5.592
265.0,-37.0,5.593
116.0,-32.0,5.594
-137.0,-30.0,5.595
-296.0,-39.0,5.596
-269.0,-47.0,5.597
-168.0,-42.0,5.598
-124.0,-19.0,5.599
-100.0,15.0,5.6
-17.0,50.0,5.601
64.0,87.0,5.602
58.0,112.0,5.603
34.0,115.0,5.604
85.0,95.0,5.605
153.0,65.0,5.606
126.0,37.0,5.607
34.0,10.0,5.608
-22.0,-15.0,5.609
-29.0,-43.0,5.61
-30.0,-71.0,5.611
-18.0,-87.0,5.612
18.0,-82.0,5.613
38.0,-61.0,5.614
35.0,-37.0,5.615
68.0,-19.0,5.616
149.0,-3.0,5.617
190.0,20.0,5.618
152.0,53.0,5.619
112.0,89.0,5.62
64.0,111.0,5.621
2.0,105.0,5.622
-95.0,58.0,5.623
-172.0,-19.0,5.624
-188.0,-99.0,5.625
-189.0,-154.0,5.626
-146.0,-175.0,5.627
-93.0,-176.0,5.628
-13.0,-171.0,5.629
46.0,-157.0,5.63
40.0,-120.0,5.631
35.0,-58.0,5.632
31.0,14.0,5.633
46.0,85.0,5.634
124.0,162.0,5.635
194.0,233.0,5.636
234.0,265.0,5.637
242.0,236.0,5.638
89.0,163.0,5.639
-152.0,80.0,5.64
-331.0,0.0,5.641
-340.0,-72.0,5.642
-221.0,-124.0,5.643
-102.0,-146.0,5.644
-46.0,-138.0,5.645
-23.0,-108.0,5.646
-15.0,-66.0,5.647
-44.0,-19.0,5.648
-99.0,18.0,5.649
-98.0,45.0,5.65
-16.0,88.0,5.651
73.0,153.0,5.652
103.0,212.0,5.653
106.0,224.0,5.654
122.0,182.0,5.655
121.0,103.0,5.656
82.0,21.0,5.657
52.0,-48.0,5.658
94.0,-83.0,5.659
146.0,-87.0,5.66
164.0,-84.0,5.661
186.0,-75.0,5.662
241.0,-51.0,5.663
236.0,-13.0,5.664
97.0,16.0,5.665
-90.0,25.0,5.666
-164.0,14.0,5.667
-108.0,-4.0,5.668
-43.0,-28.0,5.669
-39.0,-49.0,5.67
-48.0,-57.0,5.671
-39.0,-61.0,5.672
-45.0,-74.0,5.673
-76.0,-97.0,5.674
-81.0,-117.0,5.675
-50.0,-108.0,5.676
-35.0,-67.0,5.677
-71.0,-11.0,5.678
-111.0,26.0,5.679
-132.0,49.0,5.68
-97.0,30.0,5.681
-61.0,13.0,5.682
-21.0,4.0,5.683
9.0,-10.0,5.684
7.0,-39.0,5.685
12.0,-60.0,5.686
39.0,-54.0,5.687
60.0,-48.0,5.688
59.0,-46.0,5.689
60.0,-37.0,5.69
70.0,-8.0,5.691
87.0,22.0,5.692
127.0,56.0,5.693
150.0,89.0,5.694
122.0,114.0,5.695
67.0,126.0,5.696
-66.0,99.0,5.697
-179.0,67.0,5.698
-183.0,24.0,5.699
-157.0,-20.0,5.7
-173.0,-57.0,5.701
-178.0,-71.0,5.702
-103.0,-66.0,5.703
-1.0,-55.0,5.704
30.0,-43.0,5.705
22.0,-39.0,5.706
88.0,-54.0,5.707
202.0,-88.0,5.708
209.0,-117.0,5.709
55.0,-123.0,5.71
-121.0,-112.0,5.711
-166.0,-86.0,5.712
-92.0,-30.0,5.713
-6.0,59.0,5.714
45.0,154.0,5.715
80.0,218.0,5.716
101.0,251.0,5.717
86.0,251.0,5.718
55.0,216.0,5.719
30.0,160.0,5.72
24.0,45.0,5.721
15.0,-65.0,5.722
0.0,-163.0,5.723
-6.0,-262.0,5.724
15.0,-365.0,5.725
30.0,-410.0,5.726
21.0,-279.0,5.727
18.0,-110.0,5.728
35.0,171.0,5.729
38.0,408.0,5.73
-6.0,506.0,5.731
-37.0,541.0,5.732
-25.0,383.0,5.733
-16.0,229.0,5.734
-16.0,87.0,5.735
-13.0,-13.0,5.736
-2.0,16.0,5.737
22.0,49.0,5.738
84.0,72.0,5.739
134.0,47.0,5.74
210.0,-9.0,5.741
329.0,-61.0,5.742
378.0,-96.0,5.743
206.0,-120.0,5.744
-151.0,-141.0,5.745
-450.0,-163.0,5.746
-496.0,-183.0,5.747
-359.0,-194.0,5.748
-228.0,-188.0,5.749
-155.0,-167.0,5.75
-74.0,-136.0,5.751
10.0,-104.0,5.752
28.0,-80.0,5.753
-13.0,-66.0,5.754
-26.0,-58.0,5.755
6.0,-52.0,5.756
26.0,-39.0,5.757
21.0,-17.0,5.758
33.0,5.0,5.759
59.0,17.0,5.76
50.0,5.0,5.761
25.0,-8.0,5.762
48.0,-11.0,5.763
86.0,-4.0,5.764
47.0,5.0,5.765
-42.0,11.0,5.766
-56.0,12.0,5.767
31.0,-3.0,5.768
99.0,-28.0,5.769
82.0,-40.0,5.77
67.0,-30.0,5.771
119.0,-15.0,5.772
167.0,-15.0,5.773
121.0,-19.0,5.774
19.0,-5.0,5.775
-45.0,23.0,5.776
-51.0,43.0,5.777
-43.0,46.0,5.778
-44.0,47.0,5.779
-41.0,58.0,5.78
-20.0,66.0,5.781
7.0,70.0,5.782
28.0,80.0,5.783
27.0,104.0,5.784
12.0,129.0,5.785
0.0,130.0,5.786
7.0,101.0,5.787
15.0,51.0,5.788
7.0,-2.0,5.789
-4.0,-44.0,5.79
-3.0,-66.0,5.791
-2.0,-74.0,5.792
-16.0,-82.0,5.793
-29.0,-102.0,5.794
-18.0,-129.0,5.795
9.0,-135.0,5.796
22.0,-106.0,5.797
11.0,-60.0,5.798
-12.0,-32.0,5.799
-43.0,-43.0,5.8
-79.0,-75.0,5.801
-106.0,-83.0,5.802
-100.0,-58.0,5.803
-64.0,-19.0,5.804
-22.0,40.0,5.805
15.0,150.0,5.806
77.0,297.0,5.807
184.0,403.0,5.808
274.0,389.0,5.809
238.0,288.0,5.81
79.0,174.0,5.811
-44.0,79.0,5.812
-7.0,-4.0,5.813
82.0,-61.0,5.814
23.0,-68.0,5.815
-182.0,-59.0,5.816
-331.0,-95.0,5.817
-338.0,-181.0,5.818
-280.0,-243.0,5.819
-231.0,-229.0,5.82
-151.0,-162.0,5.821
-33.0,-79.0,5.822
44.0,-2.0,5.823
56.0,56.0,5.824
78.0,80.0,5.825
113.0,81.0,5.826
77.0,84.0,5.827
-7.0,94.0,5.828
-3.0,80.0,5.829
101.0,11.0,5.83
143.0,-85.0,5.831
60.0,-158.0,5.832
-4.0,-177.0,5.833
58.0,-155.0,5.834
144.0,-112.0,5.835
123.0,-51.0,5.836
39.0,23.0,5.837
-5.0,101.0,5.838
17.0,149.0,5.839
39.0,146.0,5.84
35.0,104.0,5.841
43.0,54.0,5.842
92.0,8.0,5.843
140.0,-34.0,5.844
124.0,-63.0,5.845
50.0,-68.0,5.846
-9.0,-57.0,5.847
-6.0,-47.0,5.848
20.0,-42.0,5.849
9.0,-31.0,5.85
-26.0,-17.0,5.851
-39.0,-6.0,5.852
-34.0,3.0,5.853
-57.0,14.0,5.854
-102.0,14.0,5.855
-111.0,-4.0,5.856
-69.0,-23.0,5.857
6.0,-23.0,5.858
95.0,-7.0,5.859
188.0,0.0,5.86
251.0,-3.0,5.861
226.0,2.0,5.862
80.0,6.0,5.863
-143.0,-24.0,5.864
-338.0,-87.0,5.865
-400.0,-142.0,5.866
-324.0,-146.0,5.867
-212.0,-92.0,5.868
-149.0,-3.0,5.869
-109.0,91.0,5.87
-43.0,158.0,5.871
17.0,169.0,5.872
8.0,131.0,5.873
-33.0,79.0,5.874
-14.0,50.0,5.875
75.0,55.0,5.876
142.0,74.0,5.877
112.0,80.0,5.878
9.0,62.0,5.879
-78.0,37.0,5.88
-75.0,10.0,5.881
22.0,-25.0,5.882
143.0,-96.0,5.883
215.0,-202.0,5.884
214.0,-315.0,5.885
163.0,-391.0,5.886
87.0,-381.0,5.887
21.0,-252.0,5.888
2.0,-30.0,5.889
31.0,200.0,5.89
51.0,348.0,5.891
12.0,379.0,5.892
-45.0,303.0,5.893
-55.0,140.0,5.894
-21.0,-47.0,5.895
-12.0,-152.0,5.896
-52.0,-120.0,5.897
-96.0,8.0,5.898
-73.0,136.0,5.899
16.0,207.0,5.9
93.0,230.0,5.901
86.0,221.0,5.902
31.0,176.0,5.903
18.0,112.0,5.904
71.0,59.0,5.905
113.0,29.0,5.906
84.0,9.0,5.907
30.0,6.0,5.908
15.0,25.0,5.909
11.0,32.0,5.91
-33.0,-4.0,5.911
-91.0,-74.0,5.912
-88.0,-134.0,5.913
-8.0,-166.0,5.914
110.0,-176.0,5.915
219.0,-162.0,5.916
258.0,-123.0,5.917
144.0,-79.0,5.918
-101.0,-57.0,5.919
-308.0,-55.0,5.92
-326.0,-49.0,5.921
-205.0,-33.0,5.922
-81.0,-25.0,5.923
-1.0,-31.0,5.924
47.0,-40.0,5.925
15.0,-38.0,5.926
-117.0,-28.0,5.927
-236.0,-12.0,5.928
-237.0,2.0,5.929
-172.0,8.0,5.93
-142.0,1.0,5.931
-108.0,-16.0,5.932
2.0,-54.0,5.933
143.0,-119.0,5.934
205.0,-189.0,5.935
192.0,-211.0,5.936
184.0,-166.0,5.937
194.0,-85.0,5.938
189.0,-18.0,5.939
164.0,25.0,5.94
133.0,78.0,5.941
87.0,159.0,5.942
19.0,239.0,5.943
-31.0,295.0,5.944
-42.0,328.0,5.945
-44.0,324.0,5.946
-67.0,247.0,5.947
-98.0,105.0,5.948
-104.0,-18.0,5.949
-81.0,-60.0,5.95
-34.0,-51.0,5.951
14.0,-61.0,5.952
34.0,-94.0,5.953
24.0,-103.0,5.954
19.0,-80.0,5.955
40.0,-62.0,5.956
51.0,-56.0,5.957
28.0,-39.0,5.958
0.0,1.0,5.959
14.0,32.0,5.96
67.0,35.0,5.961
107.0,31.0,5.962
96.0,27.0,5.963
32.0,9.0,5.964
-40.0,-28.0,5.965
-74.0,-80.0,5.966
-72.0,-138.0,5.967
-77.0,-179.0,5.968
-88.0,-169.0,5.969
-55.0,-114.0,5.97
27.0,-79.0,5.971
69.0,-100.0,5.972
24.0,-115.0,5.973
-31.0,-38.0,5.974
-12.0,113.0,5.975
37.0,237.0,5.976
50.0,268.0,5.977
36.0,228.0,5.978
33.0,137.0,5.979
35.0,29.0,5.98
10.0,-57.0,5.981
-5.0,-64.0,5.982
66.0,7.0,5.983
204.0,90.0,5.984
264.0,127.0,5.985
141.0,122.0,5.986
-93.0,99.0,5.987
-252.0,52.0,5.988
-237.0,-18.0,5.989
-143.0,-81.0,5.99
-129.0,-126.0,5.991
-204.0,-176.0,5.992
-231.0,-225.0,5.993
-150.0,-202.0,5.994
-64.0,-66.0,5.995
-70.0,113.0,5.996
-105.0,221.0,5.997
-59.0,239.0,5.998
50.0,204.0,5.999
143.0,144.0,6.0
189.0,37.0,6.001
194.0,-91.0,6.002
158.0,-186.0,6.003
91.0,-211.0,6.004
30.0,-185.0,6.005
5.0,-153.0,6.006
23.0,-144.0,6.007
73.0,-132.0,6.008
120.0,-69.0,6.009
120.0,43.0,6.01
72.0,133.0,6.011
32.0,154.0,6.012
40.0,138.0,6.013
72.0,120.0,6.014
82.0,85.0,6.015
61.0,21.0,6.016
19.0,-26.0,6.017
-51.0,-23.0,6.018
-115.0,7.0,6.019
-108.0,14.0,6.02
-4.0,4.0,6.021
104.0,14.0,6.022
100.0,29.0,6.023
-12.0,22.0,6.024
-98.0,8.0,6.025
-82.0,11.0,6.026
-54.0,5.0,6.027
-124.0,-62.0,6.028
-239.0,-173.0,6.029
-256.0,-251.0,6.03
-160.0,-241.0,6.031
-68.0,-158.0,6.032
-37.0,-50.0,6.033
-9.0,46.0,6.034
52.0,117.0,6.035
93.0,162.0,6.036
94.0,178.0,6.037
98.0,152.0,6.038
115.0,89.0,6.039
101.0,27.0,6.04
68.0,14.0,6.041
91.0,49.0,6.042
168.0,79.0,6.043
194.0,57.0,6.044
115.0,1.0,6.045
-4.0,-42.0,6.046
-87.0,-51.0,6.047
-134.0,-46.0,6.048
-156.0,-39.0,6.049
-128.0,-27.0,6.05
-54.0,-6.0,6.051
19.0,14.0,6.052
58.0,27.0,6.053
75.0,38.0,6.054
63.0,53.0,6.055
9.0,63.0,6.056
-47.0,52.0,6.057
-45.0,12.0,6.058
20.0,-44.0,6.059
55.0,-84.0,6.06
4.0,-90.0,6.061
-67.0,-64.0,6.062
-65.0,-47.0,6.063
-3.0,-62.0,6.064
44.0,-99.0,6.065
85.0,-139.0,6.066
187.0,-177.0,6.067
314.0,-194.0,6.068
311.0,-137.0,6.069
93.0,28.0,6.07
-190.0,242.0,6.071
-315.0,387.0,6.072
-236.0,404.0,6.073
-128.0,318.0,6.074
-139.0,172.0,6.075
-216.0,-13.0,6.076
-231.0,-180.0,6.077
-168.0,-264.0,6.078
-95.0,-215.0,6.079
-45.0,-95.0,6.08
12.0,-10.0,6.081
81.0,22.0,6.082
122.0,36.0,6.083
119.0,43.0,6.084
95.0,12.0,6.085
80.0,-44.0,6.086
90.0,-78.0,6.087
121.0,-65.0,6.088
140.0,-33.0,6.089
99.0,-4.0,6.09
9.0,30.0,6.091
-70.0,60.0,6.092
-91.0,61.0,6.093
-52.0,37.0,6.094
23.0,17.0,6.095
95.0,13.0,6.096
125.0,5.0,6.097
117.0,-18.0,6.098
138.0,-34.0,6.099
208.0,-25.0,6.1
234.0,-12.0,6.101
121.0,-8.0,6.102
-42.0,-27.0,6.103
-99.0,-67.0,6.104
-56.0,-117.0,6.105
-55.0,-129.0,6.106
-105.0,-73.0,6.107
-81.0,22.0,6.108
-12.0,90.0,6.109
-117.0,100.0,6.11
-418.0,82.0,6.111
-592.0,67.0,6.112
-403.0,53.0,6.113
-39.0,32.0,6.114
179.0,12.0,6.115
208.0,3.0,6.116
191.0,3.0,6.117
168.0,4.0,6.118
129.0,4.0,6.119
139.0,-6.0,6.12
240.0,-33.0,6.121
301.0,-64.0,6.122
191.0,-78.0,6.123
-6.0,-69.0,6.124
-125.0,-40.0,6.125
-161.0,6.0,6.126
-198.0,61.0,6.127
-224.0,105.0,6.128
-185.0,116.0,6.129
-111.0,89.0,6.13
-56.0,36.0,6.131
-8.0,-13.0,6.132
57.0,-19.0,6.133
106.0,23.0,6.134
119.0,64.0,6.135
135.0,57.0,6.136
147.0,16.0,6.137
98.0,-14.0,6.138
25.0,-9.0,6.139
31.0,1.0,6.14
89.0,-7.0,6.141
29.0,-14.0,6.142
-171.0,-12.0,6.143
-305.0,-14.0,6.144
-243.0,-41.0,6.145
-109.0,-80.0,6.146
-53.0,-106.0,6.147
-37.0,-111.0,6.148
28.0,-94.0,6.149
103.0,-68.0,6.15
133.0,-55.0,6.151
137.0,-58.0,6.152
126.0,-51.0,6.153
75.0,-13.0,6.154
21.0,49.0,6.155
46.0,107.0,6.156
122.0,143.0,6.157
149.0,141.0,6.158
97.0,88.0,6.159
31.0,-19.0,6.16
-16.0,-138.0,6.161
-80.0,-200.0,6.162
-143.0,-174.0,6.163
-144.0,-76.0,6.164
-83.0,56.0,6.165
-24.0,178.0,6.166
13.0,240.0,6.167
67.0,220.0,6.168
126.0,139.0,6.169
113.0,51.0,6.17
-11.0,-7.0,6.171
-166.0,-31.0,6.172
-218.0,-34.0,6.173
-120.0,-34.0,6.174
49.0,-49.0,6.175
191.0,-69.0,6.176
264.0,-71.0,6.177
262.0,-56.0,6.178
161.0,-47.0,6.179
-16.0,-39.0,6.18
-155.0,-3.0,6.181
-153.0,59.0,6.182
-34.0,90.0,6.183
78.0,60.0,6.184
99.0,11.0,6.185
67.0,-12.0,6.186
71.0,-19.0,6.187
124.0,-32.0,6.188
125.0,-35.0,6.189
-1.0,-17.0,6.19
-165.0,-2.0,6.191
-221.0,-11.0,6.192
-185.0,-25.0,6.193
-189.0,-29.0,6.194
-230.0,-35.0,6.195
-153.0,-44.0,6.196
56.0,-30.0,6.197
228.0,9.0,6.198
176.0,44.0,6.199
-28.0,50.0,6.2
-146.0,33.0,6.201
-85.0,12.0,6.202
26.0,-16.0,6.203
32.0,-47.0,6.204
-56.0,-52.0,6.205
-93.0,-30.0,6.206
-16.0,-17.0,6.207
80.0,-29.0,6.208
84.0,-45.0,6.209
7.0,-40.0,6.21
-58.0,-23.0,6.211
-53.0,-8.0,6.212
28.0,9.0,6.213
136.0,47.0,6.214
161.0,98.0,6.215
18.0,140.0,6.216
-206.0,158.0,6.217
-361.0,141.0,6.218
-333.0,91.0,6.219
-152.0,7.0,6.22
87.0,-97.0,6.221
285.0,-173.0,6.222
328.0,-172.0,6.223
191.0,-110.0,6.224
43.0,-49.0,6.225
77.0,-27.0,6.226
247.0,-17.0,6.227
330.0,16.0,6.228
233.0,51.0,6.229
80.0,54.0,6.23
-11.0,39.0,6.231
-58.0,34.0,6.232
-133.0,23.0,6.233
-247.0,-12.0,6.234
-331.0,-42.0,6.235
-287.0,-28.0,6.236
-98.0,9.0,6.237
147.0,20.0,6.238
266.0,1.0,6.239
188.0,-7.0,6.24
35.0,7.0,6.241
-51.0,16.0,6.242
-45.0,-3.0,6.243
-8.0,-22.0,6.244
16.0,-8.0,6.245
21.0,29.0,6.246
-1.0,50.0,6.247
-40.0,40.0,6.248
-77.0,11.0,6.249
-94.0,-18.0,6.25
-94.0,-41.0,6.251
-82.0,-53.0,6.252
-58.0,-44.0,6.253
-30.0,-21.0,6.254
-18.0,3.0,6.255
-17.0,21.0,6.256
-8.0,39.0,6.257
21.0,55.0,6.258
47.0,57.0,6.259
46.0,38.0,6.26
28.0,16.0,6.261
23.0,12.0,6.262
32.0,10.0,6.263
32.0,-14.0,6.264
15.0,-52.0,6.265
7.0,-55.0,6.266
35.0,-10.0,6.267
86.0,41.0,6.268
116.0,48.0,6.269
103.0,14.0,6.27
85.0,-24.0,6.271
109.0,-55.0,6.272
129.0,-79.0,6.273
37.0,-80.0,6.274
-170.0,-45.0,6.275
-323.0,1.0,6.276
-271.0,20.0,6.277
-30.0,19.0,6.278
257.0,35.0,6.279
472.0,54.0,6.28
516.0,84.0,6.281
270.0,105.0,6.282
-211.0,97.0,6.283
-594.0,80.0,6.284
-586.0,39.0,6.285
-296.0,-7.0,6.286
-75.0,-69.0,6.287
-65.0,-119.0,6.288
-130.0,-127.0,6.289
-139.0,-125.0,6.29
-87.0,-89.0,6.291
-6.0,-54.0,6.292
59.0,-28.0,6.293
37.0,-5.0,6.294
-45.0,8.0,6.295
-36.0,20.0,6.296
107.0,20.0,6.297
248.0,11.0,6.298
224.0,-23.0,6.299
92.0,-37.0,6.3
9.0,2.0,6.301
-3.0,77.0,6.302
-10.0,132.0,6.303
-4.0,140.0,6.304
62.0,123.0,6.305
137.0,101.0,6.306
148.0,57.0,6.307
106.0,-31.0,6.308
64.0,-136.0,6.309
20.0,-196.0,6.31
-26.0,-173.0,6.311
-26.0,-99.0,6.312
48.0,-36.0,6.313
142.0,-13.0,6.314
202.0,-11.0,6.315
240.0,4.0,6.316
265.0,41.0,6.317
213.0,70.0,6.318
46.0,76.0,6.319
-158.0,74.0,6.32
-286.0,48.0,6.321
-319.0,33.0,6.322
-300.0,49.0,6.323
-227.0,56.0,6.324
-102.0,38.0,6.325
-23.0,16.0,6.326
-72.0,-17.0,6.327
-149.0,-37.0,6.328
-109.0,-12.0,6.329
-15.0,4.0,6.33
-35.0,-7.0,6.331
-121.0,-17.0,6.332
-74.0,-23.0,6.333
86.0,-17.0,6.334
128.0,27.0,6.335
24.0,70.0,6.336
2.0,110.0,6.337
118.0,136.0,6.338
246.0,88.0,6.339
163.0,-14.0,6.34
-37.0,-151.0,6.341
-141.0,-272.0,6.342
-102.0,-301.0,6.343
-13.0,-206.0,6.344
68.0,-59.0,6.345
118.0,36.0,6.346
113.0,55.0,6.347
83.0,56.0,6.348
62.0,80.0,6.349
-18.0,95.0,6.35
-200.0,65.0,6.351
-340.0,11.0,6.352
-249.0,-15.0,6.353
-19.0,0.0,6.354
78.0,27.0,6.355
-22.0,37.0,6.356
-97.0,32.0,6.357
58.0,27.0,6.358
291.0,22.0,6.359
380.0,0.0,6.36
270.0,-48.0,6.361
96.0,-82.0,6.362
44.0,-68.0,6.363
160.0,-9.0,6.364
287.0,41.0,6.365
217.0,44.0,6.366
-49.0,20.0,6.367
-286.0,-4.0,6.368
-319.0,-25.0,6.369
-216.0,-62.0,6.37
-135.0,-92.0,6.371
-103.0,-78.0,6.372
-28.0,-16.0,6.373
137.0,49.0,6.374
309.0,83.0,6.375
343.0,103.0,6.376
180.0,133.0,6.377
-105.0,161.0,6.378
-288.0,146.0,6.379
-250.0,72.0,6.38
-124.0,-24.0,6.381
-81.0,-84.0,6.382
-80.0,-93.0,6.383
4.0,-70.0,6.384
92.0,-41.0,6.385
19.0,-6.0,6.386
-149.0,26.0,6.387
-214.0,36.0,6.388
-183.0,27.0,6.389
-216.0,24.0,6.39
-270.0,37.0,6.391
-139.0,42.0,6.392
168.0,16.0,6.393
391.0,-26.0,6.394
392.0,-60.0,6.395
292.0,-83.0,6.396
202.0,-97.0,6.397
76.0,-94.0,6.398
-73.0,-62.0,6.399
-114.0,-23.0,6.4
-12.0,-11.0,6.401
79.0,-20.0,6.402
60.0,-35.0,6.403
41.0,-43.0,6.404
124.0,-37.0,6.405
170.0,-12.0,6.406
0.0,12.0,6.407
-279.0,20.0,6.408
-370.0,22.0,6.409
-201.0,44.0,6.41
-21.0,75.0,6.411
-41.0,84.0,6.412
-153.0,65.0,6.413
-139.0,36.0,6.414
0.0,7.0,6.415
106.0,-18.0,6.416
131.0,-28.0,6.417
161.0,-21.0,6.418
210.0,-18.0,6.419
191.0,-18.0,6.42
94.0,-29.0,6.421
31.0,-31.0,6.422
47.0,-5.0,6.423
50.0,11.0,6.424
-19.0,-2.0,6.425
-63.0,-5.0,6.426
1.0,21.0,6.427
76.0,44.0,6.428
21.0,54.0,6.429
-127.0,56.0,6.43
-213.0,27.0,6.431
-169.0,1.0,6.432
-54.0,-15.0,6.433
72.0,-21.0,6.434
224.0,7.0,6.435
425.0,28.0,6.436
589.0,26.0,6.437
542.0,28.0,6.438
167.0,56.0,6.439
-365.0,81.0,6.44
-661.0,56.0,6.441
-534.0,-12.0,6.442
-222.0,-77.0,6.443
-74.0,-111.0,6.444
-133.0,-128.0,6.445
-210.0,-137.0,6.446
-221.0,-108.0,6.447
-213.0,-43.0,6.448
-176.0,1.0,6.449
-42.0,-15.0,6.45
122.0,-49.0,6.451
164.0,-44.0,6.452
82.0,-1.0,6.453
62.0,39.0,6.454
220.0,63.0,6.455
434.0,82.0,6.456
489.0,96.0,6.457
277.0,110.0,6.458
-100.0,134.0,6.459
-414.0,151.0,6.46
-451.0,121.0,6.461
-181.0,38.0,6.462
219.0,-68.0,6.463
506.0,-169.0,6.464
547.0,-244.0,6.465
341.0,-245.0,6.466
-25.0,-145.0,6.467
-361.0,-10.0,6.468
-435.0,65.0,6.469
-220.0,79.0,6.47
10.0,103.0,6.471
18.0,146.0,6.472
-94.0,141.0,6.473
-93.0,63.0,6.474
0.0,-35.0,6.475
11.0,-113.0,6.476
-31.0,-152.0,6.477
7.0,-136.0,6.478
82.0,-53.0,6.479
41.0,21.0,6.48
-18.0,7.0,6.481
125.0,-45.0,6.482
338.0,-38.0,6.483
225.0,27.0,6.484
-196.0,52.0,6.485
-420.0,14.0,6.486
-204.0,-5.0,6.487
85.0,34.0,6.488
58.0,66.0,6.489
-155.0,34.0,6.49
-234.0,-17.0,6.491
-144.0,-20.0,6.492
-27.0,17.0,6.493
99.0,53.0,6.494
242.0,66.0,6.495
283.0,76.0,6.496
164.0,86.0,6.497
-20.0,76.0,6.498
-110.0,42.0,6.499
-79.0,-3.0,6.5
0.0,-27.0,6.501
36.0,-7.0,6.502
-35.0,39.0,6.503
-164.0,71.0,6.504
-171.0,64.0,6.505
12.0,35.0,6.506
195.0,9.0,6.507
171.0,-6.0,6.508
-1.0,-26.0,6.509
-111.0,-70.0,6.51
-52.0,-132.0,6.511
152.0,-174.0,6.512
401.0,-155.0,6.513
494.0,-93.0,6.514
278.0,-52.0,6.515
-97.0,-61.0,6.516
-298.0,-78.0,6.517
-244.0,-57.0,6.518
-154.0,-10.0,6.519
-207.0,37.0,6.52
-314.0,85.0,6.521
-337.0,150.0,6.522
-283.0,198.0,6.523
-166.0,179.0,6.524
28.0,102.0,6.525
216.0,11.0,6.526
276.0,-74.0,6.527
250.0,-146.0,6.528
245.0,-181.0,6.529
215.0,-151.0,6.53
80.0,-68.0,6.531
-22.0,10.0,6.532
86.0,36.0,6.533
297.0,29.0,6.534
359.0,41.0,6.535
226.0,103.0,6.536
23.0,184.0,6.537
-246.0,235.0,6.538
-534.0,228.0,6.539
-621.0,167.0,6.54
-339.0,57.0,6.541
116.0,-86.0,6.542
363.0,-228.0,6.543
249.0,-316.0,6.544
-40.0,-311.0,6.545
-228.0,-231.0,6.546
-175.0,-132.0,6.547
48.0,-57.0,6.548
233.0,-7.0,6.549
255.0,49.0,6.55
179.0,122.0,6.551
114.0,185.0,6.552
43.0,201.0,6.553
-52.0,163.0,6.554
-71.0,97.0,6.555
35.0,34.0,6.556
127.0,-11.0,6.557
63.0,-45.0,6.558
-96.0,-65.0,6.559
-203.0,-66.0,6.56
-211.0,-52.0,6.561
-147.0,-18.0,6.562
-25.0,36.0,6.563
65.0,100.0,6.564
-29.0,142.0,6.565
-262.0,119.0,6.566
-355.0,35.0,6.567
-173.0,-76.0,6.568
80.0,-191.0,6.569
170.0,-305.0,6.57
125.0,-368.0,6.571
136.0,-297.0,6.572
313.0,-104.0,6.573
549.0,76.0,6.574
482.0,153.0,6.575
-228.0,195.0,6.576
-1239.0,292.0,6.577
-1767.0,411.0,6.578
-1195.0,426.0,6.579
12.0,303.0,6.58
894.0,119.0,6.581
1159.0,-63.0,6.582
1107.0,-254.0,6.583
832.0,-414.0,6.584
308.0,-459.0,6.585
-114.0,-364.0,6.586
-95.0,-213.0,6.587
70.0,-98.0,6.588
-51.0,-43.0,6.589
-251.0,-13.0,6.59
-124.0,25.0,6.591
142.0,88.0,6.592
159.0,174.0,6.593
61.0,265.0,6.594
145.0,325.0,6.595
227.0,328.0,6.596
69.0,267.0,6.597
-138.0,134.0,6.598
-112.0,-36.0,6.599
-39.0,-192.0,6.6
-153.0,-283.0,6.601
-200.0,-273.0,6.602
31.0,-179.0,6.603
177.0,-76.0,6.604
-81.0,-43.0,6.605
-391.0,-77.0,6.606
-308.0,-96.0,6.607
-36.0,-50.0,6.608
-10.0,21.0,6.609
-169.0,61.0,6.61
-188.0,65.0,6.611
-77.0,65.0,6.612
-43.0,74.0,6.613
-77.0,83.0,6.614
-60.0,98.0,6.615
-34.0,125.0,6.616
-72.0,150.0,6.617
-96.0,141.0,6.618
6.0,96.0,6.619
168.0,30.0,6.62
255.0,-33.0,6.621
213.0,-68.0,6.622
69.0,-58.0,6.623
-124.0,-16.0,6.624
-264.0,26.0,6.625
-261.0,45.0,6.626
-120.0,47.0,6.627
109.0,36.0,6.628
391.0,0.0,6.629
615.0,-61.0,6.63
569.0,-102.0,6.631
204.0,-87.0,6.632
-216.0,-28.0,6.633
-381.0,33.0,6.634
-263.0,70.0,6.635
-52.0,73.0,6.636
106.0,28.0,6.637
194.0,-70.0,6.638
186.0,-164.0,6.639
95.0,-177.0,6.64
31.0,-101.0,6.641
63.0,-17.0,6.642
126.0,-4.0,6.643
125.0,-37.0,6.644
47.0,-40.0,6.645
-81.0,14.0,6.646
-225.0,60.0,6.647
-302.0,43.0,6.648
-251.0,5.0,6.649
-167.0,10.0,6.65
-186.0,51.0,6.651
-239.0,72.0,6.652
-152.0,68.0,6.653
36.0,83.0,6.654
83.0,120.0,6.655
-75.0,118.0,6.656
-174.0,40.0,6.657
25.0,-88.0,6.658
391.0,-183.0,6.659
527.0,-196.0,6.66
301.0,-140.0,6.661
28.0,-57.0,6.662
8.0,-2.0,6.663
105.0,4.0,6.664
38.0,-4.0,6.665
-121.0,14.0,6.666
-122.0,43.0,6.667
-2.0,40.0,6.668
4.0,3.0,6.669
-55.0,-20.0,6.67
50.0,-6.0,6.671
266.0,15.0,6.672
282.0,27.0,6.673
4.0,45.0,6.674
-352.0,86.0,6.675
-560.0,119.0,6.676
-538.0,107.0,6.677
-262.0,31.0,6.678
147.0,-73.0,6.679
432.0,-156.0,6.68
442.0,-173.0,6.681
253.0,-119.0,6.682
-35.0,-41.0,6.683
-368.0,7.0,6.684
-550.0,7.0,6.685
-332.0,-21.0,6.686
192.0,-47.0,6.687
572.0,-34.0,6.688
517.0,25.0,6.689
184.0,76.0,6.69
-104.0,58.0,6.691
-200.0,-11.0,6.692
-145.0,-34.0,6.693
-38.0,37.0,6.694
45.0,127.0,6.695
102.0,140.0,6.696
159.0,85.0,6.697
170.0,22.0,6.698
70.0,-11.0,6.699
-79.0,-32.0,6.7
-125.0,-50.0,6.701
-77.0,-33.0,6.702
-93.0,9.0,6.703
-205.0,23.0,6.704
-244.0,-14.0,6.705
-102.0,-55.0,6.706
120.0,-57.0,6.707
253.0,-42.0,6.708
234.0,-36.0,6.709
137.0,-14.0,6.71
73.0,47.0,6.711
61.0,111.0,6.712
-7.0,125.0,6.713
-236.0,105.0,6.714
-536.0,86.0,6.715
-662.0,56.0,6.716
-497.0,3.0,6.717
-103.0,-43.0,6.718
299.0,-34.0,6.719
524.0,2.0,6.72
490.0,-5.0,6.721
248.0,-54.0,6.722
-3.0,-82.0,6.723
-93.0,-67.0,6.724
-67.0,-44.0,6.725
-98.0,-35.0,6.726
-172.0,-6.0,6.727
-83.0,50.0,6.728
223.0,86.0,6.729
507.0,67.0,6.73
525.0,21.0,6.731
290.0,3.0,6.732
-28.0,10.0,6.733
-255.0,6.0,6.734
-233.0,-32.0,6.735
63.0,-91.0,6.736
349.0,-132.0,6.737
266.0,-130.0,6.738
-181.0,-79.0,6.739
-497.0,-22.0,6.74
-311.0,-9.0,6.741
88.0,-27.0,6.742
168.0,-20.0,6.743
-94.0,28.0,6.744
-276.0,59.0,6.745
-179.0,23.0,6.746
-24.0,-38.0,6.747
16.0,-53.0,6.748
46.0,-4.0,6.749
126.0,60.0,6.75
78.0,103.0,6.751
-191.0,123.0,6.752
-470.0,132.0,6.753
-489.0,126.0,6.754
-244.0,92.0,6.755
57.0,22.0,6.756
226.0,-62.0,6.757
224.0,-132.0,6.758
140.0,-143.0,6.759
105.0,-89.0,6.76
139.0,-26.0,6.761
123.0,6.0,6.762
34.0,13.0,6.763
33.0,16.0,6.764
211.0,4.0,6.765
385.0,-32.0,6.766
343.0,-60.0,6.767
130.0,-40.0,6.768
-63.0,10.0,6.769
-163.0,33.0,6.77
-191.0,13.0,6.771
-138.0,-15.0,6.772
-39.0,-25.0,6.773
-35.0,-16.0,6.774
-191.0,11.0,6.775
-341.0,64.0,6.776
-289.0,105.0,6.777
-17.0,86.0,6.778
279.0,0.0,6.779
400.0,-103.0,6.78
316.0,-164.0,6.781
157.0,-149.0,6.782
86.0,-65.0,6.783
117.0,45.0,6.784
130.0,118.0,6.785
56.0,116.0,6.786
-33.0,68.0,6.787
-93.0,26.0,6.788
-179.0,-1.0,6.789
-273.0,-15.0,6.79
-227.0,-16.0,6.791
-28.0,-7.0,6.792
84.0,-17.0,6.793
-51.0,-40.0,6.794
-246.0,-23.0,6.795
-245.0,47.0,6.796
-103.0,109.0,6.797
-24.0,105.0,6.798
-41.0,46.0,6.799
-8.0,-17.0,6.8
129.0,-71.0,6.801
243.0,-106.0,6.802
225.0,-103.0,6.803
106.0,-46.0,6.804
-45.0,32.0,6.805
-177.0,88.0,6.806
-212.0,104.0,6.807
-63.0,97.0,6.808
240.0,77.0,6.809
502.0,44.0,6.81
501.0,10.0,6.811
251.0,-10.0,6.812
-12.0,-35.0,6.813
-138.0,-82.0,6.814
-258.0,-128.0,6.815
-480.0,-108.0,6.816
-611.0,-19.0,6.817
-411.0,64.0,6.818
37.0,51.0,6.819
405.0,-40.0,6.82
517.0,-101.0,6.821
419.0,-72.0,6.822
181.0,-11.0,6.823
-92.0,11.0,6.824
-233.0,-3.0,6.825
-206.0,-22.0,6.826
-169.0,-34.0,6.827
-165.0,-40.0,6.828
-32.0,-36.0,6.829
205.0,-25.0,6.83
248.0,-11.0,6.831
7.0,14.0,6.832
-201.0,58.0,6.833
-138.0,104.0,6.834
20.0,126.0,6.835
44.0,120.0,6.836
-6.0,101.0,6.837
0.0,61.0,6.838
44.0,-5.0,6.839
46.0,-72.0,6.84
26.0,-92.0,6.841
12.0,-50.0,6.842
-12.0,7.0,6.843
-15.0,36.0,6.844
46.0,31.0,6.845
99.0,16.0,6.846
31.0,4.0,6.847
-90.0,-6.0,6.848
-122.0,-18.0,6.849
-106.0,-33.0,6.85
-193.0,-44.0,6.851
-340.0,-39.0,6.852
-308.0,-18.0,6.853
-17.0,4.0,6.854
331.0,10.0,6.855
498.0,-1.0,6.856
438.0,-12.0,6.857
241.0,-10.0,6.858
58.0,5.0,6.859
-11.0,24.0,6.86
16.0,29.0,6.861
36.0,28.0,6.862
-8.0,28.0,6.863
-77.0,37.0,6.864
-117.0,46.0,6.865
-137.0,32.0,6.866
-134.0,-13.0,6.867
-74.0,-66.0,6.868
11.0,-95.0,6.869
35.0,-90.0,6.87
-11.0,-65.0,6.871
-14.0,-28.0,6.872
85.0,16.0,6.873
173.0,49.0,6.874
106.0,59.0,6.875
-89.0,50.0,6.876
-233.0,45.0,6.877
-214.0,42.0,6.878
-56.0,25.0,6.879
119.0,-9.0,6.88
209.0,-43.0,6.881
169.0,-55.0,6.882
17.0,-47.0,6.883
-154.0,-25.0,6.884
-212.0,4.0,6.885
-113.0,40.0,6.886
16.0,78.0,6.887
36.0,111.0,6.888
-17.0,118.0,6.889
-8.0,75.0,6.89
60.0,-17.0,6.891
54.0,-128.0,6.892
-55.0,-208.0,6.893
-130.0,-220.0,6.894
-60.0,-162.0,6.895
99.0,-71.0,6.896
202.0,-11.0,6.897
181.0,-1.0,6.898
71.0,-8.0,6.899
-24.0,6.0,6.9
-30.0,31.0,6.901
10.0,39.0,6.902
15.0,30.0,6.903
-22.0,29.0,6.904
-36.0,39.0,6.905
-19.0,44.0,6.906
-28.0,44.0,6.907
-74.0,57.0,6.908
-98.0,76.0,6.909
-80.0,79.0,6.91
-76.0,64.0,6.911
-127.0,46.0,6.912
-200.0,32.0,6.913
-217.0,12.0,6.914
-106.0,-5.0,6.915
137.0,-4.0,6.916
391.0,6.0,6.917
29.0,12.0,6.918
251.0,16.0,6.919
383.0,34.0,6.92
241.0,49.0,6.921
55.0,43.0,6.922
-262.0,20.0,6.923
-491.0,1.0,6.924
-446.0,-15.0,6.925
-321.0,-64.0,6.926
47.0,-138.0,6.927
302.0,-177.0,6.928
210.0,-142.0,6.929
130.0,-72.0,6.93
86.0,-33.0,6.931
61.0,-36.0,6.932
94.0,-32.0,6.933
110.0,1.0,6.934
71.0,32.0,6.935
33.0,33.0,6.936
-5.0,19.0,6.937
29.0,19.0,6.938
138.0,30.0,6.939
203.0,39.0,6.94
133.0,41.0,6.941
42.0,48.0,6.942
-114.0,70.0,6.943
-226.0,88.0,6.944
-204.0,92.0,6.945
-143.0,89.0,6.946
38.0,66.0,6.947
163.0,23.0,6.948
118.0,-74.0,6.949
79.0,-150.0,6.95
57.0,-158.0,6.951
45.0,-139.0,6.952
61.0,-38.0,6.953
69.0,36.0,6.954
50.0,29.0,6.955
31.0,18.0,6.956
12.0,-5.0,6.957
-27.0,-23.0,6.958
-79.0,-18.0,6.959
14.0,-2.0,6.96
181.0,11.0,6.961
258.0,8.0,6.962
184.0,-8.0,6.963
28.0,-4.0,6.964
-112.0,34.0,6.965
-215.0,80.0,6.966
-320.0,102.0,6.967
-402.0,109.0,6.968
-294.0,110.0,6.969
85.0,79.0,6.97
454.0,-13.0,6.971
361.0,-138.0,6.972
-188.0,-213.0,6.973
-583.0,-180.0,6.974
-339.0,-74.0,6.975
259.0,0.0,6.976
570.0,-8.0,6.977
407.0,-57.0,6.978
100.0,-55.0,6.979
-37.0,5.0,6.98
-43.0,48.0,6.981
-58.0,45.0,6.982
-75.0,33.0,6.983
-42.0,44.0,6.984
4.0,56.0,6.985
28.0,49.0,6.986
28.0,44.0,6.987
-13.0,49.0,6.988
-98.0,41.0,6.989
-155.0,18.0,6.99
-141.0,16.0,6.991
-101.0,51.0,6.992
-51.0,83.0,6.993
66.0,69.0,6.994
208.0,18.0,6.995
198.0,-41.0,6.996
17.0,-93.0,6.997
-146.0,-130.0,6.998
-118.0,-130.0,6.999
-2.0,-87.0,7.0
20.0,-34.0,7.001
-23.0,-2.0,7.002
-10.0,7.0,7.003
33.0,15.0,7.004
18.0,29.0,7.005
-19.0,34.0,7.006
-5.0,24.0,7.007
28.0,13.0,7.008
22.0,15.0,7.009
15.0,26.0,7.01
58.0,33.0,7.011
105.0,37.0,7.012
91.0,42.0,7.013
29.0,46.0,7.014
-37.0,34.0,7.015
-116.0,3.0,7.016
-206.0,-23.0,7.017
-270.0,-30.0,7.018
-230.0,-20.0,7.019
-81.0,-8.0,7.02
94.0,-4.0,7.021
189.0,0.0,7.022
152.0,2.0,7.023
49.0,-2.0,7.024
9.0,-10.0,7.025
67.0,-18.0,7.026
123.0,-17.0,7.027
87.0,-12.0,7.028
15.0,-5.0,7.029
6.0,-3.0,7.03
41.0,-5.0,7.031
47.0,0.0,7.032
39.0,15.0,7.033
93.0,24.0,7.034
189.0,11.0,7.035
219.0,-12.0,7.036
158.0,-26.0,7.037
80.0,-25.0,7.038
48.0,-15.0,7.039
8.0,-6.0,7.04
-54.0,3.0,7.041
-107.0,12.0,7.042
-128.0,19.0,7.043
-144.0,32.0,7.044
-144.0,60.0,7.045
-168.0,85.0,7.046
-263.0,101.0,7.047
-304.0,93.0,7.048
-180.0,11.0,7.049
-30.0,-75.0,7.05
194.0,-175.0,7.051
320.0,-234.0,7.052
150.0,-166.0,7.053
8.0,-112.0,7.054
-49.0,-98.0,7.055
-80.0,-80.0,7.056
-27.0,-50.0,7.057
5.0,-7.0,7.058
-23.0,59.0,7.059
-22.0,69.0,7.06
-12.0,54.0,7.061
-45.0,62.0,7.062
-93.0,75.0,7.063
-92.0,63.0,7.064
-42.0,36.0,7.065
11.0,29.0,7.066
60.0,37.0,7.067
99.0,30.0,7.068
91.0,3.0,7.069
31.0,-12.0,7.07
0.0,-1.0,7.071
53.0,21.0,7.072
143.0,30.0,7.073
189.0,18.0,7.074
174.0,5.0,7.075
122.0,1.0,7.076
51.0,-1.0,7.077
-36.0,-14.0,7.078
-73.0,-31.0,7.079
-66.0,-27.0,7.08
-57.0,-5.0,7.081
-57.0,17.0,7.082
-36.0,23.0,7.083
2.0,21.0,7.084
14.0,28.0,7.085
-6.0,34.0,7.086
-17.0,29.0,7.087
-8.0,19.0,7.088
-8.0,15.0,7.089
-22.0,13.0,7.09
-23.0,5.0,7.091
-7.0,-1.0,7.092
-3.0,-1.0,7.093
-10.0,0.0,7.094
-8.0,-3.0,7.095
0.0,-4.0,7.096
-16.0,0.0,7.097
-67.0,0.0,7.098
-118.0,-2.0,7.099
-118.0,-4.0,7.1
-42.0,-4.0,7.101
96.0,-4.0,7.102
219.0,-7.0,7.103
226.0,-6.0,7.104
109.0,6.0,7.105
-19.0,22.0,7.106
-59.0,20.0,7.107
-40.0,1.0,7.108
-51.0,-16.0,7.109
-97.0,-22.0,7.11
-121.0,-21.0,7.111
-109.0,-21.0,7.112
-75.0,-18.0,7.113
1.0,-10.0,7.114
118.0,-3.0,7.115
191.0,-5.0,7.116
165.0,-4.0,7.117
103.0,0.0,7.118
90.0,3.0,7.119
73.0,3.0,7.12
-32.0,8.0,7.121
-142.0,26.0,7.122
-116.0,37.0,7.123
-11.0,22.0,7.124
28.0,-18.0,7.125
31.0,-64.0,7.126
97.0,-98.0,7.127
134.0,-105.0,7.128
-19.0,-75.0,7.129
-227.0,-25.0,7.13
-178.0,9.0,7.131
124.0,17.0,7.132
331.0,26.0,7.133
222.0,46.0,7.134
-41.0,57.0,7.135
-216.0,45.0,7.136
-260.0,26.0,7.137
-230.0,10.0,7.138
-134.0,-6.0,7.139
10.0,-34.0,7.14
103.0,-61.0,7.141
61.0,-61.0,7.142
-56.0,-40.0,7.143
-111.0,-24.0,7.144
-46.0,-21.0,7.145
67.0,-20.0,7.146
133.0,-13.0,7.147
108.0,3.0,7.148
36.0,26.0,7.149
-7.0,41.0,7.15
-3.0,41.0,7.151
-2.0,37.0,7.152
-34.0,36.0,7.153
-50.0,35.0,7.154
-27.0,25.0,7.155
-27.0,17.0,7.156
-82.0,22.0,7.157
-114.0,28.0,7.158
-10.0,24.0,7.159
174.0,9.0,7.16
256.0,-6.0,7.161
175.0,-13.0,7.162
46.0,-11.0,7.163
-13.0,-6.0,7.164
-16.0,-2.0,7.165
-23.0,-5.0,7.166
-44.0,-10.0,7.167
-66.0,-7.0,7.168
-78.0,4.0,7.169
-59.0,7.0,7.17
-9.0,-4.0,7.171
19.0,-18.0,7.172
-14.0,-22.0,7.173
-58.0,-9.0,7.174
-54.0,12.0,7.175
-28.0,34.0,7.176
-35.0,44.0,7.177
-51.0,37.0,7.178
2.0,24.0,7.179
106.0,9.0,7.18
156.0,-7.0,7.181
108.0,-20.0,7.182
47.0,-30.0,7.183
25.0,-35.0,7.184
-26.0,-32.0,7.185
-145.0,-15.0,7.186
-199.0,11.0,7.187
-62.0,34.0,7.188
148.0,40.0,7.189
190.0,28.0,7.19
49.0,1.0,7.191
-47.0,-34.0,7.192
8.0,-65.0,7.193
61.0,-74.0,7.194
9.0,-54.0,7.195
-23.0,-20.0,7.196
60.0,5.0,7.197
162.0,11.0,7.198
147.0,3.0,7.199
58.0,-4.0,7.2
-4.0,-10.0,7.201
-72.0,-14.0,7.202
-188.0,-24.0,7.203
-251.0,-31.0,7.204
-161.0,-22.0,7.205
-11.0,-1.0,7.206
49.0,16.0,7.207
25.0,22.0,7.208
6.0,22.0,7.209
2.0,21.0,7.21
0.0,14.0,7.211
52.0,2.0,7.212
172.0,-4.0,7.213
230.0,6.0,7.214
116.0,25.0,7.215
-80.0,35.0,7.216
-179.0,31.0,7.217
-156.0,19.0,7.218
-98.0,11.0,7.219
-56.0,3.0,7.22
17.0,-3.0,7.221
118.0,-7.0,7.222
168.0,2.0,7.223
121.0,12.0,7.224
26.0,20.0,7.225
-55.0,23.0,7.226
-113.0,7.0,7.227
-158.0,-8.0,7.228
-169.0,-21.0,7.229
-116.0,-31.0,7.23
-11.0,-27.0,7.231
85.0,-22.0,7.232
117.0,-19.0,7.233
86.0,-15.0,7.234
44.0,-10.0,7.235
10.0,-2.0,7.236
-51.0,14.0,7.237
-167.0,29.0,7.238
-231.0,28.0,7.239
-135.0,15.0,7.24
72.0,-1.0,7.241
230.0,-3.0,7.242
264.0,0.0,7.243
227.0,3.0,7.244
161.0,5.0,7.245
65.0,13.0,7.246
-14.0,16.0,7.247
-18.0,9.0,7.248
17.0,-1.0,7.249
12.0,-3.0,7.25
-19.0,4.0,7.251
2.0,9.0,7.252
53.0,10.0,7.253
29.0,7.0,7.254
-88.0,0.0,7.255
-188.0,-8.0,7.256
-191.0,-18.0,7.257
-126.0,-28.0,7.258
-51.0,-32.0,7.259
27.0,-30.0,7.26
115.0,-26.0,7.261
166.0,-14.0,7.262
112.0,-1.0,7.263
-25.0,7.0,7.264
-132.0,4.0,7.265
-122.0,-4.0,7.266
-26.0,-5.0,7.267
58.0,3.0,7.268
86.0,10.0,7.269
77.0,4.0,7.27
50.0,-16.0,7.271
-3.0,-35.0,7.272
-75.0,-39.0,7.273
-118.0,-24.0,7.274
-79.0,-3.0,7.275
41.0,10.0,7.276
178.0,13.0,7.277
260.0,10.0,7.278
203.0,10.0,7.279
18.0,14.0,7.28
-142.0,14.0,7.281
-129.0,11.0,7.282
17.0,4.0,7.283
111.0,0.0,7.284
59.0,0.0,7.285
-43.0,4.0,7.286
-102.0,8.0,7.287
-155.0,6.0,7.288
-237.0,-1.0,7.289
-255.0,-3.0,7.29
-140.0,4.0,7.291
16.0,13.0,7.292
74.0,15.0,7.293
53.0,8.0,7.294
44.0,2.0,7.295
49.0,5.0,7.296
7.0,9.0,7.297
-86.0,4.0,7.298
-163.0,-6.0,7.299
-183.0,-16.0,7.3
-148.0,-22.0,7.301
-53.0,-20.0,7.302
89.0,-16.0,7.303
202.0,-17.0,7.304
212.0,-24.0,7.305
134.0,-24.0,7.306
42.0,-14.0,7.307
5.0,-3.0,7.308
56.0,0.0,7.309
180.0,-4.0,7.31
272.0,-6.0,7.311
229.0,0.0,7.312
89.0,9.0,7.313
17.0,21.0,7.314
65.0,27.0,7.315
92.0,21.0,7.316
-4.0,9.0,7.317
-145.0,0.0,7.318
-165.0,-1.0,7.319
-76.0,-3.0,7.32
-19.0,-11.0,7.321
-24.0,-10.0,7.322
7.0,1.0,7.323
86.0,14.0,7.324
106.0,20.0,7.325
28.0,22.0,7.326
-66.0,21.0,7.327
-119.0,13.0,7.328
-158.0,3.0,7.329
-182.0,-4.0,7.33
-148.0,-2.0,7.331
-70.0,4.0,7.332
-38.0,7.0,7.333
-76.0,7.0,7.334
-96.0,3.0,7.335
-31.0,3.0,7.336
62.0,11.0,7.337
103.0,19.0,7.338
81.0,17.0,7.339
43.0,2.0,7.34
28.0,-13.0,7.341
33.0,-15.0,7.342
47.0,-12.0,7.343
66.0,-15.0,7.344
84.0,-20.0,7.345
97.0,-19.0,7.346
99.0,-11.0,7.347
94.0,-7.0,7.348
83.0,-13.0,7.349
75.0,-20.0,7.35
73.0,-17.0,7.351
63.0,0.0,7.352
25.0,17.0,7.353
-40.0,19.0,7.354
-113.0,-4.0,7.355
-173.0,-35.0,7.356
-184.0,-44.0,7.357
-78.0,-22.0,7.358
163.0,16.0,7.359
393.0,46.0,7.36
377.0,49.0,7.361
67.0,37.0,7.362
-286.0,21.0,7.363
