Deltoid,Bicep,Time
7,-2,0.0
6,1,0.001
3,2,0.002
5,0,0.003
8,0,0.004
7,0,0.005
2,3,0.006
1,3,0.007
5,2,0.008
4,1,0.009
0,0,0.01
-4,0,0.011
-2,1,0.012
4,2,0.013
4,0,0.014
2,-3,0.015
-3,-6,0.016
-8,-10,0.017
-8,-10,0.018
-1,-6,0.019
8,-1,0.02
9,4,0.021
0,6,0.022
-4,5,0.023
0,1,0.024
5,-2,0.025
3,-1,0.026
0,1,0.027
0,3,0.028
3,0,0.029
3,-2,0.03
1,-4,0.031
3,-4,0.032
6,-1,0.033
7,-3,0.034
6,-2,0.035
2,-3,0.036
-1,-7,0.037
0,-4,0.038
6,-2,0.039
11,1,0.04
6,2,0.041
0,2,0.042
0,2,0.043
6,0,0.044
5,-1,0.045
0,0,0.046
-1,0,0.047
2,-1,0.048
2,-3,0.049
-2,-1,0.05
-2,2,0.051
3,3,0.052
7,3,0.053
1,-1,0.054
-5,-3,0.055
-6,-2,0.056
-4,-3,0.057
-2,-2,0.058
3,-4,0.059
14,-3,0.06
17,1,0.061
11,4,0.062
4,2,0.063
4,0,0.064
7,-3,0.065
3,-3,0.066
-1,-1,0.067
0,1,0.068
1,4,0.069
0,2,0.07
0,-1,0.071
4,-1,0.072
6,2,0.073
1,3,0.074
-2,-1,0.075
-3,-5,0.076
-3,-9,0.077
-4,-8,0.078
-1,-4,0.079
6,1,0.08
8,3,0.081
1,2,0.082
-3,-1,0.083
0,-2,0.084
4,-2,0.085
3,-1,0.086
-1,0,0.087
1,0,0.088
6,0,0.089
5,0,0.09
1,2,0.091
0,2,0.092
4,1,0.093
5,-2,0.094
4,-3,0.095
-1,-1,0.096
-5,-3,0.097
-4,-5,0.098
2,-5,0.099
10,-3,0.1
9,-2,0.101
4,0,0.102
3,1,0.103
8,-1,0.104
10,-2,0.105
3,-1,0.106
-2,3,0.107
-2,4,0.108
0,1,0.109
2,0,0.11
1,1,0.111
0,3,0.112
1,4,0.113
0,1,0.114
-1,0,0.115
-3,-1,0.116
-7,-3,0.117
-8,-2,0.118
-1,-2,0.119
7,-2,0.12
10,1,0.121
5,7,0.122
1,6,0.123
3,0,0.124
5,-5,0.125
4,-3,0.126
3,0,0.127
2,0,0.128
4,-2,0.129
5,-2,0.13
4,-1,0.131
4,-1,0.132
3,0,0.133
0,-1,0.134
-1,-1,0.135
-2,-3,0.136
-3,-5,0.137
-3,-4,0.138
0,-1,0.139
10,3,0.14
13,5,0.141
5,5,0.142
0,3,0.143
5,0,0.144
10,-1,0.145
8,-2,0.146
1,-3,0.147
-1,-3,0.148
0,-2,0.149
1,-1,0.15
1,-2,0.151
3,-2,0.152
6,1,0.153
2,4,0.154
-2,1,0.155
-4,-2,0.156
-4,-5,0.157
-3,-3,0.158
1,0,0.159
8,-1,0.16
10,-1,0.161
4,4,0.162
0,6,0.163
1,3,0.164
5,-1,0.165
4,-1,0.166
3,2,0.167
4,2,0.168
5,0,0.169
4,-2,0.17
2,-1,0.171
3,0,0.172
5,0,0.173
3,-4,0.174
-1,-5,0.175
-4,-3,0.176
-6,-4,0.177
-5,-5,0.178
0,-4,0.179
6,-2,0.18
8,1,0.181
5,3,0.182
3,2,0.183
3,-1,0.184
3,-3,0.185
-2,-3,0.186
-3,-1,0.187
0,1,0.188
3,0,0.189
1,0,0.19
-1,1,0.191
1,1,0.192
4,2,0.193
2,0,0.194
-1,-3,0.195
-3,-2,0.196
-3,-5,0.197
-1,-5,0.198
6,-7,0.199
12,-5,0.2
12,-1,0.201
6,2,0.202
2,1,0.203
4,-1,0.204
7,0,0.205
4,4,0.206
2,3,0.207
3,0,0.208
2,0,0.209
-1,0,0.21
-2,0,0.211
0,-2,0.212
2,-1,0.213
-1,-1,0.214
-4,-3,0.215
-4,-5,0.216
-4,-8,0.217
-3,-4,0.218
4,1,0.219
13,3,0.22
13,2,0.221
4,1,0.222
-2,0,0.223
0,1,0.224
2,1,0.225
1,2,0.226
1,1,0.227
4,0,0.228
4,0,0.229
-1,0,0.23
-3,2,0.231
-1,-1,0.232
2,-2,0.233
2,-3,0.234
2,-1,0.235
1,0,0.236
-2,-6,0.237
-3,-9,0.238
4,-6,0.239
13,-2,0.24
13,3,0.241
5,5,0.242
1,3,0.243
3,0,0.244
6,-1,0.245
6,0,0.246
4,3,0.247
4,2,0.248
1,0,0.249
0,0,0.25
2,0,0.251
7,1,0.252
9,2,0.253
7,0,0.254
5,-2,0.255
1,-5,0.256
-5,-7,0.257
-6,-5,0.258
1,-4,0.259
11,-2,0.26
12,-1,0.261
3,3,0.262
-2,3,0.263
0,-1,0.264
2,-3,0.265
2,0,0.266
2,2,0.267
4,1,0.268
2,-2,0.269
-3,-1,0.27
-5,1,0.271
0,2,0.272
5,2,0.273
4,4,0.274
0,5,0.275
-4,2,0.276
-5,-4,0.277
-4,-5,0.278
3,-4,0.279
11,-1,0.28
11,2,0.281
6,5,0.282
4,4,0.283
10,1,0.284
14,1,0.285
9,2,0.286
4,0,0.287
1,-3,0.288
0,-4,0.289
-1,-3,0.29
-3,-2,0.291
-3,-3,0.292
-3,-2,0.293
-6,-2,0.294
-5,-3,0.295
-4,-6,0.296
-3,-8,0.297
-4,-6,0.298
2,-3,0.299
12,-1,0.3
14,4,0.301
7,5,0.302
3,1,0.303
6,-3,0.304
9,-2,0.305
6,3,0.306
2,5,0.307
2,4,0.308
2,4,0.309
2,4,0.31
1,1,0.311
4,-3,0.312
7,-1,0.313
6,0,0.314
3,0,0.315
-2,-3,0.316
-5,-6,0.317
-4,-8,0.318
3,-7,0.319
11,-5,0.32
11,1,0.321
5,5,0.322
3,1,0.323
6,-1,0.324
6,2,0.325
-1,3,0.326
-5,0,0.327
-1,-5,0.328
0,-2,0.329
-2,2,0.33
-4,2,0.331
-4,-1,0.332
-1,0,0.333
0,0,0.334
1,0,0.335
1,-3,0.336
-2,-8,0.337
-3,-7,0.338
2,-2,0.339
12,3,0.34
13,6,0.341
6,5,0.342
3,3,0.343
8,1,0.344
10,1,0.345
5,3,0.346
1,4,0.347
4,1,0.348
5,-1,0.349
1,0,0.35
-3,2,0.351
-2,1,0.352
2,0,0.353
3,0,0.354
0,0,0.355
-3,-1,0.356
-5,-6,0.357
-4,-9,0.358
1,-7,0.359
6,-1,0.36
5,4,0.361
0,4,0.362
-1,0,0.363
2,-3,0.364
5,-3,0.365
3,0,0.366
1,1,0.367
3,1,0.368
5,1,0.369
4,1,0.37
1,-1,0.371
2,-3,0.372
4,1,0.373
3,3,0.374
0,0,0.375
-3,-4,0.376
-4,-8,0.377
-5,-6,0.378
-1,-3,0.379
5,-2,0.38
7,1,0.381
5,5,0.382
4,4,0.383
6,1,0.384
5,0,0.385
3,2,0.386
3,2,0.387
4,-1,0.388
3,-2,0.389
0,-1,0.39
-2,0,0.391
2,0,0.392
6,1,0.393
3,0,0.394
-1,-4,0.395
-5,-4,0.396
-7,-5,0.397
-6,-4,0.398
-2,-4,0.399
6,-4,0.4
13,1,0.401
12,7,0.402
7,5,0.403
5,0,0.404
5,0,0.405
5,2,0.406
5,1,0.407
4,-2,0.408
3,-4,0.409
0,-1,0.41
-3,0,0.411
-2,-1,0.412
1,0,0.413
3,0,0.414
0,0,0.415
-4,-1,0.416
-9,-3,0.417
-8,-2,0.418
2,-3,0.419
15,-3,0.42
19,2,0.421
11,7,0.422
3,6,0.423
1,-1,0.424
2,-2,0.425
0,1,0.426
-3,3,0.427
-3,0,0.428
0,-3,0.429
1,-1,0.43
0,0,0.431
0,-2,0.432
2,-2,0.433
1,-5,0.434
0,-5,0.435
-3,-5,0.436
-5,-8,0.437
-4,-7,0.438
4,-5,0.439
13,-1,0.44
13,4,0.441
6,6,0.442
1,4,0.443
5,1,0.444
10,-1,0.445
9,0,0.446
5,1,0.447
5,3,0.448
5,5,0.449
2,4,0.45
0,0,0.451
3,-1,0.452
7,-1,0.453
4,-1,0.454
-3,-5,0.455
-8,-9,0.456
-10,-10,0.457
-8,-8,0.458
-2,-2,0.459
7,0,0.46
12,3,0.461
8,4,0.462
4,4,0.463
7,1,0.464
9,0,0.465
3,1,0.466
-1,1,0.467
1,2,0.468
7,2,0.469
3,4,0.47
-1,5,0.471
-2,3,0.472
1,0,0.473
-1,-5,0.474
-4,-4,0.475
-5,-4,0.476
-4,-6,0.477
-5,-7,0.478
-4,-6,0.479
2,-1,0.48
8,4,0.481
3,4,0.482
1,1,0.483
4,-1,0.484
8,0,0.485
3,4,0.486
-2,4,0.487
-1,0,0.488
2,-3,0.489
1,-2,0.49
-2,0,0.491
-3,1,0.492
0,1,0.493
0,-1,0.494
-1,-1,0.495
-3,-2,0.496
-3,-5,0.497
0,-4,0.498
6,-2,0.499
14,1,0.5
14,2,0.501
6,3,0.502
2,0,0.503
6,-2,0.504
10,-4,0.505
6,-3,0.506
3,-1,0.507
3,0,0.508
2,2,0.509
0,1,0.51
1,-2,0.511
7,-4,0.512
10,-1,0.513
6,-1,0.514
2,-3,0.515
-2,-5,0.516
-4,-8,0.517
-2,-7,0.518
3,-4,0.519
9,-2,0.52
8,0,0.521
3,1,0.522
1,1,0.523
4,-1,0.524
6,1,0.525
2,4,0.526
1,3,0.527
1,0,0.528
1,-1,0.529
-1,1,0.53
-1,2,0.531
1,-1,0.532
0,-1,0.533
-2,-1,0.534
-3,-1,0.535
-4,-3,0.536
-4,-7,0.537
-4,-9,0.538
1,-6,0.539
9,-2,0.54
9,1,0.541
3,4,0.542
2,4,0.543
5,2,0.544
6,0,0.545
4,-2,0.546
2,0,0.547
3,2,0.548
6,3,0.549
5,3,0.55
2,0,0.551
0,-3,0.552
0,-1,0.553
0,1,0.554
0,1,0.555
-1,-1,0.556
-5,-9,0.557
-6,-12,0.558
2,-7,0.559
8,2,0.56
5,7,0.561
2,6,0.562
3,4,0.563
5,2,0.564
6,1,0.565
6,1,0.566
4,2,0.567
2,3,0.568
3,1,0.569
5,0,0.57
5,-2,0.571
5,-3,0.572
3,-2,0.573
2,-2,0.574
0,-4,0.575
3,-7,0.576
3,-7,0.577
-1,-5,0.578
-3,-3,0.579
1,-1,0.58
6,0,0.581
6,2,0.582
1,1,0.583
2,-1,0.584
5,0,0.585
3,3,0.586
-1,3,0.587
-1,-2,0.588
2,-4,0.589
2,-1,0.59
1,2,0.591
4,1,0.592
10,0,0.593
10,-5,0.594
4,-6,0.595
-3,-6,0.596
-8,-10,0.597
-6,-9,0.598
3,-5,0.599
11,1,0.6
12,5,0.601
4,7,0.602
0,6,0.603
3,5,0.604
5,4,0.605
1,5,0.606
1,5,0.607
6,2,0.608
9,2,0.609
5,2,0.61
1,4,0.611
3,3,0.612
8,4,0.613
7,3,0.614
4,1,0.615
0,-2,0.616
-3,-7,0.617
-5,-6,0.618
-2,-3,0.619
5,-2,0.62
8,2,0.621
3,7,0.622
-1,5,0.623
-1,0,0.624
2,-1,0.625
-2,3,0.626
-5,4,0.627
-2,-1,0.628
2,-4,0.629
1,0,0.63
-1,3,0.631
-1,1,0.632
1,-1,0.633
0,-3,0.634
-3,-3,0.635
-8,-5,0.636
-7,-9,0.637
-1,-10,0.638
6,-8,0.639
11,-5,0.64
7,0,0.641
0,3,0.642
-1,1,0.643
4,-3,0.644
7,-4,0.645
4,-2,0.646
0,-1,0.647
1,-2,0.648
4,0,0.649
3,4,0.65
0,0,0.651
2,-5,0.652
4,-5,0.653
4,-1,0.654
3,2,0.655
2,0,0.656
0,-8,0.657
-1,-9,0.658
-1,-6,0.659
4,0,0.66
7,2,0.661
4,2,0.662
2,1,0.663
3,-1,0.664
6,-1,0.665
4,-2,0.666
3,-2,0.667
5,-1,0.668
9,0,0.669
10,2,0.67
7,2,0.671
2,1,0.672
2,3,0.673
3,1,0.674
4,-1,0.675
2,-4,0.676
0,-8,0.677
0,-6,0.678
3,-4,0.679
9,-1,0.68
8,3,0.681
4,5,0.682
3,3,0.683
4,0,0.684
5,-2,0.685
0,1,0.686
-2,2,0.687
0,2,0.688
2,1,0.689
4,2,0.69
3,3,0.691
2,1,0.692
4,0,0.693
2,-1,0.694
0,-3,0.695
-4,-5,0.696
-9,-9,0.697
-7,-10,0.698
4,-7,0.699
11,-2,0.7
5,3,0.701
-3,4,0.702
-3,2,0.703
2,2,0.704
1,3,0.705
-2,4,0.706
0,2,0.707
7,1,0.708
5,1,0.709
-1,0,0.71
-2,-2,0.711
3,-3,0.712
5,-3,0.713
0,-2,0.714
-2,-2,0.715
-2,-2,0.716
-3,-5,0.717
-4,-5,0.718
0,-4,0.719
5,0,0.72
5,2,0.721
-1,6,0.722
-2,6,0.723
4,3,0.724
6,0,0.725
3,1,0.726
0,4,0.727
1,3,0.728
2,0,0.729
0,1,0.73
2,5,0.731
3,4,0.732
3,1,0.733
0,-2,0.734
-1,-3,0.735
-1,-4,0.736
-2,-8,0.737
-3,-9,0.738
1,-5,0.739
7,-1,0.74
8,0,0.741
2,1,0.742
0,0,0.743
2,-1,0.744
4,-1,0.745
0,1,0.746
-3,1,0.747
-1,0,0.748
2,-2,0.749
5,0,0.75
3,1,0.751
1,0,0.752
0,-4,0.753
0,-7,0.754
2,-6,0.755
1,-5,0.756
-2,-8,0.757
-3,-8,0.758
3,-5,0.759
12,0,0.76
13,4,0.761
8,7,0.762
4,5,0.763
6,1,0.764
8,0,0.765
5,4,0.766
4,3,0.767
7,0,0.768
7,-2,0.769
4,-2,0.77
2,0,0.771
6,-2,0.772
11,0,0.773
7,2,0.774
0,0,0.775
-3,-1,0.776
-2,-4,0.777
0,-4,0.778
2,-1,0.779
5,0,0.78
7,2,0.781
2,3,0.782
-4,1,0.783
-7,0,0.784
-2,0,0.785
4,3,0.786
6,3,0.787
3,-1,0.788
-1,-4,0.789
-1,-3,0.79
0,-2,0.791
2,-3,0.792
4,-1,0.793
2,0,0.794
-1,0,0.795
-5,-3,0.796
-8,-7,0.797
-5,-6,0.798
3,-2,0.799
11,0,0.8
10,2,0.801
4,4,0.802
1,5,0.803
6,1,0.804
8,-1,0.805
5,-2,0.806
4,-1,0.807
4,0,0.808
3,0,0.809
-2,1,0.81
-5,0,0.811
-4,-1,0.812
-1,0,0.813
0,1,0.814
0,0,0.815
-1,-5,0.816
-6,-10,0.817
-10,-9,0.818
-5,-5,0.819
7,-1,0.82
14,2,0.821
11,3,0.822
7,3,0.823
10,2,0.824
13,2,0.825
6,3,0.826
-1,3,0.827
-2,3,0.828
0,3,0.829
1,3,0.83
1,-1,0.831
3,-5,0.832
6,-3,0.833
3,-2,0.834
0,-3,0.835
-2,-5,0.836
-2,-10,0.837
-2,-8,0.838
2,-2,0.839
11,0,0.84
11,1,0.841
4,4,0.842
-1,5,0.843
0,4,0.844
1,2,0.845
-1,2,0.846
-1,1,0.847
3,-3,0.848
5,-4,0.849
1,-1,0.85
-4,4,0.851
-4,3,0.852
0,0,0.853
1,-3,0.854
0,-4,0.855
-3,-3,0.856
-4,-4,0.857
-3,-3,0.858
2,-2,0.859
11,-1,0.86
13,1,0.861
7,5,0.862
3,4,0.863
7,0,0.864
9,-1,0.865
3,2,0.866
-3,6,0.867
-2,3,0.868
3,0,0.869
5,-1,0.87
8,-1,0.871
9,-1,0.872
8,-1,0.873
3,-1,0.874
0,-1,0.875
-2,-4,0.876
-4,-7,0.877
-4,-5,0.878
0,-3,0.879
8,0,0.88
10,4,0.881
4,6,0.882
1,2,0.883
3,-3,0.884
6,-4,0.885
5,0,0.886
1,2,0.887
2,0,0.888
2,-1,0.889
1,1,0.89
-1,1,0.891
0,0,0.892
2,0,0.893
1,-1,0.894
-1,-2,0.895
-6,-5,0.896
-9,-8,0.897
-6,-6,0.898
4,-4,0.899
12,-2,0.9
10,2,0.901
5,4,0.902
5,1,0.903
10,-1,0.904
9,0,0.905
0,3,0.906
-4,1,0.907
0,-2,0.908
4,-2,0.909
3,-1,0.91
0,-3,0.911
0,-7,0.912
3,-5,0.913
1,-1,0.914
0,0,0.915
0,-4,0.916
0,-9,0.917
-1,-7,0.918
6,-1,0.919
14,-1,0.92
14,-1,0.921
4,-1,0.922
-1,3,0.923
1,4,0.924
6,2,0.925
4,1,0.926
0,0,0.927
-1,0,0.928
-2,0,0.929
-2,0,0.93
-1,0,0.931
2,-2,0.932
6,-3,0.933
3,-3,0.934
0,-2,0.935
-5,-2,0.936
-7,-4,0.937
-6,-5,0.938
2,-2,0.939
12,1,0.94
12,3,0.941
3,4,0.942
-1,3,0.943
3,0,0.944
7,0,0.945
3,2,0.946
-2,5,0.947
-1,4,0.948
2,1,0.949
1,0,0.95
0,3,0.951
0,5,0.952
3,5,0.953
5,1,0.954
3,-3,0.955
-2,-6,0.956
-7,-7,0.957
-6,-7,0.958
0,-4,0.959
9,-1,0.96
11,0,0.961
7,0,0.962
4,-4,0.963
7,-6,0.964
8,-2,0.965
4,0,0.966
3,-3,0.967
4,-6,0.968
6,-5,0.969
3,0,0.97
0,3,0.971
0,1,0.972
2,2,0.973
0,2,0.974
-1,-1,0.975
-2,-4,0.976
-3,-8,0.977
-1,-6,0.978
5,-2,0.979
11,1,0.98
8,4,0.981
1,6,0.982
0,5,0.983
4,2,0.984
6,-1,0.985
2,-1,0.986
0,0,0.987
1,1,0.988
0,0,0.989
-3,-2,0.99
-1,-2,0.991
3,-4,0.992
9,-3,0.993
7,-3,0.994
5,-2,0.995
3,0,0.996
1,-3,0.997
0,-5,0.998
2,-2,0.999
9,2,1.0
8,5,1.001
2,5,1.002
-1,1,1.003
1,-1,1.004
3,-1,1.005
2,0,1.006
1,1,1.007
2,-1,1.008
1,-1,1.009
1,0,1.01
2,0,1.011
4,0,1.012
3,-1,1.013
0,-3,1.014
0,-1,1.015
1,-1,1.016
0,-5,1.017
-1,-7,1.018
2,-5,1.019
8,-3,1.02
8,2,1.021
3,5,1.022
3,3,1.023
5,0,1.024
4,-1,1.025
2,-2,1.026
4,0,1.027
4,1,1.028
-1,2,1.029
-4,3,1.03
-1,1,1.031
5,0,1.032
5,0,1.033
0,0,1.034
-1,0,1.035
-3,-4,1.036
-6,-6,1.037
-9,-4,1.038
-2,-1,1.039
10,0,1.04
13,1,1.041
6,4,1.042
0,5,1.043
1,2,1.044
4,0,1.045
3,0,1.046
1,2,1.047
1,1,1.048
4,-1,1.049
6,-1,1.05
5,-2,1.051
2,-2,1.052
3,-2,1.053
4,-2,1.054
4,-3,1.055
-2,-3,1.056
-8,-5,1.057
-7,-5,1.058
1,-6,1.059
8,-4,1.06
5,2,1.061
1,6,1.062
0,3,1.063
1,-2,1.064
2,-4,1.065
1,-2,1.066
2,-1,1.067
4,-1,1.068
4,-1,1.069
0,0,1.07
1,0,1.071
5,0,1.072
6,2,1.073
0,2,1.074
-7,1,1.075
-12,-1,1.076
-10,-5,1.077
-5,-7,1.078
0,-6,1.079
7,-2,1.08
12,2,1.081
11,4,1.082
7,3,1.083
4,1,1.084
3,0,1.085
3,1,1.086
5,2,1.087
7,2,1.088
5,2,1.089
5,3,1.09
5,3,1.091
4,1,1.092
3,0,1.093
2,-1,1.094
2,-1,1.095
-1,-4,1.096
-6,-6,1.097
-8,-4,1.098
-2,-3,1.099
8,-2,1.1
9,-2,1.101
3,-1,1.102
0,-1,1.103
5,-2,1.104
8,-2,1.105
2,0,1.106
-2,3,1.107
-1,1,1.108
2,-1,1.109
3,-1,1.11
2,0,1.111
2,1,1.112
2,2,1.113
-2,0,1.114
-4,-1,1.115
-4,-3,1.116
-2,-5,1.117
0,-6,1.118
7,-5,1.119
15,-2,1.12
14,3,1.121
7,8,1.122
4,4,1.123
11,-1,1.124
15,-2,1.125
10,-1,1.126
5,-1,1.127
4,-3,1.128
5,-2,1.129
4,2,1.13
3,2,1.131
4,-3,1.132
4,-5,1.133
2,-4,1.134
0,-3,1.135
-3,-5,1.136
-5,-9,1.137
-4,-7,1.138
0,-5,1.139
7,-4,1.14
8,-1,1.141
6,4,1.142
3,6,1.143
5,1,1.144
7,0,1.145
2,2,1.146
-1,3,1.147
-2,1,1.148
0,-1,1.149
0,0,1.15
-2,1,1.151
-2,-1,1.152
0,-1,1.153
0,-2,1.154
-3,-2,1.155
-8,-1,1.156
-10,-2,1.157
-5,-1,1.158
0,0,1.159
4,1,1.16
4,4,1.161
4,7,1.162
6,8,1.163
5,6,1.164
2,1,1.165
0,0,1.166
1,0,1.167
0,2,1.168
-1,2,1.169
2,0,1.17
5,-4,1.171
5,-4,1.172
4,-3,1.173
1,-1,1.174
2,-1,1.175
0,-4,1.176
-3,-7,1.177
-5,-7,1.178
1,-6,1.179
9,-5,1.18
12,-3,1.181
9,1,1.182
5,3,1.183
6,2,1.184
4,1,1.185
2,1,1.186
0,1,1.187
2,2,1.188
2,3,1.189
-1,3,1.19
-3,-1,1.191
-2,-3,1.192
2,-3,1.193
0,-4,1.194
-3,-6,1.195
-5,-7,1.196
-5,-5,1.197
-3,-1,1.198
1,-1,1.199
9,-1,1.2
13,4,1.201
12,9,1.202
9,6,1.203
11,0,1.204
10,-1,1.205
5,1,1.206
2,1,1.207
4,-1,1.208
8,-2,1.209
7,1,1.21
3,3,1.211
2,0,1.212
3,1,1.213
2,0,1.214
0,-1,1.215
-5,-5,1.216
-9,-8,1.217
-9,-4,1.218
-2,0,1.219
5,1,1.22
6,2,1.221
1,4,1.222
0,5,1.223
2,0,1.224
2,-4,1.225
-2,-1,1.226
-1,4,1.227
1,5,1.228
2,3,1.229
0,1,1.23
0,0,1.231
2,-3,1.232
6,-3,1.233
5,-3,1.234
4,-2,1.235
1,-3,1.236
0,-9,1.237
1,-8,1.238
5,-5,1.239
10,-2,1.24
9,0,1.241
4,2,1.242
4,2,1.243
9,0,1.244
10,0,1.245
4,2,1.246
-1,1,1.247
-2,-3,1.248
1,-4,1.249
3,-1,1.25
4,1,1.251
2,0,1.252
0,-1,1.253
-3,-3,1.254
-4,-2,1.255
-5,-2,1.256
-5,-6,1.257
-4,-7,1.258
3,-5,1.259
11,-2,1.26
11,0,1.261
3,1,1.262
0,0,1.263
4,-1,1.264
7,-3,1.265
5,-4,1.266
2,-3,1.267
4,-2,1.268
8,-2,1.269
4,-1,1.27
2,0,1.271
3,0,1.272
5,0,1.273
4,-4,1.274
2,-4,1.275
1,-3,1.276
-1,-7,1.277
-5,-9,1.278
-3,-8,1.279
6,-2,1.28
11,3,1.281
3,3,1.282
-3,2,1.283
0,2,1.284
5,5,1.285
4,3,1.286
0,-2,1.287
1,-3,1.288
3,-2,1.289
1,1,1.29
0,3,1.291
4,3,1.292
8,5,1.293
5,5,1.294
0,3,1.295
-2,2,1.296
-3,0,1.297
-3,2,1.298
1,4,1.299
8,4,1.3
8,5,1.301
3,5,1.302
1,3,1.303
2,0,1.304
3,0,1.305
0,2,1.306
-1,1,1.307
0,-2,1.308
-2,-1,1.309
-5,1,1.31
-5,1,1.311
-2,-3,1.312
0,-4,1.313
-2,-3,1.314
-4,-2,1.315
-6,-4,1.316
-5,-9,1.317
-2,-10,1.318
5,-7,1.319
10,-3,1.32
8,2,1.321
5,7,1.322
3,6,1.323
2,-1,1.324
2,-6,1.325
1,-5,1.326
3,-2,1.327
4,-4,1.328
1,-6,1.329
-1,-6,1.33
-1,-5,1.331
-2,-3,1.332
-1,-1,1.333
0,-3,1.334
-3,-4,1.335
-5,-4,1.336
-3,-3,1.337
0,-2,1.338
5,-3,1.339
10,-2,1.34
11,2,1.341
10,5,1.342
9,5,1.343
9,1,1.344
4,3,1.345
2,3,1.346
6,0,1.347
11,-3,1.348
9,0,1.349
4,4,1.35
4,3,1.351
7,-1,1.352
5,-1,1.353
-1,1,1.354
-2,0,1.355
0,-4,1.356
1,-6,1.357
2,-2,1.358
6,-1,1.359
10,-3,1.36
10,0,1.361
6,9,1.362
6,10,1.363
7,1,1.364
6,-2,1.365
4,2,1.366
3,4,1.367
5,-2,1.368
3,-7,1.369
0,-2,1.37
0,4,1.371
5,1,1.372
5,-2,1.373
0,-1,1.374
-3,2,1.375
-4,1,1.376
-3,-5,1.377
-1,-4,1.378
4,1,1.379
11,3,1.38
10,3,1.381
3,4,1.382
-2,5,1.383
-1,2,1.384
2,-1,1.385
2,-1,1.386
-1,0,1.387
-1,-3,1.388
1,-4,1.389
1,-3,1.39
-2,-1,1.391
-5,-3,1.392
-3,-2,1.393
0,1,1.394
2,0,1.395
0,-3,1.396
-4,-8,1.397
-5,-7,1.398
1,-3,1.399
8,-3,1.4
6,-3,1.401
1,0,1.402
0,2,1.403
4,-1,1.404
6,-4,1.405
3,-3,1.406
4,0,1.407
7,0,1.408
6,0,1.409
1,0,1.41
0,-2,1.411
2,-4,1.412
3,0,1.413
0,3,1.414
-2,3,1.415
-5,0,1.416
-9,-2,1.417
-10,-2,1.418
0,-1,1.419
10,-3,1.42
11,-2,1.421
4,2,1.422
1,1,1.423
5,-1,1.424
6,-1,1.425
4,1,1.426
3,2,1.427
6,1,1.428
8,3,1.429
7,7,1.43
3,5,1.431
1,0,1.432
1,0,1.433
0,0,1.434
2,-1,1.435
0,-5,1.436
-3,-7,1.437
-4,-3,1.438
0,-2,1.439
8,-5,1.44
12,-5,1.441
10,1,1.442
8,5,1.443
9,1,1.444
10,-1,1.445
6,1,1.446
2,4,1.447
2,2,1.448
1,-2,1.449
0,-3,1.45
1,-1,1.451
2,-1,1.452
5,0,1.453
2,-1,1.454
-2,-2,1.455
-5,-3,1.456
-7,-9,1.457
-3,-12,1.458
4,-12,1.459
12,-6,1.46
11,3,1.461
3,8,1.462
-2,7,1.463
0,4,1.464
1,4,1.465
0,4,1.466
-1,4,1.467
2,2,1.468
4,0,1.469
1,0,1.47
-2,-2,1.471
0,0,1.472
3,2,1.473
0,1,1.474
-3,-2,1.475
-2,-4,1.476
-2,-6,1.477
-4,-5,1.478
-4,-4,1.479
1,-4,1.48
5,-1,1.481
5,2,1.482
7,3,1.483
10,2,1.484
10,1,1.485
3,1,1.486
-2,1,1.487
-1,0,1.488
3,-1,1.489
3,-2,1.49
1,-2,1.491
1,0,1.492
3,2,1.493
3,0,1.494
1,-1,1.495
-2,-1,1.496
-4,-4,1.497
-4,-7,1.498
1,-7,1.499
8,-3,1.5
9,2,1.501
3,6,1.502
3,4,1.503
7,3,1.504
6,1,1.505
2,0,1.506
1,-2,1.507
3,-3,1.508
3,-2,1.509
0,-1,1.51
1,-3,1.511
6,-3,1.512
8,-1,1.513
4,0,1.514
2,1,1.515
2,-1,1.516
1,-5,1.517
0,-4,1.518
4,0,1.519
14,4,1.52
14,4,1.521
4,3,1.522
-3,4,1.523
0,4,1.524
3,4,1.525
1,2,1.526
-3,1,1.527
-1,1,1.528
3,0,1.529
5,0,1.53
3,1,1.531
1,0,1.532
0,-2,1.533
-2,-5,1.534
-4,-5,1.535
-6,-4,1.536
-7,-7,1.537
-5,-6,1.538
1,-6,1.539
8,-4,1.54
10,0,1.541
6,3,1.542
8,5,1.543
11,3,1.544
9,1,1.545
0,-1,1.546
-4,-2,1.547
-1,0,1.548
3,1,1.549
2,0,1.55
0,-1,1.551
-1,-2,1.552
1,0,1.553
1,1,1.554
0,0,1.555
-4,-1,1.556
-8,-2,1.557
-7,-2,1.558
0,-2,1.559
8,0,1.56
9,3,1.561
4,6,1.562
3,3,1.563
5,-3,1.564
5,-6,1.565
4,-5,1.566
5,-2,1.567
8,-1,1.568
8,-1,1.569
3,0,1.57
2,0,1.571
3,-1,1.572
2,0,1.573
-2,-1,1.574
-4,-1,1.575
-5,-1,1.576
-5,-5,1.577
-8,-6,1.578
-3,-3,1.579
5,1,1.58
9,4,1.581
4,4,1.582
0,2,1.583
5,0,1.584
11,0,1.585
7,1,1.586
0,2,1.587
0,1,1.588
4,-1,1.589
6,0,1.59
2,2,1.591
-1,1,1.592
0,-1,1.593
1,-4,1.594
1,-5,1.595
-1,-5,1.596
-3,-8,1.597
-2,-8,1.598
2,-4,1.599
7,0,1.6
8,3,1.601
5,4,1.602
4,3,1.603
6,0,1.604
7,0,1.605
4,4,1.606
2,6,1.607
3,4,1.608
3,0,1.609
1,0,1.61
0,0,1.611
1,-2,1.612
4,-3,1.613
3,-2,1.614
2,-3,1.615
-2,-4,1.616
-4,-7,1.617
-5,-4,1.618
1,-1,1.619
10,-2,1.62
10,-3,1.621
4,1,1.622
3,6,1.623
8,6,1.624
10,0,1.625
4,1,1.626
1,6,1.627
3,7,1.628
4,0,1.629
3,-4,1.63
4,-2,1.631
5,0,1.632
6,-1,1.633
1,-6,1.634
-1,-10,1.635
-2,-11,1.636
-2,-10,1.637
-2,-5,1.638
1,0,1.639
6,2,1.64
8,1,1.641
3,3,1.642
0,3,1.643
2,0,1.644
5,-4,1.645
4,-4,1.646
1,2,1.647
1,3,1.648
3,0,1.649
1,-2,1.65
1,-2,1.651
2,-2,1.652
4,-2,1.653
2,-3,1.654
0,0,1.655
-2,1,1.656
-5,-4,1.657
-6,-7,1.658
-1,-4,1.659
9,1,1.66
12,4,1.661
6,3,1.662
0,1,1.663
0,2,1.664
4,2,1.665
3,0,1.666
1,0,1.667
0,-1,1.668
1,-1,1.669
0,0,1.67
0,2,1.671
0,0,1.672
2,-2,1.673
3,-3,1.674
2,-2,1.675
-1,0,1.676
-6,-2,1.677
-6,-2,1.678
0,-1,1.679
9,0,1.68
8,1,1.681
4,2,1.682
2,2,1.683
6,-1,1.684
7,-4,1.685
3,-2,1.686
0,0,1.687
0,0,1.688
2,-2,1.689
3,-1,1.69
4,1,1.691
6,2,1.692
6,1,1.693
1,-1,1.694
-3,-3,1.695
-4,-4,1.696
-5,-7,1.697
-6,-4,1.698
0,0,1.699
11,3,1.7
14,3,1.701
7,3,1.702
1,5,1.703
3,3,1.704
4,-2,1.705
0,-4,1.706
-3,-1,1.707
0,2,1.708
5,4,1.709
2,3,1.71
-1,1,1.711
-1,-1,1.712
1,-1,1.713
0,-1,1.714
-1,-1,1.715
-3,-1,1.716
-4,-4,1.717
-4,-6,1.718
1,-4,1.719
7,-1,1.72
10,1,1.721
4,2,1.722
1,2,1.723
5,0,1.724
10,0,1.725
6,-1,1.726
1,-1,1.727
0,-3,1.728
0,-5,1.729
1,-5,1.73
0,-1,1.731
3,0,1.732
7,0,1.733
7,-2,1.734
4,-4,1.735
0,-3,1.736
-3,-5,1.737
-3,-5,1.738
3,-2,1.739
11,2,1.74
10,4,1.741
2,5,1.742
0,4,1.743
3,4,1.744
6,5,1.745
3,7,1.746
0,6,1.747
1,4,1.748
0,1,1.749
-1,1,1.75
0,2,1.751
4,1,1.752
6,0,1.753
2,-5,1.754
-2,-4,1.755
-4,-1,1.756
-4,-3,1.757
-4,-4,1.758
-2,-4,1.759
4,-1,1.76
9,1,1.761
8,1,1.762
5,0,1.763
2,-1,1.764
1,0,1.765
1,3,1.766
2,2,1.767
3,0,1.768
3,-2,1.769
5,0,1.77
4,0,1.771
0,0,1.772
-3,0,1.773
-3,-2,1.774
-3,-3,1.775
-5,-4,1.776
-7,-6,1.777
-2,-3,1.778
6,-2,1.779
12,0,1.78
10,2,1.781
4,5,1.782
2,6,1.783
4,1,1.784
4,-2,1.785
2,-2,1.786
1,-1,1.787
4,-2,1.788
5,-1,1.789
3,0,1.79
0,0,1.791
1,-2,1.792
6,-2,1.793
4,1,1.794
-1,2,1.795
-5,-2,1.796
-5,-9,1.797
-3,-8,1.798
3,-3,1.799
11,2,1.8
13,3,1.801
8,3,1.802
3,3,1.803
6,3,1.804
7,2,1.805
4,2,1.806
0,0,1.807
0,-2,1.808
2,-4,1.809
0,-1,1.81
-1,1,1.811
1,-1,1.812
4,-2,1.813
1,-5,1.814
-3,-8,1.815
-5,-9,1.816
-4,-9,1.817
-3,-3,1.818
0,1,1.819
6,1,1.82
12,-1,1.821
9,1,1.822
4,4,1.823
4,5,1.824
6,5,1.825
4,6,1.826
0,7,1.827
0,3,1.828
2,-1,1.829
3,-2,1.83
3,0,1.831
2,-1,1.832
2,-2,1.833
1,-4,1.834
-1,-3,1.835
-3,-2,1.836
-5,-6,1.837
-6,-5,1.838
-1,-5,1.839
5,-5,1.84
9,-1,1.841
5,4,1.842
0,9,1.843
1,6,1.844
2,-1,1.845
0,-2,1.846
-2,2,1.847
-2,5,1.848
0,5,1.849
0,2,1.85
0,0,1.851
0,-2,1.852
4,-1,1.853
5,0,1.854
4,1,1.855
-1,0,1.856
-4,-4,1.857
-4,-4,1.858
0,-2,1.859
5,-1,1.86
7,0,1.861
5,2,1.862
6,2,1.863
7,3,1.864
5,5,1.865
3,6,1.866
2,2,1.867
3,-4,1.868
1,-3,1.869
-2,-1,1.87
-2,-2,1.871
-1,-6,1.872
1,-5,1.873
1,0,1.874
0,1,1.875
-2,-4,1.876
-5,-9,1.877
-1,-7,1.878
6,-3,1.879
14,-2,1.88
13,1,1.881
6,5,1.882
2,5,1.883
3,0,1.884
4,-4,1.885
4,-2,1.886
4,1,1.887
4,1,1.888
3,0,1.889
0,1,1.89
-1,2,1.891
2,0,1.892
7,-1,1.893
8,-3,1.894
3,-3,1.895
-2,-6,1.896
-4,-7,1.897
-1,-2,1.898
3,4,1.899
8,4,1.9
8,2,1.901
6,0,1.902
1,-1,1.903
1,-2,1.904
2,0,1.905
2,1,1.906
1,0,1.907
1,-3,1.908
3,-2,1.909
3,1,1.91
2,2,1.911
2,-1,1.912
2,-2,1.913
2,-3,1.914
1,-3,1.915
-1,-4,1.916
-4,-6,1.917
-4,-6,1.918
-1,-6,1.919
6,-2,1.92
8,2,1.921
3,6,1.922
0,6,1.923
2,3,1.924
6,1,1.925
4,2,1.926
1,1,1.927
0,-1,1.928
2,-1,1.929
3,1,1.93
3,2,1.931
3,0,1.932
8,0,1.933
7,2,1.934
2,0,1.935
-3,-4,1.936
-5,-7,1.937
-2,-2,1.938
5,3,1.939
13,3,1.94
13,1,1.941
6,5,1.942
0,9,1.943
1,5,1.944
6,0,1.945
7,-2,1.946
4,0,1.947
3,0,1.948
4,-1,1.949
0,-2,1.95
-4,-3,1.951
-4,-4,1.952
0,-5,1.953
3,-5,1.954
0,-5,1.955
-7,-7,1.956
-9,-9,1.957
-3,-7,1.958
5,-4,1.959
11,-3,1.96
8,0,1.961
1,3,1.962
0,3,1.963
3,-2,1.964
5,-3,1.965
2,0,1.966
1,3,1.967
3,1,1.968
5,0,1.969
4,1,1.97
2,0,1.971
0,-3,1.972
0,0,1.973
1,5,1.974
1,7,1.975
-3,2,1.976
-5,-3,1.977
-2,-1,1.978
7,3,1.979
15,5,1.98
12,8,1.981
4,10,1.982
-1,9,1.983
0,4,1.984
3,3,1.985
1,5,1.986
-1,4,1.987
0,0,1.988
2,-2,1.989
2,0,1.99
1,-1,1.991
2,-4,1.992
1,-2,1.993
0,0,1.994
-2,0,1.995
-5,-2,1.996
-6,-7,1.997
-8,-7,1.998
-6,-7,1.999
0,-6,2.0
2,-2,2.001
-1,2,2.002
-5,1,2.003
-2,-2,2.004
2,-3,2.005
4,-1,2.006
2,-1,2.007
3,-2,2.008
5,-1,2.009
5,2,2.01
5,1,2.011
6,-2,2.012
9,-4,2.013
5,-3,2.014
0,-3,2.015
-4,-6,2.016
-4,-12,2.017
0,-11,2.018
7,-8,2.019
12,-5,2.02
12,-1,2.021
6,1,2.022
5,0,2.023
11,-1,2.024
12,0,2.025
8,1,2.026
2,0,2.027
4,-3,2.028
7,-4,2.029
7,-3,2.03
8,-1,2.031
8,0,2.032
9,1,2.033
5,0,2.034
2,-2,2.035
-1,-2,2.036
-3,-2,2.037
-5,0,2.038
-1,2,2.039
9,2,2.04
12,4,2.041
6,6,2.042
0,7,2.043
1,5,2.044
5,2,2.045
3,1,2.046
3,2,2.047
6,3,2.048
8,1,2.049
2,2,2.05
-2,3,2.051
0,2,2.052
3,0,2.053
2,-5,2.054
-4,-3,2.055
-9,-2,2.056
-9,-5,2.057
-6,-5,2.058
-2,-1,2.059
4,3,2.06
6,2,2.061
3,-1,2.062
1,-1,2.063
2,1,2.064
2,2,2.065
0,0,2.066
-2,0,2.067
-1,2,2.068
0,0,2.069
-2,-2,2.07
-2,0,2.071
2,2,2.072
6,4,2.073
5,0,2.074
4,-5,2.075
0,-5,2.076
-3,-6,2.077
-3,-6,2.078
2,-7,2.079
11,-4,2.08
11,1,2.081
5,5,2.082
1,2,2.083
0,-3,2.084
0,-4,2.085
3,2,2.086
5,4,2.087
4,1,2.088
0,-1,2.089
-1,0,2.09
1,1,2.091
5,0,2.092
6,-2,2.093
4,-4,2.094
4,-4,2.095
1,-3,2.096
-6,-5,2.097
-9,-4,2.098
-2,-2,2.099
8,0,2.1
11,4,2.101
5,5,2.102
2,2,2.103
3,0,2.104
2,0,2.105
0,1,2.106
2,0,2.107
5,-1,2.108
4,-2,2.109
0,-1,2.11
1,-1,2.111
7,0,2.112
11,0,2.113
6,-1,2.114
0,-2,2.115
-5,-3,2.116
-6,-7,2.117
-5,-9,2.118
0,-7,2.119
8,-3,2.12
9,4,2.121
3,10,2.122
1,9,2.123
3,1,2.124
4,-1,2.125
3,0,2.126
1,1,2.127
2,-1,2.128
0,-3,2.129
-3,-1,2.13
-6,0,2.131
-4,-1,2.132
-2,0,2.133
-1,-1,2.134
-1,-1,2.135
-1,0,2.136
0,-2,2.137
0,-5,2.138
5,-5,2.139
12,-3,2.14
13,1,2.141
8,4,2.142
2,4,2.143
2,4,2.144
5,4,2.145
3,3,2.146
0,3,2.147
0,3,2.148
2,0,2.149
3,-2,2.15
0,-2,2.151
-1,-1,2.152
0,-1,2.153
-1,-2,2.154
-1,-5,2.155
-1,-6,2.156
0,-7,2.157
2,-4,2.158
4,0,2.159
6,3,2.16
4,5,2.161
2,5,2.162
3,3,2.163
4,0,2.164
4,-1,2.165
3,1,2.166
1,0,2.167
0,-2,2.168
1,-3,2.169
2,-2,2.17
2,1,2.171
2,1,2.172
4,0,2.173
6,-1,2.174
3,-2,2.175
-2,-3,2.176
-4,-6,2.177
-4,-7,2.178
1,-7,2.179
7,-3,2.18
7,1,2.181
0,6,2.182
-3,5,2.183
1,0,2.184
5,-3,2.185
2,-1,2.186
-2,1,2.187
0,-1,2.188
3,-1,2.189
1,1,2.19
0,1,2.191
3,-2,2.192
5,-3,2.193
1,-4,2.194
-3,-3,2.195
-3,-3,2.196
-4,-4,2.197
-5,-1,2.198
-1,-2,2.199
9,-4,2.2
10,0,2.201
2,7,2.202
-1,7,2.203
6,-1,2.204
10,-4,2.205
5,0,2.206
0,5,2.207
1,1,2.208
6,-2,2.209
8,-1,2.21
6,0,2.211
7,-3,2.212
5,-5,2.213
3,-5,2.214
0,-1,2.215
-4,0,2.216
-10,-6,2.217
-10,-8,2.218
1,-5,2.219
11,1,2.22
10,5,2.221
3,6,2.222
3,4,2.223
10,3,2.224
13,2,2.225
9,2,2.226
8,0,2.227
13,0,2.228
16,-1,2.229
11,-3,2.23
2,-3,2.231
-5,-4,2.232
-8,-5,2.233
-10,-5,2.234
-9,-4,2.235
-8,-3,2.236
-9,-5,2.237
-10,-4,2.238
-4,-1,2.239
5,1,2.24
8,2,2.241
2,4,2.242
-1,7,2.243
0,7,2.244
4,5,2.245
4,3,2.246
2,0,2.247
1,-1,2.248
4,-3,2.249
5,-3,2.25
8,-3,2.251
11,-3,2.252
14,-3,2.253
10,-2,2.254
5,0,2.255
0,-1,2.256
-2,-5,2.257
0,-6,2.258
4,-6,2.259
8,-5,2.26
7,-1,2.261
1,3,2.262
-3,3,2.263
-3,0,2.264
-6,-1,2.265
-9,2,2.266
-10,3,2.267
-5,1,2.268
-1,0,2.269
1,0,2.27
0,-1,2.271
0,-5,2.272
2,-6,2.273
3,-3,2.274
4,3,2.275
3,2,2.276
0,-5,2.277
1,-7,2.278
8,-6,2.279
15,-3,2.28
14,1,2.281
8,5,2.282
5,7,2.283
5,5,2.284
2,3,2.285
0,3,2.286
1,2,2.287
5,-1,2.288
6,-3,2.289
3,0,2.29
-1,3,2.291
-2,0,2.292
-2,-2,2.293
-3,-2,2.294
-5,-1,2.295
-6,-4,2.296
-6,-9,2.297
-3,-6,2.298
3,-2,2.299
11,1,2.3
9,2,2.301
4,3,2.302
4,3,2.303
6,0,2.304
4,-3,2.305
-2,-1,2.306
-3,1,2.307
2,0,2.308
3,0,2.309
-1,0,2.31
-3,1,2.311
0,0,2.312
3,-1,2.313
0,-2,2.314
-1,-1,2.315
0,0,2.316
1,-4,2.317
2,-5,2.318
6,-2,2.319
12,2,2.32
11,5,2.321
4,6,2.322
1,4,2.323
2,1,2.324
3,-1,2.325
3,0,2.326
3,-1,2.327
5,-2,2.328
4,-2,2.329
2,-2,2.33
2,-2,2.331
3,-2,2.332
3,1,2.333
2,0,2.334
3,-4,2.335
1,-6,2.336
-3,-6,2.337
-3,-3,2.338
5,-4,2.339
13,-5,2.34
6,-2,2.341
-5,2,2.342
-4,2,2.343
7,-3,2.344
13,-4,2.345
7,-1,2.346
0,2,2.347
0,0,2.348
0,0,2.349
-1,3,2.35
0,4,2.351
4,0,2.352
6,-1,2.353
2,-1,2.354
-2,1,2.355
-5,-2,2.356
-3,-7,2.357
-2,-4,2.358
1,1,2.359
6,4,2.36
8,3,2.361
5,3,2.362
1,4,2.363
2,0,2.364
3,-2,2.365
1,0,2.366
0,5,2.367
1,6,2.368
3,2,2.369
1,-1,2.37
0,0,2.371
0,1,2.372
3,3,2.373
1,1,2.374
-3,-1,2.375
-6,-2,2.376
-5,-5,2.377
-2,-5,2.378
3,-1,2.379
10,4,2.38
13,5,2.381
12,3,2.382
11,0,2.383
10,-1,2.384
10,-3,2.385
10,-2,2.386
9,-1,2.387
8,-1,2.388
6,-2,2.389
3,-4,2.39
2,-3,2.391
3,-4,2.392
3,-4,2.393
2,-4,2.394
-1,-3,2.395
-5,-3,2.396
-10,-6,2.397
-8,-8,2.398
-2,-7,2.399
6,-4,2.4
7,0,2.401
2,4,2.402
1,4,2.403
3,0,2.404
4,-4,2.405
5,-2,2.406
3,1,2.407
4,0,2.408
3,0,2.409
2,3,2.41
2,5,2.411
1,2,2.412
-1,0,2.413
-4,0,2.414
-3,3,2.415
-2,0,2.416
-3,-8,2.417
-6,-8,2.418
-5,-3,2.419
0,0,2.42
5,0,2.421
3,1,2.422
1,3,2.423
2,2,2.424
3,-2,2.425
2,-3,2.426
3,2,2.427
4,2,2.428
7,0,2.429
8,0,2.43
9,0,2.431
11,0,2.432
9,1,2.433
7,0,2.434
6,-1,2.435
4,-5,2.436
-1,-8,2.437
-8,-4,2.438
-5,-1,2.439
5,1,2.44
11,2,2.441
5,5,2.442
-1,6,2.443
1,1,2.444
6,-2,2.445
2,0,2.446
-3,4,2.447
-1,4,2.448
2,0,2.449
1,0,2.45
-2,2,2.451
-2,1,2.452
2,1,2.453
1,0,2.454
-1,2,2.455
-3,0,2.456
-6,-4,2.457
-11,-4,2.458
-8,-2,2.459
2,-1,2.46
6,0,2.461
-1,4,2.462
-6,6,2.463
-3,2,2.464
3,-1,2.465
4,-1,2.466
3,-1,2.467
9,-3,2.468
14,-3,2.469
16,-2,2.47
15,-1,2.471
18,-3,2.472
22,-4,2.473
18,-4,2.474
12,-5,2.475
6,-7,2.476
0,-9,2.477
-5,-7,2.478
-6,-2,2.479
0,1,2.48
3,3,2.481
0,5,2.482
-3,3,2.483
1,0,2.484
7,0,2.485
7,3,2.486
3,3,2.487
1,-2,2.488
2,-6,2.489
1,-2,2.49
-1,0,2.491
0,0,2.492
2,-1,2.493
-1,-2,2.494
-4,-4,2.495
-6,-7,2.496
-7,-7,2.497
-5,-3,2.498
1,-1,2.499
8,0,2.5
9,2,2.501
1,9,2.502
-1,9,2.503
3,4,2.504
7,1,2.505
3,4,2.506
-1,6,2.507
1,3,2.508
2,-1,2.509
-1,-1,2.51
0,-2,2.511
4,-6,2.512
8,-6,2.513
6,-4,2.514
0,-1,2.515
-4,-4,2.516
-6,-8,2.517
-5,-5,2.518
1,1,2.519
10,3,2.52
12,1,2.521
5,4,2.522
-1,7,2.523
0,5,2.524
2,0,2.525
0,1,2.526
-2,5,2.527
0,3,2.528
2,0,2.529
2,-1,2.53
2,-1,2.531
6,-3,2.532
11,-3,2.533
9,-2,2.534
9,0,2.535
8,-4,2.536
3,-9,2.537
-4,-6,2.538
-3,-2,2.539
1,-3,2.54
1,-2,2.541
-4,4,2.542
-4,7,2.543
1,1,2.544
2,-3,2.545
-3,0,2.546
-7,3,2.547
-5,0,2.548
-3,-2,2.549
-1,1,2.55
2,3,2.551
5,0,2.552
5,-3,2.553
1,-2,2.554
1,0,2.555
1,0,2.556
0,-4,2.557
2,-6,2.558
9,-6,2.559
15,-7,2.56
13,-5,2.561
7,1,2.562
6,4,2.563
8,2,2.564
6,0,2.565
1,-1,2.566
0,-3,2.567
2,-4,2.568
2,-2,2.569
-1,1,2.57
-4,1,2.571
-4,1,2.572
-4,2,2.573
-2,1,2.574
2,-2,2.575
3,-5,2.576
1,-6,2.577
-2,-4,2.578
1,-1,2.579
8,0,2.58
10,1,2.581
5,2,2.582
3,2,2.583
7,1,2.584
9,3,2.585
4,6,2.586
-3,5,2.587
-2,3,2.588
3,1,2.589
4,-1,2.59
0,-5,2.591
-1,-5,2.592
-1,2,2.593
0,4,2.594
-2,0,2.595
-4,-3,2.596
-5,-6,2.597
-4,-5,2.598
1,-3,2.599
5,-1,2.6
6,3,2.601
3,7,2.602
2,4,2.603
3,-2,2.604
5,-3,2.605
3,1,2.606
2,3,2.607
0,3,2.608
-2,0,2.609
-5,0,2.61
-4,2,2.611
2,1,2.612
6,1,2.613
3,-1,2.614
0,-2,2.615
-1,-4,2.616
0,-6,2.617
1,-5,2.618
2,-3,2.619
7,-4,2.62
8,-3,2.621
5,-1,2.622
2,0,2.623
4,1,2.624
6,2,2.625
3,3,2.626
0,4,2.627
-1,2,2.628
1,0,2.629
5,-1,2.63
9,0,2.631
13,1,2.632
14,3,2.633
11,2,2.634
5,-1,2.635
3,-3,2.636
2,-7,2.637
3,-9,2.638
5,-7,2.639
7,-2,2.64
7,4,2.641
1,7,2.642
-1,3,2.643
-1,-2,2.644
0,-2,2.645
-2,0,2.646
-4,4,2.647
-1,2,2.648
3,-2,2.649
6,-4,2.65
8,-4,2.651
11,-3,2.652
14,-2,2.653
10,-4,2.654
4,-4,2.655
-3,-5,2.656
-6,-9,2.657
-8,-8,2.658
-7,-5,2.659
-5,-2,2.66
-4,0,2.661
-7,1,2.662
-6,4,2.663
0,6,2.664
8,7,2.665
8,6,2.666
5,3,2.667
7,1,2.668
12,0,2.669
11,4,2.67
7,6,2.671
5,3,2.672
5,1,2.673
1,0,2.674
-4,3,2.675
-8,3,2.676
-8,-4,2.677
-7,-5,2.678
-2,-2,2.679
7,3,2.68
12,3,2.681
11,2,2.682
7,3,2.683
9,5,2.684
15,5,2.685
17,4,2.686
15,0,2.687
9,-2,2.688
3,-2,2.689
0,-2,2.69
0,-3,2.691
0,-5,2.692
-1,-2,2.693
-5,-2,2.694
-7,-4,2.695
-8,-7,2.696
-12,-9,2.697
-15,-6,2.698
-9,-3,2.699
1,-4,2.7
6,-1,2.701
1,2,2.702
-4,1,2.703
-2,-5,2.704
2,-7,2.705
0,-3,2.706
-2,-1,2.707
0,-6,2.708
2,-7,2.709
2,-4,2.71
0,-2,2.711
2,-5,2.712
4,-6,2.713
3,-4,2.714
1,-2,2.715
0,-2,2.716
0,-3,2.717
-1,-1,2.718
2,2,2.719
8,3,2.72
9,3,2.721
5,5,2.722
5,3,2.723
13,0,2.724
19,0,2.725
15,0,2.726
4,3,2.727
0,3,2.728
2,1,2.729
3,-2,2.73
6,-2,2.731
8,0,2.732
10,5,2.733
8,3,2.734
4,0,2.735
2,0,2.736
2,-1,2.737
3,-1,2.738
9,-3,2.739
15,-2,2.74
18,2,2.741
12,8,2.742
4,8,2.743
3,4,2.744
0,-1,2.745
-5,-2,2.746
-11,-3,2.747
-7,-2,2.748
0,0,2.749
2,0,2.75
-3,-3,2.751
-8,-3,2.752
-6,2,2.753
-3,3,2.754
-3,0,2.755
-5,-3,2.756
-6,-7,2.757
-3,-4,2.758
5,-2,2.759
14,-1,2.76
14,0,2.761
11,0,2.762
10,0,2.763
11,0,2.764
9,5,2.765
3,8,2.766
-1,4,2.767
-2,-2,2.768
-3,-2,2.769
-3,0,2.77
0,0,2.771
2,-1,2.772
1,1,2.773
-1,3,2.774
-2,1,2.775
-4,-3,2.776
-7,-9,2.777
-8,-7,2.778
-3,-3,2.779
4,0,2.78
2,4,2.781
-4,5,2.782
-6,1,2.783
-1,-3,2.784
2,-4,2.785
3,-1,2.786
5,0,2.787
10,-4,2.788
11,-6,2.789
9,-3,2.79
9,-1,2.791
10,-1,2.792
9,0,2.793
2,1,2.794
-1,2,2.795
-2,0,2.796
-3,-4,2.797
-3,-5,2.798
3,-4,2.799
12,0,2.8
12,1,2.801
4,4,2.802
-1,3,2.803
0,2,2.804
0,0,2.805
-2,0,2.806
-3,-1,2.807
1,-2,2.808
5,0,2.809
2,2,2.81
-1,0,2.811
0,-6,2.812
4,-6,2.813
0,-2,2.814
-6,-1,2.815
-8,-4,2.816
-5,-8,2.817
-2,-5,2.818
3,0,2.819
10,-1,2.82
11,-3,2.821
8,0,2.822
3,3,2.823
4,2,2.824
2,-3,2.825
-2,-4,2.826
-3,0,2.827
0,3,2.828
4,0,2.829
6,0,2.83
5,2,2.831
6,3,2.832
7,2,2.833
3,-2,2.834
1,-3,2.835
0,0,2.836
0,-1,2.837
2,-2,2.838
9,-2,2.839
14,0,2.84
10,3,2.841
-1,4,2.842
-4,0,2.843
-3,-3,2.844
-1,-3,2.845
-1,2,2.846
1,4,2.847
5,0,2.848
7,-3,2.849
4,-3,2.85
1,0,2.851
0,0,2.852
1,-1,2.853
2,-3,2.854
2,-4,2.855
-3,-5,2.856
-9,-10,2.857
-9,-8,2.858
-1,-5,2.859
8,-3,2.86
10,0,2.861
5,4,2.862
4,5,2.863
8,3,2.864
5,0,2.865
-2,0,2.866
-3,0,2.867
5,-3,2.868
11,-3,2.869
6,0,2.87
1,3,2.871
4,3,2.872
9,1,2.873
7,-1,2.874
1,-1,2.875
-1,-2,2.876
0,-5,2.877
0,-2,2.878
1,0,2.879
3,2,2.88
1,0,2.881
-4,0,2.882
-4,0,2.883
3,-2,2.884
9,-2,2.885
7,-1,2.886
1,2,2.887
2,5,2.888
5,5,2.889
4,3,2.89
2,-2,2.891
5,-6,2.892
10,-3,2.893
8,-2,2.894
1,-1,2.895
-3,-5,2.896
-5,-10,2.897
-4,-8,2.898
-2,-3,2.899
2,1,2.9
5,2,2.901
2,2,2.902
-1,4,2.903
-1,5,2.904
0,4,2.905
0,2,2.906
0,0,2.907
1,0,2.908
3,1,2.909
0,3,2.91
-2,1,2.911
0,-2,2.912
3,-2,2.913
3,-1,2.914
3,0,2.915
4,-1,2.916
5,-6,2.917
4,-6,2.918
10,-5,2.919
17,-2,2.92
16,-2,2.921
4,-1,2.922
-5,0,2.923
-5,0,2.924
0,0,2.925
3,2,2.926
4,4,2.927
5,2,2.928
3,1,2.929
-2,2,2.93
-2,3,2.931
2,0,2.932
4,-1,2.933
-2,-1,2.934
-5,0,2.935
-6,1,2.936
-8,-3,2.937
-11,-5,2.938
-6,-5,2.939
5,-3,2.94
8,0,2.941
0,4,2.942
-5,4,2.943
0,0,2.944
5,-2,2.945
3,1,2.946
0,5,2.947
6,5,2.948
11,2,2.949
9,1,2.95
4,2,2.951
3,0,2.952
6,-2,2.953
6,-5,2.954
5,-4,2.955
1,-2,2.956
-4,0,2.957
-10,-1,2.958
-4,-1,2.959
5,0,2.96
10,2,2.961
4,4,2.962
0,1,2.963
1,-4,2.964
4,-5,2.965
3,-2,2.966
2,1,2.967
2,0,2.968
2,-1,2.969
1,2,2.97
2,2,2.971
2,-2,2.972
3,-5,2.973
2,-6,2.974
0,-4,2.975
-1,-5,2.976
-1,-8,2.977
2,-7,2.978
9,-3,2.979
12,0,2.98
11,1,2.981
8,4,2.982
5,5,2.983
4,1,2.984
0,0,2.985
-1,0,2.986
0,1,2.987
2,1,2.988
2,1,2.989
-2,0,2.99
-4,-1,2.991
-3,-4,2.992
0,-4,2.993
1,-4,2.994
0,-5,2.995
-3,-5,2.996
-5,-5,2.997
-6,0,2.998
-2,2,2.999
3,1,3.0
7,2,3.001
5,9,3.002
2,11,3.003
4,6,3.004
6,0,3.005
5,0,3.006
3,3,3.007
2,2,3.008
5,-2,3.009
9,-3,3.01
9,-2,3.011
7,-2,3.012
5,-5,3.013
4,-7,3.014
7,-6,3.015
9,-4,3.016
7,-3,3.017
4,-1,3.018
5,0,3.019
7,0,3.02
4,0,3.021
-6,2,3.022
-13,1,3.023
-9,-1,3.024
-1,-3,3.025
4,-1,3.026
6,1,3.027
6,-1,3.028
3,-2,3.029
0,-2,3.03
-1,-2,3.031
2,-2,3.032
5,0,3.033
4,-1,3.034
0,-3,3.035
-3,-4,3.036
-5,-4,3.037
-8,-2,3.038
-2,-1,3.039
6,0,3.04
8,3,3.041
3,8,3.042
2,8,3.043
6,2,3.044
7,-2,3.045
3,0,3.046
0,2,3.047
1,0,3.048
2,-2,3.049
2,-2,3.05
3,1,3.051
5,3,3.052
6,2,3.053
5,-3,3.054
4,-7,3.055
1,-6,3.056
-2,-7,3.057
-2,-5,3.058
4,-3,3.059
13,1,3.06
12,3,3.061
3,4,3.062
-3,3,3.063
-1,2,3.064
1,1,3.065
0,0,3.066
-1,0,3.067
0,1,3.068
0,1,3.069
-2,-1,3.07
-2,-3,3.071
3,-2,3.072
10,2,3.073
10,3,3.074
8,0,3.075
5,-4,3.076
3,-9,3.077
-1,-7,3.078
-1,-4,3.079
5,-2,3.08
9,0,3.081
5,1,3.082
0,0,3.083
0,-2,3.084
1,-3,3.085
-1,-1,3.086
-2,1,3.087
0,0,3.088
1,-1,3.089
0,0,3.09
0,0,3.091
2,-3,3.092
6,-3,3.093
5,-2,3.094
4,0,3.095
0,-1,3.096
-5,-5,3.097
-8,-3,3.098
-3,0,3.099
9,0,3.1
16,0,3.101
12,3,3.102
8,5,3.103
8,3,3.104
8,2,3.105
1,2,3.106
-5,2,3.107
-8,0,3.108
-5,-1,3.109
1,1,3.11
8,2,3.111
10,2,3.112
6,1,3.113
0,-2,3.114
-1,-5,3.115
-4,-8,3.116
-9,-9,3.117
-8,-7,3.118
1,-3,3.119
10,0,3.12
7,2,3.121
-2,5,3.122
-2,5,3.123
8,0,3.124
15,-2,3.125
14,1,3.126
14,3,3.127
17,2,3.128
19,-1,3.129
12,-2,3.13
1,-3,3.131
-5,-2,3.132
-3,0,3.133
-1,0,3.134
-1,0,3.135
-4,-4,3.136
-2,-7,3.137
4,-6,3.138
12,-3,3.139
14,1,3.14
8,3,3.141
3,3,3.142
0,0,3.143
-1,-2,3.144
-7,-2,3.145
-13,1,3.146
-13,3,3.147
-7,2,3.148
-1,0,3.149
-2,-2,3.15
-6,-2,3.151
-6,-1,3.152
-2,1,3.153
3,0,3.154
3,-3,3.155
-2,-5,3.156
-6,-7,3.157
-2,-5,3.158
4,-3,3.159
7,0,3.16
2,4,3.161
-5,8,3.162
-7,6,3.163
-2,2,3.164
6,0,3.165
8,1,3.166
4,1,3.167
4,0,3.168
8,-2,3.169
10,-3,3.17
6,-3,3.171
3,-2,3.172
6,0,3.173
7,0,3.174
5,-4,3.175
-2,-5,3.176
-6,-6,3.177
-6,-3,3.178
0,-2,3.179
12,0,3.18
19,3,3.181
18,6,3.182
13,5,3.183
10,0,3.184
7,-2,3.185
5,0,3.186
2,2,3.187
2,2,3.188
2,0,3.189
0,0,3.19
-1,-1,3.191
1,-1,3.192
3,0,3.193
-1,-1,3.194
-5,0,3.195
-7,2,3.196
-4,0,3.197
-1,-3,3.198
3,-4,3.199
9,-2,3.2
11,-1,3.201
10,-1,3.202
7,-1,3.203
6,0,3.204
4,1,3.205
0,-2,3.206
0,-4,3.207
3,-3,3.208
7,-4,3.209
8,-5,3.21
4,-4,3.211
-2,1,3.212
-6,5,3.213
-7,0,3.214
-3,-5,3.215
-2,-4,3.216
-7,-6,3.217
-10,-7,3.218
-1,-4,3.219
9,2,3.22
9,10,3.221
2,10,3.222
-1,4,3.223
1,1,3.224
2,1,3.225
1,1,3.226
2,1,3.227
6,0,3.228
9,0,3.229
9,2,3.23
7,2,3.231
6,0,3.232
8,0,3.233
7,-2,3.234
8,-2,3.235
4,-1,3.236
-3,-5,3.237
-9,-7,3.238
-8,-5,3.239
3,-4,3.24
12,-2,3.241
10,0,3.242
3,1,3.243
-2,0,3.244
-3,0,3.245
-6,2,3.246
-6,2,3.247
-2,-1,3.248
3,-4,3.249
2,-1,3.25
0,2,3.251
1,-1,3.252
6,-5,3.253
5,-7,3.254
0,-3,3.255
-8,-1,3.256
-10,-3,3.257
-6,-3,3.258
2,-1,3.259
12,0,3.26
13,2,3.261
5,3,3.262
-2,2,3.263
3,-2,3.264
13,-3,3.265
16,-1,3.266
10,1,3.267
4,-1,3.268
2,-4,3.269
0,-1,3.27
0,0,3.271
2,-1,3.272
8,-3,3.273
10,-2,3.274
7,0,3.275
2,-2,3.276
-1,-9,3.277
0,-9,3.278
4,-3,3.279
9,1,3.28
8,4,3.281
4,6,3.282
0,7,3.283
-1,3,3.284
-4,1,3.285
-7,2,3.286
-7,3,3.287
-5,1,3.288
-4,-2,3.289
-5,-3,3.29
-4,-4,3.291
0,-5,3.292
5,-1,3.293
5,0,3.294
4,-1,3.295
1,-5,3.296
0,-8,3.297
1,-5,3.298
10,-3,3.299
19,-3,3.3
19,-1,3.301
13,4,3.302
8,8,3.303
9,4,3.304
10,0,3.305
2,1,3.306
-7,2,3.307
-11,-2,3.308
-9,-4,3.309
-6,-3,3.31
-1,1,3.311
5,-1,3.312
9,-4,3.313
5,-3,3.314
-1,0,3.315
-3,0,3.316
-3,-4,3.317
-2,-3,3.318
3,2,3.319
8,4,3.32
9,2,3.321
3,4,3.322
0,8,3.323
0,6,3.324
0,0,3.325
-3,-3,3.326
-5,-1,3.327
-8,0,3.328
-15,-1,3.329
-23,-2,3.33
-23,-1,3.331
-8,-3,3.332
11,-6,3.333
20,-7,3.334
24,-6,3.335
29,-6,3.336
36,-8,3.337
40,-6,3.338
36,-1,3.339
32,1,3.34
24,1,3.341
9,2,3.342
-3,2,3.343
-6,0,3.344
-5,0,3.345
-7,2,3.346
-12,2,3.347
-11,1,3.348
-7,0,3.349
-6,1,3.35
-6,-1,3.351
-5,-4,3.352
-3,-3,3.353
-5,0,3.354
-4,0,3.355
-2,-3,3.356
3,-6,3.357
4,-3,3.358
7,-2,3.359
12,0,3.36
14,7,3.361
12,13,3.362
9,11,3.363
8,4,3.364
4,2,3.365
-3,5,3.366
-5,3,3.367
2,0,3.368
10,1,3.369
13,9,3.37
14,10,3.371
16,3,3.372
14,-3,3.373
6,-5,3.374
-1,-1,3.375
-7,1,3.376
-10,-3,3.377
-10,-4,3.378
-7,-3,3.379
-2,-1,3.38
0,3,3.381
-1,5,3.382
-1,3,3.383
0,-3,3.384
-1,-3,3.385
-5,1,3.386
-8,3,3.387
-5,-2,3.388
-3,-5,3.389
-2,-3,3.39
-4,-3,3.391
-4,-8,3.392
-4,-8,3.393
-4,-4,3.394
-3,-1,3.395
-1,-2,3.396
2,-8,3.397
6,-4,3.398
10,1,3.399
6,0,3.4
-9,-1,3.401
-31,-1,3.402
-38,0,3.403
-19,-1,3.404
11,-2,3.405
32,0,3.406
39,2,3.407
48,1,3.408
52,-1,3.409
41,-2,3.41
24,-1,3.411
13,-2,3.412
7,-2,3.413
-3,0,3.414
-14,1,3.415
-17,0,3.416
-12,-6,3.417
-9,-7,3.418
-8,-4,3.419
0,0,3.42
6,0,3.421
5,0,3.422
2,2,3.423
4,2,3.424
7,-1,3.425
4,-2,3.426
2,1,3.427
5,4,3.428
9,3,3.429
7,0,3.43
4,-1,3.431
6,0,3.432
8,3,3.433
3,0,3.434
-1,-1,3.435
-3,-1,3.436
-5,-3,3.437
-10,-1,3.438
-10,2,3.439
-7,6,3.44
-5,8,3.441
-8,7,3.442
-3,3,3.443
9,-2,3.444
14,-3,3.445
1,-2,3.446
-15,-2,3.447
-18,-4,3.448
-11,-5,3.449
-8,-2,3.45
-10,0,3.451
-10,0,3.452
-2,1,3.453
9,0,3.454
17,0,3.455
19,-2,3.456
16,-9,3.457
12,-10,3.458
10,-8,3.459
14,-3,3.46
17,1,3.461
15,3,3.462
10,4,3.463
10,2,3.464
13,-1,3.465
10,-3,3.466
5,-4,3.467
1,-1,3.468
0,0,3.469
1,0,3.47
1,0,3.471
2,-2,3.472
2,-1,3.473
-3,0,3.474
-5,-1,3.475
-6,-1,3.476
-7,-3,3.477
-5,-4,3.478
-1,-4,3.479
6,-4,3.48
7,0,3.481
1,6,3.482
-1,8,3.483
1,5,3.484
1,4,3.485
-5,3,3.486
-6,2,3.487
0,-4,3.488
10,-5,3.489
14,-2,3.49
15,0,3.491
12,-2,3.492
5,-3,3.493
-4,0,3.494
-12,1,3.495
-22,-2,3.496
-35,-9,3.497
-43,-8,3.498
-35,-1,3.499
-12,2,3.5
13,3,3.501
27,3,3.502
38,5,3.503
45,3,3.504
44,0,3.505
35,-1,3.506
25,0,3.507
19,1,3.508
12,0,3.509
-2,-1,3.51
-9,-2,3.511
-7,-2,3.512
-3,0,3.513
-4,0,3.514
-5,0,3.515
-6,-3,3.516
-10,-8,3.517
-17,-7,3.518
-15,-5,3.519
-8,0,3.52
-4,2,3.521
-5,2,3.522
-3,0,3.523
4,-1,3.524
10,0,3.525
10,1,3.526
14,3,3.527
16,2,3.528
11,0,3.529
2,0,3.53
0,0,3.531
4,0,3.532
9,0,3.533
6,0,3.534
4,0,3.535
0,0,3.536
-8,-5,3.537
-17,-7,3.538
-12,-6,3.539
-1,-2,3.54
0,1,3.541
-7,2,3.542
-8,2,3.543
3,2,3.544
13,2,3.545
10,3,3.546
2,4,3.547
2,2,3.548
7,0,3.549
7,-2,3.55
2,-3,3.551
0,-4,3.552
0,-3,3.553
-1,-3,3.554
-3,-4,3.555
-6,-6,3.556
-7,-9,3.557
-7,-7,3.558
-3,-4,3.559
4,-1,3.56
8,2,3.561
8,4,3.562
8,2,3.563
10,-1,3.564
13,-2,3.565
15,0,3.566
14,-1,3.567
14,-3,3.568
14,-2,3.569
11,0,3.57
6,0,3.571
-2,-2,3.572
-7,-1,3.573
-8,1,3.574
-2,0,3.575
1,-3,3.576
-3,-6,3.577
-4,-4,3.578
3,0,3.579
15,2,3.58
20,2,3.581
18,2,3.582
14,0,3.583
14,-1,3.584
10,1,3.585
2,4,3.586
-3,2,3.587
-6,-2,3.588
-12,-2,3.589
-16,1,3.59
-16,1,3.591
-15,-2,3.592
-13,-2,3.593
-13,-2,3.594
-10,0,3.595
-8,0,3.596
-8,-2,3.597
-4,-3,3.598
6,-3,3.599
15,-1,3.6
15,2,3.601
9,4,3.602
4,2,3.603
3,2,3.604
1,6,3.605
-5,8,3.606
-15,4,3.607
-23,-2,3.608
-25,-2,3.609
-14,3,3.61
5,3,3.611
21,-4,3.612
30,-7,3.613
34,-5,3.614
36,-4,3.615
29,-4,3.616
19,-6,3.617
15,-3,3.618
20,0,3.619
20,0,3.62
14,1,3.621
8,4,3.622
11,2,3.623
12,-1,3.624
3,-2,3.625
-3,2,3.626
-4,1,3.627
-3,-2,3.628
-3,-1,3.629
-4,1,3.63
-2,2,3.631
-1,-2,3.632
1,-3,3.633
3,-1,3.634
4,0,3.635
-2,-1,3.636
-10,-4,3.637
-13,-6,3.638
-8,-5,3.639
-8,-3,3.64
-13,2,3.641
-13,3,3.642
-5,0,3.643
1,-3,3.644
-2,0,3.645
-8,5,3.646
-4,5,3.647
5,1,3.648
10,-1,3.649
5,0,3.65
3,-1,3.651
5,-4,3.652
7,-4,3.653
6,-2,3.654
4,0,3.655
0,-2,3.656
-4,-7,3.657
-4,-8,3.658
0,-5,3.659
6,0,3.66
9,4,3.661
6,7,3.662
7,7,3.663
10,2,3.664
10,0,3.665
5,1,3.666
4,3,3.667
9,1,3.668
11,0,3.669
5,0,3.67
-2,-1,3.671
-6,-1,3.672
-4,0,3.673
-5,-1,3.674
-2,-2,3.675
-1,-4,3.676
-2,-7,3.677
-5,-6,3.678
-3,-3,3.679
3,-1,3.68
6,-1,3.681
2,1,3.682
0,3,3.683
6,2,3.684
11,0,3.685
7,-2,3.686
1,-2,3.687
2,0,3.688
10,3,3.689
16,6,3.69
14,4,3.691
8,0,3.692
4,0,3.693
-1,0,3.694
-8,-2,3.695
-18,-5,3.696
-22,-10,3.697
-16,-8,3.698
-4,-3,3.699
5,0,3.7
6,1,3.701
2,2,3.702
4,0,3.703
10,0,3.704
12,0,3.705
10,3,3.706
5,2,3.707
4,0,3.708
4,0,3.709
3,1,3.71
4,2,3.711
6,-1,3.712
8,-2,3.713
5,-2,3.714
2,0,3.715
0,1,3.716
-1,-3,3.717
-3,-4,3.718
-4,-1,3.719
-9,2,3.72
-22,3,3.721
-39,3,3.722
-39,4,3.723
-15,6,3.724
19,3,3.725
39,0,3.726
42,0,3.727
43,0,3.728
42,-1,3.729
35,-3,3.73
20,-3,3.731
10,-3,3.732
6,-2,3.733
-1,-4,3.734
-8,-4,3.735
-10,-5,3.736
-5,-8,3.737
-1,-6,3.738
1,-2,3.739
8,0,3.74
11,2,3.741
5,4,3.742
-2,5,3.743
-1,1,3.744
3,0,3.745
0,2,3.746
-5,6,3.747
-1,5,3.748
3,2,3.749
-2,1,3.75
-9,-1,3.751
-6,-2,3.752
3,0,3.753
2,1,3.754
-6,1,3.755
-11,-2,3.756
-8,-8,3.757
-3,-5,3.758
2,-1,3.759
5,2,3.76
3,3,3.761
-4,6,3.762
-5,6,3.763
0,3,3.764
6,2,3.765
0,2,3.766
-7,0,3.767
-4,-2,3.768
4,-2,3.769
9,0,3.77
10,-1,3.771
10,-3,3.772
11,-2,3.773
6,-2,3.774
5,-6,3.775
5,-11,3.776
7,-12,3.777
4,-5,3.778
-1,0,3.779
-3,-1,3.78
-5,-2,3.781
-5,0,3.782
-2,3,3.783
4,1,3.784
6,0,3.785
4,0,3.786
3,1,3.787
3,0,3.788
3,1,3.789
0,2,3.79
1,2,3.791
4,-1,3.792
9,0,3.793
7,0,3.794
3,0,3.795
0,-2,3.796
-3,-6,3.797
-2,-7,3.798
3,-5,3.799
10,-1,3.8
12,2,3.801
7,6,3.802
2,5,3.803
2,1,3.804
2,0,3.805
0,1,3.806
-1,1,3.807
2,-2,3.808
3,-3,3.809
2,0,3.81
-3,0,3.811
-14,-3,3.812
-26,-3,3.813
-33,-2,3.814
-22,1,3.815
-3,0,3.816
11,-6,3.817
20,-6,3.818
34,-2,3.819
47,2,3.82
47,3,3.821
33,5,3.822
20,5,3.823
17,2,3.824
12,0,3.825
6,2,3.826
3,4,3.827
0,0,3.828
-9,-6,3.829
-18,-4,3.83
-12,0,3.831
3,2,3.832
8,1,3.833
-1,-4,3.834
-6,-5,3.835
-3,-6,3.836
-4,-8,3.837
-7,-9,3.838
-4,-5,3.839
4,-1,3.84
4,1,3.841
-3,3,3.842
-5,6,3.843
-3,6,3.844
-5,5,3.845
-14,3,3.846
-17,2,3.847
-10,1,3.848
-3,-1,3.849
0,-2,3.85
3,-1,3.851
11,-1,3.852
16,0,3.853
15,-1,3.854
9,0,3.855
0,-1,3.856
-4,-5,3.857
0,-5,3.858
12,-2,3.859
18,-1,3.86
11,-1,3.861
-3,0,3.862
-5,1,3.863
2,2,3.864
9,0,3.865
6,0,3.866
0,0,3.867
-4,-2,3.868
-3,-4,3.869
1,-4,3.87
5,-2,3.871
4,-2,3.872
0,-2,3.873
-3,-2,3.874
-1,-1,3.875
0,-1,3.876
-1,-6,3.877
-2,-6,3.878
2,-4,3.879
5,-1,3.88
0,0,3.881
-5,2,3.882
-6,3,3.883
-8,1,3.884
-10,-1,3.885
-12,0,3.886
-10,3,3.887
-7,3,3.888
-1,1,3.889
3,1,3.89
5,2,3.891
6,2,3.892
0,1,3.893
-4,-2,3.894
-7,-2,3.895
0,-3,3.896
15,-8,3.897
32,-8,3.898
47,-4,3.899
56,2,3.9
58,6,3.901
51,2,3.902
38,-1,3.903
28,-3,3.904
18,-1,3.905
0,1,3.906
-15,2,3.907
-17,0,3.908
-10,-1,3.909
-6,-1,3.91
-11,-2,3.911
-14,-4,3.912
-10,-4,3.913
-10,-3,3.914
-12,-3,3.915
-10,-3,3.916
-2,-6,3.917
-1,-6,3.918
-8,-5,3.919
-13,-2,3.92
-11,2,3.921
-7,5,3.922
-9,5,3.923
-11,2,3.924
-11,1,3.925
-10,3,3.926
-10,4,3.927
-5,2,3.928
-1,-1,3.929
-1,-2,3.93
-1,1,3.931
2,3,3.932
8,3,3.933
7,-1,3.934
2,-6,3.935
-1,-6,3.936
1,-6,3.937
5,-4,3.938
10,-3,3.939
15,-3,3.94
14,0,3.941
8,3,3.942
3,3,3.943
6,1,3.944
7,-1,3.945
2,-2,3.946
-2,-4,3.947
-3,-4,3.948
-2,-1,3.949
-2,2,3.95
-2,3,3.951
2,1,3.952
6,1,3.953
7,1,3.954
8,0,3.955
10,-3,3.956
6,-5,3.957
3,-1,3.958
12,2,3.959
25,2,3.96
29,2,3.961
18,4,3.962
4,3,3.963
1,-1,3.964
-1,-1,3.965
-9,3,3.966
-13,5,3.967
-11,2,3.968
-10,0,3.969
-12,2,3.97
-10,3,3.971
-4,0,3.972
0,-2,3.973
0,-3,3.974
1,0,3.975
2,0,3.976
0,-5,3.977
-3,-5,3.978
1,-6,3.979
10,-5,3.98
10,-4,3.981
-1,-1,3.982
-4,2,3.983
-3,1,3.984
-2,0,3.985
-4,1,3.986
-1,2,3.987
9,3,3.988
16,2,3.989
13,0,3.99
10,-1,3.991
15,-4,3.992
19,-2,3.993
16,-3,3.994
4,-3,3.995
-5,-3,3.996
-7,-6,3.997
-10,-5,3.998
-14,-4,3.999
-21,-3,4.0
-25,2,4.001
-20,7,4.002
-4,6,4.003
15,1,4.004
25,0,4.005
29,2,4.006
30,3,4.007
33,-1,4.008
33,-5,4.009
26,-4,4.01
16,0,4.011
4,0,4.012
-4,0,4.013
-8,-2,4.014
-7,-4,4.015
-9,-4,4.016
-16,-7,4.017
-19,-7,4.018
-8,-5,4.019
7,-2,4.02
11,4,4.021
2,6,4.022
1,1,4.023
6,-3,4.024
8,-1,4.025
4,1,4.026
0,0,4.027
0,-3,4.028
-2,-3,4.029
-6,0,4.03
-9,1,4.031
-8,-1,4.032
-4,-2,4.033
-1,-3,4.034
4,-1,4.035
8,-1,4.036
7,-3,4.037
6,-4,4.038
12,-3,4.039
16,0,4.04
13,3,4.041
4,5,4.042
-1,4,4.043
-2,3,4.044
-4,3,4.045
-8,0,4.046
-10,-1,4.047
-3,-3,4.048
7,-1,4.049
12,1,4.05
7,1,4.051
-3,0,4.052
-10,0,4.053
-14,-3,4.054
-18,-7,4.055
-22,-8,4.056
-24,-10,4.057
-19,-9,4.058
-5,-8,4.059
2,-2,4.06
-2,4,4.061
-15,5,4.062
-18,-2,4.063
-5,-5,4.064
16,-1,4.065
25,3,4.066
18,1,4.067
14,-3,4.068
25,-5,4.069
41,-3,4.07
44,1,4.071
34,4,4.072
25,6,4.073
17,3,4.074
13,1,4.075
7,2,4.076
4,0,4.077
4,-1,4.078
7,-1,4.079
10,1,4.08
7,8,4.081
-3,12,4.082
-12,12,4.083
-7,9,4.084
0,6,4.085
-2,2,4.086
-7,1,4.087
-5,2,4.088
-2,4,4.089
-3,4,4.09
-8,2,4.091
-6,-1,4.092
0,-2,4.093
-2,-5,4.094
-8,-8,4.095
-11,-9,4.096
-7,-10,4.097
-8,-8,4.098
-10,-5,4.099
-10,-3,4.1
-12,0,4.101
-14,2,4.102
-15,1,4.103
-4,2,4.104
4,4,4.105
8,4,4.106
14,0,4.107
22,-5,4.108
15,-5,4.109
-16,-2,4.11
-47,-2,4.111
-45,-4,4.112
-14,-6,4.113
14,-5,4.114
25,-2,4.115
27,-2,4.116
30,-6,4.117
31,-6,4.118
29,-3,4.119
33,-1,4.12
39,-2,4.121
33,-3,4.122
17,-3,4.123
1,-4,4.124
-14,-7,4.125
-25,-13,4.126
-25,-18,4.127
-7,-15,4.128
10,-9,4.129
1,1,4.13
-20,24,4.131
-17,65,4.132
24,110,4.133
72,131,4.134
84,112,4.135
46,68,4.136
-4,41,4.137
-37,72,4.138
-61,172,4.139
-110,333,4.14
-192,518,4.141
-269,653,4.142
-289,667,4.143
-249,574,4.144
-211,456,4.145
-245,350,4.146
-346,214,4.147
-387,15,4.148
-251,-240,4.149
7,-544,4.15
186,-877,4.151
160,-1115,4.152
24,-1103,4.153
-67,-815,4.154
-11,-455,4.155
169,-247,4.156
359,-181,4.157
439,-43,4.158
397,284,4.159
345,660,4.16
380,807,4.161
439,572,4.162
357,56,4.163
78,-478,4.164
-260,-808,4.165
-458,-868,4.166
-457,-699,4.167
-365,-367,4.168
-274,5,4.169
-132,188,4.17
113,-5,4.171
326,-494,4.172
343,-963,4.173
249,-1252,4.174
309,-1315,4.175
560,-1149,4.176
705,-725,4.177
543,-130,4.178
290,378,4.179
290,606,4.18
569,597,4.181
855,500,4.182
919,397,4.183
771,339,4.184
546,375,4.185
337,463,4.186
138,476,4.187
-96,408,4.188
-357,394,4.189
-569,483,4.19
-678,563,4.191
-718,569,4.192
-745,578,4.193
-796,621,4.194
-941,605,4.195
-1281,478,4.196
-1716,355,4.197
-1870,324,4.198
-1510,303,4.199
-915,216,4.2
-510,138,4.201
-258,136,4.202
177,135,4.203
764,67,4.204
1087,-9,4.205
1032,-22,4.206
946,-12,4.207
1060,-36,4.208
1199,-73,4.209
1183,-75,4.21
1079,-62,4.211
933,-65,4.212
681,-71,4.213
320,-74,4.214
61,-93,4.215
-29,-145,4.216
-104,-201,4.217
-222,-230,4.218
-271,-241,4.219
-243,-245,4.22
-274,-217,4.221
-384,-149,4.222
-477,-69,4.223
-594,-6,4.224
-831,39,4.225
-1054,52,4.226
-1002,20,4.227
-733,-22,4.228
-615,-17,4.229
-791,30,4.23
-946,70,4.231
-740,126,4.232
-253,262,4.233
275,471,4.234
637,593,4.235
845,515,4.236
992,299,4.237
1064,58,4.238
990,-238,4.239
784,-632,4.24
589,-1002,4.241
518,-1154,4.242
512,-1034,4.243
417,-698,4.244
183,-165,4.245
-122,499,4.246
-427,1028,4.247
-671,1173,4.248
-766,1005,4.249
-659,727,4.25
-419,289,4.251
-176,-441,4.252
-8,-1147,4.253
78,-1360,4.254
78,-929,4.255
56,-348,4.256
121,-125,4.257
262,-211,4.258
339,-286,4.259
301,-214,4.26
281,-39,4.261
355,167,4.262
384,250,4.263
236,23,4.264
20,-457,4.265
-73,-827,4.266
-23,-773,4.267
36,-345,4.268
12,154,4.269
-114,489,4.27
-318,619,4.271
-508,548,4.272
-545,263,4.273
-407,-247,4.274
-235,-676,4.275
-170,-643,4.276
-159,-120,4.277
-85,483,4.278
30,766,4.279
62,711,4.28
14,520,4.281
59,293,4.282
276,54,4.283
452,-114,4.284
287,-152,4.285
-207,-131,4.286
-639,-123,4.287
-648,-87,4.288
-300,52,4.289
42,270,4.29
187,469,4.291
301,564,4.292
564,526,4.293
830,377,4.294
799,186,4.295
572,-13,4.296
-241,-201,4.297
-973,-271,4.298
-1458,-143,4.299
-1676,80,4.3
-1088,253,4.301
-414,454,4.302
514,813,4.303
1307,1145,4.304
1692,1117,4.305
1889,743,4.306
1523,314,4.307
1141,-100,4.308
709,-616,4.309
324,-1078,4.31
80,-1180,4.311
-127,-987,4.312
-223,-845,4.313
-300,-786,4.314
-328,-582,4.315
-371,-274,4.316
-396,-190,4.317
-407,-344,4.318
-425,-401,4.319
-406,-250,4.32
-315,-110,4.321
-229,-61,4.322
-258,39,4.323
-371,172,4.324
-424,170,4.325
-350,93,4.326
-201,149,4.327
-39,292,4.328
82,314,4.329
47,246,4.33
-241,295,4.331
-676,429,4.332
-992,442,4.333
-1090,316,4.334
-1036,235,4.335
-925,233,4.336
-704,161,4.337
-299,8,4.338
236,-70,4.339
765,-29,4.34
1189,17,4.341
1434,45,4.342
1434,154,4.343
1194,332,4.344
828,401,4.345
495,280,4.346
334,105,4.347
375,34,4.348
458,32,4.349
354,-26,4.35
55,-148,4.351
-203,-218,4.352
-266,-190,4.353
-248,-143,4.354
-289,-156,4.355
-350,-190,4.356
-345,-161,4.357
-350,-91,4.358
-456,-111,4.359
-576,-300,4.36
-565,-592,4.361
-441,-863,4.362
-297,-1030,4.363
-138,-1057,4.364
67,-912,4.365
258,-587,4.366
357,-155,4.367
373,248,4.368
332,534,4.369
212,717,4.37
20,849,4.371
-168,932,4.372
-335,937,4.373
-585,831,4.374
-857,615,4.375
-909,346,4.376
-615,130,4.377
-152,50,4.378
281,61,4.379
691,43,4.38
1050,-67,4.381
1099,-257,4.382
711,-510,4.383
225,-796,4.384
72,-1010,4.385
239,-1035,4.386
407,-864,4.387
455,-592,4.388
468,-295,4.389
429,-18,4.39
256,207,4.391
40,379,4.392
-64,520,4.393
-108,619,4.394
-219,599,4.395
-353,471,4.396
-399,359,4.397
-440,337,4.398
-618,342,4.399
-804,345,4.4
-739,430,4.401
-443,639,4.402
-174,840,4.403
-22,868,4.404
167,671,4.405
470,294,4.406
693,-190,4.407
623,-669,4.408
311,-982,4.409
23,-1040,4.41
-48,-888,4.411
22,-635,4.412
23,-385,4.413
-110,-194,4.414
-207,-120,4.415
-139,-118,4.416
-55,-73,4.417
-170,36,4.418
-423,90,4.419
-560,55,4.42
-461,93,4.421
-242,304,4.422
-26,508,4.423
171,467,4.424
362,214,4.425
522,-49,4.426
606,-257,4.427
563,-459,4.428
387,-573,4.429
172,-411,4.43
48,42,4.431
7,560,4.432
-68,880,4.433
-235,900,4.434
-382,598,4.435
-415,72,4.436
-380,-471,4.437
-346,-838,4.438
-318,-970,4.439
-284,-904,4.44
-246,-693,4.441
-161,-410,4.442
21,-151,4.443
208,29,4.444
219,141,4.445
22,209,4.446
-188,261,4.447
-222,351,4.448
-67,512,4.449
185,684,4.45
473,771,4.451
741,746,4.452
862,676,4.453
713,580,4.454
312,433,4.455
-121,208,4.456
-334,-73,4.457
-280,-354,4.458
-114,-586,4.459
38,-707,4.46
203,-645,4.461
389,-409,4.462
395,-151,4.463
42,-50,4.464
-470,-123,4.465
-689,-196,4.466
-454,-125,4.467
-56,27,4.468
210,93,4.469
393,10,4.47
598,-116,4.471
679,-177,4.472
507,-195,4.473
200,-249,4.474
20,-315,4.475
-31,-301,4.476
-153,-188,4.477
-403,-60,4.478
-652,38,4.479
-804,152,4.48
-835,282,4.481
-701,332,4.482
-425,253,4.483
-153,122,4.484
19,32,4.485
134,-9,4.486
199,-17,4.487
124,22,4.488
-45,104,4.489
-78,166,4.49
97,173,4.491
275,153,4.492
319,126,4.493
338,88,4.494
386,74,4.495
291,134,4.496
11,236,4.497
-169,308,4.498
-64,342,4.499
78,413,4.5
-33,537,4.501
-284,609,4.502
-418,536,4.503
-443,335,4.504
-462,51,4.505
-384,-321,4.506
-138,-748,4.507
67,-1056,4.508
29,-1075,4.509
-101,-847,4.51
-69,-587,4.511
95,-455,4.512
204,-439,4.513
253,-469,4.514
384,-478,4.515
648,-397,4.516
951,-200,4.517
1147,34,4.518
1106,192,4.519
788,258,4.52
352,327,4.521
49,452,4.522
-78,559,4.523
-234,543,4.524
-537,404,4.525
-840,253,4.526
-942,185,4.527
-825,188,4.528
-577,200,4.529
-247,217,4.53
106,278,4.531
349,357,4.532
387,356,4.533
262,212,4.534
91,-2,4.535
-56,-161,4.536
-135,-219,4.537
-113,-187,4.538
-62,-82,4.539
-150,57,4.54
-418,108,4.541
-635,-58,4.542
-557,-384,4.543
-226,-630,4.544
112,-637,4.545
327,-483,4.546
472,-334,4.547
571,-228,4.548
525,-112,4.549
284,24,4.55
-17,161,4.551
-191,322,4.552
-208,490,4.553
-194,597,4.554
-251,606,4.555
-355,587,4.556
-418,570,4.557
-417,487,4.558
-396,315,4.559
-364,119,4.56
-251,-138,4.561
18,-555,4.562
432,-986,4.563
837,-1095,4.564
975,-827,4.565
684,-494,4.566
122,-279,4.567
-290,-51,4.568
-308,244,4.569
-126,438,4.57
-68,460,4.571
-90,434,4.572
66,387,4.573
432,180,4.574
670,-117,4.575
572,-257,4.576
349,-201,4.577
244,-165,4.578
199,-241,4.579
93,-260,4.58
0,-138,4.581
1,3,4.582
-35,75,4.583
-221,133,4.584
-425,197,4.585
-476,196,4.586
-439,129,4.587
-450,76,4.588
-451,64,4.589
-306,63,4.59
-74,92,4.591
50,182,4.592
17,255,4.593
-55,214,4.594
-64,79,4.595
-32,-44,4.596
-15,-120,4.597
-53,-177,4.598
-182,-187,4.599
-371,-70,4.6
-454,152,4.601
-278,333,4.602
84,334,4.603
435,125,4.604
706,-188,4.605
911,-422,4.606
917,-466,4.607
580,-362,4.608
84,-215,4.609
-174,-46,4.61
-85,151,4.611
73,319,4.612
74,398,4.613
-69,408,4.614
-262,367,4.615
-477,251,4.616
-604,100,4.617
-481,34,4.618
-145,32,4.619
148,-79,4.62
259,-349,4.621
289,-608,4.622
317,-726,4.623
259,-742,4.624
76,-663,4.625
-100,-409,4.626
-162,-45,4.627
-178,211,4.628
-256,281,4.629
-366,287,4.63
-400,297,4.631
-330,257,4.632
-216,190,4.633
-95,184,4.634
37,236,4.635
199,240,4.636
376,185,4.637
491,193,4.638
453,292,4.639
236,363,4.64
-78,293,4.641
-333,85,4.642
-407,-163,4.643
-288,-314,4.644
-61,-295,4.645
195,-210,4.646
425,-226,4.647
532,-342,4.648
421,-388,4.649
159,-271,4.65
-12,-43,4.651
37,229,4.652
153,473,4.653
159,578,4.654
84,456,4.655
40,255,4.656
-81,193,4.657
-500,213,4.658
-1098,86,4.659
-1411,-172,4.66
-1171,-323,4.661
-620,-309,4.662
-98,-307,4.663
385,-371,4.664
931,-353,4.665
1353,-221,4.666
1341,-138,4.667
928,-154,4.668
479,-141,4.669
240,-54,4.67
144,-4,4.671
67,-22,4.672
8,-7,4.673
-13,68,4.674
-32,121,4.675
-85,138,4.676
-170,214,4.677
-268,355,4.678
-355,426,4.679
-383,362,4.68
-312,241,4.681
-184,137,4.682
-90,34,4.683
-80,-84,4.684
-136,-200,4.685
-219,-302,4.686
-296,-381,4.687
-331,-388,4.688
-287,-278,4.689
-165,-110,4.69
-22,1,4.691
69,11,4.692
106,-25,4.693
153,-61,4.694
239,-69,4.695
279,-24,4.696
158,79,4.697
-108,207,4.698
-343,312,4.699
-411,387,4.7
-375,423,4.701
-369,333,4.702
-364,71,4.703
-193,-242,4.704
176,-416,4.705
512,-405,4.706
583,-312,4.707
433,-212,4.708
313,-105,4.709
343,-15,4.71
378,11,4.711
239,13,4.712
-7,65,4.713
-162,152,4.714
-83,184,4.715
122,144,4.716
218,106,4.717
118,102,4.718
-59,81,4.719
-154,38,4.72
-122,20,4.721
-15,32,4.722
95,29,4.723
179,14,4.724
240,27,4.725
289,56,4.726
294,57,4.727
205,31,4.728
65,15,4.729
-14,8,4.73
8,-12,4.731
43,-32,4.732
12,-20,4.733
-72,4,4.734
-152,9,4.735
-216,-8,4.736
-256,-20,4.737
-233,-23,4.738
-156,-31,4.739
-121,-43,4.74
-165,-51,4.741
-199,-65,4.742
-164,-80,4.743
-123,-78,4.744
-140,-53,4.745
-162,-37,4.746
-127,-38,4.747
-75,-33,4.748
-62,-9,4.749
-63,15,4.75
-37,27,4.751
-12,34,4.752
-17,41,4.753
-39,36,4.754
-57,22,4.755
-78,22,4.756
-90,33,4.757
-65,42,4.758
-14,34,4.759
11,21,4.76
0,6,4.761
8,-13,4.762
49,-32,4.763
83,-37,4.764
95,-36,4.765
122,-40,4.766
179,-40,4.767
228,-22,4.768
236,2,4.769
212,14,4.77
172,11,4.771
109,8,4.772
33,10,4.773
-46,5,4.774
-104,-4,4.775
-141,-6,4.776
-157,0,4.777
-149,11,4.778
-124,40,4.779
-87,88,4.78
-38,132,4.781
7,125,4.782
12,64,4.783
-26,-7,4.784
-13,-50,4.785
147,-75,4.786
410,-94,4.787
597,-98,4.788
583,-72,4.789
410,-35,4.79
201,-20,4.791
23,-35,4.792
-115,-59,4.793
-225,-79,4.794
-279,-88,4.795
-274,-83,4.796
-239,-64,4.797
-202,-35,4.798
-163,-8,4.799
-109,11,4.8
-41,26,4.801
22,25,4.802
64,4,4.803
96,-21,4.804
139,-25,4.805
174,-6,4.806
150,16,4.807
57,30,4.808
-40,40,4.809
-81,53,4.81
-80,59,4.811
-87,51,4.812
-113,45,4.813
-127,48,4.814
-115,55,4.815
-102,53,4.816
-106,43,4.817
-105,34,4.818
-81,32,4.819
-51,30,4.82
-44,28,4.821
-54,27,4.822
-54,26,4.823
-33,18,4.824
-7,9,4.825
14,9,4.826
30,11,4.827
40,0,4.828
34,-22,4.829
21,-37,4.83
14,-29,4.831
20,-9,4.832
26,1,4.833
22,-14,4.834
13,-45,4.835
8,-63,4.836
10,-60,4.837
15,-41,4.838
23,-25,4.839
27,-18,4.84
23,-9,4.841
9,-5,4.842
-6,-12,4.843
-13,-24,4.844
-16,-18,4.845
-11,1,4.846
8,10,4.847
33,3,4.848
53,0,4.849
55,10,4.85
45,13,4.851
32,5,4.852
23,2,4.853
19,7,4.854
33,9,4.855
57,5,4.856
73,0,4.857
70,3,4.858
61,4,4.859
58,2,4.86
47,3,4.861
14,8,4.862
-23,6,4.863
-36,0,4.864
-27,-1,4.865
-14,2,4.866
-3,2,4.867
11,0,4.868
30,0,4.869
50,3,4.87
58,4,4.871
43,3,4.872
12,6,4.873
-22,14,4.874
-36,35,4.875
-30,85,4.876
-23,162,4.877
-28,238,4.878
-29,266,4.879
-23,221,4.88
-21,124,4.881
-28,6,4.882
-30,-105,4.883
-22,-186,4.884
-16,-212,4.885
-21,-187,4.886
-25,-144,4.887
-16,-109,4.888
-1,-84,4.889
11,-75,4.89
18,-100,4.891
22,-163,4.892
19,-224,4.893
6,-253,4.894
-4,-243,4.895
-8,-215,4.896
-12,-176,4.897
-16,-105,4.898
-11,15,4.899
-1,196,4.9
3,412,4.901
0,572,4.902
-2,579,4.903
2,440,4.904
3,257,4.905
0,88,4.906
-3,-111,4.907
-2,-352,4.908
-3,-525,4.909
-7,-531,4.91
-5,-411,4.911
-1,-272,4.912
3,-164,4.913
2,-75,4.914
4,-13,4.915
8,33,4.916
11,33,4.917
13,41,4.918
18,74,4.919
24,98,4.92
25,96,4.921
17,97,4.922
12,105,4.923
13,117,4.924
15,137,4.925
13,156,4.926
9,168,4.927
9,168,4.928
11,134,4.929
11,98,4.93
6,57,4.931
2,16,4.932
1,-21,4.933
0,-53,4.934
-2,-53,4.935
-5,-43,4.936
-6,-38,4.937
-5,-28,4.938
7,-10,4.939
17,10,4.94
21,22,4.941
23,24,4.942
19,23,4.943
14,18,4.944
10,13,4.945
4,11,4.946
-1,11,4.947
-7,9,4.948
-8,3,4.949
-9,-4,4.95
-9,-5,4.951
-8,-6,4.952
-7,-8,4.953
-4,-11,4.954
-3,-13,4.955
-9,-13,4.956
-16,-18,4.957
-19,-20,4.958
-13,-19,4.959
-3,-15,4.96
0,-13,4.961
-3,-13,4.962
-6,-12,4.963
-3,-11,4.964
0,-11,4.965
0,-10,4.966
-1,-10,4.967
1,-13,4.968
4,-13,4.969
3,-11,4.97
1,-9,4.971
1,-10,4.972
3,-11,4.973
0,-12,4.974
-3,-10,4.975
-6,-10,4.976
-7,-12,4.977
-5,-10,4.978
1,-7,4.979
9,-3,4.98
14,-2,4.981
11,-1,4.982
11,0,4.983
15,-3,4.984
16,-5,4.985
12,-4,4.986
8,0,4.987
6,0,4.988
5,-3,4.989
1,-4,4.99
0,-3,4.991
0,-3,4.992
2,-2,4.993
0,-3,4.994
0,-2,4.995
0,-3,4.996
-2,-6,4.997
-5,-5,4.998
-1,-3,4.999
6,-1,5.0
5,1,5.001
-2,3,5.002
-5,5,5.003
-1,3,5.004
3,-1,5.005
3,-3,5.006
5,-4,5.007
12,-3,5.008
11,-4,5.009
5,-4,5.01
-1,-2,5.011
0,0,5.012
2,1,5.013
-1,0,5.014
-1,-2,5.015
-1,-2,5.016
-2,-1,5.017
-5,0,5.018
-2,0,5.019
5,-2,5.02
8,0,5.021
4,5,5.022
0,5,5.023
-1,1,5.024
-3,0,5.025
-6,2,5.026
-8,5,5.027
-12,3,5.028
-16,1,5.029
-16,2,5.03
-8,3,5.031
0,0,5.032
8,0,5.033
15,1,5.034
26,1,5.035
31,-1,5.036
24,-6,5.037
15,-6,5.038
17,-1,5.039
22,3,5.04
19,3,5.041
12,5,5.042
16,5,5.043
24,2,5.044
24,-2,5.045
14,-1,5.046
4,2,5.047
-2,2,5.048
-10,0,5.049
-15,-2,5.05
-9,0,5.051
-4,1,5.052
-8,0,5.053
-18,-4,5.054
-20,-4,5.055
-19,-2,5.056
-23,-4,5.057
-25,-3,5.058
-13,-2,5.059
2,0,5.06
3,0,5.061
-6,2,5.062
-4,3,5.063
9,2,5.064
12,0,5.065
-4,0,5.066
-23,3,5.067
-38,4,5.068
-48,1,5.069
-41,-3,5.07
-13,-2,5.071
17,1,5.072
29,2,5.073
27,-3,5.074
33,-7,5.075
42,-7,5.076
38,-8,5.077
25,-9,5.078
24,-9,5.079
36,-5,5.08
45,3,5.081
45,9,5.082
43,10,5.083
38,7,5.084
23,4,5.085
10,2,5.086
8,1,5.087
9,0,5.088
3,0,5.089
-2,1,5.09
5,1,5.091
15,-1,5.092
11,-1,5.093
-8,1,5.094
-29,1,5.095
-43,-1,5.096
-49,-8,5.097
-46,-9,5.098
-34,-5,5.099
-20,-2,5.1
-16,0,5.101
-18,-1,5.102
-19,-4,5.103
-16,-3,5.104
-9,0,5.105
-2,4,5.106
8,1,5.107
17,-3,5.108
20,-5,5.109
19,-3,5.11
17,-3,5.111
17,-3,5.112
15,-2,5.113
7,-3,5.114
2,-4,5.115
0,-5,5.116
0,-8,5.117
1,-8,5.118
4,-6,5.119
8,-3,5.12
10,3,5.121
8,5,5.122
5,3,5.123
4,0,5.124
2,1,5.125
1,3,5.126
3,4,5.127
8,2,5.128
11,0,5.129
7,-1,5.13
0,-1,5.131
-3,0,5.132
-2,1,5.133
-1,0,5.134
-2,-2,5.135
-3,-5,5.136
-5,-7,5.137
-2,-5,5.138
4,-1,5.139
11,2,5.14
12,3,5.141
9,4,5.142
1,2,5.143
-3,0,5.144
-8,0,5.145
-13,1,5.146
-12,2,5.147
-7,2,5.148
-1,1,5.149
0,1,5.15
2,0,5.151
5,0,5.152
5,1,5.153
0,0,5.154
-6,-3,5.155
-9,-6,5.156
-5,-9,5.157
4,-7,5.158
20,-4,5.159
38,-2,5.16
49,0,5.161
47,2,5.162
40,1,5.163
39,-2,5.164
35,-4,5.165
20,0,5.166
3,4,5.167
0,5,5.168
5,3,5.169
3,2,5.17
-7,-1,5.171
-10,-2,5.172
-4,0,5.173
-6,3,5.174
-16,5,5.175
-22,8,5.176
-19,9,5.177
-14,10,5.178
-12,5,5.179
-8,-2,5.18
-3,-5,5.181
-3,-5,5.182
-7,-8,5.183
-6,-15,5.184
1,-15,5.185
2,-10,5.186
-6,-7,5.187
-13,-8,5.188
-11,-7,5.189
-6,-4,5.19
-6,-3,5.191
-9,-3,5.192
-6,-2,5.193
-5,0,5.194
-5,0,5.195
-8,0,5.196
-8,-1,5.197
-5,2,5.198
0,4,5.199
12,2,5.2
19,4,5.201
18,8,5.202
14,8,5.203
14,3,5.204
15,4,5.205
12,8,5.206
5,7,5.207
1,1,5.208
-1,-3,5.209
-7,-3,5.21
-12,-2,5.211
-10,-1,5.212
-3,0,5.213
-3,0,5.214
-4,-2,5.215
-5,-3,5.216
-4,-4,5.217
-3,-5,5.218
3,-6,5.219
13,-1,5.22
15,6,5.221
8,8,5.222
2,2,5.223
6,-4,5.224
10,-2,5.225
4,1,5.226
-1,0,5.227
0,-4,5.228
4,-4,5.229
0,0,5.23
-1,0,5.231
4,0,5.232
13,2,5.233
11,2,5.234
6,-2,5.235
6,-6,5.236
11,-7,5.237
15,-1,5.238
19,1,5.239
23,-2,5.24
22,-3,5.241
13,1,5.242
3,5,5.243
1,2,5.244
3,-2,5.245
2,-2,5.246
0,0,5.247
-1,1,5.248
-2,0,5.249
-2,0,5.25
-3,0,5.251
-2,0,5.252
-2,-2,5.253
-3,-4,5.254
-3,-6,5.255
-2,-6,5.256
-2,-9,5.257
-3,-7,5.258
0,-3,5.259
4,1,5.26
4,4,5.261
0,4,5.262
-6,1,5.263
-6,0,5.264
-4,1,5.265
-5,3,5.266
-6,3,5.267
-5,0,5.268
-2,-1,5.269
-1,-2,5.27
-1,-2,5.271
2,-2,5.272
9,0,5.273
13,1,5.274
10,0,5.275
3,-2,5.276
0,-5,5.277
2,-3,5.278
6,0,5.279
11,2,5.28
15,2,5.281
13,3,5.282
9,0,5.283
7,-2,5.284
6,-2,5.285
4,1,5.286
1,3,5.287
1,1,5.288
3,1,5.289
1,0,5.29
-1,0,5.291
0,0,5.292
4,2,5.293
3,0,5.294
-2,-1,5.295
-9,-3,5.296
-12,-6,5.297
-12,-6,5.298
-6,-4,5.299
2,3,5.3
6,8,5.301
4,7,5.302
0,3,5.303
2,1,5.304
4,1,5.305
1,-2,5.306
-2,-6,5.307
0,-5,5.308
2,-2,5.309
-1,-2,5.31
-5,-5,5.311
-4,-5,5.312
1,-1,5.313
1,-2,5.314
-2,-4,5.315
-4,-3,5.316
-4,-4,5.317
-2,-4,5.318
2,-6,5.319
12,-2,5.32
17,6,5.321
15,8,5.322
11,2,5.323
12,-2,5.324
15,1,5.325
14,6,5.326
8,2,5.327
8,-5,5.328
9,-4,5.329
7,1,5.33
3,2,5.331
4,-3,5.332
7,-5,5.333
5,-2,5.334
2,0,5.335
0,-2,5.336
-3,-8,5.337
-5,-5,5.338
-3,-1,5.339
3,-1,5.34
6,-1,5.341
2,1,5.342
0,3,5.343
0,4,5.344
-1,6,5.345
-5,8,5.346
-6,6,5.347
-3,2,5.348
-4,1,5.349
-9,4,5.35
-10,4,5.351
-5,0,5.352
0,0,5.353
-2,0,5.354
-2,0,5.355
3,-3,5.356
10,-7,5.357
13,-6,5.358
15,-7,5.359
15,-7,5.36
9,-2,5.361
0,5,5.362
-1,4,5.363
3,-2,5.364
6,-2,5.365
3,2,5.366
0,3,5.367
1,-1,5.368
1,-4,5.369
0,-1,5.37
0,1,5.371
5,-1,5.372
7,-2,5.373
7,-3,5.374
6,0,5.375
2,-1,5.376
-3,-6,5.377
-5,-6,5.378
0,-5,5.379
7,0,5.38
7,4,5.381
5,6,5.382
7,5,5.383
10,5,5.384
6,5,5.385
-2,4,5.386
-4,0,5.387
1,-7,5.388
3,-9,5.389
1,-6,5.39
-1,-4,5.391
1,-2,5.392
4,1,5.393
2,2,5.394
-2,2,5.395
-5,3,5.396
-5,2,5.397
-1,2,5.398
6,1,5.399
13,0,5.4
13,1,5.401
9,1,5.402
7,-6,5.403
9,-13,5.404
11,-13,5.405
7,-5,5.406
0,0,5.407
-4,0,5.408
-1,-4,5.409
0,-4,5.41
0,-1,5.411
0,2,5.412
1,6,5.413
2,6,5.414
0,4,5.415
-5,1,5.416
-6,-2,5.417
-4,-3,5.418
2,-4,5.419
8,-3,5.42
11,3,5.421
6,7,5.422
1,3,5.423
0,-6,5.424
2,-9,5.425
0,-8,5.426
-3,-3,5.427
-3,0,5.428
1,0,5.429
1,2,5.43
-3,1,5.431
-5,0,5.432
-4,2,5.433
-4,4,5.434
-4,4,5.435
-5,0,5.436
-3,-4,5.437
-1,-2,5.438
2,0,5.439
6,0,5.44
11,-1,5.441
15,3,5.442
14,5,5.443
12,0,5.444
10,-5,5.445
8,-5,5.446
6,-1,5.447
5,-2,5.448
5,-5,5.449
4,-4,5.45
6,1,5.451
8,1,5.452
8,0,5.453
9,-2,5.454
7,0,5.455
2,0,5.456
-4,-4,5.457
-11,-4,5.458
-8,-1,5.459
3,0,5.46
8,2,5.461
0,7,5.462
-7,9,5.463
-7,1,5.464
-2,-9,5.465
0,-11,5.466
-2,-7,5.467
-2,-4,5.468
-4,-6,5.469
-11,-7,5.47
-20,-3,5.471
-25,1,5.472
-27,4,5.473
-34,7,5.474
-33,11,5.475
-16,12,5.476
13,10,5.477
39,10,5.478
55,9,5.479
57,7,5.48
36,6,5.481
-9,4,5.482
-54,0,5.483
-73,-6,5.484
-72,-8,5.485
-73,-5,5.486
-84,-3,5.487
-85,-5,5.488
-64,-8,5.489
-24,-8,5.49
27,-6,5.491
81,-6,5.492
119,-5,5.493
129,-7,5.494
127,-11,5.495
154,-13,5.496
220,-12,5.497
269,-7,5.498
239,-3,5.499
149,1,5.5
72,9,5.501
40,14,5.502
18,12,5.503
-23,6,5.504
-68,3,5.505
-89,-1,5.506
-93,-6,5.507
-104,-11,5.508
-139,-6,5.509
-197,2,5.51
-260,10,5.511
-278,9,5.512
-221,9,5.513
-105,5,5.514
-14,0,5.515
12,-4,5.516
5,-7,5.517
33,-5,5.518
111,-2,5.519
204,0,5.52
261,2,5.521
252,4,5.522
190,3,5.523
117,-1,5.524
71,-2,5.525
41,0,5.526
2,0,5.527
-40,-2,5.528
-68,-4,5.529
-79,0,5.53
-87,4,5.531
-90,3,5.532
-81,2,5.533
-63,-1,5.534
-47,-4,5.535
-43,-8,5.536
-43,-10,5.537
-48,-8,5.538
-53,-3,5.539
-49,4,5.54
-42,9,5.541
-37,11,5.542
-35,8,5.543
-30,2,5.544
-23,-1,5.545
-18,-2,5.546
-9,-3,5.547
2,-3,5.548
5,-2,5.549
-13,2,5.55
-42,1,5.551
-56,-4,5.552
-47,-5,5.553
-30,-2,5.554
-17,2,5.555
-5,1,5.556
16,-7,5.557
48,-10,5.558
77,-6,5.559
92,0,5.56
87,1,5.561
65,-3,5.562
38,-7,5.563
19,-6,5.564
12,-3,5.565
11,-1,5.566
12,0,5.567
14,-2,5.568
14,0,5.569
7,0,5.57
-1,-1,5.571
4,-2,5.572
22,0,5.573
43,1,5.574
49,0,5.575
44,-2,5.576
40,-5,5.577
42,-4,5.578
41,-3,5.579
32,-1,5.58
22,4,5.581
12,8,5.582
1,7,5.583
-9,5,5.584
-13,4,5.585
-12,5,5.586
-13,3,5.587
-15,2,5.588
-15,4,5.589
-13,4,5.59
-9,2,5.591
-5,0,5.592
-2,0,5.593
-8,2,5.594
-20,1,5.595
-27,-1,5.596
-20,-6,5.597
-6,-7,5.598
2,-5,5.599
4,-1,5.6
8,0,5.601
14,0,5.602
14,-3,5.603
6,-2,5.604
-1,1,5.605
-3,6,5.606
-2,7,5.607
1,5,5.608
3,2,5.609
1,1,5.61
-4,1,5.611
-9,1,5.612
-8,0,5.613
-4,-2,5.614
2,-1,5.615
4,-3,5.616
3,-8,5.617
-1,-13,5.618
-1,-11,5.619
2,-6,5.62
2,0,5.621
-5,3,5.622
-12,3,5.623
-4,0,5.624
13,-1,5.625
23,-2,5.626
21,-3,5.627
16,-1,5.628
13,0,5.629
16,2,5.63
15,1,5.631
6,0,5.632
-2,2,5.633
-2,-2,5.634
0,0,5.635
-3,0,5.636
-10,-6,5.637
-10,-10,5.638
0,-5,5.639
6,0,5.64
2,2,5.641
-5,6,5.642
-6,6,5.643
0,5,5.644
6,1,5.645
10,-2,5.646
11,-2,5.647
6,-1,5.648
-1,0,5.649
-2,2,5.65
8,0,5.651
17,-1,5.652
19,-2,5.653
10,-2,5.654
5,0,5.655
1,0,5.656
0,-5,5.657
0,-8,5.658
4,-4,5.659
12,0,5.66
26,2,5.661
40,5,5.662
43,5,5.663
45,4,5.664
40,1,5.665
34,-2,5.666
25,-2,5.667
17,-1,5.668
13,0,5.669
10,2,5.67
8,0,5.671
7,-1,5.672
8,-2,5.673
-9,-3,5.674
-27,-5,5.675
-43,-5,5.676
-48,-3,5.677
-48,1,5.678
-32,1,5.679
-4,-1,5.68
53,1,5.681
101,5,5.682
115,3,5.683
121,-3,5.684
103,-5,5.685
81,-6,5.686
47,-8,5.687
18,-6,5.688
2,-2,5.689
-12,2,5.69
-18,-1,5.691
-22,-5,5.692
-19,2,5.693
-18,8,5.694
-31,6,5.695
-40,-2,5.696
-39,-7,5.697
-40,-4,5.698
-40,-2,5.699
-33,-2,5.7
-24,3,5.701
-22,10,5.702
-17,10,5.703
0,3,5.704
20,0,5.705
31,4,5.706
35,4,5.707
35,-2,5.708
30,-8,5.709
23,-7,5.71
19,-2,5.711
11,0,5.712
-9,3,5.713
-38,3,5.714
-51,3,5.715
-39,-1,5.716
-18,-8,5.717
-5,-11,5.718
-3,-9,5.719
-9,-6,5.72
-19,-1,5.721
-26,1,5.722
-24,-1,5.723
-19,-4,5.724
-15,-2,5.725
-12,3,5.726
-2,4,5.727
6,0,5.728
7,-1,5.729
8,0,5.73
17,1,5.731
24,0,5.732
26,-1,5.733
25,-2,5.734
27,-4,5.735
25,-6,5.736
19,-8,5.737
15,-4,5.738
18,0,5.739
19,1,5.74
10,3,5.741
0,5,5.742
0,3,5.743
1,-1,5.744
2,-2,5.745
1,-2,5.746
3,0,5.747
3,1,5.748
2,3,5.749
3,2,5.75
7,0,5.751
8,-1,5.752
5,0,5.753
4,1,5.754
5,0,5.755
0,0,5.756
-9,-1,5.757
-13,-1,5.758
-8,-2,5.759
0,1,5.76
0,8,5.761
-2,11,5.762
1,6,5.763
13,-1,5.764
16,0,5.765
8,4,5.766
-3,3,5.767
-9,-1,5.768
-4,-2,5.769
0,0,5.77
-11,0,5.771
-40,-2,5.772
-63,-4,5.773
-59,-7,5.774
-26,-8,5.775
10,-8,5.776
36,-9,5.777
53,-7,5.778
68,-5,5.779
78,0,5.78
74,4,5.781
61,7,5.782
46,6,5.783
44,1,5.784
47,-3,5.785
35,-2,5.786
4,0,5.787
-24,0,5.788
-28,-2,5.789
-21,-4,5.79
-23,-3,5.791
-36,-1,5.792
-36,5,5.793
-29,6,5.794
-34,5,5.795
-49,0,5.796
-50,-6,5.797
-32,-2,5.798
-9,3,5.799
8,3,5.8
24,0,5.801
37,0,5.802
37,3,5.803
23,2,5.804
7,0,5.805
0,3,5.806
0,9,5.807
2,10,5.808
1,1,5.809
-10,-7,5.81
-27,-7,5.811
-39,-3,5.812
-30,0,5.813
-9,-2,5.814
11,-2,5.815
19,0,5.816
22,2,5.817
22,0,5.818
15,-4,5.819
4,-4,5.82
1,1,5.821
6,5,5.822
10,0,5.823
12,-11,5.824
19,-18,5.825
35,-15,5.826
50,-11,5.827
52,-9,5.828
41,-8,5.829
21,-4,5.83
4,-2,5.831
-6,-3,5.832
-9,0,5.833
-15,5,5.834
-28,5,5.835
-47,-1,5.836
-60,-7,5.837
-60,-1,5.838
-42,2,5.839
-13,1,5.84
15,1,5.841
30,6,5.842
32,9,5.843
36,3,5.844
44,-3,5.845
44,-3,5.846
29,0,5.847
6,1,5.848
-8,3,5.849
-7,7,5.85
2,8,5.851
13,3,5.852
17,1,5.853
8,0,5.854
-10,0,5.855
-35,-3,5.856
-55,-8,5.857
-60,-8,5.858
-51,-5,5.859
-36,-2,5.86
-20,2,5.861
-8,4,5.862
0,2,5.863
-7,-2,5.864
-24,-3,5.865
-34,0,5.866
-23,-1,5.867
-1,-8,5.868
22,-11,5.869
40,-9,5.87
57,-3,5.871
67,0,5.872
66,4,5.873
52,8,5.874
36,10,5.875
25,9,5.876
22,2,5.877
18,-2,5.878
10,1,5.879
-2,6,5.88
-8,10,5.881
-11,9,5.882
-14,3,5.883
-18,-1,5.884
-22,-3,5.885
-29,-3,5.886
-39,-4,5.887
-41,-7,5.888
-24,-9,5.889
7,-11,5.89
32,-10,5.891
48,-5,5.892
60,2,5.893
78,-2,5.894
89,-1,5.895
80,0,5.896
53,0,5.897
24,0,5.898
5,-1,5.899
-4,-2,5.9
-16,-2,5.901
-34,-2,5.902
-53,-2,5.903
-59,-1,5.904
-51,-2,5.905
-39,-4,5.906
-31,-3,5.907
-22,-2,5.908
-10,-2,5.909
2,-2,5.91
12,1,5.911
21,4,5.912
30,2,5.913
-8,-2,5.914
-11,-1,5.915
-12,0,5.916
-8,0,5.917
-3,0,5.918
4,-1,5.919
6,-2,5.92
-16,-2,5.921
-33,-2,5.922
-37,-2,5.923
-33,-1,5.924
-1,-2,5.925
23,-4,5.926
29,-3,5.927
36,-2,5.928
44,-2,5.929
49,-2,5.93
36,1,5.931
22,4,5.932
2,2,5.933
-14,0,5.934
-17,-4,5.935
-19,-5,5.936
-14,-10,5.937
-7,-9,5.938
5,-6,5.939
7,3,5.94
-24,12,5.941
-49,12,5.942
-54,7,5.943
-48,5,5.944
-4,8,5.945
31,6,5.946
39,-1,5.947
49,-6,5.948
61,-3,5.949
67,0,5.95
50,-1,5.951
30,-4,5.952
1,-3,5.953
-22,0,5.954
-24,0,5.955
-22,-2,5.956
-27,-8,5.957
-33,-7,5.958
-24,-3,5.959
-1,0,5.96
18,2,5.961
24,1,5.962
28,-2,5.963
42,-3,5.964
55,-2,5.965
55,-1,5.966
42,-2,5.967
18,-3,5.968
-7,-3,5.969
-21,0,5.97
-26,1,5.971
-31,5,5.972
-38,7,5.973
-45,4,5.974
-43,1,5.975
-36,-1,5.976
-27,-2,5.977
-18,-4,5.978
-9,-4,5.979
-13,-3,5.98
-35,1,5.981
-57,3,5.982
-57,1,5.983
-29,0,5.984
7,0,5.985
35,1,5.986
54,4,5.987
75,7,5.988
100,7,5.989
111,7,5.99
83,1,5.991
28,-3,5.992
-12,-5,5.993
-10,-7,5.994
15,-2,5.995
33,-1,5.996
23,-6,5.997
15,-9,5.998
13,-10,5.999
7,-7,6.0
-10,-3,6.001
-29,4,6.002
-52,7,6.003
-73,3,6.004
-85,-2,6.005
-85,-2,6.006
-46,2,6.007
-4,6,6.008
41,11,6.009
75,13,6.01
72,8,6.011
54,-2,6.012
-7,-7,6.013
-62,-9,6.014
-65,-8,6.015
-27,-5,6.016
5,-1,6.017
17,6,6.018
30,9,6.019
51,12,6.02
44,14,6.021
-27,13,6.022
-124,7,6.023
-157,-3,6.024
-94,-8,6.025
-2,-11,6.026
38,-14,6.027
35,-14,6.028
53,-9,6.029
109,-8,6.03
145,-8,6.031
114,-7,6.032
47,-2,6.033
-12,-1,6.034
-30,-5,6.035
-9,-7,6.036
41,-4,6.037
89,-2,6.038
110,-1,6.039
104,0,6.04
103,1,6.041
116,2,6.042
106,0,6.043
45,0,6.044
-34,1,6.045
-80,4,6.046
-79,2,6.047
-64,0,6.048
-65,-1,6.049
-77,-3,6.05
-86,-4,6.051
-98,-5,6.052
-124,-3,6.053
-143,-1,6.054
-115,0,6.055
-77,0,6.056
-11,0,6.057
39,10,6.058
41,21,6.059
47,23,6.06
59,15,6.061
59,8,6.062
25,3,6.063
-3,-1,6.064
-13,-2,6.065
-26,-1,6.066
-48,3,6.067
-63,5,6.068
-57,4,6.069
-56,4,6.07
-71,5,6.071
-74,5,6.072
-39,0,6.073
8,-6,6.074
88,-8,6.075
142,-9,6.076
173,-15,6.077
191,-16,6.078
190,-12,6.079
133,-7,6.08
-13,-7,6.081
-206,-8,6.082
-316,-4,6.083
-240,-2,6.084
-32,-3,6.085
150,-5,6.086
237,-2,6.087
293,2,6.088
356,3,6.089
349,-1,6.09
216,-1,6.091
38,4,6.092
-56,6,6.093
-67,-1,6.094
-65,-8,6.095
-94,-7,6.096
-121,-2,6.097
-111,4,6.098
-77,1,6.099
-55,-3,6.1
-60,1,6.101
-75,11,6.102
-80,13,6.103
-70,5,6.104
-60,-3,6.105
-66,-3,6.106
-86,0,6.107
-99,-4,6.108
-94,-10,6.109
-75,-8,6.11
-54,-4,6.111
-43,-3,6.112
-37,-4,6.113
-29,-4,6.114
-14,-1,6.115
-3,-2,6.116
-2,-8,6.117
1,-8,6.118
16,0,6.119
33,7,6.12
34,8,6.121
23,6,6.122
21,7,6.123
34,11,6.124
40,20,6.125
35,28,6.126
29,21,6.127
31,-2,6.128
31,-28,6.129
25,-41,6.13
20,-38,6.131
25,-32,6.132
33,-22,6.133
30,-8,6.134
25,5,6.135
27,7,6.136
44,-1,6.137
63,-2,6.138
66,6,6.139
38,18,6.14
-8,34,6.141
-42,55,6.142
-47,78,6.143
-32,97,6.144
-23,106,6.145
-21,94,6.146
-14,56,6.147
-1,16,6.148
14,2,6.149
23,11,6.15
33,1,6.151
36,-52,6.152
30,-119,6.153
14,-177,6.154
6,-214,6.155
12,-227,6.156
21,-207,6.157
16,-140,6.158
0,-56,6.159
-7,0,6.16
6,19,6.161
22,30,6.162
19,50,6.163
-9,70,6.164
-39,79,6.165
-58,82,6.166
-69,81,6.167
-80,66,6.168
-76,42,6.169
-34,29,6.17
32,32,6.171
84,35,6.172
91,33,6.173
70,27,6.174
51,22,6.175
30,15,6.176
-8,4,6.177
-55,0,6.178
-83,4,6.179
-83,13,6.18
-78,18,6.181
-64,18,6.182
-19,13,6.183
57,7,6.184
130,0,6.185
162,0,6.186
140,4,6.187
80,9,6.188
25,9,6.189
12,2,6.19
32,-8,6.191
37,-19,6.192
2,-27,6.193
-48,-31,6.194
-70,-29,6.195
-54,-23,6.196
-17,-15,6.197
33,-1,6.198
86,16,6.199
117,25,6.2
96,27,6.201
20,20,6.202
-73,13,6.203
-136,7,6.204
-148,2,6.205
-118,-2,6.206
-76,-4,6.207
-46,-8,6.208
-33,-9,6.209
-24,-12,6.21
0,-15,6.211
42,-14,6.212
79,-9,6.213
84,-7,6.214
55,-6,6.215
22,-10,6.216
8,-13,6.217
3,-11,6.218
-8,-8,6.219
-15,-2,6.22
0,3,6.221
15,8,6.222
5,5,6.223
-9,-3,6.224
1,-8,6.225
23,-10,6.226
17,-8,6.227
-7,-7,6.228
-12,-5,6.229
1,-2,6.23
2,-3,6.231
-12,-4,6.232
-12,0,6.233
1,2,6.234
3,1,6.235
-13,-5,6.236
-20,-8,6.237
-12,1,6.238
-4,12,6.239
-6,12,6.24
-3,3,6.241
0,-4,6.242
-7,-1,6.243
-17,3,6.244
-18,5,6.245
-18,3,6.246
-31,2,6.247
-49,1,6.248
-51,0,6.249
-34,0,6.25
-10,0,6.251
24,-3,6.252
65,-2,6.253
94,-2,6.254
91,-3,6.255
63,-6,6.256
41,-9,6.257
36,-3,6.258
36,3,6.259
33,4,6.26
30,3,6.261
33,8,6.262
31,21,6.263
16,32,6.264
-3,32,6.265
-12,21,6.266
-13,0,6.267
-17,-26,6.268
-24,-44,6.269
-22,-48,6.27
-11,-45,6.271
0,-36,6.272
6,-23,6.273
15,-9,6.274
16,-2,6.275
-8,3,6.276
-45,8,6.277
-59,19,6.278
-41,23,6.279
-21,15,6.28
-23,5,6.281
-27,1,6.282
-15,0,6.283
3,-3,6.284
9,1,6.285
3,12,6.286
0,21,6.287
7,19,6.288
18,13,6.289
33,9,6.29
56,4,6.291
70,-2,6.292
56,-7,6.293
8,-12,6.294
-41,-16,6.295
-72,-16,6.296
-84,-12,6.297
-93,-5,6.298
-96,5,6.299
-71,13,6.3
-23,19,6.301
12,17,6.302
10,11,6.303
-10,6,6.304
-9,5,6.305
16,2,6.306
35,-6,6.307
31,-12,6.308
13,-13,6.309
-1,-12,6.31
-6,-12,6.311
5,-10,6.312
31,-6,6.313
59,-3,6.314
76,-4,6.315
88,-6,6.316
116,-8,6.317
141,-7,6.318
132,-2,6.319
90,3,6.32
56,7,6.321
40,6,6.322
27,0,6.323
20,-4,6.324
32,-4,6.325
37,-1,6.326
-8,1,6.327
-69,2,6.328
-74,0,6.329
-30,-1,6.33
-8,-1,6.331
-34,1,6.332
-53,5,6.333
-44,5,6.334
-39,3,6.335
-53,0,6.336
-56,-6,6.337
-41,-7,6.338
-35,-3,6.339
-46,1,6.34
-43,4,6.341
-21,5,6.342
-6,3,6.343
-5,0,6.344
-1,0,6.345
7,2,6.346
2,2,6.347
-7,-1,6.348
-2,-3,6.349
9,-3,6.35
9,-4,6.351
6,-9,6.352
19,-11,6.353
36,-7,6.354
38,3,6.355
16,11,6.356
-6,12,6.357
-17,10,6.358
-21,4,6.359
-23,-3,6.36
-29,-7,6.361
-34,-6,6.362
-30,-6,6.363
-17,-3,6.364
-2,7,6.365
6,20,6.366
4,22,6.367
10,12,6.368
22,3,6.369
31,5,6.37
32,7,6.371
37,-2,6.372
47,-15,6.373
44,-18,6.374
15,-12,6.375
-25,-8,6.376
-51,-14,6.377
-65,-18,6.378
-87,-10,6.379
-118,4,6.38
-126,16,6.381
-81,15,6.382
-5,9,6.383
68,6,6.384
131,13,6.385
188,28,6.386
222,29,6.387
199,11,6.388
122,-12,6.389
55,-28,6.39
52,-36,6.391
100,-39,6.392
131,-35,6.393
105,-24,6.394
28,-10,6.395
-51,-3,6.396
-95,-3,6.397
-110,-1,6.398
-120,2,6.399
-133,5,6.4
-132,8,6.401
-98,8,6.402
-49,4,6.403
-22,-1,6.404
-18,-4,6.405
-12,1,6.406
-3,7,6.407
-5,7,6.408
-11,3,6.409
-3,0,6.41
15,0,6.411
16,1,6.412
-1,5,6.413
-11,9,6.414
-6,14,6.415
-8,16,6.416
-22,9,6.417
-25,1,6.418
-8,-4,6.419
11,-9,6.42
14,-7,6.421
12,-6,6.422
17,-6,6.423
22,-6,6.424
21,-2,6.425
22,1,6.426
34,4,6.427
43,7,6.428
37,11,6.429
31,13,6.43
37,9,6.431
41,6,6.432
22,5,6.433
-17,3,6.434
-38,0,6.435
-54,-5,6.436
-51,-5,6.437
-45,-5,6.438
-34,-6,6.439
-22,-6,6.44
-11,1,6.441
-3,8,6.442
-10,3,6.443
-11,-6,6.444
7,-6,6.445
30,1,6.446
64,3,6.447
78,-2,6.448
31,-7,6.449
-8,-5,6.45
-21,-3,6.451
-28,-3,6.452
-13,-3,6.453
-2,-4,6.454
1,-6,6.455
18,-10,6.456
24,-13,6.457
2,-11,6.458
-19,-11,6.459
-11,-12,6.46
7,-7,6.461
1,2,6.462
-11,6,6.463
0,5,6.464
22,6,6.465
23,13,6.466
7,15,6.467
6,9,6.468
20,1,6.469
20,-3,6.47
5,-8,6.471
0,-13,6.472
13,-11,6.473
19,-7,6.474
8,0,6.475
-8,5,6.476
-13,6,6.477
-10,4,6.478
-5,-8,6.479
5,-26,6.48
16,-33,6.481
19,-28,6.482
15,-23,6.483
11,-18,6.484
12,-6,6.485
14,9,6.486
10,15,6.487
2,11,6.488
-2,12,6.489
-1,20,6.49
3,15,6.491
3,-1,6.492
2,-8,6.493
1,-1,6.494
2,10,6.495
-2,14,6.496
-9,13,6.497
-8,15,6.498
4,15,6.499
15,10,6.5
14,10,6.501
9,12,6.502
12,6,6.503
16,-5,6.504
9,-10,6.505
-2,-4,6.506
-8,-1,6.507
-11,-3,6.508
-22,-2,6.509
-35,0,6.51
-37,0,6.511
-26,-4,6.512
-13,-6,6.513
1,-4,6.514
17,-2,6.515
20,-1,6.516
8,-5,6.517
-1,-5,6.518
9,-4,6.519
23,-1,6.52
13,1,6.521
-9,6,6.522
-9,8,6.523
2,6,6.524
-6,0,6.525
-33,-4,6.526
-43,-4,6.527
-24,-2,6.528
-7,0,6.529
-5,0,6.53
3,-4,6.531
28,-5,6.532
49,-1,6.533
51,0,6.534
39,-2,6.535
24,-4,6.536
6,-6,6.537
-11,-6,6.538
-16,-7,6.539
-11,-5,6.54
-13,1,6.541
-23,5,6.542
-19,0,6.543
1,-5,6.544
17,-2,6.545
13,5,6.546
3,8,6.547
7,4,6.548
17,-2,6.549
18,-4,6.55
14,-3,6.551
13,-1,6.552
13,0,6.553
7,-4,6.554
0,-7,6.555
-2,-4,6.556
2,-2,6.557
5,3,6.558
8,5,6.559
16,7,6.56
21,11,6.561
19,13,6.562
9,10,6.563
-2,2,6.564
-4,-4,6.565
2,-7,6.566
8,-10,6.567
6,-10,6.568
-4,-7,6.569
-12,-5,6.57
-10,-6,6.571
-6,-5,6.572
-2,2,6.573
0,8,6.574
8,5,6.575
12,-3,6.576
7,-8,6.577
1,-1,6.578
4,3,6.579
11,1,6.58
10,0,6.581
0,4,6.582
-6,7,6.583
-8,5,6.584
-12,4,6.585
-16,3,6.586
-13,-2,6.587
-3,-9,6.588
3,-9,6.589
1,-6,6.59
-2,-3,6.591
-1,-2,6.592
0,-2,6.593
-3,0,6.594
-6,5,6.595
-5,5,6.596
-1,-4,6.597
2,-11,6.598
7,-8,6.599
13,2,6.6
13,8,6.601
2,4,6.602
-7,-3,6.603
-5,-4,6.604
9,1,6.605
24,4,6.606
28,2,6.607
21,-1,6.608
6,-2,6.609
-2,0,6.61
-4,0,6.611
-4,-4,6.612
-5,-9,6.613
-4,-16,6.614
3,-14,6.615
10,-1,6.616
8,15,6.617
3,30,6.618
7,29,6.619
12,14,6.62
10,0,6.621
5,-2,6.622
10,4,6.623
21,3,6.624
22,-4,6.625
15,-3,6.626
4,1,6.627
-5,1,6.628
-18,-2,6.629
-34,-2,6.63
-41,0,6.631
-28,-5,6.632
-5,-10,6.633
15,-11,6.634
23,-5,6.635
25,-3,6.636
29,-10,6.637
28,-12,6.638
11,-7,6.639
-23,-1,6.64
-49,1,6.641
-41,0,6.642
-9,2,6.643
11,2,6.644
8,0,6.645
0,0,6.646
3,1,6.647
9,1,6.648
3,0,6.649
-1,-1,6.65
6,-5,6.651
16,-7,6.652
18,-4,6.653
11,2,6.654
0,2,6.655
-5,-1,6.656
-5,-6,6.657
1,-6,6.658
11,-4,6.659
14,-1,6.66
9,5,6.661
4,11,6.662
5,10,6.663
7,3,6.664
3,-1,6.665
0,1,6.666
2,0,6.667
6,-4,6.668
6,-6,6.669
5,-2,6.67
6,3,6.671
4,3,6.672
2,1,6.673
1,-1,6.674
5,-1,6.675
5,-2,6.676
-2,-4,6.677
-9,-4,6.678
-6,-4,6.679
-2,-2,6.68
-7,1,6.681
-19,4,6.682
-19,1,6.683
-9,-3,6.684
5,0,6.685
15,4,6.686
19,3,6.687
17,-1,6.688
7,-1,6.689
1,4,6.69
4,4,6.691
10,1,6.692
9,2,6.693
3,5,6.694
3,6,6.695
3,2,6.696
-4,-2,6.697
-8,-1,6.698
1,0,6.699
11,0,6.7
7,3,6.701
-2,6,6.702
-2,2,6.703
4,-4,6.704
5,-4,6.705
2,0,6.706
3,0,6.707
8,-2,6.708
8,-2,6.709
4,4,6.71
4,2,6.711
6,-4,6.712
7,-6,6.713
3,-4,6.714
0,-5,6.715
-4,-9,6.716
-9,-13,6.717
-8,-6,6.718
-1,0,6.719
8,-1,6.72
9,-4,6.721
8,-2,6.722
12,1,6.723
13,3,6.724
8,4,6.725
0,3,6.726
0,1,6.727
0,-3,6.728
-1,-4,6.729
0,-4,6.73
-1,-3,6.731
-2,-2,6.732
-4,1,6.733
-5,1,6.734
1,-2,6.735
2,-6,6.736
-3,-7,6.737
-8,-2,6.738
-1,1,6.739
10,3,6.74
12,6,6.741
4,5,6.742
0,1,6.743
2,-3,6.744
3,-3,6.745
2,0,6.746
2,3,6.747
4,3,6.748
5,2,6.749
8,1,6.75
13,-3,6.751
16,-7,6.752
11,-7,6.753
2,-6,6.754
-2,-4,6.755
-4,-1,6.756
-6,-2,6.757
-8,-2,6.758
-7,-1,6.759
-2,0,6.76
6,1,6.761
12,2,6.762
17,2,6.763
18,1,6.764
13,0,6.765
4,-1,6.766
-1,-2,6.767
1,-2,6.768
4,-2,6.769
4,1,6.77
3,2,6.771
3,0,6.772
4,-1,6.773
2,-3,6.774
-5,-3,6.775
-13,-5,6.776
-15,-8,6.777
-6,-5,6.778
7,1,6.779
15,5,6.78
12,3,6.781
4,1,6.782
3,2,6.783
5,4,6.784
5,5,6.785
0,2,6.786
-2,0,6.787
1,1,6.788
4,4,6.789
2,4,6.79
-2,0,6.791
-4,-3,6.792
-2,0,6.793
1,3,6.794
6,3,6.795
6,0,6.796
2,-3,6.797
-1,-2,6.798
1,-2,6.799
7,-3,6.8
9,-1,6.801
4,0,6.802
-1,-2,6.803
-2,-5,6.804
0,-6,6.805
1,-2,6.806
2,0,6.807
3,0,6.808
0,-1,6.809
-1,-1,6.81
0,-1,6.811
2,-2,6.812
3,1,6.813
-1,0,6.814
-5,-4,6.815
-7,-6,6.816
-10,-5,6.817
-11,1,6.818
-5,2,6.819
8,-2,6.82
17,-2,6.821
16,2,6.822
12,4,6.823
13,0,6.824
13,-1,6.825
7,2,6.826
5,5,6.827
9,3,6.828
9,-1,6.829
2,-2,6.83
-5,-1,6.831
-6,-1,6.832
-2,-1,6.833
0,-2,6.834
0,-3,6.835
0,-3,6.836
-4,-4,6.837
-6,-4,6.838
0,-5,6.839
11,-6,6.84
15,-6,6.841
9,-2,6.842
3,0,6.843
3,-1,6.844
4,-3,6.845
0,-3,6.846
-4,-2,6.847
-1,0,6.848
5,5,6.849
8,7,6.85
5,4,6.851
4,0,6.852
6,0,6.853
4,-2,6.854
0,-3,6.855
-5,-3,6.856
-10,-5,6.857
-11,-3,6.858
-3,-2,6.859
11,-2,6.86
16,1,6.861
8,3,6.862
-3,4,6.863
-3,2,6.864
5,2,6.865
9,3,6.866
8,2,6.867
6,-1,6.868
4,-2,6.869
1,-2,6.87
-2,-2,6.871
0,-3,6.872
6,1,6.873
11,3,6.874
9,2,6.875
0,0,6.876
-6,-3,6.877
-3,-3,6.878
6,-4,6.879
11,-6,6.88
6,-6,6.881
-2,-7,6.882
-3,-7,6.883
1,-3,6.884
3,2,6.885
1,7,6.886
-1,8,6.887
1,6,6.888
1,3,6.889
-1,-3,6.89
-3,-9,6.891
-2,-8,6.892
0,-1,6.893
-2,3,6.894
-2,2,6.895
-4,0,6.896
-7,-3,6.897
-8,-2,6.898
-1,0,6.899
10,5,6.9
15,9,6.901
12,10,6.902
9,4,6.903
13,-4,6.904
14,-6,6.905
9,-4,6.906
5,0,6.907
6,1,6.908
8,-1,6.909
6,-3,6.91
1,0,6.911
0,5,6.912
2,7,6.913
-2,3,6.914
-8,-2,6.915
-15,-8,6.916
-18,-13,6.917
-15,-11,6.918
-8,-7,6.919
-5,-2,6.92
-7,0,6.921
-6,0,6.922
4,-1,6.923
19,-2,6.924
22,0,6.925
13,1,6.926
4,0,6.927
4,-1,6.928
8,-3,6.929
10,0,6.93
8,3,6.931
4,4,6.932
-1,4,6.933
-5,0,6.934
-1,-1,6.935
9,-1,6.936
17,-2,6.937
18,-1,6.938
18,-1,6.939
20,0,6.94
16,0,6.941
7,3,6.942
2,3,6.943
4,-1,6.944
3,-2,6.945
-4,0,6.946
-7,0,6.947
-5,-1,6.948
-2,-1,6.949
-3,0,6.95
-4,0,6.951
-4,-2,6.952
-4,-2,6.953
-6,-3,6.954
-6,-2,6.955
-6,0,6.956
-9,3,6.957
-10,4,6.958
-7,1,6.959
-2,-1,6.96
-2,3,6.961
-4,5,6.962
2,1,6.963
13,-3,6.964
13,-6,6.965
1,-8,6.966
-5,-10,6.967
-3,-9,6.968
-1,0,6.969
-3,5,6.97
-1,2,6.971
10,-4,6.972
18,-3,6.973
12,-1,6.974
0,-2,6.975
-10,-5,6.976
-13,-8,6.977
-10,-6,6.978
-1,-4,6.979
11,-1,6.98
18,7,6.981
21,12,6.982
22,7,6.983
24,2,6.984
25,3,6.985
24,6,6.986
20,3,6.987
15,-4,6.988
4,-7,6.989
-4,-3,6.99
-4,-2,6.991
2,-3,6.992
7,0,6.993
6,3,6.994
0,6,6.995
-6,3,6.996
-12,-3,6.997
-9,-2,6.998
-1,0,6.999
5,-2,7.0
1,-5,7.001
-6,-1,7.002
-7,6,7.003
-4,6,7.004
-4,0,7.005
-4,-4,7.006
2,-3,7.007
9,-1,7.008
9,0,7.009
3,0,7.01
1,0,7.011
3,-2,7.012
1,-2,7.013
-4,-4,7.014
-7,-4,7.015
-10,-5,7.016
-18,-9,7.017
-20,-6,7.018
-5,-2,7.019
19,3,7.02
28,5,7.021
16,7,7.022
4,3,7.023
6,-3,7.024
14,-7,7.025
17,-4,7.026
12,-2,7.027
4,-2,7.028
-4,0,7.029
-9,3,7.03
-7,3,7.031
2,-2,7.032
10,-5,7.033
9,-3,7.034
3,0,7.035
-6,-1,7.036
-13,-6,7.037
-13,-5,7.038
-6,0,7.039
-2,2,7.04
-5,3,7.041
-6,6,7.042
4,8,7.043
19,4,7.044
20,0,7.045
8,3,7.046
0,6,7.047
1,2,7.048
3,-5,7.049
1,-8,7.05
1,-6,7.051
5,-2,7.052
9,0,7.053
5,1,7.054
2,3,7.055
0,0,7.056
-6,-5,7.057
-11,-7,7.058
-5,-6,7.059
4,-3,7.06
7,1,7.061
-2,5,7.062
-7,5,7.063
-3,1,7.064
-1,-3,7.065
-5,-6,7.066
-6,-6,7.067
1,-4,7.068
10,-4,7.069
9,-4,7.07
4,-5,7.071
6,0,7.072
10,2,7.073
7,0,7.074
0,-4,7.075
-3,-8,7.076
5,-9,7.077
16,-8,7.078
19,-5,7.079
17,-1,7.08
14,6,7.081
5,7,7.082
-5,1,7.083
-13,-4,7.084
-10,-1,7.085
3,3,7.086
18,4,7.087
23,0,7.088
18,0,7.089
9,3,7.09
4,3,7.091
4,0,7.092
0,1,7.093
-7,3,7.094
-7,3,7.095
0,-1,7.096
7,-5,7.097
5,-2,7.098
0,3,7.099
-3,3,7.1
-7,3,7.101
-5,4,7.102
6,5,7.103
18,1,7.104
17,-5,7.105
5,-7,7.106
-1,-7,7.107
0,-5,7.108
-3,-3,7.109
-12,-2,7.11
-16,0,7.111
-11,1,7.112
-10,3,7.113
-14,3,7.114
-14,3,7.115
-7,3,7.116
0,-1,7.117
0,-4,7.118
0,-4,7.119
3,-4,7.12
0,-1,7.121
-8,3,7.122
-7,4,7.123
10,2,7.124
29,1,7.125
32,1,7.126
20,-1,7.127
7,-6,7.128
0,-7,7.129
0,-4,7.13
0,0,7.131
0,0,7.132
0,-1,7.133
-2,-1,7.134
-5,-1,7.135
-9,0,7.136
-13,-3,7.137
-11,-3,7.138
2,-4,7.139
17,-2,7.14
20,0,7.141
9,4,7.142
-2,2,7.143
-5,-5,7.144
-2,-7,7.145
2,-4,7.146
9,0,7.147
14,0,7.148
15,-1,7.149
12,0,7.15
10,0,7.151
9,-3,7.152
2,-3,7.153
-6,-1,7.154
-11,4,7.155
-9,5,7.156
-4,0,7.157
3,-2,7.158
12,0,7.159
14,1,7.16
9,1,7.161
6,3,7.162
14,5,7.163
20,4,7.164
17,2,7.165
7,0,7.166
3,2,7.167
6,-1,7.168
4,-3,7.169
-3,1,7.17
-5,8,7.171
-2,11,7.172
1,7,7.173
-2,1,7.174
-8,0,7.175
-11,-2,7.176
-9,-12,7.177
-5,-19,7.178
3,-18,7.179
10,-14,7.18
7,-11,7.181
0,-11,7.182
-3,-9,7.183
-1,-7,7.184
0,-5,7.185
-2,0,7.186
-2,8,7.187
1,15,7.188
4,22,7.189
3,33,7.19
-2,47,7.191
-6,55,7.192
-3,52,7.193
0,38,7.194
4,20,7.195
4,-1,7.196
-1,-35,7.197
0,-63,7.198
7,-72,7.199
13,-77,7.2
8,-65,7.201
-1,-51,7.202
-2,-31,7.203
6,-15,7.204
9,-9,7.205
2,-3,7.206
-4,4,7.207
-3,10,7.208
-1,11,7.209
-2,12,7.21
-4,16,7.211
-2,20,7.212
1,27,7.213
2,35,7.214
0,39,7.215
-2,31,7.216
-9,6,7.217
-13,-15,7.218
-7,-26,7.219
-1,-32,7.22
7,-38,7.221
13,-36,7.222
11,-21,7.223
12,-4,7.224
22,7,7.225
28,11,7.226
21,15,7.227
13,17,7.228
7,15,7.229
3,11,7.23
8,10,7.231
11,11,7.232
7,13,7.233
1,11,7.234
-12,8,7.235
-21,3,7.236
-25,-4,7.237
-22,-2,7.238
-9,4,7.239
6,10,7.24
15,13,7.241
15,13,7.242
14,10,7.243
17,6,7.244
16,5,7.245
6,5,7.246
-2,2,7.247
0,-2,7.248
7,-3,7.249
8,0,7.25
1,-1,7.251
-3,-8,7.252
-2,-11,7.253
-1,-12,7.254
-2,-12,7.255
-5,-12,7.256
-6,-10,7.257
-6,-8,7.258
-4,-6,7.259
0,-4,7.26
1,-2,7.261
-2,-1,7.262
-3,-5,7.263
-1,-9,7.264
0,-9,7.265
0,-7,7.266
1,-4,7.267
8,0,7.268
7,4,7.269
2,8,7.27
2,10,7.271
5,13,7.272
5,13,7.273
-1,12,7.274
-4,11,7.275
-6,8,7.276
-8,2,7.277
-11,0,7.278
-5,-2,7.279
5,-8,7.28
8,-18,7.281
4,-26,7.282
6,-28,7.283
17,-25,7.284
21,-20,7.285
15,-13,7.286
9,-8,7.287
11,-2,7.288
14,2,7.289
11,3,7.29
5,4,7.291
1,14,7.292
-1,29,7.293
-3,36,7.294
-5,28,7.295
-7,8,7.296
-14,-9,7.297
-18,-17,7.298
-13,-21,7.299
-1,-22,7.3
8,-15,7.301
11,-5,7.302
12,3,7.303
15,5,7.304
12,9,7.305
8,19,7.306
7,30,7.307
9,35,7.308
8,34,7.309
4,25,7.31
4,6,7.311
7,-11,7.312
8,-18,7.313
0,-21,7.314
-6,-25,7.315
-11,-32,7.316
-12,-37,7.317
-7,-29,7.318
3,-20,7.319
11,-13,7.32
11,-8,7.321
4,0,7.322
2,8,7.323
1,12,7.324
-3,24,7.325
-8,35,7.326
-9,34,7.327
-7,21,7.328
-6,4,7.329
-5,-12,7.33
1,-31,7.331
10,-44,7.332
15,-41,7.333
11,-26,7.334
8,-16,7.335
4,-13,7.336
-1,-10,7.337
-1,1,7.338
7,8,7.339
17,8,7.34
17,16,7.341
5,35,7.342
-3,46,7.343
-3,38,7.344
0,20,7.345
-3,8,7.346
-14,3,7.347
-21,0,7.348
-17,-7,7.349
1,-16,7.35
21,-23,7.351
32,-21,7.352
32,-7,7.353
23,11,7.354
13,28,7.355
3,33,7.356
-5,23,7.357
-10,7,7.358
-7,-6,7.359
-1,-17,7.36
-1,-26,7.361
-5,-34,7.362
-6,-41,7.363
1,-44,7.364
9,-34,7.365
12,-16,7.366
11,0,7.367
10,15,7.368
12,29,7.369
8,36,7.37
2,29,7.371
-6,5,7.372
-9,-16,7.373
-12,-28,7.374
-13,-29,7.375
-16,-29,7.376
-18,-21,7.377
-18,-10,7.378
-14,4,7.379
-8,16,7.38
0,15,7.381
7,15,7.382
11,20,7.383
8,25,7.384
3,27,7.385
6,29,7.386
18,25,7.387
23,20,7.388
7,17,7.389
-23,13,7.39
-39,10,7.391
-34,5,7.392
-25,-4,7.393
-28,-13,7.394
-32,-16,7.395
-27,-21,7.396
-19,-26,7.397
-11,-25,7.398
-1,-22,7.399
15,-23,7.4
34,-25,7.401
49,-23,7.402
70,-14,7.403
105,-6,7.404
134,3,7.405
135,16,7.406
106,26,7.407
69,32,7.408
35,34,7.409
8,36,7.41
-13,31,7.411
-28,19,7.412
-43,6,7.413
-63,-3,7.414
-86,-6,7.415
-107,-5,7.416
-128,-6,7.417
-152,-7,7.418
-176,-8,7.419
-198,-9,7.42
-207,-6,7.421
-179,-4,7.422
-96,-6,7.423
21,-7,7.424
130,-9,7.425
206,-6,7.426
256,-6,7.427
292,-8,7.428
308,-9,7.429
305,-7,7.43
276,-5,7.431
223,-7,7.432
157,-9,7.433
84,-12,7.434
28,-12,7.435
-17,-10,7.436
-55,-10,7.437
-86,-6,7.438
-97,4,7.439
-96,14,7.44
-99,19,7.441
-103,13,7.442
-102,0,7.443
-95,-6,7.444
-92,-7,7.445
-93,-6,7.446
-90,-7,7.447
-84,-8,7.448
-76,-10,7.449
-68,-12,7.45
-60,-9,7.451
-49,4,7.452
-35,22,7.453
-18,31,7.454
-5,32,7.455
-8,32,7.456
-17,38,7.457
-20,46,7.458
-15,44,7.459
-9,35,7.46
-9,24,7.461
-8,2,7.462
-1,-37,7.463
8,-78,7.464
14,-100,7.465
18,-106,7.466
26,-104,7.467
36,-86,7.468
40,-33,7.469
34,41,7.47
26,105,7.471
19,133,7.472
12,128,7.473
-1,79,7.474
-15,-6,7.475
-23,-88,7.476
-23,-132,7.477
-14,-124,7.478
-6,-99,7.479
-11,-76,7.48
-23,-52,7.481
-22,-20,7.482
2,11,7.483
32,30,7.484
45,36,7.485
45,40,7.486
47,50,7.487
52,65,7.488
54,79,7.489
50,82,7.49
42,68,7.491
24,47,7.492
-8,27,7.493
-44,6,7.494
-56,-15,7.495
-38,-30,7.496
-6,-31,7.497
25,-17,7.498
52,-2,7.499
72,2,7.5
81,6,7.501
90,14,7.502
109,20,7.503
115,8,7.504
75,-6,7.505
-3,2,7.506
-67,31,7.507
-83,40,7.508
-72,16,7.509
-63,-14,7.51
-46,-35,7.511
-4,-57,7.512
43,-86,7.513
65,-109,7.514
61,-96,7.515
54,-43,7.516
49,33,7.517
26,110,7.518
-3,142,7.519
-16,99,7.52
-18,7,7.521
-39,-63,7.522
-91,-84,7.523
-141,-84,7.524
-149,-82,7.525
-112,-61,7.526
-67,-12,7.527
-49,30,7.528
-62,43,7.529
-72,39,7.53
-52,38,7.531
-13,36,7.532
3,27,7.533
4,23,7.534
34,40,7.535
81,59,7.536
180,85,7.537
255,100,7.538
257,82,7.539
240,57,7.54
161,11,7.541
87,-31,7.542
33,-63,7.543
-13,-87,7.544
-34,-88,7.545
-53,-89,7.546
-64,-85,7.547
-68,-81,7.548
-49,-84,7.549
-37,-84,7.55
-46,-70,7.551
-50,-56,7.552
-39,-39,7.553
-32,-14,7.554
-45,38,7.555
-43,91,7.556
-31,134,7.557
-39,171,7.558
-53,167,7.559
-46,97,7.56
-31,5,7.561
-37,-45,7.562
-51,-58,7.563
-50,-74,7.564
-48,-99,7.565
-70,-96,7.566
-97,-64,7.567
-92,-38,7.568
-65,-26,7.569
-54,-10,7.57
-57,12,7.571
-44,30,7.572
-15,54,7.573
20,95,7.574
60,108,7.575
110,105,7.576
151,49,7.577
168,1,7.578
168,-16,7.579
160,-35,7.58
119,-53,7.581
29,-64,7.582
-84,-50,7.583
-181,-40,7.584
-244,-44,7.585
-263,-48,7.586
-214,-49,7.587
-104,-39,7.588
27,6,7.589
145,48,7.59
248,82,7.591
339,95,7.592
389,40,7.593
362,-19,7.594
261,-68,7.595
133,-82,7.596
31,-75,7.597
-40,-63,7.598
-102,-45,7.599
-134,-15,7.6
-99,16,7.601
-24,31,7.602
9,39,7.603
-37,63,7.604
-104,99,7.605
-126,109,7.606
-111,70,7.607
-100,6,7.608
-87,-40,7.609
-58,-64,7.61
-29,-78,7.611
-20,-80,7.612
-7,-56,7.613
18,-13,7.614
29,27,7.615
0,37,7.616
-31,24,7.617
-13,18,7.618
43,22,7.619
72,20,7.62
56,12,7.621
40,10,7.622
58,20,7.623
78,37,7.624
60,49,7.625
8,47,7.626
-27,16,7.627
-19,-31,7.628
11,-64,7.629
27,-63,7.63
23,-47,7.631
11,-39,7.632
2,-33,7.633
-11,-20,7.634
-34,-7,7.635
-68,-10,7.636
-101,-19,7.637
-121,-9,7.638
-113,14,7.639
-73,31,7.64
-22,37,7.641
12,40,7.642
19,38,7.643
13,25,7.644
13,11,7.645
11,4,7.646
-1,2,7.647
-17,-5,7.648
-18,-12,7.649
-6,-17,7.65
1,-18,7.651
-3,-18,7.652
-14,-18,7.653
-26,-16,7.654
-38,-11,7.655
-44,-7,7.656
-44,-6,7.657
-37,-3,7.658
-23,3,7.659
15,15,7.66
84,26,7.661
161,22,7.662
209,6,7.663
207,-9,7.664
174,-12,7.665
134,-10,7.666
88,-12,7.667
20,-16,7.668
-61,-15,7.669
-107,-9,7.67
-90,-8,7.671
-50,-11,7.672
-57,-9,7.673
-120,-1,7.674
-169,11,7.675
-194,19,7.676
-144,13,7.677
-89,2,7.678
-18,-2,7.679
58,5,7.68
150,15,7.681
223,21,7.682
236,20,7.683
214,19,7.684
81,17,7.685
-45,10,7.686
-153,-4,7.687
-227,-10,7.688
-198,-3,7.689
-144,8,7.69
-17,12,7.691
92,11,7.692
150,8,7.693
190,-1,7.694
142,-13,7.695
56,-20,7.696
-17,-21,7.697
-42,-15,7.698
-20,-9,7.699
36,4,7.7
116,23,7.701
198,35,7.702
243,23,7.703
231,-11,7.704
178,-44,7.705
93,-57,7.706
-18,-51,7.707
-126,-42,7.708
-181,-32,7.709
-165,-18,7.71
-114,0,7.711
-75,10,7.712
-56,17,7.713
-49,25,7.714
-47,32,7.715
-40,28,7.716
-9,3,7.717
38,-25,7.718
66,-36,7.719
49,-20,7.72
6,21,7.721
-31,80,7.722
-46,129,7.723
-45,134,7.724
-43,85,7.725
-79,9,7.726
-159,-50,7.727
-234,-87,7.728
-245,-119,7.729
-184,-136,7.73
-92,-108,7.731
9,-39,7.732
107,17,7.733
187,21,7.734
207,5,7.735
160,-3,7.736
83,13,7.737
-6,19,7.738
-95,-5,7.739
-147,-17,7.74
-129,5,7.741
-64,23,7.742
4,23,7.743
60,43,7.744
110,125,7.745
132,179,7.746
105,144,7.747
58,89,7.748
45,-26,7.749
67,-123,7.75
76,-164,7.751
50,-192,7.752
18,-181,7.753
-4,-153,7.754
-20,-72,7.755
-37,-14,7.756
-50,7,7.757
-60,30,7.758
-71,83,7.759
-77,152,7.76
-56,184,7.761
-10,138,7.762
16,45,7.763
-3,-28,7.764
-39,-51,7.765
-41,-59,7.766
-11,-77,7.767
9,-73,7.768
7,-26,7.769
25,16,7.77
81,5,7.771
128,-27,7.772
113,-25,7.773
54,-2,7.774
17,2,7.775
-1,-10,7.776
40,-4,7.777
71,22,7.778
71,33,7.779
71,26,7.78
66,32,7.781
56,52,7.782
34,61,7.783
0,58,7.784
-69,63,7.785
-116,63,7.786
-97,36,7.787
-70,-14,7.788
-24,-49,7.789
21,-61,7.79
65,-69,7.791
73,-77,7.792
-32,-71,7.793
-138,-49,7.794
-207,-27,7.795
-213,-15,7.796
-206,-6,7.797
-162,10,7.798
-34,25,7.799
111,36,7.8
165,69,7.801
136,139,7.802
131,210,7.803
187,193,7.804
228,56,7.805
207,-118,7.806
157,-216,7.807
118,-221,7.808
84,-189,7.809
48,-143,7.81
12,-55,7.811
-47,62,7.812
-119,134,7.813
-160,118,7.814
-114,38,7.815
-29,-56,7.816
6,-125,7.817
-25,-143,7.818
-53,-113,7.819
-30,-66,7.82
15,-13,7.821
29,50,7.822
-1,102,7.823
-65,93,7.824
-134,41,7.825
-171,16,7.826
-159,38,7.827
-116,56,7.828
-72,47,7.829
-33,49,7.83
20,70,7.831
93,64,7.832
150,27,7.833
139,-11,7.834
55,-26,7.835
-36,-39,7.836
-55,-48,7.837
-9,-21,7.838
35,35,7.839
57,84,7.84
86,107,7.841
121,99,7.842
109,41,7.843
37,-56,7.844
-45,-118,7.845
-87,-101,7.846
-97,-53,7.847
-115,-32,7.848
-144,-15,7.849
-155,25,7.85
-122,49,7.851
-34,24,7.852
73,-4,7.853
152,3,7.854
169,35,7.855
148,67,7.856
139,98,7.857
133,106,7.858
96,39,7.859
44,-61,7.86
18,-87,7.861
20,-39,7.862
12,-37,7.863
-17,-111,7.864
-41,-156,7.865
-34,-124,7.866
-1,-94,7.867
48,-98,7.868
81,-72,7.869
55,-3,7.87
-22,28,7.871
-83,1,7.872
-85,-5,7.873
-64,38,7.874
-67,67,7.875
-87,44,7.876
-85,23,7.877
-63,38,7.878
-48,50,7.879
-39,37,7.88
-33,31,7.881
-50,40,7.882
-97,33,7.883
-130,8,7.884
-103,2,7.885
-35,11,7.886
30,5,7.887
82,-13,7.888
140,-14,7.889
190,-5,7.89
196,-6,7.891
146,-13,7.892
75,-4,7.893
10,10,7.894
-20,10,7.895
-20,1,7.896
-1,-2,7.897
19,-2,7.898
43,-10,7.899
66,-16,7.9
68,-7,7.901
26,3,7.902
-45,-1,7.903
-97,-2,7.904
-99,16,7.905
-62,36,7.906
-25,30,7.907
-12,11,7.908
-17,4,7.909
-25,14,7.91
-28,17,7.911
-17,12,7.912
12,17,7.913
59,37,7.914
96,71,7.915
97,118,7.916
65,158,7.917
20,135,7.918
-24,0,7.919
-68,-191,7.92
-104,-306,7.921
-105,-281,7.922
-58,-177,7.923
9,-85,7.924
44,-32,7.925
29,-2,7.926
1,13,7.927
9,19,7.928
52,37,7.929
97,69,7.93
116,85,7.931
109,75,7.932
89,62,7.933
58,54,7.934
18,40,7.935
-34,10,7.936
-91,-10,7.937
-130,8,7.938
-135,50,7.939
-122,66,7.94
-122,17,7.941
-139,-67,7.942
-134,-115,7.943
-85,-78,7.944
-16,-5,7.945
40,22,7.946
79,13,7.947
105,34,7.948
115,54,7.949
108,-27,7.95
95,-179,7.951
81,-218,7.952
75,-76,7.953
89,117,7.954
134,185,7.955
172,128,7.956
153,63,7.957
73,31,7.958
-13,-2,7.959
-79,-38,7.96
-132,-66,7.961
-177,-93,7.962
-196,-77,7.963
-176,48,7.964
-117,242,7.965
-31,346,7.966
66,290,7.967
139,189,7.968
162,125,7.969
129,23,7.97
56,-205,7.971
-24,-457,7.972
-66,-546,7.973
-53,-426,7.974
-22,-212,7.975
-28,-44,7.976
-58,38,7.977
-59,93,7.978
-20,159,7.979
7,203,7.98
-3,174,7.981
-8,89,7.982
25,20,7.983
53,12,7.984
27,50,7.985
-35,103,7.986
-91,157,7.987
-139,177,7.988
-196,103,7.989
-231,-79,7.99
-189,-274,7.991
-79,-326,7.992
30,-176,7.993
109,102,7.994
168,276,7.995
204,174,7.996
168,-107,7.997
136,-301,7.998
117,-275,7.999
102,-142,8.0
103,-40,8.001
82,39,8.002
-5,132,8.003
-65,175,8.004
-41,119,8.005
0,45,8.006
85,62,8.007
149,154,8.008
141,238,8.009
123,257,8.01
75,167,8.011
26,-53,8.012
-23,-301,8.013
-74,-434,8.014
-103,-371,8.015
-98,-213,8.016
-101,-107,8.017
-130,-92,8.018
-136,-108,8.019
-110,-66,8.02
-95,81,8.021
-97,258,8.022
-55,292,8.023
46,107,8.024
136,-125,8.025
151,-148,8.026
110,79,8.027
56,312,8.028
0,282,8.029
-54,-3,8.03
-84,-246,8.031
-80,-195,8.032
-60,46,8.033
-36,206,8.034
-13,138,8.035
-3,-10,8.036
-4,-58,8.037
-6,-13,8.038
2,10,8.039
5,-20,8.04
-3,-64,8.041
-5,-54,8.042
14,72,8.043
27,271,8.044
16,329,8.045
0,98,8.046
-1,-260,8.047
-2,-403,8.048
-12,-214,8.049
-12,101,8.05
6,270,8.051
20,165,8.052
12,-132,8.053
-4,-435,8.054
-3,-448,8.055
1,-121,8.056
-8,203,8.057
-20,170,8.058
-21,-165,8.059
-20,-431,8.06
-33,-412,8.061
-63,-222,8.062
-96,-17,8.063
-108,224,8.064
-68,546,8.065
24,820,8.066
119,832,8.067
169,546,8.068
172,156,8.069
144,-138,8.07
83,-297,8.071
-4,-373,8.072
-59,-365,8.073
-35,-222,8.074
55,27,8.075
140,211,8.076
181,154,8.077
165,-98,8.078
85,-298,8.079
-15,-242,8.08
-36,2,8.081
51,185,8.082
115,165,8.083
46,36,8.084
-74,-36,8.085
-95,-6,8.086
-36,51,8.087
-22,40,8.088
-63,-61,8.089
-67,-146,8.09
-22,-72,8.091
1,129,8.092
-15,221,8.093
-24,25,8.094
-20,-320,8.095
-39,-499,8.096
-77,-378,8.097
-86,-105,8.098
-70,109,8.099
-70,212,8.1
-78,260,8.101
-60,275,8.102
-26,204,8.103
-13,10,8.104
-17,-219,8.105
-11,-343,8.106
2,-315,8.107
7,-187,8.108
14,-26,8.109
31,121,8.11
39,214,8.111
28,263,8.112
18,312,8.113
25,312,8.114
31,145,8.115
18,-133,8.116
2,-239,8.117
5,-60,8.118
13,132,8.119
9,93,8.12
2,-28,8.121
8,-9,8.122
20,67,8.123
24,20,8.124
20,-68,8.125
12,-42,8.126
4,20,8.127
-1,-26,8.128
-1,-110,8.129
0,-116,8.13
0,-106,8.131
-1,-167,8.132
1,-196,8.133
-1,-85,8.134
-13,65,8.135
-33,90,8.136
-46,25,8.137
-45,19,8.138
-28,63,8.139
-2,67,8.14
20,57,8.141
35,108,8.142
48,153,8.143
60,85,8.144
57,-37,8.145
40,-76,8.146
33,-34,8.147
40,-15,8.148
38,-43,8.149
10,-46,8.15
-18,-17,8.151
-20,-8,8.152
-10,-19,8.153
-19,-13,8.154
-37,8,8.155
-41,4,8.156
-27,-21,8.157
-17,-22,8.158
-13,0,8.159
-6,10,8.16
-3,1,8.161
-10,-18,8.162
-15,-77,8.163
-4,-188,8.164
17,-259,8.165
25,-180,8.166
19,20,8.167
10,192,8.168
4,250,8.169
5,224,8.17
16,131,8.171
33,-51,8.172
44,-238,8.173
37,-285,8.174
18,-127,8.175
3,77,8.176
-2,155,8.177
-1,144,8.178
4,158,8.179
9,190,8.18
8,171,8.181
-3,128,8.182
-15,120,8.183
-17,108,8.184
-14,38,8.185
-11,-23,8.186
-9,16,8.187
-6,101,8.188
-8,95,8.189
-17,-34,8.19
-24,-192,8.191
-23,-309,8.192
-15,-404,8.193
-10,-553,8.194
-8,-736,8.195
-3,-787,8.196
5,-491,8.197
16,150,8.198
26,754,8.199
33,905,8.2
32,589,8.201
28,138,8.202
27,-154,8.203
33,-178,8.204
34,77,8.205
22,464,8.206
6,654,8.207
-8,450,8.208
-19,55,8.209
-21,-168,8.21
-15,-95,8.211
-4,118,8.212
-1,282,8.213
-4,311,8.214
-5,203,8.215
-2,31,8.216
-2,-128,8.217
-3,-261,8.218
3,-357,8.219
15,-335,8.22
16,-176,8.221
7,-38,8.222
2,-87,8.223
0,-268,8.224
-10,-391,8.225
-20,-352,8.226
-14,-186,8.227
3,29,8.228
11,211,8.229
8,290,8.23
17,273,8.231
42,224,8.232
62,155,8.233
62,0,8.234
52,-212,8.235
38,-348,8.236
19,-317,8.237
-2,-181,8.238
-10,-74,8.239
-5,-50,8.24
-2,-50,8.241
-12,-15,8.242
-22,45,8.243
-21,82,8.244
-20,87,8.245
-29,73,8.246
-42,41,8.247
-40,12,8.248
-26,72,8.249
-18,254,8.25
-16,420,8.251
-13,388,8.252
-6,202,8.253
1,12,8.254
6,-89,8.255
3,-164,8.256
-6,-232,8.257
-18,-210,8.258
-20,-129,8.259
-12,-142,8.26
-6,-250,8.261
-8,-253,8.262
-6,-67,8.263
0,125,8.264
1,155,8.265
2,87,8.266
11,55,8.267
24,44,8.268
30,1,8.269
26,-12,8.27
28,63,8.271
41,149,8.272
46,148,8.273
26,92,8.274
-1,69,8.275
-18,68,8.276
-15,2,8.277
-7,-149,8.278
0,-357,8.279
5,-556,8.28
7,-605,8.281
1,-358,8.282
-10,95,8.283
-17,406,8.284
-16,333,8.285
-10,5,8.286
-3,-248,8.287
1,-229,8.288
8,39,8.289
17,367,8.29
22,529,8.291
20,450,8.292
17,310,8.293
15,248,8.294
13,173,8.295
3,-66,8.296
-9,-322,8.297
-12,-275,8.298
-8,54,8.299
-10,305,8.3
-22,278,8.301
-28,143,8.302
-21,78,8.303
-11,28,8.304
-7,-90,8.305
-6,-200,8.306
-5,-224,8.307
1,-237,8.308
16,-326,8.309
30,-416,8.31
33,-356,8.311
16,-123,8.312
-6,154,8.313
-20,383,8.314
-19,500,8.315
-14,482,8.316
-8,314,8.317
8,33,8.318
32,-232,8.319
46,-313,8.32
42,-181,8.321
33,-2,8.322
28,70,8.323
21,53,8.324
12,44,8.325
9,41,8.326
18,-3,8.327
23,-60,8.328
14,-72,8.329
-4,-73,8.33
-14,-121,8.331
-15,-195,8.332
-17,-247,8.333
-19,-302,8.334
-17,-369,8.335
-7,-383,8.336
2,-294,8.337
7,-148,8.338
11,-12,8.339
10,127,8.34
4,277,8.341
-2,346,8.342
-1,220,8.343
4,-92,8.344
4,-431,8.345
2,-552,8.346
5,-269,8.347
15,323,8.348
17,793,8.349
14,768,8.35
12,412,8.351
11,259,8.352
3,492,8.353
-10,754,8.354
-21,620,8.355
-22,202,8.356
-20,-52,8.357
-20,-24,8.358
-17,7,8.359
-11,-101,8.36
-4,-191,8.361
-1,-168,8.362
2,-164,8.363
3,-264,8.364
-4,-359,8.365
-14,-371,8.366
-8,-386,8.367
20,-465,8.368
48,-537,8.369
52,-505,8.37
32,-341,8.371
8,-63,8.372
-2,224,8.373
0,374,8.374
5,295,8.375
7,126,8.376
3,79,8.377
1,148,8.378
10,172,8.379
20,111,8.38
21,66,8.381
8,59,8.382
-6,19,8.383
-8,-40,8.384
0,-34,8.385
7,30,8.386
8,50,8.387
3,10,8.388
-3,-3,8.389
-11,28,8.39
-19,9,8.391
-24,-102,8.392
-23,-219,8.393
-21,-262,8.394
-19,-217,8.395
-19,-123,8.396
-21,-39,8.397
-18,-39,8.398
-5,-215,8.399
17,-540,8.4
37,-780,8.401
48,-646,8.402
50,-89,8.403
43,589,8.404
29,1008,8.405
19,1047,8.406
19,869,8.407
23,621,8.408
18,321,8.409
5,24,8.41
-2,-102,8.411
-2,15,8.412
-3,190,8.413
-11,206,8.414
-13,41,8.415
-16,-143,8.416
-16,-261,8.417
-15,-383,8.418
-14,-558,8.419
-13,-650,8.42
-13,-459,8.421
-14,7,8.422
-16,428,8.423
-17,467,8.424
-9,162,8.425
-2,-101,8.426
0,-84,8.427
5,20,8.428
15,-70,8.429
25,-292,8.43
31,-388,8.431
35,-316,8.432
28,-262,8.433
20,-318,8.434
8,-363,8.435
-2,-238,8.436
-10,94,8.437
-19,564,8.438
-19,980,8.439
-10,1114,8.44
-2,894,8.441
-2,508,8.442
-3,184,8.443
-2,-36,8.444
0,-202,8.445
-4,-259,8.446
-2,-143,8.447
7,17,8.448
15,14,8.449
13,-170,8.45
9,-332,8.451
6,-386,8.452
1,-500,8.453
-4,-860,8.454
-6,-1259,8.455
-5,-1235,8.456
-4,-622,8.457
-2,161,8.458
5,528,8.459
13,398,8.46
13,242,8.461
6,452,8.462
5,841,8.463
13,949,8.464
21,683,8.465
24,390,8.466
20,345,8.467
8,415,8.468
-10,343,8.469
-25,152,8.47
-28,57,8.471
-25,78,8.472
-21,44,8.473
-21,-95,8.474
-18,-179,8.475
-17,-240,8.476
-21,-232,8.477
-20,-237,8.478
-7,-286,8.479
7,-313,8.48
11,-270,8.481
7,-237,8.482
14,-239,8.483
31,-233,8.484
46,-195,8.485
46,-184,8.486
31,-254,8.487
15,-277,8.488
10,-158,8.489
22,-41,8.49
37,71,8.491
40,156,8.492
29,157,8.493
13,139,8.494
7,57,8.495
1,-6,8.496
-5,-26,8.497
-10,-15,8.498
-8,-3,8.499
-7,-18,8.5
-9,-71,8.501
-13,-148,8.502
-17,-207,8.503
-20,-204,8.504
-19,-129,8.505
-17,-14,8.506
-13,117,8.507
-8,286,8.508
-5,467,8.509
-3,521,8.51
-3,351,8.511
-1,100,8.512
0,9,8.513
2,73,8.514
-1,52,8.515
-5,-166,8.516
-3,-362,8.517
3,-300,8.518
11,-81,8.519
8,50,8.52
-2,65,8.521
-14,116,8.522
-14,231,8.523
-6,289,8.524
0,231,8.525
5,134,8.526
9,73,8.527
12,43,8.528
11,29,8.529
6,14,8.53
3,-26,8.531
3,-110,8.532
4,-199,8.533
3,-272,8.534
2,-342,8.535
3,-405,8.536
1,-388,8.537
-4,-244,8.538
-6,-71,8.539
-1,20,8.54
9,82,8.541
21,233,8.542
28,415,8.543
29,443,8.544
22,280,8.545
16,123,8.546
14,136,8.547
15,242,8.548
11,248,8.549
2,119,8.55
-3,-19,8.551
-5,-81,8.552
-7,-107,8.553
-13,-158,8.554
-14,-195,8.555
-12,-188,8.556
-11,-196,8.557
-8,-253,8.558
-1,-268,8.559
1,-156,8.56
-3,-7,8.561
-9,35,8.562
-3,10,8.563
11,79,8.564
17,235,8.565
10,298,8.566
3,193,8.567
3,43,8.568
7,-33,8.569
10,-87,8.57
7,-200,8.571
4,-315,8.572
2,-319,8.573
-2,-188,8.574
-8,-19,8.575
-11,81,8.576
-12,108,8.577
-10,136,8.578
-6,191,8.579
-4,232,8.58
-7,225,8.581
-12,187,8.582
-12,135,8.583
-7,65,8.584
-4,-9,8.585
0,-52,8.586
10,-65,8.587
22,-86,8.588
26,-125,8.589
21,-167,8.59
15,-215,8.591
12,-257,8.592
10,-234,8.593
0,-112,8.594
-10,36,8.595
-18,104,8.596
-16,100,8.597
-7,97,8.598
3,88,8.599
6,41,8.6
0,1,8.601
-4,25,8.602
5,64,8.603
19,62,8.604
22,69,8.605
12,130,8.606
2,162,8.607
1,65,8.608
3,-117,8.609
0,-257,8.61
-5,-287,8.611
-1,-202,8.612
5,-29,8.613
3,172,8.614
-7,269,8.615
-17,217,8.616
-20,118,8.617
-14,64,8.618
2,32,8.619
20,-10,8.62
25,-24,8.621
16,-1,8.622
6,-10,8.623
6,-83,8.624
8,-135,8.625
7,-104,8.626
10,-41,8.627
16,-4,8.628
16,31,8.629
6,82,8.63
-5,81,8.631
-10,-20,8.632
-14,-154,8.633
-22,-235,8.634
-27,-204,8.635
-17,-82,8.636
-1,57,8.637
10,131,8.638
16,79,8.639
21,-61,8.64
21,-165,8.641
15,-133,8.642
10,-8,8.643
13,83,8.644
16,69,8.645
9,3,8.646
-2,-39,8.647
-3,-35,8.648
-4,10,8.649
-6,115,8.65
-6,251,8.651
0,311,8.652
5,237,8.653
2,113,8.654
-4,65,8.655
-6,28,8.656
-7,24,8.657
-9,9,8.658
-7,-36,8.659
4,-70,8.66
13,-68,8.661
13,-59,8.662
13,-33,8.663
20,-22,8.664
25,-62,8.665
22,-67,8.666
16,33,8.667
13,95,8.668
11,41,8.669
2,-17,8.67
-5,-93,8.671
-9,-129,8.672
-12,-45,8.673
-10,18,8.674
3,-3,8.675
15,-31,8.676
15,-48,8.677
12,-51,8.678
2,-17,8.679
-6,53,8.68
-13,88,8.681
-20,42,8.682
-26,-26,8.683
-34,-46,8.684
-42,-40,8.685
-46,-70,8.686
-33,-136,8.687
-18,-183,8.688
0,-165,8.689
13,-59,8.69
15,103,8.691
18,233,8.692
18,251,8.693
19,159,8.694
28,45,8.695
29,-29,8.696
22,-60,8.697
18,-47,8.698
22,-3,8.699
24,12,8.7
15,-53,8.701
2,-139,8.702
-2,-137,8.703
-3,-45,8.704
-8,48,8.705
-15,100,8.706
-13,131,8.707
0,137,8.708
19,93,8.709
42,38,8.71
64,31,8.711
64,51,8.712
38,39,8.713
0,7,8.714
-27,20,8.715
-45,57,8.716
-32,14,8.717
-17,-122,8.718
4,-235,8.719
13,-217,8.72
-14,-105,8.721
-33,-22,8.722
-25,-35,8.723
-11,-97,8.724
14,-120,8.725
32,-64,8.726
24,37,8.727
18,115,8.728
22,153,8.729
25,191,8.73
22,247,8.731
17,235,8.732
4,75,8.733
-14,-156,8.734
-45,-179,8.735
-69,92,8.736
-70,325,8.737
-52,187,8.738
-21,-164,8.739
18,-289,8.74
47,-131,8.741
42,-53,8.742
8,-209,8.743
-21,-319,8.744
-23,-171,8.745
-11,50,8.746
-2,118,8.747
4,96,8.748
15,107,8.749
19,94,8.75
17,25,8.751
19,23,8.752
28,121,8.753
28,168,8.754
15,67,8.755
1,-48,8.756
-2,-45,8.757
-4,3,8.758
-8,-16,8.759
-1,-51,8.76
12,-24,8.761
17,1,8.762
9,-42,8.763
6,-102,8.764
17,-104,8.765
30,-58,8.766
35,4,8.767
33,76,8.768
30,112,8.769
28,66,8.77
26,-10,8.771
25,-21,8.772
19,22,8.773
6,44,8.774
-7,46,8.775
-12,85,8.776
-10,118,8.777
-18,49,8.778
-29,-87,8.779
-29,-122,8.78
-19,13,8.781
-12,193,8.782
-15,260,8.783
-18,149,8.784
-17,-105,8.785
-20,-373,8.786
-27,-465,8.787
-25,-313,8.788
-15,-68,8.789
-8,77,8.79
-8,96,8.791
-5,75,8.792
5,55,8.793
9,25,8.794
1,27,8.795
-10,73,8.796
-17,89,8.797
-16,27,8.798
-10,-44,8.799
-3,-28,8.8
0,64,8.801
5,135,8.802
14,113,8.803
25,19,8.804
28,-51,8.805
30,-27,8.806
38,30,8.807
50,-29,8.808
51,-212,8.809
37,-318,8.81
23,-209,8.811
19,1,8.812
17,127,8.813
4,156,8.814
-13,145,8.815
-24,84,8.816
-25,-43,8.817
-13,-149,8.818
6,-136,8.819
23,-32,8.82
20,73,8.821
4,151,8.822
-10,205,8.823
-12,226,8.824
-10,213,8.825
-8,165,8.826
-3,47,8.827
6,-112,8.828
8,-149,8.829
-6,32,8.83
-25,235,8.831
-36,169,8.832
-33,-126,8.833
-20,-410,8.834
-2,-477,8.835
8,-385,8.836
7,-203,8.837
2,108,8.838
3,434,8.839
5,462,8.84
-3,93,8.841
-14,-328,8.842
-13,-429,8.843
0,-251,8.844
11,-71,8.845
13,17,8.846
14,95,8.847
15,149,8.848
18,108,8.849
21,42,8.85
20,67,8.851
6,122,8.852
-18,96,8.853
-40,17,8.854
-44,26,8.855
-34,127,8.856
-21,186,8.857
-2,135,8.858
27,20,8.859
63,-86,8.86
90,-144,8.861
97,-144,8.862
83,-114,8.863
47,-87,8.864
2,-57,8.865
-33,-9,8.866
-51,22,8.867
-51,14,8.868
-40,3,8.869
-23,26,8.87
-5,42,8.871
6,30,8.872
7,47,8.873
2,137,8.874
0,212,8.875
-1,151,8.876
4,-24,8.877
17,-157,8.878
35,-169,8.879
51,-123,8.88
60,-98,8.881
61,-84,8.882
49,-48,8.883
15,-17,8.884
-31,-22,8.885
-57,-39,8.886
-47,-31,8.887
-19,-1,8.888
-9,26,8.889
-23,44,8.89
-28,59,8.891
-10,66,8.892
11,58,8.893
4,42,8.894
-31,49,8.895
-66,80,8.896
-75,100,8.897
-62,85,8.898
-41,33,8.899
-20,-29,8.9
-3,-76,8.901
8,-73,8.902
15,19,8.903
17,180,8.904
13,284,8.905
-3,199,8.906
-26,-57,8.907
-41,-310,8.908
-44,-422,8.909
-38,-404,8.91
-16,-315,8.911
21,-163,8.912
59,11,8.913
78,128,8.914
75,131,8.915
67,88,8.916
72,87,8.917
86,110,8.918
87,90,8.919
61,41,8.92
11,7,8.921
-29,-13,8.922
-26,-38,8.923
15,-33,8.924
50,34,8.925
43,135,8.926
12,224,8.927
-5,259,8.928
-8,188,8.929
-17,4,8.93
-31,-187,8.931
-27,-257,8.932
-3,-212,8.933
38,-157,8.934
94,-137,8.935
149,-110,8.936
162,-59,8.937
104,-18,8.938
15,4,8.939
-59,45,8.94
-124,94,8.941
-193,101,8.942
-235,69,8.943
-202,47,8.944
-119,47,8.945
-52,37,8.946
-23,19,8.947
2,17,8.948
33,26,8.949
42,17,8.95
14,0,8.951
-11,-2,8.952
-3,6,8.953
22,0,8.954
34,-13,8.955
26,-15,8.956
19,-12,8.957
17,-8,8.958
18,15,8.959
27,79,8.96
49,155,8.961
69,187,8.962
61,133,8.963
32,11,8.964
13,-101,8.965
20,-131,8.966
33,-74,8.967
30,-4,8.968
20,20,8.969
22,24,8.97
31,50,8.971
31,75,8.972
15,43,8.973
-5,-69,8.974
-15,-212,8.975
-19,-326,8.976
-24,-369,8.977
-30,-313,8.978
-38,-174,8.979
-46,-15,8.98
-51,105,8.981
-39,175,8.982
-9,209,8.983
24,213,8.984
43,175,8.985
48,91,8.986
38,-6,8.987
6,-45,8.988
-40,9,8.989
-65,96,8.99
-51,114,8.991
-22,34,8.992
-11,-62,8.993
-9,-130,8.994
10,-152,8.995
25,-128,8.996
28,-51,8.997
33,50,8.998
45,126,8.999
54,210,9.0
54,363,9.001
56,496,9.002
68,390,9.003
71,11,9.004
49,-361,9.005
30,-464,9.006
18,-366,9.007
20,-299,9.008
68,-314,9.009
92,-285,9.01
43,-180,9.011
-21,-87,9.012
-130,-33,9.013
-224,42,9.014
-234,129,9.015
-194,144,9.016
-160,86,9.017
-143,62,9.018
-117,103,9.019
-77,133,9.02
-38,114,9.021
-1,90,9.022
55,91,9.023
122,85,9.024
160,62,9.025
149,54,9.026
106,69,9.027
57,89,9.028
16,116,9.029
-7,157,9.03
-5,160,9.031
0,78,9.032
-20,-32,9.033
-57,-94,9.034
-53,-93,9.035
10,-88,9.036
76,-93,9.037
83,-57,9.038
56,15,9.039
47,46,9.04
53,14,9.041
40,-35,9.042
18,-82,9.043
25,-154,9.044
52,-230,9.045
60,-234,9.046
44,-155,9.047
34,-67,9.048
30,-18,9.049
9,22,9.05
-30,78,9.051
-55,110,9.052
-53,82,9.053
-42,15,9.054
-36,-13,9.055
-33,5,9.056
-20,3,9.057
-1,-49,9.058
21,-90,9.059
44,-62,9.06
55,-12,9.061
47,-7,9.062
30,-8,9.063
6,67,9.064
-30,179,9.065
-82,202,9.066
-111,121,9.067
-83,48,9.068
-25,48,9.069
19,81,9.07
49,121,9.071
97,182,9.072
136,227,9.073
91,164,9.074
-42,-8,9.075
-165,-170,9.076
-192,-232,9.077
-148,-224,9.078
-103,-216,9.079
-62,-210,9.08
7,-191,9.081
88,-151,9.082
146,-85,9.083
170,1,9.084
166,47,9.085
120,12,9.086
33,-33,9.087
-39,-6,9.088
-46,59,9.089
-16,73,9.09
-16,40,9.091
-54,23,9.092
-75,24,9.093
-54,0,9.094
-22,-22,9.095
-13,6,9.096
-17,54,9.097
-13,58,9.098
-6,40,9.099
-9,76,9.1
-10,157,9.101
10,181,9.102
51,109,9.103
90,15,9.104
104,-32,9.105
89,-53,9.106
48,-68,9.107
2,-41,9.108
-30,37,9.109
-48,98,9.11
-58,84,9.111
-47,46,9.112
-11,55,9.113
38,96,9.114
63,116,9.115
54,118,9.116
39,125,9.117
42,115,9.118
75,94,9.119
126,160,9.12
163,326,9.121
134,348,9.122
14,-20,9.123
-149,-654,9.124
-258,-1129,9.125
-265,-1201,9.126
-219,-973,9.127
-188,-618,9.128
-168,-203,9.129
-118,167,9.13
-51,330,9.131
-18,286,9.132
-16,223,9.133
7,248,9.134
65,297,9.135
113,320,9.136
137,368,9.137
167,434,9.138
197,404,9.139
169,273,9.14
77,170,9.141
-8,120,9.142
-41,14,9.143
-65,-134,9.144
-108,-166,9.145
-123,-50,9.146
-78,51,9.147
-19,70,9.148
5,91,9.149
22,128,9.15
62,73,9.151
100,-69,9.152
96,-168,9.153
68,-224,9.154
55,-349,9.155
49,-534,9.156
25,-595,9.157
-5,-439,9.158
-7,-189,9.159
14,23,9.16
24,172,9.161
15,225,9.162
6,161,9.163
7,56,9.164
4,30,9.165
-5,71,9.166
-16,91,9.167
-21,128,9.168
-18,257,9.169
-10,386,9.17
-2,336,9.171
-3,114,9.172
-7,-87,9.173
-12,-196,9.174
-14,-255,9.175
-19,-278,9.176
-23,-188,9.177
-10,14,9.178
21,174,9.179
43,202,9.18
32,181,9.181
10,199,9.182
8,216,9.183
32,182,9.184
48,154,9.185
37,195,9.186
15,254,9.187
5,252,9.188
2,192,9.189
-9,109,9.19
-31,4,9.191
-54,-134,9.192
-74,-259,9.193
-74,-333,9.194
-24,-322,9.195
82,-237,9.196
190,-121,9.197
230,-31,9.198
191,-4,9.199
96,-18,9.2
-28,-26,9.201
-155,4,9.202
-245,80,9.203
-266,154,9.204
-239,120,9.205
-196,-101,9.206
-148,-424,9.207
-86,-665,9.208
-13,-738,9.209
47,-690,9.21
82,-534,9.211
103,-237,9.212
131,95,9.213
159,307,9.214
157,336,9.215
93,312,9.216
-15,332,9.217
-107,327,9.218
-144,254,9.219
-141,202,9.22
-122,214,9.221
-75,190,9.222
10,97,9.223
91,58,9.224
115,127,9.225
87,176,9.226
61,114,9.227
51,39,9.228
36,44,9.229
4,40,9.23
-24,-54,9.231
-37,-144,9.232
-52,-109,9.233
-72,22,9.234
-60,122,9.235
1,134,9.236
94,76,9.237
170,-38,9.238
203,-188,9.239
200,-305,9.24
179,-324,9.241
150,-248,9.242
90,-121,9.243
-11,2,9.244
-104,73,9.245
-115,84,9.246
-43,83,9.247
25,103,9.248
36,110,9.249
7,83,9.25
-27,66,9.251
-62,94,9.252
-88,128,9.253
-82,121,9.254
-44,91,9.255
-17,64,9.256
-28,31,9.257
-52,-7,9.258
-66,-28,9.259
-76,-30,9.26
-92,-30,9.261
-102,-12,9.262
-75,63,9.263
-16,171,9.264
36,224,9.265
43,196,9.266
28,143,9.267
36,99,9.268
79,8,9.269
123,-176,9.27
142,-399,9.271
125,-548,9.272
61,-569,9.273
-55,212,9.274
-152,102,9.275
-167,-3,9.276
-130,-82,9.277
-117,-174,9.278
-110,-316,9.279
-34,-450,9.28
98,-550,9.281
178,-563,9.282
160,-311,9.283
107,-82,9.284
61,77,9.285
10,168,9.286
-37,53,9.287
-37,-30,9.288
1,-16,9.289
18,4,9.29
3,33,9.291
7,55,9.292
32,36,9.293
33,33,9.294
19,-12,9.295
15,-55,9.296
39,-87,9.297
50,-125,9.298
20,-183,9.299
2,-238,9.3
23,-279,9.301
37,-284,9.302
29,-181,9.303
12,-87,9.304
-26,-22,9.305
-54,15,9.306
-46,-32,9.307
-48,-66,9.308
-84,-60,9.309
-106,-52,9.31
-85,-40,9.311
-64,-31,9.312
-44,-39,9.313
-23,-29,9.314
13,22,9.315
59,21,9.316
66,-5,9.317
47,17,9.318
51,72,9.319
76,98,9.32
75,116,9.321
32,192,9.322
-11,308,9.323
-31,360,9.324
-40,277,9.325
-34,102,9.326
-6,-69,9.327
29,-177,9.328
41,-206,9.329
28,-144,9.33
18,0,9.331
18,135,9.332
14,155,9.333
-3,47,9.334
-14,-66,9.335
-16,-94,9.336
-26,-69,9.337
-52,-36,9.338
-66,32,9.339
-39,128,9.34
2,142,9.341
13,19,9.342
-7,-123,9.343
-10,-160,9.344
9,-143,9.345
8,-179,9.346
-25,-243,9.347
-40,-246,9.348
-1,-196,9.349
50,-155,9.35
54,-106,9.351
22,-2,9.352
5,109,9.353
7,140,9.354
6,85,9.355
-1,14,9.356
7,-29,9.357
29,-48,9.358
43,-44,9.359
46,2,9.36
51,75,9.361
53,120,9.362
38,114,9.363
5,96,9.364
-21,100,9.365
-28,113,9.366
-31,104,9.367
-38,80,9.368
-36,62,9.369
-5,53,9.37
42,44,9.371
73,40,9.372
80,53,9.373
76,75,9.374
70,82,9.375
45,64,9.376
-8,38,9.377
-56,24,9.378
-58,7,9.379
-17,-19,9.38
16,-41,9.381
7,-44,9.382
-32,-34,9.383
-60,-34,9.384
-58,-40,9.385
-48,-37,9.386
-56,-17,9.387
-66,6,9.388
-41,8,9.389
3,-24,9.39
18,-72,9.391
-12,-101,9.392
-36,-105,9.393
-20,-106,9.394
10,-98,9.395
22,-43,9.396
25,60,9.397
34,158,9.398
36,200,9.399
24,200,9.4
32,193,9.401
68,169,9.402
86,116,9.403
45,52,9.404
-31,-19,9.405
-82,-137,9.406
-91,-311,9.407
-67,-450,9.408
-21,-466,9.409
28,-388,9.41
48,-289,9.411
30,-177,9.412
-1,-46,9.413
-26,63,9.414
-44,86,9.415
-52,55,9.416
-28,44,9.417
27,62,9.418
81,63,9.419
95,64,9.42
79,117,9.421
52,194,9.422
22,227,9.423
-16,217,9.424
-58,203,9.425
-84,183,9.426
-74,125,9.427
-29,46,9.428
17,-9,9.429
31,-38,9.43
19,-65,9.431
21,-79,9.432
44,-69,9.433
56,-55,9.434
41,-61,9.435
16,-68,9.436
4,-50,9.437
2,-20,9.438
6,-15,9.439
19,-27,9.44
25,-30,9.441
8,-18,9.442
-15,-10,9.443
-9,-17,9.444
15,-24,9.445
12,-20,9.446
-13,-3,9.447
-16,18,9.448
10,41,9.449
20,57,9.45
5,63,9.451
0,60,9.452
10,53,9.453
-4,42,9.454
-38,39,9.455
-43,50,9.456
3,64,9.457
41,66,9.458
30,35,9.459
5,-21,9.46
7,-74,9.461
10,-100,9.462
-17,-94,9.463
-51,-72,9.464
-46,-49,9.465
-7,-34,9.466
42,-28,9.467
97,-31,9.468
148,-36,9.469
159,-34,9.47
105,-18,9.471
13,3,9.472
-75,23,9.473
-157,33,9.474
-219,44,9.475
-228,69,9.476
-168,113,9.477
-83,163,9.478
-21,188,9.479
18,181,9.48
57,182,9.481
86,232,9.482
98,304,9.483
107,291,9.484
114,125,9.485
78,-118,9.486
-21,-293,9.487
-131,-348,9.488
-183,-354,9.489
-169,-371,9.49
-119,-360,9.491
-45,-287,9.492
40,-188,9.493
105,-97,9.494
122,-14,9.495
103,39,9.496
75,-3,9.497
36,-128,9.498
-15,-232,9.499
-47,-243,9.5
-28,-193,9.501
27,-119,9.502
75,6,9.503
93,179,9.504
80,336,9.505
36,459,9.506
-20,589,9.507
-54,697,9.508
-38,692,9.509
13,574,9.51
56,456,9.511
61,381,9.512
42,279,9.513
27,80,9.514
33,-156,9.515
39,-367,9.516
28,-574,9.517
7,-775,9.518
2,-867,9.519
13,-767,9.52
16,-560,9.521
0,-432,9.522
-14,-441,9.523
-14,-457,9.524
-7,-316,9.525
-4,19,9.526
0,428,9.527
7,731,9.528
5,793,9.529
-9,613,9.53
-33,311,9.531
-59,38,9.532
-80,-119,9.533
-85,-194,9.534
-67,-259,9.535
-44,-373,9.536
-41,-489,9.537
-56,-479,9.538
-59,-318,9.539
-44,-123,9.54
-21,14,9.541
4,145,9.542
34,310,9.543
50,407,9.544
35,327,9.545
8,106,9.546
9,-147,9.547
40,-367,9.548
65,-499,9.549
65,-472,9.55
55,-295,9.551
48,-88,9.552
40,68,9.553
25,240,9.554
19,461,9.555
26,636,9.556
40,656,9.557
49,562,9.558
49,462,9.559
40,373,9.56
17,237,9.561
-11,66,9.562
-25,-57,9.563
-19,-108,9.564
2,-144,9.565
24,-187,9.566
33,-178,9.567
21,-95,9.568
-7,-8,9.569
-29,36,9.57
-34,78,9.571
-26,144,9.572
-10,175,9.573
22,112,9.574
62,-1,9.575
76,-101,9.576
45,-182,9.577
3,-247,9.578
-8,-249,9.579
-1,-164,9.58
-8,-45,9.581
-27,45,9.582
-36,93,9.583
-30,103,9.584
-33,64,9.585
-52,-8,9.586
-71,-79,9.587
-72,-127,9.588
-56,-145,9.589
-30,-117,9.59
-7,-49,9.591
5,12,9.592
9,30,9.593
9,21,9.594
9,35,9.595
3,82,9.596
1,131,9.597
14,172,9.598
28,205,9.599
17,222,9.6
-13,213,9.601
-30,187,9.602
-26,163,9.603
-23,148,9.604
-28,131,9.605
-21,82,9.606
4,-13,9.607
13,-122,9.608
-6,-198,9.609
-14,-251,9.61
10,-334,9.611
38,-436,9.612
40,-469,9.613
29,-377,9.614
31,-205,9.615
37,-53,9.616
32,13,9.617
25,-9,9.618
31,-99,9.619
34,-181,9.62
15,-169,9.621
-11,-55,9.622
-11,70,9.623
2,143,9.624
-7,178,9.625
-36,205,9.626
-39,211,9.627
-1,180,9.628
34,139,9.629
17,112,9.63
-35,84,9.631
-68,41,9.632
-65,2,9.633
-50,-16,9.634
-36,-21,9.635
-15,-28,9.636
16,-40,9.637
46,-48,9.638
62,-45,9.639
60,-41,9.64
47,-33,9.641
43,-22,9.642
56,-7,9.643
70,5,9.644
51,9,9.645
6,14,9.646
-26,24,9.647
-25,34,9.648
-11,38,9.649
-7,41,9.65
-16,42,9.651
-21,41,9.652
-15,31,9.653
-7,27,9.654
-12,35,9.655
-17,32,9.656
-23,23,9.657
-23,37,9.658
0,81,9.659
16,135,9.66
7,166,9.661
3,155,9.662
16,115,9.663
26,86,9.664
23,84,9.665
19,84,9.666
12,62,9.667
5,32,9.668
2,-3,9.669
0,-87,9.67
4,-246,9.671
8,-401,9.672
14,-446,9.673
21,-370,9.674
21,-234,9.675
12,-96,9.676
2,6,9.677
-4,28,9.678
-5,-44,9.679
-8,-127,9.68
-15,-132,9.681
-18,-83,9.682
-12,-49,9.683
0,-32,9.684
12,4,9.685
16,39,9.686
14,36,9.687
10,24,9.688
4,47,9.689
-3,84,9.69
-9,95,9.691
-11,92,9.692
-13,111,9.693
-19,126,9.694
-17,108,9.695
-8,91,9.696
-3,73,9.697
-8,60,9.698
-13,62,9.699
-1,74,9.7
19,116,9.701
30,151,9.702
27,167,9.703
21,168,9.704
20,125,9.705
22,85,9.706
23,55,9.707
24,19,9.708
23,-35,9.709
15,-85,9.71
1,-119,9.711
-9,-153,9.712
-14,-187,9.713
-20,-212,9.714
-25,-166,9.715
-28,-63,9.716
-25,28,9.717
-18,64,9.718
-4,39,9.719
7,-35,9.72
11,-128,9.721
13,-190,9.722
10,-185,9.723
8,-133,9.724
9,-86,9.725
9,-56,9.726
2,-32,9.727
-3,-8,9.728
-1,9,9.729
0,27,9.73
2,45,9.731
2,54,9.732
-6,55,9.733
-13,70,9.734
-17,92,9.735
-13,103,9.736
-6,77,9.737
-2,60,9.738
8,68,9.739
23,70,9.74
29,50,9.741
22,40,9.742
16,65,9.743
18,88,9.744
15,103,9.745
3,118,9.746
-3,132,9.747
1,143,9.748
8,140,9.749
4,122,9.75
1,60,9.751
8,-15,9.752
20,-132,9.753
23,-251,9.754
21,-336,9.755
18,-328,9.756
8,-258,9.757
-4,-177,9.758
-24,-108,9.759
-40,-39,9.76
-41,20,9.761
-39,53,9.762
-27,62,9.763
-15,67,9.764
-5,58,9.765
2,25,9.766
3,-11,9.767
5,-19,9.768
4,-10,9.769
3,-13,9.77
7,-24,9.771
8,-14,9.772
2,9,9.773
-5,19,9.774
-3,20,9.775
-1,31,9.776
-1,41,9.777
1,37,9.778
16,29,9.779
32,30,9.78
31,30,9.781
21,15,9.782
18,8,9.783
21,19,9.784
20,36,9.785
15,46,9.786
13,58,9.787
13,72,9.788
9,67,9.789
-1,34,9.79
-4,-2,9.791
0,-13,9.792
4,-4,9.793
3,7,9.794
-3,18,9.795
-8,34,9.796
-10,49,9.797
-1,78,9.798
18,142,9.799
30,236,9.8
24,309,9.801
13,295,9.802
12,184,9.803
13,41,9.804
-4,-84,9.805
-40,-200,9.806
-60,-335,9.807
-42,-475,9.808
-8,-565,9.809
8,-582,9.81
0,-540,9.811
-8,-456,9.812
-3,-343,9.813
2,-212,9.814
-3,-96,9.815
-7,-4,9.816
-9,77,9.817
-9,154,9.818
-1,201,9.819
5,213,9.82
6,216,9.821
7,222,9.822
7,213,9.823
8,186,9.824
12,164,9.825
14,156,9.826
9,147,9.827
5,127,9.828
4,113,9.829
3,108,9.83
4,97,9.831
5,75,9.832
5,55,9.833
5,45,9.834
8,37,9.835
12,24,9.836
14,9,9.837
13,4,9.838
17,3,9.839
24,0,9.84
28,-1,9.841
24,3,9.842
18,7,9.843
15,9,9.844
10,19,9.845
0,47,9.846
-8,79,9.847
-9,106,9.848
-9,117,9.849
-11,107,9.85
-12,58,9.851
-5,-35,9.852
3,-144,9.853
3,-254,9.854
-4,-327,9.855
-10,-335,9.856
-11,-275,9.857
-12,-168,9.858
-11,-75,9.859
-7,-25,9.86
-4,1,9.861
-6,33,9.862
-8,55,9.863
-6,50,9.864
-4,35,9.865
-4,41,9.866
-8,56,9.867
-4,55,9.868
5,40,9.869
13,36,9.87
15,48,9.871
10,60,9.872
5,67,9.873
-1,71,9.874
-2,75,9.875
-1,74,9.876
-1,70,9.877
-3,69,9.878
-3,63,9.879
2,49,9.88
6,35,9.881
4,20,9.882
2,-6,9.883
7,-47,9.884
13,-85,9.885
16,-107,9.886
16,-116,9.887
14,-115,9.888
10,-103,9.889
7,-89,9.89
8,-87,9.891
10,-96,9.892
13,-95,9.893
10,-74,9.894
4,-47,9.895
-3,-24,9.896
-10,8,9.897
-12,52,9.898
-4,76,9.899
4,63,9.9
5,42,9.901
-4,44,9.902
-9,55,9.903
-7,51,9.904
0,37,9.905
2,34,9.906
0,38,9.907
-1,36,9.908
0,32,9.909
1,30,9.91
-1,30,9.911
0,29,9.912
6,33,9.913
12,42,9.914
13,56,9.915
9,61,9.916
6,54,9.917
8,41,9.918
17,21,9.919
25,-3,9.92
24,-26,9.921
15,-48,9.922
6,-73,9.923
4,-95,9.924
3,-101,9.925
-1,-89,9.926
-5,-72,9.927
-5,-53,9.928
-4,-27,9.929
-5,2,9.93
-6,24,9.931
-5,30,9.932
0,29,9.933
2,22,9.934
1,14,9.935
-3,5,9.936
-6,-2,9.937
-8,-2,9.938
-4,1,9.939
3,8,9.94
6,16,9.941
3,22,9.942
2,22,9.943
5,19,9.944
11,16,9.945
12,12,9.946
8,9,9.947
4,12,9.948
0,24,9.949
-1,36,9.95
-1,41,9.951
0,35,9.952
1,16,9.953
2,-15,9.954
7,-51,9.955
6,-82,9.956
0,-104,9.957
-3,-103,9.958
3,-68,9.959
11,-7,9.96
5,43,9.961
-8,58,9.962
-14,48,9.963
-6,36,9.964
1,21,9.965
2,-14,9.966
4,-54,9.967
11,-61,9.968
17,-26,9.969
16,25,9.97
9,61,9.971
2,82,9.972
-4,100,9.973
-12,99,9.974
-11,67,9.975
-4,13,9.976
2,-25,9.977
4,-29,9.978
4,-18,9.979
5,-15,9.98
4,-15,9.981
0,0,9.982
0,25,9.983
2,31,9.984
2,8,9.985
-3,1,9.986
-8,40,9.987
-5,95,9.988
-2,98,9.989
-1,36,9.99
-2,-48,9.991
-2,-114,9.992
-1,-158,9.993
-2,-193,9.994
-1,-209,9.995
0,-219,9.996
1,-212,9.997
1,-193,9.998
5,-143,9.999
10,-91,10.0
10,-32,10.001
6,9,10.002
3,0,10.003
7,1,10.004
13,41,10.005
19,79,10.006
23,113,10.007
24,146,10.008
19,174,10.009
11,199,10.01
4,216,10.011
-1,226,10.012
-4,212,10.013
-9,189,10.014
-6,138,10.015
-3,104,10.016
1,119,10.017
4,171,10.018
7,182,10.019
9,141,10.02
6,122,10.021
4,151,10.022
2,131,10.023
1,-44,10.024
2,-325,10.025
2,-555,10.026
0,-659,10.027
-3,-678,10.028
-2,-634,10.029
-1,-494,10.03
-1,-277,10.031
0,-87,10.032
-2,13,10.033
-4,73,10.034
-5,142,10.035
-7,189,10.036
-12,184,10.037
-15,173,10.038
-12,195,10.039
-8,216,10.04
-10,197,10.041
-16,161,10.042
-18,152,10.043
-15,167,10.044
-11,179,10.045
-10,196,10.046
-2,224,10.047
11,231,10.048
20,191,10.049
19,129,10.05
14,69,10.051
13,0,10.052
21,-85,10.053
31,-173,10.054
37,-227,10.055
32,-244,10.056
22,-234,10.057
19,-188,10.058
29,-109,10.059
40,-7,10.06
34,101,10.061
16,192,10.062
0,227,10.063
-3,190,10.064
-4,108,10.065
-7,19,10.066
-11,-72,10.067
-12,-171,10.068
-9,-253,10.069
-8,-284,10.07
-6,-264,10.071
-6,-220,10.072
-4,-165,10.073
-4,-98,10.074
-9,-30,10.075
-18,21,10.076
-24,52,10.077
-21,74,10.078
-11,91,10.079
-1,114,10.08
2,151,10.081
0,194,10.082
-2,205,10.083
1,174,10.084
3,121,10.085
5,69,10.086
7,9,10.087
6,-56,10.088
2,-100,10.089
-3,-103,10.09
-7,-88,10.091
-6,-73,10.092
-1,-52,10.093
6,-14,10.094
11,19,10.095
9,23,10.096
3,7,10.097
-2,1,10.098
2,0,10.099
15,-11,10.1
22,-16,10.101
18,-5,10.102
9,10,10.103
6,6,10.104
8,-6,10.105
6,-6,10.106
0,-9,10.107
-1,-24,10.108
0,-37,10.109
-1,-25,10.11
-6,-4,10.111
-9,-3,10.112
-7,-12,10.113
-10,-14,10.114
-14,-2,10.115
-18,8,10.116
-17,6,10.117
-9,5,10.118
3,6,10.119
14,7,10.12
17,11,10.121
15,17,10.122
14,22,10.123
18,20,10.124
20,20,10.125
14,23,10.126
8,23,10.127
5,12,10.128
