Deltoid,Bicep,Time
-8.0,-3.0,0.0
-7.0,-8.0,0.001
-6.0,-9.0,0.002
1.0,-8.0,0.003
12.0,-5.0,0.004
18.0,0.0,0.005
13.0,4.0,0.006
6.0,0.0,0.007
6.0,-3.0,0.008
8.0,-2.0,0.009
6.0,0.0,0.01
5.0,-1.0,0.011
3.0,-5.0,0.012
1.0,-5.0,0.013
-1.0,-1.0,0.014
1.0,5.0,0.015
7.0,5.0,0.016
10.0,3.0,0.017
7.0,-2.0,0.018
3.0,-4.0,0.019
-3.0,-3.0,0.02
-8.0,-4.0,0.021
-9.0,-3.0,0.022
-2.0,-3.0,0.023
7.0,-3.0,0.024
13.0,0.0,0.025
14.0,3.0,0.026
14.0,2.0,0.027
10.0,0.0,0.028
2.0,-1.0,0.029
-5.0,3.0,0.03
-8.0,5.0,0.031
-9.0,2.0,0.032
-8.0,-3.0,0.033
-7.0,-5.0,0.034
-4.0,-4.0,0.035
0.0,-2.0,0.036
1.0,0.0,0.037
-2.0,0.0,0.038
-4.0,0.0,0.039
-5.0,-2.0,0.04
-3.0,-5.0,0.041
1.0,-4.0,0.042
8.0,-2.0,0.043
13.0,-1.0,0.044
11.0,-2.0,0.045
7.0,0.0,0.046
9.0,0.0,0.047
13.0,-2.0,0.048
13.0,-3.0,0.049
9.0,0.0,0.05
6.0,2.0,0.051
6.0,3.0,0.052
4.0,0.0,0.053
1.0,0.0,0.054
-2.0,0.0,0.055
-1.0,-1.0,0.056
1.0,0.0,0.057
-1.0,1.0,0.058
-2.0,1.0,0.059
-5.0,0.0,0.06
-5.0,-5.0,0.061
-5.0,-5.0,0.062
0.0,-4.0,0.063
11.0,-3.0,0.064
16.0,-1.0,0.065
8.0,2.0,0.066
0.0,4.0,0.067
0.0,0.0,0.068
4.0,-2.0,0.069
4.0,-3.0,0.07
0.0,-1.0,0.071
-1.0,-2.0,0.072
0.0,-1.0,0.073
1.0,2.0,0.074
1.0,4.0,0.075
4.0,4.0,0.076
5.0,4.0,0.077
2.0,2.0,0.078
0.0,-1.0,0.079
-2.0,-4.0,0.08
-4.0,-6.0,0.081
-6.0,-4.0,0.082
4.0,-4.0,0.083
12.0,-3.0,0.084
10.0,3.0,0.085
7.0,7.0,0.086
5.0,1.0,0.087
3.0,-6.0,0.088
3.0,-5.0,0.089
4.0,0.0,0.09
5.0,3.0,0.091
6.0,1.0,0.092
3.0,0.0,0.093
0.0,2.0,0.094
-1.0,1.0,0.095
-3.0,-4.0,0.096
0.0,-4.0,0.097
2.0,-3.0,0.098
0.0,-1.0,0.099
-2.0,0.0,0.1
-4.0,-3.0,0.101
-5.0,-6.0,0.102
4.0,-4.0,0.103
11.0,-2.0,0.104
9.0,2.0,0.105
7.0,5.0,0.106
5.0,3.0,0.107
3.0,1.0,0.108
3.0,1.0,0.109
4.0,1.0,0.11
5.0,0.0,0.111
6.0,0.0,0.112
3.0,1.0,0.113
0.0,3.0,0.114
-1.0,3.0,0.115
-3.0,3.0,0.116
0.0,1.0,0.117
3.0,-1.0,0.118
5.0,-2.0,0.119
6.0,-2.0,0.12
1.0,-4.0,0.121
-4.0,-4.0,0.122
-1.0,-4.0,0.123
8.0,-2.0,0.124
12.0,2.0,0.125
4.0,4.0,0.126
-1.0,1.0,0.127
4.0,-3.0,0.128
12.0,-2.0,0.129
11.0,3.0,0.13
3.0,4.0,0.131
-1.0,0.0,0.132
-2.0,-5.0,0.133
-1.0,-4.0,0.134
0.0,-1.0,0.135
3.0,0.0,0.136
4.0,1.0,0.137
3.0,1.0,0.138
3.0,1.0,0.139
3.0,-1.0,0.14
0.0,-6.0,0.141
-3.0,-4.0,0.142
0.0,-3.0,0.143
6.0,-3.0,0.144
5.0,-1.0,0.145
-3.0,1.0,0.146
-7.0,2.0,0.147
-2.0,-2.0,0.148
1.0,-6.0,0.149
-1.0,-5.0,0.15
-2.0,-2.0,0.151
4.0,-1.0,0.152
13.0,0.0,0.153
12.0,2.0,0.154
2.0,2.0,0.155
-2.0,0.0,0.156
0.0,0.0,0.157
1.0,0.0,0.158
-2.0,1.0,0.159
-10.0,1.0,0.16
-14.0,-3.0,0.161
-9.0,-5.0,0.162
2.0,-4.0,0.163
11.0,-4.0,0.164
12.0,-1.0,0.165
7.0,3.0,0.166
4.0,1.0,0.167
6.0,-2.0,0.168
7.0,-3.0,0.169
2.0,0.0,0.17
-1.0,0.0,0.171
1.0,-2.0,0.172
5.0,-3.0,0.173
7.0,-1.0,0.174
5.0,2.0,0.175
4.0,4.0,0.176
5.0,5.0,0.177
3.0,3.0,0.178
2.0,1.0,0.179
-2.0,-1.0,0.18
-3.0,-6.0,0.181
-3.0,-6.0,0.182
3.0,-4.0,0.183
12.0,1.0,0.184
13.0,6.0,0.185
7.0,7.0,0.186
3.0,2.0,0.187
4.0,0.0,0.188
7.0,1.0,0.189
7.0,2.0,0.19
5.0,0.0,0.191
3.0,-2.0,0.192
1.0,0.0,0.193
-1.0,2.0,0.194
0.0,0.0,0.195
6.0,-1.0,0.196
13.0,0.0,0.197
12.0,0.0,0.198
3.0,0.0,0.199
-5.0,-2.0,0.2
-7.0,-4.0,0.201
-5.0,-4.0,0.202
-3.0,-5.0,0.203
-2.0,-6.0,0.204
-2.0,-4.0,0.205
-3.0,0.0,0.206
-4.0,0.0,0.207
-2.0,-5.0,0.208
0.0,-6.0,0.209
0.0,-2.0,0.21
1.0,1.0,0.211
3.0,2.0,0.212
5.0,1.0,0.213
3.0,1.0,0.214
2.0,-1.0,0.215
3.0,-1.0,0.216
8.0,1.0,0.217
13.0,0.0,0.218
15.0,0.0,0.219
12.0,-2.0,0.22
4.0,-5.0,0.221
-4.0,-5.0,0.222
-6.0,-7.0,0.223
-3.0,-6.0,0.224
-2.0,0.0,0.225
-3.0,6.0,0.226
0.0,6.0,0.227
6.0,2.0,0.228
8.0,0.0,0.229
2.0,2.0,0.23
-2.0,2.0,0.231
0.0,0.0,0.232
3.0,0.0,0.233
3.0,2.0,0.234
4.0,6.0,0.235
11.0,5.0,0.236
14.0,3.0,0.237
7.0,1.0,0.238
-2.0,0.0,0.239
-5.0,-2.0,0.24
-4.0,-6.0,0.241
-1.0,-7.0,0.242
4.0,-6.0,0.243
12.0,-4.0,0.244
14.0,-1.0,0.245
8.0,0.0,0.246
1.0,-1.0,0.247
1.0,-3.0,0.248
3.0,-5.0,0.249
2.0,-2.0,0.25
3.0,0.0,0.251
7.0,-1.0,0.252
10.0,-3.0,0.253
5.0,1.0,0.254
0.0,6.0,0.255
0.0,5.0,0.256
2.0,0.0,0.257
-1.0,-3.0,0.258
-1.0,0.0,0.259
1.0,2.0,0.26
2.0,-1.0,0.261
-2.0,-4.0,0.262
-2.0,-4.0,0.263
4.0,-5.0,0.264
9.0,-4.0,0.265
6.0,-3.0,0.266
1.0,-3.0,0.267
3.0,-4.0,0.268
6.0,-2.0,0.269
5.0,-1.0,0.27
1.0,0.0,0.271
2.0,1.0,0.272
3.0,1.0,0.273
2.0,2.0,0.274
1.0,0.0,0.275
1.0,-1.0,0.276
1.0,-1.0,0.277
-3.0,-2.0,0.278
-5.0,-3.0,0.279
-3.0,-4.0,0.28
0.0,-6.0,0.281
0.0,-5.0,0.282
5.0,-3.0,0.283
15.0,0.0,0.284
19.0,3.0,0.285
12.0,4.0,0.286
1.0,2.0,0.287
-3.0,-1.0,0.288
-5.0,1.0,0.289
-9.0,3.0,0.29
-10.0,1.0,0.291
-8.0,-1.0,0.292
-5.0,-1.0,0.293
-2.0,2.0,0.294
1.0,4.0,0.295
3.0,1.0,0.296
2.0,0.0,0.297
1.0,-1.0,0.298
4.0,0.0,0.299
5.0,2.0,0.3
0.0,-1.0,0.301
-3.0,-4.0,0.302
2.0,-4.0,0.303
11.0,-3.0,0.304
11.0,-1.0,0.305
5.0,1.0,0.306
4.0,3.0,0.307
10.0,0.0,0.308
8.0,-2.0,0.309
3.0,-2.0,0.31
3.0,0.0,0.311
10.0,0.0,0.312
11.0,1.0,0.313
4.0,1.0,0.314
-1.0,2.0,0.315
1.0,1.0,0.316
8.0,3.0,0.317
7.0,2.0,0.318
4.0,0.0,0.319
-2.0,-1.0,0.32
-8.0,-6.0,0.321
-12.0,-7.0,0.322
-7.0,-6.0,0.323
0.0,-4.0,0.324
1.0,0.0,0.325
-5.0,4.0,0.326
-5.0,3.0,0.327
5.0,-2.0,0.328
11.0,-7.0,0.329
0.0,-6.0,0.33
-10.0,-2.0,0.331
-6.0,1.0,0.332
2.0,2.0,0.333
4.0,1.0,0.334
1.0,0.0,0.335
4.0,0.0,0.336
8.0,0.0,0.337
6.0,-2.0,0.338
2.0,-4.0,0.339
0.0,-5.0,0.34
6.0,-5.0,0.341
12.0,-4.0,0.342
11.0,-3.0,0.343
9.0,-3.0,0.344
4.0,0.0,0.345
-1.0,2.0,0.346
-5.0,0.0,0.347
-8.0,-4.0,0.348
-3.0,-4.0,0.349
1.0,-1.0,0.35
5.0,2.0,0.351
7.0,3.0,0.352
4.0,1.0,0.353
1.0,-1.0,0.354
2.0,-3.0,0.355
3.0,-3.0,0.356
5.0,0.0,0.357
6.0,2.0,0.358
1.0,3.0,0.359
-2.0,2.0,0.36
-4.0,-3.0,0.361
-4.0,-5.0,0.362
-1.0,-3.0,0.363
4.0,1.0,0.364
9.0,6.0,0.365
4.0,6.0,0.366
2.0,3.0,0.367
4.0,0.0,0.368
7.0,0.0,0.369
8.0,1.0,0.37
6.0,3.0,0.371
7.0,2.0,0.372
6.0,0.0,0.373
3.0,0.0,0.374
1.0,0.0,0.375
2.0,1.0,0.376
1.0,2.0,0.377
-2.0,0.0,0.378
0.0,-4.0,0.379
4.0,-7.0,0.38
9.0,-11.0,0.381
9.0,-10.0,0.382
10.0,-5.0,0.383
9.0,0.0,0.384
1.0,6.0,0.385
-6.0,8.0,0.386
-10.0,5.0,0.387
-9.0,1.0,0.388
-8.0,-1.0,0.389
-9.0,-1.0,0.39
-5.0,-3.0,0.391
3.0,-3.0,0.392
8.0,-1.0,0.393
2.0,1.0,0.394
0.0,0.0,0.395
1.0,-4.0,0.396
7.0,-3.0,0.397
10.0,-3.0,0.398
11.0,-2.0,0.399
8.0,-1.0,0.4
6.0,-2.0,0.401
5.0,-2.0,0.402
5.0,-2.0,0.403
6.0,-2.0,0.404
4.0,0.0,0.405
1.0,2.0,0.406
-2.0,0.0,0.407
-2.0,-1.0,0.408
-1.0,-1.0,0.409
1.0,2.0,0.41
2.0,2.0,0.411
1.0,0.0,0.412
1.0,-2.0,0.413
3.0,0.0,0.414
6.0,3.0,0.415
6.0,3.0,0.416
8.0,2.0,0.417
6.0,-1.0,0.418
1.0,-1.0,0.419
-7.0,-1.0,0.42
-11.0,-6.0,0.421
-5.0,-9.0,0.422
6.0,-8.0,0.423
12.0,-6.0,0.424
10.0,-3.0,0.425
4.0,-1.0,0.426
1.0,-1.0,0.427
2.0,-2.0,0.428
5.0,-2.0,0.429
6.0,0.0,0.43
2.0,0.0,0.431
-1.0,-1.0,0.432
0.0,-1.0,0.433
2.0,0.0,0.434
5.0,-2.0,0.435
5.0,-4.0,0.436
8.0,-2.0,0.437
8.0,0.0,0.438
6.0,2.0,0.439
0.0,1.0,0.44
-4.0,-4.0,0.441
-4.0,-4.0,0.442
-1.0,-2.0,0.443
2.0,-1.0,0.444
2.0,2.0,0.445
0.0,5.0,0.446
1.0,6.0,0.447
3.0,2.0,0.448
4.0,0.0,0.449
1.0,2.0,0.45
-4.0,5.0,0.451
-5.0,3.0,0.452
-1.0,-2.0,0.453
4.0,-2.0,0.454
8.0,0.0,0.455
11.0,1.0,0.456
15.0,-1.0,0.457
13.0,-4.0,0.458
7.0,-3.0,0.459
3.0,-1.0,0.46
7.0,-5.0,0.461
16.0,-5.0,0.462
19.0,-4.0,0.463
7.0,-1.0,0.464
-13.0,-1.0,0.465
-25.0,-2.0,0.466
-24.0,1.0,0.467
-15.0,3.0,0.468
-7.0,2.0,0.469
-5.0,0.0,0.47
-3.0,0.0,0.471
3.0,1.0,0.472
7.0,1.0,0.473
3.0,-1.0,0.474
-1.0,-2.0,0.475
-4.0,-4.0,0.476
-2.0,-3.0,0.477
-2.0,-1.0,0.478
1.0,-1.0,0.479
4.0,-1.0,0.48
4.0,-5.0,0.481
5.0,-7.0,0.482
9.0,-4.0,0.483
12.0,-2.0,0.484
11.0,-1.0,0.485
10.0,0.0,0.486
10.0,0.0,0.487
10.0,0.0,0.488
10.0,0.0,0.489
10.0,1.0,0.49
10.0,1.0,0.491
10.0,0.0,0.492
8.0,-1.0,0.493
6.0,-3.0,0.494
1.0,-1.0,0.495
-2.0,0.0,0.496
2.0,0.0,0.497
6.0,-1.0,0.498
3.0,-1.0,0.499
-1.0,-1.0,0.5
-3.0,-5.0,0.501
-3.0,-7.0,0.502
0.0,-4.0,0.503
6.0,-2.0,0.504
7.0,-1.0,0.505
1.0,0.0,0.506
-5.0,0.0,0.507
-4.0,0.0,0.508
0.0,0.0,0.509
0.0,1.0,0.51
-4.0,1.0,0.511
-5.0,0.0,0.512
-3.0,-1.0,0.513
0.0,-3.0,0.514
1.0,-1.0,0.515
2.0,0.0,0.516
6.0,0.0,0.517
9.0,0.0,0.518
8.0,-3.0,0.519
2.0,-5.0,0.52
-4.0,-7.0,0.521
0.0,-4.0,0.522
8.0,0.0,0.523
13.0,0.0,0.524
10.0,2.0,0.525
4.0,4.0,0.526
4.0,4.0,0.527
9.0,1.0,0.528
8.0,-2.0,0.529
5.0,-2.0,0.53
0.0,1.0,0.531
-1.0,4.0,0.532
-4.0,3.0,0.533
-3.0,0.0,0.534
0.0,0.0,0.535
3.0,0.0,0.536
3.0,2.0,0.537
0.0,-1.0,0.538
1.0,-1.0,0.539
0.0,1.0,0.54
-3.0,-1.0,0.541
-3.0,-2.0,0.542
3.0,-2.0,0.543
11.0,0.0,0.544
10.0,1.0,0.545
5.0,2.0,0.546
7.0,2.0,0.547
16.0,0.0,0.548
17.0,-3.0,0.549
8.0,-2.0,0.55
2.0,-1.0,0.551
4.0,-1.0,0.552
4.0,-2.0,0.553
-1.0,-1.0,0.554
-6.0,2.0,0.555
-5.0,5.0,0.556
0.0,6.0,0.557
1.0,2.0,0.558
-4.0,-2.0,0.559
-13.0,-4.0,0.56
-20.0,-5.0,0.561
-20.0,-4.0,0.562
-13.0,-3.0,0.563
-3.0,-5.0,0.564
4.0,-5.0,0.565
12.0,-2.0,0.566
25.0,-1.0,0.567
35.0,-1.0,0.568
28.0,-2.0,0.569
5.0,-1.0,0.57
-11.0,0.0,0.571
-10.0,-1.0,0.572
-3.0,-2.0,0.573
-5.0,2.0,0.574
-9.0,5.0,0.575
-7.0,4.0,0.576
-1.0,1.0,0.577
1.0,-3.0,0.578
0.0,-2.0,0.579
-4.0,-1.0,0.58
-7.0,-4.0,0.581
-6.0,-4.0,0.582
3.0,-2.0,0.583
16.0,0.0,0.584
19.0,1.0,0.585
11.0,1.0,0.586
4.0,0.0,0.587
5.0,0.0,0.588
6.0,0.0,0.589
2.0,0.0,0.59
3.0,2.0,0.591
11.0,2.0,0.592
14.0,0.0,0.593
7.0,-1.0,0.594
1.0,0.0,0.595
2.0,2.0,0.596
3.0,3.0,0.597
-1.0,0.0,0.598
-5.0,-5.0,0.599
-5.0,-6.0,0.6
-3.0,-8.0,0.601
-3.0,-6.0,0.602
-1.0,-5.0,0.603
4.0,-4.0,0.604
9.0,-3.0,0.605
6.0,-3.0,0.606
3.0,-4.0,0.607
6.0,-4.0,0.608
7.0,-3.0,0.609
5.0,1.0,0.61
3.0,3.0,0.611
3.0,3.0,0.612
3.0,1.0,0.613
3.0,1.0,0.614
10.0,0.0,0.615
23.0,0.0,0.616
35.0,0.0,0.617
40.0,3.0,0.618
31.0,2.0,0.619
8.0,0.0,0.62
-20.0,-1.0,0.621
-41.0,-4.0,0.622
-42.0,-4.0,0.623
-32.0,-2.0,0.624
-26.0,2.0,0.625
-23.0,5.0,0.626
-16.0,3.0,0.627
-5.0,2.0,0.628
0.0,2.0,0.629
-5.0,1.0,0.63
-7.0,2.0,0.631
-1.0,3.0,0.632
7.0,2.0,0.633
9.0,0.0,0.634
10.0,-1.0,0.635
11.0,-4.0,0.636
14.0,-3.0,0.637
13.0,-1.0,0.638
13.0,-3.0,0.639
12.0,-6.0,0.64
6.0,-6.0,0.641
2.0,-4.0,0.642
10.0,-1.0,0.643
19.0,-1.0,0.644
20.0,1.0,0.645
11.0,6.0,0.646
5.0,6.0,0.647
8.0,1.0,0.648
9.0,-1.0,0.649
4.0,2.0,0.65
3.0,3.0,0.651
6.0,0.0,0.652
8.0,-2.0,0.653
5.0,-1.0,0.654
2.0,1.0,0.655
1.0,1.0,0.656
3.0,1.0,0.657
2.0,-1.0,0.658
1.0,-3.0,0.659
-2.0,-6.0,0.66
-7.0,-11.0,0.661
-11.0,-11.0,0.662
-7.0,-7.0,0.663
1.0,-2.0,0.664
5.0,2.0,0.665
0.0,5.0,0.666
-3.0,4.0,0.667
0.0,1.0,0.668
6.0,-1.0,0.669
8.0,0.0,0.67
5.0,1.0,0.671
5.0,0.0,0.672
8.0,-1.0,0.673
9.0,-2.0,0.674
10.0,-5.0,0.675
9.0,-7.0,0.676
6.0,-5.0,0.677
-1.0,-2.0,0.678
-7.0,-1.0,0.679
-13.0,-3.0,0.68
-17.0,-9.0,0.681
-17.0,-10.0,0.682
-9.0,-8.0,0.683
0.0,-2.0,0.684
0.0,4.0,0.685
-7.0,5.0,0.686
-12.0,2.0,0.687
-7.0,-2.0,0.688
3.0,-1.0,0.689
11.0,3.0,0.69
17.0,1.0,0.691
23.0,-3.0,0.692
24.0,-3.0,0.693
24.0,2.0,0.694
27.0,7.0,0.695
30.0,6.0,0.696
23.0,4.0,0.697
6.0,2.0,0.698
-11.0,-1.0,0.699
-20.0,-5.0,0.7
-25.0,-12.0,0.701
-26.0,-11.0,0.702
-18.0,-6.0,0.703
-3.0,-2.0,0.704
1.0,0.0,0.705
-7.0,-1.0,0.706
-16.0,-4.0,0.707
-12.0,-7.0,0.708
0.0,-4.0,0.709
1.0,4.0,0.71
-4.0,9.0,0.711
-4.0,11.0,0.712
5.0,15.0,0.713
13.0,19.0,0.714
13.0,18.0,0.715
10.0,12.0,0.716
11.0,7.0,0.717
11.0,5.0,0.718
7.0,5.0,0.719
3.0,4.0,0.72
2.0,0.0,0.721
5.0,-1.0,0.722
9.0,-3.0,0.723
13.0,-3.0,0.724
12.0,1.0,0.725
8.0,4.0,0.726
4.0,2.0,0.727
4.0,-4.0,0.728
7.0,-5.0,0.729
8.0,-4.0,0.73
8.0,-3.0,0.731
8.0,-2.0,0.732
5.0,-1.0,0.733
2.0,0.0,0.734
0.0,-1.0,0.735
1.0,-4.0,0.736
3.0,-5.0,0.737
3.0,-6.0,0.738
2.0,-7.0,0.739
1.0,-7.0,0.74
-1.0,-10.0,0.741
0.0,-12.0,0.742
8.0,-13.0,0.743
16.0,-11.0,0.744
12.0,-7.0,0.745
-1.0,-8.0,0.746
-11.0,-9.0,0.747
-12.0,-10.0,0.748
-8.0,-6.0,0.749
-7.0,-3.0,0.75
-5.0,2.0,0.751
-2.0,6.0,0.752
2.0,8.0,0.753
4.0,9.0,0.754
7.0,10.0,0.755
9.0,9.0,0.756
9.0,8.0,0.757
6.0,0.0,0.758
5.0,-2.0,0.759
7.0,-2.0,0.76
7.0,-4.0,0.761
5.0,-7.0,0.762
9.0,-10.0,0.763
17.0,-9.0,0.764
20.0,-7.0,0.765
20.0,-6.0,0.766
19.0,-7.0,0.767
16.0,-7.0,0.768
2.0,-5.0,0.769
-19.0,-3.0,0.77
-35.0,-1.0,0.771
-36.0,0.0,0.772
-30.0,1.0,0.773
-28.0,5.0,0.774
-25.0,5.0,0.775
-16.0,5.0,0.776
-5.0,8.0,0.777
-3.0,10.0,0.778
-4.0,10.0,0.779
-2.0,7.0,0.78
4.0,3.0,0.781
11.0,5.0,0.782
19.0,8.0,0.783
27.0,5.0,0.784
27.0,4.0,0.785
20.0,4.0,0.786
15.0,1.0,0.787
17.0,-4.0,0.788
15.0,-9.0,0.789
5.0,-7.0,0.79
-3.0,-6.0,0.791
-4.0,-10.0,0.792
-2.0,-11.0,0.793
-4.0,-7.0,0.794
-7.0,-3.0,0.795
-4.0,-2.0,0.796
0.0,-2.0,0.797
1.0,-2.0,0.798
0.0,0.0,0.799
0.0,-3.0,0.8
-1.0,-7.0,0.801
-1.0,-4.0,0.802
4.0,1.0,0.803
13.0,4.0,0.804
14.0,5.0,0.805
7.0,5.0,0.806
4.0,2.0,0.807
11.0,-1.0,0.808
15.0,-1.0,0.809
12.0,0.0,0.81
5.0,0.0,0.811
6.0,-4.0,0.812
10.0,-6.0,0.813
9.0,-3.0,0.814
3.0,-2.0,0.815
1.0,-4.0,0.816
2.0,-6.0,0.817
0.0,-5.0,0.818
0.0,-2.0,0.819
-4.0,-1.0,0.82
-3.0,-6.0,0.821
2.0,-6.0,0.822
11.0,-3.0,0.823
15.0,4.0,0.824
12.0,10.0,0.825
0.0,11.0,0.826
-9.0,9.0,0.827
-10.0,7.0,0.828
-8.0,9.0,0.829
-7.0,9.0,0.83
-5.0,6.0,0.831
1.0,1.0,0.832
7.0,0.0,0.833
10.0,3.0,0.834
10.0,4.0,0.835
9.0,0.0,0.836
6.0,-2.0,0.837
0.0,-3.0,0.838
-3.0,-3.0,0.839
-7.0,-5.0,0.84
-8.0,-9.0,0.841
-5.0,-6.0,0.842
0.0,-3.0,0.843
7.0,-1.0,0.844
6.0,0.0,0.845
3.0,0.0,0.846
1.0,1.0,0.847
5.0,0.0,0.848
8.0,-1.0,0.849
7.0,0.0,0.85
8.0,-1.0,0.851
10.0,-1.0,0.852
11.0,-3.0,0.853
6.0,-2.0,0.854
1.0,1.0,0.855
-1.0,3.0,0.856
0.0,2.0,0.857
2.0,-2.0,0.858
4.0,-5.0,0.859
6.0,-6.0,0.86
6.0,-6.0,0.861
-3.0,-6.0,0.862
-14.0,-4.0,0.863
-20.0,-1.0,0.864
-18.0,0.0,0.865
-10.0,-1.0,0.866
-5.0,-3.0,0.867
-3.0,-2.0,0.868
-2.0,-1.0,0.869
1.0,1.0,0.87
8.0,3.0,0.871
14.0,4.0,0.872
14.0,3.0,0.873
13.0,-1.0,0.874
15.0,-4.0,0.875
18.0,-4.0,0.876
15.0,-3.0,0.877
3.0,-3.0,0.878
-7.0,-2.0,0.879
-12.0,-3.0,0.88
-10.0,-3.0,0.881
-6.0,-2.0,0.882
-1.0,0.0,0.883
7.0,2.0,0.884
11.0,3.0,0.885
8.0,4.0,0.886
5.0,4.0,0.887
4.0,2.0,0.888
8.0,1.0,0.889
10.0,2.0,0.89
10.0,3.0,0.891
14.0,2.0,0.892
20.0,1.0,0.893
24.0,2.0,0.894
24.0,2.0,0.895
18.0,0.0,0.896
13.0,-1.0,0.897
7.0,-1.0,0.898
3.0,1.0,0.899
-7.0,0.0,0.9
-21.0,-7.0,0.901
-24.0,-9.0,0.902
-12.0,-7.0,0.903
5.0,-2.0,0.904
9.0,1.0,0.905
-1.0,1.0,0.906
-10.0,0.0,0.907
-14.0,-2.0,0.908
-17.0,-1.0,0.909
-22.0,2.0,0.91
-23.0,3.0,0.911
-19.0,1.0,0.912
-15.0,-1.0,0.913
-11.0,-3.0,0.914
-6.0,-4.0,0.915
-1.0,-6.0,0.916
2.0,-5.0,0.917
6.0,-4.0,0.918
10.0,-2.0,0.919
13.0,0.0,0.92
9.0,-2.0,0.921
7.0,-4.0,0.922
15.0,-4.0,0.923
20.0,-4.0,0.924
16.0,1.0,0.925
13.0,5.0,0.926
14.0,7.0,0.927
13.0,9.0,0.928
7.0,7.0,0.929
2.0,4.0,0.93
2.0,2.0,0.931
4.0,0.0,0.932
8.0,-4.0,0.933
12.0,-7.0,0.934
12.0,-5.0,0.935
10.0,-4.0,0.936
1.0,-4.0,0.937
-6.0,-3.0,0.938
-8.0,-3.0,0.939
-7.0,-5.0,0.94
-5.0,-8.0,0.941
1.0,-4.0,0.942
11.0,-1.0,0.943
17.0,-1.0,0.944
11.0,1.0,0.945
-2.0,3.0,0.946
-8.0,2.0,0.947
-3.0,-3.0,0.948
2.0,-6.0,0.949
-1.0,-2.0,0.95
-4.0,3.0,0.951
-1.0,3.0,0.952
5.0,0.0,0.953
10.0,1.0,0.954
14.0,6.0,0.955
19.0,7.0,0.956
27.0,7.0,0.957
30.0,3.0,0.958
23.0,5.0,0.959
6.0,7.0,0.96
-15.0,4.0,0.961
-27.0,0.0,0.962
-24.0,-7.0,0.963
-16.0,-13.0,0.964
-11.0,-13.0,0.965
-1.0,-11.0,0.966
20.0,-9.0,0.967
40.0,-6.0,0.968
36.0,0.0,0.969
13.0,5.0,0.97
-6.0,6.0,0.971
-11.0,8.0,0.972
-13.0,7.0,0.973
-18.0,5.0,0.974
-21.0,1.0,0.975
-14.0,-2.0,0.976
-8.0,-3.0,0.977
-10.0,-6.0,0.978
-17.0,-9.0,0.979
-25.0,-13.0,0.98
-29.0,-15.0,0.981
-23.0,-13.0,0.982
-8.0,-9.0,0.983
9.0,-4.0,0.984
13.0,1.0,0.985
9.0,4.0,0.986
8.0,4.0,0.987
15.0,4.0,0.988
20.0,5.0,0.989
19.0,6.0,0.99
18.0,5.0,0.991
19.0,3.0,0.992
20.0,4.0,0.993
18.0,5.0,0.994
14.0,3.0,0.995
13.0,1.0,0.996
13.0,3.0,0.997
10.0,5.0,0.998
7.0,3.0,0.999
3.0,-2.0,1.0
-2.0,-11.0,1.001
-5.0,-12.0,1.002
3.0,-10.0,1.003
8.0,-7.0,1.004
5.0,-3.0,1.005
2.0,0.0,1.006
0.0,1.0,1.007
-1.0,0.0,1.008
0.0,-2.0,1.009
3.0,1.0,1.01
3.0,4.0,1.011
2.0,5.0,1.012
0.0,4.0,1.013
-1.0,3.0,1.014
-2.0,2.0,1.015
-2.0,0.0,1.016
3.0,1.0,1.017
7.0,-1.0,1.018
2.0,-3.0,1.019
-5.0,-7.0,1.02
-5.0,-10.0,1.021
-4.0,-7.0,1.022
1.0,1.0,1.023
8.0,7.0,1.024
10.0,8.0,1.025
5.0,5.0,1.026
0.0,2.0,1.027
0.0,-2.0,1.028
3.0,-5.0,1.029
2.0,-3.0,1.03
0.0,0.0,1.031
-1.0,0.0,1.032
1.0,-2.0,1.033
0.0,-2.0,1.034
-2.0,0.0,1.035
-2.0,0.0,1.036
1.0,-3.0,1.037
4.0,-7.0,1.038
4.0,-9.0,1.039
4.0,-11.0,1.04
5.0,-12.0,1.041
8.0,-8.0,1.042
16.0,-2.0,1.043
21.0,1.0,1.044
16.0,3.0,1.045
10.0,4.0,1.046
3.0,4.0,1.047
-2.0,4.0,1.048
-5.0,4.0,1.049
-8.0,5.0,1.05
-8.0,4.0,1.051
-9.0,1.0,1.052
-7.0,-3.0,1.053
-6.0,-5.0,1.054
-9.0,-8.0,1.055
-10.0,-10.0,1.056
-3.0,-8.0,1.057
4.0,-4.0,1.058
3.0,-3.0,1.059
1.0,-3.0,1.06
1.0,-5.0,1.061
3.0,0.0,1.062
15.0,3.0,1.063
32.0,1.0,1.064
35.0,2.0,1.065
18.0,7.0,1.066
-1.0,9.0,1.067
-2.0,6.0,1.068
7.0,3.0,1.069
5.0,3.0,1.07
-6.0,5.0,1.071
-11.0,5.0,1.072
-4.0,4.0,1.073
0.0,7.0,1.074
-3.0,7.0,1.075
-11.0,2.0,1.076
-12.0,-3.0,1.077
-13.0,-6.0,1.078
-13.0,-8.0,1.079
-11.0,-8.0,1.08
-7.0,-8.0,1.081
-1.0,-4.0,1.082
10.0,-3.0,1.083
17.0,-3.0,1.084
11.0,0.0,1.085
7.0,2.0,1.086
5.0,-3.0,1.087
4.0,-8.0,1.088
7.0,-5.0,1.089
10.0,4.0,1.09
10.0,7.0,1.091
9.0,1.0,1.092
10.0,-2.0,1.093
11.0,1.0,1.094
9.0,1.0,1.095
8.0,-2.0,1.096
6.0,-4.0,1.097
3.0,-3.0,1.098
-5.0,-3.0,1.099
-11.0,-7.0,1.1
-12.0,-8.0,1.101
-6.0,-5.0,1.102
6.0,-1.0,1.103
20.0,-2.0,1.104
23.0,-1.0,1.105
17.0,3.0,1.106
12.0,6.0,1.107
11.0,2.0,1.108
10.0,0.0,1.109
0.0,4.0,1.11
-9.0,7.0,1.111
-9.0,3.0,1.112
-5.0,-2.0,1.113
-8.0,-4.0,1.114
-14.0,-4.0,1.115
-11.0,-2.0,1.116
-1.0,0.0,1.117
4.0,0.0,1.118
1.0,-3.0,1.119
0.0,-5.0,1.12
12.0,-6.0,1.121
27.0,-2.0,1.122
35.0,0.0,1.123
28.0,2.0,1.124
9.0,3.0,1.125
-12.0,6.0,1.126
-20.0,4.0,1.127
-14.0,-3.0,1.128
-9.0,-5.0,1.129
-12.0,-1.0,1.13
-16.0,6.0,1.131
-13.0,4.0,1.132
-9.0,1.0,1.133
-8.0,-1.0,1.134
-8.0,-1.0,1.135
-2.0,-4.0,1.136
5.0,-3.0,1.137
9.0,-1.0,1.138
6.0,-1.0,1.139
3.0,-5.0,1.14
1.0,-8.0,1.141
2.0,-5.0,1.142
8.0,-2.0,1.143
15.0,-2.0,1.144
15.0,-1.0,1.145
11.0,2.0,1.146
10.0,3.0,1.147
19.0,1.0,1.148
28.0,-2.0,1.149
28.0,-1.0,1.15
22.0,0.0,1.151
19.0,2.0,1.152
19.0,3.0,1.153
11.0,5.0,1.154
-2.0,4.0,1.155
-15.0,1.0,1.156
-19.0,0.0,1.157
-22.0,-3.0,1.158
-23.0,-4.0,1.159
-23.0,-6.0,1.16
-20.0,-7.0,1.161
-15.0,-8.0,1.162
-5.0,-8.0,1.163
3.0,-8.0,1.164
1.0,-3.0,1.165
0.0,1.0,1.166
0.0,0.0,1.167
0.0,0.0,1.168
2.0,3.0,1.169
5.0,5.0,1.17
9.0,2.0,1.171
12.0,0.0,1.172
12.0,1.0,1.173
11.0,4.0,1.174
9.0,4.0,1.175
9.0,5.0,1.176
13.0,3.0,1.177
18.0,2.0,1.178
23.0,1.0,1.179
18.0,-4.0,1.18
4.0,-9.0,1.181
-3.0,-7.0,1.182
0.0,-1.0,1.183
3.0,1.0,1.184
-4.0,3.0,1.185
-17.0,6.0,1.186
-19.0,9.0,1.187
-8.0,8.0,1.188
2.0,2.0,1.189
5.0,0.0,1.19
4.0,1.0,1.191
6.0,5.0,1.192
11.0,6.0,1.193
13.0,3.0,1.194
10.0,-3.0,1.195
3.0,-7.0,1.196
3.0,-9.0,1.197
3.0,-8.0,1.198
2.0,-7.0,1.199
-3.0,-7.0,1.2
-8.0,-8.0,1.201
-7.0,-8.0,1.202
2.0,-7.0,1.203
8.0,-5.0,1.204
7.0,-4.0,1.205
2.0,-3.0,1.206
1.0,-2.0,1.207
6.0,3.0,1.208
8.0,9.0,1.209
6.0,9.0,1.21
5.0,3.0,1.211
11.0,-2.0,1.212
20.0,-3.0,1.213
18.0,0.0,1.214
6.0,2.0,1.215
-6.0,1.0,1.216
-9.0,1.0,1.217
-9.0,0.0,1.218
-12.0,1.0,1.219
-18.0,3.0,1.22
-18.0,-3.0,1.221
-13.0,-8.0,1.222
-4.0,-9.0,1.223
4.0,-3.0,1.224
11.0,6.0,1.225
13.0,9.0,1.226
15.0,5.0,1.227
18.0,-1.0,1.228
17.0,-4.0,1.229
7.0,-1.0,1.23
-5.0,-1.0,1.231
-9.0,-3.0,1.232
-8.0,-4.0,1.233
-9.0,-4.0,1.234
-9.0,-3.0,1.235
-5.0,-3.0,1.236
3.0,-3.0,1.237
6.0,-2.0,1.238
4.0,-2.0,1.239
1.0,-3.0,1.24
0.0,-5.0,1.241
-1.0,-7.0,1.242
4.0,-5.0,1.243
7.0,-3.0,1.244
4.0,-1.0,1.245
1.0,0.0,1.246
0.0,0.0,1.247
-2.0,0.0,1.248
0.0,2.0,1.249
2.0,4.0,1.25
10.0,5.0,1.251
18.0,7.0,1.252
27.0,8.0,1.253
32.0,8.0,1.254
26.0,6.0,1.255
18.0,4.0,1.256
7.0,2.0,1.257
-2.0,1.0,1.258
-8.0,0.0,1.259
-13.0,-3.0,1.26
-17.0,-6.0,1.261
-15.0,-5.0,1.262
-2.0,-2.0,1.263
7.0,-2.0,1.264
2.0,-2.0,1.265
-13.0,0.0,1.266
-20.0,3.0,1.267
-14.0,2.0,1.268
-11.0,0.0,1.269
-12.0,-1.0,1.27
-12.0,0.0,1.271
-5.0,-2.0,1.272
0.0,-1.0,1.273
0.0,2.0,1.274
0.0,5.0,1.275
2.0,4.0,1.276
6.0,3.0,1.277
1.0,3.0,1.278
1.0,4.0,1.279
9.0,2.0,1.28
21.0,-2.0,1.281
31.0,-4.0,1.282
35.0,-4.0,1.283
34.0,-2.0,1.284
27.0,0.0,1.285
17.0,2.0,1.286
12.0,0.0,1.287
9.0,-2.0,1.288
2.0,-3.0,1.289
-5.0,-4.0,1.29
-7.0,-4.0,1.291
-3.0,-4.0,1.292
-5.0,-6.0,1.293
-11.0,-9.0,1.294
-14.0,-13.0,1.295
-8.0,-13.0,1.296
0.0,-9.0,1.297
4.0,-8.0,1.298
3.0,-6.0,1.299
1.0,-5.0,1.3
1.0,-5.0,1.301
7.0,0.0,1.302
17.0,5.0,1.303
21.0,7.0,1.304
13.0,8.0,1.305
-2.0,11.0,1.306
-5.0,15.0,1.307
0.0,16.0,1.308
3.0,10.0,1.309
-1.0,3.0,1.31
-6.0,0.0,1.311
-4.0,-1.0,1.312
0.0,-4.0,1.313
-1.0,-5.0,1.314
-3.0,-5.0,1.315
-3.0,-5.0,1.316
0.0,-5.0,1.317
0.0,-5.0,1.318
-2.0,-3.0,1.319
-4.0,-2.0,1.32
0.0,-9.0,1.321
11.0,-12.0,1.322
21.0,-5.0,1.323
26.0,9.0,1.324
20.0,19.0,1.325
10.0,16.0,1.326
3.0,8.0,1.327
0.0,4.0,1.328
-4.0,3.0,1.329
-9.0,1.0,1.33
-10.0,-3.0,1.331
-7.0,-5.0,1.332
-4.0,-4.0,1.333
-2.0,-3.0,1.334
-2.0,-2.0,1.335
-2.0,0.0,1.336
-2.0,4.0,1.337
-3.0,3.0,1.338
-4.0,-2.0,1.339
-7.0,-8.0,1.34
-11.0,-12.0,1.341
-8.0,-8.0,1.342
0.0,-4.0,1.343
7.0,-1.0,1.344
5.0,0.0,1.345
1.0,0.0,1.346
4.0,-1.0,1.347
12.0,0.0,1.348
16.0,2.0,1.349
12.0,3.0,1.35
7.0,1.0,1.351
7.0,-4.0,1.352
7.0,-5.0,1.353
4.0,-1.0,1.354
5.0,1.0,1.355
10.0,2.0,1.356
15.0,3.0,1.357
12.0,2.0,1.358
7.0,0.0,1.359
3.0,-5.0,1.36
0.0,-10.0,1.361
0.0,-6.0,1.362
7.0,-1.0,1.363
18.0,1.0,1.364
21.0,-3.0,1.365
14.0,-3.0,1.366
1.0,2.0,1.367
-3.0,8.0,1.368
-6.0,10.0,1.369
-13.0,8.0,1.37
-19.0,8.0,1.371
-17.0,6.0,1.372
-8.0,3.0,1.373
-2.0,1.0,1.374
0.0,-2.0,1.375
-5.0,-7.0,1.376
-8.0,-10.0,1.377
-11.0,-11.0,1.378
-7.0,-5.0,1.379
0.0,-2.0,1.38
6.0,-7.0,1.381
7.0,-10.0,1.382
12.0,-6.0,1.383
17.0,-1.0,1.384
15.0,2.0,1.385
5.0,5.0,1.386
4.0,3.0,1.387
15.0,2.0,1.388
23.0,3.0,1.389
21.0,4.0,1.39
11.0,4.0,1.391
1.0,4.0,1.392
-3.0,4.0,1.393
-6.0,4.0,1.394
-3.0,2.0,1.395
1.0,1.0,1.396
5.0,1.0,1.397
6.0,0.0,1.398
8.0,-2.0,1.399
4.0,-2.0,1.4
-1.0,-6.0,1.401
-4.0,-6.0,1.402
0.0,-6.0,1.403
6.0,-5.0,1.404
3.0,-3.0,1.405
-8.0,1.0,1.406
-17.0,2.0,1.407
-18.0,0.0,1.408
-16.0,-2.0,1.409
-13.0,-1.0,1.41
-8.0,4.0,1.411
-3.0,7.0,1.412
0.0,4.0,1.413
4.0,0.0,1.414
8.0,-1.0,1.415
10.0,0.0,1.416
8.0,-1.0,1.417
3.0,-2.0,1.418
3.0,-2.0,1.419
4.0,-2.0,1.42
2.0,-8.0,1.421
2.0,-11.0,1.422
10.0,-8.0,1.423
21.0,-3.0,1.424
25.0,4.0,1.425
21.0,8.0,1.426
16.0,7.0,1.427
18.0,1.0,1.428
18.0,-2.0,1.429
7.0,0.0,1.43
-5.0,0.0,1.431
-12.0,-3.0,1.432
-13.0,-6.0,1.433
-10.0,-3.0,1.434
-6.0,0.0,1.435
-3.0,-3.0,1.436
2.0,-8.0,1.437
4.0,-11.0,1.438
3.0,-5.0,1.439
-3.0,0.0,1.44
-10.0,0.0,1.441
-8.0,1.0,1.442
4.0,5.0,1.443
17.0,7.0,1.444
17.0,3.0,1.445
8.0,-1.0,1.446
3.0,0.0,1.447
9.0,2.0,1.448
16.0,3.0,1.449
14.0,3.0,1.45
6.0,4.0,1.451
-3.0,3.0,1.452
-8.0,0.0,1.453
-6.0,0.0,1.454
2.0,3.0,1.455
13.0,2.0,1.456
21.0,-1.0,1.457
18.0,-3.0,1.458
7.0,-4.0,1.459
-7.0,-5.0,1.46
-17.0,-10.0,1.461
-18.0,-9.0,1.462
-14.0,-4.0,1.463
-12.0,2.0,1.464
-16.0,2.0,1.465
-24.0,-4.0,1.466
-23.0,-9.0,1.467
-14.0,-11.0,1.468
1.0,-8.0,1.469
15.0,-1.0,1.47
22.0,1.0,1.471
21.0,1.0,1.472
11.0,1.0,1.473
-3.0,0.0,1.474
-8.0,-1.0,1.475
-3.0,-3.0,1.476
2.0,-1.0,1.477
-1.0,0.0,1.478
1.0,-1.0,1.479
12.0,-4.0,1.48
25.0,-7.0,1.481
27.0,-5.0,1.482
19.0,-3.0,1.483
10.0,-3.0,1.484
-1.0,1.0,1.485
-10.0,7.0,1.486
-14.0,8.0,1.487
-9.0,2.0,1.488
-3.0,-3.0,1.489
0.0,-3.0,1.49
1.0,0.0,1.491
2.0,1.0,1.492
4.0,0.0,1.493
6.0,0.0,1.494
12.0,0.0,1.495
17.0,2.0,1.496
17.0,6.0,1.497
9.0,8.0,1.498
2.0,7.0,1.499
-1.0,3.0,1.5
-2.0,-2.0,1.501
-3.0,-3.0,1.502
2.0,-1.0,1.503
10.0,-2.0,1.504
11.0,-1.0,1.505
2.0,0.0,1.506
-2.0,3.0,1.507
2.0,3.0,1.508
9.0,4.0,1.509
13.0,4.0,1.51
18.0,0.0,1.511
24.0,-4.0,1.512
23.0,-6.0,1.513
12.0,-5.0,1.514
3.0,-3.0,1.515
2.0,-3.0,1.516
4.0,-2.0,1.517
-2.0,-1.0,1.518
-10.0,0.0,1.519
-13.0,-2.0,1.52
-15.0,-8.0,1.521
-17.0,-11.0,1.522
-14.0,-10.0,1.523
-5.0,-4.0,1.524
0.0,3.0,1.525
2.0,8.0,1.526
4.0,3.0,1.527
9.0,-3.0,1.528
11.0,-5.0,1.529
9.0,1.0,1.53
12.0,4.0,1.531
16.0,3.0,1.532
13.0,3.0,1.533
0.0,4.0,1.534
-13.0,3.0,1.535
-18.0,0.0,1.536
-15.0,0.0,1.537
-9.0,0.0,1.538
-1.0,0.0,1.539
2.0,-2.0,1.54
1.0,-7.0,1.541
3.0,-10.0,1.542
10.0,-9.0,1.543
20.0,-6.0,1.544
22.0,2.0,1.545
15.0,6.0,1.546
7.0,4.0,1.547
4.0,-3.0,1.548
0.0,-7.0,1.549
-4.0,-5.0,1.55
-7.0,-1.0,1.551
-1.0,0.0,1.552
5.0,-1.0,1.553
3.0,0.0,1.554
-2.0,4.0,1.555
-3.0,7.0,1.556
3.0,7.0,1.557
4.0,2.0,1.558
4.0,0.0,1.559
3.0,-2.0,1.56
4.0,-5.0,1.561
5.0,-7.0,1.562
10.0,-6.0,1.563
15.0,-2.0,1.564
14.0,2.0,1.565
1.0,-1.0,1.566
-15.0,-7.0,1.567
-23.0,-7.0,1.568
-21.0,1.0,1.569
-14.0,8.0,1.57
-10.0,5.0,1.571
-8.0,-2.0,1.572
-5.0,-3.0,1.573
-1.0,4.0,1.574
3.0,7.0,1.575
4.0,1.0,1.576
6.0,-2.0,1.577
8.0,-3.0,1.578
13.0,1.0,1.579
15.0,2.0,1.58
17.0,-3.0,1.581
21.0,-3.0,1.582
25.0,0.0,1.583
24.0,1.0,1.584
12.0,0.0,1.585
-3.0,-2.0,1.586
-10.0,-3.0,1.587
-11.0,-3.0,1.588
-13.0,-3.0,1.589
-19.0,-3.0,1.59
-21.0,-2.0,1.591
-15.0,-1.0,1.592
-6.0,0.0,1.593
0.0,3.0,1.594
7.0,4.0,1.595
18.0,3.0,1.596
31.0,4.0,1.597
37.0,3.0,1.598
33.0,5.0,1.599
14.0,3.0,1.6
-6.0,-4.0,1.601
-17.0,-4.0,1.602
-12.0,-1.0,1.603
-1.0,2.0,1.604
6.0,1.0,1.605
3.0,-2.0,1.606
-4.0,-5.0,1.607
-10.0,-6.0,1.608
-9.0,-5.0,1.609
-6.0,-2.0,1.61
-5.0,-1.0,1.611
-2.0,1.0,1.612
2.0,4.0,1.613
10.0,6.0,1.614
12.0,5.0,1.615
12.0,0.0,1.616
12.0,-4.0,1.617
11.0,-7.0,1.618
10.0,-6.0,1.619
9.0,-6.0,1.62
9.0,-11.0,1.621
7.0,-11.0,1.622
3.0,-7.0,1.623
2.0,-4.0,1.624
1.0,-1.0,1.625
-3.0,3.0,1.626
-3.0,3.0,1.627
3.0,-2.0,1.628
11.0,-8.0,1.629
7.0,-8.0,1.63
-2.0,-5.0,1.631
-8.0,-1.0,1.632
-5.0,4.0,1.633
-2.0,10.0,1.634
-2.0,11.0,1.635
-4.0,5.0,1.636
-3.0,-1.0,1.637
1.0,-5.0,1.638
11.0,-5.0,1.639
14.0,-5.0,1.64
7.0,-9.0,1.641
-3.0,-10.0,1.642
-7.0,-3.0,1.643
-6.0,2.0,1.644
-7.0,2.0,1.645
-12.0,-1.0,1.646
-12.0,-5.0,1.647
-2.0,-4.0,1.648
11.0,2.0,1.649
16.0,9.0,1.65
14.0,8.0,1.651
14.0,0.0,1.652
15.0,-3.0,1.653
13.0,2.0,1.654
4.0,9.0,1.655
-2.0,8.0,1.656
-2.0,4.0,1.657
-2.0,-1.0,1.658
-2.0,-3.0,1.659
-7.0,-6.0,1.66
-9.0,-9.0,1.661
-5.0,-7.0,1.662
5.0,-2.0,1.663
16.0,2.0,1.664
19.0,3.0,1.665
13.0,4.0,1.666
5.0,5.0,1.667
3.0,5.0,1.668
6.0,3.0,1.669
6.0,3.0,1.67
0.0,2.0,1.671
-4.0,0.0,1.672
-4.0,0.0,1.673
-3.0,-1.0,1.674
1.0,-2.0,1.675
9.0,-1.0,1.676
20.0,-1.0,1.677
26.0,-2.0,1.678
26.0,-2.0,1.679
20.0,-4.0,1.68
7.0,-8.0,1.681
-5.0,-5.0,1.682
-17.0,-2.0,1.683
-22.0,1.0,1.684
-23.0,3.0,1.685
-22.0,6.0,1.686
-19.0,9.0,1.687
-14.0,6.0,1.688
-10.0,0.0,1.689
-10.0,0.0,1.69
-10.0,0.0,1.691
-4.0,0.0,1.692
6.0,-4.0,1.693
12.0,-5.0,1.694
12.0,-3.0,1.695
10.0,-3.0,1.696
11.0,-1.0,1.697
14.0,0.0,1.698
15.0,3.0,1.699
12.0,5.0,1.7
7.0,1.0,1.701
3.0,0.0,1.702
5.0,0.0,1.703
11.0,2.0,1.704
14.0,4.0,1.705
12.0,3.0,1.706
8.0,0.0,1.707
6.0,-4.0,1.708
6.0,-6.0,1.709
3.0,-4.0,1.71
1.0,-1.0,1.711
1.0,3.0,1.712
1.0,2.0,1.713
0.0,-1.0,1.714
-3.0,-5.0,1.715
-2.0,-4.0,1.716
5.0,1.0,1.717
7.0,3.0,1.718
5.0,2.0,1.719
2.0,-3.0,1.72
0.0,-7.0,1.721
-1.0,-7.0,1.722
3.0,-6.0,1.723
5.0,-6.0,1.724
0.0,-3.0,1.725
-4.0,2.0,1.726
-4.0,4.0,1.727
-3.0,1.0,1.728
0.0,0.0,1.729
0.0,3.0,1.73
-6.0,6.0,1.731
-12.0,1.0,1.732
-14.0,-5.0,1.733
-14.0,-6.0,1.734
-6.0,-2.0,1.735
2.0,1.0,1.736
6.0,0.0,1.737
10.0,-4.0,1.738
3.0,-7.0,1.739
-3.0,-7.0,1.74
-4.0,-10.0,1.741
-1.0,-9.0,1.742
5.0,-7.0,1.743
11.0,-4.0,1.744
11.0,0.0,1.745
7.0,5.0,1.746
8.0,5.0,1.747
14.0,2.0,1.748
16.0,0.0,1.749
9.0,4.0,1.75
2.0,8.0,1.751
4.0,5.0,1.752
8.0,-1.0,1.753
8.0,-6.0,1.754
8.0,-5.0,1.755
12.0,-5.0,1.756
16.0,-5.0,1.757
10.0,-5.0,1.758
0.0,-5.0,1.759
-8.0,-4.0,1.76
-11.0,-6.0,1.761
-9.0,-2.0,1.762
-1.0,0.0,1.763
9.0,0.0,1.764
10.0,-1.0,1.765
2.0,2.0,1.766
-3.0,4.0,1.767
2.0,5.0,1.768
6.0,4.0,1.769
0.0,5.0,1.77
-8.0,6.0,1.771
-3.0,6.0,1.772
7.0,5.0,1.773
10.0,4.0,1.774
7.0,4.0,1.775
12.0,3.0,1.776
19.0,3.0,1.777
21.0,-1.0,1.778
15.0,-4.0,1.779
1.0,-5.0,1.78
-12.0,-7.0,1.781
-19.0,-7.0,1.782
-18.0,-6.0,1.783
-8.0,-3.0,1.784
-2.0,2.0,1.785
-3.0,4.0,1.786
-6.0,0.0,1.787
-3.0,-3.0,1.788
3.0,-2.0,1.789
6.0,1.0,1.79
5.0,-4.0,1.791
6.0,-8.0,1.792
10.0,-7.0,1.793
16.0,1.0,1.794
17.0,3.0,1.795
10.0,-1.0,1.796
-2.0,-2.0,1.797
-14.0,0.0,1.798
-15.0,3.0,1.799
-13.0,1.0,1.8
-14.0,-6.0,1.801
-16.0,-7.0,1.802
-7.0,-4.0,1.803
12.0,-1.0,1.804
19.0,0.0,1.805
12.0,3.0,1.806
7.0,2.0,1.807
12.0,-1.0,1.808
18.0,-6.0,1.809
15.0,-5.0,1.81
11.0,0.0,1.811
14.0,2.0,1.812
16.0,3.0,1.813
10.0,2.0,1.814
0.0,0.0,1.815
-2.0,-1.0,1.816
1.0,1.0,1.817
0.0,2.0,1.818
-3.0,0.0,1.819
-5.0,-5.0,1.82
-7.0,-9.0,1.821
-6.0,-6.0,1.822
0.0,-3.0,1.823
8.0,-2.0,1.824
11.0,1.0,1.825
4.0,8.0,1.826
2.0,9.0,1.827
8.0,1.0,1.828
9.0,-3.0,1.829
4.0,0.0,1.83
1.0,4.0,1.831
5.0,2.0,1.832
9.0,-1.0,1.833
3.0,-1.0,1.834
-2.0,2.0,1.835
1.0,2.0,1.836
5.0,0.0,1.837
5.0,-3.0,1.838
2.0,-4.0,1.839
1.0,-5.0,1.84
1.0,-8.0,1.841
-1.0,-10.0,1.842
0.0,-10.0,1.843
4.0,-7.0,1.844
4.0,-2.0,1.845
0.0,-1.0,1.846
-3.0,-1.0,1.847
0.0,-1.0,1.848
5.0,1.0,1.849
7.0,7.0,1.85
5.0,9.0,1.851
2.0,9.0,1.852
-1.0,9.0,1.853
-2.0,7.0,1.854
0.0,4.0,1.855
0.0,0.0,1.856
-3.0,2.0,1.857
-5.0,1.0,1.858
-1.0,-4.0,1.859
0.0,-7.0,1.86
-6.0,-11.0,1.861
-10.0,-9.0,1.862
-1.0,-9.0,1.863
6.0,-6.0,1.864
7.0,0.0,1.865
9.0,6.0,1.866
9.0,4.0,1.867
11.0,-3.0,1.868
16.0,-6.0,1.869
22.0,-2.0,1.87
27.0,3.0,1.871
27.0,3.0,1.872
7.0,0.0,1.873
-8.0,-1.0,1.874
-12.0,0.0,1.875
-15.0,3.0,1.876
-14.0,4.0,1.877
-13.0,3.0,1.878
-11.0,0.0,1.879
-4.0,-6.0,1.88
-5.0,-9.0,1.881
-17.0,-6.0,1.882
-21.0,0.0,1.883
-10.0,5.0,1.884
3.0,8.0,1.885
4.0,8.0,1.886
0.0,2.0,1.887
3.0,-6.0,1.888
10.0,-7.0,1.889
10.0,-2.0,1.89
5.0,-1.0,1.891
10.0,-10.0,1.892
21.0,-14.0,1.893
25.0,-4.0,1.894
17.0,9.0,1.895
7.0,8.0,1.896
3.0,1.0,1.897
1.0,-3.0,1.898
-3.0,-1.0,1.899
-10.0,0.0,1.9
-14.0,-6.0,1.901
-13.0,-6.0,1.902
-4.0,-1.0,1.903
6.0,3.0,1.904
9.0,4.0,1.905
2.0,3.0,1.906
-1.0,3.0,1.907
3.0,4.0,1.908
14.0,3.0,1.909
19.0,2.0,1.91
23.0,1.0,1.911
29.0,1.0,1.912
29.0,1.0,1.913
18.0,2.0,1.914
1.0,4.0,1.915
-10.0,7.0,1.916
-14.0,7.0,1.917
-18.0,0.0,1.918
-23.0,-5.0,1.919
-24.0,-7.0,1.92
-20.0,-10.0,1.921
-10.0,-9.0,1.922
0.0,-6.0,1.923
10.0,-4.0,1.924
10.0,-3.0,1.925
4.0,-3.0,1.926
0.0,-1.0,1.927
3.0,3.0,1.928
7.0,8.0,1.929
10.0,7.0,1.93
14.0,5.0,1.931
17.0,5.0,1.932
16.0,5.0,1.933
15.0,3.0,1.934
18.0,0.0,1.935
25.0,-1.0,1.936
27.0,1.0,1.937
16.0,0.0,1.938
0.0,-4.0,1.939
-15.0,-9.0,1.94
-22.0,-15.0,1.941
-20.0,-11.0,1.942
-10.0,-5.0,1.943
-5.0,-1.0,1.944
-11.0,0.0,1.945
-16.0,1.0,1.946
-10.0,4.0,1.947
2.0,5.0,1.948
9.0,3.0,1.949
5.0,0.0,1.95
1.0,-2.0,1.951
4.0,0.0,1.952
12.0,4.0,1.953
15.0,2.0,1.954
13.0,-5.0,1.955
10.0,-10.0,1.956
11.0,-5.0,1.957
10.0,2.0,1.958
6.0,2.0,1.959
2.0,-5.0,1.96
0.0,-12.0,1.961
-1.0,-9.0,1.962
3.0,-5.0,1.963
7.0,-5.0,1.964
6.0,-3.0,1.965
-3.0,3.0,1.966
-11.0,5.0,1.967
-7.0,1.0,1.968
-1.0,-2.0,1.969
0.0,-1.0,1.97
-5.0,0.0,1.971
-7.0,-2.0,1.972
-3.0,-1.0,1.973
0.0,4.0,1.974
-1.0,6.0,1.975
-2.0,1.0,1.976
1.0,-2.0,1.977
5.0,1.0,1.978
5.0,8.0,1.979
0.0,8.0,1.98
-7.0,0.0,1.981
-11.0,-6.0,1.982
-7.0,-6.0,1.983
2.0,-3.0,1.984
9.0,-1.0,1.985
12.0,0.0,1.986
14.0,-3.0,1.987
21.0,-5.0,1.988
23.0,-2.0,1.989
16.0,2.0,1.99
4.0,5.0,1.991
-1.0,1.0,1.992
-1.0,-3.0,1.993
-1.0,-3.0,1.994
1.0,0.0,1.995
8.0,1.0,1.996
18.0,2.0,1.997
22.0,0.0,1.998
14.0,0.0,1.999
-4.0,0.0,2.0
-18.0,-4.0,2.001
-19.0,-6.0,2.002
-12.0,-10.0,2.003
-6.0,-9.0,2.004
-5.0,-4.0,2.005
-6.0,0.0,2.006
-3.0,0.0,2.007
1.0,-2.0,2.008
3.0,0.0,2.009
0.0,2.0,2.01
2.0,3.0,2.011
7.0,3.0,2.012
12.0,4.0,2.013
10.0,5.0,2.014
6.0,6.0,2.015
7.0,1.0,2.016
14.0,0.0,2.017
18.0,-1.0,2.018
18.0,0.0,2.019
15.0,-3.0,2.02
10.0,-12.0,2.021
4.0,-13.0,2.022
3.0,-5.0,2.023
4.0,2.0,2.024
1.0,4.0,2.025
-8.0,1.0,2.026
-18.0,-2.0,2.027
-20.0,-3.0,2.028
-15.0,-3.0,2.029
-11.0,-2.0,2.03
-14.0,-2.0,2.031
-16.0,-2.0,2.032
-14.0,1.0,2.033
-4.0,10.0,2.034
5.0,18.0,2.035
14.0,17.0,2.036
18.0,10.0,2.037
17.0,1.0,2.038
11.0,-3.0,2.039
3.0,-5.0,2.04
-1.0,-10.0,2.041
0.0,-12.0,2.042
6.0,-8.0,2.043
13.0,-1.0,2.044
17.0,4.0,2.045
18.0,6.0,2.046
17.0,2.0,2.047
17.0,-3.0,2.048
14.0,-3.0,2.049
10.0,0.0,2.05
5.0,2.0,2.051
2.0,-1.0,2.052
-2.0,-4.0,2.053
-6.0,-2.0,2.054
-9.0,0.0,2.055
-7.0,0.0,2.056
0.0,0.0,2.057
3.0,0.0,2.058
2.0,0.0,2.059
0.0,-4.0,2.06
1.0,-10.0,2.061
14.0,-8.0,2.062
31.0,-4.0,2.063
34.0,1.0,2.064
16.0,2.0,2.065
-14.0,3.0,2.066
-29.0,2.0,2.067
-25.0,0.0,2.068
-18.0,0.0,2.069
-17.0,-1.0,2.07
-15.0,-4.0,2.071
-6.0,-5.0,2.072
1.0,-1.0,2.073
2.0,4.0,2.074
5.0,4.0,2.075
12.0,1.0,2.076
16.0,0.0,2.077
10.0,-1.0,2.078
2.0,-2.0,2.079
-7.0,-3.0,2.08
-15.0,-5.0,2.081
-18.0,-5.0,2.082
-10.0,-6.0,2.083
2.0,-5.0,2.084
8.0,-2.0,2.085
5.0,0.0,2.086
5.0,-2.0,2.087
11.0,-3.0,2.088
14.0,0.0,2.089
9.0,3.0,2.09
6.0,1.0,2.091
9.0,0.0,2.092
9.0,3.0,2.093
6.0,9.0,2.094
5.0,13.0,2.095
10.0,11.0,2.096
13.0,8.0,2.097
11.0,2.0,2.098
9.0,-1.0,2.099
8.0,-1.0,2.1
5.0,-1.0,2.101
5.0,0.0,2.102
12.0,-4.0,2.103
22.0,-9.0,2.104
22.0,-8.0,2.105
13.0,-2.0,2.106
5.0,1.0,2.107
3.0,-1.0,2.108
1.0,-3.0,2.109
-6.0,-2.0,2.11
-13.0,-1.0,2.111
-14.0,-4.0,2.112
-10.0,-4.0,2.113
-8.0,1.0,2.114
-6.0,7.0,2.115
-3.0,6.0,2.116
-1.0,2.0,2.117
0.0,1.0,2.118
2.0,0.0,2.119
3.0,-3.0,2.12
0.0,-9.0,2.121
-5.0,-11.0,2.122
-4.0,-6.0,2.123
2.0,-1.0,2.124
5.0,1.0,2.125
0.0,2.0,2.126
-2.0,1.0,2.127
3.0,-2.0,2.128
9.0,-4.0,2.129
9.0,-3.0,2.13
5.0,1.0,2.131
7.0,4.0,2.132
11.0,3.0,2.133
9.0,-1.0,2.134
7.0,-4.0,2.135
11.0,-3.0,2.136
23.0,0.0,2.137
28.0,0.0,2.138
16.0,-2.0,2.139
-9.0,-3.0,2.14
-30.0,-5.0,2.141
-31.0,-5.0,2.142
-20.0,-8.0,2.143
-12.0,-8.0,2.144
-15.0,-5.0,2.145
-19.0,0.0,2.146
-12.0,1.0,2.147
0.0,-2.0,2.148
7.0,-2.0,2.149
11.0,1.0,2.15
20.0,2.0,2.151
28.0,0.0,2.152
26.0,0.0,2.153
13.0,4.0,2.154
2.0,9.0,2.155
0.0,10.0,2.156
2.0,10.0,2.157
2.0,7.0,2.158
1.0,2.0,2.159
1.0,-3.0,2.16
-1.0,-7.0,2.161
-4.0,-6.0,2.162
-2.0,-4.0,2.163
2.0,-4.0,2.164
2.0,-5.0,2.165
-2.0,-3.0,2.166
-5.0,0.0,2.167
0.0,3.0,2.168
8.0,6.0,2.169
11.0,6.0,2.17
7.0,3.0,2.171
2.0,0.0,2.172
-2.0,0.0,2.173
0.0,0.0,2.174
2.0,1.0,2.175
2.0,0.0,2.176
1.0,1.0,2.177
-1.0,-1.0,2.178
-1.0,-4.0,2.179
-3.0,-5.0,2.18
-5.0,-3.0,2.181
-3.0,1.0,2.182
5.0,0.0,2.183
15.0,-5.0,2.184
13.0,-7.0,2.185
7.0,-3.0,2.186
5.0,-2.0,2.187
9.0,-1.0,2.188
11.0,0.0,2.189
8.0,2.0,2.19
3.0,0.0,2.191
3.0,-4.0,2.192
3.0,-5.0,2.193
4.0,0.0,2.194
9.0,2.0,2.195
19.0,0.0,2.196
33.0,0.0,2.197
40.0,0.0,2.198
35.0,-1.0,2.199
13.0,-5.0,2.2
-14.0,-8.0,2.201
-29.0,-6.0,2.202
-24.0,-3.0,2.203
-13.0,-3.0,2.204
-11.0,-3.0,2.205
-13.0,0.0,2.206
-8.0,1.0,2.207
-1.0,0.0,2.208
-2.0,0.0,2.209
-8.0,5.0,2.21
-7.0,5.0,2.211
5.0,1.0,2.212
19.0,-1.0,2.213
26.0,0.0,2.214
24.0,0.0,2.215
17.0,-3.0,2.216
8.0,0.0,2.217
-2.0,3.0,2.218
-8.0,4.0,2.219
-11.0,1.0,2.22
-15.0,-3.0,2.221
-18.0,-2.0,2.222
-16.0,-3.0,2.223
-11.0,-8.0,2.224
-8.0,-8.0,2.225
-9.0,-3.0,2.226
-9.0,1.0,2.227
-1.0,1.0,2.228
7.0,0.0,2.229
8.0,3.0,2.23
4.0,5.0,2.231
7.0,0.0,2.232
16.0,-5.0,2.233
21.0,-2.0,2.234
16.0,5.0,2.235
12.0,7.0,2.236
13.0,1.0,2.237
11.0,-3.0,2.238
3.0,0.0,2.239
-5.0,4.0,2.24
-8.0,-1.0,2.241
-5.0,-6.0,2.242
-1.0,-6.0,2.243
3.0,-4.0,2.244
3.0,-1.0,2.245
-2.0,-2.0,2.246
-4.0,-3.0,2.247
0.0,-1.0,2.248
8.0,1.0,2.249
11.0,4.0,2.25
11.0,2.0,2.251
13.0,-3.0,2.252
13.0,-5.0,2.253
4.0,-1.0,2.254
-4.0,2.0,2.255
-8.0,1.0,2.256
-6.0,2.0,2.257
-4.0,5.0,2.258
-1.0,6.0,2.259
1.0,0.0,2.26
1.0,-8.0,2.261
-2.0,-7.0,2.262
0.0,-3.0,2.263
7.0,-3.0,2.264
12.0,-4.0,2.265
7.0,0.0,2.266
4.0,4.0,2.267
7.0,2.0,2.268
11.0,-1.0,2.269
10.0,-1.0,2.27
7.0,1.0,2.271
8.0,3.0,2.272
9.0,4.0,2.273
7.0,2.0,2.274
9.0,-1.0,2.275
13.0,-3.0,2.276
15.0,-2.0,2.277
5.0,-3.0,2.278
-6.0,-6.0,2.279
-16.0,-11.0,2.28
-20.0,-11.0,2.281
-16.0,-6.0,2.282
-5.0,0.0,2.283
8.0,3.0,2.284
14.0,6.0,2.285
9.0,6.0,2.286
-3.0,3.0,2.287
-16.0,-3.0,2.288
-23.0,-4.0,2.289
-20.0,-1.0,2.29
-9.0,2.0,2.291
-3.0,0.0,2.292
-7.0,-3.0,2.293
-12.0,-1.0,2.294
-8.0,4.0,2.295
1.0,7.0,2.296
6.0,6.0,2.297
7.0,0.0,2.298
10.0,-4.0,2.299
10.0,-8.0,2.3
5.0,-10.0,2.301
1.0,-8.0,2.302
11.0,-4.0,2.303
26.0,0.0,2.304
30.0,1.0,2.305
20.0,2.0,2.306
12.0,4.0,2.307
14.0,4.0,2.308
13.0,5.0,2.309
4.0,7.0,2.31
0.0,7.0,2.311
3.0,5.0,2.312
10.0,2.0,2.313
10.0,2.0,2.314
9.0,4.0,2.315
10.0,2.0,2.316
13.0,-1.0,2.317
11.0,-6.0,2.318
6.0,-10.0,2.319
-1.0,-11.0,2.32
-10.0,-9.0,2.321
-16.0,-4.0,2.322
-10.0,-2.0,2.323
0.0,-3.0,2.324
3.0,1.0,2.325
-1.0,8.0,2.326
-3.0,8.0,2.327
2.0,0.0,2.328
4.0,-4.0,2.329
-2.0,-1.0,2.33
-2.0,4.0,2.331
3.0,2.0,2.332
6.0,0.0,2.333
6.0,2.0,2.334
10.0,5.0,2.335
17.0,1.0,2.336
21.0,-2.0,2.337
13.0,-1.0,2.338
7.0,4.0,2.339
9.0,5.0,2.34
15.0,-4.0,2.341
14.0,-8.0,2.342
6.0,-6.0,2.343
0.0,-4.0,2.344
-7.0,-5.0,2.345
-14.0,-5.0,2.346
-17.0,-6.0,2.347
-11.0,-4.0,2.348
-3.0,0.0,2.349
-1.0,4.0,2.35
-5.0,4.0,2.351
-10.0,0.0,2.352
-12.0,-4.0,2.353
-13.0,-1.0,2.354
-10.0,4.0,2.355
-1.0,4.0,2.356
10.0,1.0,2.357
9.0,-2.0,2.358
-4.0,0.0,2.359
-15.0,1.0,2.36
-17.0,-2.0,2.361
-13.0,-5.0,2.362
-7.0,-5.0,2.363
0.0,-3.0,2.364
8.0,0.0,2.365
13.0,3.0,2.366
16.0,4.0,2.367
17.0,2.0,2.368
13.0,0.0,2.369
8.0,0.0,2.37
5.0,3.0,2.371
9.0,1.0,2.372
8.0,-5.0,2.373
3.0,-5.0,2.374
3.0,-1.0,2.375
13.0,2.0,2.376
19.0,4.0,2.377
15.0,3.0,2.378
7.0,3.0,2.379
2.0,0.0,2.38
2.0,-6.0,2.381
0.0,-9.0,2.382
1.0,-6.0,2.383
7.0,0.0,2.384
8.0,7.0,2.385
3.0,9.0,2.386
0.0,5.0,2.387
4.0,0.0,2.388
7.0,-1.0,2.389
1.0,2.0,2.39
-3.0,3.0,2.391
0.0,3.0,2.392
6.0,2.0,2.393
6.0,1.0,2.394
1.0,-1.0,2.395
1.0,-4.0,2.396
5.0,0.0,2.397
7.0,3.0,2.398
6.0,3.0,2.399
4.0,-3.0,2.4
3.0,-13.0,2.401
1.0,-11.0,2.402
1.0,-2.0,2.403
8.0,0.0,2.404
14.0,-4.0,2.405
10.0,-8.0,2.406
-1.0,-8.0,2.407
-11.0,-7.0,2.408
-10.0,-5.0,2.409
-2.0,0.0,2.41
0.0,3.0,2.411
-5.0,0.0,2.412
-9.0,-3.0,2.413
-3.0,-3.0,2.414
7.0,-3.0,2.415
9.0,-6.0,2.416
7.0,-7.0,2.417
4.0,-7.0,2.418
4.0,-6.0,2.419
2.0,-5.0,2.42
-7.0,-6.0,2.421
-11.0,-7.0,2.422
2.0,-4.0,2.423
11.0,-1.0,2.424
6.0,-1.0,2.425
1.0,-1.0,2.426
-3.0,0.0,2.427
-4.0,1.0,2.428
4.0,0.0,2.429
8.0,0.0,2.43
-2.0,7.0,2.431
-9.0,12.0,2.432
-3.0,7.0,2.433
2.0,3.0,2.434
6.0,3.0,2.435
9.0,3.0,2.436
7.0,2.0,2.437
4.0,0.0,2.438
0.0,-4.0,2.439
-6.0,-2.0,2.44
-10.0,1.0,2.441
-7.0,1.0,2.442
-1.0,-1.0,2.443
3.0,0.0,2.444
8.0,7.0,2.445
12.0,8.0,2.446
13.0,1.0,2.447
14.0,-4.0,2.448
16.0,-1.0,2.449
18.0,3.0,2.45
17.0,0.0,2.451
11.0,-2.0,2.452
2.0,1.0,2.453
-5.0,7.0,2.454
-11.0,5.0,2.455
-11.0,-1.0,2.456
-7.0,-1.0,2.457
0.0,1.0,2.458
7.0,3.0,2.459
8.0,-1.0,2.46
7.0,-8.0,2.461
10.0,-11.0,2.462
14.0,-11.0,2.463
9.0,-8.0,2.464
-4.0,-4.0,2.465
-13.0,-2.0,2.466
-12.0,0.0,2.467
-7.0,0.0,2.468
-6.0,-1.0,2.469
-6.0,0.0,2.47
-1.0,0.0,2.471
6.0,3.0,2.472
7.0,4.0,2.473
1.0,3.0,2.474
2.0,0.0,2.475
12.0,-3.0,2.476
19.0,0.0,2.477
19.0,2.0,2.478
18.0,4.0,2.479
17.0,7.0,2.48
19.0,4.0,2.481
15.0,2.0,2.482
5.0,0.0,2.483
-5.0,-2.0,2.484
-11.0,-1.0,2.485
-11.0,-2.0,2.486
-4.0,-3.0,2.487
2.0,-3.0,2.488
4.0,0.0,2.489
0.0,2.0,2.49
-2.0,0.0,2.491
0.0,-2.0,2.492
0.0,0.0,2.493
-4.0,-1.0,2.494
-10.0,-2.0,2.495
-12.0,-3.0,2.496
-9.0,-2.0,2.497
-6.0,0.0,2.498
-1.0,-1.0,2.499
0.0,-4.0,2.5
1.0,-7.0,2.501
6.0,-8.0,2.502
13.0,-4.0,2.503
14.0,0.0,2.504
9.0,2.0,2.505
2.0,2.0,2.506
3.0,2.0,2.507
10.0,5.0,2.508
10.0,3.0,2.509
5.0,-1.0,2.51
5.0,-1.0,2.511
10.0,2.0,2.512
7.0,3.0,2.513
-6.0,-4.0,2.514
-18.0,-9.0,2.515
-18.0,-5.0,2.516
-11.0,2.0,2.517
-6.0,5.0,2.518
-2.0,3.0,2.519
0.0,2.0,2.52
3.0,0.0,2.521
6.0,-1.0,2.522
12.0,-5.0,2.523
16.0,-5.0,2.524
14.0,-1.0,2.525
7.0,5.0,2.526
5.0,7.0,2.527
12.0,4.0,2.528
17.0,-1.0,2.529
20.0,-4.0,2.53
21.0,-4.0,2.531
20.0,-1.0,2.532
10.0,0.0,2.533
-6.0,2.0,2.534
-16.0,2.0,2.535
-12.0,2.0,2.536
-4.0,2.0,2.537
-1.0,1.0,2.538
-2.0,0.0,2.539
-3.0,-2.0,2.54
-4.0,-7.0,2.541
-5.0,-8.0,2.542
-3.0,-6.0,2.543
2.0,-3.0,2.544
2.0,0.0,2.545
-3.0,0.0,2.546
-6.0,-3.0,2.547
-2.0,-6.0,2.548
1.0,-4.0,2.549
0.0,1.0,2.55
2.0,1.0,2.551
5.0,-2.0,2.552
7.0,-2.0,2.553
5.0,3.0,2.554
8.0,9.0,2.555
12.0,6.0,2.556
14.0,2.0,2.557
8.0,0.0,2.558
3.0,0.0,2.559
2.0,-1.0,2.56
0.0,-6.0,2.561
-6.0,-10.0,2.562
-5.0,-7.0,2.563
6.0,-3.0,2.564
18.0,0.0,2.565
16.0,3.0,2.566
7.0,1.0,2.567
3.0,0.0,2.568
6.0,-1.0,2.569
6.0,-1.0,2.57
0.0,1.0,2.571
-1.0,4.0,2.572
4.0,2.0,2.573
12.0,1.0,2.574
15.0,0.0,2.575
8.0,-1.0,2.576
0.0,-1.0,2.577
-7.0,-1.0,2.578
-12.0,-1.0,2.579
-19.0,-1.0,2.58
-24.0,-3.0,2.581
-25.0,-1.0,2.582
-15.0,-2.0,2.583
1.0,-4.0,2.584
8.0,-3.0,2.585
6.0,3.0,2.586
3.0,5.0,2.587
5.0,1.0,2.588
5.0,-3.0,2.589
-1.0,0.0,2.59
-6.0,2.0,2.591
-4.0,-1.0,2.592
-2.0,-6.0,2.593
0.0,-1.0,2.594
2.0,4.0,2.595
8.0,2.0,2.596
11.0,-4.0,2.597
10.0,-10.0,2.598
7.0,-10.0,2.599
2.0,-7.0,2.6
-1.0,-5.0,2.601
0.0,-2.0,2.602
8.0,-3.0,2.603
18.0,-4.0,2.604
18.0,-2.0,2.605
11.0,1.0,2.606
8.0,2.0,2.607
13.0,1.0,2.608
15.0,3.0,2.609
7.0,7.0,2.61
2.0,7.0,2.611
6.0,3.0,2.612
10.0,2.0,2.613
6.0,3.0,2.614
1.0,1.0,2.615
3.0,-3.0,2.616
10.0,-1.0,2.617
15.0,0.0,2.618
17.0,1.0,2.619
11.0,-2.0,2.62
-1.0,-8.0,2.621
-14.0,-7.0,2.622
-17.0,-5.0,2.623
-10.0,-1.0,2.624
-7.0,1.0,2.625
-9.0,3.0,2.626
-5.0,2.0,2.627
0.0,0.0,2.628
0.0,0.0,2.629
-9.0,2.0,2.63
-12.0,5.0,2.631
-5.0,7.0,2.632
0.0,7.0,2.633
-1.0,4.0,2.634
1.0,1.0,2.635
10.0,-6.0,2.636
16.0,-8.0,2.637
8.0,-10.0,2.638
1.0,-8.0,2.639
-3.0,-5.0,2.64
-3.0,-9.0,2.641
-3.0,-11.0,2.642
7.0,-6.0,2.643
25.0,0.0,2.644
37.0,5.0,2.645
34.0,7.0,2.646
22.0,6.0,2.647
13.0,3.0,2.648
5.0,2.0,2.649
-4.0,4.0,2.65
-12.0,4.0,2.651
-13.0,0.0,2.652
-12.0,-2.0,2.653
-12.0,-1.0,2.654
-10.0,-2.0,2.655
-5.0,-1.0,2.656
-3.0,-1.0,2.657
-7.0,0.0,2.658
-12.0,0.0,2.659
-11.0,-3.0,2.66
-8.0,-11.0,2.661
-6.0,-14.0,2.662
-2.0,-9.0,2.663
8.0,-4.0,2.664
15.0,0.0,2.665
12.0,3.0,2.666
8.0,2.0,2.667
8.0,1.0,2.668
10.0,0.0,2.669
9.0,0.0,2.67
8.0,3.0,2.671
10.0,5.0,2.672
13.0,5.0,2.673
12.0,5.0,2.674
11.0,5.0,2.675
9.0,4.0,2.676
6.0,1.0,2.677
3.0,-4.0,2.678
1.0,-4.0,2.679
-2.0,-2.0,2.68
-8.0,-6.0,2.681
-9.0,-10.0,2.682
-1.0,-11.0,2.683
9.0,-5.0,2.684
7.0,1.0,2.685
-1.0,3.0,2.686
0.0,1.0,2.687
13.0,-1.0,2.688
23.0,0.0,2.689
19.0,2.0,2.69
8.0,0.0,2.691
-2.0,-1.0,2.692
-9.0,-2.0,2.693
-14.0,0.0,2.694
-15.0,2.0,2.695
-16.0,3.0,2.696
-15.0,3.0,2.697
-12.0,0.0,2.698
-6.0,-2.0,2.699
-3.0,-5.0,2.7
-5.0,-10.0,2.701
-3.0,-7.0,2.702
11.0,-2.0,2.703
31.0,2.0,2.704
39.0,3.0,2.705
28.0,0.0,2.706
7.0,-1.0,2.707
-7.0,-3.0,2.708
-9.0,-3.0,2.709
-6.0,0.0,2.71
-4.0,4.0,2.711
-3.0,6.0,2.712
-4.0,3.0,2.713
-4.0,0.0,2.714
-7.0,1.0,2.715
-4.0,4.0,2.716
2.0,7.0,2.717
7.0,3.0,2.718
5.0,-3.0,2.719
1.0,-4.0,2.72
2.0,-3.0,2.721
8.0,-2.0,2.722
14.0,-2.0,2.723
15.0,-2.0,2.724
12.0,-1.0,2.725
6.0,1.0,2.726
0.0,2.0,2.727
-3.0,4.0,2.728
-4.0,4.0,2.729
-2.0,4.0,2.73
1.0,3.0,2.731
7.0,3.0,2.732
8.0,2.0,2.733
3.0,1.0,2.734
-3.0,0.0,2.735
-2.0,-1.0,2.736
0.0,-4.0,2.737
0.0,-9.0,2.738
-1.0,-13.0,2.739
-3.0,-10.0,2.74
-3.0,-8.0,2.741
-2.0,-6.0,2.742
4.0,-3.0,2.743
16.0,3.0,2.744
18.0,6.0,2.745
10.0,2.0,2.746
2.0,-1.0,2.747
6.0,1.0,2.748
11.0,7.0,2.749
9.0,8.0,2.75
1.0,3.0,2.751
-1.0,-1.0,2.752
2.0,1.0,2.753
3.0,4.0,2.754
0.0,4.0,2.755
-4.0,0.0,2.756
-4.0,-3.0,2.757
-2.0,-6.0,2.758
1.0,-6.0,2.759
4.0,-4.0,2.76
4.0,-4.0,2.761
2.0,-2.0,2.762
4.0,-1.0,2.763
7.0,1.0,2.764
5.0,2.0,2.765
-3.0,1.0,2.766
-9.0,0.0,2.767
-7.0,-3.0,2.768
0.0,-4.0,2.769
2.0,-1.0,2.77
2.0,1.0,2.771
3.0,1.0,2.772
6.0,-1.0,2.773
6.0,0.0,2.774
7.0,3.0,2.775
10.0,4.0,2.776
10.0,3.0,2.777
4.0,0.0,2.778
-1.0,-2.0,2.779
-2.0,-6.0,2.78
-2.0,-13.0,2.781
-3.0,-14.0,2.782
-1.0,-7.0,2.783
9.0,1.0,2.784
19.0,6.0,2.785
23.0,7.0,2.786
23.0,4.0,2.787
19.0,3.0,2.788
9.0,1.0,2.789
-3.0,1.0,2.79
-8.0,0.0,2.791
-7.0,1.0,2.792
-4.0,1.0,2.793
-4.0,0.0,2.794
0.0,-3.0,2.795
5.0,-6.0,2.796
7.0,-3.0,2.797
-1.0,1.0,2.798
-6.0,1.0,2.799
-7.0,-3.0,2.8
-7.0,-9.0,2.801
-8.0,-10.0,2.802
-6.0,-6.0,2.803
-1.0,0.0,2.804
-1.0,5.0,2.805
-7.0,7.0,2.806
-10.0,6.0,2.807
0.0,1.0,2.808
13.0,-3.0,2.809
16.0,-6.0,2.81
10.0,-3.0,2.811
4.0,1.0,2.812
3.0,7.0,2.813
3.0,8.0,2.814
0.0,5.0,2.815
-5.0,0.0,2.816
-6.0,0.0,2.817
-3.0,0.0,2.818
3.0,0.0,2.819
5.0,-3.0,2.82
2.0,-10.0,2.821
2.0,-12.0,2.822
9.0,-7.0,2.823
15.0,1.0,2.824
10.0,7.0,2.825
-1.0,9.0,2.826
-4.0,9.0,2.827
0.0,5.0,2.828
4.0,-2.0,2.829
4.0,-6.0,2.83
2.0,-5.0,2.831
2.0,-3.0,2.832
2.0,-6.0,2.833
0.0,-8.0,2.834
2.0,-4.0,2.835
8.0,1.0,2.836
14.0,2.0,2.837
17.0,-2.0,2.838
19.0,0.0,2.839
18.0,5.0,2.84
12.0,2.0,2.841
7.0,-4.0,2.842
7.0,-5.0,2.843
6.0,0.0,2.844
-1.0,4.0,2.845
-9.0,4.0,2.846
-9.0,1.0,2.847
-6.0,-2.0,2.848
-7.0,-5.0,2.849
-10.0,-5.0,2.85
-5.0,-2.0,2.851
3.0,2.0,2.852
5.0,2.0,2.853
0.0,0.0,2.854
-2.0,-1.0,2.855
1.0,-1.0,2.856
9.0,1.0,2.857
16.0,1.0,2.858
21.0,2.0,2.859
22.0,1.0,2.86
14.0,-3.0,2.861
3.0,-4.0,2.862
3.0,-5.0,2.863
12.0,-6.0,2.864
13.0,-3.0,2.865
-3.0,2.0,2.866
-21.0,6.0,2.867
-28.0,3.0,2.868
-23.0,1.0,2.869
-14.0,4.0,2.87
-9.0,5.0,2.871
-8.0,1.0,2.872
-10.0,-2.0,2.873
-8.0,-2.0,2.874
0.0,0.0,2.875
14.0,0.0,2.876
23.0,1.0,2.877
25.0,0.0,2.878
16.0,-1.0,2.879
1.0,-4.0,2.88
-11.0,-7.0,2.881
-17.0,-9.0,2.882
-12.0,-8.0,2.883
-7.0,-8.0,2.884
-8.0,-7.0,2.885
-8.0,-1.0,2.886
-4.0,2.0,2.887
5.0,1.0,2.888
9.0,0.0,2.889
6.0,3.0,2.89
2.0,4.0,2.891
2.0,1.0,2.892
4.0,2.0,2.893
7.0,6.0,2.894
9.0,6.0,2.895
10.0,2.0,2.896
11.0,-1.0,2.897
10.0,0.0,2.898
7.0,-1.0,2.899
3.0,-6.0,2.9
0.0,-7.0,2.901
3.0,-3.0,2.902
9.0,1.0,2.903
12.0,0.0,2.904
11.0,0.0,2.905
10.0,2.0,2.906
9.0,1.0,2.907
10.0,-2.0,2.908
10.0,-1.0,2.909
10.0,4.0,2.91
10.0,3.0,2.911
10.0,-1.0,2.912
13.0,-3.0,2.913
14.0,2.0,2.914
11.0,3.0,2.915
8.0,-2.0,2.916
7.0,-3.0,2.917
9.0,-1.0,2.918
12.0,1.0,2.919
11.0,-1.0,2.92
5.0,-6.0,2.921
-6.0,-7.0,2.922
-17.0,-7.0,2.923
-21.0,-6.0,2.924
-21.0,0.0,2.925
-21.0,6.0,2.926
-23.0,5.0,2.927
-20.0,-1.0,2.928
-14.0,-2.0,2.929
-8.0,1.0,2.93
-7.0,2.0,2.931
-7.0,0.0,2.932
-3.0,-1.0,2.933
2.0,0.0,2.934
10.0,0.0,2.935
20.0,-4.0,2.936
27.0,-4.0,2.937
26.0,-5.0,2.938
16.0,-6.0,2.939
2.0,-7.0,2.94
-2.0,-9.0,2.941
2.0,-7.0,2.942
10.0,-6.0,2.943
9.0,-4.0,2.944
0.0,2.0,2.945
-8.0,4.0,2.946
-8.0,0.0,2.947
-3.0,-4.0,2.948
-1.0,-1.0,2.949
-1.0,3.0,2.95
-1.0,0.0,2.951
-1.0,-7.0,2.952
1.0,-5.0,2.953
6.0,1.0,2.954
9.0,3.0,2.955
7.0,0.0,2.956
5.0,2.0,2.957
-1.0,5.0,2.958
-4.0,4.0,2.959
-11.0,-2.0,2.96
-16.0,-6.0,2.961
-15.0,-3.0,2.962
-1.0,-1.0,2.963
12.0,-1.0,2.964
16.0,0.0,2.965
13.0,5.0,2.966
8.0,8.0,2.967
6.0,5.0,2.968
7.0,1.0,2.969
11.0,0.0,2.97
14.0,1.0,2.971
16.0,0.0,2.972
14.0,-3.0,2.973
10.0,-2.0,2.974
5.0,0.0,2.975
1.0,1.0,2.976
0.0,0.0,2.977
1.0,0.0,2.978
8.0,-1.0,2.979
16.0,-4.0,2.98
15.0,-5.0,2.981
4.0,-2.0,2.982
-7.0,2.0,2.983
-13.0,0.0,2.984
-11.0,-1.0,2.985
-7.0,2.0,2.986
-2.0,6.0,2.987
2.0,4.0,2.988
5.0,1.0,2.989
1.0,2.0,2.99
-4.0,4.0,2.991
-6.0,2.0,2.992
-2.0,0.0,2.993
3.0,0.0,2.994
8.0,0.0,2.995
13.0,-4.0,2.996
18.0,-5.0,2.997
15.0,-4.0,2.998
4.0,-3.0,2.999
-4.0,-2.0,3.0
-4.0,-5.0,3.001
0.0,-6.0,3.002
11.0,-6.0,3.003
18.0,-5.0,3.004
12.0,0.0,3.005
4.0,6.0,3.006
-8.0,4.0,3.007
-17.0,-3.0,3.008
-15.0,-6.0,3.009
-13.0,0.0,3.01
-11.0,6.0,3.011
-8.0,4.0,3.012
1.0,-1.0,3.013
7.0,-6.0,3.014
5.0,-4.0,3.015
4.0,-1.0,3.016
4.0,3.0,3.017
2.0,3.0,3.018
-3.0,0.0,3.019
-9.0,-4.0,3.02
-8.0,-9.0,3.021
-1.0,-7.0,3.022
9.0,-3.0,3.023
17.0,-1.0,3.024
17.0,-1.0,3.025
10.0,-1.0,3.026
4.0,-2.0,3.027
8.0,-2.0,3.028
14.0,-2.0,3.029
15.0,0.0,3.03
15.0,2.0,3.031
17.0,4.0,3.032
18.0,6.0,3.033
10.0,6.0,3.034
-5.0,4.0,3.035
-18.0,2.0,3.036
-21.0,1.0,3.037
-17.0,-2.0,3.038
-13.0,-6.0,3.039
-13.0,-7.0,3.04
-12.0,-11.0,3.041
-8.0,-12.0,3.042
2.0,-11.0,3.043
14.0,-4.0,3.044
18.0,5.0,3.045
13.0,7.0,3.046
9.0,2.0,3.047
10.0,0.0,3.048
12.0,2.0,3.049
8.0,4.0,3.05
1.0,1.0,3.051
1.0,-3.0,3.052
6.0,-4.0,3.053
11.0,-3.0,3.054
13.0,-4.0,3.055
14.0,-2.0,3.056
13.0,1.0,3.057
4.0,1.0,3.058
-2.0,1.0,3.059
-7.0,1.0,3.06
-10.0,4.0,3.061
-10.0,6.0,3.062
-5.0,0.0,3.063
3.0,-3.0,3.064
5.0,2.0,3.065
6.0,5.0,3.066
14.0,2.0,3.067
23.0,0.0,3.068
21.0,0.0,3.069
10.0,-1.0,3.07
1.0,0.0,3.071
5.0,1.0,3.072
11.0,2.0,3.073
8.0,4.0,3.074
0.0,5.0,3.075
-5.0,5.0,3.076
-9.0,3.0,3.077
-13.0,0.0,3.078
-15.0,-7.0,3.079
-19.0,-10.0,3.08
-23.0,-11.0,3.081
-20.0,-8.0,3.082
-7.0,-8.0,3.083
5.0,-8.0,3.084
7.0,-5.0,3.085
2.0,-3.0,3.086
3.0,0.0,3.087
12.0,2.0,3.088
14.0,2.0,3.089
10.0,3.0,3.09
11.0,0.0,3.091
20.0,0.0,3.092
23.0,4.0,3.093
6.0,8.0,3.094
-19.0,5.0,3.095
-31.0,-2.0,3.096
-24.0,-5.0,3.097
-12.0,-3.0,3.098
-7.0,0.0,3.099
-10.0,-2.0,3.1
-7.0,-11.0,3.101
3.0,-11.0,3.102
13.0,-2.0,3.103
20.0,5.0,3.104
22.0,5.0,3.105
22.0,1.0,3.106
21.0,1.0,3.107
22.0,2.0,3.108
28.0,4.0,3.109
34.0,2.0,3.11
26.0,0.0,3.111
9.0,0.0,3.112
-2.0,3.0,3.113
-4.0,6.0,3.114
-6.0,6.0,3.115
-11.0,-1.0,3.116
-11.0,-5.0,3.117
-5.0,-7.0,3.118
1.0,-5.0,3.119
0.0,-2.0,3.12
-3.0,-3.0,3.121
-1.0,-4.0,3.122
4.0,-4.0,3.123
11.0,-1.0,3.124
15.0,4.0,3.125
13.0,8.0,3.126
12.0,4.0,3.127
12.0,0.0,3.128
10.0,2.0,3.129
4.0,7.0,3.13
0.0,5.0,3.131
2.0,-1.0,3.132
11.0,-4.0,3.133
14.0,-4.0,3.134
9.0,-3.0,3.135
0.0,-3.0,3.136
-2.0,-1.0,3.137
-8.0,-2.0,3.138
-17.0,-2.0,3.139
-24.0,-4.0,3.14
-23.0,-4.0,3.141
-19.0,-2.0,3.142
-13.0,-2.0,3.143
-6.0,-2.0,3.144
-4.0,-1.0,3.145
-2.0,0.0,3.146
3.0,-3.0,3.147
13.0,-5.0,3.148
17.0,-4.0,3.149
15.0,1.0,3.15
15.0,5.0,3.151
21.0,5.0,3.152
24.0,3.0,3.153
20.0,3.0,3.154
10.0,3.0,3.155
6.0,2.0,3.156
4.0,0.0,3.157
0.0,-2.0,3.158
-7.0,-4.0,3.159
-19.0,-3.0,3.16
-25.0,-7.0,3.161
-25.0,-10.0,3.162
-16.0,-9.0,3.163
-4.0,-3.0,3.164
1.0,2.0,3.165
-3.0,3.0,3.166
-5.0,0.0,3.167
3.0,1.0,3.168
15.0,5.0,3.169
16.0,8.0,3.17
10.0,5.0,3.171
9.0,5.0,3.172
15.0,5.0,3.173
19.0,4.0,3.174
17.0,0.0,3.175
14.0,0.0,3.176
15.0,5.0,3.177
16.0,7.0,3.178
8.0,3.0,3.179
-2.0,-1.0,3.18
-8.0,-3.0,3.181
-8.0,-5.0,3.182
-2.0,-5.0,3.183
2.0,-5.0,3.184
3.0,-5.0,3.185
2.0,-5.0,3.186
-2.0,-9.0,3.187
-3.0,-11.0,3.188
-2.0,-5.0,3.189
-2.0,-1.0,3.19
-1.0,-1.0,3.191
1.0,-1.0,3.192
8.0,0.0,3.193
14.0,2.0,3.194
15.0,3.0,3.195
9.0,3.0,3.196
2.0,-4.0,3.197
-4.0,-11.0,3.198
-8.0,-14.0,3.199
-12.0,-13.0,3.2
-15.0,-12.0,3.201
-14.0,-11.0,3.202
-5.0,-9.0,3.203
8.0,-3.0,3.204
13.0,4.0,3.205
7.0,6.0,3.206
2.0,5.0,3.207
9.0,7.0,3.208
17.0,13.0,3.209
15.0,14.0,3.21
8.0,6.0,3.211
5.0,-2.0,3.212
11.0,0.0,3.213
17.0,7.0,3.214
18.0,6.0,3.215
15.0,-1.0,3.216
12.0,-2.0,3.217
2.0,-1.0,3.218
-6.0,-1.0,3.219
-12.0,-4.0,3.22
-15.0,-5.0,3.221
-14.0,-1.0,3.222
-8.0,0.0,3.223
0.0,-2.0,3.224
6.0,0.0,3.225
3.0,2.0,3.226
-2.0,1.0,3.227
-3.0,0.0,3.228
-2.0,3.0,3.229
0.0,11.0,3.23
2.0,14.0,3.231
4.0,10.0,3.232
6.0,3.0,3.233
6.0,-1.0,3.234
4.0,-3.0,3.235
2.0,-5.0,3.236
-2.0,-3.0,3.237
-5.0,-4.0,3.238
-9.0,-8.0,3.239
-12.0,-11.0,3.24
-10.0,-12.0,3.241
-6.0,-12.0,3.242
3.0,-10.0,3.243
9.0,-7.0,3.244
11.0,1.0,3.245
11.0,7.0,3.246
11.0,9.0,3.247
9.0,10.0,3.248
5.0,7.0,3.249
2.0,4.0,3.25
5.0,5.0,3.251
9.0,7.0,3.252
7.0,7.0,3.253
0.0,6.0,3.254
-4.0,3.0,3.255
-7.0,0.0,3.256
-8.0,-7.0,3.257
-10.0,-14.0,3.258
-11.0,-18.0,3.259
-14.0,-16.0,3.26
-17.0,-14.0,3.261
-16.0,-11.0,3.262
-7.0,-10.0,3.263
6.0,-7.0,3.264
13.0,0.0,3.265
10.0,9.0,3.266
10.0,11.0,3.267
18.0,8.0,3.268
27.0,9.0,3.269
29.0,12.0,3.27
22.0,11.0,3.271
15.0,6.0,3.272
13.0,4.0,3.273
11.0,5.0,3.274
9.0,6.0,3.275
10.0,7.0,3.276
16.0,10.0,3.277
17.0,9.0,3.278
13.0,4.0,3.279
5.0,-2.0,3.28
0.0,-6.0,3.281
4.0,-4.0,3.282
14.0,-4.0,3.283
20.0,-2.0,3.284
15.0,-1.0,3.285
2.0,1.0,3.286
-4.0,1.0,3.287
-1.0,-2.0,3.288
0.0,-4.0,3.289
-6.0,-7.0,3.29
-13.0,-6.0,3.291
-9.0,-2.0,3.292
-3.0,0.0,3.293
-2.0,-1.0,3.294
-7.0,-6.0,3.295
-8.0,-8.0,3.296
0.0,-4.0,3.297
8.0,1.0,3.298
13.0,1.0,3.299
9.0,-2.0,3.3
-1.0,-6.0,3.301
-11.0,-4.0,3.302
-16.0,-4.0,3.303
-14.0,-6.0,3.304
-14.0,-4.0,3.305
-18.0,-1.0,3.306
-17.0,1.0,3.307
-6.0,-2.0,3.308
4.0,-2.0,3.309
4.0,0.0,3.31
-2.0,-1.0,3.311
-6.0,-6.0,3.312
-4.0,-10.0,3.313
-1.0,-8.0,3.314
1.0,-2.0,3.315
2.0,0.0,3.316
-1.0,0.0,3.317
-4.0,0.0,3.318
-3.0,4.0,3.319
3.0,7.0,3.32
8.0,7.0,3.321
8.0,5.0,3.322
13.0,3.0,3.323
20.0,1.0,3.324
23.0,4.0,3.325
16.0,7.0,3.326
9.0,5.0,3.327
10.0,3.0,3.328
11.0,0.0,3.329
6.0,-2.0,3.33
-1.0,0.0,3.331
-4.0,0.0,3.332
-5.0,-4.0,3.333
-8.0,-7.0,3.334
-8.0,-5.0,3.335
-4.0,-4.0,3.336
-1.0,-4.0,3.337
-4.0,-4.0,3.338
-8.0,-11.0,3.339
-10.0,-12.0,3.34
-10.0,-11.0,3.341
-10.0,-8.0,3.342
-4.0,-6.0,3.343
5.0,-3.0,3.344
8.0,0.0,3.345
0.0,4.0,3.346
-1.0,6.0,3.347
5.0,5.0,3.348
10.0,3.0,3.349
7.0,1.0,3.35
5.0,-1.0,3.351
13.0,-4.0,3.352
18.0,-4.0,3.353
18.0,2.0,3.354
17.0,9.0,3.355
19.0,9.0,3.356
18.0,7.0,3.357
8.0,5.0,3.358
8.0,6.0,3.359
19.0,7.0,3.36
26.0,4.0,3.361
21.0,2.0,3.362
15.0,4.0,3.363
13.0,6.0,3.364
11.0,8.0,3.365
3.0,7.0,3.366
-6.0,3.0,3.367
-10.0,-1.0,3.368
-12.0,-3.0,3.369
-15.0,-4.0,3.37
-16.0,-3.0,3.371
-11.0,-2.0,3.372
-6.0,-2.0,3.373
-7.0,-3.0,3.374
-7.0,-7.0,3.375
-2.0,-7.0,3.376
3.0,-4.0,3.377
0.0,-5.0,3.378
-4.0,-6.0,3.379
-7.0,-9.0,3.38
-5.0,-12.0,3.381
-3.0,-11.0,3.382
2.0,-9.0,3.383
4.0,-6.0,3.384
-1.0,-2.0,3.385
-6.0,2.0,3.386
-5.0,2.0,3.387
-3.0,-1.0,3.388
0.0,0.0,3.389
3.0,4.0,3.39
3.0,6.0,3.391
3.0,2.0,3.392
1.0,-1.0,3.393
0.0,0.0,3.394
2.0,2.0,3.395
4.0,0.0,3.396
6.0,0.0,3.397
5.0,-2.0,3.398
1.0,-3.0,3.399
-4.0,-5.0,3.4
-8.0,-12.0,3.401
-9.0,-11.0,3.402
-2.0,-6.0,3.403
10.0,0.0,3.404
13.0,4.0,3.405
5.0,5.0,3.406
1.0,5.0,3.407
8.0,3.0,3.408
13.0,1.0,3.409
7.0,-1.0,3.41
0.0,-4.0,3.411
3.0,-3.0,3.412
15.0,5.0,3.413
21.0,12.0,3.414
15.0,11.0,3.415
5.0,2.0,3.416
-1.0,-1.0,3.417
-2.0,0.0,3.418
-1.0,-1.0,3.419
-4.0,-7.0,3.42
-7.0,-15.0,3.421
-7.0,-16.0,3.422
1.0,-11.0,3.423
13.0,-8.0,3.424
15.0,-4.0,3.425
9.0,2.0,3.426
1.0,3.0,3.427
4.0,-2.0,3.428
14.0,-2.0,3.429
17.0,3.0,3.43
7.0,4.0,3.431
-7.0,0.0,3.432
-14.0,1.0,3.433
-8.0,10.0,3.434
4.0,16.0,3.435
11.0,17.0,3.436
11.0,12.0,3.437
2.0,5.0,3.438
-7.0,0.0,3.439
-14.0,-5.0,3.44
-11.0,-9.0,3.441
-8.0,-7.0,3.442
-5.0,-5.0,3.443
-2.0,-5.0,3.444
-3.0,-3.0,3.445
-4.0,0.0,3.446
-4.0,-1.0,3.447
-4.0,-6.0,3.448
-1.0,-9.0,3.449
-1.0,-9.0,3.45
-9.0,-10.0,3.451
-13.0,-11.0,3.452
-4.0,-10.0,3.453
4.0,-7.0,3.454
9.0,-5.0,3.455
15.0,2.0,3.456
23.0,12.0,3.457
31.0,17.0,3.458
34.0,15.0,3.459
27.0,12.0,3.46
23.0,12.0,3.461
26.0,15.0,3.462
25.0,11.0,3.463
13.0,1.0,3.464
-2.0,0.0,3.465
-9.0,8.0,3.466
-11.0,9.0,3.467
-15.0,1.0,3.468
-19.0,-7.0,3.469
-15.0,-4.0,3.47
-4.0,1.0,3.471
5.0,1.0,3.472
4.0,-2.0,3.473
-2.0,-5.0,3.474
-4.0,-7.0,3.475
-1.0,-9.0,3.476
-1.0,-10.0,3.477
-4.0,-13.0,3.478
-6.0,-16.0,3.479
-7.0,-16.0,3.48
-8.0,-17.0,3.481
-8.0,-12.0,3.482
-4.0,-7.0,3.483
2.0,-1.0,3.484
9.0,8.0,3.485
6.0,14.0,3.486
0.0,10.0,3.487
2.0,4.0,3.488
16.0,4.0,3.489
32.0,11.0,3.49
37.0,11.0,3.491
30.0,5.0,3.492
17.0,0.0,3.493
7.0,-1.0,3.494
2.0,-3.0,3.495
0.0,-6.0,3.496
-4.0,-8.0,3.497
-11.0,-7.0,3.498
-14.0,-6.0,3.499
-17.0,-5.0,3.5
-18.0,-3.0,3.501
-18.0,-1.0,3.502
-12.0,-2.0,3.503
-4.0,-8.0,3.504
-4.0,-11.0,3.505
-10.0,-7.0,3.506
-12.0,-1.0,3.507
-4.0,0.0,3.508
-1.0,-4.0,3.509
-9.0,-10.0,3.51
-19.0,-15.0,3.511
-12.0,-13.0,3.512
3.0,-5.0,3.513
12.0,6.0,3.514
15.0,16.0,3.515
17.0,21.0,3.516
23.0,23.0,3.517
27.0,16.0,3.518
25.0,8.0,3.519
20.0,5.0,3.52
13.0,-3.0,3.521
3.0,-8.0,3.522
0.0,-10.0,3.523
7.0,-4.0,3.524
15.0,2.0,3.525
15.0,2.0,3.526
14.0,1.0,3.527
15.0,4.0,3.528
14.0,8.0,3.529
8.0,6.0,3.53
6.0,0.0,3.531
9.0,-3.0,3.532
12.0,0.0,3.533
13.0,8.0,3.534
15.0,16.0,3.535
14.0,19.0,3.536
6.0,14.0,3.537
-9.0,0.0,3.538
-18.0,-6.0,3.539
-19.0,-2.0,3.54
-23.0,-3.0,3.541
-28.0,-8.0,3.542
-24.0,-8.0,3.543
-9.0,0.0,3.544
3.0,6.0,3.545
7.0,-2.0,3.546
6.0,-16.0,3.547
7.0,-19.0,3.548
8.0,-9.0,3.549
9.0,0.0,3.55
12.0,5.0,3.551
11.0,3.0,3.552
1.0,0.0,3.553
-10.0,-6.0,3.554
-14.0,-8.0,3.555
-16.0,-8.0,3.556
-19.0,-6.0,3.557
-24.0,-14.0,3.558
-25.0,-25.0,3.559
-27.0,-34.0,3.56
-33.0,-35.0,3.561
-33.0,-33.0,3.562
-10.0,-15.0,3.563
12.0,2.0,3.564
31.0,19.0,3.565
45.0,33.0,3.566
41.0,31.0,3.567
38.0,28.0,3.568
38.0,20.0,3.569
37.0,12.0,3.57
32.0,4.0,3.571
29.0,2.0,3.572
36.0,22.0,3.573
40.0,34.0,3.574
34.0,20.0,3.575
29.0,9.0,3.576
27.0,7.0,3.577
27.0,8.0,3.578
26.0,8.0,3.579
3.0,-6.0,3.58
-32.0,-22.0,3.581
-44.0,-18.0,3.582
-20.0,0.0,3.583
3.0,14.0,3.584
-4.0,15.0,3.585
-23.0,9.0,3.586
-14.0,7.0,3.587
20.0,9.0,3.588
42.0,10.0,3.589
34.0,3.0,3.59
18.0,-7.0,3.591
11.0,-14.0,3.592
0.0,-19.0,3.593
-33.0,-30.0,3.594
-70.0,-49.0,3.595
-88.0,-57.0,3.596
-76.0,-42.0,3.597
-49.0,-13.0,3.598
-25.0,5.0,3.599
-18.0,0.0,3.6
-19.0,-16.0,3.601
-17.0,-18.0,3.602
0.0,-3.0,3.603
19.0,16.0,3.604
17.0,28.0,3.605
-13.0,15.0,3.606
-47.0,-10.0,3.607
-51.0,-22.0,3.608
-23.0,-6.0,3.609
12.0,18.0,3.61
25.0,21.0,3.611
27.0,5.0,3.612
50.0,7.0,3.613
98.0,37.0,3.614
130.0,64.0,3.615
122.0,58.0,3.616
93.0,32.0,3.617
71.0,7.0,3.618
61.0,-6.0,3.619
36.0,-19.0,3.62
-6.0,-39.0,3.621
-38.0,-41.0,3.622
-36.0,-24.0,3.623
-23.0,-9.0,3.624
-25.0,-9.0,3.625
-44.0,-17.0,3.626
-53.0,-15.0,3.627
-36.0,-3.0,3.628
-12.0,8.0,3.629
-2.0,11.0,3.63
-11.0,4.0,3.631
-25.0,-10.0,3.632
-33.0,-27.0,3.633
-32.0,-34.0,3.634
-25.0,-27.0,3.635
-14.0,-12.0,3.636
-3.0,-3.0,3.637
-2.0,0.0,3.638
-3.0,5.0,3.639
3.0,23.0,3.64
32.0,45.0,3.641
55.0,55.0,3.642
57.0,43.0,3.643
55.0,22.0,3.644
36.0,12.0,3.645
20.0,14.0,3.646
14.0,13.0,3.647
5.0,6.0,3.648
-13.0,4.0,3.649
-36.0,-1.0,3.65
-70.0,-18.0,3.651
-94.0,-35.0,3.652
-82.0,-34.0,3.653
-71.0,-26.0,3.654
-65.0,-40.0,3.655
-49.0,-60.0,3.656
-1.0,-50.0,3.657
52.0,-14.0,3.658
83.0,4.0,3.659
50.0,-16.0,3.66
2.0,-34.0,3.661
0.0,-4.0,3.662
41.0,51.0,3.663
62.0,74.0,3.664
37.0,52.0,3.665
6.0,17.0,3.666
15.0,1.0,3.667
56.0,15.0,3.668
84.0,38.0,3.669
76.0,41.0,3.67
49.0,17.0,3.671
27.0,-8.0,3.672
19.0,-4.0,3.673
18.0,24.0,3.674
22.0,42.0,3.675
23.0,26.0,3.676
9.0,-9.0,3.677
-27.0,-45.0,3.678
-68.0,-60.0,3.679
-98.0,-52.0,3.68
-106.0,-38.0,3.681
-102.0,-27.0,3.682
-86.0,-21.0,3.683
-61.0,-12.0,3.684
-26.0,-8.0,3.685
15.0,-6.0,3.686
62.0,3.0,3.687
107.0,29.0,3.688
137.0,53.0,3.689
133.0,46.0,3.69
100.0,9.0,3.691
65.0,-15.0,3.692
47.0,-9.0,3.693
33.0,0.0,3.694
-3.0,-22.0,3.695
-47.0,-51.0,3.696
-59.0,-48.0,3.697
-79.0,-16.0,3.698
-98.0,7.0,3.699
-110.0,6.0,3.7
-97.0,1.0,3.701
-75.0,12.0,3.702
-31.0,23.0,3.703
6.0,17.0,3.704
29.0,12.0,3.705
37.0,16.0,3.706
2.0,14.0,3.707
-14.0,-2.0,3.708
20.0,-9.0,3.709
50.0,13.0,3.71
64.0,43.0,3.711
75.0,42.0,3.712
77.0,6.0,3.713
72.0,-32.0,3.714
35.0,-47.0,3.715
18.0,-41.0,3.716
64.0,-31.0,3.717
-41.0,-19.0,3.718
-51.0,-5.0,3.719
-57.0,3.0,3.72
-50.0,-5.0,3.721
-39.0,-14.0,3.722
-16.0,-5.0,3.723
4.0,17.0,3.724
16.0,25.0,3.725
20.0,6.0,3.726
2.0,-14.0,3.727
-7.0,-9.0,3.728
11.0,14.0,3.729
27.0,33.0,3.73
34.0,37.0,3.731
40.0,33.0,3.732
41.0,26.0,3.733
38.0,18.0,3.734
19.0,20.0,3.735
10.0,33.0,3.736
34.0,40.0,3.737
54.0,21.0,3.738
52.0,-7.0,3.739
37.0,-15.0,3.74
24.0,-7.0,3.741
-7.0,-18.0,3.742
-60.0,-64.0,3.743
-102.0,-107.0,3.744
-104.0,-99.0,3.745
-79.0,-50.0,3.746
-48.0,-11.0,3.747
-5.0,-1.0,3.748
50.0,7.0,3.749
95.0,25.0,3.75
104.0,31.0,3.751
83.0,12.0,3.752
48.0,-5.0,3.753
5.0,-2.0,3.754
-36.0,10.0,3.755
-64.0,7.0,3.756
-71.0,-8.0,3.757
-51.0,-13.0,3.758
-13.0,10.0,3.759
30.0,41.0,3.76
49.0,47.0,3.761
34.0,33.0,3.762
14.0,17.0,3.763
8.0,3.0,3.764
-7.0,-25.0,3.765
-49.0,-63.0,3.766
-85.0,-73.0,3.767
-75.0,-40.0,3.768
-37.0,-2.0,3.769
-8.0,3.0,3.77
19.0,-3.0,3.771
68.0,21.0,3.772
120.0,68.0,3.773
129.0,90.0,3.774
88.0,71.0,3.775
33.0,32.0,3.776
0.0,0.0,3.777
-22.0,-27.0,3.778
-40.0,-47.0,3.779
-62.0,-57.0,3.78
-82.0,-68.0,3.781
-86.0,-78.0,3.782
-53.0,-68.0,3.783
-1.0,-31.0,3.784
25.0,6.0,3.785
21.0,23.0,3.786
25.0,23.0,3.787
55.0,24.0,3.788
69.0,18.0,3.789
34.0,-2.0,3.79
-15.0,-13.0,3.791
-35.0,8.0,3.792
-43.0,41.0,3.793
-66.0,46.0,3.794
-77.0,27.0,3.795
-29.0,25.0,3.796
47.0,44.0,3.797
80.0,56.0,3.798
67.0,49.0,3.799
68.0,45.0,3.8
113.0,57.0,3.801
139.0,61.0,3.802
106.0,31.0,3.803
66.0,-13.0,3.804
6.0,-34.0,3.805
-40.0,-33.0,3.806
-46.0,-34.0,3.807
-52.0,-47.0,3.808
-60.0,-60.0,3.809
-69.0,-76.0,3.81
-82.0,-92.0,3.811
-93.0,-89.0,3.812
-98.0,-55.0,3.813
-99.0,-8.0,3.814
-88.0,7.0,3.815
-72.0,-15.0,3.816
-44.0,-31.0,3.817
-7.0,-9.0,3.818
54.0,35.0,3.819
75.0,55.0,3.82
44.0,36.0,3.821
14.0,26.0,3.822
41.0,51.0,3.823
91.0,80.0,3.824
81.0,55.0,3.825
6.0,-12.0,3.826
-42.0,-60.0,3.827
-6.0,-51.0,3.828
55.0,-21.0,3.829
56.0,-14.0,3.83
7.0,-24.0,3.831
-28.0,-14.0,3.832
-34.0,15.0,3.833
-25.0,41.0,3.834
3.0,56.0,3.835
53.0,67.0,3.836
82.0,64.0,3.837
51.0,29.0,3.838
11.0,-10.0,3.839
18.0,-16.0,3.84
35.0,-7.0,3.841
-19.0,-41.0,3.842
-130.0,-124.0,3.843
-182.0,-155.0,3.844
-115.0,-68.0,3.845
-14.0,54.0,3.846
10.0,82.0,3.847
-6.0,17.0,3.848
63.0,-6.0,3.849
217.0,54.0,3.85
303.0,97.0,3.851
214.0,43.0,3.852
38.0,-31.0,3.853
-74.0,-36.0,3.854
-104.0,2.0,3.855
-119.0,-1.0,3.856
-127.0,-32.0,3.857
-157.0,-31.0,3.858
-121.0,5.0,3.859
-75.0,26.0,3.86
2.0,2.0,3.861
69.0,-22.0,3.862
117.0,-46.0,3.863
155.0,-63.0,3.864
165.0,-55.0,3.865
169.0,-36.0,3.866
154.0,16.0,3.867
131.0,45.0,3.868
86.0,2.0,3.869
30.0,-23.0,3.87
-57.0,7.0,3.871
-112.0,15.0,3.872
-65.0,-47.0,3.873
-29.0,-90.0,3.874
-31.0,-69.0,3.875
-32.0,-46.0,3.876
-29.0,-19.0,3.877
-138.0,6.0,3.878
-106.0,36.0,3.879
-65.0,82.0,3.88
3.0,108.0,3.881
64.0,127.0,3.882
106.0,159.0,3.883
140.0,176.0,3.884
149.0,138.0,3.885
153.0,67.0,3.886
139.0,23.0,3.887
119.0,12.0,3.888
79.0,-8.0,3.889
29.0,-58.0,3.89
-49.0,-102.0,3.891
-98.0,-104.0,3.892
-56.0,-85.0,3.893
-24.0,-69.0,3.894
-26.0,-58.0,3.895
-27.0,-40.0,3.896
-24.0,-17.0,3.897
-17.0,-12.0,3.898
-7.0,-33.0,3.899
-27.0,-61.0,3.9
-52.0,-71.0,3.901
-57.0,-49.0,3.902
-48.0,-7.0,3.903
-41.0,45.0,3.904
-24.0,99.0,3.905
8.0,130.0,3.906
24.0,118.0,3.907
0.0,70.0,3.908
-32.0,23.0,3.909
-43.0,0.0,3.91
-41.0,-12.0,3.911
-40.0,-25.0,3.912
-7.0,-19.0,3.913
74.0,13.0,3.914
140.0,36.0,3.915
130.0,19.0,3.916
88.0,-12.0,3.917
81.0,-25.0,3.918
81.0,-29.0,3.919
15.0,-61.0,3.92
-90.0,-116.0,3.921
-143.0,-126.0,3.922
-123.0,-77.0,3.923
-93.0,-29.0,3.924
-86.0,-26.0,3.925
-66.0,-25.0,3.926
0.0,28.0,3.927
86.0,107.0,3.928
145.0,130.0,3.929
142.0,71.0,3.93
79.0,-8.0,3.931
-9.0,-40.0,3.932
-62.0,-31.0,3.933
-57.0,-14.0,3.934
-27.0,3.0,3.935
-3.0,28.0,3.936
26.0,48.0,3.937
79.0,46.0,3.938
122.0,31.0,3.939
106.0,16.0,3.94
39.0,4.0,3.941
-21.0,-3.0,3.942
-42.0,6.0,3.943
-38.0,11.0,3.944
-35.0,0.0,3.945
-39.0,-13.0,3.946
-38.0,-33.0,3.947
-5.0,-48.0,3.948
59.0,-48.0,3.949
108.0,-49.0,3.95
86.0,-52.0,3.951
9.0,-59.0,3.952
-47.0,-77.0,3.953
-57.0,-87.0,3.954
-72.0,-71.0,3.955
-118.0,-49.0,3.956
-144.0,-12.0,3.957
-112.0,22.0,3.958
-53.0,38.0,3.959
2.0,41.0,3.96
47.0,48.0,3.961
89.0,79.0,3.962
121.0,111.0,3.963
132.0,97.0,3.964
76.0,43.0,3.965
30.0,4.0,3.966
18.0,7.0,3.967
-3.0,10.0,3.968
-51.0,-17.0,3.969
-88.0,-50.0,3.97
-92.0,-71.0,3.971
-89.0,-85.0,3.972
-65.0,-78.0,3.973
-33.0,-27.0,3.974
23.0,32.0,3.975
61.0,42.0,3.976
44.0,16.0,3.977
34.0,14.0,3.978
66.0,40.0,3.979
84.0,55.0,3.98
53.0,31.0,3.981
16.0,13.0,3.982
21.0,20.0,3.983
41.0,25.0,3.984
27.0,22.0,3.985
-11.0,21.0,3.986
-41.0,26.0,3.987
-65.0,22.0,3.988
-92.0,-15.0,3.989
-99.0,-35.0,3.99
-68.0,1.0,3.991
-23.0,24.0,3.992
-6.0,6.0,3.993
-24.0,-11.0,3.994
-42.0,-23.0,3.995
-26.0,-28.0,3.996
23.0,-10.0,3.997
72.0,-1.0,3.998
71.0,-35.0,3.999
53.0,-75.0,4.0
80.0,-51.0,4.001
151.0,38.0,4.002
187.0,100.0,4.003
135.0,68.0,4.004
48.0,3.0,4.005
4.0,-8.0,4.006
5.0,23.0,4.007
-9.0,26.0,4.008
-50.0,-5.0,4.009
-76.0,-22.0,4.01
-57.0,-15.0,4.011
-33.0,-24.0,4.012
-46.0,-60.0,4.013
-78.0,-79.0,4.014
-83.0,-60.0,4.015
-56.0,-32.0,4.016
-38.0,-30.0,4.017
-56.0,-59.0,4.018
-85.0,-84.0,4.019
-91.0,-83.0,4.02
-63.0,-45.0,4.021
-23.0,21.0,4.022
13.0,84.0,4.023
45.0,109.0,4.024
78.0,103.0,4.025
111.0,103.0,4.026
135.0,116.0,4.027
128.0,108.0,4.028
79.0,57.0,4.029
4.0,-5.0,4.03
-61.0,-38.0,4.031
-99.0,-42.0,4.032
-115.0,-38.0,4.033
-116.0,-30.0,4.034
-102.0,-27.0,4.035
-86.0,-47.0,4.036
-72.0,-81.0,4.037
-35.0,-67.0,4.038
36.0,-29.0,4.039
81.0,-3.0,4.04
47.0,-14.0,4.041
27.0,-22.0,4.042
49.0,-21.0,4.043
72.0,-21.0,4.044
97.0,-26.0,4.045
107.0,-38.0,4.046
67.0,-60.0,4.047
51.0,-77.0,4.048
109.0,-80.0,4.049
131.0,-67.0,4.05
44.0,-7.0,4.051
-22.0,38.0,4.052
-28.0,32.0,4.053
-37.0,35.0,4.054
-55.0,69.0,4.055
-63.0,100.0,4.056
-41.0,120.0,4.057
-21.0,-50.0,4.058
-19.0,-23.0,4.059
-20.0,-4.0,4.06
7.0,-12.0,4.061
52.0,-18.0,4.062
86.0,-17.0,4.063
85.0,-17.0,4.064
47.0,-21.0,4.065
-5.0,-29.0,4.066
-45.0,-45.0,4.067
-60.0,-57.0,4.068
-62.0,-59.0,4.069
-75.0,-50.0,4.07
-100.0,-7.0,4.071
-118.0,25.0,4.072
-114.0,21.0,4.073
-81.0,23.0,4.074
-25.0,47.0,4.075
34.0,69.0,4.076
78.0,83.0,4.077
110.0,92.0,4.078
134.0,91.0,4.079
130.0,82.0,4.08
93.0,36.0,4.081
53.0,-21.0,4.082
45.0,-38.0,4.083
50.0,-19.0,4.084
28.0,-14.0,4.085
-16.0,-35.0,4.086
-46.0,-42.0,4.087
-59.0,-23.0,4.088
-76.0,-8.0,4.089
-95.0,-11.0,4.09
-92.0,-17.0,4.091
-74.0,-18.0,4.092
-61.0,-13.0,4.093
-48.0,6.0,4.094
-23.0,34.0,4.095
6.0,38.0,4.096
16.0,16.0,4.097
12.0,-2.0,4.098
21.0,14.0,4.099
45.0,35.0,4.1
67.0,22.0,4.101
85.0,-4.0,4.102
95.0,-15.0,4.103
86.0,-14.0,4.104
54.0,-21.0,4.105
19.0,-33.0,4.106
2.0,-39.0,4.107
-3.0,-45.0,4.108
-7.0,-53.0,4.109
-13.0,-55.0,4.11
-20.0,-48.0,4.111
-31.0,-34.0,4.112
-43.0,-13.0,4.113
-44.0,11.0,4.114
-30.0,29.0,4.115
-18.0,33.0,4.116
-11.0,33.0,4.117
-20.0,33.0,4.118
-32.0,31.0,4.119
-36.0,35.0,4.12
-12.0,48.0,4.121
12.0,55.0,4.122
33.0,35.0,4.123
51.0,13.0,4.124
56.0,16.0,4.125
53.0,19.0,4.126
23.0,-11.0,4.127
-3.0,-46.0,4.128
-19.0,-33.0,4.129
-33.0,3.0,4.13
-42.0,3.0,4.131
-33.0,-24.0,4.132
28.0,-6.0,4.133
85.0,62.0,4.134
126.0,96.0,4.135
144.0,59.0,4.136
94.0,7.0,4.137
47.0,-17.0,4.138
-2.0,-33.0,4.139
-64.0,-48.0,4.14
-106.0,-61.0,4.141
-102.0,-67.0,4.142
-71.0,-45.0,4.143
-42.0,-25.0,4.144
-14.0,-11.0,4.145
20.0,3.0,4.146
35.0,15.0,4.147
23.0,23.0,4.148
13.0,19.0,4.149
21.0,13.0,4.15
22.0,2.0,4.151
-4.0,-10.0,4.152
-37.0,-28.0,4.153
-58.0,-47.0,4.154
-75.0,-64.0,4.155
-91.0,-70.0,4.156
-88.0,-42.0,4.157
-61.0,-11.0,4.158
-33.0,11.0,4.159
-17.0,12.0,4.16
16.0,26.0,4.161
67.0,59.0,4.162
95.0,59.0,4.163
73.0,13.0,4.164
25.0,-29.0,4.165
-21.0,-40.0,4.166
-66.0,-42.0,4.167
-96.0,-45.0,4.168
-91.0,-21.0,4.169
-55.0,29.0,4.17
-8.0,62.0,4.171
53.0,66.0,4.172
145.0,77.0,4.173
233.0,104.0,4.174
251.0,110.0,4.175
192.0,74.0,4.176
119.0,27.0,4.177
-30.0,-8.0,4.178
-43.0,-24.0,4.179
-55.0,-26.0,4.18
-57.0,-24.0,4.181
-62.0,-24.0,4.182
-70.0,-31.0,4.183
-72.0,-35.0,4.184
-51.0,-27.0,4.185
-30.0,-16.0,4.186
-17.0,-14.0,4.187
-4.0,-12.0,4.188
11.0,-3.0,4.189
20.0,2.0,4.19
5.0,-6.0,4.191
3.0,-18.0,4.192
45.0,-22.0,4.193
79.0,-21.0,4.194
87.0,-21.0,4.195
87.0,-15.0,4.196
68.0,-3.0,4.197
-18.0,3.0,4.198
-25.0,-3.0,4.199
-31.0,-6.0,4.2
-32.0,-4.0,4.201
-35.0,-4.0,4.202
-39.0,-11.0,4.203
-40.0,-14.0,4.204
-29.0,-4.0,4.205
-18.0,0.0,4.206
-11.0,-11.0,4.207
-4.0,-24.0,4.208
4.0,-19.0,4.209
9.0,-5.0,4.21
1.0,1.0,4.211
0.0,2.0,4.212
22.0,13.0,4.213
40.0,34.0,4.214
44.0,40.0,4.215
44.0,24.0,4.216
34.0,4.0,4.217
27.0,-4.0,4.218
21.0,-1.0,4.219
5.0,0.0,4.22
-16.0,-7.0,4.221
-25.0,-9.0,4.222
-19.0,-6.0,4.223
-10.0,-3.0,4.224
-9.0,0.0,4.225
-13.0,7.0,4.226
-12.0,11.0,4.227
-7.0,12.0,4.228
0.0,15.0,4.229
8.0,26.0,4.23
15.0,32.0,4.231
13.0,25.0,4.232
7.0,6.0,4.233
13.0,-5.0,4.234
32.0,-4.0,4.235
47.0,-1.0,4.236
46.0,-3.0,4.237
36.0,-10.0,4.238
26.0,-11.0,4.239
17.0,-8.0,4.24
8.0,-14.0,4.241
0.0,-17.0,4.242
0.0,-13.0,4.243
5.0,-2.0,4.244
6.0,4.0,4.245
-3.0,3.0,4.246
-16.0,0.0,4.247
-20.0,0.0,4.248
-11.0,2.0,4.249
-2.0,1.0,4.25
-3.0,-2.0,4.251
-7.0,-3.0,4.252
1.0,-3.0,4.253
14.0,-5.0,4.254
12.0,-5.0,4.255
-7.0,-5.0,4.256
-20.0,-3.0,4.257
27.0,-3.0,4.258
23.0,1.0,4.259
18.0,3.0,4.26
14.0,-1.0,4.261
18.0,-4.0,4.262
39.0,1.0,4.263
48.0,5.0,4.264
21.0,4.0,4.265
-2.0,3.0,4.266
-11.0,1.0,4.267
-15.0,1.0,4.268
10.0,6.0,4.269
28.0,8.0,4.27
21.0,-3.0,4.271
14.0,-8.0,4.272
14.0,7.0,4.273
12.0,17.0,4.274
6.0,9.0,4.275
-1.0,1.0,4.276
-17.0,0.0,4.277
28.0,0.0,4.278
24.0,0.0,4.279
18.0,-5.0,4.28
14.0,-12.0,4.281
18.0,-14.0,4.282
42.0,-14.0,4.283
52.0,-12.0,4.284
22.0,-7.0,4.285
-4.0,0.0,4.286
-14.0,0.0,4.287
-18.0,-5.0,4.288
10.0,-10.0,4.289
30.0,-10.0,4.29
22.0,-5.0,4.291
14.0,-1.0,4.292
14.0,3.0,4.293
12.0,2.0,4.294
6.0,-3.0,4.295
-2.0,-5.0,4.296
-20.0,1.0,4.297
21.0,5.0,4.298
19.0,7.0,4.299
16.0,8.0,4.3
14.0,0.0,4.301
16.0,-5.0,4.302
28.0,0.0,4.303
33.0,4.0,4.304
18.0,4.0,4.305
4.0,4.0,4.306
-1.0,5.0,4.307
-3.0,7.0,4.308
11.0,8.0,4.309
22.0,8.0,4.31
18.0,6.0,4.311
14.0,5.0,4.312
14.0,4.0,4.313
12.0,2.0,4.314
9.0,0.0,4.315
5.0,-1.0,4.316
-4.0,3.0,4.317
-11.0,7.0,4.318
-12.0,7.0,4.319
-18.0,0.0,4.32
-33.0,-11.0,4.321
-49.0,-12.0,4.322
-53.0,-9.0,4.323
-47.0,-8.0,4.324
-30.0,-10.0,4.325
-4.0,-15.0,4.326
22.0,-16.0,4.327
31.0,-13.0,4.328
17.0,-4.0,4.329
-6.0,6.0,4.33
-19.0,8.0,4.331
-16.0,-1.0,4.332
-9.0,-6.0,4.333
-3.0,-4.0,4.334
1.0,5.0,4.335
7.0,7.0,4.336
16.0,2.0,4.337
27.0,-4.0,4.338
38.0,-2.0,4.339
39.0,-1.0,4.34
28.0,-1.0,4.341
11.0,0.0,4.342
0.0,-1.0,4.343
-8.0,-3.0,4.344
-15.0,-4.0,4.345
-20.0,-4.0,4.346
-17.0,1.0,4.347
-13.0,6.0,4.348
-11.0,9.0,4.349
-11.0,11.0,4.35
-3.0,8.0,4.351
6.0,4.0,4.352
10.0,1.0,4.353
11.0,0.0,4.354
20.0,1.0,4.355
30.0,2.0,4.356
26.0,-1.0,4.357
10.0,-5.0,4.358
2.0,-6.0,4.359
-4.0,-4.0,4.36
-5.0,0.0,4.361
-6.0,4.0,4.362
-5.0,2.0,4.363
-1.0,-4.0,4.364
8.0,-7.0,4.365
15.0,-2.0,4.366
12.0,2.0,4.367
10.0,1.0,4.368
9.0,0.0,4.369
8.0,0.0,4.37
9.0,-2.0,4.371
10.0,-8.0,4.372
11.0,-11.0,4.373
11.0,-4.0,4.374
9.0,7.0,4.375
6.0,12.0,4.376
3.0,11.0,4.377
-2.0,6.0,4.378
-13.0,3.0,4.379
-14.0,1.0,4.38
-7.0,-1.0,4.381
-2.0,2.0,4.382
7.0,6.0,4.383
22.0,7.0,4.384
27.0,4.0,4.385
21.0,0.0,4.386
18.0,-3.0,4.387
22.0,-8.0,4.388
28.0,-11.0,4.389
25.0,-7.0,4.39
14.0,0.0,4.391
0.0,1.0,4.392
-16.0,-4.0,4.393
-25.0,-9.0,4.394
-25.0,-6.0,4.395
-16.0,-5.0,4.396
-9.0,-7.0,4.397
-10.0,-9.0,4.398
-13.0,-3.0,4.399
-15.0,0.0,4.4
-11.0,-4.0,4.401
-7.0,-7.0,4.402
-2.0,-5.0,4.403
4.0,-2.0,4.404
13.0,0.0,4.405
21.0,3.0,4.406
23.0,4.0,4.407
23.0,6.0,4.408
16.0,4.0,4.409
9.0,3.0,4.41
2.0,6.0,4.411
-4.0,8.0,4.412
-6.0,6.0,4.413
-7.0,4.0,4.414
0.0,2.0,4.415
5.0,0.0,4.416
5.0,-7.0,4.417
6.0,-14.0,4.418
2.0,-14.0,4.419
-24.0,-9.0,4.42
-62.0,-6.0,4.421
-81.0,-2.0,4.422
-66.0,1.0,4.423
-35.0,4.0,4.424
-17.0,6.0,4.425
-17.0,4.0,4.426
-18.0,2.0,4.427
-8.0,0.0,4.428
7.0,0.0,4.429
17.0,-1.0,4.43
17.0,0.0,4.431
17.0,2.0,4.432
27.0,4.0,4.433
40.0,6.0,4.434
43.0,7.0,4.435
35.0,8.0,4.436
32.0,8.0,4.437
29.0,3.0,4.438
24.0,-2.0,4.439
19.0,-8.0,4.44
17.0,-10.0,4.441
15.0,-11.0,4.442
12.0,-4.0,4.443
11.0,1.0,4.444
17.0,3.0,4.445
28.0,5.0,4.446
48.0,7.0,4.447
63.0,8.0,4.448
59.0,3.0,4.449
49.0,-1.0,4.45
26.0,-2.0,4.451
12.0,-2.0,4.452
29.0,3.0,4.453
38.0,8.0,4.454
19.0,7.0,4.455
-6.0,3.0,4.456
-50.0,-6.0,4.457
-86.0,-17.0,4.458
-91.0,-27.0,4.459
-80.0,-23.0,4.46
-68.0,-10.0,4.461
-60.0,1.0,4.462
-48.0,0.0,4.463
-35.0,-8.0,4.464
-30.0,-7.0,4.465
-31.0,1.0,4.466
-25.0,6.0,4.467
-1.0,0.0,4.468
29.0,-3.0,4.469
53.0,5.0,4.47
68.0,11.0,4.471
64.0,5.0,4.472
34.0,-1.0,4.473
-2.0,2.0,4.474
-11.0,10.0,4.475
2.0,8.0,4.476
14.0,4.0,4.477
5.0,2.0,4.478
4.0,-2.0,4.479
22.0,-12.0,4.48
35.0,-25.0,4.481
24.0,-20.0,4.482
4.0,-7.0,4.483
-3.0,3.0,4.484
2.0,6.0,4.485
2.0,7.0,4.486
-1.0,8.0,4.487
1.0,9.0,4.488
0.0,10.0,4.489
-11.0,14.0,4.49
-25.0,11.0,4.491
-30.0,3.0,4.492
-18.0,-3.0,4.493
9.0,-4.0,4.494
31.0,-3.0,4.495
24.0,-5.0,4.496
-10.0,-5.0,4.497
-49.0,-4.0,4.498
-50.0,-3.0,4.499
-14.0,0.0,4.5
23.0,2.0,4.501
31.0,8.0,4.502
16.0,8.0,4.503
-7.0,2.0,4.504
-25.0,-2.0,4.505
-32.0,-7.0,4.506
-22.0,-17.0,4.507
-9.0,-27.0,4.508
1.0,-23.0,4.509
14.0,-6.0,4.51
34.0,8.0,4.511
46.0,9.0,4.512
34.0,5.0,4.513
15.0,9.0,4.514
8.0,21.0,4.515
13.0,23.0,4.516
11.0,14.0,4.517
0.0,-3.0,4.518
-4.0,-12.0,4.519
-5.0,-16.0,4.52
8.0,-17.0,4.521
18.0,-14.0,4.522
18.0,-6.0,4.523
18.0,2.0,4.524
15.0,10.0,4.525
12.0,15.0,4.526
13.0,15.0,4.527
17.0,11.0,4.528
29.0,1.0,4.529
39.0,-11.0,4.53
46.0,-19.0,4.531
45.0,-16.0,4.532
19.0,-8.0,4.533
-2.0,-4.0,4.534
-6.0,-7.0,4.535
-14.0,-10.0,4.536
-36.0,-5.0,4.537
-54.0,5.0,4.538
-57.0,16.0,4.539
-53.0,23.0,4.54
-53.0,20.0,4.541
-45.0,11.0,4.542
-26.0,-3.0,4.543
-10.0,-19.0,4.544
-13.0,-30.0,4.545
-30.0,-31.0,4.546
-39.0,-23.0,4.547
-34.0,-8.0,4.548
-18.0,3.0,4.549
-2.0,11.0,4.55
13.0,13.0,4.551
26.0,11.0,4.552
42.0,7.0,4.553
68.0,3.0,4.554
95.0,2.0,4.555
104.0,4.0,4.556
84.0,4.0,4.557
44.0,2.0,4.558
16.0,5.0,4.559
6.0,10.0,4.56
5.0,10.0,4.561
10.0,4.0,4.562
36.0,4.0,4.563
74.0,7.0,4.564
93.0,7.0,4.565
74.0,-2.0,4.566
32.0,-10.0,4.567
-9.0,-7.0,4.568
-48.0,0.0,4.569
-84.0,4.0,4.57
-102.0,2.0,4.571
-96.0,1.0,4.572
-82.0,4.0,4.573
-80.0,5.0,4.574
-85.0,-1.0,4.575
-79.0,-15.0,4.576
-61.0,-28.0,4.577
-38.0,-36.0,4.578
-20.0,-30.0,4.579
-7.0,-19.0,4.58
0.0,-14.0,4.581
6.0,-12.0,4.582
15.0,-8.0,4.583
22.0,1.0,4.584
28.0,12.0,4.585
34.0,16.0,4.586
40.0,15.0,4.587
42.0,12.0,4.588
37.0,7.0,4.589
30.0,4.0,4.59
24.0,2.0,4.591
21.0,4.0,4.592
18.0,8.0,4.593
15.0,10.0,4.594
11.0,6.0,4.595
6.0,0.0,4.596
9.0,-3.0,4.597
19.0,-1.0,4.598
25.0,6.0,4.599
29.0,10.0,4.6
22.0,4.0,4.601
19.0,-2.0,4.602
33.0,-4.0,4.603
43.0,-2.0,4.604
41.0,2.0,4.605
39.0,14.0,4.606
37.0,28.0,4.607
31.0,32.0,4.608
12.0,19.0,4.609
-5.0,1.0,4.61
-14.0,-9.0,4.611
-24.0,-19.0,4.612
-36.0,-32.0,4.613
-44.0,-41.0,4.614
-42.0,-31.0,4.615
-38.0,-10.0,4.616
-32.0,6.0,4.617
-20.0,7.0,4.618
13.0,-1.0,4.619
53.0,-7.0,4.62
87.0,-9.0,4.621
104.0,0.0,4.622
91.0,16.0,4.623
39.0,28.0,4.624
-29.0,27.0,4.625
-69.0,23.0,4.626
-72.0,21.0,4.627
-62.0,16.0,4.628
-64.0,0.0,4.629
-77.0,-22.0,4.63
-92.0,-38.0,4.631
-102.0,-44.0,4.632
-107.0,-46.0,4.633
-96.0,-46.0,4.634
-67.0,-38.0,4.635
-28.0,-22.0,4.636
7.0,-7.0,4.637
25.0,-5.0,4.638
39.0,-7.0,4.639
55.0,-3.0,4.64
72.0,3.0,4.641
73.0,10.0,4.642
58.0,11.0,4.643
47.0,10.0,4.644
46.0,14.0,4.645
47.0,19.0,4.646
38.0,20.0,4.647
25.0,15.0,4.648
17.0,14.0,4.649
14.0,17.0,4.65
8.0,18.0,4.651
2.0,15.0,4.652
-1.0,13.0,4.653
-4.0,12.0,4.654
-7.0,8.0,4.655
-5.0,5.0,4.656
3.0,7.0,4.657
7.0,8.0,4.658
7.0,5.0,4.659
7.0,-2.0,4.66
12.0,-8.0,4.661
14.0,-7.0,4.662
20.0,-6.0,4.663
31.0,-5.0,4.664
43.0,-1.0,4.665
49.0,4.0,4.666
53.0,3.0,4.667
68.0,-1.0,4.668
78.0,-2.0,4.669
62.0,2.0,4.67
24.0,4.0,4.671
-6.0,5.0,4.672
-13.0,5.0,4.673
-22.0,7.0,4.674
-58.0,1.0,4.675
-106.0,-13.0,4.676
-126.0,-28.0,4.677
-108.0,-35.0,4.678
-76.0,-32.0,4.679
-61.0,-22.0,4.68
-65.0,-13.0,4.681
-61.0,-7.0,4.682
-38.0,-4.0,4.683
-7.0,0.0,4.684
6.0,8.0,4.685
4.0,15.0,4.686
11.0,11.0,4.687
38.0,0.0,4.688
75.0,0.0,4.689
102.0,17.0,4.69
113.0,30.0,4.691
102.0,26.0,4.692
71.0,17.0,4.693
33.0,18.0,4.694
1.0,22.0,4.695
-22.0,16.0,4.696
-48.0,0.0,4.697
-79.0,-21.0,4.698
-95.0,-38.0,4.699
-82.0,-44.0,4.7
-50.0,-42.0,4.701
-20.0,-32.0,4.702
0.0,-22.0,4.703
15.0,-18.0,4.704
29.0,-9.0,4.705
39.0,5.0,4.706
41.0,15.0,4.707
39.0,15.0,4.708
36.0,10.0,4.709
41.0,7.0,4.71
53.0,6.0,4.711
58.0,5.0,4.712
42.0,4.0,4.713
5.0,4.0,4.714
-27.0,4.0,4.715
-32.0,3.0,4.716
-19.0,4.0,4.717
-8.0,6.0,4.718
-7.0,5.0,4.719
-10.0,3.0,4.72
-4.0,-3.0,4.721
13.0,-8.0,4.722
43.0,-10.0,4.723
69.0,-4.0,4.724
62.0,8.0,4.725
23.0,11.0,4.726
-17.0,0.0,4.727
-39.0,-12.0,4.728
-52.0,-13.0,4.729
-65.0,-8.0,4.73
-66.0,-4.0,4.731
-51.0,-5.0,4.732
-33.0,-6.0,4.733
-24.0,-11.0,4.734
-16.0,-15.0,4.735
-6.0,-16.0,4.736
2.0,-9.0,4.737
10.0,-5.0,4.738
22.0,-5.0,4.739
44.0,-4.0,4.74
62.0,0.0,4.741
72.0,5.0,4.742
74.0,9.0,4.743
71.0,12.0,4.744
57.0,20.0,4.745
35.0,27.0,4.746
16.0,29.0,4.747
-6.0,26.0,4.748
-33.0,15.0,4.749
-56.0,0.0,4.75
-67.0,-12.0,4.751
-69.0,-13.0,4.752
-70.0,-8.0,4.753
-60.0,-3.0,4.754
-36.0,-2.0,4.755
-13.0,-1.0,4.756
-2.0,-1.0,4.757
0.0,-7.0,4.758
5.0,-12.0,4.759
6.0,-10.0,4.76
1.0,-3.0,4.761
7.0,3.0,4.762
33.0,-1.0,4.763
64.0,-8.0,4.764
75.0,-5.0,4.765
70.0,5.0,4.766
64.0,6.0,4.767
52.0,1.0,4.768
26.0,5.0,4.769
4.0,19.0,4.77
1.0,26.0,4.771
0.0,16.0,4.772
-26.0,4.0,4.773
-69.0,-5.0,4.774
-91.0,-17.0,4.775
-77.0,-34.0,4.776
-52.0,-43.0,4.777
-57.0,-37.0,4.778
-68.0,-19.0,4.779
-75.0,0.0,4.78
-65.0,9.0,4.781
-53.0,9.0,4.782
-33.0,8.0,4.783
-13.0,12.0,4.784
4.0,20.0,4.785
19.0,25.0,4.786
26.0,19.0,4.787
34.0,15.0,4.788
42.0,16.0,4.789
47.0,16.0,4.79
44.0,7.0,4.791
40.0,-3.0,4.792
37.0,-8.0,4.793
31.0,-7.0,4.794
21.0,-7.0,4.795
14.0,-10.0,4.796
13.0,-14.0,4.797
-57.0,-27.0,4.798
-68.0,-36.0,4.799
-75.0,-32.0,4.8
-65.0,-22.0,4.801
-53.0,-13.0,4.802
-33.0,-14.0,4.803
-13.0,-13.0,4.804
4.0,-2.0,4.805
19.0,12.0,4.806
26.0,16.0,4.807
34.0,12.0,4.808
42.0,11.0,4.809
47.0,11.0,4.81
44.0,10.0,4.811
40.0,9.0,4.812
37.0,12.0,4.813
31.0,15.0,4.814
21.0,11.0,4.815
14.0,2.0,4.816
13.0,-1.0,4.817
10.0,0.0,4.818
2.0,0.0,4.819
-1.0,-1.0,4.82
3.0,-2.0,4.821
9.0,1.0,4.822
16.0,3.0,4.823
20.0,-3.0,4.824
16.0,-10.0,4.825
3.0,-12.0,4.826
-4.0,-8.0,4.827
3.0,-5.0,4.828
13.0,-5.0,4.829
7.0,-4.0,4.83
-2.0,0.0,4.831
5.0,0.0,4.832
21.0,-2.0,4.833
28.0,0.0,4.834
22.0,5.0,4.835
18.0,6.0,4.836
22.0,8.0,4.837
23.0,12.0,4.838
19.0,18.0,4.839
16.0,13.0,4.84
17.0,-6.0,4.841
13.0,-14.0,4.842
-8.0,-6.0,4.843
-26.0,7.0,4.844
-30.0,9.0,4.845
-31.0,5.0,4.846
-23.0,4.0,4.847
-19.0,3.0,4.848
-29.0,-2.0,4.849
-33.0,-5.0,4.85
-15.0,2.0,4.851
-3.0,11.0,4.852
-9.0,6.0,4.853
-20.0,-7.0,4.854
-41.0,-14.0,4.855
-60.0,-14.0,4.856
-73.0,-17.0,4.857
-82.0,-31.0,4.858
-75.0,-44.0,4.859
-61.0,-48.0,4.86
-36.0,-46.0,4.861
-5.0,-34.0,4.862
21.0,-14.0,4.863
33.0,5.0,4.864
33.0,16.0,4.865
35.0,17.0,4.866
43.0,14.0,4.867
51.0,13.0,4.868
56.0,17.0,4.869
56.0,21.0,4.87
53.0,23.0,4.871
49.0,18.0,4.872
46.0,11.0,4.873
41.0,9.0,4.874
35.0,11.0,4.875
26.0,14.0,4.876
22.0,12.0,4.877
15.0,6.0,4.878
8.0,1.0,4.879
2.0,1.0,4.88
1.0,-1.0,4.881
5.0,0.0,4.882
14.0,1.0,4.883
22.0,0.0,4.884
24.0,1.0,4.885
15.0,6.0,4.886
3.0,9.0,4.887
-3.0,6.0,4.888
-7.0,7.0,4.889
-12.0,13.0,4.89
-16.0,16.0,4.891
-12.0,6.0,4.892
-6.0,-8.0,4.893
-9.0,-14.0,4.894
-14.0,-13.0,4.895
-11.0,-16.0,4.896
1.0,-20.0,4.897
15.0,-19.0,4.898
29.0,-11.0,4.899
53.0,-6.0,4.9
77.0,-5.0,4.901
77.0,5.0,4.902
46.0,15.0,4.903
3.0,16.0,4.904
-35.0,11.0,4.905
-71.0,9.0,4.906
-107.0,9.0,4.907
-134.0,-3.0,4.908
-140.0,-21.0,4.909
-123.0,-28.0,4.91
-82.0,-22.0,4.911
-25.0,-17.0,4.912
25.0,-17.0,4.913
48.0,-17.0,4.914
49.0,-9.0,4.915
49.0,2.0,4.916
59.0,13.0,4.917
72.0,18.0,4.918
73.0,12.0,4.919
56.0,1.0,4.92
30.0,-7.0,4.921
9.0,-6.0,4.922
-1.0,-11.0,4.923
-12.0,-14.0,4.924
-41.0,-5.0,4.925
-78.0,9.0,4.926
-92.0,-3.0,4.927
-74.0,-36.0,4.928
-39.0,-50.0,4.929
5.0,-26.0,4.93
59.0,4.0,4.931
109.0,8.0,4.932
124.0,5.0,4.933
95.0,25.0,4.934
59.0,48.0,4.935
36.0,45.0,4.936
17.0,22.0,4.937
-15.0,-2.0,4.938
-43.0,-9.0,4.939
-49.0,-11.0,4.94
-43.0,-13.0,4.941
-41.0,-5.0,4.942
-40.0,8.0,4.943
-31.0,19.0,4.944
-26.0,15.0,4.945
-25.0,4.0,4.946
-10.0,-6.0,4.947
28.0,-13.0,4.948
62.0,-15.0,4.949
73.0,-9.0,4.95
60.0,-1.0,4.951
33.0,5.0,4.952
3.0,3.0,4.953
-21.0,-2.0,4.954
-25.0,-7.0,4.955
-15.0,-8.0,4.956
-9.0,-2.0,4.957
-14.0,5.0,4.958
-14.0,7.0,4.959
-5.0,1.0,4.96
0.0,-7.0,4.961
0.0,-7.0,4.962
0.0,1.0,4.963
9.0,12.0,4.964
18.0,15.0,4.965
27.0,12.0,4.966
46.0,7.0,4.967
75.0,5.0,4.968
86.0,8.0,4.969
70.0,14.0,4.97
47.0,25.0,4.971
48.0,31.0,4.972
66.0,27.0,4.973
69.0,18.0,4.974
44.0,13.0,4.975
1.0,15.0,4.976
-51.0,12.0,4.977
-127.0,-12.0,4.978
-205.0,-42.0,4.979
-239.0,-67.0,4.98
-212.0,-75.0,4.981
-156.0,-78.0,4.982
-106.0,-66.0,4.983
-61.0,-48.0,4.984
-19.0,-17.0,4.985
15.0,6.0,4.986
42.0,3.0,4.987
77.0,5.0,4.988
128.0,27.0,4.989
180.0,43.0,4.99
214.0,37.0,4.991
203.0,30.0,4.992
135.0,23.0,4.993
29.0,15.0,4.994
-55.0,7.0,4.995
-87.0,-3.0,4.996
-98.0,-16.0,4.997
-123.0,-28.0,4.998
-135.0,-32.0,4.999
-97.0,-24.0,5.0
-28.0,-10.0,5.001
17.0,1.0,5.002
33.0,8.0,5.003
43.0,22.0,5.004
53.0,42.0,5.005
46.0,45.0,5.006
31.0,28.0,5.007
24.0,13.0,5.008
22.0,17.0,5.009
12.0,21.0,5.01
2.0,7.0,5.011
10.0,-16.0,5.012
27.0,-31.0,5.013
31.0,-36.0,5.014
21.0,-34.0,5.015
15.0,-23.0,5.016
21.0,-7.0,5.017
24.0,3.0,5.018
23.0,7.0,5.019
15.0,10.0,5.02
7.0,7.0,5.021
-1.0,-1.0,5.022
-3.0,-7.0,5.023
-1.0,0.0,5.024
1.0,18.0,5.025
1.0,23.0,5.026
3.0,6.0,5.027
6.0,-11.0,5.028
3.0,-14.0,5.029
-1.0,-1.0,5.03
7.0,15.0,5.031
26.0,27.0,5.032
43.0,27.0,5.033
44.0,17.0,5.034
30.0,5.0,5.035
11.0,0.0,5.036
-5.0,-1.0,5.037
-19.0,-7.0,5.038
-23.0,-9.0,5.039
-15.0,-4.0,5.04
1.0,2.0,5.041
11.0,4.0,5.042
8.0,2.0,5.043
-7.0,1.0,5.044
-28.0,3.0,5.045
-43.0,0.0,5.046
-47.0,-6.0,5.047
-50.0,-11.0,5.048
-57.0,-16.0,5.049
-59.0,-22.0,5.05
-43.0,-25.0,5.051
-8.0,-25.0,5.052
47.0,-16.0,5.053
120.0,-5.0,5.054
174.0,6.0,5.055
161.0,15.0,5.056
83.0,20.0,5.057
-24.0,14.0,5.058
-105.0,7.0,5.059
-141.0,6.0,5.06
-155.0,8.0,5.061
-153.0,1.0,5.062
-135.0,-28.0,5.063
-107.0,-66.0,5.064
-73.0,-69.0,5.065
-28.0,-25.0,5.066
21.0,22.0,5.067
54.0,30.0,5.068
65.0,11.0,5.069
91.0,8.0,5.07
148.0,31.0,5.071
190.0,45.0,5.072
161.0,33.0,5.073
73.0,20.0,5.074
-8.0,24.0,5.075
-45.0,24.0,5.076
-54.0,2.0,5.077
-61.0,-30.0,5.078
-64.0,-40.0,5.079
-66.0,-29.0,5.08
-59.0,-28.0,5.081
-25.0,-29.0,5.082
50.0,-16.0,5.083
132.0,7.0,5.084
150.0,11.0,5.085
84.0,-15.0,5.086
-19.0,-40.0,5.087
-99.0,-35.0,5.088
-135.0,-10.0,5.089
-140.0,4.0,5.09
-120.0,-5.0,5.091
-68.0,-29.0,5.092
18.0,-41.0,5.093
115.0,-24.0,5.094
171.0,17.0,5.095
154.0,53.0,5.096
95.0,66.0,5.097
41.0,56.0,5.098
20.0,38.0,5.099
-4.0,19.0,5.1
-65.0,-1.0,5.101
-130.0,-10.0,5.102
-150.0,-10.0,5.103
-125.0,-2.0,5.104
-93.0,7.0,5.105
-65.0,7.0,5.106
-34.0,-8.0,5.107
1.0,-30.0,5.108
31.0,-37.0,5.109
54.0,-26.0,5.11
77.0,-12.0,5.111
94.0,-1.0,5.112
100.0,14.0,5.113
101.0,30.0,5.114
103.0,31.0,5.115
100.0,19.0,5.116
85.0,17.0,5.117
58.0,25.0,5.118
32.0,30.0,5.119
13.0,23.0,5.12
-4.0,18.0,5.121
-18.0,25.0,5.122
-24.0,25.0,5.123
-25.0,12.0,5.124
-26.0,1.0,5.125
-28.0,-6.0,5.126
-26.0,-29.0,5.127
-25.0,-65.0,5.128
-21.0,-78.0,5.129
-2.0,-52.0,5.13
21.0,-18.0,5.131
19.0,-16.0,5.132
-17.0,-39.0,5.133
-47.0,-39.0,5.134
-36.0,-1.0,5.135
-8.0,45.0,5.136
-5.0,60.0,5.137
-31.0,42.0,5.138
-40.0,19.0,5.139
-18.0,8.0,5.14
10.0,-3.0,5.141
22.0,-21.0,5.142
26.0,-36.0,5.143
19.0,-28.0,5.144
-9.0,-4.0,5.145
-42.0,9.0,5.146
-49.0,7.0,5.147
-26.0,5.0,5.148
-7.0,6.0,5.149
-10.0,-1.0,5.15
-12.0,-16.0,5.151
3.0,-13.0,5.152
24.0,7.0,5.153
31.0,19.0,5.154
29.0,8.0,5.155
26.0,1.0,5.156
23.0,10.0,5.157
15.0,15.0,5.158
9.0,4.0,5.159
5.0,-5.0,5.16
9.0,-4.0,5.161
14.0,-1.0,5.162
21.0,4.0,5.163
26.0,9.0,5.164
22.0,9.0,5.165
17.0,7.0,5.166
13.0,5.0,5.167
8.0,3.0,5.168
4.0,1.0,5.169
0.0,0.0,5.17
2.0,-2.0,5.171
3.0,-4.0,5.172
0.0,-5.0,5.173
-3.0,-7.0,5.174
-7.0,-11.0,5.175
-8.0,-12.0,5.176
1.0,-2.0,5.177
12.0,4.0,5.178
25.0,-1.0,5.179
44.0,2.0,5.18
64.0,15.0,5.181
74.0,28.0,5.182
67.0,28.0,5.183
42.0,22.0,5.184
-1.0,13.0,5.185
-46.0,7.0,5.186
-74.0,3.0,5.187
-79.0,-4.0,5.188
-81.0,-21.0,5.189
-82.0,-43.0,5.19
-66.0,-47.0,5.191
-38.0,-27.0,5.192
-26.0,-10.0,5.193
-45.0,-17.0,5.194
-62.0,-30.0,5.195
-49.0,-28.0,5.196
-22.0,-15.0,5.197
-3.0,-14.0,5.198
9.0,-18.0,5.199
19.0,-8.0,5.2
25.0,11.0,5.201
27.0,21.0,5.202
44.0,13.0,5.203
77.0,8.0,5.204
91.0,14.0,5.205
64.0,18.0,5.206
15.0,15.0,5.207
-14.0,13.0,5.208
-17.0,20.0,5.209
-9.0,28.0,5.21
-6.0,24.0,5.211
-8.0,8.0,5.212
-8.0,-8.0,5.213
0.0,-18.0,5.214
16.0,-22.0,5.215
23.0,-19.0,5.216
20.0,-11.0,5.217
5.0,-9.0,5.218
-7.0,-12.0,5.219
-13.0,-12.0,5.22
-7.0,-3.0,5.221
11.0,16.0,5.222
32.0,27.0,5.223
39.0,20.0,5.224
31.0,11.0,5.225
28.0,15.0,5.226
41.0,20.0,5.227
56.0,11.0,5.228
51.0,-1.0,5.229
31.0,-1.0,5.23
12.0,3.0,5.231
-2.0,-2.0,5.232
-20.0,-16.0,5.233
-37.0,-21.0,5.234
-42.0,-12.0,5.235
-33.0,0.0,5.236
-24.0,10.0,5.237
-20.0,15.0,5.238
-3.0,21.0,5.239
28.0,16.0,5.24
54.0,0.0,5.241
57.0,-14.0,5.242
43.0,-15.0,5.243
22.0,-4.0,5.244
-6.0,8.0,5.245
-44.0,13.0,5.246
-73.0,7.0,5.247
-70.0,-2.0,5.248
-40.0,-4.0,5.249
-13.0,-5.0,5.25
-20.0,-15.0,5.251
-62.0,-33.0,5.252
-109.0,-44.0,5.253
-113.0,-34.0,5.254
-64.0,-15.0,5.255
-1.0,-5.0,5.256
31.0,-5.0,5.257
32.0,-10.0,5.258
31.0,-13.0,5.259
36.0,-13.0,5.26
31.0,-8.0,5.261
10.0,4.0,5.262
2.0,17.0,5.263
20.0,25.0,5.264
43.0,24.0,5.265
54.0,19.0,5.266
64.0,8.0,5.267
81.0,-2.0,5.268
80.0,-4.0,5.269
40.0,0.0,5.27
-12.0,-1.0,5.271
-34.0,-10.0,5.272
-25.0,-13.0,5.273
-19.0,-5.0,5.274
-23.0,9.0,5.275
-14.0,17.0,5.276
16.0,16.0,5.277
29.0,9.0,5.278
10.0,-2.0,5.279
-1.0,-10.0,5.28
10.0,-11.0,5.281
21.0,2.0,5.282
32.0,16.0,5.283
44.0,20.0,5.284
57.0,11.0,5.285
74.0,2.0,5.286
104.0,0.0,5.287
110.0,11.0,5.288
41.0,29.0,5.289
-26.0,33.0,5.29
-86.0,16.0,5.291
-131.0,-5.0,5.292
-133.0,-10.0,5.293
-134.0,-8.0,5.294
-131.0,-16.0,5.295
-120.0,-28.0,5.296
-87.0,-27.0,5.297
-50.0,-15.0,5.298
-4.0,-2.0,5.299
51.0,8.0,5.3
114.0,13.0,5.301
159.0,9.0,5.302
146.0,-8.0,5.303
71.0,-18.0,5.304
-4.0,-3.0,5.305
-6.0,23.0,5.306
76.0,30.0,5.307
157.0,11.0,5.308
144.0,-11.0,5.309
36.0,-18.0,5.31
-79.0,-16.0,5.311
-133.0,-12.0,5.312
-139.0,-8.0,5.313
-139.0,-3.0,5.314
-139.0,-17.0,5.315
-125.0,-54.0,5.316
-101.0,-86.0,5.317
-76.0,-80.0,5.318
-42.0,-34.0,5.319
2.0,13.0,5.32
36.0,24.0,5.321
51.0,8.0,5.322
68.0,0.0,5.323
95.0,8.0,5.324
103.0,15.0,5.325
66.0,11.0,5.326
18.0,6.0,5.327
0.0,13.0,5.328
8.0,30.0,5.329
18.0,47.0,5.33
24.0,53.0,5.331
32.0,42.0,5.332
36.0,17.0,5.333
28.0,-3.0,5.334
18.0,-3.0,5.335
16.0,8.0,5.336
10.0,12.0,5.337
-8.0,-3.0,5.338
-20.0,-15.0,5.339
-12.0,-14.0,5.34
7.0,-8.0,5.341
18.0,-6.0,5.342
25.0,-5.0,5.343
33.0,3.0,5.344
40.0,18.0,5.345
42.0,29.0,5.346
45.0,28.0,5.347
52.0,21.0,5.348
41.0,16.0,5.349
2.0,16.0,5.35
-36.0,20.0,5.351
-46.0,17.0,5.352
-35.0,-2.0,5.353
-33.0,-34.0,5.354
-33.0,-58.0,5.355
-17.0,-53.0,5.356
6.0,-27.0,5.357
1.0,-8.0,5.358
-34.0,-6.0,5.359
-66.0,-14.0,5.36
-74.0,-25.0,5.361
-64.0,-29.0,5.362
-36.0,-30.0,5.363
23.0,-20.0,5.364
91.0,-1.0,5.365
113.0,17.0,5.366
72.0,30.0,5.367
15.0,34.0,5.368
-5.0,31.0,5.369
-6.0,27.0,5.37
-23.0,28.0,5.371
-55.0,26.0,5.372
-68.0,7.0,5.373
-56.0,-22.0,5.374
-50.0,-45.0,5.375
-58.0,-47.0,5.376
-56.0,-39.0,5.377
-24.0,-27.0,5.378
18.0,-5.0,5.379
34.0,20.0,5.38
22.0,20.0,5.381
14.0,-10.0,5.382
23.0,-37.0,5.383
41.0,-24.0,5.384
46.0,10.0,5.385
36.0,25.0,5.386
23.0,8.0,5.387
15.0,2.0,5.388
20.0,22.0,5.389
49.0,46.0,5.39
84.0,47.0,5.391
93.0,32.0,5.392
70.0,25.0,5.393
48.0,29.0,5.394
46.0,32.0,5.395
41.0,26.0,5.396
18.0,15.0,5.397
-4.0,-3.0,5.398
6.0,-27.0,5.399
16.0,-44.0,5.4
-23.0,-51.0,5.401
-97.0,-51.0,5.402
-132.0,-58.0,5.403
-106.0,-56.0,5.404
-74.0,-29.0,5.405
-79.0,2.0,5.406
-89.0,2.0,5.407
-65.0,-24.0,5.408
-16.0,-30.0,5.409
27.0,-4.0,5.41
50.0,19.0,5.411
56.0,14.0,5.412
53.0,1.0,5.413
59.0,6.0,5.414
77.0,15.0,5.415
73.0,12.0,5.416
32.0,0.0,5.417
-29.0,-6.0,5.418
-56.0,-5.0,5.419
-50.0,-4.0,5.42
-49.0,-1.0,5.421
-57.0,9.0,5.422
-40.0,15.0,5.423
5.0,11.0,5.424
32.0,5.0,5.425
19.0,5.0,5.426
2.0,6.0,5.427
8.0,-1.0,5.428
18.0,-5.0,5.429
16.0,5.0,5.43
17.0,27.0,5.431
35.0,40.0,5.432
51.0,35.0,5.433
52.0,13.0,5.434
42.0,-6.0,5.435
34.0,-11.0,5.436
30.0,-5.0,5.437
26.0,-3.0,5.438
21.0,-10.0,5.439
10.0,-16.0,5.44
1.0,-15.0,5.441
7.0,-2.0,5.442
28.0,11.0,5.443
41.0,20.0,5.444
38.0,30.0,5.445
41.0,33.0,5.446
63.0,29.0,5.447
80.0,21.0,5.448
76.0,15.0,5.449
71.0,9.0,5.45
64.0,-3.0,5.451
13.0,-17.0,5.452
-81.0,-26.0,5.453
-156.0,-26.0,5.454
-167.0,-23.0,5.455
-158.0,-14.0,5.456
-180.0,-7.0,5.457
-203.0,-16.0,5.458
-158.0,-39.0,5.459
-49.0,-51.0,5.46
46.0,-37.0,5.461
76.0,-14.0,5.462
51.0,-15.0,5.463
10.0,-34.0,5.464
-26.0,-38.0,5.465
-42.0,-17.0,5.466
-41.0,0.0,5.467
-33.0,1.0,5.468
-17.0,-2.0,5.469
18.0,3.0,5.47
60.0,8.0,5.471
78.0,4.0,5.472
71.0,-7.0,5.473
58.0,-10.0,5.474
41.0,-4.0,5.475
12.0,8.0,5.476
-7.0,17.0,5.477
1.0,16.0,5.478
27.0,9.0,5.479
37.0,1.0,5.48
36.0,-2.0,5.481
47.0,4.0,5.482
66.0,15.0,5.483
65.0,25.0,5.484
43.0,27.0,5.485
26.0,22.0,5.486
25.0,12.0,5.487
22.0,7.0,5.488
6.0,5.0,5.489
-5.0,3.0,5.49
-3.0,0.0,5.491
5.0,1.0,5.492
17.0,6.0,5.493
30.0,13.0,5.494
31.0,15.0,5.495
5.0,13.0,5.496
-27.0,12.0,5.497
-46.0,4.0,5.498
-41.0,-12.0,5.499
-36.0,-27.0,5.5
-36.0,-34.0,5.501
-25.0,-22.0,5.502
0.0,-6.0,5.503
17.0,0.0,5.504
18.0,2.0,5.505
17.0,11.0,5.506
22.0,26.0,5.507
19.0,29.0,5.508
2.0,19.0,5.509
-10.0,8.0,5.51
-12.0,4.0,5.511
-18.0,4.0,5.512
-34.0,3.0,5.513
-38.0,1.0,5.514
-13.0,-3.0,5.515
24.0,-7.0,5.516
50.0,-8.0,5.517
57.0,-3.0,5.518
51.0,2.0,5.519
36.0,3.0,5.52
17.0,1.0,5.521
2.0,-1.0,5.522
-12.0,-13.0,5.523
-31.0,-32.0,5.524
-40.0,-37.0,5.525
-22.0,-23.0,5.526
10.0,-8.0,5.527
16.0,-2.0,5.528
-12.0,1.0,5.529
-33.0,8.0,5.53
-6.0,7.0,5.531
50.0,-2.0,5.532
80.0,-3.0,5.533
59.0,4.0,5.534
5.0,7.0,5.535
-41.0,1.0,5.536
-63.0,2.0,5.537
-65.0,7.0,5.538
-63.0,3.0,5.539
-74.0,-9.0,5.54
-88.0,-16.0,5.541
-78.0,-7.0,5.542
-36.0,-7.0,5.543
4.0,-25.0,5.544
16.0,-36.0,5.545
10.0,-20.0,5.546
14.0,6.0,5.547
27.0,17.0,5.548
42.0,15.0,5.549
64.0,17.0,5.55
87.0,21.0,5.551
89.0,14.0,5.552
54.0,-1.0,5.553
10.0,-12.0,5.554
-15.0,-13.0,5.555
-26.0,-9.0,5.556
-39.0,-5.0,5.557
-54.0,-7.0,5.558
-59.0,-8.0,5.559
-44.0,-5.0,5.56
-22.0,-1.0,5.561
4.0,3.0,5.562
46.0,7.0,5.563
103.0,17.0,5.564
141.0,37.0,5.565
121.0,53.0,5.566
60.0,51.0,5.567
3.0,36.0,5.568
-32.0,20.0,5.569
-58.0,-5.0,5.57
-75.0,-42.0,5.571
-73.0,-72.0,5.572
-58.0,-69.0,5.573
-43.0,-39.0,5.574
-29.0,-8.0,5.575
-6.0,2.0,5.576
14.0,4.0,5.577
7.0,4.0,5.578
-8.0,6.0,5.579
-1.0,6.0,5.58
21.0,-2.0,5.581
30.0,-8.0,5.582
29.0,-9.0,5.583
39.0,1.0,5.584
61.0,22.0,5.585
78.0,39.0,5.586
93.0,42.0,5.587
119.0,42.0,5.588
143.0,46.0,5.589
141.0,49.0,5.59
97.0,40.0,5.591
15.0,21.0,5.592
-81.0,4.0,5.593
-152.0,-3.0,5.594
-171.0,-14.0,5.595
-164.0,-48.0,5.596
-165.0,-91.0,5.597
-170.0,-119.0,5.598
-139.0,-100.0,5.599
-75.0,-48.0,5.6
-24.0,-14.0,5.601
-4.0,-10.0,5.602
17.0,-9.0,5.603
52.0,8.0,5.604
69.0,27.0,5.605
53.0,25.0,5.606
35.0,12.0,5.607
43.0,12.0,5.608
61.0,24.0,5.609
67.0,28.0,5.61
59.0,18.0,5.611
42.0,9.0,5.612
17.0,9.0,5.613
0.0,11.0,5.614
9.0,12.0,5.615
26.0,13.0,5.616
21.0,13.0,5.617
-6.0,7.0,5.618
-26.0,5.0,5.619
-23.0,1.0,5.62
-12.0,-9.0,5.621
-4.0,-17.0,5.622
6.0,-13.0,5.623
13.0,-6.0,5.624
9.0,7.0,5.625
8.0,19.0,5.626
33.0,19.0,5.627
72.0,20.0,5.628
79.0,24.0,5.629
39.0,25.0,5.63
-8.0,16.0,5.631
-21.0,8.0,5.632
-6.0,4.0,5.633
-9.0,-6.0,5.634
-44.0,-35.0,5.635
-82.0,-57.0,5.636
-79.0,-55.0,5.637
-44.0,-50.0,5.638
-10.0,-33.0,5.639
1.0,-14.0,5.64
5.0,-4.0,5.641
14.0,-4.0,5.642
31.0,1.0,5.643
51.0,17.0,5.644
74.0,30.0,5.645
89.0,23.0,5.646
77.0,8.0,5.647
36.0,6.0,5.648
-7.0,12.0,5.649
-27.0,9.0,5.65
-30.0,0.0,5.651
-36.0,-5.0,5.652
-49.0,-2.0,5.653
-53.0,-7.0,5.654
-49.0,-17.0,5.655
-56.0,-26.0,5.656
-71.0,-24.0,5.657
-76.0,-14.0,5.658
-59.0,-3.0,5.659
-42.0,2.0,5.66
-36.0,-8.0,5.661
-20.0,-18.0,5.662
22.0,-17.0,5.663
62.0,-8.0,5.664
60.0,-4.0,5.665
31.0,-5.0,5.666
22.0,5.0,5.667
55.0,36.0,5.668
102.0,67.0,5.669
126.0,72.0,5.67
106.0,56.0,5.671
55.0,38.0,5.672
17.0,28.0,5.673
29.0,17.0,5.674
72.0,0.0,5.675
78.0,-20.0,5.676
15.0,-26.0,5.677
-73.0,-16.0,5.678
-113.0,-2.0,5.679
-135.0,-8.0,5.68
-97.0,-35.0,5.681
-66.0,-56.0,5.682
-56.0,-54.0,5.683
-40.0,-39.0,5.684
-10.0,-27.0,5.685
11.0,-20.0,5.686
4.0,-11.0,5.687
0.0,2.0,5.688
8.0,11.0,5.689
11.0,10.0,5.69
-2.0,3.0,5.691
-6.0,-2.0,5.692
21.0,4.0,5.693
44.0,18.0,5.694
54.0,25.0,5.695
61.0,16.0,5.696
51.0,4.0,5.697
35.0,-3.0,5.698
-3.0,-6.0,5.699
-28.0,-11.0,5.7
-27.0,-10.0,5.701
-25.0,3.0,5.702
-29.0,15.0,5.703
-28.0,10.0,5.704
-14.0,-7.0,5.705
7.0,-18.0,5.706
29.0,-14.0,5.707
49.0,2.0,5.708
66.0,23.0,5.709
72.0,33.0,5.71
67.0,24.0,5.711
50.0,7.0,5.712
26.0,3.0,5.713
5.0,13.0,5.714
-4.0,20.0,5.715
0.0,17.0,5.716
11.0,15.0,5.717
22.0,16.0,5.718
26.0,5.0,5.719
8.0,-18.0,5.72
-40.0,-39.0,5.721
-97.0,-44.0,5.722
-123.0,-44.0,5.723
-108.0,-47.0,5.724
-78.0,-39.0,5.725
-57.0,-18.0,5.726
-44.0,-4.0,5.727
-23.0,-4.0,5.728
5.0,-7.0,5.729
29.0,2.0,5.73
43.0,16.0,5.731
69.0,26.0,5.732
102.0,33.0,5.733
108.0,38.0,5.734
52.0,32.0,5.735
-29.0,12.0,5.736
-70.0,-1.0,5.737
-57.0,-4.0,5.738
-30.0,-11.0,5.739
-35.0,-18.0,5.74
-51.0,-23.0,5.741
-36.0,-24.0,5.742
9.0,-10.0,5.743
44.0,0.0,5.744
56.0,-1.0,5.745
57.0,1.0,5.746
61.0,14.0,5.747
57.0,22.0,5.748
41.0,12.0,5.749
26.0,5.0,5.75
23.0,5.0,5.751
24.0,4.0,5.752
19.0,5.0,5.753
14.0,7.0,5.754
14.0,9.0,5.755
14.0,10.0,5.756
5.0,3.0,5.757
-11.0,-3.0,5.758
-17.0,-5.0,5.759
-15.0,-9.0,5.76
-21.0,-18.0,5.761
-31.0,-19.0,5.762
-27.0,-12.0,5.763
-9.0,-6.0,5.764
1.0,-8.0,5.765
-7.0,-9.0,5.766
-14.0,-6.0,5.767
-5.0,0.0,5.768
9.0,5.0,5.769
29.0,11.0,5.77
61.0,18.0,5.771
87.0,23.0,5.772
70.0,22.0,5.773
13.0,17.0,5.774
-37.0,9.0,5.775
-46.0,-5.0,5.776
-29.0,-14.0,5.777
-24.0,-14.0,5.778
-13.0,-7.0,5.779
-5.0,-6.0,5.78
-12.0,-26.0,5.781
-19.0,-40.0,5.782
-26.0,-33.0,5.783
-40.0,-26.0,5.784
-73.0,-20.0,5.785
-100.0,-15.0,5.786
-107.0,-13.0,5.787
-110.0,-10.0,5.788
-98.0,-1.0,5.789
-73.0,4.0,5.79
-17.0,-2.0,5.791
36.0,-4.0,5.792
84.0,9.0,5.793
116.0,21.0,5.794
98.0,28.0,5.795
81.0,33.0,5.796
69.0,29.0,5.797
-19.0,23.0,5.798
-12.0,16.0,5.799
-8.0,9.0,5.8
-11.0,-3.0,5.801
-16.0,-18.0,5.802
-20.0,-34.0,5.803
-29.0,-33.0,5.804
-49.0,-17.0,5.805
-65.0,-2.0,5.806
-70.0,0.0,5.807
-72.0,-5.0,5.808
-64.0,-3.0,5.809
-49.0,8.0,5.81
-14.0,20.0,5.811
17.0,24.0,5.812
47.0,19.0,5.813
67.0,12.0,5.814
55.0,7.0,5.815
45.0,6.0,5.816
38.0,10.0,5.817
-24.0,7.0,5.818
-13.0,-1.0,5.819
-5.0,-5.0,5.82
-12.0,-3.0,5.821
-19.0,2.0,5.822
-26.0,1.0,5.823
-39.0,-2.0,5.824
-71.0,-2.0,5.825
-96.0,-3.0,5.826
-103.0,-16.0,5.827
-106.0,-28.0,5.828
-94.0,-24.0,5.829
-71.0,-3.0,5.83
-17.0,9.0,5.831
34.0,3.0,5.832
80.0,-2.0,5.833
111.0,3.0,5.834
93.0,9.0,5.835
77.0,0.0,5.836
66.0,-7.0,5.837
53.0,-3.0,5.838
36.0,12.0,5.839
33.0,21.0,5.84
49.0,11.0,5.841
78.0,1.0,5.842
103.0,-3.0,5.843
102.0,-2.0,5.844
50.0,-3.0,5.845
-41.0,-3.0,5.846
-117.0,-3.0,5.847
-134.0,-4.0,5.848
-112.0,-6.0,5.849
-97.0,-11.0,5.85
-95.0,-17.0,5.851
-70.0,-20.0,5.852
-20.0,-15.0,5.853
15.0,-6.0,5.854
12.0,-2.0,5.855
-2.0,-5.0,5.856
6.0,-3.0,5.857
27.0,3.0,5.858
32.0,9.0,5.859
14.0,8.0,5.86
0.0,4.0,5.861
17.0,6.0,5.862
51.0,11.0,5.863
70.0,14.0,5.864
57.0,17.0,5.865
39.0,20.0,5.866
38.0,20.0,5.867
36.0,11.0,5.868
9.0,0.0,5.869
-31.0,-6.0,5.87
-43.0,-5.0,5.871
-22.0,-5.0,5.872
-3.0,-10.0,5.873
-1.0,-20.0,5.874
0.0,-24.0,5.875
4.0,-14.0,5.876
-9.0,5.0,5.877
-39.0,20.0,5.878
-51.0,27.0,5.879
-33.0,23.0,5.88
-13.0,11.0,5.881
4.0,-7.0,5.882
35.0,-25.0,5.883
61.0,-33.0,5.884
42.0,-27.0,5.885
-18.0,-21.0,5.886
-57.0,-24.0,5.887
-45.0,-24.0,5.888
-16.0,-17.0,5.889
9.0,-12.0,5.89
31.0,-15.0,5.891
46.0,-12.0,5.892
39.0,4.0,5.893
18.0,20.0,5.894
16.0,17.0,5.895
32.0,6.0,5.896
41.0,9.0,5.897
33.0,20.0,5.898
21.0,23.0,5.899
15.0,20.0,5.9
19.0,24.0,5.901
28.0,37.0,5.902
20.0,38.0,5.903
-24.0,22.0,5.904
-80.0,4.0,5.905
-98.0,-9.0,5.906
-70.0,-29.0,5.907
-38.0,-50.0,5.908
-32.0,-55.0,5.909
-37.0,-42.0,5.91
-33.0,-19.0,5.911
-15.0,-1.0,5.912
15.0,6.0,5.913
48.0,-1.0,5.914
63.0,-10.0,5.915
47.0,-9.0,5.916
23.0,-2.0,5.917
26.0,0.0,5.918
51.0,-1.0,5.919
69.0,5.0,5.92
70.0,19.0,5.921
75.0,33.0,5.922
85.0,33.0,5.923
72.0,27.0,5.924
21.0,21.0,5.925
-36.0,12.0,5.926
-72.0,-3.0,5.927
-88.0,-17.0,5.928
-92.0,-23.0,5.929
-87.0,-18.0,5.93
-70.0,-10.0,5.931
-56.0,-9.0,5.932
-44.0,-13.0,5.933
-10.0,-11.0,5.934
50.0,-1.0,5.935
104.0,10.0,5.936
120.0,11.0,5.937
91.0,6.0,5.938
43.0,10.0,5.939
-1.0,23.0,5.94
-24.0,28.0,5.941
-5.0,24.0,5.942
59.0,23.0,5.943
124.0,30.0,5.944
131.0,36.0,5.945
65.0,31.0,5.946
-33.0,17.0,5.947
-107.0,-3.0,5.948
-135.0,-29.0,5.949
-135.0,-52.0,5.95
-135.0,-61.0,5.951
-148.0,-59.0,5.952
-155.0,-58.0,5.953
-137.0,-60.0,5.954
-98.0,-53.0,5.955
-50.0,-34.0,5.956
-5.0,-11.0,5.957
42.0,-1.0,5.958
79.0,-1.0,5.959
91.0,-5.0,5.96
81.0,-6.0,5.961
57.0,8.0,5.962
37.0,28.0,5.963
38.0,38.0,5.964
71.0,37.0,5.965
123.0,34.0,5.966
153.0,29.0,5.967
128.0,15.0,5.968
67.0,-1.0,5.969
19.0,0.0,5.97
5.0,13.0,5.971
8.0,19.0,5.972
-1.0,9.0,5.973
-29.0,1.0,5.974
-60.0,-3.0,5.975
-80.0,-13.0,5.976
-78.0,-27.0,5.977
-46.0,-30.0,5.978
-3.0,-17.0,5.979
12.0,-7.0,5.98
-10.0,-7.0,5.981
-34.0,-6.0,5.982
-22.0,3.0,5.983
5.0,17.0,5.984
10.0,32.0,5.985
-5.0,47.0,5.986
-7.0,49.0,5.987
9.0,29.0,5.988
27.0,1.0,5.989
31.0,-19.0,5.99
24.0,-30.0,5.991
0.0,-33.0,5.992
-25.0,-26.0,5.993
-20.0,-6.0,5.994
42.0,8.0,5.995
122.0,9.0,5.996
157.0,4.0,5.997
110.0,0.0,5.998
22.0,0.0,5.999
-28.0,2.0,6.0
-4.0,2.0,6.001
47.0,3.0,6.002
60.0,0.0,6.003
25.0,-2.0,6.004
-14.0,2.0,6.005
-31.0,9.0,6.006
-43.0,13.0,6.007
-71.0,10.0,6.008
-126.0,1.0,6.009
-195.0,-10.0,6.01
-241.0,-22.0,6.011
-230.0,-29.0,6.012
-165.0,-25.0,6.013
-96.0,-18.0,6.014
-38.0,-18.0,6.015
44.0,-25.0,6.016
164.0,-28.0,6.017
283.0,-23.0,6.018
330.0,-12.0,6.019
293.0,-2.0,6.02
222.0,6.0,6.021
152.0,22.0,6.022
71.0,40.0,6.023
-12.0,51.0,6.024
-62.0,47.0,6.025
-68.0,25.0,6.026
-93.0,-6.0,6.027
-175.0,-28.0,6.028
-256.0,-31.0,6.029
-247.0,-23.0,6.03
-155.0,-19.0,6.031
-77.0,-29.0,6.032
-62.0,-45.0,6.033
-70.0,-49.0,6.034
-59.0,-31.0,6.035
-50.0,2.0,6.036
-59.0,26.0,6.037
-55.0,18.0,6.038
0.0,-6.0,6.039
80.0,-15.0,6.04
145.0,-2.0,6.041
191.0,21.0,6.042
237.0,39.0,6.043
265.0,57.0,6.044
236.0,73.0,6.045
137.0,73.0,6.046
-2.0,54.0,6.047
-126.0,34.0,6.048
-175.0,18.0,6.049
-121.0,-9.0,6.05
-23.0,-48.0,6.051
32.0,-72.0,6.052
30.0,-58.0,6.053
23.0,-26.0,6.054
45.0,-6.0,6.055
60.0,-3.0,6.056
40.0,-3.0,6.057
4.0,-1.0,6.058
-12.0,-4.0,6.059
-23.0,-13.0,6.06
-42.0,-26.0,6.061
-40.0,-31.0,6.062
5.0,-31.0,6.063
46.0,-22.0,6.064
34.0,1.0,6.065
-2.0,26.0,6.066
1.0,33.0,6.067
35.0,28.0,6.068
41.0,29.0,6.069
10.0,40.0,6.07
-18.0,45.0,6.071
-30.0,39.0,6.072
-55.0,35.0,6.073
-99.0,32.0,6.074
-131.0,17.0,6.075
-126.0,-6.0,6.076
-85.0,-24.0,6.077
-23.0,-40.0,6.078
33.0,-57.0,6.079
52.0,-65.0,6.08
34.0,-51.0,6.081
14.0,-22.0,6.082
32.0,-7.0,6.083
86.0,-5.0,6.084
132.0,4.0,6.085
129.0,27.0,6.086
81.0,39.0,6.087
42.0,36.0,6.088
52.0,33.0,6.089
79.0,21.0,6.09
64.0,-12.0,6.091
8.0,-48.0,6.092
-23.0,-53.0,6.093
-2.0,-26.0,6.094
22.0,-4.0,6.095
-2.0,-2.0,6.096
-64.0,-2.0,6.097
-136.0,-3.0,6.098
-192.0,-7.0,6.099
-209.0,-13.0,6.1
-170.0,-13.0,6.101
-105.0,-1.0,6.102
-52.0,9.0,6.103
-11.0,11.0,6.104
43.0,18.0,6.105
113.0,31.0,6.106
160.0,38.0,6.107
141.0,38.0,6.108
57.0,35.0,6.109
-38.0,32.0,6.11
-84.0,22.0,6.111
-63.0,5.0,6.112
-27.0,-13.0,6.113
-26.0,-37.0,6.114
-42.0,-63.0,6.115
-30.0,-75.0,6.116
6.0,-60.0,6.117
27.0,-36.0,6.118
18.0,-27.0,6.119
0.0,-37.0,6.12
17.0,-43.0,6.121
95.0,-23.0,6.122
223.0,3.0,6.123
318.0,23.0,6.124
284.0,42.0,6.125
126.0,66.0,6.126
-33.0,81.0,6.127
-102.0,72.0,6.128
-110.0,56.0,6.129
-115.0,42.0,6.13
-109.0,20.0,6.131
-68.0,-17.0,6.132
-9.0,-40.0,6.133
50.0,-20.0,6.134
109.0,21.0,6.135
128.0,42.0,6.136
70.0,36.0,6.137
-25.0,-3.0,6.138
-43.0,-23.0,6.139
0.0,-37.0,6.14
-42.0,-28.0,6.141
-203.0,-15.0,6.142
-306.0,9.0,6.143
-231.0,28.0,6.144
-92.0,36.0,6.145
-48.0,38.0,6.146
-60.0,22.0,6.147
-16.0,10.0,6.148
72.0,5.0,6.149
108.0,3.0,6.15
92.0,3.0,6.151
90.0,12.0,6.152
103.0,36.0,6.153
78.0,60.0,6.154
31.0,81.0,6.155
31.0,86.0,6.156
89.0,38.0,6.157
151.0,-4.0,6.158
171.0,-25.0,6.159
141.0,-40.0,6.16
80.0,-30.0,6.161
5.0,-17.0,6.162
-68.0,9.0,6.163
-130.0,29.0,6.164
-186.0,37.0,6.165
-222.0,39.0,6.166
-202.0,22.0,6.167
-125.0,10.0,6.168
-45.0,4.0,6.169
6.0,2.0,6.17
61.0,3.0,6.171
131.0,11.0,6.172
153.0,37.0,6.173
86.0,62.0,6.174
5.0,84.0,6.175
-2.0,90.0,6.176
25.0,39.0,6.177
5.0,-8.0,6.178
-41.0,-32.0,6.179
-17.0,-48.0,6.18
73.0,-37.0,6.181
111.0,-22.0,6.182
45.0,7.0,6.183
-45.0,31.0,6.184
-79.0,40.0,6.185
-84.0,42.0,6.186
-99.0,23.0,6.187
-106.0,8.0,6.188
-80.0,2.0,6.189
-55.0,-1.0,6.19
-62.0,0.0,6.191
-63.0,10.0,6.192
13.0,40.0,6.193
153.0,69.0,6.194
256.0,94.0,6.195
242.0,100.0,6.196
157.0,42.0,6.197
76.0,-15.0,6.198
21.0,-57.0,6.199
-60.0,-69.0,6.2
-178.0,-63.0,6.201
-253.0,-56.0,6.202
-205.0,-61.0,6.203
-63.0,-75.0,6.204
74.0,-84.0,6.205
142.0,-77.0,6.206
137.0,-46.0,6.207
92.0,-1.0,6.208
52.0,32.0,6.209
51.0,35.0,6.21
70.0,27.0,6.211
42.0,30.0,6.212
-41.0,35.0,6.213
-101.0,7.0,6.214
-76.0,-47.0,6.215
-20.0,-81.0,6.216
1.0,-69.0,6.217
9.0,-35.0,6.218
55.0,-1.0,6.219
93.0,33.0,6.22
43.0,61.0,6.221
-73.0,74.0,6.222
-144.0,64.0,6.223
-132.0,53.0,6.224
-89.0,51.0,6.225
-26.0,36.0,6.226
93.0,1.0,6.227
232.0,-19.0,6.228
299.0,12.0,6.229
274.0,69.0,6.23
219.0,92.0,6.231
126.0,53.0,6.232
-78.0,-10.0,6.233
-355.0,-46.0,6.234
-500.0,-50.0,6.235
-386.0,-50.0,6.236
-161.0,-63.0,6.237
-30.0,-88.0,6.238
-36.0,-92.0,6.239
-30.0,-61.0,6.24
55.0,-10.0,6.241
98.0,32.0,6.242
22.0,45.0,6.243
-35.0,30.0,6.244
64.0,9.0,6.245
222.0,0.0,6.246
243.0,9.0,6.247
112.0,33.0,6.248
-7.0,65.0,6.249
-18.0,98.0,6.25
15.0,116.0,6.251
8.0,100.0,6.252
-32.0,34.0,6.253
-58.0,-69.0,6.254
-57.0,-154.0,6.255
-39.0,-160.0,6.256
-12.0,-98.0,6.257
31.0,-39.0,6.258
79.0,-35.0,6.259
97.0,-49.0,6.26
53.0,-25.0,6.261
-29.0,32.0,6.262
-70.0,71.0,6.263
-23.0,77.0,6.264
39.0,76.0,6.265
1.0,69.0,6.266
-105.0,35.0,6.267
-94.0,-5.0,6.268
102.0,-12.0,6.269
276.0,9.0,6.27
192.0,5.0,6.271
-52.0,-36.0,6.272
-156.0,-72.0,6.273
-58.0,-64.0,6.274
-4.0,-36.0,6.275
-105.0,-26.0,6.276
-159.0,-43.0,6.277
-20.0,-70.0,6.278
136.0,-75.0,6.279
80.0,-46.0,6.28
-87.0,0.0,6.281
-125.0,38.0,6.282
-30.0,56.0,6.283
22.0,65.0,6.284
-3.0,69.0,6.285
10.0,61.0,6.286
76.0,37.0,6.287
87.0,11.0,6.288
22.0,0.0,6.289
-26.0,-1.0,6.29
-20.0,-7.0,6.291
-5.0,-14.0,6.292
16.0,-5.0,6.293
90.0,21.0,6.294
183.0,41.0,6.295
188.0,36.0,6.296
102.0,20.0,6.297
33.0,14.0,6.298
41.0,25.0,6.299
17.0,23.0,6.3
-104.0,-22.0,6.301
-207.0,-62.0,6.302
-247.0,-83.0,6.303
-240.0,-87.0,6.304
-89.0,-38.0,6.305
22.0,0.0,6.306
16.0,6.0,6.307
18.0,10.0,6.308
44.0,4.0,6.309
46.0,-1.0,6.31
-31.0,-9.0,6.311
-88.0,-15.0,6.312
-86.0,-15.0,6.313
-56.0,-6.0,6.314
57.0,32.0,6.315
151.0,66.0,6.316
189.0,83.0,6.317
239.0,91.0,6.318
331.0,56.0,6.319
395.0,0.0,6.32
359.0,-49.0,6.321
204.0,-69.0,6.322
-17.0,-64.0,6.323
-209.0,-51.0,6.324
-308.0,-35.0,6.325
-344.0,1.0,6.326
-392.0,47.0,6.327
-432.0,59.0,6.328
-360.0,-1.0,6.329
-167.0,-99.0,6.33
3.0,-151.0,6.331
31.0,-115.0,6.332
-8.0,-32.0,6.333
28.0,24.0,6.334
140.0,32.0,6.335
202.0,36.0,6.336
153.0,69.0,6.337
28.0,115.0,6.338
-79.0,143.0,6.339
-102.0,157.0,6.34
-30.0,172.0,6.341
80.0,170.0,6.342
145.0,108.0,6.343
142.0,-18.0,6.344
115.0,-157.0,6.345
86.0,-242.0,6.346
37.0,-244.0,6.347
-10.0,-185.0,6.348
14.0,-121.0,6.349
103.0,-86.0,6.35
163.0,-60.0,6.351
135.0,-17.0,6.352
47.0,31.0,6.353
-63.0,58.0,6.354
-179.0,71.0,6.355
-243.0,88.0,6.356
-197.0,105.0,6.357
-64.0,102.0,6.358
51.0,85.0,6.359
91.0,66.0,6.36
106.0,36.0,6.361
169.0,4.0,6.362
272.0,-10.0,6.363
309.0,-12.0,6.364
154.0,-34.0,6.365
-153.0,-71.0,6.366
-365.0,-76.0,6.367
-296.0,-41.0,6.368
-93.0,-22.0,6.369
-32.0,-49.0,6.37
-108.0,-74.0,6.371
-105.0,-55.0,6.372
6.0,-18.0,6.373
41.0,-7.0,6.374
-26.0,-2.0,6.375
-21.0,23.0,6.376
93.0,57.0,6.377
166.0,70.0,6.378
123.0,72.0,6.379
84.0,85.0,6.38
110.0,91.0,6.381
99.0,70.0,6.382
19.0,35.0,6.383
-16.0,10.0,6.384
11.0,0.0,6.385
-8.0,-6.0,6.386
-74.0,8.0,6.387
-59.0,54.0,6.388
12.0,89.0,6.389
-22.0,58.0,6.39
-177.0,-27.0,6.391
-243.0,-85.0,6.392
-106.0,-68.0,6.393
100.0,-23.0,6.394
193.0,-22.0,6.395
129.0,-74.0,6.396
-11.0,-113.0,6.397
-146.0,-93.0,6.398
-170.0,-27.0,6.399
-70.0,25.0,6.4
38.0,12.0,6.401
56.0,-43.0,6.402
26.0,-92.0,6.403
22.0,-97.0,6.404
19.0,-61.0,6.405
-34.0,0.0,6.406
-104.0,64.0,6.407
-112.0,114.0,6.408
-30.0,130.0,6.409
108.0,105.0,6.41
225.0,44.0,6.411
214.0,-35.0,6.412
63.0,-103.0,6.413
-74.0,-136.0,6.414
-48.0,-119.0,6.415
62.0,-69.0,6.416
76.0,-33.0,6.417
-20.0,-49.0,6.418
-61.0,-97.0,6.419
13.0,-118.0,6.42
69.0,-83.0,6.421
27.0,-29.0,6.422
-33.0,2.0,6.423
-39.0,28.0,6.424
-46.0,68.0,6.425
-88.0,107.0,6.426
-93.0,125.0,6.427
-21.0,138.0,6.428
40.0,166.0,6.429
23.0,186.0,6.43
16.0,171.0,6.431
142.0,129.0,6.432
337.0,95.0,6.433
381.0,73.0,6.434
151.0,42.0,6.435
-190.0,-17.0,6.436
-366.0,-82.0,6.437
-300.0,-124.0,6.438
-140.0,-114.0,6.439
-61.0,-63.0,6.44
-56.0,-28.0,6.441
-19.0,-27.0,6.442
53.0,-36.0,6.443
63.0,-31.0,6.444
-23.0,-25.0,6.445
-134.0,-32.0,6.446
-177.0,-27.0,6.447
-116.0,-2.0,6.448
10.0,5.0,6.449
132.0,-35.0,6.45
204.0,-79.0,6.451
229.0,-62.0,6.452
213.0,0.0,6.453
137.0,42.0,6.454
26.0,47.0,6.455
-26.0,51.0,6.456
7.0,56.0,6.457
32.0,32.0,6.458
-35.0,-5.0,6.459
-117.0,-27.0,6.46
-90.0,0.0,6.461
0.0,19.0,6.462
26.0,16.0,6.463
-1.0,12.0,6.464
7.0,3.0,6.465
38.0,-7.0,6.466
14.0,-19.0,6.467
-40.0,-23.0,6.468
-55.0,-5.0,6.469
-49.0,11.0,6.47
-75.0,19.0,6.471
-80.0,15.0,6.472
-3.0,-22.0,6.473
97.0,-48.0,6.474
132.0,-38.0,6.475
119.0,-26.0,6.476
100.0,-12.0,6.477
53.0,-8.0,6.478
-12.0,-33.0,6.479
-20.0,-50.0,6.48
21.0,-72.0,6.481
-24.0,-105.0,6.482
-177.0,-104.0,6.483
-256.0,-24.0,6.484
-144.0,91.0,6.485
9.0,138.0,6.486
31.0,82.0,6.487
-27.0,14.0,6.488
-37.0,19.0,6.489
-16.0,75.0,6.49
-20.0,95.0,6.491
18.0,71.0,6.492
160.0,59.0,6.493
271.0,80.0,6.494
175.0,85.0,6.495
-75.0,39.0,6.496
-239.0,-27.0,6.497
-181.0,-82.0,6.498
20.0,-112.0,6.499
153.0,-140.0,6.5
111.0,-179.0,6.501
-1.0,-196.0,6.502
-22.0,-153.0,6.503
38.0,-59.0,6.504
40.0,19.0,6.505
-30.0,30.0,6.506
-32.0,-4.0,6.507
66.0,-20.0,6.508
114.0,2.0,6.509
56.0,34.0,6.51
37.0,63.0,6.511
113.0,105.0,6.512
113.0,154.0,6.513
-64.0,177.0,6.514
-228.0,163.0,6.515
-192.0,131.0,6.516
-70.0,89.0,6.517
-40.0,13.0,6.518
-78.0,-71.0,6.519
-55.0,-114.0,6.52
-1.0,-98.0,6.521
-29.0,-55.0,6.522
-79.0,-30.0,6.523
-36.0,-25.0,6.524
38.0,-19.0,6.525
16.0,-4.0,6.526
-27.0,15.0,6.527
38.0,44.0,6.528
118.0,79.0,6.529
38.0,100.0,6.53
-99.0,88.0,6.531
-39.0,51.0,6.532
191.0,20.0,6.533
286.0,8.0,6.534
131.0,0.0,6.535
-43.0,-19.0,6.536
-51.0,-35.0,6.537
20.0,-35.0,6.538
12.0,-20.0,6.539
-44.0,-17.0,6.54
-28.0,-39.0,6.541
58.0,-61.0,6.542
111.0,-67.0,6.543
86.0,-71.0,6.544
15.0,-101.0,6.545
-55.0,-137.0,6.546
-78.0,-136.0,6.547
-23.0,-88.0,6.548
63.0,-36.0,6.549
83.0,-21.0,6.55
14.0,-19.0,6.551
-66.0,6.0,6.552
-85.0,45.0,6.553
-60.0,50.0,6.554
-60.0,9.0,6.555
-89.0,-26.0,6.556
-94.0,-12.0,6.557
-51.0,50.0,6.558
-14.0,123.0,6.559
-58.0,166.0,6.56
-132.0,171.0,6.561
-92.0,171.0,6.562
105.0,181.0,6.563
277.0,177.0,6.564
225.0,109.0,6.565
3.0,-25.0,6.566
-142.0,-159.0,6.567
-97.0,-226.0,6.568
1.0,-216.0,6.569
11.0,-166.0,6.57
-30.0,-109.0,6.571
-21.0,-65.0,6.572
24.0,-47.0,6.573
35.0,-49.0,6.574
16.0,-62.0,6.575
16.0,-75.0,6.576
37.0,-79.0,6.577
35.0,-64.0,6.578
2.0,-32.0,6.579
-26.0,-7.0,6.58
-40.0,-4.0,6.581
-40.0,10.0,6.582
3.0,55.0,6.583
46.0,95.0,6.584
86.0,117.0,6.585
115.0,130.0,6.586
112.0,108.0,6.587
99.0,88.0,6.588
56.0,73.0,6.589
12.0,55.0,6.59
-32.0,32.0,6.591
-79.0,8.0,6.592
-139.0,-15.0,6.593
-164.0,-36.0,6.594
-86.0,-51.0,6.595
-29.0,-65.0,6.596
-33.0,-74.0,6.597
-45.0,-76.0,6.598
-42.0,-51.0,6.599
6.0,-49.0,6.6
11.0,-70.0,6.601
-41.0,-69.0,6.602
-75.0,-35.0,6.603
-105.0,-1.0,6.604
-195.0,21.0,6.605
-273.0,59.0,6.606
-170.0,120.0,6.607
111.0,161.0,6.608
366.0,150.0,6.609
449.0,110.0,6.61
410.0,86.0,6.611
331.0,92.0,6.612
207.0,105.0,6.613
57.0,91.0,6.614
-45.0,40.0,6.615
-78.0,-18.0,6.616
-93.0,-36.0,6.617
-106.0,54.0,6.618
-77.0,28.0,6.619
-20.0,1.0,6.62
-5.0,-26.0,6.621
-29.0,-50.0,6.622
-23.0,-65.0,6.623
10.0,-75.0,6.624
4.0,-68.0,6.625
-21.0,-57.0,6.626
9.0,-36.0,6.627
78.0,-12.0,6.628
87.0,12.0,6.629
13.0,35.0,6.63
-58.0,50.0,6.631
-79.0,67.0,6.632
-83.0,88.0,6.633
-109.0,104.0,6.634
-139.0,109.0,6.635
-120.0,109.0,6.636
-35.0,98.0,6.637
58.0,61.0,6.638
49.0,30.0,6.639
-70.0,-2.0,6.64
-150.0,-34.0,6.641
-94.0,-62.0,6.642
-2.0,-79.0,6.643
-1.0,-91.0,6.644
-34.0,-83.0,6.645
3.0,-70.0,6.646
69.0,-45.0,6.647
59.0,-18.0,6.648
16.0,11.0,6.649
31.0,38.0,6.65
73.0,56.0,6.651
56.0,76.0,6.652
4.0,100.0,6.653
-8.0,119.0,6.654
-10.0,124.0,6.655
-69.0,125.0,6.656
-142.0,112.0,6.657
-127.0,101.0,6.658
-10.0,88.0,6.659
110.0,54.0,6.66
238.0,-3.0,6.661
312.0,-62.0,6.662
221.0,-107.0,6.663
103.0,-123.0,6.664
-98.0,-116.0,6.665
-222.0,-104.0,6.666
-116.0,-100.0,6.667
-30.0,-104.0,6.668
-1.0,-108.0,6.669
38.0,-99.0,6.67
107.0,-52.0,6.671
168.0,36.0,6.672
204.0,116.0,6.673
216.0,137.0,6.674
155.0,111.0,6.675
79.0,93.0,6.676
-42.0,98.0,6.677
-142.0,93.0,6.678
-146.0,75.0,6.679
-162.0,65.0,6.68
-238.0,46.0,6.681
-271.0,-14.0,6.682
-178.0,-100.0,6.683
-65.0,-150.0,6.684
-62.0,-144.0,6.685
-99.0,-117.0,6.686
-42.0,-93.0,6.687
61.0,-59.0,6.688
68.0,-20.0,6.689
2.0,-6.0,6.69
-4.0,-11.0,6.691
58.0,-9.0,6.692
80.0,10.0,6.693
40.0,17.0,6.694
28.0,8.0,6.695
66.0,7.0,6.696
94.0,20.0,6.697
83.0,-35.0,6.698
69.0,-22.0,6.699
45.0,-9.0,6.7
-6.0,3.0,6.701
-47.0,16.0,6.702
-23.0,26.0,6.703
42.0,26.0,6.704
59.0,-8.0,6.705
5.0,-44.0,6.706
-51.0,-92.0,6.707
-55.0,-119.0,6.708
-15.0,-81.0,6.709
30.0,-40.0,6.71
48.0,9.0,6.711
25.0,43.0,6.712
-22.0,23.0,6.713
-55.0,7.0,6.714
-54.0,7.0,6.715
-43.0,4.0,6.716
-46.0,-8.0,6.717
-68.0,-58.0,6.718
-95.0,-31.0,6.719
-99.0,-3.0,6.72
-44.0,22.0,6.721
68.0,48.0,6.722
183.0,68.0,6.723
239.0,67.0,6.724
239.0,0.0,6.725
214.0,-75.0,6.726
146.0,-172.0,6.727
7.0,-226.0,6.728
-144.0,-150.0,6.729
-191.0,-67.0,6.73
-110.0,34.0,6.731
-18.0,101.0,6.732
-14.0,61.0,6.733
-56.0,30.0,6.734
-53.0,30.0,6.735
-5.0,24.0,6.736
19.0,-1.0,6.737
-2.0,-17.0,6.738
-17.0,1.0,6.739
-2.0,-2.0,6.74
16.0,-17.0,6.741
20.0,4.0,6.742
26.0,44.0,6.743
23.0,50.0,6.744
-13.0,36.0,6.745
-62.0,48.0,6.746
-70.0,69.0,6.747
-36.0,47.0,6.748
-22.0,-5.0,6.749
-33.0,-29.0,6.75
-16.0,-12.0,6.751
37.0,-4.0,6.752
57.0,-26.0,6.753
9.0,-55.0,6.754
-32.0,-63.0,6.755
-4.0,-47.0,6.756
46.0,-25.0,6.757
44.0,-22.0,6.758
2.0,-36.0,6.759
-17.0,-48.0,6.76
0.0,-44.0,6.761
13.0,-24.0,6.762
20.0,-5.0,6.763
46.0,16.0,6.764
77.0,39.0,6.765
67.0,55.0,6.766
19.0,59.0,6.767
-30.0,64.0,6.768
-54.0,82.0,6.769
-51.0,98.0,6.77
-19.0,101.0,6.771
30.0,98.0,6.772
59.0,92.0,6.773
55.0,60.0,6.774
26.0,-12.0,6.775
-18.0,-88.0,6.776
-68.0,-117.0,6.777
-103.0,4.0,6.778
-85.0,-41.0,6.779
-27.0,-74.0,6.78
18.0,-66.0,6.781
27.0,-51.0,6.782
17.0,-16.0,6.783
15.0,5.0,6.784
20.0,-3.0,6.785
27.0,-3.0,6.786
34.0,29.0,6.787
38.0,55.0,6.788
35.0,57.0,6.789
25.0,57.0,6.79
6.0,44.0,6.791
-19.0,32.0,6.792
-41.0,21.0,6.793
-35.0,13.0,6.794
5.0,10.0,6.795
36.0,7.0,6.796
29.0,3.0,6.797
2.0,4.0,6.798
19.0,-25.0,6.799
83.0,-46.0,6.8
122.0,-41.0,6.801
74.0,-31.0,6.802
-23.0,-9.0,6.803
-85.0,5.0,6.804
-88.0,-1.0,6.805
-73.0,-1.0,6.806
-65.0,20.0,6.807
-44.0,37.0,6.808
-7.0,38.0,6.809
13.0,38.0,6.81
0.0,30.0,6.811
-14.0,22.0,6.812
-13.0,15.0,6.813
-18.0,10.0,6.814
-29.0,8.0,6.815
-8.0,6.0,6.816
46.0,3.0,6.817
84.0,2.0,6.818
70.0,11.0,6.819
42.0,19.0,6.82
33.0,10.0,6.821
17.0,-12.0,6.822
-19.0,-31.0,6.823
-32.0,-32.0,6.824
2.0,-29.0,6.825
26.0,-50.0,6.826
-3.0,-93.0,6.827
-37.0,-106.0,6.828
-17.0,-65.0,6.829
26.0,-8.0,6.83
45.0,12.0,6.831
70.0,14.0,6.832
132.0,41.0,6.833
166.0,87.0,6.834
79.0,105.0,6.835
-75.0,95.0,6.836
-144.0,89.0,6.837
-82.0,85.0,6.838
-15.0,48.0,6.839
-71.0,-27.0,6.84
-180.0,-82.0,6.841
-163.0,-68.0,6.842
-16.0,-19.0,6.843
72.0,-5.0,6.844
2.0,-39.0,6.845
-90.0,-70.0,6.846
-66.0,-66.0,6.847
4.0,-51.0,6.848
-6.0,-58.0,6.849
-52.0,-67.0,6.85
-12.0,-37.0,6.851
79.0,15.0,6.852
98.0,37.0,6.853
46.0,15.0,6.854
26.0,0.0,6.855
42.0,18.0,6.856
20.0,46.0,6.857
-43.0,56.0,6.858
-48.0,66.0,6.859
21.0,86.0,6.86
80.0,92.0,6.861
82.0,65.0,6.862
75.0,13.0,6.863
81.0,-47.0,6.864
52.0,-105.0,6.865
-21.0,-136.0,6.866
-51.0,-108.0,6.867
0.0,-31.0,6.868
51.0,26.0,6.869
33.0,30.0,6.87
-4.0,11.0,6.871
11.0,8.0,6.872
42.0,11.0,6.873
19.0,6.0,6.874
-30.0,9.0,6.875
-36.0,30.0,6.876
-7.0,41.0,6.877
1.0,25.0,6.878
-15.0,5.0,6.879
-9.0,14.0,6.88
27.0,31.0,6.881
48.0,33.0,6.882
44.0,22.0,6.883
36.0,9.0,6.884
21.0,-4.0,6.885
-14.0,-21.0,6.886
-47.0,-31.0,6.887
-51.0,-32.0,6.888
-39.0,-28.0,6.889
-38.0,-20.0,6.89
-37.0,-3.0,6.891
-14.0,10.0,6.892
27.0,7.0,6.893
66.0,-4.0,6.894
97.0,-1.0,6.895
119.0,24.0,6.896
129.0,56.0,6.897
117.0,88.0,6.898
63.0,117.0,6.899
-60.0,133.0,6.9
-214.0,120.0,6.901
-301.0,79.0,6.902
-271.0,-1.0,6.903
-184.0,-119.0,6.904
-129.0,-227.0,6.905
-107.0,-264.0,6.906
-69.0,-213.0,6.907
-15.0,-128.0,6.908
31.0,-68.0,6.909
74.0,-47.0,6.91
116.0,-36.0,6.911
121.0,-14.0,6.912
85.0,12.0,6.913
61.0,27.0,6.914
74.0,23.0,6.915
82.0,14.0,6.916
65.0,18.0,6.917
55.0,32.0,6.918
73.0,45.0,6.919
81.0,55.0,6.92
58.0,60.0,6.921
47.0,65.0,6.922
60.0,67.0,6.923
45.0,69.0,6.924
-26.0,74.0,6.925
-88.0,70.0,6.926
-79.0,43.0,6.927
-31.0,3.0,6.928
-10.0,-29.0,6.929
-22.0,-53.0,6.93
-24.0,-74.0,6.931
-3.0,-80.0,6.932
17.0,-57.0,6.933
19.0,-16.0,6.934
13.0,13.0,6.935
12.0,28.0,6.936
16.0,45.0,6.937
21.0,67.0,6.938
19.0,79.0,6.939
7.0,64.0,6.94
-7.0,34.0,6.941
-15.0,13.0,6.942
-8.0,5.0,6.943
29.0,4.0,6.944
112.0,5.0,6.945
206.0,9.0,6.946
210.0,11.0,6.947
63.0,13.0,6.948
-145.0,15.0,6.949
-246.0,14.0,6.95
-199.0,-5.0,6.951
-118.0,-42.0,6.952
-94.0,-84.0,6.953
-89.0,-111.0,6.954
-47.0,-106.0,6.955
0.0,-72.0,6.956
8.0,-28.0,6.957
-4.0,1.0,6.958
11.0,5.0,6.959
42.0,-1.0,6.96
59.0,0.0,6.961
65.0,20.0,6.962
66.0,41.0,6.963
54.0,56.0,6.964
60.0,73.0,6.965
148.0,90.0,6.966
266.0,85.0,6.967
251.0,51.0,6.968
48.0,-3.0,6.969
-173.0,-52.0,6.97
-235.0,-75.0,6.971
-177.0,-76.0,6.972
-162.0,-82.0,6.973
-222.0,-108.0,6.974
-238.0,-131.0,6.975
-147.0,-113.0,6.976
-33.0,-60.0,6.977
32.0,-8.0,6.978
47.0,15.0,6.979
53.0,26.0,6.98
59.0,42.0,6.981
61.0,60.0,6.982
62.0,64.0,6.983
66.0,56.0,6.984
61.0,51.0,6.985
50.0,42.0,6.986
53.0,24.0,6.987
76.0,13.0,6.988
94.0,22.0,6.989
95.0,35.0,6.99
85.0,36.0,6.991
80.0,31.0,6.992
71.0,30.0,6.993
45.0,31.0,6.994
1.0,22.0,6.995
-42.0,4.0,6.996
-65.0,-14.0,6.997
-81.0,-36.0,6.998
-97.0,-62.0,6.999
-105.0,-87.0,7.0
-80.0,-95.0,7.001
-27.0,-71.0,7.002
15.0,-28.0,7.003
20.0,4.0,7.004
11.0,13.0,7.005
19.0,13.0,7.006
34.0,21.0,7.007
32.0,31.0,7.008
21.0,29.0,7.009
25.0,19.0,7.01
36.0,18.0,7.011
32.0,20.0,7.012
8.0,15.0,7.013
-17.0,4.0,7.014
-28.0,-3.0,7.015
-24.0,-4.0,7.016
-7.0,-3.0,7.017
11.0,-7.0,7.018
23.0,-4.0,7.019
39.0,5.0,7.02
74.0,16.0,7.021
104.0,27.0,7.022
78.0,33.0,7.023
3.0,35.0,7.024
-57.0,35.0,7.025
-59.0,34.0,7.026
-33.0,26.0,7.027
-35.0,0.0,7.028
-63.0,-24.0,7.029
-84.0,-25.0,7.03
-75.0,-3.0,7.031
-55.0,7.0,7.032
-50.0,-14.0,7.033
-55.0,-40.0,7.034
-48.0,-34.0,7.035
-9.0,-8.0,7.036
62.0,4.0,7.037
129.0,0.0,7.038
156.0,10.0,7.039
155.0,19.0,7.04
67.0,23.0,7.041
-12.0,21.0,7.042
-65.0,-4.0,7.043
-105.0,-32.0,7.044
-104.0,-69.0,7.045
-103.0,-98.0,7.046
-103.0,-100.0,7.047
-88.0,-91.0,7.048
-32.0,-41.0,7.049
11.0,-2.0,7.05
15.0,4.0,7.051
23.0,10.0,7.052
44.0,11.0,7.053
56.0,15.0,7.054
39.0,28.0,7.055
27.0,39.0,7.056
33.0,42.0,7.057
47.0,47.0,7.058
66.0,54.0,7.059
49.0,52.0,7.06
25.0,28.0,7.061
19.0,8.0,7.062
21.0,5.0,7.063
8.0,3.0,7.064
-10.0,-19.0,7.065
-15.0,-41.0,7.066
-7.0,-35.0,7.067
-2.0,-16.0,7.068
3.0,-21.0,7.069
4.0,-43.0,7.07
-1.0,-43.0,7.071
-7.0,-7.0,7.072
9.0,30.0,7.073
48.0,42.0,7.074
80.0,42.0,7.075
81.0,45.0,7.076
54.0,50.0,7.077
9.0,42.0,7.078
-31.0,8.0,7.079
-53.0,-12.0,7.08
-56.0,14.0,7.081
-56.0,31.0,7.082
-63.0,11.0,7.083
-59.0,-9.0,7.084
-27.0,-29.0,7.085
18.0,-43.0,7.086
37.0,-29.0,7.087
20.0,-14.0,7.088
1.0,-2.0,7.089
15.0,8.0,7.09
39.0,13.0,7.091
33.0,18.0,7.092
-2.0,25.0,7.093
-26.0,31.0,7.094
-19.0,38.0,7.095
-4.0,38.0,7.096
-2.0,14.0,7.097
-11.0,31.0,7.098
-17.0,8.0,7.099
-24.0,-6.0,7.1
-29.0,12.0,7.101
-27.0,24.0,7.102
-5.0,10.0,7.103
18.0,-3.0,7.104
46.0,-18.0,7.105
67.0,-27.0,7.106
67.0,-18.0,7.107
58.0,-7.0,7.108
24.0,1.0,7.109
0.0,8.0,7.11
10.0,11.0,7.111
10.0,15.0,7.112
-23.0,19.0,7.113
-42.0,24.0,7.114
-20.0,29.0,7.115
-13.0,29.0,7.116
-53.0,12.0,7.117
-88.0,28.0,7.118
-82.0,8.0,7.119
-60.0,-4.0,7.12
-64.0,12.0,7.121
-66.0,22.0,7.122
-27.0,10.0,7.123
20.0,-2.0,7.124
32.0,-14.0,7.125
19.0,-22.0,7.126
21.0,-14.0,7.127
33.0,-5.0,7.128
33.0,2.0,7.129
27.0,8.0,7.13
40.0,11.0,7.131
62.0,14.0,7.132
71.0,18.0,7.133
71.0,22.0,7.134
82.0,26.0,7.135
95.0,26.0,7.136
97.0,12.0,7.137
83.0,-2.0,7.138
54.0,-13.0,7.139
6.0,-25.0,7.14
-50.0,-38.0,7.141
-89.0,-42.0,7.142
-93.0,-46.0,7.143
-80.0,-55.0,7.144
-76.0,-61.0,7.145
-79.0,-47.0,7.146
-73.0,-12.0,7.147
-47.0,24.0,7.148
-10.0,43.0,7.149
22.0,43.0,7.15
45.0,37.0,7.151
68.0,36.0,7.152
101.0,35.0,7.153
126.0,32.0,7.154
115.0,29.0,7.155
66.0,24.0,7.156
21.0,17.0,7.157
2.0,8.0,7.158
1.0,6.0,7.159
-19.0,15.0,7.16
-58.0,12.0,7.161
-86.0,-7.0,7.162
-81.0,-31.0,7.163
-61.0,-42.0,7.164
-55.0,-41.0,7.165
-66.0,-43.0,7.166
-71.0,-48.0,7.167
-49.0,-46.0,7.168
-15.0,-37.0,7.169
3.0,-30.0,7.17
-4.0,-28.0,7.171
-8.0,-17.0,7.172
5.0,4.0,7.173
18.0,24.0,7.174
13.0,27.0,7.175
7.0,26.0,7.176
20.0,32.0,7.177
40.0,34.0,7.178
48.0,26.0,7.179
42.0,15.0,7.18
43.0,15.0,7.181
50.0,22.0,7.182
59.0,20.0,7.183
70.0,6.0,7.184
84.0,0.0,7.185
88.0,0.0,7.186
69.0,-3.0,7.187
32.0,-8.0,7.188
-8.0,-4.0,7.189
-46.0,1.0,7.19
-80.0,-4.0,7.191
-97.0,-16.0,7.192
-86.0,-22.0,7.193
-57.0,-19.0,7.194
-38.0,-22.0,7.195
-27.0,-26.0,7.196
-11.0,-16.0,7.197
15.0,11.0,7.198
35.0,32.0,7.199
36.0,26.0,7.2
33.0,9.0,7.201
47.0,10.0,7.202
76.0,23.0,7.203
87.0,23.0,7.204
72.0,3.0,7.205
47.0,-20.0,7.206
22.0,-36.0,7.207
-18.0,-43.0,7.208
-84.0,-39.0,7.209
-144.0,-28.0,7.21
-151.0,-17.0,7.211
-92.0,-9.0,7.212
-19.0,10.0,7.213
5.0,39.0,7.214
-21.0,51.0,7.215
-37.0,40.0,7.216
-5.0,25.0,7.217
38.0,18.0,7.218
19.0,8.0,7.219
-54.0,-17.0,7.22
-95.0,-42.0,7.221
-56.0,-35.0,7.222
8.0,-8.0,7.223
36.0,7.0,7.224
37.0,0.0,7.225
50.0,-12.0,7.226
81.0,-19.0,7.227
105.0,-18.0,7.228
118.0,-8.0,7.229
126.0,7.0,7.23
114.0,15.0,7.231
70.0,8.0,7.232
5.0,-2.0,7.233
-45.0,-2.0,7.234
-68.0,0.0,7.235
-71.0,-5.0,7.236
-70.0,-11.0,7.237
-75.0,-12.0,7.238
-70.0,-7.0,7.239
-45.0,-3.0,7.24
-5.0,-2.0,7.241
26.0,7.0,7.242
40.0,20.0,7.243
46.0,27.0,7.244
53.0,31.0,7.245
49.0,35.0,7.246
31.0,36.0,7.247
12.0,30.0,7.248
3.0,17.0,7.249
2.0,1.0,7.25
1.0,-15.0,7.251
12.0,-25.0,7.252
26.0,-22.0,7.253
29.0,-8.0,7.254
19.0,2.0,7.255
12.0,1.0,7.256
17.0,-4.0,7.257
15.0,-14.0,7.258
11.0,-27.0,7.259
17.0,-37.0,7.26
55.0,-40.0,7.261
70.0,-28.0,7.262
15.0,-12.0,7.263
-36.0,-1.0,7.264
-72.0,8.0,7.265
-98.0,17.0,7.266
-91.0,16.0,7.267
-85.0,2.0,7.268
-87.0,-10.0,7.269
-81.0,-5.0,7.27
-44.0,11.0,7.271
-4.0,20.0,7.272
45.0,15.0,7.273
96.0,12.0,7.274
153.0,25.0,7.275
196.0,37.0,7.276
199.0,38.0,7.277
181.0,32.0,7.278
50.0,32.0,7.279
-124.0,29.0,7.28
-240.0,-1.0,7.281
-253.0,-47.0,7.282
-213.0,-87.0,7.283
-188.0,-108.0,7.284
-167.0,-115.0,7.285
-109.0,-100.0,7.286
-18.0,-50.0,7.287
55.0,11.0,7.288
83.0,43.0,7.289
86.0,37.0,7.29
89.0,33.0,7.291
96.0,48.0,7.292
101.0,60.0,7.293
96.0,52.0,7.294
71.0,40.0,7.295
27.0,40.0,7.296
-9.0,41.0,7.297
-17.0,29.0,7.298
-2.0,14.0,7.299
13.0,0.0,7.3
25.0,-11.0,7.301
55.0,-25.0,7.302
109.0,-47.0,7.303
155.0,-61.0,7.304
154.0,-50.0,7.305
89.0,-37.0,7.306
-14.0,-23.0,7.307
-116.0,-8.0,7.308
-171.0,5.0,7.309
-171.0,17.0,7.31
-139.0,21.0,7.311
-109.0,25.0,7.312
-81.0,26.0,7.313
-32.0,30.0,7.314
36.0,38.0,7.315
83.0,42.0,7.316
84.0,32.0,7.317
60.0,22.0,7.318
53.0,16.0,7.319
57.0,8.0,7.32
36.0,-16.0,7.321
-6.0,-39.0,7.322
-21.0,-46.0,7.323
1.0,-38.0,7.324
28.0,-31.0,7.325
33.0,-33.0,7.326
32.0,-35.0,7.327
30.0,-28.0,7.328
9.0,-18.0,7.329
-30.0,-10.0,7.33
-48.0,-4.0,7.331
-39.0,5.0,7.332
-26.0,19.0,7.333
-19.0,37.0,7.334
9.0,53.0,7.335
56.0,58.0,7.336
89.0,53.0,7.337
96.0,37.0,7.338
87.0,12.0,7.339
58.0,-9.0,7.34
-1.0,-17.0,7.341
-72.0,-8.0,7.342
-111.0,-2.0,7.343
-114.0,-9.0,7.344
-112.0,-22.0,7.345
-106.0,-28.0,7.346
-71.0,-35.0,7.347
-12.0,-47.0,7.348
37.0,-51.0,7.349
58.0,-30.0,7.35
63.0,3.0,7.351
54.0,19.0,7.352
29.0,14.0,7.353
-10.0,15.0,7.354
-34.0,32.0,7.355
-35.0,42.0,7.356
-30.0,31.0,7.357
-31.0,4.0,7.358
-23.0,-15.0,7.359
-10.0,-19.0,7.36
15.0,-14.0,7.361
39.0,-4.0,7.362
57.0,4.0,7.363
75.0,-2.0,7.364
91.0,-16.0,7.365
102.0,-14.0,7.366
96.0,2.0,7.367
86.0,8.0,7.368
63.0,-5.0,7.369
27.0,-19.0,7.37
-46.0,-25.0,7.371
-83.0,-26.0,7.372
-12.0,-32.0,7.373
34.0,-41.0,7.374
4.0,-48.0,7.375
-35.0,-49.0,7.376
-103.0,-40.0,7.377
-137.0,-18.0,7.378
-29.0,15.0,7.379
54.0,48.0,7.38
22.0,71.0,7.381
-54.0,83.0,7.382
-65.0,88.0,7.383
-19.0,92.0,7.384
-2.0,95.0,7.385
-45.0,76.0,7.386
-103.0,25.0,7.387
-131.0,-30.0,7.388
-103.0,-48.0,7.389
-15.0,-33.0,7.39
97.0,-26.0,7.391
147.0,-38.0,7.392
110.0,-40.0,7.393
63.0,-17.0,7.394
72.0,2.0,7.395
114.0,1.0,7.396
127.0,2.0,7.397
91.0,16.0,7.398
46.0,22.0,7.399
15.0,-3.0,7.4
-7.0,-40.0,7.401
-38.0,-54.0,7.402
-79.0,-44.0,7.403
-119.0,-24.0,7.404
-138.0,-8.0,7.405
-134.0,-4.0,7.406
-121.0,-14.0,7.407
-108.0,-25.0,7.408
-91.0,-16.0,7.409
-64.0,0.0,7.41
-35.0,1.0,7.411
2.0,-4.0,7.412
48.0,12.0,7.413
82.0,38.0,7.414
83.0,33.0,7.415
66.0,-1.0,7.416
64.0,-18.0,7.417
77.0,-4.0,7.418
85.0,11.0,7.419
80.0,7.0,7.42
72.0,0.0,7.421
58.0,9.0,7.422
40.0,20.0,7.423
44.0,18.0,7.424
84.0,19.0,7.425
125.0,33.0,7.426
120.0,41.0,7.427
69.0,33.0,7.428
11.0,25.0,7.429
-30.0,24.0,7.43
-66.0,17.0,7.431
-87.0,-12.0,7.432
-67.0,-52.0,7.433
-7.0,-84.0,7.434
52.0,-85.0,7.435
69.0,-46.0,7.436
41.0,11.0,7.437
-20.0,46.0,7.438
-77.0,37.0,7.439
-97.0,6.0,7.44
-82.0,-11.0,7.441
-79.0,-17.0,7.442
-111.0,-31.0,7.443
-134.0,-41.0,7.444
-95.0,-28.0,7.445
-11.0,-7.0,7.446
41.0,0.0,7.447
24.0,-4.0,7.448
-27.0,2.0,7.449
-61.0,15.0,7.45
-61.0,14.0,7.451
-46.0,-4.0,7.452
-23.0,-27.0,7.453
5.0,-45.0,7.454
42.0,-52.0,7.455
70.0,-38.0,7.456
74.0,-4.0,7.457
47.0,22.0,7.458
16.0,24.0,7.459
2.0,19.0,7.46
9.0,28.0,7.461
28.0,50.0,7.462
55.0,54.0,7.463
76.0,41.0,7.464
71.0,32.0,7.465
38.0,33.0,7.466
17.0,24.0,7.467
52.0,5.0,7.468
127.0,0.0,7.469
174.0,11.0,7.47
140.0,20.0,7.471
38.0,10.0,7.472
-74.0,-3.0,7.473
-153.0,-14.0,7.474
-185.0,-28.0,7.475
-169.0,-42.0,7.476
-133.0,-42.0,7.477
-100.0,-32.0,7.478
-76.0,-24.0,7.479
-43.0,-13.0,7.48
10.0,4.0,7.481
50.0,19.0,7.482
47.0,8.0,7.483
41.0,-12.0,7.484
25.0,-10.0,7.485
20.0,15.0,7.486
48.0,28.0,7.487
68.0,10.0,7.488
66.0,-9.0,7.489
64.0,-14.0,7.49
67.0,-12.0,7.491
79.0,-8.0,7.492
118.0,0.0,7.493
148.0,19.0,7.494
148.0,32.0,7.495
131.0,38.0,7.496
61.0,48.0,7.497
-8.0,57.0,7.498
-85.0,49.0,7.499
-178.0,22.0,7.5
-245.0,-15.0,7.501
-236.0,-36.0,7.502
-162.0,-42.0,7.503
-96.0,-45.0,7.504
-81.0,-47.0,7.505
-87.0,-37.0,7.506
-62.0,-12.0,7.507
-7.0,8.0,7.508
30.0,4.0,7.509
17.0,-19.0,7.51
-23.0,-33.0,7.511
-42.0,-25.0,7.512
-17.0,-8.0,7.513
31.0,2.0,7.514
68.0,9.0,7.515
90.0,20.0,7.516
115.0,30.0,7.517
159.0,30.0,7.518
198.0,29.0,7.519
174.0,26.0,7.52
72.0,20.0,7.521
-57.0,10.0,7.522
-127.0,-10.0,7.523
-121.0,-43.0,7.524
-97.0,-82.0,7.525
-107.0,-107.0,7.526
-115.0,-95.0,7.527
-67.0,-50.0,7.528
11.0,-5.0,7.529
45.0,17.0,7.53
31.0,22.0,7.531
42.0,28.0,7.532
100.0,38.0,7.533
140.0,38.0,7.534
107.0,28.0,7.535
41.0,18.0,7.536
7.0,23.0,7.537
8.0,29.0,7.538
12.0,29.0,7.539
-3.0,24.0,7.54
-20.0,9.0,7.541
-2.0,-3.0,7.542
68.0,-9.0,7.543
146.0,-10.0,7.544
159.0,4.0,7.545
72.0,19.0,7.546
-46.0,35.0,7.547
-105.0,48.0,7.548
-101.0,53.0,7.549
-105.0,47.0,7.55
-153.0,6.0,7.551
-195.0,-35.0,7.552
