Deltoid,Bicep,Time
-2.0,-3.0,0.0
-5.0,-6.0,0.001
-6.0,-5.0,0.002
-2.0,-4.0,0.003
7.0,-5.0,0.004
9.0,-3.0,0.005
4.0,2.0,0.006
0.0,4.0,0.007
0.0,2.0,0.008
2.0,-1.0,0.009
-2.0,0.0,0.01
-6.0,0.0,0.011
-6.0,-3.0,0.012
-3.0,-2.0,0.013
-2.0,0.0,0.014
-3.0,1.0,0.015
-3.0,-1.0,0.016
0.0,-1.0,0.017
1.0,-1.0,0.018
3.0,-1.0,0.019
3.0,-4.0,0.02
1.0,-8.0,0.021
-2.0,-8.0,0.022
0.0,-4.0,0.023
8.0,0.0,0.024
9.0,1.0,0.025
3.0,0.0,0.026
-1.0,-3.0,0.027
3.0,-3.0,0.028
6.0,0.0,0.029
5.0,3.0,0.03
4.0,4.0,0.031
8.0,1.0,0.032
9.0,-2.0,0.033
4.0,-4.0,0.034
2.0,-3.0,0.035
3.0,-1.0,0.036
5.0,0.0,0.037
0.0,-1.0,0.038
-4.0,-1.0,0.039
-3.0,-1.0,0.04
-2.0,-2.0,0.041
-1.0,0.0,0.042
5.0,2.0,0.043
15.0,4.0,0.044
19.0,5.0,0.045
13.0,2.0,0.046
6.0,-2.0,0.047
10.0,-3.0,0.048
14.0,-1.0,0.049
11.0,1.0,0.05
5.0,-1.0,0.051
3.0,-3.0,0.052
3.0,-3.0,0.053
0.0,-1.0,0.054
-4.0,0.0,0.055
-5.0,0.0,0.056
-2.0,0.0,0.057
-1.0,-2.0,0.058
-1.0,0.0,0.059
-3.0,2.0,0.06
-6.0,0.0,0.061
-6.0,-1.0,0.062
-1.0,0.0,0.063
5.0,1.0,0.064
4.0,3.0,0.065
0.0,4.0,0.066
0.0,5.0,0.067
4.0,1.0,0.068
6.0,-2.0,0.069
5.0,-4.0,0.07
4.0,-3.0,0.071
4.0,-2.0,0.072
3.0,-3.0,0.073
1.0,-2.0,0.074
0.0,-1.0,0.075
0.0,-1.0,0.076
0.0,0.0,0.077
-1.0,-2.0,0.078
-2.0,-2.0,0.079
-3.0,-1.0,0.08
-4.0,-3.0,0.081
-4.0,-5.0,0.082
1.0,-4.0,0.083
7.0,0.0,0.084
5.0,5.0,0.085
3.0,6.0,0.086
0.0,2.0,0.087
-2.0,-3.0,0.088
-2.0,-4.0,0.089
-3.0,0.0,0.09
-1.0,0.0,0.091
0.0,-5.0,0.092
0.0,-7.0,0.093
0.0,-6.0,0.094
2.0,-3.0,0.095
4.0,-3.0,0.096
6.0,0.0,0.097
7.0,4.0,0.098
2.0,5.0,0.099
0.0,2.0,0.1
1.0,-3.0,0.101
0.0,-3.0,0.102
1.0,0.0,0.103
9.0,0.0,0.104
15.0,0.0,0.105
11.0,1.0,0.106
10.0,1.0,0.107
13.0,0.0,0.108
13.0,-2.0,0.109
8.0,0.0,0.11
4.0,3.0,0.111
7.0,1.0,0.112
11.0,-2.0,0.113
7.0,-3.0,0.114
3.0,-1.0,0.115
2.0,0.0,0.116
1.0,1.0,0.117
-2.0,0.0,0.118
-3.0,-1.0,0.119
-4.0,-2.0,0.12
-3.0,-7.0,0.121
-1.0,-7.0,0.122
4.0,-3.0,0.123
9.0,0.0,0.124
10.0,-1.0,0.125
10.0,0.0,0.126
6.0,0.0,0.127
2.0,2.0,0.128
0.0,2.0,0.129
-2.0,2.0,0.13
-4.0,2.0,0.131
-7.0,0.0,0.132
-7.0,-3.0,0.133
-7.0,-2.0,0.134
-8.0,1.0,0.135
-9.0,4.0,0.136
-6.0,5.0,0.137
-2.0,2.0,0.138
-2.0,2.0,0.139
-3.0,2.0,0.14
-4.0,0.0,0.141
-3.0,-1.0,0.142
2.0,-1.0,0.143
11.0,0.0,0.144
13.0,2.0,0.145
10.0,4.0,0.146
6.0,3.0,0.147
7.0,2.0,0.148
10.0,1.0,0.149
11.0,0.0,0.15
10.0,-1.0,0.151
9.0,-2.0,0.152
6.0,-4.0,0.153
3.0,-6.0,0.154
3.0,-2.0,0.155
5.0,0.0,0.156
5.0,-1.0,0.157
-2.0,-3.0,0.158
-5.0,-2.0,0.159
-8.0,0.0,0.16
-10.0,-2.0,0.161
-10.0,-4.0,0.162
-6.0,-3.0,0.163
-1.0,0.0,0.164
3.0,0.0,0.165
3.0,2.0,0.166
1.0,2.0,0.167
-2.0,-1.0,0.168
-3.0,-5.0,0.169
0.0,-4.0,0.17
4.0,-1.0,0.171
6.0,0.0,0.172
6.0,-2.0,0.173
8.0,-1.0,0.174
10.0,2.0,0.175
6.0,1.0,0.176
4.0,0.0,0.177
3.0,0.0,0.178
5.0,-2.0,0.179
1.0,-3.0,0.18
-6.0,-4.0,0.181
-6.0,-1.0,0.182
3.0,0.0,0.183
11.0,0.0,0.184
10.0,2.0,0.185
2.0,4.0,0.186
-1.0,3.0,0.187
0.0,0.0,0.188
-1.0,0.0,0.189
-3.0,0.0,0.19
-3.0,-2.0,0.191
1.0,-4.0,0.192
3.0,-3.0,0.193
2.0,0.0,0.194
-1.0,1.0,0.195
-1.0,0.0,0.196
1.0,3.0,0.197
0.0,3.0,0.198
-3.0,1.0,0.199
-5.0,-2.0,0.2
-3.0,-6.0,0.201
0.0,-7.0,0.202
5.0,-6.0,0.203
9.0,-3.0,0.204
10.0,2.0,0.205
9.0,3.0,0.206
7.0,0.0,0.207
7.0,-6.0,0.208
5.0,-7.0,0.209
-1.0,-2.0,0.21
-6.0,0.0,0.211
-6.0,-2.0,0.212
0.0,-2.0,0.213
4.0,0.0,0.214
7.0,0.0,0.215
8.0,-3.0,0.216
8.0,-3.0,0.217
2.0,-3.0,0.218
0.0,-1.0,0.219
-1.0,-2.0,0.22
-1.0,-5.0,0.221
1.0,-3.0,0.222
5.0,1.0,0.223
9.0,3.0,0.224
10.0,3.0,0.225
10.0,2.0,0.226
8.0,1.0,0.227
7.0,-1.0,0.228
10.0,0.0,0.229
12.0,4.0,0.23
9.0,4.0,0.231
7.0,0.0,0.232
6.0,-3.0,0.233
4.0,0.0,0.234
1.0,5.0,0.235
-1.0,6.0,0.236
2.0,6.0,0.237
5.0,4.0,0.238
1.0,4.0,0.239
-4.0,3.0,0.24
-7.0,1.0,0.241
-5.0,0.0,0.242
1.0,1.0,0.243
6.0,3.0,0.244
3.0,4.0,0.245
-2.0,4.0,0.246
-6.0,1.0,0.247
-4.0,-1.0,0.248
-2.0,-2.0,0.249
-3.0,-4.0,0.25
-3.0,-3.0,0.251
0.0,-2.0,0.252
1.0,-1.0,0.253
2.0,0.0,0.254
3.0,-1.0,0.255
6.0,-2.0,0.256
6.0,0.0,0.257
3.0,4.0,0.258
0.0,4.0,0.259
-3.0,3.0,0.26
-5.0,1.0,0.261
-3.0,0.0,0.262
3.0,1.0,0.263
11.0,3.0,0.264
13.0,4.0,0.265
9.0,4.0,0.266
6.0,1.0,0.267
10.0,-1.0,0.268
13.0,-2.0,0.269
9.0,-4.0,0.27
5.0,-3.0,0.271
5.0,-2.0,0.272
8.0,-1.0,0.273
4.0,0.0,0.274
0.0,-1.0,0.275
0.0,-2.0,0.276
4.0,0.0,0.277
4.0,0.0,0.278
1.0,-2.0,0.279
0.0,-5.0,0.28
2.0,-7.0,0.281
3.0,-5.0,0.282
5.0,-1.0,0.283
9.0,0.0,0.284
10.0,3.0,0.285
6.0,5.0,0.286
2.0,3.0,0.287
4.0,-3.0,0.288
8.0,-5.0,0.289
5.0,-1.0,0.29
2.0,0.0,0.291
1.0,-1.0,0.292
-1.0,-3.0,0.293
-7.0,-2.0,0.294
-13.0,-2.0,0.295
-8.0,-2.0,0.296
1.0,0.0,0.297
1.0,3.0,0.298
-4.0,-1.0,0.299
-10.0,-6.0,0.3
-10.0,-8.0,0.301
-9.0,-5.0,0.302
0.0,-3.0,0.303
7.0,-4.0,0.304
7.0,-3.0,0.305
7.0,2.0,0.306
7.0,2.0,0.307
5.0,-1.0,0.308
3.0,-3.0,0.309
1.0,-3.0,0.31
0.0,-5.0,0.311
-1.0,-6.0,0.312
0.0,-4.0,0.313
1.0,0.0,0.314
1.0,2.0,0.315
0.0,1.0,0.316
1.0,1.0,0.317
1.0,1.0,0.318
-3.0,1.0,0.319
-1.0,1.0,0.32
2.0,0.0,0.321
1.0,-3.0,0.322
1.0,-3.0,0.323
9.0,-3.0,0.324
14.0,2.0,0.325
9.0,6.0,0.326
4.0,2.0,0.327
4.0,-2.0,0.328
7.0,0.0,0.329
7.0,1.0,0.33
7.0,2.0,0.331
9.0,3.0,0.332
10.0,0.0,0.333
4.0,-3.0,0.334
1.0,-3.0,0.335
2.0,-1.0,0.336
7.0,0.0,0.337
8.0,2.0,0.338
5.0,1.0,0.339
1.0,-1.0,0.34
0.0,-4.0,0.341
4.0,-4.0,0.342
14.0,-4.0,0.343
23.0,-1.0,0.344
20.0,3.0,0.345
13.0,5.0,0.346
10.0,4.0,0.347
12.0,0.0,0.348
13.0,-2.0,0.349
6.0,-2.0,0.35
-2.0,0.0,0.351
-4.0,2.0,0.352
-3.0,3.0,0.353
0.0,2.0,0.354
1.0,0.0,0.355
0.0,-2.0,0.356
-4.0,1.0,0.357
-9.0,2.0,0.358
-8.0,0.0,0.359
-7.0,-1.0,0.36
-8.0,-5.0,0.361
-8.0,-7.0,0.362
-2.0,-4.0,0.363
1.0,-1.0,0.364
0.0,-1.0,0.365
-2.0,0.0,0.366
-1.0,0.0,0.367
0.0,0.0,0.368
0.0,0.0,0.369
0.0,1.0,0.37
-1.0,1.0,0.371
-2.0,1.0,0.372
-4.0,0.0,0.373
-5.0,-2.0,0.374
-3.0,0.0,0.375
-2.0,1.0,0.376
-2.0,2.0,0.377
-2.0,3.0,0.378
-6.0,0.0,0.379
-7.0,-1.0,0.38
-7.0,-1.0,0.381
-6.0,1.0,0.382
0.0,1.0,0.383
10.0,-1.0,0.384
14.0,1.0,0.385
11.0,7.0,0.386
8.0,7.0,0.387
6.0,1.0,0.388
6.0,-2.0,0.389
4.0,0.0,0.39
6.0,3.0,0.391
11.0,-1.0,0.392
9.0,-7.0,0.393
2.0,-7.0,0.394
-1.0,-5.0,0.395
2.0,-2.0,0.396
7.0,-1.0,0.397
5.0,-2.0,0.398
1.0,-2.0,0.399
-3.0,-4.0,0.4
-4.0,-6.0,0.401
-3.0,-2.0,0.402
2.0,1.0,0.403
5.0,-1.0,0.404
5.0,-3.0,0.405
2.0,-1.0,0.406
3.0,1.0,0.407
8.0,1.0,0.408
9.0,-2.0,0.409
4.0,-2.0,0.41
-1.0,1.0,0.411
-3.0,3.0,0.412
-2.0,1.0,0.413
-2.0,0.0,0.414
-4.0,-2.0,0.415
-5.0,-1.0,0.416
-4.0,1.0,0.417
-4.0,0.0,0.418
-2.0,-1.0,0.419
-1.0,-1.0,0.42
-2.0,-5.0,0.421
-2.0,-5.0,0.422
5.0,-4.0,0.423
15.0,-1.0,0.424
18.0,3.0,0.425
11.0,5.0,0.426
5.0,5.0,0.427
8.0,4.0,0.428
11.0,2.0,0.429
7.0,1.0,0.43
3.0,0.0,0.431
2.0,-1.0,0.432
2.0,0.0,0.433
-1.0,0.0,0.434
-1.0,0.0,0.435
2.0,-1.0,0.436
6.0,1.0,0.437
4.0,1.0,0.438
1.0,-1.0,0.439
0.0,-2.0,0.44
0.0,-3.0,0.441
2.0,0.0,0.442
8.0,2.0,0.443
15.0,3.0,0.444
13.0,5.0,0.445
6.0,7.0,0.446
2.0,4.0,0.447
6.0,-1.0,0.448
7.0,-3.0,0.449
3.0,0.0,0.45
1.0,1.0,0.451
3.0,-2.0,0.452
3.0,-2.0,0.453
0.0,1.0,0.454
0.0,3.0,0.455
1.0,0.0,0.456
2.0,-2.0,0.457
0.0,-1.0,0.458
-1.0,-1.0,0.459
0.0,-4.0,0.46
-1.0,-9.0,0.461
-4.0,-8.0,0.462
0.0,-6.0,0.463
9.0,-4.0,0.464
14.0,-3.0,0.465
10.0,1.0,0.466
7.0,2.0,0.467
9.0,0.0,0.468
11.0,-4.0,0.469
7.0,-3.0,0.47
2.0,0.0,0.471
0.0,0.0,0.472
0.0,-2.0,0.473
-2.0,-1.0,0.474
-2.0,1.0,0.475
2.0,1.0,0.476
6.0,0.0,0.477
2.0,-1.0,0.478
0.0,-2.0,0.479
-3.0,-5.0,0.48
-2.0,-8.0,0.481
0.0,-9.0,0.482
3.0,-6.0,0.483
9.0,-2.0,0.484
11.0,1.0,0.485
7.0,4.0,0.486
3.0,3.0,0.487
0.0,-1.0,0.488
-3.0,-4.0,0.489
-4.0,-3.0,0.49
-2.0,-1.0,0.491
0.0,0.0,0.492
0.0,-1.0,0.493
-1.0,2.0,0.494
2.0,4.0,0.495
3.0,4.0,0.496
2.0,5.0,0.497
-3.0,6.0,0.498
-4.0,4.0,0.499
-3.0,0.0,0.5
-4.0,-8.0,0.501
-5.0,-8.0,0.502
1.0,-6.0,0.503
9.0,-5.0,0.504
8.0,-3.0,0.505
1.0,-1.0,0.506
-1.0,1.0,0.507
3.0,0.0,0.508
7.0,-2.0,0.509
5.0,-3.0,0.51
5.0,-2.0,0.511
8.0,-1.0,0.512
10.0,-1.0,0.513
9.0,0.0,0.514
6.0,3.0,0.515
8.0,5.0,0.516
12.0,4.0,0.517
12.0,-1.0,0.518
8.0,-4.0,0.519
2.0,-3.0,0.52
-3.0,-2.0,0.521
-4.0,0.0,0.522
-1.0,0.0,0.523
5.0,-2.0,0.524
6.0,0.0,0.525
1.0,4.0,0.526
-3.0,4.0,0.527
0.0,1.0,0.528
6.0,-2.0,0.529
4.0,-2.0,0.53
0.0,-1.0,0.531
-1.0,0.0,0.532
0.0,0.0,0.533
0.0,0.0,0.534
-2.0,-1.0,0.535
-2.0,0.0,0.536
2.0,3.0,0.537
3.0,4.0,0.538
1.0,4.0,0.539
-1.0,3.0,0.54
-2.0,0.0,0.541
-2.0,0.0,0.542
2.0,-2.0,0.543
6.0,-4.0,0.544
6.0,-1.0,0.545
6.0,3.0,0.546
6.0,2.0,0.547
6.0,-2.0,0.548
4.0,-3.0,0.549
3.0,-1.0,0.55
1.0,-1.0,0.551
0.0,-1.0,0.552
0.0,0.0,0.553
1.0,1.0,0.554
3.0,0.0,0.555
6.0,-2.0,0.556
8.0,-1.0,0.557
9.0,-1.0,0.558
5.0,-1.0,0.559
0.0,-1.0,0.56
-3.0,-3.0,0.561
-1.0,-3.0,0.562
5.0,-4.0,0.563
10.0,-4.0,0.564
9.0,-4.0,0.565
5.0,-3.0,0.566
4.0,-2.0,0.567
7.0,-1.0,0.568
6.0,0.0,0.569
2.0,1.0,0.57
3.0,1.0,0.571
7.0,0.0,0.572
8.0,0.0,0.573
1.0,0.0,0.574
-5.0,-1.0,0.575
-11.0,-3.0,0.576
-14.0,-2.0,0.577
-15.0,-2.0,0.578
-15.0,-1.0,0.579
-17.0,-1.0,0.58
-21.0,-7.0,0.581
-23.0,-9.0,0.582
-14.0,-6.0,0.583
-4.0,-2.0,0.584
0.0,0.0,0.585
-2.0,0.0,0.586
-4.0,-2.0,0.587
-1.0,0.0,0.588
1.0,3.0,0.589
2.0,2.0,0.59
4.0,0.0,0.591
4.0,-2.0,0.592
1.0,-2.0,0.593
0.0,0.0,0.594
0.0,1.0,0.595
5.0,0.0,0.596
8.0,-2.0,0.597
4.0,-2.0,0.598
1.0,-1.0,0.599
0.0,0.0,0.6
1.0,-3.0,0.601
2.0,-3.0,0.602
6.0,-1.0,0.603
11.0,0.0,0.604
13.0,4.0,0.605
11.0,7.0,0.606
9.0,6.0,0.607
8.0,1.0,0.608
11.0,-1.0,0.609
11.0,1.0,0.61
8.0,2.0,0.611
8.0,-3.0,0.612
11.0,-3.0,0.613
11.0,1.0,0.614
8.0,3.0,0.615
4.0,-1.0,0.616
6.0,-2.0,0.617
4.0,1.0,0.618
2.0,5.0,0.619
1.0,3.0,0.62
0.0,-3.0,0.621
0.0,-2.0,0.622
5.0,2.0,0.623
11.0,4.0,0.624
12.0,3.0,0.625
11.0,5.0,0.626
5.0,3.0,0.627
0.0,-4.0,0.628
1.0,-9.0,0.629
1.0,-6.0,0.63
0.0,-1.0,0.631
-3.0,0.0,0.632
-1.0,-1.0,0.633
0.0,-1.0,0.634
-1.0,-1.0,0.635
-1.0,-1.0,0.636
0.0,0.0,0.637
2.0,0.0,0.638
-1.0,-1.0,0.639
-9.0,-5.0,0.64
-12.0,-8.0,0.641
-6.0,-7.0,0.642
0.0,-7.0,0.643
5.0,-6.0,0.644
3.0,-3.0,0.645
0.0,0.0,0.646
-1.0,2.0,0.647
1.0,1.0,0.648
2.0,0.0,0.649
-1.0,1.0,0.65
-5.0,0.0,0.651
-5.0,-1.0,0.652
0.0,1.0,0.653
6.0,4.0,0.654
7.0,5.0,0.655
5.0,2.0,0.656
5.0,0.0,0.657
6.0,-2.0,0.658
6.0,0.0,0.659
3.0,1.0,0.66
2.0,-2.0,0.661
2.0,-5.0,0.662
7.0,-4.0,0.663
13.0,-1.0,0.664
14.0,2.0,0.665
12.0,1.0,0.666
6.0,0.0,0.667
3.0,1.0,0.668
3.0,2.0,0.669
3.0,2.0,0.67
1.0,1.0,0.671
0.0,2.0,0.672
0.0,3.0,0.673
0.0,2.0,0.674
-1.0,0.0,0.675
0.0,0.0,0.676
4.0,0.0,0.677
6.0,0.0,0.678
6.0,-1.0,0.679
2.0,-1.0,0.68
1.0,-5.0,0.681
4.0,-7.0,0.682
8.0,-6.0,0.683
9.0,-4.0,0.684
7.0,-1.0,0.685
5.0,0.0,0.686
8.0,-1.0,0.687
11.0,-2.0,0.688
10.0,-3.0,0.689
5.0,-5.0,0.69
2.0,-6.0,0.691
2.0,-7.0,0.692
1.0,-4.0,0.693
1.0,-2.0,0.694
1.0,-4.0,0.695
3.0,-6.0,0.696
5.0,-4.0,0.697
0.0,-2.0,0.698
-1.0,-1.0,0.699
-4.0,-4.0,0.7
-6.0,-5.0,0.701
-7.0,-2.0,0.702
-3.0,2.0,0.703
0.0,2.0,0.704
-1.0,0.0,0.705
-3.0,0.0,0.706
-1.0,0.0,0.707
2.0,-1.0,0.708
3.0,-1.0,0.709
1.0,-1.0,0.71
-1.0,3.0,0.711
-2.0,5.0,0.712
-3.0,4.0,0.713
-4.0,1.0,0.714
-4.0,-2.0,0.715
-2.0,-1.0,0.716
0.0,2.0,0.717
-1.0,0.0,0.718
-2.0,0.0,0.719
-2.0,0.0,0.72
1.0,-5.0,0.721
3.0,-5.0,0.722
7.0,-4.0,0.723
10.0,-2.0,0.724
12.0,-1.0,0.725
9.0,-1.0,0.726
5.0,-1.0,0.727
6.0,-2.0,0.728
7.0,-2.0,0.729
6.0,-4.0,0.73
4.0,-4.0,0.731
2.0,-2.0,0.732
3.0,0.0,0.733
1.0,0.0,0.734
-1.0,-1.0,0.735
-2.0,-4.0,0.736
0.0,-4.0,0.737
2.0,-3.0,0.738
3.0,-1.0,0.739
3.0,0.0,0.74
2.0,-4.0,0.741
0.0,-6.0,0.742
3.0,-3.0,0.743
12.0,0.0,0.744
14.0,2.0,0.745
5.0,3.0,0.746
-1.0,0.0,0.747
1.0,0.0,0.748
8.0,0.0,0.749
7.0,1.0,0.75
3.0,1.0,0.751
1.0,1.0,0.752
3.0,2.0,0.753
2.0,3.0,0.754
1.0,1.0,0.755
5.0,1.0,0.756
11.0,4.0,0.757
7.0,6.0,0.758
-1.0,3.0,0.759
-4.0,-3.0,0.76
-3.0,-12.0,0.761
0.0,-10.0,0.762
5.0,-2.0,0.763
13.0,2.0,0.764
13.0,2.0,0.765
3.0,2.0,0.766
-5.0,4.0,0.767
-3.0,3.0,0.768
1.0,1.0,0.769
1.0,0.0,0.77
-2.0,1.0,0.771
-3.0,-1.0,0.772
-3.0,-1.0,0.773
-4.0,0.0,0.774
-8.0,0.0,0.775
-7.0,-1.0,0.776
-5.0,0.0,0.777
-5.0,-1.0,0.778
-6.0,-1.0,0.779
-5.0,-1.0,0.78
-5.0,-3.0,0.781
-6.0,-3.0,0.782
-4.0,-3.0,0.783
2.0,-2.0,0.784
6.0,1.0,0.785
2.0,3.0,0.786
1.0,2.0,0.787
6.0,-1.0,0.788
10.0,-1.0,0.789
6.0,3.0,0.79
2.0,5.0,0.791
3.0,5.0,0.792
7.0,3.0,0.793
6.0,3.0,0.794
7.0,3.0,0.795
9.0,1.0,0.796
10.0,0.0,0.797
4.0,-2.0,0.798
0.0,-2.0,0.799
-3.0,-3.0,0.8
-8.0,-6.0,0.801
-8.0,-5.0,0.802
0.0,-5.0,0.803
11.0,-7.0,0.804
11.0,-4.0,0.805
2.0,-2.0,0.806
0.0,0.0,0.807
8.0,-2.0,0.808
14.0,-3.0,0.809
11.0,-2.0,0.81
5.0,0.0,0.811
4.0,1.0,0.812
4.0,2.0,0.813
3.0,1.0,0.814
5.0,0.0,0.815
8.0,0.0,0.816
8.0,1.0,0.817
4.0,0.0,0.818
2.0,-1.0,0.819
0.0,-2.0,0.82
-4.0,-6.0,0.821
-4.0,-6.0,0.822
1.0,-6.0,0.823
11.0,-3.0,0.824
12.0,1.0,0.825
8.0,5.0,0.826
6.0,6.0,0.827
8.0,2.0,0.828
6.0,-2.0,0.829
2.0,-4.0,0.83
2.0,-2.0,0.831
7.0,0.0,0.832
10.0,0.0,0.833
5.0,0.0,0.834
-1.0,0.0,0.835
-1.0,2.0,0.836
2.0,5.0,0.837
1.0,4.0,0.838
-3.0,1.0,0.839
-7.0,-1.0,0.84
-8.0,-2.0,0.841
-7.0,-2.0,0.842
1.0,-2.0,0.843
5.0,-4.0,0.844
0.0,-3.0,0.845
-5.0,-1.0,0.846
-4.0,-1.0,0.847
-2.0,-2.0,0.848
0.0,-2.0,0.849
2.0,0.0,0.85
0.0,2.0,0.851
-1.0,0.0,0.852
-1.0,0.0,0.853
0.0,0.0,0.854
0.0,-2.0,0.855
1.0,-2.0,0.856
1.0,0.0,0.857
3.0,1.0,0.858
3.0,3.0,0.859
0.0,4.0,0.86
-6.0,0.0,0.861
-8.0,-4.0,0.862
0.0,-4.0,0.863
13.0,-3.0,0.864
15.0,-1.0,0.865
10.0,0.0,0.866
6.0,0.0,0.867
8.0,-1.0,0.868
8.0,-1.0,0.869
6.0,-1.0,0.87
6.0,-1.0,0.871
8.0,0.0,0.872
7.0,3.0,0.873
1.0,5.0,0.874
-2.0,3.0,0.875
2.0,0.0,0.876
6.0,-1.0,0.877
6.0,-3.0,0.878
4.0,-3.0,0.879
2.0,-2.0,0.88
-1.0,-4.0,0.881
-2.0,-3.0,0.882
4.0,-1.0,0.883
13.0,1.0,0.884
13.0,2.0,0.885
4.0,1.0,0.886
0.0,1.0,0.887
3.0,1.0,0.888
9.0,2.0,0.889
6.0,1.0,0.89
0.0,-1.0,0.891
-3.0,-2.0,0.892
-3.0,-1.0,0.893
-3.0,0.0,0.894
-5.0,0.0,0.895
-5.0,-2.0,0.896
-1.0,1.0,0.897
0.0,2.0,0.898
-1.0,0.0,0.899
-7.0,-4.0,0.9
-11.0,-9.0,0.901
-8.0,-8.0,0.902
3.0,-3.0,0.903
10.0,-2.0,0.904
6.0,-2.0,0.905
-2.0,-2.0,0.906
-6.0,-1.0,0.907
-6.0,-4.0,0.908
-6.0,-4.0,0.909
-7.0,-2.0,0.91
-5.0,0.0,0.911
-4.0,0.0,0.912
-4.0,1.0,0.913
-8.0,6.0,0.914
-7.0,5.0,0.915
-4.0,0.0,0.916
0.0,-4.0,0.917
-1.0,0.0,0.918
0.0,6.0,0.919
2.0,4.0,0.92
3.0,-4.0,0.921
2.0,-6.0,0.922
4.0,-1.0,0.923
12.0,0.0,0.924
16.0,-1.0,0.925
12.0,-2.0,0.926
9.0,0.0,0.927
11.0,2.0,0.928
13.0,1.0,0.929
8.0,0.0,0.93
3.0,1.0,0.931
5.0,0.0,0.932
10.0,0.0,0.933
12.0,0.0,0.934
12.0,0.0,0.935
11.0,0.0,0.936
11.0,0.0,0.937
7.0,-1.0,0.938
4.0,-1.0,0.939
1.0,-2.0,0.94
0.0,-6.0,0.941
3.0,-5.0,0.942
10.0,0.0,0.943
16.0,4.0,0.944
14.0,2.0,0.945
8.0,2.0,0.946
5.0,1.0,0.947
7.0,-1.0,0.948
6.0,-4.0,0.949
2.0,-3.0,0.95
0.0,-1.0,0.951
-1.0,0.0,0.952
-6.0,-2.0,0.953
-12.0,-1.0,0.954
-10.0,1.0,0.955
-6.0,1.0,0.956
-2.0,2.0,0.957
-2.0,2.0,0.958
0.0,2.0,0.959
4.0,0.0,0.96
9.0,-5.0,0.961
14.0,-1.0,0.962
15.0,2.0,0.963
15.0,1.0,0.964
5.0,-1.0,0.965
-2.0,0.0,0.966
-2.0,3.0,0.967
-1.0,1.0,0.968
0.0,-1.0,0.969
1.0,0.0,0.97
3.0,1.0,0.971
4.0,0.0,0.972
2.0,-3.0,0.973
0.0,-2.0,0.974
-1.0,-1.0,0.975
-3.0,0.0,0.976
-3.0,0.0,0.977
0.0,0.0,0.978
1.0,-3.0,0.979
0.0,-7.0,0.98
0.0,-9.0,0.981
0.0,-7.0,0.982
7.0,-2.0,0.983
14.0,0.0,0.984
13.0,3.0,0.985
8.0,3.0,0.986
5.0,2.0,0.987
7.0,-1.0,0.988
9.0,-3.0,0.989
5.0,-3.0,0.99
0.0,0.0,0.991
0.0,0.0,0.992
1.0,-1.0,0.993
3.0,-3.0,0.994
2.0,-4.0,0.995
4.0,-1.0,0.996
8.0,3.0,0.997
4.0,3.0,0.998
-1.0,1.0,0.999
-6.0,-2.0,1.0
-7.0,-5.0,1.001
-4.0,-3.0,1.002
2.0,0.0,1.003
10.0,0.0,1.004
12.0,0.0,1.005
5.0,2.0,1.006
0.0,4.0,1.007
2.0,4.0,1.008
7.0,2.0,1.009
6.0,0.0,1.01
5.0,0.0,1.011
11.0,-1.0,1.012
17.0,-2.0,1.013
14.0,-2.0,1.014
5.0,-3.0,1.015
-2.0,-4.0,1.016
-3.0,-1.0,1.017
7.0,-1.0,1.018
1.0,0.0,1.019
-5.0,-2.0,1.02
-1.0,-6.0,1.021
5.0,-4.0,1.022
15.0,-2.0,1.023
21.0,0.0,1.024
17.0,1.0,1.025
13.0,2.0,1.026
3.0,4.0,1.027
-1.0,3.0,1.028
1.0,0.0,1.029
3.0,-1.0,1.03
1.0,0.0,1.031
-3.0,2.0,1.032
-5.0,2.0,1.033
-7.0,2.0,1.034
-7.0,1.0,1.035
-7.0,-1.0,1.036
-3.0,-2.0,1.037
5.0,-4.0,1.038
1.0,-4.0,1.039
-2.0,-3.0,1.04
0.0,-7.0,1.041
4.0,-6.0,1.042
9.0,-4.0,1.043
12.0,-2.0,1.044
10.0,-1.0,1.045
8.0,-1.0,1.046
3.0,0.0,1.047
0.0,0.0,1.048
1.0,-2.0,1.049
3.0,0.0,1.05
1.0,3.0,1.051
-1.0,2.0,1.052
-2.0,0.0,1.053
-3.0,-1.0,1.054
-3.0,0.0,1.055
-3.0,0.0,1.056
-1.0,0.0,1.057
1.0,0.0,1.058
-1.0,0.0,1.059
-3.0,-1.0,1.06
-4.0,-3.0,1.061
-3.0,-5.0,1.062
1.0,-3.0,1.063
8.0,-1.0,1.064
10.0,-1.0,1.065
5.0,0.0,1.066
0.0,-1.0,1.067
0.0,-2.0,1.068
2.0,-4.0,1.069
1.0,-6.0,1.07
1.0,-4.0,1.071
3.0,-2.0,1.072
7.0,0.0,1.073
10.0,2.0,1.074
12.0,-1.0,1.075
12.0,-3.0,1.076
10.0,-1.0,1.077
2.0,1.0,1.078
0.0,1.0,1.079
-2.0,-1.0,1.08
-1.0,-5.0,1.081
0.0,-7.0,1.082
1.0,-5.0,1.083
4.0,-2.0,1.084
5.0,2.0,1.085
2.0,2.0,1.086
1.0,0.0,1.087
6.0,-3.0,1.088
10.0,-2.0,1.089
8.0,0.0,1.09
4.0,0.0,1.091
2.0,-1.0,1.092
2.0,0.0,1.093
0.0,1.0,1.094
-3.0,-1.0,1.095
0.0,-2.0,1.096
5.0,1.0,1.097
7.0,2.0,1.098
3.0,1.0,1.099
-3.0,-1.0,1.1
-5.0,-2.0,1.101
-2.0,0.0,1.102
7.0,2.0,1.103
16.0,2.0,1.104
16.0,4.0,1.105
10.0,6.0,1.106
5.0,3.0,1.107
6.0,-1.0,1.108
7.0,-5.0,1.109
3.0,-4.0,1.11
1.0,-1.0,1.111
3.0,0.0,1.112
6.0,-2.0,1.113
4.0,-3.0,1.114
0.0,-3.0,1.115
0.0,-3.0,1.116
5.0,0.0,1.117
9.0,-1.0,1.118
14.0,-1.0,1.119
11.0,-3.0,1.12
3.0,-6.0,1.121
-4.0,-3.0,1.122
-5.0,2.0,1.123
-3.0,3.0,1.124
-4.0,2.0,1.125
-10.0,3.0,1.126
-14.0,3.0,1.127
-11.0,4.0,1.128
-9.0,3.0,1.129
-11.0,5.0,1.13
-10.0,4.0,1.131
-5.0,0.0,1.132
-3.0,-3.0,1.133
-5.0,0.0,1.134
-5.0,2.0,1.135
1.0,1.0,1.136
8.0,2.0,1.137
11.0,2.0,1.138
11.0,2.0,1.139
10.0,0.0,1.14
8.0,-5.0,1.141
8.0,-5.0,1.142
14.0,-2.0,1.143
19.0,0.0,1.144
21.0,3.0,1.145
23.0,2.0,1.146
21.0,-1.0,1.147
18.0,-4.0,1.148
16.0,-5.0,1.149
14.0,0.0,1.15
17.0,1.0,1.151
19.0,-3.0,1.152
16.0,-6.0,1.153
13.0,-6.0,1.154
12.0,-5.0,1.155
11.0,-3.0,1.156
12.0,1.0,1.157
12.0,2.0,1.158
8.0,0.0,1.159
1.0,-3.0,1.16
-14.0,-5.0,1.161
-33.0,-7.0,1.162
-41.0,-4.0,1.163
-37.0,-2.0,1.164
-36.0,0.0,1.165
-42.0,1.0,1.166
-41.0,1.0,1.167
-26.0,0.0,1.168
-14.0,1.0,1.169
-12.0,3.0,1.17
-7.0,4.0,1.171
4.0,5.0,1.172
14.0,4.0,1.173
12.0,3.0,1.174
10.0,1.0,1.175
14.0,0.0,1.176
14.0,-1.0,1.177
9.0,-3.0,1.178
1.0,-3.0,1.179
-3.0,-2.0,1.18
-5.0,-2.0,1.181
-10.0,-1.0,1.182
-7.0,-3.0,1.183
6.0,-3.0,1.184
18.0,-1.0,1.185
20.0,3.0,1.186
18.0,3.0,1.187
21.0,1.0,1.188
29.0,-1.0,1.189
32.0,-1.0,1.19
28.0,-2.0,1.191
22.0,-4.0,1.192
11.0,-4.0,1.193
0.0,-1.0,1.194
-4.0,1.0,1.195
-1.0,0.0,1.196
-1.0,0.0,1.197
-6.0,0.0,1.198
-2.0,-1.0,1.199
7.0,-2.0,1.2
12.0,-5.0,1.201
9.0,-2.0,1.202
5.0,0.0,1.203
3.0,1.0,1.204
-2.0,0.0,1.205
-13.0,-1.0,1.206
-20.0,-1.0,1.207
-21.0,-1.0,1.208
-20.0,-3.0,1.209
-21.0,-1.0,1.21
-24.0,1.0,1.211
-24.0,1.0,1.212
-19.0,0.0,1.213
-8.0,-1.0,1.214
6.0,-2.0,1.215
15.0,-2.0,1.216
15.0,0.0,1.217
8.0,0.0,1.218
8.0,-1.0,1.219
10.0,-3.0,1.22
9.0,-4.0,1.221
13.0,-2.0,1.222
22.0,0.0,1.223
30.0,-2.0,1.224
28.0,-2.0,1.225
22.0,0.0,1.226
19.0,-2.0,1.227
19.0,-4.0,1.228
19.0,-4.0,1.229
15.0,0.0,1.23
9.0,2.0,1.231
-2.0,0.0,1.232
-19.0,2.0,1.233
-29.0,7.0,1.234
-24.0,7.0,1.235
-11.0,2.0,1.236
0.0,2.0,1.237
-1.0,6.0,1.238
-6.0,5.0,1.239
-14.0,-2.0,1.24
-15.0,-9.0,1.241
-7.0,-7.0,1.242
6.0,-2.0,1.243
17.0,0.0,1.244
15.0,0.0,1.245
9.0,1.0,1.246
6.0,-1.0,1.247
8.0,-6.0,1.248
7.0,-6.0,1.249
7.0,-4.0,1.25
9.0,0.0,1.251
9.0,0.0,1.252
6.0,-1.0,1.253
1.0,0.0,1.254
1.0,1.0,1.255
3.0,3.0,1.256
0.0,2.0,1.257
-3.0,-1.0,1.258
-3.0,-4.0,1.259
-1.0,-3.0,1.26
-2.0,-2.0,1.261
-3.0,-3.0,1.262
4.0,-5.0,1.263
13.0,-3.0,1.264
10.0,2.0,1.265
-1.0,4.0,1.266
-9.0,1.0,1.267
-9.0,-1.0,1.268
-5.0,0.0,1.269
-3.0,1.0,1.27
0.0,-2.0,1.271
5.0,-3.0,1.272
7.0,-1.0,1.273
4.0,-1.0,1.274
1.0,-2.0,1.275
4.0,-3.0,1.276
9.0,0.0,1.277
8.0,2.0,1.278
3.0,0.0,1.279
-1.0,-2.0,1.28
-2.0,-4.0,1.281
0.0,-2.0,1.282
5.0,0.0,1.283
12.0,3.0,1.284
17.0,3.0,1.285
17.0,1.0,1.286
15.0,0.0,1.287
14.0,0.0,1.288
12.0,2.0,1.289
13.0,1.0,1.29
12.0,-1.0,1.291
9.0,-1.0,1.292
1.0,1.0,1.293
-5.0,1.0,1.294
-6.0,-1.0,1.295
0.0,-2.0,1.296
11.0,1.0,1.297
17.0,3.0,1.298
18.0,2.0,1.299
12.0,0.0,1.3
0.0,-3.0,1.301
-11.0,-1.0,1.302
-13.0,-1.0,1.303
-6.0,-1.0,1.304
0.0,-1.0,1.305
-3.0,1.0,1.306
-7.0,1.0,1.307
-4.0,-3.0,1.308
4.0,-5.0,1.309
8.0,-5.0,1.31
3.0,-2.0,1.311
2.0,-2.0,1.312
5.0,-2.0,1.313
2.0,-1.0,1.314
-5.0,0.0,1.315
-9.0,3.0,1.316
-3.0,5.0,1.317
-1.0,1.0,1.318
-2.0,-2.0,1.319
-4.0,-4.0,1.32
-2.0,-5.0,1.321
0.0,-3.0,1.322
5.0,-2.0,1.323
8.0,-2.0,1.324
6.0,0.0,1.325
4.0,3.0,1.326
4.0,5.0,1.327
3.0,3.0,1.328
3.0,0.0,1.329
4.0,-1.0,1.33
6.0,1.0,1.331
8.0,0.0,1.332
8.0,-2.0,1.333
7.0,-4.0,1.334
4.0,-4.0,1.335
1.0,-2.0,1.336
1.0,0.0,1.337
2.0,-3.0,1.338
0.0,-5.0,1.339
-3.0,-3.0,1.34
-5.0,-3.0,1.341
-2.0,-3.0,1.342
8.0,-5.0,1.343
19.0,-4.0,1.344
17.0,-1.0,1.345
6.0,0.0,1.346
-3.0,-1.0,1.347
-4.0,-3.0,1.348
-4.0,-3.0,1.349
-6.0,-1.0,1.35
-5.0,0.0,1.351
0.0,0.0,1.352
3.0,0.0,1.353
0.0,2.0,1.354
-2.0,3.0,1.355
2.0,1.0,1.356
11.0,0.0,1.357
11.0,-1.0,1.358
8.0,0.0,1.359
3.0,2.0,1.36
-1.0,-4.0,1.361
-9.0,-5.0,1.362
-14.0,-1.0,1.363
-9.0,1.0,1.364
0.0,2.0,1.365
4.0,2.0,1.366
2.0,3.0,1.367
3.0,4.0,1.368
9.0,2.0,1.369
13.0,1.0,1.37
9.0,3.0,1.371
1.0,3.0,1.372
0.0,-1.0,1.373
1.0,-3.0,1.374
0.0,1.0,1.375
0.0,3.0,1.376
4.0,1.0,1.377
7.0,-5.0,1.378
4.0,-7.0,1.379
-1.0,-5.0,1.38
-2.0,-6.0,1.381
1.0,-6.0,1.382
9.0,-3.0,1.383
16.0,0.0,1.384
19.0,1.0,1.385
14.0,3.0,1.386
6.0,2.0,1.387
3.0,-1.0,1.388
3.0,-5.0,1.389
2.0,-4.0,1.39
-2.0,-2.0,1.391
-1.0,-2.0,1.392
1.0,-4.0,1.393
0.0,-5.0,1.394
-2.0,-4.0,1.395
0.0,-1.0,1.396
5.0,2.0,1.397
5.0,1.0,1.398
1.0,0.0,1.399
-3.0,-1.0,1.4
-6.0,-4.0,1.401
-10.0,-5.0,1.402
-9.0,-4.0,1.403
-1.0,-2.0,1.404
7.0,1.0,1.405
9.0,4.0,1.406
5.0,4.0,1.407
8.0,3.0,1.408
13.0,2.0,1.409
14.0,2.0,1.41
11.0,2.0,1.411
9.0,2.0,1.412
6.0,3.0,1.413
0.0,2.0,1.414
-3.0,-1.0,1.415
0.0,-3.0,1.416
2.0,-3.0,1.417
-1.0,-4.0,1.418
-3.0,-5.0,1.419
-4.0,-5.0,1.42
-4.0,-6.0,1.421
-5.0,-4.0,1.422
-1.0,-5.0,1.423
7.0,-6.0,1.424
10.0,-3.0,1.425
4.0,-1.0,1.426
-1.0,1.0,1.427
1.0,0.0,1.428
8.0,0.0,1.429
9.0,2.0,1.43
7.0,3.0,1.431
6.0,3.0,1.432
3.0,3.0,1.433
-2.0,3.0,1.434
-3.0,2.0,1.435
3.0,0.0,1.436
12.0,-2.0,1.437
13.0,-2.0,1.438
11.0,-1.0,1.439
10.0,-2.0,1.44
8.0,-7.0,1.441
4.0,-8.0,1.442
3.0,-5.0,1.443
9.0,-1.0,1.444
11.0,2.0,1.445
2.0,4.0,1.446
-9.0,3.0,1.447
-9.0,0.0,1.448
-2.0,-5.0,1.449
1.0,-4.0,1.45
-1.0,-2.0,1.451
-1.0,-1.0,1.452
0.0,-1.0,1.453
1.0,-1.0,1.454
0.0,1.0,1.455
1.0,0.0,1.456
3.0,-2.0,1.457
-1.0,-4.0,1.458
-8.0,-5.0,1.459
-14.0,-6.0,1.46
-15.0,-8.0,1.461
-13.0,-7.0,1.462
-5.0,-3.0,1.463
1.0,0.0,1.464
2.0,0.0,1.465
0.0,1.0,1.466
2.0,2.0,1.467
7.0,0.0,1.468
6.0,-1.0,1.469
-2.0,-1.0,1.47
-4.0,0.0,1.471
1.0,-1.0,1.472
8.0,0.0,1.473
11.0,2.0,1.474
15.0,3.0,1.475
20.0,3.0,1.476
21.0,4.0,1.477
19.0,5.0,1.478
21.0,7.0,1.479
22.0,5.0,1.48
14.0,-4.0,1.481
6.0,-8.0,1.482
0.0,-7.0,1.483
-5.0,-2.0,1.484
-7.0,1.0,1.485
-9.0,4.0,1.486
-7.0,1.0,1.487
-5.0,-3.0,1.488
-1.0,-5.0,1.489
3.0,-6.0,1.49
4.0,-5.0,1.491
5.0,-2.0,1.492
3.0,1.0,1.493
2.0,4.0,1.494
4.0,1.0,1.495
7.0,-2.0,1.496
11.0,0.0,1.497
13.0,1.0,1.498
6.0,3.0,1.499
-3.0,5.0,1.5
-13.0,1.0,1.501
-20.0,-3.0,1.502
-17.0,-2.0,1.503
-8.0,-1.0,1.504
-2.0,0.0,1.505
-3.0,2.0,1.506
-2.0,1.0,1.507
4.0,0.0,1.508
7.0,1.0,1.509
3.0,2.0,1.51
1.0,0.0,1.511
3.0,-1.0,1.512
3.0,0.0,1.513
0.0,1.0,1.514
0.0,0.0,1.515
4.0,-2.0,1.516
6.0,-2.0,1.517
2.0,0.0,1.518
2.0,1.0,1.519
2.0,0.0,1.52
-3.0,-6.0,1.521
-6.0,-6.0,1.522
-2.0,-2.0,1.523
2.0,0.0,1.524
6.0,0.0,1.525
7.0,-2.0,1.526
1.0,-1.0,1.527
-3.0,0.0,1.528
-1.0,0.0,1.529
1.0,-2.0,1.53
2.0,-3.0,1.531
4.0,-4.0,1.532
4.0,-2.0,1.533
4.0,-2.0,1.534
8.0,-2.0,1.535
11.0,-1.0,1.536
9.0,0.0,1.537
9.0,-1.0,1.538
10.0,-1.0,1.539
9.0,0.0,1.54
4.0,-4.0,1.541
3.0,-6.0,1.542
11.0,-4.0,1.543
18.0,-2.0,1.544
15.0,0.0,1.545
5.0,2.0,1.546
2.0,2.0,1.547
4.0,1.0,1.548
4.0,3.0,1.549
-2.0,4.0,1.55
-5.0,2.0,1.551
-7.0,1.0,1.552
-7.0,2.0,1.553
-8.0,3.0,1.554
-8.0,5.0,1.555
-4.0,6.0,1.556
0.0,3.0,1.557
0.0,0.0,1.558
0.0,-4.0,1.559
-2.0,-5.0,1.56
-3.0,-6.0,1.561
0.0,-6.0,1.562
11.0,-2.0,1.563
20.0,1.0,1.564
17.0,2.0,1.565
7.0,0.0,1.566
0.0,-3.0,1.567
1.0,-2.0,1.568
3.0,-1.0,1.569
2.0,-1.0,1.57
3.0,-2.0,1.571
6.0,-2.0,1.572
5.0,2.0,1.573
-1.0,5.0,1.574
-5.0,2.0,1.575
-6.0,-1.0,1.576
-1.0,0.0,1.577
1.0,4.0,1.578
0.0,4.0,1.579
-4.0,-1.0,1.58
-10.0,-7.0,1.581
-11.0,-5.0,1.582
-3.0,-4.0,1.583
7.0,-4.0,1.584
7.0,-2.0,1.585
3.0,3.0,1.586
2.0,6.0,1.587
4.0,3.0,1.588
4.0,-1.0,1.589
2.0,-2.0,1.59
5.0,2.0,1.591
12.0,4.0,1.592
15.0,2.0,1.593
11.0,0.0,1.594
2.0,0.0,1.595
-3.0,-1.0,1.596
-7.0,0.0,1.597
-9.0,0.0,1.598
-7.0,-2.0,1.599
-4.0,-4.0,1.6
-2.0,-9.0,1.601
0.0,-8.0,1.602
4.0,-4.0,1.603
9.0,0.0,1.604
15.0,3.0,1.605
20.0,4.0,1.606
17.0,3.0,1.607
12.0,-1.0,1.608
5.0,-3.0,1.609
-1.0,-3.0,1.61
-1.0,0.0,1.611
-2.0,0.0,1.612
-2.0,-1.0,1.613
-3.0,-1.0,1.614
-2.0,-1.0,1.615
0.0,1.0,1.616
4.0,2.0,1.617
8.0,0.0,1.618
7.0,-1.0,1.619
4.0,-3.0,1.62
1.0,-8.0,1.621
1.0,-8.0,1.622
4.0,-5.0,1.623
8.0,-1.0,1.624
5.0,1.0,1.625
-1.0,0.0,1.626
-2.0,-2.0,1.627
1.0,-4.0,1.628
1.0,-4.0,1.629
-5.0,-3.0,1.63
-9.0,0.0,1.631
-4.0,0.0,1.632
2.0,-1.0,1.633
4.0,0.0,1.634
5.0,2.0,1.635
8.0,2.0,1.636
14.0,1.0,1.637
13.0,-1.0,1.638
9.0,0.0,1.639
4.0,0.0,1.64
1.0,-3.0,1.641
0.0,-5.0,1.642
6.0,-5.0,1.643
11.0,0.0,1.644
8.0,3.0,1.645
5.0,2.0,1.646
5.0,0.0,1.647
5.0,-2.0,1.648
3.0,-3.0,1.649
0.0,-2.0,1.65
-2.0,-2.0,1.651
-4.0,-1.0,1.652
-2.0,1.0,1.653
0.0,0.0,1.654
2.0,-1.0,1.655
5.0,-2.0,1.656
3.0,0.0,1.657
2.0,-1.0,1.658
-1.0,-3.0,1.659
-3.0,-5.0,1.66
-4.0,-5.0,1.661
0.0,-4.0,1.662
11.0,-2.0,1.663
22.0,0.0,1.664
22.0,1.0,1.665
13.0,2.0,1.666
4.0,-1.0,1.667
-1.0,-4.0,1.668
-4.0,-2.0,1.669
-6.0,-1.0,1.67
-1.0,-1.0,1.671
5.0,0.0,1.672
5.0,1.0,1.673
-2.0,2.0,1.674
-8.0,0.0,1.675
-6.0,0.0,1.676
2.0,1.0,1.677
7.0,3.0,1.678
4.0,0.0,1.679
-4.0,-5.0,1.68
-12.0,-9.0,1.681
-13.0,-5.0,1.682
-7.0,-2.0,1.683
3.0,-1.0,1.684
9.0,0.0,1.685
2.0,3.0,1.686
-7.0,1.0,1.687
-7.0,-2.0,1.688
0.0,-2.0,1.689
6.0,2.0,1.69
3.0,1.0,1.691
-1.0,0.0,1.692
0.0,1.0,1.693
4.0,6.0,1.694
6.0,7.0,1.695
4.0,2.0,1.696
4.0,2.0,1.697
5.0,3.0,1.698
7.0,1.0,1.699
8.0,-2.0,1.7
7.0,-6.0,1.701
8.0,-4.0,1.702
14.0,-3.0,1.703
23.0,-2.0,1.704
26.0,0.0,1.705
20.0,3.0,1.706
11.0,3.0,1.707
10.0,0.0,1.708
12.0,0.0,1.709
12.0,1.0,1.71
8.0,1.0,1.711
6.0,0.0,1.712
7.0,0.0,1.713
5.0,3.0,1.714
3.0,6.0,1.715
3.0,7.0,1.716
4.0,9.0,1.717
-2.0,9.0,1.718
-8.0,5.0,1.719
-12.0,1.0,1.72
-9.0,-5.0,1.721
-6.0,-7.0,1.722
-2.0,-6.0,1.723
2.0,-3.0,1.724
2.0,0.0,1.725
2.0,2.0,1.726
-2.0,0.0,1.727
-5.0,-3.0,1.728
-5.0,-4.0,1.729
-5.0,-2.0,1.73
-9.0,-1.0,1.731
-12.0,-1.0,1.732
-10.0,-2.0,1.733
-8.0,-1.0,1.734
-4.0,1.0,1.735
-1.0,0.0,1.736
0.0,0.0,1.737
1.0,-1.0,1.738
-3.0,0.0,1.739
-6.0,0.0,1.74
-4.0,-3.0,1.741
1.0,-6.0,1.742
10.0,-6.0,1.743
16.0,-6.0,1.744
13.0,-3.0,1.745
1.0,0.0,1.746
-7.0,0.0,1.747
-7.0,0.0,1.748
-5.0,-3.0,1.749
-7.0,-5.0,1.75
-6.0,-3.0,1.751
-1.0,-2.0,1.752
4.0,-2.0,1.753
1.0,0.0,1.754
-2.0,1.0,1.755
3.0,3.0,1.756
11.0,1.0,1.757
9.0,0.0,1.758
1.0,-4.0,1.759
-3.0,-5.0,1.76
-2.0,-10.0,1.761
0.0,-10.0,1.762
3.0,-6.0,1.763
10.0,-3.0,1.764
15.0,1.0,1.765
11.0,3.0,1.766
2.0,2.0,1.767
0.0,-1.0,1.768
2.0,0.0,1.769
3.0,2.0,1.77
3.0,2.0,1.771
4.0,-1.0,1.772
5.0,-2.0,1.773
1.0,0.0,1.774
-1.0,1.0,1.775
1.0,-1.0,1.776
7.0,-1.0,1.777
8.0,-1.0,1.778
5.0,0.0,1.779
0.0,-2.0,1.78
-5.0,-7.0,1.781
-7.0,-8.0,1.782
-4.0,-5.0,1.783
6.0,-2.0,1.784
16.0,-1.0,1.785
16.0,0.0,1.786
8.0,2.0,1.787
4.0,0.0,1.788
5.0,-1.0,1.789
4.0,-2.0,1.79
0.0,0.0,1.791
-2.0,0.0,1.792
1.0,-1.0,1.793
5.0,0.0,1.794
4.0,2.0,1.795
2.0,4.0,1.796
7.0,5.0,1.797
11.0,5.0,1.798
10.0,4.0,1.799
8.0,4.0,1.8
3.0,-1.0,1.801
0.0,-2.0,1.802
5.0,-2.0,1.803
8.0,0.0,1.804
5.0,4.0,1.805
2.0,7.0,1.806
0.0,4.0,1.807
0.0,0.0,1.808
1.0,-3.0,1.809
3.0,-1.0,1.81
3.0,0.0,1.811
2.0,1.0,1.812
3.0,1.0,1.813
4.0,0.0,1.814
2.0,0.0,1.815
1.0,1.0,1.816
1.0,5.0,1.817
2.0,3.0,1.818
4.0,1.0,1.819
2.0,-1.0,1.82
-1.0,-3.0,1.821
4.0,-5.0,1.822
17.0,-5.0,1.823
21.0,-3.0,1.824
14.0,1.0,1.825
2.0,4.0,1.826
-3.0,2.0,1.827
-1.0,0.0,1.828
0.0,-1.0,1.829
-2.0,-4.0,1.83
-2.0,-4.0,1.831
1.0,-3.0,1.832
3.0,-3.0,1.833
3.0,-3.0,1.834
2.0,-1.0,1.835
1.0,0.0,1.836
1.0,-1.0,1.837
0.0,-3.0,1.838
-1.0,-4.0,1.839
-3.0,-4.0,1.84
-4.0,-5.0,1.841
0.0,-5.0,1.842
7.0,-3.0,1.843
10.0,-2.0,1.844
6.0,-1.0,1.845
-2.0,0.0,1.846
-6.0,1.0,1.847
-2.0,0.0,1.848
2.0,1.0,1.849
2.0,1.0,1.85
1.0,1.0,1.851
2.0,0.0,1.852
3.0,0.0,1.853
-1.0,0.0,1.854
-7.0,0.0,1.855
-8.0,0.0,1.856
0.0,0.0,1.857
6.0,-1.0,1.858
2.0,-3.0,1.859
-5.0,-5.0,1.86
-6.0,-8.0,1.861
0.0,-8.0,1.862
7.0,-5.0,1.863
8.0,-3.0,1.864
5.0,0.0,1.865
4.0,1.0,1.866
6.0,1.0,1.867
9.0,-1.0,1.868
9.0,-1.0,1.869
7.0,0.0,1.87
7.0,1.0,1.871
8.0,1.0,1.872
7.0,1.0,1.873
3.0,1.0,1.874
1.0,1.0,1.875
2.0,1.0,1.876
4.0,1.0,1.877
4.0,0.0,1.878
4.0,0.0,1.879
2.0,1.0,1.88
-2.0,-2.0,1.881
-4.0,-4.0,1.882
0.0,-2.0,1.883
3.0,0.0,1.884
5.0,2.0,1.885
7.0,1.0,1.886
5.0,-1.0,1.887
4.0,-4.0,1.888
5.0,-6.0,1.889
5.0,-4.0,1.89
2.0,-3.0,1.891
0.0,-3.0,1.892
-2.0,-4.0,1.893
-4.0,-3.0,1.894
-4.0,-1.0,1.895
-2.0,0.0,1.896
2.0,0.0,1.897
7.0,0.0,1.898
2.0,0.0,1.899
-5.0,-2.0,1.9
-12.0,-6.0,1.901
-14.0,-8.0,1.902
-7.0,-4.0,1.903
2.0,0.0,1.904
9.0,1.0,1.905
9.0,3.0,1.906
8.0,2.0,1.907
6.0,1.0,1.908
2.0,1.0,1.909
4.0,1.0,1.91
11.0,1.0,1.911
15.0,2.0,1.912
6.0,0.0,1.913
-6.0,-1.0,1.914
-12.0,0.0,1.915
-8.0,1.0,1.916
-5.0,1.0,1.917
-7.0,0.0,1.918
-8.0,-1.0,1.919
-6.0,-1.0,1.92
-4.0,-3.0,1.921
1.0,-5.0,1.922
11.0,-3.0,1.923
19.0,-1.0,1.924
19.0,3.0,1.925
15.0,4.0,1.926
14.0,2.0,1.927
17.0,0.0,1.928
18.0,-1.0,1.929
14.0,-2.0,1.93
9.0,-3.0,1.931
6.0,-2.0,1.932
5.0,0.0,1.933
3.0,4.0,1.934
0.0,5.0,1.935
-1.0,5.0,1.936
-2.0,5.0,1.937
-4.0,1.0,1.938
-3.0,-1.0,1.939
-4.0,-2.0,1.94
-7.0,-4.0,1.941
-7.0,-5.0,1.942
-1.0,-4.0,1.943
3.0,0.0,1.944
-2.0,2.0,1.945
-10.0,-2.0,1.946
-8.0,-7.0,1.947
3.0,-7.0,1.948
14.0,0.0,1.949
15.0,2.0,1.95
15.0,-1.0,1.951
17.0,-5.0,1.952
11.0,-4.0,1.953
-4.0,0.0,1.954
-13.0,1.0,1.955
-9.0,0.0,1.956
0.0,0.0,1.957
0.0,-4.0,1.958
-8.0,-7.0,1.959
-14.0,-7.0,1.96
-13.0,-8.0,1.961
-10.0,-5.0,1.962
0.0,-2.0,1.963
7.0,1.0,1.964
9.0,4.0,1.965
12.0,4.0,1.966
15.0,1.0,1.967
17.0,-1.0,1.968
14.0,-1.0,1.969
11.0,0.0,1.97
7.0,0.0,1.971
3.0,0.0,1.972
3.0,2.0,1.973
2.0,5.0,1.974
-5.0,6.0,1.975
-10.0,5.0,1.976
-7.0,4.0,1.977
-3.0,3.0,1.978
0.0,3.0,1.979
-1.0,2.0,1.98
-5.0,-2.0,1.981
-6.0,-4.0,1.982
0.0,-1.0,1.983
6.0,2.0,1.984
2.0,4.0,1.985
-4.0,6.0,1.986
-1.0,2.0,1.987
7.0,-2.0,1.988
12.0,-4.0,1.989
7.0,-5.0,1.99
4.0,-2.0,1.991
7.0,0.0,1.992
9.0,1.0,1.993
6.0,1.0,1.994
2.0,0.0,1.995
-1.0,-3.0,1.996
0.0,-3.0,1.997
4.0,0.0,1.998
7.0,4.0,1.999
4.0,2.0,2.0
0.0,-6.0,2.001
2.0,-7.0,2.002
16.0,-3.0,2.003
27.0,0.0,2.004
23.0,2.0,2.005
11.0,2.0,2.006
3.0,1.0,2.007
3.0,0.0,2.008
3.0,-1.0,2.009
-2.0,-3.0,2.01
-5.0,-3.0,2.011
-3.0,-2.0,2.012
0.0,0.0,2.013
-2.0,-1.0,2.014
-5.0,-4.0,2.015
-5.0,-5.0,2.016
-1.0,-1.0,2.017
5.0,0.0,2.018
5.0,0.0,2.019
-1.0,-3.0,2.02
-5.0,-7.0,2.021
-3.0,-8.0,2.022
3.0,-7.0,2.023
6.0,-3.0,2.024
5.0,3.0,2.025
3.0,3.0,2.026
6.0,-1.0,2.027
9.0,-4.0,2.028
10.0,-1.0,2.029
10.0,3.0,2.03
13.0,3.0,2.031
14.0,1.0,2.032
7.0,0.0,2.033
-2.0,1.0,2.034
-5.0,3.0,2.035
-3.0,2.0,2.036
0.0,2.0,2.037
0.0,-1.0,2.038
-1.0,-5.0,2.039
-2.0,-5.0,2.04
-3.0,-6.0,2.041
-2.0,-3.0,2.042
4.0,-3.0,2.043
12.0,-2.0,2.044
15.0,-1.0,2.045
11.0,-3.0,2.046
4.0,-6.0,2.047
0.0,-9.0,2.048
0.0,-7.0,2.049
1.0,0.0,2.05
2.0,2.0,2.051
1.0,0.0,2.052
-2.0,-2.0,2.053
-5.0,-2.0,2.054
-5.0,-2.0,2.055
-4.0,-1.0,2.056
-2.0,1.0,2.057
-3.0,0.0,2.058
-6.0,-1.0,2.059
-11.0,-4.0,2.06
-14.0,-8.0,2.061
-14.0,-7.0,2.062
-8.0,-5.0,2.063
-1.0,-3.0,2.064
3.0,-1.0,2.065
3.0,-2.0,2.066
4.0,-3.0,2.067
3.0,-4.0,2.068
0.0,-4.0,2.069
-1.0,-2.0,2.07
0.0,0.0,2.071
2.0,2.0,2.072
1.0,5.0,2.073
1.0,6.0,2.074
0.0,5.0,2.075
1.0,3.0,2.076
2.0,4.0,2.077
5.0,4.0,2.078
7.0,4.0,2.079
5.0,4.0,2.08
-2.0,0.0,2.081
-3.0,-3.0,2.082
5.0,-2.0,2.083
14.0,2.0,2.084
13.0,7.0,2.085
4.0,6.0,2.086
2.0,1.0,2.087
8.0,-3.0,2.088
14.0,-5.0,2.089
12.0,-2.0,2.09
8.0,-1.0,2.091
6.0,-3.0,2.092
8.0,-5.0,2.093
6.0,-3.0,2.094
4.0,-3.0,2.095
4.0,-3.0,2.096
4.0,-4.0,2.097
2.0,-2.0,2.098
1.0,0.0,2.099
0.0,0.0,2.1
-2.0,-5.0,2.101
-5.0,-6.0,2.102
-1.0,-3.0,2.103
11.0,2.0,2.104
17.0,4.0,2.105
11.0,5.0,2.106
3.0,1.0,2.107
6.0,-3.0,2.108
10.0,-2.0,2.109
7.0,1.0,2.11
2.0,1.0,2.111
2.0,0.0,2.112
6.0,0.0,2.113
2.0,3.0,2.114
-2.0,3.0,2.115
-1.0,-2.0,2.116
3.0,-2.0,2.117
1.0,-1.0,2.118
0.0,0.0,2.119
-2.0,-4.0,2.12
-2.0,-10.0,2.121
-2.0,-8.0,2.122
2.0,-2.0,2.123
5.0,1.0,2.124
5.0,2.0,2.125
5.0,2.0,2.126
3.0,0.0,2.127
0.0,-4.0,2.128
-1.0,-4.0,2.129
-3.0,0.0,2.13
-4.0,2.0,2.131
-5.0,-1.0,2.132
-5.0,-3.0,2.133
-4.0,-2.0,2.134
-3.0,0.0,2.135
-1.0,-1.0,2.136
1.0,-1.0,2.137
4.0,-3.0,2.138
0.0,-2.0,2.139
-3.0,-1.0,2.14
-5.0,-2.0,2.141
-4.0,-3.0,2.142
3.0,-2.0,2.143
10.0,0.0,2.144
9.0,1.0,2.145
3.0,3.0,2.146
2.0,3.0,2.147
4.0,3.0,2.148
5.0,3.0,2.149
4.0,2.0,2.15
4.0,2.0,2.151
5.0,2.0,2.152
5.0,4.0,2.153
5.0,7.0,2.154
10.0,5.0,2.155
11.0,3.0,2.156
10.0,1.0,2.157
4.0,0.0,2.158
3.0,1.0,2.159
2.0,0.0,2.16
-1.0,-3.0,2.161
-2.0,-5.0,2.162
5.0,-5.0,2.163
17.0,-3.0,2.164
20.0,-1.0,2.165
17.0,0.0,2.166
13.0,-2.0,2.167
12.0,-4.0,2.168
9.0,-4.0,2.169
5.0,-2.0,2.17
4.0,-1.0,2.171
5.0,-1.0,2.172
1.0,1.0,2.173
-2.0,4.0,2.174
0.0,2.0,2.175
0.0,-3.0,2.176
-2.0,-3.0,2.177
-7.0,-2.0,2.178
-8.0,-2.0,2.179
-6.0,-4.0,2.18
-5.0,-8.0,2.181
-2.0,-7.0,2.182
3.0,-4.0,2.183
10.0,0.0,2.184
14.0,2.0,2.185
13.0,3.0,2.186
10.0,1.0,2.187
4.0,-1.0,2.188
-6.0,-1.0,2.189
-15.0,0.0,2.19
-19.0,1.0,2.191
-17.0,0.0,2.192
-14.0,-2.0,2.193
-10.0,-1.0,2.194
-4.0,2.0,2.195
0.0,3.0,2.196
1.0,3.0,2.197
0.0,0.0,2.198
0.0,-2.0,2.199
0.0,0.0,2.2
-3.0,-2.0,2.201
-3.0,-1.0,2.202
6.0,0.0,2.203
13.0,0.0,2.204
11.0,3.0,2.205
8.0,4.0,2.206
6.0,4.0,2.207
4.0,1.0,2.208
2.0,0.0,2.209
0.0,0.0,2.21
0.0,0.0,2.211
0.0,-2.0,2.212
1.0,-2.0,2.213
2.0,-2.0,2.214
0.0,-2.0,2.215
-1.0,-3.0,2.216
0.0,-3.0,2.217
3.0,-3.0,2.218
3.0,-4.0,2.219
1.0,-5.0,2.22
0.0,-5.0,2.221
2.0,-5.0,2.222
10.0,-5.0,2.223
15.0,-4.0,2.224
13.0,0.0,2.225
7.0,3.0,2.226
5.0,0.0,2.227
7.0,-2.0,2.228
9.0,-2.0,2.229
7.0,-2.0,2.23
4.0,-2.0,2.231
3.0,-2.0,2.232
3.0,0.0,2.233
4.0,3.0,2.234
3.0,5.0,2.235
3.0,7.0,2.236
6.0,5.0,2.237
10.0,4.0,2.238
12.0,0.0,2.239
5.0,-5.0,2.24
-5.0,-7.0,2.241
-8.0,-5.0,2.242
0.0,-1.0,2.243
11.0,-2.0,2.244
16.0,-2.0,2.245
12.0,-1.0,2.246
8.0,0.0,2.247
6.0,-2.0,2.248
2.0,-1.0,2.249
-4.0,0.0,2.25
-9.0,-1.0,2.251
-14.0,-2.0,2.252
-18.0,-1.0,2.253
-16.0,0.0,2.254
-3.0,-2.0,2.255
15.0,-5.0,2.256
24.0,-1.0,2.257
21.0,1.0,2.258
16.0,0.0,2.259
6.0,-3.0,2.26
-1.0,-9.0,2.261
-7.0,-5.0,2.262
-8.0,-4.0,2.263
-4.0,-3.0,2.264
-2.0,0.0,2.265
-3.0,2.0,2.266
-3.0,4.0,2.267
2.0,2.0,2.268
7.0,1.0,2.269
7.0,1.0,2.27
3.0,1.0,2.271
1.0,0.0,2.272
1.0,2.0,2.273
0.0,4.0,2.274
0.0,1.0,2.275
3.0,-3.0,2.276
6.0,-3.0,2.277
3.0,-1.0,2.278
-1.0,0.0,2.279
-5.0,0.0,2.28
-5.0,-4.0,2.281
-4.0,-3.0,2.282
1.0,0.0,2.283
7.0,3.0,2.284
6.0,4.0,2.285
5.0,4.0,2.286
5.0,3.0,2.287
5.0,2.0,2.288
5.0,1.0,2.289
4.0,1.0,2.29
2.0,0.0,2.291
1.0,-2.0,2.292
1.0,0.0,2.293
0.0,1.0,2.294
0.0,3.0,2.295
1.0,3.0,2.296
2.0,4.0,2.297
3.0,2.0,2.298
1.0,0.0,2.299
-3.0,-2.0,2.3
-6.0,-6.0,2.301
-5.0,-7.0,2.302
3.0,-7.0,2.303
12.0,-5.0,2.304
12.0,-1.0,2.305
3.0,1.0,2.306
0.0,0.0,2.307
4.0,0.0,2.308
7.0,-2.0,2.309
4.0,-2.0,2.31
2.0,-1.0,2.311
3.0,0.0,2.312
5.0,0.0,2.313
3.0,-1.0,2.314
2.0,-2.0,2.315
2.0,-4.0,2.316
2.0,-3.0,2.317
0.0,-3.0,2.318
0.0,-3.0,2.319
-1.0,-5.0,2.32
-5.0,-7.0,2.321
-10.0,-6.0,2.322
-7.0,-5.0,2.323
1.0,-4.0,2.324
5.0,-2.0,2.325
0.0,1.0,2.326
-3.0,1.0,2.327
-2.0,0.0,2.328
-1.0,0.0,2.329
-1.0,3.0,2.33
1.0,2.0,2.331
7.0,-1.0,2.332
8.0,-2.0,2.333
1.0,2.0,2.334
-1.0,5.0,2.335
4.0,4.0,2.336
8.0,2.0,2.337
5.0,0.0,2.338
-1.0,0.0,2.339
-1.0,0.0,2.34
1.0,-3.0,2.341
4.0,-5.0,2.342
9.0,-2.0,2.343
16.0,2.0,2.344
16.0,5.0,2.345
10.0,3.0,2.346
6.0,2.0,2.347
5.0,2.0,2.348
3.0,1.0,2.349
0.0,0.0,2.35
-1.0,-1.0,2.351
3.0,0.0,2.352
6.0,2.0,2.353
5.0,3.0,2.354
4.0,2.0,2.355
5.0,0.0,2.356
6.0,-2.0,2.357
2.0,-6.0,2.358
0.0,-7.0,2.359
-2.0,-5.0,2.36
-4.0,-7.0,2.361
-5.0,-7.0,2.362
-1.0,-6.0,2.363
3.0,-5.0,2.364
1.0,-1.0,2.365
0.0,3.0,2.366
1.0,4.0,2.367
2.0,0.0,2.368
3.0,-4.0,2.369
3.0,-4.0,2.37
1.0,-1.0,2.371
-1.0,0.0,2.372
-1.0,0.0,2.373
-2.0,2.0,2.374
-2.0,4.0,2.375
-2.0,4.0,2.376
-1.0,4.0,2.377
0.0,2.0,2.378
-3.0,0.0,2.379
-3.0,-1.0,2.38
-4.0,-3.0,2.381
-5.0,-5.0,2.382
-1.0,-2.0,2.383
9.0,0.0,2.384
15.0,2.0,2.385
10.0,3.0,2.386
2.0,1.0,2.387
5.0,-1.0,2.388
10.0,-1.0,2.389
7.0,-1.0,2.39
-1.0,-1.0,2.391
-1.0,-2.0,2.392
3.0,-2.0,2.393
6.0,-1.0,2.394
4.0,-1.0,2.395
2.0,0.0,2.396
4.0,-1.0,2.397
2.0,-2.0,2.398
1.0,-2.0,2.399
-2.0,-3.0,2.4
-6.0,-5.0,2.401
-7.0,-3.0,2.402
-1.0,0.0,2.403
8.0,0.0,2.404
13.0,0.0,2.405
10.0,1.0,2.406
6.0,0.0,2.407
8.0,-2.0,2.408
9.0,-2.0,2.409
4.0,0.0,2.41
0.0,-1.0,2.411
2.0,-3.0,2.412
1.0,-3.0,2.413
-1.0,1.0,2.414
-2.0,4.0,2.415
1.0,4.0,2.416
4.0,3.0,2.417
3.0,1.0,2.418
1.0,1.0,2.419
-3.0,1.0,2.42
-5.0,-3.0,2.421
-5.0,-5.0,2.422
2.0,-2.0,2.423
8.0,0.0,2.424
5.0,1.0,2.425
-1.0,2.0,2.426
-1.0,-1.0,2.427
5.0,-3.0,2.428
9.0,0.0,2.429
7.0,2.0,2.43
6.0,0.0,2.431
9.0,-1.0,2.432
9.0,0.0,2.433
5.0,1.0,2.434
1.0,1.0,2.435
2.0,0.0,2.436
4.0,1.0,2.437
11.0,2.0,2.438
5.0,1.0,2.439
1.0,-3.0,2.44
1.0,-8.0,2.441
2.0,-7.0,2.442
10.0,-4.0,2.443
15.0,-2.0,2.444
11.0,0.0,2.445
7.0,0.0,2.446
7.0,0.0,2.447
6.0,-2.0,2.448
2.0,-4.0,2.449
-1.0,-3.0,2.45
-2.0,-3.0,2.451
-3.0,-4.0,2.452
-3.0,-3.0,2.453
-3.0,-2.0,2.454
-4.0,-2.0,2.455
-5.0,-4.0,2.456
0.0,-6.0,2.457
11.0,3.0,2.458
5.0,1.0,2.459
1.0,0.0,2.46
1.0,-2.0,2.461
2.0,-4.0,2.462
10.0,-4.0,2.463
15.0,-3.0,2.464
11.0,-1.0,2.465
7.0,0.0,2.466
7.0,0.0,2.467
6.0,0.0,2.468
2.0,1.0,2.469
-1.0,3.0,2.47
-2.0,3.0,2.471
-3.0,2.0,2.472
-3.0,2.0,2.473
-3.0,3.0,2.474
-4.0,1.0,2.475
-5.0,0.0,2.476
0.0,-1.0,2.477
4.0,3.0,2.478
-1.0,1.0,2.479
-6.0,0.0,2.48
-7.0,-2.0,2.481
-4.0,-4.0,2.482
2.0,-4.0,2.483
6.0,-3.0,2.484
6.0,-1.0,2.485
3.0,0.0,2.486
4.0,0.0,2.487
8.0,0.0,2.488
7.0,1.0,2.489
4.0,3.0,2.49
2.0,3.0,2.491
4.0,2.0,2.492
6.0,2.0,2.493
2.0,3.0,2.494
1.0,1.0,2.495
3.0,0.0,2.496
5.0,-1.0,2.497
1.0,-2.0,2.498
-5.0,-3.0,2.499
-7.0,-3.0,2.5
-6.0,-6.0,2.501
-4.0,-7.0,2.502
0.0,-7.0,2.503
5.0,-5.0,2.504
8.0,0.0,2.505
8.0,3.0,2.506
7.0,3.0,2.507
7.0,-2.0,2.508
4.0,-4.0,2.509
-1.0,-3.0,2.51
-2.0,-1.0,2.511
0.0,0.0,2.512
0.0,0.0,2.513
-3.0,0.0,2.514
-4.0,2.0,2.515
-2.0,2.0,2.516
2.0,3.0,2.517
1.0,3.0,2.518
0.0,2.0,2.519
-2.0,0.0,2.52
-3.0,-5.0,2.521
-5.0,-6.0,2.522
-1.0,-5.0,2.523
7.0,-3.0,2.524
9.0,-1.0,2.525
1.0,0.0,2.526
-4.0,0.0,2.527
-1.0,0.0,2.528
1.0,-2.0,2.529
-1.0,-3.0,2.53
-2.0,-4.0,2.531
0.0,-4.0,2.532
4.0,-4.0,2.533
1.0,-2.0,2.534
-3.0,0.0,2.535
-3.0,2.0,2.536
1.0,6.0,2.537
1.0,6.0,2.538
1.0,3.0,2.539
1.0,0.0,2.54
1.0,-4.0,2.541
1.0,-3.0,2.542
7.0,0.0,2.543
12.0,1.0,2.544
10.0,2.0,2.545
7.0,4.0,2.546
5.0,4.0,2.547
3.0,1.0,2.548
3.0,0.0,2.549
2.0,1.0,2.55
-1.0,4.0,2.551
-3.0,3.0,2.552
-1.0,0.0,2.553
1.0,-1.0,2.554
2.0,2.0,2.555
4.0,3.0,2.556
4.0,4.0,2.557
3.0,2.0,2.558
0.0,2.0,2.559
-2.0,2.0,2.56
-2.0,-1.0,2.561
-4.0,-4.0,2.562
-2.0,-4.0,2.563
5.0,-2.0,2.564
9.0,1.0,2.565
4.0,3.0,2.566
-1.0,0.0,2.567
1.0,-2.0,2.568
5.0,-2.0,2.569
2.0,-1.0,2.57
-1.0,-2.0,2.571
2.0,-4.0,2.572
6.0,-3.0,2.573
4.0,-2.0,2.574
0.0,-2.0,2.575
1.0,-2.0,2.576
6.0,-2.0,2.577
5.0,-3.0,2.578
1.0,-5.0,2.579
-1.0,-6.0,2.58
-1.0,-8.0,2.581
1.0,-5.0,2.582
6.0,-2.0,2.583
14.0,1.0,2.584
13.0,4.0,2.585
7.0,6.0,2.586
2.0,3.0,2.587
6.0,-2.0,2.588
11.0,-3.0,2.589
6.0,0.0,2.59
1.0,2.0,2.591
1.0,1.0,2.592
3.0,1.0,2.593
3.0,4.0,2.594
2.0,3.0,2.595
5.0,1.0,2.596
7.0,2.0,2.597
4.0,3.0,2.598
1.0,3.0,2.599
0.0,2.0,2.6
1.0,0.0,2.601
1.0,-3.0,2.602
7.0,-3.0,2.603
15.0,-3.0,2.604
14.0,-1.0,2.605
7.0,0.0,2.606
3.0,-1.0,2.607
6.0,-3.0,2.608
8.0,-2.0,2.609
2.0,-1.0,2.61
-2.0,-1.0,2.611
1.0,-1.0,2.612
2.0,0.0,2.613
-3.0,1.0,2.614
-6.0,1.0,2.615
-2.0,1.0,2.616
1.0,2.0,2.617
0.0,3.0,2.618
-2.0,0.0,2.619
-4.0,-3.0,2.62
-5.0,-6.0,2.621
-3.0,-6.0,2.622
5.0,-5.0,2.623
13.0,-3.0,2.624
14.0,1.0,2.625
9.0,2.0,2.626
5.0,-2.0,2.627
4.0,-6.0,2.628
3.0,-5.0,2.629
0.0,-2.0,2.63
-3.0,-3.0,2.631
0.0,-6.0,2.632
0.0,-5.0,2.633
-2.0,0.0,2.634
-3.0,2.0,2.635
-1.0,0.0,2.636
0.0,1.0,2.637
-1.0,1.0,2.638
-3.0,1.0,2.639
-6.0,-1.0,2.64
-6.0,-4.0,2.641
-5.0,-3.0,2.642
0.0,-2.0,2.643
5.0,-1.0,2.644
6.0,0.0,2.645
7.0,2.0,2.646
6.0,2.0,2.647
5.0,0.0,2.648
5.0,0.0,2.649
5.0,3.0,2.65
3.0,1.0,2.651
2.0,0.0,2.652
6.0,1.0,2.653
8.0,3.0,2.654
5.0,0.0,2.655
2.0,-5.0,2.656
1.0,-3.0,2.657
0.0,0.0,2.658
-2.0,0.0,2.659
-3.0,0.0,2.66
-3.0,-2.0,2.661
-2.0,-5.0,2.662
2.0,-5.0,2.663
7.0,-3.0,2.664
11.0,1.0,2.665
8.0,4.0,2.666
1.0,2.0,2.667
-1.0,0.0,2.668
0.0,0.0,2.669
0.0,1.0,2.67
3.0,2.0,2.671
4.0,4.0,2.672
2.0,4.0,2.673
0.0,3.0,2.674
0.0,1.0,2.675
3.0,0.0,2.676
7.0,0.0,2.677
3.0,0.0,2.678
0.0,-1.0,2.679
-1.0,-2.0,2.68
-1.0,-4.0,2.681
-2.0,-7.0,2.682
1.0,-8.0,2.683
9.0,-5.0,2.684
9.0,4.0,2.685
1.0,7.0,2.686
-3.0,-1.0,2.687
2.0,-6.0,2.688
7.0,-3.0,2.689
4.0,3.0,2.69
-1.0,2.0,2.691
-1.0,-1.0,2.692
1.0,-1.0,2.693
1.0,0.0,2.694
-1.0,1.0,2.695
0.0,1.0,2.696
0.0,4.0,2.697
-3.0,2.0,2.698
-4.0,0.0,2.699
-6.0,-1.0,2.7
-7.0,-2.0,2.701
-7.0,-2.0,2.702
-1.0,-2.0,2.703
2.0,-1.0,2.704
0.0,1.0,2.705
-1.0,1.0,2.706
-1.0,-3.0,2.707
-1.0,-5.0,2.708
4.0,-4.0,2.709
8.0,-2.0,2.71
6.0,-1.0,2.711
5.0,0.0,2.712
8.0,0.0,2.713
11.0,0.0,2.714
11.0,0.0,2.715
10.0,0.0,2.716
11.0,3.0,2.717
12.0,1.0,2.718
6.0,0.0,2.719
1.0,-3.0,2.72
0.0,-3.0,2.721
0.0,-3.0,2.722
1.0,0.0,2.723
6.0,2.0,2.724
11.0,2.0,2.725
12.0,2.0,2.726
12.0,0.0,2.727
14.0,-1.0,2.728
14.0,-1.0,2.729
10.0,-2.0,2.73
6.0,0.0,2.731
6.0,0.0,2.732
9.0,-1.0,2.733
7.0,-4.0,2.734
2.0,-3.0,2.735
0.0,-1.0,2.736
5.0,0.0,2.737
7.0,2.0,2.738
8.0,-2.0,2.739
5.0,-5.0,2.74
2.0,-7.0,2.741
-2.0,-5.0,2.742
1.0,-5.0,2.743
9.0,-4.0,2.744
10.0,0.0,2.745
2.0,1.0,2.746
-4.0,0.0,2.747
-1.0,-3.0,2.748
3.0,-2.0,2.749
0.0,2.0,2.75
-6.0,1.0,2.751
-7.0,-3.0,2.752
-5.0,-4.0,2.753
-4.0,-2.0,2.754
-7.0,0.0,2.755
-8.0,1.0,2.756
-7.0,2.0,2.757
-7.0,0.0,2.758
-10.0,-1.0,2.759
-12.0,-1.0,2.76
-10.0,-1.0,2.761
-8.0,0.0,2.762
-1.0,2.0,2.763
6.0,1.0,2.764
8.0,3.0,2.765
3.0,5.0,2.766
0.0,3.0,2.767
3.0,-1.0,2.768
5.0,0.0,2.769
5.0,5.0,2.77
5.0,7.0,2.771
8.0,2.0,2.772
6.0,1.0,2.773
1.0,6.0,2.774
1.0,9.0,2.775
6.0,6.0,2.776
9.0,3.0,2.777
7.0,3.0,2.778
4.0,2.0,2.779
2.0,0.0,2.78
-1.0,-5.0,2.781
-4.0,-4.0,2.782
2.0,-2.0,2.783
14.0,-2.0,2.784
18.0,-1.0,2.785
12.0,2.0,2.786
9.0,3.0,2.787
14.0,0.0,2.788
15.0,-3.0,2.789
6.0,-1.0,2.79
-2.0,0.0,2.791
-2.0,-3.0,2.792
0.0,-7.0,2.793
-1.0,-4.0,2.794
-3.0,-1.0,2.795
-2.0,-2.0,2.796
1.0,-4.0,2.797
1.0,-6.0,2.798
-1.0,-5.0,2.799
-5.0,-5.0,2.8
-9.0,-8.0,2.801
-6.0,-9.0,2.802
4.0,-8.0,2.803
13.0,-4.0,2.804
11.0,1.0,2.805
3.0,3.0,2.806
-1.0,1.0,2.807
2.0,-2.0,2.808
4.0,-1.0,2.809
3.0,1.0,2.81
3.0,0.0,2.811
6.0,-3.0,2.812
7.0,-5.0,2.813
5.0,-4.0,2.814
4.0,-2.0,2.815
5.0,-1.0,2.816
8.0,3.0,2.817
8.0,3.0,2.818
6.0,2.0,2.819
1.0,0.0,2.82
-3.0,-4.0,2.821
-5.0,-3.0,2.822
-1.0,-2.0,2.823
5.0,-4.0,2.824
8.0,-2.0,2.825
6.0,0.0,2.826
4.0,1.0,2.827
5.0,-2.0,2.828
3.0,-3.0,2.829
0.0,-1.0,2.83
-2.0,3.0,2.831
-1.0,1.0,2.832
2.0,-1.0,2.833
4.0,-2.0,2.834
2.0,0.0,2.835
1.0,0.0,2.836
0.0,-1.0,2.837
-1.0,-1.0,2.838
-2.0,0.0,2.839
-4.0,0.0,2.84
-5.0,-5.0,2.841
-3.0,-5.0,2.842
0.0,0.0,2.843
5.0,1.0,2.844
7.0,0.0,2.845
4.0,1.0,2.846
1.0,4.0,2.847
3.0,1.0,2.848
6.0,-3.0,2.849
7.0,-5.0,2.85
9.0,-2.0,2.851
14.0,-1.0,2.852
14.0,-1.0,2.853
8.0,2.0,2.854
3.0,4.0,2.855
3.0,4.0,2.856
7.0,1.0,2.857
4.0,0.0,2.858
0.0,1.0,2.859
-4.0,0.0,2.86
-5.0,-7.0,2.861
-7.0,-7.0,2.862
-1.0,-1.0,2.863
10.0,2.0,2.864
17.0,3.0,2.865
15.0,2.0,2.866
9.0,2.0,2.867
7.0,2.0,2.868
4.0,2.0,2.869
4.0,3.0,2.87
3.0,4.0,2.871
3.0,1.0,2.872
4.0,-2.0,2.873
2.0,-2.0,2.874
1.0,0.0,2.875
3.0,0.0,2.876
4.0,1.0,2.877
2.0,0.0,2.878
0.0,3.0,2.879
-1.0,3.0,2.88
-2.0,-3.0,2.881
-4.0,-7.0,2.882
-3.0,-8.0,2.883
3.0,-5.0,2.884
6.0,1.0,2.885
4.0,1.0,2.886
2.0,-1.0,2.887
7.0,-2.0,2.888
12.0,-1.0,2.889
11.0,1.0,2.89
7.0,0.0,2.891
8.0,-3.0,2.892
12.0,0.0,2.893
11.0,2.0,2.894
5.0,2.0,2.895
3.0,-2.0,2.896
6.0,-2.0,2.897
6.0,-3.0,2.898
1.0,-3.0,2.899
-3.0,-4.0,2.9
-5.0,-7.0,2.901
-4.0,-4.0,2.902
0.0,-2.0,2.903
1.0,1.0,2.904
1.0,3.0,2.905
-2.0,1.0,2.906
-4.0,-2.0,2.907
-3.0,-7.0,2.908
-2.0,-6.0,2.909
-4.0,-4.0,2.91
-7.0,-2.0,2.911
-5.0,-4.0,2.912
-3.0,-3.0,2.913
-6.0,-1.0,2.914
-9.0,0.0,2.915
-9.0,0.0,2.916
-2.0,-1.0,2.917
1.0,-1.0,2.918
0.0,-3.0,2.919
-6.0,-2.0,2.92
-9.0,-3.0,2.921
-5.0,0.0,2.922
0.0,1.0,2.923
5.0,1.0,2.924
5.0,1.0,2.925
1.0,3.0,2.926
2.0,4.0,2.927
4.0,3.0,2.928
5.0,2.0,2.929
1.0,2.0,2.93
0.0,1.0,2.931
4.0,0.0,2.932
5.0,0.0,2.933
2.0,1.0,2.934
1.0,4.0,2.935
5.0,4.0,2.936
7.0,2.0,2.937
2.0,-1.0,2.938
0.0,-3.0,2.939
-2.0,-2.0,2.94
-2.0,-4.0,2.941
-1.0,-5.0,2.942
4.0,-3.0,2.943
9.0,-1.0,2.944
10.0,-1.0,2.945
10.0,-1.0,2.946
5.0,-1.0,2.947
2.0,-3.0,2.948
7.0,-4.0,2.949
10.0,-3.0,2.95
7.0,0.0,2.951
4.0,1.0,2.952
5.0,-1.0,2.953
5.0,0.0,2.954
3.0,4.0,2.955
2.0,5.0,2.956
3.0,4.0,2.957
4.0,0.0,2.958
-1.0,-2.0,2.959
-4.0,-6.0,2.96
-4.0,-13.0,2.961
-2.0,-13.0,2.962
5.0,-7.0,2.963
14.0,-2.0,2.964
14.0,-1.0,2.965
8.0,0.0,2.966
3.0,1.0,2.967
6.0,0.0,2.968
7.0,-5.0,2.969
0.0,-7.0,2.97
-5.0,-3.0,2.971
-4.0,0.0,2.972
1.0,0.0,2.973
0.0,-2.0,2.974
-2.0,0.0,2.975
-1.0,2.0,2.976
4.0,4.0,2.977
5.0,2.0,2.978
2.0,-1.0,2.979
-3.0,-2.0,2.98
-6.0,-5.0,2.981
-5.0,-5.0,2.982
0.0,-3.0,2.983
7.0,0.0,2.984
10.0,3.0,2.985
7.0,2.0,2.986
5.0,0.0,2.987
6.0,-2.0,2.988
8.0,-1.0,2.989
5.0,1.0,2.99
0.0,0.0,2.991
-2.0,-1.0,2.992
-3.0,-1.0,2.993
-1.0,0.0,2.994
2.0,4.0,2.995
4.0,8.0,2.996
5.0,10.0,2.997
1.0,7.0,2.998
-1.0,2.0,2.999
-3.0,-1.0,3.0
-5.0,-3.0,3.001
-5.0,-3.0,3.002
0.0,-4.0,3.003
7.0,-5.0,3.004
10.0,0.0,3.005
6.0,6.0,3.006
3.0,6.0,3.007
4.0,0.0,3.008
5.0,-4.0,3.009
4.0,-4.0,3.01
3.0,-1.0,3.011
2.0,-2.0,3.012
2.0,-2.0,3.013
3.0,-2.0,3.014
5.0,-2.0,3.015
6.0,-2.0,3.016
8.0,1.0,3.017
6.0,2.0,3.018
4.0,2.0,3.019
2.0,0.0,3.02
0.0,-4.0,3.021
-1.0,-6.0,3.022
4.0,-6.0,3.023
9.0,-3.0,3.024
5.0,1.0,3.025
1.0,1.0,3.026
-1.0,0.0,3.027
-4.0,-1.0,3.028
-4.0,1.0,3.029
-3.0,3.0,3.03
-4.0,3.0,3.031
-6.0,2.0,3.032
-6.0,0.0,3.033
-6.0,-2.0,3.034
-2.0,-4.0,3.035
1.0,-2.0,3.036
1.0,1.0,3.037
-1.0,1.0,3.038
-1.0,0.0,3.039
-4.0,-1.0,3.04
-7.0,-5.0,3.041
-8.0,-5.0,3.042
0.0,-4.0,3.043
8.0,2.0,3.044
9.0,5.0,3.045
1.0,2.0,3.046
-3.0,-2.0,3.047
0.0,-2.0,3.048
3.0,2.0,3.049
3.0,5.0,3.05
5.0,2.0,3.051
6.0,-1.0,3.052
6.0,0.0,3.053
4.0,3.0,3.054
1.0,3.0,3.055
1.0,3.0,3.056
2.0,4.0,3.057
2.0,3.0,3.058
2.0,-3.0,3.059
2.0,-7.0,3.06
2.0,-8.0,3.061
2.0,-4.0,3.062
8.0,-1.0,3.063
17.0,-4.0,3.064
19.0,-4.0,3.065
12.0,-1.0,3.066
5.0,2.0,3.067
5.0,1.0,3.068
6.0,-1.0,3.069
3.0,-2.0,3.07
1.0,-2.0,3.071
2.0,-3.0,3.072
5.0,-2.0,3.073
7.0,0.0,3.074
9.0,2.0,3.075
11.0,1.0,3.076
10.0,-1.0,3.077
6.0,-3.0,3.078
4.0,-3.0,3.079
4.0,-1.0,3.08
5.0,-2.0,3.081
6.0,-1.0,3.082
9.0,3.0,3.083
13.0,6.0,3.084
11.0,6.0,3.085
4.0,4.0,3.086
2.0,-1.0,3.087
3.0,-2.0,3.088
3.0,-1.0,3.089
0.0,2.0,3.09
-2.0,3.0,3.091
-2.0,0.0,3.092
-2.0,2.0,3.093
-3.0,3.0,3.094
-1.0,3.0,3.095
3.0,-1.0,3.096
4.0,-1.0,3.097
3.0,1.0,3.098
1.0,1.0,3.099
0.0,-4.0,3.1
-2.0,-9.0,3.101
-3.0,-5.0,3.102
4.0,0.0,3.103
10.0,-1.0,3.104
9.0,-3.0,3.105
7.0,0.0,3.106
5.0,0.0,3.107
2.0,-3.0,3.108
0.0,-8.0,3.109
-2.0,-7.0,3.11
0.0,-3.0,3.111
1.0,-2.0,3.112
1.0,0.0,3.113
0.0,2.0,3.114
-1.0,3.0,3.115
-3.0,0.0,3.116
-1.0,0.0,3.117
1.0,0.0,3.118
0.0,0.0,3.119
0.0,-2.0,3.12
-4.0,-6.0,3.121
-7.0,-7.0,3.122
-4.0,-6.0,3.123
3.0,-2.0,3.124
5.0,2.0,3.125
-1.0,4.0,3.126
-6.0,2.0,3.127
-2.0,0.0,3.128
2.0,2.0,3.129
0.0,5.0,3.13
-3.0,3.0,3.131
-2.0,-2.0,3.132
3.0,-3.0,3.133
4.0,1.0,3.134
1.0,4.0,3.135
0.0,4.0,3.136
2.0,5.0,3.137
1.0,3.0,3.138
0.0,-1.0,3.139
-3.0,-7.0,3.14
-3.0,-10.0,3.141
-1.0,-5.0,3.142
8.0,-2.0,3.143
15.0,-3.0,3.144
12.0,-3.0,3.145
9.0,-2.0,3.146
7.0,0.0,3.147
5.0,1.0,3.148
5.0,3.0,3.149
6.0,2.0,3.15
4.0,-1.0,3.151
3.0,-3.0,3.152
3.0,-3.0,3.153
3.0,-2.0,3.154
4.0,-1.0,3.155
5.0,1.0,3.156
2.0,4.0,3.157
-1.0,1.0,3.158
-3.0,-3.0,3.159
-5.0,-7.0,3.16
-7.0,-6.0,3.161
-6.0,-4.0,3.162
1.0,-2.0,3.163
8.0,0.0,3.164
9.0,1.0,3.165
5.0,3.0,3.166
5.0,3.0,3.167
7.0,3.0,3.168
4.0,3.0,3.169
-2.0,4.0,3.17
-4.0,4.0,3.171
-2.0,4.0,3.172
0.0,3.0,3.173
1.0,2.0,3.174
3.0,3.0,3.175
7.0,4.0,3.176
13.0,2.0,3.177
16.0,1.0,3.178
17.0,0.0,3.179
14.0,1.0,3.18
10.0,0.0,3.181
9.0,-3.0,3.182
17.0,-4.0,3.183
24.0,-2.0,3.184
22.0,-1.0,3.185
15.0,-1.0,3.186
10.0,-4.0,3.187
9.0,-4.0,3.188
8.0,-1.0,3.189
4.0,4.0,3.19
4.0,5.0,3.191
2.0,3.0,3.192
-1.0,0.0,3.193
-6.0,-2.0,3.194
-8.0,0.0,3.195
-5.0,1.0,3.196
-2.0,3.0,3.197
-5.0,0.0,3.198
-7.0,-3.0,3.199
-9.0,-4.0,3.2
-7.0,-5.0,3.201
-5.0,-3.0,3.202
-1.0,-4.0,3.203
2.0,-4.0,3.204
2.0,-1.0,3.205
1.0,2.0,3.206
0.0,1.0,3.207
-2.0,-4.0,3.208
-3.0,-4.0,3.209
-4.0,0.0,3.21
-5.0,2.0,3.211
-6.0,0.0,3.212
-2.0,-2.0,3.213
0.0,-2.0,3.214
-1.0,-1.0,3.215
-2.0,-3.0,3.216
1.0,-2.0,3.217
3.0,-2.0,3.218
0.0,-2.0,3.219
-5.0,-1.0,3.22
-6.0,-4.0,3.221
-5.0,-6.0,3.222
1.0,-4.0,3.223
9.0,-2.0,3.224
12.0,0.0,3.225
7.0,3.0,3.226
1.0,3.0,3.227
0.0,2.0,3.228
2.0,0.0,3.229
2.0,-3.0,3.23
2.0,-3.0,3.231
4.0,-2.0,3.232
7.0,-2.0,3.233
7.0,-2.0,3.234
5.0,0.0,3.235
6.0,1.0,3.236
9.0,1.0,3.237
5.0,0.0,3.238
-4.0,-3.0,3.239
-10.0,-2.0,3.24
-10.0,-2.0,3.241
-6.0,-2.0,3.242
-1.0,-4.0,3.243
6.0,-3.0,3.244
12.0,0.0,3.245
10.0,5.0,3.246
3.0,4.0,3.247
0.0,0.0,3.248
2.0,-3.0,3.249
5.0,-1.0,3.25
9.0,0.0,3.251
14.0,-2.0,3.252
19.0,-4.0,3.253
12.0,-4.0,3.254
-3.0,-3.0,3.255
-15.0,-2.0,3.256
-16.0,0.0,3.257
-13.0,0.0,3.258
-8.0,1.0,3.259
-8.0,0.0,3.26
-7.0,-5.0,3.261
-1.0,-6.0,3.262
6.0,-4.0,3.263
6.0,0.0,3.264
-1.0,4.0,3.265
-4.0,6.0,3.266
3.0,6.0,3.267
16.0,4.0,3.268
20.0,0.0,3.269
14.0,0.0,3.27
7.0,-1.0,3.271
2.0,-1.0,3.272
-3.0,0.0,3.273
-12.0,4.0,3.274
-18.0,4.0,3.275
-17.0,0.0,3.276
-9.0,0.0,3.277
0.0,0.0,3.278
12.0,2.0,3.279
14.0,1.0,3.28
9.0,-5.0,3.281
3.0,-6.0,3.282
5.0,-5.0,3.283
13.0,-3.0,3.284
15.0,0.0,3.285
8.0,1.0,3.286
7.0,0.0,3.287
21.0,-2.0,3.288
41.0,-3.0,3.289
46.0,1.0,3.29
28.0,4.0,3.291
1.0,2.0,3.292
-17.0,-2.0,3.293
-23.0,-3.0,3.294
-31.0,-3.0,3.295
-49.0,-3.0,3.296
-61.0,-1.0,3.297
-57.0,-1.0,3.298
-28.0,0.0,3.299
2.0,-1.0,3.3
14.0,-7.0,3.301
12.0,-8.0,3.302
16.0,-6.0,3.303
29.0,0.0,3.304
36.0,4.0,3.305
29.0,5.0,3.306
26.0,4.0,3.307
33.0,3.0,3.308
34.0,0.0,3.309
19.0,0.0,3.31
3.0,-2.0,3.311
4.0,-2.0,3.312
11.0,0.0,3.313
12.0,2.0,3.314
12.0,1.0,3.315
12.0,0.0,3.316
1.0,3.0,3.317
-19.0,6.0,3.318
-26.0,6.0,3.319
-18.0,0.0,3.32
-7.0,-5.0,3.321
-8.0,-7.0,3.322
-5.0,-5.0,3.323
9.0,-3.0,3.324
16.0,-1.0,3.325
5.0,1.0,3.326
-4.0,-1.0,3.327
1.0,-4.0,3.328
9.0,-2.0,3.329
4.0,2.0,3.33
-1.0,3.0,3.331
1.0,1.0,3.332
7.0,0.0,3.333
9.0,1.0,3.334
10.0,0.0,3.335
12.0,-2.0,3.336
10.0,-1.0,3.337
3.0,2.0,3.338
0.0,6.0,3.339
2.0,4.0,3.34
2.0,0.0,3.341
1.0,-1.0,3.342
6.0,-1.0,3.343
14.0,-4.0,3.344
12.0,-4.0,3.345
2.0,-1.0,3.346
-3.0,0.0,3.347
5.0,-2.0,3.348
16.0,-2.0,3.349
18.0,2.0,3.35
15.0,5.0,3.351
8.0,1.0,3.352
-5.0,-3.0,3.353
-23.0,-1.0,3.354
-32.0,4.0,3.355
-27.0,4.0,3.356
-18.0,3.0,3.357
-16.0,2.0,3.358
-15.0,2.0,3.359
-12.0,1.0,3.36
-5.0,-3.0,3.361
3.0,-3.0,3.362
17.0,-3.0,3.363
27.0,0.0,3.364
17.0,5.0,3.365
6.0,8.0,3.366
-7.0,3.0,3.367
-19.0,-6.0,3.368
-23.0,-7.0,3.369
-29.0,1.0,3.37
-42.0,5.0,3.371
-46.0,0.0,3.372
-24.0,-4.0,3.373
-3.0,-1.0,3.374
15.0,4.0,3.375
30.0,6.0,3.376
31.0,7.0,3.377
33.0,8.0,3.378
35.0,9.0,3.379
35.0,8.0,3.38
25.0,1.0,3.381
11.0,-5.0,3.382
9.0,-12.0,3.383
22.0,-17.0,3.384
28.0,-12.0,3.385
15.0,-5.0,3.386
0.0,4.0,3.387
1.0,12.0,3.388
7.0,13.0,3.389
9.0,16.0,3.39
12.0,28.0,3.391
28.0,38.0,3.392
42.0,42.0,3.393
39.0,41.0,3.394
28.0,27.0,3.395
26.0,6.0,3.396
30.0,-36.0,3.397
1.0,-76.0,3.398
-3.0,-88.0,3.399
-7.0,-74.0,3.4
-7.0,-56.0,3.401
-4.0,-41.0,3.402
9.0,-29.0,3.403
19.0,-19.0,3.404
12.0,-11.0,3.405
6.0,-1.0,3.406
3.0,13.0,3.407
0.0,29.0,3.408
-3.0,45.0,3.409
-6.0,55.0,3.41
-6.0,55.0,3.411
-4.0,32.0,3.412
-7.0,-7.0,3.413
-10.0,-49.0,3.414
-14.0,-76.0,3.415
-17.0,-80.0,3.416
-20.0,-65.0,3.417
0.0,-39.0,3.418
-3.0,-15.0,3.419
-6.0,2.0,3.42
-6.0,9.0,3.421
-4.0,15.0,3.422
5.0,20.0,3.423
11.0,22.0,3.424
7.0,22.0,3.425
3.0,24.0,3.426
1.0,25.0,3.427
-1.0,23.0,3.428
-3.0,22.0,3.429
-5.0,23.0,3.43
-5.0,22.0,3.431
-4.0,16.0,3.432
-6.0,11.0,3.433
-8.0,12.0,3.434
-10.0,11.0,3.435
-12.0,9.0,3.436
-14.0,6.0,3.437
-18.0,3.0,3.438
-29.0,1.0,3.439
-41.0,0.0,3.44
-50.0,0.0,3.441
-54.0,-1.0,3.442
-54.0,-1.0,3.443
-50.0,-1.0,3.444
-44.0,2.0,3.445
-30.0,4.0,3.446
-7.0,-1.0,3.447
23.0,-5.0,3.448
50.0,-3.0,3.449
69.0,-1.0,3.45
74.0,1.0,3.451
64.0,4.0,3.452
38.0,2.0,3.453
12.0,1.0,3.454
-4.0,2.0,3.455
-11.0,4.0,3.456
-12.0,8.0,3.457
-13.0,12.0,3.458
-5.0,17.0,3.459
12.0,20.0,3.46
37.0,24.0,3.461
79.0,32.0,3.462
122.0,43.0,3.463
138.0,57.0,3.464
102.0,71.0,3.465
40.0,77.0,3.466
-1.0,65.0,3.467
-1.0,30.0,3.468
10.0,-23.0,3.469
0.0,-79.0,3.47
-34.0,-118.0,3.471
-61.0,-127.0,3.472
-55.0,-107.0,3.473
-24.0,-68.0,3.474
10.0,-22.0,3.475
34.0,26.0,3.476
48.0,72.0,3.477
53.0,102.0,3.478
48.0,102.0,3.479
34.0,72.0,3.48
-6.0,26.0,3.481
-40.0,-31.0,3.482
-53.0,-106.0,3.483
-58.0,-179.0,3.484
-37.0,-195.0,3.485
-29.0,-131.0,3.486
-63.0,-48.0,3.487
-79.0,-25.0,3.488
-33.0,-55.0,3.489
6.0,-50.0,3.49
30.0,32.0,3.491
42.0,129.0,3.492
16.0,153.0,3.493
-5.0,104.0,3.494
-13.0,27.0,3.495
-18.0,-42.0,3.496
-12.0,-78.0,3.497
-14.0,-63.0,3.498
-48.0,-9.0,3.499
-79.0,17.0,3.5
-79.0,-24.0,3.501
-72.0,-71.0,3.502
-87.0,-57.0,3.503
-111.0,-5.0,3.504
-113.0,27.0,3.505
-87.0,44.0,3.506
-45.0,88.0,3.507
7.0,142.0,3.508
68.0,131.0,3.509
119.0,23.0,3.51
154.0,-119.0,3.511
189.0,-187.0,3.512
216.0,-131.0,3.513
200.0,-9.0,3.514
129.0,67.0,3.515
46.0,41.0,3.516
0.0,-28.0,3.517
-20.0,-54.0,3.518
-49.0,-8.0,3.519
-86.0,51.0,3.52
-91.0,70.0,3.521
-45.0,61.0,3.522
30.0,63.0,3.523
94.0,99.0,3.524
123.0,153.0,3.525
113.0,181.0,3.526
79.0,138.0,3.527
46.0,41.0,3.528
24.0,-36.0,3.529
11.0,-42.0,3.53
-7.0,-23.0,3.531
-36.0,-69.0,3.532
-82.0,-166.0,3.533
-137.0,-206.0,3.534
-169.0,-144.0,3.535
-153.0,-60.0,3.536
-120.0,-35.0,3.537
-122.0,-37.0,3.538
-150.0,18.0,3.539
-126.0,127.0,3.54
-13.0,199.0,3.541
111.0,183.0,3.542
143.0,86.0,3.543
92.0,-62.0,3.544
46.0,-203.0,3.545
47.0,-246.0,3.546
44.0,-164.0,3.547
0.0,-58.0,3.548
-54.0,-36.0,3.549
-66.0,-71.0,3.55
-29.0,-69.0,3.551
21.0,-12.0,3.552
56.0,52.0,3.553
64.0,112.0,3.554
39.0,187.0,3.555
-11.0,240.0,3.556
-50.0,236.0,3.557
-41.0,208.0,3.558
19.0,225.0,3.559
74.0,235.0,3.56
114.0,126.0,3.561
147.0,-72.0,3.562
163.0,-194.0,3.563
160.0,-152.0,3.564
101.0,-61.0,3.565
26.0,-60.0,3.566
-91.0,-128.0,3.567
-168.0,-139.0,3.568
-121.0,-52.0,3.569
-78.0,43.0,3.57
-46.0,51.0,3.571
-28.0,-15.0,3.572
-56.0,-86.0,3.573
-100.0,-115.0,3.574
-192.0,-102.0,3.575
-247.0,-56.0,3.576
-193.0,14.0,3.577
-131.0,99.0,3.578
-63.0,153.0,3.579
-7.0,128.0,3.58
123.0,32.0,3.581
298.0,-52.0,3.582
386.0,-70.0,3.583
328.0,-36.0,3.584
221.0,17.0,3.585
168.0,102.0,3.586
147.0,226.0,3.587
71.0,323.0,3.588
-64.0,339.0,3.589
-168.0,332.0,3.59
-155.0,368.0,3.591
-34.0,365.0,3.592
93.0,205.0,3.593
133.0,-43.0,3.594
85.0,-197.0,3.595
33.0,-236.0,3.596
22.0,-304.0,3.597
7.0,-467.0,3.598
-54.0,-583.0,3.599
-109.0,-566.0,3.6
-109.0,-538.0,3.601
-92.0,-570.0,3.602
-101.0,-513.0,3.603
-105.0,-225.0,3.604
-65.0,159.0,3.605
-11.0,365.0,3.606
29.0,335.0,3.607
93.0,240.0,3.608
177.0,219.0,3.609
187.0,220.0,3.61
90.0,129.0,3.611
-3.0,-51.0,3.612
-3.0,-218.0,3.613
5.0,-310.0,3.614
-85.0,-383.0,3.615
-222.0,-493.0,3.616
-261.0,-570.0,3.617
-179.0,-496.0,3.618
-85.0,-285.0,3.619
-90.0,-131.0,3.62
-175.0,-156.0,3.621
-232.0,-221.0,3.622
-172.0,-130.0,3.623
-27.0,102.0,3.624
74.0,288.0,3.625
65.0,327.0,3.626
28.0,288.0,3.627
77.0,259.0,3.628
202.0,251.0,3.629
303.0,247.0,3.63
324.0,262.0,3.631
277.0,318.0,3.632
170.0,390.0,3.633
17.0,416.0,3.634
-117.0,355.0,3.635
-175.0,258.0,3.636
-170.0,208.0,3.637
-128.0,190.0,3.638
-36.0,118.0,3.639
49.0,-9.0,3.64
109.0,-36.0,3.641
139.0,131.0,3.642
81.0,321.0,3.643
35.0,313.0,3.644
28.0,154.0,3.645
42.0,60.0,3.646
125.0,75.0,3.647
164.0,48.0,3.648
67.0,-93.0,3.649
-21.0,-252.0,3.65
-84.0,-340.0,3.651
-114.0,-360.0,3.652
-42.0,-311.0,3.653
5.0,-177.0,3.654
-20.0,-31.0,3.655
-40.0,38.0,3.656
-43.0,51.0,3.657
-86.0,87.0,3.658
-256.0,126.0,3.659
-307.0,64.0,3.66
-168.0,-99.0,3.661
7.0,-236.0,3.662
82.0,-252.0,3.663
91.0,-174.0,3.664
109.0,-84.0,3.665
128.0,-61.0,3.666
116.0,-127.0,3.667
76.0,-203.0,3.668
12.0,-174.0,3.669
-73.0,-44.0,3.67
-130.0,69.0,3.671
-116.0,107.0,3.672
-64.0,132.0,3.673
-34.0,183.0,3.674
-27.0,183.0,3.675
-14.0,90.0,3.676
-10.0,4.0,3.677
-48.0,34.0,3.678
-75.0,154.0,3.679
-45.0,220.0,3.68
30.0,156.0,3.681
116.0,39.0,3.682
198.0,-18.0,3.683
251.0,26.0,3.684
216.0,110.0,3.685
83.0,123.0,3.686
-59.0,22.0,3.687
-133.0,-95.0,3.688
-157.0,-104.0,3.689
-171.0,-16.0,3.69
-150.0,43.0,3.691
-63.0,15.0,3.692
47.0,-21.0,3.693
111.0,-14.0,3.694
140.0,-22.0,3.695
187.0,-93.0,3.696
238.0,-160.0,3.697
222.0,-157.0,3.698
120.0,-107.0,3.699
-13.0,-86.0,3.7
-115.0,-105.0,3.701
-196.0,-112.0,3.702
-266.0,-116.0,3.703
-290.0,-160.0,3.704
-230.0,-201.0,3.705
-120.0,-145.0,3.706
-21.0,-7.0,3.707
50.0,89.0,3.708
103.0,74.0,3.709
129.0,35.0,3.71
116.0,53.0,3.711
85.0,70.0,3.712
73.0,13.0,3.713
87.0,-58.0,3.714
101.0,-50.0,3.715
112.0,-10.0,3.716
138.0,-30.0,3.717
161.0,-45.0,3.718
146.0,-166.0,3.719
105.0,-236.0,3.72
-9.0,-146.0,3.721
-104.0,-63.0,3.722
-138.0,-6.0,3.723
-176.0,39.0,3.724
-222.0,47.0,3.725
-256.0,66.0,3.726
-254.0,114.0,3.727
-233.0,146.0,3.728
-158.0,130.0,3.729
-78.0,116.0,3.73
11.0,106.0,3.731
82.0,93.0,3.732
92.0,67.0,3.733
96.0,39.0,3.734
75.0,3.0,3.735
50.0,-23.0,3.736
15.0,-17.0,3.737
-23.0,-36.0,3.738
-36.0,-138.0,3.739
35.0,-197.0,3.74
102.0,-121.0,3.741
81.0,-51.0,3.742
18.0,-3.0,3.743
1.0,35.0,3.744
31.0,42.0,3.745
50.0,58.0,3.746
51.0,98.0,3.747
57.0,125.0,3.748
64.0,112.0,3.749
38.0,100.0,3.75
-16.0,92.0,3.751
-44.0,81.0,3.752
0.0,59.0,3.753
95.0,35.0,3.754
167.0,4.0,3.755
154.0,-18.0,3.756
75.0,-13.0,3.757
-19.0,5.0,3.758
-82.0,54.0,3.759
-120.0,57.0,3.76
-147.0,14.0,3.761
-146.0,-8.0,3.762
-87.0,23.0,3.763
20.0,78.0,3.764
126.0,124.0,3.765
186.0,151.0,3.766
183.0,125.0,3.767
130.0,25.0,3.768
68.0,-77.0,3.769
42.0,-72.0,3.77
62.0,46.0,3.771
97.0,139.0,3.772
113.0,96.0,3.773
112.0,-57.0,3.774
108.0,-209.0,3.775
97.0,-271.0,3.776
55.0,-221.0,3.777
-41.0,-101.0,3.778
-167.0,-18.0,3.779
-255.0,-49.0,3.78
-254.0,-139.0,3.781
-175.0,-180.0,3.782
-84.0,-160.0,3.783
-21.0,-160.0,3.784
14.0,-217.0,3.785
9.0,-278.0,3.786
-42.0,-286.0,3.787
-102.0,-229.0,3.788
-125.0,-120.0,3.789
-120.0,7.0,3.79
-125.0,102.0,3.791
-121.0,140.0,3.792
-60.0,141.0,3.793
30.0,135.0,3.794
89.0,131.0,3.795
108.0,143.0,3.796
111.0,175.0,3.797
86.0,201.0,3.798
40.0,178.0,3.799
7.0,123.0,3.8
19.0,108.0,3.801
25.0,150.0,3.802
14.0,155.0,3.803
0.0,50.0,3.804
-20.0,-99.0,3.805
-39.0,-169.0,3.806
-57.0,-115.0,3.807
-51.0,-8.0,3.808
32.0,72.0,3.809
82.0,114.0,3.81
29.0,138.0,3.811
-4.0,147.0,3.812
23.0,146.0,3.813
49.0,145.0,3.814
69.0,125.0,3.815
97.0,37.0,3.816
149.0,-106.0,3.817
184.0,-207.0,3.818
106.0,-196.0,3.819
-27.0,-180.0,3.82
-114.0,-151.0,3.821
-145.0,-126.0,3.822
-163.0,-113.0,3.823
-169.0,-108.0,3.824
-121.0,-130.0,3.825
-27.0,-134.0,3.826
40.0,-78.0,3.827
42.0,-22.0,3.828
27.0,31.0,3.829
61.0,84.0,3.83
135.0,132.0,3.831
187.0,170.0,3.832
172.0,178.0,3.833
108.0,166.0,3.834
46.0,92.0,3.835
18.0,23.0,3.836
7.0,-30.0,3.837
-38.0,-85.0,3.838
-140.0,-104.0,3.839
-243.0,-45.0,3.84
-264.0,13.0,3.841
-192.0,5.0,3.842
-95.0,-20.0,3.843
-28.0,11.0,3.844
17.0,74.0,3.845
61.0,83.0,3.846
87.0,29.0,3.847
65.0,-26.0,3.848
4.0,-55.0,3.849
-42.0,-63.0,3.85
-33.0,-43.0,3.851
19.0,10.0,3.852
66.0,52.0,3.853
71.0,42.0,3.854
46.0,10.0,3.855
37.0,16.0,3.856
61.0,58.0,3.857
87.0,74.0,3.858
71.0,46.0,3.859
8.0,8.0,3.86
-51.0,-3.0,3.861
-73.0,1.0,3.862
-73.0,-9.0,3.863
-65.0,-40.0,3.864
-31.0,-84.0,3.865
56.0,-140.0,3.866
155.0,-195.0,3.867
188.0,-208.0,3.868
140.0,-143.0,3.869
71.0,-23.0,3.87
29.0,65.0,3.871
2.0,63.0,3.872
-34.0,13.0,3.873
-70.0,9.0,3.874
-82.0,78.0,3.875
-71.0,157.0,3.876
-44.0,176.0,3.877
3.0,137.0,3.878
9.0,78.0,3.879
11.0,26.0,3.88
-4.0,-15.0,3.881
-14.0,-24.0,3.882
-11.0,-5.0,3.883
-9.0,9.0,3.884
-6.0,-3.0,3.885
-6.0,-32.0,3.886
-18.0,-66.0,3.887
-27.0,-106.0,3.888
-25.0,-136.0,3.889
-24.0,-116.0,3.89
-30.0,-52.0,3.891
-23.0,-15.0,3.892
19.0,-40.0,3.893
65.0,-68.0,3.894
118.0,-32.0,3.895
155.0,43.0,3.896
145.0,92.0,3.897
-15.0,-45.0,3.898
0.0,-33.0,3.899
3.0,-19.0,3.9
-30.0,-3.0,3.901
-53.0,8.0,3.902
-47.0,-4.0,3.903
-41.0,-13.0,3.904
-35.0,-13.0,3.905
-36.0,-13.0,3.906
-63.0,-14.0,3.907
-83.0,-18.0,3.908
-79.0,-31.0,3.909
-77.0,-36.0,3.91
-89.0,-16.0,3.911
-73.0,5.0,3.912
25.0,23.0,3.913
129.0,25.0,3.914
249.0,-19.0,3.915
333.0,-66.0,3.916
310.0,-122.0,3.917
262.0,-67.0,3.918
144.0,-44.0,3.919
63.0,-18.0,3.92
24.0,12.0,3.921
-22.0,31.0,3.922
-72.0,9.0,3.923
-100.0,-7.0,3.924
-115.0,-7.0,3.925
-148.0,-7.0,3.926
-177.0,-8.0,3.927
-154.0,-15.0,3.928
-88.0,-40.0,3.929
-26.0,-49.0,3.93
17.0,-11.0,3.931
60.0,26.0,3.932
99.0,58.0,3.933
115.0,63.0,3.934
109.0,-18.0,3.935
78.0,-104.0,3.936
28.0,-206.0,3.937
-13.0,-267.0,3.938
3.0,-154.0,3.939
63.0,-30.0,3.94
89.0,7.0,3.941
37.0,-10.0,3.942
-47.0,-13.0,3.943
-98.0,2.0,3.944
-81.0,13.0,3.945
-6.0,21.0,3.946
78.0,36.0,3.947
101.0,49.0,3.948
40.0,49.0,3.949
-43.0,34.0,3.95
-81.0,13.0,3.951
-82.0,1.0,3.952
-101.0,17.0,3.953
-147.0,38.0,3.954
-185.0,27.0,3.955
-189.0,-1.0,3.956
-170.0,16.0,3.957
-130.0,82.0,3.958
-63.0,117.0,3.959
1.0,75.0,3.96
55.0,19.0,3.961
94.0,33.0,3.962
87.0,75.0,3.963
84.0,59.0,3.964
100.0,-17.0,3.965
128.0,-86.0,3.966
194.0,-105.0,3.967
227.0,-81.0,3.968
158.0,-40.0,3.969
83.0,-14.0,3.97
-7.0,-14.0,3.971
-71.0,-13.0,3.972
-53.0,15.0,3.973
-38.0,52.0,3.974
-34.0,67.0,3.975
-31.0,73.0,3.976
-29.0,91.0,3.977
-29.0,96.0,3.978
-25.0,70.0,3.979
-3.0,49.0,3.98
8.0,41.0,3.981
-2.0,33.0,3.982
-1.0,27.0,3.983
23.0,13.0,3.984
37.0,-22.0,3.985
28.0,-57.0,3.986
39.0,-90.0,3.987
79.0,-123.0,3.988
71.0,-151.0,3.989
-33.0,-170.0,3.99
-170.0,-158.0,3.991
-219.0,-137.0,3.992
-155.0,-90.0,3.993
-75.0,-48.0,3.994
-63.0,-24.0,3.995
-90.0,3.0,3.996
-83.0,36.0,3.997
-43.0,66.0,3.998
-25.0,74.0,3.999
-38.0,69.0,4.0
-10.0,45.0,4.001
99.0,-3.0,4.002
224.0,-57.0,4.003
275.0,-70.0,4.004
234.0,-15.0,4.005
152.0,63.0,4.006
75.0,74.0,4.007
17.0,-6.0,4.008
-30.0,-87.0,4.009
-67.0,-76.0,4.01
-86.0,-10.0,4.011
-77.0,1.0,4.012
-41.0,-44.0,4.013
-3.0,-38.0,4.014
10.0,56.0,4.015
-3.0,136.0,4.016
-17.0,129.0,4.017
-13.0,78.0,4.018
0.0,62.0,4.019
4.0,70.0,4.02
14.0,49.0,4.021
68.0,8.0,4.022
170.0,-36.0,4.023
245.0,-85.0,4.024
208.0,-116.0,4.025
53.0,-80.0,4.026
-120.0,-3.0,4.027
-221.0,30.0,4.028
-234.0,7.0,4.029
-191.0,7.0,4.03
-108.0,58.0,4.031
1.0,84.0,4.032
89.0,42.0,4.033
103.0,-3.0,4.034
56.0,13.0,4.035
18.0,63.0,4.036
11.0,85.0,4.037
-4.0,53.0,4.038
-42.0,-6.0,4.039
-71.0,-48.0,4.04
-67.0,-32.0,4.041
-66.0,51.0,4.042
-77.0,113.0,4.043
-71.0,57.0,4.044
-10.0,-79.0,4.045
45.0,-128.0,4.046
84.0,-10.0,4.047
111.0,150.0,4.048
101.0,182.0,4.049
96.0,94.0,4.05
110.0,17.0,4.051
109.0,-14.0,4.052
57.0,-77.0,4.053
20.0,-185.0,4.054
34.0,-243.0,4.055
38.0,-195.0,4.056
8.0,-118.0,4.057
-51.0,-99.0,4.058
-195.0,-117.0,4.059
-249.0,-122.0,4.06
-199.0,-84.0,4.061
-126.0,-46.0,4.062
-56.0,-8.0,4.063
26.0,18.0,4.064
97.0,8.0,4.065
107.0,10.0,4.066
69.0,50.0,4.067
25.0,72.0,4.068
-13.0,38.0,4.069
-34.0,0.0,4.07
4.0,-53.0,4.071
89.0,-62.0,4.072
112.0,59.0,4.073
13.0,151.0,4.074
-109.0,147.0,4.075
-138.0,154.0,4.076
-93.0,194.0,4.077
-48.0,222.0,4.078
-11.0,176.0,4.079
53.0,115.0,4.08
128.0,98.0,4.081
149.0,78.0,4.082
118.0,-16.0,4.083
83.0,-134.0,4.084
52.0,-161.0,4.085
0.0,-73.0,4.086
-64.0,40.0,4.087
-96.0,99.0,4.088
-90.0,110.0,4.089
-75.0,103.0,4.09
-57.0,73.0,4.091
-20.0,-4.0,4.092
36.0,-102.0,4.093
84.0,-159.0,4.094
96.0,-155.0,4.095
65.0,-129.0,4.096
8.0,-122.0,4.097
-49.0,-131.0,4.098
-59.0,-135.0,4.099
-9.0,-154.0,4.1
49.0,-217.0,4.101
66.0,-272.0,4.102
54.0,-236.0,4.103
52.0,-113.0,4.104
58.0,2.0,4.105
36.0,57.0,4.106
-18.0,92.0,4.107
-55.0,146.0,4.108
-47.0,186.0,4.109
-26.0,186.0,4.11
-31.0,173.0,4.111
-51.0,170.0,4.112
-42.0,152.0,4.113
-1.0,100.0,4.114
43.0,39.0,4.115
63.0,-1.0,4.116
61.0,-16.0,4.117
41.0,-24.0,4.118
11.0,-20.0,4.119
-14.0,-19.0,4.12
-22.0,-43.0,4.121
-33.0,-71.0,4.122
-50.0,-75.0,4.123
-72.0,-50.0,4.124
-108.0,-16.0,4.125
-130.0,16.0,4.126
-106.0,35.0,4.127
-80.0,26.0,4.128
-52.0,6.0,4.129
-22.0,16.0,4.13
7.0,53.0,4.131
32.0,56.0,4.132
37.0,9.0,4.133
48.0,-24.0,4.134
74.0,0.0,4.135
111.0,34.0,4.136
177.0,29.0,4.137
231.0,6.0,4.138
203.0,10.0,4.139
115.0,14.0,4.14
36.0,15.0,4.141
3.0,21.0,4.142
-15.0,45.0,4.143
-59.0,61.0,4.144
-107.0,54.0,4.145
-110.0,49.0,4.146
-75.0,55.0,4.147
-60.0,55.0,4.148
-76.0,34.0,4.149
-69.0,12.0,4.15
-1.0,-13.0,4.151
78.0,-32.0,4.152
100.0,-32.0,4.153
60.0,-47.0,4.154
12.0,-103.0,4.155
-11.0,-163.0,4.156
-13.0,-235.0,4.157
-7.0,-267.0,4.158
-5.0,-125.0,4.159
-28.0,13.0,4.16
-79.0,40.0,4.161
-126.0,7.0,4.162
-139.0,22.0,4.163
-115.0,100.0,4.164
-69.0,155.0,4.165
-2.0,130.0,4.166
74.0,53.0,4.167
134.0,-7.0,4.168
158.0,-14.0,4.169
145.0,7.0,4.17
99.0,5.0,4.171
29.0,-33.0,4.172
-37.0,-82.0,4.173
-63.0,-104.0,4.174
-46.0,-91.0,4.175
-26.0,-56.0,4.176
-24.0,-18.0,4.177
-29.0,8.0,4.178
-25.0,29.0,4.179
-20.0,54.0,4.18
-12.0,76.0,4.181
15.0,78.0,4.182
54.0,57.0,4.183
67.0,31.0,4.184
38.0,19.0,4.185
2.0,25.0,4.186
-14.0,34.0,4.187
-27.0,42.0,4.188
-38.0,42.0,4.189
-16.0,19.0,4.19
44.0,-27.0,4.191
89.0,-68.0,4.192
90.0,-74.0,4.193
89.0,-42.0,4.194
115.0,-6.0,4.195
123.0,10.0,4.196
74.0,12.0,4.197
-11.0,15.0,4.198
-67.0,21.0,4.199
-74.0,9.0,4.2
-61.0,-25.0,4.201
-45.0,-61.0,4.202
-30.0,-70.0,4.203
-21.0,-50.0,4.204
-21.0,-19.0,4.205
-15.0,3.0,4.206
7.0,20.0,4.207
31.0,38.0,4.208
24.0,41.0,4.209
-8.0,10.0,4.21
-27.0,-32.0,4.211
-14.0,-37.0,4.212
11.0,0.0,4.213
13.0,28.0,4.214
-9.0,2.0,4.215
-38.0,-44.0,4.216
-57.0,-54.0,4.217
-61.0,-22.0,4.218
-51.0,4.0,4.219
-41.0,-1.0,4.22
-47.0,-20.0,4.221
-49.0,-25.0,4.222
-18.0,-23.0,4.223
31.0,-41.0,4.224
50.0,-60.0,4.225
28.0,-52.0,4.226
8.0,-17.0,4.227
18.0,16.0,4.228
28.0,38.0,4.229
11.0,60.0,4.23
-15.0,78.0,4.231
-14.0,78.0,4.232
-2.0,63.0,4.233
-7.0,55.0,4.234
-22.0,65.0,4.235
-25.0,65.0,4.236
-17.0,48.0,4.237
-6.0,27.0,4.238
13.0,28.0,4.239
36.0,38.0,4.24
40.0,32.0,4.241
24.0,9.0,4.242
29.0,-18.0,4.243
70.0,-46.0,4.244
102.0,-72.0,4.245
81.0,-84.0,4.246
28.0,-79.0,4.247
-3.0,-61.0,4.248
-4.0,-38.0,4.249
-3.0,-12.0,4.25
-13.0,14.0,4.251
-16.0,30.0,4.252
0.0,35.0,4.253
29.0,40.0,4.254
52.0,47.0,4.255
54.0,46.0,4.256
35.0,38.0,4.257
8.0,29.0,4.258
-9.0,21.0,4.259
-24.0,14.0,4.26
-35.0,3.0,4.261
-41.0,-4.0,4.262
-28.0,-23.0,4.263
-19.0,-68.0,4.264
-24.0,-106.0,4.265
-26.0,-93.0,4.266
-14.0,-33.0,4.267
-4.0,16.0,4.268
-1.0,18.0,4.269
-3.0,4.0,4.27
-25.0,12.0,4.271
-46.0,32.0,4.272
-64.0,39.0,4.273
-66.0,36.0,4.274
-14.0,35.0,4.275
25.0,20.0,4.276
27.0,-15.0,4.277
30.0,-39.0,4.278
48.0,-21.0,4.279
71.0,-8.0,4.28
49.0,-12.0,4.281
2.0,-16.0,4.282
-1.0,-16.0,4.283
44.0,-12.0,4.284
67.0,-1.0,4.285
36.0,7.0,4.286
-9.0,3.0,4.287
-25.0,2.0,4.288
-35.0,12.0,4.289
-66.0,21.0,4.29
-102.0,19.0,4.291
-116.0,18.0,4.292
-103.0,18.0,4.293
-77.0,20.0,4.294
-41.0,26.0,4.295
10.0,30.0,4.296
62.0,23.0,4.297
98.0,5.0,4.298
113.0,-41.0,4.299
109.0,-67.0,4.3
91.0,-56.0,4.301
65.0,-21.0,4.302
40.0,-1.0,4.303
23.0,-6.0,4.304
14.0,-15.0,4.305
3.0,-8.0,4.306
-11.0,2.0,4.307
-26.0,-2.0,4.308
-31.0,-11.0,4.309
-16.0,-6.0,4.31
22.0,11.0,4.311
61.0,22.0,4.312
74.0,22.0,4.313
57.0,23.0,4.314
23.0,23.0,4.315
-17.0,16.0,4.316
-49.0,5.0,4.317
-62.0,-9.0,4.318
-52.0,-20.0,4.319
-38.0,-28.0,4.32
-35.0,-29.0,4.321
-40.0,-15.0,4.322
-41.0,3.0,4.323
-49.0,10.0,4.324
-69.0,2.0,4.325
-78.0,-5.0,4.326
-49.0,-1.0,4.327
1.0,11.0,4.328
38.0,22.0,4.329
49.0,22.0,4.33
56.0,10.0,4.331
71.0,-4.0,4.332
78.0,-8.0,4.333
64.0,-1.0,4.334
40.0,11.0,4.335
24.0,19.0,4.336
21.0,21.0,4.337
21.0,11.0,4.338
14.0,-2.0,4.339
1.0,-18.0,4.34
-3.0,-28.0,4.341
12.0,-21.0,4.342
33.0,-8.0,4.343
36.0,-3.0,4.344
13.0,-6.0,4.345
-14.0,-4.0,4.346
-17.0,5.0,4.347
-8.0,10.0,4.348
-11.0,8.0,4.349
-16.0,6.0,4.35
1.0,7.0,4.351
32.0,-1.0,4.352
40.0,-18.0,4.353
17.0,-22.0,4.354
-4.0,-1.0,4.355
-3.0,16.0,4.356
4.0,12.0,4.357
-4.0,-5.0,4.358
-16.0,-8.0,4.359
-22.0,2.0,4.36
-10.0,4.0,4.361
-1.0,-6.0,4.362
-1.0,-13.0,4.363
-2.0,-8.0,4.364
0.0,0.0,4.365
-3.0,-4.0,4.366
-19.0,-16.0,4.367
-28.0,-23.0,4.368
-18.0,-19.0,4.369
-9.0,-7.0,4.37
0.0,3.0,4.371
7.0,8.0,4.372
4.0,9.0,4.373
1.0,8.0,4.374
-3.0,7.0,4.375
-4.0,5.0,4.376
1.0,4.0,4.377
5.0,4.0,4.378
-2.0,3.0,4.379
0.0,1.0,4.38
8.0,-2.0,4.381
5.0,-4.0,4.382
0.0,-2.0,4.383
5.0,1.0,4.384
11.0,7.0,4.385
2.0,14.0,4.386
-9.0,19.0,4.387
-4.0,19.0,4.388
14.0,4.0,4.389
23.0,-9.0,4.39
18.0,-13.0,4.391
9.0,-16.0,4.392
4.0,-11.0,4.393
0.0,-7.0,4.394
6.0,-7.0,4.395
16.0,-5.0,4.396
18.0,3.0,4.397
-1.0,10.0,4.398
-27.0,8.0,4.399
-44.0,4.0,4.4
-45.0,5.0,4.401
-41.0,10.0,4.402
-30.0,14.0,4.403
-14.0,14.0,4.404
4.0,18.0,4.405
18.0,18.0,4.406
26.0,15.0,4.407
24.0,7.0,4.408
14.0,-10.0,4.409
0.0,-39.0,4.41
-5.0,-62.0,4.411
1.0,-52.0,4.412
15.0,-13.0,4.413
21.0,13.0,4.414
22.0,7.0,4.415
22.0,-8.0,4.416
22.0,-7.0,4.417
16.0,2.0,4.418
1.0,6.0,4.419
-14.0,7.0,4.42
-20.0,13.0,4.421
-13.0,23.0,4.422
-1.0,20.0,4.423
10.0,8.0,4.424
13.0,-3.0,4.425
8.0,-12.0,4.426
2.0,-23.0,4.427
4.0,-22.0,4.428
10.0,-5.0,4.429
13.0,10.0,4.43
9.0,12.0,4.431
8.0,4.0,4.432
12.0,-3.0,4.433
14.0,-7.0,4.434
10.0,-9.0,4.435
7.0,-5.0,4.436
9.0,1.0,4.437
5.0,-3.0,4.438
-2.0,-6.0,4.439
-8.0,-3.0,4.44
-8.0,1.0,4.441
-5.0,0.0,4.442
4.0,-2.0,4.443
11.0,3.0,4.444
6.0,10.0,4.445
0.0,10.0,4.446
-5.0,4.0,4.447
-10.0,8.0,4.448
-8.0,18.0,4.449
-6.0,27.0,4.45
-7.0,32.0,4.451
-5.0,33.0,4.452
8.0,27.0,4.453
22.0,15.0,4.454
32.0,5.0,4.455
39.0,-2.0,4.456
31.0,-7.0,4.457
19.0,-19.0,4.458
2.0,-25.0,4.459
-6.0,-24.0,4.46
-13.0,-27.0,4.461
-24.0,-36.0,4.462
-29.0,-40.0,4.463
-19.0,-34.0,4.464
-3.0,-23.0,4.465
-2.0,-15.0,4.466
-8.0,-11.0,4.467
-10.0,-8.0,4.468
-2.0,-5.0,4.469
5.0,-5.0,4.47
7.0,-5.0,4.471
4.0,-4.0,4.472
-1.0,1.0,4.473
-4.0,8.0,4.474
-4.0,10.0,4.475
4.0,8.0,4.476
13.0,8.0,4.477
10.0,9.0,4.478
0.0,11.0,4.479
-3.0,8.0,4.48
0.0,2.0,4.481
3.0,1.0,4.482
2.0,1.0,4.483
3.0,-3.0,4.484
6.0,-2.0,4.485
10.0,7.0,4.486
12.0,15.0,4.487
10.0,14.0,4.488
8.0,4.0,4.489
7.0,-3.0,4.49
7.0,0.0,4.491
6.0,6.0,4.492
-1.0,8.0,4.493
-8.0,8.0,4.494
-7.0,8.0,4.495
-2.0,5.0,4.496
-4.0,-2.0,4.497
-13.0,-7.0,4.498
-17.0,-5.0,4.499
-7.0,-2.0,4.5
10.0,-9.0,4.501
18.0,-16.0,4.502
17.0,-13.0,4.503
18.0,-7.0,4.504
19.0,-8.0,4.505
19.0,-15.0,4.506
12.0,-19.0,4.507
4.0,-14.0,4.508
1.0,-3.0,4.509
0.0,5.0,4.51
8.0,3.0,4.511
17.0,0.0,4.512
18.0,2.0,4.513
9.0,10.0,4.514
2.0,12.0,4.515
-1.0,8.0,4.516
-3.0,5.0,4.517
-11.0,4.0,4.518
-14.0,4.0,4.519
-11.0,1.0,4.52
-8.0,-6.0,4.521
-3.0,-7.0,4.522
4.0,-5.0,4.523
9.0,-2.0,4.524
5.0,2.0,4.525
-6.0,7.0,4.526
-9.0,6.0,4.527
-4.0,4.0,4.528
-3.0,11.0,4.529
-11.0,26.0,4.53
-16.0,45.0,4.531
-9.0,65.0,4.532
0.0,83.0,4.533
8.0,92.0,4.534
15.0,75.0,4.535
18.0,36.0,4.536
19.0,0.0,4.537
14.0,-29.0,4.538
10.0,-57.0,4.539
7.0,-87.0,4.54
5.0,-109.0,4.541
2.0,-108.0,4.542
4.0,-97.0,4.543
9.0,-91.0,4.544
6.0,-81.0,4.545
1.0,-56.0,4.546
0.0,-29.0,4.547
1.0,-15.0,4.548
1.0,-8.0,4.549
-3.0,2.0,4.55
-5.0,17.0,4.551
-2.0,26.0,4.552
0.0,28.0,4.553
-4.0,33.0,4.554
-9.0,35.0,4.555
-3.0,32.0,4.556
15.0,32.0,4.557
40.0,35.0,4.558
57.0,37.0,4.559
52.0,30.0,4.56
29.0,14.0,4.561
3.0,7.0,4.562
-6.0,4.0,4.563
-1.0,8.0,4.564
-6.0,14.0,4.565
-35.0,15.0,4.566
-65.0,1.0,4.567
-64.0,-12.0,4.568
-32.0,-9.0,4.569
-3.0,11.0,4.57
7.0,21.0,4.571
16.0,8.0,4.572
35.0,-6.0,4.573
47.0,-11.0,4.574
38.0,-6.0,4.575
20.0,0.0,4.576
10.0,0.0,4.577
-1.0,-6.0,4.578
-19.0,-15.0,4.579
-28.0,-25.0,4.58
-13.0,-27.0,4.581
14.0,-16.0,4.582
32.0,-4.0,4.583
31.0,2.0,4.584
23.0,3.0,4.585
9.0,2.0,4.586
-10.0,3.0,4.587
-24.0,12.0,4.588
-22.0,24.0,4.589
-4.0,24.0,4.59
15.0,7.0,4.591
28.0,-7.0,4.592
30.0,-5.0,4.593
23.0,5.0,4.594
6.0,6.0,4.595
-14.0,2.0,4.596
-24.0,7.0,4.597
-15.0,14.0,4.598
14.0,14.0,4.599
41.0,6.0,4.6
43.0,3.0,4.601
21.0,10.0,4.602
4.0,9.0,4.603
5.0,-3.0,4.604
-3.0,-12.0,4.605
-48.0,-11.0,4.606
-113.0,-10.0,4.607
-146.0,-15.0,4.608
-113.0,-18.0,4.609
-46.0,-16.0,4.61
1.0,-15.0,4.611
14.0,-18.0,4.612
12.0,-17.0,4.613
13.0,-12.0,4.614
17.0,-8.0,4.615
22.0,-8.0,4.616
36.0,-4.0,4.617
51.0,0.0,4.618
62.0,-2.0,4.619
64.0,-4.0,4.62
62.0,-3.0,4.621
51.0,5.0,4.622
36.0,12.0,4.623
44.0,15.0,4.624
70.0,18.0,4.625
74.0,23.0,4.626
18.0,29.0,4.627
-64.0,38.0,4.628
-102.0,41.0,4.629
-77.0,23.0,4.63
-45.0,-20.0,4.631
-43.0,-55.0,4.632
-48.0,-50.0,4.633
-32.0,-15.0,4.634
0.0,6.0,4.635
28.0,-1.0,4.636
47.0,-11.0,4.637
56.0,-8.0,4.638
38.0,-1.0,4.639
-6.0,-2.0,4.64
-37.0,-11.0,4.641
-24.0,-11.0,4.642
14.0,-3.0,4.643
35.0,-1.0,4.644
20.0,-5.0,4.645
-5.0,-5.0,4.646
-13.0,0.0,4.647
-1.0,10.0,4.648
17.0,26.0,4.649
27.0,42.0,4.65
29.0,45.0,4.651
18.0,30.0,4.652
-11.0,10.0,4.653
-43.0,4.0,4.654
-52.0,7.0,4.655
-24.0,4.0,4.656
20.0,-3.0,4.657
65.0,-10.0,4.658
100.0,-12.0,4.659
115.0,-11.0,4.66
93.0,-12.0,4.661
39.0,-11.0,4.662
-6.0,-6.0,4.663
-28.0,-3.0,4.664
-60.0,-6.0,4.665
-116.0,-8.0,4.666
-149.0,-4.0,4.667
-118.0,1.0,4.668
-55.0,0.0,4.669
-12.0,-8.0,4.67
4.0,-11.0,4.671
22.0,-7.0,4.672
40.0,-1.0,4.673
44.0,1.0,4.674
41.0,-1.0,4.675
42.0,-5.0,4.676
37.0,-3.0,4.677
15.0,0.0,4.678
10.0,3.0,4.679
45.0,-1.0,4.68
93.0,-10.0,4.681
97.0,-9.0,4.682
47.0,0.0,4.683
-18.0,7.0,4.684
-68.0,12.0,4.685
-95.0,17.0,4.686
-93.0,21.0,4.687
-59.0,19.0,4.688
-15.0,13.0,4.689
21.0,1.0,4.69
38.0,-12.0,4.691
40.0,-25.0,4.692
33.0,-28.0,4.693
25.0,-21.0,4.694
24.0,-13.0,4.695
23.0,-11.0,4.696
16.0,-11.0,4.697
3.0,-9.0,4.698
-4.0,-7.0,4.699
-13.0,-10.0,4.7
-22.0,-15.0,4.701
-9.0,-9.0,4.702
38.0,1.0,4.703
92.0,7.0,4.704
112.0,8.0,4.705
80.0,16.0,4.706
17.0,25.0,4.707
-50.0,25.0,4.708
-102.0,21.0,4.709
-136.0,25.0,4.71
-163.0,30.0,4.711
-174.0,14.0,4.712
-144.0,-16.0,4.713
-77.0,-38.0,4.714
-15.0,-35.0,4.715
11.0,-19.0,4.716
26.0,-7.0,4.717
52.0,-6.0,4.718
73.0,-9.0,4.719
64.0,-10.0,4.72
53.0,-8.0,4.721
66.0,-4.0,4.722
83.0,-3.0,4.723
68.0,-7.0,4.724
33.0,-8.0,4.725
10.0,-3.0,4.726
-2.0,3.0,4.727
-15.0,7.0,4.728
-20.0,10.0,4.729
-7.0,19.0,4.73
1.0,27.0,4.731
-10.0,33.0,4.732
-19.0,33.0,4.733
0.0,30.0,4.734
29.0,17.0,4.735
40.0,-2.0,4.736
46.0,-15.0,4.737
59.0,-21.0,4.738
72.0,-19.0,4.739
61.0,-17.0,4.74
31.0,-17.0,4.741
8.0,-10.0,4.742
-6.0,-5.0,4.743
-27.0,-3.0,4.744
-55.0,0.0,4.745
-73.0,2.0,4.746
-69.0,3.0,4.747
-49.0,0.0,4.748
-28.0,-2.0,4.749
-15.0,0.0,4.75
-4.0,4.0,4.751
15.0,9.0,4.752
45.0,15.0,4.753
79.0,20.0,4.754
103.0,20.0,4.755
110.0,10.0,4.756
91.0,0.0,4.757
31.0,-13.0,4.758
-35.0,-23.0,4.759
-57.0,-28.0,4.76
-28.0,-32.0,4.761
2.0,-34.0,4.762
4.0,-33.0,4.763
1.0,-27.0,4.764
15.0,-13.0,4.765
13.0,3.0,4.766
-26.0,15.0,4.767
-65.0,21.0,4.768
-66.0,23.0,4.769
-51.0,24.0,4.77
-49.0,22.0,4.771
-37.0,8.0,4.772
1.0,-12.0,4.773
20.0,-29.0,4.774
-22.0,-29.0,4.775
-83.0,-16.0,4.776
-88.0,-2.0,4.777
-33.0,7.0,4.778
24.0,17.0,4.779
42.0,31.0,4.78
34.0,36.0,4.781
22.0,34.0,4.782
14.0,23.0,4.783
17.0,9.0,4.784
29.0,-4.0,4.785
36.0,-16.0,4.786
31.0,-24.0,4.787
31.0,-20.0,4.788
41.0,-8.0,4.789
39.0,0.0,4.79
14.0,9.0,4.791
-13.0,42.0,4.792
-19.0,112.0,4.793
-16.0,213.0,4.794
-19.0,307.0,4.795
-16.0,353.0,4.796
8.0,323.0,4.797
34.0,204.0,4.798
37.0,39.0,4.799
21.0,-115.0,4.8
7.0,-227.0,4.801
1.0,-299.0,4.802
-6.0,-343.0,4.803
-12.0,-356.0,4.804
-14.0,-330.0,4.805
-21.0,-274.0,4.806
-38.0,-203.0,4.807
-46.0,-120.0,4.808
-37.0,-18.0,4.809
-20.0,101.0,4.81
-6.0,223.0,4.811
8.0,320.0,4.812
25.0,362.0,4.813
37.0,350.0,4.814
41.0,317.0,4.815
49.0,284.0,4.816
63.0,241.0,4.817
70.0,148.0,4.818
64.0,10.0,4.819
45.0,-137.0,4.82
27.0,-263.0,4.821
13.0,-359.0,4.822
4.0,-430.0,4.823
0.0,-470.0,4.824
-3.0,-446.0,4.825
-3.0,-337.0,4.826
5.0,-177.0,4.827
17.0,-45.0,4.828
21.0,-1.0,4.829
16.0,-12.0,4.83
6.0,-11.0,4.831
-5.0,22.0,4.832
-19.0,47.0,4.833
-29.0,52.0,4.834
-22.0,87.0,4.835
-5.0,191.0,4.836
6.0,326.0,4.837
12.0,418.0,4.838
26.0,406.0,4.839
38.0,291.0,4.84
29.0,121.0,4.841
6.0,-49.0,4.842
-7.0,-203.0,4.843
0.0,-348.0,4.844
0.0,-469.0,4.845
-24.0,-530.0,4.846
-57.0,-517.0,4.847
-66.0,-458.0,4.848
-53.0,-387.0,4.849
-28.0,-312.0,4.85
0.0,-224.0,4.851
25.0,-119.0,4.852
28.0,13.0,4.853
6.0,160.0,4.854
-19.0,275.0,4.855
-24.0,312.0,4.856
-13.0,288.0,4.857
-14.0,258.0,4.858
-30.0,252.0,4.859
-54.0,241.0,4.86
-73.0,198.0,4.861
-82.0,147.0,4.862
-65.0,117.0,4.863
-19.0,104.0,4.864
33.0,93.0,4.865
61.0,77.0,4.866
59.0,66.0,4.867
44.0,62.0,4.868
27.0,68.0,4.869
13.0,92.0,4.87
7.0,126.0,4.871
13.0,141.0,4.872
17.0,128.0,4.873
7.0,103.0,4.874
-6.0,91.0,4.875
-7.0,101.0,4.876
1.0,123.0,4.877
2.0,131.0,4.878
-5.0,111.0,4.879
-7.0,67.0,4.88
2.0,20.0,4.881
17.0,-11.0,4.882
33.0,-37.0,4.883
49.0,-79.0,4.884
56.0,-143.0,4.885
48.0,-214.0,4.886
33.0,-253.0,4.887
23.0,-222.0,4.888
18.0,-129.0,4.889
7.0,-39.0,4.89
-8.0,-3.0,4.891
-18.0,-3.0,4.892
-18.0,14.0,4.893
-15.0,50.0,4.894
-16.0,62.0,4.895
-21.0,38.0,4.896
-26.0,21.0,4.897
-27.0,31.0,4.898
-24.0,36.0,4.899
-23.0,2.0,4.9
-19.0,-59.0,4.901
-9.0,-101.0,4.902
2.0,-113.0,4.903
12.0,-106.0,4.904
18.0,-62.0,4.905
22.0,50.0,4.906
22.0,203.0,4.907
15.0,302.0,4.908
4.0,281.0,4.909
-6.0,173.0,4.91
-22.0,56.0,4.911
-36.0,-32.0,4.912
-35.0,-113.0,4.913
-6.0,-190.0,4.914
33.0,-222.0,4.915
66.0,-167.0,4.916
83.0,-53.0,4.917
81.0,53.0,4.918
66.0,84.0,4.919
52.0,45.0,4.92
41.0,10.0,4.921
30.0,37.0,4.922
16.0,80.0,4.923
-2.0,59.0,4.924
-34.0,-31.0,4.925
-55.0,-110.0,4.926
-44.0,-128.0,4.927
-35.0,-129.0,4.928
-32.0,-178.0,4.929
-28.0,-264.0,4.93
-25.0,-318.0,4.931
-19.0,-315.0,4.932
-5.0,-277.0,4.933
6.0,-218.0,4.934
11.0,-124.0,4.935
20.0,10.0,4.936
43.0,163.0,4.937
69.0,338.0,4.938
103.0,504.0,4.939
111.0,591.0,4.94
88.0,532.0,4.941
40.0,356.0,4.942
-15.0,162.0,4.943
-62.0,1.0,4.944
-96.0,-145.0,4.945
-104.0,-262.0,4.946
-82.0,-301.0,4.947
-51.0,-266.0,4.948
-44.0,-239.0,4.949
-64.0,-266.0,4.95
-78.0,-295.0,4.951
-63.0,-279.0,4.952
-27.0,-248.0,4.953
1.0,-214.0,4.954
12.0,-116.0,4.955
13.0,86.0,4.956
16.0,297.0,4.957
18.0,406.0,4.958
5.0,413.0,4.959
-17.0,329.0,4.96
-34.0,229.0,4.961
-40.0,176.0,4.962
-33.0,180.0,4.963
-18.0,173.0,4.964
11.0,73.0,4.965
52.0,-87.0,4.966
90.0,-175.0,4.967
108.0,-135.0,4.968
105.0,-68.0,4.969
90.0,-48.0,4.97
68.0,0.0,4.971
30.0,162.0,4.972
-20.0,341.0,4.973
-58.0,333.0,4.974
-57.0,100.0,4.975
-26.0,-174.0,4.976
-1.0,-318.0,4.977
-2.0,-373.0,4.978
-11.0,-432.0,4.979
-13.0,-476.0,4.98
-10.0,-416.0,4.981
-12.0,-257.0,4.982
-6.0,-103.0,4.983
23.0,10.0,4.984
59.0,154.0,4.985
84.0,363.0,4.986
93.0,538.0,4.987
86.0,553.0,4.988
60.0,399.0,4.989
23.0,186.0,4.99
-2.0,5.0,4.991
-5.0,-136.0,4.992
-5.0,-251.0,4.993
-20.0,-312.0,4.994
-35.0,-303.0,4.995
-34.0,-276.0,4.996
-14.0,-279.0,4.997
2.0,-286.0,4.998
5.0,-231.0,4.999
-3.0,-112.0,5.0
-9.0,18.0,5.001
-6.0,127.0,5.002
-2.0,197.0,5.003
-2.0,192.0,5.004
-11.0,106.0,5.005
-22.0,6.0,5.006
-29.0,-28.0,5.007
-31.0,-4.0,5.008
-31.0,38.0,5.009
-27.0,87.0,5.01
-19.0,139.0,5.011
-10.0,170.0,5.012
-2.0,183.0,5.013
11.0,229.0,5.014
23.0,304.0,5.015
20.0,307.0,5.016
2.0,194.0,5.017
-17.0,25.0,5.018
-20.0,-78.0,5.019
-13.0,-105.0,5.02
-7.0,-125.0,5.021
-2.0,-152.0,5.022
11.0,-133.0,5.023
24.0,-49.0,5.024
23.0,56.0,5.025
11.0,128.0,5.026
11.0,152.0,5.027
29.0,156.0,5.028
44.0,202.0,5.029
33.0,305.0,5.03
15.0,367.0,5.031
13.0,258.0,5.032
22.0,1.0,5.033
21.0,-231.0,5.034
12.0,-330.0,5.035
10.0,-368.0,5.036
23.0,-441.0,5.037
36.0,-523.0,5.038
45.0,-518.0,5.039
40.0,-420.0,5.04
15.0,-316.0,5.041
-22.0,-233.0,5.042
-56.0,-135.0,5.043
-79.0,-7.0,5.044
-99.0,117.0,5.045
-102.0,198.0,5.046
-71.0,216.0,5.047
-22.0,178.0,5.048
2.0,108.0,5.049
-6.0,45.0,5.05
-8.0,5.0,5.051
19.0,4.0,5.052
49.0,57.0,5.053
58.0,128.0,5.054
56.0,138.0,5.055
52.0,63.0,5.056
41.0,-8.0,5.057
20.0,6.0,5.058
7.0,85.0,5.059
0.0,122.0,5.06
-6.0,57.0,5.061
-14.0,-63.0,5.062
-17.0,-143.0,5.063
-16.0,-101.0,5.064
-17.0,68.0,5.065
-18.0,257.0,5.066
-9.0,339.0,5.067
2.0,295.0,5.068
8.0,177.0,5.069
14.0,3.0,5.07
23.0,-220.0,5.071
28.0,-415.0,5.072
24.0,-494.0,5.073
22.0,-471.0,5.074
16.0,-412.0,5.075
-6.0,-323.0,5.076
-33.0,-183.0,5.077
-47.0,-5.0,5.078
-45.0,131.0,5.079
-50.0,204.0,5.08
-59.0,258.0,5.081
-48.0,307.0,5.082
-13.0,316.0,5.083
15.0,261.0,5.084
14.0,174.0,5.085
3.0,93.0,5.086
3.0,37.0,5.087
6.0,13.0,5.088
6.0,14.0,5.089
10.0,27.0,5.09
26.0,42.0,5.091
35.0,68.0,5.092
31.0,119.0,5.093
22.0,185.0,5.094
18.0,228.0,5.095
14.0,205.0,5.096
13.0,124.0,5.097
24.0,18.0,5.098
47.0,-64.0,5.099
61.0,-115.0,5.1
62.0,-128.0,5.101
57.0,-52.0,5.102
55.0,127.0,5.103
43.0,324.0,5.104
12.0,406.0,5.105
-22.0,319.0,5.106
-39.0,131.0,5.107
-41.0,-69.0,5.108
-39.0,-250.0,5.109
-37.0,-417.0,5.11
-32.0,-546.0,5.111
-29.0,-580.0,5.112
-29.0,-497.0,5.113
-24.0,-347.0,5.114
-15.0,-197.0,5.115
-6.0,-57.0,5.116
-4.0,90.0,5.117
-10.0,245.0,5.118
-13.0,323.0,5.119
-16.0,239.0,5.12
-17.0,30.0,5.121
-11.0,-148.0,5.122
4.0,-194.0,5.123
21.0,-154.0,5.124
29.0,-140.0,5.125
36.0,-165.0,5.126
45.0,-144.0,5.127
45.0,-45.0,5.128
31.0,52.0,5.129
14.0,67.0,5.13
5.0,14.0,5.131
-1.0,-61.0,5.132
-9.0,-150.0,5.133
-9.0,-234.0,5.134
8.0,-245.0,5.135
30.0,-118.0,5.136
33.0,124.0,5.137
20.0,419.0,5.138
7.0,631.0,5.139
0.0,622.0,5.14
-8.0,381.0,5.141
-14.0,80.0,5.142
-8.0,-90.0,5.143
7.0,-101.0,5.144
15.0,-51.0,5.145
6.0,8.0,5.146
-10.0,91.0,5.147
-23.0,159.0,5.148
-32.0,130.0,5.149
-31.0,16.0,5.15
-19.0,-79.0,5.151
0.0,-97.0,5.152
14.0,-78.0,5.153
18.0,-61.0,5.154
14.0,-32.0,5.155
6.0,7.0,5.156
0.0,33.0,5.157
0.0,36.0,5.158
9.0,22.0,5.159
16.0,-9.0,5.16
14.0,-94.0,5.161
9.0,-154.0,5.162
15.0,-132.0,5.163
26.0,-94.0,5.164
25.0,-7.0,5.165
3.0,35.0,5.166
-25.0,-54.0,5.167
-39.0,-125.0,5.168
-40.0,-135.0,5.169
-41.0,-145.0,5.17
-44.0,-149.0,5.171
-41.0,-141.0,5.172
-23.0,-98.0,5.173
3.0,-54.0,5.174
31.0,-7.0,5.175
48.0,32.0,5.176
49.0,48.0,5.177
40.0,58.0,5.178
38.0,24.0,5.179
34.0,-44.0,5.18
22.0,-83.0,5.181
9.0,-6.0,5.182
-2.0,185.0,5.183
-13.0,377.0,5.184
-23.0,403.0,5.185
-32.0,226.0,5.186
-39.0,2.0,5.187
-40.0,-74.0,5.188
-20.0,2.0,5.189
-4.0,63.0,5.19
-4.0,8.0,5.191
-2.0,-89.0,5.192
6.0,-124.0,5.193
17.0,-103.0,5.194
38.0,-84.0,5.195
56.0,-89.0,5.196
67.0,-97.0,5.197
71.0,-103.0,5.198
47.0,-75.0,5.199
9.0,23.0,5.2
-30.0,150.0,5.201
-63.0,195.0,5.202
-77.0,112.0,5.203
-75.0,-8.0,5.204
-73.0,-70.0,5.205
-66.0,-100.0,5.206
-44.0,-161.0,5.207
-4.0,-225.0,5.208
34.0,-223.0,5.209
62.0,-171.0,5.21
93.0,-132.0,5.211
122.0,-84.0,5.212
127.0,32.0,5.213
97.0,195.0,5.214
55.0,313.0,5.215
23.0,334.0,5.216
-1.0,308.0,5.217
-46.0,301.0,5.218
-87.0,325.0,5.219
-101.0,326.0,5.22
-78.0,207.0,5.221
-38.0,-17.0,5.222
-14.0,-196.0,5.223
-16.0,-210.0,5.224
-31.0,-153.0,5.225
-33.0,-190.0,5.226
-12.0,-294.0,5.227
13.0,-288.0,5.228
24.0,-126.0,5.229
30.0,27.0,5.23
48.0,43.0,5.231
73.0,-19.0,5.232
76.0,-37.0,5.233
47.0,11.0,5.234
18.0,75.0,5.235
15.0,116.0,5.236
26.0,138.0,5.237
17.0,159.0,5.238
-15.0,173.0,5.239
-46.0,158.0,5.24
-55.0,98.0,5.241
-41.0,30.0,5.242
-21.0,-6.0,5.243
-6.0,-32.0,5.244
7.0,-104.0,5.245
28.0,-203.0,5.246
55.0,-240.0,5.247
75.0,-171.0,5.248
74.0,-57.0,5.249
55.0,17.0,5.25
30.0,21.0,5.251
7.0,-15.0,5.252
-17.0,-54.0,5.253
-38.0,-75.0,5.254
-46.0,-72.0,5.255
-43.0,-60.0,5.256
-40.0,-51.0,5.257
-51.0,-38.0,5.258
-65.0,-17.0,5.259
-71.0,-5.0,5.26
-55.0,-28.0,5.261
-18.0,-69.0,5.262
32.0,-85.0,5.263
72.0,-52.0,5.264
88.0,9.0,5.265
90.0,54.0,5.266
98.0,66.0,5.267
105.0,55.0,5.268
90.0,32.0,5.269
47.0,5.0,5.27
3.0,-6.0,5.271
-22.0,0.0,5.272
-41.0,6.0,5.273
-68.0,-12.0,5.274
-93.0,-50.0,5.275
-102.0,-77.0,5.276
-100.0,-77.0,5.277
-98.0,-75.0,5.278
-91.0,-81.0,5.279
-63.0,-73.0,5.28
-24.0,-18.0,5.281
8.0,75.0,5.282
29.0,148.0,5.283
51.0,162.0,5.284
68.0,136.0,5.285
69.0,105.0,5.286
59.0,77.0,5.287
58.0,53.0,5.288
65.0,57.0,5.289
57.0,90.0,5.29
29.0,119.0,5.291
0.0,120.0,5.292
-17.0,114.0,5.293
-25.0,120.0,5.294
-36.0,102.0,5.295
-44.0,32.0,5.296
-34.0,-43.0,5.297
-12.0,-56.0,5.298
4.0,0.0,5.299
1.0,37.0,5.3
-6.0,15.0,5.301
-1.0,-16.0,5.302
19.0,-76.0,5.303
35.0,-86.0,5.304
34.0,55.0,5.305
28.0,184.0,5.306
31.0,280.0,5.307
42.0,347.0,5.308
45.0,329.0,5.309
35.0,298.0,5.31
26.0,228.0,5.311
21.0,112.0,5.312
7.0,-140.0,5.313
-21.0,-369.0,5.314
-46.0,-529.0,5.315
-48.0,-616.0,5.316
-29.0,-482.0,5.317
-13.0,-328.0,5.318
-8.0,-144.0,5.319
-11.0,-61.0,5.32
-9.0,-80.0,5.321
-1.0,-144.0,5.322
6.0,-195.0,5.323
6.0,-181.0,5.324
-8.0,-95.0,5.325
-29.0,5.0,5.326
-47.0,63.0,5.327
-61.0,72.0,5.328
-68.0,72.0,5.329
-65.0,81.0,5.33
-49.0,104.0,5.331
-29.0,142.0,5.332
-12.0,182.0,5.333
6.0,181.0,5.334
32.0,132.0,5.335
53.0,93.0,5.336
57.0,99.0,5.337
45.0,93.0,5.338
38.0,8.0,5.339
38.0,-116.0,5.34
39.0,-173.0,5.341
42.0,-140.0,5.342
53.0,-123.0,5.343
69.0,-186.0,5.344
66.0,-261.0,5.345
45.0,-254.0,5.346
26.0,-174.0,5.347
25.0,-89.0,5.348
30.0,-21.0,5.349
31.0,45.0,5.35
37.0,110.0,5.351
57.0,151.0,5.352
78.0,174.0,5.353
80.0,213.0,5.354
62.0,293.0,5.355
32.0,385.0,5.356
2.0,419.0,5.357
-36.0,355.0,5.358
-82.0,239.0,5.359
-129.0,130.0,5.36
-166.0,18.0,5.361
-181.0,-118.0,5.362
-168.0,-241.0,5.363
-129.0,-279.0,5.364
-75.0,-246.0,5.365
-32.0,-201.0,5.366
-14.0,-141.0,5.367
-7.0,-21.0,5.368
18.0,109.0,5.369
60.0,143.0,5.37
88.0,71.0,5.371
84.0,-15.0,5.372
60.0,-71.0,5.373
38.0,-114.0,5.374
22.0,-122.0,5.375
13.0,-64.0,5.376
10.0,-4.0,5.377
15.0,-34.0,5.378
15.0,-121.0,5.379
4.0,-132.0,5.38
-3.0,-51.0,5.381
5.0,10.0,5.382
20.0,0.0,5.383
26.0,-8.0,5.384
28.0,32.0,5.385
31.0,70.0,5.386
35.0,68.0,5.387
33.0,80.0,5.388
21.0,135.0,5.389
12.0,169.0,5.39
12.0,94.0,5.391
10.0,-85.0,5.392
-4.0,-278.0,5.393
-34.0,-375.0,5.394
-66.0,-307.0,5.395
-81.0,-95.0,5.396
-70.0,129.0,5.397
-50.0,269.0,5.398
-32.0,306.0,5.399
-18.0,301.0,5.4
-12.0,305.0,5.401
-5.0,302.0,5.402
8.0,262.0,5.403
27.0,186.0,5.404
59.0,97.0,5.405
79.0,32.0,5.406
65.0,15.0,5.407
47.0,24.0,5.408
20.0,-9.0,5.409
-3.0,-101.0,5.41
-13.0,-199.0,5.411
-21.0,-270.0,5.412
-21.0,-340.0,5.413
-20.0,-406.0,5.414
-14.0,-387.0,5.415
-8.0,-235.0,5.416
1.0,-43.0,5.417
18.0,92.0,5.418
59.0,172.0,5.419
96.0,236.0,5.42
112.0,248.0,5.421
100.0,216.0,5.422
71.0,54.0,5.423
22.0,-87.0,5.424
-41.0,-164.0,5.425
-93.0,-230.0,5.426
-111.0,-263.0,5.427
-103.0,-276.0,5.428
-91.0,-226.0,5.429
-79.0,-209.0,5.43
-51.0,-291.0,5.431
-12.0,-341.0,5.432
23.0,-293.0,5.433
45.0,-169.0,5.434
68.0,180.0,5.435
97.0,487.0,5.436
123.0,663.0,5.437
138.0,827.0,5.438
143.0,879.0,5.439
131.0,703.0,5.44
97.0,317.0,5.441
42.0,-48.0,5.442
-16.0,-226.0,5.443
-64.0,-256.0,5.444
-105.0,-260.0,5.445
-151.0,-285.0,5.446
-206.0,-297.0,5.447
-246.0,-251.0,5.448
-226.0,-141.0,5.449
-127.0,-29.0,5.45
8.0,0.0,5.451
95.0,-46.0,5.452
88.0,-71.0,5.453
32.0,-20.0,5.454
0.0,40.0,5.455
12.0,58.0,5.456
31.0,87.0,5.457
28.0,181.0,5.458
20.0,270.0,5.459
30.0,237.0,5.46
41.0,99.0,5.461
21.0,-28.0,5.462
-27.0,-110.0,5.463
-64.0,-183.0,5.464
-58.0,-233.0,5.465
-27.0,-199.0,5.466
-9.0,-94.0,5.467
-7.0,5.0,5.468
3.0,76.0,5.469
24.0,141.0,5.47
38.0,167.0,5.471
47.0,95.0,5.472
71.0,-43.0,5.473
109.0,-147.0,5.474
117.0,-184.0,5.475
81.0,-187.0,5.476
43.0,-157.0,5.477
34.0,-78.0,5.478
36.0,14.0,5.479
-2.0,61.0,5.48
-65.0,76.0,5.481
-80.0,98.0,5.482
0.0,86.0,5.483
125.0,-4.0,5.484
184.0,-105.0,5.485
131.0,-117.0,5.486
25.0,-60.0,5.487
-41.0,-26.0,5.488
-29.0,-33.0,5.489
21.0,-32.0,5.49
47.0,-29.0,5.491
19.0,-55.0,5.492
-29.0,-79.0,5.493
-55.0,-53.0,5.494
-74.0,9.0,5.495
-146.0,68.0,5.496
-251.0,130.0,5.497
-281.0,206.0,5.498
-144.0,244.0,5.499
49.0,198.0,5.5
114.0,104.0,5.501
42.0,9.0,5.502
9.0,-108.0,5.503
80.0,-250.0,5.504
99.0,-327.0,5.505
-49.0,-258.0,5.506
-239.0,-83.0,5.507
-280.0,86.0,5.508
-175.0,189.0,5.509
-80.0,238.0,5.51
-59.0,270.0,5.511
-37.0,312.0,5.512
42.0,349.0,5.513
122.0,317.0,5.514
142.0,177.0,5.515
133.0,-15.0,5.516
144.0,-161.0,5.517
181.0,-258.0,5.518
194.0,-353.0,5.519
143.0,-461.0,5.52
38.0,-529.0,5.521
-48.0,-489.0,5.522
-50.0,-346.0,5.523
14.0,-162.0,5.524
45.0,-16.0,5.525
2.0,58.0,5.526
-34.0,90.0,5.527
2.0,123.0,5.528
51.0,149.0,5.529
24.0,136.0,5.53
-29.0,105.0,5.531
8.0,111.0,5.532
125.0,139.0,5.533
182.0,123.0,5.534
109.0,63.0,5.535
-8.0,28.0,5.536
-68.0,39.0,5.537
-78.0,37.0,5.538
-89.0,-12.0,5.539
-123.0,-52.0,5.54
-156.0,-36.0,5.541
-164.0,6.0,5.542
-135.0,16.0,5.543
-81.0,6.0,5.544
-30.0,17.0,5.545
-4.0,51.0,5.546
13.0,80.0,5.547
50.0,107.0,5.548
102.0,137.0,5.549
130.0,137.0,5.55
121.0,73.0,5.551
97.0,-21.0,5.552
77.0,-63.0,5.553
55.0,-27.0,5.554
22.0,27.0,5.555
-7.0,44.0,5.556
-12.0,43.0,5.557
16.0,65.0,5.558
70.0,106.0,5.559
107.0,121.0,5.56
91.0,83.0,5.561
29.0,20.0,5.562
-33.0,-32.0,5.563
-64.0,-63.0,5.564
-86.0,-72.0,5.565
-118.0,-63.0,5.566
-142.0,-47.0,5.567
-137.0,-24.0,5.568
-104.0,21.0,5.569
-55.0,87.0,5.57
-7.0,132.0,5.571
18.0,110.0,5.572
14.0,25.0,5.573
3.0,-62.0,5.574
11.0,-111.0,5.575
24.0,-127.0,5.576
25.0,-143.0,5.577
16.0,-164.0,5.578
18.0,-171.0,5.579
21.0,-175.0,5.58
14.0,-167.0,5.581
3.0,-163.0,5.582
12.0,-171.0,5.583
32.0,-169.0,5.584
41.0,-134.0,5.585
37.0,-94.0,5.586
37.0,-39.0,5.587
47.0,8.0,5.588
55.0,34.0,5.589
59.0,50.0,5.59
66.0,31.0,5.591
70.0,20.0,5.592
54.0,34.0,5.593
23.0,47.0,5.594
-2.0,53.0,5.595
-12.0,55.0,5.596
-17.0,41.0,5.597
-42.0,30.0,5.598
-78.0,36.0,5.599
-101.0,42.0,5.6
-94.0,50.0,5.601
-65.0,78.0,5.602
-32.0,129.0,5.603
0.0,176.0,5.604
26.0,196.0,5.605
40.0,177.0,5.606
39.0,139.0,5.607
35.0,103.0,5.608
36.0,71.0,5.609
37.0,44.0,5.61
27.0,15.0,5.611
9.0,-20.0,5.612
-7.0,-60.0,5.613
-15.0,-83.0,5.614
-18.0,-71.0,5.615
-21.0,-33.0,5.616
-21.0,-8.0,5.617
-20.0,-11.0,5.618
-18.0,-14.0,5.619
-20.0,1.0,5.62
-20.0,14.0,5.621
-8.0,6.0,5.622
8.0,-12.0,5.623
17.0,-12.0,5.624
16.0,7.0,5.625
16.0,14.0,5.626
23.0,-1.0,5.627
25.0,-22.0,5.628
10.0,-34.0,5.629
-13.0,-45.0,5.63
-29.0,-67.0,5.631
-27.0,-90.0,5.632
-12.0,-93.0,5.633
0.0,-74.0,5.634
-1.0,-54.0,5.635
-9.0,-41.0,5.636
-10.0,-23.0,5.637
-3.0,12.0,5.638
5.0,52.0,5.639
4.0,75.0,5.64
-1.0,77.0,5.641
0.0,77.0,5.642
14.0,75.0,5.643
25.0,71.0,5.644
22.0,64.0,5.645
9.0,46.0,5.646
0.0,6.0,5.647
1.0,-46.0,5.648
6.0,-81.0,5.649
4.0,-92.0,5.65
-3.0,-91.0,5.651
-8.0,-82.0,5.652
-3.0,-59.0,5.653
4.0,-32.0,5.654
12.0,-17.0,5.655
15.0,-4.0,5.656
17.0,26.0,5.657
16.0,59.0,5.658
18.0,62.0,5.659
17.0,37.0,5.66
18.0,19.0,5.661
16.0,17.0,5.662
18.0,-8.0,5.663
31.0,-71.0,5.664
51.0,-127.0,5.665
57.0,-133.0,5.666
30.0,-100.0,5.667
-21.0,-63.0,5.668
-64.0,-34.0,5.669
-69.0,-10.0,5.67
-43.0,12.0,5.671
-21.0,32.0,5.672
-20.0,54.0,5.673
-23.0,73.0,5.674
-16.0,85.0,5.675
-2.0,96.0,5.676
8.0,119.0,5.677
21.0,158.0,5.678
59.0,199.0,5.679
109.0,211.0,5.68
131.0,181.0,5.681
97.0,123.0,5.682
26.0,55.0,5.683
-49.0,-18.0,5.684
-123.0,-100.0,5.685
-187.0,-186.0,5.686
-202.0,-259.0,5.687
-138.0,-300.0,5.688
-19.0,-300.0,5.689
109.0,-255.0,5.69
210.0,-179.0,5.691
252.0,-99.0,5.692
201.0,-41.0,5.693
68.0,-9.0,5.694
-65.0,16.0,5.695
-125.0,40.0,5.696
-123.0,55.0,5.697
-115.0,60.0,5.698
-112.0,60.0,5.699
-88.0,61.0,5.7
-38.0,59.0,5.701
8.0,62.0,5.702
44.0,66.0,5.703
92.0,71.0,5.704
150.0,70.0,5.705
182.0,65.0,5.706
143.0,57.0,5.707
39.0,48.0,5.708
-78.0,39.0,5.709
-144.0,31.0,5.71
-139.0,26.0,5.711
-111.0,26.0,5.712
-109.0,30.0,5.713
-110.0,36.0,5.714
-56.0,35.0,5.715
33.0,25.0,5.716
81.0,13.0,5.717
50.0,4.0,5.718
-13.0,3.0,5.719
-54.0,8.0,5.72
-54.0,13.0,5.721
-13.0,22.0,5.722
53.0,28.0,5.723
92.0,35.0,5.724
64.0,43.0,5.725
3.0,47.0,5.726
-21.0,41.0,5.727
5.0,21.0,5.728
42.0,-21.0,5.729
65.0,-81.0,5.73
85.0,-138.0,5.731
97.0,-168.0,5.732
87.0,-164.0,5.733
59.0,-139.0,5.734
29.0,-102.0,5.735
-3.0,-58.0,5.736
-36.0,-16.0,5.737
-54.0,11.0,5.738
-37.0,20.0,5.739
-16.0,24.0,5.74
-16.0,34.0,5.741
-15.0,54.0,5.742
14.0,71.0,5.743
36.0,80.0,5.744
16.0,91.0,5.745
-11.0,102.0,5.746
6.0,100.0,5.747
39.0,72.0,5.748
16.0,22.0,5.749
-52.0,-24.0,5.75
-92.0,-56.0,5.751
-74.0,-83.0,5.752
-39.0,-113.0,5.753
-11.0,-138.0,5.754
22.0,-141.0,5.755
53.0,-131.0,5.756
48.0,-118.0,5.757
29.0,154.0,5.758
37.0,134.0,5.759
42.0,127.0,5.76
34.0,162.0,5.761
30.0,193.0,5.762
35.0,205.0,5.763
37.0,216.0,5.764
27.0,228.0,5.765
15.0,232.0,5.766
2.0,208.0,5.767
-13.0,181.0,5.768
-32.0,150.0,5.769
-49.0,107.0,5.77
-60.0,34.0,5.771
-64.0,-44.0,5.772
-37.0,-126.0,5.773
-15.0,-200.0,5.774
-8.0,-246.0,5.775
-2.0,-285.0,5.776
7.0,-285.0,5.777
27.0,82.0,5.778
35.0,77.0,5.779
39.0,75.0,5.78
32.0,84.0,5.781
28.0,92.0,5.782
33.0,95.0,5.783
35.0,98.0,5.784
25.0,101.0,5.785
14.0,102.0,5.786
2.0,96.0,5.787
-12.0,89.0,5.788
-30.0,81.0,5.789
-46.0,70.0,5.79
-56.0,51.0,5.791
-59.0,31.0,5.792
-35.0,10.0,5.793
-14.0,-9.0,5.794
-8.0,-21.0,5.795
-2.0,-31.0,5.796
7.0,-31.0,5.797
27.0,-27.0,5.798
35.0,-6.0,5.799
39.0,16.0,5.8
32.0,27.0,5.801
28.0,32.0,5.802
33.0,37.0,5.803
35.0,46.0,5.804
25.0,48.0,5.805
14.0,48.0,5.806
2.0,47.0,5.807
-12.0,36.0,5.808
-30.0,6.0,5.809
-46.0,-35.0,5.81
-56.0,-76.0,5.811
-59.0,-115.0,5.812
-35.0,-142.0,5.813
-14.0,-138.0,5.814
-8.0,-104.0,5.815
-2.0,-64.0,5.816
7.0,-30.0,5.817
17.0,325.0,5.818
19.0,356.0,5.819
15.0,381.0,5.82
17.0,381.0,5.821
23.0,373.0,5.822
28.0,335.0,5.823
25.0,270.0,5.824
17.0,115.0,5.825
7.0,-53.0,5.826
-3.0,-268.0,5.827
-12.0,-445.0,5.828
-15.0,-496.0,5.829
-12.0,-486.0,5.83
-6.0,-288.0,5.831
-2.0,-114.0,5.832
2.0,-10.0,5.833
9.0,82.0,5.834
13.0,133.0,5.835
14.0,174.0,5.836
13.0,179.0,5.837
13.0,156.0,5.838
14.0,168.0,5.839
13.0,178.0,5.84
8.0,178.0,5.841
4.0,175.0,5.842
9.0,160.0,5.843
15.0,134.0,5.844
13.0,73.0,5.845
4.0,6.0,5.846
1.0,-79.0,5.847
6.0,-149.0,5.848
8.0,-169.0,5.849
2.0,-165.0,5.85
-3.0,-87.0,5.851
-3.0,-18.0,5.852
-1.0,23.0,5.853
-2.0,60.0,5.854
-1.0,80.0,5.855
2.0,96.0,5.856
5.0,98.0,5.857
3.0,98.0,5.858
0.0,88.0,5.859
-4.0,89.0,5.86
-9.0,87.0,5.861
-11.0,78.0,5.862
-4.0,65.0,5.863
4.0,58.0,5.864
2.0,56.0,5.865
-9.0,52.0,5.866
-17.0,47.0,5.867
-11.0,44.0,5.868
-2.0,38.0,5.869
5.0,28.0,5.87
8.0,15.0,5.871
7.0,2.0,5.872
4.0,-8.0,5.873
2.0,-11.0,5.874
5.0,-7.0,5.875
5.0,3.0,5.876
0.0,9.0,5.877
-6.0,5.0,5.878
-7.0,-3.0,5.879
-8.0,-15.0,5.88
-9.0,-33.0,5.881
-10.0,-49.0,5.882
-3.0,-55.0,5.883
7.0,-47.0,5.884
15.0,-31.0,5.885
19.0,-14.0,5.886
27.0,-5.0,5.887
34.0,-7.0,5.888
28.0,-14.0,5.889
8.0,-17.0,5.89
-10.0,-8.0,5.891
-16.0,7.0,5.892
-12.0,11.0,5.893
-8.0,-4.0,5.894
-2.0,-27.0,5.895
11.0,-39.0,5.896
27.0,-35.0,5.897
28.0,-29.0,5.898
16.0,-22.0,5.899
1.0,-10.0,5.9
-2.0,13.0,5.901
4.0,33.0,5.902
12.0,42.0,5.903
15.0,50.0,5.904
11.0,56.0,5.905
-1.0,63.0,5.906
-13.0,68.0,5.907
-13.0,71.0,5.908
-7.0,63.0,5.909
-8.0,55.0,5.91
-15.0,49.0,5.911
-14.0,38.0,5.912
-3.0,14.0,5.913
4.0,-12.0,5.914
-2.0,-42.0,5.915
-10.0,-71.0,5.916
-9.0,-91.0,5.917
-3.0,-109.0,5.918
0.0,-104.0,5.919
-2.0,-79.0,5.92
-3.0,-56.0,5.921
0.0,-49.0,5.922
14.0,-50.0,5.923
30.0,-43.0,5.924
38.0,-23.0,5.925
31.0,-1.0,5.926
21.0,17.0,5.927
19.0,20.0,5.928
23.0,4.0,5.929
21.0,-14.0,5.93
12.0,-10.0,5.931
7.0,14.0,5.932
7.0,26.0,5.933
6.0,18.0,5.934
2.0,14.0,5.935
0.0,29.0,5.936
2.0,45.0,5.937
2.0,42.0,5.938
0.0,32.0,5.939
-2.0,18.0,5.94
-3.0,-6.0,5.941
-5.0,-28.0,5.942
-5.0,-47.0,5.943
0.0,-59.0,5.944
5.0,-46.0,5.945
2.0,-33.0,5.946
2.0,-19.0,5.947
10.0,-10.0,5.948
16.0,-15.0,5.949
8.0,-18.0,5.95
-3.0,-16.0,5.951
-6.0,-14.0,5.952
-2.0,-15.0,5.953
-2.0,-13.0,5.954
-2.0,-2.0,5.955
6.0,9.0,5.956
16.0,23.0,5.957
15.0,37.0,5.958
7.0,46.0,5.959
3.0,44.0,5.96
6.0,31.0,5.961
3.0,23.0,5.962
-5.0,26.0,5.963
-11.0,35.0,5.964
-13.0,43.0,5.965
-13.0,41.0,5.966
-16.0,21.0,5.967
-17.0,-13.0,5.968
-17.0,-39.0,5.969
-18.0,-36.0,5.97
-17.0,-10.0,5.971
-12.0,23.0,5.972
-5.0,43.0,5.973
1.0,39.0,5.974
5.0,8.0,5.975
8.0,-25.0,5.976
16.0,-33.0,5.977
26.0,-28.0,5.978
36.0,-34.0,5.979
35.0,-60.0,5.98
21.0,-80.0,5.981
7.0,-64.0,5.982
11.0,-18.0,5.983
23.0,39.0,5.984
24.0,86.0,5.985
12.0,90.0,5.986
5.0,47.0,5.987
12.0,3.0,5.988
14.0,18.0,5.989
-1.0,76.0,5.99
-16.0,116.0,5.991
-15.0,101.0,5.992
-11.0,54.0,5.993
-20.0,8.0,5.994
-31.0,-34.0,5.995
-37.0,-71.0,5.996
-36.0,-91.0,5.997
-33.0,-97.0,5.998
-27.0,-88.0,5.999
-16.0,-57.0,6.0
-6.0,-2.0,6.001
-5.0,50.0,6.002
-6.0,50.0,6.003
2.0,-9.0,6.004
8.0,-77.0,6.005
6.0,-112.0,6.006
2.0,-125.0,6.007
8.0,-133.0,6.008
17.0,-120.0,6.009
20.0,-58.0,6.01
18.0,51.0,6.011
17.0,150.0,6.012
11.0,169.0,6.013
3.0,92.0,6.014
-1.0,-12.0,6.015
1.0,-59.0,6.016
6.0,-41.0,6.017
5.0,-13.0,6.018
4.0,-11.0,6.019
5.0,-10.0,6.02
6.0,9.0,6.021
6.0,22.0,6.022
9.0,1.0,6.023
16.0,-22.0,6.024
20.0,-20.0,6.025
19.0,-1.0,6.026
12.0,5.0,6.027
3.0,3.0,6.028
-4.0,-1.0,6.029
-8.0,-10.0,6.03
-5.0,-24.0,6.031
0.0,-19.0,6.032
8.0,10.0,6.033
21.0,52.0,6.034
37.0,111.0,6.035
46.0,182.0,6.036
41.0,212.0,6.037
23.0,133.0,6.038
8.0,-27.0,6.039
1.0,-154.0,6.04
0.0,-181.0,6.041
3.0,-142.0,6.042
12.0,-85.0,6.043
23.0,-26.0,6.044
24.0,11.0,6.045
16.0,-22.0,6.046
12.0,-105.0,6.047
19.0,-154.0,6.048
27.0,-130.0,6.049
19.0,-85.0,6.05
-7.0,-53.0,6.051
-32.0,-12.0,6.052
-50.0,46.0,6.053
-71.0,81.0,6.054
-96.0,86.0,6.055
-110.0,105.0,6.056
-100.0,153.0,6.057
-75.0,188.0,6.058
-55.0,172.0,6.059
-40.0,118.0,6.06
-47.0,55.0,6.061
-48.0,5.0,6.062
-26.0,-28.0,6.063
-4.0,-42.0,6.064
20.0,-38.0,6.065
38.0,-23.0,6.066
38.0,6.0,6.067
39.0,57.0,6.068
37.0,106.0,6.069
33.0,118.0,6.07
22.0,76.0,6.071
11.0,-11.0,6.072
5.0,-105.0,6.073
0.0,-164.0,6.074
1.0,-173.0,6.075
3.0,-153.0,6.076
7.0,-129.0,6.077
13.0,-294.0,6.078
15.0,-252.0,6.079
15.0,-207.0,6.08
14.0,-153.0,6.081
15.0,-96.0,6.082
20.0,-35.0,6.083
27.0,33.0,6.084
33.0,124.0,6.085
38.0,204.0,6.086
43.0,245.0,6.087
49.0,261.0,6.088
51.0,202.0,6.089
49.0,140.0,6.09
43.0,76.0,6.091
34.0,19.0,6.092
20.0,-14.0,6.093
3.0,-31.0,6.094
-10.0,0.0,6.095
-20.0,19.0,6.096
-25.0,3.0,6.097
-27.0,-292.0,6.098
-21.0,-251.0,6.099
-16.0,-206.0,6.1
-17.0,-152.0,6.101
-19.0,-96.0,6.102
-10.0,-35.0,6.103
8.0,33.0,6.104
16.0,124.0,6.105
7.0,203.0,6.106
1.0,244.0,6.107
5.0,260.0,6.108
9.0,201.0,6.109
2.0,140.0,6.11
-5.0,76.0,6.111
-5.0,19.0,6.112
-2.0,-14.0,6.113
-3.0,-31.0,6.114
-8.0,0.0,6.115
-12.0,19.0,6.116
-14.0,3.0,6.117
-17.0,-22.0,6.118
-18.0,-60.0,6.119
-18.0,-57.0,6.12
-17.0,-21.0,6.121
-14.0,9.0,6.122
-5.0,7.0,6.123
0.0,12.0,6.124
0.0,71.0,6.125
-2.0,161.0,6.126
0.0,190.0,6.127
7.0,105.0,6.128
14.0,-32.0,6.129
23.0,-126.0,6.13
33.0,-129.0,6.131
36.0,-60.0,6.132
25.0,23.0,6.133
9.0,51.0,6.134
2.0,-8.0,6.135
6.0,-100.0,6.136
11.0,-141.0,6.137
13.0,-123.0,6.138
11.0,-95.0,6.139
10.0,-86.0,6.14
14.0,-65.0,6.141
17.0,-10.0,6.142
18.0,26.0,6.143
18.0,15.0,6.144
14.0,0.0,6.145
9.0,20.0,6.146
6.0,46.0,6.147
2.0,43.0,6.148
-1.0,34.0,6.149
-6.0,50.0,6.15
-14.0,82.0,6.151
-20.0,105.0,6.152
-21.0,121.0,6.153
-22.0,129.0,6.154
-19.0,121.0,6.155
-15.0,116.0,6.156
-7.0,144.0,6.157
-1.0,181.0,6.158
-12.0,173.0,6.159
-22.0,143.0,6.16
-14.0,49.0,6.161
6.0,-47.0,6.162
21.0,-152.0,6.163
27.0,-225.0,6.164
32.0,-198.0,6.165
39.0,-167.0,6.166
45.0,-124.0,6.167
49.0,-121.0,6.168
48.0,-238.0,6.169
37.0,-333.0,6.17
16.0,-363.0,6.171
0.0,-384.0,6.172
0.0,-378.0,6.173
10.0,-339.0,6.174
18.0,-203.0,6.175
20.0,-62.0,6.176
22.0,95.0,6.177
17.0,244.0,6.178
7.0,332.0,6.179
-2.0,335.0,6.18
-10.0,263.0,6.181
-11.0,176.0,6.182
6.0,112.0,6.183
21.0,75.0,6.184
26.0,49.0,6.185
26.0,30.0,6.186
9.0,13.0,6.187
-4.0,-16.0,6.188
-4.0,-62.0,6.189
-4.0,-100.0,6.19
-5.0,-100.0,6.191
-11.0,-78.0,6.192
-30.0,-68.0,6.193
-45.0,-68.0,6.194
-49.0,-32.0,6.195
-52.0,54.0,6.196
-52.0,132.0,6.197
-54.0,160.0,6.198
-69.0,166.0,6.199
-71.0,177.0,6.2
-58.0,197.0,6.201
-44.0,204.0,6.202
-36.0,174.0,6.203
-20.0,141.0,6.204
-3.0,101.0,6.205
0.0,68.0,6.206
-21.0,56.0,6.207
-43.0,66.0,6.208
-41.0,147.0,6.209
-13.0,222.0,6.21
17.0,275.0,6.211
28.0,266.0,6.212
28.0,70.0,6.213
28.0,-112.0,6.214
31.0,-252.0,6.215
31.0,-354.0,6.216
31.0,-342.0,6.217
38.0,-326.0,6.218
60.0,-294.0,6.219
80.0,-254.0,6.22
90.0,-257.0,6.221
95.0,-270.0,6.222
97.0,-183.0,6.223
89.0,17.0,6.224
59.0,178.0,6.225
24.0,186.0,6.226
7.0,118.0,6.227
8.0,90.0,6.228
5.0,63.0,6.229
-7.0,-64.0,6.23
-14.0,-266.0,6.231
-4.0,-395.0,6.232
8.0,-398.0,6.233
7.0,-349.0,6.234
-11.0,-300.0,6.235
-28.0,-214.0,6.236
-29.0,-81.0,6.237
-24.0,76.0,6.238
-24.0,219.0,6.239
-39.0,349.0,6.24
-55.0,439.0,6.241
-56.0,453.0,6.242
-41.0,398.0,6.243
-26.0,335.0,6.244
-20.0,280.0,6.245
-20.0,190.0,6.246
-13.0,49.0,6.247
-4.0,-78.0,6.248
-2.0,-139.0,6.249
0.0,-149.0,6.25
12.0,-148.0,6.251
28.0,-141.0,6.252
36.0,-106.0,6.253
40.0,-54.0,6.254
54.0,-23.0,6.255
79.0,-14.0,6.256
96.0,10.0,6.257
93.0,70.0,6.258
72.0,128.0,6.259
43.0,144.0,6.26
19.0,158.0,6.261
2.0,243.0,6.262
-6.0,350.0,6.263
-12.0,335.0,6.264
-26.0,154.0,6.265
-52.0,-46.0,6.266
-82.0,-111.0,6.267
-105.0,-73.0,6.268
-121.0,-67.0,6.269
-131.0,-117.0,6.27
-129.0,-152.0,6.271
-106.0,-156.0,6.272
-74.0,-183.0,6.273
-46.0,-227.0,6.274
-20.0,-222.0,6.275
13.0,-155.0,6.276
50.0,-90.0,6.277
78.0,-67.0,6.278
93.0,-65.0,6.279
105.0,-67.0,6.28
126.0,-83.0,6.281
150.0,-105.0,6.282
162.0,-106.0,6.283
152.0,-81.0,6.284
121.0,-33.0,6.285
79.0,48.0,6.286
39.0,151.0,6.287
18.0,199.0,6.288
10.0,132.0,6.289
-3.0,-6.0,6.29
-32.0,-106.0,6.291
-62.0,-124.0,6.292
-77.0,-104.0,6.293
-89.0,-75.0,6.294
-115.0,-11.0,6.295
-140.0,91.0,6.296
-130.0,177.0,6.297
-83.0,216.0,6.298
-39.0,229.0,6.299
-35.0,238.0,6.3
-47.0,221.0,6.301
-29.0,181.0,6.302
17.0,162.0,6.303
46.0,184.0,6.304
45.0,191.0,6.305
40.0,117.0,6.306
48.0,-20.0,6.307
47.0,-140.0,6.308
31.0,-202.0,6.309
20.0,-232.0,6.31
31.0,-251.0,6.311
43.0,-241.0,6.312
38.0,-192.0,6.313
30.0,-150.0,6.314
36.0,-161.0,6.315
50.0,-207.0,6.316
60.0,-233.0,6.317
55.0,-218.0,6.318
41.0,-182.0,6.319
18.0,-142.0,6.32
-4.0,-83.0,6.321
-11.0,42.0,6.322
-1.0,243.0,6.323
3.0,463.0,6.324
-14.0,612.0,6.325
-53.0,635.0,6.326
-98.0,564.0,6.327
-143.0,465.0,6.328
-176.0,353.0,6.329
-174.0,207.0,6.33
-128.0,29.0,6.331
-54.0,-166.0,6.332
8.0,-379.0,6.333
36.0,-596.0,6.334
32.0,-737.0,6.335
18.0,-725.0,6.336
13.0,-608.0,6.337
15.0,-475.0,6.338
14.0,-358.0,6.339
4.0,-187.0,6.34
-33.0,61.0,6.341
-57.0,296.0,6.342
-43.0,413.0,6.343
-31.0,420.0,6.344
-24.0,385.0,6.345
-13.0,336.0,6.346
4.0,271.0,6.347
26.0,218.0,6.348
58.0,191.0,6.349
87.0,137.0,6.35
110.0,27.0,6.351
130.0,-59.0,6.352
138.0,-45.0,6.353
144.0,-21.0,6.354
142.0,-133.0,6.355
143.0,-309.0,6.356
153.0,-330.0,6.357
156.0,-194.0,6.358
123.0,-127.0,6.359
54.0,-105.0,6.36
-23.0,-217.0,6.361
-88.0,-261.0,6.362
-145.0,-98.0,6.363
-197.0,56.0,6.364
-231.0,183.0,6.365
-224.0,296.0,6.366
-185.0,368.0,6.367
-150.0,400.0,6.368
-139.0,313.0,6.369
-121.0,228.0,6.37
-58.0,147.0,6.371
25.0,56.0,6.372
76.0,-61.0,6.373
80.0,-187.0,6.374
72.0,-334.0,6.375
90.0,-451.0,6.376
121.0,-476.0,6.377
140.0,-468.0,6.378
140.0,-311.0,6.379
136.0,-72.0,6.38
126.0,172.0,6.381
103.0,325.0,6.382
73.0,349.0,6.383
48.0,298.0,6.384
19.0,232.0,6.385
-18.0,163.0,6.386
-58.0,96.0,6.387
-87.0,58.0,6.388
-93.0,30.0,6.389
-73.0,-50.0,6.39
-35.0,-165.0,6.391
-3.0,-213.0,6.392
6.0,-159.0,6.393
-2.0,-127.0,6.394
-6.0,-203.0,6.395
-2.0,-271.0,6.396
7.0,-156.0,6.397
17.0,160.0,6.398
36.0,462.0,6.399
52.0,546.0,6.4
37.0,403.0,6.401
-4.0,181.0,6.402
-36.0,8.0,6.403
-42.0,-70.0,6.404
-42.0,-75.0,6.405
-43.0,-72.0,6.406
-19.0,-139.0,6.407
42.0,-305.0,6.408
102.0,-509.0,6.409
127.0,-602.0,6.41
132.0,-460.0,6.411
141.0,-129.0,6.412
146.0,168.0,6.413
118.0,232.0,6.414
66.0,107.0,6.415
17.0,2.0,6.416
-23.0,12.0,6.417
-70.0,17.0,6.418
-118.0,-123.0,6.419
-150.0,-363.0,6.42
-171.0,-459.0,6.421
-190.0,-218.0,6.422
-195.0,264.0,6.423
-156.0,679.0,6.424
-82.0,803.0,6.425
-6.0,737.0,6.426
45.0,708.0,6.427
70.0,738.0,6.428
70.0,642.0,6.429
58.0,373.0,6.43
55.0,124.0,6.431
67.0,32.0,6.432
70.0,-9.0,6.433
49.0,-139.0,6.434
21.0,-316.0,6.435
22.0,-442.0,6.436
47.0,-517.0,6.437
64.0,-570.0,6.438
54.0,-531.0,6.439
20.0,-378.0,6.44
-24.0,-234.0,6.441
-67.0,-182.0,6.442
-93.0,-134.0,6.443
-94.0,1.0,6.444
-83.0,134.0,6.445
-72.0,120.0,6.446
-48.0,-10.0,6.447
7.0,-119.0,6.448
64.0,-162.0,6.449
79.0,-171.0,6.45
58.0,-134.0,6.451
51.0,-30.0,6.452
66.0,62.0,6.453
59.0,52.0,6.454
32.0,-16.0,6.455
49.0,-43.0,6.456
129.0,-65.0,6.457
211.0,-231.0,6.458
200.0,-508.0,6.459
88.0,-637.0,6.46
-42.0,-423.0,6.461
-122.0,-7.0,6.462
-146.0,304.0,6.463
-150.0,432.0,6.464
-169.0,562.0,6.465
-204.0,785.0,6.466
-222.0,921.0,6.467
-185.0,780.0,6.468
-101.0,445.0,6.469
-10.0,145.0,6.47
76.0,-39.0,6.471
177.0,-174.0,6.472
270.0,-260.0,6.473
292.0,-220.0,6.474
235.0,-88.0,6.475
156.0,-17.0,6.476
95.0,-66.0,6.477
6.0,-179.0,6.478
-119.0,-303.0,6.479
-215.0,-458.0,6.48
-222.0,-590.0,6.481
-179.0,-542.0,6.482
-165.0,-289.0,6.483
-182.0,-25.0,6.484
-166.0,78.0,6.485
-85.0,97.0,6.486
33.0,212.0,6.487
153.0,425.0,6.488
253.0,563.0,6.489
300.0,502.0,6.49
255.0,318.0,6.491
117.0,188.0,6.492
-45.0,180.0,6.493
-152.0,161.0,6.494
-186.0,-25.0,6.495
-188.0,-330.0,6.496
-182.0,-517.0,6.497
-148.0,-490.0,6.498
-58.0,-386.0,6.499
69.0,-386.0,6.5
178.0,-441.0,6.501
216.0,-361.0,6.502
177.0,-121.0,6.503
80.0,111.0,6.504
-43.0,209.0,6.505
-154.0,200.0,6.506
-218.0,188.0,6.507
-237.0,243.0,6.508
-239.0,349.0,6.509
-219.0,382.0,6.51
-113.0,236.0,6.511
108.0,-3.0,6.512
357.0,-106.0,6.513
491.0,1.0,6.514
459.0,144.0,6.515
327.0,162.0,6.516
195.0,149.0,6.517
70.0,248.0,6.518
-61.0,401.0,6.519
-211.0,387.0,6.52
-326.0,130.0,6.521
-328.0,-180.0,6.522
-199.0,-319.0,6.523
-37.0,-259.0,6.524
59.0,-127.0,6.525
109.0,-27.0,6.526
167.0,47.0,6.527
195.0,100.0,6.528
137.0,67.0,6.529
51.0,-90.0,6.53
32.0,-265.0,6.531
40.0,-296.0,6.532
-30.0,-182.0,6.533
-123.0,-80.0,6.534
-78.0,-77.0,6.535
78.0,-82.0,6.536
127.0,-19.0,6.537
-35.0,39.0,6.538
-217.0,16.0,6.539
-203.0,-10.0,6.54
-58.0,-46.0,6.541
-3.0,-79.0,6.542
-68.0,-103.0,6.543
-85.0,-122.0,6.544
4.0,-120.0,6.545
65.0,-115.0,6.546
16.0,-99.0,6.547
-61.0,-79.0,6.548
-77.0,-48.0,6.549
-59.0,-25.0,6.55
-57.0,-29.0,6.551
-55.0,-31.0,6.552
-29.0,-27.0,6.553
3.0,-13.0,6.554
25.0,28.0,6.555
48.0,55.0,6.556
70.0,37.0,6.557
70.0,15.0,6.558
52.0,-14.0,6.559
39.0,-13.0,6.56
36.0,23.0,6.561
31.0,78.0,6.562
22.0,112.0,6.563
29.0,108.0,6.564
49.0,88.0,6.565
77.0,74.0,6.566
102.0,66.0,6.567
107.0,57.0,6.568
70.0,60.0,6.569
9.0,84.0,6.57
-26.0,109.0,6.571
-35.0,100.0,6.572
-62.0,68.0,6.573
-111.0,42.0,6.574
-130.0,26.0,6.575
-92.0,-6.0,6.576
-45.0,-46.0,6.577
-27.0,-71.0,6.578
-14.0,-60.0,6.579
21.0,-35.0,6.58
59.0,-28.0,6.581
61.0,-36.0,6.582
36.0,-52.0,6.583
19.0,-76.0,6.584
18.0,-100.0,6.585
15.0,-106.0,6.586
2.0,-80.0,6.587
-4.0,-38.0,6.588
-2.0,5.0,6.589
10.0,43.0,6.59
34.0,56.0,6.591
68.0,23.0,6.592
87.0,-40.0,6.593
74.0,-74.0,6.594
36.0,-32.0,6.595
0.0,53.0,6.596
-18.0,108.0,6.597
-22.0,97.0,6.598
-21.0,38.0,6.599
-27.0,-48.0,6.6
-37.0,-166.0,6.601
-40.0,-283.0,6.602
-32.0,-313.0,6.603
-11.0,-189.0,6.604
16.0,52.0,6.605
43.0,288.0,6.606
59.0,414.0,6.607
55.0,412.0,6.608
43.0,321.0,6.609
42.0,203.0,6.61
51.0,121.0,6.611
47.0,98.0,6.612
25.0,101.0,6.613
-5.0,87.0,6.614
-29.0,60.0,6.615
-45.0,57.0,6.616
-49.0,54.0,6.617
-40.0,-11.0,6.618
-31.0,-132.0,6.619
-33.0,-227.0,6.62
-36.0,-237.0,6.621
-25.0,-189.0,6.622
-9.0,-129.0,6.623
-5.0,-51.0,6.624
-15.0,44.0,6.625
-25.0,99.0,6.626
-21.0,61.0,6.627
-8.0,-28.0,6.628
3.0,-84.0,6.629
12.0,-79.0,6.63
14.0,-62.0,6.631
12.0,-72.0,6.632
14.0,-89.0,6.633
22.0,-87.0,6.634
29.0,-73.0,6.635
24.0,-68.0,6.636
12.0,-67.0,6.637
-4.0,-50.0,6.638
-18.0,-17.0,6.639
-29.0,16.0,6.64
-34.0,33.0,6.641
-28.0,39.0,6.642
-10.0,38.0,6.643
6.0,31.0,6.644
11.0,22.0,6.645
4.0,13.0,6.646
-1.0,-2.0,6.647
-2.0,-30.0,6.648
-5.0,-51.0,6.649
-9.0,-50.0,6.65
-5.0,-32.0,6.651
5.0,-22.0,6.652
12.0,-26.0,6.653
10.0,-22.0,6.654
14.0,8.0,6.655
22.0,50.0,6.656
23.0,74.0,6.657
9.0,64.0,6.658
-4.0,44.0,6.659
-5.0,38.0,6.66
-4.0,41.0,6.661
-8.0,31.0,6.662
-5.0,4.0,6.663
14.0,-12.0,6.664
25.0,-6.0,6.665
14.0,9.0,6.666
-1.0,10.0,6.667
1.0,-1.0,6.668
12.0,6.0,6.669
7.0,55.0,6.67
-9.0,135.0,6.671
-13.0,201.0,6.672
-5.0,220.0,6.673
-2.0,195.0,6.674
-7.0,144.0,6.675
-15.0,83.0,6.676
-17.0,12.0,6.677
-13.0,-91.0,6.678
-4.0,-213.0,6.679
10.0,-317.0,6.68
21.0,-370.0,6.681
27.0,-365.0,6.682
33.0,-313.0,6.683
38.0,-221.0,6.684
33.0,-106.0,6.685
20.0,-13.0,6.686
8.0,28.0,6.687
1.0,35.0,6.688
-12.0,33.0,6.689
-31.0,12.0,6.69
-38.0,-37.0,6.691
-22.0,-57.0,6.692
-4.0,11.0,6.693
2.0,124.0,6.694
1.0,185.0,6.695
7.0,172.0,6.696
14.0,155.0,6.697
8.0,170.0,6.698
-2.0,179.0,6.699
-10.0,150.0,6.7
-10.0,116.0,6.701
-1.0,114.0,6.702
13.0,120.0,6.703
23.0,102.0,6.704
17.0,73.0,6.705
3.0,47.0,6.706
-1.0,24.0,6.707
5.0,-2.0,6.708
7.0,-18.0,6.709
-3.0,-32.0,6.71
-11.0,-59.0,6.711
-14.0,-81.0,6.712
-20.0,-70.0,6.713
-27.0,-43.0,6.714
-25.0,-49.0,6.715
-7.0,-99.0,6.716
16.0,-149.0,6.717
29.0,-177.0,6.718
33.0,-188.0,6.719
29.0,-188.0,6.72
22.0,-154.0,6.721
15.0,-77.0,6.722
15.0,-6.0,6.723
18.0,19.0,6.724
20.0,17.0,6.725
17.0,28.0,6.726
14.0,50.0,6.727
8.0,60.0,6.728
-1.0,52.0,6.729
-11.0,48.0,6.73
-17.0,48.0,6.731
-16.0,40.0,6.732
-10.0,25.0,6.733
2.0,24.0,6.734
14.0,43.0,6.735
16.0,65.0,6.736
10.0,73.0,6.737
0.0,62.0,6.738
-1.0,47.0,6.739
2.0,33.0,6.74
9.0,17.0,6.741
14.0,3.0,6.742
17.0,-13.0,6.743
17.0,-34.0,6.744
7.0,-50.0,6.745
0.0,-52.0,6.746
4.0,-39.0,6.747
14.0,-29.0,6.748
16.0,-28.0,6.749
13.0,-19.0,6.75
6.0,13.0,6.751
3.0,56.0,6.752
0.0,78.0,6.753
-5.0,65.0,6.754
-11.0,40.0,6.755
-15.0,32.0,6.756
-13.0,43.0,6.757
-9.0,44.0,6.758
2.0,22.0,6.759
8.0,-2.0,6.76
4.0,-13.0,6.761
-2.0,-23.0,6.762
0.0,-52.0,6.763
9.0,-92.0,6.764
7.0,-106.0,6.765
-4.0,-63.0,6.766
-9.0,33.0,6.767
-1.0,132.0,6.768
4.0,179.0,6.769
-1.0,158.0,6.77
-10.0,103.0,6.771
-6.0,52.0,6.772
7.0,-1.0,6.773
18.0,-68.0,6.774
21.0,-131.0,6.775
20.0,-159.0,6.776
18.0,-146.0,6.777
14.0,-112.0,6.778
12.0,-70.0,6.779
9.0,-34.0,6.78
5.0,-24.0,6.781
-1.0,-39.0,6.782
-2.0,-54.0,6.783
0.0,-48.0,6.784
-3.0,-38.0,6.785
-14.0,-41.0,6.786
-18.0,-36.0,6.787
-5.0,7.0,6.788
13.0,81.0,6.789
14.0,138.0,6.79
1.0,152.0,6.791
-7.0,144.0,6.792
-7.0,135.0,6.793
-6.0,124.0,6.794
-7.0,96.0,6.795
-4.0,47.0,6.796
1.0,-5.0,6.797
-2.0,-62.0,6.798
-11.0,-125.0,6.799
-19.0,-190.0,6.8
-23.0,-229.0,6.801
-23.0,-209.0,6.802
-11.0,-137.0,6.803
0.0,-62.0,6.804
12.0,-17.0,6.805
22.0,6.0,6.806
30.0,27.0,6.807
36.0,43.0,6.808
36.0,51.0,6.809
34.0,64.0,6.81
28.0,93.0,6.811
21.0,122.0,6.812
11.0,125.0,6.813
3.0,106.0,6.814
1.0,84.0,6.815
0.0,60.0,6.816
1.0,21.0,6.817
5.0,-32.0,6.818
3.0,-70.0,6.819
-6.0,-95.0,6.82
-20.0,-74.0,6.821
-23.0,-46.0,6.822
-17.0,0.0,6.823
-10.0,34.0,6.824
-11.0,34.0,6.825
-9.0,32.0,6.826
7.0,19.0,6.827
25.0,10.0,6.828
23.0,14.0,6.829
5.0,20.0,6.83
-9.0,34.0,6.831
-7.0,39.0,6.832
6.0,13.0,6.833
20.0,-3.0,6.834
25.0,10.0,6.835
25.0,23.0,6.836
20.0,35.0,6.837
13.0,42.0,6.838
7.0,31.0,6.839
9.0,32.0,6.84
13.0,26.0,6.841
5.0,-3.0,6.842
-17.0,-35.0,6.843
-39.0,-32.0,6.844
-48.0,14.0,6.845
-44.0,49.0,6.846
-39.0,16.0,6.847
-34.0,-65.0,6.848
-22.0,-121.0,6.849
0.0,-112.0,6.85
18.0,-73.0,6.851
27.0,-49.0,6.852
32.0,-38.0,6.853
34.0,-23.0,6.854
31.0,-5.0,6.855
26.0,5.0,6.856
30.0,19.0,6.857
46.0,50.0,6.858
59.0,89.0,6.859
46.0,109.0,6.86
13.0,99.0,6.861
-16.0,71.0,6.862
-17.0,31.0,6.863
-7.0,-14.0,6.864
-14.0,-33.0,6.865
-33.0,-4.0,6.866
-40.0,54.0,6.867
-29.0,86.0,6.868
-25.0,61.0,6.869
-41.0,3.0,6.87
-47.0,-44.0,6.871
-29.0,-69.0,6.872
-9.0,-89.0,6.873
-7.0,-115.0,6.874
-14.0,-137.0,6.875
-8.0,-147.0,6.876
-1.0,-146.0,6.877
-3.0,-141.0,6.878
-9.0,-125.0,6.879
-11.0,-96.0,6.88
-11.0,-71.0,6.881
-9.0,-50.0,6.882
11.0,-25.0,6.883
55.0,8.0,6.884
105.0,42.0,6.885
138.0,76.0,6.886
142.0,131.0,6.887
99.0,225.0,6.888
15.0,314.0,6.889
-61.0,307.0,6.89
-83.0,162.0,6.891
-73.0,-49.0,6.892
-84.0,-207.0,6.893
-103.0,-251.0,6.894
-73.0,-217.0,6.895
3.0,-165.0,6.896
51.0,-118.0,6.897
42.0,-68.0,6.898
16.0,-20.0,6.899
-6.0,11.0,6.9
-18.0,34.0,6.901
-25.0,69.0,6.902
-13.0,106.0,6.903
2.0,120.0,6.904
26.0,106.0,6.905
45.0,82.0,6.906
43.0,73.0,6.907
37.0,91.0,6.908
17.0,117.0,6.909
2.0,112.0,6.91
5.0,54.0,6.911
-3.0,-29.0,6.912
-51.0,-84.0,6.913
-76.0,-94.0,6.914
-30.0,-90.0,6.915
7.0,-83.0,6.916
22.0,-53.0,6.917
35.0,3.0,6.918
52.0,55.0,6.919
75.0,90.0,6.92
57.0,74.0,6.921
14.0,54.0,6.922
-8.0,22.0,6.923
-6.0,-15.0,6.924
-13.0,-68.0,6.925
-30.0,-101.0,6.926
-41.0,-69.0,6.927
-42.0,-35.0,6.928
-33.0,-1.0,6.929
3.0,15.0,6.93
54.0,-18.0,6.931
79.0,-14.0,6.932
61.0,103.0,6.933
34.0,228.0,6.934
14.0,368.0,6.935
-10.0,407.0,6.936
-30.0,140.0,6.937
-26.0,-137.0,6.938
-7.0,-357.0,6.939
-15.0,-406.0,6.94
-42.0,-391.0,6.941
-42.0,-380.0,6.942
-9.0,-345.0,6.943
6.0,-267.0,6.944
-5.0,-187.0,6.945
-7.0,-132.0,6.946
12.0,-62.0,6.947
27.0,53.0,6.948
27.0,180.0,6.949
35.0,254.0,6.95
45.0,237.0,6.951
30.0,159.0,6.952
-1.0,98.0,6.953
-5.0,126.0,6.954
27.0,214.0,6.955
52.0,265.0,6.956
50.0,240.0,6.957
31.0,170.0,6.958
18.0,112.0,6.959
7.0,63.0,6.96
-1.0,-7.0,6.961
0.0,-95.0,6.962
7.0,-178.0,6.963
3.0,-233.0,6.964
-13.0,-233.0,6.965
-24.0,-174.0,6.966
-19.0,-89.0,6.967
-12.0,-14.0,6.968
-19.0,45.0,6.969
-33.0,76.0,6.97
-39.0,41.0,6.971
-35.0,-64.0,6.972
-23.0,-174.0,6.973
-1.0,-228.0,6.974
31.0,-230.0,6.975
54.0,-186.0,6.976
51.0,-71.0,6.977
14.0,131.0,6.978
-29.0,315.0,6.979
-55.0,355.0,6.98
-61.0,239.0,6.981
-60.0,83.0,6.982
-49.0,-4.0,6.983
-19.0,14.0,6.984
19.0,106.0,6.985
36.0,184.0,6.986
23.0,159.0,6.987
-6.0,18.0,6.988
-31.0,-164.0,6.989
-56.0,-312.0,6.99
-78.0,-396.0,6.991
-87.0,-414.0,6.992
-74.0,-375.0,6.993
-42.0,-298.0,6.994
-9.0,-209.0,6.995
12.0,-114.0,6.996
14.0,-22.0,6.997
7.0,61.0,6.998
10.0,116.0,6.999
18.0,144.0,7.0
17.0,155.0,7.001
0.0,163.0,7.002
-22.0,169.0,7.003
-30.0,177.0,7.004
-30.0,180.0,7.005
-32.0,158.0,7.006
-34.0,117.0,7.007
-22.0,88.0,7.008
5.0,94.0,7.009
34.0,132.0,7.01
51.0,178.0,7.011
57.0,203.0,7.012
62.0,199.0,7.013
70.0,192.0,7.014
73.0,223.0,7.015
68.0,285.0,7.016
65.0,304.0,7.017
67.0,202.0,7.018
70.0,22.0,7.019
64.0,-111.0,7.02
52.0,-123.0,7.021
41.0,-66.0,7.022
34.0,-46.0,7.023
28.0,-107.0,7.024
24.0,-210.0,7.025
32.0,-296.0,7.026
49.0,-353.0,7.027
55.0,-388.0,7.028
41.0,-375.0,7.029
23.0,-263.0,7.03
18.0,-51.0,7.031
23.0,160.0,7.032
25.0,254.0,7.033
20.0,203.0,7.034
13.0,84.0,7.035
8.0,-30.0,7.036
10.0,-114.0,7.037
12.0,-166.0,7.038
15.0,-148.0,7.039
9.0,-67.0,7.04
-3.0,-7.0,7.041
-14.0,-33.0,7.042
-20.0,-115.0,7.043
-18.0,-164.0,7.044
-16.0,-148.0,7.045
-11.0,-102.0,7.046
-3.0,-44.0,7.047
2.0,47.0,7.048
-6.0,162.0,7.049
-32.0,229.0,7.05
-54.0,214.0,7.051
-56.0,178.0,7.052
-46.0,171.0,7.053
-48.0,172.0,7.054
-64.0,167.0,7.055
-83.0,199.0,7.056
-88.0,266.0,7.057
-85.0,260.0,7.058
-75.0,86.0,7.059
-49.0,-183.0,7.06
-6.0,-383.0,7.061
42.0,-459.0,7.062
80.0,-478.0,7.063
103.0,-477.0,7.064
105.0,-441.0,7.065
85.0,-382.0,7.066
52.0,-333.0,7.067
24.0,-275.0,7.068
0.0,-182.0,7.069
-26.0,-80.0,7.07
-47.0,17.0,7.071
-51.0,180.0,7.072
-49.0,452.0,7.073
-57.0,718.0,7.074
-64.0,790.0,7.075
-47.0,613.0,7.076
-12.0,321.0,7.077
0.0,24.0,7.078
-17.0,-184.0,7.079
-33.0,-276.0,7.08
-19.0,-265.0,7.081
12.0,-188.0,7.082
28.0,-91.0,7.083
22.0,17.0,7.084
14.0,156.0,7.085
9.0,329.0,7.086
9.0,483.0,7.087
16.0,531.0,7.088
32.0,425.0,7.089
51.0,203.0,7.09
60.0,-17.0,7.091
58.0,-135.0,7.092
53.0,-169.0,7.093
41.0,-210.0,7.094
20.0,-283.0,7.095
2.0,-329.0,7.096
3.0,-316.0,7.097
17.0,-293.0,7.098
20.0,-287.0,7.099
1.0,-249.0,7.1
-22.0,-133.0,7.101
-32.0,11.0,7.102
-25.0,79.0,7.103
-15.0,26.0,7.104
-6.0,-115.0,7.105
4.0,-274.0,7.106
17.0,-360.0,7.107
28.0,-309.0,7.108
40.0,-145.0,7.109
54.0,32.0,7.11
62.0,132.0,7.111
53.0,143.0,7.112
35.0,122.0,7.113
26.0,130.0,7.114
35.0,167.0,7.115
49.0,170.0,7.116
52.0,96.0,7.117
31.0,0.0,7.118
8.0,-9.0,7.119
-11.0,79.0,7.12
-19.0,141.0,7.121
-26.0,123.0,7.122
-31.0,120.0,7.123
-35.0,219.0,7.124
-32.0,339.0,7.125
-27.0,323.0,7.126
-19.0,150.0,7.127
-10.0,-30.0,7.128
0.0,-58.0,7.129
12.0,72.0,7.13
27.0,229.0,7.131
37.0,273.0,7.132
30.0,193.0,7.133
18.0,95.0,7.134
-5.0,58.0,7.135
-21.0,32.0,7.136
-14.0,-58.0,7.137
-8.0,-179.0,7.138
-25.0,-216.0,7.139
-58.0,-222.0,7.14
-77.0,-130.0,7.141
-65.0,-78.0,7.142
-34.0,-146.0,7.143
-14.0,-214.0,7.144
-12.0,-284.0,7.145
-10.0,-333.0,7.146
10.0,-318.0,7.147
35.0,-296.0,7.148
34.0,-257.0,7.149
1.0,-220.0,7.15
-28.0,-188.0,7.151
-18.0,-153.0,7.152
16.0,-113.0,7.153
32.0,-65.0,7.154
14.0,4.0,7.155
-8.0,62.0,7.156
-6.0,81.0,7.157
3.0,110.0,7.158
-2.0,190.0,7.159
-17.0,275.0,7.16
-14.0,310.0,7.161
9.0,311.0,7.162
27.0,309.0,7.163
28.0,301.0,7.164
33.0,253.0,7.165
58.0,150.0,7.166
91.0,24.0,7.167
104.0,-86.0,7.168
81.0,-160.0,7.169
28.0,-196.0,7.17
-29.0,-201.0,7.171
-62.0,-174.0,7.172
-72.0,-128.0,7.173
-78.0,-86.0,7.174
-88.0,-72.0,7.175
-88.0,-80.0,7.176
-70.0,-74.0,7.177
-40.0,-17.0,7.178
-7.0,90.0,7.179
18.0,194.0,7.18
31.0,239.0,7.181
34.0,225.0,7.182
39.0,203.0,7.183
50.0,214.0,7.184
58.0,250.0,7.185
54.0,262.0,7.186
40.0,229.0,7.187
21.0,165.0,7.188
-7.0,97.0,7.189
-40.0,22.0,7.19
-61.0,-58.0,7.191
-60.0,-128.0,7.192
-49.0,-164.0,7.193
-39.0,-184.0,7.194
-25.0,-234.0,7.195
-9.0,-304.0,7.196
0.0,-325.0,7.197
4.0,-254.0,7.198
19.0,-138.0,7.199
52.0,-54.0,7.2
82.0,-24.0,7.201
90.0,-18.0,7.202
77.0,-37.0,7.203
57.0,-90.0,7.204
34.0,-126.0,7.205
0.0,-75.0,7.206
-47.0,50.0,7.207
-88.0,168.0,7.208
-105.0,231.0,7.209
-102.0,257.0,7.21
-99.0,272.0,7.211
-101.0,270.0,7.212
-96.0,260.0,7.213
-71.0,256.0,7.214
-32.0,247.0,7.215
-4.0,201.0,7.216
5.0,130.0,7.217
5.0,59.0,7.218
16.0,10.0,7.219
42.0,-37.0,7.22
71.0,-100.0,7.221
86.0,-174.0,7.222
83.0,-268.0,7.223
66.0,-376.0,7.224
45.0,-445.0,7.225
37.0,-424.0,7.226
44.0,-316.0,7.227
59.0,-170.0,7.228
58.0,-28.0,7.229
28.0,78.0,7.23
-12.0,128.0,7.231
-37.0,143.0,7.232
-45.0,164.0,7.233
-52.0,181.0,7.234
-58.0,149.0,7.235
-51.0,62.0,7.236
-30.0,-27.0,7.237
-12.0,-103.0,7.238
3.0,-160.0,7.239
21.0,-177.0,7.24
48.0,-129.0,7.241
67.0,-56.0,7.242
58.0,-30.0,7.243
22.0,-41.0,7.244
-18.0,-21.0,7.245
-46.0,20.0,7.246
-61.0,17.0,7.247
-71.0,-39.0,7.248
-76.0,-82.0,7.249
-65.0,-82.0,7.25
-33.0,-66.0,7.251
5.0,-38.0,7.252
22.0,30.0,7.253
21.0,112.0,7.254
28.0,132.0,7.255
55.0,79.0,7.256
74.0,22.0,7.257
61.0,-3.0,7.258
37.0,-9.0,7.259
40.0,-21.0,7.26
68.0,-32.0,7.261
85.0,-26.0,7.262
72.0,-16.0,7.263
43.0,-9.0,7.264
3.0,12.0,7.265
-47.0,49.0,7.266
-92.0,78.0,7.267
-100.0,84.0,7.268
-65.0,77.0,7.269
-22.0,73.0,7.27
0.0,68.0,7.271
9.0,61.0,7.272
21.0,54.0,7.273
40.0,49.0,7.274
57.0,46.0,7.275
64.0,50.0,7.276
63.0,68.0,7.277
54.0,-421.0,7.278
47.0,-302.0,7.279
42.0,-196.0,7.28
32.0,-130.0,7.281
10.0,-77.0,7.282
-13.0,-61.0,7.283
-19.0,-41.0,7.284
-13.0,-13.0,7.285
-4.0,1.0,7.286
6.0,-37.0,7.287
26.0,-69.0,7.288
48.0,-90.0,7.289
59.0,-75.0,7.29
58.0,46.0,7.291
53.0,141.0,7.292
41.0,155.0,7.293
19.0,159.0,7.294
-2.0,134.0,7.295
-16.0,97.0,7.296
-27.0,22.0,7.297
-49.0,-319.0,7.298
-70.0,-232.0,7.299
-83.0,-154.0,7.3
-91.0,-106.0,7.301
-100.0,-67.0,7.302
-91.0,-55.0,7.303
-57.0,-40.0,7.304
-30.0,-19.0,7.305
-38.0,-9.0,7.306
-60.0,-37.0,7.307
-52.0,-61.0,7.308
-18.0,-76.0,7.309
3.0,-65.0,7.31
9.0,24.0,7.311
19.0,94.0,7.312
34.0,104.0,7.313
31.0,107.0,7.314
11.0,89.0,7.315
7.0,62.0,7.316
26.0,7.0,7.317
42.0,-40.0,7.318
43.0,-31.0,7.319
38.0,16.0,7.32
40.0,50.0,7.321
47.0,68.0,7.322
58.0,91.0,7.323
68.0,116.0,7.324
65.0,129.0,7.325
38.0,150.0,7.326
7.0,200.0,7.327
-6.0,232.0,7.328
-10.0,187.0,7.329
-17.0,79.0,7.33
-21.0,-20.0,7.331
-5.0,-85.0,7.332
24.0,-151.0,7.333
45.0,-231.0,7.334
48.0,-290.0,7.335
40.0,-304.0,7.336
26.0,-296.0,7.337
5.0,-282.0,7.338
-21.0,-234.0,7.339
-39.0,-122.0,7.34
-30.0,34.0,7.341
3.0,182.0,7.342
27.0,265.0,7.343
10.0,271.0,7.344
-30.0,224.0,7.345
-53.0,130.0,7.346
-51.0,-12.0,7.347
-57.0,-171.0,7.348
-75.0,-271.0,7.349
-73.0,-250.0,7.35
-49.0,-118.0,7.351
-37.0,65.0,7.352
-42.0,246.0,7.353
-28.0,379.0,7.354
5.0,430.0,7.355
24.0,391.0,7.356
30.0,289.0,7.357
57.0,127.0,7.358
95.0,-43.0,7.359
75.0,-172.0,7.36
-4.0,-232.0,7.361
-52.0,-234.0,7.362
-16.0,-195.0,7.363
43.0,-125.0,7.364
60.0,-36.0,7.365
47.0,40.0,7.366
48.0,84.0,7.367
56.0,95.0,7.368
51.0,69.0,7.369
47.0,1.0,7.37
70.0,-85.0,7.371
104.0,-154.0,7.372
106.0,-193.0,7.373
59.0,-205.0,7.374
-11.0,-174.0,7.375
-61.0,-88.0,7.376
-65.0,4.0,7.377
-40.0,30.0,7.378
-26.0,-35.0,7.379
-43.0,-130.0,7.38
-65.0,-169.0,7.381
-53.0,-126.0,7.382
0.0,-39.0,7.383
46.0,56.0,7.384
38.0,153.0,7.385
-15.0,251.0,7.386
-53.0,331.0,7.387
-37.0,372.0,7.388
3.0,365.0,7.389
15.0,307.0,7.39
5.0,202.0,7.391
15.0,69.0,7.392
57.0,-43.0,7.393
101.0,-95.0,7.394
122.0,-89.0,7.395
107.0,-72.0,7.396
49.0,-78.0,7.397
-45.0,-291.0,7.398
-118.0,-242.0,7.399
-140.0,-185.0,7.4
-139.0,-108.0,7.401
-131.0,-33.0,7.402
-92.0,33.0,7.403
-44.0,90.0,7.404
-75.0,117.0,7.405
-195.0,152.0,7.406
-261.0,211.0,7.407
-154.0,241.0,7.408
29.0,179.0,7.409
107.0,129.0,7.41
57.0,117.0,7.411
5.0,101.0,7.412
31.0,76.0,7.413
97.0,51.0,7.414
144.0,29.0,7.415
155.0,16.0,7.416
140.0,37.0,7.417
99.0,-265.0,7.418
59.0,-220.0,7.419
30.0,-168.0,7.42
5.0,-97.0,7.421
-24.0,-28.0,7.422
-44.0,33.0,7.423
-52.0,86.0,7.424
-62.0,111.0,7.425
-66.0,143.0,7.426
-42.0,197.0,7.427
4.0,225.0,7.428
29.0,168.0,7.429
27.0,122.0,7.43
30.0,111.0,7.431
47.0,96.0,7.432
45.0,73.0,7.433
15.0,50.0,7.434
-4.0,29.0,7.435
3.0,17.0,7.436
15.0,37.0,7.437
12.0,50.0,7.438
8.0,37.0,7.439
5.0,22.0,7.44
-7.0,6.0,7.441
-20.0,-8.0,7.442
-12.0,-13.0,7.443
13.0,0.0,7.444
27.0,15.0,7.445
24.0,10.0,7.446
23.0,-8.0,7.447
22.0,-13.0,7.448
8.0,-3.0,7.449
-8.0,6.0,7.45
-4.0,3.0,7.451
12.0,0.0,7.452
12.0,0.0,7.453
-3.0,-1.0,7.454
-5.0,-5.0,7.455
9.0,-7.0,7.456
21.0,-6.0,7.457
24.0,-11.0,7.458
29.0,-19.0,7.459
31.0,-18.0,7.46
19.0,-10.0,7.461
-5.0,-3.0,7.462
-20.0,-5.0,7.463
-19.0,-10.0,7.464
-22.0,-12.0,7.465
-34.0,-10.0,7.466
-34.0,-9.0,7.467
-15.0,-12.0,7.468
4.0,-17.0,7.469
7.0,-22.0,7.47
7.0,-26.0,7.471
22.0,-31.0,7.472
47.0,-35.0,7.473
68.0,-33.0,7.474
71.0,-26.0,7.475
60.0,-17.0,7.476
46.0,-11.0,7.477
31.0,-9.0,7.478
16.0,-9.0,7.479
-7.0,-11.0,7.48
-39.0,-16.0,7.481
-63.0,-20.0,7.482
-63.0,-18.0,7.483
-40.0,-13.0,7.484
-23.0,-11.0,7.485
