Deltoid,Bicep,Time
74,17,0.0
62,15,0.001
26,10,0.002
-12,3,0.003
-27,-2,0.004
-26,-4,0.005
-36,-3,0.006
-55,-2,0.007
-68,-6,0.008
-63,-11,0.009
-49,-14,0.01
-32,-15,0.011
-11,-15,0.012
12,-11,0.013
30,-7,0.014
40,-1,0.015
42,4,0.016
39,3,0.017
32,5,0.018
27,8,0.019
22,8,0.02
16,5,0.021
10,6,0.022
11,7,0.023
16,2,0.024
13,-5,0.025
2,-10,0.026
-5,-8,0.027
-4,0,0.028
-2,8,0.029
-6,9,0.03
-11,3,0.031
-14,-4,0.032
-18,-3,0.033
-30,-3,0.034
-40,-7,0.035
-39,-19,0.036
-28,-29,0.037
-12,-21,0.038
4,-10,0.039
22,-1,0.04
42,0,0.041
58,4,0.042
67,9,0.043
60,10,0.044
41,8,0.045
23,3,0.046
18,0,0.047
23,1,0.048
28,3,0.049
27,3,0.05
21,0,0.051
14,-2,0.052
10,1,0.053
5,6,0.054
-3,5,0.055
-16,1,0.056
-29,0,0.057
-33,3,0.058
-26,4,0.059
-12,4,0.06
0,6,0.061
4,12,0.062
-3,14,0.063
-11,8,0.064
-15,0,0.065
-21,-4,0.066
-42,-8,0.067
-71,-16,0.068
-82,-19,0.069
-64,-11,0.07
-33,0,0.071
-10,7,0.072
1,6,0.073
5,1,0.074
12,-3,0.075
11,-10,0.076
8,-18,0.077
13,-17,0.078
26,-10,0.079
47,-5,0.08
69,0,0.081
83,8,0.082
84,12,0.083
67,11,0.084
39,5,0.085
14,3,0.086
-2,5,0.087
-14,-3,0.088
-28,-14,0.089
-41,-20,0.09
-46,-15,0.091
-48,-12,0.092
-45,-16,0.093
-37,-19,0.094
-21,-12,0.095
-1,-5,0.096
15,-3,0.097
23,-1,0.098
28,0,0.099
34,1,0.1
33,-4,0.101
25,-6,0.102
16,0,0.103
13,5,0.104
12,7,0.105
6,9,0.106
-4,7,0.107
-12,5,0.108
-10,7,0.109
-3,9,0.11
4,9,0.111
10,8,0.112
8,5,0.113
-2,2,0.114
-13,1,0.115
-14,6,0.116
-5,5,0.117
5,2,0.118
19,3,0.119
40,10,0.12
63,15,0.121
70,14,0.122
48,9,0.123
8,3,0.124
-26,1,0.125
-42,3,0.126
-40,5,0.127
-28,-2,0.128
-20,-13,0.129
-17,-20,0.13
-16,-14,0.131
-12,-5,0.132
-4,0,0.133
9,-3,0.134
25,-7,0.135
33,-11,0.136
19,-10,0.137
4,-9,0.138
-15,-7,0.139
-27,-4,0.14
-15,1,0.141
-5,8,0.142
-6,12,0.143
-2,15,0.144
15,11,0.145
27,8,0.146
20,6,0.147
14,4,0.148
14,-1,0.149
10,-6,0.15
-8,-6,0.151
-26,-6,0.152
-40,-10,0.153
-49,-15,0.154
-37,-16,0.155
-37,-12,0.156
-42,-10,0.157
-35,-7,0.158
-12,-3,0.159
13,-1,0.16
24,-1,0.161
26,-3,0.162
28,-4,0.163
33,-2,0.164
36,3,0.165
39,7,0.166
47,3,0.167
55,-1,0.168
52,-1,0.169
38,3,0.17
28,5,0.171
30,5,0.172
36,4,0.173
26,3,0.174
-3,0,0.175
-36,-2,0.176
-52,-3,0.177
-52,-3,0.178
-42,-2,0.179
-26,0,0.18
-6,3,0.181
8,5,0.182
9,3,0.183
6,2,0.184
8,7,0.185
14,14,0.186
13,13,0.187
4,7,0.188
-4,4,0.189
-6,0,0.19
-8,-8,0.191
-14,-15,0.192
-17,-14,0.193
-18,-6,0.194
-15,-1,0.195
-11,-5,0.196
-5,-13,0.197
4,-12,0.198
13,-7,0.199
12,-4,0.2
1,-2,0.201
-8,0,0.202
-7,1,0.203
11,-3,0.204
37,-7,0.205
51,-4,0.206
44,1,0.207
26,4,0.208
16,4,0.209
15,7,0.21
10,9,0.211
-4,4,0.212
-17,-4,0.213
-20,-10,0.214
-12,-11,0.215
3,-8,0.216
19,-6,0.217
28,-1,0.218
34,3,0.219
42,5,0.22
54,11,0.221
54,16,0.222
30,14,0.223
-6,6,0.224
-37,2,0.225
-58,5,0.226
-73,5,0.227
-82,-4,0.228
-76,-15,0.229
-54,-20,0.23
-27,-17,0.231
-10,-11,0.232
-4,0,0.233
-1,7,0.234
12,6,0.235
23,-5,0.236
21,-19,0.237
10,-20,0.238
9,-11,0.239
21,-1,0.24
31,8,0.241
26,12,0.242
16,9,0.243
7,3,0.244
-5,-3,0.245
-16,-7,0.246
-11,-8,0.247
10,-3,0.248
27,6,0.249
27,10,0.25
17,6,0.251
12,2,0.252
12,5,0.253
9,10,0.254
4,9,0.255
-1,3,0.256
2,-2,0.257
12,-1,0.258
26,0,0.259
35,0,0.26
31,4,0.261
22,8,0.262
19,7,0.263
20,0,0.264
11,-5,0.265
-10,-4,0.266
-30,-2,0.267
-39,1,0.268
-38,4,0.269
-39,4,0.27
-37,-4,0.271
-28,-13,0.272
-19,-16,0.273
-13,-16,0.274
-9,-16,0.275
-6,-13,0.276
-2,-5,0.277
1,0,0.278
8,-6,0.279
19,-12,0.28
27,-4,0.281
32,9,0.282
32,10,0.283
29,2,0.284
29,1,0.285
30,9,0.286
29,13,0.287
22,10,0.288
14,7,0.289
13,7,0.29
18,3,0.291
17,-3,0.292
6,-5,0.293
-9,-4,0.294
-14,-6,0.295
-18,-8,0.296
-25,-8,0.297
-30,-1,0.298
-21,1,0.299
-4,-1,0.3
7,-1,0.301
9,3,0.302
4,2,0.303
-7,-4,0.304
-23,-8,0.305
-32,-3,0.306
-26,2,0.307
-14,0,0.308
-7,-5,0.309
-4,-5,0.31
2,0,0.311
13,0,0.312
18,-3,0.313
15,-4,0.314
14,-3,0.315
11,-1,0.316
2,-3,0.317
-6,-1,0.318
-3,2,0.319
13,6,0.32
24,6,0.321
21,3,0.322
15,-1,0.323
15,-2,0.324
17,3,0.325
14,12,0.326
12,15,0.327
19,9,0.328
25,0,0.329
23,-3,0.33
13,-6,0.331
6,-10,0.332
5,-11,0.333
6,-5,0.334
4,2,0.335
-5,2,0.336
-21,-7,0.337
-33,-10,0.338
-29,-10,0.339
-16,-6,0.34
0,3,0.341
14,11,0.342
26,9,0.343
32,-2,0.344
28,-6,0.345
15,-1,0.346
2,8,0.347
-6,8,0.348
-15,0,0.349
-20,-5,0.35
-23,-8,0.351
-23,-6,0.352
-21,-1,0.353
-16,1,0.354
-4,0,0.355
3,-2,0.356
7,-5,0.357
9,-1,0.358
12,3,0.359
12,5,0.36
5,4,0.361
3,3,0.362
9,6,0.363
11,8,0.364
1,5,0.365
-8,-1,0.366
-8,-8,0.367
-3,-9,0.368
-5,-7,0.369
-15,-7,0.37
-21,-11,0.371
-23,-13,0.372
-24,-6,0.373
-24,-2,0.374
-14,-4,0.375
2,-8,0.376
15,-9,0.377
23,-5,0.378
35,-2,0.379
55,1,0.38
69,7,0.381
66,10,0.382
46,5,0.383
23,-2,0.384
7,0,0.385
-3,6,0.386
-10,6,0.387
-15,2,0.388
-13,5,0.389
-10,11,0.39
-13,8,0.391
-15,-3,0.392
-8,-9,0.393
6,2,0.394
16,0,0.395
8,-1,0.396
-6,-3,0.397
-12,-5,0.398
-11,-5,0.399
-9,-4,0.4
-14,0,0.401
-16,4,0.402
-8,5,0.403
2,6,0.404
8,7,0.405
6,7,0.406
6,5,0.407
17,1,0.408
30,-3,0.409
35,-9,0.41
23,-15,0.411
7,-20,0.412
-3,-21,0.413
-4,2,0.414
-1,0,0.415
-2,-1,0.416
-7,-3,0.417
-14,-5,0.418
-12,-5,0.419
-2,-4,0.42
8,0,0.421
14,3,0.422
18,4,0.423
19,5,0.424
8,6,0.425
-12,6,0.426
-28,4,0.427
-31,1,0.428
-21,-3,0.429
-11,-8,0.43
-10,-13,0.431
-15,-17,0.432
-13,-18,0.433
-3,-18,0.434
10,-11,0.435
17,-6,0.436
13,-4,0.437
4,-1,0.438
0,2,0.439
1,4,0.44
1,8,0.441
0,10,0.442
1,11,0.443
6,11,0.444
9,9,0.445
4,8,0.446
2,5,0.447
8,1,0.448
15,-1,0.449
13,-2,0.45
5,-1,0.451
10,-2,0.452
29,-1,0.453
46,-4,0.454
49,-3,0.455
34,1,0.456
16,2,0.457
10,1,0.458
20,2,0.459
34,5,0.46
37,3,0.461
23,0,0.462
3,-5,0.463
-13,-5,0.464
-28,-1,0.465
-35,1,0.466
-26,1,0.467
-14,-2,0.468
-16,-5,0.469
-32,-8,0.47
-39,-7,0.471
-26,-3,0.472
-11,0,0.473
-8,-4,0.474
-10,-11,0.475
-4,-12,0.476
5,-8,0.477
11,-2,0.478
12,4,0.479
9,7,0.48
3,6,0.481
-1,4,0.482
2,-1,0.483
11,-4,0.484
10,-7,0.485
0,-9,0.486
-9,-5,0.487
-12,2,0.488
-11,1,0.489
-11,-6,0.49
-6,-12,0.491
3,-8,0.492
12,0,0.493
11,3,0.494
5,3,0.495
0,2,0.496
-1,0,0.497
0,0,0.498
9,3,0.499
17,6,0.5
18,8,0.501
18,10,0.502
15,6,0.503
12,2,0.504
8,0,0.505
7,-1,0.506
15,-1,0.507
23,-1,0.508
28,-2,0.509
29,-3,0.51
18,-1,0.511
8,0,0.512
5,-2,0.513
1,-4,0.514
-5,-1,0.515
-10,-3,0.516
-11,-10,0.517
-7,-7,0.518
-2,2,0.519
8,6,0.52
19,5,0.521
23,4,0.522
15,7,0.523
2,2,0.524
-4,-4,0.525
-5,-6,0.526
-5,0,0.527
-5,3,0.528
-8,1,0.529
-12,-5,0.53
-11,-10,0.531
1,-10,0.532
26,-5,0.533
55,0,0.534
72,0,0.535
67,-1,0.536
46,-3,0.537
21,5,0.538
-1,15,0.539
-20,18,0.54
-45,13,0.541
-80,5,0.542
-110,-8,0.543
-114,-22,0.544
-97,-29,0.545
-76,-26,0.546
-53,-14,0.547
-11,-6,0.548
53,0,0.549
104,6,0.55
115,9,0.551
88,7,0.552
51,3,0.553
4,0,0.554
-36,-4,0.555
-62,-9,0.556
-69,-16,0.557
-68,-16,0.558
-61,-10,0.559
-40,-5,0.56
-15,-6,0.561
-2,-5,0.562
-1,0,0.563
9,6,0.564
37,9,0.565
61,10,0.566
60,11,0.567
50,10,0.568
47,6,0.569
53,3,0.57
60,4,0.571
67,5,0.572
72,4,0.573
65,-2,0.574
42,-4,0.575
7,-3,0.576
-24,-3,0.577
-45,0,0.578
-50,5,0.579
-48,5,0.58
-49,0,0.581
-48,-8,0.582
-38,-12,0.583
-16,-10,0.584
4,0,0.585
12,13,0.586
14,16,0.587
17,8,0.588
17,-1,0.589
12,-2,0.59
9,3,0.591
16,3,0.592
26,-1,0.593
32,-5,0.594
32,-5,0.595
28,-4,0.596
19,-3,0.597
13,1,0.598
18,8,0.599
26,8,0.6
28,2,0.601
18,-1,0.602
6,2,0.603
-6,0,0.604
-21,-8,0.605
-32,-13,0.606
-30,-10,0.607
-13,-6,0.608
4,-5,0.609
7,-7,0.61
-5,-4,0.611
-15,3,0.612
-12,6,0.613
0,2,0.614
7,-1,0.615
-10,1,0.616
-40,-2,0.617
-65,-10,0.618
-72,-17,0.619
-68,-20,0.62
-63,-17,0.621
-53,-11,0.622
-27,-2,0.623
10,11,0.624
41,15,0.625
61,9,0.626
66,2,0.627
63,2,0.628
51,8,0.629
39,11,0.63
30,8,0.631
23,6,0.632
15,2,0.633
2,-7,0.634
-5,-14,0.635
-9,-10,0.636
-13,-1,0.637
-14,2,0.638
-10,3,0.639
-3,4,0.64
0,9,0.641
-5,9,0.642
-10,1,0.643
-4,-2,0.644
3,4,0.645
9,12,0.646
14,9,0.647
22,-1,0.648
34,-4,0.649
41,1,0.65
42,4,0.651
37,-1,0.652
30,-8,0.653
20,-12,0.654
12,-7,0.655
8,-6,0.656
10,-12,0.657
7,-15,0.658
-2,-10,0.659
-11,-3,0.66
-11,-6,0.661
-1,-8,0.662
17,-3,0.663
35,7,0.664
46,11,0.665
38,8,0.666
15,5,0.667
-5,5,0.668
-10,5,0.669
-8,7,0.67
-11,12,0.671
-19,13,0.672
-19,11,0.673
-20,3,0.674
-36,-5,0.675
-66,-13,0.676
-82,-25,0.677
-68,-29,0.678
-33,-23,0.679
-5,-12,0.68
4,-4,0.681
5,1,0.682
4,1,0.683
1,-1,0.684
-4,-4,0.685
-5,1,0.686
-2,9,0.687
1,11,0.688
2,8,0.689
5,2,0.69
8,-1,0.691
3,-5,0.692
-1,-7,0.693
2,-4,0.694
13,0,0.695
15,-1,0.696
10,-8,0.697
10,-8,0.698
21,0,0.699
32,10,0.7
34,12,0.701
31,6,0.702
33,0,0.703
36,2,0.704
35,8,0.705
27,9,0.706
19,7,0.707
16,6,0.708
21,10,0.709
34,11,0.71
42,6,0.711
27,-2,0.712
-1,-3,0.713
-33,-3,0.714
-47,-5,0.715
-48,-8,0.716
-46,-11,0.717
-43,-8,0.718
-33,-3,0.719
-19,2,0.72
-9,4,0.721
-8,6,0.722
-5,1,0.723
5,-9,0.724
18,-15,0.725
24,-12,0.726
24,-4,0.727
20,0,0.728
13,-4,0.729
0,-10,0.73
-10,-13,0.731
-7,-13,0.732
5,-8,0.733
16,-8,0.734
12,-7,0.735
-5,-7,0.736
-17,-4,0.737
-13,3,0.738
2,8,0.739
13,6,0.74
11,5,0.741
11,8,0.742
21,8,0.743
36,6,0.744
42,6,0.745
32,9,0.746
11,10,0.747
-5,7,0.748
-7,7,0.749
-3,9,0.75
-3,10,0.751
-12,7,0.752
-22,3,0.753
-29,1,0.754
-31,0,0.755
-23,-4,0.756
-5,-13,0.757
18,-15,0.758
30,-11,0.759
21,-4,0.76
0,0,0.761
-17,-4,0.762
-16,-8,0.763
-6,-7,0.764
-5,-1,0.765
-17,1,0.766
-26,-3,0.767
-22,-6,0.768
-8,-1,0.769
1,4,0.77
4,2,0.771
10,-4,0.772
16,-3,0.773
16,0,0.774
10,3,0.775
4,3,0.776
7,0,0.777
16,-2,0.778
31,-2,0.779
50,-1,0.78
58,3,0.781
48,7,0.782
28,7,0.783
12,4,0.784
0,2,0.785
-12,4,0.786
-24,2,0.787
-30,-2,0.788
-28,-5,0.789
-14,-4,0.79
11,-2,0.791
39,0,0.792
57,5,0.793
57,5,0.794
48,3,0.795
27,0,0.796
-2,0,0.797
-27,2,0.798
-34,-1,0.799
-30,-6,0.8
-38,-7,0.801
-62,-1,0.802
-71,1,0.803
-57,-8,0.804
-34,-18,0.805
-22,-19,0.806
-12,-10,0.807
4,-3,0.808
21,0,0.809
25,1,0.81
19,4,0.811
15,5,0.812
18,6,0.813
20,2,0.814
17,0,0.815
1,-4,0.816
-16,-5,0.817
-19,1,0.818
-2,6,0.819
20,5,0.82
28,0,0.821
22,-2,0.822
17,2,0.823
18,9,0.824
17,13,0.825
12,12,0.826
6,3,0.827
-1,-4,0.828
-9,-7,0.829
-13,-5,0.83
-7,-3,0.831
9,-1,0.832
25,4,0.833
40,6,0.834
48,1,0.835
40,-3,0.836
23,-4,0.837
10,2,0.838
6,5,0.839
4,4,0.84
-2,3,0.841
-12,3,0.842
-17,2,0.843
-17,1,0.844
-16,3,0.845
-16,6,0.846
-18,8,0.847
-19,9,0.848
-14,8,0.849
-2,0,0.85
8,-8,0.851
3,-14,0.852
-4,-16,0.853
-11,-21,0.854
-12,-26,0.855
-13,-25,0.856
-13,-16,0.857
-4,-7,0.858
12,-5,0.859
22,-7,0.86
22,-4,0.861
21,4,0.862
27,9,0.863
33,10,0.864
28,5,0.865
18,1,0.866
13,-1,0.867
13,-1,0.868
10,1,0.869
1,5,0.87
-3,8,0.871
-4,7,0.872
-3,1,0.873
-10,-7,0.874
-18,-10,0.875
-14,-7,0.876
7,-6,0.877
30,-10,0.878
32,-15,0.879
11,-12,0.88
-12,0,0.881
-19,9,0.882
-7,4,0.883
4,-5,0.884
3,-7,0.885
-17,-5,0.886
-42,-1,0.887
-58,0,0.888
-54,3,0.889
-38,8,0.89
-22,7,0.891
-10,1,0.892
-1,2,0.893
-3,3,0.894
-9,5,0.895
-7,-2,0.896
6,-12,0.897
19,-12,0.898
21,-2,0.899
19,10,0.9
25,15,0.901
32,11,0.902
34,7,0.903
35,5,0.904
34,5,0.905
32,5,0.906
31,6,0.907
34,11,0.908
32,12,0.909
22,6,0.91
7,-3,0.911
2,-8,0.912
8,-3,0.913
10,-2,0.914
13,-3,0.915
14,-2,0.916
15,-2,0.917
11,-3,0.918
5,-7,0.919
5,-11,0.92
0,-8,0.921
-15,2,0.922
-31,10,0.923
-35,8,0.924
-32,2,0.925
-37,-3,0.926
-44,-5,0.927
-39,-7,0.928
-29,-7,0.929
-25,-6,0.93
-25,-3,0.931
-13,-2,0.932
4,-1,0.933
12,-2,0.934
8,-5,0.935
7,-8,0.936
18,-13,0.937
27,-11,0.938
27,-2,0.939
27,7,0.94
29,11,0.941
30,11,0.942
24,8,0.943
17,8,0.944
7,5,0.945
-2,3,0.946
-6,2,0.947
-9,5,0.948
-5,9,0.949
-1,8,0.95
0,0,0.951
3,-4,0.952
8,-3,0.953
13,-2,0.954
12,-5,0.955
14,-10,0.956
19,-11,0.957
23,-6,0.958
31,1,0.959
48,6,0.96
58,9,0.961
42,9,0.962
6,5,0.963
-26,-3,0.964
-42,-7,0.965
-49,-3,0.966
-49,2,0.967
-40,1,0.968
-27,-6,0.969
-25,-13,0.97
-31,-17,0.971
-34,-15,0.972
-25,-10,0.973
-18,-6,0.974
-11,-3,0.975
-3,0,0.976
9,-1,0.977
18,0,0.978
16,-1,0.979
14,0,0.98
8,4,0.981
3,8,0.982
0,9,0.983
-1,1,0.984
8,-7,0.985
15,-9,0.986
17,-7,0.987
20,-4,0.988
25,-1,0.989
28,2,0.99
26,4,0.991
24,3,0.992
21,3,0.993
18,4,0.994
14,5,0.995
0,6,0.996
-15,0,0.997
-17,-2,0.998
-3,0,0.999
14,3,1.0
19,6,1.001
14,6,1.002
8,2,1.003
4,-2,1.004
2,-4,1.005
1,-1,1.006
4,1,1.007
7,2,1.008
2,3,1.009
-11,4,1.01
-25,3,1.011
-31,0,1.012
-32,0,1.013
-34,1,1.014
-35,2,1.015
-35,2,1.016
-33,-2,1.017
-28,-6,1.018
-14,-6,1.019
-1,-5,1.02
11,-6,1.021
20,-7,1.022
16,-9,1.023
13,-12,1.024
13,-12,1.025
13,-11,1.026
20,-7,1.027
27,-2,1.028
31,0,1.029
34,1,1.03
32,2,1.031
30,4,1.032
27,3,1.033
25,1,1.034
21,-1,1.035
18,-4,1.036
13,-8,1.037
8,-8,1.038
1,-5,1.039
-4,0,1.04
-10,6,1.041
-16,10,1.042
-16,8,1.043
-12,1,1.044
-5,-1,1.045
2,1,1.046
11,2,1.047
15,1,1.048
11,2,1.049
4,5,1.05
-1,5,1.051
0,-1,1.052
3,-4,1.053
0,-6,1.054
-3,-4,1.055
-8,-4,1.056
-16,-7,1.057
-19,-6,1.058
-9,-6,1.059
16,-5,1.06
36,-1,1.061
40,6,1.062
27,9,1.063
14,6,1.064
5,5,1.065
-4,6,1.066
-10,5,1.067
-11,2,1.068
-4,1,1.069
-3,4,1.07
-6,5,1.071
-6,1,1.072
-1,-1,1.073
-3,-2,1.074
-13,-5,1.075
-22,-8,1.076
-25,-11,1.077
-23,-9,1.078
-16,-6,1.079
-5,-8,1.08
4,-13,1.081
6,-15,1.082
3,-10,1.083
4,0,1.084
4,9,1.085
0,9,1.086
0,3,1.087
4,-2,1.088
8,-1,1.089
2,2,1.09
-3,1,1.091
-1,0,1.092
6,0,1.093
6,2,1.094
1,2,1.095
0,2,1.096
1,-2,1.097
3,-5,1.098
8,-6,1.099
16,-2,1.1
20,5,1.101
15,10,1.102
9,11,1.103
12,7,1.104
19,4,1.105
21,4,1.106
23,2,1.107
30,0,1.108
29,-1,1.109
16,1,1.11
6,2,1.111
10,-1,1.112
17,-3,1.113
5,-15,1.114
1,0,1.115
-4,7,1.116
-7,-2,1.117
-11,-7,1.118
-8,0,1.119
-6,5,1.12
-3,5,1.121
1,2,1.122
5,2,1.123
9,5,1.124
11,5,1.125
15,2,1.126
20,0,1.127
26,0,1.128
31,2,1.129
35,7,1.13
36,2,1.131
35,-2,1.132
22,-10,1.133
2,-6,1.134
-5,0,1.135
-12,3,1.136
-18,-1,1.137
-23,-3,1.138
-19,0,1.139
-15,2,1.14
-11,2,1.141
-5,1,1.142
1,1,1.143
8,2,1.144
13,2,1.145
19,1,1.146
27,0,1.147
35,0,1.148
43,1,1.149
49,3,1.15
51,1,1.151
49,-1,1.152
29,-4,1.153
7,-7,1.154
-12,-4,1.155
-23,-1,1.156
-31,-2,1.157
-38,-5,1.158
-33,-13,1.159
-18,-16,1.16
-4,-9,1.161
-4,2,1.162
-5,5,1.163
1,2,1.164
14,3,1.165
15,8,1.166
12,7,1.167
18,3,1.168
34,5,1.169
44,11,1.17
46,12,1.171
39,7,1.172
30,8,1.173
16,11,1.174
0,8,1.175
-18,-3,1.176
-34,-14,1.177
-47,-16,1.178
-45,-9,1.179
-33,-2,1.18
-24,5,1.181
-26,9,1.182
-24,8,1.183
-10,4,1.184
-1,6,1.185
-6,7,1.186
-13,-1,1.187
-2,-15,1.188
13,-24,1.189
13,-21,1.19
6,-11,1.191
13,-3,1.192
25,0,1.193
22,-2,1.194
5,-4,1.195
-3,-6,1.196
2,-2,1.197
4,1,1.198
-2,4,1.199
-4,7,1.2
-2,6,1.201
-6,3,1.202
-12,-4,1.203
-3,-9,1.204
14,-5,1.205
19,0,1.206
13,4,1.207
14,5,1.208
27,-1,1.209
40,-6,1.21
45,-4,1.211
49,0,1.212
54,5,1.213
54,10,1.214
47,8,1.215
34,6,1.216
20,2,1.217
1,3,1.218
-12,2,1.219
-16,0,1.22
-17,-3,1.221
-22,-4,1.222
-29,1,1.223
-29,6,1.224
-28,6,1.225
-37,0,1.226
-44,-6,1.227
-39,-9,1.228
-26,-8,1.229
-21,-9,1.23
-17,-9,1.231
-3,-7,1.232
11,-3,1.233
9,-2,1.234
-9,-2,1.235
-22,1,1.236
-20,0,1.237
-12,0,1.238
-8,-1,1.239
-10,0,1.24
-10,4,1.241
-8,3,1.242
-6,-4,1.243
-2,-12,1.244
10,-10,1.245
26,-1,1.246
36,8,1.247
36,10,1.248
28,8,1.249
22,8,1.25
21,5,1.251
25,-2,1.252
38,-6,1.253
53,-6,1.254
63,-4,1.255
53,-3,1.256
32,-7,1.257
13,-7,1.258
11,2,1.259
20,10,1.26
25,10,1.261
15,10,1.262
-10,8,1.263
-38,5,1.264
-59,1,1.265
-67,-2,1.266
-62,0,1.267
-47,-1,1.268
-26,-11,1.269
-12,-19,1.27
-4,-16,1.271
-2,-12,1.272
7,-9,1.273
19,-5,1.274
33,0,1.275
43,0,1.276
43,-8,1.277
30,-13,1.278
8,-7,1.279
-11,6,1.28
-19,13,1.281
-20,13,1.282
-18,15,1.283
-16,20,1.284
-14,17,1.285
-16,9,1.286
-29,0,1.287
-42,-5,1.288
-40,-14,1.289
-24,-20,1.29
-3,-17,1.291
13,-10,1.292
28,-5,1.293
44,-5,1.294
63,-3,1.295
71,4,1.296
65,8,1.297
44,10,1.298
24,12,1.299
10,12,1.3
-2,12,1.301
-14,14,1.302
-22,14,1.303
-29,7,1.304
-45,-6,1.305
-65,-18,1.306
-71,-29,1.307
-46,-31,1.308
-6,-18,1.309
21,0,1.31
25,8,1.311
23,2,1.312
32,-4,1.313
45,-2,1.314
46,4,1.315
29,5,1.316
9,-2,1.317
1,-3,1.318
9,1,1.319
20,3,1.32
24,6,1.321
20,5,1.322
10,-2,1.323
-1,-10,1.324
-3,-12,1.325
8,0,1.326
19,11,1.327
19,11,1.328
7,4,1.329
0,1,1.33
7,0,1.331
12,-3,1.332
8,-6,1.333
-7,-7,1.334
-19,-6,1.335
-21,-5,1.336
-12,-6,1.337
4,-4,1.338
26,-1,1.339
37,1,1.34
32,4,1.341
13,7,1.342
-3,6,1.343
-9,0,1.344
-17,-1,1.345
-30,4,1.346
-38,12,1.347
-29,12,1.348
-13,8,1.349
-6,4,1.35
-7,-1,1.351
6,-7,1.352
30,-9,1.353
45,-6,1.354
37,5,1.355
12,13,1.356
-10,7,1.357
-24,-2,1.358
-38,-8,1.359
-52,-8,1.36
-59,-7,1.361
-60,-12,1.362
-62,-20,1.363
-61,-22,1.364
-47,-12,1.365
-20,-5,1.366
4,-3,1.367
16,-4,1.368
19,-2,1.369
27,1,1.37
39,1,1.371
45,0,1.372
40,1,1.373
35,4,1.374
37,7,1.375
41,7,1.376
38,4,1.377
34,3,1.378
36,0,1.379
45,-3,1.38
48,1,1.381
45,8,1.382
42,11,1.383
39,7,1.384
26,1,1.385
7,-2,1.386
-5,0,1.387
-8,6,1.388
-9,10,1.389
-15,6,1.39
-18,-1,1.391
-15,-4,1.392
-7,0,1.393
0,-2,1.394
6,-8,1.395
9,-11,1.396
2,-13,1.397
-9,-12,1.398
-20,-11,1.399
-22,-7,1.4
-22,-3,1.401
-23,-1,1.402
-25,-3,1.403
-28,-4,1.404
-27,-2,1.405
-19,0,1.406
2,2,1.407
27,4,1.408
37,6,1.409
23,5,1.41
2,1,1.411
-5,2,1.412
0,6,1.413
3,5,1.414
5,1,1.415
11,-5,1.416
24,-6,1.417
35,-4,1.418
40,-2,1.419
34,0,1.42
19,2,1.421
-5,4,1.422
-27,5,1.423
-38,5,1.424
-39,4,1.425
-34,1,1.426
-30,-1,1.427
-27,0,1.428
-24,5,1.429
-15,9,1.43
-3,9,1.431
6,8,1.432
13,5,1.433
14,-6,1.434
13,-21,1.435
7,-30,1.436
8,-28,1.437
19,-17,1.438
32,-8,1.439
34,-2,1.44
18,3,1.441
0,6,1.442
-5,5,1.443
-3,1,1.444
0,-2,1.445
5,-3,1.446
12,-5,1.447
14,-1,1.448
6,5,1.449
-6,7,1.45
-12,3,1.451
-6,0,1.452
7,5,1.453
14,10,1.454
10,6,1.455
5,2,1.456
0,-3,1.457
-4,-7,1.458
-2,-7,1.459
-2,-6,1.46
-12,-4,1.461
-21,-4,1.462
-25,-9,1.463
-25,-12,1.464
-14,-8,1.465
-4,-2,1.466
-2,4,1.467
0,9,1.468
1,5,1.469
5,2,1.47
20,3,1.471
34,4,1.472
44,3,1.473
50,1,1.474
34,-4,1.475
13,-7,1.476
0,-6,1.477
0,2,1.478
3,8,1.479
7,8,1.48
8,7,1.481
5,5,1.482
-4,1,1.483
-13,-2,1.484
-15,0,1.485
-4,6,1.486
16,5,1.487
31,0,1.488
33,0,1.489
25,2,1.49
17,2,1.491
6,-2,1.492
-7,-1,1.493
-28,-1,1.494
-44,-5,1.495
-47,-13,1.496
-35,-17,1.497
-16,-9,1.498
3,-1,1.499
19,3,1.5
30,6,1.501
40,8,1.502
43,6,1.503
42,0,1.504
42,-4,1.505
49,-2,1.506
53,-2,1.507
34,-3,1.508
-4,0,1.509
-32,6,1.51
-42,7,1.511
-52,-3,1.512
-69,-13,1.513
-77,-15,1.514
-60,-13,1.515
-41,-13,1.516
-36,-16,1.517
-32,-12,1.518
-5,-4,1.519
31,2,1.52
38,1,1.521
16,-4,1.522
-2,-8,1.523
-2,-6,1.524
2,2,1.525
2,7,1.526
4,7,1.527
9,4,1.528
6,7,1.529
4,11,1.53
10,10,1.531
21,7,1.532
27,7,1.533
23,5,1.534
18,2,1.535
12,-3,1.536
7,-10,1.537
12,-11,1.538
28,-6,1.539
42,2,1.54
39,11,1.541
23,13,1.542
17,10,1.543
31,3,1.544
51,-1,1.545
58,-2,1.546
50,2,1.547
30,6,1.548
7,5,1.549
-11,0,1.55
-24,-4,1.551
-36,-6,1.552
-44,-5,1.553
-47,-7,1.554
-46,-6,1.555
-49,-5,1.556
-55,-7,1.557
-51,-4,1.558
-29,2,1.559
-2,8,1.56
13,8,1.561
15,2,1.562
20,-4,1.563
35,-9,1.564
42,-13,1.565
34,-10,1.566
16,-3,1.567
1,-1,1.568
-9,-3,1.569
-18,-3,1.57
-27,-2,1.571
-30,-4,1.572
-23,-10,1.573
-17,-13,1.574
-10,-8,1.575
-5,0,1.576
3,3,1.577
16,3,1.578
24,4,1.579
24,4,1.58
19,5,1.581
24,9,1.582
38,15,1.583
44,14,1.584
34,9,1.585
15,6,1.586
8,6,1.587
10,7,1.588
6,6,1.589
-8,5,1.59
-21,4,1.591
-21,-2,1.592
-14,-7,1.593
-7,-14,1.594
-4,-14,1.595
1,-13,1.596
9,-12,1.597
12,-8,1.598
12,-4,1.599
15,1,1.6
16,2,1.601
5,-3,1.602
-12,-10,1.603
-22,-13,1.604
-22,-8,1.605
-19,-1,1.606
-16,-2,1.607
-8,-8,1.608
11,-12,1.609
34,-10,1.61
46,-5,1.611
39,-1,1.612
21,1,1.613
-3,0,1.614
-20,-2,1.615
-29,-6,1.616
-34,-8,1.617
-35,-7,1.618
-27,-3,1.619
-7,0,1.62
14,2,1.621
19,6,1.622
13,11,1.623
10,11,1.624
15,8,1.625
23,7,1.626
24,9,1.627
17,9,1.628
4,2,1.629
-5,-6,1.63
-4,-10,1.631
12,-7,1.632
26,2,1.633
22,7,1.634
0,5,1.635
-19,2,1.636
-25,-3,1.637
-26,-7,1.638
-28,-4,1.639
-24,-2,1.64
-13,-2,1.641
0,0,1.642
5,3,1.643
7,5,1.644
8,3,1.645
8,0,1.646
8,-5,1.647
10,-9,1.648
16,-3,1.649
22,1,1.65
26,1,1.651
30,2,1.652
34,3,1.653
36,6,1.654
38,9,1.655
37,6,1.656
34,2,1.657
22,2,1.658
10,3,1.659
-5,0,1.66
-21,-1,1.661
-39,3,1.662
-50,4,1.663
-49,-2,1.664
-42,-8,1.665
-33,-9,1.666
-22,-7,1.667
-14,-7,1.668
-8,-10,1.669
-3,-6,1.67
9,0,1.671
20,0,1.672
22,-3,1.673
15,-8,1.674
9,-6,1.675
10,-4,1.676
12,-6,1.677
14,-6,1.678
19,-4,1.679
32,0,1.68
39,4,1.681
39,9,1.682
35,10,1.683
28,10,1.684
15,8,1.685
-1,5,1.686
-11,0,1.687
-13,-6,1.688
-13,-6,1.689
-15,-5,1.69
-13,-6,1.691
-5,-8,1.692
4,-8,1.693
2,-7,1.694
-3,-5,1.695
-9,-4,1.696
-16,-2,1.697
-20,-1,1.698
-13,-4,1.699
-5,-7,1.7
2,-5,1.701
7,-3,1.702
4,0,1.703
0,3,1.704
-1,2,1.705
-2,1,1.706
0,4,1.707
4,7,1.708
9,6,1.709
14,5,1.71
14,6,1.711
13,7,1.712
3,5,1.713
-4,2,1.714
-8,-5,1.715
-14,-8,1.716
-20,-8,1.717
-13,-5,1.718
14,-1,1.719
42,4,1.72
49,11,1.721
33,14,1.722
21,9,1.723
28,4,1.724
36,6,1.725
27,9,1.726
5,7,1.727
-16,0,1.728
-33,-8,1.729
-51,-13,1.73
-62,-14,1.731
-57,-13,1.732
-37,-7,1.733
-20,-4,1.734
-14,-3,1.735
-18,-6,1.736
-20,-15,1.737
-12,-23,1.738
3,-26,1.739
17,-18,1.74
29,-3,1.741
34,8,1.742
30,11,1.743
20,12,1.744
13,11,1.745
15,10,1.746
29,7,1.747
42,5,1.748
46,7,1.749
42,11,1.75
34,11,1.751
29,8,1.752
22,6,1.753
13,4,1.754
5,1,1.755
-6,-4,1.756
-18,-13,1.757
-30,-19,1.758
-37,-20,1.759
-37,-14,1.76
-35,-1,1.761
-34,5,1.762
-31,-1,1.763
-20,-13,1.764
2,-16,1.765
24,-4,1.766
30,6,1.767
19,5,1.768
6,0,1.769
4,1,1.77
10,12,1.771
11,16,1.772
11,13,1.773
11,5,1.774
9,-1,1.775
2,-3,1.776
0,-7,1.777
3,-5,1.778
10,0,1.779
11,3,1.78
4,1,1.781
-4,-4,1.782
-12,-8,1.783
-14,-7,1.784
-11,-3,1.785
-3,5,1.786
4,8,1.787
8,6,1.788
14,4,1.789
22,6,1.79
29,12,1.791
34,15,1.792
39,17,1.793
43,13,1.794
43,3,1.795
34,-12,1.796
26,-24,1.797
18,-20,1.798
9,-5,1.799
-5,5,1.8
-21,7,1.801
-29,4,1.802
-30,0,1.803
-32,-4,1.804
-41,-6,1.805
-53,-6,1.806
-63,-6,1.807
-63,-10,1.808
-51,-18,1.809
-30,-23,1.81
-11,-19,1.811
2,-10,1.812
14,-1,1.813
24,0,1.814
32,-3,1.815
32,-6,1.816
28,-8,1.817
31,-3,1.818
46,3,1.819
59,12,1.82
50,17,1.821
22,17,1.822
-7,9,1.823
-22,-2,1.824
-31,-8,1.825
-39,-7,1.826
-36,-5,1.827
-26,-6,1.828
-17,-5,1.829
-15,0,1.83
-8,5,1.831
13,5,1.832
39,4,1.833
51,0,1.834
49,0,1.835
36,4,1.836
19,4,1.837
5,2,1.838
4,0,1.839
13,0,1.84
13,4,1.841
1,9,1.842
-10,8,1.843
-17,0,1.844
-22,-4,1.845
-21,0,1.846
-5,3,1.847
13,0,1.848
16,-7,1.849
7,-10,1.85
5,-2,1.851
12,4,1.852
17,2,1.853
14,-2,1.854
9,-2,1.855
1,0,1.856
-5,-3,1.857
-5,-5,1.858
8,-2,1.859
19,2,1.86
14,4,1.861
-1,2,1.862
-9,-1,1.863
-10,-2,1.864
-13,-3,1.865
-15,-1,1.866
-9,1,1.867
0,2,1.868
3,4,1.869
7,9,1.87
16,12,1.871
27,7,1.872
39,0,1.873
48,-6,1.874
46,-8,1.875
25,-13,1.876
-6,-20,1.877
-25,-20,1.878
-27,-14,1.879
-30,-8,1.88
-43,-6,1.881
-52,-2,1.882
-44,0,1.883
-24,-1,1.884
-7,-1,1.885
5,2,1.886
22,4,1.887
40,2,1.888
46,1,1.889
40,4,1.89
31,6,1.891
13,4,1.892
-8,5,1.893
-29,6,1.894
-31,6,1.895
-16,0,1.896
-8,-10,1.897
-14,-13,1.898
-18,-11,1.899
-10,-5,1.9
-2,2,1.901
-6,11,1.902
-14,14,1.903
-11,9,1.904
0,1,1.905
5,-6,1.906
3,-11,1.907
6,-19,1.908
18,-22,1.909
31,-13,1.91
36,2,1.911
37,10,1.912
42,9,1.913
48,3,1.914
48,2,1.915
28,8,1.916
-4,6,1.917
-24,-1,1.918
-22,-6,1.919
-15,-5,1.92
-15,1,1.921
-19,4,1.922
-15,0,1.923
-3,-5,1.924
2,-7,1.925
-1,1,1.926
-6,10,1.927
-2,11,1.928
1,6,1.929
-1,1,1.93
-7,-3,1.931
-9,-9,1.932
-3,-12,1.933
0,-7,1.934
0,2,1.935
0,5,1.936
7,-3,1.937
14,-5,1.938
22,2,1.939
28,7,1.94
28,5,1.941
29,3,1.942
30,3,1.943
28,4,1.944
10,3,1.945
-6,3,1.946
-18,3,1.947
-27,-4,1.948
-27,-8,1.949
-27,-4,1.95
-32,3,1.951
-35,2,1.952
-27,-5,1.953
-16,-12,1.954
2,-10,1.955
19,-6,1.956
20,-10,1.957
5,-15,1.958
-3,-15,1.959
10,-9,1.96
24,-3,1.961
26,-1,1.962
27,-1,1.963
32,1,1.964
31,6,1.965
19,8,1.966
10,9,1.967
9,9,1.968
5,12,1.969
-5,13,1.97
-10,9,1.971
-1,2,1.972
9,-2,1.973
8,-7,1.974
6,-10,1.975
4,-9,1.976
-1,-5,1.977
-8,3,1.978
-9,8,1.979
-3,8,1.98
0,5,1.981
-3,-1,1.982
-2,-8,1.983
6,-11,1.984
11,-6,1.985
5,4,1.986
-4,10,1.987
-10,6,1.988
-12,3,1.989
-12,4,1.99
-11,4,1.991
-8,-3,1.992
-2,-8,1.993
8,-9,1.994
19,-5,1.995
21,-5,1.996
14,-9,1.997
5,-7,1.998
3,1,1.999
5,5,2.0
3,7,2.001
3,7,2.002
8,6,2.003
14,3,2.004
12,1,2.005
3,1,2.006
-2,1,2.007
1,-5,2.008
11,-12,2.009
22,-16,2.01
27,-10,2.011
20,0,2.012
5,7,2.013
-6,3,2.014
-8,-4,2.015
-13,-10,2.016
-25,-8,2.017
-33,-6,2.018
-29,-1,2.019
-25,3,2.02
-20,3,2.021
-10,3,2.022
11,2,2.023
29,1,2.024
29,4,2.025
23,6,2.026
0,2,2.027
-16,-2,2.028
-12,-3,2.029
-10,-4,2.03
-18,-4,2.031
-24,-3,2.032
-22,0,2.033
-21,3,2.034
-24,1,2.035
-26,-10,2.036
-24,-23,2.037
-16,-19,2.038
-1,-8,2.039
14,-1,2.04
19,-1,2.041
20,2,2.042
27,11,2.043
38,11,2.044
38,2,2.045
35,-2,2.046
38,6,2.047
47,15,2.048
48,14,2.049
41,11,2.05
42,12,2.051
47,12,2.052
42,6,2.053
19,10,2.054
-5,7,2.055
-25,3,2.056
-34,0,2.057
-38,-1,2.058
-28,1,2.059
-20,6,2.06
-15,10,2.061
-9,13,2.062
-3,6,2.063
3,-1,2.064
12,-7,2.065
19,-10,2.066
18,-7,2.067
16,-4,2.068
13,-1,2.069
7,0,2.07
-2,0,2.071
-11,0,2.072
-12,-3,2.073
-12,7,2.074
-9,5,2.075
-3,2,2.076
6,0,2.077
10,-1,2.078
5,1,2.079
-1,4,2.08
-6,7,2.081
-8,9,2.082
-3,4,2.083
14,-1,2.084
26,-5,2.085
18,-7,2.086
-4,-5,2.087
-17,-3,2.088
-14,-1,2.089
-8,0,2.09
-4,0,2.091
-2,0,2.092
0,-2,2.093
-7,-6,2.094
-15,-7,2.095
-7,-6,2.096
20,-7,2.097
38,-12,2.098
28,-14,2.099
0,-12,2.1
-24,-5,2.101
-37,5,2.102
-42,13,2.103
-39,14,2.104
-30,9,2.105
-23,-2,2.106
-19,-10,2.107
-11,-13,2.108
2,-8,2.109
19,0,2.11
32,7,2.111
47,7,2.112
63,1,2.113
71,-2,2.114
63,3,2.115
41,6,2.116
18,1,2.117
3,0,2.118
-2,8,2.119
1,17,2.12
1,15,2.121
-8,6,2.122
-21,-4,2.123
-21,-10,2.124
-3,-11,2.125
18,-7,2.126
26,0,2.127
25,3,2.128
24,0,2.129
23,-5,2.13
15,-5,2.131
0,-1,2.132
-10,2,2.133
-19,1,2.134
-23,0,2.135
-25,-2,2.136
-19,-4,2.137
-11,-5,2.138
5,-3,2.139
17,-1,2.14
18,0,2.141
20,1,2.142
26,4,2.143
28,6,2.144
18,4,2.145
6,2,2.146
-11,1,2.147
-26,-2,2.148
-34,-11,2.149
-38,-19,2.15
-31,-19,2.151
-23,-18,2.152
-16,-11,2.153
-9,-4,2.154
-5,1,2.155
-3,1,2.156
5,-3,2.157
24,0,2.158
48,6,2.159
65,9,2.16
61,10,2.161
38,9,2.162
16,8,2.163
6,7,2.164
6,4,2.165
4,2,2.166
-10,-1,2.167
-27,-2,2.168
-37,-1,2.169
-37,3,2.17
-26,4,2.171
-9,2,2.172
10,2,2.173
18,3,2.174
17,4,2.175
12,1,2.176
15,-4,2.177
16,-5,2.178
7,-3,2.179
-18,-2,2.18
-49,-6,2.181
-65,-9,2.182
-59,-13,2.183
-39,-16,2.184
-23,-19,2.185
-15,-20,2.186
-8,-16,2.187
2,-8,2.188
20,0,2.189
42,2,2.19
64,0,2.191
79,0,2.192
80,4,2.193
62,9,2.194
32,11,2.195
2,10,2.196
-16,5,2.197
-19,2,2.198
-13,0,2.199
-8,1,2.2
-17,4,2.201
-33,8,2.202
-40,8,2.203
-31,6,2.204
-15,2,2.205
1,-1,2.206
18,-1,2.207
36,0,2.208
53,2,2.209
60,3,2.21
54,4,2.211
40,3,2.212
27,4,2.213
16,4,2.214
5,4,2.215
-8,5,2.216
-21,1,2.217
-28,3,2.218
-23,6,2.219
-20,2,2.22
-28,-7,2.221
-42,-19,2.222
-43,-25,2.223
-30,-24,2.224
-20,-16,2.225
-17,-8,2.226
-12,-5,2.227
-3,-10,2.228
1,-18,2.229
2,-16,2.23
14,-4,2.231
36,11,2.232
54,20,2.233
52,18,2.234
42,11,2.235
30,6,2.236
17,4,2.237
4,5,2.238
-2,6,2.239
0,7,2.24
-4,8,2.241
-12,11,2.242
-13,11,2.243
-7,8,2.244
-3,2,2.245
-7,-5,2.246
-5,-7,2.247
5,-4,2.248
14,2,2.249
13,2,2.25
11,-2,2.251
16,-5,2.252
30,-10,2.253
54,-20,2.254
81,-28,2.255
90,-20,2.256
73,1,2.257
44,17,2.258
20,13,2.259
-5,6,2.26
-45,9,2.261
-89,14,2.262
-108,8,2.263
-100,-4,2.264
-92,-8,2.265
-87,-6,2.266
-69,-9,2.267
-35,-13,2.268
-8,-9,2.269
5,-2,2.27
18,0,2.271
40,-1,2.272
52,3,2.273
43,7,2.274
21,2,2.275
0,-3,2.276
-9,-2,2.277
-5,4,2.278
11,3,2.279
34,0,2.28
45,2,2.281
39,3,2.282
29,-5,2.283
22,-15,2.284
10,-13,2.285
-14,-7,2.286
-37,-5,2.287
-42,-11,2.288
-28,-10,2.289
-10,-2,2.29
6,3,2.291
20,1,2.292
26,0,2.293
21,1,2.294
13,2,2.295
8,3,2.296
6,2,2.297
1,5,2.298
-4,7,2.299
2,5,2.3
18,3,2.301
31,3,2.302
29,3,2.303
24,3,2.304
21,5,2.305
25,8,2.306
35,10,2.307
44,10,2.308
37,8,2.309
20,9,2.31
17,11,2.311
32,9,2.312
37,4,2.313
2,-3,2.314
-51,-2,2.315
-78,2,2.316
-66,-1,2.317
-41,-8,2.318
-18,-10,2.319
1,-8,2.32
2,-7,2.321
-29,-8,2.322
-68,-12,2.323
-76,-15,2.324
-54,-17,2.325
-36,-16,2.326
-37,-13,2.327
-33,-12,2.328
-7,-13,2.329
29,-8,2.33
50,-1,2.331
53,3,2.332
48,0,2.333
43,-4,2.334
42,-1,2.335
39,6,2.336
35,5,2.337
30,2,2.338
29,4,2.339
28,10,2.34
17,12,2.341
-4,8,2.342
-15,1,2.343
-2,-6,2.344
20,-10,2.345
31,-12,2.346
28,-11,2.347
23,-11,2.348
20,-11,2.349
18,-9,2.35
16,-6,2.351
22,-1,2.352
27,6,2.353
17,10,2.354
-3,12,2.355
-21,12,2.356
-32,1,2.357
-43,-8,2.358
-51,-8,2.359
-55,-8,2.36
-48,-4,2.361
-37,0,2.362
-15,1,2.363
4,4,2.364
16,9,2.365
20,13,2.366
2,16,2.367
-9,16,2.368
0,4,2.369
7,-3,2.37
7,4,2.371
10,10,2.372
26,10,2.373
44,7,2.374
56,-2,2.375
42,-10,2.376
18,-18,2.377
4,-18,2.378
9,-12,2.379
17,-1,2.38
12,8,2.381
-6,11,2.382
-25,6,2.383
-37,3,2.384
-46,4,2.385
-54,7,2.386
-57,5,2.387
-53,-1,2.388
-44,-7,2.389
-27,-9,2.39
-2,-11,2.391
26,-12,2.392
42,-8,2.393
40,-2,2.394
29,2,2.395
17,2,2.396
8,-4,2.397
8,-6,2.398
18,-4,2.399
31,1,2.4
34,7,2.401
24,11,2.402
20,10,2.403
34,5,2.404
50,5,2.405
54,9,2.406
42,9,2.407
33,5,2.408
34,-1,2.409
37,-8,2.41
28,-9,2.411
0,-9,2.412
-32,-10,2.413
-54,-16,2.414
-56,-22,2.415
-53,-21,2.416
-53,-13,2.417
-48,-6,2.418
-25,-4,2.419
2,-7,2.42
15,-6,2.421
16,0,2.422
21,10,2.423
27,18,2.424
24,23,2.425
14,23,2.426
9,16,2.427
10,4,2.428
8,-7,2.429
-7,-14,2.43
-28,-15,2.431
-49,-14,2.432
-58,-14,2.433
-60,-16,2.434
-58,-14,2.435
-59,-10,2.436
-53,-6,2.437
-32,-1,2.438
-4,-1,2.439
17,-2,2.44
27,0,2.441
32,5,2.442
37,9,2.443
43,12,2.444
47,15,2.445
52,18,2.446
56,15,2.447
57,9,2.448
47,6,2.449
28,10,2.45
6,5,2.451
-4,-5,2.452
0,-9,2.453
5,-10,2.454
6,-10,2.455
8,-8,2.456
10,-6,2.457
11,-4,2.458
9,1,2.459
7,5,2.46
4,5,2.461
2,3,2.462
6,0,2.463
9,-2,2.464
7,-2,2.465
6,-1,2.466
6,1,2.467
6,4,2.468
6,8,2.469
5,11,2.47
3,9,2.471
-1,6,2.472
-13,-2,2.473
-26,-11,2.474
-41,-19,2.475
-41,-19,2.476
-24,-16,2.477
-3,-13,2.478
15,-13,2.479
21,-12,2.48
11,-6,2.481
-6,1,2.482
-11,5,2.483
1,9,2.484
11,13,2.485
-1,12,2.486
-28,0,2.487
-48,-11,2.488
-50,-15,2.489
-35,-10,2.49
-11,-6,2.491
20,-6,2.492
39,-7,2.493
31,-7,2.494
6,-6,2.495
-14,-5,2.496
-14,-7,2.497
-4,-7,2.498
5,0,2.499
14,7,2.5
24,9,2.501
31,10,2.502
36,12,2.503
45,15,2.504
53,16,2.505
48,17,2.506
27,18,2.507
5,14,2.508
-8,6,2.509
-12,-3,2.51
-15,-7,2.511
-15,-4,2.512
-3,-2,2.513
19,-7,2.514
42,-11,2.515
48,-7,2.516
30,-4,2.517
1,0,2.518
-18,0,2.519
-22,5,2.52
-22,10,2.521
-29,10,2.522
-40,1,2.523
-42,-9,2.524
-40,-16,2.525
-38,-22,2.526
-31,-25,2.527
-13,-16,2.528
8,-2,2.529
20,8,2.53
26,5,2.531
39,0,2.532
61,1,2.533
71,7,2.534
56,12,2.535
36,9,2.536
2,0,2.537
-24,-9,2.538
-24,-19,2.539
-24,-20,2.54
-24,-8,2.541
-25,0,2.542
-24,-2,2.543
-15,-8,2.544
17,0,2.545
40,14,2.546
36,18,2.547
30,13,2.548
23,14,2.549
15,20,2.55
6,19,2.551
-3,12,2.552
-12,6,2.553
-24,0,2.554
-46,-11,2.555
-56,-24,2.556
-48,-29,2.557
-31,-24,2.558
-19,-18,2.559
-10,-17,2.56
-5,-12,2.561
-8,-2,2.562
-11,1,2.563
2,1,2.564
25,5,2.565
40,10,2.566
39,9,2.567
38,6,2.568
49,8,2.569
64,12,2.57
71,10,2.571
71,7,2.572
66,10,2.573
44,14,2.574
5,11,2.575
-33,5,2.576
-55,1,2.577
-58,3,2.578
-54,1,2.579
-47,-4,2.58
-36,-9,2.581
-22,-11,2.582
-15,-19,2.583
-17,-27,2.584
-20,-24,2.585
-8,-13,2.586
15,-2,2.587
32,5,2.588
29,9,2.589
17,10,2.59
8,9,2.591
6,5,2.592
8,1,2.593
17,-5,2.594
38,-7,2.595
54,-6,2.596
49,-9,2.597
24,-11,2.598
-5,-10,2.599
-28,-2,2.6
-39,6,2.601
-34,4,2.602
-19,-2,2.603
-5,-4,2.604
-7,-5,2.605
-18,-12,2.606
-22,-15,2.607
-13,-3,2.608
2,13,2.609
17,16,2.61
21,8,2.611
13,6,2.612
-2,11,2.613
-12,13,2.614
-9,8,2.615
-7,4,2.616
-6,4,2.617
-3,4,2.618
2,2,2.619
8,0,2.62
14,-4,2.621
22,-6,2.622
36,-2,2.623
47,0,2.624
43,-1,2.625
37,-3,2.626
25,-7,2.627
11,-9,2.628
-6,-6,2.629
-23,-4,2.63
-35,-4,2.631
-40,-3,2.632
-26,-2,2.633
-13,0,2.634
-13,5,2.635
-11,5,2.636
0,-4,2.637
13,-7,2.638
28,0,2.639
55,11,2.64
86,18,2.641
106,17,2.642
97,12,2.643
56,7,2.644
9,2,2.645
-16,-3,2.646
-16,-1,2.647
-11,6,2.648
-29,10,2.649
-69,2,2.65
-110,-16,2.651
-133,-32,2.652
-128,-36,2.653
-99,-36,2.654
-65,-30,2.655
-47,-23,2.656
-41,-13,2.657
-29,-6,2.658
-1,-3,2.659
26,-2,2.66
42,-2,2.661
50,2,2.662
63,3,2.663
77,5,2.664
83,11,2.665
73,20,2.666
54,23,2.667
35,17,2.668
22,9,2.669
12,4,2.67
2,-1,2.671
0,-3,2.672
6,0,2.673
15,5,2.674
18,8,2.675
21,5,2.676
25,2,2.677
24,3,2.678
23,6,2.679
20,6,2.68
16,6,2.681
4,9,2.682
-12,8,2.683
-24,4,2.684
-23,1,2.685
-15,1,2.686
-5,1,2.687
6,-1,2.688
17,-5,2.689
20,-7,2.69
10,-10,2.691
-6,-17,2.692
-21,-20,2.693
-29,-19,2.694
-30,-12,2.695
-38,-7,2.696
-54,-9,2.697
-61,-12,2.698
-45,-10,2.699
-14,-3,2.7
6,5,2.701
11,9,2.702
14,7,2.703
22,3,2.704
29,2,2.705
33,4,2.706
41,7,2.707
51,9,2.708
54,8,2.709
48,5,2.71
43,4,2.711
43,5,2.712
46,8,2.713
45,10,2.714
39,11,2.715
24,12,2.716
-6,9,2.717
-45,4,2.718
-78,0,2.719
-94,-2,2.72
-97,-7,2.721
-96,-17,2.722
-89,-30,2.723
-69,-39,2.724
-42,-37,2.725
-15,-28,2.726
5,-17,2.727
16,-8,2.728
20,-4,2.729
21,-3,2.73
24,-2,2.731
28,5,2.732
31,14,2.733
32,14,2.734
36,6,2.735
35,-2,2.736
30,-3,2.737
29,5,2.738
40,9,2.739
51,7,2.74
42,5,2.741
21,8,2.742
10,9,2.743
14,5,2.744
18,4,2.745
12,8,2.746
7,12,2.747
8,11,2.748
13,9,2.749
16,8,2.75
28,6,2.751
50,6,2.752
72,10,2.753
76,9,2.754
57,6,2.755
19,-1,2.756
-17,-8,2.757
-34,-5,2.758
-27,1,2.759
-20,3,2.76
-39,-1,2.761
-81,-11,2.762
-107,-21,2.763
-100,-25,2.764
-84,-20,2.765
-82,-13,2.766
-82,-11,2.767
-67,-13,2.768
-46,-11,2.769
-33,-7,2.77
-19,-6,2.771
9,-9,2.772
37,-7,2.773
46,-1,2.774
43,4,2.775
41,4,2.776
43,0,2.777
39,0,2.778
43,-1,2.779
52,-2,2.78
55,3,2.781
43,13,2.782
33,22,2.783
37,19,2.784
41,13,2.785
33,8,2.786
20,4,2.787
17,0,2.788
16,0,2.789
10,3,2.79
-1,7,2.791
-3,6,2.792
-3,2,2.793
-7,-4,2.794
-10,-7,2.795
-8,-9,2.796
-4,-10,2.797
-3,-7,2.798
0,-4,2.799
6,-6,2.8
15,-8,2.801
20,-6,2.802
24,-5,2.803
26,-5,2.804
19,-2,2.805
1,3,2.806
-17,8,2.807
-26,6,2.808
-27,3,2.809
-23,2,2.81
-22,5,2.811
-20,4,2.812
-16,1,2.813
-15,-6,2.814
-5,-13,2.815
13,-13,2.816
39,-8,2.817
56,-1,2.818
55,2,2.819
44,2,2.82
29,10,2.821
16,22,2.822
1,25,2.823
-16,19,2.824
-38,11,2.825
-58,6,2.826
-71,-9,2.827
-76,-32,2.828
-72,-46,2.829
-63,-37,2.83
-50,-19,2.831
-42,-15,2.832
-35,-20,2.833
-23,-25,2.834
-3,-18,2.835
15,-13,2.836
23,-15,2.837
26,-13,2.838
35,-1,2.839
44,13,2.84
44,25,2.841
38,28,2.842
34,22,2.843
37,14,2.844
38,9,2.845
32,10,2.846
26,11,2.847
23,8,2.848
22,5,2.849
24,9,2.85
31,9,2.851
41,3,2.852
45,1,2.853
36,8,2.854
21,16,2.855
9,18,2.856
-2,4,2.857
-16,-5,2.858
-24,0,2.859
-28,4,2.86
-32,0,2.861
-40,-4,2.862
-40,-6,2.863
-27,-8,2.864
-9,-6,2.865
2,-4,2.866
10,-8,2.867
23,-9,2.868
38,0,2.869
40,7,2.87
27,7,2.871
12,6,2.872
3,3,2.873
-4,3,2.874
-14,9,2.875
-24,3,2.876
-26,-11,2.877
-19,-13,2.878
0,-6,2.879
26,-3,2.88
46,-7,2.881
52,-9,2.882
41,-5,2.883
24,-3,2.884
4,-5,2.885
-13,-8,2.886
-25,-9,2.887
-34,-11,2.888
-40,-15,2.889
-40,-15,2.89
-24,-16,2.891
1,-16,2.892
18,-13,2.893
19,-8,2.894
9,0,2.895
-6,4,2.896
-23,4,2.897
-38,7,2.898
-40,15,2.899
-29,22,2.9
-28,21,2.901
-43,7,2.902
-49,-14,2.903
-29,-35,2.904
2,-39,2.905
18,-23,2.906
15,0,2.907
17,10,2.908
30,5,2.909
45,5,2.91
53,13,2.911
59,20,2.912
66,20,2.913
68,13,2.914
67,8,2.915
55,6,2.916
32,4,2.917
4,11,2.918
-19,17,2.919
-36,14,2.92
-52,5,2.921
-63,-2,2.922
-56,-5,2.923
-31,-12,2.924
-7,-19,2.925
2,-16,2.926
0,-8,2.927
-3,-6,2.928
-3,-11,2.929
7,-13,2.93
31,-7,2.931
55,-3,2.932
59,0,2.933
36,2,2.934
11,8,2.935
8,13,2.936
20,15,2.937
26,18,2.938
20,18,2.939
10,12,2.94
-4,3,2.941
-18,-4,2.942
-26,-7,2.943
-20,-11,2.944
-11,-10,2.945
-11,-7,2.946
-14,-6,2.947
-11,-10,2.948
-9,-14,2.949
-15,-15,2.95
-24,-17,2.951
-22,-20,2.952
-13,-14,2.953
-9,-3,2.954
-16,1,2.955
-19,-6,2.956
-12,-16,2.957
1,-13,2.958
15,-3,2.959
28,5,2.96
40,14,2.961
47,22,2.962
48,22,2.963
50,11,2.964
48,5,2.965
35,10,2.966
17,15,2.967
10,14,2.968
13,11,2.969
10,12,2.97
0,12,2.971
-6,6,2.972
-6,3,2.973
-12,0,2.974
-24,-9,2.975
-37,-20,2.976
-44,-26,2.977
-47,-19,2.978
-40,-11,2.979
-23,-8,2.98
-8,-7,2.981
-6,-8,2.982
-10,-18,2.983
-10,-31,2.984
-6,-32,2.985
-2,-12,2.986
13,20,2.987
38,45,2.988
52,52,2.989
48,41,2.99
41,26,2.991
46,19,2.992
45,17,2.993
19,10,2.994
-14,-1,2.995
-28,-9,2.996
-25,-16,2.997
-21,-20,2.998
-8,-18,2.999
23,-10,3.0
52,-3,3.001
55,-3,3.002
44,-4,3.003
46,3,3.004
48,5,3.005
15,-1,3.006
-50,-7,3.007
-101,-4,3.008
-111,-10,3.009
-99,-31,3.01
-85,-50,3.011
-75,-50,3.012
-70,-41,3.013
-72,-44,3.014
-67,-50,3.015
-45,-38,3.016
-9,-16,3.017
24,-5,3.018
49,-13,3.019
68,-24,3.02
73,-19,3.021
61,1,3.022
49,23,3.023
57,39,3.024
69,48,3.025
65,47,3.026
51,33,3.027
51,13,3.028
66,8,3.029
70,20,3.03
56,35,3.031
40,42,3.032
40,45,3.033
48,49,3.034
51,50,3.035
33,36,3.036
8,15,3.037
-10,13,3.038
-24,26,3.039
-43,28,3.04
-66,7,3.041
-75,-9,3.042
-61,-4,3.043
-43,18,3.044
-49,35,3.045
-81,33,3.046
-104,28,3.047
-92,33,3.048
-43,41,3.049
11,34,3.05
41,5,3.051
47,-26,3.052
48,-41,3.053
58,-43,3.054
72,-33,3.055
71,-21,3.056
64,-20,3.057
66,-30,3.058
80,-44,3.059
80,-42,3.06
56,-26,3.061
23,-15,3.062
-4,-17,3.063
-33,-23,3.064
-74,-28,3.065
-111,-32,3.066
-112,-34,3.067
-80,-31,3.068
-45,-35,3.069
-37,-57,3.07
-54,-83,3.071
-58,-80,3.072
-29,-46,3.073
22,-14,3.074
67,-8,3.075
90,-12,3.076
106,-10,3.077
119,-1,3.078
111,4,3.079
73,10,3.08
28,14,3.081
9,9,3.082
8,-1,3.083
-8,1,3.084
-64,21,3.085
-128,37,3.086
-147,39,3.087
-108,43,3.088
-56,54,3.089
-28,56,3.09
-17,39,3.091
10,20,3.092
53,14,3.093
79,14,3.094
76,12,3.095
61,9,3.096
13,0,3.097
-26,-8,3.098
-39,-8,3.099
-48,-6,3.1
-38,3,3.101
-22,11,3.102
13,12,3.103
51,13,3.104
97,9,3.105
117,5,3.106
55,3,3.107
1,2,3.108
-25,3,3.109
-47,2,3.11
-52,-3,3.111
-52,-7,3.112
-33,-5,3.113
-15,-11,3.114
-26,-63,3.115
-72,-123,3.116
-109,-138,3.117
-91,-79,3.118
-17,15,3.119
55,81,3.12
76,95,3.121
62,79,3.122
64,68,3.123
89,66,3.124
97,55,3.125
72,35,3.126
46,23,3.127
48,28,3.128
65,35,3.129
71,30,3.13
63,11,3.131
53,-12,3.132
44,-35,3.133
27,-68,3.134
8,-106,3.135
-16,-135,3.136
-42,-146,3.137
-69,-133,3.138
-87,-98,3.139
-87,-61,3.14
-77,-42,3.141
-60,-40,3.142
-28,-31,3.143
9,-2,3.144
28,39,3.145
15,71,3.146
0,89,3.147
15,107,3.148
45,128,3.149
42,143,3.15
-9,136,3.151
-67,104,3.152
-87,66,3.153
-69,34,3.154
-39,23,3.155
-20,17,3.156
-7,-1,3.157
11,-12,3.158
31,-2,3.159
36,11,3.16
20,0,3.161
-1,-34,3.162
-9,-63,3.163
-11,-74,3.164
-20,-75,3.165
-21,-65,3.166
12,-36,3.167
69,-10,3.168
96,-9,3.169
66,-24,3.17
11,-23,3.171
-27,-5,3.172
-49,5,3.173
-73,4,3.174
-78,18,3.175
-70,32,3.176
-16,44,3.177
21,45,3.178
9,11,3.179
4,-16,3.18
20,-26,3.181
30,-36,3.182
20,-48,3.183
17,-52,3.184
40,-33,3.185
54,-13,3.186
36,4,3.187
27,18,3.188
45,16,3.189
62,16,3.19
75,27,3.191
81,40,3.192
66,58,3.193
46,75,3.194
13,78,3.195
-14,59,3.196
-23,28,3.197
-23,8,3.198
-21,0,3.199
-14,-10,3.2
-14,-40,3.201
-34,-96,3.202
-60,-156,3.203
-63,-180,3.204
-46,-150,3.205
-36,-101,3.206
-41,-80,3.207
-36,-99,3.208
2,-118,3.209
51,-105,3.21
75,-71,3.211
62,-42,3.212
30,-28,3.213
-7,-20,3.214
-33,-11,3.215
-47,2,3.216
-49,20,3.217
-33,57,3.218
0,107,3.219
20,160,3.22
1,214,3.221
-31,273,3.222
-13,328,3.223
66,337,3.224
135,276,3.225
136,174,3.226
97,86,3.227
72,34,3.228
58,-9,3.229
25,-67,3.23
-15,-119,3.231
-20,-136,3.232
-4,-126,3.233
-10,-114,3.234
-50,-102,3.235
-93,-77,3.236
-110,-40,3.237
-97,-1,3.238
-59,32,3.239
-5,56,3.24
28,52,3.241
10,2,3.242
-29,-67,3.243
-42,-104,3.244
-33,-93,3.245
-43,-67,3.246
-78,-57,3.247
-101,-66,3.248
-100,-76,3.249
-106,-88,3.25
-126,-99,3.251
-118,-100,3.252
-65,-85,3.253
-6,-70,3.254
30,-62,3.255
67,-49,3.256
107,-16,3.257
137,25,3.258
138,47,3.259
146,52,3.26
173,68,3.261
186,91,3.262
155,85,3.263
119,40,3.264
66,-1,3.265
21,-9,3.266
1,-9,3.267
-13,-33,3.268
-4,-70,3.269
2,-87,3.27
0,-74,3.271
-5,-53,3.272
-23,-42,3.273
-33,-40,3.274
-17,-36,3.275
-20,-23,3.276
-52,-7,3.277
-90,6,3.278
-101,22,3.279
-77,56,3.28
-50,101,3.281
-51,130,3.282
-71,125,3.283
-78,107,3.284
-59,111,3.285
-38,130,3.286
-20,140,3.287
20,142,3.288
98,148,3.289
183,151,3.29
219,131,3.291
193,92,3.292
151,59,3.293
131,18,3.294
134,-47,3.295
121,-122,3.296
69,-157,3.297
-7,-134,3.298
-75,-109,3.299
-139,-121,3.3
-201,-137,3.301
-244,-121,3.302
-248,-96,3.303
-222,-87,3.304
-184,-64,3.305
-124,8,3.306
-25,77,3.307
77,61,3.308
116,-21,3.309
76,-70,3.31
16,-36,3.311
3,22,3.312
30,41,3.313
51,16,3.314
49,-11,3.315
42,-20,3.316
47,-37,3.317
70,-70,3.318
108,-93,3.319
163,-73,3.32
210,-10,3.321
204,50,3.322
147,65,3.323
81,42,3.324
27,15,3.325
-30,6,3.326
-87,10,3.327
-106,24,3.328
-79,51,3.329
-64,84,3.33
-107,90,3.331
-191,44,3.332
-253,-21,3.333
-260,-71,3.334
-206,-82,3.335
-143,-77,3.336
-51,-81,3.337
28,-80,3.338
66,-61,3.339
96,-34,3.34
98,-21,3.341
91,-23,3.342
50,-17,3.343
23,15,3.344
43,69,3.345
51,112,3.346
22,117,3.347
-12,93,3.348
-60,71,3.349
-90,64,3.35
-68,58,3.351
-33,46,3.352
40,44,3.353
105,47,3.354
116,38,3.355
88,15,3.356
91,2,3.357
134,26,3.358
165,63,3.359
136,76,3.36
73,60,3.361
38,35,3.362
39,13,3.363
35,-10,3.364
5,-24,3.365
-15,-16,3.366
19,11,3.367
104,27,3.368
195,3,3.369
253,-43,3.37
246,-79,3.371
139,-89,3.372
-28,-91,3.373
-196,-106,3.374
-236,-132,3.375
-206,-153,3.376
-197,-162,3.377
-224,-157,3.378
-243,-152,3.379
-242,-154,3.38
-249,-154,3.381
-257,-131,3.382
-224,-67,3.383
-160,9,3.384
-124,44,3.385
-117,36,3.386
-62,43,3.387
61,95,3.388
173,132,3.389
204,96,3.39
197,22,3.391
210,-11,3.392
213,3,3.393
152,25,3.394
57,47,3.395
7,88,3.396
19,135,3.397
43,157,3.398
66,146,3.399
109,124,3.4
161,103,3.401
174,79,3.402
136,63,3.403
81,59,3.404
41,45,3.405
17,5,3.406
-1,-33,3.407
-9,-44,3.408
-2,-38,3.409
26,-39,3.41
60,-33,3.411
61,-8,3.412
13,9,3.413
-49,-4,3.414
-77,-29,3.415
-104,-28,3.416
-129,-5,3.417
-149,11,3.418
-150,0,3.419
-149,-33,3.42
-143,-58,3.421
-134,-37,3.422
-120,34,3.423
-94,94,3.424
-36,76,3.425
23,3,3.426
88,-45,3.427
140,-43,3.428
152,-37,3.429
136,-49,3.43
37,-47,3.431
-42,-31,3.432
-59,-41,3.433
-57,-79,3.434
29,-77,3.435
142,-22,3.436
210,1,3.437
182,-38,3.438
76,-67,3.439
-31,-27,3.44
-67,35,3.441
-25,52,3.442
45,38,3.443
79,32,3.444
42,21,3.445
-44,-11,3.446
-131,-40,3.447
-177,-48,3.448
-170,-57,3.449
-131,-85,3.45
-97,-103,3.451
-89,-94,3.452
-84,-75,3.453
-58,-51,3.454
-6,-6,3.455
42,52,3.456
63,72,3.457
57,53,3.458
39,35,3.459
23,41,3.46
14,46,3.461
15,31,3.462
26,20,3.463
37,17,3.464
41,-2,3.465
36,-32,3.466
30,-34,3.467
22,3,3.468
1,50,3.469
-31,74,3.47
-43,82,3.471
-1,89,3.472
76,101,3.473
143,110,3.474
163,113,3.475
135,94,3.476
94,55,3.477
59,26,3.478
40,16,3.479
28,0,3.48
20,-40,3.481
10,-75,3.482
5,-69,3.483
12,-46,3.484
27,-42,3.485
42,-56,3.486
38,-57,3.487
10,-41,3.488
-26,-29,3.489
-49,-27,3.49
-53,-27,3.491
-55,-31,3.492
-54,-44,3.493
-40,-56,3.494
-10,-48,3.495
11,-34,3.496
3,-7,3.497
-2,15,3.498
3,25,3.499
14,31,3.5
35,25,3.501
37,19,3.502
-16,17,3.503
-67,10,3.504
-107,-11,3.505
-141,-28,3.506
-158,-28,3.507
-170,-26,3.508
-162,-20,3.509
-148,-14,3.51
-116,-8,3.511
-75,-4,3.512
-13,-4,3.513
42,-2,3.514
58,0,3.515
55,5,3.516
67,11,3.517
83,18,3.518
77,21,3.519
62,20,3.52
77,25,3.521
133,34,3.522
188,44,3.523
191,41,3.524
133,26,3.525
41,10,3.526
-30,5,3.527
-57,7,3.528
-53,2,3.529
-49,-14,3.53
-62,-29,3.531
-87,-35,3.532
-101,-35,3.533
-98,-40,3.534
-79,-40,3.535
-51,-23,3.536
-8,4,3.537
51,30,3.538
99,34,3.539
96,23,3.54
40,13,3.541
-11,18,3.542
-12,27,3.543
29,21,3.544
63,-1,3.545
73,-21,3.546
75,-26,3.547
76,-17,3.548
57,-3,3.549
15,6,3.55
-29,5,3.551
-53,-1,3.552
-58,-4,3.553
-61,-4,3.554
-63,-8,3.555
-55,-22,3.556
-40,-39,3.557
-35,-40,3.558
-38,-28,3.559
-26,-14,3.56
7,0,3.561
47,16,3.562
84,30,3.563
119,34,3.564
137,34,3.565
116,34,3.566
60,31,3.567
9,24,3.568
-9,23,3.569
-5,25,3.57
-2,17,3.571
-9,0,3.572
-21,-11,3.573
-46,-8,3.574
-71,-5,3.575
-80,-17,3.576
-59,-40,3.577
-20,-45,3.578
12,-34,3.579
26,-19,3.58
23,-12,3.581
13,-7,3.582
6,-3,3.583
9,3,3.584
21,12,3.585
32,21,3.586
24,22,3.587
-8,13,3.588
-53,1,3.589
-84,-3,3.59
-89,-3,3.591
-81,-3,3.592
-68,-2,3.593
-51,-1,3.594
-20,1,3.595
19,-2,3.596
46,-11,3.597
37,-16,3.598
-1,-17,3.599
-39,-14,3.6
-50,-3,3.601
-35,7,3.602
-15,8,3.603
2,0,3.604
22,-5,3.605
44,-3,3.606
55,6,3.607
58,6,3.608
63,-5,3.609
70,-14,3.61
68,-10,3.611
49,6,3.612
31,14,3.613
20,2,3.614
17,-13,3.615
12,-11,3.616
9,4,3.617
10,19,3.618
16,20,3.619
25,10,3.62
39,5,3.621
50,5,3.622
46,4,3.623
23,0,3.624
0,-2,3.625
-8,0,3.626
-5,3,3.627
-7,3,3.628
-14,6,3.629
-19,9,3.63
-21,9,3.631
-23,4,3.632
-23,1,3.633
-13,-3,3.634
3,-4,3.635
14,-1,3.636
14,0,3.637
9,2,3.638
2,-1,3.639
-9,-7,3.64
-23,-12,3.641
-37,-16,3.642
-45,-21,3.643
-52,-22,3.644
-57,-17,3.645
-48,-10,3.646
-22,-6,3.647
9,-4,3.648
28,1,3.649
38,5,3.65
55,4,3.651
74,1,3.652
79,3,3.653
62,6,3.654
36,10,3.655
11,7,3.656
-12,2,3.657
-25,0,3.658
-15,5,3.659
15,12,3.66
33,15,3.661
15,12,3.662
-22,9,3.663
-29,8,3.664
6,11,3.665
49,13,3.666
64,10,3.667
47,5,3.668
13,-3,3.669
-29,-9,3.67
-78,-13,3.671
-117,-16,3.672
-129,-16,3.673
-117,-18,3.674
-100,-15,3.675
-91,-9,3.676
-79,-7,3.677
-56,-5,3.678
-27,-9,3.679
-4,-14,3.68
8,-20,3.681
10,-26,3.682
17,-30,3.683
39,-30,3.684
59,-16,3.685
56,3,3.686
34,13,3.687
20,6,3.688
23,-2,3.689
24,-1,3.69
25,-1,3.691
43,-15,3.692
77,-30,3.693
98,-31,3.694
102,-11,3.695
104,10,3.696
101,19,3.697
94,24,3.698
75,34,3.699
81,44,3.7
163,51,3.701
232,52,3.702
261,45,3.703
239,32,3.704
58,19,3.705
-107,10,3.706
-223,2,3.707
-297,-5,3.708
-246,-5,3.709
-197,4,3.71
-151,8,3.711
-125,-6,3.712
-157,-36,3.713
-191,-65,3.714
-203,-68,3.715
-168,-36,3.716
-123,8,3.717
-86,38,3.718
-35,33,3.719
21,5,3.72
35,-16,3.721
1,-22,3.722
-16,-21,3.723
28,-20,3.724
111,-12,3.725
194,-1,3.726
259,-1,3.727
268,-18,3.728
182,-33,3.729
40,-28,3.73
-52,-8,3.731
-44,10,3.732
-1,16,3.733
12,4,3.734
-1,-16,3.735
-5,-28,3.736
-25,-26,3.737
-87,-10,3.738
-154,-1,3.739
-165,-5,3.74
-121,-11,3.741
-71,-5,3.742
-43,7,3.743
-27,15,3.744
-12,14,3.745
-2,10,3.746
0,9,3.747
9,11,3.748
29,14,3.749
57,15,3.75
82,18,3.751
91,22,3.752
81,27,3.753
58,24,3.754
43,17,3.755
43,13,3.756
47,9,3.757
50,5,3.758
55,3,3.759
62,5,3.76
63,12,3.761
59,11,3.762
57,5,3.763
57,1,3.764
52,5,3.765
43,10,3.766
35,8,3.767
35,0,3.768
38,-9,3.769
36,-13,3.77
30,-11,3.771
21,-6,3.772
14,2,3.773
13,4,3.774
18,3,3.775
16,4,3.776
-1,7,3.777
-23,10,3.778
-34,12,3.779
-31,15,3.78
-23,18,3.781
-18,17,3.782
-13,7,3.783
-19,-9,3.784
-42,-25,3.785
-52,-34,3.786
-20,-36,3.787
36,-32,3.788
57,-18,3.789
14,0,3.79
-48,14,3.791
-72,9,3.792
-44,-5,3.793
9,-17,3.794
56,-17,3.795
71,-11,3.796
48,-15,3.797
14,-24,3.798
10,-28,3.799
18,-20,3.8
-16,-10,3.801
-88,-4,3.802
-114,-1,3.803
-53,7,3.804
-2,12,3.805
-66,5,3.806
-204,-14,3.807
-284,-28,3.808
-259,-20,3.809
-194,4,3.81
-154,26,3.811
-122,34,3.812
-73,25,3.813
-26,-3,3.814
-2,-39,3.815
16,-65,3.816
50,-67,3.817
89,-45,3.818
113,-20,3.819
116,-11,3.82
119,-14,3.821
122,-11,3.822
119,0,3.823
110,17,3.824
110,27,3.825
112,27,3.826
107,21,3.827
93,17,3.828
83,21,3.829
84,32,3.83
99,40,3.831
115,38,3.832
113,33,3.833
76,26,3.834
23,22,3.835
-16,20,3.836
-28,14,3.837
-33,10,3.838
-44,9,3.839
-47,10,3.84
-36,11,3.841
-25,9,3.842
-27,2,3.843
-27,-6,3.844
-16,-7,3.845
-4,-4,3.846
-8,-1,3.847
-14,-2,3.848
-10,-5,3.849
4,-7,3.85
17,-6,3.851
30,-1,3.852
40,7,3.853
40,12,3.854
38,12,3.855
41,10,3.856
42,5,3.857
10,0,3.858
-52,-8,3.859
-100,-15,3.86
-103,-19,3.861
-78,-19,3.862
-54,-18,3.863
-33,-18,3.864
-6,-22,3.865
17,-26,3.866
28,-26,3.867
38,-18,3.868
60,-5,3.869
84,4,3.87
92,11,3.871
69,13,3.872
24,11,3.873
-40,2,3.874
-99,-2,3.875
-137,-5,3.876
-152,-6,3.877
-156,-13,3.878
-151,-34,3.879
-131,-45,3.88
-95,-25,3.881
-52,-6,3.882
-3,9,3.883
53,20,3.884
116,17,3.885
166,13,3.886
189,10,3.887
176,10,3.888
136,19,3.889
88,29,3.89
41,38,3.891
-5,40,3.892
-44,18,3.893
-60,-6,3.894
-32,-33,3.895
19,-49,3.896
55,-55,3.897
48,-40,3.898
3,-14,3.899
-60,8,3.9
-124,23,3.901
-158,35,3.902
-148,42,3.903
-111,31,3.904
-83,-3,3.905
-71,-40,3.906
-57,-51,3.907
-28,-38,3.908
2,-20,3.909
28,-11,3.91
49,-7,3.911
65,-8,3.912
69,-16,3.913
66,-18,3.914
68,2,3.915
75,20,3.916
84,32,3.917
102,38,3.918
134,28,3.919
162,22,3.92
145,30,3.921
85,34,3.922
16,23,3.923
-24,14,3.924
-42,12,3.925
-54,9,3.926
-60,1,3.927
-50,-4,3.928
-24,-2,3.929
12,0,3.93
54,-1,3.931
92,-4,3.932
105,-12,3.933
79,-16,3.934
24,-7,3.935
-27,-3,3.936
-53,-10,3.937
-53,-13,3.938
-39,-12,3.939
-26,-9,3.94
-43,-7,3.941
-92,-6,3.942
-135,-9,3.943
-133,-13,3.944
-98,-12,3.945
-74,-7,3.946
-72,-9,3.947
-63,-18,3.948
-29,-24,3.949
3,-19,3.95
23,-9,3.951
38,2,3.952
54,15,3.953
54,23,3.954
34,18,3.955
17,5,3.956
24,-3,3.957
41,1,3.958
52,7,3.959
71,14,3.96
100,30,3.961
114,43,3.962
89,32,3.963
44,2,3.964
12,-18,3.965
2,-13,3.966
0,-4,3.967
-10,-10,3.968
-20,-27,3.969
-28,-35,3.97
-31,-25,3.971
-13,-12,3.972
37,-5,3.973
103,-10,3.974
140,-15,3.975
118,-5,3.976
46,17,3.977
-41,38,3.978
-116,36,3.979
-164,22,3.98
-181,15,3.981
-161,14,3.982
-116,1,3.983
-75,-27,3.984
-57,-49,3.985
-48,-44,3.986
-17,-19,3.987
33,5,3.988
60,9,3.989
40,-3,3.99
0,-17,3.991
-18,-21,3.992
-5,-10,3.993
34,7,3.994
96,25,3.995
160,32,3.996
179,28,3.997
121,25,3.998
32,29,3.999
-21,37,4.0
-36,34,4.001
-58,16,4.002
-115,-15,4.003
-172,-44,4.004
-189,-54,4.005
-157,-42,4.006
-98,-31,4.007
-42,-36,4.008
-10,-45,4.009
9,-37,4.01
36,-15,4.011
82,-6,4.012
130,-11,4.013
158,-16,4.014
159,0,4.015
144,20,4.016
145,18,4.017
172,10,4.018
181,18,4.019
119,35,4.02
-5,42,4.021
-108,43,4.022
-134,45,4.023
-122,46,4.024
-123,36,4.025
-118,20,4.026
-56,9,4.027
59,-4,4.028
160,-19,4.029
187,-22,4.03
145,-3,4.031
85,14,4.032
46,16,4.033
10,12,4.034
-45,19,4.035
-132,19,4.036
-235,-12,4.037
-332,-55,4.038
-372,-69,4.039
-295,-48,4.04
-131,-30,4.041
-17,-48,4.042
-24,-88,4.043
-60,-108,4.044
-2,-81,4.045
108,-26,4.046
153,16,4.047
127,26,4.048
112,20,4.049
122,28,4.05
104,41,4.051
67,37,4.052
60,20,4.053
77,15,4.054
76,34,4.055
54,50,4.056
48,39,4.057
59,25,4.058
60,25,4.059
50,32,4.06
50,30,4.061
50,19,4.062
37,10,4.063
24,4,4.064
22,3,4.065
17,6,4.066
-5,4,4.067
-20,-4,4.068
-15,-11,4.069
-6,-8,4.07
-11,-3,4.071
-17,-2,4.072
-12,-4,4.073
-8,-5,4.074
-9,-3,4.075
-5,-2,4.076
19,-2,4.077
43,-1,4.078
64,4,4.079
68,8,4.08
21,3,4.081
-22,0,4.082
-55,2,4.083
-78,6,4.084
-71,12,4.085
-70,17,4.086
-90,21,4.087
-98,18,4.088
-69,-3,4.089
-37,-27,4.09
1,-51,4.091
34,-68,4.092
47,-59,4.093
55,-45,4.094
47,-18,4.095
47,9,4.096
49,33,4.097
35,45,4.098
6,39,4.099
-23,23,4.1
-48,13,4.101
-70,11,4.102
-73,-2,4.103
-52,-27,4.104
-35,-50,4.105
-45,-62,4.106
-68,-75,4.107
-64,-81,4.108
-28,-63,4.109
19,-24,4.11
55,6,4.111
72,14,4.112
71,14,4.113
52,23,4.114
28,28,4.115
16,22,4.116
26,10,4.117
60,13,4.118
96,27,4.119
101,40,4.12
63,51,4.121
18,57,4.122
6,52,4.123
24,38,4.124
38,15,4.125
21,-14,4.126
-34,-48,4.127
-111,-69,4.128
-165,-64,4.129
-153,-36,4.13
-91,-12,4.131
-41,-7,4.132
-30,-10,4.133
-27,-8,4.134
0,4,4.135
30,9,4.136
31,1,4.137
16,-4,4.138
17,3,4.139
33,18,4.14
45,24,4.141
45,17,4.142
44,8,4.143
40,1,4.144
30,-1,4.145
22,5,4.146
20,20,4.147
19,34,4.148
16,27,4.149
18,4,4.15
30,-13,4.151
40,-14,4.152
39,-11,4.153
32,-16,4.154
36,-18,4.155
50,-4,4.156
60,17,4.157
52,27,4.158
30,24,4.159
3,22,4.16
-26,17,4.161
-58,-1,4.162
-86,-31,4.163
-89,-48,4.164
-62,-48,4.165
-14,-41,4.166
52,-29,4.167
152,-7,4.168
264,16,4.169
294,26,4.17
168,25,4.171
-53,29,4.172
-213,39,4.173
-246,45,4.174
-209,39,4.175
-199,22,4.176
-228,-11,4.177
-232,-43,4.178
-168,-52,4.179
-63,-31,4.18
17,-3,4.181
31,5,4.182
-9,1,4.183
-53,0,4.184
-61,0,4.185
-35,-14,4.186
6,-39,4.187
64,-59,4.188
141,-61,4.189
223,-37,4.19
268,2,4.191
242,36,4.192
154,41,4.193
36,22,4.194
-49,7,4.195
-81,12,4.196
-81,21,4.197
-86,12,4.198
-106,-19,4.199
-137,-62,4.2
-132,-87,4.201
-42,-68,4.202
108,-16,4.203
197,28,4.204
138,35,4.205
9,22,4.206
-41,20,4.207
-12,33,4.208
-12,34,4.209
-65,17,4.21
-89,-1,4.211
-48,-6,4.212
-4,0,4.213
29,10,4.214
87,26,4.215
128,34,4.216
115,26,4.217
96,25,4.218
62,45,4.219
40,68,4.22
56,61,4.221
60,27,4.222
24,-1,4.223
4,-4,4.224
36,7,4.225
77,24,4.226
149,43,4.227
190,48,4.228
139,21,4.229
55,-25,4.23
-130,-46,4.231
-283,-28,4.232
-340,-8,4.233
-357,-25,4.234
-218,-65,4.235
-109,-93,4.236
-99,-114,4.237
-142,-149,4.238
-157,-176,4.239
-100,-148,4.24
26,-61,4.241
160,15,4.242
196,38,4.243
103,33,4.244
-10,36,4.245
-29,41,4.246
5,25,4.247
-18,0,4.248
-89,0,4.249
-104,15,4.25
-40,24,4.251
28,27,4.252
52,35,4.253
57,40,4.254
60,33,4.255
49,18,4.256
38,10,4.257
50,15,4.258
80,28,4.259
99,42,4.26
100,56,4.261
98,59,4.262
105,53,4.263
128,49,4.264
169,54,4.265
195,60,4.266
164,55,4.267
79,46,4.268
4,34,4.269
-16,14,4.27
-17,-14,4.271
-69,-34,4.272
-154,-35,4.273
-204,-32,4.274
-172,-43,4.275
-116,-60,4.276
-102,-64,4.277
-106,-46,4.278
-60,-36,4.279
22,-51,4.28
57,-66,4.281
16,-58,4.282
-34,-38,4.283
-27,-33,4.284
31,-35,4.285
99,-13,4.286
147,29,4.287
158,63,4.288
135,76,4.289
105,75,4.29
77,63,4.291
25,33,4.292
-59,-2,4.293
-162,-28,4.294
-226,-44,4.295
-246,-66,4.296
-252,-89,4.297
-248,-84,4.298
-207,-58,4.299
-118,-39,4.3
-24,-36,4.301
36,-27,4.302
71,-2,4.303
114,25,4.304
161,39,4.305
168,42,4.306
124,37,4.307
89,37,4.308
114,45,4.309
158,59,4.31
139,58,4.311
51,35,4.312
-29,18,4.313
-53,19,4.314
-41,30,4.315
-31,35,4.316
-34,18,4.317
-26,4,4.318
19,1,4.319
56,-3,4.32
64,-11,4.321
67,-17,4.322
49,-15,4.323
42,-11,4.324
66,-1,4.325
93,12,4.326
133,37,4.327
141,54,4.328
54,48,4.329
-15,43,4.33
-30,41,4.331
-56,23,4.332
-112,-43,4.333
-178,-112,4.334
-248,-157,4.335
-242,-144,4.336
-188,-106,4.337
-122,-67,4.338
-62,-29,4.339
-32,2,4.34
-39,16,4.341
-43,12,4.342
-10,9,4.343
31,12,4.344
28,4,4.345
1,-20,4.346
0,-38,4.347
32,-34,4.348
60,-16,4.349
61,-4,4.35
48,1,4.351
39,6,4.352
47,15,4.353
58,29,4.354
62,42,4.355
60,50,4.356
34,39,4.357
16,30,4.358
24,28,4.359
34,30,4.36
51,45,4.361
60,51,4.362
45,29,4.363
38,11,4.364
54,6,4.365
71,6,4.366
89,26,4.367
89,40,4.368
33,37,4.369
-20,32,4.37
-64,26,4.371
-94,19,4.372
-76,9,4.373
-56,-5,4.374
-35,-48,4.375
-23,-95,4.376
-8,-113,4.377
17,-84,4.378
34,-45,4.379
27,-31,4.38
-1,-33,4.381
-21,-24,4.382
-18,-5,4.383
-8,4,4.384
-14,4,4.385
-21,8,4.386
-3,11,4.387
43,1,4.388
96,-7,4.389
115,7,4.39
65,36,4.391
-42,57,4.392
-129,65,4.393
-137,58,4.394
-72,42,4.395
-6,24,4.396
19,13,4.397
32,5,4.398
72,-17,4.399
116,-48,4.4
106,-59,4.401
33,-45,4.402
-53,-32,4.403
-111,-35,4.404
-136,-33,4.405
-124,-19,4.406
-62,-7,4.407
22,-4,4.408
52,4,4.409
-2,25,4.41
-85,42,4.411
-122,41,4.412
-107,27,4.413
-68,-3,4.414
-23,-36,4.415
14,-63,4.416
40,-71,4.417
63,-54,4.418
86,-24,4.419
72,7,4.42
-1,31,4.421
-80,29,4.422
-93,2,4.423
-52,-22,4.424
-22,-19,4.425
-7,5,4.426
27,24,4.427
62,24,4.428
52,17,4.429
19,18,4.43
24,27,4.431
61,35,4.432
82,40,4.433
89,35,4.434
121,27,4.435
151,19,4.436
171,16,4.437
170,11,4.438
102,3,4.439
32,-2,4.44
-45,5,4.441
-87,9,4.442
-21,3,4.443
16,-5,4.444
-31,-19,4.445
-73,-30,4.446
-98,-31,4.447
-110,-29,4.448
-76,-14,4.449
-13,-3,4.45
139,-4,4.451
252,-8,4.452
245,-17,4.453
186,-21,4.454
-45,3,4.455
-221,32,4.456
-292,32,4.457
-296,2,4.458
-266,-38,4.459
-212,-67,4.46
-140,-75,4.461
-58,-55,4.462
32,-14,4.463
114,28,4.464
134,56,4.465
57,71,4.466
-60,73,4.467
-108,44,4.468
-42,-14,4.469
69,-62,4.47
117,-65,4.471
67,-40,4.472
-5,-22,4.473
-16,-9,4.474
60,21,4.475
138,50,4.476
121,46,4.477
28,30,4.478
-13,40,4.479
60,58,4.48
137,40,4.481
78,-10,4.482
-73,-34,4.483
-128,-19,4.484
-3,-5,4.485
157,-14,4.486
175,-24,4.487
53,-18,4.488
-52,-14,4.489
-48,-27,4.49
-1,-35,4.491
-25,-25,4.492
-120,-22,4.493
-203,-44,4.494
-191,-56,4.495
-109,-32,4.496
-32,-2,4.497
12,-1,4.498
44,-10,4.499
66,9,4.5
63,46,4.501
53,59,4.502
79,50,4.503
130,49,4.504
154,54,4.505
130,37,4.506
70,10,4.507
-17,8,4.508
-116,25,4.509
-168,29,4.51
-129,9,4.511
-41,-10,4.512
5,-16,4.513
-18,-24,4.514
-62,-29,4.515
-65,-24,4.516
-23,-23,4.517
25,-31,4.518
54,-33,4.519
74,-15,4.52
109,11,4.521
152,23,4.522
149,25,4.523
64,36,4.524
-40,43,4.525
-68,26,4.526
-19,-8,4.527
4,-29,4.528
-48,-29,4.529
-88,-17,4.53
-23,-2,4.531
83,16,4.532
111,31,4.533
45,31,4.534
-18,24,4.535
-38,16,4.536
-66,3,4.537
-120,-13,4.538
-147,-28,4.539
-129,-43,4.54
-105,-59,4.541
-81,-66,4.542
-21,-51,4.543
43,-23,4.544
47,-7,4.545
20,-3,4.546
59,5,4.547
153,14,4.548
171,12,4.549
73,1,4.55
-28,2,4.551
-32,14,4.552
35,16,4.553
124,3,4.554
193,1,4.555
190,2,4.556
93,10,4.557
-27,12,4.558
-82,-5,4.559
-100,-19,4.56
-169,-19,4.561
-263,-20,4.562
-271,-29,4.563
-180,-35,4.564
-87,-28,4.565
-31,-16,4.566
46,5,4.567
171,26,4.568
270,42,4.569
262,56,4.57
160,67,4.571
36,68,4.572
-51,38,4.573
-115,10,4.574
-176,-9,4.575
-225,-29,4.576
-218,-55,4.577
-130,-65,4.578
0,-52,4.579
89,-26,4.58
106,-8,4.581
94,-5,4.582
104,-15,4.583
134,-21,4.584
137,-7,4.585
95,9,4.586
42,6,4.587
27,-10,4.588
52,-10,4.589
80,10,4.59
88,29,4.591
88,36,4.592
87,47,4.593
62,61,4.594
6,62,4.595
-52,45,4.596
-77,26,4.597
-85,19,4.598
-103,10,4.599
-109,-1,4.6
-55,-3,4.601
33,4,4.602
66,6,4.603
4,-1,4.604
-95,-8,4.605
-155,-19,4.606
-174,-39,4.607
-171,-55,4.608
-126,-52,4.609
-22,-48,4.61
96,-65,4.611
144,-87,4.612
104,-83,4.613
21,-50,4.614
-35,-5,4.615
-35,35,4.616
29,51,4.617
123,40,4.618
167,18,4.619
98,22,4.62
-36,62,4.621
-107,99,4.622
-66,94,4.623
11,59,4.624
40,19,4.625
22,-15,4.626
3,-46,4.627
0,-63,4.628
30,-56,4.629
122,-38,4.63
225,-31,4.631
210,-36,4.632
54,-40,4.633
-135,-31,4.634
-190,-3,4.635
-137,30,4.636
-114,41,4.637
-141,23,4.638
-114,-3,4.639
-33,-14,4.64
-30,-18,4.641
-129,-25,4.642
-167,-25,4.643
-41,-3,4.644
114,24,4.645
133,27,4.646
49,13,4.647
8,21,4.648
44,50,4.649
76,65,4.65
70,57,4.651
50,45,4.652
22,33,4.653
-26,2,4.654
-44,-35,4.655
6,-52,4.656
79,-58,4.657
92,-78,4.658
58,-104,4.659
49,-81,4.66
72,-6,4.661
94,50,4.662
133,46,4.663
207,15,4.664
250,6,4.665
170,21,4.666
18,39,4.667
-82,68,4.668
-118,101,4.669
-182,98,4.67
-282,35,4.671
-309,-37,4.672
-217,-64,4.673
-84,-64,4.674
-32,-87,4.675
-82,-140,4.676
-147,-158,4.677
-146,-98,4.678
-86,-4,4.679
-27,45,4.68
-1,43,4.681
25,42,4.682
76,76,4.683
136,108,4.684
174,99,4.685
202,58,4.686
221,30,4.687
200,36,4.688
133,62,4.689
92,79,4.69
126,71,4.691
176,46,4.692
148,25,4.693
30,9,4.694
-82,-3,4.695
-117,-18,4.696
-104,-31,4.697
-117,-30,4.698
-177,-31,4.699
-240,-52,4.7
-246,-77,4.701
-169,-78,4.702
-13,-61,4.703
159,-53,4.704
238,-54,4.705
156,-42,4.706
-19,-17,4.707
-120,1,4.708
-71,-4,4.709
26,-29,4.71
27,-66,4.711
-68,-89,4.712
-140,-64,4.713
-116,4,4.714
-33,52,4.715
14,30,4.716
-18,-28,4.717
-81,-59,4.718
-90,-68,4.719
-3,-83,4.72
127,-86,4.721
205,-53,4.722
186,-11,4.723
116,-5,4.724
67,-16,4.725
69,-5,4.726
97,22,4.727
117,31,4.728
116,34,4.729
80,68,4.73
14,131,4.731
-41,178,4.732
-35,181,4.733
22,158,4.734
44,138,4.735
-27,120,4.736
-114,88,4.737
-87,48,4.738
42,12,4.739
122,-17,4.74
73,-42,4.741
-14,-52,4.742
-58,-29,4.743
-114,11,4.744
-231,16,4.745
-320,-40,4.746
-288,-104,4.747
-203,-113,4.748
-177,-84,4.749
-188,-75,4.75
-131,-92,4.751
-4,-79,4.752
103,-36,4.753
167,-11,4.754
221,-10,4.755
271,0,4.756
292,40,4.757
270,69,4.758
217,65,4.759
129,56,4.76
11,33,4.761
-100,7,4.762
-145,-26,4.763
-103,-50,4.764
-22,-43,4.765
13,-51,4.766
-33,-103,4.767
-87,-131,4.768
-41,-89,4.769
101,-44,4.77
198,7,4.771
148,52,4.772
33,78,4.773
-39,111,4.774
-25,148,4.775
-3,142,4.776
-47,86,4.777
-165,10,4.778
-283,-51,4.779
-295,-69,4.78
-155,-40,4.781
40,-5,4.782
121,-5,4.783
39,-39,4.784
-75,-64,4.785
-85,-52,4.786
-5,-15,4.787
63,16,4.788
71,22,4.789
55,10,4.79
61,-2,4.791
88,-12,4.792
129,-26,4.793
193,-51,4.794
255,-67,4.795
275,-63,4.796
250,-49,4.797
226,-31,4.798
212,-11,4.799
145,16,4.8
5,44,4.801
-104,60,4.802
-120,71,4.803
-155,92,4.804
-314,128,4.805
-475,168,4.806
-440,189,4.807
-257,169,4.808
-168,92,4.809
-241,-22,4.81
-282,-113,4.811
-146,-130,4.812
56,-86,4.813
170,-34,4.814
151,-17,4.815
96,-30,4.816
110,-50,4.817
204,-59,4.818
289,-63,4.819
276,-57,4.82
188,-36,4.821
147,-11,4.822
191,3,4.823
204,26,4.824
103,71,4.825
-17,117,4.826
-40,114,4.827
-9,53,4.828
-31,-27,4.829
-101,-96,4.83
-133,-147,4.831
-129,-161,4.832
-143,-127,4.833
-161,-62,4.834
-103,-17,4.835
8,-12,4.836
66,-19,4.837
24,-12,4.838
-39,1,4.839
-57,11,4.84
-46,15,4.841
-36,14,4.842
3,5,4.843
98,-4,4.844
178,-4,4.845
146,-2,4.846
20,0,4.847
-72,20,4.848
-58,53,4.849
-13,60,4.85
-29,28,4.851
-80,5,4.852
-78,36,4.853
-2,94,4.854
71,124,4.855
67,103,4.856
-6,47,4.857
-85,-16,4.858
-127,-65,4.859
-123,-76,4.86
-90,-53,4.861
-41,-43,4.862
6,-55,4.863
37,-48,4.864
40,3,4.865
28,55,4.866
28,56,4.867
38,33,4.868
46,29,4.869
60,46,4.87
98,47,4.871
142,32,4.872
164,27,4.873
164,33,4.874
169,33,4.875
163,9,4.876
107,-31,4.877
10,-59,4.878
-69,-61,4.879
-101,-56,4.88
-104,-72,4.881
-90,-104,4.882
-68,-116,4.883
-83,-94,4.884
-151,-69,4.885
-209,-68,4.886
-169,-71,4.887
-31,-61,4.888
115,-51,4.889
170,-48,4.89
102,-30,4.891
-36,16,4.892
-129,61,4.893
90,19,4.894
50,21,4.895
25,31,4.896
43,66,4.897
44,98,4.898
-8,120,4.899
-44,132,4.9
-22,118,4.901
-17,93,4.902
-60,31,4.903
-95,-23,4.904
-106,-60,4.905
-102,-88,4.906
-57,-91,4.907
8,-95,4.908
133,-95,4.909
238,-104,4.91
276,-138,4.911
271,-152,4.912
137,-107,4.913
82,12,4.914
49,13,4.915
27,21,4.916
43,47,4.917
44,71,4.918
0,87,4.919
-30,96,4.92
-12,86,4.921
-8,67,4.922
-44,21,4.923
-73,-20,4.924
-82,-48,4.925
-79,-69,4.926
-41,-71,4.927
13,-74,4.928
118,-74,4.929
205,-81,4.93
237,-106,4.931
233,-117,4.932
121,-83,4.933
-12,-40,4.934
-207,19,4.935
-333,40,4.936
-338,27,4.937
-261,19,4.938
-166,22,4.939
-89,17,4.94
-39,15,4.941
-10,42,4.942
26,93,4.943
65,132,4.944
77,141,4.945
64,132,4.946
71,126,4.947
102,120,4.948
102,108,4.949
61,84,4.95
40,57,4.951
56,32,4.952
54,15,4.953
15,-9,4.954
9,-39,4.955
81,-61,4.956
160,-65,4.957
154,-59,4.958
80,-69,4.959
10,-97,4.96
-28,-119,4.961
-63,-127,4.962
-115,-130,4.963
-162,-126,4.964
-173,-105,4.965
-138,-79,4.966
-83,-66,4.967
-49,-61,4.968
-44,-49,4.969
-24,-33,4.97
56,-23,4.971
185,-14,4.972
277,6,4.973
247,26,4.974
132,27,4.975
44,16,4.976
38,11,4.977
9,17,4.978
-91,26,4.979
-161,49,4.98
-135,100,4.981
-95,144,4.982
-12,138,4.983
51,95,4.984
54,69,4.985
48,80,4.986
13,90,4.987
-40,71,4.988
-145,29,4.989
-194,-19,4.99
-70,-79,4.991
38,-152,4.992
99,-203,4.993
137,-193,4.994
72,-115,4.995
-18,-20,4.996
-69,34,4.997
-70,53,4.998
-78,70,4.999
-100,92,5.0
-71,88,5.001
24,49,5.002
98,25,5.003
73,44,5.004
5,63,5.005
-5,37,5.006
44,-9,5.007
70,-22,5.008
30,-7,5.009
-21,-7,5.01
-25,-22,5.011
5,-25,5.012
24,-13,5.013
21,-17,5.014
31,-38,5.015
71,-55,5.016
113,-64,5.017
120,-65,5.018
99,-60,5.019
70,-40,5.02
30,-14,5.021
-26,0,5.022
-73,-1,5.023
-92,-4,5.024
-94,0,5.025
-103,14,5.026
-103,25,5.027
-74,18,5.028
-33,1,5.029
-8,-8,5.03
9,-9,5.031
42,-14,5.032
77,-26,5.033
-106,-23,5.034
-162,6,5.035
-171,30,5.036
-29,37,5.037
79,41,5.038
79,34,5.039
83,28,5.04
113,30,5.041
119,23,5.042
42,-14,5.043
-10,-46,5.044
15,-60,5.045
24,-60,5.046
-24,-17,5.047
-43,13,5.048
40,6,5.049
119,-4,5.05
186,-20,5.051
240,-38,5.052
257,-61,5.053
-29,-81,5.054
-56,-70,5.055
-60,-38,5.056
8,-14,5.057
60,-8,5.058
60,-7,5.059
62,6,5.06
76,30,5.061
79,53,5.062
42,66,5.063
17,68,5.064
29,55,5.065
33,29,5.066
10,0,5.067
1,-13,5.068
41,-12,5.069
79,-11,5.07
111,-20,5.071
137,-27,5.072
145,-20,5.073
140,-1,5.074
72,17,5.075
-7,26,5.076
-68,24,5.077
-106,17,5.078
-117,5,5.079
-111,-12,5.08
-120,-27,5.081
-141,-29,5.082
-117,-24,5.083
-30,-21,5.084
44,-25,5.085
50,-22,5.086
31,-7,5.087
47,2,5.088
77,-8,5.089
70,-32,5.09
37,-39,5.091
30,-20,5.092
45,6,5.093
43,19,5.094
17,17,5.095
-7,13,5.096
-16,18,5.097
-24,33,5.098
-31,46,5.099
-25,48,5.1
-17,38,5.101
-20,28,5.102
-31,24,5.103
-34,28,5.104
-17,39,5.105
16,52,5.106
54,57,5.107
83,51,5.108
98,45,5.109
100,41,5.11
87,34,5.111
39,13,5.112
-27,-14,5.113
-68,-40,5.114
-37,-45,5.115
41,-27,5.116
99,-5,5.117
94,4,5.118
33,-3,5.119
-57,-9,5.12
-143,-5,5.121
-192,-3,5.122
-201,-8,5.123
-190,-7,5.124
-157,10,5.125
-80,29,5.126
19,35,5.127
75,43,5.128
64,62,5.129
36,80,5.13
47,79,5.131
80,75,5.132
90,81,5.133
58,74,5.134
8,62,5.135
-33,44,5.136
-52,14,5.137
-69,-19,5.138
-77,-59,5.139
-70,-83,5.14
-20,-58,5.141
17,-39,5.142
18,-32,5.143
16,-21,5.144
0,4,5.145
-13,30,5.146
-14,52,5.147
-18,68,5.148
-30,58,5.149
-33,37,5.15
-10,-7,5.151
9,-43,5.152
19,-46,5.153
39,67,5.154
79,56,5.155
87,40,5.156
69,13,5.157
56,-17,5.158
44,-53,5.159
29,-74,5.16
31,-52,5.161
67,-35,5.162
103,-29,5.163
107,-19,5.164
89,4,5.165
75,27,5.166
65,47,5.167
43,61,5.168
5,52,5.169
-53,34,5.17
-129,-7,5.171
-190,-39,5.172
-189,-41,5.173
-133,-37,5.174
-75,-23,5.175
-56,-31,5.176
-44,-43,5.177
0,-40,5.178
56,-35,5.179
85,-36,5.18
76,-35,5.181
50,-26,5.182
27,-23,5.183
8,-29,5.184
-1,-30,5.185
-3,-26,5.186
3,-29,5.187
23,-36,5.188
55,-29,5.189
72,-10,5.19
41,1,5.191
-25,0,5.192
-74,6,5.193
33,10,5.194
38,-6,5.195
41,-24,5.196
33,-45,5.197
28,-55,5.198
38,-32,5.199
49,-17,5.2
63,-26,5.201
59,-33,5.202
1,-30,5.203
-46,-27,5.204
-72,-22,5.205
-91,-18,5.206
-93,-18,5.207
-91,-20,5.208
-77,-24,5.209
-52,-27,5.21
3,-31,5.211
47,-35,5.212
51,-39,5.213
37,-43,5.214
42,-39,5.215
45,-21,5.216
36,-1,5.217
31,16,5.218
42,28,5.219
54,47,5.22
69,76,5.221
65,97,5.222
2,94,5.223
-51,73,5.224
-79,56,5.225
-100,42,5.226
-102,5,5.227
-100,-72,5.228
-84,-145,5.229
-57,-149,5.23
4,-84,5.231
52,-25,5.232
56,-18,5.233
54,-31,5.234
34,-12,5.235
25,2,5.236
22,1,5.237
33,1,5.238
71,5,5.239
136,9,5.24
183,11,5.241
162,13,5.242
62,10,5.243
-54,5,5.244
-119,-5,5.245
-131,-18,5.246
-135,-35,5.247
-147,-51,5.248
-136,-59,5.249
-87,-60,5.25
-32,-34,5.251
6,-5,5.252
40,32,5.253
77,69,5.254
93,92,5.255
72,89,5.256
47,67,5.257
48,53,5.258
58,48,5.259
41,41,5.26
9,30,5.261
-9,25,5.262
5,19,5.263
30,5,5.264
40,-10,5.265
30,-13,5.266
22,-4,5.267
29,2,5.268
31,1,5.269
0,-6,5.27
-53,-19,5.271
-78,-39,5.272
-60,-49,5.273
-39,-43,5.274
-43,-33,5.275
-50,-27,5.276
-32,-21,5.277
-4,0,5.278
11,21,5.279
22,18,5.28
33,9,5.281
23,19,5.282
-12,37,5.283
-39,29,5.284
-34,-2,5.285
-16,-21,5.286
4,-5,5.287
39,20,5.288
83,24,5.289
100,12,5.29
72,5,5.291
25,0,5.292
-12,-11,5.293
-36,-35,5.294
-40,-59,5.295
-20,-72,5.296
0,-74,5.297
-10,-61,5.298
-48,-44,5.299
-78,-35,5.3
-87,-33,5.301
-90,-16,5.302
-82,24,5.303
-45,65,5.304
22,78,5.305
87,63,5.306
123,45,5.307
124,38,5.308
101,39,5.309
68,39,5.31
43,38,5.311
28,35,5.312
16,30,5.313
13,21,5.314
25,16,5.315
29,14,5.316
-6,7,5.317
-53,-4,5.318
-42,-21,5.319
17,-40,5.32
33,-54,5.321
-20,-54,5.322
-59,-41,5.323
-19,-27,5.324
34,-20,5.325
21,-10,5.326
-26,12,5.327
-36,39,5.328
-8,51,5.329
9,42,5.33
15,18,5.331
31,-9,5.332
46,-28,5.333
35,-32,5.334
18,-12,5.335
25,14,5.336
38,17,5.337
20,5,5.338
-17,0,5.339
-26,9,5.34
-3,16,5.341
14,12,5.342
5,1,5.343
-16,-13,5.344
-42,-32,5.345
-62,-35,5.346
-62,-7,5.347
-36,34,5.348
-5,54,5.349
14,45,5.35
13,31,5.351
-2,22,5.352
-19,10,5.353
-27,-6,5.354
-16,-9,5.355
-5,-3,5.356
-17,-9,5.357
-32,-27,5.358
-13,-38,5.359
32,-26,5.36
58,-9,5.361
47,-8,5.362
35,-25,5.363
44,-41,5.364
52,-39,5.365
32,-17,5.366
0,5,5.367
-17,13,5.368
-21,12,5.369
-21,16,5.37
-14,27,5.371
-10,33,5.372
-19,44,5.373
-28,61,5.374
-11,72,5.375
30,56,5.376
49,13,5.377
27,-24,5.378
-4,-38,5.379
-6,-33,5.38
24,-21,5.381
61,-8,5.382
71,0,5.383
37,3,5.384
-28,5,5.385
-75,9,5.386
-69,8,5.387
-36,-3,5.388
-10,-18,5.389
11,-25,5.39
38,-24,5.391
47,-18,5.392
30,-8,5.393
13,0,5.394
21,3,5.395
24,2,5.396
-8,5,5.397
-43,14,5.398
-30,14,5.399
14,0,5.4
37,-18,5.401
31,-28,5.402
37,-25,5.403
61,-13,5.404
68,-3,5.405
34,-4,5.406
-28,-13,5.407
-93,-20,5.408
-137,-17,5.409
-144,-20,5.41
-116,-32,5.411
-79,-38,5.412
-49,-23,5.413
-12,3,5.414
35,36,5.415
63,59,5.416
51,49,5.417
17,41,5.418
-3,38,5.419
2,37,5.42
18,44,5.421
26,43,5.422
34,17,5.423
52,-3,5.424
89,-6,5.425
129,-10,5.426
146,-16,5.427
131,-25,5.428
98,-37,5.429
58,-48,5.43
0,-58,5.431
-75,-64,5.432
-135,-55,5.433
-156,-50,5.434
-142,-56,5.435
-119,-43,5.436
-92,-13,5.437
-51,20,5.438
-1,44,5.439
40,65,5.44
62,85,5.441
67,95,5.442
54,95,5.443
38,88,5.444
32,75,5.445
36,50,5.446
38,20,5.447
29,-3,5.448
16,-15,5.449
2,-22,5.45
-4,-32,5.451
-5,-38,5.452
-1,-39,5.453
-3,-40,5.454
-12,-35,5.455
-15,-26,5.456
-4,-17,5.457
16,-7,5.458
47,2,5.459
84,13,5.46
106,22,5.461
90,28,5.462
45,29,5.463
-1,22,5.464
-39,7,5.465
-81,-10,5.466
-120,-22,5.467
-143,-27,5.468
-144,-38,5.469
-120,-59,5.47
-65,-81,5.471
22,-76,5.472
95,-43,5.473
109,-5,5.474
71,3,5.475
40,-15,5.476
44,-34,5.477
43,-33,5.478
-2,-21,5.479
-68,-9,5.48
-110,8,5.481
-120,30,5.482
-110,33,5.483
-83,11,5.484
-45,-18,5.485
-13,-31,5.486
9,-31,5.487
35,-27,5.488
60,-18,5.489
61,2,5.49
45,25,5.491
39,34,5.492
43,37,5.493
38,40,5.494
26,45,5.495
30,40,5.496
43,27,5.497
44,25,5.498
38,34,5.499
43,43,5.5
44,38,5.501
22,19,5.502
0,-3,5.503
5,-20,5.504
15,-28,5.505
-4,-31,5.506
-28,-25,5.507
-16,-8,5.508
11,8,5.509
5,12,5.51
-21,7,5.511
-24,2,5.512
0,6,5.513
14,8,5.514
4,5,5.515
-8,1,5.516
-8,0,5.517
-3,1,5.518
1,3,5.519
15,7,5.52
33,13,5.521
47,15,5.522
54,9,5.523
51,0,5.524
32,-5,5.525
3,-9,5.526
-8,-13,5.527
4,-12,5.528
28,-4,5.529
48,3,5.53
64,7,5.531
72,9,5.532
61,14,5.533
28,21,5.534
-14,23,5.535
-52,21,5.536
-80,16,5.537
-96,12,5.538
-104,-2,5.539
-100,-23,5.54
-69,-42,5.541
2,-49,5.542
81,-46,5.543
107,-38,5.544
52,-26,5.545
-35,-13,5.546
-90,-9,5.547
-97,-21,5.548
-92,-38,5.549
-105,-41,5.55
-120,-25,5.551
-109,-8,5.552
-76,-4,5.553
-50,-6,5.554
-44,1,5.555
-30,18,5.556
11,26,5.557
65,26,5.558
107,21,5.559
145,18,5.56
189,8,5.561
196,-9,5.562
124,-21,5.563
4,-10,5.564
-78,12,5.565
-93,23,5.566
-85,11,5.567
-89,-5,5.568
-76,-15,5.569
-23,-21,5.57
40,-26,5.571
71,-20,5.572
72,0,5.573
61,15,5.574
51,15,5.575
40,13,5.576
29,8,5.577
22,4,5.578
26,6,5.579
31,10,5.58
39,14,5.581
41,18,5.582
27,26,5.583
14,31,5.584
4,27,5.585
-3,21,5.586
-3,15,5.587
6,10,5.588
47,12,5.589
88,14,5.59
129,14,5.591
147,13,5.592
95,15,5.593
32,17,5.594
-58,9,5.595
-126,-8,5.596
-163,-25,5.597
-179,-30,5.598
-181,-23,5.599
-166,-18,5.6
-132,-14,5.601
-96,-12,5.602
-71,-11,5.603
-44,-11,5.604
-3,-11,5.605
29,-11,5.606
33,-12,5.607
27,-11,5.608
47,-7,5.609
87,-3,5.61
113,-4,5.611
107,-12,5.612
90,-11,5.613
76,-3,5.614
59,6,5.615
44,15,5.616
38,19,5.617
35,24,5.618
39,31,5.619
36,37,5.62
9,36,5.621
-21,34,5.622
-57,32,5.623
-85,20,5.624
-87,-21,5.625
-92,-64,5.626
-106,-112,5.627
-105,-139,5.628
-58,-103,5.629
-18,-65,5.63
-3,-21,5.631
12,14,5.632
28,19,5.633
54,23,5.634
112,24,5.635
147,16,5.636
135,4,5.637
81,8,5.638
15,26,5.639
-28,41,5.64
-40,43,5.641
-48,34,5.642
-61,25,5.643
-60,18,5.644
-39,14,5.645
-22,10,5.646
-21,13,5.647
-17,19,5.648
-4,25,5.649
0,27,5.65
-2,25,5.651
17,16,5.652
65,9,5.653
95,0,5.654
66,-8,5.655
3,-18,5.656
-30,-25,5.657
-26,-19,5.658
-19,-7,5.659
-20,4,5.66
-7,9,5.661
18,6,5.662
27,-1,5.663
10,-11,5.664
-10,-22,5.665
-10,-24,5.666
11,-14,5.667
47,-3,5.668
92,-3,5.669
116,-9,5.67
92,-8,5.671
24,3,5.672
-40,12,5.673
-76,6,5.674
-74,-10,5.675
-45,-24,5.676
-6,-33,5.677
33,-30,5.678
87,-14,5.679
158,5,5.68
196,14,5.681
122,10,5.682
-48,5,5.683
-197,10,5.684
-222,14,5.685
-154,9,5.686
-82,0,5.687
-38,-10,5.688
-7,-29,5.689
12,-46,5.69
7,-31,5.691
0,15,5.692
1,49,5.693
-12,42,5.694
-53,19,5.695
-89,13,5.696
-85,9,5.697
-57,-9,5.698
-47,-37,5.699
-58,-57,5.7
-65,-58,5.701
-53,-42,5.702
-29,-18,5.703
-10,-1,5.704
-10,0,5.705
-18,0,5.706
8,12,5.707
75,27,5.708
133,29,5.709
137,27,5.71
113,30,5.711
106,27,5.712
112,15,5.713
94,6,5.714
66,17,5.715
59,28,5.716
74,13,5.717
83,-7,5.718
81,-2,5.719
82,22,5.72
72,34,5.721
38,19,5.722
5,1,5.723
19,-2,5.724
67,4,5.725
80,4,5.726
7,-3,5.727
-115,-10,5.728
-198,-16,5.729
-192,-17,5.73
-142,-18,5.731
-116,-29,5.732
-107,-49,5.733
-51,-66,5.734
69,-57,5.735
178,-25,5.736
194,0,5.737
123,19,5.738
27,35,5.739
-57,51,5.74
-127,54,5.741
-176,39,5.742
-187,16,5.743
-169,-8,5.744
-141,-41,5.745
-108,-74,5.746
-67,-85,5.747
-22,-67,5.748
9,-40,5.749
25,-23,5.75
44,-8,5.751
75,15,5.752
103,35,5.753
102,37,5.754
74,31,5.755
53,28,5.756
60,33,5.757
66,34,5.758
66,23,5.759
63,17,5.76
54,25,5.761
52,27,5.762
74,9,5.763
87,-4,5.764
71,-4,5.765
45,-2,5.766
-8,4,5.767
-46,11,5.768
-30,17,5.769
-16,23,5.77
-9,28,5.771
-14,30,5.772
-58,20,5.773
-74,6,5.774
9,-28,5.775
61,-60,5.776
31,-72,5.777
-39,-61,5.778
-74,-39,5.779
-43,-14,5.78
22,10,5.781
54,22,5.782
13,8,5.783
-47,-14,5.784
-48,-15,5.785
-6,7,5.786
-2,26,5.787
-63,12,5.788
-114,-16,5.789
-99,-29,5.79
-40,-16,5.791
17,8,5.792
60,22,5.793
79,13,5.794
59,-6,5.795
9,-20,5.796
-22,-24,5.797
-16,-23,5.798
0,-26,5.799
15,-27,5.8
39,-19,5.801
66,-1,5.802
63,17,5.803
25,29,5.804
-4,32,5.805
6,34,5.806
36,42,5.807
60,56,5.808
72,62,5.809
64,42,5.81
25,0,5.811
-39,-40,5.812
-94,-53,5.813
-122,-38,5.814
-103,-12,5.815
-46,0,5.816
18,-7,5.817
44,-15,5.818
37,-13,5.819
51,0,5.82
97,16,5.821
113,20,5.822
53,3,5.823
-42,-13,5.824
-98,-9,5.825
-100,17,5.826
-70,31,5.827
-9,11,5.828
97,-19,5.829
217,-25,5.83
278,-5,5.831
215,19,5.832
59,31,5.833
-122,31,5.834
-223,23,5.835
-233,-4,5.836
-234,-52,5.837
-256,-88,5.838
-231,-90,5.839
-135,-62,5.84
-42,-35,5.841
-4,-26,5.842
40,-28,5.843
130,-29,5.844
197,-23,5.845
194,-14,5.846
183,0,5.847
205,20,5.848
169,36,5.849
21,52,5.85
-111,69,5.851
-99,81,5.852
-10,73,5.853
24,43,5.854
-23,10,5.855
-74,-6,5.856
-91,-2,5.857
-85,17,5.858
-43,36,5.859
28,28,5.86
62,-8,5.861
29,-45,5.862
17,-45,5.863
108,-7,5.864
212,38,5.865
174,52,5.866
-9,36,5.867
-177,14,5.868
-214,13,5.869
-166,17,5.87
-136,0,5.871
-148,-32,5.872
-156,-46,5.873
-129,-26,5.874
-75,8,5.875
-17,27,5.876
42,22,5.877
101,18,5.878
148,27,5.879
187,36,5.88
230,35,5.881
269,14,5.882
263,-20,5.883
194,-56,5.884
87,-81,5.885
-13,-106,5.886
-85,-144,5.887
-126,-175,5.888
-118,-162,5.889
-57,-104,5.89
3,-49,5.891
9,-23,5.892
-8,0,5.893
30,39,5.894
117,95,5.895
122,137,5.896
-5,137,5.897
-143,131,5.898
-174,112,5.899
-153,88,5.9
-186,49,5.901
-235,9,5.902
-202,-33,5.903
-97,-67,5.904
-8,-72,5.905
51,-63,5.906
102,-12,5.907
125,22,5.908
94,8,5.909
48,2,5.91
24,22,5.911
9,32,5.912
-10,14,5.913
-16,-8,5.914
-4,-34,5.915
10,-41,5.916
48,-35,5.917
132,-16,5.918
211,7,5.919
206,28,5.92
130,49,5.921
76,74,5.922
69,89,5.923
55,75,5.924
10,45,5.925
-37,19,5.926
-91,1,5.927
-158,-10,5.928
-175,-8,5.929
-77,9,5.93
66,27,5.931
120,20,5.932
69,4,5.933
2,-9,5.934
-16,-12,5.935
-31,-20,5.936
-100,-40,5.937
-201,-64,5.938
-263,-88,5.939
-241,-104,5.94
-143,-103,5.941
-40,-91,5.942
-2,-85,5.943
-20,-87,5.944
-16,-76,5.945
49,-46,5.946
137,-14,5.947
204,2,5.948
244,11,5.949
231,28,5.95
128,46,5.951
-21,49,5.952
-101,34,5.953
-72,-7,5.954
-6,-53,5.955
19,-73,5.956
29,-41,5.957
84,27,5.958
169,79,5.959
220,96,5.96
189,103,5.961
81,117,5.962
-59,114,5.963
-165,73,5.964
-185,22,5.965
-140,4,5.966
-78,16,5.967
-41,25,5.968
-32,15,5.969
-40,0,5.97
-45,-9,5.971
-38,-17,5.972
-29,-28,5.973
-42,-49,5.974
-82,-80,5.975
-130,-99,5.976
-151,-78,5.977
-131,-19,5.978
-75,20,5.979
-6,5,5.98
50,-33,5.981
91,-45,5.982
122,-31,5.983
142,-13,5.984
126,0,5.985
84,22,5.986
52,48,5.987
58,62,5.988
87,62,5.989
111,59,5.99
108,48,5.991
70,26,5.992
24,-1,5.993
10,-26,5.994
56,-43,5.995
102,-48,5.996
65,-38,5.997
-51,-14,5.998
-147,5,5.999
-149,15,6.0
-77,17,6.001
5,12,6.002
50,1,6.003
21,0,6.004
-79,23,6.005
-165,54,6.006
-145,61,6.007
-47,43,6.008
0,36,6.009
-41,49,6.01
-75,54,6.011
-22,29,6.012
54,-3,6.013
74,-35,6.014
53,-67,6.015
42,-99,6.016
29,-134,6.017
-14,-153,6.018
-38,-122,6.019
13,-89,6.02
96,-55,6.021
125,-20,6.022
103,20,6.023
79,61,6.024
52,103,6.025
15,132,6.026
6,120,6.027
56,109,6.028
120,103,6.029
129,91,6.03
67,59,6.031
-34,37,6.032
-118,50,6.033
-126,60,6.034
-43,42,6.035
23,4,6.036
-34,-34,6.037
-143,-66,6.038
-165,-86,6.039
-111,-82,6.04
-96,-59,6.041
-121,-48,6.042
-79,-47,6.043
33,-26,6.044
104,11,6.045
85,22,6.046
31,-7,6.047
-20,-30,6.048
-74,-15,6.049
-108,4,6.05
-91,-17,6.051
-43,-70,6.052
0,-122,6.053
61,-158,6.054
149,-162,6.055
226,-116,6.056
268,-45,6.057
296,2,6.058
290,8,6.059
168,9,6.06
-52,33,6.061
-217,62,6.062
-222,71,6.063
-146,67,6.064
-110,58,6.065
-114,25,6.066
-99,-28,6.067
-50,-67,6.068
5,-68,6.069
47,-54,6.07
55,-47,6.071
19,-36,6.072
-21,-2,6.073
-14,50,6.074
30,98,6.075
37,122,6.076
-8,116,6.077
-33,95,6.078
-5,75,6.079
-1,59,6.08
-80,38,6.081
-170,7,6.082
-153,-19,6.083
-40,-46,6.084
63,-77,6.085
102,-93,6.086
106,-60,6.087
102,7,6.088
73,58,6.089
21,70,6.09
-15,68,6.091
-11,56,6.092
13,20,6.093
48,-45,6.094
91,-69,6.095
113,-13,6.096
79,69,6.097
14,111,6.098
1,104,6.099
68,97,6.1
142,106,6.101
136,103,6.102
45,65,6.103
-72,20,6.104
-152,-3,6.105
-160,-13,6.106
-99,-41,6.107
-27,-92,6.108
-19,-137,6.109
-74,-145,6.11
-99,-112,6.111
-21,-59,6.112
86,-15,6.113
96,-4,6.114
-6,-16,6.115
-71,-26,6.116
0,-29,6.117
93,-34,6.118
52,-44,6.119
-68,-59,6.12
-92,-87,6.121
-19,-101,6.122
-6,-73,6.123
-86,-50,6.124
-110,-45,6.125
-26,-42,6.126
37,-47,6.127
13,-47,6.128
0,-29,6.129
69,-9,6.13
127,12,6.131
86,27,6.132
22,21,6.133
29,15,6.134
95,12,6.135
130,27,6.136
91,49,6.137
-7,86,6.138
-107,137,6.139
-140,194,6.14
-82,232,6.141
-2,228,6.142
32,181,6.143
48,99,6.144
90,0,6.145
108,-91,6.146
46,-141,6.147
-30,-137,6.148
-20,-109,6.149
46,-88,6.15
68,-62,6.151
43,-4,6.152
43,75,6.153
60,123,6.154
11,134,6.155
-127,105,6.156
-252,65,6.157
-264,8,6.158
-177,-80,6.159
-82,-174,6.16
-35,-216,6.161
-22,-185,6.162
-2,-117,6.163
33,-68,6.164
58,-44,6.165
59,-16,6.166
58,29,6.167
55,71,6.168
22,81,6.169
-30,65,6.17
-32,39,6.171
58,11,6.172
171,-18,6.173
214,-40,6.174
174,-33,6.175
111,-9,6.176
62,4,6.177
4,18,6.178
-67,47,6.179
-98,86,6.18
-52,99,6.181
19,68,6.182
31,19,6.183
-36,-15,6.184
-110,-17,6.185
-123,-4,6.186
-86,-1,6.187
-52,-23,6.188
-52,-72,6.189
-84,-124,6.19
-129,-141,6.191
-133,-101,6.192
-47,-31,6.193
103,-145,6.194
191,-66,6.195
140,-8,6.196
46,-9,6.197
24,-8,6.198
44,13,6.199
19,31,6.2
-18,48,6.201
31,56,6.202
152,34,6.203
246,18,6.204
281,28,6.205
282,45,6.206
208,80,6.207
12,105,6.208
-207,92,6.209
-295,77,6.21
-254,54,6.211
-214,11,6.212
-202,-104,6.213
-136,-86,6.214
-13,-36,6.215
44,1,6.216
-11,0,6.217
-68,1,6.218
-44,14,6.219
10,26,6.22
25,37,6.221
30,42,6.222
50,28,6.223
48,18,6.224
44,24,6.225
123,35,6.226
261,57,6.227
267,73,6.228
47,65,6.229
-216,55,6.23
-290,41,6.231
-204,13,6.232
-142,-60,6.233
-155,-143,6.234
-133,-231,6.235
-37,-251,6.236
28,-215,6.237
7,-171,6.238
-24,-148,6.239
0,-124,6.24
34,-68,6.241
35,11,6.242
40,83,6.243
90,131,6.244
142,165,6.245
152,196,6.246
133,227,6.247
111,248,6.248
66,251,6.249
-4,230,6.25
-39,184,6.251
-7,118,6.252
45,43,6.253
53,-35,6.254
26,-90,6.255
1,-119,6.256
-19,-148,6.257
-34,-179,6.258
-33,-184,6.259
-22,-140,6.26
18,-75,6.261
43,-28,6.262
24,-5,6.263
11,20,6.264
19,54,6.265
16,76,6.266
-21,75,6.267
-49,64,6.268
-43,54,6.269
-35,46,6.27
-21,37,6.271
-12,30,6.272
-21,31,6.273
-20,34,6.274
14,39,6.275
48,35,6.276
77,18,6.277
101,1,6.278
96,-2,6.279
57,2,6.28
27,2,6.281
28,-13,6.282
11,-42,6.283
-76,-78,6.284
-182,-119,6.285
-201,-154,6.286
-131,-172,6.287
-65,-176,6.288
-59,-174,6.289
-61,-161,6.29
-25,-116,6.291
13,-43,6.292
18,27,6.293
12,72,6.294
36,96,6.295
68,116,6.296
70,133,6.297
55,140,6.298
57,135,6.299
68,128,6.3
70,120,6.301
89,95,6.302
141,48,6.303
152,-7,6.304
40,-50,6.305
-127,-73,6.306
-191,-80,6.307
-121,-87,6.308
-51,-106,6.309
-65,-135,6.31
-95,-152,6.311
-62,-136,6.312
-5,-94,6.313
17,-112,6.314
16,-105,6.315
21,-99,6.316
12,-90,6.317
-27,-71,6.318
-54,-36,6.319
-22,-1,6.32
43,40,6.321
100,81,6.322
150,122,6.323
206,154,6.324
237,138,6.325
191,106,6.326
62,36,6.327
-86,-17,6.328
-166,-23,6.329
-153,-26,6.33
-117,-7,6.331
-126,2,6.332
-144,-10,6.333
-96,-63,6.334
-5,-59,6.335
55,-56,6.336
20,-50,6.337
11,-39,6.338
85,-19,6.339
142,1,6.34
146,23,6.341
130,47,6.342
51,70,6.343
-11,89,6.344
-24,80,6.345
-40,61,6.346
-68,21,6.347
-82,-8,6.348
-54,-12,6.349
-21,-14,6.35
20,-3,6.351
49,2,6.352
32,-5,6.353
21,-34,6.354
25,-32,6.355
13,-30,6.356
0,-27,6.357
5,-21,6.358
11,-10,6.359
-6,1,6.36
-20,14,6.361
-6,27,6.362
25,40,6.363
34,50,6.364
24,45,6.365
25,35,6.366
32,13,6.367
22,-4,6.368
-13,-6,6.369
-42,-7,6.37
-45,-1,6.371
-34,2,6.372
-36,-2,6.373
-45,-11,6.374
-20,-32,6.375
39,-44,6.376
74,-32,6.377
39,-1,6.378
-26,20,6.379
-68,28,6.38
-94,33,6.381
-127,37,6.382
-127,21,6.383
-59,-20,6.384
34,-62,6.385
74,-75,6.386
55,-56,6.387
26,-23,6.388
1,0,6.389
-13,12,6.39
8,16,6.391
86,23,6.392
163,29,6.393
161,26,6.394
63,24,6.395
-57,35,6.396
-117,56,6.397
-107,75,6.398
-69,78,6.399
-46,75,6.4
-35,77,6.401
-18,81,6.402
8,84,6.403
31,87,6.404
41,94,6.405
45,89,6.406
55,65,6.407
71,39,6.408
84,28,6.409
86,30,6.41
64,32,6.411
13,34,6.412
-40,40,6.413
-62,5,6.414
-54,-17,6.415
-50,-35,6.416
-58,-34,6.417
-53,-30,6.418
-10,-20,6.419
24,-10,6.42
35,-7,6.421
39,-5,6.422
20,-4,6.423
5,-3,6.424
5,0,6.425
-1,2,6.426
-28,6,6.427
-40,10,6.428
-2,14,6.429
14,14,6.43
-31,3,6.431
-75,-6,6.432
-107,-11,6.433
-126,16,6.434
-93,-28,6.435
-83,-62,6.436
-100,-60,6.437
-104,-54,6.438
-61,-33,6.439
10,-15,6.44
68,-8,6.441
87,-3,6.442
89,-1,6.443
96,1,6.444
94,6,6.445
60,11,6.446
11,19,6.447
-19,26,6.448
-25,34,6.449
-30,34,6.45
-21,12,6.451
26,-6,6.452
90,-17,6.453
120,-23,6.454
83,-11,6.455
20,-8,6.456
-23,-17,6.457
-24,-23,6.458
8,-15,6.459
32,-2,6.46
6,-4,6.461
-52,-26,6.462
-81,-53,6.463
-55,-64,6.464
-26,-58,6.465
-31,-56,6.466
-44,-57,6.467
-29,-49,6.468
0,-31,6.469
18,-24,6.47
33,-37,6.471
56,-51,6.472
78,-52,6.473
94,-48,6.474
109,-52,6.475
111,-49,6.476
91,-27,6.477
61,-3,6.478
38,24,6.479
0,47,6.48
-72,58,6.481
-128,57,6.482
-110,16,6.483
-48,-18,6.484
-23,-34,6.485
-45,-40,6.486
-54,-16,6.487
-16,-1,6.488
40,-17,6.489
68,-29,6.49
50,-29,6.491
-10,-28,6.492
-63,-22,6.493
-60,-16,6.494
-3,-14,6.495
27,-37,6.496
-1,-83,6.497
-30,-109,6.498
-12,-93,6.499
18,-63,6.5
8,-51,6.501
-8,-51,6.502
25,-42,6.503
86,-27,6.504
114,-17,6.505
99,-8,6.506
71,4,6.507
35,16,6.508
-25,24,6.509
-83,33,6.51
-92,42,6.511
-56,38,6.512
-17,21,6.513
-5,-6,6.514
-6,-30,6.515
-4,-48,6.516
2,-50,6.517
9,-47,6.518
23,-25,6.519
44,-7,6.52
56,-1,6.521
46,6,6.522
28,19,6.523
20,30,6.524
24,31,6.525
37,31,6.526
52,27,6.527
54,22,6.528
32,19,6.529
-9,17,6.53
-38,23,6.531
-30,31,6.532
4,39,6.533
39,43,6.534
51,33,6.535
31,16,6.536
-3,-6,6.537
-37,-26,6.538
-61,-48,6.539
-72,-69,6.54
-73,-78,6.541
-64,-70,6.542
-47,-50,6.543
-22,-28,6.544
6,0,6.545
38,23,6.546
68,40,6.547
78,51,6.548
56,60,6.549
27,71,6.55
20,77,6.551
25,67,6.552
16,45,6.553
-22,12,6.554
-53,-11,6.555
-42,-19,6.556
13,-16,6.557
85,-5,6.558
131,6,6.559
120,14,6.56
52,18,6.561
-36,13,6.562
-98,3,6.563
-115,-6,6.564
-96,-8,6.565
-56,-8,6.566
-17,-23,6.567
-6,-62,6.568
-27,-97,6.569
-47,-94,6.57
-40,-47,6.571
-22,8,6.572
-21,36,6.573
-31,33,6.574
-16,21,6.575
19,14,6.576
36,5,6.577
28,-9,6.578
32,-19,6.579
68,-17,6.58
101,-12,6.581
101,-12,6.582
82,-10,6.583
65,0,6.584
31,14,6.585
-36,24,6.586
-109,30,6.587
-143,42,6.588
-130,60,6.589
-89,73,6.59
-29,74,6.591
44,62,6.592
99,41,6.593
96,17,6.594
46,8,6.595
4,20,6.596
8,30,6.597
29,24,6.598
33,11,6.599
22,5,6.6
22,0,6.601
37,-7,6.602
50,-18,6.603
56,-20,6.604
53,-18,6.605
33,-24,6.606
-8,-35,6.607
-45,-41,6.608
-36,-36,6.609
20,-24,6.61
71,-13,6.611
71,-10,6.612
28,-14,6.613
-26,-19,6.614
-66,-16,6.615
-98,-12,6.616
-125,-8,6.617
-134,-4,6.618
-111,1,6.619
-66,8,6.62
-29,16,6.621
-7,25,6.622
16,35,6.623
48,46,6.624
67,58,6.625
51,65,6.626
19,59,6.627
10,50,6.628
29,31,6.629
46,13,6.63
38,2,6.631
28,-9,6.632
38,-18,6.633
63,-32,6.634
99,-50,6.635
140,-51,6.636
181,-41,6.637
187,-36,6.638
132,-39,6.639
21,-43,6.64
-114,-41,6.641
-224,-32,6.642
-265,-23,6.643
-236,-19,6.644
-188,-23,6.645
-167,-25,6.646
-156,-11,6.647
-111,17,6.648
-38,36,6.649
20,32,6.65
50,20,6.651
74,16,6.652
92,14,6.653
90,-1,6.654
67,-22,6.655
50,-37,6.656
50,-44,6.657
56,-44,6.658
55,-32,6.659
58,-11,6.66
68,11,6.661
87,29,6.662
115,45,6.663
124,59,6.664
86,69,6.665
22,76,6.666
1,88,6.667
45,95,6.668
89,78,6.669
51,37,6.67
-56,0,6.671
-150,-12,6.672
-173,-11,6.673
-150,-14,6.674
-122,-26,6.675
-106,-34,6.676
-79,-32,6.677
-28,-29,6.678
24,-25,6.679
44,-21,6.68
25,-20,6.681
-4,-18,6.682
-6,-15,6.683
19,-10,6.684
38,-4,6.685
34,0,6.686
25,-3,6.687
37,-6,6.688
68,-7,6.689
91,-9,6.69
90,-14,6.691
57,-21,6.692
-5,-33,6.693
-83,-41,6.694
-127,-23,6.695
-113,6,6.696
-69,25,6.697
-34,29,6.698
-7,26,6.699
34,28,6.7
79,34,6.701
106,34,6.702
111,24,6.703
107,16,6.704
86,18,6.705
30,19,6.706
-52,14,6.707
-111,6,6.708
-102,0,6.709
-51,-20,6.71
-34,-64,6.711
-78,-110,6.712
-114,-121,6.713
-70,-90,6.714
26,-44,6.715
67,-10,6.716
24,-10,6.717
-17,-7,6.718
-1,2,6.719
27,16,6.72
12,42,6.721
-15,62,6.722
-8,63,6.723
22,60,6.724
38,46,6.725
42,34,6.726
51,32,6.727
52,27,6.728
35,16,6.729
16,7,6.73
17,3,6.731
30,0,6.732
33,-1,6.733
29,-2,6.734
22,-5,6.735
15,-7,6.736
8,-9,6.737
21,-4,6.738
64,2,6.739
105,1,6.74
100,0,6.741
49,1,6.742
-10,2,6.743
-42,-2,6.744
-48,-14,6.745
-49,-26,6.746
-52,-29,6.747
-45,-20,6.748
-25,-1,6.749
-14,16,6.75
-36,18,6.751
-83,8,6.752
-110,-2,6.753
-97,-8,6.754
-43,-23,6.755
19,-52,6.756
62,-80,6.757
63,-79,6.758
20,-48,6.759
-41,-14,6.76
-85,0,6.761
-91,0,6.762
-55,4,6.763
8,18,6.764
74,22,6.765
92,9,6.766
46,0,6.767
-13,11,6.768
-24,33,6.769
15,41,6.77
44,35,6.771
27,28,6.772
-1,30,6.773
2,29,6.774
16,26,6.775
-13,20,6.776
-76,11,6.777
-105,4,6.778
-69,-3,6.779
-21,-5,6.78
-6,-4,6.781
-2,-4,6.782
30,-8,6.783
74,-11,6.784
92,-14,6.785
88,-20,6.786
88,-26,6.787
85,-24,6.788
57,-14,6.789
18,-6,6.79
-2,-11,6.791
-3,-20,6.792
-6,-16,6.793
-15,-7,6.794
-15,-4,6.795
-2,-5,6.796
8,-3,6.797
6,10,6.798
6,19,6.799
13,19,6.8
20,14,6.801
21,9,6.802
23,2,6.803
23,-2,6.804
15,1,6.805
-1,11,6.806
-11,15,6.807
-13,11,6.808
-13,8,6.809
-14,9,6.81
-5,6,6.811
18,0,6.812
42,1,6.813
50,7,6.814
36,11,6.815
5,10,6.816
-23,5,6.817
-35,3,6.818
-22,-2,6.819
8,-10,6.82
31,-17,6.821
26,-19,6.822
5,-21,6.823
-21,-21,6.824
-53,-17,6.825
-88,-11,6.826
-101,-13,6.827
-74,-25,6.828
-44,-33,6.829
-47,-28,6.83
-58,-12,6.831
-16,4,6.832
65,15,6.833
113,17,6.834
82,20,6.835
17,21,6.836
4,11,6.837
53,-5,6.838
97,-20,6.839
82,-16,6.84
18,5,6.841
-56,25,6.842
-104,30,6.843
-114,17,6.844
-96,-5,6.845
-84,-33,6.846
-90,-54,6.847
-86,-51,6.848
-48,-29,6.849
4,-8,6.85
28,-2,6.851
26,2,6.852
31,17,6.853
56,34,6.854
83,42,6.855
111,37,6.856
152,27,6.857
178,19,6.858
129,15,6.859
16,12,6.86
-81,8,6.861
-109,7,6.862
-97,11,6.863
-80,13,6.864
-48,8,6.865
1,-5,6.866
32,-13,6.867
24,-12,6.868
16,-12,6.869
43,-25,6.87
73,-40,6.871
57,-34,6.872
20,-9,6.873
5,15,6.874
33,23,6.875
62,17,6.876
51,13,6.877
13,26,6.878
-11,42,6.879
-7,44,6.88
9,30,6.881
28,7,6.882
45,-14,6.883
45,-33,6.884
1,-40,6.885
-63,-28,6.886
-96,-14,6.887
-80,-18,6.888
-44,-32,6.889
-2,-37,6.89
71,-26,6.891
169,-9,6.892
217,5,6.893
144,19,6.894
-11,28,6.895
-135,27,6.896
-148,17,6.897
-75,6,6.898
-1,-8,6.899
-1,-24,6.9
-85,-33,6.901
-174,-20,6.902
-161,8,6.903
-35,29,6.904
97,26,6.905
141,-1,6.906
112,-31,6.907
56,-40,6.908
-22,-16,6.909
-124,18,6.91
-197,35,6.911
-205,23,6.912
-187,-2,6.913
-183,-35,6.914
-163,-63,6.915
-88,-72,6.916
8,-59,6.917
54,-33,6.918
48,-13,6.919
49,-3,6.92
89,10,6.921
139,34,6.922
164,56,6.923
164,67,6.924
156,66,6.925
152,57,6.926
150,41,6.927
135,25,6.928
94,17,6.929
36,17,6.93
-7,14,6.931
-14,3,6.932
5,-3,6.933
21,-7,6.934
15,-8,6.935
-16,-15,6.936
-42,-24,6.937
-41,-28,6.938
-24,-32,6.939
-20,-37,6.94
-31,-29,6.941
-30,-11,6.942
-5,-1,6.943
19,-5,6.944
22,-2,6.945
6,14,6.946
-20,25,6.947
-58,17,6.948
-90,4,6.949
-88,3,6.95
-45,-1,6.951
8,-24,6.952
32,-53,6.953
12,-62,6.954
-27,-44,6.955
-42,-18,6.956
-11,-8,6.957
33,-5,6.958
51,4,6.959
50,24,6.96
64,43,6.961
83,52,6.962
64,48,6.963
5,38,6.964
-32,32,6.965
-7,30,6.966
51,33,6.967
80,32,6.968
57,20,6.969
1,-3,6.97
-47,-30,6.971
-59,-40,6.972
-43,-26,6.973
-37,-4,6.974
-67,-2,6.975
-112,-29,6.976
-121,-66,6.977
-88,-79,6.978
-43,-63,6.979
-1,-39,6.98
50,-17,6.981
109,7,6.982
151,29,6.983
165,38,6.984
148,36,6.985
90,41,6.986
-4,50,6.987
-88,42,6.988
-123,13,6.989
-127,-22,6.99
-131,-42,6.991
-113,-42,6.992
-51,-22,6.993
30,3,6.994
78,21,6.995
87,20,6.996
88,12,6.997
71,21,6.998
20,35,6.999
-43,37,7.0
-77,28,7.001
-80,19,7.002
-77,8,7.003
-73,-16,7.004
-55,-39,7.005
-29,-47,7.006
6,-50,7.007
50,-69,7.008
75,-86,7.009
62,-65,7.01
46,-8,7.011
72,32,7.012
121,28,7.013
129,7,7.014
79,11,7.015
29,35,7.016
30,44,7.017
78,40,7.018
152,39,7.019
212,40,7.02
185,32,7.021
33,15,7.022
-167,7,7.023
-290,7,7.024
-306,1,7.025
-275,-13,7.026
-226,-34,7.027
-144,-52,7.028
-47,-58,7.029
23,-43,7.03
67,-15,7.031
100,6,7.032
91,11,7.033
16,10,7.034
-54,14,7.035
-48,19,7.036
-3,10,7.037
0,-5,7.038
-29,-21,7.039
-20,-41,7.04
29,-58,7.041
67,-61,7.042
80,-42,7.043
84,-14,7.044
87,3,7.045
101,9,7.046
147,14,7.047
191,19,7.048
158,15,7.049
46,11,7.05
-54,18,7.051
-75,38,7.052
-38,52,7.053
13,40,7.054
51,13,7.055
42,-1,7.056
-23,5,7.057
-103,23,7.058
-148,32,7.059
-151,31,7.06
-134,22,7.061
-93,4,7.062
-32,-14,7.063
-5,-23,7.064
-46,-20,7.065
-105,-14,7.066
-105,-16,7.067
-39,-16,7.068
47,-11,7.069
116,-8,7.07
157,-12,7.071
175,-15,7.072
188,-5,7.073
208,7,7.074
208,11,7.075
139,10,7.076
10,16,7.077
-99,31,7.078
-117,37,7.079
-52,30,7.08
37,18,7.081
89,7,7.082
63,1,7.083
-34,3,7.084
-127,10,7.085
-145,5,7.086
-104,-18,7.087
-83,-39,7.088
-113,-33,7.089
-155,-12,7.09
-181,-2,7.091
-201,-2,7.092
-200,-3,7.093
-149,-26,7.094
-46,-69,7.095
63,-95,7.096
144,-73,7.097
185,-27,7.098
160,-10,7.099
72,-19,7.1
-8,-15,7.101
-17,6,7.102
22,13,7.103
36,-6,7.104
15,-27,7.105
9,-26,7.106
36,-3,7.107
82,28,7.108
130,41,7.109
164,22,7.11
164,-10,7.111
137,-14,7.112
117,12,7.113
97,31,7.114
56,17,7.115
6,4,7.116
0,18,7.117
37,44,7.118
55,54,7.119
23,59,7.12
-18,67,7.121
-29,48,7.122
-43,-16,7.123
-104,-87,7.124
-196,-107,7.125
-246,-77,7.126
-212,-45,7.127
-128,-41,7.128
-61,-62,7.129
-42,-94,7.13
-46,-121,7.131
-51,-115,7.132
-63,-73,7.133
-73,-34,7.134
-46,-18,7.135
-3,8,7.136
85,64,7.137
183,116,7.138
312,157,7.139
395,195,7.14
339,225,7.141
246,258,7.142
40,302,7.143
-110,323,7.144
-96,277,7.145
-108,224,7.146
-197,147,7.147
-252,78,7.148
-202,36,7.149
-150,-9,7.15
-94,-67,7.151
-44,-126,7.152
-14,-184,7.153
10,-237,7.154
6,-257,7.155
11,-251,7.156
45,-223,7.157
84,-181,7.158
93,-142,7.159
83,-101,7.16
111,-53,7.161
203,-5,7.162
296,27,7.163
279,39,7.164
127,42,7.165
-74,30,7.166
-227,-3,7.167
-310,-48,7.168
-324,-95,7.169
-255,-141,7.17
-123,-180,7.171
5,-187,7.172
94,-151,7.173
162,-95,7.174
176,-66,7.175
71,-64,7.176
-102,-50,7.177
-173,-8,7.178
-70,31,7.179
79,53,7.18
152,89,7.181
162,154,7.182
157,216,7.183
108,247,7.184
13,252,7.185
-51,243,7.186
-65,209,7.187
-114,141,7.188
-219,62,7.189
-277,-7,7.19
-227,-56,7.191
-135,-73,7.192
-60,-51,7.193
26,-24,7.194
107,-34,7.195
106,-73,7.196
49,-93,7.197
62,-76,7.198
166,-57,7.199
234,-57,7.2
193,-54,7.201
121,-33,7.202
94,-17,7.203
92,-19,7.204
84,-15,7.205
77,15,7.206
56,55,7.207
2,73,7.208
-32,57,7.209
23,34,7.21
117,24,7.211
110,23,7.212
-17,9,7.213
-167,-31,7.214
-225,-79,7.215
-185,-117,7.216
-116,-144,7.217
-67,-164,7.218
-66,-178,7.219
-110,-186,7.22
-160,-180,7.221
-158,-153,7.222
-99,-88,7.223
-31,2,7.224
11,84,7.225
43,140,7.226
82,171,7.227
108,184,7.228
91,179,7.229
35,162,7.23
-18,157,7.231
-43,164,7.232
-38,158,7.233
-15,109,7.234
24,34,7.235
64,-25,7.236
70,-46,7.237
43,-37,7.238
27,-27,7.239
41,-48,7.24
53,-107,7.241
46,-179,7.242
67,-223,7.243
135,-224,7.244
176,-194,7.245
124,-162,7.246
17,-139,7.247
-59,-114,7.248
-92,-71,7.249
-111,-6,7.25
-123,75,7.251
-119,162,7.252
-109,242,7.253
208,211,7.254
208,246,7.255
184,268,7.256
101,252,7.257
33,230,7.258
-1,193,7.259
-25,155,7.26
-7,114,7.261
9,77,7.262
17,54,7.263
31,21,7.264
53,-33,7.265
61,-83,7.266
25,-122,7.267
-15,-145,7.268
-63,-103,7.269
-97,-67,7.27
-84,-41,7.271
-28,-16,7.272
152,10,7.273
276,172,7.274
276,198,7.275
242,214,7.276
127,203,7.277
31,186,7.278
-17,159,7.279
-51,130,7.28
-25,100,7.281
-2,73,7.282
9,56,7.283
27,31,7.284
60,-9,7.285
71,-46,7.286
20,-75,7.287
-36,-92,7.288
-103,-61,7.289
-151,-34,7.29
-133,-15,7.291
-55,4,7.292
198,23,7.293
102,155,7.294
102,177,7.295
93,191,7.296
62,181,7.297
36,167,7.298
23,144,7.299
14,120,7.3
21,94,7.301
27,71,7.302
30,56,7.303
35,35,7.304
44,1,7.305
47,-30,7.306
33,-55,7.307
18,-69,7.308
0,-43,7.309
-13,-20,7.31
-8,-4,7.311
13,12,7.312
81,28,7.313
144,44,7.314
158,55,7.315
89,61,7.316
-36,63,7.317
-139,63,7.318
-159,41,7.319
-118,-10,7.32
-98,-75,7.321
-128,-137,7.322
-153,-177,7.323
-125,-190,7.324
-76,-184,7.325
-61,-164,7.326
-70,-125,7.327
-49,-72,7.328
17,-36,7.329
76,-42,7.33
81,-67,7.331
47,-73,7.332
11,-52,7.333
-4,-26,7.334
4,-2,7.335
20,24,7.336
37,55,7.337
51,89,7.338
65,115,7.339
70,131,7.34
54,137,7.341
20,129,7.342
-3,107,7.343
11,79,7.344
62,61,7.345
120,55,7.346
170,54,7.347
210,40,7.348
222,10,7.349
164,-17,7.35
28,-27,7.351
-118,-21,7.352
-191,-18,7.353
-194,-43,7.354
-185,-93,7.355
-199,-143,7.356
-204,-167,7.357
-171,-160,7.358
-106,-147,7.359
-39,-135,7.36
5,-98,7.361
9,-30,7.362
-17,32,7.363
-16,57,7.364
41,56,7.365
103,65,7.366
98,84,7.367
40,90,7.368
0,82,7.369
2,68,7.37
19,58,7.371
34,54,7.372
60,55,7.373
84,62,7.374
74,70,7.375
29,83,7.376
-8,92,7.377
-15,79,7.378
-10,37,7.379
-10,-4,7.38
-4,-15,7.381
6,-7,7.382
10,-15,7.383
4,-33,7.384
13,-39,7.385
36,-39,7.386
48,-54,7.387
36,-75,7.388
17,-74,7.389
21,-52,7.39
54,-40,7.391
90,-38,7.392
96,-31,7.393
53,-15,7.394
-26,-2,7.395
-100,8,7.396
-135,24,7.397
-127,41,7.398
-89,39,7.399
-42,16,7.4
-8,-14,7.401
8,-44,7.402
19,-74,7.403
35,-93,7.404
43,-89,7.405
26,-73,7.406
5,-63,7.407
10,-54,7.408
32,-29,7.409
27,18,7.41
-16,60,7.411
-61,66,7.412
-74,38,7.413
-70,-7,7.414
-76,-33,7.415
-96,-39,7.416
-95,-37,7.417
-56,-21,7.418
2,14,7.419
42,56,7.42
61,85,7.421
86,96,7.422
125,97,7.423
154,98,7.424
143,100,7.425
112,102,7.426
94,88,7.427
90,49,7.428
71,-1,7.429
21,-28,7.43
-37,-32,7.431
-75,-34,7.432
-78,-43,7.433
-47,-47,7.434
11,-36,7.435
65,-26,7.436
79,-20,7.437
46,-13,7.438
3,-3,7.439
-32,1,7.44
-78,-11,7.441
-145,-29,7.442
-195,-61,7.443
-194,-89,7.444
-156,-107,7.445
-102,-110,7.446
-17,-64,7.447
89,-29,7.448
166,-33,7.449
175,-29,7.45
147,0,7.451
111,23,7.452
49,29,7.453
-66,31,7.454
-166,25,7.455
-178,26,7.456
-124,11,7.457
-71,-14,7.458
-29,-37,7.459
31,-47,7.46
82,-48,7.461
76,-43,7.462
32,-25,7.463
24,-6,7.464
61,-4,7.465
86,-18,7.466
69,-26,7.467
51,-18,7.468
61,-5,7.469
74,7,7.47
64,19,7.471
39,29,7.472
20,29,7.473
7,22,7.474
-6,22,7.475
-18,35,7.476
-21,36,7.477
-15,27,7.478
-4,26,7.479
8,47,7.48
16,69,7.481
20,68,7.482
26,47,7.483
28,32,7.484
22,27,7.485
10,15,7.486
1,-3,7.487
1,-14,7.488
2,-20,7.489
0,-31,7.49
-1,-44,7.491
4,-42,7.492
11,-26,7.493
11,-15,7.494
0,-18,7.495
-25,-29,7.496
-51,-38,7.497
-48,-37,7.498
4,-35,7.499
89,-28,7.5
156,-14,7.501
157,3,7.502
89,13,7.503
-14,8,7.504
-108,-8,7.505
-169,-24,7.506
-193,-28,7.507
-187,-17,7.508
-158,0,7.509
-117,14,7.51
-75,21,7.511
-28,31,7.512
16,47,7.513
52,63,7.514
69,59,7.515
81,55,7.516
94,51,7.517
90,49,7.518
57,53,7.519
12,58,7.52
-18,63,7.521
-34,67,7.522
-52,70,7.523
-66,69,7.524
-65,54,7.525
-56,43,7.526
-51,49,7.527
-38,54,7.528
-12,52,7.529
11,50,7.53
9,48,7.531
-1,47,7.532
3,55,7.533
24,61,7.534
57,55,7.535
83,46,7.536
87,41,7.537
77,43,7.538
25,43,7.539
-9,39,7.54
16,35,7.541
29,32,7.542
1,21,7.543
-21,2,7.544
-22,-18,7.545
-26,-32,7.546
-35,-41,7.547
-43,-46,7.548
-43,-46,7.549
-40,-47,7.55
-32,-46,7.551
-23,-41,7.552
-15,-25,7.553
-9,-9,7.554
-16,3,7.555
-20,12,7.556
-9,20,7.557
2,27,7.558
11,25,7.559
21,15,7.56
26,6,7.561
16,7,7.562
0,13,7.563
2,12,7.564
20,1,7.565
21,-17,7.566
4,-29,7.567
-5,-28,7.568
12,-22,7.569
36,-19,7.57
43,-22,7.571
32,-19,7.572
26,-6,7.573
24,0,7.574
8,-1,7.575
-14,-7,7.576
-51,-23,7.577
-73,-40,7.578
-46,-60,7.579
-26,-76,7.58
-25,-84,7.581
-20,-87,7.582
-6,-76,7.583
5,-64,7.584
5,-53,7.585
12,-41,7.586
39,-25,7.587
65,-12,7.588
87,-7,7.589
99,-5,7.59
77,-14,7.591
52,-23,7.592
18,-27,7.593
-22,-28,7.594
-84,-18,7.595
-132,-17,7.596
-142,-25,7.597
-119,-29,7.598
-86,-29,7.599
-58,-30,7.6
-33,-37,7.601
0,-38,7.602
31,-25,7.603
42,-11,7.604
32,-7,7.605
42,-11,7.606
108,-7,7.607
204,6,7.608
249,24,7.609
196,27,7.61
74,15,7.611
-41,-1,7.612
-95,-9,7.613
-102,-12,7.614
-85,-12,7.615
-64,-20,7.616
-36,-42,7.617
-5,-59,7.618
21,-54,7.619
31,-24,7.62
25,4,7.621
18,10,7.622
23,0,7.623
47,-7,7.624
66,-5,7.625
55,-3,7.626
10,-5,7.627
-39,-3,7.628
-64,0,7.629
-56,-4,7.63
-25,-11,7.631
15,-11,7.632
47,2,7.633
51,14,7.634
16,14,7.635
-38,0,7.636
-73,-24,7.637
-73,-52,7.638
-53,-73,7.639
-40,-66,7.64
-30,-25,7.641
-1,18,7.642
41,35,7.643
62,29,7.644
42,21,7.645
18,24,7.646
25,28,7.647
46,24,7.648
42,17,7.649
18,16,7.65
7,13,7.651
18,6,7.652
29,1,7.653
33,0,7.654
44,6,7.655
54,11,7.656
45,11,7.657
20,11,7.658
0,9,7.659
-6,5,7.66
-17,4,7.661
-34,6,7.662
-35,1,7.663
-19,-8,7.664
-12,-18,7.665
-30,-27,7.666
-50,-29,7.667
-45,-19,7.668
-24,4,7.669
-13,26,7.67
-16,26,7.671
-14,10,7.672
1,3,7.673
21,5,7.674
34,6,7.675
41,1,7.676
44,-3,7.677
41,-3,7.678
33,-6,7.679
32,-6,7.68
37,0,7.681
33,11,7.682
6,11,7.683
-31,4,7.684
-48,5,7.685
-27,13,7.686
23,13,7.687
68,2,7.688
81,-5,7.689
56,0,7.69
35,1,7.691
44,-5,7.692
54,-11,7.693
8,-15,7.694
-91,-17,7.695
-166,-18,7.696
-151,-12,7.697
-73,6,7.698
2,25,7.699
44,31,7.7
56,19,7.701
32,-2,7.702
-14,-22,7.703
-41,-27,7.704
-22,-11,7.705
31,10,7.706
76,18,7.707
80,10,7.708
30,7,7.709
-49,15,7.71
-102,20,7.711
-88,8,7.712
-43,-11,7.713
-21,-30,7.714
-34,-37,7.715
-48,-30,7.716
-30,-18,7.717
3,-9,7.718
32,-10,7.719
51,-15,7.72
59,-10,7.721
59,3,7.722
60,16,7.723
60,16,7.724
50,14,7.725
27,24,7.726
7,42,7.727
5,55,7.728
18,60,7.729
30,63,7.73
35,70,7.731
36,75,7.732
33,77,7.733
39,68,7.734
65,53,7.735
105,32,7.736
132,4,7.737
110,-26,7.738
25,-62,7.739
-87,-89,7.74
-166,-92,7.741
-179,-75,7.742
-162,-59,7.743
-159,-56,7.744
-160,-52,7.745
-123,-32,7.746
-51,-6,7.747
5,4,7.748
28,0,7.749
39,-2,7.75
48,7,7.751
38,16,7.752
19,21,7.753
13,23,7.754
26,27,7.755
31,35,7.756
22,37,7.757
32,36,7.758
76,36,7.759
110,32,7.76
89,20,7.761
39,6,7.762
14,-1,7.763
46,-2,7.764
107,-6,7.765
150,-13,7.766
135,-14,7.767
58,-8,7.768
-44,0,7.769
-111,8,7.77
-121,15,7.771
-102,10,7.772
-94,-14,7.773
-106,-51,7.774
-110,-60,7.775
-90,-37,7.776
-50,-11,7.777
-18,-3,7.778
-1,-8,7.779
5,-5,7.78
17,11,7.781
28,23,7.782
32,20,7.783
27,12,7.784
19,11,7.785
16,10,7.786
11,1,7.787
13,-5,7.788
28,-5,7.789
42,-11,7.79
32,-27,7.791
-2,-39,7.792
-24,-30,7.793
-10,-10,7.794
19,0,7.795
20,-1,7.796
-6,-7,7.797
-22,-2,7.798
-7,3,7.799
13,7,7.8
14,9,7.801
11,10,7.802
37,5,7.803
73,-7,7.804
67,-20,7.805
13,-28,7.806
-42,-28,7.807
-58,-21,7.808
-48,-9,7.809
-39,3,7.81
-35,23,7.811
-24,46,7.812
-4,68,7.813
22,80,7.814
50,83,7.815
72,73,7.816
86,53,7.817
97,34,7.818
102,22,7.819
85,17,7.82
39,14,7.821
-15,0,7.822
-52,-24,7.823
-74,-54,7.824
-95,-75,7.825
-107,-79,7.826
-98,-65,7.827
-73,-45,7.828
-51,-32,7.829
-32,-26,7.83
-15,-16,7.831
-3,2,7.832
4,20,7.833
14,21,7.834
36,12,7.835
58,9,7.836
68,17,7.837
61,30,7.838
39,38,7.839
13,42,7.84
-2,39,7.841
0,34,7.842
14,26,7.843
30,15,7.844
45,3,7.845
54,-8,7.846
44,-12,7.847
21,-14,7.848
-4,-29,7.849
-32,-61,7.85
-75,-92,7.851
-112,-94,7.852
-96,-64,7.853
-43,-23,7.854
-14,-4,7.855
0,-12,7.856
-33,-24,7.857
-52,-17,7.858
-24,-2,7.859
0,6,7.86
10,8,7.861
24,18,7.862
48,27,7.863
61,25,7.864
39,20,7.865
20,28,7.866
10,43,7.867
3,44,7.868
4,30,7.869
10,17,7.87
30,10,7.871
43,3,7.872
31,-3,7.873
19,-9,7.874
27,-10,7.875
41,-8,7.876
37,-4,7.877
15,4,7.878
-2,9,7.879
-9,10,7.88
-18,9,7.881
-34,9,7.882
-39,-1,7.883
-24,-19,7.884
-1,-35,7.885
21,-34,7.886
31,-25,7.887
18,-23,7.888
-21,-31,7.889
-54,-46,7.89
-50,-66,7.891
-10,-73,7.892
20,-52,7.893
16,-16,7.894
-10,15,7.895
-32,26,7.896
-38,28,7.897
-28,40,7.898
-12,51,7.899
-7,54,7.9
-23,55,7.901
-44,58,7.902
-49,53,7.903
-40,39,7.904
-28,32,7.905
-7,40,7.906
35,55,7.907
89,54,7.908
117,44,7.909
96,42,7.91
51,48,7.911
20,49,7.912
15,40,7.913
23,23,7.914
39,6,7.915
50,-14,7.916
47,-42,7.917
37,-64,7.918
4,-65,7.919
-26,-62,7.92
-48,-48,7.921
-66,-39,7.922
-64,-43,7.923
-57,-47,7.924
-33,-50,7.925
-17,-54,7.926
-25,-58,7.927
-26,-55,7.928
-4,-32,7.929
13,-14,7.93
13,-12,7.931
17,-11,7.932
30,-12,7.933
42,-12,7.934
36,-7,7.935
30,-8,7.936
31,-12,7.937
29,-3,7.938
23,11,7.939
32,24,7.94
58,29,7.941
86,28,7.942
98,23,7.943
80,17,7.944
27,16,7.945
-45,17,7.946
-104,16,7.947
-133,8,7.948
-133,0,7.949
-117,-3,7.95
-93,-2,7.951
-71,2,7.952
-50,10,7.953
-17,14,7.954
34,13,7.955
80,11,7.956
91,14,7.957
83,25,7.958
101,32,7.959
146,28,7.96
164,12,7.961
110,-8,7.962
2,-23,7.963
-94,-20,7.964
-121,-7,7.965
-67,-6,7.966
15,-24,7.967
44,-48,7.968
-19,-51,7.969
-122,-35,7.97
-175,-15,7.971
-151,-5,7.972
-108,0,7.973
-87,2,7.974
-76,0,7.975
-48,-1,7.976
-8,0,7.977
15,3,7.978
30,14,7.979
57,22,7.98
85,17,7.981
85,12,7.982
59,9,7.983
44,7,7.984
57,11,7.985
68,13,7.986
58,7,7.987
41,2,7.988
37,0,7.989
41,-1,7.99
42,-5,7.991
37,-7,7.992
37,-3,7.993
45,3,7.994
69,14,7.995
99,26,7.996
113,33,7.997
90,39,7.998
45,34,7.999
0,23,8.0
-43,13,8.001
-86,2,8.002
-114,-15,8.003
-122,-41,8.004
-129,-58,8.005
-147,-54,8.006
-147,-33,8.007
-101,-11,8.008
-42,0,8.009
-11,1,8.01
-3,-2,8.011
13,-3,8.012
38,5,8.013
56,12,8.014
72,14,8.015
95,13,8.016
106,10,8.017
87,7,8.018
56,2,8.019
36,0,8.02
15,9,8.021
-24,22,8.022
-52,22,8.023
-28,3,8.024
38,-26,8.025
94,-53,8.026
96,-67,8.027
46,-57,8.028
-29,-28,8.029
-85,-5,8.03
-91,-5,8.031
-58,-14,8.032
-33,-8,8.033
-35,10,8.034
-35,25,8.035
-19,28,8.036
-13,24,8.037
-33,24,8.038
-39,26,8.039
5,29,8.04
54,26,8.041
41,9,8.042
-16,-14,8.043
-40,-23,8.044
-12,-2,8.045
14,23,8.046
-5,21,8.047
-35,-5,8.048
-35,-27,8.049
-18,-29,8.05
-19,-21,8.051
-27,-9,8.052
-3,3,8.053
56,9,8.054
103,7,8.055
97,8,8.056
60,9,8.057
42,10,8.058
56,7,8.059
71,3,8.06
60,-4,8.061
30,-17,8.062
7,-30,8.063
2,-17,8.064
23,18,8.065
62,43,8.066
98,33,8.067
84,5,8.068
10,-12,8.069
-80,-11,8.07
-128,-9,8.071
-123,-10,8.072
-96,-9,8.073
-79,-6,8.074
-74,-8,8.075
-74,-25,8.076
-66,-42,8.077
-46,-34,8.078
-15,-4,8.079
7,20,8.08
11,22,8.081
7,10,8.082
20,4,8.083
52,13,8.084
94,26,8.085
133,27,8.086
148,19,8.087
114,16,8.088
38,22,8.089
-36,22,8.09
-76,4,8.091
-100,-23,8.092
-126,-38,8.093
-143,-34,8.094
-119,-23,8.095
-54,-15,8.096
22,-16,8.097
74,-10,8.098
93,-2,8.099
84,3,8.1
62,1,8.101
49,-1,8.102
41,-2,8.103
27,-3,8.104
6,-1,8.105
-11,8,8.106
-14,12,8.107
-6,-2,8.108
-1,-17,8.109
-3,-13,8.11
-10,10,8.111
-6,30,8.112
24,30,8.113
73,23,8.114
114,21,8.115
119,12,8.116
90,-10,8.117
26,-27,8.118
-52,-29,8.119
-110,-25,8.12
-117,-27,8.121
-91,-24,8.122
-77,-12,8.123
-80,3,8.124
-72,11,8.125
-48,15,8.126
-21,21,8.127
26,27,8.128
114,27,8.129
203,22,8.13
221,15,8.131
151,6,8.132
51,-3,8.133
-42,-12,8.134
-110,-13,8.135
-152,-8,8.136
-164,-5,8.137
-147,-7,8.138
-114,-14,8.139
-68,-19,8.14
-20,-18,8.141
8,-11,8.142
16,-6,8.143
32,-6,8.144
71,-9,8.145
110,-13,8.146
138,-12,8.147
170,3,8.148
190,30,8.149
142,49,8.15
26,48,8.151
-74,38,8.152
-99,37,8.153
-92,29,8.154
-99,2,8.155
-103,-26,8.156
-94,-58,8.157
-85,-76,8.158
-77,-52,8.159
-64,-29,8.16
-35,-11,8.161
-6,1,8.162
23,-8,8.163
51,-12,8.164
72,0,8.165
85,9,8.166
75,9,8.167
76,10,8.168
112,14,8.169
126,17,8.17
69,17,8.171
10,16,8.172
-52,16,8.173
-106,14,8.174
-119,-3,8.175
-116,-12,8.176
-114,-8,8.177
-103,1,8.178
-55,-4,8.179
18,-26,8.18
62,-42,8.181
44,-35,8.182
5,-15,8.183
3,-3,8.184
42,-8,8.185
84,-18,8.186
102,-19,8.187
90,-15,8.188
46,-8,8.189
-12,1,8.19
-46,17,8.191
-34,30,8.192
-2,35,8.193
18,36,8.194
27,45,8.195
41,51,8.196
53,43,8.197
35,30,8.198
-10,20,8.199
-47,14,8.2
-55,11,8.201
-53,15,8.202
-51,27,8.203
-30,34,8.204
27,27,8.205
83,18,8.206
92,16,8.207
55,17,8.208
16,11,8.209
7,-3,8.21
33,-27,8.211
96,-50,8.212
173,-59,8.213
200,-55,8.214
101,-52,8.215
-105,-61,8.216
-271,-65,8.217
-280,-48,8.218
-163,-24,8.219
-59,-18,8.22
-51,-23,8.221
-100,-24,8.222
-114,-20,8.223
-74,-24,8.224
-35,-36,8.225
-33,-42,8.226
-32,-37,8.227
10,-16,8.228
69,12,8.229
91,34,8.23
85,26,8.231
95,-2,8.232
123,-15,8.233
128,3,8.234
98,46,8.235
69,85,8.236
69,101,8.237
82,96,8.238
86,80,8.239
77,69,8.24
50,75,8.241
7,85,8.242
-38,79,8.243
-81,56,8.244
-129,35,8.245
-180,10,8.246
-211,-44,8.247
-202,-125,8.248
-154,-176,8.249
-69,-165,8.25
41,-117,8.251
143,-75,8.252
205,-47,8.253
228,-8,8.254
220,37,8.255
161,67,8.256
54,70,8.257
-57,59,8.258
-123,35,8.259
-145,-5,8.26
-135,-38,8.261
-82,-32,8.262
1,9,8.263
57,51,8.264
37,67,8.265
-29,63,8.266
-83,57,8.267
-102,52,8.268
-99,43,8.269
-75,25,8.27
-36,-3,8.271
-7,-41,8.272
7,-74,8.273
21,-92,8.274
59,-94,8.275
88,-80,8.276
68,-80,8.277
22,-98,8.278
20,-117,8.279
85,-115,8.28
152,-93,8.281
150,-72,8.282
87,-55,8.283
23,-28,8.284
3,9,8.285
21,44,8.286
38,65,8.287
29,87,8.288
5,118,8.289
4,154,8.29
26,173,8.291
23,169,8.292
-17,151,8.293
-61,125,8.294
-39,100,8.295
24,71,8.296
68,37,8.297
43,16,8.298
-47,15,8.299
-141,22,8.3
-162,14,8.301
-102,-15,8.302
-43,-52,8.303
-38,-75,8.304
-40,-81,8.305
13,-62,8.306
89,-22,8.307
108,22,8.308
56,32,8.309
-19,-6,8.31
-66,-66,8.311
-60,-110,8.312
-14,-120,8.313
11,-111,8.314
-29,-91,8.315
-59,-76,8.316
-60,-81,8.317
-49,-93,8.318
0,-125,8.319
32,-139,8.32
5,-100,8.321
-10,-57,8.322
11,-4,8.323
31,35,8.324
45,33,8.325
67,27,8.326
108,7,8.327
144,-10,8.328
162,-19,8.329
161,-25,8.33
95,-22,8.331
30,-9,8.332
-31,30,8.333
-77,68,8.334
-83,87,8.335
-125,90,8.336
-152,88,8.337
-95,77,8.338
4,57,8.339
65,51,8.34
89,72,8.341
129,97,8.342
143,93,8.343
59,65,8.344
-71,54,8.345
-131,66,8.346
-106,79,8.347
-71,82,8.348
-55,83,8.349
-32,82,8.35
-21,60,8.351
-49,18,8.352
-64,-19,8.353
-8,-49,8.354
49,-72,8.355
-4,-89,8.356
-126,-96,8.357
-163,-80,8.358
-83,-51,8.359
-9,-22,8.36
-8,-5,8.361
-13,-6,8.362
41,-19,8.363
121,-22,8.364
181,-13,8.365
204,-19,8.366
183,-56,8.367
118,-101,8.368
53,-115,8.369
18,-98,8.37
-25,-86,8.371
-100,-96,8.372
-151,-110,8.373
-133,-114,8.374
-80,-96,8.375
-48,-67,8.376
-24,-53,8.377
25,-59,8.378
69,-77,8.379
73,-82,8.38
62,-66,8.381
65,-33,8.382
73,10,8.383
63,71,8.384
52,141,8.385
63,184,8.386
94,182,8.387
143,161,8.388
188,164,8.389
172,193,8.39
65,209,8.391
-77,185,8.392
-161,140,8.393
-194,95,8.394
-226,61,8.395
-252,30,8.396
-211,1,8.397
-111,-19,8.398
-43,-29,8.399
-44,-29,8.4
-57,-23,8.401
-34,-22,8.402
8,-35,8.403
33,-57,8.404
37,-66,8.405
23,-53,8.406
-1,-26,8.407
-13,0,8.408
14,18,8.409
69,19,8.41
133,-8,8.411
208,-46,8.412
278,-60,8.413
282,-40,8.414
168,-15,8.415
-30,-14,8.416
-208,-28,8.417
-289,-33,8.418
-259,-33,8.419
-153,-43,8.42
-22,-61,8.421
82,-73,8.422
136,-71,8.423
143,-53,8.424
114,-34,8.425
60,-29,8.426
0,-32,8.427
-31,-17,8.428
-18,23,8.429
16,53,8.43
32,36,8.431
8,-12,8.432
-37,-51,8.433
-80,-70,8.434
-98,-68,8.435
-87,-48,8.436
-40,-23,8.437
31,-14,8.438
86,-36,8.439
65,-53,8.44
-40,-33,8.441
-151,5,8.442
-181,14,8.443
-125,-21,8.444
-62,-65,8.445
-57,-74,8.446
-94,-37,8.447
-109,32,8.448
-76,112,8.449
0,169,8.45
113,187,8.451
235,183,8.452
306,186,8.453
293,198,8.454
255,204,8.455
226,186,8.456
222,146,8.457
184,107,8.458
47,77,8.459
-57,53,8.46
-61,31,8.461
-76,4,8.462
-125,-24,8.463
-165,-70,8.464
-177,-140,8.465
-182,-215,8.466
-166,-250,8.467
-145,-232,8.468
-113,-198,8.469
-86,-181,8.47
-77,-173,8.471
-59,-146,8.472
-17,-109,8.473
43,-80,8.474
148,-59,8.475
181,-30,8.476
141,-2,8.477
100,12,8.478
107,20,8.479
129,47,8.48
101,98,8.481
24,144,8.482
-27,172,8.483
-6,196,8.484
31,222,8.485
5,216,8.486
-67,150,8.487
-100,47,8.488
-71,-43,8.489
-48,-105,8.49
-68,-144,8.491
-90,-155,8.492
-76,-126,8.493
-43,-73,8.494
-21,-30,8.495
11,-15,8.496
61,-13,8.497
102,2,8.498
105,32,8.499
67,56,8.5
8,62,8.501
-45,51,8.502
-75,41,8.503
-79,57,8.504
-52,94,8.505
-2,112,8.506
40,90,8.507
52,43,8.508
63,2,8.509
118,-42,8.51
181,-94,8.511
171,-130,8.512
94,-131,8.513
28,-116,8.514
2,-106,8.515
-28,-90,8.516
-72,-58,8.517
-99,-31,8.518
-69,-24,8.519
-48,-19,8.52
-52,-20,8.521
-53,-19,8.522
-47,-9,8.523
-46,6,8.524
-60,42,8.525
-59,65,8.526
-10,50,8.527
35,30,8.528
68,-2,8.529
83,-29,8.53
45,-43,8.531
1,-55,8.532
-59,-57,8.533
-96,-53,8.534
-49,-18,8.535
-11,32,8.536
12,76,8.537
56,102,8.538
96,106,8.539
68,103,8.54
-12,96,8.541
-56,82,8.542
-15,70,8.543
68,68,8.544
140,66,8.545
166,42,8.546
123,-3,8.547
39,-46,8.548
1,-75,8.549
45,-96,8.55
77,-109,8.551
4,-99,8.552
-99,-69,8.553
-124,-44,8.554
-70,-35,8.555
-39,-21,8.556
-34,15,8.557
28,58,8.558
98,65,8.559
26,29,8.56
-170,-8,8.561
-275,-13,8.562
-187,0,8.563
-73,-7,8.564
-98,-35,8.565
-191,-51,8.566
-183,-35,8.567
-63,-9,8.568
57,6,8.569
121,21,8.57
158,42,8.571
176,42,8.572
168,0,8.573
141,-77,8.574
120,-136,8.575
97,-151,8.576
53,-135,8.577
10,-107,8.578
4,-81,8.579
26,-53,8.58
29,-5,8.581
0,68,8.582
-32,146,8.583
-42,201,8.584
-35,219,8.585
-31,203,8.586
-32,152,8.587
-23,76,8.588
17,0,8.589
84,-48,8.59
123,-75,8.591
89,-93,8.592
16,-101,8.593
-27,-88,8.594
-16,-43,8.595
-12,32,8.596
-72,114,8.597
-154,170,8.598
-177,166,8.599
-132,111,8.6
-79,49,8.601
-50,7,8.602
-2,-23,8.603
93,-54,8.604
190,-77,8.605
243,-76,8.606
255,-58,8.607
242,-46,8.608
177,-59,8.609
41,-93,8.61
-112,-129,8.611
-187,-144,8.612
-173,-137,8.613
-140,-119,8.614
-142,-90,8.615
-135,-33,8.616
-52,50,8.617
67,125,8.618
103,158,8.619
23,159,8.62
-56,156,8.621
-21,147,8.622
79,118,8.623
103,71,8.624
22,15,8.625
-49,-44,8.626
-23,-103,8.627
36,-156,8.628
40,-184,8.629
7,-176,8.63
14,-132,8.631
64,-72,8.632
112,-23,8.633
123,14,8.634
72,58,8.635
-58,97,8.636
-206,118,8.637
-240,116,8.638
-124,44,8.639
9,-25,8.64
35,-86,8.641
-3,-130,8.642
0,-118,8.643
29,-106,8.644
-3,-92,8.645
-79,-71,8.646
-102,-29,8.647
-48,13,8.648
12,54,8.649
31,95,8.65
41,133,8.651
68,146,8.652
89,79,8.653
81,10,8.654
62,-35,8.655
55,-44,8.656
64,-59,8.657
76,-85,8.658
86,-95,8.659
92,-81,8.66
95,-62,8.661
90,-46,8.662
59,-25,8.663
-1,-4,8.664
-59,5,8.665
-71,2,8.666
-43,-2,8.667
-24,-16,8.668
-39,-44,8.669
-54,-67,8.67
-31,-63,8.671
6,-41,8.672
18,-22,8.673
6,-14,8.674
14,-1,8.675
34,18,8.676
91,31,8.677
126,35,8.678
94,36,8.679
46,40,8.68
-50,51,8.681
-102,65,8.682
-24,73,8.683
35,66,8.684
38,39,8.685
16,0,8.686
-85,-28,8.687
-156,-29,8.688
-134,-9,8.689
-119,1,8.69
-127,-21,8.691
-125,-58,8.692
-90,-62,8.693
-50,-18,8.694
-15,43,8.695
-7,81,8.696
-3,86,8.697
8,84,8.698
17,88,8.699
25,92,8.7
40,99,8.701
56,102,8.702
65,93,8.703
71,77,8.704
73,66,8.705
54,69,8.706
31,80,8.707
31,89,8.708
48,87,8.709
43,76,8.71
19,68,8.711
10,69,8.712
13,75,8.713
-14,67,8.714
-72,53,8.715
-113,43,8.716
-104,49,8.717
-72,52,8.718
-48,42,8.719
-46,29,8.72
-66,11,8.721
-92,1,8.722
-82,13,8.723
-13,22,8.724
72,16,8.725
98,11,8.726
49,7,8.727
-23,3,8.728
-69,2,8.729
-81,4,8.73
-78,18,8.731
-71,28,8.732
-56,22,8.733
-33,12,8.734
0,-2,8.735
41,-13,8.736
80,-32,8.737
93,-46,8.738
73,-46,8.739
48,-35,8.74
45,-30,8.741
51,-25,8.742
41,-12,8.743
20,-3,8.744
16,-11,8.745
38,-25,8.746
54,-27,8.747
42,-21,8.748
11,-24,8.749
-17,-28,8.75
-30,-26,8.751
-26,-27,8.752
-9,-43,8.753
3,-65,8.754
0,-75,8.755
-14,-70,8.756
-17,-64,8.757
-2,-54,8.758
17,-40,8.759
22,-27,8.76
10,-26,8.761
-8,-34,8.762
-18,-48,8.763
-18,-57,8.764
-19,-57,8.765
-26,-48,8.766
-27,-40,8.767
-19,-38,8.768
-6,-33,8.769
2,-16,8.77
14,7,8.771
25,21,8.772
29,18,8.773
26,1,8.774
20,-10,8.775
23,-13,8.776
35,-16,8.777
54,-26,8.778
77,-42,8.779
92,-53,8.78
83,-52,8.781
54,-50,8.782
27,-56,8.783
15,-57,8.784
-6,-44,8.785
-46,-25,8.786
-88,-16,8.787
-103,-14,8.788
-94,-6,8.789
-80,8,8.79
-55,11,8.791
-8,1,8.792
45,-11,8.793
-86,-24,8.794
-34,-30,8.795
14,-31,8.796
33,-15,8.797
47,-2,8.798
47,3,8.799
43,6,8.8
22,-3,8.801
9,-15,8.802
28,-39,8.803
35,-58,8.804
12,-64,8.805
2,-69,8.806
30,-69,8.807
55,-65,8.808
55,-44,8.809
60,-22,8.81
79,0,8.811
79,17,8.812
26,12,8.813
-20,10,8.814
1,23,8.815
21,36,8.816
29,36,8.817
35,27,8.818
35,15,8.819
33,9,8.82
24,15,8.821
19,24,8.822
27,22,8.823
30,13,8.824
20,14,8.825
16,19,8.826
28,14,8.827
38,-1,8.828
38,-10,8.829
40,-10,8.83
48,-9,8.831
48,-13,8.832
26,-13,8.833
7,-8,8.834
10,2,8.835
9,10,8.836
-20,13,8.837
-50,24,8.838
-49,37,8.839
-31,45,8.84
-23,40,8.841
-14,29,8.842
10,18,8.843
28,11,8.844
15,3,8.845
-11,-8,8.846
-20,-16,8.847
-15,-16,8.848
-20,-12,8.849
-34,-14,8.85
-40,-21,8.851
-36,-25,8.852
-28,-20,8.853
-16,-13,8.854
3,-3,8.855
13,8,8.856
7,20,8.857
2,33,8.858
14,37,8.859
25,30,8.86
23,19,8.861
24,17,8.862
41,22,8.863
56,26,8.864
44,27,8.865
17,27,8.866
-9,24,8.867
-42,12,8.868
-80,0,8.869
-74,-12,8.87
8,-25,8.871
129,-41,8.872
208,-48,8.873
217,-39,8.874
175,-17,8.875
98,0,8.876
-9,6,8.877
-125,10,8.878
-202,15,8.879
-224,9,8.88
-208,-7,8.881
-171,-18,8.882
-104,-9,8.883
-27,9,8.884
9,23,8.885
-4,23,8.886
-21,16,8.887
0,10,8.888
34,4,8.889
43,-4,8.89
34,-13,8.891
30,-14,8.892
27,-3,8.893
13,8,8.894
9,13,8.895
28,16,8.896
63,14,8.897
85,13,8.898
90,16,8.899
82,19,8.9
58,19,8.901
26,18,8.902
5,16,8.903
-2,11,8.904
-16,-2,8.905
-42,-11,8.906
-52,-2,8.907
-31,4,8.908
-3,0,8.909
3,-5,8.91
-2,-10,8.911
1,-17,8.912
14,-25,8.913
18,-30,8.914
11,-14,8.915
5,4,8.916
10,15,8.917
21,28,8.918
30,43,8.919
25,51,8.92
-4,46,8.921
-37,36,8.922
-42,27,8.923
-12,13,8.924
26,-8,8.925
42,-26,8.926
26,-36,8.927
-20,-41,8.928
-70,-51,8.929
-79,-59,8.93
-31,-50,8.931
30,-28,8.932
61,-10,8.933
71,-9,8.934
88,-6,8.935
95,9,8.936
58,31,8.937
-6,57,8.938
-43,77,8.939
-50,83,8.94
-63,68,8.941
-82,37,8.942
-57,6,8.943
45,-8,8.944
195,-10,8.945
292,-11,8.946
230,-16,8.947
6,-21,8.948
-227,-18,8.949
-313,-11,8.95
-258,-9,8.951
-183,-20,8.952
-142,-45,8.953
-91,-76,8.954
-27,-111,8.955
-17,-113,8.956
-60,-76,8.957
-71,-13,8.958
-20,38,8.959
27,60,8.96
44,60,8.961
79,53,8.962
147,44,8.963
174,32,8.964
109,24,8.965
8,21,8.966
-51,20,8.967
-59,15,8.968
-44,9,8.969
-16,3,8.97
22,-1,8.971
55,-1,8.972
70,1,8.973
60,2,8.974
42,2,8.975
35,9,8.976
49,16,8.977
69,19,8.978
65,14,8.979
33,5,8.98
2,0,8.981
3,-3,8.982
25,-9,8.983
29,-23,8.984
4,-43,8.985
-19,-54,8.986
-12,-37,8.987
11,-1,8.988
15,23,8.989
-4,17,8.99
-14,4,8.991
-3,7,8.992
10,19,8.993
11,22,8.994
6,16,8.995
-4,15,8.996
-26,18,8.997
-52,14,8.998
-49,0,8.999
-9,-11,9.0
33,-14,9.001
46,-12,9.002
39,-14,9.003
39,-13,9.004
41,-7,9.005
30,-2,9.006
10,-8,9.007
-10,-16,9.008
-26,-16,9.009
-35,-6,9.01
-19,2,9.011
16,1,9.012
46,-6,9.013
57,-15,9.014
59,-19,9.015
58,-20,9.016
45,-25,9.017
20,-25,9.018
-9,-15,9.019
-52,1,9.02
-124,13,9.021
-191,10,9.022
-205,-4,9.023
-173,-18,9.024
-147,-22,9.025
-134,-14,9.026
-96,-4,9.027
-28,2,9.028
24,4,9.029
43,9,9.03
58,24,9.031
86,35,9.032
101,34,9.033
90,20,9.034
67,3,9.035
49,1,9.036
40,8,9.037
42,15,9.038
63,18,9.039
78,18,9.04
45,17,9.041
-16,14,9.042
-49,7,9.043
-39,5,9.044
-22,10,9.045
-12,16,9.046
16,10,9.047
52,-4,9.048
64,-20,9.049
53,-25,9.05
53,-23,9.051
62,-19,9.052
51,-17,9.053
13,-19,9.054
-4,-19,9.055
-5,-15,9.056
-18,-11,9.057
-34,-11,9.058
-21,-12,9.059
15,-11,9.06
39,-4,9.061
45,1,9.062
53,1,9.063
55,-3,9.064
25,-2,9.065
-25,2,9.066
-51,2,9.067
-38,-3,9.068
-20,-4,9.069
-16,5,9.07
-12,15,9.071
4,18,9.072
21,18,9.073
29,21,9.074
31,24,9.075
19,15,9.076
-15,-3,9.077
-50,-11,9.078
-52,-8,9.079
-24,1,9.08
8,5,9.081
25,-1,9.082
22,-11,9.083
-4,-15,9.084
-37,-9,9.085
-47,2,9.086
-37,7,9.087
-55,3,9.088
-107,-1,9.089
-132,-4,9.09
-98,-9,9.091
-49,-19,9.092
-31,-23,9.093
-29,-19,9.094
-10,-11,9.095
13,-3,9.096
34,0,9.097
77,2,9.098
140,2,9.099
164,2,9.1
125,8,9.101
77,17,9.102
69,22,9.103
73,22,9.104
39,17,9.105
-9,5,9.106
-24,-13,9.107
-2,-26,9.108
37,-20,9.109
69,2,9.11
68,30,9.111
22,45,9.112
-25,42,9.113
-20,19,9.114
25,-7,9.115
24,-19,9.116
-58,-15,9.117
-154,-5,9.118
-184,-3,9.119
-159,-10,9.12
-120,-19,9.121
-74,-23,9.122
-14,-23,9.123
38,-16,9.124
68,-10,9.125
86,-9,9.126
90,-13,9.127
55,-10,9.128
-9,4,9.129
-43,19,9.13
-23,23,9.131
12,13,9.132
25,6,9.133
34,0,9.134
66,-3,9.135
95,0,9.136
90,6,9.137
65,11,9.138
46,8,9.139
27,0,9.14
-14,-12,9.141
-65,-21,9.142
-92,-26,9.143
-93,-25,9.144
-76,-13,9.145
-35,2,9.146
30,16,9.147
90,24,9.148
109,28,9.149
85,25,9.15
54,14,9.151
42,2,9.152
47,-3,9.153
51,-1,9.154
28,7,9.155
-34,12,9.156
-112,10,9.157
-155,10,9.158
-133,7,9.159
-57,-11,9.16
39,-40,9.161
119,-57,9.162
127,-45,9.163
39,-16,9.164
-84,3,9.165
-145,7,9.166
-122,7,9.167
-89,7,9.168
-90,7,9.169
-89,2,9.17
-57,-1,9.171
-23,2,9.172
-8,4,9.173
22,4,9.174
75,8,9.175
102,12,9.176
74,9,9.177
33,6,9.178
23,7,9.179
30,9,9.18
28,6,9.181
31,-4,9.182
48,-13,9.183
53,-18,9.184
36,-16,9.185
24,-10,9.186
39,0,9.187
62,12,9.188
89,17,9.189
128,16,9.19
150,19,9.191
103,25,9.192
8,27,9.193
-72,11,9.194
-93,-6,9.195
-87,-23,9.196
-91,-35,9.197
-90,-43,9.198
-72,-37,9.199
-57,-30,9.2
-46,-16,9.201
-6,-3,9.202
62,9,9.203
101,20,9.204
84,28,9.205
51,37,9.206
34,45,9.207
8,46,9.208
-48,27,9.209
-92,5,9.21
-96,-24,9.211
-94,-51,9.212
-119,-64,9.213
-151,-71,9.214
-126,-50,9.215
-44,-29,9.216
38,-19,9.217
74,-10,9.218
74,-1,9.219
65,3,9.22
49,4,9.221
27,9,9.222
-1,19,9.223
-17,18,9.224
-18,4,9.225
-7,-5,9.226
7,0,9.227
25,6,9.228
45,5,9.229
74,5,9.23
104,17,9.231
111,31,9.232
84,33,9.233
29,23,9.234
-22,13,9.235
-41,9,9.236
-22,2,9.237
17,-4,9.238
44,-7,9.239
39,-5,9.24
36,7,9.241
63,27,9.242
95,41,9.243
81,36,9.244
25,15,9.245
-21,-10,9.246
-46,-25,9.247
-86,-39,9.248
-139,-62,9.249
-156,-87,9.25
-111,-92,9.251
-45,-64,9.252
-1,-28,9.253
13,-7,9.254
-5,-2,9.255
-63,8,9.256
-119,26,9.257
-106,45,9.258
-28,47,9.259
42,34,9.26
56,19,9.261
59,19,9.262
95,35,9.263
137,57,9.264
138,62,9.265
114,47,9.266
115,34,9.267
148,33,9.268
177,33,9.269
179,19,9.27
138,5,9.271
32,5,9.272
-107,11,9.273
-217,-2,9.274
-213,-35,9.275
-126,-75,9.276
-59,-104,9.277
-58,-108,9.278
-81,-90,9.279
-94,-62,9.28
-119,-41,9.281
-162,-30,9.282
-174,-22,9.283
-121,-16,9.284
-47,-22,9.285
-10,-33,9.286
1,-30,9.287
27,-6,9.288
59,23,9.289
61,35,9.29
35,34,9.291
19,32,9.292
20,33,9.293
17,28,9.294
26,22,9.295
71,27,9.296
118,35,9.297
89,40,9.298
-7,38,9.299
-62,40,9.3
-8,52,9.301
97,60,9.302
193,47,9.303
295,14,9.304
389,-16,9.305
361,-31,9.306
151,-32,9.307
-90,-24,9.308
-159,0,9.309
-46,29,9.31
67,43,9.311
41,29,9.312
-91,1,9.313
-251,-21,9.314
-353,-28,9.315
-368,-23,9.316
-306,-24,9.317
-211,-32,9.318
-121,-51,9.319
-48,-69,9.32
9,-71,9.321
51,-50,9.322
81,-22,9.323
94,2,9.324
77,21,9.325
26,37,9.326
-23,44,9.327
-17,40,9.328
30,36,9.329
72,41,9.33
87,50,9.331
96,50,9.332
113,40,9.333
121,19,9.334
101,2,9.335
57,-3,9.336
13,-5,9.337
-2,-6,9.338
43,-16,9.339
132,-32,9.34
179,-41,9.341
111,-45,9.342
-16,-52,9.343
-74,-54,9.344
-36,-33,9.345
-5,10,9.346
-45,44,9.347
-93,41,9.348
-76,13,9.349
-32,-10,9.35
-34,-16,9.351
-83,0,9.352
-125,30,9.353
-139,60,9.354
-108,66,9.355
-42,50,9.356
13,38,9.357
16,48,9.358
-5,60,9.359
2,58,9.36
30,52,9.361
39,43,9.362
57,11,9.363
130,-51,9.364
213,-104,9.365
209,-120,9.366
110,-119,9.367
6,-124,9.368
-35,-118,9.369
-28,-81,9.37
5,-36,9.371
52,-10,9.372
85,5,9.373
73,36,9.374
15,67,9.375
-64,68,9.376
-134,39,9.377
-175,16,9.378
-184,14,9.379
-182,14,9.38
-176,1,9.381
-139,-31,9.382
-56,-72,9.383
17,-99,9.384
14,-87,9.385
-40,-40,9.386
-55,2,9.387
3,16,9.388
83,15,9.389
132,25,9.39
154,38,9.391
162,42,9.392
142,43,9.393
73,57,9.394
-10,75,9.395
-70,64,9.396
-58,9,9.397
-34,-44,9.398
27,-57,9.399
61,-36,9.4
13,-27,9.401
-18,-39,9.402
6,-53,9.403
34,-58,9.404
71,-66,9.405
104,-73,9.406
120,-50,9.407
128,1,9.408
110,42,9.409
62,51,9.41
-72,52,9.411
-173,61,9.412
-169,64,9.413
-156,43,9.414
-140,23,9.415
-142,22,9.416
-132,25,9.417
-102,11,9.418
-44,-7,9.419
62,-15,9.42
187,-19,9.421
241,-31,9.422
165,-41,9.423
20,-22,9.424
-86,20,9.425
-109,53,9.426
-70,55,9.427
6,43,9.428
80,49,9.429
101,82,9.43
61,127,9.431
20,160,9.432
21,164,9.433
26,126,9.434
5,66,9.435
8,9,9.436
92,-36,9.437
194,-64,9.438
177,-74,9.439
17,-58,9.44
-140,-39,9.441
-135,-48,9.442
16,-91,9.443
126,-129,9.444
44,-133,9.445
-160,-105,9.446
-280,-75,9.447
-220,-60,9.448
-85,-57,9.449
-30,-64,9.45
-67,-72,9.451
-88,-70,9.452
-31,-49,9.453
52,-22,9.454
122,7,9.455
109,26,9.456
45,11,9.457
-3,0,9.458
-3,1,9.459
22,0,9.46
33,-9,9.461
21,-17,9.462
3,-14,9.463
-4,-12,9.464
10,-14,9.465
68,-14,9.466
160,0,9.467
224,21,9.468
190,66,9.469
70,106,9.47
-53,131,9.471
-112,140,9.472
-113,97,9.473
-98,48,9.474
-98,7,9.475
-98,-1,9.476
-73,7,9.477
-20,11,9.478
23,3,9.479
20,-10,9.48
-6,-20,9.481
-4,-15,9.482
24,8,9.483
18,40,9.484
-43,57,9.485
-77,49,9.486
-15,23,9.487
104,-11,9.488
176,-47,9.489
155,-71,9.49
80,-73,9.491
5,-64,9.492
-44,-53,9.493
-56,-38,9.494
-23,-13,9.495
30,7,9.496
40,5,9.497
-24,-1,9.498
-124,13,9.499
-180,37,9.5
-165,36,9.501
-117,-1,9.502
-81,-52,9.503
-46,-82,9.504
29,-73,9.505
138,-35,9.506
210,3,9.507
191,7,9.508
118,-25,9.509
74,-60,9.51
87,-70,9.511
124,-59,9.512
154,-47,9.513
153,-44,9.514
83,-42,9.515
-78,-43,9.516
-235,-43,9.517
-257,-22,9.518
-144,33,9.519
-41,112,9.52
-34,183,9.521
-44,202,9.522
16,147,9.523
92,56,9.524
83,0,9.525
10,17,9.526
-37,59,9.527
-65,67,9.528
-146,40,9.529
-266,23,9.53
-309,27,9.531
-236,21,9.532
-145,-11,9.533
-103,-71,9.534
-60,-134,9.535
38,-176,9.536
140,-183,9.537
157,-156,9.538
108,-122,9.539
83,-97,9.54
106,-66,9.541
129,-6,9.542
126,78,9.543
112,155,9.544
94,195,9.545
68,185,9.546
53,136,9.547
65,73,9.548
87,17,9.549
96,-31,9.55
100,-65,9.551
106,-63,9.552
104,-17,9.553
79,41,9.554
49,59,9.555
29,30,9.556
0,-7,9.557
-47,-13,9.558
-76,-8,9.559
-48,-23,9.56
7,-63,9.561
24,-94,9.562
-8,-88,9.563
-31,-45,9.564
-6,9,9.565
27,54,9.566
1,83,9.567
-78,96,9.568
-136,94,9.569
-121,87,9.57
-61,77,9.571
-11,61,9.572
12,33,9.573
22,-8,9.574
23,-46,9.575
-2,-75,9.576
-42,-104,9.577
-64,-126,9.578
-49,-129,9.579
-15,-111,9.58
10,-79,9.581
18,-36,9.582
25,19,9.583
47,68,9.584
87,88,9.585
127,77,9.586
137,59,9.587
95,44,9.588
8,20,9.589
-79,-18,9.59
-112,-51,9.591
-83,-61,9.592
-41,-47,9.593
-25,-21,9.594
-31,9,9.595
