Deltoid,Bicep,Time
9,-3,0.0
8,-1,0.001
5,4,0.002
4,6,0.003
7,3,0.004
9,2,0.005
5,4,0.006
1,4,0.007
0,0,0.008
0,-4,0.009
-4,-3,0.01
-11,1,0.011
-13,1,0.012
-6,1,0.013
3,1,0.014
10,3,0.015
10,1,0.016
6,-4,0.017
7,-5,0.018
15,0,0.019
21,2,0.02
11,2,0.021
-9,2,0.022
-16,4,0.023
-2,1,0.024
12,-4,0.025
10,-7,0.026
-1,-7,0.027
-4,-6,0.028
0,-4,0.029
1,-3,0.03
-3,-3,0.031
-3,-4,0.032
1,-6,0.033
2,-8,0.034
0,-7,0.035
-1,-4,0.036
-2,-6,0.037
-3,-7,0.038
-2,-6,0.039
2,-4,0.04
5,-2,0.041
3,2,0.042
0,2,0.043
5,0,0.044
10,-3,0.045
9,-1,0.046
7,2,0.047
8,-2,0.048
10,-7,0.049
9,-6,0.05
5,-1,0.051
6,2,0.052
9,3,0.053
7,1,0.054
3,-1,0.055
-3,-5,0.056
-5,-9,0.057
-4,-7,0.058
2,-2,0.059
11,2,0.06
12,3,0.061
5,2,0.062
0,2,0.063
1,0,0.064
8,1,0.065
7,2,0.066
0,2,0.067
-3,0,0.068
0,-3,0.069
2,-2,0.07
0,0,0.071
0,0,0.072
4,2,0.073
6,2,0.074
2,1,0.075
-5,0,0.076
-9,-2,0.077
-5,-2,0.078
0,-4,0.079
3,-2,0.08
1,5,0.081
-3,10,0.082
-3,8,0.083
0,2,0.084
4,2,0.085
4,4,0.086
5,5,0.087
7,3,0.088
6,1,0.089
0,0,0.09
-3,-3,0.091
-1,-6,0.092
3,-3,0.093
5,-1,0.094
4,-2,0.095
2,-3,0.096
-1,-5,0.097
-3,-4,0.098
0,-4,0.099
6,-3,0.1
9,1,0.101
5,5,0.102
2,4,0.103
6,1,0.104
8,0,0.105
2,2,0.106
-1,3,0.107
3,2,0.108
8,1,0.109
5,-1,0.11
3,-5,0.111
5,-6,0.112
10,-2,0.113
9,0,0.114
3,-2,0.115
-3,-6,0.116
-5,-10,0.117
-3,-7,0.118
1,0,0.119
7,2,0.12
6,1,0.121
2,3,0.122
2,4,0.123
2,2,0.124
2,-2,0.125
0,-2,0.126
-1,-2,0.127
2,-1,0.128
5,-2,0.129
5,-2,0.13
2,-1,0.131
2,-1,0.132
3,0,0.133
5,-1,0.134
9,-3,0.135
9,-6,0.136
3,-7,0.137
-2,-4,0.138
0,0,0.139
7,-1,0.14
14,-3,0.141
17,-3,0.142
18,-2,0.143
9,-1,0.144
-14,0,0.145
-40,1,0.146
-49,4,0.147
-31,2,0.148
-6,0,0.149
11,0,0.15
13,0,0.151
10,-2,0.152
12,-2,0.153
15,-4,0.154
21,-3,0.155
23,-4,0.156
16,-7,0.157
3,-6,0.158
-1,0,0.159
6,3,0.16
13,6,0.161
8,7,0.162
4,6,0.163
6,1,0.164
9,-1,0.165
8,0,0.166
6,1,0.167
3,-1,0.168
0,-5,0.169
-3,-3,0.17
-3,1,0.171
1,1,0.172
5,-1,0.173
3,-2,0.174
0,0,0.175
-3,0,0.176
-7,-7,0.177
-8,-9,0.178
0,-5,0.179
11,0,0.18
12,5,0.181
2,7,0.182
-3,6,0.183
2,5,0.184
6,5,0.185
4,5,0.186
0,3,0.187
-1,-1,0.188
-3,-4,0.189
-8,-5,0.19
-10,-4,0.191
-7,-5,0.192
-3,-5,0.193
-1,-5,0.194
0,-5,0.195
1,-4,0.196
-2,-6,0.197
-6,-5,0.198
-5,-1,0.199
2,1,0.2
7,3,0.201
4,4,0.202
2,3,0.203
7,1,0.204
12,0,0.205
8,0,0.206
3,0,0.207
5,-1,0.208
10,-2,0.209
10,0,0.21
5,0,0.211
5,-1,0.212
8,-2,0.213
7,-3,0.214
4,-2,0.215
0,-2,0.216
-3,-6,0.217
-5,-7,0.218
0,-5,0.219
9,-2,0.22
13,1,0.221
9,4,0.222
3,6,0.223
3,4,0.224
4,0,0.225
2,0,0.226
0,2,0.227
4,2,0.228
8,-1,0.229
7,-4,0.23
0,-3,0.231
-2,-1,0.232
1,0,0.233
3,-4,0.234
6,-4,0.235
4,-2,0.236
-2,-3,0.237
-8,-1,0.238
-6,1,0.239
1,4,0.24
5,6,0.241
2,5,0.242
3,3,0.243
9,0,0.244
11,-2,0.245
3,-1,0.246
-2,0,0.247
2,1,0.248
4,-1,0.249
2,-1,0.25
2,-2,0.251
7,-4,0.252
10,-5,0.253
5,-3,0.254
2,-2,0.255
3,-3,0.256
6,-8,0.257
6,-8,0.258
6,-3,0.259
8,0,0.26
7,3,0.261
1,4,0.262
-3,6,0.263
-3,3,0.264
-2,0,0.265
-1,0,0.266
-2,2,0.267
0,2,0.268
0,0,0.269
0,-2,0.27
0,-2,0.271
1,-2,0.272
2,-3,0.273
0,-3,0.274
-2,0,0.275
-4,0,0.276
-5,-4,0.277
-5,-2,0.278
-1,3,0.279
6,3,0.28
7,0,0.281
1,1,0.282
-3,5,0.283
-3,4,0.284
-4,-1,0.285
-6,-3,0.286
-3,1,0.287
8,4,0.288
16,0,0.289
12,-4,0.29
7,-4,0.291
11,-3,0.292
19,-1,0.293
19,-1,0.294
10,-1,0.295
-1,-4,0.296
-6,-8,0.297
-6,-6,0.298
-1,-1,0.299
5,0,0.3
6,0,0.301
2,3,0.302
-2,5,0.303
0,3,0.304
1,0,0.305
1,0,0.306
0,1,0.307
1,0,0.308
2,-2,0.309
1,0,0.31
1,3,0.311
4,1,0.312
7,0,0.313
8,0,0.314
8,0,0.315
9,-3,0.316
9,-8,0.317
5,-6,0.318
-5,-2,0.319
-18,1,0.32
-27,3,0.321
-26,5,0.322
-15,6,0.323
-2,3,0.324
9,1,0.325
17,2,0.326
23,0,0.327
24,-5,0.328
19,-7,0.329
12,-5,0.33
5,-3,0.331
3,-5,0.332
3,-6,0.333
0,-5,0.334
-1,-5,0.335
-4,-3,0.336
-4,-4,0.337
-2,-1,0.338
3,0,0.339
6,-1,0.34
2,2,0.341
0,5,0.342
1,4,0.343
3,-1,0.344
7,-2,0.345
9,2,0.346
3,7,0.347
0,8,0.348
1,4,0.349
4,0,0.35
2,-1,0.351
1,0,0.352
1,3,0.353
0,3,0.354
-3,1,0.355
-6,-2,0.356
-8,-6,0.357
-5,-8,0.358
3,-5,0.359
11,-1,0.36
10,2,0.361
4,4,0.362
3,1,0.363
6,-1,0.364
8,-2,0.365
6,-3,0.366
5,-5,0.367
4,-4,0.368
3,-3,0.369
0,-1,0.37
3,-3,0.371
5,-4,0.372
7,-1,0.373
3,0,0.374
2,-1,0.375
0,-4,0.376
-5,-6,0.377
-11,-5,0.378
-6,-3,0.379
4,0,0.38
10,6,0.381
6,9,0.382
6,4,0.383
9,-2,0.384
9,-3,0.385
2,0,0.386
0,1,0.387
3,0,0.388
6,0,0.389
4,0,0.39
2,-2,0.391
2,-4,0.392
3,0,0.393
1,0,0.394
1,0,0.395
-1,-3,0.396
-4,-5,0.397
-6,-3,0.398
-3,-1,0.399
4,-1,0.4
8,2,0.401
4,6,0.402
2,6,0.403
6,2,0.404
8,0,0.405
6,0,0.406
2,3,0.407
1,1,0.408
3,-1,0.409
2,-4,0.41
2,-4,0.411
4,-2,0.412
8,1,0.413
10,-1,0.414
6,-4,0.415
-2,-6,0.416
-6,-8,0.417
-6,-6,0.418
0,-2,0.419
7,0,0.42
8,3,0.421
4,4,0.422
1,2,0.423
1,1,0.424
0,3,0.425
0,4,0.426
0,1,0.427
2,-5,0.428
6,-5,0.429
6,-1,0.43
3,1,0.431
0,-1,0.432
0,-3,0.433
1,-1,0.434
1,1,0.435
-4,0,0.436
-8,-7,0.437
-8,-7,0.438
-2,-5,0.439
6,-1,0.44
6,2,0.441
3,5,0.442
1,5,0.443
4,1,0.444
9,-3,0.445
6,-1,0.446
3,3,0.447
3,3,0.448
5,0,0.449
7,0,0.45
7,0,0.451
8,-3,0.452
9,-3,0.453
6,-3,0.454
2,-2,0.455
-3,-5,0.456
-8,-10,0.457
-9,-9,0.458
-4,-5,0.459
3,0,0.46
6,3,0.461
3,6,0.462
-1,7,0.463
-4,3,0.464
-5,-1,0.465
-1,0,0.466
2,0,0.467
4,-1,0.468
3,-3,0.469
4,-1,0.47
5,-1,0.471
4,-3,0.472
8,-3,0.473
15,-3,0.474
24,0,0.475
19,1,0.476
-1,-4,0.477
-22,-5,0.478
-24,-3,0.479
-11,-1,0.48
-2,2,0.481
-2,6,0.482
1,6,0.483
11,-1,0.484
14,-6,0.485
5,-3,0.486
-1,2,0.487
2,3,0.488
10,-1,0.489
9,-2,0.49
2,0,0.491
0,0,0.492
3,-2,0.493
4,-2,0.494
2,0,0.495
1,0,0.496
0,-4,0.497
0,-7,0.498
5,-3,0.499
11,1,0.5
13,3,0.501
14,6,0.502
8,6,0.503
4,6,0.504
4,2,0.505
5,-1,0.506
7,-1,0.507
8,-1,0.508
4,0,0.509
1,2,0.51
1,3,0.511
0,3,0.512
0,0,0.513
0,-3,0.514
-1,-2,0.515
-2,0,0.516
-4,-2,0.517
-9,-3,0.518
-5,-2,0.519
6,-1,0.52
10,-1,0.521
5,0,0.522
0,2,0.523
1,0,0.524
2,-2,0.525
1,-2,0.526
1,0,0.527
2,0,0.528
3,-1,0.529
2,-2,0.53
1,-1,0.531
2,-1,0.532
4,-3,0.533
3,-5,0.534
0,-3,0.535
-5,-3,0.536
-8,-8,0.537
-8,-10,0.538
-3,-6,0.539
3,1,0.54
6,5,0.541
4,3,0.542
3,-1,0.543
6,-2,0.544
8,0,0.545
8,2,0.546
5,1,0.547
4,-4,0.548
6,-7,0.549
7,-5,0.55
7,0,0.551
4,-1,0.552
4,-3,0.553
0,-3,0.554
-3,0,0.555
-8,1,0.556
-9,-2,0.557
-4,-2,0.558
4,0,0.559
10,0,0.56
11,-1,0.561
8,0,0.562
4,2,0.563
2,1,0.564
1,-1,0.565
1,-2,0.566
5,0,0.567
8,1,0.568
9,0,0.569
8,0,0.57
7,0,0.571
5,-1,0.572
2,0,0.573
-2,0,0.574
-1,0,0.575
0,-3,0.576
-2,-5,0.577
-3,-2,0.578
-4,2,0.579
-3,4,0.58
-5,5,0.581
-5,6,0.582
2,5,0.583
16,3,0.584
25,2,0.585
29,3,0.586
31,3,0.587
33,0,0.588
27,1,0.589
7,3,0.59
-23,1,0.591
-44,-3,0.592
-46,-4,0.593
-34,-2,0.594
-25,0,0.595
-26,-4,0.596
-27,-9,0.597
-15,-7,0.598
5,-4,0.599
17,-3,0.6
14,-2,0.601
12,1,0.602
18,5,0.603
23,4,0.604
16,0,0.605
5,-2,0.606
3,-1,0.607
8,-1,0.608
11,0,0.609
8,2,0.61
8,0,0.611
10,-3,0.612
11,-3,0.613
8,-2,0.614
9,-1,0.615
11,-2,0.616
11,-5,0.617
6,-2,0.618
4,2,0.619
9,4,0.62
9,4,0.621
2,6,0.622
0,3,0.623
9,-2,0.624
25,-4,0.625
51,-2,0.626
86,-3,0.627
115,-6,0.628
99,-6,0.629
27,-3,0.63
-56,-1,0.631
-96,-1,0.632
-89,0,0.633
-77,1,0.634
-81,-1,0.635
-84,-4,0.636
-71,-8,0.637
-57,-7,0.638
-48,-4,0.639
-33,-3,0.64
-8,-1,0.641
10,0,0.642
15,0,0.643
15,-2,0.644
18,-3,0.645
22,1,0.646
30,5,0.647
41,6,0.648
48,3,0.649
41,0,0.65
31,-2,0.651
29,-3,0.652
30,0,0.653
16,3,0.654
-8,2,0.655
-24,-2,0.656
-26,-9,0.657
-15,-10,0.658
-1,-4,0.659
11,1,0.66
13,4,0.661
10,4,0.662
11,4,0.663
16,4,0.664
19,4,0.665
18,3,0.666
23,3,0.667
31,0,0.668
28,0,0.669
9,2,0.67
-13,2,0.671
-21,-1,0.672
-16,-3,0.673
-10,-6,0.674
-7,-5,0.675
-5,-5,0.676
-1,-7,0.677
8,-6,0.678
17,-4,0.679
20,-2,0.68
17,-1,0.681
11,1,0.682
9,3,0.683
8,2,0.684
6,0,0.685
0,0,0.686
-5,0,0.687
-7,-2,0.688
-4,-3,0.689
-6,-1,0.69
-7,1,0.691
-4,0,0.692
3,0,0.693
8,0,0.694
5,-1,0.695
-1,-2,0.696
-4,-5,0.697
-3,-4,0.698
2,-2,0.699
10,0,0.7
19,4,0.701
27,7,0.702
28,5,0.703
18,2,0.704
-2,0,0.705
-17,2,0.706
-17,2,0.707
-9,-1,0.708
-9,-6,0.709
-19,-8,0.71
-28,-7,0.711
-26,-6,0.712
-13,-4,0.713
10,-4,0.714
46,-3,0.715
70,-1,0.716
55,-1,0.717
32,-1,0.718
-9,0,0.719
-43,4,0.72
-51,7,0.721
-59,6,0.722
-64,1,0.723
-64,-3,0.724
-50,-6,0.725
-34,-4,0.726
-16,-2,0.727
0,-1,0.728
5,-3,0.729
15,-5,0.73
32,-3,0.731
49,0,0.732
68,2,0.733
85,3,0.734
76,4,0.735
32,2,0.736
-24,-3,0.737
-51,-6,0.738
-40,-2,0.739
-18,2,0.74
-8,2,0.741
-5,2,0.742
0,1,0.743
7,0,0.744
10,0,0.745
16,2,0.746
25,3,0.747
25,0,0.748
16,-2,0.749
17,-1,0.75
32,1,0.751
49,1,0.752
54,0,0.753
42,-2,0.754
14,-2,0.755
-26,-3,0.756
-53,-5,0.757
-44,-5,0.758
-19,-2,0.759
-8,-2,0.76
-12,-1,0.761
-12,0,0.762
-3,-1,0.763
3,-3,0.764
3,0,0.765
4,5,0.766
6,5,0.767
5,0,0.768
-1,0,0.769
0,3,0.77
4,3,0.771
6,-2,0.772
8,-4,0.773
8,-4,0.774
9,-3,0.775
7,-5,0.776
2,-7,0.777
-1,-7,0.778
-2,-4,0.779
-2,-2,0.78
-2,2,0.781
-5,4,0.782
-14,2,0.783
-16,-1,0.784
2,0,0.785
32,5,0.786
46,7,0.787
30,3,0.788
7,-2,0.789
0,-3,0.79
10,-1,0.791
15,0,0.792
11,-1,0.793
2,-3,0.794
-4,-2,0.795
-14,-1,0.796
-23,-5,0.797
-25,-6,0.798
-15,-4,0.799
0,0,0.8
11,3,0.801
13,0,0.802
11,-5,0.803
12,-4,0.804
16,-1,0.805
31,1,0.806
60,0,0.807
87,0,0.808
85,2,0.809
49,4,0.81
2,0,0.811
-33,-4,0.812
-61,-3,0.813
-95,-2,0.814
-123,-1,0.815
-122,-3,0.816
-94,-6,0.817
-59,-6,0.818
-29,-5,0.819
-7,-3,0.82
-2,3,0.821
-4,7,0.822
5,4,0.823
32,-1,0.824
54,-2,0.825
52,0,0.826
37,2,0.827
28,1,0.828
28,0,0.829
32,0,0.83
32,0,0.831
30,1,0.832
25,2,0.833
19,1,0.834
16,0,0.835
11,-1,0.836
5,-5,0.837
0,-5,0.838
2,-3,0.839
10,0,0.84
12,4,0.841
8,5,0.842
8,3,0.843
12,0,0.844
12,1,0.845
7,0,0.846
4,-1,0.847
7,-1,0.848
8,0,0.849
10,1,0.85
12,-3,0.851
14,-6,0.852
14,-2,0.853
4,0,0.854
-10,1,0.855
-28,-2,0.856
-40,-6,0.857
-43,-6,0.858
-36,-7,0.859
-23,-7,0.86
-8,-3,0.861
2,1,0.862
7,3,0.863
5,2,0.864
3,0,0.865
2,2,0.866
0,0,0.867
-4,-2,0.868
-8,-2,0.869
1,-1,0.87
22,-3,0.871
45,-7,0.872
57,-3,0.873
47,1,0.874
18,2,0.875
-14,2,0.876
-22,-3,0.877
1,-6,0.878
30,0,0.879
34,4,0.88
15,4,0.881
-1,4,0.882
13,7,0.883
39,9,0.884
48,7,0.885
23,6,0.886
-11,5,0.887
-35,4,0.888
-49,4,0.889
-59,3,0.89
-67,-1,0.891
-70,-4,0.892
-63,-4,0.893
-46,-4,0.894
-21,-6,0.895
-2,-8,0.896
2,-13,0.897
1,-15,0.898
4,-12,0.899
3,-6,0.9
-11,-1,0.901
-24,2,0.902
-13,0,0.903
11,0,0.904
21,0,0.905
15,2,0.906
14,2,0.907
25,1,0.908
34,1,0.909
30,2,0.91
28,1,0.911
32,0,0.912
32,0,0.913
24,-3,0.914
20,-5,0.915
21,-7,0.916
18,-7,0.917
11,-3,0.918
11,0,0.919
18,1,0.92
20,2,0.921
16,5,0.922
15,4,0.923
17,1,0.924
13,0,0.925
3,2,0.926
1,2,0.927
8,0,0.928
5,0,0.929
-7,0,0.93
-14,-2,0.931
-8,-5,0.932
-2,-4,0.933
-1,-3,0.934
-2,-2,0.935
-2,-5,0.936
-2,-9,0.937
-4,-6,0.938
-2,-1,0.939
5,2,0.94
11,1,0.941
15,0,0.942
22,2,0.943
21,3,0.944
4,2,0.945
-19,2,0.946
-27,1,0.947
-21,0,0.948
-18,-1,0.949
-18,-3,0.95
-13,-3,0.951
0,-3,0.952
7,-2,0.953
2,-2,0.954
-2,-2,0.955
0,-3,0.956
3,-4,0.957
-1,-4,0.958
-3,-2,0.959
4,0,0.96
10,2,0.961
6,4,0.962
3,1,0.963
7,-1,0.964
11,-1,0.965
6,-2,0.966
0,-2,0.967
1,-2,0.968
7,0,0.969
6,0,0.97
2,-1,0.971
4,-2,0.972
10,0,0.973
9,0,0.974
0,-3,0.975
-10,-5,0.976
-16,-4,0.977
-10,-3,0.978
4,-3,0.979
14,0,0.98
15,6,0.981
11,10,0.982
11,8,0.983
15,3,0.984
19,1,0.985
19,2,0.986
14,3,0.987
5,0,0.988
-7,-1,0.989
-16,-1,0.99
-18,1,0.991
-13,0,0.992
-5,0,0.993
1,-2,0.994
6,0,0.995
10,1,0.996
18,-3,0.997
32,-5,0.998
49,-3,0.999
52,4,1.0
38,8,1.001
13,7,1.002
-10,3,1.003
-32,2,1.004
-55,2,1.005
-58,-2,1.006
-25,-6,1.007
24,-11,1.008
39,-13,1.009
-4,-12,1.01
-59,-10,1.011
-72,-8,1.012
-46,-4,1.013
-27,-3,1.014
-25,-1,1.015
-23,0,1.016
-21,-4,1.017
-17,-7,1.018
-9,-1,1.019
1,3,1.02
17,5,1.021
28,7,1.022
24,4,1.023
22,1,1.024
29,0,1.025
33,-1,1.026
26,1,1.027
21,3,1.028
22,1,1.029
23,0,1.03
20,-1,1.031
17,-2,1.032
18,0,1.033
18,1,1.034
10,0,1.035
6,-1,1.036
7,-4,1.037
4,-2,1.038
8,2,1.039
23,4,1.04
41,5,1.041
50,7,1.042
51,8,1.043
51,5,1.044
40,0,1.045
5,0,1.046
-51,2,1.047
-97,4,1.048
-104,3,1.049
-71,3,1.05
-31,1,1.051
-10,-1,1.052
-5,-5,1.053
-3,-6,1.054
10,-4,1.055
19,-2,1.056
13,-2,1.057
9,-1,1.058
7,0,1.059
8,3,1.06
17,3,1.061
22,4,1.062
11,6,1.063
3,8,1.064
2,8,1.065
1,6,1.066
3,3,1.067
5,1,1.068
5,1,1.069
4,1,1.07
4,0,1.071
6,-2,1.072
13,-2,1.073
18,-6,1.074
10,-4,1.075
2,-2,1.076
0,-2,1.077
1,-1,1.078
5,0,1.079
12,3,1.08
12,3,1.081
4,4,1.082
-3,6,1.083
0,8,1.084
5,8,1.085
8,6,1.086
13,3,1.087
31,1,1.088
56,1,1.089
75,1,1.09
75,0,1.091
61,-2,1.092
43,-2,1.093
12,-1,1.094
-40,0,1.095
-103,0,1.096
-144,-6,1.097
-144,-8,1.098
-113,-7,1.099
-80,-2,1.1
-55,3,1.101
-22,5,1.102
24,3,1.103
67,0,1.104
83,-3,1.105
67,-2,1.106
35,-2,1.107
9,-2,1.108
-2,-3,1.109
-5,-3,1.11
-15,-1,1.111
-33,-2,1.112
-42,-2,1.113
-32,-1,1.114
-12,0,1.115
1,0,1.116
3,-4,1.117
10,-3,1.118
25,1,1.119
34,3,1.12
32,4,1.121
31,8,1.122
51,9,1.123
83,4,1.124
95,-1,1.125
64,0,1.126
11,3,1.127
-29,2,1.128
-43,-2,1.129
-43,-3,1.13
-37,-3,1.131
-32,-5,1.132
-24,-6,1.133
-19,-5,1.134
-13,-1,1.135
-3,-1,1.136
7,-4,1.137
13,-2,1.138
22,4,1.139
38,5,1.14
43,3,1.141
29,4,1.142
13,5,1.143
11,3,1.144
16,0,1.145
9,-1,1.146
-1,0,1.147
1,3,1.148
9,3,1.149
7,2,1.15
-1,-2,1.151
-1,-4,1.152
5,-2,1.153
1,-1,1.154
-7,-1,1.155
-10,-4,1.156
-7,-9,1.157
-6,-8,1.158
-4,-4,1.159
2,-3,1.16
5,0,1.161
-5,2,1.162
-15,1,1.163
-10,-1,1.164
3,-1,1.165
9,0,1.166
8,0,1.167
16,-1,1.168
33,-2,1.169
42,-1,1.17
36,-2,1.171
19,-3,1.172
-1,-2,1.173
-28,-1,1.174
-49,-2,1.175
-51,-4,1.176
-43,-6,1.177
-35,-3,1.178
-28,-3,1.179
-16,-4,1.18
-1,-3,1.181
7,0,1.182
10,0,1.183
11,0,1.184
12,1,1.185
12,3,1.186
12,3,1.187
13,0,1.188
14,-3,1.189
11,-4,1.19
7,-3,1.191
14,-3,1.192
41,-2,1.193
91,-3,1.194
145,-4,1.195
154,-2,1.196
95,-2,1.197
-3,0,1.198
-78,5,1.199
-109,11,1.2
-130,14,1.201
-159,12,1.202
-164,5,1.203
-117,1,1.204
-50,0,1.205
-6,1,1.206
12,-2,1.207
29,-10,1.208
44,-15,1.209
39,-16,1.21
19,-12,1.211
3,-9,1.212
1,-4,1.213
9,-3,1.214
19,-4,1.215
23,-7,1.216
22,-8,1.217
20,-4,1.218
28,0,1.219
36,3,1.22
34,6,1.221
26,10,1.222
22,11,1.223
21,7,1.224
19,6,1.225
17,8,1.226
18,9,1.227
19,5,1.228
15,1,1.229
9,2,1.23
6,2,1.231
7,0,1.232
6,2,1.233
4,1,1.234
4,0,1.235
5,-4,1.236
7,-7,1.237
16,-5,1.238
27,-3,1.239
26,-1,1.24
7,2,1.241
-12,5,1.242
-20,6,1.243
-24,4,1.244
-37,2,1.245
-48,1,1.246
-42,0,1.247
-25,-3,1.248
-19,-4,1.249
-15,-4,1.25
0,-7,1.251
26,-11,1.252
45,-13,1.253
59,-14,1.254
69,-12,1.255
68,-10,1.256
49,-9,1.257
27,-6,1.258
18,-3,1.259
10,0,1.26
-10,7,1.261
-25,12,1.262
-16,12,1.263
-7,8,1.264
-36,7,1.265
-93,10,1.266
-125,9,1.267
-101,4,1.268
-46,0,1.269
-6,0,1.27
0,0,1.271
-17,-3,1.272
-27,-5,1.273
-23,-6,1.274
-5,-7,1.275
8,-4,1.276
10,-5,1.277
16,-4,1.278
37,-4,1.279
65,-5,1.28
81,-3,1.281
86,2,1.282
76,4,1.283
43,2,1.284
-2,-2,1.285
-25,-2,1.286
-13,0,1.287
4,-1,1.288
-4,-3,1.289
-23,-2,1.29
-20,0,1.291
1,0,1.292
16,-3,1.293
10,-4,1.294
8,0,1.295
10,2,1.296
22,-1,1.297
31,-5,1.298
32,-4,1.299
28,-1,1.3
5,0,1.301
-10,0,1.302
0,2,1.303
9,1,1.304
11,0,1.305
10,-1,1.306
0,2,1.307
-9,6,1.308
-12,6,1.309
-12,4,1.31
1,4,1.311
10,5,1.312
5,3,1.313
0,-4,1.314
-2,-10,1.315
-3,-9,1.316
-17,-9,1.317
-34,-7,1.318
-36,-9,1.319
-23,-8,1.32
-17,-1,1.321
-20,5,1.322
-23,4,1.323
-14,0,1.324
-1,1,1.325
7,5,1.326
11,6,1.327
16,3,1.328
22,2,1.329
31,0,1.33
46,-4,1.331
61,-8,1.332
71,-7,1.333
67,-2,1.334
57,1,1.335
36,2,1.336
19,-1,1.337
37,-1,1.338
94,0,1.339
118,3,1.34
30,9,1.341
-124,11,1.342
-214,7,1.343
-183,-3,1.344
-118,-5,1.345
-101,-1,1.346
-101,2,1.347
-64,-4,1.348
-15,-12,1.349
-5,-11,1.35
-11,-4,1.351
7,0,1.352
35,0,1.353
39,-4,1.354
27,-4,1.355
29,-2,1.356
37,-6,1.357
36,-9,1.358
34,-6,1.359
44,1,1.36
48,6,1.361
39,6,1.362
29,5,1.363
32,6,1.364
34,7,1.365
25,4,1.366
19,2,1.367
21,3,1.368
22,5,1.369
14,5,1.37
9,1,1.371
12,-2,1.372
11,-2,1.373
2,-3,1.374
-2,-6,1.375
-3,-6,1.376
-6,-7,1.377
-12,-5,1.378
-9,-1,1.379
4,1,1.38
7,2,1.381
-1,2,1.382
-6,1,1.383
-2,-1,1.384
1,-1,1.385
-1,0,1.386
-3,-2,1.387
0,-6,1.388
1,-8,1.389
-3,-4,1.39
-4,1,1.391
0,0,1.392
2,0,1.393
-3,-4,1.394
-7,-5,1.395
-8,-6,1.396
-8,-8,1.397
-8,-8,1.398
-2,-5,1.399
7,0,1.4
10,5,1.401
2,7,1.402
0,6,1.403
3,0,1.404
4,-2,1.405
0,0,1.406
-3,1,1.407
1,1,1.408
7,-1,1.409
8,0,1.41
10,3,1.411
14,1,1.412
17,-1,1.413
13,-2,1.414
5,-2,1.415
-2,-2,1.416
-9,-9,1.417
-10,-14,1.418
-3,-17,1.419
7,-18,1.42
7,-15,1.421
-1,-10,1.422
-5,-5,1.423
0,-2,1.424
5,2,1.425
1,9,1.426
-2,9,1.427
0,-5,1.428
3,-34,1.429
3,-83,1.43
4,-144,1.431
7,-185,1.432
6,-160,1.433
0,-52,1.434
-8,86,1.435
-14,179,1.436
-18,197,1.437
-19,169,1.438
-11,124,1.439
0,81,1.44
7,62,1.441
9,82,1.442
12,113,1.443
16,110,1.444
13,76,1.445
4,42,1.446
1,21,1.447
8,-5,1.448
12,-36,1.449
7,-52,1.45
2,-53,1.451
4,-58,1.452
6,-69,1.453
0,-75,1.454
-5,-69,1.455
-7,-67,1.456
-9,-70,1.457
-13,-62,1.458
-10,-45,1.459
1,-28,1.46
8,-16,1.461
1,-4,1.462
-5,0,1.463
-3,-19,1.464
3,-62,1.465
9,-100,1.466
9,-100,1.467
10,-50,1.468
11,29,1.469
9,97,1.47
8,120,1.471
11,98,1.472
14,50,1.473
9,-22,1.474
0,-100,1.475
-7,-153,1.476
-12,-167,1.477
-11,-148,1.478
-4,-126,1.479
5,-98,1.48
11,-50,1.481
7,5,1.482
7,24,1.483
11,-10,1.484
10,-62,1.485
0,-76,1.486
-5,-19,1.487
1,105,1.488
8,263,1.489
9,401,1.49
9,477,1.491
14,471,1.492
18,401,1.493
13,275,1.494
6,136,1.495
3,19,1.496
2,-68,1.497
2,-124,1.498
8,-145,1.499
16,-120,1.5
15,-68,1.501
7,-29,1.502
3,-31,1.503
8,-67,1.504
11,-121,1.505
5,-180,1.506
-2,-234,1.507
-1,-254,1.508
0,-220,1.509
-4,-149,1.51
-8,-75,1.511
-9,-16,1.512
-6,21,1.513
-5,23,1.514
-7,-27,1.515
-9,-106,1.516
-12,-155,1.517
-15,-134,1.518
-12,-58,1.519
-6,33,1.52
-2,119,1.521
-1,171,1.522
3,154,1.523
8,62,1.524
8,-46,1.525
2,-84,1.526
-4,-4,1.527
-8,159,1.528
-9,319,1.529
-4,399,1.53
9,379,1.531
23,299,1.532
27,204,1.533
22,85,1.534
17,-30,1.535
13,-96,1.536
7,-105,1.537
2,-102,1.538
8,-132,1.539
20,-167,1.54
28,-169,1.541
26,-150,1.542
20,-152,1.543
12,-173,1.544
5,-173,1.545
12,-151,1.546
49,-131,1.547
109,-115,1.548
138,-85,1.549
100,-49,1.55
9,-22,1.551
-73,-7,1.552
-110,11,1.553
-128,27,1.554
-150,32,1.555
-177,26,1.556
-175,25,1.557
-123,34,1.558
-17,43,1.559
124,43,1.56
234,42,1.561
220,42,1.562
67,38,1.563
-102,23,1.564
-157,6,1.565
-110,-2,1.566
-77,0,1.567
-101,8,1.568
-112,18,1.569
-63,33,1.57
0,45,1.571
41,50,1.572
87,46,1.573
153,34,1.574
188,25,1.575
151,18,1.576
89,10,1.577
54,7,1.578
33,6,1.579
-1,4,1.58
-2,-3,1.581
85,-11,1.582
194,-21,1.583
179,-25,1.584
-9,-21,1.585
-239,-12,1.586
-352,-8,1.587
-316,-8,1.588
-225,-7,1.589
-157,-5,1.59
-100,-10,1.591
-22,-25,1.592
65,-39,1.593
128,-42,1.594
137,-37,1.595
100,-38,1.596
46,-50,1.597
3,-62,1.598
-4,-67,1.599
28,-63,1.6
78,-50,1.601
126,-32,1.602
174,-13,1.603
226,2,1.604
254,8,1.605
224,-5,1.606
126,-30,1.607
8,-36,1.608
-56,5,1.609
-52,82,1.61
-63,156,1.611
-154,200,1.612
-246,218,1.613
-247,212,1.614
-170,175,1.615
-153,115,1.616
-234,59,1.617
-228,40,1.618
-30,45,1.619
166,44,1.62
131,28,1.621
-49,5,1.622
-125,-17,1.623
-40,-50,1.624
72,-86,1.625
152,-101,1.626
213,-93,1.627
184,-83,1.628
2,-79,1.629
-185,-71,1.63
-160,-52,1.631
64,-32,1.632
262,-21,1.633
317,-17,1.634
264,-19,1.635
183,-23,1.636
92,-21,1.637
28,-4,1.638
17,19,1.639
1,28,1.64
-60,19,1.641
-107,4,1.642
-108,-8,1.643
-149,-15,1.644
-287,-14,1.645
-405,-11,1.646
-381,-12,1.647
-270,-24,1.648
-164,-38,1.649
-36,-49,1.65
119,-62,1.651
170,-70,1.652
81,-55,1.653
33,-20,1.654
141,14,1.655
207,19,1.656
146,7,1.657
100,13,1.658
102,30,1.659
100,33,1.66
84,17,1.661
58,5,1.662
4,7,1.663
-32,13,1.664
-17,14,1.665
-11,16,1.666
-33,13,1.667
-52,3,1.668
-59,-13,1.669
-39,-39,1.67
65,-73,1.671
136,-94,1.672
106,-66,1.673
60,20,1.674
8,126,1.675
45,187,1.676
81,182,1.677
47,140,1.678
-16,88,1.679
-60,44,1.68
-89,14,1.681
-103,4,1.682
-70,-4,1.683
3,-16,1.684
58,-28,1.685
74,-30,1.686
84,-34,1.687
100,-48,1.688
94,-62,1.689
52,-69,1.69
0,-71,1.691
-52,-67,1.692
-104,-51,1.693
-144,-28,1.694
-132,-13,1.695
-73,-11,1.696
-19,-12,1.697
-2,-3,1.698
-7,4,1.699
-9,5,1.7
-3,8,1.701
15,16,1.702
50,19,1.703
89,15,1.704
94,10,1.705
51,11,1.706
-4,10,1.707
-37,8,1.708
-66,5,1.709
-117,3,1.71
-155,-4,1.711
-120,-16,1.712
-32,-19,1.713
71,-19,1.714
61,-20,1.715
55,-21,1.716
57,-21,1.717
58,-16,1.718
51,1,1.719
47,20,1.72
50,44,1.721
52,61,1.722
47,59,1.723
37,55,1.724
9,41,1.725
-8,27,1.726
6,11,1.727
29,-3,1.728
80,-8,1.729
124,-12,1.73
148,-12,1.731
143,-11,1.732
48,-10,1.733
94,-9,1.734
68,-12,1.735
50,-18,1.736
55,-26,1.737
56,-33,1.738
39,-38,1.739
28,-37,1.74
36,-27,1.741
40,-13,1.742
28,-4,1.743
1,0,1.744
-71,-1,1.745
-117,-1,1.746
-81,2,1.747
-20,6,1.748
116,7,1.749
233,5,1.75
297,0,1.751
282,-1,1.752
31,4,1.753
-218,11,1.754
-321,11,1.755
-226,-2,1.756
-174,-25,1.757
-275,-38,1.758
-365,-32,1.759
-303,-21,1.76
-170,-13,1.761
-84,-10,1.762
-23,-5,1.763
67,0,1.764
157,1,1.765
206,-2,1.766
237,-1,1.767
265,3,1.768
252,4,1.769
184,-1,1.77
105,-7,1.771
53,1,1.772
32,16,1.773
36,21,1.774
47,16,1.775
33,9,1.776
-1,7,1.777
-16,12,1.778
0,16,1.779
9,17,1.78
-11,18,1.781
-30,18,1.782
-25,14,1.783
-15,10,1.784
-20,7,1.785
-32,4,1.786
-33,2,1.787
-31,-4,1.788
-37,-11,1.789
-43,-13,1.79
-40,-10,1.791
-30,-4,1.792
-15,0,1.793
-4,-1,1.794
-4,-1,1.795
-7,0,1.796
-16,-1,1.797
-21,-3,1.798
-13,-6,1.799
-5,-8,1.8
-1,-3,1.801
4,1,1.802
16,1,1.803
24,0,1.804
21,1,1.805
21,2,1.806
31,0,1.807
31,-2,1.808
-2,-3,1.809
-27,-4,1.81
-29,-4,1.811
-27,-5,1.812
-12,-5,1.813
4,-5,1.814
11,-4,1.815
-7,-5,1.816
-35,-9,1.817
-49,-6,1.818
-31,0,1.819
-2,2,1.82
20,3,1.821
34,3,1.822
44,6,1.823
36,6,1.824
11,1,1.825
-9,0,1.826
-10,7,1.827
-3,11,1.828
-1,7,1.829
3,1,1.83
12,-1,1.831
16,0,1.832
15,0,1.833
14,-3,1.834
6,-3,1.835
-19,-3,1.836
-48,-5,1.837
-48,-5,1.838
-7,-2,1.839
42,0,1.84
71,3,1.841
79,5,1.842
76,5,1.843
64,4,1.844
43,3,1.845
22,2,1.846
0,0,1.847
-28,-2,1.848
-51,-4,1.849
-52,-4,1.85
-33,-6,1.851
-22,-7,1.852
-23,-7,1.853
-15,-7,1.854
4,-6,1.855
14,-7,1.856
-3,-8,1.857
-16,-5,1.858
-11,-2,1.859
-5,0,1.86
4,3,1.861
12,5,1.862
16,2,1.863
19,-3,1.864
19,-3,1.865
19,1,1.866
19,4,1.867
19,1,1.868
15,-2,1.869
13,-2,1.87
18,0,1.871
19,0,1.872
1,0,1.873
-16,-2,1.874
-25,-2,1.875
-24,-2,1.876
-21,-4,1.877
-13,-3,1.878
0,-3,1.879
10,-4,1.88
3,-3,1.881
-6,3,1.882
-6,9,1.883
2,9,1.884
3,6,1.885
-2,2,1.886
-2,-1,1.887
4,-1,1.888
8,3,1.889
10,7,1.89
14,5,1.891
15,1,1.892
10,3,1.893
0,4,1.894
-6,1,1.895
-8,-7,1.896
-13,-15,1.897
-13,-14,1.898
-5,-11,1.899
7,-11,1.9
11,-9,1.901
6,-6,1.902
5,-5,1.903
9,-8,1.904
11,-9,1.905
4,-3,1.906
-2,1,1.907
-1,2,1.908
5,4,1.909
8,9,1.91
3,11,1.911
-3,10,1.912
-6,11,1.913
-9,12,1.914
-8,13,1.915
-7,12,1.916
-6,2,1.917
-4,-5,1.918
-1,-8,1.919
3,-10,1.92
7,-7,1.921
10,-3,1.922
8,1,1.923
7,7,1.924
7,15,1.925
8,20,1.926
6,14,1.927
5,8,1.928
7,-1,1.929
10,-8,1.93
11,-8,1.931
11,-8,1.932
9,-8,1.933
7,-7,1.934
5,-5,1.935
-1,-6,1.936
-5,-9,1.937
-6,-4,1.938
0,7,1.939
5,18,1.94
5,20,1.941
3,9,1.942
5,-6,1.943
11,-15,1.944
14,-15,1.945
11,-11,1.946
5,-10,1.947
1,-8,1.948
-1,-7,1.949
-3,-7,1.95
-2,-9,1.951
1,-11,1.952
7,-6,1.953
7,1,1.954
4,4,1.955
0,3,1.956
-2,-4,1.957
2,-7,1.958
7,-5,1.959
10,0,1.96
4,6,1.961
-5,9,1.962
-10,4,1.963
-9,-9,1.964
-5,-29,1.965
-5,-46,1.966
-6,-40,1.967
-5,-9,1.968
-2,19,1.969
0,16,1.97
-1,-10,1.971
-2,-21,1.972
0,9,1.973
0,66,1.974
-3,105,1.975
-7,97,1.976
-8,48,1.977
1,-5,1.978
17,-41,1.979
28,-52,1.98
27,-43,1.981
20,-32,1.982
13,-32,1.983
6,-40,1.984
0,-30,1.985
-3,6,1.986
-2,50,1.987
-2,80,1.988
-6,92,1.989
-10,91,1.99
-1,73,1.991
14,36,1.992
24,2,1.993
23,-12,1.994
19,-13,1.995
14,-22,1.996
10,-42,1.997
6,-53,1.998
4,-44,1.999
1,-31,2.0
-8,-26,2.001
-16,-26,2.002
-16,-26,2.003
-15,-28,2.004
-16,-29,2.005
-17,-24,2.006
-15,-19,2.007
-12,-28,2.008
-2,-56,2.009
5,-85,2.01
6,-94,2.011
7,-75,2.012
7,-44,2.013
10,-32,2.014
18,-54,2.015
21,-80,2.016
14,-72,2.017
1,-17,2.018
-4,45,2.019
0,79,2.02
1,91,2.021
-4,116,2.022
-7,163,2.023
0,196,2.024
7,175,2.025
2,121,2.026
-6,87,2.027
-4,87,2.028
4,77,2.029
3,35,2.03
-8,-3,2.031
-15,-8,2.032
-6,-3,2.033
6,-22,2.034
14,-44,2.035
14,-42,2.036
12,-32,2.037
10,-38,2.038
10,-50,2.039
6,-40,2.04
0,-22,2.041
-3,-16,2.042
5,-12,2.043
19,2,2.044
24,9,2.045
19,-11,2.046
13,-38,2.047
15,-44,2.048
16,-36,2.049
8,-39,2.05
-2,-47,2.051
-2,-43,2.052
1,-30,2.053
0,-31,2.054
-6,-44,2.055
-9,-59,2.056
-8,-78,2.057
-7,-101,2.058
-2,-119,2.059
5,-112,2.06
10,-80,2.061
6,-49,2.062
0,-40,2.063
-1,-39,2.064
-2,-18,2.065
-6,26,2.066
-8,67,2.067
-3,100,2.068
-1,140,2.069
-6,192,2.07
-12,228,2.071
-10,220,2.072
-4,185,2.073
0,127,2.074
22,56,2.075
56,-10,2.076
128,-58,2.077
172,-88,2.078
130,-63,2.079
72,-44,2.08
-37,-43,2.081
-113,-47,2.082
-87,-70,2.083
-43,-94,2.084
55,-118,2.085
108,-143,2.086
19,-168,2.087
-75,-166,2.088
-184,-84,2.089
-241,-1,2.09
-141,80,2.091
-69,134,2.092
-84,100,2.093
-94,66,2.094
-71,45,2.095
-43,35,2.096
-41,33,2.097
-25,60,2.098
27,103,2.099
68,130,2.1
68,124,2.101
55,89,2.102
61,40,2.103
75,7,2.104
75,32,2.105
64,104,2.106
55,152,2.107
53,128,2.108
67,64,2.109
102,6,2.11
145,-41,2.111
167,-88,2.112
147,-114,2.113
86,-106,2.114
45,-97,2.115
90,-108,2.116
211,-113,2.117
264,-93,2.118
126,-77,2.119
-121,-88,2.12
-260,-94,2.121
-237,-78,2.122
-217,-58,2.123
-304,-56,2.124
-372,-53,2.125
-295,-41,2.126
-153,-37,2.127
-84,-48,2.128
-60,-44,2.129
22,-13,2.13
139,21,2.131
175,25,2.132
113,11,2.133
20,5,2.134
-21,13,2.135
7,25,2.136
84,37,2.137
150,57,2.138
128,82,2.139
20,96,2.14
-63,97,2.141
-25,88,2.142
82,71,2.143
121,50,2.144
61,36,2.145
31,27,2.146
127,18,2.147
232,3,2.148
164,-21,2.149
-55,-50,2.15
-220,-75,2.151
-220,-87,2.152
-163,-82,2.153
-145,-64,2.154
-113,-38,2.155
-68,-15,2.156
17,1,2.157
78,19,2.158
63,42,2.159
51,69,2.16
51,105,2.161
32,129,2.162
-44,114,2.163
-79,88,2.164
10,31,2.165
89,-24,2.166
130,-72,2.167
153,-111,2.168
120,-125,2.169
83,-123,2.17
35,-71,2.171
-6,-19,2.172
-23,26,2.173
-49,66,2.174
-100,69,2.175
-115,50,2.176
-80,8,2.177
-50,-40,2.178
-55,-80,2.179
-62,-96,2.18
-36,-84,2.181
-1,-55,2.182
21,-23,2.183
50,6,2.184
105,35,2.185
166,64,2.186
229,88,2.187
306,92,2.188
335,71,2.189
177,41,2.19
-148,25,2.191
-374,31,2.192
-324,53,2.193
-138,77,2.194
-106,94,2.195
-233,93,2.196
-269,67,2.197
-152,27,2.198
-87,-15,2.199
-142,-46,2.2
-96,-65,2.201
186,-72,2.202
485,-74,2.203
496,-73,2.204
220,-67,2.205
-80,-55,2.206
-209,-43,2.207
-202,-38,2.208
-207,-38,2.209
-264,-40,2.21
-271,-40,2.211
-151,-40,2.212
-3,-36,2.213
51,-30,2.214
14,-20,2.215
6,-9,2.216
67,-3,2.217
113,-4,2.218
102,-9,2.219
91,-6,2.22
115,7,2.221
118,16,2.222
80,11,2.223
58,2,2.224
77,7,2.225
93,21,2.226
76,29,2.227
53,28,2.228
49,28,2.229
39,31,2.23
15,35,2.231
1,38,2.232
11,40,2.233
18,35,2.234
20,22,2.235
25,9,2.236
25,-1,2.237
-1,-1,2.238
-44,4,2.239
-64,8,2.24
-55,12,2.241
-42,10,2.242
-17,4,2.243
49,-1,2.244
126,-3,2.245
126,-5,2.246
37,-12,2.247
-38,-16,2.248
-20,-13,2.249
41,-12,2.25
43,-18,2.251
-27,-25,2.252
-96,-24,2.253
-134,-20,2.254
-151,-21,2.255
-157,-25,2.256
-129,-26,2.257
-62,-17,2.258
4,-8,2.259
38,-3,2.26
44,0,2.261
46,2,2.262
51,8,2.263
50,14,2.264
26,16,2.265
-29,12,2.266
-88,7,2.267
-104,4,2.268
-50,7,2.269
64,8,2.27
186,8,2.271
248,6,2.272
199,4,2.273
34,-2,2.274
-136,-8,2.275
-186,-8,2.276
-111,-12,2.277
-18,-21,2.278
20,-24,2.279
24,-12,2.28
15,2,2.281
-14,4,2.282
-39,-4,2.283
2,-4,2.284
102,5,2.285
178,10,2.286
162,6,2.287
69,6,2.288
-48,11,2.289
-127,13,2.29
-136,6,2.291
-104,1,2.292
-83,4,2.293
-84,2,2.294
-67,-7,2.295
-23,-13,2.296
10,-9,2.297
20,1,2.298
37,2,2.299
63,0,2.3
60,3,2.301
32,10,2.302
22,12,2.303
41,8,2.304
48,7,2.305
40,10,2.306
48,11,2.307
71,8,2.308
67,9,2.309
37,11,2.31
22,11,2.311
23,9,2.312
-2,8,2.313
-45,6,2.314
-54,3,2.315
-55,-1,2.316
-29,-12,2.317
-9,-23,2.318
-10,-29,2.319
-17,-29,2.32
-41,-24,2.321
-56,-17,2.322
-40,-13,2.323
-25,-15,2.324
-11,-18,2.325
1,-14,2.326
10,-6,2.327
17,-2,2.328
19,-1,2.329
22,3,2.33
21,13,2.331
20,17,2.332
20,14,2.333
16,11,2.334
12,9,2.335
15,11,2.336
17,3,2.337
13,-1,2.338
16,5,2.339
27,12,2.34
27,11,2.341
16,8,2.342
9,8,2.343
13,8,2.344
12,5,2.345
-1,1,2.346
-9,3,2.347
-9,3,2.348
-9,0,2.349
-10,-2,2.35
-7,0,2.351
0,1,2.352
3,-1,2.353
-1,-5,2.354
-3,-3,2.355
-3,-2,2.356
-7,-6,2.357
-7,-9,2.358
-2,-9,2.359
5,-6,2.36
4,-2,2.361
0,0,2.362
-1,0,2.363
2,-3,2.364
2,-3,2.365
-2,-1,2.366
-1,0,2.367
6,-5,2.368
10,-8,2.369
6,-4,2.37
-1,1,2.371
-5,3,2.372
-2,1,2.373
1,-3,2.374
3,-4,2.375
-1,-5,2.376
-4,-9,2.377
-3,-10,2.378
4,-8,2.379
11,-6,2.38
10,-5,2.381
3,-3,2.382
2,-1,2.383
3,1,2.384
3,6,2.385
1,10,2.386
2,7,2.387
5,3,2.388
4,3,2.389
0,6,2.39
0,5,2.391
2,2,2.392
3,0,2.393
0,-3,2.394
-2,-5,2.395
-4,-7,2.396
-5,-12,2.397
-4,-13,2.398
1,-12,2.399
6,-8,2.4
3,-1,2.401
0,8,2.402
-1,13,2.403
-2,14,2.404
2,13,2.405
6,14,2.406
6,13,2.407
5,9,2.408
1,9,2.409
-2,12,2.41
-4,10,2.411
-6,0,2.412
-2,-7,2.413
5,-10,2.414
21,-9,2.415
36,-9,2.416
38,-14,2.417
21,-16,2.418
0,-17,2.419
-5,-17,2.42
-1,-14,2.421
-6,-9,2.422
-25,-8,2.423
-38,-10,2.424
-30,-11,2.425
-11,-4,2.426
2,8,2.427
11,16,2.428
20,23,2.429
28,28,2.43
22,31,2.431
3,22,2.432
-16,9,2.433
-25,-1,2.434
-26,-3,2.435
-22,-4,2.436
-11,-9,2.437
8,-12,2.438
21,-8,2.439
19,-2,2.44
13,0,2.441
17,0,2.442
31,0,2.443
34,0,2.444
22,-1,2.445
7,-4,2.446
4,-7,2.447
22,-8,2.448
52,-9,2.449
89,-8,2.45
139,-7,2.451
194,-8,2.452
218,-8,2.453
145,-6,2.454
-42,0,2.455
-250,7,2.456
-333,8,2.457
-270,3,2.458
-174,-3,2.459
-131,-5,2.46
-107,2,2.461
-53,10,2.462
-6,10,2.463
-7,4,2.464
-14,-1,2.465
18,-4,2.466
52,-9,2.467
43,-15,2.468
33,-21,2.469
62,-18,2.47
90,-7,2.471
75,1,2.472
56,5,2.473
78,4,2.474
113,4,2.475
115,11,2.476
91,19,2.477
67,20,2.478
29,14,2.479
-35,3,2.48
-89,-4,2.481
-98,-9,2.482
-80,-12,2.483
-60,-11,2.484
-35,-3,2.485
-9,6,2.486
-8,13,2.487
-31,18,2.488
-40,27,2.489
-16,33,2.49
14,30,2.491
29,19,2.492
38,14,2.493
60,11,2.494
82,0,2.495
88,-16,2.496
79,-27,2.497
59,-19,2.498
34,-10,2.499
21,-12,2.5
38,-16,2.501
94,-12,2.502
176,-7,2.503
225,-7,2.504
146,-10,2.505
-79,-7,2.506
-311,-3,2.507
-372,-2,2.508
-256,-6,2.509
-126,-5,2.51
-84,-4,2.511
-68,-7,2.512
-10,-11,2.513
64,-12,2.514
100,-7,2.515
113,-2,2.516
130,-7,2.517
117,-12,2.518
36,-11,2.519
-67,-4,2.52
-127,5,2.521
-129,11,2.522
-97,13,2.523
-58,10,2.524
-19,4,2.525
10,-4,2.526
31,-12,2.527
46,-11,2.528
51,0,2.529
52,8,2.53
62,3,2.531
82,-4,2.532
102,-2,2.533
114,9,2.534
109,15,2.535
65,16,2.536
-12,11,2.537
-64,7,2.538
-48,-3,2.539
-16,-11,2.54
-38,-11,2.541
-88,-3,2.542
-87,-3,2.543
-46,-13,2.544
-42,-19,2.545
-71,-15,2.546
-46,-8,2.547
41,-1,2.548
92,3,2.549
68,11,2.55
57,17,2.551
125,18,2.552
189,16,2.553
134,8,2.554
-28,-1,2.555
-160,-9,2.556
-171,-18,2.557
-120,-15,2.558
-85,-7,2.559
-52,-3,2.56
23,-1,2.561
98,0,2.562
89,2,2.563
4,4,2.564
-56,8,2.565
-37,15,2.566
10,20,2.567
30,16,2.568
34,6,2.569
45,-2,2.57
61,-5,2.571
88,-7,2.572
145,-9,2.573
205,-11,2.574
175,-9,2.575
31,-7,2.576
-120,-6,2.577
-179,-3,2.578
-176,-1,2.579
-185,-2,2.58
-185,-2,2.581
-116,-1,2.582
-12,-2,2.583
26,-6,2.584
-6,-6,2.585
-25,-1,2.586
-1,5,2.587
13,4,2.588
4,1,2.589
16,3,2.59
53,9,2.591
72,11,2.592
65,8,2.593
64,-2,2.594
78,-7,2.595
67,-7,2.596
31,-7,2.597
12,-7,2.598
22,-7,2.599
30,-5,2.6
17,-2,2.601
4,-2,2.602
8,-2,2.603
6,0,2.604
-12,3,2.605
-39,3,2.606
-55,2,2.607
-53,1,2.608
-30,0,2.609
10,1,2.61
48,6,2.611
72,9,2.612
87,9,2.613
87,1,2.614
54,-5,2.615
-9,-4,2.616
-55,-4,2.617
-56,-2,2.618
-33,-5,2.619
-19,-11,2.62
-10,-13,2.621
7,-10,2.622
11,-2,2.623
-10,2,2.624
-28,0,2.625
-14,0,2.626
7,0,2.627
6,2,2.628
-10,1,2.629
-8,2,2.63
7,3,2.631
3,2,2.632
-8,1,2.633
-9,2,2.634
0,6,2.635
-2,8,2.636
-15,2,2.637
-14,-2,2.638
1,0,2.639
10,5,2.64
5,8,2.641
-1,6,2.642
-1,2,2.643
-1,-1,2.644
-4,-1,2.645
-4,1,2.646
-2,2,2.647
-2,0,2.648
-4,-3,2.649
-4,-5,2.65
0,-6,2.651
4,-5,2.652
10,-3,2.653
11,-3,2.654
6,-6,2.655
-6,-7,2.656
-14,-9,2.657
-10,-11,2.658
1,-11,2.659
9,-8,2.66
11,-1,2.661
12,4,2.662
13,2,2.663
13,-2,2.664
13,-1,2.665
14,4,2.666
16,5,2.667
13,-1,2.668
0,-6,2.669
-15,-5,2.67
-18,-5,2.671
-5,-5,2.672
9,-5,2.673
10,-6,2.674
3,-5,2.675
1,-6,2.676
11,-7,2.677
21,-4,2.678
22,0,2.679
21,2,2.68
23,4,2.681
25,6,2.682
22,8,2.683
16,8,2.684
0,5,2.685
-18,4,2.686
-23,4,2.687
-8,4,2.688
19,2,2.689
33,2,2.69
21,1,2.691
-8,0,2.692
-33,-1,2.693
-48,-6,2.694
-41,-6,2.695
-14,-5,2.696
21,-7,2.697
47,-4,2.698
62,-2,2.699
75,1,2.7
71,6,2.701
36,9,2.702
-22,10,2.703
-68,6,2.704
-87,1,2.705
-85,-1,2.706
-73,-2,2.707
-52,-5,2.708
-32,-6,2.709
-27,-3,2.71
-29,2,2.711
-22,5,2.712
-3,5,2.713
14,2,2.714
21,1,2.715
22,1,2.716
26,-3,2.717
36,-6,2.718
49,-5,2.719
56,-2,2.72
48,2,2.721
32,3,2.722
25,2,2.723
29,2,2.724
26,0,2.725
15,-1,2.726
5,-3,2.727
6,-3,2.728
7,-2,2.729
0,-3,2.73
-3,-3,2.731
2,-3,2.732
6,-1,2.733
0,-2,2.734
-5,-5,2.735
-6,-5,2.736
-7,-4,2.737
-12,-1,2.738
-11,0,2.739
-1,0,2.74
5,2,2.741
-1,5,2.742
-4,5,2.743
2,3,2.744
11,1,2.745
8,1,2.746
5,-1,2.747
15,-5,2.748
35,-5,2.749
53,0,2.75
57,4,2.751
47,2,2.752
21,0,2.753
-21,-3,2.754
-67,-3,2.755
-95,-4,2.756
-91,-8,2.757
-52,-10,2.758
0,-9,2.759
28,-5,2.76
15,0,2.761
-14,6,2.762
-19,6,2.763
2,4,2.764
11,2,2.765
-7,2,2.766
-6,3,2.767
60,4,2.768
165,3,2.769
217,0,2.77
148,-2,2.771
-4,-3,2.772
-133,1,2.773
-183,1,2.774
-166,0,2.775
-143,-3,2.776
-101,-11,2.777
-57,-16,2.778
-7,-9,2.779
25,-2,2.78
4,5,2.781
-14,10,2.782
-23,4,2.783
-26,-1,2.784
-10,-6,2.785
8,-10,2.786
28,-6,2.787
44,-1,2.788
44,3,2.789
45,6,2.79
46,2,2.791
48,-1,2.792
56,-1,2.793
67,-2,2.794
87,-2,2.795
90,0,2.796
56,1,2.797
0,1,2.798
-30,1,2.799
-22,4,2.8
-3,10,2.801
3,11,2.802
11,6,2.803
24,-2,2.804
25,-7,2.805
2,-7,2.806
-15,-4,2.807
-8,-2,2.808
9,-2,2.809
11,-2,2.81
1,-1,2.811
-2,0,2.812
2,0,2.813
-1,-2,2.814
-8,-2,2.815
-12,-1,2.816
-11,-3,2.817
-12,-4,2.818
-7,-1,2.819
0,3,2.82
2,5,2.821
-4,2,2.822
-13,0,2.823
-13,1,2.824
-14,4,2.825
-16,5,2.826
-14,1,2.827
-6,-3,2.828
0,-5,2.829
2,-1,2.83
9,-2,2.831
19,-4,2.832
24,-4,2.833
18,-5,2.834
10,-5,2.835
2,-6,2.836
-4,-10,2.837
-9,-8,2.838
-5,-3,2.839
4,1,2.84
6,2,2.841
0,2,2.842
-3,5,2.843
1,4,2.844
1,0,2.845
0,0,2.846
1,4,2.847
8,6,2.848
9,3,2.849
3,-1,2.85
0,-3,2.851
-1,-1,2.852
0,2,2.853
-4,-2,2.854
-7,-5,2.855
-8,-5,2.856
-9,-4,2.857
-10,-4,2.858
-4,-6,2.859
5,-3,2.86
9,3,2.861
5,6,2.862
2,2,2.863
2,-2,2.864
3,-2,2.865
2,0,2.866
2,-1,2.867
4,-3,2.868
3,-1,2.869
-1,0,2.87
0,0,2.871
4,-2,2.872
6,-3,2.873
3,-3,2.874
0,-3,2.875
-2,-4,2.876
-3,-5,2.877
0,-7,2.878
13,-5,2.879
24,-2,2.88
21,3,2.881
4,7,2.882
-4,5,2.883
0,3,2.884
4,3,2.885
2,2,2.886
-1,2,2.887
0,2,2.888
2,-1,2.889
0,-3,2.89
-6,-1,2.891
-13,1,2.892
-18,1,2.893
-16,0,2.894
-3,-2,2.895
14,-4,2.896
24,-6,2.897
24,-6,2.898
25,-4,2.899
30,-1,2.9
29,2,2.901
15,3,2.902
-4,1,2.903
-14,-2,2.904
-13,0,2.905
-9,2,2.906
-8,1,2.907
-9,-4,2.908
-6,-5,2.909
0,-2,2.91
2,-3,2.911
0,-3,2.912
0,-1,2.913
2,1,2.914
2,0,2.915
-3,-6,2.916
-9,-8,2.917
-5,-3,2.918
3,1,2.919
8,3,2.92
6,4,2.921
2,7,2.922
4,6,2.923
8,4,2.924
13,3,2.925
20,4,2.926
28,2,2.927
23,0,2.928
2,-2,2.929
-18,-2,2.93
-17,-4,2.931
0,-6,2.932
6,-6,2.933
-11,-5,2.934
-26,-6,2.935
-22,-6,2.936
-10,-9,2.937
-5,-7,2.938
0,-4,2.939
13,0,2.94
20,4,2.941
10,9,2.942
0,8,2.943
5,6,2.944
14,2,2.945
12,1,2.946
4,0,2.947
3,-1,2.948
6,0,2.949
2,0,2.95
-2,0,2.951
-1,-2,2.952
4,-3,2.953
6,-3,2.954
4,-3,2.955
3,-3,2.956
0,-6,2.957
-8,-5,2.958
-15,-2,2.959
-13,0,2.96
-4,5,2.961
7,6,2.962
19,3,2.963
28,-3,2.964
31,-7,2.965
31,-5,2.966
29,-3,2.967
21,-4,2.968
4,-7,2.969
-12,-8,2.97
-14,-7,2.971
-2,-4,2.972
7,0,2.973
2,1,2.974
-3,0,2.975
-3,-2,2.976
-4,-4,2.977
-8,-4,2.978
-8,-3,2.979
-5,0,2.98
-8,5,2.981
-17,9,2.982
-19,10,2.983
-12,9,2.984
-13,8,2.985
-23,7,2.986
-24,5,2.987
-7,2,2.988
14,1,2.989
24,1,2.99
41,-2,2.991
79,-6,2.992
113,-7,2.993
83,-9,2.994
0,-10,2.995
-71,-11,2.996
-67,-9,2.997
-14,-4,2.998
21,-3,2.999
11,-5,3.0
-14,-3,3.001
-25,3,3.002
-27,7,3.003
-18,1,3.004
0,-2,3.005
12,0,3.006
1,1,3.007
-10,-5,3.008
-6,-8,3.009
3,-4,3.01
0,2,3.011
-6,1,3.012
0,0,3.013
13,1,3.014
13,5,3.015
5,3,3.016
5,-4,3.017
11,-3,3.018
13,0,3.019
11,0,3.02
12,0,3.021
8,6,3.022
-8,11,3.023
-29,7,3.024
-43,0,3.025
-40,0,3.026
-19,4,3.027
15,3,3.028
40,-2,3.029
45,-4,3.03
45,-2,3.031
54,-1,3.032
62,-4,3.033
48,-8,3.034
16,-9,3.035
-12,-6,3.036
-20,-6,3.037
-13,-4,3.038
-5,-2,3.039
-1,1,3.04
-3,3,3.041
-9,3,3.042
-9,1,3.043
-5,1,3.044
-4,3,3.045
-6,3,3.046
-6,2,3.047
0,0,3.048
5,0,3.049
5,0,3.05
1,-1,3.051
-2,0,3.052
-3,1,3.053
-5,0,3.054
-7,-4,3.055
-8,-4,3.056
-10,-2,3.057
-8,-1,3.058
0,-6,3.059
9,-5,3.06
9,1,3.061
2,7,3.062
0,4,3.063
2,-1,3.064
6,-1,3.065
5,2,3.066
3,1,3.067
3,0,3.068
5,0,3.069
3,2,3.07
0,1,3.071
-2,-2,3.072
1,-3,3.073
5,-3,3.074
4,-2,3.075
-3,-3,3.076
-9,-6,3.077
-6,-6,3.078
4,-3,3.079
11,1,3.08
11,3,3.081
9,4,3.082
11,4,3.083
11,5,3.084
5,4,3.085
1,2,3.086
3,0,3.087
8,-2,3.088
8,-4,3.089
5,-4,3.09
5,-1,3.091
7,-1,3.092
7,0,3.093
6,-3,3.094
3,-5,3.095
-3,-4,3.096
-8,-6,3.097
-6,-4,3.098
1,-4,3.099
8,-3,3.1
7,0,3.101
1,2,3.102
1,0,3.103
6,-2,3.104
7,-1,3.105
4,4,3.106
2,5,3.107
3,0,3.108
4,-3,3.109
5,-4,3.11
5,-5,3.111
7,-4,3.112
6,0,3.113
4,0,3.114
2,-3,3.115
-2,-5,3.116
-8,-3,3.117
-9,-2,3.118
-1,-3,3.119
7,-3,3.12
9,1,3.121
2,5,3.122
-1,1,3.123
2,-4,3.124
5,-1,3.125
4,4,3.126
4,3,3.127
5,0,3.128
6,1,3.129
4,5,3.13
3,5,3.131
3,3,3.132
1,4,3.133
0,3,3.134
1,-2,3.135
-1,-8,3.136
-5,-10,3.137
-8,-6,3.138
-4,0,3.139
3,2,3.14
8,1,3.141
5,0,3.142
1,-1,3.143
1,0,3.144
3,4,3.145
2,4,3.146
4,1,3.147
7,-1,3.148
6,0,3.149
3,1,3.15
1,-2,3.151
-2,-5,3.152
-3,-4,3.153
-1,-4,3.154
2,-4,3.155
2,-2,3.156
-3,-6,3.157
-4,-8,3.158
4,-8,3.159
12,-2,3.16
8,4,3.161
0,5,3.162
-2,2,3.163
4,0,3.164
6,1,3.165
5,2,3.166
3,2,3.167
3,1,3.168
2,2,3.169
-1,2,3.17
2,0,3.171
10,0,3.172
12,1,3.173
6,0,3.174
0,-3,3.175
-4,-4,3.176
-7,-6,3.177
-8,-7,3.178
-4,-7,3.179
6,-5,3.18
11,0,3.181
8,5,3.182
3,4,3.183
5,1,3.184
6,2,3.185
4,7,3.186
0,7,3.187
0,3,3.188
1,0,3.189
0,0,3.19
0,0,3.191
1,-2,3.192
2,-3,3.193
1,-2,3.194
0,-1,3.195
0,-3,3.196
2,-8,3.197
4,-6,3.198
7,-1,3.199
11,1,3.2
9,0,3.201
2,1,3.202
0,3,3.203
4,2,3.204
8,0,3.205
7,0,3.206
3,2,3.207
4,1,3.208
4,-2,3.209
3,-3,3.21
2,-3,3.211
5,-1,3.212
9,0,3.213
4,-3,3.214
-2,-5,3.215
-6,-6,3.216
-8,-7,3.217
-8,-3,3.218
-2,-1,3.219
7,-1,3.22
10,-1,3.221
2,0,3.222
-4,4,3.223
-3,4,3.224
2,2,3.225
5,-1,3.226
6,0,3.227
8,1,3.228
9,1,3.229
4,0,3.23
-4,-1,3.231
-5,0,3.232
0,0,3.233
3,-4,3.234
-1,-4,3.235
-12,-1,3.236
-16,-3,3.237
-6,-7,3.238
11,-8,3.239
21,-3,3.24
23,4,3.241
18,6,3.242
15,3,3.243
14,2,3.244
12,1,3.245
5,2,3.246
1,0,3.247
0,-1,3.248
0,-3,3.249
-3,-1,3.25
-4,1,3.251
-4,2,3.252
-3,0,3.253
-11,-2,3.254
-22,-2,3.255
-25,-3,3.256
-15,-8,3.257
3,-11,3.258
17,-9,3.259
22,-2,3.26
22,4,3.261
23,4,3.262
25,0,3.263
22,-3,3.264
14,-3,3.265
5,-1,3.266
4,-1,3.267
6,-3,3.268
-1,-2,3.269
-18,0,3.27
-31,1,3.271
-27,1,3.272
-14,2,3.273
-5,0,3.274
-2,-4,3.275
0,-6,3.276
-2,-6,3.277
-4,-1,3.278
-2,4,3.279
1,5,3.28
6,4,3.281
10,4,3.282
7,3,3.283
5,0,3.284
6,-2,3.285
8,-2,3.286
6,1,3.287
5,1,3.288
6,0,3.289
6,0,3.29
2,0,3.291
-1,-1,3.292
-1,-4,3.293
0,-6,3.294
-2,-3,3.295
-3,-1,3.296
-2,-5,3.297
0,-7,3.298
6,-6,3.299
15,-1,3.3
15,3,3.301
6,6,3.302
2,7,3.303
12,3,3.304
23,-2,3.305
24,-3,3.306
18,0,3.307
11,1,3.308
6,-1,3.309
1,-3,3.31
0,-4,3.311
1,-3,3.312
1,0,3.313
-3,2,3.314
-6,2,3.315
-8,1,3.316
-14,-5,3.317
-25,-8,3.318
-24,-6,3.319
-13,-1,3.32
3,4,3.321
13,5,3.322
16,3,3.323
17,1,3.324
21,4,3.325
22,5,3.326
18,1,3.327
8,-3,3.328
0,-2,3.329
-3,-1,3.33
-3,-1,3.331
-4,-3,3.332
-7,-1,3.333
-10,0,3.334
-8,-3,3.335
-6,-5,3.336
-7,-7,3.337
-7,-3,3.338
-2,-1,3.339
4,1,3.34
4,4,3.341
0,5,3.342
-1,2,3.343
4,-1,3.344
7,-2,3.345
4,-1,3.346
3,0,3.347
8,0,3.348
8,-1,3.349
5,-1,3.35
3,-2,3.351
7,-3,3.352
10,-3,3.353
5,-3,3.354
0,0,3.355
-4,4,3.356
-5,2,3.357
-5,-4,3.358
0,-7,3.359
9,-4,3.36
15,2,3.361
10,4,3.362
5,2,3.363
9,0,3.364
19,1,3.365
23,5,3.366
16,3,3.367
-1,0,3.368
-15,-3,3.369
-18,-3,3.37
-11,-2,3.371
-2,-2,3.372
4,-1,3.373
4,-3,3.374
2,-6,3.375
-6,-7,3.376
-14,-8,3.377
-14,-8,3.378
-4,-4,3.379
4,0,3.38
8,2,3.381
9,0,3.382
18,-1,3.383
25,0,3.384
19,1,3.385
-1,2,3.386
-18,0,3.387
-18,-2,3.388
-8,-2,3.389
0,-1,3.39
9,-1,3.391
18,0,3.392
19,1,3.393
9,2,3.394
-1,0,3.395
-3,-2,3.396
0,-6,3.397
0,-5,3.398
1,-1,3.399
6,-1,3.4
8,1,3.401
2,5,3.402
-1,8,3.403
3,5,3.404
11,1,3.405
10,2,3.406
6,3,3.407
6,0,3.408
6,-2,3.409
1,0,3.41
-7,3,3.411
-12,1,3.412
-13,0,3.413
-9,1,3.414
0,0,3.415
6,-4,3.416
7,-9,3.417
1,-7,3.418
5,-2,3.419
18,-2,3.42
26,-4,3.421
19,-2,3.422
8,0,3.423
2,2,3.424
-1,4,3.425
-2,5,3.426
-3,2,3.427
0,-3,3.428
1,-3,3.429
1,-1,3.43
0,0,3.431
-1,-2,3.432
-1,-1,3.433
1,-1,3.434
3,0,3.435
-1,0,3.436
-8,-1,3.437
-10,-3,3.438
-2,-2,3.439
7,0,3.44
6,3,3.441
0,5,3.442
-2,2,3.443
1,0,3.444
3,0,3.445
0,-1,3.446
1,0,3.447
5,1,3.448
9,0,3.449
9,-2,3.45
9,-5,3.451
12,-7,3.452
17,-5,3.453
18,-2,3.454
17,1,3.455
6,4,3.456
-7,1,3.457
-18,-1,3.458
-22,-5,3.459
-24,-6,3.46
-27,-2,3.461
-23,2,3.462
-6,1,3.463
11,-3,3.464
17,-6,3.465
16,-5,3.466
15,-3,3.467
12,-1,3.468
6,0,3.469
-1,1,3.47
-2,0,3.471
0,-1,3.472
2,1,3.473
4,2,3.474
12,2,3.475
25,0,3.476
46,-4,3.477
62,0,3.478
50,5,3.479
4,9,3.48
-45,7,3.481
-61,5,3.482
-43,5,3.483
-24,3,3.484
-17,2,3.485
-9,0,3.486
3,-1,3.487
10,0,3.488
10,1,3.489
16,-2,3.49
24,-6,3.491
18,-8,3.492
5,-7,3.493
2,-5,3.494
8,-6,3.495
3,-5,3.496
-9,-3,3.497
-10,0,3.498
0,1,3.499
4,0,3.5
-1,-2,3.501
-2,-3,3.502
5,-6,3.503
8,-7,3.504
5,-7,3.505
3,-6,3.506
8,-3,3.507
13,-4,3.508
11,-3,3.509
6,-1,3.51
2,0,3.511
0,-1,3.512
2,-2,3.513
3,-2,3.514
6,-3,3.515
1,-3,3.516
-4,-5,3.517
-6,-2,3.518
0,2,3.519
10,6,3.52
13,6,3.521
6,4,3.522
2,3,3.523
2,1,3.524
3,1,3.525
0,1,3.526
-2,3,3.527
0,1,3.528
3,-1,3.529
2,-1,3.53
0,2,3.531
1,3,3.532
3,2,3.533
2,-4,3.534
-1,-4,3.535
-3,-3,3.536
-3,-4,3.537
-1,-3,3.538
4,-2,3.539
15,-1,3.54
21,0,3.541
17,5,3.542
4,7,3.543
-9,4,3.544
-15,0,3.545
-14,-2,3.546
-7,-1,3.547
3,-2,3.548
10,-5,3.549
11,-5,3.55
6,-3,3.551
1,-6,3.552
2,-8,3.553
3,-9,3.554
1,-5,3.555
-6,-3,3.556
-13,-6,3.557
-12,-7,3.558
-3,-5,3.559
10,-1,3.56
22,3,3.561
28,4,3.562
25,4,3.563
11,3,3.564
-7,4,3.565
-18,5,3.566
-19,6,3.567
-16,5,3.568
-14,3,3.569
-7,0,3.57
1,-4,3.571
7,-7,3.572
4,-7,3.573
0,-4,3.574
2,-4,3.575
8,-4,3.576
12,-4,3.577
12,-2,3.578
13,0,3.579
15,1,3.58
9,4,3.581
0,6,3.582
-5,6,3.583
-1,3,3.584
5,2,3.585
5,1,3.586
1,0,3.587
0,-3,3.588
2,-1,3.589
3,2,3.59
3,0,3.591
4,-4,3.592
6,-2,3.593
3,1,3.594
0,1,3.595
-3,-5,3.596
-6,-8,3.597
-8,-3,3.598
-3,4,3.599
7,3,3.6
12,0,3.601
7,0,3.602
1,1,3.603
3,-1,3.604
7,-3,3.605
7,0,3.606
3,3,3.607
2,0,3.608
3,-4,3.609
4,-1,3.61
7,2,3.611
8,0,3.612
8,-3,3.613
3,-5,3.614
1,-5,3.615
2,-8,3.616
1,-12,3.617
-1,-9,3.618
0,-3,3.619
6,0,3.62
8,2,3.621
2,3,3.622
0,2,3.623
1,-1,3.624
-1,-2,3.625
-12,2,3.626
-19,4,3.627
-14,1,3.628
-6,-1,3.629
-2,1,3.63
2,2,3.631
8,-1,3.632
16,-2,3.633
22,-4,3.634
31,-4,3.635
33,-3,3.636
26,-5,3.637
16,-4,3.638
16,-3,3.639
18,-2,3.64
3,5,3.641
-23,10,3.642
-41,7,3.643
-36,-1,3.644
-22,-5,3.645
-10,-3,3.646
1,-2,3.647
14,-6,3.648
14,-5,3.649
1,-3,3.65
-8,0,3.651
-4,-1,3.652
8,-2,3.653
11,-2,3.654
11,-3,3.655
13,-3,3.656
25,-3,3.657
38,-1,3.658
37,2,3.659
15,3,3.66
-20,3,3.661
-38,3,3.662
-31,2,3.663
-17,1,3.664
-17,1,3.665
-19,0,3.666
-4,-2,3.667
15,-6,3.668
14,-7,3.669
1,-6,3.67
-2,-5,3.671
7,-1,3.672
14,3,3.673
10,3,3.674
5,0,3.675
3,-4,3.676
0,-4,3.677
-3,0,3.678
0,1,3.679
11,3,3.68
15,3,3.681
8,4,3.682
2,2,3.683
4,2,3.684
8,2,3.685
7,3,3.686
2,2,3.687
0,1,3.688
-2,1,3.689
-3,0,3.69
1,-1,3.691
17,0,3.692
42,3,3.693
70,4,3.694
94,3,3.695
102,1,3.696
90,-2,3.697
57,-3,3.698
12,-2,3.699
-41,-2,3.7
-91,-2,3.701
-119,-2,3.702
-121,-2,3.703
-108,-7,3.704
-95,-11,3.705
-86,-13,3.706
-72,-12,3.707
-48,-9,3.708
-12,-7,3.709
46,-5,3.71
124,-2,3.711
173,1,3.712
139,4,3.713
25,0,3.714
-69,-1,3.715
-131,-4,3.716
-93,-3,3.717
-61,-2,3.718
-47,-2,3.719
-26,-3,3.72
12,-4,3.721
42,-6,3.722
44,-5,3.723
47,-3,3.724
51,1,3.725
49,2,3.726
31,-6,3.727
17,-13,3.728
16,-17,3.729
13,-19,3.73
7,-12,3.731
6,-5,3.732
21,0,3.733
33,6,3.734
24,6,3.735
16,3,3.736
17,0,3.737
20,2,3.738
27,12,3.739
38,26,3.74
41,34,3.741
36,33,3.742
40,21,3.743
64,6,3.744
75,-1,3.745
47,-3,3.746
-3,-4,3.747
-41,-5,3.748
-52,-5,3.749
-47,-4,3.75
-41,-5,3.751
-42,-9,3.752
-48,-8,3.753
-50,0,3.754
-36,15,3.755
-21,23,3.756
-24,5,3.757
-36,-26,3.758
-20,-47,3.759
24,-41,3.76
59,-28,3.761
48,-34,3.762
8,-62,3.763
-9,-92,3.764
30,-113,3.765
102,-119,3.766
128,-108,3.767
60,-74,3.768
-35,-21,3.769
-35,27,3.77
75,50,3.771
154,42,3.772
94,31,3.773
-66,46,3.774
-178,100,3.775
-180,162,3.776
-134,193,3.777
-103,191,3.778
-95,169,3.779
-109,139,3.78
-146,108,3.781
-164,84,3.782
-117,67,3.783
-24,43,3.784
48,10,3.785
74,-8,3.786
76,-15,3.787
72,-38,3.788
50,-85,3.789
17,-117,3.79
-2,-95,3.791
5,-41,3.792
28,0,3.793
55,7,3.794
70,0,3.795
68,6,3.796
65,26,3.797
82,35,3.798
113,-7,3.799
117,-100,3.8
69,-186,3.801
7,-208,3.802
-1,-174,3.803
70,-135,3.804
157,-113,3.805
151,-90,3.806
18,-41,3.807
-150,43,3.808
-221,151,3.809
-164,245,3.81
-65,273,3.811
-12,212,3.812
-14,110,3.813
-34,2,3.814
-34,-73,3.815
4,-105,3.816
78,-100,3.817
149,-85,3.818
168,-94,3.819
130,-134,3.82
72,-188,3.821
39,-222,3.822
32,-189,3.823
14,-64,3.824
-46,107,3.825
-119,243,3.826
-148,309,3.827
-110,343,3.828
-45,359,3.829
-3,292,3.83
6,123,3.831
-1,-55,3.832
-17,-138,3.833
-47,-139,3.834
-70,-140,3.835
-66,-169,3.836
-41,-184,3.837
-33,-152,3.838
-49,-100,3.839
-50,-51,3.84
6,0,3.841
101,44,3.842
169,62,3.843
177,78,3.844
154,119,3.845
130,149,3.846
80,96,3.847
-28,-18,3.848
-154,-91,3.849
-202,-74,3.85
-144,-23,3.851
-64,-7,3.852
-38,-11,3.853
-36,-3,3.854
19,34,3.855
121,69,3.856
185,59,3.857
161,-20,3.858
65,-147,3.859
-62,-246,3.86
-185,-252,3.861
-242,-170,3.862
-202,-66,3.863
-114,3,3.864
-40,30,3.865
53,51,3.866
212,114,3.867
367,211,3.868
380,255,3.869
252,180,3.87
116,45,3.871
41,-49,3.872
-23,-85,3.873
-127,-121,3.874
-200,-163,3.875
-190,-181,3.876
-156,-171,3.877
-137,-133,3.878
-76,-48,3.879
39,67,3.88
97,113,3.881
43,55,3.882
-13,12,3.883
21,81,3.884
58,172,3.885
28,177,3.886
43,150,3.887
199,183,3.888
337,203,3.889
248,104,3.89
-8,-40,3.891
-197,-98,3.892
-247,-99,3.893
-262,-152,3.894
-276,-223,3.895
-226,-186,3.896
-105,-50,3.897
2,52,3.898
93,90,3.899
233,152,3.9
368,238,3.901
342,223,3.902
137,70,3.903
-60,-82,3.904
-115,-120,3.905
-101,-94,3.906
-140,-107,3.907
-214,-160,3.908
-215,-201,3.909
-100,-209,3.91
59,-198,3.911
154,-187,3.912
122,-186,3.913
-6,-169,3.914
-93,-47,3.915
-47,192,3.916
38,387,3.917
8,378,3.918
-120,233,3.919
-200,125,3.92
-186,76,3.921
-184,-14,3.922
-233,-121,3.923
-234,-126,3.924
-134,-52,3.925
6,-14,3.926
141,-3,3.927
281,53,3.928
363,92,3.929
288,30,3.93
131,-24,3.931
95,58,3.932
181,155,3.933
176,66,3.934
-27,-138,3.935
-214,-192,3.936
-154,-53,3.937
42,63,3.938
119,52,3.939
48,14,3.94
-5,4,3.941
14,-40,3.942
9,-98,3.943
-64,-74,3.944
-137,-5,3.945
-151,-10,3.946
-103,-62,3.947
-9,-39,3.948
89,50,3.949
132,104,3.95
137,125,3.951
184,166,3.952
256,175,3.953
231,63,3.954
54,-102,3.955
-139,-181,3.956
-219,-175,3.957
-228,-176,3.958
-239,-176,3.959
-193,-101,3.96
-36,9,3.961
132,51,3.962
189,27,3.963
162,23,3.964
132,38,3.965
86,13,3.966
-14,-19,3.967
-102,11,3.968
-97,57,3.969
-40,4,3.97
-24,-120,3.971
-51,-166,3.972
-64,-99,3.973
-57,-14,3.974
-57,19,3.975
-48,52,3.976
8,118,3.977
102,161,3.978
173,137,3.979
182,85,3.98
137,49,3.981
87,20,3.982
57,-9,3.983
17,-18,3.984
-63,-10,3.985
-126,-4,3.986
-58,10,3.987
102,45,3.988
151,66,3.989
-20,27,3.99
-246,-29,3.991
-284,-16,3.992
-123,81,3.993
48,172,3.994
84,184,3.995
73,169,3.996
-76,71,3.997
-187,-28,3.998
-180,-128,3.999
-175,-216,4.0
-181,-268,4.001
-184,-299,4.002
-171,-263,4.003
-128,-202,4.004
5,-64,4.005
139,48,4.006
271,84,4.007
356,83,4.008
297,-29,4.009
229,-108,4.01
133,-89,4.011
50,-36,4.012
10,120,4.013
-37,268,4.014
-67,362,4.015
0,414,4.016
103,392,4.017
132,254,4.018
67,52,4.019
-19,-83,4.02
-70,-107,4.021
-73,-105,4.022
-44,-144,4.023
-20,-182,4.024
-39,-172,4.025
-103,-142,4.026
-171,-116,4.027
-181,-56,4.028
-91,46,4.029
84,111,4.03
239,60,4.031
238,-66,4.032
77,-158,4.033
-125,-177,4.034
-225,-151,4.035
-213,-110,4.036
-147,-38,4.037
-9,74,4.038
205,152,4.039
347,118,4.04
262,-8,4.041
36,-111,4.042
-83,-120,4.043
-16,-92,4.044
75,-131,4.045
63,-238,4.046
2,-302,4.047
-15,-239,4.048
9,-90,4.049
26,21,4.05
18,42,4.051
0,38,4.052
10,99,4.053
66,237,4.054
97,368,4.055
-8,429,4.056
-214,457,4.057
-321,494,4.058
-238,472,4.059
-128,306,4.06
-134,53,4.061
-158,-141,4.062
-67,-215,4.063
56,-224,4.064
59,-217,4.065
0,-169,4.066
36,-78,4.067
140,-14,4.068
165,-12,4.069
113,-13,4.07
103,24,4.071
124,25,4.072
66,-76,4.073
-95,-246,4.074
-228,-355,4.075
-263,-356,4.076
-232,-309,4.077
-122,-232,4.078
116,-107,4.079
372,29,4.08
417,90,4.081
213,66,4.082
3,56,4.083
-24,109,4.084
44,156,4.085
25,127,4.086
-76,46,4.087
-147,-16,4.088
-155,-44,4.089
-123,-40,4.09
-22,24,4.091
140,139,4.092
238,211,4.093
172,138,4.094
23,-39,4.095
-44,-180,4.096
4,-189,4.097
80,-87,4.098
142,80,4.099
188,276,4.1
153,394,4.101
-10,315,4.102
-198,70,4.103
-273,-156,4.104
-248,-263,4.105
-230,-328,4.106
-241,-420,4.107
-226,-461,4.108
-189,-366,4.109
-155,-179,4.11
-39,20,4.111
262,211,4.112
616,352,4.113
759,365,4.114
507,233,4.115
15,110,4.116
-338,148,4.117
-331,319,4.118
-75,470,4.119
127,520,4.12
81,493,4.121
-136,433,4.122
-292,354,4.123
-263,262,4.124
-129,144,4.125
-18,-26,4.126
62,-242,4.127
142,-423,4.128
175,-478,4.129
106,-380,4.13
-2,-207,4.131
-49,-94,4.132
-52,-107,4.133
-102,-207,4.134
-185,-304,4.135
-190,-372,4.136
-88,-416,4.137
26,-404,4.138
80,-322,4.139
98,-237,4.14
112,-241,4.141
114,-326,4.142
97,-410,4.143
72,-419,4.144
29,-311,4.145
-53,-99,4.146
-175,108,4.147
-293,161,4.148
-346,24,4.149
-285,-179,4.15
-110,-320,4.151
103,-370,4.152
245,-337,4.153
267,-171,4.154
223,190,4.155
194,742,4.156
212,1334,4.157
198,1743,4.158
80,1812,4.159
-38,1570,4.16
-158,1154,4.161
-248,641,4.162
-248,41,4.163
-228,-560,4.164
-144,-983,4.165
-26,-1112,4.166
194,-955,4.167
363,-583,4.168
379,-135,4.169
376,206,4.17
313,312,4.171
245,209,4.172
163,24,4.173
50,-132,4.174
-150,-202,4.175
-237,1,4.176
-146,435,4.177
-44,831,4.178
-104,958,4.179
-267,829,4.18
-345,535,4.181
-280,75,4.182
-166,-481,4.183
-82,-882,4.184
-5,-983,4.185
104,-922,4.186
222,-884,4.187
285,-830,4.188
236,-654,4.189
99,-390,4.19
-23,-121,4.191
-40,159,4.192
15,409,4.193
65,519,4.194
43,383,4.195
0,165,4.196
-26,9,4.197
-28,-75,4.198
-8,-143,4.199
19,-201,4.2
20,-245,4.201
-12,-282,4.202
-46,-286,4.203
-48,-222,4.204
-17,-128,4.205
27,-84,4.206
53,-101,4.207
14,-107,4.208
-81,-54,4.209
-131,32,4.21
-57,96,4.211
70,84,4.212
110,-17,4.213
29,-179,4.214
-64,-298,4.215
-99,-317,4.216
-126,-260,4.217
-184,-162,4.218
-200,-32,4.219
-113,97,4.22
9,179,4.221
62,231,4.222
35,334,4.223
1,513,4.224
12,672,4.225
71,699,4.226
126,563,4.227
115,320,4.228
40,59,4.229
2,-131,4.23
95,-212,4.231
272,-208,4.232
383,-170,4.233
317,-150,4.234
114,-219,4.235
-75,-426,4.236
-224,-702,4.237
-317,-849,4.238
-242,-700,4.239
-173,-268,4.24
-127,266,4.241
-85,653,4.242
-54,714,4.243
-47,457,4.244
-113,92,4.245
-156,-144,4.246
-124,-152,4.247
-76,33,4.248
19,350,4.249
77,693,4.25
23,895,4.251
-18,846,4.252
-22,651,4.253
38,470,4.254
296,373,4.255
395,263,4.256
245,58,4.257
57,-160,4.258
46,-274,4.259
178,-293,4.26
264,-326,4.261
220,-424,4.262
98,-518,4.263
-47,-538,4.264
-203,-512,4.265
-328,-513,4.266
-363,-528,4.267
-306,-465,4.268
-225,-268,4.269
-154,9,4.27
-68,258,4.271
41,402,4.272
129,435,4.273
168,404,4.274
185,385,4.275
218,391,4.276
262,340,4.277
271,173,4.278
226,-47,4.279
156,-198,4.28
120,-251,4.281
128,-280,4.282
116,-320,4.283
12,-327,4.284
-139,-278,4.285
-222,-225,4.286
-196,-193,4.287
-129,-142,4.288
-64,-41,4.289
8,69,4.29
44,125,4.291
-39,114,4.292
-198,69,4.293
-302,11,4.294
-269,-34,4.295
-189,-75,4.296
-156,-124,4.297
-133,-154,4.298
-51,-133,4.299
49,-71,4.3
91,-22,4.301
92,-11,4.302
82,-29,4.303
25,-84,4.304
-89,-195,4.305
-147,-302,4.306
-46,-287,4.307
132,-108,4.308
208,148,4.309
146,368,4.31
77,494,4.311
95,489,4.312
155,342,4.313
184,102,4.314
166,-67,4.315
115,-150,4.316
-38,31,4.317
-161,189,4.318
-191,280,4.319
-198,346,4.32
-135,336,4.321
-87,308,4.322
-81,229,4.323
-50,166,4.324
55,155,4.325
130,138,4.326
111,104,4.327
74,67,4.328
-17,18,4.329
-50,-26,4.33
95,-57,4.331
210,-92,4.332
236,-138,4.333
236,-195,4.334
132,-314,4.335
5,-472,4.336
-98,-589,4.337
-105,-617,4.338
-31,-583,4.339
8,-529,4.34
-37,-450,4.341
-81,-332,4.342
-78,-167,4.343
-99,28,4.344
-174,217,4.345
-207,371,4.346
-151,518,4.347
-84,700,4.348
-57,875,4.349
-19,909,4.35
51,732,4.351
90,425,4.352
92,161,4.353
130,0,4.354
213,-46,4.355
243,-45,4.356
192,-84,4.357
149,-215,4.358
141,-411,4.359
78,-599,4.36
-61,-736,4.361
-152,-803,4.362
-132,-786,4.363
-106,-700,4.364
-163,-604,4.365
-241,-522,4.366
-239,-391,4.367
-162,-119,4.368
-76,304,4.369
-17,792,4.37
8,1219,4.371
11,1445,4.372
47,1410,4.373
162,1141,4.374
280,773,4.375
260,410,4.376
99,77,4.377
-41,-183,4.378
-49,-300,4.379
9,-286,4.38
36,-254,4.381
54,-277,4.382
127,-313,4.383
213,-321,4.384
211,-344,4.385
129,-410,4.386
64,-464,4.387
40,-452,4.388
-29,-415,4.389
-177,-409,4.39
-298,-413,4.391
-299,-377,4.392
-236,-319,4.393
-202,-274,4.394
-171,-220,4.395
-128,-133,4.396
-46,51,4.397
8,203,4.398
-21,259,4.399
-39,293,4.4
-25,262,4.401
-23,223,4.402
-56,163,4.403
-56,99,4.404
41,24,4.405
124,-67,4.406
160,-204,4.407
199,-277,4.408
251,-158,4.409
246,-59,4.41
72,-18,4.411
-77,-24,4.412
-149,-174,4.413
-195,-289,4.414
-158,-261,4.415
-98,-241,4.416
9,-251,4.417
145,-166,4.418
218,102,4.419
165,523,4.42
48,959,4.421
10,1251,4.422
99,1279,4.423
197,1041,4.424
165,661,4.425
38,309,4.426
-45,82,4.427
-37,-40,4.428
-26,-120,4.429
-85,-171,4.43
-172,-182,4.431
-209,-190,4.432
-185,-249,4.433
-143,-379,4.434
-147,-520,4.435
-218,-647,4.436
-312,-793,4.437
-352,-928,4.438
-295,-924,4.439
-159,-676,4.44
32,-231,4.441
272,288,4.442
526,810,4.443
689,1287,4.444
649,1609,4.445
427,1652,4.446
182,1414,4.447
62,1006,4.448
60,547,4.449
54,107,4.45
-19,-243,4.451
-97,-437,4.452
-108,-488,4.453
-77,-505,4.454
-67,-587,4.455
-92,-732,4.456
-120,-854,4.457
-137,-861,4.458
-143,-747,4.459
-116,-579,4.46
-17,-435,4.461
136,-347,4.462
253,-316,4.463
231,-326,4.464
54,-325,4.465
-160,-224,4.466
-277,6,4.467
-275,260,4.468
-234,389,4.469
-175,365,4.47
-39,252,4.471
172,84,4.472
324,-130,4.473
314,-364,4.474
170,-488,4.475
16,-451,4.476
-70,-334,4.477
-130,-207,4.478
-215,-84,4.479
-309,-4,4.48
-338,-65,4.481
-268,-281,4.482
-166,-460,4.483
-109,-363,4.484
-73,42,4.485
34,549,4.486
225,895,4.487
386,947,4.488
384,746,4.489
198,477,4.49
-60,375,4.491
-223,515,4.492
-205,721,4.493
-72,786,4.494
43,667,4.495
70,467,4.496
60,250,4.497
74,-6,4.498
115,-262,4.499
151,-410,4.5
149,-431,4.501
72,-412,4.502
-52,-398,4.503
-137,-367,4.504
-124,-335,4.505
-77,-357,4.506
-71,-408,4.507
-80,-409,4.508
-41,-349,4.509
29,-285,4.51
71,-213,4.511
74,-70,4.512
80,113,4.513
93,240,4.514
85,243,4.515
51,171,4.516
30,111,4.517
40,82,4.518
55,43,4.519
35,-16,4.52
-12,-68,4.521
-37,-81,4.522
-15,-56,4.523
25,-16,4.524
41,14,4.525
36,22,4.526
39,7,4.527
47,-29,4.528
34,-76,4.529
2,-102,4.53
5,-77,4.531
68,1,4.532
131,90,4.533
102,143,4.534
-36,135,4.535
-189,79,4.536
-236,26,4.537
-166,26,4.538
-75,72,4.539
-44,118,4.54
-73,125,4.541
-120,104,4.542
-154,85,4.543
-154,77,4.544
-106,60,4.545
-27,9,4.546
50,-76,4.547
105,-169,4.548
128,-234,4.549
104,-246,4.55
40,-210,4.551
-20,-163,4.552
-24,-143,4.553
20,-148,4.554
69,-152,4.555
109,-133,4.556
118,-40,4.557
109,81,4.558
44,285,4.559
-8,445,4.56
-23,475,4.561
-35,463,4.562
-33,319,4.563
-43,191,4.564
-88,110,4.565
-111,56,4.566
-63,86,4.567
-16,96,4.568
25,42,4.569
63,-14,4.57
87,-78,4.571
99,-144,4.572
75,-214,4.573
53,-283,4.574
45,-327,4.575
38,-321,4.576
26,-256,4.577
13,-129,4.578
3,16,4.579
6,102,4.58
24,89,4.581
40,18,4.582
42,-53,4.583
26,-87,4.584
-10,-73,4.585
-81,-22,4.586
-163,36,4.587
-181,67,4.588
-91,66,4.589
50,53,4.59
152,37,4.591
177,17,4.592
154,4,4.593
109,0,4.594
56,-3,4.595
2,-17,4.596
-43,-31,4.597
-72,-28,4.598
-78,-22,4.599
-63,-34,4.6
-45,-46,4.601
-40,-37,4.602
-43,-22,4.603
-39,-23,4.604
-26,-33,4.605
-15,-28,4.606
-10,-7,4.607
-5,14,4.608
-1,33,4.609
-5,43,4.61
-15,32,4.611
-15,9,4.612
-3,0,4.613
18,6,4.614
53,8,4.615
91,-7,4.616
94,-25,4.617
32,-23,4.618
-57,-21,4.619
-89,-28,4.62
-46,-23,4.621
2,18,4.622
-8,83,4.623
-52,128,4.624
-66,134,4.625
-46,110,4.626
-25,69,4.627
-19,25,4.628
-7,-11,4.629
15,-32,4.63
34,-37,4.631
38,-31,4.632
36,-20,4.633
27,-11,4.634
23,-9,4.635
28,-14,4.636
44,-20,4.637
68,-14,4.638
88,-7,4.639
97,-4,4.64
100,0,4.641
116,2,4.642
142,-10,4.643
124,-36,4.644
10,-54,4.645
-141,-47,4.646
-205,-18,4.647
-143,12,4.648
-55,39,4.649
-38,53,4.65
-71,45,4.651
-90,20,4.652
-89,5,4.653
-109,8,4.654
-129,19,4.655
-102,16,4.656
-27,7,4.657
35,8,4.658
46,9,4.659
33,-2,4.66
36,-15,4.661
56,-14,4.662
68,-9,4.663
61,-14,4.664
47,-28,4.665
37,-32,4.666
32,-27,4.667
36,-25,4.668
46,-25,4.669
52,-19,4.67
47,-12,4.671
39,-10,4.672
38,-5,4.673
41,7,4.674
37,22,4.675
30,26,4.676
34,21,4.677
43,28,4.678
36,38,4.679
8,40,4.68
-22,30,4.681
-34,14,4.682
-34,-6,4.683
-37,-22,4.684
-45,-25,4.685
-43,-14,4.686
-17,3,4.687
25,23,4.688
54,35,4.689
49,26,4.69
22,-3,4.691
2,-25,4.692
2,-22,4.693
2,-13,4.694
-7,-19,4.695
-22,-34,4.696
-23,-34,4.697
-13,-18,4.698
-5,-11,4.699
-6,-18,4.7
-16,-18,4.701
-23,-11,4.702
-20,-6,4.703
-11,-7,4.704
-2,2,4.705
-1,12,4.706
-5,8,4.707
-4,-5,4.708
1,-5,4.709
6,4,4.71
6,6,4.711
5,-3,4.712
4,-6,4.713
-3,-3,4.714
-12,-6,4.715
-19,-13,4.716
-17,-15,4.717
-12,-4,4.718
3,8,4.719
17,21,4.72
27,35,4.721
35,42,4.722
39,32,4.723
49,15,4.724
77,11,4.725
89,16,4.726
54,13,4.727
15,-3,4.728
-30,-15,4.729
-64,-16,4.73
-54,-13,4.731
-51,-17,4.732
-67,-21,4.733
-78,-20,4.734
-63,-14,4.735
-42,-11,4.736
-35,-14,4.737
-33,-8,4.738
-15,5,4.739
11,14,4.74
20,11,4.741
15,2,4.742
10,0,4.743
15,4,4.744
22,6,4.745
33,3,4.746
48,1,4.747
61,3,4.748
60,2,4.749
48,-1,4.75
43,-2,4.751
54,6,4.752
65,15,4.753
56,11,4.754
24,-4,4.755
-14,-13,4.756
-36,-11,4.757
-38,-6,4.758
-27,-6,4.759
-27,-9,4.76
-53,-8,4.761
-89,-3,4.762
-97,-5,4.763
-59,-11,4.764
-8,-12,4.765
4,-7,4.766
-22,-4,4.767
-45,-4,4.768
-32,-3,4.769
0,1,4.77
25,0,4.771
34,-6,4.772
40,-4,4.773
39,-2,4.774
31,-1,4.775
18,-4,4.776
12,-5,4.777
19,0,4.778
32,5,4.779
41,4,4.78
44,9,4.781
41,18,4.782
41,23,4.783
40,19,4.784
49,14,4.785
75,10,4.786
111,4,4.787
117,0,4.788
56,-3,4.789
-44,-4,4.79
-108,-6,4.791
-100,-8,4.792
-63,-6,4.793
-58,-1,4.794
-75,-1,4.795
-84,-11,4.796
-63,-26,4.797
-44,-31,4.798
-32,-24,4.799
-18,-11,4.8
0,1,4.801
13,14,4.802
14,21,4.803
15,14,4.804
11,1,4.805
8,-8,4.806
15,-8,4.807
23,-1,4.808
31,4,4.809
36,6,4.81
28,4,4.811
23,0,4.812
31,5,4.813
36,16,4.814
33,20,4.815
19,7,4.816
9,-11,4.817
11,-10,4.818
27,2,4.819
47,4,4.82
59,-4,4.821
56,-5,4.822
33,1,4.823
-2,2,4.824
-29,-3,4.825
-40,-1,4.826
-40,3,4.827
-46,-5,4.828
-61,-23,4.829
-67,-29,4.83
-58,-21,4.831
-44,-16,4.832
-31,-17,4.833
-8,-13,4.834
12,0,4.835
18,12,4.836
8,9,4.837
4,3,4.838
22,2,4.839
52,8,4.84
75,15,4.841
91,23,4.842
104,22,4.843
98,10,4.844
58,-1,4.845
0,0,4.846
-36,8,4.847
-41,5,4.848
-37,-5,4.849
-47,-12,4.85
-61,-12,4.851
-61,-12,4.852
-44,-14,4.853
-22,-9,4.854
-5,-1,4.855
14,2,4.856
51,0,4.857
96,5,4.858
117,14,4.859
80,14,4.86
-6,4,4.861
-90,-5,4.862
-135,-11,4.863
-146,-19,4.864
-142,-25,4.865
-128,-19,4.866
-104,-12,4.867
-81,-11,4.868
-67,-14,4.869
-48,-12,4.87
-11,-10,4.871
26,-7,4.872
49,4,4.873
57,20,4.874
65,26,4.875
69,13,4.876
67,-4,4.877
72,-4,4.878
97,7,4.879
123,13,4.88
111,13,4.881
56,14,4.882
2,12,4.883
-10,8,4.884
17,5,4.885
52,8,4.886
80,9,4.887
108,4,4.888
145,0,4.889
160,6,4.89
104,9,4.891
-23,5,4.892
-138,1,4.893
-175,1,4.894
-138,-1,4.895
-87,-17,4.896
-62,-34,4.897
-46,-31,4.898
-27,-11,4.899
-23,6,4.9
-35,16,4.901
-43,19,4.902
-37,18,4.903
-34,10,4.904
-36,-5,4.905
-31,-23,4.906
-10,-34,4.907
25,-27,4.908
84,-8,4.909
170,7,4.91
244,6,4.911
242,0,4.912
150,2,4.913
7,8,4.914
-99,11,4.915
-131,12,4.916
-122,14,4.917
-113,19,4.918
-101,14,4.919
-61,9,4.92
-1,17,4.921
24,33,4.922
-22,39,4.923
-107,25,4.924
-143,-6,4.925
-92,-36,4.926
-16,-46,4.927
1,-25,4.928
-39,9,4.929
-67,25,4.93
-43,-1,4.931
-1,-51,4.932
26,-90,4.933
39,-109,4.934
65,-102,4.935
118,-72,4.936
185,-31,4.937
207,5,4.938
143,25,4.939
51,36,4.94
33,45,4.941
89,47,4.942
97,36,4.943
-7,21,4.944
-127,18,4.945
-153,25,4.946
-113,27,4.947
-106,18,4.948
-127,7,4.949
-110,0,4.95
-56,0,4.951
-25,4,4.952
-8,10,4.953
57,13,4.954
154,12,4.955
176,8,4.956
78,0,4.957
-43,0,4.958
-87,3,4.959
-71,4,4.96
-63,0,4.961
-67,1,4.962
-34,8,4.963
44,12,4.964
115,6,4.965
129,-4,4.966
112,-7,4.967
141,-6,4.968
254,-4,4.969
354,4,4.97
295,22,4.971
79,41,4.972
-112,42,4.973
-164,30,4.974
-128,20,4.975
-132,8,4.976
-173,-15,4.977
-156,-38,4.978
-101,-50,4.979
-118,-49,4.98
-202,-47,4.981
-204,-52,4.982
-89,-55,4.983
-26,-47,4.984
-118,-29,4.985
-220,-8,4.986
-148,1,4.987
45,-2,4.988
185,1,4.989
245,19,4.99
303,35,4.991
334,36,4.992
259,38,4.993
126,45,4.994
113,51,4.995
224,44,4.996
216,32,4.997
-75,31,4.998
-475,28,4.999
-656,10,5.0
-472,-10,5.001
-80,-21,5.002
223,-31,5.003
269,-49,5.004
138,-55,5.005
28,-28,5.006
-2,9,5.007
-52,19,5.008
-161,-5,5.009
-206,-32,5.01
-113,-44,5.011
-4,-46,5.012
-3,-41,5.013
-58,-34,5.014
-42,-25,5.015
41,-19,5.016
98,-10,5.017
106,12,5.018
102,30,5.019
79,29,5.02
30,18,5.021
34,20,5.022
136,25,5.023
220,20,5.024
153,12,5.025
0,16,5.026
-64,25,5.027
-7,14,5.028
54,-6,5.029
62,-8,5.03
77,6,5.031
125,13,5.032
152,9,5.033
146,6,5.034
162,16,5.035
183,21,5.036
97,11,5.037
-111,-2,5.038
-291,-4,5.039
-313,2,5.04
-239,12,5.041
-207,18,5.042
-227,11,5.043
-209,-11,5.044
-122,-41,5.045
-29,-51,5.046
28,-37,5.047
73,-18,5.048
114,-8,5.049
122,-9,5.05
98,-11,5.051
82,-13,5.052
84,-11,5.053
63,-9,5.054
7,-8,5.055
-44,-6,5.056
-60,2,5.057
-80,17,5.058
-128,22,5.059
-150,8,5.06
-89,-14,5.061
23,-25,5.062
127,-19,5.063
216,-6,5.064
304,8,5.065
334,15,5.066
226,15,5.067
13,12,5.068
-156,10,5.069
-168,11,5.07
-42,9,5.071
122,6,5.072
216,3,5.073
154,3,5.074
-63,11,5.075
-292,23,5.076
-354,29,5.077
-248,26,5.078
-130,13,5.079
-89,-9,5.08
-58,-38,5.081
8,-57,5.082
33,-51,5.083
-28,-26,5.084
-80,-6,5.085
-33,-2,5.086
59,0,5.087
107,14,5.088
121,31,5.089
148,25,5.09
157,0,5.091
113,-12,5.092
73,0,5.093
91,21,5.094
115,31,5.095
47,26,5.096
-84,14,5.097
-147,6,5.098
-105,5,5.099
-52,8,5.1
-58,5,5.101
-68,-4,5.102
-22,-8,5.103
26,-1,5.104
-3,6,5.105
-83,4,5.106
-122,-6,5.107
-94,-17,5.108
-43,-27,5.109
6,-32,5.11
59,-26,5.111
92,-13,5.112
80,-4,5.113
42,-4,5.114
31,-3,5.115
45,9,5.116
62,17,5.117
83,12,5.118
106,2,5.119
91,4,5.12
17,20,5.121
-66,31,5.122
-103,27,5.123
-112,11,5.124
-110,-7,5.125
-70,-23,5.126
12,-31,5.127
69,-27,5.128
75,-18,5.129
102,-15,5.13
199,-22,5.131
267,-29,5.132
191,-30,5.133
-4,-27,5.134
-133,-17,5.135
-93,-2,5.136
7,13,5.137
7,27,5.138
-88,38,5.139
-142,44,5.14
-87,39,5.141
-17,27,5.142
-26,11,5.143
-68,-7,5.144
-44,-27,5.145
29,-40,5.146
55,-37,5.147
2,-23,5.148
-52,-12,5.149
-47,-15,5.15
-17,-22,5.151
-2,-25,5.152
-3,-21,5.153
-2,-11,5.154
-8,4,5.155
-16,16,5.156
8,14,5.157
60,9,5.158
83,6,5.159
50,12,5.16
10,25,5.161
12,33,5.162
27,35,5.163
8,27,5.164
-25,10,5.165
-23,-3,5.166
9,-3,5.167
21,5,5.168
4,7,5.169
-7,2,5.17
2,-3,5.171
9,-5,5.172
3,-5,5.173
1,-7,5.174
12,-5,5.175
24,-1,5.176
34,-5,5.177
39,-11,5.178
33,-9,5.179
7,-1,5.18
-23,5,5.181
-36,5,5.182
-30,1,5.183
-23,0,5.184
-19,-2,5.185
-8,-8,5.186
9,-16,5.187
24,-19,5.188
33,-14,5.189
33,-8,5.19
13,-4,5.191
-24,-3,5.192
-46,1,5.193
-27,6,5.194
13,5,5.195
41,-1,5.196
29,-5,5.197
15,2,5.198
-1,15,5.199
-21,19,5.2
-49,13,5.201
-61,5,5.202
-21,0,5.203
6,-4,5.204
-7,-7,5.205
-6,-5,5.206
35,0,5.207
72,6,5.208
89,8,5.209
89,1,5.21
32,-16,5.211
-34,-36,5.212
-127,-44,5.213
-210,-47,5.214
-209,-57,5.215
-151,-66,5.216
-98,-50,5.217
-47,-2,5.218
31,36,5.219
95,39,5.22
87,27,5.221
46,28,5.222
52,35,5.223
82,26,5.224
69,12,5.225
28,14,5.226
33,22,5.227
85,15,5.228
124,4,5.229
110,10,5.23
39,27,5.231
-57,33,5.232
-105,30,5.233
-26,28,5.234
92,24,5.235
123,13,5.236
65,-4,5.237
20,-9,5.238
33,-8,5.239
54,-9,5.24
39,-11,5.241
0,-10,5.242
-43,-20,5.243
-78,-44,5.244
-80,-61,5.245
-42,-53,5.246
-13,-27,5.247
-33,-1,5.248
-64,17,5.249
-52,25,5.25
-14,18,5.251
2,0,5.252
-4,-13,5.253
-10,-18,5.254
-14,-15,5.255
-33,-5,5.256
-52,5,5.257
-44,12,5.258
-12,12,5.259
20,6,5.26
58,8,5.261
115,22,5.262
179,39,5.263
220,49,5.264
220,52,5.265
163,46,5.266
34,35,5.267
-134,22,5.268
-252,1,5.269
-254,-31,5.27
-169,-74,5.271
-101,-101,5.272
-112,-99,5.273
-160,-79,5.274
-137,-56,5.275
-19,-36,5.276
96,-17,5.277
132,5,5.278
166,28,5.279
289,48,5.28
395,64,5.281
284,72,5.282
-27,74,5.283
-276,72,5.284
-280,60,5.285
-152,33,5.286
-70,-2,5.287
-41,-31,5.288
7,-50,5.289
51,-62,5.29
12,-71,5.291
-104,-67,5.292
-206,-43,5.293
-209,-17,5.294
-107,-10,5.295
-8,-18,5.296
85,-19,5.297
157,1,5.298
163,26,5.299
151,34,5.3
80,31,5.301
21,30,5.302
0,29,5.303
-18,8,5.304
-19,-23,5.305
-26,-37,5.306
-50,-13,5.307
-56,26,5.308
-10,44,5.309
39,37,5.31
95,26,5.311
140,16,5.312
154,1,5.313
133,-26,5.314
-14,-43,5.315
-88,-29,5.316
6,-6,5.317
164,0,5.318
192,-9,5.319
45,-3,5.32
-105,27,5.321
-94,52,5.322
18,47,5.323
42,22,5.324
-69,-4,5.325
-185,-20,5.326
-215,-30,5.327
-222,-27,5.328
-257,-13,5.329
-260,-6,5.33
-182,-21,5.331
-85,-45,5.332
-29,-51,5.333
29,-43,5.334
141,-37,5.335
250,-37,5.336
286,-25,5.337
281,15,5.338
309,62,5.339
350,90,5.34
311,98,5.341
147,97,5.342
-95,93,5.343
-313,81,5.344
-387,58,5.345
-274,22,5.346
-66,-21,5.347
95,-65,5.348
186,-96,5.349
254,-107,5.35
235,-86,5.351
23,-35,5.352
-256,13,5.353
-367,14,5.354
-240,-29,5.355
-115,-63,5.356
-164,-53,5.357
-235,-30,5.358
-150,-40,5.359
0,-50,5.36
50,-14,5.361
41,41,5.362
89,51,5.363
157,23,5.364
154,15,5.365
109,34,5.366
107,37,5.367
125,26,5.368
92,36,5.369
25,67,5.37
0,79,5.371
32,55,5.372
54,18,5.373
28,-27,5.374
-1,-65,5.375
-10,-62,5.376
43,-19,5.377
82,19,5.378
70,20,5.379
64,11,5.38
79,26,5.381
56,31,5.382
-82,-2,5.383
-182,-45,5.384
-164,-48,5.385
-142,-23,5.386
-111,-12,5.387
-71,-23,5.388
-4,-31,5.389
44,-18,5.39
31,12,5.391
37,41,5.392
101,47,5.393
173,19,5.394
193,-17,5.395
88,-30,5.396
0,-24,5.397
24,-13,5.398
87,-5,5.399
81,13,5.4
23,31,5.401
13,39,5.402
87,47,5.403
156,68,5.404
102,70,5.405
-36,23,5.406
-103,-46,5.407
-70,-74,5.408
-118,-49,5.409
-321,-27,5.41
-443,-49,5.411
-281,-84,5.412
-39,-85,5.413
-14,-52,5.414
-180,-20,5.415
-221,-20,5.416
-24,-38,5.417
198,-30,5.418
268,15,5.419
213,69,5.42
87,97,5.421
-69,101,5.422
-149,93,5.423
-85,70,5.424
10,16,5.425
4,-62,5.426
-36,-119,5.427
7,-117,5.428
85,-67,5.429
83,-11,5.43
46,19,5.431
83,22,5.432
169,15,5.433
225,10,5.434
236,15,5.435
217,28,5.436
133,39,5.437
-24,45,5.438
-164,43,5.439
-218,36,5.44
-219,24,5.441
-192,3,5.442
-104,-22,5.443
19,-40,5.444
77,-31,5.445
76,-2,5.446
139,21,5.447
262,28,5.448
290,35,5.449
160,56,5.45
20,75,5.451
-23,65,5.452
-52,30,5.453
-150,-25,5.454
-216,-84,5.455
-158,-133,5.456
-79,-140,5.457
-102,-87,5.458
-154,-10,5.459
-107,29,5.46
-16,10,5.461
-10,-40,5.462
-66,-86,5.463
-77,-101,5.464
-46,-65,5.465
-26,17,5.466
0,106,5.467
62,157,5.468
88,160,5.469
39,133,5.47
-2,93,5.471
21,50,5.472
58,15,5.473
81,-19,5.474
158,-47,5.475
295,-50,5.476
373,-19,5.477
336,27,5.478
259,40,5.479
143,17,5.48
-120,-2,5.481
-461,-4,5.482
-588,-23,5.483
-394,-89,5.484
-147,-152,5.485
-86,-146,5.486
-91,-71,5.487
35,4,5.488
187,28,5.489
156,13,5.49
-3,12,5.491
-75,32,5.492
-27,40,5.493
20,10,5.494
32,-24,5.495
89,-29,5.496
202,-7,5.497
259,11,5.498
185,8,5.499
3,-1,5.5
-194,-1,5.501
-291,13,5.502
-234,32,5.503
-109,39,5.504
-40,41,5.505
-20,42,5.506
34,37,5.507
108,18,5.508
121,-4,5.509
95,-10,5.51
111,-2,5.511
129,-3,5.512
72,-15,5.513
-26,-21,5.514
-34,-7,5.515
30,5,5.516
52,-5,5.517
22,-15,5.518
57,-9,5.519
164,5,5.52
207,15,5.521
118,26,5.522
26,41,5.523
73,53,5.524
211,52,5.525
234,41,5.526
34,24,5.527
-257,3,5.528
-386,-11,5.529
-266,-12,5.53
-67,-19,5.531
-12,-55,5.532
-124,-104,5.533
-296,-132,5.534
-402,-121,5.535
-410,-90,5.536
-321,-68,5.537
-147,-46,5.538
47,-14,5.539
153,20,5.54
166,39,5.541
207,45,5.542
342,54,5.543
475,73,5.544
492,87,5.545
391,84,5.546
190,59,5.547
-132,24,5.548
-494,4,5.549
-662,6,5.55
-500,3,5.551
-133,-31,5.552
218,-74,5.553
496,-69,5.554
608,13,5.555
444,106,5.556
64,122,5.557
-281,70,5.558
-442,15,5.559
-473,-14,5.56
-406,-48,5.561
-195,-105,5.562
34,-158,5.563
57,-172,5.564
-51,-141,5.565
2,-84,5.566
225,-34,5.567
292,-6,5.568
121,11,5.569
10,35,5.57
96,57,5.571
155,59,5.572
78,58,5.573
32,76,5.574
138,110,5.575
228,108,5.576
164,54,5.577
53,-4,5.578
20,-27,5.579
56,-14,5.58
193,13,5.581
488,45,5.582
744,85,5.583
600,133,5.584
-17,180,5.585
-745,197,5.586
-1144,150,5.587
-1047,39,5.588
-562,-93,5.589
18,-195,5.59
342,-252,5.591
234,-268,5.592
-110,-243,5.593
-372,-178,5.594
-342,-110,5.595
-136,-76,5.596
4,-66,5.597
22,-32,5.598
55,25,5.599
175,62,5.6
268,52,5.601
200,36,5.602
32,46,5.603
-64,74,5.604
0,85,5.605
206,70,5.606
475,43,5.607
618,26,5.608
401,29,5.609
-139,42,5.61
-578,43,5.611
-561,19,5.612
-257,-10,5.613
-22,-22,5.614
6,-4,5.615
-3,19,5.616
50,14,5.617
81,-7,5.618
72,-13,5.619
105,13,5.62
137,56,5.621
35,83,5.622
-157,81,5.623
-273,63,5.624
-259,32,5.625
-162,-20,5.626
26,-84,5.627
250,-122,5.628
298,-110,5.629
98,-75,5.63
-76,-58,5.631
8,-60,5.632
161,-50,5.633
130,-24,5.634
30,3,5.635
-27,19,5.636
46,24,5.637
83,16,5.638
8,-2,5.639
-15,-1,5.64
117,47,5.641
204,106,5.642
154,118,5.643
104,90,5.644
54,86,5.645
36,117,5.646
113,125,5.647
125,70,5.648
-60,-29,5.649
-227,-131,5.65
-336,-208,5.651
-379,-224,5.652
-221,-171,5.653
-138,-92,5.654
-255,-54,5.655
-126,-58,5.656
129,-48,5.657
152,-3,5.658
-9,24,5.659
-29,17,5.66
95,17,5.661
109,39,5.662
4,48,5.663
-5,33,5.664
76,23,5.665
74,32,5.666
0,34,5.667
2,20,5.668
63,13,5.669
52,22,5.67
-5,27,5.671
5,17,5.672
57,15,5.673
70,22,5.674
81,29,5.675
152,32,5.676
201,39,5.677
108,51,5.678
-67,52,5.679
-158,32,5.68
-130,1,5.681
-87,-30,5.682
-96,-60,5.683
-133,-84,5.684
-160,-93,5.685
-155,-82,5.686
-107,-53,5.687
-31,-22,5.688
23,-4,5.689
32,1,5.69
29,5,5.691
43,13,5.692
59,19,5.693
55,13,5.694
42,9,5.695
39,11,5.696
35,9,5.697
6,4,5.698
-37,1,5.699
-62,7,5.7
-45,12,5.701
-1,14,5.702
42,14,5.703
75,13,5.704
104,9,5.705
118,3,5.706
103,5,5.707
75,13,5.708
72,16,5.709
90,5,5.71
77,-10,5.711
14,-14,5.712
-37,-5,5.713
-34,2,5.714
-8,8,5.715
-13,10,5.716
-37,8,5.717
-36,-1,5.718
-2,-17,5.719
46,-24,5.72
108,-13,5.721
153,2,5.722
98,4,5.723
-76,-1,5.724
-223,1,5.725
-180,15,5.726
18,30,5.727
182,42,5.728
207,59,5.729
161,83,5.73
118,94,5.731
29,83,5.732
-159,44,5.733
-410,-29,5.734
-552,-122,5.735
-491,-186,5.736
-326,-194,5.737
-194,-161,5.738
-88,-129,5.739
67,-102,5.74
226,-60,5.741
267,-6,5.742
188,29,5.743
115,34,5.744
104,38,5.745
94,55,5.746
50,61,5.747
17,38,5.748
21,7,5.749
30,2,5.75
32,29,5.751
45,60,5.752
62,77,5.753
72,64,5.754
118,37,5.755
200,0,5.756
217,-43,5.757
85,-70,5.758
-100,-48,5.759
-169,11,5.76
-118,46,5.761
-68,23,5.762
-52,-7,5.763
0,14,5.764
69,58,5.765
53,58,5.766
-37,22,5.767
-73,11,5.768
-15,27,5.769
37,23,5.77
42,-3,5.771
50,-15,5.772
58,-7,5.773
-12,-13,5.774
-132,-36,5.775
-167,-42,5.776
-83,-27,5.777
-3,-9,5.778
7,-6,5.779
53,0,5.78
207,24,5.781
381,59,5.782
444,94,5.783
357,118,5.784
137,117,5.785
-181,80,5.786
-464,12,5.787
-530,-72,5.788
-369,-156,5.789
-203,-215,5.79
-206,-213,5.791
-260,-146,5.792
-167,-63,5.793
66,-11,5.794
209,-6,5.795
159,-10,5.796
67,4,5.797
72,29,5.798
112,36,5.799
92,28,5.8
59,26,5.801
82,36,5.802
115,45,5.803
89,42,5.804
43,39,5.805
38,37,5.806
69,29,5.807
131,15,5.808
245,17,5.809
343,35,5.81
265,51,5.811
-22,57,5.812
-313,63,5.813
-434,65,5.814
-349,61,5.815
-162,44,5.816
38,21,5.817
215,1,5.818
302,-27,5.819
236,-74,5.82
13,-115,5.821
-286,-118,5.822
-531,-91,5.823
-609,-76,5.824
-496,-96,5.825
-267,-114,5.826
-9,-79,5.827
218,-9,5.828
346,36,5.829
315,35,5.83
200,31,5.831
176,54,5.832
271,76,5.833
276,63,5.834
90,28,5.835
-76,2,5.836
-183,-18,5.837
-232,-45,5.838
-106,-62,5.839
12,-39,5.84
112,12,5.841
168,46,5.842
92,35,5.843
48,11,5.844
103,12,5.845
133,35,5.846
83,52,5.847
19,56,5.848
-90,66,5.849
-167,81,5.85
-148,78,5.851
-106,42,5.852
1,-16,5.853
87,-68,5.854
67,-116,5.855
19,-136,5.856
-7,-134,5.857
-16,-108,5.858
7,-54,5.859
64,14,5.86
87,63,5.861
28,66,5.862
-41,41,5.863
-42,26,5.864
-17,29,5.865
-38,28,5.866
-70,17,5.867
-47,10,5.868
1,10,5.869
23,4,5.87
45,-5,5.871
121,2,5.872
205,25,5.873
182,46,5.874
41,51,5.875
-78,59,5.876
-63,73,5.877
22,71,5.878
6,38,5.879
-165,-11,5.88
-326,-58,5.881
-308,-101,5.882
-159,-144,5.883
-47,-172,5.884
-27,-162,5.885
-15,-121,5.886
61,-83,5.887
211,-54,5.888
397,-10,5.889
513,65,5.89
446,135,5.891
263,170,5.892
174,172,5.893
210,144,5.894
87,62,5.895
-387,-77,5.896
-896,-198,5.897
-946,-207,5.898
-547,-123,5.899
-191,-46,5.9
-151,-21,5.901
-202,-4,5.902
-99,37,5.903
60,69,5.904
89,69,5.905
43,65,5.906
77,72,5.907
169,69,5.908
204,45,5.909
177,24,5.91
151,25,5.911
146,41,5.912
144,66,5.913
149,91,5.914
173,102,5.915
172,100,5.916
108,105,5.917
17,122,5.918
-9,120,5.919
61,88,5.92
159,58,5.921
220,30,5.922
251,-36,5.923
259,-139,5.924
171,-205,5.925
-32,-191,5.926
-184,-134,5.927
-122,-93,5.928
38,-71,5.929
44,-55,5.93
-101,-51,5.931
-168,-61,5.932
-112,-60,5.933
-108,-36,5.934
-206,-10,5.935
-212,-6,5.936
-34,-17,5.937
133,-18,5.938
135,-9,5.939
72,8,5.94
72,33,5.941
70,44,5.942
-23,-4,5.943
-141,-113,5.944
-181,-218,5.945
-145,-243,5.946
-91,-169,5.947
-58,-48,5.948
-71,46,5.949
-104,77,5.95
-80,66,5.951
34,62,5.952
156,80,5.953
217,96,5.954
215,108,5.955
164,139,5.956
42,181,5.957
-132,190,5.958
-264,128,5.959
-294,30,5.96
-251,-41,5.961
-166,-82,5.962
-40,-137,5.963
68,-219,5.964
71,-281,5.965
-13,-262,5.966
-58,-152,5.967
9,14,5.968
163,187,5.969
398,327,5.97
678,391,5.971
771,378,5.972
439,333,5.973
-270,301,5.974
-784,283,5.975
-696,228,5.976
-295,112,5.977
-112,-3,5.978
-161,-62,5.979
-94,-78,5.98
61,-81,5.981
-37,-73,5.982
-273,-51,5.983
-113,-59,5.984
429,-130,5.985
623,-212,5.986
136,-223,5.987
-407,-159,5.988
-369,-100,5.989
4,-95,5.99
143,-130,5.991
63,-182,5.992
137,-238,5.993
413,-259,5.994
555,-200,5.995
356,-133,5.996
-43,-42,5.997
-410,24,5.998
-575,16,5.999
-428,10,6.0
-16,10,6.001
483,3,6.002
900,-23,6.003
1130,-32,6.004
1008,13,6.005
426,54,6.006
-368,80,6.007
-843,94,6.008
-734,66,6.009
-337,39,6.01
-127,20,6.011
-217,9,6.012
-346,21,6.013
-312,33,6.014
-170,27,6.015
-95,-2,6.016
-122,-11,6.017
-130,20,6.018
-62,49,6.019
6,41,6.02
10,25,6.021
-6,32,6.022
15,44,6.023
45,44,6.024
37,47,6.025
16,66,6.026
24,82,6.027
41,74,6.028
33,49,6.029
18,29,6.03
27,14,6.031
41,5,6.032
39,12,6.033
29,32,6.034
36,47,6.035
46,43,6.036
37,24,6.037
22,5,6.038
21,-12,6.039
25,-28,6.04
20,-37,6.041
13,-35,6.042
25,-30,6.043
74,-26,6.044
172,-24,6.045
286,-31,6.046
313,-46,6.047
171,-57,6.048
-55,-58,6.049
-202,-66,6.05
-256,-111,6.051
-341,-197,6.052
-436,-278,6.053
-387,-304,6.054
-157,-242,6.055
24,-121,6.056
5,-13,6.057
-63,31,6.058
-4,8,6.059
93,-48,6.06
77,-81,6.061
28,-28,6.062
95,154,6.063
236,429,6.064
318,679,6.065
333,794,6.066
326,747,6.067
258,581,6.068
115,347,6.069
-6,97,6.07
-64,-116,6.071
-158,-249,6.072
-288,-292,6.073
-288,-276,6.074
-53,-240,6.075
181,-228,6.076
82,-238,6.077
-298,-227,6.078
-538,-186,6.079
-390,-154,6.08
-83,-163,6.081
51,-177,6.082
26,-151,6.083
80,-112,6.084
220,-97,6.085
241,-91,6.086
109,-58,6.087
37,-13,6.088
113,10,6.089
177,22,6.09
131,52,6.091
91,88,6.092
111,104,6.093
76,99,6.094
-61,91,6.095
-150,71,6.096
-110,21,6.097
-76,-23,6.098
-140,-26,6.099
-183,-1,6.1
-119,4,6.101
-65,-25,6.102
-91,-56,6.103
-50,-64,6.104
158,-62,6.105
366,-68,6.106
354,-88,6.107
164,-114,6.108
9,-126,6.109
-12,-85,6.11
18,37,6.111
13,213,6.112
-18,353,6.113
-31,404,6.114
-1,358,6.115
59,252,6.116
114,128,6.117
143,22,6.118
150,-40,6.119
133,-47,6.12
59,-36,6.121
-83,-50,6.122
-237,-80,6.123
-317,-86,6.124
-284,-63,6.125
-178,-56,6.126
-75,-91,6.127
-19,-128,6.128
17,-122,6.129
114,-78,6.13
278,-38,6.131
362,-21,6.132
224,-15,6.133
-121,-15,6.134
-412,-16,6.135
-465,-18,6.136
-363,-17,6.137
-282,-7,6.138
-238,4,6.139
-135,3,6.14
26,-19,6.141
141,-59,6.142
170,-94,6.143
161,-96,6.144
143,-62,6.145
107,-16,6.146
89,19,6.147
121,40,6.148
152,58,6.149
109,74,6.15
32,78,6.151
35,68,6.152
126,48,6.153
184,14,6.154
97,-28,6.155
-96,-55,6.156
-240,-50,6.157
-242,-23,6.158
-147,-8,6.159
-37,-9,6.16
52,-8,6.161
127,-1,6.162
180,-7,6.163
181,-30,6.164
138,-41,6.165
100,-22,6.166
116,10,6.167
183,27,6.168
233,27,6.169
168,21,6.17
-19,15,6.171
-192,-1,6.172
-222,-26,6.173
-129,-56,6.174
-47,-75,6.175
-42,-78,6.176
-74,-77,6.177
-109,-68,6.178
-153,-51,6.179
-173,-18,6.18
-135,23,6.181
-78,51,6.182
-39,49,6.183
48,40,6.184
226,72,6.185
356,158,6.186
249,249,6.187
-62,300,6.188
-347,305,6.189
-456,278,6.19
-400,213,6.191
-248,112,6.192
-72,16,6.193
49,-62,6.194
125,-132,6.195
166,-203,6.196
224,-234,6.197
209,-181,6.198
57,-80,6.199
-76,-16,6.2
-16,-24,6.201
136,-49,6.202
151,-32,6.203
48,28,6.204
22,87,6.205
96,104,6.206
109,80,6.207
40,34,6.208
15,-17,6.209
53,-54,6.21
48,-64,6.211
-7,-54,6.212
-19,-43,6.213
38,-47,6.214
93,-49,6.215
149,-39,6.216
208,-27,6.217
192,-19,6.218
-50,-16,6.219
-243,-18,6.22
-285,-43,6.221
-293,-97,6.222
-194,-157,6.223
-106,-182,6.224
-51,-145,6.225
-12,-56,6.226
-21,42,6.227
-19,106,6.228
18,116,6.229
42,89,6.23
18,50,6.231
4,13,6.232
21,-9,6.233
40,-12,6.234
34,3,6.235
5,15,6.236
22,4,6.237
62,-8,6.238
62,-5,6.239
38,8,6.24
39,8,6.241
51,-4,6.242
27,-12,6.243
-15,-14,6.244
-25,-16,6.245
8,-19,6.246
90,-17,6.247
228,-8,6.248
350,0,6.249
316,8,6.25
86,4,6.251
-197,-18,6.252
-363,-48,6.253
-371,-70,6.254
-279,-69,6.255
-165,-47,6.256
-87,-12,6.257
-83,40,6.258
-103,97,6.259
-61,127,6.26
31,118,6.261
74,90,6.262
36,75,6.263
-4,65,6.264
18,37,6.265
69,-11,6.266
105,-57,6.267
121,-89,6.268
93,-111,6.269
0,-113,6.27
-76,-80,6.271
-22,-28,6.272
106,0,6.273
133,-14,6.274
-3,-35,6.275
-122,-34,6.276
-40,-40,6.277
162,-85,6.278
269,-136,6.279
200,-102,6.28
72,68,6.281
8,317,6.282
15,526,6.283
9,606,6.284
-33,531,6.285
-41,331,6.286
31,77,6.287
88,-127,6.288
12,-203,6.289
-146,-161,6.29
-210,-93,6.291
-145,-71,6.292
-89,-96,6.293
-112,-134,6.294
-128,-155,6.295
-68,-160,6.296
0,-158,6.297
4,-146,6.298
-5,-131,6.299
19,-116,6.3
41,-101,6.301
27,-84,6.302
16,-68,6.303
36,-49,6.304
48,-24,6.305
29,2,6.306
19,15,6.307
33,9,6.308
38,-6,6.309
22,-12,6.31
20,0,6.311
39,24,6.312
51,46,6.313
49,24,6.314
67,29,6.315
112,33,6.316
150,36,6.317
142,43,6.318
71,56,6.319
-63,67,6.32
-205,73,6.321
-265,70,6.322
-204,41,6.323
-90,23,6.324
4,36,6.325
72,57,6.326
132,100,6.327
155,136,6.328
116,146,6.329
16,142,6.33
-138,94,6.331
-303,41,6.332
-367,-36,6.333
-235,2,6.334
5,10,6.335
183,17,6.336
177,22,6.337
138,32,6.338
0,53,6.339
-91,72,6.34
-41,81,6.341
7,76,6.342
48,30,6.343
76,1,6.344
66,22,6.345
66,55,6.346
96,124,6.347
109,180,6.348
64,196,6.349
41,190,6.35
87,115,6.351
118,29,6.352
96,-92,6.353
65,-201,6.354
-3,-234,6.355
-53,-224,6.356
-50,-209,6.357
-34,-178,6.358
-73,-92,6.359
-125,65,6.36
-75,223,6.361
71,302,6.362
158,285,6.363
79,228,6.364
-118,179,6.365
-321,137,6.366
-414,86,6.367
-312,24,6.368
-71,-46,6.369
100,-117,6.37
87,-171,6.371
31,-202,6.372
82,-226,6.373
161,-251,6.374
102,-226,6.375
-22,-103,6.376
-3,80,6.377
150,221,6.378
215,257,6.379
101,206,6.38
-41,113,6.381
-71,3,6.382
-24,-91,6.383
5,-127,6.384
5,-103,6.385
4,-70,6.386
6,-59,6.387
5,-54,6.388
18,-40,6.389
45,-34,6.39
55,-37,6.391
30,-27,6.392
0,-1,6.393
-9,15,6.394
0,8,6.395
-2,-6,6.396
-16,-12,6.397
-15,-11,6.398
12,-14,6.399
34,-12,6.4
26,-4,6.401
-9,-2,6.402
-44,-6,6.403
-59,-10,6.404
-45,-7,6.405
5,-3,6.406
96,0,6.407
205,6,6.408
259,13,6.409
169,12,6.41
-60,1,6.411
-271,-9,6.412
-315,-18,6.413
-203,-35,6.414
-80,-59,6.415
-46,-71,6.416
-56,-60,6.417
-36,-33,6.418
6,-14,6.419
46,-5,6.42
78,16,6.421
98,51,6.422
84,73,6.423
55,64,6.424
62,44,6.425
111,34,6.426
172,30,6.427
238,19,6.428
274,10,6.429
170,13,6.43
-121,15,6.431
-418,-7,6.432
-503,-40,6.433
-397,-60,6.434
-278,-51,6.435
-175,-33,6.436
26,-26,6.437
237,-19,6.438
194,-2,6.439
-94,31,6.44
-261,70,6.441
-99,100,6.442
178,112,6.443
286,113,6.444
205,111,6.445
47,91,6.446
-98,32,6.447
-111,-39,6.448
70,-79,6.449
267,-75,6.45
238,-62,6.451
60,-64,6.452
18,-69,6.453
139,-64,6.454
183,-41,6.455
59,-4,6.456
-9,44,6.457
95,93,6.458
168,122,6.459
28,124,6.46
-214,105,6.461
-358,58,6.462
-379,-20,6.463
-352,-100,6.464
-289,-129,6.465
-179,-101,6.466
-67,-62,6.467
11,-47,6.468
94,-46,6.469
203,-53,6.47
270,-78,6.471
218,-117,6.472
92,-120,6.473
-18,-61,6.474
-35,23,6.475
13,75,6.476
52,94,6.477
48,124,6.478
34,169,6.479
41,189,6.48
55,167,6.481
43,123,6.482
19,66,6.483
13,-3,6.484
25,-57,6.485
26,-63,6.486
11,-41,6.487
3,-40,6.488
27,-69,6.489
84,-90,6.49
153,-87,6.491
168,-82,6.492
75,-81,6.493
-109,-70,6.494
-233,-37,6.495
-198,-3,6.496
-82,18,6.497
-28,38,6.498
-59,63,6.499
-97,83,6.5
-109,88,6.501
-131,75,6.502
-166,44,6.503
-166,-2,6.504
-89,-37,6.505
71,-52,6.506
304,-76,6.507
525,-130,6.508
579,-178,6.509
376,-165,6.51
47,-94,6.511
-154,-26,6.512
-137,0,6.513
-27,12,6.514
29,41,6.515
43,79,6.516
65,94,6.517
11,88,6.518
-191,76,6.519
-392,61,6.52
-390,44,6.521
-245,30,6.522
-193,14,6.523
-271,-11,6.524
-270,-32,6.525
-99,-20,6.526
58,13,6.527
41,32,6.528
-36,14,6.529
14,-11,6.53
161,-27,6.531
215,-42,6.532
138,-62,6.533
71,-74,6.534
98,-62,6.535
106,-49,6.536
53,-38,6.537
20,-27,6.538
49,-21,6.539
76,-13,6.54
94,0,6.541
106,15,6.542
99,27,6.543
81,42,6.544
30,66,6.545
2,82,6.546
46,76,6.547
68,69,6.548
26,61,6.549
-5,53,6.55
-5,51,6.551
2,53,6.552
33,70,6.553
44,90,6.554
-13,102,6.555
-33,74,6.556
2,10,6.557
47,-66,6.558
36,-149,6.559
-59,-220,6.56
-168,-240,6.561
-170,-188,6.562
-52,-87,6.563
56,28,6.564
62,143,6.565
36,229,6.566
74,233,6.567
133,134,6.568
108,2,6.569
11,-64,6.57
-67,-49,6.571
-104,-16,6.572
-127,-16,6.573
-133,-36,6.574
-63,-33,6.575
99,-3,6.576
299,27,6.577
407,41,6.578
282,33,6.579
-76,8,6.58
-426,-16,6.581
-493,-36,6.582
-317,-70,6.583
-191,-132,6.584
-226,-193,6.585
-238,-207,6.586
-104,-166,6.587
39,-99,6.588
54,-21,6.589
11,78,6.59
31,182,6.591
100,238,6.592
158,215,6.593
195,123,6.594
196,23,6.595
133,-34,6.596
63,-46,6.597
75,-36,6.598
134,-38,6.599
122,-53,6.6
48,-46,6.601
28,-15,6.602
85,8,6.603
100,5,6.604
12,-1,6.605
-106,11,6.606
-172,38,6.607
-154,59,6.608
-49,76,6.609
93,92,6.61
154,91,6.611
83,62,6.612
-4,18,6.613
-9,-93,6.614
6,-101,6.615
29,-76,6.616
67,52,6.617
101,165,6.618
123,218,6.619
97,243,6.62
-78,176,6.621
-205,107,6.622
-184,42,6.623
-135,-4,6.624
-4,9,6.625
91,4,6.626
79,-47,6.627
49,-103,6.628
-34,-162,6.629
-74,-208,6.63
19,-220,6.631
90,-214,6.632
80,-147,6.633
-14,-53,6.634
7,-57,6.635
36,-45,6.636
85,17,6.637
129,71,6.638
157,96,6.639
123,108,6.64
-102,76,6.641
-264,43,6.642
-237,12,6.643
-175,-10,6.644
-7,-4,6.645
115,-6,6.646
100,-31,6.647
62,-58,6.648
-46,-86,6.649
-97,-108,6.65
24,-114,6.651
114,-111,6.652
102,-79,6.653
43,-45,6.654
-138,-8,6.655
-182,46,6.656
-66,100,6.657
67,128,6.658
104,121,6.659
65,82,6.66
18,-6,6.661
-13,-139,6.662
-25,-247,6.663
8,-231,6.664
100,-81,6.665
182,112,6.666
142,254,6.667
-55,317,6.668
-287,293,6.669
-361,176,6.67
-210,4,6.671
21,-114,6.672
146,-103,6.673
137,-3,6.674
107,78,6.675
119,75,6.676
89,23,6.677
-63,-18,6.678
-240,-42,6.679
-252,-59,6.68
-72,-72,6.681
113,-80,6.682
128,-88,6.683
6,-89,6.684
-89,-67,6.685
-52,-39,6.686
102,-34,6.687
261,-53,6.688
286,-55,6.689
123,-25,6.69
-104,6,6.691
-207,16,6.692
-168,12,6.693
-119,5,6.694
-122,-9,6.695
-74,-28,6.696
86,-40,6.697
248,-36,6.698
284,-36,6.699
205,-47,6.7
74,-44,6.701
-73,-15,6.702
-171,15,6.703
-143,28,6.704
-34,39,6.705
21,60,6.706
7,70,6.707
13,40,6.708
43,-19,6.709
3,-68,6.71
-78,-84,6.711
-72,-66,6.712
19,-20,6.713
69,46,6.714
27,114,6.715
-14,163,6.716
3,173,6.717
14,146,6.718
-14,90,6.719
-16,23,6.72
28,-40,6.721
53,-95,6.722
44,-128,6.723
50,-114,6.724
74,-46,6.725
83,46,6.726
90,118,6.727
94,149,6.728
6,140,6.729
-215,96,6.73
-411,37,6.731
-388,-9,6.732
-195,-13,6.733
-21,3,6.734
126,10,6.735
246,-2,6.736
368,-25,6.737
409,-41,6.738
318,-55,6.739
139,-62,6.74
-74,-66,6.741
-269,-73,6.742
-348,-87,6.743
-250,-87,6.744
-65,-63,6.745
44,-38,6.746
56,-40,6.747
85,-64,6.748
188,-89,6.749
288,-98,6.75
270,-79,6.751
129,-21,6.752
-53,54,6.753
-263,106,6.754
-405,110,6.755
-448,81,6.756
-357,47,6.757
-177,12,6.758
-12,-35,6.759
75,-89,6.76
101,-122,6.761
96,-120,6.762
83,-77,6.763
119,-2,6.764
248,67,6.765
366,87,6.766
281,42,6.767
-32,-41,6.768
-325,-108,6.769
-349,-106,6.77
-149,-14,6.771
22,123,6.772
40,224,6.773
-10,250,6.774
-20,204,6.775
-13,101,6.776
-43,-37,6.777
-62,-150,6.778
16,-171,6.779
159,-103,6.78
213,-14,6.781
111,71,6.782
-37,172,6.783
-79,268,6.784
-6,284,6.785
79,208,6.786
125,109,6.787
162,28,6.788
175,-62,6.789
81,-161,6.79
-100,-215,6.791
-214,-218,6.792
-169,-233,6.793
-42,-282,6.794
21,-281,6.795
3,-174,6.796
28,-31,6.797
175,60,6.798
354,97,6.799
369,129,6.8
123,162,6.801
-223,176,6.802
-387,162,6.803
-261,129,6.804
-24,75,6.805
96,15,6.806
54,-18,6.807
-44,-18,6.808
-89,-18,6.809
-24,-57,6.81
118,-113,6.811
182,-136,6.812
48,-109,6.813
-218,-51,6.814
-345,9,6.815
-196,63,6.816
52,113,6.817
141,154,6.818
13,162,6.819
-208,125,6.82
-357,37,6.821
-320,-91,6.822
-102,-225,6.823
153,-302,6.824
275,-272,6.825
230,-155,6.826
125,-24,6.827
64,55,6.828
72,75,6.829
116,53,6.83
134,7,6.831
91,-51,6.832
30,-97,6.833
14,-112,6.834
44,-71,6.835
54,24,6.836
41,146,6.837
62,259,6.838
109,321,6.839
90,305,6.84
-7,222,6.841
-82,115,6.842
-69,34,6.843
-26,-6,6.844
-12,-21,6.845
5,-29,6.846
56,-37,6.847
98,-48,6.848
88,-74,6.849
61,-112,6.85
65,-135,6.851
64,-134,6.852
0,-134,6.853
-125,-167,6.854
-219,-203,6.855
-221,-170,6.856
-160,-39,6.857
-81,125,6.858
-16,221,6.859
-7,221,6.86
-94,173,6.861
-210,111,6.862
-230,29,6.863
-132,-48,6.864
-37,-80,6.865
-6,-59,6.866
39,-36,6.867
150,-43,6.868
237,-61,6.869
214,-71,6.87
150,-90,6.871
165,-128,6.872
241,-148,6.873
235,-109,6.874
49,-12,6.875
-239,100,6.876
-409,185,6.877
-313,229,6.878
-31,231,6.879
193,186,6.88
207,103,6.881
93,13,6.882
19,-58,6.883
61,-117,6.884
167,-171,6.885
206,-200,6.886
45,-177,6.887
-275,-127,6.888
-478,-107,6.889
-331,-134,6.89
23,-172,6.891
224,-186,6.892
153,-167,6.893
-18,-94,6.894
-107,29,6.895
-118,140,6.896
-84,161,6.897
25,127,6.898
170,136,6.899
223,212,6.9
149,282,6.901
45,288,6.902
-15,250,6.903
-53,186,6.904
-77,103,6.905
-60,30,6.906
-22,4,6.907
-13,2,6.908
-23,-25,6.909
-17,-69,6.91
4,-78,6.911
47,-66,6.912
131,-73,6.913
231,-106,6.914
239,-134,6.915
127,-169,6.916
8,-215,6.917
-25,-199,6.918
-23,-68,6.919
-31,90,6.92
-2,145,6.921
93,89,6.922
160,33,6.923
102,36,6.924
-49,64,6.925
-168,84,6.926
-166,94,6.927
-57,89,6.928
38,56,6.929
1,13,6.93
-131,-17,6.931
-192,-45,6.932
-104,-75,6.933
44,-83,6.934
131,-37,6.935
151,38,6.936
141,86,6.937
62,89,6.938
-101,42,6.939
-246,-44,6.94
-289,-130,6.941
-253,-159,6.942
-152,-116,6.943
38,-40,6.944
262,20,6.945
341,48,6.946
183,47,6.947
-91,33,6.948
-287,15,6.949
-323,2,6.95
-222,-7,6.951
-19,-16,6.952
213,-21,6.953
362,-25,6.954
262,-32,6.955
-82,-37,6.956
-412,-39,6.957
-443,-45,6.958
-174,-77,6.959
135,-129,6.96
277,-152,6.961
274,-111,6.962
222,-26,6.963
139,47,6.964
44,76,6.965
5,72,6.966
43,67,6.967
82,72,6.968
65,70,6.969
37,54,6.97
62,34,6.971
141,20,6.972
207,16,6.973
168,10,6.974
-38,-4,6.975
-338,-23,6.976
-494,-30,6.977
-349,3,6.978
-30,58,6.979
173,86,6.98
144,66,6.981
34,41,6.982
17,54,6.983
70,75,6.984
79,54,6.985
35,-14,6.986
22,-89,6.987
35,-137,6.988
-14,-142,6.989
-116,-109,6.99
-143,-64,6.991
-53,-38,6.992
40,-22,6.993
66,14,6.994
110,64,6.995
251,81,6.996
366,65,6.997
223,77,6.998
-138,127,6.999
-373,150,7.0
-270,109,7.001
-52,43,7.002
-36,1,7.003
-171,-22,7.004
-165,-51,7.005
11,-75,7.006
95,-75,7.007
0,-61,7.008
-46,-62,7.009
76,-91,7.01
155,-148,7.011
25,-211,7.012
-132,-229,7.013
-83,-155,7.014
87,4,7.015
190,166,7.016
222,247,7.017
212,245,7.018
79,211,7.019
-200,175,7.02
-426,131,7.021
-386,78,7.022
-101,31,7.023
231,-3,7.024
409,-39,7.025
344,-87,7.026
125,-126,7.027
-14,-131,7.028
55,-100,7.029
189,-65,7.03
177,-55,7.031
47,-56,7.032
-39,-31,7.033
-82,17,7.034
-177,46,7.035
-294,39,7.036
-287,35,7.037
-161,57,7.038
-65,67,7.039
-47,40,7.04
-8,8,7.041
85,-1,7.042
118,-12,7.043
18,-37,7.044
-122,-48,7.045
-152,-32,7.046
-34,-26,7.047
136,-46,7.048
245,-52,7.049
250,-24,7.05
162,-3,7.051
-4,-18,7.052
-195,-31,7.053
-326,-20,7.054
-334,-5,7.055
-293,7,7.056
-102,5,7.057
104,6,7.058
358,16,7.059
468,23,7.06
144,14,7.061
-79,5,7.062
2,-1,7.063
114,-9,7.064
316,-18,7.065
393,-20,7.066
95,4,7.067
-120,22,7.068
-89,21,7.069
-79,16,7.07
-133,1,7.071
-174,-14,7.072
-174,-32,7.073
-134,-42,7.074
48,-19,7.075
141,5,7.076
-2,11,7.077
-246,8,7.078
-307,10,7.079
-136,26,7.08
45,43,7.081
96,46,7.082
104,41,7.083
166,46,7.084
257,59,7.085
307,54,7.086
203,20,7.087
-172,-15,7.088
-662,-19,7.089
-781,-2,7.09
-278,3,7.091
415,-20,7.092
683,-45,7.093
454,-40,7.094
134,1,7.095
4,33,7.096
-12,13,7.097
-31,-34,7.098
-36,-57,7.099
-34,-46,7.1
-64,-36,7.101
-56,-36,7.102
64,-25,7.103
174,-7,7.104
110,-8,7.105
-64,-38,7.106
-179,-57,7.107
-208,-38,7.108
-210,4,7.109
-142,35,7.11
51,40,7.111
256,36,7.112
313,46,7.113
194,72,7.114
-39,97,7.115
-336,85,7.116
-563,31,7.117
-516,-21,7.118
-168,-43,7.119
232,-42,7.12
430,-45,7.121
413,-58,7.122
296,-71,7.123
167,-67,7.124
97,-45,7.125
110,-10,7.126
102,18,7.127
-14,26,7.128
-133,11,7.129
-108,-2,7.13
-27,1,7.131
-72,18,7.132
-171,35,7.133
-126,41,7.134
37,39,7.135
74,27,7.136
-59,3,7.137
-120,-12,7.138
-17,2,7.139
28,45,7.14
-76,87,7.141
-63,95,7.142
238,64,7.143
494,10,7.144
281,-49,7.145
-237,-104,7.146
-479,-129,7.147
-239,-100,7.148
92,-30,7.149
164,29,7.15
117,50,7.151
196,59,7.152
288,82,7.153
136,114,7.154
-257,117,7.155
-616,76,7.156
-718,2,7.157
-562,-77,7.158
-267,-141,7.159
17,-167,7.16
196,-148,7.161
287,-100,7.162
376,-51,7.163
456,-16,7.164
454,0,7.165
394,5,7.166
372,14,7.167
350,29,7.168
164,42,7.169
-216,50,7.17
-554,53,7.171
-554,41,7.172
-208,9,7.173
266,-22,7.174
497,-13,7.175
289,2,7.176
-221,38,7.177
-694,52,7.178
-822,0,7.179
-519,-39,7.18
14,-39,7.181
417,-39,7.182
452,-38,7.183
249,-28,7.184
151,5,7.185
282,25,7.186
406,-3,7.187
265,-28,7.188
-84,-44,7.189
-376,-47,7.19
-444,-12,7.191
-291,25,7.192
-9,69,7.193
333,105,7.194
607,92,7.195
732,49,7.196
658,18,7.197
303,12,7.198
-237,-7,7.199
-505,-43,7.2
-170,-60,7.201
340,-37,7.202
275,1,7.203
-334,28,7.204
-678,33,7.205
-409,27,7.206
-107,17,7.207
-286,11,7.208
-651,7,7.209
-715,4,7.21
-481,12,7.211
-215,34,7.212
-2,58,7.213
202,73,7.214
342,79,7.215
348,60,7.216
210,-1,7.217
2,-80,7.218
-31,-130,7.219
331,-151,7.22
785,-181,7.221
664,-205,7.222
-77,-152,7.223
-599,-17,7.224
-321,101,7.225
217,127,7.226
214,104,7.227
-232,92,7.228
-432,71,7.229
-161,14,7.23
217,-39,7.231
397,-46,7.232
375,-38,7.233
219,-51,7.234
38,-49,7.235
-81,13,7.236
-184,74,7.237
-323,59,7.238
-302,-18,7.239
58,-65,7.24
446,-40,7.241
356,7,7.242
-117,31,7.243
-350,24,7.244
-106,9,7.245
191,4,7.246
217,27,7.247
182,63,7.248
306,77,7.249
381,51,7.25
185,23,7.251
-111,21,7.252
-272,27,7.253
-398,3,7.254
-613,-31,7.255
-724,-54,7.256
-504,-37,7.257
-142,-20,7.258
27,-4,7.259
47,3,7.26
188,-16,7.261
386,-27,7.262
328,-12,7.263
-5,8,7.264
-303,45,7.265
-357,66,7.266
-203,32,7.267
109,-6,7.268
456,-60,7.269
534,-98,7.27
231,-80,7.271
-51,-67,7.272
45,-69,7.273
298,-69,7.274
224,-33,7.275
-112,40,7.276
-237,76,7.277
-125,58,7.278
-146,45,7.279
-258,81,7.28
-70,120,7.281
330,109,7.282
415,65,7.283
121,30,7.284
-43,5,7.285
118,-25,7.286
237,-42,7.287
111,-29,7.288
1,0,7.289
44,12,7.29
1,1,7.291
-155,-24,7.292
-94,-51,7.293
246,-67,7.294
334,-55,7.295
-178,-18,7.296
-750,16,7.297
-659,30,7.298
-98,20,7.299
92,2,7.3
-294,-14,7.301
-509,-31,7.302
-3,-59,7.303
686,-97,7.304
713,-115,7.305
172,-87,7.306
-114,-25,7.307
86,22,7.308
151,34,7.309
-218,27,7.31
-428,16,7.311
-18,8,7.312
499,7,7.313
494,16,7.314
51,24,7.315
-283,18,7.316
-361,5,7.317
-417,14,7.318
-464,45,7.319
-347,89,7.32
-170,142,7.321
-156,185,7.322
-263,171,7.323
-280,78,7.324
-100,-40,7.325
262,-116,7.326
648,-130,7.327
680,-109,7.328
134,-71,7.329
-538,-25,7.33
-544,-3,7.331
248,-29,7.332
1047,-82,7.333
1190,-120,7.334
754,-118,7.335
367,-98,7.336
351,-79,7.337
356,-42,7.338
-46,15,7.339
-706,55,7.34
-1022,56,7.341
-711,49,7.342
-206,77,7.343
-102,130,7.344
-353,165,7.345
-388,140,7.346
37,49,7.347
512,-69,7.348
606,-146,7.349
404,-138,7.35
154,-83,7.351
-178,-38,7.352
-560,-5,7.353
-661,50,7.354
-251,110,7.355
166,115,7.356
-6,48,7.357
-418,-27,7.358
-252,-65,7.359
410,-58,7.36
653,-15,7.361
174,40,7.362
-358,66,7.363
-459,42,7.364
-345,-5,7.365
-177,-41,7.366
248,-65,7.367
803,-74,7.368
927,-41,7.369
499,31,7.37
46,94,7.371
-92,98,7.372
-75,56,7.373
-4,11,7.374
198,-27,7.375
320,-37,7.376
-7,-28,7.377
-590,-7,7.378
-791,1,7.379
-481,-16,7.38
-156,-49,7.381
-92,-67,7.382
-110,-50,7.383
-126,0,7.384
-262,54,7.385
-374,72,7.386
-155,37,7.387
275,-17,7.388
504,-52,7.389
473,-65,7.39
455,-73,7.391
492,-59,7.392
403,-11,7.393
186,48,7.394
63,54,7.395
41,38,7.396
-45,36,7.397
-160,49,7.398
-122,46,7.399
-14,36,7.4
-81,46,7.401
-281,59,7.402
-329,48,7.403
-172,27,7.404
-49,17,7.405
-92,11,7.406
-149,-6,7.407
-62,-13,7.408
97,-3,7.409
151,-4,7.41
53,-36,7.411
-51,-67,7.412
-19,-65,7.413
81,-48,7.414
-17,-39,7.415
-399,-32,7.416
-704,-18,7.417
-531,-18,7.418
5,-46,7.419
396,-71,7.42
400,-71,7.421
251,-75,7.422
189,-96,7.423
139,-84,7.424
29,-10,7.425
79,73,7.426
468,91,7.427
883,64,7.428
751,64,7.429
8,95,7.43
-683,104,7.431
-680,73,7.432
-209,43,7.433
34,35,7.434
-285,48,7.435
-669,60,7.436
-523,65,7.437
26,49,7.438
481,-31,7.439
684,-101,7.44
724,-145,7.441
517,-164,7.442
39,-106,7.443
-306,-50,7.444
-137,0,7.445
271,41,7.446
302,60,7.447
-137,72,7.448
-540,60,7.449
-530,40,7.45
-262,-2,7.451
-59,-36,7.452
10,-40,7.453
86,-48,7.454
193,-72,7.455
196,-70,7.456
33,-19,7.457
-149,36,7.458
-192,34,7.459
-130,4,7.46
-69,7,7.461
-16,37,7.462
38,40,7.463
27,7,7.464
-50,-16,7.465
-40,-11,7.466
121,4,7.467
233,16,7.468
135,25,7.469
-24,28,7.47
-47,34,7.471
-52,65,7.472
-258,115,7.473
-611,147,7.474
-723,116,7.475
-396,59,7.476
126,5,7.477
494,-45,7.478
649,-101,7.479
709,-147,7.48
650,-156,7.481
355,-134,7.482
-47,-99,7.483
-207,-59,7.484
-25,-20,7.485
158,0,7.486
41,-13,7.487
-211,-52,7.488
-283,-77,7.489
-226,-60,7.49
-281,-12,7.491
-399,33,7.492
-343,56,7.493
-103,60,7.494
90,57,7.495
178,41,7.496
287,7,7.497
369,-8,7.498
248,18,7.499
-1,64,7.5
-118,84,7.501
-70,61,7.502
-29,14,7.503
0,-25,7.504
125,-41,7.505
225,-26,7.506
82,17,7.507
-224,66,7.508
-428,91,7.509
-442,85,7.51
-293,64,7.511
68,29,7.512
513,-18,7.513
687,-76,7.514
376,-106,7.515
-51,-95,7.516
-121,-75,7.517
75,-61,7.518
172,-42,7.519
148,-4,7.52
161,37,7.521
110,53,7.522
-156,41,7.523
-434,30,7.524
-424,21,7.525
-203,-4,7.526
-56,-44,7.527
-18,-63,7.528
51,-40,7.529
116,-1,7.53
49,19,7.531
-58,23,7.532
-28,31,7.533
92,38,7.534
86,36,7.535
-63,20,7.536
-141,-3,7.537
-104,-25,7.538
-131,-43,7.539
-236,-47,7.54
-169,-36,7.541
124,-22,7.542
304,-13,7.543
135,0,7.544
-102,17,7.545
-45,25,7.546
195,10,7.547
266,-5,7.548
159,0,7.549
124,20,7.55
198,32,7.551
213,35,7.552
148,47,7.553
54,66,7.554
-165,78,7.555
-550,74,7.556
-778,54,7.557
-532,21,7.558
-48,-31,7.559
208,-84,7.56
239,-101,7.561
360,-87,7.562
527,-69,7.563
412,-50,7.564
43,-6,7.565
-155,55,7.566
-6,79,7.567
219,37,7.568
215,-30,7.569
-29,-83,7.57
-300,-114,7.571
-364,-118,7.572
-210,-81,7.573
-65,-20,7.574
-160,10,7.575
-335,-8,7.576
-229,-37,7.577
117,-39,7.578
308,-25,7.579
206,-8,7.58
70,24,7.581
69,63,7.582
80,80,7.583
21,72,7.584
-24,73,7.585
-28,91,7.586
-42,94,7.587
-23,63,7.588
78,23,7.589
138,-3,7.59
30,-17,7.591
-123,-19,7.592
-130,-5,7.593
-14,9,7.594
62,5,7.595
50,-5,7.596
26,3,7.597
-4,19,7.598
-54,10,7.599
-54,-16,7.6
42,-21,7.601
107,3,7.602
34,26,7.603
-48,26,7.604
35,14,7.605
174,5,7.606
82,-2,7.607
-237,-4,7.608
-417,8,7.609
-196,27,7.61
220,30,7.611
417,14,7.612
291,-8,7.613
40,-39,7.614
-94,-83,7.615
-97,-130,7.616
-85,-152,7.617
-97,-119,7.618
-83,-47,7.619
-48,17,7.62
-61,32,7.621
-99,0,7.622
-51,-29,7.623
83,-12,7.624
137,41,7.625
42,80,7.626
-20,71,7.627
85,32,7.628
183,-1,7.629
77,-19,7.63
-86,-35,7.631
-59,-49,7.632
59,-35,7.633
20,11,7.634
-108,53,7.635
-169,52,7.636
-27,21,7.637
73,5,7.638
49,1,7.639
41,-6,7.64
87,-9,7.641
106,11,7.642
38,36,7.643
-8,29,7.644
17,5,7.645
26,2,7.646
-15,14,7.647
-42,11,7.648
-24,-6,7.649
-5,-5,7.65
16,16,7.651
47,32,7.652
108,39,7.653
111,53,7.654
-115,71,7.655
-293,66,7.656
-292,27,7.657
-151,-22,7.658
67,-61,7.659
275,-76,7.66
296,-55,7.661
62,-6,7.662
-192,26,7.663
-144,9,7.664
166,-36,7.665
348,-62,7.666
152,-57,7.667
-225,-42,7.668
-406,-27,7.669
-282,-11,7.67
-53,6,7.671
94,16,7.672
179,21,7.673
250,22,7.674
235,24,7.675
79,23,7.676
-71,0,7.677
-64,-46,7.678
-5,-90,7.679
-91,-87,7.68
-260,-34,7.681
-270,16,7.682
-84,26,7.683
94,9,7.684
144,-12,7.685
128,-40,7.686
100,-60,7.687
30,-45,7.688
-54,0,7.689
-79,39,7.69
-35,50,7.691
17,51,7.692
60,51,7.693
102,35,7.694
109,18,7.695
53,26,7.696
-9,46,7.697
-19,46,7.698
-4,25,7.699
-5,15,7.7
-10,28,7.701
1,32,7.702
3,19,7.703
-19,10,7.704
-30,14,7.705
-7,10,7.706
29,-3,7.707
50,-10,7.708
54,-7,7.709
33,-2,7.71
-22,0,7.711
-71,3,7.712
-80,3,7.713
-73,-7,7.714
-78,-18,7.715
-45,-16,7.716
67,-15,7.717
174,-19,7.718
169,-14,7.719
99,14,7.72
72,47,7.721
34,54,7.722
-141,27,7.723
-343,-5,7.724
-306,-19,7.725
-29,-11,7.726
162,0,7.727
78,-7,7.728
-88,-47,7.729
-100,-110,7.73
-39,-150,7.731
-98,-134,7.732
-207,-79,7.733
-121,-42,7.734
144,-43,7.735
315,-41,7.736
200,-26,7.737
103,-9,7.738
60,13,7.739
42,32,7.74
103,37,7.741
144,43,7.742
121,49,7.743
113,57,7.744
153,65,7.745
167,75,7.746
99,88,7.747
40,96,7.748
11,90,7.749
-20,68,7.75
-59,1,7.751
-135,-56,7.752
-321,-88,7.753
-463,-103,7.754
-335,-62,7.755
-45,-31,7.756
162,-28,7.757
188,-31,7.758
113,-18,7.759
1,13,7.76
-130,44,7.761
-211,51,7.762
-163,34,7.763
-44,14,7.764
15,8,7.765
7,1,7.766
22,-15,7.767
71,-29,7.768
84,-23,7.769
52,-1,7.77
38,20,7.771
70,31,7.772
118,36,7.773
153,40,7.774
148,50,7.775
51,62,7.776
-120,61,7.777
-227,43,7.778
-151,11,7.779
28,-20,7.78
119,-47,7.781
74,-72,7.782
21,-85,7.783
35,-72,7.784
36,-47,7.785
-48,-32,7.786
-145,-36,7.787
-144,-34,7.788
-65,-12,7.789
1,15,7.79
40,22,7.791
88,10,7.792
127,4,7.793
103,11,7.794
28,25,7.795
-25,34,7.796
-22,35,7.797
-11,36,7.798
-25,34,7.799
-28,27,7.8
28,16,7.801
127,0,7.802
186,-26,7.803
137,-54,7.804
1,-64,7.805
-118,-48,7.806
-137,-19,7.807
-80,-8,7.808
-19,-13,7.809
15,-17,7.81
26,-5,7.811
5,20,7.812
-46,46,7.813
-99,64,7.814
-128,63,7.815
-141,42,7.816
-96,13,7.817
58,-1,7.818
220,1,7.819
201,8,7.82
22,11,7.821
-63,11,7.822
46,0,7.823
150,-27,7.824
83,-63,7.825
-31,-83,7.826
-37,-73,7.827
28,-32,7.828
88,21,7.829
184,65,7.83
283,79,7.831
173,65,7.832
-175,39,7.833
-494,-2,7.834
-424,-44,7.835
-61,-75,7.836
142,-67,7.837
-1,-57,7.838
-203,-42,7.839
-153,-30,7.84
60,-32,7.841
151,-32,7.842
67,-21,7.843
-12,-11,7.844
10,-7,7.845
38,0,7.846
9,16,7.847
-4,33,7.848
48,53,7.849
97,67,7.85
82,64,7.851
34,60,7.852
-10,58,7.853
-80,54,7.854
-151,31,7.855
-136,-7,7.856
-18,-35,7.857
102,-44,7.858
140,-43,7.859
125,-34,7.86
114,-15,7.861
104,-7,7.862
67,-17,7.863
6,-22,7.864
-41,2,7.865
-52,34,7.866
-31,36,7.867
-5,12,7.868
10,-1,7.869
30,6,7.87
62,15,7.871
73,18,7.872
39,23,7.873
-33,24,7.874
-99,13,7.875
-138,-4,7.876
-148,-16,7.877
-114,-13,7.878
-39,-4,7.879
38,10,7.88
75,27,7.881
73,34,7.882
54,26,7.883
27,15,7.884
-8,12,7.885
-37,10,7.886
-53,-5,7.887
-61,-30,7.888
-58,-53,7.889
-19,-56,7.89
54,-37,7.891
103,-11,7.892
81,-3,7.893
-2,-14,7.894
-66,-19,7.895
-40,-1,7.896
52,14,7.897
89,7,7.898
18,-9,7.899
-27,-5,7.9
124,14,7.901
364,30,7.902
354,32,7.903
-6,19,7.904
-392,-16,7.905
-475,-60,7.906
-331,-71,7.907
-221,-43,7.908
-169,-21,7.909
-38,-36,7.91
166,-59,7.911
292,-50,7.912
288,-24,7.913
182,-11,7.914
0,0,7.915
-198,15,7.916
-257,41,7.917
-88,57,7.918
179,43,7.919
353,31,7.92
391,27,7.921
327,19,7.922
154,2,7.923
-84,-6,7.924
-215,11,7.925
-154,25,7.926
-65,22,7.927
-109,20,7.928
-183,24,7.929
-120,22,7.93
17,0,7.931
56,-17,7.932
4,-17,7.933
-17,-10,7.934
24,7,7.935
49,15,7.936
34,15,7.937
19,20,7.938
-9,24,7.939
-84,21,7.94
-139,13,7.941
-99,2,7.942
-10,-13,7.943
33,-30,7.944
30,-37,7.945
37,-25,7.946
45,-10,7.947
20,-8,7.948
-3,-14,7.949
14,-11,7.95
38,-1,7.951
24,3,7.952
0,-1,7.953
3,-3,7.954
19,4,7.955
7,10,7.956
-15,6,7.957
-9,2,7.958
23,2,7.959
41,1,7.96
30,0,7.961
-6,4,7.962
-46,3,7.963
-46,-5,7.964
16,-11,7.965
108,1,7.966
170,22,7.967
158,23,7.968
52,6,7.969
-121,-2,7.97
-250,4,7.971
-203,7,7.972
-18,-3,7.973
136,-9,7.974
122,-1,7.975
12,8,7.976
-20,-3,7.977
26,-23,7.978
9,-38,7.979
-129,-40,7.98
-261,-33,7.981
-258,-29,7.982
-163,-31,7.983
-98,-35,7.984
-77,-29,7.985
3,-11,7.986
175,1,7.987
327,-3,7.988
339,-8,7.989
214,1,7.99
64,18,7.991
-10,26,7.992
1,18,7.993
51,-3,7.994
87,-26,7.995
72,-42,7.996
12,-45,7.997
-47,-29,7.998
-58,-5,7.999
-35,16,8.0
-40,36,8.001
-80,48,8.002
-82,51,8.003
-26,52,8.004
6,58,8.005
-41,60,8.006
-98,50,8.007
-83,29,8.008
-37,10,8.009
-30,3,8.01
-31,-2,8.011
23,-2,8.012
106,3,8.013
145,7,8.014
123,0,8.015
79,-15,8.016
38,-26,8.017
3,-23,8.018
-12,-14,8.019
3,-6,8.02
24,1,8.021
26,4,8.022
15,0,8.023
0,-8,8.024
-27,-10,8.025
-60,-5,8.026
-68,-3,8.027
-41,-10,8.028
-14,-14,8.029
-4,-8,8.03
0,-1,8.031
20,-2,8.032
41,-4,8.033
53,0,8.034
44,9,8.035
0,13,8.036
-62,13,8.037
-62,17,8.038
56,23,8.039
217,23,8.04
255,20,8.041
115,17,8.042
-74,10,8.043
-188,-12,8.044
-248,-51,8.045
-306,-83,8.046
-307,-91,8.047
-174,-64,8.048
40,-22,8.049
186,7,8.05
184,13,8.051
60,8,8.052
-97,10,8.053
-214,7,8.054
-186,-5,8.055
-4,-23,8.056
209,-32,8.057
314,-22,8.058
281,-1,8.059
187,24,8.06
93,42,8.061
-20,35,8.062
-195,4,8.063
-366,-23,8.064
-375,-27,8.065
-153,-10,8.066
153,4,8.067
333,-1,8.068
336,-10,8.069
255,-8,8.07
144,8,8.071
3,28,8.072
-104,36,8.073
-109,31,8.074
-25,27,8.075
33,23,8.076
33,8,8.077
41,-7,8.078
79,-9,8.079
114,8,8.08
170,29,8.081
268,36,8.082
297,28,8.083
122,15,8.084
-172,1,8.085
-367,-9,8.086
-408,-17,8.087
-405,-16,8.088
-368,-3,8.089
-208,15,8.09
10,23,8.091
96,15,8.092
35,7,8.093
-23,7,8.094
0,10,8.095
16,-1,8.096
-15,-36,8.097
-4,-69,8.098
84,-78,8.099
149,-60,8.1
124,-33,8.101
68,-16,8.102
45,-10,8.103
44,-3,8.104
45,10,8.105
54,24,8.106
58,28,8.107
40,28,8.108
9,26,8.109
-4,23,8.11
-12,17,8.111
-27,14,8.112
-28,13,8.113
2,7,8.114
34,3,8.115
28,5,8.116
4,9,8.117
7,16,8.118
25,28,8.119
-7,43,8.12
-101,51,8.121
-179,41,8.122
-137,13,8.123
14,-22,8.124
149,-56,8.125
177,-85,8.126
136,-100,8.127
112,-94,8.128
98,-63,8.129
52,-25,8.13
30,0,8.131
107,10,8.132
216,17,8.133
220,29,8.134
98,42,8.135
-5,43,8.136
14,30,8.137
65,20,8.138
-10,18,8.139
-235,16,8.14
-474,3,8.141
-592,-17,8.142
-561,-25,8.143
-436,-16,8.144
-269,-4,8.145
-79,-10,8.146
92,-29,8.147
169,-39,8.148
129,-32,8.149
53,-19,8.15
36,-6,8.151
85,14,8.152
144,28,8.153
173,20,8.154
167,-5,8.155
126,-19,8.156
80,-15,8.157
64,1,8.158
82,16,8.159
89,28,8.16
74,34,8.161
77,33,8.162
130,31,8.163
199,34,8.164
208,44,8.165
105,49,8.166
-90,48,8.167
-273,47,8.168
-322,43,8.169
-216,26,8.17
-65,-1,8.171
39,-36,8.172
107,-72,8.173
176,-104,8.174
201,-108,8.175
137,-81,8.176
51,-54,8.177
28,-44,8.178
39,-37,8.179
6,-10,8.18
-43,24,8.181
-42,32,8.182
-10,20,8.183
-26,16,8.184
-81,27,8.185
-101,30,8.186
-71,21,8.187
-41,13,8.188
-16,17,8.189
24,19,8.19
60,12,8.191
47,5,8.192
3,3,8.193
-30,4,8.194
-28,5,8.195
-9,6,8.196
40,5,8.197
130,6,8.198
209,11,8.199
181,19,8.2
41,23,8.201
-94,18,8.202
-141,7,8.203
-145,-8,8.204
-193,-27,8.205
-256,-41,8.206
-232,-37,8.207
-117,-20,8.208
-13,-4,8.209
20,0,8.21
22,-7,8.211
39,-11,8.212
53,-8,8.213
35,-1,8.214
15,6,8.215
29,8,8.216
72,1,8.217
110,-4,8.218
143,-1,8.219
165,7,8.22
132,11,8.221
14,11,8.222
-118,10,8.223
-155,9,8.224
-90,2,8.225
-20,-12,8.226
-5,-26,8.227
-15,-25,8.228
-29,-10,8.229
-75,1,8.23
-128,-2,8.231
-101,-11,8.232
1,-11,8.233
85,-6,8.234
84,-4,8.235
54,-10,8.236
86,-14,8.237
162,-6,8.238
210,4,8.239
198,9,8.24
141,16,8.241
50,37,8.242
-72,54,8.243
-193,50,8.244
-256,27,8.245
-201,0,8.246
-31,-29,8.247
138,-71,8.248
165,-102,8.249
54,-90,8.25
-36,-40,8.251
-17,0,8.252
16,8,8.253
-46,4,8.254
-149,15,8.255
-163,28,8.256
-77,25,8.257
12,17,8.258
77,25,8.259
191,40,8.26
373,45,8.261
485,35,8.262
363,21,8.263
42,12,8.264
-230,8,8.265
-256,7,8.266
-122,4,8.267
-55,-2,8.268
-117,-9,8.269
-184,-11,8.27
-185,-8,8.271
-176,-12,8.272
-175,-27,8.273
-129,-45,8.274
-42,-48,8.275
-8,-37,8.276
-35,-24,8.277
-29,-12,8.278
35,-1,8.279
72,8,8.28
48,13,8.281
36,17,8.282
69,19,8.283
99,21,8.284
97,22,8.285
75,21,8.286
32,16,8.287
-28,9,8.288
-44,5,8.289
17,6,8.29
90,10,8.291
91,8,8.292
47,3,8.293
18,-3,8.294
6,-4,8.295
-23,0,8.296
-48,0,8.297
-35,0,8.298
-6,-5,8.299
9,-7,8.3
22,-6,8.301
52,-2,8.302
74,3,8.303
56,7,8.304
17,8,8.305
-21,10,8.306
-57,12,8.307
-82,12,8.308
-65,8,8.309
-9,-2,8.31
45,-20,8.311
66,-38,8.312
62,-38,8.313
42,-20,8.314
19,1,8.315
16,6,8.316
41,-8,8.317
50,-12,8.318
9,-4,8.319
-44,1,8.32
-49,-1,8.321
0,-3,8.322
31,7,8.323
-35,25,8.324
-196,38,8.325
-323,46,8.326
-255,50,8.327
-3,41,8.328
222,14,8.329
263,-20,8.33
199,-54,8.331
162,-81,8.332
125,-87,8.333
-4,-71,8.334
-138,-38,8.335
-129,-13,8.336
-19,-14,8.337
22,-17,8.338
-26,-10,8.339
-49,6,8.34
-19,18,8.341
10,23,8.342
48,28,8.343
124,37,8.344
167,43,8.345
115,42,8.346
55,37,8.347
81,32,8.348
89,23,8.349
-67,2,8.35
-308,-18,8.351
-413,-26,8.352
-334,-25,8.353
-183,-26,8.354
-57,-27,8.355
37,-24,8.356
88,-18,8.357
69,-9,8.358
31,2,8.359
35,18,8.36
47,30,8.361
21,23,8.362
14,8,8.363
82,-3,8.364
156,-6,8.365
134,-8,8.366
43,-6,8.367
-19,2,8.368
-44,10,8.369
-80,6,8.37
-107,-5,8.371
-68,-7,8.372
8,4,8.373
62,10,8.374
86,5,8.375
115,-3,8.376
144,-10,8.377
125,-10,8.378
62,-8,8.379
10,-4,8.38
-4,1,8.381
-8,4,8.382
-17,1,8.383
-25,0,8.384
-30,7,8.385
-34,12,8.386
-27,9,8.387
-3,1,8.388
14,-2,8.389
17,-1,8.39
36,-4,8.391
80,-10,8.392
99,-10,8.393
100,-4,8.394
167,12,8.395
234,30,8.396
301,39,8.397
272,41,8.398
-46,32,8.399
-312,13,8.4
-417,-11,8.401
-483,-41,8.402
-429,-67,8.403
-333,-72,8.404
-111,-49,8.405
55,-10,8.406
52,15,8.407
55,14,8.408
76,-3,8.409
84,-11,8.41
54,-7,8.411
40,-2,8.412
76,-2,8.413
119,-9,8.414
126,-14,8.415
35,-9,8.416
-13,-2,8.417
33,9,8.418
77,16,8.419
53,16,8.42
24,12,8.421
32,11,8.422
28,13,8.423
-8,12,8.424
-24,9,8.425
-7,8,8.426
4,13,8.427
1,17,8.428
30,17,8.429
88,12,8.43
117,7,8.431
101,7,8.432
90,7,8.433
82,8,8.434
11,8,8.435
-70,7,8.436
-184,5,8.437
-257,3,8.438
-202,-1,8.439
-150,-5,8.44
-106,-10,8.441
-73,-18,8.442
-71,-34,8.443
-57,-45,8.444
-6,-41,8.445
39,-34,8.446
68,-19,8.447
87,-8,8.448
75,-9,8.449
62,-8,8.45
51,1,8.451
41,9,8.452
35,8,8.453
31,6,8.454
25,4,8.455
8,9,8.456
-10,6,8.457
-23,1,8.458
-28,1,8.459
-23,11,8.46
-11,22,8.461
-5,26,8.462
6,22,8.463
46,18,8.464
104,15,8.465
128,12,8.466
79,7,8.467
-9,-1,8.468
-66,-8,8.469
-54,-8,8.47
15,-5,8.471
102,-10,8.472
156,-24,8.473
135,-35,8.474
51,-27,8.475
-31,-6,8.476
-47,2,8.477
-16,-2,8.478
1,-8,8.479
-10,-4,8.48
-15,6,8.481
9,8,8.482
47,5,8.483
75,4,8.484
67,9,8.485
-11,14,8.486
-155,15,8.487
-269,14,8.488
-262,15,8.489
-160,17,8.49
-62,13,8.491
-1,3,8.492
75,-6,8.493
188,-14,8.494
246,-21,8.495
167,-31,8.496
1,-37,8.497
-117,-27,8.498
-131,-9,8.499
-98,5,8.5
-77,6,8.501
-46,2,8.502
28,1,8.503
95,3,8.504
75,5,8.505
-18,5,8.506
-76,5,8.507
-49,4,8.508
0,1,8.509
-1,-1,8.51
-26,-3,8.511
-18,-5,8.512
19,-5,8.513
37,-7,8.514
23,-7,8.515
12,-7,8.516
9,-8,8.517
16,-7,8.518
53,2,8.519
79,11,8.52
67,15,8.521
53,17,8.522
36,14,8.523
26,10,8.524
39,2,8.525
42,-1,8.526
12,8,8.527
-19,15,8.528
-55,7,8.529
-77,0,8.53
-59,-5,8.531
-47,-11,8.532
-51,-20,8.533
-58,-26,8.534
-40,-17,8.535
40,-8,8.536
111,-11,8.537
105,-16,8.538
43,-16,8.539
-18,-9,8.54
-53,-3,8.541
-65,9,8.542
-60,25,8.543
-60,34,8.544
-66,29,8.545
-34,13,8.546
65,-7,8.547
167,-26,8.548
176,-38,8.549
109,-29,8.55
71,-1,8.551
108,27,8.552
145,37,8.553
111,28,8.554
24,12,8.555
-59,0,8.556
-113,-12,8.557
-139,-20,8.558
-134,-19,8.559
-105,-12,8.56
-77,-7,8.561
-58,-7,8.562
-32,-4,8.563
3,2,8.564
20,2,8.565
7,-5,8.566
-12,-11,8.567
-13,-7,8.568
-3,2,8.569
3,4,8.57
9,3,8.571
21,10,8.572
34,24,8.573
38,30,8.574
37,21,8.575
46,5,8.576
66,-1,8.577
63,4,8.578
16,14,8.579
-60,17,8.58
-116,13,8.581
-123,5,8.582
-93,-4,8.583
-54,-12,8.584
-9,-14,8.585
39,-13,8.586
62,-11,8.587
49,-10,8.588
28,-8,8.589
29,-6,8.59
36,-9,8.591
22,-10,8.592
2,-7,8.593
-3,-2,8.594
-2,0,8.595
-23,0,8.596
-47,0,8.597
-39,4,8.598
-9,4,8.599
2,0,8.6
-3,1,8.601
23,6,8.602
87,7,8.603
130,1,8.604
122,-3,8.605
121,-3,8.606
164,-2,8.607
170,-7,8.608
40,-16,8.609
-157,-22,8.61
-245,-23,8.611
-187,-19,8.612
-113,-11,8.613
-102,-7,8.614
-99,-7,8.615
-58,-3,8.616
-22,2,8.617
-9,7,8.618
52,5,8.619
157,6,8.62
181,15,8.621
67,25,8.622
-61,21,8.623
-94,5,8.624
-51,-6,8.625
13,-7,8.626
84,-6,8.627
119,-10,8.628
56,-13,8.629
-53,-10,8.63
-84,-2,8.631
-35,2,8.632
-15,1,8.633
-52,-1,8.634
-58,-1,8.635
-2,4,8.636
36,3,8.637
32,0,8.638
43,-6,8.639
76,-4,8.64
52,4,8.641
-26,9,8.642
-52,7,8.643
16,7,8.644
81,16,8.645
58,29,8.646
-14,34,8.647
-59,29,8.648
-65,14,8.649
-71,-1,8.65
-97,-11,8.651
-128,-14,8.652
-121,-13,8.653
-39,-15,8.654
84,-23,8.655
151,-34,8.656
124,-43,8.657
75,-37,8.658
73,-21,8.659
78,-2,8.66
37,7,8.661
-14,8,8.662
-4,9,8.663
32,12,8.664
21,9,8.665
-27,4,8.666
-44,4,8.667
-22,10,8.668
-10,11,8.669
-15,5,8.67
-1,0,8.671
24,5,8.672
33,13,8.673
22,7,8.674
16,0,8.675
11,-1,8.676
-6,2,8.677
-16,4,8.678
-1,2,8.679
15,2,8.68
1,4,8.681
-19,4,8.682
-14,4,8.683
4,5,8.684
2,6,8.685
-12,5,8.686
-12,2,8.687
-4,3,8.688
-8,4,8.689
-14,0,8.69
-4,-6,8.691
17,-13,8.692
31,-16,8.693
35,-23,8.694
30,-27,8.695
10,-25,8.696
-15,-17,8.697
-30,0,8.698
-28,16,8.699
-21,20,8.7
-10,10,8.701
10,-1,8.702
33,-3,8.703
47,0,8.704
68,2,8.705
117,2,8.706
164,7,8.707
135,13,8.708
2,12,8.709
-169,5,8.71
-277,2,8.711
-271,3,8.712
-189,0,8.713
-99,-10,8.714
-54,-21,8.715
-43,-27,8.716
-6,-29,8.717
80,-22,8.718
166,-7,8.719
181,7,8.72
116,15,8.721
40,17,8.722
4,19,8.723
-13,18,8.724
-56,15,8.725
-109,5,8.726
-112,-5,8.727
-51,-13,8.728
30,-11,8.729
93,2,8.73
141,12,8.731
168,8,8.732
161,-7,8.733
111,-23,8.734
37,-23,8.735
-45,-12,8.736
-116,-5,8.737
-145,-5,8.738
-114,-14,8.739
-49,-24,8.74
0,-28,8.741
16,-17,8.742
12,-1,8.743
8,10,8.744
14,14,8.745
24,17,8.746
32,22,8.747
39,25,8.748
50,22,8.749
62,13,8.75
66,7,8.751
50,10,8.752
25,19,8.753
-2,16,8.754
-29,2,8.755
-54,-13,8.756
-73,-33,8.757
-69,-47,8.758
-40,-38,8.759
0,-23,8.76
25,6,8.761
28,29,8.762
20,24,8.763
14,20,8.764
13,19,8.765
13,17,8.766
18,15,8.767
36,12,8.768
63,6,8.769
75,3,8.77
52,8,8.771
4,10,8.772
-34,4,8.773
-57,-1,8.774
-75,-6,8.775
-91,-8,8.776
-86,-13,8.777
-48,-13,8.778
6,-8,8.779
57,0,8.78
106,6,8.781
154,9,8.782
175,9,8.783
133,10,8.784
29,11,8.785
-86,12,8.786
-151,6,8.787
-168,-1,8.788
-179,-3,8.789
-196,0,8.79
-181,-2,8.791
-125,-18,8.792
-77,-29,8.793
-58,-23,8.794
-16,-6,8.795
79,-5,8.796
166,-34,8.797
174,-63,8.798
123,-61,8.799
65,-36,8.8
7,-11,8.801
-46,3,8.802
-49,18,8.803
2,28,8.804
31,29,8.805
-6,20,8.806
-40,12,8.807
4,11,8.808
95,14,8.809
151,20,8.81
154,24,8.811
130,15,8.812
97,-5,8.813
58,-19,8.814
35,-10,8.815
15,-1,8.816
4,4,8.817
-2,6,8.818
7,-5,8.819
17,-12,8.82
33,-4,8.821
44,6,8.822
41,19,8.823
28,28,8.824
-16,20,8.825
-58,11,8.826
-96,0,8.827
-122,-7,8.828
-106,-5,8.829
-84,-2,8.83
-46,4,8.831
-18,7,8.832
-18,-2,8.833
-20,-13,8.834
-26,-18,8.835
-25,-13,8.836
-19,-8,8.837
-6,-4,8.838
13,-5,8.839
23,-5,8.84
21,0,8.841
26,12,8.842
44,19,8.843
46,15,8.844
8,0,8.845
-36,-13,8.846
-45,-12,8.847
-25,-4,8.848
-25,-1,8.849
-61,-9,8.85
-90,-12,8.851
-82,0,8.852
-54,20,8.853
-28,20,8.854
10,1,8.855
62,-15,8.856
88,-24,8.857
67,-29,8.858
41,-31,8.859
51,-23,8.86
72,-9,8.861
67,-9,8.862
60,-20,8.863
111,-17,8.864
239,8,8.865
367,33,8.866
341,42,8.867
60,52,8.868
-364,71,8.869
-655,78,8.87
-653,52,8.871
-445,5,8.872
-196,-39,8.873
57,-83,8.874
249,-114,8.875
253,-113,8.876
89,-86,8.877
-23,-46,8.878
44,-14,8.879
144,8,8.88
118,20,8.881
49,21,8.882
64,16,8.883
108,22,8.884
78,33,8.885
31,40,8.886
65,40,8.887
133,45,8.888
152,51,8.889
145,51,8.89
153,46,8.891
126,41,8.892
32,32,8.893
-84,13,8.894
-161,-11,8.895
-235,-32,8.896
-334,-54,8.897
-359,-72,8.898
-194,-81,8.899
80,-68,8.9
235,-38,8.901
160,-11,8.902
-8,2,8.903
-79,1,8.904
-31,6,8.905
21,20,8.906
27,34,8.907
26,38,8.908
18,30,8.909
-45,17,8.91
-141,3,8.911
-175,-13,8.912
-121,-17,8.913
-43,-10,8.914
18,-3,8.915
76,1,8.916
121,-8,8.917
145,-14,8.918
105,-9,8.919
66,-3,8.92
31,5,8.921
9,12,8.922
29,13,8.923
41,15,8.924
31,16,8.925
23,17,8.926
23,12,8.927
22,7,8.928
24,4,8.929
28,2,8.93
36,3,8.931
35,3,8.932
8,1,8.933
-25,2,8.934
-53,9,8.935
-33,9,8.936
-5,3,8.937
-9,0,8.938
-24,-8,8.939
-34,-18,8.94
-51,-19,8.941
-77,-12,8.942
-62,-13,8.943
24,-28,8.944
133,-37,8.945
170,-24,8.946
106,2,8.947
19,17,8.948
-3,14,8.949
29,2,8.95
40,-3,8.951
9,1,8.952
-20,14,8.953
-29,18,8.954
-40,18,8.955
-46,25,8.956
-11,34,8.957
28,38,8.958
7,29,8.959
-39,13,8.96
-15,-4,8.961
55,-27,8.962
37,-55,8.963
-91,-69,8.964
-186,-61,8.965
-158,-38,8.966
-88,-19,8.967
-56,-11,8.968
-27,-7,8.969
49,-3,8.97
147,1,8.971
219,9,8.972
237,16,8.973
154,21,8.974
-32,30,8.975
-196,43,8.976
-207,43,8.977
-107,21,8.978
-49,-13,8.979
-63,-33,8.98
-67,-31,8.981
-65,-29,8.982
-120,-32,8.983
-162,-33,8.984
-70,-21,8.985
92,-6,8.986
141,5,8.987
72,20,8.988
45,43,8.989
97,55,8.99
102,40,8.991
20,9,8.992
-36,-13,8.993
-17,-31,8.994
11,-38,8.995
1,-27,8.996
14,-8,8.997
69,2,8.998
98,-8,8.999
74,-15,9.0
44,-6,9.001
37,11,9.002
28,17,9.003
12,14,9.004
14,17,9.005
22,22,9.006
11,21,9.007
1,15,9.008
31,13,9.009
83,13,9.01
106,14,9.011
90,15,9.012
62,19,9.013
30,16,9.014
-14,9,9.015
-67,8,9.016
-104,14,9.017
-105,13,9.018
-84,-7,9.019
-82,-33,9.02
-122,-37,9.021
-155,-17,9.022
-110,-8,9.023
0,-27,9.024
77,-60,9.025
59,-75,9.026
7,-63,9.027
16,-31,9.028
88,7,9.029
139,30,9.03
116,26,9.031
57,10,9.032
19,6,9.033
7,13,9.034
0,11,9.035
-14,-6,9.036
-21,-21,9.037
-4,-10,9.038
24,20,9.039
41,44,9.04
47,53,9.041
65,47,9.042
96,31,9.043
92,19,9.044
4,19,9.045
-147,17,9.046
-274,-1,9.047
-302,-29,9.048
-231,-45,9.049
-118,-42,9.05
-32,-33,9.051
3,-29,9.052
30,-21,9.053
98,-7,9.054
161,10,9.055
83,21,9.056
-150,21,9.057
-341,22,9.058
-283,17,9.059
-29,8,9.06
197,-6,9.061
283,-23,9.062
288,-42,9.063
261,-60,9.064
171,-68,9.065
52,-54,9.066
11,-20,9.067
76,13,9.068
146,29,9.069
150,30,9.07
118,28,9.071
61,27,9.072
-45,22,9.073
-192,13,9.074
-253,8,9.075
-178,9,9.076
-68,1,9.077
-21,-7,9.078
-14,-9,9.079
3,0,9.08
18,13,9.081
6,20,9.082
9,23,9.083
47,25,9.084
74,28,9.085
52,29,9.086
13,27,9.087
-5,19,9.088
-9,8,9.089
-12,-9,9.09
-9,-27,9.091
-7,-34,9.092
-19,-25,9.093
-22,-13,9.094
11,-16,9.095
43,-30,9.096
5,-31,9.097
-73,-13,9.098
-83,4,9.099
13,6,9.1
123,5,9.101
142,12,9.102
70,21,9.103
-17,29,9.104
-63,36,9.105
-86,33,9.106
-127,5,9.107
-177,-25,9.108
-176,-25,9.109
-106,-9,9.11
-21,-14,9.111
32,-35,9.112
79,-34,9.113
136,-13,9.114
144,-4,9.115
60,-11,9.116
-32,-10,9.117
-27,8,9.118
68,18,9.119
162,14,9.12
200,21,9.121
162,40,9.122
29,45,9.123
-153,25,9.124
-251,-2,9.125
-205,-23,9.126
-106,-41,9.127
-42,-44,9.128
28,-23,9.129
140,8,9.13
200,25,9.131
111,21,9.132
-40,13,9.133
-124,3,9.134
-93,-11,9.135
-25,-23,9.136
19,-27,9.137
56,-24,9.138
98,-25,9.139
94,-10,9.14
14,19,9.141
-93,35,9.142
-131,19,9.143
-66,-3,9.144
45,-5,9.145
122,-3,9.146
130,-16,9.147
100,-32,9.148
73,-23,9.149
54,0,9.15
18,7,9.151
-16,1,9.152
2,10,9.153
74,41,9.154
113,68,9.155
56,64,9.156
-33,31,9.157
-77,-2,9.158
-116,-26,9.159
-209,-39,9.16
-271,-43,9.161
-207,-45,9.162
-93,-51,9.163
-72,-58,9.164
-106,-50,9.165
-63,-25,9.166
46,1,9.167
88,15,9.168
53,18,9.169
50,21,9.17
96,25,9.171
103,24,9.172
61,16,9.173
36,11,9.174
51,13,9.175
49,19,9.176
19,14,9.177
11,6,9.178
30,2,9.179
35,4,9.18
27,10,9.181
42,18,9.182
67,26,9.183
59,20,9.184
20,8,9.185
1,-1,9.186
13,2,9.187
37,8,9.188
72,11,9.189
130,14,9.19
164,22,9.191
108,31,9.192
-6,33,9.193
-93,20,9.194
-106,-1,9.195
-101,-29,9.196
-122,-55,9.197
-132,-57,9.198
-115,-34,9.199
-131,-10,9.2
-187,-7,9.201
-178,-14,9.202
-59,-14,9.203
55,-10,9.204
57,-23,9.205
10,-45,9.206
13,-46,9.207
36,-30,9.208
19,-22,9.209
10,-28,9.21
70,-24,9.211
132,5,9.212
117,35,9.213
53,41,9.214
34,36,9.215
55,41,9.216
49,49,9.217
12,39,9.218
-7,4,9.219
2,-28,9.22
12,-38,9.221
11,-26,9.222
-2,-9,9.223
-34,4,9.224
-66,21,9.225
-59,36,9.226
-14,32,9.227
12,-1,9.228
3,-43,9.229
4,-58,9.23
28,-32,9.231
32,2,9.232
8,16,9.233
0,8,9.234
23,2,9.235
24,5,9.236
-5,6,9.237
-15,8,9.238
16,17,9.239
38,31,9.24
22,34,9.241
4,23,9.242
6,10,9.243
14,7,9.244
44,9,9.245
161,19,9.246
349,30,9.247
448,30,9.248
283,14,9.249
-116,-5,9.25
-481,-15,9.251
-566,-21,9.252
-416,-28,9.253
-227,-40,9.254
-128,-53,9.255
-62,-64,9.256
25,-66,9.257
62,-39,9.258
6,2,9.259
-58,26,9.26
-58,18,9.261
-22,6,9.262
16,15,9.263
71,28,9.264
115,18,9.265
89,-4,9.266
28,-18,9.267
14,-27,9.268
20,-40,9.269
-32,-49,9.27
-89,-36,9.271
-32,-6,9.272
91,22,9.273
135,33,9.274
77,29,9.275
49,21,9.276
100,12,9.277
125,12,9.278
67,14,9.279
13,12,9.28
25,8,9.281
52,5,9.282
51,7,9.283
42,19,9.284
31,40,9.285
-1,57,9.286
-35,53,9.287
-18,27,9.288
36,0,9.289
57,-11,9.29
22,-12,9.291
-40,-16,9.292
-86,-24,9.293
-101,-31,9.294
-76,-32,9.295
-20,-31,9.296
17,-34,9.297
11,-32,9.298
4,-17,9.299
28,2,9.3
46,13,9.301
26,11,9.302
2,5,9.303
12,7,9.304
30,13,9.305
27,21,9.306
50,28,9.307
147,28,9.308
258,18,9.309
250,3,9.31
77,-3,9.311
-154,-4,9.312
-310,-6,9.313
-359,-24,9.314
-302,-48,9.315
-179,-66,9.316
-50,-64,9.317
5,-38,9.318
-29,-8,9.319
-83,4,9.32
-79,-1,9.321
-31,-4,9.322
5,7,9.323
2,25,9.324
-14,31,9.325
-7,28,9.326
35,24,9.327
81,17,9.328
97,4,9.329
96,-13,9.33
119,-21,9.331
151,-10,9.332
141,12,9.333
68,28,9.334
-6,24,9.335
-16,1,9.336
24,-26,9.337
53,-26,9.338
34,1,9.339
-31,36,9.34
-108,52,9.341
-140,47,9.342
-97,30,9.343
-17,6,9.344
46,-24,9.345
106,-45,9.346
191,-34,9.347
229,-1,9.348
128,12,9.349
-62,-21,9.35
-174,-71,9.351
-145,-88,9.352
-83,-62,9.353
-74,-22,9.354
-75,2,9.355
-29,12,9.356
32,13,9.357
49,16,9.358
45,17,9.359
57,14,9.36
63,10,9.361
47,10,9.362
51,22,9.363
94,46,9.364
118,65,9.365
86,61,9.366
51,30,9.367
63,-11,9.368
71,-44,9.369
3,-54,9.37
-115,-35,9.371
-191,-4,9.372
-192,12,9.373
-164,6,9.374
-134,0,9.375
-87,13,9.376
-20,31,9.377
19,29,9.378
8,12,9.379
-10,2,9.38
4,0,9.381
30,-9,9.382
31,-26,9.383
15,-28,9.384
7,-13,9.385
-5,-3,9.386
-29,-7,9.387
-22,-6,9.388
47,9,9.389
131,23,9.39
141,15,9.391
68,-6,9.392
-4,-20,9.393
-2,-25,9.394
71,-21,9.395
138,-4,9.396
131,22,9.397
74,48,9.398
26,60,9.399
-32,61,9.4
-166,52,9.401
-328,28,9.402
-344,-9,9.403
-144,-34,9.404
95,-39,9.405
145,-51,9.406
23,-83,9.407
-49,-101,9.408
42,-75,9.409
166,-31,9.41
150,-19,9.411
15,-34,9.412
-76,-35,9.413
-55,-11,9.414
5,12,9.415
7,23,9.416
-27,28,9.417
-21,31,9.418
31,22,9.419
55,6,9.42
35,6,9.421
25,18,9.422
44,20,9.423
56,12,9.424
32,10,9.425
-5,16,9.426
-23,19,9.427
-30,17,9.428
-31,23,9.429
-21,33,9.43
-3,35,9.431
5,27,9.432
1,18,9.433
3,10,9.434
17,2,9.435
21,-4,9.436
14,-8,9.437
18,-6,9.438
48,-10,9.439
85,-19,9.44
98,-16,9.441
75,0,9.442
27,13,9.443
-31,13,9.444
-75,10,9.445
-80,16,9.446
-39,23,9.447
12,15,9.448
22,-12,9.449
-25,-42,9.45
-76,-55,9.451
-76,-47,9.452
-37,-27,9.453
-3,-14,9.454
9,-12,9.455
29,-8,9.456
87,8,9.457
181,31,9.458
302,40,9.459
416,39,9.46
403,42,9.461
142,44,9.462
-288,23,9.463
-599,-20,9.464
-602,-59,9.465
-425,-74,9.466
-294,-75,9.467
-233,-74,9.468
-135,-70,9.469
-13,-61,9.47
26,-47,9.471
-14,-26,9.472
-16,2,9.473
51,26,9.474
97,34,9.475
72,28,9.476
44,25,9.477
76,35,9.478
147,45,9.479
200,44,9.48
201,39,9.481
154,32,9.482
81,17,9.483
34,1,9.484
40,-6,9.485
67,-3,9.486
78,0,9.487
78,-3,9.488
86,-5,9.489
85,-1,9.49
48,6,9.491
-7,9,9.492
-39,11,9.493
-46,16,9.494
-46,24,9.495
-45,22,9.496
-29,6,9.497
-8,-9,9.498
-11,-20,9.499
-41,-29,9.5
-69,-29,9.501
-66,-14,9.502
-35,14,9.503
16,32,9.504
72,30,9.505
97,19,9.506
74,17,9.507
21,23,9.508
-16,18,9.509
-25,-3,9.51
-28,-34,9.511
-39,-62,9.512
-25,-69,9.513
62,-43,9.514
206,14,9.515
266,63,9.516
97,64,9.517
-219,27,9.518
-399,-12,9.519
-299,-45,9.52
-106,-82,9.521
-47,-101,9.522
-78,-67,9.523
-29,-3,9.524
72,23,9.525
75,-1,9.526
-12,-25,9.527
-36,-10,9.528
29,9,9.529
72,10,9.53
51,10,9.531
38,27,9.532
57,40,9.533
60,30,9.534
37,14,9.535
28,16,9.536
40,22,9.537
37,18,9.538
21,14,9.539
24,19,9.54
39,19,9.541
29,-1,9.542
-2,-22,9.543
-25,-26,9.544
-27,-16,9.545
-7,-7,9.546
43,0,9.547
98,8,9.548
108,12,9.549
56,14,9.55
-5,18,9.551
-41,24,9.552
-63,22,9.553
-81,4,9.554
-63,-16,9.555
-3,-30,9.556
31,-36,9.557
-15,-38,9.558
-87,-33,9.559
-83,-18,9.56
-2,-2,9.561
60,9,9.562
60,9,9.563
70,7,9.564
148,16,9.565
191,41,9.566
68,70,9.567
-167,79,9.568
-318,54,9.569
-300,-2,9.57
-209,-72,9.571
-136,-121,9.572
-64,-126,9.573
24,-94,9.574
58,-52,9.575
7,-24,9.576
-25,-6,9.577
27,15,9.578
93,26,9.579
92,23,9.58
