Deltoid,Bicep,Time
235,-8,0.0
173,-7,0.001
93,-4,0.002
0,3,0.003
-91,13,0.004
-166,23,0.005
-225,32,0.006
-265,37,0.007
-270,40,0.008
-237,49,0.009
-189,73,0.01
-140,107,0.011
-80,125,0.012
6,94,0.013
100,12,0.014
173,-80,0.015
223,-138,0.016
256,-146,0.017
268,-120,0.018
255,-86,0.019
222,-58,0.02
169,-41,0.021
95,-30,0.022
-3,-14,0.023
-105,5,0.024
-188,20,0.025
-249,32,0.026
-287,45,0.027
-292,57,0.028
-260,56,0.029
-209,48,0.03
-151,44,0.031
-77,39,0.032
18,29,0.033
115,14,0.034
192,5,0.035
249,0,0.036
290,-8,0.037
305,-15,0.038
282,-20,0.039
230,-20,0.04
164,-23,0.041
85,-34,0.042
-10,-40,0.043
-104,-30,0.044
-178,-4,0.045
-231,23,0.046
-267,34,0.047
-277,25,0.048
-249,10,0.049
-194,0,0.05
-134,-7,0.051
-67,-18,0.052
18,-28,0.053
113,-26,0.054
191,-11,0.055
243,5,0.056
264,11,0.057
257,11,0.058
225,3,0.059
188,-6,0.06
143,-10,0.061
75,-4,0.062
-20,9,0.063
-116,15,0.064
-187,13,0.065
-235,15,0.066
-267,20,0.067
-268,21,0.068
-234,17,0.069
-184,19,0.07
-131,27,0.071
-57,22,0.072
43,1,0.073
140,-23,0.074
204,-40,0.075
240,-48,0.076
266,-52,0.077
275,-48,0.078
247,-38,0.079
195,-30,0.08
135,-26,0.081
66,-23,0.082
-24,-10,0.083
-116,5,0.084
-184,13,0.085
-228,18,0.086
-258,29,0.087
-268,36,0.088
-244,33,0.089
-195,25,0.09
-139,22,0.091
-71,18,0.092
23,10,0.093
125,5,0.094
205,7,0.095
254,8,0.096
280,2,0.097
284,-4,0.098
254,-8,0.099
199,-12,0.1
135,-20,0.101
59,-32,0.102
-36,-35,0.103
-129,-31,0.104
-197,-26,0.105
-242,-11,0.106
-273,26,0.107
-280,76,0.108
-251,111,0.109
-197,97,0.11
-138,26,0.111
-61,-54,0.112
42,-94,0.113
146,-85,0.114
219,-64,0.115
264,-58,0.116
294,-50,0.117
298,-30,0.118
258,-8,0.119
191,3,0.12
122,11,0.121
45,21,0.122
-52,26,0.123
-149,19,0.124
-223,15,0.125
-268,20,0.126
-289,28,0.127
-273,25,0.128
-213,20,0.129
-141,19,0.13
-86,19,0.131
-34,16,0.132
47,12,0.133
140,9,0.134
204,3,0.135
227,-4,0.136
228,-12,0.137
216,-17,0.138
185,-21,0.139
152,-21,0.14
115,-17,0.141
56,-19,0.142
-34,-25,0.143
-124,-29,0.144
-188,-21,0.145
-226,-7,0.146
-247,2,0.147
-237,5,0.148
-193,10,0.149
-138,17,0.15
-91,26,0.151
-29,40,0.152
60,57,0.153
149,65,0.154
210,48,0.155
247,10,0.156
271,-27,0.157
274,-45,0.158
247,-53,0.159
198,-58,0.16
130,-66,0.161
41,-68,0.162
-60,-54,0.163
-144,-30,0.164
-199,-6,0.165
-242,16,0.166
-273,39,0.167
-268,60,0.168
-224,71,0.169
-166,72,0.17
-105,66,0.171
-26,53,0.172
72,36,0.173
162,22,0.174
224,15,0.175
264,14,0.176
284,13,0.177
276,9,0.178
234,-1,0.179
177,-9,0.18
109,-17,0.181
23,-24,0.182
-76,-24,0.183
-163,-18,0.184
-222,-8,0.185
-258,4,0.186
-274,14,0.187
-265,9,0.188
-228,-12,0.189
-173,-30,0.19
-103,-19,0.191
-16,19,0.192
78,42,0.193
161,12,0.194
219,-58,0.195
257,-114,0.196
272,-115,0.197
263,-80,0.198
224,-51,0.199
169,-42,0.2
100,-34,0.201
11,-19,0.202
-83,-2,0.203
-159,8,0.204
-209,15,0.205
-246,26,0.206
-269,31,0.207
-258,30,0.208
-210,29,0.209
-147,29,0.21
-86,27,0.211
-10,17,0.212
80,8,0.213
165,5,0.214
224,5,0.215
259,2,0.216
273,-2,0.217
263,-6,0.218
223,-14,0.219
167,-22,0.22
97,-17,0.221
9,-2,0.222
-91,16,0.223
-171,25,0.224
-219,31,0.225
-250,51,0.226
-269,86,0.227
-256,103,0.228
-210,74,0.229
-150,6,0.23
-87,-54,0.231
-9,-75,0.232
89,-66,0.233
179,-55,0.234
234,-53,0.235
259,-50,0.236
264,-42,0.237
248,-31,0.238
207,-24,0.239
152,-12,0.24
87,-2,0.241
7,-2,0.242
-80,0,0.243
-158,1,0.244
-211,5,0.245
-247,13,0.246
-262,19,0.247
-245,19,0.248
-201,18,0.249
-145,15,0.25
-78,11,0.251
8,4,0.252
103,-3,0.253
182,-9,0.254
232,-15,0.255
263,-21,0.256
271,-25,0.257
250,-21,0.258
203,-15,0.259
145,-8,0.26
72,0,0.261
-20,9,0.262
-116,24,0.263
-188,40,0.264
-229,57,0.265
-255,74,0.266
-267,83,0.267
-247,78,0.268
-196,65,0.269
-132,52,0.27
-64,36,0.271
21,15,0.272
114,-9,0.273
189,-24,0.274
236,-29,0.275
261,-34,0.276
265,-43,0.277
244,-46,0.278
203,-46,0.279
148,-42,0.28
79,-40,0.281
-7,-40,0.282
-98,-32,0.283
-169,-20,0.284
-216,-10,0.285
-245,-2,0.286
-255,5,0.287
-235,7,0.288
-191,4,0.289
-136,2,0.29
-69,2,0.291
14,0,0.292
108,-6,0.293
186,-12,0.294
238,-16,0.295
265,-17,0.296
265,-17,0.297
238,-15,0.298
192,-14,0.299
136,-11,0.3
65,-5,0.301
-23,6,0.302
-110,27,0.303
-175,56,0.304
-219,85,0.305
-250,103,0.306
-254,106,0.307
-221,87,0.308
-167,30,0.309
-115,-65,0.31
-57,-160,0.311
24,-200,0.312
115,-172,0.313
186,-124,0.314
227,-95,0.315
251,-78,0.316
259,-47,0.317
238,-11,0.318
191,12,0.319
130,26,0.32
55,38,0.321
-27,51,0.322
-107,60,0.323
-168,69,0.324
-212,83,0.325
-245,91,0.326
-254,82,0.327
-229,64,0.328
-183,50,0.329
-128,43,0.33
-56,34,0.331
34,23,0.332
123,12,0.333
186,-1,0.334
227,-13,0.335
252,-15,0.336
253,-12,0.337
228,-10,0.338
174,-14,0.339
111,-19,0.34
37,-19,0.341
-52,-23,0.342
-139,-24,0.343
-198,-22,0.344
-229,-17,0.345
-246,-10,0.346
-247,-5,0.347
-224,-1,0.348
-176,0,0.349
-116,4,0.35
-44,7,0.351
40,9,0.352
128,8,0.353
197,1,0.354
241,-6,0.355
261,-9,0.356
255,-9,0.357
225,-8,0.358
175,-9,0.359
119,-12,0.36
52,-11,0.361
-32,-9,0.362
-121,-3,0.363
-188,2,0.364
-226,5,0.365
-239,7,0.366
-232,10,0.367
-202,11,0.368
-156,9,0.369
-103,5,0.37
-38,1,0.371
45,-2,0.372
130,-3,0.373
192,-4,0.374
230,-11,0.375
248,-18,0.376
243,-18,0.377
215,-12,0.378
162,-11,0.379
100,-11,0.38
27,-11,0.381
-54,-10,0.382
-135,-5,0.383
-195,1,0.384
-229,6,0.385
-245,10,0.386
-238,12,0.387
-204,13,0.388
-151,12,0.389
-89,8,0.39
-14,5,0.391
73,4,0.392
153,1,0.393
208,-4,0.394
240,-7,0.395
257,-7,0.396
250,-6,0.397
219,-5,0.398
171,-7,0.399
115,-6,0.4
43,-3,0.401
-46,-1,0.402
-130,5,0.403
-189,12,0.404
-226,17,0.405
-249,20,0.406
-248,18,0.407
-215,16,0.408
-165,11,0.409
-108,5,0.41
-32,0,0.411
65,-1,0.412
160,-3,0.413
225,-9,0.414
258,-13,0.415
272,-16,0.416
265,-15,0.417
237,-11,0.418
188,-10,0.419
128,-9,0.42
50,-10,0.421
-41,-9,0.422
-126,-4,0.423
-187,1,0.424
-219,6,0.425
-227,13,0.426
-219,17,0.427
-195,17,0.428
-158,12,0.429
-103,9,0.43
-31,6,0.431
48,2,0.432
117,-5,0.433
167,-8,0.434
200,-8,0.435
213,-8,0.436
197,-13,0.437
164,-15,0.438
118,-13,0.439
61,-9,0.44
-13,-6,0.441
-98,-7,0.442
-171,-3,0.443
-217,2,0.444
-241,6,0.445
-248,11,0.446
-235,17,0.447
-199,19,0.448
-148,13,0.449
-89,8,0.45
-18,7,0.451
60,5,0.452
132,-3,0.453
186,-10,0.454
219,-14,0.455
229,-14,0.456
215,-14,0.457
187,-13,0.458
146,-15,0.459
89,-14,0.46
12,-11,0.461
-69,-7,0.462
-137,-1,0.463
-182,3,0.464
-207,8,0.465
-211,14,0.466
-190,19,0.467
-153,16,0.468
-107,9,0.469
-52,5,0.47
19,6,0.471
103,5,0.472
174,0,0.473
220,-8,0.474
241,-10,0.475
244,-10,0.476
228,-8,0.477
200,-10,0.478
153,-12,0.479
91,-11,0.48
10,-8,0.481
-76,-7,0.482
-147,-3,0.483
-189,1,0.484
-206,6,0.485
-207,11,0.486
-193,13,0.487
-158,13,0.488
-111,10,0.489
-55,6,0.49
9,3,0.491
84,1,0.492
153,-1,0.493
199,-6,0.494
219,-12,0.495
219,-17,0.496
206,-15,0.497
181,-11,0.498
138,-11,0.499
79,-11,0.5
4,-10,0.501
-74,-8,0.502
-138,-2,0.503
-175,2,0.504
-193,7,0.505
-198,11,0.506
-188,13,0.507
-153,14,0.508
-103,11,0.509
-43,8,0.51
22,6,0.511
91,2,0.512
151,-3,0.513
191,-9,0.514
208,-11,0.515
208,-12,0.516
189,-13,0.517
155,-10,0.518
105,-8,0.519
45,-3,0.52
-23,0,0.521
-92,-2,0.522
-148,0,0.523
-180,5,0.524
-192,8,0.525
-192,8,0.526
-179,13,0.527
-150,16,0.528
-106,14,0.529
-47,7,0.53
18,2,0.531
83,-1,0.532
138,-4,0.533
179,-7,0.534
204,-11,0.535
205,-13,0.536
185,-13,0.537
152,-10,0.538
105,-7,0.539
43,-6,0.54
-31,-5,0.541
-101,-4,0.542
-150,0,0.543
-176,6,0.544
-191,10,0.545
-198,12,0.546
-186,16,0.547
-151,15,0.548
-99,9,0.549
-40,6,0.55
23,4,0.551
84,0,0.552
135,-8,0.553
173,-13,0.554
194,-14,0.555
195,-12,0.556
172,-9,0.557
138,-7,0.558
94,-6,0.559
41,-5,0.56
-28,-4,0.561
-100,-4,0.562
-154,-1,0.563
-180,4,0.564
-187,8,0.565
-184,11,0.566
-168,13,0.567
-135,13,0.568
-92,12,0.569
-41,11,0.57
16,8,0.571
75,2,0.572
125,-4,0.573
159,-8,0.574
178,-11,0.575
182,-13,0.576
170,-14,0.577
147,-12,0.578
106,-12,0.579
49,-10,0.58
-24,-9,0.581
-94,-9,0.582
-142,-7,0.583
-166,-3,0.584
-174,3,0.585
-170,9,0.586
-152,12,0.587
-121,11,0.588
-83,9,0.589
-36,9,0.59
24,8,0.591
88,6,0.592
136,1,0.593
164,-3,0.594
176,-5,0.595
175,-3,0.596
156,-3,0.597
126,-2,0.598
84,-1,0.599
32,-1,0.6
-34,0,0.601
-99,-3,0.602
-145,-1,0.603
-167,5,0.604
-174,11,0.605
-171,13,0.606
-152,10,0.607
-118,8,0.608
-79,6,0.609
-32,0,0.61
26,-5,0.611
89,-8,0.612
136,-9,0.613
158,-11,0.614
170,-15,0.615
176,-18,0.616
165,-16,0.617
137,-13,0.618
92,-9,0.619
33,-8,0.62
-39,-6,0.621
-111,-4,0.622
-158,-2,0.623
-171,3,0.624
-160,7,0.625
-140,10,0.626
-115,11,0.627
-81,12,0.628
-37,11,0.629
16,7,0.63
67,3,0.631
109,-1,0.632
136,-5,0.633
153,-8,0.634
162,-8,0.635
163,-6,0.636
148,-3,0.637
119,-1,0.638
75,-2,0.639
23,-1,0.64
-34,0,0.641
-86,1,0.642
-123,2,0.643
-146,5,0.644
-156,6,0.645
-155,4,0.646
-143,0,0.647
-116,-1,0.648
-70,-1,0.649
-4,-1,0.65
71,-4,0.651
134,-9,0.652
167,-10,0.653
181,-10,0.654
181,-8,0.655
166,-9,0.656
145,-9,0.657
127,-5,0.658
97,-3,0.659
33,-2,0.66
-60,0,0.661
-133,0,0.662
-160,5,0.663
-162,11,0.664
-166,14,0.665
-165,14,0.666
-149,13,0.667
-111,13,0.668
-52,10,0.669
27,5,0.67
98,-2,0.671
135,-9,0.672
151,-14,0.673
174,-15,0.674
194,-14,0.675
180,-12,0.676
136,-13,0.677
99,-12,0.678
64,-10,0.679
7,-6,0.68
-70,-2,0.681
-133,-2,0.682
-169,4,0.683
-182,10,0.684
-182,12,0.685
-164,12,0.686
-140,13,0.687
-113,10,0.688
-72,4,0.689
-15,0,0.69
46,1,0.691
103,4,0.692
158,0,0.693
201,-6,0.694
197,-8,0.695
148,-6,0.696
98,-6,0.697
80,-7,0.698
72,-11,0.699
38,-15,0.7
-26,-17,0.701
-92,-17,0.702
-140,-9,0.703
-162,0,0.704
-160,4,0.705
-148,8,0.706
-140,12,0.707
-130,16,0.708
-94,14,0.709
-15,10,0.71
97,7,0.711
196,6,0.712
224,2,0.713
167,-4,0.714
84,-7,0.715
47,-8,0.716
48,-10,0.717
25,-10,0.718
-42,-10,0.719
-102,-7,0.72
-121,-5,0.721
-124,-3,0.722
-125,1,0.723
-99,5,0.724
-48,6,0.725
-30,9,0.726
-58,13,0.727
-72,15,0.728
-30,11,0.729
21,6,0.73
37,3,0.731
46,0,0.732
85,-3,0.733
125,-8,0.734
121,-7,0.735
83,-5,0.736
50,-4,0.737
35,-3,0.738
11,-3,0.739
-19,-1,0.74
-52,0,0.741
-86,-1,0.742
-122,0,0.743
-141,2,0.744
-130,4,0.745
-103,6,0.746
-78,7,0.747
-53,4,0.748
-14,0,0.749
34,2,0.75
83,6,0.751
129,6,0.752
168,0,0.753
191,-3,0.754
191,-2,0.755
172,-2,0.756
150,-6,0.757
126,-8,0.758
86,-7,0.759
30,-6,0.76
-33,-6,0.761
-86,-7,0.762
-116,-6,0.763
-123,-4,0.764
-126,-6,0.765
-134,-3,0.766
-136,3,0.767
-108,8,0.768
-49,6,0.769
21,2,0.77
95,-1,0.771
181,-5,0.772
248,-11,0.773
229,-10,0.774
110,-5,0.775
-21,-3,0.776
-67,-7,0.777
-47,-8,0.778
-49,-4,0.779
-109,2,0.78
-175,2,0.781
-195,-2,0.782
-166,-1,0.783
-110,4,0.784
-52,7,0.785
-22,8,0.786
-22,11,0.787
-13,12,0.788
21,9,0.789
40,7,0.79
20,8,0.791
3,6,0.792
31,-4,0.793
67,-11,0.794
66,-11,0.795
51,-9,0.796
64,-9,0.797
88,-9,0.798
70,-8,0.799
18,-3,0.8
-29,-1,0.801
-64,-2,0.802
-91,0,0.803
-93,3,0.804
-90,3,0.805
-65,6,0.806
-39,7,0.807
-12,4,0.808
21,-2,0.809
70,-3,0.81
107,2,0.811
103,2,0.812
103,-3,0.813
120,-7,0.814
134,-7,0.815
139,-7,0.816
138,-9,0.817
115,-7,0.818
84,-2,0.819
29,-1,0.82
-12,-2,0.821
-36,-4,0.822
-53,-1,0.823
-63,0,0.824
-55,1,0.825
-33,7,0.826
-16,11,0.827
0,8,0.828
25,0,0.829
56,-1,0.83
79,2,0.831
93,1,0.832
105,-3,0.833
111,-5,0.834
102,-4,0.835
83,-4,0.836
63,-9,0.837
42,-8,0.838
5,-4,0.839
-40,0,0.84
-82,1,0.841
-114,-1,0.842
-138,-1,0.843
-144,1,0.844
-132,4,0.845
-118,8,0.846
-115,9,0.847
-105,6,0.848
-70,1,0.849
-22,-1,0.85
16,-2,0.851
40,-3,0.852
61,-6,0.853
80,-7,0.854
83,-4,0.855
72,-3,0.856
61,-4,0.857
49,-6,0.858
15,-9,0.859
-35,-7,0.86
-79,-5,0.861
-100,-3,0.862
-104,-2,0.863
-97,0,0.864
-84,1,0.865
-66,3,0.866
-49,6,0.867
-29,7,0.868
3,7,0.869
40,3,0.87
71,-1,0.871
92,-3,0.872
111,-6,0.873
124,-6,0.874
121,-6,0.875
106,-7,0.876
90,-7,0.877
72,-3,0.878
43,1,0.879
7,0,0.88
-26,-3,0.881
-52,-5,0.882
-72,-1,0.883
-74,4,0.884
-73,8,0.885
-60,8,0.886
-45,8,0.887
-26,7,0.888
-4,5,0.889
26,4,0.89
55,3,0.891
75,1,0.892
91,-1,0.893
90,-4,0.894
86,-5,0.895
72,-5,0.896
58,-3,0.897
42,-2,0.898
22,-5,0.899
-17,-5,0.9
-60,-2,0.901
-93,-2,0.902
-112,-2,0.903
-113,-1,0.904
-101,2,0.905
-83,8,0.906
-69,10,0.907
-51,8,0.908
-22,5,0.909
11,5,0.91
37,4,0.911
55,2,0.912
69,0,0.913
78,-2,0.914
76,-4,0.915
64,-7,0.916
45,-8,0.917
26,-7,0.918
-1,-5,0.919
-31,-3,0.92
-61,0,0.921
-91,1,0.922
-113,-1,0.923
-119,-1,0.924
-109,2,0.925
-99,7,0.926
-91,8,0.927
-70,4,0.928
-33,0,0.929
3,-2,0.93
28,-3,0.931
47,-4,0.932
66,-6,0.933
77,-6,0.934
74,-7,0.935
67,-8,0.936
61,-7,0.937
51,-5,0.938
25,-5,0.939
-8,-4,0.94
-34,-4,0.941
-52,-5,0.942
-60,-3,0.943
-54,-1,0.944
-43,1,0.945
-36,4,0.946
-27,5,0.947
-8,3,0.948
19,2,0.949
37,2,0.95
51,1,0.951
79,0,0.952
121,-4,0.953
151,-6,0.954
150,-7,0.955
131,-4,0.956
108,-1,0.957
85,0,0.958
49,-2,0.959
8,-2,0.96
-29,1,0.961
-54,0,0.962
-66,0,0.963
-66,0,0.964
-62,5,0.965
-55,9,0.966
-45,8,0.967
-24,4,0.968
2,2,0.969
27,3,0.97
47,2,0.971
62,-1,0.972
69,-5,0.973
67,-7,0.974
62,-7,0.975
56,-6,0.976
39,-6,0.977
12,-2,0.978
25,1,0.979
-23,1,0.98
-67,1,0.981
-96,-2,0.982
-119,-4,0.983
-122,0,0.984
-118,3,0.985
-93,3,0.986
-67,4,0.987
-36,4,0.988
-8,2,0.989
18,0,0.99
43,-2,0.991
62,0,0.992
76,0,0.993
81,-1,0.994
81,-4,0.995
68,-4,0.996
54,-3,0.997
34,-1,0.998
17,0,0.999
-20,0,1.0
-53,0,1.001
-75,-3,1.002
-93,-4,1.003
-95,-4,1.004
-92,-2,1.005
-73,3,1.006
-53,9,1.007
-30,7,1.008
-8,0,1.009
12,-3,1.01
31,-3,1.011
45,-2,1.012
56,-5,1.013
60,-5,1.014
60,-3,1.015
50,-3,1.016
39,-6,1.017
24,-6,1.018
6,-5,1.019
-23,-2,1.02
-46,-2,1.021
-58,-4,1.022
-64,-3,1.023
-61,0,1.024
-51,4,1.025
-42,6,1.026
-33,5,1.027
-14,0,1.028
21,-3,1.029
56,1,1.03
74,6,1.031
74,3,1.032
64,-4,1.033
50,-5,1.034
36,-3,1.035
31,-4,1.036
29,-8,1.037
18,-6,1.038
-5,-1,1.039
-23,3,1.04
-30,0,1.041
-34,-6,1.042
-42,-5,1.043
-47,-1,1.044
-43,1,1.045
-32,3,1.046
-17,5,1.047
6,4,1.048
27,0,1.049
36,-3,1.05
36,-1,1.051
41,-1,1.052
51,-4,1.053
57,-8,1.054
50,-5,1.055
37,0,1.056
20,1,1.057
-3,1,1.058
-28,1,1.059
-44,4,1.06
-53,5,1.061
-58,-1,1.062
-51,-5,1.063
-30,-5,1.064
-12,-6,1.065
-11,-4,1.066
-17,-2,1.067
-11,-1,1.068
-2,-1,1.069
-2,-3,1.07
-5,-2,1.071
6,0,1.072
36,-1,1.073
58,-3,1.074
63,-3,1.075
66,-1,1.076
66,-3,1.077
51,-4,1.078
10,-4,1.079
-35,-2,1.08
-62,1,1.081
-67,0,1.082
-64,1,1.083
-43,3,1.084
-3,5,1.085
30,8,1.086
36,8,1.087
35,5,1.088
59,0,1.089
92,-1,1.09
102,0,1.091
85,0,1.092
62,-1,1.093
42,0,1.094
22,0,1.095
5,-4,1.096
-1,-6,1.097
-7,-4,1.098
-33,-2,1.099
-65,-1,1.1
-80,-3,1.101
-75,-5,1.102
-58,-4,1.103
-39,-3,1.104
-24,-2,1.105
-20,2,1.106
-18,4,1.107
-4,4,1.108
21,-2,1.109
43,-3,1.11
62,-1,1.111
90,1,1.112
115,1,1.113
115,0,1.114
93,0,1.115
73,0,1.116
55,0,1.117
28,0,1.118
-3,0,1.119
-19,-2,1.12
-34,-4,1.121
-46,-7,1.122
-53,-5,1.123
-44,-2,1.124
-39,-1,1.125
-47,-1,1.126
-48,0,1.127
-25,0,1.128
-2,-1,1.129
19,-4,1.13
37,-4,1.131
43,0,1.132
48,5,1.133
46,6,1.134
43,3,1.135
37,0,1.136
30,-3,1.137
19,-1,1.138
6,0,1.139
-8,1,1.14
-22,2,1.141
-44,-2,1.142
-68,-4,1.143
-76,-5,1.144
-69,-6,1.145
-66,-5,1.146
-62,-2,1.147
-47,0,1.148
-27,-1,1.149
-21,-4,1.15
-19,-5,1.151
7,-3,1.152
58,-3,1.153
110,-2,1.154
140,0,1.155
148,4,1.156
131,4,1.157
96,0,1.158
57,-1,1.159
12,4,1.16
-37,6,1.161
-96,2,1.162
-150,-4,1.163
-176,-5,1.164
-166,-2,1.165
-135,1,1.166
-88,5,1.167
-31,4,1.168
10,1,1.169
22,0,1.17
26,0,1.171
48,0,1.172
81,-2,1.173
99,-4,1.174
96,-4,1.175
82,-4,1.176
53,-5,1.177
11,-3,1.178
-29,0,1.179
-45,4,1.18
-54,3,1.181
-68,-5,1.182
-70,-9,1.183
-52,-7,1.184
-27,-3,1.185
-12,1,1.186
5,3,1.187
34,2,1.188
63,-1,1.189
76,-3,1.19
76,-3,1.191
75,-1,1.192
77,5,1.193
80,13,1.194
87,15,1.195
90,9,1.196
74,-1,1.197
41,-2,1.198
-8,1,1.199
-63,5,1.2
-123,2,1.201
-165,-4,1.202
-164,-3,1.203
-127,-2,1.204
-85,-3,1.205
-46,-6,1.206
-10,-6,1.207
23,-5,1.208
36,-3,1.209
42,1,1.21
63,6,1.211
86,4,1.212
82,-4,1.213
48,-11,1.214
11,-7,1.215
-4,-1,1.216
-6,-2,1.217
-2,-4,1.218
11,-3,1.219
29,0,1.22
30,0,1.221
3,-3,1.222
-34,-3,1.223
-56,1,1.224
-54,4,1.225
-37,5,1.226
-4,6,1.227
47,7,1.228
91,7,1.229
107,3,1.23
89,3,1.231
51,6,1.232
4,5,1.233
-41,0,1.234
-67,-3,1.235
-62,-4,1.236
-41,-2,1.237
-29,1,1.238
-33,0,1.239
-41,0,1.24
-51,-2,1.241
-59,-7,1.242
-60,-12,1.243
-49,-16,1.244
-28,-18,1.245
-3,-12,1.246
33,-7,1.247
68,-4,1.248
81,-2,1.249
62,-7,1.25
40,-10,1.251
48,-5,1.252
86,0,1.253
133,2,1.254
172,5,1.255
182,7,1.256
145,9,1.257
69,3,1.258
-18,-1,1.259
-87,0,1.26
-139,8,1.261
-142,10,1.262
-144,4,1.263
-142,-2,1.264
-145,1,1.265
-167,8,1.266
-166,8,1.267
-92,0,1.268
-35,-8,1.269
-25,-5,1.27
-12,1,1.271
13,3,1.272
38,-1,1.273
60,-3,1.274
80,-1,1.275
94,0,1.276
100,-2,1.277
78,-4,1.278
54,-7,1.279
35,-9,1.28
27,-11,1.281
9,-13,1.282
-12,-2,1.283
-16,12,1.284
-7,19,1.285
0,11,1.286
14,0,1.287
47,-3,1.288
87,-2,1.289
115,-2,1.29
135,-4,1.291
161,-4,1.292
176,-2,1.293
145,0,1.294
79,0,1.295
20,-1,1.296
-11,-1,1.297
-27,-1,1.298
-48,-1,1.299
-64,-1,1.3
-83,-3,1.301
-109,-6,1.302
-139,-5,1.303
-180,2,1.304
-206,7,1.305
-188,7,1.306
-148,4,1.307
-44,4,1.308
41,0,1.309
65,-6,1.31
85,-10,1.311
91,-8,1.312
96,-7,1.313
96,-7,1.314
90,-7,1.315
70,-3,1.316
52,0,1.317
41,2,1.318
25,0,1.319
-3,1,1.32
-37,0,1.321
-75,-3,1.322
-97,-1,1.323
-91,1,1.324
-69,6,1.325
-49,9,1.326
-25,8,1.327
15,7,1.328
50,4,1.329
45,3,1.33
17,3,1.331
21,3,1.332
56,0,1.333
73,-1,1.334
43,0,1.335
5,1,1.336
-9,-1,1.337
-12,-3,1.338
-28,-6,1.339
-49,-4,1.34
-59,-3,1.341
-64,-3,1.342
-67,-1,1.343
-54,4,1.344
-25,5,1.345
-1,1,1.346
15,-4,1.347
29,-9,1.348
45,-11,1.349
55,-9,1.35
63,-4,1.351
77,0,1.352
93,0,1.353
92,0,1.354
70,3,1.355
43,6,1.356
29,4,1.357
23,0,1.358
11,-4,1.359
-12,0,1.36
-57,6,1.361
-119,6,1.362
-171,2,1.363
-181,0,1.364
-160,-1,1.365
-144,0,1.366
-122,-1,1.367
-51,-2,1.368
62,-2,1.369
144,0,1.37
151,-1,1.371
129,-3,1.372
124,-1,1.373
119,0,1.374
85,0,1.375
46,-4,1.376
29,-4,1.377
18,1,1.378
-16,4,1.379
-46,4,1.38
-52,0,1.381
-51,-6,1.382
-73,-9,1.383
-98,-9,1.384
-94,-8,1.385
-63,-3,1.386
-21,2,1.387
29,2,1.388
83,-2,1.389
114,-7,1.39
112,-7,1.391
104,-5,1.392
113,-4,1.393
123,-2,1.394
106,0,1.395
63,2,1.396
22,0,1.397
-7,-3,1.398
-47,-3,1.399
-102,1,1.4
-160,2,1.401
-186,-2,1.402
-166,-3,1.403
-115,0,1.404
-69,3,1.405
-44,4,1.406
-20,2,1.407
21,1,1.408
72,-2,1.409
109,-4,1.41
118,-5,1.411
114,-1,1.412
110,5,1.413
104,7,1.414
83,7,1.415
54,3,1.416
20,-1,1.417
-9,-2,1.418
-42,-4,1.419
-69,-2,1.42
-78,-1,1.421
-68,-3,1.422
-48,-4,1.423
-29,0,1.424
-10,3,1.425
9,3,1.426
19,3,1.427
8,2,1.428
-12,1,1.429
-15,0,1.43
10,-2,1.431
47,0,1.432
70,0,1.433
72,-3,1.434
61,-5,1.435
40,-2,1.436
13,0,1.437
-13,0,1.438
-40,0,1.439
-62,1,1.44
-80,1,1.441
-81,-3,1.442
-78,-4,1.443
-58,0,1.444
-36,3,1.445
-9,2,1.446
17,1,1.447
37,2,1.448
55,4,1.449
69,4,1.45
80,3,1.451
80,0,1.452
77,-4,1.453
69,-6,1.454
57,-6,1.455
35,-5,1.456
10,-5,1.457
-23,-4,1.458
-54,-4,1.459
-74,-2,1.46
-91,-3,1.461
-96,-5,1.462
-83,-2,1.463
-59,2,1.464
-37,5,1.465
-18,7,1.466
3,10,1.467
29,10,1.468
54,7,1.469
74,4,1.47
85,5,1.471
88,5,1.472
87,-3,1.473
80,-11,1.474
65,-13,1.475
39,-9,1.476
5,-8,1.477
-26,-12,1.478
-57,-13,1.479
-81,-11,1.48
-99,-12,1.481
-99,-18,1.482
-93,-15,1.483
-75,-7,1.484
-54,0,1.485
-28,3,1.486
-3,9,1.487
18,14,1.488
37,10,1.489
46,3,1.49
53,3,1.491
54,5,1.492
54,5,1.493
50,1,1.494
42,0,1.495
23,0,1.496
3,-4,1.497
-18,-7,1.498
-37,-10,1.499
-42,-9,1.5
-44,-10,1.501
-55,-13,1.502
-67,-9,1.503
-61,-5,1.504
-36,-3,1.505
-9,1,1.506
10,8,1.507
28,10,1.508
52,8,1.509
76,9,1.51
84,16,1.511
74,22,1.512
51,21,1.513
27,21,1.514
11,25,1.515
1,25,1.516
-8,16,1.517
-21,8,1.518
-44,6,1.519
-66,6,1.52
-81,3,1.521
-82,-6,1.522
-70,-13,1.523
-54,-12,1.524
-35,-10,1.525
-16,-8,1.526
10,-7,1.527
40,-7,1.528
64,-7,1.529
74,-8,1.53
74,-8,1.531
71,-6,1.532
66,-5,1.533
53,-5,1.534
28,-5,1.535
-11,-3,1.536
-57,-1,1.537
-96,-2,1.538
-122,-2,1.539
-132,-2,1.54
-137,-6,1.541
-122,-12,1.542
-103,-10,1.543
-69,-4,1.544
-36,0,1.545
-5,0,1.546
24,-2,1.547
50,-3,1.548
72,-4,1.549
82,-1,1.55
91,0,1.551
92,0,1.552
90,-3,1.553
75,-4,1.554
52,-1,1.555
9,0,1.556
-34,2,1.557
-76,5,1.558
-114,5,1.559
-137,3,1.56
-152,2,1.561
-157,1,1.562
-145,0,1.563
-105,0,1.564
-46,2,1.565
16,10,1.566
70,15,1.567
115,11,1.568
150,8,1.569
172,8,1.57
175,7,1.571
162,4,1.572
143,1,1.573
122,-4,1.574
93,-8,1.575
53,-9,1.576
10,-10,1.577
-25,-13,1.578
-53,-16,1.579
-73,-15,1.58
-88,-16,1.581
-89,-20,1.582
-83,-18,1.583
-53,-13,1.584
-21,-7,1.585
20,0,1.586
59,2,1.587
91,1,1.588
119,-1,1.589
139,-1,1.59
154,1,1.591
154,3,1.592
149,2,1.593
135,-1,1.594
115,-4,1.595
79,-6,1.596
41,-2,1.597
1,6,1.598
-36,8,1.599
-56,6,1.6
-69,2,1.601
-69,0,1.602
-52,0,1.603
-23,0,1.604
8,0,1.605
38,5,1.606
67,7,1.607
93,5,1.608
114,2,1.609
126,4,1.61
131,5,1.611
130,1,1.612
119,-3,1.613
98,-3,1.614
64,-2,1.615
18,-1,1.616
-35,-2,1.617
-81,-3,1.618
-116,-4,1.619
-132,-4,1.62
-143,-3,1.621
-136,-2,1.622
-124,0,1.623
-99,1,1.624
-70,2,1.625
-30,4,1.626
8,6,1.627
39,5,1.628
66,1,1.629
81,-1,1.63
92,-1,1.631
90,-3,1.632
86,-3,1.633
73,-3,1.634
52,0,1.635
10,0,1.636
-28,0,1.637
-56,1,1.638
-85,1,1.639
-111,1,1.64
-128,-1,1.641
-127,-5,1.642
-108,-3,1.643
-78,0,1.644
-38,1,1.645
5,0,1.646
40,0,1.647
61,0,1.648
78,-1,1.649
97,-2,1.65
112,-3,1.651
113,-4,1.652
100,-3,1.653
81,-2,1.654
52,-2,1.655
7,-2,1.656
-52,-1,1.657
-102,5,1.658
-136,5,1.659
-145,3,1.66
-143,1,1.661
-131,2,1.662
-105,3,1.663
-63,0,1.664
-16,-1,1.665
27,3,1.666
61,6,1.667
86,4,1.668
100,2,1.669
103,-3,1.67
101,-7,1.671
98,-3,1.672
87,0,1.673
60,0,1.674
16,1,1.675
-32,2,1.676
-76,3,1.677
-110,1,1.678
-133,0,1.679
-143,-1,1.68
-148,0,1.681
-137,-1,1.682
-119,0,1.683
-79,1,1.684
-38,0,1.685
0,0,1.686
34,1,1.687
53,0,1.688
73,-1,1.689
93,-2,1.69
106,-3,1.691
100,-4,1.692
90,-7,1.693
65,-7,1.694
34,-5,1.695
-15,-2,1.696
-59,-1,1.697
-84,-1,1.698
-109,-2,1.699
-127,-3,1.7
-137,-1,1.701
-128,-1,1.702
-105,0,1.703
-70,0,1.704
-24,-1,1.705
21,2,1.706
53,6,1.707
78,5,1.708
103,-1,1.709
124,-4,1.71
128,-2,1.711
118,-1,1.712
104,-3,1.713
86,-3,1.714
51,1,1.715
0,3,1.716
-51,2,1.717
-87,3,1.718
-113,1,1.719
-125,0,1.72
-126,-1,1.721
-116,-4,1.722
-99,-4,1.723
-64,-3,1.724
-14,1,1.725
33,5,1.726
61,6,1.727
79,3,1.728
101,-2,1.729
119,-2,1.73
121,0,1.731
106,-1,1.732
89,-3,1.733
70,-3,1.734
37,-1,1.735
-9,-2,1.736
-54,-4,1.737
-84,-2,1.738
-109,0,1.739
-125,0,1.74
-128,-3,1.741
-114,-6,1.742
-85,-1,1.743
-44,4,1.744
1,6,1.745
40,5,1.746
72,5,1.747
100,3,1.748
123,0,1.749
133,-4,1.75
126,-5,1.751
111,-5,1.752
98,-5,1.753
77,-2,1.754
40,-2,1.755
-10,-2,1.756
-61,-4,1.757
-100,-3,1.758
-128,-1,1.759
-138,1,1.76
-135,3,1.761
-127,1,1.762
-111,0,1.763
-73,1,1.764
-13,4,1.765
45,4,1.766
83,3,1.767
101,1,1.768
117,0,1.769
127,-2,1.77
126,-4,1.771
114,-2,1.772
100,-1,1.773
76,-3,1.774
34,-5,1.775
-22,-1,1.776
-72,2,1.777
-105,2,1.778
-131,1,1.779
-147,0,1.78
-149,1,1.781
-138,-2,1.782
-114,-2,1.783
-72,0,1.784
-18,3,1.785
32,0,1.786
69,-2,1.787
95,-3,1.788
119,-2,1.789
132,-1,1.79
127,-3,1.791
116,-4,1.792
107,-3,1.793
86,-2,1.794
44,-2,1.795
-10,-4,1.796
-57,-4,1.797
-91,0,1.798
-120,3,1.799
-135,4,1.8
-130,2,1.801
-109,-1,1.802
-83,-3,1.803
-43,-3,1.804
11,-1,1.805
61,1,1.806
90,2,1.807
107,2,1.808
129,-1,1.809
152,-4,1.81
154,-7,1.811
142,-8,1.812
123,-5,1.813
97,-1,1.814
52,1,1.815
-5,-2,1.816
-60,-6,1.817
-101,-4,1.818
-135,0,1.819
-156,1,1.82
-161,-1,1.821
-148,-4,1.822
-114,-3,1.823
-62,-1,1.824
-1,-1,1.825
48,2,1.826
82,5,1.827
113,4,1.828
146,0,1.829
162,-2,1.83
153,1,1.831
132,2,1.832
109,0,1.833
75,-2,1.834
22,0,1.835
-36,0,1.836
-87,-2,1.837
-123,-3,1.838
-146,-1,1.839
-146,0,1.84
-142,0,1.841
-126,-3,1.842
-101,-4,1.843
-55,-2,1.844
-7,-1,1.845
42,1,1.846
89,3,1.847
126,-1,1.848
153,-5,1.849
150,-5,1.85
132,-2,1.851
73,0,1.852
17,-1,1.853
-28,-1,1.854
-67,1,1.855
-87,2,1.856
-101,1,1.857
-98,2,1.858
-94,3,1.859
-92,5,1.86
-80,2,1.861
-62,-3,1.862
-47,-4,1.863
-25,-1,1.864
18,2,1.865
64,0,1.866
92,-1,1.867
106,-1,1.868
125,-3,1.869
144,-4,1.87
141,-4,1.871
121,-3,1.872
97,-3,1.873
66,-4,1.874
15,-2,1.875
-46,-1,1.876
-97,0,1.877
-122,2,1.878
-137,4,1.879
-144,4,1.88
-139,2,1.881
-121,-2,1.882
-86,-2,1.883
-36,0,1.884
27,3,1.885
80,6,1.886
107,8,1.887
122,4,1.888
140,-2,1.889
150,-6,1.89
140,-3,1.891
118,-1,1.892
93,-1,1.893
58,-2,1.894
10,-2,1.895
-36,-4,1.896
-70,-6,1.897
-94,-5,1.898
-117,-1,1.899
-117,2,1.9
-110,2,1.901
-87,-1,1.902
-58,0,1.903
-14,2,1.904
25,3,1.905
56,2,1.906
83,1,1.907
104,-1,1.908
121,-4,1.909
129,-7,1.91
131,-7,1.911
114,-7,1.912
89,-6,1.913
45,-4,1.914
1,-3,1.915
-51,-1,1.916
-94,0,1.917
-115,4,1.918
-148,5,1.919
-148,3,1.92
-139,0,1.921
-110,-2,1.922
-74,-1,1.923
-19,0,1.924
29,0,1.925
68,3,1.926
103,5,1.927
129,1,1.928
150,-3,1.929
160,-5,1.93
162,-3,1.931
141,-3,1.932
110,-6,1.933
55,-6,1.934
0,0,1.935
-65,2,1.936
-119,0,1.937
-145,-1,1.938
-137,0,1.939
-137,0,1.94
-129,2,1.941
-102,2,1.942
-68,1,1.943
-18,-2,1.944
28,-4,1.945
64,-4,1.946
96,-3,1.947
120,-3,1.948
140,-6,1.949
149,-5,1.95
151,0,1.951
131,0,1.952
103,-2,1.953
52,-3,1.954
0,0,1.955
-60,2,1.956
-110,1,1.957
-134,3,1.958
-153,3,1.959
-154,0,1.96
-140,-2,1.961
-114,-4,1.962
-74,-3,1.963
-20,-4,1.964
37,-4,1.965
77,0,1.966
99,4,1.967
119,3,1.968
141,-3,1.969
150,-7,1.97
135,-4,1.971
113,-2,1.972
89,0,1.973
51,2,1.974
-6,4,1.975
-65,3,1.976
-107,1,1.977
-131,4,1.978
-150,5,1.979
-153,4,1.98
-145,3,1.981
-108,3,1.982
-66,2,1.983
-7,0,1.984
44,-2,1.985
79,0,1.986
110,1,1.987
129,0,1.988
143,-1,1.989
145,-1,1.99
142,-2,1.991
116,-3,1.992
83,-4,1.993
32,-4,1.994
-20,-5,1.995
-81,-3,1.996
-131,-2,1.997
-151,-2,1.998
-157,-2,1.999
-160,0,2.0
-152,3,2.001
-113,3,2.002
-69,1,2.003
-7,-1,2.004
46,-3,2.005
82,-1,2.006
115,2,2.007
135,3,2.008
149,0,2.009
152,-3,2.01
148,-4,2.011
121,-3,2.012
87,-5,2.013
34,-5,2.014
-21,-3,2.015
-85,0,2.016
-137,2,2.017
-158,4,2.018
-139,4,2.019
-141,4,2.02
-134,3,2.021
-100,0,2.022
-61,-1,2.023
-7,1,2.024
41,3,2.025
73,4,2.026
102,2,2.027
119,-2,2.028
132,-6,2.029
134,-8,2.03
131,-7,2.031
107,-4,2.032
77,-3,2.033
30,-2,2.034
-19,1,2.035
-75,5,2.036
-121,5,2.037
-140,4,2.038
-156,3,2.039
-150,3,2.04
-136,3,2.041
-115,0,2.042
-81,-3,2.043
-26,-3,2.044
42,-4,2.045
95,-3,2.046
124,-2,2.047
140,-2,2.048
155,-3,2.049
158,-4,2.05
143,-5,2.051
118,-3,2.052
88,-2,2.053
51,-2,2.054
2,-3,2.055
-50,-1,2.056
-98,0,2.057
-134,2,2.058
-174,3,2.059
-163,3,2.06
-148,3,2.061
-116,0,2.062
-73,-3,2.063
2,-3,2.064
68,-4,2.065
111,-3,2.066
148,-2,2.067
161,-2,2.068
170,-3,2.069
165,-4,2.07
153,-5,2.071
128,-3,2.072
92,-2,2.073
25,-2,2.074
-38,-3,2.075
-96,-1,2.076
-145,0,2.077
-168,2,2.078
-156,5,2.079
-146,6,2.08
-132,2,2.081
-104,-3,2.082
-65,-2,2.083
2,0,2.084
62,0,2.085
100,-2,2.086
133,-2,2.087
145,-1,2.088
153,-2,2.089
148,-4,2.09
138,-3,2.091
115,-2,2.092
83,-3,2.093
23,-4,2.094
-34,-1,2.095
-86,2,2.096
-130,4,2.097
-150,6,2.098
-164,8,2.099
-150,8,2.1
-120,2,2.101
-86,-7,2.102
-46,-7,2.103
7,-4,2.104
56,-1,2.105
83,0,2.106
94,2,2.107
108,3,2.108
119,-1,2.109
120,-5,2.11
111,-5,2.111
99,-4,2.112
68,-5,2.113
10,-6,2.114
-55,-4,2.115
-104,-1,2.116
-135,1,2.117
-154,4,2.118
-163,4,2.119
-152,1,2.12
-131,-2,2.121
-104,-3,2.122
-61,2,2.123
1,2,2.124
59,-1,2.125
89,-1,2.126
107,2,2.127
129,1,2.128
144,-4,2.129
137,-6,2.13
118,-3,2.131
98,-1,2.132
64,-3,2.133
5,-3,2.134
-63,-2,2.135
-113,0,2.136
-145,-3,2.137
-164,-3,2.138
-168,-1,2.139
-146,0,2.14
-110,2,2.141
-76,2,2.142
-39,1,2.143
10,1,2.144
56,2,2.145
85,2,2.146
102,1,2.147
125,-3,2.148
148,-7,2.149
153,-7,2.15
137,-4,2.151
111,0,2.152
75,3,2.153
23,5,2.154
-41,6,2.155
-94,5,2.156
-129,3,2.157
-148,6,2.158
-151,-2,2.159
-137,0,2.16
-114,2,2.161
-67,2,2.162
-12,1,2.163
63,1,2.164
130,2,2.165
172,2,2.166
205,1,2.167
211,-4,2.168
208,-9,2.169
178,-9,2.17
146,-6,2.171
110,0,2.172
70,4,2.173
22,6,2.174
-25,8,2.175
-69,6,2.176
-105,4,2.177
-113,8,2.178
-116,-1,2.179
-106,0,2.18
-93,2,2.181
-79,2,2.182
-50,1,2.183
5,1,2.184
79,2,2.185
138,2,2.186
161,1,2.187
153,-2,2.188
124,-5,2.189
85,-5,2.19
50,-3,2.191
30,0,2.192
10,3,2.193
-36,4,2.194
-110,5,2.195
-176,4,2.196
-200,3,2.197
-183,5,2.198
-153,7,2.199
-119,6,2.2
-84,4,2.201
-45,0,2.202
0,-1,2.203
59,-1,2.204
107,-2,2.205
123,-2,2.206
135,-3,2.207
135,-9,2.208
134,-15,2.209
132,-15,2.21
124,-13,2.211
99,-9,2.212
64,-4,2.213
0,1,2.214
-57,6,2.215
-97,3,2.216
-130,-5,2.217
-143,-8,2.218
-151,12,2.219
-127,9,2.22
-91,6,2.221
-66,0,2.222
-43,-4,2.223
-1,-9,2.224
52,-14,2.225
88,-14,2.226
101,-15,2.227
110,-15,2.228
120,-14,2.229
116,-9,2.23
94,-4,2.231
62,-4,2.232
7,-4,2.233
-75,-6,2.234
-160,-6,2.235
-210,1,2.236
-221,9,2.237
-219,12,2.238
-219,7,2.239
-213,5,2.24
-200,3,2.241
-166,-1,2.242
-121,-4,2.243
-46,-7,2.244
23,-10,2.245
75,-10,2.246
119,-11,2.247
136,-11,2.248
148,-10,2.249
146,-7,2.25
137,-4,2.251
110,-4,2.252
77,-4,2.253
27,-5,2.254
-19,-5,2.255
-59,0,2.256
-97,5,2.257
-133,7,2.258
-159,9,2.259
-145,14,2.26
-113,15,2.261
-69,6,2.262
-4,-3,2.263
72,-4,2.264
134,4,2.265
172,8,2.266
203,1,2.267
228,-11,2.268
225,-16,2.269
184,-14,2.27
123,-8,2.271
66,-8,2.272
10,-9,2.273
-51,-10,2.274
-111,-9,2.275
-152,-5,2.276
-167,2,2.277
-160,9,2.278
-134,12,2.279
-90,10,2.28
-40,7,2.281
0,1,2.282
20,-3,2.283
28,0,2.284
43,4,2.285
71,10,2.286
103,14,2.287
130,4,2.288
150,-3,2.289
170,-4,2.29
187,-4,2.291
180,-1,2.292
125,1,2.293
29,5,2.294
-68,8,2.295
-131,10,2.296
-162,12,2.297
-177,8,2.298
-178,5,2.299
-156,4,2.3
-128,2,2.301
-84,-3,2.302
-40,-6,2.303
4,-8,2.304
41,-12,2.305
61,-12,2.306
76,-9,2.307
78,-6,2.308
77,-6,2.309
65,-8,2.31
46,-7,2.311
4,1,2.312
-46,7,2.313
-124,9,2.314
-192,7,2.315
-226,4,2.316
-253,1,2.317
-253,5,2.318
-252,7,2.319
-234,3,2.32
-205,-4,2.321
-153,-8,2.322
-59,-3,2.323
69,0,2.324
183,-1,2.325
252,-4,2.326
283,-3,2.327
295,-5,2.328
283,-9,2.329
238,-11,2.33
170,-6,2.331
96,-1,2.332
16,-1,2.333
-67,-3,2.334
-135,-4,2.335
-168,-4,2.336
-173,-4,2.337
-165,-2,2.338
-138,1,2.339
-93,2,2.34
-42,1,2.341
2,-4,2.342
51,-7,2.343
110,-8,2.344
166,-9,2.345
200,-6,2.346
215,-6,2.347
221,-10,2.348
215,-15,2.349
194,-13,2.35
165,-8,2.351
132,-6,2.352
85,-8,2.353
25,-5,2.354
-25,1,2.355
-52,3,2.356
-58,-2,2.357
-51,-4,2.358
-26,-1,2.359
13,2,2.36
55,4,2.361
88,1,2.362
120,-2,2.363
159,-3,2.364
203,-3,2.365
239,-1,2.366
258,0,2.367
262,-2,2.368
253,-5,2.369
236,-5,2.37
209,-3,2.371
168,-1,2.372
104,1,2.373
27,5,2.374
-45,7,2.375
-102,5,2.376
-149,3,2.377
-180,5,2.378
-183,9,2.379
-152,15,2.38
-116,10,2.381
-70,0,2.382
-22,-4,2.383
34,-4,2.384
83,-3,2.385
113,-4,2.386
136,-4,2.387
133,-1,2.388
115,1,2.389
51,2,2.39
-10,2,2.391
-62,3,2.392
-117,3,2.393
-178,2,2.394
-233,7,2.395
-269,11,2.396
-287,11,2.397
-249,11,2.398
-211,8,2.399
-188,8,2.4
-180,6,2.401
-143,-1,2.402
-70,-3,2.403
1,-2,2.404
36,1,2.405
50,1,2.406
68,-1,2.407
83,-5,2.408
70,-7,2.409
36,-6,2.41
7,-4,2.411
-22,-3,2.412
-75,-4,2.413
-144,-3,2.414
-195,1,2.415
-211,5,2.416
-209,6,2.417
-196,7,2.418
-171,5,2.419
-140,4,2.42
-105,3,2.421
-63,0,2.422
-19,-2,2.423
34,-5,2.424
78,-6,2.425
92,-4,2.426
107,-2,2.427
119,0,2.428
125,-1,2.429
111,-1,2.43
92,-1,2.431
57,-4,2.432
14,-6,2.433
-50,0,2.434
-105,7,2.435
-130,9,2.436
-146,5,2.437
-133,3,2.438
-115,4,2.439
-79,3,2.44
-44,1,2.441
2,-2,2.442
70,-5,2.443
135,-6,2.444
173,-7,2.445
182,-6,2.446
183,-5,2.447
176,-5,2.448
147,-4,2.449
106,-4,2.45
70,-3,2.451
46,-1,2.452
16,1,2.453
-31,2,2.454
-88,3,2.455
-131,4,2.456
-150,5,2.457
-142,7,2.458
-117,8,2.459
-95,5,2.46
-67,2,2.461
-21,-4,2.462
40,-7,2.463
99,-7,2.464
148,-4,2.465
181,-1,2.466
188,-1,2.467
170,-5,2.468
139,-9,2.469
111,-6,2.47
81,-1,2.471
37,-1,2.472
-17,-4,2.473
-69,-4,2.474
-113,0,2.475
-147,2,2.476
-172,3,2.477
-185,5,2.478
-189,7,2.479
-175,3,2.48
-138,0,2.481
-71,-4,2.482
10,-4,2.483
82,-4,2.484
131,-3,2.485
158,-3,2.486
172,-6,2.487
175,-6,2.488
167,-5,2.489
144,-2,2.49
103,0,2.491
46,-4,2.492
-18,-5,2.493
-72,-1,2.494
-112,5,2.495
-142,8,2.496
-161,7,2.497
-163,5,2.498
-147,1,2.499
-117,1,2.5
-75,3,2.501
-20,0,2.502
44,-6,2.503
102,-8,2.504
144,-8,2.505
159,-5,2.506
148,-2,2.507
130,-2,2.508
124,-4,2.509
124,-6,2.51
110,-5,2.511
65,-2,2.512
1,0,2.513
-64,3,2.514
-126,7,2.515
-178,10,2.516
-201,12,2.517
-188,11,2.518
-154,8,2.519
-121,8,2.52
-86,6,2.521
-34,0,2.522
29,-4,2.523
85,-3,2.524
124,-2,2.525
151,-3,2.526
166,-4,2.527
166,-5,2.528
159,-7,2.529
145,-8,2.53
115,-9,2.531
61,-4,2.532
-2,0,2.533
-52,1,2.534
-91,3,2.535
-125,6,2.536
-147,9,2.537
-144,9,2.538
-131,6,2.539
-123,6,2.54
-107,5,2.541
-53,0,2.542
27,-3,2.543
91,-2,2.544
119,-1,2.545
134,-2,2.546
159,-3,2.547
179,-4,2.548
173,-5,2.549
147,-6,2.55
114,-7,2.551
78,-3,2.552
25,0,2.553
-46,0,2.554
-118,2,2.555
-172,5,2.556
-198,7,2.557
-199,7,2.558
-179,6,2.559
-131,6,2.56
-66,5,2.561
-4,0,2.562
41,-3,2.563
77,-2,2.564
115,-1,2.565
147,-2,2.566
156,-3,2.567
146,-4,2.568
129,-5,2.569
105,-6,2.57
62,-7,2.571
3,-3,2.572
-61,0,2.573
-122,0,2.574
-170,2,2.575
-189,5,2.576
-172,7,2.577
-133,7,2.578
-89,8,2.579
-46,8,2.58
-5,6,2.581
32,0,2.582
66,-4,2.583
89,-3,2.584
107,-2,2.585
108,-3,2.586
104,-4,2.587
85,-5,2.588
67,-7,2.589
51,-8,2.59
27,-9,2.591
-18,-4,2.592
-63,0,2.593
-100,1,2.594
-131,3,2.595
-147,6,2.596
-154,9,2.597
-136,9,2.598
-117,8,2.599
-89,6,2.6
-53,4,2.601
-6,-2,2.602
44,-5,2.603
90,-3,2.604
127,0,2.605
155,4,2.606
174,5,2.607
180,-2,2.608
165,-11,2.609
124,-14,2.61
67,-9,2.611
5,-4,2.612
-50,-5,2.613
-95,-5,2.614
-124,0,2.615
-137,3,2.616
-137,3,2.617
-129,3,2.618
-106,9,2.619
-73,6,2.62
-31,3,2.621
16,-1,2.622
66,-6,2.623
115,-9,2.624
158,-11,2.625
184,-3,2.626
192,0,2.627
182,-2,2.628
159,-6,2.629
116,-3,2.63
51,-1,2.631
-19,2,2.632
-77,5,2.633
-115,2,2.634
-143,0,2.635
-164,0,2.636
-171,1,2.637
-160,1,2.638
-118,7,2.639
-72,5,2.64
-21,3,2.641
39,-1,2.642
95,-5,2.643
137,-7,2.644
172,-10,2.645
186,-3,2.646
192,0,2.647
175,-2,2.648
152,-5,2.649
115,-3,2.65
64,-1,2.651
-24,2,2.652
-103,4,2.653
-154,2,2.654
-195,0,2.655
-214,0,2.656
-218,1,2.657
-184,1,2.658
-103,7,2.659
-63,5,2.66
-19,3,2.661
34,-1,2.662
83,-5,2.663
119,-7,2.664
150,-9,2.665
162,-3,2.666
167,0,2.667
152,-2,2.668
132,-5,2.669
100,-3,2.67
56,-1,2.671
-21,2,2.672
-90,4,2.673
-134,2,2.674
-170,0,2.675
-186,0,2.676
-190,1,2.677
-160,1,2.678
-127,1,2.679
-78,5,2.68
-20,3,2.681
45,-3,2.682
95,-7,2.683
123,-4,2.684
145,1,2.685
168,3,2.686
175,5,2.687
160,3,2.688
133,-3,2.689
99,-5,2.69
38,-1,2.691
-43,3,2.692
-119,-1,2.693
-166,-9,2.694
-185,-6,2.695
-174,4,2.696
-133,10,2.697
-81,8,2.698
-46,10,2.699
-37,8,2.7
-17,2,2.701
20,-4,2.702
51,-10,2.703
70,-6,2.704
96,-2,2.705
137,0,2.706
169,0,2.707
174,-1,2.708
152,-5,2.709
114,-5,2.71
63,-4,2.711
5,0,2.712
-47,2,2.713
-91,4,2.714
-131,5,2.715
-167,5,2.716
-188,6,2.717
-195,4,2.718
-154,7,2.719
-104,5,2.72
-46,1,2.721
29,-2,2.722
97,-7,2.723
137,-4,2.724
172,-1,2.725
188,0,2.726
191,0,2.727
157,0,2.728
122,-3,2.729
91,-3,2.73
50,-2,2.731
-27,0,2.732
-99,1,2.733
-150,2,2.734
-194,3,2.735
-216,3,2.736
-227,4,2.737
-198,2,2.738
-159,8,2.739
-107,6,2.74
-48,2,2.741
31,-3,2.742
101,-8,2.743
142,-5,2.744
178,-2,2.745
194,0,2.746
198,0,2.747
162,-1,2.748
126,-4,2.749
95,-4,2.75
52,-3,2.751
-28,0,2.752
-102,2,2.753
-155,3,2.754
-200,4,2.755
-223,4,2.756
-234,5,2.757
-204,3,2.758
-169,0,2.759
-116,-3,2.76
-54,-3,2.761
25,-2,2.762
103,-4,2.763
169,-9,2.764
224,-11,2.765
267,-11,2.766
281,-8,2.767
255,-6,2.768
201,-5,2.769
133,-3,2.77
52,0,2.771
-40,0,2.772
-127,1,2.773
-182,5,2.774
-205,8,2.775
-208,7,2.776
-209,7,2.777
-204,8,2.778
-147,6,2.779
-61,3,2.78
36,1,2.781
113,-4,2.782
168,-8,2.783
209,-8,2.784
242,-8,2.785
251,-4,2.786
233,-1,2.787
202,-6,2.788
170,-9,2.789
128,-6,2.79
62,-1,2.791
-16,2,2.792
-85,7,2.793
-139,8,2.794
-179,9,2.795
-198,12,2.796
-184,15,2.797
-148,15,2.798
-108,7,2.799
-61,4,2.8
-9,0,2.801
56,-5,2.802
114,-9,2.803
149,-9,2.804
180,-9,2.805
200,-5,2.806
207,-2,2.807
177,-7,2.808
141,-10,2.809
87,-7,2.81
29,-2,2.811
-44,3,2.812
-113,8,2.813
-172,9,2.814
-219,10,2.815
-229,13,2.816
-228,16,2.817
-190,16,2.818
-151,13,2.819
-100,6,2.82
-30,-3,2.821
47,-9,2.822
110,-10,2.823
156,-11,2.824
193,-11,2.825
209,-10,2.826
192,-7,2.827
156,-8,2.828
121,-9,2.829
78,-5,2.83
4,2,2.831
-87,6,2.832
-165,6,2.833
-218,7,2.834
-253,10,2.835
-264,12,2.836
-241,11,2.837
-197,11,2.838
-149,7,2.839
-94,2,2.84
-21,-2,2.841
62,-5,2.842
129,-6,2.843
175,-8,2.844
206,-11,2.845
219,-8,2.846
205,-1,2.847
173,0,2.848
136,-5,2.849
89,-7,2.85
15,-2,2.851
-72,2,2.852
-143,4,2.853
-188,5,2.854
-214,7,2.855
-219,8,2.856
-202,6,2.857
-169,6,2.858
-119,5,2.859
-49,3,2.86
21,0,2.861
89,-7,2.862
152,-13,2.863
199,-13,2.864
235,-12,2.865
237,-10,2.866
230,-7,2.867
192,-5,2.868
147,-3,2.869
79,-1,2.87
5,0,2.871
-80,2,2.872
-157,4,2.873
-208,5,2.874
-246,7,2.875
-243,9,2.876
-233,10,2.877
-201,8,2.878
-165,5,2.879
-103,0,2.88
-12,-2,2.881
78,-8,2.882
142,-11,2.883
193,-12,2.884
241,-11,2.885
260,-9,2.886
234,-8,2.887
192,-10,2.888
161,-13,2.889
120,-15,2.89
43,-11,2.891
-49,-1,2.892
-119,9,2.893
-161,14,2.894
-191,15,2.895
-207,14,2.896
-192,12,2.897
-161,11,2.898
-115,8,2.899
-50,5,2.9
40,2,2.901
129,-5,2.902
188,-9,2.903
226,-9,2.904
257,-5,2.905
269,-4,2.906
248,-5,2.907
208,-7,2.908
160,-8,2.909
85,-5,2.91
-23,-4,2.911
-128,-1,2.912
-205,4,2.913
-263,12,2.914
-314,16,2.915
-336,13,2.916
-312,9,2.917
-259,11,2.918
-195,8,2.919
-117,8,2.92
-23,6,2.921
67,-3,2.922
138,-11,2.923
194,-13,2.924
237,-15,2.925
246,-14,2.926
207,-12,2.927
152,-10,2.928
100,-8,2.929
28,-5,2.93
-73,0,2.931
-175,5,2.932
-239,10,2.933
-270,11,2.934
-285,13,2.935
-278,14,2.936
-236,14,2.937
-175,11,2.938
-55,8,2.939
7,8,2.94
71,6,2.941
143,-3,2.942
204,-11,2.943
231,-13,2.944
250,-15,2.945
235,-14,2.946
213,-12,2.947
167,-10,2.948
114,-8,2.949
39,-5,2.95
-39,0,2.951
-134,5,2.952
-218,10,2.953
-265,11,2.954
-294,13,2.955
-269,14,2.956
-237,14,2.957
-186,11,2.958
-60,8,2.959
8,3,2.96
78,-1,2.961
155,-6,2.962
221,-8,2.963
251,-9,2.964
271,-9,2.965
255,-9,2.966
231,-8,2.967
181,-6,2.968
124,-10,2.969
43,-11,2.97
-43,-6,2.971
-146,4,2.972
-236,8,2.973
-287,7,2.974
-319,6,2.975
-292,8,2.976
-257,10,2.977
-202,12,2.978
-141,12,2.979
-54,10,2.98
46,3,2.981
125,-8,2.982
171,-11,2.983
212,-9,2.984
254,-9,2.985
259,-11,2.986
212,-9,2.987
148,-5,2.988
86,-6,2.989
5,-9,2.99
-103,-6,2.991
-209,-1,2.992
-282,2,2.993
-327,4,2.994
-346,10,2.995
-332,16,2.996
-286,18,2.997
-227,16,2.998
-143,13,2.999
-23,11,3.0
105,6,3.001
196,-5,3.002
248,-9,3.003
295,-11,3.004
332,-11,3.005
323,-10,3.006
262,-8,3.007
187,-8,3.008
110,-8,3.009
16,-4,3.01
-91,1,3.011
-188,2,3.012
-260,2,3.013
-308,8,3.014
-325,16,3.015
-305,18,3.016
-270,14,3.017
-237,11,3.018
-99,6,3.019
-12,0,3.02
73,-4,3.021
151,-6,3.022
222,-8,3.023
269,-10,3.024
296,-12,3.025
262,-11,3.026
222,-10,3.027
167,-11,3.028
102,-11,3.029
4,-6,3.03
-86,-1,3.031
-161,3,3.032
-226,7,3.033
-258,8,3.034
-276,9,3.035
-249,10,3.036
-212,11,3.037
-140,10,3.038
-113,8,3.039
-14,3,3.04
83,-4,3.041
172,-8,3.042
253,-6,3.043
306,-5,3.044
337,-11,3.045
298,-14,3.046
252,-10,3.047
190,-7,3.048
116,-9,3.049
5,-9,3.05
-99,-5,3.051
-184,2,3.052
-258,5,3.053
-294,6,3.054
-314,10,3.055
-284,12,3.056
-242,9,3.057
-160,8,3.058
-72,8,3.059
31,6,3.06
128,-2,3.061
207,-12,3.062
277,-16,3.063
337,-15,3.064
368,-14,3.065
354,-14,3.066
314,-13,3.067
267,-10,3.068
190,-9,3.069
60,-6,3.07
-97,0,3.071
-226,5,3.072
-304,8,3.073
-344,9,3.074
-352,12,3.075
-321,14,3.076
-259,13,3.077
-186,11,3.078
-94,8,3.079
14,4,3.08
115,-1,3.081
191,-10,3.082
246,-13,3.083
293,-13,3.084
320,-10,3.085
308,-6,3.086
272,-5,3.087
224,-8,3.088
155,-11,3.089
52,-7,3.09
-66,0,3.091
-163,6,3.092
-237,8,3.093
-292,12,3.094
-315,17,3.095
-293,18,3.096
-243,14,3.097
-184,12,3.098
-105,10,3.099
5,6,3.1
118,-1,3.101
204,-10,3.102
267,-14,3.103
321,-15,3.104
347,-14,3.105
322,-11,3.106
264,-9,3.107
202,-10,3.108
129,-11,3.109
26,-7,3.11
-95,1,3.111
-202,8,3.112
-277,6,3.113
-320,7,3.114
-327,10,3.115
-293,12,3.116
-238,11,3.117
-178,13,3.118
-100,13,3.119
5,9,3.12
111,-3,3.121
189,-15,3.122
242,-18,3.123
287,-16,3.124
310,-15,3.125
296,-15,3.126
256,-11,3.127
207,-10,3.128
132,-11,3.129
8,-9,3.13
-141,0,3.131
-264,8,3.132
-337,12,3.133
-370,12,3.134
-367,16,3.135
-321,20,3.136
-245,20,3.137
-166,18,3.138
-77,10,3.139
26,4,3.14
127,-1,3.141
208,-9,3.142
267,-15,3.143
318,-16,3.144
340,-17,3.145
314,-15,3.146
253,-13,3.147
182,-13,3.148
99,-12,3.149
-14,-8,3.15
-146,-3,3.151
-261,2,3.152
-335,9,3.153
-366,13,3.154
-349,16,3.155
-291,16,3.156
-212,15,3.157
-135,13,3.158
-41,10,3.159
67,6,3.16
163,-1,3.161
225,-10,3.162
283,-15,3.163
323,-15,3.164
345,-15,3.165
307,-13,3.166
263,-11,3.167
198,-11,3.168
119,-12,3.169
-1,-8,3.17
-117,1,3.171
-220,8,3.172
-310,9,3.173
-359,9,3.174
-383,13,3.175
-329,17,3.176
-269,16,3.177
-189,12,3.178
-97,8,3.179
36,3,3.18
159,-2,3.181
239,-12,3.182
298,-16,3.183
349,-15,3.184
363,-15,3.185
321,-14,3.186
253,-13,3.187
184,-11,3.188
89,-7,3.189
-46,-2,3.19
-185,3,3.191
-281,10,3.192
-341,15,3.193
-382,20,3.194
-383,22,3.195
-334,17,3.196
-254,11,3.197
-170,9,3.198
-66,9,3.199
59,4,3.2
178,-6,3.201
269,-17,3.202
340,-19,3.203
394,-16,3.204
406,-15,3.205
359,-15,3.206
281,-13,3.207
194,-11,3.208
79,-9,3.209
-68,-6,3.21
-210,1,3.211
-303,8,3.212
-351,11,3.213
-374,14,3.214
-370,21,3.215
-329,25,3.216
-257,20,3.217
-173,13,3.218
-63,10,3.219
68,3,3.22
186,-4,3.221
269,-11,3.222
328,-16,3.223
373,-14,3.224
384,-13,3.225
343,-13,3.226
269,-12,3.227
189,-10,3.228
93,-7,3.229
-32,-1,3.23
-171,4,3.231
-283,8,3.232
-354,11,3.233
-385,15,3.234
-375,18,3.235
-325,16,3.236
-249,14,3.237
-161,12,3.238
-29,10,3.239
91,3,3.24
207,-4,3.241
308,-11,3.242
387,-16,3.243
398,-14,3.244
387,-13,3.245
302,-13,3.246
217,-12,3.247
126,-10,3.248
23,-7,3.249
-115,-1,3.25
-238,4,3.251
-309,8,3.252
-367,11,3.253
-382,15,3.254
-379,18,3.255
-321,16,3.256
-252,14,3.257
-156,12,3.258
-31,9,3.259
98,4,3.26
222,-5,3.261
329,-15,3.262
413,-21,3.263
425,-21,3.264
413,-18,3.265
323,-15,3.266
232,-9,3.267
135,-8,3.268
25,-7,3.269
-123,-5,3.27
-254,1,3.271
-330,10,3.272
-391,13,3.273
-407,14,3.274
-404,14,3.275
-342,16,3.276
-269,16,3.277
-166,15,3.278
-50,10,3.279
108,1,3.28
246,-5,3.281
336,-13,3.282
390,-21,3.283
420,-23,3.284
401,-24,3.285
326,-17,3.286
225,-12,3.287
128,-12,3.288
27,-9,3.289
-91,-1,3.29
-213,4,3.291
-315,10,3.292
-389,14,3.293
-423,15,3.294
-410,17,3.295
-360,17,3.296
-289,14,3.297
-194,8,3.298
-60,7,3.299
93,1,3.3
230,-4,3.301
334,-10,3.302
412,-16,3.303
456,-17,3.304
451,-18,3.305
402,-13,3.306
326,-9,3.307
209,-9,3.308
42,-7,3.309
-139,-1,3.31
-278,3,3.311
-355,7,3.312
-392,10,3.313
-401,11,3.314
-378,12,3.315
-321,12,3.316
-241,10,3.317
-144,6,3.318
-18,0,3.319
117,-7,3.32
229,-13,3.321
313,-20,3.322
380,-21,3.323
414,-21,3.324
394,-20,3.325
327,-14,3.326
248,-6,3.327
163,-3,3.328
51,-3,3.329
-90,-4,3.33
-234,2,3.331
-347,12,3.332
-417,20,3.333
-445,24,3.334
-425,23,3.335
-367,18,3.336
-284,12,3.337
-185,6,3.338
-51,-4,3.339
96,-12,3.34
216,-15,3.341
309,-18,3.342
387,-18,3.343
445,-18,3.344
451,-18,3.345
395,-15,3.346
302,-10,3.347
199,-7,3.348
85,-5,3.349
-37,-1,3.35
-161,7,3.351
-280,15,3.352
-376,20,3.353
-421,22,3.354
-410,22,3.355
-369,21,3.356
-308,18,3.357
-208,14,3.358
-56,10,3.359
106,1,3.36
253,-12,3.361
350,-27,3.362
427,-34,3.363
444,-34,3.364
435,-31,3.365
348,-26,3.366
250,-23,3.367
119,-20,3.368
-12,-13,3.369
-141,-4,3.37
-262,8,3.371
-362,15,3.372
-435,18,3.373
-428,22,3.374
-394,24,3.375
-278,22,3.376
-175,14,3.377
-113,10,3.378
-42,7,3.379
72,4,3.38
192,-2,3.381
282,-12,3.382
335,-19,3.383
371,-19,3.384
394,-14,3.385
393,-10,3.386
343,-6,3.387
230,-2,3.388
77,1,3.389
-75,6,3.39
-215,12,3.391
-342,15,3.392
-428,18,3.393
-440,20,3.394
-396,21,3.395
-341,17,3.396
-271,12,3.397
-148,7,3.398
34,0,3.399
198,-6,3.4
296,-11,3.401
355,-15,3.402
403,-16,3.403
413,-16,3.404
367,-13,3.405
305,-9,3.406
248,-8,3.407
159,-10,3.408
6,-14,3.409
-165,-13,3.41
-290,-4,3.411
-369,7,3.412
-430,12,3.413
-455,14,3.414
-419,16,3.415
-332,20,3.416
-229,19,3.417
-119,13,3.418
20,3,3.419
168,-2,3.42
300,-5,3.421
388,-10,3.422
445,-18,3.423
409,-25,3.424
354,-24,3.425
248,-18,3.426
140,-7,3.427
22,-2,3.428
-97,-1,3.429
-224,0,3.43
-332,6,3.431
-383,16,3.432
-425,21,3.433
-440,17,3.434
-437,12,3.435
-378,12,3.436
-302,11,3.437
-180,11,3.438
-44,6,3.439
128,0,3.44
260,-6,3.441
355,-14,3.442
419,-20,3.443
439,-16,3.444
407,-13,3.445
350,-12,3.446
282,-10,3.447
172,-6,3.448
4,-1,3.449
-166,4,3.45
-282,9,3.451
-353,14,3.452
-412,18,3.453
-445,18,3.454
-414,17,3.455
-325,15,3.456
-215,13,3.457
-111,7,3.458
11,2,3.459
120,-3,3.46
225,-9,3.461
321,-18,3.462
392,-19,3.463
389,-15,3.464
368,-11,3.465
291,-8,3.466
203,-6,3.467
85,-2,3.468
-40,1,3.469
-184,4,3.47
-311,8,3.471
-387,12,3.472
-437,14,3.473
-410,18,3.474
-367,23,3.475
-281,22,3.476
-187,14,3.477
-67,9,3.478
64,1,3.479
217,-7,3.48
332,-15,3.481
408,-24,3.482
452,-26,3.483
454,-26,3.484
410,-24,3.485
341,-19,3.486
256,-13,3.487
128,-9,3.488
-56,-8,3.489
-263,-5,3.49
-421,5,3.491
-492,12,3.492
-490,11,3.493
-452,10,3.494
-400,10,3.495
-331,11,3.496
-225,6,3.497
-86,0,3.498
71,-4,3.499
208,-8,3.5
306,-13,3.501
374,-23,3.502
409,-32,3.503
401,-32,3.504
363,-29,3.505
310,-23,3.506
236,-17,3.507
123,-13,3.508
-23,-9,3.509
-158,-8,3.51
-249,-4,3.511
-290,5,3.512
-270,13,3.513
-195,13,3.514
-94,11,3.515
-2,9,3.516
87,6,3.517
193,2,3.518
330,-3,3.519
470,-4,3.52
584,-7,3.521
665,-13,3.522
695,-18,3.523
662,-18,3.524
591,-13,3.525
513,-7,3.526
416,-2,3.527
264,2,3.528
68,8,3.529
-113,12,3.53
-244,13,3.531
-336,11,3.532
-382,11,3.533
-358,15,3.534
-276,18,3.535
-180,19,3.536
-91,15,3.537
10,11,3.538
140,3,3.539
261,-5,3.54
338,-10,3.541
377,-15,3.542
386,-15,3.543
357,-15,3.544
286,-12,3.545
191,-6,3.546
73,-2,3.547
-92,1,3.548
-297,3,3.549
-478,10,3.55
-576,19,3.551
-598,25,3.552
-581,23,3.553
-530,18,3.554
-431,15,3.555
-306,14,3.556
-195,12,3.557
-105,7,3.558
-10,-4,3.559
89,-12,3.56
172,-13,3.561
233,-12,3.562
272,-8,3.563
279,-8,3.564
243,-10,3.565
174,-8,3.566
84,-4,3.567
-44,0,3.568
-219,2,3.569
-393,6,3.57
-514,12,3.571
-574,18,3.572
-584,22,3.573
-541,22,3.574
-449,19,3.575
-340,13,3.576
-234,7,3.577
-122,4,3.578
20,-1,3.579
164,-9,3.58
273,-17,3.581
345,-21,3.582
387,-20,3.583
384,-18,3.584
330,-18,3.585
238,-16,3.586
124,-11,3.587
-8,-5,3.588
-152,0,3.589
-285,5,3.59
-387,11,3.591
-444,15,3.592
-441,15,3.593
-380,12,3.594
-293,12,3.595
-205,14,3.596
-107,13,3.597
5,10,3.598
125,2,3.599
218,-6,3.6
285,-14,3.601
341,-20,3.602
377,-18,3.603
366,-15,3.604
323,-17,3.605
268,-17,3.606
189,-9,3.607
62,0,3.608
-92,3,3.609
-229,3,3.61
-326,8,3.611
-387,14,3.612
-402,13,3.613
-359,9,3.614
-282,7,3.615
-196,9,3.616
-91,8,3.617
40,7,3.618
186,4,3.619
307,-3,3.62
386,-13,3.621
432,-23,3.622
432,-20,3.623
376,-12,3.624
297,-8,3.625
234,-11,3.626
169,-11,3.627
55,-5,3.628
-97,0,3.629
-236,3,3.63
-341,8,3.631
-426,14,3.632
-471,15,3.633
-430,12,3.634
-313,10,3.635
-177,10,3.636
-46,10,3.637
84,10,3.638
224,9,3.639
334,4,3.64
395,-2,3.641
423,-11,3.642
423,-18,3.643
380,-18,3.644
303,-16,3.645
217,-14,3.646
113,-12,3.647
-38,-8,3.648
-210,-3,3.649
-342,2,3.65
-411,9,3.651
-443,14,3.652
-445,18,3.653
-396,15,3.654
-302,12,3.655
-185,9,3.656
-49,6,3.657
99,0,3.658
238,-5,3.659
337,-9,3.66
412,-13,3.661
413,-19,3.662
396,-22,3.663
324,-19,3.664
249,-13,3.665
169,-9,3.666
79,-5,3.667
-34,-2,3.668
-142,1,3.669
-227,4,3.67
-306,7,3.671
-367,12,3.672
-400,17,3.673
-350,20,3.674
-285,18,3.675
-173,16,3.676
-50,13,3.677
99,10,3.678
242,0,3.679
337,-11,3.68
404,-21,3.681
455,-27,3.682
460,-25,3.683
409,-22,3.684
331,-19,3.685
246,-14,3.686
129,-9,3.687
-27,-6,3.688
-186,-3,3.689
-309,4,3.69
-384,14,3.691
-403,17,3.692
-355,15,3.693
-271,14,3.694
-205,15,3.695
-158,13,3.696
-78,8,3.697
47,5,3.698
189,2,3.699
290,0,3.7
342,-5,3.701
370,-13,3.702
379,-19,3.703
355,-19,3.704
293,-19,3.705
192,-14,3.706
62,-9,3.707
-83,-5,3.708
-219,0,3.709
-330,8,3.71
-405,14,3.711
-428,15,3.712
-399,16,3.713
-339,14,3.714
-270,12,3.715
-184,11,3.716
-69,9,3.717
53,4,3.718
165,-2,3.719
253,-9,3.72
327,-13,3.721
361,-16,3.722
376,-17,3.723
329,-19,3.724
270,-16,3.725
174,-7,3.726
70,3,3.727
-57,5,3.728
-177,2,3.729
-275,4,3.73
-360,12,3.731
-402,16,3.732
-418,11,3.733
-355,8,3.734
-282,10,3.735
-179,13,3.736
-69,10,3.737
60,4,3.738
185,-3,3.739
279,-6,3.74
350,-10,3.741
399,-17,3.742
404,-18,3.743
359,-13,3.744
300,-8,3.745
227,-8,3.746
108,-9,3.747
-57,-8,3.748
-213,-3,3.749
-319,3,3.75
-383,7,3.751
-416,10,3.752
-403,12,3.753
-344,13,3.754
-272,13,3.755
-185,11,3.756
-44,8,3.757
137,3,3.758
158,2,3.759
264,-4,3.76
352,-12,3.761
385,-18,3.762
395,-21,3.763
331,-18,3.764
256,-14,3.765
148,-6,3.766
28,0,3.767
-125,1,3.768
-258,1,3.769
-328,7,3.77
-383,12,3.771
-391,12,3.772
-367,12,3.773
-247,13,3.774
-140,15,3.775
-67,15,3.776
12,14,3.777
118,10,3.778
153,3,3.779
256,-6,3.78
340,-15,3.781
372,-23,3.782
382,-27,3.783
320,-24,3.784
247,-18,3.785
143,-8,3.786
27,-1,3.787
-120,0,3.788
-249,2,3.789
-317,9,3.79
-370,15,3.791
-377,15,3.792
-355,15,3.793
-239,16,3.794
-135,19,3.795
-65,19,3.796
12,17,3.797
115,13,3.798
162,3,3.799
270,-5,3.8
359,-13,3.801
393,-19,3.802
403,-23,3.803
338,-20,3.804
261,-15,3.805
151,-7,3.806
29,-1,3.807
-128,0,3.808
-264,2,3.809
-335,8,3.81
-391,13,3.811
-399,13,3.812
-375,13,3.813
-253,14,3.814
-143,16,3.815
-69,16,3.816
13,15,3.817
121,11,3.818
231,5,3.819
331,-4,3.82
389,-15,3.821
414,-27,3.822
400,-28,3.823
356,-22,3.824
305,-16,3.825
233,-15,3.826
109,-15,3.827
-62,-12,3.828
-224,-5,3.829
-345,5,3.83
-427,17,3.831
-454,25,3.832
-397,22,3.833
-281,15,3.834
-164,10,3.835
-64,7,3.836
60,5,3.837
197,5,3.838
165,1,3.839
242,-5,3.84
302,-12,3.841
310,-21,3.842
313,-24,3.843
298,-22,3.844
263,-17,3.845
169,-7,3.846
60,1,3.847
-92,3,3.848
-228,2,3.849
-310,7,3.85
-375,13,3.851
-391,17,3.852
-380,13,3.853
-287,11,3.854
-192,13,3.855
-92,12,3.856
10,6,3.857
120,0,3.858
163,-3,3.859
240,-6,3.86
299,-12,3.861
307,-20,3.862
310,-24,3.863
295,-21,3.864
261,-17,3.865
167,-11,3.866
60,-2,3.867
-91,5,3.868
-225,6,3.869
-307,4,3.87
-372,6,3.871
-387,10,3.872
-377,12,3.873
-284,12,3.874
-190,11,3.875
-91,9,3.876
9,3,3.877
119,-5,3.878
200,-13,3.879
293,-16,3.88
365,-12,3.881
375,-12,3.882
379,-13,3.883
361,-14,3.884
319,-12,3.885
205,-6,3.886
74,0,3.887
-111,2,3.888
-274,3,3.889
-373,7,3.89
-452,11,3.891
-471,12,3.892
-458,12,3.893
-346,12,3.894
-231,12,3.895
-111,9,3.896
13,5,3.897
146,3,3.898
274,-1,3.899
360,-6,3.9
415,-12,3.901
424,-19,3.902
371,-21,3.903
291,-20,3.904
225,-17,3.905
147,-13,3.906
12,-7,3.907
-170,1,3.908
-342,8,3.909
-456,10,3.91
-501,12,3.911
-475,15,3.912
-395,18,3.913
-301,19,3.914
-213,18,3.915
-110,13,3.916
20,5,3.917
145,-3,3.918
252,-11,3.919
346,-14,3.92
426,-17,3.921
451,-20,3.922
406,-18,3.923
327,-15,3.924
243,-10,3.925
130,-5,3.926
-32,-2,3.927
-195,2,3.928
-298,4,3.929
-354,8,3.93
-385,13,3.931
-368,17,3.932
-289,15,3.933
-193,10,3.934
-128,7,3.935
-65,6,3.936
41,4,3.937
167,3,3.938
280,-2,3.939
370,-7,3.94
435,-12,3.941
425,-16,3.942
396,-19,3.943
307,-17,3.944
211,-15,3.945
95,-12,3.946
-25,-7,3.947
-158,-1,3.948
-275,4,3.949
-343,8,3.95
-393,12,3.951
-387,16,3.952
-359,19,3.953
-265,19,3.954
-168,18,3.955
-59,14,3.956
52,8,3.957
172,-1,3.958
287,-11,3.959
373,-19,3.96
420,-26,3.961
423,-30,3.962
363,-20,3.963
265,-8,3.964
171,-4,3.965
82,-7,3.966
-31,-8,3.967
-170,-4,3.968
-293,3,3.969
-375,12,3.97
-413,22,3.971
-408,26,3.972
-359,21,3.973
-292,15,3.974
-229,12,3.975
-134,8,3.976
30,2,3.977
210,-2,3.978
336,-2,3.979
348,-8,3.98
332,-14,3.981
327,-17,3.982
303,-19,3.983
235,-14,3.984
143,-10,3.985
50,-7,3.986
-51,-3,3.987
-167,0,3.988
-278,4,3.989
-354,5,3.99
-375,8,3.991
-341,12,3.992
-277,16,3.993
-223,14,3.994
-182,12,3.995
-112,8,3.996
16,3,3.997
167,-2,3.998
307,-2,3.999
401,-9,4.0
433,-16,4.001
406,-19,4.002
345,-21,4.003
287,-16,4.004
223,-11,4.005
118,-8,4.006
-33,-3,4.007
-189,0,4.008
-310,4,4.009
-389,6,4.01
-418,8,4.011
-389,14,4.012
-328,17,4.013
-265,16,4.014
-193,14,4.015
-71,8,4.016
85,3,4.017
219,-2,4.018
315,-3,4.019
381,-11,4.02
408,-18,4.021
373,-22,4.022
288,-24,4.023
199,-18,4.024
119,-13,4.025
25,-9,4.026
-91,-4,4.027
-201,1,4.028
-288,5,4.029
-354,7,4.03
-387,10,4.031
-371,16,4.032
-318,20,4.033
-250,18,4.034
-153,16,4.035
-5,10,4.036
162,4,4.037
292,-3,4.038
382,-10,4.039
442,-11,4.04
458,-11,4.041
411,-14,4.042
334,-17,4.043
269,-15,4.044
201,-9,4.045
74,-4,4.046
-103,-1,4.047
-256,-1,4.048
-345,2,4.049
-390,6,4.05
-404,10,4.051
-373,12,4.052
-308,13,4.053
-246,10,4.054
-189,6,4.055
-94,0,4.056
43,-4,4.057
170,-3,4.058
265,-5,4.059
336,-6,4.06
384,-10,4.061
384,-14,4.062
335,-14,4.063
266,-12,4.064
187,-9,4.065
72,-6,4.066
-93,-1,4.067
-264,2,4.068
-380,6,4.069
-426,12,4.07
-420,15,4.071
-381,15,4.072
-317,11,4.073
-236,12,4.074
-136,10,4.075
-12,2,4.076
125,-7,4.077
243,-7,4.078
337,-8,4.079
401,-10,4.08
424,-17,4.081
399,-19,4.082
348,-14,4.083
294,-12,4.084
220,-14,4.085
93,-11,4.086
-73,-3,4.087
-230,5,4.088
-352,9,4.089
-455,10,4.09
-519,15,4.091
-497,14,4.092
-383,11,4.093
-237,11,4.094
-110,12,4.095
10,8,4.096
150,1,4.097
284,-4,4.098
383,-9,4.099
418,-11,4.1
395,-14,4.101
347,-17,4.102
301,-16,4.103
253,-16,4.104
172,-14,4.105
43,-7,4.106
-101,4,4.107
-224,11,4.108
-325,12,4.109
-399,11,4.11
-418,14,4.111
-374,19,4.112
-308,18,4.113
-246,13,4.114
-157,8,4.115
-20,5,4.116
123,6,4.117
214,7,4.118
270,1,4.119
328,-8,4.12
368,-16,4.121
355,-22,4.122
299,-22,4.123
246,-19,4.124
188,-15,4.125
85,-9,4.126
-63,1,4.127
-211,8,4.128
-329,9,4.129
-402,7,4.13
-412,7,4.131
-359,9,4.132
-282,11,4.133
-207,10,4.134
-115,8,4.135
14,3,4.136
144,-4,4.137
235,-7,4.138
308,-7,4.139
386,-9,4.14
433,-13,4.141
406,-19,4.142
322,-17,4.143
231,-13,4.144
131,-10,4.145
0,-6,4.146
-140,1,4.147
-245,8,4.148
-318,8,4.149
-372,9,4.15
-387,13,4.151
-336,17,4.152
-258,13,4.153
-199,9,4.154
-131,7,4.155
-4,6,4.156
160,-1,4.157
283,-6,4.158
349,-8,4.159
393,-11,4.16
424,-16,4.161
411,-22,4.162
340,-19,4.163
235,-10,4.164
109,-4,4.165
-35,0,4.166
-183,5,4.167
-298,9,4.168
-363,10,4.169
-386,13,4.17
-372,15,4.171
-328,15,4.172
-273,11,4.173
-210,8,4.174
-117,5,4.175
23,1,4.176
173,-1,4.177
275,-2,4.178
327,-6,4.179
343,-11,4.18
334,-16,4.181
302,-22,4.182
252,-20,4.183
194,-14,4.184
108,-5,4.185
-16,4,4.186
-154,10,4.187
-265,10,4.188
-343,7,4.189
-393,7,4.19
-399,9,4.191
-345,10,4.192
-257,9,4.193
-170,7,4.194
-82,5,4.195
34,2,4.196
163,-1,4.197
262,-3,4.198
332,-6,4.199
377,-11,4.2
383,-17,4.201
339,-21,4.202
269,-20,4.203
210,-13,4.204
143,-7,4.205
27,-2,4.206
-127,2,4.207
-262,2,4.208
-346,5,4.209
-391,13,4.21
-398,19,4.211
-360,12,4.212
-294,0,4.213
-221,-5,4.214
-134,-2,4.215
-18,1,4.216
111,0,4.217
218,-1,4.218
294,-4,4.219
338,-8,4.22
364,-10,4.221
330,-11,4.222
296,-8,4.223
262,-5,4.224
201,-3,4.225
58,2,4.226
-85,8,4.227
-226,10,4.228
-344,8,4.229
-388,9,4.23
-410,11,4.231
-360,10,4.232
-299,5,4.233
-203,3,4.234
-95,7,4.235
50,8,4.236
181,1,4.237
267,-6,4.238
343,-10,4.239
382,-10,4.24
390,-10,4.241
352,-10,4.242
283,-9,4.243
203,-8,4.244
104,-6,4.245
-37,-3,4.246
-192,-1,4.247
-308,0,4.248
-367,3,4.249
-389,9,4.25
-382,14,4.251
-335,16,4.252
-257,16,4.253
-167,9,4.254
-53,3,4.255
98,-2,4.256
255,-6,4.257
353,-8,4.258
389,-11,4.259
381,-13,4.26
352,-14,4.261
305,-18,4.262
245,-21,4.263
169,-19,4.264
57,-10,4.265
-98,3,4.266
-252,11,4.267
-349,10,4.268
-374,8,4.269
-361,8,4.27
-339,11,4.271
-303,13,4.272
-235,14,4.273
-129,15,4.274
-7,13,4.275
106,3,4.276
209,-5,4.277
307,-8,4.278
393,-9,4.279
415,-10,4.28
347,-14,4.281
244,-19,4.282
177,-18,4.283
143,-11,4.284
77,-4,4.285
-51,1,4.286
-202,4,4.287
-326,5,4.288
-395,9,4.289
-403,12,4.29
-348,13,4.291
-266,12,4.292
-185,8,4.293
-100,5,4.294
16,3,4.295
152,0,4.296
264,-2,4.297
329,-2,4.298
367,-7,4.299
379,-10,4.3
346,-13,4.301
270,-18,4.302
180,-19,4.303
86,-16,4.304
-30,-11,4.305
-160,-3,4.306
-261,2,4.307
-307,7,4.308
-315,13,4.309
-309,17,4.31
-287,15,4.311
-253,10,4.312
-210,9,4.313
-151,10,4.314
-55,9,4.315
71,1,4.316
194,-7,4.317
291,-9,4.318
364,-11,4.319
400,-15,4.32
381,-20,4.321
319,-23,4.322
243,-18,4.323
164,-11,4.324
59,-7,4.325
-83,-1,4.326
-233,8,4.327
-348,16,4.328
-401,16,4.329
-392,11,4.33
-333,12,4.331
-238,18,4.332
-128,19,4.333
-33,13,4.334
27,5,4.335
71,2,4.336
134,-1,4.337
215,-6,4.338
284,-12,4.339
305,-15,4.34
282,-14,4.341
256,-17,4.342
232,-17,4.343
181,-11,4.344
75,-5,4.345
-65,1,4.346
-204,7,4.347
-313,10,4.348
-382,7,4.349
-403,3,4.35
-370,4,4.351
-297,8,4.352
-203,7,4.353
-93,3,4.354
31,3,4.355
158,5,4.356
262,1,4.357
333,-5,4.358
364,-5,4.359
350,-7,4.36
319,-10,4.361
240,-14,4.362
160,-15,4.363
78,-10,4.364
-14,-2,4.365
-139,5,4.366
-247,12,4.367
-299,12,4.368
-337,14,4.369
-329,14,4.37
-307,14,4.371
-248,12,4.372
-176,10,4.373
-64,5,4.374
51,1,4.375
175,0,4.376
284,-4,4.377
352,-9,4.378
409,-5,4.379
408,-7,4.38
348,-11,4.381
250,-14,4.382
141,-16,4.383
31,-10,4.384
-81,-2,4.385
-191,5,4.386
-276,12,4.387
-329,13,4.388
-352,14,4.389
-336,14,4.39
-278,14,4.391
-201,13,4.392
-137,10,4.393
-82,5,4.394
2,1,4.395
129,0,4.396
262,-4,4.397
349,-9,4.398
370,-7,4.399
343,-9,4.4
309,-13,4.401
256,-17,4.402
193,-19,4.403
99,-12,4.404
-7,-3,4.405
-153,6,4.406
-278,14,4.407
-334,15,4.408
-371,17,4.409
-353,17,4.41
-317,17,4.411
-227,15,4.412
-139,12,4.413
-55,6,4.414
34,1,4.415
134,-1,4.416
230,-5,4.417
311,-11,4.418
384,-16,4.419
393,-17,4.42
345,-15,4.421
270,-16,4.422
200,-17,4.423
123,-14,4.424
-2,-8,4.425
-161,0,4.426
-292,4,4.427
-362,11,4.428
-385,16,4.429
-373,18,4.43
-321,16,4.431
-242,14,4.432
-163,14,4.433
-83,14,4.434
14,9,4.435
116,-1,4.436
196,-11,4.437
251,-13,4.438
292,-15,4.439
310,-14,4.44
312,-13,4.441
264,-14,4.442
208,-15,4.443
129,-14,4.444
36,-8,4.445
-97,-2,4.446
-220,3,4.447
-310,6,4.448
-377,7,4.449
-372,9,4.45
-341,11,4.451
-235,10,4.452
-126,6,4.453
-10,3,4.454
99,2,4.455
187,0,4.456
265,-5,4.457
314,-5,4.458
365,-7,4.459
394,-9,4.46
366,-12,4.461
297,-17,4.462
210,-16,4.463
99,-11,4.464
-45,-4,4.465
-194,5,4.466
-314,12,4.467
-405,13,4.468
-468,11,4.469
-465,11,4.47
-366,15,4.471
-214,18,4.472
-86,13,4.473
1,5,4.474
92,1,4.475
203,0,4.476
295,-4,4.477
326,-10,4.478
311,-16,4.479
286,-16,4.48
258,-15,4.481
222,-15,4.482
169,-13,4.483
71,-11,4.484
-29,-7,4.485
-138,-1,4.486
-234,4,4.487
-288,7,4.488
-325,11,4.489
-307,15,4.49
-279,18,4.491
-221,15,4.492
-149,11,4.493
-31,6,4.494
87,2,4.495
209,0,4.496
311,-1,4.497
348,-4,4.498
377,-7,4.499
362,-11,4.5
308,-15,4.501
230,-20,4.502
137,-18,4.503
23,-12,4.504
-110,-6,4.505
-241,2,4.506
-344,8,4.507
-410,11,4.508
-430,12,4.509
-390,14,4.51
-304,16,4.511
-205,15,4.512
-102,12,4.513
20,9,4.514
148,1,4.515
235,-6,4.516
272,-10,4.517
293,-10,4.518
314,-12,4.519
314,-14,4.52
280,-14,4.521
236,-13,4.522
192,-10,4.523
121,-9,4.524
10,-4,4.525
-110,4,4.526
-210,11,4.527
-286,12,4.528
-335,9,4.529
-339,10,4.53
-303,12,4.531
-252,13,4.532
-193,8,4.533
-106,1,4.534
11,-5,4.535
133,-9,4.536
236,-9,4.537
310,-6,4.538
342,-5,4.539
319,-8,4.54
258,-13,4.541
203,-17,4.542
147,-15,4.543
60,-9,4.544
-62,-3,4.545
-177,5,4.546
-255,10,4.547
-295,10,4.548
-306,10,4.549
-290,13,4.55
-255,16,4.551
-211,15,4.552
-145,11,4.553
-44,8,4.554
77,5,4.555
189,-2,4.556
278,-14,4.557
340,-19,4.558
324,-18,4.559
308,-15,4.56
275,-17,4.561
190,-19,4.562
96,-10,4.563
-22,1,4.564
-132,7,4.565
-220,5,4.566
-296,7,4.567
-339,12,4.568
-356,14,4.569
-296,11,4.57
-236,10,4.571
-174,12,4.572
-102,10,4.573
5,3,4.574
115,-1,4.575
227,-4,4.576
320,-7,4.577
361,-9,4.578
349,-10,4.579
332,-10,4.58
296,-14,4.581
205,-22,4.582
104,-20,4.583
-24,-10,4.584
-143,1,4.585
-237,7,4.586
-319,10,4.587
-365,11,4.588
-384,10,4.589
-319,9,4.59
-254,10,4.591
-188,11,4.592
-110,7,4.593
6,4,4.594
124,1,4.595
244,-3,4.596
345,-8,4.597
389,-10,4.598
414,-11,4.599
351,-13,4.6
243,-15,4.601
141,-15,4.602
63,-8,4.603
-15,-2,4.604
-120,2,4.605
-236,11,4.606
-332,19,4.607
-387,21,4.608
-387,13,4.609
-338,8,4.61
-256,7,4.611
-164,8,4.612
-64,5,4.613
53,-1,4.614
177,-6,4.615
280,-10,4.616
347,-16,4.617
376,-18,4.618
368,-17,4.619
325,-15,4.62
269,-12,4.621
214,-13,4.622
144,-13,4.623
36,-11,4.624
-102,-4,4.625
-238,8,4.626
-344,16,4.627
-410,17,4.628
-418,14,4.629
-368,13,4.63
-289,13,4.631
-204,9,4.632
-107,6,4.633
10,6,4.634
129,7,4.635
230,3,4.636
323,-3,4.637
404,-6,4.638
420,-8,4.639
349,-12,4.64
270,-16,4.641
166,-18,4.642
64,-17,4.643
-25,-14,4.644
-116,-8,4.645
-208,1,4.646
-288,7,4.647
-333,8,4.648
-357,7,4.649
-316,11,4.65
-273,14,4.651
-224,11,4.652
-152,5,4.653
-11,3,4.654
119,1,4.655
216,-4,4.656
305,-10,4.657
368,-11,4.658
419,-8,4.659
391,-7,4.66
306,-8,4.661
218,-10,4.662
133,-8,4.663
18,-5,4.664
-124,0,4.665
-255,5,4.666
-345,9,4.667
-388,9,4.668
-380,8,4.669
-335,10,4.67
-279,12,4.671
-212,13,4.672
-106,7,4.673
36,1,4.674
166,-3,4.675
265,-7,4.676
345,-10,4.677
401,-11,4.678
400,-14,4.679
339,-15,4.68
265,-16,4.681
205,-15,4.682
126,-11,4.683
0,-6,4.684
-136,0,4.685
-248,8,4.686
-335,12,4.687
-394,12,4.688
-396,10,4.689
-338,11,4.69
-254,13,4.691
-172,12,4.692
-73,8,4.693
46,5,4.694
160,4,4.695
248,-2,4.696
318,-9,4.697
362,-12,4.698
353,-12,4.699
296,-10,4.7
230,-8,4.701
170,-13,4.702
82,-14,4.703
-44,-11,4.704
-176,-5,4.705
-285,4,4.706
-364,11,4.707
-395,11,4.708
-364,10,4.709
-289,8,4.71
-212,11,4.711
-131,12,4.712
-13,8,4.713
131,2,4.714
250,-3,4.715
323,-6,4.716
366,-11,4.717
392,-15,4.718
361,-19,4.719
278,-18,4.72
186,-15,4.721
72,-16,4.722
-39,-13,4.723
-143,-8,4.724
-228,-4,4.725
-256,1,4.726
-281,6,4.727
-297,12,4.728
-291,17,4.729
-217,19,4.73
-139,19,4.731
-49,15,4.732
41,10,4.733
137,6,4.734
217,1,4.735
249,-3,4.736
274,-7,4.737
274,-9,4.738
266,-10,4.739
220,-10,4.74
154,-13,4.741
91,-16,4.742
26,-11,4.743
-56,-4,4.744
-160,3,4.745
-271,9,4.746
-358,12,4.747
-382,11,4.748
-338,9,4.749
-270,8,4.75
-217,11,4.751
-160,11,4.752
-60,6,4.753
70,-1,4.754
181,-3,4.755
264,-4,4.756
333,-8,4.757
376,-12,4.758
364,-16,4.759
311,-15,4.76
252,-13,4.761
187,-12,4.762
90,-10,4.763
-40,-6,4.764
-166,-1,4.765
-265,3,4.766
-335,8,4.767
-364,15,4.768
-338,16,4.769
-280,11,4.77
-217,8,4.771
-143,9,4.772
-33,11,4.773
102,5,4.774
222,-4,4.775
309,-8,4.776
360,-11,4.777
366,-12,4.778
319,-13,4.779
247,-11,4.78
175,-8,4.781
106,-11,4.782
24,-10,4.783
-64,-5,4.784
-149,3,4.785
-236,9,4.786
-319,10,4.787
-366,11,4.788
-355,11,4.789
-310,10,4.79
-247,10,4.791
-150,8,4.792
-16,3,4.793
122,-1,4.794
227,-2,4.795
304,-2,4.796
365,-4,4.797
390,-6,4.798
353,-9,4.799
287,-10,4.8
217,-11,4.801
133,-12,4.802
39,-9,4.803
-82,-4,4.804
-195,0,4.805
-283,7,4.806
-354,14,4.807
-374,16,4.808
-373,13,4.809
-311,10,4.81
-242,12,4.811
-148,11,4.812
-46,0,4.813
82,-10,4.814
197,-13,4.815
275,-12,4.816
337,-12,4.817
351,-13,4.818
352,-15,4.819
289,-16,4.82
220,-19,4.821
150,-20,4.822
53,-14,4.823
-71,-6,4.824
-192,0,4.825
-286,4,4.826
-345,10,4.827
-357,16,4.828
-318,16,4.829
-259,13,4.83
-208,15,4.831
-142,17,4.832
-21,14,4.833
137,7,4.834
272,2,4.835
347,1,4.836
377,-1,4.837
376,-3,4.838
335,-7,4.839
263,-10,4.84
183,-13,4.841
98,-13,4.842
-13,-10,4.843
-143,-2,4.844
-257,5,4.845
-335,13,4.846
-381,19,4.847
-391,21,4.848
-353,23,4.849
-280,21,4.85
-191,19,4.851
-86,13,4.852
48,7,4.853
191,0,4.854
303,-6,4.855
370,-10,4.856
401,-13,4.857
394,-17,4.858
348,-21,4.859
282,-23,4.86
205,-25,4.861
99,-25,4.862
-12,-18,4.863
-133,-9,4.864
-243,-8,4.865
-316,-5,4.866
-370,2,4.867
-369,8,4.868
-351,8,4.869
-283,8,4.87
-205,12,4.871
-97,12,4.872
15,4,4.873
147,-4,4.874
263,-5,4.875
333,-5,4.876
387,-8,4.877
387,-11,4.878
327,-12,4.879
265,-10,4.88
193,-8,4.881
93,-8,4.882
-11,-7,4.883
-125,-1,4.884
-228,4,4.885
-296,8,4.886
-347,12,4.887
-346,13,4.888
-329,14,4.889
-265,11,4.89
-192,9,4.891
-91,9,4.892
15,8,4.893
138,5,4.894
247,2,4.895
313,-1,4.896
363,-4,4.897
363,-6,4.898
349,-8,4.899
284,-9,4.9
206,-11,4.901
106,-17,4.902
-27,-13,4.903
-166,-5,4.904
-277,1,4.905
-355,5,4.906
-407,8,4.907
-415,11,4.908
-371,9,4.909
-298,7,4.91
-223,8,4.911
-130,6,4.912
-10,0,4.913
122,-7,4.914
237,-11,4.915
326,-11,4.916
381,-12,4.917
390,-13,4.918
348,-11,4.919
283,-8,4.92
217,-4,4.921
139,6,4.922
34,12,4.923
-80,12,4.924
-187,9,4.925
-283,6,4.926
-344,0,4.927
-334,-5,4.928
-255,-8,4.929
-157,-14,4.93
-77,-9,4.931
5,3,4.932
106,9,4.933
205,8,4.934
277,7,4.935
327,-3,4.936
361,-11,4.937
360,-12,4.938
348,-12,4.939
239,-14,4.94
129,-15,4.941
11,-14,4.942
-102,-11,4.943
-210,-6,4.944
-300,-1,4.945
-342,5,4.946
-363,12,4.947
-320,13,4.948
-267,14,4.949
-185,14,4.95
-98,13,4.951
0,9,4.952
94,4,4.953
187,0,4.954
269,-4,4.955
314,-10,4.956
343,-14,4.957
320,-18,4.958
357,-11,4.959
245,-12,4.96
132,-13,4.961
12,-12,4.962
-105,-10,4.963
-215,-5,4.964
-308,-1,4.965
-351,4,4.966
-372,10,4.967
-328,11,4.968
-274,12,4.969
-190,12,4.97
-101,11,4.971
-1,8,4.972
97,3,4.973
192,0,4.974
276,-4,4.975
322,-9,4.976
352,-12,4.977
328,-16,4.978
357,-13,4.979
246,-14,4.98
132,-15,4.981
12,-14,4.982
-105,-11,4.983
-215,-6,4.984
-309,-1,4.985
-351,5,4.986
-372,12,4.987
-329,13,4.988
-274,15,4.989
-190,15,4.99
-101,13,4.991
-1,9,4.992
97,4,4.993
192,0,4.994
276,-5,4.995
323,-10,4.996
352,-14,4.997
329,-18,4.998
361,-8,4.999
249,-9,5.0
134,-10,5.001
12,-9,5.002
-106,-8,5.003
-218,-4,5.004
-312,-1,5.005
-355,3,5.006
-377,7,5.007
-333,8,5.008
-277,9,5.009
-192,9,5.01
-102,8,5.011
-1,6,5.012
98,2,5.013
194,-1,5.014
279,-3,5.015
326,-7,5.016
356,-9,5.017
333,-12,5.018
377,-10,5.019
259,-11,5.02
139,-12,5.021
12,-11,5.022
-111,-9,5.023
-228,-5,5.024
-326,-1,5.025
-371,4,5.026
-393,9,5.027
-347,10,5.028
-290,11,5.029
-201,11,5.03
-107,10,5.031
-1,7,5.032
102,3,5.033
203,0,5.034
291,-4,5.035
341,-8,5.036
372,-11,5.037
347,-14,5.038
353,-10,5.039
243,-11,5.04
131,-12,5.041
12,-11,5.042
-104,-9,5.043
-213,-5,5.044
-305,-1,5.045
-347,4,5.046
-368,9,5.047
-325,10,5.048
-271,11,5.049
-188,11,5.05
-100,10,5.051
-1,7,5.052
96,3,5.053
190,0,5.054
273,-4,5.055
319,-8,5.056
348,-11,5.057
325,-14,5.058
288,-16,5.059
216,-12,5.06
144,-6,5.061
44,-4,5.062
-87,-2,5.063
-217,2,5.064
-313,11,5.065
-372,15,5.066
-385,12,5.067
-344,11,5.068
-271,12,5.069
-196,13,5.07
-116,10,5.071
-5,7,5.072
119,6,5.073
213,1,5.074
268,-7,5.075
309,-13,5.076
335,-13,5.077
326,-10,5.078
285,-12,5.079
236,-16,5.08
165,-16,5.081
40,-14,5.082
-118,-9,5.083
-249,-6,5.084
-328,-1,5.085
-374,5,5.086
-385,11,5.087
-336,12,5.088
-239,9,5.089
-145,6,5.09
-62,7,5.091
37,7,5.092
145,2,5.093
225,-5,5.094
265,-10,5.095
293,-11,5.096
309,-10,5.097
296,-10,5.098
249,-11,5.099
191,-10,5.1
124,-6,5.101
29,-4,5.102
-65,-2,5.103
-158,-1,5.104
-241,0,5.105
-291,3,5.106
-323,6,5.107
-300,9,5.108
-263,14,5.109
-185,21,5.11
-98,22,5.111
11,15,5.112
116,8,5.113
206,1,5.114
284,-4,5.115
324,-10,5.116
344,-11,5.117
301,-7,5.118
254,-4,5.119
190,-5,5.12
97,-8,5.121
-41,-10,5.122
-186,-7,5.123
-287,-6,5.124
-342,-3,5.125
-376,8,5.126
-376,16,5.127
-318,13,5.128
-224,5,5.129
-137,2,5.13
-57,6,5.131
45,5,5.132
163,-1,5.133
257,-6,5.134
309,-6,5.135
336,-7,5.136
344,-10,5.137
326,-12,5.138
275,-13,5.139
206,-10,5.14
113,-7,5.141
-12,-6,5.142
-144,-5,5.143
-245,-3,5.144
-312,-1,5.145
-359,4,5.146
-374,9,5.147
-336,10,5.148
-257,11,5.149
-166,9,5.15
-68,7,5.151
50,5,5.152
173,2,5.153
269,-1,5.154
328,-4,5.155
364,-6,5.156
369,-9,5.157
336,-8,5.158
267,-7,5.159
184,-8,5.16
93,-9,5.161
-22,-13,5.162
-130,-11,5.163
-216,-3,5.164
-290,9,5.165
-322,15,5.166
-335,13,5.167
-293,9,5.168
-243,9,5.169
-172,9,5.17
-91,7,5.171
22,3,5.172
129,-4,5.173
213,-6,5.174
281,-6,5.175
302,-7,5.176
310,-9,5.177
276,-11,5.178
237,-9,5.179
174,-6,5.18
88,-4,5.181
-29,-6,5.182
-151,-3,5.183
-246,5,5.184
-309,10,5.185
-345,12,5.186
-346,14,5.187
-303,16,5.188
-234,15,5.189
-156,12,5.19
-62,10,5.191
52,9,5.192
159,3,5.193
234,-2,5.194
291,2,5.195
335,9,5.196
346,7,5.197
312,-1,5.198
246,28,5.199
174,17,5.2
86,2,5.201
-28,-19,5.202
-146,-34,5.203
-235,-32,5.204
-295,-29,5.205
-332,-29,5.206
-335,-26,5.207
-293,-23,5.208
-224,-21,5.209
-147,-18,5.21
-58,-15,5.211
43,-8,5.212
140,-1,5.213
217,2,5.214
281,5,5.215
331,3,5.216
341,2,5.217
307,-1,5.218
253,18,5.219
198,10,5.22
117,-1,5.221
-4,-17,5.222
-131,-28,5.223
-225,-26,5.224
-286,-24,5.225
-326,-24,5.226
-330,-22,5.227
-283,-20,5.228
-210,-18,5.229
-138,-16,5.23
-48,-14,5.231
70,-8,5.232
187,-3,5.233
268,-1,5.234
316,1,5.235
340,0,5.236
329,-1,5.237
282,-3,5.238
213,-4,5.239
148,0,5.24
66,0,5.241
-48,0,5.242
-170,10,5.243
-259,24,5.244
-313,35,5.245
-342,41,5.246
-335,44,5.247
-287,41,5.248
-219,34,5.249
-147,30,5.25
-58,32,5.251
50,29,5.252
150,19,5.253
219,4,5.254
266,-12,5.255
297,-34,5.256
294,-55,5.257
259,-62,5.258
203,-54,5.259
139,-42,5.26
50,-39,5.261
-63,-41,5.262
-166,-35,5.263
-236,-27,5.264
-281,-21,5.265
-311,-15,5.266
-308,-7,5.267
-260,2,5.268
-189,6,5.269
-114,9,5.27
-26,16,5.271
79,21,5.272
176,19,5.273
244,14,5.274
286,12,5.275
307,11,5.276
299,9,5.277
268,8,5.278
216,9,5.279
152,11,5.28
60,12,5.281
-56,10,5.282
-162,9,5.283
-231,10,5.284
-275,12,5.285
-304,12,5.286
-302,11,5.287
-256,6,5.288
-184,1,5.289
-107,-3,5.29
-26,-6,5.291
67,-4,5.292
159,-2,5.293
229,2,5.294
273,13,5.295
294,49,5.296
287,79,5.297
259,92,5.298
206,99,5.299
131,75,5.3
31,51,5.301
-81,29,5.302
-179,7,5.303
-243,-21,5.304
-284,-44,5.305
-303,-46,5.306
-292,-41,5.307
-246,-55,5.308
-178,-88,5.309
-102,-105,5.31
-13,-96,5.311
85,-87,5.312
175,-101,5.313
244,-121,5.314
290,-119,5.315
308,-96,5.316
293,-78,5.317
252,-64,5.318
194,-41,5.319
124,-9,5.32
30,18,5.321
-79,31,5.322
-178,42,5.323
-245,54,5.324
-284,65,5.325
-299,72,5.326
-284,76,5.327
-238,75,5.328
-175,66,5.329
-100,58,5.33
-10,58,5.331
87,58,5.332
172,51,5.333
234,38,5.334
277,25,5.335
294,13,5.336
278,0,5.337
236,-9,5.338
179,-30,5.339
109,-27,5.34
16,-23,5.341
-88,-17,5.342
-176,-10,5.343
-233,-3,5.344
-268,5,5.345
-285,17,5.346
-269,25,5.347
-225,26,5.348
-161,24,5.349
-84,8,5.35
7,-5,5.351
99,-14,5.352
174,-21,5.353
228,-20,5.354
269,-19,5.355
289,-21,5.356
274,-22,5.357
234,-21,5.358
175,-40,5.359
101,-36,5.36
19,-30,5.361
-84,-22,5.362
-173,-12,5.363
-217,-1,5.364
-252,11,5.365
-256,27,5.366
-249,39,5.367
-204,40,5.368
-151,37,5.369
-75,15,5.37
5,-4,5.371
98,-17,5.372
179,-27,5.373
222,-26,5.374
253,-25,5.375
246,-27,5.376
233,-29,5.377
201,-27,5.378
164,-24,5.379
93,-22,5.38
0,-18,5.381
-97,-14,5.382
-174,-5,5.383
-227,5,5.384
-257,12,5.385
-257,17,5.386
-229,21,5.387
-185,21,5.388
-135,19,5.389
-68,19,5.39
18,16,5.391
107,10,5.392
181,2,5.393
234,-2,5.394
268,0,5.395
277,3,5.396
261,6,5.397
233,8,5.398
185,6,5.399
110,4,5.4
3,2,5.401
-108,-3,5.402
-191,-7,5.403
-246,-7,5.404
-277,-3,5.405
-281,6,5.406
-259,17,5.407
-220,31,5.408
-168,41,5.409
-95,35,5.41
0,24,5.411
92,2,5.412
160,-17,5.413
211,-29,5.414
251,-39,5.415
268,-44,5.416
249,-47,5.417
212,-41,5.418
157,-35,5.419
80,-26,5.42
-2,-18,5.421
-98,-18,5.422
-180,-14,5.423
-220,2,5.424
-250,30,5.425
-252,49,5.426
-242,48,5.427
-190,27,5.428
-131,1,5.429
-51,-15,5.43
31,-31,5.431
116,-51,5.432
190,-70,5.433
227,-73,5.434
256,-62,5.435
256,-46,5.436
243,-29,5.437
196,-10,5.438
140,4,5.439
49,13,5.44
-52,20,5.441
-135,27,5.442
-186,33,5.443
-218,37,5.444
-241,41,5.445
-243,45,5.446
-215,45,5.447
-161,38,5.448
-91,30,5.449
-8,27,5.45
74,24,5.451
140,18,5.452
187,10,5.453
226,6,5.454
255,2,5.455
260,-4,5.456
238,-8,5.457
203,-7,5.458
151,-7,5.459
74,-8,5.46
-24,-6,5.461
-118,-5,5.462
-188,-4,5.463
-233,-5,5.464
-258,0,5.465
-263,7,5.466
-243,11,5.467
-204,7,5.468
-144,2,5.469
-64,2,5.47
25,3,5.471
105,-1,5.472
170,-8,5.473
217,-8,5.474
244,-7,5.475
244,-8,5.476
218,-10,5.477
181,-10,5.478
129,-8,5.479
58,-8,5.48
-31,-8,5.481
-119,-9,5.482
-186,-7,5.483
-225,-3,5.484
-240,0,5.485
-236,5,5.486
-219,9,5.487
-183,10,5.488
-121,5,5.489
-38,3,5.49
42,4,5.491
105,0,5.492
157,-7,5.493
206,-9,5.494
246,-6,5.495
256,-4,5.496
236,-6,5.497
203,-9,5.498
146,-10,5.499
63,-8,5.5
-33,-7,5.501
-109,-7,5.502
-154,-7,5.503
-188,-4,5.504
-217,0,5.505
-235,7,5.506
-234,13,5.507
-210,11,5.508
-162,9,5.509
-79,6,5.51
20,4,5.511
107,2,5.512
174,0,5.513
228,-4,5.514
264,-7,5.515
273,-8,5.516
252,-9,5.517
212,-9,5.518
142,-8,5.519
43,-7,5.52
-50,-7,5.521
-127,-8,5.522
-192,-1,5.523
-220,5,5.524
-238,8,5.525
-226,9,5.526
-201,12,5.527
-143,9,5.528
-81,4,5.529
-5,2,5.53
60,3,5.531
94,1,5.532
131,-5,5.533
174,-9,5.534
207,-8,5.535
209,-5,5.536
203,-8,5.537
171,-9,5.538
132,-12,5.539
56,-11,5.54
-29,-9,5.541
-101,-10,5.542
-159,-6,5.543
-202,0,5.544
-221,6,5.545
-211,10,5.546
-182,12,5.547
-141,12,5.548
-80,9,5.549
0,8,5.55
73,7,5.551
128,8,5.552
173,6,5.553
214,3,5.554
242,3,5.555
247,2,5.556
232,-4,5.557
203,-11,5.558
138,-13,5.559
44,-9,5.56
-53,-5,5.561
-133,-7,5.562
-197,-9,5.563
-244,-6,5.564
-262,0,5.565
-252,7,5.566
-236,11,5.567
-211,12,5.568
-151,10,5.569
-49,7,5.57
56,3,5.571
128,-1,5.572
172,-5,5.573
210,-7,5.574
235,-7,5.575
235,-8,5.576
223,-10,5.577
209,-10,5.578
162,-11,5.579
67,-7,5.58
-29,-3,5.581
-131,-3,5.582
-210,-1,5.583
-220,2,5.584
-220,5,5.585
-182,8,5.586
-147,11,5.587
-120,12,5.588
-81,12,5.589
-11,6,5.59
54,0,5.591
103,-7,5.592
149,-12,5.593
181,-9,5.594
200,-7,5.595
176,-9,5.596
149,-11,5.597
112,-9,5.598
70,-6,5.599
4,-4,5.6
-57,-2,5.601
-91,-4,5.602
-110,-3,5.603
-140,1,5.604
-181,7,5.605
-214,15,5.606
-230,17,5.607
-223,14,5.608
-190,10,5.609
-133,8,5.61
-64,4,5.611
14,-2,5.612
96,-7,5.613
169,-7,5.614
213,-7,5.615
223,-11,5.616
202,-15,5.617
155,-13,5.618
80,-9,5.619
1,-7,5.62
-70,-10,5.621
-135,-12,5.622
-191,-8,5.623
-221,0,5.624
-221,5,5.625
-213,8,5.626
-209,8,5.627
-183,10,5.628
-109,11,5.629
-11,12,5.63
72,10,5.631
131,6,5.632
186,0,5.633
232,-2,5.634
246,-3,5.635
228,-2,5.636
201,-4,5.637
178,-5,5.638
137,-5,5.639
71,-3,5.64
-16,-1,5.641
-98,-2,5.642
-159,-2,5.643
-187,-1,5.644
-182,2,5.645
-162,7,5.646
-138,11,5.647
-96,8,5.648
-20,0,5.649
69,-6,5.65
134,-8,5.651
171,-9,5.652
204,-12,5.653
245,-14,5.654
274,-15,5.655
275,-17,5.656
260,-20,5.657
235,-17,5.658
184,-14,5.659
87,-12,5.66
-37,-9,5.661
-140,-4,5.662
-198,8,5.663
-221,17,5.664
-230,21,5.665
-233,25,5.666
-224,31,5.667
-178,32,5.668
-89,28,5.669
21,23,5.67
110,20,5.671
161,16,5.672
195,11,5.673
230,6,5.674
253,1,5.675
250,-5,5.676
231,-12,5.677
198,-14,5.678
126,-14,5.679
14,-12,5.68
-107,-10,5.681
-196,-12,5.682
-241,-13,5.683
-251,-12,5.684
-236,-8,5.685
-208,0,5.686
-182,4,5.687
-149,0,5.688
-93,-3,5.689
-23,-3,5.69
40,-1,5.691
91,-4,5.692
139,-9,5.693
177,-10,5.694
192,-11,5.695
191,-14,5.696
185,-16,5.697
162,-14,5.698
93,-9,5.699
-6,-5,5.7
-103,-1,5.701
-179,-2,5.702
-236,-1,5.703
-262,1,5.704
-244,7,5.705
-191,13,5.706
-128,16,5.707
-69,14,5.708
-19,12,5.709
9,9,5.71
14,6,5.711
16,3,5.712
36,2,5.713
73,2,5.714
113,1,5.715
154,0,5.716
180,-3,5.717
168,-5,5.718
112,-7,5.719
44,-4,5.72
-21,-2,5.721
-75,-3,5.722
-133,-6,5.723
-200,-4,5.724
-254,0,5.725
-267,4,5.726
-256,5,5.727
-170,4,5.728
-77,1,5.729
40,-2,5.73
143,-6,5.731
205,-7,5.732
252,-7,5.733
250,-7,5.734
244,-7,5.735
222,-6,5.736
195,-5,5.737
151,-5,5.738
91,-6,5.739
-28,-5,5.74
-134,-3,5.741
-191,-2,5.742
-208,1,5.743
-206,2,5.744
-187,2,5.745
-157,6,5.746
-128,12,5.747
-96,14,5.748
-43,10,5.749
31,5,5.75
111,3,5.751
178,5,5.752
228,4,5.753
248,-1,5.754
240,-8,5.755
217,-10,5.756
191,-11,5.757
155,-9,5.758
84,-9,5.759
-7,-8,5.76
-91,-6,5.761
-153,-6,5.762
-196,-3,5.763
-216,-2,5.764
-212,0,5.765
-195,4,5.766
-165,6,5.767
-99,2,5.768
5,-4,5.769
105,-5,5.77
158,-2,5.771
165,0,5.772
162,-1,5.773
165,-2,5.774
173,0,5.775
177,2,5.776
167,5,5.777
138,10,5.778
81,12,5.779
16,10,5.78
-48,6,5.781
-108,4,5.782
-158,7,5.783
-188,9,5.784
-202,8,5.785
-208,7,5.786
-191,9,5.787
-127,7,5.788
-33,0,5.789
50,-4,5.79
107,-5,5.791
154,-2,5.792
196,-5,5.793
220,-8,5.794
214,-10,5.795
187,-13,5.796
145,-15,5.797
87,-12,5.798
-2,-8,5.799
-101,-3,5.8
-178,-2,5.801
-219,-7,5.802
-228,-8,5.803
-223,-8,5.804
-217,-1,5.805
-205,7,5.806
-174,13,5.807
-112,12,5.808
-33,7,5.809
41,2,5.81
101,1,5.811
152,0,5.812
193,-3,5.813
217,-7,5.814
221,-8,5.815
212,-8,5.816
184,-7,5.817
132,-4,5.818
56,-3,5.819
-23,-1,5.82
-89,-1,5.821
-143,-4,5.822
-184,-2,5.823
-197,2,5.824
-180,5,5.825
-154,7,5.826
-129,8,5.827
-100,8,5.828
-65,6,5.829
-43,2,5.83
-33,1,5.831
-4,-1,5.832
62,-3,5.833
139,-4,5.834
192,-6,5.835
212,-9,5.836
209,-13,5.837
178,-13,5.838
102,-14,5.839
7,-14,5.84
-71,-13,5.841
-113,-11,5.842
-132,-8,5.843
-145,-2,5.844
-152,4,5.845
-148,8,5.846
-124,11,5.847
-72,11,5.848
-4,11,5.849
59,11,5.85
103,11,5.851
140,8,5.852
176,6,5.853
202,5,5.854
206,4,5.855
194,4,5.856
168,5,5.857
121,5,5.858
47,5,5.859
-29,4,5.86
-97,0,5.861
-141,-4,5.862
-177,0,5.863
-189,7,5.864
-193,14,5.865
-174,19,5.866
-145,21,5.867
-87,21,5.868
-29,17,5.869
31,12,5.87
86,7,5.871
122,2,5.872
155,-3,5.873
175,-8,5.874
186,-12,5.875
171,-14,5.876
145,-14,5.877
89,-13,5.878
28,-16,5.879
-41,-15,5.88
-98,-14,5.881
-146,-14,5.882
-182,-14,5.883
-197,-8,5.884
-194,-3,5.885
-187,0,5.886
-163,1,5.887
-108,-6,5.888
-35,-11,5.889
24,-8,5.89
72,-6,5.891
120,-6,5.892
160,-7,5.893
174,-7,5.894
175,-8,5.895
176,-9,5.896
155,-9,5.897
100,-3,5.898
24,3,5.899
-37,9,5.9
-95,10,5.901
-142,7,5.902
-178,12,5.903
-179,16,5.904
-176,16,5.905
-162,12,5.906
-135,9,5.907
-71,5,5.908
-9,0,5.909
40,-1,5.91
86,0,5.911
115,0,5.912
143,-1,5.913
164,0,5.914
180,0,5.915
177,-1,5.916
161,-3,5.917
110,-3,5.918
55,-1,5.919
-10,0,5.92
-66,-1,5.921
-118,-3,5.922
-157,-1,5.923
-174,1,5.924
-178,5,5.925
-185,9,5.926
-172,9,5.927
-116,5,5.928
-33,1,5.929
35,0,5.93
80,3,5.931
123,0,5.932
163,-6,5.933
185,-11,5.934
185,-12,5.935
174,-12,5.936
146,-9,5.937
93,-5,5.938
13,-4,5.939
-56,-5,5.94
-104,-6,5.941
-145,-6,5.942
-185,-5,5.943
-201,-4,5.944
-184,-3,5.945
-149,-1,5.946
-108,3,5.947
-52,4,5.948
13,2,5.949
67,-1,5.95
102,-1,5.951
134,-2,5.952
171,-5,5.953
197,-5,5.954
202,-2,5.955
191,-1,5.956
161,-4,5.957
106,-9,5.958
33,-10,5.959
-29,-8,5.96
-72,-7,5.961
-112,-11,5.962
-148,-9,5.963
-163,-3,5.964
-162,1,5.965
-162,0,5.966
-158,2,5.967
-117,6,5.968
-37,7,5.969
44,5,5.97
100,5,5.971
138,8,5.972
173,8,5.973
199,5,5.974
199,6,5.975
166,11,5.976
106,17,5.977
39,20,5.978
-27,16,5.979
-79,11,5.98
-121,4,5.981
-154,-7,5.982
-174,-15,5.983
-170,-12,5.984
-153,-7,5.985
-131,-1,5.986
-97,3,5.987
-40,3,5.988
30,4,5.989
85,8,5.99
122,13,5.991
155,23,5.992
185,30,5.993
202,24,5.994
203,18,5.995
188,12,5.996
151,6,5.997
95,2,5.998
28,-2,5.999
-26,-6,6.0
-78,-9,6.001
-120,-20,6.002
-153,-28,6.003
-159,-30,6.004
-159,-24,6.005
-140,-14,6.006
-111,-7,6.007
-51,1,6.008
5,12,6.009
49,25,6.01
89,30,6.011
117,19,6.012
141,-2,6.013
149,-13,6.014
151,1,6.015
135,42,6.016
108,73,6.017
49,60,6.018
-11,-11,6.019
-66,-94,6.02
-103,-133,6.021
-138,-124,6.022
-168,-94,6.023
-177,-74,6.024
-168,-52,6.025
-150,-24,6.026
-118,-4,6.027
-61,0,6.028
1,3,6.029
47,15,6.03
80,30,6.031
114,31,6.032
147,27,6.033
163,25,6.034
160,25,6.035
145,18,6.036
112,11,6.037
64,11,6.038
6,15,6.039
-43,17,6.04
-87,14,6.041
-124,10,6.042
-146,11,6.043
-148,11,6.044
-140,12,6.045
-127,11,6.046
-93,13,6.047
-38,14,6.048
14,12,6.049
47,9,6.05
73,7,6.051
110,4,6.052
143,-1,6.053
157,-5,6.054
154,-4,6.055
141,1,6.056
107,8,6.057
57,14,6.058
-2,16,6.059
-49,17,6.06
-85,12,6.061
-119,0,6.062
-145,-6,6.063
-154,-5,6.064
-147,2,6.065
-127,9,6.066
-90,13,6.067
-35,15,6.068
18,13,6.069
53,8,6.07
77,2,6.071
103,-4,6.072
130,-13,6.073
147,-27,6.074
151,-38,6.075
135,-39,6.076
94,-33,6.077
39,-28,6.078
-14,-27,6.079
-50,-22,6.08
-85,-7,6.081
-120,6,6.082
-142,21,6.083
-142,32,6.084
-128,38,6.085
-109,37,6.086
-72,27,6.087
-17,9,6.088
29,-6,6.089
55,-17,6.09
78,-26,6.091
112,-35,6.092
141,-43,6.093
151,-49,6.094
149,-56,6.095
137,-62,6.096
98,-58,6.097
40,-38,6.098
-19,-13,6.099
-56,5,6.1
-83,11,6.101
-115,11,6.102
-141,17,6.103
-146,28,6.104
-135,34,6.105
-116,35,6.106
-84,37,6.107
-38,40,6.108
5,42,6.109
42,37,6.11
74,28,6.111
107,20,6.112
131,14,6.113
141,12,6.114
140,11,6.115
125,9,6.116
90,4,6.117
42,0,6.118
-9,-3,6.119
-55,-2,6.12
-99,1,6.121
-136,3,6.122
-155,8,6.123
-153,12,6.124
-138,11,6.125
-114,6,6.126
-75,0,6.127
-29,-5,6.128
13,-12,6.129
49,-11,6.13
82,0,6.131
116,26,6.132
144,64,6.133
157,108,6.134
154,123,6.135
131,72,6.136
90,-28,6.137
44,-108,6.138
-1,-134,6.139
-39,-122,6.14
-72,-110,6.141
-100,-108,6.142
-118,-91,6.143
-126,-68,6.144
-121,-58,6.145
-99,-50,6.146
-63,-29,6.147
-20,-5,6.148
17,3,6.149
49,0,6.15
77,6,6.151
98,21,6.152
116,30,6.153
131,30,6.154
136,33,6.155
122,37,6.156
83,35,6.157
37,27,6.158
-8,16,6.159
-45,15,6.16
-79,21,6.161
-105,32,6.162
-127,47,6.163
-131,54,6.164
-126,52,6.165
-94,47,6.166
-60,46,6.167
-21,36,6.168
16,13,6.169
45,-9,6.17
74,-16,6.171
99,-18,6.172
120,-33,6.173
128,-52,6.174
128,-60,6.175
102,-57,6.176
73,-57,6.177
32,-58,6.178
-9,-52,6.179
-42,-43,6.18
-76,-37,6.181
-105,-37,6.182
-120,-26,6.183
-117,-5,6.184
-105,15,6.185
-85,32,6.186
-52,44,6.187
-12,49,6.188
23,45,6.189
48,38,6.19
71,31,6.191
95,26,6.192
116,23,6.193
128,22,6.194
132,19,6.195
121,12,6.196
85,5,6.197
35,7,6.198
-21,8,6.199
-60,3,6.2
-93,-6,6.201
-122,-10,6.202
-133,-5,6.203
-125,2,6.204
-110,5,6.205
-93,7,6.206
-66,7,6.207
-27,0,6.208
10,-8,6.209
40,-7,6.21
65,-1,6.211
89,6,6.212
110,10,6.213
125,12,6.214
125,11,6.215
101,-1,6.216
56,-15,6.217
18,-23,6.218
-7,-23,6.219
-28,-18,6.22
-63,-11,6.221
-103,-10,6.222
-123,-9,6.223
-121,-8,6.224
-109,-1,6.225
-90,13,6.226
-57,31,6.227
-16,49,6.228
15,78,6.229
34,110,6.23
52,112,6.231
77,50,6.232
106,-54,6.233
131,-127,6.234
141,-133,6.235
123,-107,6.236
86,-94,6.237
54,-89,6.238
26,-71,6.239
-8,-47,6.24
-57,-39,6.241
-98,-43,6.242
-116,-33,6.243
-118,-12,6.244
-112,1,6.245
-95,11,6.246
-60,25,6.247
-25,37,6.248
-3,36,6.249
16,34,6.25
40,46,6.251
70,60,6.252
95,61,6.253
109,56,6.254
107,56,6.255
90,57,6.256
60,51,6.257
27,45,6.258
-9,38,6.259
-40,25,6.26
-63,1,6.261
-78,-16,6.262
-88,-14,6.263
-93,-5,6.264
-84,-8,6.265
-58,-24,6.266
-26,-40,6.267
3,-53,6.268
31,-60,6.269
57,-60,6.27
73,-51,6.271
77,-36,6.272
80,-24,6.273
89,-15,6.274
87,-6,6.275
65,0,6.276
34,5,6.277
16,9,6.278
-1,7,6.279
-26,5,6.28
-60,4,6.281
-81,0,6.282
-85,-1,6.283
-89,-1,6.284
-94,4,6.285
-86,11,6.286
-55,16,6.287
-13,15,6.288
19,17,6.289
39,22,6.29
59,30,6.291
79,31,6.292
95,28,6.293
99,21,6.294
93,10,6.295
78,0,6.296
58,-4,6.297
37,-1,6.298
7,-2,6.299
-23,-8,6.3
-54,-17,6.301
-76,-24,6.302
-89,-24,6.303
-91,-21,6.304
-79,-22,6.305
-57,-23,6.306
-35,-20,6.307
-19,-16,6.308
-4,-15,6.309
14,-14,6.31
34,-8,6.311
54,2,6.312
73,13,6.313
88,18,6.314
83,18,6.315
61,15,6.316
37,11,6.317
21,10,6.318
-2,8,6.319
-36,7,6.32
-59,5,6.321
-56,-1,6.322
-39,-5,6.323
-31,-7,6.324
-36,-6,6.325
-46,-1,6.326
-60,2,6.327
-76,0,6.328
-75,-6,6.329
-44,-10,6.33
4,-10,6.331
54,-9,6.332
99,-9,6.333
132,-10,6.334
129,-12,6.335
90,-11,6.336
49,-8,6.337
32,-4,6.338
7,-2,6.339
-40,1,6.34
-86,4,6.341
-96,7,6.342
-84,13,6.343
-81,19,6.344
-81,23,6.345
-68,30,6.346
-49,39,6.347
-37,40,6.348
-22,28,6.349
5,11,6.35
36,2,6.351
61,1,6.352
84,0,6.353
107,-4,6.354
112,-7,6.355
100,-9,6.356
87,-8,6.357
79,-6,6.358
49,-4,6.359
-1,-4,6.36
-51,-6,6.361
-85,-12,6.362
-112,-17,6.363
-128,-17,6.364
-125,-14,6.365
-107,-6,6.366
-98,0,6.367
-87,0,6.368
-52,-2,6.369
-3,-6,6.37
24,-8,6.371
26,-5,6.372
34,-3,6.373
54,-3,6.374
59,-3,6.375
37,-3,6.376
18,-5,6.377
17,-11,6.378
15,-17,6.379
3,-18,6.38
-10,-18,6.381
-14,-26,6.382
-14,-35,6.383
-11,-39,6.384
1,-36,6.385
24,-25,6.386
46,-15,6.387
61,-7,6.388
76,2,6.389
90,15,6.39
101,27,6.391
112,34,6.392
127,39,6.393
137,45,6.394
134,50,6.395
116,49,6.396
98,41,6.397
87,34,6.398
75,29,6.399
61,25,6.4
39,19,6.401
14,6,6.402
-7,-6,6.403
-13,-14,6.404
-1,-13,6.405
12,-10,6.406
13,-9,6.407
6,-12,6.408
5,-13,6.409
15,-10,6.41
26,-8,6.411
37,-9,6.412
46,-7,6.413
49,-5,6.414
37,-5,6.415
19,-12,6.416
4,-18,6.417
-3,-20,6.418
-17,-25,6.419
-37,-32,6.42
-58,-38,6.421
-73,-43,6.422
-83,-42,6.423
-89,-37,6.424
-88,-26,6.425
-76,-11,6.426
-64,5,6.427
-54,15,6.428
-46,20,6.429
-33,22,6.43
-19,27,6.431
-7,33,6.432
0,36,6.433
2,37,6.434
2,40,6.435
-2,48,6.436
-13,69,6.437
-21,104,6.438
-34,138,6.439
-45,131,6.44
-54,56,6.441
-64,-58,6.442
-70,-134,6.443
-70,-145,6.444
-59,-125,6.445
-44,-106,6.446
-34,-86,6.447
-28,-56,6.448
-22,-30,6.449
-9,-19,6.45
7,-11,6.451
27,4,6.452
43,12,6.453
49,9,6.454
44,9,6.455
34,18,6.456
25,26,6.457
17,22,6.458
3,18,6.459
-10,23,6.46
-20,25,6.461
-30,16,6.462
-41,9,6.463
-45,13,6.464
-38,18,6.465
-30,16,6.466
-25,11,6.467
-18,12,6.468
-6,11,6.469
2,6,6.47
9,2,6.471
21,1,6.472
38,0,6.473
47,-3,6.474
42,-5,6.475
33,-3,6.476
24,-4,6.477
14,-7,6.478
-1,-11,6.479
-12,-13,6.48
-21,-12,6.481
-38,-14,6.482
-54,-12,6.483
-57,-6,6.484
-51,0,6.485
-47,5,6.486
-46,8,6.487
-37,10,6.488
-23,11,6.489
-13,15,6.49
-7,18,6.491
3,18,6.492
18,14,6.493
23,12,6.494
17,11,6.495
11,9,6.496
8,3,6.497
5,0,6.498
-4,-2,6.499
-15,-4,6.5
-24,-9,6.501
-37,-20,6.502
-47,-24,6.503
-46,-23,6.504
-35,-16,6.505
-28,-12,6.506
-32,-12,6.507
-34,-13,6.508
-26,-14,6.509
-17,-14,6.51
-12,-16,6.511
-6,-15,6.512
9,-9,6.513
26,0,6.514
30,9,6.515
25,13,6.516
21,21,6.517
22,32,6.518
18,41,6.519
3,45,6.52
-18,42,6.521
-33,35,6.522
-48,30,6.523
-62,24,6.524
-75,15,6.525
-86,5,6.526
-98,-7,6.527
-110,-17,6.528
-113,-23,6.529
-108,-28,6.53
-103,-35,6.531
-98,-38,6.532
-85,-30,6.533
-65,-14,6.534
-55,-2,6.535
-55,3,6.536
-53,3,6.537
-38,6,6.538
-20,7,6.539
-10,3,6.54
-5,-4,6.541
2,-10,6.542
10,-9,6.543
19,-7,6.544
36,-10,6.545
62,-16,6.546
83,-24,6.547
93,-30,6.548
99,-33,6.549
111,-30,6.55
130,-25,6.551
154,-19,6.552
178,-20,6.553
194,-21,6.554
197,-15,6.555
197,-5,6.556
207,2,6.557
229,4,6.558
247,0,6.559
252,-8,6.56
244,-16,6.561
239,-23,6.562
242,-20,6.563
254,-14,6.564
264,-9,6.565
263,-4,6.566
253,3,6.567
245,10,6.568
240,15,6.569
235,20,6.57
232,23,6.571
235,24,6.572
238,27,6.573
232,30,6.574
213,32,6.575
189,27,6.576
167,14,6.577
150,0,6.578
130,-17,6.579
98,-29,6.58
54,-29,6.581
9,-25,6.582
-18,-18,6.583
-28,-11,6.584
-35,0,6.585
-47,16,6.586
-58,27,6.587
-64,27,6.588
-67,25,6.589
-72,30,6.59
-75,34,6.591
-71,26,6.592
-71,11,6.593
-87,1,6.594
-112,-4,6.595
-133,-13,6.596
-146,-21,6.597
-151,-21,6.598
-151,-22,6.599
-144,-28,6.6
-145,-33,6.601
-167,-31,6.602
-202,-21,6.603
-220,-13,6.604
-211,-7,6.605
-196,4,6.606
-188,17,6.607
-181,22,6.608
-163,23,6.609
-147,43,6.61
-148,91,6.611
-159,135,6.612
-161,118,6.613
-152,29,6.614
-148,-77,6.615
-157,-136,6.616
-167,-135,6.617
-165,-106,6.618
-162,-76,6.619
-173,-40,6.62
-206,-2,6.621
-236,18,6.622
-231,18,6.623
-183,18,6.624
-120,29,6.625
-76,36,6.626
-55,27,6.627
-35,14,6.628
-8,9,6.629
8,6,6.63
6,-3,6.631
8,-11,6.632
28,-10,6.633
45,-4,6.634
40,0,6.635
35,1,6.636
50,1,6.637
73,3,6.638
74,4,6.639
55,9,6.64
38,13,6.641
27,8,6.642
9,5,6.643
-9,9,6.644
-16,16,6.645
-18,17,6.646
-23,13,6.647
-21,15,6.648
-4,23,6.649
18,23,6.65
30,12,6.651
44,-2,6.652
65,-9,6.653
70,-10,6.654
46,-11,6.655
19,-14,6.656
14,-13,6.657
20,-9,6.658
19,-6,6.659
16,-7,6.66
12,-8,6.661
-2,-9,6.662
-22,-7,6.663
-21,-6,6.664
6,-6,6.665
29,-2,6.666
24,1,6.667
14,4,6.668
20,4,6.669
32,6,6.67
39,8,6.671
39,8,6.672
39,6,6.673
34,6,6.674
27,7,6.675
28,6,6.676
32,1,6.677
27,0,6.678
12,-3,6.679
-4,-8,6.68
-17,-13,6.681
-28,-13,6.682
-32,-7,6.683
-19,-4,6.684
-1,-5,6.685
7,-7,6.686
14,-10,6.687
33,-11,6.688
58,-10,6.689
63,-6,6.69
43,-3,6.691
14,-4,6.692
-3,-7,6.693
-5,-5,6.694
7,0,6.695
33,2,6.696
58,3,6.697
77,5,6.698
84,6,6.699
88,5,6.7
82,3,6.701
67,2,6.702
36,4,6.703
-8,3,6.704
-49,3,6.705
-68,8,6.706
-57,10,6.707
-34,0,6.708
-19,-10,6.709
-8,-13,6.71
8,-11,6.711
30,-15,6.712
47,-23,6.713
59,-23,6.714
68,-13,6.715
71,-4,6.716
72,1,6.717
77,6,6.718
70,12,6.719
29,19,6.72
-37,28,6.721
-86,36,6.722
-92,44,6.723
-72,43,6.724
-49,35,6.725
-23,25,6.726
12,13,6.727
44,-5,6.728
49,-25,6.729
25,-32,6.73
-9,-32,6.731
-34,-32,6.732
-40,-31,6.733
-19,-22,6.734
17,-11,6.735
41,-5,6.736
38,-6,6.737
21,-8,6.738
9,-10,6.739
5,-14,6.74
-3,-16,6.741
-16,-14,6.742
-24,-12,6.743
-16,-10,6.744
-1,-7,6.745
10,0,6.746
16,6,6.747
22,7,6.748
26,8,6.749
29,6,6.75
37,4,6.751
52,6,6.752
61,8,6.753
56,8,6.754
46,6,6.755
38,3,6.756
31,0,6.757
10,-1,6.758
-18,-3,6.759
-38,-2,6.76
-56,-4,6.761
-71,-12,6.762
-81,-16,6.763
-74,-8,6.764
-63,22,6.765
-45,74,6.766
-27,118,6.767
-11,109,6.768
6,30,6.769
26,-69,6.77
43,-119,6.771
53,-103,6.772
62,-63,6.773
61,-33,6.774
57,-9,6.775
45,13,6.776
32,18,6.777
19,1,6.778
6,-14,6.779
-6,-12,6.78
-18,-8,6.781
-30,-19,6.782
-39,-27,6.783
-33,-21,6.784
-17,-13,6.785
-2,-11,6.786
1,-7,6.787
6,6,6.788
14,12,6.789
23,6,6.79
30,4,6.791
38,12,6.792
48,17,6.793
54,11,6.794
52,4,6.795
47,7,6.796
43,10,6.797
33,10,6.798
-21,7,6.799
5,7,6.8
13,7,6.801
-29,2,6.802
-56,-2,6.803
-23,0,6.804
1,1,6.805
-3,0,6.806
-5,-1,6.807
6,0,6.808
13,7,6.809
9,23,6.81
9,37,6.811
25,41,6.812
39,41,6.813
43,25,6.814
44,12,6.815
33,10,6.816
21,8,6.817
9,6,6.818
-8,5,6.819
5,8,6.82
10,10,6.821
-12,5,6.822
-26,2,6.823
-9,-2,6.824
3,-10,6.825
1,-14,6.826
0,-14,6.827
6,-11,6.828
10,-12,6.829
8,-15,6.83
8,-18,6.831
16,-18,6.832
23,-18,6.833
25,-17,6.834
26,-14,6.835
20,-11,6.836
14,-6,6.837
8,4,6.838
5,11,6.839
6,9,6.84
-7,-2,6.841
-22,-16,6.842
-20,-18,6.843
0,-16,6.844
14,-16,6.845
8,-14,6.846
-3,-10,6.847
-5,-7,6.848
-6,-10,6.849
-11,-11,6.85
-13,-4,6.851
-5,5,6.852
8,5,6.853
14,1,6.854
14,5,6.855
10,13,6.856
8,16,6.857
11,15,6.858
11,12,6.859
5,9,6.86
-11,5,6.861
-22,0,6.862
-21,0,6.863
-14,0,6.864
-15,-3,6.865
-29,-7,6.866
-43,-8,6.867
-40,0,6.868
-23,28,6.869
-2,80,6.87
13,126,6.871
20,109,6.872
20,21,6.873
17,-75,6.874
13,-111,6.875
9,-85,6.876
0,-50,6.877
-9,-31,6.878
-18,-21,6.879
-19,-15,6.88
-14,-21,6.881
-11,-34,6.882
-6,-27,6.883
11,-8,6.884
31,2,6.885
40,7,6.886
32,21,6.887
27,37,6.888
33,36,6.889
40,16,6.89
38,-3,6.891
38,-12,6.892
44,-19,6.893
45,-28,6.894
33,-33,6.895
22,-30,6.896
23,-26,6.897
27,-17,6.898
17,-12,6.899
-1,-8,6.9
-11,-8,6.901
-10,-9,6.902
-1,-3,6.903
17,3,6.904
38,8,6.905
43,17,6.906
28,34,6.907
10,51,6.908
-1,55,6.909
-10,43,6.91
-19,26,6.911
-19,7,6.912
-15,-6,6.913
-19,-10,6.914
-26,-4,6.915
-19,7,6.916
1,20,6.917
18,30,6.918
20,28,6.919
13,15,6.92
-5,-2,6.921
-27,-14,6.922
-35,-17,6.923
-19,-18,6.924
2,-20,6.925
3,-16,6.926
-11,-9,6.927
-16,-6,6.928
-7,-5,6.929
-3,-3,6.93
-4,2,6.931
6,4,6.932
24,0,6.933
33,1,6.934
26,8,6.935
15,10,6.936
11,0,6.937
8,-9,6.938
-3,-13,6.939
-19,-11,6.94
-36,-11,6.941
-45,-17,6.942
-43,-14,6.943
-31,-6,6.944
-15,0,6.945
-4,2,6.946
2,1,6.947
7,0,6.948
12,0,6.949
15,1,6.95
21,2,6.951
33,0,6.952
44,-3,6.953
44,-3,6.954
31,0,6.955
14,3,6.956
-1,2,6.957
-13,4,6.958
-23,5,6.959
-26,5,6.96
-24,0,6.961
-19,-2,6.962
-8,1,6.963
10,5,6.964
21,3,6.965
9,-1,6.966
-14,-5,6.967
-18,-9,6.968
-2,-13,6.969
10,-14,6.97
9,-7,6.971
15,-3,6.972
44,-2,6.973
72,0,6.974
73,13,6.975
49,33,6.976
21,44,6.977
-6,38,6.978
-50,17,6.979
-97,0,6.98
-112,10,6.981
-80,50,6.982
-32,100,6.983
-3,112,6.984
-1,48,6.985
-13,-60,6.986
-21,-139,6.987
-12,-150,6.988
13,-124,6.989
39,-102,6.99
38,-89,6.991
11,-71,6.992
-12,-55,6.993
-12,-47,6.994
-1,-37,6.995
3,-17,6.996
2,2,6.997
7,12,6.998
22,22,6.999
31,40,7.0
24,53,7.001
4,47,7.002
-23,34,7.003
-48,31,7.004
-64,36,7.005
-70,40,7.006
-63,37,7.007
-36,34,7.008
7,32,7.009
50,32,7.01
77,34,7.011
90,31,7.012
93,18,7.013
86,6,7.014
70,4,7.015
56,6,7.016
51,3,7.017
48,-3,7.018
30,-7,7.019
4,-8,7.02
-23,-9,7.021
-47,-13,7.022
-63,-12,7.023
-67,-9,7.024
-65,-8,7.025
-69,-6,7.026
-76,-1,7.027
-53,0,7.028
4,-3,7.029
55,-6,7.03
63,-6,7.031
47,-6,7.032
40,-13,7.033
45,-18,7.034
38,-16,7.035
21,-11,7.036
15,-12,7.037
22,-10,7.038
21,-7,7.039
13,-1,7.04
11,3,7.041
21,4,7.042
26,7,7.043
18,9,7.044
7,10,7.045
-2,19,7.046
-14,24,7.047
-23,22,7.048
-24,11,7.049
-19,2,7.05
-15,0,7.051
-9,-1,7.052
7,-4,7.053
25,-7,7.054
21,-6,7.055
-2,-7,7.056
-22,-9,7.057
-21,-8,7.058
-12,-8,7.059
-6,-4,7.06
-14,-1,7.061
-26,-6,7.062
-26,-9,7.063
-5,-10,7.064
24,-9,7.065
36,-7,7.066
31,-6,7.067
30,-7,7.068
37,-10,7.069
33,-11,7.07
0,-9,7.071
-44,-7,7.072
-83,-8,7.073
-104,-10,7.074
-105,-11,7.075
-83,-9,7.076
-58,-6,7.077
-43,-2,7.078
-33,4,7.079
-19,15,7.08
-8,26,7.081
-18,30,7.082
-33,33,7.083
-21,37,7.084
16,40,7.085
43,37,7.086
44,29,7.087
42,24,7.088
58,22,7.089
83,17,7.09
101,6,7.091
109,-11,7.092
104,-24,7.093
82,-32,7.094
49,-40,7.095
19,-47,7.096
-2,-54,7.097
-18,-54,7.098
-36,-53,7.099
-42,-46,7.1
-34,-35,7.101
-20,-21,7.102
-12,-2,7.103
-8,19,7.104
-3,36,7.105
1,46,7.106
3,52,7.107
6,49,7.108
15,37,7.109
25,23,7.11
30,14,7.111
31,9,7.112
26,6,7.113
20,6,7.114
10,12,7.115
-1,16,7.116
-9,9,7.117
-14,-1,7.118
-21,-11,7.119
-31,-19,7.12
-40,-30,7.121
-35,-45,7.122
-13,-52,7.123
14,-49,7.124
32,-43,7.125
38,-35,7.126
40,-26,7.127
44,-14,7.128
48,-10,7.129
48,-10,7.13
46,-9,7.131
36,-2,7.132
14,5,7.133
-10,6,7.134
-18,6,7.135
-7,8,7.136
8,13,7.137
17,18,7.138
26,18,7.139
42,15,7.14
46,12,7.141
27,9,7.142
-3,6,7.143
-19,8,7.144
-19,10,7.145
-31,8,7.146
-56,7,7.147
-65,8,7.148
-44,8,7.149
-3,3,7.15
38,-1,7.151
68,-1,7.152
66,0,7.153
26,1,7.154
-17,3,7.155
-26,7,7.156
-8,10,7.157
1,9,7.158
-13,6,7.159
-23,0,7.16
-14,-4,7.161
0,-8,7.162
0,-4,7.163
0,0,7.164
7,1,7.165
13,1,7.166
9,1,7.167
7,1,7.168
12,0,7.169
17,0,7.17
15,2,7.171
11,3,7.172
8,2,7.173
0,1,7.174
-5,0,7.175
-8,0,7.176
-10,-2,7.177
-17,-1,7.178
-24,-1,7.179
-20,-3,7.18
-10,-6,7.181
-6,-10,7.182
-13,-9,7.183
-22,-5,7.184
-28,-1,7.185
-29,2,7.186
-23,7,7.187
-15,13,7.188
-3,17,7.189
2,25,7.19
8,43,7.191
10,81,7.192
10,112,7.193
3,85,7.194
-7,-11,7.195
-12,-115,7.196
-10,-147,7.197
-9,-109,7.198
-14,-60,7.199
-18,-36,7.2
-19,-24,7.201
-13,-6,7.202
-2,3,7.203
11,-3,7.204
21,-6,7.205
25,2,7.206
23,8,7.207
21,-1,7.208
26,-6,7.209
33,0,7.21
38,7,7.211
38,1,7.212
36,-2,7.213
34,2,7.214
28,6,7.215
17,1,7.216
7,-4,7.217
4,1,7.218
1,3,7.219
-3,0,7.22
-12,-5,7.221
-14,-7,7.222
-6,-4,7.223
4,-1,7.224
13,4,7.225
18,11,7.226
21,12,7.227
29,6,7.228
39,3,7.229
48,7,7.23
58,14,7.231
62,20,7.232
56,25,7.233
38,29,7.234
7,27,7.235
-33,18,7.236
-71,9,7.237
-89,6,7.238
-84,16,7.239
-67,16,7.24
-63,16,7.241
-73,5,7.242
-75,-1,7.243
-50,5,7.244
-11,11,7.245
10,14,7.246
6,18,7.247
0,11,7.248
10,2,7.249
25,-3,7.25
31,-8,7.251
32,-8,7.252
33,-7,7.253
30,-7,7.254
19,-7,7.255
4,-7,7.256
-6,-5,7.257
-7,-7,7.258
-1,10,7.259
-5,10,7.26
-11,10,7.261
-18,4,7.262
-18,0,7.263
2,4,7.264
14,7,7.265
9,9,7.266
8,11,7.267
18,7,7.268
28,2,7.269
37,-1,7.27
47,-4,7.271
57,-4,7.272
64,-3,7.273
57,-3,7.274
43,-3,7.275
7,-3,7.276
-21,-2,7.277
-26,-3,7.278
-4,-4,7.279
-9,-4,7.28
-16,-3,7.281
-24,-6,7.282
-24,-5,7.283
-1,-5,7.284
14,-7,7.285
8,-9,7.286
6,-7,7.287
19,-5,7.288
31,-5,7.289
41,-5,7.29
53,-2,7.291
65,0,7.292
73,-3,7.293
65,-7,7.294
48,-5,7.295
5,-1,7.296
-28,0,7.297
-33,0,7.298
-40,-1,7.299
-65,0,7.3
-86,1,7.301
-74,-3,7.302
-37,-5,7.303
-9,0,7.304
-7,5,7.305
-15,6,7.306
-13,8,7.307
3,9,7.308
24,11,7.309
38,9,7.31
39,8,7.311
29,8,7.312
25,5,7.313
27,0,7.314
20,-7,7.315
0,-12,7.316
-18,-17,7.317
-21,-25,7.318
-20,-31,7.319
-26,-26,7.32
-31,-18,7.321
-28,-16,7.322
-22,-10,7.323
-4,0,7.324
12,14,7.325
24,25,7.326
38,30,7.327
55,30,7.328
69,26,7.329
69,19,7.33
64,15,7.331
40,14,7.332
19,12,7.333
9,12,7.334
-4,11,7.335
-32,7,7.336
-52,-2,7.337
-50,-8,7.338
-40,-9,7.339
-19,-7,7.34
-17,-9,7.341
-27,-15,7.342
-36,-14,7.343
-27,-10,7.344
-3,-8,7.345
18,-9,7.346
22,-9,7.347
17,-10,7.348
24,-10,7.349
46,-9,7.35
58,-7,7.351
46,-8,7.352
29,-11,7.353
26,-12,7.354
29,-11,7.355
28,-11,7.356
31,-9,7.357
45,-3,7.358
44,-1,7.359
17,-2,7.36
-14,-6,7.361
-11,-7,7.362
14,1,7.363
20,9,7.364
-1,13,7.365
-14,17,7.366
1,20,7.367
20,21,7.368
13,22,7.369
-11,23,7.37
-28,23,7.371
-30,18,7.372
-22,9,7.373
-19,0,7.374
-22,-4,7.375
-22,-3,7.376
-13,-3,7.377
1,-2,7.378
7,-5,7.379
2,-7,7.38
-4,-8,7.381
-3,-11,7.382
3,-12,7.383
13,-14,7.384
26,-17,7.385
41,-19,7.386
47,-18,7.387
42,-12,7.388
35,-10,7.389
29,-11,7.39
17,-9,7.391
-3,-6,7.392
-29,0,7.393
-59,6,7.394
-83,11,7.395
-88,14,7.396
-72,18,7.397
-54,25,7.398
-54,26,7.399
-59,24,7.4
-46,19,7.401
-22,11,7.402
-13,9,7.403
-17,3,7.404
-16,-5,7.405
-3,-12,7.406
12,-14,7.407
33,-13,7.408
65,-11,7.409
96,-10,7.41
105,-5,7.411
95,-3,7.412
83,-7,7.413
70,-11,7.414
49,-10,7.415
30,-6,7.416
16,-5,7.417
-8,-7,7.418
-59,-10,7.419
-98,-9,7.42
-81,-6,7.421
-29,-9,7.422
-11,-11,7.423
-34,-7,7.424
-31,2,7.425
25,6,7.426
87,7,7.427
99,8,7.428
78,11,7.429
61,10,7.43
38,7,7.431
2,6,7.432
-19,7,7.433
2,9,7.434
33,12,7.435
31,12,7.436
0,8,7.437
-23,1,7.438
-37,-4,7.439
-50,-4,7.44
-55,0,7.441
-35,0,7.442
-1,-1,7.443
24,-4,7.444
37,-5,7.445
46,-2,7.446
51,3,7.447
44,1,7.448
33,-7,7.449
30,-10,7.45
27,-7,7.451
18,-4,7.452
7,-5,7.453
0,-8,7.454
-4,-5,7.455
-13,-3,7.456
-21,-5,7.457
-20,-6,7.458
-20,-5,7.459
-22,-4,7.46
-22,-4,7.461
-13,-10,7.462
2,-11,7.463
18,-11,7.464
31,-10,7.465
36,-8,7.466
34,-2,7.467
30,4,7.468
26,5,7.469
9,3,7.47
-25,1,7.471
-53,2,7.472
-48,2,7.473
-19,4,7.474
-3,6,7.475
-9,5,7.476
-16,2,7.477
-18,0,7.478
-31,-4,7.479
-54,-7,7.48
-63,-7,7.481
-55,-11,7.482
-60,-9,7.483
-67,-4,7.484
-36,2,7.485
24,8,7.486
59,9,7.487
46,10,7.488
27,11,7.489
35,11,7.49
44,12,7.491
31,14,7.492
18,16,7.493
22,17,7.494
23,15,7.495
8,9,7.496
-8,3,7.497
-6,-2,7.498
-3,-5,7.499
-10,-5,7.5
-18,-6,7.501
-15,-7,7.502
-9,-4,7.503
-3,3,7.504
10,10,7.505
29,14,7.506
35,14,7.507
27,12,7.508
23,9,7.509
25,2,7.51
21,-4,7.511
9,-8,7.512
-4,-10,7.513
-12,-9,7.514
-20,-8,7.515
-26,-9,7.516
-31,-12,7.517
-34,-10,7.518
-39,-9,7.519
-41,-8,7.52
-31,-13,7.521
-18,-17,7.522
-6,-16,7.523
2,-12,7.524
15,-11,7.525
26,-10,7.526
31,-6,7.527
33,-3,7.528
36,-3,7.529
36,-6,7.53
30,-6,7.531
25,-5,7.532
23,-5,7.533
17,-4,7.534
2,-1,7.535
-9,0,7.536
-10,-2,7.537
-7,-3,7.538
-32,-1,7.539
-35,2,7.54
-38,2,7.541
-38,-5,7.542
-32,-7,7.543
-14,-2,7.544
0,5,7.545
-1,12,7.546
-1,21,7.547
4,30,7.548
10,29,7.549
16,16,7.55
19,0,7.551
13,-11,7.552
7,-20,7.553
2,-27,7.554
-3,-34,7.555
-7,-33,7.556
-12,-23,7.557
-17,-10,7.558
-35,1,7.559
-38,9,7.56
-41,13,7.561
-41,15,7.562
-35,28,7.563
-15,44,7.564
1,53,7.565
0,46,7.566
0,30,7.567
5,13,7.568
12,3,7.569
18,-5,7.57
22,-9,7.571
15,-11,7.572
9,-14,7.573
3,-18,7.574
-2,-21,7.575
-7,-21,7.576
-13,-19,7.577
-18,-17,7.578
-23,-16,7.579
-25,-12,7.58
-22,-9,7.581
-13,-11,7.582
-1,-14,7.583
14,-9,7.584
30,1,7.585
42,9,7.586
48,10,7.587
48,4,7.588
46,0,7.589
37,2,7.59
23,8,7.591
3,12,7.592
-12,12,7.593
-23,8,7.594
-32,5,7.595
-37,2,7.596
-31,-3,7.597
-15,-4,7.598
-6,-6,7.599
-10,-7,7.6
-17,-7,7.601
-15,-13,7.602
-4,-17,7.603
7,-19,7.604
16,-16,7.605
24,-10,7.606
32,-7,7.607
41,-6,7.608
49,-7,7.609
47,-5,7.61
32,2,7.611
17,11,7.612
13,18,7.613
5,25,7.614
-21,27,7.615
-51,24,7.616
-62,16,7.617
-58,13,7.618
-51,9,7.619
-32,6,7.62
5,3,7.621
40,-2,7.622
43,-4,7.623
26,-5,7.624
21,-6,7.625
30,-4,7.626
45,-3,7.627
65,-5,7.628
89,-7,7.629
94,-7,7.63
63,-5,7.631
16,0,7.632
-16,16,7.633
-37,49,7.634
-58,73,7.635
-71,47,7.636
-64,-25,7.637
-49,-90,7.638
-43,-102,7.639
-34,-69,7.64
-11,-41,7.641
8,-30,7.642
8,-18,7.643
7,-5,7.644
24,5,7.645
43,8,7.646
45,13,7.647
37,24,7.648
34,32,7.649
34,29,7.65
27,27,7.651
17,26,7.652
8,23,7.653
0,13,7.654
-10,6,7.655
-17,9,7.656
-17,11,7.657
-18,7,7.658
-26,3,7.659
-28,5,7.66
-30,5,7.661
-28,-4,7.662
-24,-10,7.663
-10,-12,7.664
4,-11,7.665
22,-9,7.666
38,-7,7.667
48,-6,7.668
57,-9,7.669
59,-8,7.67
51,-3,7.671
12,6,7.672
-20,6,7.673
-36,-2,7.674
-48,-10,7.675
-49,-16,7.676
-51,-21,7.677
-56,-30,7.678
-58,-42,7.679
-48,-46,7.68
-35,-40,7.681
-19,-35,7.682
0,-29,7.683
18,-18,7.684
28,-3,7.685
29,11,7.686
31,23,7.687
37,32,7.688
44,44,7.689
44,57,7.69
37,69,7.691
25,71,7.692
14,60,7.693
5,44,7.694
1,29,7.695
-3,13,7.696
-12,0,7.697
-18,-8,7.698
-19,-15,7.699
-16,-15,7.7
-8,-12,7.701
1,-15,7.702
16,-22,7.703
32,-28,7.704
44,-28,7.705
48,-23,7.706
49,-18,7.707
49,-16,7.708
56,-17,7.709
61,-17,7.71
52,-14,7.711
31,-11,7.712
12,-10,7.713
4,-8,7.714
-8,-6,7.715
-45,-3,7.716
-96,-2,7.717
-116,-2,7.718
-94,-1,7.719
-60,0,7.72
-51,0,7.721
-58,-4,7.722
-47,-3,7.723
-8,1,7.724
34,4,7.725
54,3,7.726
53,-1,7.727
47,-3,7.728
43,-4,7.729
36,-2,7.73
24,4,7.731
12,9,7.732
5,9,7.733
6,4,7.734
7,2,7.735
10,3,7.736
22,5,7.737
42,8,7.738
-24,6,7.739
-9,3,7.74
5,1,7.741
19,-3,7.742
31,-6,7.743
38,-7,7.744
41,-5,7.745
35,-3,7.746
29,1,7.747
25,1,7.748
17,1,7.749
-3,3,7.75
-24,4,7.751
-39,2,7.752
-53,0,7.753
-60,1,7.754
-60,5,7.755
-40,5,7.756
-16,1,7.757
13,0,7.758
-15,1,7.759
-6,2,7.76
2,2,7.761
10,-3,7.762
17,-7,7.763
21,-4,7.764
23,-1,7.765
19,3,7.766
16,6,7.767
14,3,7.768
9,1,7.769
-3,3,7.77
-15,4,7.771
-24,1,7.772
-33,-2,7.773
-37,-6,7.774
-37,-9,7.775
-25,-9,7.776
-11,-9,7.777
7,-7,7.778
-26,-5,7.779
-10,-4,7.78
6,-5,7.781
21,-9,7.782
34,-6,7.783
41,1,7.784
45,5,7.785
38,5,7.786
32,3,7.787
28,0,7.788
19,1,7.789
-4,4,7.79
-26,5,7.791
-42,1,7.792
-57,-3,7.793
-65,-1,7.794
-65,6,7.795
-43,11,7.796
-18,13,7.797
15,12,7.798
40,8,7.799
37,2,7.8
33,-4,7.801
36,-12,7.802
36,-17,7.803
35,-11,7.804
39,-5,7.805
42,3,7.806
35,7,7.807
26,1,7.808
24,-4,7.809
26,-2,7.81
21,-1,7.811
13,-2,7.812
8,-3,7.813
10,-6,7.814
11,-9,7.815
4,-10,7.816
-6,-10,7.817
-23,-6,7.818
-51,0,7.819
-79,-1,7.82
-82,-6,7.821
-10,-13,7.822
52,-12,7.823
84,-3,7.824
100,6,7.825
67,9,7.826
35,11,7.827
13,11,7.828
-16,7,7.829
-70,-1,7.83
-111,-5,7.831
-108,-7,7.832
-96,-8,7.833
-57,-10,7.834
-19,-8,7.835
6,-4,7.836
25,-1,7.837
25,2,7.838
-40,5,7.839
-59,11,7.84
-61,13,7.841
-11,5,7.842
32,-1,7.843
54,-3,7.844
65,0,7.845
42,4,7.846
20,3,7.847
5,-2,7.848
-16,-7,7.849
-53,-6,7.85
-81,-1,7.851
-79,2,7.852
-71,3,7.853
-44,3,7.854
-18,4,7.855
0,4,7.856
13,0,7.857
13,0,7.858
13,1,7.859
18,1,7.86
19,1,7.861
19,1,7.862
27,4,7.863
46,3,7.864
57,0,7.865
53,1,7.866
41,3,7.867
35,-1,7.868
34,-5,7.869
28,-3,7.87
16,2,7.871
2,2,7.872
-8,-1,7.873
-19,0,7.874
-27,5,7.875
-35,5,7.876
-35,0,7.877
-32,-3,7.878
-30,-3,7.879
-29,0,7.88
-24,1,7.881
-14,-1,7.882
-2,-1,7.883
7,0,7.884
16,-1,7.885
25,-2,7.886
28,-3,7.887
24,-7,7.888
19,-12,7.889
14,-15,7.89
3,-12,7.891
-13,-8,7.892
-27,-9,7.893
-29,-10,7.894
-24,-8,7.895
-19,-5,7.896
-16,-3,7.897
-12,-4,7.898
-6,-6,7.899
7,-4,7.9
20,-2,7.901
29,-1,7.902
33,2,7.903
38,3,7.904
43,2,7.905
42,2,7.906
32,9,7.907
25,16,7.908
25,16,7.909
20,9,7.91
5,8,7.911
-9,10,7.912
-14,16,7.913
-15,17,7.914
-20,14,7.915
-24,10,7.916
-22,4,7.917
-17,1,7.918
-18,-2,7.919
-20,-5,7.92
-15,-8,7.921
-4,-10,7.922
10,-9,7.923
25,-8,7.924
38,-7,7.925
42,-4,7.926
35,-4,7.927
32,-8,7.928
42,-16,7.929
45,-22,7.93
23,-20,7.931
-11,-13,7.932
-25,-6,7.933
-21,-3,7.934
-22,-4,7.935
-37,-6,7.936
-49,-5,7.937
-51,-1,7.938
-51,0,7.939
-49,-2,7.94
-30,0,7.941
10,0,7.942
50,0,7.943
72,-1,7.944
77,0,7.945
69,0,7.946
38,2,7.947
-13,1,7.948
-54,1,7.949
-49,4,7.95
1,7,7.951
46,7,7.952
43,7,7.953
-2,5,7.954
-38,5,7.955
-39,4,7.956
-30,1,7.957
-35,0,7.958
-46,1,7.959
-39,1,7.96
-16,-2,7.961
5,-11,7.962
20,-16,7.963
37,-11,7.964
54,-2,7.965
57,5,7.966
44,5,7.967
29,0,7.968
18,-3,7.969
6,1,7.97
-10,7,7.971
-19,9,7.972
-21,1,7.973
-24,-6,7.974
-27,-5,7.975
-22,1,7.976
0,4,7.977
25,3,7.978
41,-1,7.979
56,0,7.98
69,0,7.981
72,-2,7.982
65,-3,7.983
66,-2,7.984
76,-1,7.985
75,1,7.986
42,3,7.987
-7,5,7.988
-45,4,7.989
-65,4,7.99
-79,4,7.991
-90,4,7.992
-87,1,7.993
-67,-3,7.994
-45,-3,7.995
-32,2,7.996
-21,4,7.997
-13,3,7.998
-7,0,7.999
-5,0,8.0
-1,-4,8.001
5,-13,8.002
11,-17,8.003
19,-10,8.004
33,0,8.005
43,4,8.006
37,0,8.007
25,0,8.008
27,2,8.009
40,2,8.01
47,0,8.011
37,-1,8.012
29,4,8.013
29,5,8.014
35,1,8.015
42,0,8.016
44,0,8.017
25,3,8.018
-23,-2,8.019
-80,-4,8.02
-113,-3,8.021
-108,-4,8.022
-75,-5,8.023
-36,-6,8.024
-6,-4,8.025
8,1,8.026
14,7,8.027
14,7,8.028
3,3,8.029
-10,-2,8.03
-8,-7,8.031
5,-8,8.032
8,-8,8.033
-1,-3,8.034
6,3,8.035
37,4,8.036
49,2,8.037
15,5,8.038
-39,6,8.039
-47,7,8.04
-1,4,8.041
48,-1,8.042
63,-2,8.043
64,-2,8.044
69,-4,8.045
62,-8,8.046
24,-7,8.047
-22,-6,8.048
-44,-4,8.049
-29,-2,8.05
6,0,8.051
32,3,8.052
25,1,8.053
-10,-4,8.054
-32,-8,8.055
-8,-8,8.056
38,-3,8.057
59,3,8.058
30,0,8.059
-27,-4,8.06
-80,-4,8.061
-110,-1,8.062
-103,5,8.063
-62,9,8.064
-24,10,8.065
-7,8,8.066
8,4,8.067
36,0,8.068
54,-1,8.069
43,1,8.07
26,2,8.071
35,-3,8.072
49,-7,8.073
38,-4,8.074
13,2,8.075
1,5,8.076
-3,3,8.077
-17,5,8.078
-34,6,8.079
-39,3,8.08
-38,-3,8.081
-32,-9,8.082
-11,-8,8.083
31,-3,8.084
67,0,8.085
68,2,8.086
47,3,8.087
25,0,8.088
8,-4,8.089
-8,-4,8.09
-18,2,8.091
-14,6,8.092
-4,3,8.093
2,-1,8.094
0,-4,8.095
-11,-6,8.096
-22,-11,8.097
-26,-13,8.098
-23,-13,8.099
-20,-7,8.1
-21,-1,8.101
-15,-4,8.102
13,-5,8.103
48,-3,8.104
66,0,8.105
61,3,8.106
55,6,8.107
65,8,8.108
79,8,8.109
72,2,8.11
34,-3,8.111
-16,-3,8.112
-54,0,8.113
-74,-1,8.114
-84,-4,8.115
-97,-7,8.116
-107,-3,8.117
-95,4,8.118
-58,8,8.119
-10,8,8.12
27,5,8.121
55,0,8.122
77,-3,8.123
74,-6,8.124
37,-6,8.125
-6,-6,8.126
-14,-5,8.127
8,-5,8.128
18,-3,8.129
5,2,8.13
1,8,8.131
12,7,8.132
17,5,8.133
6,3,8.134
3,1,8.135
20,-3,8.136
34,-6,8.137
31,-2,8.138
29,3,8.139
45,3,8.14
56,-3,8.141
22,-9,8.142
-52,-6,8.143
-107,0,8.144
-99,1,8.145
-44,-5,8.146
1,-11,8.147
8,-14,8.148
-1,-13,8.149
8,-6,8.15
28,7,8.151
30,20,8.152
9,21,8.153
-9,14,8.154
-8,8,8.155
2,6,8.156
15,9,8.157
37,9,8.158
64,9,8.159
78,8,8.16
60,3,8.161
34,-8,8.162
19,-17,8.163
-2,-18,8.164
-51,-15,8.165
-105,-9,8.166
-107,-5,8.167
-57,-3,8.168
-4,-7,8.169
12,-11,8.17
0,-8,8.171
-17,0,8.172
-38,6,8.173
-55,1,8.174
-45,-2,8.175
1,2,8.176
52,6,8.177
73,4,8.178
55,0,8.179
30,3,8.18
20,6,8.181
26,-1,8.182
29,-7,8.183
22,-4,8.184
17,3,8.185
18,6,8.186
27,2,8.187
38,-2,8.188
41,-2,8.189
15,3,8.19
-37,9,8.191
-82,10,8.192
-80,1,8.193
-44,-11,8.194
-23,-15,8.195
-35,-9,8.196
-45,-2,8.197
-33,-1,8.198
-22,-8,8.199
-33,-14,8.2
-45,-17,8.201
-25,-14,8.202
10,-3,8.203
34,8,8.204
40,10,8.205
44,4,8.206
55,-1,8.207
66,-3,8.208
76,-5,8.209
75,-5,8.21
59,0,8.211
29,11,8.212
0,15,8.213
-19,10,8.214
-17,5,8.215
13,3,8.216
47,2,8.217
45,3,8.218
-1,3,8.219
-43,4,8.22
-42,2,8.221
-3,-5,8.222
33,-11,8.223
42,-10,8.224
28,0,8.225
8,9,8.226
4,9,8.227
20,1,8.228
35,-7,8.229
28,-8,8.23
9,-1,8.231
-2,6,8.232
0,5,8.233
3,-1,8.234
1,-4,8.235
-14,-3,8.236
-50,-1,8.237
-91,0,8.238
-108,2,8.239
-79,6,8.24
-31,6,8.241
5,-1,8.242
25,-9,8.243
36,-10,8.244
33,-11,8.245
12,-12,8.246
-4,-10,8.247
1,-3,8.248
5,3,8.249
-22,2,8.25
-64,0,8.251
-79,0,8.252
-62,0,8.253
-49,-2,8.254
-50,-4,8.255
-23,-2,8.256
56,1,8.257
135,4,8.258
144,4,8.259
62,2,8.26
-48,0,8.261
-109,-4,8.262
-106,-3,8.263
-57,0,8.264
15,3,8.265
96,3,8.266
152,2,8.267
153,-1,8.268
114,-4,8.269
72,-4,8.27
46,-4,8.271
30,-5,8.272
13,-10,8.273
-13,-17,8.274
-44,-19,8.275
-67,-17,8.276
-58,-16,8.277
-21,-15,8.278
18,-10,8.279
26,-4,8.28
0,0,8.281
-22,-1,8.282
-27,1,8.283
-29,8,8.284
-42,15,8.285
-55,22,8.286
-48,25,8.287
-26,28,8.288
-4,33,8.289
11,40,8.29
18,43,8.291
6,41,8.292
-20,34,8.293
-33,23,8.294
-14,9,8.295
16,-6,8.296
20,-17,8.297
9,-25,8.298
11,-29,8.299
34,-29,8.3
52,-24,8.301
57,-24,8.302
70,-24,8.303
106,-22,8.304
145,-14,8.305
164,-4,8.306
154,-2,8.307
103,-6,8.308
4,-10,8.309
-113,-12,8.31
-200,-13,8.311
-228,-9,8.312
-221,0,8.313
-218,11,8.314
-244,16,8.315
-277,10,8.316
-264,-3,8.317
-175,-12,8.318
-35,-15,8.319
81,-11,8.32
141,-6,8.321
188,-7,8.322
253,-8,8.323
303,-2,8.324
296,3,8.325
249,4,8.326
201,0,8.327
163,-3,8.328
114,-5,8.329
58,-8,8.33
10,-8,8.331
-26,-2,8.332
-66,2,8.333
-96,4,8.334
-92,5,8.335
-70,7,8.336
-73,10,8.337
-106,11,8.338
-119,10,8.339
-66,7,8.34
10,4,8.341
36,0,8.342
7,1,8.343
-13,1,8.344
-14,-2,8.345
-44,-5,8.346
-103,-2,8.347
-131,0,8.348
-107,-5,8.349
-69,-14,8.35
-34,-23,8.351
30,-28,8.352
109,-30,8.353
138,-29,8.354
102,-23,8.355
62,-15,8.356
47,-8,8.357
27,-3,8.358
-22,4,8.359
-60,12,8.36
-67,20,8.361
-76,25,8.362
-99,33,8.363
-98,40,8.364
-62,44,8.365
-37,47,8.366
-47,52,8.367
-49,58,8.368
3,54,8.369
81,43,8.37
125,25,8.371
120,6,8.372
98,-7,8.373
88,-14,8.374
86,-15,8.375
83,-19,8.376
79,-22,8.377
76,-19,8.378
68,-17,8.379
67,-18,8.38
80,-24,8.381
91,-30,8.382
76,-26,8.383
41,-22,8.384
15,-20,8.385
1,-16,8.386
-36,-11,8.387
-120,-6,8.388
-207,-9,8.389
-231,-12,8.39
-186,-10,8.391
-125,-6,8.392
-84,-5,8.393
-47,-11,8.394
0,-20,8.395
39,-26,8.396
44,-26,8.397
33,-22,8.398
34,-18,8.399
53,-15,8.4
67,-15,8.401
63,-18,8.402
52,-15,8.403
39,-5,8.404
13,1,8.405
-19,4,8.406
-16,4,8.407
47,7,8.408
129,13,8.409
155,21,8.41
97,31,8.411
1,43,8.412
-75,56,8.413
-118,58,8.414
-135,50,8.415
-115,31,8.416
-58,12,8.417
9,0,8.418
68,-11,8.419
112,-24,8.42
133,-32,8.421
117,-33,8.422
73,-24,8.423
33,-18,8.424
6,-16,8.425
-36,-9,8.426
-104,2,8.427
-158,10,8.428
-161,14,8.429
-119,22,8.43
-65,34,8.431
-41,44,8.432
-61,50,8.433
-96,56,8.434
-94,59,8.435
-33,49,8.436
42,22,8.437
82,-8,8.438
94,-36,8.439
102,-53,8.44
106,-59,8.441
96,-65,8.442
88,-65,8.443
100,-63,8.444
123,-55,8.445
140,-43,8.446
156,-25,8.447
170,-8,8.448
156,3,8.449
111,6,8.45
62,3,8.451
30,-3,8.452
-11,-6,8.453
-69,-2,8.454
-113,8,8.455
-119,19,8.456
-113,27,8.457
-127,31,8.458
-155,31,8.459
-176,28,8.46
-191,19,8.461
-187,5,8.462
-166,-6,8.463
-99,-11,8.464
-36,-5,8.465
15,12,8.466
62,30,8.467
96,32,8.468
117,20,8.469
93,8,8.47
70,9,8.471
52,18,8.472
18,23,8.473
-62,23,8.474
-130,26,8.475
-164,31,8.476
-176,36,8.477
-121,41,8.478
-63,43,8.479
14,36,8.48
122,15,8.481
226,-13,8.482
259,-30,8.483
214,-38,8.484
151,-44,8.485
107,-56,8.486
62,-68,8.487
6,-76,8.488
-20,-79,8.489
1,-74,8.49
36,-62,8.491
41,-47,8.492
15,-41,8.493
-34,-33,8.494
-95,-16,8.495
-136,3,8.496
-125,16,8.497
-75,25,8.498
-18,33,8.499
42,42,8.5
113,42,8.501
161,32,8.502
133,24,8.503
36,14,8.504
-68,-6,8.505
-148,-35,8.506
-199,-56,8.507
-196,-65,8.508
-111,-63,8.509
6,-53,8.51
72,-38,8.511
75,-26,8.512
80,-19,8.513
114,-9,8.514
122,4,8.515
65,10,8.516
-4,6,8.517
-11,10,8.518
47,31,8.519
121,57,8.52
146,76,8.521
99,70,8.522
0,65,8.523
-106,59,8.524
-190,56,8.525
-258,63,8.526
-304,71,8.527
-270,81,8.528
-129,84,8.529
31,62,8.53
88,41,8.531
52,22,8.532
24,4,8.533
40,-8,8.534
40,-19,8.535
1,-29,8.536
-13,-37,8.537
31,-37,8.538
-127,-39,8.539
-120,-53,8.54
-86,-61,8.541
29,-55,8.542
101,-42,8.543
33,-41,8.544
-32,-44,8.545
-91,-41,8.546
-129,-29,8.547
-100,-17,8.548
-80,-12,8.549
-90,-17,8.55
-90,-33,8.551
-56,-53,8.552
-29,-55,8.553
-23,-27,8.554
-12,21,8.555
16,67,8.556
44,85,8.557
71,65,8.558
-171,26,8.559
-161,20,8.56
-110,64,8.561
63,105,8.562
170,89,8.563
69,39,8.564
-29,12,8.565
-118,12,8.566
-175,6,8.567
-131,13,8.568
-101,78,8.569
-117,168,8.57
-116,182,8.571
-65,76,8.572
-24,-68,8.573
-15,-153,8.574
2,-169,8.575
43,-168,8.576
85,-166,8.577
126,-145,8.578
164,-89,8.579
168,-14,8.58
127,46,8.581
58,43,8.582
4,-43,8.583
-4,-169,8.584
23,-244,8.585
50,-228,8.586
56,-175,8.587
43,-142,8.588
30,-117,8.589
22,-66,8.59
11,1,8.591
-3,51,8.592
-3,99,8.593
14,168,8.594
17,244,8.595
-15,284,8.596
-62,288,8.597
-77,278,8.598
-62,244,8.599
-52,155,8.6
-70,19,8.601
-78,-101,8.602
-45,-144,8.603
1,-128,8.604
3,-101,8.605
-37,-82,8.606
-49,-56,8.607
11,-13,8.608
88,32,8.609
100,62,8.61
56,71,8.611
29,63,8.612
46,57,8.613
58,60,8.614
36,42,8.615
13,-39,8.616
12,-157,8.617
15,-220,8.618
38,-175,8.619
71,-60,8.62
93,21,8.621
78,19,8.622
64,-24,8.623
52,-50,8.624
48,-45,8.625
68,-28,8.626
82,-17,8.627
76,-15,8.628
59,-10,8.629
14,10,8.63
-16,44,8.631
2,70,8.632
16,69,8.633
19,53,8.634
19,47,8.635
6,56,8.636
-8,60,8.637
-22,52,8.638
39,31,8.639
79,-5,8.64
105,-64,8.641
87,-126,8.642
70,-138,8.643
56,-86,8.644
51,10,8.645
75,106,8.646
92,147,8.647
84,96,8.648
64,-12,8.649
8,-85,8.65
-28,-77,8.651
-6,-34,8.652
11,0,8.653
15,41,8.654
15,97,8.655
-1,125,8.656
-18,95,8.657
-35,63,8.658
-56,67,8.659
-81,84,8.66
-82,88,8.661
-57,46,8.662
-25,12,8.663
-8,0,8.664
-18,-7,8.665
-40,1,8.666
-46,15,8.667
-20,44,8.668
12,49,8.669
22,-20,8.67
16,-75,8.671
25,-81,8.672
63,-97,8.673
101,-143,8.674
112,-187,8.675
97,-223,8.676
71,-245,8.677
47,-223,8.678
21,-190,8.679
-15,-100,8.68
-51,54,8.681
-89,288,8.682
-106,538,8.683
-59,611,8.684
-19,371,8.685
0,-45,8.686
12,-331,8.687
2,-337,8.688
-7,-188,8.689
-15,-23,8.69
-29,167,8.691
-62,386,8.692
-86,476,8.693
-82,285,8.694
-68,-87,8.695
-24,-388,8.696
15,-491,8.697
39,-473,8.698
68,-431,8.699
101,-387,8.7
96,-334,8.701
49,-274,8.702
9,-189,8.703
7,-53,8.704
15,95,8.705
-4,153,8.706
-27,72,8.707
-5,-54,8.708
69,-99,8.709
131,-38,8.71
129,57,8.711
72,137,8.712
8,225,8.713
-31,331,8.714
-58,407,8.715
-82,404,8.716
-86,327,8.717
-61,235,8.718
-32,152,8.719
-25,92,8.72
-19,59,8.721
-19,53,8.722
-8,61,8.723
30,29,8.724
65,-61,8.725
85,-146,8.726
98,-165,8.727
92,-157,8.728
86,-197,8.729
78,-252,8.73
61,-223,8.731
18,-96,8.732
-19,33,8.733
-35,113,8.734
-50,170,8.735
-63,216,8.736
-69,206,8.737
-49,134,8.738
-27,36,8.739
-13,-20,8.74
-26,-20,8.741
-55,-9,8.742
-68,-29,8.743
-37,-72,8.744
20,-71,8.745
39,-13,8.746
-14,11,8.747
-84,-71,8.748
-96,-153,8.749
-54,-66,8.75
-18,153,8.751
-8,272,8.752
18,161,8.753
77,-36,8.754
129,-117,8.755
136,-74,8.756
109,-42,8.757
72,-65,8.758
26,-19,8.759
-17,160,8.76
-32,282,8.761
-13,230,8.762
12,104,8.763
18,-244,8.764
4,-508,8.765
-25,-521,8.766
-64,-514,8.767
-84,-447,8.768
-65,-358,8.769
-45,-208,8.77
-74,-92,8.771
-125,-80,8.772
-123,-60,8.773
-55,-16,8.774
11,19,8.775
25,31,8.776
18,50,8.777
28,94,8.778
13,139,8.779
18,167,8.78
23,176,8.781
23,208,8.782
25,253,8.783
29,271,8.784
36,283,8.785
46,365,8.786
50,572,8.787
34,870,8.788
16,1089,8.789
-3,979,8.79
-18,458,8.791
-15,-225,8.792
-19,-698,8.793
-53,-842,8.794
-70,-840,8.795
-34,-824,8.796
-3,-736,8.797
15,-545,8.798
23,-323,8.799
35,-225,8.8
45,-157,8.801
45,-66,8.802
50,-10,8.803
60,-21,8.804
74,-19,8.805
97,40,8.806
107,95,8.807
70,110,8.808
31,130,8.809
-13,174,8.81
-48,184,8.811
-40,145,8.812
-50,120,8.813
-126,161,8.814
-162,240,8.815
-83,325,8.816
-13,412,8.817
27,487,8.818
14,484,8.819
20,342,8.82
25,73,8.821
25,-198,8.822
27,-310,8.823
32,-230,8.824
39,-90,8.825
50,-40,8.826
55,-112,8.827
37,-233,8.828
18,-340,8.829
-4,-410,8.83
-21,-415,8.831
-17,-356,8.832
-22,-275,8.833
-59,-192,8.834
-77,-42,8.835
-38,220,8.836
-4,478,8.837
16,538,8.838
17,335,8.839
-42,40,8.84
-53,-137,8.841
-9,-175,8.842
24,-174,8.843
15,-166,8.844
8,-89,8.845
26,43,8.846
43,117,8.847
31,91,8.848
12,43,8.849
8,30,8.85
9,-9,8.851
4,-108,8.852
10,-181,8.853
28,-156,8.854
35,-87,8.855
21,-57,8.856
10,-59,8.857
10,-41,8.858
-3,-12,8.859
-23,6,8.86
-31,0,8.861
-29,-3,8.862
-34,16,8.863
-38,50,8.864
-19,100,8.865
13,162,8.866
27,204,8.867
15,200,8.868
-1,176,8.869
-2,197,8.87
0,294,8.871
-5,418,8.872
-12,475,8.873
-16,412,8.874
-16,295,8.875
-14,238,8.876
-12,225,8.877
-5,115,8.878
0,-220,8.879
8,-509,8.88
12,-695,8.881
17,-569,8.882
24,-470,8.883
36,-456,8.884
43,-458,8.885
34,-514,8.886
15,-533,8.887
-2,-440,8.888
-5,-310,8.889
-5,-70,8.89
-6,160,8.891
-11,357,8.892
-14,516,8.893
-16,556,8.894
-8,540,8.895
12,355,8.896
31,159,8.897
37,-67,8.898
30,-269,8.899
26,-328,8.9
19,-277,8.901
5,-180,8.902
-2,-72,8.903
11,49,8.904
21,181,8.905
19,312,8.906
12,440,8.907
-7,564,8.908
-23,635,8.909
-29,589,8.91
-33,415,8.911
-29,166,8.912
-25,-96,8.913
-27,-319,8.914
-27,-444,8.915
-20,-431,8.916
-12,-315,8.917
-6,-191,8.918
-1,-130,8.919
0,-142,8.92
10,-161,8.921
22,-202,8.922
25,-213,8.923
21,-133,8.924
15,-35,8.925
11,110,8.926
13,247,8.927
14,357,8.928
3,405,8.929
-15,262,8.93
-21,104,8.931
-10,-97,8.932
-2,-295,8.933
-8,-475,8.934
-6,-589,8.935
18,-504,8.936
46,-390,8.937
62,-192,8.938
63,43,8.939
60,387,8.94
43,530,8.941
15,308,8.942
-2,-77,8.943
5,-308,8.944
16,-302,8.945
1,-203,8.946
-25,-108,8.947
-36,-11,8.948
-31,65,8.949
-28,77,8.95
-34,58,8.951
-33,75,8.952
-24,120,8.953
-18,143,8.954
-13,154,8.955
1,185,8.956
15,211,8.957
19,213,8.958
14,209,8.959
14,234,8.96
17,268,8.961
9,283,8.962
-10,304,8.963
-20,312,8.964
-10,226,8.965
-1,15,8.966
-2,-230,8.967
-4,-401,8.968
1,-469,8.969
11,-455,8.97
14,-370,8.971
11,-246,8.972
4,-143,8.973
-4,-94,8.974
-8,-69,8.975
-3,-37,8.976
3,-1,8.977
9,33,8.978
10,78,8.979
16,130,8.98
21,156,8.981
19,134,8.982
19,108,8.983
27,128,8.984
31,204,8.985
24,284,8.986
17,286,8.987
11,182,8.988
6,39,8.989
5,-41,8.99
4,-33,8.991
4,-22,8.992
3,-81,8.993
5,-176,8.994
7,-235,8.995
7,-245,8.996
9,-247,8.997
13,-249,8.998
17,-226,8.999
20,-162,9.0
21,-86,9.001
21,-17,9.002
22,62,9.003
30,151,9.004
37,202,9.005
34,170,9.006
26,74,9.007
17,-18,9.008
9,-51,9.009
1,-16,9.01
-2,49,9.011
-4,85,9.012
-5,47,9.013
-3,-57,9.014
5,-166,9.015
16,-219,9.016
21,-212,9.017
21,-182,9.018
21,-146,9.019
21,-104,9.02
19,-45,9.021
15,45,9.022
13,187,9.023
17,328,9.024
18,342,9.025
8,173,9.026
0,-53,9.027
-3,-159,9.028
-7,-116,9.029
-12,-40,9.03
-14,-13,9.031
-6,-16,9.032
0,-22,9.033
3,-47,9.034
7,-78,9.035
13,-74,9.036
18,-24,9.037
19,34,9.038
21,90,9.039
21,145,9.04
20,191,9.041
21,187,9.042
30,137,9.043
42,63,9.044
40,-21,9.045
21,-117,9.046
-2,-192,9.047
-13,-201,9.048
-11,-137,9.049
-4,-49,9.05
8,0,9.051
29,-11,9.052
48,-56,9.053
53,-86,9.054
54,-95,9.055
59,-96,9.056
55,-93,9.057
29,-62,9.058
-18,6,9.059
-56,69,9.06
-76,85,9.061
-83,78,9.062
-73,105,9.063
-44,160,9.064
-12,179,9.065
-2,139,9.066
-8,65,9.067
-3,0,9.068
11,-40,9.069
13,-50,9.07
5,-38,9.071
5,0,9.072
19,77,9.073
22,205,9.074
13,337,9.075
7,365,9.076
18,228,9.077
26,17,9.078
21,-138,9.079
15,-195,9.08
17,-246,9.081
23,-278,9.082
29,-293,9.083
33,-255,9.084
31,-220,9.085
15,-195,9.086
-9,-158,9.087
-22,-84,9.088
-20,-20,9.089
-20,13,9.09
-31,57,9.091
-37,132,9.092
-30,207,9.093
-22,281,9.094
-19,323,9.095
-22,266,9.096
-22,199,9.097
-19,102,9.098
-14,8,9.099
-1,-72,9.1
9,-151,9.101
9,-218,9.102
9,-240,9.103
15,-222,9.104
18,-190,9.105
6,-157,9.106
-5,-115,9.107
-15,-61,9.108
-26,-10,9.109
-34,40,9.11
-41,116,9.111
-41,210,9.112
-39,270,9.113
-35,251,9.114
-30,168,9.115
-24,61,9.116
-16,-40,9.117
-6,-110,9.118
3,-134,9.119
6,-103,9.12
10,-49,9.121
12,-11,9.122
11,13,9.123
12,40,9.124
17,67,9.125
12,79,9.126
-6,78,9.127
-28,76,9.128
-43,80,9.129
-49,83,9.13
-54,87,9.131
-54,90,9.132
-50,88,9.133
-44,82,9.134
-40,77,9.135
-37,69,9.136
-28,55,9.137
-18,37,9.138
-12,19,9.139
-10,8,9.14
-12,7,9.141
-12,26,9.142
-3,111,9.143
10,282,9.144
10,467,9.145
-10,520,9.146
-34,351,9.147
-41,44,9.148
-38,-221,9.149
-46,-360,9.15
-68,-425,9.151
-78,-479,9.152
-68,-493,9.153
-52,-433,9.154
-44,-339,9.155
-40,-262,9.156
-38,-185,9.157
-33,-91,9.158
-26,-2,9.159
-19,30,9.16
-21,23,9.161
-27,32,9.162
-22,75,9.163
2,115,9.164
20,128,9.165
12,131,9.166
-14,133,9.167
-29,129,9.168
-34,120,9.169
-41,119,9.17
-52,130,9.171
-57,140,9.172
-52,142,9.173
-40,136,9.174
-22,115,9.175
-8,76,9.176
-5,25,9.177
-11,-24,9.178
-15,-73,9.179
-9,-119,9.18
-5,-153,9.181
-6,-161,9.182
-8,-131,9.183
-9,-78,9.184
-12,-24,9.185
-19,17,9.186
-25,50,9.187
-25,71,9.188
-25,71,9.189
-31,57,9.19
-36,68,9.191
-30,118,9.192
-25,178,9.193
-23,207,9.194
-19,198,9.195
-12,152,9.196
-4,48,9.197
1,-85,9.198
11,-194,9.199
31,-206,9.2
39,-155,9.201
26,-128,9.202
8,-136,9.203
-1,-117,9.204
-5,-37,9.205
-21,59,9.206
-43,121,9.207
-49,128,9.208
-39,92,9.209
-33,43,9.21
-40,13,9.211
-42,9,9.212
-33,6,9.213
-25,-7,9.214
-27,-17,9.215
-24,-12,9.216
-6,-7,9.217
18,-20,9.218
35,-58,9.219
51,-107,9.22
71,-144,9.221
76,-153,9.222
58,-126,9.223
28,-88,9.224
3,-58,9.225
-13,-38,9.226
-28,-17,9.227
-36,2,9.228
-29,20,9.229
-18,38,9.23
-16,54,9.231
-17,59,9.232
-8,57,9.233
8,60,9.234
19,70,9.235
24,74,9.236
28,65,9.237
36,53,9.238
48,43,9.239
63,31,9.24
69,20,9.241
69,8,9.242
67,5,9.243
71,4,9.244
69,-1,9.245
43,-10,9.246
-11,-21,9.247
-67,-32,9.248
-91,-37,9.249
-84,-36,9.25
-70,-31,9.251
-55,-24,9.252
-23,-13,9.253
27,-4,9.254
52,4,9.255
23,13,9.256
-22,23,9.257
-23,33,9.258
16,33,9.259
46,28,9.26
75,21,9.261
97,21,9.262
119,28,9.263
141,22,9.264
141,-4,9.265
73,-44,9.266
10,-87,9.267
-34,-121,9.268
-76,-139,9.269
-109,-140,9.27
-132,-118,9.271
-126,-76,9.272
-111,-16,9.273
-69,64,9.274
-21,142,9.275
48,171,9.276
103,122,9.277
119,37,9.278
123,-43,9.279
73,-87,9.28
6,-107,9.281
-55,-110,9.282
-96,-81,9.283
-118,-40,9.284
-120,-28,9.285
-101,-45,9.286
-74,-53,9.287
-58,-45,9.288
-48,-50,9.289
-22,-73,9.29
22,-82,9.291
51,-58,9.292
50,-23,9.293
45,-2,9.294
58,5,9.295
81,12,9.296
90,19,9.297
94,21,9.298
96,15,9.299
99,10,9.3
98,8,9.301
84,4,9.302
72,0,9.303
69,-10,9.304
65,-21,9.305
59,-31,9.306
57,-39,9.307
67,-48,9.308
73,-54,9.309
61,-46,9.31
43,-23,9.311
9,1,9.312
-16,24,9.313
-16,48,9.314
-11,76,9.315
7,91,9.316
30,72,9.317
63,35,9.318
99,-6,9.319
131,-32,9.32
149,-45,9.321
141,-56,9.322
119,-59,9.323
100,-54,9.324
83,-40,9.325
41,-27,9.326
-30,-16,9.327
-71,4,9.328
-31,51,9.329
49,117,9.33
92,171,9.331
76,178,9.332
44,125,9.333
24,31,9.334
3,-74,9.335
-26,-160,9.336
-47,-206,9.337
-48,-211,9.338
-39,-190,9.339
-28,-151,9.34
-22,-96,9.341
-21,-37,9.342
-18,15,9.343
-3,53,9.344
26,100,9.345
43,160,9.346
27,204,9.347
-8,180,9.348
-39,89,9.349
-68,-25,9.35
-96,-113,9.351
-108,-165,9.352
-105,-174,9.353
-120,-144,9.354
-159,-87,9.355
-165,-23,9.356
-92,26,9.357
23,52,9.358
120,61,9.359
173,65,9.36
183,74,9.361
158,79,9.362
104,79,9.363
61,79,9.364
55,94,9.365
65,119,9.366
55,126,9.367
28,82,9.368
8,0,9.369
-8,-77,9.37
-38,-115,9.371
-62,-116,9.372
-58,-95,9.373
-29,-65,9.374
-2,-30,9.375
19,-1,9.376
44,7,9.377
71,-3,9.378
88,-27,9.379
91,-50,9.38
87,-61,9.381
60,-56,9.382
36,-41,9.383
20,-39,9.384
7,-56,9.385
8,-77,9.386
12,-88,9.387
22,-97,9.388
30,-103,9.389
26,-91,9.39
16,-48,9.391
-7,6,9.392
-28,42,9.393
-44,61,9.394
-52,81,9.395
-37,99,9.396
-14,89,9.397
33,59,9.398
77,37,9.399
99,38,9.4
102,45,9.401
92,37,9.402
63,33,9.403
18,44,9.404
-19,56,9.405
-35,52,9.406
-44,44,9.407
-55,46,9.408
-38,57,9.409
39,73,9.41
144,100,9.411
192,132,9.412
